Lead II
0.02
0.055
0.135
0.265
0.42
0.525
0.54
0.495
0.445
0.35
0.25
0.135
0.05
0.005
-0.03
-0.03
-0.02
-0.025
-0.04
-0.05
-0.04
-0.03
-0.04
-0.035
-0.045
-0.03
-0.015
-0.005
-0.01
-0.02
-0.025
-0.005
0.01
0.02
0.02
0.02
0.005
0.02
0.03
0.045
0.055
0.05
0.035
0.03
0.055
0.06
0.06
0.055
0.055
0.08
0.095
0.095
0.095
0.095
0.095
0.105
0.13
0.135
0.135
0.12
0.11
0.115
0.12
0.13
0.135
0.135
0.13
0.14
0.145
0.145
0.165
0.16
0.165
0.175
0.185
0.2
0.21
0.22
0.23
0.24
0.245
0.235
0.235
0.255
0.24
0.245
0.255
0.305
0.295
0.295
0.27
0.265
0.28
0.3
0.295
0.3
0.295
0.31
0.33
0.36
0.335
0.305
0.3
0.29
0.28
0.285
0.28
0.28
0.27
0.275
0.275
0.275
0.26
0.23
0.195
0.185
0.185
0.195
0.205
0.185
0.155
0.15
0.145
0.13
0.14
0.135
0.13
0.145
0.15
0.15
0.155
0.145
0.155
0.155
0.145
0.15
0.135
0.145
0.125
0.135
0.145
0.125
0.095
0.1
0.105
0.105
0.11
0.13
0.12
0.12
0.105
0.105
0.11
0.105
0.11
0.105
0.1
0.1
0.12
0.1
0.095
0.08
0.1
0.11
0.13
0.13
0.12
0.11
0.11
0.105
0.1
0.11
0.125
0.11
0.1
0.105
0.115
0.115
0.105
0.1
0.105
0.11
0.125
0.155
0.14
0.13
0.12
0.11
0.115
0.135
0.13
0.14
0.145
0.145
0.165
0.175
0.205
0.215
0.185
0.165
0.16
0.13
0.155
0.175
0.195
0.225
0.24
0.27
0.34
0.415
0.525
0.625
0.715
0.795
0.87
0.965
1.095
1.27
1.43
1.575
1.67
1.77
1.88
1.985
2.085
2.21
2.295
2.345
2.41
2.445
2.465
2.445
2.345
2.16
1.91
1.625
1.35
1.045
0.755
0.51
0.295
0.16
0.05
-0.04
-0.145
-0.225
-0.28
-0.285
-0.255
-0.24
-0.26
-0.275
-0.275
-0.25
-0.225
-0.205
-0.21
-0.205
-0.21
-0.2
-0.205
-0.205
-0.215
-0.23
-0.26
-0.255
-0.24
-0.225
-0.23
-0.25
-0.28
-0.27
-0.245
-0.22
-0.215
-0.235
-0.255
-0.25
-0.255
-0.26
-0.27
-0.285
-0.3
-0.305
-0.31
-0.305
-0.3
-0.31
-0.34
-0.355
-0.355
-0.36
-0.37
-0.38
-0.38
-0.375
-0.365
-0.375
-0.385
-0.43
-0.45
-0.425
-0.39
-0.375
-0.35
-0.345
-0.35
-0.355
-0.365
-0.355
-0.37
-0.36
-0.355
-0.34
-0.33
-0.295
-0.285
-0.29
-0.305
-0.295
-0.275
-0.26
-0.25
-0.26
-0.25
-0.225
-0.2
-0.195
-0.185
-0.195
-0.175
-0.145
-0.11
-0.09
-0.085
-0.095
-0.1
-0.095
-0.08
-0.06
-0.035
-0.02
-0.015
-0.02
-0.015
-0.02
-0.015
0.0
0.015
0.03
0.05
0.07
0.065
0.065
0.05
0.04
0.03
0.02
0.015
0.045
0.045
0.07
0.095
0.105
0.1
0.065
0.04
0.015
0.04
0.05
0.055
0.065
0.075
0.08
0.055
0.06
0.05
0.04
0.02
0.045
0.085
0.08
0.075
0.055
0.05
0.05
0.065
0.085
0.095
0.095
0.09
0.1
0.105
0.105
0.085
0.055
0.035
0.075
0.1
0.115
0.125
0.11
0.09
0.105
0.11
0.105
0.11
0.11
0.09
0.1
0.115
0.12
0.125
0.1
0.085
0.1
0.135
0.14
0.15
0.14
0.115
0.11
0.08
0.095
0.09
0.09
0.095
0.115
0.135
0.145
0.135
0.12
0.095
0.12
0.14
0.15
0.155
0.15
0.15
0.135
0.13
0.14
0.13
0.135
0.13
0.155
0.17
0.185
0.175
0.165
0.15
0.155
0.175
0.19
0.19
0.175
0.16
0.155
0.18
0.18
0.19
0.18
0.19
0.19
0.19
0.18
0.175
0.155
0.16
0.17
0.185
0.205
0.215
0.22
0.205
0.2
0.2
0.21
0.2
0.17
0.17
0.195
0.245
0.28
0.29
0.305
0.295
0.305
0.325
0.33
0.345
0.365
0.39
0.43
0.45
0.44
0.425
0.42
0.405
0.43
0.46
0.485
0.485
0.48
0.445
0.45
0.445
0.435
0.43
0.415
0.4
0.4
0.435
0.45
0.47
0.47
0.46
0.465
0.475
0.48
0.495
0.5
0.51
0.51
0.515
0.525
0.52
0.515
0.495
0.52
0.545
0.575
0.59
0.58
0.57
0.575
0.58
0.595
0.62
0.63
0.635
0.655
0.685
0.705
0.73
0.755
0.77
0.785
0.8
0.825
0.825
0.82
0.825
0.84
0.845
0.86
0.87
0.89
0.89
0.89
0.905
0.9
0.89
0.9
0.895
0.925
0.95
0.975
0.97
0.925
0.885
0.835
0.795
0.765
0.775
0.825
0.885
0.955
1.005
1.05
1.085
1.075
1.065
1.09
1.135
1.22
1.36
1.52
1.63
1.655
1.63
1.57
1.47
1.315
1.205
1.135
1.075
1.06
1.065
1.065
1.075
1.08
1.095
1.105
1.095
1.075
1.065
1.07
1.085
1.115
1.12
1.115
1.125
1.14
1.15
1.15
1.135
1.11
1.13
1.145
1.135
1.155
1.165
1.16
1.145
1.135
1.14
1.145
1.16
1.165
1.155
1.14
1.15
1.165
1.185
1.17
1.155
1.17
1.175
1.18
1.19
1.18
1.195
1.195
1.19
1.195
1.185
1.19
1.185
1.18
1.185
1.185
1.185
1.175
1.165
1.19
1.22
1.24
1.24
1.22
1.225
1.215
1.2
1.21
1.22
1.225
1.225
1.205
1.215
1.21
1.2
1.195
1.19
1.2
1.215
1.215
1.21
1.175
1.155
1.13
1.12
1.13
1.145
1.12
1.075
1.065
1.035
1.025
1.015
0.995
0.98
1.0
1.01
0.99
0.985
0.945
0.92
0.905
0.905
0.91
0.895
0.875
0.85
0.84
0.835
0.82
0.8
0.79
0.785
0.79
0.775
0.8
0.795
0.785
0.755
0.76
0.735
0.76
0.755
0.74
0.705
0.685
0.67
0.65
0.645
0.63
0.61
0.62
0.625
0.635
0.625
0.6
0.585
0.57
0.585
0.61
0.61
0.595
0.575
0.55
0.545
0.545
0.56
0.56
0.57
0.575
0.56
0.55
0.52
0.515
0.49
0.505
0.52
0.535
0.53
0.525
0.51
0.515
0.52
0.535
0.55
0.56
0.555
0.565
0.595
0.63
0.63
0.62
0.63
0.635
0.63
0.65
0.635
0.635
0.615
0.6
0.575
0.575
0.575
0.55
0.505
0.495
0.475
0.465
0.465
0.435
0.43
0.445
0.465
0.455
0.455
0.42
0.41
0.39
0.39
0.395
0.43
0.43
0.405
0.38
0.37
0.375
0.38
0.375
0.36
0.36
0.38
0.39
0.38
0.38
0.38
0.405
0.42
0.455
0.47
0.485
0.49
0.49
0.485
0.5
0.495
0.505
0.5
0.505
0.53
0.545
0.53
0.52
0.525
0.54
0.555
0.585
0.575
0.56
0.53
0.565
0.565
0.565
0.53
0.49
0.445
0.375
0.325
0.345
0.39
0.445
0.48
0.53
0.56
0.6
0.615
0.635
0.665
0.74
0.9
1.13
1.28
1.345
1.265
1.17
1.06
0.955
0.865
0.78
0.76
0.74
0.735
0.69
0.645
0.615
0.61
0.65
0.67
0.66
0.655
0.65
0.655
0.635
0.635
0.655
0.665
0.675
0.7
0.73
0.77
0.795
0.79
0.78
0.765
0.79
0.82
0.85
0.87
0.885
0.885
0.885
0.91
0.94
0.965
0.965
0.97
0.975
0.99
1.01
1.03
1.055
1.095
1.135
1.17
1.19
1.205
1.185
1.17
1.19
1.23
1.27
1.29
1.275
1.225
1.175
1.17
1.19
1.19
1.195
1.22
1.27
1.325
1.36
1.365
1.355
1.33
1.325
1.315
1.335
1.35
1.335
1.355
1.36
1.38
1.385
1.385
1.37
1.37
1.38
1.39
1.405
1.39
1.39
1.38
1.38
1.39
1.38
1.39
1.35
1.335
1.34
1.33
1.315
1.29
1.285
1.285
1.3
1.295
1.285
1.275
1.255
1.26
1.27
1.29
1.3
1.295
1.285
1.275
1.26
1.265
1.275
1.295
1.275
1.225
1.2
1.205
1.195
1.195
1.2
1.2
1.21
1.215
1.2
1.17
1.15
1.135
1.14
1.15
1.155
1.145
1.135
1.11
1.09
1.075
1.075
1.07
1.065
1.055
1.07
1.095
1.105
1.085
1.06
1.03
1.03
1.045
1.055
1.07
1.045
1.02
1.02
1.02
1.04
1.04
1.025
1.015
1.02
1.02
0.995
0.975
0.98
0.965
0.975
1.0
1.04
1.05
1.04
1.04
1.055
1.055
1.065
1.045
1.015
0.99
1.01
1.015
1.0
0.98
0.955
0.92
0.915
0.9
0.875
0.855
0.83
0.82
0.805
0.815
0.825
0.82
0.795
0.76
0.77
0.74
0.75
0.73
0.73
0.715
0.705
0.69
0.675
0.675
0.655
0.625
0.605
0.605
0.62
0.625
0.59
0.58
0.56
0.56
0.565
0.555
0.55
0.535
0.565
0.57
0.585
0.57
0.55
0.515
0.49
0.48
0.5
0.525
0.49
0.47
0.44
0.44
0.44
0.445
0.425
0.415
0.405
0.385
0.375
0.35
0.32
0.28
0.27
0.24
0.185
0.13
0.07
0.045
0.06
0.125
0.185
0.225
0.23
0.235
0.245
0.255
0.31
0.425
0.575
0.715
0.775
0.76
0.68
0.585
0.45
0.35
0.28
0.225
0.185
0.17
0.155
0.125
0.12
0.125
0.125
0.13
0.095
0.075
0.07
0.085
0.065
0.04
0.01
-0.015
-0.03
-0.015
0.005
0.005
-0.01
-0.03
-0.015
-0.02
-0.02
-0.04
-0.07
-0.085
-0.12
-0.12
-0.115
-0.14
-0.13
-0.155
-0.135
-0.115
-0.09
-0.08
-0.09
-0.11
-0.13
-0.14
-0.12
-0.11
-0.125
-0.14
-0.145
-0.15
-0.155
-0.17
-0.175
-0.2
-0.19
-0.18
-0.17
-0.18
-0.21
-0.235
-0.245
-0.25
-0.235
-0.26
-0.285
-0.315
-0.32
-0.325
-0.315
-0.33
-0.345
-0.355
-0.345
-0.35
-0.36
-0.375
-0.43
-0.455
-0.465
-0.47
-0.465
-0.455
-0.485
-0.525
-0.54
-0.54
-0.565
-0.585
-0.605
-0.64
-0.65
-0.655
-0.68
-0.66
-0.675
-0.68
-0.67
-0.66
-0.67
-0.64
-0.645
-0.67
-0.67
-0.675
-0.68
-0.67
-0.665
-0.665
-0.66
-0.65
-0.66
-0.67
-0.675
-0.68
-0.68
-0.645
-0.63
-0.63
-0.65
-0.67
-0.675
-0.675
-0.69
-0.705
-0.715
-0.715
-0.685
-0.625
-0.595
-0.6
-0.645
-0.685
-0.7
-0.675
-0.665
-0.69
-0.7
-0.73
-0.75
-0.75
-0.75
-0.755
-0.755
-0.77
-0.765
-0.745
-0.745
-0.745
-0.755
-0.78
-0.78
-0.785
-0.77
-0.77
-0.775
-0.785
-0.79
-0.785
-0.77
-0.78
-0.77
-0.76
-0.755
-0.75
-0.755
-0.78
-0.79
-0.815
-0.85
-0.84
-0.835
-0.8
-0.775
-0.755
-0.695
-0.61
-0.515
-0.41
-0.34
-0.24
-0.145
-0.045
0.05
0.165
0.31
0.45
0.57
0.665
0.765
0.855
0.945
1.01
1.08
1.165
1.24
1.29
1.3
1.325
1.34
1.34
1.305
1.225
1.08
0.875
0.655
0.4
0.15
-0.08
-0.32
-0.51
-0.67
-0.815
-0.95
-1.07
-1.175
-1.255
-1.285
-1.285
-1.275
-1.29
-1.31
-1.315
-1.305
-1.295
-1.295
-1.3
-1.31
-1.32
-1.315
-1.305
-1.27
-1.25
-1.265
-1.285
-1.28
-1.28
-1.295
-1.29
-1.29
-1.29
-1.295
-1.3
-1.32
-1.335
-1.375
-1.4
-1.4
-1.41
-1.39
-1.385
-1.385
-1.405
-1.41
-1.43
-1.43
-1.45
-1.49
-1.52
-1.51
-1.49
-1.47
-1.475
-1.49
-1.515
-1.535
-1.55
-1.54
-1.55
-1.565
-1.595
-1.605
-1.61
-1.605
-1.585
-1.575
-1.57
-1.56
-1.57
-1.58
-1.575
-1.58
-1.575
-1.575
-1.56
-1.555
-1.585
-1.61
-1.61
-1.58
-1.56
-1.545
-1.52
-1.525
-1.54
-1.535
-1.505
-1.465
-1.455
-1.44
-1.45
-1.44
-1.435
-1.425
-1.43
-1.415
-1.41
-1.4
-1.39
-1.365
-1.335
-1.325
-1.305
-1.3
-1.265
-1.25
-1.24
-1.26
-1.28
-1.265
-1.245
-1.215
-1.21
-1.215
-1.21
-1.215
-1.2
-1.195
-1.18
-1.17
-1.175
-1.175
-1.14
-1.135
-1.125
-1.125
-1.14
-1.14
-1.15
-1.13
-1.13
-1.14
-1.13
-1.13
-1.125
-1.115
-1.105
-1.125
-1.145
-1.11
-1.08
-1.06
-1.055
-1.06
-1.085
-1.08
-1.065
-1.04
-1.045
-1.06
-1.04
-1.065
-1.04
-1.045
-1.06
-1.075
-1.09
-1.085
-1.08
-1.065
-1.065
-1.05
-1.05
-1.04
-1.02
-1.01
-1.005
-1.02
-1.02
-1.02
-1.025
-1.01
-1.015
-1.025
-1.045
-1.055
-1.05
-1.035
-1.04
-1.06
-1.065
-1.045
-1.04
-1.035
-1.025
-1.045
-1.055
-1.045
-1.01
-1.005
-1.005
-1.015
-1.015
-1.0
-0.995
-0.96
-0.955
-0.97
-0.99
-1.02
-1.0
-0.985
-0.97
-0.965
-0.975
-0.95
-0.955
-0.93
-0.94
-0.945
-0.97
-0.945
-0.92
-0.885
-0.9
-0.93
-0.96
-0.95
-0.93
-0.925
-0.935
-0.95
-0.94
-0.94
-0.93
-0.915
-0.91
-0.92
-0.935
-0.94
-0.93
-0.915
-0.895
-0.885
-0.885
-0.9
-0.9
-0.885
-0.885
-0.93
-0.93
-0.935
-0.915
-0.9
-0.885
-0.885
-0.885
-0.87
-0.87
-0.865
-0.855
-0.87
-0.88
-0.88
-0.87
-0.87
-0.855
-0.87
-0.885
-0.885
-0.865
-0.85
-0.845
-0.845
-0.85
-0.845
-0.845
-0.83
-0.83
-0.83
-0.85
-0.85
-0.825
-0.81
-0.79
-0.79
-0.76
-0.72
-0.705
-0.68
-0.685
-0.7
-0.735
-0.72
-0.69
-0.69
-0.705
-0.74
-0.755
-0.77
-0.795
-0.775
-0.775
-0.785
-0.805
-0.795
-0.795
-0.79
-0.8
-0.81
-0.82
-0.835
-0.835
-0.835
-0.83
-0.855
-0.86
-0.85
-0.84
-0.855
-0.835
-0.85
-0.86
-0.85
-0.84
-0.83
-0.83
-0.845
-0.87
-0.86
-0.855
-0.85
-0.855
-0.875
-0.89
-0.895
-0.87
-0.855
-0.845
-0.86
-0.89
-0.895
-0.885
-0.87
-0.865
-0.865
-0.86
-0.835
-0.8
-0.77
-0.76
-0.77
-0.8
-0.795
-0.785
-0.76
-0.765
-0.765
-0.765
-0.765
-0.765
-0.755
-0.75
-0.76
-0.775
-0.745
-0.74
-0.725
-0.735
-0.75
-0.755
-0.75
-0.755
-0.745
-0.75
-0.78
-0.8
-0.8
-0.805
-0.81
-0.84
-0.89
-0.895
-0.87
-0.845
-0.825
-0.8
-0.765
-0.75
-0.725
-0.665
-0.62
-0.585
-0.575
-0.565
-0.525
-0.45
-0.335
-0.19
-0.06
-0.01
-0.01
-0.045
-0.07
-0.12
-0.21
-0.305
-0.38
-0.455
-0.51
-0.58
-0.63
-0.64
-0.625
-0.605
-0.565
-0.565
-0.57
-0.615
-0.64
-0.665
-0.69
-0.71
-0.73
-0.745
-0.705
-0.66
-0.61
-0.61
-0.615
-0.64
-0.665
-0.67
-0.655
-0.635
-0.64
-0.645
-0.615
-0.59
-0.575
-0.59
-0.605
-0.605
-0.595
-0.57
-0.55
-0.54
-0.555
-0.565
-0.555
-0.545
-0.53
-0.545
-0.555
-0.53
-0.52
-0.52
-0.485
-0.475
-0.465
-0.45
-0.46
-0.45
-0.44
-0.455
-0.455
-0.485
-0.495
-0.48
-0.455
-0.44
-0.425
-0.42
-0.42
-0.415
-0.43
-0.425
-0.43
-0.44
-0.415
-0.4
-0.38
-0.355
-0.38
-0.405
-0.395
-0.38
-0.355
-0.34
-0.335
-0.33
-0.335
-0.31
-0.315
-0.305
-0.32
-0.345
-0.355
-0.365
-0.375
-0.385
-0.38
-0.39
-0.385
-0.355
-0.345
-0.335
-0.34
-0.37
-0.365
-0.355
-0.35
-0.345
-0.365
-0.38
-0.38
-0.355
-0.33
-0.34
-0.37
-0.395
-0.415
-0.415
-0.395
-0.37
-0.33
-0.355
-0.385
-0.415
-0.45
-0.49
-0.52
-0.55
-0.555
-0.54
-0.505
-0.5
-0.505
-0.5
-0.49
-0.495
-0.505
-0.515
-0.53
-0.54
-0.545
-0.535
-0.535
-0.545
-0.545
-0.53
-0.53
-0.535
-0.535
-0.545
-0.545
-0.57
-0.565
-0.535
-0.495
-0.475
-0.445
-0.41
-0.365
-0.36
-0.41
-0.515
-0.595
-0.635
-0.625
-0.59
-0.56
-0.555
-0.565
-0.575
-0.545
-0.52
-0.48
-0.465
-0.47
-0.49
-0.5
-0.495
-0.49
-0.48
-0.5
-0.49
-0.515
-0.515
-0.53
-0.55
-0.555
-0.55
-0.53
-0.52
-0.495
-0.48
-0.48
-0.495
-0.515
-0.5
-0.48
-0.455
-0.485
-0.525
-0.515
-0.51
-0.535
-0.56
-0.585
-0.61
-0.595
-0.585
-0.55
-0.535
-0.53
-0.535
-0.515
-0.49
-0.46
-0.45
-0.44
-0.44
-0.425
-0.395
-0.365
-0.355
-0.365
-0.38
-0.365
-0.365
-0.36
-0.395
-0.415
-0.44
-0.49
-0.51
-0.505
-0.495
-0.475
-0.48
-0.49
-0.515
-0.535
-0.565
-0.595
-0.6
-0.605
-0.605
-0.575
-0.575
-0.6
-0.63
-0.65
-0.64
-0.63
-0.62
-0.61
-0.62
-0.64
-0.625
-0.59
-0.58
-0.605
-0.625
-0.645
-0.64
-0.625
-0.645
-0.66
-0.68
-0.69
-0.68
-0.655
-0.64
-0.66
-0.65
-0.66
-0.635
-0.62
-0.64
-0.65
-0.64
-0.615
-0.575
-0.545
-0.54
-0.545
-0.57
-0.565
-0.56
-0.555
-0.56
-0.565
-0.55
-0.545
-0.52
-0.5
-0.49
-0.48
-0.46
-0.45
-0.43
-0.445
-0.455
-0.45
-0.47
-0.465
-0.43
-0.42
-0.425
-0.47
-0.505
-0.56
-0.585
-0.585
-0.56
-0.555
-0.555
-0.535
-0.475
-0.39
-0.36
-0.355
-0.365
-0.35
-0.305
-0.23
-0.13
0.01
0.185
0.335
0.4
0.41
0.375
0.34
0.27
0.175
0.1
0.045
-0.025
-0.115
-0.18
-0.215
-0.215
-0.215
-0.215
-0.215
-0.215
-0.21
-0.195
-0.195
-0.23
-0.245
-0.255
-0.255
-0.225
-0.2
-0.185
-0.18
-0.175
-0.175
-0.165
-0.15
-0.145
-0.14
-0.16
-0.145
-0.14
-0.105
-0.085
-0.08
-0.085
-0.08
-0.08
-0.065
-0.08
-0.07
-0.04
-0.015
0.04
0.06
0.05
0.03
0.01
-0.005
0.015
0.045
0.065
0.11
0.135
0.155
0.175
0.175
0.17
0.185
0.175
0.165
0.17
0.195
0.2
0.21
0.22
0.235
0.24
0.255
0.24
0.225
0.23
0.24
0.28
0.305
0.3
0.285
0.285
0.265
0.28
0.295
0.265
0.26
0.265
0.275
0.29
0.315
0.3
0.27
0.245
0.235
0.235
0.225
0.225
0.21
0.19
0.175
0.185
0.185
0.155
0.135
0.1
0.06
0.065
0.065
0.045
0.035
0.02
0.02
0.025
0.03
0.01
-0.005
-0.03
-0.055
-0.055
-0.06
-0.075
-0.09
-0.09
-0.085
-0.095
-0.105
-0.12
-0.13
-0.16
-0.185
-0.18
-0.165
-0.18
-0.185
-0.205
-0.225
-0.215
-0.21
-0.25
-0.285
-0.315
-0.305
-0.29
-0.27
-0.275
-0.285
-0.3
-0.34
-0.325
-0.33
-0.365
-0.365
-0.385
-0.4
-0.405
-0.375
-0.4
-0.405
-0.42
-0.41
-0.405
-0.395
-0.4
-0.415
-0.435
-0.435
-0.415
-0.415
-0.43
-0.435
-0.45
-0.48
-0.46
-0.45
-0.445
-0.44
-0.435
-0.455
-0.45
-0.47
-0.48
-0.51
-0.515
-0.53
-0.49
-0.45
-0.43
-0.41
-0.405
-0.405
-0.41
-0.39
-0.405
-0.43
-0.435
-0.435
-0.42
-0.4
-0.395
-0.385
-0.365
-0.34
-0.335
-0.33
-0.345
-0.355
-0.33
-0.315
-0.3
-0.285
-0.28
-0.265
-0.24
-0.23
-0.215
-0.2
-0.185
-0.15
-0.115
-0.125
-0.085
-0.055
-0.05
-0.04
-0.035
-0.04
-0.045
-0.035
-0.03
-0.06
-0.075
-0.075
-0.07
-0.06
-0.075
-0.115
-0.14
-0.15
-0.13
-0.115
-0.115
-0.125
-0.125
-0.165
-0.16
-0.14
-0.14
-0.145
-0.16
-0.17
-0.16
-0.145
-0.16
-0.15
-0.16
-0.165
-0.16
-0.17
-0.185
-0.19
-0.19
-0.19
-0.16
-0.16
-0.15
-0.15
-0.155
-0.165
-0.175
-0.15
-0.185
-0.175
-0.19
-0.195
-0.175
-0.14
-0.135
-0.12
-0.135
-0.13
-0.11
-0.1
-0.13
-0.13
-0.125
-0.085
-0.035
-0.01
-0.04
-0.07
-0.095
-0.085
-0.075
-0.055
-0.04
-0.03
-0.03
-0.035
-0.02
-0.01
-0.02
-0.05
-0.06
-0.065
-0.06
-0.045
-0.05
-0.08
-0.135
-0.175
-0.2
-0.165
-0.145
-0.135
-0.1
-0.07
0.005
0.08
0.12
0.125
0.125
0.16
0.23
0.35
0.49
0.64
0.715
0.725
0.7
0.635
0.525
0.38
0.26
0.185
0.12
0.075
0.045
0.025
0.04
0.015
0.01
0.015
0.01
0.02
0.025
0.025
0.0
-0.005
-0.005
-0.005
-0.02
-0.04
-0.03
-0.005
0.015
0.02
0.03
0.015
0.02
0.005
-0.025
-0.02
-0.02
0.005
0.04
0.06
0.07
0.075
0.055
0.05
0.065
0.1
0.13
0.135
0.16
0.18
0.2
0.2
0.2
0.195
0.165
0.17
0.175
0.2
0.21
0.215
0.215
0.24
0.23
0.245
0.265
0.3
0.315
0.31
0.295
0.305
0.31
0.305
0.29
0.295
0.325
0.37
0.365
0.36
0.345
0.34
0.365
0.39
0.39
0.39
0.385
0.395
0.41
0.405
0.415
0.38
0.37
0.355
0.37
0.345
0.33
0.345
0.325
0.315
0.315
0.31
0.31
0.28
0.26
0.27
0.275
0.26
0.225
0.185
0.145
0.115
0.125
0.13
0.105
0.095
0.085
0.07
0.075
0.05
0.03
0.025
0.035
0.035
0.05
0.07
0.06
0.035
0.035
0.035
0.03
0.01
-0.01
-0.015
0.0
0.02
0.02
0.015
0.02
0.015
0.005
0.005
0.015
0.04
0.03
0.035
0.045
0.045
0.025
0.025
0.02
0.025
0.035
0.065
0.11
0.115
0.055
-0.015
-0.065
-0.11
-0.125
-0.095
-0.07
-0.045
-0.045
-0.075
-0.085
-0.075
-0.05
-0.045
-0.04
-0.05
-0.025
-0.015
-0.01
-0.04
-0.075
-0.09
-0.06
-0.04
-0.04
-0.055
-0.065
-0.07
-0.05
-0.055
-0.05
-0.03
-0.01
0.005
0.015
0.03
0.035
0.005
-0.02
-0.05
-0.03
-0.005
0.01
0.01
0.02
0.005
0.0
-0.025
-0.06
-0.09
-0.115
-0.115
-0.1
-0.115
-0.115
-0.135
-0.135
-0.16
-0.155
-0.14
-0.15
-0.16
-0.165
-0.145
-0.125
-0.115
-0.125
-0.145
-0.19
-0.2
-0.195
-0.15
-0.15
-0.18
-0.2
-0.205
-0.18
-0.15
-0.14
-0.16
-0.17
-0.165
-0.145
-0.12
-0.105
-0.105
-0.12
-0.125
-0.115
-0.095
-0.09
-0.085
-0.075
-0.06
-0.04
-0.03
-0.03
-0.04
-0.03
-0.04
-0.02
-0.01
0.01
0.015
-0.005
-0.015
-0.02
-0.01
0.005
0.005
-0.01
0.0
0.015
0.03
0.0
-0.005
-0.04
-0.07
-0.115
-0.15
-0.22
-0.21
-0.215
-0.18
-0.155
-0.1
-0.065
-0.06
-0.045
-0.045
0.005
0.03
0.095
0.155
0.3
0.45
0.605
0.705
0.715
0.705
0.65
0.55
0.445
0.335
0.225
0.135
0.07
0.035
0.05
0.07
0.09
0.095
0.085
0.08
0.08
0.08
0.08
0.06
0.055
0.055
0.075
0.09
0.09
0.08
0.075
0.07
0.08
0.065
0.065
0.055
0.055
0.07
0.075
0.105
0.135
0.14
0.14
0.165
0.19
0.205
0.21
0.205
0.205
0.22
0.23
0.265
0.25
0.25
0.245
0.225
0.245
0.275
0.28
0.285
0.29
0.3
0.315
0.315
0.315
0.295
0.27
0.28
0.315
0.34
0.355
0.355
0.355
0.355
0.34
0.33
0.31
0.29
0.29
0.295
0.32
0.35
0.345
0.34
0.32
0.285
0.275
0.285
0.26
0.24
0.235
0.215
0.215
0.22
0.21
0.19
0.165
0.15
0.125
0.12
0.115
0.105
0.065
0.05
0.03
0.025
0.01
-0.025
-0.045
-0.06
-0.09
-0.105
-0.135
-0.18
-0.215
-0.245
-0.235
-0.25
-0.25
-0.28
-0.325
-0.34
-0.335
-0.315
-0.33
-0.335
-0.335
-0.31
-0.3
-0.31
-0.335
-0.37
-0.38
-0.385
-0.37
-0.375
-0.37
-0.385
-0.415
-0.42
-0.41
-0.405
-0.39
-0.415
-0.415
-0.43
-0.45
-0.455
-0.455
-0.45
-0.465
-0.46
-0.455
-0.44
-0.43
-0.45
-0.465
-0.495
-0.5
-0.48
-0.455
-0.47
-0.465
-0.45
-0.435
-0.445
-0.435
-0.425
-0.43
-0.415
-0.425
-0.395
-0.385
-0.395
-0.42
-0.405
-0.39
-0.37
-0.365
-0.375
-0.375
-0.355
-0.32
-0.305
-0.285
-0.26
-0.265
-0.245
-0.23
-0.205
-0.195
-0.185
-0.185
-0.195
-0.19
-0.165
-0.15
-0.18
-0.245
-0.27
-0.265
-0.27
-0.27
-0.3
-0.305
-0.3
-0.26
-0.24
-0.25
-0.255
-0.27
-0.265
-0.24
-0.245
-0.265
-0.265
-0.265
-0.265
-0.275
-0.28
-0.3
-0.29
-0.28
-0.275
-0.28
-0.295
-0.285
-0.27
-0.285
-0.3
-0.3
-0.295
-0.31
-0.31
-0.305
-0.295
-0.295
-0.29
-0.27
-0.275
-0.27
-0.255
-0.25
-0.27
-0.275
-0.27
-0.245
-0.255
-0.245
-0.23
-0.215
-0.235
-0.245
-0.26
-0.26
-0.245
-0.255
-0.26
-0.285
-0.32
-0.335
-0.34
-0.355
-0.45
-0.515
-0.545
-0.505
-0.46
-0.44
-0.395
-0.365
-0.31
-0.275
-0.24
-0.205
-0.125
0.0
0.165
0.35
0.435
0.41
0.33
0.2
0.055
-0.035
-0.085
-0.145
-0.215
-0.275
-0.3
-0.295
-0.295
-0.285
-0.275
-0.255
-0.265
-0.26
-0.26
-0.255
-0.25
-0.245
-0.25
-0.25
-0.245
-0.245
-0.24
-0.275
-0.275
-0.255
-0.24
-0.24
-0.24
-0.25
-0.265
-0.27
-0.25
-0.225
-0.225
-0.26
-0.245
-0.225
-0.18
-0.16
-0.175
-0.175
-0.18
-0.195
-0.2
-0.22
-0.225
-0.235
-0.205
-0.175
-0.18
-0.18
-0.18
-0.2
-0.2
-0.195
-0.165
-0.13
-0.115
-0.12
-0.135
-0.145
-0.13
-0.11
-0.1
-0.125
-0.125
-0.115
-0.12
-0.125
-0.14
-0.11
-0.075
-0.055
-0.025
-0.035
-0.055
-0.1
-0.12
-0.105
-0.08
-0.085
-0.075
-0.08
-0.095
-0.1
-0.095
-0.105
-0.12
-0.14
-0.145
-0.165
-0.15
-0.155
-0.17
-0.215
-0.22
-0.225
-0.24
-0.24
-0.25
-0.27
-0.29
-0.285
-0.285
-0.27
-0.265
-0.28
-0.29
-0.26
-0.255
-0.26
-0.28
-0.28
-0.27
-0.255
-0.26
-0.255
-0.23
-0.235
-0.245
-0.24
-0.225
-0.22
-0.21
-0.205
-0.21
-0.19
-0.19
-0.195
-0.2
-0.21
-0.22
-0.225
-0.225
-0.21
-0.215
-0.22
-0.235
-0.23
-0.225
-0.2
-0.19
-0.2
-0.195
-0.22
-0.24
-0.225
-0.225
-0.235
-0.245
-0.23
-0.21
-0.19
-0.2
-0.195
-0.21
-0.21
-0.205
-0.21
-0.235
-0.27
-0.285
-0.285
-0.26
-0.255
-0.23
-0.2
-0.11
0.035
0.165
0.275
0.37
0.44
0.535
0.675
0.835
0.97
1.095
1.205
1.305
1.41
1.515
1.595
1.665
1.76
1.86
1.955
2.05
2.07
2.03
1.92
1.74
1.505
1.23
0.935
0.67
0.43
0.23
0.055
-0.095
-0.22
-0.32
-0.39
-0.375
-0.365
-0.375
-0.4
-0.42
-0.44
-0.435
-0.395
-0.385
-0.365
-0.365
-0.385
-0.41
-0.42
-0.415
-0.385
-0.355
-0.345
-0.345
-0.33
-0.315
-0.32
-0.32
-0.33
-0.32
-0.32
-0.295
-0.3
-0.295
-0.315
-0.315
-0.31
-0.295
-0.29
-0.28
-0.285
-0.295
-0.28
-0.275
-0.28
-0.295
-0.285
-0.285
-0.265
-0.235
-0.215
-0.215
-0.24
-0.235
-0.215
-0.19
-0.175
-0.14
-0.145
-0.16
-0.16
-0.095
-0.06
-0.05
-0.04
0.0
0.025
0.05
0.06
0.065
0.11
0.14
0.2
0.24
0.275
0.275
0.26
0.265
0.32
0.385
0.415
0.425
0.44
0.465
0.515
0.56
0.57
0.595
0.595
0.615
0.635
0.66
0.68
0.705
0.72
0.73
0.735
0.76
0.775
0.795
0.81
0.815
0.82
0.86
0.88
0.87
0.855
0.84
0.86
0.885
0.91
0.92
0.9
0.9
0.91
0.925
0.94
0.96
0.965
0.965
0.975
0.985
1.0
1.0
0.985
0.99
1.015
1.035
1.055
1.04
1.025
1.01
1.02
1.055
1.08
1.11
1.115
1.1
1.11
1.115
1.12
1.1
1.095
1.1
1.12
1.115
1.125
1.115
1.08
1.085
1.095
1.115
1.1
1.125
1.125
1.1
1.095
1.095
1.09
1.07
1.065
1.07
1.07
1.085
1.065
1.05
1.035
1.035
1.04
1.035
1.05
1.045
1.02
1.02
1.025
1.025
1.015
0.98
0.945
0.94
0.97
0.985
0.96
0.94
0.915
0.9
0.9
0.875
0.885
0.88
0.875
0.865
0.85
0.84
0.83
0.835
0.82
0.8
0.775
0.775
0.795
0.79
0.75
0.74
0.72
0.705
0.67
0.665
0.645
0.63
0.625
0.63
0.615
0.615
0.59
0.585
0.58
0.56
0.535
0.535
0.525
0.525
0.52
0.505
0.5
0.5
0.46
0.425
0.4
0.42
0.425
0.425
0.405
0.365
0.35
0.35
0.345
0.33
0.315
0.315
0.305
0.32
0.32
0.285
0.25
0.235
0.26
0.28
0.295
0.29
0.28
0.28
0.29
0.31
0.28
0.25
0.21
0.205
0.195
0.2
0.2
0.19
0.17
0.145
0.125
0.11
0.1
0.1
0.075
0.065
0.065
0.03
0.02
0.01
-0.015
-0.015
-0.025
-0.035
-0.045
-0.055
-0.085
-0.095
-0.095
-0.08
-0.08
-0.1
-0.12
-0.145
-0.14
-0.135
-0.14
-0.155
-0.175
-0.185
-0.175
-0.185
-0.165
-0.175
-0.205
-0.235
-0.25
-0.23
-0.205
-0.215
-0.235
-0.255
-0.25
-0.23
-0.22
-0.235
-0.225
-0.21
-0.2
-0.2
-0.205
-0.23
-0.225
-0.205
-0.19
-0.195
-0.17
-0.19
-0.2
-0.2
-0.19
-0.18
-0.185
-0.21
-0.23
-0.235
-0.22
-0.2
-0.195
-0.19
-0.215
-0.245
-0.275
-0.3
-0.335
-0.385
-0.42
-0.425
-0.405
-0.39
-0.37
-0.36
-0.345
-0.325
-0.285
-0.255
-0.225
-0.205
-0.175
-0.1
0.035
0.205
0.35
0.41
0.395
0.345
0.3
0.215
0.105
0.005
-0.075
-0.14
-0.17
-0.205
-0.2
-0.195
-0.215
-0.2
-0.18
-0.18
-0.175
-0.18
-0.2
-0.235
-0.23
-0.235
-0.235
-0.26
-0.25
-0.25
-0.22
-0.2
-0.225
-0.24
-0.26
-0.25
-0.245
-0.235
-0.235
-0.225
-0.24
-0.26
-0.265
-0.24
-0.23
-0.24
-0.265
-0.29
-0.285
-0.27
-0.255
-0.25
-0.265
-0.3
-0.27
-0.255
-0.255
-0.26
-0.26
-0.25
-0.24
-0.225
-0.225
-0.225
-0.25
-0.28
-0.295
-0.285
-0.285
-0.245
-0.235
-0.215
-0.22
-0.235
-0.245
-0.235
-0.21
-0.21
-0.19
-0.185
-0.195
-0.195
-0.19
-0.185
-0.15
-0.155
-0.165
-0.17
