Lead II
-0.78
-0.785
-0.78
-0.78
-0.74
-0.76
-0.755
-0.765
-0.75
-0.735
-0.715
-0.695
-0.695
-0.7
-0.66
-0.62
-0.59
-0.565
-0.54
-0.52
-0.51
-0.475
-0.435
-0.425
-0.425
-0.44
-0.425
-0.4
-0.375
-0.38
-0.355
-0.345
-0.34
-0.295
-0.24
-0.24
-0.255
-0.255
-0.255
-0.235
-0.24
-0.265
-0.28
-0.3
-0.325
-0.32
-0.315
-0.315
-0.355
-0.395
-0.385
-0.39
-0.39
-0.4
-0.405
-0.42
-0.435
-0.435
-0.42
-0.43
-0.455
-0.46
-0.46
-0.44
-0.43
-0.44
-0.45
-0.445
-0.44
-0.445
-0.455
-0.455
-0.47
-0.495
-0.495
-0.48
-0.48
-0.49
-0.49
-0.505
-0.47
-0.465
-0.455
-0.45
-0.455
-0.45
-0.47
-0.435
-0.425
-0.43
-0.44
-0.43
-0.425
-0.415
-0.4
-0.39
-0.4
-0.4
-0.41
-0.395
-0.375
-0.39
-0.405
-0.415
-0.4
-0.395
-0.39
-0.4
-0.41
-0.43
-0.44
-0.41
-0.385
-0.395
-0.41
-0.435
-0.435
-0.395
-0.395
-0.415
-0.41
-0.43
-0.425
-0.415
-0.41
-0.435
-0.45
-0.475
-0.49
-0.485
-0.475
-0.48
-0.505
-0.505
-0.5
-0.485
-0.48
-0.49
-0.475
-0.475
-0.465
-0.46
-0.44
-0.46
-0.455
-0.465
-0.455
-0.425
-0.405
-0.405
-0.42
-0.46
-0.435
-0.39
-0.375
-0.39
-0.41
-0.39
-0.385
-0.375
-0.345
-0.345
-0.35
-0.37
-0.37
-0.36
-0.34
-0.35
-0.36
-0.375
-0.37
-0.375
-0.37
-0.34
-0.36
-0.375
-0.375
-0.35
-0.34
-0.36
-0.35
-0.305
-0.265
-0.225
-0.17
-0.125
-0.11
-0.17
-0.265
-0.38
-0.47
-0.515
-0.505
-0.415
-0.315
-0.23
-0.17
-0.08
0.03
0.12
0.185
0.235
0.235
0.15
0.085
-0.02
-0.13
-0.245
-0.32
-0.375
-0.415
-0.445
-0.46
-0.435
-0.43
-0.45
-0.485
-0.505
-0.505
-0.495
-0.5
-0.505
-0.51
-0.53
-0.535
-0.525
-0.5
-0.515
-0.54
-0.545
-0.545
-0.525
-0.525
-0.535
-0.53
-0.56
-0.555
-0.545
-0.505
-0.51
-0.545
-0.52
-0.52
-0.485
-0.48
-0.47
-0.465
-0.47
-0.455
-0.425
-0.4
-0.395
-0.4
-0.375
-0.355
-0.325
-0.325
-0.31
-0.3
-0.295
-0.295
-0.27
-0.23
-0.21
-0.21
-0.215
-0.175
-0.14
-0.105
-0.1
-0.085
-0.085
-0.065
-0.06
-0.025
0.005
-0.025
-0.045
-0.04
-0.04
-0.015
-0.03
-0.05
-0.06
-0.05
-0.075
-0.08
-0.1
-0.135
-0.155
-0.155
-0.135
-0.12
-0.12
-0.14
-0.165
-0.16
-0.135
-0.13
-0.145
-0.15
-0.145
-0.14
-0.165
-0.15
-0.13
-0.12
-0.135
-0.135
-0.115
-0.09
-0.09
-0.115
-0.11
-0.09
-0.07
-0.065
-0.065
-0.07
-0.08
-0.09
-0.09
-0.075
-0.075
-0.095
-0.09
-0.085
-0.07
-0.065
-0.085
-0.085
-0.09
-0.085
-0.07
-0.055
-0.035
0.02
0.075
0.13
0.19
0.22
0.23
0.18
0.13
0.005
-0.095
-0.145
-0.095
0.055
0.185
0.25
0.3
0.405
0.54
0.61
0.63
0.655
0.66
0.645
0.585
0.495
0.34
0.17
0.025
-0.09
-0.2
-0.255
-0.275
-0.275
-0.28
-0.285
-0.305
-0.315
-0.34
-0.33
-0.33
-0.325
-0.34
-0.38
-0.385
-0.38
-0.39
-0.36
-0.36
-0.37
-0.385
-0.385
-0.36
-0.345
-0.34
-0.355
-0.335
-0.335
-0.32
-0.31
-0.305
-0.285
-0.295
-0.3
-0.27
-0.25
-0.255
-0.27
-0.265
-0.245
-0.235
-0.2
-0.19
-0.18
-0.185
-0.17
-0.15
-0.1
-0.095
-0.095
-0.08
-0.045
-0.03
0.01
0.015
0.03
0.045
0.06
0.105
0.13
0.145
0.135
0.13
0.135
0.135
0.135
0.125
0.105
0.065
0.065
0.075
0.07
0.07
0.04
0.035
0.005
0.015
0.005
-0.005
-0.02
-0.05
-0.055
-0.045
-0.035
-0.06
-0.075
-0.095
-0.11
-0.115
-0.115
-0.135
-0.135
-0.135
-0.12
-0.1
-0.07
-0.07
-0.09
-0.095
-0.08
-0.05
-0.03
-0.055
-0.05
-0.035
-0.01
-0.01
-0.02
-0.025
-0.005
-0.01
-0.005
-0.005
0.02
0.035
0.02
-0.01
-0.005
0.02
0.04
0.035
0.005
0.0
0.01
0.035
0.045
0.025
0.025
0.01
0.01
0.0
0.025
0.03
0.03
0.01
0.01
0.025
0.04
0.035
0.025
0.005
0.025
0.03
0.035
0.0
-0.03
-0.03
-0.045
-0.045
-0.03
-0.015
-0.04
-0.055
-0.035
0.0
0.01
0.0
-0.005
-0.025
0.02
0.035
0.045
0.04
0.07
0.065
0.075
0.095
0.13
0.135
0.12
0.1
0.105
0.11
0.135
0.13
0.13
0.12
0.12
0.125
0.14
0.135
0.12
0.1
0.09
0.125
0.13
0.125
0.115
0.095
0.105
0.11
0.11
0.115
0.115
0.105
0.1
0.125
0.13
0.115
0.105
0.09
0.1
0.1
0.095
0.1
0.095
0.07
0.085
0.1
0.1
0.085
0.06
0.05
0.055
0.07
0.085
0.11
0.09
0.12
0.145
0.175
0.195
0.19
0.18
0.18
0.2
0.195
0.205
0.205
0.2
0.185
0.19
0.21
0.22
0.2
0.205
0.2
0.2
0.2
0.21
0.22
0.195
0.19
0.17
0.205
0.215
0.205
0.205
0.19
0.19
0.205
0.195
0.21
0.205
0.195
0.19
0.19
0.2
0.195
0.16
0.14
0.155
0.155
0.175
0.165
0.135
0.15
0.145
0.14
0.165
0.18
0.175
0.165
0.18
0.2
0.225
0.22
0.2
0.21
0.22
0.235
0.25
0.27
0.245
0.24
0.24
0.255
0.275
0.275
0.26
0.25
0.26
0.27
0.275
0.26
0.26
0.26
0.26
0.265
0.275
0.27
0.26
0.255
0.255
0.265
0.275
0.275
0.25
0.235
0.26
0.25
0.26
0.25
0.25
0.23
0.2
0.215
0.24
0.235
0.22
0.2
0.205
0.215
0.235
0.225
0.245
0.23
0.225
0.21
0.235
0.23
0.22
0.22
0.22
0.225
0.25
0.25
0.265
0.265
0.265
0.285
0.33
0.35
0.325
0.32
0.32
0.345
0.365
0.365
0.38
0.415
0.47
0.505
0.555
0.61
0.69
0.79
0.885
0.945
1.0
1.075
1.16
1.275
1.395
1.48
1.5
1.54
1.58
1.565
1.535
1.475
1.385
1.26
1.1
0.915
0.71
0.52
0.38
0.255
0.14
0.085
0.07
0.04
0.02
0.0
-0.03
-0.065
-0.08
-0.065
-0.075
-0.095
-0.11
-0.12
-0.105
-0.1
-0.08
-0.07
-0.065
-0.085
-0.08
-0.055
-0.035
-0.045
-0.055
-0.05
-0.03
-0.005
0.015
0.01
0.01
0.0
0.0
0.02
0.035
0.035
0.04
0.025
0.035
0.055
0.075
0.065
0.075
0.06
0.035
0.08
0.11
0.085
0.08
0.07
0.07
0.1
0.12
0.105
0.11
0.1
0.11
0.105
0.125
0.125
0.135
0.135
0.16
0.18
0.205
0.215
0.235
0.24
0.28
0.305
0.34
0.36
0.365
0.365
0.37
0.405
0.415
0.42
0.41
0.38
0.39
0.41
0.44
0.435
0.45
0.475
0.5
0.515
0.525
0.525
0.52
0.505
0.5
0.505
0.515
0.505
0.505
0.475
0.48
0.495
0.51
0.5
0.495
0.475
0.485
0.485
0.5
0.475
0.46
0.455
0.425
0.44
0.465
0.445
0.435
0.41
0.405
0.425
0.45
0.495
0.545
0.575
0.57
0.525
0.48
0.445
0.335
0.165
-0.065
-0.315
-0.57
-0.875
-1.185
-1.46
-1.69
-1.865
-1.96
-2.015
-2.065
-2.065
-2.09
-2.08
-2.08
-2.09
-2.09
-2.1
-2.06
-2.01
-1.95
-1.885
-1.775
-1.655
-1.49
-1.345
-1.21
-1.125
-1.015
-0.89
-0.725
-0.535
-0.3
-0.05
0.185
0.38
0.565
0.725
0.84
0.935
0.995
1.02
1.075
1.115
1.16
1.195
1.2
1.21
1.235
1.285
1.305
1.34
1.365
1.375
1.415
1.46
1.515
1.545
1.585
1.62
1.675
1.735
1.79
1.825
1.855
1.895
1.945
2.01
2.1
2.135
2.18
2.23
2.305
2.375
2.435
2.49
2.52
2.56
2.59
2.635
2.67
2.7
2.705
2.69
2.71
2.74
2.735
2.71
2.68
2.66
2.64
2.62
2.58
2.53
2.47
2.4
2.33
2.285
2.245
2.17
2.07
1.98
1.92
1.86
1.795
1.705
1.625
1.54
1.475
1.405
1.36
1.28
1.195
1.115
1.06
1.025
0.98
0.895
0.805
0.76
0.74
0.7
0.685
0.63
0.595
0.555
0.53
0.53
0.515
0.495
0.47
0.44
0.445
0.445
0.445
0.43
0.41
0.39
0.41
0.425
0.42
0.415
0.4
0.39
0.37
0.38
0.38
0.38
0.325
0.31
0.305
0.315
0.33
0.32
0.28
0.27
0.28
0.285
0.285
0.265
0.24
0.23
0.245
0.245
0.225
0.23
0.24
0.23
0.235
0.26
0.27
0.27
0.255
0.26
0.25
0.28
0.275
0.27
0.26
0.26
0.27
0.28
0.285
0.29
0.285
0.255
0.265
0.285
0.295
0.28
0.25
0.24
0.27
0.275
0.27
0.265
0.26
0.255
0.26
0.285
0.305
0.305
0.275
0.27
0.285
0.31
0.315
0.29
0.26
0.255
0.24
0.26
0.28
0.27
0.235
0.245
0.245
0.25
0.255
0.25
0.24
0.225
0.255
0.25
0.25
0.265
0.255
0.245
0.27
0.28
0.31
0.305
0.295
0.3
0.315
0.335
0.33
0.33
0.32
0.305
0.31
0.345
0.36
0.34
0.325
0.33
0.34
0.355
0.365
0.36
0.355
0.325
0.345
0.35
0.37
0.345
0.33
0.325
0.33
0.34
0.34
0.305
0.3
0.3
0.285
0.295
0.325
0.31
0.28
0.28
0.28
0.305
0.31
0.305
0.305
0.295
0.295
0.29
0.3
0.32
0.315
0.315
0.305
0.325
0.335
0.335
0.315
0.315
0.335
0.345
0.35
0.34
0.33
0.31
0.31
0.32
0.345
0.335
0.33
0.315
0.33
0.355
0.355
0.34
0.33
0.31
0.33
0.345
0.33
0.35
0.33
0.3
0.32
0.32
0.33
0.325
0.305
0.275
0.27
0.295
0.315
0.3
0.27
0.26
0.27
0.285
0.31
0.295
0.275
0.275
0.29
0.29
0.285
0.295
0.315
0.315
0.32
0.345
0.37
0.375
0.365
0.34
0.345
0.375
0.395
0.365
0.35
0.34
0.355
0.375
0.37
0.345
0.325
0.335
0.33
0.34
0.345
0.36
0.365
0.35
0.34
0.35
0.355
0.375
0.355
0.345
0.345
0.365
0.37
0.375
0.345
0.335
0.315
0.325
0.325
0.31
0.3
0.275
0.28
0.285
0.3
0.29
0.265
0.26
0.265
0.275
0.295
0.28
0.265
0.25
0.26
0.305
0.315
0.31
0.305
0.3
0.305
0.325
0.34
0.33
0.315
0.305
0.315
0.35
0.365
0.345
0.325
0.335
0.36
0.355
0.37
0.345
0.35
0.35
0.345
0.365
0.375
0.375
0.365
0.33
0.345
0.365
0.38
0.36
0.36
0.375
0.385
0.38
0.37
0.37
0.38
0.415
0.475
0.535
0.585
0.6
0.635
0.66
0.675
0.63
0.555
0.455
0.36
0.335
0.415
0.5
0.59
0.645
0.705
0.805
0.92
1.02
1.08
1.1
1.055
0.97
0.89
0.845
0.77
0.645
0.5
0.385
0.33
0.28
0.23
0.195
0.17
0.165
0.16
0.16
0.15
0.14
0.11
0.075
0.095
0.095
0.115
0.1
0.085
0.065
0.065
0.085
0.085
0.055
0.035
0.03
0.055
0.06
0.04
0.04
0.02
0.015
0.015
0.03
0.035
0.03
0.005
-0.01
0.0
0.02
0.035
0.025
0.005
-0.005
0.02
0.045
0.03
0.0
0.005
0.015
0.01
0.04
0.045
0.04
0.03
0.04
0.055
0.055
0.07
0.075
0.09
0.075
0.085
0.095
0.1
0.11
0.105
0.11
0.115
0.135
0.165
0.165
0.15
0.13
0.15
0.195
0.21
0.21
0.19
0.2
0.225
0.255
0.265
0.285
0.275
0.29
0.31
0.33
0.345
0.35
0.35
0.35
0.35
0.37
0.375
0.37
0.35
0.31
0.315
0.35
0.37
0.385
0.375
0.37
0.39
0.395
0.41
0.405
0.395
0.38
0.4
0.405
0.415
0.415
0.415
0.385
0.385
0.4
0.42
0.41
0.4
0.385
0.395
0.405
0.42
0.42
0.395
0.4
0.4
0.405
0.415
0.43
0.41
0.41
0.4
0.43
0.43
0.43
0.415
0.4
0.42
0.43
0.445
0.425
0.415
0.41
0.4
0.405
0.4
0.395
0.37
0.355
0.355
0.37
0.385
0.38
0.35
0.345
0.365
0.39
0.395
0.385
0.385
0.365
0.365
0.365
0.385
0.37
0.355
0.345
0.35
0.37
0.375
0.36
0.34
0.32
0.33
0.34
0.345
0.34
0.31
0.3
0.305
0.33
0.335
0.315
0.3
0.3
0.31
0.33
0.335
0.335
0.315
0.305
0.315
0.33
0.33
0.335
0.3
0.285
0.29
0.305
0.305
0.285
0.275
0.26
0.25
0.265
0.285
0.29
0.295
0.295
0.31
0.325
0.345
0.335
0.32
0.325
0.325
0.335
0.355
0.355
0.33
0.305
0.31
0.31
0.32
0.31
0.28
0.285
0.28
0.315
0.315
0.31
0.3
0.285
0.275
0.29
0.315
0.305
0.285
0.27
0.265
0.29
0.31
0.285
0.26
0.235
0.265
0.28
0.3
0.275
0.265
0.27
0.28
0.27
0.29
0.285
0.29
0.28
0.275
0.27
0.275
0.265
0.245
0.23
0.21
0.225
0.25
0.24
0.22
0.22
0.23
0.245
0.26
0.255
0.235
0.235
0.245
0.255
0.275
0.275
0.25
0.235
0.25
0.255
0.27
0.25
0.21
0.205
0.22
0.225
0.205
0.205
0.2
0.19
0.17
0.185
0.195
0.195
0.185
0.175
0.19
0.205
0.2
0.205
0.19
0.185
0.195
0.215
0.205
0.215
0.185
0.17
0.185
0.2
0.205
0.195
0.17
0.14
0.14
0.14
0.15
0.145
0.135
0.145
0.175
0.19
0.205
0.205
0.215
0.215
0.22
0.23
0.255
0.26
0.245
0.245
0.265
0.275
0.275
0.265
0.25
0.225
0.23
0.22
0.23
0.23
0.2
0.175
0.175
0.195
0.2
0.175
0.17
0.18
0.19
0.2
0.195
0.195
0.19
0.18
0.165
0.185
0.185
0.18
0.145
0.11
0.115
0.125
0.12
0.095
0.11
0.09
0.1
0.11
0.12
0.12
0.13
0.135
0.14
0.16
0.175
0.17
0.155
0.155
0.175
0.19
0.205
0.2
0.19
0.21
0.215
0.23
0.22
0.25
0.28
0.32
0.365
0.4
0.435
0.48
0.545
0.61
0.65
0.695
0.72
0.76
0.835
0.935
1.025
1.095
1.14
1.155
1.215
1.245
1.285
1.27
1.25
1.14
1.03
0.915
0.78
0.64
0.465
0.315
0.18
0.08
-0.01
-0.06
-0.08
-0.075
-0.095
-0.12
-0.125
-0.125
-0.135
-0.145
-0.17
-0.2
-0.205
-0.195
-0.18
-0.2
-0.215
-0.225
-0.21
-0.2
-0.185
-0.21
-0.225
-0.23
-0.215
-0.205
-0.195
-0.215
-0.215
-0.205
-0.2
-0.195
-0.185
-0.185
-0.195
-0.195
-0.2
-0.185
-0.185
-0.19
-0.205
-0.215
-0.205
-0.205
-0.195
-0.185
-0.21
-0.235
-0.21
-0.205
-0.2
-0.215
-0.225
-0.21
-0.19
-0.165
-0.155
-0.16
-0.15
-0.14
-0.14
-0.12
-0.11
-0.115
-0.125
-0.125
-0.125
-0.09
-0.07
-0.085
-0.09
-0.085
-0.055
-0.02
-0.005
0.005
0.0
0.02
0.04
0.075
0.085
0.1
0.1
0.1
0.11
0.12
0.14
0.155
0.12
0.12
0.125
0.135
0.145
0.14
0.13
0.14
0.13
0.145
0.14
0.125
0.105
0.06
0.05
0.045
0.045
0.02
-0.015
-0.03
-0.015
-0.01
0.0
-0.025
-0.035
-0.035
-0.02
-0.02
-0.025
-0.015
-0.02
-0.04
-0.035
-0.03
-0.015
-0.025
-0.05
-0.07
-0.035
-0.025
-0.015
-0.04
-0.055
-0.07
-0.07
-0.07
-0.06
-0.075
-0.11
-0.145
-0.15
-0.14
-0.13
-0.125
-0.1
-0.025
0.065
0.185
0.315
0.345
0.28
0.145
0.005
-0.045
-0.09
-0.115
-0.105
-0.12
-0.115
-0.21
-0.37
-0.56
-0.71
-0.795
-0.855
-0.945
-1.15
-1.415
-1.59
-1.625
-1.6
-1.585
-1.59
-1.57
-1.485
-1.38
-1.275
-1.165
-1.03
-0.885
-0.76
-0.615
-0.47
-0.335
-0.23
-0.145
-0.095
-0.07
-0.045
-0.02
-0.005
0.015
0.005
0.005
0.025
0.055
0.065
0.075
0.065
0.07
0.075
0.09
0.08
0.08
0.065
0.055
0.06
0.075
0.095
0.095
0.09
0.105
0.115
0.14
0.175
0.18
0.185
0.195
0.22
0.25
0.265
0.265
0.265
0.28
0.305
0.31
0.33
0.35
0.395
0.425
0.46
0.5
0.555
0.6
0.625
0.64
0.695
0.755
0.805
0.815
0.84
0.865
0.925
0.97
0.99
0.995
1.0
1.0
0.995
1.02
1.02
1.015
0.975
0.94
0.92
0.9
0.895
0.85
0.785
0.74
0.71
0.68
0.63
0.535
0.47
0.43
0.38
0.35
0.325
0.28
0.225
0.175
0.14
0.135
0.115
0.08
0.03
0.005
0.0
-0.015
-0.035
-0.05
-0.075
-0.1
-0.115
-0.095
-0.09
-0.11
-0.12
-0.13
-0.12
-0.1
-0.105
-0.13
-0.12
-0.125
-0.125
-0.13
-0.125
-0.11
-0.13
-0.155
-0.145
-0.14
-0.145
-0.16
-0.155
-0.165
-0.18
-0.17
-0.17
-0.19
-0.2
-0.215
-0.22
-0.21
-0.22
-0.24
-0.26
-0.275
-0.27
-0.275
-0.275
-0.285
-0.29
-0.3
-0.28
-0.265
-0.26
-0.275
-0.285
-0.275
-0.27
-0.27
-0.275
-0.27
-0.275
-0.285
-0.265
-0.245
-0.225
-0.22
-0.23
-0.23
-0.23
-0.22
-0.22
-0.23
-0.245
-0.26
-0.255
-0.245
-0.235
-0.255
-0.28
-0.26
-0.255
-0.235
-0.26
-0.24
-0.26
-0.26
-0.26
-0.255
-0.235
-0.245
-0.26
-0.275
-0.275
-0.275
-0.27
-0.29
-0.275
-0.29
-0.29
-0.3
-0.285
-0.295
-0.315
-0.295
-0.225
-0.14
-0.1
-0.085
-0.005
0.12
0.245
0.325
0.385
0.455
0.53
0.62
0.765
0.905
1.01
1.07
1.065
1.08
1.16
1.195
1.135
1.085
1.005
0.89
0.775
0.685
0.575
0.43
0.245
0.045
-0.11
-0.2
-0.29
-0.4
-0.455
-0.475
-0.475
-0.48
-0.475
-0.52
-0.55
-0.585
-0.595
-0.605
-0.64
-0.65
-0.67
-0.715
-0.71
-0.715
-0.71
-0.72
-0.745
-0.77
-0.77
-0.745
-0.725
-0.74
-0.745
-0.755
-0.735
-0.72
-0.7
-0.705
-0.695
-0.705
-0.695
-0.66
-0.64
-0.64
-0.645
-0.625
-0.61
-0.575
-0.57
-0.565
-0.565
-0.555
-0.57
-0.535
-0.535
-0.52
-0.525
-0.545
-0.515
-0.48
-0.465
-0.475
-0.48
-0.455
-0.44
-0.43
-0.41
-0.39
-0.39
-0.4
-0.375
-0.365
-0.34
-0.345
-0.375
-0.35
-0.325
-0.295
-0.315
-0.31
-0.315
-0.335
-0.325
-0.31
-0.295
-0.31
-0.33
-0.335
-0.345
-0.335
-0.33
-0.34
-0.355
-0.36
-0.355
-0.315
-0.32
-0.33
-0.335
-0.36
-0.355
-0.34
-0.335
-0.35
-0.335
-0.355
-0.375
-0.345
-0.35
-0.36
-0.375
-0.38
-0.37
-0.355
-0.365
-0.38
-0.395
-0.405
-0.4
-0.385
-0.385
-0.39
-0.425
-0.43
-0.415
-0.395
-0.395
-0.395
-0.395
-0.405
-0.395
-0.37
-0.365
-0.37
-0.395
-0.375
-0.37
-0.335
-0.34
-0.34
-0.35
-0.355
-0.355
-0.35
-0.34
-0.345
-0.37
-0.375
-0.37
-0.36
-0.355
-0.365
-0.385
-0.39
-0.375
-0.365
-0.385
-0.39
-0.4
-0.4
-0.385
-0.405
-0.395
-0.385
-0.41
-0.42
-0.435
-0.415
-0.41
-0.435
-0.445
-0.455
-0.45
-0.425
-0.42
-0.43
-0.445
-0.455
-0.435
-0.415
-0.4
-0.405
-0.415
-0.415
-0.385
-0.395
-0.37
-0.38
-0.38
-0.385
-0.39
-0.35
-0.335
-0.355
-0.38
-0.36
-0.3
-0.22
-0.16
-0.1
-0.06
0.0
0.125
0.245
0.335
0.39
0.43
0.47
0.525
0.605
0.7
0.78
0.815
0.825
0.855
0.93
0.955
0.91
0.84
0.73
0.595
0.475
0.335
0.185
0.01
-0.19
-0.33
-0.42
-0.485
-0.565
-0.58
-0.6
-0.605
-0.59
-0.605
-0.63
-0.64
-0.65
-0.645
-0.635
-0.63
-0.65
-0.66
-0.665
-0.665
-0.645
-0.65
-0.66
-0.67
-0.69
-0.675
-0.65
-0.645
-0.64
-0.665
-0.675
-0.65
-0.615
-0.63
-0.625
-0.625
-0.61
-0.585
-0.58
-0.565
-0.57
-0.59
-0.6
-0.58
-0.55
-0.545
-0.53
-0.525
-0.525
-0.505
-0.47
-0.455
-0.455
-0.465
-0.455
-0.41
-0.38
-0.37
-0.35
-0.365
-0.35
-0.345
-0.3
-0.27
-0.26
-0.285
-0.275
-0.235
-0.235
-0.24
-0.25
-0.26
-0.29
-0.285
-0.29
-0.305
-0.315
-0.35
-0.37
-0.355
-0.36
-0.38
-0.395
-0.405
-0.415
-0.42
-0.41
-0.405
-0.425
-0.46
-0.49
-0.48
-0.455
-0.44
-0.445
-0.425
-0.36
-0.295
-0.245
-0.215
-0.235
-0.3
-0.4
-0.525
-0.65
-0.755
-0.895
-1.09
-1.365
-1.665
-1.86
-2.02
-2.14
-2.225
-2.31
-2.35
-2.365
-2.34
-2.285
-2.24
-2.16
-2.035
-1.895
-1.78
-1.645
-1.515
-1.335
-1.165
-1.0
-0.85
-0.765
-0.735
-0.745
-0.71
-0.68
-0.63
-0.615
-0.61
-0.605
-0.555
-0.495
-0.455
-0.42
-0.385
-0.375
-0.355
-0.33
-0.325
-0.32
-0.305
-0.305
-0.275
-0.25
-0.225
-0.215
-0.23
-0.215
-0.18
-0.165
-0.15
-0.145
-0.135
-0.105
-0.07
-0.04
0.015
0.025
0.05
0.06
0.09
0.135
0.18
0.2
0.225
0.24
0.28
0.345
0.38
0.4
0.415
0.45
0.49
0.535
0.575
0.605
0.63
0.655
0.67
0.73
0.755
0.74
0.72
0.735
0.77
0.775
0.77
0.745
0.71
0.68
0.655
0.625
0.61
0.555
0.495
0.43
0.395
0.37
0.32
0.25
0.19
0.155
0.155
0.2
0.25
0.245
0.16
-0.005
-0.19
-0.4
-0.64
-0.895
-1.115
-1.33
-1.54
-1.815
-2.085
-2.285
-2.415
-2.455
-2.435
-2.41
-2.375
-2.36
-2.365
-2.305
-2.22
-2.115
-2.02
-1.94
-1.9
-1.81
-1.67
-1.465
-1.27
-1.12
-1.015
-0.87
-0.73
-0.625
-0.58
-0.555
-0.51
-0.43
-0.325
-0.24
-0.215
-0.19
-0.17
-0.14
-0.1
-0.07
-0.04
-0.035
0.0
0.01
0.045
0.12
0.165
0.195
0.22
0.245
0.295
0.33
0.365
0.395
0.43
0.46
0.52
0.57
0.625
0.665
0.69
0.74
0.785
0.855
0.905
0.965
1.0
1.015
1.07
1.11
1.165
1.185
1.185
1.21
1.23
1.235
1.205
1.17
1.13
1.095
1.065
1.03
0.96
0.895
0.805
0.76
0.705
0.64
0.59
0.53
0.48
0.425
0.38
0.33
0.305
0.255
0.19
0.125
0.085
0.07
0.055
0.005
-0.035
-0.07
-0.07
-0.08
-0.105
-0.14
-0.175
-0.175
-0.17
-0.185
-0.205
-0.225
-0.225
-0.255
-0.26
-0.265
-0.255
-0.27
-0.285
-0.305
-0.295
-0.305
-0.315
-0.345
-0.36
-0.36
-0.355
-0.355
-0.36
-0.37
-0.39
-0.4
-0.4
-0.375
-0.37
-0.375
-0.4
-0.39
-0.39
-0.4
-0.41
-0.42
-0.415
-0.42
-0.425
-0.415
-0.4
-0.405
-0.42
-0.415
-0.39
-0.385
-0.385
-0.395
-0.4
-0.39
-0.39
-0.38
-0.36
-0.37
-0.4
-0.395
-0.395
-0.38
-0.375
-0.37
-0.375
-0.375
-0.365
-0.36
-0.35
-0.35
-0.35
-0.32
-0.265
-0.205
-0.145
-0.07
-0.005
0.0
-0.005
-0.015
-0.03
-0.01
0.035
0.13
0.245
0.285
0.325
0.395
0.455
0.485
0.425
0.355
0.25
0.145
-0.015
-0.165
-0.325
-0.435
-0.5
-0.53
-0.54
-0.545
-0.565
-0.545
-0.555
-0.585
-0.605
-0.605
-0.61
-0.6
-0.62
-0.645
-0.66
-0.665
-0.675
-0.65
-0.655
-0.685
-0.69
-0.7
-0.7
-0.705
-0.695
-0.7
-0.72
-0.735
-0.715
-0.7
-0.705
-0.72
-0.73
-0.755
-0.765
-0.755
-0.75
-0.75
-0.775
-0.785
-0.76
-0.745
-0.745
-0.75
-0.745
-0.755
-0.745
-0.735
-0.725
-0.72
-0.74
-0.74
-0.72
-0.69
-0.675
-0.67
-0.665
-0.64
-0.61
-0.57
-0.55
-0.535
-0.525
-0.5
-0.465
-0.42
-0.405
-0.41
-0.405
-0.4
-0.375
-0.355
-0.345
-0.355
-0.34
-0.355
-0.355
-0.35
-0.345
-0.345
-0.36
-0.37
-0.36
-0.345
-0.36
-0.38
-0.4
-0.395
-0.39
-0.38
-0.38
-0.375
-0.365
-0.36
-0.35
-0.35
-0.34
-0.32
-0.33
-0.35
-0.315
-0.285
-0.285
-0.305
-0.325
-0.305
-0.29
-0.28
-0.27
-0.275
-0.275
-0.285
-0.27
-0.24
-0.24
-0.255
-0.27
-0.28
-0.255
-0.245
-0.24
-0.255
-0.28
-0.265
-0.255
-0.255
-0.245
-0.255
-0.285
-0.29
-0.29
-0.275
-0.265
-0.29
-0.315
-0.325
-0.315
-0.31
-0.325
-0.33
-0.345
-0.365
-0.37
-0.37
-0.35
-0.37
-0.395
-0.405
-0.395
-0.37
-0.385
-0.395
-0.39
-0.39
-0.385
-0.375
-0.37
-0.37
-0.39
-0.385
-0.37
-0.35
-0.36
-0.36
-0.37
-0.365
-0.35
-0.34
-0.345
-0.355
-0.365
-0.38
-0.38
-0.34
-0.345
-0.345
-0.36
-0.36
-0.345
-0.325
-0.34
-0.335
-0.35
-0.36
-0.37
-0.345
-0.33
-0.345
-0.365
-0.365
-0.355
-0.34
-0.355
-0.365
-0.39
-0.385
-0.38
-0.38
-0.37
-0.375
-0.385
-0.41
-0.385
-0.345
-0.345
-0.37
-0.375
-0.385
-0.375
-0.36
-0.38
-0.395
-0.425
-0.435
-0.395
-0.37
-0.36
-0.365
-0.38
-0.385
-0.36
-0.34
-0.32
-0.315
-0.325
-0.35
-0.32
-0.305
-0.27
-0.23
-0.18
-0.145
-0.095
-0.025
0.08
0.15
0.21
0.24
0.305
0.41
0.515
0.63
0.72
0.785
0.825
0.885
0.945
0.97
0.92
0.855
0.81
0.72
0.655
0.585
0.45
0.29
0.13
-0.025
-0.17
-0.305
-0.445
-0.505
-0.525
-0.495
-0.485
-0.505
-0.54
-0.56
-0.575
-0.605
-0.635
-0.67
-0.675
-0.685
-0.685
-0.675
-0.67
-0.67
-0.695
-0.71
-0.71
-0.695
-0.68
-0.7
-0.71
-0.705
-0.685
-0.675
-0.66
-0.66
-0.68
-0.69
-0.67
-0.65
-0.635
-0.655
-0.655
-0.655
-0.63
-0.625
-0.62
-0.62
-0.63
-0.645
-0.65
-0.63
-0.645
-0.63
-0.63
-0.645
-0.615
-0.575
-0.57
-0.575
-0.58
-0.56
-0.54
-0.52
-0.5
-0.49
-0.48
-0.47
-0.445
-0.41
-0.385
-0.39
-0.395
-0.42
-0.39
-0.37
-0.355
-0.355
-0.36
-0.345
-0.32
-0.3
-0.305
-0.3
-0.325
-0.32
-0.295
-0.285
-0.285
-0.31
-0.31
-0.315
-0.32
-0.32
-0.32
-0.32
-0.34
-0.35
-0.35
-0.33
-0.34
-0.35
-0.36
-0.355
-0.35
-0.355
-0.33
-0.34
-0.36
-0.365
-0.35
-0.345
-0.355
-0.36
-0.36
-0.365
-0.365
-0.34
-0.355
-0.375
-0.39
-0.385
-0.39
-0.39
-0.41
-0.405
-0.42
-0.425
-0.42
-0.405
-0.4
-0.4
-0.415
-0.42
-0.405
-0.395
-0.39
-0.4
-0.39
-0.405
-0.395
-0.375
-0.37
-0.385
-0.41
-0.395
-0.385
-0.365
-0.37
-0.385
-0.39
-0.39
-0.38
-0.375
-0.355
-0.36
-0.375
-0.375
-0.35
-0.34
-0.335
-0.35
-0.34
-0.355
-0.355
-0.345
-0.345
-0.365
-0.38
-0.38
-0.375
-0.38
-0.375
-0.385
-0.41
-0.425
-0.445
-0.455
-0.47
-0.495
-0.52
-0.51
-0.49
-0.475
-0.46
-0.475
-0.5
-0.475
-0.46
-0.455
-0.455
-0.465
-0.455
-0.455
-0.455
-0.44
-0.445
-0.445
-0.455
-0.46
-0.435
-0.41
-0.425
-0.435
-0.47
-0.45
-0.43
-0.425
-0.435
-0.415
-0.38
-0.31
-0.265
-0.23
-0.205
-0.12
-0.01
0.07
0.175
0.28
0.35
0.42
0.54
0.71
0.84
0.94
0.975
1.005
1.06
1.06
1.04
1.01
0.945
0.825
0.68
0.535
0.38
0.175
-0.04
-0.24
-0.39
-0.5
-0.545
-0.545
-0.55
-0.58
-0.625
-0.63
-0.645
-0.64
-0.66
-0.685
-0.69
-0.685
-0.68
-0.68
-0.69
-0.715
-0.735
-0.74
-0.735
-0.74
-0.715
-0.74
-0.76
-0.74
-0.745
-0.715
-0.725
-0.72
-0.72
-0.725
-0.73
-0.685
-0.695
-0.71
-0.715
-0.715
-0.69
-0.67
-0.665
-0.655
-0.635
-0.63
-0.63
-0.615
-0.605
-0.6
-0.615
-0.59
-0.56
-0.525
-0.515
-0.505
-0.495
-0.475
-0.455
-0.43
-0.415
-0.375
-0.345
-0.335
-0.31
-0.285
-0.245
-0.255
-0.255
-0.235
-0.215
-0.195
-0.195
-0.22
-0.23
-0.235
-0.25
-0.25
-0.265
-0.29
-0.345
-0.35
-0.345
-0.35
-0.34
-0.375
-0.415
-0.41
-0.395
-0.4
-0.415
-0.45
-0.445
-0.45
-0.445
-0.455
-0.465
-0.475
-0.495
-0.51
-0.515
-0.495
-0.51
-0.525
-0.54
-0.535
-0.51
-0.49
-0.485
-0.49
-0.475
-0.465
-0.475
-0.46
-0.44
-0.445
-0.45
-0.465
-0.45
-0.42
-0.41
-0.43
-0.46
-0.46
-0.42
-0.42
-0.42
-0.435
-0.445
-0.435
-0.435
-0.44
-0.435
-0.445
-0.46
-0.46
-0.46
-0.455
-0.47
-0.455
-0.48
-0.49
-0.485
-0.47
-0.46
-0.465
-0.5
-0.505
-0.48
-0.45
-0.46
-0.465
-0.47
-0.46
-0.435
-0.435
-0.445
-0.46
-0.47
-0.49
-0.5
-0.49
-0.49
-0.52
-0.525
-0.535
-0.535
-0.5
-0.49
-0.5
-0.525
-0.52
-0.51
-0.485
-0.505
-0.505
-0.5
-0.475
-0.485
-0.46
-0.455
-0.465
-0.47
-0.485
-0.47
-0.435
-0.43
-0.445
-0.465
-0.445
-0.43
-0.415
-0.435
-0.44
-0.46
-0.45
-0.435
-0.425
-0.445
-0.435
-0.435
-0.44
-0.425
-0.395
-0.32
-0.255
-0.235
-0.18
-0.1
0.015
0.125
0.22
0.3
0.38
0.455
0.525
0.64
0.745
0.845
0.92
0.95
0.995
1.03
1.01
0.94
0.83
0.695
0.535
0.385
0.23
0.035
-0.16
-0.325
-0.425
-0.53
-0.615
-0.655
-0.65
-0.645
-0.66
-0.695
-0.695
-0.72
-0.745
-0.75
-0.74
-0.74
-0.755
-0.79
-0.79
-0.795
-0.77
-0.765
-0.785
-0.805
-0.8
-0.78
-0.775
-0.79
-0.805
-0.795
-0.8
-0.775
-0.745
-0.715
-0.72
-0.725
-0.715
-0.705
-0.69
-0.675
-0.7
-0.705
-0.705
-0.685
-0.675
-0.655
-0.655
-0.66
-0.65
-0.625
-0.595
-0.57
-0.575
-0.565
-0.55
-0.515
-0.485
-0.49
-0.47
-0.455
-0.45
-0.42
-0.405
-0.37
-0.385
