Lead II
-2.375
-2.375
-2.385
-2.405
-2.41
-2.415
-2.43
-2.44
-2.44
-2.445
-2.415
-2.405
-2.385
-2.36
-2.33
-2.295
-2.255
-2.215
-2.16
-2.12
-2.075
-2.02
-1.94
-1.87
-1.795
-1.725
-1.675
-1.595
-1.55
-1.505
-1.475
-1.44
-1.39
-1.355
-1.325
-1.3
-1.275
-1.255
-1.225
-1.21
-1.21
-1.205
-1.21
-1.21
-1.215
-1.205
-1.185
-1.17
-1.165
-1.17
-1.155
-1.16
-1.16
-1.175
-1.18
-1.18
-1.19
-1.19
-1.18
-1.16
-1.165
-1.15
-1.13
-1.145
-1.135
-1.15
-1.155
-1.15
-1.15
-1.15
-1.16
-1.175
-1.15
-1.15
-1.15
-1.135
-1.135
-1.14
-1.135
-1.145
-1.145
-1.14
-1.125
-1.13
-1.11
-1.115
-1.095
-1.09
-1.105
-1.11
-1.1
-1.11
-1.12
-1.125
-1.13
-1.125
-1.105
-1.1
-1.095
-1.105
-1.1
-1.125
-1.135
-1.11
-1.105
-1.085
-1.095
-1.09
-1.09
-1.085
-1.07
-1.065
-1.085
-1.08
-1.1
-1.11
-1.095
-1.1
-1.09
-1.075
-1.075
-1.07
-1.06
-1.06
-1.06
-1.08
-1.075
-1.1
-1.095
-1.095
-1.085
-1.07
-1.075
-1.06
-1.045
-1.03
-1.055
-1.05
-1.055
-1.05
-1.075
-1.055
-1.05
-1.05
-1.055
-1.045
-1.03
-1.04
-1.03
-1.045
-1.045
-1.055
-1.045
-1.045
-1.045
-1.025
-1.045
-1.025
-1.01
-1.035
-1.035
-1.035
-1.045
-1.05
-1.055
-1.055
-1.04
-1.025
-1.02
-1.015
-1.015
-1.015
-1.015
-1.025
-1.03
-1.04
-1.065
-1.06
-1.045
-1.05
-1.03
-1.02
-0.995
-1.005
-1.015
-1.02
-1.025
-1.04
-1.04
-1.045
-1.045
-1.03
-1.04
-1.035
-1.015
-1.015
-1.02
-1.03
-1.05
-1.05
-1.05
-1.045
-1.025
-1.03
-1.02
-1.02
-1.015
-1.02
-1.03
-1.05
-1.05
-1.06
-1.035
-1.05
-1.035
-1.02
-1.03
-1.025
-1.005
-1.005
-1.015
-1.015
-1.04
-1.05
-1.055
-1.08
-1.04
-1.02
-1.005
-0.995
-0.99
-1.02
-1.03
-1.01
-1.015
-1.015
-1.025
-1.035
-1.035
-1.035
-1.015
-1.0
-0.99
-1.0
-1.015
-1.005
-1.005
-1.015
-1.02
-1.04
-1.03
-1.015
-0.995
-1.0
-0.98
-0.995
-0.995
-0.995
-1.005
-1.01
-1.01
-1.04
-1.02
-1.005
-1.015
-1.005
-0.985
-0.99
-0.99
-1.0
-1.0
-1.015
-1.02
-1.025
-1.025
-1.03
-0.995
-0.975
-0.98
-0.98
-0.985
-0.995
-0.995
-1.005
-1.005
-1.02
-1.01
-1.015
-1.005
-0.99
-0.99
-0.98
-0.975
-0.975
-1.0
-0.995
-1.0
-1.015
-1.005
-1.02
-1.0
-0.995
-0.995
-0.97
-0.995
-1.0
-1.0
-1.005
-1.0
-1.015
-1.015
-1.015
-0.985
-0.98
-0.995
-0.99
-0.975
-0.96
-0.96
-0.94
-0.935
-0.915
-0.9
-0.895
-0.86
-0.855
-0.815
-0.795
-0.79
-0.745
-0.705
-0.665
-0.64
-0.64
-0.655
-0.65
-0.67
-0.64
-0.63
-0.655
-0.64
-0.665
-0.725
-0.775
-0.815
-0.89
-0.945
-0.995
-1.0
-1.0
-1.0
-1.005
-1.005
-1.015
-1.025
-1.01
-1.01
-1.025
-1.025
-1.02
-1.005
-1.0
-0.985
-0.995
-1.005
-1.02
-1.025
-1.02
-1.04
-1.06
-1.095
-1.11
-1.09
-1.03
-0.915
-0.755
-0.51
-0.215
0.155
0.55
0.895
1.135
1.26
1.29
1.18
0.98
0.62
0.125
-0.41
-0.86
-1.095
-1.13
-1.03
-0.905
-0.79
-0.74
-0.755
-0.82
-0.885
-0.945
-0.985
-1.01
-1.02
-1.035
-1.03
-1.035
-1.03
-1.02
-1.02
-1.02
-1.04
-1.035
-1.045
-1.05
-1.05
-1.075
-1.07
-1.08
-1.085
-1.075
-1.085
-1.075
-1.05
-1.055
-1.04
-1.06
-1.075
-1.1
-1.095
-1.12
-1.11
-1.1
-1.095
-1.065
-1.065
-1.07
-1.065
-1.075
-1.095
-1.075
-1.075
-1.09
-1.09
-1.09
-1.065
-1.055
-1.05
-1.05
-1.04
-1.055
-1.07
-1.045
-1.045
-1.045
-1.035
-1.025
-1.015
-0.985
-0.98
-0.965
-0.96
-0.96
-0.96
-0.965
-0.96
-0.945
-0.94
-0.92
-0.9
-0.91
-0.865
-0.845
-0.84
-0.825
-0.81
-0.81
-0.795
-0.795
-0.77
-0.755
-0.735
-0.72
-0.7
-0.68
-0.675
-0.66
-0.655
-0.655
-0.645
-0.63
-0.615
-0.605
-0.595
-0.575
-0.565
-0.555
-0.55
-0.54
-0.545
-0.545
-0.565
-0.575
-0.59
-0.6
-0.605
-0.62
-0.635
-0.665
-0.68
-0.705
-0.735
-0.76
-0.785
-0.81
-0.825
-0.84
-0.825
-0.84
-0.84
-0.855
-0.86
-0.885
-0.885
-0.895
-0.895
-0.905
-0.91
-0.895
-0.895
-0.895
-0.88
-0.89
-0.9
-0.905
-0.915
-0.93
-0.915
-0.905
-0.905
-0.895
-0.895
-0.895
-0.875
-0.87
-0.88
-0.89
-0.89
-0.895
-0.905
-0.9
-0.895
-0.88
-0.88
-0.875
-0.86
-0.85
-0.86
-0.865
-0.885
-0.885
-0.895
-0.905
-0.9
-0.905
-0.88
-0.875
-0.865
-0.865
-0.88
-0.885
-0.895
-0.895
-0.9
-0.91
-0.91
-0.91
-0.9
-0.91
-0.905
-0.905
-0.915
-0.93
-0.93
-0.95
-0.945
-0.95
-0.945
-0.935
-0.94
-0.93
-0.92
-0.925
-0.93
-0.955
-0.96
-0.955
-0.98
-0.985
-0.975
-0.98
-0.965
-0.95
-0.94
-0.935
-0.94
-0.95
-0.975
-0.975
-0.97
-0.975
-0.975
-0.96
-0.955
-0.95
-0.94
-0.945
-0.955
-0.96
-0.97
-0.965
-0.985
-0.985
-0.97
-0.965
-0.965
-0.97
-0.95
-0.935
-0.94
-0.965
-0.95
-0.945
-0.95
-0.965
-0.95
-0.95
-0.94
-0.945
-0.94
-0.935
-0.93
-0.93
-0.935
-0.93
-0.925
-0.92
-0.9
-0.875
-0.84
-0.81
-0.795
-0.775
-0.78
-0.76
-0.745
-0.735
-0.71
-0.68
-0.635
-0.595
-0.56
-0.55
-0.53
-0.555
-0.57
-0.595
-0.58
-0.605
-0.6
-0.635
-0.66
-0.685
-0.735
-0.78
-0.81
-0.86
-0.895
-0.92
-0.955
-0.955
-0.965
-0.965
-0.98
-0.955
-0.95
-0.935
-0.935
-0.945
-0.96
-0.96
-0.97
-0.975
-0.97
-0.97
-0.975
-0.975
-0.97
-0.96
-0.945
-0.945
-0.95
-0.975
-0.985
-0.995
-1.025
-1.055
-1.035
-0.975
-0.86
-0.685
-0.42
-0.105
0.27
0.65
0.96
1.17
1.28
1.28
1.185
1.0
0.655
0.22
-0.285
-0.72
-0.99
-1.075
-1.0
-0.875
-0.76
-0.715
-0.715
-0.755
-0.82
-0.86
-0.89
-0.91
-0.93
-0.94
-0.955
-0.955
-0.975
-0.99
-0.975
-0.98
-0.96
-0.955
-0.95
-0.945
-0.945
-0.95
-0.975
-0.97
-0.985
-0.995
-0.99
-0.985
-0.98
-0.975
-0.97
-0.965
-0.975
-0.955
-0.97
-0.985
-0.975
-1.0
-1.005
-0.995
-0.98
-0.965
-0.98
-0.955
-0.96
-0.96
-0.96
-0.955
-0.965
-0.995
-0.975
-0.965
-0.95
-0.915
-0.905
-0.9
-0.905
-0.895
-0.91
-0.925
-0.91
-0.9
-0.895
-0.88
-0.875
-0.855
-0.84
-0.82
-0.805
-0.795
-0.8
-0.79
-0.77
-0.775
-0.76
-0.75
-0.72
-0.695
-0.655
-0.645
-0.625
-0.625
-0.61
-0.595
-0.6
-0.575
-0.57
-0.55
-0.54
-0.5
-0.48
-0.475
-0.47
-0.45
-0.46
-0.445
-0.45
-0.455
-0.445
-0.43
-0.435
-0.445
-0.46
-0.49
-0.52
-0.555
-0.575
-0.6
-0.63
-0.665
-0.685
-0.69
-0.73
-0.745
-0.75
-0.78
-0.8
-0.84
-0.855
-0.865
-0.9
-0.895
-0.895
-0.915
-0.915
-0.9
-0.9
-0.91
-0.91
-0.905
-0.93
-0.94
-0.96
-0.95
-0.925
-0.935
-0.92
-0.915
-0.895
-0.915
-0.905
-0.905
-0.915
-0.915
-0.925
-0.91
-0.92
-0.915
-0.9
-0.915
-0.895
-0.895
-0.885
-0.895
-0.895
-0.9
-0.905
-0.91
-0.905
-0.9
-0.89
-0.89
-0.89
-0.885
-0.885
-0.89
-0.9
-0.91
-0.92
-0.935
-0.93
-0.925
-0.935
-0.915
-0.9
-0.89
-0.905
-0.92
-0.925
-0.94
-0.96
-0.945
-0.935
-0.94
-0.925
-0.93
-0.94
-0.94
-0.94
-0.935
-0.945
-0.94
-0.95
-0.965
-0.975
-0.96
-0.955
-0.955
-0.935
-0.96
-0.965
-0.965
-0.97
-0.975
-0.97
-0.97
-0.985
-0.96
-0.95
-0.945
-0.935
-0.965
-0.98
-0.99
-0.975
-0.995
-1.0
-0.995
-0.985
-0.975
-0.96
-0.95
-0.925
-0.94
-0.905
-0.88
-0.895
-0.87
-0.86
-0.85
-0.845
-0.83
-0.795
-0.79
-0.75
-0.69
-0.655
-0.64
-0.63
-0.64
-0.655
-0.675
-0.66
-0.685
-0.66
-0.65
-0.65
-0.68
-0.725
-0.8
-0.865
-0.935
-0.975
-0.995
-1.015
-1.015
-1.0
-1.015
-1.02
-1.01
-1.02
-1.02
-1.025
-1.03
-1.03
-1.055
-1.055
-1.04
-1.04
-1.02
-1.025
-1.015
-1.03
-1.025
-1.03
-1.025
-1.035
-1.035
-1.045
-1.05
-1.055
-1.08
-1.11
-1.11
-1.065
-0.99
-0.845
-0.63
-0.38
-0.035
0.36
0.71
0.985
1.135
1.21
1.18
1.035
0.765
0.345
-0.165
-0.675
-1.04
-1.195
-1.18
-1.045
-0.875
-0.76
-0.735
-0.77
-0.835
-0.915
-0.975
-1.02
-1.055
-1.045
-1.05
-1.04
-1.01
-1.04
-1.02
-1.035
-1.055
-1.06
-1.065
-1.08
-1.065
-1.06
-1.06
-1.045
-1.06
-1.05
-1.035
-1.035
-1.05
-1.05
-1.06
-1.07
-1.07
-1.075
-1.055
-1.04
-1.05
-1.055
-1.045
-1.05
-1.05
-1.09
-1.065
-1.05
-1.05
-1.06
-1.055
-1.055
-1.03
-1.03
-1.02
-1.02
-1.03
-1.025
-1.03
-1.01
-1.02
-1.01
-0.995
-0.975
-0.96
-0.955
-0.935
-0.93
-0.935
-0.935
-0.945
-0.94
-0.94
-0.93
-0.905
-0.89
-0.875
-0.835
-0.825
-0.815
-0.805
-0.82
-0.835
-0.805
-0.785
-0.775
-0.775
-0.755
-0.715
-0.695
-0.68
-0.67
-0.655
-0.665
-0.645
-0.625
-0.63
-0.61
-0.595
-0.565
-0.575
-0.56
-0.515
-0.525
-0.51
-0.51
-0.515
-0.51
-0.525
-0.52
-0.525
-0.52
-0.525
-0.525
-0.535
-0.555
-0.59
-0.615
-0.66
-0.7
-0.735
-0.745
-0.78
-0.78
-0.79
-0.815
-0.815
-0.855
-0.885
-0.915
-0.925
-0.935
-0.955
-0.96
-0.965
-0.97
-0.96
-0.975
-0.97
-0.97
-0.985
-0.995
-1.005
-1.02
-1.02
-1.02
-1.01
-1.01
-0.99
-0.98
-0.98
-0.98
-0.975
-0.97
-1.0
-0.985
-1.0
-0.995
-0.99
-0.975
-0.975
-0.96
-0.945
-0.96
-0.97
-0.975
-0.98
-0.985
-0.965
-0.975
-0.965
-0.955
-0.95
-0.93
-0.93
-0.94
-0.94
-0.96
-0.97
-0.975
-0.98
-0.98
-0.965
-0.95
-0.945
-0.93
-0.945
-0.94
-0.95
-0.96
-0.97
-0.98
-0.995
-1.0
-0.995
-0.98
-0.975
-0.96
-0.98
-0.985
-0.99
-0.985
-1.005
-1.02
-1.025
-1.03
-1.01
-1.025
-1.01
-1.005
-1.005
-1.015
-1.025
-1.02
-1.01
-1.025
-1.025
-1.025
-1.015
-1.01
-1.01
-1.005
-1.0
-1.01
-1.01
-1.025
-1.04
-1.065
-1.055
-1.065
-1.05
-1.035
-1.035
-1.015
-1.005
-1.025
-1.03
-1.045
-1.055
-1.045
-1.035
-1.01
-1.02
-0.985
-0.965
-0.935
-0.915
-0.915
-0.9
-0.89
-0.885
-0.855
-0.845
-0.785
-0.755
-0.715
-0.705
-0.72
-0.72
-0.715
-0.73
-0.755
-0.76
-0.795
-0.83
-0.88
-0.91
-0.965
-1.02
-1.05
-1.06
-1.1
-1.09
-1.095
-1.09
-1.11
-1.095
-1.1
-1.09
-1.09
-1.085
-1.08
-1.085
-1.1
-1.105
-1.12
-1.115
-1.115
-1.125
-1.125
-1.12
-1.105
-1.095
-1.09
-1.08
-1.08
-1.095
-1.12
-1.17
-1.195
-1.195
-1.145
-1.02
-0.83
-0.58
-0.27
0.11
0.505
0.865
1.08
1.175
1.15
0.98
0.665
0.18
-0.38
-0.86
-1.185
-1.26
-1.19
-1.055
-0.93
-0.895
-0.9
-0.935
-1.0
-1.065
-1.095
-1.115
-1.11
-1.09
-1.08
-1.095
-1.1
-1.115
-1.125
-1.145
-1.135
-1.145
-1.135
-1.145
-1.135
-1.1
-1.11
-1.125
-1.14
-1.145
-1.14
-1.145
-1.16
-1.155
-1.14
-1.145
-1.13
-1.13
-1.12
-1.125
-1.14
-1.145
-1.14
-1.15
-1.14
-1.135
-1.12
-1.125
-1.105
-1.1
-1.1
-1.115
-1.135
-1.125
-1.14
-1.125
-1.12
-1.105
-1.08
-1.075
-1.06
-1.05
-1.06
-1.035
-1.06
-1.06
-1.05
-1.03
-1.035
-1.005
-1.0
-0.98
-0.965
-0.94
-0.945
-0.93
-0.925
-0.93
-0.91
-0.89
-0.89
-0.88
-0.835
-0.805
-0.78
-0.77
-0.77
-0.75
-0.74
-0.715
-0.7
-0.695
-0.69
-0.66
-0.65
-0.625
-0.6
-0.605
-0.58
-0.575
-0.565
-0.565
-0.575
-0.58
-0.585
-0.595
-0.595
-0.605
-0.61
-0.665
-0.68
-0.7
-0.74
-0.77
-0.805
-0.835
-0.855
-0.875
-0.885
-0.905
-0.92
-0.93
-0.955
-0.98
-0.995
-1.005
-1.035
-1.04
-1.05
-1.05
-1.045
-1.05
-1.04
-1.08
-1.065
-1.075
-1.07
-1.08
-1.085
-1.1
-1.09
-1.08
-1.09
-1.085
-1.08
-1.075
-1.07
-1.07
-1.075
-1.08
-1.085
-1.075
-1.075
-1.075
-1.07
-1.05
-1.05
-1.04
-1.04
-1.045
-1.075
-1.06
-1.07
-1.07
-1.06
-1.05
-1.055
-1.03
-1.035
-1.04
-1.025
-1.03
-1.025
-1.04
-1.05
-1.045
-1.06
-1.05
-1.045
-1.045
-1.035
-1.015
-1.025
-1.045
-1.06
-1.045
-1.055
-1.05
-1.07
-1.055
-1.065
-1.05
-1.045
-1.04
-1.045
-1.05
-1.07
-1.06
-1.085
-1.08
-1.09
-1.085
-1.07
-1.06
-1.065
-1.05
-1.06
-1.065
-1.08
-1.09
-1.085
-1.085
-1.085
-1.075
-1.085
-1.07
-1.07
-1.075
-1.065
-1.07
-1.085
-1.085
-1.095
-1.11
-1.105
-1.1
-1.09
-1.105
-1.085
-1.065
-1.07
-1.085
-1.075
-1.09
-1.09
-1.095
-1.095
-1.1
-1.095
-1.07
-1.07
-1.045
-1.035
-1.03
-1.025
-1.005
-0.98
-0.96
-0.955
-0.94
-0.905
-0.875
-0.85
-0.825
-0.785
-0.75
-0.735
-0.72
-0.7
-0.71
-0.745
-0.755
-0.745
-0.72
-0.715
-0.715
-0.755
-0.76
-0.84
-0.895
-0.95
-1.01
-1.05
-1.08
-1.08
-1.085
-1.07
-1.07
-1.075
-1.09
-1.1
-1.09
-1.11
-1.115
-1.12
-1.13
-1.115
-1.095
-1.09
-1.08
-1.09
-1.09
-1.095
-1.1
-1.115
-1.1
-1.12
-1.1
-1.085
-1.085
-1.08
-1.08
-1.09
-1.12
-1.15
-1.16
-1.135
-1.055
-0.91
-0.67
-0.36
0.025
0.445
0.795
1.035
1.175
1.17
1.055
0.785
0.385
-0.11
-0.61
-0.995
-1.18
-1.175
-1.06
-0.925
-0.85
-0.825
-0.85
-0.905
-0.985
-1.03
-1.06
-1.08
-1.055
-1.055
-1.035
-1.04
-1.045
-1.07
-1.08
-1.105
-1.11
-1.12
-1.105
-1.095
-1.065
-1.075
-1.065
-1.085
-1.085
-1.09
-1.1
-1.115
-1.095
-1.11
-1.09
-1.08
-1.065
-1.065
-1.04
-1.055
-1.06
-1.07
-1.085
-1.085
-1.075
-1.09
-1.07
-1.075
-1.055
-1.035
-1.03
-1.035
-1.05
-1.06
-1.075
-1.055
-1.055
-1.065
-1.05
-1.02
-1.0
-1.0
-0.98
-0.98
-0.97
-0.975
-0.97
-0.965
-0.965
-0.955
-0.945
-0.915
-0.9
-0.88
-0.86
-0.85
-0.845
-0.835
-0.82
-0.82
-0.8
-0.785
-0.785
-0.75
-0.715
-0.695
-0.67
-0.66
-0.665
-0.65
-0.64
-0.625
-0.61
-0.595
-0.61
-0.58
-0.555
-0.53
-0.515
-0.52
-0.515
-0.51
-0.525
-0.5
-0.53
-0.54
-0.535
-0.545
-0.55
-0.56
-0.57
-0.61
-0.63
-0.66
-0.7
-0.73
-0.765
-0.79
-0.8
-0.825
-0.835
-0.86
-0.86
-0.875
-0.905
-0.915
-0.945
-0.955
-0.945
-0.97
-0.98
-0.98
-0.995
-0.98
-0.97
-0.97
-0.98
-0.99
-1.0
-1.02
-1.02
-1.02
-1.01
-1.005
-1.0
-0.98
-0.98
-0.985
-0.98
-0.99
-0.975
-0.975
-0.965
-0.98
-0.95
-0.945
-0.945
-0.94
-0.93
-0.94
-0.96
-0.98
-0.99
-0.96
-0.94
-0.885
-0.78
-0.665
-0.52
-0.36
-0.215
-0.065
0.105
0.29
0.485
0.7
0.915
1.14
1.345
1.52
1.7
1.82
1.905
1.96
1.985
1.97
1.945
1.915
1.85
1.775
1.685
1.64
1.61
1.62
1.645
1.62
1.595
1.505
1.385
1.21
1.035
0.83
0.585
0.295
-0.07
-0.455
-0.795
-1.025
-1.15
-1.18
-1.18
-1.185
-1.18
-1.2
-1.245
-1.285
-1.32
-1.375
-1.385
-1.395
-1.41
-1.425
-1.45
-1.48
-1.49
-1.505
-1.5
-1.505
-1.515
-1.52
-1.535
-1.55
-1.56
-1.57
-1.59
-1.62
-1.63
-1.665
-1.66
-1.66
-1.66
-1.675
-1.67
-1.675
-1.68
-1.68
-1.695
-1.705
-1.705
-1.72
-1.725
-1.73
-1.735
-1.725
-1.725
-1.71
-1.695
-1.7
-1.72
-1.735
-1.765
-1.815
-1.85
-1.875
-1.885
-1.895
-1.925
-1.97
-2.015
-2.08
-2.17
-2.24
-2.3
-2.36
-2.41
-2.43
-2.465
-2.455
-2.47
-2.48
-2.485
-2.505
-2.51
-2.525
-2.535
-2.505
-2.49
-2.47
-2.445
-2.41
-2.38
-2.34
-2.325
-2.28
-2.24
-2.205
-2.18
-2.12
-2.07
-2.02
-1.95
-1.9
-1.84
-1.78
-1.735
-1.68
-1.64
-1.62
-1.575
-1.565
-1.515
-1.465
-1.445
-1.415
-1.4
-1.39
-1.355
-1.35
-1.35
-1.35
-1.35
-1.345
-1.325
-1.31
-1.3
-1.3
-1.3
-1.305
-1.305
-1.3
-1.305
-1.3
-1.29
-1.305
-1.32
-1.305
-1.29
-1.27
-1.26
-1.265
-1.26
-1.265
-1.27
-1.27
-1.27
-1.28
-1.275
-1.25
-1.25
-1.245
-1.25
-1.23
-1.235
-1.235
-1.225
-1.24
-1.25
-1.235
-1.235
-1.21
-1.215
-1.2
-1.21
-1.21
-1.205
-1.205
-1.205
-1.22
-1.215
-1.215
-1.215
-1.21
-1.185
-1.185
-1.18
-1.18
-1.19
-1.19
-1.215
-1.225
-1.225
-1.225
-1.21
-1.205
-1.195
-1.19
-1.18
-1.185
-1.185
-1.18
-1.195
-1.2
-1.215
-1.225
-1.215
-1.21
-1.195
-1.175
-1.175
-1.175
-1.18
-1.19
-1.2
-1.175
-1.18
-1.18
-1.185
-1.165
-1.16
-1.155
-1.145
-1.16
-1.155
-1.155
-1.155
-1.165
-1.17
-1.175
-1.175
-1.175
-1.16
-1.145
-1.135
-1.135
-1.14
-1.145
-1.155
-1.165
-1.175
-1.155
-1.145
-1.15
-1.125
-1.125
-1.125
-1.12
-1.13
-1.125
-1.135
-1.145
-1.14
-1.15
-1.145
-1.145
-1.13
-1.12
-1.115
-1.13
-1.135
-1.13
-1.14
-1.145
-1.15
-1.165
-1.16
-1.135
-1.125
-1.125
-1.11
-1.11
-1.12
-1.12
-1.135
-1.145
-1.135
-1.145
-1.14
-1.13
-1.125
-1.105
-1.105
-1.115
-1.11
-1.135
-1.145
-1.145
-1.15
-1.15
-1.145
-1.145
-1.14
-1.105
-1.09
-1.1
-1.115
-1.11
-1.12
-1.14
-1.135
-1.145
-1.145
-1.145
-1.13
-1.115
-1.095
-1.095
-1.1
-1.105
-1.12
-1.125
-1.14
-1.14
-1.14
-1.125
-1.115
-1.105
-1.095
-1.085
-1.1
-1.09
-1.085
-1.105
-1.105
-1.115
-1.125
-1.12
-1.09
-1.07
-1.075
-1.075
-1.065
-1.065
-1.09
-1.095
-1.1
-1.1
-1.1
-1.095
-1.095
-1.085
-1.075
-1.075
-1.1
-1.11
-1.1
-1.105
-1.115
-1.105
-1.115
-1.095
-1.085
-1.075
-1.07
-1.065
-1.07
-1.075
-1.105
-1.095
-1.095
-1.1
-1.11
-1.1
-1.075
-1.075
-1.065
-1.05
-1.065
-1.065
-1.09
-1.08
-1.085
-1.1
-1.075
-1.07
-1.055
-1.04
-1.045
-1.045
-1.055
-1.07
-1.07
-1.09
-1.095
-1.095
-1.085
-1.09
-1.07
-1.065
-1.06
-1.06
-1.065
-1.06
-1.075
-1.07
-1.085
-1.07
-1.08
-1.085
-1.065
-1.05
-1.035
-1.02
-1.02
-1.015
-1.01
-1.005
-0.99
-0.97
-0.95
-0.93
-0.91
-0.895
-0.865
-0.855
-0.81
-0.78
-0.755
-0.73
-0.725
-0.725
-0.725
-0.715
-0.74
-0.73
-0.715
-0.715
-0.72
-0.75
-0.775
-0.835
-0.885
-0.95
-0.99
-1.03
-1.045
-1.07
-1.06
-1.055
-1.05
-1.045
-1.065
-1.055
-1.07
-1.075
-1.08
-1.085
-1.065
-1.06
-1.06
-1.055
-1.055
-1.055
-1.065
-1.075
-1.09
-1.11
-1.145
-1.14
-1.105
-1.02
-0.875
-0.625
-0.335
0.025
0.41
0.765
1.01
1.16
1.18
1.11
0.93
0.6
0.16
-0.345
-0.82
-1.095
-1.21
-1.135
-1.02
-0.89
-0.815
-0.82
-0.87
-0.905
-0.98
-1.045
-1.055
-1.07
-1.065
-1.07
-1.07
-1.095
-1.085
-1.09
-1.085
-1.085
-1.075
-1.085
-1.095
-1.105
-1.115
-1.125
-1.155
-1.145
-1.13
-1.135
-1.12
-1.12
-1.1
-1.09
-1.095
-1.095
-1.13
-1.125
-1.135
-1.135
-1.13
-1.13
-1.11
-1.11
-1.11
-1.105
-1.125
-1.115
-1.125
-1.135
-1.14
-1.135
-1.125
-1.125
-1.11
-1.1
-1.09
-1.1
-1.085
-1.08
-1.09
-1.1
-1.085
-1.09
-1.07
-1.065
-1.06
-1.05
-1.03
-1.025
-1.02
-1.015
-1.02
-1.035
-1.03
-1.01
-0.995
-0.985
-0.96
-0.95
-0.925
-0.915
-0.89
-0.895
-0.88
-0.88
-0.875
-0.855
-0.835
-0.82
-0.8
-0.775
-0.765
-0.75
-0.76
-0.735
-0.73
-0.735
-0.725
-0.72
-0.695
-0.675
-0.65
-0.64
-0.635
-0.62
-0.61
-0.61
-0.62
-0.61
-0.62
-0.63
-0.635
-0.64
-0.65
-0.66
-0.66
-0.675
-0.71
-0.74
-0.76
-0.795
-0.825
-0.845
-0.86
-0.865
-0.875
-0.885
-0.89
-0.9
-0.915
-0.915
-0.935
-0.96
-0.98
-0.98
-0.975
-0.96
-0.97
-0.955
-0.955
-0.96
-0.965
-0.965
-0.975
-0.975
-0.99
-0.995
-0.99
-0.975
-0.97
-0.955
-0.96
-0.96
-0.94
-0.94
-0.96
-0.965
-0.965
-0.975
-0.98
-0.955
-0.945
-0.93
-0.935
-0.925
-0.93
-0.92
-0.945
-0.96
-0.975
-0.96
-0.955
-0.96
-0.95
-0.94
-0.94
-0.945
-0.955
-0.965
-0.98
-0.98
-1.0
-1.0
-1.005
-0.995
-0.985
-0.995
-0.985
-0.99
-1.0
-1.0
-1.02
-1.025
-1.03
-1.055
-1.045
-1.04
-1.02
-1.01
-1.005
-1.02
-1.015
-1.035
-1.05
-1.06
-1.055
-1.05
-1.05
-1.055
-1.035
-1.035
-1.03
-1.025
-1.02
-1.035
-1.035
-1.05
-1.055
-1.075
-1.05
-1.055
-1.05
-1.035
-1.025
-1.02
-1.025
-1.03
-1.035
-1.05
-1.07
-1.075
-1.06
-1.05
-1.06
-1.05
-1.04
-1.015
-1.04
-1.045
-1.055
-1.05
-1.065
-1.06
-1.06
-1.055
-1.04
-1.05
-1.04
-1.04
-1.035
-1.03
-1.05
-1.05
-1.04
-1.035
-1.03
-1.025
-1.025
-1.01
-0.985
-0.96
-0.95
-0.94
-0.945
-0.93
-0.905
-0.88
-0.87
-0.86
-0.825
-0.79
-0.74
-0.705
-0.665
-0.66
-0.655
-0.67
-0.705
-0.7
-0.7
-0.69
-0.705
-0.72
-0.74
-0.78
-0.83
-0.885
-0.94
-0.985
-1.03
-1.025
-1.06
-1.055
-1.03
-1.015
-1.01
-1.015
-1.025
-1.035
-1.05
-1.05
-1.055
-1.06
-1.06
-1.055
-1.045
-1.045
-1.025
-1.02
-1.02
-1.02
-1.05
-1.055
-1.04
-1.055
-1.06
-1.085
-1.095
-1.105
-1.075
-0.995
-0.84
-0.64
-0.33
0.015
0.375
0.76
1.035
1.165
1.205
1.165
0.955
0.62
0.16
-0.355
-0.84
-1.125
-1.185
-1.115
-0.965
-0.835
-0.77
-0.775
-0.82
-0.88
-0.945
-1.005
-1.045
-1.025
-1.04
-1.03
-1.025
-1.035
-1.03
-1.045
-1.03
-1.01
-1.025
-1.015
-1.04
-1.055
-1.075
-1.07
-1.075
-1.075
-1.075
-1.045
-1.02
-1.03
-1.02
-1.02
-1.035
-1.035
-1.055
-1.065
-1.05
-1.045
-1.045
-1.04
-1.03
-1.015
-1.01
-1.025
-1.02
-1.04
-1.05
-1.045
-1.03
-1.02
-0.995
-0.99
-0.995
-0.975
-0.98
-0.98
-0.975
-0.995
-0.975
-0.985
-0.97
-0.97
-0.95
-0.925
-0.915
-0.895
-0.885
-0.885
-0.9
-0.9
-0.89
-0.88
-0.855
-0.855
-0.82
-0.8
-0.77
-0.77
-0.735
-0.72
-0.74
-0.72
-0.695
-0.685
-0.655
-0.63
-0.62
-0.585
-0.57
-0.54
-0.545
-0.535
-0.535
-0.545
-0.54
-0.54
-0.515
-0.53
-0.5
-0.47
-0.45
-0.455
-0.45
-0.455
-0.47
-0.48
-0.505
-0.525
-0.56
-0.57
-0.59
-0.61
-0.625
-0.65
-0.695
-0.715
-0.745
-0.785
-0.8
-0.815
-0.83
-0.845
-0.845
-0.85
-0.865
-0.865
-0.87
-0.88
-0.9
-0.915
-0.925
-0.925
-0.94
-0.945
-0.94
-0.925
-0.925
-0.925
-0.93
-0.93
-0.945
-0.945
-0.945
-0.95
-0.96
-0.94
-0.935
-0.945
-0.945
-0.925
-0.93
-0.915
-0.935
-0.925
-0.945
-0.945
-0.945
-0.94
-0.925
-0.91
-0.9
-0.895
-0.9
-0.91
-0.9
-0.905
-0.925
-0.915
-0.925
-0.93
-0.905
-0.895
-0.9
-0.89
-0.89
-0.89
-0.9
-0.905
-0.93
-0.925
-0.93
-0.94
-0.91
-0.895
-0.89
-0.89
-0.895
-0.9
-0.925
-0.925
-0.92
-0.94
-0.955
-0.945
-0.935
-0.93
-0.92
-0.91
-0.92
-0.925
-0.935
-0.955
-0.965
-0.955
-0.95
-0.94
-0.945
-0.935
-0.935
-0.935
-0.94
-0.945
-0.96
-0.97
-0.975
-0.97
-0.955
-0.96
-0.95
-0.945
-0.94
-0.935
-0.95
-0.95
-0.975
-0.975
-0.965
-0.955
-0.96
-0.965
-0.945
-0.945
-0.945
-0.95
-0.945
-0.94
-0.945
-0.955
-0.96
-0.97
-0.965
-0.945
-0.935
-0.95
-0.925
-0.915
-0.92
-0.925
-0.93
-0.925
-0.925
-0.915
-0.905
-0.89
-0.85
-0.825
-0.805
-0.79
-0.775
-0.765
-0.765
-0.75
-0.725
-0.69
-0.65
-0.625
-0.59
-0.575
-0.595
-0.61
-0.615
-0.61
-0.61
-0.625
-0.645
-0.68
-0.71
-0.76
-0.795
-0.855
-0.88
-0.935
-0.935
-0.945
-0.965
-0.97
-0.98
-0.995
-1.0
-0.985
-0.99
-0.99
-0.99
-0.98
-0.995
-1.0
-1.0
-1.025
-1.02
-1.02
-1.015
-1.015
-1.01
-1.01
-1.005
-0.985
-1.015
-1.02
-1.015
-1.025
-1.025
-1.055
-1.07
-1.075
-1.095
-1.075
-1.035
-0.925
-0.775
-0.56
-0.27
0.09
0.46
0.79
1.035
1.17
1.19
1.115
0.96
0.615
0.14
-0.39
-0.85
-1.13
-1.2
-1.125
-0.98
-0.84
-0.775
-0.785
-0.82
-0.875
-0.935
-0.985
-1.005
-1.02
-1.03
-1.025
-1.04
-1.035
-1.04
-1.03
-1.015
-1.01
-1.02
-1.025
-1.035
-1.055
-1.06
-1.05
-1.055
-1.04
-1.04
-1.04
-1.025
-1.015
-1.025
-1.02
-1.03
-1.035
-1.035
-1.055
-1.06
-1.065
-1.06
-1.05
-1.05
-1.045
-1.05
-1.04
-1.03
-1.035
-1.045
-1.04
-1.04
-1.05
-1.03
-1.005
-1.0
-1.0
-1.005
-1.01
-1.005
-1.01
-1.005
-1.005
-0.995
-0.98
-0.965
-0.955
-0.95
-0.94
-0.93
-0.925
-0.915
-0.905
-0.92
-0.905
-0.885
-0.875
-0.855
-0.835
-0.81
-0.79
-0.78
-0.79
-0.785
-0.78
-0.755
-0.74
-0.715
-0.69
-0.67
-0.65
-0.62
-0.605
-0.615
-0.6
-0.605
-0.58
-0.575
-0.575
-0.565
-0.56
-0.555
-0.54
-0.535
-0.5
-0.515
-0.52
-0.535
-0.565
-0.575
-0.6
-0.63
-0.64
-0.66
-0.69
-0.72
-0.735
-0.755
-0.81
-0.825
-0.875
-0.885
-0.92
-0.935
-0.95
-0.965
-0.97
-0.97
-0.975
-0.995
-1.005
-1.015
-1.02
-1.02
-1.02
-1.035
-1.045
-1.03
-1.025
-1.035
-1.005
-1.035
-1.03
-1.045
-1.045
-1.045
-1.055
-1.05
-1.055
-1.045
-1.015
-1.0
-1.005
-1.0
-1.01
-1.015
-1.03
-1.03
-1.03
-1.04
-1.025
-1.015
-1.015
-1.01
-0.995
-1.0
-1.0
-1.005
-1.01
-1.005
-1.005
-0.995
-1.01
-1.005
-1.01
-1.0
-0.99
-0.99
-0.995
-1.015
-1.01
-1.01
-1.02
-1.015
-1.035
-1.015
-1.025
-1.015
-1.0
-1.025
-1.015
-1.025
-1.035
-1.045
-1.055
-1.06
-1.065
-1.06
-1.04
-1.035
-1.03
-1.045
-1.055
-1.055
-1.07
-1.065
-1.085
-1.075
-1.08
-1.065
-1.06
-1.07
-1.06
-1.06
-1.08
-1.075
-1.08
-1.07
-1.08
-1.08
-1.085
-1.08
-1.07
-1.07
-1.035
-1.04
-1.045
-1.06
-1.06
-1.055
-1.06
-1.06
-1.045
-1.045
-1.02
-1.035
-0.99
-0.99
-0.96
-0.95
-0.945
-0.93
-0.92
-0.915
-0.89
-0.86
-0.82
-0.775
-0.73
-0.69
-0.71
-0.71
-0.735
-0.74
-0.765
-0.765
-0.76
-0.76
-0.77
-0.76
-0.815
-0.88
-0.945
-0.99
-1.045
-1.06
-1.07
-1.085
-1.1
-1.09
-1.075
-1.075
-1.06
-1.08
-1.08
-1.085
-1.095
-1.095
-1.105
-1.115
-1.115
-1.115
-1.1
-1.085
-1.09
-1.07
-1.07
-1.085
-1.08
-1.08
-1.075
-1.085
-1.08
-1.06
-1.055
-1.065
-1.08
-1.11
-1.14
-1.115
-1.055
-0.945
-0.76
-0.495
-0.165
0.235
0.615
0.96
1.17
1.245
1.215
1.045
0.735
0.265
-0.305
-0.81
-1.145
-1.23
-1.155
-1.0
-0.865
-0.79
-0.8
-0.845
-0.935
-0.995
-1.05
-1.07
-1.085
-1.085
-1.07
-1.05
-1.045
-1.04
-1.055
-1.06
-1.055
-1.085
-1.085
-1.09
-1.095
-1.08
-1.075
-1.07
-1.055
-1.055
-1.065
-1.07
-1.07
-1.06
-1.075
-1.085
-1.07
-1.065
-1.07
-1.05
-1.045
-1.045
-1.04
-1.055
-1.055
-1.055
-1.07
-1.07
-1.075
-1.065
-1.04
-1.04
-1.02
-1.04
-1.015
-1.0
-1.01
-1.02
-1.015
-1.015
-1.005
-0.99
-0.985
-0.99
-0.96
-0.945
-0.94
-0.945
-0.93
-0.945
-0.915
-0.91
-0.905
-0.885
-0.865
-0.83
-0.815
-0.795
-0.79
-0.78
-0.775
-0.765
-0.74
-0.73
-0.705
-0.68
-0.65
-0.635
-0.585
-0.575
-0.58
-0.56
-0.55
-0.54
-0.535
-0.52
-0.51
-0.49
-0.48
-0.465
-0.47
-0.45
-0.44
-0.46
-0.475
-0.49
-0.5
-0.505
-0.54
-0.555
-0.58
-0.595
-0.615
-0.64
-0.675
-0.715
-0.745
-0.775
-0.805
-0.83
-0.845
-0.875
-0.87
-0.885
-0.89
-0.905
-0.915
-0.935
-0.95
-0.97
-0.975
-0.99
-0.97
-0.975
-0.975
-0.965
-0.97
-0.965
-0.98
-0.985
-0.99
-1.005
-1.005
-1.02
-1.005
-1.0
-0.98
-0.975
-0.975
-0.96
-0.965
-0.97
-0.98
-0.98
-0.985
-0.99
-0.975
-0.965
-0.955
-0.945
-0.93
-0.925
-0.93
-0.945
-0.945
-0.945
-0.965
-0.96
-0.95
-0.94
-0.93
-0.93
-0.915
-0.91
-0.92
-0.935
-0.955
-0.94
-0.965
-0.965
-0.94
-0.955
-0.935
-0.93
-0.93
-0.935
-0.95
-0.95
-0.96
-0.96
-0.96
-0.97
-0.97
-0.975
-0.965
-0.955
-0.96
-0.955
-0.97
-0.975
-0.99
-1.0
-1.015
-1.005
-1.005
-1.005
-0.985
-0.975
-0.975
-0.99
-0.985
-0.99
-0.995
-1.01
-1.01
-1.005
-1.02
-1.01
-1.005
-0.995
-0.98
-0.985
-0.99
-0.995
-1.0
-1.0
-1.0
-1.02
-1.01
-1.005
-1.0
-0.985
-0.98
-1.005
-1.025
-1.015
-1.01
-1.03
-1.03
-1.03
-1.04
-1.03
-1.0
-0.995
-0.96
-0.945
-0.935
-0.9
-0.905
-0.875
-0.875
-0.865
-0.835
-0.8
-0.765
-0.715
-0.67
-0.645
-0.63
-0.655
-0.68
-0.71
-0.72
-0.715
-0.725
-0.715
-0.74
-0.775
-0.82
-0.875
-0.93
-0.99
-1.035
-1.05
-1.05
-1.05
