Lead II
0.1
0.11
0.13
0.105
0.08
0.075
0.1
0.115
0.135
0.105
0.075
0.03
0.01
0.02
0.015
0.0
-0.02
-0.06
-0.075
-0.085
-0.07
-0.06
-0.045
-0.055
-0.055
-0.065
-0.06
-0.065
-0.065
-0.095
-0.12
-0.12
-0.1
-0.075
-0.07
-0.085
-0.11
-0.14
-0.145
-0.15
-0.145
-0.15
-0.15
-0.13
-0.135
-0.15
-0.17
-0.185
-0.21
-0.21
-0.205
-0.2
-0.205
-0.205
-0.21
-0.215
-0.22
-0.21
-0.19
-0.175
-0.18
-0.18
-0.19
-0.225
-0.245
-0.255
-0.23
-0.22
-0.2
-0.195
-0.2
-0.215
-0.225
-0.23
-0.205
-0.2
-0.215
-0.215
-0.2
-0.175
-0.17
-0.165
-0.16
-0.15
-0.145
-0.14
-0.13
-0.115
-0.11
-0.095
-0.1
-0.105
-0.135
-0.17
-0.195
-0.19
-0.165
-0.175
-0.185
-0.205
-0.195
-0.205
-0.2
-0.175
-0.16
-0.19
-0.215
-0.23
-0.23
-0.205
-0.175
-0.165
-0.165
-0.165
-0.195
-0.21
-0.19
-0.2
-0.195
-0.21
-0.225
-0.23
-0.23
-0.215
-0.225
-0.245
-0.24
-0.185
-0.18
-0.18
-0.195
-0.205
-0.215
-0.215
-0.195
-0.19
-0.2
-0.225
-0.23
-0.225
-0.2
-0.16
-0.11
-0.02
0.055
0.14
0.22
0.28
0.335
0.39
0.49
0.6
0.73
0.825
0.875
0.85
0.805
0.74
0.62
0.37
0.005
-0.36
-0.57
-0.655
-0.67
-0.675
-0.655
-0.595
-0.53
-0.495
-0.445
-0.425
-0.385
-0.35
-0.345
-0.345
-0.34
-0.34
-0.355
-0.35
-0.34
-0.33
-0.295
-0.285
-0.295
-0.305
-0.32
-0.315
-0.305
-0.32
-0.31
-0.315
-0.31
-0.3
-0.295
-0.31
-0.29
-0.305
-0.295
-0.29
-0.285
-0.265
-0.265
-0.265
-0.275
-0.27
-0.26
-0.275
-0.265
-0.27
-0.265
-0.25
-0.245
-0.255
-0.27
-0.3
-0.305
-0.32
-0.29
-0.26
-0.235
-0.24
-0.25
-0.22
-0.205
-0.215
-0.23
-0.255
-0.265
-0.27
-0.27
-0.255
-0.265
-0.265
-0.265
-0.265
-0.25
-0.25
-0.25
-0.265
-0.27
-0.265
-0.26
-0.26
-0.26
-0.255
-0.24
-0.22
-0.205
-0.21
-0.21
-0.22
-0.22
-0.215
-0.2
-0.185
-0.19
-0.205
-0.21
-0.19
-0.17
-0.19
-0.21
-0.215
-0.22
-0.215
-0.195
-0.19
-0.18
-0.18
-0.18
-0.18
-0.175
-0.18
-0.19
-0.2
-0.205
-0.2
-0.19
-0.185
-0.18
-0.2
-0.2
-0.185
-0.17
-0.185
-0.21
-0.225
-0.235
-0.225
-0.22
-0.23
-0.245
-0.265
-0.25
-0.245
-0.25
-0.255
-0.26
-0.26
-0.26
-0.235
-0.23
-0.235
-0.235
-0.225
-0.23
-0.215
-0.19
-0.17
-0.17
-0.18
-0.18
-0.155
-0.125
-0.14
-0.155
-0.16
-0.175
-0.19
-0.195
-0.225
-0.22
-0.23
-0.26
-0.26
-0.235
-0.23
-0.225
-0.245
-0.265
-0.26
-0.24
-0.215
-0.19
-0.175
-0.17
-0.16
-0.15
-0.16
-0.165
-0.175
-0.195
-0.205
-0.19
-0.195
-0.215
-0.25
-0.26
-0.22
-0.19
-0.195
-0.2
-0.21
-0.2
-0.175
-0.16
-0.18
-0.21
-0.23
-0.23
-0.225
-0.21
-0.235
-0.265
-0.24
-0.18
-0.075
0.04
0.1
0.19
0.275
0.385
0.51
0.645
0.785
0.89
0.955
0.965
0.915
0.85
0.7
0.425
0.045
-0.215
-0.355
-0.425
-0.445
-0.42
-0.375
-0.34
-0.315
-0.31
-0.32
-0.32
-0.32
-0.315
-0.325
-0.32
-0.34
-0.33
-0.315
-0.32
-0.305
-0.295
-0.285
-0.26
-0.255
-0.25
-0.26
-0.24
-0.24
-0.25
-0.27
-0.26
-0.255
-0.265
-0.265
-0.265
-0.275
-0.25
-0.245
-0.22
-0.235
-0.26
-0.285
-0.275
-0.255
-0.25
-0.245
-0.245
-0.25
-0.235
-0.19
-0.17
-0.17
-0.19
-0.17
-0.165
-0.155
-0.14
-0.145
-0.135
-0.135
-0.13
-0.105
-0.095
-0.105
-0.115
-0.12
-0.105
-0.065
-0.05
-0.065
-0.085
-0.09
-0.08
-0.06
-0.04
-0.045
-0.045
-0.04
-0.03
-0.02
-0.02
-0.035
-0.035
-0.03
-0.03
-0.01
0.0
-0.01
-0.02
-0.03
-0.03
-0.025
-0.015
-0.015
-0.015
-0.035
-0.03
-0.04
-0.04
-0.05
-0.065
-0.075
-0.085
-0.075
-0.065
-0.065
-0.075
-0.11
-0.12
-0.105
-0.105
-0.11
-0.125
-0.14
-0.15
-0.165
-0.16
-0.16
-0.15
-0.16
-0.16
-0.16
-0.145
-0.14
-0.14
-0.135
-0.155
-0.165
-0.175
-0.17
-0.17
-0.17
-0.175
-0.18
-0.165
-0.17
-0.17
-0.165
-0.165
-0.155
-0.15
-0.17
-0.18
-0.2
-0.21
-0.19
-0.17
-0.165
-0.155
-0.15
-0.14
-0.15
-0.14
-0.135
-0.13
-0.14
-0.145
-0.125
-0.11
-0.125
-0.15
-0.16
-0.155
-0.155
-0.155
-0.16
-0.165
-0.165
-0.16
-0.175
-0.16
-0.18
-0.175
-0.185
-0.175
-0.16
-0.15
-0.16
-0.16
-0.165
-0.145
-0.115
-0.1
-0.115
-0.13
-0.15
-0.175
-0.17
-0.17
-0.17
-0.18
-0.195
-0.21
-0.195
-0.165
-0.16
-0.185
-0.18
-0.17
-0.17
-0.15
-0.15
-0.165
-0.17
-0.175
-0.16
-0.145
-0.165
-0.165
-0.2
-0.22
-0.21
-0.18
-0.145
-0.065
0.01
0.1
0.215
0.32
0.41
0.49
0.585
0.695
0.81
0.905
0.92
0.865
0.79
0.69
0.54
0.28
-0.005
-0.175
-0.305
-0.365
-0.375
-0.315
-0.28
-0.255
-0.26
-0.285
-0.28
-0.28
-0.3
-0.3
-0.33
-0.32
-0.31
-0.305
-0.315
-0.31
-0.305
-0.285
-0.265
-0.27
-0.265
-0.275
-0.29
-0.295
-0.3
-0.285
-0.265
-0.23
-0.22
-0.205
-0.22
-0.255
-0.255
-0.24
-0.21
-0.19
-0.18
-0.195
-0.21
-0.225
-0.21
-0.22
-0.19
-0.17
-0.145
-0.125
-0.14
-0.16
-0.145
-0.125
-0.115
-0.12
-0.125
-0.095
-0.055
-0.045
-0.07
-0.095
-0.09
-0.08
-0.05
-0.02
-0.015
-0.025
-0.04
-0.035
-0.01
0.01
0.005
0.005
-0.005
0.01
0.02
0.025
0.015
-0.015
-0.04
-0.045
-0.05
-0.06
-0.075
-0.08
-0.08
-0.075
-0.075
-0.07
-0.085
-0.1
-0.115
-0.125
-0.125
-0.11
-0.115
-0.12
-0.135
-0.145
-0.125
-0.105
-0.115
-0.125
-0.145
-0.16
-0.145
-0.125
-0.125
-0.135
-0.16
-0.19
-0.19
-0.17
-0.15
-0.16
-0.18
-0.185
-0.185
-0.185
-0.2
-0.195
-0.19
-0.2
-0.215
-0.22
-0.22
-0.205
-0.2
-0.195
-0.175
-0.165
-0.19
-0.2
-0.195
-0.17
-0.15
-0.115
-0.12
-0.13
-0.155
-0.17
-0.17
-0.15
-0.135
-0.13
-0.13
-0.155
-0.17
-0.19
-0.22
-0.225
-0.23
-0.235
-0.22
-0.21
-0.2
-0.21
-0.23
-0.24
-0.23
-0.205
-0.185
-0.18
-0.19
-0.195
-0.19
-0.17
-0.165
-0.165
-0.185
-0.195
-0.205
-0.2
-0.205
-0.205
-0.195
-0.205
-0.21
-0.225
-0.24
-0.23
-0.235
-0.225
-0.23
-0.24
-0.25
-0.24
-0.245
-0.23
-0.225
-0.21
-0.225
-0.23
-0.23
-0.245
-0.24
-0.235
-0.23
-0.215
-0.185
-0.12
-0.045
0.04
0.105
0.17
0.22
0.305
0.425
0.52
0.61
0.705
0.78
0.84
0.865
0.83
0.745
0.625
0.425
0.11
-0.22
-0.43
-0.555
-0.6
-0.61
-0.6
-0.545
-0.49
-0.455
-0.44
-0.43
-0.415
-0.365
-0.32
-0.285
-0.3
-0.32
-0.33
-0.32
-0.3
-0.295
-0.295
-0.305
-0.295
-0.265
-0.255
-0.255
-0.265
-0.255
-0.245
-0.245
-0.24
-0.245
-0.255
-0.255
-0.255
-0.25
-0.255
-0.24
-0.24
-0.26
-0.255
-0.255
-0.26
-0.26
-0.26
-0.27
-0.26
-0.245
-0.235
-0.23
-0.235
-0.23
-0.23
-0.22
-0.19
-0.19
-0.18
-0.195
-0.19
-0.18
-0.165
-0.17
-0.16
-0.15
-0.145
-0.145
-0.135
-0.135
-0.115
-0.1
-0.105
-0.11
-0.12
-0.12
-0.11
-0.1
-0.08
-0.07
-0.06
-0.075
-0.09
-0.1
-0.095
-0.085
-0.08
-0.07
-0.065
-0.065
-0.055
-0.035
-0.02
-0.03
-0.03
-0.04
-0.05
-0.035
-0.035
-0.035
-0.03
-0.05
-0.05
-0.05
-0.045
-0.05
-0.05
-0.065
-0.075
-0.09
-0.08
-0.09
-0.085
-0.085
-0.095
-0.105
-0.095
-0.11
-0.115
-0.135
-0.14
-0.135
-0.125
-0.125
-0.135
-0.135
-0.14
-0.145
-0.135
-0.125
-0.115
-0.115
-0.115
-0.13
-0.14
-0.15
-0.165
-0.17
-0.165
-0.165
-0.16
-0.17
-0.18
-0.19
-0.195
-0.205
-0.19
-0.19
-0.195
-0.19
-0.2
-0.2
-0.19
-0.205
-0.21
-0.205
-0.2
-0.175
-0.145
-0.155
-0.15
-0.145
-0.14
-0.13
-0.125
-0.115
-0.11
-0.12
-0.115
-0.125
-0.13
-0.155
-0.165
-0.17
-0.17
-0.165
-0.155
-0.17
-0.175
-0.195
-0.185
-0.165
-0.145
-0.165
-0.185
-0.19
-0.185
-0.175
-0.155
-0.17
-0.18
-0.17
-0.155
-0.155
-0.14
-0.145
-0.15
-0.17
-0.195
-0.205
-0.2
-0.185
-0.185
-0.18
-0.175
-0.17
-0.175
-0.17
-0.19
-0.205
-0.2
-0.185
-0.155
-0.165
-0.16
-0.175
-0.19
-0.175
-0.155
-0.16
-0.17
-0.2
-0.205
-0.175
-0.145
-0.105
-0.035
0.02
0.125
0.21
0.305
0.36
0.44
0.535
0.645
0.78
0.9
0.995
1.055
1.045
0.99
0.895
0.725
0.41
0.03
-0.25
-0.4
-0.455
-0.465
-0.46
-0.425
-0.385
-0.355
-0.335
-0.31
-0.315
-0.32
-0.335
-0.33
-0.32
-0.32
-0.335
-0.32
-0.325
-0.335
-0.335
-0.335
-0.345
-0.31
-0.295
-0.27
-0.27
-0.26
-0.275
-0.265
-0.285
-0.265
-0.265
-0.255
-0.255
-0.255
-0.26
-0.275
-0.27
-0.265
-0.265
-0.255
-0.28
-0.29
-0.275
-0.26
-0.225
-0.215
-0.215
-0.21
-0.21
-0.21
-0.22
-0.23
-0.25
-0.23
-0.2
-0.19
-0.195
-0.215
-0.235
-0.245
-0.21
-0.18
-0.19
-0.18
-0.195
-0.17
-0.145
-0.095
-0.085
-0.065
-0.07
-0.065
-0.065
-0.05
-0.04
-0.055
-0.07
-0.075
-0.075
-0.06
-0.06
-0.06
-0.055
-0.06
-0.04
-0.025
-0.025
-0.015
-0.02
-0.03
-0.015
-0.015
-0.03
-0.045
-0.04
-0.035
-0.04
-0.035
-0.045
-0.055
-0.06
-0.065
-0.06
-0.045
-0.06
-0.1
-0.12
-0.12
-0.115
-0.095
-0.09
-0.075
-0.08
-0.075
-0.075
-0.07
-0.11
-0.135
-0.13
-0.115
-0.105
-0.085
-0.065
-0.06
-0.08
-0.1
-0.1
-0.095
-0.11
-0.1
-0.12
-0.125
-0.12
-0.12
-0.145
-0.155
-0.185
-0.18
-0.175
-0.17
-0.18
-0.195
-0.215
-0.2
-0.2
-0.185
-0.185
-0.19
-0.19
-0.19
-0.185
-0.185
-0.18
-0.185
-0.185
-0.19
-0.19
-0.165
-0.155
-0.155
-0.165
-0.185
-0.17
-0.165
-0.165
-0.17
-0.17
-0.16
-0.155
-0.145
-0.135
-0.13
-0.14
-0.13
-0.12
-0.105
-0.135
-0.15
-0.17
-0.175
-0.18
-0.175
-0.17
-0.175
-0.19
-0.19
-0.17
-0.16
-0.15
-0.145
-0.15
-0.14
-0.135
-0.115
-0.13
-0.135
-0.14
-0.14
-0.13
-0.1
-0.115
-0.11
-0.11
-0.1
-0.09
-0.075
-0.09
-0.1
-0.115
-0.12
-0.135
-0.14
-0.16
-0.175
-0.175
-0.175
-0.175
-0.175
-0.185
-0.185
-0.205
-0.21
-0.22
-0.21
-0.205
-0.185
-0.19
-0.185
-0.175
-0.16
-0.165
-0.155
-0.15
-0.16
-0.16
-0.17
-0.175
-0.185
-0.205
-0.225
-0.22
-0.185
-0.145
-0.075
-0.03
0.035
0.105
0.19
0.26
0.34
0.4
0.465
0.54
0.635
0.725
0.82
0.915
0.975
1.03
1.025
0.98
0.905
0.78
0.56
0.245
-0.05
-0.27
-0.37
-0.45
-0.515
-0.535
-0.51
-0.465
-0.42
-0.4
-0.4
-0.37
-0.325
-0.305
-0.285
-0.29
-0.305
-0.315
-0.32
-0.32
-0.31
-0.29
-0.275
-0.265
-0.26
-0.27
-0.27
-0.265
-0.265
-0.25
-0.225
-0.225
-0.235
-0.255
-0.25
-0.25
-0.22
-0.22
-0.205
-0.215
-0.225
-0.21
-0.195
-0.195
-0.195
-0.205
-0.205
-0.205
-0.195
-0.195
-0.18
-0.2
-0.22
-0.22
-0.2
-0.175
-0.13
-0.125
-0.14
-0.125
-0.12
-0.12
-0.12
-0.135
-0.13
-0.11
-0.09
-0.075
-0.08
-0.07
-0.075
-0.05
-0.06
-0.065
-0.065
-0.07
-0.055
-0.055
-0.05
-0.05
-0.035
-0.045
-0.045
-0.045
-0.03
-0.04
-0.01
0.0
0.0
0.005
0.005
-0.005
-0.015
-0.045
-0.05
-0.035
-0.005
0.005
-0.025
-0.06
-0.07
-0.055
-0.02
-0.005
-0.005
0.01
0.005
0.02
0.01
-0.005
-0.01
-0.015
-0.015
-0.02
-0.03
-0.045
-0.06
-0.09
-0.13
-0.125
-0.09
-0.065
-0.055
-0.05
-0.055
-0.045
-0.045
-0.05
-0.055
-0.055
-0.06
-0.055
-0.04
-0.05
-0.065
-0.08
-0.11
-0.09
-0.085
-0.095
-0.11
-0.11
-0.1
-0.085
-0.07
-0.075
-0.09
-0.1
-0.11
-0.11
-0.11
-0.125
-0.135
-0.12
-0.125
-0.11
-0.1
-0.105
-0.105
-0.12
-0.14
-0.115
-0.095
-0.09
-0.075
-0.09
-0.08
-0.075
-0.07
-0.06
-0.055
-0.06
-0.09
-0.095
-0.105
-0.115
-0.13
-0.15
-0.145
-0.145
-0.15
-0.13
-0.12
-0.13
-0.15
-0.155
-0.145
-0.13
-0.13
-0.11
-0.13
-0.115
-0.1
-0.09
-0.1
-0.125
-0.11
-0.095
-0.085
-0.105
-0.135
-0.155
-0.145
-0.15
-0.145
-0.15
-0.15
-0.155
-0.15
-0.145
-0.135
-0.16
-0.165
-0.18
-0.17
-0.15
-0.12
-0.105
-0.09
-0.11
-0.135
-0.135
-0.16
-0.16
-0.155
-0.14
-0.145
-0.135
-0.105
-0.1
-0.06
-0.005
0.065
0.16
0.265
0.36
0.43
0.485
0.575
0.675
0.78
0.88
0.955
1.01
1.015
0.975
0.895
0.795
0.625
0.385
0.095
-0.115
-0.25
-0.35
-0.435
-0.465
-0.425
-0.385
-0.325
-0.33
-0.33
-0.34
-0.355
-0.335
-0.315
-0.295
-0.305
-0.305
-0.3
-0.29
-0.295
-0.31
-0.32
-0.315
-0.305
-0.285
-0.265
-0.28
-0.265
-0.26
-0.25
-0.25
-0.275
-0.29
-0.27
-0.245
-0.23
-0.225
-0.225
-0.225
-0.215
-0.21
-0.205
-0.18
-0.17
-0.185
-0.195
-0.205
-0.19
-0.175
-0.135
-0.135
-0.14
-0.14
-0.135
-0.125
-0.11
-0.115
-0.115
-0.115
-0.125
-0.11
-0.095
-0.1
-0.1
-0.13
-0.135
-0.125
-0.095
-0.065
-0.08
-0.09
-0.105
-0.095
-0.08
-0.09
-0.085
-0.06
-0.05
-0.03
-0.015
-0.03
-0.025
-0.04
-0.035
-0.01
0.015
0.01
0.005
-0.015
0.0
0.015
0.02
0.015
0.015
0.005
0.005
0.035
0.05
0.045
0.03
0.035
0.025
0.015
0.025
0.025
0.01
0.0
-0.02
-0.005
0.0
-0.015
-0.025
-0.05
-0.075
-0.085
-0.075
-0.075
-0.085
-0.085
-0.09
-0.07
-0.06
-0.06
-0.07
-0.095
-0.11
-0.12
-0.08
-0.07
-0.08
-0.105
-0.125
-0.105
-0.105
-0.115
-0.12
-0.14
-0.145
-0.15
-0.13
-0.13
-0.125
-0.135
-0.145
-0.145
-0.165
-0.18
-0.19
-0.2
-0.19
-0.185
-0.185
-0.19
-0.19
-0.2
-0.205
-0.195
-0.165
-0.165
-0.15
-0.15
-0.165
-0.16
-0.16
-0.155
-0.145
-0.13
-0.12
-0.095
-0.09
-0.115
-0.1
-0.115
-0.125
-0.115
-0.08
-0.07
-0.07
-0.1
-0.115
-0.11
-0.09
-0.115
-0.135
-0.165
-0.17
-0.16
-0.165
-0.185
-0.18
-0.18
-0.165
-0.145
-0.15
-0.16
-0.165
-0.175
-0.165
-0.145
-0.125
-0.115
-0.13
-0.125
-0.135
-0.13
-0.125
-0.125
-0.14
-0.16
-0.18
-0.165
-0.16
-0.17
-0.175
-0.175
-0.17
-0.155
-0.155
-0.15
-0.145
-0.155
-0.185
-0.175
-0.15
-0.145
-0.145
-0.13
-0.125
-0.11
-0.115
-0.145
-0.15
-0.16
-0.145
-0.065
0.02
0.09
0.19
0.295
0.385
0.465
0.555
0.655
0.795
0.94
1.06
1.115
1.07
0.975
0.85
0.665
0.375
0.05
-0.17
-0.325
-0.405
-0.41
-0.385
-0.355
-0.325
-0.3
-0.28
-0.255
-0.22
-0.205
-0.2
-0.225
-0.23
-0.24
-0.24
-0.225
-0.22
-0.215
-0.215
-0.205
-0.19
-0.17
-0.155
-0.16
-0.145
-0.18
-0.185
-0.18
-0.2
-0.2
-0.2
-0.185
-0.185
-0.19
-0.165
-0.16
-0.165
-0.195
-0.2
-0.195
-0.17
-0.155
-0.145
-0.15
-0.16
-0.17
-0.16
-0.185
-0.165
-0.15
-0.13
-0.115
-0.115
-0.125
-0.135
-0.125
-0.105
-0.075
-0.065
-0.07
-0.075
-0.055
-0.05
-0.045
-0.055
-0.08
-0.07
-0.065
-0.07
-0.07
-0.06
-0.065
-0.045
-0.01
0.01
0.015
0.025
0.025
0.015
0.0
-0.005
-0.01
0.0
0.005
0.035
0.01
-0.025
-0.065
-0.075
-0.065
-0.06
-0.065
-0.085
-0.12
-0.105
-0.11
-0.125
-0.15
-0.155
-0.14
-0.13
-0.15
-0.15
-0.17
-0.185
-0.185
-0.18
-0.17
-0.185
-0.185
-0.205
-0.21
-0.22
-0.205
-0.2
-0.205
-0.195
-0.195
-0.195
-0.195
-0.19
-0.175
-0.17
-0.195
-0.25
-0.28
-0.285
-0.28
-0.27
-0.255
-0.245
-0.245
-0.255
-0.27
-0.275
-0.27
-0.275
-0.28
-0.295
-0.31
-0.315
-0.31
-0.28
-0.275
-0.275
-0.29
-0.335
-0.345
-0.335
-0.32
-0.31
-0.305
-0.32
-0.305
-0.29
-0.285
-0.275
-0.285
-0.3
-0.245
-0.205
-0.15
-0.08
0.0
0.04
0.075
0.105
0.165
0.22
0.185
0.02
-0.22
-0.435
-0.625
-0.735
-0.89
-1.045
-1.175
-1.28
-1.385
-1.48
-1.575
-1.635
-1.66
-1.63
-1.59
-1.55
-1.56
-1.545
-1.51
-1.415
-1.33
-1.245
-1.205
-1.18
-1.12
-1.02
-0.92
-0.81
-0.71
-0.6
-0.485
-0.385
-0.315
-0.26
-0.225
-0.215
-0.205
-0.185
-0.15
-0.125
-0.105
-0.08
-0.05
-0.03
0.005
0.005
-0.025
-0.03
0.01
0.06
0.06
0.015
0.01
0.035
0.07
0.1
0.105
0.115
0.14
0.165
0.18
0.17
0.155
0.155
0.195
0.225
0.23
0.235
0.26
0.285
0.265
0.27
0.285
0.32
0.345
0.385
0.4
0.38
0.38
0.385
0.415
0.415
0.405
0.41
0.455
0.49
0.48
0.43
0.36
0.35
0.38
0.435
0.46
0.42
0.39
0.375
0.39
0.405
0.36
0.295
0.265
0.25
0.22
0.18
0.14
0.12
0.11
0.09
0.055
0.005
-0.025
-0.03
-0.045
-0.07
-0.095
-0.07
-0.07
-0.07
-0.08
-0.11
-0.125
-0.12
-0.135
-0.13
-0.12
-0.125
-0.125
-0.12
-0.11
-0.115
-0.14
-0.175
-0.17
-0.155
-0.145
-0.16
-0.16
-0.16
-0.14
-0.145
-0.155
-0.155
-0.145
-0.125
-0.105
-0.1
-0.11
-0.135
-0.125
-0.125
-0.115
-0.095
-0.105
-0.08
-0.09
-0.09
-0.11
-0.1
-0.11
-0.11
-0.11
-0.09
-0.065
-0.035
-0.025
-0.03
-0.035
0.0
0.065
0.105
0.135
0.165
0.2
0.265
0.37
0.51
0.625
0.715
0.805
0.915
1.055
1.2
1.32
1.455
1.535
1.565
1.6
1.645
1.67
1.655
1.575
1.385
1.105
0.73
0.3
-0.085
-0.325
-0.48
-0.555
-0.64
-0.72
-0.81
-0.905
-0.995
-1.035
-1.025
-1.015
-1.005
-1.03
-1.035
-1.02
-0.995
-0.965
-0.955
-0.935
-0.91
-0.885
-0.87
-0.845
-0.82
-0.79
-0.77
-0.77
-0.75
-0.715
-0.685
-0.685
-0.695
-0.685
-0.65
-0.615
-0.585
-0.605
-0.6
-0.585
-0.58
-0.585
-0.57
-0.58
-0.595
-0.58
-0.55
-0.54
-0.55
-0.59
-0.64
-0.635
-0.615
-0.61
-0.625
-0.635
-0.625
-0.585
-0.555
-0.555
-0.55
-0.545
-0.53
-0.53
-0.525
-0.525
-0.515
-0.5
-0.475
-0.45
-0.425
-0.395
-0.395
-0.39
-0.385
-0.355
-0.345
-0.34
-0.325
-0.28
-0.27
-0.255
-0.225
-0.195
-0.175
-0.175
-0.185
-0.18
-0.17
-0.195
-0.165
-0.135
-0.115
-0.125
-0.125
-0.13
-0.09
-0.06
-0.075
-0.105
-0.115
-0.115
-0.105
-0.12
-0.135
-0.17
-0.175
-0.185
-0.195
-0.185
-0.15
-0.13
-0.155
-0.19
-0.205
-0.225
-0.23
-0.23
-0.235
-0.24
-0.255
-0.295
-0.34
-0.325
-0.285
-0.27
-0.255
-0.295
-0.36
-0.375
-0.35
-0.305
-0.29
-0.32
-0.36
-0.37
-0.34
-0.295
-0.29
-0.31
-0.295
-0.265
-0.255
-0.285
-0.32
-0.33
-0.32
-0.28
-0.245
-0.24
-0.265
-0.28
-0.255
-0.245
-0.25
-0.27
-0.27
-0.265
-0.25
-0.26
-0.24
-0.24
-0.24
-0.26
-0.3
-0.315
-0.315
-0.285
-0.26
-0.275
-0.28
-0.295
-0.285
-0.27
-0.275
-0.275
-0.315
-0.325
-0.335
-0.34
-0.335
-0.32
-0.29
-0.295
-0.295
-0.325
-0.355
-0.35
-0.32
-0.285
-0.25
-0.245
-0.235
-0.22
-0.195
-0.19
-0.2
-0.225
-0.23
-0.205
-0.18
-0.13
-0.085
-0.12
-0.175
-0.2
-0.205
-0.2
-0.2
-0.2
-0.2
-0.18
-0.2
-0.225
-0.165
-0.135
-0.13
-0.11
-0.085
-0.06
-0.045
-0.045
-0.065
-0.08
-0.11
-0.14
-0.115
-0.125
-0.13
-0.115
-0.095
-0.1
-0.105
-0.11
-0.125
-0.145
-0.125
-0.12
-0.09
-0.065
-0.09
-0.1
-0.07
-0.015
0.04
0.025
-0.005
-0.04
-0.035
-0.025
-0.005
0.01
0.01
-0.025
-0.035
-0.015
0.035
0.065
0.05
0.01
-0.005
0.015
0.05
0.06
0.075
0.07
0.055
0.05
0.055
0.065
0.095
0.115
0.105
0.08
0.045
-0.005
-0.02
-0.005
0.01
-0.005
0.015
0.035
0.05
0.035
0.045
0.065
0.075
0.045
0.015
0.0
0.035
0.1
0.15
0.16
0.18
0.21
0.21
0.185
0.175
0.18
0.23
0.24
0.215
0.215
0.235
0.245
0.18
0.11
0.11
0.15
0.185
0.165
0.165
0.18
0.215
0.235
0.24
0.255
0.255
0.265
0.26
0.245
0.235
0.205
0.185
0.19
0.245
0.3
0.35
0.375
0.43
0.51
0.59
0.645
0.72
0.815
0.935
1.1
1.24
1.375
1.475
1.545
1.61
1.56
1.495
1.38
1.165
0.69
0.14
-0.27
-0.485
-0.595
-0.655
-0.665
-0.64
-0.63
-0.675
-0.71
-0.72
-0.685
-0.685
-0.74
-0.825
-0.905
-0.935
-0.94
-0.945
-0.95
-0.985
-1.03
-1.025
-1.01
-0.985
-0.99
-1.025
-1.035
-1.03
-1.025
-1.04
-1.055
-1.05
-1.05
-1.08
-1.125
-1.145
-1.165
-1.16
-1.115
-1.045
-1.01
-1.0
-1.015
-1.065
-1.08
-1.075
-1.075
-1.105
-1.085
-1.04
-0.99
-0.97
-0.965
-0.955
-0.94
-0.91
-0.865
-0.92
-0.94
-0.915
-0.87
-0.84
-0.815
-0.76
-0.71
-0.695
-0.725
-0.73
-0.685
-0.605
-0.59
-0.64
-0.705
-0.71
-0.675
-0.64
-0.61
-0.605
-0.635
-0.66
-0.64
-0.565
-0.45
-0.435
-0.495
-0.55
-0.545
-0.5
-0.5
-0.46
-0.385
-0.355
-0.4
-0.43
-0.39
-0.345
-0.335
-0.38
-0.415
-0.385
-0.36
-0.355
-0.36
-0.36
-0.355
-0.365
-0.355
-0.35
-0.315
-0.32
-0.335
-0.35
-0.35
-0.345
-0.315
-0.25
-0.235
-0.285
-0.355
-0.36
-0.345
-0.375
-0.385
-0.365
-0.34
-0.35
-0.355
-0.345
-0.355
-0.39
-0.385
-0.33
-0.3
-0.34
-0.365
-0.37
-0.39
-0.36
-0.34
-0.33
-0.3
-0.3
-0.335
-0.385
-0.415
-0.395
-0.36
-0.305
-0.255
-0.23
-0.23
-0.245
-0.215
-0.15
-0.09
-0.07
-0.04
-0.05
-0.075
-0.11
-0.105
-0.06
0.0
0.01
-0.03
-0.19
-0.475
-0.875
-1.29
-1.675
-1.99
-2.19
-2.26
-2.26
-2.25
-2.255
-2.245
-2.175
-2.095
-2.0
-1.945
-1.885
-1.805
-1.68
-1.56
-1.435
-1.275
-1.1
-0.97
-0.92
-0.93
-0.915
-0.87
-0.79
-0.685
-0.63
-0.615
-0.605
-0.585
-0.51
-0.44
-0.35
-0.255
-0.195
-0.15
-0.085
0.02
0.06
0.06
0.055
0.09
0.14
0.155
0.185
0.215
0.24
0.25
0.28
0.305
0.35
0.375
0.405
0.425
0.42
0.465
0.52
0.52
0.465
0.43
0.445
0.51
0.585
0.605
0.625
0.63
0.63
0.625
0.64
0.645
0.66
0.675
0.695
0.725
0.76
0.75
0.71
0.66
0.655
0.675
0.7
0.715
0.72
0.72
0.71
0.7
0.68
0.64
0.635
0.62
0.595
0.545
0.52
0.5
0.48
0.45
0.46
0.48
0.465
0.4
0.325
0.28
0.275
0.285
0.25
0.235
0.21
0.175
0.165
0.13
0.105
0.095
0.1
0.105
0.105
0.095
0.06
0.035
0.0
-0.03
-0.04
-0.05
-0.065
-0.065
-0.08
-0.095
-0.11
-0.105
-0.11
-0.11
-0.105
-0.12
-0.14
-0.13
-0.095
-0.1
-0.135
-0.155
-0.17
-0.155
-0.14
-0.14
-0.13
-0.145
-0.145
-0.16
-0.18
-0.18
-0.175
-0.18
-0.21
-0.205
-0.18
-0.19
-0.2
-0.19
-0.16
-0.165
-0.175
-0.21
-0.255
-0.275
-0.245
-0.2
-0.175
-0.175
-0.18
-0.19
-0.2
-0.205
-0.215
-0.23
-0.25
-0.255
-0.26
-0.245
-0.235
-0.225
-0.215
-0.215
-0.245
-0.27
-0.275
-0.265
-0.28
-0.31
-0.3
-0.265
-0.24
-0.255
-0.24
-0.235
-0.215
-0.23
-0.23
-0.235
-0.245
-0.245
-0.23
-0.23
-0.23
-0.235
-0.23
-0.24
-0.26
-0.25
-0.22
-0.22
-0.24
-0.255
-0.265
-0.22
-0.165
-0.16
-0.185
-0.215
-0.23
-0.18
-0.14
-0.14
-0.14
-0.155
-0.165
-0.145
-0.11
-0.1
-0.11
-0.13
-0.145
-0.125
-0.115
-0.14
-0.17
-0.19
-0.195
-0.175
-0.16
-0.19
-0.225
-0.25
-0.255
-0.24
-0.235
-0.21
-0.22
-0.225
-0.22
-0.21
-0.205
-0.22
-0.25
-0.245
-0.21
-0.19
-0.2
-0.22
-0.225
-0.23
-0.215
-0.2
-0.175
-0.15
-0.145
-0.18
-0.22
-0.225
-0.2
-0.19
-0.21
-0.24
-0.24
-0.185
-0.18
-0.195
-0.205
-0.21
-0.215
-0.205
-0.17
-0.145
-0.065
-0.01
0.08
0.165
0.28
0.37
0.445
0.505
0.575
0.675
0.795
0.855
0.835
0.76
0.69
0.54
0.245
-0.115
-0.38
-0.555
-0.625
-0.61
-0.56
-0.495
-0.455
-0.43
-0.425
-0.395
-0.35
-0.32
-0.31
-0.315
-0.33
-0.32
-0.315
-0.33
-0.33
-0.305
-0.3
-0.285
-0.285
-0.28
-0.28
-0.27
-0.245
-0.215
-0.21
-0.24
-0.26
-0.245
-0.2
-0.175
-0.19
-0.21
-0.23
-0.22
-0.21
-0.18
-0.155
-0.145
-0.165
-0.175
-0.155
-0.14
-0.135
-0.145
-0.135
-0.125
-0.125
-0.12
-0.13
-0.14
-0.16
-0.145
-0.11
-0.09
-0.07
-0.085
-0.12
-0.145
-0.15
-0.125
-0.115
-0.115
-0.105
-0.11
-0.125
-0.13
-0.135
-0.135
-0.135
-0.125
-0.11
-0.09
-0.085
-0.115
-0.115
-0.12
-0.12
-0.125
-0.095
-0.075
-0.06
-0.055
-0.065
-0.07
-0.065
-0.06
-0.065
-0.085
-0.1
-0.105
-0.07
-0.045
-0.015
-0.015
-0.03
-0.035
-0.04
-0.04
-0.035
-0.08
-0.1
-0.1
-0.07
-0.045
-0.05
-0.07
-0.06
-0.05
-0.05
-0.06
-0.075
-0.06
-0.055
-0.065
-0.06
-0.05
-0.06
-0.095
-0.135
-0.13
-0.105
-0.075
-0.055
-0.055
-0.065
-0.07
-0.065
-0.05
-0.025
-0.03
-0.045
-0.04
-0.025
-0.035
-0.02
-0.02
-0.025
-0.005
0.0
-0.005
-0.005
-0.015
-0.015
-0.01
-0.005
-0.005
-0.015
-0.04
-0.045
-0.035
-0.04
-0.04
-0.065
-0.07
-0.065
-0.03
-0.015
-0.025
-0.035
-0.065
-0.055
-0.02
0.005
0.02
0.0
-0.02
-0.03
-0.015
-0.03
-0.035
-0.055
-0.07
-0.06
-0.055
-0.05
-0.055
-0.07
-0.09
-0.095
-0.09
-0.08
-0.085
-0.095
-0.115
-0.125
-0.125
-0.115
-0.105
-0.105
-0.105
-0.085
-0.08
-0.075
-0.11
-0.125
-0.165
-0.175
-0.15
-0.07
0.01
0.12
0.235
0.33
0.405
0.465
0.52
0.62
0.735
0.86
0.995
1.125
1.19
1.195
1.135
1.055
0.9
0.565
0.135
-0.225
-0.425
-0.5
-0.51
-0.485
-0.445
-0.375
-0.35
-0.33
-0.315
-0.27
-0.235
-0.205
-0.215
-0.235
-0.235
-0.23
-0.22
-0.225
-0.235
-0.225
-0.23
-0.21
-0.21
-0.2
-0.205
-0.215
-0.21
-0.2
-0.19
-0.185
-0.19
-0.195
-0.21
-0.22
-0.22
-0.205
-0.195
-0.185
-0.175
-0.18
-0.18
-0.195
-0.195
-0.2
-0.175
-0.17
-0.15
-0.145
-0.15
-0.15
-0.14
-0.11
-0.11
-0.115
-0.115
-0.115
-0.105
-0.075
-0.065
-0.06
-0.055
-0.065
-0.055
-0.055
-0.03
-0.04
-0.045
-0.045
-0.05
-0.035
-0.04
-0.05
-0.045
-0.03
-0.025
-0.01
0.0
-0.005
0.01
0.01
0.01
0.025
0.04
0.04
0.035
0.01
0.01
0.015
0.015
0.015
0.0
-0.005
0.0
0.0
-0.01
-0.015
-0.03
-0.04
-0.04
-0.03
-0.05
-0.065
-0.085
-0.09
-0.12
-0.115
-0.125
-0.115
-0.105
-0.105
-0.105
-0.095
-0.1
-0.12
-0.115
-0.115
-0.105
-0.115
-0.13
-0.145
-0.135
-0.13
-0.105
-0.095
-0.11
-0.12
-0.14
-0.155
-0.15
-0.16
-0.16
-0.16
-0.15
-0.145
-0.125
-0.105
-0.1
-0.09
-0.095
-0.09
-0.095
-0.085
-0.075
-0.08
-0.09
-0.08
-0.08
-0.07
-0.08
-0.1
-0.12
-0.13
-0.125
-0.125
-0.13
-0.12
-0.125
-0.125
-0.12
-0.11
-0.12
-0.115
-0.135
-0.13
-0.12
-0.095
-0.09
-0.09
-0.105
-0.11
-0.1
-0.08
-0.085
-0.105
-0.105
-0.12
-0.12
-0.13
-0.14
-0.165
-0.175
-0.17
-0.165
-0.14
-0.15
-0.15
-0.165
-0.165
-0.15
-0.135
-0.125
-0.12
-0.14
-0.145
-0.155
-0.14
-0.13
-0.135
-0.135
-0.13
-0.125
-0.125
-0.145
-0.16
-0.175
-0.155
-0.105
-0.035
0.03
0.095
0.165
0.25
0.34
0.425
0.505
0.59
0.68
0.785
0.895
1.015
1.09
1.115
1.125
1.06
0.94
0.72
0.365
-0.005
-0.25
-0.365
-0.43
-0.47
-0.465
-0.435
-0.4
-0.365
-0.33
-0.315
-0.305
-0.29
-0.285
-0.295
-0.31
-0.3
-0.29
-0.295
-0.34
-0.36
-0.315
-0.255
-0.22
-0.21
-0.2
-0.19
-0.18
-0.165
-0.19
-0.2
-0.195
-0.185
-0.175
-0.16
-0.145
-0.17
-0.175
-0.2
-0.17
-0.155
-0.175
-0.18
-0.17
-0.16
-0.165
-0.165
-0.165
-0.16
-0.15
-0.145
-0.14
-0.13
-0.125
-0.14
-0.155
-0.16
-0.165
-0.15
-0.16
-0.155
-0.15
-0.15
-0.145
-0.125
-0.115
-0.11
-0.125
-0.125
-0.095
-0.055
-0.045
-0.035
-0.035
-0.035
-0.025
0.005
0.01
0.01
-0.015
-0.035
-0.04
-0.01
0.02
0.04
0.035
0.035
0.05
0.05
0.035
0.035
0.03
0.02
0.025
0.045
0.045
0.03
0.025
0.025
0.01
0.015
0.015
0.03
0.025
0.035
0.03
0.03
0.01
-0.005
-0.025
-0.05
-0.055
-0.06
-0.05
-0.015
0.005
