Lead II
-1.47
-1.675
-1.78
-1.86
-1.91
-1.985
-2.06
-2.15
-2.2
-2.205
-2.19
-2.16
-2.13
-2.115
-2.105
-2.09
-2.065
-2.005
-1.93
-1.775
-1.615
-1.44
-1.3
-1.165
-1.085
-1.035
-1.01
-1.01
-1.015
-0.99
-0.975
-0.94
-0.92
-0.905
-0.9
-0.875
-0.87
-0.87
-0.89
-0.9
-0.9
-0.925
-0.925
-0.935
-0.93
-0.915
-0.9
-0.9
-0.91
-0.93
-0.945
-0.95
-0.98
-1.005
-1.03
-1.025
-1.035
-1.035
-1.045
-1.025
-1.03
-1.03
-1.035
-1.065
-1.085
-1.085
-1.1
-1.11
-1.11
-1.105
-1.115
-1.125
-1.135
-1.14
-1.15
-1.165
-1.185
-1.175
-1.19
-1.195
-1.185
-1.165
-1.185
-1.16
-1.16
-1.155
-1.15
-1.135
-1.135
-1.135
-1.125
-1.105
-1.075
-1.055
-1.045
-0.99
-0.98
-0.925
-0.93
-0.915
-0.915
-0.905
-0.89
-0.89
-0.87
-0.86
-0.85
-0.825
-0.825
-0.83
-0.81
-0.815
-0.82
-0.825
-0.83
-0.825
-0.81
-0.815
-0.82
-0.775
-0.79
-0.78
-0.78
-0.79
-0.8
-0.8
-0.815
-0.83
-0.83
-0.825
-0.815
-0.81
-0.815
-0.825
-0.845
-0.86
-0.855
-0.855
-0.845
-0.85
-0.85
-0.84
-0.84
-0.83
-0.845
-0.865
-0.855
-0.865
-0.865
-0.875
-0.905
-0.885
-0.885
-0.885
-0.88
-0.855
-0.845
-0.845
-0.84
-0.865
-0.87
-0.875
-0.87
-0.875
-0.87
-0.835
-0.845
-0.825
-0.835
-0.815
-0.815
-0.825
-0.845
-0.87
-0.87
-0.865
-0.86
-0.86
-0.84
-0.84
-0.85
-0.87
-0.885
-0.87
-0.845
-0.84
-0.84
-0.845
-0.84
-0.84
-0.815
-0.8
-0.795
-0.78
-0.77
-0.77
-0.775
-0.78
-0.795
-0.795
-0.77
-0.735
-0.69
-0.65
-0.605
-0.58
-0.575
-0.585
-0.605
-0.63
-0.685
-0.705
-0.725
-0.72
-0.735
-0.71
-0.665
-0.615
-0.565
-0.55
-0.585
-0.625
-0.67
-0.73
-0.76
-0.795
-0.82
-0.825
-0.84
-0.84
-0.855
-0.855
-0.86
-0.895
-0.905
-0.915
-0.93
-0.91
-0.9
-0.9
-0.91
-0.92
-0.915
-0.915
-0.925
-0.925
-0.93
-0.93
-0.935
-0.935
-0.925
-0.92
-0.9
-0.895
-0.9
-0.885
-0.915
-0.93
-0.92
-0.9
-0.9
-0.9
-0.865
-0.87
-0.88
-0.83
-0.72
-0.58
-0.395
-0.24
-0.075
-0.005
0.005
-0.03
-0.04
0.035
0.19
0.37
0.55
0.635
0.54
0.245
-0.235
-0.795
-1.295
-1.69
-1.92
-2.04
-2.09
-2.125
-2.16
-2.18
-2.19
-2.195
-2.19
-2.2
-2.215
-2.2
-2.195
-2.16
-2.135
-2.065
-1.975
-1.865
-1.735
-1.57
-1.4
-1.255
-1.115
-1.045
-0.975
-0.96
-0.97
-0.98
-0.985
-1.0
-0.985
-0.97
-0.95
-0.94
-0.935
-0.93
-0.945
-0.945
-0.94
-0.94
-0.93
-0.935
-0.94
-0.95
-0.94
-0.95
-0.96
-0.975
-0.99
-0.995
-1.005
-1.04
-1.05
-1.05
-1.035
-1.025
-1.045
-1.05
-1.065
-1.08
-1.09
-1.115
-1.13
-1.12
-1.125
-1.14
-1.15
-1.155
-1.175
-1.17
-1.155
-1.14
-1.13
-1.15
-1.145
-1.16
-1.2
-1.225
-1.23
-1.225
-1.21
-1.195
-1.155
-1.13
-1.095
-1.075
-1.08
-1.06
-1.04
-1.025
-1.015
-1.005
-0.995
-0.985
-0.965
-0.93
-0.9
-0.87
-0.855
-0.83
-0.83
-0.845
-0.84
-0.825
-0.81
-0.8
-0.78
-0.765
-0.75
-0.74
-0.74
-0.735
-0.765
-0.76
-0.755
-0.77
-0.775
-0.75
-0.755
-0.745
-0.73
-0.745
-0.755
-0.755
-0.755
-0.75
-0.755
-0.765
-0.775
-0.78
-0.765
-0.75
-0.745
-0.74
-0.765
-0.775
-0.77
-0.785
-0.78
-0.79
-0.79
-0.78
-0.785
-0.78
-0.765
-0.76
-0.745
-0.75
-0.765
-0.775
-0.815
-0.83
-0.83
-0.835
-0.795
-0.775
-0.78
-0.76
-0.76
-0.765
-0.765
-0.79
-0.785
-0.785
-0.785
-0.795
-0.77
-0.765
-0.75
-0.755
-0.755
-0.765
-0.765
-0.785
-0.78
-0.78
-0.77
-0.75
-0.755
-0.765
-0.765
-0.755
-0.735
-0.715
-0.72
-0.71
-0.715
-0.735
-0.74
-0.735
-0.72
-0.69
-0.68
-0.635
-0.625
-0.61
-0.625
-0.625
-0.63
-0.625
-0.595
-0.57
-0.555
-0.51
-0.515
-0.515
-0.525
-0.535
-0.565
-0.595
-0.63
-0.65
-0.645
-0.635
-0.585
-0.525
-0.49
-0.49
-0.51
-0.54
-0.58
-0.62
-0.665
-0.715
-0.72
-0.73
-0.74
-0.745
-0.74
-0.745
-0.755
-0.78
-0.775
-0.78
-0.81
-0.8
-0.795
-0.78
-0.775
-0.78
-0.785
-0.805
-0.805
-0.795
-0.795
-0.795
-0.79
-0.79
-0.77
-0.77
-0.77
-0.78
-0.795
-0.79
-0.78
-0.78
-0.795
-0.8
-0.835
-0.83
-0.84
-0.85
-0.84
-0.795
-0.715
-0.59
-0.435
-0.26
-0.105
0.025
0.075
0.09
0.05
0.065
0.115
0.25
0.435
0.61
0.735
0.745
0.55
0.18
-0.32
-0.825
-1.22
-1.505
-1.68
-1.775
-1.84
-1.895
-1.94
-1.975
-1.99
-2.02
-2.025
-2.045
-2.025
-2.025
-2.02
-1.97
-1.905
-1.825
-1.745
-1.615
-1.48
-1.37
-1.245
-1.115
-1.015
-0.95
-0.905
-0.87
-0.865
-0.855
-0.85
-0.84
-0.815
-0.82
-0.83
-0.84
-0.85
-0.85
-0.84
-0.825
-0.805
-0.795
-0.785
-0.795
-0.795
-0.82
-0.83
-0.86
-0.885
-0.89
-0.9
-0.89
-0.88
-0.875
-0.87
-0.89
-0.9
-0.935
-0.97
-0.995
-1.01
-1.02
-1.005
-1.015
-1.02
-1.025
-1.02
-1.025
-1.03
-1.05
-1.045
-1.06
-1.09
-1.095
-1.09
-1.08
-1.065
-1.055
-1.045
-1.05
-1.07
-1.07
-1.06
-1.05
-1.05
-1.035
-1.005
-0.985
-0.955
-0.945
-0.92
-0.905
-0.865
-0.87
-0.86
-0.86
-0.84
-0.815
-0.78
-0.76
-0.76
-0.74
-0.73
-0.74
-0.685
-0.695
-0.67
-0.675
-0.675
-0.675
-0.675
-0.67
-0.675
-0.625
-0.615
-0.605
-0.585
-0.605
-0.63
-0.63
-0.655
-0.66
-0.635
-0.615
-0.6
-0.605
-0.615
-0.605
-0.635
-0.64
-0.64
-0.635
-0.625
-0.62
-0.63
-0.625
-0.63
-0.635
-0.64
-0.645
-0.63
-0.64
-0.63
-0.66
-0.68
-0.69
-0.69
-0.655
-0.65
-0.625
-0.61
-0.615
-0.615
-0.63
-0.655
-0.675
-0.67
-0.68
-0.685
-0.665
-0.665
-0.665
-0.675
-0.66
-0.645
-0.655
-0.66
-0.65
-0.675
-0.66
-0.645
-0.645
-0.63
-0.62
-0.62
-0.635
-0.645
-0.65
-0.655
-0.66
-0.67
-0.66
-0.645
-0.61
-0.6
-0.585
-0.575
-0.57
-0.575
-0.565
-0.57
-0.565
-0.57
-0.55
-0.53
-0.505
-0.48
-0.45
-0.42
-0.395
-0.375
-0.355
-0.365
-0.385
-0.425
-0.475
-0.52
-0.54
-0.535
-0.49
-0.465
-0.42
-0.415
-0.385
-0.39
-0.415
-0.435
-0.47
-0.505
-0.55
-0.57
-0.585
-0.605
-0.625
-0.625
-0.65
-0.67
-0.695
-0.69
-0.685
-0.7
-0.695
-0.69
-0.67
-0.69
-0.715
-0.715
-0.72
-0.715
-0.71
-0.725
-0.71
-0.72
-0.71
-0.715
-0.695
-0.695
-0.71
-0.7
-0.73
-0.715
-0.77
-0.755
-0.745
-0.72
-0.71
-0.705
-0.715
-0.72
-0.74
-0.755
-0.7
-0.62
-0.46
-0.295
-0.14
-0.02
0.04
0.03
-0.005
0.035
0.165
0.37
0.615
0.805
0.85
0.715
0.35
-0.15
-0.68
-1.135
-1.44
-1.615
-1.705
-1.78
-1.855
-1.925
-1.97
-2.015
-2.05
-2.05
-2.035
-2.02
-2.005
-2.005
-1.98
-1.94
-1.91
-1.85
-1.77
-1.64
-1.495
-1.32
-1.17
-1.025
-0.915
-0.85
-0.81
-0.815
-0.825
-0.825
-0.825
-0.815
-0.8
-0.765
-0.76
-0.755
-0.735
-0.735
-0.735
-0.74
-0.745
-0.75
-0.745
-0.755
-0.775
-0.785
-0.795
-0.79
-0.79
-0.81
-0.815
-0.81
-0.82
-0.85
-0.875
-0.88
-0.895
-0.91
-0.905
-0.9
-0.9
-0.91
-0.925
-0.95
-0.975
-0.985
-1.005
-1.0
-0.98
-0.975
-0.965
-0.96
-0.97
-0.98
-1.005
-1.02
-1.04
-1.06
-1.06
-1.05
-1.04
-1.01
-1.005
-1.005
-1.015
-0.995
-0.99
-0.975
-0.975
-0.97
-0.97
-0.965
-0.965
-0.92
-0.905
-0.86
-0.855
-0.8
-0.795
-0.77
-0.76
-0.745
-0.745
-0.73
-0.725
-0.7
-0.68
-0.675
-0.655
-0.655
-0.655
-0.665
-0.655
-0.655
-0.665
-0.645
-0.645
-0.625
-0.615
-0.615
-0.61
-0.62
-0.625
-0.61
-0.64
-0.65
-0.665
-0.675
-0.67
-0.675
-0.67
-0.655
-0.63
-0.635
-0.635
-0.645
-0.645
-0.66
-0.68
-0.685
-0.685
-0.685
-0.69
-0.685
-0.675
-0.665
-0.68
-0.67
-0.67
-0.69
-0.685
-0.715
-0.71
-0.705
-0.695
-0.69
-0.68
-0.69
-0.695
-0.67
-0.69
-0.685
-0.675
-0.705
-0.7
-0.71
-0.685
-0.69
-0.69
-0.665
-0.68
-0.685
-0.705
-0.71
-0.695
-0.7
-0.695
-0.69
-0.69
-0.67
-0.67
-0.655
-0.655
-0.655
-0.67
-0.67
-0.695
-0.69
-0.68
-0.655
-0.635
-0.615
-0.605
-0.575
-0.565
-0.565
-0.555
-0.555
-0.57
-0.57
-0.545
-0.52
-0.48
-0.445
-0.415
-0.395
-0.4
-0.45
-0.465
-0.495
-0.52
-0.535
-0.555
-0.545
-0.54
-0.535
-0.48
-0.455
-0.44
-0.43
-0.445
-0.485
-0.535
-0.595
-0.62
-0.635
-0.66
-0.665
-0.67
-0.68
-0.695
-0.715
-0.73
-0.745
-0.77
-0.765
-0.77
-0.76
-0.755
-0.755
-0.745
-0.74
-0.755
-0.75
-0.755
-0.77
-0.775
-0.81
-0.8
-0.79
-0.79
-0.765
-0.76
-0.755
-0.765
-0.765
-0.775
-0.79
-0.8
-0.795
-0.8
-0.79
-0.795
-0.79
-0.79
-0.805
-0.795
-0.74
-0.64
-0.515
-0.355
-0.18
-0.04
0.015
0.02
-0.01
-0.01
0.025
0.16
0.335
0.545
0.705
0.76
0.635
0.31
-0.165
-0.695
-1.175
-1.525
-1.74
-1.86
-1.925
-1.985
-2.04
-2.095
-2.15
-2.17
-2.2
-2.175
-2.15
-2.135
-2.13
-2.12
-2.1
-2.07
-2.01
-1.95
-1.85
-1.7
-1.555
-1.4
-1.27
-1.135
-1.05
-0.98
-0.96
-0.925
-0.945
-0.915
-0.91
-0.895
-0.895
-0.88
-0.855
-0.825
-0.81
-0.815
-0.825
-0.85
-0.87
-0.87
-0.885
-0.89
-0.875
-0.865
-0.855
-0.845
-0.86
-0.86
-0.875
-0.9
-0.935
-0.955
-0.975
-0.99
-0.995
-0.995
-0.99
-0.995
-0.995
-1.01
-1.025
-1.05
-1.055
-1.08
-1.085
-1.09
-1.105
-1.095
-1.09
-1.1
-1.1
-1.11
-1.105
-1.115
-1.12
-1.145
-1.13
-1.15
-1.14
-1.125
-1.105
-1.08
-1.07
-1.06
-1.045
-1.045
-1.025
-1.01
-0.97
-0.975
-0.93
-0.91
-0.875
-0.865
-0.85
-0.845
-0.85
-0.835
-0.845
-0.835
-0.83
-0.825
-0.795
-0.78
-0.76
-0.74
-0.735
-0.725
-0.7
-0.725
-0.725
-0.735
-0.73
-0.765
-0.745
-0.75
-0.745
-0.735
-0.71
-0.71
-0.71
-0.72
-0.74
-0.735
-0.75
-0.745
-0.775
-0.77
-0.755
-0.74
-0.75
-0.735
-0.74
-0.76
-0.755
-0.77
-0.775
-0.78
-0.775
-0.765
-0.76
-0.775
-0.765
-0.77
-0.755
-0.78
-0.785
-0.79
-0.79
-0.8
-0.795
-0.785
-0.775
-0.775
-0.745
-0.76
-0.76
-0.765
-0.78
-0.805
-0.815
-0.815
-0.8
-0.8
-0.785
-0.755
-0.755
-0.765
-0.76
-0.77
-0.77
-0.79
-0.785
-0.8
-0.8
-0.785
-0.77
-0.765
-0.76
-0.765
-0.75
-0.775
-0.78
-0.785
-0.78
-0.775
-0.765
-0.765
-0.73
-0.72
-0.695
-0.685
-0.67
-0.67
-0.665
-0.655
-0.655
-0.66
-0.645
-0.61
-0.575
-0.54
-0.52
-0.495
-0.51
-0.535
-0.57
-0.595
-0.635
-0.655
-0.645
-0.615
-0.59
-0.56
-0.525
-0.5
-0.485
-0.51
-0.53
-0.58
-0.625
-0.665
-0.695
-0.71
-0.705
-0.715
-0.705
-0.73
-0.755
-0.765
-0.775
-0.785
-0.79
-0.82
-0.815
-0.805
-0.8
-0.81
-0.795
-0.795
-0.81
-0.805
-0.815
-0.82
-0.83
-0.815
-0.83
-0.82
-0.82
-0.815
-0.805
-0.81
-0.815
-0.805
-0.83
-0.825
-0.82
-0.835
-0.815
-0.82
-0.82
-0.83
-0.83
-0.83
-0.81
-0.73
-0.605
-0.455
-0.265
-0.09
0.045
0.1
0.085
0.075
0.1
0.2
0.365
0.555
0.69
0.735
0.595
0.255
-0.22
-0.715
-1.155
-1.46
-1.675
-1.775
-1.845
-1.9
-1.965
-2.015
-2.045
-2.1
-2.115
-2.095
-2.095
-2.08
-2.06
-2.06
-2.04
-2.005
-1.95
-1.87
-1.75
-1.6
-1.42
-1.27
-1.14
-1.035
-0.96
-0.925
-0.925
-0.91
-0.915
-0.905
-0.89
-0.88
-0.88
-0.855
-0.82
-0.835
-0.815
-0.805
-0.825
-0.825
-0.835
-0.84
-0.845
-0.86
-0.85
-0.855
-0.865
-0.865
-0.855
-0.88
-0.9
-0.925
-0.92
-0.93
-0.94
-0.96
-0.965
-0.98
-0.98
-0.995
-0.99
-1.0
-1.005
-1.025
-1.03
-1.06
-1.07
-1.085
-1.08
-1.09
-1.095
-1.07
-1.085
-1.09
-1.095
-1.095
-1.105
-1.1
-1.095
-1.115
-1.11
-1.09
-1.07
-1.065
-1.055
-1.04
-1.025
-1.035
-1.03
-1.02
-1.015
-0.985
-0.98
-0.94
-0.905
-0.87
-0.85
-0.835
-0.82
-0.81
-0.785
-0.78
-0.79
-0.78
-0.765
-0.76
-0.745
-0.725
-0.7
-0.695
-0.69
-0.68
-0.685
-0.69
-0.69
-0.685
-0.685
-0.675
-0.67
-0.66
-0.65
-0.66
-0.665
-0.67
-0.685
-0.675
-0.68
-0.69
-0.685
-0.69
-0.68
-0.67
-0.665
-0.665
-0.66
-0.675
-0.705
-0.72
-0.725
-0.735
-0.74
-0.72
-0.71
-0.705
-0.7
-0.71
-0.705
-0.71
-0.74
-0.74
-0.735
-0.745
-0.75
-0.74
-0.725
-0.73
-0.715
-0.735
-0.72
-0.715
-0.71
-0.72
-0.71
-0.725
-0.725
-0.715
-0.705
-0.71
-0.71
-0.72
-0.725
-0.74
-0.73
-0.72
-0.71
-0.725
-0.705
-0.71
-0.71
-0.7
-0.695
-0.695
-0.71
-0.7
-0.695
-0.705
-0.715
-0.72
-0.685
-0.685
-0.665
-0.645
-0.635
-0.61
-0.61
-0.605
-0.59
-0.59
-0.605
-0.605
-0.59
-0.545
-0.495
-0.475
-0.44
-0.455
-0.455
-0.47
-0.5
-0.53
-0.55
-0.56
-0.58
-0.545
-0.52
-0.49
-0.445
-0.425
-0.435
-0.46
-0.485
-0.535
-0.57
-0.61
-0.645
-0.66
-0.67
-0.67
-0.685
-0.7
-0.69
-0.72
-0.755
-0.75
-0.76
-0.775
-0.76
-0.765
-0.77
-0.77
-0.76
-0.745
-0.76
-0.755
-0.795
-0.785
-0.795
-0.795
-0.8
-0.78
-0.78
-0.76
-0.76
-0.75
-0.755
-0.755
-0.765
-0.76
-0.77
-0.78
-0.785
-0.805
-0.8
-0.805
-0.815
-0.845
-0.81
-0.75
-0.635
-0.48
-0.32
-0.16
-0.055
-0.02
-0.01
0.05
0.175
0.37
0.58
0.735
0.74
0.51
0.07
-0.475
-1.01
-1.405
-1.66
-1.815
-1.87
-1.925
-1.98
-2.05
-2.08
-2.12
-2.105
-2.1
-2.095
-2.075
-2.07
-2.045
-2.005
-1.955
-1.885
-1.77
-1.645
-1.485
-1.325
-1.185
-1.075
-1.0
-0.935
-0.895
-0.865
-0.845
-0.84
-0.84
-0.84
-0.825
-0.83
-0.8
-0.805
-0.81
-0.805
-0.8
-0.79
-0.78
-0.795
-0.8
-0.815
-0.81
-0.83
-0.845
-0.845
-0.83
-0.83
-0.835
-0.855
-0.87
-0.89
-0.925
-0.935
-0.96
-0.965
-0.97
-0.975
-0.98
-0.99
-0.98
-0.985
-1.0
-1.005
-1.035
-1.05
-1.06
-1.045
-1.055
-1.065
-1.05
-1.05
-1.04
-1.035
-1.035
-1.045
-1.045
-1.05
-1.055
-1.05
-1.045
-1.025
-1.05
-0.995
-0.975
-0.93
-0.915
-0.895
-0.88
-0.86
-0.84
-0.82
-0.825
-0.805
-0.795
-0.77
-0.76
-0.74
-0.725
-0.715
-0.705
-0.715
-0.705
-0.685
-0.665
-0.66
-0.645
-0.64
-0.64
-0.64
-0.64
-0.63
-0.63
-0.63
-0.64
-0.63
-0.65
-0.625
-0.6
-0.57
-0.565
-0.54
-0.565
-0.6
-0.595
-0.6
-0.605
-0.61
-0.62
-0.63
-0.635
-0.64
-0.655
-0.65
-0.65
-0.64
-0.65
-0.68
-0.68
-0.695
-0.74
-0.75
-0.75
-0.75
-0.735
-0.7
-0.69
-0.695
-0.71
-0.74
-0.76
-0.765
-0.78
-0.77
-0.765
-0.75
-0.74
-0.735
-0.725
-0.715
-0.72
-0.725
-0.745
-0.755
-0.75
-0.75
-0.74
-0.735
-0.745
-0.73
-0.715
-0.71
-0.72
-0.73
-0.74
-0.735
-0.745
-0.74
-0.72
-0.705
-0.72
-0.72
-0.7
-0.705
-0.71
-0.725
-0.725
-0.715
-0.715
-0.72
-0.71
-0.695
-0.67
-0.675
-0.67
-0.68
-0.675
-0.695
-0.7
-0.735
-0.73
-0.755
-0.76
-0.725
-0.645
-0.54
-0.395
-0.215
-0.065
0.04
0.075
0.075
0.065
0.155
0.295
0.51
0.73
0.89
0.885
0.685
0.27
-0.265
-0.81
-1.245
-1.545
-1.715
-1.815
-1.855
-1.92
-1.96
-2.005
-2.045
-2.075
-2.055
-2.055
-2.04
-2.035
-2.0
-1.95
-1.895
-1.83
-1.715
-1.58
-1.43
-1.27
-1.14
-1.015
-0.94
-0.875
-0.83
-0.82
-0.795
-0.78
-0.76
-0.74
-0.725
-0.735
-0.75
-0.755
-0.765
-0.775
-0.75
-0.76
-0.76
-0.76
-0.755
-0.755
-0.78
-0.785
-0.775
-0.79
-0.82
-0.81
-0.83
-0.83
-0.84
-0.835
-0.845
-0.875
-0.855
-0.875
-0.9
-0.915
-0.93
-0.95
-0.97
-0.965
-0.955
-0.97
-0.97
-1.005
-1.015
-1.015
-1.025
-1.02
-1.04
-1.035
-1.045
-1.045
-1.05
-1.03
-1.015
-1.01
-1.02
-1.02
-1.045
-1.065
-1.08
-1.065
-1.055
-1.045
-1.0
-0.97
-0.945
-0.915
-0.895
-0.895
-0.88
-0.885
-0.855
-0.855
-0.85
-0.82
-0.815
-0.78
-0.77
-0.755
-0.76
-0.75
-0.73
-0.74
-0.75
-0.755
-0.74
-0.72
-0.705
-0.7
-0.695
-0.68
-0.69
-0.685
-0.695
-0.71
-0.72
-0.71
-0.72
-0.71
-0.71
-0.71
-0.695
-0.7
-0.695
-0.715
-0.715
-0.73
-0.735
-0.76
-0.755
-0.735
-0.725
-0.72
-0.7
-0.705
-0.725
-0.72
-0.74
-0.74
-0.75
-0.755
-0.75
-0.75
-0.74
-0.725
-0.72
-0.735
-0.73
-0.73
-0.74
-0.74
-0.73
-0.735
-0.735
-0.735
-0.725
-0.725
-0.715
-0.72
-0.71
-0.72
-0.735
-0.74
-0.755
-0.74
-0.735
-0.75
-0.74
-0.74
-0.705
-0.715
-0.71
-0.71
-0.715
-0.72
-0.745
-0.745
-0.735
-0.72
-0.71
-0.695
-0.695
-0.7
-0.695
-0.705
-0.715
-0.715
-0.725
-0.73
-0.745
-0.745
-0.725
-0.715
-0.705
-0.715
-0.73
-0.73
-0.71
-0.72
-0.735
-0.73
-0.74
-0.725
-0.73
-0.715
-0.71
-0.71
-0.71
-0.715
-0.725
-0.725
-0.735
-0.735
-0.73
-0.725
-0.715
-0.715
-0.7
-0.695
-0.695
-0.71
-0.71
-0.695
-0.695
-0.72
-0.71
-0.705
-0.685
-0.67
-0.645
-0.64
-0.635
-0.63
-0.63
-0.65
-0.655
-0.645
-0.63
-0.635
-0.595
-0.6
-0.565
-0.54
-0.5
-0.49
-0.48
-0.47
-0.49
-0.525
-0.545
-0.565
-0.585
-0.605
-0.6
-0.58
-0.555
-0.53
-0.505
-0.505
-0.51
-0.54
-0.555
-0.615
-0.645
-0.655
-0.68
-0.695
-0.705
-0.73
-0.745
-0.77
-0.78
-0.8
-0.785
-0.775
-0.775
-0.75
-0.755
-0.755
-0.765
-0.765
-0.79
-0.805
-0.8
-0.82
-0.815
-0.815
-0.79
-0.775
-0.78
-0.77
-0.77
-0.775
-0.785
-0.79
-0.78
-0.795
-0.805
-0.79
-0.785
-0.795
-0.795
-0.795
-0.78
-0.74
-0.665
-0.54
-0.385
-0.22
-0.065
0.05
0.09
0.09
0.06
0.07
0.16
0.335
0.525
0.67
0.67
0.48
0.075
-0.435
-0.93
-1.35
-1.605
-1.765
-1.84
-1.885
-1.92
-1.99
-2.025
-2.045
-2.075
-2.075
-2.065
-2.065
-2.045
-2.025
-1.985
-1.93
-1.835
-1.695
-1.53
-1.385
-1.23
-1.09
-0.985
-0.92
-0.905
-0.91
-0.895
-0.895
-0.91
-0.91
-0.905
-0.89
-0.885
-0.87
-0.86
-0.855
-0.825
-0.835
-0.825
-0.845
-0.87
-0.86
-0.88
-0.885
-0.885
-0.875
-0.88
-0.88
-0.88
-0.885
-0.9
-0.91
-0.935
-0.95
-0.98
-0.98
-0.99
-0.99
-0.985
-1.0
-0.99
-1.015
-1.025
-1.035
-1.045
-1.065
-1.085
-1.08
-1.08
-1.085
-1.08
-1.08
-1.09
-1.08
-1.075
-1.085
-1.095
-1.105
-1.115
-1.12
-1.095
-1.09
-1.065
-1.06
-1.03
-1.01
-1.0
-0.995
-0.995
-0.975
-0.965
-0.96
-0.945
-0.915
-0.88
-0.865
-0.82
-0.81
-0.8
-0.8
-0.8
-0.775
-0.765
-0.765
-0.74
-0.72
-0.7
-0.69
-0.675
-0.67
-0.675
-0.675
-0.68
-0.675
-0.695
-0.695
-0.71
-0.7
-0.69
-0.665
-0.655
-0.635
-0.65
-0.645
-0.655
-0.665
-0.695
-0.695
-0.7
-0.7
-0.685
-0.68
-0.68
-0.68
-0.68
-0.69
-0.7
-0.71
-0.695
-0.715
-0.715
-0.72
-0.735
-0.745
-0.75
-0.74
-0.735
-0.77
-0.77
-0.785
-0.795
-0.79
-0.76
-0.74
-0.745
-0.735
-0.745
-0.75
-0.745
-0.77
-0.785
-0.79
-0.8
-0.79
-0.795
-0.785
-0.775
-0.805
-0.8
-0.785
-0.78
-0.785
-0.775
-0.765
-0.8
-0.83
-0.82
-0.805
-0.8
-0.77
-0.74
-0.725
-0.73
-0.72
-0.72
-0.74
-0.755
-0.765
-0.77
-0.765
-0.75
-0.71
-0.725
-0.775
-0.835
-0.905
-0.97
-1.015
-1.05
-1.07
-1.02
-0.955
-0.845
-0.755
-0.665
-0.565
-0.475
-0.38
-0.28
-0.13
0.05
0.275
0.49
0.665
0.82
0.905
0.95
0.96
0.965
0.99
1.0
0.98
0.92
0.86
0.79
0.72
0.645
0.535
0.415
0.275
0.09
-0.105
-0.3
-0.51
-0.715
-0.91
-1.04
-1.09
-1.045
-0.96
-0.87
-0.79
-0.72
-0.62
-0.515
-0.43
-0.355
-0.345
-0.35
-0.36
-0.4
-0.45
-0.535
-0.635
-0.785
-0.95
-1.115
-1.235
-1.31
-1.335
-1.325
-1.3
-1.29
-1.28
-1.28
-1.29
-1.3
-1.315
-1.36
-1.405
-1.43
-1.45
-1.455
-1.47
-1.455
-1.445
-1.46
-1.465
-1.47
-1.505
-1.54
-1.585
-1.6
-1.615
-1.62
-1.645
-1.67
-1.68
-1.7
-1.705
-1.75
-1.755
-1.79
-1.79
-1.78
-1.795
-1.825
-1.825
-1.835
-1.83
-1.81
-1.795
-1.83
-1.82
-1.855
-1.855
-1.825
-1.83
-1.795
-1.755
-1.74
-1.725
-1.72
-1.725
-1.705
-1.695
-1.685
-1.675
-1.69
-1.69
-1.655
-1.585
-1.545
-1.515
-1.515
-1.5
-1.505
-1.505
-1.495
-1.47
-1.45
-1.43
-1.43
-1.405
-1.37
-1.36
-1.315
-1.32
-1.31
-1.3
-1.27
-1.245
-1.23
-1.185
-1.18
-1.155
-1.12
-1.125
-1.1
-1.1
-1.07
-1.065
-1.04
-1.01
-1.005
-1.005
-0.99
-0.975
-0.98
-0.965
-0.93
-0.915
-0.9
-0.895
-0.9
-0.9
-0.92
-0.91
-0.87
-0.87
-0.865
-0.88
-0.87
-0.84
-0.84
-0.815
-0.81
-0.8
-0.8
-0.8
-0.81
-0.825
-0.815
-0.8
-0.8
-0.805
-0.795
-0.785
-0.795
-0.785
-0.775
-0.79
-0.805
-0.825
-0.815
-0.805
-0.795
-0.785
-0.78
-0.775
-0.78
-0.8
-0.815
-0.83
-0.825
-0.815
-0.785
-0.765
-0.755
-0.75
-0.74
-0.75
-0.755
-0.785
-0.79
-0.8
-0.78
-0.785
-0.79
-0.78
-0.76
-0.74
-0.73
-0.735
-0.745
-0.755
-0.75
-0.775
-0.77
-0.76
-0.735
-0.745
-0.755
-0.76
-0.77
-0.765
-0.755
-0.755
-0.78
-0.79
-0.805
-0.785
-0.77
-0.745
-0.735
-0.725
-0.735
-0.745
-0.755
-0.75
-0.76
-0.775
-0.78
-0.735
-0.73
-0.725
-0.73
-0.745
-0.765
-0.775
-0.775
-0.765
-0.745
-0.745
-0.745
-0.76
-0.76
-0.745
-0.725
-0.72
-0.72
-0.715
-0.745
-0.775
-0.79
-0.78
-0.765
-0.73
-0.7
-0.675
-0.66
-0.665
-0.69
-0.705
-0.73
-0.76
-0.76
-0.745
-0.735
-0.72
-0.7
-0.68
-0.665
-0.65
-0.65
-0.665
-0.68
-0.71
-0.725
-0.7
-0.685
-0.635
-0.59
-0.58
-0.585
-0.585
-0.58
-0.55
-0.52
-0.49
-0.48
-0.485
-0.505
-0.555
-0.575
-0.58
-0.58
-0.585
-0.57
-0.555
-0.55
-0.515
-0.495
-0.5
-0.52
-0.55
-0.6
-0.615
-0.645
-0.655
-0.675
-0.67
-0.685
-0.71
-0.74
-0.76
-0.76
-0.765
-0.77
-0.77
-0.75
-0.76
-0.745
-0.74
-0.76
-0.765
-0.78
-0.8
-0.835
-0.835
-0.825
-0.8
-0.775
-0.765
-0.765
-0.77
-0.78
-0.82
-0.82
-0.805
-0.78
-0.745
-0.715
-0.735
-0.76
-0.785
-0.81
-0.825
-0.815
-0.82
-0.745
-0.655
-0.505
-0.345
-0.145
0.05
0.17
0.175
0.135
0.115
0.155
0.285
0.465
0.625
0.695
0.6
0.3
-0.14
-0.625
-1.09
-1.435
-1.635
-1.74
-1.805
-1.89
-1.975
-2.035
-2.09
-2.105
-2.115
-2.11
-2.105
-2.1
-2.075
-2.055
-1.995
-1.925
-1.805
-1.64
-1.475
-1.32
-1.205
-1.11
-1.045
-1.02
-0.985
-0.965
-0.935
-0.92
-0.925
-0.92
-0.895
-0.885
-0.89
-0.88
-0.895
-0.89
-0.89
-0.875
-0.875
-0.875
-0.885
-0.89
-0.88
-0.87
-0.89
-0.915
-0.925
-0.935
-0.92
-0.91
-0.925
-0.93
-0.95
-0.965
-1.015
-0.995
-1.005
-1.0
-1.0
-1.015
-1.05
-1.065
-1.075
-1.085
-1.095
-1.08
-1.075
-1.08
-1.115
-1.15
-1.135
-1.135
-1.12
-1.13
-1.14
-1.135
-1.155
-1.135
-1.125
-1.13
-1.13
-1.115
-1.095
-1.085
-1.07
-1.065
-1.055
-1.055
-1.085
-1.08
-1.04
-1.0
-0.955
-0.93
-0.92
-0.92
-0.915
-0.89
-0.875
-0.85
-0.85
-0.835
-0.82
-0.8
-0.79
-0.77
-0.75
-0.74
-0.72
-0.715
-0.73
-0.75
-0.76
-0.765
-0.75
-0.735
-0.695
-0.675
-0.645
-0.65
-0.655
-0.68
-0.7
-0.72
-0.72
-0.725
-0.73
-0.71
-0.73
-0.715
-0.705
-0.71
-0.71
-0.725
-0.75
-0.75
-0.755
-0.77
-0.765
-0.755
-0.775
-0.775
-0.745
-0.745
-0.75
-0.75
-0.755
-0.765
-0.785
-0.795
-0.805
-0.815
-0.815
-0.81
-0.775
-0.785
-0.77
-0.8
-0.815
-0.805
-0.825
-0.83
-0.825
-0.815
-0.8
-0.78
-0.78
-0.775
-0.77
-0.79
-0.785
-0.82
-0.82
-0.805
-0.795
-0.765
-0.76
-0.755
-0.78
-0.81
-0.83
-0.865
-0.855
-0.84
-0.83
-0.825
-0.83
-0.825
-0.795
-0.79
-0.78
-0.795
-0.8
-0.795
-0.795
-0.79
-0.765
-0.745
-0.73
-0.72
-0.69
-0.665
-0.66
-0.66
-0.68
-0.68
-0.675
-0.65
-0.635
-0.59
-0.545
-0.57
-0.595
-0.63
-0.635
-0.645
-0.64
-0.655
-0.63
-0.625
-0.6
-0.605
-0.575
-0.56
-0.555
-0.565
-0.59
-0.6
-0.64
-0.68
-0.725
-0.77
-0.795
-0.795
-0.785
-0.78
-0.785
-0.82
-0.83
-0.86
-0.865
-0.86
-0.85
-0.86
-0.855
-0.865
-0.9
-0.91
-0.915
-0.9
-0.89
-0.875
-0.885
-0.91
-0.895
-0.92
-0.94
-0.94
-0.93
-0.915
-0.88
-0.865
-0.855
-0.87
-0.895
-0.895
-0.875
-0.9
-0.91
-0.91
-0.92
-0.915
-0.92
-0.92
-0.87
-0.78
-0.66
-0.52
-0.35
-0.21
-0.105
-0.095
-0.105
-0.125
-0.09
0.005
0.18
0.415
0.595
0.68
0.585
0.285
-0.18
-0.72
-1.23
-1.605
-1.83
-1.94
-2.005
-2.055
-2.1
-2.165
-2.195
-2.22
-2.235
-2.215
-2.23
-2.235
-2.215
-2.18
-2.105
-2.045
-1.93
-1.795
-1.635
-1.49
-1.375
-1.29
-1.22
-1.155
-1.115
-1.07
-1.025
-0.99
-0.945
-0.935
-0.94
-0.955
-0.96
-0.99
-0.99
-0.985
-0.975
-0.925
-0.89
-0.885
-0.86
-0.86
-0.9
-0.955
-1.025
-1.075
-1.07
-1.0
-0.935
-0.895
-0.89
-0.95
-1.0
-1.03
-1.03
-1.05
-1.075
-1.125
-1.16
-1.16
-1.14
-1.085
-1.045
-1.02
-1.04
-1.08
-1.15
-1.215
-1.24
-1.225
-1.16
-1.105
-1.12
-1.125
-1.15
-1.17
-1.19
-1.225
-1.205
-1.205
-1.205
-1.215
-1.195
-1.16
-1.115
-1.085
-1.06
-1.06
-1.055
-1.05
-1.05
-1.04
-1.005
-0.98
-0.92
-0.89
-0.86
-0.85
-0.88
-0.905
-0.915
-0.925
-0.905
-0.885
-0.905
-0.885
-0.85
-0.84
-0.82
-0.815
-0.8
-0.83
-0.84
-0.855
-0.84
-0.83
-0.815
-0.82
-0.82
-0.83
-0.845
-0.865
-0.885
-0.91
-0.945
-0.93
-0.925
-0.915
-0.905
-0.885
-0.89
-0.875
-0.9
-0.92
-0.93
-0.94
-0.945
-0.945
-0.95
-0.945
-0.925
-0.94
-0.95
-0.96
-0.96
-0.955
-0.945
-0.94
-0.96
-0.965
-1.01
-1.01
-1.02
-1.035
-1.02
-0.995
-0.96
-0.96
-0.965
-0.975
-1.015
-1.045
-1.085
-1.105
-1.095
-1.075
-1.055
-1.05
-1.02
-1.0
-1.005
-1.035
-1.06
-1.075
-1.08
-1.085
-1.075
-1.055
-1.03
-1.01
-0.995
-1.015
-1.02
-1.015
-0.99
-1.0
-1.025
-1.02
-1.0
-1.0
-0.985
-0.965
-0.96
-0.935
-0.895
-0.875
-0.84
-0.83
-0.865
-0.885
-0.905
-0.915
-0.905
-0.87
-0.845
-0.825
-0.83
-0.865
-0.91
-0.925
-0.93
-0.87
-0.815
-0.79
-0.79
-0.82
-0.875
-0.94
-0.985
-1.025
-1.035
-1.05
-1.05
-1.05
-1.07
-1.075
-1.115
-1.11
-1.12
-1.115
-1.105
-1.125
-1.145
-1.135
-1.145
-1.125
-1.11
-1.1
-1.085
-1.08
-1.08
-1.135
-1.18
-1.2
-1.185
-1.14
-1.12
-1.095
-1.115
-1.135
-1.19
-1.205
-1.19
-1.165
-1.145
-1.14
-1.16
-1.185
-1.175
-1.16
-1.105
-1.035
-0.94
-0.8
-0.65
-0.525
-0.385
-0.295
-0.25
-0.245
-0.25
-0.225
-0.13
0.015
0.185
0.335
0.35
0.155
-0.3
-0.885
-1.425
-1.825
-2.07
-2.19
-2.275
-2.375
-2.43
-2.465
-2.455
-2.42
-2.395
-2.385
-2.375
-2.43
-2.44
-2.445
-2.415
-2.38
-2.335
-2.235
-2.065
-1.84
-1.6
-1.45
-1.36
-1.325
-1.31
-1.285
-1.26
-1.25
-1.25
-1.22
-1.215
-1.185
-1.185
-1.16
-1.145
-1.175
-1.175
-1.185
-1.165
-1.16
-1.145
-1.145
-1.17
-1.195
-1.21
-1.235
-1.225
-1.22
-1.22
-1.215
-1.215
-1.225
-1.245
-1.25
-1.24
-1.255
-1.265
-1.295
-1.3
-1.31
-1.305
-1.32
-1.345
-1.385
-1.405
-1.38
-1.375
-1.355
-1.355
-1.37
-1.385
-1.41
-1.43
-1.44
-1.445
-1.445
-1.445
-1.43
-1.415
-1.395
-1.375
-1.38
-1.37
-1.37
-1.365
-1.385
-1.375
-1.365
-1.345
-1.34
-1.3
-1.265
-1.215
-1.185
-1.175
-1.165
-1.17
-1.195
-1.19
-1.19
-1.18
-1.125
-1.065
-1.03
-0.98
-0.975
-0.97
-0.98
-1.0
-0.995
-1.0
-1.04
-1.065
-1.065
-1.035
-1.0
-0.96
-0.975
-0.985
-1.015
-1.015
-1.005
-1.0
-1.025
-1.04
-1.02
-1.0
-0.985
-0.97
-0.99
-0.99
-1.005
-1.045
-1.04
-1.04
-1.045
-1.03
-1.035
-1.0
-0.98
-0.955
-0.975
-0.985
-0.985
-1.005
-1.025
-0.995
-1.03
-1.04
-1.035
-1.01
-0.96
-0.935
-0.955
-1.005
-1.05
-1.065
-1.03
-0.99
-0.96
-0.94
-0.955
-0.965
