Lead II
0.42
0.48
0.58
0.675
0.755
0.825
0.895
0.99
1.105
1.21
1.29
1.31
1.29
1.285
1.275
1.27
1.225
1.18
1.085
0.935
0.83
0.72
0.59
0.44
0.3
0.2
0.155
0.145
0.145
0.135
0.1
0.06
0.075
0.11
0.17
0.25
0.31
0.355
0.325
0.24
0.055
-0.155
-0.335
-0.395
-0.415
-0.42
-0.44
-0.455
-0.5
-0.525
-0.54
-0.55
-0.545
-0.57
-0.6
-0.625
-0.62
-0.61
-0.62
-0.635
-0.67
-0.685
-0.685
-0.66
-0.67
-0.665
-0.685
-0.705
-0.695
-0.685
-0.695
-0.695
-0.71
-0.73
-0.715
-0.69
-0.695
-0.7
-0.71
-0.725
-0.705
-0.685
-0.68
-0.685
-0.685
-0.7
-0.695
-0.69
-0.68
-0.68
-0.695
-0.69
-0.685
-0.655
-0.645
-0.645
-0.64
-0.645
-0.645
-0.605
-0.6
-0.59
-0.585
-0.565
-0.555
-0.515
-0.505
-0.51
-0.51
-0.495
-0.475
-0.44
-0.415
-0.42
-0.415
-0.395
-0.385
-0.35
-0.35
-0.365
-0.355
-0.345
-0.34
-0.33
-0.305
-0.3
-0.31
-0.305
-0.29
-0.255
-0.265
-0.275
-0.29
-0.285
-0.27
-0.245
-0.25
-0.265
-0.285
-0.265
-0.265
-0.25
-0.24
-0.255
-0.27
-0.265
-0.235
-0.22
-0.235
-0.255
-0.26
-0.26
-0.23
-0.215
-0.215
-0.235
-0.235
-0.25
-0.26
-0.23
-0.235
-0.23
-0.24
-0.235
-0.225
-0.22
-0.23
-0.255
-0.27
-0.245
-0.235
-0.205
-0.215
-0.24
-0.255
-0.26
-0.245
-0.235
-0.24
-0.255
-0.265
-0.265
-0.245
-0.225
-0.245
-0.265
-0.265
-0.27
-0.245
-0.245
-0.245
-0.25
-0.25
-0.245
-0.235
-0.23
-0.225
-0.225
-0.25
-0.255
-0.255
-0.235
-0.23
-0.24
-0.26
-0.265
-0.25
-0.225
-0.23
-0.24
-0.25
-0.265
-0.255
-0.245
-0.25
-0.275
-0.27
-0.27
-0.265
-0.245
-0.255
-0.27
-0.28
-0.285
-0.26
-0.245
-0.26
-0.265
-0.28
-0.265
-0.245
-0.23
-0.235
-0.255
-0.265
-0.27
-0.25
-0.23
-0.23
-0.255
-0.26
-0.26
-0.235
-0.225
-0.235
-0.25
-0.275
-0.27
-0.245
-0.225
-0.23
-0.225
-0.245
-0.245
-0.225
-0.215
-0.22
-0.235
-0.245
-0.25
-0.235
-0.205
-0.22
-0.245
-0.285
-0.28
-0.265
-0.26
-0.25
-0.26
-0.27
-0.28
-0.285
-0.255
-0.24
-0.255
-0.255
-0.275
-0.25
-0.235
-0.235
-0.25
-0.26
-0.25
-0.255
-0.22
-0.225
-0.215
-0.24
-0.235
-0.23
-0.21
-0.215
-0.235
-0.245
-0.245
-0.235
-0.2
-0.205
-0.225
-0.225
-0.225
-0.22
-0.2
-0.215
-0.24
-0.24
-0.235
-0.22
-0.195
-0.215
-0.22
-0.225
-0.22
-0.205
-0.2
-0.205
-0.215
-0.22
-0.24
-0.23
-0.21
-0.215
-0.23
-0.245
-0.24
-0.24
-0.21
-0.21
-0.225
-0.24
-0.235
-0.205
-0.195
-0.2
-0.22
-0.22
-0.215
-0.205
-0.19
-0.195
-0.2
-0.21
-0.21
-0.195
-0.185
-0.19
-0.195
-0.195
-0.185
-0.18
-0.165
-0.18
-0.2
-0.215
-0.195
-0.19
-0.17
-0.165
-0.19
-0.21
-0.2
-0.185
-0.175
-0.175
-0.195
-0.22
-0.23
-0.21
-0.195
-0.18
-0.195
-0.2
-0.205
-0.19
-0.155
-0.155
-0.165
-0.16
-0.165
-0.155
-0.125
-0.105
-0.07
-0.035
0.04
0.155
0.275
0.405
0.565
0.735
0.905
1.095
1.28
1.415
1.43
1.31
1.09
0.845
0.59
0.33
0.055
-0.15
-0.25
-0.25
-0.19
-0.14
-0.14
-0.165
-0.19
-0.205
-0.195
-0.23
-0.26
-0.275
-0.285
-0.26
-0.245
-0.255
-0.285
-0.3
-0.31
-0.3
-0.28
-0.285
-0.295
-0.295
-0.285
-0.295
-0.27
-0.275
-0.28
-0.305
-0.29
-0.295
-0.275
-0.285
-0.29
-0.305
-0.285
-0.28
-0.26
-0.28
-0.29
-0.31
-0.315
-0.29
-0.275
-0.3
-0.305
-0.325
-0.31
-0.305
-0.26
-0.255
-0.265
-0.27
-0.25
-0.245
-0.23
-0.225
-0.245
-0.27
-0.265
-0.255
-0.245
-0.255
-0.26
-0.26
-0.25
-0.22
-0.195
-0.22
-0.23
-0.23
-0.215
-0.205
-0.195
-0.2
-0.22
-0.215
-0.22
-0.185
-0.16
-0.15
-0.165
-0.16
-0.155
-0.155
-0.14
-0.135
-0.125
-0.125
-0.14
-0.11
-0.08
-0.065
-0.085
-0.095
-0.085
-0.06
-0.04
-0.03
-0.03
-0.045
-0.035
0.0
0.015
0.04
0.025
0.015
0.02
0.035
0.04
0.03
0.01
0.0
-0.005
-0.01
-0.005
-0.015
-0.03
-0.06
-0.08
-0.085
-0.065
-0.05
-0.065
-0.08
-0.095
-0.1
-0.115
-0.135
-0.145
-0.145
-0.15
-0.135
-0.13
-0.13
-0.14
-0.17
-0.165
-0.15
-0.13
-0.135
-0.155
-0.185
-0.19
-0.16
-0.145
-0.16
-0.185
-0.195
-0.19
-0.175
-0.15
-0.165
-0.19
-0.215
-0.195
-0.18
-0.165
-0.17
-0.165
-0.19
-0.18
-0.16
-0.15
-0.15
-0.16
-0.175
-0.17
-0.16
-0.155
-0.155
-0.145
-0.165
-0.165
-0.17
-0.165
-0.165
-0.175
-0.2
-0.205
-0.185
-0.17
-0.165
-0.17
-0.185
-0.195
-0.185
-0.165
-0.17
-0.19
-0.205
-0.215
-0.215
-0.185
-0.195
-0.225
-0.23
-0.245
-0.23
-0.205
-0.215
-0.225
-0.24
-0.235
-0.24
-0.21
-0.205
-0.21
-0.235
-0.23
-0.215
-0.215
-0.225
-0.24
-0.24
-0.22
-0.21
-0.215
-0.21
-0.21
-0.21
-0.2
-0.195
-0.165
-0.175
-0.19
-0.21
-0.2
-0.2
-0.2
-0.205
-0.215
-0.225
-0.225
-0.205
-0.195
-0.195
-0.2
-0.22
-0.25
-0.215
-0.215
-0.225
-0.22
-0.235
-0.23
-0.225
-0.245
-0.25
-0.245
-0.26
-0.27
-0.24
-0.225
-0.23
-0.255
-0.255
-0.24
-0.22
-0.215
-0.21
-0.225
-0.23
-0.225
-0.225
-0.21
-0.23
-0.25
-0.235
-0.23
-0.215
-0.19
-0.19
-0.205
-0.22
-0.215
-0.19
-0.18
-0.185
-0.205
-0.23
-0.215
-0.185
-0.165
-0.18
-0.185
-0.21
-0.205
-0.205
-0.19
-0.195
-0.225
-0.22
-0.22
-0.205
-0.18
-0.185
-0.205
-0.225
-0.23
-0.225
-0.2
-0.195
-0.205
-0.235
-0.23
-0.225
-0.2
-0.195
-0.2
-0.22
-0.225
-0.225
-0.205
-0.195
-0.225
-0.23
-0.215
-0.2
-0.19
-0.205
-0.205
-0.21
-0.21
-0.2
-0.185
-0.18
-0.2
-0.21
-0.205
-0.21
-0.195
-0.19
-0.195
-0.21
-0.21
-0.195
-0.175
-0.185
-0.21
-0.215
-0.22
-0.21
-0.175
-0.175
-0.185
-0.2
-0.215
-0.205
-0.195
-0.19
-0.21
-0.23
-0.21
-0.2
-0.18
-0.175
-0.19
-0.215
-0.205
-0.195
-0.19
-0.18
-0.19
-0.2
-0.205
-0.21
-0.19
-0.19
-0.2
-0.22
-0.22
-0.19
-0.19
-0.18
-0.195
-0.205
-0.195
-0.195
-0.185
-0.18
-0.2
-0.215
-0.195
-0.185
-0.185
-0.185
-0.2
-0.2
-0.19
-0.165
-0.14
-0.16
-0.155
-0.165
-0.165
-0.17
-0.155
-0.165
-0.16
-0.17
-0.17
-0.155
-0.145
-0.155
-0.165
-0.18
-0.165
-0.16
-0.155
-0.155
-0.17
-0.185
-0.17
-0.16
-0.165
-0.16
-0.165
-0.16
-0.16
-0.155
-0.145
-0.16
-0.18
-0.195
-0.2
-0.175
-0.165
-0.165
-0.185
-0.19
-0.185
-0.16
-0.15
-0.15
-0.17
-0.2
-0.195
-0.155
-0.135
-0.145
-0.15
-0.165
-0.165
-0.14
-0.125
-0.12
-0.14
-0.145
-0.15
-0.13
-0.12
-0.11
-0.125
-0.15
-0.145
-0.135
-0.125
-0.105
-0.075
-0.025
0.06
0.175
0.305
0.425
0.57
0.735
0.915
1.1
1.305
1.455
1.505
1.42
1.235
0.985
0.725
0.455
0.155
-0.075
-0.23
-0.265
-0.225
-0.18
-0.145
-0.145
-0.135
-0.15
-0.155
-0.17
-0.195
-0.2
-0.215
-0.215
-0.195
-0.195
-0.205
-0.22
-0.215
-0.22
-0.23
-0.23
-0.24
-0.285
-0.28
-0.26
-0.245
-0.255
-0.265
-0.275
-0.26
-0.265
-0.255
-0.265
-0.295
-0.3
-0.285
-0.28
-0.27
-0.265
-0.285
-0.315
-0.295
-0.27
-0.255
-0.25
-0.275
-0.3
-0.29
-0.275
-0.255
-0.245
-0.27
-0.29
-0.28
-0.26
-0.265
-0.255
-0.265
-0.275
-0.28
-0.265
-0.25
-0.255
-0.24
-0.24
-0.225
-0.205
-0.19
-0.195
-0.2
-0.195
-0.16
-0.15
-0.135
-0.15
-0.15
-0.15
-0.15
-0.13
-0.115
-0.12
-0.135
-0.145
-0.15
-0.13
-0.12
-0.13
-0.135
-0.13
-0.115
-0.1
-0.09
-0.095
-0.11
-0.125
-0.13
-0.12
-0.08
-0.08
-0.085
-0.08
-0.075
-0.06
-0.065
-0.075
-0.085
-0.085
-0.075
-0.06
-0.04
-0.045
-0.06
-0.085
-0.085
-0.075
-0.05
-0.05
-0.09
-0.11
-0.11
-0.115
-0.115
-0.12
-0.135
-0.16
-0.17
-0.135
-0.135
-0.135
-0.17
-0.19
-0.185
-0.185
-0.165
-0.18
-0.2
-0.21
-0.215
-0.19
-0.17
-0.19
-0.2
-0.215
-0.205
-0.19
-0.175
-0.18
-0.19
-0.205
-0.21
-0.185
-0.18
-0.17
-0.185
-0.19
-0.185
-0.17
-0.165
-0.16
-0.165
-0.175
-0.175
-0.16
-0.14
-0.135
-0.145
-0.16
-0.17
-0.175
-0.18
-0.17
-0.185
-0.205
-0.175
-0.18
-0.175
-0.18
-0.18
-0.2
-0.205
-0.2
-0.165
-0.19
-0.215
-0.22
-0.22
-0.215
-0.205
-0.21
-0.225
-0.225
-0.21
-0.21
-0.185
-0.185
-0.185
-0.21
-0.22
-0.225
-0.21
-0.225
-0.23
-0.23
-0.2
-0.19
-0.18
-0.185
-0.215
-0.22
-0.205
-0.18
-0.175
-0.185
-0.205
-0.215
-0.185
-0.185
-0.17
-0.17
-0.195
-0.205
-0.2
-0.2
-0.18
-0.195
-0.2
-0.21
-0.185
-0.175
-0.165
-0.155
-0.165
-0.165
-0.18
-0.195
-0.18
-0.16
-0.125
-0.07
-0.02
0.065
0.19
0.33
0.495
0.705
0.935
1.17
1.375
1.49
1.445
1.265
1.015
0.74
0.455
0.105
-0.175
-0.365
-0.39
-0.31
-0.24
-0.21
-0.205
-0.2
-0.185
-0.195
-0.195
-0.21
-0.23
-0.255
-0.26
-0.255
-0.245
-0.25
-0.255
-0.285
-0.28
-0.28
-0.255
-0.26
-0.275
-0.285
-0.28
-0.28
-0.27
-0.26
-0.285
-0.28
-0.275
-0.275
-0.26
-0.27
-0.26
-0.27
-0.275
-0.26
-0.245
-0.24
-0.245
-0.255
-0.25
-0.25
-0.23
-0.23
-0.235
-0.25
-0.245
-0.225
-0.21
-0.195
-0.22
-0.235
-0.23
-0.22
-0.21
-0.19
-0.195
-0.215
-0.205
-0.19
-0.17
-0.16
-0.18
-0.195
-0.19
-0.17
-0.13
-0.135
-0.145
-0.155
-0.16
-0.13
-0.105
-0.095
-0.09
-0.11
-0.095
-0.1
-0.08
-0.07
-0.08
-0.09
-0.06
-0.045
-0.03
-0.03
-0.02
-0.025
-0.01
-0.02
0.0
-0.01
-0.015
-0.03
-0.03
-0.015
0.0
-0.01
-0.025
-0.045
-0.05
-0.04
-0.035
-0.05
-0.065
-0.095
-0.105
-0.1
-0.095
-0.11
-0.13
-0.145
-0.15
-0.155
-0.145
-0.155
-0.17
-0.185
-0.19
-0.18
-0.19
-0.18
-0.18
-0.195
-0.19
-0.185
-0.195
-0.2
-0.195
-0.205
-0.19
-0.175
-0.16
-0.185
-0.19
-0.2
-0.2
-0.175
-0.15
-0.145
-0.165
-0.19
-0.175
-0.165
-0.15
-0.15
-0.15
-0.17
-0.165
-0.155
-0.15
-0.16
-0.175
-0.185
-0.18
-0.175
-0.17
-0.19
-0.195
-0.19
-0.185
-0.175
-0.17
-0.18
-0.19
-0.21
-0.2
-0.18
-0.18
-0.19
-0.215
-0.23
-0.215
-0.21
-0.19
-0.21
-0.215
-0.245
-0.23
-0.2
-0.18
-0.185
-0.185
-0.195
-0.205
-0.18
-0.18
-0.19
-0.19
-0.225
-0.2
-0.195
-0.185
-0.175
-0.185
-0.2
-0.185
-0.18
-0.165
-0.16
-0.185
-0.2
-0.195
-0.195
-0.17
-0.18
-0.19
-0.185
-0.2
-0.185
-0.18
-0.18
-0.18
-0.21
-0.215
-0.185
-0.19
-0.185
-0.21
-0.22
-0.2
-0.195
-0.19
-0.205
-0.215
-0.215
-0.215
-0.195
-0.18
-0.18
-0.195
-0.215
-0.195
-0.185
-0.175
-0.19
-0.195
-0.21
-0.195
-0.185
-0.17
-0.18
-0.19
-0.21
-0.195
-0.185
-0.17
-0.19
-0.19
-0.21
-0.205
-0.185
-0.165
-0.16
-0.185
-0.185
-0.18
-0.16
-0.155
-0.145
-0.16
-0.165
-0.17
-0.165
-0.14
-0.125
-0.1
-0.055
0.03
0.155
0.285
0.43
0.595
0.805
1.03
1.255
1.43
1.495
1.41
1.185
0.9
0.595
0.31
0.02
-0.19
-0.28
-0.25
-0.17
-0.1
-0.09
-0.135
-0.18
-0.2
-0.205
-0.21
-0.215
-0.245
-0.275
-0.265
-0.255
-0.27
-0.285
-0.28
-0.285
-0.295
-0.275
-0.27
-0.27
-0.285
-0.31
-0.31
-0.295
-0.275
-0.29
-0.3
-0.315
-0.31
-0.285
-0.27
-0.275
-0.275
-0.285
-0.28
-0.26
-0.245
-0.245
-0.25
-0.24
-0.265
-0.26
-0.255
-0.26
-0.26
-0.26
-0.245
-0.24
-0.235
-0.23
-0.23
-0.235
-0.225
-0.215
-0.19
-0.19
-0.2
-0.225
-0.2
-0.185
-0.165
-0.16
-0.155
-0.155
-0.13
-0.1
-0.095
-0.095
-0.105
-0.12
-0.105
-0.085
-0.06
-0.055
-0.065
-0.09
-0.08
-0.065
-0.04
-0.035
-0.05
-0.05
-0.04
-0.02
0.0
-0.02
-0.02
-0.03
-0.03
-0.035
-0.03
-0.025
-0.035
-0.045
-0.045
-0.035
-0.025
-0.035
-0.065
-0.07
-0.085
-0.085
-0.08
-0.095
-0.12
-0.135
-0.135
-0.12
-0.115
-0.13
-0.15
-0.17
-0.17
-0.18
-0.155
-0.145
-0.155
-0.18
-0.17
-0.175
-0.155
-0.16
-0.185
-0.205
-0.18
-0.16
-0.145
-0.155
-0.16
-0.175
-0.175
-0.165
-0.15
-0.155
-0.16
-0.165
-0.155
-0.14
-0.125
-0.135
-0.14
-0.165
-0.165
-0.155
-0.14
-0.165
-0.175
-0.195
-0.18
-0.17
-0.15
-0.16
-0.165
-0.175
-0.18
-0.175
-0.155
-0.155
-0.165
-0.19
-0.17
-0.165
-0.155
-0.165
-0.175
-0.19
-0.185
-0.17
-0.165
-0.17
-0.195
-0.205
-0.205
-0.185
-0.16
-0.175
-0.19
-0.19
-0.19
-0.2
-0.175
-0.18
-0.2
-0.2
-0.18
-0.165
-0.16
-0.17
-0.17
-0.19
-0.17
-0.17
-0.175
-0.185
-0.205
-0.205
-0.2
-0.185
-0.185
-0.18
-0.19
-0.225
-0.225
-0.22
-0.19
-0.185
-0.205
-0.215
-0.21
-0.21
-0.19
-0.195
-0.19
-0.225
-0.205
-0.215
-0.195
-0.195
-0.205
-0.22
-0.205
-0.19
-0.18
-0.175
-0.18
-0.19
-0.195
-0.2
-0.195
-0.205
-0.215
-0.225
-0.195
-0.195
-0.175
-0.195
-0.195
-0.21
-0.22
-0.205
-0.19
-0.19
-0.205
-0.21
-0.2
-0.175
-0.17
-0.17
-0.205
-0.195
-0.2
-0.19
-0.165
-0.165
-0.18
-0.19
-0.205
-0.19
-0.185
-0.185
-0.205
-0.22
-0.2
-0.18
-0.19
-0.19
-0.185
-0.195
-0.185
-0.18
-0.155
-0.16
-0.17
-0.185
-0.185
-0.16
-0.155
-0.165
-0.18
-0.19
-0.195
-0.18
-0.165
-0.165
-0.15
-0.16
-0.15
-0.15
-0.13
-0.16
-0.175
-0.165
-0.15
-0.135
-0.08
-0.015
0.06
0.135
0.26
0.435
0.62
0.815
1.005
1.21
1.39
1.51
1.485
1.29
0.995
0.645
0.34
0.06
-0.125
-0.23
-0.24
-0.195
-0.145
-0.125
-0.12
-0.16
-0.165
-0.19
-0.21
-0.22
-0.23
-0.23
-0.25
-0.26
-0.27
-0.265
-0.255
-0.275
-0.265
-0.29
-0.285
-0.28
-0.26
-0.27
-0.28
-0.295
-0.295
-0.27
-0.26
-0.265
-0.28
-0.265
-0.26
-0.235
-0.225
-0.24
-0.27
-0.26
-0.265
-0.245
-0.23
-0.225
-0.24
-0.25
-0.255
-0.25
-0.225
-0.215
-0.225
-0.25
-0.255
-0.235
-0.22
-0.215
-0.22
-0.23
-0.21
-0.2
-0.195
-0.19
-0.205
-0.21
-0.195
-0.18
-0.165
-0.16
-0.16
-0.17
-0.145
-0.13
-0.1
-0.095
-0.085
-0.085
-0.075
-0.065
-0.05
-0.065
-0.08
-0.095
-0.08
-0.075
-0.04
-0.025
-0.04
-0.045
-0.03
-0.03
0.005
-0.01
-0.025
-0.04
-0.03
-0.015
-0.005
-0.04
-0.03
-0.03
-0.03
-0.035
-0.04
-0.05
-0.08
-0.1
-0.095
-0.08
-0.095
-0.1
-0.12
-0.145
-0.145
-0.15
-0.135
-0.14
-0.165
-0.185
-0.175
-0.17
-0.145
-0.15
-0.185
-0.2
-0.2
-0.18
-0.17
-0.2
-0.21
-0.205
-0.205
-0.175
-0.16
-0.16
-0.17
-0.19
-0.185
-0.17
-0.165
-0.17
-0.18
-0.175
-0.17
-0.16
-0.145
-0.15
-0.17
-0.185
-0.19
-0.165
-0.155
-0.165
-0.165
-0.18
-0.19
-0.165
-0.14
-0.14
-0.145
-0.16
-0.16
-0.15
-0.135
-0.14
-0.165
-0.175
-0.165
-0.15
-0.145
-0.165
-0.165
-0.175
-0.17
-0.165
-0.16
-0.17
-0.165
-0.18
-0.205
-0.195
-0.185
-0.16
-0.185
-0.2
-0.2
-0.185
-0.18
-0.195
-0.22
-0.225
-0.205
-0.18
-0.18
-0.185
-0.185
-0.195
-0.21
-0.195
-0.185
-0.205
-0.2
-0.21
-0.195
-0.175
-0.16
-0.19
-0.215
-0.215
-0.2
-0.185
-0.175
-0.17
-0.19
-0.2
-0.23
-0.19
-0.175
-0.165
-0.185
-0.2
-0.2
-0.2
-0.18
-0.19
-0.195
-0.2
-0.2
-0.2
-0.17
-0.175
-0.165
-0.18
-0.185
-0.175
-0.17
-0.165
-0.185
-0.195
-0.18
-0.16
-0.15
-0.145
-0.12
-0.085
-0.01
0.07
0.19
0.32
0.455
0.65
0.86
1.095
1.335
1.47
1.505
1.385
1.155
0.85
0.55
0.215
-0.115
-0.325
-0.355
-0.29
-0.22
-0.175
-0.17
-0.185
-0.185
-0.19
-0.19
-0.23
-0.26
-0.285
-0.29
-0.27
-0.26
-0.27
-0.28
-0.29
-0.29
-0.29
-0.275
-0.285
-0.285
-0.285
-0.28
-0.26
-0.27
-0.26
-0.28
-0.295
-0.3
-0.29
-0.27
-0.265
-0.275
-0.28
-0.28
-0.26
-0.26
-0.26
-0.265
-0.27
-0.27
-0.275
-0.235
-0.245
-0.255
-0.27
-0.26
-0.25
-0.235
-0.245
-0.25
-0.24
-0.23
-0.215
-0.205
-0.205
-0.215
-0.22
-0.205
-0.19
-0.2
-0.19
-0.2
-0.21
-0.185
-0.165
-0.155
-0.155
-0.155
-0.145
-0.13
-0.13
-0.12
-0.12
-0.13
-0.12
-0.12
-0.105
-0.095
-0.1
-0.095
-0.095
-0.085
-0.07
-0.035
-0.05
-0.07
-0.08
-0.08
-0.055
-0.04
-0.04
-0.045
-0.07
-0.055
-0.04
-0.035
-0.05
-0.055
-0.07
-0.075
-0.09
-0.09
-0.105
-0.125
-0.135
-0.145
-0.15
-0.16
-0.17
-0.17
-0.18
-0.185
-0.18
-0.18
-0.175
-0.195
-0.185
-0.19
-0.2
-0.18
-0.195
-0.205
-0.235
-0.215
-0.215
-0.205
-0.19
-0.205
-0.195
-0.195
-0.16
-0.145
-0.16
-0.195
-0.205
-0.2
-0.185
-0.16
-0.165
-0.165
-0.165
-0.16
-0.16
-0.145
-0.16
-0.19
-0.19
-0.195
-0.17
-0.185
-0.185
-0.19
-0.215
-0.22
-0.205
-0.21
-0.205
-0.215
-0.2
-0.195
-0.19
-0.195
-0.2
-0.22
-0.23
-0.22
-0.19
-0.165
-0.19
-0.185
-0.22
-0.21
-0.205
-0.21
-0.22
-0.215
-0.23
-0.225
-0.21
-0.19
-0.18
-0.195
-0.21
-0.205
-0.195
-0.18
-0.195
-0.205
-0.225
-0.2
-0.19
-0.175
-0.18
-0.195
-0.205
-0.2
-0.195
-0.195
-0.21
-0.225
-0.235
-0.23
-0.225
-0.225
-0.23
-0.245
-0.245
-0.245
-0.24
-0.225
-0.235
-0.235
-0.24
-0.25
-0.24
-0.22
-0.22
-0.24
-0.245
-0.235
-0.22
-0.205
-0.21
-0.225
-0.24
-0.24
-0.22
-0.205
-0.21
-0.22
-0.24
-0.24
-0.235
-0.205
-0.19
-0.19
-0.2
-0.21
-0.2
-0.175
-0.18
-0.185
-0.19
-0.205
-0.205
-0.195
-0.205
-0.205
-0.195
-0.145
-0.08
-0.015
0.085
0.175
0.305
0.49
0.705
0.915
1.12
1.29
1.405
1.405
1.27
0.985
0.65
0.325
0.025
-0.225
-0.365
-0.35
-0.295
-0.26
-0.235
-0.215
-0.205
-0.21
-0.23
-0.25
-0.29
-0.285
-0.28
-0.275
-0.285
-0.3
-0.32
-0.3
-0.28
-0.275
-0.29
-0.32
-0.32
-0.325
-0.31
-0.315
-0.33
-0.325
-0.34
-0.32
-0.3
-0.315
-0.32
-0.34
-0.355
-0.34
-0.335
-0.335
-0.335
-0.345
-0.35
-0.34
-0.33
-0.32
-0.33
-0.34
-0.335
-0.33
-0.31
-0.29
-0.3
-0.31
-0.315
-0.305
-0.28
-0.275
-0.27
-0.28
-0.285
-0.295
-0.27
-0.255
-0.245
-0.25
-0.235
-0.24
-0.23
-0.21
-0.21
-0.225
-0.21
-0.2
-0.18
-0.165
-0.17
-0.18
-0.18
-0.165
-0.14
-0.135
-0.15
-0.145
-0.16
-0.155
-0.15
-0.125
-0.13
-0.125
-0.135
-0.12
-0.115
-0.095
-0.105
-0.12
-0.11
-0.11
-0.1
-0.09
-0.1
-0.105
-0.125
-0.12
-0.11
-0.105
-0.13
-0.165
-0.175
-0.175
-0.15
-0.155
-0.175
-0.2
-0.21
-0.235
-0.2
-0.19
-0.21
-0.23
-0.25
-0.255
-0.26
-0.225
-0.23
-0.24
-0.26
-0.245
-0.25
-0.24
-0.25
-0.26
-0.27
-0.26
-0.24
-0.23
-0.22
-0.23
-0.225
-0.23
-0.23
-0.235
-0.26
-0.285
-0.28
-0.29
-0.265
-0.25
-0.26
-0.275
-0.285
-0.285
-0.27
-0.255
-0.28
-0.265
-0.275
-0.27
-0.26
-0.255
-0.245
-0.265
-0.29
-0.275
-0.26
-0.25
-0.245
-0.25
-0.265
-0.265
-0.265
-0.25
-0.265
-0.27
-0.265
-0.275
-0.255
-0.255
-0.245
-0.265
-0.295
-0.28
-0.275
-0.27
-0.27
-0.275
-0.29
-0.29
-0.27
-0.27
-0.265
-0.28
-0.31
-0.315
-0.305
-0.285
-0.28
-0.305
-0.31
-0.295
-0.29
-0.27
-0.29
-0.305
-0.31
-0.315
-0.305
-0.295
-0.29
-0.305
-0.31
-0.31
-0.3
-0.3
-0.31
-0.345
-0.32
-0.31
-0.3
-0.285
-0.3
-0.32
-0.335
-0.32
-0.295
-0.275
-0.3
-0.315
-0.335
-0.32
-0.3
-0.295
-0.305
-0.32
-0.335
-0.315
-0.31
-0.3
-0.3
-0.305
-0.295
-0.305
-0.295
-0.29
-0.29
-0.305
-0.3
-0.305
-0.3
-0.29
-0.29
-0.3
-0.305
-0.305
-0.295
-0.285
-0.295
-0.31
-0.31
-0.305
-0.295
-0.285
-0.29
-0.305
-0.31
-0.3
-0.285
-0.28
-0.295
-0.315
-0.315
-0.31
-0.3
-0.31
-0.32
-0.33
-0.335
-0.325
-0.315
-0.295
-0.29
-0.305
-0.31
-0.3
-0.295
-0.275
-0.28
-0.295
-0.295
-0.315
-0.3
-0.29
-0.29
-0.3
-0.305
-0.285
-0.27
-0.26
-0.27
-0.29
-0.285
-0.28
-0.275
-0.265
-0.265
-0.285
-0.275
-0.265
-0.27
-0.245
-0.255
-0.255
-0.295
-0.28
-0.255
-0.245
-0.255
-0.245
-0.265
-0.29
-0.275
-0.29
-0.3
-0.31
-0.31
-0.295
-0.275
-0.28
-0.285
-0.285
-0.295
-0.275
-0.27
-0.25
-0.26
-0.265
-0.265
-0.25
-0.245
-0.245
-0.26
-0.275
-0.285
-0.255
-0.245
-0.23
-0.24
-0.255
-0.255
-0.25
-0.245
-0.23
-0.235
-0.26
-0.255
-0.255
-0.24
-0.225
-0.24
-0.255
-0.27
-0.265
-0.225
-0.23
-0.22
-0.23
-0.23
-0.23
-0.225
-0.225
-0.225
-0.24
-0.245
-0.235
-0.22
-0.2
-0.21
-0.225
-0.23
-0.22
-0.205
-0.21
-0.215
-0.225
-0.25
-0.235
-0.22
-0.205
-0.21
-0.215
-0.23
-0.22
-0.21
-0.2
-0.2
-0.225
-0.235
-0.24
-0.235
-0.225
-0.25
-0.26
-0.255
-0.25
-0.22
-0.215
-0.215
-0.23
-0.24
-0.235
-0.205
-0.205
-0.21
-0.215
-0.215
-0.21
-0.2
-0.2
-0.215
-0.215
-0.22
-0.215
-0.19
-0.18
-0.19
-0.2
-0.21
-0.2
-0.205
-0.215
-0.205
-0.205
-0.21
-0.2
-0.19
-0.165
-0.185
-0.195
-0.205
-0.195
-0.185
-0.185
-0.185
-0.2
-0.215
-0.21
-0.19
-0.17
-0.175
-0.195
-0.21
-0.195
-0.175
-0.175
-0.165
-0.17
-0.175
-0.175
-0.18
-0.175
-0.18
-0.19
-0.195
-0.195
-0.16
-0.13
-0.155
-0.16
-0.18
-0.175
-0.155
-0.16
-0.145
-0.165
-0.18
-0.16
-0.155
-0.145
-0.16
-0.17
-0.205
-0.185
-0.175
-0.16
-0.175
-0.21
-0.215
-0.205
-0.17
-0.16
-0.17
-0.195
-0.205
-0.19
-0.185
-0.165
-0.19
-0.2
-0.2
-0.19
-0.165
-0.15
-0.15
-0.175
-0.17
-0.15
-0.14
-0.135
-0.145
-0.145
-0.165
-0.155
-0.145
-0.135
-0.13
-0.14
-0.135
-0.15
-0.11
-0.1
-0.105
-0.115
-0.125
-0.09
-0.055
0.02
0.095
0.175
0.275
0.42
0.575
0.735
0.89
1.035
1.21
1.395
1.51
1.47
1.275
0.98
0.685
0.44
0.205
0.0
-0.155
-0.19
-0.135
-0.09
-0.07
-0.095
-0.14
-0.18
-0.2
-0.2
-0.2
-0.19
-0.22
-0.24
-0.25
-0.255
-0.24
-0.225
-0.265
-0.255
-0.27
-0.265
-0.25
-0.235
-0.23
-0.235
-0.255
-0.235
-0.235
-0.225
-0.24
-0.265
-0.285
-0.275
-0.26
-0.23
-0.245
-0.27
-0.265
-0.265
-0.24
-0.22
-0.235
-0.245
-0.28
-0.265
-0.24
-0.235
-0.255
-0.275
-0.275
-0.26
-0.245
-0.255
-0.25
-0.255
-0.25
-0.235
-0.21
-0.22
-0.195
-0.21
-0.2
-0.18
-0.16
-0.14
-0.16
-0.18
-0.18
-0.175
-0.14
-0.125
-0.135
-0.13
-0.13
-0.115
-0.09
-0.085
-0.07
-0.08
-0.08
-0.075
-0.06
-0.04
-0.05
-0.05
-0.06
-0.05
-0.025
-0.03
-0.03
-0.035
-0.03
-0.015
0.0
0.01
0.0
0.005
-0.025
-0.01
0.015
0.04
0.025
0.035
0.01
0.035
0.035
0.045
0.02
-0.005
0.0
0.01
0.02
0.005
-0.01
-0.03
-0.06
-0.035
-0.03
-0.04
-0.06
-0.08
-0.1
-0.1
-0.1
-0.09
-0.1
-0.12
-0.135
-0.15
-0.155
-0.135
-0.13
-0.15
-0.155
-0.16
-0.14
-0.14
-0.15
-0.16
-0.185
-0.19
-0.175
-0.165
-0.17
-0.175
-0.175
-0.165
-0.17
-0.15
-0.18
-0.165
-0.185
-0.17
-0.15
-0.13
-0.135
-0.15
-0.155
-0.135
-0.13
-0.11
-0.13
-0.135
-0.15
-0.14
-0.115
-0.12
-0.12
-0.145
-0.15
-0.155
-0.14
-0.125
-0.15
-0.155
-0.18
-0.165
-0.155
-0.155
-0.19
-0.185
-0.19
-0.195
-0.165
-0.155
-0.17
-0.195
-0.215
-0.21
-0.185
-0.175
-0.17
-0.185
-0.19
-0.18
-0.18
-0.165
-0.195
-0.195
-0.21
-0.205
-0.175
-0.17
-0.165
-0.19
-0.21
-0.185
-0.18
-0.15
-0.175
-0.195
-0.195
-0.19
-0.17
-0.17
-0.16
-0.195
-0.19
-0.175
-0.155
-0.145
-0.145
-0.175
-0.195
-0.205
-0.205
-0.185
-0.205
-0.21
-0.215
-0.235
-0.21
-0.205
-0.215
-0.225
-0.23
-0.22
-0.215
-0.2
-0.205
-0.21
-0.23
-0.225
-0.205
-0.195
-0.19
-0.205
-0.21
-0.2
-0.195
-0.175
-0.2
-0.195
-0.2
-0.2
-0.195
-0.205
-0.195
-0.21
-0.21
-0.2
-0.18
-0.19
-0.195
-0.215
-0.215
-0.215
-0.185
-0.175
-0.19
-0.215
-0.23
-0.23
-0.205
-0.2
-0.19
-0.195
-0.2
-0.205
-0.21
-0.19
-0.2
-0.215
-0.225
-0.22
-0.215
-0.21
-0.215
-0.23
-0.215
-0.215
-0.2
-0.19
-0.195
-0.21
-0.225
-0.225
-0.205
-0.195
-0.19
-0.2
-0.205
-0.18
-0.16
-0.145
-0.16
-0.18
-0.19
-0.19
-0.18
-0.18
-0.17
-0.19
-0.185
-0.18
-0.155
-0.145
-0.155
-0.155
-0.16
-0.165
-0.15
-0.14
-0.115
-0.075
-0.01
0.065
0.17
0.315
0.475
0.655
0.83
1.015
1.215
1.415
1.515
1.47
1.25
0.96
0.645
0.33
0.02
-0.225
-0.325
-0.32
-0.255
-0.19
-0.165
-0.19
-0.23
-0.235
-0.225
-0.225
-0.235
-0.26
-0.28
-0.3
-0.305
-0.275
-0.285
-0.305
-0.31
-0.295
-0.285
-0.285
-0.295
-0.3
-0.305
-0.29
-0.295
-0.28
-0.295
-0.305
-0.305
-0.295
-0.28
-0.28
-0.275
-0.295
-0.305
-0.3
-0.28
-0.275
-0.27
-0.28
-0.28
-0.27
-0.265
-0.26
-0.27
-0.285
-0.3
-0.29
-0.26
-0.25
-0.25
-0.275
-0.275
-0.28
-0.275
-0.27
-0.285
-0.27
-0.26
-0.25
-0.24
-0.24
-0.23
-0.245
-0.25
-0.24
-0.215
-0.23
-0.21
-0.21
-0.205
-0.19
-0.17
-0.16
-0.15
-0.145
-0.145
-0.12
-0.11
-0.095
-0.1
-0.11
-0.12
-0.105
-0.095
-0.07
-0.07
-0.085
-0.075
-0.065
-0.045
-0.035
-0.045
-0.06
-0.08
-0.065
-0.06
-0.03
-0.04
-0.045
-0.065
-0.06
-0.06
-0.05
-0.075
-0.09
-0.1
-0.11
-0.105
-0.11
-0.115
-0.145
-0.18
-0.17
-0.17
-0.17
-0.19
-0.23
-0.23
-0.225
-0.205
-0.19
-0.225
-0.24
-0.26
-0.25
-0.245
-0.25
-0.245
-0.26
-0.265
-0.26
-0.22
-0.215
-0.23
-0.24
-0.24
-0.235
-0.2
-0.21
-0.225
-0.24
-0.245
-0.235
-0.22
-0.215
-0.22
-0.245
-0.245
-0.245
-0.23
-0.225
-0.23
-0.245
-0.255
-0.24
-0.22
-0.22
-0.225
-0.26
-0.27
-0.265
-0.255
-0.235
-0.25
-0.26
-0.265
-0.255
-0.255
-0.24
-0.255
-0.26
-0.26
-0.27
-0.255
-0.25
-0.265
-0.26
-0.28
-0.25
-0.235
-0.22
-0.24
-0.235
-0.255
-0.255
-0.24
-0.22
-0.22
-0.245
-0.265
-0.26
-0.255
-0.255
-0.26
-0.28
-0.295
-0.295
-0.255
-0.26
-0.28
-0.29
-0.29
-0.285
-0.26
-0.235
-0.25
-0.275
-0.27
-0.275
-0.255
-0.26
-0.25
-0.265
-0.27
-0.285
-0.255
-0.255
-0.245
-0.25
-0.25
-0.24
-0.23
-0.215
-0.235
-0.265
-0.27
-0.26
-0.225
-0.225
-0.225
-0.245
-0.25
-0.25
-0.24
-0.22
-0.205
-0.18
-0.14
-0.08
0.015
0.125
0.285
0.445
0.66
0.88
1.105
1.305
1.415
1.395
1.24
1.02
0.74
0.425
0.085
-0.22
-0.415
-0.485
-0.44
-0.37
-0.315
-0.305
-0.295
-0.29
-0.295
-0.285
-0.305
-0.33
-0.365
-0.36
-0.345
-0.335
-0.33
-0.355
-0.36
-0.35
-0.32
-0.32
-0.35
-0.375
-0.395
-0.375
-0.345
-0.335
-0.335
-0.345
-0.35
-0.355
-0.33
-0.325
-0.33
-0.36
-0.37
-0.365
-0.355
-0.36
-0.37
-0.375
-0.38
-0.365
-0.36
-0.36
-0.36
-0.385
-0.385
-0.375
-0.365
-0.35
-0.365
-0.39
-0.395
-0.375
-0.355
-0.345
-0.35
-0.345
-0.365
-0.33
-0.315
-0.29
-0.295
-0.295
-0.29
-0.28
-0.255
-0.25
-0.24
-0.25
-0.25
-0.245
-0.235
-0.195
-0.185
-0.195
-0.19
-0.18
-0.15
-0.155
-0.145
-0.165
-0.17
-0.155
-0.13
-0.13
-0.125
-0.13
-0.14
-0.13
-0.1
-0.105
-0.12
-0.135
-0.14
-0.125
-0.105
-0.105
-0.105
-0.14
-0.155
-0.16
-0.15
-0.16
-0.19
-0.2
-0.21
-0.21
-0.205
-0.2
-0.22
-0.24
-0.27
-0.27
-0.26
-0.26
-0.255
-0.275
-0.29
-0.285
-0.275
-0.275
-0.285
-0.3
-0.3
-0.3
-0.295
-0.31
-0.325
-0.34
-0.325
-0.31
-0.285
-0.265
-0.275
-0.315
-0.295
-0.285
-0.275
-0.265
-0.28
-0.295
-0.3
-0.29
-0.26
-0.24
-0.255
-0.27
-0.295
-0.28
-0.26
-0.255
-0.28
-0.29
-0.3
-0.305
-0.29
-0.295
-0.285
-0.29
-0.295
-0.28
-0.275
-0.265
-0.275
-0.29
-0.305
-0.3
-0.275
-0.285
-0.28
-0.31
-0.315
-0.31
-0.295
-0.275
-0.275
-0.3
