Lead II
-0.235
-0.255
-0.26
-0.26
-0.25
-0.26
-0.28
-0.29
-0.29
-0.275
-0.27
-0.28
-0.285
-0.28
-0.29
-0.285
-0.28
-0.275
-0.28
-0.275
-0.245
-0.245
-0.235
-0.23
-0.215
-0.225
-0.215
-0.205
-0.19
-0.195
-0.205
-0.205
-0.185
-0.185
-0.175
-0.17
-0.18
-0.195
-0.185
-0.175
-0.175
-0.18
-0.175
-0.175
-0.165
-0.16
-0.15
-0.165
-0.17
-0.17
-0.18
-0.2
-0.22
-0.24
-0.27
-0.305
-0.31
-0.325
-0.32
-0.32
-0.31
-0.285
-0.24
-0.21
-0.18
-0.14
-0.095
-0.05
0.025
0.14
0.265
0.405
0.505
0.58
0.615
0.595
0.56
0.53
0.44
0.335
0.24
0.15
0.06
0.0
-0.045
-0.085
-0.09
-0.08
-0.095
-0.075
-0.105
-0.095
-0.08
-0.11
-0.1
-0.1
-0.115
-0.1
-0.085
-0.065
-0.07
-0.075
-0.075
-0.08
-0.075
-0.07
-0.07
-0.08
-0.075
-0.075
-0.065
-0.055
-0.04
-0.045
-0.05
-0.065
-0.05
-0.025
-0.01
-0.01
-0.005
-0.015
-0.015
0.005
0.01
0.0
0.0
-0.005
-0.005
0.01
0.01
0.0
0.0
0.0
0.0
0.01
0.02
0.01
0.03
0.015
0.02
0.04
0.035
0.055
0.04
0.04
0.07
0.08
0.075
0.08
0.075
0.065
0.075
0.09
0.105
0.11
0.11
0.12
0.13
0.145
0.155
0.135
0.13
0.12
0.13
0.15
0.165
0.17
0.165
0.17
0.18
0.2
0.19
0.185
0.17
0.165
0.165
0.19
0.2
0.185
0.175
0.17
0.155
0.165
0.17
0.165
0.145
0.145
0.15
0.155
0.145
0.14
0.11
0.085
0.075
0.08
0.06
0.055
0.025
0.025
0.025
0.025
0.015
-0.005
-0.035
-0.045
-0.045
-0.04
-0.055
-0.055
-0.07
-0.095
-0.095
-0.1
-0.115
-0.12
-0.14
-0.145
-0.17
-0.155
-0.15
-0.145
-0.165
-0.175
-0.175
-0.175
-0.175
-0.18
-0.195
-0.23
-0.21
-0.21
-0.205
-0.205
-0.215
-0.24
-0.23
-0.245
-0.245
-0.245
-0.255
-0.26
-0.255
-0.255
-0.25
-0.265
-0.3
-0.295
-0.3
-0.305
-0.295
-0.29
-0.285
-0.285
-0.285
-0.28
-0.29
-0.305
-0.32
-0.325
-0.33
-0.31
-0.305
-0.3
-0.295
-0.305
-0.305
-0.295
-0.295
-0.295
-0.3
-0.285
-0.265
-0.245
-0.26
-0.255
-0.275
-0.285
-0.285
-0.275
-0.255
-0.26
-0.24
-0.245
-0.24
-0.25
-0.285
-0.305
-0.335
-0.345
-0.335
-0.285
-0.245
-0.215
-0.165
-0.08
0.035
0.15
0.245
0.32
0.405
0.515
0.655
0.83
0.98
1.1
1.2
1.31
1.415
1.53
1.625
1.705
1.77
1.85
1.94
2.015
2.1
2.13
2.125
2.105
2.025
1.875
1.68
1.43
1.15
0.88
0.635
0.395
0.175
-0.02
-0.19
-0.315
-0.415
-0.52
-0.6
-0.625
-0.64
-0.645
-0.665
-0.675
-0.69
-0.715
-0.725
-0.725
-0.705
-0.675
-0.655
-0.655
-0.655
-0.65
-0.65
-0.64
-0.665
-0.65
-0.65
-0.645
-0.63
-0.605
-0.61
-0.62
-0.645
-0.655
-0.65
-0.66
-0.655
-0.64
-0.645
-0.645
-0.65
-0.65
-0.67
-0.675
-0.7
-0.72
-0.7
-0.69
-0.695
-0.695
-0.715
-0.735
-0.74
-0.745
-0.755
-0.76
-0.76
-0.76
-0.745
-0.735
-0.74
-0.76
-0.78
-0.795
-0.805
-0.79
-0.795
-0.795
-0.79
-0.775
-0.765
-0.755
-0.77
-0.765
-0.79
-0.785
-0.77
-0.73
-0.725
-0.725
-0.73
-0.73
-0.715
-0.7
-0.69
-0.675
-0.68
-0.68
-0.665
-0.65
-0.63
-0.61
-0.6
-0.585
-0.58
-0.555
-0.55
-0.54
-0.54
-0.525
-0.485
-0.46
-0.435
-0.43
-0.42
-0.42
-0.395
-0.375
-0.37
-0.37
-0.355
-0.33
-0.305
-0.29
-0.275
-0.29
-0.29
-0.3
-0.295
-0.265
-0.25
-0.245
-0.255
-0.265
-0.245
-0.245
-0.25
-0.27
-0.285
-0.28
-0.285
-0.255
-0.23
-0.225
-0.24
-0.25
-0.26
-0.26
-0.255
-0.255
-0.245
-0.25
-0.245
-0.22
-0.22
-0.245
-0.25
-0.27
-0.25
-0.235
-0.235
-0.23
-0.235
-0.225
-0.205
-0.205
-0.205
-0.2
-0.23
-0.245
-0.215
-0.22
-0.195
-0.19
-0.2
-0.205
-0.215
-0.205
-0.2
-0.215
-0.215
-0.215
-0.22
-0.2
-0.19
-0.2
-0.205
-0.22
-0.215
-0.225
-0.205
-0.2
-0.22
-0.23
-0.195
-0.19
-0.185
-0.185
-0.19
-0.205
-0.195
-0.195
-0.185
-0.195
-0.205
-0.21
-0.19
-0.18
-0.18
-0.185
-0.195
-0.215
-0.215
-0.205
-0.2
-0.2
-0.195
-0.2
-0.18
-0.19
-0.18
-0.185
-0.21
-0.22
-0.215
-0.2
-0.185
-0.19
-0.195
-0.195
-0.195
-0.205
-0.2
-0.21
-0.23
-0.23
-0.2
-0.185
-0.155
-0.15
-0.17
-0.17
-0.175
-0.18
-0.2
-0.195
-0.21
-0.21
-0.19
-0.17
-0.16
-0.16
-0.185
-0.195
-0.2
-0.2
-0.19
-0.185
-0.185
-0.18
-0.165
-0.16
-0.155
-0.165
-0.19
-0.215
-0.195
-0.175
-0.175
-0.16
-0.165
-0.18
-0.175
-0.175
-0.18
-0.18
-0.2
-0.19
-0.205
-0.195
-0.18
-0.17
-0.16
-0.17
-0.16
-0.16
-0.15
-0.145
-0.16
-0.155
-0.15
-0.115
-0.105
-0.105
-0.095
-0.095
-0.085
-0.085
-0.075
-0.075
-0.09
-0.1
-0.085
-0.07
-0.055
-0.06
-0.055
-0.08
-0.1
-0.105
-0.11
-0.12
-0.135
-0.165
-0.155
-0.16
-0.165
-0.165
-0.18
-0.205
-0.21
-0.225
-0.205
-0.21
-0.225
-0.225
-0.225
-0.215
-0.225
-0.255
-0.27
-0.295
-0.295
-0.285
-0.285
-0.27
-0.285
-0.29
-0.28
-0.285
-0.295
-0.31
-0.32
-0.32
-0.3
-0.285
-0.25
-0.25
-0.25
-0.25
-0.24
-0.22
-0.205
-0.215
-0.225
-0.225
-0.195
-0.19
-0.185
-0.18
-0.185
-0.21
-0.195
-0.175
-0.16
-0.165
-0.155
-0.15
-0.15
-0.135
-0.155
-0.17
-0.175
-0.175
-0.16
-0.15
-0.145
-0.145
-0.16
-0.175
-0.18
-0.195
-0.215
-0.275
-0.325
-0.36
-0.37
-0.345
-0.335
-0.28
-0.25
-0.21
-0.155
-0.105
-0.08
-0.055
-0.015
0.075
0.21
0.38
0.565
0.66
0.675
0.65
0.605
0.515
0.39
0.265
0.155
0.08
0.015
-0.03
-0.065
-0.075
-0.085
-0.09
-0.09
-0.095
-0.095
-0.1
-0.11
-0.13
-0.11
-0.085
-0.07
-0.06
-0.075
-0.09
-0.085
-0.095
-0.09
-0.07
-0.085
-0.07
-0.065
-0.05
-0.035
-0.045
-0.045
-0.065
-0.06
-0.04
-0.04
-0.025
-0.01
-0.01
0.005
0.0
-0.005
-0.03
-0.03
-0.035
-0.005
0.01
0.025
0.03
0.025
0.015
0.015
0.015
0.02
0.005
0.005
0.0
0.015
0.035
0.04
0.05
0.055
0.04
0.06
0.055
0.06
0.075
0.065
0.07
0.09
0.11
0.12
0.11
0.1
0.085
0.09
0.1
0.105
0.12
0.115
0.12
0.14
0.135
0.15
0.16
0.14
0.14
0.145
0.165
0.16
0.145
0.155
0.14
0.14
0.165
0.175
0.175
0.145
0.135
0.14
0.145
0.145
0.125
0.11
0.115
0.115
0.105
0.095
0.07
0.05
0.03
0.035
0.02
0.03
0.02
0.0
-0.035
-0.035
-0.04
-0.07
-0.055
-0.1
-0.085
-0.06
-0.065
-0.05
-0.075
-0.105
-0.12
-0.125
-0.135
-0.13
-0.115
-0.13
-0.135
-0.115
-0.125
-0.11
-0.13
-0.16
-0.18
-0.195
-0.165
-0.17
-0.16
-0.16
-0.165
-0.155
-0.16
-0.17
-0.185
-0.215
-0.23
-0.225
-0.2
-0.2
-0.195
-0.22
-0.245
-0.245
-0.235
-0.225
-0.24
-0.245
-0.255
-0.245
-0.235
-0.225
-0.235
-0.26
-0.27
-0.265
-0.265
-0.265
-0.265
-0.265
-0.285
-0.28
-0.285
-0.315
-0.34
-0.375
-0.41
-0.41
-0.41
-0.385
-0.38
-0.36
-0.325
-0.225
-0.095
0.005
0.09
0.16
0.205
0.27
0.355
0.45
0.585
0.71
0.845
0.965
1.1
1.22
1.345
1.46
1.55
1.65
1.745
1.88
1.975
2.06
2.12
2.17
2.195
2.18
2.085
1.93
1.73
1.535
1.335
1.135
0.92
0.68
0.445
0.24
0.085
-0.04
-0.155
-0.28
-0.41
-0.475
-0.505
-0.515
-0.53
-0.57
-0.58
-0.6
-0.6
-0.62
-0.635
-0.66
-0.675
-0.665
-0.66
-0.645
-0.66
-0.68
-0.7
-0.71
-0.72
-0.745
-0.735
-0.755
-0.765
-0.79
-0.775
-0.775
-0.795
-0.82
-0.83
-0.835
-0.835
-0.825
-0.825
-0.83
-0.835
-0.84
-0.825
-0.815
-0.82
-0.825
-0.825
-0.81
-0.82
-0.795
-0.8
-0.82
-0.845
-0.84
-0.845
-0.845
-0.86
-0.855
-0.865
-0.845
-0.84
-0.84
-0.84
-0.85
-0.85
-0.85
-0.84
-0.835
-0.825
-0.845
-0.865
-0.85
-0.835
-0.83
-0.835
-0.825
-0.815
-0.8
-0.795
-0.78
-0.79
-0.8
-0.795
-0.79
-0.77
-0.745
-0.74
-0.73
-0.725
-0.715
-0.705
-0.685
-0.69
-0.695
-0.69
-0.665
-0.635
-0.595
-0.575
-0.565
-0.565
-0.565
-0.54
-0.535
-0.51
-0.51
-0.485
-0.465
-0.45
-0.415
-0.415
-0.435
-0.445
-0.425
-0.4
-0.365
-0.345
-0.345
-0.34
-0.32
-0.31
-0.305
-0.32
-0.335
-0.33
-0.315
-0.3
-0.27
-0.26
-0.275
-0.29
-0.28
-0.285
-0.29
-0.275
-0.28
-0.29
-0.27
-0.27
-0.26
-0.255
-0.27
-0.27
-0.265
-0.255
-0.27
-0.255
-0.27
-0.27
-0.26
-0.25
-0.23
-0.24
-0.25
-0.255
-0.245
-0.235
-0.225
-0.235
-0.23
-0.245
-0.235
-0.22
-0.2
-0.2
-0.215
-0.23
-0.225
-0.225
-0.2
-0.195
-0.2
-0.205
-0.21
-0.205
-0.205
-0.21
-0.2
-0.21
-0.205
-0.19
-0.175
-0.185
-0.19
-0.215
-0.215
-0.21
-0.205
-0.195
-0.2
-0.205
-0.17
-0.16
-0.165
-0.18
-0.2
-0.215
-0.21
-0.18
-0.16
-0.165
-0.18
-0.18
-0.195
-0.19
-0.19
-0.195
-0.205
-0.21
-0.185
-0.17
-0.165
-0.185
-0.2
-0.225
-0.195
-0.195
-0.185
-0.18
-0.18
-0.185
-0.185
-0.2
-0.195
-0.21
-0.215
-0.24
-0.225
-0.205
-0.195
-0.195
-0.22
-0.22
-0.21
-0.2
-0.185
-0.185
-0.19
-0.19
-0.185
-0.18
-0.17
-0.17
-0.19
-0.195
-0.195
-0.18
-0.175
-0.17
-0.19
-0.195
-0.185
-0.18
-0.17
-0.175
-0.2
-0.225
-0.205
-0.18
-0.165
-0.16
-0.175
-0.195
-0.19
-0.175
-0.185
-0.195
-0.205
-0.205
-0.19
-0.175
-0.165
-0.165
-0.17
-0.2
-0.195
-0.19
-0.185
-0.18
-0.165
-0.175
-0.175
-0.175
-0.18
-0.195
-0.205
-0.22
-0.2
-0.2
-0.18
-0.16
-0.17
-0.175
-0.2
-0.205
-0.18
-0.165
-0.18
-0.165
-0.135
-0.13
-0.135
-0.135
-0.165
-0.15
-0.15
-0.14
-0.11
-0.095
-0.11
-0.12
-0.125
-0.13
-0.13
-0.13
-0.14
-0.165
-0.155
-0.15
-0.14
-0.15
-0.17
-0.195
-0.195
-0.2
-0.185
-0.2
-0.2
-0.215
-0.215
-0.22
-0.22
-0.22
-0.26
-0.275
-0.275
-0.265
-0.26
-0.27
-0.27
-0.285
-0.28
-0.285
-0.285
-0.285
-0.295
-0.3
-0.28
-0.245
-0.225
-0.21
-0.195
-0.195
-0.2
-0.185
-0.195
-0.2
-0.215
-0.22
-0.205
-0.18
-0.165
-0.145
-0.17
-0.175
-0.175
-0.16
-0.145
-0.13
-0.125
-0.13
-0.125
-0.12
-0.115
-0.125
-0.145
-0.145
-0.135
-0.125
-0.11
-0.125
-0.15
-0.2
-0.24
-0.28
-0.29
-0.29
-0.26
-0.21
-0.15
-0.09
-0.05
-0.02
-0.02
-0.01
0.035
0.135
0.28
0.45
0.595
0.685
0.675
0.635
0.56
0.435
0.295
0.165
0.075
0.04
0.01
-0.03
-0.05
-0.055
-0.08
-0.075
-0.07
-0.06
-0.09
-0.08
-0.075
-0.06
-0.05
-0.055
-0.065
-0.075
-0.055
-0.04
-0.02
-0.025
-0.03
-0.035
-0.035
-0.015
-0.015
-0.01
-0.01
-0.025
-0.035
-0.02
-0.01
-0.005
0.0
-0.01
0.01
0.02
0.025
0.02
-0.005
-0.005
0.0
0.005
0.04
0.045
0.04
0.03
0.03
0.03
0.03
0.035
0.04
0.04
0.06
0.08
0.105
0.105
0.08
0.06
0.065
0.07
0.09
0.09
0.115
0.115
0.115
0.105
0.12
0.11
0.1
0.095
0.12
0.15
0.165
0.17
0.155
0.14
0.13
0.135
0.15
0.165
0.15
0.165
0.18
0.19
0.19
0.17
0.14
0.135
0.155
0.175
0.185
0.18
0.18
0.165
0.15
0.145
0.155
0.125
0.105
0.085
0.075
0.075
0.09
0.065
0.035
0.03
0.005
0.015
-0.01
-0.015
-0.02
-0.05
-0.055
-0.05
-0.045
-0.065
-0.08
-0.095
-0.09
-0.08
-0.1
-0.09
-0.115
-0.125
-0.14
-0.125
-0.12
-0.12
-0.15
-0.17
-0.165
-0.145
-0.12
-0.125
-0.15
-0.165
-0.175
-0.17
-0.175
-0.185
-0.185
-0.185
-0.19
-0.175
-0.18
-0.195
-0.21
-0.23
-0.225
-0.205
-0.195
-0.2
-0.205
-0.225
-0.235
-0.235
-0.24
-0.225
-0.215
-0.23
-0.23
-0.245
-0.29
-0.32
-0.365
-0.405
-0.385
-0.365
-0.33
-0.27
-0.18
-0.065
0.045
0.145
0.24
0.33
0.445
0.61
0.815
1.005
1.18
1.315
1.445
1.58
1.72
1.845
1.98
2.085
2.14
2.185
2.22
2.2
2.12
1.965
1.745
1.49
1.225
0.93
0.625
0.34
0.125
-0.025
-0.145
-0.27
-0.375
-0.45
-0.505
-0.525
-0.53
-0.535
-0.54
-0.545
-0.585
-0.59
-0.595
-0.595
-0.58
-0.585
-0.6
-0.635
-0.645
-0.645
-0.67
-0.685
-0.725
-0.735
-0.72
-0.705
-0.71
-0.725
-0.77
-0.78
-0.775
-0.76
-0.74
-0.72
-0.725
-0.735
-0.74
-0.745
-0.75
-0.75
-0.77
-0.785
-0.8
-0.785
-0.765
-0.78
-0.795
-0.815
-0.8
-0.8
-0.765
-0.77
-0.765
-0.785
-0.79
-0.79
-0.785
-0.765
-0.775
-0.77
-0.76
-0.75
-0.75
-0.745
-0.76
-0.77
-0.765
-0.735
-0.71
-0.7
-0.695
-0.69
-0.68
-0.655
-0.635
-0.62
-0.605
-0.625
-0.595
-0.585
-0.54
-0.54
-0.505
-0.5
-0.49
-0.45
-0.43
-0.415
-0.39
-0.39
-0.37
-0.35
-0.35
-0.34
-0.34
-0.335
-0.305
-0.285
-0.265
-0.27
-0.27
-0.28
-0.285
-0.265
-0.255
-0.235
-0.23
-0.225
-0.23
-0.235
-0.235
-0.255
-0.26
-0.26
-0.24
-0.21
-0.205
-0.205
-0.23
-0.245
-0.25
-0.235
-0.23
-0.215
-0.21
-0.225
-0.235
-0.225
-0.245
-0.26
-0.24
-0.235
-0.215
-0.195
-0.195
-0.2
-0.22
-0.235
-0.22
-0.2
-0.18
-0.175
-0.19
-0.205
-0.21
-0.21
-0.215
-0.21
-0.205
-0.21
-0.2
-0.195
-0.19
-0.2
-0.22
-0.22
-0.2
-0.19
-0.19
-0.195
-0.185
-0.2
-0.195
-0.205
-0.2
-0.19
-0.205
-0.215
-0.215
-0.215
-0.19
-0.18
-0.18
-0.215
-0.22
-0.21
-0.205
-0.22
-0.22
-0.215
-0.205
-0.19
-0.18
-0.18
-0.21
-0.215
-0.23
-0.215
-0.195
-0.175
-0.195
-0.195
-0.205
-0.205
-0.215
-0.21
-0.215
-0.22
-0.195
-0.18
-0.175
-0.175
-0.185
-0.22
-0.23
-0.22
-0.21
-0.215
-0.2
-0.2
-0.195
-0.2
-0.205
-0.215
-0.235
-0.24
-0.225
-0.185
-0.18
-0.175
-0.185
-0.215
-0.23
-0.225
-0.21
-0.205
-0.21
-0.2
-0.185
-0.18
-0.175
-0.19
-0.195
-0.21
-0.22
-0.195
-0.18
-0.17
-0.17
-0.185
-0.195
-0.195
-0.185
-0.19
-0.195
-0.2
-0.195
-0.2
-0.175
-0.19
-0.19
-0.205
-0.19
-0.185
-0.185
-0.19
-0.185
-0.19
-0.19
-0.195
-0.17
-0.165
-0.185
-0.195
-0.195
-0.19
-0.175
-0.195
-0.19
-0.195
-0.185
-0.185
-0.17
-0.17
-0.19
-0.195
-0.185
-0.17
-0.15
-0.14
-0.13
-0.155
-0.165
-0.17
-0.16
-0.165
-0.18
-0.195
-0.195
-0.185
-0.17
-0.17
-0.21
-0.22
-0.225
-0.23
-0.22
-0.22
-0.22
-0.235
-0.235
-0.25
-0.27
-0.285
-0.32
-0.33
-0.32
-0.285
-0.285
-0.28
-0.295
-0.32
-0.305
-0.29
-0.28
-0.265
-0.26
-0.26
-0.23
-0.205
-0.19
-0.19
-0.21
-0.22
-0.21
-0.205
-0.19
-0.175
-0.18
-0.175
-0.18
-0.175
-0.18
-0.17
-0.18
-0.175
-0.16
-0.135
-0.125
-0.135
-0.14
-0.15
-0.15
-0.13
-0.145
-0.145
-0.155
-0.175
-0.2
-0.25
-0.3
-0.34
-0.365
-0.355
-0.305
-0.245
-0.19
-0.16
-0.12
-0.1
-0.05
0.015
0.15
0.33
0.52
0.63
0.645
0.61
0.525
0.39
0.225
0.09
0.005
-0.06
-0.07
-0.07
-0.08
-0.09
-0.075
-0.075
-0.095
-0.085
-0.095
-0.1
-0.075
-0.065
-0.045
-0.05
-0.07
-0.1
-0.085
-0.07
-0.05
-0.04
-0.035
-0.045
-0.03
-0.055
-0.04
-0.05
-0.05
-0.045
-0.04
-0.005
0.005
0.015
-0.01
-0.02
-0.02
-0.01
0.0
0.025
0.01
0.0
0.005
0.01
0.015
0.04
0.02
0.015
0.025
0.035
0.065
0.07
0.055
0.04
0.05
0.075
0.09
0.105
0.09
0.11
0.105
0.12
0.13
0.145
0.14
0.135
0.135
0.14
0.18
0.175
0.18
0.175
0.195
0.205
0.2
0.19
0.185
0.18
0.175
0.2
0.22
0.23
0.22
0.205
0.195
0.2
0.2
0.19
0.18
0.165
0.17
0.165
0.16
0.13
0.11
0.08
0.07
0.075
0.075
0.08
0.07
0.03
0.0
-0.005
0.005
-0.025
-0.03
-0.05
-0.045
-0.045
-0.03
-0.045
-0.07
-0.09
-0.1
-0.115
-0.105
-0.12
-0.13
-0.125
-0.125
-0.125
-0.12
-0.13
-0.14
-0.165
-0.175
-0.175
-0.15
-0.14
-0.155
-0.19
-0.175
-0.2
-0.19
-0.18
-0.2
-0.205
-0.21
-0.195
-0.195
-0.19
-0.205
-0.225
-0.225
-0.225
-0.225
-0.245
-0.25
-0.26
-0.265
-0.26
-0.255
-0.24
-0.255
-0.265
-0.265
-0.255
-0.26
-0.265
-0.265
-0.275
-0.28
-0.285
-0.29
-0.335
-0.375
-0.4
-0.41
-0.39
-0.345
-0.3
-0.195
-0.07
0.03
0.12
0.21
0.295
0.355
0.47
0.61
0.775
0.93
1.035
1.12
1.19
1.28
1.38
1.49
1.585
1.675
1.755
1.86
1.985
2.07
2.12
2.155
2.17
2.135
2.06
1.925
1.71
1.49
1.2
0.895
0.61
0.365
0.145
-0.02
-0.165
-0.29
-0.41
-0.47
-0.515
-0.53
-0.555
-0.565
-0.58
-0.595
-0.605
-0.615
-0.64
-0.645
-0.64
-0.625
-0.63
-0.645
-0.665
-0.685
-0.67
-0.675
-0.7
-0.71
-0.735
-0.745
-0.72
-0.73
-0.735
-0.75
-0.77
-0.765
-0.775
-0.775
-0.775
-0.8
-0.81
-0.805
-0.785
-0.775
-0.78
-0.785
-0.795
-0.77
-0.77
-0.745
-0.745
-0.765
-0.8
-0.81
-0.81
-0.8
-0.8
-0.795
-0.8
-0.83
-0.83
-0.82
-0.81
-0.82
-0.835
-0.84
-0.825
-0.8
-0.795
-0.8
-0.805
-0.815
-0.81
-0.81
-0.815
-0.825
-0.82
-0.79
-0.775
-0.775
-0.79
-0.8
-0.79
-0.79
-0.765
-0.735
-0.725
-0.72
-0.725
-0.71
-0.705
-0.705
-0.685
-0.695
-0.695
-0.67
-0.645
-0.62
-0.6
-0.6
-0.59
-0.57
-0.55
-0.535
-0.535
-0.54
-0.535
-0.505
-0.46
-0.425
-0.41
-0.43
-0.42
-0.41
-0.4
-0.375
-0.375
-0.37
-0.36
-0.33
-0.31
-0.31
-0.3
-0.32
-0.325
-0.335
-0.315
-0.305
-0.285
-0.28
-0.29
-0.28
-0.27
-0.27
-0.275
-0.275
-0.275
-0.265
-0.265
-0.245
-0.235
-0.245
-0.25
-0.26
-0.235
-0.22
-0.23
-0.235
-0.255
-0.25
-0.24
-0.225
-0.245
-0.24
-0.24
-0.235
-0.23
-0.22
-0.22
-0.24
-0.235
-0.24
-0.215
-0.2
-0.2
-0.215
-0.225
-0.23
-0.23
-0.22
-0.22
-0.23
-0.25
-0.235
-0.205
-0.205
-0.2
-0.215
-0.23
-0.245
-0.23
-0.225
-0.205
-0.2
-0.215
-0.225
-0.21
-0.205
-0.215
-0.23
-0.225
-0.235
-0.215
-0.195
-0.185
-0.19
-0.22
-0.215
-0.21
-0.21
-0.21
-0.21
-0.215
-0.2
-0.19
-0.185
-0.185
-0.2
-0.235
-0.235
-0.225
-0.215
-0.22
-0.205
-0.215
-0.21
-0.21
-0.205
-0.205
-0.205
-0.22
-0.22
-0.205
-0.19
-0.19
-0.205
-0.215
-0.215
-0.215
-0.2
-0.2
-0.205
-0.22
-0.2
-0.205
-0.185
-0.19
-0.215
-0.225
-0.225
-0.205
-0.2
-0.21
-0.215
-0.195
-0.2
-0.19
-0.19
-0.21
-0.22
-0.23
-0.235
-0.21
-0.19
-0.19
-0.175
-0.205
-0.205
-0.21
-0.205
-0.21
-0.21
-0.2
-0.19
-0.18
-0.17
-0.18
-0.19
-0.22
-0.22
-0.21
-0.19
-0.19
-0.175
-0.19
-0.195
-0.18
-0.185
-0.2
-0.205
-0.205
-0.185
-0.17
-0.165
-0.17
-0.19
-0.215
-0.22
-0.205
-0.19
-0.175
-0.175
-0.185
-0.18
-0.155
-0.17
-0.185
-0.21
-0.21
-0.195
-0.18
-0.18
-0.18
-0.18
-0.18
-0.17
-0.16
-0.135
-0.135
-0.135
-0.13
-0.135
-0.12
-0.125
-0.12
-0.145
-0.165
-0.17
-0.155
-0.17
-0.18
-0.185
-0.195
-0.195
-0.185
-0.175
-0.19
-0.21
-0.225
-0.22
-0.215
-0.215
-0.22
-0.24
-0.265
-0.275
-0.275
-0.28
-0.295
-0.3
-0.315
-0.315
-0.29
-0.28
-0.27
-0.265
-0.285
-0.28
-0.26
-0.245
-0.245
-0.235
-0.215
-0.185
-0.17
-0.16
-0.185
-0.195
-0.22
-0.2
-0.185
-0.15
-0.14
-0.15
-0.165
-0.18
-0.16
-0.155
-0.16
-0.16
-0.145
-0.135
-0.125
-0.125
-0.125
-0.17
-0.185
-0.185
-0.175
-0.155
-0.2
-0.24
-0.3
-0.35
-0.365
-0.36
-0.35
-0.32
-0.275
-0.225
-0.175
-0.11
-0.07
-0.05
-0.03
0.035
0.165
0.35
0.53
0.645
0.685
0.655
0.585
0.505
0.355
0.225
0.1
0.025
-0.02
-0.045
-0.065
-0.09
-0.11
-0.1
-0.11
-0.08
-0.085
-0.08
-0.105
-0.095
-0.095
-0.07
-0.075
-0.08
-0.075
-0.065
-0.055
-0.045
-0.055
-0.06
-0.08
-0.095
-0.07
-0.06
-0.05
-0.06
-0.045
-0.045
-0.035
-0.02
-0.02
-0.03
-0.04
-0.045
-0.025
-0.005
0.005
0.0
-0.015
-0.005
-0.01
-0.015
0.0
-0.005
0.005
0.015
0.035
0.05
0.035
0.02
-0.01
0.0
0.02
0.04
0.045
0.045
0.05
0.065
0.07
0.095
0.075
0.055
0.06
0.07
0.1
0.1
0.125
0.12
0.11
0.11
0.12
0.12
0.12
0.115
0.12
0.135
0.16
0.18
0.185
0.175
0.165
0.16
0.165
0.155
0.17
0.165
0.15
0.175
0.185
0.195
0.19
0.185
0.16
0.16
0.16
0.165
0.16
0.17
0.16
0.15
0.155
0.15
0.14
0.115
0.07
0.07
0.075
0.065
0.055
0.04
0.015
0.01
0.01
0.0
-0.01
-0.015
-0.05
-0.06
-0.06
-0.07
-0.075
-0.085
-0.1
-0.11
-0.1
-0.095
-0.1
-0.125
-0.14
-0.155
-0.15
-0.135
-0.13
-0.13
-0.14
-0.15
-0.145
-0.155
-0.16
-0.185
-0.195
-0.2
-0.18
-0.16
-0.17
-0.18
-0.205
-0.22
-0.215
-0.21
-0.22
-0.215
-0.23
-0.23
-0.205
-0.205
-0.225
-0.25
-0.265
-0.275
-0.265
-0.26
-0.255
-0.265
-0.27
-0.27
-0.255
-0.24
-0.26
-0.285
-0.305
-0.29
-0.285
-0.27
-0.25
-0.26
-0.29
-0.295
-0.285
-0.275
-0.28
-0.28
-0.27
-0.275
-0.265
-0.245
-0.255
-0.285
-0.285
-0.28
-0.275
-0.255
-0.265
-0.28
-0.275
-0.27
-0.265
-0.26
-0.28
-0.28
-0.27
-0.285
-0.245
-0.245
-0.255
-0.265
-0.245
-0.23
-0.205
-0.19
-0.185
-0.195
-0.205
-0.205
-0.195
-0.19
-0.195
-0.205
-0.22
-0.21
-0.205
-0.215
-0.23
-0.265
-0.275
-0.28
-0.245
-0.22
-0.225
-0.235
-0.26
-0.275
-0.29
-0.275
-0.29
-0.295
-0.31
-0.305
-0.285
-0.295
-0.31
-0.35
-0.37
-0.365
-0.355
-0.335
-0.345
-0.335
-0.32
-0.315
-0.3
-0.295
-0.295
-0.295
-0.285
-0.26
-0.23
-0.2
-0.19
-0.22
-0.245
-0.275
-0.255
-0.245
-0.215
-0.21
-0.205
-0.19
-0.185
-0.17
-0.165
-0.185
-0.2
-0.2
-0.195
-0.19
-0.18
-0.17
-0.175
-0.18
-0.165
-0.18
-0.185
-0.21
-0.205
-0.225
-0.235
-0.27
-0.31
-0.36
-0.415
-0.405
-0.385
-0.34
-0.32
-0.28
-0.25
-0.22
-0.185
-0.12
-0.095
-0.04
0.035
0.15
0.305
0.49
0.605
0.64
0.62
0.58
0.525
0.44
0.315
0.185
0.07
-0.01
-0.07
-0.095
-0.115
-0.14
-0.15
-0.145
-0.135
-0.12
-0.105
-0.115
-0.125
-0.14
-0.13
-0.12
-0.11
-0.1
-0.125
-0.095
-0.09
-0.085
-0.09
-0.1
-0.13
-0.11
-0.105
-0.075
-0.07
-0.055
-0.08
-0.06
-0.065
-0.08
-0.095
-0.095
-0.105
-0.095
-0.07
-0.04
-0.04
-0.035
-0.045
-0.065
-0.05
-0.045
-0.055
-0.06
-0.06
-0.045
-0.025
-0.005
-0.005
-0.02
-0.035
-0.03
-0.035
-0.015
-0.025
-0.015
-0.015
0.005
0.015
0.01
0.015
0.015
0.0
0.01
0.03
0.05
0.05
0.055
0.055
0.055
0.065
0.07
0.08
0.065
0.06
0.065
0.085
0.11
0.105
0.085
0.09
0.085
0.09
0.095
0.11
0.1
0.085
0.09
0.09
0.105
0.105
0.085
0.07
0.06
0.055
0.05
0.035
0.025
0.005
-0.005
-0.01
0.0
-0.005
-0.02
-0.045
-0.05
-0.075
-0.07
-0.08
-0.11
-0.135
-0.145
-0.135
-0.13
-0.12
-0.125
-0.165
-0.18
-0.19
-0.18
-0.185
-0.2
-0.215
-0.21
-0.195
-0.19
-0.21
-0.215
-0.24
-0.245
-0.245
-0.23
-0.23
-0.225
-0.235
-0.235
-0.225
-0.235
-0.235
-0.26
-0.28
-0.275
-0.26
-0.25
-0.245
-0.245
-0.27
-0.275
-0.285
-0.28
-0.275
-0.295
-0.305
-0.295
-0.29
-0.28
-0.275
-0.285
-0.3
-0.3
-0.305
-0.295
-0.295
-0.3
-0.305
-0.3
-0.28
-0.285
-0.285
-0.295
-0.325
-0.31
-0.3
-0.29
-0.28
-0.285
-0.31
-0.305
-0.29
-0.28
-0.28
-0.285
-0.29
-0.3
-0.285
-0.275
-0.28
-0.29
-0.295
-0.285
-0.28
-0.275
-0.26
-0.275
-0.3
-0.29
-0.28
-0.275
-0.275
-0.285
-0.28
-0.27
-0.265
-0.26
-0.28
-0.275
-0.295
-0.315
-0.305
-0.285
-0.285
-0.28
-0.28
-0.255
-0.23
-0.22
-0.235
-0.245
-0.26
-0.265
-0.235
-0.23
-0.225
-0.235
-0.25
-0.245
-0.24
-0.25
-0.255
-0.285
-0.295
-0.305
-0.3
-0.285
-0.27
-0.28
-0.295
-0.3
-0.305
-0.32
-0.325
-0.33
-0.345
-0.34
-0.34
-0.33
-0.32
-0.35
-0.38
-0.375
-0.38
-0.385
-0.38
-0.385
-0.385
-0.36
-0.34
-0.335
-0.33
-0.34
-0.365
-0.36
-0.35
-0.33
-0.315
-0.32
-0.305
-0.275
-0.26
-0.245
-0.255
-0.27
-0.29
-0.285
-0.275
-0.255
-0.255
-0.25
-0.25
-0.235
-0.225
-0.215
-0.22
-0.215
-0.245
-0.25
-0.245
-0.23
-0.23
-0.225
-0.225
-0.215
-0.21
-0.2
-0.2
-0.215
-0.235
-0.26
-0.275
-0.31
-0.355
-0.38
-0.39
-0.36
-0.315
-0.25
-0.215
-0.18
-0.16
-0.125
-0.09
-0.045
0.01
0.075
0.195
0.35
0.515
0.615
0.62
0.575
0.5
0.41
0.285
0.165
0.055
-0.03
-0.115
-0.16
-0.175
-0.175
-0.185
-0.17
-0.18
-0.16
-0.15
-0.155
-0.155
-0.175
-0.2
-0.2
-0.19
-0.17
-0.155
-0.15
-0.16
-0.155
-0.15
-0.155
-0.16
-0.155
-0.155
-0.145
-0.13
-0.1
-0.115
-0.12
-0.145
-0.15
-0.12
-0.105
-0.1
-0.1
-0.105
-0.095
-0.09
-0.08
-0.095
-0.09
-0.095
-0.105
-0.08
-0.06
-0.06
-0.05
-0.07
-0.055
-0.045
-0.035
-0.035
-0.04
-0.03
-0.035
-0.005
0.015
0.01
0.01
0.005
0.01
0.015
0.03
0.035
0.03
0.02
0.02
0.035
0.05
0.07
0.065
0.04
0.045
0.065
0.08
0.085
0.1
0.105
0.105
0.095
0.095
0.09
0.075
0.08
0.085
0.1
0.105
0.08
0.06
0.025
0.005
0.005
0.005
0.0
-0.01
-0.03
-0.04
-0.06
-0.075
-0.11
-0.13
-0.14
-0.155
-0.12
-0.11
-0.125
-0.13
-0.165
-0.19
-0.195
-0.18
-0.175
-0.175
-0.17
-0.17
-0.17
-0.17
-0.18
-0.2
-0.21
-0.215
-0.2
-0.19
-0.19
-0.19
-0.205
-0.215
-0.225
-0.215
-0.23
-0.215
-0.225
-0.23
-0.22
-0.215
-0.22
-0.235
-0.24
-0.255
-0.245
-0.25
-0.235
-0.25
-0.255
-0.255
-0.245
-0.245
-0.255
-0.27
-0.285
-0.285
-0.275
-0.265
-0.265
-0.265
-0.275
-0.265
-0.275
-0.275
-0.28
-0.295
-0.285
-0.285
-0.275
-0.245
-0.25
-0.27
-0.285
-0.295
-0.295
-0.285
-0.295
-0.275
-0.27
-0.26
-0.27
-0.245
-0.26
-0.285
-0.29
-0.3
-0.285
-0.245
-0.245
-0.255
-0.275
-0.275
-0.27
-0.28
-0.29
-0.28
-0.27
-0.245
-0.22
-0.195
-0.21
-0.22
-0.245
-0.255
-0.235
-0.22
-0.215
-0.225
-0.23
-0.24
-0.265
-0.28
-0.26
-0.28
-0.275
-0.28
-0.265
-0.265
-0.26
-0.285
-0.31
-0.315
-0.315
-0.32
-0.33
-0.34
-0.355
-0.37
-0.365
-0.37
-0.37
-0.375
-0.37
-0.375
-0.365
-0.36
-0.35
-0.345
-0.36
-0.335
-0.335
-0.3
-0.3
-0.28
-0.295
-0.28
-0.275
-0.265
-0.265
-0.27
-0.265
-0.265
-0.25
-0.24
-0.23
-0.25
-0.24
-0.22
-0.21
-0.205
-0.2
-0.2
-0.235
-0.23
-0.22
-0.21
-0.205
-0.205
-0.21
-0.215
-0.2
-0.225
-0.27
-0.33
-0.39
-0.435
-0.445
-0.4
-0.35
-0.31
-0.27
-0.225
-0.19
-0.12
-0.06
0.02
0.15
0.34
0.52
0.645
0.67
0.62
0.535
0.45
0.33
0.2
0.085
-0.025
-0.085
-0.125
-0.14
-0.165
-0.17
-0.17
-0.165
-0.16
-0.155
-0.135
-0.135
-0.17
-0.18
-0.185
-0.17
-0.13
-0.14
-0.135
-0.14
-0.145
-0.15
-0.12
-0.12
-0.145
-0.13
-0.135
-0.125
-0.115
-0.115
-0.12
-0.14
-0.125
-0.11
-0.085
-0.08
-0.09
-0.1
-0.1
-0.07
-0.075
-0.085
-0.065
-0.08
-0.065
-0.06
-0.065
-0.04
-0.035
-0.035
-0.025
-0.02
-0.025
-0.045
-0.025
-0.035
-0.025
-0.005
0.02
0.025
0.035
0.025
0.02
0.015
0.045
0.04
0.055
0.08
0.08
0.09
0.12
0.075
0.075
0.05
0.055
0.07
0.1
0.12
0.12
0.11
0.1
0.085
0.09
0.11
0.085
0.075
0.08
0.095
0.08
0.055
0.03
-0.005
-0.01
-0.015
0.0
-0.01
-0.03
-0.04
-0.07
-0.095
-0.09
-0.095
-0.115
-0.125
-0.13
-0.13
-0.13
-0.135
-0.145
-0.165
-0.175
-0.17
-0.165
-0.175
