Lead II
-0.225
-0.2
-0.205
-0.225
-0.265
-0.3
-0.32
-0.345
-0.365
-0.4
-0.455
-0.52
-0.6
-0.64
-0.66
-0.725
-0.85
-0.98
-1.145
-1.345
-1.485
-1.51
-1.465
-1.41
-1.365
-1.29
-1.21
-1.125
-1.055
-0.965
-0.88
-0.805
-0.735
-0.67
-0.64
-0.625
-0.565
-0.495
-0.4
-0.33
-0.265
-0.22
-0.19
-0.16
-0.16
-0.14
-0.155
-0.155
-0.145
-0.145
-0.125
-0.125
-0.125
-0.14
-0.13
-0.11
-0.105
-0.1
-0.12
-0.12
-0.13
-0.105
-0.1
-0.095
-0.095
-0.1
-0.105
-0.1
-0.07
-0.06
-0.07
-0.075
-0.075
-0.055
-0.04
-0.045
-0.05
-0.03
-0.035
-0.025
-0.015
-0.005
-0.025
-0.015
-0.015
0.01
0.015
0.035
0.03
0.02
0.02
0.045
0.075
0.065
0.065
0.07
0.07
0.095
0.115
0.105
0.115
0.115
0.125
0.14
0.17
0.175
0.17
0.16
0.16
0.175
0.195
0.2
0.195
0.205
0.215
0.23
0.235
0.235
0.23
0.225
0.245
0.24
0.265
0.255
0.26
0.25
0.25
0.275
0.29
0.295
0.285
0.28
0.26
0.27
0.295
0.295
0.28
0.28
0.275
0.285
0.29
0.285
0.26
0.26
0.235
0.255
0.255
0.255
0.24
0.23
0.225
0.23
0.23
0.235
0.21
0.2
0.185
0.2
0.215
0.21
0.195
0.16
0.16
0.16
0.165
0.165
0.145
0.14
0.125
0.14
0.145
0.135
0.13
0.115
0.12
0.115
0.12
0.1
0.085
0.09
0.085
0.08
0.085
0.085
0.075
0.05
0.05
0.045
0.055
0.06
0.035
0.025
0.025
0.035
0.03
0.03
0.015
0.015
0.005
-0.01
-0.02
-0.02
-0.025
-0.04
-0.045
-0.045
-0.045
-0.04
-0.07
-0.08
-0.075
-0.055
-0.05
-0.08
-0.105
-0.11
-0.11
-0.105
-0.08
-0.1
-0.115
-0.13
-0.135
-0.13
-0.105
-0.12
-0.145
-0.17
-0.2
-0.185
-0.17
-0.145
-0.17
-0.18
-0.185
-0.19
-0.15
-0.145
-0.17
-0.185
-0.195
-0.175
-0.165
-0.16
-0.165
-0.175
-0.185
-0.19
-0.17
-0.17
-0.18
-0.19
-0.195
-0.19
-0.17
-0.165
-0.17
-0.185
-0.185
-0.195
-0.175
-0.17
-0.18
-0.185
-0.165
-0.145
-0.125
-0.13
-0.125
-0.13
-0.145
-0.145
-0.135
-0.13
-0.17
-0.165
-0.175
-0.17
-0.155
-0.15
-0.165
-0.175
-0.18
-0.17
-0.16
-0.185
-0.22
-0.23
-0.22
-0.21
-0.19
-0.185
-0.2
-0.205
-0.2
-0.185
-0.185
-0.19
-0.205
-0.205
-0.21
-0.2
-0.18
-0.18
-0.19
-0.2
-0.21
-0.19
-0.195
-0.205
-0.205
-0.215
-0.22
-0.215
-0.195
-0.205
-0.205
-0.215
-0.215
-0.195
-0.17
-0.195
-0.205
-0.22
-0.215
-0.195
-0.19
-0.19
-0.21
-0.22
-0.205
-0.2
-0.19
-0.175
-0.205
-0.2
-0.2
-0.175
-0.165
-0.18
-0.205
-0.205
-0.21
-0.2
-0.17
-0.18
-0.19
-0.185
-0.175
-0.155
-0.15
-0.155
-0.155
-0.17
-0.19
-0.205
-0.235
-0.27
-0.305
-0.35
-0.375
-0.375
-0.425
-0.51
-0.58
-0.605
-0.63
-0.715
-0.855
-1.055
-1.295
-1.445
-1.445
-1.39
-1.34
-1.29
-1.225
-1.145
-1.07
-0.945
-0.845
-0.77
-0.71
-0.655
-0.61
-0.56
-0.51
-0.455
-0.395
-0.335
-0.25
-0.19
-0.14
-0.12
-0.115
-0.115
-0.12
-0.11
-0.105
-0.1
-0.095
-0.11
-0.105
-0.11
-0.085
-0.085
-0.085
-0.09
-0.08
-0.06
-0.05
-0.05
-0.055
-0.065
-0.055
-0.05
-0.04
-0.04
-0.045
-0.05
-0.06
-0.045
-0.03
-0.03
-0.025
-0.025
-0.025
-0.01
0.005
0.02
-0.005
0.015
0.015
0.01
0.035
0.04
0.035
0.04
0.05
0.065
0.07
0.07
0.08
0.085
0.09
0.115
0.115
0.125
0.125
0.12
0.125
0.155
0.175
0.17
0.165
0.17
0.19
0.205
0.215
0.22
0.215
0.215
0.215
0.235
0.25
0.255
0.265
0.25
0.265
0.29
0.285
0.28
0.28
0.275
0.285
0.305
0.32
0.32
0.31
0.3
0.295
0.305
0.325
0.325
0.31
0.3
0.3
0.315
0.32
0.315
0.3
0.28
0.28
0.29
0.29
0.29
0.29
0.265
0.26
0.24
0.265
0.255
0.255
0.24
0.235
0.235
0.23
0.225
0.215
0.205
0.2
0.2
0.2
0.19
0.165
0.165
0.155
0.165
0.155
0.16
0.14
0.13
0.135
0.13
0.14
0.13
0.11
0.105
0.105
0.115
0.105
0.11
0.1
0.08
0.08
0.085
0.085
0.085
0.075
0.055
0.045
0.045
0.065
0.055
0.045
0.035
0.035
0.035
0.04
0.03
0.025
0.01
0.0
0.005
0.0
-0.005
-0.01
-0.035
-0.03
-0.035
-0.04
-0.045
-0.06
-0.06
-0.07
-0.075
-0.06
-0.065
-0.075
-0.1
-0.095
-0.09
-0.095
-0.095
-0.1
-0.115
-0.105
-0.115
-0.1
-0.115
-0.11
-0.13
-0.15
-0.13
-0.11
-0.115
-0.135
-0.14
-0.135
-0.135
-0.12
-0.115
-0.13
-0.145
-0.135
-0.13
-0.135
-0.135
-0.13
-0.145
-0.14
-0.135
-0.13
-0.13
-0.14
-0.15
-0.15
-0.135
-0.125
-0.14
-0.15
-0.145
-0.145
-0.135
-0.125
-0.11
-0.095
-0.105
-0.095
-0.095
-0.08
-0.095
-0.105
-0.12
-0.115
-0.105
-0.105
-0.11
-0.12
-0.13
-0.135
-0.135
-0.12
-0.12
-0.14
-0.155
-0.16
-0.165
-0.145
-0.15
-0.15
-0.155
-0.16
-0.145
-0.135
-0.14
-0.16
-0.16
-0.165
-0.15
-0.14
-0.14
-0.15
-0.16
-0.165
-0.155
-0.145
-0.155
-0.165
-0.175
-0.175
-0.16
-0.155
-0.16
-0.16
-0.18
-0.19
-0.16
-0.16
-0.145
-0.17
-0.19
-0.165
-0.165
-0.165
-0.155
-0.165
-0.175
-0.165
-0.155
-0.135
-0.16
-0.16
-0.175
-0.17
-0.155
-0.155
-0.155
-0.17
-0.175
-0.165
-0.14
-0.145
-0.145
-0.155
-0.155
-0.14
-0.13
-0.13
-0.105
-0.125
-0.12
-0.135
-0.145
-0.175
-0.2
-0.225
-0.26
-0.285
-0.31
-0.325
-0.37
-0.46
-0.51
-0.535
-0.565
-0.665
-0.82
-1.035
-1.285
-1.45
-1.465
-1.41
-1.36
-1.325
-1.27
-1.195
-1.09
-0.98
-0.9
-0.81
-0.75
-0.675
-0.615
-0.555
-0.51
-0.47
-0.385
-0.3
-0.22
-0.14
-0.1
-0.095
-0.1
-0.095
-0.08
-0.06
-0.055
-0.065
-0.07
-0.07
-0.055
-0.045
-0.04
-0.04
-0.06
-0.05
-0.045
-0.04
-0.03
-0.04
-0.04
-0.05
-0.03
-0.015
-0.02
-0.02
-0.025
-0.005
-0.01
0.005
0.01
0.005
-0.005
0.0
0.005
0.02
0.01
0.02
0.025
0.03
0.035
0.04
0.06
0.055
0.055
0.065
0.075
0.1
0.1
0.1
0.09
0.115
0.13
0.13
0.135
0.14
0.145
0.15
0.175
0.19
0.19
0.19
0.17
0.195
0.22
0.23
0.24
0.235
0.24
0.245
0.265
0.28
0.28
0.28
0.275
0.28
0.29
0.3
0.3
0.295
0.285
0.285
0.285
0.305
0.305
0.285
0.28
0.28
0.3
0.3
0.285
0.27
0.27
0.27
0.27
0.27
0.275
0.265
0.25
0.245
0.245
0.255
0.245
0.23
0.215
0.215
0.215
0.235
0.22
0.205
0.19
0.195
0.195
0.195
0.195
0.18
0.16
0.135
0.165
0.165
0.15
0.14
0.13
0.13
0.13
0.14
0.12
0.115
0.105
0.095
0.115
0.125
0.11
0.09
0.07
0.075
0.08
0.075
0.08
0.065
0.05
0.05
0.05
0.055
0.055
0.02
0.005
0.01
0.015
0.025
0.005
-0.015
-0.03
-0.03
-0.035
-0.02
-0.05
-0.06
-0.075
-0.075
-0.075
-0.075
-0.09
-0.1
-0.125
-0.12
-0.11
-0.105
-0.115
-0.135
-0.135
-0.15
-0.15
-0.14
-0.145
-0.17
-0.19
-0.185
-0.175
-0.165
-0.18
-0.185
-0.2
-0.21
-0.195
-0.195
-0.19
-0.21
-0.215
-0.22
-0.215
-0.2
-0.205
-0.21
-0.22
-0.22
-0.22
-0.21
-0.215
-0.235
-0.23
-0.23
-0.22
-0.215
-0.225
-0.235
-0.235
-0.235
-0.225
-0.23
-0.245
-0.255
-0.29
-0.28
-0.25
-0.23
-0.22
-0.22
-0.215
-0.21
-0.19
-0.18
-0.2
-0.205
-0.22
-0.215
-0.2
-0.195
-0.22
-0.225
-0.235
-0.25
-0.255
-0.25
-0.26
-0.26
-0.275
-0.27
-0.275
-0.265
-0.275
-0.275
-0.295
-0.285
-0.265
-0.26
-0.26
-0.265
-0.28
-0.29
-0.27
-0.275
-0.285
-0.3
-0.305
-0.295
-0.28
-0.27
-0.27
-0.3
-0.305
-0.31
-0.295
-0.28
-0.29
-0.305
-0.31
-0.305
-0.305
-0.305
-0.3
-0.3
-0.315
-0.31
-0.31
-0.285
-0.3
-0.32
-0.315
-0.31
-0.31
-0.29
-0.295
-0.305
-0.33
-0.305
-0.305
-0.31
-0.29
-0.305
-0.305
-0.315
-0.305
-0.28
-0.28
-0.285
-0.305
-0.29
-0.28
-0.265
-0.265
-0.29
-0.275
-0.265
-0.25
-0.245
-0.24
-0.27
-0.305
-0.325
-0.35
-0.365
-0.4
-0.45
-0.475
-0.495
-0.55
-0.615
-0.68
-0.725
-0.775
-0.865
-0.98
-1.135
-1.34
-1.515
-1.61
-1.585
-1.515
-1.465
-1.42
-1.37
-1.305
-1.215
-1.1
-0.985
-0.91
-0.86
-0.795
-0.745
-0.685
-0.635
-0.59
-0.53
-0.45
-0.36
-0.295
-0.24
-0.225
-0.215
-0.23
-0.235
-0.215
-0.2
-0.19
-0.195
-0.205
-0.19
-0.185
-0.175
-0.18
-0.185
-0.18
-0.18
-0.16
-0.16
-0.165
-0.17
-0.175
-0.165
-0.155
-0.145
-0.135
-0.15
-0.15
-0.17
-0.145
-0.125
-0.12
-0.12
-0.13
-0.125
-0.105
-0.095
-0.085
-0.095
-0.095
-0.085
-0.08
-0.065
-0.05
-0.075
-0.08
-0.08
-0.055
-0.035
-0.025
-0.04
-0.055
-0.03
0.0
0.015
0.025
0.02
0.01
0.025
0.065
0.07
0.06
0.04
0.05
0.07
0.09
0.115
0.115
0.12
0.11
0.11
0.13
0.135
0.13
0.125
0.12
0.135
0.15
0.17
0.185
0.185
0.18
0.19
0.2
0.215
0.215
0.205
0.21
0.22
0.23
0.235
0.23
0.225
0.22
0.215
0.23
0.235
0.225
0.215
0.2
0.205
0.22
0.24
0.235
0.21
0.205
0.205
0.21
0.21
0.2
0.18
0.17
0.17
0.17
0.185
0.17
0.135
0.14
0.145
0.155
0.16
0.145
0.115
0.11
0.11
0.125
0.115
0.115
0.11
0.1
0.1
0.105
0.11
0.105
0.09
0.06
0.065
0.095
0.095
0.08
0.055
0.045
0.04
0.045
0.05
0.05
0.04
0.035
0.025
0.035
0.05
0.03
0.025
0.01
0.015
0.01
-0.005
-0.02
-0.035
-0.025
-0.04
-0.025
-0.025
-0.055
-0.07
-0.08
-0.065
-0.06
-0.055
-0.075
-0.09
-0.105
-0.1
-0.11
-0.105
-0.115
-0.14
-0.15
-0.15
-0.14
-0.13
-0.15
-0.155
-0.18
-0.185
-0.17
-0.17
-0.18
-0.19
-0.215
-0.205
-0.205
-0.19
-0.195
-0.205
-0.215
-0.21
-0.21
-0.2
-0.2
-0.215
-0.235
-0.23
-0.225
-0.22
-0.235
-0.25
-0.235
-0.23
-0.225
-0.22
-0.225
-0.235
-0.245
-0.235
-0.24
-0.225
-0.23
-0.225
-0.225
-0.235
-0.235
-0.245
-0.24
-0.245
-0.26
-0.27
-0.245
-0.235
-0.225
-0.21
-0.205
-0.195
-0.185
-0.18
-0.18
-0.205
-0.21
-0.205
-0.195
-0.195
-0.21
-0.215
-0.215
-0.22
-0.22
-0.23
-0.23
-0.26
-0.265
-0.25
-0.25
-0.26
-0.26
-0.275
-0.29
-0.275
-0.255
-0.24
-0.24
-0.26
-0.25
-0.255
-0.24
-0.24
-0.26
-0.275
-0.27
-0.26
-0.26
-0.25
-0.265
-0.28
-0.29
-0.285
-0.26
-0.255
-0.245
-0.265
-0.275
-0.275
-0.255
-0.24
-0.245
-0.255
-0.265
-0.275
-0.265
-0.265
-0.27
-0.255
-0.255
-0.26
-0.28
-0.26
-0.265
-0.265
-0.27
-0.27
-0.24
-0.225
-0.23
-0.245
-0.25
-0.25
-0.245
-0.225
-0.225
-0.24
-0.26
-0.26
-0.245
-0.235
-0.22
-0.22
-0.23
-0.225
-0.205
-0.19
-0.175
-0.175
-0.19
-0.22
-0.25
-0.275
-0.3
-0.335
-0.37
-0.4
-0.42
-0.44
-0.48
-0.57
-0.625
-0.65
-0.665
-0.73
-0.845
-1.0
-1.185
-1.395
-1.5
-1.475
-1.435
-1.38
-1.355
-1.315
-1.24
-1.15
-1.055
-0.98
-0.905
-0.835
-0.775
-0.7
-0.65
-0.615
-0.595
-0.54
-0.47
-0.385
-0.3
-0.255
-0.24
-0.2
-0.17
-0.135
-0.135
-0.15
-0.15
-0.14
-0.115
-0.105
-0.12
-0.135
-0.135
-0.13
-0.12
-0.115
-0.115
-0.115
-0.12
-0.11
-0.09
-0.08
-0.095
-0.1
-0.12
-0.095
-0.095
-0.075
-0.08
-0.09
-0.095
-0.07
-0.065
-0.045
-0.055
-0.075
-0.06
-0.035
-0.02
-0.02
-0.03
-0.03
-0.025
-0.005
-0.005
-0.005
0.0
0.015
0.015
0.025
0.03
0.04
0.04
0.015
0.025
0.055
0.075
0.08
0.09
0.075
0.085
0.105
0.125
0.12
0.135
0.14
0.15
0.155
0.165
0.165
0.18
0.18
0.185
0.2
0.21
0.22
0.215
0.21
0.22
0.22
0.24
0.24
0.255
0.25
0.245
0.255
0.275
0.27
0.275
0.26
0.265
0.265
0.28
0.29
0.275
0.27
0.265
0.28
0.275
0.26
0.25
0.24
0.245
0.255
0.26
0.275
0.25
0.255
0.245
0.215
0.24
0.235
0.225
0.21
0.205
0.195
0.21
0.195
0.19
0.19
0.17
0.16
0.16
0.145
0.155
0.13
0.125
0.13
0.14
0.135
0.125
0.105
0.105
0.105
0.105
0.095
0.1
0.085
0.07
0.075
0.085
0.08
0.065
0.055
0.045
0.045
0.065
0.06
0.05
0.03
0.03
0.04
0.045
0.03
0.025
0.01
0.005
-0.005
0.01
0.005
-0.01
-0.02
-0.035
-0.025
-0.025
-0.035
-0.065
-0.055
-0.075
-0.07
-0.05
-0.055
-0.075
-0.1
-0.09
-0.09
-0.085
-0.09
-0.105
-0.12
-0.115
-0.11
-0.105
-0.11
-0.135
-0.135
-0.155
-0.145
-0.125
-0.12
-0.14
-0.15
-0.165
-0.16
-0.15
-0.15
-0.145
-0.155
-0.155
-0.16
-0.14
-0.14
-0.16
-0.155
-0.16
-0.155
-0.155
-0.15
-0.15
-0.16
-0.16
-0.16
-0.14
-0.14
-0.14
-0.15
-0.15
-0.145
-0.145
-0.13
-0.13
-0.145
-0.15
-0.15
-0.145
-0.15
-0.145
-0.15
-0.16
-0.15
-0.15
-0.115
-0.105
-0.12
-0.115
-0.095
-0.085
-0.09
-0.09
-0.095
-0.11
-0.1
-0.11
-0.11
-0.105
-0.13
-0.14
-0.14
-0.13
-0.125
-0.13
-0.15
-0.16
-0.16
-0.16
-0.14
-0.155
-0.15
-0.155
-0.14
-0.12
-0.125
-0.125
-0.14
-0.15
-0.15
-0.13
-0.135
-0.14
-0.16
-0.145
-0.15
-0.145
-0.155
-0.14
-0.155
-0.155
-0.14
-0.15
-0.14
-0.155
-0.15
-0.16
-0.15
-0.15
-0.135
-0.14
-0.155
-0.15
-0.14
-0.14
-0.135
-0.13
-0.16
-0.155
-0.15
-0.14
-0.135
-0.13
-0.145
-0.15
-0.135
-0.135
-0.135
-0.155
-0.145
-0.15
-0.14
-0.12
-0.125
-0.13
-0.13
-0.14
-0.13
-0.12
-0.14
-0.125
-0.135
-0.125
-0.11
-0.095
-0.11
-0.1
-0.13
-0.155
-0.175
-0.195
-0.205
-0.245
-0.285
-0.32
-0.345
-0.355
-0.415
-0.485
-0.53
-0.55
-0.605
-0.7
-0.845
-1.045
-1.295
-1.48
-1.505
-1.475
-1.395
-1.355
-1.315
-1.25
-1.185
-1.065
-0.97
-0.87
-0.805
-0.745
-0.675
-0.615
-0.56
-0.52
-0.47
-0.41
-0.32
-0.22
-0.155
-0.11
-0.095
-0.085
-0.07
-0.055
-0.05
-0.04
-0.06
-0.07
-0.05
-0.03
-0.025
-0.03
-0.04
-0.035
-0.035
-0.03
-0.035
-0.03
-0.04
-0.035
-0.045
-0.025
-0.015
-0.015
-0.015
-0.025
-0.01
0.01
0.015
0.02
0.0
-0.015
0.0
0.02
0.03
0.025
0.025
0.015
0.03
0.04
0.04
0.035
0.04
0.035
0.055
0.08
0.095
0.09
0.08
0.085
0.105
0.12
0.125
0.135
0.13
0.12
0.135
0.16
0.155
0.165
0.165
0.155
0.175
0.195
0.205
0.22
0.205
0.21
0.225
0.24
0.25
0.255
0.235
0.25
0.27
0.28
0.285
0.295
0.27
0.27
0.29
0.305
0.325
0.31
0.31
0.31
0.315
0.345
0.34
0.345
0.34
0.33
0.325
0.35
0.345
0.335
0.335
0.305
0.325
0.335
0.33
0.33
0.305
0.29
0.305
0.3
0.305
0.3
0.28
0.27
0.27
0.28
0.27
0.265
0.255
0.245
0.255
0.25
0.25
0.23
0.215
0.215
0.205
0.215
0.21
0.205
0.185
0.18
0.18
0.195
0.18
0.17
0.155
0.15
0.15
0.155
0.16
0.13
0.115
0.13
0.13
0.125
0.125
0.12
0.095
0.09
0.105
0.095
0.09
0.095
0.075
0.065
0.07
0.065
0.075
0.06
0.045
0.04
0.04
0.045
0.035
0.03
0.005
0.005
0.015
0.005
-0.005
-0.02
-0.025
-0.045
-0.04
-0.04
-0.045
-0.055
-0.085
-0.085
-0.085
-0.075
-0.095
-0.115
-0.12
-0.115
-0.12
-0.1
-0.105
-0.13
-0.145
-0.15
-0.14
-0.13
-0.155
-0.17
-0.16
-0.18
-0.185
-0.165
-0.155
-0.17
-0.175
-0.18
-0.185
-0.18
-0.18
-0.185
-0.2
-0.19
-0.18
-0.175
-0.19
-0.215
-0.22
-0.215
-0.205
-0.205
-0.2
-0.205
-0.225
-0.225
-0.215
-0.215
-0.215
-0.22
-0.24
-0.25
-0.235
-0.23
-0.215
-0.23
-0.23
-0.24
-0.215
-0.205
-0.195
-0.2
-0.2
-0.2
-0.205
-0.185
-0.195
-0.195
-0.22
-0.225
-0.22
-0.23
-0.225
-0.23
-0.23
-0.245
-0.25
-0.245
-0.26
-0.265
-0.275
-0.285
-0.285
-0.275
-0.275
-0.27
-0.285
-0.28
-0.28
-0.285
-0.26
-0.27
-0.3
-0.305
-0.29
-0.28
-0.265
-0.27
-0.29
-0.29
-0.27
-0.265
-0.265
-0.285
-0.3
-0.305
-0.3
-0.29
-0.295
-0.305
-0.32
-0.315
-0.3
-0.285
-0.285
-0.285
-0.29
-0.29
-0.295
-0.285
-0.29
-0.285
-0.295
-0.3
-0.295
-0.28
-0.28
-0.295
-0.315
-0.315
-0.3
-0.29
-0.285
-0.285
-0.295
-0.3
-0.285
-0.275
-0.29
-0.295
-0.305
-0.29
-0.275
-0.26
-0.245
-0.255
-0.275
-0.265
-0.26
-0.265
-0.28
-0.315
-0.365
-0.375
-0.395
-0.43
-0.455
-0.47
-0.545
-0.635
-0.7
-0.725
-0.775
-0.87
-1.015
-1.185
-1.415
-1.575
-1.625
-1.585
-1.53
-1.49
-1.405
-1.325
-1.245
-1.15
-1.06
-0.98
-0.9
-0.825
-0.755
-0.72
-0.695
-0.655
-0.575
-0.485
-0.405
-0.345
-0.28
-0.27
-0.21
-0.2
-0.205
-0.2
-0.19
-0.19
-0.19
-0.19
-0.185
-0.185
-0.19
-0.2
-0.185
-0.17
-0.165
-0.17
-0.165
-0.16
-0.15
-0.145
-0.14
-0.14
-0.15
-0.15
-0.135
-0.12
-0.11
-0.115
-0.115
-0.115
-0.11
-0.095
-0.08
-0.085
-0.095
-0.085
-0.06
-0.035
-0.035
-0.05
-0.06
-0.05
-0.035
-0.005
0.005
0.005
0.0
0.005
0.01
0.03
0.04
0.04
0.04
0.035
0.04
0.085
0.085
0.095
0.085
0.085
0.105
0.125
0.13
0.13
0.125
0.13
0.145
0.16
0.185
0.175
0.165
0.175
0.195
0.215
0.22
0.22
0.215
0.21
0.245
0.245
0.24
0.235
0.235
0.24
0.24
0.24
0.26
0.255
0.24
0.245
0.265
0.275
0.27
0.24
0.215
0.235
0.245
0.245
0.245
0.24
0.24
0.22
0.22
0.23
0.23
0.21
0.2
0.19
0.205
0.2
0.21
0.2
0.185
0.155
0.17
0.175
0.17
0.155
0.155
0.15
0.15
0.155
0.145
0.12
0.11
0.115
0.115
0.13
0.115
0.09
0.085
0.085
0.095
0.095
0.09
0.075
0.055
0.055
0.06
0.065
0.06
0.04
0.03
0.025
0.03
0.035
0.03
0.02
0.005
-0.01
-0.01
0.0
0.0
-0.01
-0.015
-0.02
-0.03
-0.05
-0.07
-0.06
-0.06
-0.07
-0.075
-0.08
-0.08
-0.095
-0.115
-0.125
-0.145
-0.135
-0.12
-0.125
-0.135
-0.165
-0.17
-0.155
-0.165
-0.18
-0.185
-0.195
-0.18
-0.16
-0.14
-0.165
-0.21
-0.23
-0.215
-0.185
-0.19
-0.19
-0.18
-0.19
-0.185
-0.185
-0.185
-0.175
-0.2
-0.205
-0.21
-0.21
-0.215
-0.205
-0.2
-0.21
-0.19
-0.19
-0.185
-0.19
-0.19
-0.195
-0.21
-0.21
-0.215
-0.205
-0.215
-0.225
-0.205
-0.185
-0.16
-0.16
-0.16
-0.155
-0.16
-0.14
-0.14
-0.165
-0.17
-0.185
-0.19
-0.19
-0.18
-0.19
-0.18
-0.195
-0.19
-0.195
-0.205
-0.23
-0.23
-0.235
-0.23
-0.21
-0.205
-0.21
-0.235
-0.245
-0.23
-0.2
-0.195
-0.215
-0.235
-0.245
-0.225
-0.215
-0.215
-0.23
-0.23
-0.235
-0.215
-0.205
-0.225
-0.25
-0.24
-0.24
-0.245
-0.245
-0.235
-0.23
-0.23
-0.22
-0.225
-0.23
-0.23
-0.24
-0.24
-0.24
-0.23
-0.23
-0.23
-0.23
-0.25
-0.24
-0.23
-0.215
-0.215
-0.225
-0.235
-0.245
-0.24
-0.23
-0.22
-0.215
-0.245
-0.245
-0.235
-0.215
-0.195
-0.21
-0.22
-0.225
-0.205
-0.185
-0.18
-0.18
-0.18
-0.2
-0.22
-0.245
-0.29
-0.34
-0.365
-0.405
-0.41
-0.425
-0.48
-0.55
-0.57
-0.57
-0.615
-0.74
-0.97
-1.245
-1.46
-1.555
-1.515
-1.44
-1.39
-1.32
-1.26
-1.185
-1.05
-0.935
-0.86
-0.81
-0.745
-0.695
-0.64
-0.575
-0.505
-0.425
-0.345
-0.28
-0.22
-0.16
-0.155
-0.15
-0.165
-0.15
-0.145
-0.125
-0.125
-0.145
-0.14
-0.14
-0.12
-0.11
-0.115
-0.13
-0.12
-0.125
-0.125
-0.095
-0.08
-0.09
-0.1
-0.105
-0.09
-0.07
-0.075
-0.075
-0.085
-0.07
-0.045
-0.035
-0.04
-0.055
-0.055
-0.06
-0.025
-0.01
-0.01
-0.015
-0.01
0.0
0.02
0.035
0.025
0.03
0.025
0.025
0.05
0.07
0.075
0.08
0.085
0.08
0.11
0.125
0.125
0.14
0.125
0.125
0.155
0.175
0.175
0.17
0.165
0.175
0.2
0.225
0.225
0.23
0.23
0.225
0.25
0.275
0.285
0.27
0.265
0.265
0.28
0.295
0.295
0.29
0.285
0.28
0.3
0.305
0.285
0.28
0.275
0.28
0.275
0.29
0.295
0.28
0.27
0.26
0.26
0.27
0.265
0.245
0.23
0.23
0.24
0.24
0.235
0.215
0.205
0.19
0.185
0.2
0.19
0.175
0.155
0.14
0.155
0.165
0.16
0.14
0.125
0.11
0.13
0.135
0.115
0.105
0.09
0.08
0.075
0.095
0.09
0.06
0.05
0.045
0.055
0.065
0.055
0.045
0.035
0.02
0.02
0.035
0.02
0.01
0.0
-0.005
0.005
0.0
-0.015
-0.015
-0.03
-0.04
-0.04
-0.02
-0.03
-0.04
-0.055
-0.065
-0.055
-0.055
-0.08
-0.09
-0.09
-0.105
-0.105
-0.08
-0.09
-0.115
-0.135
-0.125
-0.125
-0.13
-0.13
-0.14
-0.155
-0.165
-0.16
-0.15
-0.165
-0.19
-0.195
-0.2
-0.195
-0.17
-0.18
-0.205
-0.19
-0.205
-0.2
-0.175
-0.19
-0.205
-0.21
-0.215
-0.215
-0.19
-0.195
-0.225
-0.215
-0.235
-0.21
-0.195
-0.2
-0.215
-0.22
-0.23
-0.215
-0.21
-0.21
-0.22
-0.225
-0.235
-0.23
-0.22
-0.22
-0.23
-0.245
-0.25
-0.245
-0.225
-0.22
-0.22
-0.205
-0.205
-0.185
-0.18
-0.17
-0.17
-0.195
-0.2
-0.19
-0.195
-0.18
-0.2
-0.22
-0.22
-0.215
-0.215
-0.235
-0.235
-0.245
-0.245
-0.24
-0.24
-0.25
-0.255
-0.25
-0.25
-0.25
-0.23
-0.235
-0.245
-0.26
-0.28
-0.265
-0.25
-0.255
-0.255
-0.265
-0.275
-0.26
-0.245
-0.25
-0.25
-0.27
-0.27
-0.27
-0.26
-0.26
-0.27
-0.27
-0.28
-0.275
-0.255
-0.255
-0.275
-0.285
-0.295
-0.27
-0.26
-0.265
-0.28
-0.305
-0.305
-0.28
-0.265
-0.27
-0.285
-0.3
-0.295
-0.285
-0.265
-0.28
-0.29
-0.285
-0.285
-0.27
-0.26
-0.25
-0.265
-0.27
-0.27
-0.245
-0.23
-0.245
-0.255
-0.295
-0.315
-0.335
-0.35
-0.375
-0.42
-0.465
-0.475
-0.505
-0.565
-0.635
-0.67
-0.695
-0.79
-0.925
-1.095
-1.35
-1.58
-1.68
-1.67
-1.61
-1.545
-1.5
-1.44
-1.365
-1.255
-1.135
-1.015
-0.945
-0.875
-0.82
-0.76
-0.685
-0.615
-0.54
-0.455
-0.385
-0.325
-0.265
-0.23
-0.22
-0.22
-0.225
-0.225
-0.225
-0.21
-0.21
-0.21
-0.225
-0.2
-0.195
-0.175
-0.185
-0.195
-0.195
-0.205
-0.18
-0.175
-0.16
-0.175
-0.19
-0.18
-0.17
-0.155
-0.15
-0.155
-0.16
-0.165
-0.15
-0.14
-0.135
-0.14
-0.145
-0.135
-0.11
-0.11
-0.11
-0.105
-0.105
-0.1
-0.085
-0.065
-0.06
-0.06
-0.07
-0.05
-0.04
-0.035
-0.025
-0.03
-0.025
-0.015
0.0
0.015
0.025
0.02
0.03
0.02
0.05
0.05
0.065
0.07
0.07
0.07
0.095
0.11
0.12
0.1
0.115
0.125
0.14
0.14
0.155
0.15
0.14
0.155
0.165
0.185
0.175
0.175
0.165
0.17
0.19
0.205
0.21
0.2
0.18
0.185
0.18
0.195
0.19
0.165
0.165
0.16
0.175
0.165
0.165
0.14
0.13
0.145
0.135
0.135
0.125
0.1
0.095
0.09
0.085
0.08
0.07
0.06
0.055
0.06
0.065
0.075
0.055
0.035
0.035
0.03
0.04
0.04
0.035
0.02
-0.01
-0.02
0.0
0.0
-0.005
-0.025
-0.055
-0.035
-0.03
-0.03
-0.035
-0.06
-0.08
-0.09
-0.085
-0.075
-0.06
-0.09
-0.105
-0.11
-0.1
-0.095
-0.11
-0.15
-0.17
-0.175
-0.15
-0.165
-0.18
-0.18
-0.21
-0.22
-0.215
-0.2
-0.225
-0.24
-0.255
-0.255
-0.245
-0.26
-0.275
-0.305
-0.31
-0.32
-0.285
-0.285
-0.285
-0.29
-0.32
-0.335
-0.34
-0.345
-0.345
-0.345
-0.355
-0.355
-0.34
-0.33
-0.34
-0.35
-0.37
-0.365
-0.37
-0.37
-0.375
-0.39
-0.41
-0.39
-0.385
-0.37
-0.395
-0.4
-0.405
-0.41
-0.395
-0.385
-0.385
-0.405
-0.415
-0.405
-0.395
-0.385
-0.38
-0.4
-0.405
-0.42
-0.405
-0.4
-0.405
-0.405
-0.38
-0.375
-0.365
-0.35
-0.355
-0.365
-0.375
-0.365
-0.345
-0.335
-0.355
-0.375
-0.385
-0.38
-0.375
-0.37
-0.38
-0.4
-0.42
-0.42
-0.41
-0.405
-0.425
-0.445
-0.455
-0.435
-0.4
-0.395
-0.42
-0.43
-0.44
-0.43
-0.445
-0.435
-0.425
-0.435
-0.435
-0.43
-0.42
-0.4
-0.405
-0.415
-0.43
-0.44
-0.435
-0.42
-0.435
-0.445
-0.44
-0.43
-0.43
-0.415
-0.405
-0.405
-0.42
-0.425
-0.425
-0.425
-0.435
-0.43
-0.425
-0.42
-0.43
-0.425
-0.44
-0.42
-0.415
-0.405
-0.39
-0.385
-0.385
-0.4
-0.435
-0.425
-0.4
-0.39
-0.405
-0.405
-0.415
-0.4
-0.385
-0.38
-0.375
-0.385
-0.375
-0.385
-0.4
-0.405
-0.425
-0.46
-0.505
-0.545
-0.585
-0.59
-0.6
-0.675
-0.77
-0.805
-0.81
-0.83
-0.925
-1.09
-1.3
-1.53
-1.67
-1.69
-1.665
-1.645
-1.6
-1.535
-1.44
-1.34
-1.25
-1.17
-1.085
-1.0
-0.91
-0.86
-0.8
-0.785
-0.745
-0.69
-0.58
-0.48
-0.41
-0.355
-0.34
-0.325
-0.315
-0.295
-0.28
-0.29
-0.305
-0.31
-0.285
-0.26
-0.255
-0.27
-0.285
-0.285
-0.265
-0.23
-0.235
-0.235
-0.25
-0.255
-0.255
-0.24
-0.24
-0.25
-0.23
-0.215
-0.205
-0.195
-0.2
-0.18
-0.195
-0.195
-0.185
-0.185
-0.165
-0.18
-0.185
-0.17
-0.145
-0.13
-0.13
-0.135
-0.14
-0.14
-0.105
-0.09
-0.08
-0.095
-0.085
-0.075
-0.05
-0.035
-0.035
-0.05
-0.06
-0.06
-0.03
-0.005
-0.015
-0.035
-0.005
0.02
0.045
0.075
0.075
0.055
0.03
0.04
0.055
0.105
0.1
0.095
0.07
0.07
0.1
0.135
0.135
0.145
0.155
0.16
0.165
0.155
0.165
0.16
0.145
0.155
0.165
0.19
0.2
0.19
0.165
0.16
0.18
0.19
0.18
0.165
0.155
0.165
0.17
0.185
0.175
0.155
0.135
0.14
0.145
0.16
0.155
0.135
0.105
0.105
0.12
0.125
0.125
0.105
0.09
0.1
0.11
0.11
0.105
0.08
0.065
0.03
0.05
0.045
0.04
0.02
0.015
0.02
0.035
0.035
0.035
0.01
-0.005
-0.01
0.015
0.01
-0.015
-0.035
-0.06
-0.055
-0.035
-0.025
-0.03
-0.05
-0.06
-0.055
-0.04
-0.03
-0.045
-0.065
-0.08
-0.1
-0.09
-0.09
-0.105
-0.13
-0.12
-0.13
-0.115
-0.115
-0.125
-0.135
-0.155
-0.165
-0.155
-0.145
-0.165
-0.17
-0.19
-0.19
-0.195
-0.21
-0.22
-0.225
-0.23
-0.21
-0.22
-0.23
-0.245
-0.255
-0.265
-0.25
-0.24
-0.235
-0.24
-0.26
-0.285
-0.275
-0.27
-0.28
-0.275
-0.295
-0.295
-0.3
-0.295
-0.28
-0.285
-0.295
-0.295
-0.295
-0.27
-0.285
-0.295
-0.3
-0.305
-0.305
-0.295
-0.29
-0.295
-0.315
-0.31
-0.295
-0.28
-0.27
-0.28
-0.3
-0.325
-0.315
-0.31
-0.3
-0.305
-0.315
-0.305
-0.305
-0.295
-0.3
-0.31
-0.32
-0.305
-0.295
-0.295
-0.255
-0.26
-0.27
-0.265
-0.265
-0.255
-0.255
-0.26
-0.275
-0.275
-0.28
-0.27
-0.265
-0.28
-0.29
-0.305
-0.305
-0.29
-0.29
-0.295
-0.32
-0.335
-0.34
-0.34
-0.335
-0.325
-0.335
-0.34
-0.325
-0.31
-0.3
-0.31
-0.33
-0.345
-0.35
-0.335
-0.32
-0.33
-0.34
-0.345
-0.33
-0.325
-0.32
-0.325
-0.33
-0.335
-0.335
-0.335
-0.34
-0.325
-0.345
-0.36
-0.345
-0.32
-0.32
-0.32
-0.325
-0.33
-0.335
-0.325
-0.31
-0.32
-0.335
-0.34
-0.345
-0.32
-0.32
-0.33
-0.335
-0.345
-0.355
-0.33
-0.31
-0.33
-0.335
-0.335
-0.35
-0.34
-0.32
-0.315
-0.335
-0.325
-0.32
-0.295
-0.27
-0.28
-0.295
-0.3
-0.315
-0.345
-0.36
-0.385
-0.435
-0.475
-0.495
-0.51
-0.52
-0.57
-0.635
-0.68
-0.64
-0.64
-0.7
-0.85
-1.045
-1.3
-1.52
-1.615
-1.595
-1.555
-1.54
-1.49
-1.435
-1.34
-1.245
-1.155
-1.07
-1.005
-0.93
-0.875
-0.8
-0.74
-0.72
-0.685
-0.61
-0.515
-0.435
-0.36
-0.325
-0.295
-0.28
-0.255
-0.235
-0.24
-0.235
-0.245
-0.24
-0.235
-0.23
-0.225
-0.22
-0.235
-0.225
-0.215
-0.205
-0.21
-0.215
-0.215
-0.215
-0.2
-0.185
-0.195
-0.19
-0.2
-0.2
-0.185
-0.175
-0.175
-0.175
-0.185
-0.165
-0.155
-0.135
-0.14
-0.145
-0.145
-0.145
