Lead II
-0.195
-0.2
-0.195
-0.195
-0.21
-0.19
-0.155
-0.125
-0.125
-0.125
-0.125
-0.11
-0.095
-0.08
-0.075
-0.1
-0.095
-0.06
-0.045
-0.02
-0.01
-0.05
-0.07
-0.075
-0.06
-0.035
-0.05
-0.065
-0.085
-0.11
-0.11
-0.12
-0.13
-0.15
-0.165
-0.17
-0.16
-0.155
-0.185
-0.21
-0.215
-0.215
-0.23
-0.23
-0.235
-0.27
-0.29
-0.285
-0.27
-0.255
-0.26
-0.275
-0.28
-0.265
-0.255
-0.24
-0.255
-0.26
-0.285
-0.26
-0.25
-0.25
-0.27
-0.27
-0.285
-0.29
-0.28
-0.27
-0.275
-0.28
-0.275
-0.265
-0.27
-0.255
-0.27
-0.28
-0.275
-0.27
-0.27
-0.25
-0.265
-0.28
-0.28
-0.28
-0.26
-0.265
-0.28
-0.275
-0.29
-0.285
-0.29
-0.27
-0.295
-0.305
-0.31
-0.315
-0.29
-0.28
-0.28
-0.29
-0.305
-0.315
-0.275
-0.27
-0.285
-0.31
-0.305
-0.29
-0.285
-0.275
-0.28
-0.295
-0.315
-0.315
-0.32
-0.315
-0.32
-0.33
-0.33
-0.315
-0.3
-0.305
-0.31
-0.32
-0.315
-0.32
-0.31
-0.295
-0.305
-0.32
-0.33
-0.305
-0.29
-0.285
-0.295
-0.3
-0.285
-0.28
-0.275
-0.255
-0.255
-0.235
-0.2
-0.14
-0.065
0.03
0.135
0.26
0.45
0.65
0.86
1.07
1.22
1.315
1.33
1.24
1.09
0.865
0.59
0.315
0.05
-0.14
-0.25
-0.275
-0.27
-0.275
-0.27
-0.28
-0.27
-0.285
-0.315
-0.33
-0.365
-0.37
-0.375
-0.395
-0.4
-0.42
-0.425
-0.435
-0.41
-0.41
-0.425
-0.455
-0.445
-0.44
-0.43
-0.43
-0.43
-0.45
-0.46
-0.445
-0.45
-0.435
-0.44
-0.46
-0.46
-0.46
-0.45
-0.435
-0.44
-0.445
-0.455
-0.43
-0.42
-0.415
-0.42
-0.435
-0.43
-0.415
-0.415
-0.41
-0.405
-0.43
-0.415
-0.41
-0.385
-0.38
-0.395
-0.415
-0.39
-0.385
-0.36
-0.35
-0.35
-0.36
-0.365
-0.36
-0.35
-0.35
-0.35
-0.345
-0.345
-0.33
-0.325
-0.31
-0.32
-0.33
-0.335
-0.325
-0.305
-0.295
-0.3
-0.32
-0.315
-0.32
-0.295
-0.285
-0.285
-0.3
-0.295
-0.295
-0.26
-0.235
-0.235
-0.25
-0.235
-0.23
-0.225
-0.21
-0.22
-0.23
-0.24
-0.25
-0.225
-0.23
-0.24
-0.27
-0.275
-0.275
-0.29
-0.29
-0.29
-0.335
-0.335
-0.34
-0.315
-0.335
-0.34
-0.365
-0.4
-0.39
-0.365
-0.37
-0.36
-0.39
-0.39
-0.37
-0.365
-0.36
-0.37
-0.38
-0.395
-0.39
-0.38
-0.355
-0.375
-0.375
-0.385
-0.375
-0.36
-0.365
-0.375
-0.385
-0.385
-0.375
-0.35
-0.34
-0.345
-0.355
-0.36
-0.355
-0.325
-0.345
-0.345
-0.36
-0.365
-0.36
-0.35
-0.33
-0.34
-0.365
-0.365
-0.355
-0.33
-0.325
-0.345
-0.355
-0.37
-0.37
-0.35
-0.35
-0.345
-0.36
-0.37
-0.37
-0.365
-0.37
-0.38
-0.4
-0.395
-0.4
-0.39
-0.375
-0.385
-0.41
-0.395
-0.385
-0.36
-0.375
-0.385
-0.39
-0.395
-0.38
-0.37
-0.345
-0.35
-0.365
-0.36
-0.345
-0.335
-0.35
-0.35
-0.365
-0.36
-0.36
-0.345
-0.325
-0.35
-0.365
-0.35
-0.36
-0.35
-0.34
-0.32
-0.31
-0.275
-0.23
-0.145
-0.06
0.055
0.185
0.375
0.6
0.835
1.06
1.25
1.33
1.295
1.145
0.865
0.535
0.195
-0.115
-0.355
-0.45
-0.43
-0.39
-0.355
-0.36
-0.37
-0.37
-0.385
-0.39
-0.41
-0.43
-0.445
-0.445
-0.445
-0.46
-0.465
-0.485
-0.475
-0.475
-0.47
-0.465
-0.49
-0.495
-0.515
-0.5
-0.495
-0.495
-0.505
-0.52
-0.54
-0.53
-0.5
-0.495
-0.51
-0.52
-0.52
-0.51
-0.49
-0.49
-0.48
-0.495
-0.5
-0.5
-0.5
-0.475
-0.49
-0.5
-0.51
-0.5
-0.46
-0.455
-0.465
-0.485
-0.49
-0.47
-0.455
-0.445
-0.445
-0.45
-0.455
-0.43
-0.41
-0.415
-0.42
-0.43
-0.43
-0.425
-0.39
-0.39
-0.385
-0.4
-0.395
-0.395
-0.385
-0.38
-0.36
-0.375
-0.36
-0.35
-0.335
-0.335
-0.33
-0.34
-0.33
-0.325
-0.32
-0.305
-0.32
-0.315
-0.3
-0.285
-0.265
-0.265
-0.275
-0.29
-0.295
-0.28
-0.29
-0.27
-0.27
-0.28
-0.3
-0.305
-0.325
-0.315
-0.335
-0.345
-0.365
-0.355
-0.345
-0.36
-0.365
-0.4
-0.41
-0.39
-0.38
-0.375
-0.4
-0.405
-0.405
-0.39
-0.39
-0.395
-0.415
-0.435
-0.415
-0.41
-0.385
-0.38
-0.385
-0.41
-0.41
-0.395
-0.38
-0.38
-0.385
-0.395
-0.385
-0.375
-0.355
-0.35
-0.35
-0.375
-0.37
-0.355
-0.365
-0.37
-0.37
-0.37
-0.36
-0.355
-0.36
-0.355
-0.36
-0.37
-0.385
-0.37
-0.355
-0.345
-0.34
-0.36
-0.365
-0.365
-0.35
-0.345
-0.355
-0.375
-0.39
-0.385
-0.39
-0.37
-0.38
-0.39
-0.385
-0.37
-0.36
-0.345
-0.365
-0.395
-0.4
-0.38
-0.405
-0.4
-0.39
-0.4
-0.405
-0.425
-0.405
-0.4
-0.405
-0.41
-0.42
-0.4
-0.395
-0.385
-0.405
-0.425
-0.4
-0.395
-0.395
-0.4
-0.395
-0.39
-0.395
-0.385
-0.38
-0.38
-0.395
-0.41
-0.415
-0.395
-0.38
-0.36
-0.375
-0.37
-0.4
-0.38
-0.375
-0.37
-0.38
-0.405
-0.395
-0.39
-0.37
-0.37
-0.375
-0.375
-0.365
-0.37
-0.37
-0.37
-0.405
-0.395
-0.385
-0.375
-0.345
-0.35
-0.36
-0.39
-0.4
-0.395
-0.38
-0.385
-0.38
-0.39
-0.405
-0.395
-0.37
-0.37
-0.39
-0.405
-0.405
-0.39
-0.37
-0.375
-0.39
-0.405
-0.4
-0.405
-0.37
-0.375
-0.375
-0.385
-0.39
-0.375
-0.355
-0.37
-0.38
-0.4
-0.385
-0.37
-0.355
-0.35
-0.36
-0.385
-0.39
-0.39
-0.355
-0.345
-0.365
-0.37
-0.355
-0.35
-0.335
-0.325
-0.34
-0.34
-0.34
-0.32
-0.27
-0.21
-0.14
-0.05
0.06
0.215
0.39
0.595
0.785
0.97
1.105
1.215
1.185
1.01
0.73
0.44
0.14
-0.14
-0.355
-0.46
-0.465
-0.425
-0.39
-0.35
-0.35
-0.36
-0.38
-0.415
-0.43
-0.425
-0.405
-0.415
-0.415
-0.43
-0.445
-0.45
-0.45
-0.435
-0.45
-0.465
-0.46
-0.45
-0.44
-0.45
-0.47
-0.485
-0.47
-0.47
-0.465
-0.47
-0.475
-0.485
-0.48
-0.47
-0.475
-0.48
-0.485
-0.485
-0.485
-0.475
-0.455
-0.455
-0.46
-0.48
-0.495
-0.48
-0.465
-0.46
-0.475
-0.475
-0.465
-0.455
-0.43
-0.415
-0.435
-0.435
-0.435
-0.41
-0.395
-0.38
-0.385
-0.39
-0.385
-0.38
-0.365
-0.355
-0.38
-0.385
-0.365
-0.335
-0.33
-0.33
-0.34
-0.355
-0.345
-0.325
-0.3
-0.295
-0.29
-0.3
-0.3
-0.285
-0.265
-0.25
-0.24
-0.255
-0.25
-0.225
-0.205
-0.185
-0.19
-0.21
-0.22
-0.215
-0.2
-0.2
-0.21
-0.23
-0.24
-0.235
-0.245
-0.25
-0.275
-0.295
-0.315
-0.305
-0.29
-0.275
-0.29
-0.315
-0.3
-0.295
-0.295
-0.3
-0.295
-0.305
-0.305
-0.295
-0.29
-0.285
-0.285
-0.305
-0.305
-0.31
-0.29
-0.285
-0.285
-0.305
-0.315
-0.3
-0.285
-0.29
-0.295
-0.305
-0.3
-0.29
-0.28
-0.28
-0.28
-0.305
-0.29
-0.275
-0.255
-0.26
-0.27
-0.295
-0.3
-0.295
-0.295
-0.285
-0.29
-0.305
-0.31
-0.295
-0.27
-0.26
-0.28
-0.295
-0.285
-0.28
-0.27
-0.27
-0.26
-0.275
-0.275
-0.27
-0.26
-0.27
-0.27
-0.285
-0.28
-0.27
-0.28
-0.285
-0.295
-0.3
-0.31
-0.295
-0.295
-0.28
-0.28
-0.29
-0.29
-0.285
-0.27
-0.26
-0.28
-0.285
-0.27
-0.245
-0.195
-0.16
-0.13
-0.09
0.0
0.12
0.3
0.485
0.685
0.855
1.025
1.15
1.16
1.05
0.85
0.56
0.265
-0.01
-0.22
-0.345
-0.375
-0.36
-0.34
-0.31
-0.3
-0.305
-0.315
-0.34
-0.365
-0.375
-0.35
-0.36
-0.37
-0.385
-0.39
-0.375
-0.385
-0.385
-0.395
-0.41
-0.395
-0.385
-0.365
-0.36
-0.385
-0.4
-0.4
-0.38
-0.37
-0.36
-0.37
-0.385
-0.4
-0.41
-0.39
-0.39
-0.41
-0.425
-0.425
-0.41
-0.395
-0.39
-0.41
-0.42
-0.41
-0.395
-0.385
-0.37
-0.37
-0.375
-0.38
-0.375
-0.355
-0.35
-0.35
-0.365
-0.365
-0.365
-0.335
-0.33
-0.325
-0.34
-0.335
-0.33
-0.31
-0.3
-0.31
-0.315
-0.325
-0.295
-0.275
-0.26
-0.255
-0.265
-0.255
-0.23
-0.22
-0.215
-0.205
-0.225
-0.235
-0.225
-0.205
-0.195
-0.215
-0.225
-0.225
-0.215
-0.205
-0.185
-0.195
-0.205
-0.205
-0.2
-0.19
-0.18
-0.185
-0.21
-0.235
-0.2
-0.205
-0.205
-0.22
-0.25
-0.245
-0.24
-0.245
-0.25
-0.27
-0.295
-0.29
-0.26
-0.255
-0.28
-0.28
-0.295
-0.29
-0.28
-0.285
-0.28
-0.29
-0.305
-0.315
-0.295
-0.275
-0.27
-0.28
-0.315
-0.31
-0.295
-0.275
-0.29
-0.31
-0.315
-0.305
-0.3
-0.27
-0.27
-0.27
-0.285
-0.285
-0.265
-0.25
-0.26
-0.25
-0.265
-0.29
-0.285
-0.255
-0.255
-0.275
-0.28
-0.28
-0.275
-0.28
-0.28
-0.285
-0.29
-0.29
-0.285
-0.265
-0.26
-0.28
-0.29
-0.29
-0.27
-0.275
-0.255
-0.27
-0.27
-0.275
-0.245
-0.235
-0.24
-0.24
-0.275
-0.28
-0.27
-0.275
-0.285
-0.285
-0.315
-0.32
-0.315
-0.295
-0.3
-0.305
-0.305
-0.31
-0.295
-0.275
-0.255
-0.275
-0.285
-0.28
-0.275
-0.26
-0.25
-0.285
-0.285
-0.29
-0.29
-0.27
-0.28
-0.295
-0.31
-0.31
-0.3
-0.285
-0.295
-0.3
-0.31
-0.315
-0.29
-0.29
-0.275
-0.29
-0.3
-0.31
-0.295
-0.27
-0.265
-0.275
-0.28
-0.275
-0.27
-0.255
-0.245
-0.275
-0.285
-0.27
-0.255
-0.255
-0.26
-0.27
-0.285
-0.29
-0.275
-0.28
-0.285
-0.28
-0.285
-0.275
-0.26
-0.26
-0.265
-0.27
-0.29
-0.265
-0.26
-0.25
-0.245
-0.25
-0.27
-0.265
-0.24
-0.22
-0.225
-0.22
-0.235
-0.23
-0.195
-0.15
-0.09
-0.055
-0.01
0.075
0.2
0.345
0.47
0.625
0.77
0.92
1.03
1.065
0.965
0.775
0.525
0.27
0.04
-0.135
-0.26
-0.295
-0.275
-0.265
-0.245
-0.245
-0.26
-0.285
-0.31
-0.315
-0.32
-0.32
-0.33
-0.36
-0.365
-0.36
-0.35
-0.34
-0.365
-0.365
-0.39
-0.38
-0.365
-0.345
-0.33
-0.335
-0.35
-0.35
-0.355
-0.325
-0.335
-0.345
-0.365
-0.365
-0.34
-0.325
-0.34
-0.36
-0.36
-0.365
-0.35
-0.34
-0.32
-0.33
-0.35
-0.355
-0.36
-0.355
-0.35
-0.36
-0.38
-0.36
-0.355
-0.35
-0.335
-0.36
-0.365
-0.37
-0.345
-0.32
-0.315
-0.32
-0.34
-0.335
-0.32
-0.295
-0.3
-0.295
-0.305
-0.3
-0.265
-0.255
-0.24
-0.26
-0.25
-0.24
-0.21
-0.185
-0.195
-0.19
-0.18
-0.165
-0.145
-0.14
-0.135
-0.15
-0.16
-0.145
-0.125
-0.1
-0.11
-0.12
-0.135
-0.14
-0.13
-0.12
-0.13
-0.145
-0.16
-0.17
-0.16
-0.155
-0.165
-0.195
-0.21
-0.235
-0.225
-0.22
-0.22
-0.225
-0.26
-0.26
-0.25
-0.245
-0.255
-0.26
-0.275
-0.28
-0.26
-0.24
-0.25
-0.265
-0.275
-0.29
-0.26
-0.245
-0.23
-0.23
-0.25
-0.25
-0.225
-0.215
-0.23
-0.26
-0.255
-0.265
-0.26
-0.255
-0.24
-0.245
-0.255
-0.255
-0.22
-0.215
-0.205
-0.25
-0.255
-0.24
-0.225
-0.2
-0.22
-0.24
-0.25
-0.25
-0.23
-0.215
-0.225
-0.255
-0.275
-0.27
-0.255
-0.23
-0.245
-0.235
-0.24
-0.225
-0.2
-0.2
-0.225
-0.24
-0.255
-0.25
-0.245
-0.245
-0.245
-0.27
-0.28
-0.26
-0.23
-0.2
-0.225
-0.235
-0.25
-0.26
-0.265
-0.265
-0.265
-0.25
-0.25
-0.27
-0.245
-0.225
-0.205
-0.23
-0.25
-0.255
-0.23
-0.215
-0.205
-0.225
-0.235
-0.25
-0.24
-0.23
-0.215
-0.25
-0.265
-0.265
-0.23
-0.195
-0.195
-0.2
-0.22
-0.22
-0.2
-0.18
-0.155
-0.14
-0.125
-0.08
-0.025
0.065
0.155
0.285
0.425
0.615
0.8
1.005
1.2
1.315
1.345
1.255
1.065
0.82
0.515
0.185
-0.12
-0.345
-0.42
-0.405
-0.35
-0.32
-0.33
-0.325
-0.31
-0.305
-0.3
-0.295
-0.31
-0.315
-0.325
-0.32
-0.315
-0.31
-0.32
-0.32
-0.32
-0.315
-0.325
-0.345
-0.35
-0.36
-0.36
-0.345
-0.345
-0.35
-0.365
-0.365
-0.35
-0.335
-0.34
-0.345
-0.375
-0.365
-0.36
-0.34
-0.34
-0.37
-0.385
-0.385
-0.365
-0.345
-0.355
-0.375
-0.375
-0.39
-0.39
-0.37
-0.39
-0.37
-0.37
-0.365
-0.345
-0.34
-0.32
-0.325
-0.315
-0.29
-0.285
-0.25
-0.25
-0.265
-0.28
-0.27
-0.245
-0.195
-0.2
-0.185
-0.19
-0.18
-0.17
-0.165
-0.175
-0.17
-0.175
-0.18
-0.17
-0.15
-0.14
-0.145
-0.155
-0.16
-0.135
-0.125
-0.105
-0.12
-0.145
-0.14
-0.155
-0.15
-0.15
-0.175
-0.185
-0.195
-0.185
-0.18
-0.17
-0.18
-0.185
-0.215
-0.215
-0.205
-0.205
-0.225
-0.255
-0.24
-0.23
-0.235
-0.235
-0.24
-0.265
-0.25
-0.23
-0.22
-0.21
-0.215
-0.245
-0.24
-0.245
-0.215
-0.2
-0.21
-0.215
-0.215
-0.185
-0.18
-0.185
-0.2
-0.22
-0.235
-0.225
-0.22
-0.21
-0.215
-0.215
-0.215
-0.21
-0.195
-0.19
-0.205
-0.215
-0.205
-0.195
-0.185
-0.15
-0.165
-0.185
-0.205
-0.18
-0.17
-0.185
-0.185
-0.2
-0.19
-0.16
-0.155
-0.165
-0.17
-0.185
-0.18
-0.165
-0.155
-0.155
-0.185
-0.2
-0.19
-0.18
-0.16
-0.16
-0.18
-0.18
-0.175
-0.145
-0.13
-0.13
-0.16
-0.185
-0.19
-0.165
-0.155
-0.155
-0.17
-0.185
-0.185
-0.18
-0.16
-0.155
-0.175
-0.195
-0.2
-0.19
-0.185
-0.175
-0.18
-0.19
-0.19
-0.18
-0.165
-0.185
-0.2
-0.23
-0.245
-0.25
-0.225
-0.195
-0.19
-0.195
-0.205
-0.205
-0.185
-0.165
-0.16
-0.165
-0.155
-0.145
-0.15
-0.135
-0.105
-0.06
0.01
0.1
0.19
0.325
0.485
0.685
0.935
1.15
1.325
1.46
1.495
1.41
1.21
0.965
0.7
0.39
0.075
-0.21
-0.355
-0.335
-0.255
-0.23
-0.235
-0.25
-0.245
-0.245
-0.225
-0.255
-0.31
-0.36
-0.355
-0.335
-0.305
-0.285
-0.28
-0.265
-0.265
-0.26
-0.265
-0.295
-0.295
-0.31
-0.32
-0.32
-0.3
-0.295
-0.29
-0.315
-0.315
-0.33
-0.32
-0.31
-0.32
-0.31
-0.315
-0.325
-0.315
-0.32
-0.325
-0.34
-0.335
-0.315
-0.305
-0.335
-0.335
-0.33
-0.325
-0.32
-0.295
-0.32
-0.335
-0.36
-0.355
-0.32
-0.265
-0.23
-0.235
-0.27
-0.28
-0.275
-0.27
-0.26
-0.26
-0.25
-0.24
-0.23
-0.225
-0.26
-0.275
-0.285
-0.26
-0.22
-0.16
-0.14
-0.14
-0.165
-0.195
-0.17
-0.175
-0.195
-0.205
-0.205
-0.185
-0.175
-0.155
-0.17
-0.16
-0.165
-0.18
-0.175
-0.155
-0.145
-0.165
-0.19
-0.18
-0.155
-0.115
-0.12
-0.165
-0.195
-0.21
-0.195
-0.175
-0.185
-0.21
-0.215
-0.245
-0.25
-0.265
-0.26
-0.25
-0.27
-0.3
-0.315
-0.305
-0.3
-0.32
-0.29
-0.26
-0.24
-0.255
-0.28
-0.305
-0.32
-0.325
-0.27
-0.255
-0.25
-0.27
-0.28
-0.295
-0.31
-0.315
-0.335
-0.33
-0.33
-0.285
-0.235
-0.21
-0.225
-0.265
-0.29
-0.31
-0.35
-0.345
-0.33
-0.315
-0.29
-0.26
-0.255
-0.25
-0.275
-0.295
-0.31
-0.295
-0.275
-0.25
-0.245
-0.245
-0.28
-0.305
-0.315
-0.315
-0.335
-0.325
-0.28
-0.25
-0.225
-0.21
-0.215
-0.245
-0.27
-0.32
-0.345
-0.345
-0.305
-0.285
-0.29
-0.3
-0.3
-0.295
-0.29
-0.31
-0.335
-0.335
-0.295
-0.27
-0.27
-0.305
-0.315
-0.305
-0.29
-0.27
-0.295
-0.31
-0.345
-0.36
-0.355
-0.33
-0.345
-0.345
-0.345
-0.315
-0.33
-0.365
-0.365
-0.37
-0.365
-0.355
-0.355
-0.315
-0.295
-0.315
-0.355
-0.39
-0.385
-0.355
-0.325
-0.29
-0.285
-0.295
-0.29
-0.28
-0.295
-0.3
-0.305
-0.265
-0.22
-0.175
-0.11
-0.015
0.12
0.29
0.475
0.665
0.84
1.005
1.145
1.21
1.195
1.13
0.965
0.705
0.425
0.14
-0.12
-0.33
-0.46
-0.47
-0.43
-0.385
-0.345
-0.33
-0.325
-0.35
-0.385
-0.42
-0.42
-0.41
-0.43
-0.45
-0.465
-0.475
-0.44
-0.41
-0.415
-0.435
-0.46
-0.455
-0.46
-0.45
-0.47
-0.475
-0.49
-0.495
-0.485
-0.46
-0.45
-0.465
-0.475
-0.495
-0.485
-0.445
-0.425
-0.425
-0.44
-0.455
-0.465
-0.445
-0.44
-0.455
-0.44
-0.425
-0.42
-0.405
-0.39
-0.39
-0.395
-0.39
-0.39
-0.36
-0.37
-0.395
-0.415
-0.38
-0.355
-0.355
-0.355
-0.37
-0.375
-0.35
-0.315
-0.27
-0.27
-0.275
-0.28
-0.275
-0.255
-0.225
-0.235
-0.205
-0.215
-0.2
-0.185
-0.12
-0.07
-0.01
0.045
0.095
0.115
0.14
0.11
0.06
0.035
0.07
0.075
0.09
0.085
0.06
0.04
0.0
-0.01
-0.05
-0.11
-0.16
-0.185
-0.22
-0.225
-0.225
-0.215
-0.225
-0.225
-0.22
-0.215
-0.21
-0.205
-0.23
-0.26
-0.275
-0.255
-0.245
-0.25
-0.26
-0.285
-0.305
-0.29
-0.285
-0.28
-0.295
-0.305
-0.31
-0.3
-0.275
-0.28
-0.28
-0.3
-0.28
-0.245
-0.215
-0.185
-0.18
-0.18
-0.165
-0.13
-0.105
-0.095
-0.065
-0.045
0.02
0.09
0.165
0.225
0.28
0.35
0.435
0.51
0.57
0.64
0.72
0.805
0.895
0.975
1.07
1.115
1.135
1.125
1.1
1.075
1.07
1.045
0.995
0.905
0.81
0.755
0.685
0.6
0.48
0.335
0.265
0.215
0.16
0.13
0.105
0.08
0.085
0.09
0.09
0.11
0.14
0.185
0.25
0.31
0.35
0.29
0.15
-0.075
-0.265
-0.39
-0.445
-0.485
-0.535
-0.58
-0.59
-0.605
-0.6
-0.62
-0.66
-0.7
-0.705
-0.71
-0.7
-0.735
-0.74
-0.75
-0.785
-0.76
-0.76
-0.77
-0.8
-0.81
-0.81
-0.81
-0.795
-0.82
-0.855
-0.86
-0.87
-0.865
-0.875
-0.89
-0.92
-0.935
-0.925
-0.915
-0.925
-0.92
-0.93
-0.955
-0.945
-0.94
-0.94
-0.95
-0.97
-0.975
-0.98
-0.97
-0.945
-0.945
-0.95
-0.975
-0.97
-0.97
-0.94
-0.935
-0.94
-0.935
-0.93
-0.915
-0.9
-0.88
-0.885
-0.885
-0.87
-0.84
-0.82
-0.795
-0.78
-0.79
-0.765
-0.73
-0.695
-0.675
-0.66
-0.675
-0.64
-0.605
-0.585
-0.57
-0.55
-0.56
-0.525
-0.505
-0.485
-0.485
-0.47
-0.465
-0.455
-0.435
-0.43
-0.425
-0.41
-0.41
-0.4
-0.39
-0.365
-0.385
-0.37
-0.38
-0.37
-0.35
-0.335
-0.35
-0.35
-0.35
-0.35
-0.345
-0.335
-0.325
-0.33
-0.35
-0.335
-0.33
-0.31
-0.33
-0.325
-0.34
-0.35
-0.32
-0.305
-0.31
-0.32
-0.335
-0.35
-0.325
-0.33
-0.315
-0.33
-0.335
-0.32
-0.31
-0.29
-0.3
-0.315
-0.34
-0.33
-0.305
-0.28
-0.285
-0.295
-0.305
-0.295
-0.285
-0.275
-0.275
-0.295
-0.31
-0.29
-0.285
-0.27
-0.275
-0.295
-0.31
-0.285
-0.285
-0.265
-0.265
-0.285
-0.285
-0.28
-0.265
-0.255
-0.245
-0.255
-0.28
-0.29
-0.275
-0.26
-0.27
-0.27
-0.29
-0.28
-0.275
-0.26
-0.27
-0.27
-0.275
-0.27
-0.265
-0.245
-0.255
-0.27
-0.275
-0.275
-0.25
-0.25
-0.26
-0.275
-0.285
-0.27
-0.26
-0.255
-0.265
-0.27
-0.275
-0.255
-0.255
-0.225
-0.23
-0.25
-0.26
-0.255
-0.25
-0.24
-0.255
-0.255
-0.27
-0.265
-0.23
-0.22
-0.225
-0.24
-0.27
-0.245
-0.245
-0.225
-0.245
-0.25
-0.265
-0.255
-0.255
-0.23
-0.245
-0.255
-0.265
-0.25
-0.255
-0.25
-0.25
-0.26
-0.26
-0.255
-0.235
-0.22
-0.215
-0.22
-0.25
-0.27
-0.255
-0.25
-0.245
-0.25
-0.24
-0.215
-0.215
-0.195
-0.22
-0.24
-0.245
-0.25
-0.23
-0.22
-0.225
-0.235
-0.245
-0.255
-0.225
-0.22
-0.225
-0.225
-0.24
-0.22
-0.205
-0.19
-0.195
-0.2
-0.21
-0.21
-0.195
-0.185
-0.18
-0.195
-0.205
-0.205
-0.195
-0.19
-0.22
-0.22
-0.225
-0.23
-0.225
-0.21
-0.225
-0.22
-0.225
-0.215
-0.215
-0.185
-0.185
-0.195
-0.2
-0.195
-0.19
-0.185
-0.165
-0.19
-0.2
-0.2
-0.195
-0.185
-0.19
-0.205
-0.23
-0.21
-0.19
-0.185
-0.205
-0.215
-0.22
-0.21
-0.175
-0.155
-0.145
-0.16
-0.16
-0.17
-0.145
-0.13
-0.135
-0.15
-0.14
-0.135
-0.12
-0.115
-0.11
-0.11
-0.1
-0.07
0.01
0.1
0.175
0.265
0.39
0.575
0.76
0.97
1.125
1.27
1.405
1.43
1.34
1.13
0.825
0.55
0.26
0.0
-0.16
-0.21
-0.195
-0.165
-0.14
-0.13
-0.135
-0.15
-0.17
-0.19
-0.225
-0.235
-0.23
-0.22
-0.24
-0.25
-0.26
-0.27
-0.255
-0.26
-0.28
-0.285
-0.28
-0.28
-0.265
-0.245
-0.27
-0.29
-0.3
-0.295
-0.295
-0.265
-0.27
-0.29
-0.295
-0.285
-0.275
-0.26
-0.275
-0.275
-0.295
-0.29
-0.28
-0.26
-0.27
-0.27
-0.26
-0.26
-0.24
-0.235
-0.25
-0.26
-0.265
-0.25
-0.24
-0.235
-0.225
-0.24
-0.25
-0.245
-0.225
-0.22
-0.22
-0.225
-0.215
-0.2
-0.185
-0.18
-0.175
-0.18
-0.195
-0.19
-0.175
-0.155
-0.16
-0.17
-0.16
-0.15
-0.145
-0.12
-0.125
-0.14
-0.12
-0.105
-0.085
-0.07
-0.085
-0.075
-0.095
-0.085
-0.075
-0.03
-0.025
-0.035
-0.05
-0.03
0.0
0.02
0.005
-0.005
-0.01
-0.015
0.005
0.01
0.0
-0.015
-0.035
-0.045
-0.02
-0.015
-0.045
-0.055
-0.065
-0.085
-0.08
-0.085
-0.09
-0.105
-0.13
-0.13
-0.12
-0.105
-0.12
-0.135
-0.15
-0.15
-0.14
-0.145
-0.16
-0.155
-0.165
-0.155
-0.145
-0.13
-0.125
-0.11
-0.105
-0.095
-0.08
-0.08
-0.09
-0.1
-0.13
-0.125
-0.125
-0.125
-0.13
-0.16
-0.19
-0.22
-0.27
-0.36
-0.51
-0.675
-0.84
-0.975
-1.055
-1.075
-1.07
-1.065
-1.035
-0.97
-0.92
-0.885
-0.855
-0.825
-0.83
-0.81
-0.79
-0.785
-0.77
-0.775
-0.76
-0.72
-0.675
-0.64
-0.615
-0.61
-0.6
-0.56
-0.52
-0.475
-0.45
-0.415
-0.395
-0.34
-0.295
-0.26
-0.24
-0.23
-0.205
-0.175
-0.145
-0.09
-0.08
-0.08
-0.08
-0.07
-0.06
-0.04
-0.02
-0.015
-0.02
0.0
0.05
0.075
0.085
0.08
0.085
0.12
0.17
0.19
0.215
0.22
0.235
0.27
0.295
0.325
0.34
0.355
0.38
0.4
0.435
0.475
0.495
0.52
0.54
0.57
0.6
0.63
0.66
0.67
0.695
0.745
0.77
0.81
0.81
0.83
0.83
0.875
0.89
0.92
0.93
0.93
0.935
0.95
0.95
0.94
0.94
0.92
0.895
0.885
0.855
0.865
0.825
0.78
0.73
0.71
0.69
0.665
0.625
0.585
0.535
0.505
0.48
0.45
0.405
0.355
0.31
0.28
0.26
0.24
0.215
0.17
0.135
0.12
0.085
0.085
0.055
0.025
0.005
-0.02
-0.02
-0.025
-0.035
-0.055
-0.08
-0.085
-0.09
-0.105
-0.105
-0.125
-0.155
-0.155
-0.135
-0.14
-0.145
-0.165
-0.195
-0.195
-0.175
-0.17
-0.165
-0.18
-0.195
-0.205
-0.19
-0.2
-0.19
-0.21
-0.22
-0.21
-0.19
-0.19
-0.19
-0.21
-0.215
-0.22
-0.2
-0.205
-0.19
-0.205
-0.225
-0.23
-0.22
-0.215
-0.225
-0.225
-0.245
-0.235
-0.225
-0.21
-0.22
-0.22
-0.255
-0.245
-0.245
-0.235
-0.255
-0.265
-0.27
-0.27
-0.255
-0.26
-0.275
-0.29
-0.305
-0.3
-0.28
-0.275
-0.285
-0.29
-0.305
-0.285
-0.285
-0.275
-0.29
-0.3
-0.31
-0.3
-0.29
-0.28
-0.285
-0.305
-0.3
-0.305
-0.285
-0.265
-0.275
-0.305
-0.31
-0.285
-0.275
-0.26
-0.265
-0.285
-0.29
-0.27
-0.27
-0.27
-0.27
-0.28
-0.275
-0.27
-0.26
-0.24
-0.24
-0.24
-0.26
-0.255
-0.24
-0.235
-0.23
-0.25
-0.26
-0.25
-0.255
-0.235
-0.215
-0.225
-0.25
-0.255
-0.24
-0.235
-0.245
-0.27
-0.28
-0.27
-0.265
-0.255
-0.265
-0.285
-0.275
-0.275
-0.275
-0.27
-0.255
-0.27
-0.275
-0.275
-0.25
-0.245
-0.26
-0.265
-0.285
-0.27
-0.255
-0.25
-0.245
-0.265
-0.28
-0.265
-0.265
-0.255
-0.27
-0.285
-0.3
-0.29
-0.27
-0.255
-0.245
-0.265
-0.255
-0.25
-0.24
-0.245
-0.255
-0.23
-0.245
-0.235
-0.205
-0.21
-0.205
-0.215
-0.215
-0.225
-0.205
-0.2
-0.195
-0.16
-0.135
-0.07
0.01
0.08
0.155
0.26
0.44
0.635
0.83
1.01
1.15
1.245
1.285
1.205
1.03
0.76
0.47
0.165
-0.115
-0.315
-0.37
-0.36
-0.315
-0.3
-0.285
-0.275
-0.27
-0.275
-0.29
-0.295
-0.31
-0.31
-0.29
-0.32
-0.34
-0.355
-0.38
-0.36
-0.35
-0.36
-0.35
-0.365
-0.38
-0.385
-0.375
-0.375
-0.375
-0.385
-0.4
-0.375
-0.385
-0.36
-0.365
-0.37
-0.375
-0.37
-0.37
-0.365
-0.36
-0.38
-0.395
-0.385
-0.37
-0.375
-0.375
-0.37
-0.37
-0.36
-0.37
-0.35
-0.35
-0.36
-0.38
-0.375
-0.375
-0.355
-0.34
-0.345
-0.355
-0.335
-0.335
-0.315
-0.325
-0.33
-0.345
-0.33
-0.315
-0.295
-0.29
-0.29
-0.285
-0.28
-0.245
-0.245
-0.25
-0.245
-0.245
-0.22
-0.195
-0.185
-0.2
-0.235
-0.25
-0.24
-0.22
-0.2
-0.18
-0.175
-0.17
-0.16
-0.125
-0.09
-0.085
-0.105
-0.13
-0.135
-0.15
-0.13
-0.135
-0.12
-0.14
-0.125
-0.1
-0.085
-0.1
-0.115
-0.145
-0.145
-0.135
-0.11
-0.12
-0.135
-0.16
-0.165
-0.16
-0.165
-0.185
-0.2
-0.21
-0.2
-0.19
-0.185
-0.195
-0.21
-0.22
-0.21
-0.2
-0.205
-0.22
-0.225
-0.22
-0.23
-0.2
-0.2
-0.205
-0.215
-0.24
-0.225
-0.22
-0.21
-0.22
-0.24
-0.25
-0.25
-0.23
-0.22
-0.215
-0.23
-0.22
-0.235
-0.2
-0.195
-0.2
-0.225
-0.24
-0.22
-0.2
-0.19
-0.195
-0.215
-0.235
-0.24
-0.21
-0.195
-0.205
-0.2
-0.215
-0.215
-0.205
-0.19
-0.195
-0.205
-0.22
-0.215
-0.205
-0.195
-0.185
-0.205
-0.225
-0.23
-0.21
-0.205
-0.21
-0.23
-0.25
-0.245
-0.24
-0.215
-0.225
-0.245
-0.25
-0.235
-0.235
-0.23
-0.25
-0.25
-0.265
-0.245
-0.225
-0.225
-0.235
-0.25
-0.255
-0.25
-0.235
-0.23
-0.25
-0.25
-0.265
-0.26
-0.24
-0.245
-0.255
-0.27
-0.285
-0.295
-0.27
-0.265
-0.265
-0.29
-0.3
-0.295
-0.29
-0.285
-0.29
-0.29
-0.28
-0.27
-0.255
-0.255
-0.26
-0.275
-0.29
-0.275
-0.265
-0.235
-0.235
-0.225
-0.2
-0.155
-0.07
0.015
0.105
0.22
0.39
0.59
0.805
1.01
1.185
1.285
1.295
1.18
0.96
0.66
0.325
-0.025
-0.32
-0.445
-0.425
-0.36
-0.31
-0.28
-0.27
-0.26
-0.255
-0.245
-0.28
-0.29
-0.31
-0.305
-0.31
-0.31
-0.315
-0.33
-0.35
-0.33
-0.31
-0.325
-0.345
-0.37
-0.39
-0.375
-0.36
-0.335
-0.335
-0.345
-0.355
-0.345
-0.33
-0.33
-0.325
-0.34
-0.335
-0.325
-0.315
-0.295
-0.315
-0.31
-0.325
-0.315
-0.315
-0.305
-0.3
-0.3
-0.3
-0.305
-0.29
-0.3
-0.295
-0.3
-0.295
-0.28
-0.265
-0.27
-0.26
-0.29
-0.28
-0.265
-0.245
-0.215
-0.22
-0.24
-0.23
-0.24
-0.215
-0.195
-0.2
-0.205
-0.205
-0.185
-0.165
-0.17
-0.175
-0.175
-0.175
-0.195
-0.185
-0.185
-0.19
-0.19
-0.205
-0.185
-0.16
-0.155
-0.145
-0.155
-0.155
-0.145
-0.14
-0.14
-0.14
-0.14
-0.16
-0.15
-0.14
-0.145
-0.16
-0.175
-0.18
-0.195
-0.19
-0.185
-0.2
-0.22
-0.235
-0.23
-0.24
-0.225
-0.235
-0.24
-0.255
-0.245
-0.24
-0.22
-0.24
-0.25
-0.265
-0.245
-0.235
-0.22
-0.225
-0.25
-0.25
-0.25
-0.245
-0.235
-0.245
-0.255
-0.255
-0.24
-0.225
-0.23
-0.255
-0.255
-0.245
-0.24
-0.245
-0.235
-0.22
-0.235
-0.235
-0.26
-0.23
-0.23
-0.23
-0.24
-0.245
-0.215
-0.21
-0.21
-0.23
-0.24
-0.235
-0.23
-0.21
-0.195
-0.22
-0.23
-0.245
-0.24
-0.235
-0.235
-0.245
-0.27
-0.27
-0.255
-0.27
-0.245
-0.265
-0.275
-0.28
-0.275
-0.26
-0.255
-0.265
-0.29
-0.305
-0.29
-0.28
-0.27
-0.275
-0.285
-0.29
-0.285
-0.255
-0.26
-0.265
-0.27
-0.28
-0.29
-0.25
-0.245
-0.235
-0.25
-0.28
-0.24
-0.225
-0.225
-0.22
-0.225
-0.24
-0.225
-0.215
-0.18
-0.12
-0.08
-0.01
0.07
0.185
0.335
0.505
0.695
0.89
1.1
1.275
1.345
1.24
1.005
0.685
0.375
0.07
-0.235
-0.43
-0.51
-0.46
-0.395
-0.33
-0.31
-0.31
-0.33
-0.35
-0.35
-0.355
-0.355
-0.37
-0.395
-0.395
-0.395
-0.385
-0.37
-0.38
-0.405
-0.39
-0.385
-0.365
-0.37
-0.36
-0.39
-0.39
-0.375
-0.35
-0.345
-0.36
-0.365
-0.36
-0.365
-0.355
-0.34
-0.35
-0.37
-0.385
-0.375
-0.37
-0.365
-0.37
-0.385
-0.38
-0.375
-0.355
-0.36
-0.365
-0.36
-0.365
-0.355
-0.345
-0.315
-0.32
-0.35
-0.35
-0.335
-0.31
-0.295
-0.305
-0.33
-0.35
-0.32
-0.295
-0.28
-0.275
-0.275
-0.265
-0.265
-0.25
-0.235
-0.25
-0.265
-0.26
-0.25
-0.225
-0.2
-0.19
-0.195
-0.195
-0.2
-0.185
-0.17
-0.18
-0.175
-0.175
-0.155
-0.14
-0.125
-0.145
-0.165
-0.19
-0.19
-0.18
-0.175
-0.195
-0.215
-0.23
-0.23
-0.225
-0.245
-0.25
-0.29
-0.285
-0.275
-0.265
-0.255
-0.285
-0.305
-0.315
-0.31
-0.3
-0.305
-0.3
-0.325
-0.34
-0.325
-0.295
-0.29
-0.3
-0.33
-0.315
-0.305
-0.295
-0.28
-0.29
-0.32
-0.335
-0.31
-0.285
-0.28
-0.295
-0.315
-0.31
-0.3
-0.265
-0.265
-0.27
-0.285
-0.29
-0.285
-0.275
-0.29
-0.29
-0.305
-0.305
-0.295
-0.285
-0.27
-0.285
-0.3
-0.315
-0.28
-0.28
-0.27
-0.26
-0.28
-0.27
-0.28
-0.295
-0.285
-0.295
-0.3
-0.31
-0.295
-0.3
-0.28
-0.285
-0.3
-0.32
-0.305
-0.295
-0.29
-0.305
-0.3
-0.32
-0.3
-0.3
