Lead II
-0.635
-0.645
-0.635
-0.64
-0.64
-0.645
-0.62
-0.63
-0.65
-0.66
-0.675
-0.675
-0.675
-0.665
-0.665
-0.655
-0.66
-0.665
-0.66
-0.68
-0.685
-0.67
-0.685
-0.695
-0.695
-0.695
-0.7
-0.7
-0.695
-0.695
-0.705
-0.72
-0.73
-0.745
-0.755
-0.755
-0.75
-0.745
-0.76
-0.745
-0.745
-0.75
-0.75
-0.755
-0.765
-0.77
-0.76
-0.765
-0.77
-0.77
-0.755
-0.75
-0.735
-0.73
-0.725
-0.725
-0.72
-0.715
-0.715
-0.715
-0.695
-0.675
-0.65
-0.64
-0.605
-0.595
-0.585
-0.58
-0.57
-0.565
-0.565
-0.555
-0.55
-0.525
-0.51
-0.495
-0.485
-0.485
-0.49
-0.49
-0.5
-0.505
-0.49
-0.505
-0.495
-0.495
-0.48
-0.495
-0.495
-0.5
-0.495
-0.49
-0.49
-0.5
-0.515
-0.515
-0.515
-0.525
-0.51
-0.51
-0.495
-0.505
-0.5
-0.505
-0.515
-0.525
-0.54
-0.555
-0.545
-0.53
-0.525
-0.525
-0.515
-0.52
-0.53
-0.535
-0.54
-0.56
-0.56
-0.56
-0.555
-0.55
-0.55
-0.545
-0.53
-0.53
-0.54
-0.535
-0.545
-0.565
-0.555
-0.555
-0.555
-0.545
-0.555
-0.545
-0.535
-0.535
-0.525
-0.525
-0.525
-0.53
-0.525
-0.535
-0.535
-0.525
-0.52
-0.52
-0.51
-0.505
-0.495
-0.505
-0.5
-0.495
-0.495
-0.485
-0.485
-0.465
-0.465
-0.46
-0.435
-0.44
-0.425
-0.43
-0.43
-0.43
-0.435
-0.43
-0.425
-0.41
-0.385
-0.375
-0.355
-0.335
-0.315
-0.29
-0.265
-0.24
-0.21
-0.18
-0.145
-0.095
-0.025
0.035
0.135
0.225
0.37
0.54
0.71
0.93
1.145
1.345
1.505
1.63
1.69
1.685
1.625
1.505
1.345
1.15
0.93
0.7
0.5
0.335
0.18
0.04
-0.075
-0.175
-0.275
-0.37
-0.445
-0.525
-0.58
-0.625
-0.655
-0.67
-0.67
-0.665
-0.665
-0.675
-0.68
-0.685
-0.695
-0.72
-0.735
-0.75
-0.76
-0.77
-0.76
-0.765
-0.76
-0.755
-0.765
-0.76
-0.775
-0.78
-0.795
-0.815
-0.82
-0.83
-0.84
-0.845
-0.835
-0.83
-0.825
-0.83
-0.84
-0.85
-0.865
-0.89
-0.905
-0.915
-0.92
-0.92
-0.92
-0.92
-0.925
-0.935
-0.955
-0.97
-0.98
-1.0
-1.02
-1.045
-1.055
-1.06
-1.065
-1.06
-1.06
-1.075
-1.09
-1.09
-1.12
-1.115
-1.115
-1.135
-1.125
-1.115
-1.11
-1.1
-1.08
-1.07
-1.07
-1.06
-1.06
-1.035
-1.03
-1.01
-0.985
-0.95
-0.925
-0.895
-0.865
-0.835
-0.815
-0.795
-0.775
-0.76
-0.73
-0.715
-0.695
-0.67
-0.655
-0.635
-0.625
-0.605
-0.595
-0.605
-0.605
-0.585
-0.59
-0.59
-0.57
-0.575
-0.555
-0.55
-0.555
-0.54
-0.545
-0.54
-0.55
-0.535
-0.56
-0.555
-0.545
-0.545
-0.545
-0.53
-0.535
-0.53
-0.54
-0.545
-0.565
-0.58
-0.58
-0.57
-0.565
-0.57
-0.565
-0.565
-0.55
-0.55
-0.555
-0.55
-0.56
-0.56
-0.57
-0.565
-0.56
-0.545
-0.54
-0.52
-0.515
-0.515
-0.505
-0.51
-0.515
-0.51
-0.515
-0.505
-0.52
-0.5
-0.495
-0.475
-0.465
-0.45
-0.455
-0.445
-0.455
-0.46
-0.465
-0.46
-0.46
-0.46
-0.46
-0.445
-0.44
-0.435
-0.435
-0.435
-0.45
-0.45
-0.455
-0.46
-0.47
-0.47
-0.45
-0.455
-0.44
-0.435
-0.43
-0.43
-0.44
-0.45
-0.45
-0.455
-0.455
-0.455
-0.455
-0.45
-0.435
-0.42
-0.435
-0.43
-0.44
-0.455
-0.45
-0.455
-0.445
-0.45
-0.445
-0.42
-0.425
-0.41
-0.405
-0.41
-0.41
-0.41
-0.405
-0.41
-0.39
-0.39
-0.375
-0.37
-0.355
-0.35
-0.35
-0.345
-0.345
-0.34
-0.33
-0.33
-0.31
-0.3
-0.275
-0.27
-0.26
-0.26
-0.26
-0.25
-0.26
-0.27
-0.28
-0.3
-0.295
-0.295
-0.295
-0.31
-0.315
-0.33
-0.34
-0.365
-0.38
-0.405
-0.41
-0.42
-0.43
-0.445
-0.455
-0.45
-0.455
-0.46
-0.45
-0.46
-0.46
-0.465
-0.47
-0.46
-0.465
-0.46
-0.445
-0.435
-0.425
-0.425
-0.44
-0.425
-0.43
-0.42
-0.415
-0.405
-0.38
-0.34
-0.27
-0.18
-0.08
0.035
0.165
0.33
0.52
0.715
0.915
1.11
1.27
1.39
1.49
1.595
1.67
1.745
1.69
1.5
1.16
0.755
0.315
-0.08
-0.375
-0.555
-0.63
-0.625
-0.595
-0.565
-0.545
-0.545
-0.56
-0.555
-0.56
-0.555
-0.55
-0.555
-0.555
-0.565
-0.555
-0.555
-0.565
-0.58
-0.575
-0.58
-0.59
-0.595
-0.59
-0.595
-0.595
-0.605
-0.595
-0.585
-0.595
-0.61
-0.61
-0.615
-0.61
-0.62
-0.615
-0.625
-0.62
-0.62
-0.625
-0.625
-0.63
-0.635
-0.645
-0.65
-0.665
-0.67
-0.675
-0.675
-0.68
-0.675
-0.675
-0.67
-0.685
-0.675
-0.69
-0.705
-0.71
-0.715
-0.715
-0.725
-0.72
-0.725
-0.72
-0.72
-0.73
-0.73
-0.745
-0.76
-0.765
-0.785
-0.77
-0.775
-0.77
-0.76
-0.765
-0.76
-0.765
-0.75
-0.755
-0.76
-0.76
-0.765
-0.76
-0.75
-0.735
-0.735
-0.71
-0.7
-0.685
-0.685
-0.68
-0.665
-0.665
-0.66
-0.63
-0.615
-0.59
-0.58
-0.56
-0.535
-0.53
-0.515
-0.51
-0.51
-0.5
-0.5
-0.485
-0.485
-0.47
-0.47
-0.45
-0.44
-0.45
-0.455
-0.455
-0.46
-0.46
-0.465
-0.47
-0.47
-0.46
-0.455
-0.455
-0.445
-0.455
-0.455
-0.455
-0.475
-0.48
-0.485
-0.475
-0.465
-0.48
-0.475
-0.47
-0.465
-0.47
-0.47
-0.475
-0.49
-0.49
-0.5
-0.5
-0.495
-0.505
-0.49
-0.485
-0.485
-0.51
-0.505
-0.52
-0.53
-0.535
-0.535
-0.53
-0.54
-0.54
-0.535
-0.52
-0.515
-0.52
-0.515
-0.51
-0.52
-0.545
-0.53
-0.525
-0.525
-0.525
-0.51
-0.515
-0.495
-0.49
-0.495
-0.5
-0.5
-0.5
-0.505
-0.5
-0.495
-0.495
-0.48
-0.46
-0.455
-0.46
-0.44
-0.435
-0.435
-0.445
-0.44
-0.435
-0.43
-0.42
-0.39
-0.375
-0.37
-0.355
-0.34
-0.335
-0.33
-0.335
-0.33
-0.315
-0.295
-0.285
-0.275
-0.285
-0.28
-0.285
-0.3
-0.31
-0.335
-0.335
-0.37
-0.38
-0.395
-0.4
-0.395
-0.4
-0.405
-0.42
-0.445
-0.455
-0.475
-0.485
-0.495
-0.495
-0.49
-0.495
-0.48
-0.465
-0.475
-0.47
-0.475
-0.485
-0.485
-0.51
-0.51
-0.51
-0.5
-0.49
-0.475
-0.44
-0.435
-0.43
-0.43
-0.44
-0.435
-0.425
-0.385
-0.345
-0.295
-0.235
-0.14
-0.035
0.095
0.225
0.38
0.56
0.745
0.93
1.095
1.235
1.355
1.475
1.57
1.635
1.6
1.415
1.09
0.67
0.24
-0.15
-0.425
-0.58
-0.64
-0.635
-0.605
-0.58
-0.545
-0.55
-0.555
-0.56
-0.555
-0.56
-0.555
-0.565
-0.575
-0.58
-0.58
-0.58
-0.585
-0.585
-0.59
-0.6
-0.605
-0.61
-0.61
-0.605
-0.61
-0.61
-0.605
-0.6
-0.61
-0.605
-0.62
-0.61
-0.62
-0.635
-0.65
-0.64
-0.64
-0.64
-0.635
-0.62
-0.635
-0.65
-0.65
-0.66
-0.655
-0.655
-0.655
-0.665
-0.675
-0.67
-0.675
-0.66
-0.66
-0.67
-0.675
-0.68
-0.695
-0.705
-0.715
-0.72
-0.71
-0.71
-0.715
-0.705
-0.71
-0.72
-0.73
-0.73
-0.735
-0.745
-0.745
-0.755
-0.755
-0.745
-0.75
-0.755
-0.75
-0.735
-0.74
-0.745
-0.755
-0.76
-0.76
-0.755
-0.73
-0.71
-0.705
-0.695
-0.68
-0.675
-0.665
-0.65
-0.645
-0.635
-0.625
-0.6
-0.58
-0.555
-0.535
-0.535
-0.525
-0.515
-0.5
-0.49
-0.495
-0.5
-0.5
-0.49
-0.48
-0.475
-0.465
-0.46
-0.45
-0.45
-0.445
-0.465
-0.47
-0.485
-0.48
-0.48
-0.465
-0.465
-0.47
-0.455
-0.44
-0.455
-0.475
-0.465
-0.485
-0.49
-0.485
-0.49
-0.49
-0.485
-0.48
-0.475
-0.475
-0.48
-0.49
-0.495
-0.495
-0.495
-0.51
-0.515
-0.515
-0.495
-0.49
-0.48
-0.475
-0.475
-0.47
-0.48
-0.49
-0.5
-0.485
-0.495
-0.485
-0.465
-0.44
-0.42
-0.39
-0.35
-0.315
-0.285
-0.23
-0.18
-0.105
-0.015
0.09
0.215
0.38
0.59
0.795
1.04
1.245
1.42
1.59
1.705
1.76
1.75
1.665
1.55
1.385
1.205
1.035
0.855
0.69
0.53
0.385
0.24
0.08
-0.035
-0.145
-0.225
-0.295
-0.34
-0.365
-0.39
-0.405
-0.415
-0.435
-0.455
-0.485
-0.52
-0.535
-0.55
-0.565
-0.57
-0.58
-0.615
-0.64
-0.67
-0.705
-0.735
-0.75
-0.775
-0.775
-0.775
-0.785
-0.775
-0.77
-0.785
-0.785
-0.795
-0.81
-0.82
-0.835
-0.835
-0.865
-0.845
-0.855
-0.875
-0.86
-0.86
-0.87
-0.905
-0.91
-0.93
-0.93
-0.94
-0.95
-0.96
-0.965
-0.975
-0.975
-0.985
-1.0
-1.01
-1.025
-1.045
-1.065
-1.065
-1.08
-1.08
-1.08
-1.08
-1.08
-1.085
-1.09
-1.095
-1.105
-1.105
-1.105
-1.105
-1.1
-1.09
-1.08
-1.075
-1.06
-1.06
-1.055
-1.04
-1.025
-1.015
-0.99
-0.97
-0.955
-0.925
-0.895
-0.875
-0.84
-0.82
-0.795
-0.79
-0.765
-0.755
-0.745
-0.71
-0.7
-0.675
-0.655
-0.64
-0.62
-0.615
-0.61
-0.61
-0.6
-0.605
-0.6
-0.6
-0.6
-0.595
-0.585
-0.58
-0.57
-0.575
-0.57
-0.57
-0.575
-0.58
-0.585
-0.575
-0.575
-0.565
-0.56
-0.555
-0.545
-0.555
-0.55
-0.56
-0.56
-0.57
-0.575
-0.575
-0.57
-0.565
-0.56
-0.54
-0.545
-0.535
-0.545
-0.545
-0.54
-0.545
-0.555
-0.54
-0.535
-0.52
-0.515
-0.51
-0.495
-0.515
-0.51
-0.515
-0.515
-0.515
-0.515
-0.51
-0.52
-0.51
-0.495
-0.495
-0.485
-0.475
-0.475
-0.48
-0.48
-0.495
-0.49
-0.49
-0.49
-0.475
-0.47
-0.47
-0.465
-0.47
-0.47
-0.48
-0.49
-0.485
-0.485
-0.49
-0.48
-0.48
-0.47
-0.48
-0.45
-0.46
-0.465
-0.47
-0.465
-0.48
-0.485
-0.485
-0.49
-0.47
-0.465
-0.465
-0.455
-0.46
-0.46
-0.465
-0.465
-0.485
-0.475
-0.485
-0.48
-0.47
-0.47
-0.47
-0.455
-0.455
-0.46
-0.475
-0.48
-0.49
-0.49
-0.48
-0.485
-0.47
-0.48
-0.46
-0.455
-0.455
-0.45
-0.46
-0.46
-0.47
-0.48
-0.485
-0.475
-0.47
-0.465
-0.45
-0.44
-0.445
-0.455
-0.445
-0.465
-0.47
-0.485
-0.475
-0.465
-0.455
-0.445
-0.445
-0.435
-0.425
-0.425
-0.435
-0.43
-0.435
-0.435
-0.43
-0.42
-0.41
-0.395
-0.39
-0.38
-0.385
-0.37
-0.375
-0.36
-0.36
-0.355
-0.345
-0.335
-0.315
-0.295
-0.28
-0.28
-0.285
-0.295
-0.315
-0.315
-0.335
-0.35
-0.365
-0.385
-0.415
-0.41
-0.42
-0.42
-0.425
-0.435
-0.45
-0.485
-0.485
-0.5
-0.51
-0.505
-0.485
-0.485
-0.48
-0.475
-0.47
-0.48
-0.475
-0.46
-0.47
-0.485
-0.48
-0.465
-0.465
-0.45
-0.42
-0.4
-0.38
-0.325
-0.255
-0.16
-0.03
0.125
0.325
0.545
0.78
1.03
1.205
1.345
1.44
1.5
1.515
1.445
1.23
0.91
0.535
0.145
-0.19
-0.425
-0.57
-0.62
-0.63
-0.615
-0.6
-0.59
-0.595
-0.59
-0.58
-0.575
-0.555
-0.55
-0.55
-0.545
-0.555
-0.565
-0.57
-0.58
-0.595
-0.61
-0.605
-0.605
-0.605
-0.605
-0.59
-0.585
-0.59
-0.59
-0.6
-0.62
-0.635
-0.64
-0.64
-0.645
-0.635
-0.64
-0.62
-0.615
-0.625
-0.63
-0.63
-0.64
-0.66
-0.68
-0.675
-0.675
-0.665
-0.665
-0.66
-0.67
-0.68
-0.675
-0.685
-0.675
-0.68
-0.71
-0.705
-0.7
-0.71
-0.705
-0.705
-0.705
-0.725
-0.715
-0.72
-0.735
-0.755
-0.77
-0.765
-0.77
-0.775
-0.765
-0.77
-0.765
-0.76
-0.76
-0.765
-0.77
-0.78
-0.795
-0.795
-0.81
-0.8
-0.795
-0.78
-0.77
-0.76
-0.76
-0.76
-0.76
-0.755
-0.75
-0.745
-0.725
-0.71
-0.69
-0.675
-0.66
-0.655
-0.65
-0.64
-0.62
-0.605
-0.605
-0.6
-0.575
-0.56
-0.55
-0.535
-0.515
-0.505
-0.505
-0.505
-0.5
-0.51
-0.505
-0.5
-0.49
-0.475
-0.47
-0.475
-0.455
-0.45
-0.465
-0.47
-0.48
-0.48
-0.49
-0.49
-0.485
-0.49
-0.49
-0.48
-0.48
-0.48
-0.47
-0.475
-0.485
-0.49
-0.515
-0.5
-0.51
-0.495
-0.5
-0.495
-0.495
-0.49
-0.5
-0.5
-0.525
-0.535
-0.54
-0.535
-0.545
-0.54
-0.52
-0.525
-0.515
-0.525
-0.535
-0.535
-0.545
-0.555
-0.56
-0.565
-0.565
-0.555
-0.56
-0.525
-0.515
-0.515
-0.51
-0.53
-0.51
-0.505
-0.535
-0.53
-0.515
-0.515
-0.505
-0.49
-0.48
-0.475
-0.465
-0.46
-0.47
-0.46
-0.455
-0.455
-0.45
-0.44
-0.44
-0.42
-0.405
-0.4
-0.39
-0.38
-0.38
-0.395
-0.38
-0.37
-0.35
-0.33
-0.32
-0.305
-0.3
-0.29
-0.305
-0.315
-0.32
-0.325
-0.335
-0.35
-0.355
-0.37
-0.385
-0.4
-0.41
-0.42
-0.425
-0.435
-0.45
-0.48
-0.495
-0.5
-0.51
-0.51
-0.52
-0.51
-0.51
-0.495
-0.495
-0.485
-0.495
-0.49
-0.495
-0.495
-0.49
-0.48
-0.47
-0.47
-0.45
-0.455
-0.45
-0.45
-0.44
-0.445
-0.43
-0.405
-0.365
-0.31
-0.235
-0.145
-0.04
0.07
0.195
0.33
0.485
0.665
0.845
1.005
1.13
1.235
1.31
1.395
1.46
1.485
1.375
1.125
0.765
0.35
-0.065
-0.39
-0.6
-0.705
-0.725
-0.695
-0.65
-0.615
-0.58
-0.555
-0.56
-0.555
-0.57
-0.575
-0.58
-0.575
-0.58
-0.58
-0.585
-0.58
-0.585
-0.59
-0.6
-0.62
-0.625
-0.63
-0.63
-0.625
-0.6
-0.595
-0.595
-0.6
-0.595
-0.61
-0.62
-0.62
-0.635
-0.64
-0.635
-0.635
-0.63
-0.625
-0.62
-0.615
-0.635
-0.625
-0.64
-0.645
-0.65
-0.65
-0.65
-0.65
-0.65
-0.65
-0.66
-0.655
-0.66
-0.67
-0.68
-0.685
-0.705
-0.705
-0.705
-0.71
-0.71
-0.715
-0.705
-0.705
-0.71
-0.7
-0.72
-0.735
-0.755
-0.75
-0.75
-0.745
-0.74
-0.725
-0.735
-0.73
-0.73
-0.74
-0.74
-0.75
-0.745
-0.73
-0.725
-0.725
-0.705
-0.705
-0.68
-0.675
-0.665
-0.665
-0.655
-0.645
-0.64
-0.63
-0.63
-0.605
-0.59
-0.57
-0.555
-0.535
-0.545
-0.52
-0.525
-0.525
-0.515
-0.52
-0.52
-0.505
-0.485
-0.48
-0.465
-0.47
-0.475
-0.485
-0.485
-0.49
-0.495
-0.5
-0.495
-0.495
-0.49
-0.48
-0.475
-0.475
-0.48
-0.485
-0.505
-0.525
-0.545
-0.53
-0.55
-0.54
-0.52
-0.52
-0.5
-0.5
-0.505
-0.525
-0.525
-0.52
-0.53
-0.53
-0.54
-0.535
-0.53
-0.54
-0.515
-0.51
-0.51
-0.51
-0.51
-0.52
-0.52
-0.525
-0.52
-0.52
-0.51
-0.495
-0.485
-0.475
-0.47
-0.48
-0.48
-0.475
-0.47
-0.455
-0.43
-0.4
-0.365
-0.325
-0.28
-0.23
-0.17
-0.1
-0.03
0.06
0.165
0.305
0.475
0.67
0.865
1.08
1.275
1.44
1.595
1.68
1.715
1.695
1.615
1.5
1.335
1.16
0.975
0.8
0.635
0.48
0.345
0.2
0.055
-0.07
-0.175
-0.265
-0.33
-0.39
-0.415
-0.43
-0.435
-0.455
-0.465
-0.48
-0.505
-0.535
-0.565
-0.58
-0.605
-0.61
-0.625
-0.635
-0.65
-0.675
-0.705
-0.735
-0.77
-0.785
-0.81
-0.815
-0.825
-0.835
-0.835
-0.835
-0.825
-0.835
-0.84
-0.85
-0.86
-0.88
-0.905
-0.91
-0.915
-0.92
-0.92
-0.93
-0.915
-0.925
-0.925
-0.94
-0.955
-0.98
-1.0
-1.005
-1.02
-1.03
-1.035
-1.045
-1.035
-1.05
-1.065
-1.07
-1.09
-1.105
-1.13
-1.125
-1.145
-1.14
-1.145
-1.16
-1.15
-1.16
-1.175
-1.16
-1.18
-1.195
-1.195
-1.2
-1.19
-1.19
-1.18
-1.17
-1.16
-1.13
-1.125
-1.11
-1.105
-1.085
-1.08
-1.055
-1.04
-1.02
-0.99
-0.965
-0.93
-0.9
-0.865
-0.84
-0.82
-0.81
-0.8
-0.785
-0.77
-0.755
-0.735
-0.73
-0.705
-0.69
-0.685
-0.68
-0.675
-0.68
-0.685
-0.685
-0.68
-0.665
-0.655
-0.645
-0.635
-0.63
-0.625
-0.625
-0.63
-0.65
-0.65
-0.645
-0.65
-0.64
-0.64
-0.64
-0.62
-0.62
-0.62
-0.62
-0.63
-0.635
-0.635
-0.635
-0.65
-0.64
-0.63
-0.625
-0.62
-0.61
-0.62
-0.61
-0.615
-0.62
-0.62
-0.615
-0.61
-0.605
-0.605
-0.605
-0.6
-0.58
-0.57
-0.565
-0.575
-0.59
-0.585
-0.59
-0.59
-0.585
-0.575
-0.575
-0.575
-0.58
-0.58
-0.56
-0.57
-0.585
-0.585
-0.58
-0.58
-0.56
-0.57
-0.56
-0.555
-0.55
-0.555
-0.56
-0.56
-0.58
-0.57
-0.57
-0.58
-0.57
-0.56
-0.57
-0.555
-0.56
-0.555
-0.565
-0.565
-0.56
-0.57
-0.57
-0.565
-0.555
-0.545
-0.54
-0.54
-0.54
-0.535
-0.535
-0.535
-0.545
-0.545
-0.55
-0.555
-0.535
-0.535
-0.54
-0.535
-0.535
-0.535
-0.54
-0.535
-0.55
-0.555
-0.55
-0.55
-0.545
-0.54
-0.54
-0.52
-0.525
-0.52
-0.525
-0.535
-0.545
-0.545
-0.545
-0.535
-0.53
-0.525
-0.525
-0.535
-0.515
-0.51
-0.52
-0.525
-0.525
-0.535
-0.53
-0.52
-0.525
-0.51
-0.495
-0.505
-0.5
-0.5
-0.515
-0.515
-0.515
-0.495
-0.49
-0.49
-0.46
-0.455
-0.46
-0.44
-0.44
-0.445
-0.435
-0.44
-0.43
-0.425
-0.42
-0.41
-0.395
-0.375
-0.36
-0.34
-0.33
-0.325
-0.325
-0.34
-0.36
-0.365
-0.355
-0.355
-0.355
-0.37
-0.365
-0.375
-0.39
-0.4
-0.43
-0.46
-0.465
-0.47
-0.48
-0.495
-0.5
-0.505
-0.51
-0.505
-0.5
-0.505
-0.5
-0.51
-0.5
-0.505
-0.51
-0.51
-0.505
-0.49
-0.485
-0.47
-0.465
-0.465
-0.455
-0.465
-0.455
-0.455
-0.43
-0.38
-0.32
-0.235
-0.115
0.02
0.16
0.335
0.525
0.72
0.92
1.085
1.225
1.335
1.43
1.535
1.6
1.59
1.425
1.13
0.735
0.315
-0.095
-0.405
-0.6
-0.69
-0.715
-0.68
-0.645
-0.615
-0.6
-0.585
-0.57
-0.575
-0.565
-0.575
-0.595
-0.6
-0.605
-0.605
-0.61
-0.61
-0.605
-0.615
-0.605
-0.615
-0.61
-0.625
-0.635
-0.635
-0.635
-0.635
-0.625
-0.625
-0.625
-0.635
-0.645
-0.645
-0.635
-0.665
-0.67
-0.685
-0.68
-0.67
-0.665
-0.655
-0.665
-0.66
-0.665
-0.67
-0.67
-0.68
-0.695
-0.705
-0.705
-0.71
-0.695
-0.705
-0.7
-0.705
-0.715
-0.73
-0.74
-0.755
-0.76
-0.775
-0.77
-0.765
-0.775
-0.76
-0.775
-0.78
-0.78
-0.795
-0.795
-0.815
-0.82
-0.825
-0.825
-0.82
-0.82
-0.805
-0.795
-0.785
-0.795
-0.795
-0.805
-0.795
-0.795
-0.775
-0.775
-0.75
-0.745
-0.72
-0.71
-0.685
-0.685
-0.665
-0.66
-0.655
-0.635
-0.62
-0.6
-0.58
-0.56
-0.53
-0.525
-0.525
-0.515
-0.525
-0.52
-0.53
-0.52
-0.515
-0.515
-0.5
-0.495
-0.475
-0.48
-0.485
-0.485
-0.49
-0.495
-0.49
-0.505
-0.51
-0.505
-0.51
-0.51
-0.48
-0.49
-0.495
-0.495
-0.505
-0.515
-0.52
-0.525
-0.52
-0.535
-0.54
-0.53
-0.525
-0.535
-0.53
-0.54
-0.545
-0.555
-0.56
-0.57
-0.555
-0.57
-0.56
-0.555
-0.53
-0.54
-0.54
-0.54
-0.56
-0.565
-0.565
-0.555
-0.555
-0.55
-0.555
-0.525
-0.51
-0.505
-0.495
-0.495
-0.505
-0.5
-0.505
-0.5
-0.5
-0.49
-0.485
-0.48
-0.465
-0.445
-0.45
-0.45
-0.445
-0.445
-0.455
-0.455
-0.445
-0.44
-0.43
-0.43
-0.405
-0.395
-0.4
-0.385
-0.38
-0.375
-0.37
-0.365
-0.355
-0.35
-0.325
-0.305
-0.295
-0.28
-0.285
-0.295
-0.315
-0.325
-0.34
-0.355
-0.365
-0.375
-0.385
-0.41
-0.4
-0.41
-0.415
-0.425
-0.445
-0.46
-0.49
-0.52
-0.515
-0.515
-0.505
-0.5
-0.485
-0.485
-0.48
-0.475
-0.495
-0.485
-0.495
-0.48
-0.48
-0.485
-0.475
-0.465
-0.455
-0.45
-0.445
-0.44
-0.445
-0.445
-0.42
-0.4
-0.37
-0.32
-0.245
-0.16
-0.04
0.065
0.205
0.355
0.55
0.725
0.91
1.075
1.205
1.315
1.41
1.5
1.55
1.505
1.315
0.995
0.6
0.18
-0.19
-0.475
-0.61
-0.67
-0.655
-0.63
-0.59
-0.565
-0.55
-0.54
-0.535
-0.555
-0.57
-0.585
-0.585
-0.59
-0.59
-0.59
-0.575
-0.585
-0.59
-0.595
-0.605
-0.605
-0.615
-0.635
-0.63
-0.63
-0.63
-0.625
-0.6
-0.605
-0.605
-0.62
-0.635
-0.645
-0.65
-0.65
-0.645
-0.65
-0.635
-0.64
-0.635
-0.625
-0.64
-0.655
-0.66
-0.68
-0.675
-0.695
-0.685
-0.685
-0.67
-0.675
-0.665
-0.67
-0.675
-0.695
-0.7
-0.705
-0.72
-0.715
-0.725
-0.725
-0.71
-0.705
-0.72
-0.715
-0.74
-0.75
-0.755
-0.76
-0.76
-0.765
-0.755
-0.76
-0.75
-0.74
-0.715
-0.715
-0.705
-0.705
-0.7
-0.7
-0.685
-0.675
-0.66
-0.625
-0.61
-0.585
-0.56
-0.545
-0.53
-0.525
-0.53
-0.52
-0.525
-0.51
-0.51
-0.5
-0.49
-0.49
-0.47
-0.47
-0.47
-0.465
-0.47
-0.485
-0.475
-0.48
-0.48
-0.485
-0.465
-0.46
-0.465
-0.455
-0.46
-0.465
-0.47
-0.485
-0.49
-0.5
-0.5
-0.495
-0.485
-0.495
-0.515
-0.5
-0.5
-0.5
-0.51
-0.505
-0.515
-0.515
-0.515
-0.51
-0.51
-0.5
-0.495
-0.485
-0.495
-0.51
-0.5
-0.51
-0.53
-0.53
-0.535
-0.53
-0.525
-0.53
-0.51
-0.51
-0.5
-0.49
-0.495
-0.5
-0.505
-0.5
-0.49
-0.485
-0.48
-0.475
-0.47
-0.45
-0.45
-0.445
-0.435
-0.415
-0.405
-0.395
-0.35
-0.315
-0.26
-0.215
-0.145
-0.075
0.0
0.095
0.205
0.34
0.495
0.675
0.875
1.075
1.275
1.46
1.62
1.72
1.77
1.75
1.67
1.55
1.41
1.24
1.095
0.945
0.795
0.655
0.545
0.415
0.315
0.19
0.075
-0.03
-0.125
-0.2
-0.275
-0.33
-0.38
-0.42
-0.455
-0.48
-0.51
-0.545
-0.57
-0.605
-0.61
-0.635
-0.66
-0.68
-0.685
-0.7
-0.705
-0.705
-0.72
-0.725
-0.75
-0.755
-0.76
-0.77
-0.77
-0.78
-0.78
-0.79
-0.78
-0.79
-0.795
-0.815
-0.83
-0.82
-0.855
-0.865
-0.85
-0.86
-0.88
-0.88
-0.865
-0.86
-0.87
-0.885
-0.9
-0.92
-0.935
-0.95
-0.945
-0.955
-0.945
-0.96
-0.95
-0.96
-0.97
-0.985
-1.01
-1.025
-1.04
-1.05
-1.065
-1.07
-1.075
-1.07
-1.065
-1.065
-1.075
-1.095
-1.09
-1.09
-1.105
-1.115
-1.105
-1.095
-1.095
-1.08
-1.06
-1.06
-1.05
-1.045
-1.045
-1.03
-1.035
-1.02
-1.015
-0.97
-0.94
-0.915
-0.895
-0.86
-0.845
-0.83
-0.805
-0.785
-0.77
-0.76
-0.74
-0.71
-0.695
-0.67
-0.665
-0.645
-0.63
-0.62
-0.625
-0.62
-0.625
-0.62
-0.615
-0.62
-0.6
-0.585
-0.59
-0.58
-0.59
-0.59
-0.59
-0.59
-0.59
-0.605
-0.605
-0.595
-0.6
-0.58
-0.585
-0.57
-0.575
-0.575
-0.58
-0.595
-0.59
-0.59
-0.595
-0.6
-0.59
-0.58
-0.57
-0.565
-0.56
-0.555
-0.56
-0.565
-0.56
-0.56
-0.565
-0.565
-0.555
-0.545
-0.535
-0.54
-0.525
-0.515
-0.525
-0.515
-0.525
-0.545
-0.525
-0.525
-0.515
-0.515
-0.495
-0.495
-0.495
-0.495
-0.5
-0.51
-0.5
-0.505
-0.505
-0.495
-0.5
-0.495
-0.485
-0.48
-0.475
-0.47
-0.485
-0.495
-0.51
-0.5
-0.515
-0.5
-0.495
-0.495
-0.49
-0.48
-0.475
-0.47
-0.485
-0.485
-0.5
-0.5
-0.485
-0.5
-0.49
-0.475
-0.475
-0.47
-0.485
-0.49
-0.49
-0.495
-0.49
-0.49
-0.505
-0.5
-0.5
-0.485
-0.48
-0.47
-0.475
-0.475
-0.48
-0.485
-0.495
-0.495
-0.495
-0.495
-0.485
-0.475
-0.48
-0.46
-0.47
-0.485
-0.48
-0.48
-0.49
-0.5
-0.485
-0.49
-0.465
-0.47
-0.46
-0.455
-0.455
-0.445
-0.45
-0.445
-0.455
-0.45
-0.45
-0.435
-0.425
-0.415
-0.41
-0.395
-0.385
-0.39
-0.38
-0.375
-0.37
-0.36
-0.35
-0.34
-0.33
-0.32
-0.305
-0.3
-0.295
-0.305
-0.32
-0.335
-0.355
-0.36
-0.37
-0.38
-0.395
-0.395
-0.41
-0.41
-0.42
-0.45
-0.475
-0.47
-0.485
-0.505
-0.51
-0.51
-0.505
-0.5
-0.48
-0.485
-0.485
-0.485
-0.495
-0.515
-0.49
-0.495
-0.5
-0.485
-0.475
-0.47
-0.46
-0.465
-0.465
-0.44
-0.435
-0.42
-0.425
-0.385
-0.35
-0.28
-0.175
-0.07
0.055
0.215
0.36
0.535
0.72
0.905
1.065
1.185
1.3
1.375
1.445
1.42
1.295
1.055
0.725
0.345
-0.025
-0.305
-0.5
-0.62
-0.645
-0.655
-0.61
-0.59
-0.58
-0.56
-0.555
-0.55
-0.56
-0.565
-0.565
-0.575
-0.575
-0.59
-0.585
-0.585
-0.58
-0.575
-0.575
-0.58
-0.58
-0.6
-0.605
-0.61
-0.605
-0.635
-0.62
-0.615
-0.615
-0.61
-0.62
-0.605
-0.605
-0.62
-0.62
-0.635
-0.635
-0.635
-0.635
-0.64
-0.625
-0.62
-0.625
-0.635
-0.635
-0.65
-0.645
-0.67
-0.67
-0.67
-0.665
-0.67
-0.665
-0.66
-0.68
-0.685
-0.69
-0.7
-0.705
-0.715
-0.71
-0.71
-0.71
-0.715
-0.715
-0.725
-0.715
-0.725
-0.745
-0.75
-0.755
-0.755
-0.76
-0.765
-0.775
-0.775
-0.775
-0.77
-0.76
-0.765
-0.775
-0.78
-0.785
-0.775
-0.78
-0.775
-0.76
-0.755
-0.73
-0.725
-0.715
-0.71
-0.7
-0.69
-0.68
-0.685
-0.665
-0.65
-0.63
-0.615
-0.59
-0.575
-0.545
-0.54
-0.545
-0.53
-0.525
-0.525
-0.535
-0.515
-0.505
-0.5
-0.495
-0.475
-0.47
-0.46
-0.465
-0.475
-0.485
-0.48
-0.48
-0.48
-0.48
-0.47
-0.47
-0.46
-0.47
-0.48
-0.48
-0.48
-0.49
-0.49
-0.49
-0.485
-0.495
-0.49
-0.5
-0.5
-0.505
-0.505
-0.52
-0.515
-0.52
-0.535
-0.535
-0.525
-0.535
-0.53
-0.525
-0.515
-0.515
-0.52
-0.53
-0.535
-0.535
-0.545
-0.55
-0.545
-0.535
-0.53
-0.53
-0.525
-0.535
-0.51
-0.52
-0.51
-0.515
-0.52
-0.53
-0.525
-0.52
-0.505
-0.49
-0.49
-0.475
-0.48
-0.465
-0.47
-0.475
-0.47
-0.465
-0.46
-0.44
-0.44
-0.425
-0.415
-0.41
-0.41
-0.41
-0.405
-0.4
-0.395
-0.38
-0.37
-0.335
-0.32
-0.305
-0.27
-0.25
-0.23
-0.21
-0.19
-0.17
-0.16
-0.145
-0.11
-0.065
-0.025
0.035
0.095
0.14
0.175
0.21
0.245
0.275
0.31
0.335
0.38
0.42
0.485
0.53
0.57
0.61
0.65
0.625
0.59
0.53
0.46
0.4
0.31
0.205
0.125
0.115
0.165
0.255
0.39
0.52
0.615
0.66
0.63
0.51
0.32
0.085
-0.155
-0.335
-0.475
-0.555
-0.59
-0.625
-0.62
-0.64
-0.66
-0.655
-0.66
-0.67
-0.685
-0.68
-0.68
-0.685
-0.695
-0.715
-0.725
-0.725
-0.75
-0.755
-0.755
-0.755
-0.76
-0.755
-0.745
-0.745
-0.765
-0.765
-0.77
-0.795
-0.805
-0.815
-0.82
-0.805
-0.8
-0.79
-0.81
-0.82
-0.82
-0.84
-0.855
-0.865
-0.86
-0.875
-0.895
-0.89
-0.89
-0.9
-0.905
-0.91
-0.92
-0.935
-0.955
-0.96
-0.98
-0.975
-0.98
-0.985
-0.99
-0.985
-0.99
-1.01
-1.015
-1.04
-1.045
-1.05
-1.08
-1.075
-1.085
-1.08
-1.07
-1.07
-1.065
-1.075
-1.07
-1.06
-1.065
-1.075
-1.08
-1.085
-1.065
-1.055
-1.06
-1.025
-1.01
-0.985
-0.975
-0.975
-0.96
-0.95
-0.94
-0.925
-0.91
-0.89
-0.865
-0.83
-0.81
-0.78
-0.76
-0.755
-0.735
-0.725
-0.715
-0.705
-0.69
-0.68
-0.65
-0.64
-0.61
-0.595
-0.595
-0.59
-0.57
-0.58
-0.575
-0.575
-0.565
-0.57
-0.565
-0.555
-0.54
-0.54
-0.545
-0.555
-0.57
-0.565
-0.58
-0.59
-0.575
-0.575
-0.57
-0.565
-0.555
-0.565
-0.56
-0.575
-0.58
-0.58
-0.59
-0.59
-0.575
-0.57
-0.58
-0.57
-0.565
-0.555
-0.57
-0.57
-0.58
-0.58
-0.585
-0.58
-0.585
-0.57
-0.57
-0.56
-0.55
-0.555
-0.54
-0.54
-0.535
-0.545
-0.55
-0.55
-0.55
-0.535
-0.525
-0.515
-0.51
-0.52
-0.515
-0.51
-0.52
-0.525
-0.53
-0.535
-0.51
-0.51
-0.505
-0.51
-0.5
-0.5
-0.5
-0.495
-0.505
-0.505
-0.5
-0.5
-0.5
-0.495
-0.485
-0.47
-0.47
-0.465
-0.455
-0.43
-0.41
-0.39
-0.35
-0.315
-0.265
-0.205
-0.15
-0.075
0.015
0.13
0.255
0.415
0.6
0.8
1.025
1.24
1.435
1.575
1.645
1.625
1.57
1.44
1.25
1.045
0.84
0.635
0.45
0.295
0.17
0.07
-0.015
-0.085
-0.165
-0.245
-0.3
-0.37
-0.42
-0.46
-0.5
-0.535
-0.55
-0.585
-0.6
-0.63
-0.635
-0.65
-0.665
-0.695
-0.71
-0.75
-0.77
-0.775
-0.775
-0.78
-0.79
-0.785
-0.775
-0.785
-0.795
-0.795
-0.815
-0.82
-0.84
-0.845
-0.85
-0.85
-0.86
-0.855
-0.865
-0.875
-0.88
-0.89
-0.91
-0.93
-0.93
-0.935
-0.945
-0.945
-0.955
-0.96
-0.95
-0.97
-0.98
-0.995
-1.005
-1.02
-1.035
-1.045
-1.05
-1.055
-1.055
-1.07
-1.07
-1.085
-1.095
-1.09
-1.09
-1.105
-1.12
-1.125
-1.115
-1.12
-1.11
-1.105
-1.095
-1.085
-1.09
-1.08
-1.08
-1.08
-1.08
-1.07
-1.045
-1.03
-1.01
-0.98
-0.95
-0.935
-0.925
-0.905
-0.89
-0.88
-0.86
-0.845
-0.83
-0.8
-0.775
-0.755
-0.73
-0.715
-0.7
-0.7
-0.695
-0.69
-0.685
-0.67
-0.67
-0.67
-0.65
-0.63
-0.63
-0.62
-0.61
-0.61
-0.61
-0.63
-0.625
-0.625
-0.62
-0.615
-0.615
-0.6
-0.595
-0.6
-0.605
-0.605
-0.62
-0.625
-0.625
-0.63
-0.635
-0.62
-0.625
-0.625
-0.61
-0.605
-0.6
-0.615
-0.62
-0.635
-0.635
-0.645
-0.635
-0.63
-0.62
-0.625
-0.625
-0.605
-0.605
-0.59
-0.59
-0.59
-0.59
-0.605
-0.59
-0.58
-0.585
-0.565
-0.54
-0.55
-0.54
-0.54
-0.545
-0.55
-0.55
-0.545
-0.545
-0.54
-0.535
-0.53
-0.51
-0.51
-0.515
-0.52
-0.53
-0.525
-0.53
-0.525
-0.525
-0.53
-0.52
-0.515
-0.495
-0.495
-0.5
-0.505
-0.5
-0.5
-0.52
-0.52
-0.505
-0.505
-0.51
-0.505
-0.5
-0.49
-0.5
-0.5
-0.5
-0.5
-0.5
-0.52
-0.52
-0.505
-0.495
-0.485
-0.475
-0.47
-0.475
-0.48
-0.485
-0.485
-0.49
-0.505
-0.5
-0.49
-0.48
-0.485
-0.48
-0.475
-0.47
-0.475
-0.465
-0.485
