Lead II
-0.555
-0.565
-0.575
-0.585
-0.575
-0.575
-0.565
-0.565
-0.58
-0.6
-0.6
-0.59
-0.58
-0.575
-0.585
-0.59
-0.58
-0.56
-0.56
-0.56
-0.555
-0.56
-0.54
-0.535
-0.52
-0.51
-0.515
-0.505
-0.495
-0.475
-0.45
-0.45
-0.455
-0.46
-0.44
-0.415
-0.405
-0.39
-0.37
-0.37
-0.35
-0.33
-0.305
-0.295
-0.285
-0.28
-0.255
-0.235
-0.215
-0.2
-0.2
-0.195
-0.185
-0.16
-0.13
-0.12
-0.115
-0.11
-0.095
-0.065
-0.055
-0.045
-0.05
-0.055
-0.045
-0.04
-0.015
-0.02
-0.025
-0.04
-0.045
-0.03
-0.02
-0.03
-0.045
-0.055
-0.06
-0.055
-0.05
-0.07
-0.07
-0.09
-0.1
-0.095
-0.085
-0.095
-0.105
-0.11
-0.11
-0.1
-0.1
-0.11
-0.1
-0.1
-0.1
-0.085
-0.085
-0.08
-0.09
-0.09
-0.085
-0.08
-0.065
-0.085
-0.085
-0.085
-0.07
-0.05
-0.03
-0.03
-0.04
-0.05
-0.045
-0.04
-0.045
-0.05
-0.055
-0.08
-0.07
-0.06
-0.04
-0.045
-0.045
-0.055
-0.06
-0.055
-0.065
-0.11
-0.155
-0.175
-0.2
-0.2
-0.21
-0.23
-0.26
-0.265
-0.27
-0.26
-0.255
-0.26
-0.265
-0.28
-0.26
-0.265
-0.255
-0.255
-0.265
-0.26
-0.275
-0.255
-0.25
-0.25
-0.26
-0.275
-0.26
-0.25
-0.24
-0.245
-0.255
-0.265
-0.27
-0.24
-0.24
-0.24
-0.245
-0.24
-0.24
-0.235
-0.22
-0.215
-0.215
-0.23
-0.235
-0.23
-0.215
-0.21
-0.215
-0.215
-0.225
-0.205
-0.22
-0.23
-0.255
-0.28
-0.275
-0.26
-0.195
-0.095
0.05
0.175
0.315
0.44
0.53
0.61
0.7
0.84
1.0
1.14
1.275
1.4
1.46
1.485
1.485
1.475
1.445
1.36
1.205
1.005
0.83
0.685
0.55
0.405
0.23
0.01
-0.18
-0.335
-0.46
-0.595
-0.715
-0.81
-0.85
-0.87
-0.865
-0.86
-0.86
-0.86
-0.845
-0.84
-0.81
-0.77
-0.745
-0.705
-0.68
-0.65
-0.63
-0.605
-0.6
-0.575
-0.55
-0.52
-0.495
-0.485
-0.49
-0.495
-0.48
-0.465
-0.465
-0.46
-0.48
-0.495
-0.5
-0.5
-0.49
-0.49
-0.51
-0.515
-0.525
-0.52
-0.515
-0.52
-0.52
-0.535
-0.54
-0.54
-0.535
-0.54
-0.55
-0.565
-0.57
-0.555
-0.555
-0.545
-0.565
-0.57
-0.565
-0.555
-0.54
-0.545
-0.555
-0.56
-0.55
-0.53
-0.51
-0.505
-0.51
-0.515
-0.495
-0.47
-0.445
-0.45
-0.45
-0.43
-0.425
-0.41
-0.37
-0.355
-0.35
-0.35
-0.325
-0.295
-0.285
-0.27
-0.265
-0.255
-0.24
-0.215
-0.195
-0.185
-0.17
-0.155
-0.14
-0.11
-0.105
-0.1
-0.09
-0.095
-0.08
-0.06
-0.035
-0.045
-0.04
-0.04
-0.03
-0.01
0.0
-0.015
-0.005
-0.02
-0.01
-0.02
-0.005
-0.015
-0.025
-0.035
-0.025
-0.02
-0.015
-0.02
-0.035
-0.06
-0.055
-0.055
-0.045
-0.06
-0.06
-0.075
-0.07
-0.07
-0.05
-0.05
-0.05
-0.07
-0.05
-0.055
-0.065
-0.05
-0.06
-0.06
-0.06
-0.06
-0.05
-0.045
-0.025
-0.035
-0.03
-0.015
-0.005
-0.015
-0.025
-0.035
-0.03
-0.045
-0.045
-0.04
-0.04
-0.055
-0.04
-0.025
-0.015
-0.025
-0.035
-0.065
-0.085
-0.115
-0.145
-0.145
-0.175
-0.225
-0.23
-0.245
-0.245
-0.255
-0.27
-0.28
-0.29
-0.275
-0.27
-0.275
-0.28
-0.285
-0.285
-0.27
-0.255
-0.25
-0.26
-0.285
-0.265
-0.25
-0.25
-0.24
-0.255
-0.265
-0.25
-0.255
-0.245
-0.23
-0.245
-0.26
-0.25
-0.225
-0.235
-0.225
-0.23
-0.235
-0.235
-0.22
-0.23
-0.225
-0.225
-0.23
-0.225
-0.22
-0.2
-0.215
-0.215
-0.23
-0.235
-0.235
-0.235
-0.27
-0.285
-0.275
-0.235
-0.14
0.005
0.155
0.295
0.41
0.51
0.605
0.74
0.88
1.025
1.17
1.325
1.445
1.5
1.515
1.495
1.44
1.38
1.24
1.055
0.855
0.69
0.525
0.38
0.215
-0.01
-0.23
-0.41
-0.555
-0.695
-0.78
-0.84
-0.87
-0.89
-0.89
-0.88
-0.855
-0.845
-0.84
-0.825
-0.785
-0.745
-0.68
-0.66
-0.63
-0.635
-0.61
-0.58
-0.55
-0.525
-0.5
-0.49
-0.505
-0.49
-0.485
-0.465
-0.485
-0.49
-0.505
-0.505
-0.505
-0.495
-0.495
-0.52
-0.525
-0.535
-0.52
-0.53
-0.525
-0.54
-0.545
-0.555
-0.55
-0.54
-0.55
-0.555
-0.57
-0.555
-0.55
-0.555
-0.565
-0.57
-0.575
-0.565
-0.565
-0.54
-0.55
-0.545
-0.54
-0.535
-0.52
-0.51
-0.5
-0.49
-0.495
-0.48
-0.455
-0.435
-0.435
-0.425
-0.425
-0.41
-0.385
-0.355
-0.335
-0.33
-0.33
-0.31
-0.285
-0.26
-0.235
-0.23
-0.225
-0.205
-0.19
-0.165
-0.14
-0.145
-0.15
-0.13
-0.105
-0.09
-0.07
-0.075
-0.08
-0.07
-0.045
-0.035
-0.04
-0.035
-0.045
-0.035
-0.03
-0.035
-0.04
-0.045
-0.06
-0.06
-0.045
-0.05
-0.055
-0.06
-0.08
-0.07
-0.075
-0.06
-0.085
-0.095
-0.11
-0.12
-0.115
-0.11
-0.11
-0.115
-0.12
-0.105
-0.085
-0.075
-0.075
-0.09
-0.115
-0.105
-0.1
-0.11
-0.105
-0.1
-0.105
-0.09
-0.075
-0.055
-0.06
-0.06
-0.07
-0.08
-0.065
-0.07
-0.075
-0.085
-0.1
-0.095
-0.08
-0.065
-0.06
-0.065
-0.075
-0.08
-0.08
-0.095
-0.11
-0.155
-0.19
-0.21
-0.23
-0.235
-0.26
-0.285
-0.305
-0.3
-0.295
-0.295
-0.3
-0.31
-0.31
-0.31
-0.3
-0.295
-0.31
-0.305
-0.315
-0.305
-0.295
-0.29
-0.295
-0.3
-0.305
-0.3
-0.3
-0.29
-0.285
-0.295
-0.3
-0.305
-0.285
-0.285
-0.27
-0.285
-0.295
-0.285
-0.28
-0.27
-0.265
-0.29
-0.28
-0.28
-0.265
-0.255
-0.255
-0.265
-0.26
-0.255
-0.24
-0.245
-0.25
-0.265
-0.285
-0.305
-0.31
-0.305
-0.315
-0.28
-0.19
-0.045
0.095
0.25
0.385
0.46
0.53
0.655
0.82
0.955
1.1
1.23
1.34
1.43
1.48
1.48
1.48
1.435
1.32
1.14
0.94
0.76
0.6
0.425
0.255
0.075
-0.125
-0.31
-0.47
-0.595
-0.73
-0.83
-0.895
-0.91
-0.94
-0.945
-0.955
-0.945
-0.92
-0.905
-0.905
-0.885
-0.84
-0.8
-0.755
-0.71
-0.705
-0.68
-0.665
-0.645
-0.615
-0.585
-0.565
-0.56
-0.56
-0.545
-0.54
-0.515
-0.525
-0.53
-0.55
-0.55
-0.55
-0.545
-0.54
-0.555
-0.57
-0.58
-0.575
-0.57
-0.58
-0.58
-0.61
-0.59
-0.59
-0.59
-0.59
-0.61
-0.62
-0.615
-0.62
-0.605
-0.61
-0.61
-0.625
-0.625
-0.615
-0.605
-0.6
-0.61
-0.615
-0.61
-0.595
-0.58
-0.58
-0.59
-0.575
-0.575
-0.545
-0.53
-0.525
-0.51
-0.51
-0.49
-0.47
-0.45
-0.43
-0.43
-0.425
-0.415
-0.385
-0.365
-0.345
-0.34
-0.34
-0.31
-0.295
-0.26
-0.25
-0.245
-0.25
-0.23
-0.195
-0.175
-0.17
-0.165
-0.15
-0.14
-0.115
-0.105
-0.095
-0.1
-0.11
-0.095
-0.085
-0.07
-0.075
-0.08
-0.09
-0.095
-0.085
-0.085
-0.08
-0.085
-0.1
-0.105
-0.095
-0.09
-0.095
-0.105
-0.125
-0.115
-0.12
-0.12
-0.13
-0.135
-0.16
-0.16
-0.16
-0.16
-0.16
-0.16
-0.155
-0.15
-0.15
-0.14
-0.135
-0.145
-0.155
-0.15
-0.15
-0.155
-0.16
-0.16
-0.17
-0.145
-0.125
-0.11
-0.09
-0.105
-0.12
-0.12
-0.105
-0.105
-0.105
-0.11
-0.125
-0.13
-0.125
-0.105
-0.105
-0.105
-0.11
-0.115
-0.115
-0.125
-0.14
-0.18
-0.23
-0.245
-0.26
-0.26
-0.285
-0.3
-0.33
-0.33
-0.34
-0.335
-0.325
-0.335
-0.35
-0.345
-0.34
-0.34
-0.32
-0.335
-0.35
-0.335
-0.34
-0.325
-0.315
-0.33
-0.34
-0.33
-0.315
-0.315
-0.32
-0.315
-0.34
-0.32
-0.32
-0.315
-0.31
-0.32
-0.33
-0.325
-0.315
-0.305
-0.305
-0.315
-0.32
-0.31
-0.295
-0.29
-0.295
-0.3
-0.315
-0.305
-0.295
-0.275
-0.28
-0.29
-0.285
-0.285
-0.285
-0.285
-0.29
-0.315
-0.33
-0.335
-0.315
-0.265
-0.165
-0.02
0.11
0.255
0.4
0.515
0.59
0.695
0.825
0.975
1.105
1.255
1.375
1.455
1.485
1.485
1.485
1.445
1.365
1.21
0.99
0.815
0.665
0.535
0.37
0.21
0.035
-0.17
-0.365
-0.525
-0.645
-0.78
-0.88
-0.945
-0.97
-0.97
-0.98
-0.96
-0.965
-0.945
-0.915
-0.89
-0.85
-0.82
-0.785
-0.745
-0.715
-0.705
-0.68
-0.65
-0.63
-0.615
-0.59
-0.565
-0.565
-0.56
-0.57
-0.565
-0.56
-0.55
-0.56
-0.575
-0.585
-0.585
-0.585
-0.575
-0.575
-0.595
-0.6
-0.605
-0.6
-0.605
-0.61
-0.63
-0.64
-0.64
-0.635
-0.63
-0.625
-0.635
-0.65
-0.635
-0.635
-0.63
-0.62
-0.635
-0.645
-0.635
-0.635
-0.62
-0.605
-0.605
-0.61
-0.605
-0.59
-0.575
-0.555
-0.555
-0.55
-0.535
-0.515
-0.49
-0.475
-0.46
-0.465
-0.435
-0.415
-0.385
-0.375
-0.355
-0.35
-0.325
-0.31
-0.29
-0.28
-0.255
-0.245
-0.225
-0.2
-0.18
-0.17
-0.17
-0.165
-0.16
-0.135
-0.115
-0.105
-0.115
-0.125
-0.11
-0.1
-0.085
-0.09
-0.105
-0.11
-0.105
-0.105
-0.085
-0.1
-0.115
-0.115
-0.12
-0.12
-0.11
-0.125
-0.13
-0.135
-0.15
-0.14
-0.14
-0.16
-0.16
-0.175
-0.175
-0.15
-0.14
-0.14
-0.14
-0.135
-0.125
-0.12
-0.12
-0.125
-0.135
-0.145
-0.135
-0.12
-0.11
-0.1
-0.11
-0.11
-0.105
-0.095
-0.085
-0.085
-0.095
-0.11
-0.125
-0.115
-0.09
-0.09
-0.1
-0.105
-0.095
-0.09
-0.085
-0.11
-0.13
-0.175
-0.215
-0.23
-0.235
-0.25
-0.28
-0.32
-0.32
-0.31
-0.315
-0.31
-0.32
-0.33
-0.335
-0.325
-0.315
-0.315
-0.335
-0.34
-0.34
-0.33
-0.33
-0.315
-0.32
-0.335
-0.335
-0.325
-0.3
-0.31
-0.31
-0.32
-0.325
-0.305
-0.305
-0.305
-0.305
-0.315
-0.31
-0.3
-0.285
-0.29
-0.295
-0.305
-0.295
-0.295
-0.285
-0.28
-0.275
-0.29
-0.275
-0.265
-0.26
-0.265
-0.27
-0.285
-0.29
-0.285
-0.3
-0.32
-0.34
-0.35
-0.33
-0.25
-0.125
0.01
0.16
0.275
0.385
0.475
0.585
0.705
0.845
0.98
1.125
1.265
1.395
1.48
1.51
1.5
1.495
1.48
1.435
1.295
1.095
0.895
0.74
0.61
0.475
0.295
0.105
-0.11
-0.285
-0.435
-0.55
-0.7
-0.815
-0.92
-0.96
-0.975
-0.965
-0.965
-0.965
-0.955
-0.96
-0.94
-0.895
-0.87
-0.82
-0.795
-0.775
-0.73
-0.705
-0.685
-0.67
-0.66
-0.62
-0.6
-0.58
-0.565
-0.56
-0.58
-0.565
-0.555
-0.55
-0.555
-0.57
-0.58
-0.58
-0.57
-0.555
-0.575
-0.59
-0.605
-0.61
-0.605
-0.595
-0.595
-0.615
-0.615
-0.63
-0.625
-0.615
-0.62
-0.635
-0.64
-0.64
-0.64
-0.625
-0.615
-0.63
-0.64
-0.64
-0.625
-0.62
-0.615
-0.625
-0.615
-0.605
-0.585
-0.575
-0.56
-0.56
-0.565
-0.545
-0.515
-0.495
-0.485
-0.48
-0.47
-0.465
-0.445
-0.42
-0.405
-0.38
-0.385
-0.36
-0.34
-0.315
-0.295
-0.29
-0.28
-0.255
-0.24
-0.215
-0.21
-0.2
-0.2
-0.175
-0.15
-0.125
-0.11
-0.12
-0.125
-0.105
-0.09
-0.075
-0.065
-0.07
-0.075
-0.07
-0.065
-0.055
-0.06
-0.07
-0.075
-0.075
-0.075
-0.065
-0.075
-0.1
-0.11
-0.105
-0.11
-0.11
-0.11
-0.13
-0.145
-0.145
-0.14
-0.14
-0.16
-0.155
-0.16
-0.165
-0.135
-0.13
-0.13
-0.14
-0.15
-0.14
-0.135
-0.135
-0.125
-0.13
-0.13
-0.12
-0.095
-0.08
-0.07
-0.095
-0.095
-0.095
-0.085
-0.09
-0.1
-0.105
-0.12
-0.105
-0.09
-0.085
-0.08
-0.085
-0.12
-0.12
-0.135
-0.16
-0.195
-0.235
-0.265
-0.28
-0.295
-0.29
-0.32
-0.32
-0.335
-0.335
-0.33
-0.32
-0.32
-0.33
-0.34
-0.33
-0.325
-0.315
-0.32
-0.315
-0.33
-0.33
-0.315
-0.31
-0.31
-0.31
-0.33
-0.325
-0.315
-0.305
-0.305
-0.315
-0.315
-0.32
-0.31
-0.305
-0.3
-0.29
-0.295
-0.295
-0.29
-0.29
-0.285
-0.29
-0.29
-0.275
-0.27
-0.28
-0.28
-0.28
-0.295
-0.285
-0.285
-0.285
-0.31
-0.325
-0.35
-0.345
-0.315
-0.26
-0.145
-0.015
0.1
0.245
0.37
0.47
0.54
0.655
0.775
0.95
1.105
1.25
1.38
1.47
1.495
1.505
1.505
1.5
1.445
1.325
1.13
0.935
0.79
0.645
0.5
0.355
0.17
-0.035
-0.215
-0.385
-0.53
-0.66
-0.795
-0.885
-0.94
-0.95
-0.97
-0.98
-0.98
-0.96
-0.94
-0.925
-0.905
-0.89
-0.845
-0.815
-0.765
-0.73
-0.72
-0.705
-0.71
-0.675
-0.645
-0.605
-0.595
-0.59
-0.595
-0.58
-0.575
-0.56
-0.56
-0.57
-0.595
-0.595
-0.575
-0.575
-0.585
-0.595
-0.605
-0.61
-0.6
-0.59
-0.605
-0.605
-0.63
-0.62
-0.6
-0.615
-0.605
-0.625
-0.63
-0.63
-0.625
-0.625
-0.635
-0.635
-0.64
-0.635
-0.63
-0.625
-0.635
-0.64
-0.635
-0.625
-0.63
-0.605
-0.6
-0.61
-0.605
-0.605
-0.57
-0.565
-0.55
-0.545
-0.555
-0.525
-0.505
-0.49
-0.475
-0.455
-0.455
-0.43
-0.415
-0.39
-0.38
-0.36
-0.365
-0.35
-0.315
-0.29
-0.275
-0.27
-0.27
-0.255
-0.225
-0.2
-0.19
-0.185
-0.195
-0.16
-0.145
-0.125
-0.12
-0.125
-0.12
-0.12
-0.105
-0.09
-0.08
-0.085
-0.095
-0.095
-0.08
-0.07
-0.08
-0.095
-0.105
-0.1
-0.1
-0.09
-0.11
-0.11
-0.13
-0.125
-0.125
-0.12
-0.135
-0.145
-0.155
-0.16
-0.16
-0.155
-0.155
-0.155
-0.16
-0.15
-0.135
-0.145
-0.13
-0.145
-0.145
-0.14
-0.14
-0.135
-0.14
-0.135
-0.13
-0.13
-0.115
-0.09
-0.08
-0.105
-0.11
-0.11
-0.09
-0.095
-0.11
-0.11
-0.13
-0.125
-0.105
-0.1
-0.1
-0.1
-0.11
-0.12
-0.125
-0.135
-0.155
-0.195
-0.235
-0.245
-0.25
-0.26
-0.285
-0.315
-0.34
-0.345
-0.335
-0.325
-0.34
-0.35
-0.37
-0.37
-0.345
-0.34
-0.335
-0.335
-0.35
-0.345
-0.35
-0.33
-0.32
-0.33
-0.34
-0.33
-0.32
-0.295
-0.31
-0.33
-0.335
-0.33
-0.325
-0.31
-0.325
-0.31
-0.325
-0.315
-0.305
-0.3
-0.295
-0.295
-0.31
-0.305
-0.3
-0.295
-0.29
-0.305
-0.31
-0.295
-0.295
-0.285
-0.285
-0.29
-0.305
-0.295
-0.295
-0.285
-0.31
-0.34
-0.365
-0.355
-0.34
-0.285
-0.205
-0.095
0.02
0.16
0.3
0.4
0.485
0.545
0.645
0.795
0.94
1.1
1.23
1.36
1.445
1.51
1.535
1.54
1.515
1.435
1.315
1.135
0.97
0.825
0.68
0.525
0.355
0.205
0.005
-0.18
-0.37
-0.515
-0.655
-0.78
-0.875
-0.94
-0.975
-1.01
-1.015
-1.01
-0.995
-0.965
-0.965
-0.97
-0.965
-0.93
-0.885
-0.84
-0.805
-0.775
-0.755
-0.75
-0.72
-0.705
-0.675
-0.65
-0.635
-0.615
-0.595
-0.57
-0.575
-0.58
-0.575
-0.575
-0.565
-0.565
-0.57
-0.58
-0.605
-0.595
-0.585
-0.595
-0.605
-0.615
-0.63
-0.63
-0.625
-0.62
-0.64
-0.64
-0.65
-0.655
-0.645
-0.635
-0.65
-0.65
-0.66
-0.66
-0.655
-0.645
-0.645
-0.655
-0.665
-0.665
-0.66
-0.645
-0.64
-0.65
-0.66
-0.65
-0.63
-0.625
-0.61
-0.605
-0.625
-0.615
-0.58
-0.565
-0.565
-0.55
-0.555
-0.53
-0.505
-0.49
-0.47
-0.46
-0.465
-0.45
-0.43
-0.395
-0.385
-0.365
-0.37
-0.34
-0.32
-0.29
-0.27
-0.275
-0.27
-0.245
-0.23
-0.215
-0.2
-0.185
-0.18
-0.175
-0.155
-0.14
-0.135
-0.125
-0.125
-0.105
-0.1
-0.09
-0.08
-0.09
-0.105
-0.09
-0.095
-0.095
-0.09
-0.105
-0.11
-0.115
-0.115
-0.105
-0.12
-0.135
-0.16
-0.165
-0.14
-0.15
-0.155
-0.17
-0.19
-0.19
-0.185
-0.175
-0.18
-0.2
-0.205
-0.18
-0.17
-0.15
-0.145
-0.155
-0.175
-0.17
-0.165
-0.16
-0.155
-0.17
-0.16
-0.14
-0.125
-0.11
-0.095
-0.105
-0.11
-0.115
-0.105
-0.105
-0.13
-0.115
-0.13
-0.12
-0.11
-0.09
-0.09
-0.105
-0.11
-0.12
-0.12
-0.13
-0.165
-0.21
-0.245
-0.26
-0.265
-0.275
-0.3
-0.325
-0.34
-0.33
-0.32
-0.315
-0.33
-0.345
-0.35
-0.345
-0.33
-0.325
-0.32
-0.325
-0.34
-0.325
-0.32
-0.31
-0.3
-0.32
-0.33
-0.335
-0.325
-0.31
-0.33
-0.32
-0.325
-0.32
-0.31
-0.295
-0.29
-0.29
-0.315
-0.32
-0.3
-0.29
-0.285
-0.295
-0.3
-0.29
-0.285
-0.275
-0.275
-0.285
-0.285
-0.275
-0.265
-0.26
-0.265
-0.275
-0.29
-0.3
-0.29
-0.3
-0.3
-0.285
-0.245
-0.135
0.015
0.175
0.305
0.425
0.52
0.61
0.72
0.84
0.975
1.095
1.225
1.37
1.47
1.56
1.595
1.585
1.555
1.515
1.45
1.305
1.105
0.9
0.725
0.565
0.405
0.245
0.055
-0.155
-0.36
-0.515
-0.63
-0.74
-0.845
-0.93
-0.995
-1.015
-1.0
-0.99
-0.98
-0.965
-0.975
-0.965
-0.94
-0.89
-0.865
-0.835
-0.81
-0.79
-0.745
-0.725
-0.715
-0.69
-0.68
-0.65
-0.62
-0.59
-0.58
-0.575
-0.59
-0.58
-0.57
-0.565
-0.575
-0.595
-0.6
-0.59
-0.575
-0.58
-0.58
-0.6
-0.62
-0.61
-0.61
-0.6
-0.605
-0.615
-0.62
-0.63
-0.625
-0.625
-0.625
-0.64
-0.65
-0.655
-0.645
-0.645
-0.655
-0.655
-0.665
-0.67
-0.65
-0.65
-0.65
-0.65
-0.665
-0.665
-0.64
-0.64
-0.62
-0.64
-0.64
-0.625
-0.615
-0.59
-0.585
-0.58
-0.585
-0.565
-0.545
-0.53
-0.515
-0.51
-0.51
-0.49
-0.47
-0.45
-0.435
-0.435
-0.425
-0.4
-0.385
-0.355
-0.35
-0.33
-0.33
-0.315
-0.295
-0.27
-0.265
-0.25
-0.25
-0.23
-0.215
-0.175
-0.18
-0.18
-0.16
-0.15
-0.135
-0.11
-0.115
-0.11
-0.12
-0.11
-0.095
-0.095
-0.085
-0.1
-0.105
-0.105
-0.095
-0.095
-0.1
-0.095
-0.13
-0.125
-0.12
-0.12
-0.12
-0.14
-0.15
-0.15
-0.15
-0.14
-0.145
-0.165
-0.17
-0.17
-0.18
-0.18
-0.175
-0.195
-0.2
-0.195
-0.185
-0.175
-0.155
-0.16
-0.17
-0.17
-0.165
-0.16
-0.16
-0.165
-0.18
-0.175
-0.155
-0.14
-0.125
-0.125
-0.125
-0.115
-0.105
-0.1
-0.105
-0.105
-0.115
-0.12
-0.11
-0.105
-0.1
-0.105
-0.115
-0.105
-0.1
-0.085
-0.095
-0.105
-0.14
-0.145
-0.16
-0.195
-0.215
-0.26
-0.275
-0.295
-0.305
-0.31
-0.325
-0.33
-0.34
-0.35
-0.34
-0.33
-0.335
-0.335
-0.35
-0.335
-0.33
-0.32
-0.33
-0.33
-0.34
-0.33
-0.305
-0.305
-0.32
-0.315
-0.33
-0.325
-0.3
-0.3
-0.305
-0.3
-0.325
-0.315
-0.3
-0.295
-0.3
-0.305
-0.3
-0.305
-0.3
-0.29
-0.29
-0.29
-0.31
-0.295
-0.295
-0.295
-0.295
-0.28
-0.295
-0.28
-0.275
-0.285
-0.285
-0.28
-0.29
-0.305
-0.315
-0.32
-0.325
-0.3
-0.275
-0.175
-0.03
0.13
0.29
0.4
0.495
0.595
0.71
0.85
1.0
1.145
1.285
1.425
1.535
1.6
1.615
1.585
1.555
1.495
1.37
1.185
0.99
0.815
0.655
0.5
0.36
0.21
-0.005
-0.22
-0.42
-0.555
-0.68
-0.795
-0.88
-0.94
-0.98
-0.985
-0.985
-0.96
-0.95
-0.955
-0.965
-0.94
-0.91
-0.84
-0.81
-0.78
-0.755
-0.725
-0.705
-0.67
-0.66
-0.64
-0.625
-0.6
-0.58
-0.56
-0.545
-0.54
-0.555
-0.555
-0.55
-0.535
-0.545
-0.555
-0.58
-0.575
-0.565
-0.57
-0.575
-0.575
-0.595
-0.605
-0.59
-0.595
-0.6
-0.61
-0.62
-0.615
-0.62
-0.62
-0.62
-0.625
-0.635
-0.64
-0.635
-0.625
-0.63
-0.65
-0.645
-0.645
-0.63
-0.62
-0.615
-0.625
-0.625
-0.63
-0.61
-0.605
-0.595
-0.585
-0.585
-0.59
-0.58
-0.565
-0.555
-0.55
-0.545
-0.525
-0.51
-0.48
-0.48
-0.46
-0.46
-0.44
-0.42
-0.395
-0.375
-0.37
-0.385
-0.36
-0.325
-0.31
-0.295
-0.275
-0.28
-0.265
-0.25
-0.215
-0.205
-0.205
-0.195
-0.175
-0.145
-0.13
-0.125
-0.125
-0.12
-0.115
-0.1
-0.085
-0.07
-0.075
-0.08
-0.075
-0.065
-0.06
-0.06
-0.075
-0.08
-0.075
-0.07
-0.06
-0.08
-0.08
-0.095
-0.095
-0.1
-0.085
-0.085
-0.095
-0.11
-0.12
-0.115
-0.12
-0.115
-0.14
-0.15
-0.14
-0.135
-0.125
-0.125
-0.135
-0.145
-0.14
-0.105
-0.095
-0.105
-0.11
-0.125
-0.13
-0.12
-0.1
-0.095
-0.105
-0.1
-0.09
-0.075
-0.06
-0.07
-0.075
-0.09
-0.085
-0.08
-0.075
-0.085
-0.085
-0.1
-0.08
-0.075
-0.06
-0.06
-0.065
-0.1
-0.11
-0.115
-0.135
-0.165
-0.195
-0.22
-0.25
-0.25
-0.27
-0.29
-0.31
-0.32
-0.325
-0.305
-0.31
-0.31
-0.315
-0.32
-0.325
-0.31
-0.3
-0.305
-0.31
-0.315
-0.32
-0.315
-0.295
-0.29
-0.31
-0.315
-0.315
-0.305
-0.3
-0.285
-0.285
-0.305
-0.305
-0.29
-0.27
-0.29
-0.3
-0.295
-0.3
-0.285
-0.28
-0.27
-0.285
-0.29
-0.27
-0.27
-0.25
-0.255
-0.265
-0.285
-0.285
-0.28
-0.275
-0.305
-0.34
-0.36
-0.31
-0.22
-0.085
0.065
0.21
0.34
0.455
0.545
0.66
0.815
0.97
1.115
1.285
1.425
1.53
1.58
1.6
1.57
1.54
1.47
1.33
1.12
0.915
0.74
0.57
0.425
0.245
0.02
-0.205
-0.405
-0.555
-0.69
-0.8
-0.895
-0.955
-0.99
-1.0
-0.98
-0.96
-0.95
-0.95
-0.945
-0.91
-0.845
-0.8
-0.765
-0.745
-0.735
-0.71
-0.67
-0.635
-0.62
-0.61
-0.6
-0.585
-0.575
-0.56
-0.56
-0.57
-0.575
-0.57
-0.58
-0.575
-0.575
-0.595
-0.615
-0.605
-0.59
-0.595
-0.605
-0.62
-0.635
-0.64
-0.64
-0.635
-0.64
-0.655
-0.665
-0.665
-0.65
-0.645
-0.65
-0.66
-0.665
-0.67
-0.655
-0.635
-0.635
-0.65
-0.65
-0.64
-0.635
-0.62
-0.615
-0.625
-0.615
-0.61
-0.575
-0.555
-0.545
-0.545
-0.535
-0.53
-0.5
-0.475
-0.465
-0.46
-0.46
-0.435
-0.42
-0.4
-0.38
-0.38
-0.365
-0.345
-0.315
-0.29
-0.28
-0.26
-0.265
-0.245
-0.22
-0.195
-0.19
-0.185
-0.17
-0.145
-0.135
-0.125
-0.1
-0.115
-0.12
-0.1
-0.09
-0.075
-0.08
-0.09
-0.1
-0.09
-0.08
-0.065
-0.075
-0.075
-0.09
-0.1
-0.085
-0.085
-0.1
-0.095
-0.12
-0.12
-0.13
-0.12
-0.14
-0.145
-0.16
-0.155
-0.155
-0.155
-0.155
-0.155
-0.17
-0.16
-0.14
-0.125
-0.12
-0.135
-0.145
-0.14
-0.135
-0.11
-0.1
-0.09
-0.1
-0.09
-0.08
-0.06
-0.065
-0.07
-0.075
-0.08
-0.07
-0.065
-0.075
-0.09
-0.095
-0.09
-0.08
-0.07
-0.065
-0.075
-0.1
-0.115
-0.115
-0.135
-0.165
-0.205
-0.24
-0.255
-0.265
-0.28
-0.29
-0.315
-0.335
-0.32
-0.32
-0.31
-0.32
-0.325
-0.335
-0.33
-0.315
-0.31
-0.315
-0.32
-0.335
-0.335
-0.31
-0.305
-0.305
-0.315
-0.32
-0.325
-0.31
-0.305
-0.31
-0.305
-0.315
-0.305
-0.295
-0.29
-0.28
-0.285
-0.305
-0.29
-0.28
-0.275
-0.27
-0.27
-0.285
-0.285
-0.27
-0.26
-0.26
-0.255
-0.275
-0.26
-0.265
-0.27
-0.28
-0.305
-0.32
-0.305
-0.25
-0.14
-0.005
0.165
0.32
0.465
0.59
0.71
0.865
1.03
1.19
1.36
1.52
1.63
1.655
1.64
1.595
1.525
1.355
1.145
0.935
0.735
0.53
0.35
0.125
-0.125
-0.37
-0.555
-0.715
-0.83
-0.915
-0.945
-0.96
-0.985
-0.97
-0.955
-0.94
-0.915
-0.88
-0.845
-0.8
-0.755
-0.715
-0.685
-0.665
-0.655
-0.635
-0.605
-0.57
-0.54
-0.55
-0.55
-0.565
-0.555
-0.545
-0.54
-0.545
-0.56
-0.58
-0.565
-0.565
-0.58
-0.58
-0.585
-0.59
-0.595
-0.595
-0.595
-0.595
-0.6
-0.625
-0.635
-0.63
-0.6
-0.61
-0.62
-0.635
-0.64
-0.64
-0.63
-0.62
-0.635
-0.65
-0.635
-0.62
-0.61
-0.62
-0.615
-0.62
-0.61
-0.58
-0.565
-0.55
-0.55
-0.55
-0.525
-0.515
-0.5
-0.46
-0.465
-0.45
-0.435
-0.405
-0.385
-0.365
-0.35
-0.345
-0.325
-0.295
-0.26
-0.245
-0.235
-0.23
-0.215
-0.195
-0.165
-0.15
-0.16
-0.145
-0.13
-0.125
-0.1
-0.095
-0.09
-0.1
-0.1
-0.07
-0.055
-0.055
-0.07
-0.08
-0.095
-0.075
-0.075
-0.08
-0.085
-0.11
-0.09
-0.09
-0.09
-0.09
-0.11
-0.13
-0.14
-0.135
-0.135
-0.13
-0.145
-0.165
-0.155
-0.15
-0.13
-0.13
-0.13
-0.135
-0.135
-0.135
-0.13
-0.14
-0.14
-0.145
-0.135
-0.125
-0.12
-0.11
-0.095
-0.105
-0.105
-0.085
-0.065
-0.065
-0.085
-0.09
-0.11
-0.095
-0.095
-0.09
-0.08
-0.095
-0.09
-0.075
-0.075
-0.085
-0.1
-0.14
-0.18
-0.195
-0.215
-0.24
-0.26
-0.28
-0.295
-0.3
-0.295
-0.3
-0.31
-0.325
-0.33
-0.325
-0.32
-0.325
-0.32
-0.335
-0.33
-0.325
-0.315
-0.31
-0.315
-0.33
-0.325
-0.32
-0.32
-0.31
-0.305
-0.315
-0.31
-0.3
-0.295
-0.3
-0.29
-0.305
-0.31
-0.295
-0.285
-0.285
-0.285
-0.295
-0.29
-0.28
-0.27
-0.26
-0.275
-0.285
-0.28
-0.26
-0.25
-0.255
-0.265
-0.27
-0.275
-0.28
-0.29
-0.305
-0.295
-0.26
-0.135
0.03
0.215
0.375
0.505
0.61
0.715
0.855
1.005
1.165
1.315
1.445
1.575
1.655
1.68
1.67
1.63
1.535
1.38
1.175
0.965
0.765
0.565
0.375
0.175
-0.05
-0.285
-0.475
-0.65
-0.795
-0.905
-0.97
-0.995
-1.025
-1.035
-1.025
-1.0
-0.98
-0.955
-0.955
-0.935
-0.895
-0.85
-0.79
-0.75
-0.73
-0.715
-0.695
-0.665
-0.64
-0.61
-0.585
-0.6
-0.585
-0.57
-0.56
-0.555
-0.55
-0.55
-0.57
-0.565
-0.56
-0.56
-0.565
-0.58
-0.595
-0.6
-0.59
-0.59
-0.585
-0.605
-0.625
-0.625
-0.61
-0.6
-0.62
-0.635
-0.65
-0.64
-0.63
-0.615
-0.63
-0.63
-0.64
-0.64
-0.64
-0.62
-0.625
-0.64
-0.65
-0.635
-0.615
-0.6
-0.59
-0.595
-0.61
-0.585
-0.565
-0.545
-0.54
-0.53
-0.53
-0.52
-0.495
-0.47
-0.455
-0.45
-0.44
-0.43
-0.4
-0.385
-0.365
-0.36
-0.35
-0.325
-0.315
-0.285
-0.285
-0.265
-0.26
-0.23
-0.205
-0.185
-0.17
-0.18
-0.17
-0.14
-0.12
-0.1
-0.1
-0.09
-0.09
-0.08
-0.075
-0.065
-0.065
-0.07
-0.095
-0.085
-0.07
-0.06
-0.06
-0.065
-0.095
-0.09
-0.08
-0.09
-0.085
-0.105
-0.12
-0.12
-0.11
-0.115
-0.125
-0.135
-0.155
-0.155
-0.15
-0.14
-0.145
-0.15
-0.155
-0.155
-0.135
-0.13
-0.135
-0.125
-0.145
-0.15
-0.135
-0.12
-0.125
-0.135
-0.155
-0.145
-0.12
-0.11
-0.095
-0.09
-0.095
-0.1
-0.085
-0.07
-0.075
-0.085
-0.1
-0.1
-0.095
-0.09
-0.085
-0.095
-0.105
-0.105
-0.075
-0.075
-0.08
-0.105
-0.145
-0.165
-0.19
-0.21
-0.23
-0.255
-0.28
-0.29
-0.305
-0.295
-0.3
-0.31
-0.32
-0.325
-0.315
-0.305
-0.31
-0.315
-0.325
-0.325
-0.315
-0.295
-0.31
-0.31
-0.32
-0.32
-0.3
-0.29
-0.31
-0.315
-0.32
-0.315
-0.31
-0.3
-0.305
-0.305
-0.32
-0.3
-0.305
-0.295
-0.295
-0.295
-0.31
-0.3
-0.295
-0.285
-0.28
-0.295
-0.295
-0.295
-0.275
-0.27
-0.255
-0.27
-0.275
-0.28
-0.265
-0.265
-0.265
-0.28
-0.305
-0.31
-0.305
-0.285
-0.255
-0.17
-0.06
0.12
0.28
0.435
0.56
0.645
0.74
0.875
1.045
1.19
1.33
1.47
1.57
1.645
1.67
1.67
1.65
1.59
1.48
1.3
1.09
0.9
0.735
0.56
0.39
0.215
0.02
-0.205
-0.395
-0.55
-0.7
-0.8
-0.88
-0.94
-0.995
-1.005
-1.0
-0.985
-0.955
-0.95
-0.935
-0.925
-0.895
-0.84
-0.795
-0.76
-0.73
-0.71
-0.705
-0.68
-0.65
-0.615
-0.59
-0.58
-0.58
-0.58
-0.56
-0.54
-0.53
-0.545
-0.56
-0.565
-0.55
-0.55
-0.555
-0.57
-0.59
-0.58
-0.58
-0.585
-0.59
-0.595
-0.61
-0.605
-0.62
-0.605
-0.615
-0.625
-0.64
-0.64
-0.635
-0.61
-0.615
-0.625
-0.635
-0.64
-0.63
-0.625
-0.625
-0.635
-0.64
-0.62
-0.615
-0.59
-0.585
-0.59
-0.58
-0.58
-0.555
-0.545
-0.53
-0.525
-0.515
-0.495
-0.475
-0.455
-0.445
-0.435
-0.435
-0.41
-0.385
-0.365
-0.34
-0.325
-0.32
-0.295
-0.265
-0.255
-0.225
-0.225
-0.215
-0.195
-0.17
-0.15
-0.145
-0.14
-0.135
-0.12
-0.095
-0.1
-0.075
-0.09
-0.095
-0.095
-0.07
-0.055
-0.055
-0.05
-0.075
-0.065
-0.065
-0.05
-0.075
-0.085
-0.095
-0.095
-0.09
-0.08
-0.09
-0.105
-0.12
-0.12
-0.115
-0.105
-0.12
-0.115
-0.14
-0.14
-0.12
-0.11
-0.1
-0.11
-0.115
-0.105
-0.105
-0.1
-0.1
-0.12
-0.12
-0.105
-0.09
-0.065
-0.08
-0.065
-0.065
-0.055
-0.05
-0.035
-0.04
-0.045
-0.07
-0.075
-0.065
-0.055
-0.05
-0.065
-0.06
-0.06
-0.06
-0.055
-0.07
-0.11
-0.16
-0.18
-0.19
-0.205
-0.23
-0.27
-0.295
-0.295
-0.305
-0.285
-0.295
-0.31
-0.325
-0.315
-0.315
-0.295
-0.295
-0.295
-0.315
-0.315
-0.305
-0.3
-0.29
-0.3
-0.315
-0.305
-0.285
-0.28
-0.28
-0.3
-0.305
-0.3
-0.285
-0.27
-0.27
-0.28
-0.29
-0.27
-0.275
-0.27
-0.26
-0.295
-0.28
-0.265
-0.255
-0.245
-0.25
-0.26
-0.265
-0.265
-0.245
-0.235
-0.235
-0.245
-0.26
-0.265
-0.275
-0.28
-0.3
-0.3
-0.31
-0.28
-0.185
-0.035
0.115
0.255
0.385
0.5
0.605
0.725
0.885
1.045
1.195
1.355
1.49
1.6
1.64
1.645
1.635
1.61
1.57
1.45
1.245
1.045
0.88
0.745
0.6
0.465
0.275
0.05
-0.185
-0.365
-0.5
-0.625
-0.745
-0.85
-0.91
-0.93
-0.93
-0.91
-0.905
-0.915
-0.915
-0.905
-0.875
-0.835
-0.795
-0.76
-0.735
-0.685
-0.67
-0.64
-0.63
-0.605
-0.595
-0.56
-0.535
