Lead II
-0.53
-0.545
-0.55
-0.535
-0.525
-0.53
-0.51
-0.51
-0.515
-0.535
-0.525
-0.515
-0.5
-0.51
-0.54
-0.525
-0.52
-0.495
-0.5
-0.52
-0.52
-0.495
-0.48
-0.485
-0.485
-0.49
-0.5
-0.51
-0.49
-0.47
-0.435
-0.385
-0.315
-0.255
-0.16
-0.075
0.02
0.16
0.275
0.4
0.5
0.585
0.68
0.77
0.855
0.935
0.995
1.015
1.02
1.05
1.04
0.99
0.935
0.865
0.705
0.525
0.405
0.31
0.215
0.095
-0.07
-0.245
-0.385
-0.46
-0.52
-0.585
-0.64
-0.655
-0.66
-0.665
-0.665
-0.67
-0.68
-0.71
-0.715
-0.715
-0.72
-0.715
-0.715
-0.73
-0.765
-0.78
-0.77
-0.76
-0.765
-0.79
-0.81
-0.81
-0.775
-0.755
-0.765
-0.78
-0.78
-0.77
-0.765
-0.755
-0.755
-0.755
-0.75
-0.745
-0.725
-0.705
-0.715
-0.715
-0.72
-0.72
-0.705
-0.68
-0.675
-0.685
-0.69
-0.675
-0.65
-0.615
-0.595
-0.62
-0.62
-0.605
-0.555
-0.54
-0.54
-0.545
-0.55
-0.525
-0.49
-0.475
-0.47
-0.46
-0.45
-0.425
-0.395
-0.37
-0.34
-0.335
-0.35
-0.33
-0.295
-0.26
-0.26
-0.245
-0.265
-0.215
-0.19
-0.175
-0.175
-0.175
-0.175
-0.19
-0.2
-0.185
-0.2
-0.21
-0.235
-0.255
-0.24
-0.215
-0.235
-0.265
-0.275
-0.265
-0.26
-0.28
-0.285
-0.29
-0.305
-0.315
-0.335
-0.31
-0.295
-0.32
-0.335
-0.35
-0.345
-0.32
-0.335
-0.365
-0.36
-0.35
-0.345
-0.34
-0.35
-0.34
-0.37
-0.36
-0.355
-0.34
-0.34
-0.355
-0.365
-0.365
-0.33
-0.305
-0.33
-0.335
-0.32
-0.305
-0.3
-0.29
-0.29
-0.3
-0.295
-0.29
-0.285
-0.25
-0.245
-0.28
-0.285
-0.265
-0.245
-0.24
-0.25
-0.25
-0.26
-0.255
-0.25
-0.245
-0.235
-0.235
-0.265
-0.285
-0.28
-0.28
-0.28
-0.3
-0.32
-0.305
-0.305
-0.3
-0.3
-0.315
-0.33
-0.33
-0.33
-0.29
-0.285
-0.295
-0.305
-0.31
-0.275
-0.275
-0.265
-0.275
-0.285
-0.275
-0.26
-0.26
-0.245
-0.25
-0.26
-0.26
-0.245
-0.22
-0.225
-0.235
-0.255
-0.23
-0.215
-0.2
-0.2
-0.215
-0.225
-0.19
-0.195
-0.19
-0.205
-0.215
-0.21
-0.205
-0.21
-0.215
-0.22
-0.23
-0.205
-0.155
-0.075
0.005
0.06
0.135
0.21
0.32
0.455
0.57
0.675
0.755
0.835
0.905
1.0
1.13
1.21
1.255
1.29
1.315
1.32
1.35
1.375
1.33
1.265
1.175
1.04
0.89
0.745
0.63
0.495
0.345
0.16
0.035
-0.085
-0.18
-0.28
-0.315
-0.325
-0.285
-0.305
-0.35
-0.385
-0.39
-0.385
-0.375
-0.405
-0.435
-0.45
-0.435
-0.45
-0.46
-0.49
-0.505
-0.52
-0.53
-0.54
-0.535
-0.535
-0.545
-0.565
-0.565
-0.545
-0.545
-0.54
-0.55
-0.575
-0.545
-0.52
-0.51
-0.515
-0.515
-0.51
-0.495
-0.485
-0.48
-0.46
-0.45
-0.445
-0.44
-0.415
-0.38
-0.37
-0.37
-0.38
-0.345
-0.3
-0.26
-0.255
-0.27
-0.25
-0.22
-0.2
-0.18
-0.18
-0.16
-0.165
-0.135
-0.125
-0.105
-0.08
-0.07
-0.07
-0.06
-0.04
-0.015
-0.02
-0.05
-0.06
-0.07
-0.05
-0.06
-0.085
-0.115
-0.13
-0.145
-0.165
-0.18
-0.195
-0.23
-0.255
-0.28
-0.285
-0.275
-0.305
-0.34
-0.365
-0.365
-0.36
-0.36
-0.38
-0.4
-0.405
-0.395
-0.395
-0.39
-0.385
-0.405
-0.415
-0.42
-0.42
-0.405
-0.4
-0.425
-0.44
-0.435
-0.43
-0.405
-0.425
-0.45
-0.45
-0.455
-0.43
-0.43
-0.445
-0.47
-0.495
-0.495
-0.485
-0.49
-0.485
-0.495
-0.515
-0.525
-0.51
-0.52
-0.515
-0.525
-0.545
-0.55
-0.535
-0.51
-0.535
-0.545
-0.565
-0.56
-0.55
-0.55
-0.555
-0.575
-0.595
-0.58
-0.585
-0.575
-0.565
-0.59
-0.615
-0.6
-0.585
-0.59
-0.605
-0.635
-0.645
-0.63
-0.62
-0.615
-0.61
-0.61
-0.63
-0.63
-0.625
-0.595
-0.59
-0.61
-0.615
-0.625
-0.59
-0.6
-0.615
-0.63
-0.64
-0.66
-0.63
-0.615
-0.63
-0.645
-0.655
-0.66
-0.655
-0.635
-0.635
-0.645
-0.67
-0.675
-0.665
-0.63
-0.645
-0.68
-0.685
-0.695
-0.67
-0.67
-0.675
-0.68
-0.695
-0.685
-0.67
-0.67
-0.675
-0.685
-0.685
-0.69
-0.695
-0.67
-0.665
-0.69
-0.71
-0.715
-0.685
-0.67
-0.67
-0.7
-0.705
-0.705
-0.71
-0.695
-0.705
-0.725
-0.74
-0.755
-0.755
-0.735
-0.72
-0.74
-0.76
-0.73
-0.71
-0.695
-0.705
-0.725
-0.735
-0.715
-0.715
-0.71
-0.685
-0.69
-0.71
-0.71
-0.705
-0.68
-0.685
-0.71
-0.715
-0.705
-0.69
-0.68
-0.705
-0.72
-0.72
-0.72
-0.725
-0.7
-0.69
-0.7
-0.715
-0.72
-0.7
-0.68
-0.705
-0.72
-0.72
-0.71
-0.7
-0.71
-0.71
-0.71
-0.72
-0.715
-0.705
-0.685
-0.695
-0.715
-0.71
-0.695
-0.675
-0.675
-0.66
-0.64
-0.605
-0.53
-0.42
-0.335
-0.24
-0.125
-0.025
0.11
0.21
0.28
0.325
0.385
0.46
0.52
0.58
0.615
0.645
0.68
0.69
0.655
0.585
0.465
0.285
0.12
-0.03
-0.195
-0.37
-0.515
-0.62
-0.705
-0.805
-0.815
-0.8
-0.805
-0.825
-0.855
-0.885
-0.885
-0.88
-0.9
-0.91
-0.92
-0.94
-0.95
-0.915
-0.895
-0.91
-0.935
-0.935
-0.925
-0.92
-0.91
-0.89
-0.915
-0.91
-0.89
-0.865
-0.845
-0.835
-0.845
-0.855
-0.84
-0.805
-0.795
-0.8
-0.8
-0.805
-0.785
-0.785
-0.77
-0.745
-0.755
-0.75
-0.735
-0.7
-0.655
-0.67
-0.675
-0.665
-0.64
-0.625
-0.625
-0.62
-0.625
-0.6
-0.59
-0.58
-0.54
-0.535
-0.53
-0.53
-0.51
-0.47
-0.445
-0.44
-0.435
-0.415
-0.39
-0.365
-0.34
-0.35
-0.345
-0.335
-0.33
-0.34
-0.355
-0.345
-0.345
-0.375
-0.37
-0.355
-0.345
-0.36
-0.38
-0.4
-0.4
-0.39
-0.39
-0.395
-0.39
-0.415
-0.41
-0.405
-0.39
-0.38
-0.38
-0.395
-0.4
-0.365
-0.35
-0.365
-0.39
-0.41
-0.395
-0.395
-0.37
-0.365
-0.37
-0.37
-0.365
-0.35
-0.34
-0.33
-0.335
-0.35
-0.35
-0.33
-0.305
-0.325
-0.335
-0.335
-0.315
-0.305
-0.285
-0.28
-0.29
-0.305
-0.31
-0.29
-0.275
-0.28
-0.3
-0.295
-0.275
-0.265
-0.245
-0.25
-0.26
-0.265
-0.26
-0.245
-0.235
-0.24
-0.265
-0.265
-0.27
-0.255
-0.255
-0.265
-0.28
-0.27
-0.285
-0.255
-0.225
-0.23
-0.245
-0.255
-0.25
-0.23
-0.23
-0.22
-0.235
-0.25
-0.235
-0.215
-0.215
-0.2
-0.225
-0.24
-0.215
-0.185
-0.18
-0.185
-0.21
-0.21
-0.195
-0.205
-0.19
-0.195
-0.195
-0.215
-0.225
-0.205
-0.185
-0.185
-0.18
-0.18
-0.175
-0.15
-0.155
-0.155
-0.155
-0.16
-0.155
-0.145
-0.125
-0.11
-0.13
-0.15
-0.135
-0.105
-0.085
-0.075
-0.095
-0.09
-0.075
-0.065
-0.065
-0.07
-0.07
-0.085
-0.09
-0.045
-0.035
-0.06
-0.065
-0.075
-0.065
-0.045
-0.025
-0.05
-0.045
-0.05
-0.07
-0.045
-0.03
-0.035
-0.05
-0.075
-0.06
-0.015
0.005
-0.005
-0.025
-0.025
-0.01
0.02
0.025
0.02
0.005
0.02
0.035
0.045
0.045
0.025
0.03
0.035
0.015
0.04
0.08
0.13
0.22
0.275
0.32
0.435
0.535
0.645
0.75
0.83
0.925
1.03
1.135
1.235
1.335
1.425
1.495
1.53
1.555
1.575
1.575
1.515
1.425
1.32
1.155
0.985
0.835
0.675
0.49
0.31
0.18
0.075
-0.025
-0.085
-0.105
-0.09
-0.075
-0.08
-0.115
-0.135
-0.135
-0.115
-0.11
-0.12
-0.135
-0.145
-0.16
-0.14
-0.125
-0.12
-0.145
-0.155
-0.17
-0.145
-0.14
-0.145
-0.145
-0.15
-0.15
-0.125
-0.1
-0.095
-0.11
-0.1
-0.09
-0.065
-0.05
-0.045
-0.045
-0.03
-0.025
-0.005
0.015
0.025
0.0
0.0
0.03
0.065
0.095
0.095
0.115
0.135
0.15
0.17
0.235
0.245
0.25
0.265
0.3
0.33
0.355
0.375
0.39
0.4
0.41
0.445
0.465
0.45
0.425
0.415
0.42
0.425
0.415
0.395
0.375
0.345
0.32
0.33
0.33
0.335
0.3
0.265
0.265
0.285
0.29
0.28
0.27
0.245
0.245
0.255
0.255
0.24
0.2
0.2
0.2
0.23
0.23
0.245
0.24
0.24
0.235
0.25
0.26
0.27
0.25
0.24
0.255
0.295
0.3
0.28
0.27
0.27
0.265
0.27
0.29
0.28
0.27
0.255
0.275
0.28
0.285
0.275
0.255
0.26
0.26
0.265
0.275
0.27
0.26
0.245
0.26
0.285
0.295
0.275
0.265
0.26
0.27
0.27
0.265
0.26
0.25
0.225
0.215
0.245
0.265
0.28
0.26
0.26
0.275
0.29
0.305
0.275
0.29
0.29
0.29
0.305
0.32
0.33
0.315
0.29
0.3
0.33
0.32
0.325
0.31
0.31
0.34
0.345
0.35
0.35
0.35
0.335
0.335
0.345
0.355
0.335
0.305
0.3
0.315
0.33
0.33
0.325
0.315
0.3
0.3
0.3
0.325
0.33
0.29
0.27
0.275
0.285
0.26
0.24
0.225
0.21
0.215
0.225
0.255
0.26
0.255
0.24
0.265
0.275
0.29
0.27
0.285
0.3
0.295
0.325
0.355
0.345
0.325
0.34
0.345
0.34
0.345
0.335
0.335
0.34
0.365
0.45
0.56
0.615
0.695
0.8
0.94
1.09
1.2
1.275
1.345
1.415
1.52
1.635
1.72
1.735
1.72
1.75
1.79
1.745
1.665
1.51
1.34
1.19
1.02
0.86
0.68
0.46
0.285
0.155
0.095
0.075
0.06
0.05
0.025
0.01
-0.025
-0.03
-0.02
-0.025
-0.06
-0.085
-0.08
-0.08
-0.08
-0.09
-0.115
-0.115
-0.12
-0.1
-0.1
-0.115
-0.125
-0.14
-0.155
-0.125
-0.12
-0.12
-0.14
-0.135
-0.13
-0.085
-0.06
-0.05
-0.045
-0.065
-0.03
0.0
0.01
0.01
0.025
0.025
0.045
0.065
0.1
0.115
0.095
0.055
0.07
0.09
0.09
0.075
0.075
0.085
0.1
0.115
0.125
0.145
0.15
0.175
0.205
0.225
0.245
0.255
0.255
0.25
0.245
0.27
0.29
0.28
0.245
0.23
0.235
0.245
0.235
0.215
0.18
0.175
0.15
0.155
0.155
0.14
0.115
0.095
0.09
0.105
0.105
0.075
0.055
0.05
0.06
0.06
0.05
0.035
0.035
0.02
0.025
0.02
0.025
0.005
-0.015
-0.035
-0.03
-0.02
-0.035
-0.06
-0.085
-0.09
-0.11
-0.105
-0.11
-0.105
-0.12
-0.13
-0.11
-0.095
-0.085
-0.09
-0.11
-0.12
-0.135
-0.11
-0.11
-0.105
-0.12
-0.13
-0.12
-0.095
-0.09
-0.105
-0.12
-0.125
-0.115
-0.1
-0.105
-0.1
-0.115
-0.115
-0.125
-0.105
-0.095
-0.12
-0.135
-0.145
-0.12
-0.12
-0.125
-0.125
-0.135
-0.155
-0.155
-0.135
-0.13
-0.14
-0.155
-0.175
-0.19
-0.185
-0.195
-0.22
-0.245
-0.275
-0.27
-0.24
-0.23
-0.23
-0.225
-0.215
-0.205
-0.21
-0.195
-0.2
-0.22
-0.235
-0.24
-0.2
-0.21
-0.225
-0.21
-0.23
-0.215
-0.205
-0.195
-0.205
-0.225
-0.235
-0.225
-0.205
-0.195
-0.21
-0.225
-0.235
-0.225
-0.21
-0.2
-0.21
-0.215
-0.23
-0.215
-0.195
-0.19
-0.22
-0.205
-0.21
-0.21
-0.21
-0.21
-0.205
-0.225
-0.25
-0.265
-0.255
-0.255
-0.265
-0.28
-0.28
-0.26
-0.255
-0.24
-0.21
-0.165
-0.09
0.0
0.11
0.225
0.345
0.47
0.58
0.675
0.755
0.815
0.89
0.975
1.04
1.11
1.13
1.15
1.195
1.205
1.155
1.085
0.965
0.8
0.66
0.505
0.365
0.215
0.06
-0.07
-0.18
-0.295
-0.375
-0.39
-0.37
-0.36
-0.405
-0.43
-0.46
-0.455
-0.45
-0.46
-0.475
-0.485
-0.51
-0.515
-0.51
-0.485
-0.515
-0.56
-0.59
-0.6
-0.595
-0.605
-0.605
-0.605
-0.595
-0.58
-0.57
-0.56
-0.54
-0.54
-0.565
-0.58
-0.535
-0.52
-0.52
-0.53
-0.515
-0.495
-0.48
-0.46
-0.45
-0.435
-0.44
-0.425
-0.39
-0.35
-0.355
-0.335
-0.33
-0.32
-0.28
-0.275
-0.255
-0.245
-0.245
-0.225
-0.195
-0.185
-0.145
-0.14
-0.135
-0.115
-0.08
-0.045
-0.05
-0.04
-0.04
-0.025
-0.01
-0.005
-0.01
-0.035
-0.06
-0.08
-0.105
-0.145
-0.18
-0.195
-0.195
-0.195
-0.225
-0.22
-0.23
-0.26
-0.275
-0.28
-0.27
-0.27
-0.295
-0.3
-0.31
-0.305
-0.295
-0.295
-0.29
-0.305
-0.315
-0.3
-0.265
-0.235
-0.25
-0.25
-0.26
-0.23
-0.22
-0.22
-0.23
-0.22
-0.22
-0.21
-0.2
-0.21
-0.195
-0.215
-0.225
-0.205
-0.18
-0.175
-0.18
-0.195
-0.215
-0.195
-0.185
-0.19
-0.195
-0.215
-0.26
-0.245
-0.245
-0.235
-0.255
-0.265
-0.275
-0.26
-0.255
-0.245
-0.26
-0.25
-0.24
-0.235
-0.215
-0.19
-0.235
-0.255
-0.26
-0.275
-0.255
-0.275
-0.275
-0.28
-0.285
-0.275
-0.25
-0.235
-0.25
-0.27
-0.275
-0.255
-0.23
-0.205
-0.23
-0.24
-0.235
-0.235
-0.215
-0.22
-0.235
-0.245
-0.23
-0.235
-0.24
-0.225
-0.215
-0.23
-0.23
-0.24
-0.225
-0.21
-0.22
-0.235
-0.25
-0.23
-0.21
-0.19
-0.2
-0.215
-0.195
-0.195
-0.18
-0.175
-0.175
-0.175
-0.19
-0.185
-0.165
-0.145
-0.155
-0.17
-0.18
-0.16
-0.155
-0.14
-0.155
-0.165
-0.165
-0.17
-0.17
-0.17
-0.15
-0.17
-0.19
-0.215
-0.19
-0.165
-0.17
-0.2
-0.195
-0.175
-0.17
-0.16
-0.16
-0.11
-0.05
0.005
0.085
0.17
0.23
0.275
0.25
0.215
0.17
0.11
0.035
0.05
0.115
0.21
0.285
0.325
0.395
0.46
0.525
0.535
0.48
0.4
0.28
0.195
0.125
0.02
-0.095
-0.155
-0.22
-0.27
-0.285
-0.28
-0.265
-0.28
-0.31
-0.33
-0.34
-0.34
-0.34
-0.345
-0.335
-0.365
-0.36
-0.37
-0.365
-0.36
-0.36
-0.39
-0.4
-0.4
-0.395
-0.4
-0.395
-0.42
-0.445
-0.425
-0.405
-0.41
-0.415
-0.425
-0.415
-0.41
-0.39
-0.355
-0.35
-0.35
-0.355
-0.32
-0.3
-0.285
-0.275
-0.275
-0.275
-0.24
-0.225
-0.205
-0.18
-0.2
-0.225
-0.19
-0.16
-0.14
-0.145
-0.14
-0.135
-0.11
-0.095
-0.065
-0.05
-0.05
-0.05
-0.045
-0.025
-0.01
-0.035
-0.07
-0.095
-0.095
-0.09
-0.1
-0.125
-0.16
-0.185
-0.2
-0.19
-0.185
-0.205
-0.23
-0.24
-0.24
-0.195
-0.21
-0.24
-0.24
-0.24
-0.23
-0.24
-0.245
-0.24
-0.26
-0.27
-0.26
-0.255
-0.25
-0.25
-0.27
-0.295
-0.295
-0.265
-0.245
-0.255
-0.285
-0.295
-0.285
-0.275
-0.285
-0.31
-0.33
-0.33
-0.34
-0.325
-0.33
-0.345
-0.355
-0.37
-0.375
-0.365
-0.35
-0.35
-0.36
-0.385
-0.38
-0.365
-0.355
-0.37
-0.4
-0.395
-0.395
-0.365
-0.37
-0.37
-0.395
-0.385
-0.38
-0.375
-0.36
-0.36
-0.38
-0.375
-0.37
-0.345
-0.33
-0.365
-0.37
-0.37
-0.36
-0.345
-0.34
-0.335
-0.34
-0.355
-0.36
-0.345
-0.34
-0.355
-0.385
-0.41
-0.41
-0.39
-0.385
-0.41
-0.44
-0.45
-0.445
-0.435
-0.43
-0.44
-0.445
-0.46
-0.46
-0.46
-0.465
-0.48
-0.505
-0.49
-0.475
-0.47
-0.475
-0.475
-0.475
-0.485
-0.475
-0.46
-0.44
-0.43
-0.46
-0.465
-0.44
-0.42
-0.43
-0.42
-0.445
-0.44
-0.44
-0.4
-0.405
-0.41
-0.435
-0.45
-0.43
-0.43
-0.425
-0.455
-0.455
-0.475
-0.45
-0.445
-0.435
-0.42
-0.385
-0.31
-0.265
-0.19
-0.11
-0.03
0.035
0.095
0.16
0.235
0.29
0.35
0.435
0.5
0.58
0.635
0.675
0.725
0.715
0.685
0.635
0.54
0.405
0.295
0.165
0.005
-0.185
-0.325
-0.425
-0.505
-0.585
-0.64
-0.65
-0.65
-0.635
-0.665
-0.695
-0.695
-0.695
-0.7
-0.7
-0.695
-0.71
-0.725
-0.73
-0.735
-0.73
-0.755
-0.775
-0.795
-0.77
-0.77
-0.755
-0.785
-0.79
-0.79
-0.775
-0.77
-0.77
-0.765
-0.78
-0.78
-0.765
-0.75
-0.73
-0.715
-0.735
-0.74
-0.72
-0.68
-0.66
-0.665
-0.68
-0.66
-0.63
-0.625
-0.62
-0.605
-0.585
-0.58
-0.555
-0.54
-0.51
-0.505
-0.495
-0.48
-0.47
-0.465
-0.42
-0.395
-0.395
-0.41
-0.405
-0.35
-0.325
-0.33
-0.345
-0.35
-0.32
-0.29
-0.285
-0.285
-0.305
-0.28
-0.27
-0.265
-0.275
-0.295
-0.32
-0.33
-0.355
-0.365
-0.385
-0.4
-0.44
-0.46
-0.465
-0.46
-0.46
-0.48
-0.51
-0.52
-0.5
-0.5
-0.51
-0.52
-0.535
-0.535
-0.535
-0.54
-0.52
-0.525
-0.54
-0.54
-0.535
-0.525
-0.505
-0.52
-0.545
-0.535
-0.51
-0.495
-0.505
-0.52
-0.52
-0.52
-0.495
-0.505
-0.5
-0.495
-0.485
-0.495
-0.5
-0.485
-0.49
-0.49
-0.535
-0.54
-0.535
-0.53
-0.53
-0.56
-0.565
-0.555
-0.55
-0.54
-0.53
-0.525
-0.55
-0.565
-0.555
-0.515
-0.51
-0.52
-0.535
-0.5
-0.485
-0.49
-0.465
-0.475
-0.485
-0.495
-0.485
-0.455
-0.44
-0.455
-0.47
-0.475
-0.455
-0.445
-0.435
-0.46
-0.485
-0.47
-0.485
-0.48
-0.465
-0.46
-0.465
-0.48
-0.465
-0.46
-0.47
-0.48
-0.5
-0.5
-0.48
-0.485
-0.475
-0.48
-0.495
-0.51
-0.515
-0.5
-0.495
-0.51
-0.535
-0.545
-0.52
-0.51
-0.53
-0.53
-0.525
-0.515
-0.505
-0.49
-0.48
-0.47
-0.475
-0.48
-0.45
-0.415
-0.41
-0.425
-0.45
-0.42
-0.4
-0.395
-0.395
-0.39
-0.395
-0.425
-0.435
-0.41
-0.385
-0.39
-0.43
-0.435
-0.415
-0.4
-0.4
-0.405
-0.41
-0.41
-0.405
-0.4
-0.405
-0.42
-0.435
-0.415
-0.42
-0.405
-0.4
-0.4
-0.41
-0.43
-0.43
-0.42
-0.42
-0.405
-0.425
-0.445
-0.43
-0.415
-0.415
-0.445
-0.445
-0.435
-0.405
-0.375
-0.35
-0.29
-0.225
-0.175
-0.135
-0.07
0.02
0.125
0.21
0.275
0.345
0.39
0.45
0.48
0.545
0.615
0.7
0.79
0.855
0.855
0.87
0.93
0.985
0.96
0.895
0.805
0.655
0.525
0.42
0.315
0.155
-0.025
-0.205
-0.335
-0.435
-0.52
-0.565
-0.57
-0.59
-0.61
-0.625
-0.625
-0.645
-0.675
-0.71
-0.72
-0.715
-0.685
-0.705
-0.725
-0.725
-0.73
-0.74
-0.745
-0.74
-0.75
-0.73
-0.735
-0.725
-0.69
-0.675
-0.68
-0.68
-0.67
-0.655
-0.61
-0.595
-0.59
-0.58
-0.565
-0.555
-0.54
-0.525
-0.525
-0.545
-0.565
-0.54
-0.515
-0.51
-0.51
-0.525
-0.515
-0.5
-0.455
-0.44
-0.44
-0.44
-0.42
-0.405
-0.385
-0.38
-0.36
-0.355
-0.35
-0.34
-0.305
-0.29
-0.285
-0.285
-0.275
-0.245
-0.22
-0.2
-0.195
-0.2
-0.22
-0.19
-0.165
-0.145
-0.165
-0.17
-0.195
-0.19
-0.165
-0.16
-0.185
-0.21
-0.215
-0.21
-0.21
-0.225
-0.225
-0.235
-0.25
-0.245
-0.225
-0.215
-0.215
-0.23
-0.245
-0.235
-0.235
-0.21
-0.23
-0.225
-0.23
-0.225
-0.205
-0.21
-0.225
-0.225
-0.255
-0.26
-0.265
-0.265
-0.28
-0.305
-0.29
-0.285
-0.26
-0.27
-0.285
-0.305
-0.3
-0.29
-0.3
-0.3
-0.3
-0.305
-0.32
-0.32
-0.3
-0.285
-0.305
-0.32
-0.325
-0.31
-0.285
-0.295
-0.31
-0.295
-0.295
-0.295
-0.29
-0.305
-0.3
-0.3
-0.305
-0.3
-0.295
-0.27
-0.27
-0.28
-0.285
-0.29
-0.26
-0.25
-0.26
-0.275
-0.29
-0.28
-0.26
-0.24
-0.26
-0.28
-0.285
-0.26
-0.23
-0.23
-0.25
-0.235
-0.245
-0.225
-0.22
-0.23
-0.23
-0.235
-0.225
-0.23
-0.21
-0.215
-0.225
-0.25
-0.255
-0.25
-0.245
-0.23
-0.235
-0.265
-0.27
-0.235
-0.225
-0.225
-0.23
-0.235
-0.22
-0.21
-0.21
-0.21
-0.215
-0.225
-0.22
-0.235
-0.24
-0.21
-0.22
-0.225
-0.24
-0.22
-0.22
-0.185
-0.21
-0.225
-0.21
-0.215
-0.19
-0.19
-0.205
-0.205
-0.205
-0.2
-0.19
-0.195
-0.195
-0.205
-0.21
-0.21
-0.2
-0.175
-0.19
-0.22
-0.245
-0.235
-0.22
-0.24
-0.26
-0.28
-0.28
-0.27
-0.265
-0.26
-0.255
-0.27
-0.265
-0.245
-0.205
-0.19
-0.195
-0.23
-0.21
-0.19
-0.17
-0.17
-0.165
-0.175
-0.185
-0.17
-0.16
-0.155
-0.15
-0.175
-0.18
-0.185
-0.155
-0.17
-0.18
-0.18
-0.175
-0.17
-0.165
-0.175
-0.17
-0.16
-0.17
-0.185
-0.165
-0.15
-0.15
-0.175
-0.185
-0.15
-0.145
-0.15
-0.155
-0.18
-0.185
-0.19
-0.185
-0.185
-0.185
-0.215
-0.225
-0.215
-0.215
-0.21
-0.225
-0.25
-0.24
-0.205
-0.2
-0.205
-0.21
-0.205
-0.205
-0.2
-0.185
-0.16
-0.155
-0.16
-0.135
-0.115
-0.09
-0.095
-0.105
-0.1
-0.105
-0.08
-0.04
0.04
0.11
0.155
0.18
0.275
0.39
0.525
0.62
0.69
0.745
0.83
0.895
0.98
1.055
1.1
1.105
1.125
1.2
1.19
1.13
1.045
0.945
0.835
0.73
0.595
0.455
0.295
0.13
-0.025
-0.13
-0.215
-0.275
-0.325
-0.335
-0.335
-0.33
-0.335
-0.385
-0.43
-0.44
-0.425
-0.41
-0.43
-0.45
-0.48
-0.49
-0.495
-0.49
-0.5
-0.52
-0.525
-0.52
-0.52
-0.515
-0.515
-0.505
-0.525
-0.53
-0.505
-0.485
-0.485
-0.49
-0.49
-0.475
-0.46
-0.45
-0.425
-0.415
-0.425
-0.415
-0.4
-0.385
-0.38
-0.39
-0.42
-0.42
-0.38
-0.355
-0.34
-0.345
-0.325
-0.315
-0.285
-0.26
-0.24
-0.235
-0.23
-0.24
-0.21
-0.17
-0.14
-0.135
-0.135
-0.1
-0.08
-0.065
-0.035
-0.025
-0.01
-0.02
0.0
0.035
0.055
0.05
0.015
0.02
0.045
0.045
0.03
-0.01
-0.02
-0.015
-0.03
-0.035
-0.025
-0.025
-0.07
-0.08
-0.1
-0.08
-0.09
-0.11
-0.16
-0.14
-0.14
-0.15
-0.16
-0.175
-0.195
-0.18
-0.175
-0.16
-0.135
-0.135
-0.16
-0.15
-0.13
-0.12
-0.105
-0.11
-0.105
-0.095
-0.085
-0.035
0.005
0.07
0.135
0.19
0.21
0.2
0.15
0.1
0.045
0.01
0.0
-0.015
-0.11
-0.355
-0.66
-0.95
-1.235
-1.42
-1.615
-1.795
-1.965
-2.035
-2.075
-2.075
-2.03
-1.95
-1.905
-1.875
-1.845
-1.775
-1.685
-1.53
-1.37
-1.205
-1.04
-0.935
-0.845
-0.745
-0.66
-0.57
-0.52
-0.475
-0.45
-0.395
-0.33
-0.26
-0.185
-0.1
-0.075
-0.055
-0.07
-0.065
-0.025
0.005
0.0
-0.005
-0.005
-0.005
0.025
0.04
0.04
0.035
0.04
0.06
0.07
0.085
0.115
0.125
0.125
0.15
0.175
0.195
0.215
0.25
0.26
0.28
0.315
0.35
0.38
0.4
0.385
0.405
0.45
0.49
0.49
0.5
0.5
0.535
0.565
0.6
0.63
0.65
0.69
0.72
0.74
0.76
0.785
0.82
0.82
0.835
0.855
0.905
0.925
0.945
0.955
0.96
0.975
0.995
0.98
0.955
0.91
0.89
0.895
0.865
0.815
0.765
0.72
0.68
0.64
0.595
0.545
0.5
0.44
0.365
0.345
0.305
0.26
0.2
0.145
0.12
0.095
0.065
0.055
0.045
0.035
0.085
0.14
0.21
0.235
0.19
0.115
0.04
-0.045
-0.085
-0.15
-0.25
-0.39
-0.565
-0.795
-1.05
-1.33
-1.585
-1.775
-1.89
-1.965
-2.005
-2.03
-2.085
-2.09
-2.05
-1.955
-1.89
-1.845
-1.8
-1.8
-1.76
-1.645
-1.45
-1.265
-1.09
-1.01
-0.895
-0.775
-0.67
-0.63
-0.605
-0.595
-0.56
-0.505
-0.435
-0.355
-0.305
-0.275
-0.285
-0.26
-0.225
-0.22
-0.22
-0.23
-0.205
-0.19
-0.165
-0.16
-0.13
-0.14
-0.14
-0.105
-0.055
-0.05
-0.04
-0.01
0.01
0.045
0.095
0.13
0.165
0.18
0.2
0.26
0.31
0.365
0.405
0.445
0.475
0.535
0.575
0.625
0.655
0.7
0.735
0.775
0.835
0.89
0.915
0.93
0.95
0.975
0.97
0.965
0.935
0.88
0.855
0.795
0.78
0.73
0.655
0.575
0.515
0.465
0.415
0.335
0.275
0.215
0.14
0.105
0.065
0.015
-0.045
-0.12
-0.165
-0.185
-0.215
-0.24
-0.285
-0.32
-0.345
-0.36
-0.365
-0.385
-0.405
-0.43
-0.445
-0.465
-0.465
-0.475
-0.475
-0.51
-0.53
-0.53
-0.525
-0.52
-0.55
-0.58
-0.57
-0.55
-0.545
-0.55
-0.57
-0.585
-0.59
-0.575
-0.57
-0.55
-0.555
-0.57
-0.58
-0.57
-0.55
-0.545
-0.56
-0.575
-0.555
-0.55
-0.535
-0.535
-0.54
-0.545
-0.545
-0.55
-0.545
-0.555
-0.565
-0.56
-0.575
-0.545
-0.53
-0.53
-0.555
-0.58
-0.585
-0.575
-0.57
-0.565
-0.575
-0.595
-0.605
-0.585
-0.58
-0.56
-0.59
-0.615
-0.615
-0.595
-0.58
-0.585
-0.595
-0.62
-0.625
-0.62
-0.61
-0.595
-0.595
-0.62
-0.625
-0.61
-0.6
-0.59
-0.605
-0.615
-0.62
-0.595
-0.6
-0.595
-0.585
-0.605
-0.615
-0.6
-0.59
-0.595
-0.595
-0.61
-0.61
-0.6
-0.61
-0.585
-0.585
-0.6
-0.59
-0.58
-0.57
-0.58
-0.585
-0.59
-0.59
-0.58
-0.57
-0.56
-0.54
-0.525
-0.445
-0.36
-0.285
-0.185
-0.055
0.095
0.21
0.32
0.375
0.405
0.46
0.5
0.58
0.635
0.675
0.725
0.76
0.72
0.635
0.51
0.37
0.23
0.07
-0.105
-0.295
-0.455
-0.575
-0.675
-0.755
-0.78
-0.785
-0.795
-0.805
-0.815
-0.85
-0.885
-0.895
-0.88
-0.875
-0.88
-0.915
-0.91
-0.925
-0.915
-0.905
-0.91
-0.92
-0.94
-0.94
-0.93
-0.915
-0.935
-0.93
-0.945
-0.935
-0.925
-0.905
-0.895
-0.91
-0.925
-0.91
-0.9
-0.885
-0.9
-0.905
-0.935
-0.915
-0.925
-0.895
-0.86
-0.855
-0.85
-0.865
-0.835
-0.81
-0.8
-0.8
-0.81
-0.8
-0.78
-0.775
-0.765
-0.765
-0.76
-0.735
-0.72
-0.695
-0.665
-0.635
-0.645
-0.625
-0.6
-0.55
-0.53
-0.52
-0.535
-0.52
-0.485
-0.46
-0.46
-0.465
-0.475
-0.47
-0.455
-0.44
-0.435
-0.445
-0.46
-0.46
-0.47
-0.455
-0.435
-0.46
-0.47
-0.48
-0.44
-0.435
-0.465
-0.5
-0.51
-0.515
-0.5
-0.48
-0.465
-0.46
-0.475
-0.465
-0.44
-0.41
-0.43
-0.43
-0.43
-0.42
-0.42
-0.38
-0.38
-0.38
-0.405
-0.385
-0.355
-0.33
-0.285
-0.23
-0.155
-0.095
-0.035
-0.01
-0.025
-0.13
-0.275
-0.285
-0.155
0.075
0.26
0.4
0.51
0.625
0.705
0.725
0.63
0.47
0.28
0.13
0.02
-0.09
-0.24
-0.4
-0.5
-0.57
-0.615
-0.62
-0.61
-0.645
-0.695
-0.695
-0.68
-0.675
-0.685
-0.715
-0.73
-0.745
-0.735
-0.73
-0.71
-0.73
-0.74
-0.755
-0.745
-0.735
-0.735
-0.75
-0.735
-0.735
-0.725
-0.71
-0.705
-0.72
-0.71
-0.725
-0.7
-0.68
-0.67
-0.675
-0.69
-0.67
-0.655
-0.635
-0.63
-0.625
-0.65
-0.64
-0.62
-0.605
-0.595
-0.59
-0.6
-0.585
-0.56
-0.525
-0.515
-0.505
-0.52
-0.51
-0.5
-0.465
-0.45
-0.45
-0.435
-0.415
-0.38
-0.335
-0.3
-0.325
-0.31
-0.335
-0.305
-0.27
-0.295
-0.32
-0.335
-0.34
-0.335
-0.32
-0.335
-0.345
-0.35
-0.365
-0.36
-0.35
-0.365
-0.385
-0.395
-0.385
-0.38
-0.38
-0.375
-0.395
-0.395
-0.385
-0.39
-0.375
-0.37
-0.37
-0.37
-0.39
-0.375
-0.35
-0.345
-0.375
-0.39
-0.395
-0.355
-0.34
-0.345
-0.35
-0.355
-0.34
-0.335
-0.335
-0.32
-0.33
-0.345
-0.345
-0.345
-0.34
-0.355
-0.385
-0.415
-0.42
-0.4
-0.385
-0.37
-0.36
-0.37
-0.36
-0.35
-0.33
-0.32
-0.32
-0.33
-0.33
-0.305
-0.295
-0.29
-0.31
-0.315
-0.32
-0.305
-0.3
-0.29
-0.3
-0.325
-0.34
-0.325
-0.315
-0.325
-0.33
-0.37
-0.385
-0.35
-0.35
-0.355
-0.355
-0.36
-0.37
-0.37
-0.345
-0.34
-0.36
-0.37
-0.37
-0.36
-0.365
-0.36
-0.38
-0.385
-0.4
-0.38
-0.36
-0.38
-0.405
-0.43
-0.425
-0.425
-0.425
-0.405
-0.41
-0.415
-0.43
-0.39
-0.37
-0.37
-0.37
-0.375
-0.365
-0.34
-0.335
-0.325
-0.305
-0.3
-0.255
-0.16
-0.045
0.025
0.105
0.225
0.34
0.455
0.52
0.555
0.59
0.6
0.63
0.695
0.765
0.815
0.83
0.815
0.87
0.91
0.885
0.795
0.675
0.53
0.41
0.265
0.135
-0.005
-0.165
-0.305
-0.385
-0.42
-0.425
-0.455
-0.495
-0.535
-0.555
-0.58
-0.595
-0.605
-0.63
-0.65
-0.655
-0.65
-0.63
-0.63
-0.645
-0.645
-0.66
-0.665
-0.65
-0.62
-0.63
-0.645
-0.64
-0.6
-0.585
-0.59
-0.595
-0.615
-0.59
-0.58
-0.57
-0.55
-0.55
-0.545
-0.54
-0.53
-0.495
-0.475
-0.49
-0.5
-0.495
-0.455
-0.43
-0.435
-0.445
-0.455
-0.43
-0.42
-0.39
-0.4
-0.385
-0.385
-0.38
-0.36
-0.345
-0.335
-0.315
-0.32
-0.325
-0.3
-0.285
-0.27
-0.265
-0.265
-0.245
-0.21
-0.2
-0.205
-0.205
-0.195
-0.205
-0.21
-0.19
-0.185
-0.185
-0.195
-0.22
-0.2
-0.18
-0.16
-0.195
-0.23
-0.235
-0.23
-0.225
-0.245
-0.245
-0.24
-0.25
-0.24
-0.23
-0.225
-0.22
-0.23
-0.23
-0.21
-0.205
-0.195
-0.21
-0.21
-0.195
-0.185
-0.16
-0.165
-0.17
-0.18
-0.185
-0.185
-0.16
-0.16
-0.17
-0.205
-0.215
-0.185
-0.17
-0.185
-0.21
-0.21
-0.215
-0.245
-0.24
-0.235
-0.24
-0.265
-0.285
-0.26
-0.245
-0.26
-0.275
-0.29
-0.275
-0.28
-0.26
-0.24
-0.245
-0.25
-0.25
-0.245
-0.235
-0.215
-0.23
-0.235
-0.235
-0.23
-0.22
-0.2
-0.22
-0.24
-0.25
-0.235
-0.215
-0.21
-0.235
-0.225
-0.22
-0.225
-0.21
-0.22
-0.235
-0.24
-0.25
-0.23
-0.22
-0.22
-0.235
-0.25
-0.245
-0.245
-0.24
-0.235
-0.235
-0.265
-0.29
-0.3
-0.27
-0.28
-0.285
-0.315
-0.33
-0.32
-0.32
-0.32
-0.32
-0.33
-0.325
-0.315
-0.3
-0.275
-0.28
-0.3
-0.295
-0.275
-0.265
-0.27
-0.285
-0.285
-0.295
-0.26
-0.24
-0.225
-0.245
-0.26
-0.25
-0.23
-0.24
-0.24
