Lead II
1.115
1.16
1.18
1.14
1.06
0.935
0.755
0.575
0.48
0.48
0.545
0.585
0.63
0.62
0.56
0.45
0.28
0.055
-0.155
-0.31
-0.415
-0.44
-0.43
-0.42
-0.445
-0.545
-0.63
-0.68
-0.67
-0.63
-0.62
-0.645
-0.685
-0.735
-0.875
-1.1
-1.395
-1.715
-1.8
-1.525
-1.19
-1.065
-1.075
-0.98
-0.785
-0.54
-0.41
-0.445
-0.615
-0.87
-1.12
-1.255
-1.29
-1.205
-1.055
-0.885
-0.785
-0.785
-0.83
-0.9
-0.99
-1.065
-1.095
-1.06
-0.99
-0.91
-0.855
-0.785
-0.76
-0.82
-0.965
-1.195
-1.485
-1.59
-1.375
-1.12
-0.985
-0.965
-0.925
-0.845
-0.8
-0.815
-0.865
-0.89
-0.88
-0.855
-0.79
-0.715
-0.635
-0.59
-0.585
-0.6
-0.595
-0.605
-0.585
-0.59
-0.585
-0.6
-0.6
-0.6
-0.62
-0.635
-0.66
-0.675
-0.675
-0.64
-0.645
-0.645
-0.69
-0.705
-0.715
-0.72
-0.735
-0.755
-0.78
-0.815
-0.815
-0.82
-0.815
-0.835
-0.845
-0.855
-0.845
-0.825
-0.82
-0.84
-0.83
-0.855
-0.855
-0.855
-0.85
-0.855
-0.875
-0.895
-0.89
-0.875
-0.87
-0.875
-0.915
-0.935
-0.935
-0.925
-0.92
-0.935
-0.94
-0.95
-0.985
-0.98
-0.98
-0.975
-0.97
-0.97
-0.95
-0.945
-0.95
-0.98
-1.015
-1.04
-1.03
-1.025
-1.025
-1.035
-1.06
-1.07
-1.08
-1.085
-1.095
-1.105
-1.13
-1.14
-1.14
-1.18
-1.19
-1.22
-1.245
-1.26
-1.27
-1.275
-1.27
-1.295
-1.32
-1.35
-1.375
-1.38
-1.38
-1.375
-1.39
-1.4
-1.41
-1.38
-1.37
-1.39
-1.41
-1.43
-1.435
-1.44
-1.445
-1.445
-1.485
-1.535
-1.525
-1.49
-1.38
-1.225
-1.05
-0.82
-0.54
-0.225
0.09
0.325
0.425
0.3
-0.095
-0.585
-1.025
-1.33
-1.42
-1.405
-1.415
-1.45
-1.47
-1.495
-1.585
-1.75
-1.92
-2.075
-2.12
-1.905
-1.675
-1.58
-1.47
-1.26
-1.0
-0.845
-0.775
-0.815
-0.91
-1.08
-1.305
-1.57
-1.765
-1.835
-1.78
-1.655
-1.525
-1.41
-1.385
-1.36
-1.35
-1.345
-1.355
-1.37
-1.42
-1.455
-1.505
-1.525
-1.54
-1.55
-1.575
-1.565
-1.49
-1.39
-1.265
-1.115
-0.995
-0.895
-0.8
-0.75
-0.705
-0.745
-0.875
-1.03
-1.14
-1.15
-1.055
-0.895
-0.795
-0.745
-0.66
-0.55
-0.435
-0.405
-0.575
-0.91
-1.145
-0.96
-0.4
-0.225
-0.53
-0.81
-0.825
-0.71
-0.69
-0.76
-0.855
-0.93
-1.0
-1.105
-1.215
-1.32
-1.37
-1.38
-1.35
-1.34
-1.355
-1.405
-1.515
-1.59
-1.575
-1.56
-1.525
-1.48
-1.455
-1.44
-1.45
-1.44
-1.43
-1.43
-1.44
-1.44
-1.415
-1.39
-1.36
-1.365
-1.365
-1.395
-1.395
-1.385
-1.39
-1.4
-1.41
-1.41
-1.38
-1.35
-1.32
-1.32
-1.32
-1.34
-1.33
-1.285
-1.245
-1.24
-1.235
-1.265
-1.255
-1.235
-1.205
-1.175
-1.175
-1.145
-1.1
-1.055
-1.01
-0.995
-1.01
-1.025
-0.995
-0.97
-0.96
-0.935
-0.96
-0.985
-0.99
-0.975
-0.985
-1.01
-1.07
-1.125
-1.155
-1.165
-1.17
-1.2
-1.3
-1.4
-1.46
-1.45
-1.4
-1.31
-1.29
-1.26
-1.215
-1.115
-1.045
-1.05
-1.155
-1.25
-1.27
-1.14
-0.915
-0.68
-0.43
-0.155
0.17
0.535
0.875
1.065
0.99
0.635
0.18
-0.215
-0.48
-0.56
-0.55
-0.58
-0.675
-0.74
-0.72
-0.64
-0.615
-0.675
-0.76
-0.82
-0.835
-0.86
-0.86
-0.845
-0.775
-0.72
-0.69
-0.71
-0.72
-0.715
-0.675
-0.615
-0.56
-0.545
-0.595
-0.65
-0.68
-0.71
-0.77
-0.815
-0.87
-0.89
-0.91
-0.915
-0.9
-0.915
-0.96
-1.025
-1.015
-0.95
-0.835
-0.75
-0.72
-0.695
-0.67
-0.665
-0.655
-0.64
-0.65
-0.655
-0.655
-0.635
-0.625
-0.6
-0.6
-0.595
-0.585
-0.565
-0.545
-0.535
-0.54
-0.54
-0.52
-0.485
-0.455
-0.46
-0.47
-0.47
-0.445
-0.41
-0.39
-0.375
-0.405
-0.405
-0.395
-0.39
-0.365
-0.39
-0.43
-0.455
-0.465
-0.455
-0.45
-0.46
-0.495
-0.515
-0.515
-0.505
-0.505
-0.51
-0.52
-0.54
-0.55
-0.53
-0.535
-0.53
-0.56
-0.575
-0.565
-0.565
-0.55
-0.56
-0.565
-0.59
-0.555
-0.545
-0.53
-0.52
-0.545
-0.555
-0.535
-0.54
-0.535
-0.525
-0.515
-0.515
-0.525
-0.53
-0.505
-0.495
-0.5
-0.505
-0.495
-0.495
-0.49
-0.47
-0.48
-0.49
-0.475
-0.46
-0.4
-0.375
-0.385
-0.38
-0.36
-0.345
-0.325
-0.295
-0.3
-0.3
-0.285
-0.28
-0.27
-0.285
-0.29
-0.295
-0.31
-0.295
-0.285
-0.31
-0.35
-0.395
-0.395
-0.39
-0.385
-0.37
-0.395
-0.43
-0.44
-0.41
-0.385
-0.37
-0.36
-0.355
-0.35
-0.345
-0.315
-0.28
-0.26
-0.215
-0.18
-0.11
-0.045
0.005
0.055
0.12
0.195
0.295
0.42
0.58
0.76
1.015
1.33
1.7
2.075
2.33
2.4
2.26
1.885
1.36
0.785
0.315
0.0
-0.14
-0.205
-0.26
-0.29
-0.29
-0.315
-0.345
-0.37
-0.39
-0.39
-0.415
-0.445
-0.47
-0.46
-0.455
-0.43
-0.435
-0.445
-0.465
-0.45
-0.435
-0.415
-0.425
-0.445
-0.455
-0.45
-0.43
-0.41
-0.415
-0.405
-0.455
-0.445
-0.415
-0.395
-0.385
-0.405
-0.42
-0.4
-0.39
-0.375
-0.375
-0.4
-0.41
-0.4
-0.39
-0.375
-0.375
-0.385
-0.395
-0.38
-0.355
-0.34
-0.35
-0.35
-0.35
-0.34
-0.315
-0.3
-0.3
-0.32
-0.32
-0.31
-0.315
-0.315
-0.335
-0.355
-0.36
-0.35
-0.315
-0.295
-0.29
-0.29
-0.27
-0.23
-0.185
-0.175
-0.175
-0.21
-0.165
-0.09
0.005
0.035
0.01
-0.075
-0.145
-0.14
-0.095
-0.045
-0.06
-0.11
-0.16
-0.18
-0.165
-0.135
-0.11
-0.125
-0.14
-0.14
-0.11
-0.095
-0.11
-0.125
-0.115
-0.12
-0.125
-0.125
-0.155
-0.2
-0.225
-0.205
-0.16
-0.095
-0.07
-0.075
-0.085
-0.065
-0.04
-0.02
-0.01
-0.005
-0.01
-0.02
-0.03
-0.01
-0.01
-0.01
-0.005
-0.005
0.0
0.025
0.01
-0.01
-0.04
-0.045
-0.035
-0.03
-0.045
-0.065
-0.065
-0.02
0.015
0.04
0.035
0.005
0.015
0.05
0.08
0.115
0.125
0.155
0.155
0.16
0.16
0.17
0.16
0.135
0.105
0.075
0.06
0.045
0.04
0.0
-0.015
-0.045
-0.045
-0.035
-0.045
-0.07
-0.095
-0.09
-0.065
-0.02
0.015
0.01
0.02
0.03
0.03
0.04
0.03
0.035
0.035
0.045
0.04
0.05
0.035
-0.015
-0.015
0.005
0.12
0.285
0.47
0.705
0.96
1.235
1.505
1.755
1.91
1.82
1.53
1.115
0.71
0.4
0.215
0.145
0.095
0.055
0.01
-0.02
-0.005
0.015
0.015
0.01
-0.005
-0.01
-0.015
-0.03
-0.055
-0.04
-0.015
0.0
0.005
-0.015
-0.04
-0.035
-0.015
0.005
0.005
-0.02
-0.03
-0.04
-0.04
-0.02
-0.015
-0.005
0.0
0.005
0.005
0.025
0.035
0.035
0.035
0.035
0.055
0.085
0.1
0.08
0.075
0.09
0.105
0.12
0.13
0.105
0.095
0.13
0.16
0.18
0.17
0.16
0.165
0.185
0.22
0.23
0.23
0.235
0.24
0.265
0.29
0.32
0.325
0.335
0.34
0.35
0.37
0.405
0.405
0.395
0.395
0.415
0.42
0.445
0.45
0.445
0.445
0.47
0.445
0.455
0.435
0.405
0.345
0.315
0.31
0.295
0.26
0.205
0.17
0.165
0.155
0.15
0.125
0.1
0.075
0.07
0.06
0.05
0.035
0.015
-0.015
-0.005
-0.005
0.005
0.005
-0.005
-0.005
0.02
0.035
0.055
0.055
0.03
-0.01
-0.02
-0.01
0.0
0.035
0.04
0.035
0.025
0.02
0.02
0.015
-0.005
-0.005
-0.005
0.03
0.04
0.035
0.035
0.04
0.055
0.055
0.075
0.09
0.11
0.13
0.135
0.155
0.17
0.18
0.19
0.195
0.24
0.26
0.275
0.28
0.265
0.265
0.265
0.265
0.26
0.215
0.195
0.165
0.135
0.11
0.115
0.135
0.13
0.115
0.11
0.135
0.16
0.155
0.145
0.16
0.18
0.17
0.155
0.12
0.1
0.065
0.055
0.07
0.065
0.05
0.03
-0.01
-0.02
0.045
0.145
0.25
0.39
0.575
0.805
1.085
1.355
1.57
1.705
1.69
1.41
0.975
0.52
0.165
0.005
-0.025
-0.015
-0.03
-0.03
-0.025
-0.01
-0.035
-0.065
-0.05
-0.035
-0.05
-0.065
-0.09
-0.09
-0.055
-0.025
-0.02
-0.045
-0.055
-0.055
-0.025
0.0
-0.005
-0.045
-0.06
-0.045
0.0
0.05
0.065
0.035
0.025
0.05
0.07
0.095
0.08
0.04
0.025
0.05
0.065
0.07
0.06
0.075
0.095
0.125
0.14
0.16
0.14
0.16
0.18
0.185
0.185
0.2
0.195
0.17
0.17
0.215
0.255
0.29
0.3
0.285
0.26
0.275
0.27
0.29
0.305
0.285
0.275
0.29
0.305
0.325
0.33
0.31
0.295
0.315
0.335
0.34
0.35
0.335
0.315
0.31
0.315
0.325
0.29
0.24
0.205
0.175
0.18
0.185
0.18
0.17
0.13
0.125
0.135
0.145
0.135
0.1
0.08
0.08
0.065
0.065
0.04
0.02
0.005
-0.005
-0.025
-0.025
-0.03
-0.04
-0.065
-0.06
-0.05
-0.045
-0.06
-0.085
-0.11
-0.11
-0.08
-0.065
-0.06
-0.055
-0.06
-0.06
-0.07
-0.06
-0.07
-0.08
-0.06
-0.04
-0.025
-0.005
-0.025
-0.055
-0.06
-0.055
-0.03
-0.005
-0.015
-0.04
-0.04
-0.035
-0.015
0.01
0.02
0.02
0.02
0.025
0.025
0.02
0.05
0.045
0.04
0.04
0.06
0.085
0.1
0.12
0.13
0.135
0.155
0.175
0.18
0.17
0.155
0.12
0.125
0.125
0.09
0.085
0.04
0.02
0.025
0.04
0.045
0.035
0.015
-0.005
-0.005
0.01
0.03
0.025
0.005
-0.005
-0.02
0.0
0.005
-0.01
-0.02
0.005
0.05
0.075
0.095
0.085
0.1
0.14
0.19
0.21
0.235
0.27
0.36
0.515
0.75
1.015
1.29
1.54
1.765
1.99
2.18
2.295
2.205
1.865
1.385
0.9
0.525
0.315
0.185
0.065
-0.04
-0.085
-0.08
-0.065
-0.07
-0.1
-0.145
-0.175
-0.15
-0.15
-0.17
-0.195
-0.21
-0.22
-0.215
-0.21
-0.21
-0.23
-0.25
-0.245
-0.25
-0.235
-0.24
-0.23
-0.235
-0.235
-0.235
-0.24
-0.225
-0.235
-0.24
-0.24
-0.22
-0.195
-0.2
-0.225
-0.24
-0.25
-0.245
-0.24
-0.25
-0.245
-0.26
-0.255
-0.245
-0.23
-0.225
-0.235
-0.23
-0.24
-0.21
-0.19
-0.18
-0.19
-0.225
-0.21
-0.175
-0.16
-0.155
-0.155
-0.15
-0.14
-0.11
-0.085
-0.07
-0.07
-0.055
-0.05
-0.02
-0.005
0.01
0.01
0.015
0.015
0.04
0.04
0.04
0.035
0.03
0.045
0.06
0.065
0.065
0.04
0.015
0.01
0.01
0.035
0.015
-0.01
-0.035
-0.055
-0.055
-0.065
-0.06
-0.075
-0.075
-0.07
-0.055
-0.06
-0.07
-0.105
-0.115
-0.125
-0.125
-0.125
-0.11
-0.11
-0.125
-0.13
-0.13
-0.105
-0.1
-0.105
-0.11
-0.1
-0.09
-0.075
-0.095
-0.125
-0.165
-0.2
-0.215
-0.185
-0.165
-0.17
-0.185
-0.175
-0.145
-0.105
-0.07
-0.055
-0.045
-0.03
0.035
0.11
0.165
0.22
0.27
0.355
0.45
0.545
0.605
0.7
0.79
0.915
1.05
1.16
1.25
1.315
1.38
1.49
1.615
1.675
1.67
1.6
1.545
1.495
1.48
1.465
1.42
1.36
1.3
1.25
1.195
1.18
1.145
1.08
1.025
0.99
0.965
0.96
0.9
0.805
0.695
0.585
0.435
0.225
0.03
-0.16
-0.3
-0.39
-0.415
-0.435
-0.455
-0.5
-0.535
-0.535
-0.535
-0.525
-0.53
-0.555
-0.585
-0.595
-0.615
-0.585
-0.585
-0.61
-0.625
-0.635
-0.62
-0.585
-0.565
-0.57
-0.6
-0.61
-0.6
-0.6
-0.61
-0.645
-0.68
-0.69
-0.685
-0.68
-0.675
-0.71
-0.74
-0.785
-0.79
-0.77
-0.75
-0.785
-0.815
-0.815
-0.805
-0.78
-0.79
-0.82
-0.855
-0.84
-0.83
-0.82
-0.82
-0.815
-0.815
-0.78
-0.73
-0.705
-0.7
-0.695
-0.685
-0.65
-0.605
-0.545
-0.52
-0.535
-0.55
-0.535
-0.515
-0.505
-0.49
-0.48
-0.465
-0.43
-0.375
-0.32
-0.325
-0.33
-0.305
-0.305
-0.275
-0.27
-0.265
-0.295
-0.33
-0.35
-0.36
-0.365
-0.38
-0.38
-0.33
-0.275
-0.23
-0.21
-0.21
-0.225
-0.21
-0.2
-0.18
-0.175
-0.185
-0.215
-0.27
-0.295
-0.27
-0.235
-0.2
-0.195
-0.19
-0.18
-0.16
-0.125
-0.115
-0.125
-0.13
-0.12
-0.1
-0.095
-0.105
-0.155
-0.185
-0.19
-0.185
-0.17
-0.165
-0.145
-0.145
-0.155
-0.16
-0.17
-0.195
-0.22
-0.22
-0.22
-0.21
-0.18
-0.185
-0.21
-0.23
-0.22
-0.21
-0.2
-0.2
-0.21
-0.235
-0.24
-0.24
-0.23
-0.23
-0.235
-0.25
-0.255
-0.24
-0.22
-0.225
-0.235
-0.25
-0.235
-0.21
-0.195
-0.185
-0.2
-0.215
-0.22
-0.19
-0.16
-0.155
-0.17
-0.195
-0.195
-0.19
-0.17
-0.17
-0.17
-0.18
-0.17
-0.14
-0.115
-0.13
-0.14
-0.15
-0.135
-0.125
-0.11
-0.11
-0.11
-0.13
-0.11
-0.075
-0.055
-0.055
-0.05
-0.06
-0.06
-0.045
-0.02
-0.025
-0.03
-0.045
-0.045
-0.02
0.015
0.035
0.025
0.025
0.02
0.045
0.08
0.1
0.1
0.095
0.13
0.155
0.165
0.155
0.12
0.07
0.06
0.065
0.065
0.045
-0.015
-0.065
-0.06
-0.05
-0.025
-0.035
-0.05
-0.075
-0.105
-0.11
-0.1
-0.085
-0.08
-0.075
-0.075
-0.05
-0.03
-0.03
-0.045
-0.05
-0.05
-0.04
-0.025
-0.045
-0.085
-0.11
-0.095
-0.01
0.105
0.25
0.415
0.595
0.815
1.045
1.29
1.5
1.545
1.355
0.995
0.63
0.31
0.07
-0.03
-0.065
-0.085
-0.105
-0.09
-0.055
-0.03
-0.025
-0.035
-0.025
-0.02
-0.03
-0.04
-0.045
-0.03
-0.01
-0.005
-0.01
-0.015
-0.025
-0.015
0.015
0.05
0.07
0.085
0.1
0.125
0.16
0.2
0.21
0.205
0.205
0.195
0.2
0.195
0.18
0.165
0.155
0.15
0.165
0.2
0.21
0.225
0.24
0.235
0.245
0.27
0.28
0.27
0.25
0.23
0.25
0.26
0.265
0.28
0.285
0.325
0.355
0.385
0.4
0.405
0.42
0.405
0.41
0.405
0.395
0.38
0.4
0.42
0.415
0.42
0.435
0.425
0.425
0.42
0.415
0.435
0.45
0.455
0.455
0.45
0.475
0.505
0.495
0.485
0.47
0.465
0.45
0.48
0.48
0.455
0.435
0.415
0.41
0.39
0.365
0.305
0.265
0.215
0.19
0.17
0.14
0.105
0.055
0.03
0.035
0.04
0.035
0.03
0.03
0.02
0.035
0.045
0.04
0.05
0.045
0.05
0.05
0.065
0.09
0.085
0.07
0.06
0.07
0.105
0.09
0.045
0.02
-0.015
-0.01
-0.005
0.01
0.0
-0.015
-0.015
-0.02
0.01
0.0
-0.015
-0.05
-0.075
-0.085
-0.095
-0.085
-0.115
-0.115
-0.125
-0.125
-0.145
-0.17
-0.2
-0.2
-0.19
-0.16
-0.135
-0.145
-0.155
-0.175
-0.22
-0.22
-0.21
-0.205
-0.215
-0.23
-0.205
-0.185
-0.175
-0.185
-0.205
-0.225
-0.235
-0.225
-0.215
-0.23
-0.255
-0.26
-0.25
-0.22
-0.18
-0.165
-0.195
-0.205
-0.195
-0.185
-0.16
-0.14
-0.145
-0.13
-0.125
-0.11
-0.115
-0.145
-0.185
-0.25
-0.3
-0.295
-0.225
-0.095
0.075
0.28
0.53
0.805
1.09
1.31
1.435
1.425
1.22
0.85
0.455
0.08
-0.21
-0.33
-0.345
-0.31
-0.27
-0.255
-0.24
-0.23
-0.21
-0.2
-0.205
-0.22
-0.235
-0.25
-0.24
-0.25
-0.235
-0.24
-0.24
-0.26
-0.28
-0.26
-0.21
-0.195
-0.215
-0.22
-0.22
-0.195
-0.17
-0.18
-0.19
-0.22
-0.205
-0.18
-0.165
-0.175
-0.185
-0.2
-0.21
-0.2
-0.175
-0.17
-0.145
-0.105
-0.055
-0.02
0.01
0.03
0.02
0.01
0.005
-0.015
-0.005
-0.015
-0.02
-0.03
-0.035
-0.04
-0.035
-0.02
-0.01
-0.02
-0.025
-0.01
0.0
0.01
-0.01
-0.035
-0.04
-0.02
-0.005
0.0
0.0
0.02
0.045
0.07
0.1
0.11
0.13
0.135
0.13
0.13
0.125
0.105
0.065
0.035
0.04
0.025
-0.02
-0.03
-0.05
-0.055
-0.08
-0.1
-0.105
-0.11
-0.11
-0.135
-0.16
-0.165
-0.135
-0.115
-0.115
-0.13
-0.12
-0.105
-0.095
-0.115
-0.135
-0.16
-0.155
-0.125
-0.1
-0.095
-0.085
-0.095
-0.08
-0.06
-0.02
-0.005
-0.01
-0.01
-0.005
0.005
0.01
0.0
-0.025
-0.035
-0.045
-0.06
-0.03
-0.01
-0.005
-0.005
-0.01
-0.005
0.025
0.015
0.015
0.025
0.04
0.055
0.07
0.065
0.075
0.095
0.11
0.1
0.075
0.07
0.035
-0.01
-0.07
-0.075
-0.06
-0.015
0.035
0.085
0.13
0.18
0.265
0.35
0.445
0.535
0.605
0.67
0.715
0.765
0.785
0.815
0.875
0.965
1.045
1.12
1.205
1.295
1.33
1.295
1.22
1.145
1.11
1.14
1.185
1.185
1.21
1.2
1.18
1.15
1.085
0.965
0.745
0.44
0.13
-0.125
-0.305
-0.39
-0.435
-0.455
-0.495
-0.55
-0.58
-0.57
-0.555
-0.55
-0.54
-0.52
-0.49
-0.485
-0.465
-0.475
-0.5
-0.53
-0.56
-0.56
-0.565
-0.585
-0.62
-0.635
-0.61
-0.59
-0.57
-0.56
-0.595
-0.605
-0.625
-0.61
-0.59
-0.585
-0.585
-0.59
-0.565
-0.545
-0.53
-0.55
-0.58
-0.61
-0.61
-0.61
-0.61
-0.61
-0.625
-0.645
-0.665
-0.665
-0.675
-0.68
-0.705
-0.75
-0.775
-0.76
-0.735
-0.73
-0.74
-0.765
-0.78
-0.77
-0.745
-0.745
-0.76
-0.75
-0.76
-0.735
-0.69
-0.66
-0.635
-0.635
-0.6
-0.565
-0.52
-0.5
-0.485
-0.48
-0.46
-0.43
-0.4
-0.375
-0.365
-0.375
-0.36
-0.325
-0.295
-0.275
-0.275
-0.28
-0.27
-0.265
-0.22
-0.215
-0.215
-0.23
-0.215
-0.195
-0.17
-0.15
-0.15
-0.155
-0.145
-0.115
-0.1
-0.08
-0.085
-0.085
-0.085
-0.085
-0.06
-0.07
-0.065
-0.095
-0.095
-0.09
-0.08
-0.06
-0.08
-0.09
-0.09
-0.095
-0.075
-0.08
-0.095
-0.105
-0.11
-0.1
-0.07
-0.075
-0.095
-0.105
-0.11
-0.11
-0.095
-0.1
-0.105
-0.115
-0.12
-0.11
-0.09
-0.065
-0.07
-0.085
-0.085
-0.085
-0.055
-0.035
-0.03
-0.015
-0.01
-0.01
0.0
0.015
-0.005
-0.035
-0.05
-0.05
-0.06
-0.075
-0.085
-0.115
-0.125
-0.12
-0.105
-0.1
-0.105
-0.13
-0.155
-0.145
-0.13
-0.135
-0.15
-0.155
-0.165
-0.18
-0.18
-0.17
-0.16
-0.165
-0.15
-0.165
-0.155
-0.145
-0.155
-0.175
-0.2
-0.19
-0.125
-0.005
0.14
0.355
0.6
0.895
1.2
1.48
1.725
1.83
1.735
1.365
0.875
0.405
0.07
-0.075
-0.065
-0.02
0.02
-0.01
-0.02
-0.04
-0.05
-0.08
-0.1
-0.135
-0.175
-0.24
-0.26
-0.275
-0.295
-0.315
-0.335
-0.37
-0.385
-0.375
-0.375
-0.39
-0.41
-0.435
-0.43
-0.42
-0.415
-0.42
-0.445
-0.465
-0.485
-0.485
-0.47
-0.48
-0.475
-0.455
-0.43
-0.4
-0.35
-0.315
-0.31
-0.285
-0.25
-0.205
-0.17
-0.15
-0.16
-0.15
-0.12
-0.1
-0.035
-0.015
-0.01
0.0
0.0
0.045
0.09
0.125
0.14
0.155
0.175
0.2
0.205
0.215
0.21
0.18
0.17
0.175
0.17
0.16
0.14
0.1
0.075
0.075
0.07
0.045
-0.005
-0.055
-0.095
-0.1
-0.11
-0.145
-0.185
-0.215
-0.24
-0.255
-0.25
-0.26
-0.305
-0.33
-0.35
-0.36
-0.355
-0.345
-0.375
-0.39
-0.385
-0.375
-0.37
-0.37
-0.38
-0.395
-0.4
-0.395
-0.375
-0.34
-0.355
-0.365
-0.35
-0.315
-0.28
-0.28
-0.29
-0.3
-0.295
-0.285
-0.25
-0.23
-0.23
-0.24
-0.245
-0.23
-0.215
-0.225
-0.24
-0.265
-0.28
-0.26
-0.265
-0.27
-0.28
-0.305
-0.305
-0.275
-0.26
-0.245
-0.255
-0.265
-0.265
-0.27
-0.25
-0.265
-0.305
-0.31
-0.295
-0.22
-0.165
-0.145
-0.155
-0.165
-0.165
-0.135
-0.11
-0.105
-0.11
-0.125
-0.12
-0.115
-0.115
-0.115
-0.13
-0.145
-0.16
-0.135
-0.125
-0.135
-0.185
-0.23
-0.26
-0.275
-0.27
-0.265
-0.29
-0.31
-0.335
-0.32
-0.29
-0.295
-0.32
-0.36
-0.365
-0.365
-0.355
-0.345
-0.375
-0.39
-0.365
-0.29
-0.155
0.035
0.265
0.525
0.81
1.035
1.25
1.37
1.26
0.92
0.49
0.08
-0.215
-0.38
-0.42
-0.435
-0.47
-0.49
-0.48
-0.455
-0.445
-0.47
-0.495
-0.52
-0.525
-0.55
-0.605
-0.65
-0.69
-0.715
-0.72
-0.73
-0.75
-0.755
-0.75
-0.685
-0.58
-0.49
-0.455
-0.44
-0.445
-0.445
-0.43
-0.44
-0.46
-0.5
-0.515
-0.515
-0.49
-0.51
-0.505
-0.5
-0.475
-0.465
-0.465
-0.46
-0.47
-0.465
-0.47
-0.47
-0.445
-0.445
-0.445
-0.455
-0.455
-0.42
-0.41
-0.385
-0.385
-0.38
-0.375
-0.33
-0.29
-0.25
-0.265
-0.27
-0.25
-0.185
-0.145
-0.13
-0.14
-0.14
-0.13
-0.105
-0.075
-0.04
-0.03
-0.045
-0.045
-0.015
0.025
0.02
0.0
-0.02
-0.055
-0.09
-0.115
-0.135
-0.165
-0.175
-0.18
-0.175
-0.175
-0.2
-0.21
-0.215
-0.225
-0.21
-0.2
-0.215
-0.235
-0.27
-0.265
-0.255
-0.23
-0.22
-0.225
-0.235
-0.24
-0.26
-0.25
-0.255
-0.27
-0.295
-0.33
-0.32
-0.31
-0.32
-0.32
-0.325
-0.325
-0.315
-0.31
-0.315
-0.31
-0.32
-0.305
-0.285
-0.275
-0.285
-0.3
-0.31
-0.31
-0.29
-0.26
-0.245
-0.24
-0.245
-0.255
-0.23
-0.195
-0.175
-0.165
-0.17
-0.165
-0.135
-0.1
-0.09
-0.085
-0.115
-0.115
-0.075
-0.04
-0.03
-0.06
-0.07
-0.08
-0.07
-0.06
-0.04
-0.045
-0.085
-0.095
-0.095
-0.085
-0.08
-0.095
-0.1
-0.12
-0.1
-0.065
-0.03
0.02
0.075
0.12
0.17
0.23
0.31
0.375
0.445
0.52
0.58
0.635
0.65
0.715
0.775
0.845
0.935
1.015
1.055
1.1
1.17
1.285
1.39
1.485
1.55
1.64
1.745
1.835
1.9
1.845
1.57
1.19
0.795
0.46
0.185
-0.04
-0.195
-0.3
-0.38
-0.425
-0.455
-0.465
-0.485
-0.515
-0.54
-0.575
-0.575
-0.575
-0.585
-0.61
-0.62
-0.635
-0.61
-0.595
-0.56
-0.565
-0.585
-0.59
-0.56
-0.54
-0.52
-0.515
-0.5
-0.495
-0.48
-0.45
-0.42
-0.43
-0.45
-0.455
-0.455
-0.465
-0.465
-0.495
-0.5
-0.52
-0.51
-0.5
-0.525
-0.57
-0.61
-0.665
-0.67
-0.66
-0.68
-0.705
-0.72
-0.73
-0.74
-0.72
-0.715
-0.74
-0.775
-0.81
-0.84
-0.815
-0.845
-0.855
-0.865
-0.87
-0.86
-0.815
-0.765
-0.74
-0.745
-0.74
-0.7
-0.645
-0.59
-0.55
-0.545
-0.5
-0.47
-0.465
-0.45
-0.475
-0.51
-0.535
-0.505
-0.48
-0.45
-0.445
-0.43
-0.35
-0.29
-0.245
-0.245
-0.25
-0.28
-0.29
-0.265
-0.23
-0.21
-0.215
-0.235
-0.27
-0.29
-0.305
-0.325
-0.36
-0.41
-0.415
-0.41
-0.395
-0.375
-0.395
-0.4
-0.425
-0.405
-0.4
-0.385
-0.41
-0.425
-0.435
-0.43
-0.39
-0.37
-0.37
-0.37
-0.375
-0.38
-0.375
-0.365
-0.37
-0.38
-0.395
-0.4
-0.38
-0.37
-0.38
-0.4
-0.415
-0.405
-0.385
-0.375
-0.365
-0.365
-0.37
-0.37
-0.335
-0.325
-0.315
-0.33
-0.34
-0.34
-0.325
-0.315
-0.33
-0.34
-0.335
-0.32
-0.285
-0.265
-0.27
-0.28
-0.265
-0.27
-0.245
-0.23
-0.225
-0.235
-0.245
-0.24
-0.245
-0.23
-0.26
-0.275
-0.28
-0.275
-0.27
-0.265
-0.295
-0.335
-0.36
-0.37
-0.355
-0.37
-0.385
-0.39
-0.385
-0.375
-0.365
-0.35
-0.36
-0.35
-0.345
-0.335
-0.34
-0.335
-0.33
-0.34
-0.355
-0.34
-0.32
-0.31
-0.3
-0.295
-0.29
-0.275
-0.255
-0.215
-0.145
-0.04
0.12
0.33
0.605
0.875
1.115
1.305
1.405
1.295
1.0
0.61
0.23
-0.11
-0.3
-0.35
-0.31
-0.275
-0.285
-0.31
-0.28
-0.245
-0.265
-0.285
-0.29
-0.3
-0.305
-0.305
-0.305
-0.31
-0.305
-0.31
-0.305
-0.32
-0.34
-0.35
-0.38
-0.395
-0.41
-0.41
-0.38
-0.365
-0.37
-0.405
-0.405
-0.39
-0.385
-0.385
-0.38
-0.395
-0.41
-0.41
-0.41
-0.41
-0.41
-0.41
-0.4
-0.38
-0.35
-0.325
-0.325
-0.305
-0.31
-0.3
-0.27
-0.26
-0.25
-0.235
-0.215
-0.19
-0.155
-0.12
-0.095
-0.11
-0.115
-0.085
-0.045
0.005
0.03
0.02
-0.015
-0.03
-0.05
-0.09
-0.105
-0.145
-0.155
-0.145
-0.095
-0.055
-0.05
-0.135
-0.225
-0.3
-0.36
-0.415
-0.49
-0.505
-0.495
-0.445
-0.405
-0.385
-0.41
-0.45
-0.48
-0.495
-0.47
-0.45
-0.455
-0.435
-0.405
-0.375
-0.345
-0.33
-0.32
-0.305
-0.275
-0.22
-0.17
-0.11
-0.06
-0.01
0.035
0.11
0.19
0.27
0.335
0.39
0.43
0.41
0.195
-0.065
-0.18
-0.14
-0.05
-0.02
-0.03
-0.045
-0.055
-0.045
-0.045
-0.05
-0.06
-0.095
-0.12
-0.13
-0.11
-0.075
-0.035
0.0
-0.005
-0.015
-0.02
0.01
0.02
0.045
0.06
0.07
0.08
0.09
0.115
0.12
0.12
0.095
0.08
0.07
0.07
0.06
0.04
0.005
-0.005
-0.03
-0.045
-0.055
-0.095
-0.115
-0.14
-0.145
-0.15
-0.145
-0.145
-0.14
-0.15
-0.145
-0.14
-0.12
-0.11
-0.115
-0.125
-0.12
-0.095
-0.1
-0.085
-0.06
0.085
0.32
0.635
0.965
1.3
1.58
1.73
1.575
1.155
0.635
0.16
-0.1
-0.135
-0.07
-0.03
-0.035
-0.035
-0.03
-0.015
-0.02
-0.025
-0.045
-0.045
-0.065
-0.085
-0.08
-0.08
-0.08
-0.11
-0.115
-0.115
-0.105
-0.095
-0.1
-0.09
-0.1
-0.075
-0.06
-0.03
-0.015
-0.01
-0.02
-0.025
-0.01
-0.005
0.005
0.005
0.005
-0.005
0.01
0.03
0.04
0.04
0.045
0.06
0.095
0.11
0.12
0.11
0.1
0.09
0.09
0.12
0.155
0.18
0.18
0.18
0.2
0.24
0.275
0.28
0.26
0.25
0.265
0.28
0.3
0.325
0.3
0.315
0.315
0.33
0.325
0.305
0.28
0.265
0.245
0.23
0.215
0.2
0.175
0.16
0.16
0.145
0.14
0.13
0.1
0.09
0.08
0.085
0.07
0.06
0.025
-0.005
-0.015
-0.01
-0.03
-0.055
-0.11
-0.16
-0.175
-0.16
-0.15
-0.16
-0.17
-0.19
-0.215
-0.235
-0.235
-0.26
-0.255
-0.255
-0.22
-0.195
-0.18
-0.185
-0.185
-0.17
-0.145
-0.12
-0.13
-0.13
-0.15
-0.165
-0.17
-0.17
-0.21
-0.235
-0.255
-0.27
-0.25
-0.23
-0.2
-0.185
-0.2
-0.185
-0.185
-0.165
-0.16
-0.135
-0.115
-0.11
-0.09
-0.08
-0.055
-0.05
-0.065
-0.065
-0.065
-0.045
-0.07
-0.085
-0.1
-0.125
-0.11
-0.075
-0.065
-0.065
-0.06
-0.06
-0.055
-0.025
-0.005
-0.005
-0.025
-0.06
-0.07
-0.055
-0.05
-0.055
-0.085
-0.095
-0.11
-0.105
-0.105
-0.115
-0.12
-0.13
-0.12
-0.09
-0.06
-0.02
0.015
0.045
0.1
0.19
0.26
0.325
0.395
0.47
0.53
0.59
0.655
0.695
0.75
0.815
0.92
1.04
1.135
1.195
1.245
1.33
1.405
1.465
1.465
1.43
1.39
1.405
1.445
1.54
1.625
1.695
1.755
1.805
1.83
1.785
1.62
1.27
0.885
0.545
0.28
0.075
-0.075
-0.2
-0.3
-0.365
-0.4
-0.44
-0.455
-0.49
-0.53
-0.575
-0.595
-0.605
-0.63
-0.66
-0.68
-0.69
-0.705
-0.705
-0.72
-0.72
-0.72
-0.745
-0.725
-0.72
-0.72
-0.725
-0.74
-0.745
-0.75
-0.755
-0.745
-0.765
-0.77
-0.77
-0.75
-0.755
-0.76
-0.775
-0.805
-0.81
-0.81
-0.805
-0.8
-0.825
-0.85
-0.87
-0.865
-0.845
-0.865
-0.865
-0.885
-0.89
-0.88
-0.865
-0.855
-0.875
-0.905
-0.92
-0.89
-0.855
-0.845
-0.855
-0.85
-0.845
-0.82
-0.79
-0.76
-0.765
-0.79
-0.765
-0.725
-0.69
-0.64
-0.64
-0.645
-0.645
-0.625
-0.61
-0.58
-0.565
-0.575
-0.57
-0.54
-0.51
-0.495
-0.485
-0.515
-0.515
-0.52
-0.505
-0.53
-0.54
-0.58
-0.605
-0.61
-0.61
-0.6
-0.63
-0.63
-0.635
-0.615
-0.6
-0.605
-0.625
-0.63
-0.67
-0.67
-0.655
-0.65
-0.655
-0.68
-0.695
-0.71
-0.68
-0.655
-0.655
-0.655
-0.665
-0.64
-0.615
-0.585
-0.575
-0.585
-0.58
-0.555
-0.53
-0.5
-0.485
-0.47
-0.44
-0.385
-0.37
-0.345
-0.345
-0.36
-0.36
-0.35
-0.34
-0.315
-0.31
-0.305
-0.32
-0.335
-0.32
-0.33
-0.335
-0.35
-0.37
-0.38
-0.39
-0.405
-0.4
-0.415
-0.43
-0.445
-0.415
-0.425
-0.425
-0.435
-0.445
-0.44
-0.42
-0.39
-0.405
-0.375
-0.37
-0.345
-0.33
-0.325
-0.29
-0.28
-0.245
-0.19
-0.13
-0.07
-0.03
0.015
0.045
0.13
0.225
0.335
0.43
0.505
0.575
0.65
0.72
0.8
0.895
0.965
1.065
1.155
1.25
1.32
1.37
1.375
1.37
1.315
1.28
1.21
1.145
1.075
1.03
1.0
0.99
0.965
0.93
0.87
0.825
0.795
0.8
0.775
0.755
0.705
0.69
0.715
0.73
0.725
0.65
0.52
0.355
0.15
-0.03
-0.21
-0.35
-0.455
-0.54
-0.59
-0.58
-0.575
-0.595
-0.6
-0.62
-0.625
-0.625
-0.62
-0.64
-0.655
-0.68
-0.685
-0.675
-0.675
-0.715
-0.72
-0.74
-0.745
-0.75
-0.76
-0.785
-0.8
-0.82
-0.805
-0.79
-0.8
-0.82
-0.85
-0.88
-0.895
-0.9
-0.905
-0.92
-0.96
-0.98
-0.985
-0.99
-1.0
-1.015
-1.03
-1.045
-1.05
-1.035
-1.04
-1.03
-1.05
-1.065
-1.04
-1.025
-1.015
-1.0
-1.02
-1.02
-0.99
-0.97
-0.935
-0.92
-0.905
-0.895
-0.865
-0.8
-0.76
-0.72
-0.705
-0.675
-0.64
-0.59
-0.56
-0.55
-0.565
-0.54
-0.5
-0.435
-0.405
