Lead II
-0.45
-0.465
-0.47
-0.47
-0.465
-0.46
-0.45
-0.455
-0.465
-0.47
-0.485
-0.465
-0.445
-0.46
-0.455
-0.48
-0.485
-0.465
-0.47
-0.46
-0.475
-0.475
-0.475
-0.46
-0.445
-0.46
-0.455
-0.47
-0.455
-0.44
-0.425
-0.425
-0.43
-0.42
-0.41
-0.385
-0.365
-0.36
-0.36
-0.365
-0.36
-0.315
-0.305
-0.32
-0.32
-0.31
-0.305
-0.28
-0.27
-0.26
-0.275
-0.285
-0.285
-0.27
-0.27
-0.26
-0.27
-0.285
-0.275
-0.275
-0.275
-0.275
-0.28
-0.3
-0.3
-0.285
-0.28
-0.295
-0.31
-0.335
-0.335
-0.33
-0.305
-0.31
-0.33
-0.335
-0.33
-0.33
-0.31
-0.31
-0.33
-0.34
-0.34
-0.315
-0.3
-0.295
-0.29
-0.3
-0.3
-0.29
-0.27
-0.265
-0.265
-0.28
-0.28
-0.26
-0.25
-0.25
-0.25
-0.265
-0.25
-0.245
-0.23
-0.24
-0.245
-0.24
-0.24
-0.23
-0.225
-0.23
-0.235
-0.245
-0.255
-0.25
-0.22
-0.245
-0.255
-0.28
-0.285
-0.26
-0.26
-0.26
-0.275
-0.3
-0.3
-0.305
-0.28
-0.27
-0.285
-0.285
-0.3
-0.28
-0.27
-0.27
-0.265
-0.275
-0.29
-0.27
-0.245
-0.215
-0.115
-0.025
0.1
0.215
0.35
0.485
0.625
0.76
0.865
0.975
1.035
1.025
0.975
0.87
0.755
0.615
0.415
0.205
0.025
-0.075
-0.145
-0.19
-0.235
-0.26
-0.3
-0.32
-0.33
-0.335
-0.34
-0.34
-0.365
-0.38
-0.385
-0.39
-0.39
-0.42
-0.43
-0.445
-0.465
-0.45
-0.44
-0.45
-0.46
-0.495
-0.495
-0.475
-0.47
-0.465
-0.465
-0.495
-0.5
-0.475
-0.455
-0.45
-0.46
-0.465
-0.48
-0.46
-0.45
-0.455
-0.465
-0.465
-0.465
-0.455
-0.435
-0.44
-0.45
-0.45
-0.45
-0.44
-0.43
-0.42
-0.425
-0.44
-0.445
-0.435
-0.42
-0.42
-0.43
-0.43
-0.44
-0.425
-0.42
-0.41
-0.41
-0.43
-0.425
-0.44
-0.42
-0.4
-0.405
-0.42
-0.42
-0.41
-0.4
-0.385
-0.39
-0.385
-0.38
-0.365
-0.34
-0.33
-0.325
-0.34
-0.345
-0.32
-0.295
-0.285
-0.295
-0.295
-0.29
-0.275
-0.265
-0.255
-0.26
-0.27
-0.265
-0.27
-0.255
-0.235
-0.235
-0.245
-0.25
-0.25
-0.24
-0.23
-0.26
-0.265
-0.265
-0.26
-0.24
-0.245
-0.245
-0.255
-0.255
-0.255
-0.23
-0.24
-0.25
-0.25
-0.255
-0.24
-0.24
-0.225
-0.25
-0.265
-0.275
-0.26
-0.25
-0.245
-0.26
-0.255
-0.265
-0.26
-0.245
-0.245
-0.24
-0.245
-0.245
-0.24
-0.23
-0.225
-0.24
-0.24
-0.235
-0.24
-0.22
-0.21
-0.21
-0.23
-0.225
-0.215
-0.195
-0.185
-0.2
-0.21
-0.205
-0.18
-0.175
-0.175
-0.185
-0.19
-0.2
-0.19
-0.175
-0.17
-0.18
-0.185
-0.19
-0.185
-0.175
-0.19
-0.21
-0.195
-0.2
-0.195
-0.185
-0.18
-0.19
-0.205
-0.215
-0.195
-0.195
-0.2
-0.21
-0.225
-0.225
-0.205
-0.205
-0.185
-0.195
-0.21
-0.205
-0.2
-0.17
-0.11
-0.025
0.065
0.195
0.32
0.46
0.605
0.745
0.865
0.965
1.035
1.055
1.015
0.93
0.8
0.635
0.425
0.205
0.05
-0.05
-0.12
-0.175
-0.215
-0.22
-0.245
-0.26
-0.285
-0.295
-0.305
-0.29
-0.295
-0.32
-0.335
-0.35
-0.34
-0.34
-0.345
-0.375
-0.4
-0.415
-0.42
-0.405
-0.4
-0.405
-0.415
-0.425
-0.42
-0.41
-0.405
-0.415
-0.41
-0.425
-0.41
-0.4
-0.39
-0.385
-0.4
-0.395
-0.39
-0.375
-0.375
-0.37
-0.385
-0.38
-0.38
-0.36
-0.36
-0.365
-0.375
-0.375
-0.375
-0.35
-0.345
-0.335
-0.35
-0.365
-0.345
-0.325
-0.315
-0.335
-0.355
-0.36
-0.35
-0.315
-0.315
-0.32
-0.325
-0.315
-0.315
-0.295
-0.29
-0.29
-0.305
-0.31
-0.3
-0.28
-0.27
-0.26
-0.265
-0.275
-0.265
-0.24
-0.245
-0.24
-0.23
-0.235
-0.23
-0.21
-0.205
-0.215
-0.215
-0.215
-0.205
-0.18
-0.17
-0.185
-0.19
-0.195
-0.18
-0.16
-0.16
-0.175
-0.18
-0.185
-0.16
-0.15
-0.155
-0.155
-0.17
-0.18
-0.17
-0.17
-0.17
-0.175
-0.18
-0.19
-0.19
-0.185
-0.18
-0.19
-0.225
-0.22
-0.215
-0.22
-0.21
-0.22
-0.225
-0.22
-0.22
-0.21
-0.19
-0.185
-0.2
-0.2
-0.185
-0.17
-0.17
-0.165
-0.185
-0.18
-0.165
-0.165
-0.17
-0.17
-0.17
-0.175
-0.16
-0.13
-0.13
-0.14
-0.155
-0.145
-0.13
-0.12
-0.115
-0.12
-0.135
-0.135
-0.135
-0.13
-0.135
-0.13
-0.135
-0.14
-0.145
-0.14
-0.125
-0.145
-0.16
-0.16
-0.17
-0.15
-0.155
-0.165
-0.19
-0.205
-0.185
-0.18
-0.17
-0.19
-0.185
-0.19
-0.165
-0.16
-0.18
-0.2
-0.2
-0.2
-0.175
-0.165
-0.155
-0.16
-0.19
-0.165
-0.16
-0.16
-0.145
-0.17
-0.165
-0.165
-0.155
-0.135
-0.135
-0.13
-0.14
-0.14
-0.135
-0.14
-0.13
-0.12
-0.135
-0.135
-0.15
-0.14
-0.13
-0.15
-0.16
-0.145
-0.145
-0.13
-0.14
-0.16
-0.165
-0.175
-0.16
-0.15
-0.165
-0.175
-0.17
-0.195
-0.175
-0.175
-0.17
-0.165
-0.17
-0.18
-0.165
-0.16
-0.155
-0.14
-0.15
-0.16
-0.155
-0.13
-0.135
-0.125
-0.15
-0.14
-0.13
-0.13
-0.11
-0.11
-0.13
-0.13
-0.125
-0.12
-0.11
-0.12
-0.14
-0.145
-0.12
-0.125
-0.11
-0.12
-0.13
-0.14
-0.125
-0.12
-0.12
-0.13
-0.135
-0.16
-0.145
-0.135
-0.13
-0.145
-0.155
-0.17
-0.165
-0.155
-0.15
-0.155
-0.17
-0.18
-0.17
-0.16
-0.135
-0.13
-0.15
-0.15
-0.145
-0.13
-0.1
-0.05
0.035
0.155
0.29
0.43
0.555
0.69
0.83
0.95
1.04
1.07
1.045
0.98
0.835
0.645
0.395
0.17
0.03
-0.03
-0.095
-0.15
-0.18
-0.185
-0.2
-0.22
-0.25
-0.265
-0.26
-0.265
-0.265
-0.285
-0.31
-0.315
-0.32
-0.31
-0.32
-0.325
-0.355
-0.37
-0.355
-0.33
-0.325
-0.325
-0.335
-0.35
-0.345
-0.345
-0.33
-0.335
-0.34
-0.355
-0.355
-0.35
-0.335
-0.32
-0.33
-0.35
-0.33
-0.31
-0.31
-0.31
-0.325
-0.325
-0.32
-0.305
-0.295
-0.295
-0.3
-0.31
-0.29
-0.285
-0.275
-0.285
-0.295
-0.3
-0.285
-0.275
-0.285
-0.275
-0.28
-0.29
-0.275
-0.28
-0.285
-0.29
-0.3
-0.305
-0.295
-0.285
-0.255
-0.25
-0.275
-0.25
-0.25
-0.225
-0.215
-0.21
-0.22
-0.21
-0.19
-0.18
-0.18
-0.19
-0.185
-0.18
-0.175
-0.165
-0.145
-0.155
-0.15
-0.17
-0.165
-0.14
-0.145
-0.135
-0.14
-0.15
-0.17
-0.15
-0.14
-0.145
-0.15
-0.15
-0.155
-0.14
-0.135
-0.135
-0.155
-0.16
-0.165
-0.17
-0.185
-0.19
-0.215
-0.24
-0.255
-0.26
-0.26
-0.275
-0.275
-0.275
-0.265
-0.24
-0.215
-0.19
-0.145
-0.03
0.145
0.325
0.46
0.57
0.58
0.525
0.425
0.34
0.27
0.21
0.155
0.1
0.04
-0.025
-0.085
-0.155
-0.235
-0.3
-0.3
-0.255
-0.215
-0.215
-0.22
-0.235
-0.235
-0.225
-0.225
-0.235
-0.245
-0.26
-0.255
-0.25
-0.25
-0.26
-0.275
-0.285
-0.29
-0.275
-0.29
-0.31
-0.31
-0.305
-0.305
-0.295
-0.295
-0.29
-0.305
-0.3
-0.3
-0.285
-0.275
-0.28
-0.27
-0.275
-0.24
-0.225
-0.215
-0.205
-0.22
-0.235
-0.2
-0.17
-0.175
-0.165
-0.18
-0.17
-0.15
-0.125
-0.12
-0.11
-0.11
-0.11
-0.11
-0.095
-0.085
-0.095
-0.095
-0.095
-0.085
-0.09
-0.07
-0.08
-0.085
-0.09
-0.105
-0.085
-0.1
-0.1
-0.115
-0.13
-0.13
-0.13
-0.13
-0.135
-0.15
-0.14
-0.135
-0.15
-0.13
-0.145
-0.15
-0.145
-0.14
-0.13
-0.125
-0.14
-0.15
-0.145
-0.14
-0.135
-0.12
-0.115
-0.125
-0.145
-0.125
-0.125
-0.115
-0.105
-0.12
-0.14
-0.105
-0.105
-0.095
-0.095
-0.1
-0.115
-0.1
-0.11
-0.105
-0.105
-0.12
-0.125
-0.125
-0.13
-0.125
-0.13
-0.145
-0.155
-0.17
-0.155
-0.15
-0.165
-0.18
-0.19
-0.175
-0.175
-0.16
-0.155
-0.175
-0.18
-0.175
-0.155
-0.155
-0.14
-0.16
-0.155
-0.165
-0.155
-0.145
-0.14
-0.16
-0.17
-0.15
-0.145
-0.145
-0.125
-0.14
-0.15
-0.14
-0.13
-0.135
-0.115
-0.13
-0.13
-0.135
-0.135
-0.13
-0.15
-0.14
-0.145
-0.155
-0.13
-0.135
-0.13
-0.165
-0.155
-0.155
-0.145
-0.135
-0.155
-0.155
-0.175
-0.17
-0.16
-0.155
-0.165
-0.175
-0.17
-0.17
-0.16
-0.145
-0.14
-0.16
-0.165
-0.165
-0.15
-0.145
-0.14
-0.165
-0.165
-0.16
-0.145
-0.145
-0.14
-0.145
-0.155
-0.13
-0.125
-0.12
-0.13
-0.135
-0.15
-0.15
-0.135
-0.12
-0.125
-0.135
-0.13
-0.115
-0.11
-0.115
-0.105
-0.11
-0.12
-0.12
-0.115
-0.125
-0.115
-0.14
-0.15
-0.15
-0.145
-0.135
-0.14
-0.155
-0.165
-0.165
-0.14
-0.12
-0.14
-0.15
-0.15
-0.15
-0.12
-0.12
-0.115
-0.135
-0.16
-0.155
-0.13
-0.13
-0.135
-0.135
-0.15
-0.135
-0.135
-0.13
-0.14
-0.165
-0.17
-0.17
-0.16
-0.15
-0.15
-0.15
-0.16
-0.14
-0.12
-0.115
-0.105
-0.125
-0.145
-0.155
-0.15
-0.14
-0.14
-0.15
-0.155
-0.16
-0.155
-0.155
-0.165
-0.17
-0.165
-0.175
-0.16
-0.145
-0.145
-0.17
-0.175
-0.145
-0.15
-0.135
-0.145
-0.155
-0.15
-0.14
-0.135
-0.125
-0.13
-0.14
-0.135
-0.13
-0.125
-0.105
-0.105
-0.115
-0.125
-0.115
-0.115
-0.1
-0.105
-0.11
-0.12
-0.115
-0.105
-0.1
-0.115
-0.135
-0.135
-0.145
-0.13
-0.12
-0.125
-0.13
-0.145
-0.15
-0.13
-0.13
-0.125
-0.145
-0.155
-0.165
-0.16
-0.14
-0.16
-0.17
-0.18
-0.175
-0.17
-0.165
-0.16
-0.17
-0.17
-0.17
-0.16
-0.15
-0.15
-0.145
-0.16
-0.16
-0.15
-0.14
-0.14
-0.145
-0.15
-0.15
-0.135
-0.12
-0.115
-0.12
-0.135
-0.12
-0.11
-0.1
-0.1
-0.105
-0.12
-0.115
-0.11
-0.09
-0.1
-0.1
-0.11
-0.11
-0.1
-0.1
-0.115
-0.12
-0.135
-0.13
-0.13
-0.115
-0.1
-0.115
-0.115
-0.115
-0.11
-0.1
-0.1
-0.11
-0.135
-0.135
-0.135
-0.12
-0.14
-0.135
-0.13
-0.075
0.02
0.115
0.22
0.31
0.42
0.535
0.69
0.825
0.93
0.995
1.035
1.07
1.075
1.04
0.945
0.805
0.605
0.375
0.2
0.08
0.015
-0.045
-0.115
-0.175
-0.18
-0.2
-0.195
-0.215
-0.235
-0.24
-0.24
-0.23
-0.255
-0.27
-0.275
-0.3
-0.285
-0.275
-0.27
-0.295
-0.32
-0.33
-0.325
-0.33
-0.345
-0.365
-0.38
-0.39
-0.39
-0.38
-0.375
-0.37
-0.36
-0.365
-0.37
-0.36
-0.355
-0.35
-0.36
-0.37
-0.365
-0.355
-0.345
-0.355
-0.355
-0.355
-0.33
-0.325
-0.315
-0.33
-0.335
-0.325
-0.305
-0.295
-0.27
-0.285
-0.29
-0.295
-0.28
-0.255
-0.25
-0.255
-0.26
-0.26
-0.245
-0.235
-0.24
-0.25
-0.24
-0.255
-0.24
-0.255
-0.235
-0.245
-0.26
-0.26
-0.25
-0.245
-0.25
-0.27
-0.27
-0.27
-0.265
-0.255
-0.265
-0.265
-0.265
-0.27
-0.265
-0.24
-0.24
-0.225
-0.225
-0.225
-0.2
-0.2
-0.18
-0.17
-0.185
-0.18
-0.165
-0.16
-0.165
-0.165
-0.16
-0.155
-0.145
-0.135
-0.145
-0.155
-0.16
-0.145
-0.135
-0.13
-0.125
-0.14
-0.15
-0.145
-0.14
-0.14
-0.13
-0.155
-0.165
-0.16
-0.155
-0.155
-0.15
-0.16
-0.18
-0.19
-0.2
-0.19
-0.2
-0.215
-0.23
-0.225
-0.225
-0.21
-0.215
-0.225
-0.235
-0.225
-0.23
-0.2
-0.21
-0.21
-0.2
-0.205
-0.2
-0.18
-0.175
-0.175
-0.18
-0.18
-0.185
-0.17
-0.165
-0.17
-0.17
-0.17
-0.16
-0.145
-0.14
-0.15
-0.15
-0.165
-0.16
-0.17
-0.145
-0.15
-0.145
-0.15
-0.15
-0.145
-0.14
-0.155
-0.155
-0.155
-0.145
-0.145
-0.155
-0.165
-0.165
-0.185
-0.16
-0.16
-0.17
-0.205
-0.22
-0.215
-0.215
-0.205
-0.21
-0.215
-0.215
-0.215
-0.2
-0.19
-0.18
-0.18
-0.185
-0.175
-0.17
-0.17
-0.16
-0.18
-0.18
-0.18
-0.16
-0.15
-0.155
-0.17
-0.165
-0.17
-0.145
-0.145
-0.14
-0.15
-0.165
-0.16
-0.15
-0.135
-0.135
-0.13
-0.145
-0.16
-0.14
-0.13
-0.135
-0.15
-0.15
-0.15
-0.135
-0.125
-0.125
-0.145
-0.16
-0.16
-0.145
-0.135
-0.14
-0.16
-0.175
-0.19
-0.19
-0.18
-0.2
-0.215
-0.225
-0.225
-0.215
-0.205
-0.2
-0.205
-0.2
-0.2
-0.185
-0.175
-0.175
-0.19
-0.175
-0.175
-0.16
-0.145
-0.15
-0.155
-0.12
-0.055
0.04
0.155
0.25
0.37
0.485
0.61
0.745
0.89
0.99
1.04
1.09
1.085
1.055
1.005
0.89
0.715
0.495
0.275
0.115
0.03
-0.025
-0.085
-0.155
-0.185
-0.195
-0.2
-0.22
-0.24
-0.265
-0.285
-0.285
-0.27
-0.28
-0.305
-0.33
-0.34
-0.34
-0.345
-0.35
-0.365
-0.38
-0.385
-0.38
-0.37
-0.38
-0.38
-0.38
-0.38
-0.37
-0.355
-0.375
-0.365
-0.38
-0.38
-0.365
-0.35
-0.355
-0.365
-0.375
-0.38
-0.37
-0.355
-0.355
-0.35
-0.345
-0.355
-0.345
-0.34
-0.325
-0.34
-0.355
-0.35
-0.335
-0.32
-0.325
-0.33
-0.335
-0.335
-0.33
-0.305
-0.315
-0.345
-0.345
-0.35
-0.345
-0.32
-0.335
-0.335
-0.345
-0.345
-0.345
-0.34
-0.36
-0.355
-0.37
-0.37
-0.365
-0.35
-0.35
-0.345
-0.34
-0.33
-0.31
-0.285
-0.28
-0.28
-0.285
-0.265
-0.235
-0.215
-0.21
-0.22
-0.225
-0.22
-0.2
-0.19
-0.19
-0.195
-0.195
-0.195
-0.18
-0.17
-0.17
-0.185
-0.175
-0.18
-0.18
-0.17
-0.17
-0.18
-0.19
-0.2
-0.19
-0.195
-0.195
-0.195
-0.185
-0.21
-0.215
-0.2
-0.205
-0.21
-0.21
-0.22
-0.24
-0.22
-0.22
-0.235
-0.23
-0.235
-0.22
-0.21
-0.2
-0.225
-0.225
-0.22
-0.205
-0.18
-0.18
-0.17
-0.18
-0.195
-0.175
-0.165
-0.16
-0.17
-0.18
-0.195
-0.17
-0.155
-0.15
-0.15
-0.155
-0.18
-0.165
-0.15
-0.145
-0.15
-0.15
-0.155
-0.155
-0.145
-0.15
-0.15
-0.16
-0.19
-0.18
-0.155
-0.16
-0.17
-0.17
-0.19
-0.185
-0.17
-0.185
-0.2
-0.205
-0.21
-0.205
-0.19
-0.185
-0.21
-0.22
-0.215
-0.19
-0.17
-0.185
-0.19
-0.19
-0.195
-0.17
-0.155
-0.145
-0.155
-0.17
-0.18
-0.16
-0.145
-0.155
-0.15
-0.16
-0.155
-0.15
-0.145
-0.14
-0.155
-0.155
-0.17
-0.15
-0.135
-0.135
-0.145
-0.16
-0.165
-0.15
-0.14
-0.135
-0.15
-0.16
-0.18
-0.16
-0.15
-0.16
-0.15
-0.165
-0.175
-0.17
-0.175
-0.175
-0.175
-0.185
-0.195
-0.195
-0.175
-0.18
-0.185
-0.19
-0.175
-0.16
-0.15
-0.155
-0.175
-0.19
-0.185
-0.145
-0.1
0.005
0.115
0.22
0.345
0.475
0.625
0.78
0.91
1.015
1.08
1.115
1.125
1.085
1.0
0.895
0.74
0.525
0.305
0.13
0.03
-0.03
-0.075
-0.135
-0.18
-0.185
-0.21
-0.22
-0.245
-0.245
-0.285
-0.28
-0.3
-0.325
-0.325
-0.33
-0.33
-0.34
-0.34
-0.365
-0.385
-0.39
-0.375
-0.385
-0.38
-0.39
-0.4
-0.39
-0.385
-0.385
-0.395
-0.395
-0.41
-0.4
-0.395
-0.4
-0.385
-0.39
-0.4
-0.385
-0.38
-0.375
-0.365
-0.38
-0.375
-0.365
-0.345
-0.335
-0.345
-0.34
-0.335
-0.31
-0.305
-0.29
-0.31
-0.3
-0.3
-0.295
-0.29
-0.305
-0.3
-0.31
-0.31
-0.31
-0.305
-0.315
-0.31
-0.315
-0.32
-0.31
-0.315
-0.335
-0.33
-0.34
-0.345
-0.335
-0.33
-0.32
-0.325
-0.335
-0.325
-0.305
-0.275
-0.265
-0.26
-0.28
-0.275
-0.255
-0.23
-0.22
-0.225
-0.225
-0.225
-0.22
-0.22
-0.19
-0.195
-0.215
-0.21
-0.185
-0.17
-0.165
-0.175
-0.185
-0.195
-0.17
-0.165
-0.18
-0.185
-0.2
-0.185
-0.17
-0.165
-0.155
-0.16
-0.155
-0.165
-0.16
-0.145
-0.145
-0.15
-0.17
-0.18
-0.16
-0.16
-0.165
-0.18
-0.205
-0.22
-0.2
-0.195
-0.195
-0.2
-0.215
-0.21
-0.19
-0.18
-0.185
-0.185
-0.19
-0.195
-0.175
-0.175
-0.17
-0.175
-0.195
-0.205
-0.18
-0.175
-0.175
-0.195
-0.2
-0.18
-0.17
-0.175
-0.17
-0.19
-0.2
-0.2
-0.19
-0.175
-0.17
-0.17
-0.175
-0.175
-0.165
-0.16
-0.165
-0.165
-0.18
-0.185
-0.17
-0.17
-0.155
-0.17
-0.175
-0.18
-0.185
-0.18
-0.19
-0.215
-0.21
-0.205
-0.2
-0.195
-0.195
-0.21
-0.23
-0.22
-0.205
-0.185
-0.18
-0.2
-0.2
-0.205
-0.2
-0.19
-0.175
-0.185
-0.185
-0.195
-0.195
-0.19
-0.18
-0.175
-0.175
-0.185
-0.185
-0.165
-0.155
-0.16
-0.175
-0.16
-0.115
-0.035
0.07
0.165
0.265
0.395
0.515
0.675
0.825
0.935
1.015
1.055
1.065
1.045
0.975
0.865
0.705
0.505
0.305
0.115
0.01
-0.08
-0.16
-0.225
-0.265
-0.285
-0.295
-0.31
-0.32
-0.345
-0.345
-0.325
-0.335
-0.34
-0.37
-0.395
-0.37
-0.355
-0.36
-0.355
-0.375
-0.38
-0.385
-0.39
-0.375
-0.38
-0.41
-0.4
-0.41
-0.395
-0.39
-0.385
-0.38
-0.375
-0.375
-0.365
-0.35
-0.37
-0.365
-0.365
-0.36
-0.355
-0.355
-0.365
-0.375
-0.375
-0.37
-0.355
-0.36
-0.365
-0.38
-0.39
-0.365
-0.365
-0.37
-0.37
-0.38
-0.385
-0.38
-0.38
-0.375
-0.39
-0.4
-0.4
-0.405
-0.405
-0.385
-0.385
-0.39
-0.395
-0.395
-0.365
-0.375
-0.36
-0.365
-0.365
-0.35
-0.345
-0.32
-0.315
-0.325
-0.32
-0.315
-0.295
-0.275
-0.265
-0.275
-0.265
-0.255
-0.26
-0.24
-0.24
-0.245
-0.235
-0.215
-0.205
-0.19
-0.19
-0.195
-0.2
-0.19
-0.17
-0.175
-0.185
-0.205
-0.21
-0.21
-0.215
-0.185
-0.2
-0.215
-0.225
-0.215
-0.225
-0.225
-0.245
-0.245
-0.255
-0.255
-0.25
-0.235
-0.255
-0.26
-0.245
-0.23
-0.22
-0.215
-0.21
-0.215
-0.215
-0.205
-0.18
-0.185
-0.19
-0.205
-0.21
-0.195
-0.175
-0.165
-0.175
-0.185
-0.195
-0.19
-0.16
-0.15
-0.16
-0.175
-0.18
-0.17
-0.15
-0.135
-0.155
-0.165
-0.195
-0.19
-0.19
-0.185
-0.195
-0.215
-0.23
-0.24
-0.21
-0.185
-0.185
-0.21
-0.21
-0.21
-0.225
-0.205
-0.21
-0.22
-0.23
-0.215
-0.2
-0.21
-0.215
-0.205
-0.21
-0.21
-0.185
-0.195
-0.2
-0.2
-0.21
-0.195
-0.185
-0.18
-0.19
-0.18
-0.19
-0.18
-0.175
-0.165
-0.16
-0.175
-0.18
-0.185
-0.185
-0.165
-0.115
-0.025
0.085
0.21
0.365
0.5
0.65
0.78
0.89
0.985
1.015
1.0
0.915
0.79
0.63
0.44
0.21
0.0
-0.12
-0.205
-0.275
-0.305
-0.305
-0.285
-0.285
-0.315
-0.32
-0.345
-0.33
-0.315
-0.32
-0.345
-0.35
-0.35
-0.36
-0.355
-0.355
-0.37
-0.38
-0.365
-0.355
-0.35
-0.36
-0.37
-0.4
-0.39
-0.38
-0.36
-0.37
-0.375
-0.38
-0.375
-0.37
-0.365
-0.365
-0.38
-0.395
-0.385
-0.38
-0.375
-0.375
-0.41
-0.405
-0.4
-0.395
-0.39
-0.395
-0.415
-0.41
-0.425
-0.42
-0.42
-0.415
-0.44
-0.455
-0.445
-0.43
-0.415
-0.425
-0.435
-0.415
-0.4
-0.395
-0.375
-0.37
-0.39
-0.395
-0.375
-0.375
-0.35
-0.34
-0.34
-0.33
-0.31
-0.29
-0.28
-0.275
-0.265
-0.26
-0.24
-0.24
-0.22
-0.22
-0.23
-0.225
-0.21
-0.195
-0.185
-0.205
-0.2
-0.225
-0.215
-0.2
-0.2
-0.215
-0.21
-0.215
-0.22
-0.22
-0.21
-0.22
-0.235
-0.24
-0.255
-0.255
-0.255
-0.245
-0.265
-0.265
-0.27
-0.255
-0.255
-0.26
-0.26
-0.275
-0.26
-0.245
-0.25
-0.245
-0.23
-0.23
-0.225
-0.22
-0.205
-0.21
-0.215
-0.215
-0.205
-0.185
-0.18
-0.185
-0.2
-0.175
-0.175
-0.165
-0.16
-0.175
-0.185
-0.175
-0.17
-0.16
-0.155
-0.17
-0.16
-0.18
-0.185
-0.165
-0.165
-0.175
-0.19
-0.21
-0.2
-0.18
-0.185
-0.19
-0.215
-0.22
-0.22
-0.23
-0.21
-0.22
-0.23
-0.245
-0.235
-0.23
-0.225
-0.22
-0.23
-0.215
-0.22
-0.2
-0.21
-0.19
-0.205
-0.22
-0.215
-0.21
-0.175
-0.135
-0.055
0.055
0.18
0.33
0.475
0.61
0.76
0.885
1.0
1.095
1.14
1.125
1.06
0.92
0.76
0.545
0.305
0.1
-0.045
-0.11
-0.165
-0.235
-0.255
-0.27
-0.285
-0.31
-0.325
-0.325
-0.34
-0.35
-0.37
-0.395
-0.39
-0.39
-0.405
-0.425
-0.44
-0.44
-0.45
-0.435
-0.435
-0.435
-0.455
-0.465
-0.465
-0.44
-0.425
-0.435
-0.45
-0.465
-0.465
-0.46
-0.43
-0.425
-0.435
-0.445
-0.45
-0.425
-0.41
-0.41
-0.42
-0.44
-0.425
-0.41
-0.4
-0.4
-0.415
-0.42
-0.41
-0.405
-0.405
-0.415
-0.42
-0.42
-0.41
-0.395
-0.39
-0.425
-0.43
-0.44
-0.44
-0.43
-0.42
-0.42
-0.445
-0.46
-0.455
-0.435
-0.41
-0.405
-0.405
-0.405
-0.38
-0.375
-0.345
-0.32
-0.33
-0.325
-0.32
-0.315
-0.295
-0.29
-0.295
-0.28
-0.27
-0.255
-0.245
-0.235
-0.24
-0.24
-0.225
-0.22
-0.205
-0.22
-0.23
-0.235
-0.225
-0.215
-0.2
-0.21
-0.23
-0.24
-0.23
-0.23
-0.225
-0.23
-0.24
-0.25
-0.24
-0.23
-0.23
-0.235
-0.255
-0.26
-0.27
-0.28
-0.275
-0.285
-0.295
-0.305
-0.3
-0.29
-0.275
-0.275
-0.295
-0.285
-0.265
-0.27
-0.26
-0.275
-0.28
-0.285
-0.285
-0.27
-0.25
-0.25
-0.255
-0.245
-0.235
-0.22
-0.19
-0.195
-0.215
-0.215
-0.21
-0.19
-0.19
-0.2
-0.195
-0.205
-0.195
-0.195
-0.17
-0.185
-0.2
-0.2
-0.195
-0.185
-0.19
-0.205
-0.22
-0.22
-0.215
-0.2
-0.205
-0.215
-0.235
-0.275
-0.26
-0.25
-0.235
-0.255
-0.27
-0.28
-0.28
-0.26
-0.245
-0.24
-0.25
-0.265
-0.265
-0.235
-0.24
-0.235
-0.255
-0.265
-0.25
-0.23
-0.23
-0.23
-0.235
-0.25
-0.235
-0.22
-0.2
-0.19
-0.19
-0.205
-0.195
-0.195
-0.195
-0.19
-0.18
-0.155
-0.085
0.045
0.18
0.29
0.395
0.51
0.645
0.79
0.9
0.955
0.96
0.92
0.86
0.78
0.655
0.48
0.275
0.045
-0.095
-0.165
-0.205
-0.26
-0.33
-0.36
-0.37
-0.375
-0.37
-0.38
-0.395
-0.4
-0.41
-0.41
-0.395
-0.395
-0.405
-0.42
-0.43
-0.43
-0.42
-0.435
-0.44
-0.44
-0.44
-0.435
-0.415
-0.425
-0.425
-0.42
-0.43
-0.41
-0.4
-0.415
-0.435
-0.44
-0.42
-0.4
-0.395
-0.395
-0.395
-0.41
-0.405
-0.41
-0.39
-0.395
-0.405
-0.425
-0.42
-0.405
-0.405
-0.41
-0.425
-0.425
-0.43
-0.425
-0.425
-0.425
-0.44
-0.455
-0.455
-0.445
-0.43
-0.425
-0.43
-0.44
-0.425
-0.405
-0.39
-0.395
-0.405
-0.41
-0.395
-0.37
-0.365
-0.37
-0.39
-0.375
-0.35
-0.325
-0.305
-0.285
-0.29
-0.28
-0.275
-0.265
-0.245
-0.24
-0.24
-0.25
-0.26
-0.24
-0.23
-0.235
-0.24
-0.24
-0.235
-0.23
-0.24
-0.245
-0.25
-0.255
-0.25
-0.25
-0.26
-0.265
-0.28
-0.29
-0.29
-0.27
-0.28
-0.285
-0.27
-0.25
-0.225
-0.155
-0.085
-0.07
-0.24
-0.545
-0.805
-0.94
-0.97
-0.97
-0.98
-0.96
-0.965
-0.97
-0.965
-0.97
-0.985
-0.97
-0.915
-0.805
-0.71
-0.65
-0.61
-0.61
-0.61
-0.595
-0.545
-0.51
-0.485
-0.45
-0.4
-0.335
-0.27
-0.255
-0.25
-0.235
-0.215
-0.195
-0.165
-0.16
-0.165
-0.18
-0.175
-0.165
-0.145
-0.155
-0.155
-0.16
-0.155
-0.135
-0.12
-0.125
-0.12
-0.1
-0.09
-0.07
-0.055
-0.04
-0.035
-0.03
0.0
0.03
0.055
0.05
0.08
0.08
0.09
0.115
0.15
0.17
0.165
0.185
0.19
0.215
0.24
0.24
0.24
0.24
0.255
0.265
0.265
0.265
0.26
0.26
0.245
0.25
0.25
0.225
0.215
0.195
0.18
0.155
0.15
0.115
0.095
0.07
0.04
0.03
0.025
-0.005
-0.03
-0.055
-0.06
-0.06
-0.07
-0.08
-0.115
-0.13
-0.135
-0.12
-0.105
-0.12
-0.125
-0.145
-0.14
-0.135
-0.14
-0.13
-0.145
-0.155
-0.16
-0.15
-0.13
-0.13
-0.135
-0.14
-0.16
-0.14
-0.13
-0.13
-0.15
-0.155
-0.16
-0.155
-0.16
-0.155
-0.18
-0.185
-0.19
-0.19
-0.185
-0.2
-0.215
-0.23
-0.24
-0.225
-0.23
-0.235
-0.255
-0.275
-0.29
-0.27
-0.26
-0.25
-0.26
-0.265
-0.265
-0.26
-0.235
-0.225
-0.24
-0.265
-0.265
-0.25
-0.24
-0.24
-0.255
-0.245
-0.26
-0.24
-0.215
-0.225
-0.23
-0.235
-0.235
-0.225
-0.22
-0.21
-0.22
-0.235
-0.225
-0.22
-0.225
-0.22
-0.235
-0.255
-0.25
-0.235
-0.23
-0.23
-0.245
-0.25
-0.245
-0.245
-0.225
-0.235
-0.265
-0.285
-0.285
-0.28
-0.27
-0.285
-0.295
-0.305
-0.3
-0.28
-0.255
-0.245
-0.27
-0.285
-0.27
-0.255
-0.23
-0.235
-0.245
-0.255
-0.255
-0.24
-0.24
-0.24
-0.25
-0.24
-0.24
-0.22
-0.215
-0.22
-0.24
-0.24
-0.24
-0.215
-0.18
-0.205
-0.22
-0.215
-0.215
-0.21
-0.21
-0.185
-0.155
-0.09
0.005
0.135
0.265
0.375
0.495
0.625
0.745
0.86
0.91
0.89
0.83
0.755
0.65
0.49
0.29
0.065
-0.085
-0.16
-0.205
-0.275
-0.3
-0.35
-0.35
-0.35
-0.365
-0.365
-0.37
-0.37
-0.395
-0.41
-0.415
-0.405
-0.395
-0.4
-0.4
-0.41
-0.41
-0.41
-0.405
-0.41
-0.415
-0.425
-0.43
-0.415
-0.405
-0.425
-0.45
-0.455
-0.45
-0.45
-0.445
-0.45
-0.455
-0.465
-0.48
-0.475
-0.465
-0.47
-0.48
-0.5
-0.48
-0.49
-0.47
-0.47
-0.465
-0.48
-0.485
-0.47
-0.465
-0.45
-0.465
-0.47
-0.455
-0.45
-0.43
-0.435
-0.445
-0.45
-0.44
-0.435
-0.415
-0.41
-0.4
-0.4
-0.41
-0.395
-0.38
-0.38
-0.375
-0.355
-0.345
-0.335
-0.315
-0.31
-0.305
-0.31
-0.3
-0.285
-0.28
-0.28
-0.295
-0.295
-0.295
-0.275
-0.275
-0.28
-0.3
-0.31
-0.315
-0.295
-0.295
-0.275
-0.295
-0.3
-0.305
-0.3
-0.295
-0.285
-0.285
-0.305
-0.3
-0.295
-0.28
-0.27
-0.27
-0.295
-0.305
-0.28
-0.26
-0.255
-0.26
-0.265
-0.27
-0.265
-0.25
-0.24
-0.25
-0.25
-0.255
-0.235
-0.235
-0.235
-0.23
-0.235
-0.25
-0.24
-0.225
-0.235
-0.24
-0.265
-0.265
-0.255
-0.26
-0.255
-0.285
-0.285
-0.295
-0.285
-0.27
-0.275
-0.29
-0.305
-0.31
-0.275
-0.255
-0.26
-0.26
-0.27
-0.275
-0.265
-0.24
-0.24
-0.24
-0.265
-0.265
-0.26
-0.25
-0.25
-0.25
-0.26
-0.26
-0.24
-0.23
-0.235
-0.24
-0.245
-0.24
-0.23
-0.225
-0.225
-0.245
-0.24
-0.235
-0.23
-0.225
-0.23
-0.235
-0.26
-0.275
-0.27
-0.265
-0.27
-0.285
-0.3
-0.305
-0.295
-0.285
-0.28
-0.295
-0.3
-0.29
-0.265
-0.25
-0.255
-0.255
-0.25
-0.26
-0.25
-0.245
-0.24
-0.24
-0.255
-0.26
-0.235
-0.225
-0.21
-0.23
-0.24
-0.245
-0.23
-0.22
-0.215
-0.225
-0.235
-0.24
-0.225
-0.22
-0.225
-0.235
-0.235
-0.25
-0.25
-0.245
-0.235
-0.235
-0.26
-0.275
-0.265
-0.25
-0.25
-0.275
-0.29
-0.305
-0.285
-0.285
-0.285
-0.3
-0.3
-0.285
-0.265
-0.255
-0.245
-0.25
-0.275
-0.265
-0.26
-0.235
-0.235
-0.24
-0.265
-0.27
-0.245
-0.225
-0.23
-0.225
-0.225
-0.235
-0.22
-0.22
-0.2
-0.21
-0.22
-0.22
-0.21
-0.2
-0.185
-0.205
-0.215
-0.205
-0.205
-0.21
-0.195
-0.16
-0.06
0.06
0.185
0.315
0.43
0.55
0.68
0.79
0.865
0.905
0.86
0.8
0.72
0.61
0.465
0.265
0.08
-0.085
-0.165
-0.22
-0.26
-0.295
-0.305
-0.31
-0.335
-0.34
-0.345
-0.345
-0.37
-0.375
-0.385
-0.4
-0.385
-0.36
-0.37
-0.39
-0.385
-0.4
-0.39
-0.375
-0.375
-0.4
-0.395
-0.4
-0.4
-0.385
-0.385
-0.39
-0.42
-0.425
-0.425
-0.41
-0.415
-0.425
-0.435
-0.44
-0.435
-0.425
-0.43
-0.45
-0.455
-0.475
-0.46
-0.455
-0.455
-0.47
-0.48
-0.48
-0.46
-0.44
-0.43
-0.44
-0.435
-0.44
-0.43
-0.41
-0.39
-0.395
-0.405
-0.4
-0.39
-0.375
-0.375
-0.38
-0.39
-0.39
-0.38
-0.365
-0.35
-0.35
-0.36
-0.36
-0.35
-0.335
-0.32
-0.32
-0.33
-0.325
-0.315
-0.3
-0.285
-0.29
-0.295
-0.295
-0.28
-0.27
-0.27
-0.28
-0.275
-0.285
-0.275
-0.265
-0.275
-0.275
-0.285
-0.295
-0.29
-0.285
-0.28
-0.275
-0.305
-0.3
-0.3
-0.295
-0.29
-0.295
-0.295
-0.285
-0.27
-0.26
-0.265
-0.27
-0.29
-0.275
-0.265
-0.24
-0.255
-0.25
-0.265
-0.26
-0.25
-0.245
-0.235
-0.25
-0.255
-0.245
-0.23
-0.225
-0.215
-0.22
-0.22
-0.225
-0.21
-0.205
-0.21
-0.21
-0.21
-0.215
-0.19
-0.195
-0.195
-0.205
-0.22
-0.225
-0.22
-0.205
-0.21
-0.23
-0.25
-0.25
-0.26
-0.245
-0.265
-0.26
-0.29
-0.285
-0.265
-0.26
-0.25
-0.265
-0.265
-0.265
-0.245
-0.23
-0.225
-0.23
-0.24
-0.24
-0.23
-0.2
-0.2
-0.205
-0.22
-0.225
-0.22
-0.215
-0.205
-0.21
-0.205
-0.215
-0.205
-0.2
-0.185
-0.2
-0.21
-0.2
-0.205
-0.205
-0.18
-0.2
-0.2
-0.205
-0.195
-0.19
-0.175
-0.18
-0.195
-0.205
-0.195
-0.175
-0.18
-0.2
-0.205
-0.21
-0.205
-0.2
-0.195
-0.2
-0.22
-0.225
-0.22
-0.23
-0.225
-0.24
-0.255
-0.26
-0.255
-0.25
-0.255
-0.27
-0.27
-0.25
-0.23
-0.205
-0.21
-0.215
-0.235
-0.225
-0.22
-0.195
-0.195
-0.2
-0.22
-0.205
-0.2
-0.19
-0.18
-0.18
-0.2
-0.185
-0.195
-0.17
-0.18
-0.18
-0.195
-0.205
-0.185
-0.17
-0.17
-0.18
-0.19
-0.19
-0.19
-0.17
-0.165
-0.17
-0.19
-0.185
-0.18
-0.18
-0.175
-0.18
-0.195
