Lead II
-1.145
-1.14
-1.14
-1.155
-1.15
-1.155
-1.16
-1.17
-1.15
-1.15
-1.14
-1.135
-1.125
-1.125
-1.135
-1.155
-1.18
-1.19
-1.19
-1.185
-1.195
-1.185
-1.175
-1.155
-1.125
-1.125
-1.115
-1.09
-1.07
-1.065
-1.065
-1.08
-1.06
-1.045
-1.025
-1.035
-1.02
-1.03
-1.035
-1.03
-1.02
-1.005
-0.995
-0.975
-0.96
-0.97
-0.98
-0.985
-0.995
-1.02
-1.035
-1.06
-1.07
-1.075
-1.09
-1.09
-1.1
-1.115
-1.125
-1.14
-1.165
-1.18
-1.195
-1.23
-1.26
-1.27
-1.265
-1.27
-1.25
-1.245
-1.24
-1.24
-1.25
-1.245
-1.235
-1.26
-1.25
-1.255
-1.275
-1.265
-1.245
-1.24
-1.22
-1.185
-1.135
-1.05
-0.945
-0.785
-0.615
-0.425
-0.215
0.0
0.21
0.405
0.56
0.635
0.595
0.395
0.015
-0.51
-1.075
-1.57
-1.87
-1.935
-1.82
-1.605
-1.375
-1.21
-1.12
-1.125
-1.14
-1.195
-1.225
-1.25
-1.25
-1.245
-1.24
-1.215
-1.215
-1.205
-1.21
-1.205
-1.215
-1.215
-1.22
-1.22
-1.215
-1.195
-1.19
-1.175
-1.185
-1.18
-1.15
-1.155
-1.14
-1.15
-1.15
-1.15
-1.165
-1.17
-1.155
-1.165
-1.15
-1.125
-1.115
-1.125
-1.11
-1.1
-1.085
-1.105
-1.085
-1.08
-1.07
-1.05
-1.035
-1.0
-1.005
-1.005
-1.02
-1.02
-1.0
-1.0
-0.985
-0.97
-0.94
-0.915
-0.905
-0.895
-0.89
-0.92
-0.92
-0.925
-0.93
-0.915
-0.915
-0.915
-0.89
-0.905
-0.89
-0.89
-0.9
-0.9
-0.91
-0.925
-0.945
-0.94
-0.955
-0.95
-0.965
-0.955
-0.945
-0.95
-0.96
-0.975
-0.985
-1.01
-1.02
-1.025
-1.03
-1.04
-1.025
-1.03
-1.035
-1.03
-1.03
-1.035
-1.045
-1.065
-1.09
-1.07
-1.09
-1.075
-1.065
-1.055
-1.04
-1.025
-1.035
-1.03
-1.045
-1.045
-1.07
-1.065
-1.065
-1.07
-1.045
-1.035
-1.02
-1.005
-1.015
-1.015
-1.005
-1.015
-1.015
-1.02
-1.03
-1.04
-1.04
-1.02
-1.005
-1.015
-1.0
-1.01
-1.015
-1.035
-1.025
-1.035
-1.04
-1.03
-1.035
-1.035
-1.04
-1.03
-1.035
-1.035
-1.045
-1.04
-1.07
-1.075
-1.095
-1.095
-1.085
-1.075
-1.065
-1.045
-1.05
-1.04
-1.055
-1.075
-1.075
-1.085
-1.09
-1.095
-1.08
-1.065
-1.05
-1.07
-1.05
-1.05
-1.06
-1.055
-1.075
-1.07
-1.08
-1.08
-1.065
-1.07
-1.06
-1.055
-1.045
-1.04
-1.05
-1.065
-1.07
-1.065
-1.06
-1.045
-1.025
-1.0
-0.975
-0.94
-0.915
-0.92
-0.925
-0.93
-0.93
-0.925
-0.96
-0.945
-0.93
-0.905
-0.875
-0.845
-0.82
-0.815
-0.815
-0.845
-0.86
-0.895
-0.92
-0.935
-0.93
-0.94
-0.94
-0.945
-0.96
-0.98
-1.01
-1.045
-1.08
-1.11
-1.14
-1.18
-1.175
-1.165
-1.16
-1.13
-1.115
-1.09
-1.1
-1.11
-1.115
-1.135
-1.135
-1.14
-1.13
-1.145
-1.135
-1.125
-1.095
-1.085
-1.04
-0.98
-0.88
-0.75
-0.595
-0.39
-0.16
0.07
0.32
0.54
0.635
0.565
0.27
-0.235
-0.82
-1.34
-1.695
-1.805
-1.705
-1.49
-1.265
-1.065
-0.98
-0.955
-0.965
-1.025
-1.06
-1.09
-1.1
-1.11
-1.11
-1.075
-1.075
-1.045
-1.025
-1.03
-1.04
-1.04
-1.05
-1.045
-1.055
-1.05
-1.055
-1.03
-1.01
-1.0
-1.005
-1.005
-0.995
-1.005
-1.0
-1.0
-1.0
-0.99
-0.995
-0.98
-0.96
-0.955
-0.935
-0.935
-0.94
-0.935
-0.94
-0.93
-0.93
-0.91
-0.895
-0.905
-0.885
-0.865
-0.845
-0.84
-0.84
-0.84
-0.85
-0.835
-0.835
-0.83
-0.815
-0.815
-0.8
-0.77
-0.765
-0.76
-0.765
-0.795
-0.795
-0.795
-0.795
-0.8
-0.795
-0.795
-0.795
-0.79
-0.815
-0.83
-0.83
-0.83
-0.84
-0.85
-0.845
-0.865
-0.875
-0.875
-0.89
-0.865
-0.875
-0.885
-0.905
-0.925
-0.95
-0.975
-0.975
-0.985
-0.995
-0.99
-0.985
-0.975
-0.98
-0.98
-0.985
-0.985
-0.99
-1.01
-1.035
-1.025
-1.045
-1.025
-1.01
-0.99
-0.995
-1.01
-0.99
-0.985
-1.0
-1.005
-1.02
-1.02
-1.025
-1.0
-1.01
-0.985
-0.99
-1.01
-1.015
-1.01
-1.025
-1.025
-1.035
-1.045
-1.035
-1.03
-1.03
-1.02
-1.035
-1.045
-1.065
-1.08
-1.085
-1.08
-1.075
-1.085
-1.09
-1.08
-1.075
-1.06
-1.065
-1.065
-1.065
-1.085
-1.115
-1.115
-1.13
-1.14
-1.12
-1.11
-1.115
-1.1
-1.095
-1.105
-1.11
-1.12
-1.125
-1.13
-1.13
-1.13
-1.13
-1.145
-1.13
-1.115
-1.12
-1.13
-1.125
-1.145
-1.13
-1.135
-1.14
-1.15
-1.15
-1.13
-1.125
-1.115
-1.11
-1.1
-1.095
-1.07
-1.05
-1.04
-1.035
-1.03
-1.015
-1.0
-1.0
-0.985
-0.96
-0.96
-0.95
-0.95
-0.935
-0.925
-0.94
-0.945
-0.94
-0.93
-0.95
-0.955
-0.965
-0.97
-0.985
-1.01
-1.025
-1.03
-1.07
-1.065
-1.085
-1.1
-1.125
-1.135
-1.16
-1.2
-1.215
-1.205
-1.195
-1.2
-1.195
-1.2
-1.18
-1.175
-1.185
-1.165
-1.17
-1.165
-1.185
-1.19
-1.205
-1.205
-1.205
-1.18
-1.125
-1.04
-0.925
-0.76
-0.595
-0.435
-0.265
-0.095
0.1
0.28
0.43
0.535
0.535
0.365
-0.025
-0.57
-1.145
-1.6
-1.84
-1.85
-1.71
-1.485
-1.31
-1.15
-1.08
-1.085
-1.105
-1.135
-1.165
-1.18
-1.185
-1.19
-1.19
-1.185
-1.185
-1.195
-1.19
-1.175
-1.16
-1.145
-1.14
-1.145
-1.17
-1.16
-1.165
-1.17
-1.17
-1.145
-1.14
-1.12
-1.105
-1.09
-1.085
-1.095
-1.09
-1.1
-1.12
-1.11
-1.13
-1.12
-1.1
-1.08
-1.06
-1.035
-1.04
-1.035
-1.04
-1.05
-1.045
-1.04
-1.03
-1.015
-1.015
-1.0
-0.98
-0.975
-0.965
-0.975
-0.965
-0.96
-0.96
-0.95
-0.955
-0.945
-0.94
-0.925
-0.94
-0.945
-0.93
-0.94
-0.96
-0.975
-0.995
-1.0
-0.985
-0.985
-1.0
-1.0
-1.0
-0.99
-0.995
-1.005
-1.01
-1.025
-1.05
-1.065
-1.09
-1.11
-1.12
-1.115
-1.1
-1.09
-1.095
-1.095
-1.105
-1.125
-1.14
-1.16
-1.17
-1.17
-1.18
-1.16
-1.155
-1.14
-1.135
-1.14
-1.135
-1.165
-1.17
-1.165
-1.17
-1.16
-1.16
-1.16
-1.15
-1.14
-1.15
-1.145
-1.15
-1.16
-1.18
-1.165
-1.165
-1.16
-1.17
-1.15
-1.145
-1.145
-1.14
-1.145
-1.14
-1.17
-1.175
-1.205
-1.205
-1.225
-1.215
-1.195
-1.185
-1.165
-1.15
-1.165
-1.175
-1.19
-1.2
-1.23
-1.215
-1.23
-1.215
-1.225
-1.205
-1.205
-1.195
-1.195
-1.205
-1.215
-1.215
-1.22
-1.225
-1.215
-1.215
-1.215
-1.2
-1.18
-1.185
-1.195
-1.2
-1.22
-1.225
-1.235
-1.23
-1.24
-1.23
-1.225
-1.205
-1.21
-1.2
-1.2
-1.205
-1.21
-1.215
-1.21
-1.205
-1.195
-1.185
-1.145
-1.12
-1.085
-1.065
-1.065
-1.07
-1.07
-1.07
-1.1
-1.075
-1.075
-1.07
-1.05
-1.035
-1.02
-0.995
-0.97
-0.95
-0.965
-0.97
-0.985
-1.02
-1.04
-1.055
-1.05
-1.055
-1.035
-1.03
-1.01
-1.035
-1.05
-1.07
-1.105
-1.115
-1.145
-1.17
-1.165
-1.195
-1.2
-1.215
-1.23
-1.215
-1.215
-1.205
-1.21
-1.2
-1.205
-1.205
-1.195
-1.17
-1.165
-1.165
-1.17
-1.165
-1.17
-1.175
-1.18
-1.17
-1.15
-1.085
-0.995
-0.84
-0.66
-0.48
-0.285
-0.08
0.105
0.29
0.445
0.555
0.575
0.47
0.18
-0.29
-0.83
-1.335
-1.68
-1.81
-1.765
-1.59
-1.365
-1.2
-1.07
-1.03
-1.03
-1.055
-1.095
-1.105
-1.12
-1.11
-1.095
-1.09
-1.085
-1.1
-1.11
-1.115
-1.11
-1.09
-1.07
-1.06
-1.065
-1.07
-1.08
-1.08
-1.085
-1.06
-1.05
-1.045
-1.03
-1.025
-1.015
-1.02
-1.0
-0.985
-1.0
-1.01
-1.02
-1.01
-1.015
-1.0
-0.98
-0.975
-0.945
-0.93
-0.92
-0.945
-0.94
-0.94
-0.945
-0.935
-0.935
-0.925
-0.9
-0.9
-0.9
-0.885
-0.895
-0.885
-0.87
-0.86
-0.85
-0.84
-0.84
-0.84
-0.84
-0.82
-0.81
-0.8
-0.79
-0.8
-0.795
-0.795
-0.805
-0.815
-0.835
-0.825
-0.82
-0.825
-0.82
-0.805
-0.815
-0.835
-0.855
-0.85
-0.85
-0.86
-0.865
-0.875
-0.875
-0.87
-0.86
-0.88
-0.88
-0.895
-0.91
-0.915
-0.935
-0.94
-0.98
-0.975
-0.955
-0.97
-0.97
-0.95
-0.965
-0.97
-0.98
-0.995
-0.99
-1.0
-1.01
-0.995
-0.975
-0.97
-0.95
-0.95
-0.94
-0.95
-0.97
-0.98
-0.975
-0.995
-0.995
-0.985
-0.965
-0.95
-0.945
-0.935
-0.955
-0.935
-0.945
-0.95
-0.96
-0.98
-1.0
-0.975
-0.97
-0.955
-0.96
-0.96
-0.98
-0.97
-0.98
-0.985
-0.985
-0.995
-0.99
-1.005
-0.99
-0.985
-0.97
-0.965
-0.965
-0.98
-1.01
-1.01
-1.02
-1.025
-1.035
-1.03
-1.015
-1.0
-0.995
-0.995
-0.99
-1.005
-1.02
-1.05
-1.06
-1.04
-1.055
-1.05
-1.015
-1.0
-1.0
-0.985
-0.985
-0.995
-0.995
-1.0
-1.025
-1.025
-1.035
-1.03
-1.025
-1.015
-0.995
-0.985
-0.98
-0.975
-0.98
-0.935
-0.91
-0.9
-0.905
-0.885
-0.885
-0.87
-0.88
-0.86
-0.845
-0.855
-0.845
-0.845
-0.85
-0.86
-0.835
-0.82
-0.8
-0.805
-0.805
-0.8
-0.83
-0.855
-0.87
-0.89
-0.915
-0.92
-0.92
-0.92
-0.905
-0.935
-0.935
-0.955
-0.98
-1.01
-1.06
-1.085
-1.105
-1.11
-1.13
-1.115
-1.1
-1.07
-1.065
-1.065
-1.055
-1.05
-1.07
-1.08
-1.085
-1.085
-1.085
-1.1
-1.095
-1.085
-1.055
-0.985
-0.89
-0.74
-0.55
-0.345
-0.095
0.15
0.38
0.57
0.68
0.645
0.43
0.015
-0.53
-1.11
-1.54
-1.77
-1.785
-1.645
-1.415
-1.185
-1.025
-0.96
-0.945
-0.975
-1.025
-1.06
-1.075
-1.095
-1.1
-1.085
-1.085
-1.09
-1.065
-1.06
-1.04
-1.025
-1.035
-1.025
-1.035
-1.03
-1.05
-1.05
-1.035
-1.025
-1.015
-1.02
-1.015
-0.99
-0.985
-0.995
-1.015
-1.03
-1.03
-1.015
-1.0
-0.985
-0.96
-0.95
-0.94
-0.935
-0.94
-0.96
-0.965
-1.005
-0.995
-0.99
-0.98
-0.955
-0.93
-0.91
-0.9
-0.875
-0.855
-0.86
-0.865
-0.88
-0.88
-0.88
-0.87
-0.86
-0.87
-0.855
-0.84
-0.815
-0.81
-0.81
-0.825
-0.825
-0.835
-0.855
-0.85
-0.845
-0.85
-0.835
-0.855
-0.845
-0.89
-0.87
-0.885
-0.89
-0.91
-0.93
-0.925
-0.925
-0.93
-0.935
-0.94
-0.935
-0.945
-0.96
-0.98
-0.995
-1.025
-1.02
-1.04
-1.045
-1.03
-1.025
-1.025
-1.025
-1.015
-1.035
-1.04
-1.05
-1.07
-1.06
-1.065
-1.055
-1.06
-1.05
-1.055
-1.055
-1.03
-1.035
-1.06
-1.075
-1.06
-1.06
-1.055
-1.075
-1.07
-1.045
-1.05
-1.05
-1.05
-1.065
-1.06
-1.055
-1.07
-1.1
-1.085
-1.09
-1.085
-1.07
-1.075
-1.07
-1.08
-1.07
-1.085
-1.09
-1.115
-1.115
-1.115
-1.115
-1.12
-1.1
-1.11
-1.1
-1.085
-1.105
-1.1
-1.13
-1.135
-1.16
-1.17
-1.155
-1.145
-1.14
-1.115
-1.09
-1.09
-1.105
-1.125
-1.135
-1.145
-1.145
-1.145
-1.16
-1.15
-1.145
-1.145
-1.135
-1.125
-1.145
-1.135
-1.145
-1.16
-1.15
-1.15
-1.14
-1.135
-1.115
-1.095
-1.09
-1.09
-1.085
-1.08
-1.06
-1.065
-1.06
-1.035
-1.02
-1.0
-1.0
-0.995
-0.98
-0.98
-0.985
-0.98
-0.96
-0.955
-0.92
-0.945
-0.95
-0.96
-0.965
-0.975
-0.98
-0.99
-1.015
-1.03
-1.045
-1.055
-1.065
-1.075
-1.1
-1.125
-1.14
-1.15
-1.185
-1.19
-1.19
-1.195
-1.215
-1.22
-1.22
-1.225
-1.225
-1.22
-1.215
-1.21
-1.2
-1.205
-1.205
-1.205
-1.21
-1.205
-1.195
-1.155
-1.095
-1.0
-0.865
-0.69
-0.49
-0.275
-0.04
0.185
0.39
0.47
0.44
0.145
-0.325
-0.925
-1.445
-1.79
-1.9
-1.835
-1.63
-1.415
-1.245
-1.15
-1.12
-1.14
-1.17
-1.195
-1.22
-1.22
-1.22
-1.205
-1.19
-1.215
-1.195
-1.2
-1.205
-1.2
-1.19
-1.19
-1.175
-1.16
-1.155
-1.14
-1.145
-1.14
-1.14
-1.145
-1.145
-1.135
-1.125
-1.13
-1.125
-1.095
-1.075
-1.09
-1.07
-1.08
-1.075
-1.07
-1.075
-1.06
-1.05
-1.02
-1.015
-0.995
-0.965
-0.965
-0.965
-0.97
-0.975
-0.97
-0.97
-0.96
-0.945
-0.94
-0.925
-0.895
-0.88
-0.855
-0.87
-0.875
-0.89
-0.89
-0.9
-0.89
-0.905
-0.895
-0.88
-0.88
-0.86
-0.86
-0.865
-0.88
-0.905
-0.915
-0.92
-0.93
-0.93
-0.925
-0.925
-0.945
-0.955
-0.955
-0.96
-0.965
-0.975
-0.98
-0.99
-1.005
-1.015
-1.02
-1.015
-1.02
-1.01
-1.015
-1.035
-1.045
-1.06
-1.06
-1.07
-1.07
-1.06
-1.03
-1.015
-1.025
-1.01
-1.015
-1.01
-1.03
-1.04
-1.06
-1.055
-1.04
-1.055
-1.05
-1.035
-1.03
-1.01
-1.01
-1.025
-1.02
-1.025
-1.02
-1.03
-1.03
-1.035
-1.03
-1.04
-1.035
-1.025
-1.025
-1.03
-1.02
-1.035
-1.05
-1.045
-1.055
-1.06
-1.045
-1.035
-1.045
-1.045
-1.05
-1.05
-1.055
-1.06
-1.07
-1.07
-1.08
-1.085
-1.07
-1.075
-1.06
-1.05
-1.06
-1.075
-1.06
-1.085
-1.085
-1.095
-1.1
-1.095
-1.105
-1.09
-1.09
-1.09
-1.075
-1.075
-1.07
-1.09
-1.085
-1.085
-1.08
-1.075
-1.07
-1.065
-1.065
-1.055
-1.055
-1.06
-1.08
-1.08
-1.095
-1.09
-1.07
-1.055
-1.035
-0.99
-0.95
-0.935
-0.92
-0.93
-0.93
-0.94
-0.95
-0.95
-0.945
-0.945
-0.94
-0.915
-0.895
-0.865
-0.845
-0.835
-0.83
-0.845
-0.87
-0.885
-0.905
-0.91
-0.93
-0.925
-0.92
-0.925
-0.935
-0.935
-0.945
-0.99
-1.01
-1.05
-1.09
-1.1
-1.1
-1.11
-1.125
-1.11
-1.105
-1.115
-1.115
-1.1
-1.105
-1.11
-1.115
-1.12
-1.13
-1.11
-1.12
-1.075
-1.07
-1.08
-1.07
-1.065
-1.05
-0.995
-0.89
-0.755
-0.585
-0.38
-0.16
0.08
0.305
0.49
0.615
0.645
0.55
0.315
-0.1
-0.605
-1.125
-1.52
-1.735
-1.75
-1.61
-1.41
-1.205
-1.06
-0.99
-0.98
-1.015
-1.045
-1.07
-1.07
-1.065
-1.03
-1.02
-1.015
-1.02
-1.05
-1.065
-1.07
-1.085
-1.06
-1.045
-1.01
-1.0
-0.99
-0.99
-1.01
-1.01
-1.02
-1.005
-1.005
-1.01
-0.995
-0.98
-0.975
-0.96
-0.95
-0.945
-0.93
-0.94
-0.945
-0.935
-0.94
-0.94
-0.915
-0.91
-0.9
-0.885
-0.87
-0.855
-0.85
-0.85
-0.845
-0.855
-0.83
-0.83
-0.8
-0.795
-0.79
-0.78
-0.785
-0.77
-0.76
-0.765
-0.765
-0.77
-0.765
-0.775
-0.775
-0.775
-0.755
-0.74
-0.72
-0.73
-0.735
-0.74
-0.755
-0.78
-0.795
-0.805
-0.835
-0.815
-0.82
-0.8
-0.8
-0.8
-0.81
-0.815
-0.82
-0.835
-0.855
-0.88
-0.89
-0.88
-0.895
-0.9
-0.895
-0.895
-0.905
-0.905
-0.905
-0.915
-0.94
-0.945
-0.945
-0.94
-0.935
-0.93
-0.92
-0.915
-0.91
-0.905
-0.92
-0.95
-0.93
-0.935
-0.95
-0.94
-0.93
-0.915
-0.905
-0.905
-0.9
-0.9
-0.905
-0.925
-0.915
-0.925
-0.945
-0.935
-0.935
-0.93
-0.92
-0.91
-0.925
-0.935
-0.965
-0.975
-0.985
-0.98
-1.005
-1.0
-0.995
-0.975
-0.955
-0.96
-0.96
-0.965
-0.99
-0.99
-0.985
-1.015
-1.015
-1.005
-1.01
-0.985
-0.97
-0.985
-0.985
-0.995
-1.005
-1.005
-1.02
-1.03
-1.035
-1.015
-1.005
-0.995
-1.0
-1.0
-1.005
-1.005
-1.015
-1.03
-1.03
-1.045
-1.05
-1.035
-1.025
-1.02
-0.99
-0.995
-0.985
-0.99
-1.01
-1.02
-1.015
-1.01
-0.995
-0.97
-0.945
-0.91
-0.9
-0.875
-0.885
-0.89
-0.88
-0.905
-0.895
-0.895
-0.885
-0.855
-0.84
-0.82
-0.78
-0.78
-0.77
-0.78
-0.805
-0.84
-0.86
-0.89
-0.92
-0.915
-0.91
-0.905
-0.9
-0.905
-0.92
-0.96
-0.98
-1.03
-1.06
-1.085
-1.095
-1.11
-1.1
-1.09
-1.07
-1.065
-1.065
-1.075
-1.07
-1.1
-1.1
-1.12
-1.115
-1.115
-1.1
-1.095
-1.08
-1.08
-1.08
-1.07
-1.03
-0.95
-0.825
-0.68
-0.535
-0.35
-0.155
0.055
0.285
0.48
0.58
0.57
0.345
-0.085
-0.615
-1.175
-1.59
-1.785
-1.75
-1.595
-1.37
-1.175
-1.045
-0.97
-0.98
-1.005
-1.045
-1.09
-1.095
-1.11
-1.09
-1.065
-1.055
-1.055
-1.05
-1.045
-1.045
-1.06
-1.045
-1.05
-1.06
-1.025
-1.025
-1.015
-0.995
-0.995
-1.01
-1.02
-1.03
-1.03
-1.04
-1.03
-1.02
-1.0
-0.975
-0.965
-0.965
-0.965
-0.98
-0.975
-0.975
-0.975
-0.98
-0.98
-0.97
-0.96
-0.935
-0.905
-0.9
-0.9
-0.885
-0.9
-0.905
-0.9
-0.88
-0.895
-0.875
-0.86
-0.84
-0.84
-0.835
-0.83
-0.83
-0.83
-0.84
-0.845
-0.835
-0.845
-0.85
-0.825
-0.815
-0.82
-0.815
-0.82
-0.835
-0.85
-0.87
-0.875
-0.885
-0.885
-0.89
-0.9
-0.89
-0.9
-0.89
-0.875
-0.895
-0.9
-0.915
-0.945
-0.965
-1.0
-1.015
-1.01
-1.0
-0.98
-0.965
-0.98
-0.99
-0.995
-1.01
-1.035
-1.03
-1.04
-1.04
-1.04
-1.025
-1.015
-1.015
-1.0
-1.01
-1.005
-1.02
-1.03
-1.025
-1.03
-1.05
-1.03
-1.025
-1.005
-1.0
-1.0
-1.0
-1.0
-1.0
-0.99
-1.005
-1.025
-1.025
-1.015
-0.98
-0.945
-0.91
-0.875
-0.845
-0.79
-0.75
-0.7
-0.64
-0.6
-0.55
-0.485
-0.43
-0.365
-0.31
-0.24
-0.165
-0.07
0.03
0.14
0.265
0.4
0.555
0.715
0.885
1.055
1.23
1.395
1.56
1.675
1.77
1.815
1.845
1.895
1.92
1.95
1.94
1.92
1.79
1.505
1.05
0.475
-0.145
-0.665
-1.035
-1.24
-1.33
-1.355
-1.35
-1.355
-1.375
-1.405
-1.455
-1.485
-1.505
-1.515
-1.51
-1.51
-1.505
-1.5
-1.49
-1.47
-1.445
-1.455
-1.48
-1.515
-1.56
-1.575
-1.61
-1.62
-1.625
-1.64
-1.655
-1.65
-1.665
-1.645
-1.66
-1.68
-1.7
-1.73
-1.765
-1.78
-1.805
-1.82
-1.825
-1.84
-1.845
-1.85
-1.895
-1.915
-1.95
-1.985
-1.995
-2.02
-2.03
-2.04
-2.04
-2.055
-2.07
-2.07
-2.08
-2.065
-2.08
-2.08
-2.085
-2.085
-2.085
-2.045
-2.035
-2.015
-1.965
-1.945
-1.93
-1.905
-1.875
-1.865
-1.835
-1.805
-1.785
-1.73
-1.675
-1.63
-1.58
-1.535
-1.505
-1.475
-1.45
-1.415
-1.395
-1.37
-1.34
-1.315
-1.28
-1.265
-1.25
-1.235
-1.23
-1.215
-1.215
-1.225
-1.21
-1.23
-1.225
-1.22
-1.235
-1.215
-1.2
-1.195
-1.195
-1.2
-1.2
-1.2
-1.215
-1.22
-1.21
-1.2
-1.2
-1.195
-1.18
-1.19
-1.2
-1.19
-1.2
-1.205
-1.215
-1.22
-1.215
-1.215
-1.225
-1.215
-1.205
-1.2
-1.185
-1.2
-1.2
-1.21
-1.23
-1.215
-1.22
-1.215
-1.215
-1.215
-1.2
-1.185
-1.175
-1.19
-1.195
-1.2
-1.19
-1.195
-1.21
-1.21
-1.195
-1.19
-1.18
-1.175
-1.175
-1.18
-1.18
-1.195
-1.195
-1.195
-1.185
-1.19
-1.18
-1.175
-1.17
-1.15
-1.155
-1.145
-1.155
-1.165
-1.16
-1.17
-1.165
-1.175
-1.16
-1.155
-1.155
-1.145
-1.145
-1.145
-1.135
-1.145
-1.155
-1.145
-1.16
-1.14
-1.135
-1.13
-1.12
-1.13
-1.125
-1.11
-1.14
-1.15
-1.16
-1.15
-1.155
-1.145
-1.125
-1.12
-1.095
-1.105
-1.1
-1.11
-1.12
-1.115
-1.13
-1.135
-1.125
-1.115
-1.11
-1.105
-1.09
-1.09
-1.08
-1.085
-1.095
-1.115
-1.115
-1.125
-1.12
-1.12
-1.12
-1.105
-1.095
-1.08
-1.085
-1.075
-1.09
-1.095
-1.115
-1.125
-1.12
-1.12
-1.095
-1.09
-1.08
-1.065
-1.07
-1.07
-1.075
-1.075
-1.085
-1.105
-1.09
-1.095
-1.075
-1.065
-1.065
-1.06
-1.07
-1.065
-1.085
-1.09
-1.1
-1.1
-1.1
-1.1
-1.1
-1.09
-1.07
-1.065
-1.055
-1.06
-1.055
-1.075
-1.085
-1.09
-1.08
-1.07
-1.07
-1.065
-1.05
-1.05
-1.045
-1.05
-1.05
-1.05
-1.05
-1.055
-1.05
-1.025
-0.995
-0.97
-0.95
-0.915
-0.91
-0.93
-0.925
-0.935
-0.93
-0.935
-0.93
-0.925
-0.89
-0.875
-0.845
-0.83
-0.82
-0.825
-0.82
-0.835
-0.85
-0.88
-0.895
-0.9
-0.9
-0.895
-0.895
-0.87
-0.875
-0.865
-0.88
-0.905
-0.945
-0.985
-1.015
-1.035
-1.045
-1.06
-1.065
-1.06
-1.07
-1.07
-1.055
-1.04
-1.055
-1.055
-1.075
-1.045
-1.055
-1.045
-1.005
-1.0
-1.0
-1.005
-1.01
-1.0
-0.965
-0.865
-0.73
-0.535
-0.33
-0.085
0.14
0.385
0.59
0.72
0.775
0.745
0.565
0.21
-0.305
-0.87
-1.33
-1.605
-1.645
-1.52
-1.32
-1.125
-0.98
-0.91
-0.905
-0.925
-0.98
-1.02
-1.02
-1.015
-1.005
-0.985
-0.995
-0.99
-0.995
-1.02
-1.015
-1.01
-1.025
-1.01
-0.97
-0.965
-0.955
-0.95
-0.945
-0.94
-0.95
-0.955
-0.96
-0.94
-0.955
-0.945
-0.93
-0.93
-0.9
-0.87
-0.86
-0.865
-0.87
-0.89
-0.91
-0.92
-0.92
-0.905
-0.88
-0.855
-0.84
-0.82
-0.825
-0.82
-0.83
-0.835
-0.835
-0.83
-0.82
-0.81
-0.795
-0.785
-0.775
-0.745
-0.725
-0.73
-0.72
-0.72
-0.72
-0.73
-0.715
-0.725
-0.71
-0.69
-0.67
-0.645
-0.645
-0.65
-0.66
-0.655
-0.645
-0.66
-0.665
-0.66
-0.66
-0.655
-0.655
-0.65
-0.645
-0.655
-0.655
-0.66
-0.665
-0.675
-0.685
-0.695
-0.69
-0.695
-0.715
-0.72
-0.765
-0.765
-0.775
-0.805
-0.835
-0.84
-0.855
-0.825
-0.825
-0.825
-0.83
-0.835
-0.845
-0.855
-0.855
-0.87
-0.875
-0.88
-0.9
-0.9
-0.89
-0.88
-0.86
-0.845
-0.855
-0.865
-0.875
-0.9
-0.92
-0.915
-0.91
-0.895
-0.905
-0.9
-0.895
-0.9
-0.91
-0.915
-0.955
-0.945
-0.935
-0.935
-0.965
-0.98
-0.97
-0.98
-0.965
-0.965
-0.965
-0.97
-1.0
-1.005
-1.02
-1.035
-1.03
-1.03
-1.015
-1.015
-1.005
-1.0
-1.01
-1.01
-1.02
-1.035
-1.045
-1.05
-1.065
-1.07
-1.065
-1.06
-1.05
-1.04
-1.03
-1.045
-1.05
-1.07
-1.07
-1.07
-1.065
-1.075
-1.07
-1.075
-1.08
-1.08
-1.07
-1.075
-1.095
-1.075
-1.075
-1.065
-1.05
-1.045
-1.015
-1.005
-0.985
-0.99
-0.99
-0.98
-0.975
-0.985
-0.99
-1.005
-0.975
-0.965
-0.935
-0.905
-0.875
-0.86
-0.87
-0.895
-0.915
-0.925
-0.96
-0.99
-1.02
-1.035
-1.02
-1.005
-1.005
-1.0
-1.01
-1.035
-1.07
-1.1
-1.14
-1.185
-1.21
-1.215
-1.21
-1.195
-1.17
-1.165
-1.155
-1.165
-1.17
-1.18
-1.185
-1.195
-1.2
-1.195
-1.19
-1.205
-1.19
-1.165
-1.145
-1.12
-1.055
-0.94
-0.785
-0.59
-0.37
-0.14
0.1
0.3
0.485
0.615
0.66
0.575
0.305
-0.105
-0.665
-1.205
-1.64
-1.85
-1.865
-1.715
-1.505
-1.305
-1.16
-1.095
-1.085
-1.115
-1.145
-1.195
-1.2
-1.2
-1.185
-1.17
-1.155
-1.13
-1.145
-1.155
-1.155
-1.18
-1.17
-1.195
-1.18
-1.165
-1.155
-1.145
-1.14
-1.11
-1.115
-1.11
-1.105
-1.115
-1.125
-1.12
-1.14
-1.12
-1.1
-1.095
-1.08
-1.065
-1.065
-1.065
-1.065
-1.065
-1.04
-1.04
-1.035
-1.045
-1.04
-1.03
-1.03
-1.015
-1.01
-1.0
-1.0
-1.0
-1.005
-0.99
-0.995
-0.99
-0.97
-0.95
-0.935
-0.925
-0.93
-0.93
-0.935
-0.94
-0.94
-0.95
-0.945
-0.96
-0.945
-0.94
-0.955
-0.94
-0.97
-0.965
-0.985
-1.015
-1.015
-1.02
-1.03
-1.04
-1.035
-1.025
-1.03
-1.035
-1.04
-1.055
-1.065
-1.085
-1.105
-1.125
-1.12
-1.13
-1.15
-1.125
-1.14
-1.125
-1.13
-1.135
-1.165
-1.175
-1.195
-1.2
-1.205
-1.2
-1.21
-1.2
-1.2
-1.17
-1.155
-1.155
-1.175
-1.175
-1.195
-1.2
-1.21
-1.2
-1.2
-1.185
-1.17
-1.17
-1.165
-1.175
-1.19
-1.2
-1.22
-1.225
-1.22
-1.2
-1.185
-1.19
-1.185
-1.15
-1.16
-1.16
-1.19
-1.205
-1.21
-1.225
-1.225
-1.225
-1.225
-1.21
-1.2
-1.195
-1.195
-1.19
-1.21
-1.235
-1.245
-1.245
-1.255
-1.24
-1.225
-1.215
-1.21
-1.2
-1.195
-1.225
-1.22
-1.235
-1.235
-1.235
-1.24
-1.235
-1.225
-1.24
-1.215
-1.2
-1.2
-1.225
-1.225
-1.22
-1.23
-1.22
-1.23
-1.225
-1.23
-1.205
-1.205
-1.19
-1.175
-1.165
-1.14
-1.145
-1.13
-1.125
-1.12
-1.12
-1.105
-1.075
-1.08
-1.065
-1.06
-1.045
-1.035
-1.025
-1.005
-1.0
-1.005
-1.01
-1.0
-1.015
-1.015
-1.02
-1.025
-1.045
-1.065
-1.055
-1.08
-1.085
-1.11
-1.13
-1.14
-1.155
-1.165
-1.15
-1.165
-1.17
-1.195
-1.22
-1.235
-1.245
-1.24
-1.245
-1.215
-1.2
-1.195
-1.19
-1.19
-1.2
-1.21
-1.215
-1.225
-1.215
-1.205
-1.19
-1.175
-1.13
-1.075
-0.98
-0.88
-0.72
-0.55
-0.355
-0.15
0.045
0.27
0.42
0.49
0.425
0.17
-0.235
-0.775
-1.29
-1.675
-1.855
-1.85
-1.725
-1.54
-1.355
-1.225
-1.135
-1.105
-1.095
-1.12
-1.165
-1.16
-1.165
-1.16
-1.14
-1.145
-1.14
-1.14
-1.13
-1.125
-1.115
-1.11
-1.115
-1.12
-1.125
-1.13
-1.135
-1.12
-1.12
-1.1
-1.09
-1.08
-1.055
-1.055
-1.07
-1.065
-1.07
-1.07
-1.08
-1.07
-1.065
-1.055
-1.05
-1.025
-1.025
-1.01
-1.0
-1.01
-0.995
-1.0
-0.985
-1.01
-0.99
-0.99
-0.98
-0.95
-0.945
-0.925
-0.94
-0.93
-0.94
-0.94
-0.93
-0.92
-0.905
-0.89
-0.875
-0.85
-0.835
-0.83
-0.825
-0.825
-0.825
-0.83
-0.815
-0.83
-0.84
-0.845
-0.84
-0.835
-0.825
-0.81
-0.825
-0.835
-0.84
-0.865
-0.865
-0.88
-0.88
-0.88
-0.875
-0.87
-0.88
-0.89
-0.915
-0.92
-0.93
-0.93
-0.93
-0.935
-0.95
-0.97
-0.98
-0.98
-1.0
-0.99
-0.985
-1.005
-1.025
-1.035
-1.03
-1.035
-1.05
-1.02
-1.02
-1.015
-1.01
-1.015
-1.02
-1.025
-1.01
-1.025
-1.015
-1.025
-1.03
-1.025
-1.025
-1.02
-0.995
-1.01
-1.03
-1.03
-1.04
-1.01
-1.01
-1.005
-1.0
-0.995
-0.995
-1.005
-1.0
-0.985
-1.0
-0.985
-0.985
-0.995
-1.03
-1.035
-1.04
-1.03
-1.035
-1.025
-1.01
-1.02
-1.035
-1.055
-1.055
-1.06
-1.065
-1.08
-1.06
-1.07
-1.07
-1.065
-1.055
-1.05
-1.045
-1.06
-1.065
-1.07
-1.075
-1.085
-1.085
-1.065
-1.07
-1.045
-1.045
-1.065
-1.045
-1.075
-1.085
-1.085
-1.08
-1.075
-1.09
-1.065
-1.055
-1.05
-1.045
-1.015
-1.045
-1.035
-1.035
-1.05
-1.035
-1.02
-1.02
-0.995
-1.0
-0.955
-0.935
-0.92
-0.925
-0.925
-0.92
-0.92
-0.925
-0.925
-0.92
-0.885
-0.87
-0.85
-0.84
-0.845
-0.87
-0.905
-0.92
-0.96
-0.965
-0.98
-0.985
-0.995
-1.005
-1.01
-1.035
-1.045
-1.06
-1.085
-1.12
-1.145
-1.155
-1.18
-1.185
-1.195
-1.17
-1.155
-1.125
-1.13
-1.15
-1.15
-1.17
-1.17
-1.17
-1.165
-1.17
-1.145
-1.14
-1.125
-1.1
-1.06
-1.0
-0.92
-0.785
-0.65
-0.445
-0.24
-0.005
0.23
0.425
0.525
0.48
0.2
-0.27
-0.86
-1.365
-1.725
-1.845
-1.77
-1.585
-1.36
-1.185
-1.09
-1.045
-1.065
-1.105
-1.145
-1.175
-1.185
-1.195
-1.185
-1.17
-1.16
-1.155
-1.16
-1.155
-1.17
-1.175
-1.175
-1.16
-1.145
-1.125
-1.115
-1.105
-1.11
-1.115
-1.12
-1.1
-1.1
-1.09
-1.11
-1.105
-1.115
-1.12
-1.12
-1.11
-1.1
-1.065
-1.075
-1.06
-1.055
-1.04
-1.045
-1.04
-1.055
-1.06
-1.055
-1.05
-1.04
-1.025
-1.005
-0.995
-0.99
-0.995
-0.975
-0.965
-0.97
-0.965
-0.955
-0.945
-0.935
-0.94
-0.945
-0.92
-0.925
-0.945
-0.95
-0.95
-0.945
-0.955
-0.955
-0.945
-0.95
-0.935
-0.94
-0.925
-0.95
-0.95
-0.965
-0.96
-0.985
-0.995
-1.0
-1.01
-1.02
-1.01
-1.005
-1.0
-1.0
-1.015
-1.035
-1.055
-1.07
-1.08
-1.11
-1.12
-1.115
-1.12
-1.135
-1.13
-1.125
-1.13
-1.145
-1.155
-1.155
-1.17
-1.185
-1.19
-1.175
-1.175
-1.16
-1.15
-1.15
-1.155
-1.155
-1.175
-1.19
-1.18
-1.185
-1.19
-1.18
-1.17
-1.17
-1.15
-1.14
-1.17
-1.165
-1.18
-1.19
-1.185
-1.195
-1.19
-1.175
-1.155
-1.16
-1.15
-1.175
-1.175
-1.185
-1.195
-1.22
-1.22
-1.225
-1.23
-1.215
-1.22
-1.21
-1.215
-1.205
-1.215
-1.23
-1.245
-1.255
-1.25
-1.245
-1.25
-1.25
-1.245
-1.26
-1.245
-1.255
-1.25
-1.245
-1.255
-1.26
-1.285
-1.285
-1.28
-1.28
-1.27
-1.245
-1.225
-1.235
-1.24
-1.245
-1.26
-1.275
-1.26
-1.27
-1.275
-1.26
-1.255
-1.27
-1.255
-1.24
-1.24
-1.25
-1.25
-1.24
-1.22
-1.215
-1.2
-1.18
-1.15
-1.135
-1.125
-1.12
-1.135
-1.14
-1.145
-1.145
-1.125
-1.11
-1.095
-1.09
-1.07
-1.08
-1.09
-1.11
-1.125
-1.15
-1.175
-1.17
-1.18
-1.2
-1.215
-1.22
-1.23
-1.25
-1.265
-1.265
-1.295
-1.3
-1.33
-1.35
-1.36
-1.385
-1.375
-1.385
-1.365
-1.355
-1.345
-1.335
-1.345
-1.365
-1.355
-1.365
-1.36
-1.365
-1.35
-1.32
-1.285
-1.265
-1.2
-1.115
-1.025
-0.88
-0.71
-0.52
-0.3
-0.06
0.15
0.3
0.335
0.165
-0.225
-0.765
-1.36
-1.795
-2.05
-2.065
-1.915
-1.715
-1.5
-1.355
-1.275
-1.275
-1.275
-1.29
-1.32
-1.35
-1.355
-1.36
-1.355
-1.365
-1.35
-1.34
-1.315
-1.32
-1.29
-1.3
-1.29
-1.29
-1.325
-1.33
-1.32
-1.325
-1.32
-1.3
-1.285
-1.275
-1.255
-1.245
-1.25
-1.245
-1.265
-1.275
-1.265
-1.26
-1.26
-1.235
-1.225
-1.205
-1.195
-1.18
-1.15
-1.14
-1.15
-1.155
-1.155
-1.175
-1.175
-1.145
-1.125
-1.115
-1.085
-1.05
-1.045
-1.03
-1.05
-1.035
-1.03
-1.04
-1.035
-1.025
-1.01
-1.015
-0.995
-1.0
-1.0
-0.98
-0.995
-1.005
-1.02
-1.035
-1.035
-1.045
-1.035
