Lead II
0.195
0.195
0.215
0.235
0.265
0.28
0.29
0.275
0.27
0.28
0.29
0.32
0.325
0.31
0.325
0.33
0.36
0.365
0.365
0.375
0.365
0.38
0.415
0.415
0.41
0.425
0.415
0.445
0.48
0.5
0.51
0.515
0.52
0.55
0.585
0.61
0.62
0.635
0.66
0.695
0.725
0.755
0.77
0.785
0.8
0.825
0.875
0.905
0.93
0.935
0.945
0.97
1.0
1.02
1.03
1.02
1.03
1.04
1.045
1.055
1.02
1.005
0.995
1.0
1.01
1.0
0.975
0.945
0.905
0.875
0.855
0.82
0.78
0.735
0.715
0.685
0.665
0.645
0.59
0.535
0.485
0.46
0.435
0.405
0.36
0.31
0.275
0.26
0.245
0.225
0.19
0.145
0.12
0.105
0.08
0.085
0.065
0.03
-0.015
-0.015
-0.025
-0.04
-0.055
-0.085
-0.09
-0.085
-0.085
-0.115
-0.13
-0.15
-0.16
-0.145
-0.135
-0.14
-0.155
-0.165
-0.175
-0.165
-0.17
-0.165
-0.17
-0.19
-0.21
-0.2
-0.2
-0.195
-0.21
-0.23
-0.22
-0.22
-0.21
-0.21
-0.23
-0.235
-0.235
-0.225
-0.225
-0.22
-0.225
-0.23
-0.24
-0.235
-0.23
-0.24
-0.23
-0.25
-0.265
-0.26
-0.25
-0.255
-0.255
-0.28
-0.285
-0.295
-0.28
-0.27
-0.285
-0.3
-0.31
-0.305
-0.295
-0.3
-0.305
-0.32
-0.325
-0.315
-0.31
-0.3
-0.31
-0.31
-0.32
-0.315
-0.3
-0.3
-0.305
-0.33
-0.335
-0.33
-0.315
-0.32
-0.325
-0.345
-0.345
-0.33
-0.32
-0.305
-0.305
-0.315
-0.32
-0.305
-0.29
-0.3
-0.305
-0.32
-0.335
-0.335
-0.315
-0.305
-0.315
-0.325
-0.325
-0.315
-0.3
-0.3
-0.305
-0.32
-0.33
-0.32
-0.3
-0.3
-0.31
-0.325
-0.325
-0.32
-0.285
-0.285
-0.29
-0.31
-0.3
-0.295
-0.27
-0.275
-0.28
-0.305
-0.3
-0.3
-0.295
-0.295
-0.305
-0.315
-0.33
-0.31
-0.29
-0.285
-0.295
-0.3
-0.315
-0.29
-0.265
-0.255
-0.25
-0.26
-0.26
-0.24
-0.21
-0.18
-0.16
-0.115
0.025
0.31
0.71
1.03
1.13
0.975
0.8
0.69
0.65
0.615
0.535
0.445
0.39
0.325
0.27
0.2
0.125
0.025
-0.06
-0.145
-0.24
-0.35
-0.47
-0.615
-0.76
-0.92
-1.065
-1.21
-1.345
-1.47
-1.585
-1.66
-1.725
-1.81
-1.89
-1.97
-2.015
-2.03
-2.03
-2.065
-2.08
-2.07
-2.055
-2.02
-1.975
-1.95
-1.885
-1.8
-1.72
-1.58
-1.435
-1.305
-1.19
-1.115
-1.03
-0.99
-0.925
-0.875
-0.805
-0.76
-0.71
-0.62
-0.545
-0.48
-0.435
-0.365
-0.31
-0.225
-0.125
-0.06
-0.01
0.005
0.035
0.07
0.11
0.14
0.145
0.135
0.155
0.165
0.2
0.205
0.19
0.18
0.175
0.205
0.21
0.26
0.25
0.25
0.245
0.26
0.29
0.31
0.305
0.305
0.31
0.33
0.35
0.365
0.365
0.355
0.365
0.4
0.425
0.435
0.44
0.445
0.455
0.465
0.505
0.52
0.505
0.52
0.535
0.555
0.585
0.605
0.635
0.645
0.655
0.68
0.725
0.76
0.76
0.78
0.79
0.835
0.86
0.875
0.89
0.885
0.89
0.92
0.95
0.94
0.955
0.945
0.935
0.955
0.965
0.975
0.97
0.965
0.95
0.95
0.94
0.925
0.895
0.85
0.83
0.81
0.785
0.74
0.705
0.655
0.615
0.6
0.58
0.535
0.495
0.44
0.4
0.365
0.345
0.31
0.28
0.225
0.2
0.18
0.165
0.15
0.125
0.085
0.04
0.045
0.035
0.025
-0.01
-0.045
-0.06
-0.065
-0.09
-0.09
-0.1
-0.13
-0.14
-0.14
-0.13
-0.14
-0.145
-0.16
-0.16
-0.165
-0.15
-0.155
-0.175
-0.175
-0.185
-0.165
-0.145
-0.145
-0.185
-0.2
-0.215
-0.215
-0.195
-0.195
-0.205
-0.225
-0.235
-0.23
-0.235
-0.215
-0.22
-0.23
-0.24
-0.24
-0.23
-0.225
-0.225
-0.24
-0.26
-0.245
-0.235
-0.225
-0.245
-0.265
-0.265
-0.265
-0.255
-0.25
-0.26
-0.28
-0.285
-0.29
-0.27
-0.275
-0.285
-0.3
-0.305
-0.28
-0.29
-0.285
-0.275
-0.31
-0.315
-0.3
-0.275
-0.285
-0.285
-0.31
-0.32
-0.305
-0.285
-0.28
-0.305
-0.32
-0.345
-0.335
-0.31
-0.305
-0.3
-0.325
-0.305
-0.3
-0.29
-0.295
-0.305
-0.32
-0.325
-0.305
-0.3
-0.315
-0.325
-0.35
-0.36
-0.34
-0.32
-0.32
-0.33
-0.335
-0.34
-0.34
-0.33
-0.32
-0.325
-0.33
-0.345
-0.335
-0.32
-0.31
-0.32
-0.32
-0.33
-0.32
-0.305
-0.3
-0.315
-0.34
-0.36
-0.35
-0.33
-0.34
-0.34
-0.365
-0.365
-0.36
-0.33
-0.33
-0.335
-0.335
-0.34
-0.325
-0.3
-0.3
-0.315
-0.335
-0.35
-0.325
-0.3
-0.285
-0.265
-0.24
-0.17
0.0
0.325
0.775
1.07
1.07
0.87
0.67
0.585
0.555
0.48
0.385
0.31
0.23
0.175
0.11
0.005
-0.085
-0.2
-0.295
-0.405
-0.525
-0.675
-0.835
-1.0
-1.16
-1.3
-1.43
-1.57
-1.68
-1.78
-1.83
-1.89
-1.94
-1.99
-2.025
-2.02
-1.97
-1.905
-1.825
-1.75
-1.68
-1.585
-1.455
-1.3
-1.135
-0.995
-0.89
-0.81
-0.745
-0.65
-0.545
-0.45
-0.345
-0.26
-0.2
-0.15
-0.13
-0.125
-0.12
-0.105
-0.085
-0.045
-0.02
-0.005
-0.015
-0.015
0.02
0.015
0.02
0.02
0.0
0.02
0.045
0.045
0.055
0.055
0.055
0.055
0.075
0.085
0.085
0.09
0.1
0.1
0.135
0.15
0.17
0.165
0.165
0.185
0.18
0.195
0.21
0.22
0.22
0.22
0.25
0.295
0.305
0.335
0.335
0.335
0.36
0.405
0.425
0.425
0.45
0.46
0.49
0.54
0.57
0.59
0.585
0.58
0.6
0.635
0.645
0.66
0.67
0.66
0.69
0.7
0.7
0.715
0.705
0.71
0.71
0.71
0.68
0.67
0.625
0.61
0.6
0.565
0.54
0.48
0.44
0.4
0.365
0.335
0.3
0.25
0.195
0.14
0.105
0.055
0.025
-0.005
-0.04
-0.08
-0.105
-0.1
-0.105
-0.135
-0.17
-0.21
-0.21
-0.215
-0.22
-0.25
-0.275
-0.29
-0.285
-0.27
-0.275
-0.295
-0.325
-0.33
-0.31
-0.275
-0.295
-0.285
-0.305
-0.31
-0.3
-0.28
-0.275
-0.27
-0.285
-0.29
-0.29
-0.285
-0.29
-0.29
-0.29
-0.305
-0.29
-0.29
-0.3
-0.315
-0.325
-0.325
-0.325
-0.315
-0.31
-0.325
-0.345
-0.345
-0.33
-0.32
-0.305
-0.33
-0.335
-0.355
-0.36
-0.325
-0.315
-0.33
-0.345
-0.365
-0.36
-0.355
-0.355
-0.355
-0.37
-0.36
-0.345
-0.33
-0.335
-0.35
-0.4
-0.395
-0.385
-0.375
-0.36
-0.365
-0.37
-0.375
-0.35
-0.34
-0.33
-0.34
-0.35
-0.365
-0.355
-0.35
-0.36
-0.385
-0.405
-0.415
-0.405
-0.385
-0.385
-0.38
-0.39
-0.395
-0.38
-0.38
-0.37
-0.39
-0.4
-0.405
-0.395
-0.39
-0.385
-0.395
-0.41
-0.405
-0.385
-0.375
-0.4
-0.38
-0.39
-0.395
-0.395
-0.4
-0.39
-0.4
-0.405
-0.415
-0.42
-0.395
-0.38
-0.39
-0.395
-0.415
-0.41
-0.395
-0.4
-0.395
-0.4
-0.395
-0.38
-0.36
-0.375
-0.385
-0.405
-0.415
-0.4
-0.385
-0.375
-0.37
-0.385
-0.39
-0.385
-0.375
-0.37
-0.37
-0.395
-0.375
-0.365
-0.35
-0.34
-0.325
-0.31
-0.28
-0.165
0.09
0.505
0.915
1.135
1.04
0.83
0.675
0.58
0.53
0.45
0.355
0.285
0.225
0.125
0.025
-0.085
-0.2
-0.31
-0.43
-0.58
-0.745
-0.925
-1.085
-1.26
-1.39
-1.53
-1.66
-1.795
-1.89
-1.975
-2.045
-2.1
-2.13
-2.205
-2.205
-2.21
-2.175
-2.14
-2.11
-2.075
-1.99
-1.905
-1.785
-1.665
-1.53
-1.415
-1.275
-1.145
-1.08
-1.035
-0.985
-0.945
-0.885
-0.8
-0.735
-0.68
-0.635
-0.595
-0.555
-0.495
-0.41
-0.335
-0.275
-0.22
-0.155
-0.095
-0.04
-0.025
-0.035
-0.03
0.0
0.025
0.045
0.05
0.035
0.035
0.035
0.05
0.075
0.08
0.075
0.085
0.105
0.135
0.18
0.19
0.185
0.165
0.165
0.185
0.19
0.2
0.22
0.225
0.26
0.295
0.34
0.365
0.385
0.395
0.415
0.44
0.475
0.495
0.505
0.515
0.54
0.57
0.615
0.63
0.655
0.68
0.695
0.73
0.765
0.785
0.795
0.785
0.805
0.85
0.885
0.905
0.915
0.92
0.915
0.93
0.945
0.94
0.93
0.915
0.905
0.905
0.91
0.895
0.875
0.85
0.81
0.795
0.775
0.75
0.695
0.64
0.605
0.555
0.55
0.515
0.44
0.38
0.325
0.285
0.265
0.21
0.17
0.115
0.085
0.065
0.035
-0.005
-0.05
-0.08
-0.09
-0.1
-0.08
-0.105
-0.125
-0.145
-0.18
-0.215
-0.225
-0.25
-0.265
-0.28
-0.295
-0.285
-0.28
-0.26
-0.29
-0.315
-0.325
-0.32
-0.31
-0.31
-0.3
-0.32
-0.345
-0.335
-0.32
-0.325
-0.33
-0.34
-0.355
-0.345
-0.315
-0.315
-0.32
-0.34
-0.36
-0.35
-0.35
-0.355
-0.36
-0.37
-0.385
-0.38
-0.355
-0.35
-0.355
-0.355
-0.36
-0.355
-0.35
-0.365
-0.385
-0.405
-0.42
-0.425
-0.395
-0.4
-0.41
-0.445
-0.45
-0.44
-0.45
-0.425
-0.43
-0.455
-0.46
-0.455
-0.455
-0.43
-0.445
-0.465
-0.465
-0.475
-0.45
-0.47
-0.47
-0.475
-0.46
-0.44
-0.415
-0.41
-0.435
-0.445
-0.46
-0.445
-0.45
-0.425
-0.44
-0.455
-0.45
-0.445
-0.43
-0.42
-0.41
-0.43
-0.445
-0.455
-0.445
-0.435
-0.45
-0.45
-0.455
-0.46
-0.445
-0.44
-0.44
-0.44
-0.445
-0.43
-0.395
-0.39
-0.39
-0.39
-0.395
-0.4
-0.4
-0.395
-0.415
-0.45
-0.44
-0.44
-0.43
-0.42
-0.415
-0.42
-0.43
-0.415
-0.37
-0.39
-0.38
-0.38
-0.385
-0.38
-0.335
-0.33
-0.335
-0.35
-0.34
-0.34
-0.315
-0.285
-0.28
-0.27
-0.215
-0.075
0.23
0.665
1.075
1.19
1.08
0.85
0.715
0.635
0.56
0.47
0.375
0.29
0.205
0.12
-0.015
-0.14
-0.28
-0.415
-0.55
-0.72
-0.885
-1.075
-1.235
-1.375
-1.49
-1.595
-1.72
-1.81
-1.89
-1.94
-1.965
-1.97
-2.005
-2.03
-2.035
-1.97
-1.93
-1.88
-1.84
-1.78
-1.68
-1.545
-1.4
-1.275
-1.16
-1.06
-0.99
-0.965
-0.91
-0.86
-0.815
-0.77
-0.72
-0.645
-0.555
-0.475
-0.43
-0.36
-0.29
-0.205
-0.14
-0.09
-0.045
-0.03
0.005
0.04
0.065
0.085
0.085
0.085
0.085
0.085
0.105
0.095
0.1
0.095
0.095
0.125
0.145
0.175
0.195
0.205
0.215
0.25
0.28
0.285
0.29
0.285
0.305
0.335
0.37
0.395
0.4
0.405
0.415
0.44
0.48
0.525
0.555
0.575
0.6
0.635
0.665
0.705
0.735
0.73
0.75
0.78
0.83
0.855
0.88
0.905
0.92
0.945
0.935
0.965
0.975
0.96
0.95
0.965
0.98
0.99
0.975
0.945
0.93
0.925
0.915
0.895
0.855
0.8
0.765
0.72
0.655
0.615
0.545
0.495
0.445
0.415
0.39
0.345
0.27
0.195
0.15
0.14
0.125
0.085
0.03
-0.055
-0.065
-0.085
-0.09
-0.115
-0.135
-0.15
-0.17
-0.19
-0.16
-0.19
-0.23
-0.255
-0.28
-0.285
-0.26
-0.285
-0.285
-0.295
-0.295
-0.3
-0.295
-0.305
-0.335
-0.34
-0.355
-0.33
-0.32
-0.335
-0.335
-0.375
-0.37
-0.36
-0.35
-0.355
-0.355
-0.355
-0.35
-0.345
-0.33
-0.33
-0.345
-0.35
-0.355
-0.355
-0.35
-0.34
-0.355
-0.37
-0.365
-0.35
-0.345
-0.355
-0.375
-0.405
-0.415
-0.41
-0.39
-0.39
-0.395
-0.415
-0.435
-0.445
-0.42
-0.42
-0.435
-0.445
-0.44
-0.43
-0.41
-0.415
-0.42
-0.415
-0.41
-0.405
-0.41
-0.42
-0.42
-0.43
-0.44
-0.43
-0.415
-0.4
-0.4
-0.415
-0.425
-0.43
-0.41
-0.415
-0.425
-0.445
-0.44
-0.43
-0.435
-0.415
-0.43
-0.44
-0.45
-0.44
-0.435
-0.435
-0.45
-0.465
-0.48
-0.475
-0.445
-0.435
-0.45
-0.46
-0.47
-0.47
-0.45
-0.44
-0.445
-0.445
-0.45
-0.445
-0.42
-0.41
-0.415
-0.425
-0.44
-0.415
-0.395
-0.395
-0.39
-0.42
-0.41
-0.405
-0.375
-0.38
-0.375
-0.385
-0.39
-0.385
-0.365
-0.355
-0.35
-0.345
-0.33
-0.3
-0.26
-0.195
0.005
0.34
0.81
1.195
1.28
1.09
0.835
0.645
0.56
0.495
0.415
0.325
0.24
0.115
0.0
-0.115
-0.22
-0.335
-0.48
-0.64
-0.8
-0.94
-1.085
-1.25
-1.39
-1.53
-1.62
-1.71
-1.77
-1.85
-1.91
-1.975
-2.02
-2.005
-2.0
-1.995
-1.99
-1.965
-1.935
-1.87
-1.78
-1.705
-1.605
-1.495
-1.37
-1.215
-1.085
-0.985
-0.93
-0.89
-0.835
-0.77
-0.695
-0.66
-0.61
-0.56
-0.49
-0.42
-0.335
-0.28
-0.22
-0.18
-0.14
-0.085
-0.045
-0.025
-0.02
-0.01
0.015
0.04
0.06
0.08
0.075
0.07
0.075
0.095
0.11
0.125
0.13
0.135
0.145
0.16
0.18
0.205
0.2
0.205
0.225
0.23
0.25
0.245
0.27
0.29
0.305
0.34
0.37
0.41
0.42
0.44
0.475
0.515
0.565
0.59
0.61
0.62
0.655
0.685
0.74
0.765
0.795
0.815
0.845
0.885
0.92
0.93
0.965
0.965
0.985
1.005
1.035
1.065
1.06
1.065
1.045
1.04
1.035
1.02
1.0
0.975
0.965
0.945
0.92
0.87
0.8
0.73
0.675
0.64
0.61
0.545
0.48
0.395
0.325
0.26
0.225
0.195
0.16
0.09
0.08
0.055
0.05
0.02
0.005
-0.03
-0.05
-0.07
-0.055
-0.085
-0.12
-0.165
-0.17
-0.165
-0.165
-0.17
-0.185
-0.215
-0.245
-0.235
-0.22
-0.225
-0.235
-0.245
-0.23
-0.24
-0.23
-0.235
-0.25
-0.255
-0.255
-0.255
-0.24
-0.245
-0.25
-0.26
-0.265
-0.26
-0.265
-0.27
-0.295
-0.295
-0.3
-0.285
-0.275
-0.29
-0.285
-0.32
-0.31
-0.295
-0.28
-0.275
-0.295
-0.32
-0.33
-0.325
-0.315
-0.305
-0.315
-0.325
-0.34
-0.33
-0.32
-0.315
-0.325
-0.36
-0.37
-0.37
-0.34
-0.34
-0.36
-0.375
-0.39
-0.375
-0.365
-0.375
-0.37
-0.385
-0.39
-0.37
-0.35
-0.355
-0.36
-0.375
-0.375
-0.39
-0.375
-0.38
-0.38
-0.39
-0.41
-0.395
-0.375
-0.37
-0.37
-0.375
-0.37
-0.385
-0.39
-0.365
-0.375
-0.38
-0.375
-0.365
-0.355
-0.36
-0.38
-0.39
-0.395
-0.38
-0.355
-0.36
-0.375
-0.375
-0.39
-0.385
-0.375
-0.37
-0.39
-0.41
-0.405
-0.415
-0.395
-0.39
-0.395
-0.4
-0.405
-0.395
-0.375
-0.375
-0.39
-0.41
-0.41
-0.38
-0.38
-0.37
-0.365
-0.36
-0.345
-0.32
-0.27
-0.225
-0.105
0.17
0.665
1.16
1.4
1.255
0.97
0.745
0.655
0.6
0.53
0.425
0.315
0.195
0.08
-0.03
-0.11
-0.225
-0.335
-0.45
-0.595
-0.715
-0.84
-0.99
-1.145
-1.28
-1.405
-1.46
-1.505
-1.58
-1.655
-1.735
-1.79
-1.8
-1.805
-1.805
-1.81
-1.81
-1.795
-1.78
-1.74
-1.665
-1.585
-1.49
-1.385
-1.28
-1.175
-1.075
-1.03
-1.01
-0.97
-0.905
-0.83
-0.765
-0.695
-0.67
-0.61
-0.545
-0.46
-0.4
-0.34
-0.295
-0.27
-0.22
-0.165
-0.145
-0.135
-0.135
-0.12
-0.095
-0.07
-0.05
-0.05
-0.055
-0.035
-0.025
0.005
0.02
0.02
0.02
0.03
0.035
0.065
0.075
0.08
0.07
0.08
0.095
0.13
0.135
0.135
0.13
0.145
0.165
0.19
0.22
0.22
0.245
0.27
0.305
0.34
0.365
0.38
0.385
0.395
0.445
0.48
0.49
0.505
0.505
0.53
0.57
0.6
0.62
0.635
0.64
0.665
0.69
0.725
0.74
0.75
0.74
0.745
0.76
0.78
0.78
0.77
0.755
0.75
0.76
0.775
0.77
0.74
0.71
0.68
0.645
0.615
0.59
0.555
0.495
0.45
0.42
0.395
0.355
0.305
0.245
0.22
0.175
0.155
0.12
0.07
0.02
-0.015
-0.045
-0.045
-0.07
-0.105
-0.14
-0.16
-0.19
-0.2
-0.205
-0.24
-0.255
-0.27
-0.285
-0.3
-0.29
-0.325
-0.335
-0.35
-0.345
-0.33
-0.33
-0.35
-0.395
-0.405
-0.39
-0.375
-0.36
-0.37
-0.385
-0.385
-0.385
-0.37
-0.37
-0.385
-0.405
-0.405
-0.39
-0.385
-0.39
-0.38
-0.395
-0.4
-0.385
-0.39
-0.39
-0.395
-0.405
-0.41
-0.395
-0.385
-0.39
-0.405
-0.415
-0.435
-0.415
-0.415
-0.425
-0.435
-0.46
-0.46
-0.46
-0.45
-0.455
-0.455
-0.47
-0.5
-0.495
-0.48
-0.49
-0.495
-0.515
-0.515
-0.505
-0.48
-0.49
-0.495
-0.505
-0.51
-0.51
-0.48
-0.48
-0.5
-0.505
-0.49
-0.475
-0.47
-0.455
-0.45
-0.455
-0.47
-0.45
-0.445
-0.415
-0.435
-0.44
-0.455
-0.44
-0.43
-0.435
-0.445
-0.46
-0.45
-0.44
-0.42
-0.425
-0.435
-0.445
-0.465
-0.45
-0.44
-0.435
-0.455
-0.47
-0.475
-0.465
-0.475
-0.475
-0.49
-0.49
-0.5
-0.495
-0.47
-0.475
-0.465
-0.495
-0.475
-0.48
-0.455
-0.445
-0.47
-0.46
-0.465
-0.455
-0.42
-0.41
-0.415
-0.415
-0.42
-0.395
-0.38
-0.355
-0.34
-0.325
-0.32
-0.24
-0.08
0.205
0.63
1.04
1.23
1.165
0.915
0.715
0.6
0.54
0.46
0.375
0.295
0.195
0.095
-0.005
-0.11
-0.215
-0.31
-0.41
-0.545
-0.69
-0.825
-0.935
-1.055
-1.19
-1.31
-1.42
-1.5
-1.54
-1.59
-1.635
-1.69
-1.705
-1.71
-1.69
-1.65
-1.6
-1.565
-1.52
-1.46
-1.385
-1.305
-1.225
-1.14
-1.05
-0.96
-0.87
-0.79
-0.74
-0.69
-0.61
-0.53
-0.435
-0.34
-0.28
-0.235
-0.2
-0.195
-0.17
-0.145
-0.135
-0.125
-0.145
-0.135
-0.13
-0.115
-0.105
-0.105
-0.11
-0.115
-0.105
-0.09
-0.09
-0.1
-0.115
-0.105
-0.095
-0.08
-0.085
-0.095
-0.11
-0.11
-0.1
-0.07
-0.07
-0.075
-0.075
-0.06
-0.04
-0.005
0.015
0.005
0.0
0.02
0.025
0.06
0.07
0.08
0.07
0.09
0.115
0.14
0.16
0.155
0.16
0.17
0.205
0.25
0.265
0.265
0.26
0.275
0.315
0.345
0.37
0.375
0.38
0.4
0.425
0.46
0.465
0.47
0.46
0.48
0.49
0.525
0.535
0.515
0.495
0.5
0.5
0.51
0.5
0.48
0.435
0.41
0.41
0.4
0.38
0.33
0.295
0.25
0.225
0.195
0.17
0.13
0.085
0.045
0.015
0.02
-0.01
-0.04
-0.08
-0.125
-0.135
-0.15
-0.17
-0.19
-0.23
-0.235
-0.24
-0.255
-0.255
-0.285
-0.3
-0.315
-0.315
-0.31
-0.305
-0.32
-0.33
-0.335
-0.32
-0.315
-0.32
-0.335
-0.345
-0.355
-0.36
-0.345
-0.355
-0.36
-0.36
-0.37
-0.345
-0.34
-0.325
-0.34
-0.37
-0.355
-0.36
-0.35
-0.34
-0.36
-0.395
-0.395
-0.38
-0.36
-0.365
-0.36
-0.39
-0.395
-0.39
-0.375
-0.36
-0.37
-0.38
-0.385
-0.37
-0.355
-0.34
-0.335
-0.36
-0.365
-0.335
-0.35
-0.335
-0.35
-0.365
-0.36
-0.345
-0.33
-0.32
-0.325
-0.345
-0.35
-0.335
-0.33
-0.34
-0.355
-0.365
-0.375
-0.375
-0.36
-0.35
-0.37
-0.365
-0.37
-0.36
-0.34
-0.335
-0.34
-0.35
-0.375
-0.355
-0.36
-0.345
-0.355
-0.37
-0.38
-0.365
-0.35
-0.34
-0.355
-0.38
-0.4
-0.375
-0.37
-0.36
-0.375
-0.39
-0.37
-0.35
-0.33
-0.355
-0.345
-0.37
-0.365
-0.355
-0.34
-0.335
-0.34
-0.37
-0.365
-0.355
-0.33
-0.32
-0.335
-0.355
-0.38
-0.37
-0.355
-0.345
-0.36
-0.38
-0.38
-0.365
-0.35
-0.335
-0.34
-0.355
-0.34
-0.355
-0.33
-0.335
-0.34
-0.35
-0.345
-0.34
-0.33
-0.32
-0.34
-0.345
-0.35
-0.345
-0.32
-0.31
-0.305
-0.315
-0.33
-0.31
-0.295
-0.285
-0.27
-0.245
-0.22
-0.145
-0.065
0.03
0.16
0.355
0.765
1.33
1.88
2.205
2.26
2.155
2.02
1.895
1.75
1.515
1.205
0.86
0.465
0.125
-0.05
-0.1
-0.045
0.01
0.06
0.105
0.13
0.115
0.095
0.06
0.03
0.03
0.015
0.0
-0.03
-0.07
-0.1
-0.105
-0.1
-0.125
-0.155
-0.17
-0.195
-0.205
-0.21
-0.215
-0.25
-0.26
-0.28
-0.29
-0.28
-0.305
-0.325
-0.335
-0.345
-0.33
-0.325
-0.335
-0.34
-0.375
-0.385
-0.375
-0.385
-0.37
-0.385
-0.41
-0.43
-0.425
-0.425
-0.43
-0.465
-0.485
-0.485
-0.475
-0.46
-0.47
-0.485
-0.51
-0.525
-0.515
-0.495
-0.505
-0.525
-0.56
-0.57
-0.56
-0.56
-0.58
-0.585
-0.615
-0.635
-0.645
-0.64
-0.65
-0.69
-0.71
-0.73
-0.745
-0.74
-0.77
-0.8
-0.84
-0.85
-0.87
-0.875
-0.895
-0.92
-0.96
-0.975
-0.97
-0.955
-0.975
-0.995
-1.015
-1.015
-1.01
-0.985
-0.985
-0.985
-0.995
-0.99
-0.97
-0.93
-0.915
-0.91
-0.9
-0.875
-0.845
-0.805
-0.765
-0.76
-0.74
-0.715
-0.665
-0.625
-0.6
-0.585
-0.575
-0.565
-0.53
-0.485
-0.465
-0.46
-0.46
-0.45
-0.43
-0.4
-0.38
-0.38
-0.385
-0.38
-0.36
-0.33
-0.325
-0.325
-0.35
-0.345
-0.34
-0.315
-0.305
-0.305
-0.32
-0.315
-0.29
-0.27
-0.255
-0.26
-0.28
-0.26
-0.245
-0.23
-0.225
-0.23
-0.255
-0.245
-0.23
-0.22
-0.21
-0.22
-0.22
-0.22
-0.2
-0.195
-0.185
-0.165
-0.185
-0.19
-0.185
-0.16
-0.145
-0.155
-0.165
-0.17
-0.16
-0.15
-0.145
-0.16
-0.175
-0.165
-0.15
-0.145
-0.125
-0.135
-0.155
-0.155
-0.145
-0.14
-0.14
-0.14
-0.15
-0.15
-0.14
-0.12
-0.115
-0.13
-0.125
-0.13
-0.11
-0.1
-0.095
-0.105
-0.12
-0.12
-0.115
-0.115
-0.105
-0.11
-0.13
-0.145
-0.12
-0.115
-0.105
-0.115
-0.11
-0.11
-0.09
-0.075
-0.08
-0.08
-0.105
-0.09
-0.085
-0.06
-0.065
-0.07
-0.095
-0.085
-0.07
-0.045
-0.05
-0.05
-0.07
-0.065
-0.05
-0.04
-0.04
-0.03
-0.055
-0.05
-0.03
-0.01
-0.005
-0.01
-0.015
0.0
0.045
0.12
0.17
0.225
0.29
0.41
0.58
0.78
0.985
1.15
1.29
1.4
1.465
1.47
1.385
1.23
1.04
0.83
0.535
0.195
-0.105
-0.295
-0.37
-0.335
-0.27
-0.21
-0.165
-0.165
-0.15
-0.165
-0.14
-0.12
-0.135
-0.125
-0.16
-0.16
-0.145
-0.135
-0.135
-0.145
-0.155
-0.165
-0.16
-0.135
-0.135
-0.15
-0.16
-0.17
-0.16
-0.16
-0.155
-0.18
-0.195
-0.2
-0.185
-0.19
-0.155
-0.165
-0.18
-0.18
-0.165
-0.155
-0.15
-0.165
-0.2
-0.205
-0.2
-0.19
-0.18
-0.195
-0.2
-0.235
-0.22
-0.205
-0.21
-0.215
-0.225
-0.24
-0.235
-0.22
-0.23
-0.24
-0.265
-0.275
-0.265
-0.265
-0.27
-0.295
-0.32
-0.32
-0.335
-0.325
-0.335
-0.365
-0.4
-0.425
-0.425
-0.43
-0.43
-0.47
-0.5
-0.53
-0.53
-0.55
-0.555
-0.58
-0.605
-0.63
-0.615
-0.605
-0.605
-0.645
-0.655
-0.67
-0.665
-0.65
-0.625
-0.645
-0.625
-0.62
-0.585
-0.55
-0.525
-0.495
-0.48
-0.455
-0.415
-0.36
-0.335
-0.305
-0.285
-0.265
-0.23
-0.185
-0.165
-0.165
-0.16
-0.135
-0.12
-0.095
-0.08
-0.085
-0.08
-0.08
-0.06
-0.04
-0.025
-0.025
-0.035
-0.05
-0.025
-0.01
0.01
-0.01
-0.01
-0.005
0.005
0.04
0.04
0.035
0.02
0.025
0.035
0.05
0.06
0.065
0.055
0.055
0.065
0.09
0.095
0.095
0.08
0.075
0.075
0.085
0.11
0.095
0.08
0.085
0.085
0.105
0.1
0.09
0.065
0.075
0.09
0.105
0.11
0.1
0.085
0.08
0.1
0.09
0.085
0.09
0.06
0.06
0.075
0.11
0.115
0.11
0.105
0.09
0.115
0.115
0.145
0.13
0.125
0.115
0.11
0.13
0.135
0.12
0.09
0.09
0.105
0.115
0.125
0.135
0.125
0.125
0.14
0.14
0.145
0.14
0.12
0.12
0.13
0.15
0.15
0.125
0.115
0.12
0.12
0.145
0.15
0.135
0.125
0.115
0.105
0.13
0.135
0.13
0.115
0.125
0.135
0.15
0.155
0.155
0.12
0.13
0.135
0.15
0.155
0.14
0.125
0.12
0.145
0.155
0.16
0.15
0.135
0.14
0.13
0.16
0.16
0.15
0.135
0.115
0.125
0.14
0.15
0.15
0.13
0.135
0.16
0.175
0.19
0.175
0.16
0.16
0.18
0.185
0.205
0.195
0.175
0.17
0.18
0.195
0.185
0.195
0.17
0.17
0.18
0.205
0.21
0.2
0.185
0.18
0.195
0.21
0.215
0.205
0.2
0.185
0.205
0.215
0.215
0.21
0.2
0.195
0.205
0.215
0.235
0.225
0.22
0.21
0.23
0.255
0.255
0.255
0.27
0.305
0.405
0.61
0.99
1.455
1.795
1.835
1.63
1.395
1.255
1.175
1.08
0.995
0.895
0.815
0.74
0.64
0.535
0.455
0.375
0.31
0.24
0.13
0.01
-0.095
-0.225
-0.33
-0.47
-0.605
-0.715
-0.815
-0.875
-0.935
-0.985
-1.055
-1.13
-1.165
-1.19
-1.18
-1.175
-1.185
-1.18
-1.17
-1.15
-1.105
-1.045
-0.955
-0.865
-0.755
-0.645
-0.535
-0.475
-0.44
-0.425
-0.39
-0.335
-0.28
-0.205
-0.145
-0.1
-0.035
0.025
0.11
0.175
0.22
0.275
0.33
0.385
0.445
0.475
0.465
0.485
0.505
0.54
0.56
0.565
0.555
0.57
0.57
0.58
0.61
0.615
0.62
0.595
0.61
0.645
0.655
0.67
0.665
0.665
0.67
0.675
0.695
0.73
0.72
0.71
0.73
0.75
0.78
0.775
0.775
0.795
0.815
0.845
0.875
0.895
0.905
0.905
0.92
0.94
0.98
0.99
1.0
1.03
1.045
1.09
1.12
1.15
1.17
1.175
1.19
1.22
1.235
1.265
1.26
1.255
1.28
1.3
1.32
1.33
1.32
1.315
1.295
1.32
1.33
1.32
1.295
1.28
1.255
1.225
1.225
1.195
1.165
1.115
1.09
1.065
1.04
1.005
0.965
0.925
0.885
0.855
0.845
0.8
0.76
0.71
0.68
0.67
0.645
0.605
0.585
0.54
0.5
0.505
0.51
0.5
0.47
0.445
0.425
0.41
0.42
0.4
0.385
0.35
0.325
0.32
0.33
0.325
0.305
0.3
0.28
0.28
0.28
0.285
0.27
0.25
0.24
0.24
0.26
0.255
0.235
0.225
0.225
0.24
0.235
0.225
0.2
0.185
0.165
0.18
0.175
0.18
0.175
0.145
0.14
0.17
0.17
0.155
0.14
0.12
0.13
0.135
0.145
0.15
0.145
0.14
0.13
0.135
0.15
0.15
0.125
0.11
0.09
0.12
0.12
0.125
0.12
0.1
0.095
0.105
0.12
0.11
0.11
0.1
0.09
0.095
0.105
0.09
0.09
0.075
0.06
0.06
0.07
0.07
0.07
0.045
0.045
0.055
0.06
0.075
0.06
0.04
0.035
0.04
0.04
0.05
0.045
0.045
0.035
0.065
0.085
0.075
0.055
0.035
0.03
0.035
0.06
0.06
0.04
0.025
0.035
0.06
0.07
0.055
0.05
0.06
0.06
0.085
0.085
0.09
0.07
0.045
0.045
0.065
0.07
0.07
0.075
0.06
0.055
0.07
0.08
0.085
0.075
0.055
0.055
0.05
0.06
0.07
0.065
0.045
0.05
0.095
0.15
0.215
0.3
0.49
0.915
1.435
1.78
1.765
1.485
1.2
1.06
1.02
0.96
0.87
0.755
0.645
0.525
0.43
0.35
0.285
0.2
0.13
0.045
-0.02
-0.065
-0.085
-0.065
-0.045
-0.02
0.015
0.035
0.035
-0.005
-0.035
-0.055
-0.09
-0.145
-0.205
-0.275
-0.285
-0.235
-0.125
-0.01
0.095
0.135
0.15
0.15
0.185
0.205
0.21
0.215
0.205
0.185
0.195
0.195
0.195
0.19
0.165
0.16
0.155
0.135
0.155
0.145
0.13
0.115
0.135
0.13
0.145
0.125
0.105
0.105
0.105
0.12
0.105
0.1
0.085
0.08
0.07
0.085
0.09
0.09
0.09
0.08
0.09
0.1
0.105
0.1
0.1
0.1
0.13
0.14
0.155
0.14
0.13
0.14
0.14
0.17
0.17
0.16
0.145
0.15
0.15
0.165
0.165
0.165
0.14
0.12
0.12
0.135
0.125
0.115
0.08
0.055
0.07
0.055
0.055
0.015
0.005
-0.03
-0.02
-0.03
-0.05
-0.095
-0.135
-0.16
-0.18
-0.185
-0.205
-0.225
-0.245
-0.25
-0.225
-0.205
-0.205
-0.2
-0.2
-0.19
-0.17
-0.14
-0.135
-0.12
-0.13
-0.13
-0.1
-0.095
-0.07
-0.07
-0.075
-0.06
-0.045
-0.02
-0.02
-0.03
-0.035
-0.03
-0.01
0.0
0.0
0.0
-0.025
-0.01
0.015
0.03
0.055
0.045
0.045
0.035
0.045
0.055
0.065
0.05
0.04
0.03
0.045
0.04
0.045
0.04
0.03
0.035
0.055
0.065
0.065
0.05
0.04
0.035
0.055
0.065
0.08
0.07
0.065
0.055
0.07
0.08
0.075
0.06
0.065
0.05
0.055
0.07
0.07
0.04
0.04
0.05
0.055
0.07
0.065
0.065
0.06
0.06
0.075
0.09
0.09
0.09
0.08
0.075
0.085
0.09
0.085
0.07
0.05
0.055
0.07
0.085
0.08
0.07
0.075
0.05
0.05
0.065
0.065
0.055
0.05
0.055
0.065
0.085
0.085
0.075
0.06
0.045
0.07
0.08
0.08
0.075
0.07
0.07
0.08
0.08
0.085
0.07
0.065
0.05
0.07
0.075
0.09
0.085
0.075
0.07
0.08
0.085
0.08
0.095
0.075
0.07
0.07
0.07
0.06
0.035
0.025
0.05
0.07
0.085
0.105
0.095
0.075
0.08
0.085
0.1
0.1
0.085
0.075
0.08
0.11
0.125
0.115
0.12
0.11
0.11
0.12
0.135
0.155
0.16
0.15
0.19
0.28
0.475
0.87
1.375
1.725
1.735
1.5
1.25
1.115
1.06
0.97
0.865
0.755
0.67
0.575
0.455
0.34
0.22
0.1
0.005
-0.13
-0.27
-0.425
-0.575
-0.715
-0.84
-0.95
-1.04
-1.12
-1.21
-1.275
-1.305
-1.345
-1.37
-1.385
-1.375
-1.36
-1.295
-1.285
