Lead II
-0.21
-0.215
-0.225
-0.23
-0.24
-0.21
-0.205
-0.205
-0.235
-0.235
-0.24
-0.235
-0.24
-0.225
-0.23
-0.235
-0.23
-0.215
-0.2
-0.2
-0.22
-0.22
-0.205
-0.21
-0.195
-0.22
-0.215
-0.23
-0.215
-0.195
-0.205
-0.2
-0.215
-0.205
-0.195
-0.195
-0.175
-0.18
-0.195
-0.2
-0.175
-0.15
-0.13
-0.13
-0.16
-0.145
-0.16
-0.13
-0.12
-0.12
-0.115
-0.09
-0.07
-0.05
-0.04
-0.05
-0.06
-0.055
-0.06
-0.045
-0.05
-0.085
-0.11
-0.125
-0.115
-0.105
-0.105
-0.12
-0.15
-0.16
-0.16
-0.15
-0.15
-0.155
-0.175
-0.185
-0.185
-0.18
-0.175
-0.185
-0.195
-0.21
-0.195
-0.185
-0.18
-0.18
-0.19
-0.185
-0.175
-0.155
-0.155
-0.175
-0.175
-0.19
-0.16
-0.16
-0.18
-0.22
-0.23
-0.195
-0.095
0.045
0.21
0.415
0.675
0.945
1.225
1.46
1.65
1.695
1.505
1.155
0.755
0.36
0.08
-0.07
-0.13
-0.165
-0.19
-0.185
-0.175
-0.155
-0.145
-0.15
-0.155
-0.15
-0.16
-0.185
-0.195
-0.21
-0.205
-0.19
-0.205
-0.2
-0.23
-0.22
-0.185
-0.175
-0.165
-0.18
-0.185
-0.185
-0.18
-0.165
-0.17
-0.175
-0.195
-0.205
-0.195
-0.165
-0.165
-0.17
-0.17
-0.155
-0.135
-0.115
-0.105
-0.1
-0.115
-0.11
-0.1
-0.08
-0.07
-0.08
-0.095
-0.1
-0.065
-0.055
-0.03
-0.05
-0.03
-0.03
0.0
0.035
0.04
0.035
0.025
0.04
0.065
0.085
0.095
0.12
0.115
0.135
0.14
0.2
0.21
0.225
0.225
0.24
0.26
0.27
0.29
0.285
0.29
0.285
0.3
0.315
0.32
0.315
0.31
0.305
0.3
0.315
0.305
0.29
0.245
0.235
0.21
0.21
0.19
0.155
0.11
0.075
0.05
0.04
0.035
0.005
-0.035
-0.055
-0.075
-0.075
-0.065
-0.09
-0.11
-0.125
-0.125
-0.12
-0.12
-0.155
-0.165
-0.185
-0.17
-0.155
-0.145
-0.155
-0.16
-0.17
-0.145
-0.14
-0.13
-0.15
-0.15
-0.17
-0.16
-0.145
-0.13
-0.14
-0.155
-0.16
-0.16
-0.135
-0.135
-0.125
-0.145
-0.145
-0.145
-0.125
-0.13
-0.135
-0.145
-0.145
-0.15
-0.145
-0.14
-0.14
-0.155
-0.16
-0.135
-0.11
-0.1
-0.095
-0.095
-0.085
-0.07
-0.05
-0.05
-0.055
-0.06
-0.065
-0.06
-0.03
-0.01
-0.005
-0.015
-0.015
-0.025
0.0
0.01
0.0
-0.03
-0.04
-0.065
-0.055
-0.055
-0.08
-0.09
-0.115
-0.11
-0.105
-0.105
-0.115
-0.11
-0.065
-0.02
0.035
0.075
0.135
0.17
0.235
0.305
0.385
0.435
0.5
0.53
0.58
0.63
0.69
0.745
0.805
0.885
0.955
1.06
1.16
1.24
1.33
1.415
1.455
1.465
1.44
1.385
1.33
1.315
1.365
1.405
1.445
1.485
1.52
1.54
1.58
1.63
1.655
1.615
1.475
1.24
0.995
0.765
0.495
0.24
0.04
-0.11
-0.225
-0.3
-0.35
-0.375
-0.4
-0.42
-0.46
-0.465
-0.47
-0.47
-0.49
-0.51
-0.535
-0.54
-0.525
-0.55
-0.55
-0.57
-0.58
-0.58
-0.56
-0.555
-0.565
-0.59
-0.595
-0.6
-0.59
-0.595
-0.6
-0.615
-0.635
-0.63
-0.64
-0.635
-0.65
-0.665
-0.68
-0.675
-0.665
-0.66
-0.665
-0.69
-0.71
-0.705
-0.695
-0.69
-0.695
-0.725
-0.72
-0.715
-0.715
-0.705
-0.74
-0.735
-0.735
-0.72
-0.71
-0.685
-0.685
-0.695
-0.695
-0.69
-0.65
-0.655
-0.635
-0.655
-0.65
-0.635
-0.595
-0.56
-0.54
-0.53
-0.505
-0.485
-0.425
-0.4
-0.385
-0.365
-0.34
-0.32
-0.295
-0.265
-0.26
-0.27
-0.275
-0.265
-0.245
-0.235
-0.23
-0.24
-0.24
-0.23
-0.215
-0.215
-0.225
-0.255
-0.245
-0.24
-0.23
-0.245
-0.245
-0.27
-0.28
-0.275
-0.265
-0.255
-0.255
-0.26
-0.27
-0.255
-0.25
-0.25
-0.255
-0.265
-0.27
-0.275
-0.26
-0.26
-0.27
-0.28
-0.285
-0.285
-0.255
-0.255
-0.26
-0.26
-0.26
-0.265
-0.225
-0.21
-0.215
-0.21
-0.2
-0.175
-0.13
-0.09
-0.06
-0.02
0.025
0.115
0.2
0.265
0.32
0.395
0.49
0.575
0.675
0.735
0.79
0.86
0.9
0.965
1.035
1.12
1.185
1.225
1.235
1.24
1.21
1.17
1.135
1.08
1.045
1.02
0.985
0.96
0.945
0.94
0.965
1.045
1.13
1.165
1.125
1.04
0.915
0.745
0.53
0.31
0.08
-0.085
-0.2
-0.27
-0.315
-0.35
-0.395
-0.445
-0.47
-0.495
-0.51
-0.51
-0.535
-0.565
-0.585
-0.59
-0.595
-0.6
-0.61
-0.635
-0.65
-0.645
-0.645
-0.67
-0.68
-0.69
-0.705
-0.705
-0.71
-0.725
-0.74
-0.755
-0.755
-0.76
-0.735
-0.75
-0.735
-0.77
-0.785
-0.775
-0.765
-0.765
-0.765
-0.79
-0.79
-0.78
-0.77
-0.755
-0.755
-0.76
-0.755
-0.735
-0.71
-0.72
-0.71
-0.705
-0.69
-0.67
-0.655
-0.63
-0.62
-0.615
-0.605
-0.575
-0.535
-0.5
-0.48
-0.47
-0.46
-0.425
-0.415
-0.385
-0.375
-0.37
-0.375
-0.375
-0.355
-0.355
-0.35
-0.375
-0.375
-0.35
-0.355
-0.335
-0.33
-0.355
-0.37
-0.345
-0.345
-0.34
-0.35
-0.37
-0.38
-0.385
-0.375
-0.35
-0.355
-0.375
-0.385
-0.37
-0.345
-0.34
-0.35
-0.36
-0.375
-0.355
-0.355
-0.345
-0.355
-0.37
-0.365
-0.36
-0.34
-0.325
-0.33
-0.34
-0.345
-0.35
-0.345
-0.31
-0.32
-0.32
-0.34
-0.34
-0.315
-0.31
-0.32
-0.335
-0.34
-0.32
-0.3
-0.295
-0.295
-0.32
-0.33
-0.315
-0.305
-0.31
-0.315
-0.32
-0.325
-0.335
-0.315
-0.31
-0.31
-0.315
-0.33
-0.3
-0.3
-0.29
-0.29
-0.305
-0.31
-0.31
-0.295
-0.285
-0.305
-0.325
-0.345
-0.33
-0.315
-0.305
-0.305
-0.315
-0.32
-0.31
-0.3
-0.305
-0.3
-0.315
-0.33
-0.335
-0.33
-0.32
-0.32
-0.33
-0.33
-0.325
-0.305
-0.29
-0.295
-0.305
-0.32
-0.305
-0.29
-0.285
-0.305
-0.31
-0.335
-0.33
-0.315
-0.305
-0.31
-0.32
-0.33
-0.32
-0.31
-0.29
-0.295
-0.315
-0.335
-0.31
-0.295
-0.29
-0.28
-0.31
-0.32
-0.325
-0.295
-0.295
-0.285
-0.295
-0.305
-0.31
-0.29
-0.285
-0.29
-0.3
-0.315
-0.305
-0.305
-0.29
-0.305
-0.305
-0.32
-0.31
-0.295
-0.275
-0.275
-0.29
-0.305
-0.295
-0.26
-0.24
-0.23
-0.23
-0.245
-0.245
-0.25
-0.215
-0.195
-0.195
-0.195
-0.165
-0.155
-0.125
-0.14
-0.165
-0.18
-0.175
-0.175
-0.185
-0.205
-0.25
-0.27
-0.265
-0.255
-0.26
-0.28
-0.3
-0.3
-0.3
-0.305
-0.305
-0.31
-0.325
-0.34
-0.33
-0.305
-0.295
-0.305
-0.315
-0.32
-0.325
-0.305
-0.295
-0.29
-0.305
-0.31
-0.31
-0.3
-0.32
-0.35
-0.355
-0.29
-0.185
-0.01
0.185
0.425
0.72
1.04
1.33
1.535
1.525
1.28
0.9
0.5
0.13
-0.13
-0.27
-0.305
-0.335
-0.345
-0.315
-0.29
-0.265
-0.255
-0.295
-0.32
-0.32
-0.305
-0.3
-0.325
-0.35
-0.355
-0.35
-0.33
-0.32
-0.31
-0.335
-0.34
-0.315
-0.305
-0.28
-0.29
-0.3
-0.31
-0.305
-0.3
-0.315
-0.305
-0.315
-0.3
-0.285
-0.265
-0.25
-0.255
-0.26
-0.26
-0.26
-0.24
-0.225
-0.22
-0.24
-0.25
-0.235
-0.2
-0.195
-0.17
-0.165
-0.17
-0.165
-0.13
-0.09
-0.085
-0.08
-0.085
-0.08
-0.045
-0.035
-0.03
-0.03
-0.025
0.01
0.03
0.055
0.075
0.065
0.065
0.1
0.11
0.135
0.14
0.125
0.12
0.125
0.125
0.145
0.15
0.13
0.125
0.12
0.12
0.105
0.08
0.05
0.01
-0.01
-0.025
-0.045
-0.07
-0.11
-0.155
-0.18
-0.19
-0.195
-0.21
-0.23
-0.26
-0.265
-0.275
-0.26
-0.285
-0.3
-0.33
-0.325
-0.335
-0.32
-0.31
-0.315
-0.325
-0.315
-0.295
-0.3
-0.305
-0.32
-0.32
-0.32
-0.295
-0.3
-0.295
-0.315
-0.33
-0.325
-0.295
-0.29
-0.285
-0.305
-0.31
-0.295
-0.28
-0.28
-0.285
-0.3
-0.315
-0.31
-0.32
-0.295
-0.295
-0.31
-0.31
-0.29
-0.255
-0.23
-0.235
-0.24
-0.24
-0.235
-0.215
-0.215
-0.22
-0.215
-0.205
-0.205
-0.18
-0.17
-0.165
-0.19
-0.18
-0.195
-0.2
-0.205
-0.22
-0.23
-0.25
-0.24
-0.21
-0.155
-0.115
-0.09
-0.025
0.035
0.13
0.215
0.285
0.335
0.395
0.47
0.54
0.62
0.705
0.775
0.855
0.945
1.04
1.15
1.255
1.325
1.345
1.33
1.305
1.26
1.215
1.15
1.085
1.045
1.045
1.06
1.04
1.005
0.985
1.0
1.035
1.065
1.055
0.98
0.875
0.745
0.57
0.335
0.08
-0.16
-0.33
-0.43
-0.49
-0.525
-0.55
-0.585
-0.62
-0.63
-0.625
-0.64
-0.66
-0.69
-0.71
-0.725
-0.715
-0.74
-0.75
-0.75
-0.765
-0.76
-0.755
-0.745
-0.76
-0.785
-0.795
-0.795
-0.795
-0.81
-0.815
-0.84
-0.865
-0.865
-0.86
-0.86
-0.875
-0.89
-0.895
-0.9
-0.89
-0.895
-0.895
-0.915
-0.93
-0.94
-0.925
-0.915
-0.905
-0.925
-0.925
-0.925
-0.9
-0.895
-0.89
-0.885
-0.89
-0.875
-0.855
-0.84
-0.83
-0.81
-0.81
-0.78
-0.735
-0.69
-0.675
-0.65
-0.64
-0.6
-0.565
-0.525
-0.49
-0.485
-0.47
-0.45
-0.425
-0.4
-0.39
-0.385
-0.385
-0.36
-0.35
-0.34
-0.34
-0.36
-0.375
-0.37
-0.355
-0.35
-0.375
-0.38
-0.39
-0.39
-0.39
-0.375
-0.375
-0.375
-0.395
-0.37
-0.38
-0.365
-0.37
-0.39
-0.395
-0.395
-0.385
-0.375
-0.37
-0.38
-0.39
-0.38
-0.37
-0.36
-0.355
-0.375
-0.385
-0.38
-0.365
-0.365
-0.365
-0.375
-0.395
-0.365
-0.355
-0.34
-0.34
-0.35
-0.36
-0.36
-0.335
-0.32
-0.315
-0.31
-0.325
-0.3
-0.26
-0.205
-0.17
-0.135
-0.095
-0.025
0.055
0.135
0.22
0.295
0.365
0.445
0.53
0.62
0.69
0.765
0.845
0.92
1.005
1.08
1.165
1.255
1.3
1.34
1.325
1.305
1.245
1.165
1.095
1.05
1.025
1.025
0.995
0.95
0.93
0.94
0.98
1.025
1.06
1.055
0.995
0.91
0.795
0.62
0.405
0.18
-0.045
-0.225
-0.34
-0.415
-0.48
-0.52
-0.56
-0.575
-0.585
-0.595
-0.615
-0.635
-0.665
-0.68
-0.67
-0.68
-0.69
-0.72
-0.735
-0.73
-0.72
-0.72
-0.725
-0.735
-0.755
-0.765
-0.75
-0.755
-0.775
-0.78
-0.79
-0.805
-0.82
-0.82
-0.81
-0.84
-0.84
-0.835
-0.835
-0.825
-0.825
-0.85
-0.86
-0.86
-0.85
-0.845
-0.85
-0.86
-0.89
-0.89
-0.88
-0.845
-0.835
-0.85
-0.84
-0.825
-0.8
-0.785
-0.765
-0.755
-0.75
-0.74
-0.725
-0.69
-0.69
-0.67
-0.665
-0.635
-0.585
-0.555
-0.52
-0.505
-0.485
-0.455
-0.435
-0.405
-0.385
-0.365
-0.36
-0.355
-0.335
-0.32
-0.33
-0.33
-0.355
-0.345
-0.325
-0.32
-0.315
-0.335
-0.345
-0.34
-0.31
-0.3
-0.305
-0.33
-0.36
-0.35
-0.36
-0.335
-0.34
-0.34
-0.365
-0.35
-0.33
-0.32
-0.32
-0.33
-0.34
-0.325
-0.325
-0.31
-0.315
-0.325
-0.355
-0.36
-0.35
-0.335
-0.335
-0.34
-0.35
-0.33
-0.31
-0.3
-0.305
-0.32
-0.33
-0.315
-0.3
-0.305
-0.295
-0.315
-0.325
-0.325
-0.32
-0.285
-0.285
-0.295
-0.305
-0.285
-0.285
-0.26
-0.255
-0.265
-0.275
-0.285
-0.285
-0.26
-0.27
-0.275
-0.285
-0.285
-0.27
-0.245
-0.24
-0.255
-0.27
-0.285
-0.25
-0.245
-0.245
-0.26
-0.285
-0.275
-0.265
-0.25
-0.25
-0.255
-0.27
-0.255
-0.24
-0.225
-0.25
-0.26
-0.265
-0.27
-0.245
-0.235
-0.23
-0.255
-0.255
-0.255
-0.265
-0.24
-0.225
-0.245
-0.25
-0.245
-0.245
-0.22
-0.215
-0.245
-0.25
-0.26
-0.24
-0.235
-0.24
-0.26
-0.26
-0.265
-0.245
-0.235
-0.22
-0.23
-0.24
-0.235
-0.22
-0.205
-0.205
-0.195
-0.195
-0.18
-0.16
-0.16
-0.15
-0.165
-0.16
-0.13
-0.1
-0.08
-0.07
-0.085
-0.1
-0.095
-0.085
-0.09
-0.11
-0.145
-0.165
-0.17
-0.155
-0.155
-0.155
-0.18
-0.195
-0.22
-0.2
-0.195
-0.205
-0.215
-0.24
-0.245
-0.25
-0.235
-0.24
-0.25
-0.265
-0.28
-0.255
-0.235
-0.23
-0.24
-0.255
-0.24
-0.24
-0.225
-0.22
-0.23
-0.245
-0.25
-0.25
-0.25
-0.225
-0.145
-0.05
0.115
0.32
0.6
0.86
1.11
1.33
1.52
1.57
1.41
1.085
0.665
0.265
-0.01
-0.12
-0.145
-0.17
-0.24
-0.26
-0.235
-0.2
-0.195
-0.205
-0.24
-0.255
-0.255
-0.25
-0.255
-0.26
-0.28
-0.3
-0.28
-0.245
-0.23
-0.24
-0.25
-0.255
-0.255
-0.235
-0.225
-0.22
-0.235
-0.245
-0.245
-0.23
-0.225
-0.23
-0.23
-0.245
-0.215
-0.2
-0.19
-0.195
-0.19
-0.195
-0.19
-0.18
-0.155
-0.16
-0.18
-0.185
-0.175
-0.135
-0.105
-0.09
-0.085
-0.1
-0.085
-0.075
-0.02
-0.015
-0.02
-0.015
0.0
0.015
0.035
0.05
0.065
0.085
0.105
0.145
0.155
0.175
0.165
0.185
0.205
0.23
0.235
0.24
0.22
0.21
0.195
0.175
0.155
0.125
0.055
0.01
-0.01
-0.045
-0.06
-0.095
-0.14
-0.16
-0.185
-0.17
-0.175
-0.185
-0.23
-0.245
-0.26
-0.25
-0.245
-0.255
-0.28
-0.3
-0.305
-0.295
-0.28
-0.265
-0.285
-0.305
-0.295
-0.3
-0.285
-0.28
-0.295
-0.29
-0.3
-0.285
-0.275
-0.295
-0.3
-0.315
-0.305
-0.29
-0.285
-0.26
-0.28
-0.285
-0.285
-0.28
-0.26
-0.265
-0.285
-0.29
-0.3
-0.29
-0.27
-0.27
-0.25
-0.25
-0.23
-0.215
-0.2
-0.195
-0.205
-0.2
-0.195
-0.165
-0.15
-0.15
-0.16
-0.18
-0.175
-0.165
-0.17
-0.16
-0.195
-0.21
-0.225
-0.215
-0.215
-0.24
-0.28
-0.315
-0.32
-0.31
-0.295
-0.315
-0.345
-0.345
-0.32
-0.28
-0.225
-0.185
-0.17
-0.11
-0.05
0.015
0.095
0.155
0.21
0.275
0.33
0.385
0.465
0.53
0.59
0.665
0.765
0.86
0.97
1.04
1.095
1.19
1.32
1.47
1.555
1.63
1.68
1.745
1.825
1.89
1.965
1.925
1.66
1.27
0.88
0.56
0.29
0.075
-0.095
-0.235
-0.335
-0.4
-0.44
-0.46
-0.495
-0.535
-0.55
-0.54
-0.54
-0.56
-0.585
-0.625
-0.62
-0.615
-0.61
-0.605
-0.63
-0.64
-0.65
-0.65
-0.65
-0.65
-0.67
-0.68
-0.675
-0.67
-0.665
-0.665
-0.675
-0.69
-0.69
-0.69
-0.68
-0.7
-0.735
-0.75
-0.755
-0.74
-0.715
-0.72
-0.745
-0.755
-0.765
-0.765
-0.765
-0.76
-0.785
-0.8
-0.785
-0.79
-0.775
-0.78
-0.8
-0.805
-0.785
-0.755
-0.745
-0.735
-0.73
-0.74
-0.735
-0.715
-0.665
-0.65
-0.665
-0.665
-0.675
-0.64
-0.605
-0.585
-0.59
-0.575
-0.535
-0.5
-0.46
-0.45
-0.46
-0.455
-0.435
-0.42
-0.395
-0.38
-0.405
-0.435
-0.415
-0.405
-0.395
-0.38
-0.41
-0.415
-0.415
-0.4
-0.395
-0.4
-0.41
-0.42
-0.425
-0.41
-0.41
-0.42
-0.44
-0.46
-0.445
-0.425
-0.41
-0.395
-0.415
-0.425
-0.42
-0.41
-0.41
-0.395
-0.415
-0.415
-0.43
-0.41
-0.4
-0.425
-0.435
-0.45
-0.42
-0.395
-0.37
-0.37
-0.365
-0.36
-0.325
-0.285
-0.24
-0.2
-0.17
-0.13
-0.06
0.015
0.1
0.185
0.24
0.34
0.44
0.55
0.635
0.7
0.775
0.835
0.915
1.005
1.115
1.2
1.245
1.255
1.255
1.22
1.19
1.145
1.085
1.045
1.02
1.01
1.005
0.97
0.925
0.9
0.89
0.91
0.96
0.92
0.835
0.67
0.515
0.295
0.08
-0.125
-0.29
-0.41
-0.48
-0.51
-0.54
-0.56
-0.62
-0.675
-0.71
-0.705
-0.695
-0.71
-0.735
-0.745
-0.765
-0.745
-0.745
-0.765
-0.775
-0.8
-0.81
-0.805
-0.815
-0.84
-0.855
-0.855
-0.84
-0.83
-0.825
-0.84
-0.875
-0.885
-0.895
-0.885
-0.87
-0.87
-0.905
-0.93
-0.935
-0.93
-0.91
-0.9
-0.92
-0.925
-0.93
-0.91
-0.905
-0.89
-0.915
-0.91
-0.91
-0.9
-0.885
-0.895
-0.895
-0.89
-0.89
-0.855
-0.805
-0.8
-0.795
-0.78
-0.765
-0.725
-0.685
-0.66
-0.665
-0.67
-0.65
-0.62
-0.575
-0.55
-0.54
-0.515
-0.49
-0.475
-0.45
-0.445
-0.46
-0.47
-0.47
-0.46
-0.455
-0.45
-0.48
-0.48
-0.48
-0.47
-0.47
-0.455
-0.45
-0.485
-0.465
-0.465
-0.44
-0.44
-0.465
-0.475
-0.47
-0.485
-0.49
-0.475
-0.48
-0.495
-0.485
-0.455
-0.445
-0.435
-0.45
-0.455
-0.445
-0.445
-0.43
-0.425
-0.435
-0.455
-0.465
-0.445
-0.43
-0.42
-0.44
-0.435
-0.425
-0.425
-0.405
-0.41
-0.42
-0.435
-0.425
-0.405
-0.4
-0.415
-0.435
-0.445
-0.44
-0.425
-0.41
-0.405
-0.405
-0.4
-0.405
-0.39
-0.365
-0.36
-0.385
-0.4
-0.4
-0.395
-0.405
-0.39
-0.405
-0.435
-0.42
-0.38
-0.355
-0.355
-0.365
-0.385
-0.38
-0.385
-0.355
-0.355
-0.385
-0.375
-0.38
-0.365
-0.36
-0.385
-0.38
-0.39
-0.38
-0.36
-0.34
-0.355
-0.365
-0.37
-0.365
-0.355
-0.34
-0.34
-0.375
-0.37
-0.37
-0.355
-0.345
-0.335
-0.365
-0.37
-0.355
-0.335
-0.32
-0.34
-0.355
-0.36
-0.355
-0.335
-0.32
-0.32
-0.345
-0.365
-0.365
-0.365
-0.345
-0.355
-0.345
-0.355
-0.345
-0.33
-0.31
-0.32
-0.34
-0.35
-0.345
-0.34
-0.31
-0.315
-0.325
-0.335
-0.31
-0.28
-0.255
-0.245
-0.26
-0.275
-0.28
-0.26
-0.23
-0.205
-0.215
-0.22
-0.215
-0.195
-0.195
-0.185
-0.2
-0.225
-0.23
-0.23
-0.21
-0.22
-0.235
-0.27
-0.275
-0.27
-0.275
-0.3
-0.325
-0.335
-0.35
-0.33
-0.32
-0.33
-0.34
-0.355
-0.34
-0.33
-0.325
-0.32
-0.335
-0.345
-0.345
-0.335
-0.335
-0.32
-0.33
-0.34
-0.34
-0.32
-0.3
-0.295
-0.325
-0.355
-0.315
-0.24
-0.105
0.055
0.24
0.495
0.81
1.125
1.41
1.58
1.52
1.23
0.88
0.53
0.2
-0.09
-0.225
-0.285
-0.3
-0.31
-0.305
-0.29
-0.29
-0.3
-0.315
-0.315
-0.3
-0.305
-0.32
-0.32
-0.33
-0.315
-0.31
-0.315
-0.32
-0.335
-0.325
-0.315
-0.305
-0.295
-0.315
-0.32
-0.32
-0.3
-0.275
-0.275
-0.285
-0.29
-0.295
-0.275
-0.26
-0.255
-0.275
-0.275
-0.275
-0.27
-0.245
-0.25
-0.24
-0.245
-0.24
-0.21
-0.195
-0.185
-0.19
-0.2
-0.195
-0.17
-0.15
-0.145
-0.15
-0.14
-0.13
-0.11
-0.07
-0.055
-0.04
-0.045
-0.04
-0.005
0.025
0.045
0.03
0.035
0.05
0.075
0.11
0.105
0.12
0.135
0.15
0.17
0.2
0.215
0.215
0.2
0.22
0.22
0.245
0.225
0.2
0.19
0.17
0.165
0.16
0.15
0.135
0.105
0.07
0.06
0.04
0.025
0.0
-0.025
-0.08
-0.095
-0.12
-0.12
-0.155
-0.175
-0.205
-0.19
-0.18
-0.19
-0.21
-0.225
-0.24
-0.23
-0.245
-0.23
-0.245
-0.26
-0.27
-0.255
-0.26
-0.265
-0.27
-0.285
-0.28
-0.255
-0.24
-0.245
-0.26
-0.275
-0.255
-0.245
-0.235
-0.235
-0.25
-0.26
-0.265
-0.26
-0.25
-0.24
-0.26
-0.26
-0.255
-0.235
-0.215
-0.215
-0.23
-0.24
-0.245
-0.23
-0.21
-0.215
-0.23
-0.235
-0.24
-0.21
-0.18
-0.175
-0.175
-0.175
-0.17
-0.135
-0.11
-0.1
-0.105
-0.11
-0.095
-0.08
-0.065
-0.085
-0.12
-0.135
-0.145
-0.125
-0.13
-0.145
-0.15
-0.17
-0.18
-0.175
-0.205
-0.195
-0.215
-0.24
-0.25
-0.255
-0.235
-0.24
-0.265
-0.245
-0.21
-0.155
-0.085
-0.025
0.015
0.06
0.125
0.19
0.275
0.35
0.41
0.455
0.515
0.575
0.64
0.695
0.77
0.84
0.915
1.0
1.11
1.19
1.28
1.36
1.44
1.52
1.59
1.655
1.735
1.8
1.855
1.93
1.985
1.88
1.59
1.215
0.87
0.575
0.295
0.1
-0.06
-0.195
-0.3
-0.35
-0.375
-0.395
-0.43
-0.48
-0.49
-0.495
-0.495
-0.51
-0.525
-0.54
-0.545
-0.54
-0.545
-0.54
-0.555
-0.57
-0.57
-0.56
-0.55
-0.565
-0.59
-0.605
-0.605
-0.595
-0.59
-0.595
-0.595
-0.615
-0.625
-0.605
-0.6
-0.61
-0.625
-0.635
-0.645
-0.64
-0.635
-0.645
-0.675
-0.68
-0.69
-0.675
-0.67
-0.665
-0.675
-0.69
-0.695
-0.685
-0.68
-0.67
-0.695
-0.71
-0.715
-0.705
-0.68
-0.68
-0.665
-0.665
-0.645
-0.615
-0.595
-0.585
-0.58
-0.565
-0.55
-0.525
-0.5
-0.475
-0.485
-0.475
-0.465
-0.42
-0.4
-0.375
-0.36
-0.36
-0.33
-0.305
-0.285
-0.27
-0.285
-0.29
-0.285
-0.285
-0.285
-0.295
-0.31
-0.33
-0.33
-0.315
-0.315
-0.305
-0.32
-0.325
-0.335
-0.33
-0.32
-0.32
-0.33
-0.34
-0.35
-0.345
-0.335
-0.335
-0.35
-0.35
-0.33
-0.325
-0.315
-0.31
-0.33
-0.35
-0.345
-0.325
-0.325
-0.325
-0.335
-0.355
-0.37
-0.345
-0.305
-0.295
-0.295
-0.295
-0.28
-0.255
-0.23
-0.195
-0.16
-0.14
-0.095
-0.035
0.045
0.075
0.15
0.2
0.28
0.37
0.47
0.55
0.595
0.645
0.715
0.79
0.885
0.935
0.98
1.035
1.095
1.17
1.17
1.16
1.11
1.075
1.055
1.025
1.005
0.995
0.97
0.94
0.905
0.895
0.875
0.895
0.925
0.95
0.95
0.9
0.82
0.67
0.47
0.235
0.025
-0.13
-0.25
-0.355
-0.435
-0.5
-0.53
-0.555
-0.545
-0.565
-0.595
-0.615
-0.635
-0.635
-0.625
-0.645
-0.665
-0.685
-0.7
-0.69
-0.7
-0.705
-0.75
-0.755
-0.755
-0.745
-0.73
-0.74
-0.755
-0.79
-0.79
-0.78
-0.76
-0.77
-0.785
-0.815
-0.82
-0.825
-0.83
-0.835
-0.84
-0.845
-0.865
-0.855
-0.83
-0.815
-0.85
-0.845
-0.85
-0.825
-0.805
-0.795
-0.81
-0.82
-0.81
-0.795
-0.76
-0.755
-0.75
-0.75
-0.73
-0.7
-0.68
-0.645
-0.63
-0.63
-0.62
-0.6
-0.57
-0.545
-0.535
-0.54
-0.52
-0.485
-0.445
-0.435
-0.425
-0.43
-0.43
-0.41
-0.39
-0.395
-0.41
-0.43
-0.435
-0.415
-0.39
-0.41
-0.415
-0.43
-0.435
-0.415
-0.39
-0.395
-0.415
-0.43
-0.435
-0.425
-0.41
-0.4
-0.435
-0.445
-0.445
-0.435
-0.415
-0.425
-0.425
-0.43
-0.43
-0.405
-0.39
-0.39
-0.4
-0.41
-0.405
-0.405
-0.39
-0.395
-0.395
-0.41
-0.415
-0.4
-0.385
-0.365
-0.36
-0.38
-0.385
-0.37
-0.35
-0.37
-0.365
-0.38
-0.39
-0.38
-0.37
-0.365
-0.37
-0.385
-0.375
-0.375
-0.355
-0.35
-0.36
-0.37
-0.365
-0.345
-0.35
-0.34
-0.355
-0.385
-0.38
-0.365
-0.35
-0.365
-0.36
-0.37
-0.375
-0.36
-0.345
-0.34
-0.34
-0.35
-0.355
-0.35
-0.345
-0.35
-0.375
-0.38
-0.39
-0.37
-0.355
-0.345
-0.355
-0.35
-0.375
-0.355
-0.34
-0.335
-0.34
-0.345
-0.365
-0.345
-0.34
-0.34
-0.37
-0.395
-0.385
-0.365
-0.34
-0.34
-0.345
-0.36
-0.37
-0.35
-0.325
-0.32
-0.35
-0.355
-0.375
-0.365
-0.35
-0.35
-0.355
-0.355
-0.36
-0.34
-0.335
-0.33
-0.34
-0.345
-0.345
-0.335
-0.32
-0.34
-0.345
-0.365
-0.375
-0.355
-0.34
-0.34
-0.345
-0.335
-0.34
-0.34
-0.32
-0.32
-0.305
-0.31
-0.305
-0.27
-0.265
-0.265
-0.295
-0.29
-0.29
-0.255
-0.21
-0.175
-0.185
-0.205
-0.205
-0.19
-0.185
-0.205
-0.215
-0.245
-0.27
-0.275
-0.26
-0.275
-0.295
-0.33
-0.335
-0.325
-0.315
-0.32
-0.34
-0.35
-0.37
-0.36
-0.35
-0.33
-0.345
-0.385
-0.385
-0.39
-0.37
-0.365
-0.37
-0.37
-0.36
-0.35
-0.345
-0.335
-0.355
-0.365
-0.365
-0.375
-0.39
-0.39
-0.355
-0.26
-0.11
0.115
0.415
0.74
1.045
1.31
1.495
1.5
1.29
0.915
0.475
0.05
-0.23
-0.32
-0.355
-0.345
-0.355
-0.355
-0.345
-0.315
-0.3
-0.3
-0.325
-0.345
-0.35
-0.345
-0.35
-0.345
-0.365
-0.38
-0.37
-0.365
-0.355
-0.34
-0.35
-0.35
-0.355
-0.335
-0.325
-0.32
-0.325
-0.335
-0.355
-0.325
-0.315
-0.315
-0.33
-0.335
-0.325
-0.31
-0.275
-0.27
-0.275
-0.28
-0.275
-0.255
-0.23
-0.215
-0.22
-0.235
-0.25
-0.24
-0.22
-0.21
-0.21
-0.21
-0.205
-0.18
-0.145
-0.13
-0.135
-0.125
-0.115
-0.095
-0.06
-0.065
-0.07
-0.06
-0.055
-0.035
-0.015
0.0
0.015
0.02
0.025
0.045
0.08
0.095
0.09
0.1
0.115
0.14
0.15
0.145
0.14
0.13
0.11
0.125
0.13
0.14
0.11
0.1
0.09
0.085
0.085
0.06
0.025
-0.02
-0.045
-0.05
-0.07
-0.1
-0.14
-0.18
-0.205
-0.2
-0.195
-0.205
-0.23
-0.255
-0.27
-0.27
-0.265
-0.27
-0.285
-0.31
-0.32
-0.325
-0.31
-0.32
-0.335
-0.35
-0.34
-0.325
-0.3
-0.31
-0.305
-0.305
-0.32
-0.31
-0.29
-0.29
-0.305
-0.325
-0.34
-0.32
-0.315
-0.32
-0.315
-0.32
-0.305
-0.285
-0.295
-0.28
-0.295
-0.305
-0.3
-0.295
-0.275
-0.27
-0.3
-0.315
-0.31
-0.29
-0.265
-0.24
-0.235
-0.24
-0.25
-0.235
-0.205
-0.2
-0.2
-0.2
-0.185
-0.16
-0.145
-0.17
-0.16
-0.165
-0.195
-0.17
-0.16
-0.17
-0.2
-0.215
-0.23
-0.23
-0.235
-0.24
-0.25
-0.29
-0.315
-0.305
-0.285
-0.275
-0.245
-0.215
-0.15
-0.07
0.025
0.09
0.155
0.21
0.28
0.355
0.43
0.495
0.535
0.585
0.625
0.725
0.825
0.905
0.965
1.055
1.15
1.28
1.385
1.425
1.39
1.36
1.355
1.44
1.5
1.55
1.595
1.63
1.68
1.72
1.735
1.675
1.47
1.14
0.845
0.605
0.375
0.135
-0.05
-0.19
-0.31
-0.395
-0.46
-0.49
-0.51
-0.535
-0.555
-0.575
-0.57
-0.585
-0.605
-0.605
-0.625
-0.625
-0.615
-0.625
-0.635
-0.665
-0.68
-0.68
-0.665
-0.68
-0.705
-0.705
-0.71
-0.705
-0.705
-0.705
-0.725
-0.735
-0.75
-0.75
-0.745
-0.76
-0.78
-0.805
-0.805
-0.8
-0.785
-0.78
-0.79
-0.825
-0.83
-0.82
-0.81
-0.815
-0.83
-0.835
-0.84
-0.84
-0.825
-0.83
-0.825
-0.83
-0.81
-0.79
-0.76
-0.755
-0.75
-0.76
-0.735
-0.71
-0.665
-0.64
-0.64
-0.635
-0.605
-0.58
-0.525
-0.485
-0.465
-0.45
-0.43
-0.4
-0.355
-0.325
-0.335
-0.335
-0.335
-0.33
-0.315
-0.315
-0.32
-0.33
-0.345
-0.34
-0.315
-0.315
-0.325
-0.345
-0.35
-0.34
-0.335
-0.325
-0.33
-0.345
-0.38
-0.36
-0.355
-0.34
-0.345
-0.35
-0.35
-0.335
-0.345
-0.315
-0.325
-0.33
-0.34
-0.335
-0.32
-0.325
-0.34
-0.355
-0.34
-0.325
-0.31
-0.3
-0.31
-0.315
-0.325
-0.305
-0.285
-0.26
-0.26
-0.275
-0.255
-0.215
-0.155
-0.09
-0.03
0.025
0.085
0.175
0.27
0.36
0.43
0.525
0.62
0.705
0.8
0.89
0.96
1.02
1.1
1.195
1.305
1.395
1.435
1.415
1.385
1.345
1.295
1.25
1.2
1.12
1.05
1.055
1.01
0.97
0.955
0.96
0.99
1.04
1.06
0.985
0.88
0.71
0.5
0.27
0.035
-0.145
-0.275
-0.375
-0.445
-0.475
-0.485
-0.5
-0.525
-0.565
-0.58
-0.585
-0.58
-0.6
-0.615
-0.63
-0.65
-0.65
-0.65
-0.65
-0.66
-0.685
-0.68
-0.685
-0.675
-0.68
-0.69
-0.7
-0.705
-0.705
-0.69
-0.705
-0.745
-0.755
-0.76
-0.75
-0.755
-0.75
-0.76
-0.775
-0.78
-0.775
-0.76
-0.765
-0.775
-0.78
-0.79
-0.78
-0.775
-0.77
-0.78
-0.79
-0.78
-0.77
-0.75
-0.73
-0.72
-0.73
-0.72
-0.69
-0.665
-0.635
-0.63
-0.63
-0.62
-0.585
-0.55
-0.51
-0.495
-0.485
-0.46
-0.415
-0.38
-0.355
-0.33
-0.33
-0.325
-0.295
-0.28
-0.26
-0.28
-0.29
-0.32
-0.305
-0.275
-0.265
-0.265
-0.27
-0.285
-0.275
-0.265
-0.26
-0.26
-0.28
-0.285
-0.275
-0.275
-0.27
-0.29
-0.3
-0.295
-0.28
-0.265
-0.26
-0.275
-0.27
-0.28
-0.285
-0.27
-0.255
-0.255
-0.27
-0.275
-0.275
-0.26
-0.265
-0.27
-0.265
-0.245
-0.24
-0.23
-0.235
-0.235
-0.24
-0.245
-0.235
-0.225
-0.215
-0.225
-0.24
-0.25
-0.235
-0.21
-0.21
-0.21
-0.22
-0.225
-0.22
-0.2
-0.22
-0.215
-0.235
-0.22
-0.225
-0.22
-0.215
-0.215
-0.225
-0.225
-0.2
-0.195
-0.195
-0.21
-0.215
-0.215
-0.21
-0.205
-0.2
-0.22
-0.225
-0.24
-0.22
-0.205
-0.195
-0.18
-0.2
-0.21
-0.195
-0.185
-0.185
-0.19
-0.2
-0.2
-0.195
-0.19
-0.19
-0.195
-0.225
-0.215
-0.2
-0.18
-0.17
-0.195
-0.195
-0.195
-0.195
-0.18
-0.175
-0.2
-0.205
-0.215
-0.2
-0.195
-0.185
-0.19
-0.2
-0.195
-0.19
-0.17
-0.165
-0.17
-0.195
-0.2
-0.185
-0.155
-0.135
-0.135
-0.135
-0.135
-0.14
-0.095
-0.08
-0.065
-0.065
-0.05
-0.06
-0.04
-0.03
-0.05
-0.075
-0.105
-0.11
-0.11
-0.11
-0.13
-0.155
-0.16
-0.17
-0.155
-0.165
-0.175
-0.195
-0.205
-0.205
-0.205
-0.21
-0.215
-0.22
-0.225
-0.21
-0.195
-0.185
-0.195
-0.2
-0.205
-0.19
-0.19
-0.17
-0.185
-0.2
-0.22
-0.215
-0.215
-0.205
-0.21
-0.165
-0.085
0.07
0.28
0.51
0.77
1.04
1.295
1.51
1.605
1.44
1.11
0.72
0.39
0.13
0.005
-0.065
-0.115
-0.185
-0.22
-0.215
-0.165
-0.14
-0.165
-0.2
-0.22
-0.22
-0.235
-0.24
-0.22
-0.24
-0.24
-0.23
-0.21
-0.2
-0.21
-0.225
-0.23
-0.22
-0.2
-0.22
-0.205
-0.235
-0.23
-0.21
-0.2
-0.19
-0.205
-0.2
-0.19
-0.185
-0.155
-0.15
-0.16
-0.16
-0.16
-0.165
-0.145
-0.135
-0.13
-0.125
-0.125
-0.1
-0.08
-0.065
-0.06
-0.065
-0.05
-0.03
-0.005
-0.005
0.005
0.005
-0.005
0.035
0.07
0.1
0.115
0.1
0.125
0.145
