Lead II
-0.435
-0.43
-0.465
-0.49
-0.495
-0.495
-0.465
-0.46
-0.475
-0.495
-0.53
-0.515
-0.495
-0.5
-0.505
-0.52
-0.535
-0.54
-0.53
-0.56
-0.555
-0.575
-0.58
-0.57
-0.55
-0.555
-0.59
-0.6
-0.61
-0.61
-0.595
-0.585
-0.605
-0.62
-0.655
-0.625
-0.615
-0.6
-0.6
-0.635
-0.615
-0.605
-0.59
-0.58
-0.585
-0.58
-0.555
-0.535
-0.51
-0.48
-0.475
-0.47
-0.455
-0.425
-0.375
-0.34
-0.345
-0.33
-0.325
-0.295
-0.26
-0.25
-0.255
-0.26
-0.26
-0.24
-0.21
-0.215
-0.225
-0.23
-0.23
-0.225
-0.22
-0.215
-0.245
-0.25
-0.23
-0.23
-0.205
-0.21
-0.24
-0.245
-0.26
-0.245
-0.24
-0.22
-0.23
-0.26
-0.25
-0.27
-0.245
-0.245
-0.245
-0.255
-0.26
-0.255
-0.245
-0.24
-0.245
-0.245
-0.25
-0.24
-0.235
-0.245
-0.26
-0.275
-0.28
-0.265
-0.26
-0.25
-0.255
-0.265
-0.275
-0.265
-0.245
-0.23
-0.24
-0.25
-0.255
-0.26
-0.235
-0.235
-0.255
-0.26
-0.26
-0.245
-0.22
-0.23
-0.255
-0.26
-0.27
-0.25
-0.23
-0.225
-0.24
-0.255
-0.26
-0.265
-0.25
-0.235
-0.25
-0.26
-0.245
-0.25
-0.235
-0.245
-0.25
-0.265
-0.27
-0.26
-0.24
-0.245
-0.265
-0.285
-0.29
-0.29
-0.25
-0.24
-0.255
-0.26
-0.28
-0.265
-0.245
-0.25
-0.26
-0.285
-0.27
-0.265
-0.27
-0.245
-0.25
-0.26
-0.275
-0.255
-0.23
-0.23
-0.245
-0.26
-0.25
-0.245
-0.22
-0.205
-0.19
-0.21
-0.22
-0.225
-0.2
-0.18
-0.19
-0.195
-0.2
-0.175
-0.165
-0.17
-0.185
-0.215
-0.215
-0.205
-0.21
-0.2
-0.215
-0.245
-0.245
-0.255
-0.25
-0.235
-0.25
-0.255
-0.265
-0.25
-0.265
-0.265
-0.27
-0.285
-0.295
-0.28
-0.27
-0.275
-0.3
-0.32
-0.315
-0.28
-0.27
-0.255
-0.25
-0.27
-0.295
-0.29
-0.285
-0.28
-0.28
-0.295
-0.295
-0.275
-0.27
-0.28
-0.275
-0.275
-0.275
-0.255
-0.245
-0.245
-0.27
-0.3
-0.3
-0.285
-0.225
-0.13
-0.045
0.07
0.135
0.23
0.325
0.425
0.535
0.665
0.84
1.04
1.235
1.415
1.605
1.75
1.855
1.925
1.935
1.91
1.845
1.71
1.485
1.19
0.845
0.57
0.385
0.29
0.245
0.24
0.25
0.225
0.185
0.145
0.11
0.06
0.025
0.0
-0.03
-0.085
-0.095
-0.115
-0.12
-0.125
-0.17
-0.225
-0.27
-0.3
-0.315
-0.325
-0.345
-0.39
-0.405
-0.41
-0.41
-0.415
-0.43
-0.45
-0.46
-0.46
-0.45
-0.44
-0.455
-0.47
-0.475
-0.48
-0.46
-0.45
-0.465
-0.46
-0.485
-0.49
-0.48
-0.485
-0.49
-0.5
-0.51
-0.495
-0.49
-0.495
-0.51
-0.53
-0.54
-0.545
-0.53
-0.53
-0.525
-0.525
-0.525
-0.535
-0.545
-0.54
-0.555
-0.575
-0.585
-0.585
-0.57
-0.57
-0.585
-0.615
-0.62
-0.62
-0.6
-0.605
-0.605
-0.63
-0.655
-0.655
-0.655
-0.665
-0.665
-0.68
-0.685
-0.675
-0.655
-0.66
-0.67
-0.685
-0.685
-0.665
-0.645
-0.63
-0.65
-0.65
-0.65
-0.64
-0.625
-0.605
-0.6
-0.585
-0.565
-0.535
-0.515
-0.49
-0.465
-0.47
-0.44
-0.42
-0.405
-0.38
-0.365
-0.37
-0.36
-0.33
-0.315
-0.285
-0.275
-0.275
-0.275
-0.265
-0.24
-0.245
-0.255
-0.265
-0.27
-0.25
-0.245
-0.22
-0.235
-0.245
-0.245
-0.245
-0.23
-0.21
-0.215
-0.195
-0.15
-0.11
-0.045
0.01
0.065
0.13
0.195
0.29
0.39
0.535
0.665
0.755
0.855
0.96
1.02
1.1
1.12
1.1
1.0
0.78
0.465
0.105
-0.29
-0.625
-0.885
-1.045
-1.165
-1.29
-1.39
-1.525
-1.665
-1.76
-1.815
-1.86
-1.895
-1.93
-1.98
-1.995
-2.015
-2.03
-2.04
-2.085
-2.07
-2.06
-2.045
-2.005
-1.965
-1.9
-1.82
-1.71
-1.58
-1.42
-1.28
-1.175
-1.07
-0.985
-0.895
-0.845
-0.835
-0.815
-0.79
-0.76
-0.725
-0.695
-0.665
-0.64
-0.595
-0.545
-0.48
-0.435
-0.375
-0.335
-0.305
-0.27
-0.215
-0.19
-0.145
-0.12
-0.075
-0.04
-0.005
0.015
0.04
0.045
0.05
0.065
0.12
0.155
0.185
0.21
0.24
0.27
0.31
0.355
0.39
0.395
0.41
0.43
0.495
0.515
0.535
0.565
0.595
0.645
0.69
0.715
0.72
0.735
0.745
0.785
0.845
0.885
0.895
0.915
0.925
0.97
1.02
1.045
1.065
1.06
1.075
1.095
1.13
1.15
1.145
1.145
1.155
1.165
1.16
1.15
1.135
1.1
1.085
1.085
1.095
1.065
1.035
0.99
0.965
0.935
0.91
0.875
0.855
0.805
0.78
0.75
0.73
0.71
0.655
0.605
0.56
0.53
0.49
0.44
0.39
0.32
0.265
0.235
0.21
0.17
0.13
0.07
0.03
0.015
0.015
-0.015
-0.025
-0.065
-0.095
-0.115
-0.145
-0.14
-0.15
-0.17
-0.185
-0.195
-0.215
-0.195
-0.205
-0.225
-0.22
-0.22
-0.215
-0.22
-0.245
-0.255
-0.27
-0.255
-0.245
-0.24
-0.24
-0.265
-0.275
-0.27
-0.255
-0.26
-0.265
-0.28
-0.285
-0.295
-0.285
-0.29
-0.305
-0.3
-0.295
-0.28
-0.27
-0.28
-0.275
-0.305
-0.305
-0.305
-0.3
-0.305
-0.29
-0.32
-0.325
-0.32
-0.315
-0.31
-0.32
-0.335
-0.34
-0.325
-0.325
-0.32
-0.345
-0.36
-0.35
-0.35
-0.335
-0.345
-0.34
-0.36
-0.365
-0.365
-0.345
-0.35
-0.35
-0.365
-0.385
-0.365
-0.345
-0.345
-0.36
-0.365
-0.375
-0.345
-0.335
-0.335
-0.34
-0.375
-0.365
-0.37
-0.355
-0.34
-0.345
-0.365
-0.365
-0.365
-0.355
-0.345
-0.355
-0.36
-0.36
-0.355
-0.35
-0.345
-0.36
-0.375
-0.385
-0.365
-0.36
-0.335
-0.34
-0.365
-0.37
-0.375
-0.345
-0.345
-0.345
-0.37
-0.38
-0.37
-0.36
-0.36
-0.375
-0.38
-0.385
-0.385
-0.36
-0.335
-0.345
-0.36
-0.355
-0.345
-0.355
-0.35
-0.36
-0.36
-0.36
-0.36
-0.36
-0.355
-0.365
-0.375
-0.37
-0.355
-0.34
-0.34
-0.355
-0.37
-0.37
-0.37
-0.36
-0.335
-0.345
-0.35
-0.37
-0.36
-0.34
-0.345
-0.345
-0.345
-0.365
-0.365
-0.34
-0.355
-0.355
-0.365
-0.36
-0.345
-0.335
-0.325
-0.33
-0.345
-0.35
-0.355
-0.355
-0.335
-0.35
-0.345
-0.36
-0.355
-0.34
-0.345
-0.34
-0.36
-0.355
-0.345
-0.33
-0.325
-0.345
-0.35
-0.365
-0.345
-0.33
-0.325
-0.32
-0.325
-0.35
-0.34
-0.33
-0.32
-0.34
-0.335
-0.335
-0.325
-0.32
-0.325
-0.335
-0.345
-0.345
-0.33
-0.325
-0.325
-0.33
-0.335
-0.355
-0.34
-0.315
-0.32
-0.325
-0.335
-0.345
-0.34
-0.32
-0.325
-0.32
-0.32
-0.33
-0.32
-0.315
-0.315
-0.315
-0.33
-0.34
-0.32
-0.305
-0.31
-0.305
-0.335
-0.33
-0.33
-0.3
-0.31
-0.31
-0.315
-0.325
-0.315
-0.31
-0.295
-0.3
-0.315
-0.32
-0.3
-0.295
-0.305
-0.31
-0.315
-0.31
-0.295
-0.31
-0.3
-0.31
-0.33
-0.335
-0.295
-0.29
-0.285
-0.29
-0.315
-0.325
-0.305
-0.29
-0.265
-0.265
-0.26
-0.275
-0.255
-0.255
-0.24
-0.235
-0.245
-0.25
-0.24
-0.23
-0.225
-0.235
-0.25
-0.25
-0.245
-0.255
-0.255
-0.295
-0.305
-0.305
-0.28
-0.27
-0.28
-0.295
-0.325
-0.345
-0.335
-0.325
-0.315
-0.32
-0.35
-0.345
-0.335
-0.315
-0.305
-0.315
-0.33
-0.335
-0.335
-0.32
-0.29
-0.28
-0.29
-0.305
-0.3
-0.28
-0.28
-0.285
-0.285
-0.28
-0.275
-0.265
-0.275
-0.24
-0.155
-0.04
0.09
0.21
0.31
0.43
0.565
0.745
0.985
1.215
1.425
1.61
1.77
1.9
2.0
2.045
2.035
1.955
1.74
1.37
0.915
0.53
0.305
0.235
0.22
0.215
0.21
0.175
0.13
0.075
0.015
-0.015
-0.035
-0.045
-0.07
-0.11
-0.16
-0.215
-0.245
-0.27
-0.28
-0.33
-0.365
-0.415
-0.43
-0.41
-0.425
-0.445
-0.47
-0.475
-0.48
-0.475
-0.465
-0.465
-0.475
-0.49
-0.485
-0.475
-0.475
-0.495
-0.51
-0.5
-0.505
-0.48
-0.49
-0.505
-0.525
-0.525
-0.515
-0.49
-0.48
-0.505
-0.515
-0.515
-0.515
-0.52
-0.51
-0.515
-0.52
-0.545
-0.545
-0.54
-0.56
-0.57
-0.575
-0.59
-0.59
-0.585
-0.58
-0.595
-0.62
-0.63
-0.625
-0.625
-0.615
-0.625
-0.64
-0.66
-0.66
-0.67
-0.655
-0.655
-0.67
-0.68
-0.695
-0.66
-0.65
-0.665
-0.65
-0.675
-0.64
-0.615
-0.595
-0.6
-0.61
-0.59
-0.57
-0.515
-0.485
-0.47
-0.47
-0.455
-0.435
-0.385
-0.365
-0.325
-0.32
-0.32
-0.29
-0.285
-0.24
-0.25
-0.245
-0.235
-0.215
-0.19
-0.19
-0.2
-0.21
-0.22
-0.205
-0.19
-0.18
-0.2
-0.21
-0.225
-0.21
-0.21
-0.195
-0.2
-0.215
-0.22
-0.21
-0.21
-0.21
-0.22
-0.245
-0.245
-0.24
-0.23
-0.225
-0.24
-0.26
-0.265
-0.245
-0.245
-0.235
-0.255
-0.28
-0.27
-0.275
-0.25
-0.24
-0.245
-0.265
-0.28
-0.275
-0.25
-0.24
-0.24
-0.25
-0.27
-0.27
-0.245
-0.225
-0.24
-0.25
-0.26
-0.265
-0.255
-0.24
-0.24
-0.265
-0.26
-0.255
-0.25
-0.245
-0.245
-0.27
-0.25
-0.245
-0.245
-0.255
-0.28
-0.285
-0.285
-0.275
-0.25
-0.25
-0.265
-0.28
-0.295
-0.285
-0.27
-0.26
-0.265
-0.285
-0.305
-0.31
-0.28
-0.265
-0.265
-0.285
-0.305
-0.295
-0.295
-0.295
-0.3
-0.29
-0.3
-0.295
-0.28
-0.27
-0.28
-0.3
-0.29
-0.27
-0.265
-0.27
-0.265
-0.285
-0.275
-0.255
-0.225
-0.205
-0.22
-0.235
-0.255
-0.235
-0.22
-0.22
-0.23
-0.245
-0.265
-0.27
-0.29
-0.26
-0.25
-0.25
-0.26
-0.275
-0.28
-0.285
-0.305
-0.315
-0.335
-0.32
-0.33
-0.34
-0.33
-0.34
-0.36
-0.35
-0.325
-0.325
-0.34
-0.34
-0.365
-0.35
-0.33
-0.305
-0.315
-0.34
-0.35
-0.325
-0.31
-0.285
-0.29
-0.295
-0.31
-0.295
-0.29
-0.285
-0.315
-0.33
-0.345
-0.315
-0.26
-0.16
-0.045
0.08
0.195
0.325
0.48
0.665
0.845
1.045
1.245
1.47
1.69
1.835
1.91
1.905
1.85
1.72
1.505
1.205
0.865
0.565
0.325
0.2
0.195
0.235
0.225
0.19
0.14
0.08
0.05
0.02
-0.01
-0.05
-0.075
-0.115
-0.14
-0.165
-0.22
-0.25
-0.295
-0.325
-0.33
-0.36
-0.405
-0.44
-0.47
-0.465
-0.455
-0.44
-0.455
-0.49
-0.47
-0.49
-0.47
-0.465
-0.47
-0.485
-0.505
-0.495
-0.495
-0.485
-0.475
-0.5
-0.505
-0.52
-0.515
-0.505
-0.51
-0.51
-0.525
-0.53
-0.53
-0.525
-0.55
-0.575
-0.575
-0.56
-0.555
-0.55
-0.57
-0.6
-0.62
-0.61
-0.61
-0.61
-0.615
-0.64
-0.665
-0.665
-0.66
-0.655
-0.655
-0.68
-0.7
-0.7
-0.695
-0.685
-0.69
-0.695
-0.725
-0.71
-0.685
-0.675
-0.675
-0.675
-0.67
-0.645
-0.625
-0.6
-0.605
-0.615
-0.585
-0.55
-0.505
-0.48
-0.465
-0.465
-0.45
-0.42
-0.37
-0.335
-0.315
-0.32
-0.33
-0.315
-0.3
-0.275
-0.26
-0.255
-0.255
-0.26
-0.235
-0.24
-0.265
-0.265
-0.27
-0.275
-0.25
-0.255
-0.265
-0.26
-0.265
-0.26
-0.245
-0.245
-0.275
-0.275
-0.285
-0.265
-0.27
-0.245
-0.255
-0.27
-0.285
-0.28
-0.27
-0.255
-0.25
-0.265
-0.285
-0.295
-0.28
-0.275
-0.275
-0.285
-0.285
-0.285
-0.27
-0.28
-0.28
-0.28
-0.28
-0.27
-0.26
-0.255
-0.25
-0.27
-0.265
-0.26
-0.25
-0.245
-0.27
-0.285
-0.285
-0.265
-0.245
-0.24
-0.245
-0.265
-0.275
-0.27
-0.24
-0.235
-0.24
-0.265
-0.29
-0.275
-0.255
-0.235
-0.26
-0.275
-0.285
-0.285
-0.25
-0.245
-0.24
-0.255
-0.26
-0.27
-0.26
-0.24
-0.235
-0.26
-0.265
-0.255
-0.25
-0.245
-0.25
-0.245
-0.245
-0.235
-0.22
-0.21
-0.215
-0.23
-0.225
-0.2
-0.18
-0.17
-0.18
-0.195
-0.2
-0.195
-0.18
-0.17
-0.21
-0.23
-0.26
-0.255
-0.215
-0.2
-0.21
-0.23
-0.25
-0.265
-0.265
-0.245
-0.245
-0.27
-0.285
-0.295
-0.27
-0.26
-0.255
-0.265
-0.28
-0.275
-0.28
-0.275
-0.28
-0.27
-0.26
-0.25
-0.23
-0.23
-0.235
-0.235
-0.235
-0.225
-0.22
-0.2
-0.23
-0.22
-0.23
-0.235
-0.21
-0.14
-0.03
0.075
0.195
0.34
0.475
0.65
0.825
1.03
1.25
1.515
1.76
1.98
2.1
2.14
2.115
2.06
1.93
1.615
1.15
0.7
0.405
0.29
0.265
0.295
0.29
0.265
0.22
0.18
0.14
0.09
0.05
0.01
-0.03
-0.04
-0.045
-0.065
-0.115
-0.19
-0.22
-0.245
-0.24
-0.265
-0.3
-0.35
-0.385
-0.395
-0.36
-0.36
-0.365
-0.375
-0.41
-0.41
-0.41
-0.405
-0.41
-0.425
-0.425
-0.425
-0.43
-0.425
-0.44
-0.435
-0.44
-0.44
-0.45
-0.435
-0.455
-0.49
-0.475
-0.465
-0.455
-0.45
-0.465
-0.485
-0.505
-0.5
-0.485
-0.49
-0.505
-0.52
-0.53
-0.535
-0.53
-0.54
-0.535
-0.55
-0.58
-0.58
-0.585
-0.59
-0.59
-0.6
-0.605
-0.605
-0.61
-0.615
-0.615
-0.635
-0.645
-0.63
-0.605
-0.59
-0.59
-0.605
-0.61
-0.59
-0.535
-0.525
-0.52
-0.535
-0.525
-0.515
-0.47
-0.435
-0.415
-0.395
-0.39
-0.37
-0.32
-0.295
-0.265
-0.26
-0.26
-0.24
-0.22
-0.205
-0.215
-0.205
-0.205
-0.215
-0.19
-0.19
-0.2
-0.205
-0.215
-0.21
-0.19
-0.185
-0.195
-0.22
-0.23
-0.22
-0.22
-0.19
-0.2
-0.215
-0.23
-0.235
-0.215
-0.205
-0.215
-0.21
-0.23
-0.22
-0.215
-0.22
-0.22
-0.235
-0.235
-0.22
-0.215
-0.205
-0.215
-0.245
-0.24
-0.225
-0.2
-0.195
-0.205
-0.23
-0.245
-0.235
-0.21
-0.2
-0.2
-0.225
-0.24
-0.235
-0.23
-0.205
-0.205
-0.215
-0.215
-0.21
-0.195
-0.195
-0.205
-0.21
-0.215
-0.205
-0.19
-0.195
-0.2
-0.215
-0.22
-0.225
-0.2
-0.2
-0.215
-0.23
-0.235
-0.235
-0.215
-0.2
-0.21
-0.23
-0.245
-0.235
-0.22
-0.2
-0.2
-0.215
-0.24
-0.235
-0.22
-0.22
-0.215
-0.215
-0.235
-0.235
-0.22
-0.205
-0.21
-0.205
-0.21
-0.205
-0.195
-0.19
-0.19
-0.185
-0.165
-0.17
-0.15
-0.145
-0.16
-0.18
-0.17
-0.16
-0.145
-0.135
-0.15
-0.17
-0.185
-0.18
-0.17
-0.18
-0.195
-0.22
-0.215
-0.22
-0.21
-0.19
-0.21
-0.22
-0.235
-0.24
-0.24
-0.24
-0.265
-0.265
-0.27
-0.265
-0.25
-0.235
-0.245
-0.25
-0.255
-0.265
-0.275
-0.245
-0.24
-0.245
-0.255
-0.245
-0.225
-0.21
-0.225
-0.225
-0.24
-0.22
-0.21
-0.195
-0.195
-0.205
-0.24
-0.25
-0.225
-0.155
-0.035
0.06
0.145
0.225
0.295
0.365
0.46
0.56
0.71
0.91
1.135
1.365
1.56
1.765
1.92
2.015
2.015
1.93
1.705
1.345
0.965
0.665
0.505
0.395
0.35
0.31
0.29
0.29
0.3
0.285
0.235
0.185
0.145
0.09
0.06
0.04
-0.005
-0.055
-0.085
-0.11
-0.13
-0.135
-0.18
-0.22
-0.27
-0.305
-0.315
-0.31
-0.325
-0.37
-0.39
-0.405
-0.395
-0.375
-0.38
-0.39
-0.4
-0.415
-0.41
-0.405
-0.405
-0.42
-0.415
-0.415
-0.415
-0.42
-0.425
-0.455
-0.455
-0.45
-0.435
-0.44
-0.47
-0.49
-0.49
-0.49
-0.495
-0.46
-0.48
-0.49
-0.515
-0.535
-0.52
-0.51
-0.52
-0.54
-0.55
-0.545
-0.54
-0.55
-0.56
-0.575
-0.595
-0.585
-0.585
-0.59
-0.625
-0.665
-0.66
-0.66
-0.655
-0.645
-0.64
-0.665
-0.665
-0.67
-0.655
-0.645
-0.65
-0.65
-0.66
-0.625
-0.615
-0.595
-0.595
-0.59
-0.58
-0.535
-0.5
-0.475
-0.47
-0.455
-0.45
-0.43
-0.395
-0.345
-0.33
-0.315
-0.32
-0.305
-0.285
-0.25
-0.24
-0.225
-0.22
-0.225
-0.21
-0.21
-0.215
-0.21
-0.205
-0.21
-0.2
-0.195
-0.205
-0.22
-0.25
-0.235
-0.21
-0.195
-0.205
-0.225
-0.24
-0.235
-0.215
-0.2
-0.205
-0.215
-0.225
-0.23
-0.225
-0.215
-0.22
-0.24
-0.24
-0.245
-0.24
-0.225
-0.24
-0.255
-0.275
-0.25
-0.225
-0.23
-0.24
-0.255
-0.27
-0.28
-0.25
-0.24
-0.23
-0.255
-0.265
-0.275
-0.265
-0.255
-0.245
-0.245
-0.25
-0.25
-0.24
-0.23
-0.24
-0.255
-0.26
-0.25
-0.24
-0.225
-0.245
-0.255
-0.26
-0.235
-0.225
-0.225
-0.25
-0.255
-0.285
-0.275
-0.245
-0.23
-0.215
-0.23
-0.255
-0.255
-0.265
-0.24
-0.245
-0.25
-0.265
-0.26
-0.25
-0.225
-0.225
-0.24
-0.245
-0.24
-0.23
-0.215
-0.24
-0.25
-0.27
-0.255
-0.23
-0.22
-0.235
-0.235
-0.25
-0.25
-0.22
-0.22
-0.205
-0.22
-0.225
-0.21
-0.19
-0.17
-0.165
-0.195
-0.18
-0.175
-0.185
-0.19
-0.19
-0.195
-0.21
-0.205
-0.2
-0.19
-0.215
-0.245
-0.235
-0.23
-0.2
-0.2
-0.215
-0.255
-0.285
-0.27
-0.265
-0.25
-0.265
-0.295
-0.31
-0.305
-0.285
-0.26
-0.265
-0.285
-0.27
-0.265
-0.26
-0.26
-0.28
-0.27
-0.265
-0.26
-0.24
-0.23
-0.235
-0.245
-0.25
-0.245
-0.22
-0.195
-0.21
-0.225
-0.24
-0.245
-0.215
-0.135
-0.015
0.11
0.21
0.335
0.475
0.645
0.815
1.015
1.215
1.42
1.66
1.89
2.07
2.13
2.14
2.135
2.09
1.97
1.655
1.22
0.8
0.51
0.37
0.32
0.305
0.295
0.265
0.235
0.2
0.155
0.11
0.045
-0.01
-0.045
-0.03
-0.03
-0.06
-0.11
-0.155
-0.19
-0.22
-0.255
-0.29
-0.325
-0.36
-0.39
-0.395
-0.385
-0.395
-0.395
-0.395
-0.395
-0.39
-0.405
-0.425
-0.43
-0.445
-0.425
-0.405
-0.41
-0.43
-0.45
-0.47
-0.465
-0.44
-0.44
-0.47
-0.485
-0.49
-0.48
-0.47
-0.475
-0.48
-0.495
-0.51
-0.505
-0.5
-0.52
-0.52
-0.555
-0.55
-0.55
-0.535
-0.545
-0.56
-0.59
-0.605
-0.605
-0.605
-0.605
-0.615
-0.67
-0.665
-0.665
-0.655
-0.635
-0.645
-0.655
-0.67
-0.665
-0.66
-0.65
-0.655
-0.665
-0.67
-0.66
-0.65
-0.62
-0.625
-0.605
-0.605
-0.585
-0.54
-0.505
-0.49
-0.49
-0.48
-0.465
-0.435
-0.395
-0.375
-0.37
-0.355
-0.32
-0.29
-0.255
-0.24
-0.23
-0.23
-0.21
-0.21
-0.175
-0.19
-0.18
-0.185
-0.175
-0.155
-0.15
-0.155
-0.17
-0.19
-0.165
-0.145
-0.14
-0.125
-0.1
-0.075
-0.01
0.065
0.175
0.275
0.39
0.51
0.65
0.775
0.9
1.005
1.1
1.17
1.24
1.27
1.325
1.355
1.37
1.365
1.29
1.135
0.835
0.435
0.01
-0.4
-0.715
-0.98
-1.185
-1.375
-1.56
-1.71
-1.845
-1.91
-1.98
-2.015
-2.07
-2.115
-2.16
-2.18
-2.18
-2.185
-2.2
-2.22
-2.2
-2.15
-2.09
-2.03
-1.945
-1.835
-1.68
-1.495
-1.32
-1.195
-1.1
-1.025
-0.975
-0.905
-0.86
-0.82
-0.805
-0.78
-0.76
-0.715
-0.655
-0.63
-0.6
-0.555
-0.505
-0.43
-0.34
-0.29
-0.265
-0.24
-0.205
-0.175
-0.125
-0.105
-0.08
-0.04
0.0
0.06
0.105
0.125
0.125
0.155
0.19
0.225
0.25
0.27
0.28
0.325
0.355
0.4
0.435
0.45
0.46
0.48
0.51
0.545
0.59
0.61
0.645
0.65
0.71
0.745
0.77
0.825
0.83
0.875
0.915
0.965
1.005
1.03
1.035
1.05
1.07
1.1
1.14
1.17
1.19
1.195
1.22
1.255
1.3
1.305
1.305
1.31
1.315
1.325
1.33
1.33
1.31
1.305
1.3
1.3
1.3
1.26
1.225
1.175
1.135
1.135
1.105
1.06
1.01
0.96
0.91
0.875
0.85
0.79
0.74
0.67
0.63
0.605
0.575
0.535
0.485
0.445
0.425
0.4
0.37
0.305
0.255
0.205
0.175
0.16
0.13
0.105
0.055
0.01
0.0
0.005
-0.005
-0.025
-0.04
-0.065
-0.08
-0.07
-0.085
-0.09
-0.12
-0.14
-0.13
-0.14
-0.115
-0.145
-0.155
-0.175
-0.18
-0.15
-0.13
-0.165
-0.175
-0.2
-0.19
-0.175
-0.16
-0.17
-0.175
-0.195
-0.21
-0.19
-0.19
-0.205
-0.225
-0.225
-0.21
-0.215
-0.21
-0.225
-0.23
-0.25
-0.24
-0.225
-0.225
-0.235
-0.245
-0.26
-0.27
-0.255
-0.24
-0.24
-0.26
-0.275
-0.275
-0.27
-0.265
-0.265
-0.28
-0.28
-0.275
-0.28
-0.27
-0.28
-0.3
-0.3
-0.28
-0.26
-0.26
-0.27
-0.29
-0.32
-0.305
-0.29
-0.275
-0.29
-0.3
-0.31
-0.31
-0.305
-0.29
-0.3
-0.305
-0.3
-0.31
-0.305
-0.3
-0.305
-0.315
-0.32
-0.31
-0.31
-0.28
-0.285
-0.305
-0.32
-0.32
-0.31
-0.29
-0.305
-0.31
-0.34
-0.325
-0.31
-0.29
-0.29
-0.32
-0.33
-0.34
-0.32
-0.31
-0.315
-0.315
-0.325
-0.31
-0.295
-0.3
-0.32
-0.32
-0.32
-0.315
-0.3
-0.31
-0.32
-0.335
-0.325
-0.32
-0.31
-0.295
-0.3
-0.325
-0.335
-0.335
-0.32
-0.305
-0.31
-0.31
-0.32
-0.34
-0.335
-0.31
-0.315
-0.315
-0.315
-0.31
-0.305
-0.295
-0.31
-0.32
-0.34
-0.325
-0.3
-0.28
-0.295
-0.31
-0.33
-0.325
-0.315
-0.29
-0.305
-0.32
-0.31
-0.32
-0.31
-0.295
-0.315
-0.32
-0.315
-0.31
-0.305
-0.3
-0.305
-0.315
-0.325
-0.305
-0.28
-0.28
-0.29
-0.3
-0.315
-0.315
-0.31
-0.28
-0.29
-0.285
-0.315
-0.31
-0.305
-0.285
-0.28
-0.295
-0.305
-0.31
-0.3
-0.29
-0.3
-0.315
-0.32
-0.3
-0.29
-0.27
-0.29
-0.295
-0.325
-0.31
-0.295
-0.275
-0.28
-0.29
-0.305
-0.305
-0.295
-0.31
-0.305
-0.305
-0.31
-0.29
-0.285
-0.27
-0.29
-0.295
-0.3
-0.3
-0.29
-0.275
-0.28
-0.29
-0.315
-0.32
-0.305
-0.28
-0.29
-0.28
-0.315
-0.32
-0.29
-0.295
-0.29
-0.295
-0.29
-0.28
-0.27
-0.275
-0.28
-0.29
-0.3
-0.27
-0.25
-0.235
-0.25
-0.245
-0.255
-0.235
-0.22
-0.21
-0.2
-0.21
-0.22
-0.21
-0.21
-0.205
-0.195
-0.21
-0.225
-0.22
-0.22
-0.245
-0.24
-0.27
-0.265
-0.255
-0.23
-0.225
-0.23
-0.24
-0.265
-0.28
-0.28
-0.265
-0.285
-0.3
-0.305
-0.31
-0.315
-0.305
-0.315
-0.305
-0.31
-0.29
-0.285
-0.295
-0.28
-0.31
-0.32
-0.31
-0.28
-0.26
-0.26
-0.27
-0.28
-0.28
-0.265
-0.255
-0.25
-0.245
-0.255
-0.255
-0.265
-0.265
-0.27
-0.22
-0.135
-0.01
0.115
0.205
0.315
0.415
0.5
0.61
0.745
0.875
1.015
1.185
1.38
1.61
1.835
2.01
2.095
2.1
2.025
1.835
1.525
1.12
0.76
0.525
0.425
0.365
0.35
0.32
0.295
0.235
0.19
0.17
0.16
0.15
0.095
0.035
-0.03
-0.055
-0.08
-0.1
-0.125
-0.155
-0.215
-0.26
-0.295
-0.315
-0.345
-0.38
-0.42
-0.44
-0.445
-0.445
-0.45
-0.465
-0.475
-0.465
-0.455
-0.445
-0.445
-0.455
-0.48
-0.485
-0.485
-0.475
-0.475
-0.495
-0.515
-0.52
-0.515
-0.495
-0.495
-0.515
-0.525
-0.53
-0.53
-0.515
-0.52
-0.535
-0.545
-0.54
-0.52
-0.53
-0.53
-0.55
-0.585
-0.575
-0.58
-0.565
-0.57
-0.585
-0.605
-0.6
-0.625
-0.615
-0.63
-0.655
-0.665
-0.665
-0.66
-0.655
-0.665
-0.69
-0.69
-0.72
-0.705
-0.68
-0.695
-0.71
-0.72
-0.715
-0.72
-0.72
-0.71
-0.72
-0.74
-0.735
-0.71
-0.685
-0.695
-0.695
-0.69
-0.68
-0.645
-0.615
-0.615
-0.61
-0.6
-0.58
-0.55
-0.525
-0.51
-0.485
-0.475
-0.455
-0.405
-0.38
-0.37
-0.36
-0.345
-0.32
-0.295
-0.255
-0.24
-0.25
-0.255
-0.24
-0.23
-0.23
-0.205
-0.215
-0.215
-0.21
-0.195
-0.2
-0.21
-0.22
-0.22
-0.22
-0.205
-0.21
-0.21
-0.22
-0.22
-0.22
-0.21
-0.2
-0.22
-0.23
-0.26
-0.265
-0.255
-0.24
-0.235
-0.245
-0.255
-0.245
-0.225
-0.23
-0.245
-0.26
-0.275
-0.29
-0.265
-0.25
-0.255
-0.265
-0.29
-0.29
-0.27
-0.265
-0.27
-0.265
-0.295
-0.28
-0.265
-0.26
-0.265
-0.275
-0.295
-0.28
-0.265
-0.25
-0.245
-0.26
-0.285
-0.275
-0.26
-0.235
-0.235
-0.255
-0.265
-0.275
-0.265
-0.27
-0.255
-0.26
-0.27
-0.26
-0.26
-0.23
-0.245
-0.26
-0.285
-0.275
-0.26
-0.24
-0.24
-0.255
-0.265
-0.27
-0.28
-0.265
-0.26
-0.265
-0.26
-0.255
-0.24
-0.24
-0.235
-0.255
-0.265
-0.275
-0.265
-0.245
-0.24
-0.26
-0.265
-0.27
-0.26
-0.24
-0.245
-0.26
-0.275
-0.26
-0.255
-0.225
-0.24
-0.25
-0.25
-0.24
-0.225
-0.205
-0.205
-0.22
-0.24
-0.245
-0.23
-0.205
-0.19
-0.19
-0.215
-0.22
-0.2
-0.195
-0.21
-0.225
-0.23
-0.24
-0.23
-0.245
-0.24
-0.255
-0.275
-0.27
-0.25
-0.25
-0.245
-0.265
-0.295
-0.295
-0.285
-0.275
-0.275
-0.295
-0.32
-0.32
-0.3
-0.29
-0.295
-0.315
-0.31
-0.3
-0.285
-0.275
-0.29
-0.305
-0.305
-0.305
-0.295
-0.26
-0.255
-0.265
-0.285
-0.29
-0.275
-0.26
-0.255
-0.265
-0.27
-0.265
-0.25
-0.23
-0.245
-0.28
-0.285
-0.26
-0.15
-0.02
0.095
0.185
0.27
0.38
0.525
0.68
0.82
0.945
1.05
1.195
1.36
1.54
1.74
1.955
2.08
2.095
2.09
1.975
1.725
1.37
0.99
0.69
0.48
0.335
0.275
0.26
0.26
0.265
0.25
0.225
0.165
0.12
0.09
0.06
0.02
-0.005
-0.05
-0.085
-0.125
-0.165
-0.19
-0.21
-0.25
-0.305
-0.345
-0.355
-0.39
-0.39
-0.42
-0.435
-0.45
-0.445
-0.45
-0.425
-0.425
-0.455
-0.465
-0.465
-0.46
-0.46
-0.465
-0.48
-0.485
-0.49
-0.48
-0.465
-0.465
-0.495
-0.515
-0.51
-0.5
-0.495
-0.505
-0.52
-0.55
-0.545
-0.535
-0.515
-0.53
-0.555
-0.57
-0.575
-0.57
-0.57
-0.58
-0.605
-0.6
-0.63
-0.625
-0.625
-0.655
-0.66
-0.665
-0.68
-0.665
-0.675
-0.7
-0.7
-0.705
-0.71
-0.7
-0.695
-0.705
-0.72
-0.725
-0.725
-0.7
-0.69
-0.67
-0.67
-0.69
-0.675
-0.65
-0.615
-0.605
-0.6
-0.585
-0.56
-0.535
-0.49
-0.475
-0.445
-0.42
-0.4
-0.37
-0.34
-0.335
-0.32
-0.31
-0.29
-0.27
-0.26
-0.265
-0.28
-0.29
-0.275
-0.255
-0.235
-0.23
-0.25
-0.255
-0.26
-0.25
-0.23
-0.225
-0.245
-0.265
-0.27
-0.265
-0.255
-0.25
-0.255
-0.265
-0.285
-0.265
-0.255
-0.255
-0.27
-0.275
-0.265
-0.255
-0.245
-0.255
-0.265
-0.29
-0.28
-0.255
-0.245
-0.245
-0.265
-0.28
-0.27
-0.275
-0.235
-0.24
-0.25
-0.27
-0.275
-0.27
-0.25
-0.24
-0.25
-0.255
-0.25
-0.25
-0.225
-0.245
-0.255
-0.25
-0.25
-0.235
-0.23
-0.23
-0.25
-0.26
-0.25
-0.235
-0.21
-0.22
-0.225
-0.26
-0.255
-0.245
-0.24
-0.24
-0.23
-0.245
-0.25
-0.235
-0.225
-0.225
-0.235
-0.24
-0.245
-0.245
-0.22
-0.235
-0.245
-0.245
-0.215
-0.215
-0.21
-0.215
-0.24
-0.255
-0.24
-0.235
-0.2
-0.21
-0.225
-0.235
-0.225
-0.21
-0.19
-0.195
-0.19
-0.19
-0.185
-0.185
-0.17
-0.18
-0.18
-0.18
-0.17
-0.15
-0.15
-0.14
-0.165
-0.19
-0.2
-0.18
-0.175
-0.18
-0.19
-0.205
-0.205
-0.195
-0.195
-0.21
-0.22
-0.245
-0.255
-0.25
-0.24
-0.255
-0.27
-0.275
-0.29
-0.255
-0.225
-0.245
-0.25
-0.265
-0.255
-0.255
-0.25
-0.26
-0.265
-0.28
-0.265
-0.245
-0.21
-0.215
-0.22
-0.235
-0.245
-0.23
-0.225
-0.22
-0.205
-0.21
-0.21
-0.2
-0.205
-0.2
-0.13
-0.02
0.135
0.26
0.385
0.485
0.615
0.78
0.995
1.2
1.395
1.51
1.615
1.77
1.98
2.15
2.2
2.12
1.895
1.515
1.075
0.685
0.435
0.305
0.29
0.285
0.285
0.27
0.23
0.175
0.12
0.07
0.055
0.04
0.03
-0.005
-0.055
-0.105
-0.15
-0.155
-0.18
-0.215
-0.265
-0.315
-0.345
-0.35
-0.34
-0.355
-0.385
-0.41
-0.415
-0.41
-0.39
-0.395
-0.405
-0.41
-0.415
-0.42
-0.42
-0.42
-0.435
-0.445
-0.445
-0.445
-0.43
-0.45
-0.47
-0.47
-0.475
-0.465
-0.465
-0.465
-0.495
-0.51
-0.5
-0.48
-0.465
-0.48
-0.505
-0.525
-0.535
-0.525
-0.53
-0.53
-0.55
-0.575
-0.58
-0.57
-0.57
-0.575
-0.605
-0.635
-0.635
-0.615
-0.615
-0.615
-0.62
-0.64
-0.65
-0.635
-0.63
-0.63
-0.62
-0.62
-0.595
-0.57
-0.555
-0.55
-0.545
-0.53
-0.48
-0.45
-0.42
-0.405
-0.405
-0.39
-0.35
-0.305
-0.255
-0.255
-0.25
-0.255
-0.23
-0.195
-0.18
-0.18
-0.2
-0.205
-0.2
-0.17
-0.155
-0.16
-0.165
-0.175
-0.175
-0.16
-0.125
-0.095
-0.055
0.025
0.12
0.265
0.45
0.605
0.77
0.93
1.09
1.225
1.335
1.4
1.45
1.485
1.475
1.34
1.01
0.495
-0.07
-0.59
-0.98
-1.26
-1.51
-1.71
-1.94
-2.07
-2.12
-2.15
-2.15
-2.18
-2.215
-2.265
-2.285
-2.27
-2.225
-2.205
-2.19
-2.19
-2.125
-2.0
-1.835
-1.68
-1.525
-1.355
-1.19
-1.05
-0.98
-0.895
-0.855
-0.83
-0.805
-0.735
-0.68
-0.65
-0.605
-0.55
-0.5
-0.42
-0.335
-0.29
-0.24
-0.215
-0.19
-0.115
-0.065
-0.02
0.015
0.03
0.075
0.115
0.16
0.175
0.175
0.19
0.205
0.255
0.315
0.345
0.375
0.39
0.425
0.475
0.535
0.57
0.57
0.59
0.63
0.67
0.7
0.71
0.735
0.765
0.83
0.875
0.925
0.96
0.99
1.03
1.065
1.095
1.14
1.16
1.195
1.215
1.245
1.3
1.325
1.34
1.335
1.335
1.335
1.355
1.38
1.395
1.38
1.375
1.365
1.35
1.345
1.315
1.29
1.25
1.225
1.21
1.205
1.17
1.14
1.095
1.06
1.015
0.995
0.925
0.85
0.78
0.73
0.705
0.66
0.61
0.535
0.465
0.415
0.39
0.355
0.31
0.27
0.21
0.18
