Lead II
-0.36
-0.395
-0.42
-0.47
-0.485
-0.515
-0.525
-0.55
-0.57
-0.58
-0.625
-0.655
-0.67
-0.69
-0.7
-0.71
-0.74
-0.745
-0.73
-0.75
-0.74
-0.725
-0.725
-0.725
-0.745
-0.755
-0.77
-0.765
-0.755
-0.725
-0.675
-0.64
-0.61
-0.58
-0.565
-0.545
-0.54
-0.53
-0.51
-0.495
-0.485
-0.475
-0.46
-0.475
-0.495
-0.52
-0.555
-0.58
-0.635
-0.695
-0.735
-0.79
-0.825
-0.825
-0.815
-0.8
-0.78
-0.775
-0.785
-0.785
-0.795
-0.805
-0.81
-0.81
-0.8
-0.8
-0.8
-0.79
-0.8
-0.795
-0.78
-0.775
-0.765
-0.78
-0.78
-0.795
-0.82
-0.855
-0.87
-0.85
-0.79
-0.665
-0.455
-0.195
0.14
0.525
0.925
1.33
1.655
1.855
1.895
1.75
1.45
1.065
0.63
0.19
-0.22
-0.59
-0.885
-1.12
-1.28
-1.345
-1.325
-1.24
-1.1
-0.98
-0.92
-0.905
-0.935
-0.995
-1.05
-1.065
-1.075
-1.065
-1.05
-1.045
-1.04
-1.055
-1.065
-1.075
-1.08
-1.08
-1.08
-1.085
-1.085
-1.09
-1.095
-1.1
-1.085
-1.07
-1.05
-1.045
-1.055
-1.06
-1.075
-1.09
-1.08
-1.055
-1.02
-0.995
-0.975
-0.96
-0.945
-0.945
-0.935
-0.9
-0.885
-0.87
-0.835
-0.81
-0.78
-0.755
-0.72
-0.67
-0.625
-0.575
-0.555
-0.51
-0.495
-0.47
-0.435
-0.39
-0.34
-0.295
-0.235
-0.21
-0.175
-0.16
-0.12
-0.08
-0.045
-0.005
0.03
0.06
0.08
0.1
0.11
0.12
0.145
0.155
0.16
0.15
0.145
0.125
0.115
0.11
0.1
0.1
0.115
0.1
0.08
0.055
0.015
-0.02
-0.05
-0.075
-0.085
-0.1
-0.135
-0.155
-0.175
-0.205
-0.23
-0.245
-0.27
-0.295
-0.325
-0.365
-0.41
-0.44
-0.475
-0.495
-0.51
-0.52
-0.55
-0.575
-0.605
-0.625
-0.62
-0.62
-0.615
-0.61
-0.595
-0.605
-0.605
-0.62
-0.64
-0.63
-0.63
-0.625
-0.615
-0.59
-0.56
-0.515
-0.47
-0.425
-0.395
-0.38
-0.37
-0.36
-0.365
-0.355
-0.35
-0.355
-0.385
-0.415
-0.475
-0.54
-0.595
-0.645
-0.675
-0.7
-0.725
-0.725
-0.72
-0.705
-0.71
-0.715
-0.7
-0.72
-0.71
-0.71
-0.7
-0.7
-0.71
-0.705
-0.69
-0.68
-0.685
-0.675
-0.68
-0.675
-0.675
-0.66
-0.67
-0.675
-0.695
-0.705
-0.71
-0.675
-0.555
-0.355
-0.08
0.26
0.635
1.05
1.425
1.7
1.795
1.675
1.37
0.93
0.435
-0.03
-0.435
-0.755
-0.96
-1.075
-1.13
-1.17
-1.17
-1.14
-1.085
-1.015
-0.945
-0.895
-0.86
-0.85
-0.865
-0.875
-0.9
-0.915
-0.94
-0.95
-0.94
-0.94
-0.92
-0.915
-0.925
-0.92
-0.935
-0.94
-0.94
-0.93
-0.94
-0.93
-0.93
-0.94
-0.95
-0.94
-0.925
-0.905
-0.87
-0.85
-0.83
-0.825
-0.815
-0.81
-0.795
-0.765
-0.745
-0.705
-0.67
-0.64
-0.615
-0.6
-0.595
-0.575
-0.555
-0.535
-0.495
-0.48
-0.445
-0.405
-0.355
-0.34
-0.28
-0.25
-0.195
-0.165
-0.145
-0.115
-0.11
-0.085
-0.07
-0.02
0.01
0.065
0.105
0.13
0.145
0.16
0.17
0.175
0.185
0.205
0.205
0.22
0.205
0.2
0.21
0.215
0.225
0.225
0.215
0.2
0.17
0.145
0.1
0.065
0.06
0.04
0.035
0.035
-0.01
-0.035
-0.065
-0.1
-0.13
-0.155
-0.175
-0.2
-0.225
-0.26
-0.315
-0.35
-0.385
-0.405
-0.41
-0.415
-0.44
-0.465
-0.5
-0.545
-0.58
-0.625
-0.635
-0.66
-0.655
-0.67
-0.68
-0.71
-0.745
-0.75
-0.775
-0.78
-0.78
-0.755
-0.74
-0.73
-0.72
-0.725
-0.73
-0.74
-0.75
-0.74
-0.74
-0.735
-0.71
-0.685
-0.66
-0.615
-0.575
-0.54
-0.51
-0.475
-0.465
-0.455
-0.45
-0.43
-0.42
-0.4
-0.4
-0.39
-0.39
-0.38
-0.42
-0.46
-0.53
-0.575
-0.63
-0.68
-0.715
-0.725
-0.725
-0.735
-0.745
-0.745
-0.74
-0.735
-0.725
-0.705
-0.705
-0.7
-0.695
-0.72
-0.73
-0.74
-0.735
-0.72
-0.705
-0.69
-0.68
-0.68
-0.685
-0.685
-0.685
-0.69
-0.72
-0.77
-0.805
-0.8
-0.715
-0.57
-0.335
-0.01
0.35
0.745
1.155
1.505
1.76
1.84
1.725
1.43
1.04
0.61
0.145
-0.26
-0.63
-0.915
-1.135
-1.27
-1.35
-1.375
-1.365
-1.29
-1.21
-1.115
-1.025
-0.965
-0.93
-0.94
-0.96
-0.985
-1.0
-1.01
-1.02
-1.005
-1.01
-1.0
-1.015
-1.02
-1.04
-1.05
-1.045
-1.03
-1.005
-0.99
-0.985
-0.99
-1.01
-1.02
-1.025
-1.015
-0.995
-0.975
-0.955
-0.95
-0.925
-0.925
-0.915
-0.895
-0.88
-0.845
-0.815
-0.795
-0.785
-0.765
-0.775
-0.745
-0.72
-0.69
-0.655
-0.645
-0.635
-0.615
-0.59
-0.58
-0.56
-0.53
-0.48
-0.44
-0.39
-0.36
-0.33
-0.3
-0.275
-0.23
-0.2
-0.175
-0.135
-0.115
-0.08
-0.045
-0.005
0.02
0.06
0.08
0.085
0.075
0.07
0.05
0.045
0.06
0.08
0.09
0.09
0.08
0.06
0.03
0.005
-0.025
-0.06
-0.08
-0.115
-0.165
-0.18
-0.2
-0.225
-0.24
-0.265
-0.29
-0.33
-0.36
-0.4
-0.435
-0.475
-0.495
-0.505
-0.53
-0.545
-0.575
-0.595
-0.625
-0.645
-0.655
-0.67
-0.69
-0.71
-0.715
-0.725
-0.73
-0.73
-0.715
-0.705
-0.695
-0.705
-0.72
-0.72
-0.735
-0.73
-0.725
-0.7
-0.69
-0.675
-0.67
-0.665
-0.645
-0.615
-0.59
-0.55
-0.54
-0.52
-0.5
-0.49
-0.47
-0.435
-0.415
-0.405
-0.385
-0.395
-0.415
-0.445
-0.495
-0.555
-0.62
-0.665
-0.715
-0.735
-0.755
-0.76
-0.77
-0.775
-0.775
-0.785
-0.775
-0.785
-0.77
-0.765
-0.77
-0.765
-0.76
-0.745
-0.755
-0.745
-0.745
-0.75
-0.77
-0.775
-0.78
-0.775
-0.79
-0.805
-0.83
-0.835
-0.815
-0.745
-0.605
-0.375
-0.06
0.315
0.745
1.17
1.555
1.82
1.915
1.8
1.52
1.145
0.695
0.24
-0.19
-0.59
-0.905
-1.14
-1.285
-1.37
-1.38
-1.325
-1.24
-1.15
-1.055
-1.005
-0.985
-0.985
-1.02
-1.045
-1.07
-1.085
-1.08
-1.075
-1.07
-1.07
-1.08
-1.085
-1.115
-1.135
-1.13
-1.13
-1.115
-1.095
-1.09
-1.08
-1.085
-1.1
-1.12
-1.125
-1.14
-1.135
-1.125
-1.105
-1.09
-1.07
-1.05
-1.05
-1.04
-1.025
-0.995
-0.99
-0.99
-0.965
-0.96
-0.95
-0.935
-0.915
-0.875
-0.84
-0.805
-0.78
-0.77
-0.75
-0.735
-0.715
-0.685
-0.63
-0.585
-0.535
-0.515
-0.485
-0.465
-0.45
-0.42
-0.385
-0.345
-0.3
-0.285
-0.255
-0.24
-0.21
-0.19
-0.165
-0.14
-0.11
-0.09
-0.07
-0.075
-0.07
-0.07
-0.06
-0.06
-0.04
-0.03
-0.025
-0.035
-0.055
-0.085
-0.115
-0.135
-0.14
-0.14
-0.15
-0.16
-0.175
-0.2
-0.23
-0.26
-0.31
-0.33
-0.35
-0.385
-0.42
-0.455
-0.49
-0.515
-0.52
-0.535
-0.545
-0.565
-0.6
-0.62
-0.66
-0.675
-0.695
-0.705
-0.7
-0.7
-0.695
-0.695
-0.705
-0.71
-0.725
-0.735
-0.735
-0.74
-0.73
-0.735
-0.735
-0.73
-0.71
-0.68
-0.64
-0.595
-0.56
-0.53
-0.52
-0.5
-0.52
-0.515
-0.485
-0.47
-0.45
-0.41
-0.4
-0.425
-0.445
-0.475
-0.525
-0.575
-0.625
-0.665
-0.7
-0.735
-0.755
-0.775
-0.78
-0.785
-0.775
-0.775
-0.79
-0.765
-0.79
-0.795
-0.79
-0.79
-0.785
-0.78
-0.755
-0.75
-0.76
-0.76
-0.765
-0.765
-0.765
-0.765
-0.735
-0.73
-0.73
-0.765
-0.785
-0.815
-0.815
-0.77
-0.66
-0.465
-0.23
0.085
0.435
0.825
1.23
1.585
1.845
1.91
1.785
1.515
1.14
0.715
0.275
-0.14
-0.525
-0.83
-1.045
-1.195
-1.285
-1.28
-1.215
-1.125
-1.015
-0.93
-0.905
-0.905
-0.935
-0.98
-1.0
-1.015
-1.015
-1.015
-1.005
-1.015
-1.025
-1.045
-1.065
-1.06
-1.06
-1.06
-1.045
-1.03
-1.025
-1.035
-1.05
-1.065
-1.09
-1.085
-1.075
-1.06
-1.06
-1.055
-1.035
-1.03
-1.015
-1.0
-0.98
-0.965
-0.955
-0.95
-0.95
-0.925
-0.91
-0.875
-0.84
-0.805
-0.775
-0.735
-0.71
-0.675
-0.63
-0.6
-0.555
-0.5
-0.46
-0.425
-0.385
-0.345
-0.295
-0.26
-0.205
-0.165
-0.145
-0.115
-0.09
-0.055
-0.03
0.01
0.05
0.1
0.13
0.135
0.14
0.13
0.145
0.165
0.165
0.18
0.18
0.175
0.16
0.135
0.12
0.11
0.115
0.12
0.11
0.075
0.05
0.02
-0.03
-0.05
-0.075
-0.095
-0.115
-0.135
-0.165
-0.22
-0.245
-0.27
-0.29
-0.3
-0.32
-0.32
-0.355
-0.385
-0.405
-0.44
-0.465
-0.49
-0.495
-0.515
-0.535
-0.555
-0.56
-0.58
-0.58
-0.585
-0.585
-0.57
-0.58
-0.605
-0.625
-0.64
-0.635
-0.635
-0.615
-0.59
-0.545
-0.515
-0.49
-0.475
-0.47
-0.465
-0.43
-0.39
-0.37
-0.345
-0.32
-0.295
-0.285
-0.29
-0.305
-0.32
-0.37
-0.415
-0.49
-0.56
-0.61
-0.655
-0.67
-0.675
-0.67
-0.655
-0.63
-0.625
-0.635
-0.64
-0.66
-0.675
-0.675
-0.665
-0.65
-0.66
-0.66
-0.665
-0.665
-0.655
-0.655
-0.645
-0.645
-0.64
-0.635
-0.64
-0.645
-0.66
-0.675
-0.68
-0.69
-0.655
-0.575
-0.42
-0.205
0.11
0.495
0.92
1.335
1.685
1.885
1.885
1.685
1.31
0.86
0.395
-0.04
-0.415
-0.715
-0.93
-1.08
-1.175
-1.22
-1.225
-1.2
-1.11
-1.005
-0.92
-0.86
-0.835
-0.835
-0.87
-0.88
-0.91
-0.915
-0.9
-0.905
-0.9
-0.915
-0.92
-0.935
-0.95
-0.965
-0.96
-0.95
-0.945
-0.94
-0.945
-0.93
-0.925
-0.93
-0.93
-0.93
-0.925
-0.915
-0.91
-0.895
-0.875
-0.85
-0.825
-0.8
-0.785
-0.775
-0.765
-0.77
-0.755
-0.74
-0.7
-0.685
-0.67
-0.64
-0.615
-0.58
-0.56
-0.525
-0.49
-0.45
-0.435
-0.42
-0.395
-0.37
-0.34
-0.3
-0.26
-0.22
-0.195
-0.165
-0.145
-0.1
-0.08
-0.05
-0.02
0.02
0.06
0.085
0.11
0.125
0.145
0.17
0.16
0.175
0.205
0.195
0.195
0.195
0.195
0.185
0.175
0.15
0.13
0.12
0.115
0.08
0.065
0.035
0.02
0.005
-0.025
-0.045
-0.065
-0.105
-0.135
-0.16
-0.2
-0.225
-0.25
-0.285
-0.305
-0.35
-0.365
-0.395
-0.42
-0.425
-0.45
-0.475
-0.49
-0.5
-0.53
-0.57
-0.585
-0.61
-0.62
-0.635
-0.635
-0.645
-0.67
-0.665
-0.675
-0.675
-0.68
-0.675
-0.675
-0.66
-0.65
-0.64
-0.64
-0.64
-0.63
-0.635
-0.62
-0.61
-0.595
-0.57
-0.54
-0.505
-0.455
-0.415
-0.395
-0.39
-0.4
-0.4
-0.39
-0.38
-0.36
-0.365
-0.36
-0.35
-0.365
-0.42
-0.48
-0.545
-0.6
-0.635
-0.655
-0.665
-0.67
-0.68
-0.685
-0.69
-0.7
-0.69
-0.69
-0.675
-0.68
-0.695
-0.71
-0.715
-0.71
-0.695
-0.67
-0.64
-0.64
-0.635
-0.645
-0.655
-0.675
-0.675
-0.69
-0.715
-0.735
-0.74
-0.675
-0.52
-0.28
0.055
0.445
0.88
1.325
1.7
1.985
2.11
2.08
1.865
1.53
1.12
0.665
0.195
-0.25
-0.65
-0.98
-1.215
-1.335
-1.34
-1.295
-1.19
-1.085
-0.975
-0.91
-0.89
-0.895
-0.905
-0.935
-0.95
-0.965
-0.985
-0.995
-1.01
-1.01
-0.995
-0.985
-0.985
-0.98
-0.99
-1.005
-1.02
-1.025
-1.025
-1.02
-1.025
-1.025
-1.015
-1.005
-0.99
-0.97
-0.945
-0.93
-0.925
-0.92
-0.925
-0.935
-0.93
-0.91
-0.885
-0.85
-0.82
-0.805
-0.79
-0.78
-0.77
-0.76
-0.725
-0.695
-0.665
-0.645
-0.64
-0.605
-0.575
-0.535
-0.495
-0.445
-0.415
-0.385
-0.37
-0.36
-0.34
-0.3
-0.265
-0.205
-0.15
-0.125
-0.09
-0.07
-0.06
-0.05
-0.045
-0.01
0.01
0.03
0.045
0.035
0.05
0.065
0.06
0.06
0.055
0.04
0.03
0.005
-0.02
-0.045
-0.065
-0.07
-0.09
-0.105
-0.13
-0.16
-0.195
-0.235
-0.26
-0.28
-0.305
-0.33
-0.36
-0.39
-0.415
-0.445
-0.465
-0.485
-0.5
-0.515
-0.55
-0.58
-0.6
-0.62
-0.615
-0.615
-0.605
-0.6
-0.595
-0.615
-0.625
-0.63
-0.635
-0.635
-0.63
-0.63
-0.625
-0.615
-0.62
-0.615
-0.59
-0.55
-0.515
-0.49
-0.465
-0.465
-0.455
-0.45
-0.445
-0.42
-0.395
-0.365
-0.355
-0.34
-0.345
-0.375
-0.39
-0.425
-0.465
-0.505
-0.55
-0.6
-0.65
-0.685
-0.705
-0.715
-0.725
-0.715
-0.71
-0.725
-0.74
-0.75
-0.75
-0.755
-0.745
-0.725
-0.725
-0.72
-0.72
-0.735
-0.745
-0.735
-0.745
-0.73
-0.715
-0.7
-0.695
-0.71
-0.725
-0.755
-0.78
-0.795
-0.76
-0.67
-0.525
-0.275
0.045
0.395
0.8
1.215
1.595
1.86
1.945
1.845
1.59
1.235
0.81
0.38
-0.015
-0.38
-0.665
-0.89
-1.06
-1.19
-1.24
-1.225
-1.15
-1.055
-0.96
-0.885
-0.87
-0.875
-0.915
-0.94
-0.965
-0.97
-0.965
-0.975
-0.985
-1.0
-1.0
-1.015
-1.01
-1.01
-1.015
-1.01
-1.01
-1.005
-1.025
-1.025
-1.04
-1.035
-1.035
-1.02
-1.01
-1.015
-1.0
-0.985
-0.99
-0.975
-0.96
-0.96
-0.945
-0.945
-0.93
-0.92
-0.9
-0.865
-0.845
-0.81
-0.785
-0.755
-0.735
-0.715
-0.685
-0.65
-0.61
-0.575
-0.525
-0.495
-0.455
-0.425
-0.38
-0.34
-0.3
-0.27
-0.24
-0.225
-0.21
-0.2
-0.165
-0.13
-0.085
-0.03
0.015
0.04
0.065
0.065
0.075
0.08
0.1
0.11
0.125
0.145
0.16
0.165
0.16
0.16
0.15
0.155
0.135
0.13
0.105
0.09
0.07
0.05
0.025
0.015
0.0
-0.015
-0.045
-0.075
-0.12
-0.16
-0.18
-0.195
-0.205
-0.23
-0.25
-0.27
-0.305
-0.335
-0.36
-0.375
-0.385
-0.405
-0.425
-0.455
-0.475
-0.5
-0.5
-0.485
-0.475
-0.465
-0.485
-0.49
-0.505
-0.52
-0.525
-0.51
-0.475
-0.445
-0.415
-0.38
-0.36
-0.345
-0.33
-0.31
-0.285
-0.265
-0.25
-0.255
-0.245
-0.255
-0.255
-0.28
-0.305
-0.335
-0.405
-0.47
-0.525
-0.585
-0.615
-0.62
-0.625
-0.6
-0.595
-0.59
-0.6
-0.6
-0.595
-0.59
-0.595
-0.6
-0.605
-0.625
-0.62
-0.625
-0.605
-0.58
-0.585
-0.58
-0.565
-0.585
-0.62
-0.655
-0.675
-0.665
-0.6
-0.48
-0.275
0.0
0.33
0.71
1.13
1.525
1.865
2.075
2.085
1.945
1.655
1.295
0.89
0.485
0.105
-0.255
-0.56
-0.79
-0.95
-1.035
-1.035
-0.955
-0.85
-0.745
-0.695
-0.68
-0.705
-0.755
-0.79
-0.82
-0.835
-0.825
-0.83
-0.83
-0.845
-0.845
-0.85
-0.85
-0.835
-0.84
-0.86
-0.88
-0.895
-0.905
-0.91
-0.9
-0.9
-0.88
-0.87
-0.86
-0.86
-0.88
-0.87
-0.86
-0.835
-0.825
-0.82
-0.81
-0.805
-0.79
-0.765
-0.73
-0.705
-0.675
-0.66
-0.635
-0.615
-0.605
-0.585
-0.53
-0.48
-0.43
-0.4
-0.36
-0.315
-0.285
-0.23
-0.195
-0.15
-0.105
-0.075
-0.05
-0.01
0.015
0.055
0.11
0.15
0.185
0.225
0.235
0.25
0.26
0.28
0.295
0.315
0.34
0.355
0.365
0.365
0.36
0.355
0.35
0.35
0.335
0.315
0.3
0.28
0.27
0.27
0.275
0.26
0.245
0.225
0.175
0.135
0.1
0.07
0.055
0.05
0.035
0.015
-0.01
-0.05
-0.085
-0.12
-0.135
-0.185
-0.195
-0.215
-0.235
-0.25
-0.275
-0.28
-0.255
-0.26
-0.25
-0.25
-0.27
-0.28
-0.325
-0.34
-0.34
-0.335
-0.325
-0.3
-0.29
-0.27
-0.245
-0.22
-0.19
-0.155
-0.12
-0.1
-0.085
-0.065
-0.055
-0.045
-0.03
-0.02
-0.015
-0.01
-0.015
-0.035
-0.07
-0.13
-0.195
-0.265
-0.305
-0.35
-0.36
-0.365
-0.38
-0.39
-0.39
-0.39
-0.385
-0.385
-0.365
-0.365
-0.365
-0.385
-0.375
-0.385
-0.39
-0.39
-0.395
-0.395
-0.395
-0.4
-0.405
-0.405
-0.4
-0.395
-0.4
-0.42
-0.415
-0.39
-0.325
-0.175
0.015
0.275
0.595
0.98
1.38
1.75
2.035
2.155
2.05
1.76
1.345
0.865
0.4
-0.03
-0.365
-0.605
-0.765
-0.84
-0.885
-0.885
-0.855
-0.775
-0.705
-0.615
-0.565
-0.55
-0.55
-0.575
-0.62
-0.63
-0.65
-0.665
-0.66
-0.655
-0.66
-0.665
-0.67
-0.685
-0.68
-0.685
-0.68
-0.675
-0.65
-0.63
-0.64
-0.64
-0.635
-0.645
-0.675
-0.68
-0.675
-0.66
-0.61
-0.58
-0.555
-0.54
-0.515
-0.5
-0.475
-0.455
-0.42
-0.42
-0.385
-0.37
-0.35
-0.325
-0.295
-0.245
-0.215
-0.18
-0.16
-0.145
-0.13
-0.11
-0.06
-0.03
0.015
0.04
0.085
0.115
0.14
0.17
0.2
0.24
0.27
0.31
0.325
0.355
0.38
0.41
0.435
0.455
0.49
0.51
0.5
0.49
0.48
0.48
0.47
0.48
0.495
0.49
0.495
0.48
0.455
0.415
0.38
0.365
0.345
0.325
0.31
0.29
0.27
0.24
0.205
0.18
0.16
0.15
0.125
0.09
0.055
-0.015
-0.04
-0.06
-0.08
-0.09
-0.095
-0.115
-0.155
-0.19
-0.225
-0.26
-0.29
-0.32
-0.33
-0.36
-0.38
-0.4
-0.43
-0.44
-0.455
-0.445
-0.43
-0.415
-0.41
-0.41
-0.425
-0.44
-0.44
-0.435
-0.41
-0.39
-0.375
-0.37
-0.37
-0.385
-0.37
-0.355
-0.305
-0.255
-0.21
-0.175
-0.16
-0.155
-0.165
-0.155
-0.13
-0.105
-0.085
-0.07
-0.075
-0.105
-0.145
-0.165
-0.215
-0.24
-0.3
-0.32
-0.345
-0.395
-0.445
-0.465
-0.48
-0.48
-0.45
-0.43
-0.41
-0.415
-0.42
-0.445
-0.46
-0.465
-0.455
-0.45
-0.47
-0.46
-0.455
-0.46
-0.455
-0.44
-0.425
-0.43
-0.43
-0.42
-0.425
-0.455
-0.51
-0.515
-0.49
-0.375
-0.175
0.13
0.48
0.865
1.25
1.615
1.925
2.13
2.215
2.14
1.915
1.56
1.135
0.66
0.195
-0.215
-0.57
-0.85
-1.04
-1.145
-1.145
-1.09
-0.975
-0.87
-0.765
-0.69
-0.66
-0.68
-0.69
-0.73
-0.77
-0.785
-0.79
-0.79
-0.775
-0.775
-0.75
-0.78
-0.785
-0.805
-0.815
-0.81
-0.805
-0.795
-0.795
-0.805
-0.8
-0.79
-0.785
-0.775
-0.765
-0.745
-0.75
-0.74
-0.74
-0.75
-0.745
-0.72
-0.695
-0.675
-0.64
-0.62
-0.625
-0.625
-0.62
-0.605
-0.585
-0.55
-0.51
-0.495
-0.465
-0.44
-0.41
-0.39
-0.365
-0.335
-0.3
-0.28
-0.275
-0.265
-0.24
-0.215
-0.18
-0.135
-0.095
-0.055
-0.035
-0.02
-0.01
0.005
0.025
0.055
0.085
0.125
0.16
0.185
0.195
0.215
0.23
0.235
0.245
0.255
0.275
0.27
0.27
0.255
0.24
0.22
0.21
0.21
0.195
0.195
0.17
0.145
0.115
0.085
0.035
0.02
-0.005
0.0
-0.02
-0.04
-0.075
-0.105
-0.135
-0.16
-0.195
-0.225
-0.24
-0.255
-0.27
-0.28
-0.32
-0.335
-0.34
-0.365
-0.365
-0.385
-0.395
-0.405
-0.415
-0.425
-0.43
-0.425
-0.41
-0.405
-0.39
-0.39
-0.395
-0.4
-0.41
-0.41
-0.415
-0.41
-0.39
-0.36
-0.345
-0.315
-0.305
-0.27
-0.25
-0.245
-0.22
-0.2
-0.195
-0.165
-0.145
-0.145
-0.125
-0.115
-0.11
-0.13
-0.135
-0.165
-0.215
-0.275
-0.345
-0.395
-0.44
-0.47
-0.485
-0.495
-0.505
-0.51
-0.535
-0.545
-0.55
-0.54
-0.525
-0.525
-0.52
-0.525
-0.52
-0.525
-0.54
-0.54
-0.54
-0.535
-0.535
-0.54
-0.55
-0.555
-0.555
-0.55
-0.555
-0.565
-0.59
-0.615
-0.63
-0.63
-0.565
-0.445
-0.25
0.02
0.365
0.75
1.18
1.58
1.925
2.13
2.185
2.075
1.83
1.505
1.135
0.75
0.375
0.04
-0.26
-0.54
-0.76
-0.935
-1.035
-1.065
-1.025
-0.935
-0.84
-0.77
-0.73
-0.725
-0.75
-0.785
-0.795
-0.815
-0.835
-0.85
-0.855
-0.865
-0.87
-0.86
-0.85
-0.855
-0.855
-0.865
-0.89
-0.895
-0.895
-0.895
-0.895
-0.9
-0.91
-0.905
-0.905
-0.92
-0.915
-0.905
-0.885
-0.865
-0.86
-0.855
-0.865
-0.87
-0.85
-0.84
-0.83
-0.8
-0.77
-0.745
-0.74
-0.72
-0.715
-0.7
-0.68
-0.65
-0.62
-0.58
-0.555
-0.53
-0.495
-0.46
-0.42
-0.38
-0.35
-0.305
-0.285
-0.28
-0.255
-0.21
-0.165
-0.1
-0.055
-0.015
0.015
0.045
0.055
0.08
0.11
0.145
0.175
0.205
0.23
0.25
0.255
0.27
0.27
0.285
0.285
0.28
0.27
0.25
0.215
0.225
0.205
0.215
0.215
0.21
0.19
0.155
0.12
0.085
0.065
0.045
0.03
0.01
-0.005
-0.04
-0.07
-0.1
-0.13
-0.16
-0.18
-0.195
-0.22
-0.245
-0.27
-0.285
-0.295
-0.305
-0.295
-0.3
-0.3
-0.315
-0.33
-0.345
-0.36
-0.36
-0.365
-0.335
-0.305
-0.295
-0.275
-0.235
-0.21
-0.195
-0.16
-0.145
-0.13
-0.13
-0.11
-0.105
-0.085
-0.08
-0.065
-0.055
-0.055
-0.095
-0.145
-0.2
-0.27
-0.33
-0.37
-0.4
-0.43
-0.415
-0.41
-0.415
-0.405
-0.395
-0.39
-0.39
-0.415
-0.42
-0.43
-0.44
-0.445
-0.435
-0.42
-0.405
-0.405
-0.43
-0.435
-0.455
-0.465
-0.475
-0.475
-0.485
-0.49
-0.5
-0.49
-0.44
-0.335
-0.12
0.17
0.545
0.96
1.425
1.835
2.125
2.21
2.07
1.775
1.365
0.915
0.445
0.04
-0.27
-0.53
-0.69
-0.795
-0.845
-0.86
-0.835
-0.75
-0.675
-0.61
-0.575
-0.59
-0.6
-0.625
-0.65
-0.685
-0.7
-0.7
-0.685
-0.68
-0.68
-0.665
-0.68
-0.705
-0.72
-0.73
-0.745
-0.725
-0.71
-0.685
-0.67
-0.665
-0.68
-0.68
-0.69
-0.68
-0.665
-0.655
-0.63
-0.63
-0.62
-0.605
-0.585
-0.555
-0.53
-0.48
-0.47
-0.44
-0.42
-0.415
-0.4
-0.38
-0.35
-0.295
-0.245
-0.21
-0.185
-0.155
-0.14
-0.125
-0.085
-0.05
0.015
0.055
0.075
0.13
0.15
0.185
0.2
0.255
0.28
0.31
0.355
0.38
0.39
0.415
0.42
0.45
0.465
0.485
0.515
0.51
0.505
0.49
0.47
0.465
0.47
0.455
0.46
0.45
0.425
0.405
0.38
0.375
0.365
0.36
0.345
0.31
0.265
0.23
0.2
0.17
0.175
0.17
0.165
0.14
0.11
0.075
0.025
-0.01
-0.07
-0.085
-0.105
-0.135
-0.165
-0.185
-0.21
-0.235
-0.27
-0.28
-0.3
-0.3
-0.31
-0.33
-0.34
-0.34
-0.345
-0.34
-0.335
-0.335
-0.34
-0.345
-0.35
-0.355
-0.35
-0.335
-0.325
-0.315
-0.315
-0.3
-0.285
-0.25
-0.21
-0.195
-0.16
-0.135
-0.105
-0.09
-0.09
-0.08
-0.08
-0.06
-0.035
-0.02
-0.005
0.0
0.005
-0.04
-0.095
-0.155
-0.22
-0.27
-0.305
-0.335
-0.36
-0.36
-0.38
-0.37
-0.375
-0.37
-0.375
-0.37
-0.365
-0.365
-0.375
-0.375
-0.38
-0.39
-0.39
-0.38
-0.375
-0.375
-0.37
-0.38
-0.39
-0.39
-0.385
-0.395
-0.4
-0.425
-0.445
-0.46
-0.435
-0.335
-0.15
0.12
0.49
0.92
1.37
1.795
2.11
2.255
2.19
1.935
1.55
1.09
0.595
0.12
-0.315
-0.64
-0.885
-1.035
-1.08
-1.055
-0.98
-0.88
-0.79
-0.705
-0.655
-0.63
-0.625
-0.635
-0.665
-0.69
-0.705
-0.725
-0.745
-0.73
-0.725
-0.725
-0.73
-0.745
-0.755
-0.755
-0.75
-0.74
-0.725
-0.7
-0.705
-0.705
-0.715
-0.745
-0.735
-0.74
-0.715
-0.7
-0.675
-0.64
-0.63
-0.63
-0.625
-0.605
-0.6
-0.57
-0.565
-0.545
-0.525
-0.505
-0.485
-0.465
-0.44
-0.4
-0.395
-0.37
-0.355
-0.35
-0.33
-0.31
-0.27
-0.23
-0.18
-0.14
-0.105
-0.075
-0.06
-0.045
0.0
0.03
0.04
0.075
0.095
0.135
0.16
0.19
0.205
0.255
0.27
0.295
0.3
0.3
0.295
0.295
0.305
0.325
0.33
0.34
0.335
0.325
0.295
0.27
0.25
0.235
0.215
0.2
0.16
0.145
0.11
0.095
0.085
0.07
0.05
0.005
-0.025
-0.05
-0.09
-0.145
-0.175
-0.18
-0.19
-0.215
-0.24
-0.265
-0.295
-0.32
-0.325
-0.33
-0.335
-0.355
-0.37
-0.38
-0.375
-0.355
-0.35
-0.33
-0.31
-0.33
-0.33
-0.34
-0.345
-0.345
-0.325
-0.3
-0.265
-0.245
-0.215
-0.18
-0.15
-0.145
-0.115
-0.095
-0.09
-0.08
-0.07
-0.065
-0.05
-0.045
-0.04
-0.06
-0.1
-0.165
-0.235
-0.3
-0.36
-0.39
-0.405
-0.41
-0.41
-0.415
-0.425
-0.425
-0.44
-0.44
-0.44
-0.435
-0.44
-0.45
-0.445
-0.45
-0.455
-0.435
-0.425
-0.415
-0.42
-0.42
-0.435
-0.46
-0.49
-0.51
-0.52
-0.515
-0.52
-0.48
-0.405
-0.25
0.005
0.33
0.73
1.17
1.6
1.97
2.205
2.245
2.095
1.82
1.465
1.05
0.625
0.24
-0.09
-0.38
-0.605
-0.79
-0.91
-0.965
-0.935
-0.86
-0.75
-0.675
-0.635
-0.645
-0.67
-0.7
-0.735
-0.745
-0.755
-0.76
-0.77
-0.765
-0.765
-0.755
-0.76
-0.765
-0.78
-0.795
-0.795
-0.805
-0.81
-0.81
-0.795
-0.785
-0.77
-0.765
-0.78
-0.79
-0.8
-0.805
-0.79
-0.79
-0.765
-0.755
-0.745
-0.735
-0.725
-0.71
-0.69
-0.665
-0.66
-0.65
-0.63
-0.615
-0.585
-0.565
-0.52
-0.475
-0.445
-0.4
-0.36
-0.35
-0.31
-0.27
-0.23
-0.185
-0.155
-0.125
-0.09
-0.07
-0.04
-0.005
0.045
0.095
0.13
0.16
0.195
0.225
0.235
0.28
0.31
0.345
0.365
0.375
0.38
0.385
0.385
0.375
0.39
0.385
0.39
0.415
0.415
0.425
0.4
0.385
0.365
0.33
0.32
0.295
0.275
0.25
0.23
0.215
0.195
0.18
0.16
0.155
0.125
0.09
0.06
0.01
-0.015
-0.04
-0.045
-0.05
-0.055
-0.065
-0.08
-0.105
-0.14
-0.165
-0.185
-0.195
-0.2
-0.195
-0.185
-0.18
-0.185
-0.19
-0.205
-0.18
-0.175
-0.16
-0.145
-0.145
-0.13
-0.125
-0.1
-0.065
-0.04
0.0
0.02
0.045
0.055
0.065
0.065
0.07
0.065
0.06
0.03
-0.015
-0.06
-0.12
-0.175
-0.205
-0.23
-0.255
-0.25
-0.27
-0.285
-0.285
-0.295
-0.29
-0.28
-0.265
-0.27
-0.28
-0.3
-0.335
-0.36
-0.38
-0.35
-0.305
-0.21
-0.095
0.055
0.2
0.35
0.49
0.635
0.795
0.975
1.17
1.37
1.565
1.755
1.955
2.15
2.35
2.54
2.695
2.795
2.83
2.84
2.785
2.685
2.51
2.28
2.015
1.705
1.375
0.995
0.595
0.145
-0.27
-0.595
-0.795
-0.87
-0.865
-0.82
-0.805
-0.795
-0.81
-0.84
-0.88
-0.92
-0.95
-0.985
-1.025
-1.04
-1.035
-1.045
-1.04
-1.05
-1.075
-1.075
-1.11
-1.13
-1.15
-1.155
-1.175
-1.195
-1.2
-1.235
-1.24
-1.245
-1.25
-1.245
-1.225
-1.24
-1.24
-1.26
-1.26
-1.27
-1.28
-1.275
-1.265
-1.26
-1.25
-1.24
-1.22
-1.2
-1.185
-1.165
-1.145
-1.11
-1.085
-1.06
-1.03
-0.975
-0.93
-0.88
-0.84
-0.805
-0.775
-0.73
-0.715
-0.685
-0.63
-0.585
-0.525
-0.46
-0.395
-0.345
-0.295
-0.26
-0.215
-0.155
-0.12
-0.08
-0.06
-0.03
-0.005
0.03
0.055
0.08
0.12
0.13
0.13
0.115
0.11
0.1
0.085
0.09
0.095
0.095
0.09
0.095
0.07
0.055
0.01
0.0
-0.01
-0.035
-0.055
-0.08
-0.1
-0.13
-0.145
-0.14
-0.145
-0.135
-0.145
-0.18
-0.205
-0.23
-0.255
-0.26
-0.245
-0.225
-0.205
-0.185
-0.18
-0.19
-0.19
-0.2
-0.185
-0.18
-0.165
-0.16
-0.145
-0.135
-0.125
-0.115
-0.07
-0.03
-0.005
0.03
0.045
0.05
0.055
0.07
0.09
0.125
0.155
0.17
0.18
0.18
0.165
0.11
0.06
0.01
-0.04
-0.075
-0.125
-0.145
-0.17
-0.195
-0.2
-0.205
-0.195
-0.18
-0.165
-0.185
-0.19
-0.195
-0.205
-0.205
-0.205
-0.185
-0.165
-0.15
-0.165
-0.18
-0.205
-0.215
-0.225
-0.22
-0.205
-0.2
-0.2
-0.205
-0.23
-0.26
-0.295
-0.27
-0.175
-0.005
0.255
0.585
0.97
1.355
1.73
2.04
2.29
2.4
2.37
2.21
1.94
1.595
1.225
0.855
0.51
0.18
-0.105
-0.34
-0.525
-0.65
-0.685
-0.665
-0.6
-0.495
-0.415
-0.355
-0.335
-0.355
-0.37
-0.4
-0.435
-0.44
-0.435
-0.425
-0.435
-0.43
-0.45
-0.44
-0.46
-0.47
-0.475
-0.465
-0.46
-0.455
-0.445
-0.445
-0.455
-0.46
-0.465
-0.455
-0.42
-0.395
-0.385
-0.37
-0.36
-0.365
-0.355
-0.345
-0.33
-0.305
-0.28
-0.24
-0.21
-0.18
-0.16
-0.125
-0.1
-0.06
-0.035
0.0
0.035
0.07
0.105
0.14
0.175
0.22
0.275
0.32
0.36
0.395
0.425
0.45
0.485
0.515
0.55
0.585
0.61
0.64
0.67
0.69
0.715
0.75
0.765
0.79
0.805
0.81
0.815
0.815
0.82
0.835
0.855
0.855
0.865
0.855
0.835
0.82
0.805
0.78
0.765
0.765
0.755
0.735
0.725
0.69
0.65
0.615
0.58
0.565
0.53
0.49
0.455
0.405
0.34
0.315
0.28
0.26
0.245
0.215
0.185
0.15
0.11
0.08
0.045
0.015
0.015
-0.015
-0.035
-0.05
-0.085
-0.095
-0.1
-0.1
-0.09
-0.09
-0.1
-0.1
-0.11
-0.13
-0.12
-0.105
-0.09
-0.08
-0.07
-0.08
-0.085
-0.065
-0.035
0.005
0.035
0.075
0.11
0.145
0.175
0.195
0.2
0.195
0.185
0.165
0.125
0.095
0.04
0.015
-0.02
-0.06
-0.105
-0.15
-0.185
-0.205
-0.215
-0.23
-0.23
-0.225
-0.215
-0.2
-0.19
-0.185
-0.19
-0.175
-0.19
-0.19
-0.205
-0.21
-0.235
-0.23
-0.23
-0.23
-0.215
-0.195
-0.185
-0.205
-0.24
-0.285
-0.295
-0.25
-0.11
0.13
0.435
0.785
1.125
1.49
1.835
2.115
2.27
2.215
1.97
1.59
1.13
0.625
0.175
-0.22
-0.5
-0.72
-0.865
-0.94
-0.955
-0.9
-0.82
-0.71
-0.61
-0.53
-0.475
-0.475
-0.495
-0.53
-0.57
-0.585
-0.595
-0.6
-0.595
-0.59
-0.61
-0.62
-0.63
-0.63
-0.635
-0.63
-0.625
-0.615
-0.62
-0.62
-0.615
-0.595
-0.6
-0.585
-0.58
-0.575
-0.57
-0.55
-0.54
