Lead II
-0.66
-0.645
-0.635
-0.615
-0.585
-0.565
-0.55
-0.53
-0.505
-0.475
-0.45
-0.41
-0.36
-0.35
-0.325
-0.3
-0.285
-0.25
-0.22
-0.195
-0.15
-0.125
-0.09
-0.06
-0.025
0.015
0.055
0.095
0.145
0.16
0.165
0.185
0.195
0.22
0.25
0.27
0.29
0.305
0.295
0.295
0.265
0.265
0.265
0.26
0.255
0.245
0.22
0.21
0.185
0.16
0.125
0.095
0.065
0.035
-0.005
-0.045
-0.085
-0.115
-0.14
-0.16
-0.175
-0.2
-0.225
-0.27
-0.32
-0.345
-0.37
-0.405
-0.41
-0.425
-0.43
-0.445
-0.46
-0.47
-0.485
-0.485
-0.505
-0.495
-0.505
-0.51
-0.52
-0.52
-0.505
-0.5
-0.485
-0.47
-0.455
-0.465
-0.485
-0.505
-0.51
-0.52
-0.505
-0.5
-0.455
-0.42
-0.38
-0.36
-0.34
-0.33
-0.31
-0.3
-0.29
-0.285
-0.29
-0.285
-0.275
-0.275
-0.26
-0.275
-0.29
-0.33
-0.395
-0.465
-0.53
-0.58
-0.625
-0.645
-0.675
-0.695
-0.72
-0.745
-0.78
-0.79
-0.79
-0.75
-0.66
-0.545
-0.385
-0.21
-0.03
0.15
0.33
0.535
0.75
0.99
1.215
1.435
1.625
1.795
1.925
2.045
2.14
2.22
2.255
2.255
2.24
2.21
2.18
2.16
2.145
2.15
2.18
2.215
2.23
2.21
2.14
2.045
1.91
1.725
1.48
1.155
0.805
0.385
-0.1
-0.575
-0.98
-1.265
-1.37
-1.395
-1.375
-1.34
-1.34
-1.365
-1.425
-1.475
-1.515
-1.55
-1.565
-1.59
-1.6
-1.605
-1.635
-1.655
-1.685
-1.685
-1.705
-1.73
-1.765
-1.8
-1.815
-1.845
-1.87
-1.88
-1.9
-1.93
-1.955
-1.965
-2.0
-2.035
-2.05
-2.055
-2.06
-2.065
-2.065
-2.07
-2.075
-2.08
-2.09
-2.09
-2.08
-2.075
-2.07
-2.06
-2.05
-2.06
-2.03
-2.02
-1.98
-1.95
-1.93
-1.89
-1.855
-1.83
-1.805
-1.745
-1.69
-1.625
-1.565
-1.51
-1.46
-1.425
-1.385
-1.355
-1.31
-1.265
-1.21
-1.15
-1.11
-1.07
-1.03
-0.99
-0.975
-0.93
-0.895
-0.85
-0.815
-0.77
-0.75
-0.73
-0.71
-0.695
-0.665
-0.635
-0.605
-0.605
-0.61
-0.625
-0.645
-0.64
-0.65
-0.635
-0.625
-0.62
-0.63
-0.63
-0.655
-0.665
-0.685
-0.695
-0.705
-0.71
-0.72
-0.73
-0.74
-0.755
-0.765
-0.78
-0.765
-0.755
-0.755
-0.76
-0.75
-0.75
-0.73
-0.705
-0.675
-0.62
-0.565
-0.54
-0.53
-0.54
-0.56
-0.58
-0.605
-0.615
-0.635
-0.645
-0.665
-0.685
-0.725
-0.725
-0.73
-0.745
-0.75
-0.755
-0.76
-0.78
-0.785
-0.785
-0.755
-0.76
-0.74
-0.735
-0.725
-0.74
-0.76
-0.765
-0.765
-0.755
-0.75
-0.735
-0.74
-0.735
-0.735
-0.745
-0.73
-0.725
-0.73
-0.72
-0.73
-0.755
-0.78
-0.81
-0.825
-0.825
-0.79
-0.715
-0.565
-0.385
-0.13
0.215
0.615
1.055
1.475
1.815
1.985
1.93
1.725
1.39
0.98
0.545
0.13
-0.27
-0.585
-0.875
-1.1
-1.205
-1.2
-1.125
-0.985
-0.87
-0.79
-0.77
-0.805
-0.855
-0.905
-0.94
-0.965
-0.96
-0.945
-0.925
-0.93
-0.94
-0.955
-0.955
-0.965
-0.96
-0.97
-0.98
-1.0
-1.01
-1.005
-1.01
-0.995
-0.985
-0.99
-0.985
-1.0
-1.01
-1.01
-1.01
-0.995
-0.98
-0.96
-0.955
-0.94
-0.935
-0.91
-0.895
-0.88
-0.86
-0.84
-0.83
-0.81
-0.77
-0.73
-0.68
-0.625
-0.58
-0.55
-0.515
-0.49
-0.46
-0.425
-0.375
-0.325
-0.285
-0.24
-0.195
-0.16
-0.12
-0.085
-0.04
0.01
0.05
0.075
0.12
0.13
0.15
0.19
0.22
0.255
0.265
0.26
0.24
0.23
0.21
0.205
0.205
0.2
0.185
0.17
0.155
0.135
0.13
0.115
0.095
0.07
0.045
0.01
-0.02
-0.055
-0.075
-0.1
-0.12
-0.14
-0.165
-0.2
-0.245
-0.28
-0.315
-0.33
-0.345
-0.355
-0.355
-0.37
-0.38
-0.405
-0.425
-0.44
-0.455
-0.465
-0.47
-0.485
-0.505
-0.525
-0.53
-0.52
-0.495
-0.47
-0.455
-0.44
-0.43
-0.435
-0.435
-0.43
-0.43
-0.425
-0.41
-0.38
-0.37
-0.37
-0.35
-0.32
-0.305
-0.25
-0.235
-0.195
-0.175
-0.17
-0.16
-0.14
-0.115
-0.09
-0.08
-0.095
-0.11
-0.165
-0.215
-0.275
-0.32
-0.365
-0.395
-0.405
-0.425
-0.43
-0.43
-0.425
-0.415
-0.43
-0.425
-0.41
-0.415
-0.43
-0.425
-0.44
-0.46
-0.48
-0.49
-0.49
-0.49
-0.45
-0.365
-0.225
-0.06
0.11
0.295
0.46
0.605
0.745
0.87
1.06
1.26
1.5
1.735
1.96
2.19
2.37
2.51
2.585
2.59
2.53
2.4
2.19
1.915
1.565
1.185
0.78
0.385
0.01
-0.305
-0.525
-0.67
-0.73
-0.74
-0.72
-0.715
-0.735
-0.775
-0.805
-0.84
-0.87
-0.885
-0.905
-0.93
-0.95
-0.955
-0.96
-0.975
-0.985
-0.995
-1.005
-1.035
-1.065
-1.08
-1.075
-1.075
-1.06
-1.07
-1.075
-1.105
-1.12
-1.14
-1.16
-1.16
-1.18
-1.165
-1.15
-1.15
-1.16
-1.165
-1.17
-1.175
-1.175
-1.17
-1.16
-1.165
-1.175
-1.17
-1.145
-1.135
-1.12
-1.095
-1.08
-1.065
-1.065
-1.07
-1.065
-1.055
-1.045
-1.005
-0.95
-0.905
-0.86
-0.83
-0.81
-0.8
-0.78
-0.74
-0.68
-0.63
-0.585
-0.535
-0.505
-0.485
-0.465
-0.435
-0.4
-0.355
-0.315
-0.29
-0.27
-0.255
-0.245
-0.235
-0.2
-0.185
-0.165
-0.155
-0.14
-0.13
-0.13
-0.125
-0.125
-0.13
-0.15
-0.17
-0.19
-0.21
-0.215
-0.22
-0.245
-0.255
-0.27
-0.305
-0.33
-0.365
-0.4
-0.415
-0.42
-0.43
-0.435
-0.455
-0.48
-0.51
-0.54
-0.56
-0.58
-0.59
-0.58
-0.58
-0.58
-0.58
-0.565
-0.555
-0.55
-0.54
-0.535
-0.535
-0.54
-0.555
-0.55
-0.55
-0.525
-0.5
-0.485
-0.48
-0.475
-0.48
-0.495
-0.49
-0.475
-0.465
-0.42
-0.4
-0.36
-0.34
-0.315
-0.29
-0.26
-0.23
-0.215
-0.21
-0.2
-0.22
-0.23
-0.245
-0.265
-0.285
-0.32
-0.36
-0.415
-0.47
-0.515
-0.555
-0.575
-0.565
-0.555
-0.545
-0.54
-0.55
-0.545
-0.55
-0.555
-0.535
-0.555
-0.55
-0.56
-0.57
-0.565
-0.555
-0.53
-0.515
-0.49
-0.485
-0.505
-0.54
-0.585
-0.615
-0.62
-0.56
-0.435
-0.185
0.165
0.57
1.02
1.495
1.895
2.16
2.23
2.1
1.815
1.445
1.025
0.58
0.14
-0.27
-0.65
-0.975
-1.21
-1.295
-1.275
-1.16
-1.01
-0.89
-0.81
-0.765
-0.765
-0.79
-0.8
-0.83
-0.83
-0.85
-0.85
-0.855
-0.87
-0.885
-0.905
-0.895
-0.89
-0.885
-0.89
-0.89
-0.9
-0.91
-0.92
-0.92
-0.905
-0.895
-0.91
-0.9
-0.9
-0.89
-0.875
-0.86
-0.835
-0.83
-0.84
-0.835
-0.835
-0.835
-0.82
-0.795
-0.765
-0.735
-0.725
-0.705
-0.695
-0.665
-0.64
-0.615
-0.58
-0.565
-0.535
-0.52
-0.505
-0.46
-0.42
-0.38
-0.35
-0.32
-0.305
-0.295
-0.275
-0.26
-0.225
-0.18
-0.13
-0.095
-0.07
-0.055
-0.04
-0.02
-0.005
0.005
0.015
0.015
0.015
0.01
0.015
0.04
0.05
0.055
0.045
0.035
-0.015
-0.045
-0.075
-0.1
-0.13
-0.15
-0.16
-0.19
-0.23
-0.265
-0.305
-0.335
-0.36
-0.395
-0.43
-0.46
-0.485
-0.505
-0.52
-0.52
-0.525
-0.53
-0.55
-0.575
-0.59
-0.605
-0.61
-0.605
-0.58
-0.555
-0.54
-0.54
-0.54
-0.525
-0.515
-0.52
-0.505
-0.505
-0.495
-0.485
-0.46
-0.425
-0.385
-0.35
-0.31
-0.3
-0.28
-0.28
-0.285
-0.285
-0.275
-0.27
-0.265
-0.27
-0.285
-0.31
-0.365
-0.415
-0.49
-0.53
-0.58
-0.605
-0.635
-0.655
-0.675
-0.685
-0.67
-0.67
-0.65
-0.63
-0.63
-0.63
-0.645
-0.66
-0.675
-0.675
-0.68
-0.67
-0.665
-0.675
-0.665
-0.685
-0.67
-0.68
-0.695
-0.71
-0.75
-0.765
-0.78
-0.775
-0.715
-0.565
-0.355
-0.05
0.32
0.75
1.19
1.6
1.9
2.035
1.975
1.73
1.375
0.945
0.495
0.07
-0.33
-0.68
-0.97
-1.205
-1.32
-1.315
-1.235
-1.11
-0.98
-0.905
-0.87
-0.87
-0.89
-0.935
-0.97
-1.0
-1.015
-1.02
-1.03
-1.02
-1.025
-1.02
-1.025
-1.035
-1.055
-1.06
-1.05
-1.055
-1.055
-1.065
-1.065
-1.085
-1.085
-1.075
-1.075
-1.06
-1.06
-1.055
-1.045
-1.065
-1.08
-1.075
-1.065
-1.045
-1.03
-1.01
-0.975
-0.96
-0.95
-0.945
-0.925
-0.915
-0.885
-0.865
-0.835
-0.81
-0.795
-0.78
-0.75
-0.705
-0.67
-0.625
-0.595
-0.58
-0.555
-0.535
-0.515
-0.465
-0.42
-0.38
-0.345
-0.3
-0.28
-0.255
-0.23
-0.2
-0.18
-0.155
-0.13
-0.11
-0.105
-0.105
-0.085
-0.055
-0.04
-0.025
-0.005
-0.02
-0.025
-0.045
-0.06
-0.06
-0.06
-0.045
-0.05
-0.06
-0.075
-0.11
-0.14
-0.165
-0.18
-0.2
-0.225
-0.23
-0.245
-0.285
-0.3
-0.33
-0.355
-0.355
-0.375
-0.39
-0.41
-0.44
-0.475
-0.505
-0.535
-0.54
-0.54
-0.535
-0.54
-0.54
-0.56
-0.56
-0.57
-0.56
-0.57
-0.565
-0.545
-0.535
-0.555
-0.55
-0.545
-0.515
-0.49
-0.47
-0.435
-0.42
-0.4
-0.4
-0.395
-0.38
-0.375
-0.34
-0.295
-0.275
-0.28
-0.285
-0.32
-0.35
-0.405
-0.445
-0.48
-0.535
-0.56
-0.6
-0.63
-0.635
-0.635
-0.65
-0.635
-0.63
-0.64
-0.635
-0.645
-0.65
-0.655
-0.635
-0.62
-0.615
-0.625
-0.63
-0.64
-0.645
-0.665
-0.65
-0.63
-0.62
-0.63
-0.635
-0.66
-0.685
-0.715
-0.74
-0.72
-0.66
-0.535
-0.335
-0.08
0.23
0.6
1.03
1.48
1.845
2.075
2.115
1.95
1.66
1.275
0.84
0.435
0.045
-0.29
-0.62
-0.895
-1.065
-1.145
-1.115
-1.02
-0.9
-0.805
-0.755
-0.745
-0.775
-0.81
-0.86
-0.89
-0.9
-0.9
-0.9
-0.895
-0.895
-0.905
-0.93
-0.925
-0.92
-0.94
-0.93
-0.93
-0.93
-0.935
-0.955
-0.96
-0.95
-0.98
-0.975
-0.96
-0.95
-0.94
-0.95
-0.945
-0.955
-0.95
-0.94
-0.93
-0.905
-0.895
-0.87
-0.86
-0.85
-0.84
-0.805
-0.785
-0.765
-0.745
-0.74
-0.725
-0.71
-0.685
-0.655
-0.6
-0.545
-0.5
-0.465
-0.435
-0.42
-0.4
-0.39
-0.35
-0.31
-0.26
-0.21
-0.175
-0.13
-0.09
-0.06
-0.025
0.015
0.05
0.085
0.11
0.13
0.155
0.175
0.21
0.245
0.265
0.29
0.305
0.295
0.29
0.27
0.26
0.26
0.245
0.245
0.235
0.235
0.225
0.215
0.21
0.175
0.175
0.16
0.125
0.095
0.05
0.025
-0.01
-0.03
-0.045
-0.035
-0.025
-0.06
-0.095
-0.125
-0.17
-0.19
-0.23
-0.25
-0.25
-0.27
-0.285
-0.305
-0.315
-0.335
-0.33
-0.33
-0.33
-0.33
-0.345
-0.35
-0.365
-0.365
-0.355
-0.34
-0.345
-0.32
-0.31
-0.315
-0.315
-0.29
-0.26
-0.22
-0.175
-0.125
-0.105
-0.075
-0.075
-0.06
-0.05
-0.04
-0.035
-0.04
-0.055
-0.075
-0.125
-0.17
-0.22
-0.27
-0.295
-0.32
-0.335
-0.35
-0.37
-0.385
-0.42
-0.405
-0.41
-0.405
-0.395
-0.385
-0.38
-0.385
-0.39
-0.39
-0.4
-0.4
-0.395
-0.375
-0.36
-0.355
-0.34
-0.345
-0.355
-0.36
-0.375
-0.405
-0.405
-0.42
-0.43
-0.4
-0.35
-0.23
-0.02
0.255
0.61
1.0
1.43
1.81
2.09
2.195
2.115
1.855
1.505
1.135
0.755
0.39
0.04
-0.265
-0.53
-0.77
-0.94
-1.02
-1.015
-0.935
-0.815
-0.69
-0.605
-0.565
-0.56
-0.585
-0.615
-0.66
-0.695
-0.725
-0.73
-0.745
-0.73
-0.715
-0.71
-0.695
-0.695
-0.705
-0.725
-0.755
-0.75
-0.765
-0.765
-0.755
-0.74
-0.725
-0.73
-0.745
-0.74
-0.715
-0.72
-0.7
-0.695
-0.685
-0.675
-0.675
-0.67
-0.67
-0.63
-0.615
-0.57
-0.535
-0.52
-0.52
-0.505
-0.495
-0.465
-0.435
-0.405
-0.37
-0.355
-0.33
-0.31
-0.275
-0.245
-0.225
-0.19
-0.165
-0.14
-0.12
-0.105
-0.08
-0.055
-0.03
0.005
0.045
0.07
0.095
0.11
0.13
0.14
0.17
0.2
0.24
0.25
0.26
0.265
0.26
0.265
0.26
0.27
0.26
0.235
0.23
0.215
0.2
0.17
0.18
0.175
0.165
0.135
0.115
0.075
0.035
-0.005
-0.04
-0.06
-0.065
-0.07
-0.08
-0.09
-0.125
-0.155
-0.195
-0.24
-0.255
-0.275
-0.285
-0.315
-0.335
-0.37
-0.385
-0.41
-0.42
-0.435
-0.445
-0.465
-0.485
-0.5
-0.52
-0.52
-0.5
-0.485
-0.48
-0.48
-0.475
-0.48
-0.485
-0.49
-0.49
-0.5
-0.495
-0.475
-0.465
-0.46
-0.44
-0.415
-0.385
-0.355
-0.325
-0.31
-0.305
-0.29
-0.265
-0.235
-0.2
-0.165
-0.145
-0.145
-0.13
-0.15
-0.175
-0.205
-0.255
-0.31
-0.365
-0.42
-0.45
-0.49
-0.495
-0.51
-0.515
-0.5
-0.49
-0.5
-0.52
-0.525
-0.535
-0.53
-0.525
-0.51
-0.5
-0.49
-0.495
-0.49
-0.515
-0.495
-0.5
-0.505
-0.505
-0.505
-0.515
-0.545
-0.57
-0.585
-0.585
-0.505
-0.345
-0.095
0.24
0.66
1.145
1.6
1.98
2.19
2.185
1.95
1.58
1.095
0.59
0.115
-0.305
-0.66
-0.97
-1.195
-1.315
-1.31
-1.21
-1.06
-0.92
-0.81
-0.75
-0.735
-0.75
-0.795
-0.815
-0.83
-0.83
-0.825
-0.815
-0.815
-0.825
-0.85
-0.85
-0.86
-0.86
-0.865
-0.87
-0.875
-0.875
-0.88
-0.895
-0.87
-0.875
-0.855
-0.89
-0.88
-0.89
-0.895
-0.9
-0.875
-0.855
-0.83
-0.81
-0.805
-0.795
-0.785
-0.775
-0.76
-0.745
-0.705
-0.69
-0.67
-0.67
-0.64
-0.625
-0.61
-0.585
-0.565
-0.54
-0.52
-0.495
-0.48
-0.46
-0.43
-0.385
-0.35
-0.32
-0.28
-0.24
-0.235
-0.21
-0.185
-0.155
-0.125
-0.085
-0.06
-0.055
-0.05
-0.03
-0.005
0.025
0.065
0.08
0.095
0.1
0.09
0.08
0.08
0.095
0.105
0.11
0.115
0.105
0.08
0.05
0.01
0.01
-0.015
-0.035
-0.04
-0.055
-0.06
-0.09
-0.11
-0.145
-0.18
-0.215
-0.225
-0.255
-0.28
-0.3
-0.325
-0.35
-0.37
-0.355
-0.36
-0.37
-0.375
-0.395
-0.4
-0.405
-0.41
-0.405
-0.375
-0.355
-0.345
-0.355
-0.36
-0.36
-0.37
-0.37
-0.345
-0.325
-0.3
-0.26
-0.215
-0.2
-0.185
-0.165
-0.14
-0.135
-0.11
-0.095
-0.09
-0.095
-0.12
-0.13
-0.155
-0.16
-0.19
-0.215
-0.275
-0.325
-0.375
-0.43
-0.465
-0.475
-0.48
-0.47
-0.46
-0.46
-0.465
-0.47
-0.47
-0.455
-0.465
-0.465
-0.475
-0.485
-0.485
-0.48
-0.47
-0.45
-0.43
-0.42
-0.42
-0.435
-0.455
-0.49
-0.53
-0.545
-0.545
-0.515
-0.4
-0.205
0.03
0.38
0.77
1.22
1.64
1.98
2.18
2.2
2.01
1.69
1.31
0.87
0.485
0.15
-0.115
-0.36
-0.585
-0.795
-0.945
-1.0
-0.965
-0.87
-0.74
-0.655
-0.62
-0.63
-0.665
-0.7
-0.725
-0.75
-0.755
-0.76
-0.77
-0.775
-0.79
-0.775
-0.78
-0.765
-0.76
-0.76
-0.77
-0.78
-0.8
-0.83
-0.835
-0.825
-0.815
-0.805
-0.795
-0.79
-0.8
-0.8
-0.8
-0.785
-0.785
-0.77
-0.77
-0.76
-0.75
-0.74
-0.72
-0.695
-0.67
-0.655
-0.635
-0.635
-0.625
-0.6
-0.595
-0.565
-0.51
-0.475
-0.43
-0.385
-0.365
-0.325
-0.29
-0.255
-0.21
-0.17
-0.145
-0.11
-0.085
-0.04
-0.005
0.03
0.08
0.11
0.145
0.16
0.165
0.18
0.21
0.235
0.255
0.285
0.3
0.295
0.305
0.295
0.305
0.295
0.305
0.29
0.275
0.24
0.225
0.215
0.21
0.215
0.205
0.19
0.165
0.14
0.12
0.075
0.055
0.025
0.015
0.0
-0.015
-0.04
-0.075
-0.1
-0.125
-0.155
-0.175
-0.21
-0.235
-0.265
-0.29
-0.295
-0.285
-0.27
-0.255
-0.265
-0.265
-0.265
-0.285
-0.29
-0.285
-0.285
-0.265
-0.245
-0.22
-0.22
-0.2
-0.17
-0.16
-0.14
-0.115
-0.095
-0.085
-0.08
-0.055
-0.04
-0.015
0.01
0.025
0.03
0.01
-0.045
-0.105
-0.17
-0.23
-0.265
-0.28
-0.305
-0.325
-0.345
-0.35
-0.36
-0.375
-0.37
-0.35
-0.34
-0.34
-0.34
-0.345
-0.345
-0.34
-0.33
-0.325
-0.315
-0.32
-0.345
-0.35
-0.37
-0.37
-0.375
-0.365
-0.35
-0.37
-0.375
-0.365
-0.3
-0.14
0.11
0.435
0.86
1.305
1.76
2.13
2.36
2.395
2.23
1.925
1.54
1.115
0.655
0.25
-0.14
-0.465
-0.705
-0.83
-0.87
-0.8
-0.69
-0.585
-0.5
-0.45
-0.445
-0.465
-0.51
-0.555
-0.615
-0.635
-0.63
-0.61
-0.59
-0.575
-0.56
-0.57
-0.595
-0.605
-0.625
-0.635
-0.635
-0.62
-0.59
-0.59
-0.585
-0.585
-0.58
-0.565
-0.55
-0.545
-0.53
-0.53
-0.535
-0.53
-0.52
-0.49
-0.465
-0.43
-0.39
-0.375
-0.35
-0.33
-0.32
-0.305
-0.265
-0.225
-0.18
-0.155
-0.12
-0.09
-0.06
-0.02
0.01
0.05
0.07
0.1
0.12
0.14
0.165
0.19
0.225
0.275
0.325
0.365
0.385
0.405
0.405
0.4
0.4
0.435
0.46
0.505
0.515
0.53
0.52
0.52
0.505
0.485
0.46
0.445
0.435
0.42
0.41
0.41
0.41
0.41
0.405
0.38
0.36
0.33
0.28
0.24
0.195
0.18
0.16
0.155
0.15
0.115
0.08
0.045
-0.005
-0.045
-0.075
-0.11
-0.13
-0.15
-0.155
-0.19
-0.205
-0.22
-0.24
-0.245
-0.27
-0.29
-0.33
-0.36
-0.375
-0.36
-0.34
-0.325
-0.31
-0.295
-0.295
-0.31
-0.325
-0.32
-0.33
-0.32
-0.315
-0.315
-0.305
-0.305
-0.28
-0.26
-0.235
-0.21
-0.18
-0.165
-0.13
-0.13
-0.12
-0.095
-0.065
-0.045
-0.005
0.01
0.015
-0.01
-0.05
-0.09
-0.15
-0.2
-0.24
-0.27
-0.3
-0.32
-0.345
-0.37
-0.375
-0.39
-0.39
-0.38
-0.375
-0.38
-0.38
-0.38
-0.385
-0.385
-0.385
-0.375
-0.36
-0.37
-0.365
-0.365
-0.37
-0.37
-0.375
-0.38
-0.395
-0.44
-0.475
-0.525
-0.555
-0.54
-0.425
-0.195
0.16
0.615
1.13
1.66
2.12
2.465
2.655
2.655
2.5
2.23
1.895
1.54
1.19
0.88
0.62
0.395
0.155
-0.115
-0.365
-0.545
-0.65
-0.69
-0.675
-0.64
-0.625
-0.625
-0.64
-0.68
-0.71
-0.75
-0.75
-0.77
-0.755
-0.745
-0.75
-0.765
-0.785
-0.805
-0.815
-0.825
-0.83
-0.81
-0.8
-0.8
-0.795
-0.81
-0.84
-0.835
-0.84
-0.85
-0.825
-0.82
-0.82
-0.82
-0.805
-0.795
-0.78
-0.77
-0.765
-0.775
-0.795
-0.8
-0.8
-0.795
-0.775
-0.745
-0.71
-0.695
-0.68
-0.67
-0.66
-0.64
-0.625
-0.585
-0.56
-0.54
-0.505
-0.485
-0.43
-0.4
-0.345
-0.32
-0.27
-0.255
-0.235
-0.225
-0.21
-0.18
-0.14
-0.1
-0.06
-0.03
-0.005
0.005
0.015
0.025
0.04
0.065
0.075
0.105
0.12
0.13
0.12
0.12
0.13
0.12
0.11
0.105
0.085
0.06
0.035
0.02
0.02
0.015
0.025
0.005
-0.005
-0.045
-0.08
-0.11
-0.14
-0.155
-0.175
-0.185
-0.21
-0.235
-0.26
-0.285
-0.29
-0.31
-0.335
-0.34
-0.365
-0.39
-0.41
-0.415
-0.415
-0.41
-0.395
-0.39
-0.37
-0.37
-0.385
-0.385
-0.395
-0.39
-0.395
-0.385
-0.37
-0.35
-0.325
-0.3
-0.245
-0.21
-0.175
-0.15
-0.155
-0.14
-0.15
-0.125
-0.105
-0.085
-0.07
-0.07
-0.07
-0.105
-0.14
-0.195
-0.27
-0.31
-0.35
-0.38
-0.405
-0.425
-0.42
-0.435
-0.43
-0.425
-0.42
-0.425
-0.425
-0.425
-0.435
-0.435
-0.43
-0.42
-0.4
-0.4
-0.38
-0.39
-0.4
-0.415
-0.41
-0.42
-0.415
-0.43
-0.45
-0.47
-0.475
-0.45
-0.36
-0.195
0.05
0.35
0.66
0.99
1.34
1.695
2.005
2.225
2.31
2.215
1.965
1.605
1.175
0.73
0.29
-0.1
-0.46
-0.75
-0.945
-1.025
-0.99
-0.895
-0.755
-0.65
-0.58
-0.565
-0.565
-0.6
-0.645
-0.665
-0.67
-0.685
-0.675
-0.665
-0.655
-0.655
-0.67
-0.68
-0.7
-0.725
-0.725
-0.73
-0.72
-0.72
-0.705
-0.715
-0.72
-0.72
-0.74
-0.735
-0.725
-0.725
-0.715
-0.7
-0.705
-0.705
-0.685
-0.69
-0.67
-0.655
-0.635
-0.615
-0.605
-0.6
-0.615
-0.6
-0.565
-0.54
-0.505
-0.47
-0.46
-0.435
-0.42
-0.41
-0.38
-0.35
-0.315
-0.275
-0.225
-0.2
-0.165
-0.14
-0.11
-0.075
-0.04
-0.005
0.03
0.045
0.075
0.1
0.12
0.165
0.215
0.25
0.275
0.295
0.325
0.325
0.325
0.345
0.36
0.38
0.405
0.42
0.43
0.42
0.405
0.39
0.385
0.38
0.38
0.37
0.34
0.335
0.315
0.29
0.275
0.265
0.26
0.235
0.215
0.175
0.135
0.1
0.07
0.045
0.025
0.01
0.005
-0.005
-0.02
-0.045
-0.075
-0.1
-0.095
-0.09
-0.1
-0.105
-0.095
-0.095
-0.095
-0.095
-0.09
-0.085
-0.085
-0.08
-0.08
-0.075
-0.06
-0.035
-0.005
0.04
0.09
0.115
0.135
0.135
0.135
0.145
0.15
0.175
0.185
0.205
0.21
0.205
0.18
0.14
0.1
0.055
-0.005
-0.05
-0.09
-0.12
-0.155
-0.16
-0.18
-0.16
-0.155
-0.15
-0.15
-0.15
-0.14
-0.11
-0.05
0.055
0.2
0.375
0.575
0.765
0.975
1.195
1.435
1.665
1.885
2.07
2.245
2.38
2.49
2.565
2.615
2.635
2.635
2.625
2.62
2.595
2.585
2.585
2.6
2.625
2.645
2.62
2.565
2.45
2.29
2.04
1.715
1.31
0.815
0.275
-0.24
-0.63
-0.87
-0.94
-0.92
-0.88
-0.815
-0.815
-0.85
-0.9
-0.97
-1.015
-1.065
-1.085
-1.105
-1.09
-1.1
-1.115
-1.14
-1.17
-1.19
-1.22
-1.24
-1.265
-1.285
-1.31
-1.34
-1.36
-1.385
-1.395
-1.385
-1.39
-1.385
-1.4
-1.425
-1.445
-1.455
-1.465
-1.46
-1.445
-1.44
-1.43
-1.425
-1.415
-1.405
-1.4
-1.385
-1.365
-1.33
-1.31
-1.295
-1.26
-1.225
-1.195
-1.135
-1.07
-1.025
-0.98
-0.94
-0.915
-0.865
-0.835
-0.765
-0.72
-0.645
-0.595
-0.555
-0.53
-0.475
-0.43
-0.38
-0.34
-0.3
-0.24
-0.205
-0.18
-0.135
-0.105
-0.07
-0.03
-0.015
0.0
-0.015
-0.01
-0.01
0.005
0.0
0.02
0.03
0.03
0.025
0.015
0.015
0.01
0.005
0.005
0.005
-0.025
-0.055
-0.07
-0.08
-0.08
-0.085
-0.08
-0.08
-0.085
-0.085
-0.085
-0.1
-0.105
-0.1
-0.08
-0.065
-0.06
-0.04
-0.045
-0.035
-0.035
-0.01
0.005
0.02
0.025
0.025
0.04
0.055
0.085
0.115
0.155
0.19
0.205
0.215
0.215
0.23
0.225
0.265
0.305
0.345
0.375
0.39
0.385
0.39
0.375
0.355
0.34
0.31
0.25
0.19
0.12
0.075
0.025
0.01
0.03
0.04
0.05
0.06
0.07
0.04
0.015
0.0
0.01
0.01
0.025
0.045
0.04
0.025
0.03
0.02
0.015
0.02
0.03
0.05
0.055
0.035
0.02
-0.005
-0.035
-0.045
-0.055
-0.045
0.005
0.075
0.195
0.36
0.6
0.89
1.24
1.635
2.015
2.32
2.465
2.405
2.17
1.795
1.375
0.925
0.52
0.16
-0.12
-0.35
-0.515
-0.62
-0.645
-0.6
-0.5
-0.38
-0.285
-0.235
-0.22
-0.235
-0.27
-0.3
-0.33
-0.325
-0.33
-0.34
-0.34
-0.35
-0.36
-0.355
-0.355
-0.345
-0.335
-0.34
-0.335
-0.365
-0.375
-0.385
-0.385
-0.385
-0.37
-0.35
-0.335
-0.34
-0.345
-0.34
-0.34
-0.32
-0.295
-0.29
-0.26
-0.245
-0.235
-0.22
-0.22
-0.185
-0.15
-0.13
-0.105
-0.075
-0.04
-0.02
0.0
0.02
0.045
0.07
0.095
0.135
0.165
0.18
0.215
0.24
0.255
0.28
0.31
0.325
0.365
0.4
0.44
0.45
0.48
0.515
0.555
0.58
0.61
0.65
0.665
0.675
0.685
0.7
0.725
0.75
0.785
0.81
0.82
0.815
0.805
0.79
0.765
0.75
0.73
0.73
0.715
0.685
0.67
0.65
0.63
0.61
0.605
0.565
0.535
0.49
0.45
0.42
0.39
0.37
0.36
0.335
0.32
0.29
0.26
0.22
0.195
0.16
0.115
0.1
0.075
0.035
0.015
-0.01
-0.03
-0.04
-0.065
-0.08
-0.09
-0.105
-0.115
-0.125
-0.135
-0.115
-0.11
-0.09
-0.085
-0.075
-0.08
-0.085
-0.105
-0.105
-0.12
-0.14
-0.11
-0.09
-0.07
-0.065
-0.045
-0.02
0.015
0.045
0.09
0.115
0.145
0.155
0.17
0.18
0.2
0.205
0.215
0.215
0.195
0.175
0.115
0.055
-0.015
-0.07
-0.12
-0.13
-0.145
-0.155
-0.165
-0.16
-0.18
-0.17
-0.18
-0.175
-0.175
-0.185
-0.185
-0.19
-0.19
-0.17
-0.165
-0.145
-0.135
-0.145
-0.14
-0.16
-0.185
-0.2
-0.22
-0.21
-0.21
-0.21
-0.225
-0.24
-0.225
-0.155
-0.005
0.245
0.575
0.975
1.415
1.835
2.195
2.455
2.57
2.535
2.305
1.975
1.57
1.135
0.695
0.295
-0.07
-0.395
-0.68
-0.88
-0.97
-0.945
-0.845
-0.72
-0.61
-0.52
-0.465
-0.455
-0.46
-0.475
-0.495
-0.505
-0.535
-0.525
-0.535
-0.54
-0.545
-0.555
-0.55
-0.555
-0.56
-0.57
-0.57
-0.58
-0.58
-0.56
-0.545
-0.54
-0.545
-0.55
-0.56
-0.575
-0.555
-0.54
-0.52
-0.51
-0.495
-0.485
-0.485
-0.485
-0.48
-0.47
-0.47
-0.445
-0.42
-0.405
-0.385
-0.37
-0.35
-0.33
-0.305
-0.27
-0.255
-0.25
-0.24
-0.24
-0.215
-0.185
-0.145
-0.11
-0.07
-0.06
-0.045
-0.035
-0.04
-0.025
0.005
0.025
0.08
0.115
0.14
0.165
0.195
0.21
0.23
0.26
0.295
0.295
0.305
0.305
0.295
0.3
0.31
0.335
0.355
0.35
0.355
0.33
0.315
0.295
0.275
0.255
0.24
0.23
0.215
0.22
0.2
0.165
0.13
0.1
0.075
0.035
0.02
-0.01
-0.025
-0.05
-0.065
-0.095
-0.095
-0.1
-0.1
-0.125
-0.15
-0.185
-0.2
-0.235
-0.245
-0.25
-0.24
-0.23
-0.225
-0.23
-0.225
-0.235
-0.25
-0.255
-0.235
-0.215
-0.205
-0.195
-0.19
-0.19
-0.185
-0.185
-0.16
-0.135
-0.095
-0.07
-0.045
-0.03
-0.03
-0.025
0.0
0.01
0.05
0.07
0.09
0.105
0.115
0.1
0.09
0.095
0.08
0.04
0.01
-0.03
-0.075
-0.135
-0.175
-0.215
-0.23
-0.245
-0.23
-0.225
-0.235
-0.245
-0.25
-0.245
-0.24
-0.245
-0.225
-0.225
-0.225
-0.235
-0.245
-0.25
-0.25
-0.245
-0.22
-0.22
-0.205
-0.22
-0.235
-0.27
-0.31
-0.34
-0.345
-0.32
-0.23
-0.075
0.14
0.4
0.695
1.03
1.415
1.785
2.135
2.385
2.475
2.38
2.135
1.83
1.425
1.035
0.63
0.265
-0.1
-0.43
-0.69
-0.85
-0.86
-0.77
-0.635
-0.495
-0.39
-0.35
-0.36
-0.405
-0.44
-0.48
-0.495
-0.505
-0.49
-0.495
-0.485
-0.495
-0.505
-0.51
-0.51
-0.51
-0.505
-0.5
-0.515
-0.545
-0.555
-0.56
-0.555
-0.555
-0.555
-0.535
-0.52
-0.52
-0.505
-0.52
-0.525
-0.515
-0.53
-0.52
-0.49
-0.48
-0.47
-0.455
-0.445
-0.425
-0.385
-0.36
-0.35
-0.345
-0.32
-0.305
-0.285
-0.27
-0.235
-0.18
-0.135
-0.105
-0.075
-0.07
-0.04
-0.015
0.03
0.08
0.12
0.17
0.2
0.235
0.265
0.315
0.36
0.405
0.435
0.47
0.485
0.495
0.52
0.545
0.565
0.605
0.635
0.655
0.66
0.66
0.655
0.65
0.65
0.645
0.655
0.665
0.655
0.63
0.615
0.61
0.595
0.585
0.565
0.545
0.505
0.47
0.445
0.44
0.435
0.425
0.42
0.395
0.37
0.32
0.275
0.25
0.225
0.205
0.2
0.18
0.165
0.15
0.15
0.15
0.145
0.14
0.14
0.145
0.13
0.12
0.125
0.14
0.16
0.17
0.195
0.215
0.24
0.27
0.275
0.3
0.32
0.335
0.375
0.4
0.415
0.435
0.44
0.44
0.43
0.4
0.345
0.265
0.19
0.125
0.09
0.065
0.075
0.07
0.095
0.1
0.09
0.08
0.045
0.04
0.03
0.035
0.035
0.05
0.06
0.055
0.06
0.07
0.075
0.075
0.065
0.045
0.03
0.01
-0.01
-0.02
-0.035
-0.05
-0.055
-0.02
0.055
0.2
0.41
0.72
1.1
1.55
2.0
2.35
2.565
2.57
2.395
2.095
1.71
1.28
0.855
0.46
0.1
-0.21
-0.43
-0.54
-0.52
-0.41
-0.28
-0.16
-0.09
-0.07
-0.095
-0.145
-0.185
-0.205
-0.205
-0.205
-0.21
-0.215
-0.21
-0.22
-0.21
-0.215
-0.225
-0.24
-0.25
-0.27
-0.275
-0.27
-0.245
-0.24
-0.22
-0.21
-0.22
-0.215
-0.22
-0.22
-0.21
-0.185
-0.165
-0.14
-0.115
-0.12
-0.11
-0.095
-0.07
-0.03
-0.005
0.025
0.04
0.05
0.085
0.105
0.155
0.19
0.245
0.275
0.31
0.32
0.35
0.38
0.425
0.48
0.525
0.56
0.605
0.635
0.675
0.705
0.735
0.75
0.78
0.8
0.805
0.82
0.835
0.85
0.88
0.89
0.91
0.905
0.91
0.895
0.88
0.88
0.87
0.86
0.855
0.86
0.86
0.85
0.845
0.84
0.805
0.775
0.755
0.735
0.7
0.68
0.66
0.63
0.62
0.615
0.58
0.565
0.54
0.505
0.465
0.425
0.39
0.355
0.325
0.295
0.275
0.24
0.21
0.19
0.155
0.13
0.105
0.09
0.07
0.05
0.04
0.015
0.02
0.035
0.03
0.045
0.045
0.045
0.05
0.025
0.015
0.01
0.02
0.04
0.08
0.125
0.16
0.195
0.225
0.23
0.245
0.265
0.295
0.305
0.33
0.325
0.32
0.32
0.315
0.285
0.26
0.235
0.185
0.115
0.06
-0.01
-0.055
-0.065
-0.065
-0.045
-0.035
-0.025
-0.03
-0.05
-0.075
-0.09
-0.09
-0.1
-0.1
-0.095
-0.085
-0.08
-0.09
-0.075
-0.07
-0.075
-0.08
-0.085
-0.08
-0.09
-0.105
-0.125
-0.155
-0.165
-0.155
-0.085
0.01
0.19
0.46
0.78
1.15
1.54
1.935
2.23
