Lead II
-0.815
-0.815
-0.825
-0.815
-0.825
-0.825
-0.83
-0.825
-0.81
-0.815
-0.81
-0.81
-0.83
-0.84
-0.825
-0.855
-0.875
-0.875
-0.885
-0.905
-0.895
-0.89
-0.92
-0.92
-0.905
-0.95
-0.965
-0.975
-1.0
-1.02
-1.045
-1.06
-1.06
-1.08
-1.065
-1.07
-1.065
-1.08
-1.075
-1.095
-1.105
-1.115
-1.14
-1.145
-1.135
-1.135
-1.135
-1.125
-1.125
-1.11
-1.105
-1.11
-1.105
-1.105
-1.08
-1.055
-1.035
-1.005
-0.985
-0.965
-0.94
-0.925
-0.9
-0.88
-0.88
-0.865
-0.84
-0.81
-0.78
-0.745
-0.75
-0.725
-0.73
-0.725
-0.72
-0.71
-0.715
-0.71
-0.71
-0.69
-0.67
-0.645
-0.645
-0.635
-0.63
-0.645
-0.65
-0.655
-0.66
-0.685
-0.685
-0.675
-0.66
-0.65
-0.65
-0.64
-0.64
-0.645
-0.65
-0.665
-0.67
-0.69
-0.705
-0.705
-0.695
-0.69
-0.695
-0.67
-0.68
-0.68
-0.68
-0.695
-0.7
-0.72
-0.73
-0.74
-0.71
-0.715
-0.705
-0.715
-0.7
-0.7
-0.7
-0.72
-0.74
-0.745
-0.74
-0.72
-0.7
-0.685
-0.695
-0.685
-0.68
-0.685
-0.69
-0.69
-0.69
-0.69
-0.69
-0.685
-0.685
-0.68
-0.675
-0.67
-0.675
-0.67
-0.665
-0.675
-0.705
-0.685
-0.705
-0.68
-0.675
-0.67
-0.66
-0.655
-0.665
-0.665
-0.665
-0.7
-0.705
-0.695
-0.69
-0.67
-0.645
-0.62
-0.605
-0.595
-0.59
-0.58
-0.57
-0.58
-0.585
-0.59
-0.56
-0.535
-0.505
-0.465
-0.42
-0.385
-0.365
-0.38
-0.405
-0.44
-0.475
-0.52
-0.55
-0.555
-0.535
-0.5
-0.475
-0.43
-0.405
-0.405
-0.43
-0.485
-0.54
-0.605
-0.64
-0.655
-0.68
-0.69
-0.69
-0.7
-0.715
-0.725
-0.73
-0.735
-0.745
-0.75
-0.755
-0.75
-0.755
-0.75
-0.745
-0.735
-0.74
-0.75
-0.765
-0.77
-0.77
-0.775
-0.78
-0.78
-0.775
-0.76
-0.78
-0.755
-0.755
-0.765
-0.77
-0.765
-0.77
-0.78
-0.795
-0.8
-0.8
-0.775
-0.78
-0.725
-0.645
-0.51
-0.34
-0.15
0.0
0.115
0.14
0.115
0.115
0.165
0.325
0.525
0.73
0.865
0.815
0.53
0.055
-0.545
-1.11
-1.575
-1.865
-2.02
-2.105
-2.12
-2.15
-2.19
-2.215
-2.225
-2.235
-2.235
-2.235
-2.205
-2.175
-2.145
-2.09
-1.985
-1.905
-1.775
-1.61
-1.46
-1.33
-1.18
-1.085
-1.015
-0.99
-0.935
-0.91
-0.89
-0.87
-0.865
-0.855
-0.845
-0.84
-0.835
-0.84
-0.84
-0.82
-0.825
-0.805
-0.83
-0.82
-0.845
-0.83
-0.835
-0.83
-0.83
-0.835
-0.855
-0.855
-0.865
-0.875
-0.895
-0.9
-0.915
-0.94
-0.96
-0.99
-0.99
-0.99
-1.02
-1.025
-1.02
-1.015
-1.03
-1.05
-1.07
-1.085
-1.095
-1.1
-1.115
-1.125
-1.135
-1.125
-1.125
-1.115
-1.115
-1.115
-1.115
-1.11
-1.11
-1.105
-1.115
-1.11
-1.12
-1.105
-1.08
-1.04
-1.015
-1.005
-0.98
-0.975
-0.975
-0.95
-0.935
-0.925
-0.905
-0.88
-0.845
-0.815
-0.785
-0.79
-0.76
-0.75
-0.76
-0.735
-0.735
-0.755
-0.735
-0.715
-0.7
-0.69
-0.675
-0.67
-0.675
-0.69
-0.705
-0.695
-0.69
-0.7
-0.69
-0.675
-0.68
-0.675
-0.665
-0.675
-0.68
-0.685
-0.7
-0.71
-0.72
-0.725
-0.715
-0.71
-0.68
-0.675
-0.67
-0.66
-0.68
-0.715
-0.725
-0.73
-0.73
-0.75
-0.755
-0.745
-0.735
-0.72
-0.71
-0.705
-0.715
-0.72
-0.745
-0.74
-0.75
-0.765
-0.765
-0.76
-0.76
-0.73
-0.72
-0.715
-0.725
-0.72
-0.715
-0.735
-0.745
-0.75
-0.76
-0.75
-0.73
-0.71
-0.69
-0.685
-0.675
-0.68
-0.69
-0.72
-0.725
-0.73
-0.73
-0.715
-0.72
-0.7
-0.695
-0.685
-0.685
-0.71
-0.725
-0.73
-0.735
-0.725
-0.72
-0.72
-0.71
-0.71
-0.685
-0.7
-0.71
-0.695
-0.705
-0.695
-0.695
-0.69
-0.665
-0.645
-0.63
-0.625
-0.6
-0.575
-0.585
-0.58
-0.59
-0.605
-0.595
-0.595
-0.57
-0.52
-0.48
-0.46
-0.44
-0.465
-0.49
-0.515
-0.535
-0.565
-0.57
-0.575
-0.57
-0.535
-0.515
-0.465
-0.46
-0.46
-0.47
-0.5
-0.555
-0.605
-0.655
-0.69
-0.705
-0.705
-0.7
-0.71
-0.69
-0.705
-0.72
-0.735
-0.76
-0.77
-0.785
-0.8
-0.79
-0.765
-0.77
-0.775
-0.785
-0.775
-0.79
-0.805
-0.81
-0.8
-0.795
-0.8
-0.785
-0.775
-0.76
-0.765
-0.765
-0.765
-0.775
-0.77
-0.78
-0.78
-0.81
-0.815
-0.81
-0.805
-0.815
-0.82
-0.82
-0.835
-0.8
-0.73
-0.605
-0.44
-0.235
-0.05
0.09
0.175
0.185
0.18
0.16
0.24
0.355
0.535
0.7
0.76
0.665
0.335
-0.155
-0.745
-1.235
-1.615
-1.835
-1.96
-2.025
-2.05
-2.065
-2.095
-2.115
-2.135
-2.155
-2.165
-2.15
-2.14
-2.115
-2.1
-2.05
-1.98
-1.895
-1.78
-1.625
-1.465
-1.3
-1.16
-1.055
-0.985
-0.94
-0.93
-0.93
-0.93
-0.925
-0.915
-0.915
-0.9
-0.885
-0.87
-0.865
-0.87
-0.865
-0.855
-0.875
-0.87
-0.87
-0.875
-0.9
-0.91
-0.915
-0.92
-0.905
-0.905
-0.92
-0.92
-0.945
-0.935
-0.97
-0.98
-1.015
-1.015
-1.025
-1.02
-1.025
-1.025
-1.025
-1.045
-1.055
-1.07
-1.095
-1.12
-1.15
-1.16
-1.17
-1.17
-1.155
-1.145
-1.155
-1.155
-1.17
-1.175
-1.18
-1.2
-1.19
-1.215
-1.22
-1.2
-1.18
-1.16
-1.135
-1.125
-1.105
-1.1
-1.09
-1.08
-1.065
-1.055
-1.03
-0.995
-0.975
-0.945
-0.92
-0.91
-0.88
-0.87
-0.865
-0.875
-0.85
-0.845
-0.83
-0.8
-0.795
-0.775
-0.76
-0.76
-0.75
-0.74
-0.735
-0.745
-0.725
-0.735
-0.74
-0.725
-0.71
-0.705
-0.69
-0.68
-0.685
-0.69
-0.695
-0.705
-0.725
-0.725
-0.72
-0.71
-0.71
-0.695
-0.69
-0.69
-0.69
-0.685
-0.715
-0.72
-0.73
-0.73
-0.73
-0.735
-0.745
-0.72
-0.715
-0.71
-0.71
-0.725
-0.745
-0.745
-0.765
-0.76
-0.775
-0.76
-0.775
-0.745
-0.745
-0.725
-0.715
-0.72
-0.73
-0.725
-0.75
-0.745
-0.75
-0.76
-0.74
-0.725
-0.715
-0.71
-0.71
-0.71
-0.735
-0.735
-0.74
-0.745
-0.755
-0.74
-0.735
-0.725
-0.715
-0.725
-0.725
-0.705
-0.71
-0.715
-0.72
-0.73
-0.735
-0.715
-0.715
-0.7
-0.67
-0.665
-0.66
-0.66
-0.655
-0.68
-0.665
-0.685
-0.675
-0.63
-0.6
-0.58
-0.575
-0.57
-0.565
-0.55
-0.545
-0.53
-0.49
-0.485
-0.48
-0.495
-0.52
-0.52
-0.54
-0.55
-0.555
-0.535
-0.53
-0.505
-0.51
-0.505
-0.515
-0.54
-0.58
-0.61
-0.645
-0.655
-0.68
-0.69
-0.71
-0.735
-0.76
-0.775
-0.775
-0.785
-0.79
-0.78
-0.77
-0.78
-0.775
-0.775
-0.79
-0.78
-0.79
-0.8
-0.795
-0.8
-0.805
-0.8
-0.8
-0.785
-0.78
-0.785
-0.795
-0.81
-0.805
-0.815
-0.785
-0.795
-0.78
-0.775
-0.775
-0.78
-0.805
-0.825
-0.85
-0.87
-0.87
-0.81
-0.7
-0.53
-0.33
-0.145
0.025
0.095
0.1
0.055
0.02
0.045
0.155
0.36
0.575
0.765
0.835
0.71
0.36
-0.155
-0.725
-1.23
-1.58
-1.8
-1.94
-1.995
-2.025
-2.085
-2.105
-2.125
-2.13
-2.13
-2.14
-2.125
-2.155
-2.155
-2.135
-2.105
-2.05
-1.955
-1.815
-1.66
-1.49
-1.325
-1.195
-1.105
-1.045
-0.995
-0.985
-0.99
-0.975
-0.95
-0.945
-0.93
-0.905
-0.885
-0.87
-0.87
-0.86
-0.885
-0.895
-0.89
-0.885
-0.875
-0.885
-0.88
-0.875
-0.885
-0.905
-0.92
-0.945
-0.95
-0.96
-0.95
-0.97
-0.97
-0.975
-0.98
-0.985
-0.99
-1.005
-1.02
-1.04
-1.055
-1.085
-1.115
-1.115
-1.115
-1.125
-1.13
-1.135
-1.13
-1.15
-1.16
-1.165
-1.18
-1.21
-1.21
-1.205
-1.19
-1.18
-1.175
-1.16
-1.15
-1.14
-1.135
-1.145
-1.14
-1.15
-1.14
-1.12
-1.1
-1.075
-1.05
-1.0
-0.995
-0.97
-0.945
-0.93
-0.915
-0.9
-0.91
-0.865
-0.855
-0.825
-0.805
-0.795
-0.775
-0.775
-0.765
-0.76
-0.75
-0.77
-0.775
-0.755
-0.725
-0.72
-0.705
-0.715
-0.705
-0.71
-0.71
-0.715
-0.72
-0.72
-0.72
-0.72
-0.725
-0.735
-0.71
-0.695
-0.7
-0.705
-0.73
-0.725
-0.735
-0.74
-0.755
-0.75
-0.745
-0.73
-0.73
-0.725
-0.745
-0.745
-0.755
-0.765
-0.76
-0.775
-0.77
-0.78
-0.775
-0.78
-0.765
-0.775
-0.78
-0.79
-0.79
-0.785
-0.795
-0.785
-0.785
-0.78
-0.78
-0.77
-0.76
-0.765
-0.76
-0.75
-0.765
-0.765
-0.78
-0.81
-0.8
-0.78
-0.78
-0.775
-0.775
-0.775
-0.77
-0.76
-0.755
-0.77
-0.76
-0.755
-0.77
-0.765
-0.76
-0.755
-0.74
-0.74
-0.735
-0.74
-0.74
-0.74
-0.73
-0.735
-0.73
-0.705
-0.71
-0.675
-0.66
-0.63
-0.615
-0.615
-0.63
-0.625
-0.62
-0.595
-0.56
-0.53
-0.495
-0.49
-0.47
-0.485
-0.495
-0.535
-0.565
-0.585
-0.6
-0.6
-0.57
-0.545
-0.51
-0.485
-0.49
-0.5
-0.545
-0.615
-0.675
-0.715
-0.745
-0.775
-0.775
-0.785
-0.795
-0.795
-0.79
-0.805
-0.8
-0.8
-0.825
-0.815
-0.82
-0.83
-0.835
-0.83
-0.825
-0.82
-0.825
-0.805
-0.8
-0.815
-0.825
-0.82
-0.85
-0.85
-0.86
-0.86
-0.85
-0.855
-0.84
-0.82
-0.805
-0.795
-0.81
-0.82
-0.825
-0.855
-0.875
-0.89
-0.87
-0.805
-0.66
-0.495
-0.315
-0.135
-0.005
0.035
0.0
-0.03
-0.035
0.065
0.26
0.505
0.72
0.81
0.685
0.31
-0.245
-0.865
-1.375
-1.755
-2.0
-2.115
-2.175
-2.175
-2.19
-2.21
-2.23
-2.23
-2.23
-2.24
-2.235
-2.22
-2.185
-2.14
-2.05
-1.94
-1.775
-1.6
-1.435
-1.3
-1.18
-1.095
-1.03
-1.005
-0.985
-0.96
-0.935
-0.91
-0.895
-0.875
-0.86
-0.87
-0.865
-0.875
-0.87
-0.875
-0.88
-0.875
-0.875
-0.855
-0.87
-0.865
-0.875
-0.89
-0.89
-0.91
-0.92
-0.94
-0.96
-0.975
-0.985
-0.98
-0.995
-0.975
-0.995
-1.005
-1.045
-1.065
-1.085
-1.09
-1.11
-1.12
-1.135
-1.135
-1.13
-1.145
-1.14
-1.15
-1.16
-1.16
-1.175
-1.17
-1.19
-1.175
-1.18
-1.16
-1.17
-1.165
-1.155
-1.15
-1.14
-1.145
-1.14
-1.135
-1.115
-1.09
-1.06
-1.05
-1.035
-1.015
-1.005
-0.98
-0.96
-0.94
-0.93
-0.925
-0.91
-0.89
-0.88
-0.835
-0.82
-0.8
-0.8
-0.79
-0.775
-0.79
-0.79
-0.8
-0.795
-0.785
-0.79
-0.77
-0.76
-0.75
-0.75
-0.74
-0.735
-0.74
-0.745
-0.75
-0.77
-0.765
-0.77
-0.765
-0.745
-0.735
-0.735
-0.73
-0.735
-0.75
-0.765
-0.765
-0.785
-0.81
-0.795
-0.79
-0.795
-0.78
-0.775
-0.765
-0.79
-0.775
-0.8
-0.81
-0.82
-0.83
-0.82
-0.815
-0.795
-0.805
-0.79
-0.79
-0.795
-0.805
-0.805
-0.805
-0.81
-0.82
-0.805
-0.785
-0.795
-0.775
-0.77
-0.78
-0.77
-0.78
-0.785
-0.79
-0.805
-0.785
-0.78
-0.765
-0.78
-0.77
-0.77
-0.78
-0.78
-0.78
-0.79
-0.785
-0.765
-0.76
-0.765
-0.76
-0.77
-0.76
-0.75
-0.755
-0.76
-0.76
-0.795
-0.79
-0.775
-0.75
-0.745
-0.75
-0.735
-0.7
-0.695
-0.68
-0.675
-0.67
-0.67
-0.675
-0.68
-0.665
-0.655
-0.63
-0.59
-0.55
-0.515
-0.5
-0.485
-0.49
-0.52
-0.54
-0.57
-0.61
-0.615
-0.62
-0.605
-0.6
-0.59
-0.555
-0.56
-0.52
-0.53
-0.53
-0.57
-0.61
-0.65
-0.665
-0.695
-0.71
-0.75
-0.745
-0.76
-0.77
-0.79
-0.81
-0.835
-0.83
-0.825
-0.825
-0.815
-0.81
-0.805
-0.835
-0.815
-0.81
-0.83
-0.825
-0.835
-0.84
-0.835
-0.83
-0.84
-0.835
-0.83
-0.84
-0.84
-0.85
-0.84
-0.86
-0.87
-0.86
-0.86
-0.835
-0.82
-0.805
-0.805
-0.825
-0.85
-0.85
-0.87
-0.875
-0.845
-0.785
-0.685
-0.535
-0.345
-0.15
0.005
0.145
0.185
0.165
0.15
0.135
0.195
0.3
0.48
0.64
0.695
0.625
0.305
-0.19
-0.775
-1.32
-1.73
-1.995
-2.125
-2.17
-2.195
-2.195
-2.225
-2.235
-2.24
-2.26
-2.26
-2.28
-2.27
-2.25
-2.23
-2.195
-2.145
-2.095
-2.02
-1.91
-1.74
-1.575
-1.43
-1.29
-1.19
-1.115
-1.08
-1.02
-1.005
-0.975
-0.94
-0.925
-0.915
-0.905
-0.905
-0.92
-0.92
-0.925
-0.925
-0.915
-0.91
-0.91
-0.895
-0.88
-0.885
-0.895
-0.905
-0.9
-0.935
-0.925
-0.945
-0.955
-0.96
-0.975
-0.985
-0.995
-0.99
-1.0
-1.005
-1.025
-1.045
-1.065
-1.075
-1.09
-1.105
-1.13
-1.125
-1.135
-1.145
-1.145
-1.16
-1.175
-1.19
-1.195
-1.215
-1.225
-1.23
-1.23
-1.225
-1.23
-1.225
-1.215
-1.205
-1.22
-1.225
-1.22
-1.21
-1.205
-1.185
-1.17
-1.165
-1.13
-1.105
-1.085
-1.05
-1.04
-1.025
-1.0
-0.995
-0.985
-0.96
-0.945
-0.905
-0.89
-0.85
-0.85
-0.845
-0.83
-0.825
-0.825
-0.825
-0.815
-0.805
-0.78
-0.775
-0.77
-0.745
-0.76
-0.755
-0.74
-0.745
-0.755
-0.75
-0.765
-0.76
-0.745
-0.745
-0.75
-0.725
-0.74
-0.73
-0.74
-0.73
-0.735
-0.76
-0.77
-0.77
-0.75
-0.76
-0.735
-0.745
-0.76
-0.755
-0.75
-0.765
-0.765
-0.78
-0.78
-0.78
-0.775
-0.785
-0.78
-0.77
-0.77
-0.775
-0.785
-0.79
-0.81
-0.8
-0.795
-0.8
-0.79
-0.76
-0.755
-0.76
-0.755
-0.79
-0.8
-0.785
-0.8
-0.78
-0.795
-0.785
-0.775
-0.775
-0.745
-0.755
-0.75
-0.77
-0.765
-0.765
-0.77
-0.765
-0.775
-0.79
-0.77
-0.77
-0.76
-0.735
-0.745
-0.755
-0.76
-0.77
-0.77
-0.77
-0.77
-0.77
-0.77
-0.755
-0.755
-0.74
-0.735
-0.74
-0.73
-0.725
-0.73
-0.715
-0.695
-0.7
-0.69
-0.675
-0.655
-0.63
-0.625
-0.63
-0.615
-0.61
-0.585
-0.545
-0.53
-0.515
-0.505
-0.525
-0.57
-0.57
-0.595
-0.605
-0.59
-0.58
-0.54
-0.52
-0.495
-0.515
-0.51
-0.54
-0.59
-0.63
-0.68
-0.69
-0.705
-0.735
-0.745
-0.77
-0.765
-0.775
-0.78
-0.77
-0.78
-0.77
-0.785
-0.79
-0.795
-0.81
-0.82
-0.81
-0.825
-0.805
-0.79
-0.79
-0.785
-0.77
-0.795
-0.8
-0.815
-0.8
-0.805
-0.825
-0.825
-0.825
-0.815
-0.795
-0.79
-0.77
-0.78
-0.78
-0.79
-0.82
-0.84
-0.885
-0.895
-0.86
-0.8
-0.685
-0.505
-0.285
-0.095
0.07
0.16
0.14
0.13
0.135
0.22
0.39
0.59
0.735
0.705
0.44
-0.05
-0.64
-1.18
-1.585
-1.84
-1.96
-2.015
-2.045
-2.06
-2.085
-2.105
-2.12
-2.155
-2.15
-2.15
-2.175
-2.155
-2.125
-2.095
-2.05
-1.965
-1.86
-1.71
-1.545
-1.38
-1.225
-1.11
-1.04
-1.01
-0.995
-0.985
-0.965
-0.93
-0.915
-0.885
-0.85
-0.84
-0.845
-0.845
-0.855
-0.86
-0.86
-0.88
-0.89
-0.87
-0.86
-0.865
-0.87
-0.87
-0.87
-0.895
-0.91
-0.925
-0.935
-0.945
-0.95
-0.94
-0.95
-0.95
-0.945
-0.985
-1.005
-1.01
-1.02
-1.045
-1.065
-1.09
-1.1
-1.08
-1.09
-1.1
-1.115
-1.11
-1.15
-1.145
-1.16
-1.16
-1.165
-1.17
-1.19
-1.195
-1.17
-1.165
-1.155
-1.165
-1.165
-1.165
-1.17
-1.16
-1.155
-1.13
-1.12
-1.1
-1.07
-1.035
-1.02
-0.995
-0.99
-0.98
-0.965
-0.955
-0.925
-0.915
-0.9
-0.875
-0.85
-0.83
-0.805
-0.785
-0.78
-0.775
-0.775
-0.77
-0.76
-0.76
-0.765
-0.745
-0.72
-0.72
-0.685
-0.68
-0.695
-0.695
-0.71
-0.715
-0.695
-0.715
-0.7
-0.695
-0.68
-0.675
-0.675
-0.68
-0.71
-0.7
-0.705
-0.69
-0.69
-0.7
-0.695
-0.7
-0.7
-0.705
-0.705
-0.715
-0.7
-0.71
-0.71
-0.735
-0.74
-0.76
-0.765
-0.755
-0.745
-0.735
-0.725
-0.74
-0.73
-0.735
-0.735
-0.74
-0.745
-0.75
-0.74
-0.73
-0.725
-0.72
-0.715
-0.72
-0.725
-0.75
-0.745
-0.76
-0.75
-0.76
-0.75
-0.73
-0.715
-0.71
-0.69
-0.705
-0.72
-0.735
-0.735
-0.745
-0.745
-0.765
-0.765
-0.745
-0.735
-0.72
-0.705
-0.72
-0.725
-0.725
-0.735
-0.735
-0.735
-0.73
-0.71
-0.685
-0.665
-0.65
-0.625
-0.625
-0.615
-0.61
-0.61
-0.605
-0.605
-0.6
-0.57
-0.555
-0.515
-0.485
-0.44
-0.44
-0.45
-0.475
-0.505
-0.53
-0.57
-0.61
-0.59
-0.57
-0.53
-0.49
-0.465
-0.445
-0.46
-0.495
-0.52
-0.57
-0.615
-0.665
-0.695
-0.705
-0.705
-0.72
-0.73
-0.75
-0.76
-0.775
-0.79
-0.81
-0.805
-0.815
-0.815
-0.805
-0.795
-0.79
-0.8
-0.8
-0.8
-0.815
-0.82
-0.815
-0.82
-0.825
-0.82
-0.82
-0.81
-0.805
-0.79
-0.795
-0.81
-0.81
-0.8
-0.815
-0.825
-0.825
-0.83
-0.825
-0.8
-0.81
-0.82
-0.84
-0.85
-0.83
-0.765
-0.655
-0.49
-0.3
-0.13
0.0
0.035
0.045
0.08
0.17
0.355
0.57
0.735
0.735
0.475
-0.015
-0.63
-1.2
-1.64
-1.91
-2.03
-2.08
-2.105
-2.135
-2.17
-2.185
-2.205
-2.21
-2.22
-2.215
-2.205
-2.18
-2.135
-2.1
-2.015
-1.93
-1.805
-1.64
-1.47
-1.31
-1.19
-1.075
-1.005
-0.955
-0.925
-0.91
-0.91
-0.89
-0.875
-0.885
-0.87
-0.855
-0.85
-0.845
-0.835
-0.84
-0.83
-0.825
-0.82
-0.825
-0.85
-0.855
-0.855
-0.88
-0.88
-0.87
-0.86
-0.855
-0.85
-0.875
-0.885
-0.895
-0.925
-0.945
-0.965
-0.98
-1.005
-0.99
-0.995
-1.01
-1.01
-1.04
-1.045
-1.055
-1.07
-1.095
-1.1
-1.13
-1.135
-1.14
-1.15
-1.135
-1.115
-1.12
-1.125
-1.13
-1.15
-1.145
-1.14
-1.135
-1.13
-1.125
-1.105
-1.11
-1.065
-1.035
-1.035
-1.015
-1.01
-0.97
-0.955
-0.945
-0.925
-0.9
-0.88
-0.86
-0.83
-0.82
-0.815
-0.81
-0.81
-0.81
-0.79
-0.78
-0.765
-0.755
-0.74
-0.72
-0.71
-0.705
-0.71
-0.695
-0.7
-0.69
-0.705
-0.705
-0.69
-0.69
-0.68
-0.68
-0.685
-0.665
-0.675
-0.69
-0.715
-0.705
-0.72
-0.73
-0.72
-0.73
-0.715
-0.715
-0.705
-0.705
-0.715
-0.715
-0.72
-0.73
-0.75
-0.76
-0.76
-0.765
-0.76
-0.75
-0.73
-0.72
-0.735
-0.745
-0.765
-0.77
-0.765
-0.78
-0.795
-0.79
-0.78
-0.775
-0.745
-0.745
-0.745
-0.735
-0.74
-0.745
-0.74
-0.745
-0.74
-0.735
-0.73
-0.72
-0.745
-0.735
-0.715
-0.73
-0.715
-0.715
-0.715
-0.73
-0.72
-0.74
-0.735
-0.725
-0.715
-0.735
-0.715
-0.725
-0.73
-0.74
-0.735
-0.73
-0.72
-0.705
-0.7
-0.695
-0.685
-0.695
-0.695
-0.68
-0.67
-0.66
-0.65
-0.635
-0.615
-0.62
-0.585
-0.58
-0.56
-0.55
-0.52
-0.49
-0.485
-0.45
-0.45
-0.475
-0.495
-0.52
-0.53
-0.535
-0.55
-0.53
-0.52
-0.505
-0.49
-0.49
-0.5
-0.52
-0.55
-0.615
-0.62
-0.64
-0.655
-0.685
-0.7
-0.74
-0.75
-0.78
-0.77
-0.795
-0.8
-0.795
-0.805
-0.805
-0.795
-0.775
-0.785
-0.785
-0.785
-0.79
-0.805
-0.815
-0.815
-0.815
-0.81
-0.805
-0.78
-0.77
-0.78
-0.775
-0.8
-0.805
-0.8
-0.81
-0.81
-0.81
-0.82
-0.795
-0.775
-0.78
-0.77
-0.785
-0.8
-0.81
-0.815
-0.775
-0.67
-0.49
-0.29
-0.085
0.085
0.155
0.19
0.16
0.135
0.185
0.305
0.485
0.68
0.805
0.765
0.535
0.085
-0.49
-1.065
-1.555
-1.885
-2.055
-2.125
-2.15
-2.18
-2.21
-2.23
-2.245
-2.28
-2.26
-2.26
-2.265
-2.27
-2.265
-2.24
-2.215
-2.175
-2.095
-1.985
-1.83
-1.675
-1.51
-1.36
-1.245
-1.145
-1.055
-1.035
-1.01
-1.0
-0.99
-0.965
-0.925
-0.9
-0.875
-0.85
-0.86
-0.865
-0.87
-0.86
-0.865
-0.865
-0.86
-0.855
-0.86
-0.85
-0.85
-0.88
-0.89
-0.905
-0.925
-0.93
-0.925
-0.94
-0.94
-0.94
-0.955
-0.95
-0.965
-0.985
-1.0
-1.03
-1.045
-1.065
-1.08
-1.085
-1.085
-1.095
-1.105
-1.11
-1.13
-1.14
-1.165
-1.17
-1.19
-1.205
-1.22
-1.235
-1.23
-1.215
-1.21
-1.19
-1.19
-1.185
-1.19
-1.21
-1.19
-1.18
-1.18
-1.18
-1.15
-1.11
-1.105
-1.085
-1.065
-1.065
-1.05
-1.03
-1.015
-0.995
-0.99
-0.97
-0.91
-0.895
-0.885
-0.855
-0.84
-0.825
-0.83
-0.83
-0.82
-0.795
-0.795
-0.785
-0.785
-0.765
-0.765
-0.75
-0.74
-0.745
-0.735
-0.73
-0.74
-0.75
-0.725
-0.73
-0.735
-0.74
-0.735
-0.72
-0.735
-0.725
-0.705
-0.715
-0.73
-0.745
-0.74
-0.755
-0.755
-0.735
-0.725
-0.735
-0.73
-0.745
-0.735
-0.765
-0.76
-0.75
-0.775
-0.78
-0.785
-0.79
-0.78
-0.77
-0.765
-0.765
-0.77
-0.785
-0.79
-0.805
-0.815
-0.8
-0.78
-0.78
-0.77
-0.765
-0.77
-0.75
-0.75
-0.75
-0.76
-0.76
-0.785
-0.795
-0.785
-0.79
-0.78
-0.76
-0.745
-0.745
-0.76
-0.775
-0.77
-0.79
-0.79
-0.8
-0.795
-0.775
-0.78
-0.76
-0.755
-0.75
-0.755
-0.765
-0.77
-0.775
-0.78
-0.765
-0.765
-0.755
-0.75
-0.73
-0.715
-0.735
-0.765
-0.78
-0.775
-0.78
-0.785
-0.765
-0.745
-0.72
-0.7
-0.665
-0.65
-0.65
-0.645
-0.63
-0.645
-0.64
-0.64
-0.645
-0.615
-0.57
-0.535
-0.485
-0.47
-0.495
-0.505
-0.55
-0.58
-0.595
-0.62
-0.635
-0.63
-0.595
-0.57
-0.535
-0.505
-0.505
-0.49
-0.515
-0.575
-0.62
-0.635
-0.68
-0.715
-0.725
-0.735
-0.72
-0.735
-0.755
-0.785
-0.82
-0.83
-0.84
-0.825
-0.835
-0.825
-0.825
-0.82
-0.81
-0.81
-0.83
-0.825
-0.85
-0.86
-0.86
-0.88
-0.845
-0.84
-0.84
-0.83
-0.84
-0.83
-0.855
-0.845
-0.86
-0.875
-0.86
-0.86
-0.86
-0.865
-0.86
-0.87
-0.865
-0.855
-0.805
-0.665
-0.5
-0.31
-0.105
0.04
0.14
0.16
0.14
0.135
0.17
0.29
0.47
0.645
0.73
0.67
0.355
-0.135
-0.73
-1.255
-1.655
-1.895
-1.99
-2.025
-2.045
-2.085
-2.12
-2.145
-2.17
-2.195
-2.195
-2.2
-2.195
-2.17
-2.155
-2.115
-2.1
-2.04
-1.955
-1.835
-1.72
-1.545
-1.385
-1.24
-1.13
-1.035
-0.985
-0.97
-0.96
-0.945
-0.95
-0.945
-0.95
-0.95
-0.92
-0.905
-0.885
-0.875
-0.885
-0.875
-0.9
-0.895
-0.91
-0.91
-0.925
-0.94
-0.945
-0.945
-0.935
-0.925
-0.94
-0.96
-0.955
-0.98
-1.0
-1.01
-1.045
-1.05
-1.08
-1.08
-1.07
-1.07
-1.075
-1.08
-1.105
-1.115
-1.15
-1.17
-1.19
-1.195
-1.21
-1.215
-1.22
-1.21
-1.2
-1.2
-1.195
-1.21
-1.24
-1.22
-1.23
-1.24
-1.245
-1.24
-1.215
-1.21
-1.2
-1.19
-1.17
-1.16
-1.155
-1.145
-1.13
-1.125
-1.09
-1.06
-1.04
-1.005
-0.985
-0.95
-0.93
-0.915
-0.9
-0.885
-0.88
-0.875
-0.845
-0.84
-0.82
-0.805
-0.8
-0.79
-0.77
-0.775
-0.78
-0.78
-0.77
-0.765
-0.77
-0.765
-0.755
-0.74
-0.72
-0.73
-0.735
-0.755
-0.77
-0.785
-0.775
-0.78
-0.77
-0.76
-0.75
-0.75
-0.72
-0.745
-0.755
-0.75
-0.77
-0.77
-0.785
-0.785
-0.78
-0.77
-0.775
-0.765
-0.76
-0.76
-0.77
-0.765
-0.785
-0.78
-0.78
-0.795
-0.795
-0.795
-0.815
-0.785
-0.77
-0.76
-0.765
-0.755
-0.77
-0.77
-0.785
-0.795
-0.795
-0.79
-0.78
-0.78
-0.765
-0.775
-0.78
-0.78
-0.765
-0.775
-0.78
-0.785
-0.785
-0.78
-0.785
-0.765
-0.765
-0.765
-0.755
-0.765
-0.77
-0.775
-0.765
-0.775
-0.755
-0.765
-0.76
-0.76
-0.76
-0.735
-0.74
-0.725
-0.71
-0.69
-0.71
-0.715
-0.68
-0.66
-0.64
-0.63
-0.615
-0.585
-0.57
-0.535
-0.515
-0.5
-0.515
-0.545
-0.565
-0.595
-0.61
-0.615
-0.625
-0.625
-0.6
-0.565
-0.57
-0.545
-0.54
-0.56
-0.56
-0.59
-0.615
-0.65
-0.69
-0.695
-0.735
-0.745
-0.765
-0.795
-0.8
-0.83
-0.825
-0.83
-0.83
-0.845
-0.845
-0.84
-0.845
-0.845
-0.85
-0.845
-0.865
-0.875
-0.865
-0.865
-0.86
-0.86
-0.87
-0.855
-0.865
-0.895
-0.885
-0.865
-0.865
-0.87
-0.87
-0.885
-0.87
-0.86
-0.865
-0.86
-0.86
-0.89
-0.905
-0.925
-0.93
-0.895
-0.825
-0.67
-0.48
-0.265
-0.1
0.015
0.06
0.02
-0.025
0.0
0.075
0.23
0.45
0.66
0.745
0.7
0.44
-0.01
-0.57
-1.095
-1.53
-1.79
-1.96
-2.035
-2.075
-2.13
-2.19
-2.23
-2.26
-2.27
-2.24
-2.25
-2.25
-2.265
-2.275
-2.27
-2.25
-2.185
-2.115
-2.01
-1.88
-1.735
-1.56
-1.405
-1.265
-1.17
-1.095
-1.045
-1.035
-1.025
-1.0
-0.985
-0.955
-0.925
-0.94
-0.935
-0.94
-0.935
-0.935
-0.925
-0.94
-0.915
-0.92
-0.91
-0.91
-0.905
-0.915
-0.935
-0.95
-0.97
-0.98
-0.995
-1.01
-1.02
-1.02
-1.025
-1.035
-1.04
-1.06
-1.07
-1.08
-1.105
-1.115
-1.13
-1.16
-1.155
-1.16
-1.155
-1.16
-1.17
-1.175
-1.185
-1.205
-1.24
-1.25
-1.27
-1.265
-1.27
-1.245
-1.245
-1.22
-1.2
-1.19
-1.19
-1.195
-1.19
-1.195
-1.185
-1.175
-1.16
-1.135
-1.1
-1.075
-1.05
-1.025
-1.01
-1.0
-0.98
-0.975
-0.97
-0.94
-0.915
-0.88
-0.87
-0.845
-0.845
-0.835
-0.825
-0.82
-0.815
-0.825
-0.82
-0.81
-0.79
-0.795
-0.775
-0.765
-0.78
-0.78
-0.785
-0.785
-0.8
-0.785
-0.81
-0.785
-0.785
-0.76
-0.76
-0.74
-0.74
-0.745
-0.765
-0.775
-0.785
-0.8
-0.805
-0.82
-0.81
-0.785
-0.78
-0.79
-0.78
-0.78
-0.79
-0.805
-0.825
-0.835
-0.85
-0.845
-0.845
-0.835
-0.81
-0.8
-0.81
-0.8
-0.81
-0.83
-0.825
-0.845
-0.855
-0.855
-0.845
-0.835
-0.81
-0.82
-0.79
-0.795
-0.81
-0.82
-0.83
-0.83
-0.825
-0.82
-0.81
-0.81
-0.805
-0.795
-0.8
-0.805
-0.8
-0.81
-0.81
-0.82
-0.8
-0.825
-0.81
-0.81
-0.8
-0.785
-0.78
-0.79
-0.77
-0.775
-0.785
-0.785
-0.79
-0.78
-0.795
-0.775
-0.755
-0.745
-0.73
-0.725
-0.725
-0.725
-0.695
-0.69
-0.685
-0.675
-0.675
-0.64
-0.635
-0.595
-0.57
-0.55
-0.515
-0.545
-0.535
-0.55
-0.575
-0.585
-0.605
-0.61
-0.605
-0.615
-0.62
-0.6
-0.58
-0.55
-0.53
-0.535
-0.55
-0.585
-0.62
-0.67
-0.71
-0.725
-0.73
-0.75
-0.745
-0.77
-0.785
-0.82
-0.82
-0.845
-0.845
-0.845
-0.855
-0.845
-0.845
-0.845
-0.85
-0.85
-0.84
-0.845
-0.86
-0.865
-0.875
-0.875
-0.885
-0.87
-0.865
-0.88
-0.885
-0.89
-0.885
-0.885
-0.87
-0.875
-0.855
-0.86
-0.86
-0.85
-0.855
-0.865
-0.875
-0.895
-0.91
-0.905
-0.83
-0.73
-0.575
-0.4
-0.21
-0.055
0.02
0.015
-0.025
-0.075
-0.045
0.075
0.28
0.505
0.69
0.76
0.64
0.295
-0.24
-0.805
-1.32
-1.7
-1.93
-2.045
-2.095
-2.155
-2.2
-2.265
-2.3
-2.35
-2.355
-2.345
-2.32
-2.32
-2.315
-2.3
-2.28
-2.255
-2.205
-2.13
-2.02
-1.885
-1.72
-1.575
-1.415
-1.305
-1.2
-1.14
-1.085
-1.06
-1.015
-0.99
-0.98
-0.955
-0.945
-0.925
-0.93
-0.935
-0.94
-0.95
-0.93
-0.925
-0.93
-0.935
-0.935
-0.925
-0.93
-0.95
-0.97
-0.975
-0.975
-1.0
-1.015
-1.025
-1.01
-1.02
-1.015
-1.015
-1.01
-1.025
-1.045
-1.065
-1.105
-1.125
-1.125
-1.155
-1.145
-1.155
-1.16
-1.175
-1.17
-1.17
-1.185
-1.205
-1.235
-1.235
-1.25
-1.27
-1.265
-1.255
-1.245
-1.245
-1.23
-1.23
-1.245
-1.235
-1.25
-1.24
-1.225
-1.225
-1.22
-1.185
-1.18
-1.165
-1.13
-1.105
-1.105
-1.07
-1.06
-1.04
-1.015
-0.99
-0.97
-0.97
-0.96
-0.93
-0.89
-0.885
-0.895
-0.89
-0.91
-0.89
-0.875
-0.865
-0.85
-0.835
-0.815
-0.81
-0.815
-0.795
-0.815
-0.835
-0.85
-0.84
-0.86
-0.85
-0.855
-0.83
-0.82
-0.82
-0.82
-0.81
-0.825
-0.83
-0.845
-0.855
-0.87
-0.88
-0.87
-0.875
-0.85
-0.85
-0.845
-0.855
-0.855
-0.86
-0.87
-0.885
-0.885
-0.905
-0.93
-0.93
-0.91
-0.895
-0.875
-0.89
-0.885
-0.89
-0.885
-0.89
-0.895
-0.905
-0.91
-0.905
-0.88
-0.9
-0.885
-0.88
-0.87
-0.88
-0.875
-0.89
-0.89
-0.89
-0.875
-0.87
-0.86
-0.85
-0.835
-0.85
-0.86
-0.88
-0.885
-0.89
-0.89
-0.905
-0.9
-0.89
-0.86
-0.86
-0.855
-0.86
-0.865
-0.86
-0.88
-0.88
-0.89
-0.88
-0.88
-0.87
-0.87
-0.84
-0.84
-0.84
-0.85
-0.86
-0.86
-0.87
-0.86
-0.86
-0.84
-0.815
-0.815
-0.81
-0.77
-0.775
-0.755
-0.765
-0.755
-0.765
-0.75
-0.755
-0.715
-0.69
-0.655
-0.625
-0.605
-0.615
-0.63
-0.66
-0.68
-0.705
-0.72
-0.73
-0.72
-0.69
-0.66
-0.625
-0.585
-0.595
-0.6
-0.625
-0.705
-0.745
-0.785
-0.825
-0.845
-0.83
-0.865
-0.85
-0.87
-0.89
-0.9
-0.92
-0.95
-0.965
-0.94
-0.95
-0.95
-0.96
-0.945
-0.93
-0.92
-0.92
-0.925
-0.935
-0.945
-0.955
-0.955
-0.97
-0.985
-0.97
-0.95
-0.945
-0.935
-0.91
-0.905
-0.91
-0.92
-0.945
-0.945
-0.95
-0.955
-0.95
-0.945
-0.945
-0.945
-0.94
-0.915
-0.87
-0.755
-0.58
-0.385
-0.205
-0.05
0.045
0.07
0.02
-0.01
-0.005
0.07
0.22
0.415
0.565
0.625
0.52
0.215
-0.285
-0.835
-1.365
-1.76
-2.01
-2.155
-2.24
-2.26
-2.285
-2.31
-2.365
-2.385
-2.38
-2.36
-2.34
-2.32
-2.325
-2.31
-2.28
-2.245
-2.18
-2.08
-1.925
-1.735
-1.55
-1.395
-1.25
-1.15
-1.095
-1.07
-1.055
-1.06
-1.065
-1.065
-1.06
-1.06
-1.035
-1.025
-1.01
-0.99
-1.01
-0.99
-1.02
-1.045
-1.055
-1.05
-1.06
-1.06
-1.065
-1.075
-1.055
-1.04
-1.065
-1.085
-1.09
-1.115
-1.125
-1.14
-1.17
-1.175
-1.18
-1.185
