Lead II
-0.54
-0.53
-0.535
-0.53
-0.53
-0.54
-0.55
-0.55
-0.55
-0.53
-0.525
-0.54
-0.555
-0.54
-0.545
-0.54
-0.53
-0.545
-0.55
-0.555
-0.54
-0.54
-0.535
-0.555
-0.56
-0.55
-0.535
-0.53
-0.54
-0.555
-0.54
-0.55
-0.55
-0.55
-0.55
-0.555
-0.565
-0.555
-0.555
-0.55
-0.565
-0.555
-0.565
-0.555
-0.545
-0.54
-0.54
-0.545
-0.54
-0.505
-0.5
-0.485
-0.475
-0.46
-0.46
-0.425
-0.405
-0.36
-0.36
-0.34
-0.325
-0.31
-0.28
-0.23
-0.19
-0.165
-0.18
-0.19
-0.19
-0.185
-0.18
-0.135
-0.015
0.265
0.74
1.29
1.73
1.905
1.87
1.775
1.705
1.67
1.61
1.51
1.4
1.295
1.2
1.115
0.995
0.885
0.755
0.605
0.45
0.265
0.07
-0.13
-0.345
-0.54
-0.74
-0.93
-1.09
-1.255
-1.4
-1.52
-1.615
-1.725
-1.81
-1.915
-2.02
-2.095
-2.175
-2.21
-2.27
-2.315
-2.4
-2.495
-2.565
-2.64
-2.715
-2.805
-2.88
-2.93
-2.915
-2.81
-2.67
-2.495
-2.325
-2.155
-1.97
-1.81
-1.685
-1.605
-1.555
-1.51
-1.475
-1.43
-1.425
-1.4
-1.41
-1.375
-1.31
-1.245
-1.17
-1.115
-1.05
-0.99
-0.93
-0.89
-0.84
-0.8
-0.745
-0.67
-0.61
-0.535
-0.47
-0.425
-0.39
-0.32
-0.27
-0.24
-0.22
-0.225
-0.22
-0.21
-0.18
-0.145
-0.14
-0.125
-0.13
-0.11
-0.085
-0.07
-0.04
-0.025
-0.02
0.01
0.035
0.065
0.08
0.11
0.115
0.16
0.195
0.225
0.24
0.27
0.285
0.315
0.36
0.39
0.41
0.435
0.455
0.48
0.505
0.54
0.565
0.575
0.585
0.6
0.63
0.64
0.64
0.625
0.63
0.62
0.62
0.625
0.61
0.585
0.56
0.55
0.53
0.51
0.49
0.445
0.41
0.38
0.36
0.32
0.27
0.225
0.18
0.135
0.09
0.06
0.01
-0.05
-0.11
-0.16
-0.2
-0.22
-0.275
-0.32
-0.37
-0.405
-0.415
-0.445
-0.48
-0.51
-0.56
-0.56
-0.575
-0.585
-0.605
-0.62
-0.64
-0.645
-0.655
-0.65
-0.665
-0.68
-0.695
-0.695
-0.7
-0.69
-0.7
-0.705
-0.71
-0.71
-0.71
-0.715
-0.71
-0.71
-0.73
-0.72
-0.72
-0.72
-0.72
-0.72
-0.735
-0.735
-0.73
-0.73
-0.735
-0.735
-0.745
-0.74
-0.735
-0.725
-0.72
-0.735
-0.745
-0.74
-0.74
-0.725
-0.735
-0.745
-0.755
-0.745
-0.735
-0.73
-0.73
-0.73
-0.735
-0.745
-0.725
-0.715
-0.715
-0.725
-0.74
-0.725
-0.73
-0.705
-0.705
-0.7
-0.695
-0.675
-0.65
-0.625
-0.625
-0.605
-0.58
-0.56
-0.525
-0.495
-0.48
-0.45
-0.44
-0.42
-0.39
-0.37
-0.39
-0.435
-0.485
-0.5
-0.505
-0.505
-0.5
-0.52
-0.52
-0.52
-0.525
-0.55
-0.555
-0.585
-0.63
-0.635
-0.64
-0.655
-0.675
-0.7
-0.74
-0.755
-0.75
-0.755
-0.775
-0.795
-0.805
-0.805
-0.795
-0.795
-0.815
-0.825
-0.85
-0.845
-0.83
-0.825
-0.82
-0.825
-0.845
-0.83
-0.825
-0.815
-0.82
-0.815
-0.82
-0.815
-0.79
-0.765
-0.745
-0.74
-0.71
-0.63
-0.445
-0.07
0.555
1.19
1.695
1.795
1.67
1.52
1.425
1.36
1.27
1.17
1.06
0.96
0.855
0.75
0.625
0.51
0.375
0.235
0.075
-0.105
-0.265
-0.42
-0.58
-0.74
-0.92
-1.085
-1.23
-1.31
-1.395
-1.475
-1.575
-1.67
-1.78
-1.85
-1.935
-1.965
-2.025
-2.105
-2.225
-2.325
-2.42
-2.49
-2.57
-2.67
-2.73
-2.72
-2.63
-2.52
-2.41
-2.265
-2.115
-1.94
-1.82
-1.73
-1.675
-1.65
-1.61
-1.56
-1.52
-1.475
-1.44
-1.415
-1.38
-1.32
-1.255
-1.17
-1.085
-1.025
-0.97
-0.9
-0.83
-0.775
-0.715
-0.66
-0.605
-0.535
-0.465
-0.41
-0.35
-0.31
-0.275
-0.24
-0.2
-0.19
-0.175
-0.16
-0.145
-0.115
-0.1
-0.07
-0.06
-0.045
-0.05
-0.025
-0.005
0.03
0.06
0.07
0.095
0.115
0.145
0.18
0.215
0.24
0.27
0.29
0.335
0.385
0.41
0.435
0.465
0.505
0.535
0.575
0.595
0.615
0.625
0.655
0.68
0.715
0.72
0.73
0.725
0.735
0.755
0.755
0.745
0.73
0.725
0.71
0.695
0.7
0.675
0.645
0.61
0.59
0.57
0.54
0.505
0.465
0.42
0.38
0.345
0.295
0.26
0.205
0.15
0.095
0.05
0.0
-0.045
-0.095
-0.15
-0.205
-0.24
-0.26
-0.29
-0.33
-0.37
-0.4
-0.43
-0.435
-0.46
-0.485
-0.515
-0.535
-0.54
-0.54
-0.545
-0.565
-0.57
-0.58
-0.57
-0.575
-0.58
-0.58
-0.595
-0.6
-0.59
-0.57
-0.56
-0.545
-0.54
-0.51
-0.495
-0.45
-0.435
-0.405
-0.385
-0.36
-0.32
-0.29
-0.265
-0.27
-0.255
-0.235
-0.215
-0.23
-0.285
-0.345
-0.385
-0.375
-0.37
-0.36
-0.35
-0.36
-0.375
-0.39
-0.4
-0.4
-0.42
-0.455
-0.485
-0.495
-0.505
-0.515
-0.54
-0.57
-0.605
-0.615
-0.615
-0.625
-0.63
-0.65
-0.67
-0.675
-0.685
-0.685
-0.695
-0.705
-0.71
-0.705
-0.7
-0.7
-0.705
-0.715
-0.73
-0.715
-0.715
-0.71
-0.715
-0.71
-0.73
-0.72
-0.72
-0.72
-0.715
-0.735
-0.73
-0.73
-0.72
-0.71
-0.715
-0.715
-0.715
-0.715
-0.715
-0.71
-0.7
-0.725
-0.725
-0.71
-0.705
-0.7
-0.7
-0.7
-0.73
-0.705
-0.705
-0.685
-0.68
-0.69
-0.7
-0.705
-0.68
-0.68
-0.675
-0.68
-0.685
-0.675
-0.665
-0.655
-0.65
-0.65
-0.65
-0.645
-0.625
-0.615
-0.59
-0.575
-0.555
-0.51
-0.44
-0.295
0.045
0.655
1.29
1.9
1.99
1.84
1.705
1.615
1.54
1.455
1.34
1.23
1.12
1.005
0.89
0.76
0.63
0.475
0.295
0.09
-0.105
-0.3
-0.495
-0.705
-0.9
-1.055
-1.19
-1.31
-1.415
-1.545
-1.635
-1.74
-1.86
-1.95
-2.01
-2.05
-2.11
-2.2
-2.33
-2.42
-2.48
-2.555
-2.63
-2.685
-2.685
-2.625
-2.5
-2.335
-2.16
-1.975
-1.815
-1.65
-1.53
-1.45
-1.39
-1.34
-1.29
-1.225
-1.165
-1.135
-1.105
-1.055
-0.995
-0.905
-0.805
-0.71
-0.655
-0.595
-0.55
-0.48
-0.42
-0.345
-0.275
-0.215
-0.15
-0.1
-0.03
0.03
0.07
0.1
0.11
0.135
0.155
0.17
0.19
0.21
0.21
0.235
0.265
0.285
0.3
0.32
0.315
0.345
0.375
0.41
0.425
0.44
0.46
0.515
0.54
0.565
0.6
0.62
0.655
0.69
0.725
0.75
0.775
0.79
0.81
0.85
0.89
0.925
0.935
0.95
0.97
0.99
1.015
1.025
1.03
1.03
1.04
1.035
1.045
1.04
1.03
1.035
1.0
1.0
0.99
0.985
0.975
0.95
0.925
0.915
0.91
0.895
0.88
0.865
0.845
0.835
0.825
0.805
0.795
0.77
0.725
0.71
0.675
0.63
0.55
0.455
0.36
0.305
0.26
0.23
0.2
0.155
0.1
0.065
0.04
0.015
-0.03
-0.085
-0.135
-0.165
-0.175
-0.195
-0.22
-0.26
-0.31
-0.34
-0.36
-0.38
-0.39
-0.415
-0.42
-0.43
-0.43
-0.425
-0.45
-0.47
-0.5
-0.5
-0.495
-0.49
-0.49
-0.505
-0.51
-0.515
-0.5
-0.5
-0.5
-0.505
-0.515
-0.495
-0.5
-0.49
-0.485
-0.49
-0.505
-0.495
-0.49
-0.48
-0.48
-0.49
-0.505
-0.5
-0.49
-0.46
-0.47
-0.48
-0.49
-0.5
-0.48
-0.475
-0.475
-0.49
-0.495
-0.495
-0.475
-0.47
-0.47
-0.475
-0.485
-0.475
-0.46
-0.46
-0.475
-0.475
-0.49
-0.48
-0.46
-0.46
-0.46
-0.47
-0.47
-0.47
-0.455
-0.455
-0.455
-0.47
-0.475
-0.465
-0.45
-0.445
-0.46
-0.465
-0.465
-0.465
-0.455
-0.43
-0.445
-0.45
-0.455
-0.46
-0.43
-0.425
-0.42
-0.435
-0.45
-0.425
-0.42
-0.415
-0.41
-0.43
-0.425
-0.415
-0.405
-0.4
-0.39
-0.4
-0.41
-0.41
-0.395
-0.38
-0.385
-0.405
-0.405
-0.39
-0.365
-0.35
-0.365
-0.36
-0.375
-0.35
-0.35
-0.335
-0.34
-0.34
-0.325
-0.31
-0.285
-0.24
-0.185
-0.08
0.19
0.735
1.37
1.945
2.145
2.07
1.925
1.85
1.805
1.75
1.655
1.55
1.455
1.385
1.285
1.2
1.085
0.945
0.81
0.65
0.47
0.315
0.125
-0.1
-0.32
-0.54
-0.725
-0.89
-1.005
-1.145
-1.285
-1.41
-1.495
-1.565
-1.655
-1.775
-1.865
-1.9
-1.935
-2.0
-2.095
-2.195
-2.295
-2.37
-2.44
-2.505
-2.555
-2.545
-2.48
-2.3
-2.11
-1.905
-1.725
-1.545
-1.395
-1.275
-1.195
-1.135
-1.085
-1.06
-1.025
-0.99
-0.965
-0.935
-0.895
-0.84
-0.76
-0.685
-0.61
-0.535
-0.485
-0.43
-0.385
-0.33
-0.26
-0.175
-0.1
-0.04
0.02
0.075
0.135
0.195
0.23
0.25
0.255
0.265
0.305
0.34
0.355
0.365
0.385
0.42
0.45
0.48
0.515
0.545
0.58
0.635
0.685
0.725
0.77
0.81
0.84
0.895
0.945
0.995
1.035
1.045
1.02
1.025
1.025
1.06
1.07
1.095
1.105
1.125
1.16
1.18
1.185
1.175
1.19
1.185
1.195
1.19
1.165
1.155
1.125
1.12
1.11
1.1
1.07
1.04
1.0
0.98
0.96
0.955
0.92
0.89
0.85
0.815
0.79
0.765
0.735
0.68
0.63
0.595
0.565
0.525
0.49
0.435
0.38
0.35
0.305
0.27
0.235
0.17
0.135
0.1
0.06
0.03
-0.005
-0.045
-0.085
-0.11
-0.13
-0.16
-0.195
-0.225
-0.255
-0.275
-0.285
-0.3
-0.305
-0.325
-0.35
-0.355
-0.34
-0.34
-0.36
-0.375
-0.4
-0.39
-0.37
-0.38
-0.39
-0.395
-0.42
-0.42
-0.405
-0.39
-0.405
-0.415
-0.42
-0.42
-0.42
-0.4
-0.41
-0.415
-0.43
-0.42
-0.415
-0.405
-0.41
-0.42
-0.435
-0.43
-0.43
-0.425
-0.425
-0.42
-0.42
-0.42
-0.41
-0.415
-0.415
-0.425
-0.425
-0.41
-0.39
-0.4
-0.4
-0.415
-0.4
-0.4
-0.4
-0.38
-0.39
-0.39
-0.41
-0.4
-0.39
-0.39
-0.39
-0.41
-0.41
-0.4
-0.39
-0.39
-0.405
-0.4
-0.42
-0.415
-0.41
-0.4
-0.395
-0.4
-0.405
-0.405
-0.405
-0.4
-0.405
-0.395
-0.42
-0.405
-0.395
-0.395
-0.395
-0.41
-0.41
-0.405
-0.395
-0.385
-0.39
-0.395
-0.405
-0.41
-0.39
-0.385
-0.395
-0.405
-0.41
-0.38
-0.39
-0.4
-0.39
-0.395
-0.4
-0.4
-0.39
-0.39
-0.39
-0.395
-0.395
-0.39
-0.38
-0.39
-0.38
-0.39
-0.395
-0.39
-0.38
-0.375
-0.375
-0.39
-0.39
-0.385
-0.37
-0.355
-0.355
-0.355
-0.335
-0.315
-0.28
-0.245
-0.17
0.01
0.405
1.04
1.655
2.01
2.025
1.905
1.79
1.72
1.665
1.59
1.485
1.36
1.255
1.15
1.07
0.935
0.8
0.635
0.44
0.24
0.06
-0.135
-0.335
-0.545
-0.735
-0.9
-1.03
-1.155
-1.285
-1.425
-1.535
-1.63
-1.71
-1.795
-1.885
-1.97
-2.04
-2.1
-2.16
-2.25
-2.345
-2.44
-2.525
-2.57
-2.635
-2.645
-2.59
-2.435
-2.235
-1.995
-1.775
-1.585
-1.435
-1.3
-1.195
-1.095
-1.015
-0.945
-0.88
-0.825
-0.785
-0.775
-0.755
-0.715
-0.67
-0.6
-0.53
-0.43
-0.345
-0.285
-0.235
-0.2
-0.17
-0.115
-0.06
0.005
0.045
0.07
0.085
0.12
0.145
0.17
0.15
0.135
0.13
0.145
0.155
0.165
0.165
0.165
0.15
0.17
0.185
0.2
0.2
0.2
0.205
0.225
0.27
0.29
0.295
0.32
0.325
0.355
0.38
0.415
0.435
0.45
0.485
0.51
0.56
0.58
0.605
0.625
0.635
0.66
0.69
0.715
0.73
0.735
0.745
0.76
0.775
0.795
0.775
0.775
0.76
0.77
0.77
0.775
0.77
0.75
0.725
0.72
0.725
0.69
0.665
0.635
0.595
0.57
0.55
0.51
0.475
0.425
0.38
0.34
0.325
0.29
0.235
0.18
0.12
0.075
0.03
-0.015
-0.075
-0.13
-0.195
-0.24
-0.275
-0.315
-0.37
-0.42
-0.47
-0.505
-0.525
-0.55
-0.595
-0.645
-0.695
-0.715
-0.74
-0.75
-0.79
-0.815
-0.85
-0.86
-0.865
-0.885
-0.905
-0.93
-0.95
-0.98
-0.98
-0.98
-0.985
-1.0
-1.02
-1.03
-1.04
-1.04
-1.045
-1.065
-1.085
-1.085
-1.085
-1.09
-1.105
-1.125
-1.13
-1.13
-1.14
-1.14
-1.155
-1.155
-1.17
-1.165
-1.15
-1.15
-1.15
-1.17
-1.185
-1.185
-1.165
-1.165
-1.17
-1.19
-1.185
-1.18
-1.175
-1.175
-1.18
-1.2
-1.2
-1.19
-1.185
-1.18
-1.18
-1.185
-1.205
-1.17
-1.165
-1.165
-1.16
-1.18
-1.195
-1.175
-1.165
-1.155
-1.17
-1.17
-1.17
-1.17
-1.165
-1.155
-1.155
-1.17
-1.185
-1.17
-1.155
-1.16
-1.165
-1.175
-1.165
-1.165
-1.16
-1.15
-1.16
-1.165
-1.165
-1.16
-1.15
-1.16
-1.16
-1.175
-1.175
-1.17
-1.15
-1.16
-1.16
-1.165
-1.175
-1.16
-1.16
-1.155
-1.17
-1.17
-1.175
-1.175
-1.16
-1.16
-1.17
-1.18
-1.185
-1.165
-1.165
-1.165
-1.16
-1.17
-1.195
-1.175
-1.185
-1.175
-1.18
-1.19
-1.19
-1.185
-1.18
-1.18
-1.18
-1.185
-1.19
-1.185
-1.165
-1.165
-1.175
-1.165
-1.17
-1.155
-1.145
-1.125
-1.115
-1.1
-1.075
-1.025
-0.95
-0.83
-0.595
-0.14
0.495
1.13
1.765
2.07
2.055
1.98
1.89
1.85
1.785
1.695
1.575
1.435
1.335
1.23
1.115
0.96
0.78
0.55
0.305
0.075
-0.135
-0.355
-0.595
-0.815
-1.04
-1.215
-1.365
-1.51
-1.665
-1.805
-1.95
-2.07
-2.17
-2.27
-2.38
-2.465
-2.525
-2.56
-2.61
-2.68
-2.745
-2.8
-2.845
-2.865
-2.89
-2.905
-2.9
-2.89
-2.85
-2.765
-2.665
-2.575
-2.475
-2.36
-2.26
-2.175
-2.1
-2.05
-2.02
-1.995
-1.97
-1.93
-1.9
-1.88
-1.87
-1.845
-1.79
-1.745
-1.67
-1.605
-1.555
-1.51
-1.495
-1.45
-1.41
-1.37
-1.33
-1.295
-1.25
-1.205
-1.155
-1.11
-1.07
-1.045
-1.005
-0.99
-0.96
-0.95
-0.95
-0.955
-0.945
-0.925
-0.905
-0.905
-0.895
-0.885
-0.865
-0.835
-0.82
-0.79
-0.785
-0.78
-0.76
-0.75
-0.71
-0.69
-0.675
-0.66
-0.635
-0.605
-0.57
-0.53
-0.5
-0.505
-0.465
-0.425
-0.38
-0.36
-0.33
-0.295
-0.285
-0.25
-0.2
-0.18
-0.16
-0.145
-0.14
-0.12
-0.09
-0.075
-0.065
-0.06
-0.07
-0.045
-0.05
-0.06
-0.065
-0.075
-0.115
-0.115
-0.13
-0.14
-0.16
-0.2
-0.235
-0.26
-0.285
-0.315
-0.35
-0.395
-0.45
-0.475
-0.515
-0.555
-0.58
-0.64
-0.695
-0.735
-0.76
-0.8
-0.845
-0.895
-0.945
-0.965
-1.0
-1.035
-1.065
-1.095
-1.12
-1.15
-1.165
-1.175
-1.205
-1.225
-1.24
-1.245
-1.245
-1.245
-1.26
-1.295
-1.295
-1.3
-1.295
-1.3
-1.3
-1.32
-1.335
-1.335
-1.32
-1.315
-1.325
-1.335
-1.345
-1.33
-1.31
-1.31
-1.31
-1.33
-1.345
-1.345
-1.32
-1.33
-1.315
-1.32
-1.34
-1.325
-1.32
-1.315
-1.32
-1.325
-1.335
-1.33
-1.325
-1.325
-1.325
-1.32
-1.34
-1.33
-1.32
-1.315
-1.32
-1.32
-1.32
-1.325
-1.305
-1.29
-1.29
-1.29
-1.295
-1.28
-1.275
-1.265
-1.275
-1.285
-1.275
-1.27
-1.26
-1.265
-1.265
-1.27
-1.275
-1.275
-1.255
-1.265
-1.265
-1.275
-1.265
-1.265
-1.27
-1.25
-1.26
-1.265
-1.26
-1.26
-1.255
-1.24
-1.25
-1.26
-1.25
-1.255
-1.24
-1.255
-1.24
-1.24
-1.25
-1.245
-1.23
-1.22
-1.215
-1.215
-1.21
-1.195
-1.175
-1.165
-1.15
-1.13
-1.1
-1.085
-1.06
-1.04
-1.025
-1.015
-0.99
-0.975
-0.94
-0.925
-0.94
-0.975
-0.99
-1.0
-1.005
-0.99
-0.99
-0.99
-0.995
-0.985
-0.975
-0.985
-0.99
-1.015
-1.025
-1.025
-1.04
-1.04
-1.065
-1.07
-1.08
-1.08
-1.09
-1.085
-1.09
-1.095
-1.085
-1.065
-1.055
-1.04
-1.015
-0.985
-0.92
-0.775
-0.485
0.08
0.715
1.35
1.985
2.35
2.235
2.065
1.935
1.84
1.685
1.55
1.405
1.25
1.105
0.94
0.785
0.625
0.455
0.28
0.055
-0.145
-0.35
-0.525
-0.685
-0.85
-1.03
-1.175
-1.3
-1.395
-1.49
-1.585
-1.705
-1.81
-1.9
-1.97
-2.01
-2.06
-2.095
-2.145
-2.195
-2.225
-2.27
-2.305
-2.335
-2.36
-2.365
-2.37
-2.35
-2.31
-2.3
-2.25
-2.19
-2.095
-1.99
-1.865
-1.82
-1.785
-1.75
-1.705
-1.655
-1.615
-1.605
-1.58
-1.56
-1.53
-1.475
-1.44
-1.38
-1.35
-1.29
-1.235
-1.18
-1.13
-1.105
-1.07
-1.04
-0.975
-0.915
-0.865
-0.83
-0.79
-0.755
-0.705
-0.67
-0.655
-0.65
-0.655
-0.635
-0.61
-0.585
-0.575
-0.57
-0.56
-0.55
-0.525
-0.495
-0.485
-0.47
-0.465
-0.43
-0.405
-0.385
-0.35
-0.345
-0.325
-0.295
-0.255
-0.215
-0.195
-0.175
-0.15
-0.12
-0.075
-0.045
-0.015
0.02
0.035
0.065
0.095
0.13
0.16
0.165
0.175
0.195
0.23
0.245
0.255
0.26
0.265
0.265
0.27
0.275
0.275
0.265
0.24
0.215
0.21
0.195
0.17
0.135
0.095
0.06
0.045
0.0
-0.04
-0.07
-0.125
-0.165
-0.205
-0.24
-0.285
-0.33
-0.38
-0.425
-0.445
-0.475
-0.51
-0.555
-0.6
-0.625
-0.645
-0.66
-0.68
-0.72
-0.735
-0.76
-0.765
-0.77
-0.785
-0.795
-0.815
-0.825
-0.815
-0.835
-0.845
-0.845
-0.855
-0.86
-0.85
-0.845
-0.86
-0.87
-0.88
-0.865
-0.865
-0.86
-0.855
-0.85
-0.865
-0.87
-0.855
-0.85
-0.845
-0.84
-0.86
-0.865
-0.855
-0.845
-0.845
-0.855
-0.85
-0.86
-0.845
-0.835
-0.815
-0.82
-0.825
-0.805
-0.79
-0.77
-0.76
-0.745
-0.735
-0.7
-0.67
-0.64
-0.625
-0.605
-0.615
-0.585
-0.56
-0.525
-0.51
-0.52
-0.555
-0.585
-0.6
-0.605
-0.595
-0.6
-0.6
-0.6
-0.6
-0.615
-0.62
-0.635
-0.645
-0.665
-0.67
-0.675
-0.68
-0.7
-0.715
-0.74
-0.74
-0.745
-0.76
-0.765
-0.785
-0.795
-0.8
-0.805
-0.81
-0.825
-0.835
-0.835
-0.84
-0.84
-0.84
-0.845
-0.85
-0.855
-0.84
-0.84
-0.85
-0.85
-0.855
-0.855
-0.86
-0.84
-0.845
-0.835
-0.845
-0.86
-0.855
-0.825
-0.835
-0.84
-0.83
-0.84
-0.825
-0.815
-0.82
-0.815
-0.81
-0.82
-0.805
-0.785
-0.785
-0.79
-0.795
-0.805
-0.79
-0.77
-0.765
-0.765
-0.765
-0.76
-0.75
-0.73
-0.73
-0.72
-0.715
-0.695
-0.66
-0.615
-0.55
-0.45
-0.255
0.15
0.785
1.42
2.055
2.69
2.695
2.54
2.435
2.335
2.235
2.09
1.925
1.76
1.64
1.505
1.35
1.18
1.01
0.83
0.625
0.435
0.23
0.02
-0.165
-0.355
-0.535
-0.665
-0.785
-0.905
-0.995
-1.1
-1.19
-1.27
-1.355
-1.42
-1.515
-1.595
-1.65
-1.69
-1.74
-1.805
-1.87
-1.93
-1.955
-1.965
-1.985
-1.99
-1.995
-1.98
-1.925
-1.845
-1.765
-1.665
-1.57
-1.49
-1.435
-1.39
-1.34
-1.305
-1.275
-1.24
-1.19
-1.145
-1.12
-1.085
-1.06
-0.995
-0.94
-0.865
-0.795
-0.75
-0.715
-0.665
-0.61
-0.56
-0.5
-0.46
-0.41
-0.365
-0.31
-0.255
-0.22
-0.21
-0.19
-0.18
-0.165
-0.145
-0.115
-0.11
-0.105
-0.085
-0.055
-0.03
-0.02
-0.005
0.015
0.035
0.065
0.09
0.13
0.135
0.155
0.175
0.215
0.25
0.28
0.31
0.32
0.35
0.41
0.45
0.48
0.515
0.545
0.565
0.6
0.63
0.67
0.68
0.7
0.72
0.735
0.755
0.765
0.77
0.77
0.755
0.76
0.775
0.75
0.735
0.71
0.68
0.66
0.63
0.615
0.58
0.54
0.49
0.465
0.435
0.395
0.34
0.28
0.235
0.205
0.17
0.135
0.095
0.045
0.01
-0.02
-0.045
-0.065
-0.095
-0.115
-0.16
-0.135
-0.14
-0.135
-0.145
-0.155
-0.16
-0.135
-0.14
-0.125
-0.12
-0.115
-0.135
-0.155
-0.185
-0.225
-0.25
-0.255
-0.27
-0.255
-0.235
-0.24
-0.25
-0.27
-0.295
-0.315
-0.315
-0.33
-0.355
-0.365
-0.385
-0.39
-0.395
-0.42
-0.445
-0.45
-0.48
-0.47
-0.47
-0.47
-0.48
-0.5
-0.51
-0.505
-0.51
-0.52
-0.51
-0.52
-0.53
-0.52
-0.52
-0.51
-0.5
-0.51
-0.51
-0.51
-0.49
-0.485
-0.495
-0.5
-0.505
-0.505
-0.495
-0.5
-0.5
-0.49
-0.495
-0.485
-0.485
-0.475
-0.49
-0.505
-0.5
-0.48
-0.46
-0.48
-0.48
-0.485
-0.5
-0.47
-0.475
-0.475
-0.48
-0.49
-0.5
-0.485
-0.475
-0.47
-0.455
-0.465
-0.485
-0.465
-0.46
-0.455
-0.46
-0.465
-0.47
-0.445
-0.455
-0.445
-0.46
-0.455
-0.45
-0.445
-0.44
-0.435
-0.43
-0.445
-0.435
-0.425
-0.415
-0.415
-0.42
-0.435
-0.43
-0.42
-0.41
-0.41
-0.405
-0.42
-0.41
-0.4
-0.385
-0.37
-0.37
-0.37
-0.355
-0.345
-0.335
-0.32
-0.315
-0.315
-0.315
-0.295
-0.275
-0.245
-0.225
-0.215
-0.17
-0.095
0.04
0.33
0.895
1.53
2.165
2.8
3.14
3.015
2.885
2.785
2.675
2.575
2.445
2.305
2.165
2.03
1.885
1.735
1.57
1.36
1.135
0.885
0.65
0.425
0.215
0.0
-0.215
-0.375
-0.52
-0.645
-0.76
-0.86
-0.965
-1.06
-1.14
-1.21
-1.28
-1.33
-1.365
-1.42
-1.5
-1.57
-1.615
-1.665
-1.715
-1.755
-1.785
-1.765
-1.73
-1.67
-1.6
-1.515
-1.42
-1.275
-1.145
-1.055
-1.0
-0.95
-0.91
-0.87
-0.825
-0.795
-0.775
-0.765
-0.745
-0.685
-0.62
-0.56
-0.465
-0.43
-0.385
-0.335
-0.3
-0.24
-0.185
-0.125
-0.065
0.005
0.065
0.105
0.14
0.17
0.195
0.215
0.235
0.25
0.27
0.26
0.285
0.31
0.325
0.35
0.355
0.365
0.375
0.395
0.44
0.455
0.47
0.485
0.505
0.54
0.575
0.61
0.64
0.675
0.72
0.78
0.835
0.88
0.93
0.975
1.035
1.095
1.17
1.225
1.27
1.315
1.345
1.405
1.455
1.455
1.425
1.405
1.375
1.365
1.355
1.365
1.37
1.34
1.325
1.315
1.285
1.25
1.19
1.14
1.08
1.04
1.0
0.945
0.885
0.82
0.74
0.685
0.635
0.585
0.515
0.455
0.4
0.355
0.32
0.265
0.21
0.155
0.11
0.07
0.045
0.015
-0.015
-0.055
-0.085
-0.09
-0.105
-0.13
-0.15
-0.17
-0.19
-0.185
-0.175
-0.2
-0.215
-0.23
-0.24
-0.23
-0.22
-0.235
-0.245
-0.255
-0.26
-0.26
-0.265
-0.275
-0.275
-0.285
-0.285
-0.275
-0.265
-0.265
-0.285
-0.275
-0.28
-0.285
-0.285
-0.265
-0.27
-0.28
-0.28
-0.275
-0.265
-0.26
-0.275
-0.27
-0.275
-0.27
-0.25
-0.255
-0.255
-0.265
-0.265
-0.26
-0.245
-0.245
-0.25
-0.25
-0.26
-0.24
-0.225
-0.225
-0.235
-0.245
-0.255
-0.25
-0.24
-0.235
-0.24
-0.245
-0.24
-0.24
-0.22
-0.225
-0.235
-0.235
-0.255
-0.23
-0.23
-0.225
-0.235
-0.24
-0.235
-0.22
-0.215
-0.23
-0.225
-0.23
-0.225
-0.225
-0.2
-0.21
-0.21
-0.22
-0.225
-0.22
-0.21
-0.2
-0.205
-0.205
-0.215
-0.2
-0.2
-0.2
-0.195
-0.2
-0.21
-0.195
-0.19
-0.175
-0.185
-0.195
-0.205
-0.185
-0.165
-0.155
-0.165
-0.165
-0.16
-0.155
-0.15
-0.14
-0.15
-0.145
-0.15
-0.135
-0.13
-0.13
-0.135
-0.14
-0.145
-0.12
-0.11
-0.105
-0.105
-0.11
-0.085
-0.065
-0.03
0.005
0.035
0.1
0.195
0.47
0.985
1.62
2.255
2.89
3.19
3.115
3.02
2.93
2.85
2.74
2.6
2.47
2.34
2.2
2.055
1.905
1.735
1.56
1.38
1.175
0.945
0.705
0.485
0.28
0.085
-0.115
-0.295
-0.455
-0.595
-0.73
-0.845
-0.915
-1.025
-1.12
-1.205
-1.255
-1.285
-1.35
-1.425
-1.52
-1.615
-1.67
-1.705
-1.765
-1.79
-1.825
-1.835
-1.79
-1.715
-1.615
-1.495
-1.375
-1.26
-1.135
-1.01
-0.935
-0.89
-0.835
-0.8
-0.745
-0.685
-0.645
-0.605
-0.58
-0.535
-0.46
-0.365
-0.285
-0.18
-0.105
-0.02
0.045
0.115
0.16
0.24
0.33
0.4
0.475
0.51
0.535
0.555
0.57
0.61
0.65
0.675
0.675
0.68
0.68
0.685
0.685
0.71
0.71
0.69
0.695
0.69
0.7
0.71
0.705
0.695
0.685
0.695
0.705
0.725
0.745
0.755
0.765
0.79
0.825
0.855
0.86
0.895
0.91
0.94
0.98
1.02
1.05
1.075
1.095
1.125
1.16
1.19
1.215
1.225
1.22
1.235
1.26
1.26
1.265
1.26
1.235
1.22
1.205
1.21
1.195
1.16
1.13
1.1
1.075
1.055
1.015
0.97
0.93
0.875
0.845
0.815
0.77
0.72
0.67
0.615
0.575
0.53
0.48
0.43
0.385
0.335
0.29
0.27
0.21
0.17
0.13
0.09
0.065
0.05
0.03
0.005
-0.03
-0.06
-0.07
-0.085
-0.095
-0.12
-0.115
-0.13
-0.13
-0.125
-0.135
-0.145
-0.175
-0.17
-0.16
-0.155
-0.155
-0.17
-0.185
-0.185
-0.185
-0.18
-0.175
-0.18
-0.19
-0.195
-0.195
-0.175
-0.185
-0.195
-0.195
-0.19
-0.185
-0.175
-0.18
-0.195
-0.19
-0.195
-0.18
-0.18
-0.175
-0.18
-0.18
-0.185
-0.175
-0.165
-0.165
-0.16
-0.165
-0.185
-0.17
-0.17
-0.155
-0.155
-0.155
-0.17
-0.16
-0.15
-0.15
-0.155
-0.165
-0.165
-0.155
-0.145
-0.145
-0.15
-0.16
-0.165
-0.155
-0.155
-0.15
-0.15
-0.165
-0.175
-0.145
-0.165
-0.145
-0.15
-0.165
-0.165
-0.155
-0.145
-0.145
-0.15
-0.16
-0.165
-0.145
-0.14
-0.155
-0.155
-0.165
-0.17
-0.16
-0.145
-0.145
-0.155
-0.155
-0.14
-0.145
-0.14
-0.135
-0.135
-0.14
-0.14
-0.12
-0.125
-0.14
-0.125
-0.125
-0.14
-0.12
-0.105
-0.105
-0.105
-0.105
-0.12
-0.095
-0.09
-0.09
-0.095
-0.095
-0.1
-0.095
-0.07
-0.075
-0.065
-0.065
-0.045
-0.03
-0.01
0.015
0.04
0.09
0.175
0.37
0.78
1.415
2.05
2.685
3.09
3.065
2.98
2.895
2.815
2.705
2.595
2.48
2.375
2.255
2.13
1.985
1.815
1.65
1.47
1.26
1.06
0.84
0.615
0.405
0.2
0.015
-0.14
-0.3
-0.465
-0.625
-0.755
-0.865
-0.97
-1.07
-1.17
-1.235
-1.275
-1.34
-1.435
-1.535
-1.635
-1.72
-1.78
-1.845
-1.905
-1.94
-1.925
-1.835
-1.71
-1.585
-1.455
-1.32
-1.18
-1.06
-0.97
-0.925
-0.87
-0.83
-0.785
-0.745
-0.725
-0.705
-0.68
-0.64
-0.58
-0.505
-0.42
-0.345
-0.285
-0.25
-0.2
-0.155
-0.115
-0.05
0.0
0.055
0.125
0.175
0.24
0.28
0.315
0.33
0.35
0.365
0.38
0.4
0.405
0.425
0.43
0.46
0.48
0.51
0.51
0.51
0.525
0.56
0.595
0.615
0.635
0.65
0.685
0.715
0.74
0.78
0.805
0.83
0.855
0.89
0.92
0.96
0.995
1.01
1.04
1.065
1.115
1.15
1.17
1.19
1.215
1.25
1.265
1.28
1.3
1.3
1.31
1.315
1.33
1.33
1.325
1.305
1.31
1.295
1.285
1.27
1.25
1.21
1.18
1.16
1.16
1.12
1.08
1.02
0.99
0.95
0.91
0.865
0.805
0.755
0.71
0.66
0.615
0.575
0.515
0.47
0.43
0.38
0.365
0.315
0.285
0.23
0.2
0.18
0.155
0.15
0.115
0.09
0.06
0.04
0.045
0.035
0.02
0.0
-0.01
-0.01
-0.005
-0.025
-0.03
-0.055
-0.05
-0.05
-0.03
-0.035
-0.04
-0.055
-0.06
-0.065
-0.055
-0.06
-0.065
-0.075
-0.07
-0.07
-0.06
-0.065
-0.065
-0.06
-0.055
-0.06
-0.055
-0.06
-0.075
-0.075
-0.08
-0.06
-0.05
-0.06
-0.075
-0.065
-0.065
-0.055
-0.05
-0.045
-0.045
-0.06
-0.055
-0.045
-0.035
-0.03
-0.04
-0.04
-0.06
-0.045
-0.03
-0.03
-0.035
-0.045
-0.05
-0.035
-0.02
-0.025
-0.04
-0.045
-0.035
-0.035
-0.03
-0.035
-0.03
-0.04
-0.05
-0.055
-0.045
-0.045
-0.06
-0.065
-0.075
-0.07
-0.06
-0.055
-0.065
-0.065
-0.07
-0.065
-0.055
-0.05
-0.065
-0.07
-0.065
-0.05
-0.035
-0.035
-0.03
-0.035
-0.035
-0.025
-0.02
-0.005
-0.005
0.005
0.0
0.025
0.035
0.045
0.065
0.065
0.075
0.09
0.11
0.135
0.14
0.155
0.165
0.195
0.23
0.26
0.25
0.25
0.215
0.21
0.205
0.205
0.215
0.21
0.215
0.205
0.215
0.215
0.21
0.21
0.205
0.225
0.26
0.33
0.49
0.84
1.45
2.085
2.715
2.95
2.95
2.875
2.81
2.77
2.715
2.6
2.485
2.345
2.215
2.115
1.995
1.855
1.675
1.49
1.28
1.085
0.865
0.66
0.395
0.155
-0.06
-0.23
-0.37
-0.505
-0.64
-0.765
-0.87
-0.965
-1.05
-1.14
-1.21
-1.275
-1.345
-1.405
-1.495
-1.605
-1.7
-1.78
-1.865
-1.93
-1.975
-1.995
-1.95
-1.85
-1.725
-1.575
-1.44
-1.31
-1.145
-1.03
-0.96
-0.89
-0.83
-0.8
-0.775
-0.77
-0.765
-0.745
-0.705
-0.655
-0.6
-0.525
-0.45
-0.365
-0.31
-0.27
-0.225
-0.185
-0.125
-0.04
0.035
0.095
0.15
0.19
0.23
0.29
0.325
0.345
0.365
0.36
0.375
0.4
0.425
0.44
0.45
0.46
0.47
0.495
0.515
0.535
0.54
0.57
0.585
0.615
0.65
0.655
0.655
0.665
0.685
0.725
0.77
0.79
0.82
0.84
0.855
0.91
0.945
0.97
0.995
1.015
1.035
1.065
1.11
1.125
1.14
1.155
1.17
1.19
1.22
1.225
1.23
1.22
1.23
1.245
1.245
1.235
1.215
1.205
1.19
1.17
1.155
1.14
1.11
1.085
1.045
1.03
0.995
0.965
0.925
0.885
0.845
0.815
0.78
0.74
0.7
0.66
0.6
0.56
0.54
0.485
0.435
0.375
0.325
0.3
0.275
0.235
0.195
0.155
0.11
0.105
0.085
0.06
0.03
0.01
-0.005
-0.01
-0.03
-0.04
-0.05
-0.07
-0.07
-0.075
-0.07
-0.075
-0.085
-0.1
