Lead II
-0.3
-0.295
-0.305
-0.31
-0.305
-0.305
-0.315
-0.3
-0.3
-0.295
-0.31
-0.3
-0.3
-0.31
-0.315
-0.31
-0.315
-0.315
-0.3
-0.295
-0.29
-0.27
-0.275
-0.27
-0.28
-0.29
-0.29
-0.3
-0.305
-0.31
-0.295
-0.285
-0.285
-0.28
-0.29
-0.3
-0.3
-0.315
-0.32
-0.33
-0.31
-0.3
-0.3
-0.29
-0.275
-0.275
-0.28
-0.28
-0.29
-0.295
-0.295
-0.305
-0.29
-0.29
-0.295
-0.28
-0.27
-0.27
-0.265
-0.27
-0.28
-0.275
-0.29
-0.29
-0.295
-0.32
-0.31
-0.29
-0.285
-0.275
-0.27
-0.29
-0.29
-0.295
-0.285
-0.285
-0.27
-0.265
-0.27
-0.28
-0.285
-0.27
-0.27
-0.26
-0.265
-0.265
-0.275
-0.275
-0.285
-0.275
-0.275
-0.275
-0.28
-0.27
-0.27
-0.27
-0.265
-0.26
-0.27
-0.275
-0.275
-0.285
-0.27
-0.285
-0.28
-0.275
-0.26
-0.265
-0.26
-0.265
-0.26
-0.27
-0.27
-0.27
-0.275
-0.27
-0.275
-0.26
-0.255
-0.25
-0.255
-0.245
-0.245
-0.25
-0.24
-0.225
-0.22
-0.195
-0.185
-0.18
-0.185
-0.185
-0.175
-0.155
-0.14
-0.15
-0.105
-0.095
-0.075
-0.08
-0.09
-0.07
-0.08
-0.095
-0.11
-0.13
-0.17
-0.21
-0.21
-0.225
-0.23
-0.24
-0.25
-0.27
-0.275
-0.28
-0.29
-0.29
-0.305
-0.315
-0.315
-0.32
-0.3
-0.305
-0.3
-0.295
-0.29
-0.28
-0.28
-0.285
-0.28
-0.29
-0.3
-0.295
-0.29
-0.285
-0.275
-0.27
-0.295
-0.32
-0.37
-0.425
-0.49
-0.52
-0.5
-0.36
-0.115
0.225
0.605
0.985
1.295
1.485
1.45
1.15
0.67
0.115
-0.315
-0.56
-0.625
-0.605
-0.575
-0.56
-0.62
-0.695
-0.815
-0.925
-1.015
-1.05
-1.065
-1.045
-1.03
-0.99
-0.945
-0.88
-0.81
-0.725
-0.66
-0.605
-0.545
-0.5
-0.455
-0.425
-0.405
-0.385
-0.37
-0.36
-0.35
-0.345
-0.35
-0.35
-0.35
-0.345
-0.345
-0.34
-0.325
-0.33
-0.315
-0.31
-0.305
-0.31
-0.32
-0.32
-0.31
-0.315
-0.325
-0.32
-0.3
-0.295
-0.27
-0.255
-0.27
-0.27
-0.28
-0.285
-0.305
-0.295
-0.285
-0.285
-0.265
-0.25
-0.235
-0.235
-0.235
-0.24
-0.24
-0.245
-0.245
-0.245
-0.23
-0.225
-0.215
-0.22
-0.2
-0.19
-0.2
-0.19
-0.185
-0.19
-0.18
-0.18
-0.175
-0.175
-0.175
-0.165
-0.16
-0.145
-0.13
-0.115
-0.11
-0.115
-0.115
-0.11
-0.1
-0.085
-0.08
-0.055
-0.04
-0.015
-0.03
-0.03
-0.03
-0.03
-0.025
-0.03
-0.01
0.01
0.025
0.05
0.07
0.085
0.095
0.1
0.105
0.11
0.125
0.14
0.165
0.17
0.19
0.195
0.215
0.225
0.23
0.24
0.25
0.255
0.26
0.27
0.285
0.29
0.3
0.325
0.325
0.35
0.36
0.35
0.36
0.355
0.335
0.345
0.345
0.345
0.34
0.335
0.33
0.32
0.315
0.29
0.27
0.245
0.225
0.195
0.175
0.145
0.125
0.105
0.095
0.08
0.06
0.045
0.01
-0.01
-0.03
-0.055
-0.06
-0.08
-0.085
-0.09
-0.11
-0.105
-0.11
-0.115
-0.135
-0.14
-0.155
-0.165
-0.175
-0.175
-0.175
-0.175
-0.165
-0.165
-0.17
-0.19
-0.18
-0.18
-0.185
-0.195
-0.185
-0.2
-0.195
-0.19
-0.18
-0.17
-0.18
-0.175
-0.185
-0.2
-0.185
-0.195
-0.2
-0.205
-0.185
-0.195
-0.185
-0.18
-0.18
-0.175
-0.19
-0.2
-0.195
-0.2
-0.195
-0.195
-0.18
-0.185
-0.185
-0.17
-0.18
-0.17
-0.165
-0.17
-0.16
-0.175
-0.175
-0.155
-0.15
-0.145
-0.125
-0.105
-0.095
-0.07
-0.06
-0.065
-0.07
-0.09
-0.09
-0.105
-0.115
-0.12
-0.135
-0.135
-0.155
-0.17
-0.19
-0.215
-0.24
-0.265
-0.29
-0.3
-0.3
-0.3
-0.295
-0.285
-0.295
-0.3
-0.305
-0.32
-0.32
-0.32
-0.33
-0.33
-0.33
-0.325
-0.325
-0.32
-0.325
-0.32
-0.32
-0.335
-0.34
-0.355
-0.355
-0.355
-0.34
-0.33
-0.32
-0.315
-0.315
-0.315
-0.325
-0.335
-0.33
-0.35
-0.34
-0.345
-0.335
-0.325
-0.32
-0.315
-0.325
-0.31
-0.33
-0.34
-0.335
-0.335
-0.345
-0.34
-0.34
-0.33
-0.33
-0.32
-0.31
-0.315
-0.335
-0.33
-0.335
-0.34
-0.34
-0.34
-0.345
-0.335
-0.33
-0.325
-0.335
-0.325
-0.33
-0.345
-0.355
-0.355
-0.355
-0.365
-0.365
-0.335
-0.33
-0.325
-0.33
-0.325
-0.345
-0.345
-0.35
-0.36
-0.37
-0.355
-0.345
-0.345
-0.335
-0.325
-0.335
-0.34
-0.33
-0.335
-0.335
-0.345
-0.345
-0.34
-0.34
-0.335
-0.325
-0.325
-0.32
-0.32
-0.325
-0.33
-0.325
-0.345
-0.345
-0.35
-0.35
-0.325
-0.33
-0.315
-0.315
-0.32
-0.32
-0.33
-0.33
-0.335
-0.33
-0.325
-0.32
-0.33
-0.32
-0.315
-0.315
-0.3
-0.315
-0.32
-0.325
-0.34
-0.325
-0.32
-0.315
-0.31
-0.315
-0.3
-0.3
-0.3
-0.3
-0.31
-0.315
-0.325
-0.315
-0.315
-0.305
-0.31
-0.29
-0.295
-0.295
-0.295
-0.295
-0.31
-0.305
-0.315
-0.325
-0.31
-0.315
-0.31
-0.305
-0.295
-0.3
-0.29
-0.295
-0.305
-0.295
-0.315
-0.31
-0.315
-0.31
-0.31
-0.3
-0.29
-0.295
-0.28
-0.285
-0.3
-0.3
-0.315
-0.315
-0.305
-0.305
-0.295
-0.295
-0.28
-0.3
-0.285
-0.285
-0.29
-0.31
-0.315
-0.315
-0.32
-0.305
-0.295
-0.285
-0.285
-0.285
-0.29
-0.29
-0.3
-0.3
-0.305
-0.305
-0.31
-0.315
-0.3
-0.285
-0.285
-0.285
-0.28
-0.285
-0.28
-0.3
-0.295
-0.295
-0.3
-0.29
-0.28
-0.275
-0.265
-0.27
-0.27
-0.275
-0.275
-0.29
-0.3
-0.295
-0.295
-0.295
-0.295
-0.28
-0.28
-0.27
-0.27
-0.285
-0.275
-0.29
-0.285
-0.295
-0.285
-0.28
-0.275
-0.27
-0.275
-0.27
-0.265
-0.265
-0.265
-0.275
-0.285
-0.29
-0.285
-0.285
-0.285
-0.27
-0.26
-0.26
-0.265
-0.26
-0.255
-0.26
-0.265
-0.26
-0.25
-0.235
-0.23
-0.22
-0.2
-0.195
-0.195
-0.195
-0.18
-0.17
-0.145
-0.13
-0.095
-0.08
-0.085
-0.075
-0.075
-0.095
-0.105
-0.12
-0.145
-0.16
-0.18
-0.18
-0.2
-0.215
-0.225
-0.24
-0.255
-0.285
-0.29
-0.295
-0.3
-0.3
-0.305
-0.31
-0.31
-0.305
-0.305
-0.31
-0.3
-0.29
-0.305
-0.3
-0.305
-0.305
-0.31
-0.315
-0.31
-0.305
-0.295
-0.3
-0.29
-0.32
-0.345
-0.39
-0.47
-0.535
-0.55
-0.485
-0.31
-0.015
0.35
0.74
1.11
1.385
1.52
1.435
1.09
0.6
0.11
-0.245
-0.445
-0.49
-0.49
-0.48
-0.505
-0.59
-0.705
-0.825
-0.945
-1.035
-1.075
-1.085
-1.06
-1.005
-0.955
-0.88
-0.785
-0.72
-0.64
-0.57
-0.52
-0.48
-0.45
-0.44
-0.41
-0.395
-0.39
-0.385
-0.365
-0.365
-0.355
-0.365
-0.365
-0.365
-0.345
-0.355
-0.35
-0.35
-0.335
-0.32
-0.31
-0.32
-0.305
-0.32
-0.325
-0.33
-0.325
-0.32
-0.325
-0.31
-0.305
-0.305
-0.295
-0.285
-0.285
-0.29
-0.3
-0.295
-0.31
-0.29
-0.295
-0.28
-0.27
-0.26
-0.25
-0.25
-0.24
-0.245
-0.255
-0.255
-0.255
-0.245
-0.245
-0.235
-0.22
-0.215
-0.2
-0.2
-0.2
-0.185
-0.185
-0.18
-0.18
-0.175
-0.17
-0.165
-0.15
-0.135
-0.12
-0.12
-0.105
-0.095
-0.095
-0.09
-0.08
-0.08
-0.07
-0.05
-0.04
-0.04
-0.015
-0.005
0.005
-0.005
0.005
0.01
0.025
0.025
0.035
0.05
0.08
0.095
0.12
0.12
0.135
0.15
0.145
0.155
0.155
0.16
0.175
0.19
0.19
0.215
0.225
0.23
0.24
0.25
0.25
0.255
0.25
0.245
0.24
0.275
0.295
0.31
0.315
0.305
0.305
0.295
0.29
0.27
0.255
0.225
0.225
0.235
0.225
0.22
0.21
0.195
0.175
0.155
0.135
0.11
0.08
0.06
0.035
0.02
0.0
0.0
-0.03
-0.05
-0.06
-0.075
-0.09
-0.11
-0.115
-0.145
-0.15
-0.155
-0.16
-0.17
-0.17
-0.17
-0.175
-0.185
-0.195
-0.205
-0.21
-0.22
-0.22
-0.205
-0.195
-0.195
-0.195
-0.2
-0.19
-0.195
-0.195
-0.2
-0.2
-0.2
-0.205
-0.2
-0.195
-0.19
-0.185
-0.195
-0.195
-0.2
-0.195
-0.2
-0.21
-0.215
-0.225
-0.22
-0.215
-0.2
-0.18
-0.19
-0.19
-0.195
-0.2
-0.205
-0.23
-0.23
-0.235
-0.225
-0.225
-0.22
-0.215
-0.225
-0.22
-0.215
-0.22
-0.215
-0.225
-0.23
-0.23
-0.23
-0.235
-0.23
-0.24
-0.24
-0.235
-0.245
-0.25
-0.25
-0.25
-0.25
-0.245
-0.23
-0.21
-0.2
-0.195
-0.195
-0.19
-0.195
-0.205
-0.215
-0.225
-0.205
-0.2
-0.175
-0.16
-0.145
-0.125
-0.105
-0.105
-0.09
-0.1
-0.105
-0.11
-0.105
-0.13
-0.13
-0.145
-0.15
-0.175
-0.185
-0.195
-0.22
-0.23
-0.255
-0.275
-0.305
-0.315
-0.33
-0.325
-0.32
-0.305
-0.32
-0.315
-0.32
-0.345
-0.345
-0.35
-0.35
-0.355
-0.345
-0.34
-0.35
-0.34
-0.35
-0.35
-0.355
-0.355
-0.36
-0.36
-0.375
-0.36
-0.36
-0.355
-0.35
-0.33
-0.345
-0.33
-0.345
-0.36
-0.365
-0.385
-0.38
-0.375
-0.37
-0.365
-0.365
-0.36
-0.365
-0.36
-0.36
-0.37
-0.365
-0.365
-0.37
-0.36
-0.355
-0.335
-0.33
-0.325
-0.32
-0.33
-0.345
-0.355
-0.355
-0.355
-0.365
-0.37
-0.36
-0.36
-0.35
-0.35
-0.35
-0.36
-0.345
-0.35
-0.36
-0.365
-0.37
-0.385
-0.37
-0.365
-0.375
-0.375
-0.36
-0.335
-0.335
-0.335
-0.345
-0.355
-0.375
-0.39
-0.395
-0.385
-0.36
-0.345
-0.335
-0.335
-0.335
-0.345
-0.355
-0.37
-0.38
-0.38
-0.375
-0.36
-0.35
-0.35
-0.355
-0.35
-0.35
-0.365
-0.355
-0.365
-0.36
-0.355
-0.335
-0.33
-0.32
-0.31
-0.32
-0.34
-0.355
-0.35
-0.365
-0.365
-0.36
-0.36
-0.36
-0.345
-0.335
-0.32
-0.33
-0.33
-0.33
-0.325
-0.335
-0.335
-0.35
-0.35
-0.345
-0.335
-0.335
-0.335
-0.335
-0.335
-0.33
-0.34
-0.34
-0.335
-0.34
-0.325
-0.32
-0.325
-0.32
-0.305
-0.315
-0.315
-0.32
-0.32
-0.32
-0.325
-0.325
-0.335
-0.34
-0.335
-0.335
-0.315
-0.31
-0.305
-0.295
-0.285
-0.29
-0.31
-0.31
-0.32
-0.32
-0.31
-0.295
-0.29
-0.29
-0.3
-0.31
-0.33
-0.335
-0.335
-0.315
-0.305
-0.285
-0.285
-0.285
-0.275
-0.295
-0.3
-0.305
-0.305
-0.315
-0.32
-0.32
-0.305
-0.3
-0.29
-0.275
-0.26
-0.27
-0.28
-0.29
-0.295
-0.31
-0.305
-0.29
-0.295
-0.305
-0.295
-0.295
-0.295
-0.29
-0.295
-0.28
-0.285
-0.29
-0.295
-0.305
-0.3
-0.3
-0.29
-0.27
-0.27
-0.26
-0.265
-0.26
-0.275
-0.285
-0.3
-0.29
-0.285
-0.28
-0.265
-0.275
-0.265
-0.275
-0.275
-0.275
-0.275
-0.28
-0.295
-0.305
-0.305
-0.285
-0.265
-0.25
-0.245
-0.26
-0.255
-0.265
-0.255
-0.275
-0.29
-0.285
-0.295
-0.3
-0.28
-0.275
-0.26
-0.255
-0.255
-0.26
-0.26
-0.26
-0.275
-0.265
-0.26
-0.26
-0.255
-0.25
-0.26
-0.265
-0.265
-0.26
-0.255
-0.255
-0.245
-0.245
-0.25
-0.245
-0.245
-0.24
-0.24
-0.235
-0.23
-0.235
-0.235
-0.235
-0.235
-0.23
-0.22
-0.21
-0.18
-0.16
-0.14
-0.135
-0.13
-0.13
-0.12
-0.11
-0.105
-0.09
-0.07
-0.065
-0.055
-0.06
-0.07
-0.07
-0.085
-0.085
-0.105
-0.125
-0.145
-0.15
-0.175
-0.195
-0.21
-0.225
-0.235
-0.26
-0.26
-0.265
-0.28
-0.265
-0.28
-0.275
-0.285
-0.275
-0.27
-0.27
-0.27
-0.26
-0.27
-0.26
-0.255
-0.265
-0.27
-0.275
-0.27
-0.275
-0.255
-0.26
-0.26
-0.245
-0.25
-0.265
-0.29
-0.345
-0.4
-0.46
-0.46
-0.375
-0.185
0.13
0.525
0.925
1.295
1.555
1.595
1.37
0.915
0.375
-0.09
-0.39
-0.49
-0.505
-0.45
-0.395
-0.365
-0.335
-0.345
-0.35
-0.36
-0.355
-0.335
-0.325
-0.305
-0.31
-0.305
-0.325
-0.33
-0.335
-0.345
-0.35
-0.355
-0.36
-0.35
-0.35
-0.335
-0.33
-0.32
-0.33
-0.335
-0.34
-0.34
-0.345
-0.355
-0.35
-0.345
-0.35
-0.335
-0.33
-0.325
-0.32
-0.315
-0.31
-0.32
-0.33
-0.335
-0.345
-0.33
-0.32
-0.315
-0.315
-0.3
-0.305
-0.3
-0.3
-0.305
-0.3
-0.305
-0.31
-0.3
-0.31
-0.29
-0.28
-0.275
-0.265
-0.265
-0.26
-0.27
-0.275
-0.27
-0.27
-0.27
-0.255
-0.25
-0.25
-0.235
-0.225
-0.225
-0.22
-0.23
-0.225
-0.215
-0.21
-0.21
-0.2
-0.19
-0.195
-0.17
-0.165
-0.16
-0.15
-0.165
-0.16
-0.16
-0.16
-0.155
-0.155
-0.15
-0.135
-0.115
-0.105
-0.1
-0.1
-0.085
-0.075
-0.07
-0.075
-0.06
-0.045
-0.025
-0.015
0.005
0.02
0.035
0.035
0.05
0.05
0.055
0.07
0.085
0.095
0.11
0.125
0.145
0.165
0.16
0.175
0.175
0.18
0.175
0.185
0.19
0.185
0.19
0.2
0.2
0.205
0.195
0.195
0.175
0.16
0.145
0.135
0.13
0.12
0.115
0.105
0.1
0.08
0.07
0.05
0.02
0.005
-0.025
-0.035
-0.04
-0.055
-0.06
-0.07
-0.075
-0.08
-0.095
-0.1
-0.115
-0.125
-0.14
-0.145
-0.155
-0.14
-0.145
-0.14
-0.135
-0.135
-0.14
-0.135
-0.145
-0.15
-0.16
-0.16
-0.165
-0.16
-0.155
-0.155
-0.16
-0.16
-0.165
-0.165
-0.17
-0.17
-0.17
-0.175
-0.17
-0.165
-0.17
-0.16
-0.155
-0.145
-0.155
-0.16
-0.155
-0.155
-0.165
-0.175
-0.185
-0.18
-0.175
-0.175
-0.175
-0.165
-0.18
-0.175
-0.185
-0.205
-0.19
-0.205
-0.2
-0.2
-0.22
-0.2
-0.19
-0.19
-0.195
-0.205
-0.205
-0.205
-0.2
-0.215
-0.205
-0.195
-0.18
-0.17
-0.16
-0.15
-0.15
-0.155
-0.16
-0.15
-0.135
-0.125
-0.09
-0.075
-0.065
-0.065
-0.055
-0.05
-0.07
-0.08
-0.1
-0.115
-0.13
-0.15
-0.155
-0.175
-0.2
-0.21
-0.23
-0.24
-0.26
-0.27
-0.285
-0.285
-0.295
-0.3
-0.305
-0.3
-0.31
-0.305
-0.305
-0.295
-0.31
-0.295
-0.31
-0.32
-0.325
-0.335
-0.335
-0.325
-0.33
-0.315
-0.31
-0.31
-0.305
-0.305
-0.31
-0.32
-0.325
-0.335
-0.325
-0.325
-0.325
-0.32
-0.305
-0.305
-0.31
-0.305
-0.305
-0.305
-0.325
-0.325
-0.325
-0.325
-0.32
-0.31
-0.3
-0.305
-0.315
-0.31
-0.325
-0.315
-0.315
-0.32
-0.315
-0.32
-0.31
-0.31
-0.31
-0.305
-0.31
-0.3
-0.31
-0.31
-0.32
-0.325
-0.32
-0.33
-0.32
-0.315
-0.305
-0.32
-0.32
-0.315
-0.32
-0.32
-0.32
-0.335
-0.325
-0.325
-0.325
-0.32
-0.305
-0.315
-0.31
-0.31
-0.31
-0.32
-0.32
-0.32
-0.33
-0.32
-0.33
-0.32
-0.3
-0.3
-0.295
-0.29
-0.295
-0.315
-0.31
-0.315
-0.315
-0.315
-0.3
-0.31
-0.29
-0.29
-0.295
-0.295
-0.3
-0.31
-0.305
-0.305
-0.3
-0.305
-0.31
-0.3
-0.285
-0.275
-0.29
-0.29
-0.285
-0.285
-0.28
-0.295
-0.295
-0.28
-0.28
-0.275
-0.275
-0.27
-0.275
-0.275
-0.28
-0.28
-0.28
-0.295
-0.275
-0.285
-0.3
-0.285
-0.265
-0.265
-0.26
-0.26
-0.25
-0.27
-0.275
-0.28
-0.275
-0.27
-0.285
-0.275
-0.265
-0.255
-0.26
-0.25
-0.26
-0.255
-0.26
-0.27
-0.26
-0.26
-0.265
-0.255
-0.25
-0.245
-0.245
-0.23
-0.245
-0.25
-0.265
-0.265
-0.26
-0.255
-0.245
-0.245
-0.235
-0.24
-0.23
-0.25
-0.25
-0.25
-0.24
-0.24
-0.245
-0.24
-0.245
-0.235
-0.24
-0.225
-0.225
-0.23
-0.24
-0.25
-0.25
-0.25
-0.245
-0.24
-0.235
-0.24
-0.23
-0.22
-0.225
-0.23
-0.23
-0.235
-0.235
-0.245
-0.25
-0.255
-0.245
-0.235
-0.23
-0.22
-0.225
-0.22
-0.225
-0.235
-0.245
-0.245
-0.23
-0.24
-0.23
-0.235
-0.215
-0.215
-0.215
-0.22
-0.225
-0.22
-0.23
-0.24
-0.23
-0.24
-0.23
-0.22
-0.225
-0.22
-0.23
-0.225
-0.23
-0.23
-0.235
-0.235
-0.235
-0.235
-0.225
-0.215
-0.22
-0.195
-0.2
-0.2
-0.21
-0.2
-0.205
-0.21
-0.21
-0.23
-0.21
-0.22
-0.21
-0.215
-0.205
-0.21
-0.2
-0.205
-0.215
-0.215
-0.21
-0.21
-0.2
-0.185
-0.185
-0.17
-0.165
-0.15
-0.15
-0.145
-0.14
-0.145
-0.135
-0.135
-0.125
-0.12
-0.085
-0.075
-0.05
-0.03
-0.015
-0.01
-0.01
-0.03
-0.03
-0.055
-0.05
-0.055
-0.055
-0.06
-0.08
-0.085
-0.105
-0.12
-0.16
-0.18
-0.19
-0.21
-0.215
-0.22
-0.22
-0.215
-0.215
-0.225
-0.23
-0.22
-0.24
-0.24
-0.235
-0.24
-0.235
-0.24
-0.225
-0.22
-0.225
-0.23
-0.235
-0.23
-0.235
-0.245
-0.25
-0.24
-0.23
-0.24
-0.265
-0.28
-0.345
-0.42
-0.48
-0.485
-0.4
-0.21
0.095
0.465
0.865
1.26
1.575
1.77
1.745
1.495
1.05
0.555
0.17
-0.085
-0.175
-0.16
-0.125
-0.075
-0.06
-0.065
-0.1
-0.16
-0.22
-0.265
-0.275
-0.285
-0.28
-0.275
-0.275
-0.275
-0.28
-0.295
-0.305
-0.305
-0.31
-0.31
-0.315
-0.315
-0.335
-0.34
-0.315
-0.33
-0.31
-0.305
-0.31
-0.31
-0.315
-0.325
-0.32
-0.335
-0.33
-0.33
-0.31
-0.325
-0.315
-0.3
-0.3
-0.305
-0.305
-0.305
-0.31
-0.315
-0.32
-0.32
-0.305
-0.295
-0.295
-0.28
-0.285
-0.28
-0.295
-0.29
-0.295
-0.3
-0.3
-0.295
-0.275
-0.28
-0.275
-0.265
-0.28
-0.29
-0.305
-0.285
-0.29
-0.29
-0.28
-0.27
-0.265
-0.255
-0.255
-0.24
-0.255
-0.245
-0.24
-0.23
-0.24
-0.23
-0.215
-0.21
-0.195
-0.19
-0.18
-0.175
-0.17
-0.17
-0.155
-0.165
-0.175
-0.165
-0.165
-0.165
-0.15
-0.15
-0.13
-0.12
-0.11
-0.085
-0.085
-0.08
-0.08
-0.075
-0.065
-0.055
-0.045
-0.03
-0.03
-0.01
-0.005
0.005
0.015
0.025
0.025
0.035
0.04
0.04
0.055
0.065
0.075
0.1
0.1
0.11
0.125
0.135
0.125
0.135
0.14
0.15
0.155
0.165
0.175
0.195
0.19
0.185
0.175
0.18
0.165
0.155
0.155
0.145
0.15
0.15
0.15
0.14
0.135
0.12
0.1
0.09
0.06
0.03
0.02
0.005
-0.005
-0.015
-0.015
-0.03
-0.055
-0.06
-0.065
-0.075
-0.095
-0.11
-0.095
-0.11
-0.105
-0.11
-0.105
-0.115
-0.12
-0.105
-0.12
-0.13
-0.15
-0.17
-0.165
-0.155
-0.145
-0.13
-0.12
-0.12
-0.12
-0.13
-0.135
-0.135
-0.14
-0.145
-0.14
-0.135
-0.135
-0.13
-0.125
-0.12
-0.125
-0.125
-0.135
-0.15
-0.145
-0.155
-0.16
-0.17
-0.155
-0.165
-0.16
-0.165
-0.16
-0.17
-0.155
-0.16
-0.16
-0.17
-0.16
-0.165
-0.17
-0.16
-0.14
-0.155
-0.145
-0.15
-0.14
-0.15
-0.16
-0.155
-0.15
-0.15
-0.14
-0.14
-0.12
-0.115
-0.1
-0.095
-0.1
-0.09
-0.085
-0.075
-0.06
-0.035
-0.025
-0.015
-0.015
-0.01
-0.01
-0.03
-0.05
-0.055
-0.075
-0.095
-0.12
-0.135
-0.135
-0.14
-0.155
-0.16
-0.185
-0.2
-0.23
-0.25
-0.275
-0.285
-0.285
-0.26
-0.26
-0.25
-0.24
-0.24
-0.25
-0.25
-0.255
-0.27
-0.27
-0.275
-0.29
-0.29
-0.295
-0.275
-0.275
-0.28
-0.28
-0.28
-0.28
-0.28
-0.285
-0.28
-0.265
-0.265
-0.265
-0.26
-0.265
-0.26
-0.275
-0.28
-0.28
-0.28
-0.295
-0.29
-0.295
-0.305
-0.285
-0.28
-0.275
-0.27
-0.255
-0.25
-0.26
-0.27
-0.285
-0.29
-0.31
-0.295
-0.29
-0.275
-0.275
-0.265
-0.26
-0.265
-0.275
-0.295
-0.32
-0.31
-0.315
-0.31
-0.295
-0.295
-0.28
-0.28
-0.27
-0.285
-0.27
-0.27
-0.28
-0.285
-0.29
-0.3
-0.29
-0.295
-0.29
-0.285
-0.29
-0.305
-0.3
-0.31
-0.315
-0.32
-0.31
-0.31
-0.29
-0.28
-0.265
-0.255
-0.265
-0.265
-0.265
-0.285
-0.3
-0.305
-0.3
-0.295
-0.295
-0.29
-0.3
-0.29
-0.28
-0.28
-0.275
-0.285
-0.29
-0.3
-0.285
-0.295
-0.275
-0.27
-0.26
-0.26
-0.27
-0.265
-0.265
-0.26
-0.265
-0.28
-0.285
-0.28
-0.28
-0.27
-0.26
-0.255
-0.25
-0.235
-0.23
-0.24
-0.245
-0.245
-0.25
-0.245
-0.245
-0.23
-0.225
-0.22
-0.23
-0.225
-0.245
-0.245
-0.255
-0.25
-0.26
-0.24
-0.23
-0.215
-0.21
-0.21
-0.225
-0.22
-0.225
-0.22
-0.235
-0.24
-0.23
-0.235
-0.235
-0.235
-0.235
-0.24
-0.245
-0.24
-0.225
-0.225
-0.23
-0.23
-0.235
-0.23
-0.23
-0.23
-0.23
-0.22
-0.235
-0.23
-0.235
-0.235
-0.25
-0.245
-0.23
-0.22
-0.205
-0.205
-0.21
-0.205
-0.225
-0.22
-0.23
-0.23
-0.235
-0.235
-0.245
-0.24
-0.22
-0.215
-0.21
-0.195
-0.195
-0.185
-0.195
-0.21
-0.215
-0.23
-0.23
-0.23
-0.205
-0.2
-0.195
-0.185
-0.185
-0.19
-0.21
-0.205
-0.22
-0.22
-0.21
-0.2
-0.19
-0.195
-0.19
-0.185
-0.185
-0.19
-0.195
-0.185
-0.195
-0.195
-0.19
-0.19
-0.195
-0.18
-0.19
-0.175
-0.18
-0.185
-0.185
-0.19
-0.19
-0.2
-0.205
-0.205
-0.19
-0.18
-0.17
-0.165
-0.175
-0.18
-0.185
-0.19
-0.19
-0.195
-0.195
-0.19
-0.2
-0.19
-0.18
-0.18
-0.165
-0.17
-0.17
-0.175
-0.18
-0.19
-0.18
-0.18
-0.18
-0.165
-0.145
-0.135
-0.125
-0.125
-0.12
-0.11
-0.115
-0.12
-0.105
-0.095
-0.085
-0.06
-0.045
-0.015
0.01
0.025
0.03
0.02
-0.005
-0.005
-0.01
-0.02
-0.015
-0.025
-0.035
-0.035
-0.055
-0.07
-0.1
-0.115
-0.135
-0.17
-0.175
-0.185
-0.195
-0.19
-0.185
-0.18
-0.165
-0.18
-0.185
-0.185
-0.195
-0.2
-0.205
-0.195
-0.205
-0.21
-0.2
-0.2
-0.19
-0.19
-0.19
-0.19
-0.205
-0.21
-0.205
-0.205
-0.21
-0.225
-0.255
-0.295
-0.36
-0.405
-0.39
-0.265
-0.035
0.315
0.72
1.135
1.475
1.645
1.565
1.215
0.7
0.23
-0.12
-0.29
-0.335
-0.31
-0.255
-0.23
-0.195
-0.205
-0.23
-0.24
-0.25
-0.25
-0.25
-0.24
-0.245
-0.26
-0.265
-0.275
-0.28
-0.285
-0.275
-0.28
-0.27
-0.275
-0.28
-0.29
-0.295
-0.295
-0.3
-0.285
-0.285
-0.295
-0.285
-0.275
-0.265
-0.26
-0.265
-0.27
-0.29
-0.29
-0.28
-0.285
-0.28
-0.26
-0.255
-0.26
-0.26
-0.26
-0.275
-0.285
-0.285
-0.29
-0.28
-0.28
-0.265
-0.26
-0.24
-0.235
-0.235
-0.24
-0.255
-0.25
-0.255
-0.265
-0.245
-0.25
-0.24
-0.225
-0.225
-0.215
-0.215
-0.21
-0.21
-0.21
-0.215
-0.21
-0.21
-0.2
-0.185
-0.18
-0.175
-0.165
-0.175
-0.155
-0.15
-0.155
-0.165
-0.16
-0.155
-0.145
-0.135
-0.12
-0.115
-0.11
-0.095
-0.09
-0.095
-0.09
-0.09
-0.085
-0.09
-0.085
-0.065
-0.055
-0.04
-0.025
-0.025
-0.015
-0.015
0.0
0.0
-0.005
0.02
0.015
0.035
0.055
0.085
0.11
0.11
0.125
0.13
0.13
0.13
0.14
0.145
0.17
0.175
0.185
0.2
0.23
0.23
0.23
0.24
0.235
0.235
0.22
0.22
0.215
0.215
0.21
0.21
0.2
0.19
0.175
0.16
0.145
0.125
0.1
0.09
0.07
0.055
0.055
0.045
0.035
0.01
0.0
-0.015
-0.025
-0.04
-0.06
-0.065
-0.065
-0.07
-0.065
-0.07
-0.07
-0.075
-0.08
-0.09
-0.095
-0.105
-0.115
-0.11
-0.11
-0.11
-0.115
-0.1
-0.085
-0.1
-0.11
-0.115
-0.115
-0.105
-0.12
-0.11
-0.11
-0.105
-0.11
-0.105
-0.11
-0.115
-0.115
-0.12
-0.11
-0.11
-0.13
-0.12
-0.12
-0.115
-0.11
-0.11
-0.095
-0.095
-0.1
-0.11
-0.115
-0.13
-0.135
-0.135
-0.135
-0.135
-0.14
-0.13
-0.125
-0.13
-0.14
-0.14
-0.135
-0.145
-0.145
-0.145
-0.135
-0.125
-0.11
-0.09
-0.08
-0.08
-0.075
-0.075
-0.065
-0.07
-0.065
-0.055
-0.04
-0.015
-0.01
0.015
0.025
0.02
0.015
-0.01
-0.03
-0.055
-0.065
-0.08
-0.09
-0.105
-0.11
-0.12
-0.14
-0.16
-0.175
-0.2
-0.215
-0.225
-0.245
-0.24
-0.245
-0.235
-0.245
-0.24
-0.23
-0.24
-0.245
-0.24
-0.25
-0.26
-0.275
-0.27
-0.27
-0.275
-0.255
-0.245
-0.245
-0.245
-0.235
-0.255
-0.26
-0.27
-0.265
-0.265
-0.265
-0.265
-0.26
-0.26
-0.255
-0.245
-0.25
-0.26
-0.26
-0.275
-0.265
-0.28
-0.27
-0.26
-0.25
-0.255
-0.245
-0.245
-0.255
-0.255
-0.255
-0.265
-0.27
-0.27
-0.26
-0.265
-0.27
-0.26
-0.255
-0.255
-0.26
-0.26
-0.27
-0.285
-0.275
-0.28
-0.285
-0.275
-0.27
-0.26
-0.265
-0.255
-0.265
-0.27
-0.28
-0.265
-0.275
-0.275
-0.27
-0.265
-0.28
-0.265
-0.255
-0.26
-0.26
-0.265
-0.265
-0.275
-0.285
-0.275
-0.275
-0.275
-0.27
-0.26
-0.25
-0.255
-0.25
-0.255
-0.255
-0.27
-0.28
-0.265
-0.26
-0.25
-0.255
-0.245
-0.24
-0.235
-0.23
-0.235
-0.245
-0.245
-0.255
-0.245
-0.245
-0.245
-0.245
-0.235
-0.215
-0.23
-0.215
-0.225
-0.22
-0.235
-0.245
-0.24
-0.24
-0.23
-0.22
-0.23
-0.22
-0.215
-0.22
-0.22
-0.215
-0.22
-0.23
-0.22
-0.23
-0.225
-0.215
-0.21
-0.21
-0.21
-0.2
-0.205
-0.21
-0.21
-0.22
-0.22
-0.225
-0.22
-0.205
-0.21
-0.2
-0.21
-0.195
-0.2
-0.205
-0.21
-0.22
-0.215
-0.21
-0.21
-0.2
-0.215
-0.205
-0.205
-0.19
-0.2
-0.215
-0.21
-0.215
-0.22
-0.215
-0.2
-0.2
-0.2
-0.18
-0.185
-0.18
-0.185
-0.195
-0.195
-0.195
-0.2
-0.205
-0.21
-0.195
-0.19
-0.18
-0.185
-0.185
-0.18
-0.18
-0.195
-0.205
-0.205
-0.195
-0.2
-0.19
-0.185
-0.175
-0.18
-0.185
-0.19
-0.2
-0.2
-0.21
-0.21
-0.2
-0.19
-0.185
-0.185
-0.17
-0.18
-0.175
-0.185
-0.19
-0.195
-0.195
-0.195
-0.21
-0.2
-0.185
-0.175
-0.175
-0.17
-0.17
-0.17
-0.185
-0.175
-0.185
-0.185
-0.185
-0.18
-0.18
-0.17
-0.165
-0.165
-0.17
-0.165
-0.17
-0.185
-0.175
-0.18
-0.175
-0.175
-0.17
-0.15
-0.15
-0.14
-0.16
-0.17
-0.16
-0.16
-0.17
-0.17
-0.18
-0.175
-0.17
-0.175
-0.165
-0.165
-0.165
-0.16
-0.15
-0.155
-0.17
-0.16
-0.15
-0.15
-0.14
-0.125
-0.12
-0.115
-0.1
-0.105
-0.09
-0.09
-0.095
-0.08
-0.075
-0.075
-0.05
-0.04
-0.01
0.005
0.03
0.055
0.05
0.045
0.03
0.03
0.005
-0.005
-0.015
-0.015
-0.02
-0.035
-0.045
-0.07
-0.085
-0.12
-0.14
-0.15
-0.16
-0.165
-0.17
-0.16
-0.155
-0.15
-0.15
-0.16
-0.175
-0.175
-0.19
-0.2
-0.19
-0.185
-0.185
-0.18
-0.175
-0.18
-0.185
-0.19
-0.2
-0.2
-0.205
-0.21
-0.21
-0.22
-0.245
-0.285
-0.345
-0.405
-0.405
-0.315
-0.085
0.245
0.645
1.065
1.455
1.685
1.695
1.435
0.98
0.485
0.075
-0.16
-0.25
-0.25
-0.205
-0.145
-0.115
-0.13
-0.155
-0.195
-0.22
-0.245
-0.25
-0.24
-0.25
-0.25
-0.255
-0.27
-0.28
-0.28
-0.265
-0.26
-0.26
-0.25
-0.26
-0.255
-0.26
-0.27
-0.275
-0.265
-0.275
-0.275
-0.28
-0.27
-0.26
-0.265
-0.26
-0.27
-0.27
-0.275
-0.27
-0.27
-0.26
-0.265
-0.26
-0.27
-0.25
-0.255
-0.255
-0.245
-0.265
-0.26
-0.275
-0.265
-0.265
-0.255
-0.25
-0.25
-0.235
-0.235
-0.245
-0.235
-0.235
-0.23
-0.23
-0.225
-0.215
-0.21
-0.205
-0.2
-0.19
-0.19
-0.195
-0.195
-0.195
-0.195
-0.22
-0.21
-0.205
-0.2
-0.19
-0.165
-0.16
-0.135
-0.12
-0.125
-0.12
-0.125
-0.145
-0.145
-0.13
-0.12
-0.12
-0.1
-0.1
-0.095
-0.1
-0.105
-0.09
-0.095
-0.085
-0.065
-0.05
-0.03
-0.02
-0.01
0.005
0.005
0.005
0.015
0.0
0.01
0.01
0.015
0.025
0.045
0.065
0.08
0.095
0.105
0.115
0.13
0.13
0.125
0.13
0.14
0.145
0.155
0.16
0.175
0.19
0.19
0.205
0.21
0.2
0.205
0.205
0.205
0.215
0.22
0.225
0.245
0.25
0.255
0.24
0.23
0.205
0.19
0.175
0.165
0.155
0.135
0.14
0.11
0.1
0.105
0.085
0.065
0.035
0.01
-0.005
-0.035
-0.025
-0.035
-0.03
-0.04
-0.04
-0.055
-0.07
-0.075
-0.1
-0.11
-0.115
-0.125
-0.12
-0.115
-0.12
-0.12
-0.115
-0.12
-0.12
-0.12
-0.125
-0.13
-0.145
-0.15
-0.145
-0.14
-0.145
-0.15
-0.135
-0.155
-0.145
-0.13
-0.135
-0.15
-0.14
-0.15
-0.14
-0.15
-0.145
-0.145
-0.13
-0.125
-0.13
-0.125
-0.14
-0.16
-0.175
-0.185
-0.18
-0.18
-0.15
-0.135
-0.11
-0.09
-0.075
-0.075
-0.09
-0.09
-0.095
-0.11
-0.11
-0.095
-0.075
-0.055
-0.02
-0.01
0.01
0.01
0.0
-0.02
-0.035
-0.05
-0.06
-0.075
-0.09
-0.105
-0.12
-0.145
-0.155
-0.18
-0.205
-0.22
-0.24
-0.265
-0.265
-0.255
-0.25
-0.245
-0.24
-0.25
-0.255
-0.275
-0.275
-0.28
-0.285
-0.29
-0.275
-0.27
-0.26
-0.275
-0.265
-0.275
-0.28
-0.27
-0.27
-0.275
-0.28
-0.29
-0.3
-0.29
-0.275
-0.28
-0.275
-0.275
-0.285
-0.27
-0.275
-0.275
-0.285
-0.29
-0.28
-0.28
-0.285
-0.28
-0.285
-0.295
-0.285
-0.275
-0.28
-0.285
-0.28
-0.28
-0.285
-0.3
-0.285
-0.275
-0.26
-0.26
-0.255
-0.265
-0.265
-0.28
-0.285
-0.295
-0.295
-0.295
-0.295
-0.29
-0.26
-0.265
-0.255
-0.26
-0.275
-0.28
-0.295
-0.3
-0.29
-0.28
-0.265
-0.265
-0.27
-0.285
-0.29
-0.31
-0.315
-0.315
-0.31
-0.3
-0.285
-0.28
-0.285
-0.275
-0.295
-0.29
-0.285
-0.285
-0.28
-0.28
-0.285
-0.28
-0.285
-0.275
-0.285
-0.27
-0.26
-0.265
-0.275
-0.27
-0.27
-0.285
-0.285
-0.3
-0.29
-0.28
-0.275
-0.255
-0.25
-0.25
