Lead II
-0.16
-0.16
-0.155
-0.135
-0.125
-0.13
-0.16
-0.175
-0.185
-0.17
-0.175
-0.185
-0.2
-0.215
-0.21
-0.21
-0.2
-0.22
-0.235
-0.26
-0.255
-0.245
-0.245
-0.265
-0.265
-0.285
-0.27
-0.265
-0.26
-0.275
-0.28
-0.295
-0.285
-0.285
-0.275
-0.265
-0.275
-0.275
-0.28
-0.27
-0.255
-0.265
-0.28
-0.285
-0.27
-0.26
-0.245
-0.245
-0.27
-0.265
-0.265
-0.26
-0.25
-0.25
-0.27
-0.27
-0.28
-0.265
-0.245
-0.265
-0.28
-0.275
-0.275
-0.26
-0.25
-0.25
-0.275
-0.285
-0.275
-0.26
-0.255
-0.265
-0.275
-0.28
-0.275
-0.275
-0.275
-0.3
-0.305
-0.32
-0.31
-0.295
-0.28
-0.295
-0.31
-0.32
-0.32
-0.31
-0.29
-0.305
-0.335
-0.335
-0.315
-0.305
-0.29
-0.3
-0.32
-0.31
-0.3
-0.285
-0.295
-0.31
-0.295
-0.305
-0.285
-0.26
-0.255
-0.25
-0.25
-0.24
-0.215
-0.16
-0.095
-0.045
0.04
0.155
0.32
0.495
0.705
0.865
0.985
1.055
1.025
0.94
0.735
0.455
0.155
-0.145
-0.34
-0.415
-0.36
-0.32
-0.305
-0.31
-0.295
-0.295
-0.3
-0.31
-0.335
-0.36
-0.36
-0.355
-0.345
-0.365
-0.365
-0.375
-0.365
-0.35
-0.33
-0.35
-0.365
-0.37
-0.37
-0.345
-0.345
-0.365
-0.38
-0.38
-0.38
-0.375
-0.37
-0.375
-0.385
-0.395
-0.385
-0.38
-0.375
-0.375
-0.39
-0.395
-0.395
-0.395
-0.39
-0.375
-0.39
-0.385
-0.38
-0.37
-0.355
-0.36
-0.36
-0.375
-0.36
-0.34
-0.325
-0.335
-0.345
-0.355
-0.34
-0.315
-0.3
-0.305
-0.32
-0.31
-0.305
-0.305
-0.29
-0.285
-0.3
-0.295
-0.29
-0.27
-0.27
-0.27
-0.28
-0.28
-0.28
-0.27
-0.265
-0.265
-0.28
-0.285
-0.275
-0.255
-0.255
-0.255
-0.26
-0.265
-0.25
-0.235
-0.235
-0.23
-0.23
-0.245
-0.235
-0.225
-0.215
-0.22
-0.245
-0.25
-0.235
-0.22
-0.215
-0.23
-0.25
-0.275
-0.26
-0.235
-0.225
-0.235
-0.265
-0.285
-0.265
-0.265
-0.26
-0.29
-0.295
-0.31
-0.29
-0.275
-0.27
-0.28
-0.285
-0.295
-0.29
-0.265
-0.26
-0.25
-0.27
-0.29
-0.28
-0.275
-0.26
-0.26
-0.29
-0.28
-0.285
-0.265
-0.235
-0.25
-0.255
-0.29
-0.29
-0.265
-0.25
-0.255
-0.275
-0.285
-0.28
-0.26
-0.26
-0.26
-0.27
-0.29
-0.28
-0.295
-0.27
-0.275
-0.265
-0.28
-0.265
-0.275
-0.27
-0.285
-0.305
-0.29
-0.29
-0.27
-0.27
-0.26
-0.295
-0.3
-0.28
-0.265
-0.25
-0.26
-0.275
-0.275
-0.285
-0.27
-0.26
-0.26
-0.27
-0.285
-0.265
-0.27
-0.24
-0.255
-0.255
-0.275
-0.255
-0.24
-0.195
-0.17
-0.12
-0.08
0.03
0.16
0.3
0.47
0.63
0.81
0.975
1.07
1.065
0.925
0.705
0.455
0.19
-0.04
-0.24
-0.33
-0.35
-0.315
-0.27
-0.245
-0.24
-0.26
-0.295
-0.33
-0.325
-0.32
-0.32
-0.33
-0.36
-0.37
-0.375
-0.345
-0.345
-0.36
-0.355
-0.37
-0.37
-0.36
-0.345
-0.35
-0.375
-0.4
-0.37
-0.37
-0.365
-0.355
-0.365
-0.39
-0.38
-0.37
-0.355
-0.37
-0.385
-0.405
-0.395
-0.4
-0.37
-0.365
-0.38
-0.385
-0.38
-0.38
-0.35
-0.36
-0.375
-0.37
-0.35
-0.33
-0.33
-0.325
-0.35
-0.345
-0.335
-0.325
-0.295
-0.295
-0.315
-0.315
-0.305
-0.29
-0.26
-0.26
-0.26
-0.28
-0.265
-0.25
-0.225
-0.225
-0.235
-0.24
-0.23
-0.21
-0.21
-0.215
-0.225
-0.225
-0.195
-0.18
-0.165
-0.17
-0.175
-0.18
-0.165
-0.17
-0.14
-0.15
-0.16
-0.165
-0.15
-0.14
-0.135
-0.15
-0.15
-0.175
-0.175
-0.16
-0.15
-0.175
-0.195
-0.21
-0.2
-0.195
-0.195
-0.2
-0.22
-0.235
-0.26
-0.245
-0.23
-0.22
-0.23
-0.235
-0.235
-0.215
-0.215
-0.205
-0.205
-0.215
-0.2
-0.185
-0.16
-0.145
-0.13
-0.12
-0.085
-0.06
-0.035
-0.045
-0.035
-0.005
0.075
0.145
0.225
0.27
0.315
0.39
0.465
0.55
0.645
0.725
0.805
0.885
0.97
1.04
1.095
1.1
1.095
1.075
1.07
1.055
1.015
0.925
0.81
0.69
0.58
0.465
0.36
0.24
0.115
0.06
0.03
0.045
0.035
0.005
-0.015
-0.01
0.035
0.1
0.185
0.245
0.245
0.175
0.065
-0.095
-0.245
-0.36
-0.445
-0.495
-0.515
-0.525
-0.55
-0.565
-0.605
-0.65
-0.655
-0.64
-0.645
-0.66
-0.685
-0.705
-0.715
-0.715
-0.71
-0.715
-0.735
-0.755
-0.755
-0.735
-0.74
-0.745
-0.765
-0.785
-0.795
-0.78
-0.76
-0.75
-0.78
-0.79
-0.785
-0.78
-0.75
-0.76
-0.785
-0.79
-0.775
-0.765
-0.75
-0.755
-0.74
-0.755
-0.745
-0.735
-0.715
-0.71
-0.725
-0.72
-0.705
-0.685
-0.67
-0.655
-0.665
-0.665
-0.635
-0.63
-0.605
-0.585
-0.575
-0.57
-0.56
-0.535
-0.5
-0.51
-0.515
-0.505
-0.485
-0.455
-0.445
-0.435
-0.43
-0.445
-0.415
-0.395
-0.37
-0.36
-0.375
-0.37
-0.355
-0.34
-0.32
-0.325
-0.33
-0.33
-0.325
-0.31
-0.29
-0.305
-0.305
-0.315
-0.305
-0.29
-0.29
-0.3
-0.32
-0.31
-0.315
-0.305
-0.295
-0.305
-0.31
-0.33
-0.305
-0.285
-0.27
-0.29
-0.29
-0.295
-0.305
-0.3
-0.305
-0.3
-0.295
-0.31
-0.31
-0.285
-0.275
-0.275
-0.285
-0.29
-0.295
-0.275
-0.265
-0.28
-0.265
-0.27
-0.255
-0.24
-0.23
-0.225
-0.24
-0.245
-0.24
-0.235
-0.22
-0.245
-0.26
-0.265
-0.25
-0.235
-0.24
-0.26
-0.29
-0.285
-0.285
-0.26
-0.265
-0.265
-0.275
-0.28
-0.285
-0.27
-0.255
-0.26
-0.265
-0.28
-0.28
-0.255
-0.24
-0.255
-0.28
-0.285
-0.275
-0.27
-0.26
-0.255
-0.27
-0.275
-0.27
-0.255
-0.24
-0.245
-0.26
-0.265
-0.265
-0.235
-0.23
-0.24
-0.255
-0.255
-0.25
-0.25
-0.23
-0.26
-0.265
-0.27
-0.265
-0.25
-0.255
-0.265
-0.275
-0.28
-0.275
-0.26
-0.245
-0.255
-0.265
-0.275
-0.265
-0.25
-0.255
-0.245
-0.265
-0.27
-0.255
-0.255
-0.26
-0.255
-0.27
-0.27
-0.275
-0.265
-0.255
-0.27
-0.28
-0.275
-0.27
-0.255
-0.25
-0.255
-0.275
-0.275
-0.265
-0.255
-0.255
-0.26
-0.275
-0.27
-0.275
-0.255
-0.245
-0.26
-0.26
-0.26
-0.255
-0.24
-0.23
-0.23
-0.25
-0.245
-0.24
-0.24
-0.22
-0.215
-0.22
-0.24
-0.235
-0.215
-0.225
-0.22
-0.23
-0.24
-0.25
-0.245
-0.23
-0.24
-0.26
-0.265
-0.255
-0.245
-0.235
-0.24
-0.255
-0.28
-0.27
-0.255
-0.25
-0.26
-0.26
-0.25
-0.245
-0.23
-0.23
-0.23
-0.23
-0.235
-0.22
-0.22
-0.2
-0.205
-0.225
-0.21
-0.2
-0.175
-0.165
-0.175
-0.19
-0.18
-0.15
-0.115
-0.065
-0.015
0.045
0.145
0.28
0.415
0.58
0.745
0.885
1.04
1.195
1.27
1.245
1.055
0.815
0.54
0.28
0.065
-0.09
-0.205
-0.24
-0.225
-0.18
-0.155
-0.16
-0.185
-0.225
-0.255
-0.26
-0.255
-0.265
-0.275
-0.295
-0.305
-0.305
-0.3
-0.29
-0.305
-0.33
-0.34
-0.345
-0.33
-0.335
-0.335
-0.35
-0.35
-0.345
-0.33
-0.305
-0.31
-0.335
-0.345
-0.335
-0.33
-0.315
-0.335
-0.34
-0.335
-0.325
-0.31
-0.295
-0.31
-0.325
-0.34
-0.325
-0.315
-0.315
-0.32
-0.335
-0.355
-0.335
-0.33
-0.325
-0.32
-0.34
-0.345
-0.34
-0.315
-0.3
-0.3
-0.33
-0.325
-0.31
-0.29
-0.27
-0.28
-0.285
-0.285
-0.26
-0.25
-0.245
-0.235
-0.26
-0.25
-0.235
-0.225
-0.205
-0.205
-0.225
-0.22
-0.215
-0.185
-0.165
-0.17
-0.175
-0.185
-0.16
-0.14
-0.13
-0.125
-0.135
-0.135
-0.12
-0.095
-0.09
-0.1
-0.1
-0.1
-0.09
-0.07
-0.05
-0.07
-0.07
-0.08
-0.07
-0.07
-0.065
-0.07
-0.085
-0.1
-0.095
-0.09
-0.105
-0.09
-0.115
-0.13
-0.125
-0.11
-0.105
-0.135
-0.14
-0.175
-0.16
-0.15
-0.145
-0.165
-0.185
-0.185
-0.18
-0.175
-0.17
-0.19
-0.22
-0.22
-0.21
-0.21
-0.2
-0.225
-0.235
-0.23
-0.215
-0.21
-0.21
-0.235
-0.25
-0.255
-0.255
-0.255
-0.225
-0.235
-0.255
-0.27
-0.245
-0.235
-0.24
-0.25
-0.265
-0.27
-0.27
-0.26
-0.245
-0.25
-0.265
-0.265
-0.26
-0.24
-0.23
-0.235
-0.255
-0.255
-0.235
-0.225
-0.225
-0.23
-0.255
-0.255
-0.25
-0.245
-0.23
-0.26
-0.26
-0.27
-0.265
-0.27
-0.26
-0.265
-0.27
-0.275
-0.28
-0.255
-0.255
-0.265
-0.29
-0.3
-0.29
-0.28
-0.28
-0.285
-0.31
-0.31
-0.305
-0.29
-0.295
-0.29
-0.31
-0.32
-0.31
-0.3
-0.29
-0.29
-0.305
-0.305
-0.305
-0.29
-0.29
-0.29
-0.31
-0.3
-0.295
-0.29
-0.275
-0.285
-0.315
-0.295
-0.305
-0.28
-0.27
-0.285
-0.31
-0.32
-0.295
-0.285
-0.275
-0.29
-0.32
-0.305
-0.31
-0.29
-0.295
-0.3
-0.32
-0.31
-0.31
-0.285
-0.285
-0.295
-0.31
-0.31
-0.32
-0.31
-0.32
-0.325
-0.325
-0.35
-0.32
-0.29
-0.29
-0.3
-0.315
-0.335
-0.325
-0.29
-0.275
-0.285
-0.305
-0.31
-0.285
-0.27
-0.255
-0.27
-0.285
-0.3
-0.28
-0.255
-0.255
-0.27
-0.25
-0.27
-0.265
-0.26
-0.255
-0.27
-0.275
-0.28
-0.265
-0.255
-0.245
-0.265
-0.27
-0.28
-0.26
-0.245
-0.245
-0.245
-0.265
-0.27
-0.275
-0.26
-0.26
-0.25
-0.26
-0.275
-0.26
-0.255
-0.225
-0.215
-0.21
-0.185
-0.125
-0.065
-0.005
0.045
0.135
0.275
0.435
0.625
0.815
0.96
1.08
1.095
1.025
0.85
0.61
0.335
0.08
-0.145
-0.28
-0.315
-0.3
-0.265
-0.255
-0.255
-0.24
-0.215
-0.22
-0.24
-0.28
-0.305
-0.295
-0.31
-0.31
-0.325
-0.34
-0.35
-0.355
-0.335
-0.335
-0.35
-0.345
-0.365
-0.355
-0.345
-0.335
-0.34
-0.36
-0.355
-0.36
-0.345
-0.33
-0.355
-0.36
-0.365
-0.38
-0.365
-0.37
-0.345
-0.375
-0.375
-0.35
-0.36
-0.345
-0.38
-0.375
-0.38
-0.365
-0.335
-0.34
-0.335
-0.36
-0.345
-0.34
-0.33
-0.33
-0.355
-0.34
-0.35
-0.325
-0.32
-0.305
-0.315
-0.325
-0.335
-0.325
-0.29
-0.285
-0.29
-0.3
-0.305
-0.31
-0.295
-0.28
-0.275
-0.29
-0.285
-0.28
-0.25
-0.25
-0.245
-0.26
-0.265
-0.255
-0.24
-0.22
-0.23
-0.24
-0.245
-0.245
-0.22
-0.21
-0.215
-0.225
-0.23
-0.215
-0.2
-0.195
-0.185
-0.205
-0.21
-0.185
-0.165
-0.165
-0.175
-0.19
-0.19
-0.175
-0.16
-0.165
-0.175
-0.19
-0.195
-0.185
-0.18
-0.17
-0.18
-0.215
-0.2
-0.2
-0.21
-0.205
-0.205
-0.23
-0.255
-0.24
-0.215
-0.225
-0.23
-0.255
-0.26
-0.245
-0.23
-0.235
-0.22
-0.245
-0.26
-0.25
-0.255
-0.27
-0.255
-0.265
-0.27
-0.25
-0.255
-0.235
-0.245
-0.26
-0.245
-0.23
-0.22
-0.21
-0.225
-0.24
-0.25
-0.25
-0.225
-0.235
-0.235
-0.25
-0.25
-0.25
-0.22
-0.225
-0.24
-0.25
-0.255
-0.235
-0.225
-0.22
-0.23
-0.245
-0.245
-0.245
-0.235
-0.23
-0.235
-0.255
-0.245
-0.24
-0.225
-0.22
-0.23
-0.265
-0.265
-0.265
-0.245
-0.24
-0.26
-0.275
-0.26
-0.26
-0.26
-0.265
-0.275
-0.28
-0.28
-0.295
-0.27
-0.255
-0.27
-0.275
-0.28
-0.285
-0.275
-0.27
-0.265
-0.285
-0.285
-0.295
-0.275
-0.265
-0.265
-0.275
-0.28
-0.275
-0.25
-0.25
-0.255
-0.275
-0.275
-0.275
-0.25
-0.245
-0.255
-0.255
-0.265
-0.255
-0.255
-0.255
-0.26
-0.275
-0.27
-0.27
-0.255
-0.24
-0.25
-0.26
-0.285
-0.265
-0.275
-0.28
-0.27
-0.28
-0.29
-0.29
-0.27
-0.26
-0.28
-0.28
-0.275
-0.275
-0.27
-0.245
-0.255
-0.27
-0.265
-0.26
-0.245
-0.24
-0.255
-0.27
-0.26
-0.26
-0.235
-0.24
-0.24
-0.255
-0.26
-0.24
-0.235
-0.235
-0.25
-0.255
-0.265
-0.255
-0.255
-0.23
-0.25
-0.27
-0.265
-0.26
-0.25
-0.26
-0.26
-0.27
-0.285
-0.25
-0.24
-0.235
-0.25
-0.265
-0.275
-0.265
-0.25
-0.25
-0.26
-0.27
-0.285
-0.28
-0.245
-0.235
-0.24
-0.26
-0.265
-0.25
-0.22
-0.21
-0.23
-0.25
-0.25
-0.235
-0.225
-0.22
-0.22
-0.24
-0.235
-0.23
-0.215
-0.21
-0.21
-0.225
-0.235
-0.23
-0.225
-0.225
-0.225
-0.24
-0.25
-0.24
-0.23
-0.215
-0.225
-0.25
-0.26
-0.24
-0.235
-0.225
-0.235
-0.25
-0.255
-0.24
-0.23
-0.245
-0.23
-0.245
-0.255
-0.245
-0.225
-0.22
-0.23
-0.24
-0.215
-0.215
-0.205
-0.205
-0.22
-0.23
-0.235
-0.24
-0.23
-0.215
-0.225
-0.225
-0.245
-0.23
-0.22
-0.205
-0.21
-0.23
-0.225
-0.22
-0.21
-0.195
-0.215
-0.22
-0.225
-0.22
-0.21
-0.19
-0.21
-0.225
-0.235
-0.24
-0.215
-0.21
-0.22
-0.24
-0.225
-0.235
-0.225
-0.225
-0.225
-0.25
-0.25
-0.25
-0.235
-0.25
-0.245
-0.235
-0.23
-0.225
-0.215
-0.21
-0.205
-0.21
-0.23
-0.22
-0.205
-0.2
-0.21
-0.215
-0.215
-0.2
-0.185
-0.175
-0.19
-0.215
-0.21
-0.19
-0.18
-0.155
-0.175
-0.185
-0.18
-0.175
-0.15
-0.125
-0.11
-0.075
-0.03
0.045
0.145
0.24
0.355
0.495
0.63
0.79
0.95
1.085
1.165
1.155
1.065
0.9
0.705
0.47
0.25
0.03
-0.1
-0.17
-0.185
-0.16
-0.145
-0.14
-0.14
-0.165
-0.195
-0.185
-0.2
-0.225
-0.25
-0.24
-0.235
-0.23
-0.265
-0.26
-0.275
-0.265
-0.26
-0.24
-0.265
-0.28
-0.29
-0.27
-0.265
-0.275
-0.285
-0.3
-0.3
-0.3
-0.275
-0.275
-0.305
-0.32
-0.31
-0.31
-0.295
-0.29
-0.3
-0.305
-0.305
-0.295
-0.28
-0.27
-0.275
-0.295
-0.295
-0.3
-0.27
-0.25
-0.255
-0.275
-0.285
-0.27
-0.245
-0.235
-0.245
-0.265
-0.265
-0.265
-0.24
-0.235
-0.24
-0.245
-0.25
-0.245
-0.225
-0.22
-0.215
-0.22
-0.215
-0.225
-0.2
-0.19
-0.195
-0.2
-0.195
-0.2
-0.175
-0.17
-0.165
-0.185
-0.18
-0.175
-0.155
-0.145
-0.13
-0.15
-0.15
-0.14
-0.13
-0.12
-0.115
-0.13
-0.12
-0.095
-0.07
-0.06
-0.07
-0.07
-0.075
-0.075
-0.06
-0.05
-0.07
-0.08
-0.105
-0.1
-0.065
-0.065
-0.07
-0.085
-0.105
-0.1
-0.095
-0.09
-0.11
-0.13
-0.13
-0.135
-0.13
-0.14
-0.145
-0.17
-0.185
-0.18
-0.175
-0.175
-0.2
-0.205
-0.205
-0.205
-0.19
-0.195
-0.2
-0.215
-0.225
-0.215
-0.195
-0.19
-0.215
-0.22
-0.22
-0.2
-0.195
-0.19
-0.2
-0.225
-0.22
-0.21
-0.205
-0.2
-0.22
-0.23
-0.22
-0.225
-0.205
-0.185
-0.195
-0.21
-0.215
-0.215
-0.205
-0.205
-0.215
-0.22
-0.215
-0.215
-0.215
-0.195
-0.205
-0.22
-0.23
-0.215
-0.195
-0.2
-0.205
-0.22
-0.215
-0.215
-0.22
-0.22
-0.23
-0.235
-0.245
-0.22
-0.22
-0.22
-0.245
-0.25
-0.26
-0.25
-0.22
-0.215
-0.225
-0.235
-0.235
-0.24
-0.22
-0.21
-0.23
-0.245
-0.245
-0.23
-0.215
-0.2
-0.23
-0.245
-0.245
-0.23
-0.23
-0.235
-0.24
-0.25
-0.255
-0.25
-0.235
-0.245
-0.245
-0.255
-0.255
-0.25
-0.225
-0.23
-0.24
-0.235
-0.235
-0.215
-0.195
-0.18
-0.145
-0.13
-0.06
0.02
0.12
0.245
0.385
0.515
0.67
0.85
1.035
1.145
1.165
1.07
0.895
0.685
0.455
0.195
-0.04
-0.22
-0.29
-0.3
-0.235
-0.2
-0.195
-0.2
-0.215
-0.215
-0.225
-0.23
-0.25
-0.285
-0.305
-0.295
-0.285
-0.285
-0.295
-0.315
-0.335
-0.325
-0.315
-0.33
-0.345
-0.34
-0.36
-0.35
-0.34
-0.345
-0.365
-0.375
-0.39
-0.38
-0.345
-0.355
-0.36
-0.385
-0.375
-0.38
-0.355
-0.355
-0.37
-0.39
-0.375
-0.36
-0.33
-0.33
-0.335
-0.355
-0.36
-0.35
-0.335
-0.33
-0.335
-0.335
-0.33
-0.315
-0.3
-0.3
-0.305
-0.315
-0.325
-0.3
-0.28
-0.27
-0.26
-0.275
-0.285
-0.255
-0.245
-0.235
-0.24
-0.26
-0.255
-0.23
-0.21
-0.23
-0.21
-0.23
-0.225
-0.21
-0.185
-0.195
-0.195
-0.205
-0.225
-0.185
-0.175
-0.175
-0.18
-0.195
-0.185
-0.18
-0.175
-0.155
-0.17
-0.175
-0.19
-0.165
-0.155
-0.16
-0.175
-0.2
-0.185
-0.195
-0.17
-0.18
-0.19
-0.225
-0.24
-0.25
-0.23
-0.235
-0.255
-0.265
-0.275
-0.265
-0.27
-0.275
-0.285
-0.295
-0.31
-0.305
-0.285
-0.28
-0.28
-0.295
-0.295
-0.295
-0.275
-0.265
-0.285
-0.28
-0.3
-0.285
-0.265
-0.265
-0.27
-0.29
-0.295
-0.27
-0.26
-0.255
-0.25
-0.245
-0.225
-0.21
-0.175
-0.155
-0.15
-0.175
-0.15
-0.115
-0.05
0.01
0.06
0.105
0.175
0.235
0.32
0.395
0.455
0.515
0.595
0.675
0.77
0.835
0.89
0.935
0.955
0.975
0.98
0.975
0.93
0.89
0.845
0.81
0.745
0.66
0.565
0.465
0.385
0.28
0.21
0.15
0.095
0.04
0.025
0.025
0.02
-0.01
-0.045
-0.055
-0.02
0.03
0.085
0.12
0.095
0.03
-0.1
-0.255
-0.39
-0.465
-0.505
-0.555
-0.57
-0.57
-0.59
-0.605
-0.64
-0.66
-0.675
-0.685
-0.675
-0.68
-0.7
-0.72
-0.73
-0.745
-0.745
-0.755
-0.755
-0.785
-0.795
-0.795
-0.78
-0.785
-0.795
-0.825
-0.835
-0.83
-0.815
-0.835
-0.855
-0.865
-0.88
-0.895
-0.87
-0.88
-0.89
-0.91
-0.9
-0.9
-0.875
-0.88
-0.885
-0.895
-0.905
-0.9
-0.87
-0.86
-0.875
-0.875
-0.88
-0.875
-0.855
-0.85
-0.85
-0.87
-0.86
-0.84
-0.81
-0.8
-0.79
-0.795
-0.795
-0.765
-0.735
-0.71
-0.71
-0.695
-0.695
-0.675
-0.645
-0.625
-0.615
-0.61
-0.595
-0.58
-0.55
-0.55
-0.525
-0.53
-0.515
-0.495
-0.47
-0.47
-0.465
-0.485
-0.48
-0.455
-0.44
-0.44
-0.435
-0.45
-0.435
-0.43
-0.42
-0.42
-0.43
-0.455
-0.44
-0.425
-0.42
-0.43
-0.42
-0.44
-0.455
-0.42
-0.42
-0.42
-0.415
-0.435
-0.43
-0.415
-0.4
-0.405
-0.405
-0.42
-0.415
-0.415
-0.395
-0.39
-0.4
-0.415
-0.42
-0.415
-0.395
-0.385
-0.395
-0.415
-0.405
-0.4
-0.395
-0.385
-0.42
-0.41
-0.42
-0.41
-0.39
-0.385
-0.395
-0.4
-0.42
-0.4
-0.4
-0.395
-0.415
-0.42
-0.425
-0.41
-0.4
-0.395
-0.395
-0.41
-0.415
-0.41
-0.395
-0.385
-0.395
-0.415
-0.42
-0.405
-0.39
-0.395
-0.4
-0.41
-0.42
-0.405
-0.39
-0.385
-0.4
-0.405
-0.405
-0.395
-0.385
-0.39
-0.405
-0.4
-0.41
-0.395
-0.385
-0.395
-0.39
-0.405
-0.4
-0.375
-0.36
-0.36
-0.355
-0.365
-0.375
-0.36
-0.345
-0.335
-0.34
-0.36
-0.37
-0.355
-0.35
-0.35
-0.35
-0.37
-0.375
-0.345
-0.335
-0.34
-0.35
-0.36
-0.35
-0.35
-0.32
-0.315
-0.31
-0.335
-0.3
-0.235
-0.17
-0.1
0.0
0.12
0.26
0.445
0.625
0.795
0.925
0.95
0.865
0.685
0.44
0.155
-0.11
-0.35
-0.435
-0.425
-0.37
-0.335
-0.33
-0.34
-0.335
-0.34
-0.34
-0.36
-0.375
-0.41
-0.415
-0.415
-0.39
-0.4
-0.42
-0.445
-0.45
-0.44
-0.435
-0.44
-0.45
-0.47
-0.475
-0.435
-0.43
-0.42
-0.435
-0.44
-0.46
-0.44
-0.445
-0.43
-0.445
-0.455
-0.455
-0.455
-0.435
-0.425
-0.435
-0.445
-0.445
-0.43
-0.43
-0.42
-0.42
-0.43
-0.445
-0.42
-0.395
-0.385
-0.395
-0.42
-0.41
-0.4
-0.375
-0.375
-0.39
-0.4
-0.405
-0.385
-0.37
-0.35
-0.36
-0.365
-0.365
-0.34
-0.32
-0.32
-0.325
-0.335
-0.335
-0.32
-0.3
-0.285
-0.285
-0.285
-0.29
-0.27
-0.26
-0.25
-0.25
-0.25
-0.25
-0.235
-0.215
-0.2
-0.2
-0.21
-0.21
-0.195
-0.18
-0.18
-0.19
-0.2
-0.2
-0.19
-0.18
-0.18
-0.17
-0.195
-0.195
-0.205
-0.195
-0.205
-0.215
-0.235
-0.235
-0.24
-0.24
-0.24
-0.27
-0.28
-0.28
-0.28
-0.285
-0.28
-0.29
-0.31
-0.315
-0.3
-0.295
-0.3
-0.31
-0.325
-0.325
-0.315
-0.3
-0.305
-0.32
-0.335
-0.325
-0.305
-0.29
-0.3
-0.305
-0.315
-0.31
-0.3
-0.27
-0.275
-0.285
-0.3
-0.31
-0.29
-0.275
-0.275
-0.285
-0.3
-0.3
-0.285
-0.265
-0.285
-0.29
-0.3
-0.31
-0.31
-0.285
-0.285
-0.295
-0.31
-0.33
-0.33
-0.31
-0.32
-0.325
-0.33
-0.33
-0.31
-0.295
-0.32
-0.32
-0.345
-0.34
-0.32
-0.315
-0.325
-0.32
-0.34
-0.325
-0.31
-0.31
-0.3
-0.305
-0.31
-0.31
-0.295
-0.28
-0.27
-0.28
-0.28
-0.295
-0.275
-0.24
-0.205
-0.19
-0.16
-0.1
-0.03
0.085
0.21
0.345
0.47
0.63
0.74
0.78
0.705
0.525
0.31
0.075
-0.135
-0.285
-0.365
-0.385
-0.345
-0.32
-0.29
-0.275
-0.28
-0.3
-0.33
-0.34
-0.34
-0.33
-0.34
-0.35
-0.36
-0.365
-0.355
-0.34
-0.35
-0.345
-0.365
-0.365
-0.365
-0.34
-0.35
-0.355
-0.37
-0.375
-0.37
-0.345
-0.35
-0.35
-0.365
-0.37
-0.355
-0.34
-0.335
-0.34
-0.35
-0.36
-0.34
-0.34
-0.32
-0.35
-0.35
-0.34
-0.33
-0.315
-0.31
-0.325
-0.35
-0.33
-0.325
-0.315
-0.325
-0.325
-0.335
-0.345
-0.32
-0.335
-0.325
-0.335
-0.355
-0.36
-0.33
-0.315
-0.315
-0.33
-0.335
-0.325
-0.305
-0.295
-0.295
-0.285
-0.3
-0.3
-0.295
-0.28
-0.265
-0.29
-0.29
-0.285
-0.27
-0.255
-0.25
-0.255
-0.255
-0.245
-0.225
-0.22
-0.215
-0.225
-0.245
-0.23
-0.23
-0.215
-0.225
-0.24
-0.255
-0.255
-0.245
-0.235
-0.245
-0.275
-0.285
-0.3
-0.3
-0.285
-0.29
-0.31
-0.32
-0.34
-0.32
-0.31
-0.31
-0.33
-0.325
-0.325
-0.305
-0.29
-0.295
-0.3
-0.315
-0.31
-0.31
-0.285
-0.285
-0.29
-0.315
-0.315
-0.29
-0.28
-0.27
-0.27
-0.29
-0.285
-0.265
-0.26
-0.255
-0.265
-0.28
-0.28
-0.275
-0.27
-0.27
-0.29
-0.295
-0.295
-0.28
-0.28
-0.285
-0.295
-0.305
-0.3
-0.305
-0.275
-0.29
-0.29
-0.305
-0.3
-0.295
-0.27
-0.275
-0.295
-0.285
-0.29
-0.28
-0.265
-0.27
-0.28
-0.295
-0.295
-0.29
-0.28
-0.27
-0.29
-0.3
-0.295
-0.285
-0.275
-0.28
-0.285
-0.3
-0.285
-0.265
-0.24
-0.235
-0.245
-0.25
-0.26
-0.235
-0.215
-0.21
-0.2
-0.18
-0.125
-0.065
0.01
0.095
0.19
0.3
0.465
0.635
0.805
0.96
1.06
1.07
0.955
0.75
0.485
0.205
-0.065
-0.24
-0.295
-0.27
-0.22
-0.19
-0.2
-0.235
-0.26
-0.28
-0.285
-0.3
-0.3
-0.32
-0.335
-0.345
-0.325
-0.31
-0.32
-0.33
-0.345
-0.33
-0.32
-0.325
-0.345
-0.35
-0.355
-0.35
-0.36
-0.355
-0.365
-0.385
-0.385
-0.38
-0.385
-0.385
-0.385
-0.38
-0.405
-0.375
-0.36
-0.36
-0.37
-0.385
-0.385
-0.37
-0.355
-0.35
-0.37
-0.365
-0.375
-0.36
-0.335
-0.335
-0.325
-0.35
-0.34
-0.335
-0.315
-0.295
-0.3
-0.305
-0.305
-0.31
-0.29
-0.29
-0.29
-0.295
-0.295
-0.285
-0.27
-0.25
-0.28
-0.285
-0.285
-0.27
-0.255
-0.26
-0.26
-0.275
-0.28
-0.235
-0.225
-0.21
-0.23
-0.22
-0.22
-0.205
-0.185
-0.185
-0.19
-0.205
-0.21
-0.18
-0.165
-0.16
-0.155
-0.17
-0.17
-0.16
-0.16
-0.155
-0.19
-0.215
-0.21
-0.215
-0.205
-0.21
-0.23
-0.25
-0.245
-0.255
-0.235
-0.27
-0.275
-0.285
-0.295
-0.27
-0.265
-0.275
-0.285
-0.305
-0.29
-0.3
-0.265
-0.275
-0.275
-0.295
-0.295
-0.28
-0.265
-0.27
-0.27
-0.28
-0.28
-0.28
-0.265
-0.265
-0.265
-0.275
-0.275
-0.28
-0.255
-0.25
-0.265
-0.285
-0.28
-0.265
-0.265
-0.27
-0.285
-0.29
-0.305
-0.29
-0.275
-0.285
-0.29
-0.285
-0.29
-0.28
-0.27
-0.27
-0.285
-0.3
-0.305
-0.285
-0.28
-0.265
-0.28
-0.295
-0.295
-0.27
-0.265
-0.265
-0.28
-0.3
-0.295
-0.275
-0.27
-0.265
-0.27
-0.295
-0.275
-0.28
-0.28
-0.265
-0.285
-0.29
-0.32
-0.29
-0.28
-0.295
-0.315
-0.315
-0.32
-0.32
-0.295
-0.3
-0.295
-0.305
-0.3
-0.305
-0.265
-0.255
-0.26
-0.27
-0.255
-0.235
-0.205
-0.175
-0.14
-0.11
-0.035
0.06
0.155
0.29
0.435
0.575
0.72
0.88
1.005
1.025
0.955
0.775
0.55
0.315
0.075
-0.13
-0.26
-0.3
-0.285
-0.255
-0.225
-0.22
-0.255
-0.295
-0.3
-0.295
-0.295
-0.305
-0.33
-0.345
-0.35
-0.345
-0.34
-0.35
-0.36
-0.375
-0.385
-0.38
-0.36
-0.36
-0.375
-0.375
-0.385
-0.375
-0.36
-0.365
-0.385
-0.38
-0.38
-0.365
-0.35
-0.355
-0.365
-0.37
-0.385
-0.36
-0.35
-0.35
-0.36
-0.385
-0.385
-0.375
-0.35
-0.36
-0.37
-0.38
-0.4
-0.37
-0.37
-0.37
-0.37
-0.375
-0.375
-0.355
-0.345
-0.33
-0.34
-0.355
-0.35
-0.335
-0.32
-0.32
-0.33
-0.345
-0.34
-0.325
-0.32
-0.31
-0.31
-0.33
-0.305
-0.31
-0.3
-0.29
-0.295
-0.3
-0.295
-0.265
-0.255
-0.26
-0.26
-0.28
-0.25
-0.24
-0.23
-0.215
-0.21
-0.22
-0.22
-0.2
-0.175
-0.18
-0.195
-0.205
-0.195
-0.195
-0.175
-0.185
-0.2
-0.205
-0.225
-0.225
-0.22
-0.22
-0.23
-0.25
-0.235
-0.25
-0.24
-0.235
-0.255
-0.265
-0.265
-0.265
-0.255
-0.245
-0.26
-0.265
-0.27
-0.255
-0.245
-0.26
-0.255
-0.27
-0.25
-0.245
-0.24
-0.24
-0.26
-0.255
-0.265
-0.255
-0.245
-0.25
-0.255
-0.27
-0.255
-0.245
-0.23
-0.25
-0.265
-0.27
-0.28
-0.265
-0.25
-0.26
-0.27
-0.29
-0.305
-0.275
-0.26
-0.265
-0.275
-0.305
-0.285
-0.28
-0.255
-0.265
-0.28
-0.295
-0.29
-0.275
-0.27
-0.265
-0.28
-0.29
-0.3
-0.275
-0.29
-0.285
-0.29
-0.3
-0.3
-0.28
-0.255
-0.255
-0.27
-0.28
-0.295
-0.265
-0.26
-0.26
-0.285
-0.3
-0.29
-0.28
-0.26
-0.265
-0.285
-0.285
-0.295
-0.27
-0.265
-0.265
-0.27
-0.275
-0.27
-0.265
-0.25
-0.245
-0.235
-0.25
-0.245
-0.22
-0.2
-0.215
-0.205
-0.205
-0.165
-0.1
-0.03
0.03
0.105
0.175
0.3
0.455
0.61
0.76
0.865
0.955
0.965
0.885
0.74
0.525
0.275
0.055
-0.14
-0.285
-0.3
-0.3
-0.27
-0.285
-0.27
-0.245
-0.24
-0.26
-0.285
-0.3
-0.315
-0.32
-0.305
-0.305
-0.33
-0.335
-0.345
-0.35
-0.325
-0.315
-0.335
-0.35
-0.355
-0.345
-0.32
-0.325
-0.335
-0.34
-0.34
-0.34
-0.325
-0.335
-0.335
-0.36
-0.35
-0.36
-0.355
-0.365
-0.36
-0.365
-0.37
-0.355
-0.345
-0.35
-0.365
-0.375
-0.365
-0.36
-0.33
-0.325
-0.335
-0.36
-0.35
-0.33
-0.315
-0.315
-0.315
-0.32
-0.32
-0.29
-0.285
-0.285
-0.295
-0.29
-0.295
-0.28
-0.255
-0.245
-0.26
-0.28
-0.27
-0.235
-0.235
-0.235
-0.235
-0.25
-0.255
-0.24
-0.225
-0.24
-0.245
-0.24
-0.25
-0.22
-0.19
-0.195
-0.215
-0.205
-0.215
-0.2
-0.18
-0.16
-0.175
-0.185
-0.19
-0.16
-0.155
-0.145
-0.16
-0.165
-0.175
-0.165
-0.135
-0.15
-0.165
-0.185
-0.18
-0.165
-0.145
-0.145
-0.165
-0.17
-0.175
-0.165
-0.15
-0.15
-0.175
-0.185
-0.185
-0.18
-0.17
-0.155
-0.17
-0.19
-0.175
-0.155
-0.14
-0.135
-0.15
-0.165
-0.155
-0.155
-0.135
-0.12
-0.14
-0.13
-0.115
-0.095
-0.075
-0.06
-0.035
-0.03
-0.02
0.015
0.06
0.11
0.15
0.19
0.24
0.3
0.385
0.46
0.51
0.575
0.65
0.745
0.845
0.915
0.96
1.0
1.05
1.085
1.12
1.115
1.085
1.07
1.03
1.005
0.96
0.905
0.815
0.71
0.615
0.54
0.44
0.35
0.265
0.2
0.18
0.155
0.16
0.14
0.11
0.065
0.06
0.075
0.125
0.15
0.195
0.195
0.175
0.095
-0.02
-0.165
-0.285
-0.385
-0.425
-0.425
-0.435
-0.465
-0.5
-0.53
-0.56
-0.565
-0.58
-0.595
-0.615
-0.645
-0.645
-0.64
-0.62
-0.645
-0.68
-0.7
-0.7
-0.69
-0.69
-0.685
-0.7
-0.735
-0.735
-0.705
-0.705
-0.705
-0.725
-0.735
-0.755
-0.73
-0.725
-0.735
-0.745
-0.76
-0.76
-0.76
-0.75
-0.745
-0.76
-0.77
-0.765
-0.755
-0.755
-0.765
-0.76
-0.77
-0.77
-0.775
-0.75
-0.74
-0.755
-0.755
-0.74
-0.72
-0.71
-0.715
-0.71
-0.705
-0.69
-0.67
-0.655
-0.64
-0.64
-0.625
-0.615
-0.585
-0.565
-0.535
-0.535
-0.53
-0.505
-0.475
-0.445
-0.44
-0.44
-0.445
-0.45
-0.415
-0.385
-0.385
-0.37
-0.39
-0.375
-0.35
-0.335
-0.32
-0.335
-0.34
-0.345
-0.325
-0.295
-0.29
-0.295
-0.305
-0.31
-0.275
-0.26
-0.255
-0.265
-0.265
-0.275
-0.27
-0.245
-0.245
-0.25
-0.28
-0.275
-0.27
-0.26
-0.265
-0.255
-0.265
-0.275
-0.25
-0.24
-0.235
-0.255
-0.265
-0.265
-0.25
-0.24
-0.24
-0.245
-0.26
-0.25
-0.255
-0.22
-0.24
-0.245
-0.245
-0.25
-0.24
-0.245
-0.23
-0.24
-0.23
-0.245
-0.245
-0.215
-0.22
-0.235
-0.24
-0.23
-0.215
-0.195
-0.205
-0.215
-0.225
-0.23
-0.215
-0.205
-0.21
-0.225
-0.255
-0.255
-0.215
-0.215
-0.215
-0.23
-0.265
-0.25
-0.235
-0.215
-0.205
-0.225
-0.25
-0.235
-0.235
-0.24
-0.23
-0.235
-0.245
-0.23
-0.23
-0.225
-0.225
-0.225
-0.24
-0.25
-0.235
-0.225
-0.23
-0.245
-0.25
-0.24
-0.23
-0.21
-0.22
-0.225
-0.255
-0.25
-0.255
-0.215
-0.23
-0.23
-0.245
-0.225
-0.22
-0.205
-0.205
-0.225
-0.23
-0.23
-0.215
-0.2
-0.2
-0.225
-0.23
-0.235
-0.23
-0.215
-0.215
-0.225
-0.235
-0.245
-0.21
-0.205
-0.215
-0.225
-0.24
-0.24
-0.245
-0.23
-0.22
-0.235
