Lead II
0.91
0.91
0.925
0.935
0.935
0.93
0.9
0.895
0.905
0.92
0.91
0.91
0.905
0.925
0.945
0.95
0.92
0.9
0.89
0.89
0.9
0.92
0.925
0.9
0.895
0.895
0.91
0.935
0.92
0.895
0.89
0.88
0.9
0.905
0.91
0.9
0.895
0.885
0.885
0.895
0.89
0.875
0.875
0.875
0.885
0.905
0.9
0.88
0.88
0.87
0.87
0.88
0.875
0.86
0.84
0.84
0.845
0.88
0.88
0.85
0.835
0.84
0.85
0.855
0.845
0.82
0.8
0.82
0.835
0.835
0.835
0.825
0.82
0.825
0.835
0.845
0.845
0.83
0.82
0.8
0.81
0.845
0.835
0.83
0.815
0.825
0.85
0.86
0.86
0.84
0.845
0.835
0.845
0.865
0.875
0.88
0.88
0.9
0.915
0.93
0.93
0.92
0.91
0.91
0.93
0.92
0.9
0.89
0.89
0.915
0.925
0.935
0.935
0.92
0.91
0.89
0.9
0.9
0.875
0.86
0.85
0.84
0.85
0.85
0.84
0.82
0.775
0.78
0.785
0.775
0.765
0.75
0.72
0.745
0.755
0.77
0.765
0.74
0.725
0.73
0.74
0.77
0.76
0.745
0.73
0.73
0.75
0.78
0.77
0.755
0.735
0.725
0.75
0.765
0.765
0.765
0.765
0.775
0.79
0.825
0.85
0.865
0.88
0.915
0.975
1.085
1.205
1.295
1.39
1.515
1.67
1.78
1.89
1.98
2.085
2.175
2.2
2.115
1.93
1.72
1.46
1.265
1.09
0.955
0.83
0.74
0.705
0.705
0.72
0.755
0.74
0.715
0.67
0.665
0.67
0.675
0.67
0.645
0.64
0.605
0.63
0.65
0.645
0.63
0.635
0.64
0.645
0.67
0.675
0.675
0.645
0.645
0.665
0.68
0.685
0.675
0.655
0.64
0.64
0.64
0.65
0.635
0.63
0.62
0.64
0.655
0.66
0.655
0.655
0.645
0.66
0.675
0.68
0.67
0.665
0.655
0.665
0.68
0.675
0.65
0.65
0.655
0.67
0.7
0.7
0.695
0.695
0.705
0.715
0.745
0.745
0.725
0.725
0.74
0.765
0.79
0.81
0.82
0.83
0.845
0.86
0.88
0.865
0.865
0.88
0.88
0.905
0.91
0.9
0.895
0.89
0.885
0.895
0.9
0.895
0.88
0.865
0.855
0.855
0.855
0.835
0.82
0.78
0.765
0.76
0.75
0.725
0.69
0.675
0.67
0.665
0.665
0.65
0.625
0.575
0.59
0.6
0.615
0.585
0.545
0.53
0.535
0.54
0.535
0.52
0.51
0.515
0.515
0.495
0.525
0.495
0.47
0.47
0.465
0.485
0.485
0.48
0.47
0.47
0.485
0.49
0.5
0.495
0.495
0.485
0.485
0.47
0.49
0.48
0.45
0.455
0.45
0.465
0.475
0.465
0.455
0.435
0.445
0.48
0.495
0.495
0.465
0.455
0.465
0.47
0.48
0.47
0.445
0.42
0.425
0.445
0.45
0.45
0.435
0.43
0.42
0.435
0.435
0.435
0.43
0.415
0.41
0.44
0.45
0.43
0.41
0.4
0.4
0.41
0.425
0.425
0.415
0.4
0.395
0.405
0.42
0.415
0.395
0.38
0.39
0.39
0.395
0.39
0.385
0.375
0.37
0.385
0.41
0.39
0.385
0.375
0.375
0.375
0.39
0.37
0.35
0.345
0.34
0.37
0.395
0.38
0.36
0.345
0.335
0.355
0.375
0.365
0.365
0.34
0.335
0.365
0.375
0.37
0.34
0.34
0.36
0.365
0.39
0.36
0.355
0.34
0.345
0.36
0.385
0.38
0.36
0.37
0.385
0.39
0.39
0.39
0.4
0.39
0.385
0.415
0.425
0.405
0.42
0.425
0.43
0.45
0.435
0.37
0.355
0.355
0.395
0.405
0.39
0.355
0.305
0.29
0.3
0.315
0.345
0.355
0.345
0.345
0.35
0.35
0.355
0.335
0.34
0.33
0.33
0.355
0.355
0.33
0.31
0.285
0.3
0.31
0.33
0.335
0.34
0.34
0.345
0.345
0.37
0.385
0.395
0.375
0.35
0.355
0.365
0.375
0.38
0.37
0.375
0.395
0.39
0.37
0.365
0.35
0.355
0.37
0.395
0.37
0.36
0.33
0.31
0.32
0.34
0.325
0.295
0.255
0.225
0.245
0.29
0.29
0.285
0.27
0.27
0.265
0.255
0.235
0.225
0.215
0.195
0.19
0.205
0.2
0.2
0.22
0.23
0.25
0.28
0.285
0.29
0.28
0.275
0.315
0.345
0.34
0.335
0.31
0.295
0.31
0.355
0.395
0.42
0.43
0.455
0.495
0.565
0.635
0.705
0.76
0.835
0.96
1.08
1.195
1.275
1.35
1.45
1.545
1.57
1.485
1.38
1.195
1.015
0.85
0.72
0.595
0.475
0.385
0.32
0.29
0.27
0.275
0.28
0.27
0.27
0.265
0.275
0.25
0.245
0.24
0.245
0.255
0.26
0.24
0.22
0.195
0.205
0.21
0.23
0.24
0.25
0.24
0.235
0.24
0.23
0.22
0.22
0.23
0.25
0.275
0.285
0.27
0.28
0.27
0.26
0.265
0.28
0.27
0.265
0.28
0.285
0.315
0.32
0.32
0.315
0.31
0.335
0.355
0.36
0.35
0.345
0.36
0.375
0.39
0.425
0.425
0.43
0.42
0.43
0.46
0.475
0.515
0.525
0.535
0.555
0.58
0.575
0.565
0.58
0.6
0.635
0.635
0.655
0.63
0.6
0.57
0.55
0.56
0.6
0.615
0.62
0.635
0.67
0.69
0.69
0.675
0.64
0.65
0.65
0.665
0.65
0.625
0.6
0.565
0.54
0.52
0.51
0.51
0.495
0.47
0.485
0.495
0.5
0.475
0.415
0.335
0.285
0.295
0.32
0.325
0.3
0.285
0.275
0.285
0.295
0.285
0.275
0.255
0.26
0.27
0.27
0.27
0.26
0.235
0.24
0.26
0.27
0.27
0.25
0.225
0.23
0.245
0.245
0.245
0.265
0.26
0.285
0.305
0.315
0.285
0.225
0.185
0.19
0.22
0.245
0.28
0.3
0.295
0.295
0.29
0.3
0.3
0.28
0.265
0.255
0.275
0.305
0.305
0.3
0.28
0.255
0.25
0.255
0.25
0.255
0.255
0.24
0.26
0.29
0.295
0.28
0.27
0.265
0.29
0.3
0.33
0.325
0.29
0.26
0.225
0.22
0.24
0.29
0.36
0.385
0.395
0.345
0.235
0.17
0.125
0.13
0.175
0.21
0.22
0.205
0.2
0.205
0.21
0.235
0.215
0.215
0.205
0.19
0.21
0.23
0.215
0.2
0.18
0.18
0.19
0.195
0.19
0.18
0.165
0.15
0.135
0.165
0.17
0.16
0.135
0.14
0.16
0.15
0.155
0.16
0.15
0.15
0.165
0.17
0.175
0.17
0.145
0.155
0.155
0.175
0.165
0.155
0.14
0.12
0.145
0.145
0.16
0.175
0.16
0.155
0.155
0.165
0.165
0.165
0.13
0.14
0.145
0.16
0.165
0.165
0.16
0.155
0.18
0.185
0.185
0.185
0.19
0.19
0.2
0.215
0.21
0.225
0.225
0.235
0.215
0.225
0.2
0.195
0.175
0.175
0.195
0.22
0.22
0.235
0.235
0.25
0.265
0.28
0.265
0.265
0.275
0.28
0.31
0.32
0.335
0.345
0.36
0.355
0.39
0.405
0.39
0.375
0.395
0.415
0.425
0.41
0.37
0.325
0.32
0.325
0.335
0.34
0.315
0.285
0.235
0.215
0.215
0.23
0.25
0.23
0.205
0.21
0.225
0.275
0.32
0.375
0.4
0.395
0.395
0.38
0.34
0.265
0.21
0.18
0.175
0.18
0.175
0.17
0.175
0.17
0.195
0.21
0.2
0.195
0.185
0.185
0.185
0.19
0.19
0.195
0.18
0.18
0.215
0.28
0.31
0.325
0.365
0.44
0.545
0.655
0.75
0.865
0.98
1.075
1.18
1.315
1.415
1.5
1.48
1.405
1.275
1.125
0.905
0.7
0.54
0.39
0.295
0.25
0.205
0.185
0.16
0.155
0.16
0.17
0.165
0.16
0.125
0.13
0.12
0.155
0.15
0.145
0.13
0.12
0.135
0.155
0.155
0.145
0.125
0.125
0.15
0.175
0.17
0.145
0.115
0.09
0.1
0.125
0.135
0.12
0.1
0.085
0.11
0.16
0.21
0.23
0.225
0.195
0.15
0.13
0.09
0.06
0.06
0.075
0.095
0.13
0.15
0.14
0.15
0.15
0.155
0.17
0.18
0.175
0.155
0.17
0.18
0.2
0.195
0.19
0.19
0.19
0.21
0.225
0.235
0.24
0.225
0.23
0.235
0.275
0.29
0.29
0.275
0.28
0.285
0.305
0.31
0.33
0.335
0.36
0.38
0.405
0.415
0.4
0.43
0.445
0.46
0.455
0.43
0.39
0.365
0.34
0.34
0.34
0.325
0.3
0.27
0.215
0.18
0.18
0.16
0.12
0.1
0.1
0.11
0.15
0.155
0.175
0.165
0.185
0.215
0.215
0.19
0.155
0.11
0.05
-0.01
-0.05
-0.045
-0.045
-0.035
-0.04
-0.01
-0.005
-0.005
0.0
0.0
-0.01
0.0
0.02
0.025
0.035
0.02
0.005
0.025
0.045
0.035
0.015
0.01
0.015
0.015
0.03
0.025
0.015
0.0
0.0
0.01
0.0
0.015
0.0
-0.035
-0.04
-0.025
0.005
0.0
-0.01
-0.03
-0.035
-0.03
-0.02
-0.015
-0.015
-0.03
-0.05
-0.055
-0.01
-0.025
-0.045
-0.06
-0.065
-0.07
-0.025
-0.035
-0.065
-0.075
-0.075
-0.06
-0.035
-0.035
-0.045
-0.065
-0.06
-0.04
-0.035
-0.04
-0.06
-0.065
-0.05
-0.03
-0.025
-0.04
-0.045
-0.06
-0.045
-0.025
-0.02
-0.035
-0.055
-0.065
-0.06
-0.055
-0.05
-0.055
-0.075
-0.07
-0.045
-0.015
-0.01
-0.005
-0.025
-0.045
-0.065
-0.065
-0.04
-0.05
-0.07
-0.065
-0.055
-0.05
-0.04
-0.04
-0.05
-0.055
-0.055
-0.05
-0.03
-0.035
-0.03
-0.04
-0.02
-0.01
0.01
0.015
-0.005
-0.04
-0.09
-0.11
-0.105
-0.085
-0.06
-0.02
0.01
0.0
-0.04
-0.08
-0.115
-0.13
-0.11
-0.1
-0.1
-0.095
-0.12
-0.11
-0.105
-0.085
-0.075
-0.09
-0.135
-0.14
-0.155
-0.16
-0.14
-0.13
-0.135
-0.14
-0.145
-0.125
-0.09
-0.105
-0.12
-0.13
-0.15
-0.13
-0.095
-0.11
-0.125
-0.145
-0.135
-0.125
-0.105
-0.1
-0.11
-0.135
-0.115
-0.1
-0.09
-0.08
-0.075
-0.09
-0.095
-0.09
-0.055
-0.065
-0.07
-0.075
-0.07
-0.065
-0.055
-0.04
-0.035
-0.065
-0.06
-0.045
-0.045
-0.045
-0.065
-0.08
-0.075
-0.07
-0.065
-0.08
-0.105
-0.12
-0.12
-0.13
-0.11
-0.115
-0.14
-0.15
-0.15
-0.145
-0.135
-0.125
-0.135
-0.145
-0.155
-0.155
-0.18
-0.19
-0.195
-0.19
-0.18
-0.175
-0.18
-0.19
-0.225
-0.21
-0.205
-0.185
-0.15
-0.13
-0.125
-0.15
-0.16
-0.2
-0.215
-0.22
-0.205
-0.225
-0.215
-0.22
-0.21
-0.185
-0.18
-0.16
-0.15
-0.1
-0.055
-0.025
0.025
0.09
0.18
0.29
0.41
0.53
0.63
0.71
0.79
0.91
1.015
1.045
0.975
0.825
0.655
0.48
0.295
0.11
-0.01
-0.13
-0.2
-0.225
-0.235
-0.215
-0.23
-0.27
-0.275
-0.27
-0.265
-0.275
-0.3
-0.315
-0.315
-0.285
-0.255
-0.255
-0.255
-0.25
-0.26
-0.255
-0.25
-0.27
-0.275
-0.305
-0.325
-0.335
-0.325
-0.295
-0.3
-0.32
-0.315
-0.3
-0.275
-0.265
-0.26
-0.265
-0.265
-0.25
-0.23
-0.235
-0.245
-0.25
-0.24
-0.23
-0.19
-0.185
-0.195
-0.205
-0.19
-0.18
-0.14
-0.135
-0.14
-0.15
-0.15
-0.135
-0.115
-0.115
-0.115
-0.12
-0.095
-0.07
-0.025
-0.025
-0.01
-0.02
0.0
0.04
0.085
0.085
0.09
0.085
0.11
0.14
0.185
0.2
0.2
0.2
0.205
0.22
0.255
0.25
0.28
0.295
0.32
0.34
0.33
0.295
0.255
0.21
0.19
0.185
0.175
0.15
0.115
0.085
0.06
0.055
0.055
0.03
-0.005
-0.045
-0.065
-0.07
-0.08
-0.09
-0.115
-0.14
-0.145
-0.145
-0.135
-0.155
-0.175
-0.2
-0.19
-0.195
-0.18
-0.175
-0.21
-0.2
-0.205
-0.195
-0.19
-0.195
-0.21
-0.215
-0.205
-0.19
-0.175
-0.185
-0.2
-0.21
-0.195
-0.19
-0.175
-0.155
-0.165
-0.175
-0.19
-0.175
-0.155
-0.13
-0.135
-0.135
-0.13
-0.08
-0.035
0.0
0.045
0.085
0.15
0.235
0.315
0.38
0.445
0.515
0.615
0.715
0.775
0.805
0.795
0.76
0.71
0.665
0.62
0.57
0.515
0.465
0.44
0.455
0.475
0.465
0.47
0.46
0.455
0.425
0.385
0.3
0.225
0.17
0.14
0.08
-0.015
-0.18
-0.33
-0.46
-0.495
-0.42
-0.34
-0.275
-0.275
-0.3
-0.32
-0.35
-0.36
-0.38
-0.415
-0.45
-0.475
-0.465
-0.46
-0.445
-0.45
-0.445
-0.425
-0.375
-0.315
-0.285
-0.31
-0.335
-0.355
-0.33
-0.3
-0.295
-0.305
-0.32
-0.305
-0.275
-0.25
-0.25
-0.235
-0.24
-0.22
-0.18
-0.15
-0.15
-0.135
-0.145
-0.14
-0.12
-0.075
-0.075
-0.065
-0.07
-0.08
-0.05
-0.015
-0.01
-0.005
-0.005
-0.01
0.02
0.025
0.03
0.035
0.04
0.055
0.09
0.11
0.11
0.1
0.095
0.1
0.135
0.14
0.135
0.135
0.14
0.165
0.175
0.18
0.13
0.11
0.115
0.11
0.13
0.115
0.085
0.06
0.04
0.055
0.07
0.085
0.075
0.05
0.025
0.0
-0.005
0.0
-0.025
-0.06
-0.095
-0.12
-0.11
-0.11
-0.12
-0.155
-0.2
-0.22
-0.205
-0.205
-0.215
-0.245
-0.265
-0.28
-0.27
-0.265
-0.28
-0.295
-0.31
-0.32
-0.31
-0.3
-0.32
-0.34
-0.345
-0.345
-0.345
-0.345
-0.34
-0.345
-0.355
-0.355
-0.35
-0.34
-0.345
-0.37
-0.365
-0.375
-0.355
-0.34
-0.34
-0.355
-0.355
-0.35
-0.36
-0.335
-0.345
-0.335
-0.345
-0.35
-0.37
-0.36
-0.375
-0.385
-0.405
-0.4
-0.405
-0.4
-0.4
-0.41
-0.405
-0.41
-0.405
-0.375
-0.38
-0.385
-0.395
-0.4
-0.37
-0.365
-0.355
-0.365
-0.39
-0.395
-0.375
-0.37
-0.38
-0.38
-0.395
-0.41
-0.425
-0.41
-0.395
-0.405
-0.41
-0.42
-0.43
-0.425
-0.445
-0.45
-0.465
-0.465
-0.445
-0.445
-0.45
-0.465
-0.485
-0.48
-0.48
-0.46
-0.465
-0.495
-0.5
-0.5
-0.505
-0.5
-0.515
-0.53
-0.54
-0.54
-0.525
-0.51
-0.52
-0.5
-0.515
-0.5
-0.48
-0.45
-0.445
-0.43
-0.45
-0.465
-0.455
-0.455
-0.445
-0.45
-0.475
-0.485
-0.475
-0.445
-0.44
-0.435
-0.465
-0.475
-0.46
-0.445
-0.45
-0.45
-0.48
-0.49
-0.48
-0.475
-0.435
-0.445
-0.445
-0.455
-0.445
-0.415
-0.41
-0.41
-0.43
-0.43
-0.405
-0.41
-0.425
-0.43
-0.435
-0.445
-0.44
-0.44
-0.415
-0.43
-0.45
-0.44
-0.435
-0.42
-0.4
-0.425
-0.445
-0.44
-0.425
-0.415
-0.41
-0.415
-0.455
-0.44
-0.425
-0.405
-0.415
-0.415
-0.425
-0.42
-0.395
-0.375
-0.37
-0.38
-0.405
-0.395
-0.375
-0.355
-0.33
-0.33
-0.345
-0.325
-0.315
-0.305
-0.315
-0.33
-0.345
-0.35
-0.335
-0.315
-0.33
-0.345
-0.365
-0.345
-0.325
-0.31
-0.32
-0.32
-0.34
-0.335
-0.305
-0.305
-0.32
-0.335
-0.355
-0.355
-0.325
-0.31
-0.33
-0.315
-0.315
-0.305
-0.305
-0.285
-0.3
-0.33
-0.355
-0.335
-0.33
-0.32
-0.31
-0.34
-0.345
-0.345
-0.34
-0.325
-0.31
-0.335
-0.345
-0.345
-0.32
-0.32
-0.33
-0.335
-0.335
-0.32
-0.29
-0.275
-0.275
-0.28
-0.29
-0.29
-0.3
-0.26
-0.245
-0.23
-0.23
-0.235
-0.26
-0.27
-0.305
-0.33
-0.355
-0.35
-0.34
-0.325
-0.32
-0.33
-0.35
-0.38
-0.37
-0.37
-0.36
-0.375
-0.395
-0.41
-0.415
-0.405
-0.395
-0.4
-0.4
-0.395
-0.395
-0.36
-0.36
-0.37
-0.39
-0.395
-0.39
-0.37
-0.36
-0.365
-0.375
-0.385
-0.34
-0.295
-0.26
-0.25
-0.24
-0.195
-0.12
-0.025
0.065
0.18
0.275
0.405
0.5
0.575
0.65
0.73
0.8
0.845
0.825
0.735
0.56
0.34
0.145
-0.025
-0.14
-0.205
-0.27
-0.32
-0.32
-0.325
-0.315
-0.34
-0.36
-0.385
-0.385
-0.4
-0.4
-0.395
-0.4
-0.425
-0.42
-0.425
-0.435
-0.43
-0.45
-0.44
-0.43
-0.45
-0.45
-0.445
-0.445
-0.44
-0.435
-0.43
-0.445
-0.435
-0.43
-0.425
-0.41
-0.405
-0.4
-0.39
-0.39
-0.405
-0.415
-0.415
-0.4
-0.365
-0.38
-0.385
-0.395
-0.39
-0.375
-0.345
-0.34
-0.335
-0.34
-0.355
-0.34
-0.32
-0.325
-0.325
-0.32
-0.3
-0.29
-0.255
-0.245
-0.245
-0.24
-0.25
-0.24
-0.2
-0.185
-0.19
-0.18
-0.17
-0.145
-0.1
-0.09
-0.08
-0.085
-0.09
-0.07
-0.05
-0.03
-0.045
-0.05
-0.03
-0.01
0.02
0.025
0.02
0.015
0.0
0.015
0.015
0.015
-0.005
-0.03
-0.045
-0.05
-0.055
-0.075
-0.085
-0.135
-0.13
-0.15
-0.155
-0.165
-0.18
-0.205
-0.205
-0.2
-0.195
-0.2
-0.22
-0.24
-0.255
-0.235
-0.235
-0.225
-0.25
-0.275
-0.27
-0.25
-0.245
-0.24
-0.25
-0.255
-0.26
-0.24
-0.215
-0.22
-0.23
-0.24
-0.235
-0.22
-0.21
-0.215
-0.225
-0.23
-0.24
-0.215
-0.195
-0.21
-0.205
-0.22
-0.21
-0.2
-0.175
-0.19
-0.215
-0.23
-0.225
-0.21
-0.195
-0.19
-0.19
-0.195
-0.21
-0.21
-0.205
-0.2
-0.205
-0.21
-0.225
-0.21
-0.195
-0.19
-0.195
-0.215
-0.22
-0.21
-0.215
-0.23
-0.235
-0.255
-0.265
-0.245
-0.24
-0.25
-0.275
-0.305
-0.29
-0.285
-0.29
-0.28
-0.305
-0.315
-0.33
-0.33
-0.315
-0.325
-0.33
-0.35
-0.345
-0.345
-0.33
-0.33
-0.345
-0.36
-0.36
-0.35
-0.35
-0.34
-0.35
-0.34
-0.35
-0.335
-0.345
-0.35
-0.355
-0.365
-0.37
-0.355
-0.355
-0.35
-0.355
-0.375
-0.36
-0.355
-0.345
-0.36
-0.355
-0.375
-0.365
-0.365
-0.37
-0.37
-0.375
-0.385
-0.39
-0.36
-0.335
-0.35
-0.35
-0.37
-0.375
-0.355
-0.355
-0.355
-0.37
-0.375
-0.38
-0.36
-0.345
-0.335
-0.37
-0.38
-0.385
-0.36
-0.36
-0.36
-0.385
-0.395
-0.4
-0.38
-0.385
-0.38
-0.375
-0.38
-0.385
-0.365
-0.365
-0.355
-0.365
-0.375
-0.36
-0.36
-0.34
-0.345
-0.345
-0.36
-0.36
-0.36
-0.35
-0.345
-0.365
-0.375
-0.38
-0.37
-0.35
-0.36
-0.35
-0.36
-0.355
-0.35
-0.335
-0.325
-0.335
-0.34
-0.345
-0.33
-0.32
-0.31
-0.325
-0.335
-0.33
-0.325
-0.315
-0.295
-0.285
-0.29
-0.285
-0.28
-0.285
-0.29
-0.285
-0.29
-0.305
-0.295
-0.3
-0.31
-0.33
-0.35
-0.335
-0.33
-0.33
-0.33
-0.34
-0.36
-0.38
-0.375
-0.36
-0.37
-0.385
-0.4
-0.4
-0.385
-0.38
-0.4
-0.415
-0.43
-0.425
-0.42
-0.39
-0.395
-0.42
-0.42
-0.405
-0.385
-0.385
-0.4
-0.405
-0.43
-0.44
-0.43
-0.41
-0.42
-0.445
-0.425
-0.425
-0.395
-0.375
-0.36
-0.345
-0.33
-0.275
-0.24
-0.185
-0.155
-0.09
-0.005
0.095
0.2
0.315
0.435
0.54
0.64
0.75
0.87
0.965
0.945
0.86
0.68
0.47
0.265
0.095
-0.065
-0.21
-0.305
-0.34
-0.33
-0.315
-0.32
-0.35
-0.38
-0.37
-0.385
-0.355
-0.37
-0.39
-0.405
-0.42
-0.4
-0.42
-0.425
-0.425
-0.435
-0.445
-0.435
-0.42
-0.435
-0.425
-0.45
-0.455
-0.44
-0.42
-0.425
-0.44
-0.45
-0.455
-0.445
-0.43
-0.435
-0.44
-0.45
-0.455
-0.45
-0.43
-0.44
-0.445
-0.425
-0.41
-0.405
-0.4
-0.39
-0.4
-0.405
-0.39
-0.37
-0.36
-0.355
-0.37
-0.37
-0.36
-0.35
-0.325
-0.32
-0.33
-0.325
-0.315
-0.28
-0.255
-0.27
-0.275
-0.28
-0.25
-0.215
-0.185
-0.195
-0.2
-0.175
-0.17
-0.13
-0.105
-0.095
-0.075
-0.07
-0.04
0.005
0.02
0.03
0.03
0.035
0.07
0.1
0.13
0.14
0.12
0.095
0.06
0.035
0.01
0.005
-0.015
-0.05
-0.08
-0.085
-0.065
-0.065
-0.09
-0.145
-0.155
-0.165
-0.195
-0.22
-0.245
-0.29
-0.305
-0.3
-0.3
-0.315
-0.325
-0.345
-0.335
-0.33
-0.33
-0.33
-0.345
-0.375
-0.38
-0.39
-0.4
-0.425
-0.44
-0.465
-0.455
-0.445
-0.435
-0.42
-0.435
-0.445
-0.465
-0.45
-0.435
-0.445
-0.47
-0.475
-0.46
-0.44
-0.43
-0.45
-0.445
-0.445
-0.445
-0.41
-0.41
-0.42
-0.43
-0.44
-0.415
-0.395
-0.36
-0.35
-0.31
-0.27
-0.195
-0.1
0.005
0.09
0.2
0.275
0.395
0.535
0.635
0.7
0.71
0.695
0.65
0.57
0.45
0.28
0.07
-0.08
-0.17
-0.21
-0.265
-0.32
-0.39
-0.425
-0.45
-0.45
-0.47
-0.485
-0.495
-0.515
-0.535
-0.535
-0.525
-0.535
-0.57
-0.6
-0.57
-0.58
-0.555
-0.54
-0.54
-0.55
-0.55
-0.545
-0.525
-0.53
-0.545
-0.565
-0.55
-0.535
-0.51
-0.51
-0.51
-0.525
-0.52
-0.505
-0.49
-0.465
-0.485
-0.475
-0.5
-0.505
-0.5
-0.5
-0.505
-0.495
-0.465
-0.445
-0.42
-0.425
-0.435
-0.425
-0.4
-0.34
-0.3
-0.305
-0.335
-0.39
-0.42
-0.4
-0.395
-0.405
-0.415
-0.39
-0.38
-0.355
-0.32
-0.33
-0.34
-0.345
-0.33
-0.31
-0.285
-0.285
-0.3
-0.31
-0.3
-0.285
-0.245
-0.245
-0.25
-0.25
-0.245
-0.23
-0.225
-0.225
-0.26
-0.29
-0.285
-0.275
-0.285
-0.285
-0.32
-0.355
-0.365
-0.36
-0.36
-0.36
-0.39
-0.42
-0.425
-0.43
-0.425
-0.435
-0.44
-0.465
-0.475
-0.475
-0.46
-0.455
-0.47
-0.495
-0.515
-0.505
-0.5
-0.485
-0.495
-0.52
-0.525
-0.51
-0.485
-0.485
-0.49
-0.505
-0.51
-0.48
-0.45
-0.445
-0.455
-0.47
-0.46
-0.46
-0.475
-0.525
-0.53
-0.54
-0.545
-0.525
-0.5
-0.505
-0.52
-0.535
-0.545
-0.53
-0.525
-0.545
-0.55
-0.555
-0.545
-0.54
-0.535
-0.53
-0.535
-0.56
-0.565
-0.53
-0.51
-0.505
-0.525
-0.555
-0.55
-0.535
-0.52
-0.535
-0.55
-0.555
-0.54
-0.525
-0.505
-0.495
-0.5
-0.525
-0.54
-0.53
-0.515
-0.5
-0.51
-0.55
-0.545
-0.545
-0.535
-0.54
-0.54
-0.57
-0.555
-0.55
-0.535
-0.52
-0.52
-0.555
-0.54
-0.525
-0.515
-0.505
-0.52
-0.53
-0.515
-0.51
-0.5
-0.52
-0.535
-0.53
-0.515
-0.5
-0.48
-0.49
-0.51
-0.51
-0.515
-0.51
-0.5
-0.505
-0.515
-0.515
-0.485
-0.455
-0.44
-0.455
-0.465
-0.47
-0.49
-0.485
-0.475
-0.465
-0.48
-0.495
-0.47
-0.46
-0.44
-0.435
-0.455
-0.465
-0.445
-0.44
-0.43
-0.435
-0.425
-0.445
-0.44
-0.43
-0.405
-0.41
-0.405
-0.41
-0.42
-0.415
-0.405
-0.395
-0.395
-0.415
-0.41
-0.385
-0.35
-0.375
-0.4
-0.42
-0.405
-0.39
-0.38
-0.375
-0.385
-0.4
-0.39
-0.375
-0.37
-0.36
-0.38
-0.41
-0.4
-0.385
-0.365
-0.38
-0.405
-0.425
-0.43
-0.405
-0.385
-0.375
-0.37
-0.4
-0.4
-0.385
-0.375
-0.38
-0.39
-0.395
-0.39
-0.38
-0.36
-0.365
-0.375
-0.41
-0.425
-0.44
-0.425
-0.405
-0.41
-0.42
-0.425
-0.42
-0.385
-0.395
-0.41
-0.44
-0.44
-0.425
-0.425
-0.405
-0.385
-0.4
-0.415
-0.415
-0.42
-0.41
-0.415
-0.44
-0.43
-0.42
-0.405
-0.42
-0.42
-0.435
-0.43
-0.425
-0.4
-0.385
-0.4
-0.395
-0.395
-0.39
-0.385
-0.38
-0.4
-0.405
-0.41
-0.405
-0.4
-0.39
-0.395
-0.405
-0.405
-0.41
-0.395
-0.4
-0.395
-0.385
-0.395
-0.385
-0.39
-0.39
-0.395
-0.41
-0.405
-0.385
-0.39
-0.395
-0.4
-0.4
-0.385
-0.38
-0.375
-0.39
-0.41
-0.41
-0.425
-0.43
-0.42
-0.43
-0.42
-0.425
-0.425
-0.41
-0.415
-0.4
-0.415
-0.405
-0.395
-0.38
-0.365
-0.36
-0.355
-0.36
-0.35
-0.35
-0.335
-0.355
-0.36
-0.365
-0.365
-0.34
-0.335
-0.335
-0.345
-0.35
-0.335
-0.35
-0.34
-0.36
-0.375
-0.405
-0.4
-0.38
-0.355
-0.355
-0.385
-0.41
-0.415
-0.4
-0.395
-0.395
-0.435
-0.455
-0.45
-0.425
-0.39
-0.395
-0.415
-0.44
-0.44
-0.39
-0.34
-0.335
-0.38
-0.435
-0.48
-0.465
-0.43
-0.43
-0.45
-0.46
-0.45
-0.43
-0.41
-0.4
-0.43
-0.475
-0.48
-0.465
-0.415
-0.375
-0.355
-0.335
-0.315
-0.275
-0.215
-0.16
-0.07
0.005
0.1
0.225
0.355
0.465
0.545
0.625
0.72
0.83
0.89
0.865
0.765
0.605
0.425
0.25
0.085
-0.065
-0.2
-0.325
-0.375
-0.4
-0.4
-0.4
-0.405
-0.42
-0.44
-0.44
-0.425
-0.425
-0.425
-0.455
-0.475
-0.455
-0.44
-0.415
-0.41
-0.42
-0.445
-0.475
-0.47
-0.485
-0.465
-0.475
-0.46
-0.45
-0.44
-0.465
-0.47
-0.475
-0.46
-0.45
-0.44
-0.425
-0.445
-0.43
-0.425
-0.395
-0.375
-0.38
-0.385
-0.405
-0.425
-0.43
-0.425
-0.42
-0.4
-0.42
-0.4
-0.385
-0.36
-0.385
-0.395
-0.4
-0.385
-0.355
-0.34
-0.345
-0.35
-0.37
-0.365
-0.32
-0.295
-0.3
-0.31
-0.33
-0.305
-0.27
-0.26
-0.255
-0.26
-0.25
-0.24
-0.23
-0.215
-0.225
-0.235
-0.235
-0.195
-0.175
-0.14
-0.145
-0.165
-0.17
-0.185
-0.145
-0.11
-0.075
-0.095
-0.105
-0.12
-0.085
-0.045
-0.035
-0.045
-0.06
-0.06
-0.045
-0.01
-0.045
-0.07
-0.1
-0.125
-0.12
-0.105
-0.105
-0.125
-0.14
-0.17
-0.195
-0.2
-0.23
-0.25
-0.26
-0.265
-0.255
-0.25
-0.255
-0.275
-0.315
-0.325
-0.33
-0.305
-0.31
-0.325
-0.34
-0.345
-0.335
-0.31
-0.31
-0.34
-0.375
-0.395
-0.375
-0.345
-0.35
-0.34
-0.36
-0.36
-0.355
-0.34
-0.335
-0.325
-0.35
-0.37
-0.355
-0.305
-0.265
-0.27
-0.305
-0.34
-0.355
-0.34
-0.325
-0.325
-0.315
-0.315
-0.295
-0.265
-0.265
-0.27
-0.305
-0.34
-0.33
-0.32
-0.3
-0.29
-0.285
-0.275
-0.27
-0.28
-0.285
-0.305
-0.31
-0.305
-0.31
-0.285
-0.29
-0.29
-0.295
-0.285
-0.295
-0.3
-0.275
-0.265
-0.265
-0.295
-0.315
-0.34
-0.315
-0.295
-0.3
-0.285
-0.285
-0.295
-0.29
-0.29
-0.305
-0.31
-0.325
-0.315
-0.3
-0.28
-0.285
-0.27
-0.27
-0.295
-0.31
-0.305
-0.325
-0.32
-0.305
-0.29
-0.265
-0.255
-0.26
-0.275
-0.29
-0.3
-0.305
-0.31
-0.325
-0.335
-0.34
-0.325
-0.3
-0.305
-0.3
-0.31
-0.315
-0.295
-0.28
-0.27
-0.265
-0.275
-0.26
-0.245
-0.24
-0.245
-0.27
-0.28
-0.28
-0.27
-0.24
-0.23
-0.24
-0.25
-0.28
-0.31
-0.31
-0.285
-0.285
-0.29
-0.31
-0.295
-0.285
-0.27
-0.295
-0.3
-0.29
-0.285
-0.28
-0.265
-0.265
-0.275
-0.285
-0.275
-0.265
-0.255
-0.275
-0.28
-0.3
-0.285
-0.27
-0.265
-0.295
-0.285
-0.295
-0.28
-0.275
-0.27
-0.285
-0.3
-0.305
-0.285
-0.265
-0.255
-0.26
-0.25
-0.25
-0.24
-0.22
-0.205
-0.205
-0.195
-0.195
-0.2
-0.17
-0.17
-0.17
-0.205
-0.205
-0.215
-0.2
-0.19
-0.18
-0.205
-0.21
-0.2
-0.21
-0.195
-0.22
-0.225
-0.225
-0.21
-0.205
-0.205
-0.225
-0.235
-0.255
-0.26
-0.26
-0.24
-0.26
-0.275
-0.285
-0.255
-0.255
-0.245
-0.26
-0.265
-0.28
-0.265
-0.25
-0.235
-0.26
-0.28
-0.285
-0.27
-0.23
-0.225
-0.245
-0.26
-0.27
-0.25
-0.22
-0.22
-0.245
-0.255
-0.235
-0.21
-0.15
-0.105
-0.105
-0.09
-0.025
0.08
0.21
0.34
0.445
0.57
0.67
0.77
0.89
1.005
1.09
1.11
1.025
0.915
0.71
0.465
0.22
0.015
-0.13
-0.205
-0.25
-0.27
-0.29
-0.31
-0.3
-0.265
-0.26
-0.28
-0.335
-0.365
-0.365
-0.335
-0.31
-0.345
-0.365
-0.38
-0.365
-0.325
-0.31
-0.33
-0.39
-0.415
-0.395
-0.355
-0.34
-0.375
-0.415
-0.42
-0.39
-0.345
-0.33
-0.35
-0.38
-0.39
-0.365
-0.34
-0.325
-0.34
-0.37
-0.385
-0.355
-0.315
-0.295
-0.3
-0.345
-0.36
-0.35
-0.315
-0.285
-0.29
-0.33
-0.335
-0.29
-0.265
-0.265
-0.26
-0.28
-0.29
-0.265
-0.215
-0.195
-0.195
-0.22
-0.235
-0.23
-0.19
-0.145
-0.16
-0.18
-0.2
-0.16
-0.105
-0.075
-0.075
-0.115
-0.11
-0.075
-0.02
0.005
-0.005
-0.03
-0.035
0.015
0.075
0.105
0.09
0.06
0.035
0.05
0.075
0.065
0.035
-0.02
-0.055
-0.055
-0.04
-0.04
-0.09
-0.155
-0.2
-0.2
-0.19
-0.185
-0.205
-0.245
-0.295
-0.305
-0.29
-0.275
-0.295
-0.34
-0.375
-0.39
-0.35
-0.34
-0.345
-0.385
-0.415
-0.405
-0.385
-0.355
-0.36
-0.405
-0.435
-0.4
-0.35
-0.32
-0.335
-0.385
-0.425
-0.425
-0.41
-0.39
-0.405
-0.435
-0.44
-0.43
-0.39
-0.365
-0.375
-0.415
-0.435
-0.43
-0.38
-0.345
-0.36
-0.395
-0.395
-0.365
-0.285
-0.23
-0.215
-0.18
-0.105
0.055
0.24
0.36
0.46
0.54
0.685
0.835
0.97
1.04
1.0
0.885
0.7
0.495
0.28
0.065
-0.13
-0.245
-0.315
-0.34
-0.325
-0.315
-0.34
-0.37
-0.37
-0.36
-0.33
-0.355
-0.405
-0.445
-0.445
-0.415
-0.4
-0.445
-0.49
-0.52
-0.495
-0.45
-0.42
-0.43
-0.47
-0.49
-0.47
-0.44
-0.43
-0.455
-0.47
-0.45
-0.415
-0.385
-0.395
-0.43
-0.465
-0.47
-0.46
-0.425
-0.415
-0.43
-0.46
-0.44
-0.405
-0.375
-0.39
-0.405
-0.4
-0.37
-0.355
-0.34
-0.32
-0.32
-0.31
-0.31
-0.305
-0.315
-0.33
-0.33
-0.28
-0.23
-0.2
-0.195
-0.2
-0.195
-0.19
-0.185
-0.175
-0.18
-0.16
-0.12
-0.11
-0.075
-0.075
-0.09
-0.1
-0.08
-0.075
-0.08
-0.07
-0.09
-0.075
-0.08
-0.09
-0.11
-0.125
-0.135
-0.135
-0.145
-0.15
-0.2
-0.26
-0.315
-0.34
-0.32
-0.3
-0.31
-0.34
-0.345
-0.36
-0.345
-0.365
-0.385
-0.41
-0.405
-0.375
-0.375
-0.385
-0.41
-0.43
-0.42
-0.38
-0.36
-0.365
