Lead II
-0.43
-0.42
-0.415
-0.42
-0.425
-0.42
-0.41
-0.4
-0.415
-0.42
-0.45
-0.425
-0.43
-0.42
-0.425
-0.415
-0.42
-0.415
-0.405
-0.4
-0.4
-0.405
-0.405
-0.385
-0.36
-0.335
-0.315
-0.3
-0.28
-0.255
-0.205
-0.14
-0.085
-0.02
0.055
0.13
0.235
0.335
0.43
0.51
0.575
0.685
0.815
0.93
1.025
1.12
1.2
1.28
1.325
1.33
1.275
1.205
1.14
1.1
1.065
1.035
0.995
0.935
0.91
0.89
0.885
0.92
0.94
0.935
0.87
0.765
0.6
0.395
0.165
-0.055
-0.25
-0.36
-0.475
-0.5
-0.565
-0.63
-0.66
-0.67
-0.715
-0.735
-0.74
-0.76
-0.795
-0.82
-0.81
-0.8
-0.82
-0.83
-0.845
-0.85
-0.86
-0.855
-0.87
-0.885
-0.905
-0.915
-0.92
-0.92
-0.935
-0.925
-0.955
-0.97
-0.975
-0.97
-0.98
-1.005
-1.045
-1.045
-1.045
-1.03
-1.015
-1.045
-1.06
-1.075
-1.04
-1.025
-1.005
-1.025
-1.025
-1.015
-0.98
-0.96
-0.935
-0.93
-0.915
-0.89
-0.845
-0.815
-0.78
-0.765
-0.745
-0.715
-0.68
-0.63
-0.61
-0.595
-0.58
-0.565
-0.55
-0.525
-0.51
-0.51
-0.505
-0.505
-0.5
-0.47
-0.47
-0.48
-0.505
-0.505
-0.495
-0.48
-0.48
-0.5
-0.485
-0.505
-0.475
-0.465
-0.46
-0.47
-0.49
-0.48
-0.455
-0.44
-0.44
-0.45
-0.47
-0.465
-0.445
-0.425
-0.44
-0.44
-0.455
-0.455
-0.44
-0.42
-0.43
-0.44
-0.44
-0.44
-0.425
-0.415
-0.415
-0.43
-0.435
-0.435
-0.425
-0.415
-0.42
-0.425
-0.42
-0.425
-0.4
-0.38
-0.38
-0.38
-0.385
-0.385
-0.38
-0.365
-0.38
-0.385
-0.4
-0.39
-0.39
-0.37
-0.38
-0.37
-0.385
-0.39
-0.37
-0.355
-0.36
-0.36
-0.375
-0.37
-0.365
-0.35
-0.36
-0.36
-0.37
-0.385
-0.375
-0.345
-0.33
-0.35
-0.36
-0.365
-0.355
-0.34
-0.34
-0.365
-0.37
-0.365
-0.36
-0.36
-0.35
-0.375
-0.375
-0.37
-0.345
-0.34
-0.335
-0.34
-0.365
-0.355
-0.345
-0.32
-0.33
-0.34
-0.36
-0.365
-0.34
-0.34
-0.32
-0.335
-0.35
-0.35
-0.34
-0.315
-0.31
-0.32
-0.34
-0.345
-0.325
-0.305
-0.3
-0.33
-0.345
-0.34
-0.32
-0.3
-0.3
-0.31
-0.315
-0.31
-0.305
-0.26
-0.235
-0.24
-0.255
-0.25
-0.23
-0.195
-0.19
-0.175
-0.18
-0.17
-0.15
-0.135
-0.14
-0.155
-0.18
-0.18
-0.18
-0.175
-0.19
-0.215
-0.25
-0.255
-0.26
-0.26
-0.27
-0.285
-0.295
-0.31
-0.31
-0.295
-0.3
-0.31
-0.315
-0.32
-0.315
-0.305
-0.295
-0.295
-0.32
-0.33
-0.3
-0.285
-0.285
-0.285
-0.3
-0.305
-0.29
-0.285
-0.305
-0.315
-0.29
-0.215
-0.075
0.115
0.355
0.63
0.96
1.27
1.53
1.59
1.355
0.965
0.54
0.175
-0.075
-0.205
-0.255
-0.26
-0.295
-0.31
-0.285
-0.245
-0.245
-0.28
-0.31
-0.31
-0.305
-0.285
-0.29
-0.31
-0.325
-0.31
-0.295
-0.275
-0.27
-0.29
-0.305
-0.305
-0.295
-0.28
-0.265
-0.28
-0.285
-0.285
-0.28
-0.265
-0.26
-0.265
-0.275
-0.275
-0.24
-0.23
-0.23
-0.23
-0.24
-0.23
-0.215
-0.185
-0.185
-0.175
-0.19
-0.19
-0.165
-0.14
-0.135
-0.14
-0.14
-0.13
-0.105
-0.08
-0.08
-0.065
-0.06
-0.06
-0.03
0.0
0.025
0.02
0.04
0.045
0.085
0.11
0.135
0.12
0.12
0.135
0.155
0.18
0.18
0.19
0.185
0.195
0.215
0.22
0.225
0.205
0.18
0.17
0.165
0.17
0.16
0.14
0.105
0.085
0.065
0.065
0.035
0.005
-0.015
-0.045
-0.06
-0.06
-0.08
-0.11
-0.14
-0.15
-0.145
-0.145
-0.155
-0.175
-0.21
-0.195
-0.195
-0.175
-0.18
-0.195
-0.215
-0.22
-0.2
-0.185
-0.175
-0.195
-0.22
-0.22
-0.2
-0.19
-0.185
-0.21
-0.205
-0.205
-0.2
-0.185
-0.185
-0.185
-0.2
-0.205
-0.2
-0.19
-0.19
-0.2
-0.21
-0.21
-0.19
-0.175
-0.18
-0.18
-0.19
-0.17
-0.15
-0.115
-0.125
-0.105
-0.115
-0.11
-0.095
-0.055
-0.045
-0.045
-0.05
-0.045
-0.025
-0.015
-0.015
-0.04
-0.055
-0.065
-0.055
-0.06
-0.085
-0.105
-0.12
-0.135
-0.14
-0.15
-0.16
-0.185
-0.195
-0.205
-0.2
-0.205
-0.215
-0.225
-0.25
-0.25
-0.235
-0.225
-0.22
-0.23
-0.235
-0.245
-0.225
-0.2
-0.17
-0.145
-0.125
-0.085
-0.015
0.055
0.13
0.185
0.24
0.295
0.36
0.42
0.465
0.515
0.595
0.715
0.87
1.065
1.275
1.49
1.72
1.93
2.11
2.16
2.005
1.7
1.335
0.94
0.55
0.27
0.075
-0.055
-0.16
-0.225
-0.235
-0.215
-0.22
-0.27
-0.3
-0.315
-0.315
-0.315
-0.31
-0.32
-0.345
-0.34
-0.34
-0.325
-0.31
-0.335
-0.365
-0.355
-0.345
-0.33
-0.335
-0.365
-0.37
-0.37
-0.345
-0.35
-0.345
-0.36
-0.37
-0.38
-0.375
-0.37
-0.37
-0.385
-0.4
-0.395
-0.395
-0.385
-0.38
-0.4
-0.41
-0.42
-0.4
-0.39
-0.39
-0.405
-0.41
-0.4
-0.395
-0.365
-0.375
-0.375
-0.39
-0.38
-0.355
-0.325
-0.315
-0.31
-0.315
-0.29
-0.27
-0.235
-0.22
-0.215
-0.22
-0.205
-0.185
-0.155
-0.15
-0.14
-0.14
-0.135
-0.11
-0.085
-0.075
-0.085
-0.1
-0.115
-0.09
-0.1
-0.105
-0.13
-0.16
-0.175
-0.155
-0.145
-0.17
-0.185
-0.205
-0.21
-0.21
-0.2
-0.21
-0.23
-0.245
-0.24
-0.235
-0.22
-0.215
-0.225
-0.245
-0.245
-0.245
-0.24
-0.24
-0.25
-0.26
-0.27
-0.25
-0.24
-0.24
-0.255
-0.26
-0.265
-0.255
-0.25
-0.255
-0.265
-0.275
-0.27
-0.265
-0.245
-0.255
-0.25
-0.27
-0.255
-0.23
-0.2
-0.19
-0.175
-0.155
-0.125
-0.07
0.0
0.045
0.075
0.135
0.19
0.265
0.36
0.425
0.49
0.565
0.65
0.72
0.815
0.915
0.975
1.035
1.12
1.205
1.31
1.35
1.345
1.3
1.25
1.2
1.185
1.15
1.12
1.07
1.05
1.045
1.035
1.035
1.01
0.99
1.015
1.065
1.085
1.045
0.945
0.795
0.625
0.44
0.235
0.025
-0.165
-0.32
-0.395
-0.445
-0.48
-0.515
-0.545
-0.585
-0.61
-0.615
-0.61
-0.625
-0.66
-0.685
-0.7
-0.71
-0.71
-0.71
-0.735
-0.735
-0.76
-0.755
-0.75
-0.755
-0.775
-0.805
-0.815
-0.815
-0.81
-0.82
-0.84
-0.87
-0.885
-0.885
-0.865
-0.88
-0.895
-0.915
-0.915
-0.905
-0.92
-0.925
-0.935
-0.955
-0.965
-0.96
-0.95
-0.96
-0.97
-0.985
-0.975
-0.97
-0.965
-0.97
-0.965
-0.96
-0.945
-0.93
-0.9
-0.885
-0.895
-0.885
-0.865
-0.83
-0.795
-0.78
-0.76
-0.76
-0.735
-0.705
-0.66
-0.635
-0.625
-0.62
-0.59
-0.555
-0.52
-0.505
-0.52
-0.515
-0.49
-0.46
-0.435
-0.43
-0.44
-0.44
-0.45
-0.425
-0.41
-0.41
-0.42
-0.425
-0.44
-0.42
-0.41
-0.405
-0.425
-0.45
-0.445
-0.44
-0.42
-0.42
-0.43
-0.43
-0.445
-0.435
-0.42
-0.415
-0.425
-0.43
-0.44
-0.415
-0.405
-0.405
-0.415
-0.43
-0.435
-0.395
-0.39
-0.39
-0.41
-0.42
-0.42
-0.41
-0.39
-0.385
-0.405
-0.41
-0.415
-0.415
-0.38
-0.39
-0.405
-0.405
-0.41
-0.39
-0.365
-0.365
-0.385
-0.38
-0.39
-0.38
-0.375
-0.365
-0.38
-0.385
-0.395
-0.375
-0.37
-0.36
-0.38
-0.39
-0.4
-0.37
-0.36
-0.355
-0.375
-0.39
-0.385
-0.375
-0.365
-0.365
-0.38
-0.385
-0.385
-0.375
-0.365
-0.365
-0.38
-0.39
-0.39
-0.375
-0.35
-0.35
-0.365
-0.375
-0.37
-0.365
-0.35
-0.355
-0.35
-0.375
-0.375
-0.35
-0.34
-0.335
-0.345
-0.365
-0.365
-0.36
-0.34
-0.34
-0.36
-0.37
-0.365
-0.36
-0.35
-0.325
-0.345
-0.36
-0.355
-0.345
-0.32
-0.32
-0.32
-0.345
-0.335
-0.315
-0.31
-0.32
-0.335
-0.345
-0.345
-0.33
-0.315
-0.31
-0.345
-0.35
-0.35
-0.33
-0.315
-0.305
-0.33
-0.35
-0.36
-0.335
-0.325
-0.31
-0.325
-0.345
-0.345
-0.335
-0.305
-0.305
-0.33
-0.33
-0.32
-0.315
-0.29
-0.305
-0.315
-0.325
-0.31
-0.29
-0.245
-0.24
-0.24
-0.25
-0.25
-0.22
-0.185
-0.175
-0.17
-0.185
-0.17
-0.145
-0.13
-0.145
-0.16
-0.185
-0.2
-0.18
-0.19
-0.195
-0.235
-0.265
-0.275
-0.265
-0.26
-0.27
-0.28
-0.285
-0.31
-0.305
-0.285
-0.28
-0.295
-0.305
-0.315
-0.31
-0.285
-0.29
-0.29
-0.3
-0.3
-0.285
-0.27
-0.27
-0.28
-0.295
-0.3
-0.285
-0.28
-0.295
-0.315
-0.32
-0.27
-0.16
-0.02
0.135
0.33
0.58
0.86
1.135
1.37
1.535
1.5
1.26
0.91
0.545
0.185
-0.07
-0.19
-0.255
-0.285
-0.285
-0.26
-0.25
-0.25
-0.255
-0.28
-0.27
-0.255
-0.265
-0.28
-0.29
-0.295
-0.29
-0.27
-0.265
-0.28
-0.295
-0.295
-0.285
-0.285
-0.285
-0.285
-0.285
-0.28
-0.26
-0.25
-0.255
-0.26
-0.285
-0.29
-0.28
-0.25
-0.24
-0.265
-0.275
-0.275
-0.26
-0.225
-0.225
-0.215
-0.225
-0.22
-0.205
-0.18
-0.185
-0.19
-0.195
-0.19
-0.17
-0.15
-0.13
-0.14
-0.15
-0.145
-0.125
-0.1
-0.085
-0.09
-0.095
-0.085
-0.055
-0.025
-0.015
-0.03
-0.035
-0.02
0.02
0.025
0.045
0.05
0.05
0.055
0.085
0.12
0.125
0.13
0.115
0.13
0.145
0.155
0.155
0.145
0.12
0.135
0.15
0.15
0.155
0.15
0.115
0.105
0.105
0.105
0.07
0.04
0.015
-0.01
-0.01
-0.015
-0.045
-0.075
-0.1
-0.12
-0.135
-0.13
-0.155
-0.19
-0.2
-0.215
-0.2
-0.2
-0.22
-0.24
-0.265
-0.24
-0.23
-0.22
-0.21
-0.23
-0.25
-0.235
-0.225
-0.23
-0.225
-0.235
-0.265
-0.265
-0.24
-0.225
-0.23
-0.26
-0.275
-0.255
-0.255
-0.235
-0.23
-0.245
-0.25
-0.235
-0.24
-0.225
-0.24
-0.25
-0.26
-0.255
-0.255
-0.23
-0.23
-0.25
-0.25
-0.255
-0.23
-0.21
-0.205
-0.205
-0.205
-0.195
-0.185
-0.16
-0.155
-0.155
-0.155
-0.15
-0.11
-0.085
-0.095
-0.1
-0.13
-0.14
-0.12
-0.11
-0.13
-0.16
-0.19
-0.21
-0.215
-0.2
-0.2
-0.235
-0.27
-0.275
-0.23
-0.18
-0.14
-0.1
-0.065
-0.005
0.09
0.17
0.25
0.295
0.35
0.4
0.47
0.555
0.615
0.7
0.775
0.85
0.935
1.045
1.165
1.265
1.355
1.385
1.395
1.375
1.34
1.315
1.33
1.375
1.405
1.46
1.5
1.525
1.54
1.57
1.56
1.465
1.245
0.905
0.57
0.285
0.055
-0.115
-0.255
-0.375
-0.48
-0.52
-0.535
-0.535
-0.565
-0.59
-0.62
-0.64
-0.64
-0.65
-0.64
-0.67
-0.685
-0.695
-0.7
-0.69
-0.7
-0.72
-0.74
-0.74
-0.74
-0.735
-0.745
-0.775
-0.79
-0.81
-0.795
-0.805
-0.805
-0.84
-0.865
-0.875
-0.87
-0.86
-0.885
-0.895
-0.915
-0.93
-0.93
-0.92
-0.925
-0.96
-0.98
-0.985
-0.98
-0.965
-0.96
-0.98
-1.01
-0.995
-0.99
-0.97
-0.975
-0.975
-0.97
-0.97
-0.94
-0.915
-0.91
-0.92
-0.9
-0.875
-0.835
-0.8
-0.775
-0.75
-0.745
-0.71
-0.655
-0.62
-0.585
-0.565
-0.555
-0.53
-0.495
-0.465
-0.44
-0.455
-0.455
-0.445
-0.42
-0.405
-0.405
-0.415
-0.43
-0.45
-0.43
-0.405
-0.4
-0.42
-0.435
-0.43
-0.435
-0.415
-0.4
-0.43
-0.43
-0.44
-0.435
-0.425
-0.41
-0.425
-0.445
-0.445
-0.415
-0.41
-0.415
-0.425
-0.435
-0.44
-0.42
-0.395
-0.41
-0.425
-0.435
-0.435
-0.425
-0.415
-0.415
-0.425
-0.445
-0.44
-0.42
-0.4
-0.395
-0.405
-0.425
-0.405
-0.375
-0.355
-0.32
-0.315
-0.285
-0.25
-0.18
-0.11
-0.05
0.02
0.08
0.155
0.235
0.33
0.415
0.495
0.54
0.615
0.715
0.815
0.885
0.945
1.01
1.105
1.215
1.285
1.285
1.24
1.175
1.135
1.11
1.085
1.035
1.01
0.975
0.935
0.945
0.965
0.96
0.965
0.99
1.015
1.01
0.945
0.835
0.675
0.475
0.27
0.09
-0.09
-0.255
-0.4
-0.51
-0.575
-0.605
-0.615
-0.635
-0.685
-0.705
-0.73
-0.74
-0.73
-0.745
-0.77
-0.79
-0.79
-0.805
-0.795
-0.795
-0.825
-0.845
-0.855
-0.855
-0.85
-0.86
-0.895
-0.91
-0.925
-0.93
-0.915
-0.925
-0.94
-0.96
-0.97
-0.975
-0.955
-0.975
-1.0
-1.01
-1.025
-1.01
-1.005
-1.01
-1.035
-1.065
-1.055
-1.055
-1.04
-1.045
-1.06
-1.06
-1.065
-1.06
-1.03
-1.02
-1.03
-1.03
-1.015
-0.99
-0.975
-0.955
-0.955
-0.955
-0.93
-0.895
-0.85
-0.82
-0.815
-0.78
-0.765
-0.725
-0.68
-0.65
-0.625
-0.61
-0.59
-0.565
-0.52
-0.52
-0.505
-0.5
-0.485
-0.46
-0.45
-0.43
-0.445
-0.44
-0.445
-0.435
-0.43
-0.435
-0.435
-0.44
-0.445
-0.435
-0.43
-0.44
-0.45
-0.465
-0.46
-0.45
-0.445
-0.435
-0.455
-0.465
-0.46
-0.455
-0.435
-0.435
-0.445
-0.46
-0.465
-0.45
-0.42
-0.43
-0.45
-0.455
-0.45
-0.435
-0.42
-0.42
-0.425
-0.45
-0.45
-0.435
-0.415
-0.41
-0.415
-0.425
-0.425
-0.415
-0.4
-0.395
-0.405
-0.42
-0.415
-0.405
-0.405
-0.395
-0.405
-0.415
-0.415
-0.4
-0.38
-0.385
-0.4
-0.41
-0.415
-0.395
-0.385
-0.365
-0.38
-0.4
-0.39
-0.385
-0.38
-0.37
-0.39
-0.39
-0.4
-0.385
-0.365
-0.36
-0.375
-0.385
-0.38
-0.37
-0.355
-0.37
-0.38
-0.38
-0.38
-0.365
-0.345
-0.345
-0.365
-0.37
-0.37
-0.37
-0.355
-0.345
-0.37
-0.375
-0.37
-0.36
-0.34
-0.34
-0.36
-0.36
-0.36
-0.345
-0.345
-0.345
-0.35
-0.36
-0.36
-0.35
-0.335
-0.345
-0.36
-0.355
-0.355
-0.345
-0.335
-0.335
-0.36
-0.35
-0.365
-0.34
-0.325
-0.325
-0.33
-0.345
-0.355
-0.345
-0.32
-0.34
-0.35
-0.335
-0.33
-0.305
-0.275
-0.255
-0.265
-0.26
-0.27
-0.24
-0.215
-0.195
-0.195
-0.195
-0.19
-0.185
-0.165
-0.18
-0.195
-0.21
-0.235
-0.235
-0.23
-0.25
-0.28
-0.295
-0.31
-0.305
-0.3
-0.315
-0.325
-0.34
-0.34
-0.34
-0.335
-0.32
-0.335
-0.35
-0.345
-0.33
-0.32
-0.325
-0.32
-0.34
-0.33
-0.315
-0.305
-0.295
-0.32
-0.32
-0.32
-0.32
-0.315
-0.275
-0.205
-0.09
0.075
0.28
0.56
0.81
1.05
1.28
1.445
1.42
1.185
0.835
0.445
0.12
-0.085
-0.175
-0.22
-0.255
-0.31
-0.345
-0.325
-0.29
-0.27
-0.28
-0.32
-0.34
-0.345
-0.345
-0.33
-0.32
-0.335
-0.355
-0.355
-0.33
-0.335
-0.315
-0.335
-0.355
-0.34
-0.315
-0.315
-0.32
-0.325
-0.34
-0.34
-0.32
-0.295
-0.305
-0.305
-0.315
-0.31
-0.3
-0.285
-0.27
-0.285
-0.295
-0.285
-0.27
-0.245
-0.235
-0.245
-0.245
-0.235
-0.215
-0.185
-0.19
-0.18
-0.18
-0.17
-0.145
-0.12
-0.11
-0.1
-0.105
-0.09
-0.06
-0.045
-0.03
-0.02
-0.015
-0.015
0.03
0.05
0.07
0.07
0.065
0.09
0.12
0.135
0.145
0.13
0.12
0.135
0.155
0.165
0.165
0.155
0.14
0.135
0.135
0.13
0.105
0.07
0.03
0.02
0.005
0.005
-0.03
-0.06
-0.105
-0.135
-0.125
-0.13
-0.16
-0.19
-0.21
-0.215
-0.235
-0.215
-0.22
-0.245
-0.275
-0.28
-0.28
-0.26
-0.275
-0.29
-0.305
-0.305
-0.295
-0.29
-0.29
-0.315
-0.32
-0.325
-0.3
-0.28
-0.28
-0.29
-0.305
-0.295
-0.295
-0.285
-0.285
-0.305
-0.31
-0.31
-0.295
-0.285
-0.285
-0.31
-0.31
-0.3
-0.285
-0.265
-0.29
-0.295
-0.31
-0.3
-0.295
-0.29
-0.29
-0.29
-0.29
-0.27
-0.24
-0.225
-0.21
-0.21
-0.21
-0.195
-0.17
-0.15
-0.16
-0.15
-0.17
-0.175
-0.17
-0.165
-0.17
-0.2
-0.215
-0.23
-0.23
-0.245
-0.26
-0.3
-0.315
-0.33
-0.31
-0.275
-0.265
-0.245
-0.21
-0.18
-0.12
-0.05
0.025
0.075
0.15
0.245
0.33
0.415
0.485
0.53
0.565
0.66
0.795
0.895
0.99
1.075
1.175
1.275
1.34
1.33
1.335
1.355
1.42
1.475
1.535
1.615
1.66
1.715
1.715
1.62
1.34
0.995
0.68
0.385
0.11
-0.11
-0.255
-0.35
-0.42
-0.495
-0.55
-0.575
-0.58
-0.59
-0.6
-0.63
-0.655
-0.67
-0.675
-0.66
-0.675
-0.71
-0.725
-0.73
-0.72
-0.715
-0.725
-0.75
-0.76
-0.765
-0.785
-0.77
-0.795
-0.805
-0.825
-0.83
-0.845
-0.835
-0.84
-0.855
-0.885
-0.885
-0.875
-0.87
-0.89
-0.915
-0.925
-0.94
-0.94
-0.94
-0.94
-0.95
-0.96
-0.975
-0.96
-0.945
-0.935
-0.945
-0.945
-0.955
-0.925
-0.91
-0.895
-0.89
-0.885
-0.89
-0.85
-0.825
-0.795
-0.79
-0.785
-0.755
-0.72
-0.675
-0.66
-0.645
-0.645
-0.605
-0.575
-0.535
-0.515
-0.525
-0.515
-0.51
-0.475
-0.46
-0.46
-0.47
-0.48
-0.475
-0.485
-0.465
-0.485
-0.5
-0.51
-0.495
-0.475
-0.465
-0.48
-0.505
-0.515
-0.52
-0.52
-0.49
-0.505
-0.505
-0.515
-0.52
-0.51
-0.49
-0.49
-0.5
-0.53
-0.54
-0.515
-0.5
-0.49
-0.5
-0.515
-0.49
-0.47
-0.47
-0.455
-0.465
-0.45
-0.405
-0.35
-0.275
-0.22
-0.175
-0.11
-0.025
0.07
0.17
0.26
0.345
0.415
0.48
0.565
0.655
0.72
0.805
0.855
0.94
1.04
1.14
1.175
1.155
1.115
1.06
1.03
0.99
0.94
0.89
0.855
0.84
0.84
0.85
0.865
0.865
0.905
0.915
0.895
0.815
0.665
0.44
0.18
-0.045
-0.23
-0.34
-0.445
-0.55
-0.635
-0.68
-0.72
-0.735
-0.765
-0.795
-0.835
-0.855
-0.85
-0.855
-0.865
-0.89
-0.905
-0.915
-0.92
-0.91
-0.915
-0.955
-0.98
-1.0
-0.995
-0.975
-1.0
-1.005
-1.05
-1.06
-1.045
-1.045
-1.05
-1.065
-1.085
-1.095
-1.095
-1.095
-1.1
-1.135
-1.15
-1.155
-1.155
-1.14
-1.13
-1.16
-1.165
-1.165
-1.145
-1.12
-1.115
-1.135
-1.14
-1.125
-1.1
-1.065
-1.055
-1.055
-1.05
-1.03
-1.0
-0.965
-0.935
-0.92
-0.9
-0.87
-0.835
-0.785
-0.775
-0.745
-0.745
-0.715
-0.685
-0.65
-0.635
-0.64
-0.645
-0.63
-0.615
-0.595
-0.585
-0.605
-0.6
-0.61
-0.6
-0.595
-0.575
-0.595
-0.615
-0.61
-0.615
-0.61
-0.6
-0.61
-0.6
-0.6
-0.595
-0.595
-0.58
-0.595
-0.61
-0.605
-0.595
-0.57
-0.565
-0.575
-0.59
-0.585
-0.57
-0.56
-0.555
-0.57
-0.575
-0.585
-0.565
-0.54
-0.545
-0.54
-0.565
-0.555
-0.545
-0.545
-0.545
-0.545
-0.575
-0.555
-0.555
-0.525
-0.52
-0.52
-0.535
-0.52
-0.52
-0.505
-0.505
-0.515
-0.53
-0.52
-0.505
-0.5
-0.495
-0.505
-0.525
-0.52
-0.505
-0.485
-0.485
-0.49
-0.5
-0.5
-0.49
-0.485
-0.48
-0.49
-0.51
-0.515
-0.495
-0.475
-0.475
-0.48
-0.5
-0.505
-0.495
-0.48
-0.48
-0.48
-0.49
-0.51
-0.485
-0.475
-0.48
-0.49
-0.495
-0.505
-0.5
-0.475
-0.485
-0.48
-0.485
-0.485
-0.48
-0.455
-0.465
-0.48
-0.485
-0.48
-0.475
-0.475
-0.48
-0.475
-0.485
-0.475
-0.455
-0.445
-0.44
-0.455
-0.46
-0.46
-0.45
-0.435
-0.44
-0.45
-0.465
-0.46
-0.445
-0.43
-0.435
-0.44
-0.45
-0.46
-0.44
-0.425
-0.42
-0.45
-0.46
-0.455
-0.42
-0.39
-0.395
-0.39
-0.39
-0.38
-0.355
-0.355
-0.34
-0.345
-0.34
-0.335
-0.31
-0.28
-0.27
-0.285
-0.3
-0.305
-0.295
-0.285
-0.3
-0.32
-0.34
-0.35
-0.345
-0.35
-0.375
-0.405
-0.42
-0.42
-0.4
-0.4
-0.405
-0.43
-0.44
-0.435
-0.435
-0.41
-0.4
-0.42
-0.435
-0.435
-0.42
-0.4
-0.41
-0.415
-0.425
-0.425
-0.415
-0.385
-0.385
-0.4
-0.42
-0.435
-0.4
-0.3
-0.19
-0.025
0.175
0.415
0.69
0.96
1.2
1.365
1.39
1.21
0.93
0.58
0.24
-0.06
-0.27
-0.355
-0.375
-0.375
-0.4
-0.395
-0.39
-0.375
-0.36
-0.38
-0.405
-0.405
-0.43
-0.415
-0.425
-0.405
-0.4
-0.405
-0.415
-0.415
-0.425
-0.39
-0.385
-0.395
-0.415
-0.415
-0.405
-0.38
-0.38
-0.4
-0.405
-0.41
-0.39
-0.38
-0.375
-0.375
-0.4
-0.38
-0.375
-0.355
-0.345
-0.345
-0.345
-0.345
-0.335
-0.315
-0.305
-0.305
-0.315
-0.31
-0.28
-0.27
-0.245
-0.245
-0.255
-0.245
-0.225
-0.2
-0.19
-0.195
-0.2
-0.185
-0.155
-0.13
-0.115
-0.115
-0.115
-0.105
-0.08
-0.05
-0.035
-0.035
-0.05
-0.02
0.0
0.03
0.045
0.035
0.035
0.04
0.05
0.075
0.085
0.075
0.07
0.07
0.085
0.11
0.1
0.085
0.06
0.07
0.045
0.05
0.035
0.0
-0.04
-0.055
-0.065
-0.075
-0.1
-0.13
-0.17
-0.18
-0.175
-0.18
-0.195
-0.22
-0.25
-0.265
-0.26
-0.255
-0.245
-0.27
-0.3
-0.305
-0.305
-0.295
-0.285
-0.31
-0.315
-0.32
-0.295
-0.295
-0.305
-0.31
-0.32
-0.315
-0.305
-0.285
-0.28
-0.295
-0.31
-0.32
-0.295
-0.29
-0.27
-0.295
-0.31
-0.3
-0.285
-0.27
-0.28
-0.28
-0.295
-0.295
-0.265
-0.265
-0.265
-0.275
-0.275
-0.285
-0.25
-0.245
-0.225
-0.22
-0.22
-0.2
-0.2
-0.18
-0.155
-0.16
-0.16
-0.145
-0.115
-0.095
-0.1
-0.11
-0.125
-0.13
-0.15
-0.12
-0.12
-0.15
-0.17
-0.18
-0.19
-0.185
-0.21
-0.24
-0.265
-0.28
-0.27
-0.25
-0.255
-0.27
-0.285
-0.265
-0.22
-0.165
-0.13
-0.1
-0.05
0.015
0.11
0.19
0.28
0.36
0.415
0.475
0.54
0.595
0.675
0.76
0.85
0.94
1.03
1.13
1.205
1.26
1.3
1.375
1.45
1.52
1.585
1.635
1.705
1.78
1.855
1.93
1.945
1.78
1.46
1.12
0.805
0.54
0.3
0.08
-0.095
-0.23
-0.32
-0.37
-0.395
-0.44
-0.465
-0.51
-0.52
-0.515
-0.525
-0.56
-0.59
-0.585
-0.57
-0.56
-0.58
-0.585
-0.605
-0.605
-0.605
-0.59
-0.6
-0.615
-0.63
-0.645
-0.63
-0.64
-0.635
-0.645
-0.665
-0.675
-0.67
-0.66
-0.675
-0.69
-0.71
-0.735
-0.715
-0.71
-0.72
-0.73
-0.75
-0.745
-0.74
-0.735
-0.735
-0.755
-0.765
-0.75
-0.74
-0.735
-0.735
-0.735
-0.745
-0.73
-0.705
-0.695
-0.675
-0.685
-0.685
-0.67
-0.65
-0.62
-0.605
-0.6
-0.595
-0.59
-0.55
-0.535
-0.505
-0.49
-0.465
-0.45
-0.405
-0.375
-0.35
-0.35
-0.34
-0.315
-0.29
-0.27
-0.265
-0.285
-0.285
-0.275
-0.27
-0.255
-0.24
-0.275
-0.27
-0.27
-0.26
-0.25
-0.265
-0.285
-0.29
-0.285
-0.28
-0.265
-0.27
-0.28
-0.305
-0.305
-0.29
-0.265
-0.26
-0.275
-0.29
-0.29
-0.28
-0.265
-0.275
-0.285
-0.295
-0.285
-0.27
-0.26
-0.275
-0.29
-0.3
-0.29
-0.285
-0.27
-0.265
-0.29
-0.305
-0.3
-0.28
-0.26
-0.25
-0.26
-0.26
-0.245
-0.235
-0.205
-0.185
-0.15
-0.15
-0.105
-0.055
0.02
0.075
0.105
0.175
0.245
0.33
0.425
0.505
0.56
0.62
0.685
0.75
0.855
0.93
0.975
1.03
1.1
1.185
1.27
1.305
1.285
1.275
1.25
1.225
1.21
1.175
1.125
1.075
1.05
1.035
1.025
1.005
0.985
0.96
0.98
1.035
1.09
1.08
1.015
0.91
0.795
0.625
0.45
0.22
0.0
-0.185
-0.295
-0.365
-0.41
-0.43
-0.48
-0.525
-0.535
-0.55
-0.55
-0.555
-0.585
-0.615
-0.64
-0.63
-0.63
-0.64
-0.65
-0.675
-0.685
-0.685
-0.675
-0.685
-0.725
-0.725
-0.735
-0.735
-0.725
-0.735
-0.76
-0.78
-0.8
-0.805
-0.785
-0.79
-0.805
-0.825
-0.835
-0.82
-0.83
-0.82
-0.845
-0.865
-0.865
-0.855
-0.85
-0.84
-0.85
-0.86
-0.865
-0.855
-0.83
-0.835
-0.85
-0.87
-0.85
-0.83
-0.81
-0.79
-0.8
-0.79
-0.78
-0.74
-0.725
-0.7
-0.695
-0.69
-0.67
-0.63
-0.585
-0.555
-0.54
-0.535
-0.51
-0.475
-0.445
-0.435
-0.43
-0.415
-0.395
-0.365
-0.345
-0.33
-0.335
-0.34
-0.33
-0.315
-0.29
-0.29
-0.31
-0.315
-0.315
-0.3
-0.285
-0.285
-0.305
-0.32
-0.32
-0.305
-0.295
-0.29
-0.305
-0.32
-0.315
-0.305
-0.285
-0.28
-0.295
-0.32
-0.305
-0.3
-0.27
-0.295
-0.29
-0.31
-0.3
-0.29
-0.27
-0.27
-0.29
-0.3
-0.295
-0.265
-0.265
-0.25
-0.27
-0.27
-0.27
-0.27
-0.245
-0.245
-0.255
-0.275
-0.255
-0.245
-0.245
-0.235
-0.24
-0.26
-0.255
-0.25
-0.235
-0.22
-0.235
-0.265
-0.25
-0.23
-0.23
-0.23
-0.25
-0.255
-0.24
-0.235
-0.23
-0.21
-0.23
-0.245
-0.23
-0.22
-0.21
-0.2
-0.22
-0.24
-0.235
-0.225
-0.21
-0.205
-0.23
-0.245
-0.24
-0.23
-0.215
-0.205
-0.225
-0.235
-0.22
-0.225
-0.2
-0.19
-0.215
-0.22
-0.225
-0.205
-0.19
-0.2
-0.21
-0.245
-0.225
-0.23
-0.215
-0.205
-0.215
-0.225
-0.22
-0.205
-0.195
-0.195
-0.205
-0.22
-0.22
-0.22
-0.19
-0.195
-0.205
-0.215
-0.235
-0.205
-0.185
-0.19
-0.195
-0.21
-0.215
-0.195
-0.185
-0.175
-0.19
-0.21
-0.2
-0.19
-0.165
-0.18
-0.195
-0.2
-0.19
-0.155
-0.12
-0.095
-0.095
-0.105
-0.105
-0.08
-0.055
-0.04
-0.04
-0.05
-0.03
-0.03
-0.005
-0.03
-0.055
-0.07
-0.08
-0.075
-0.07
-0.08
-0.115
-0.15
-0.16
-0.17
-0.145
-0.145
-0.18
-0.2
-0.2
-0.19
-0.17
-0.165
-0.185
-0.2
-0.205
-0.195
-0.19
-0.175
-0.21
-0.2
-0.185
-0.17
-0.155
-0.16
-0.175
-0.195
-0.2
-0.195
-0.19
-0.155
-0.115
0.0
0.14
0.35
0.645
0.955
1.225
1.45
1.595
1.56
1.29
0.91
0.5
0.145
-0.05
-0.13
-0.135
-0.15
-0.185
-0.195
-0.175
-0.15
-0.13
-0.15
-0.165
-0.185
-0.17
-0.165
-0.17
-0.17
-0.17
-0.18
-0.175
-0.17
-0.155
-0.175
-0.185
-0.185
-0.18
-0.18
-0.155
-0.16
-0.16
-0.185
-0.165
-0.145
-0.14
-0.125
-0.145
-0.14
-0.15
-0.12
-0.11
-0.11
-0.11
-0.135
-0.11
-0.115
-0.105
-0.08
-0.115
-0.11
-0.085
-0.09
-0.05
-0.055
-0.065
-0.06
-0.05
-0.035
-0.01
0.0
-0.015
-0.015
0.0
0.01
0.03
0.05
0.065
0.065
0.08
0.105
0.135
0.145
0.135
0.13
0.155
0.165
0.195
0.2
0.205
0.195
0.215
0.245
0.275
0.275
0.27
0.24
0.245
0.25
0.265
0.265
0.25
0.235
0.235
0.235
0.22
0.2
0.15
0.14
0.12
0.125
0.125
0.105
0.07
0.03
0.015
0.01
0.005
0.0
-0.03
-0.065
-0.06
-0.06
-0.06
-0.065
-0.09
-0.105
-0.1
-0.09
-0.09
-0.085
-0.11
-0.11
-0.12
-0.095
-0.075
-0.105
-0.095
-0.11
-0.095
-0.095
-0.08
-0.085
-0.095
-0.1
-0.1
-0.085
-0.07
-0.075
-0.085
-0.09
-0.09
-0.075
-0.07
-0.07
-0.095
-0.1
-0.105
-0.08
-0.06
-0.05
-0.065
-0.09
-0.08
-0.04
-0.015
0.01
-0.01
-0.015
-0.015
0.015
0.04
0.055
0.05
0.055
0.06
0.06
0.055
0.055
0.05
0.025
0.005
-0.005
0.015
-0.005
-0.025
-0.045
-0.06
-0.065
-0.07
-0.08
-0.105
-0.115
-0.115
-0.115
-0.105
-0.11
-0.115
-0.12
-0.095
-0.05
0.005
0.05
0.07
0.135
0.225
0.305
0.38
0.45
0.5
0.55
0.615
0.685
0.78
0.85
0.91
0.975
1.045
1.165
1.345
1.535
1.73
1.92
2.09
2.215
2.315
2.315
2.08
1.66
1.18
0.725
0.385
0.185
0.05
-0.06
-0.11
-0.14
-0.15
-0.175
-0.205
-0.245
-0.265
-0.275
-0.26
-0.27
-0.29
-0.3
-0.31
-0.305
-0.285
-0.295
-0.3
-0.315
-0.32
-0.305
-0.32
-0.31
-0.325
-0.345
-0.34
-0.33
-0.315
-0.325
-0.345
-0.36
-0.37
-0.355
-0.35
-0.355
-0.395
-0.41
-0.41
-0.4
-0.395
-0.405
-0.425
-0.445
-0.435
-0.445
-0.425
-0.455
-0.445
-0.45
-0.445
-0.44
-0.435
-0.425
-0.44
-0.445
-0.43
-0.42
-0.395
-0.375
-0.375
-0.375
-0.355
-0.32
-0.295
-0.295
-0.28
-0.285
-0.27
-0.23
-0.19
-0.18
-0.185
-0.16
-0.145
-0.125
-0.095
-0.085
-0.09
-0.105
-0.095
-0.1
-0.075
-0.07
-0.1
-0.105
-0.11
-0.105
-0.09
-0.09
-0.105
-0.115
-0.115
-0.125
-0.105
-0.11
-0.125
-0.13
-0.135
-0.115
-0.105
-0.095
-0.115
-0.12
-0.12
-0.11
-0.1
-0.1
-0.11
-0.12
-0.115
-0.115
-0.11
-0.105
-0.115
-0.13
-0.135
-0.11
-0.1
-0.1
-0.115
-0.12
-0.105
-0.085
-0.075
-0.055
-0.055
-0.06
-0.04
-0.005
0.045
0.1
0.11
0.165
0.225
0.305
0.395
0.48
0.55
0.605
0.7
0.82
0.9
0.97
1.035
1.12
1.21
1.31
1.41
1.48
1.545
1.595
1.61
1.61
1.58
1.525
1.445
1.37
1.315
1.29
1.265
1.225
1.16
1.125
1.115
1.115
1.15
1.175
1.15
1.09
1.01
0.895
0.74
0.545
0.31
0.105
-0.05
-0.14
-0.23
-0.295
-0.34
-0.38
-0.4
-0.415
-0.415
-0.43
-0.475
-0.5
-0.5
-0.51
-0.515
-0.525
-0.55
-0.565
-0.575
-0.57
-0.56
-0.58
-0.595
-0.625
-0.615
-0.625
-0.63
-0.64
-0.665
-0.68
-0.71
-0.695
-0.695
-0.705
-0.72
-0.74
-0.76
-0.745
-0.735
-0.755
-0.785
-0.795
-0.79
-0.795
-0.785
-0.795
-0.81
-0.825
-0.825
-0.815
-0.8
-0.805
-0.815
-0.82
-0.81
-0.79
-0.765
-0.755
-0.765
-0.755
-0.75
-0.715
-0.675
-0.65
-0.645
-0.615
-0.585
-0.55
-0.52
-0.49
-0.48
-0.45
-0.42
-0.385
-0.335
-0.31
-0.31
-0.295
-0.29
-0.26
-0.245
-0.215
-0.225
-0.225
-0.225
-0.21
-0.195
-0.195
-0.215
-0.225
-0.23
