Lead II
0.05
0.045
0.06
0.065
0.075
0.07
0.055
0.05
0.075
0.1
0.14
0.165
0.185
0.24
0.31
0.385
0.46
0.555
0.69
0.85
1.025
1.21
1.365
1.515
1.66
1.82
2.015
2.165
2.225
2.135
1.875
1.455
0.985
0.58
0.345
0.19
0.115
0.09
0.065
0.08
0.07
0.045
0.035
0.0
0.0
-0.01
-0.03
-0.045
-0.07
-0.08
-0.07
-0.07
-0.045
-0.07
-0.085
-0.095
-0.09
-0.085
-0.075
-0.1
-0.105
-0.115
-0.125
-0.11
-0.105
-0.11
-0.13
-0.145
-0.135
-0.135
-0.115
-0.13
-0.15
-0.165
-0.145
-0.14
-0.12
-0.135
-0.155
-0.155
-0.17
-0.15
-0.145
-0.155
-0.17
-0.18
-0.16
-0.17
-0.15
-0.155
-0.175
-0.175
-0.17
-0.15
-0.145
-0.145
-0.16
-0.18
-0.18
-0.165
-0.15
-0.15
-0.17
-0.175
-0.18
-0.16
-0.155
-0.155
-0.16
-0.165
-0.165
-0.14
-0.12
-0.13
-0.14
-0.145
-0.13
-0.085
-0.075
-0.06
-0.07
-0.06
-0.04
-0.02
0.02
0.015
0.035
0.045
0.07
0.105
0.125
0.14
0.135
0.145
0.165
0.18
0.175
0.16
0.15
0.145
0.16
0.17
0.175
0.15
0.14
0.11
0.105
0.115
0.115
0.105
0.095
0.07
0.075
0.08
0.085
0.075
0.07
0.06
0.065
0.075
0.085
0.06
0.04
0.035
0.035
0.045
0.055
0.045
0.035
0.01
0.035
0.035
0.045
0.03
0.03
0.01
0.02
0.035
0.025
0.02
0.015
-0.005
0.0
0.025
0.035
0.025
0.02
0.01
0.02
0.03
0.035
0.04
0.02
0.02
0.015
0.03
0.055
0.04
0.025
0.02
0.035
0.05
0.05
0.04
0.02
0.02
0.02
0.035
0.035
0.035
0.025
0.005
0.02
0.025
0.035
0.015
0.01
-0.01
-0.01
0.005
0.005
0.0
-0.01
-0.025
-0.02
-0.005
-0.005
-0.01
-0.015
-0.02
-0.01
-0.005
0.005
-0.015
-0.035
-0.04
-0.03
-0.02
-0.005
-0.015
-0.035
-0.04
-0.04
-0.02
-0.01
-0.02
-0.045
-0.075
-0.07
-0.05
-0.015
-0.02
-0.035
-0.045
-0.05
-0.03
-0.025
-0.03
-0.04
-0.04
-0.055
-0.06
-0.03
-0.05
-0.05
-0.055
-0.045
-0.05
-0.035
-0.03
-0.04
-0.06
-0.065
-0.05
-0.04
-0.035
-0.05
-0.055
-0.055
-0.04
-0.04
-0.05
-0.06
-0.055
-0.05
-0.035
-0.02
-0.035
-0.055
-0.07
-0.06
-0.045
-0.04
-0.03
-0.03
-0.03
-0.025
-0.02
0.01
-0.01
-0.015
-0.02
-0.005
0.015
0.025
0.01
0.0
-0.025
-0.015
-0.005
0.0
-0.01
-0.04
-0.035
-0.025
-0.015
0.01
0.0
-0.005
-0.02
-0.015
-0.01
0.0
-0.015
-0.045
-0.06
-0.07
-0.055
-0.03
-0.04
-0.05
-0.065
-0.06
-0.06
-0.045
-0.045
-0.05
-0.075
-0.06
-0.06
-0.06
-0.075
-0.07
-0.075
-0.055
-0.05
-0.035
-0.055
-0.065
-0.08
-0.065
-0.045
-0.03
-0.045
-0.06
-0.06
-0.05
-0.015
-0.01
0.015
0.035
0.055
0.115
0.185
0.245
0.285
0.355
0.46
0.615
0.79
0.95
1.11
1.245
1.37
1.555
1.8
2.0
2.075
2.0
1.715
1.25
0.75
0.39
0.15
0.025
-0.015
-0.02
-0.04
-0.02
-0.04
-0.065
-0.09
-0.09
-0.095
-0.1
-0.13
-0.14
-0.165
-0.16
-0.155
-0.15
-0.16
-0.17
-0.18
-0.19
-0.18
-0.18
-0.19
-0.215
-0.22
-0.225
-0.22
-0.22
-0.24
-0.255
-0.265
-0.26
-0.245
-0.245
-0.255
-0.265
-0.275
-0.265
-0.26
-0.24
-0.25
-0.275
-0.275
-0.275
-0.275
-0.27
-0.285
-0.295
-0.29
-0.295
-0.28
-0.275
-0.28
-0.29
-0.305
-0.29
-0.275
-0.265
-0.28
-0.29
-0.31
-0.3
-0.295
-0.28
-0.285
-0.295
-0.31
-0.305
-0.29
-0.28
-0.29
-0.305
-0.3
-0.28
-0.26
-0.255
-0.27
-0.28
-0.285
-0.275
-0.27
-0.245
-0.24
-0.235
-0.24
-0.215
-0.2
-0.18
-0.18
-0.165
-0.165
-0.145
-0.105
-0.08
-0.075
-0.07
-0.05
-0.02
0.005
0.03
0.035
0.025
0.03
0.04
0.055
0.07
0.08
0.065
0.05
0.06
0.06
0.055
0.06
0.045
0.03
0.02
0.03
0.03
0.01
0.0
-0.005
0.005
0.01
0.01
0.01
-0.03
-0.035
-0.035
-0.05
-0.04
-0.065
-0.075
-0.085
-0.085
-0.07
-0.06
-0.065
-0.085
-0.095
-0.09
-0.07
-0.05
-0.07
-0.09
-0.1
-0.085
-0.075
-0.07
-0.085
-0.08
-0.09
-0.09
-0.065
-0.06
-0.07
-0.09
-0.095
-0.08
-0.075
-0.06
-0.07
-0.08
-0.06
-0.055
-0.035
-0.02
-0.035
-0.04
-0.045
-0.03
0.0
0.01
0.0
-0.015
-0.025
-0.005
-0.015
-0.02
-0.03
-0.055
-0.075
-0.08
-0.095
-0.08
-0.095
-0.11
-0.115
-0.095
-0.075
-0.075
-0.075
-0.095
-0.09
-0.09
-0.07
-0.06
-0.08
-0.08
-0.09
-0.08
-0.065
-0.06
-0.07
-0.09
-0.1
-0.085
-0.075
-0.06
-0.045
-0.065
-0.07
-0.08
-0.07
-0.055
-0.075
-0.08
-0.09
-0.085
-0.055
-0.055
-0.07
-0.095
-0.1
-0.09
-0.075
-0.07
-0.085
-0.11
-0.115
-0.095
-0.085
-0.06
-0.06
-0.07
-0.075
-0.065
-0.05
-0.04
-0.06
-0.06
-0.07
-0.05
-0.05
-0.055
-0.06
-0.075
-0.08
-0.07
-0.085
-0.075
-0.06
-0.075
-0.095
-0.085
-0.08
-0.07
-0.07
-0.085
-0.08
-0.07
-0.065
-0.05
-0.06
-0.08
-0.085
-0.075
-0.05
-0.04
-0.04
-0.065
-0.075
-0.075
-0.065
-0.05
-0.04
-0.065
-0.07
-0.075
-0.08
-0.06
-0.05
-0.05
-0.06
-0.04
-0.02
0.005
-0.01
-0.015
-0.02
-0.02
-0.01
0.02
0.015
0.01
0.005
0.015
0.045
0.04
0.05
0.025
0.0
-0.01
0.01
0.015
0.0
0.005
-0.015
0.005
0.02
0.045
0.04
0.03
0.015
0.01
0.03
0.035
0.025
-0.005
-0.015
-0.02
-0.005
-0.015
-0.01
-0.02
-0.025
-0.01
0.01
0.015
-0.005
-0.03
-0.035
-0.025
-0.01
0.0
-0.01
-0.025
-0.035
-0.03
-0.02
-0.025
-0.02
-0.02
-0.01
-0.01
0.005
0.01
0.01
-0.005
-0.025
-0.01
0.005
0.015
0.005
0.01
0.025
0.07
0.105
0.16
0.21
0.28
0.32
0.37
0.475
0.615
0.76
0.915
1.065
1.205
1.35
1.475
1.61
1.77
1.945
2.095
2.16
2.155
1.975
1.635
1.205
0.795
0.505
0.315
0.195
0.1
0.065
0.06
0.055
0.03
0.005
-0.02
-0.03
-0.035
-0.045
-0.055
-0.08
-0.105
-0.12
-0.115
-0.105
-0.105
-0.115
-0.135
-0.14
-0.135
-0.125
-0.12
-0.13
-0.135
-0.14
-0.13
-0.13
-0.12
-0.135
-0.15
-0.16
-0.16
-0.16
-0.175
-0.185
-0.185
-0.195
-0.195
-0.175
-0.17
-0.18
-0.19
-0.195
-0.2
-0.19
-0.2
-0.21
-0.23
-0.23
-0.215
-0.19
-0.19
-0.195
-0.22
-0.225
-0.22
-0.215
-0.215
-0.21
-0.22
-0.225
-0.22
-0.205
-0.19
-0.195
-0.21
-0.22
-0.2
-0.19
-0.195
-0.21
-0.23
-0.24
-0.22
-0.215
-0.205
-0.21
-0.24
-0.23
-0.225
-0.2
-0.205
-0.205
-0.215
-0.23
-0.22
-0.195
-0.18
-0.19
-0.21
-0.19
-0.18
-0.17
-0.145
-0.15
-0.165
-0.155
-0.12
-0.095
-0.07
-0.055
-0.05
-0.04
-0.005
0.01
0.04
0.05
0.06
0.055
0.08
0.095
0.105
0.1
0.085
0.085
0.09
0.1
0.095
0.095
0.09
0.075
0.06
0.07
0.065
0.04
0.03
0.02
0.025
0.045
0.045
0.03
0.01
0.005
0.025
0.04
0.045
0.03
0.005
0.0
0.0
0.02
0.025
0.0
-0.01
-0.005
0.005
0.0
0.01
-0.005
-0.01
-0.025
-0.005
-0.01
-0.015
-0.02
-0.02
-0.035
-0.03
-0.01
-0.005
-0.005
-0.02
-0.02
0.0
0.005
0.015
0.0
-0.015
-0.02
-0.005
0.0
-0.005
-0.005
-0.025
-0.03
-0.005
0.005
0.01
0.005
0.0
-0.015
0.005
0.01
0.02
0.015
-0.01
0.0
0.01
0.005
0.03
0.02
0.0
-0.005
0.015
0.03
0.025
0.0
-0.015
-0.03
-0.025
-0.015
-0.005
-0.015
-0.005
-0.005
0.01
0.015
0.02
0.01
-0.005
-0.01
0.0
0.02
0.03
0.03
0.005
0.0
-0.01
0.005
0.005
0.0
-0.005
-0.015
-0.005
-0.005
0.01
0.01
0.01
0.015
0.01
0.015
0.01
0.015
0.01
0.01
0.04
0.05
0.035
0.03
0.0
-0.005
0.0
-0.005
0.0
0.0
0.025
0.02
0.035
0.02
0.02
0.015
0.02
0.01
0.03
0.03
0.03
0.025
0.015
0.015
0.03
0.04
0.035
0.035
0.025
0.03
0.05
0.06
0.055
0.04
0.04
0.035
0.055
0.08
0.09
0.065
0.055
0.045
0.045
0.06
0.08
0.09
0.075
0.06
0.075
0.065
0.08
0.08
0.085
0.095
0.1
0.12
0.115
0.11
0.11
0.11
0.135
0.165
0.17
0.155
0.13
0.12
0.125
0.135
0.145
0.145
0.135
0.135
0.13
0.15
0.165
0.17
0.16
0.14
0.155
0.185
0.19
0.18
0.165
0.13
0.12
0.115
0.12
0.125
0.11
0.1
0.115
0.14
0.135
0.135
0.11
0.11
0.125
0.135
0.14
0.13
0.105
0.105
0.13
0.14
0.135
0.135
0.13
0.11
0.13
0.15
0.155
0.13
0.12
0.13
0.135
0.155
0.16
0.16
0.165
0.18
0.22
0.27
0.325
0.385
0.44
0.48
0.555
0.68
0.815
0.98
1.14
1.32
1.505
1.68
1.83
1.99
2.155
2.31
2.41
2.46
2.37
2.125
1.74
1.3
0.91
0.63
0.45
0.345
0.27
0.24
0.23
0.215
0.205
0.175
0.135
0.095
0.075
0.075
0.065
0.045
0.01
0.01
0.01
0.015
0.01
-0.005
-0.01
-0.025
-0.02
-0.025
-0.01
-0.025
-0.04
-0.04
-0.035
-0.035
-0.035
-0.045
-0.065
-0.065
-0.055
-0.05
-0.045
-0.05
-0.085
-0.09
-0.095
-0.095
-0.085
-0.1
-0.1
-0.095
-0.08
-0.08
-0.075
-0.08
-0.095
-0.1
-0.09
-0.085
-0.1
-0.115
-0.12
-0.12
-0.11
-0.105
-0.09
-0.095
-0.115
-0.11
-0.085
-0.07
-0.07
-0.095
-0.11
-0.105
-0.105
-0.1
-0.09
-0.08
-0.085
-0.08
-0.07
-0.05
-0.04
-0.055
-0.06
-0.06
-0.035
-0.02
-0.01
0.005
0.01
0.02
0.04
0.08
0.105
0.115
0.12
0.135
0.175
0.205
0.235
0.245
0.24
0.24
0.26
0.295
0.305
0.3
0.3
0.285
0.31
0.315
0.3
0.29
0.265
0.245
0.24
0.255
0.23
0.205
0.18
0.195
0.19
0.19
0.19
0.185
0.165
0.15
0.165
0.18
0.165
0.155
0.135
0.135
0.14
0.165
0.165
0.15
0.13
0.125
0.145
0.16
0.165
0.16
0.13
0.13
0.125
0.13
0.13
0.12
0.1
0.09
0.1
0.12
0.13
0.12
0.11
0.09
0.105
0.12
0.115
0.1
0.085
0.08
0.1
0.1
0.115
0.105
0.09
0.09
0.1
0.1
0.12
0.1
0.105
0.095
0.1
0.12
0.13
0.115
0.095
0.095
0.105
0.125
0.13
0.125
0.11
0.1
0.11
0.11
0.11
0.125
0.095
0.105
0.11
0.11
0.12
0.12
0.09
0.095
0.1
0.11
0.12
0.105
0.095
0.095
0.105
0.115
0.115
0.115
0.08
0.085
0.09
0.095
0.105
0.1
0.08
0.06
0.085
0.085
0.1
0.085
0.075
0.08
0.085
0.09
0.09
0.095
0.07
0.075
0.075
0.09
0.085
0.085
0.065
0.07
0.08
0.085
0.09
0.085
0.065
0.065
0.08
0.085
0.09
0.075
0.07
0.075
0.085
0.095
0.095
0.085
0.08
0.07
0.07
0.08
0.09
0.075
0.075
0.07
0.075
0.08
0.09
0.085
0.055
0.055
0.075
0.095
0.11
0.105
0.1
0.1
0.12
0.125
0.125
0.135
0.12
0.125
0.14
0.165
0.16
0.135
0.13
0.115
0.13
0.13
0.125
0.125
0.115
0.105
0.11
0.135
0.145
0.145
0.13
0.13
0.135
0.13
0.125
0.1
0.075
0.065
0.075
0.095
0.095
0.09
0.085
0.085
0.085
0.095
0.1
0.095
0.085
0.075
0.075
0.085
0.085
0.08
0.06
0.045
0.065
0.09
0.085
0.09
0.075
0.075
0.08
0.085
0.095
0.09
0.08
0.08
0.1
0.12
0.14
0.14
0.17
0.195
0.255
0.335
0.39
0.445
0.5
0.6
0.72
0.89
1.03
1.16
1.275
1.41
1.555
1.73
1.925
2.095
2.185
2.17
2.005
1.665
1.205
0.755
0.46
0.29
0.21
0.17
0.16
0.15
0.14
0.11
0.1
0.1
0.095
0.06
0.03
0.01
0.005
0.01
0.01
0.0
-0.015
-0.04
-0.02
-0.015
-0.025
-0.02
-0.03
-0.04
-0.03
-0.03
-0.03
-0.035
-0.055
-0.05
-0.055
-0.05
-0.045
-0.05
-0.08
-0.09
-0.07
-0.06
-0.055
-0.075
-0.08
-0.08
-0.085
-0.07
-0.085
-0.09
-0.095
-0.095
-0.085
-0.07
-0.075
-0.1
-0.1
-0.115
-0.11
-0.08
-0.075
-0.09
-0.1
-0.105
-0.1
-0.075
-0.07
-0.08
-0.095
-0.095
-0.09
-0.075
-0.075
-0.075
-0.095
-0.09
-0.07
-0.075
-0.075
-0.08
-0.07
-0.065
-0.075
-0.05
-0.04
-0.045
-0.03
-0.035
-0.035
-0.02
-0.01
-0.01
0.01
0.015
0.035
0.075
0.09
0.09
0.1
0.12
0.13
0.155
0.18
0.185
0.19
0.2
0.22
0.25
0.25
0.245
0.245
0.235
0.245
0.245
0.24
0.23
0.21
0.2
0.195
0.205
0.18
0.17
0.145
0.135
0.14
0.15
0.145
0.14
0.12
0.105
0.115
0.12
0.125
0.105
0.09
0.07
0.095
0.105
0.1
0.1
0.09
0.1
0.11
0.11
0.105
0.08
0.065
0.065
0.075
0.095
0.09
0.075
0.045
0.05
0.05
0.055
0.055
0.06
0.055
0.06
0.065
0.065
0.045
0.03
0.02
0.025
0.035
0.05
0.055
0.03
0.03
0.025
0.04
0.06
0.05
0.035
0.005
0.005
0.025
0.035
0.04
0.04
0.025
0.03
0.035
0.06
0.055
0.04
0.03
0.02
0.035
0.04
0.035
0.03
0.015
0.01
0.02
0.045
0.035
0.025
0.015
0.01
0.025
0.02
0.01
0.0
0.0
0.0
0.015
0.04
0.03
0.01
0.005
-0.01
-0.005
0.015
0.01
-0.005
-0.015
-0.015
0.005
0.015
0.0
-0.02
-0.045
-0.035
-0.02
0.01
0.01
-0.01
-0.035
-0.035
-0.035
-0.02
-0.015
-0.02
-0.025
-0.03
-0.02
-0.015
-0.035
-0.03
-0.045
-0.045
-0.035
-0.015
-0.02
-0.035
-0.05
-0.065
-0.06
-0.05
-0.03
-0.05
-0.04
-0.05
-0.04
-0.03
-0.025
-0.035
-0.05
-0.055
-0.035
-0.03
-0.025
-0.025
-0.035
-0.04
-0.045
-0.02
-0.025
-0.04
-0.05
-0.055
-0.04
-0.025
-0.04
-0.04
-0.055
-0.055
-0.045
-0.035
-0.04
-0.04
-0.04
-0.055
-0.03
-0.01
0.0
0.0
-0.025
-0.015
-0.01
0.015
0.025
0.02
0.005
0.0
-0.005
0.005
0.005
-0.005
-0.03
-0.045
-0.025
-0.01
0.005
-0.005
-0.02
-0.01
0.0
0.005
0.01
-0.005
-0.015
-0.03
-0.03
-0.04
-0.05
-0.06
-0.055
-0.055
-0.04
-0.035
-0.045
-0.045
-0.06
-0.065
-0.06
-0.04
-0.045
-0.06
-0.075
-0.075
-0.07
-0.045
-0.05
-0.06
-0.07
-0.085
-0.065
-0.055
-0.05
-0.055
-0.055
-0.045
-0.025
-0.005
0.005
0.02
0.05
0.12
0.21
0.275
0.33
0.4
0.51
0.67
0.855
1.04
1.22
1.36
1.505
1.7
1.93
2.125
2.22
2.18
1.94
1.515
1.03
0.62
0.32
0.135
0.035
0.01
0.01
0.005
0.0
-0.045
-0.075
-0.105
-0.115
-0.125
-0.14
-0.17
-0.18
-0.19
-0.185
-0.18
-0.18
-0.195
-0.205
-0.2
-0.21
-0.2
-0.195
-0.22
-0.225
-0.235
-0.225
-0.21
-0.235
-0.235
-0.26
-0.245
-0.255
-0.25
-0.25
-0.24
-0.27
-0.275
-0.26
-0.255
-0.275
-0.275
-0.285
-0.275
-0.275
-0.27
-0.28
-0.285
-0.295
-0.3
-0.29
-0.275
-0.255
-0.285
-0.285
-0.29
-0.275
-0.27
-0.27
-0.285
-0.31
-0.31
-0.29
-0.29
-0.285
-0.295
-0.3
-0.29
-0.29
-0.275
-0.27
-0.285
-0.285
-0.29
-0.275
-0.255
-0.245
-0.25
-0.245
-0.24
-0.225
-0.21
-0.19
-0.185
-0.185
-0.17
-0.125
-0.105
-0.08
-0.07
-0.06
-0.035
-0.015
0.035
0.055
0.06
0.06
0.055
0.07
0.095
0.095
0.11
0.085
0.085
0.095
0.095
0.115
0.075
0.055
0.055
0.06
0.065
0.06
0.035
0.01
0.01
0.02
0.03
0.015
0.015
-0.005
-0.01
-0.015
0.01
0.0
-0.015
-0.025
-0.015
-0.005
-0.005
-0.01
-0.01
-0.03
-0.035
-0.04
-0.02
-0.015
-0.02
-0.04
-0.045
-0.04
-0.02
-0.03
-0.03
-0.055
-0.045
-0.05
-0.03
-0.035
-0.045
-0.055
-0.04
-0.035
-0.025
-0.02
-0.04
-0.055
-0.05
-0.04
-0.015
-0.025
-0.025
-0.035
-0.04
-0.03
-0.015
-0.005
-0.025
-0.04
-0.03
-0.025
-0.005
-0.005
-0.015
-0.025
-0.02
-0.015
0.005
0.0
-0.01
-0.03
-0.025
-0.03
-0.005
0.0
-0.02
-0.02
-0.035
-0.025
-0.01
-0.02
-0.02
-0.045
-0.03
-0.01
-0.01
-0.005
-0.025
-0.035
-0.015
-0.02
0.0
-0.01
-0.015
-0.03
-0.03
-0.02
-0.005
0.0
-0.015
-0.025
-0.02
-0.015
0.0
-0.015
-0.015
-0.01
-0.025
-0.01
0.005
-0.005
0.005
-0.015
-0.01
-0.005
0.01
0.01
-0.01
-0.02
-0.01
-0.01
0.0
0.005
-0.01
-0.015
-0.015
-0.005
-0.005
0.005
0.005
0.0
-0.015
-0.01
0.005
0.0
0.0
-0.01
-0.005
0.005
0.015
0.015
0.0
-0.005
-0.005
0.01
0.035
0.02
0.0
-0.01
-0.005
0.0
0.02
0.035
0.04
0.025
0.03
0.055
0.065
0.055
0.06
0.06
0.07
0.085
0.08
0.095
0.09
0.065
0.06
0.065
0.07
0.075
0.07
0.055
0.055
0.085
0.105
0.105
0.095
0.08
0.095
0.105
0.11
0.1
0.07
0.05
0.045
0.035
0.06
0.055
0.055
0.04
0.04
0.045
0.06
0.05
0.055
0.035
0.03
0.06
0.055
0.06
0.055
0.05
0.03
0.05
0.05
0.065
0.055
0.045
0.055
0.07
0.09
0.075
0.075
0.07
0.09
0.125
0.17
0.2
0.25
0.3
0.38
0.475
0.59
0.735
0.89
1.05
1.225
1.415
1.57
1.755
1.955
2.155
2.295
2.365
2.325
2.115
1.71
1.23
0.785
0.5
0.33
0.23
0.185
0.15
0.12
0.115
0.115
0.1
0.065
0.035
0.01
-0.005
-0.005
-0.025
-0.045
-0.055
-0.04
-0.05
-0.035
-0.045
-0.055
-0.075
-0.065
-0.065
-0.055
-0.065
-0.075
-0.09
-0.085
-0.08
-0.075
-0.065
-0.075
-0.085
-0.1
-0.09
-0.08
-0.09
-0.1
-0.115
-0.105
-0.095
-0.09
-0.1
-0.11
-0.12
-0.115
-0.105
-0.1
-0.1
-0.11
-0.12
-0.105
-0.11
-0.095
-0.105
-0.11
-0.12
-0.13
-0.105
-0.105
-0.095
-0.115
-0.12
-0.11
-0.1
-0.08
-0.09
-0.095
-0.11
-0.105
-0.09
-0.075
-0.06
-0.065
-0.075
-0.08
-0.06
-0.025
-0.02
-0.025
-0.015
-0.01
0.015
0.04
0.055
0.06
0.07
0.08
0.125
0.165
0.19
0.21
0.205
0.225
0.255
0.295
0.3
0.3
0.285
0.285
0.295
0.305
0.29
0.28
0.26
0.265
0.26
0.265
0.235
0.215
0.2
0.185
0.19
0.205
0.195
0.185
0.15
0.155
0.16
0.18
0.175
0.165
0.15
0.145
0.16
0.155
0.155
0.14
0.13
0.15
0.15
0.16
0.145
0.14
0.115
0.12
0.135
0.15
0.14
0.13
0.11
0.105
0.125
0.12
0.125
0.12
0.11
0.105
0.1
0.12
0.115
0.115
0.095
0.105
0.105
0.13
0.125
0.12
0.105
0.1
0.115
0.135
0.14
0.11
0.11
0.095
0.125
0.135
0.135
0.115
0.115
0.105
0.125
0.15
0.125
0.12
0.11
0.12
0.12
0.13
0.115
0.1
0.09
0.1
0.11
0.13
0.13
0.12
0.09
0.095
0.1
0.125
0.115
0.11
0.09
0.09
0.115
0.11
0.115
0.11
0.095
0.09
0.115
0.115
0.115
0.1
0.075
0.1
0.095
0.105
0.09
0.085
0.085
0.085
0.095
0.115
0.105
0.1
0.08
0.08
0.095
0.115
0.11
0.09
0.085
0.085
0.095
0.11
0.1
0.09
0.085
0.08
0.09
0.095
0.1
0.08
0.075
0.08
0.095
0.1
0.11
0.1
0.08
0.085
0.09
0.1
0.1
0.105
0.1
0.11
0.115
0.13
0.13
0.125
0.125
0.125
0.135
0.16
0.15
0.145
0.115
0.135
0.14
0.15
0.13
0.125
0.11
0.105
0.115
0.12
0.125
0.12
0.115
0.115
0.13
0.145
0.135
0.125
0.12
0.115
0.13
0.125
0.105
0.09
0.075
0.07
0.085
0.105
0.1
0.1
0.09
0.08
0.105
0.105
0.11
0.085
0.075
0.085
0.09
0.105
0.105
0.1
0.085
0.085
0.09
0.1
0.095
0.09
0.07
0.085
0.09
0.115
0.11
0.095
0.095
0.105
0.115
0.155
0.17
0.185
0.215
0.275
0.355
0.42
0.47
0.57
0.705
0.855
1.035
1.19
1.325
1.47
1.605
1.8
2.01
2.195
2.28
2.245
2.045
1.66
1.155
0.73
0.455
0.29
0.17
0.14
0.12
0.12
0.1
0.075
0.055
0.035
0.02
0.005
-0.015
-0.035
-0.06
-0.06
-0.055
-0.045
-0.065
-0.065
-0.095
-0.085
-0.075
-0.08
-0.095
-0.105
-0.12
-0.12
-0.115
-0.095
-0.125
-0.12
-0.14
-0.15
-0.135
-0.125
-0.145
-0.15
-0.17
-0.165
-0.155
-0.15
-0.145
-0.17
-0.18
-0.18
-0.17
-0.16
-0.18
-0.17
-0.185
-0.195
-0.18
-0.17
-0.17
-0.175
-0.205
-0.185
-0.18
-0.17
-0.175
-0.185
-0.2
-0.195
-0.185
-0.155
-0.175
-0.17
-0.19
-0.185
-0.165
-0.16
-0.16
-0.16
-0.16
-0.165
-0.15
-0.12
-0.135
-0.12
-0.13
-0.125
-0.095
-0.075
-0.07
-0.07
-0.055
-0.045
-0.02
-0.005
0.015
0.03
0.045
0.065
0.095
0.125
0.135
0.145
0.16
0.17
0.19
0.195
0.2
0.18
0.19
0.18
0.19
0.21
0.2
0.165
0.155
0.155
0.155
0.16
0.13
0.12
0.1
0.095
0.1
0.115
0.1
0.09
0.07
0.08
0.085
0.095
0.09
0.07
0.07
0.06
0.07
0.075
0.07
0.07
0.06
0.065
0.06
0.075
0.065
0.05
0.04
0.045
0.05
0.07
0.07
0.05
0.045
0.03
0.05
0.055
0.045
0.04
0.035
0.03
0.05
0.05
0.045
0.035
0.035
0.04
0.06
0.06
0.06
0.04
0.04
0.035
0.055
0.07
0.08
0.06
0.05
0.06
0.07
0.075
0.075
0.07
0.055
0.06
0.075
0.1
0.085
0.07
0.05
0.06
0.085
0.085
0.095
0.07
0.06
0.06
0.065
0.08
0.075
0.06
0.045
0.055
0.055
0.075
0.065
0.065
0.045
0.05
0.06
0.07
0.065
0.06
0.045
0.045
0.06
0.07
0.06
0.04
0.035
0.05
0.055
0.055
0.055
0.045
0.03
0.04
0.04
0.06
0.055
0.05
0.025
0.035
0.035
0.055
0.035
0.04
0.025
0.045
0.05
0.055
0.05
0.05
0.03
0.03
0.045
0.055
0.05
0.035
0.025
0.035
0.04
0.05
0.045
0.025
0.04
0.03
0.05
0.05
0.045
0.05
0.025
0.02
0.035
0.045
0.05
0.045
0.025
0.04
0.045
0.07
0.06
0.05
0.04
0.035
0.045
0.07
0.06
0.045
0.025
0.035
0.035
0.065
0.06
0.05
0.045
0.045
0.05
0.07
0.07
0.075
0.075
0.075
0.09
0.105
0.105
0.095
0.085
0.095
0.12
0.13
0.125
0.12
0.105
0.09
0.11
0.1
0.09
0.085
0.09
0.075
0.095
0.115
0.11
0.095
0.095
0.09
0.115
0.115
0.115
0.08
0.065
0.06
0.065
0.075
0.065
0.055
0.045
0.045
0.06
0.07
0.07
0.055
0.04
0.035
0.045
0.06
0.06
0.055
0.045
0.055
0.06
0.065
0.065
0.055
0.05
0.04
0.065
0.065
0.07
0.06
0.045
0.055
0.075
0.09
0.085
0.095
0.095
0.125
0.16
0.22
0.27
0.31
0.355
0.415
0.5
0.625
0.775
0.92
1.075
1.225
1.395
1.535
1.695
1.885
2.075
2.205
2.245
2.145
1.885
1.44
0.975
0.585
0.355
0.23
0.145
0.115
0.08
0.085
0.095
0.09
0.075
0.05
0.035
0.01
0.005
0.0
-0.005
-0.03
-0.055
-0.05
-0.04
-0.03
-0.04
-0.05
-0.08
-0.075
-0.05
-0.04
-0.06
-0.08
-0.08
-0.095
-0.07
-0.05
-0.075
-0.085
-0.095
-0.11
-0.105
-0.09
-0.09
-0.115
-0.12
-0.125
-0.1
-0.105
-0.11
-0.125
-0.13
-0.125
-0.11
-0.1
-0.095
-0.115
-0.13
-0.125
-0.12
-0.11
-0.125
-0.135
-0.135
-0.135
-0.12
-0.115
-0.125
-0.13
-0.145
-0.145
-0.12
-0.105
-0.115
-0.12
-0.115
-0.12
-0.12
-0.095
-0.1
-0.115
-0.13
-0.125
-0.1
-0.09
-0.1
-0.1
-0.095
-0.09
-0.075
-0.045
-0.055
-0.045
-0.045
-0.035
-0.025
-0.015
0.015
0.015
0.0
0.035
0.06
0.075
0.09
0.085
0.1
0.12
0.14
0.185
0.2
0.2
0.195
0.2
0.225
0.23
0.225
0.215
0.205
0.2
0.225
0.22
0.215
0.19
0.17
0.16
0.155
0.16
0.165
0.14
0.115
0.11
0.13
0.125
0.12
0.09
0.08
0.085
0.095
0.09
0.09
0.075
0.05
0.07
0.09
0.1
0.095
0.07
0.065
0.075
0.09
0.095
0.085
0.07
0.07
0.075
0.085
0.09
0.085
0.065
0.055
0.055
0.065
0.07
0.07
0.05
0.035
0.045
0.04
0.055
0.06
0.035
0.035
0.025
0.045
0.055
0.04
0.035
0.03
0.025
0.045
0.065
0.055
0.04
0.03
0.04
0.05
0.055
0.04
0.025
0.015
0.035
0.06
0.075
0.065
0.05
0.04
0.035
0.045
0.05
0.045
0.055
0.045
0.05
0.045
0.06
0.06
0.04
0.05
0.05
0.06
0.055
0.06
0.035
0.02
0.035
0.05
0.055
0.035
0.02
0.01
0.025
0.025
0.03
0.02
0.015
-0.005
0.0
0.015
0.035
0.02
0.015
0.01
0.015
0.035
0.035
0.015
0.005
0.01
0.015
0.015
0.015
0.015
0.0
-0.005
-0.005
0.015
0.025
0.005
0.0
0.0
0.01
0.01
0.025
0.015
0.005
-0.005
-0.005
0.01
0.015
0.015
0.015
-0.005
-0.01
0.005
0.015
0.01
-0.005
-0.015
-0.01
0.0
0.015
0.0
-0.015
-0.02
-0.01
0.0
0.015
0.005
-0.01
-0.02
-0.01
0.005
0.015
0.02
0.01
0.005
0.015
0.025
0.035
0.04
0.035
0.035
0.04
0.05
0.06
0.06
0.045
0.035
0.045
0.065
0.075
0.06
0.03
0.02
0.025
0.03
0.035
0.025
0.015
0.02
0.02
0.035
0.055
0.06
0.045
0.035
0.035
0.045
0.03
0.015
0.0
-0.02
-0.02
-0.01
0.015
0.005
0.0
-0.01
-0.015
-0.015
-0.005
0.0
-0.015
-0.025
-0.015
-0.025
-0.01
-0.005
-0.03
-0.03
-0.035
-0.015
0.0
-0.01
-0.02
-0.03
-0.03
-0.01
-0.01
-0.005
-0.035
-0.02
-0.005
0.005
0.035
0.035
0.04
0.065
0.12
0.19
0.255
0.315
0.345
0.41
0.535
0.695
0.87
1.02
1.155
1.29
1.44
1.605
1.8
1.975
2.09
2.11
2.01
1.77
1.385
0.935
0.56
0.315
0.15
0.055
0.035
0.015
0.0
-0.015
-0.025
-0.025
-0.03
-0.075
-0.095
-0.12
-0.145
-0.135
-0.13
-0.15
-0.17
-0.185
-0.18
-0.175
-0.17
-0.175
-0.195
-0.19
-0.185
-0.18
-0.175
-0.19
-0.195
-0.2
-0.205
-0.195
-0.19
-0.21
-0.22
-0.225
-0.23
-0.215
-0.2
-0.215
-0.235
-0.235
-0.245
-0.23
-0.22
-0.235
-0.24
-0.26
-0.255
-0.24
-0.225
-0.23
-0.245
-0.25
-0.26
-0.26
-0.24
-0.235
-0.24
-0.245
-0.24
-0.24
-0.24
-0.235
-0.255
-0.26
-0.24
-0.23
-0.22
-0.24
-0.26
-0.265
-0.265
-0.255
-0.235
-0.225
-0.225
-0.25
-0.255
-0.24
-0.215
-0.22
-0.23
-0.225
-0.21
-0.185
-0.17
-0.175
-0.185
-0.19
-0.16
-0.13
-0.105
-0.095
-0.09
-0.095
-0.08
-0.045
-0.005
0.0
-0.005
0.015
0.035
0.065
0.085
0.08
0.08
0.08
0.09
0.1
0.105
0.1
0.075
0.07
0.07
0.08
0.08
0.07
0.05
0.025
0.015
0.04
0.035
0.015
0.0
-0.005
-0.01
0.005
0.01
0.0
-0.02
-0.035
-0.025
-0.015
-0.015
-0.005
-0.025
-0.04
-0.035
-0.025
-0.01
-0.02
-0.045
-0.055
-0.05
-0.04
-0.04
-0.04
-0.055
-0.065
-0.065
-0.05
-0.03
-0.035
-0.05
-0.065
-0.06
-0.05
-0.045
-0.04
-0.06
-0.07
-0.05
-0.055
-0.04
-0.05
-0.065
-0.065
-0.055
-0.04
-0.04
-0.05
-0.06
-0.07
-0.065
-0.05
-0.04
-0.045
-0.05
-0.05
-0.055
-0.045
-0.045
-0.04
-0.05
-0.06
-0.045
-0.02
-0.03
-0.035
-0.05
-0.055
-0.035
-0.035
-0.035
-0.055
-0.09
-0.11
-0.09
-0.08
-0.065
-0.075
-0.08
-0.09
-0.075
-0.075
-0.065
-0.075
-0.08
-0.095
-0.09
-0.08
-0.07
-0.08
-0.085
-0.09
-0.095
-0.07
-0.06
-0.07
-0.085
-0.1
-0.1
-0.07
-0.07
-0.08
-0.08
-0.09
-0.08
-0.065
-0.045
-0.04
-0.045
-0.05
-0.02
0.01
0.065
0.125
0.185
0.285
0.37
0.49
0.645
0.82
0.98
1.13
1.24
1.36
1.535
1.75
1.985
2.105
2.045
1.715
1.135
0.585
0.225
0.04
-0.045
-0.04
-0.035
-0.05
-0.075
-0.09
-0.115
-0.135
-0.155
-0.16
-0.185
-0.19
-0.2
-0.19
-0.19
-0.2
-0.21
