Lead II
-0.9
-0.9
-0.915
-0.91
-0.9
-0.895
-0.895
-0.87
-0.865
-0.86
-0.86
-0.86
-0.865
-0.885
-0.895
-0.88
-0.895
-0.875
-0.865
-0.86
-0.845
-0.85
-0.845
-0.855
-0.855
-0.86
-0.855
-0.855
-0.86
-0.86
-0.85
-0.84
-0.84
-0.84
-0.835
-0.845
-0.85
-0.865
-0.85
-0.86
-0.845
-0.83
-0.84
-0.825
-0.83
-0.835
-0.835
-0.835
-0.835
-0.85
-0.86
-0.85
-0.86
-0.845
-0.84
-0.835
-0.83
-0.835
-0.845
-0.85
-0.86
-0.86
-0.865
-0.86
-0.855
-0.84
-0.84
-0.835
-0.82
-0.825
-0.835
-0.835
-0.84
-0.83
-0.835
-0.84
-0.835
-0.825
-0.815
-0.82
-0.815
-0.81
-0.825
-0.825
-0.835
-0.84
-0.84
-0.835
-0.835
-0.82
-0.815
-0.815
-0.81
-0.82
-0.83
-0.835
-0.845
-0.845
-0.84
-0.84
-0.84
-0.84
-0.825
-0.82
-0.815
-0.815
-0.815
-0.83
-0.82
-0.835
-0.84
-0.845
-0.845
-0.835
-0.815
-0.815
-0.8
-0.81
-0.81
-0.81
-0.82
-0.83
-0.84
-0.84
-0.845
-0.83
-0.82
-0.815
-0.82
-0.815
-0.82
-0.82
-0.835
-0.85
-0.855
-0.85
-0.845
-0.84
-0.845
-0.83
-0.82
-0.815
-0.82
-0.825
-0.835
-0.84
-0.845
-0.835
-0.835
-0.83
-0.815
-0.8
-0.805
-0.8
-0.81
-0.81
-0.82
-0.815
-0.83
-0.835
-0.82
-0.81
-0.795
-0.785
-0.765
-0.775
-0.76
-0.77
-0.785
-0.8
-0.81
-0.81
-0.795
-0.775
-0.76
-0.745
-0.73
-0.73
-0.725
-0.725
-0.74
-0.765
-0.775
-0.79
-0.79
-0.775
-0.775
-0.755
-0.76
-0.75
-0.745
-0.74
-0.745
-0.745
-0.745
-0.74
-0.74
-0.75
-0.755
-0.765
-0.76
-0.775
-0.78
-0.795
-0.83
-0.85
-0.84
-0.845
-0.845
-0.84
-0.825
-0.815
-0.805
-0.8
-0.815
-0.82
-0.85
-0.86
-0.835
-0.785
-0.69
-0.585
-0.49
-0.42
-0.37
-0.385
-0.515
-0.68
-0.84
-0.94
-0.91
-0.75
-0.51
-0.225
0.07
0.335
0.585
0.795
0.975
1.115
1.205
1.24
1.215
1.17
1.09
0.965
0.79
0.6
0.405
0.21
0.005
-0.185
-0.4
-0.615
-0.795
-0.935
-1.015
-1.055
-1.055
-1.035
-1.01
-1.0
-0.985
-0.98
-0.98
-0.975
-0.965
-0.955
-0.95
-0.94
-0.935
-0.93
-0.92
-0.93
-0.93
-0.93
-0.935
-0.94
-0.95
-0.97
-0.97
-0.96
-0.945
-0.93
-0.92
-0.925
-0.925
-0.93
-0.935
-0.945
-0.94
-0.96
-0.965
-0.955
-0.945
-0.94
-0.94
-0.95
-0.95
-0.95
-0.965
-0.975
-0.99
-0.98
-0.985
-0.99
-0.98
-0.98
-0.97
-0.98
-0.975
-0.985
-0.995
-1.02
-1.03
-1.025
-1.04
-1.035
-1.04
-1.04
-1.015
-1.025
-1.02
-1.025
-1.035
-1.05
-1.06
-1.07
-1.075
-1.065
-1.07
-1.07
-1.07
-1.075
-1.085
-1.095
-1.1
-1.105
-1.115
-1.115
-1.125
-1.125
-1.125
-1.115
-1.12
-1.12
-1.125
-1.145
-1.135
-1.145
-1.145
-1.145
-1.145
-1.125
-1.115
-1.105
-1.095
-1.09
-1.085
-1.075
-1.08
-1.07
-1.065
-1.045
-1.035
-1.015
-0.99
-0.975
-0.96
-0.945
-0.93
-0.91
-0.905
-0.895
-0.885
-0.87
-0.865
-0.84
-0.82
-0.8
-0.785
-0.775
-0.77
-0.785
-0.775
-0.785
-0.785
-0.79
-0.785
-0.785
-0.78
-0.78
-0.775
-0.785
-0.8
-0.815
-0.835
-0.85
-0.86
-0.865
-0.87
-0.88
-0.875
-0.875
-0.88
-0.89
-0.9
-0.915
-0.925
-0.94
-0.935
-0.95
-0.95
-0.93
-0.95
-0.93
-0.93
-0.945
-0.95
-0.94
-0.955
-0.95
-0.945
-0.955
-0.955
-0.945
-0.925
-0.92
-0.92
-0.915
-0.92
-0.925
-0.93
-0.93
-0.94
-0.925
-0.92
-0.905
-0.895
-0.885
-0.875
-0.88
-0.885
-0.89
-0.895
-0.9
-0.9
-0.885
-0.885
-0.875
-0.865
-0.865
-0.85
-0.855
-0.86
-0.875
-0.88
-0.885
-0.88
-0.875
-0.87
-0.865
-0.85
-0.86
-0.855
-0.845
-0.86
-0.865
-0.865
-0.865
-0.865
-0.875
-0.87
-0.845
-0.845
-0.84
-0.835
-0.835
-0.84
-0.845
-0.86
-0.87
-0.86
-0.86
-0.845
-0.85
-0.835
-0.84
-0.825
-0.835
-0.845
-0.845
-0.86
-0.855
-0.855
-0.85
-0.855
-0.845
-0.845
-0.835
-0.82
-0.825
-0.835
-0.84
-0.84
-0.85
-0.855
-0.865
-0.86
-0.855
-0.85
-0.84
-0.845
-0.84
-0.84
-0.835
-0.85
-0.845
-0.85
-0.85
-0.84
-0.845
-0.835
-0.84
-0.835
-0.83
-0.825
-0.84
-0.85
-0.85
-0.86
-0.85
-0.83
-0.845
-0.84
-0.83
-0.82
-0.835
-0.845
-0.855
-0.85
-0.86
-0.865
-0.855
-0.85
-0.835
-0.845
-0.84
-0.825
-0.85
-0.825
-0.835
-0.84
-0.84
-0.85
-0.855
-0.855
-0.835
-0.83
-0.825
-0.82
-0.825
-0.83
-0.85
-0.845
-0.845
-0.84
-0.84
-0.845
-0.84
-0.835
-0.81
-0.82
-0.815
-0.82
-0.835
-0.84
-0.85
-0.845
-0.845
-0.84
-0.835
-0.83
-0.825
-0.815
-0.83
-0.835
-0.85
-0.84
-0.845
-0.84
-0.845
-0.85
-0.84
-0.84
-0.825
-0.825
-0.82
-0.825
-0.825
-0.83
-0.835
-0.835
-0.83
-0.83
-0.825
-0.815
-0.805
-0.815
-0.81
-0.81
-0.795
-0.795
-0.795
-0.79
-0.785
-0.785
-0.785
-0.765
-0.755
-0.75
-0.76
-0.76
-0.785
-0.795
-0.815
-0.82
-0.81
-0.82
-0.8
-0.8
-0.78
-0.775
-0.77
-0.76
-0.74
-0.75
-0.765
-0.765
-0.78
-0.795
-0.795
-0.805
-0.83
-0.82
-0.825
-0.825
-0.83
-0.85
-0.85
-0.865
-0.865
-0.86
-0.855
-0.845
-0.84
-0.835
-0.85
-0.865
-0.875
-0.86
-0.815
-0.75
-0.665
-0.585
-0.505
-0.455
-0.43
-0.47
-0.565
-0.71
-0.825
-0.9
-0.865
-0.71
-0.5
-0.235
0.045
0.31
0.56
0.8
0.995
1.165
1.295
1.36
1.345
1.305
1.215
1.06
0.875
0.66
0.455
0.25
0.035
-0.145
-0.35
-0.545
-0.74
-0.895
-1.01
-1.08
-1.12
-1.115
-1.095
-1.07
-1.05
-1.035
-1.02
-1.01
-0.99
-0.99
-0.985
-0.985
-0.98
-0.975
-0.97
-0.965
-0.975
-0.975
-0.99
-0.99
-0.995
-0.99
-0.995
-0.98
-0.985
-0.98
-0.98
-0.97
-0.97
-0.975
-0.985
-0.995
-0.995
-0.995
-1.0
-1.0
-0.995
-0.995
-0.995
-0.995
-0.985
-1.0
-1.0
-1.015
-1.02
-1.03
-1.03
-1.035
-1.035
-1.03
-1.035
-1.025
-1.03
-1.035
-1.04
-1.045
-1.05
-1.06
-1.065
-1.075
-1.07
-1.065
-1.075
-1.07
-1.08
-1.085
-1.1
-1.11
-1.125
-1.115
-1.13
-1.13
-1.135
-1.145
-1.15
-1.15
-1.14
-1.15
-1.155
-1.17
-1.18
-1.18
-1.18
-1.19
-1.19
-1.175
-1.18
-1.18
-1.18
-1.17
-1.17
-1.165
-1.16
-1.16
-1.155
-1.145
-1.13
-1.105
-1.095
-1.07
-1.06
-1.05
-1.035
-1.03
-1.015
-0.99
-0.98
-0.96
-0.945
-0.925
-0.905
-0.89
-0.89
-0.865
-0.85
-0.85
-0.84
-0.84
-0.84
-0.83
-0.82
-0.815
-0.815
-0.8
-0.8
-0.8
-0.81
-0.825
-0.825
-0.835
-0.845
-0.86
-0.86
-0.86
-0.88
-0.88
-0.9
-0.905
-0.91
-0.93
-0.935
-0.95
-0.955
-0.965
-0.955
-0.965
-0.96
-0.965
-0.965
-0.965
-0.97
-0.97
-0.98
-0.98
-0.98
-0.985
-0.98
-0.965
-0.96
-0.945
-0.955
-0.96
-0.965
-0.965
-0.965
-0.965
-0.96
-0.955
-0.94
-0.945
-0.935
-0.92
-0.91
-0.915
-0.92
-0.92
-0.915
-0.92
-0.915
-0.91
-0.91
-0.91
-0.905
-0.89
-0.895
-0.895
-0.9
-0.9
-0.905
-0.905
-0.91
-0.905
-0.9
-0.89
-0.885
-0.875
-0.875
-0.88
-0.88
-0.885
-0.895
-0.89
-0.885
-0.89
-0.875
-0.875
-0.87
-0.865
-0.87
-0.87
-0.87
-0.88
-0.89
-0.89
-0.89
-0.875
-0.865
-0.865
-0.85
-0.84
-0.84
-0.855
-0.855
-0.87
-0.865
-0.88
-0.875
-0.88
-0.865
-0.845
-0.845
-0.845
-0.85
-0.85
-0.85
-0.87
-0.865
-0.875
-0.875
-0.875
-0.875
-0.87
-0.86
-0.85
-0.855
-0.855
-0.85
-0.86
-0.87
-0.88
-0.875
-0.87
-0.875
-0.88
-0.86
-0.86
-0.85
-0.84
-0.845
-0.865
-0.865
-0.875
-0.86
-0.855
-0.865
-0.855
-0.845
-0.85
-0.85
-0.845
-0.845
-0.87
-0.865
-0.875
-0.88
-0.87
-0.87
-0.845
-0.835
-0.83
-0.83
-0.84
-0.84
-0.845
-0.845
-0.855
-0.86
-0.86
-0.85
-0.835
-0.83
-0.825
-0.83
-0.845
-0.845
-0.84
-0.85
-0.85
-0.855
-0.855
-0.85
-0.84
-0.825
-0.825
-0.82
-0.82
-0.835
-0.84
-0.85
-0.855
-0.865
-0.865
-0.87
-0.845
-0.845
-0.835
-0.835
-0.83
-0.835
-0.83
-0.84
-0.85
-0.865
-0.87
-0.86
-0.855
-0.845
-0.82
-0.825
-0.825
-0.825
-0.83
-0.84
-0.845
-0.845
-0.835
-0.83
-0.825
-0.81
-0.8
-0.8
-0.805
-0.82
-0.83
-0.83
-0.82
-0.815
-0.8
-0.795
-0.79
-0.775
-0.755
-0.76
-0.765
-0.78
-0.805
-0.805
-0.835
-0.84
-0.84
-0.83
-0.82
-0.82
-0.8
-0.78
-0.79
-0.77
-0.77
-0.775
-0.77
-0.78
-0.795
-0.805
-0.805
-0.82
-0.835
-0.83
-0.845
-0.865
-0.865
-0.865
-0.865
-0.875
-0.89
-0.87
-0.855
-0.84
-0.845
-0.84
-0.85
-0.875
-0.885
-0.885
-0.84
-0.76
-0.66
-0.55
-0.46
-0.43
-0.44
-0.515
-0.655
-0.805
-0.91
-0.915
-0.81
-0.585
-0.32
-0.03
0.265
0.54
0.775
0.97
1.125
1.235
1.285
1.29
1.22
1.135
1.0
0.82
0.615
0.405
0.205
-0.005
-0.23
-0.47
-0.7
-0.88
-1.03
-1.115
-1.14
-1.13
-1.115
-1.085
-1.04
-1.02
-0.995
-0.99
-0.985
-0.99
-0.99
-0.995
-0.99
-0.995
-0.99
-0.975
-0.965
-0.96
-0.965
-0.97
-0.98
-0.995
-0.99
-1.0
-0.99
-0.99
-0.985
-0.985
-0.975
-0.975
-0.97
-0.975
-0.98
-0.985
-1.0
-1.015
-1.015
-1.025
-1.005
-1.005
-0.99
-0.985
-0.99
-0.995
-1.01
-1.02
-1.025
-1.035
-1.04
-1.04
-1.03
-1.02
-1.005
-1.015
-1.015
-1.035
-1.04
-1.05
-1.055
-1.065
-1.075
-1.08
-1.07
-1.075
-1.06
-1.065
-1.055
-1.08
-1.085
-1.095
-1.105
-1.12
-1.12
-1.125
-1.125
-1.125
-1.115
-1.115
-1.125
-1.13
-1.14
-1.15
-1.16
-1.165
-1.16
-1.16
-1.155
-1.15
-1.135
-1.14
-1.125
-1.125
-1.13
-1.13
-1.13
-1.12
-1.125
-1.105
-1.09
-1.075
-1.055
-1.04
-1.03
-1.025
-1.015
-0.995
-0.975
-0.965
-0.955
-0.925
-0.9
-0.885
-0.87
-0.865
-0.85
-0.845
-0.835
-0.83
-0.84
-0.835
-0.845
-0.835
-0.82
-0.81
-0.8
-0.805
-0.81
-0.835
-0.845
-0.855
-0.87
-0.885
-0.89
-0.91
-0.92
-0.92
-0.915
-0.925
-0.94
-0.945
-0.95
-0.97
-0.985
-0.99
-0.995
-1.01
-1.01
-0.99
-0.985
-0.99
-0.995
-0.99
-1.0
-1.02
-1.01
-1.035
-1.02
-1.0
-1.0
-0.99
-0.985
-0.975
-0.985
-0.98
-0.99
-1.005
-1.005
-0.99
-0.99
-0.97
-0.975
-0.97
-0.95
-0.95
-0.95
-0.965
-0.965
-0.955
-0.97
-0.955
-0.96
-0.945
-0.935
-0.925
-0.92
-0.92
-0.915
-0.915
-0.92
-0.935
-0.94
-0.93
-0.925
-0.925
-0.925
-0.92
-0.91
-0.92
-0.915
-0.915
-0.915
-0.925
-0.92
-0.925
-0.915
-0.92
-0.915
-0.91
-0.885
-0.91
-0.895
-0.9
-0.9
-0.905
-0.905
-0.9
-0.915
-0.905
-0.9
-0.89
-0.88
-0.875
-0.89
-0.89
-0.905
-0.905
-0.91
-0.905
-0.9
-0.895
-0.88
-0.88
-0.875
-0.86
-0.88
-0.88
-0.885
-0.885
-0.905
-0.9
-0.895
-0.89
-0.88
-0.885
-0.88
-0.87
-0.87
-0.87
-0.885
-0.885
-0.895
-0.885
-0.89
-0.89
-0.88
-0.88
-0.87
-0.86
-0.86
-0.87
-0.88
-0.89
-0.91
-0.9
-0.9
-0.9
-0.895
-0.875
-0.875
-0.865
-0.86
-0.87
-0.87
-0.885
-0.89
-0.9
-0.905
-0.91
-0.905
-0.875
-0.865
-0.875
-0.885
-0.87
-0.865
-0.87
-0.885
-0.88
-0.905
-0.895
-0.89
-0.895
-0.89
-0.88
-0.865
-0.87
-0.875
-0.88
-0.89
-0.885
-0.89
-0.88
-0.87
-0.875
-0.87
-0.85
-0.85
-0.855
-0.87
-0.87
-0.87
-0.875
-0.875
-0.875
-0.88
-0.875
-0.86
-0.855
-0.865
-0.865
-0.88
-0.87
-0.87
-0.88
-0.88
-0.885
-0.88
-0.865
-0.865
-0.855
-0.865
-0.88
-0.87
-0.885
-0.885
-0.89
-0.885
-0.88
-0.885
-0.87
-0.865
-0.865
-0.87
-0.87
-0.86
-0.865
-0.865
-0.855
-0.855
-0.85
-0.835
-0.835
-0.825
-0.835
-0.835
-0.835
-0.82
-0.815
-0.815
-0.8
-0.795
-0.795
-0.79
-0.78
-0.78
-0.795
-0.8
-0.82
-0.82
-0.825
-0.83
-0.83
-0.825
-0.82
-0.8
-0.785
-0.775
-0.765
-0.765
-0.775
-0.785
-0.81
-0.82
-0.84
-0.85
-0.865
-0.885
-0.88
-0.87
-0.865
-0.86
-0.865
-0.885
-0.885
-0.87
-0.885
-0.895
-0.89
-0.89
-0.89
-0.9
-0.875
-0.815
-0.74
-0.635
-0.545
-0.475
-0.445
-0.475
-0.575
-0.75
-0.905
-0.975
-0.945
-0.785
-0.565
-0.28
0.005
0.265
0.51
0.73
0.895
1.025
1.1
1.12
1.09
1.01
0.885
0.725
0.535
0.33
0.15
-0.035
-0.24
-0.445
-0.64
-0.81
-0.95
-1.04
-1.09
-1.11
-1.095
-1.08
-1.06
-1.035
-1.01
-1.0
-0.995
-0.98
-0.965
-0.96
-0.96
-0.97
-0.985
-1.0
-1.0
-0.99
-0.985
-0.975
-0.975
-0.975
-0.975
-0.97
-0.975
-0.98
-0.98
-0.985
-0.99
-1.0
-0.99
-0.985
-0.985
-0.99
-0.985
-1.0
-0.995
-0.995
-1.01
-1.01
-1.02
-1.02
-1.02
-1.015
-1.015
-1.025
-1.005
-1.015
-1.025
-1.03
-1.03
-1.045
-1.045
-1.055
-1.05
-1.065
-1.06
-1.06
-1.065
-1.065
-1.08
-1.08
-1.105
-1.115
-1.115
-1.115
-1.11
-1.13
-1.12
-1.115
-1.12
-1.125
-1.13
-1.135
-1.16
-1.16
-1.16
-1.17
-1.17
-1.17
-1.17
-1.16
-1.165
-1.175
-1.18
-1.19
-1.195
-1.205
-1.21
-1.2
-1.185
-1.18
-1.175
-1.165
-1.17
-1.165
-1.165
-1.15
-1.16
-1.15
-1.145
-1.135
-1.115
-1.09
-1.07
-1.055
-1.025
-1.02
-1.01
-1.005
-0.975
-0.965
-0.945
-0.93
-0.905
-0.895
-0.88
-0.865
-0.84
-0.845
-0.835
-0.84
-0.83
-0.83
-0.825
-0.825
-0.835
-0.815
-0.81
-0.805
-0.815
-0.83
-0.835
-0.855
-0.86
-0.87
-0.89
-0.895
-0.895
-0.9
-0.905
-0.9
-0.905
-0.915
-0.93
-0.935
-0.955
-0.955
-0.965
-0.95
-0.955
-0.95
-0.95
-0.95
-0.95
-0.95
-0.95
-0.95
-0.955
-0.955
-0.96
-0.96
-0.95
-0.95
-0.94
-0.925
-0.935
-0.94
-0.945
-0.955
-0.94
-0.935
-0.94
-0.93
-0.92
-0.925
-0.915
-0.9
-0.895
-0.9
-0.905
-0.9
-0.91
-0.92
-0.905
-0.9
-0.9
-0.89
-0.89
-0.88
-0.88
-0.885
-0.89
-0.89
-0.89
-0.895
-0.895
-0.885
-0.885
-0.875
-0.87
-0.865
-0.865
-0.87
-0.875
-0.885
-0.885
-0.88
-0.89
-0.885
-0.89
-0.88
-0.875
-0.87
-0.87
-0.87
-0.88
-0.875
-0.875
-0.88
-0.885
-0.87
-0.86
-0.85
-0.85
-0.845
-0.84
-0.855
-0.86
-0.875
-0.865
-0.865
-0.875
-0.87
-0.86
-0.86
-0.86
-0.85
-0.845
-0.85
-0.845
-0.86
-0.86
-0.865
-0.87
-0.87
-0.865
-0.86
-0.85
-0.84
-0.845
-0.85
-0.86
-0.875
-0.875
-0.875
-0.88
-0.87
-0.865
-0.865
-0.86
-0.855
-0.845
-0.86
-0.88
-0.865
-0.86
-0.865
-0.86
-0.855
-0.865
-0.85
-0.85
-0.845
-0.84
-0.86
-0.86
-0.86
-0.865
-0.86
-0.86
-0.87
-0.86
-0.845
-0.855
-0.84
-0.84
-0.85
-0.85
-0.86
-0.86
-0.87
-0.86
-0.865
-0.855
-0.845
-0.845
-0.84
-0.84
-0.845
-0.855
-0.86
-0.87
-0.88
-0.86
-0.85
-0.85
-0.845
-0.84
-0.83
-0.83
-0.84
-0.84
-0.84
-0.86
-0.86
-0.86
-0.86
-0.855
-0.84
-0.835
-0.825
-0.83
-0.825
-0.825
-0.835
-0.84
-0.855
-0.855
-0.855
-0.855
-0.845
-0.835
-0.83
-0.835
-0.83
-0.84
-0.85
-0.86
-0.85
-0.845
-0.845
-0.83
-0.82
-0.815
-0.805
-0.795
-0.81
-0.81
-0.83
-0.825
-0.82
-0.8
-0.795
-0.79
-0.765
-0.76
-0.755
-0.755
-0.76
-0.76
-0.775
-0.795
-0.81
-0.815
-0.825
-0.815
-0.81
-0.8
-0.795
-0.785
-0.79
-0.775
-0.77
-0.77
-0.765
-0.77
-0.77
-0.775
-0.785
-0.79
-0.795
-0.795
-0.81
-0.835
-0.845
-0.865
-0.875
-0.88
-0.885
-0.875
-0.86
-0.85
-0.855
-0.84
-0.85
-0.85
-0.85
-0.87
-0.9
-0.9
-0.885
-0.845
-0.755
-0.665
-0.56
-0.495
-0.46
-0.465
-0.535
-0.65
-0.78
-0.89
-0.92
-0.85
-0.675
-0.43
-0.16
0.11
0.38
0.63
0.85
1.025
1.17
1.27
1.32
1.31
1.26
1.155
1.02
0.855
0.66
0.455
0.26
0.055
-0.17
-0.37
-0.575
-0.755
-0.9
-1.02
-1.085
-1.125
-1.125
-1.115
-1.105
-1.09
-1.08
-1.055
-1.04
-1.015
-1.01
-1.0
-0.985
-0.97
-0.985
-0.995
-1.0
-1.01
-1.015
-1.0
-1.01
-1.015
-1.0
-1.0
-0.99
-0.99
-0.99
-1.005
-1.01
-1.025
-1.025
-1.03
-1.04
-1.02
-1.02
-1.02
-1.0
-0.995
-1.005
-1.005
-1.02
-1.025
-1.035
-1.03
-1.035
-1.03
-1.03
-1.02
-1.005
-1.015
-1.025
-1.04
-1.045
-1.055
-1.055
-1.07
-1.065
-1.06
-1.05
-1.055
-1.05
-1.05
-1.05
-1.06
-1.085
-1.095
-1.09
-1.1
-1.105
-1.105
-1.11
-1.11
-1.105
-1.105
-1.115
-1.115
-1.13
-1.145
-1.16
-1.17
-1.17
-1.17
-1.175
-1.16
-1.165
-1.155
-1.17
-1.16
-1.18
-1.19
-1.205
-1.205
-1.22
-1.22
-1.19
-1.185
-1.175
-1.16
-1.15
-1.145
-1.15
-1.155
-1.16
-1.155
-1.14
-1.12
-1.1
-1.07
-1.055
-1.025
-1.005
-0.995
-0.985
-0.975
-0.975
-0.955
-0.945
-0.925
-0.915
-0.885
-0.86
-0.84
-0.835
-0.82
-0.83
-0.84
-0.85
-0.84
-0.855
-0.84
-0.83
-0.83
-0.83
-0.83
-0.83
-0.855
-0.86
-0.885
-0.91
-0.915
-0.925
-0.935
-0.93
-0.94
-0.94
-0.94
-0.945
-0.965
-0.985
-1.01
-1.01
-1.015
-1.015
-1.015
-1.02
-1.0
-0.99
-0.985
-0.99
-0.995
-1.0
-1.01
-1.02
-1.02
-1.015
-1.015
-1.005
-0.995
-0.98
-0.97
-0.975
-0.97
-0.975
-0.975
-0.975
-0.985
-0.98
-0.985
-0.97
-0.96
-0.945
-0.94
-0.945
-0.94
-0.95
-0.945
-0.945
-0.945
-0.95
-0.94
-0.94
-0.925
-0.92
-0.91
-0.91
-0.92
-0.925
-0.93
-0.935
-0.94
-0.925
-0.935
-0.93
-0.925
-0.915
-0.915
-0.905
-0.915
-0.92
-0.925
-0.93
-0.93
-0.93
-0.915
-0.92
-0.92
-0.9
-0.905
-0.9
-0.9
-0.91
-0.91
-0.915
-0.925
-0.945
-0.93
-0.915
-0.905
-0.895
-0.895
-0.9
-0.895
-0.91
-0.92
-0.925
-0.92
-0.925
-0.925
-0.91
-0.915
-0.905
-0.895
-0.895
-0.89
-0.9
-0.91
-0.92
-0.925
-0.925
-0.915
-0.92
-0.915
-0.895
-0.88
-0.9
-0.905
-0.9
-0.905
-0.91
-0.91
-0.915
-0.915
-0.915
-0.89
-0.89
-0.885
-0.885
-0.885
-0.89
-0.905
-0.905
-0.915
-0.92
-0.91
-0.91
-0.905
-0.895
-0.87
-0.88
-0.875
-0.88
-0.89
-0.9
-0.905
-0.905
-0.895
-0.885
-0.885
-0.885
-0.875
-0.88
-0.875
-0.89
-0.9
-0.905
-0.9
-0.905
-0.91
-0.9
-0.91
-0.9
-0.89
-0.885
-0.885
-0.885
-0.895
-0.905
-0.91
-0.915
-0.9
-0.89
-0.89
-0.885
-0.885
-0.885
-0.885
-0.885
-0.9
-0.905
-0.9
-0.905
-0.9
-0.9
-0.895
-0.88
-0.885
-0.9
-0.9
-0.9
-0.895
-0.905
-0.915
-0.91
-0.905
-0.895
-0.88
-0.88
-0.875
-0.87
-0.875
-0.885
-0.895
-0.895
-0.9
-0.89
-0.89
-0.87
-0.865
-0.855
-0.84
-0.85
-0.87
-0.855
-0.87
-0.875
-0.88
-0.88
-0.865
-0.85
-0.84
-0.83
-0.82
-0.805
-0.805
-0.815
-0.81
-0.82
-0.84
-0.84
-0.84
-0.845
-0.835
-0.835
-0.83
-0.835
-0.84
-0.84
-0.835
-0.825
-0.82
-0.81
-0.81
-0.8
-0.81
-0.81
-0.81
-0.83
-0.855
-0.86
-0.885
-0.9
-0.91
-0.93
-0.915
-0.9
-0.9
-0.895
-0.885
-0.885
-0.895
-0.905
-0.93
-0.945
-0.94
-0.95
-0.945
-0.91
-0.85
-0.78
-0.65
-0.57
-0.51
-0.49
-0.505
-0.61
-0.755
-0.92
-1.025
-1.035
-0.925
-0.71
-0.445
-0.175
0.1
0.335
0.57
0.78
0.96
1.085
1.145
1.165
1.14
1.075
0.99
0.825
0.635
0.425
0.2
-0.04
-0.28
-0.535
-0.76
-0.945
-1.06
-1.125
-1.135
-1.16
-1.13
-1.125
-1.1
-1.085
-1.075
-1.065
-1.05
-1.035
-1.03
-1.015
-1.025
-1.025
-1.035
-1.05
-1.05
-1.065
-1.07
-1.07
-1.055
-1.045
-1.045
-1.045
-1.04
-1.03
-1.045
-1.055
-1.055
-1.07
-1.07
-1.07
-1.075
-1.07
-1.065
-1.06
-1.045
-1.05
-1.065
-1.075
-1.075
-1.085
-1.1
-1.095
-1.09
-1.09
-1.095
-1.085
-1.065
-1.075
-1.095
-1.11
-1.115
-1.115
-1.13
-1.13
-1.13
-1.13
-1.125
-1.125
-1.115
-1.135
-1.15
-1.16
-1.165
-1.175
-1.185
-1.19
-1.19
-1.185
-1.185
-1.19
-1.185
-1.195
-1.2
-1.215
-1.22
-1.22
-1.23
-1.225
-1.24
-1.23
-1.23
-1.205
-1.195
-1.2
-1.2
-1.21
-1.21
-1.21
-1.2
-1.19
-1.18
-1.15
-1.14
-1.125
-1.11
-1.095
-1.085
-1.085
-1.075
-1.07
-1.04
-1.02
-1.005
-0.975
-0.96
-0.94
-0.935
-0.92
-0.925
-0.915
-0.92
-0.91
-0.92
-0.925
-0.905
-0.885
-0.875
-0.885
-0.89
-0.895
-0.91
-0.92
-0.92
-0.945
-0.96
-0.965
-0.97
-0.975
-0.975
-0.99
-0.98
-1.01
-1.015
-1.025
-1.04
-1.05
-1.06
-1.065
-1.065
-1.07
-1.065
-1.055
-1.055
-1.06
-1.065
-1.075
-1.08
-1.085
-1.09
-1.09
-1.095
-1.075
-1.075
-1.06
-1.055
-1.05
-1.055
-1.07
-1.08
-1.08
-1.085
-1.08
-1.08
-1.075
-1.065
-1.05
-1.045
-1.04
-1.04
-1.035
-1.05
-1.05
-1.055
-1.045
-1.05
-1.035
-1.025
-1.005
-1.0
-0.995
-1.0
-1.015
-1.03
-1.025
-1.03
-1.03
-1.03
-1.015
-1.0
-1.0
-0.98
-0.99
-0.99
-0.995
-1.015
-1.025
-1.01
-1.02
-1.02
-1.01
-1.0
-0.985
-0.98
-0.98
-0.97
-0.995
-0.995
-1.0
-1.0
-1.005
-1.015
-1.01
-0.995
-0.98
-0.98
-0.98
-0.98
-0.985
-0.99
-1.0
-1.0
-1.005
-1.005
-1.005
-0.99
-0.985
-0.98
-0.975
-0.985
-0.99
-0.98
-0.995
-1.0
-1.0
-0.995
-0.995
-0.98
-0.98
-0.97
-0.98
-0.975
-0.98
-0.985
-0.985
-0.99
-0.985
-0.99
-0.98
-0.995
-0.975
-0.965
-0.98
-0.985
-0.975
-0.985
-0.99
-1.0
-1.01
-1.005
-0.995
-0.99
-0.985
-0.98
-0.985
-0.985
-0.99
-0.995
-0.995
-1.005
-0.995
-0.995
-1.0
-0.985
-0.99
-0.975
-0.98
-0.985
-0.985
-0.985
-0.99
-1.0
-1.01
-1.01
-1.0
-0.99
-0.985
-0.98
-0.98
-0.995
-0.99
-1.005
-1.0
-1.01
-1.01
-0.995
-1.0
-0.99
-1.0
-0.985
-0.98
-0.985
-0.995
-1.0
-1.0
-0.995
-1.005
-1.005
-0.99
-0.995
-0.99
-0.99
-0.985
-1.005
-0.995
-0.995
-1.01
-1.015
-1.01
-1.01
-0.99
-0.99
-0.99
-0.985
-0.985
-1.0
-0.99
-0.99
-0.99
-0.995
-1.0
-0.99
-0.975
-0.985
-0.97
-0.965
-0.97
-0.965
-0.975
-0.965
-0.95
-0.955
-0.945
-0.935
-0.925
-0.92
-0.925
-0.93
-0.94
-0.945
-0.95
-0.965
-0.97
-0.975
-0.985
-0.97
-0.96
-0.945
-0.925
-0.905
-0.91
-0.905
-0.915
-0.925
-0.935
-0.95
-0.97
-0.98
-0.995
-1.005
-1.005
-1.0
-1.01
-1.0
-1.01
-1.02
-1.025
-1.03
-1.03
-1.015
-1.015
-1.015
-1.01
-1.01
-1.03
-1.025
-0.985
-0.925
-0.84
-0.76
-0.675
-0.62
-0.635
-0.73
-0.86
-0.98
-1.035
-0.94
-0.74
-0.465
-0.18
0.105
0.4
0.64
0.85
1.0
1.105
1.18
1.16
1.075
0.94
0.755
0.52
0.275
0.05
-0.165
-0.38
-0.59
-0.79
-0.975
-1.11
-1.215
-1.275
-1.31
-1.305
-1.305
-1.27
-1.255
-1.24
-1.21
-1.185
-1.17
-1.165
-1.15
-1.15
-1.155
-1.18
-1.175
-1.175
-1.18
-1.165
-1.165
-1.155
-1.15
-1.15
-1.16
-1.155
-1.175
-1.17
-1.18
-1.17
-1.17
-1.17
-1.16
-1.165
-1.175
-1.18
-1.195
-1.195
-1.225
-1.23
-1.225
-1.225
-1.21
-1.215
-1.215
-1.195
-1.205
-1.22
-1.215
-1.225
-1.24
-1.25
-1.27
-1.25
-1.25
-1.245
-1.245
-1.245
-1.24
-1.245
-1.255
-1.275
-1.28
-1.285
-1.285
-1.29
-1.29
-1.28
-1.285
-1.285
-1.28
-1.29
-1.295
-1.31
-1.325
-1.33
-1.34
-1.345
-1.35
-1.34
-1.345
-1.335
-1.325
-1.33
-1.335
-1.355
-1.36
-1.37
-1.375
-1.365
-1.36
-1.345
-1.335
-1.32
-1.325
-1.325
-1.31
-1.3
-1.305
-1.305
-1.3
-1.285
-1.28
-1.25
-1.235
-1.215
-1.195
-1.19
-1.18
-1.165
-1.16
-1.155
-1.15
-1.135
-1.115
-1.095
-1.075
-1.045
-1.025
-1.025
-1.015
-1.02
-1.02
-1.025
-1.015
-1.025
-1.01
-1.005
-1.01
-1.01
-1.01
-1.015
-1.03
-1.045
-1.05
-1.08
-1.09
-1.11
-1.115
-1.11
-1.115
-1.11
-1.11
-1.14
-1.145
-1.15
-1.165
-1.17
-1.18
-1.175
-1.175
-1.18
-1.175
-1.18
-1.16
-1.155
-1.165
-1.165
-1.175
-1.175
-1.18
-1.175
-1.17
-1.165
-1.145
-1.16
-1.14
-1.14
-1.13
-1.13
-1.13
-1.14
-1.145
-1.145
-1.155
-1.13
-1.125
-1.115
-1.1
-1.09
-1.095
-1.095
-1.1
-1.11
-1.11
-1.11
-1.105
-1.095
-1.08
-1.07
-1.06
-1.065
-1.06
-1.08
-1.085
-1.085
-1.09
-1.1
-1.08
-1.075
-1.07
-1.06
-1.055
-1.05
-1.05
-1.065
-1.07
-1.07
-1.075
-1.08
-1.065
-1.055
-1.045
-1.035
-1.03
-1.03
-1.035
-1.045
-1.045
-1.05
-1.045
-1.05
-1.055
-1.045
-1.04
-1.03
-1.015
-1.02
-1.02
-1.02
-1.035
-1.035
-1.035
-1.045
-1.04
-1.03
-1.025
-1.02
-1.01
-1.015
-1.01
-1.01
-1.03
-1.045
-1.035
-1.045
-1.04
-1.025
-1.02
-1.015
-1.01
-1.005
-1.0
-1.01
-1.015
-1.02
-1.025
-1.025
-1.025
-1.025
-1.005
-1.0
-0.995
-0.985
-1.0
-1.0
-1.01
-1.025
-1.03
-1.035
-1.03
-1.025
-1.02
-1.01
-1.0
-1.005
-1.0
-1.0
-1.015
-1.03
-1.015
-1.02
-1.03
-1.02
-1.01
-1.01
-0.985
-0.985
-0.99
-1.0
-1.0
-1.0
-1.005
-1.005
-1.005
-1.01
-1.005
-0.995
-0.99
-0.995
-1.0
-1.0
-0.995
-1.005
-1.015
-1.02
-1.02
-1.015
-1.005
-1.005
-0.995
-1.0
-0.99
-0.995
-0.995
-1.005
-1.015
-1.015
-1.01
-1.0
-0.995
-1.0
-0.98
-0.99
-0.995
-0.995
-1.005
-1.0
-1.0
-0.995
-0.98
-0.98
-0.98
-0.985
-0.97
-0.97
-0.965
-0.955
-0.95
-0.95
-0.94
-0.94
-0.925
-0.92
-0.925
-0.92
-0.925
-0.935
-0.94
-0.945
-0.95
-0.955
-0.95
-0.955
-0.95
-0.935
-0.92
-0.905
-0.885
-0.88
-0.885
-0.905
-0.915
-0.93
-0.95
-0.955
-0.975
-0.995
-1.0
-0.985
-0.985
-0.995
-1.015
-1.01
-1.01
-1.03
-1.03
-1.03
-1.015
-1.005
-1.005
-1.005
-1.0
-1.025
-1.025
-1.015
-0.985
-0.915
-0.835
-0.755
-0.67
-0.62
-0.575
-0.575
-0.62
-0.735
-0.89
-1.015
-1.075
-1.025
-0.88
-0.665
-0.385
-0.095
0.185
0.45
0.7
0.915
1.085
1.2
1.225
1.18
1.055
0.86
0.625
0.365
0.115
-0.095
-0.3
-0.515
-0.74
-0.93
-1.08
-1.19
-1.25
-1.275
-1.26
-1.225
-1.215
-1.18
-1.15
-1.135
-1.12
-1.105
-1.1
-1.1
-1.105
-1.115
-1.115
-1.105
-1.1
-1.09
-1.085
-1.095
-1.095
-1.095
-1.1
-1.115
-1.1
-1.11
-1.105
-1.11
-1.1
-1.09
-1.085
-1.08
-1.08
-1.095
-1.1
-1.105
-1.125
-1.125
-1.115
-1.115
-1.11
-1.11
-1.095
-1.1
-1.1
-1.11
-1.12
-1.11
-1.125
-1.13
-1.13
-1.13
-1.13
-1.125
-1.12
-1.12
-1.13
-1.125
-1.14
-1.14
-1.15
-1.17
-1.17
-1.16
-1.16
-1.16
-1.155
-1.155
-1.16
-1.175
-1.175
-1.19
-1.205
-1.23
-1.225
-1.21
-1.22
-1.225
-1.205
-1.21
-1.215
-1.22
-1.225
-1.24
-1.245
-1.25
-1.255
-1.25
-1.245
-1.24
-1.24
-1.24
-1.26
-1.25
-1.255
-1.26
-1.255
-1.255
-1.245
-1.24
-1.22
-1.21
-1.185
-1.18
-1.19
-1.175
-1.175
-1.175
-1.15
-1.15
-1.125
-1.1
-1.075
-1.06
-1.04
-1.02
-1.015
-1.015
-0.995
-0.995
-0.985
-0.97
-0.965
-0.94
-0.925
-0.905
-0.89
-0.885
-0.885
-0.895
-0.91
-0.91
-0.905
-0.905
-0.905
-0.895
-0.89
-0.895
-0.895
-0.905
-0.92
-0.94
-0.96
-0.97
-0.985
-0.995
-1.005
-1.0
-1.015
-1.03
-1.025
-1.04
-1.04
-1.04
-1.05
-1.065
-1.065
-1.075
-1.065
-1.06
-1.06
-1.04
-1.035
-1.04
-1.05
-1.05
-1.055
-1.055
-1.055
-1.06
-1.05
-1.04
-1.035
-1.02
-1.005
-1.01
-1.0
-1.005
-1.01
-1.03
-1.025
-1.01
-1.02
-1.0
-0.99
-0.975
-0.965
-0.965
-0.97
-0.975
-0.98
-0.99
-0.985
-0.99
-0.975
-0.97
-0.955
-0.945
-0.95
-0.925
-0.94
-0.945
-0.945
-0.965
-0.975
-0.98
-0.96
-0.965
-0.965
-0.94
-0.935
-0.935
-0.94
-0.945
-0.935
-0.955
-0.96
-0.955
-0.95
-0.945
-0.93
-0.92
-0.92
-0.925
-0.93
-0.925
-0.925
-0.925
-0.925
-0.93
-0.92
-0.92
-0.9
-0.915
-0.89
-0.895
-0.91
-0.915
-0.91
-0.915
-0.91
-0.925
-0.915
-0.9
-0.9
-0.89
-0.885
-0.88
-0.895
-0.895
-0.895
-0.91
-0.9
-0.9
-0.91
-0.92
-0.9
-0.895
-0.88
-0.88
-0.9
-0.9
-0.915
-0.91
-0.915
-0.915
-0.905
-0.91
-0.895
-0.89
-0.89
-0.885
-0.88
-0.87
-0.88
-0.9
-0.915
-0.91
-0.91
-0.89
-0.88
-0.87
-0.86
-0.855
-0.875
-0.875
-0.88
-0.89
-0.89
-0.9
-0.89
-0.9
-0.885
-0.88
-0.865
-0.87
-0.875
