Lead II
-0.17
-0.16
-0.19
-0.26
-0.33
-0.35
-0.32
-0.275
-0.225
-0.2
-0.185
-0.22
-0.275
-0.365
-0.41
-0.455
-0.43
-0.405
-0.38
-0.35
-0.31
-0.245
-0.175
-0.115
-0.085
-0.07
-0.095
-0.155
-0.21
-0.195
-0.13
-0.01
0.145
0.245
0.26
0.205
0.14
0.09
0.05
0.035
0.065
0.12
0.215
0.285
0.31
0.275
0.205
0.17
0.16
0.18
0.215
0.24
0.26
0.25
0.225
0.215
0.27
0.31
0.325
0.295
0.22
0.14
0.095
0.09
0.1
0.15
0.195
0.25
0.255
0.24
0.175
0.14
0.125
0.13
0.155
0.195
0.25
0.275
0.255
0.22
0.19
0.19
0.21
0.25
0.29
0.33
0.345
0.315
0.295
0.27
0.28
0.335
0.405
0.47
0.515
0.51
0.48
0.39
0.32
0.305
0.335
0.365
0.385
0.375
0.335
0.295
0.275
0.245
0.215
0.195
0.16
0.145
0.15
0.145
0.145
0.145
0.135
0.11
0.1
0.1
0.085
0.095
0.085
0.095
0.11
0.115
0.11
0.085
0.055
0.05
0.065
0.12
0.18
0.28
0.39
0.555
0.74
0.955
1.155
1.34
1.495
1.605
1.645
1.665
1.635
1.605
1.535
1.405
1.2
0.95
0.73
0.565
0.45
0.38
0.325
0.315
0.3
0.28
0.24
0.145
-0.01
-0.17
-0.275
-0.295
-0.24
-0.16
-0.07
0.005
0.0
-0.075
-0.175
-0.245
-0.27
-0.26
-0.21
-0.14
-0.105
-0.095
-0.1
-0.125
-0.175
-0.23
-0.275
-0.295
-0.27
-0.24
-0.22
-0.22
-0.245
-0.27
-0.28
-0.295
-0.305
-0.315
-0.32
-0.325
-0.31
-0.29
-0.26
-0.23
-0.225
-0.26
-0.32
-0.385
-0.43
-0.425
-0.425
-0.435
-0.415
-0.415
-0.43
-0.475
-0.52
-0.58
-0.63
-0.665
-0.675
-0.665
-0.635
-0.59
-0.555
-0.525
-0.495
-0.475
-0.46
-0.5
-0.575
-0.655
-0.71
-0.685
-0.605
-0.515
-0.455
-0.46
-0.47
-0.49
-0.495
-0.465
-0.455
-0.465
-0.48
-0.51
-0.545
-0.6
-0.615
-0.65
-0.685
-0.745
-0.785
-0.81
-0.815
-0.845
-0.925
-1.025
-1.1
-1.15
-1.155
-1.11
-1.055
-1.0
-0.96
-0.945
-0.965
-1.005
-1.045
-1.08
-1.09
-1.08
-1.08
-1.085
-1.095
-1.085
-1.08
-1.07
-1.055
-1.02
-0.975
-0.945
-0.975
-1.025
-1.13
-1.21
-1.23
-1.18
-1.105
-1.035
-0.99
-0.995
-1.05
-1.105
-1.11
-1.085
-1.05
-1.005
-0.955
-0.905
-0.87
-0.845
-0.805
-0.765
-0.725
-0.675
-0.67
-0.67
-0.7
-0.72
-0.745
-0.76
-0.81
-0.85
-0.87
-0.9
-0.89
-0.88
-0.87
-0.88
-0.885
-0.915
-0.945
-0.965
-0.97
-0.95
-0.94
-0.925
-0.91
-0.905
-0.93
-0.995
-1.075
-1.13
-1.15
-1.15
-1.105
-1.04
-0.975
-0.89
-0.825
-0.79
-0.85
-0.955
-1.07
-1.125
-1.11
-1.035
-0.88
-0.69
-0.46
-0.23
-0.005
0.18
0.325
0.47
0.6
0.73
0.815
0.83
0.795
0.695
0.525
0.285
0.01
-0.265
-0.48
-0.62
-0.7
-0.72
-0.725
-0.77
-0.845
-0.97
-1.12
-1.225
-1.285
-1.285
-1.245
-1.185
-1.14
-1.125
-1.12
-1.13
-1.125
-1.1
-1.1
-1.11
-1.125
-1.15
-1.18
-1.175
-1.14
-1.115
-1.11
-1.095
-1.11
-1.12
-1.125
-1.125
-1.15
-1.15
-1.145
-1.145
-1.125
-1.13
-1.135
-1.135
-1.13
-1.14
-1.155
-1.16
-1.18
-1.195
-1.22
-1.22
-1.19
-1.17
-1.11
-1.075
-1.085
-1.145
-1.23
-1.3
-1.32
-1.31
-1.285
-1.25
-1.26
-1.26
-1.29
-1.31
-1.335
-1.345
-1.315
-1.305
-1.25
-1.225
-1.195
-1.19
-1.2
-1.23
-1.24
-1.245
-1.245
-1.23
-1.205
-1.155
-1.1
-1.05
-1.01
-0.98
-0.965
-0.96
-0.99
-1.0
-0.985
-0.94
-0.9
-0.84
-0.795
-0.775
-0.785
-0.825
-0.86
-0.885
-0.88
-0.875
-0.875
-0.89
-0.91
-0.91
-0.905
-0.85
-0.77
-0.69
-0.605
-0.565
-0.595
-0.645
-0.695
-0.715
-0.665
-0.58
-0.475
-0.375
-0.285
-0.19
-0.125
-0.06
-0.015
-0.05
-0.175
-0.42
-0.785
-1.235
-1.67
-2.025
-2.295
-2.485
-2.605
-2.685
-2.745
-2.785
-2.805
-2.805
-2.795
-2.74
-2.69
-2.63
-2.585
-2.485
-2.365
-2.215
-2.045
-1.91
-1.8
-1.725
-1.66
-1.59
-1.53
-1.45
-1.38
-1.34
-1.3
-1.26
-1.19
-1.16
-1.1
-1.0
-0.87
-0.715
-0.595
-0.495
-0.43
-0.375
-0.335
-0.3
-0.27
-0.255
-0.27
-0.305
-0.355
-0.35
-0.33
-0.27
-0.215
-0.205
-0.19
-0.185
-0.19
-0.2
-0.22
-0.21
-0.2
-0.185
-0.16
-0.14
-0.1
-0.07
-0.045
-0.015
0.035
0.09
0.1
0.11
0.095
0.11
0.1
0.125
0.155
0.18
0.225
0.285
0.33
0.32
0.29
0.275
0.27
0.28
0.285
0.285
0.265
0.235
0.205
0.17
0.17
0.185
0.195
0.2
0.165
0.13
0.095
0.05
0.01
-0.035
-0.085
-0.14
-0.175
-0.215
-0.245
-0.285
-0.325
-0.355
-0.38
-0.375
-0.36
-0.365
-0.425
-0.525
-0.635
-0.725
-0.745
-0.715
-0.675
-0.615
-0.575
-0.54
-0.545
-0.55
-0.575
-0.6
-0.605
-0.61
-0.625
-0.65
-0.705
-0.765
-0.785
-0.785
-0.775
-0.76
-0.745
-0.74
-0.72
-0.715
-0.69
-0.68
-0.675
-0.67
-0.645
-0.64
-0.635
-0.625
-0.61
-0.6
-0.6
-0.61
-0.64
-0.64
-0.64
-0.645
-0.68
-0.73
-0.785
-0.805
-0.79
-0.75
-0.7
-0.68
-0.67
-0.685
-0.69
-0.685
-0.67
-0.655
-0.665
-0.66
-0.68
-0.695
-0.7
-0.685
-0.655
-0.625
-0.625
-0.645
-0.7
-0.725
-0.735
-0.72
-0.695
-0.67
-0.65
-0.665
-0.685
-0.695
-0.715
-0.72
-0.715
-0.71
-0.71
-0.745
-0.745
-0.745
-0.72
-0.705
-0.69
-0.68
-0.69
-0.68
-0.675
-0.665
-0.66
-0.645
-0.635
-0.66
-0.675
-0.675
-0.655
-0.615
-0.59
-0.57
-0.6
-0.635
-0.655
-0.66
-0.645
-0.625
-0.615
-0.605
-0.605
-0.59
-0.575
-0.565
-0.54
-0.51
-0.49
-0.46
-0.455
-0.455
-0.445
-0.43
-0.405
-0.375
-0.355
-0.34
-0.32
-0.32
-0.33
-0.355
-0.4
-0.43
-0.45
-0.47
-0.5
-0.55
-0.6
-0.625
-0.64
-0.64
-0.635
-0.625
-0.62
-0.63
-0.655
-0.685
-0.71
-0.705
-0.68
-0.66
-0.64
-0.63
-0.655
-0.67
-0.685
-0.685
-0.675
-0.645
-0.61
-0.57
-0.51
-0.39
-0.245
-0.05
0.15
0.31
0.465
0.605
0.775
0.965
1.155
1.28
1.315
1.265
1.12
0.94
0.74
0.465
0.16
-0.105
-0.315
-0.42
-0.45
-0.435
-0.425
-0.43
-0.48
-0.545
-0.605
-0.705
-0.76
-0.79
-0.79
-0.75
-0.73
-0.74
-0.765
-0.77
-0.775
-0.755
-0.74
-0.73
-0.73
-0.735
-0.74
-0.735
-0.735
-0.74
-0.77
-0.805
-0.82
-0.805
-0.785
-0.755
-0.74
-0.755
-0.76
-0.765
-0.75
-0.735
-0.74
-0.75
-0.77
-0.785
-0.8
-0.86
-0.905
-0.96
-0.97
-0.95
-0.9
-0.85
-0.795
-0.76
-0.77
-0.795
-0.82
-0.875
-0.95
-0.995
-1.025
-0.995
-0.955
-0.92
-0.925
-0.965
-1.03
-1.095
-1.15
-1.18
-1.175
-1.17
-1.135
-1.105
-1.075
-1.045
-1.07
-1.085
-1.105
-1.1
-1.075
-1.05
-1.015
-1.01
-1.01
-1.0
-0.97
-0.885
-0.82
-0.79
-0.795
-0.855
-0.935
-1.01
-1.03
-0.98
-0.895
-0.735
-0.605
-0.53
-0.54
-0.6
-0.635
-0.635
-0.6
-0.54
-0.51
-0.51
-0.55
-0.595
-0.615
-0.605
-0.59
-0.56
-0.55
-0.55
-0.57
-0.605
-0.64
-0.66
-0.635
-0.58
-0.52
-0.475
-0.475
-0.48
-0.49
-0.485
-0.475
-0.47
-0.485
-0.515
-0.54
-0.525
-0.49
-0.475
-0.505
-0.57
-0.62
-0.625
-0.57
-0.52
-0.47
-0.455
-0.45
-0.45
-0.385
-0.345
-0.35
-0.42
-0.495
-0.55
-0.56
-0.51
-0.43
-0.34
-0.235
-0.17
-0.15
-0.18
-0.22
-0.225
-0.195
-0.15
-0.11
-0.085
-0.12
-0.195
-0.29
-0.35
-0.35
-0.32
-0.305
-0.265
-0.25
-0.26
-0.27
-0.285
-0.305
-0.305
-0.305
-0.29
-0.275
-0.305
-0.34
-0.355
-0.345
-0.325
-0.31
-0.34
-0.385
-0.43
-0.43
-0.405
-0.36
-0.305
-0.265
-0.235
-0.22
-0.195
-0.145
-0.07
0.065
0.25
0.485
0.73
0.96
1.155
1.295
1.42
1.535
1.585
1.6
1.555
1.435
1.24
0.98
0.68
0.445
0.28
0.18
0.11
0.055
-0.005
-0.04
-0.065
-0.1
-0.17
-0.26
-0.345
-0.345
-0.33
-0.29
-0.28
-0.295
-0.34
-0.375
-0.375
-0.36
-0.36
-0.34
-0.36
-0.375
-0.4
-0.39
-0.345
-0.32
-0.32
-0.36
-0.385
-0.415
-0.42
-0.42
-0.43
-0.455
-0.46
-0.455
-0.42
-0.38
-0.355
-0.34
-0.375
-0.39
-0.42
-0.445
-0.465
-0.505
-0.515
-0.525
-0.515
-0.51
-0.515
-0.52
-0.535
-0.53
-0.555
-0.58
-0.62
-0.65
-0.685
-0.695
-0.675
-0.67
-0.645
-0.64
-0.63
-0.625
-0.63
-0.645
-0.69
-0.72
-0.72
-0.72
-0.67
-0.635
-0.59
-0.56
-0.545
-0.535
-0.545
-0.525
-0.515
-0.475
-0.435
-0.395
-0.405
-0.435
-0.475
-0.49
-0.47
-0.425
-0.39
-0.365
-0.35
-0.335
-0.35
-0.375
-0.425
-0.485
-0.54
-0.54
-0.51
-0.475
-0.415
-0.39
-0.38
-0.37
-0.38
-0.405
-0.425
-0.42
-0.405
-0.385
-0.37
-0.34
-0.335
-0.35
-0.415
-0.475
-0.525
-0.555
-0.52
-0.475
-0.42
-0.385
-0.39
-0.41
-0.435
-0.455
-0.48
-0.485
-0.505
-0.49
-0.45
-0.395
-0.34
-0.31
-0.285
-0.305
-0.335
-0.365
-0.375
-0.345
-0.265
-0.17
-0.085
-0.06
-0.085
-0.135
-0.18
-0.225
-0.275
-0.31
-0.325
-0.29
-0.22
-0.175
-0.14
-0.14
-0.165
-0.205
-0.28
-0.36
-0.445
-0.49
-0.49
-0.47
-0.435
-0.43
-0.41
-0.42
-0.455
-0.48
-0.495
-0.505
-0.51
-0.485
-0.465
-0.455
-0.455
-0.465
-0.475
-0.48
-0.5
-0.505
-0.515
-0.49
-0.46
-0.375
-0.285
-0.155
0.005
0.19
0.4
0.58
0.745
0.915
1.085
1.23
1.345
1.38
1.365
1.3
1.185
0.995
0.76
0.48
0.195
-0.035
-0.195
-0.275
-0.28
-0.235
-0.18
-0.195
-0.33
-0.505
-0.665
-0.765
-0.785
-0.76
-0.72
-0.67
-0.625
-0.605
-0.585
-0.58
-0.565
-0.565
-0.57
-0.59
-0.62
-0.65
-0.655
-0.65
-0.63
-0.62
-0.605
-0.58
-0.58
-0.59
-0.62
-0.635
-0.67
-0.67
-0.655
-0.645
-0.595
-0.55
-0.515
-0.515
-0.585
-0.69
-0.78
-0.835
-0.835
-0.77
-0.705
-0.655
-0.64
-0.645
-0.67
-0.695
-0.73
-0.76
-0.76
-0.77
-0.76
-0.765
-0.79
-0.815
-0.83
-0.835
-0.85
-0.82
-0.8
-0.785
-0.77
-0.77
-0.765
-0.8
-0.83
-0.82
-0.775
-0.66
-0.56
-0.5
-0.555
-0.68
-0.785
-0.815
-0.765
-0.69
-0.625
-0.57
-0.53
-0.505
-0.485
-0.49
-0.46
-0.42
-0.385
-0.395
-0.41
-0.425
-0.445
-0.455
-0.45
-0.425
-0.395
-0.37
-0.335
-0.305
-0.27
-0.25
-0.22
-0.165
-0.14
-0.135
-0.155
-0.14
-0.13
-0.04
0.05
0.135
0.225
0.3
0.35
0.36
0.29
0.165
-0.065
-0.39
-0.76
-1.12
-1.425
-1.655
-1.8
-1.92
-2.015
-2.09
-2.145
-2.2
-2.23
-2.22
-2.2
-2.15
-2.075
-2.0
-1.89
-1.765
-1.665
-1.57
-1.515
-1.44
-1.37
-1.28
-1.165
-1.045
-0.885
-0.74
-0.665
-0.64
-0.66
-0.675
-0.62
-0.525
-0.38
-0.235
-0.105
-0.02
0.045
0.08
0.095
0.105
0.11
0.12
0.145
0.145
0.145
0.135
0.13
0.12
0.15
0.195
0.24
0.275
0.295
0.31
0.32
0.325
0.31
0.29
0.27
0.275
0.29
0.31
0.315
0.345
0.37
0.405
0.445
0.475
0.515
0.555
0.575
0.56
0.55
0.55
0.56
0.59
0.615
0.655
0.675
0.68
0.68
0.705
0.735
0.77
0.81
0.805
0.78
0.765
0.78
0.805
0.76
0.67
0.525
0.39
0.3
0.25
0.255
0.275
0.295
0.31
0.29
0.26
0.175
0.095
0.025
-0.01
-0.02
0.025
0.075
0.09
0.04
-0.04
-0.14
-0.205
-0.2
-0.19
-0.19
-0.195
-0.2
-0.225
-0.23
-0.235
-0.235
-0.24
-0.235
-0.23
-0.215
-0.175
-0.105
-0.085
-0.14
-0.255
-0.325
-0.385
-0.4
-0.41
-0.41
-0.36
-0.315
-0.27
-0.245
-0.255
-0.285
-0.315
-0.33
-0.315
-0.295
-0.275
-0.25
-0.225
-0.21
-0.19
-0.165
-0.17
-0.185
-0.205
-0.225
-0.24
-0.28
-0.365
-0.445
-0.505
-0.53
-0.495
-0.425
-0.37
-0.335
-0.295
-0.27
-0.225
-0.165
-0.155
-0.19
-0.26
-0.33
-0.385
-0.375
-0.32
-0.26
-0.23
-0.245
-0.285
-0.35
-0.4
-0.435
-0.475
-0.49
-0.475
-0.445
-0.39
-0.345
-0.32
-0.305
-0.305
-0.345
-0.365
-0.39
-0.385
-0.37
-0.325
-0.275
-0.245
-0.24
-0.25
-0.3
-0.325
-0.375
-0.405
-0.405
-0.37
-0.33
-0.275
-0.245
-0.235
-0.26
-0.295
-0.315
-0.325
-0.3
-0.245
-0.175
-0.115
-0.05
0.01
0.015
-0.025
-0.06
-0.09
-0.12
-0.13
-0.125
-0.085
-0.04
-0.025
-0.055
-0.145
-0.22
-0.25
-0.27
-0.255
-0.25
-0.255
-0.255
-0.275
-0.295
-0.34
-0.385
-0.405
-0.41
-0.405
-0.38
-0.37
-0.36
-0.36
-0.36
-0.37
-0.375
-0.375
-0.37
-0.36
-0.35
-0.33
-0.27
-0.145
0.04
0.285
0.51
0.7
0.845
0.945
1.065
1.21
1.345
1.475
1.525
1.475
1.34
1.095
0.77
0.455
0.19
-0.005
-0.1
-0.13
-0.12
-0.1
-0.105
-0.135
-0.21
-0.275
-0.33
-0.385
-0.455
-0.525
-0.575
-0.59
-0.575
-0.555
-0.515
-0.49
-0.46
-0.46
-0.48
-0.515
-0.525
-0.525
-0.525
-0.525
-0.53
-0.545
-0.535
-0.54
-0.55
-0.565
-0.57
-0.605
-0.625
-0.63
-0.62
-0.585
-0.535
-0.525
-0.53
-0.565
-0.615
-0.655
-0.665
-0.655
-0.62
-0.59
-0.585
-0.58
-0.585
-0.605
-0.655
-0.7
-0.745
-0.755
-0.74
-0.705
-0.685
-0.71
-0.765
-0.82
-0.875
-0.925
-0.95
-0.935
-0.91
-0.89
-0.895
-0.9
-0.895
-0.905
-0.915
-0.92
-0.905
-0.895
-0.885
-0.865
-0.855
-0.84
-0.81
-0.755
-0.69
-0.63
-0.645
-0.675
-0.705
-0.725
-0.705
-0.65
-0.59
-0.51
-0.455
-0.44
-0.47
-0.5
-0.515
-0.525
-0.49
-0.465
-0.44
-0.41
-0.395
-0.38
-0.355
-0.35
-0.345
-0.365
-0.38
-0.385
-0.385
-0.37
-0.345
-0.335
-0.325
-0.34
-0.355
-0.395
-0.41
-0.405
-0.395
-0.38
-0.36
-0.335
-0.335
-0.34
-0.345
-0.36
-0.36
-0.335
-0.31
-0.325
-0.345
-0.38
-0.4
-0.38
-0.335
-0.29
-0.23
-0.2
-0.19
-0.18
-0.165
-0.16
-0.12
-0.095
-0.05
-0.01
0.06
0.135
0.245
0.345
0.455
0.575
0.685
0.77
0.845
0.925
0.985
1.03
1.09
1.155
1.225
1.27
1.28
1.205
1.065
0.85
0.555
0.185
-0.22
-0.65
-1.04
-1.335
-1.555
-1.675
-1.7
-1.62
-1.48
-1.355
-1.29
-1.275
-1.275
-1.225
-1.11
-0.975
-0.845
-0.75
-0.645
-0.585
-0.535
-0.48
-0.44
-0.39
-0.37
-0.395
-0.445
-0.48
-0.475
-0.49
-0.47
-0.475
-0.48
-0.485
-0.5
-0.5
-0.47
-0.445
-0.415
-0.415
-0.455
-0.51
-0.53
-0.53
-0.525
-0.495
-0.465
-0.425
-0.4
-0.365
-0.365
-0.38
-0.43
-0.465
-0.5
-0.515
-0.515
-0.505
-0.475
-0.42
-0.36
-0.32
-0.305
-0.315
-0.35
-0.395
-0.405
-0.38
-0.33
-0.275
-0.26
-0.235
-0.24
-0.245
-0.245
-0.245
-0.24
-0.23
-0.21
-0.19
-0.165
-0.155
-0.16
-0.16
-0.17
-0.165
-0.195
-0.21
-0.22
-0.235
-0.24
-0.245
-0.265
-0.3
-0.325
-0.35
-0.365
-0.34
-0.295
-0.25
-0.26
-0.3
-0.35
-0.38
-0.375
-0.355
-0.37
-0.37
-0.385
-0.405
-0.445
-0.46
-0.46
-0.44
-0.415
-0.375
-0.34
-0.33
-0.325
-0.335
-0.345
-0.355
-0.38
-0.4
-0.395
-0.37
-0.345
-0.305
-0.285
-0.315
-0.38
-0.44
-0.45
-0.405
-0.36
-0.29
-0.25
-0.265
-0.285
-0.34
-0.395
-0.445
-0.44
-0.42
-0.385
-0.35
-0.34
-0.34
-0.355
-0.36
-0.355
-0.37
-0.365
-0.38
-0.37
-0.355
-0.33
-0.31
-0.29
-0.29
-0.285
-0.3
-0.32
-0.345
-0.36
-0.355
-0.35
-0.355
-0.395
-0.39
-0.395
-0.395
-0.385
-0.37
-0.335
-0.3
-0.27
-0.265
-0.27
-0.295
-0.31
-0.31
-0.29
-0.25
-0.205
-0.175
-0.16
-0.135
-0.11
-0.085
-0.055
-0.025
-0.02
-0.015
-0.015
-0.015
-0.015
-0.01
0.0
-0.005
-0.02
-0.095
-0.155
-0.22
-0.225
-0.195
-0.175
-0.18
-0.2
-0.245
-0.27
-0.3
-0.32
-0.35
-0.38
-0.4
-0.41
-0.4
-0.385
-0.37
-0.37
-0.36
-0.345
-0.33
-0.325
-0.325
-0.355
-0.37
-0.375
-0.36
-0.32
-0.275
-0.205
-0.115
0.025
0.215
0.4
0.57
0.725
0.9
1.07
1.225
1.37
1.475
1.52
1.47
1.355
1.155
0.905
0.63
0.34
0.11
-0.055
-0.165
-0.24
-0.29
-0.325
-0.335
-0.355
-0.405
-0.47
-0.5
-0.515
-0.5
-0.49
-0.49
-0.51
-0.52
-0.52
-0.505
-0.48
-0.455
-0.465
-0.48
-0.51
-0.52
-0.515
-0.465
-0.445
-0.45
-0.51
-0.585
-0.635
-0.65
-0.615
-0.595
-0.58
-0.59
-0.585
-0.595
-0.605
-0.585
-0.59
-0.595
-0.6
-0.6
-0.59
-0.58
-0.57
-0.575
-0.59
-0.615
-0.635
-0.655
-0.655
-0.66
-0.655
-0.65
-0.655
-0.67
-0.685
-0.705
-0.725
-0.745
-0.75
-0.76
-0.76
-0.775
-0.775
-0.785
-0.8
-0.825
-0.83
-0.83
-0.83
-0.825
-0.815
-0.81
-0.785
-0.775
-0.76
-0.755
-0.755
-0.755
-0.74
-0.725
-0.695
-0.64
-0.595
-0.56
-0.535
-0.535
-0.535
-0.515
-0.495
-0.49
-0.465
-0.45
-0.435
-0.39
-0.365
-0.335
-0.31
-0.285
-0.285
-0.29
-0.305
-0.315
-0.34
-0.33
-0.325
-0.305
-0.29
-0.28
-0.26
-0.27
-0.265
-0.255
-0.24
-0.23
-0.23
-0.215
-0.22
-0.26
-0.29
-0.325
-0.33
-0.3
-0.28
-0.285
-0.295
-0.315
-0.325
-0.315
-0.275
-0.23
-0.175
-0.11
-0.07
-0.11
-0.18
-0.275
-0.325
-0.295
-0.21
-0.13
-0.1
-0.105
-0.125
-0.13
-0.125
-0.11
-0.095
-0.055
-0.02
0.01
0.02
0.035
0.035
0.015
-0.01
-0.03
-0.035
-0.035
-0.02
-0.04
-0.04
-0.065
-0.08
-0.08
-0.105
-0.1
-0.12
-0.135
-0.155
-0.17
-0.185
-0.22
-0.26
-0.29
-0.315
-0.305
-0.28
-0.25
-0.225
-0.235
-0.24
-0.285
-0.31
-0.32
-0.305
-0.275
-0.23
-0.18
-0.17
-0.21
-0.255
-0.3
-0.285
-0.19
-0.025
0.22
0.46
0.675
0.815
0.97
1.115
1.265
1.4
1.505
1.53
1.485
1.395
1.22
1.005
0.745
0.47
0.245
0.075
0.0
-0.065
-0.09
-0.105
-0.145
-0.185
-0.26
-0.325
-0.365
-0.415
-0.45
-0.45
-0.45
-0.43
-0.405
-0.375
-0.375
-0.405
-0.45
-0.5
-0.525
-0.535
-0.515
-0.46
-0.405
-0.365
-0.375
-0.41
-0.46
-0.485
-0.485
-0.475
-0.465
-0.47
-0.47
-0.485
-0.475
-0.465
-0.45
-0.43
-0.42
-0.43
-0.45
-0.49
-0.525
-0.55
-0.56
-0.565
-0.555
-0.535
-0.52
-0.51
-0.505
-0.495
-0.485
-0.505
-0.52
-0.555
-0.585
-0.6
-0.595
-0.58
-0.54
-0.525
-0.545
-0.57
-0.595
-0.62
-0.625
-0.625
-0.61
-0.59
-0.57
-0.555
-0.555
-0.565
-0.575
-0.575
-0.56
-0.545
-0.505
-0.485
-0.435
-0.395
-0.34
-0.32
-0.315
-0.29
-0.29
-0.28
-0.275
-0.26
-0.25
-0.245
-0.255
-0.235
-0.205
-0.185
-0.155
-0.145
-0.135
-0.13
-0.13
-0.12
-0.135
-0.145
-0.165
-0.165
-0.165
-0.145
-0.12
-0.09
-0.07
-0.06
-0.05
-0.05
-0.08
-0.12
-0.16
-0.175
-0.165
-0.145
-0.12
-0.095
-0.09
-0.08
-0.07
-0.075
-0.07
-0.08
-0.085
-0.085
-0.08
-0.09
-0.08
-0.08
-0.08
-0.065
-0.055
-0.035
-0.02
0.015
0.045
0.085
0.1
0.105
0.11
0.14
0.175
0.24
0.29
0.285
0.255
0.195
0.15
0.12
0.13
0.155
0.2
0.24
0.27
0.245
0.215
0.15
0.08
0.005
-0.045
-0.085
-0.11
-0.095
-0.075
-0.03
-0.025
0.0
0.02
-0.025
-0.11
-0.195
-0.255
-0.285
-0.265
-0.225
-0.18
-0.135
-0.125
-0.14
-0.175
-0.19
-0.17
-0.09
0.055
0.245
0.465
0.675
0.87
1.07
1.24
1.38
1.505
1.58
1.585
1.52
1.415
1.235
1.015
0.755
0.51
0.31
0.165
0.08
0.015
-0.03
-0.045
-0.095
-0.145
-0.21
-0.265
-0.3
-0.32
-0.31
-0.315
-0.3
-0.3
-0.305
-0.31
-0.315
-0.335
-0.35
-0.34
-0.345
-0.345
-0.335
-0.345
-0.34
-0.34
-0.35
-0.34
-0.33
-0.31
-0.31
-0.31
-0.32
-0.35
-0.37
-0.385
-0.395
-0.395
-0.385
-0.37
-0.35
-0.34
-0.33
-0.33
-0.36
-0.42
-0.465
-0.495
-0.5
-0.5
-0.51
-0.52
-0.54
-0.545
-0.56
-0.575
-0.585
-0.595
-0.595
-0.605
-0.61
-0.605
-0.61
-0.615
-0.615
-0.61
-0.615
-0.605
-0.61
-0.595
-0.595
-0.59
-0.585
-0.57
-0.54
-0.51
-0.49
-0.46
-0.44
-0.415
-0.385
-0.375
-0.35
-0.345
-0.32
-0.3
-0.285
-0.28
-0.265
-0.265
-0.245
-0.235
-0.215
-0.21
-0.185
-0.205
-0.225
-0.245
-0.255
-0.235
-0.22
-0.185
-0.16
-0.16
-0.19
-0.21
-0.215
-0.2
-0.18
-0.155
-0.15
-0.16
-0.19
-0.2
-0.215
-0.2
-0.17
-0.145
-0.095
-0.07
-0.05
-0.06
-0.055
-0.06
-0.04
-0.01
0.02
0.075
0.14
0.215
0.32
0.42
0.53
0.62
0.7
0.785
0.875
0.975
1.065
1.145
1.225
1.295
1.37
1.38
1.425
1.405
1.295
1.065
0.735
0.315
-0.145
-0.57
-0.925
-1.165
-1.305
-1.35
-1.35
-1.29
-1.21
-1.11
-1.025
-0.975
-0.96
-0.93
-0.885
-0.805
-0.69
-0.57
-0.46
-0.39
-0.335
-0.33
-0.36
-0.385
-0.42
-0.43
-0.42
-0.385
-0.375
-0.34
-0.34
-0.32
-0.315
-0.305
-0.285
-0.27
-0.275
-0.295
-0.33
-0.37
-0.375
-0.36
-0.365
-0.36
-0.36
-0.37
-0.39
-0.395
-0.385
-0.375
-0.37
-0.375
-0.39
-0.405
-0.4
-0.395
-0.38
-0.365
-0.33
-0.32
-0.305
-0.29
-0.27
-0.255
-0.24
-0.215
-0.19
-0.18
-0.185
-0.185
-0.19
-0.135
-0.095
-0.075
-0.095
-0.125
-0.155
-0.17
-0.17
-0.155
-0.135
-0.125
-0.1
-0.095
-0.12
-0.175
-0.235
-0.265
-0.24
-0.19
-0.135
-0.08
-0.06
-0.07
-0.115
-0.165
-0.215
-0.225
-0.2
-0.16
-0.18
-0.235
-0.3
-0.385
-0.465
-0.51
-0.51
-0.47
-0.425
-0.38
-0.35
-0.335
-0.33
-0.33
-0.35
-0.35
-0.34
-0.325
-0.285
-0.285
-0.33
-0.395
-0.455
-0.465
-0.445
-0.4
-0.34
-0.32
-0.335
-0.385
-0.43
-0.46
-0.43
-0.39
-0.355
-0.36
-0.395
-0.45
-0.485
-0.5
-0.48
-0.46
-0.42
-0.42
-0.425
-0.45
-0.435
-0.405
-0.38
-0.36
-0.37
-0.385
-0.365
-0.33
-0.305
-0.3
-0.34
-0.43
-0.495
-0.55
-0.56
-0.515
-0.47
-0.435
-0.41
-0.43
-0.425
-0.41
-0.37
-0.35
-0.345
-0.34
-0.33
-0.345
-0.335
-0.345
-0.355
-0.37
-0.395
-0.44
-0.46
-0.45
-0.39
-0.325
-0.29
-0.285
-0.28
-0.295
-0.28
-0.25
-0.225
-0.21
-0.22
-0.25
-0.295
-0.3
-0.285
-0.23
-0.15
-0.09
-0.085
-0.08
-0.105
-0.125
-0.11
-0.085
-0.045
0.01
0.04
0.035
-0.02
-0.1
-0.155
-0.16
-0.17
-0.155
-0.175
-0.205
-0.23
-0.26
-0.295
-0.31
-0.325
-0.345
-0.33
-0.305
-0.275
-0.245
-0.24
-0.27
-0.35
-0.395
-0.405
-0.37
-0.305
-0.215
-0.225
-0.295
-0.37
-0.42
-0.42
-0.335
-0.195
-0.015
0.21
0.435
0.665
0.865
1.025
1.185
1.335
1.45
1.51
1.51
1.43
1.275
1.035
0.715
0.37
0.095
-0.07
-0.155
-0.225
-0.29
-0.335
-0.35
-0.34
-0.33
-0.36
-0.4
-0.45
-0.51
-0.58
-0.6
-0.59
-0.54
-0.495
-0.49
-0.5
-0.52
-0.535
-0.52
-0.49
-0.45
-0.405
-0.41
-0.455
-0.545
-0.575
-0.575
-0.565
-0.555
-0.54
-0.525
-0.52
-0.535
-0.55
-0.56
-0.54
-0.515
-0.505
-0.515
-0.555
-0.585
-0.585
-0.57
-0.545
-0.55
-0.555
-0.575
-0.6
-0.625
-0.63
-0.645
-0.655
-0.67
-0.68
-0.68
-0.675
-0.685
-0.72
-0.745
-0.77
-0.77
-0.775
-0.765
-0.75
-0.75
-0.745
-0.735
-0.72
-0.75
-0.795
-0.81
-0.79
-0.75
-0.68
-0.645
-0.63
-0.645
-0.655
-0.635
-0.59
-0.53
-0.49
-0.47
-0.475
-0.44
-0.38
-0.355
-0.35
-0.345
-0.335
-0.29
-0.25
-0.205
-0.2
-0.225
-0.255
-0.275
-0.29
-0.33
-0.36
-0.39
-0.38
-0.365
-0.33
-0.32
-0.325
-0.34
-0.355
-0.355
-0.34
-0.3
-0.275
-0.255
-0.245
-0.225
-0.195
-0.175
-0.18
-0.235
-0.275
-0.295
-0.295
-0.27
-0.23
-0.22
-0.21
-0.225
-0.24
-0.25
-0.265
-0.275
-0.265
-0.265
-0.24
-0.205
-0.19
-0.17
-0.165
-0.145
-0.125
-0.095
-0.06
-0.035
-0.015
-0.03
0.02
0.04
0.07
0.1
0.09
0.07
0.045
0.0
-0.035
-0.06
-0.05
-0.01
0.02
0.045
0.04
0.0
-0.03
-0.075
-0.12
-0.17
-0.235
-0.275
-0.295
-0.27
-0.265
-0.25
-0.24
-0.235
-0.235
-0.235
-0.235
-0.22
-0.215
-0.21
-0.2
-0.16
-0.13
-0.125
-0.17
-0.23
-0.27
-0.275
-0.23
-0.15
-0.035
0.09
0.26
0.465
0.67
0.88
1.055
1.24
1.415
1.575
1.685
1.735
1.705
1.615
1.46
1.255
0.995
0.715
0.45
0.24
0.095
-0.005
-0.05
-0.075
-0.08
-0.09
-0.12
-0.17
-0.225
-0.25
-0.245
-0.19
-0.2
-0.23
-0.305
-0.405
-0.465
-0.49
-0.46
-0.435
-0.39
-0.365
-0.335
-0.32
-0.32
-0.33
-0.35
-0.35
-0.36
-0.35
-0.36
-0.355
-0.355
-0.355
-0.35
-0.35
-0.36
-0.36
-0.36
-0.37
-0.375
-0.385
-0.38
-0.37
-0.365
-0.355
-0.365
-0.37
-0.365
-0.35
-0.36
-0.375
-0.42
-0.47
-0.505
-0.51
-0.49
-0.475
-0.445
-0.425
-0.405
-0.405
-0.41
-0.44
-0.485
-0.535
-0.585
-0.615
-0.645
-0.645
-0.64
-0.615
-0.59
-0.57
-0.54
-0.51
-0.495
-0.48
-0.47
-0.455
-0.45
-0.43
-0.38
-0.34
-0.275
-0.23
-0.21
-0.235
-0.265
-0.28
-0.285
-0.26
-0.225
-0.185
-0.15
-0.13
-0.115
-0.12
-0.12
-0.14
-0.15
-0.145
-0.15
-0.15
-0.155
-0.155
-0.135
-0.145
-0.16
-0.17
-0.19
-0.195
-0.2
-0.19
-0.18
-0.17
-0.16
-0.145
-0.135
-0.115
-0.115
-0.11
-0.105
-0.08
-0.075
-0.09
-0.125
-0.125
-0.135
-0.13
-0.135
-0.12
-0.11
-0.09
-0.075
-0.06
-0.05
-0.025
-0.025
-0.02
-0.02
-0.02
0.01
0.015
0.025
0.045
0.04
0.05
0.065
0.095
0.13
0.165
0.195
0.205
0.2
0.195
0.18
0.155
0.165
0.17
0.175
0.185
0.175
0.165
0.15
0.12
0.075
0.05
0.015
-0.005
-0.015
-0.045
-0.065
-0.095
-0.125
-0.14
-0.16
-0.16
-0.135
-0.125
-0.115
-0.105
-0.1
-0.12
-0.12
-0.115
-0.105
-0.08
-0.065
-0.06
-0.045
-0.025
0.01
0.06
0.125
0.225
0.38
0.555
0.75
0.93
1.1
1.27
1.405
1.54
1.63
1.7
1.705
1.64
1.55
1.42
1.255
1.065
0.84
0.625
0.45
0.325
0.265
0.215
0.165
0.115
0.07
0.025
-0.03
-0.065
-0.095
-0.12
-0.12
-0.09
-0.065
-0.065
-0.075
-0.105
-0.14
-0.165
-0.17
-0.165
-0.155
-0.14
-0.125
-0.11
-0.115
-0.13
-0.135
-0.16
-0.18
-0.22
-0.23
-0.22
-0.215
-0.205
-0.205
-0.195
-0.185
-0.19
-0.185
-0.17
-0.185
-0.215
-0.25
-0.27
-0.265
-0.255
-0.23
-0.215
-0.22
-0.245
-0.28
-0.305
-0.31
-0.33
-0.33
-0.37
-0.42
-0.47
-0.485
-0.485
-0.465
-0.44
-0.435
-0.465
-0.485
-0.51
-0.53
-0.545
-0.545
-0.56
-0.555
-0.545
-0.535
-0.51
-0.48
-0.465
-0.455
-0.455
-0.44
-0.405
-0.38
-0.35
-0.33
-0.3
-0.28
-0.275
-0.255
-0.245
-0.245
-0.245
-0.245
-0.24
-0.25
-0.24
-0.21
-0.21
-0.21
-0.22
-0.21
-0.225
-0.2
-0.19
-0.19
-0.185
-0.185
-0.165
-0.18
-0.175
-0.155
-0.14
-0.13
-0.14
-0.15
-0.155
-0.18
-0.2
-0.195
-0.19
-0.17
-0.155
-0.145
-0.145
-0.135
-0.135
-0.145
-0.15
-0.16
-0.155
-0.155
-0.145
-0.13
-0.1
-0.08
-0.065
-0.03
-0.03
-0.02
-0.01
-0.01
-0.01
0.01
0.015
0.05
0.07
0.1
0.14
0.165
0.155
0.155
0.115
0.09
0.075
0.075
0.09
0.1
0.105
0.11
0.07
0.01
-0.035
-0.095
-0.13
-0.145
-0.135
-0.13
-0.145
-0.155
-0.165
-0.18
-0.195
-0.215
-0.205
-0.21
-0.205
-0.185
-0.19
-0.18
-0.19
-0.195
-0.19
-0.195
-0.185
-0.14
-0.055
0.07
0.26
0.47
0.69
0.89
1.075
1.235
1.395
1.52
1.6
1.62
1.57
1.47
1.315
1.095
0.82
0.525
0.285
0.13
0.065
0.03
-0.01
-0.045
-0.12
-0.2
-0.27
-0.32
-0.335
-0.335
-0.31
-0.29
-0.29
-0.31
-0.335
-0.35
-0.355
-0.335
-0.32
-0.33
-0.345
-0.35
-0.38
-0.39
-0.39
-0.39
-0.385
-0.4
-0.375
-0.375
-0.38
-0.375
-0.39
-0.4
-0.415
-0.42
-0.42
-0.415
-0.415
-0.435
-0.475
-0.52
-0.525
-0.53
-0.52
-0.5
-0.5
-0.515
-0.53
-0.56
-0.57
-0.57
-0.575
-0.555
-0.55
-0.55
-0.57
-0.62
-0.65
-0.67
-0.67
-0.655
-0.65
-0.66
-0.675
-0.7
-0.71
-0.71
-0.7
-0.705
-0.725
-0.74
-0.755
-0.76
-0.745
-0.71
-0.665
-0.63
-0.61
-0.6
-0.6
-0.59
-0.585
-0.555
-0.555
-0.54
-0.505
-0.485
