Lead II
-0.41
-0.415
-0.425
-0.44
-0.425
-0.41
-0.41
-0.415
-0.425
-0.44
-0.425
-0.42
-0.4
-0.405
-0.415
-0.42
-0.415
-0.405
-0.405
-0.405
-0.415
-0.415
-0.4
-0.395
-0.395
-0.4
-0.41
-0.405
-0.39
-0.375
-0.35
-0.35
-0.34
-0.34
-0.3
-0.275
-0.23
-0.19
-0.16
-0.125
-0.09
-0.06
-0.035
-0.025
-0.005
0.025
0.06
0.1
0.115
0.15
0.255
0.535
1.03
1.545
1.885
1.93
1.81
1.7
1.63
1.59
1.52
1.41
1.31
1.195
1.09
0.975
0.89
0.775
0.64
0.485
0.35
0.19
0.02
-0.14
-0.31
-0.485
-0.64
-0.81
-1.005
-1.205
-1.425
-1.625
-1.8
-1.945
-2.055
-2.145
-2.23
-2.3
-2.36
-2.39
-2.435
-2.51
-2.6
-2.69
-2.76
-2.8
-2.83
-2.87
-2.895
-2.855
-2.745
-2.58
-2.4
-2.23
-2.06
-1.895
-1.715
-1.595
-1.49
-1.425
-1.385
-1.335
-1.27
-1.205
-1.175
-1.16
-1.16
-1.13
-1.08
-1.015
-0.96
-0.885
-0.82
-0.77
-0.715
-0.665
-0.59
-0.535
-0.47
-0.395
-0.305
-0.225
-0.15
-0.075
-0.01
0.045
0.11
0.15
0.17
0.18
0.185
0.2
0.225
0.27
0.295
0.31
0.33
0.35
0.38
0.41
0.435
0.45
0.49
0.505
0.535
0.58
0.615
0.645
0.655
0.665
0.715
0.745
0.795
0.82
0.845
0.865
0.9
0.945
0.99
1.015
1.04
1.065
1.09
1.125
1.14
1.16
1.18
1.2
1.23
1.25
1.26
1.265
1.265
1.26
1.275
1.285
1.29
1.28
1.25
1.235
1.25
1.24
1.22
1.185
1.145
1.13
1.1
1.08
1.06
1.015
0.965
0.925
0.89
0.845
0.805
0.755
0.7
0.65
0.61
0.56
0.51
0.455
0.39
0.34
0.3
0.265
0.215
0.165
0.105
0.055
0.02
-0.005
-0.025
-0.075
-0.11
-0.145
-0.16
-0.165
-0.18
-0.2
-0.23
-0.26
-0.275
-0.27
-0.285
-0.3
-0.305
-0.325
-0.315
-0.315
-0.315
-0.32
-0.33
-0.345
-0.35
-0.33
-0.33
-0.33
-0.35
-0.355
-0.35
-0.34
-0.335
-0.33
-0.35
-0.365
-0.345
-0.34
-0.33
-0.34
-0.34
-0.34
-0.335
-0.32
-0.325
-0.33
-0.335
-0.335
-0.325
-0.32
-0.315
-0.325
-0.325
-0.33
-0.315
-0.295
-0.285
-0.3
-0.285
-0.295
-0.275
-0.265
-0.255
-0.245
-0.24
-0.225
-0.205
-0.165
-0.145
-0.13
-0.105
-0.085
-0.045
-0.01
0.015
0.04
0.05
0.04
0.06
0.095
0.115
0.135
0.115
0.095
0.07
0.055
0.035
0.02
-0.005
-0.015
-0.005
0.01
0.0
-0.03
-0.045
-0.07
-0.09
-0.1
-0.12
-0.15
-0.185
-0.23
-0.245
-0.255
-0.285
-0.31
-0.325
-0.35
-0.355
-0.37
-0.39
-0.415
-0.44
-0.45
-0.455
-0.455
-0.47
-0.48
-0.5
-0.5
-0.51
-0.505
-0.505
-0.505
-0.515
-0.52
-0.515
-0.5
-0.49
-0.5
-0.5
-0.52
-0.505
-0.49
-0.5
-0.515
-0.525
-0.515
-0.51
-0.5
-0.495
-0.5
-0.49
-0.49
-0.48
-0.47
-0.47
-0.47
-0.475
-0.475
-0.44
-0.425
-0.425
-0.4
-0.375
-0.335
-0.21
0.045
0.5
1.135
1.64
1.81
1.71
1.545
1.42
1.345
1.265
1.17
1.055
0.945
0.855
0.77
0.675
0.565
0.455
0.34
0.22
0.09
-0.045
-0.18
-0.315
-0.48
-0.67
-0.885
-1.07
-1.27
-1.445
-1.625
-1.82
-2.005
-2.15
-2.255
-2.295
-2.32
-2.35
-2.37
-2.4
-2.44
-2.495
-2.555
-2.625
-2.665
-2.685
-2.715
-2.755
-2.76
-2.755
-2.7
-2.595
-2.455
-2.275
-2.095
-1.905
-1.72
-1.58
-1.49
-1.415
-1.345
-1.28
-1.195
-1.145
-1.095
-1.03
-0.99
-0.96
-0.945
-0.92
-0.86
-0.77
-0.695
-0.635
-0.575
-0.52
-0.46
-0.39
-0.315
-0.23
-0.145
-0.085
-0.025
0.05
0.12
0.195
0.235
0.26
0.265
0.295
0.315
0.355
0.37
0.38
0.41
0.43
0.46
0.485
0.5
0.53
0.54
0.575
0.6
0.64
0.65
0.675
0.695
0.725
0.765
0.79
0.815
0.835
0.865
0.9
0.94
0.965
0.975
0.985
1.0
1.05
1.08
1.11
1.12
1.13
1.155
1.175
1.195
1.19
1.21
1.21
1.205
1.225
1.23
1.225
1.195
1.18
1.165
1.16
1.155
1.125
1.1
1.075
1.05
1.035
1.0
0.955
0.915
0.88
0.83
0.785
0.76
0.73
0.68
0.625
0.58
0.53
0.495
0.435
0.385
0.345
0.31
0.28
0.28
0.255
0.25
0.235
0.225
0.24
0.255
0.235
0.235
0.2
0.195
0.21
0.21
0.21
0.165
0.125
0.07
0.04
0.015
0.0
-0.02
-0.025
-0.04
-0.04
-0.055
-0.065
-0.08
-0.1
-0.135
-0.16
-0.19
-0.215
-0.24
-0.265
-0.31
-0.34
-0.365
-0.39
-0.415
-0.44
-0.46
-0.465
-0.47
-0.49
-0.5
-0.525
-0.53
-0.54
-0.53
-0.53
-0.54
-0.54
-0.555
-0.54
-0.53
-0.54
-0.53
-0.54
-0.545
-0.55
-0.545
-0.545
-0.545
-0.565
-0.545
-0.53
-0.51
-0.51
-0.535
-0.545
-0.545
-0.54
-0.535
-0.535
-0.53
-0.545
-0.535
-0.525
-0.52
-0.52
-0.525
-0.53
-0.545
-0.535
-0.535
-0.54
-0.54
-0.545
-0.54
-0.53
-0.535
-0.54
-0.56
-0.555
-0.575
-0.56
-0.55
-0.545
-0.545
-0.545
-0.555
-0.545
-0.545
-0.55
-0.55
-0.55
-0.565
-0.565
-0.545
-0.545
-0.55
-0.56
-0.55
-0.56
-0.55
-0.545
-0.56
-0.565
-0.565
-0.55
-0.545
-0.54
-0.545
-0.56
-0.57
-0.56
-0.545
-0.535
-0.55
-0.545
-0.545
-0.535
-0.525
-0.52
-0.515
-0.53
-0.53
-0.52
-0.51
-0.51
-0.505
-0.52
-0.52
-0.49
-0.48
-0.465
-0.45
-0.45
-0.425
-0.39
-0.35
-0.255
-0.05
0.35
0.97
1.53
1.8
1.74
1.565
1.44
1.365
1.31
1.23
1.14
1.035
0.935
0.845
0.765
0.675
0.57
0.445
0.32
0.16
0.0
-0.135
-0.305
-0.47
-0.645
-0.815
-0.98
-1.155
-1.35
-1.545
-1.715
-1.91
-2.065
-2.16
-2.21
-2.285
-2.34
-2.41
-2.44
-2.475
-2.56
-2.635
-2.69
-2.74
-2.77
-2.795
-2.82
-2.82
-2.775
-2.695
-2.545
-2.375
-2.195
-2.005
-1.83
-1.685
-1.545
-1.455
-1.39
-1.335
-1.28
-1.22
-1.135
-1.085
-1.06
-1.06
-1.055
-1.01
-0.945
-0.87
-0.79
-0.71
-0.66
-0.615
-0.55
-0.485
-0.41
-0.335
-0.265
-0.175
-0.08
0.0
0.07
0.12
0.17
0.215
0.24
0.27
0.3
0.315
0.34
0.37
0.42
0.455
0.505
0.545
0.58
0.63
0.7
0.765
0.825
0.88
0.925
0.97
1.01
1.05
1.105
1.145
1.18
1.18
1.19
1.2
1.205
1.235
1.25
1.295
1.315
1.37
1.39
1.41
1.41
1.42
1.43
1.43
1.42
1.39
1.39
1.365
1.375
1.345
1.335
1.31
1.28
1.255
1.24
1.21
1.185
1.135
1.08
1.035
0.99
0.96
0.915
0.855
0.82
0.76
0.71
0.68
0.63
0.565
0.495
0.43
0.38
0.33
0.29
0.225
0.145
0.09
0.025
-0.02
-0.07
-0.13
-0.18
-0.22
-0.235
-0.265
-0.3
-0.345
-0.375
-0.405
-0.425
-0.425
-0.44
-0.455
-0.47
-0.495
-0.49
-0.485
-0.485
-0.5
-0.52
-0.53
-0.525
-0.525
-0.52
-0.53
-0.54
-0.545
-0.53
-0.525
-0.52
-0.535
-0.54
-0.525
-0.515
-0.515
-0.505
-0.495
-0.515
-0.51
-0.515
-0.515
-0.52
-0.52
-0.525
-0.525
-0.515
-0.5
-0.495
-0.5
-0.5
-0.5
-0.495
-0.48
-0.485
-0.48
-0.475
-0.49
-0.49
-0.475
-0.465
-0.48
-0.495
-0.49
-0.485
-0.495
-0.48
-0.475
-0.485
-0.495
-0.475
-0.48
-0.475
-0.475
-0.495
-0.515
-0.505
-0.5
-0.495
-0.5
-0.5
-0.515
-0.495
-0.5
-0.49
-0.495
-0.5
-0.51
-0.505
-0.49
-0.48
-0.48
-0.495
-0.495
-0.485
-0.485
-0.49
-0.495
-0.51
-0.495
-0.49
-0.48
-0.49
-0.475
-0.48
-0.475
-0.465
-0.455
-0.465
-0.475
-0.475
-0.475
-0.46
-0.455
-0.46
-0.475
-0.47
-0.48
-0.465
-0.45
-0.455
-0.455
-0.455
-0.46
-0.455
-0.445
-0.43
-0.43
-0.43
-0.435
-0.43
-0.415
-0.395
-0.395
-0.4
-0.385
-0.38
-0.345
-0.285
-0.185
0.055
0.545
1.18
1.685
1.81
1.685
1.515
1.405
1.355
1.305
1.205
1.095
0.99
0.895
0.795
0.695
0.59
0.455
0.3
0.13
-0.03
-0.18
-0.355
-0.525
-0.735
-0.915
-1.105
-1.3
-1.52
-1.735
-1.905
-2.06
-2.16
-2.205
-2.245
-2.275
-2.31
-2.32
-2.345
-2.39
-2.465
-2.55
-2.595
-2.65
-2.695
-2.74
-2.75
-2.7
-2.585
-2.39
-2.155
-1.93
-1.725
-1.53
-1.385
-1.28
-1.205
-1.13
-1.095
-1.045
-1.0
-0.955
-0.935
-0.945
-0.935
-0.925
-0.885
-0.82
-0.755
-0.675
-0.63
-0.59
-0.54
-0.5
-0.445
-0.375
-0.295
-0.22
-0.145
-0.08
-0.005
0.05
0.115
0.15
0.155
0.18
0.185
0.23
0.245
0.255
0.28
0.295
0.325
0.355
0.385
0.395
0.405
0.43
0.465
0.485
0.515
0.54
0.565
0.6
0.635
0.675
0.7
0.73
0.755
0.79
0.815
0.865
0.885
0.915
0.93
0.965
0.99
1.01
1.045
1.055
1.07
1.09
1.12
1.135
1.135
1.125
1.135
1.12
1.115
1.12
1.1
1.08
1.055
1.035
1.02
1.0
0.97
0.94
0.89
0.86
0.81
0.775
0.74
0.685
0.625
0.57
0.525
0.485
0.445
0.395
0.33
0.27
0.22
0.17
0.125
0.065
0.015
-0.03
-0.06
-0.085
-0.13
-0.17
-0.215
-0.25
-0.26
-0.27
-0.295
-0.315
-0.34
-0.365
-0.37
-0.365
-0.385
-0.4
-0.41
-0.42
-0.42
-0.43
-0.425
-0.445
-0.445
-0.455
-0.45
-0.44
-0.45
-0.455
-0.465
-0.465
-0.465
-0.47
-0.46
-0.465
-0.47
-0.47
-0.475
-0.47
-0.47
-0.475
-0.47
-0.475
-0.455
-0.45
-0.45
-0.445
-0.455
-0.46
-0.44
-0.43
-0.425
-0.44
-0.435
-0.43
-0.425
-0.41
-0.42
-0.425
-0.425
-0.445
-0.43
-0.4
-0.4
-0.41
-0.425
-0.43
-0.435
-0.42
-0.42
-0.43
-0.425
-0.435
-0.43
-0.415
-0.425
-0.425
-0.43
-0.435
-0.43
-0.425
-0.415
-0.42
-0.44
-0.445
-0.425
-0.43
-0.425
-0.44
-0.44
-0.44
-0.43
-0.425
-0.445
-0.445
-0.445
-0.44
-0.43
-0.415
-0.42
-0.4
-0.395
-0.375
-0.35
-0.325
-0.3
-0.275
-0.245
-0.2
-0.16
-0.135
-0.12
-0.11
-0.1
-0.07
-0.02
0.005
0.01
-0.015
-0.04
-0.09
-0.085
-0.085
-0.08
-0.08
-0.09
-0.11
-0.085
-0.1
-0.105
-0.13
-0.175
-0.2
-0.215
-0.225
-0.23
-0.24
-0.235
-0.185
-0.04
0.3
0.835
1.43
1.785
1.81
1.63
1.485
1.39
1.315
1.24
1.135
1.05
0.97
0.875
0.8
0.715
0.615
0.5
0.4
0.275
0.145
0.0
-0.13
-0.29
-0.45
-0.61
-0.785
-0.96
-1.125
-1.29
-1.465
-1.64
-1.815
-1.95
-2.03
-2.065
-2.1
-2.135
-2.185
-2.275
-2.4
-2.495
-2.565
-2.6
-2.67
-2.73
-2.76
-2.73
-2.63
-2.505
-2.345
-2.185
-2.0
-1.805
-1.63
-1.535
-1.47
-1.435
-1.4
-1.335
-1.275
-1.205
-1.19
-1.185
-1.19
-1.15
-1.095
-1.015
-0.93
-0.86
-0.8
-0.74
-0.67
-0.595
-0.52
-0.45
-0.36
-0.265
-0.19
-0.11
-0.055
0.005
0.055
0.095
0.125
0.145
0.15
0.18
0.205
0.245
0.26
0.28
0.305
0.32
0.34
0.38
0.42
0.455
0.465
0.49
0.53
0.57
0.61
0.635
0.665
0.69
0.715
0.765
0.815
0.845
0.865
0.9
0.94
0.99
1.03
1.06
1.085
1.105
1.12
1.16
1.195
1.215
1.215
1.225
1.225
1.235
1.245
1.25
1.255
1.245
1.235
1.23
1.22
1.205
1.17
1.14
1.105
1.075
1.04
1.0
0.95
0.905
0.865
0.825
0.775
0.735
0.69
0.615
0.575
0.525
0.48
0.435
0.365
0.315
0.255
0.21
0.175
0.12
0.075
0.01
-0.03
-0.06
-0.08
-0.115
-0.145
-0.18
-0.22
-0.235
-0.245
-0.25
-0.275
-0.295
-0.31
-0.32
-0.315
-0.31
-0.335
-0.335
-0.35
-0.34
-0.34
-0.34
-0.355
-0.355
-0.36
-0.35
-0.34
-0.345
-0.35
-0.355
-0.365
-0.36
-0.345
-0.335
-0.32
-0.31
-0.295
-0.26
-0.23
-0.205
-0.17
-0.13
-0.075
-0.02
0.005
0.025
0.05
0.055
0.075
0.095
0.125
0.11
0.075
0.045
0.02
0.01
0.01
0.015
0.01
0.0
-0.015
-0.02
-0.035
-0.05
-0.095
-0.13
-0.165
-0.18
-0.2
-0.225
-0.265
-0.305
-0.335
-0.35
-0.37
-0.385
-0.415
-0.445
-0.46
-0.46
-0.465
-0.485
-0.51
-0.5
-0.505
-0.49
-0.495
-0.5
-0.51
-0.52
-0.52
-0.5
-0.49
-0.495
-0.51
-0.515
-0.535
-0.515
-0.515
-0.53
-0.515
-0.53
-0.535
-0.53
-0.515
-0.515
-0.525
-0.535
-0.52
-0.525
-0.505
-0.495
-0.505
-0.505
-0.52
-0.5
-0.505
-0.5
-0.515
-0.515
-0.52
-0.515
-0.5
-0.495
-0.495
-0.5
-0.495
-0.485
-0.465
-0.46
-0.465
-0.475
-0.455
-0.44
-0.415
-0.335
-0.19
0.14
0.71
1.345
1.77
1.81
1.63
1.455
1.365
1.295
1.2
1.085
0.96
0.84
0.74
0.645
0.54
0.425
0.29
0.11
-0.05
-0.22
-0.385
-0.57
-0.75
-0.95
-1.145
-1.325
-1.515
-1.705
-1.885
-2.045
-2.19
-2.27
-2.32
-2.37
-2.415
-2.47
-2.545
-2.615
-2.665
-2.72
-2.755
-2.795
-2.82
-2.795
-2.725
-2.615
-2.455
-2.295
-2.11
-1.925
-1.74
-1.59
-1.49
-1.42
-1.35
-1.255
-1.17
-1.11
-1.06
-1.02
-1.0
-0.97
-0.915
-0.84
-0.77
-0.695
-0.63
-0.56
-0.49
-0.43
-0.365
-0.285
-0.205
-0.105
-0.025
0.045
0.125
0.19
0.25
0.305
0.345
0.36
0.37
0.39
0.405
0.44
0.475
0.49
0.495
0.51
0.525
0.56
0.59
0.615
0.645
0.66
0.68
0.71
0.745
0.78
0.795
0.815
0.845
0.88
0.91
0.935
0.97
0.995
1.02
1.055
1.1
1.12
1.155
1.16
1.185
1.215
1.255
1.26
1.27
1.285
1.295
1.305
1.325
1.32
1.315
1.31
1.31
1.325
1.325
1.33
1.315
1.3
1.285
1.28
1.28
1.275
1.265
1.255
1.25
1.25
1.25
1.22
1.21
1.165
1.13
1.11
1.105
1.08
1.02
0.945
0.845
0.78
0.725
0.655
0.595
0.555
0.51
0.48
0.425
0.37
0.3
0.245
0.185
0.125
0.075
0.025
-0.025
-0.07
-0.125
-0.17
-0.205
-0.24
-0.275
-0.315
-0.35
-0.365
-0.38
-0.4
-0.435
-0.455
-0.485
-0.49
-0.5
-0.52
-0.515
-0.535
-0.545
-0.55
-0.535
-0.545
-0.54
-0.55
-0.555
-0.565
-0.555
-0.555
-0.555
-0.565
-0.57
-0.565
-0.545
-0.545
-0.565
-0.58
-0.57
-0.56
-0.555
-0.555
-0.56
-0.56
-0.57
-0.555
-0.55
-0.55
-0.555
-0.57
-0.575
-0.545
-0.55
-0.55
-0.555
-0.55
-0.56
-0.545
-0.54
-0.55
-0.56
-0.565
-0.57
-0.565
-0.555
-0.545
-0.555
-0.57
-0.58
-0.57
-0.56
-0.555
-0.565
-0.575
-0.575
-0.575
-0.57
-0.565
-0.56
-0.575
-0.575
-0.57
-0.555
-0.565
-0.59
-0.58
-0.58
-0.555
-0.555
-0.555
-0.56
-0.58
-0.58
-0.57
-0.55
-0.56
-0.56
-0.57
-0.575
-0.565
-0.55
-0.555
-0.55
-0.555
-0.57
-0.57
-0.56
-0.55
-0.545
-0.555
-0.56
-0.55
-0.535
-0.53
-0.53
-0.545
-0.545
-0.53
-0.525
-0.525
-0.525
-0.525
-0.53
-0.515
-0.51
-0.5
-0.5
-0.495
-0.51
-0.5
-0.46
-0.455
-0.44
-0.415
-0.36
-0.205
0.09
0.61
1.215
1.665
1.76
1.615
1.46
1.38
1.295
1.23
1.14
1.055
0.985
0.895
0.815
0.73
0.64
0.545
0.445
0.33
0.19
0.05
-0.11
-0.26
-0.405
-0.555
-0.73
-0.92
-1.125
-1.315
-1.5
-1.67
-1.825
-1.95
-2.03
-2.09
-2.14
-2.2
-2.265
-2.335
-2.445
-2.52
-2.59
-2.635
-2.685
-2.76
-2.795
-2.775
-2.685
-2.545
-2.365
-2.195
-2.01
-1.815
-1.645
-1.545
-1.465
-1.42
-1.38
-1.31
-1.235
-1.195
-1.155
-1.125
-1.115
-1.095
-1.07
-1.02
-0.96
-0.885
-0.79
-0.705
-0.62
-0.56
-0.485
-0.4
-0.305
-0.175
-0.03
0.075
0.18
0.25
0.34
0.41
0.46
0.515
0.55
0.585
0.605
0.635
0.62
0.63
0.62
0.625
0.63
0.66
0.685
0.71
0.73
0.725
0.725
0.76
0.775
0.77
0.78
0.77
0.775
0.8
0.815
0.815
0.815
0.815
0.83
0.855
0.87
0.89
0.9
0.925
0.935
0.945
0.97
0.98
0.985
0.99
1.005
1.025
1.055
1.055
1.065
1.055
1.06
1.065
1.065
1.05
1.04
1.025
1.01
1.0
0.995
0.97
0.945
0.91
0.87
0.845
0.82
0.79
0.735
0.69
0.645
0.61
0.575
0.525
0.475
0.42
0.37
0.325
0.29
0.24
0.18
0.12
0.07
0.025
-0.01
-0.055
-0.1
-0.15
-0.185
-0.215
-0.24
-0.285
-0.325
-0.36
-0.395
-0.41
-0.42
-0.45
-0.45
-0.475
-0.49
-0.5
-0.5
-0.52
-0.53
-0.545
-0.555
-0.555
-0.55
-0.55
-0.575
-0.58
-0.575
-0.585
-0.58
-0.585
-0.595
-0.6
-0.6
-0.6
-0.59
-0.59
-0.6
-0.595
-0.61
-0.605
-0.595
-0.595
-0.595
-0.595
-0.585
-0.595
-0.575
-0.575
-0.59
-0.59
-0.6
-0.585
-0.59
-0.585
-0.59
-0.585
-0.595
-0.575
-0.56
-0.55
-0.555
-0.555
-0.555
-0.555
-0.54
-0.53
-0.535
-0.545
-0.555
-0.53
-0.52
-0.53
-0.54
-0.55
-0.545
-0.54
-0.515
-0.525
-0.535
-0.54
-0.545
-0.54
-0.53
-0.535
-0.525
-0.545
-0.555
-0.535
-0.53
-0.54
-0.54
-0.56
-0.56
-0.545
-0.53
-0.535
-0.525
-0.55
-0.545
-0.54
-0.535
-0.535
-0.535
-0.535
-0.525
-0.525
-0.525
-0.53
-0.525
-0.525
-0.53
-0.52
-0.51
-0.515
-0.515
-0.525
-0.53
-0.525
-0.505
-0.505
-0.51
-0.52
-0.52
-0.495
-0.495
-0.505
-0.5
-0.51
-0.505
-0.49
-0.485
-0.49
-0.495
-0.5
-0.505
-0.49
-0.48
-0.475
-0.48
-0.49
-0.48
-0.47
-0.45
-0.445
-0.435
-0.44
-0.435
-0.415
-0.39
-0.355
-0.295
-0.185
0.09
0.605
1.24
1.735
1.835
1.7
1.525
1.445
1.4
1.35
1.28
1.22
1.15
1.095
1.045
0.975
0.885
0.78
0.67
0.585
0.475
0.34
0.155
-0.06
-0.275
-0.48
-0.675
-0.915
-1.155
-1.365
-1.57
-1.77
-1.895
-2.02
-2.09
-2.145
-2.215
-2.245
-2.295
-2.385
-2.5
-2.6
-2.675
-2.715
-2.765
-2.825
-2.85
-2.84
-2.745
-2.59
-2.42
-2.235
-2.055
-1.865
-1.72
-1.595
-1.515
-1.445
-1.38
-1.32
-1.26
-1.205
-1.165
-1.16
-1.135
-1.12
-1.07
-1.005
-0.915
-0.84
-0.785
-0.735
-0.69
-0.63
-0.57
-0.5
-0.43
-0.36
-0.28
-0.185
-0.09
-0.035
0.015
0.06
0.085
0.125
0.155
0.17
0.19
0.22
0.23
0.255
0.28
0.3
0.32
0.355
0.36
0.41
0.435
0.47
0.48
0.51
0.53
0.575
0.61
0.655
0.685
0.715
0.74
0.775
0.845
0.865
0.9
0.925
0.95
0.99
1.035
1.06
1.08
1.1
1.125
1.16
1.195
1.21
1.215
1.23
1.235
1.255
1.26
1.265
1.265
1.245
1.24
1.24
1.25
1.24
1.22
1.205
1.18
1.16
1.135
1.105
1.06
1.03
0.98
0.945
0.915
0.865
0.82
0.755
0.71
0.665
0.625
0.57
0.495
0.44
0.37
0.34
0.295
0.235
0.18
0.13
0.07
0.05
0.01
-0.02
-0.06
-0.085
-0.125
-0.16
-0.175
-0.2
-0.21
-0.24
-0.265
-0.275
-0.28
-0.285
-0.3
-0.31
-0.33
-0.325
-0.32
-0.325
-0.34
-0.34
-0.355
-0.35
-0.35
-0.36
-0.375
-0.37
-0.39
-0.375
-0.36
-0.365
-0.385
-0.385
-0.395
-0.385
-0.375
-0.38
-0.375
-0.39
-0.395
-0.38
-0.38
-0.375
-0.375
-0.375
-0.375
-0.36
-0.355
-0.36
-0.365
-0.375
-0.38
-0.365
-0.35
-0.355
-0.37
-0.36
-0.355
-0.355
-0.345
-0.34
-0.35
-0.35
-0.355
-0.34
-0.33
-0.335
-0.33
-0.345
-0.345
-0.345
-0.345
-0.33
-0.335
-0.345
-0.355
-0.345
-0.335
-0.335
-0.36
-0.36
-0.36
-0.35
-0.34
-0.34
-0.35
-0.35
-0.33
-0.305
-0.29
-0.27
-0.265
-0.24
-0.21
-0.17
-0.125
-0.11
-0.08
-0.06
-0.055
-0.03
0.005
0.04
0.06
0.055
0.045
0.015
0.005
-0.02
-0.04
-0.045
-0.03
-0.025
-0.035
-0.035
-0.05
-0.07
-0.095
-0.11
-0.125
-0.15
-0.175
-0.21
-0.24
-0.27
-0.265
-0.29
-0.325
-0.35
-0.38
-0.39
-0.375
-0.4
-0.4
-0.42
-0.43
-0.435
-0.435
-0.445
-0.445
-0.44
-0.445
-0.42
-0.42
-0.405
-0.395
-0.385
-0.35
-0.28
-0.15
0.155
0.645
1.25
1.73
1.87
1.74
1.555
1.455
1.395
1.33
1.24
1.155
1.08
0.99
0.91
0.84
0.795
0.71
0.6
0.495
0.38
0.26
0.145
0.025
-0.12
-0.265
-0.42
-0.565
-0.71
-0.855
-1.005
-1.175
-1.295
-1.38
-1.435
-1.46
-1.48
-1.505
-1.585
-1.68
-1.805
-1.89
-1.975
-2.055
-2.15
-2.23
-2.27
-2.225
-2.145
-2.03
-1.9
-1.745
-1.585
-1.425
-1.34
-1.28
-1.255
-1.235
-1.175
-1.125
-1.095
-1.04
-1.015
-1.0
-0.99
-0.945
-0.92
-0.88
-0.82
-0.755
-0.695
-0.64
-0.585
-0.54
-0.485
-0.4
-0.32
-0.215
-0.145
-0.085
-0.02
0.04
0.13
0.18
0.2
0.23
0.245
0.255
0.29
0.32
0.35
0.37
0.365
0.39
0.425
0.455
0.48
0.495
0.53
0.55
0.57
0.61
0.625
0.65
0.67
0.705
0.745
0.785
0.82
0.845
0.87
0.89
0.92
0.965
0.995
1.01
1.04
1.065
1.105
1.135
1.15
1.165
1.175
1.185
1.215
1.225
1.23
1.24
1.23
1.23
1.23
1.23
1.23
1.21
1.185
1.165
1.16
1.14
1.11
1.075
1.045
1.005
0.98
0.96
0.92
0.87
0.815
0.77
0.74
0.705
0.66
0.59
0.53
0.475
0.435
0.4
0.35
0.285
0.25
0.205
0.175
0.15
0.105
0.055
0.01
-0.03
-0.035
-0.045
-0.065
-0.095
-0.11
-0.145
-0.14
-0.135
-0.15
-0.15
-0.155
-0.15
-0.135
-0.12
-0.11
-0.085
-0.07
-0.03
0.015
0.07
0.1
0.115
0.12
0.135
0.16
0.16
0.185
0.205
0.2
0.18
0.15
0.13
0.09
0.075
0.055
0.06
0.075
0.085
0.08
0.065
0.045
0.025
0.04
0.01
-0.025
-0.07
-0.09
-0.105
-0.105
-0.135
-0.165
-0.19
-0.225
-0.24
-0.25
-0.245
-0.265
-0.285
-0.295
-0.305
-0.305
-0.315
-0.34
-0.36
-0.36
-0.36
-0.36
-0.36
-0.37
-0.355
-0.365
-0.37
-0.37
-0.355
-0.365
-0.37
-0.38
-0.39
-0.39
-0.37
-0.39
-0.39
-0.395
-0.395
-0.38
-0.37
-0.365
-0.38
-0.395
-0.395
-0.385
-0.375
-0.38
-0.38
-0.39
-0.39
-0.375
-0.37
-0.375
-0.375
-0.385
-0.38
-0.37
-0.365
-0.37
-0.375
-0.385
-0.38
-0.365
-0.35
-0.365
-0.38
-0.385
-0.38
-0.365
-0.36
-0.365
-0.365
-0.375
-0.37
-0.37
-0.355
-0.34
-0.355
-0.365
-0.36
-0.355
-0.33
-0.32
-0.325
-0.335
-0.335
-0.325
-0.315
-0.32
-0.33
-0.32
-0.32
-0.295
-0.29
-0.275
-0.245
-0.2
-0.14
0.035
0.365
0.905
1.51
1.93
1.985
1.82
1.66
1.575
1.505
1.435
1.33
1.255
1.165
1.075
0.99
0.91
0.8
0.68
0.56
0.42
0.27
0.125
-0.04
-0.215
-0.36
-0.55
-0.735
-0.935
-1.125
-1.31
-1.485
-1.685
-1.845
-1.935
-1.99
-2.035
-2.075
-2.12
-2.175
-2.25
-2.345
-2.39
-2.445
-2.48
-2.525
-2.555
-2.555
-2.5
-2.4
-2.26
-2.115
-1.945
-1.755
-1.55
-1.39
-1.28
-1.21
-1.18
-1.12
-1.055
-0.965
-0.9
-0.85
-0.84
-0.825
-0.79
-0.72
-0.65
-0.575
-0.5
-0.455
-0.39
-0.33
-0.265
-0.21
-0.14
-0.07
0.025
0.13
0.205
0.285
0.33
0.41
0.46
0.505
0.53
0.55
0.56
0.58
0.61
0.64
0.67
0.69
0.695
0.72
0.75
0.775
0.805
0.835
0.855
0.87
0.905
0.95
0.97
1.01
1.025
1.045
1.105
1.145
1.17
1.2
1.245
1.28
1.35
1.405
1.445
1.475
1.52
1.575
1.64
1.695
1.72
1.755
1.78
1.805
1.835
1.87
1.875
1.89
1.9
1.88
1.855
1.84
1.81
1.79
1.765
1.75
1.755
1.745
1.715
1.67
1.615
1.575
1.535
1.49
1.42
1.33
1.26
1.21
1.15
1.095
1.025
0.95
0.85
0.775
0.7
0.64
0.575
0.5
0.43
0.375
0.335
0.275
0.195
0.13
0.085
0.045
0.02
0.0
-0.035
-0.06
-0.095
-0.11
-0.13
-0.14
-0.165
-0.185
-0.205
-0.225
-0.23
-0.22
-0.235
-0.26
-0.275
-0.28
-0.285
-0.27
-0.285
-0.28
-0.295
-0.305
-0.305
-0.29
-0.3
-0.315
-0.325
-0.3
-0.295
-0.3
-0.31
-0.31
-0.33
-0.345
-0.35
-0.335
-0.33
-0.31
-0.305
-0.305
-0.26
-0.205
-0.165
-0.11
-0.055
0.005
0.09
0.185
0.265
0.365
0.48
0.61
0.765
0.905
1.025
1.11
1.205
1.32
1.45
1.6
1.74
1.86
1.975
2.08
2.175
2.26
2.305
2.335
2.365
2.365
2.35
2.29
2.24
2.205
2.16
2.015
1.815
1.65
1.59
1.565
1.52
1.43
1.325
1.215
1.03
0.76
0.405
0.045
-0.265
-0.505
-0.725
-0.965
-1.205
-1.405
-1.525
-1.555
-1.545
-1.505
-1.45
-1.38
-1.295
-1.235
-1.18
-1.165
-1.17
-1.19
-1.19
-1.195
-1.21
-1.22
-1.245
-1.25
-1.265
-1.265
-1.295
-1.3
-1.325
-1.34
-1.36
-1.36
-1.39
-1.405
-1.435
-1.45
-1.46
-1.47
-1.49
-1.515
-1.535
-1.56
-1.565
-1.575
-1.6
-1.615
-1.64
-1.655
-1.67
-1.67
-1.68
-1.685
-1.695
-1.72
-1.71
-1.7
-1.71
-1.72
-1.705
-1.7
-1.685
-1.665
-1.66
-1.65
-1.64
-1.63
-1.57
-1.525
-1.485
-1.465
-1.45
-1.43
-1.375
-1.33
-1.29
-1.255
-1.225
-1.17
-1.135
-1.07
-1.045
-1.02
-0.985
-0.96
-0.915
-0.865
-0.84
-0.815
-0.795
-0.77
-0.735
-0.705
-0.68
-0.65
-0.65
-0.615
-0.585
-0.57
-0.55
-0.545
-0.525
-0.495
-0.45
-0.425
-0.4
-0.375
-0.37
-0.34
-0.3
-0.25
-0.2
-0.145
-0.115
-0.07
-0.055
-0.015
0.0
0.015
0.03
0.07
0.1
0.105
0.065
0.03
0.005
-0.025
-0.015
-0.005
-0.015
-0.025
-0.04
-0.05
-0.065
-0.08
-0.105
-0.13
-0.15
-0.185
-0.195
-0.21
-0.24
-0.275
-0.315
-0.335
-0.345
-0.36
-0.365
-0.385
-0.395
-0.41
-0.42
-0.415
-0.435
-0.445
-0.44
-0.425
-0.425
-0.4
-0.41
-0.435
-0.425
-0.425
-0.425
-0.41
-0.41
-0.42
-0.42
-0.42
-0.42
-0.4
-0.405
-0.405
-0.415
-0.425
-0.405
-0.4
-0.4
-0.4
-0.415
-0.415
-0.4
-0.395
-0.385
-0.4
-0.405
-0.4
-0.395
-0.385
-0.385
-0.4
-0.41
-0.4
-0.39
-0.385
-0.395
-0.405
-0.41
-0.415
-0.405
-0.385
-0.385
-0.395
-0.395
-0.4
-0.39
-0.385
-0.385
-0.395
-0.405
-0.4
-0.4
-0.39
-0.4
-0.41
-0.42
-0.415
-0.395
-0.385
-0.39
-0.4
-0.41
-0.41
-0.39
-0.385
-0.38
-0.38
-0.4
-0.39
-0.38
-0.365
-0.36
-0.38
-0.385
-0.39
-0.375
-0.36
-0.37
-0.375
-0.365
-0.37
-0.355
-0.355
-0.36
-0.355
-0.365
-0.36
-0.35
-0.355
-0.35
-0.36
-0.36
-0.36
-0.335
-0.33
-0.335
-0.34
-0.35
-0.36
-0.33
-0.33
-0.315
-0.325
-0.32
-0.33
-0.325
-0.31
-0.32
-0.33
-0.33
-0.325
-0.3
-0.295
-0.305
-0.31
-0.32
-0.31
-0.29
-0.285
-0.275
-0.29
-0.3
-0.285
-0.28
-0.28
-0.275
-0.26
-0.275
-0.26
-0.25
-0.22
-0.185
-0.15
-0.045
0.22
0.745
1.38
1.915
1.995
1.81
1.64
1.55
1.49
1.42
1.315
1.23
1.115
1.035
0.97
0.86
0.755
0.615
0.495
0.355
0.215
0.045
-0.135
-0.32
-0.5
-0.685
-0.875
-1.095
-1.3
-1.505
-1.685
-1.81
-1.875
-1.935
-2.0
-2.06
-2.09
-2.13
-2.205
-2.3
-2.375
-2.435
-2.485
-2.51
-2.52
-2.495
-2.39
-2.205
-1.98
-1.73
-1.5
-1.315
-1.135
-1.01
-0.9
-0.81
-0.7
-0.625
-0.585
-0.565
-0.555
-0.55
-0.555
-0.525
-0.485
-0.455
-0.38
-0.305
-0.24
-0.19
-0.145
-0.12
-0.08
-0.025
0.05
0.105
0.155
0.185
0.225
0.28
0.315
0.32
0.315
0.305
0.315
0.34
0.345
0.35
0.36
0.35
0.355
0.375
0.42
0.45
0.475
0.49
0.515
0.55
0.595
0.615
0.635
0.66
0.685
0.71
0.755
0.78
0.81
0.835
0.865
0.915
0.965
0.98
1.005
1.03
1.06
1.09
1.12
1.14
1.145
1.14
1.16
1.165
1.195
1.19
1.185
1.175
1.18
1.18
1.175
1.15
1.14
1.11
1.095
1.075
1.06
1.03
0.995
0.95
0.91
0.88
0.855
0.815
0.765
0.695
0.65
0.615
0.57
0.53
0.475
0.405
0.36
0.315
0.28
0.22
0.175
0.12
0.065
0.045
0.005
-0.02
-0.065
-0.105
-0.145
-0.165
-0.165
-0.205
-0.225
-0.25
-0.27
-0.29
-0.3
-0.305
-0.335
-0.34
-0.35
-0.34
-0.34
-0.355
-0.365
-0.385
-0.38
-0.375
-0.365
-0.375
-0.39
-0.4
-0.405
-0.395
-0.395
-0.4
-0.41
-0.43
-0.42
-0.4
-0.385
-0.39
-0.41
-0.41
-0.405
-0.39
-0.38
-0.39
-0.415
-0.405
-0.395
-0.375
-0.37
-0.375
-0.385
-0.385
-0.39
-0.385
-0.365
-0.35
-0.365
-0.36
-0.37
-0.36
-0.35
