Lead II
-0.63
-0.64
-0.665
-0.67
-0.66
-0.67
-0.68
-0.685
-0.7
-0.715
-0.7
-0.685
-0.715
-0.715
-0.71
-0.7
-0.675
-0.665
-0.66
-0.655
-0.635
-0.605
-0.58
-0.55
-0.52
-0.505
-0.485
-0.45
-0.43
-0.38
-0.37
-0.37
-0.355
-0.32
-0.28
-0.25
-0.24
-0.26
-0.255
-0.245
-0.21
-0.21
-0.22
-0.225
-0.23
-0.24
-0.23
-0.21
-0.205
-0.215
-0.225
-0.225
-0.225
-0.21
-0.21
-0.21
-0.24
-0.25
-0.225
-0.22
-0.215
-0.225
-0.235
-0.235
-0.215
-0.225
-0.225
-0.23
-0.225
-0.24
-0.23
-0.22
-0.225
-0.23
-0.215
-0.23
-0.23
-0.225
-0.225
-0.225
-0.225
-0.235
-0.215
-0.21
-0.22
-0.225
-0.245
-0.235
-0.21
-0.205
-0.215
-0.225
-0.235
-0.235
-0.215
-0.205
-0.205
-0.22
-0.24
-0.235
-0.22
-0.215
-0.22
-0.235
-0.235
-0.24
-0.215
-0.21
-0.2
-0.225
-0.235
-0.235
-0.225
-0.205
-0.225
-0.215
-0.22
-0.22
-0.22
-0.205
-0.205
-0.23
-0.23
-0.23
-0.2
-0.2
-0.2
-0.23
-0.235
-0.235
-0.21
-0.195
-0.2
-0.225
-0.24
-0.235
-0.21
-0.2
-0.18
-0.19
-0.205
-0.2
-0.19
-0.17
-0.155
-0.165
-0.16
-0.18
-0.175
-0.155
-0.15
-0.155
-0.165
-0.155
-0.15
-0.14
-0.14
-0.15
-0.17
-0.185
-0.17
-0.155
-0.18
-0.185
-0.2
-0.2
-0.19
-0.185
-0.21
-0.225
-0.23
-0.24
-0.22
-0.205
-0.215
-0.245
-0.265
-0.265
-0.24
-0.215
-0.215
-0.225
-0.245
-0.245
-0.24
-0.23
-0.23
-0.23
-0.235
-0.225
-0.205
-0.225
-0.21
-0.22
-0.23
-0.22
-0.195
-0.185
-0.185
-0.2
-0.21
-0.215
-0.15
-0.065
0.07
0.185
0.28
0.39
0.515
0.645
0.8
0.955
1.12
1.245
1.335
1.44
1.585
1.745
1.84
1.88
1.825
1.68
1.42
1.055
0.725
0.535
0.44
0.42
0.405
0.39
0.35
0.315
0.295
0.25
0.225
0.175
0.115
0.08
0.08
0.05
0.01
-0.045
-0.1
-0.14
-0.175
-0.2
-0.25
-0.285
-0.32
-0.335
-0.345
-0.345
-0.365
-0.385
-0.405
-0.38
-0.39
-0.38
-0.39
-0.4
-0.43
-0.43
-0.43
-0.415
-0.42
-0.435
-0.465
-0.465
-0.45
-0.445
-0.45
-0.45
-0.47
-0.485
-0.48
-0.475
-0.485
-0.475
-0.5
-0.495
-0.485
-0.485
-0.495
-0.525
-0.55
-0.54
-0.535
-0.535
-0.54
-0.575
-0.615
-0.605
-0.595
-0.585
-0.62
-0.64
-0.67
-0.665
-0.68
-0.655
-0.655
-0.67
-0.68
-0.695
-0.7
-0.69
-0.685
-0.7
-0.7
-0.705
-0.705
-0.675
-0.655
-0.655
-0.66
-0.645
-0.6
-0.59
-0.59
-0.59
-0.565
-0.54
-0.505
-0.45
-0.435
-0.415
-0.41
-0.385
-0.34
-0.3
-0.28
-0.295
-0.295
-0.275
-0.255
-0.22
-0.22
-0.23
-0.23
-0.23
-0.22
-0.205
-0.225
-0.24
-0.24
-0.225
-0.215
-0.2
-0.21
-0.23
-0.23
-0.23
-0.22
-0.21
-0.21
-0.24
-0.26
-0.265
-0.22
-0.205
-0.21
-0.205
-0.235
-0.24
-0.245
-0.225
-0.225
-0.23
-0.245
-0.24
-0.235
-0.22
-0.235
-0.24
-0.235
-0.25
-0.245
-0.235
-0.235
-0.26
-0.28
-0.265
-0.24
-0.23
-0.225
-0.255
-0.255
-0.27
-0.25
-0.225
-0.22
-0.24
-0.25
-0.26
-0.25
-0.235
-0.22
-0.22
-0.24
-0.25
-0.22
-0.22
-0.23
-0.245
-0.255
-0.265
-0.235
-0.215
-0.23
-0.245
-0.24
-0.245
-0.225
-0.205
-0.215
-0.225
-0.25
-0.255
-0.245
-0.215
-0.2
-0.215
-0.24
-0.255
-0.225
-0.205
-0.23
-0.24
-0.24
-0.245
-0.225
-0.215
-0.235
-0.25
-0.24
-0.235
-0.24
-0.21
-0.215
-0.245
-0.25
-0.25
-0.235
-0.205
-0.185
-0.225
-0.225
-0.24
-0.22
-0.215
-0.2
-0.21
-0.215
-0.24
-0.2
-0.19
-0.185
-0.185
-0.185
-0.17
-0.155
-0.15
-0.155
-0.175
-0.185
-0.17
-0.16
-0.145
-0.12
-0.14
-0.15
-0.16
-0.155
-0.135
-0.14
-0.155
-0.165
-0.175
-0.165
-0.165
-0.175
-0.18
-0.2
-0.205
-0.19
-0.2
-0.205
-0.22
-0.23
-0.23
-0.225
-0.215
-0.21
-0.225
-0.255
-0.24
-0.235
-0.215
-0.21
-0.245
-0.25
-0.265
-0.25
-0.23
-0.24
-0.22
-0.24
-0.225
-0.215
-0.215
-0.225
-0.22
-0.23
-0.23
-0.19
-0.17
-0.18
-0.205
-0.23
-0.245
-0.215
-0.135
-0.025
0.085
0.185
0.27
0.355
0.48
0.555
0.655
0.755
0.88
0.995
1.12
1.255
1.415
1.6
1.76
1.865
1.915
1.91
1.805
1.595
1.28
0.96
0.71
0.53
0.445
0.39
0.375
0.38
0.395
0.38
0.325
0.285
0.275
0.265
0.24
0.205
0.125
0.08
0.04
0.03
-0.01
-0.025
-0.08
-0.14
-0.185
-0.23
-0.255
-0.29
-0.33
-0.355
-0.385
-0.385
-0.385
-0.395
-0.425
-0.44
-0.44
-0.415
-0.395
-0.415
-0.425
-0.46
-0.455
-0.44
-0.44
-0.425
-0.455
-0.475
-0.475
-0.475
-0.455
-0.45
-0.46
-0.49
-0.51
-0.5
-0.49
-0.485
-0.5
-0.52
-0.535
-0.52
-0.535
-0.525
-0.545
-0.575
-0.575
-0.565
-0.57
-0.575
-0.595
-0.605
-0.625
-0.625
-0.6
-0.61
-0.645
-0.68
-0.68
-0.69
-0.665
-0.68
-0.695
-0.73
-0.745
-0.71
-0.7
-0.695
-0.705
-0.71
-0.705
-0.705
-0.675
-0.665
-0.675
-0.655
-0.645
-0.605
-0.565
-0.555
-0.545
-0.515
-0.47
-0.44
-0.4
-0.4
-0.38
-0.375
-0.355
-0.315
-0.285
-0.275
-0.275
-0.275
-0.265
-0.24
-0.225
-0.225
-0.225
-0.23
-0.25
-0.24
-0.22
-0.21
-0.215
-0.24
-0.245
-0.225
-0.215
-0.21
-0.22
-0.245
-0.235
-0.25
-0.23
-0.245
-0.255
-0.265
-0.265
-0.245
-0.24
-0.235
-0.265
-0.26
-0.26
-0.24
-0.225
-0.23
-0.24
-0.27
-0.285
-0.265
-0.25
-0.24
-0.245
-0.265
-0.27
-0.265
-0.255
-0.24
-0.265
-0.285
-0.28
-0.265
-0.265
-0.275
-0.265
-0.29
-0.28
-0.28
-0.265
-0.265
-0.27
-0.285
-0.29
-0.28
-0.27
-0.265
-0.255
-0.275
-0.27
-0.265
-0.24
-0.24
-0.25
-0.275
-0.275
-0.265
-0.255
-0.245
-0.255
-0.25
-0.27
-0.265
-0.25
-0.255
-0.265
-0.275
-0.27
-0.245
-0.25
-0.27
-0.27
-0.29
-0.285
-0.26
-0.245
-0.235
-0.255
-0.285
-0.295
-0.255
-0.245
-0.245
-0.245
-0.255
-0.27
-0.27
-0.255
-0.255
-0.26
-0.255
-0.255
-0.255
-0.245
-0.255
-0.265
-0.275
-0.27
-0.245
-0.235
-0.235
-0.26
-0.27
-0.27
-0.245
-0.215
-0.21
-0.225
-0.235
-0.22
-0.22
-0.205
-0.19
-0.21
-0.205
-0.2
-0.195
-0.18
-0.18
-0.2
-0.195
-0.2
-0.185
-0.19
-0.195
-0.23
-0.235
-0.23
-0.22
-0.205
-0.2
-0.21
-0.24
-0.255
-0.26
-0.255
-0.245
-0.255
-0.295
-0.29
-0.3
-0.29
-0.285
-0.28
-0.29
-0.29
-0.275
-0.275
-0.27
-0.29
-0.3
-0.29
-0.265
-0.25
-0.255
-0.26
-0.275
-0.285
-0.265
-0.25
-0.24
-0.255
-0.25
-0.245
-0.245
-0.23
-0.24
-0.25
-0.25
-0.24
-0.175
-0.1
-0.01
0.05
0.105
0.175
0.275
0.39
0.51
0.63
0.765
0.935
1.135
1.345
1.53
1.705
1.82
1.865
1.86
1.81
1.635
1.35
1.005
0.75
0.58
0.465
0.375
0.32
0.285
0.29
0.315
0.32
0.28
0.205
0.135
0.08
0.045
0.025
0.005
-0.025
-0.09
-0.135
-0.175
-0.2
-0.225
-0.265
-0.29
-0.295
-0.31
-0.315
-0.34
-0.39
-0.435
-0.45
-0.445
-0.415
-0.425
-0.435
-0.475
-0.475
-0.475
-0.465
-0.46
-0.47
-0.49
-0.495
-0.505
-0.5
-0.51
-0.5
-0.5
-0.515
-0.5
-0.505
-0.505
-0.535
-0.555
-0.56
-0.56
-0.535
-0.535
-0.55
-0.57
-0.6
-0.595
-0.585
-0.57
-0.595
-0.615
-0.63
-0.635
-0.63
-0.625
-0.645
-0.67
-0.68
-0.685
-0.675
-0.695
-0.715
-0.74
-0.75
-0.73
-0.73
-0.74
-0.755
-0.785
-0.8
-0.775
-0.765
-0.75
-0.765
-0.785
-0.775
-0.79
-0.76
-0.76
-0.75
-0.735
-0.725
-0.695
-0.67
-0.64
-0.63
-0.605
-0.595
-0.545
-0.51
-0.495
-0.5
-0.485
-0.465
-0.43
-0.395
-0.38
-0.37
-0.365
-0.36
-0.335
-0.295
-0.285
-0.285
-0.29
-0.315
-0.29
-0.27
-0.26
-0.26
-0.28
-0.28
-0.27
-0.26
-0.26
-0.26
-0.285
-0.28
-0.25
-0.25
-0.235
-0.255
-0.295
-0.29
-0.275
-0.255
-0.27
-0.285
-0.305
-0.3
-0.295
-0.265
-0.275
-0.26
-0.28
-0.275
-0.275
-0.26
-0.27
-0.28
-0.275
-0.275
-0.285
-0.29
-0.295
-0.295
-0.295
-0.305
-0.29
-0.28
-0.275
-0.295
-0.305
-0.305
-0.285
-0.27
-0.26
-0.275
-0.305
-0.31
-0.3
-0.27
-0.285
-0.275
-0.29
-0.295
-0.29
-0.285
-0.27
-0.29
-0.275
-0.28
-0.27
-0.27
-0.275
-0.29
-0.295
-0.3
-0.28
-0.27
-0.255
-0.285
-0.29
-0.29
-0.285
-0.275
-0.27
-0.27
-0.28
-0.3
-0.295
-0.27
-0.265
-0.285
-0.3
-0.295
-0.275
-0.27
-0.27
-0.27
-0.275
-0.275
-0.26
-0.255
-0.255
-0.27
-0.285
-0.285
-0.26
-0.25
-0.25
-0.25
-0.265
-0.275
-0.265
-0.265
-0.255
-0.26
-0.26
-0.27
-0.255
-0.25
-0.24
-0.245
-0.26
-0.24
-0.225
-0.215
-0.215
-0.22
-0.24
-0.235
-0.22
-0.195
-0.2
-0.205
-0.23
-0.23
-0.22
-0.21
-0.195
-0.21
-0.22
-0.24
-0.24
-0.23
-0.225
-0.235
-0.24
-0.255
-0.26
-0.24
-0.255
-0.27
-0.295
-0.285
-0.29
-0.27
-0.27
-0.27
-0.28
-0.295
-0.29
-0.285
-0.265
-0.275
-0.285
-0.285
-0.275
-0.26
-0.265
-0.27
-0.26
-0.265
-0.245
-0.23
-0.22
-0.235
-0.25
-0.255
-0.25
-0.225
-0.2
-0.21
-0.215
-0.235
-0.24
-0.225
-0.165
-0.085
0.02
0.125
0.23
0.3
0.38
0.455
0.525
0.625
0.775
0.96
1.175
1.36
1.56
1.72
1.845
1.855
1.83
1.72
1.505
1.205
0.88
0.625
0.475
0.395
0.365
0.36
0.38
0.375
0.36
0.33
0.26
0.22
0.16
0.13
0.095
0.04
-0.02
-0.04
-0.07
-0.09
-0.12
-0.17
-0.225
-0.265
-0.285
-0.3
-0.305
-0.33
-0.365
-0.385
-0.38
-0.375
-0.405
-0.425
-0.43
-0.445
-0.44
-0.425
-0.44
-0.455
-0.47
-0.47
-0.455
-0.445
-0.445
-0.48
-0.495
-0.49
-0.49
-0.46
-0.455
-0.47
-0.505
-0.5
-0.505
-0.5
-0.515
-0.52
-0.515
-0.525
-0.525
-0.535
-0.545
-0.55
-0.575
-0.57
-0.57
-0.56
-0.565
-0.58
-0.605
-0.615
-0.605
-0.6
-0.595
-0.615
-0.64
-0.65
-0.65
-0.635
-0.66
-0.67
-0.69
-0.71
-0.69
-0.695
-0.69
-0.72
-0.75
-0.725
-0.71
-0.7
-0.69
-0.7
-0.725
-0.72
-0.71
-0.69
-0.68
-0.665
-0.65
-0.635
-0.615
-0.585
-0.565
-0.57
-0.53
-0.51
-0.485
-0.455
-0.42
-0.405
-0.385
-0.365
-0.335
-0.305
-0.28
-0.28
-0.28
-0.285
-0.26
-0.245
-0.245
-0.235
-0.235
-0.235
-0.22
-0.22
-0.21
-0.225
-0.23
-0.235
-0.22
-0.21
-0.22
-0.225
-0.245
-0.235
-0.22
-0.21
-0.21
-0.215
-0.23
-0.23
-0.24
-0.225
-0.23
-0.24
-0.24
-0.245
-0.23
-0.205
-0.22
-0.23
-0.235
-0.26
-0.24
-0.215
-0.2
-0.225
-0.245
-0.245
-0.245
-0.23
-0.215
-0.215
-0.235
-0.24
-0.225
-0.22
-0.225
-0.235
-0.245
-0.25
-0.24
-0.22
-0.215
-0.225
-0.24
-0.265
-0.24
-0.23
-0.22
-0.22
-0.23
-0.245
-0.23
-0.21
-0.205
-0.22
-0.245
-0.25
-0.225
-0.21
-0.215
-0.23
-0.23
-0.235
-0.24
-0.22
-0.2
-0.205
-0.225
-0.24
-0.235
-0.22
-0.215
-0.21
-0.23
-0.225
-0.21
-0.21
-0.215
-0.215
-0.23
-0.24
-0.23
-0.22
-0.2
-0.215
-0.23
-0.235
-0.22
-0.215
-0.23
-0.23
-0.23
-0.23
-0.235
-0.22
-0.22
-0.235
-0.24
-0.25
-0.23
-0.215
-0.22
-0.235
-0.235
-0.245
-0.24
-0.22
-0.22
-0.23
-0.23
-0.23
-0.23
-0.22
-0.225
-0.235
-0.245
-0.24
-0.23
-0.215
-0.21
-0.225
-0.24
-0.235
-0.235
-0.22
-0.195
-0.2
-0.205
-0.21
-0.195
-0.185
-0.18
-0.17
-0.175
-0.16
-0.165
-0.165
-0.155
-0.17
-0.175
-0.18
-0.175
-0.16
-0.155
-0.175
-0.185
-0.19
-0.2
-0.2
-0.205
-0.21
-0.215
-0.22
-0.21
-0.205
-0.215
-0.225
-0.25
-0.255
-0.26
-0.265
-0.255
-0.26
-0.275
-0.29
-0.275
-0.25
-0.235
-0.24
-0.245
-0.265
-0.26
-0.24
-0.255
-0.265
-0.265
-0.265
-0.24
-0.225
-0.215
-0.23
-0.245
-0.255
-0.235
-0.22
-0.21
-0.2
-0.225
-0.235
-0.22
-0.215
-0.21
-0.215
-0.245
-0.255
-0.235
-0.2
-0.14
-0.045
0.055
0.17
0.275
0.39
0.5
0.62
0.715
0.87
1.055
1.255
1.455
1.625
1.785
1.905
1.975
2.015
2.005
1.96
1.855
1.705
1.485
1.195
0.915
0.66
0.49
0.42
0.4
0.4
0.39
0.35
0.29
0.255
0.205
0.18
0.14
0.095
0.065
0.03
0.01
-0.03
-0.065
-0.1
-0.155
-0.185
-0.205
-0.21
-0.225
-0.255
-0.295
-0.34
-0.355
-0.375
-0.37
-0.385
-0.39
-0.415
-0.41
-0.41
-0.41
-0.425
-0.44
-0.46
-0.435
-0.42
-0.425
-0.44
-0.46
-0.495
-0.48
-0.475
-0.475
-0.46
-0.475
-0.48
-0.485
-0.485
-0.485
-0.495
-0.515
-0.53
-0.53
-0.525
-0.515
-0.54
-0.56
-0.56
-0.55
-0.55
-0.545
-0.565
-0.595
-0.595
-0.6
-0.595
-0.595
-0.61
-0.63
-0.655
-0.655
-0.655
-0.67
-0.67
-0.68
-0.69
-0.695
-0.695
-0.7
-0.725
-0.73
-0.755
-0.74
-0.72
-0.73
-0.715
-0.74
-0.745
-0.74
-0.72
-0.71
-0.7
-0.7
-0.7
-0.675
-0.645
-0.63
-0.63
-0.62
-0.595
-0.57
-0.525
-0.51
-0.51
-0.51
-0.5
-0.48
-0.44
-0.4
-0.385
-0.37
-0.355
-0.34
-0.315
-0.3
-0.285
-0.275
-0.265
-0.25
-0.25
-0.245
-0.24
-0.25
-0.245
-0.23
-0.22
-0.21
-0.22
-0.235
-0.255
-0.23
-0.23
-0.21
-0.23
-0.25
-0.255
-0.26
-0.23
-0.215
-0.225
-0.25
-0.245
-0.26
-0.24
-0.235
-0.245
-0.25
-0.255
-0.245
-0.235
-0.24
-0.255
-0.27
-0.265
-0.25
-0.245
-0.24
-0.25
-0.26
-0.28
-0.275
-0.265
-0.23
-0.235
-0.255
-0.26
-0.27
-0.26
-0.265
-0.27
-0.275
-0.28
-0.265
-0.25
-0.26
-0.265
-0.26
-0.275
-0.275
-0.25
-0.235
-0.245
-0.265
-0.27
-0.27
-0.26
-0.245
-0.25
-0.26
-0.265
-0.255
-0.245
-0.25
-0.26
-0.265
-0.265
-0.255
-0.25
-0.23
-0.245
-0.235
-0.225
-0.19
-0.17
-0.155
-0.145
-0.14
-0.135
-0.085
-0.025
0.015
0.05
0.105
0.2
0.315
0.435
0.515
0.545
0.56
0.59
0.615
0.635
0.655
0.64
0.62
0.615
0.61
0.58
0.49
0.31
-0.005
-0.425
-0.91
-1.3
-1.57
-1.76
-1.895
-1.98
-2.035
-2.02
-1.99
-1.98
-1.975
-1.965
-1.94
-1.875
-1.815
-1.725
-1.655
-1.61
-1.57
-1.515
-1.475
-1.415
-1.37
-1.32
-1.245
-1.21
-1.19
-1.185
-1.17
-1.16
-1.12
-1.085
-1.055
-1.03
-1.02
-0.98
-0.905
-0.82
-0.715
-0.635
-0.57
-0.5
-0.415
-0.33
-0.265
-0.24
-0.21
-0.21
-0.2
-0.17
-0.125
-0.11
-0.1
-0.085
-0.07
-0.065
-0.045
-0.035
-0.03
-0.015
0.025
0.08
0.105
0.095
0.095
0.11
0.125
0.175
0.19
0.22
0.22
0.225
0.25
0.28
0.315
0.32
0.33
0.34
0.38
0.42
0.44
0.46
0.49
0.53
0.57
0.605
0.635
0.65
0.65
0.66
0.715
0.76
0.78
0.79
0.79
0.79
0.795
0.83
0.85
0.86
0.87
0.885
0.91
0.94
0.955
0.955
0.935
0.93
0.93
0.92
0.91
0.9
0.875
0.855
0.84
0.835
0.81
0.78
0.715
0.66
0.64
0.62
0.6
0.55
0.49
0.415
0.39
0.355
0.335
0.305
0.255
0.22
0.2
0.175
0.155
0.1
0.04
0.01
-0.01
-0.01
-0.03
-0.07
-0.125
-0.15
-0.145
-0.15
-0.155
-0.17
-0.195
-0.23
-0.22
-0.22
-0.225
-0.215
-0.245
-0.245
-0.26
-0.255
-0.25
-0.26
-0.265
-0.255
-0.245
-0.25
-0.245
-0.265
-0.275
-0.28
-0.27
-0.255
-0.265
-0.27
-0.29
-0.3
-0.3
-0.28
-0.265
-0.255
-0.285
-0.3
-0.305
-0.295
-0.29
-0.285
-0.3
-0.315
-0.315
-0.3
-0.29
-0.3
-0.295
-0.305
-0.32
-0.305
-0.285
-0.31
-0.32
-0.32
-0.33
-0.33
-0.305
-0.295
-0.325
-0.35
-0.34
-0.335
-0.315
-0.31
-0.315
-0.33
-0.315
-0.31
-0.32
-0.33
-0.34
-0.35
-0.35
-0.335
-0.335
-0.35
-0.35
-0.36
-0.34
-0.315
-0.315
-0.32
-0.345
-0.35
-0.34
-0.325
-0.315
-0.335
-0.32
-0.35
-0.355
-0.33
-0.31
-0.315
-0.33
-0.345
-0.375
-0.365
-0.34
-0.32
-0.33
-0.35
-0.35
-0.34
-0.335
-0.315
-0.335
-0.325
-0.32
-0.32
-0.305
-0.31
-0.32
-0.33
-0.345
-0.355
-0.35
-0.345
-0.33
-0.345
-0.33
-0.315
-0.31
-0.315
-0.33
-0.35
-0.33
-0.32
-0.31
-0.32
-0.335
-0.345
-0.34
-0.335
-0.305
-0.315
-0.33
-0.345
-0.335
-0.315
-0.31
-0.3
-0.32
-0.335
-0.33
-0.305
-0.3
-0.3
-0.31
-0.325
-0.31
-0.32
-0.305
-0.32
-0.335
-0.325
-0.31
-0.31
-0.315
-0.32
-0.32
-0.315
-0.31
-0.29
-0.295
-0.305
-0.315
-0.32
-0.32
-0.3
-0.285
-0.285
-0.31
-0.315
-0.305
-0.28
-0.265
-0.28
-0.275
-0.3
-0.315
-0.315
-0.3
-0.275
-0.28
-0.29
-0.29
-0.27
-0.25
-0.24
-0.24
-0.265
-0.265
-0.25
-0.235
-0.235
-0.255
-0.275
-0.27
-0.255
-0.25
-0.275
-0.29
-0.295
-0.275
-0.25
-0.245
-0.265
-0.305
-0.325
-0.335
-0.3
-0.28
-0.285
-0.3
-0.305
-0.31
-0.305
-0.295
-0.3
-0.32
-0.32
-0.315
-0.29
-0.28
-0.29
-0.29
-0.31
-0.275
-0.26
-0.24
-0.245
-0.26
-0.275
-0.255
-0.235
-0.24
-0.245
-0.26
-0.29
-0.25
-0.155
-0.01
0.115
0.225
0.34
0.48
0.675
0.9
1.14
1.38
1.64
1.87
2.07
2.145
2.125
2.085
2.025
1.85
1.49
1.07
0.68
0.465
0.385
0.39
0.4
0.345
0.275
0.19
0.115
0.085
0.065
0.045
0.01
-0.04
-0.075
-0.105
-0.145
-0.17
-0.215
-0.265
-0.325
-0.355
-0.37
-0.385
-0.39
-0.425
-0.45
-0.455
-0.46
-0.44
-0.455
-0.47
-0.485
-0.475
-0.455
-0.455
-0.475
-0.5
-0.5
-0.5
-0.51
-0.5
-0.505
-0.535
-0.545
-0.54
-0.52
-0.52
-0.535
-0.56
-0.565
-0.575
-0.57
-0.55
-0.555
-0.575
-0.6
-0.615
-0.61
-0.6
-0.615
-0.64
-0.665
-0.68
-0.67
-0.66
-0.68
-0.71
-0.74
-0.755
-0.745
-0.735
-0.74
-0.765
-0.785
-0.78
-0.775
-0.765
-0.755
-0.765
-0.77
-0.77
-0.765
-0.73
-0.735
-0.725
-0.71
-0.695
-0.655
-0.615
-0.585
-0.565
-0.54
-0.505
-0.475
-0.435
-0.425
-0.41
-0.4
-0.37
-0.33
-0.29
-0.29
-0.295
-0.285
-0.27
-0.24
-0.24
-0.23
-0.24
-0.26
-0.26
-0.23
-0.21
-0.22
-0.235
-0.255
-0.245
-0.235
-0.22
-0.22
-0.25
-0.26
-0.275
-0.25
-0.235
-0.255
-0.255
-0.265
-0.25
-0.26
-0.24
-0.255
-0.255
-0.26
-0.255
-0.26
-0.24
-0.245
-0.255
-0.26
-0.255
-0.245
-0.235
-0.255
-0.27
-0.275
-0.26
-0.245
-0.23
-0.23
-0.245
-0.25
-0.255
-0.235
-0.21
-0.22
-0.235
-0.245
-0.245
-0.23
-0.21
-0.21
-0.22
-0.23
-0.23
-0.235
-0.215
-0.225
-0.23
-0.24
-0.245
-0.215
-0.225
-0.215
-0.235
-0.23
-0.235
-0.23
-0.23
-0.235
-0.255
-0.26
-0.24
-0.235
-0.21
-0.215
-0.235
-0.25
-0.26
-0.25
-0.245
-0.235
-0.26
-0.265
-0.25
-0.265
-0.24
-0.255
-0.255
-0.275
-0.27
-0.245
-0.265
-0.25
-0.265
-0.27
-0.255
-0.24
-0.235
-0.24
-0.26
-0.27
-0.265
-0.235
-0.22
-0.215
-0.225
-0.23
-0.23
-0.21
-0.2
-0.205
-0.215
-0.235
-0.225
-0.205
-0.19
-0.185
-0.2
-0.205
-0.22
-0.2
-0.195
-0.205
-0.23
-0.235
-0.23
-0.225
-0.215
-0.21
-0.24
-0.255
-0.26
-0.255
-0.245
-0.245
-0.26
-0.275
-0.295
-0.275
-0.275
-0.27
-0.28
-0.295
-0.295
-0.28
-0.265
-0.27
-0.285
-0.29
-0.28
-0.265
-0.255
-0.25
-0.265
-0.255
-0.25
-0.23
-0.215
-0.215
-0.225
-0.25
-0.245
-0.235
-0.215
-0.215
-0.24
-0.25
-0.215
-0.135
0.0
0.135
0.24
0.32
0.445
0.545
0.665
0.79
0.9
1.045
1.23
1.455
1.675
1.835
1.9
1.875
1.78
1.55
1.22
0.87
0.585
0.415
0.36
0.375
0.375
0.35
0.305
0.235
0.205
0.195
0.165
0.11
0.04
-0.015
-0.065
-0.095
-0.125
-0.18
-0.22
-0.28
-0.32
-0.335
-0.34
-0.37
-0.395
-0.405
-0.43
-0.43
-0.43
-0.44
-0.455
-0.485
-0.48
-0.475
-0.47
-0.5
-0.505
-0.52
-0.5
-0.49
-0.49
-0.515
-0.535
-0.535
-0.525
-0.525
-0.52
-0.535
-0.565
-0.565
-0.575
-0.58
-0.565
-0.575
-0.6
-0.625
-0.635
-0.625
-0.615
-0.63
-0.675
-0.695
-0.705
-0.7
-0.685
-0.69
-0.72
-0.765
-0.765
-0.765
-0.755
-0.77
-0.78
-0.79
-0.795
-0.78
-0.775
-0.775
-0.78
-0.79
-0.795
-0.77
-0.75
-0.735
-0.73
-0.735
-0.7
-0.67
-0.655
-0.625
-0.605
-0.595
-0.56
-0.525
-0.49
-0.465
-0.47
-0.44
-0.42
-0.375
-0.34
-0.335
-0.33
-0.345
-0.335
-0.32
-0.305
-0.29
-0.285
-0.295
-0.3
-0.295
-0.275
-0.275
-0.295
-0.31
-0.29
-0.3
-0.275
-0.28
-0.29
-0.305
-0.3
-0.275
-0.26
-0.275
-0.3
-0.31
-0.305
-0.29
-0.275
-0.285
-0.305
-0.33
-0.33
-0.3
-0.285
-0.29
-0.315
-0.305
-0.32
-0.305
-0.285
-0.29
-0.31
-0.32
-0.29
-0.285
-0.285
-0.285
-0.315
-0.325
-0.325
-0.32
-0.32
-0.305
-0.315
-0.33
-0.32
-0.32
-0.3
-0.305
-0.315
-0.325
-0.32
-0.31
-0.29
-0.305
-0.295
-0.31
-0.315
-0.315
-0.305
-0.285
-0.305
-0.315
-0.295
-0.295
-0.285
-0.29
-0.305
-0.315
-0.315
-0.295
-0.285
-0.285
-0.285
-0.295
-0.305
-0.32
-0.28
-0.28
-0.28
-0.3
-0.29
-0.295
-0.285
-0.29
-0.295
-0.305
-0.295
-0.275
-0.265
-0.28
-0.305
-0.305
-0.29
-0.25
-0.24
-0.245
-0.275
-0.29
-0.275
-0.26
-0.215
-0.22
-0.24
-0.245
-0.25
-0.235
-0.225
-0.23
-0.235
-0.23
-0.235
-0.205
-0.175
-0.19
-0.21
-0.22
-0.215
-0.205
-0.195
-0.19
-0.195
-0.215
-0.225
-0.215
-0.215
-0.225
-0.24
-0.245
-0.25
-0.255
-0.245
-0.25
-0.27
-0.285
-0.295
-0.28
-0.275
-0.27
-0.275
-0.285
-0.3
-0.275
-0.27
-0.265
-0.275
-0.28
-0.29
-0.27
-0.245
-0.23
-0.25
-0.275
-0.29
-0.27
-0.245
-0.245
-0.25
-0.25
-0.25
-0.23
-0.215
-0.22
-0.245
-0.24
-0.145
-0.015
0.13
0.24
0.355
0.46
0.59
0.76
0.95
1.135
1.345
1.56
1.76
1.9
1.97
1.99
1.96
1.895
1.76
1.51
1.17
0.81
0.55
0.42
0.385
0.37
0.365
0.325
0.24
0.185
0.115
0.09
0.06
0.0
-0.025
-0.06
-0.075
-0.085
-0.11
-0.16
-0.22
-0.265
-0.3
-0.32
-0.35
-0.375
-0.42
-0.445
-0.455
-0.455
-0.445
-0.445
-0.46
-0.46
-0.475
-0.465
-0.465
-0.475
-0.52
-0.52
-0.505
-0.485
-0.49
-0.485
-0.53
-0.53
-0.53
-0.525
-0.495
-0.53
-0.54
-0.56
-0.565
-0.58
-0.56
-0.555
-0.575
-0.595
-0.615
-0.605
-0.59
-0.605
-0.625
-0.645
-0.675
-0.675
-0.66
-0.695
-0.7
-0.71
-0.715
-0.705
-0.71
-0.71
-0.745
-0.78
-0.775
-0.775
-0.745
-0.765
-0.785
-0.815
-0.815
-0.805
-0.79
-0.78
-0.785
-0.795
-0.8
-0.775
-0.76
-0.745
-0.75
-0.74
-0.72
-0.68
-0.655
-0.64
-0.64
-0.63
-0.605
-0.565
-0.52
-0.49
-0.485
-0.475
-0.45
-0.425
-0.38
-0.345
-0.35
-0.335
-0.33
-0.31
-0.295
-0.3
-0.31
-0.305
-0.29
-0.275
-0.26
-0.265
-0.29
-0.285
-0.27
-0.25
-0.24
-0.245
-0.26
-0.265
-0.27
-0.255
-0.24
-0.235
-0.25
-0.265
-0.27
-0.255
-0.25
-0.25
-0.265
-0.275
-0.265
-0.255
-0.245
-0.25
-0.275
-0.285
-0.285
-0.27
-0.26
-0.235
-0.26
-0.27
-0.275
-0.26
-0.25
-0.25
-0.265
-0.265
-0.27
-0.265
-0.25
-0.245
-0.27
-0.29
-0.29
-0.275
-0.25
-0.25
-0.265
-0.28
-0.28
-0.265
-0.26
-0.26
-0.255
-0.275
-0.275
-0.26
-0.235
-0.245
-0.26
-0.285
-0.265
-0.255
-0.245
-0.235
-0.255
-0.28
-0.275
-0.255
-0.25
-0.24
-0.25
-0.265
-0.265
-0.265
-0.235
-0.235
-0.24
-0.25
-0.245
-0.24
-0.23
-0.235
-0.25
-0.27
-0.25
-0.245
-0.235
-0.24
-0.235
-0.255
-0.26
-0.255
-0.225
-0.22
-0.24
-0.26
-0.26
-0.25
-0.235
-0.235
-0.225
-0.235
-0.235
-0.2
-0.19
-0.2
-0.215
-0.235
-0.215
-0.195
-0.175
-0.175
-0.185
-0.19
-0.2
-0.165
-0.15
-0.15
-0.145
-0.175
-0.19
-0.19
-0.18
-0.155
-0.18
-0.18
-0.18
-0.175
-0.165
-0.175
-0.195
-0.23
-0.23
-0.205
-0.205
-0.2
-0.225
-0.24
-0.265
-0.245
-0.22
-0.225
-0.23
-0.215
-0.21
-0.21
-0.21
-0.2
-0.245
-0.255
-0.24
-0.22
-0.215
-0.215
-0.235
-0.255
-0.255
-0.225
-0.205
-0.205
-0.22
-0.255
-0.255
-0.23
-0.22
-0.23
-0.24
-0.215
-0.165
-0.06
0.08
0.215
0.3
0.405
0.515
0.665
0.83
1.0
1.19
1.38
1.58
1.805
1.995
2.11
2.145
2.155
2.15
2.115
2.045
1.875
1.57
1.185
0.865
0.655
0.53
0.46
0.43
0.405
0.38
0.365
0.335
0.265
0.21
0.145
0.085
0.06
0.05
0.035
-0.01
-0.03
-0.06
-0.095
-0.12
-0.17
-0.225
-0.28
-0.295
-0.33
-0.335
-0.38
-0.42
-0.45
-0.45
-0.445
-0.425
-0.42
-0.435
-0.46
-0.47
-0.475
-0.46
-0.455
-0.46
-0.49
-0.495
-0.495
-0.485
-0.485
-0.495
-0.505
-0.51
-0.5
-0.49
-0.505
-0.515
-0.53
-0.545
-0.54
-0.515
-0.535
-0.555
-0.57
-0.575
-0.56
-0.575
-0.575
-0.575
-0.605
-0.625
-0.635
-0.62
-0.62
-0.63
-0.645
-0.67
-0.675
-0.69
-0.68
-0.7
-0.705
-0.705
-0.71
-0.71
-0.72
-0.75
-0.765
-0.755
-0.74
-0.72
-0.735
-0.75
-0.755
-0.755
-0.73
-0.71
-0.685
-0.68
-0.68
-0.67
-0.64
-0.595
-0.57
-0.55
-0.54
-0.525
-0.51
-0.485
-0.455
-0.425
-0.41
-0.38
-0.35
-0.32
-0.3
-0.285
-0.285
-0.26
-0.26
-0.235
-0.235
-0.25
-0.255
-0.265
-0.25
-0.23
-0.215
-0.21
-0.24
-0.25
-0.23
-0.215
-0.225
-0.235
-0.23
-0.24
-0.23
-0.225
-0.225
-0.23
-0.24
-0.245
-0.23
-0.22
-0.225
-0.24
-0.245
-0.27
-0.255
-0.235
-0.235
-0.235
-0.255
-0.255
-0.25
-0.24
-0.245
-0.25
-0.27
-0.28
-0.27
-0.26
-0.245
-0.26
-0.275
-0.27
-0.265
-0.245
-0.24
-0.255
-0.26
-0.265
-0.26
-0.25
-0.235
-0.25
-0.26
-0.27
-0.265
-0.235
-0.225
-0.235
-0.245
-0.245
-0.25
-0.23
-0.235
-0.245
-0.265
-0.255
-0.24
-0.235
-0.24
-0.245
-0.27
-0.265
-0.245
-0.23
-0.225
-0.23
-0.245
-0.26
-0.26
-0.235
-0.225
-0.235
-0.245
-0.245
-0.25
-0.24
-0.24
-0.245
-0.25
-0.24
-0.24
-0.23
-0.235
-0.25
-0.27
-0.28
-0.26
-0.23
-0.22
-0.24
-0.245
-0.25
-0.245
-0.225
-0.205
-0.205
-0.21
-0.21
-0.185
-0.17
-0.19
-0.18
-0.185
-0.19
-0.175
-0.16
-0.16
-0.17
-0.185
-0.18
-0.145
-0.13
-0.13
-0.14
-0.16
-0.185
-0.17
-0.145
-0.13
-0.14
-0.15
-0.16
-0.155
-0.175
-0.175
-0.185
-0.195
-0.21
-0.22
-0.22
-0.22
-0.25
-0.25
-0.255
-0.245
-0.245
-0.215
-0.22
-0.245
-0.245
-0.255
-0.255
-0.245
-0.25
-0.255
-0.245
-0.245
-0.24
-0.235
-0.24
-0.245
-0.24
-0.24
-0.21
-0.21
-0.225
-0.22
-0.23
-0.23
-0.215
-0.22
-0.215
-0.2
-0.135
-0.02
0.115
0.215
0.315
0.405
0.49
0.595
0.72
0.875
1.055
1.23
1.405
1.595
1.78
1.905
1.975
1.97
1.925
1.8
1.63
1.41
1.17
0.925
0.71
0.535
0.425
0.375
0.355
0.34
0.315
0.265
0.21
0.155
0.085
0.025
-0.005
-0.025
-0.055
-0.09
-0.15
-0.2
-0.25
-0.28
-0.295
-0.305
-0.33
-0.38
-0.42
-0.435
-0.445
-0.44
-0.45
-0.485
-0.505
-0.51
-0.5
-0.505
-0.51
-0.53
-0.525
-0.525
-0.52
-0.53
-0.545
-0.555
-0.575
-0.575
-0.545
-0.555
-0.555
-0.565
-0.58
-0.575
-0.585
-0.585
-0.59
-0.62
-0.64
-0.63
-0.62
-0.63
-0.65
-0.66
-0.665
-0.665
-0.67
-0.685
-0.7
-0.72
-0.735
-0.745
-0.74
-0.74
-0.75
-0.76
-0.77
-0.77
-0.78
-0.785
-0.805
-0.84
-0.83
-0.82
-0.805
-0.805
-0.81
-0.825
-0.83
-0.82
-0.795
-0.76
-0.745
-0.75
-0.75
-0.72
-0.69
-0.67
-0.645
-0.62
-0.61
-0.57
-0.53
-0.51
-0.515
-0.5
-0.48
-0.44
-0.41
-0.39
-0.365
-0.37
-0.355
-0.34
-0.3
-0.29
-0.31
-0.315
-0.32
-0.3
-0.285
-0.27
-0.28
-0.27
-0.27
-0.275
-0.255
-0.25
-0.255
-0.27
-0.23
-0.205
-0.16
-0.095
-0.02
0.04
0.12
0.245
0.345
0.45
0.505
0.57
0.63
0.695
0.775
0.795
0.845
0.87
0.875
0.81
0.62
0.33
-0.045
-0.415
-0.71
-0.945
-1.085
-1.215
-1.35
-1.51
-1.625
-1.705
-1.75
-1.785
-1.84
-1.91
-1.97
-2.03
-2.06
-2.065
-2.085
-2.12
-2.15
-2.13
-2.07
-2.005
-1.965
-1.92
-1.825
-1.695
