Lead II
-0.16
-0.16
-0.16
-0.16
-0.18
-0.165
-0.19
-0.2
-0.2
-0.205
-0.21
-0.195
-0.185
-0.185
-0.19
-0.195
-0.2
-0.22
-0.225
-0.235
-0.24
-0.235
-0.22
-0.21
-0.2
-0.195
-0.2
-0.215
-0.225
-0.225
-0.25
-0.235
-0.23
-0.225
-0.23
-0.23
-0.235
-0.245
-0.225
-0.215
-0.21
-0.215
-0.225
-0.245
-0.25
-0.26
-0.26
-0.24
-0.225
-0.21
-0.21
-0.205
-0.2
-0.21
-0.215
-0.245
-0.25
-0.245
-0.25
-0.235
-0.24
-0.25
-0.255
-0.245
-0.245
-0.235
-0.22
-0.225
-0.2
-0.205
-0.2
-0.22
-0.22
-0.235
-0.24
-0.245
-0.255
-0.265
-0.255
-0.255
-0.23
-0.2
-0.18
-0.15
-0.14
-0.125
-0.145
-0.145
-0.155
-0.16
-0.16
-0.145
-0.14
-0.1
-0.07
-0.055
-0.025
-0.03
-0.055
-0.07
-0.095
-0.12
-0.13
-0.15
-0.145
-0.16
-0.185
-0.21
-0.23
-0.235
-0.255
-0.245
-0.25
-0.24
-0.245
-0.255
-0.265
-0.28
-0.285
-0.29
-0.29
-0.28
-0.275
-0.275
-0.26
-0.265
-0.27
-0.285
-0.3
-0.3
-0.285
-0.285
-0.265
-0.255
-0.255
-0.255
-0.265
-0.29
-0.335
-0.38
-0.45
-0.495
-0.455
-0.31
-0.025
0.375
0.82
1.255
1.53
1.54
1.23
0.675
0.075
-0.395
-0.665
-0.75
-0.725
-0.695
-0.675
-0.72
-0.805
-0.905
-0.99
-1.02
-1.01
-1.0
-0.945
-0.875
-0.785
-0.69
-0.61
-0.525
-0.465
-0.425
-0.385
-0.36
-0.335
-0.315
-0.3
-0.275
-0.28
-0.24
-0.23
-0.225
-0.215
-0.23
-0.235
-0.25
-0.26
-0.255
-0.25
-0.235
-0.215
-0.2
-0.19
-0.195
-0.215
-0.23
-0.24
-0.24
-0.245
-0.23
-0.215
-0.2
-0.19
-0.165
-0.165
-0.15
-0.16
-0.17
-0.19
-0.195
-0.195
-0.195
-0.185
-0.175
-0.15
-0.135
-0.135
-0.13
-0.135
-0.13
-0.13
-0.125
-0.105
-0.1
-0.105
-0.11
-0.1
-0.095
-0.09
-0.09
-0.08
-0.08
-0.075
-0.07
-0.075
-0.055
-0.045
-0.025
-0.015
-0.005
-0.01
0.0
0.0
-0.005
0.0
0.005
0.005
0.02
0.02
0.03
0.035
0.055
0.055
0.065
0.06
0.07
0.075
0.07
0.09
0.1
0.115
0.125
0.14
0.16
0.15
0.165
0.165
0.17
0.16
0.16
0.17
0.18
0.195
0.215
0.235
0.24
0.25
0.26
0.26
0.25
0.245
0.24
0.235
0.24
0.235
0.23
0.23
0.235
0.215
0.195
0.18
0.16
0.145
0.13
0.11
0.095
0.085
0.075
0.065
0.06
0.05
0.035
0.025
0.005
-0.02
-0.045
-0.045
-0.05
-0.06
-0.07
-0.07
-0.06
-0.08
-0.09
-0.09
-0.12
-0.11
-0.11
-0.11
-0.11
-0.105
-0.1
-0.105
-0.1
-0.1
-0.105
-0.11
-0.11
-0.1
-0.115
-0.115
-0.11
-0.095
-0.09
-0.085
-0.095
-0.09
-0.095
-0.105
-0.115
-0.12
-0.13
-0.145
-0.135
-0.135
-0.135
-0.13
-0.13
-0.14
-0.155
-0.17
-0.16
-0.175
-0.185
-0.195
-0.195
-0.195
-0.185
-0.19
-0.185
-0.2
-0.195
-0.19
-0.205
-0.215
-0.215
-0.22
-0.225
-0.215
-0.21
-0.215
-0.205
-0.215
-0.22
-0.21
-0.225
-0.235
-0.24
-0.235
-0.245
-0.23
-0.235
-0.23
-0.225
-0.225
-0.23
-0.24
-0.245
-0.265
-0.27
-0.27
-0.28
-0.255
-0.255
-0.25
-0.245
-0.245
-0.235
-0.255
-0.25
-0.26
-0.285
-0.275
-0.28
-0.27
-0.275
-0.26
-0.245
-0.25
-0.255
-0.265
-0.265
-0.26
-0.265
-0.275
-0.275
-0.26
-0.24
-0.235
-0.22
-0.205
-0.195
-0.2
-0.19
-0.2
-0.19
-0.205
-0.185
-0.18
-0.14
-0.13
-0.11
-0.105
-0.075
-0.09
-0.095
-0.125
-0.125
-0.135
-0.16
-0.16
-0.16
-0.18
-0.2
-0.21
-0.23
-0.25
-0.265
-0.285
-0.305
-0.305
-0.305
-0.32
-0.315
-0.305
-0.3
-0.31
-0.305
-0.31
-0.325
-0.325
-0.34
-0.34
-0.34
-0.32
-0.33
-0.32
-0.305
-0.31
-0.31
-0.325
-0.315
-0.325
-0.33
-0.32
-0.32
-0.31
-0.33
-0.33
-0.365
-0.395
-0.45
-0.53
-0.56
-0.535
-0.38
-0.105
0.26
0.67
1.065
1.38
1.53
1.47
1.17
0.695
0.195
-0.205
-0.44
-0.545
-0.565
-0.555
-0.56
-0.62
-0.705
-0.83
-0.945
-1.035
-1.08
-1.1
-1.085
-1.05
-0.99
-0.9
-0.8
-0.71
-0.625
-0.545
-0.475
-0.435
-0.4
-0.38
-0.37
-0.355
-0.345
-0.34
-0.325
-0.31
-0.295
-0.295
-0.3
-0.3
-0.295
-0.295
-0.295
-0.3
-0.295
-0.29
-0.28
-0.28
-0.26
-0.27
-0.265
-0.27
-0.265
-0.265
-0.265
-0.265
-0.255
-0.26
-0.255
-0.26
-0.245
-0.255
-0.23
-0.24
-0.235
-0.245
-0.235
-0.24
-0.23
-0.21
-0.2
-0.19
-0.18
-0.18
-0.17
-0.18
-0.175
-0.175
-0.175
-0.165
-0.16
-0.145
-0.14
-0.125
-0.115
-0.115
-0.1
-0.105
-0.105
-0.105
-0.1
-0.1
-0.085
-0.085
-0.06
-0.055
-0.04
-0.04
-0.04
-0.04
-0.02
-0.015
-0.01
0.005
0.01
0.02
0.035
0.07
0.075
0.085
0.105
0.105
0.11
0.105
0.115
0.14
0.15
0.17
0.175
0.19
0.205
0.215
0.22
0.22
0.23
0.22
0.22
0.235
0.24
0.25
0.255
0.275
0.285
0.28
0.26
0.27
0.25
0.245
0.225
0.2
0.195
0.19
0.18
0.16
0.135
0.115
0.09
0.085
0.055
0.025
-0.005
-0.02
-0.04
-0.06
-0.055
-0.06
-0.06
-0.085
-0.1
-0.115
-0.135
-0.145
-0.155
-0.165
-0.16
-0.16
-0.165
-0.16
-0.155
-0.17
-0.16
-0.165
-0.175
-0.175
-0.175
-0.185
-0.18
-0.18
-0.175
-0.16
-0.16
-0.16
-0.155
-0.155
-0.16
-0.17
-0.19
-0.18
-0.165
-0.185
-0.18
-0.165
-0.165
-0.165
-0.165
-0.175
-0.175
-0.18
-0.19
-0.19
-0.195
-0.195
-0.19
-0.195
-0.195
-0.19
-0.195
-0.205
-0.205
-0.215
-0.23
-0.235
-0.23
-0.22
-0.22
-0.22
-0.215
-0.22
-0.225
-0.23
-0.24
-0.24
-0.245
-0.245
-0.25
-0.24
-0.245
-0.24
-0.24
-0.245
-0.24
-0.245
-0.25
-0.265
-0.265
-0.265
-0.265
-0.255
-0.275
-0.25
-0.25
-0.245
-0.255
-0.26
-0.26
-0.28
-0.28
-0.275
-0.29
-0.27
-0.28
-0.27
-0.26
-0.265
-0.26
-0.255
-0.255
-0.27
-0.28
-0.285
-0.275
-0.275
-0.265
-0.25
-0.25
-0.255
-0.255
-0.265
-0.27
-0.265
-0.28
-0.275
-0.27
-0.27
-0.255
-0.26
-0.25
-0.235
-0.23
-0.24
-0.225
-0.23
-0.22
-0.21
-0.205
-0.19
-0.185
-0.17
-0.17
-0.145
-0.125
-0.12
-0.115
-0.11
-0.1
-0.105
-0.095
-0.095
-0.11
-0.115
-0.13
-0.145
-0.16
-0.155
-0.18
-0.195
-0.22
-0.24
-0.245
-0.255
-0.27
-0.275
-0.265
-0.265
-0.27
-0.28
-0.295
-0.295
-0.315
-0.3
-0.305
-0.315
-0.315
-0.3
-0.295
-0.29
-0.29
-0.3
-0.3
-0.31
-0.34
-0.325
-0.315
-0.31
-0.295
-0.285
-0.29
-0.295
-0.305
-0.35
-0.415
-0.5
-0.555
-0.57
-0.505
-0.3
0.015
0.4
0.835
1.21
1.495
1.565
1.39
0.96
0.42
-0.075
-0.405
-0.555
-0.585
-0.575
-0.58
-0.63
-0.72
-0.84
-0.965
-1.055
-1.12
-1.12
-1.07
-0.995
-0.91
-0.81
-0.69
-0.6
-0.525
-0.46
-0.41
-0.375
-0.36
-0.355
-0.335
-0.325
-0.31
-0.29
-0.285
-0.285
-0.265
-0.275
-0.275
-0.27
-0.275
-0.265
-0.255
-0.25
-0.255
-0.25
-0.24
-0.25
-0.245
-0.255
-0.245
-0.255
-0.25
-0.245
-0.23
-0.23
-0.22
-0.225
-0.225
-0.22
-0.215
-0.205
-0.205
-0.19
-0.18
-0.17
-0.165
-0.175
-0.175
-0.17
-0.16
-0.15
-0.14
-0.135
-0.135
-0.14
-0.155
-0.15
-0.13
-0.11
-0.105
-0.085
-0.065
-0.06
-0.06
-0.045
-0.05
-0.045
-0.035
-0.025
-0.03
-0.025
-0.01
-0.01
0.005
0.015
0.045
0.055
0.055
0.07
0.075
0.09
0.105
0.11
0.12
0.13
0.165
0.175
0.18
0.18
0.185
0.19
0.2
0.205
0.22
0.24
0.25
0.26
0.285
0.285
0.285
0.285
0.28
0.28
0.29
0.295
0.305
0.325
0.34
0.335
0.335
0.31
0.29
0.275
0.26
0.235
0.24
0.225
0.205
0.18
0.17
0.15
0.125
0.11
0.1
0.09
0.06
0.04
0.02
-0.01
-0.02
-0.035
-0.03
-0.04
-0.05
-0.075
-0.095
-0.11
-0.12
-0.13
-0.13
-0.14
-0.15
-0.165
-0.165
-0.165
-0.17
-0.175
-0.16
-0.155
-0.155
-0.17
-0.18
-0.18
-0.19
-0.175
-0.16
-0.155
-0.165
-0.16
-0.17
-0.19
-0.19
-0.19
-0.185
-0.175
-0.16
-0.16
-0.15
-0.15
-0.15
-0.16
-0.17
-0.185
-0.21
-0.22
-0.23
-0.225
-0.23
-0.22
-0.22
-0.215
-0.2
-0.195
-0.185
-0.17
-0.175
-0.185
-0.195
-0.215
-0.23
-0.25
-0.24
-0.23
-0.225
-0.23
-0.23
-0.245
-0.265
-0.275
-0.295
-0.285
-0.28
-0.265
-0.25
-0.24
-0.215
-0.225
-0.22
-0.23
-0.255
-0.27
-0.275
-0.27
-0.275
-0.28
-0.275
-0.285
-0.285
-0.275
-0.255
-0.245
-0.25
-0.25
-0.26
-0.275
-0.275
-0.29
-0.29
-0.285
-0.285
-0.285
-0.28
-0.28
-0.285
-0.285
-0.28
-0.285
-0.295
-0.275
-0.28
-0.28
-0.275
-0.27
-0.26
-0.25
-0.255
-0.255
-0.255
-0.235
-0.24
-0.22
-0.205
-0.18
-0.155
-0.145
-0.15
-0.17
-0.17
-0.16
-0.14
-0.135
-0.125
-0.11
-0.1
-0.1
-0.075
-0.075
-0.08
-0.1
-0.125
-0.155
-0.17
-0.185
-0.195
-0.21
-0.215
-0.24
-0.25
-0.28
-0.27
-0.285
-0.29
-0.275
-0.285
-0.29
-0.3
-0.315
-0.325
-0.34
-0.335
-0.33
-0.325
-0.31
-0.31
-0.295
-0.31
-0.3
-0.3
-0.3
-0.295
-0.285
-0.285
-0.29
-0.305
-0.33
-0.355
-0.35
-0.355
-0.35
-0.335
-0.34
-0.38
-0.43
-0.48
-0.465
-0.36
-0.15
0.175
0.535
0.93
1.27
1.48
1.505
1.27
0.8
0.22
-0.285
-0.61
-0.74
-0.74
-0.68
-0.64
-0.65
-0.715
-0.8
-0.895
-0.97
-1.025
-1.02
-1.01
-0.98
-0.95
-0.915
-0.86
-0.785
-0.69
-0.605
-0.5
-0.445
-0.39
-0.355
-0.35
-0.33
-0.315
-0.3
-0.29
-0.295
-0.3
-0.29
-0.295
-0.275
-0.26
-0.23
-0.22
-0.215
-0.225
-0.23
-0.25
-0.26
-0.26
-0.245
-0.23
-0.225
-0.205
-0.22
-0.22
-0.225
-0.23
-0.235
-0.24
-0.23
-0.215
-0.2
-0.195
-0.19
-0.18
-0.18
-0.185
-0.175
-0.18
-0.18
-0.175
-0.185
-0.185
-0.175
-0.17
-0.16
-0.14
-0.14
-0.135
-0.14
-0.13
-0.12
-0.125
-0.125
-0.13
-0.13
-0.1
-0.1
-0.095
-0.085
-0.085
-0.075
-0.085
-0.075
-0.075
-0.075
-0.075
-0.08
-0.065
-0.05
-0.035
-0.03
-0.02
-0.01
-0.035
-0.025
-0.02
-0.02
0.0
0.01
0.015
0.02
0.04
0.05
0.055
0.055
0.065
0.07
0.075
0.09
0.095
0.11
0.12
0.145
0.155
0.165
0.175
0.18
0.17
0.175
0.18
0.185
0.185
0.2
0.215
0.215
0.22
0.22
0.225
0.22
0.21
0.2
0.195
0.18
0.165
0.165
0.155
0.15
0.145
0.13
0.1
0.095
0.06
0.05
0.025
0.005
-0.005
-0.01
-0.02
-0.03
-0.035
-0.05
-0.06
-0.065
-0.085
-0.09
-0.105
-0.115
-0.125
-0.12
-0.12
-0.125
-0.12
-0.115
-0.105
-0.125
-0.125
-0.125
-0.125
-0.13
-0.125
-0.125
-0.125
-0.125
-0.115
-0.115
-0.115
-0.13
-0.125
-0.13
-0.135
-0.145
-0.15
-0.15
-0.145
-0.145
-0.135
-0.14
-0.145
-0.15
-0.155
-0.17
-0.185
-0.195
-0.2
-0.19
-0.2
-0.185
-0.18
-0.185
-0.19
-0.195
-0.2
-0.225
-0.23
-0.255
-0.25
-0.24
-0.24
-0.24
-0.24
-0.24
-0.255
-0.27
-0.255
-0.275
-0.275
-0.29
-0.295
-0.285
-0.28
-0.27
-0.275
-0.275
-0.285
-0.295
-0.29
-0.3
-0.29
-0.31
-0.305
-0.31
-0.29
-0.285
-0.285
-0.29
-0.295
-0.3
-0.305
-0.315
-0.3
-0.32
-0.32
-0.31
-0.31
-0.295
-0.29
-0.295
-0.29
-0.3
-0.295
-0.315
-0.315
-0.305
-0.305
-0.305
-0.295
-0.29
-0.29
-0.29
-0.295
-0.29
-0.295
-0.3
-0.3
-0.305
-0.285
-0.29
-0.28
-0.265
-0.245
-0.245
-0.24
-0.24
-0.23
-0.235
-0.225
-0.23
-0.205
-0.185
-0.16
-0.14
-0.13
-0.125
-0.125
-0.14
-0.165
-0.185
-0.205
-0.21
-0.225
-0.23
-0.25
-0.26
-0.265
-0.28
-0.3
-0.3
-0.32
-0.335
-0.345
-0.345
-0.34
-0.345
-0.335
-0.335
-0.335
-0.335
-0.325
-0.335
-0.35
-0.35
-0.36
-0.37
-0.36
-0.36
-0.355
-0.35
-0.345
-0.335
-0.33
-0.335
-0.34
-0.36
-0.35
-0.365
-0.395
-0.43
-0.47
-0.545
-0.59
-0.59
-0.495
-0.315
-0.04
0.31
0.7
1.055
1.355
1.495
1.44
1.14
0.675
0.17
-0.235
-0.47
-0.58
-0.59
-0.595
-0.615
-0.67
-0.77
-0.88
-1.01
-1.07
-1.115
-1.13
-1.115
-1.065
-1.02
-0.945
-0.85
-0.78
-0.68
-0.6
-0.535
-0.47
-0.435
-0.415
-0.395
-0.4
-0.395
-0.405
-0.4
-0.385
-0.375
-0.36
-0.345
-0.335
-0.325
-0.325
-0.315
-0.325
-0.325
-0.33
-0.33
-0.33
-0.325
-0.315
-0.3
-0.29
-0.29
-0.31
-0.295
-0.305
-0.295
-0.295
-0.285
-0.285
-0.28
-0.28
-0.26
-0.26
-0.25
-0.24
-0.24
-0.235
-0.235
-0.245
-0.24
-0.235
-0.24
-0.24
-0.23
-0.21
-0.2
-0.2
-0.195
-0.19
-0.185
-0.175
-0.18
-0.17
-0.155
-0.155
-0.135
-0.12
-0.11
-0.105
-0.095
-0.095
-0.085
-0.085
-0.09
-0.07
-0.07
-0.055
-0.035
-0.03
-0.02
-0.01
-0.01
-0.005
0.005
0.02
0.025
0.035
0.05
0.06
0.085
0.12
0.12
0.135
0.14
0.15
0.145
0.155
0.155
0.155
0.185
0.195
0.205
0.22
0.22
0.235
0.24
0.24
0.23
0.24
0.24
0.245
0.24
0.24
0.235
0.245
0.235
0.215
0.195
0.185
0.16
0.135
0.12
0.09
0.08
0.055
0.05
0.035
0.015
-0.02
-0.02
-0.045
-0.06
-0.085
-0.11
-0.125
-0.135
-0.145
-0.155
-0.165
-0.17
-0.175
-0.165
-0.185
-0.19
-0.195
-0.2
-0.205
-0.205
-0.2
-0.19
-0.19
-0.18
-0.195
-0.2
-0.2
-0.215
-0.21
-0.21
-0.22
-0.2
-0.205
-0.205
-0.2
-0.19
-0.19
-0.195
-0.195
-0.2
-0.205
-0.22
-0.225
-0.22
-0.21
-0.22
-0.205
-0.2
-0.215
-0.22
-0.23
-0.235
-0.24
-0.235
-0.245
-0.255
-0.235
-0.23
-0.225
-0.24
-0.25
-0.24
-0.25
-0.255
-0.27
-0.265
-0.265
-0.265
-0.265
-0.265
-0.255
-0.255
-0.25
-0.265
-0.27
-0.275
-0.275
-0.285
-0.285
-0.29
-0.275
-0.28
-0.28
-0.27
-0.275
-0.265
-0.275
-0.265
-0.28
-0.28
-0.285
-0.285
-0.285
-0.285
-0.27
-0.27
-0.27
-0.265
-0.265
-0.275
-0.305
-0.31
-0.305
-0.3
-0.295
-0.295
-0.285
-0.285
-0.285
-0.29
-0.295
-0.3
-0.285
-0.29
-0.295
-0.295
-0.3
-0.295
-0.28
-0.275
-0.275
-0.285
-0.28
-0.29
-0.295
-0.3
-0.295
-0.29
-0.28
-0.27
-0.255
-0.245
-0.24
-0.225
-0.215
-0.225
-0.225
-0.22
-0.23
-0.215
-0.205
-0.18
-0.15
-0.125
-0.105
-0.1
-0.1
-0.125
-0.13
-0.155
-0.165
-0.175
-0.19
-0.195
-0.195
-0.195
-0.225
-0.22
-0.25
-0.275
-0.275
-0.3
-0.305
-0.31
-0.3
-0.31
-0.3
-0.31
-0.3
-0.315
-0.3
-0.32
-0.325
-0.325
-0.325
-0.325
-0.32
-0.315
-0.31
-0.305
-0.305
-0.31
-0.32
-0.315
-0.32
-0.32
-0.335
-0.35
-0.375
-0.42
-0.47
-0.535
-0.54
-0.475
-0.285
0.025
0.415
0.845
1.225
1.475
1.505
1.265
0.83
0.285
-0.165
-0.45
-0.575
-0.585
-0.575
-0.575
-0.615
-0.71
-0.82
-0.935
-1.03
-1.075
-1.085
-1.065
-1.01
-0.945
-0.85
-0.765
-0.675
-0.59
-0.49
-0.425
-0.385
-0.345
-0.325
-0.32
-0.33
-0.32
-0.325
-0.32
-0.32
-0.315
-0.315
-0.3
-0.285
-0.285
-0.29
-0.275
-0.275
-0.275
-0.285
-0.295
-0.285
-0.28
-0.28
-0.27
-0.255
-0.25
-0.245
-0.235
-0.24
-0.25
-0.25
-0.25
-0.265
-0.25
-0.255
-0.255
-0.225
-0.22
-0.21
-0.21
-0.205
-0.22
-0.23
-0.215
-0.21
-0.18
-0.175
-0.16
-0.16
-0.145
-0.145
-0.125
-0.12
-0.135
-0.13
-0.135
-0.13
-0.13
-0.125
-0.12
-0.1
-0.07
-0.06
-0.05
-0.05
-0.045
-0.055
-0.04
-0.04
-0.025
-0.01
0.005
0.025
0.04
0.06
0.065
0.065
0.07
0.07
0.07
0.08
0.095
0.09
0.105
0.14
0.16
0.16
0.175
0.18
0.17
0.18
0.16
0.185
0.22
0.22
0.215
0.245
0.245
0.25
0.255
0.245
0.255
0.245
0.25
0.24
0.245
0.255
0.25
0.26
0.26
0.255
0.245
0.225
0.2
0.185
0.165
0.15
0.15
0.155
0.125
0.12
0.11
0.09
0.075
0.055
0.035
-0.005
-0.03
-0.065
-0.085
-0.095
-0.09
-0.085
-0.08
-0.09
-0.09
-0.11
-0.13
-0.155
-0.185
-0.185
-0.185
-0.185
-0.18
-0.18
-0.175
-0.18
-0.185
-0.2
-0.21
-0.23
-0.225
-0.23
-0.2
-0.185
-0.18
-0.16
-0.175
-0.185
-0.195
-0.19
-0.2
-0.205
-0.21
-0.235
-0.23
-0.23
-0.22
-0.215
-0.21
-0.215
-0.21
-0.215
-0.235
-0.255
-0.26
-0.265
-0.26
-0.24
-0.23
-0.225
-0.21
-0.23
-0.25
-0.25
-0.265
-0.275
-0.265
-0.245
-0.24
-0.245
-0.26
-0.26
-0.275
-0.275
-0.29
-0.295
-0.295
-0.295
-0.285
-0.29
-0.305
-0.3
-0.295
-0.295
-0.29
-0.285
-0.275
-0.27
-0.27
-0.29
-0.305
-0.31
-0.32
-0.31
-0.32
-0.29
-0.29
-0.305
-0.31
-0.315
-0.3
-0.305
-0.3
-0.305
-0.32
-0.325
-0.3
-0.305
-0.29
-0.295
-0.295
-0.305
-0.305
-0.31
-0.315
-0.315
-0.3
-0.3
-0.295
-0.29
-0.295
-0.3
-0.3
-0.305
-0.3
-0.31
-0.315
-0.32
-0.315
-0.305
-0.285
-0.275
-0.26
-0.255
-0.255
-0.245
-0.255
-0.26
-0.265
-0.255
-0.24
-0.225
-0.205
-0.18
-0.165
-0.16
-0.14
-0.145
-0.145
-0.145
-0.15
-0.165
-0.165
-0.175
-0.185
-0.19
-0.205
-0.21
-0.225
-0.24
-0.27
-0.29
-0.315
-0.33
-0.34
-0.335
-0.34
-0.32
-0.31
-0.315
-0.33
-0.34
-0.355
-0.35
-0.37
-0.37
-0.36
-0.345
-0.335
-0.34
-0.34
-0.335
-0.34
-0.345
-0.35
-0.36
-0.375
-0.365
-0.335
-0.34
-0.335
-0.335
-0.35
-0.39
-0.45
-0.525
-0.57
-0.535
-0.425
-0.175
0.15
0.555
0.94
1.27
1.455
1.425
1.175
0.71
0.145
-0.325
-0.62
-0.725
-0.715
-0.655
-0.625
-0.625
-0.69
-0.78
-0.88
-0.975
-1.035
-1.065
-1.07
-1.05
-1.03
-0.99
-0.945
-0.85
-0.79
-0.71
-0.63
-0.575
-0.52
-0.48
-0.425
-0.395
-0.375
-0.365
-0.36
-0.34
-0.335
-0.33
-0.325
-0.31
-0.315
-0.305
-0.305
-0.31
-0.315
-0.305
-0.3
-0.285
-0.26
-0.25
-0.24
-0.25
-0.26
-0.27
-0.29
-0.305
-0.31
-0.28
-0.275
-0.265
-0.245
-0.24
-0.23
-0.235
-0.225
-0.24
-0.25
-0.255
-0.245
-0.25
-0.22
-0.2
-0.2
-0.205
-0.195
-0.205
-0.2
-0.2
-0.2
-0.2
-0.18
-0.17
-0.16
-0.15
-0.13
-0.14
-0.13
-0.125
-0.125
-0.145
-0.135
-0.14
-0.135
-0.125
-0.105
-0.07
-0.06
-0.05
-0.04
-0.035
-0.05
-0.05
-0.05
-0.05
-0.065
-0.055
-0.035
-0.01
0.015
0.03
0.05
0.045
0.05
0.035
0.035
0.035
0.05
0.065
0.08
0.09
0.11
0.11
0.115
0.13
0.14
0.145
0.14
0.16
0.17
0.175
0.2
0.225
0.235
0.235
0.235
0.215
0.205
0.19
0.175
0.155
0.155
0.16
0.145
0.13
0.125
0.11
0.095
0.08
0.05
0.035
0.01
-0.005
-0.015
-0.035
-0.04
-0.06
-0.065
-0.08
-0.095
-0.105
-0.105
-0.125
-0.125
-0.135
-0.145
-0.16
-0.155
-0.155
-0.155
-0.165
-0.16
-0.17
-0.165
-0.17
-0.18
-0.19
-0.185
-0.185
-0.17
-0.16
-0.145
-0.15
-0.155
-0.155
-0.17
-0.175
-0.19
-0.195
-0.19
-0.185
-0.18
-0.18
-0.175
-0.195
-0.175
-0.19
-0.195
-0.195
-0.22
-0.225
-0.22
-0.23
-0.225
-0.235
-0.22
-0.235
-0.22
-0.24
-0.25
-0.255
-0.26
-0.265
-0.27
-0.255
-0.255
-0.245
-0.25
-0.25
-0.245
-0.26
-0.27
-0.28
-0.28
-0.285
-0.29
-0.285
-0.285
-0.285
-0.285
-0.285
-0.285
-0.29
-0.29
-0.31
-0.305
-0.305
-0.31
-0.31
-0.285
-0.29
-0.285
-0.28
-0.275
-0.295
-0.305
-0.305
-0.31
-0.31
-0.31
-0.305
-0.305
-0.3
-0.29
-0.305
-0.295
-0.305
-0.305
-0.33
-0.32
-0.33
-0.335
-0.31
-0.31
-0.3
-0.305
-0.31
-0.305
-0.305
-0.315
-0.315
-0.32
-0.32
-0.32
-0.315
-0.31
-0.295
-0.28
-0.275
-0.27
-0.265
-0.265
-0.27
-0.265
-0.255
-0.245
-0.25
-0.235
-0.215
-0.2
-0.185
-0.165
-0.165
-0.16
-0.16
-0.185
-0.185
-0.195
-0.2
-0.205
-0.215
-0.215
-0.23
-0.235
-0.255
-0.28
-0.31
-0.325
-0.33
-0.345
-0.345
-0.345
-0.345
-0.335
-0.34
-0.34
-0.355
-0.365
-0.37
-0.38
-0.385
-0.385
-0.375
-0.36
-0.35
-0.36
-0.35
-0.35
-0.355
-0.365
-0.365
-0.38
-0.37
-0.36
-0.37
-0.355
-0.35
-0.35
-0.375
-0.41
-0.46
-0.53
-0.6
-0.63
-0.575
-0.39
-0.105
0.26
0.665
1.065
1.345
1.48
1.365
1.01
0.495
0.0
-0.365
-0.555
-0.63
-0.625
-0.62
-0.64
-0.73
-0.835
-0.945
-1.045
-1.09
-1.12
-1.09
-1.045
-0.97
-0.885
-0.785
-0.695
-0.625
-0.555
-0.49
-0.445
-0.42
-0.405
-0.395
-0.39
-0.37
-0.365
-0.345
-0.33
-0.335
-0.32
-0.33
-0.335
-0.325
-0.335
-0.33
-0.325
-0.325
-0.305
-0.305
-0.3
-0.3
-0.295
-0.3
-0.3
-0.32
-0.315
-0.31
-0.3
-0.3
-0.275
-0.275
-0.27
-0.26
-0.255
-0.265
-0.27
-0.275
-0.28
-0.265
-0.26
-0.255
-0.24
-0.235
-0.205
-0.21
-0.21
-0.21
-0.21
-0.215
-0.22
-0.22
-0.195
-0.19
-0.19
-0.175
-0.175
-0.16
-0.155
-0.145
-0.14
-0.13
-0.125
-0.12
-0.11
-0.1
-0.085
-0.075
-0.06
-0.05
-0.035
-0.035
-0.03
-0.03
-0.025
-0.03
-0.015
0.01
0.04
0.055
0.065
0.075
0.075
0.095
0.095
0.09
0.1
0.1
0.11
0.125
0.135
0.15
0.175
0.165
0.155
0.19
0.185
0.185
0.18
0.19
0.205
0.2
0.215
0.225
0.22
0.21
0.2
0.19
0.165
0.145
0.13
0.115
0.1
0.085
0.08
0.07
0.06
0.015
0.005
-0.01
-0.025
-0.04
-0.075
-0.095
-0.105
-0.12
-0.12
-0.125
-0.13
-0.135
-0.145
-0.16
-0.17
-0.185
-0.2
-0.2
-0.21
-0.2
-0.21
-0.2
-0.19
-0.195
-0.19
-0.195
-0.21
-0.21
-0.21
-0.21
-0.225
-0.2
-0.195
-0.195
-0.185
-0.185
-0.195
-0.18
-0.195
-0.2
-0.2
-0.205
-0.195
-0.195
-0.19
-0.18
-0.18
-0.18
-0.185
-0.2
-0.205
-0.21
-0.22
-0.23
-0.22
-0.225
-0.235
-0.23
-0.23
-0.23
-0.225
-0.235
-0.245
-0.25
-0.265
-0.265
-0.27
-0.255
-0.255
-0.26
-0.24
-0.265
-0.255
-0.26
-0.275
-0.285
-0.285
-0.295
-0.285
-0.29
-0.29
-0.275
-0.275
-0.28
-0.275
-0.285
-0.29
-0.305
-0.31
-0.305
-0.3
-0.31
-0.3
-0.285
-0.28
-0.305
-0.29
-0.29
-0.295
-0.305
-0.315
-0.32
-0.32
-0.32
-0.305
-0.3
-0.3
-0.29
-0.295
-0.295
-0.31
-0.32
-0.315
-0.305
-0.31
-0.31
-0.295
-0.3
-0.29
-0.29
-0.285
-0.29
-0.295
-0.29
-0.295
-0.295
-0.305
-0.305
-0.295
-0.285
-0.275
-0.28
-0.28
-0.285
-0.28
-0.29
-0.285
-0.28
-0.27
-0.245
-0.23
-0.22
-0.215
-0.21
-0.215
-0.215
-0.205
-0.205
-0.19
-0.17
-0.145
-0.14
-0.125
-0.125
-0.125
-0.15
-0.16
-0.185
-0.19
-0.2
-0.21
-0.225
-0.245
-0.265
-0.26
-0.28
-0.28
-0.31
-0.32
-0.305
-0.315
-0.315
-0.325
-0.33
-0.335
-0.33
-0.325
-0.325
-0.33
-0.34
-0.335
-0.33
-0.335
-0.34
-0.335
-0.345
-0.34
-0.335
-0.34
-0.325
-0.32
-0.32
-0.315
-0.335
-0.37
-0.415
-0.49
-0.555
-0.585
-0.56
-0.43
-0.175
0.18
0.595
0.995
1.335
1.505
1.4
1.035
0.51
-0.01
-0.385
-0.585
-0.635
-0.64
-0.645
-0.685
-0.77
-0.89
-1.0
-1.09
-1.145
-1.14
-1.08
-1.0
-0.895
-0.8
-0.7
-0.605
-0.54
-0.465
-0.435
-0.405
-0.4
-0.39
-0.38
-0.36
-0.345
-0.335
-0.335
-0.325
-0.33
-0.325
-0.335
-0.335
-0.325
-0.32
-0.32
-0.31
-0.295
-0.28
-0.28
-0.28
-0.285
-0.29
-0.29
-0.3
-0.295
-0.285
-0.275
-0.275
-0.27
-0.245
-0.255
-0.25
-0.255
-0.25
-0.255
-0.245
-0.24
-0.25
-0.235
-0.225
-0.225
-0.2
-0.195
-0.2
-0.2
-0.205
-0.195
-0.2
-0.19
-0.185
-0.165
-0.155
-0.135
-0.135
-0.125
-0.11
-0.105
-0.115
-0.105
-0.105
-0.12
-0.105
-0.085
-0.07
-0.055
-0.05
-0.04
-0.035
-0.03
-0.03
-0.02
-0.02
-0.005
-0.005
0.025
0.04
0.055
0.08
0.08
0.09
0.085
0.095
0.09
0.105
0.11
0.115
0.14
0.155
0.185
0.2
0.2
0.2
0.205
0.195
0.19
0.195
0.2
0.22
0.225
0.24
0.25
0.265
0.26
0.265
0.265
0.26
0.25
0.225
0.23
0.21
0.195
0.185
0.17
0.16
0.135
0.12
0.09
0.065
0.045
0.035
0.035
0.03
0.015
0.01
-0.01
-0.04
-0.055
-0.07
-0.08
-0.095
-0.115
-0.12
-0.125
-0.135
-0.145
-0.15
-0.155
-0.15
-0.16
-0.16
-0.185
-0.195
-0.2
-0.21
-0.21
-0.22
-0.21
-0.2
-0.205
-0.195
-0.2
-0.205
-0.19
-0.195
-0.2
-0.2
-0.21
-0.215
-0.225
-0.215
-0.225
-0.22
-0.22
-0.215
-0.22
-0.215
-0.22
-0.225
-0.22
-0.23
-0.215
-0.215
-0.215
-0.21
-0.22
-0.225
-0.235
-0.23
-0.23
-0.245
-0.25
-0.26
-0.255
-0.255
-0.265
-0.255
-0.245
-0.245
-0.24
-0.24
-0.26
-0.265
-0.28
-0.285
-0.285
-0.285
-0.285
-0.27
-0.27
-0.28
-0.27
-0.27
-0.275
-0.28
-0.28
-0.29
-0.3
-0.29
-0.28
-0.265
-0.275
-0.275
-0.28
-0.285
-0.295
-0.31
-0.325
-0.325
-0.32
-0.295
-0.27
-0.25
-0.255
-0.26
-0.275
-0.285
-0.295
-0.305
-0.33
-0.32
-0.315
-0.32
-0.31
-0.3
-0.295
-0.275
-0.275
-0.28
-0.285
-0.305
-0.31
-0.31
-0.315
-0.305
-0.3
-0.29
-0.29
-0.295
-0.305
-0.32
-0.315
-0.32
-0.32
-0.31
-0.3
-0.285
-0.29
-0.27
-0.285
-0.28
-0.285
-0.285
-0.27
-0.265
-0.245
-0.235
-0.215
-0.21
-0.215
-0.19
-0.2
-0.195
-0.18
-0.165
-0.14
-0.125
-0.12
-0.12
-0.15
-0.15
-0.15
-0.16
-0.165
-0.185
-0.2
-0.2
-0.23
-0.26
-0.28
-0.295
-0.3
-0.295
-0.295
-0.29
-0.29
-0.3
-0.31
-0.33
-0.345
-0.35
-0.355
-0.345
-0.34
-0.32
-0.305
-0.3
-0.315
-0.335
-0.335
-0.35
-0.36
-0.355
-0.36
-0.365
-0.375
-0.365
-0.345
-0.315
-0.31
-0.305
-0.325
-0.36
-0.4
-0.47
-0.53
-0.575
-0.555
-0.445
-0.185
0.145
0.52
0.91
1.255
1.475
1.515
1.315
0.89
0.325
-0.18
-0.535
-0.69
-0.69
-0.645
-0.615
-0.61
-0.665
-0.775
-0.875
-0.975
-1.04
-1.07
-1.075
-1.055
-1.01
-0.965
-0.875
-0.81
-0.725
-0.655
-0.595
-0.535
-0.48
-0.445
-0.405
-0.365
-0.36
-0.34
-0.33
-0.3
-0.3
-0.295
-0.295
-0.3
-0.295
-0.28
-0.26
-0.245
-0.235
-0.24
-0.24
-0.245
-0.25
-0.265
-0.265
-0.245
-0.25
-0.26
-0.255
-0.25
-0.23
-0.23
-0.21
-0.205
-0.195
-0.195
-0.2
-0.21
-0.2
-0.205
-0.2
-0.2
-0.19
-0.19
-0.19
-0.19
-0.195
-0.195
-0.18
-0.18
-0.155
-0.14
-0.14
-0.13
-0.12
-0.125
-0.115
-0.125
-0.125
-0.12
-0.115
-0.11
-0.1
-0.075
-0.08
-0.065
-0.06
-0.05
-0.05
-0.05
-0.05
-0.055
-0.045
-0.055
-0.035
-0.025
-0.01
0.02
0.03
0.04
0.045
0.045
0.045
0.055
0.055
0.06
0.07
0.08
0.095
0.11
0.125
0.135
0.135
0.145
0.155
0.15
0.16
0.17
0.185
0.195
0.21
0.215
0.24
0.235
0.23
0.24
0.245
0.235
0.235
0.225
0.225
0.215
0.205
0.2
0.185
0.175
0.155
0.14
0.135
0.115
0.09
0.065
0.05
0.045
0.02
0.015
0.01
-0.005
-0.02
-0.04
-0.05
-0.065
-0.08
-0.095
-0.115
-0.13
-0.145
-0.125
-0.12
-0.13
-0.135
-0.125
-0.13
-0.14
-0.14
-0.15
-0.155
-0.145
-0.145
-0.135
-0.135
-0.135
-0.13
-0.14
-0.145
-0.15
-0.15
-0.155
-0.145
-0.15
-0.155
-0.14
-0.15
-0.15
-0.155
-0.14
-0.155
-0.16
-0.175
-0.195
-0.185
-0.185
-0.185
-0.175
-0.18
-0.175
-0.185
-0.185
-0.195
-0.2
-0.205
-0.23
-0.225
-0.215
-0.22
-0.21
-0.205
-0.22
-0.22
-0.22
-0.23
-0.23
-0.25
-0.255
-0.265
-0.245
-0.24
-0.245
-0.23
-0.24
-0.245
-0.245
-0.255
-0.255
-0.27
-0.265
-0.26
-0.265
-0.26
-0.255
-0.24
-0.25
-0.25
-0.25
-0.255
-0.26
-0.27
-0.265
-0.275
-0.265
-0.275
-0.265
-0.26
-0.265
-0.27
-0.29
-0.29
-0.285
-0.265
-0.285
-0.28
-0.28
-0.28
-0.27
-0.265
-0.265
-0.26
-0.27
-0.27
-0.29
-0.27
-0.265
-0.27
-0.245
-0.24
-0.225
-0.215
-0.21
-0.215
-0.2
-0.205
-0.195
-0.195
-0.185
-0.18
-0.16
-0.14
-0.12
-0.11
-0.1
-0.105
-0.11
-0.12
-0.155
-0.16
-0.18
-0.2
-0.2
-0.2
-0.21
-0.215
-0.23
-0.25
-0.26
-0.29
-0.305
-0.31
-0.32
-0.33
-0.32
