Lead II
-0.21
-0.215
-0.23
-0.235
-0.245
-0.23
-0.215
-0.205
-0.205
-0.23
-0.24
-0.22
-0.215
-0.19
-0.205
-0.22
-0.215
-0.215
-0.19
-0.205
-0.225
-0.22
-0.215
-0.205
-0.215
-0.22
-0.23
-0.235
-0.23
-0.21
-0.18
-0.175
-0.17
-0.185
-0.16
-0.12
-0.085
-0.085
-0.12
-0.14
-0.14
-0.13
-0.12
-0.125
-0.125
-0.12
-0.115
-0.105
-0.08
-0.1
-0.12
-0.135
-0.145
-0.14
-0.12
-0.125
-0.145
-0.175
-0.17
-0.155
-0.155
-0.165
-0.185
-0.21
-0.23
-0.23
-0.215
-0.22
-0.225
-0.235
-0.225
-0.205
-0.185
-0.19
-0.225
-0.235
-0.23
-0.23
-0.22
-0.215
-0.225
-0.245
-0.225
-0.23
-0.21
-0.2
-0.23
-0.25
-0.225
-0.215
-0.185
-0.185
-0.205
-0.23
-0.23
-0.2
-0.125
-0.05
0.015
0.095
0.15
0.225
0.3
0.365
0.46
0.545
0.71
0.905
1.105
1.32
1.495
1.675
1.835
1.96
2.02
1.99
1.87
1.615
1.31
1.04
0.825
0.695
0.58
0.49
0.4
0.365
0.35
0.325
0.295
0.245
0.205
0.15
0.125
0.075
0.035
-0.02
-0.065
-0.09
-0.11
-0.145
-0.16
-0.2
-0.225
-0.235
-0.25
-0.28
-0.315
-0.355
-0.38
-0.375
-0.385
-0.375
-0.395
-0.43
-0.43
-0.435
-0.415
-0.41
-0.41
-0.435
-0.435
-0.445
-0.445
-0.445
-0.465
-0.47
-0.475
-0.46
-0.45
-0.46
-0.48
-0.5
-0.505
-0.495
-0.475
-0.49
-0.5
-0.525
-0.54
-0.54
-0.52
-0.525
-0.525
-0.54
-0.55
-0.55
-0.55
-0.56
-0.59
-0.58
-0.595
-0.59
-0.59
-0.61
-0.63
-0.645
-0.66
-0.64
-0.63
-0.635
-0.65
-0.69
-0.685
-0.665
-0.655
-0.665
-0.665
-0.67
-0.675
-0.66
-0.675
-0.655
-0.64
-0.645
-0.615
-0.575
-0.56
-0.545
-0.56
-0.525
-0.505
-0.465
-0.435
-0.415
-0.42
-0.405
-0.38
-0.335
-0.295
-0.27
-0.27
-0.255
-0.26
-0.235
-0.23
-0.21
-0.205
-0.215
-0.205
-0.205
-0.19
-0.2
-0.205
-0.21
-0.205
-0.205
-0.205
-0.22
-0.23
-0.245
-0.25
-0.245
-0.195
-0.2
-0.215
-0.235
-0.24
-0.23
-0.205
-0.19
-0.2
-0.205
-0.22
-0.22
-0.22
-0.235
-0.255
-0.25
-0.245
-0.23
-0.23
-0.25
-0.255
-0.27
-0.265
-0.24
-0.235
-0.235
-0.255
-0.265
-0.255
-0.25
-0.24
-0.23
-0.24
-0.245
-0.245
-0.23
-0.225
-0.235
-0.235
-0.24
-0.24
-0.225
-0.22
-0.2
-0.23
-0.225
-0.23
-0.205
-0.185
-0.205
-0.22
-0.215
-0.22
-0.215
-0.205
-0.205
-0.21
-0.225
-0.21
-0.215
-0.2
-0.2
-0.215
-0.215
-0.225
-0.21
-0.21
-0.21
-0.235
-0.26
-0.245
-0.22
-0.2
-0.195
-0.19
-0.2
-0.18
-0.18
-0.17
-0.14
-0.14
-0.135
-0.135
-0.145
-0.13
-0.135
-0.16
-0.17
-0.15
-0.12
-0.1
-0.09
-0.1
-0.105
-0.125
-0.13
-0.12
-0.115
-0.13
-0.135
-0.14
-0.155
-0.15
-0.16
-0.17
-0.165
-0.17
-0.175
-0.17
-0.18
-0.215
-0.25
-0.24
-0.225
-0.21
-0.2
-0.215
-0.22
-0.215
-0.22
-0.2
-0.21
-0.23
-0.24
-0.225
-0.23
-0.22
-0.22
-0.23
-0.24
-0.225
-0.205
-0.205
-0.195
-0.2
-0.225
-0.215
-0.195
-0.18
-0.18
-0.19
-0.2
-0.19
-0.135
-0.045
0.075
0.165
0.245
0.32
0.395
0.485
0.55
0.625
0.705
0.84
1.025
1.245
1.46
1.67
1.795
1.865
1.855
1.775
1.56
1.245
0.91
0.675
0.52
0.43
0.345
0.305
0.29
0.28
0.295
0.31
0.28
0.255
0.18
0.145
0.12
0.095
0.075
0.02
-0.035
-0.07
-0.11
-0.125
-0.185
-0.235
-0.265
-0.29
-0.3
-0.31
-0.315
-0.365
-0.41
-0.43
-0.435
-0.415
-0.395
-0.4
-0.435
-0.44
-0.445
-0.435
-0.445
-0.45
-0.47
-0.46
-0.465
-0.46
-0.47
-0.485
-0.495
-0.505
-0.495
-0.485
-0.485
-0.495
-0.51
-0.535
-0.515
-0.52
-0.515
-0.525
-0.535
-0.53
-0.53
-0.54
-0.545
-0.58
-0.595
-0.6
-0.59
-0.57
-0.585
-0.61
-0.62
-0.635
-0.625
-0.63
-0.62
-0.65
-0.68
-0.685
-0.685
-0.675
-0.67
-0.68
-0.715
-0.715
-0.7
-0.7
-0.72
-0.71
-0.705
-0.71
-0.71
-0.68
-0.685
-0.69
-0.705
-0.7
-0.655
-0.61
-0.6
-0.595
-0.59
-0.565
-0.52
-0.49
-0.465
-0.46
-0.445
-0.435
-0.41
-0.375
-0.355
-0.355
-0.34
-0.3
-0.27
-0.265
-0.255
-0.26
-0.255
-0.24
-0.21
-0.185
-0.195
-0.21
-0.215
-0.225
-0.215
-0.205
-0.205
-0.2
-0.205
-0.19
-0.135
-0.085
-0.005
0.07
0.185
0.325
0.46
0.585
0.715
0.82
0.92
1.01
1.075
1.135
1.155
1.15
1.105
0.99
0.76
0.415
-0.02
-0.465
-0.83
-1.125
-1.325
-1.465
-1.555
-1.64
-1.735
-1.82
-1.875
-1.895
-1.93
-1.98
-1.995
-2.0
-2.01
-2.03
-2.03
-2.06
-2.05
-1.97
-1.835
-1.66
-1.475
-1.305
-1.17
-1.05
-0.955
-0.875
-0.825
-0.83
-0.845
-0.845
-0.825
-0.765
-0.735
-0.715
-0.695
-0.62
-0.575
-0.505
-0.455
-0.42
-0.405
-0.345
-0.29
-0.245
-0.205
-0.19
-0.17
-0.155
-0.105
-0.06
-0.02
-0.005
-0.01
0.005
0.025
0.055
0.09
0.115
0.135
0.165
0.205
0.245
0.265
0.285
0.305
0.335
0.36
0.385
0.39
0.405
0.41
0.43
0.47
0.53
0.565
0.58
0.585
0.605
0.65
0.69
0.72
0.745
0.765
0.78
0.81
0.845
0.86
0.865
0.87
0.885
0.915
0.965
0.975
0.97
0.96
0.98
1.005
1.03
1.04
1.045
1.025
1.025
1.04
1.025
1.025
1.01
0.995
1.0
0.99
0.99
0.99
0.95
0.915
0.88
0.865
0.85
0.835
0.8
0.745
0.7
0.675
0.655
0.615
0.575
0.525
0.485
0.455
0.44
0.4
0.335
0.295
0.28
0.275
0.265
0.245
0.2
0.145
0.1
0.095
0.07
0.045
0.02
-0.01
-0.04
-0.055
-0.055
-0.08
-0.095
-0.1
-0.125
-0.115
-0.12
-0.135
-0.16
-0.195
-0.19
-0.185
-0.17
-0.17
-0.19
-0.205
-0.205
-0.185
-0.185
-0.195
-0.22
-0.235
-0.24
-0.225
-0.21
-0.205
-0.225
-0.25
-0.255
-0.25
-0.23
-0.24
-0.225
-0.24
-0.235
-0.24
-0.235
-0.235
-0.265
-0.275
-0.285
-0.27
-0.265
-0.26
-0.28
-0.275
-0.29
-0.3
-0.29
-0.285
-0.285
-0.3
-0.29
-0.29
-0.275
-0.275
-0.31
-0.32
-0.33
-0.32
-0.31
-0.3
-0.31
-0.32
-0.325
-0.315
-0.31
-0.295
-0.32
-0.34
-0.35
-0.355
-0.33
-0.325
-0.325
-0.33
-0.34
-0.325
-0.32
-0.31
-0.315
-0.345
-0.345
-0.335
-0.315
-0.315
-0.33
-0.345
-0.355
-0.355
-0.335
-0.33
-0.325
-0.335
-0.33
-0.325
-0.34
-0.35
-0.34
-0.355
-0.355
-0.345
-0.33
-0.32
-0.35
-0.36
-0.36
-0.345
-0.33
-0.32
-0.31
-0.33
-0.34
-0.345
-0.32
-0.325
-0.33
-0.345
-0.32
-0.31
-0.305
-0.32
-0.335
-0.34
-0.355
-0.32
-0.3
-0.325
-0.335
-0.355
-0.345
-0.32
-0.29
-0.295
-0.305
-0.325
-0.345
-0.34
-0.315
-0.32
-0.315
-0.325
-0.325
-0.32
-0.325
-0.335
-0.325
-0.33
-0.325
-0.32
-0.305
-0.305
-0.31
-0.335
-0.335
-0.32
-0.315
-0.305
-0.3
-0.31
-0.32
-0.315
-0.325
-0.305
-0.32
-0.33
-0.32
-0.315
-0.3
-0.295
-0.3
-0.31
-0.32
-0.29
-0.295
-0.3
-0.315
-0.32
-0.33
-0.315
-0.295
-0.29
-0.285
-0.305
-0.315
-0.32
-0.29
-0.295
-0.29
-0.305
-0.3
-0.3
-0.275
-0.29
-0.295
-0.32
-0.33
-0.315
-0.275
-0.265
-0.27
-0.295
-0.3
-0.31
-0.295
-0.29
-0.285
-0.28
-0.285
-0.27
-0.25
-0.245
-0.24
-0.245
-0.24
-0.215
-0.205
-0.215
-0.225
-0.24
-0.23
-0.235
-0.215
-0.215
-0.215
-0.22
-0.225
-0.21
-0.185
-0.195
-0.2
-0.22
-0.21
-0.19
-0.19
-0.185
-0.225
-0.25
-0.25
-0.26
-0.21
-0.205
-0.215
-0.225
-0.245
-0.25
-0.265
-0.29
-0.305
-0.305
-0.3
-0.275
-0.255
-0.27
-0.29
-0.3
-0.305
-0.295
-0.285
-0.255
-0.27
-0.265
-0.285
-0.28
-0.26
-0.265
-0.275
-0.29
-0.28
-0.255
-0.23
-0.235
-0.25
-0.275
-0.28
-0.255
-0.18
-0.08
0.02
0.11
0.195
0.295
0.41
0.515
0.61
0.685
0.8
0.995
1.215
1.42
1.63
1.825
1.98
2.05
2.0
1.88
1.635
1.28
0.875
0.51
0.29
0.155
0.105
0.1
0.11
0.13
0.135
0.13
0.1
0.06
0.01
-0.015
-0.04
-0.065
-0.1
-0.12
-0.145
-0.155
-0.185
-0.195
-0.24
-0.29
-0.335
-0.35
-0.35
-0.365
-0.39
-0.415
-0.43
-0.435
-0.425
-0.43
-0.455
-0.48
-0.495
-0.485
-0.475
-0.48
-0.485
-0.5
-0.51
-0.515
-0.51
-0.5
-0.5
-0.51
-0.52
-0.505
-0.515
-0.505
-0.51
-0.53
-0.53
-0.515
-0.505
-0.51
-0.51
-0.55
-0.555
-0.56
-0.545
-0.545
-0.55
-0.56
-0.565
-0.56
-0.55
-0.565
-0.58
-0.605
-0.605
-0.595
-0.59
-0.585
-0.615
-0.65
-0.655
-0.635
-0.62
-0.635
-0.65
-0.675
-0.685
-0.695
-0.685
-0.705
-0.71
-0.72
-0.72
-0.725
-0.725
-0.74
-0.745
-0.76
-0.76
-0.745
-0.705
-0.7
-0.72
-0.735
-0.735
-0.725
-0.685
-0.675
-0.665
-0.655
-0.645
-0.635
-0.615
-0.59
-0.59
-0.58
-0.57
-0.525
-0.485
-0.46
-0.44
-0.435
-0.42
-0.375
-0.34
-0.31
-0.295
-0.29
-0.275
-0.27
-0.25
-0.22
-0.22
-0.225
-0.23
-0.21
-0.195
-0.205
-0.205
-0.225
-0.225
-0.21
-0.205
-0.205
-0.22
-0.255
-0.27
-0.24
-0.22
-0.2
-0.215
-0.245
-0.255
-0.26
-0.24
-0.215
-0.21
-0.225
-0.235
-0.24
-0.24
-0.25
-0.265
-0.26
-0.26
-0.25
-0.24
-0.225
-0.23
-0.255
-0.26
-0.255
-0.225
-0.215
-0.225
-0.25
-0.26
-0.255
-0.235
-0.22
-0.235
-0.235
-0.255
-0.265
-0.24
-0.235
-0.235
-0.235
-0.235
-0.245
-0.24
-0.26
-0.255
-0.26
-0.265
-0.26
-0.23
-0.24
-0.27
-0.27
-0.27
-0.235
-0.235
-0.225
-0.225
-0.23
-0.225
-0.19
-0.165
-0.15
-0.17
-0.2
-0.195
-0.2
-0.205
-0.185
-0.17
-0.195
-0.19
-0.2
-0.19
-0.185
-0.205
-0.2
-0.195
-0.195
-0.21
-0.225
-0.26
-0.265
-0.26
-0.24
-0.245
-0.25
-0.27
-0.29
-0.295
-0.325
-0.29
-0.29
-0.295
-0.305
-0.315
-0.295
-0.275
-0.275
-0.285
-0.295
-0.31
-0.31
-0.31
-0.285
-0.29
-0.295
-0.29
-0.285
-0.265
-0.265
-0.265
-0.295
-0.3
-0.305
-0.255
-0.15
-0.045
0.055
0.14
0.205
0.325
0.47
0.655
0.865
1.08
1.325
1.595
1.85
2.04
2.065
1.975
1.76
1.48
1.1
0.715
0.44
0.26
0.16
0.095
0.08
0.1
0.115
0.085
0.06
0.045
0.01
-0.03
-0.085
-0.12
-0.125
-0.145
-0.17
-0.195
-0.25
-0.275
-0.3
-0.295
-0.305
-0.35
-0.39
-0.42
-0.445
-0.455
-0.475
-0.465
-0.475
-0.47
-0.465
-0.465
-0.47
-0.495
-0.515
-0.52
-0.51
-0.48
-0.5
-0.505
-0.495
-0.5
-0.515
-0.495
-0.48
-0.495
-0.495
-0.52
-0.52
-0.52
-0.515
-0.535
-0.55
-0.55
-0.545
-0.545
-0.55
-0.57
-0.595
-0.59
-0.575
-0.575
-0.59
-0.595
-0.615
-0.625
-0.62
-0.61
-0.64
-0.635
-0.665
-0.675
-0.665
-0.65
-0.65
-0.675
-0.71
-0.72
-0.705
-0.685
-0.665
-0.67
-0.665
-0.67
-0.67
-0.66
-0.64
-0.635
-0.605
-0.585
-0.56
-0.545
-0.53
-0.515
-0.51
-0.5
-0.46
-0.42
-0.385
-0.37
-0.385
-0.355
-0.32
-0.305
-0.28
-0.285
-0.275
-0.285
-0.27
-0.255
-0.24
-0.235
-0.255
-0.25
-0.26
-0.245
-0.245
-0.265
-0.26
-0.25
-0.245
-0.27
-0.265
-0.27
-0.28
-0.28
-0.27
-0.265
-0.26
-0.27
-0.29
-0.275
-0.26
-0.245
-0.255
-0.275
-0.3
-0.295
-0.29
-0.255
-0.245
-0.265
-0.275
-0.28
-0.275
-0.25
-0.24
-0.245
-0.255
-0.27
-0.26
-0.265
-0.24
-0.245
-0.265
-0.265
-0.26
-0.255
-0.255
-0.26
-0.27
-0.25
-0.245
-0.235
-0.235
-0.25
-0.27
-0.26
-0.255
-0.225
-0.22
-0.245
-0.26
-0.26
-0.23
-0.2
-0.18
-0.18
-0.195
-0.2
-0.19
-0.155
-0.15
-0.165
-0.19
-0.19
-0.195
-0.17
-0.15
-0.145
-0.155
-0.17
-0.175
-0.165
-0.155
-0.15
-0.16
-0.175
-0.175
-0.185
-0.185
-0.21
-0.22
-0.215
-0.21
-0.215
-0.22
-0.245
-0.26
-0.25
-0.235
-0.22
-0.23
-0.25
-0.27
-0.265
-0.255
-0.225
-0.22
-0.24
-0.25
-0.255
-0.265
-0.24
-0.23
-0.23
-0.24
-0.255
-0.225
-0.24
-0.2
-0.15
-0.06
0.085
0.215
0.3
0.375
0.48
0.57
0.68
0.82
1.005
1.215
1.455
1.695
1.93
2.06
2.045
1.88
1.52
1.065
0.665
0.395
0.3
0.27
0.235
0.2
0.165
0.16
0.14
0.095
0.055
0.005
-0.045
-0.075
-0.095
-0.12
-0.155
-0.19
-0.23
-0.265
-0.28
-0.3
-0.32
-0.355
-0.36
-0.355
-0.345
-0.37
-0.38
-0.4
-0.41
-0.385
-0.38
-0.395
-0.425
-0.435
-0.44
-0.425
-0.395
-0.42
-0.43
-0.46
-0.465
-0.46
-0.435
-0.43
-0.43
-0.45
-0.475
-0.475
-0.47
-0.47
-0.485
-0.51
-0.515
-0.52
-0.52
-0.51
-0.52
-0.565
-0.55
-0.54
-0.535
-0.54
-0.565
-0.585
-0.595
-0.61
-0.595
-0.605
-0.62
-0.63
-0.63
-0.63
-0.615
-0.63
-0.63
-0.645
-0.655
-0.635
-0.615
-0.585
-0.565
-0.56
-0.56
-0.535
-0.49
-0.455
-0.435
-0.405
-0.4
-0.365
-0.325
-0.295
-0.28
-0.265
-0.245
-0.225
-0.215
-0.21
-0.215
-0.195
-0.185
-0.18
-0.185
-0.17
-0.18
-0.18
-0.175
-0.165
-0.17
-0.175
-0.185
-0.205
-0.195
-0.17
-0.16
-0.17
-0.185
-0.2
-0.21
-0.195
-0.185
-0.165
-0.195
-0.205
-0.21
-0.21
-0.195
-0.19
-0.19
-0.2
-0.22
-0.21
-0.2
-0.19
-0.195
-0.215
-0.21
-0.19
-0.195
-0.2
-0.205
-0.215
-0.205
-0.195
-0.175
-0.185
-0.21
-0.22
-0.215
-0.195
-0.16
-0.155
-0.17
-0.195
-0.2
-0.19
-0.18
-0.165
-0.16
-0.185
-0.175
-0.165
-0.155
-0.13
-0.12
-0.115
-0.105
-0.1
-0.095
-0.095
-0.105
-0.115
-0.125
-0.115
-0.09
-0.075
-0.1
-0.115
-0.12
-0.12
-0.105
-0.1
-0.135
-0.15
-0.18
-0.16
-0.15
-0.145
-0.175
-0.195
-0.195
-0.19
-0.205
-0.21
-0.215
-0.23
-0.23
-0.215
-0.22
-0.22
-0.22
-0.23
-0.24
-0.23
-0.225
-0.22
-0.225
-0.255
-0.225
-0.21
-0.195
-0.2
-0.2
-0.21
-0.225
-0.205
-0.18
-0.175
-0.195
-0.21
-0.17
-0.09
0.05
0.175
0.27
0.335
0.415
0.49
0.585
0.695
0.825
1.0
1.23
1.495
1.755
1.95
2.035
2.025
1.925
1.685
1.325
0.965
0.675
0.495
0.385
0.34
0.325
0.3
0.29
0.27
0.23
0.21
0.165
0.105
0.04
-0.01
-0.05
-0.075
-0.095
-0.14
-0.185
-0.235
-0.27
-0.29
-0.295
-0.32
-0.35
-0.385
-0.4
-0.41
-0.41
-0.405
-0.4
-0.415
-0.435
-0.435
-0.44
-0.435
-0.445
-0.455
-0.475
-0.465
-0.45
-0.46
-0.465
-0.485
-0.49
-0.48
-0.46
-0.45
-0.475
-0.505
-0.515
-0.52
-0.505
-0.495
-0.505
-0.535
-0.555
-0.545
-0.535
-0.55
-0.56
-0.585
-0.59
-0.59
-0.575
-0.585
-0.6
-0.62
-0.63
-0.62
-0.605
-0.6
-0.62
-0.63
-0.66
-0.665
-0.66
-0.655
-0.68
-0.685
-0.705
-0.695
-0.69
-0.68
-0.69
-0.695
-0.705
-0.68
-0.67
-0.66
-0.665
-0.675
-0.655
-0.635
-0.595
-0.57
-0.555
-0.55
-0.54
-0.51
-0.455
-0.445
-0.41
-0.41
-0.385
-0.38
-0.335
-0.32
-0.305
-0.315
-0.295
-0.255
-0.24
-0.225
-0.22
-0.23
-0.23
-0.225
-0.2
-0.2
-0.205
-0.22
-0.23
-0.215
-0.19
-0.175
-0.19
-0.17
-0.2
-0.205
-0.22
-0.21
-0.225
-0.25
-0.25
-0.22
-0.215
-0.22
-0.23
-0.25
-0.25
-0.245
-0.235
-0.245
-0.25
-0.26
-0.26
-0.245
-0.24
-0.225
-0.24
-0.265
-0.26
-0.27
-0.245
-0.25
-0.265
-0.275
-0.28
-0.27
-0.27
-0.28
-0.29
-0.31
-0.295
-0.28
-0.25
-0.25
-0.245
-0.285
-0.275
-0.275
-0.27
-0.255
-0.265
-0.26
-0.245
-0.24
-0.245
-0.255
-0.275
-0.29
-0.295
-0.26
-0.23
-0.235
-0.275
-0.31
-0.325
-0.315
-0.29
-0.265
-0.26
-0.285
-0.285
-0.275
-0.26
-0.24
-0.24
-0.235
-0.235
-0.215
-0.185
-0.175
-0.18
-0.21
-0.205
-0.195
-0.18
-0.17
-0.165
-0.175
-0.185
-0.18
-0.18
-0.175
-0.175
-0.185
-0.2
-0.18
-0.175
-0.18
-0.17
-0.18
-0.19
-0.17
-0.165
-0.18
-0.205
-0.24
-0.275
-0.26
-0.23
-0.23
-0.255
-0.28
-0.3
-0.31
-0.29
-0.27
-0.265
-0.26
-0.27
-0.29
-0.28
-0.285
-0.295
-0.285
-0.29
-0.255
-0.245
-0.25
-0.28
-0.29
-0.305
-0.28
-0.255
-0.22
-0.225
-0.255
-0.275
-0.275
-0.25
-0.2
-0.135
-0.03
0.08
0.165
0.24
0.335
0.415
0.525
0.64
0.82
1.02
1.25
1.43
1.64
1.815
1.97
2.08
2.085
1.99
1.82
1.525
1.145
0.81
0.57
0.42
0.31
0.225
0.19
0.185
0.175
0.155
0.095
0.025
-0.025
-0.085
-0.11
-0.155
-0.18
-0.22
-0.23
-0.25
-0.315
-0.38
-0.41
-0.41
-0.4
-0.39
-0.4
-0.42
-0.445
-0.455
-0.43
-0.41
-0.435
-0.47
-0.495
-0.49
-0.445
-0.43
-0.46
-0.49
-0.495
-0.495
-0.48
-0.47
-0.46
-0.475
-0.505
-0.515
-0.495
-0.48
-0.505
-0.5
-0.505
-0.515
-0.525
-0.53
-0.54
-0.52
-0.545
-0.56
-0.56
-0.55
-0.56
-0.565
-0.575
-0.59
-0.595
-0.605
-0.58
-0.59
-0.62
-0.635
-0.635
-0.62
-0.615
-0.635
-0.65
-0.67
-0.665
-0.66
-0.67
-0.675
-0.675
-0.665
-0.645
-0.62
-0.63
-0.64
-0.65
-0.655
-0.625
-0.575
-0.55
-0.545
-0.55
-0.54
-0.505
-0.445
-0.425
-0.41
-0.415
-0.4
-0.385
-0.35
-0.345
-0.31
-0.305
-0.3
-0.28
-0.27
-0.255
-0.24
-0.245
-0.235
-0.22
-0.21
-0.2
-0.22
-0.245
-0.24
-0.215
-0.19
-0.19
-0.2
-0.235
-0.245
-0.225
-0.21
-0.21
-0.235
-0.23
-0.255
-0.25
-0.245
-0.225
-0.22
-0.21
-0.225
-0.225
-0.22
-0.225
-0.24
-0.24
-0.24
-0.255
-0.24
-0.225
-0.25
-0.255
-0.265
-0.255
-0.24
-0.22
-0.245
-0.275
-0.27
-0.27
-0.25
-0.245
-0.245
-0.245
-0.255
-0.245
-0.23
-0.23
-0.235
-0.24
-0.25
-0.245
-0.23
-0.24
-0.265
-0.285
-0.27
-0.26
-0.23
-0.225
-0.235
-0.255
-0.27
-0.265
-0.245
-0.245
-0.23
-0.255
-0.265
-0.26
-0.25
-0.24
-0.245
-0.24
-0.245
-0.22
-0.21
-0.205
-0.215
-0.235
-0.23
-0.21
-0.17
-0.155
-0.155
-0.18
-0.18
-0.18
-0.17
-0.17
-0.175
-0.185
-0.185
-0.195
-0.195
-0.185
-0.205
-0.21
-0.21
-0.19
-0.185
-0.185
-0.205
-0.22
-0.235
-0.24
-0.235
-0.245
-0.245
-0.275
-0.285
-0.3
-0.29
-0.3
-0.315
-0.32
-0.31
-0.285
-0.265
-0.27
-0.3
-0.34
-0.36
-0.355
-0.315
-0.29
-0.295
-0.315
-0.315
-0.3
-0.29
-0.285
-0.295
-0.3
-0.31
-0.295
-0.285
-0.29
-0.295
-0.305
-0.3
-0.25
-0.18
-0.105
-0.035
0.02
0.08
0.115
0.16
0.23
0.335
0.44
0.575
0.76
0.94
1.145
1.33
1.54
1.705
1.82
1.865
1.825
1.67
1.4
1.06
0.745
0.555
0.49
0.45
0.38
0.285
0.225
0.18
0.14
0.135
0.115
0.085
0.05
0.02
-0.03
-0.085
-0.14
-0.175
-0.185
-0.215
-0.245
-0.305
-0.355
-0.39
-0.39
-0.38
-0.39
-0.41
-0.43
-0.465
-0.49
-0.485
-0.485
-0.49
-0.51
-0.505
-0.49
-0.495
-0.51
-0.54
-0.575
-0.555
-0.51
-0.49
-0.495
-0.53
-0.545
-0.55
-0.54
-0.55
-0.54
-0.555
-0.57
-0.58
-0.575
-0.57
-0.56
-0.585
-0.6
-0.6
-0.59
-0.59
-0.565
-0.6
-0.62
-0.64
-0.635
-0.625
-0.605
-0.63
-0.67
-0.685
-0.68
-0.66
-0.66
-0.67
-0.695
-0.715
-0.715
-0.725
-0.725
-0.73
-0.725
-0.735
-0.735
-0.725
-0.71
-0.73
-0.75
-0.75
-0.715
-0.685
-0.66
-0.665
-0.675
-0.675
-0.635
-0.6
-0.56
-0.535
-0.54
-0.53
-0.505
-0.465
-0.44
-0.43
-0.4
-0.385
-0.345
-0.325
-0.31
-0.3
-0.285
-0.3
-0.305
-0.285
-0.275
-0.285
-0.28
-0.28
-0.27
-0.24
-0.245
-0.265
-0.295
-0.29
-0.285
-0.255
-0.25
-0.265
-0.285
-0.295
-0.29
-0.285
-0.28
-0.275
-0.285
-0.285
-0.275
-0.275
-0.275
-0.295
-0.305
-0.305
-0.295
-0.29
-0.29
-0.3
-0.325
-0.31
-0.305
-0.28
-0.27
-0.295
-0.32
-0.335
-0.325
-0.305
-0.305
-0.3
-0.315
-0.32
-0.315
-0.315
-0.295
-0.285
-0.285
-0.295
-0.295
-0.29
-0.29
-0.275
-0.28
-0.285
-0.275
-0.26
-0.245
-0.27
-0.29
-0.315
-0.295
-0.27
-0.255
-0.255
-0.285
-0.29
-0.29
-0.27
-0.25
-0.235
-0.225
-0.23
-0.22
-0.22
-0.215
-0.225
-0.24
-0.23
-0.195
-0.185
-0.17
-0.19
-0.215
-0.2
-0.2
-0.16
-0.175
-0.175
-0.21
-0.225
-0.215
-0.2
-0.19
-0.195
-0.215
-0.205
-0.205
-0.2
-0.21
-0.235
-0.265
-0.28
-0.27
-0.265
-0.25
-0.27
-0.295
-0.31
-0.3
-0.28
-0.255
-0.27
-0.295
-0.305
-0.315
-0.305
-0.3
-0.325
-0.33
-0.32
-0.31
-0.285
-0.28
-0.29
-0.31
-0.32
-0.31
-0.295
-0.27
-0.265
-0.285
-0.295
-0.285
-0.285
-0.265
-0.24
-0.205
-0.16
-0.055
0.02
0.105
0.16
0.2
0.25
0.36
0.5
0.65
0.845
1.025
1.195
1.39
1.58
1.73
1.815
1.81
1.765
1.63
1.425
1.155
0.87
0.67
0.545
0.46
0.385
0.315
0.24
0.195
0.17
0.175
0.155
0.155
0.11
0.05
-0.005
-0.035
-0.065
-0.085
-0.12
-0.17
-0.215
-0.235
-0.23
-0.235
-0.26
-0.32
-0.365
-0.395
-0.385
-0.405
-0.42
-0.45
-0.475
-0.495
-0.49
-0.495
-0.5
-0.505
-0.495
-0.475
-0.455
-0.44
-0.505
-0.52
-0.54
-0.52
-0.51
-0.515
-0.52
-0.545
-0.555
-0.535
-0.53
-0.535
-0.54
-0.57
-0.57
-0.57
-0.555
-0.555
-0.575
-0.59
-0.595
-0.585
-0.585
-0.605
-0.61
-0.62
-0.62
-0.61
-0.61
-0.615
-0.645
-0.665
-0.665
-0.685
-0.675
-0.66
-0.66
-0.68
-0.685
-0.69
-0.695
-0.705
-0.705
-0.71
-0.7
-0.685
-0.68
-0.675
-0.68
-0.69
-0.685
-0.685
-0.65
-0.625
-0.62
-0.64
-0.64
-0.6
-0.57
-0.55
-0.525
-0.51
-0.495
-0.465
-0.43
-0.395
-0.375
-0.365
-0.355
-0.34
-0.31
-0.295
-0.285
-0.29
-0.295
-0.285
-0.26
-0.245
-0.26
-0.275
-0.31
-0.28
-0.265
-0.245
-0.245
-0.26
-0.28
-0.285
-0.275
-0.265
-0.26
-0.265
-0.26
-0.255
-0.255
-0.26
-0.275
-0.295
-0.3
-0.285
-0.28
-0.27
-0.285
-0.295
-0.315
-0.3
-0.29
-0.285
-0.29
-0.3
-0.315
-0.295
-0.28
-0.29
-0.28
-0.29
-0.29
-0.29
-0.28
-0.295
-0.29
-0.305
-0.305
-0.295
-0.29
-0.28
-0.3
-0.305
-0.305
-0.32
-0.305
-0.3
-0.315
-0.32
-0.315
-0.295
-0.295
-0.275
-0.29
-0.295
-0.305
-0.3
-0.29
-0.295
-0.285
-0.305
-0.31
-0.305
-0.29
-0.27
-0.26
-0.285
-0.295
-0.3
-0.295
-0.29
-0.28
-0.295
-0.3
-0.285
-0.28
-0.25
-0.25
-0.25
-0.23
-0.225
-0.215
-0.205
-0.205
-0.21
-0.21
-0.2
-0.175
-0.18
-0.17
-0.205
-0.2
-0.185
-0.175
-0.165
-0.165
-0.2
-0.22
-0.215
-0.2
-0.205
-0.21
-0.23
-0.235
-0.235
-0.22
-0.21
-0.225
-0.245
-0.275
-0.265
-0.255
-0.27
-0.285
-0.29
-0.31
-0.3
-0.29
-0.28
-0.285
-0.305
-0.31
-0.3
-0.295
-0.3
-0.3
-0.315
-0.31
-0.31
-0.305
-0.265
-0.27
-0.275
-0.295
-0.29
-0.28
-0.29
-0.275
-0.28
-0.3
-0.27
-0.255
-0.265
-0.265
-0.265
-0.22
-0.12
-0.01
0.08
0.135
0.185
0.22
0.27
0.335
0.42
0.51
0.63
0.78
0.96
1.16
1.34
1.5
1.645
1.71
1.745
1.72
1.595
1.34
1.005
0.705
0.525
0.42
0.335
0.27
0.205
0.185
0.195
0.21
0.22
0.195
0.135
0.11
0.08
0.025
0.025
-0.005
-0.06
-0.1
-0.135
-0.17
-0.195
-0.235
-0.265
-0.305
-0.325
-0.335
-0.35
-0.39
-0.41
-0.445
-0.46
-0.45
-0.445
-0.455
-0.485
-0.515
-0.51
-0.505
-0.49
-0.51
-0.505
-0.535
-0.535
-0.53
-0.52
-0.535
-0.55
-0.545
-0.53
-0.52
-0.525
-0.535
-0.57
-0.585
-0.565
-0.56
-0.545
-0.56
-0.59
-0.605
-0.615
-0.605
-0.605
-0.595
-0.615
-0.62
-0.625
-0.62
-0.615
-0.63
-0.645
-0.65
-0.65
-0.655
-0.66
-0.68
-0.69
-0.7
-0.7
-0.685
-0.68
-0.71
-0.725
-0.76
-0.745
-0.725
-0.71
-0.71
-0.715
-0.725
-0.72
-0.7
-0.685
-0.68
-0.69
-0.665
-0.65
-0.63
-0.595
-0.565
-0.565
-0.54
-0.515
-0.485
-0.44
-0.44
-0.435
-0.415
-0.385
-0.345
-0.325
-0.33
-0.33
-0.325
-0.295
-0.285
-0.265
-0.295
-0.295
-0.315
-0.3
-0.275
-0.26
-0.265
-0.28
-0.285
-0.3
-0.315
-0.305
-0.3
-0.29
-0.315
-0.31
-0.29
-0.3
-0.32
-0.33
-0.32
-0.315
-0.285
-0.27
-0.275
-0.31
-0.315
-0.345
-0.32
-0.305
-0.3
-0.315
-0.32
-0.315
-0.31
-0.29
-0.295
-0.29
-0.305
-0.305
-0.29
-0.28
-0.28
-0.29
-0.305
-0.295
-0.285
-0.27
-0.3
-0.325
-0.32
-0.31
-0.31
-0.31
-0.31
-0.325
-0.33
-0.335
-0.315
-0.315
-0.295
-0.29
-0.295
-0.3
-0.295
-0.295
-0.31
-0.32
-0.32
-0.305
-0.3
-0.3
-0.31
-0.335
-0.35
-0.325
-0.315
-0.305
-0.305
-0.33
-0.325
-0.32
-0.295
-0.275
-0.26
-0.255
-0.245
-0.245
-0.24
-0.24
-0.235
-0.245
-0.235
-0.22
-0.2
-0.19
-0.21
-0.235
-0.25
-0.255
-0.245
-0.225
-0.24
-0.24
-0.23
-0.22
-0.22
-0.23
-0.24
-0.255
-0.275
-0.275
-0.28
-0.28
-0.29
-0.33
-0.35
-0.345
-0.33
-0.325
-0.33
-0.34
-0.33
-0.305
-0.285
-0.28
-0.31
-0.315
-0.33
-0.33
-0.31
-0.31
-0.315
-0.31
-0.325
-0.305
-0.295
-0.31
-0.315
-0.31
-0.315
-0.32
-0.32
-0.295
-0.27
-0.27
-0.27
-0.255
-0.205
-0.13
-0.03
0.075
0.175
0.28
0.395
0.54
0.655
0.81
0.96
1.15
1.35
1.57
1.75
1.845
1.905
1.905
1.85
1.755
1.585
1.33
1.02
0.685
0.415
0.225
0.1
0.035
0.025
0.05
0.085
0.085
0.065
0.0
-0.035
-0.075
-0.08
-0.07
-0.095
-0.12
-0.135
-0.16
-0.185
-0.2
-0.255
-0.29
-0.315
-0.35
-0.35
-0.365
-0.39
-0.425
-0.465
-0.475
-0.47
-0.475
-0.47
-0.485
-0.495
-0.5
-0.5
-0.49
-0.505
-0.5
-0.495
-0.505
-0.485
-0.5
-0.5
-0.52
-0.525
-0.515
-0.515
-0.505
-0.515
-0.53
-0.53
-0.545
-0.515
-0.52
-0.54
-0.55
-0.56
-0.55
-0.54
-0.54
-0.555
-0.57
-0.575
-0.59
-0.58
-0.575
-0.59
-0.6
-0.61
-0.6
-0.6
-0.6
-0.635
-0.645
-0.65
-0.635
-0.615
-0.615
-0.63
-0.665
-0.685
-0.685
-0.66
-0.64
-0.635
-0.64
-0.64
-0.635
-0.63
-0.605
-0.61
-0.59
-0.585
-0.56
-0.53
-0.495
-0.485
-0.48
-0.455
-0.435
-0.39
-0.375
-0.36
-0.365
-0.365
-0.335
-0.33
-0.295
-0.285
-0.295
-0.265
-0.25
-0.25
-0.26
-0.25
-0.27
-0.265
-0.275
-0.27
-0.255
-0.285
-0.295
-0.305
-0.29
-0.285
-0.265
-0.295
-0.305
-0.31
-0.305
-0.28
-0.275
-0.285
-0.295
-0.29
-0.285
-0.27
-0.265
-0.27
-0.29
-0.295
-0.3
-0.275
-0.25
-0.26
-0.26
-0.275
-0.265
-0.26
-0.24
-0.255
-0.265
-0.245
-0.255
-0.24
-0.225
-0.23
-0.245
-0.25
-0.245
-0.225
-0.215
-0.23
-0.255
-0.25
-0.25
-0.235
-0.215
-0.215
-0.22
-0.235
-0.24
-0.255
-0.255
-0.25
-0.24
-0.245
-0.225
-0.245
-0.245
-0.255
-0.275
-0.28
-0.27
-0.265
-0.225
-0.235
-0.235
-0.23
-0.21
-0.175
-0.155
-0.155
-0.17
-0.205
-0.19
-0.185
-0.185
-0.18
-0.19
-0.185
-0.185
-0.175
-0.17
-0.175
-0.19
-0.22
-0.205
-0.195
-0.19
-0.205
-0.245
-0.26
-0.25
-0.23
-0.21
-0.21
-0.24
-0.26
-0.275
-0.27
-0.275
-0.27
-0.28
-0.305
-0.285
-0.275
-0.29
-0.29
-0.31
-0.325
-0.32
-0.295
-0.28
-0.285
-0.31
-0.31
-0.32
-0.305
-0.29
-0.285
-0.305
-0.315
-0.315
-0.305
-0.265
-0.265
-0.27
-0.27
-0.205
-0.09
0.035
0.135
0.2
0.245
0.325
0.41
0.5
0.615
0.76
0.96
1.215
1.465
1.665
1.795
1.82
1.745
1.565
1.285
0.915
0.585
0.355
0.22
0.165
0.16
0.18
0.17
0.17
0.15
0.12
0.085
0.05
-0.015
-0.05
-0.08
-0.11
-0.145
-0.17
-0.225
-0.265
-0.31
-0.33
-0.335
-0.34
-0.375
-0.42
-0.45
-0.475
-0.465
-0.45
-0.465
-0.495
-0.495
-0.5
-0.49
-0.48
-0.49
-0.5
-0.51
-0.525
-0.51
-0.51
-0.53
-0.545
-0.545
-0.545
-0.53
-0.51
-0.515
-0.55
-0.56
-0.58
-0.555
-0.535
-0.545
-0.565
-0.6
-0.62
-0.585
-0.585
-0.59
-0.6
-0.61
-0.615
-0.6
-0.59
-0.62
-0.635
-0.655
-0.64
-0.645
-0.65
-0.68
-0.685
-0.705
-0.69
-0.69
-0.71
-0.705
-0.73
-0.745
-0.745
-0.73
-0.71
-0.705
-0.715
-0.715
-0.705
-0.68
-0.665
-0.66
-0.64
-0.635
-0.6
-0.565
-0.525
-0.515
-0.505
-0.475
-0.435
