Lead II
0.195
0.185
0.155
0.14
0.125
0.12
0.1
0.11
0.1
0.08
0.065
0.045
0.035
0.02
0.0
0.0
-0.015
0.0
0.0
0.01
0.0
0.0
0.0
-0.015
-0.025
-0.03
-0.03
-0.025
-0.035
-0.04
-0.035
-0.03
-0.025
-0.04
-0.04
-0.035
-0.04
-0.05
-0.055
-0.04
-0.03
-0.03
-0.025
-0.01
-0.015
-0.015
-0.015
-0.025
-0.03
-0.01
-0.03
-0.025
-0.03
-0.015
-0.005
-0.015
-0.005
-0.01
-0.015
-0.02
-0.025
-0.03
-0.035
-0.025
-0.03
-0.03
-0.025
-0.01
-0.005
-0.02
-0.03
-0.035
-0.05
-0.04
-0.045
-0.045
-0.05
-0.045
-0.045
-0.03
-0.03
-0.04
-0.045
-0.055
-0.06
-0.07
-0.07
-0.065
-0.06
-0.055
-0.05
-0.05
-0.045
-0.05
-0.055
-0.06
-0.065
-0.065
-0.08
-0.075
-0.065
-0.08
-0.085
-0.065
-0.065
-0.055
-0.065
-0.07
-0.065
-0.075
-0.09
-0.08
-0.075
-0.07
-0.06
-0.055
-0.065
-0.055
-0.05
-0.065
-0.07
-0.075
-0.08
-0.085
-0.085
-0.07
-0.075
-0.055
-0.055
-0.065
-0.06
-0.075
-0.085
-0.085
-0.095
-0.105
-0.085
-0.065
-0.045
-0.025
-0.025
-0.02
-0.015
-0.02
-0.02
-0.02
-0.025
-0.015
0.0
0.015
0.035
0.055
0.075
0.09
0.11
0.1
0.1
0.09
0.07
0.06
0.055
0.045
0.045
0.035
0.03
0.035
0.02
0.005
-0.015
-0.035
-0.05
-0.075
-0.07
-0.08
-0.06
-0.06
-0.06
-0.055
-0.07
-0.075
-0.09
-0.095
-0.105
-0.1
-0.1
-0.095
-0.1
-0.075
-0.08
-0.105
-0.1
-0.1
-0.1
-0.1
-0.1
-0.1
-0.085
-0.065
-0.07
-0.055
-0.055
-0.085
-0.11
-0.17
-0.235
-0.3
-0.325
-0.28
-0.12
0.145
0.48
0.845
1.205
1.495
1.645
1.575
1.29
0.82
0.34
-0.04
-0.25
-0.315
-0.285
-0.25
-0.255
-0.31
-0.39
-0.52
-0.635
-0.71
-0.75
-0.76
-0.74
-0.68
-0.625
-0.545
-0.475
-0.395
-0.32
-0.265
-0.215
-0.16
-0.145
-0.13
-0.12
-0.09
-0.075
-0.055
-0.05
-0.03
-0.02
-0.02
-0.02
-0.04
-0.055
-0.04
-0.055
-0.03
-0.025
-0.01
-0.005
-0.01
0.0
-0.005
0.0
0.005
0.0
0.0
-0.005
0.005
0.015
0.025
0.035
0.035
0.045
0.045
0.03
0.03
0.03
0.03
0.035
0.045
0.06
0.065
0.085
0.1
0.12
0.125
0.125
0.11
0.12
0.125
0.13
0.16
0.175
0.195
0.205
0.215
0.225
0.22
0.23
0.23
0.24
0.245
0.275
0.295
0.31
0.335
0.355
0.37
0.38
0.395
0.395
0.405
0.415
0.425
0.445
0.46
0.47
0.495
0.51
0.51
0.53
0.535
0.535
0.54
0.56
0.565
0.575
0.59
0.605
0.605
0.595
0.595
0.59
0.58
0.55
0.54
0.52
0.515
0.505
0.49
0.475
0.48
0.465
0.44
0.43
0.405
0.36
0.345
0.32
0.3
0.29
0.28
0.26
0.25
0.24
0.23
0.2
0.175
0.155
0.135
0.11
0.11
0.095
0.085
0.075
0.065
0.05
0.045
0.045
0.045
0.04
0.035
0.04
0.03
0.015
0.0
0.005
0.01
0.0
0.015
0.015
0.005
0.01
-0.01
-0.02
-0.01
-0.015
-0.005
-0.005
0.01
0.015
0.025
0.025
0.02
0.005
0.01
-0.005
0.0
-0.01
-0.005
0.01
0.02
0.02
0.03
0.015
0.01
0.01
0.005
0.0
-0.005
-0.005
-0.005
0.005
0.02
0.02
0.015
0.0
-0.015
-0.03
-0.04
-0.05
-0.05
-0.035
-0.02
-0.005
0.005
0.005
-0.01
-0.015
-0.03
-0.035
-0.04
-0.035
-0.035
-0.03
-0.015
-0.02
-0.02
-0.035
-0.045
-0.05
-0.065
-0.07
-0.07
-0.065
-0.065
-0.055
-0.055
-0.045
-0.03
-0.03
-0.03
-0.04
-0.06
-0.065
-0.07
-0.07
-0.065
-0.055
-0.065
-0.07
-0.075
-0.085
-0.1
-0.095
-0.095
-0.055
-0.03
-0.02
-0.025
-0.03
-0.035
-0.06
-0.035
-0.035
-0.05
-0.03
-0.035
-0.05
-0.05
-0.065
-0.055
-0.045
-0.03
-0.01
0.015
0.035
0.05
0.055
0.07
0.07
0.08
0.085
0.095
0.095
0.1
0.1
0.095
0.1
0.09
0.085
0.06
0.05
0.035
0.015
-0.015
-0.04
-0.04
-0.055
-0.05
-0.07
-0.055
-0.06
-0.07
-0.07
-0.085
-0.105
-0.125
-0.11
-0.095
-0.085
-0.075
-0.065
-0.085
-0.09
-0.1
-0.1
-0.115
-0.11
-0.105
-0.095
-0.1
-0.09
-0.09
-0.085
-0.095
-0.1
-0.11
-0.135
-0.18
-0.23
-0.29
-0.335
-0.32
-0.21
0.0
0.295
0.66
1.02
1.345
1.55
1.6
1.415
1.01
0.505
0.055
-0.245
-0.355
-0.375
-0.335
-0.305
-0.33
-0.395
-0.49
-0.605
-0.685
-0.755
-0.765
-0.77
-0.74
-0.715
-0.665
-0.605
-0.545
-0.47
-0.405
-0.325
-0.275
-0.22
-0.17
-0.135
-0.125
-0.1
-0.095
-0.095
-0.09
-0.08
-0.085
-0.09
-0.08
-0.06
-0.065
-0.05
-0.04
-0.03
-0.02
-0.01
-0.025
-0.03
-0.035
-0.035
-0.035
-0.035
-0.015
-0.01
-0.005
0.005
0.0
0.01
0.0
0.0
0.005
-0.005
0.005
0.005
0.005
0.02
0.025
0.02
0.03
0.035
0.04
0.055
0.055
0.055
0.055
0.065
0.07
0.075
0.08
0.095
0.1
0.11
0.11
0.115
0.115
0.125
0.145
0.145
0.15
0.175
0.18
0.195
0.195
0.215
0.225
0.22
0.22
0.225
0.23
0.24
0.255
0.275
0.295
0.31
0.32
0.335
0.335
0.345
0.355
0.365
0.375
0.39
0.41
0.415
0.435
0.44
0.44
0.455
0.45
0.45
0.45
0.44
0.44
0.45
0.455
0.47
0.48
0.48
0.485
0.48
0.475
0.465
0.45
0.445
0.435
0.415
0.41
0.395
0.4
0.385
0.365
0.35
0.325
0.3
0.27
0.25
0.23
0.215
0.185
0.175
0.16
0.135
0.125
0.1
0.095
0.08
0.05
0.03
0.025
0.025
0.015
0.015
0.01
0.015
0.01
0.01
0.005
-0.01
-0.025
-0.025
-0.02
-0.035
-0.02
-0.015
-0.005
-0.005
-0.01
0.0
-0.005
-0.005
-0.01
-0.01
-0.005
0.0
0.0
0.005
0.02
0.02
0.015
0.02
0.01
0.005
0.01
0.005
0.01
0.01
0.015
0.035
0.03
0.035
0.025
0.015
0.02
0.01
0.005
0.0
-0.005
-0.01
-0.005
0.0
0.01
0.005
0.0
-0.005
-0.01
-0.025
-0.035
-0.035
-0.035
-0.025
-0.035
-0.035
-0.03
-0.03
-0.025
-0.03
-0.055
-0.05
-0.055
-0.06
-0.065
-0.055
-0.06
-0.06
-0.05
-0.06
-0.06
-0.06
-0.07
-0.065
-0.075
-0.075
-0.09
-0.09
-0.075
-0.075
-0.06
-0.05
-0.065
-0.07
-0.075
-0.075
-0.08
-0.08
-0.08
-0.08
-0.08
-0.075
-0.065
-0.05
-0.065
-0.07
-0.075
-0.075
-0.07
-0.075
-0.085
-0.08
-0.075
-0.065
-0.06
-0.055
-0.065
-0.045
-0.055
-0.05
-0.04
-0.05
-0.04
-0.03
-0.015
-0.01
0.005
0.005
0.015
0.02
0.035
0.04
0.055
0.06
0.08
0.1
0.1
0.105
0.105
0.1
0.09
0.075
0.06
0.05
0.025
0.02
0.005
-0.015
-0.025
-0.03
-0.045
-0.06
-0.065
-0.07
-0.075
-0.08
-0.09
-0.105
-0.115
-0.1
-0.095
-0.095
-0.095
-0.08
-0.095
-0.09
-0.1
-0.105
-0.105
-0.115
-0.13
-0.13
-0.125
-0.105
-0.11
-0.105
-0.1
-0.1
-0.12
-0.14
-0.185
-0.25
-0.31
-0.36
-0.335
-0.23
-0.02
0.275
0.635
1.005
1.345
1.565
1.645
1.485
1.14
0.67
0.225
-0.075
-0.215
-0.255
-0.24
-0.245
-0.27
-0.345
-0.47
-0.59
-0.705
-0.785
-0.83
-0.83
-0.785
-0.76
-0.705
-0.62
-0.55
-0.47
-0.4
-0.335
-0.255
-0.2
-0.16
-0.15
-0.12
-0.11
-0.105
-0.095
-0.1
-0.1
-0.1
-0.1
-0.1
-0.075
-0.075
-0.07
-0.055
-0.045
-0.05
-0.05
-0.065
-0.055
-0.06
-0.07
-0.06
-0.05
-0.045
-0.03
-0.03
-0.015
-0.025
-0.015
-0.005
0.0
-0.015
-0.025
-0.01
-0.015
0.01
0.005
0.015
0.035
0.03
0.03
0.04
0.04
0.045
0.045
0.045
0.06
0.07
0.07
0.095
0.11
0.115
0.11
0.115
0.125
0.125
0.13
0.145
0.16
0.17
0.175
0.19
0.21
0.215
0.23
0.235
0.24
0.245
0.25
0.27
0.29
0.305
0.32
0.345
0.365
0.375
0.405
0.4
0.405
0.405
0.415
0.435
0.44
0.465
0.485
0.505
0.515
0.52
0.535
0.525
0.53
0.54
0.545
0.54
0.535
0.54
0.555
0.55
0.555
0.545
0.535
0.525
0.5
0.48
0.46
0.435
0.415
0.41
0.385
0.38
0.355
0.335
0.31
0.29
0.255
0.215
0.205
0.185
0.16
0.14
0.14
0.115
0.12
0.1
0.09
0.07
0.06
0.04
0.025
0.02
0.01
0.01
0.005
0.005
0.005
-0.005
-0.005
-0.01
-0.02
-0.025
-0.03
-0.03
-0.035
-0.025
-0.015
-0.015
-0.01
-0.005
-0.015
-0.01
-0.01
-0.01
-0.015
-0.02
-0.01
-0.005
0.005
0.0
0.01
0.0
0.01
0.0
-0.01
-0.005
-0.02
-0.015
-0.01
-0.01
-0.005
-0.015
-0.005
0.0
-0.01
-0.02
-0.03
-0.035
-0.035
-0.04
-0.04
-0.035
-0.04
-0.035
-0.02
-0.035
-0.035
-0.04
-0.05
-0.07
-0.06
-0.07
-0.07
-0.065
-0.055
-0.065
-0.055
-0.065
-0.055
-0.065
-0.065
-0.075
-0.08
-0.09
-0.085
-0.08
-0.08
-0.065
-0.06
-0.07
-0.06
-0.07
-0.075
-0.08
-0.09
-0.09
-0.085
-0.085
-0.07
-0.075
-0.07
-0.07
-0.07
-0.075
-0.09
-0.09
-0.09
-0.085
-0.09
-0.09
-0.1
-0.09
-0.065
-0.06
-0.07
-0.07
-0.075
-0.095
-0.085
-0.09
-0.09
-0.085
-0.07
-0.065
-0.06
-0.065
-0.055
-0.07
-0.075
-0.08
-0.075
-0.085
-0.08
-0.06
-0.05
-0.04
-0.03
-0.03
-0.025
-0.02
-0.02
-0.035
-0.04
-0.03
-0.01
0.0
0.02
0.035
0.06
0.075
0.075
0.085
0.1
0.095
0.095
0.08
0.07
0.075
0.055
0.055
0.05
0.04
0.03
0.005
-0.02
-0.035
-0.05
-0.085
-0.07
-0.065
-0.065
-0.055
-0.055
-0.06
-0.06
-0.075
-0.08
-0.105
-0.11
-0.105
-0.11
-0.095
-0.09
-0.075
-0.07
-0.085
-0.075
-0.09
-0.07
-0.09
-0.085
-0.075
-0.085
-0.075
-0.07
-0.075
-0.07
-0.095
-0.135
-0.195
-0.275
-0.32
-0.305
-0.185
0.035
0.35
0.71
1.08
1.405
1.615
1.63
1.405
0.99
0.505
0.1
-0.165
-0.265
-0.28
-0.25
-0.24
-0.27
-0.36
-0.475
-0.595
-0.695
-0.765
-0.78
-0.78
-0.75
-0.695
-0.645
-0.56
-0.495
-0.41
-0.345
-0.285
-0.225
-0.185
-0.155
-0.125
-0.12
-0.105
-0.075
-0.07
-0.06
-0.05
-0.035
-0.04
-0.05
-0.055
-0.045
-0.06
-0.06
-0.05
-0.04
-0.02
-0.005
0.0
-0.005
0.01
0.0
-0.005
-0.025
-0.02
-0.025
0.0
0.005
0.035
0.045
0.05
0.05
0.035
0.035
0.02
0.025
0.035
0.045
0.045
0.06
0.075
0.09
0.09
0.095
0.1
0.1
0.085
0.09
0.08
0.1
0.115
0.12
0.125
0.145
0.15
0.165
0.165
0.16
0.17
0.18
0.18
0.185
0.205
0.215
0.25
0.26
0.275
0.28
0.29
0.29
0.29
0.295
0.31
0.3
0.33
0.34
0.355
0.38
0.405
0.43
0.44
0.445
0.455
0.455
0.455
0.455
0.47
0.48
0.5
0.52
0.515
0.515
0.52
0.525
0.535
0.54
0.545
0.55
0.555
0.555
0.56
0.56
0.555
0.555
0.535
0.52
0.5
0.49
0.47
0.455
0.44
0.425
0.42
0.425
0.41
0.405
0.37
0.35
0.31
0.285
0.26
0.245
0.22
0.22
0.205
0.195
0.185
0.18
0.165
0.15
0.145
0.115
0.11
0.095
0.085
0.075
0.06
0.045
0.04
0.025
0.01
0.02
0.035
0.03
0.025
0.025
0.03
0.03
0.035
0.04
0.04
0.035
0.03
0.015
0.005
-0.025
-0.025
-0.025
-0.015
0.0
0.01
0.02
0.025
0.035
0.03
0.055
0.04
0.035
0.035
0.035
0.025
0.03
0.035
0.045
0.035
0.04
0.03
0.03
0.02
0.015
0.015
0.015
0.02
0.01
0.01
0.03
0.03
0.035
0.015
0.015
0.005
-0.01
-0.01
-0.01
-0.005
-0.015
0.0
0.0
-0.005
-0.005
-0.02
-0.025
-0.02
-0.03
-0.01
-0.03
-0.03
-0.04
-0.04
-0.03
-0.03
-0.025
-0.03
-0.04
-0.04
-0.05
-0.04
-0.04
-0.03
-0.015
-0.02
-0.02
-0.03
-0.035
-0.045
-0.035
-0.04
-0.035
-0.03
-0.045
-0.03
-0.03
-0.03
-0.03
-0.025
-0.01
-0.025
-0.04
-0.045
-0.055
-0.05
-0.065
-0.06
-0.035
-0.02
-0.005
0.0
0.005
0.005
0.01
0.005
-0.005
0.0
0.0
0.0
0.01
0.04
0.055
0.075
0.085
0.1
0.11
0.115
0.12
0.115
0.12
0.115
0.125
0.105
0.1
0.085
0.085
0.05
0.04
0.03
0.02
0.005
-0.01
-0.035
-0.04
-0.05
-0.055
-0.06
-0.065
-0.055
-0.055
-0.055
-0.07
-0.08
-0.075
-0.08
-0.07
-0.065
-0.05
-0.045
-0.035
-0.035
-0.045
-0.055
-0.07
-0.085
-0.08
-0.07
-0.06
-0.035
-0.04
-0.055
-0.095
-0.145
-0.2
-0.26
-0.26
-0.175
0.02
0.32
0.66
1.025
1.375
1.575
1.605
1.39
0.975
0.465
0.015
-0.26
-0.37
-0.37
-0.325
-0.295
-0.315
-0.395
-0.49
-0.58
-0.66
-0.7
-0.71
-0.695
-0.655
-0.585
-0.515
-0.43
-0.35
-0.27
-0.19
-0.15
-0.11
-0.085
-0.07
-0.055
-0.05
-0.04
-0.03
-0.02
-0.015
-0.005
0.0
-0.005
-0.005
-0.02
-0.005
0.0
0.005
0.01
0.015
0.03
0.025
0.035
0.035
0.03
0.03
0.03
0.03
0.025
0.025
0.045
0.04
0.045
0.05
0.05
0.035
0.04
0.055
0.065
0.055
0.055
0.065
0.07
0.08
0.09
0.11
0.105
0.105
0.115
0.105
0.11
0.105
0.11
0.11
0.12
0.135
0.15
0.155
0.165
0.175
0.165
0.175
0.175
0.18
0.185
0.19
0.205
0.205
0.225
0.255
0.255
0.255
0.265
0.27
0.28
0.28
0.275
0.285
0.3
0.315
0.33
0.335
0.34
0.355
0.35
0.365
0.365
0.37
0.375
0.38
0.4
0.405
0.415
0.43
0.43
0.44
0.43
0.435
0.42
0.415
0.425
0.43
0.445
0.455
0.465
0.46
0.455
0.425
0.42
0.405
0.39
0.38
0.365
0.35
0.335
0.315
0.315
0.295
0.27
0.245
0.23
0.21
0.185
0.155
0.145
0.14
0.125
0.11
0.11
0.1
0.095
0.07
0.07
0.07
0.05
0.025
0.02
0.01
0.03
0.03
0.04
0.05
0.04
0.035
0.04
0.025
0.025
0.02
0.025
0.025
0.035
0.045
0.055
0.055
0.05
0.055
0.065
0.065
0.065
0.06
0.06
0.06
0.075
0.075
0.08
0.085
0.085
0.075
0.075
0.06
0.055
0.05
0.045
0.04
0.055
0.045
0.055
0.065
0.05
0.05
0.04
0.04
0.025
0.015
0.01
0.01
0.01
0.005
0.01
0.025
0.01
0.015
0.0
-0.005
-0.005
-0.01
0.0
-0.015
-0.015
-0.01
-0.015
-0.01
-0.03
-0.03
-0.03
-0.045
-0.04
-0.045
-0.045
-0.04
-0.055
-0.03
-0.03
-0.025
-0.025
-0.04
-0.03
-0.04
-0.06
-0.05
-0.04
-0.055
-0.05
-0.04
-0.035
-0.035
-0.04
-0.03
-0.04
-0.035
-0.05
-0.06
-0.05
-0.06
-0.055
-0.06
-0.045
-0.045
-0.05
-0.04
-0.055
-0.065
-0.06
-0.06
-0.06
-0.05
-0.065
-0.05
-0.055
-0.045
-0.05
-0.04
-0.03
-0.02
-0.025
-0.03
-0.01
-0.005
0.005
0.005
0.03
0.045
0.055
0.06
0.06
0.075
0.08
0.095
0.11
0.115
0.115
0.11
0.105
0.105
0.09
0.08
0.075
0.05
0.035
0.025
0.005
-0.015
-0.03
-0.045
-0.05
-0.04
-0.06
-0.045
-0.06
-0.065
-0.08
-0.075
-0.075
-0.08
-0.065
-0.07
-0.075
-0.055
-0.065
-0.07
-0.065
-0.085
-0.085
-0.08
-0.08
-0.07
-0.065
-0.07
-0.065
-0.05
-0.06
-0.06
-0.085
-0.105
-0.16
-0.225
-0.295
-0.325
-0.27
-0.14
0.09
0.41
0.765
1.12
1.42
1.585
1.58
1.335
0.94
0.5
0.12
-0.115
-0.21
-0.215
-0.195
-0.2
-0.245
-0.34
-0.445
-0.57
-0.67
-0.73
-0.76
-0.75
-0.72
-0.67
-0.605
-0.525
-0.44
-0.36
-0.295
-0.235
-0.19
-0.165
-0.14
-0.105
-0.095
-0.085
-0.085
-0.08
-0.08
-0.075
-0.065
-0.075
-0.05
-0.055
-0.04
-0.02
-0.03
-0.02
-0.03
-0.03
-0.03
-0.02
-0.04
-0.035
-0.03
-0.025
-0.01
-0.02
-0.01
-0.005
0.015
0.02
0.01
-0.005
0.005
-0.005
0.005
0.015
0.015
0.025
0.04
0.05
0.06
0.065
0.055
0.05
0.06
0.07
0.085
0.085
0.105
0.105
0.115
0.125
0.135
0.15
0.15
0.145
0.155
0.155
0.165
0.175
0.19
0.215
0.23
0.255
0.27
0.285
0.295
0.305
0.32
0.32
0.325
0.335
0.355
0.385
0.4
0.425
0.42
0.44
0.44
0.44
0.44
0.45
0.46
0.465
0.485
0.485
0.495
0.5
0.5
0.5
0.51
0.5
0.505
0.495
0.485
0.49
0.485
0.475
0.47
0.48
0.455
0.44
0.42
0.415
0.39
0.355
0.34
0.325
0.325
0.31
0.29
0.27
0.255
0.22
0.21
0.2
0.18
0.17
0.145
0.14
0.13
0.115
0.09
0.08
0.08
0.07
0.065
0.055
0.03
0.025
0.025
0.025
0.025
0.005
-0.005
-0.01
-0.015
-0.02
-0.025
-0.015
-0.01
-0.01
-0.01
-0.005
-0.01
-0.005
-0.005
-0.015
-0.005
0.0
-0.01
-0.005
0.0
0.01
0.01
0.015
0.005
0.005
0.005
0.005
0.0
0.005
0.01
0.01
0.0
0.0
0.0
-0.005
-0.005
-0.005
0.005
0.0
0.0
-0.005
-0.02
-0.025
-0.03
-0.04
-0.025
-0.025
-0.025
-0.04
-0.015
-0.025
-0.025
-0.02
-0.02
-0.035
-0.04
-0.04
-0.04
-0.04
-0.03
-0.005
-0.015
-0.01
-0.025
-0.04
-0.05
-0.06
-0.07
-0.065
-0.06
-0.07
-0.05
-0.055
-0.05
-0.05
-0.055
-0.05
-0.06
-0.06
-0.06
-0.065
-0.065
-0.065
-0.065
-0.065
-0.06
-0.055
-0.06
-0.055
-0.07
-0.075
-0.085
-0.1
-0.095
-0.08
-0.075
-0.045
-0.04
-0.025
-0.045
-0.045
-0.065
-0.075
-0.075
-0.085
-0.08
-0.075
-0.065
-0.065
-0.055
-0.05
-0.05
-0.06
-0.065
-0.065
-0.05
-0.05
-0.04
-0.03
-0.025
-0.005
0.0
0.015
0.025
0.045
0.05
0.065
0.07
0.085
0.115
0.115
0.12
0.12
0.105
0.1
0.085
0.07
0.05
0.04
0.025
0.0
-0.005
-0.025
-0.03
-0.05
-0.04
-0.04
-0.05
-0.055
-0.055
-0.085
-0.09
-0.095
-0.095
-0.085
-0.075
-0.075
-0.075
-0.07
-0.08
-0.09
-0.09
-0.095
-0.08
-0.085
-0.09
-0.075
-0.07
-0.075
-0.07
-0.075
-0.105
-0.155
-0.22
-0.285
-0.33
-0.31
-0.185
0.045
0.37
0.75
1.13
1.445
1.63
1.6
1.315
0.865
0.365
-0.045
-0.29
-0.37
-0.375
-0.355
-0.345
-0.375
-0.45
-0.535
-0.63
-0.7
-0.745
-0.755
-0.745
-0.7
-0.64
-0.56
-0.47
-0.375
-0.285
-0.215
-0.17
-0.14
-0.12
-0.11
-0.1
-0.105
-0.09
-0.085
-0.07
-0.045
-0.04
-0.02
-0.04
-0.02
-0.03
-0.04
-0.04
-0.035
-0.03
-0.015
-0.005
-0.005
0.0
-0.005
-0.015
-0.02
-0.02
-0.015
-0.01
0.005
0.02
0.025
0.03
0.025
0.03
0.03
0.045
0.035
0.04
0.03
0.025
0.02
0.04
0.05
0.065
0.09
0.105
0.11
0.1
0.105
0.09
0.09
0.09
0.09
0.095
0.13
0.145
0.16
0.18
0.17
0.17
0.17
0.16
0.15
0.155
0.165
0.185
0.21
0.235
0.26
0.275
0.3
0.295
0.305
0.3
0.295
0.305
0.32
0.335
0.34
0.37
0.38
0.405
0.4
0.4
0.415
0.415
0.415
0.415
0.42
0.44
0.435
0.465
0.465
0.47
0.48
0.475
0.475
0.47
0.475
0.48
0.49
0.485
0.505
0.5
0.5
0.485
0.475
0.455
0.455
0.445
0.435
0.405
0.405
0.385
0.375
0.36
0.345
0.325
0.315
0.29
0.26
0.24
0.225
0.195
0.18
0.18
0.16
0.155
0.15
0.125
0.115
0.1
0.08
0.065
0.05
0.035
0.025
0.03
0.025
0.035
0.025
0.02
0.02
0.015
0.01
0.005
-0.005
-0.005
0.005
0.0
0.01
0.02
0.03
0.035
0.035
0.03
0.035
0.03
0.03
0.02
0.025
0.025
0.025
0.05
0.04
0.035
0.04
0.045
0.035
0.03
0.02
0.02
0.005
0.015
0.005
0.01
0.005
0.01
0.01
0.01
-0.005
-0.005
-0.005
-0.02
-0.015
-0.01
-0.025
-0.015
-0.005
-0.015
-0.005
-0.02
-0.02
-0.035
-0.04
-0.06
-0.05
-0.055
-0.055
-0.05
-0.04
-0.045
-0.04
-0.04
-0.045
-0.05
-0.06
-0.055
-0.06
-0.05
-0.05
-0.05
-0.04
-0.06
-0.055
-0.05
-0.055
-0.055
-0.06
-0.06
-0.06
-0.065
-0.065
-0.06
-0.055
-0.055
-0.055
-0.05
-0.065
-0.075
-0.075
-0.08
-0.08
-0.07
-0.065
-0.07
-0.06
-0.065
-0.055
-0.05
-0.055
-0.055
-0.07
-0.065
-0.045
-0.025
-0.04
-0.03
-0.01
-0.015
0.01
0.01
0.005
0.025
0.035
0.04
0.055
0.07
0.08
0.095
0.11
0.095
0.1
0.08
0.07
0.055
0.04
0.035
0.015
0.025
0.02
0.015
0.005
-0.025
-0.035
-0.05
-0.075
-0.095
-0.1
-0.085
-0.08
-0.09
-0.09
-0.09
-0.095
-0.095
-0.095
-0.1
-0.1
-0.105
-0.105
-0.11
-0.115
-0.11
-0.105
-0.115
-0.09
-0.095
-0.105
-0.1
-0.09
-0.095
-0.115
-0.125
-0.11
-0.13
-0.14
-0.16
-0.215
-0.27
-0.335
-0.355
-0.3
-0.13
0.105
0.44
0.815
1.175
1.465
1.62
1.585
1.315
0.88
0.42
0.045
-0.19
-0.275
-0.29
-0.285
-0.29
-0.35
-0.45
-0.56
-0.665
-0.745
-0.81
-0.83
-0.815
-0.785
-0.74
-0.67
-0.595
-0.51
-0.425
-0.35
-0.285
-0.24
-0.195
-0.17
-0.16
-0.155
-0.145
-0.135
-0.12
-0.12
-0.095
-0.09
-0.085
-0.08
-0.085
-0.075
-0.06
-0.085
-0.085
-0.07
-0.075
-0.065
-0.06
-0.04
-0.045
-0.035
-0.04
-0.045
-0.05
-0.055
-0.04
-0.04
-0.04
-0.03
-0.02
-0.015
-0.015
-0.015
-0.02
-0.02
-0.015
-0.02
-0.02
-0.015
0.005
0.01
0.025
0.02
0.035
0.04
0.045
0.05
0.05
0.04
0.045
0.06
0.065
0.09
0.1
0.11
0.12
0.13
0.13
0.135
0.14
0.145
0.15
0.165
0.185
0.205
0.22
0.245
0.255
0.27
0.275
0.285
0.295
0.285
0.32
0.34
0.35
0.37
0.385
0.405
0.41
0.425
0.43
0.425
0.43
0.44
0.44
0.455
0.46
0.48
0.48
0.5
0.495
0.505
0.49
0.49
0.475
0.465
0.445
0.435
0.425
0.435
0.425
0.42
0.4
0.38
0.345
0.33
0.3
0.285
0.26
0.23
0.205
0.19
0.165
0.165
0.145
0.125
0.105
0.08
0.065
0.055
0.025
0.03
0.02
0.025
0.015
0.01
0.01
-0.005
-0.01
-0.02
-0.02
-0.04
-0.03
-0.04
-0.03
-0.025
-0.03
-0.015
-0.03
-0.02
-0.03
-0.025
-0.035
-0.025
-0.035
-0.035
-0.03
-0.025
-0.01
-0.005
0.0
0.005
-0.005
0.0
-0.01
-0.015
-0.015
-0.005
-0.01
0.0
0.005
0.0
0.0
0.0
0.005
-0.01
-0.01
-0.02
-0.02
-0.025
-0.03
-0.01
-0.01
-0.005
-0.01
-0.015
-0.005
-0.01
-0.03
-0.035
-0.04
-0.05
-0.05
-0.035
-0.03
-0.025
-0.03
-0.025
-0.03
-0.035
-0.04
-0.045
-0.05
-0.055
-0.065
-0.055
-0.045
-0.045
-0.045
-0.045
-0.055
-0.065
-0.06
-0.065
-0.06
-0.065
-0.065
-0.055
-0.045
-0.05
-0.05
-0.045
-0.055
-0.06
-0.075
-0.075
-0.075
-0.08
-0.07
-0.065
-0.05
-0.05
-0.055
-0.055
-0.065
-0.06
-0.065
-0.075
-0.07
-0.07
-0.075
-0.07
-0.065
-0.055
-0.06
-0.065
-0.065
-0.08
-0.065
-0.075
-0.075
-0.065
-0.075
-0.065
-0.05
-0.045
-0.035
-0.035
-0.03
-0.02
-0.015
-0.02
-0.015
-0.005
0.005
0.02
0.03
0.065
0.07
0.105
0.11
0.11
0.11
0.085
0.095
0.075
0.08
0.06
0.055
0.06
0.05
0.035
0.03
-0.005
-0.015
-0.04
-0.065
-0.07
-0.075
-0.08
-0.075
-0.07
-0.075
-0.08
-0.08
-0.095
-0.095
-0.1
-0.115
-0.11
-0.105
-0.095
-0.1
-0.095
-0.08
-0.095
-0.095
-0.1
-0.11
-0.105
-0.105
-0.105
-0.11
-0.105
-0.12
-0.15
-0.225
-0.27
-0.335
-0.335
-0.235
-0.02
0.295
0.68
1.09
1.415
1.605
1.575
1.285
0.82
0.325
-0.03
-0.245
-0.325
-0.325
-0.325
-0.36
-0.435
-0.555
-0.665
-0.76
-0.83
-0.86
-0.84
-0.785
-0.72
-0.63
-0.525
-0.44
-0.355
-0.27
-0.215
-0.18
-0.155
-0.15
-0.15
-0.155
-0.145
-0.13
-0.125
-0.115
-0.11
-0.09
-0.095
-0.1
-0.07
-0.07
-0.07
-0.075
-0.055
-0.06
-0.055
-0.06
-0.045
-0.04
-0.035
-0.035
-0.02
-0.02
-0.03
-0.03
-0.03
-0.03
-0.035
-0.015
-0.03
-0.015
-0.005
-0.005
0.0
0.005
0.005
0.01
0.005
0.02
0.03
0.05
0.06
0.055
0.095
0.1
0.105
0.11
0.115
0.125
0.13
0.12
0.12
0.125
0.135
0.155
0.19
0.21
0.23
0.235
0.26
0.265
0.27
0.27
0.275
0.28
0.295
0.32
0.35
0.37
0.39
0.415
0.415
0.425
0.425
0.435
0.46
0.47
0.495
0.5
0.505
0.51
0.505
0.495
0.485
0.49
0.495
0.505
0.525
0.54
0.54
0.53
0.535
0.515
0.52
0.505
0.485
0.465
0.44
0.42
0.39
0.38
0.365
0.36
0.34
0.3
0.295
0.27
0.24
0.215
0.2
0.18
0.17
0.145
0.135
0.12
0.095
0.085
0.08
0.06
0.05
0.05
0.03
0.03
0.015
0.0
-0.005
-0.02
-0.02
-0.005
-0.005
-0.01
0.005
0.0
-0.005
-0.02
-0.015
-0.01
-0.015
-0.005
-0.005
-0.01
-0.005
0.005
0.0
-0.005
-0.015
-0.025
-0.035
-0.03
-0.02
-0.02
0.005
0.0
0.0
-0.02
-0.015
-0.01
-0.005
-0.005
0.0
-0.025
-0.01
-0.015
0.0
-0.005
-0.01
-0.025
-0.035
-0.045
-0.05
-0.06
-0.05
-0.035
-0.02
-0.015
0.005
-0.01
-0.025
-0.025
-0.03
-0.05
-0.065
-0.075
-0.07
-0.07
-0.065
-0.065
-0.045
-0.03
-0.035
-0.035
-0.05
-0.05
-0.06
-0.07
-0.075
-0.085
-0.065
-0.07
-0.055
-0.055
-0.06
-0.065
-0.07
-0.075
-0.08
-0.08
-0.08
-0.08
-0.08
-0.07
-0.065
-0.07
-0.07
-0.065
-0.07
-0.05
-0.065
-0.075
-0.08
-0.07
-0.075
-0.06
-0.06
-0.055
-0.045
-0.05
-0.065
-0.045
-0.065
-0.045
-0.04
-0.03
-0.025
-0.005
0.005
0.01
0.01
0.015
0.02
0.03
0.035
0.025
0.05
0.06
0.095
0.11
0.135
0.125
0.12
0.12
0.095
0.08
0.065
0.045
0.025
0.035
0.02
0.03
0.025
0.01
-0.005
-0.03
-0.055
-0.085
-0.085
-0.095
-0.08
-0.08
-0.08
-0.065
-0.055
-0.055
-0.055
-0.075
-0.09
-0.09
-0.105
-0.105
-0.11
-0.1
-0.095
-0.105
-0.08
-0.085
-0.09
-0.065
-0.075
-0.075
-0.095
-0.095
-0.095
-0.095
-0.105
-0.125
-0.15
-0.21
-0.29
-0.33
-0.325
-0.225
-0.02
0.275
0.65
1.035
1.365
1.595
1.64
1.455
1.06
0.555
0.1
-0.195
-0.31
-0.325
-0.285
-0.26
-0.275
-0.34
-0.43
-0.545
-0.655
-0.73
-0.785
-0.795
-0.775
-0.75
-0.7
-0.645
-0.565
-0.49
-0.41
-0.345
-0.285
-0.23
-0.18
-0.15
-0.12
-0.105
-0.09
-0.06
-0.05
-0.04
-0.045
-0.055
-0.065
-0.06
-0.07
-0.06
-0.055
-0.05
-0.05
-0.045
-0.05
-0.045
-0.03
-0.03
-0.015
0.0
0.0
0.015
0.01
0.005
0.0
-0.005
-0.01
0.0
-0.005
-0.005
-0.005
0.005
0.005
0.02
0.025
0.04
0.035
0.045
0.05
0.045
0.065
0.065
0.08
0.065
0.07
0.075
0.07
0.08
0.09
0.1
0.09
0.095
0.11
0.12
0.125
0.135
0.15
0.155
0.15
0.145
0.155
0.165
0.175
0.175
0.19
0.205
0.205
0.215
0.215
0.225
0.22
0.225
0.24
0.25
0.275
0.3
0.33
0.345
0.365
0.375
0.37
0.37
0.37
0.355
0.37
0.37
0.395
0.41
0.42
0.42
0.41
0.405
0.415
0.43
0.45
0.47
0.475
0.475
0.48
0.475
0.49
0.49
0.47
0.455
0.44
0.43
0.415
0.405
0.39
0.395
0.385
0.39
0.385
0.355
0.32
0.3
0.27
0.26
0.24
0.215
0.195
0.165
0.145
0.135
0.14
0.135
0.125
0.115
0.1
0.08
0.065
0.065
0.05
0.05
0.03
0.03
0.045
0.04
0.025
0.02
0.005
0.01
0.015
0.015
0.005
0.005
0.015
0.01
0.035
0.035
0.03
0.035
0.035
0.02
0.02
0.015
0.015
0.025
0.03
0.04
0.05
0.035
0.04
0.025
0.03
0.035
0.03
0.03
0.035
0.025
0.035
0.025
0.03
0.035
0.02
0.015
0.025
0.015
0.0
0.0
-0.015
-0.015
-0.015
-0.01
0.0
0.0
-0.005
-0.005
-0.01
-0.02
-0.025
-0.025
-0.03
-0.035
-0.025
-0.03
-0.02
-0.02
-0.015
-0.02
-0.03
-0.035
-0.05
-0.055
-0.05
-0.04
-0.045
-0.04
-0.025
-0.025
-0.035
-0.04
-0.055
-0.055
-0.065
-0.06
-0.06
-0.05
-0.045
-0.055
-0.05
-0.04
-0.045
-0.05
-0.055
-0.055
-0.055
-0.05
-0.055
-0.06
-0.065
-0.045
-0.035
-0.04
-0.03
-0.03
