Lead II
0.535
0.545
0.555
0.54
0.52
0.52
0.505
0.495
0.485
0.485
0.455
0.445
0.43
0.395
0.365
0.335
0.325
0.315
0.275
0.255
0.22
0.195
0.15
0.145
0.13
0.12
0.11
0.085
0.07
0.03
-0.005
-0.02
-0.04
-0.06
-0.075
-0.08
-0.085
-0.095
-0.09
-0.08
-0.085
-0.075
-0.075
-0.09
-0.125
-0.125
-0.125
-0.12
-0.095
-0.055
-0.015
0.02
0.05
0.085
0.105
0.125
0.15
0.165
0.175
0.185
0.185
0.2
0.215
0.215
0.215
0.205
0.17
0.095
0.02
-0.055
-0.095
-0.13
-0.135
-0.155
-0.145
-0.13
-0.135
-0.14
-0.155
-0.16
-0.165
-0.16
-0.165
-0.16
-0.15
-0.155
-0.145
-0.135
-0.13
-0.135
-0.125
-0.13
-0.135
-0.16
-0.16
-0.17
-0.17
-0.165
-0.17
-0.165
-0.12
-0.015
0.15
0.415
0.72
1.085
1.495
1.875
2.205
2.435
2.52
2.44
2.21
1.87
1.465
1.04
0.605
0.2
-0.185
-0.49
-0.71
-0.8
-0.775
-0.645
-0.495
-0.375
-0.3
-0.265
-0.3
-0.34
-0.385
-0.41
-0.41
-0.42
-0.41
-0.415
-0.42
-0.41
-0.42
-0.42
-0.44
-0.455
-0.455
-0.46
-0.47
-0.47
-0.46
-0.455
-0.445
-0.445
-0.465
-0.48
-0.5
-0.49
-0.495
-0.475
-0.45
-0.425
-0.43
-0.43
-0.405
-0.4
-0.39
-0.37
-0.345
-0.335
-0.31
-0.295
-0.28
-0.25
-0.2
-0.155
-0.12
-0.085
-0.05
-0.03
-0.005
0.0
0.035
0.085
0.135
0.19
0.235
0.28
0.305
0.34
0.365
0.405
0.445
0.48
0.495
0.53
0.56
0.585
0.61
0.635
0.66
0.69
0.71
0.72
0.72
0.715
0.715
0.715
0.735
0.74
0.755
0.75
0.745
0.72
0.685
0.67
0.665
0.655
0.635
0.615
0.61
0.585
0.565
0.545
0.52
0.505
0.48
0.47
0.435
0.41
0.375
0.335
0.32
0.31
0.32
0.32
0.29
0.27
0.22
0.185
0.17
0.165
0.155
0.155
0.16
0.155
0.155
0.14
0.13
0.12
0.135
0.14
0.155
0.185
0.19
0.225
0.26
0.29
0.32
0.35
0.375
0.38
0.385
0.4
0.395
0.405
0.4
0.395
0.375
0.33
0.26
0.195
0.135
0.075
0.035
0.015
-0.005
-0.005
-0.02
-0.025
-0.01
-0.015
0.0
-0.01
0.005
0.005
0.005
-0.005
-0.01
-0.005
0.005
0.01
0.025
0.01
-0.015
-0.055
-0.065
-0.075
-0.055
-0.005
0.085
0.26
0.505
0.805
1.15
1.505
1.855
2.175
2.475
2.68
2.78
2.78
2.685
2.5
2.245
1.93
1.6
1.235
0.85
0.46
0.1
-0.16
-0.305
-0.34
-0.315
-0.265
-0.265
-0.265
-0.285
-0.31
-0.335
-0.345
-0.37
-0.37
-0.39
-0.395
-0.415
-0.41
-0.42
-0.425
-0.425
-0.435
-0.445
-0.425
-0.415
-0.41
-0.4
-0.405
-0.41
-0.43
-0.435
-0.44
-0.43
-0.425
-0.405
-0.385
-0.365
-0.365
-0.36
-0.35
-0.345
-0.33
-0.32
-0.29
-0.27
-0.26
-0.225
-0.19
-0.165
-0.115
-0.095
-0.07
-0.06
-0.045
-0.03
0.01
0.06
0.13
0.195
0.25
0.285
0.31
0.34
0.37
0.42
0.46
0.5
0.52
0.535
0.555
0.595
0.63
0.67
0.705
0.72
0.725
0.72
0.725
0.73
0.74
0.76
0.79
0.8
0.805
0.795
0.765
0.745
0.715
0.68
0.665
0.635
0.615
0.605
0.605
0.59
0.585
0.56
0.535
0.505
0.46
0.41
0.365
0.32
0.295
0.27
0.255
0.23
0.19
0.155
0.115
0.075
0.045
0.04
0.025
0.03
0.02
0.005
-0.015
-0.035
-0.035
-0.01
0.005
0.01
0.015
0.0
-0.015
-0.03
-0.03
-0.005
0.045
0.1
0.165
0.195
0.245
0.255
0.265
0.26
0.275
0.3
0.315
0.32
0.315
0.3
0.29
0.28
0.26
0.22
0.155
0.08
0.02
-0.035
-0.075
-0.085
-0.08
-0.07
-0.06
-0.07
-0.09
-0.1
-0.115
-0.11
-0.1
-0.095
-0.085
-0.08
-0.085
-0.09
-0.1
-0.09
-0.08
-0.085
-0.08
-0.095
-0.105
-0.11
-0.125
-0.135
-0.155
-0.155
-0.12
-0.01
0.145
0.39
0.67
1.0
1.385
1.765
2.095
2.33
2.44
2.375
2.115
1.73
1.295
0.82
0.36
-0.04
-0.385
-0.665
-0.87
-0.98
-0.98
-0.885
-0.755
-0.635
-0.53
-0.48
-0.465
-0.485
-0.51
-0.535
-0.555
-0.56
-0.555
-0.535
-0.53
-0.525
-0.525
-0.53
-0.54
-0.56
-0.57
-0.585
-0.595
-0.595
-0.6
-0.595
-0.59
-0.59
-0.58
-0.57
-0.555
-0.55
-0.565
-0.57
-0.58
-0.565
-0.56
-0.525
-0.495
-0.48
-0.465
-0.46
-0.46
-0.465
-0.455
-0.435
-0.41
-0.37
-0.345
-0.33
-0.31
-0.305
-0.285
-0.255
-0.22
-0.18
-0.145
-0.125
-0.095
-0.08
-0.05
-0.02
0.015
0.06
0.11
0.13
0.155
0.16
0.185
0.205
0.24
0.28
0.31
0.365
0.41
0.425
0.45
0.46
0.465
0.465
0.475
0.48
0.495
0.48
0.46
0.47
0.47
0.465
0.465
0.44
0.41
0.385
0.34
0.315
0.28
0.265
0.25
0.23
0.21
0.16
0.125
0.095
0.075
0.055
0.03
0.0
-0.03
-0.055
-0.08
-0.12
-0.135
-0.15
-0.16
-0.18
-0.205
-0.23
-0.265
-0.275
-0.295
-0.29
-0.275
-0.27
-0.26
-0.275
-0.275
-0.29
-0.285
-0.295
-0.295
-0.28
-0.275
-0.255
-0.23
-0.225
-0.195
-0.155
-0.115
-0.1
-0.07
-0.05
-0.055
-0.045
-0.025
-0.005
0.035
0.07
0.085
0.095
0.085
0.055
0.0
-0.045
-0.105
-0.165
-0.22
-0.255
-0.295
-0.32
-0.33
-0.335
-0.315
-0.31
-0.325
-0.33
-0.35
-0.385
-0.415
-0.445
-0.45
-0.475
-0.475
-0.47
-0.425
-0.37
-0.25
-0.09
0.12
0.315
0.51
0.705
0.87
1.03
1.185
1.36
1.52
1.695
1.86
2.025
2.195
2.36
2.54
2.66
2.745
2.785
2.74
2.675
2.55
2.345
2.065
1.72
1.335
0.915
0.49
0.06
-0.32
-0.615
-0.785
-0.84
-0.835
-0.8
-0.765
-0.765
-0.8
-0.85
-0.905
-0.935
-0.97
-0.975
-0.985
-0.975
-0.985
-1.0
-1.035
-1.055
-1.08
-1.11
-1.12
-1.115
-1.13
-1.13
-1.135
-1.165
-1.185
-1.19
-1.21
-1.225
-1.22
-1.24
-1.25
-1.275
-1.29
-1.305
-1.305
-1.305
-1.31
-1.315
-1.32
-1.345
-1.34
-1.35
-1.34
-1.32
-1.28
-1.26
-1.235
-1.225
-1.215
-1.21
-1.19
-1.18
-1.15
-1.105
-1.06
-1.025
-0.99
-0.965
-0.92
-0.88
-0.84
-0.775
-0.735
-0.695
-0.655
-0.63
-0.6
-0.555
-0.5
-0.45
-0.38
-0.33
-0.285
-0.23
-0.2
-0.175
-0.135
-0.1
-0.045
0.0
0.03
0.05
0.055
0.065
0.065
0.085
0.105
0.115
0.125
0.115
0.115
0.11
0.09
0.075
0.075
0.07
0.06
0.03
0.01
-0.025
-0.055
-0.075
-0.095
-0.085
-0.085
-0.11
-0.11
-0.135
-0.16
-0.195
-0.225
-0.24
-0.245
-0.255
-0.26
-0.265
-0.265
-0.275
-0.285
-0.275
-0.265
-0.265
-0.27
-0.275
-0.285
-0.29
-0.275
-0.255
-0.22
-0.16
-0.11
-0.065
-0.03
-0.02
-0.015
0.0
0.005
0.035
0.065
0.095
0.12
0.115
0.115
0.095
0.08
0.035
-0.01
-0.045
-0.09
-0.125
-0.16
-0.195
-0.235
-0.26
-0.25
-0.245
-0.24
-0.23
-0.245
-0.25
-0.28
-0.29
-0.28
-0.255
-0.24
-0.235
-0.22
-0.225
-0.235
-0.24
-0.25
-0.235
-0.235
-0.23
-0.235
-0.24
-0.245
-0.26
-0.28
-0.265
-0.225
-0.1
0.075
0.315
0.6
0.945
1.3
1.66
1.965
2.19
2.295
2.28
2.12
1.86
1.525
1.125
0.71
0.305
-0.055
-0.375
-0.655
-0.835
-0.9
-0.86
-0.735
-0.6
-0.475
-0.395
-0.375
-0.43
-0.445
-0.485
-0.52
-0.54
-0.52
-0.51
-0.5
-0.525
-0.535
-0.555
-0.57
-0.565
-0.56
-0.555
-0.54
-0.54
-0.55
-0.565
-0.575
-0.59
-0.6
-0.605
-0.595
-0.59
-0.585
-0.59
-0.58
-0.58
-0.565
-0.57
-0.535
-0.52
-0.525
-0.515
-0.52
-0.5
-0.475
-0.44
-0.415
-0.38
-0.345
-0.315
-0.29
-0.275
-0.235
-0.195
-0.155
-0.125
-0.07
-0.045
0.0
0.03
0.075
0.14
0.205
0.24
0.285
0.315
0.345
0.37
0.405
0.45
0.5
0.555
0.57
0.595
0.625
0.635
0.645
0.66
0.675
0.67
0.67
0.675
0.67
0.67
0.675
0.69
0.69
0.69
0.655
0.625
0.59
0.575
0.55
0.54
0.515
0.505
0.49
0.46
0.415
0.375
0.345
0.325
0.29
0.275
0.245
0.24
0.215
0.19
0.16
0.14
0.135
0.13
0.1
0.075
0.05
0.03
0.03
0.045
0.055
0.065
0.055
0.035
0.025
0.015
0.015
0.03
0.045
0.085
0.125
0.175
0.22
0.26
0.29
0.32
0.335
0.335
0.33
0.33
0.32
0.32
0.315
0.325
0.305
0.28
0.24
0.17
0.1
0.04
-0.005
-0.04
-0.045
-0.05
-0.045
-0.045
-0.045
-0.03
-0.025
-0.025
-0.03
-0.035
-0.05
-0.065
-0.07
-0.065
-0.065
-0.055
-0.05
-0.04
-0.05
-0.07
-0.1
-0.13
-0.165
-0.19
-0.2
-0.15
-0.06
0.135
0.415
0.765
1.185
1.625
2.05
2.39
2.56
2.57
2.42
2.15
1.815
1.46
1.11
0.805
0.535
0.3
0.085
-0.105
-0.27
-0.345
-0.38
-0.37
-0.365
-0.36
-0.385
-0.415
-0.44
-0.465
-0.48
-0.495
-0.525
-0.545
-0.55
-0.57
-0.575
-0.57
-0.575
-0.58
-0.59
-0.61
-0.62
-0.62
-0.635
-0.635
-0.64
-0.655
-0.64
-0.63
-0.635
-0.64
-0.63
-0.62
-0.6
-0.59
-0.59
-0.605
-0.625
-0.61
-0.6
-0.585
-0.56
-0.54
-0.525
-0.5
-0.505
-0.49
-0.475
-0.465
-0.445
-0.425
-0.395
-0.38
-0.35
-0.315
-0.285
-0.24
-0.19
-0.13
-0.1
-0.065
-0.055
-0.025
0.01
0.055
0.105
0.145
0.175
0.205
0.21
0.225
0.245
0.245
0.27
0.285
0.305
0.315
0.315
0.335
0.35
0.35
0.345
0.345
0.32
0.295
0.265
0.245
0.235
0.235
0.225
0.235
0.21
0.21
0.19
0.155
0.12
0.095
0.06
0.035
0.0
-0.03
-0.065
-0.095
-0.115
-0.125
-0.145
-0.17
-0.215
-0.255
-0.31
-0.36
-0.395
-0.405
-0.415
-0.41
-0.41
-0.405
-0.405
-0.41
-0.445
-0.44
-0.435
-0.42
-0.415
-0.4
-0.405
-0.41
-0.415
-0.44
-0.425
-0.39
-0.345
-0.315
-0.285
-0.26
-0.245
-0.235
-0.205
-0.175
-0.13
-0.1
-0.085
-0.08
-0.075
-0.095
-0.115
-0.13
-0.165
-0.19
-0.23
-0.3
-0.345
-0.4
-0.435
-0.46
-0.475
-0.47
-0.455
-0.455
-0.465
-0.475
-0.48
-0.48
-0.475
-0.46
-0.455
-0.445
-0.465
-0.47
-0.48
-0.485
-0.465
-0.445
-0.435
-0.42
-0.415
-0.42
-0.435
-0.465
-0.505
-0.525
-0.5
-0.435
-0.29
-0.065
0.205
0.525
0.865
1.225
1.56
1.855
2.06
2.145
2.065
1.8
1.42
0.96
0.45
-0.02
-0.44
-0.82
-1.09
-1.24
-1.28
-1.215
-1.09
-0.945
-0.805
-0.72
-0.69
-0.705
-0.73
-0.765
-0.79
-0.79
-0.8
-0.795
-0.795
-0.81
-0.82
-0.835
-0.835
-0.825
-0.82
-0.82
-0.82
-0.83
-0.83
-0.82
-0.83
-0.835
-0.815
-0.81
-0.81
-0.81
-0.815
-0.805
-0.8
-0.785
-0.76
-0.75
-0.73
-0.72
-0.72
-0.7
-0.665
-0.645
-0.605
-0.57
-0.56
-0.555
-0.555
-0.53
-0.51
-0.475
-0.425
-0.375
-0.33
-0.29
-0.255
-0.21
-0.175
-0.145
-0.13
-0.105
-0.08
-0.06
-0.035
-0.015
0.035
0.075
0.13
0.165
0.19
0.195
0.195
0.2
0.21
0.225
0.235
0.255
0.28
0.28
0.285
0.27
0.255
0.23
0.22
0.2
0.18
0.145
0.115
0.09
0.07
0.065
0.05
0.025
0.005
-0.02
-0.065
-0.1
-0.135
-0.16
-0.18
-0.225
-0.24
-0.265
-0.29
-0.31
-0.33
-0.345
-0.36
-0.375
-0.385
-0.405
-0.415
-0.43
-0.44
-0.43
-0.42
-0.42
-0.415
-0.425
-0.42
-0.43
-0.435
-0.42
-0.395
-0.36
-0.335
-0.3
-0.29
-0.255
-0.215
-0.18
-0.175
-0.15
-0.15
-0.145
-0.14
-0.12
-0.12
-0.11
-0.13
-0.14
-0.195
-0.275
-0.355
-0.42
-0.475
-0.5
-0.525
-0.545
-0.52
-0.525
-0.51
-0.51
-0.495
-0.5
-0.515
-0.52
-0.55
-0.56
-0.565
-0.55
-0.53
-0.525
-0.505
-0.49
-0.495
-0.51
-0.515
-0.535
-0.56
-0.575
-0.58
-0.57
-0.54
-0.45
-0.285
-0.025
0.29
0.665
1.09
1.5
1.85
2.075
2.125
2.0
1.72
1.33
0.91
0.475
0.035
-0.35
-0.7
-0.99
-1.17
-1.215
-1.145
-1.015
-0.875
-0.76
-0.71
-0.715
-0.745
-0.79
-0.835
-0.86
-0.865
-0.885
-0.88
-0.88
-0.88
-0.875
-0.865
-0.87
-0.88
-0.89
-0.905
-0.925
-0.93
-0.925
-0.92
-0.91
-0.905
-0.905
-0.91
-0.915
-0.915
-0.905
-0.915
-0.895
-0.895
-0.885
-0.88
-0.87
-0.85
-0.82
-0.795
-0.77
-0.745
-0.735
-0.73
-0.715
-0.68
-0.65
-0.605
-0.57
-0.535
-0.515
-0.475
-0.435
-0.4
-0.37
-0.325
-0.29
-0.26
-0.24
-0.195
-0.16
-0.115
-0.05
-0.015
0.01
0.045
0.055
0.075
0.095
0.115
0.13
0.15
0.18
0.195
0.2
0.21
0.21
0.215
0.22
0.22
0.21
0.2
0.18
0.155
0.14
0.14
0.125
0.12
0.115
0.095
0.065
0.04
0.01
-0.01
-0.03
-0.04
-0.07
-0.09
-0.11
-0.145
-0.165
-0.17
-0.2
-0.21
-0.235
-0.26
-0.305
-0.32
-0.345
-0.35
-0.36
-0.345
-0.36
-0.355
-0.37
-0.4
-0.415
-0.42
-0.42
-0.42
-0.39
-0.36
-0.345
-0.31
-0.28
-0.26
-0.255
-0.23
-0.21
-0.195
-0.19
-0.175
-0.165
-0.145
-0.14
-0.12
-0.125
-0.135
-0.175
-0.245
-0.32
-0.385
-0.445
-0.475
-0.49
-0.5
-0.5
-0.505
-0.505
-0.51
-0.535
-0.535
-0.53
-0.515
-0.52
-0.525
-0.53
-0.545
-0.535
-0.535
-0.52
-0.505
-0.5
-0.51
-0.515
-0.53
-0.555
-0.565
-0.57
-0.565
-0.565
-0.555
-0.535
-0.47
-0.34
-0.135
0.165
0.535
0.96
1.4
1.795
2.075
2.16
2.055
1.815
1.495
1.16
0.79
0.42
0.055
-0.295
-0.62
-0.885
-1.04
-1.075
-1.0
-0.865
-0.75
-0.665
-0.66
-0.675
-0.735
-0.785
-0.83
-0.855
-0.855
-0.835
-0.83
-0.82
-0.815
-0.815
-0.83
-0.835
-0.855
-0.87
-0.87
-0.875
-0.855
-0.845
-0.835
-0.845
-0.85
-0.86
-0.86
-0.855
-0.84
-0.825
-0.815
-0.795
-0.785
-0.775
-0.75
-0.735
-0.705
-0.67
-0.63
-0.6
-0.57
-0.55
-0.525
-0.49
-0.46
-0.415
-0.36
-0.305
-0.265
-0.235
-0.21
-0.18
-0.155
-0.13
-0.07
-0.005
0.05
0.095
0.15
0.17
0.2
0.24
0.265
0.285
0.32
0.335
0.35
0.38
0.41
0.44
0.475
0.505
0.515
0.52
0.515
0.475
0.47
0.47
0.46
0.475
0.49
0.485
0.465
0.46
0.435
0.405
0.39
0.36
0.325
0.315
0.305
0.28
0.245
0.215
0.19
0.165
0.14
0.125
0.095
0.09
0.045
0.01
-0.025
-0.055
-0.06
-0.085
-0.09
-0.115
-0.145
-0.21
-0.255
-0.31
-0.345
-0.385
-0.39
-0.365
-0.375
-0.37
-0.375
-0.385
-0.39
-0.41
-0.425
-0.445
-0.435
-0.45
-0.46
-0.455
-0.43
-0.405
-0.355
-0.3
-0.265
-0.23
-0.205
-0.215
-0.21
-0.2
-0.185
-0.155
-0.125
-0.105
-0.095
-0.085
-0.1
-0.13
-0.16
-0.195
-0.255
-0.315
-0.375
-0.425
-0.46
-0.485
-0.5
-0.495
-0.49
-0.47
-0.475
-0.5
-0.51
-0.525
-0.53
-0.53
-0.52
-0.49
-0.46
-0.465
-0.485
-0.495
-0.525
-0.53
-0.525
-0.515
-0.505
-0.47
-0.47
-0.48
-0.5
-0.535
-0.555
-0.53
-0.455
-0.305
-0.08
0.19
0.53
0.915
1.31
1.67
1.945
2.09
2.055
1.825
1.45
0.99
0.485
0.015
-0.385
-0.72
-0.99
-1.19
-1.285
-1.275
-1.205
-1.09
-0.965
-0.875
-0.815
-0.785
-0.805
-0.835
-0.86
-0.865
-0.88
-0.905
-0.915
-0.915
-0.925
-0.95
-0.945
-0.94
-0.92
-0.9
-0.915
-0.905
-0.91
-0.93
-0.945
-0.935
-0.93
-0.925
-0.925
-0.925
-0.915
-0.92
-0.9
-0.87
-0.85
-0.835
-0.82
-0.795
-0.79
-0.775
-0.78
-0.76
-0.76
-0.735
-0.7
-0.67
-0.645
-0.63
-0.61
-0.605
-0.575
-0.555
-0.52
-0.5
-0.48
-0.445
-0.44
-0.41
-0.385
-0.345
-0.3
-0.275
-0.245
-0.215
-0.185
-0.16
-0.13
-0.105
-0.07
-0.035
0.005
0.05
0.065
0.085
0.085
0.09
0.1
0.11
0.125
0.13
0.12
0.115
0.13
0.12
0.105
0.105
0.095
0.08
0.06
0.02
-0.005
-0.01
-0.045
-0.06
-0.08
-0.095
-0.105
-0.13
-0.155
-0.2
-0.22
-0.25
-0.27
-0.28
-0.29
-0.315
-0.335
-0.37
-0.405
-0.43
-0.47
-0.48
-0.495
-0.51
-0.535
-0.55
-0.575
-0.59
-0.595
-0.605
-0.59
-0.585
-0.595
-0.605
-0.62
-0.625
-0.625
-0.63
-0.61
-0.61
-0.585
-0.585
-0.595
-0.605
-0.605
-0.61
-0.595
-0.565
-0.515
-0.465
-0.425
-0.395
-0.375
-0.365
-0.35
-0.33
-0.315
-0.31
-0.3
-0.295
-0.305
-0.325
-0.355
-0.39
-0.445
-0.485
-0.52
-0.56
-0.605
-0.64
-0.665
-0.69
-0.695
-0.68
-0.675
-0.67
-0.655
-0.665
-0.67
-0.675
-0.68
-0.675
-0.675
-0.665
-0.67
-0.675
-0.675
-0.68
-0.67
-0.655
-0.645
-0.65
-0.66
-0.675
-0.71
-0.735
-0.755
-0.715
-0.6
-0.405
-0.135
0.175
0.54
0.935
1.315
1.665
1.905
2.035
2.0
1.81
1.49
1.08
0.61
0.135
-0.295
-0.68
-1.02
-1.275
-1.405
-1.435
-1.36
-1.24
-1.1
-0.985
-0.9
-0.885
-0.89
-0.925
-0.975
-1.02
-1.05
-1.045
-1.05
-1.035
-1.025
-1.025
-1.03
-1.05
-1.045
-1.045
-1.05
-1.05
-1.06
-1.09
-1.1
-1.105
-1.105
-1.095
-1.065
-1.04
-1.035
-1.035
-1.05
-1.06
-1.065
-1.065
-1.04
-1.015
-0.975
-0.965
-0.95
-0.935
-0.91
-0.9
-0.875
-0.865
-0.845
-0.85
-0.825
-0.8
-0.775
-0.735
-0.695
-0.645
-0.615
-0.58
-0.555
-0.535
-0.51
-0.485
-0.455
-0.405
-0.365
-0.315
-0.285
-0.255
-0.24
-0.23
-0.205
-0.18
-0.14
-0.115
-0.09
-0.075
-0.055
-0.04
-0.02
0.005
0.01
0.015
0.005
-0.01
-0.035
-0.045
-0.04
-0.05
-0.045
-0.06
-0.07
-0.095
-0.125
-0.155
-0.185
-0.21
-0.235
-0.255
-0.285
-0.31
-0.34
-0.36
-0.365
-0.39
-0.405
-0.43
-0.46
-0.505
-0.535
-0.57
-0.595
-0.595
-0.585
-0.59
-0.59
-0.605
-0.63
-0.635
-0.64
-0.63
-0.62
-0.62
-0.625
-0.62
-0.62
-0.625
-0.605
-0.57
-0.535
-0.5
-0.47
-0.45
-0.445
-0.44
-0.435
-0.405
-0.37
-0.335
-0.315
-0.315
-0.32
-0.33
-0.355
-0.385
-0.43
-0.48
-0.525
-0.575
-0.615
-0.675
-0.7
-0.72
-0.73
-0.725
-0.71
-0.72
-0.72
-0.745
-0.74
-0.74
-0.73
-0.72
-0.71
-0.705
-0.705
-0.725
-0.73
-0.735
-0.735
-0.73
-0.725
-0.72
-0.73
-0.745
-0.755
-0.785
-0.76
-0.735
-0.625
-0.47
-0.23
0.065
0.455
0.895
1.355
1.75
2.015
2.06
1.915
1.605
1.245
0.835
0.44
0.045
-0.31
-0.625
-0.91
-1.155
-1.285
-1.335
-1.245
-1.125
-0.99
-0.905
-0.88
-0.9
-0.95
-0.995
-1.02
-1.04
-1.015
-1.0
-0.985
-0.99
-0.995
-1.015
-1.035
-1.05
-1.065
-1.055
-1.05
-1.06
-1.04
-1.065
-1.045
-1.055
-1.045
-1.035
-1.025
-1.025
-1.015
-1.0
-0.99
-0.995
-0.98
-0.97
-0.935
-0.91
-0.89
-0.875
-0.85
-0.845
-0.82
-0.795
-0.76
-0.73
-0.685
-0.65
-0.61
-0.59
-0.57
-0.55
-0.515
-0.485
-0.44
-0.385
-0.345
-0.305
-0.27
-0.23
-0.2
-0.165
-0.145
-0.125
-0.09
-0.055
-0.035
-0.005
0.035
0.085
0.135
0.17
0.185
0.195
0.19
0.18
0.18
0.2
0.195
0.215
0.23
0.215
0.21
0.18
0.155
0.14
0.125
0.12
0.12
0.105
0.075
0.035
0.01
-0.03
-0.035
-0.05
-0.05
-0.085
-0.115
-0.16
-0.205
-0.235
-0.25
-0.25
-0.265
-0.285
-0.315
-0.355
-0.4
-0.43
-0.455
-0.475
-0.515
-0.535
-0.56
-0.585
-0.595
-0.63
-0.635
-0.65
-0.655
-0.655
-0.65
-0.655
-0.66
-0.66
-0.68
-0.69
-0.685
-0.665
-0.645
-0.625
-0.6
-0.575
-0.56
-0.54
-0.51
-0.48
-0.45
-0.415
-0.4
-0.385
-0.37
-0.35
-0.325
-0.3
-0.305
-0.315
-0.35
-0.405
-0.47
-0.535
-0.59
-0.625
-0.65
-0.65
-0.665
-0.685
-0.695
-0.715
-0.715
-0.73
-0.73
-0.725
-0.72
-0.705
-0.715
-0.71
-0.705
-0.705
-0.695
-0.68
-0.68
-0.675
-0.685
-0.685
-0.69
-0.685
-0.685
-0.705
-0.71
-0.725
-0.725
-0.655
-0.485
-0.215
0.15
0.595
1.055
1.52
1.875
2.05
2.0
1.715
1.295
0.805
0.295
-0.17
-0.54
-0.82
-1.065
-1.265
-1.39
-1.405
-1.345
-1.22
-1.105
-1.0
-0.94
-0.925
-0.94
-0.97
-1.0
-1.015
-1.025
-1.015
-1.01
-1.015
-1.01
-1.005
-1.03
-1.04
-1.05
-1.075
-1.08
-1.075
-1.06
-1.05
-1.035
-1.035
-1.035
-1.03
-1.035
-1.035
-1.035
-1.02
-0.99
-0.98
-0.97
-0.955
-0.945
-0.93
-0.91
-0.905
-0.895
-0.88
-0.87
-0.85
-0.83
-0.8
-0.77
-0.725
-0.685
-0.66
-0.645
-0.625
-0.605
-0.585
-0.54
-0.49
-0.445
-0.41
-0.375
-0.35
-0.325
-0.31
-0.285
-0.23
-0.22
-0.175
-0.15
-0.14
-0.1
-0.07
-0.025
-0.005
0.025
0.04
0.05
0.05
0.035
0.035
0.035
0.045
0.05
0.035
0.035
0.015
-0.025
-0.025
-0.04
-0.055
-0.07
-0.095
-0.125
-0.155
-0.19
-0.215
-0.23
-0.25
-0.265
-0.3
-0.345
-0.395
-0.445
-0.475
-0.495
-0.505
-0.51
-0.525
-0.55
-0.57
-0.59
-0.605
-0.61
-0.64
-0.65
-0.66
-0.675
-0.68
-0.685
-0.68
-0.675
-0.65
-0.665
-0.665
-0.665
-0.685
-0.69
-0.665
-0.65
-0.615
-0.59
-0.565
-0.535
-0.51
-0.485
-0.455
-0.44
-0.425
-0.415
-0.415
-0.415
-0.415
-0.41
-0.41
-0.405
-0.44
-0.485
-0.545
-0.625
-0.685
-0.73
-0.765
-0.785
-0.795
-0.78
-0.765
-0.77
-0.78
-0.765
-0.76
-0.755
-0.755
-0.765
-0.77
-0.785
-0.78
-0.78
-0.785
-0.765
-0.74
-0.74
-0.76
-0.795
-0.845
-0.885
-0.925
-0.955
-0.945
-0.895
-0.795
-0.585
-0.285
0.125
0.61
1.115
1.615
2.03
2.295
2.385
2.295
2.075
1.78
1.455
1.115
0.785
0.47
0.18
-0.12
-0.44
-0.725
-0.92
-1.03
-1.05
-1.01
-0.96
-0.94
-0.945
-0.98
-1.015
-1.055
-1.075
-1.095
-1.105
-1.11
-1.125
-1.14
-1.145
-1.145
-1.145
-1.15
-1.15
-1.17
-1.18
-1.205
-1.22
-1.215
-1.205
-1.195
-1.195
-1.175
-1.19
-1.195
-1.21
-1.22
-1.23
-1.22
-1.225
-1.2
-1.19
-1.19
-1.185
-1.175
-1.175
-1.155
-1.145
-1.14
-1.13
-1.13
-1.125
-1.12
-1.09
-1.06
-1.0
-0.965
-0.93
-0.91
-0.895
-0.875
-0.86
-0.83
-0.775
-0.745
-0.695
-0.65
-0.605
-0.57
-0.53
-0.48
-0.43
-0.395
-0.36
-0.345
-0.335
-0.3
-0.265
-0.24
-0.195
-0.16
-0.135
-0.12
-0.125
-0.12
-0.12
-0.11
-0.095
-0.09
-0.08
-0.07
-0.095
-0.09
-0.11
-0.1
-0.1
-0.11
-0.115
-0.15
-0.185
-0.21
-0.235
-0.245
-0.25
-0.27
-0.29
-0.315
-0.365
-0.395
-0.425
-0.465
-0.49
-0.49
-0.5
-0.515
-0.545
-0.57
-0.61
-0.625
-0.64
-0.645
-0.64
-0.645
-0.65
-0.66
-0.675
-0.67
-0.66
-0.655
-0.625
-0.61
-0.585
-0.56
-0.54
-0.525
-0.51
-0.475
-0.44
-0.425
-0.395
-0.38
-0.37
-0.365
-0.355
-0.365
-0.39
-0.43
-0.495
-0.545
-0.61
-0.655
-0.665
-0.68
-0.68
-0.7
-0.69
-0.715
-0.715
-0.715
-0.715
-0.705
-0.69
-0.685
-0.69
-0.685
-0.69
-0.685
-0.675
-0.67
-0.66
-0.67
-0.68
-0.67
-0.695
-0.7
-0.71
-0.715
-0.7
-0.65
-0.54
-0.36
-0.105
0.185
0.55
0.965
1.405
1.795
2.03
2.045
1.845
1.47
0.975
0.455
-0.06
-0.51
-0.89
-1.165
-1.295
-1.305
-1.22
-1.085
-0.945
-0.855
-0.825
-0.84
-0.875
-0.9
-0.945
-0.955
-0.975
-0.97
-0.98
-0.975
-0.97
-0.96
-0.97
-0.975
-0.99
-1.015
-1.04
-1.035
-1.03
-1.01
-0.985
-0.97
-0.965
-0.97
-0.985
-1.005
-0.995
-0.975
-0.955
-0.94
-0.915
-0.905
-0.885
-0.87
-0.835
-0.82
-0.785
-0.76
-0.75
-0.715
-0.695
-0.655
-0.605
-0.56
-0.505
-0.455
-0.425
-0.38
-0.35
-0.325
-0.285
-0.255
-0.205
-0.165
-0.12
-0.075
-0.035
0.005
0.035
0.1
0.13
0.17
0.18
0.185
0.2
0.205
0.24
0.275
0.295
0.32
0.325
0.315
0.29
0.285
0.28
0.27
0.27
0.255
0.22
0.195
0.18
0.155
0.14
0.11
0.08
0.03
0.015
-0.01
-0.025
-0.055
-0.075
-0.1
-0.12
-0.145
-0.175
-0.22
-0.255
-0.295
-0.315
-0.34
-0.375
-0.4
-0.44
-0.47
-0.49
-0.505
-0.52
-0.525
-0.54
-0.54
-0.555
-0.575
-0.615
-0.625
-0.64
-0.635
-0.62
-0.61
-0.585
-0.58
-0.585
-0.59
-0.585
-0.585
-0.555
-0.505
-0.47
-0.44
-0.42
-0.415
-0.405
-0.405
-0.4
-0.375
-0.33
-0.3
-0.275
-0.25
-0.255
-0.265
-0.295
-0.33
-0.355
-0.39
-0.44
-0.495
-0.56
-0.615
-0.675
-0.71
-0.74
-0.715
-0.675
-0.585
-0.46
-0.29
-0.105
0.105
0.335
0.545
0.755
0.965
1.185
1.415
1.64
1.86
2.045
2.21
2.335
2.435
2.5
2.52
2.5
2.46
2.415
2.345
2.28
2.24
2.19
2.16
2.14
2.095
2.04
1.95
1.86
1.715
1.54
1.315
1.08
0.805
0.485
0.16
-0.135
-0.405
-0.62
-0.815
-0.98
-1.135
-1.265
-1.335
-1.375
-1.34
-1.325
-1.31
-1.335
-1.36
-1.415
-1.465
-1.505
-1.535
-1.545
-1.555
-1.555
-1.56
-1.595
-1.62
-1.655
-1.68
-1.72
-1.72
-1.74
-1.755
-1.775
-1.795
-1.83
-1.835
-1.845
-1.865
-1.86
-1.865
-1.9
-1.91
-1.945
-1.95
-1.955
-1.955
-1.935
-1.915
-1.895
-1.89
-1.885
-1.875
-1.85
-1.835
-1.82
-1.79
-1.75
-1.71
-1.675
-1.605
-1.565
-1.515
-1.465
-1.44
-1.415
-1.37
-1.345
-1.315
-1.265
-1.215
-1.15
-1.08
-1.015
-0.96
-0.92
-0.89
-0.845
-0.815
-0.775
-0.73
-0.69
-0.655
-0.635
-0.605
-0.605
-0.585
-0.58
-0.56
-0.55
-0.545
-0.56
-0.55
-0.55
-0.555
-0.54
-0.54
-0.535
-0.545
-0.565
-0.58
-0.595
-0.605
-0.62
-0.62
-0.63
-0.64
-0.65
-0.685
-0.68
-0.71
-0.71
-0.73
-0.73
-0.755
-0.765
-0.775
-0.775
-0.77
-0.74
-0.725
-0.72
-0.73
-0.735
-0.745
-0.745
-0.73
-0.72
-0.7
-0.695
-0.685
-0.68
-0.665
-0.665
-0.655
-0.635
-0.63
-0.63
-0.64
-0.64
-0.64
-0.61
-0.57
-0.525
-0.47
-0.45
-0.425
-0.425
-0.415
-0.41
-0.405
-0.38
-0.365
-0.355
-0.355
-0.365
-0.39
-0.435
-0.49
-0.535
-0.6
-0.645
-0.7
-0.72
-0.725
-0.71
-0.7
-0.68
-0.66
-0.65
-0.665
-0.675
-0.69
-0.7
-0.7
-0.69
-0.685
-0.69
-0.69
-0.69
-0.69
-0.7
-0.675
-0.67
-0.675
-0.69
-0.725
-0.76
-0.775
-0.79
-0.755
-0.67
-0.505
-0.265
0.015
0.36
0.74
1.145
1.555
1.875
2.05
2.005
1.78
1.415
0.95
0.435
-0.03
-0.425
-0.745
-0.985
-1.155
-1.285
-1.31
-1.265
-1.17
-1.055
-0.935
-0.88
-0.85
-0.87
-0.91
-0.95
-0.965
-0.985
-0.985
-0.97
-0.935
-0.935
-0.945
-0.94
-0.96
-0.965
-0.97
-0.98
-0.985
-0.985
-0.99
-1.005
-0.995
-0.995
-0.98
-0.965
-0.96
-0.95
-0.955
-0.955
-0.95
-0.95
-0.935
-0.915
-0.885
-0.86
-0.845
-0.83
-0.815
-0.805
-0.775
-0.755
-0.725
-0.715
-0.7
-0.665
-0.64
-0.605
-0.575
-0.505
-0.485
-0.455
-0.425
-0.41
-0.38
-0.35
-0.325
-0.255
-0.21
-0.175
-0.125
-0.105
-0.065
-0.05
-0.01
0.015
0.06
0.08
0.105
0.125
0.135
0.16
0.185
0.22
0.245
0.265
0.27
0.27
0.26
0.25
0.24
0.25
0.25
0.255
0.245
0.225
0.195
0.16
0.13
0.105
0.085
0.05
0.035
0.02
-0.005
-0.04
-0.06
-0.095
-0.13
-0.16
-0.195
-0.22
-0.255
-0.28
-0.31
-0.32
-0.335
-0.335
-0.35
-0.35
-0.36
-0.37
-0.38
-0.39
-0.4
-0.395
-0.385
-0.37
-0.35
-0.35
-0.345
-0.35
-0.35
-0.345
-0.335
-0.315
-0.295
-0.27
-0.26
-0.22
-0.2
-0.19
-0.17
-0.15
-0.13
-0.105
-0.1
-0.11
-0.135
-0.13
-0.155
-0.165
-0.195
-0.235
-0.275
-0.325
-0.37
-0.43
-0.47
-0.495
-0.51
-0.51
-0.505
-0.5
-0.505
-0.49
-0.485
-0.465
-0.45
-0.455
-0.46
-0.47
-0.485
-0.49
-0.49
-0.485
-0.47
-0.45
-0.435
-0.415
-0.415
-0.415
-0.43
-0.455
-0.48
-0.49
-0.455
-0.41
-0.305
-0.16
0.055
0.32
0.62
0.99
1.385
1.76
2.03
2.175
2.135
1.94
1.62
1.245
0.835
0.445
0.075
-0.26
-0.55
-0.755
-0.86
-0.88
-0.795
-0.695
-0.615
-0.575
-0.575
-0.615
-0.67
-0.7
-0.73
-0.735
-0.745
-0.725
-0.735
-0.73
-0.74
-0.755
-0.755
-0.755
-0.76
-0.74
-0.75
-0.75
-0.77
-0.78
-0.785
-0.78
-0.75
-0.74
-0.745
-0.745
-0.74
-0.745
-0.745
-0.725
-0.71
-0.7
-0.67
-0.67
-0.655
-0.645
-0.615
-0.57
-0.555
-0.525
-0.52
-0.51
-0.5
-0.495
-0.47
-0.435
-0.395
-0.36
-0.32
-0.27
-0.255
-0.23
-0.215
-0.185
-0.16
-0.13
