Lead II
-0.03
-0.02
-0.03
-0.025
-0.025
-0.01
0.01
0.025
0.025
0.035
0.05
0.045
0.025
0.025
0.045
0.065
0.09
0.105
0.1
0.095
0.1
0.1
0.11
0.115
0.125
0.12
0.115
0.12
0.12
0.125
0.11
0.095
0.085
0.1
0.105
0.12
0.1
0.09
0.085
0.085
0.08
0.08
0.07
0.055
0.05
0.045
0.045
0.04
0.04
0.045
0.04
0.035
0.04
0.045
0.035
0.035
0.025
0.02
0.025
0.015
0.01
0.01
0.005
0.005
0.015
0.005
-0.01
-0.025
-0.035
-0.015
0.03
0.045
0.03
-0.02
-0.035
-0.025
0.0
0.02
0.005
-0.02
-0.025
-0.01
-0.01
-0.025
-0.06
-0.08
-0.065
-0.05
-0.04
-0.07
-0.105
-0.095
-0.065
-0.05
-0.03
-0.03
-0.03
-0.02
-0.015
0.015
0.015
0.02
0.025
0.035
0.03
0.045
0.05
0.055
0.045
0.025
0.025
0.015
0.0
-0.02
-0.04
-0.05
-0.05
-0.04
-0.04
-0.04
-0.045
-0.045
-0.045
-0.045
-0.06
-0.065
-0.065
-0.07
-0.065
-0.055
-0.035
-0.02
-0.045
-0.035
-0.045
-0.05
-0.045
-0.055
-0.08
-0.1
-0.1
-0.075
-0.05
-0.035
-0.035
-0.05
-0.075
-0.09
-0.11
-0.095
-0.08
-0.06
-0.045
-0.045
-0.04
-0.04
-0.035
-0.035
-0.03
-0.04
-0.04
-0.04
-0.06
-0.085
-0.105
-0.09
-0.065
-0.01
0.065
0.145
0.215
0.325
0.42
0.505
0.575
0.655
0.765
0.9
1.005
1.085
1.14
1.135
1.065
0.965
0.82
0.585
0.245
-0.035
-0.23
-0.34
-0.4
-0.4
-0.365
-0.31
-0.255
-0.205
-0.16
-0.155
-0.17
-0.165
-0.155
-0.145
-0.175
-0.215
-0.245
-0.265
-0.275
-0.24
-0.2
-0.185
-0.18
-0.18
-0.175
-0.16
-0.145
-0.13
-0.15
-0.19
-0.215
-0.205
-0.17
-0.145
-0.14
-0.16
-0.185
-0.175
-0.165
-0.16
-0.155
-0.16
-0.16
-0.15
-0.14
-0.14
-0.13
-0.13
-0.145
-0.125
-0.14
-0.14
-0.135
-0.12
-0.115
-0.1
-0.085
-0.065
-0.07
-0.085
-0.095
-0.1
-0.095
-0.075
-0.065
-0.07
-0.06
-0.04
-0.01
0.015
0.02
-0.01
-0.03
-0.03
-0.005
0.025
0.06
0.055
0.03
0.015
0.005
-0.03
-0.055
-0.06
-0.05
-0.04
-0.015
0.01
0.015
0.015
0.015
0.015
0.015
0.015
0.035
0.025
0.045
0.055
0.07
0.07
0.08
0.07
0.07
0.1
0.115
0.13
0.12
0.105
0.105
0.1
0.1
0.05
-0.005
-0.07
-0.11
-0.13
-0.125
-0.105
-0.09
-0.085
-0.11
-0.11
-0.13
-0.14
-0.14
-0.115
-0.09
-0.085
-0.09
-0.1
-0.12
-0.125
-0.105
-0.085
-0.055
-0.035
-0.04
-0.05
-0.08
-0.105
-0.12
-0.115
-0.105
-0.095
-0.085
-0.085
-0.1
-0.13
-0.17
-0.215
-0.245
-0.255
-0.25
-0.25
-0.245
-0.25
-0.255
-0.25
-0.245
-0.265
-0.285
-0.31
-0.305
-0.295
-0.28
-0.27
-0.27
-0.26
-0.26
-0.245
-0.26
-0.255
-0.26
-0.245
-0.25
-0.225
-0.21
-0.22
-0.22
-0.24
-0.235
-0.215
-0.175
-0.145
-0.15
-0.16
-0.175
-0.17
-0.175
-0.185
-0.205
-0.22
-0.23
-0.235
-0.25
-0.235
-0.245
-0.235
-0.215
-0.16
-0.14
-0.16
-0.195
-0.23
-0.245
-0.24
-0.225
-0.2
-0.155
-0.155
-0.21
-0.265
-0.275
-0.26
-0.25
-0.24
-0.235
-0.24
-0.25
-0.285
-0.315
-0.33
-0.325
-0.305
-0.29
-0.295
-0.295
-0.29
-0.29
-0.29
-0.28
-0.295
-0.305
-0.3
-0.3
-0.24
-0.17
-0.165
-0.19
-0.19
-0.19
-0.19
-0.2
-0.22
-0.22
-0.24
-0.235
-0.225
-0.23
-0.22
-0.195
-0.13
-0.06
0.025
0.115
0.195
0.285
0.355
0.415
0.485
0.57
0.675
0.77
0.84
0.87
0.865
0.79
0.69
0.57
0.43
0.24
-0.005
-0.205
-0.36
-0.455
-0.505
-0.515
-0.48
-0.44
-0.415
-0.415
-0.41
-0.38
-0.355
-0.315
-0.275
-0.27
-0.305
-0.34
-0.345
-0.32
-0.315
-0.32
-0.335
-0.325
-0.255
-0.125
-0.01
0.045
0.035
-0.035
-0.145
-0.275
-0.365
-0.385
-0.355
-0.28
-0.225
-0.205
-0.185
-0.185
-0.19
-0.2
-0.17
-0.145
-0.15
-0.14
-0.14
-0.15
-0.125
-0.125
-0.105
-0.11
-0.105
-0.1
-0.095
-0.09
-0.095
-0.1
-0.12
-0.13
-0.115
-0.07
-0.04
-0.02
-0.04
-0.04
-0.04
-0.04
-0.045
-0.025
-0.02
-0.025
-0.01
-0.02
0.005
0.045
0.065
0.07
0.055
0.01
0.0
0.015
0.045
0.055
0.07
0.075
0.08
0.085
0.105
0.115
0.115
0.11
0.125
0.16
0.17
0.135
0.125
0.135
0.135
0.14
0.155
0.16
0.18
0.195
0.18
0.195
0.215
0.24
0.27
0.29
0.3
0.275
0.215
0.14
0.065
-0.005
-0.06
-0.055
-0.03
-0.055
-0.06
-0.07
-0.07
-0.065
-0.08
-0.075
-0.035
0.015
0.03
0.035
0.015
0.005
0.03
0.065
0.105
0.11
0.085
0.01
-0.095
-0.19
-0.205
-0.155
-0.115
-0.12
-0.115
-0.1
-0.12
-0.15
-0.185
-0.195
-0.175
-0.15
-0.11
-0.055
-0.06
-0.11
-0.11
-0.12
-0.115
-0.085
-0.085
-0.13
-0.18
-0.19
-0.175
-0.14
-0.12
-0.1
-0.085
-0.08
-0.1
-0.145
-0.2
-0.21
-0.185
-0.17
-0.165
-0.145
-0.155
-0.14
-0.115
-0.1
-0.105
-0.09
-0.085
-0.07
-0.025
-0.03
-0.015
0.015
0.03
0.015
-0.025
-0.09
-0.165
-0.235
-0.27
-0.225
-0.145
-0.115
-0.095
-0.09
-0.095
-0.105
-0.125
-0.135
-0.115
-0.1
-0.08
-0.065
-0.015
0.0
-0.01
-0.025
-0.035
-0.045
-0.055
-0.06
-0.08
-0.115
-0.115
-0.105
-0.08
-0.08
-0.06
-0.075
-0.09
-0.12
-0.12
-0.145
-0.155
-0.125
-0.08
-0.06
-0.065
-0.075
-0.08
-0.095
-0.095
-0.07
-0.015
0.075
0.195
0.3
0.4
0.45
0.49
0.54
0.635
0.755
0.875
0.985
1.05
1.075
1.005
0.87
0.585
0.19
-0.135
-0.32
-0.405
-0.425
-0.425
-0.4
-0.315
-0.23
-0.13
-0.03
-0.01
-0.095
-0.195
-0.3
-0.355
-0.355
-0.34
-0.33
-0.33
-0.325
-0.29
-0.23
-0.165
-0.14
-0.125
-0.105
-0.09
0.025
0.145
0.21
0.19
0.08
-0.065
-0.21
-0.285
-0.27
-0.28
-0.335
-0.365
-0.355
-0.345
-0.335
-0.345
-0.36
-0.315
-0.19
-0.05
0.055
0.115
0.115
0.03
-0.06
-0.16
-0.255
-0.32
-0.34
-0.305
-0.23
-0.135
-0.065
-0.055
-0.03
-0.02
-0.045
-0.105
-0.17
-0.15
-0.12
-0.065
0.025
0.155
0.18
0.07
-0.12
-0.305
-0.45
-0.475
-0.365
-0.195
-0.13
-0.14
-0.22
-0.27
-0.27
-0.165
-0.015
0.08
0.1
0.06
0.02
0.005
-0.01
-0.05
-0.095
-0.065
-0.01
-0.005
-0.06
-0.14
-0.21
-0.26
-0.285
-0.27
-0.235
-0.185
-0.135
-0.125
-0.135
-0.135
-0.14
-0.155
-0.135
-0.12
-0.11
-0.09
-0.08
-0.085
-0.1
-0.16
-0.185
-0.19
-0.16
-0.105
-0.07
-0.055
-0.07
-0.085
-0.08
-0.065
-0.05
-0.06
-0.08
-0.085
-0.075
-0.06
-0.06
-0.025
0.0
-0.01
-0.085
-0.175
-0.215
-0.225
-0.185
-0.145
-0.095
-0.07
-0.085
-0.12
-0.15
-0.165
-0.105
0.035
0.135
0.07
-0.13
-0.345
-0.445
-0.365
-0.165
-0.01
0.035
-0.02
-0.15
-0.275
-0.365
-0.425
-0.415
-0.385
-0.335
-0.215
-0.035
0.12
0.18
0.26
0.29
0.18
-0.06
-0.29
-0.415
-0.41
-0.315
-0.125
0.02
0.035
-0.03
-0.1
-0.165
-0.215
-0.175
-0.105
-0.07
-0.095
-0.175
-0.26
-0.29
-0.275
-0.26
-0.245
-0.275
-0.285
-0.29
-0.285
-0.295
-0.275
-0.3
-0.33
-0.285
-0.2
-0.085
0.02
0.035
-0.09
-0.265
-0.41
-0.445
-0.375
-0.28
-0.24
-0.26
-0.275
-0.285
-0.275
-0.245
-0.205
-0.175
-0.11
0.005
0.115
0.145
0.125
0.065
0.025
0.065
0.21
0.415
0.61
0.78
0.875
0.91
0.865
0.79
0.635
0.36
0.02
-0.26
-0.39
-0.435
-0.42
-0.395
-0.35
-0.3
-0.245
-0.25
-0.27
-0.3
-0.35
-0.41
-0.41
-0.385
-0.345
-0.325
-0.325
-0.335
-0.29
-0.245
-0.2
-0.19
-0.19
-0.195
-0.19
-0.205
-0.205
-0.23
-0.245
-0.235
-0.21
-0.195
-0.19
-0.21
-0.235
-0.24
-0.235
-0.225
-0.23
-0.235
-0.24
-0.235
-0.215
-0.21
-0.205
-0.205
-0.2
-0.21
-0.19
-0.16
-0.16
-0.16
-0.16
-0.145
-0.1
-0.005
0.035
-0.02
-0.14
-0.215
-0.22
-0.19
-0.17
-0.22
-0.235
-0.245
-0.19
-0.13
-0.08
-0.04
-0.065
-0.075
-0.07
-0.055
-0.025
-0.015
-0.02
-0.05
-0.05
-0.005
0.025
0.025
-0.005
-0.005
0.015
0.065
0.155
0.19
0.14
0.015
-0.09
-0.165
-0.195
-0.215
-0.19
-0.18
-0.225
-0.285
-0.295
-0.245
-0.2
-0.205
-0.225
-0.22
-0.215
-0.205
-0.2
-0.2
-0.165
-0.1
-0.08
-0.08
-0.09
-0.095
-0.08
-0.11
-0.19
-0.275
-0.34
-0.365
-0.34
-0.335
-0.305
-0.305
-0.295
-0.295
-0.28
-0.27
-0.24
-0.23
-0.255
-0.29
-0.26
-0.225
-0.225
-0.235
-0.24
-0.245
-0.245
-0.225
-0.205
-0.205
-0.225
-0.235
-0.22
-0.2
-0.185
-0.19
-0.185
-0.18
-0.16
-0.14
-0.17
-0.22
-0.225
-0.215
-0.195
-0.205
-0.205
-0.215
-0.22
-0.22
-0.205
-0.195
-0.185
-0.195
-0.19
-0.21
-0.2
-0.175
-0.16
-0.155
-0.185
-0.2
-0.17
-0.15
-0.145
-0.165
-0.175
-0.18
-0.195
-0.21
-0.195
-0.18
-0.125
-0.05
-0.02
-0.05
-0.135
-0.235
-0.305
-0.37
-0.36
-0.3
-0.24
-0.195
-0.18
-0.185
-0.15
-0.115
-0.105
-0.15
-0.255
-0.32
-0.3
-0.245
-0.195
-0.12
-0.025
0.1
0.245
0.38
0.455
0.545
0.61
0.66
0.715
0.75
0.735
0.685
0.56
0.33
0.035
-0.18
-0.255
-0.3
-0.39
-0.56
-0.665
-0.64
-0.485
-0.245
0.01
0.165
0.13
-0.11
-0.415
-0.685
-0.845
-0.82
-0.675
-0.485
-0.37
-0.335
-0.33
-0.305
-0.25
-0.175
-0.135
-0.155
-0.245
-0.37
-0.47
-0.49
-0.37
-0.185
-0.09
-0.07
-0.11
-0.17
-0.235
-0.295
-0.37
-0.43
-0.445
-0.4
-0.295
-0.195
-0.135
-0.16
-0.23
-0.335
-0.385
-0.375
-0.335
-0.265
-0.155
-0.065
-0.08
-0.18
-0.345
-0.46
-0.49
-0.42
-0.24
-0.105
-0.055
-0.11
-0.18
-0.255
-0.24
-0.17
-0.11
-0.07
0.035
0.175
0.225
0.16
0.0
-0.175
-0.26
-0.24
-0.175
-0.115
-0.125
-0.125
-0.12
-0.13
-0.2
-0.245
-0.265
-0.255
-0.2
-0.15
-0.11
-0.1
-0.11
-0.11
-0.125
-0.1
-0.03
0.015
0.02
0.025
0.095
0.12
0.015
-0.19
-0.35
-0.32
-0.165
-0.06
-0.06
-0.16
-0.225
-0.25
-0.24
-0.225
-0.195
-0.175
-0.175
-0.15
-0.095
-0.075
-0.185
-0.385
-0.555
-0.58
-0.475
-0.335
-0.185
-0.06
0.02
0.035
-0.06
-0.21
-0.34
-0.355
-0.31
-0.305
-0.28
-0.225
-0.18
-0.23
-0.355
-0.43
-0.35
-0.205
-0.095
-0.125
-0.25
-0.385
-0.44
-0.445
-0.395
-0.31
-0.245
-0.19
-0.165
-0.15
-0.095
-0.025
-0.02
-0.08
-0.185
-0.275
-0.3
-0.285
-0.275
-0.225
-0.15
-0.135
-0.225
-0.335
-0.38
-0.295
-0.135
-0.04
-0.095
-0.27
-0.39
-0.425
-0.38
-0.33
-0.245
-0.2
-0.18
-0.24
-0.3
-0.345
-0.315
-0.275
-0.285
-0.275
-0.23
-0.19
-0.185
-0.19
-0.125
-0.085
-0.07
-0.09
-0.17
-0.29
-0.355
-0.34
-0.21
-0.04
0.005
-0.07
-0.245
-0.39
-0.465
-0.47
-0.385
-0.275
-0.225
-0.22
-0.235
-0.265
-0.245
-0.175
-0.09
-0.025
0.085
0.225
0.385
0.52
0.625
0.7
0.8
0.955
1.075
1.17
1.195
1.14
0.9
0.44
-0.1
-0.495
-0.665
-0.695
-0.665
-0.65
-0.685
-0.69
-0.645
-0.545
-0.455
-0.43
-0.42
-0.43
-0.415
-0.385
-0.38
-0.395
-0.38
-0.35
-0.33
-0.295
-0.29
-0.3
-0.32
-0.325
-0.34
-0.345
-0.33
-0.335
-0.325
-0.305
-0.315
-0.345
-0.355
-0.35
-0.36
-0.345
-0.325
-0.31
-0.3
-0.26
-0.23
-0.21
-0.235
-0.265
-0.285
-0.345
-0.36
-0.395
-0.37
-0.365
-0.33
-0.26
-0.18
-0.075
-0.005
0.005
-0.125
-0.345
-0.485
-0.49
-0.425
-0.355
-0.31
-0.27
-0.25
-0.225
-0.205
-0.22
-0.2
-0.19
-0.175
-0.185
-0.18
-0.14
-0.11
-0.11
-0.11
-0.11
-0.11
-0.09
-0.04
0.025
0.1
0.175
0.2
0.15
0.05
-0.035
-0.045
-0.035
-0.045
-0.08
-0.075
-0.035
0.005
-0.01
-0.08
-0.175
-0.23
-0.25
-0.23
-0.205
-0.16
-0.13
-0.11
-0.095
-0.075
-0.065
-0.065
-0.04
-0.01
-0.045
-0.095
-0.13
-0.16
-0.145
-0.1
-0.075
-0.1
-0.145
-0.19
-0.225
-0.23
-0.235
-0.26
-0.245
-0.18
-0.105
-0.045
-0.05
-0.11
-0.16
-0.195
-0.225
-0.22
-0.23
-0.21
-0.205
-0.175
-0.165
-0.155
-0.135
-0.135
-0.175
-0.175
-0.165
-0.195
-0.26
-0.295
-0.28
-0.245
-0.21
-0.185
-0.165
-0.165
-0.185
-0.245
-0.295
-0.275
-0.265
-0.25
-0.225
-0.235
-0.23
-0.21
-0.175
-0.145
-0.145
-0.16
-0.175
-0.18
-0.17
-0.18
-0.195
-0.19
-0.19
-0.19
-0.19
-0.175
-0.155
-0.16
-0.175
-0.15
-0.09
-0.05
-0.045
-0.03
-0.035
-0.075
-0.165
-0.255
-0.305
-0.305
-0.245
-0.205
-0.23
-0.265
-0.275
-0.255
-0.255
-0.265
-0.255
-0.255
-0.225
-0.215
-0.215
-0.21
-0.195
-0.17
-0.145
-0.15
-0.145
-0.135
-0.12
-0.125
-0.15
-0.11
-0.025
0.075
0.14
0.17
0.185
0.22
0.345
0.545
0.72
0.875
0.96
0.96
0.92
0.79
0.58
0.255
-0.07
-0.31
-0.435
-0.49
-0.485
-0.44
-0.355
-0.28
-0.28
-0.295
-0.31
-0.305
-0.335
-0.355
-0.38
-0.35
-0.34
-0.33
-0.32
-0.32
-0.31
-0.285
-0.27
-0.26
-0.26
-0.26
-0.275
-0.275
-0.28
-0.275
-0.265
-0.27
-0.285
-0.3
-0.305
-0.3
-0.295
-0.305
-0.315
-0.305
-0.3
-0.28
-0.29
-0.3
-0.275
-0.28
-0.275
-0.26
-0.25
-0.245
-0.245
-0.25
-0.25
-0.25
-0.235
-0.225
-0.205
-0.19
-0.19
-0.18
-0.18
-0.19
-0.175
-0.15
-0.115
-0.105
-0.09
-0.085
-0.085
-0.05
-0.03
-0.045
-0.09
-0.12
-0.12
-0.105
-0.075
-0.06
-0.04
-0.02
-0.015
-0.005
-0.01
-0.005
0.0
-0.015
-0.02
-0.015
0.0
0.01
0.0
0.02
0.03
0.03
0.05
0.05
0.03
-0.015
-0.05
-0.04
-0.02
-0.025
-0.055
-0.095
-0.12
-0.14
-0.13
-0.105
-0.09
-0.1
-0.09
-0.105
-0.115
-0.11
-0.11
-0.12
-0.12
-0.11
-0.1
-0.08
-0.065
-0.07
-0.105
-0.135
-0.155
-0.165
-0.15
-0.135
-0.145
-0.14
-0.14
-0.135
-0.125
-0.13
-0.165
-0.205
-0.255
-0.25
-0.23
-0.205
-0.19
-0.175
-0.19
-0.225
-0.255
-0.25
-0.255
-0.225
-0.195
-0.175
-0.195
-0.21
-0.27
-0.29
-0.285
-0.27
-0.24
-0.245
-0.245
-0.225
-0.205
-0.185
-0.2
-0.24
-0.245
-0.245
-0.235
-0.225
-0.23
-0.225
-0.205
-0.185
-0.16
-0.165
-0.155
-0.15
-0.16
-0.165
-0.17
-0.17
-0.16
-0.175
-0.195
-0.2
-0.19
-0.195
-0.22
-0.25
-0.26
-0.215
-0.135
-0.09
-0.07
-0.105
-0.165
-0.245
-0.29
-0.32
-0.315
-0.285
-0.25
-0.225
-0.2
-0.205
-0.225
-0.255
-0.27
-0.28
-0.275
-0.28
-0.265
-0.27
-0.27
-0.26
-0.265
-0.245
-0.25
-0.245
-0.26
-0.265
-0.245
-0.235
-0.23
-0.245
-0.25
-0.245
-0.255
-0.255
-0.255
-0.255
-0.26
-0.28
-0.305
-0.32
-0.305
-0.28
-0.27
-0.21
-0.125
-0.03
0.065
0.15
0.215
0.295
0.39
0.49
0.59
0.665
0.73
0.755
0.725
0.675
0.595
0.49
0.32
0.075
-0.165
-0.32
-0.415
-0.49
-0.515
-0.495
-0.45
-0.43
-0.425
-0.41
-0.4
-0.36
-0.345
-0.35
-0.385
-0.4
-0.405
-0.385
-0.365
-0.36
-0.36
-0.36
-0.35
-0.335
-0.31
-0.285
-0.285
-0.29
-0.32
-0.31
-0.295
-0.305
-0.31
-0.335
-0.32
-0.3
-0.28
-0.26
-0.245
-0.265
-0.295
-0.305
-0.31
-0.31
-0.285
-0.28
-0.26
-0.23
-0.22
-0.23
-0.27
-0.31
-0.335
-0.34
-0.31
-0.28
-0.255
-0.235
-0.225
-0.22
-0.205
-0.195
-0.19
-0.21
-0.21
-0.2
-0.18
-0.17
-0.16
-0.175
-0.18
-0.165
-0.15
-0.115
-0.095
-0.1
-0.085
-0.09
-0.08
-0.07
-0.075
-0.08
-0.095
-0.085
-0.065
-0.055
-0.045
-0.045
-0.035
-0.025
-0.025
-0.015
-0.015
-0.01
-0.005
0.0
0.02
0.03
0.045
0.05
0.035
0.025
-0.035
-0.075
-0.1
-0.1
-0.1
-0.08
-0.06
-0.065
-0.065
-0.085
-0.105
-0.105
-0.105
-0.115
-0.11
-0.125
-0.135
-0.16
-0.165
-0.165
-0.165
-0.16
-0.135
-0.1
-0.09
-0.085
-0.095
-0.115
-0.115
-0.12
-0.12
-0.125
-0.135
-0.135
-0.16
-0.15
-0.15
-0.145
-0.14
-0.15
-0.155
-0.155
-0.155
-0.15
-0.145
-0.155
-0.165
-0.135
-0.105
-0.08
-0.09
-0.145
-0.225
-0.265
-0.29
-0.25
-0.225
-0.225
-0.225
-0.23
-0.215
-0.205
-0.2
-0.205
-0.215
-0.21
-0.195
-0.185
-0.175
-0.17
-0.175
-0.165
-0.16
-0.17
-0.19
-0.2
-0.205
-0.175
-0.155
-0.135
-0.14
-0.145
-0.16
-0.15
-0.14
-0.115
-0.115
-0.115
-0.115
-0.11
-0.1
-0.095
-0.1
-0.13
-0.145
-0.145
-0.14
-0.125
-0.115
-0.13
-0.14
-0.135
-0.125
-0.13
-0.13
-0.12
-0.115
-0.115
-0.135
-0.16
-0.18
-0.19
-0.195
-0.185
-0.17
-0.185
-0.175
-0.185
-0.21
-0.195
-0.19
-0.19
-0.195
-0.205
-0.21
-0.195
-0.2
-0.18
-0.175
-0.17
-0.185
-0.175
-0.165
-0.155
-0.175
-0.18
-0.18
-0.185
-0.195
-0.185
-0.17
-0.16
-0.155
-0.145
-0.155
-0.15
-0.16
-0.17
-0.18
-0.185
-0.175
-0.18
-0.2
-0.19
-0.165
-0.085
0.01
0.085
0.145
0.215
0.28
0.33
0.39
0.465
0.58
0.7
0.82
0.91
0.97
1.0
0.975
0.865
0.735
0.62
0.45
0.195
-0.095
-0.325
-0.465
-0.545
-0.575
-0.575
-0.56
-0.525
-0.505
-0.48
-0.465
-0.445
-0.425
-0.415
-0.41
-0.39
-0.385
-0.395
-0.405
-0.415
-0.425
-0.42
-0.415
-0.395
-0.38
-0.38
-0.37
-0.36
-0.35
-0.34
-0.345
-0.35
-0.355
-0.35
-0.345
-0.35
-0.35
-0.35
-0.355
-0.335
-0.345
-0.35
-0.355
-0.36
-0.345
-0.33
-0.3
-0.295
-0.305
-0.325
-0.36
-0.375
-0.38
-0.375
-0.345
-0.33
-0.31
-0.315
-0.305
-0.315
-0.325
-0.33
-0.34
-0.34
-0.355
-0.35
-0.355
-0.365
-0.36
-0.335
-0.31
-0.285
-0.29
-0.295
-0.285
-0.265
-0.26
-0.25
-0.25
-0.26
-0.29
-0.28
-0.25
-0.22
-0.2
-0.21
-0.21
-0.215
-0.215
-0.19
-0.195
-0.19
-0.205
-0.2
-0.19
-0.165
-0.145
-0.14
-0.145
-0.13
-0.09
-0.07
-0.04
-0.025
-0.02
-0.015
-0.035
-0.075
-0.125
-0.165
-0.195
-0.185
-0.15
-0.14
-0.135
-0.14
-0.145
-0.145
-0.155
-0.15
-0.14
-0.13
-0.14
-0.155
-0.16
-0.18
-0.185
-0.16
-0.155
-0.14
-0.145
-0.145
-0.135
-0.14
-0.155
-0.155
-0.17
-0.165
-0.185
-0.19
-0.205
-0.185
-0.175
-0.165
-0.165
-0.18
-0.17
-0.145
-0.13
-0.12
-0.145
-0.175
-0.2
-0.215
-0.22
-0.23
-0.255
-0.29
-0.305
-0.31
-0.3
-0.29
-0.29
-0.29
-0.305
-0.33
-0.35
-0.37
-0.37
-0.37
-0.355
-0.35
-0.33
-0.315
-0.29
-0.295
-0.305
-0.29
-0.285
-0.285
-0.3
-0.32
-0.31
-0.28
-0.27
-0.26
-0.26
-0.255
-0.23
-0.21
-0.2
-0.18
-0.19
-0.22
-0.23
-0.21
-0.17
-0.13
-0.11
-0.08
-0.105
-0.13
-0.16
-0.175
-0.19
-0.22
-0.245
-0.25
-0.26
-0.25
-0.245
-0.23
-0.225
-0.21
-0.205
-0.22
-0.235
-0.25
-0.245
-0.245
-0.23
-0.225
-0.22
-0.205
-0.225
-0.22
-0.19
-0.18
-0.2
-0.235
-0.265
-0.275
-0.265
-0.255
-0.255
-0.28
-0.28
-0.265
-0.23
-0.21
-0.19
-0.185
-0.205
-0.215
-0.245
-0.26
-0.27
-0.275
-0.27
-0.265
-0.25
-0.24
-0.24
-0.26
-0.29
-0.315
-0.305
-0.275
-0.215
-0.145
-0.06
0.035
0.105
0.17
0.255
0.365
0.495
0.64
0.765
0.875
0.965
1.035
1.015
0.955
0.835
0.665
0.36
0.02
-0.225
-0.34
-0.395
-0.425
-0.42
-0.41
-0.35
-0.31
-0.275
-0.27
-0.28
-0.31
-0.315
-0.315
-0.34
-0.345
-0.35
-0.365
-0.38
-0.385
-0.375
-0.37
-0.34
-0.32
-0.305
-0.31
-0.31
-0.32
-0.315
-0.325
-0.33
-0.315
-0.305
-0.3
-0.29
-0.28
-0.28
-0.265
-0.245
-0.25
-0.28
-0.325
-0.365
-0.365
-0.33
-0.315
-0.305
-0.305
-0.295
-0.27
-0.27
-0.25
-0.245
-0.255
-0.265
-0.27
-0.265
-0.26
-0.275
-0.28
-0.28
-0.265
-0.24
-0.23
-0.22
-0.22
-0.22
-0.2
-0.195
-0.19
-0.18
-0.18
-0.165
-0.145
-0.14
-0.14
-0.16
-0.18
-0.18
-0.155
-0.125
-0.12
-0.115
-0.115
-0.145
-0.135
-0.125
-0.1
-0.095
-0.08
-0.075
-0.06
-0.06
-0.055
-0.07
-0.08
-0.085
-0.09
-0.075
-0.07
-0.065
-0.075
-0.085
-0.095
-0.085
-0.075
-0.09
-0.09
-0.11
-0.105
-0.09
-0.095
-0.105
-0.13
-0.14
-0.13
-0.125
-0.115
-0.12
-0.13
-0.15
-0.145
-0.12
-0.115
-0.105
-0.125
-0.135
-0.15
-0.165
-0.18
-0.185
-0.19
-0.195
-0.195
-0.195
-0.185
-0.18
-0.175
-0.19
-0.195
-0.195
-0.215
-0.235
-0.235
-0.23
-0.205
-0.18
-0.175
-0.18
-0.21
-0.215
-0.205
-0.2
-0.185
-0.17
-0.18
-0.17
-0.155
-0.145
-0.13
-0.14
-0.165
-0.195
-0.2
-0.2
-0.19
-0.195
-0.195
-0.195
-0.195
-0.17
-0.155
-0.145
-0.145
-0.155
-0.165
-0.175
-0.195
-0.2
-0.215
-0.225
-0.225
-0.22
-0.225
-0.21
-0.22
-0.2
-0.19
-0.18
-0.185
-0.2
-0.195
-0.2
-0.18
-0.165
-0.17
-0.16
-0.165
-0.16
-0.14
-0.145
-0.14
-0.165
-0.175
-0.195
-0.2
-0.175
-0.175
-0.175
-0.2
-0.21
-0.225
-0.22
-0.195
-0.155
-0.09
-0.015
0.07
0.17
0.255
0.35
0.42
0.495
0.635
0.77
0.89
0.965
0.985
0.93
0.835
0.73
0.625
0.435
0.18
-0.05
-0.22
-0.35
-0.39
-0.38
-0.355
-0.34
-0.305
-0.285
-0.29
-0.285
-0.295
-0.305
-0.315
-0.33
-0.345
-0.345
-0.35
-0.36
-0.35
-0.34
-0.33
-0.305
-0.3
-0.29
-0.275
-0.29
-0.305
-0.295
-0.305
-0.305
-0.305
-0.29
-0.295
-0.295
-0.305
-0.3
-0.29
-0.27
-0.275
-0.28
-0.3
-0.29
-0.285
-0.28
-0.285
-0.285
-0.27
-0.285
-0.275
-0.26
-0.26
-0.24
-0.23
-0.24
-0.24
-0.215
-0.21
-0.22
-0.235
-0.24
-0.23
-0.215
-0.195
-0.19
-0.19
-0.21
-0.2
-0.19
-0.175
-0.18
-0.19
-0.165
-0.13
-0.105
-0.105
-0.1
-0.105
-0.11
-0.105
-0.095
-0.085
-0.095
-0.095
-0.075
-0.04
-0.04
-0.055
-0.055
-0.055
-0.06
-0.065
-0.05
-0.025
-0.055
-0.08
-0.13
-0.135
-0.11
-0.105
-0.13
-0.185
-0.245
-0.26
-0.245
-0.215
-0.205
-0.225
-0.235
-0.24
-0.24
-0.23
-0.205
-0.205
-0.225
-0.26
-0.265
-0.245
-0.23
-0.22
-0.205
-0.19
-0.185
-0.23
-0.29
-0.355
-0.4
-0.375
-0.34
-0.33
-0.34
-0.35
-0.36
-0.355
-0.365
-0.37
-0.37
-0.37
-0.36
-0.35
-0.365
-0.375
-0.39
-0.415
-0.435
-0.45
-0.42
-0.4
-0.385
-0.39
-0.4
-0.4
-0.36
-0.33
-0.32
-0.34
-0.375
-0.38
-0.415
-0.445
-0.47
-0.455
-0.435
-0.42
-0.41
-0.385
-0.365
-0.37
-0.385
-0.405
-0.405
-0.385
-0.365
-0.375
-0.38
-0.35
-0.28
-0.23
-0.24
-0.285
-0.36
-0.42
-0.43
-0.43
-0.37
-0.285
-0.23
-0.185
-0.19
-0.25
-0.345
-0.4
-0.37
-0.27
-0.225
-0.245
-0.29
-0.32
-0.335
-0.33
-0.3
-0.21
-0.125
-0.11
-0.205
-0.325
-0.425
-0.46
-0.435
-0.375
-0.32
-0.275
-0.27
-0.285
-0.28
-0.24
-0.15
-0.065
-0.085
-0.195
-0.35
-0.505
-0.58
-0.575
-0.495
-0.38
-0.275
-0.235
-0.295
-0.395
-0.47
-0.465
-0.415
-0.36
-0.34
-0.35
-0.385
-0.38
-0.3
-0.23
-0.21
-0.245
-0.31
-0.39
-0.405
-0.34
-0.225
-0.135
-0.125
-0.18
-0.25
-0.26
-0.145
0.05
0.28
0.455
0.6
0.7
0.77
0.785
0.735
0.675
0.62
0.48
0.18
-0.16
-0.42
-0.55
-0.63
-0.675
-0.675
-0.65
-0.605
-0.535
-0.48
-0.46
-0.5
-0.555
-0.56
-0.545
-0.475
-0.445
-0.47
-0.52
-0.52
-0.46
-0.38
-0.335
-0.32
-0.375
-0.44
-0.45
-0.43
-0.425
-0.45
-0.46
-0.43
-0.355
-0.3
-0.305
-0.34
-0.335
-0.27
-0.225
-0.255
-0.365
-0.505
-0.54
-0.49
-0.375
-0.265
-0.225
-0.27
-0.36
-0.445
-0.51
-0.48
-0.405
-0.295
-0.2
-0.16
-0.145
-0.19
-0.22
-0.255
-0.31
-0.405
-0.43
-0.38
-0.32
-0.295
-0.295
-0.295
-0.28
-0.235
-0.175
-0.19
-0.28
-0.385
-0.385
-0.32
-0.225
-0.2
-0.25
-0.31
-0.34
-0.335
-0.265
-0.175
-0.175
-0.235
-0.28
-0.265
-0.25
-0.255
-0.255
-0.235
-0.185
-0.105
-0.045
-0.025
-0.01
0.055
0.13
0.155
0.125
0.045
-0.08
-0.185
-0.13
-0.01
0.005
-0.145
-0.32
-0.365
-0.23
-0.11
-0.145
-0.275
-0.38
-0.42
-0.405
-0.38
-0.355
-0.315
-0.29
-0.285
-0.265
-0.24
-0.215
-0.22
-0.24
-0.28
-0.305
-0.31
-0.28
-0.215
-0.17
-0.15
-0.17
-0.195
-0.195
-0.215
-0.245
-0.305
-0.365
-0.415
-0.405
-0.375
-0.275
-0.18
-0.145
-0.245
-0.395
-0.47
-0.405
-0.285
-0.24
-0.3
-0.38
-0.355
-0.25
-0.195
-0.19
-0.185
-0.175
-0.165
-0.215
-0.225
-0.15
-0.05
0.03
0.045
0.045
0.075
0.125
0.17
0.165
0.12
0.06
0.015
-0.03
-0.075
-0.095
-0.13
-0.245
-0.59
-1.06
-1.485
-1.73
-1.87
-1.995
-2.13
-2.235
-2.25
-2.2
-2.115
-1.96
-1.815
-1.73
-1.695
-1.64
-1.525
-1.395
-1.325
-1.32
-1.32
-1.28
-1.215
-1.145
-1.105
-1.035
-0.935
-0.84
-0.77
-0.76
-0.765
-0.725
-0.64
-0.535
-0.46
-0.455
-0.47
-0.485
-0.45
-0.4
-0.305
-0.215
-0.145
-0.075
-0.005
0.015
0.015
-0.02
-0.04
0.01
0.085
0.07
-0.05
-0.16
-0.165
-0.07
0.085
0.24
0.285
0.24
0.15
0.075
0.055
0.075
0.15
0.255
0.325
0.34
0.355
0.42
0.495
0.53
0.48
0.36
0.26
0.225
0.24
0.3
0.35
0.42
0.455
0.475
0.495
0.535
0.57
0.6
0.56
0.475
0.43
0.42
0.43
0.435
0.435
0.43
0.43
0.435
0.45
0.425
0.4
0.38
0.345
0.315
0.325
0.33
0.3
0.28
0.275
0.275
0.285
0.275
0.27
0.25
0.225
0.195
0.165
0.14
0.125
0.095
0.035
0.0
-0.03
-0.05
-0.075
-0.1
-0.1
-0.12
-0.145
-0.165
-0.17
-0.195
-0.225
-0.245
-0.245
-0.235
-0.235
-0.26
-0.295
-0.325
-0.335
-0.32
-0.295
-0.285
-0.305
-0.315
-0.335
-0.345
-0.355
-0.35
-0.35
-0.345
-0.315
-0.3
-0.29
-0.32
-0.355
-0.375
-0.385
-0.39
-0.385
-0.375
-0.385
-0.37
-0.325
-0.245
-0.205
-0.2
-0.21
-0.24
-0.285
-0.285
-0.26
-0.25
-0.265
-0.28
-0.29
-0.285
-0.275
-0.26
-0.26
-0.28
-0.305
-0.33
-0.345
-0.345
-0.34
-0.335
-0.35
-0.375
-0.395
-0.41
-0.45
-0.45
-0.385
-0.315
-0.3
-0.32
-0.34
-0.355
-0.345
-0.355
-0.375
-0.38
-0.38
-0.345
-0.325
-0.325
-0.35
-0.405
-0.445
-0.425
-0.375
-0.37
-0.395
-0.415
-0.415
-0.42
-0.42
-0.415
-0.415
-0.385
-0.36
-0.345
-0.305
-0.295
-0.3
-0.32
-0.33
-0.34
-0.365
-0.395
-0.38
-0.36
-0.355
-0.37
-0.405
-0.395
-0.36
-0.325
-0.3
-0.305
-0.305
-0.335
-0.365
-0.345
-0.325
-0.305
-0.3
-0.3
-0.32
-0.345
-0.345
-0.325
-0.31
-0.295
-0.3
-0.32
-0.34
-0.34
-0.32
-0.305
-0.295
-0.3
-0.31
-0.31
-0.335
-0.345
-0.355
-0.38
-0.41
-0.425
-0.395
-0.375
-0.385
-0.4
-0.405
-0.38
-0.36
-0.355
-0.35
-0.345
-0.345
-0.35
-0.36
-0.385
-0.39
-0.39
-0.39
-0.37
-0.34
-0.33
-0.34
-0.36
-0.375
-0.365
-0.36
-0.38
-0.415
-0.435
-0.435
-0.445
-0.45
-0.415
-0.37
-0.34
-0.34
-0.355
-0.38
-0.38
-0.385
-0.37
-0.355
-0.355
-0.36
-0.345
-0.325
-0.315
-0.32
-0.32
-0.31
-0.28
-0.24
-0.185
-0.105
-0.015
0.08
0.165
0.255
0.32
0.425
0.525
0.64
0.775
0.905
0.965
0.915
0.835
0.745
0.605
0.335
-0.075
-0.415
-0.63
-0.67
-0.655
-0.595
-0.535
-0.49
-0.465
-0.48
-0.505
-0.515
-0.49
-0.455
-0.435
-0.43
-0.43
-0.435
-0.445
-0.445
-0.45
-0.44
-0.435
-0.435
-0.425
-0.45
-0.45
-0.435
-0.415
-0.4
-0.405
-0.415
-0.415
-0.405
-0.42
-0.415
-0.41
-0.405
-0.4
-0.39
-0.36
-0.375
-0.415
-0.415
-0.365
-0.35
-0.355
-0.35
-0.34
-0.35
-0.37
-0.385
-0.39
-0.375
-0.345
-0.34
-0.335
-0.36
-0.4
-0.43
-0.425
-0.395
-0.365
-0.325
-0.325
-0.33
-0.335
-0.36
-0.39
-0.39
-0.365
-0.31
-0.255
-0.25
-0.26
-0.275
-0.3
-0.315
-0.325
-0.325
-0.34
-0.35
-0.34
-0.34
-0.34
-0.35
-0.34
-0.31
-0.265
-0.255
-0.245
-0.23
-0.2
-0.195
-0.22
-0.285
-0.325
-0.32
-0.245
-0.175
-0.15
-0.15
-0.185
-0.195
-0.18
-0.155
-0.13
-0.13
-0.135
-0.155
-0.175
-0.215
-0.22
