Lead II
-0.22
-0.225
-0.215
-0.205
-0.21
-0.215
-0.22
-0.235
-0.225
-0.215
-0.21
-0.225
-0.235
-0.235
-0.225
-0.22
-0.225
-0.23
-0.24
-0.24
-0.235
-0.23
-0.225
-0.23
-0.23
-0.235
-0.23
-0.23
-0.235
-0.235
-0.24
-0.245
-0.235
-0.235
-0.23
-0.235
-0.245
-0.25
-0.235
-0.225
-0.23
-0.235
-0.255
-0.25
-0.235
-0.235
-0.225
-0.235
-0.235
-0.25
-0.25
-0.23
-0.23
-0.225
-0.245
-0.24
-0.23
-0.24
-0.225
-0.235
-0.24
-0.245
-0.255
-0.235
-0.23
-0.24
-0.24
-0.25
-0.245
-0.235
-0.235
-0.23
-0.245
-0.255
-0.24
-0.235
-0.235
-0.235
-0.24
-0.25
-0.245
-0.245
-0.24
-0.24
-0.255
-0.25
-0.24
-0.245
-0.235
-0.245
-0.25
-0.255
-0.245
-0.23
-0.235
-0.24
-0.25
-0.26
-0.25
-0.235
-0.235
-0.23
-0.24
-0.25
-0.235
-0.235
-0.24
-0.25
-0.245
-0.25
-0.245
-0.24
-0.24
-0.24
-0.255
-0.26
-0.24
-0.24
-0.245
-0.24
-0.25
-0.255
-0.245
-0.25
-0.245
-0.25
-0.245
-0.245
-0.25
-0.24
-0.245
-0.25
-0.245
-0.255
-0.235
-0.24
-0.23
-0.245
-0.25
-0.25
-0.23
-0.235
-0.235
-0.23
-0.25
-0.245
-0.245
-0.24
-0.235
-0.24
-0.24
-0.24
-0.23
-0.22
-0.215
-0.21
-0.205
-0.19
-0.185
-0.17
-0.17
-0.16
-0.155
-0.15
-0.135
-0.135
-0.125
-0.115
-0.125
-0.12
-0.125
-0.12
-0.125
-0.145
-0.15
-0.16
-0.16
-0.165
-0.165
-0.18
-0.205
-0.21
-0.215
-0.22
-0.23
-0.23
-0.25
-0.255
-0.245
-0.25
-0.255
-0.26
-0.26
-0.255
-0.245
-0.25
-0.26
-0.25
-0.27
-0.27
-0.265
-0.25
-0.255
-0.255
-0.265
-0.265
-0.255
-0.25
-0.25
-0.26
-0.265
-0.26
-0.25
-0.24
-0.225
-0.215
-0.2
-0.19
-0.185
-0.16
-0.115
-0.04
0.05
0.175
0.315
0.46
0.59
0.71
0.835
0.94
0.965
0.84
0.63
0.36
0.125
-0.045
-0.175
-0.28
-0.34
-0.335
-0.28
-0.24
-0.21
-0.215
-0.23
-0.245
-0.255
-0.275
-0.275
-0.26
-0.255
-0.27
-0.28
-0.285
-0.275
-0.27
-0.275
-0.27
-0.275
-0.275
-0.26
-0.265
-0.255
-0.255
-0.265
-0.27
-0.265
-0.255
-0.245
-0.255
-0.26
-0.25
-0.24
-0.23
-0.225
-0.235
-0.24
-0.235
-0.23
-0.225
-0.22
-0.225
-0.23
-0.225
-0.215
-0.22
-0.2
-0.2
-0.205
-0.21
-0.2
-0.185
-0.175
-0.175
-0.18
-0.18
-0.16
-0.145
-0.16
-0.15
-0.15
-0.15
-0.14
-0.13
-0.115
-0.115
-0.12
-0.105
-0.09
-0.08
-0.07
-0.065
-0.06
-0.065
-0.05
-0.035
-0.025
-0.02
-0.03
-0.025
-0.01
0.0
0.0
0.005
0.01
0.0
0.02
0.025
0.035
0.025
0.015
0.005
0.015
0.025
0.01
0.0
-0.01
-0.02
-0.04
-0.03
-0.045
-0.06
-0.08
-0.09
-0.085
-0.09
-0.105
-0.115
-0.145
-0.155
-0.15
-0.155
-0.16
-0.17
-0.18
-0.195
-0.175
-0.19
-0.18
-0.185
-0.19
-0.195
-0.2
-0.185
-0.195
-0.205
-0.21
-0.2
-0.205
-0.2
-0.2
-0.2
-0.21
-0.215
-0.21
-0.195
-0.195
-0.205
-0.205
-0.2
-0.2
-0.195
-0.2
-0.2
-0.205
-0.21
-0.2
-0.19
-0.195
-0.2
-0.215
-0.215
-0.215
-0.195
-0.195
-0.205
-0.2
-0.21
-0.21
-0.2
-0.195
-0.205
-0.205
-0.21
-0.2
-0.195
-0.2
-0.205
-0.205
-0.215
-0.205
-0.2
-0.205
-0.21
-0.215
-0.21
-0.21
-0.205
-0.21
-0.215
-0.225
-0.225
-0.215
-0.21
-0.215
-0.225
-0.215
-0.22
-0.215
-0.21
-0.21
-0.215
-0.22
-0.23
-0.225
-0.22
-0.215
-0.22
-0.23
-0.23
-0.23
-0.225
-0.22
-0.23
-0.225
-0.24
-0.235
-0.23
-0.23
-0.24
-0.245
-0.24
-0.235
-0.235
-0.235
-0.245
-0.245
-0.24
-0.235
-0.235
-0.235
-0.24
-0.245
-0.265
-0.245
-0.24
-0.235
-0.245
-0.26
-0.26
-0.245
-0.235
-0.245
-0.245
-0.255
-0.245
-0.24
-0.23
-0.235
-0.235
-0.245
-0.245
-0.23
-0.23
-0.225
-0.23
-0.24
-0.245
-0.24
-0.235
-0.23
-0.235
-0.245
-0.25
-0.23
-0.22
-0.23
-0.235
-0.235
-0.245
-0.25
-0.24
-0.23
-0.235
-0.245
-0.245
-0.225
-0.235
-0.23
-0.235
-0.255
-0.25
-0.245
-0.23
-0.225
-0.225
-0.225
-0.235
-0.225
-0.225
-0.23
-0.23
-0.235
-0.235
-0.235
-0.22
-0.22
-0.235
-0.24
-0.24
-0.23
-0.225
-0.23
-0.23
-0.24
-0.24
-0.225
-0.225
-0.22
-0.225
-0.23
-0.235
-0.22
-0.215
-0.215
-0.215
-0.235
-0.23
-0.22
-0.21
-0.215
-0.22
-0.22
-0.23
-0.215
-0.205
-0.21
-0.215
-0.215
-0.225
-0.21
-0.205
-0.2
-0.21
-0.21
-0.22
-0.2
-0.18
-0.175
-0.165
-0.165
-0.165
-0.16
-0.14
-0.13
-0.115
-0.11
-0.115
-0.115
-0.11
-0.11
-0.11
-0.1
-0.1
-0.1
-0.11
-0.115
-0.12
-0.13
-0.14
-0.135
-0.125
-0.135
-0.145
-0.15
-0.175
-0.175
-0.185
-0.205
-0.22
-0.235
-0.24
-0.23
-0.225
-0.225
-0.24
-0.245
-0.25
-0.235
-0.23
-0.23
-0.245
-0.25
-0.245
-0.24
-0.235
-0.24
-0.24
-0.245
-0.25
-0.235
-0.235
-0.235
-0.245
-0.245
-0.245
-0.23
-0.225
-0.23
-0.22
-0.23
-0.21
-0.195
-0.17
-0.165
-0.16
-0.16
-0.12
-0.03
0.055
0.145
0.25
0.35
0.455
0.555
0.66
0.76
0.82
0.825
0.715
0.585
0.425
0.245
0.085
-0.045
-0.145
-0.205
-0.25
-0.25
-0.225
-0.19
-0.19
-0.19
-0.2
-0.21
-0.22
-0.24
-0.25
-0.245
-0.245
-0.245
-0.26
-0.265
-0.26
-0.255
-0.25
-0.25
-0.25
-0.26
-0.27
-0.25
-0.24
-0.25
-0.245
-0.255
-0.255
-0.245
-0.235
-0.235
-0.24
-0.24
-0.24
-0.24
-0.235
-0.22
-0.225
-0.235
-0.235
-0.24
-0.22
-0.21
-0.22
-0.225
-0.215
-0.21
-0.2
-0.2
-0.2
-0.205
-0.21
-0.195
-0.18
-0.185
-0.18
-0.19
-0.185
-0.18
-0.16
-0.155
-0.155
-0.155
-0.16
-0.145
-0.135
-0.135
-0.125
-0.13
-0.13
-0.115
-0.095
-0.1
-0.11
-0.09
-0.085
-0.075
-0.065
-0.06
-0.055
-0.055
-0.045
-0.035
-0.025
-0.015
-0.015
-0.03
-0.015
0.0
0.01
0.025
0.015
0.01
0.01
0.035
0.03
0.045
0.03
0.015
0.01
0.015
0.015
0.005
-0.01
-0.025
-0.035
-0.045
-0.045
-0.065
-0.075
-0.09
-0.1
-0.1
-0.105
-0.115
-0.125
-0.145
-0.155
-0.155
-0.14
-0.145
-0.165
-0.17
-0.17
-0.165
-0.16
-0.16
-0.16
-0.175
-0.19
-0.185
-0.175
-0.175
-0.175
-0.18
-0.19
-0.19
-0.175
-0.17
-0.185
-0.19
-0.185
-0.185
-0.185
-0.19
-0.19
-0.21
-0.205
-0.2
-0.18
-0.185
-0.19
-0.195
-0.2
-0.2
-0.18
-0.18
-0.185
-0.2
-0.2
-0.195
-0.19
-0.18
-0.185
-0.2
-0.205
-0.195
-0.185
-0.19
-0.195
-0.19
-0.2
-0.185
-0.185
-0.185
-0.195
-0.19
-0.2
-0.195
-0.19
-0.195
-0.195
-0.195
-0.21
-0.19
-0.185
-0.195
-0.2
-0.21
-0.21
-0.2
-0.185
-0.19
-0.19
-0.205
-0.205
-0.2
-0.195
-0.2
-0.2
-0.205
-0.205
-0.215
-0.205
-0.21
-0.2
-0.205
-0.215
-0.21
-0.2
-0.2
-0.195
-0.215
-0.215
-0.22
-0.21
-0.2
-0.21
-0.215
-0.215
-0.205
-0.2
-0.21
-0.205
-0.22
-0.215
-0.22
-0.215
-0.21
-0.225
-0.225
-0.22
-0.225
-0.215
-0.21
-0.215
-0.225
-0.225
-0.215
-0.22
-0.225
-0.23
-0.235
-0.225
-0.225
-0.22
-0.225
-0.23
-0.235
-0.23
-0.22
-0.23
-0.225
-0.23
-0.235
-0.24
-0.23
-0.225
-0.225
-0.235
-0.23
-0.235
-0.235
-0.235
-0.225
-0.23
-0.235
-0.23
-0.225
-0.215
-0.215
-0.225
-0.235
-0.235
-0.225
-0.215
-0.215
-0.225
-0.23
-0.235
-0.225
-0.22
-0.225
-0.225
-0.235
-0.23
-0.225
-0.215
-0.215
-0.225
-0.23
-0.235
-0.225
-0.21
-0.215
-0.22
-0.235
-0.23
-0.225
-0.21
-0.21
-0.215
-0.225
-0.235
-0.23
-0.215
-0.22
-0.225
-0.22
-0.225
-0.22
-0.215
-0.215
-0.215
-0.23
-0.23
-0.22
-0.215
-0.21
-0.22
-0.225
-0.22
-0.215
-0.205
-0.205
-0.225
-0.235
-0.23
-0.225
-0.21
-0.21
-0.21
-0.22
-0.225
-0.22
-0.215
-0.215
-0.215
-0.225
-0.225
-0.215
-0.205
-0.21
-0.21
-0.225
-0.22
-0.21
-0.205
-0.2
-0.2
-0.21
-0.2
-0.185
-0.17
-0.17
-0.17
-0.165
-0.165
-0.145
-0.13
-0.13
-0.13
-0.13
-0.135
-0.12
-0.11
-0.11
-0.105
-0.1
-0.1
-0.095
-0.09
-0.11
-0.12
-0.135
-0.135
-0.13
-0.125
-0.135
-0.15
-0.165
-0.18
-0.175
-0.175
-0.18
-0.205
-0.21
-0.22
-0.215
-0.215
-0.215
-0.22
-0.235
-0.23
-0.23
-0.22
-0.22
-0.23
-0.24
-0.245
-0.24
-0.23
-0.235
-0.23
-0.235
-0.235
-0.23
-0.22
-0.22
-0.225
-0.23
-0.23
-0.23
-0.215
-0.225
-0.225
-0.235
-0.23
-0.225
-0.205
-0.205
-0.205
-0.195
-0.175
-0.155
-0.145
-0.14
-0.115
-0.065
0.015
0.12
0.225
0.35
0.465
0.55
0.625
0.745
0.855
0.935
0.935
0.865
0.73
0.545
0.355
0.18
0.035
-0.09
-0.195
-0.275
-0.305
-0.295
-0.255
-0.215
-0.21
-0.21
-0.205
-0.215
-0.225
-0.25
-0.255
-0.26
-0.245
-0.25
-0.255
-0.265
-0.27
-0.26
-0.255
-0.255
-0.26
-0.265
-0.265
-0.255
-0.245
-0.25
-0.255
-0.255
-0.26
-0.245
-0.24
-0.24
-0.24
-0.235
-0.24
-0.235
-0.23
-0.23
-0.235
-0.235
-0.23
-0.225
-0.21
-0.21
-0.215
-0.215
-0.215
-0.21
-0.2
-0.21
-0.21
-0.215
-0.215
-0.205
-0.185
-0.185
-0.19
-0.195
-0.195
-0.18
-0.175
-0.16
-0.16
-0.165
-0.165
-0.145
-0.135
-0.13
-0.13
-0.135
-0.13
-0.115
-0.105
-0.095
-0.095
-0.11
-0.09
-0.08
-0.055
-0.05
-0.05
-0.055
-0.055
-0.03
-0.02
-0.015
-0.005
-0.005
-0.005
0.0
0.02
0.02
0.02
0.02
0.03
0.025
0.045
0.03
0.025
0.02
0.01
0.01
0.01
0.005
-0.01
-0.025
-0.035
-0.04
-0.04
-0.05
-0.075
-0.085
-0.1
-0.095
-0.095
-0.105
-0.135
-0.125
-0.14
-0.135
-0.135
-0.14
-0.14
-0.165
-0.17
-0.155
-0.145
-0.15
-0.16
-0.165
-0.16
-0.155
-0.16
-0.155
-0.17
-0.175
-0.175
-0.165
-0.16
-0.165
-0.165
-0.17
-0.16
-0.16
-0.155
-0.155
-0.16
-0.17
-0.18
-0.17
-0.155
-0.155
-0.165
-0.17
-0.175
-0.16
-0.15
-0.16
-0.16
-0.17
-0.17
-0.16
-0.16
-0.155
-0.165
-0.17
-0.175
-0.165
-0.155
-0.155
-0.16
-0.17
-0.18
-0.165
-0.16
-0.155
-0.165
-0.17
-0.165
-0.16
-0.155
-0.16
-0.175
-0.18
-0.18
-0.17
-0.17
-0.175
-0.18
-0.19
-0.195
-0.195
-0.18
-0.175
-0.185
-0.195
-0.2
-0.19
-0.18
-0.175
-0.18
-0.19
-0.19
-0.2
-0.19
-0.19
-0.19
-0.205
-0.2
-0.185
-0.18
-0.18
-0.185
-0.195
-0.2
-0.2
-0.185
-0.185
-0.19
-0.195
-0.2
-0.195
-0.18
-0.18
-0.18
-0.185
-0.2
-0.185
-0.18
-0.18
-0.185
-0.195
-0.205
-0.19
-0.185
-0.18
-0.19
-0.185
-0.195
-0.19
-0.18
-0.185
-0.19
-0.195
-0.19
-0.185
-0.165
-0.18
-0.195
-0.195
-0.19
-0.18
-0.175
-0.17
-0.185
-0.195
-0.19
-0.19
-0.175
-0.175
-0.185
-0.185
-0.18
-0.185
-0.185
-0.185
-0.18
-0.19
-0.195
-0.18
-0.18
-0.18
-0.175
-0.18
-0.17
-0.18
-0.175
-0.17
-0.165
-0.175
-0.17
-0.16
-0.155
-0.165
-0.175
-0.18
-0.19
-0.185
-0.175
-0.16
-0.17
-0.185
-0.175
-0.165
-0.16
-0.165
-0.17
-0.17
-0.175
-0.17
-0.155
-0.165
-0.175
-0.175
-0.175
-0.17
-0.17
-0.165
-0.17
-0.17
-0.17
-0.16
-0.155
-0.155
-0.155
-0.165
-0.175
-0.17
-0.155
-0.155
-0.165
-0.175
-0.17
-0.17
-0.155
-0.155
-0.155
-0.175
-0.17
-0.16
-0.15
-0.15
-0.155
-0.16
-0.16
-0.16
-0.155
-0.15
-0.16
-0.16
-0.155
-0.145
-0.13
-0.12
-0.11
-0.11
-0.1
-0.1
-0.085
-0.075
-0.075
-0.07
-0.065
-0.055
-0.045
-0.04
-0.06
-0.06
-0.06
-0.04
-0.03
-0.045
-0.07
-0.075
-0.08
-0.07
-0.07
-0.09
-0.09
-0.1
-0.1
-0.11
-0.11
-0.125
-0.135
-0.16
-0.165
-0.165
-0.165
-0.165
-0.17
-0.19
-0.195
-0.185
-0.18
-0.185
-0.185
-0.19
-0.19
-0.185
-0.17
-0.175
-0.175
-0.185
-0.19
-0.175
-0.17
-0.17
-0.17
-0.185
-0.18
-0.18
-0.17
-0.17
-0.175
-0.18
-0.175
-0.165
-0.145
-0.135
-0.115
-0.11
-0.105
-0.085
-0.02
0.05
0.135
0.23
0.335
0.455
0.565
0.655
0.745
0.835
0.875
0.835
0.715
0.545
0.365
0.195
0.045
-0.045
-0.115
-0.165
-0.185
-0.175
-0.14
-0.12
-0.115
-0.135
-0.16
-0.18
-0.195
-0.19
-0.18
-0.19
-0.2
-0.21
-0.21
-0.2
-0.18
-0.18
-0.19
-0.2
-0.195
-0.19
-0.175
-0.175
-0.185
-0.19
-0.19
-0.175
-0.17
-0.175
-0.175
-0.19
-0.18
-0.17
-0.165
-0.16
-0.165
-0.175
-0.175
-0.16
-0.155
-0.15
-0.155
-0.175
-0.17
-0.155
-0.145
-0.15
-0.15
-0.15
-0.15
-0.145
-0.135
-0.135
-0.135
-0.14
-0.135
-0.13
-0.11
-0.12
-0.12
-0.125
-0.12
-0.11
-0.095
-0.085
-0.09
-0.095
-0.085
-0.07
-0.065
-0.055
-0.055
-0.05
-0.05
-0.035
-0.015
-0.015
-0.005
-0.005
-0.01
0.01
0.01
0.025
0.025
0.025
0.025
0.035
0.055
0.06
0.05
0.05
0.045
0.04
0.055
0.05
0.035
0.03
0.01
0.015
0.02
0.01
-0.015
-0.03
-0.04
-0.04
-0.045
-0.06
-0.07
-0.09
-0.105
-0.11
-0.1
-0.115
-0.125
-0.14
-0.145
-0.135
-0.135
-0.14
-0.15
-0.165
-0.17
-0.16
-0.145
-0.16
-0.17
-0.18
-0.185
-0.165
-0.16
-0.165
-0.17
-0.18
-0.18
-0.18
-0.165
-0.165
-0.17
-0.185
-0.19
-0.18
-0.175
-0.175
-0.18
-0.18
-0.18
-0.17
-0.175
-0.18
-0.185
-0.195
-0.195
-0.195
-0.175
-0.19
-0.185
-0.19
-0.195
-0.19
-0.18
-0.18
-0.185
-0.205
-0.205
-0.19
-0.195
-0.19
-0.2
-0.2
-0.2
-0.195
-0.19
-0.195
-0.185
-0.21
-0.21
-0.19
-0.185
-0.19
-0.2
-0.205
-0.2
-0.195
-0.195
-0.205
-0.21
-0.22
-0.215
-0.21
-0.205
-0.21
-0.205
-0.21
-0.225
-0.22
-0.205
-0.205
-0.215
-0.23
-0.22
-0.22
-0.22
-0.22
-0.22
-0.23
-0.23
-0.22
-0.205
-0.21
-0.22
-0.22
-0.225
-0.205
-0.21
-0.215
-0.22
-0.235
-0.225
-0.215
-0.21
-0.215
-0.23
-0.24
-0.245
-0.23
-0.22
-0.22
-0.23
-0.235
-0.235
-0.235
-0.225
-0.23
-0.235
-0.23
-0.235
-0.23
-0.22
-0.225
-0.23
-0.235
-0.24
-0.23
-0.22
-0.23
-0.225
-0.24
-0.245
-0.235
-0.225
-0.225
-0.22
-0.235
-0.235
-0.225
-0.22
-0.225
-0.23
-0.24
-0.23
-0.23
-0.22
-0.225
-0.225
-0.24
-0.23
-0.225
-0.215
-0.23
-0.225
-0.23
-0.225
-0.23
-0.22
-0.225
-0.225
-0.235
-0.24
-0.235
-0.225
-0.22
-0.23
-0.24
-0.235
-0.235
-0.215
-0.22
-0.23
-0.235
-0.24
-0.23
-0.225
-0.225
-0.235
-0.245
-0.235
-0.23
-0.215
-0.215
-0.22
-0.23
-0.225
-0.215
-0.2
-0.21
-0.19
-0.185
-0.155
-0.13
-0.085
-0.045
-0.005
0.015
0.055
0.095
0.13
0.115
0.07
-0.005
-0.09
-0.21
-0.32
-0.47
-0.635
-0.78
-0.845
-0.805
-0.74
-0.71
-0.685
-0.655
-0.645
-0.625
-0.59
-0.585
-0.58
-0.56
-0.535
-0.51
-0.485
-0.485
-0.495
-0.52
-0.535
-0.53
-0.515
-0.505
-0.48
-0.445
-0.36
-0.27
-0.185
-0.13
-0.1
-0.1
-0.11
-0.105
-0.085
-0.09
-0.09
-0.105
-0.11
-0.105
-0.1
-0.105
-0.11
-0.125
-0.13
-0.115
-0.11
-0.115
-0.12
-0.13
-0.145
-0.12
-0.11
-0.11
-0.115
-0.12
-0.11
-0.095
-0.08
-0.085
-0.085
-0.075
-0.065
-0.05
-0.04
-0.025
-0.03
-0.025
-0.02
0.005
0.02
0.025
0.03
0.04
0.055
0.085
0.115
0.125
0.13
0.15
0.16
0.185
0.21
0.22
0.235
0.265
0.275
0.315
0.345
0.365
0.375
0.395
0.415
0.445
0.465
0.485
0.485
0.495
0.5
0.52
0.525
0.515
0.515
0.505
0.5
0.49
0.485
0.455
0.43
0.4
0.375
0.355
0.335
0.305
0.26
0.23
0.19
0.17
0.145
0.11
0.08
0.03
-0.005
-0.01
-0.03
-0.06
-0.1
-0.11
-0.125
-0.13
-0.135
-0.145
-0.165
-0.18
-0.185
-0.185
-0.18
-0.195
-0.2
-0.21
-0.215
-0.21
-0.215
-0.215
-0.22
-0.235
-0.235
-0.225
-0.22
-0.22
-0.23
-0.24
-0.24
-0.235
-0.22
-0.22
-0.215
-0.23
-0.225
-0.22
-0.215
-0.22
-0.22
-0.235
-0.23
-0.225
-0.21
-0.22
-0.22
-0.23
-0.225
-0.225
-0.21
-0.215
-0.225
-0.23
-0.23
-0.23
-0.225
-0.21
-0.22
-0.235
-0.24
-0.22
-0.22
-0.23
-0.235
-0.235
-0.23
-0.225
-0.225
-0.225
-0.24
-0.245
-0.25
-0.235
-0.225
-0.23
-0.235
-0.24
-0.24
-0.245
-0.23
-0.235
-0.255
-0.25
-0.255
-0.25
-0.23
-0.25
-0.245
-0.26
-0.26
-0.245
-0.235
-0.255
-0.255
-0.25
-0.255
-0.25
-0.245
-0.245
-0.26
-0.27
-0.27
-0.26
-0.25
-0.255
-0.26
-0.27
-0.27
-0.265
-0.25
-0.255
-0.245
-0.255
-0.265
-0.24
-0.245
-0.24
-0.255
-0.26
-0.26
-0.245
-0.25
-0.26
-0.26
-0.26
-0.265
-0.26
-0.24
-0.245
-0.26
-0.255
-0.255
-0.255
-0.255
-0.245
-0.26
-0.265
-0.27
-0.265
-0.255
-0.25
-0.265
-0.26
-0.265
-0.26
-0.24
-0.255
-0.265
-0.275
-0.26
-0.25
-0.24
-0.245
-0.25
-0.255
-0.26
-0.255
-0.24
-0.25
-0.26
-0.265
-0.27
-0.26
-0.255
-0.26
-0.26
-0.27
-0.26
-0.26
-0.235
-0.245
-0.25
-0.255
-0.255
-0.25
-0.25
-0.245
-0.25
-0.255
-0.245
-0.245
-0.235
-0.235
-0.245
-0.255
-0.245
-0.24
-0.235
-0.235
-0.245
-0.26
-0.255
-0.245
-0.245
-0.24
-0.25
-0.26
-0.255
-0.24
-0.235
-0.23
-0.235
-0.24
-0.245
-0.24
-0.235
-0.235
-0.245
-0.255
-0.245
-0.235
-0.225
-0.23
-0.235
-0.24
-0.25
-0.245
-0.23
-0.24
-0.24
-0.25
-0.245
-0.245
-0.23
-0.23
-0.24
-0.25
-0.235
-0.245
-0.235
-0.225
-0.235
-0.245
-0.245
-0.225
-0.22
-0.225
-0.23
-0.235
-0.235
-0.23
-0.22
-0.235
-0.235
-0.24
-0.235
-0.23
-0.22
-0.225
-0.24
-0.24
-0.24
-0.235
-0.23
-0.24
-0.25
-0.25
-0.24
-0.24
-0.225
-0.23
-0.245
-0.25
-0.24
-0.24
-0.24
-0.24
-0.25
-0.245
-0.235
-0.22
-0.225
-0.24
-0.235
-0.235
-0.24
-0.235
-0.225
-0.22
-0.23
-0.23
-0.235
-0.24
-0.225
-0.225
-0.22
-0.23
-0.235
-0.235
-0.215
-0.215
-0.22
-0.235
-0.235
-0.225
-0.22
-0.22
-0.225
-0.23
-0.23
-0.215
-0.205
-0.205
-0.215
-0.2
-0.19
-0.17
-0.15
-0.145
-0.165
-0.165
-0.165
-0.14
-0.115
-0.115
-0.12
-0.14
-0.13
-0.12
-0.1
-0.1
-0.11
-0.12
-0.13
-0.13
-0.125
-0.125
-0.145
-0.15
-0.16
-0.15
-0.15
-0.165
-0.185
-0.21
-0.21
-0.215
-0.225
-0.225
-0.235
-0.245
-0.245
-0.235
-0.235
-0.24
-0.24
-0.25
-0.245
-0.235
-0.23
-0.225
-0.23
-0.24
-0.25
-0.235
-0.225
-0.23
-0.24
-0.24
-0.24
-0.23
-0.22
-0.22
-0.235
-0.24
-0.225
-0.205
-0.18
-0.165
-0.15
-0.145
-0.09
0.01
0.125
0.23
0.355
0.47
0.555
0.665
0.76
0.82
0.78
0.65
0.465
0.265
0.105
-0.04
-0.15
-0.225
-0.255
-0.24
-0.195
-0.175
-0.19
-0.2
-0.21
-0.22
-0.215
-0.225
-0.245
-0.245
-0.255
-0.245
-0.245
-0.25
-0.26
-0.25
-0.26
-0.255
-0.245
-0.24
-0.25
-0.255
-0.25
-0.245
-0.24
-0.235
-0.245
-0.25
-0.245
-0.245
-0.23
-0.235
-0.25
-0.24
-0.245
-0.235
-0.225
-0.225
-0.23
-0.235
-0.23
-0.215
-0.21
-0.205
-0.21
-0.21
-0.21
-0.195
-0.185
-0.185
-0.185
-0.19
-0.175
-0.16
-0.145
-0.16
-0.16
-0.18
-0.18
-0.16
-0.14
-0.12
-0.115
-0.135
-0.13
-0.125
-0.12
-0.11
-0.125
-0.135
-0.12
-0.115
-0.095
-0.09
-0.09
-0.1
-0.07
-0.05
-0.035
-0.025
-0.035
-0.025
-0.015
-0.005
0.01
0.01
-0.005
-0.005
0.0
-0.005
0.0
0.005
-0.005
-0.02
-0.03
-0.03
-0.02
-0.04
-0.045
-0.065
-0.075
-0.07
-0.075
-0.085
-0.1
-0.125
-0.13
-0.14
-0.14
-0.145
-0.16
-0.175
-0.18
-0.17
-0.175
-0.175
-0.185
-0.2
-0.205
-0.195
-0.195
-0.2
-0.19
-0.205
-0.195
-0.2
-0.195
-0.19
-0.195
-0.205
-0.2
-0.2
-0.19
-0.19
-0.2
-0.22
-0.2
-0.195
-0.195
-0.2
-0.205
-0.22
-0.21
-0.21
-0.185
-0.2
-0.2
-0.22
-0.21
-0.195
-0.185
-0.185
-0.195
-0.195
-0.2
-0.19
-0.18
-0.19
-0.195
-0.195
-0.185
-0.185
-0.18
-0.165
-0.175
-0.17
-0.16
-0.14
-0.08
0.0
0.06
0.105
0.15
0.2
0.28
0.315
0.335
0.305
0.265
0.21
0.205
0.205
0.21
0.2
0.23
0.265
0.29
0.3
0.295
0.285
0.295
0.31
0.31
0.28
0.215
0.14
0.08
0.025
-0.015
-0.06
-0.1
-0.14
-0.165
-0.185
-0.225
-0.255
-0.27
-0.275
-0.285
-0.27
-0.28
-0.29
-0.3
-0.31
-0.315
-0.305
-0.3
-0.3
-0.305
-0.32
-0.32
-0.315
-0.315
-0.3
-0.31
-0.32
-0.32
-0.315
-0.32
-0.32
-0.305
-0.315
-0.32
-0.31
-0.305
-0.29
-0.3
-0.305
-0.3
-0.295
-0.285
-0.28
-0.285
-0.295
-0.275
-0.265
-0.26
-0.255
-0.26
-0.265
-0.26
-0.25
-0.235
-0.245
-0.255
-0.255
-0.25
-0.24
-0.23
-0.23
-0.235
-0.225
-0.215
-0.205
-0.19
-0.18
-0.19
-0.195
-0.175
-0.165
-0.15
-0.135
-0.135
-0.135
-0.125
-0.1
-0.085
-0.08
-0.07
-0.08
-0.065
-0.065
-0.025
-0.03
-0.03
-0.03
-0.025
-0.01
-0.01
-0.01
-0.02
-0.035
-0.035
-0.04
-0.04
-0.055
-0.07
-0.1
-0.11
-0.115
-0.115
-0.14
-0.16
-0.175
-0.185
-0.185
-0.2
-0.21
-0.22
-0.245
-0.24
-0.245
-0.245
-0.255
-0.265
-0.285
-0.28
-0.275
-0.27
-0.275
-0.29
-0.3
-0.295
-0.295
-0.285
-0.275
-0.29
-0.3
-0.3
-0.29
-0.28
-0.275
-0.28
-0.3
-0.29
-0.29
-0.28
-0.28
-0.295
-0.295
-0.29
-0.285
-0.28
-0.285
-0.29
-0.3
-0.295
-0.29
-0.275
-0.28
-0.3
-0.3
-0.295
-0.29
-0.275
-0.28
-0.28
-0.295
-0.295
-0.295
-0.275
-0.285
-0.295
-0.305
-0.29
-0.285
-0.29
-0.28
-0.3
-0.31
-0.3
-0.29
-0.28
-0.285
-0.3
-0.305
-0.305
-0.3
-0.28
-0.295
-0.295
-0.305
-0.295
-0.29
-0.29
-0.29
-0.295
-0.305
-0.3
-0.295
-0.29
-0.295
-0.29
-0.305
-0.3
-0.285
-0.295
-0.295
-0.305
-0.315
-0.295
-0.295
-0.29
-0.285
-0.295
-0.305
-0.295
-0.295
-0.295
-0.295
-0.29
-0.315
-0.3
-0.3
-0.285
-0.29
-0.29
-0.305
-0.3
-0.29
-0.27
-0.28
-0.285
-0.295
-0.3
-0.285
-0.28
-0.285
-0.28
-0.295
-0.295
-0.28
-0.265
-0.275
-0.285
-0.295
-0.29
-0.27
-0.27
-0.275
-0.275
-0.29
-0.285
-0.275
-0.265
-0.275
-0.275
-0.285
-0.275
-0.27
-0.275
-0.27
-0.275
-0.285
-0.275
-0.27
-0.265
-0.265
-0.27
-0.28
-0.27
-0.26
-0.25
-0.26
-0.27
-0.285
-0.275
-0.265
-0.255
-0.265
-0.265
-0.275
-0.26
-0.255
-0.255
-0.255
-0.27
-0.28
-0.27
-0.255
-0.255
-0.25
-0.26
-0.265
-0.26
-0.245
-0.24
-0.245
-0.25
-0.25
-0.255
-0.25
-0.245
-0.25
-0.245
-0.255
-0.25
-0.25
-0.24
-0.235
-0.235
-0.24
-0.235
-0.23
-0.23
-0.225
-0.23
-0.235
-0.23
-0.23
-0.22
-0.225
-0.22
-0.23
-0.23
-0.225
-0.215
-0.215
-0.215
-0.225
-0.23
-0.225
-0.21
-0.21
-0.21
-0.225
-0.22
-0.21
-0.21
-0.205
-0.22
-0.215
-0.215
-0.22
-0.21
-0.21
-0.21
-0.225
-0.22
-0.205
-0.195
-0.21
-0.215
-0.215
-0.22
-0.21
-0.2
-0.2
-0.215
-0.225
-0.215
-0.205
-0.2
-0.195
-0.195
-0.2
-0.195
-0.195
-0.175
-0.165
-0.16
-0.16
-0.155
-0.14
-0.135
-0.125
-0.12
-0.125
-0.115
-0.105
-0.1
-0.105
-0.11
-0.095
-0.095
-0.085
-0.095
-0.1
-0.115
-0.135
-0.135
-0.135
-0.13
-0.125
-0.135
-0.16
-0.155
-0.17
-0.165
-0.18
-0.195
-0.205
-0.205
-0.195
-0.195
-0.195
-0.215
-0.225
-0.23
-0.225
-0.215
-0.215
-0.23
-0.235
-0.225
-0.22
-0.21
-0.215
-0.22
-0.235
-0.225
-0.225
-0.22
-0.215
-0.225
-0.235
-0.225
-0.225
-0.205
-0.21
-0.22
-0.225
-0.215
-0.195
-0.175
-0.15
-0.145
-0.145
-0.115
-0.05
0.025
0.12
0.23
0.34
0.47
0.575
0.675
0.78
0.865
0.925
0.91
0.82
0.68
0.49
0.29
0.115
-0.03
-0.13
-0.205
-0.245
-0.25
-0.235
-0.195
-0.165
-0.17
-0.185
-0.21
-0.22
-0.22
-0.235
-0.22
-0.225
-0.235
-0.24
-0.25
-0.23
-0.23
-0.235
-0.24
-0.265
-0.26
-0.25
-0.235
-0.235
-0.24
-0.245
-0.235
-0.245
-0.225
-0.23
-0.24
-0.245
-0.23
-0.23
-0.225
-0.23
-0.225
-0.24
-0.225
-0.215
-0.21
-0.21
-0.215
-0.23
-0.22
-0.21
-0.205
-0.195
-0.205
-0.205
-0.215
-0.21
-0.2
-0.195
-0.195
-0.2
-0.19
-0.17
-0.17
-0.17
-0.18
-0.18
-0.165
-0.16
-0.15
-0.155
-0.15
-0.16
-0.145
-0.14
-0.125
-0.125
-0.125
-0.13
-0.115
-0.1
-0.095
-0.095
-0.1
-0.1
-0.09
-0.075
-0.055
-0.05
-0.055
-0.055
-0.04
-0.04
-0.025
-0.025
-0.025
-0.035
-0.02
-0.015
0.0
-0.005
-0.01
-0.005
0.0
0.015
0.02
0.01
0.015
0.005
0.01
0.005
0.02
0.0
-0.015
-0.02
-0.02
-0.02
-0.02
-0.035
-0.055
-0.055
-0.065
-0.075
-0.07
-0.075
-0.09
-0.11
-0.1
-0.105
-0.105
-0.11
-0.12
-0.14
-0.13
-0.135
-0.125
-0.125
-0.13
-0.145
-0.145
-0.145
-0.13
-0.13
-0.13
-0.15
-0.145
-0.13
-0.125
-0.135
-0.145
-0.15
-0.145
-0.135
-0.135
-0.135
-0.14
-0.16
-0.15
-0.14
-0.135
-0.13
-0.145
-0.15
-0.145
-0.135
-0.145
-0.14
-0.145
-0.15
-0.155
-0.145
-0.135
-0.145
-0.145
-0.145
-0.15
-0.145
-0.14
-0.14
-0.145
-0.16
-0.16
-0.15
-0.145
-0.145
-0.155
-0.165
-0.165
-0.155
-0.145
-0.15
-0.165
-0.17
-0.165
-0.16
-0.155
-0.165
-0.17
-0.18
-0.18
-0.18
-0.165
-0.175
-0.18
-0.185
-0.19
-0.185
-0.18
-0.18
-0.185
-0.21
-0.2
-0.2
-0.19
-0.19
-0.195
-0.215
-0.215
-0.195
-0.2
-0.205
-0.2
-0.21
-0.215
-0.21
-0.21
-0.215
-0.22
-0.22
-0.22
-0.22
-0.21
-0.21
-0.22
-0.22
-0.215
-0.215
-0.205
-0.2
-0.215
-0.23
-0.22
-0.21
-0.19
-0.21
-0.205
-0.21
-0.205
-0.195
-0.19
-0.195
-0.19
-0.21
-0.2
-0.195
-0.18
-0.19
-0.2
-0.21
-0.205
-0.195
-0.19
-0.18
-0.195
-0.21
-0.205
-0.2
-0.19
-0.18
-0.185
-0.195
-0.2
-0.18
-0.185
-0.175
-0.185
-0.19
-0.195
-0.175
-0.175
-0.175
-0.18
-0.185
-0.185
-0.175
-0.165
-0.175
-0.175
-0.19
-0.185
-0.175
-0.17
-0.16
-0.17
-0.18
-0.175
-0.16
-0.155
-0.155
-0.165
-0.185
-0.17
-0.175
-0.165
-0.165
-0.175
-0.185
-0.175
-0.165
-0.155
-0.15
-0.16
-0.165
-0.155
-0.155
-0.145
-0.14
-0.15
-0.165
-0.16
-0.15
-0.15
-0.145
-0.15
-0.16
-0.16
-0.155
-0.145
-0.15
-0.145
-0.16
-0.155
-0.145
-0.145
-0.15
-0.16
-0.16
-0.155
-0.15
-0.145
-0.145
-0.15
-0.155
-0.15
-0.145
-0.135
-0.14
-0.15
-0.15
-0.145
-0.13
-0.13
-0.14
-0.14
-0.13
-0.1
-0.095
-0.08
-0.075
-0.085
-0.085
-0.065
-0.06
-0.05
-0.04
-0.045
-0.05
-0.045
-0.035
-0.025
-0.02
-0.015
-0.03
-0.035
-0.055
-0.045
-0.05
-0.055
-0.075
-0.075
-0.07
-0.075
-0.075
-0.09
-0.12
-0.12
-0.12
-0.12
-0.12
-0.145
-0.16
-0.165
-0.14
-0.14
-0.155
-0.17
-0.185
-0.175
-0.165
-0.16
-0.155
-0.17
-0.175
-0.165
-0.165
-0.155
-0.16
-0.16
-0.185
-0.18
-0.17
-0.165
-0.165
-0.165
-0.185
-0.175
-0.175
-0.16
-0.16
-0.175
-0.175
-0.17
-0.155
-0.15
-0.14
-0.135
-0.115
-0.095
-0.075
-0.05
0.0
0.07
0.165
0.28
0.41
0.52
0.615
0.72
0.815
0.925
0.995
0.98
0.855
0.69
0.49
0.28
0.115
-0.02
-0.145
-0.235
-0.29
-0.275
-0.225
-0.185
-0.16
-0.165
-0.175
-0.18
-0.185
-0.185
-0.195
-0.2
-0.22
-0.22
-0.21
-0.21
-0.22
-0.225
-0.235
-0.23
-0.215
-0.21
-0.21
-0.22
-0.225
-0.215
-0.21
-0.205
-0.215
-0.225
-0.235
-0.215
-0.21
-0.195
-0.205
-0.21
-0.215
-0.205
-0.2
-0.19
-0.195
-0.195
-0.2
-0.2
-0.19
-0.185
-0.185
-0.18
-0.19
-0.19
-0.17
-0.165
-0.165
-0.175
-0.175
-0.18
-0.16
-0.145
-0.155
-0.15
-0.165
-0.16
-0.14
-0.13
-0.13
-0.135
-0.14
-0.13
-0.12
-0.105
-0.105
-0.105
-0.11
-0.1
-0.085
-0.08
-0.08
-0.075
-0.075
-0.075
-0.055
-0.045
-0.03
-0.04
-0.045
-0.025
-0.01
0.0
0.0
-0.005
-0.015
0.005
0.005
0.02
0.025
0.015
0.01
0.025
0.025
0.035
0.03
0.03
0.02
0.005
0.015
0.02
0.005
-0.015
-0.03
-0.035
-0.035
-0.05
-0.055
-0.065
-0.085
-0.085
-0.09
-0.09
-0.1
-0.11
-0.125
-0.12
-0.125
-0.125
-0.135
-0.14
