Lead II
0.485
0.58
0.72
0.89
1.055
1.21
1.355
1.465
1.545
1.57
1.57
1.54
1.475
1.315
1.11
0.92
0.73
0.54
0.345
0.15
-0.095
-0.32
-0.48
-0.635
-0.77
-0.895
-0.945
-0.97
-0.975
-0.96
-0.945
-0.955
-0.935
-0.905
-0.86
-0.815
-0.77
-0.735
-0.72
-0.68
-0.65
-0.635
-0.595
-0.59
-0.56
-0.56
-0.53
-0.535
-0.535
-0.545
-0.545
-0.535
-0.545
-0.555
-0.565
-0.58
-0.57
-0.575
-0.575
-0.575
-0.59
-0.595
-0.585
-0.615
-0.61
-0.6
-0.62
-0.615
-0.62
-0.62
-0.62
-0.615
-0.615
-0.635
-0.61
-0.605
-0.595
-0.615
-0.605
-0.615
-0.595
-0.58
-0.59
-0.565
-0.56
-0.57
-0.555
-0.53
-0.52
-0.515
-0.51
-0.515
-0.49
-0.47
-0.43
-0.435
-0.42
-0.41
-0.385
-0.375
-0.35
-0.355
-0.34
-0.33
-0.3
-0.27
-0.245
-0.235
-0.225
-0.22
-0.2
-0.18
-0.16
-0.15
-0.165
-0.15
-0.135
-0.115
-0.105
-0.105
-0.105
-0.11
-0.09
-0.08
-0.08
-0.08
-0.08
-0.095
-0.1
-0.09
-0.08
-0.1
-0.115
-0.125
-0.115
-0.115
-0.11
-0.11
-0.135
-0.15
-0.145
-0.145
-0.14
-0.155
-0.155
-0.165
-0.165
-0.16
-0.16
-0.14
-0.145
-0.14
-0.14
-0.13
-0.135
-0.14
-0.16
-0.165
-0.145
-0.145
-0.14
-0.125
-0.12
-0.115
-0.085
-0.075
-0.075
-0.08
-0.085
-0.095
-0.115
-0.11
-0.11
-0.1
-0.12
-0.12
-0.105
-0.09
-0.085
-0.095
-0.12
-0.13
-0.16
-0.185
-0.215
-0.23
-0.27
-0.3
-0.305
-0.31
-0.315
-0.33
-0.33
-0.35
-0.34
-0.335
-0.335
-0.335
-0.345
-0.34
-0.335
-0.32
-0.335
-0.325
-0.33
-0.34
-0.335
-0.325
-0.31
-0.315
-0.315
-0.33
-0.32
-0.315
-0.32
-0.31
-0.325
-0.325
-0.32
-0.31
-0.3
-0.31
-0.305
-0.315
-0.31
-0.29
-0.275
-0.29
-0.285
-0.29
-0.285
-0.27
-0.265
-0.275
-0.295
-0.315
-0.32
-0.32
-0.31
-0.3
-0.24
-0.12
0.055
0.22
0.365
0.465
0.55
0.645
0.795
0.935
1.075
1.2
1.3
1.355
1.36
1.355
1.33
1.275
1.15
0.97
0.78
0.625
0.49
0.34
0.175
-0.025
-0.225
-0.39
-0.535
-0.66
-0.78
-0.87
-0.92
-0.93
-0.93
-0.93
-0.93
-0.925
-0.91
-0.9
-0.86
-0.825
-0.795
-0.765
-0.735
-0.7
-0.685
-0.66
-0.63
-0.605
-0.585
-0.565
-0.545
-0.54
-0.53
-0.53
-0.53
-0.535
-0.515
-0.525
-0.545
-0.55
-0.54
-0.54
-0.555
-0.555
-0.555
-0.565
-0.58
-0.57
-0.575
-0.58
-0.595
-0.6
-0.59
-0.585
-0.565
-0.59
-0.6
-0.61
-0.605
-0.59
-0.585
-0.595
-0.59
-0.58
-0.58
-0.565
-0.57
-0.57
-0.565
-0.575
-0.565
-0.535
-0.525
-0.535
-0.515
-0.52
-0.51
-0.485
-0.48
-0.465
-0.455
-0.455
-0.435
-0.41
-0.39
-0.38
-0.375
-0.375
-0.34
-0.315
-0.3
-0.29
-0.285
-0.275
-0.25
-0.24
-0.215
-0.2
-0.195
-0.195
-0.17
-0.155
-0.14
-0.125
-0.13
-0.135
-0.11
-0.09
-0.085
-0.085
-0.08
-0.085
-0.07
-0.07
-0.05
-0.06
-0.075
-0.075
-0.065
-0.06
-0.065
-0.09
-0.095
-0.1
-0.085
-0.09
-0.1
-0.1
-0.12
-0.125
-0.125
-0.125
-0.125
-0.13
-0.125
-0.125
-0.125
-0.12
-0.1
-0.095
-0.095
-0.115
-0.095
-0.1
-0.095
-0.09
-0.115
-0.12
-0.095
-0.085
-0.065
-0.065
-0.055
-0.06
-0.05
-0.045
-0.035
-0.045
-0.06
-0.08
-0.075
-0.065
-0.055
-0.05
-0.055
-0.06
-0.06
-0.035
-0.045
-0.07
-0.105
-0.14
-0.155
-0.175
-0.195
-0.215
-0.24
-0.275
-0.275
-0.28
-0.275
-0.285
-0.285
-0.295
-0.295
-0.28
-0.275
-0.28
-0.285
-0.29
-0.295
-0.28
-0.28
-0.28
-0.29
-0.29
-0.285
-0.275
-0.27
-0.27
-0.27
-0.28
-0.28
-0.27
-0.26
-0.265
-0.265
-0.265
-0.265
-0.245
-0.25
-0.245
-0.245
-0.245
-0.24
-0.24
-0.225
-0.23
-0.235
-0.225
-0.22
-0.215
-0.205
-0.22
-0.24
-0.28
-0.275
-0.295
-0.295
-0.3
-0.25
-0.13
0.02
0.18
0.31
0.415
0.49
0.585
0.74
0.91
1.055
1.205
1.315
1.38
1.405
1.41
1.385
1.32
1.185
1.005
0.825
0.69
0.54
0.405
0.235
0.005
-0.175
-0.34
-0.46
-0.59
-0.705
-0.805
-0.83
-0.84
-0.835
-0.835
-0.84
-0.84
-0.835
-0.8
-0.75
-0.72
-0.68
-0.66
-0.625
-0.6
-0.58
-0.56
-0.535
-0.52
-0.495
-0.475
-0.47
-0.465
-0.46
-0.465
-0.475
-0.47
-0.455
-0.46
-0.47
-0.495
-0.495
-0.485
-0.49
-0.495
-0.51
-0.515
-0.52
-0.5
-0.52
-0.51
-0.515
-0.525
-0.515
-0.51
-0.51
-0.515
-0.53
-0.54
-0.535
-0.52
-0.525
-0.53
-0.52
-0.535
-0.53
-0.515
-0.505
-0.5
-0.5
-0.5
-0.485
-0.475
-0.455
-0.455
-0.455
-0.43
-0.415
-0.405
-0.38
-0.37
-0.36
-0.355
-0.335
-0.305
-0.29
-0.27
-0.26
-0.255
-0.235
-0.22
-0.205
-0.185
-0.18
-0.185
-0.145
-0.125
-0.11
-0.11
-0.11
-0.11
-0.075
-0.06
-0.05
-0.045
-0.035
-0.04
-0.035
-0.025
-0.01
-0.015
-0.025
-0.025
-0.01
0.0
0.0
-0.005
-0.025
-0.02
-0.025
-0.015
-0.01
-0.025
-0.045
-0.045
-0.04
-0.04
-0.045
-0.055
-0.07
-0.075
-0.08
-0.08
-0.09
-0.085
-0.08
-0.09
-0.08
-0.055
-0.04
-0.055
-0.06
-0.065
-0.055
-0.055
-0.05
-0.04
-0.045
-0.055
-0.035
-0.02
-0.015
-0.015
-0.015
-0.03
-0.015
-0.005
-0.005
-0.03
-0.045
-0.055
-0.035
-0.025
-0.02
-0.02
-0.03
-0.035
-0.02
-0.02
-0.035
-0.065
-0.105
-0.14
-0.155
-0.165
-0.18
-0.205
-0.235
-0.26
-0.265
-0.26
-0.255
-0.26
-0.28
-0.285
-0.285
-0.275
-0.275
-0.265
-0.27
-0.275
-0.265
-0.255
-0.26
-0.255
-0.27
-0.275
-0.265
-0.25
-0.25
-0.265
-0.27
-0.26
-0.255
-0.255
-0.245
-0.25
-0.255
-0.25
-0.25
-0.235
-0.23
-0.235
-0.255
-0.26
-0.245
-0.23
-0.225
-0.235
-0.235
-0.245
-0.215
-0.22
-0.205
-0.21
-0.215
-0.22
-0.235
-0.225
-0.235
-0.255
-0.28
-0.305
-0.3
-0.275
-0.2
-0.09
0.04
0.18
0.31
0.425
0.51
0.615
0.74
0.9
1.07
1.22
1.355
1.455
1.485
1.495
1.495
1.475
1.42
1.295
1.105
0.925
0.785
0.65
0.49
0.325
0.13
-0.09
-0.27
-0.385
-0.5
-0.62
-0.745
-0.835
-0.875
-0.875
-0.875
-0.875
-0.865
-0.87
-0.87
-0.83
-0.775
-0.735
-0.71
-0.685
-0.655
-0.63
-0.62
-0.595
-0.58
-0.555
-0.525
-0.5
-0.49
-0.475
-0.475
-0.49
-0.48
-0.47
-0.47
-0.485
-0.495
-0.51
-0.495
-0.5
-0.49
-0.495
-0.505
-0.52
-0.52
-0.51
-0.495
-0.515
-0.525
-0.535
-0.54
-0.53
-0.54
-0.53
-0.545
-0.55
-0.535
-0.535
-0.53
-0.535
-0.535
-0.545
-0.545
-0.51
-0.52
-0.52
-0.52
-0.52
-0.52
-0.505
-0.495
-0.49
-0.485
-0.485
-0.465
-0.45
-0.43
-0.42
-0.43
-0.42
-0.405
-0.385
-0.36
-0.355
-0.36
-0.35
-0.33
-0.3
-0.29
-0.28
-0.265
-0.26
-0.235
-0.205
-0.19
-0.19
-0.17
-0.185
-0.17
-0.135
-0.135
-0.11
-0.115
-0.105
-0.085
-0.05
-0.06
-0.055
-0.045
-0.045
-0.025
-0.02
-0.01
-0.01
-0.025
-0.015
-0.02
0.0
-0.005
-0.005
-0.01
-0.02
-0.005
-0.005
-0.005
-0.015
-0.02
-0.045
-0.045
-0.03
-0.025
-0.05
-0.06
-0.06
-0.065
-0.07
-0.06
-0.065
-0.09
-0.095
-0.085
-0.075
-0.08
-0.06
-0.06
-0.075
-0.065
-0.05
-0.05
-0.06
-0.065
-0.075
-0.06
-0.05
-0.05
-0.05
-0.045
-0.045
-0.03
-0.015
-0.005
-0.01
-0.015
-0.015
0.0
-0.005
-0.01
-0.03
-0.035
-0.02
-0.02
-0.015
-0.005
-0.01
-0.015
-0.02
-0.02
-0.02
-0.035
-0.07
-0.115
-0.135
-0.155
-0.16
-0.19
-0.205
-0.23
-0.25
-0.25
-0.245
-0.245
-0.25
-0.26
-0.28
-0.285
-0.275
-0.25
-0.265
-0.27
-0.285
-0.265
-0.255
-0.25
-0.26
-0.265
-0.28
-0.27
-0.24
-0.24
-0.245
-0.245
-0.26
-0.255
-0.23
-0.225
-0.225
-0.245
-0.24
-0.245
-0.235
-0.23
-0.225
-0.235
-0.245
-0.235
-0.235
-0.215
-0.22
-0.23
-0.235
-0.215
-0.215
-0.205
-0.21
-0.22
-0.215
-0.215
-0.2
-0.205
-0.21
-0.225
-0.25
-0.275
-0.285
-0.27
-0.285
-0.265
-0.195
-0.07
0.065
0.215
0.34
0.435
0.5
0.605
0.725
0.87
1.015
1.14
1.27
1.385
1.475
1.525
1.535
1.52
1.515
1.475
1.37
1.215
1.025
0.85
0.705
0.545
0.4
0.22
-0.005
-0.22
-0.385
-0.505
-0.625
-0.73
-0.815
-0.865
-0.885
-0.875
-0.87
-0.85
-0.85
-0.85
-0.86
-0.83
-0.79
-0.745
-0.71
-0.675
-0.66
-0.635
-0.6
-0.575
-0.55
-0.535
-0.52
-0.485
-0.48
-0.465
-0.475
-0.475
-0.48
-0.475
-0.475
-0.48
-0.485
-0.485
-0.51
-0.5
-0.505
-0.485
-0.495
-0.52
-0.525
-0.51
-0.515
-0.52
-0.52
-0.535
-0.56
-0.55
-0.535
-0.53
-0.54
-0.55
-0.57
-0.545
-0.54
-0.54
-0.535
-0.55
-0.55
-0.545
-0.535
-0.53
-0.525
-0.525
-0.525
-0.52
-0.5
-0.49
-0.48
-0.47
-0.465
-0.44
-0.43
-0.41
-0.4
-0.39
-0.38
-0.375
-0.34
-0.33
-0.32
-0.315
-0.29
-0.285
-0.245
-0.23
-0.22
-0.21
-0.21
-0.18
-0.16
-0.15
-0.145
-0.135
-0.12
-0.11
-0.085
-0.065
-0.07
-0.055
-0.06
-0.045
-0.03
-0.015
-0.03
-0.025
-0.03
-0.025
-0.01
-0.005
-0.005
-0.015
-0.02
-0.03
-0.02
-0.015
-0.02
-0.03
-0.045
-0.035
-0.04
-0.055
-0.055
-0.06
-0.08
-0.085
-0.07
-0.07
-0.075
-0.085
-0.105
-0.105
-0.095
-0.09
-0.085
-0.08
-0.085
-0.09
-0.065
-0.05
-0.06
-0.075
-0.085
-0.08
-0.065
-0.065
-0.055
-0.055
-0.06
-0.05
-0.025
-0.02
-0.015
-0.02
-0.025
-0.025
-0.015
-0.025
-0.035
-0.045
-0.035
-0.035
-0.025
-0.015
-0.02
-0.02
-0.035
-0.03
-0.04
-0.045
-0.085
-0.12
-0.165
-0.17
-0.18
-0.21
-0.23
-0.255
-0.265
-0.265
-0.27
-0.26
-0.27
-0.275
-0.295
-0.285
-0.28
-0.27
-0.27
-0.285
-0.295
-0.275
-0.28
-0.27
-0.275
-0.27
-0.265
-0.28
-0.255
-0.255
-0.26
-0.26
-0.27
-0.265
-0.255
-0.25
-0.25
-0.26
-0.265
-0.25
-0.245
-0.23
-0.245
-0.245
-0.245
-0.235
-0.23
-0.225
-0.23
-0.24
-0.25
-0.225
-0.22
-0.225
-0.22
-0.22
-0.235
-0.23
-0.24
-0.23
-0.24
-0.27
-0.305
-0.3
-0.265
-0.22
-0.12
-0.005
0.115
0.255
0.375
0.465
0.545
0.645
0.775
0.93
1.065
1.215
1.33
1.445
1.5
1.535
1.56
1.555
1.525
1.43
1.275
1.08
0.915
0.755
0.59
0.41
0.24
0.045
-0.155
-0.335
-0.475
-0.61
-0.725
-0.81
-0.87
-0.895
-0.92
-0.92
-0.915
-0.89
-0.885
-0.87
-0.865
-0.84
-0.79
-0.75
-0.71
-0.685
-0.67
-0.655
-0.64
-0.605
-0.565
-0.535
-0.535
-0.525
-0.525
-0.51
-0.495
-0.5
-0.5
-0.52
-0.51
-0.51
-0.505
-0.5
-0.52
-0.525
-0.535
-0.535
-0.525
-0.53
-0.53
-0.545
-0.565
-0.57
-0.55
-0.555
-0.565
-0.57
-0.58
-0.575
-0.57
-0.56
-0.58
-0.58
-0.58
-0.58
-0.57
-0.555
-0.57
-0.57
-0.575
-0.57
-0.56
-0.545
-0.54
-0.54
-0.53
-0.52
-0.505
-0.485
-0.485
-0.475
-0.475
-0.45
-0.425
-0.405
-0.41
-0.39
-0.39
-0.37
-0.355
-0.335
-0.325
-0.315
-0.305
-0.285
-0.25
-0.245
-0.235
-0.225
-0.215
-0.195
-0.185
-0.17
-0.165
-0.15
-0.14
-0.12
-0.105
-0.095
-0.09
-0.085
-0.09
-0.075
-0.065
-0.055
-0.055
-0.055
-0.065
-0.055
-0.05
-0.05
-0.06
-0.075
-0.08
-0.075
-0.06
-0.07
-0.085
-0.095
-0.1
-0.11
-0.095
-0.11
-0.115
-0.135
-0.135
-0.135
-0.14
-0.135
-0.14
-0.145
-0.15
-0.13
-0.12
-0.115
-0.11
-0.115
-0.115
-0.125
-0.12
-0.115
-0.13
-0.13
-0.13
-0.115
-0.105
-0.09
-0.075
-0.07
-0.08
-0.07
-0.055
-0.06
-0.08
-0.085
-0.095
-0.09
-0.08
-0.08
-0.08
-0.085
-0.095
-0.09
-0.08
-0.08
-0.105
-0.13
-0.17
-0.19
-0.195
-0.21
-0.245
-0.28
-0.305
-0.295
-0.305
-0.3
-0.29
-0.305
-0.325
-0.305
-0.3
-0.3
-0.305
-0.31
-0.33
-0.31
-0.295
-0.29
-0.3
-0.305
-0.315
-0.3
-0.28
-0.285
-0.29
-0.295
-0.3
-0.3
-0.285
-0.285
-0.275
-0.28
-0.285
-0.28
-0.27
-0.27
-0.275
-0.29
-0.3
-0.285
-0.27
-0.27
-0.26
-0.275
-0.28
-0.26
-0.255
-0.25
-0.26
-0.275
-0.265
-0.27
-0.265
-0.275
-0.295
-0.315
-0.325
-0.315
-0.265
-0.16
-0.04
0.1
0.24
0.385
0.475
0.57
0.665
0.795
0.93
1.085
1.23
1.325
1.385
1.395
1.375
1.375
1.32
1.235
1.075
0.9
0.73
0.6
0.475
0.33
0.175
-0.04
-0.245
-0.395
-0.5
-0.61
-0.72
-0.815
-0.88
-0.91
-0.935
-0.915
-0.905
-0.9
-0.91
-0.895
-0.895
-0.845
-0.81
-0.785
-0.76
-0.72
-0.685
-0.66
-0.65
-0.64
-0.61
-0.585
-0.55
-0.535
-0.53
-0.535
-0.53
-0.52
-0.51
-0.51
-0.52
-0.515
-0.53
-0.535
-0.525
-0.52
-0.52
-0.535
-0.55
-0.55
-0.545
-0.545
-0.55
-0.56
-0.57
-0.57
-0.575
-0.57
-0.565
-0.57
-0.585
-0.58
-0.57
-0.565
-0.57
-0.575
-0.58
-0.575
-0.565
-0.565
-0.55
-0.56
-0.57
-0.56
-0.54
-0.53
-0.535
-0.545
-0.535
-0.51
-0.5
-0.485
-0.485
-0.475
-0.46
-0.45
-0.44
-0.415
-0.405
-0.41
-0.4
-0.375
-0.35
-0.325
-0.33
-0.315
-0.3
-0.29
-0.275
-0.255
-0.235
-0.22
-0.205
-0.185
-0.175
-0.155
-0.145
-0.15
-0.135
-0.125
-0.105
-0.095
-0.095
-0.1
-0.09
-0.075
-0.075
-0.06
-0.065
-0.06
-0.065
-0.055
-0.045
-0.04
-0.05
-0.05
-0.065
-0.045
-0.05
-0.04
-0.065
-0.065
-0.08
-0.075
-0.06
-0.07
-0.08
-0.085
-0.115
-0.105
-0.1
-0.1
-0.11
-0.12
-0.135
-0.13
-0.125
-0.12
-0.125
-0.115
-0.12
-0.105
-0.09
-0.09
-0.075
-0.085
-0.1
-0.095
-0.09
-0.08
-0.08
-0.08
-0.075
-0.06
-0.04
-0.035
-0.035
-0.035
-0.04
-0.025
-0.03
-0.03
-0.045
-0.05
-0.065
-0.05
-0.035
-0.03
-0.03
-0.045
-0.05
-0.04
-0.055
-0.075
-0.09
-0.125
-0.17
-0.175
-0.195
-0.2
-0.225
-0.25
-0.265
-0.27
-0.26
-0.27
-0.265
-0.275
-0.295
-0.285
-0.27
-0.27
-0.265
-0.28
-0.29
-0.285
-0.26
-0.26
-0.27
-0.265
-0.275
-0.265
-0.26
-0.25
-0.26
-0.26
-0.27
-0.265
-0.25
-0.25
-0.255
-0.255
-0.255
-0.265
-0.245
-0.23
-0.25
-0.255
-0.255
-0.245
-0.24
-0.235
-0.24
-0.245
-0.255
-0.24
-0.225
-0.225
-0.22
-0.23
-0.235
-0.235
-0.225
-0.23
-0.25
-0.295
-0.315
-0.305
-0.285
-0.225
-0.12
0.005
0.12
0.25
0.36
0.46
0.525
0.61
0.73
0.87
1.005
1.125
1.255
1.355
1.42
1.45
1.46
1.47
1.43
1.38
1.235
1.045
0.885
0.755
0.615
0.45
0.28
0.085
-0.105
-0.285
-0.43
-0.555
-0.71
-0.8
-0.835
-0.87
-0.875
-0.895
-0.895
-0.875
-0.855
-0.86
-0.855
-0.835
-0.8
-0.75
-0.715
-0.68
-0.645
-0.635
-0.625
-0.6
-0.555
-0.535
-0.515
-0.505
-0.51
-0.49
-0.485
-0.485
-0.465
-0.47
-0.475
-0.48
-0.48
-0.475
-0.485
-0.5
-0.505
-0.505
-0.49
-0.49
-0.51
-0.515
-0.525
-0.525
-0.51
-0.525
-0.53
-0.525
-0.56
-0.545
-0.54
-0.525
-0.53
-0.535
-0.545
-0.545
-0.535
-0.54
-0.54
-0.55
-0.555
-0.535
-0.535
-0.52
-0.515
-0.525
-0.51
-0.5
-0.495
-0.475
-0.47
-0.475
-0.475
-0.455
-0.43
-0.415
-0.405
-0.39
-0.39
-0.365
-0.34
-0.335
-0.32
-0.315
-0.315
-0.29
-0.27
-0.25
-0.24
-0.235
-0.22
-0.2
-0.18
-0.16
-0.155
-0.145
-0.14
-0.13
-0.1
-0.085
-0.085
-0.075
-0.07
-0.045
-0.035
-0.02
-0.015
-0.035
-0.035
-0.02
-0.005
0.005
-0.005
-0.015
-0.03
-0.02
-0.01
-0.01
-0.025
-0.02
-0.04
-0.04
-0.045
-0.045
-0.055
-0.07
-0.08
-0.075
-0.075
-0.08
-0.08
-0.095
-0.095
-0.11
-0.1
-0.09
-0.09
-0.09
-0.095
-0.085
-0.07
-0.05
-0.065
-0.08
-0.09
-0.085
-0.07
-0.05
-0.06
-0.045
-0.05
-0.04
-0.015
-0.015
-0.015
-0.03
-0.04
-0.04
-0.03
-0.03
-0.025
-0.025
-0.035
-0.035
-0.02
-0.02
-0.02
-0.045
-0.055
-0.085
-0.1
-0.135
-0.16
-0.195
-0.205
-0.21
-0.245
-0.245
-0.25
-0.26
-0.27
-0.27
-0.27
-0.265
-0.26
-0.26
-0.27
-0.265
-0.26
-0.25
-0.255
-0.27
-0.27
-0.285
-0.255
-0.245
-0.25
-0.255
-0.265
-0.25
-0.26
-0.245
-0.24
-0.255
-0.265
-0.25
-0.23
-0.23
-0.23
-0.24
-0.25
-0.24
-0.23
-0.225
-0.23
-0.23
-0.23
-0.23
-0.215
-0.21
-0.215
-0.22
-0.235
-0.23
-0.245
-0.26
-0.285
-0.295
-0.28
-0.2
-0.09
0.065
0.2
0.33
0.42
0.515
0.65
0.78
0.95
1.09
1.22
1.35
1.45
1.51
1.505
1.49
1.435
1.33
1.15
0.95
0.775
0.61
0.44
0.265
0.07
-0.14
-0.325
-0.49
-0.62
-0.73
-0.81
-0.85
-0.87
-0.885
-0.885
-0.865
-0.85
-0.85
-0.84
-0.805
-0.78
-0.73
-0.685
-0.645
-0.625
-0.635
-0.61
-0.585
-0.545
-0.52
-0.505
-0.495
-0.495
-0.49
-0.475
-0.455
-0.46
-0.475
-0.485
-0.48
-0.485
-0.48
-0.485
-0.495
-0.51
-0.5
-0.5
-0.49
-0.505
-0.505
-0.535
-0.52
-0.525
-0.515
-0.52
-0.535
-0.545
-0.54
-0.54
-0.535
-0.545
-0.545
-0.56
-0.545
-0.53
-0.53
-0.535
-0.53
-0.53
-0.525
-0.52
-0.505
-0.5
-0.505
-0.51
-0.49
-0.475
-0.45
-0.45
-0.45
-0.445
-0.435
-0.405
-0.4
-0.385
-0.375
-0.37
-0.35
-0.325
-0.305
-0.295
-0.28
-0.285
-0.255
-0.235
-0.23
-0.21
-0.205
-0.195
-0.175
-0.16
-0.13
-0.125
-0.125
-0.125
-0.11
-0.085
-0.07
-0.065
-0.065
-0.065
-0.055
-0.035
-0.02
-0.03
-0.025
-0.03
-0.03
-0.015
-0.015
-0.015
-0.03
-0.05
-0.045
-0.03
-0.03
-0.04
-0.05
-0.07
-0.065
-0.045
-0.06
-0.065
-0.08
-0.095
-0.105
-0.095
-0.105
-0.11
-0.12
-0.125
-0.105
-0.105
-0.09
-0.08
-0.085
-0.09
-0.08
-0.075
-0.085
-0.075
-0.075
-0.085
-0.07
-0.05
-0.03
-0.03
-0.025
-0.035
-0.04
-0.025
-0.03
-0.035
-0.05
-0.06
-0.05
-0.035
-0.03
-0.035
-0.04
-0.05
-0.05
-0.045
-0.055
-0.095
-0.135
-0.155
-0.18
-0.2
-0.215
-0.245
-0.28
-0.285
-0.27
-0.265
-0.26
-0.275
-0.28
-0.3
-0.27
-0.265
-0.275
-0.265
-0.275
-0.29
-0.265
-0.265
-0.27
-0.26
-0.26
-0.27
-0.275
-0.26
-0.26
-0.245
-0.255
-0.255
-0.26
-0.255
-0.24
-0.24
-0.24
-0.255
-0.24
-0.23
-0.23
-0.235
-0.235
-0.245
-0.23
-0.225
-0.205
-0.22
-0.23
-0.235
-0.245
-0.265
-0.275
-0.29
-0.29
-0.25
-0.135
0.025
0.185
0.33
0.435
0.505
0.635
0.8
0.95
1.095
1.235
1.37
1.46
1.505
1.51
1.495
1.435
1.305
1.11
0.92
0.745
0.565
0.4
0.205
-0.015
-0.23
-0.395
-0.54
-0.675
-0.8
-0.86
-0.885
-0.88
-0.875
-0.88
-0.87
-0.855
-0.835
-0.81
-0.775
-0.72
-0.705
-0.665
-0.65
-0.62
-0.595
-0.585
-0.555
-0.53
-0.52
-0.495
-0.485
-0.485
-0.495
-0.49
-0.49
-0.49
-0.495
-0.5
-0.515
-0.51
-0.505
-0.515
-0.515
-0.525
-0.54
-0.53
-0.54
-0.54
-0.54
-0.555
-0.565
-0.56
-0.555
-0.56
-0.555
-0.565
-0.58
-0.57
-0.565
-0.545
-0.56
-0.565
-0.58
-0.57
-0.555
-0.54
-0.54
-0.545
-0.545
-0.545
-0.525
-0.505
-0.5
-0.5
-0.49
-0.475
-0.46
-0.435
-0.435
-0.415
-0.415
-0.405
-0.375
-0.36
-0.35
-0.345
-0.335
-0.31
-0.285
-0.275
-0.265
-0.245
-0.24
-0.225
-0.2
-0.19
-0.175
-0.16
-0.16
-0.145
-0.135
-0.12
-0.11
-0.105
-0.105
-0.095
-0.08
-0.06
-0.06
-0.065
-0.07
-0.07
-0.06
-0.05
-0.055
-0.065
-0.07
-0.07
-0.06
-0.06
-0.07
-0.08
-0.09
-0.085
-0.085
-0.08
-0.09
-0.11
-0.13
-0.125
-0.125
-0.115
-0.125
-0.15
-0.16
-0.155
-0.15
-0.13
-0.14
-0.14
-0.145
-0.125
-0.115
-0.12
-0.115
-0.13
-0.145
-0.13
-0.12
-0.095
-0.09
-0.1
-0.095
-0.08
-0.065
-0.055
-0.07
-0.075
-0.09
-0.09
-0.085
-0.075
-0.075
-0.08
-0.09
-0.075
-0.065
-0.065
-0.07
-0.105
-0.12
-0.155
-0.175
-0.2
-0.225
-0.25
-0.285
-0.285
-0.295
-0.3
-0.3
-0.31
-0.325
-0.325
-0.31
-0.315
-0.315
-0.31
-0.315
-0.31
-0.305
-0.305
-0.31
-0.31
-0.32
-0.315
-0.305
-0.295
-0.295
-0.31
-0.31
-0.31
-0.295
-0.295
-0.305
-0.32
-0.32
-0.305
-0.295
-0.27
-0.285
-0.29
-0.28
-0.28
-0.27
-0.265
-0.275
-0.28
-0.28
-0.275
-0.265
-0.26
-0.255
-0.27
-0.285
-0.3
-0.32
-0.325
-0.32
-0.305
-0.23
-0.085
0.105
0.245
0.37
0.465
0.54
0.655
0.805
0.95
1.1
1.24
1.35
1.44
1.495
1.5
1.505
1.46
1.36
1.2
0.995
0.81
0.64
0.465
0.31
0.135
-0.085
-0.285
-0.435
-0.58
-0.71
-0.815
-0.89
-0.92
-0.93
-0.945
-0.95
-0.945
-0.925
-0.91
-0.9
-0.88
-0.845
-0.795
-0.74
-0.725
-0.705
-0.68
-0.675
-0.64
-0.605
-0.575
-0.575
-0.565
-0.565
-0.565
-0.54
-0.54
-0.55
-0.55
-0.56
-0.575
-0.55
-0.545
-0.56
-0.555
-0.57
-0.575
-0.565
-0.565
-0.575
-0.585
-0.6
-0.6
-0.59
-0.585
-0.595
-0.605
-0.62
-0.61
-0.595
-0.605
-0.6
-0.61
-0.625
-0.62
-0.605
-0.595
-0.605
-0.615
-0.615
-0.605
-0.59
-0.58
-0.565
-0.575
-0.58
-0.57
-0.57
-0.545
-0.52
-0.525
-0.53
-0.495
-0.49
-0.465
-0.45
-0.45
-0.45
-0.42
-0.415
-0.38
-0.375
-0.37
-0.36
-0.345
-0.32
-0.31
-0.29
-0.29
-0.29
-0.27
-0.235
-0.24
-0.215
-0.205
-0.195
-0.19
-0.175
-0.155
-0.15
-0.155
-0.155
-0.135
-0.12
-0.115
-0.105
-0.12
-0.12
-0.105
-0.1
-0.09
-0.105
-0.105
-0.11
-0.11
-0.105
-0.095
-0.11
-0.12
-0.115
-0.125
-0.12
-0.12
-0.12
-0.15
-0.16
-0.155
-0.165
-0.16
-0.15
-0.17
-0.185
-0.195
-0.175
-0.175
-0.175
-0.2
-0.19
-0.185
-0.155
-0.14
-0.145
-0.155
-0.16
-0.165
-0.165
-0.15
-0.145
-0.145
-0.15
-0.135
-0.115
-0.09
-0.09
-0.09
-0.1
-0.115
-0.095
-0.09
-0.105
-0.11
-0.12
-0.105
-0.095
-0.085
-0.085
-0.09
-0.105
-0.1
-0.12
-0.125
-0.155
-0.195
-0.23
-0.25
-0.25
-0.27
-0.3
-0.31
-0.33
-0.33
-0.325
-0.325
-0.32
-0.325
-0.34
-0.335
-0.33
-0.32
-0.325
-0.33
-0.335
-0.335
-0.32
-0.305
-0.315
-0.325
-0.325
-0.335
-0.32
-0.32
-0.31
-0.315
-0.32
-0.315
-0.315
-0.29
-0.295
-0.29
-0.305
-0.3
-0.29
-0.285
-0.285
-0.295
-0.28
-0.27
-0.27
-0.265
-0.25
-0.265
-0.285
-0.28
-0.29
-0.29
-0.31
-0.33
-0.34
-0.31
-0.225
-0.09
0.05
0.185
0.31
0.425
0.495
0.6
0.705
0.825
0.95
1.085
1.215
1.305
1.335
1.335
1.3
1.28
1.23
1.11
0.93
0.75
0.59
0.45
0.33
0.185
-0.01
-0.22
-0.395
-0.52
-0.63
-0.735
-0.815
-0.875
-0.905
-0.9
-0.89
-0.88
-0.87
-0.865
-0.88
-0.845
-0.8
-0.76
-0.72
-0.7
-0.685
-0.655
-0.635
-0.6
-0.575
-0.57
-0.555
-0.545
-0.52
-0.5
-0.495
-0.495
-0.51
-0.515
-0.505
-0.515
-0.505
-0.52
-0.525
-0.525
-0.53
-0.53
-0.535
-0.55
-0.535
-0.545
-0.545
-0.54
-0.555
-0.56
-0.575
-0.57
-0.555
-0.56
-0.57
-0.575
-0.58
-0.58
-0.57
-0.565
-0.565
-0.575
-0.585
-0.565
-0.55
-0.56
-0.555
-0.56
-0.565
-0.565
-0.55
-0.545
-0.535
-0.53
-0.525
-0.51
-0.49
-0.465
-0.47
-0.475
-0.455
-0.45
-0.425
-0.4
-0.395
-0.39
-0.39
-0.375
-0.34
-0.32
-0.3
-0.305
-0.295
-0.285
-0.255
-0.24
-0.23
-0.215
-0.215
-0.2
-0.18
-0.155
-0.16
-0.15
-0.15
-0.13
-0.12
-0.105
-0.1
-0.09
-0.095
-0.08
-0.07
-0.055
-0.065
-0.06
-0.075
-0.065
-0.045
-0.045
-0.065
-0.06
-0.06
-0.075
-0.07
-0.06
-0.07
-0.085
-0.105
-0.095
-0.085
-0.085
-0.095
-0.09
-0.125
-0.12
-0.115
-0.105
-0.115
-0.135
-0.15
-0.15
-0.135
-0.125
-0.13
-0.13
-0.13
-0.125
-0.11
-0.105
-0.105
-0.11
-0.125
-0.11
-0.1
-0.09
-0.085
-0.09
-0.1
-0.08
-0.065
-0.05
-0.055
-0.06
-0.05
-0.05
-0.04
-0.04
-0.06
-0.08
-0.08
-0.065
-0.05
-0.045
-0.05
-0.05
-0.07
-0.07
-0.055
-0.075
-0.1
-0.14
-0.17
-0.185
-0.2
-0.22
-0.23
-0.255
-0.275
-0.275
-0.275
-0.27
-0.27
-0.285
-0.295
-0.3
-0.28
-0.275
-0.26
-0.27
-0.28
-0.28
-0.275
-0.275
-0.27
-0.28
-0.285
-0.28
-0.285
-0.275
-0.27
-0.275
-0.285
-0.29
-0.265
-0.265
-0.25
-0.265
-0.285
-0.27
-0.26
-0.26
-0.255
-0.26
-0.265
-0.265
-0.245
-0.23
-0.23
-0.24
-0.255
-0.235
-0.23
-0.225
-0.215
-0.23
-0.25
-0.235
-0.24
-0.245
-0.275
-0.3
-0.315
-0.305
-0.265
-0.175
-0.045
0.075
0.185
0.31
0.405
0.48
0.565
0.685
0.805
0.94
1.095
1.225
1.335
1.39
1.405
1.405
1.405
1.39
1.29
1.125
0.935
0.76
0.625
0.485
0.35
0.185
-0.04
-0.23
-0.37
-0.475
-0.6
-0.71
-0.8
-0.835
-0.86
-0.865
-0.87
-0.865
-0.87
-0.845
-0.845
-0.815
-0.8
-0.77
-0.73
-0.69
-0.66
-0.625
-0.63
-0.61
-0.605
-0.565
-0.545
-0.515
-0.505
-0.51
-0.51
-0.485
-0.475
-0.465
-0.47
-0.475
-0.5
-0.49
-0.48
-0.48
-0.495
-0.5
-0.515
-0.515
-0.51
-0.505
-0.52
-0.53
-0.53
-0.53
-0.525
-0.525
-0.54
-0.54
-0.55
-0.555
-0.555
-0.545
-0.535
-0.545
-0.555
-0.55
-0.54
-0.54
-0.54
-0.54
-0.555
-0.55
-0.53
-0.53
-0.52
-0.52
-0.525
-0.51
-0.495
-0.485
-0.485
-0.485
-0.495
-0.475
-0.45
-0.45
-0.435
-0.43
-0.425
-0.4
-0.395
-0.37
-0.365
-0.365
-0.35
-0.335
-0.31
-0.29
-0.275
-0.265
-0.26
-0.25
-0.23
-0.205
-0.205
-0.185
-0.19
-0.17
-0.14
-0.125
-0.13
-0.125
-0.115
-0.105
-0.085
-0.075
-0.065
-0.07
-0.075
-0.06
-0.045
-0.03
-0.04
-0.045
-0.06
-0.05
-0.04
-0.035
-0.035
-0.045
-0.06
-0.055
-0.055
-0.055
-0.05
-0.08
-0.085
-0.08
-0.085
-0.09
-0.085
-0.095
-0.1
-0.11
-0.095
-0.11
-0.115
-0.115
-0.135
-0.13
-0.12
-0.12
-0.125
-0.14
-0.14
-0.12
-0.1
-0.095
-0.11
-0.12
-0.135
-0.11
-0.1
-0.1
-0.09
-0.095
-0.115
-0.095
-0.08
-0.07
-0.065
-0.06
-0.065
-0.06
-0.055
-0.04
-0.05
-0.085
-0.095
-0.08
-0.07
-0.05
-0.055
-0.06
-0.06
-0.05
-0.06
-0.05
-0.06
-0.08
-0.11
-0.125
-0.145
-0.16
-0.185
-0.21
-0.24
-0.24
-0.265
-0.26
-0.275
-0.285
-0.29
-0.29
-0.285
-0.285
-0.29
-0.3
-0.295
-0.29
-0.28
-0.28
-0.27
-0.275
-0.275
-0.28
-0.27
-0.265
-0.26
-0.255
-0.27
-0.27
-0.26
-0.265
-0.26
-0.275
-0.28
-0.265
-0.25
-0.235
-0.235
-0.255
-0.26
-0.255
-0.25
-0.245
-0.235
-0.25
-0.26
-0.245
-0.225
-0.22
-0.235
-0.235
-0.235
-0.23
-0.23
-0.22
-0.22
-0.235
-0.24
-0.255
-0.265
-0.285
-0.285
-0.28
-0.235
-0.145
-0.01
0.125
0.215
0.325
0.395
0.48
0.57
0.725
0.875
1.005
1.15
1.28
1.4
1.45
1.455
1.46
1.435
1.39
1.275
1.085
0.9
0.735
0.585
0.44
0.29
0.11
-0.11
-0.3
-0.46
-0.57
-0.68
-0.76
-0.825
-0.85
-0.865
-0.85
-0.835
-0.825
-0.83
-0.82
-0.82
-0.775
-0.715
-0.665
-0.665
-0.63
-0.62
-0.605
-0.575
-0.545
-0.525
-0.52
-0.51
-0.48
-0.46
-0.46
-0.445
-0.47
-0.48
-0.465
-0.465
-0.46
-0.475
-0.48
-0.475
-0.48
-0.495
-0.475
-0.495
-0.495
-0.51
-0.51
-0.505
-0.515
-0.515
-0.525
-0.53
-0.525
-0.52
-0.515
-0.53
-0.54
-0.545
-0.53
-0.535
-0.525
-0.53
-0.53
-0.545
-0.535
-0.535
-0.51
-0.51
-0.515
-0.525
-0.5
-0.485
-0.485
-0.475
-0.465
-0.47
-0.45
-0.435
-0.41
-0.405
-0.4
-0.395
-0.38
-0.355
-0.345
-0.335
-0.33
-0.33
-0.305
-0.29
-0.275
-0.265
-0.25
-0.245
-0.225
-0.21
-0.185
-0.175
-0.165
-0.16
-0.14
-0.135
-0.11
-0.1
-0.095
-0.1
-0.075
-0.06
-0.05
-0.055
-0.045
-0.05
-0.04
-0.03
-0.025
-0.015
-0.025
-0.045
-0.035
-0.04
-0.025
-0.045
-0.045
-0.07
-0.06
-0.065
-0.06
-0.065
-0.09
-0.085
-0.095
-0.08
-0.085
-0.105
-0.105
-0.12
-0.11
-0.105
-0.115
-0.11
-0.11
-0.125
-0.11
-0.1
-0.075
-0.075
-0.085
-0.1
-0.11
-0.105
-0.095
-0.075
-0.1
-0.11
-0.09
-0.085
-0.06
-0.055
-0.055
-0.06
-0.055
-0.045
-0.045
-0.035
-0.055
-0.07
-0.055
-0.055
-0.045
-0.05
-0.04
-0.055
-0.05
-0.045
-0.035
-0.045
