Lead II
-0.17
-0.19
-0.19
-0.16
-0.145
-0.125
-0.105
-0.11
-0.115
-0.12
-0.11
-0.08
-0.06
-0.03
-0.015
-0.02
0.005
0.03
0.06
0.105
0.13
0.17
0.21
0.275
0.335
0.385
0.45
0.515
0.595
0.675
0.775
0.85
0.91
0.995
1.075
1.15
1.205
1.22
1.205
1.205
1.215
1.225
1.22
1.16
1.085
1.04
0.97
0.88
0.795
0.685
0.565
0.49
0.43
0.415
0.37
0.355
0.31
0.295
0.285
0.295
0.345
0.375
0.41
0.445
0.43
0.34
0.17
-0.02
-0.195
-0.32
-0.38
-0.4
-0.415
-0.445
-0.505
-0.54
-0.57
-0.575
-0.57
-0.565
-0.58
-0.59
-0.61
-0.615
-0.62
-0.635
-0.675
-0.695
-0.695
-0.675
-0.655
-0.675
-0.705
-0.735
-0.75
-0.745
-0.75
-0.775
-0.805
-0.83
-0.83
-0.815
-0.805
-0.79
-0.825
-0.845
-0.87
-0.86
-0.865
-0.86
-0.88
-0.89
-0.89
-0.875
-0.875
-0.875
-0.895
-0.915
-0.905
-0.895
-0.88
-0.895
-0.905
-0.89
-0.88
-0.87
-0.835
-0.84
-0.835
-0.81
-0.76
-0.72
-0.685
-0.68
-0.69
-0.67
-0.65
-0.605
-0.575
-0.56
-0.535
-0.505
-0.48
-0.46
-0.435
-0.425
-0.43
-0.43
-0.395
-0.35
-0.34
-0.335
-0.345
-0.355
-0.325
-0.295
-0.265
-0.255
-0.265
-0.265
-0.265
-0.255
-0.235
-0.225
-0.25
-0.26
-0.26
-0.245
-0.215
-0.18
-0.19
-0.205
-0.2
-0.18
-0.145
-0.165
-0.165
-0.185
-0.175
-0.16
-0.175
-0.17
-0.18
-0.18
-0.175
-0.175
-0.15
-0.15
-0.18
-0.19
-0.18
-0.165
-0.145
-0.15
-0.16
-0.18
-0.175
-0.16
-0.145
-0.155
-0.17
-0.16
-0.155
-0.13
-0.12
-0.135
-0.15
-0.145
-0.14
-0.125
-0.13
-0.15
-0.14
-0.135
-0.145
-0.13
-0.135
-0.14
-0.155
-0.155
-0.185
-0.175
-0.17
-0.16
-0.175
-0.185
-0.175
-0.145
-0.145
-0.16
-0.155
-0.18
-0.18
-0.155
-0.13
-0.13
-0.13
-0.15
-0.135
-0.115
-0.11
-0.11
-0.125
-0.15
-0.14
-0.12
-0.13
-0.14
-0.165
-0.165
-0.145
-0.12
-0.11
-0.125
-0.125
-0.14
-0.13
-0.12
-0.095
-0.095
-0.125
-0.12
-0.12
-0.13
-0.1
-0.115
-0.125
-0.145
-0.14
-0.12
-0.115
-0.115
-0.13
-0.13
-0.125
-0.105
-0.1
-0.115
-0.135
-0.155
-0.14
-0.12
-0.12
-0.105
-0.115
-0.11
-0.12
-0.115
-0.105
-0.105
-0.12
-0.11
-0.105
-0.09
-0.065
-0.075
-0.1
-0.145
-0.12
-0.125
-0.11
-0.1
-0.085
-0.075
-0.055
-0.03
-0.045
-0.065
-0.085
-0.085
-0.1
-0.075
-0.05
-0.03
-0.04
-0.06
-0.065
-0.02
-0.02
-0.03
-0.035
-0.015
0.04
0.105
0.195
0.275
0.375
0.5
0.67
0.88
1.105
1.31
1.505
1.63
1.72
1.675
1.505
1.22
0.9
0.58
0.265
0.02
-0.08
-0.095
-0.08
-0.055
-0.045
-0.045
-0.04
-0.07
-0.11
-0.125
-0.135
-0.115
-0.115
-0.135
-0.155
-0.165
-0.17
-0.175
-0.165
-0.16
-0.19
-0.2
-0.2
-0.19
-0.185
-0.2
-0.22
-0.245
-0.245
-0.215
-0.19
-0.195
-0.205
-0.215
-0.2
-0.215
-0.22
-0.215
-0.23
-0.22
-0.215
-0.19
-0.175
-0.175
-0.2
-0.22
-0.205
-0.19
-0.185
-0.185
-0.185
-0.17
-0.155
-0.13
-0.13
-0.125
-0.14
-0.145
-0.13
-0.115
-0.12
-0.12
-0.14
-0.125
-0.11
-0.095
-0.085
-0.085
-0.095
-0.1
-0.08
-0.07
-0.05
-0.05
-0.055
-0.055
-0.045
-0.03
-0.02
0.0
-0.015
-0.02
-0.015
-0.005
-0.015
-0.005
-0.005
-0.01
0.02
0.04
0.035
0.045
0.035
0.04
0.05
0.08
0.09
0.075
0.055
0.03
0.045
0.03
0.03
0.015
-0.005
-0.005
0.01
0.02
0.0
-0.025
-0.05
-0.075
-0.085
-0.085
-0.075
-0.095
-0.11
-0.125
-0.135
-0.12
-0.11
-0.115
-0.14
-0.135
-0.11
-0.095
-0.1
-0.11
-0.12
-0.13
-0.105
-0.105
-0.1
-0.115
-0.13
-0.135
-0.125
-0.11
-0.11
-0.115
-0.125
-0.125
-0.1
-0.075
-0.065
-0.085
-0.095
-0.115
-0.11
-0.1
-0.06
-0.065
-0.07
-0.075
-0.07
-0.065
-0.055
-0.06
-0.08
-0.09
-0.08
-0.075
-0.07
-0.07
-0.08
-0.1
-0.09
-0.09
-0.08
-0.095
-0.1
-0.115
-0.11
-0.06
-0.04
-0.055
-0.075
-0.1
-0.085
-0.055
-0.045
-0.065
-0.09
-0.095
-0.09
-0.065
-0.065
-0.075
-0.09
-0.095
-0.075
-0.06
-0.07
-0.06
-0.08
-0.08
-0.06
-0.045
-0.055
-0.07
-0.09
-0.105
-0.105
-0.095
-0.07
-0.085
-0.11
-0.115
-0.13
-0.11
-0.085
-0.085
-0.11
-0.11
-0.09
-0.095
-0.085
-0.085
-0.095
-0.09
-0.1
-0.085
-0.08
-0.08
-0.03
0.025
0.115
0.21
0.33
0.455
0.615
0.805
1.05
1.27
1.48
1.645
1.725
1.68
1.55
1.325
1.06
0.75
0.43
0.115
-0.07
-0.12
-0.09
-0.07
-0.07
-0.08
-0.095
-0.11
-0.12
-0.155
-0.185
-0.19
-0.2
-0.195
-0.185
-0.19
-0.205
-0.22
-0.22
-0.21
-0.23
-0.245
-0.275
-0.29
-0.295
-0.3
-0.285
-0.265
-0.255
-0.25
-0.25
-0.255
-0.225
-0.24
-0.26
-0.275
-0.27
-0.265
-0.245
-0.25
-0.25
-0.25
-0.24
-0.24
-0.235
-0.235
-0.255
-0.26
-0.24
-0.22
-0.21
-0.215
-0.23
-0.23
-0.195
-0.16
-0.165
-0.16
-0.185
-0.185
-0.16
-0.135
-0.125
-0.145
-0.135
-0.14
-0.12
-0.125
-0.12
-0.115
-0.115
-0.11
-0.095
-0.08
-0.055
-0.075
-0.085
-0.09
-0.085
-0.08
-0.075
-0.065
-0.07
-0.075
-0.055
-0.04
-0.035
-0.045
-0.075
-0.07
-0.065
-0.045
-0.03
-0.035
-0.04
-0.055
-0.06
-0.065
-0.07
-0.08
-0.11
-0.11
-0.1
-0.095
-0.08
-0.11
-0.12
-0.15
-0.15
-0.135
-0.135
-0.16
-0.17
-0.18
-0.165
-0.175
-0.165
-0.17
-0.165
-0.17
-0.17
-0.18
-0.17
-0.16
-0.175
-0.18
-0.195
-0.19
-0.21
-0.21
-0.215
-0.235
-0.215
-0.21
-0.2
-0.195
-0.205
-0.215
-0.205
-0.205
-0.195
-0.21
-0.225
-0.2
-0.2
-0.18
-0.195
-0.21
-0.215
-0.2
-0.19
-0.15
-0.155
-0.165
-0.18
-0.17
-0.145
-0.135
-0.15
-0.14
-0.165
-0.155
-0.14
-0.115
-0.1
-0.135
-0.135
-0.155
-0.15
-0.15
-0.125
-0.12
-0.135
-0.14
-0.13
-0.13
-0.125
-0.145
-0.16
-0.15
-0.14
-0.125
-0.13
-0.13
-0.145
-0.15
-0.145
-0.14
-0.135
-0.16
-0.185
-0.185
-0.165
-0.145
-0.135
-0.16
-0.175
-0.185
-0.175
-0.145
-0.15
-0.165
-0.18
-0.195
-0.17
-0.145
-0.12
-0.13
-0.115
-0.07
0.015
0.115
0.225
0.395
0.57
0.765
1.005
1.245
1.445
1.615
1.685
1.635
1.51
1.295
1.025
0.715
0.4
0.105
-0.115
-0.2
-0.195
-0.165
-0.15
-0.145
-0.14
-0.16
-0.18
-0.195
-0.24
-0.245
-0.27
-0.255
-0.275
-0.28
-0.285
-0.3
-0.295
-0.29
-0.295
-0.31
-0.335
-0.355
-0.335
-0.3
-0.295
-0.3
-0.32
-0.345
-0.32
-0.31
-0.305
-0.32
-0.34
-0.34
-0.335
-0.325
-0.315
-0.31
-0.32
-0.345
-0.34
-0.315
-0.305
-0.33
-0.34
-0.34
-0.33
-0.3
-0.295
-0.31
-0.31
-0.305
-0.285
-0.28
-0.27
-0.25
-0.26
-0.27
-0.255
-0.245
-0.225
-0.215
-0.23
-0.23
-0.23
-0.2
-0.195
-0.19
-0.2
-0.205
-0.185
-0.17
-0.17
-0.17
-0.175
-0.185
-0.165
-0.145
-0.125
-0.125
-0.145
-0.14
-0.115
-0.105
-0.1
-0.115
-0.135
-0.115
-0.1
-0.1
-0.09
-0.09
-0.1
-0.11
-0.12
-0.095
-0.09
-0.105
-0.12
-0.15
-0.14
-0.15
-0.155
-0.175
-0.19
-0.195
-0.19
-0.185
-0.19
-0.22
-0.235
-0.25
-0.25
-0.25
-0.245
-0.275
-0.285
-0.31
-0.305
-0.28
-0.27
-0.295
-0.31
-0.3
-0.285
-0.265
-0.26
-0.265
-0.29
-0.29
-0.27
-0.255
-0.245
-0.255
-0.27
-0.28
-0.265
-0.255
-0.255
-0.245
-0.25
-0.255
-0.25
-0.235
-0.24
-0.25
-0.26
-0.235
-0.23
-0.21
-0.2
-0.235
-0.24
-0.24
-0.235
-0.22
-0.22
-0.225
-0.21
-0.22
-0.225
-0.2
-0.2
-0.215
-0.235
-0.25
-0.245
-0.24
-0.23
-0.265
-0.26
-0.27
-0.27
-0.26
-0.27
-0.275
-0.275
-0.285
-0.275
-0.26
-0.255
-0.26
-0.285
-0.3
-0.295
-0.275
-0.27
-0.29
-0.29
-0.3
-0.285
-0.265
-0.255
-0.28
-0.29
-0.31
-0.295
-0.28
-0.27
-0.285
-0.32
-0.325
-0.32
-0.295
-0.295
-0.315
-0.32
-0.31
-0.3
-0.29
-0.3
-0.31
-0.315
-0.295
-0.295
-0.285
-0.29
-0.285
-0.29
-0.29
-0.275
-0.28
-0.28
-0.295
-0.3
-0.3
-0.285
-0.28
-0.26
-0.25
-0.26
-0.265
-0.255
-0.24
-0.235
-0.255
-0.28
-0.285
-0.27
-0.25
-0.205
-0.185
-0.155
-0.095
0.01
0.11
0.265
0.405
0.565
0.78
0.995
1.195
1.345
1.4
1.315
1.135
0.875
0.6
0.31
0.015
-0.22
-0.325
-0.345
-0.3
-0.275
-0.27
-0.295
-0.32
-0.345
-0.34
-0.35
-0.37
-0.405
-0.41
-0.415
-0.405
-0.405
-0.43
-0.44
-0.45
-0.42
-0.405
-0.41
-0.435
-0.45
-0.47
-0.455
-0.455
-0.43
-0.44
-0.445
-0.445
-0.435
-0.43
-0.42
-0.425
-0.43
-0.425
-0.41
-0.4
-0.4
-0.41
-0.43
-0.445
-0.445
-0.425
-0.415
-0.42
-0.445
-0.435
-0.43
-0.41
-0.4
-0.425
-0.44
-0.435
-0.425
-0.42
-0.405
-0.41
-0.425
-0.415
-0.38
-0.385
-0.375
-0.38
-0.375
-0.365
-0.37
-0.34
-0.34
-0.35
-0.34
-0.34
-0.335
-0.335
-0.32
-0.32
-0.32
-0.295
-0.29
-0.275
-0.25
-0.275
-0.275
-0.27
-0.24
-0.225
-0.23
-0.235
-0.245
-0.245
-0.24
-0.235
-0.215
-0.22
-0.235
-0.25
-0.25
-0.245
-0.245
-0.265
-0.29
-0.305
-0.3
-0.3
-0.29
-0.3
-0.325
-0.345
-0.345
-0.33
-0.335
-0.37
-0.37
-0.38
-0.38
-0.37
-0.375
-0.395
-0.425
-0.42
-0.42
-0.395
-0.4
-0.395
-0.415
-0.395
-0.385
-0.365
-0.355
-0.36
-0.36
-0.34
-0.31
-0.275
-0.24
-0.235
-0.23
-0.22
-0.185
-0.15
-0.105
-0.045
0.0
0.06
0.13
0.195
0.25
0.32
0.385
0.47
0.56
0.66
0.76
0.855
0.94
0.99
1.045
1.045
1.055
1.035
1.01
1.0
0.985
0.95
0.875
0.79
0.68
0.59
0.48
0.39
0.295
0.205
0.16
0.1
0.09
0.1
0.085
0.05
0.015
0.035
0.075
0.14
0.19
0.185
0.13
-0.005
-0.17
-0.335
-0.455
-0.555
-0.615
-0.64
-0.67
-0.665
-0.7
-0.735
-0.765
-0.785
-0.785
-0.78
-0.78
-0.8
-0.825
-0.835
-0.84
-0.835
-0.83
-0.84
-0.87
-0.875
-0.88
-0.87
-0.875
-0.9
-0.91
-0.93
-0.93
-0.95
-0.92
-0.925
-0.935
-0.95
-0.95
-0.94
-0.935
-0.955
-0.98
-0.99
-0.98
-0.97
-0.975
-0.975
-0.985
-0.985
-0.975
-0.96
-0.95
-0.965
-0.96
-0.955
-0.94
-0.915
-0.905
-0.905
-0.905
-0.905
-0.885
-0.865
-0.845
-0.835
-0.835
-0.82
-0.79
-0.765
-0.725
-0.705
-0.71
-0.685
-0.64
-0.61
-0.58
-0.575
-0.56
-0.555
-0.53
-0.53
-0.51
-0.515
-0.515
-0.51
-0.47
-0.44
-0.445
-0.45
-0.445
-0.44
-0.415
-0.395
-0.395
-0.395
-0.42
-0.41
-0.395
-0.38
-0.385
-0.375
-0.395
-0.405
-0.36
-0.355
-0.33
-0.345
-0.36
-0.365
-0.37
-0.35
-0.35
-0.345
-0.365
-0.355
-0.345
-0.31
-0.31
-0.305
-0.33
-0.34
-0.34
-0.33
-0.325
-0.33
-0.35
-0.34
-0.345
-0.315
-0.305
-0.31
-0.31
-0.31
-0.295
-0.28
-0.265
-0.28
-0.285
-0.275
-0.255
-0.235
-0.24
-0.25
-0.255
-0.265
-0.265
-0.255
-0.25
-0.255
-0.265
-0.27
-0.26
-0.255
-0.26
-0.275
-0.285
-0.295
-0.28
-0.27
-0.265
-0.27
-0.275
-0.295
-0.29
-0.275
-0.27
-0.29
-0.29
-0.29
-0.285
-0.27
-0.295
-0.285
-0.3
-0.295
-0.275
-0.245
-0.24
-0.23
-0.245
-0.265
-0.27
-0.27
-0.26
-0.265
-0.285
-0.28
-0.27
-0.255
-0.255
-0.28
-0.28
-0.29
-0.27
-0.255
-0.255
-0.255
-0.275
-0.265
-0.245
-0.245
-0.25
-0.26
-0.27
-0.29
-0.275
-0.25
-0.255
-0.255
-0.265
-0.26
-0.255
-0.255
-0.245
-0.24
-0.245
-0.27
-0.255
-0.25
-0.24
-0.25
-0.265
-0.265
-0.275
-0.255
-0.23
-0.225
-0.235
-0.25
-0.25
-0.235
-0.245
-0.24
-0.25
-0.235
-0.235
-0.225
-0.215
-0.24
-0.255
-0.265
-0.26
-0.24
-0.25
-0.26
-0.255
-0.26
-0.245
-0.23
-0.235
-0.24
-0.275
-0.3
-0.285
-0.255
-0.245
-0.255
-0.255
-0.27
-0.255
-0.25
-0.235
-0.225
-0.245
-0.235
-0.23
-0.21
-0.21
-0.21
-0.225
-0.22
-0.205
-0.19
-0.165
-0.16
-0.165
-0.15
-0.115
-0.055
0.02
0.115
0.22
0.35
0.53
0.725
0.945
1.125
1.25
1.29
1.21
1.02
0.725
0.405
0.1
-0.145
-0.295
-0.34
-0.3
-0.275
-0.29
-0.29
-0.27
-0.27
-0.27
-0.3
-0.31
-0.32
-0.325
-0.315
-0.315
-0.32
-0.345
-0.33
-0.32
-0.3
-0.28
-0.31
-0.35
-0.335
-0.315
-0.31
-0.3
-0.31
-0.325
-0.35
-0.34
-0.3
-0.31
-0.32
-0.335
-0.345
-0.325
-0.295
-0.28
-0.305
-0.345
-0.35
-0.335
-0.32
-0.315
-0.32
-0.33
-0.33
-0.325
-0.32
-0.31
-0.305
-0.32
-0.335
-0.335
-0.305
-0.285
-0.27
-0.285
-0.305
-0.31
-0.275
-0.25
-0.245
-0.235
-0.225
-0.205
-0.205
-0.195
-0.22
-0.235
-0.225
-0.205
-0.185
-0.17
-0.18
-0.17
-0.165
-0.145
-0.135
-0.135
-0.14
-0.15
-0.145
-0.105
-0.08
-0.075
-0.09
-0.11
-0.105
-0.08
-0.07
-0.07
-0.08
-0.09
-0.09
-0.095
-0.09
-0.09
-0.105
-0.135
-0.145
-0.13
-0.13
-0.135
-0.155
-0.18
-0.19
-0.18
-0.17
-0.185
-0.195
-0.215
-0.22
-0.205
-0.19
-0.195
-0.2
-0.215
-0.225
-0.21
-0.215
-0.22
-0.2
-0.22
-0.21
-0.21
-0.195
-0.185
-0.195
-0.21
-0.2
-0.2
-0.175
-0.17
-0.16
-0.17
-0.175
-0.155
-0.13
-0.135
-0.15
-0.165
-0.16
-0.135
-0.12
-0.12
-0.125
-0.135
-0.14
-0.14
-0.135
-0.125
-0.145
-0.155
-0.16
-0.155
-0.14
-0.14
-0.155
-0.15
-0.17
-0.155
-0.125
-0.13
-0.135
-0.145
-0.145
-0.13
-0.13
-0.135
-0.17
-0.19
-0.185
-0.17
-0.175
-0.155
-0.17
-0.18
-0.175
-0.175
-0.145
-0.135
-0.145
-0.155
-0.175
-0.17
-0.15
-0.155
-0.16
-0.165
-0.17
-0.175
-0.15
-0.155
-0.165
-0.175
-0.175
-0.165
-0.16
-0.15
-0.15
-0.16
-0.175
-0.18
-0.165
-0.15
-0.145
-0.155
-0.16
-0.14
-0.13
-0.135
-0.155
-0.17
-0.16
-0.14
-0.12
-0.125
-0.125
-0.14
-0.11
-0.07
-0.015
0.045
0.12
0.23
0.37
0.545
0.745
0.945
1.125
1.27
1.375
1.355
1.22
0.97
0.68
0.365
0.06
-0.175
-0.28
-0.27
-0.215
-0.19
-0.17
-0.16
-0.155
-0.155
-0.18
-0.205
-0.215
-0.215
-0.195
-0.22
-0.225
-0.24
-0.26
-0.23
-0.22
-0.215
-0.245
-0.24
-0.255
-0.24
-0.225
-0.215
-0.22
-0.225
-0.225
-0.23
-0.22
-0.21
-0.225
-0.22
-0.22
-0.215
-0.19
-0.19
-0.21
-0.22
-0.225
-0.215
-0.195
-0.2
-0.2
-0.215
-0.215
-0.195
-0.19
-0.19
-0.185
-0.2
-0.205
-0.19
-0.165
-0.165
-0.17
-0.175
-0.17
-0.16
-0.14
-0.12
-0.125
-0.115
-0.11
-0.085
-0.07
-0.075
-0.085
-0.11
-0.09
-0.075
-0.065
-0.065
-0.055
-0.055
-0.08
-0.07
-0.03
-0.02
-0.02
-0.03
-0.04
-0.03
-0.015
-0.005
-0.035
-0.05
-0.065
-0.05
-0.035
-0.04
-0.04
-0.075
-0.08
-0.09
-0.09
-0.08
-0.09
-0.12
-0.135
-0.125
-0.125
-0.11
-0.135
-0.155
-0.16
-0.16
-0.145
-0.15
-0.145
-0.165
-0.165
-0.14
-0.14
-0.145
-0.13
-0.16
-0.135
-0.11
-0.1
-0.115
-0.105
-0.115
-0.12
-0.11
-0.095
-0.09
-0.105
-0.095
-0.1
-0.075
-0.055
-0.04
-0.025
-0.01
-0.005
0.02
0.06
0.06
0.08
0.105
0.155
0.225
0.29
0.355
0.4
0.47
0.55
0.64
0.725
0.795
0.865
0.935
0.995
1.065
1.105
1.135
1.115
1.105
1.085
1.09
1.06
1.02
0.93
0.84
0.76
0.675
0.575
0.495
0.415
0.345
0.28
0.265
0.27
0.255
0.245
0.235
0.285
0.355
0.42
0.455
0.415
0.29
0.095
-0.075
-0.21
-0.295
-0.34
-0.375
-0.38
-0.395
-0.42
-0.45
-0.46
-0.505
-0.505
-0.51
-0.5
-0.505
-0.52
-0.55
-0.56
-0.57
-0.565
-0.58
-0.61
-0.65
-0.65
-0.65
-0.65
-0.655
-0.68
-0.705
-0.715
-0.72
-0.73
-0.735
-0.74
-0.76
-0.755
-0.745
-0.73
-0.735
-0.765
-0.785
-0.78
-0.76
-0.74
-0.75
-0.745
-0.745
-0.745
-0.725
-0.7
-0.69
-0.67
-0.675
-0.665
-0.635
-0.59
-0.56
-0.545
-0.545
-0.525
-0.49
-0.455
-0.425
-0.4
-0.385
-0.365
-0.325
-0.295
-0.275
-0.28
-0.275
-0.275
-0.26
-0.22
-0.22
-0.23
-0.225
-0.22
-0.22
-0.2
-0.195
-0.205
-0.23
-0.22
-0.21
-0.2
-0.2
-0.215
-0.23
-0.24
-0.24
-0.21
-0.195
-0.215
-0.24
-0.24
-0.225
-0.2
-0.2
-0.205
-0.22
-0.225
-0.21
-0.195
-0.19
-0.205
-0.205
-0.205
-0.185
-0.17
-0.16
-0.16
-0.175
-0.155
-0.165
-0.15
-0.15
-0.155
-0.17
-0.165
-0.16
-0.14
-0.14
-0.135
-0.165
-0.145
-0.145
-0.13
-0.14
-0.15
-0.17
-0.165
-0.15
-0.14
-0.155
-0.145
-0.17
-0.165
-0.165
-0.145
-0.16
-0.155
-0.16
-0.165
-0.15
-0.13
-0.115
-0.15
-0.16
-0.155
-0.155
-0.125
-0.13
-0.15
-0.16
-0.145
-0.135
-0.13
-0.13
-0.145
-0.15
-0.145
-0.13
-0.105
-0.105
-0.12
-0.14
-0.12
-0.115
-0.095
-0.1
-0.11
-0.125
-0.125
-0.115
-0.12
-0.12
-0.135
-0.135
-0.15
-0.135
-0.115
-0.115
-0.12
-0.135
-0.145
-0.125
-0.105
-0.11
-0.115
-0.15
-0.145
-0.13
-0.13
-0.115
-0.135
-0.14
-0.15
-0.135
-0.14
-0.135
-0.14
-0.15
-0.14
-0.145
-0.125
-0.13
-0.135
-0.145
-0.13
-0.12
-0.11
-0.115
-0.115
-0.135
-0.13
-0.12
-0.11
-0.115
-0.12
-0.105
-0.11
-0.105
-0.115
-0.115
-0.115
-0.12
-0.125
-0.115
-0.1
-0.09
-0.105
-0.115
-0.105
-0.095
-0.11
-0.11
-0.13
-0.125
-0.11
-0.1
-0.08
-0.105
-0.105
-0.12
-0.115
-0.105
-0.095
-0.1
-0.1
-0.11
-0.125
-0.12
-0.095
-0.105
-0.1
-0.14
-0.135
-0.125
-0.105
-0.095
-0.11
-0.13
-0.13
-0.12
-0.105
-0.105
-0.11
-0.115
-0.11
-0.09
-0.08
-0.08
-0.085
-0.09
-0.115
-0.1
-0.075
-0.06
-0.065
-0.085
-0.075
-0.045
-0.01
0.05
0.115
0.175
0.26
0.37
0.525
0.695
0.845
1.0
1.16
1.315
1.38
1.305
1.105
0.83
0.545
0.305
0.095
-0.045
-0.11
-0.115
-0.09
-0.06
-0.07
-0.095
-0.12
-0.14
-0.15
-0.175
-0.16
-0.145
-0.155
-0.19
-0.19
-0.19
-0.17
-0.2
-0.205
-0.215
-0.22
-0.205
-0.21
-0.21
-0.23
-0.25
-0.25
-0.235
-0.21
-0.2
-0.215
-0.225
-0.215
-0.2
-0.18
-0.18
-0.18
-0.19
-0.215
-0.21
-0.2
-0.195
-0.19
-0.2
-0.195
-0.19
-0.175
-0.17
-0.19
-0.19
-0.2
-0.19
-0.16
-0.17
-0.16
-0.18
-0.19
-0.165
-0.14
-0.155
-0.15
-0.155
-0.15
-0.135
-0.11
-0.105
-0.11
-0.13
-0.135
-0.105
-0.095
-0.08
-0.095
-0.095
-0.09
-0.085
-0.07
-0.07
-0.085
-0.085
-0.09
-0.06
-0.03
-0.015
-0.04
-0.025
-0.015
-0.015
-0.005
0.025
0.01
0.0
0.015
0.035
0.045
0.045
0.03
0.015
0.01
0.015
0.015
0.005
-0.01
-0.03
-0.03
-0.025
-0.025
-0.035
-0.06
-0.085
-0.09
-0.1
-0.075
-0.08
-0.1
-0.12
-0.12
-0.105
-0.105
-0.11
-0.125
-0.145
-0.16
-0.145
-0.135
-0.14
-0.15
-0.16
-0.16
-0.15
-0.135
-0.135
-0.14
-0.145
-0.135
-0.115
-0.1
-0.095
-0.105
-0.115
-0.12
-0.115
-0.1
-0.09
-0.095
-0.105
-0.11
-0.1
-0.09
-0.085
-0.095
-0.115
-0.105
-0.09
-0.08
-0.08
-0.095
-0.11
-0.11
-0.11
-0.095
-0.095
-0.115
-0.115
-0.115
-0.11
-0.115
-0.11
-0.135
-0.14
-0.145
-0.13
-0.11
-0.115
-0.125
-0.145
-0.145
-0.125
-0.115
-0.12
-0.135
-0.155
-0.145
-0.15
-0.125
-0.115
-0.125
-0.145
-0.13
-0.125
-0.115
-0.12
-0.14
-0.145
-0.165
-0.15
-0.12
-0.12
-0.12
-0.13
-0.14
-0.135
-0.13
-0.135
-0.135
-0.135
-0.145
-0.125
-0.125
-0.135
-0.14
-0.165
-0.155
-0.15
-0.13
-0.125
-0.155
-0.165
-0.175
-0.165
-0.14
-0.14
-0.155
-0.155
-0.175
-0.16
-0.15
-0.165
-0.175
-0.185
-0.17
-0.145
-0.14
-0.14
-0.155
-0.185
-0.175
-0.155
-0.14
-0.145
-0.14
-0.16
-0.16
-0.14
-0.125
-0.13
-0.135
-0.155
-0.15
-0.15
-0.135
-0.13
-0.15
-0.155
-0.165
-0.15
-0.14
-0.135
-0.135
-0.14
-0.135
-0.125
-0.12
-0.14
-0.155
-0.175
-0.17
-0.155
-0.115
-0.11
-0.135
-0.155
-0.16
-0.15
-0.13
-0.125
-0.15
-0.185
-0.155
-0.125
-0.115
-0.12
-0.125
-0.14
-0.135
-0.07
-0.005
0.045
0.095
0.18
0.305
0.455
0.625
0.805
0.985
1.125
1.245
1.295
1.235
1.065
0.845
0.58
0.33
0.1
-0.06
-0.17
-0.215
-0.22
-0.205
-0.185
-0.145
-0.14
-0.185
-0.2
-0.22
-0.23
-0.215
-0.215
-0.23
-0.24
-0.235
-0.225
-0.235
-0.24
-0.245
-0.265
-0.28
-0.27
-0.255
-0.28
-0.28
-0.305
-0.31
-0.295
-0.28
-0.295
-0.29
-0.305
-0.295
-0.27
-0.265
-0.265
-0.275
-0.285
-0.27
-0.26
-0.255
-0.27
-0.27
-0.26
-0.255
-0.25
-0.23
-0.24
-0.245
-0.27
-0.28
-0.27
-0.255
-0.23
-0.23
-0.24
-0.25
-0.23
-0.21
-0.2
-0.195
-0.19
-0.175
-0.155
-0.135
-0.145
-0.165
-0.185
-0.185
-0.18
-0.155
-0.135
-0.145
-0.155
-0.145
-0.15
-0.14
-0.135
-0.14
-0.145
-0.145
-0.155
-0.135
-0.12
-0.12
-0.13
-0.105
-0.075
-0.065
-0.07
-0.06
-0.065
-0.07
-0.085
-0.07
-0.085
-0.105
-0.09
-0.09
-0.085
-0.075
-0.09
-0.11
-0.14
-0.15
-0.16
-0.145
-0.165
-0.14
-0.165
-0.155
-0.155
-0.145
-0.135
-0.135
-0.16
-0.165
-0.16
-0.15
-0.14
-0.165
-0.165
-0.17
-0.16
-0.16
-0.14
-0.145
-0.145
-0.14
-0.085
-0.055
-0.025
-0.01
0.0
0.03
0.075
0.135
0.21
0.265
0.32
0.375
0.455
0.535
0.595
0.655
0.7
0.775
0.845
0.935
1.01
1.07
1.105
1.14
1.145
1.145
1.14
1.12
1.085
1.025
0.98
0.895
0.805
0.715
0.61
0.49
0.41
0.34
0.29
0.235
0.205
0.195
0.195
0.195
0.18
0.17
0.175
0.21
0.255
0.245
0.23
0.115
-0.035
-0.17
-0.25
-0.325
-0.38
-0.425
-0.45
-0.46
-0.46
-0.475
-0.485
-0.505
-0.53
-0.55
-0.55
-0.555
-0.565
-0.59
-0.63
-0.63
-0.615
-0.62
-0.625
-0.65
-0.66
-0.67
-0.665
-0.665
-0.66
-0.7
-0.725
-0.725
-0.71
-0.705
-0.725
-0.73
-0.745
-0.75
-0.755
-0.74
-0.76
-0.77
-0.785
-0.785
-0.775
-0.755
-0.77
-0.785
-0.805
-0.81
-0.82
-0.805
-0.8
-0.785
-0.79
-0.78
-0.765
-0.74
-0.725
-0.735
-0.735
-0.695
-0.67
-0.64
-0.64
-0.65
-0.645
-0.62
-0.58
-0.565
-0.55
-0.535
-0.535
-0.52
-0.485
-0.445
-0.43
-0.415
-0.42
-0.425
-0.39
-0.36
-0.34
-0.34
-0.34
-0.32
-0.3
-0.29
-0.27
-0.285
-0.295
-0.29
-0.27
-0.255
-0.255
-0.265
-0.255
-0.255
-0.23
-0.215
-0.22
-0.225
-0.24
-0.255
-0.235
-0.21
-0.22
-0.24
-0.245
-0.24
-0.24
-0.21
-0.21
-0.195
-0.2
-0.195
-0.19
-0.165
-0.18
-0.19
-0.215
-0.185
-0.18
-0.16
-0.17
-0.165
-0.17
-0.155
-0.14
-0.125
-0.13
-0.16
-0.17
-0.165
-0.145
-0.125
-0.125
-0.135
-0.155
-0.17
-0.165
-0.14
-0.14
-0.15
-0.16
-0.16
-0.145
-0.145
-0.145
-0.155
-0.18
-0.185
-0.165
-0.145
-0.145
-0.155
-0.175
-0.175
-0.165
-0.16
-0.165
-0.165
-0.16
-0.16
-0.135
-0.13
-0.14
-0.16
-0.175
-0.165
-0.14
-0.145
-0.125
-0.12
-0.15
-0.135
-0.14
-0.12
-0.125
-0.13
-0.14
-0.13
-0.12
-0.1
-0.105
-0.125
-0.155
-0.145
-0.135
-0.12
-0.125
-0.14
-0.155
-0.15
-0.14
-0.12
-0.12
-0.12
-0.13
-0.135
-0.12
-0.105
-0.13
-0.115
-0.145
-0.16
-0.135
-0.125
-0.13
-0.14
-0.15
-0.17
-0.15
-0.14
-0.145
-0.155
-0.155
-0.145
-0.125
-0.12
-0.14
-0.155
-0.165
-0.18
-0.145
-0.135
-0.135
-0.155
-0.165
-0.16
-0.135
-0.125
-0.115
-0.125
-0.14
-0.145
-0.135
-0.12
-0.125
-0.13
-0.15
-0.145
-0.135
-0.135
-0.135
-0.175
-0.17
-0.165
-0.14
-0.115
-0.11
-0.12
-0.14
-0.145
-0.145
-0.125
-0.125
-0.155
-0.165
-0.175
-0.16
-0.14
-0.135
-0.135
-0.145
-0.14
-0.14
-0.125
-0.13
-0.155
-0.155
-0.165
-0.15
-0.12
-0.115
-0.135
-0.17
-0.155
-0.15
-0.12
-0.125
-0.135
-0.135
-0.135
-0.125
-0.105
-0.105
-0.135
-0.125
-0.115
-0.105
-0.105
-0.115
-0.13
-0.14
-0.12
-0.105
-0.08
-0.08
-0.095
-0.125
-0.13
-0.125
-0.1
-0.1
-0.11
-0.115
-0.115
-0.075
-0.045
0.0
0.035
0.095
0.195
0.325
0.46
0.605
0.77
0.94
1.135
1.305
1.4
1.385
1.27
1.05
0.785
0.54
0.305
0.075
-0.09
-0.2
-0.225
-0.205
-0.16
-0.13
-0.15
-0.15
-0.165
-0.165
-0.155
-0.175
-0.19
-0.205
-0.2
-0.195
-0.175
-0.18
-0.2
-0.215
-0.22
-0.195
-0.18
-0.205
-0.21
-0.22
-0.23
-0.215
-0.21
-0.22
-0.235
-0.25
-0.25
-0.235
-0.21
-0.23
-0.25
-0.25
-0.245
-0.235
-0.22
-0.235
-0.24
-0.255
-0.25
-0.225
-0.225
-0.235
-0.23
-0.245
-0.24
-0.21
-0.215
-0.225
-0.23
-0.235
-0.245
-0.25
-0.245
-0.235
-0.245
-0.25
-0.225
-0.205
-0.185
-0.19
-0.195
-0.2
-0.18
-0.16
-0.135
-0.11
-0.13
-0.14
-0.14
-0.13
-0.11
-0.11
-0.115
-0.13
-0.125
-0.095
-0.09
-0.105
-0.13
-0.14
-0.11
-0.07
-0.045
-0.06
-0.08
-0.085
-0.085
-0.065
-0.04
-0.055
-0.095
-0.105
-0.09
-0.055
-0.035
-0.035
-0.045
-0.065
-0.06
-0.035
-0.04
-0.06
-0.04
-0.06
-0.07
-0.06
-0.065
-0.08
-0.1
-0.105
-0.115
-0.09
-0.095
-0.095
-0.115
-0.13
-0.145
-0.125
-0.115
-0.12
-0.145
-0.14
-0.135
-0.135
-0.12
-0.115
-0.14
-0.17
-0.145
-0.125
-0.11
-0.135
-0.165
-0.165
-0.155
-0.145
-0.125
-0.135
-0.16
-0.155
-0.165
-0.16
-0.155
-0.165
-0.165
-0.175
-0.175
-0.16
-0.14
-0.135
-0.15
-0.165
-0.18
-0.155
-0.13
-0.135
-0.14
-0.18
-0.16
-0.14
-0.135
-0.125
-0.14
-0.145
-0.165
-0.145
-0.125
-0.135
-0.14
-0.15
-0.165
-0.145
-0.125
-0.115
-0.125
-0.11
-0.12
-0.13
-0.125
-0.135
-0.165
-0.185
-0.165
-0.145
-0.135
-0.115
-0.14
-0.155
-0.16
-0.145
-0.13
-0.13
-0.16
-0.175
-0.18
-0.165
-0.14
-0.145
-0.135
-0.16
-0.135
-0.145
-0.14
-0.145
-0.14
-0.155
-0.145
-0.125
-0.105
-0.1
-0.095
-0.075
-0.03
0.035
0.12
0.2
0.32
0.46
0.625
0.825
1.005
1.18
1.305
1.315
1.23
1.045
0.8
0.51
0.205
-0.085
-0.305
-0.38
-0.335
-0.28
-0.235
-0.24
-0.235
-0.205
-0.185
-0.205
-0.24
-0.27
-0.25
-0.24
-0.23
-0.23
-0.245
-0.275
-0.285
-0.28
-0.26
-0.265
-0.265
-0.27
-0.29
-0.285
-0.27
-0.28
-0.29
-0.295
-0.3
-0.285
-0.27
-0.28
-0.285
-0.29
-0.29
-0.27
-0.25
-0.26
-0.265
-0.285
-0.27
-0.26
-0.255
-0.25
-0.265
-0.28
-0.265
-0.24
-0.24
-0.25
-0.265
-0.27
-0.275
-0.265
-0.245
-0.245
-0.235
-0.25
-0.25
-0.235
-0.21
-0.215
-0.225
-0.22
-0.21
-0.19
-0.18
-0.19
-0.195
-0.17
-0.185
-0.155
-0.145
-0.13
-0.14
-0.14
-0.13
-0.14
-0.135
-0.125
-0.135
-0.125
-0.12
-0.115
-0.08
-0.08
-0.09
-0.1
-0.1
-0.085
-0.065
-0.065
-0.095
-0.1
-0.11
-0.11
-0.105
-0.11
-0.14
-0.165
-0.17
-0.175
-0.15
-0.17
-0.205
-0.21
-0.215
-0.225
-0.23
-0.24
-0.24
-0.235
-0.235
-0.23
-0.225
-0.235
-0.24
-0.245
-0.24
-0.24
-0.22
-0.21
-0.22
-0.225
-0.24
-0.215
-0.205
-0.215
-0.22
-0.25
-0.24
-0.22
-0.2
-0.2
-0.205
-0.205
-0.205
-0.18
-0.17
-0.18
-0.18
-0.19
-0.19
-0.175
-0.155
-0.165
-0.185
-0.21
-0.2
-0.175
-0.16
-0.155
-0.16
-0.175
-0.175
-0.17
-0.17
-0.165
-0.18
-0.2
-0.195
-0.17
-0.17
-0.175
-0.18
-0.195
-0.195
-0.19
-0.155
-0.16
-0.185
-0.195
-0.195
-0.195
-0.18
-0.175
-0.185
-0.2
-0.195
-0.195
-0.18
-0.18
-0.2
-0.205
-0.205
-0.195
-0.21
-0.195
-0.2
-0.215
-0.185
-0.175
-0.17
-0.18
-0.195
-0.21
-0.215
-0.205
-0.18
-0.185
-0.195
-0.205
-0.21
-0.195
-0.17
-0.18
-0.195
-0.21
-0.205
-0.175
-0.165
-0.18
-0.185
-0.195
-0.185
-0.17
-0.155
-0.145
-0.175
-0.18
-0.185
-0.175
-0.185
-0.195
-0.205
-0.22
-0.215
-0.205
-0.195
-0.2
-0.205
-0.21
-0.22
-0.22
-0.2
-0.195
-0.205
-0.22
-0.215
-0.2
-0.185
-0.19
-0.2
-0.21
-0.195
-0.195
-0.16
-0.17
-0.175
-0.2
-0.2
-0.175
-0.165
-0.17
-0.205
-0.205
-0.195
-0.195
-0.175
