Lead II
-2.015
-1.905
-1.755
-1.635
-1.455
-1.32
-1.225
-1.135
-1.075
-1.045
-1.03
-1.0
-1.005
-0.985
-0.995
-0.985
-0.98
-0.985
-0.98
-0.97
-0.965
-0.955
-0.965
-0.95
-0.955
-0.955
-0.965
-0.97
-0.975
-0.99
-1.0
-1.0
-1.01
-1.015
-1.015
-1.025
-1.05
-1.07
-1.095
-1.1
-1.12
-1.12
-1.145
-1.155
-1.15
-1.165
-1.16
-1.17
-1.195
-1.195
-1.205
-1.24
-1.245
-1.27
-1.285
-1.29
-1.265
-1.265
-1.265
-1.265
-1.255
-1.25
-1.265
-1.275
-1.275
-1.29
-1.29
-1.285
-1.27
-1.265
-1.245
-1.225
-1.2
-1.185
-1.17
-1.17
-1.17
-1.155
-1.155
-1.13
-1.1
-1.085
-1.06
-1.015
-0.995
-0.97
-0.96
-0.94
-0.95
-0.93
-0.91
-0.905
-0.895
-0.875
-0.86
-0.845
-0.825
-0.815
-0.83
-0.83
-0.82
-0.82
-0.805
-0.805
-0.8
-0.8
-0.785
-0.78
-0.775
-0.78
-0.785
-0.785
-0.8
-0.8
-0.815
-0.805
-0.795
-0.81
-0.815
-0.82
-0.815
-0.81
-0.82
-0.835
-0.83
-0.845
-0.845
-0.86
-0.88
-0.845
-0.84
-0.855
-0.84
-0.85
-0.85
-0.865
-0.885
-0.885
-0.88
-0.895
-0.88
-0.885
-0.875
-0.865
-0.86
-0.855
-0.885
-0.88
-0.885
-0.9
-0.905
-0.905
-0.895
-0.885
-0.87
-0.855
-0.845
-0.86
-0.85
-0.865
-0.875
-0.875
-0.89
-0.89
-0.88
-0.88
-0.875
-0.87
-0.855
-0.845
-0.845
-0.84
-0.835
-0.865
-0.88
-0.885
-0.885
-0.865
-0.845
-0.835
-0.83
-0.82
-0.825
-0.815
-0.83
-0.85
-0.84
-0.85
-0.835
-0.82
-0.815
-0.8
-0.8
-0.785
-0.78
-0.755
-0.75
-0.745
-0.735
-0.705
-0.69
-0.685
-0.66
-0.65
-0.635
-0.625
-0.62
-0.615
-0.605
-0.59
-0.605
-0.61
-0.605
-0.615
-0.645
-0.675
-0.68
-0.685
-0.69
-0.675
-0.66
-0.67
-0.64
-0.62
-0.605
-0.625
-0.67
-0.725
-0.75
-0.78
-0.79
-0.815
-0.83
-0.86
-0.88
-0.88
-0.89
-0.875
-0.865
-0.855
-0.85
-0.86
-0.86
-0.865
-0.88
-0.895
-0.91
-0.9
-0.885
-0.895
-0.88
-0.865
-0.87
-0.88
-0.87
-0.875
-0.9
-0.9
-0.895
-0.89
-0.895
-0.88
-0.88
-0.89
-0.895
-0.905
-0.92
-0.91
-0.86
-0.75
-0.59
-0.405
-0.22
-0.08
-0.015
-0.01
-0.04
-0.035
0.055
0.215
0.44
0.625
0.735
0.705
0.465
0.025
-0.525
-1.08
-1.525
-1.825
-1.985
-2.06
-2.105
-2.155
-2.215
-2.25
-2.3
-2.315
-2.305
-2.3
-2.295
-2.28
-2.26
-2.25
-2.22
-2.2
-2.115
-2.0
-1.86
-1.665
-1.485
-1.335
-1.205
-1.105
-1.055
-1.035
-1.02
-1.005
-1.0
-0.98
-0.96
-0.925
-0.905
-0.915
-0.9
-0.89
-0.885
-0.89
-0.9
-0.92
-0.925
-0.935
-0.94
-0.915
-0.91
-0.9
-0.9
-0.91
-0.93
-0.935
-0.95
-0.975
-1.005
-1.015
-1.03
-1.035
-1.035
-1.05
-1.055
-1.065
-1.07
-1.085
-1.085
-1.11
-1.125
-1.135
-1.17
-1.165
-1.165
-1.165
-1.16
-1.17
-1.175
-1.185
-1.19
-1.195
-1.19
-1.195
-1.19
-1.175
-1.18
-1.175
-1.155
-1.145
-1.135
-1.14
-1.125
-1.115
-1.085
-1.06
-1.045
-1.01
-1.005
-0.97
-0.955
-0.93
-0.925
-0.91
-0.91
-0.9
-0.885
-0.865
-0.86
-0.82
-0.82
-0.79
-0.765
-0.775
-0.78
-0.765
-0.775
-0.78
-0.78
-0.765
-0.77
-0.755
-0.755
-0.745
-0.73
-0.735
-0.735
-0.75
-0.75
-0.77
-0.78
-0.795
-0.785
-0.78
-0.76
-0.75
-0.745
-0.74
-0.75
-0.76
-0.78
-0.79
-0.79
-0.79
-0.795
-0.8
-0.79
-0.785
-0.77
-0.78
-0.78
-0.79
-0.79
-0.79
-0.805
-0.8
-0.79
-0.8
-0.8
-0.795
-0.79
-0.78
-0.78
-0.785
-0.8
-0.815
-0.805
-0.8
-0.79
-0.76
-0.77
-0.765
-0.76
-0.775
-0.76
-0.765
-0.765
-0.78
-0.785
-0.775
-0.775
-0.765
-0.77
-0.76
-0.745
-0.74
-0.735
-0.745
-0.755
-0.77
-0.765
-0.76
-0.765
-0.75
-0.75
-0.73
-0.725
-0.725
-0.705
-0.725
-0.755
-0.755
-0.77
-0.77
-0.775
-0.76
-0.73
-0.74
-0.725
-0.725
-0.72
-0.73
-0.74
-0.74
-0.745
-0.74
-0.725
-0.715
-0.71
-0.69
-0.665
-0.66
-0.63
-0.63
-0.63
-0.635
-0.62
-0.615
-0.6
-0.585
-0.58
-0.565
-0.56
-0.545
-0.52
-0.505
-0.49
-0.5
-0.5
-0.495
-0.52
-0.53
-0.56
-0.575
-0.59
-0.605
-0.595
-0.575
-0.57
-0.57
-0.555
-0.54
-0.545
-0.565
-0.595
-0.63
-0.64
-0.67
-0.7
-0.695
-0.74
-0.765
-0.78
-0.8
-0.795
-0.805
-0.795
-0.785
-0.795
-0.795
-0.81
-0.81
-0.805
-0.82
-0.825
-0.84
-0.835
-0.82
-0.82
-0.805
-0.795
-0.82
-0.815
-0.815
-0.82
-0.83
-0.82
-0.83
-0.83
-0.825
-0.815
-0.81
-0.795
-0.81
-0.825
-0.85
-0.85
-0.845
-0.83
-0.74
-0.595
-0.41
-0.22
-0.055
0.06
0.1
0.07
0.0
0.0
0.08
0.235
0.445
0.65
0.75
0.69
0.415
-0.075
-0.67
-1.215
-1.625
-1.915
-2.055
-2.12
-2.165
-2.195
-2.24
-2.25
-2.275
-2.265
-2.28
-2.275
-2.27
-2.245
-2.235
-2.22
-2.185
-2.125
-2.05
-1.9
-1.735
-1.565
-1.4
-1.265
-1.155
-1.075
-1.02
-0.985
-0.98
-0.955
-0.945
-0.955
-0.91
-0.865
-0.85
-0.86
-0.865
-0.88
-0.865
-0.87
-0.88
-0.88
-0.88
-0.885
-0.875
-0.87
-0.86
-0.87
-0.885
-0.885
-0.9
-0.925
-0.96
-0.945
-0.93
-0.95
-0.945
-0.935
-0.95
-0.96
-0.975
-1.005
-1.025
-1.045
-1.04
-1.06
-1.065
-1.065
-1.06
-1.07
-1.08
-1.105
-1.11
-1.135
-1.15
-1.16
-1.165
-1.155
-1.16
-1.165
-1.165
-1.145
-1.14
-1.15
-1.145
-1.155
-1.145
-1.14
-1.15
-1.14
-1.115
-1.095
-1.07
-1.05
-1.025
-1.025
-1.02
-0.995
-1.0
-0.965
-0.935
-0.925
-0.885
-0.875
-0.84
-0.815
-0.815
-0.82
-0.81
-0.81
-0.815
-0.795
-0.78
-0.77
-0.76
-0.755
-0.745
-0.725
-0.74
-0.725
-0.715
-0.73
-0.715
-0.73
-0.73
-0.735
-0.72
-0.74
-0.71
-0.705
-0.705
-0.73
-0.73
-0.74
-0.75
-0.745
-0.745
-0.755
-0.75
-0.77
-0.75
-0.735
-0.75
-0.745
-0.755
-0.77
-0.79
-0.79
-0.79
-0.805
-0.79
-0.78
-0.755
-0.725
-0.75
-0.76
-0.77
-0.785
-0.785
-0.78
-0.79
-0.79
-0.77
-0.765
-0.755
-0.73
-0.745
-0.76
-0.745
-0.755
-0.755
-0.76
-0.765
-0.77
-0.76
-0.76
-0.73
-0.735
-0.74
-0.725
-0.72
-0.73
-0.72
-0.72
-0.725
-0.725
-0.715
-0.73
-0.725
-0.71
-0.725
-0.735
-0.725
-0.74
-0.745
-0.74
-0.74
-0.725
-0.735
-0.715
-0.725
-0.71
-0.705
-0.705
-0.725
-0.73
-0.74
-0.745
-0.725
-0.725
-0.71
-0.7
-0.69
-0.645
-0.63
-0.63
-0.61
-0.62
-0.63
-0.64
-0.64
-0.62
-0.58
-0.565
-0.535
-0.52
-0.5
-0.5
-0.5
-0.48
-0.51
-0.53
-0.555
-0.58
-0.595
-0.59
-0.58
-0.56
-0.54
-0.54
-0.5
-0.485
-0.49
-0.52
-0.57
-0.615
-0.655
-0.685
-0.675
-0.675
-0.685
-0.7
-0.69
-0.73
-0.76
-0.765
-0.785
-0.8
-0.775
-0.765
-0.775
-0.765
-0.765
-0.765
-0.77
-0.775
-0.78
-0.775
-0.78
-0.8
-0.8
-0.81
-0.8
-0.775
-0.78
-0.78
-0.78
-0.79
-0.79
-0.785
-0.795
-0.8
-0.785
-0.78
-0.775
-0.775
-0.79
-0.815
-0.83
-0.805
-0.735
-0.595
-0.43
-0.25
-0.05
0.12
0.235
0.255
0.21
0.175
0.19
0.28
0.405
0.545
0.67
0.655
0.48
0.055
-0.455
-1.005
-1.475
-1.795
-1.995
-2.09
-2.13
-2.15
-2.165
-2.18
-2.2
-2.19
-2.175
-2.165
-2.16
-2.135
-2.105
-2.085
-2.01
-1.92
-1.795
-1.625
-1.455
-1.275
-1.14
-1.035
-0.975
-0.945
-0.925
-0.945
-0.935
-0.925
-0.93
-0.925
-0.915
-0.9
-0.89
-0.875
-0.865
-0.87
-0.88
-0.885
-0.895
-0.905
-0.915
-0.91
-0.93
-0.92
-0.92
-0.93
-0.95
-0.95
-0.965
-0.97
-1.005
-1.0
-1.015
-1.03
-1.04
-1.04
-1.05
-1.05
-1.075
-1.095
-1.11
-1.145
-1.17
-1.16
-1.17
-1.17
-1.18
-1.18
-1.18
-1.175
-1.19
-1.195
-1.205
-1.22
-1.235
-1.245
-1.25
-1.26
-1.24
-1.205
-1.205
-1.185
-1.195
-1.19
-1.185
-1.19
-1.16
-1.155
-1.14
-1.13
-1.06
-1.045
-1.01
-0.975
-0.965
-0.945
-0.925
-0.93
-0.92
-0.92
-0.9
-0.89
-0.86
-0.85
-0.82
-0.805
-0.79
-0.8
-0.8
-0.8
-0.79
-0.795
-0.795
-0.8
-0.785
-0.765
-0.765
-0.75
-0.76
-0.765
-0.775
-0.79
-0.78
-0.78
-0.78
-0.785
-0.77
-0.76
-0.765
-0.76
-0.755
-0.77
-0.78
-0.79
-0.79
-0.805
-0.815
-0.8
-0.79
-0.775
-0.785
-0.775
-0.79
-0.8
-0.815
-0.805
-0.805
-0.815
-0.815
-0.805
-0.8
-0.795
-0.785
-0.775
-0.79
-0.785
-0.8
-0.805
-0.81
-0.815
-0.835
-0.825
-0.81
-0.8
-0.78
-0.765
-0.775
-0.77
-0.785
-0.795
-0.8
-0.82
-0.825
-0.82
-0.805
-0.795
-0.78
-0.78
-0.765
-0.75
-0.78
-0.78
-0.81
-0.79
-0.795
-0.795
-0.795
-0.785
-0.8
-0.775
-0.775
-0.765
-0.765
-0.78
-0.78
-0.775
-0.78
-0.8
-0.78
-0.77
-0.765
-0.755
-0.74
-0.75
-0.74
-0.74
-0.705
-0.705
-0.69
-0.69
-0.675
-0.645
-0.635
-0.63
-0.615
-0.615
-0.615
-0.615
-0.6
-0.585
-0.585
-0.575
-0.555
-0.555
-0.555
-0.585
-0.62
-0.64
-0.66
-0.665
-0.67
-0.655
-0.65
-0.62
-0.595
-0.575
-0.585
-0.595
-0.66
-0.7
-0.72
-0.75
-0.77
-0.78
-0.795
-0.815
-0.83
-0.835
-0.85
-0.835
-0.84
-0.845
-0.84
-0.85
-0.875
-0.87
-0.87
-0.89
-0.885
-0.87
-0.885
-0.875
-0.87
-0.855
-0.865
-0.865
-0.865
-0.895
-0.875
-0.895
-0.875
-0.865
-0.875
-0.87
-0.865
-0.86
-0.86
-0.875
-0.9
-0.91
-0.915
-0.925
-0.92
-0.86
-0.755
-0.605
-0.435
-0.27
-0.095
0.02
0.055
0.025
-0.01
0.02
0.14
0.31
0.53
0.69
0.64
0.36
-0.145
-0.75
-1.315
-1.725
-2.01
-2.13
-2.185
-2.19
-2.19
-2.195
-2.195
-2.215
-2.225
-2.24
-2.25
-2.24
-2.23
-2.19
-2.13
-2.035
-1.94
-1.785
-1.62
-1.465
-1.315
-1.23
-1.14
-1.105
-1.075
-1.07
-1.05
-1.035
-1.005
-0.96
-0.95
-0.93
-0.935
-0.93
-0.94
-0.97
-0.96
-0.975
-0.97
-0.97
-0.95
-0.96
-0.96
-0.945
-0.965
-0.97
-0.99
-0.99
-1.015
-1.02
-1.025
-1.035
-1.04
-1.045
-1.06
-1.08
-1.1
-1.11
-1.115
-1.135
-1.155
-1.175
-1.18
-1.185
-1.205
-1.205
-1.205
-1.215
-1.23
-1.245
-1.265
-1.275
-1.275
-1.285
-1.285
-1.27
-1.27
-1.265
-1.255
-1.265
-1.26
-1.27
-1.26
-1.25
-1.225
-1.205
-1.17
-1.16
-1.145
-1.095
-1.06
-1.06
-1.05
-1.035
-1.03
-1.025
-1.015
-0.99
-0.965
-0.93
-0.935
-0.895
-0.88
-0.875
-0.875
-0.88
-0.895
-0.89
-0.865
-0.855
-0.865
-0.845
-0.83
-0.815
-0.8
-0.8
-0.805
-0.795
-0.81
-0.82
-0.84
-0.84
-0.835
-0.825
-0.82
-0.795
-0.81
-0.805
-0.805
-0.82
-0.825
-0.845
-0.845
-0.865
-0.85
-0.855
-0.84
-0.84
-0.83
-0.84
-0.85
-0.865
-0.865
-0.885
-0.88
-0.865
-0.87
-0.87
-0.89
-0.88
-0.88
-0.885
-0.88
-0.885
-0.9
-0.88
-0.89
-0.89
-0.885
-0.88
-0.87
-0.86
-0.85
-0.855
-0.86
-0.87
-0.875
-0.885
-0.885
-0.885
-0.87
-0.86
-0.855
-0.83
-0.84
-0.85
-0.84
-0.855
-0.875
-0.865
-0.87
-0.87
-0.88
-0.86
-0.865
-0.825
-0.81
-0.85
-0.84
-0.84
-0.85
-0.86
-0.86
-0.85
-0.85
-0.85
-0.845
-0.825
-0.825
-0.83
-0.83
-0.83
-0.83
-0.835
-0.825
-0.84
-0.825
-0.8
-0.785
-0.77
-0.73
-0.72
-0.715
-0.715
-0.725
-0.73
-0.71
-0.695
-0.655
-0.65
-0.625
-0.615
-0.585
-0.58
-0.59
-0.605
-0.64
-0.655
-0.67
-0.7
-0.72
-0.715
-0.685
-0.675
-0.655
-0.67
-0.645
-0.64
-0.645
-0.675
-0.705
-0.75
-0.775
-0.78
-0.8
-0.79
-0.795
-0.805
-0.86
-0.885
-0.91
-0.915
-0.925
-0.935
-0.92
-0.915
-0.93
-0.895
-0.91
-0.91
-0.92
-0.92
-0.93
-0.945
-0.95
-0.95
-0.945
-0.935
-0.925
-0.94
-0.925
-0.91
-0.905
-0.92
-0.925
-0.92
-0.925
-0.92
-0.915
-0.915
-0.92
-0.93
-0.94
-0.94
-0.91
-0.845
-0.74
-0.57
-0.39
-0.215
-0.11
-0.05
-0.05
-0.09
-0.075
0.02
0.19
0.395
0.57
0.67
0.595
0.335
-0.09
-0.64
-1.155
-1.57
-1.84
-2.005
-2.075
-2.13
-2.16
-2.235
-2.295
-2.325
-2.34
-2.325
-2.31
-2.295
-2.285
-2.285
-2.26
-2.225
-2.19
-2.14
-2.04
-1.91
-1.755
-1.575
-1.405
-1.265
-1.175
-1.085
-1.05
-1.035
-1.03
-1.035
-1.035
-1.015
-1.015
-0.975
-0.955
-0.945
-0.94
-0.94
-0.925
-0.935
-0.94
-0.94
-0.94
-0.95
-0.945
-0.95
-0.94
-0.945
-0.95
-0.955
-0.98
-0.98
-0.99
-1.035
-1.04
-1.045
-1.04
-1.045
-1.06
-1.065
-1.075
-1.11
-1.115
-1.15
-1.16
-1.17
-1.175
-1.175
-1.205
-1.2
-1.195
-1.185
-1.18
-1.175
-1.205
-1.22
-1.245
-1.255
-1.24
-1.25
-1.245
-1.23
-1.22
-1.195
-1.195
-1.195
-1.195
-1.205
-1.185
-1.2
-1.195
-1.165
-1.16
-1.13
-1.11
-1.065
-1.045
-1.03
-1.025
-1.005
-0.985
-0.97
-0.96
-0.935
-0.92
-0.91
-0.885
-0.87
-0.87
-0.845
-0.825
-0.835
-0.82
-0.805
-0.82
-0.81
-0.8
-0.79
-0.78
-0.78
-0.76
-0.76
-0.75
-0.77
-0.765
-0.78
-0.78
-0.79
-0.79
-0.775
-0.775
-0.77
-0.76
-0.77
-0.785
-0.785
-0.795
-0.815
-0.82
-0.825
-0.81
-0.82
-0.805
-0.8
-0.8
-0.825
-0.815
-0.835
-0.835
-0.85
-0.85
-0.85
-0.85
-0.835
-0.825
-0.815
-0.81
-0.795
-0.815
-0.815
-0.825
-0.835
-0.85
-0.84
-0.84
-0.82
-0.81
-0.805
-0.775
-0.78
-0.795
-0.785
-0.79
-0.8
-0.825
-0.835
-0.835
-0.825
-0.815
-0.8
-0.78
-0.78
-0.805
-0.81
-0.81
-0.805
-0.81
-0.82
-0.815
-0.825
-0.825
-0.8
-0.8
-0.805
-0.795
-0.8
-0.805
-0.82
-0.81
-0.815
-0.805
-0.79
-0.79
-0.765
-0.775
-0.765
-0.785
-0.8
-0.8
-0.8
-0.81
-0.8
-0.79
-0.765
-0.75
-0.73
-0.71
-0.705
-0.7
-0.695
-0.7
-0.705
-0.71
-0.695
-0.685
-0.645
-0.615
-0.565
-0.545
-0.52
-0.53
-0.56
-0.57
-0.605
-0.63
-0.655
-0.69
-0.685
-0.675
-0.66
-0.63
-0.595
-0.58
-0.56
-0.565
-0.57
-0.63
-0.66
-0.695
-0.73
-0.745
-0.78
-0.805
-0.8
-0.81
-0.84
-0.845
-0.85
-0.885
-0.88
-0.89
-0.88
-0.875
-0.86
-0.865
-0.87
-0.875
-0.885
-0.88
-0.895
-0.9
-0.9
-0.9
-0.885
-0.89
-0.87
-0.875
-0.875
-0.88
-0.885
-0.89
-0.905
-0.91
-0.91
-0.9
-0.89
-0.89
-0.905
-0.91
-0.895
-0.865
-0.79
-0.65
-0.475
-0.31
-0.165
-0.06
-0.035
-0.045
-0.055
-0.025
0.1
0.295
0.485
0.605
0.545
0.285
-0.17
-0.735
-1.25
-1.67
-1.935
-2.08
-2.145
-2.18
-2.23
-2.28
-2.31
-2.335
-2.355
-2.34
-2.33
-2.29
-2.255
-2.22
-2.18
-2.115
-2.035
-1.91
-1.755
-1.605
-1.46
-1.325
-1.205
-1.14
-1.08
-1.025
-1.02
-0.995
-0.985
-0.98
-0.975
-0.98
-0.965
-0.96
-0.945
-0.935
-0.935
-0.925
-0.93
-0.93
-0.94
-0.94
-0.955
-0.96
-0.985
-0.97
-0.98
-0.975
-0.985
-0.98
-1.01
-1.025
-1.04
-1.055
-1.07
-1.095
-1.09
-1.09
-1.095
-1.1
-1.12
-1.115
-1.14
-1.145
-1.18
-1.185
-1.205
-1.22
-1.225
-1.21
-1.225
-1.205
-1.225
-1.21
-1.2
-1.215
-1.235
-1.245
-1.265
-1.275
-1.255
-1.245
-1.235
-1.2
-1.18
-1.165
-1.15
-1.145
-1.145
-1.125
-1.09
-1.07
-1.055
-1.025
-0.99
-0.965
-0.925
-0.87
-0.815
-0.775
-0.71
-0.7
-0.685
-0.68
-0.71
-0.695
-0.68
-0.66
-0.615
-0.565
-0.54
-0.51
-0.495
-0.51
-0.55
-0.605
-0.68
-0.73
-0.775
-0.815
-0.835
-0.85
-0.845
-0.815
-0.815
-0.805
-0.81
-0.825
-0.81
-0.82
-0.825
-0.835
-0.845
-0.865
-0.88
-0.89
-0.905
-0.92
-0.93
-0.945
-0.92
-0.915
-0.93
-0.93
-0.925
-0.915
-0.925
-0.92
-0.94
-0.95
-0.96
-0.965
-0.97
-0.945
-0.955
-0.93
-0.925
-0.905
-0.905
-0.94
-0.95
-0.965
-0.975
-0.96
-0.96
-0.95
-0.93
-0.92
-0.915
-0.905
-0.92
-0.915
-0.935
-0.925
-0.93
-0.925
-0.92
-0.915
-0.905
-0.905
-0.89
-0.885
-0.875
-0.885
-0.88
-0.885
-0.9
-0.915
-0.905
-0.9
-0.905
-0.91
-0.885
-0.87
-0.87
-0.865
-0.875
-0.88
-0.87
-0.88
-0.87
-0.885
-0.865
-0.88
-0.885
-0.89
-0.865
-0.815
-0.685
-0.565
-0.39
-0.24
-0.115
-0.055
-0.055
-0.095
-0.08
-0.025
0.155
0.39
0.615
0.77
0.74
0.495
0.07
-0.47
-1.035
-1.475
-1.785
-1.95
-2.03
-2.085
-2.125
-2.17
-2.215
-2.26
-2.27
-2.265
-2.235
-2.225
-2.19
-2.145
-2.12
-2.075
-2.015
-1.93
-1.795
-1.635
-1.455
-1.285
-1.15
-1.04
-0.98
-0.94
-0.925
-0.92
-0.915
-0.91
-0.91
-0.9
-0.895
-0.9
-0.865
-0.875
-0.865
-0.88
-0.885
-0.885
-0.89
-0.885
-0.875
-0.89
-0.89
-0.9
-0.905
-0.9
-0.92
-0.925
-0.94
-0.945
-0.97
-0.98
-1.0
-1.025
-1.025
-1.015
-1.015
-1.035
-1.055
-1.07
-1.08
-1.095
-1.11
-1.125
-1.135
-1.16
-1.165
-1.175
-1.16
-1.16
-1.17
-1.16
-1.17
-1.175
-1.195
-1.195
-1.205
-1.21
-1.205
-1.18
-1.2
-1.19
-1.17
-1.14
-1.12
-1.1
-1.105
-1.105
-1.095
-1.085
-1.06
-1.035
-1.02
-0.975
-0.955
-0.905
-0.885
-0.875
-0.86
-0.855
-0.855
-0.86
-0.865
-0.85
-0.83
-0.805
-0.785
-0.765
-0.775
-0.765
-0.77
-0.765
-0.77
-0.785
-0.78
-0.77
-0.77
-0.79
-0.785
-0.785
-0.775
-0.775
-0.78
-0.775
-0.775
-0.785
-0.8
-0.79
-0.77
-0.77
-0.77
-0.77
-0.78
-0.775
-0.775
-0.775
-0.79
-0.79
-0.785
-0.795
-0.8
-0.78
-0.765
-0.775
-0.785
-0.77
-0.78
-0.78
-0.785
-0.79
-0.795
-0.79
-0.78
-0.76
-0.755
-0.74
-0.74
-0.74
-0.745
-0.76
-0.765
-0.77
-0.79
-0.77
-0.765
-0.755
-0.755
-0.735
-0.74
-0.735
-0.75
-0.75
-0.78
-0.775
-0.77
-0.76
-0.76
-0.74
-0.75
-0.74
-0.725
-0.72
-0.73
-0.73
-0.74
-0.745
-0.755
-0.75
-0.735
-0.725
-0.725
-0.73
-0.725
-0.72
-0.73
-0.725
-0.73
-0.72
-0.735
-0.73
-0.72
-0.73
-0.715
-0.71
-0.725
-0.735
-0.72
-0.72
-0.725
-0.725
-0.725
-0.71
-0.715
-0.705
-0.695
-0.7
-0.71
-0.715
-0.725
-0.74
-0.75
-0.75
-0.775
-0.745
-0.725
-0.715
-0.705
-0.685
-0.69
-0.69
-0.725
-0.73
-0.74
-0.74
-0.745
-0.735
-0.715
-0.705
-0.695
-0.675
-0.69
-0.68
-0.71
-0.715
-0.73
-0.725
-0.725
-0.735
-0.73
-0.71
-0.71
-0.71
-0.695
-0.705
-0.7
-0.71
-0.715
-0.73
-0.72
-0.73
-0.73
-0.72
-0.7
-0.69
-0.695
-0.695
-0.685
-0.68
-0.675
-0.655
-0.64
-0.63
-0.635
-0.635
-0.63
-0.605
-0.595
-0.58
-0.56
-0.545
-0.53
-0.54
-0.55
-0.53
-0.505
-0.515
-0.52
-0.52
-0.535
-0.56
-0.6
-0.615
-0.63
-0.62
-0.625
-0.605
-0.565
-0.535
-0.515
-0.5
-0.535
-0.58
-0.61
-0.63
-0.66
-0.69
-0.705
-0.715
-0.72
-0.74
-0.735
-0.735
-0.765
-0.75
-0.76
-0.765
-0.765
-0.78
-0.77
-0.775
-0.765
-0.77
-0.785
-0.76
-0.75
-0.76
-0.765
-0.76
-0.77
-0.78
-0.785
-0.77
-0.77
-0.76
-0.755
-0.74
-0.74
-0.74
-0.76
-0.765
-0.78
-0.785
-0.79
-0.77
-0.695
-0.585
-0.395
-0.18
0.005
0.16
0.255
0.27
0.215
0.185
0.195
0.265
0.41
0.555
0.67
0.675
0.485
0.115
-0.38
-0.91
-1.36
-1.67
-1.86
-1.94
-1.97
-1.985
-1.985
-2.0
-2.01
-2.025
-2.06
-2.08
-2.1
-2.095
-2.09
-2.085
-2.04
-1.99
-1.905
-1.8
-1.655
-1.495
-1.325
-1.175
-1.07
-0.99
-0.935
-0.915
-0.9
-0.9
-0.88
-0.855
-0.845
-0.84
-0.82
-0.825
-0.825
-0.82
-0.83
-0.845
-0.825
-0.845
-0.83
-0.83
-0.83
-0.84
-0.84
-0.84
-0.855
-0.875
-0.89
-0.89
-0.895
-0.89
-0.895
-0.895
-0.91
-0.92
-0.935
-0.955
-0.985
-0.99
-1.005
-1.025
-1.025
-1.015
-1.02
-1.02
-1.025
-1.055
-1.06
-1.085
-1.105
-1.105
-1.13
-1.155
-1.14
-1.14
-1.16
-1.17
-1.145
-1.15
-1.145
-1.145
-1.15
-1.17
-1.145
-1.155
-1.15
-1.12
-1.105
-1.095
-1.1
-1.075
-1.05
-1.055
-1.035
-1.015
-1.035
-1.0
-0.97
-0.93
-0.915
-0.89
-0.86
-0.84
-0.835
-0.825
-0.82
-0.8
-0.815
-0.785
-0.75
-0.73
-0.72
-0.7
-0.69
-0.71
-0.705
-0.71
-0.7
-0.7
-0.7
-0.7
-0.69
-0.67
-0.66
-0.645
-0.65
-0.65
-0.665
-0.67
-0.675
-0.675
-0.695
-0.7
-0.695
-0.675
-0.67
-0.66
-0.66
-0.66
-0.68
-0.67
-0.685
-0.705
-0.71
-0.71
-0.7
-0.69
-0.705
-0.7
-0.7
-0.72
-0.715
-0.725
-0.72
-0.72
-0.74
-0.755
-0.75
-0.73
-0.74
-0.725
-0.725
-0.73
-0.745
-0.75
-0.74
-0.75
-0.74
-0.74
-0.735
-0.725
-0.72
-0.715
-0.725
-0.72
-0.725
-0.735
-0.74
-0.74
-0.75
-0.74
-0.75
-0.745
-0.735
-0.715
-0.7
-0.7
-0.71
-0.715
-0.725
-0.725
-0.725
-0.72
-0.72
-0.715
-0.705
-0.69
-0.685
-0.695
-0.68
-0.695
-0.705
-0.705
-0.715
-0.715
-0.71
-0.715
-0.69
-0.68
-0.67
-0.68
-0.685
-0.69
-0.695
-0.695
-0.705
-0.705
-0.695
-0.7
-0.695
-0.685
-0.675
-0.66
-0.655
-0.68
-0.675
-0.68
-0.695
-0.7
-0.695
-0.68
-0.67
-0.64
-0.65
-0.65
-0.635
-0.645
-0.6
-0.59
-0.59
-0.585
-0.555
-0.54
-0.525
-0.515
-0.495
-0.48
-0.485
-0.49
-0.485
-0.475
-0.48
-0.475
-0.475
-0.485
-0.505
-0.515
-0.545
-0.565
-0.57
-0.59
-0.57
-0.555
-0.535
-0.51
-0.49
-0.47
-0.485
-0.495
-0.54
-0.58
-0.615
-0.66
-0.665
-0.7
-0.7
-0.715
-0.715
-0.725
-0.745
-0.745
-0.73
-0.72
-0.725
-0.745
-0.75
-0.77
-0.77
-0.76
-0.75
-0.75
-0.75
-0.74
-0.74
-0.74
-0.74
-0.755
-0.765
-0.77
-0.775
-0.77
-0.745
-0.74
-0.74
-0.725
-0.73
-0.725
-0.735
-0.76
-0.78
-0.79
-0.805
-0.805
-0.75
-0.67
-0.535
-0.355
-0.14
0.025
0.155
0.18
0.155
0.16
0.21
0.365
0.55
0.68
0.68
0.49
0.07
-0.465
-1.005
-1.425
-1.715
-1.875
-1.92
-1.95
-1.98
-2.015
-2.025
-2.035
-2.04
-2.05
-2.055
-2.065
-2.06
-2.03
-2.03
-1.97
-1.89
-1.8
-1.665
-1.49
-1.32
-1.185
-1.07
-1.0
-0.96
-0.915
-0.89
-0.885
-0.865
-0.85
-0.84
-0.815
-0.795
-0.795
-0.795
-0.795
-0.805
-0.81
-0.815
-0.83
-0.825
-0.845
-0.845
-0.825
-0.825
-0.835
-0.835
-0.855
-0.865
-0.875
-0.9
-0.9
-0.905
-0.92
-0.935
-0.93
-0.935
-0.94
-0.98
-0.995
-1.015
-1.03
-1.05
-1.06
-1.055
-1.06
-1.08
-1.085
-1.115
-1.1
-1.125
-1.155
-1.145
-1.155
-1.15
-1.145
-1.13
-1.13
-1.12
-1.125
-1.13
-1.13
-1.13
-1.14
-1.13
-1.125
-1.105
-1.1
-1.09
-1.06
-1.025
-0.995
-0.99
-0.97
-0.975
-0.94
-0.94
-0.915
-0.915
-0.895
-0.86
-0.85
-0.83
-0.81
-0.785
-0.785
-0.79
-0.78
-0.775
-0.765
-0.77
-0.76
-0.75
-0.725
-0.74
-0.72
-0.705
-0.705
-0.69
-0.695
-0.68
-0.69
-0.695
-0.7
-0.695
-0.69
-0.69
-0.7
-0.685
-0.685
-0.7
-0.71
-0.7
-0.71
-0.715
-0.705
-0.715
-0.715
-0.725
-0.715
-0.73
-0.715
-0.73
-0.75
-0.735
-0.755
-0.75
-0.76
-0.76
-0.74
-0.745
-0.735
-0.735
-0.725
-0.73
-0.75
-0.755
-0.775
-0.785
-0.79
-0.76
-0.76
-0.745
-0.72
-0.745
-0.745
-0.755
-0.765
-0.76
-0.775
-0.78
-0.775
-0.77
-0.775
-0.755
-0.725
-0.73
-0.71
-0.725
-0.73
-0.745
-0.765
-0.755
-0.765
-0.75
-0.745
-0.74
-0.735
-0.72
-0.715
-0.715
-0.725
-0.73
-0.735
-0.74
-0.755
-0.75
-0.75
-0.735
-0.73
-0.73
-0.73
-0.745
-0.73
-0.74
-0.735
-0.745
-0.745
-0.73
-0.71
-0.72
-0.715
-0.715
-0.705
-0.715
-0.715
-0.725
-0.735
-0.715
-0.72
-0.715
-0.695
-0.68
-0.665
-0.64
-0.645
-0.63
-0.635
-0.625
-0.63
-0.62
-0.58
-0.58
-0.56
-0.54
-0.515
-0.51
-0.52
-0.49
-0.51
-0.52
-0.555
-0.555
-0.58
-0.59
-0.605
-0.59
-0.585
-0.585
-0.555
-0.545
-0.535
-0.535
-0.535
-0.57
-0.61
-0.645
-0.68
-0.69
-0.71
-0.72
-0.705
-0.735
-0.745
-0.77
-0.79
-0.805
-0.81
-0.81
-0.81
-0.81
-0.805
-0.81
-0.8
-0.795
-0.805
-0.815
-0.825
-0.835
-0.825
-0.83
-0.825
-0.82
-0.81
-0.805
-0.815
-0.805
-0.815
-0.825
-0.82
-0.81
-0.815
-0.82
-0.82
-0.825
-0.84
-0.835
-0.855
-0.86
-0.845
-0.81
-0.72
-0.59
-0.41
-0.215
-0.05
0.06
0.09
0.065
0.02
0.01
0.09
0.225
0.43
0.6
0.685
0.6
0.31
-0.17
-0.7
-1.225
-1.63
-1.88
-2.025
-2.085
-2.115
-2.15
-2.16
-2.185
-2.185
-2.175
-2.155
-2.145
-2.16
-2.145
-2.125
-2.075
-2.03
-1.94
-1.82
-1.645
-1.455
-1.315
-1.17
-1.07
-1.01
-0.965
-0.96
-0.95
-0.94
-0.945
-0.94
-0.925
-0.895
-0.865
-0.86
-0.85
-0.845
-0.845
-0.855
-0.885
-0.895
-0.88
-0.915
-0.91
-0.905
-0.895
-0.91
-0.905
-0.92
-0.91
-0.93
-0.95
-0.955
-1.0
-0.985
-0.985
-1.0
-1.01
-1.01
-1.02
-1.03
-1.045
-1.06
-1.085
-1.12
-1.135
-1.14
-1.115
-1.1
-1.11
-1.115
-1.12
-1.125
-1.15
-1.16
-1.175
-1.19
-1.195
-1.19
-1.19
-1.19
-1.165
-1.16
-1.145
-1.13
-1.14
-1.135
-1.135
-1.13
-1.125
-1.1
-1.085
-1.055
-1.04
-1.01
-0.975
-0.955
-0.935
-0.935
-0.925
-0.91
-0.895
-0.88
-0.855
-0.84
-0.835
-0.815
-0.805
-0.78
-0.785
-0.775
-0.775
-0.79
-0.795
-0.765
-0.765
-0.74
-0.745
-0.735
-0.73
-0.73
-0.72
-0.735
-0.75
-0.75
-0.755
-0.765
-0.76
-0.75
-0.735
-0.735
-0.745
-0.755
-0.765
-0.785
-0.78
-0.78
-0.785
-0.79
-0.78
-0.79
-0.765
-0.77
-0.77
-0.77
-0.78
-0.79
-0.8
-0.815
-0.83
-0.845
-0.825
-0.825
-0.81
-0.795
-0.79
-0.795
-0.79
-0.805
-0.83
-0.83
-0.83
-0.82
-0.815
-0.815
-0.805
-0.785
-0.79
-0.79
-0.785
-0.775
-0.785
-0.79
-0.795
-0.81
-0.815
-0.795
-0.775
-0.775
-0.77
-0.785
-0.765
-0.765
-0.79
-0.765
-0.795
-0.78
-0.79
-0.775
-0.765
-0.76
-0.76
-0.765
-0.76
-0.78
-0.775
-0.785
-0.795
-0.795
-0.77
-0.76
-0.76
-0.745
-0.74
-0.745
-0.74
-0.755
-0.75
-0.76
-0.76
-0.77
-0.755
-0.74
-0.74
-0.735
-0.73
-0.73
-0.735
-0.73
-0.745
-0.75
-0.75
-0.745
-0.72
-0.685
-0.67
-0.645
-0.625
-0.63
-0.63
-0.625
-0.63
-0.625
-0.605
-0.605
-0.59
-0.565
-0.555
-0.52
-0.495
-0.505
-0.525
-0.545
-0.575
-0.635
-0.655
-0.655
-0.665
-0.625
-0.6
-0.56
-0.535
-0.525
-0.535
-0.575
-0.62
-0.655
-0.71
-0.74
-0.73
-0.75
-0.76
-0.765
-0.77
-0.79
-0.8
-0.825
-0.835
-0.835
-0.83
-0.83
-0.82
-0.815
-0.815
-0.81
-0.81
-0.815
-0.835
-0.825
-0.83
-0.865
-0.87
-0.855
-0.85
-0.83
-0.825
-0.82
-0.815
-0.815
-0.825
-0.825
-0.83
-0.84
-0.835
-0.835
-0.835
-0.83
-0.835
-0.805
-0.75
-0.655
-0.51
-0.35
-0.17
-0.025
0.045
0.06
0.015
-0.025
-0.015
0.085
0.27
0.47
0.645
0.665
0.5
0.115
-0.445
-1.03
-1.515
-1.835
-2.0
-2.08
-2.11
-2.115
-2.145
-2.17
-2.205
-2.22
-2.22
-2.215
-2.215
-2.185
-2.165
-2.125
-2.07
-2.0
-1.935
-1.825
-1.68
-1.545
-1.4
-1.275
-1.19
-1.11
-1.03
-0.99
-0.98
-0.97
-0.94
-0.94
-0.935
-0.92
-0.91
-0.905
-0.89
-0.88
-0.86
-0.855
-0.84
-0.855
-0.865
-0.875
-0.875
-0.885
-0.885
-0.9
-0.92
-0.885
-0.89
-0.88
-0.87
-0.895
-0.9
-0.935
-0.935
-0.97
-1.005
-1.015
-1.005
-1.015
-1.015
-1.03
-1.04
-1.045
-1.065
-1.075
-1.095
-1.115
-1.13
-1.165
-1.165
-1.17
-1.15
-1.135
-1.135
-1.125
-1.14
-1.15
-1.16
-1.165
-1.185
-1.195
-1.195
-1.185
-1.175
-1.145
-1.13
-1.125
-1.11
-1.105
-1.095
-1.105
-1.09
-1.07
-1.045
-1.03
-1.0
-0.955
-0.93
-0.925
-0.9
-0.9
-0.9
-0.885
-0.885
-0.875
-0.865
-0.86
-0.815
-0.79
-0.785
-0.765
-0.775
-0.78
-0.795
-0.78
-0.78
-0.775
-0.79
-0.765
-0.745
-0.735
-0.715
-0.735
-0.745
-0.755
-0.77
-0.765
-0.775
-0.765
-0.76
-0.74
-0.745
-0.73
-0.735
-0.74
-0.74
-0.75
-0.745
-0.765
-0.785
-0.775
-0.77
-0.775
-0.77
-0.76
-0.76
-0.76
-0.765
-0.76
-0.78
-0.795
-0.805
-0.82
-0.805
-0.81
-0.81
-0.795
-0.795
-0.785
-0.77
-0.785
-0.795
-0.8
-0.79
-0.79
-0.795
-0.77
-0.775
-0.76
-0.76
-0.79
-0.775
-0.775
-0.785
-0.785
-0.79
-0.79
-0.785
-0.77
-0.75
-0.745
-0.745
-0.75
-0.745
-0.765
-0.765
-0.775
-0.795
-0.795
-0.79
-0.78
