Lead II
-0.105
-0.13
-0.155
-0.18
-0.2
-0.205
-0.185
-0.18
-0.18
-0.19
-0.195
-0.205
-0.2
-0.195
-0.18
-0.175
-0.18
-0.185
-0.2
-0.185
-0.175
-0.175
-0.18
-0.185
-0.175
-0.17
-0.16
-0.16
-0.165
-0.185
-0.195
-0.175
-0.16
-0.15
-0.18
-0.17
-0.18
-0.165
-0.16
-0.16
-0.17
-0.175
-0.185
-0.125
-0.05
0.02
0.115
0.22
0.345
0.435
0.455
0.4
0.39
0.415
0.46
0.505
0.53
0.545
0.54
0.54
0.565
0.605
0.605
0.575
0.45
0.25
0.05
-0.1
-0.225
-0.375
-0.5
-0.58
-0.625
-0.61
-0.535
-0.5
-0.47
-0.445
-0.425
-0.345
-0.305
-0.305
-0.32
-0.315
-0.315
-0.325
-0.305
-0.285
-0.28
-0.28
-0.285
-0.295
-0.295
-0.315
-0.315
-0.305
-0.31
-0.3
-0.305
-0.325
-0.315
-0.32
-0.345
-0.33
-0.33
-0.325
-0.32
-0.33
-0.335
-0.335
-0.325
-0.345
-0.345
-0.35
-0.35
-0.35
-0.345
-0.35
-0.345
-0.355
-0.365
-0.365
-0.355
-0.345
-0.35
-0.36
-0.375
-0.36
-0.345
-0.34
-0.345
-0.355
-0.355
-0.34
-0.335
-0.34
-0.345
-0.355
-0.355
-0.34
-0.335
-0.33
-0.33
-0.335
-0.33
-0.315
-0.31
-0.31
-0.31
-0.315
-0.305
-0.3
-0.29
-0.285
-0.3
-0.295
-0.29
-0.28
-0.265
-0.265
-0.265
-0.275
-0.27
-0.255
-0.255
-0.235
-0.24
-0.245
-0.235
-0.22
-0.205
-0.205
-0.225
-0.23
-0.24
-0.225
-0.19
-0.19
-0.185
-0.205
-0.21
-0.19
-0.19
-0.175
-0.175
-0.195
-0.2
-0.185
-0.17
-0.17
-0.18
-0.195
-0.2
-0.19
-0.175
-0.18
-0.175
-0.19
-0.21
-0.185
-0.19
-0.185
-0.195
-0.2
-0.22
-0.185
-0.195
-0.205
-0.215
-0.225
-0.235
-0.225
-0.215
-0.21
-0.225
-0.225
-0.245
-0.24
-0.225
-0.22
-0.225
-0.235
-0.265
-0.255
-0.245
-0.245
-0.26
-0.275
-0.265
-0.255
-0.26
-0.275
-0.28
-0.28
-0.28
-0.275
-0.28
-0.275
-0.28
-0.29
-0.295
-0.285
-0.285
-0.285
-0.29
-0.295
-0.295
-0.305
-0.295
-0.295
-0.3
-0.325
-0.32
-0.31
-0.285
-0.275
-0.275
-0.28
-0.305
-0.29
-0.285
-0.285
-0.275
-0.29
-0.295
-0.285
-0.26
-0.255
-0.265
-0.275
-0.28
-0.285
-0.26
-0.245
-0.255
-0.265
-0.26
-0.265
-0.25
-0.245
-0.25
-0.265
-0.26
-0.25
-0.245
-0.245
-0.24
-0.26
-0.25
-0.245
-0.24
-0.25
-0.245
-0.24
-0.245
-0.24
-0.225
-0.23
-0.235
-0.23
-0.245
-0.24
-0.225
-0.225
-0.225
-0.21
-0.225
-0.205
-0.2
-0.21
-0.22
-0.225
-0.24
-0.22
-0.2
-0.2
-0.21
-0.22
-0.23
-0.215
-0.21
-0.205
-0.22
-0.24
-0.24
-0.23
-0.22
-0.225
-0.21
-0.215
-0.23
-0.225
-0.225
-0.22
-0.225
-0.23
-0.225
-0.21
-0.205
-0.195
-0.22
-0.235
-0.235
-0.225
-0.21
-0.2
-0.21
-0.225
-0.22
-0.21
-0.19
-0.2
-0.215
-0.215
-0.21
-0.205
-0.21
-0.21
-0.2
-0.2
-0.19
-0.18
-0.145
-0.14
-0.145
-0.15
-0.145
-0.125
-0.105
-0.09
-0.075
-0.07
-0.05
-0.025
-0.01
0.0
0.0
-0.015
-0.005
0.03
0.05
0.05
0.06
0.05
0.01
-0.03
-0.08
-0.105
-0.14
-0.17
-0.2
-0.225
-0.255
-0.255
-0.245
-0.245
-0.24
-0.24
-0.23
-0.225
-0.24
-0.255
-0.26
-0.245
-0.235
-0.245
-0.24
-0.25
-0.26
-0.24
-0.23
-0.235
-0.235
-0.26
-0.25
-0.25
-0.22
-0.21
-0.22
-0.225
-0.23
-0.21
-0.2
-0.21
-0.23
-0.23
-0.22
-0.2
-0.15
-0.11
-0.01
0.085
0.215
0.385
0.485
0.49
0.44
0.475
0.52
0.575
0.615
0.655
0.665
0.68
0.72
0.745
0.74
0.67
0.52
0.3
0.08
-0.09
-0.255
-0.42
-0.575
-0.685
-0.71
-0.66
-0.59
-0.555
-0.545
-0.54
-0.515
-0.46
-0.41
-0.37
-0.365
-0.365
-0.355
-0.345
-0.35
-0.335
-0.355
-0.365
-0.37
-0.37
-0.36
-0.36
-0.385
-0.375
-0.385
-0.38
-0.36
-0.38
-0.385
-0.38
-0.39
-0.385
-0.39
-0.395
-0.385
-0.395
-0.39
-0.38
-0.385
-0.375
-0.395
-0.41
-0.405
-0.385
-0.375
-0.38
-0.38
-0.395
-0.395
-0.38
-0.375
-0.385
-0.4
-0.41
-0.415
-0.39
-0.385
-0.38
-0.385
-0.385
-0.385
-0.385
-0.37
-0.365
-0.385
-0.38
-0.385
-0.37
-0.35
-0.355
-0.365
-0.365
-0.365
-0.345
-0.32
-0.33
-0.33
-0.335
-0.335
-0.315
-0.305
-0.31
-0.305
-0.315
-0.305
-0.29
-0.27
-0.265
-0.26
-0.26
-0.255
-0.24
-0.21
-0.225
-0.215
-0.215
-0.21
-0.2
-0.19
-0.18
-0.185
-0.185
-0.19
-0.175
-0.17
-0.17
-0.155
-0.17
-0.165
-0.155
-0.145
-0.145
-0.155
-0.17
-0.175
-0.145
-0.13
-0.12
-0.15
-0.155
-0.16
-0.14
-0.15
-0.15
-0.155
-0.16
-0.16
-0.155
-0.135
-0.145
-0.15
-0.17
-0.165
-0.15
-0.16
-0.16
-0.17
-0.18
-0.185
-0.175
-0.155
-0.155
-0.17
-0.18
-0.185
-0.18
-0.18
-0.175
-0.19
-0.195
-0.19
-0.19
-0.18
-0.19
-0.19
-0.21
-0.22
-0.215
-0.21
-0.21
-0.205
-0.22
-0.22
-0.22
-0.21
-0.215
-0.225
-0.23
-0.24
-0.225
-0.22
-0.215
-0.22
-0.23
-0.235
-0.22
-0.215
-0.21
-0.225
-0.23
-0.23
-0.215
-0.2
-0.2
-0.195
-0.215
-0.205
-0.19
-0.185
-0.175
-0.2
-0.2
-0.195
-0.18
-0.175
-0.185
-0.18
-0.195
-0.195
-0.18
-0.17
-0.165
-0.185
-0.19
-0.19
-0.18
-0.16
-0.165
-0.165
-0.16
-0.17
-0.16
-0.15
-0.16
-0.15
-0.16
-0.165
-0.16
-0.15
-0.14
-0.155
-0.15
-0.165
-0.155
-0.14
-0.14
-0.15
-0.15
-0.15
-0.155
-0.14
-0.125
-0.13
-0.135
-0.155
-0.14
-0.135
-0.135
-0.14
-0.155
-0.14
-0.135
-0.13
-0.135
-0.14
-0.155
-0.155
-0.13
-0.11
-0.125
-0.15
-0.145
-0.15
-0.135
-0.125
-0.12
-0.13
-0.145
-0.15
-0.145
-0.135
-0.135
-0.13
-0.14
-0.14
-0.14
-0.135
-0.13
-0.135
-0.135
-0.14
-0.14
-0.14
-0.13
-0.145
-0.135
-0.14
-0.135
-0.125
-0.125
-0.12
-0.125
-0.125
-0.09
-0.075
-0.08
-0.075
-0.08
-0.08
-0.075
-0.055
-0.035
-0.02
-0.015
0.005
0.03
0.045
0.065
0.07
0.08
0.07
0.075
0.1
0.105
0.115
0.115
0.12
0.135
0.115
0.08
0.01
-0.035
-0.06
-0.095
-0.115
-0.14
-0.175
-0.19
-0.18
-0.16
-0.16
-0.165
-0.185
-0.18
-0.175
-0.155
-0.155
-0.16
-0.185
-0.175
-0.16
-0.16
-0.145
-0.15
-0.18
-0.17
-0.17
-0.15
-0.17
-0.16
-0.17
-0.155
-0.165
-0.165
-0.155
-0.15
-0.145
-0.14
-0.145
-0.15
-0.14
-0.145
-0.155
-0.155
-0.155
-0.13
-0.09
-0.02
0.065
0.17
0.305
0.44
0.52
0.505
0.48
0.495
0.545
0.585
0.625
0.635
0.635
0.65
0.675
0.71
0.72
0.68
0.555
0.39
0.225
0.095
-0.035
-0.195
-0.345
-0.475
-0.55
-0.6
-0.59
-0.535
-0.48
-0.455
-0.44
-0.4
-0.365
-0.33
-0.305
-0.295
-0.28
-0.26
-0.245
-0.26
-0.27
-0.27
-0.27
-0.255
-0.255
-0.27
-0.28
-0.29
-0.295
-0.265
-0.265
-0.275
-0.28
-0.28
-0.29
-0.285
-0.285
-0.285
-0.28
-0.29
-0.305
-0.295
-0.295
-0.285
-0.29
-0.29
-0.31
-0.305
-0.315
-0.31
-0.305
-0.315
-0.315
-0.32
-0.315
-0.315
-0.32
-0.31
-0.32
-0.315
-0.295
-0.305
-0.32
-0.315
-0.32
-0.305
-0.295
-0.305
-0.305
-0.31
-0.315
-0.295
-0.275
-0.275
-0.275
-0.3
-0.285
-0.27
-0.255
-0.255
-0.265
-0.265
-0.275
-0.25
-0.24
-0.235
-0.245
-0.255
-0.25
-0.24
-0.21
-0.205
-0.2
-0.215
-0.225
-0.2
-0.19
-0.195
-0.2
-0.2
-0.19
-0.175
-0.17
-0.155
-0.165
-0.155
-0.16
-0.15
-0.135
-0.14
-0.145
-0.145
-0.135
-0.12
-0.115
-0.12
-0.125
-0.14
-0.14
-0.135
-0.12
-0.13
-0.14
-0.155
-0.145
-0.125
-0.1
-0.115
-0.13
-0.15
-0.15
-0.125
-0.125
-0.13
-0.125
-0.145
-0.15
-0.145
-0.15
-0.15
-0.16
-0.15
-0.17
-0.155
-0.155
-0.155
-0.16
-0.165
-0.17
-0.18
-0.175
-0.18
-0.19
-0.2
-0.225
-0.23
-0.215
-0.21
-0.2
-0.21
-0.22
-0.215
-0.23
-0.23
-0.24
-0.245
-0.245
-0.24
-0.23
-0.235
-0.245
-0.26
-0.265
-0.255
-0.255
-0.26
-0.275
-0.275
-0.28
-0.265
-0.255
-0.245
-0.28
-0.26
-0.265
-0.255
-0.255
-0.255
-0.245
-0.255
-0.25
-0.245
-0.23
-0.235
-0.245
-0.25
-0.245
-0.23
-0.215
-0.205
-0.215
-0.235
-0.23
-0.225
-0.215
-0.21
-0.225
-0.21
-0.23
-0.2
-0.185
-0.2
-0.195
-0.19
-0.195
-0.185
-0.185
-0.19
-0.195
-0.205
-0.205
-0.19
-0.185
-0.195
-0.185
-0.19
-0.205
-0.2
-0.195
-0.185
-0.18
-0.2
-0.19
-0.2
-0.17
-0.165
-0.17
-0.175
-0.185
-0.17
-0.17
-0.17
-0.175
-0.175
-0.185
-0.18
-0.16
-0.16
-0.175
-0.17
-0.17
-0.16
-0.16
-0.165
-0.17
-0.185
-0.185
-0.16
-0.155
-0.155
-0.175
-0.18
-0.175
-0.175
-0.165
-0.16
-0.17
-0.17
-0.17
-0.155
-0.145
-0.16
-0.15
-0.15
-0.155
-0.145
-0.14
-0.13
-0.13
-0.12
-0.13
-0.115
-0.08
-0.08
-0.075
-0.07
-0.07
-0.035
-0.015
0.005
0.02
0.01
0.025
0.035
0.05
0.055
0.065
0.07
0.08
0.105
0.115
0.115
0.08
0.02
-0.025
-0.05
-0.065
-0.11
-0.15
-0.19
-0.2
-0.195
-0.175
-0.165
-0.185
-0.19
-0.18
-0.17
-0.17
-0.185
-0.18
-0.175
-0.185
-0.18
-0.17
-0.18
-0.175
-0.175
-0.175
-0.175
-0.18
-0.165
-0.17
-0.18
-0.165
-0.165
-0.16
-0.155
-0.155
-0.165
-0.16
-0.16
-0.14
-0.145
-0.15
-0.175
-0.185
-0.16
-0.13
-0.13
-0.115
-0.06
0.025
0.15
0.285
0.405
0.51
0.52
0.485
0.485
0.54
0.605
0.635
0.66
0.675
0.69
0.74
0.785
0.795
0.755
0.69
0.555
0.385
0.19
0.025
-0.13
-0.285
-0.45
-0.545
-0.615
-0.62
-0.57
-0.51
-0.48
-0.45
-0.43
-0.395
-0.36
-0.34
-0.31
-0.3
-0.285
-0.29
-0.305
-0.305
-0.295
-0.285
-0.29
-0.295
-0.31
-0.315
-0.31
-0.295
-0.29
-0.31
-0.32
-0.33
-0.32
-0.3
-0.31
-0.32
-0.335
-0.335
-0.32
-0.325
-0.33
-0.345
-0.34
-0.35
-0.345
-0.32
-0.325
-0.33
-0.335
-0.34
-0.34
-0.32
-0.325
-0.33
-0.34
-0.34
-0.335
-0.325
-0.32
-0.325
-0.335
-0.34
-0.325
-0.325
-0.315
-0.325
-0.33
-0.31
-0.29
-0.285
-0.29
-0.31
-0.295
-0.3
-0.285
-0.28
-0.275
-0.275
-0.275
-0.285
-0.265
-0.255
-0.245
-0.25
-0.25
-0.245
-0.235
-0.235
-0.22
-0.22
-0.21
-0.21
-0.2
-0.18
-0.175
-0.175
-0.18
-0.185
-0.175
-0.155
-0.15
-0.155
-0.15
-0.15
-0.135
-0.13
-0.125
-0.135
-0.14
-0.135
-0.13
-0.13
-0.125
-0.135
-0.145
-0.145
-0.15
-0.13
-0.12
-0.145
-0.15
-0.15
-0.15
-0.14
-0.13
-0.14
-0.15
-0.155
-0.15
-0.135
-0.135
-0.15
-0.16
-0.175
-0.155
-0.15
-0.15
-0.17
-0.185
-0.18
-0.165
-0.17
-0.18
-0.185
-0.185
-0.19
-0.19
-0.185
-0.21
-0.205
-0.225
-0.215
-0.225
-0.22
-0.225
-0.23
-0.23
-0.24
-0.24
-0.23
-0.235
-0.245
-0.265
-0.26
-0.255
-0.245
-0.24
-0.245
-0.255
-0.26
-0.25
-0.25
-0.25
-0.25
-0.26
-0.26
-0.245
-0.255
-0.23
-0.24
-0.245
-0.24
-0.235
-0.23
-0.23
-0.225
-0.23
-0.23
-0.23
-0.215
-0.225
-0.23
-0.235
-0.225
-0.21
-0.195
-0.18
-0.195
-0.21
-0.215
-0.21
-0.195
-0.205
-0.205
-0.205
-0.2
-0.195
-0.18
-0.19
-0.18
-0.205
-0.205
-0.195
-0.18
-0.185
-0.19
-0.195
-0.195
-0.195
-0.195
-0.19
-0.19
-0.205
-0.205
-0.19
-0.185
-0.175
-0.17
-0.185
-0.19
-0.185
-0.19
-0.185
-0.185
-0.195
-0.205
-0.19
-0.18
-0.18
-0.18
-0.195
-0.195
-0.185
-0.16
-0.17
-0.18
-0.18
-0.19
-0.185
-0.18
-0.17
-0.18
-0.18
-0.18
-0.175
-0.18
-0.17
-0.175
-0.175
-0.185
-0.17
-0.175
-0.175
-0.175
-0.175
-0.175
-0.165
-0.17
-0.18
-0.175
-0.18
-0.19
-0.18
-0.17
-0.165
-0.17
-0.165
-0.17
-0.16
-0.16
-0.15
-0.165
-0.175
-0.17
-0.155
-0.135
-0.14
-0.13
-0.135
-0.135
-0.1
-0.085
-0.08
-0.08
-0.08
-0.07
-0.04
-0.02
-0.005
-0.005
0.0
0.01
0.02
0.035
0.04
0.04
0.055
0.065
0.065
0.075
0.05
-0.005
-0.055
-0.095
-0.125
-0.14
-0.185
-0.215
-0.23
-0.235
-0.23
-0.215
-0.22
-0.215
-0.225
-0.215
-0.22
-0.21
-0.22
-0.215
-0.235
-0.235
-0.23
-0.21
-0.205
-0.22
-0.22
-0.24
-0.235
-0.215
-0.215
-0.215
-0.215
-0.215
-0.215
-0.205
-0.21
-0.215
-0.22
-0.23
-0.215
-0.215
-0.225
-0.235
-0.23
-0.22
-0.175
-0.125
-0.05
0.045
0.165
0.29
0.395
0.42
0.395
0.375
0.41
0.46
0.47
0.515
0.52
0.525
0.535
0.55
0.57
0.565
0.505
0.39
0.205
0.045
-0.065
-0.165
-0.31
-0.46
-0.585
-0.67
-0.705
-0.645
-0.575
-0.525
-0.51
-0.495
-0.45
-0.41
-0.375
-0.375
-0.375
-0.36
-0.345
-0.345
-0.34
-0.36
-0.375
-0.365
-0.365
-0.355
-0.37
-0.37
-0.37
-0.375
-0.37
-0.375
-0.365
-0.37
-0.385
-0.38
-0.38
-0.39
-0.385
-0.405
-0.41
-0.41
-0.39
-0.395
-0.39
-0.4
-0.395
-0.405
-0.39
-0.375
-0.395
-0.39
-0.405
-0.405
-0.405
-0.4
-0.39
-0.41
-0.405
-0.41
-0.4
-0.395
-0.39
-0.395
-0.39
-0.395
-0.39
-0.385
-0.39
-0.395
-0.39
-0.4
-0.375
-0.38
-0.37
-0.375
-0.38
-0.37
-0.36
-0.355
-0.355
-0.36
-0.365
-0.36
-0.34
-0.325
-0.325
-0.325
-0.32
-0.33
-0.32
-0.315
-0.315
-0.31
-0.305
-0.315
-0.305
-0.29
-0.29
-0.285
-0.29
-0.295
-0.29
-0.27
-0.265
-0.265
-0.275
-0.285
-0.275
-0.25
-0.235
-0.24
-0.25
-0.255
-0.25
-0.225
-0.23
-0.225
-0.235
-0.24
-0.245
-0.235
-0.235
-0.235
-0.25
-0.255
-0.235
-0.225
-0.235
-0.245
-0.245
-0.25
-0.235
-0.23
-0.235
-0.245
-0.25
-0.26
-0.245
-0.235
-0.26
-0.255
-0.25
-0.255
-0.25
-0.25
-0.245
-0.25
-0.265
-0.26
-0.26
-0.26
-0.27
-0.29
-0.285
-0.29
-0.29
-0.27
-0.285
-0.3
-0.32
-0.32
-0.315
-0.305
-0.305
-0.32
-0.32
-0.34
-0.34
-0.335
-0.33
-0.33
-0.335
-0.35
-0.355
-0.35
-0.345
-0.385
-0.385
-0.39
-0.375
-0.355
-0.35
-0.36
-0.36
-0.375
-0.37
-0.365
-0.375
-0.385
-0.39
-0.41
-0.4
-0.37
-0.36
-0.36
-0.38
-0.38
-0.38
-0.38
-0.375
-0.375
-0.38
-0.38
-0.37
-0.355
-0.35
-0.355
-0.36
-0.365
-0.345
-0.335
-0.35
-0.355
-0.35
-0.35
-0.355
-0.335
-0.335
-0.345
-0.355
-0.35
-0.335
-0.33
-0.335
-0.335
-0.35
-0.355
-0.33
-0.31
-0.31
-0.32
-0.33
-0.33
-0.325
-0.31
-0.31
-0.305
-0.32
-0.315
-0.31
-0.3
-0.295
-0.305
-0.31
-0.315
-0.33
-0.31
-0.315
-0.305
-0.315
-0.315
-0.3
-0.29
-0.29
-0.3
-0.31
-0.31
-0.295
-0.28
-0.3
-0.295
-0.305
-0.315
-0.31
-0.29
-0.295
-0.295
-0.295
-0.3
-0.285
-0.275
-0.265
-0.275
-0.28
-0.285
-0.265
-0.26
-0.255
-0.275
-0.265
-0.275
-0.275
-0.26
-0.265
-0.28
-0.28
-0.285
-0.275
-0.26
-0.25
-0.255
-0.26
-0.27
-0.255
-0.255
-0.255
-0.265
-0.265
-0.26
-0.235
-0.215
-0.205
-0.21
-0.225
-0.215
-0.205
-0.185
-0.17
-0.16
-0.16
-0.15
-0.12
-0.095
-0.105
-0.09
-0.1
-0.09
-0.075
-0.05
-0.035
-0.03
-0.03
-0.025
-0.02
-0.005
-0.03
-0.075
-0.14
-0.18
-0.2
-0.215
-0.255
-0.295
-0.315
-0.315
-0.295
-0.29
-0.3
-0.295
-0.295
-0.305
-0.285
-0.27
-0.295
-0.3
-0.3
-0.3
-0.295
-0.285
-0.285
-0.29
-0.305
-0.3
-0.29
-0.275
-0.28
-0.28
-0.28
-0.29
-0.28
-0.26
-0.265
-0.265
-0.275
-0.275
-0.27
-0.265
-0.265
-0.27
-0.28
-0.275
-0.265
-0.25
-0.225
-0.175
-0.095
0.0
0.12
0.265
0.355
0.385
0.335
0.31
0.37
0.44
0.475
0.475
0.495
0.495
0.52
0.575
0.595
0.585
0.555
0.445
0.285
0.13
-0.015
-0.165
-0.305
-0.465
-0.57
-0.645
-0.705
-0.705
-0.68
-0.63
-0.585
-0.55
-0.535
-0.52
-0.495
-0.45
-0.42
-0.405
-0.39
-0.38
-0.375
-0.385
-0.385
-0.385
-0.375
-0.37
-0.38
-0.385
-0.385
-0.375
-0.36
-0.375
-0.385
-0.395
-0.38
-0.375
-0.375
-0.385
-0.405
-0.41
-0.39
-0.38
-0.385
-0.395
-0.405
-0.41
-0.4
-0.395
-0.395
-0.395
-0.405
-0.415
-0.39
-0.385
-0.38
-0.395
-0.395
-0.415
-0.4
-0.39
-0.39
-0.405
-0.405
-0.395
-0.385
-0.375
-0.38
-0.38
-0.395
-0.39
-0.385
-0.375
-0.38
-0.375
-0.38
-0.39
-0.385
-0.37
-0.365
-0.365
-0.37
-0.37
-0.36
-0.345
-0.35
-0.35
-0.345
-0.355
-0.33
-0.315
-0.3
-0.32
-0.325
-0.325
-0.305
-0.295
-0.3
-0.3
-0.295
-0.3
-0.285
-0.26
-0.265
-0.255
-0.265
-0.255
-0.245
-0.235
-0.24
-0.23
-0.225
-0.22
-0.215
-0.21
-0.195
-0.2
-0.215
-0.2
-0.19
-0.19
-0.195
-0.2
-0.195
-0.185
-0.185
-0.17
-0.18
-0.185
-0.18
-0.185
-0.18
-0.165
-0.175
-0.175
-0.18
-0.185
-0.19
-0.18
-0.18
-0.185
-0.18
-0.2
-0.18
-0.17
-0.175
-0.18
-0.19
-0.205
-0.195
-0.195
-0.19
-0.205
-0.215
-0.23
-0.21
-0.185
-0.195
-0.21
-0.215
-0.235
-0.225
-0.225
-0.23
-0.235
-0.24
-0.25
-0.24
-0.23
-0.25
-0.25
-0.26
-0.255
-0.25
-0.24
-0.25
-0.26
-0.27
-0.275
-0.27
-0.26
-0.275
-0.28
-0.29
-0.285
-0.29
-0.27
-0.275
-0.29
-0.29
-0.29
-0.275
-0.275
-0.285
-0.29
-0.29
-0.295
-0.285
-0.265
-0.27
-0.255
-0.265
-0.28
-0.255
-0.26
-0.25
-0.25
-0.26
-0.255
-0.245
-0.24
-0.24
-0.255
-0.245
-0.25
-0.235
-0.22
-0.21
-0.225
-0.23
-0.245
-0.225
-0.205
-0.22
-0.215
-0.225
-0.235
-0.235
-0.205
-0.215
-0.21
-0.22
-0.23
-0.215
-0.2
-0.2
-0.22
-0.23
-0.235
-0.22
-0.195
-0.205
-0.2
-0.21
-0.22
-0.21
-0.2
-0.21
-0.21
-0.215
-0.21
-0.195
-0.175
-0.195
-0.205
-0.21
-0.21
-0.195
-0.18
-0.19
-0.195
-0.195
-0.195
-0.185
-0.18
-0.185
-0.19
-0.19
-0.19
-0.18
-0.175
-0.185
-0.19
-0.19
-0.185
-0.18
-0.165
-0.18
-0.18
-0.185
-0.185
-0.19
-0.16
-0.165
-0.165
-0.175
-0.19
-0.18
-0.17
-0.17
-0.16
-0.17
-0.17
-0.17
-0.16
-0.165
-0.165
-0.18
-0.185
-0.17
-0.185
-0.16
-0.16
-0.165
-0.18
-0.165
-0.155
-0.165
-0.165
-0.175
-0.17
-0.17
-0.16
-0.165
-0.15
-0.15
-0.14
-0.135
-0.115
-0.12
-0.12
-0.125
-0.115
-0.1
-0.08
-0.09
-0.075
-0.07
-0.045
-0.03
-0.005
-0.005
0.015
0.02
0.03
0.035
0.04
0.05
0.06
0.055
0.06
0.08
0.095
0.08
0.035
-0.01
-0.06
-0.1
-0.1
-0.13
-0.17
-0.205
-0.225
-0.21
-0.195
-0.195
-0.215
-0.215
-0.225
-0.21
-0.21
-0.195
-0.205
-0.225
-0.22
-0.2
-0.185
-0.195
-0.215
-0.23
-0.23
-0.215
-0.205
-0.205
-0.205
-0.21
-0.215
-0.2
-0.185
-0.195
-0.205
-0.205
-0.215
-0.19
-0.165
-0.18
-0.195
-0.215
-0.225
-0.215
-0.195
-0.2
-0.205
-0.18
-0.105
0.0
0.11
0.22
0.33
0.41
0.425
0.405
0.42
0.465
0.495
0.51
0.535
0.55
0.56
0.57
0.59
0.58
0.585
0.515
0.39
0.215
0.035
-0.105
-0.24
-0.38
-0.515
-0.61
-0.665
-0.68
-0.65
-0.57
-0.53
-0.505
-0.495
-0.46
-0.435
-0.39
-0.355
-0.345
-0.335
-0.345
-0.345
-0.345
-0.33
-0.335
-0.34
-0.345
-0.355
-0.355
-0.35
-0.345
-0.35
-0.36
-0.37
-0.36
-0.35
-0.35
-0.36
-0.365
-0.375
-0.375
-0.36
-0.385
-0.385
-0.395
-0.38
-0.37
-0.36
-0.38
-0.4
-0.4
-0.385
-0.375
-0.37
-0.375
-0.38
-0.38
-0.38
-0.38
-0.36
-0.38
-0.38
-0.39
-0.38
-0.375
-0.375
-0.365
-0.365
-0.355
-0.37
-0.365
-0.355
-0.355
-0.355
-0.355
-0.37
-0.355
-0.34
-0.335
-0.34
-0.345
-0.335
-0.325
-0.305
-0.31
-0.315
-0.32
-0.315
-0.285
-0.265
-0.27
-0.275
-0.28
-0.28
-0.265
-0.25
-0.26
-0.26
-0.275
-0.26
-0.25
-0.235
-0.23
-0.23
-0.23
-0.23
-0.22
-0.21
-0.205
-0.205
-0.22
-0.22
-0.195
-0.19
-0.195
-0.2
-0.205
-0.215
-0.21
-0.21
-0.21
-0.2
-0.22
-0.215
-0.205
-0.205
-0.205
-0.2
-0.215
-0.21
-0.22
-0.21
-0.225
-0.21
-0.225
-0.235
-0.24
-0.22
-0.23
-0.235
-0.235
-0.245
-0.24
-0.24
-0.24
-0.245
-0.27
-0.265
-0.265
-0.26
-0.265
-0.28
-0.29
-0.305
-0.295
-0.275
-0.285
-0.295
-0.315
-0.325
-0.325
-0.315
-0.315
-0.315
-0.34
-0.335
-0.325
-0.315
-0.325
-0.34
-0.35
-0.36
-0.35
-0.34
-0.345
-0.345
-0.355
-0.365
-0.365
-0.345
-0.34
-0.34
-0.345
-0.35
-0.335
-0.32
-0.33
-0.35
-0.35
-0.345
-0.345
-0.33
-0.33
-0.345
-0.35
-0.35
-0.34
-0.325
-0.33
-0.325
-0.34
-0.34
-0.33
-0.315
-0.315
-0.315
-0.325
-0.325
-0.315
-0.31
-0.305
-0.31
-0.31
-0.325
-0.3
-0.295
-0.295
-0.29
-0.305
-0.29
-0.3
-0.275
-0.28
-0.28
-0.295
-0.3
-0.295
-0.285
-0.28
-0.285
-0.29
-0.285
-0.29
-0.275
-0.275
-0.28
-0.285
-0.285
-0.275
-0.26
-0.28
-0.29
-0.305
-0.3
-0.285
-0.27
-0.265
-0.265
-0.275
-0.275
-0.27
-0.265
-0.27
-0.27
-0.3
-0.295
-0.275
-0.255
-0.25
-0.255
-0.275
-0.275
-0.27
-0.255
-0.265
-0.26
-0.275
-0.27
-0.26
-0.265
-0.265
-0.26
-0.265
-0.27
-0.26
-0.255
-0.265
-0.265
-0.27
-0.275
-0.26
-0.245
-0.245
-0.25
-0.26
-0.27
-0.255
-0.235
-0.245
-0.25
-0.255
-0.245
-0.22
-0.2
-0.195
-0.2
-0.2
-0.19
-0.18
-0.155
-0.14
-0.13
-0.115
-0.1
-0.075
-0.055
-0.06
-0.065
-0.065
-0.045
-0.005
0.01
0.005
0.0
-0.01
-0.04
-0.09
-0.135
-0.165
-0.21
-0.25
-0.29
-0.3
-0.285
-0.275
-0.275
-0.3
-0.295
-0.29
-0.28
-0.285
-0.295
-0.3
-0.285
-0.275
-0.26
-0.265
-0.28
-0.295
-0.29
-0.285
-0.275
-0.27
-0.265
-0.275
-0.275
-0.275
-0.265
-0.265
-0.26
-0.265
-0.255
-0.25
-0.245
-0.25
-0.265
-0.27
-0.26
-0.235
-0.195
-0.11
-0.025
0.09
0.245
0.39
0.425
0.39
0.375
0.42
0.465
0.525
0.55
0.565
0.565
0.6
0.615
0.62
0.595
0.465
0.275
0.075
-0.08
-0.21
-0.365
-0.535
-0.66
-0.74
-0.74
-0.685
-0.605
-0.57
-0.555
-0.55
-0.51
-0.46
-0.41
-0.415
-0.4
-0.4
-0.385
-0.385
-0.37
-0.38
-0.385
-0.395
-0.4
-0.39
-0.375
-0.38
-0.39
-0.41
-0.405
-0.405
-0.41
-0.41
-0.405
-0.425
-0.415
-0.41
-0.405
-0.41
-0.415
-0.425
-0.425
-0.41
-0.405
-0.4
-0.415
-0.435
-0.44
-0.425
-0.41
-0.405
-0.42
-0.425
-0.425
-0.41
-0.4
-0.41
-0.41
-0.415
-0.425
-0.41
-0.405
-0.405
-0.405
-0.415
-0.405
-0.395
-0.39
-0.39
-0.39
-0.39
-0.38
-0.37
-0.36
-0.35
-0.355
-0.36
-0.365
-0.355
-0.335
-0.33
-0.335
-0.35
-0.345
-0.32
-0.305
-0.295
-0.295
-0.32
-0.31
-0.28
-0.28
-0.28
-0.29
-0.3
-0.305
-0.265
-0.245
-0.24
-0.255
-0.26
-0.26
-0.245
-0.23
-0.24
-0.245
-0.26
-0.245
-0.23
-0.225
-0.23
-0.245
-0.245
-0.245
-0.24
-0.235
-0.23
-0.23
-0.245
-0.25
-0.25
-0.25
-0.265
-0.285
-0.31
-0.34
-0.35
-0.41
-0.54
-0.685
-0.805
-0.835
-0.81
-0.715
-0.615
-0.505
-0.37
-0.22
-0.065
0.07
0.18
0.26
0.29
0.31
0.315
0.375
0.45
0.505
0.45
0.315
0.14
-0.025
-0.23
-0.41
-0.54
-0.585
-0.56
-0.585
-0.675
-0.755
-0.735
-0.66
-0.585
-0.52
-0.475
-0.44
-0.41
-0.36
-0.33
-0.34
-0.335
-0.355
-0.36
-0.355
-0.335
-0.325
-0.33
-0.345
-0.345
-0.35
-0.335
-0.32
-0.335
-0.34
-0.37
-0.36
-0.35
-0.33
-0.325
-0.35
-0.365
-0.345
-0.335
-0.335
-0.335
-0.34
-0.35
-0.34
-0.34
-0.335
-0.335
-0.34
-0.355
-0.345
-0.33
-0.325
-0.34
-0.335
-0.345
-0.34
-0.325
-0.32
-0.31
-0.31
-0.325
-0.335
-0.315
-0.305
-0.305
-0.305
-0.33
-0.33
-0.315
-0.3
-0.3
-0.315
-0.315
-0.32
-0.305
-0.295
-0.305
-0.315
-0.33
-0.305
-0.295
-0.285
-0.3
-0.305
-0.31
-0.3
-0.285
-0.285
-0.285
-0.29
-0.285
-0.285
-0.265
-0.27
-0.265
-0.27
-0.28
-0.29
-0.285
-0.265
-0.275
-0.28
-0.285
-0.29
-0.28
-0.27
-0.27
-0.28
-0.305
-0.305
-0.295
-0.29
-0.3
-0.31
-0.33
-0.335
-0.31
-0.305
-0.315
-0.325
-0.33
-0.34
-0.33
-0.315
-0.325
-0.33
-0.325
-0.325
-0.31
-0.29
-0.29
-0.3
-0.285
-0.27
-0.25
-0.23
-0.23
-0.22
-0.23
-0.225
-0.19
-0.155
-0.145
-0.13
-0.13
-0.12
-0.09
-0.09
-0.07
-0.065
-0.065
-0.055
-0.035
-0.01
-0.01
-0.035
-0.08
-0.09
-0.11
-0.145
-0.17
-0.215
-0.26
-0.29
-0.295
-0.29
-0.28
-0.285
-0.305
-0.295
-0.28
-0.275
-0.275
-0.295
-0.295
-0.3
-0.295
-0.29
-0.305
-0.3
-0.305
-0.29
-0.27
-0.27
-0.275
-0.28
-0.3
-0.275
-0.28
-0.28
-0.27
-0.28
-0.275
-0.275
-0.27
-0.265
-0.255
-0.27
-0.28
-0.27
-0.255
-0.255
-0.25
-0.26
-0.26
-0.255
-0.245
-0.24
-0.25
-0.25
-0.25
-0.26
-0.24
-0.245
-0.24
-0.24
-0.25
-0.245
-0.225
-0.235
-0.23
-0.23
-0.245
-0.245
-0.245
-0.225
-0.215
-0.225
-0.245
-0.24
-0.23
-0.21
-0.215
-0.225
-0.25
-0.245
-0.225
-0.205
-0.175
-0.135
-0.075
0.015
0.155
0.28
0.395
0.415
0.39
0.4
0.45
0.52
0.53
0.52
0.485
0.495
0.525
0.565
0.555
0.53
0.485
0.38
0.225
0.075
-0.055
-0.16
-0.28
-0.42
-0.555
-0.645
-0.685
-0.66
-0.615
-0.57
-0.535
-0.52
-0.475
-0.435
-0.425
-0.405
-0.385
-0.375
-0.365
-0.37
-0.39
-0.385
-0.37
-0.36
-0.365
-0.385
-0.395
-0.395
-0.385
-0.375
-0.385
-0.395
-0.42
-0.41
-0.405
-0.4
-0.42
-0.415
-0.43
-0.43
-0.42
-0.4
-0.415
-0.42
-0.44
-0.445
-0.425
-0.43
-0.43
-0.445
-0.45
-0.435
-0.43
-0.415
-0.41
-0.42
-0.445
-0.435
-0.425
-0.405
-0.415
-0.42
-0.425
-0.42
-0.415
-0.4
-0.41
-0.415
-0.415
-0.405
-0.4
-0.39
-0.4
-0.4
-0.4
-0.385
-0.38
-0.37
-0.38
-0.38
-0.365
-0.375
-0.355
-0.35
-0.335
-0.345
-0.345
-0.345
-0.34
-0.335
-0.315
-0.33
-0.335
-0.33
-0.32
-0.305
-0.3
-0.29
-0.29
-0.29
-0.28
-0.275
-0.245
-0.25
-0.265
-0.255
-0.255
-0.24
-0.245
-0.245
-0.26
-0.25
-0.245
-0.235
-0.245
-0.255
-0.27
-0.25
-0.245
-0.225
-0.225
-0.245
-0.255
-0.265
-0.25
-0.245
-0.25
-0.265
-0.265
-0.275
-0.25
-0.25
-0.265
-0.26
-0.29
-0.28
-0.275
-0.27
-0.28
-0.3
-0.305
-0.295
-0.295
-0.29
-0.305
-0.3
-0.32
-0.31
-0.315
-0.31
-0.33
-0.33
-0.34
-0.35
-0.345
-0.35
-0.335
-0.36
-0.38
-0.375
-0.375
-0.375
-0.38
-0.385
-0.38
-0.38
-0.395
-0.38
-0.385
-0.39
-0.395
-0.39
-0.385
-0.375
-0.39
-0.39
-0.395
-0.395
-0.385
-0.38
-0.365
-0.375
-0.395
-0.39
-0.375
-0.355
-0.355
-0.35
-0.36
-0.35
-0.35
-0.34
-0.33
-0.325
-0.345
-0.33
-0.33
-0.315
-0.32
-0.32
-0.335
-0.325
-0.32
-0.3
-0.31
-0.305
-0.325
-0.31
-0.295
-0.295
-0.29
-0.295
-0.32
-0.31
-0.3
-0.305
-0.3
-0.305
-0.305
-0.305
-0.29
-0.28
-0.285
-0.275
-0.3
-0.295
-0.29
-0.285
-0.275
-0.28
-0.275
-0.27
-0.28
-0.275
-0.27
-0.26
-0.28
-0.285
-0.275
-0.27
-0.265
-0.27
-0.275
-0.27
-0.265
-0.245
-0.255
-0.265
-0.275
-0.275
-0.26
-0.26
-0.245
-0.255
-0.26
-0.27
-0.235
-0.24
-0.23
-0.225
-0.215
-0.21
-0.19
-0.18
-0.165
-0.185
-0.17
-0.145
-0.12
-0.1
-0.09
-0.085
-0.07
-0.075
-0.045
-0.035
-0.03
-0.025
-0.02
-0.005
0.0
0.0
-0.025
-0.07
-0.14
-0.16
-0.195
-0.215
-0.245
-0.29
-0.315
-0.31
-0.295
-0.265
-0.275
-0.285
-0.3
-0.305
-0.29
-0.285
-0.285
-0.3
-0.31
-0.3
-0.285
-0.275
-0.28
-0.28
-0.28
-0.285
-0.28
-0.26
-0.255
-0.275
-0.285
-0.285
-0.27
-0.265
-0.255
-0.275
-0.28
-0.27
-0.25
-0.26
-0.27
-0.275
-0.275
-0.27
-0.25
-0.255
-0.225
-0.195
-0.115
-0.005
0.125
0.25
0.35
0.4
0.38
0.35
0.39
0.425
0.47
0.5
0.52
0.545
0.555
0.575
0.61
0.605
0.585
0.54
0.405
0.24
0.065
-0.09
-0.225
-0.37
-0.515
-0.615
-0.68
-0.715
-0.705
-0.65
-0.595
-0.555
-0.545
-0.52
-0.505
-0.46
-0.43
-0.395
-0.39
-0.385
-0.395
-0.395
-0.39
-0.385
-0.38
-0.375
-0.4
-0.39
-0.405
-0.385
-0.385
-0.395
-0.41
-0.4
-0.39
-0.39
-0.4
-0.41
-0.415
-0.41
-0.4
-0.4
-0.39
-0.395
-0.415
