Lead II
-1.615
-1.6
-1.56
-1.495
-1.415
-1.335
-1.265
-1.185
-1.125
-1.075
-1.035
-0.97
-0.91
-0.825
-0.75
-0.695
-0.64
-0.57
-0.52
-0.47
-0.455
-0.485
-0.51
-0.51
-0.465
-0.43
-0.385
-0.395
-0.41
-0.395
-0.39
-0.35
-0.335
-0.315
-0.3
-0.28
-0.265
-0.25
-0.22
-0.2
-0.195
-0.185
-0.19
-0.16
-0.125
-0.08
-0.03
-0.005
0.0
0.03
0.055
0.11
0.135
0.155
0.16
0.21
0.225
0.24
0.255
0.27
0.295
0.33
0.365
0.355
0.365
0.33
0.34
0.355
0.38
0.395
0.405
0.4
0.375
0.365
0.375
0.36
0.35
0.335
0.315
0.28
0.275
0.225
0.17
0.145
0.11
0.075
0.04
0.005
-0.045
-0.08
-0.09
-0.11
-0.14
-0.21
-0.27
-0.33
-0.355
-0.385
-0.41
-0.45
-0.495
-0.525
-0.565
-0.565
-0.57
-0.6
-0.63
-0.655
-0.665
-0.675
-0.675
-0.705
-0.755
-0.77
-0.785
-0.775
-0.775
-0.77
-0.775
-0.77
-0.775
-0.775
-0.8
-0.83
-0.86
-0.87
-0.85
-0.84
-0.83
-0.845
-0.835
-0.825
-0.825
-0.815
-0.81
-0.845
-0.865
-0.87
-0.88
-0.87
-0.85
-0.845
-0.84
-0.84
-0.845
-0.84
-0.835
-0.825
-0.83
-0.83
-0.815
-0.815
-0.79
-0.785
-0.785
-0.79
-0.785
-0.765
-0.76
-0.765
-0.78
-0.81
-0.81
-0.805
-0.775
-0.775
-0.765
-0.79
-0.81
-0.82
-0.805
-0.8
-0.79
-0.8
-0.775
-0.745
-0.75
-0.78
-0.795
-0.78
-0.765
-0.74
-0.73
-0.76
-0.795
-0.81
-0.81
-0.8
-0.8
-0.805
-0.795
-0.785
-0.78
-0.785
-0.78
-0.77
-0.76
-0.755
-0.73
-0.685
-0.655
-0.645
-0.645
-0.6
-0.565
-0.535
-0.515
-0.48
-0.47
-0.465
-0.475
-0.46
-0.425
-0.39
-0.36
-0.37
-0.395
-0.395
-0.415
-0.44
-0.475
-0.49
-0.485
-0.47
-0.45
-0.455
-0.46
-0.475
-0.495
-0.515
-0.52
-0.535
-0.55
-0.585
-0.625
-0.645
-0.655
-0.685
-0.695
-0.705
-0.68
-0.625
-0.54
-0.37
-0.045
0.495
1.125
1.545
1.635
1.53
1.395
1.3
1.25
1.19
1.125
1.03
0.95
0.885
0.815
0.76
0.67
0.56
0.43
0.3
0.195
0.105
0.015
-0.125
-0.28
-0.405
-0.53
-0.645
-0.77
-0.915
-1.065
-1.195
-1.255
-1.325
-1.38
-1.42
-1.45
-1.495
-1.565
-1.68
-1.815
-1.95
-2.09
-2.22
-2.34
-2.435
-2.485
-2.49
-2.425
-2.305
-2.175
-2.02
-1.875
-1.745
-1.665
-1.63
-1.61
-1.595
-1.57
-1.56
-1.55
-1.565
-1.6
-1.605
-1.57
-1.52
-1.455
-1.395
-1.345
-1.3
-1.25
-1.205
-1.15
-1.09
-1.05
-0.97
-0.88
-0.775
-0.695
-0.63
-0.565
-0.52
-0.495
-0.47
-0.44
-0.455
-0.44
-0.415
-0.39
-0.36
-0.35
-0.34
-0.34
-0.305
-0.26
-0.245
-0.22
-0.2
-0.185
-0.16
-0.125
-0.09
-0.075
-0.07
-0.04
-0.005
0.04
0.07
0.085
0.085
0.115
0.14
0.18
0.23
0.265
0.305
0.335
0.36
0.36
0.365
0.38
0.38
0.425
0.465
0.485
0.48
0.495
0.495
0.5
0.51
0.51
0.5
0.49
0.49
0.49
0.485
0.475
0.44
0.42
0.39
0.38
0.35
0.33
0.285
0.235
0.195
0.18
0.16
0.15
0.105
0.05
-0.01
-0.07
-0.12
-0.16
-0.21
-0.265
-0.305
-0.335
-0.345
-0.37
-0.42
-0.48
-0.535
-0.56
-0.56
-0.565
-0.605
-0.625
-0.65
-0.665
-0.67
-0.675
-0.685
-0.7
-0.71
-0.72
-0.715
-0.725
-0.725
-0.74
-0.735
-0.725
-0.71
-0.72
-0.76
-0.79
-0.815
-0.815
-0.8
-0.78
-0.78
-0.775
-0.775
-0.76
-0.745
-0.74
-0.755
-0.775
-0.77
-0.75
-0.73
-0.705
-0.71
-0.695
-0.66
-0.62
-0.57
-0.535
-0.525
-0.515
-0.5
-0.48
-0.46
-0.425
-0.395
-0.36
-0.355
-0.38
-0.425
-0.465
-0.48
-0.475
-0.46
-0.455
-0.45
-0.445
-0.445
-0.44
-0.445
-0.47
-0.48
-0.505
-0.55
-0.59
-0.635
-0.655
-0.675
-0.665
-0.67
-0.7
-0.74
-0.76
-0.785
-0.805
-0.815
-0.86
-0.84
-0.835
-0.84
-0.855
-0.875
-0.905
-0.905
-0.9
-0.88
-0.86
-0.88
-0.91
-0.91
-0.91
-0.89
-0.88
-0.885
-0.895
-0.905
-0.905
-0.885
-0.87
-0.865
-0.875
-0.88
-0.88
-0.865
-0.845
-0.85
-0.865
-0.89
-0.91
-0.895
-0.895
-0.89
-0.89
-0.895
-0.9
-0.885
-0.875
-0.895
-0.885
-0.895
-0.885
-0.86
-0.85
-0.85
-0.83
-0.83
-0.83
-0.83
-0.81
-0.785
-0.77
-0.745
-0.705
-0.625
-0.465
-0.115
0.47
1.105
1.59
1.67
1.575
1.42
1.35
1.27
1.2
1.11
1.045
0.955
0.875
0.785
0.68
0.59
0.505
0.38
0.285
0.135
-0.015
-0.165
-0.315
-0.45
-0.595
-0.725
-0.88
-1.04
-1.195
-1.35
-1.46
-1.535
-1.6
-1.63
-1.69
-1.825
-1.985
-2.13
-2.26
-2.35
-2.44
-2.575
-2.68
-2.7
-2.64
-2.505
-2.36
-2.22
-2.06
-1.925
-1.825
-1.755
-1.7
-1.63
-1.575
-1.535
-1.485
-1.44
-1.405
-1.4
-1.39
-1.375
-1.335
-1.26
-1.175
-1.125
-1.05
-0.975
-0.91
-0.83
-0.755
-0.67
-0.595
-0.52
-0.45
-0.37
-0.28
-0.235
-0.2
-0.2
-0.185
-0.16
-0.13
-0.105
-0.08
-0.08
-0.075
-0.05
-0.03
0.005
0.025
0.035
0.065
0.105
0.14
0.16
0.17
0.18
0.205
0.245
0.305
0.34
0.37
0.37
0.39
0.425
0.47
0.505
0.53
0.54
0.56
0.585
0.605
0.62
0.615
0.625
0.625
0.675
0.695
0.725
0.74
0.705
0.69
0.685
0.685
0.675
0.655
0.635
0.625
0.61
0.6
0.58
0.58
0.59
0.57
0.555
0.525
0.48
0.46
0.435
0.42
0.41
0.4
0.37
0.335
0.315
0.285
0.27
0.25
0.19
0.135
0.075
0.01
-0.055
-0.095
-0.125
-0.145
-0.165
-0.195
-0.22
-0.225
-0.25
-0.29
-0.33
-0.365
-0.375
-0.4
-0.435
-0.49
-0.525
-0.565
-0.59
-0.6
-0.635
-0.675
-0.715
-0.755
-0.77
-0.765
-0.77
-0.77
-0.79
-0.81
-0.82
-0.815
-0.83
-0.825
-0.815
-0.795
-0.8
-0.83
-0.875
-0.88
-0.865
-0.83
-0.8
-0.805
-0.82
-0.845
-0.85
-0.85
-0.865
-0.86
-0.865
-0.865
-0.84
-0.83
-0.825
-0.825
-0.845
-0.835
-0.84
-0.855
-0.855
-0.845
-0.84
-0.815
-0.81
-0.815
-0.81
-0.805
-0.815
-0.815
-0.815
-0.805
-0.81
-0.795
-0.79
-0.78
-0.785
-0.805
-0.815
-0.81
-0.82
-0.83
-0.82
-0.835
-0.825
-0.835
-0.835
-0.825
-0.82
-0.8
-0.785
-0.77
-0.77
-0.8
-0.805
-0.79
-0.78
-0.78
-0.79
-0.78
-0.78
-0.755
-0.725
-0.695
-0.7
-0.74
-0.775
-0.785
-0.785
-0.785
-0.775
-0.765
-0.745
-0.725
-0.725
-0.725
-0.725
-0.715
-0.695
-0.72
-0.72
-0.735
-0.74
-0.73
-0.725
-0.705
-0.68
-0.665
-0.67
-0.68
-0.695
-0.695
-0.685
-0.65
-0.635
-0.615
-0.62
-0.6
-0.555
-0.49
-0.385
-0.15
0.275
0.895
1.475
1.785
1.8
1.69
1.58
1.51
1.47
1.395
1.3
1.2
1.115
1.03
0.95
0.845
0.71
0.57
0.445
0.33
0.235
0.105
-0.055
-0.215
-0.405
-0.59
-0.755
-0.905
-1.065
-1.21
-1.315
-1.395
-1.45
-1.48
-1.52
-1.575
-1.675
-1.83
-1.975
-2.08
-2.205
-2.3
-2.425
-2.52
-2.54
-2.47
-2.305
-2.125
-1.965
-1.835
-1.72
-1.64
-1.57
-1.52
-1.475
-1.43
-1.395
-1.37
-1.37
-1.37
-1.35
-1.325
-1.26
-1.2
-1.15
-1.07
-0.99
-0.935
-0.875
-0.815
-0.77
-0.685
-0.605
-0.515
-0.44
-0.365
-0.305
-0.245
-0.2
-0.175
-0.15
-0.135
-0.095
-0.04
0.03
0.1
0.135
0.145
0.165
0.205
0.245
0.31
0.375
0.435
0.445
0.46
0.51
0.575
0.625
0.645
0.605
0.595
0.585
0.615
0.65
0.69
0.71
0.725
0.77
0.8
0.82
0.83
0.825
0.825
0.84
0.86
0.865
0.85
0.81
0.795
0.77
0.755
0.765
0.75
0.725
0.685
0.67
0.665
0.69
0.68
0.645
0.595
0.545
0.5
0.49
0.485
0.44
0.38
0.315
0.25
0.23
0.215
0.16
0.085
-0.01
-0.09
-0.12
-0.135
-0.18
-0.23
-0.27
-0.32
-0.365
-0.415
-0.445
-0.475
-0.495
-0.53
-0.545
-0.56
-0.6
-0.625
-0.655
-0.665
-0.665
-0.655
-0.675
-0.71
-0.725
-0.745
-0.745
-0.735
-0.75
-0.765
-0.76
-0.755
-0.78
-0.77
-0.77
-0.76
-0.77
-0.775
-0.775
-0.745
-0.745
-0.785
-0.83
-0.83
-0.81
-0.775
-0.77
-0.78
-0.79
-0.785
-0.77
-0.755
-0.76
-0.75
-0.745
-0.765
-0.795
-0.81
-0.805
-0.795
-0.775
-0.75
-0.71
-0.665
-0.635
-0.625
-0.635
-0.66
-0.685
-0.715
-0.755
-0.765
-0.75
-0.725
-0.7
-0.68
-0.71
-0.74
-0.75
-0.765
-0.72
-0.665
-0.645
-0.65
-0.66
-0.665
-0.66
-0.68
-0.715
-0.75
-0.755
-0.745
-0.71
-0.675
-0.68
-0.675
-0.67
-0.675
-0.695
-0.71
-0.73
-0.725
-0.725
-0.7
-0.675
-0.66
-0.655
-0.665
-0.66
-0.67
-0.665
-0.68
-0.685
-0.68
-0.695
-0.685
-0.695
-0.685
-0.68
-0.68
-0.65
-0.635
-0.615
-0.63
-0.695
-0.735
-0.72
-0.685
-0.65
-0.655
-0.675
-0.675
-0.655
-0.625
-0.615
-0.595
-0.585
-0.59
-0.605
-0.605
-0.605
-0.575
-0.575
-0.595
-0.595
-0.58
-0.52
-0.39
-0.205
0.13
0.69
1.31
1.755
1.88
1.83
1.735
1.67
1.61
1.545
1.45
1.335
1.225
1.135
1.045
0.975
0.885
0.76
0.62
0.49
0.325
0.185
0.02
-0.165
-0.39
-0.595
-0.825
-1.04
-1.225
-1.4
-1.54
-1.645
-1.745
-1.805
-1.855
-1.89
-1.92
-2.0
-2.105
-2.205
-2.275
-2.385
-2.495
-2.605
-2.695
-2.72
-2.645
-2.525
-2.365
-2.215
-2.055
-1.88
-1.71
-1.565
-1.46
-1.41
-1.39
-1.365
-1.33
-1.285
-1.23
-1.215
-1.22
-1.225
-1.23
-1.205
-1.145
-1.08
-1.005
-0.97
-0.955
-0.92
-0.885
-0.825
-0.775
-0.685
-0.62
-0.565
-0.505
-0.46
-0.385
-0.315
-0.275
-0.295
-0.31
-0.325
-0.31
-0.28
-0.255
-0.255
-0.21
-0.19
-0.155
-0.095
-0.05
-0.015
0.015
0.03
0.02
0.03
0.05
0.05
0.08
0.11
0.155
0.19
0.225
0.255
0.28
0.305
0.34
0.405
0.455
0.49
0.515
0.54
0.56
0.58
0.62
0.62
0.62
0.61
0.63
0.645
0.65
0.635
0.61
0.585
0.575
0.57
0.59
0.61
0.595
0.535
0.47
0.425
0.425
0.41
0.39
0.35
0.295
0.275
0.26
0.23
0.165
0.1
0.035
0.005
-0.01
-0.05
-0.1
-0.155
-0.245
-0.315
-0.355
-0.395
-0.43
-0.475
-0.52
-0.54
-0.555
-0.585
-0.625
-0.67
-0.695
-0.705
-0.72
-0.73
-0.755
-0.76
-0.755
-0.755
-0.76
-0.795
-0.815
-0.82
-0.79
-0.745
-0.71
-0.72
-0.77
-0.84
-0.915
-0.955
-0.94
-0.935
-0.93
-0.92
-0.9
-0.885
-0.855
-0.87
-0.895
-0.915
-0.91
-0.895
-0.885
-0.91
-0.91
-0.9
-0.895
-0.875
-0.885
-0.895
-0.905
-0.895
-0.89
-0.86
-0.835
-0.835
-0.845
-0.855
-0.85
-0.83
-0.83
-0.835
-0.855
-0.85
-0.825
-0.8
-0.79
-0.815
-0.835
-0.84
-0.83
-0.8
-0.8
-0.825
-0.83
-0.825
-0.83
-0.825
-0.82
-0.83
-0.825
-0.815
-0.805
-0.795
-0.785
-0.795
-0.77
-0.795
-0.8
-0.81
-0.805
-0.805
-0.8
-0.815
-0.825
-0.805
-0.785
-0.78
-0.765
-0.765
-0.765
-0.76
-0.755
-0.785
-0.8
-0.82
-0.795
-0.78
-0.765
-0.76
-0.76
-0.755
-0.74
-0.73
-0.715
-0.735
-0.745
-0.735
-0.73
-0.705
-0.69
-0.71
-0.715
-0.71
-0.685
-0.655
-0.625
-0.585
-0.56
-0.55
-0.54
-0.515
-0.5
-0.49
-0.465
-0.46
-0.44
-0.42
-0.385
-0.35
-0.32
-0.3
-0.3
-0.3
-0.295
-0.295
-0.295
-0.29
-0.285
-0.22
-0.13
0.005
0.265
0.695
1.295
1.855
2.135
2.185
2.12
2.035
1.99
1.925
1.845
1.72
1.585
1.465
1.35
1.26
1.175
1.05
0.905
0.745
0.565
0.405
0.225
0.04
-0.145
-0.33
-0.495
-0.665
-0.84
-1.065
-1.255
-1.41
-1.565
-1.685
-1.775
-1.89
-1.985
-2.075
-2.13
-2.15
-2.18
-2.26
-2.345
-2.43
-2.5
-2.53
-2.575
-2.66
-2.725
-2.76
-2.72
-2.575
-2.425
-2.25
-2.07
-1.93
-1.795
-1.67
-1.575
-1.505
-1.47
-1.445
-1.41
-1.37
-1.33
-1.305
-1.315
-1.29
-1.27
-1.21
-1.165
-1.12
-1.065
-1.01
-0.95
-0.9
-0.835
-0.78
-0.73
-0.66
-0.59
-0.51
-0.435
-0.38
-0.315
-0.27
-0.225
-0.175
-0.15
-0.135
-0.115
-0.125
-0.095
-0.075
-0.065
-0.04
-0.015
0.005
0.035
0.075
0.12
0.14
0.15
0.175
0.195
0.235
0.285
0.31
0.34
0.37
0.405
0.435
0.475
0.495
0.54
0.56
0.58
0.615
0.655
0.685
0.72
0.755
0.78
0.815
0.85
0.87
0.875
0.88
0.885
0.895
0.93
0.92
0.925
0.915
0.9
0.9
0.9
0.885
0.85
0.84
0.825
0.815
0.8
0.76
0.71
0.65
0.58
0.54
0.51
0.475
0.43
0.38
0.325
0.255
0.21
0.155
0.105
0.045
-0.025
-0.065
-0.11
-0.14
-0.195
-0.25
-0.31
-0.35
-0.365
-0.4
-0.43
-0.47
-0.5
-0.515
-0.525
-0.55
-0.555
-0.575
-0.585
-0.6
-0.595
-0.6
-0.61
-0.61
-0.65
-0.665
-0.67
-0.675
-0.665
-0.675
-0.675
-0.67
-0.645
-0.62
-0.645
-0.66
-0.7
-0.71
-0.695
-0.685
-0.685
-0.69
-0.685
-0.67
-0.66
-0.67
-0.675
-0.675
-0.68
-0.665
-0.665
-0.68
-0.67
-0.67
-0.68
-0.66
-0.645
-0.645
-0.635
-0.64
-0.66
-0.65
-0.645
-0.645
-0.64
-0.63
-0.63
-0.625
-0.6
-0.585
-0.57
-0.56
-0.545
-0.52
-0.5
-0.47
-0.43
-0.41
-0.4
-0.39
-0.37
-0.36
-0.35
-0.33
-0.3
-0.25
-0.23
-0.225
-0.265
-0.3
-0.34
-0.365
-0.355
-0.36
-0.34
-0.345
-0.345
-0.345
-0.33
-0.34
-0.37
-0.405
-0.445
-0.475
-0.48
-0.5
-0.515
-0.53
-0.565
-0.58
-0.59
-0.6
-0.63
-0.65
-0.66
-0.66
-0.67
-0.665
-0.69
-0.71
-0.72
-0.715
-0.7
-0.695
-0.71
-0.725
-0.725
-0.71
-0.7
-0.695
-0.725
-0.73
-0.72
-0.71
-0.69
-0.695
-0.71
-0.705
-0.695
-0.68
-0.66
-0.66
-0.69
-0.685
-0.685
-0.665
-0.645
-0.65
-0.64
-0.66
-0.64
-0.605
-0.575
-0.565
-0.555
-0.53
-0.445
-0.255
0.1
0.67
1.305
1.855
2.1
2.11
2.015
1.925
1.85
1.77
1.7
1.6
1.515
1.42
1.32
1.22
1.135
1.04
0.955
0.85
0.73
0.6
0.47
0.335
0.205
0.045
-0.115
-0.27
-0.42
-0.56
-0.69
-0.845
-1.0
-1.145
-1.265
-1.355
-1.415
-1.485
-1.545
-1.59
-1.67
-1.75
-1.85
-1.96
-2.045
-2.125
-2.21
-2.255
-2.305
-2.3
-2.245
-2.175
-2.05
-1.935
-1.78
-1.645
-1.53
-1.45
-1.4
-1.35
-1.285
-1.245
-1.195
-1.16
-1.12
-1.075
-1.03
-1.02
-1.04
-1.045
-1.03
-0.98
-0.9
-0.84
-0.785
-0.745
-0.685
-0.62
-0.555
-0.485
-0.43
-0.37
-0.295
-0.24
-0.16
-0.1
-0.055
-0.025
0.0
0.015
0.05
0.06
0.075
0.08
0.095
0.13
0.155
0.18
0.2
0.22
0.235
0.255
0.3
0.305
0.31
0.35
0.38
0.395
0.405
0.39
0.405
0.435
0.48
0.535
0.57
0.595
0.615
0.635
0.66
0.695
0.735
0.745
0.765
0.785
0.81
0.84
0.88
0.885
0.885
0.895
0.9
0.91
0.93
0.91
0.89
0.88
0.88
0.9
0.89
0.875
0.855
0.82
0.8
0.785
0.765
0.75
0.725
0.68
0.635
0.61
0.565
0.515
0.47
0.435
0.385
0.36
0.335
0.3
0.265
0.205
0.155
0.11
0.075
0.03
-0.005
-0.04
-0.09
-0.12
-0.14
-0.16
-0.205
-0.22
-0.235
-0.23
-0.23
-0.215
-0.225
-0.19
-0.17
-0.145
-0.12
-0.115
-0.125
-0.13
-0.13
-0.13
-0.09
-0.09
-0.085
-0.1
-0.135
-0.15
-0.17
-0.195
-0.22
-0.22
-0.21
-0.205
-0.195
-0.215
-0.23
-0.25
-0.27
-0.29
-0.295
-0.325
-0.365
-0.38
-0.4
-0.415
-0.425
-0.45
-0.48
-0.505
-0.53
-0.545
-0.545
-0.555
-0.56
-0.575
-0.585
-0.595
-0.6
-0.615
-0.61
-0.61
-0.61
-0.605
-0.59
-0.595
-0.59
-0.605
-0.595
-0.595
-0.595
-0.615
-0.605
-0.61
-0.615
-0.61
-0.6
-0.6
-0.615
-0.635
-0.635
-0.615
-0.615
-0.615
-0.625
-0.625
-0.62
-0.615
-0.605
-0.62
-0.63
-0.65
-0.64
-0.645
-0.62
-0.615
-0.625
-0.635
-0.64
-0.64
-0.615
-0.625
-0.625
-0.62
-0.615
-0.62
-0.605
-0.61
-0.615
-0.62
-0.615
-0.61
-0.595
-0.6
-0.605
-0.62
-0.615
-0.61
-0.6
-0.59
-0.6
-0.59
-0.605
-0.585
-0.57
-0.56
-0.555
-0.565
-0.57
-0.565
-0.555
-0.565
-0.57
-0.58
-0.585
-0.565
-0.545
-0.535
-0.54
-0.52
-0.525
-0.52
-0.505
-0.505
-0.5
-0.5
-0.485
-0.47
-0.46
-0.435
-0.43
-0.41
-0.38
-0.32
-0.21
-0.01
0.4
1.015
1.65
2.15
2.28
2.21
2.08
2.015
1.96
1.885
1.8
1.675
1.58
1.48
1.395
1.32
1.22
1.085
0.93
0.76
0.59
0.45
0.29
0.1
-0.12
-0.325
-0.505
-0.685
-0.845
-1.04
-1.225
-1.415
-1.565
-1.68
-1.77
-1.825
-1.905
-1.95
-2.01
-2.065
-2.15
-2.245
-2.325
-2.39
-2.445
-2.475
-2.49
-2.495
-2.45
-2.325
-2.19
-2.005
-1.83
-1.66
-1.515
-1.43
-1.36
-1.275
-1.195
-1.155
-1.11
-1.06
-1.015
-0.965
-0.945
-0.94
-0.92
-0.9
-0.845
-0.775
-0.69
-0.645
-0.59
-0.54
-0.475
-0.4
-0.32
-0.26
-0.195
-0.15
-0.085
-0.01
0.055
0.12
0.17
0.195
0.22
0.25
0.265
0.275
0.285
0.295
0.305
0.345
0.38
0.4
0.42
0.44
0.47
0.49
0.52
0.56
0.57
0.595
0.62
0.65
0.695
0.735
0.76
0.785
0.835
0.89
0.95
1.005
1.05
1.11
1.175
1.255
1.32
1.355
1.37
1.395
1.43
1.465
1.505
1.52
1.54
1.52
1.515
1.505
1.52
1.495
1.48
1.455
1.43
1.415
1.405
1.395
1.375
1.34
1.3
1.265
1.24
1.195
1.125
1.07
1.015
0.955
0.9
0.805
0.715
0.64
0.555
0.515
0.47
0.385
0.315
0.225
0.16
0.1
0.06
0.01
-0.05
-0.115
-0.145
-0.175
-0.185
-0.245
-0.28
-0.325
-0.345
-0.34
-0.325
-0.34
-0.365
-0.415
-0.475
-0.5
-0.505
-0.52
-0.535
-0.545
-0.535
-0.535
-0.525
-0.53
-0.53
-0.53
-0.53
-0.525
-0.525
-0.525
-0.535
-0.535
-0.52
-0.52
-0.51
-0.53
-0.56
-0.56
-0.565
-0.565
-0.56
-0.57
-0.56
-0.54
-0.52
-0.51
-0.51
-0.53
-0.54
-0.555
-0.545
-0.545
-0.54
-0.555
-0.56
-0.555
-0.54
-0.52
-0.505
-0.51
-0.515
-0.51
-0.51
-0.485
-0.445
-0.45
-0.48
-0.495
-0.51
-0.5
-0.475
-0.465
-0.455
-0.45
-0.455
-0.485
-0.5
-0.51
-0.495
-0.49
-0.48
-0.485
-0.48
-0.51
-0.51
-0.49
-0.475
-0.435
-0.42
-0.435
-0.45
-0.495
-0.525
-0.515
-0.48
-0.465
-0.45
-0.475
-0.505
-0.53
-0.53
-0.52
-0.5
-0.49
-0.485
-0.5
-0.505
-0.5
-0.48
-0.45
-0.435
-0.45
-0.48
-0.52
-0.515
-0.495
-0.455
-0.405
-0.37
-0.39
-0.46
-0.53
-0.56
-0.535
-0.475
-0.465
-0.465
-0.48
-0.47
-0.435
-0.42
-0.42
-0.405
-0.385
-0.36
-0.36
-0.38
-0.405
-0.41
-0.405
-0.35
-0.29
-0.265
-0.23
-0.19
-0.095
0.15
0.635
1.27
1.905
2.34
2.385
2.275
2.195
2.15
2.055
1.965
1.855
1.77
1.71
1.61
1.46
1.3
1.125
0.955
0.785
0.615
0.44
0.265
0.095
-0.12
-0.33
-0.56
-0.82
-1.04
-1.25
-1.46
-1.645
-1.77
-1.885
-1.975
-2.035
-2.095
-2.145
-2.22
-2.315
-2.385
-2.445
-2.5
-2.53
-2.56
-2.58
-2.545
-2.455
-2.3
-2.08
-1.885
-1.72
-1.57
-1.42
-1.29
-1.17
-1.055
-0.945
-0.855
-0.77
-0.71
-0.66
-0.62
-0.6
-0.565
-0.485
-0.375
-0.255
-0.165
-0.13
-0.1
-0.08
-0.05
0.015
0.085
0.175
0.25
0.33
0.405
0.45
0.505
0.55
0.56
0.545
0.525
0.53
0.52
0.52
0.51
0.505
0.505
0.52
0.54
0.545
0.555
0.555
0.57
0.59
0.63
0.645
0.66
0.67
0.7
0.735
0.775
0.81
0.84
0.865
0.9
0.925
0.985
1.01
1.035
1.05
1.075
1.11
1.15
1.165
1.17
1.17
1.185
1.215
1.23
1.22
1.2
1.185
1.18
1.165
1.16
1.135
1.1
1.08
1.055
1.035
0.995
0.945
0.885
0.84
0.795
0.78
0.76
0.715
0.665
0.6
0.54
0.48
0.425
0.34
0.28
0.23
0.18
0.15
0.105
0.05
-0.01
-0.05
-0.08
-0.12
-0.15
-0.19
-0.24
-0.29
-0.325
-0.35
-0.375
-0.395
-0.415
-0.425
-0.43
-0.415
-0.43
-0.445
-0.47
-0.48
-0.495
-0.495
-0.48
-0.505
-0.515
-0.505
-0.5
-0.49
-0.48
-0.475
-0.49
-0.515
-0.525
-0.505
-0.495
-0.505
-0.505
-0.52
-0.54
-0.535
-0.52
-0.52
-0.505
-0.525
-0.545
-0.535
-0.525
-0.515
-0.515
-0.515
-0.5
-0.485
-0.47
-0.475
-0.49
-0.49
-0.495
-0.465
-0.44
-0.44
-0.44
-0.44
-0.455
-0.455
-0.45
-0.46
-0.47
-0.49
-0.49
-0.46
-0.445
-0.445
-0.45
-0.435
-0.415
-0.405
-0.405
-0.435
-0.485
-0.475
-0.48
-0.455
-0.425
-0.405
-0.385
-0.4
-0.425
-0.45
-0.455
-0.455
-0.46
-0.455
-0.46
-0.455
-0.425
-0.415
-0.41
-0.41
-0.415
-0.4
-0.365
-0.38
-0.375
-0.395
-0.43
-0.4
-0.37
-0.365
-0.38
-0.415
-0.43
-0.435
-0.44
-0.42
-0.405
-0.4
-0.38
-0.37
-0.365
-0.385
-0.395
-0.39
-0.4
-0.38
-0.365
-0.37
-0.36
-0.365
-0.37
-0.365
-0.355
-0.35
-0.34
-0.34
-0.345
-0.335
-0.31
-0.29
-0.275
-0.275
-0.24
-0.19
-0.11
0.02
0.28
0.765
1.4
2.035
2.44
2.51
2.435
2.35
2.32
2.28
2.23
2.135
2.005
1.885
1.75
1.625
1.515
1.375
1.22
1.035
0.83
0.6
0.365
0.12
-0.145
-0.435
-0.715
-0.98
-1.225
-1.445
-1.625
-1.775
-1.87
-1.94
-1.99
-2.05
-2.12
-2.195
-2.305
-2.39
-2.435
-2.485
-2.545
-2.58
-2.58
-2.49
-2.34
-2.18
-1.99
-1.805
-1.63
-1.455
-1.315
-1.23
-1.165
-1.125
-1.065
-0.985
-0.92
-0.895
-0.89
-0.865
-0.84
-0.765
-0.685
-0.61
-0.535
-0.48
-0.44
-0.37
-0.3
-0.22
-0.16
-0.095
-0.03
0.05
0.15
0.22
0.25
0.25
0.25
0.26
0.29
0.325
0.335
0.365
0.405
0.445
0.48
0.495
0.505
0.52
0.545
0.59
0.64
0.67
0.705
0.73
0.76
0.785
0.825
0.86
0.885
0.935
0.98
1.02
1.05
1.085
1.105
1.13
1.145
1.18
1.21
1.23
1.24
1.25
1.26
1.29
1.285
1.285
1.28
1.25
1.24
1.23
1.225
1.21
1.185
1.135
1.105
1.08
1.07
1.045
0.99
0.935
0.88
0.855
0.83
0.78
0.735
0.66
0.615
0.575
0.535
0.485
0.41
0.345
0.29
0.26
0.225
0.17
0.11
0.05
0.005
-0.04
-0.05
-0.085
-0.11
-0.14
-0.17
-0.185
-0.205
-0.235
-0.27
-0.28
-0.295
-0.29
-0.28
-0.3
-0.34
-0.36
-0.4
-0.395
-0.385
-0.38
-0.39
-0.425
-0.425
-0.42
-0.395
-0.405
-0.43
-0.46
-0.455
-0.44
-0.42
-0.425
-0.42
-0.43
-0.445
-0.445
-0.43
-0.44
-0.44
-0.46
-0.465
-0.455
-0.44
-0.435
-0.435
-0.445
-0.465
-0.445
-0.435
-0.435
-0.445
-0.455
-0.455
-0.455
-0.42
-0.42
-0.445
-0.45
-0.45
-0.44
-0.43
-0.42
-0.435
-0.435
-0.465
-0.47
-0.45
-0.435
-0.425
-0.43
-0.44
-0.45
-0.46
-0.46
-0.465
-0.48
-0.46
-0.46
-0.445
-0.445
-0.435
-0.445
-0.435
-0.425
-0.395
-0.365
-0.325
-0.295
-0.285
-0.285
-0.255
-0.25
-0.24
-0.2
-0.155
-0.135
-0.165
-0.205
-0.235
-0.245
-0.25
-0.22
-0.2
-0.21
-0.225
-0.235
-0.235
-0.225
-0.235
-0.265
-0.295
-0.315
-0.34
-0.345
-0.37
-0.395
-0.425
-0.455
-0.465
-0.475
-0.475
-0.48
-0.5
-0.515
-0.535
-0.53
-0.53
-0.55
-0.575
-0.585
-0.585
-0.555
-0.55
-0.55
-0.54
-0.545
-0.53
-0.49
-0.445
-0.37
-0.245
0.015
0.545
1.18
1.815
2.1
2.06
1.91
1.775
1.72
1.665
1.57
1.45
1.33
1.25
1.165
1.075
0.975
0.865
0.745
0.6
0.45
0.305
0.17
0.02
-0.155
-0.345
-0.495
-0.635
-0.785
-0.935
-1.08
-1.225
-1.36
-1.445
-1.55
-1.63
-1.675
-1.715
-1.74
-1.805
-1.935
-2.05
-2.14
-2.2
-2.24
-2.28
-2.325
-2.305
-2.2
-2.075
-1.935
-1.77
-1.625
-1.52
-1.435
-1.38
-1.335
-1.27
-1.235
-1.195
-1.16
-1.125
-1.085
-1.06
-1.05
-1.02
-0.98
-0.91
-0.855
-0.78
-0.72
-0.67
-0.635
-0.57
-0.49
-0.4
-0.335
-0.265
-0.215
-0.155
-0.085
-0.02
-0.01
0.005
0.025
0.045
0.07
0.085
0.09
0.1
0.13
0.17
0.21
0.23
0.245
0.26
0.27
0.3
0.335
0.375
0.41
0.44
0.465
0.515
0.555
0.595
0.625
0.62
0.63
0.665
0.72
0.75
0.77
0.78
0.8
0.825
0.885
0.925
0.935
0.92
0.915
0.925
0.955
0.96
0.97
0.965
0.945
0.945
0.945
0.95
0.94
0.91
0.88
0.87
0.855
0.85
0.82
0.79
0.73
0.7
0.675
0.655
0.615
0.57
0.53
0.485
0.465
0.43
0.37
0.32
0.26
0.22
0.18
0.14
0.095
0.045
0.005
-0.04
-0.055
-0.075
-0.12
-0.17
-0.205
-0.235
-0.255
-0.27
-0.28
-0.295
-0.33
-0.345
-0.36
-0.37
-0.375
-0.395
-0.405
-0.41
-0.405
-0.4
-0.405
-0.415
-0.42
-0.415
-0.385
-0.375
-0.38
-0.37
-0.375
-0.365
-0.33
-0.29
-0.255
-0.235
-0.22
-0.175
-0.135
-0.105
-0.095
-0.095
-0.1
-0.095
-0.06
-0.035
-0.02
-0.035
-0.07
-0.11
-0.115
-0.105
-0.105
-0.105
-0.105
-0.105
-0.09
-0.105
-0.105
-0.125
-0.155
-0.18
-0.195
-0.215
-0.22
-0.245
-0.27
-0.285
-0.315
-0.34
-0.37
-0.395
-0.41
-0.43
-0.445
-0.445
-0.455
-0.47
-0.495
-0.52
-0.53
-0.53
-0.52
-0.52
-0.54
-0.54
-0.54
-0.54
-0.54
-0.55
-0.555
-0.55
-0.54
-0.545
-0.55
-0.565
-0.555
-0.56
-0.555
-0.555
-0.555
-0.565
-0.56
-0.56
-0.56
-0.545
-0.545
-0.55
-0.55
-0.555
-0.545
-0.54
-0.525
-0.56
-0.555
-0.54
-0.55
-0.535
-0.53
-0.54
-0.545
-0.55
-0.545
-0.535
-0.535
-0.55
-0.565
-0.57
-0.555
-0.545
-0.54
-0.545
-0.55
-0.555
-0.54
-0.53
-0.525
-0.53
-0.545
-0.54
-0.525
-0.52
-0.51
-0.5
-0.48
-0.485
-0.47
-0.44
-0.435
-0.4
-0.34
-0.195
0.11
0.625
1.26
1.705
1.735
1.525
1.335
1.24
1.18
1.09
0.985
0.88
0.805
0.745
0.67
0.595
0.495
0.38
0.29
0.18
0.04
-0.08
-0.22
-0.365
-0.52
-0.67
-0.82
-0.98
-1.16
-1.325
-1.5
-1.65
-1.765
-1.87
-1.955
-2.01
-2.055
-2.09
-2.175
-2.265
-2.345
-2.4
-2.435
-2.465
-2.5
-2.505
-2.46
-2.355
-2.235
-2.095
-1.93
-1.77
-1.615
-1.49
-1.395
-1.315
-1.255
-1.205
-1.145
-1.075
-1.035
-1.015
-1.005
-0.98
-0.93
-0.865
-0.775
-0.69
-0.625
-0.565
-0.52
-0.455
-0.385
-0.3
-0.225
-0.155
-0.085
0.0
0.075
0.135
0.18
0.2
0.22
0.235
0.265
0.295
0.315
0.33
0.345
0.365
0.385
0.425
0.445
0.475
0.495
0.52
0.57
0.61
0.63
0.655
0.67
0.71
0.745
0.78
0.82
0.845
0.875
0.9
0.935
0.975
1.02
1.035
1.055
1.085
1.12
1.145
1.16
1.17
1.175
1.18
1.195
1.21
1.22
1.22
1.23
1.23
1.24
1.255
1.25
1.255
1.265
1.275
1.28
1.305
1.29
1.28
1.245
1.235
1.22
1.205
1.195
1.185
1.145
1.08
1.015
0.945
0.895
0.825
0.765
0.72
0.655
0.61
0.545
0.45
0.375
0.33
0.27
0.235
0.16
0.11
0.05
0.005
-0.025
-0.06
-0.09
-0.145
-0.2
-0.27
-0.31
-0.35
-0.385
-0.405
-0.425
-0.445
-0.455
-0.445
-0.46
-0.48
-0.485
-0.485
-0.49
-0.485
-0.495
-0.52
-0.52
-0.505
-0.47
-0.465
-0.485
-0.515
-0.535
-0.565
-0.585
-0.565
-0.535
-0.535
-0.545
-0.55
-0.525
-0.51
-0.51
-0.505
-0.505
-0.5
-0.495
-0.48
-0.485
-0.47
-0.46
-0.45
-0.435
-0.45
-0.455
-0.465
-0.465
-0.44
-0.44
-0.445
-0.46
-0.495
-0.515
-0.5
-0.47
-0.45
-0.445
-0.44
-0.45
-0.47
-0.475
-0.475
-0.485
-0.485
-0.49
-0.485
-0.47
-0.47
-0.465
-0.475
-0.47
-0.46
-0.45
-0.435
-0.44
-0.445
-0.46
-0.465
-0.45
-0.43
-0.42
-0.425
-0.43
-0.415
-0.405
-0.39
-0.38
-0.39
-0.42
-0.43
-0.425
-0.44
-0.445
-0.44
-0.425
-0.405
-0.4
-0.385
-0.39
-0.385
-0.4
-0.395
-0.385
-0.36
-0.355
-0.365
-0.365
-0.365
-0.36
-0.385
-0.39
-0.395
-0.385
-0.365
-0.365
-0.355
-0.35
-0.345
-0.345
-0.34
-0.32
-0.3
-0.29
-0.285
-0.295
-0.325
-0.335
-0.325
-0.32
-0.33
-0.33
-0.31
-0.285
-0.255
-0.245
-0.235
-0.205
-0.17
-0.115
-0.005
0.16
0.49
1.035
