Lead II
-1.215
-1.22
-1.215
-1.205
-1.19
-1.185
-1.18
-1.175
-1.19
-1.21
-1.245
-1.29
-1.315
-1.32
-1.26
-1.145
-0.965
-0.685
-0.36
0.035
0.42
0.685
0.83
0.86
0.785
0.59
0.265
-0.185
-0.635
-1.005
-1.22
-1.26
-1.185
-1.08
-1.005
-0.99
-1.025
-1.06
-1.105
-1.145
-1.175
-1.185
-1.185
-1.165
-1.165
-1.185
-1.19
-1.215
-1.225
-1.24
-1.23
-1.23
-1.24
-1.225
-1.24
-1.235
-1.23
-1.225
-1.245
-1.27
-1.275
-1.245
-1.225
-1.195
-1.175
-1.155
-1.165
-1.2
-1.225
-1.28
-1.31
-1.315
-1.32
-1.33
-1.29
-1.245
-1.195
-1.165
-1.17
-1.18
-1.19
-1.205
-1.215
-1.225
-1.22
-1.205
-1.21
-1.165
-1.175
-1.155
-1.16
-1.15
-1.145
-1.11
-1.12
-1.12
-1.125
-1.14
-1.135
-1.135
-1.105
-1.08
-1.055
-1.025
-1.01
-0.995
-0.97
-0.965
-0.95
-0.935
-0.925
-0.92
-0.915
-0.885
-0.855
-0.825
-0.785
-0.77
-0.745
-0.745
-0.73
-0.745
-0.715
-0.695
-0.675
-0.655
-0.665
-0.655
-0.65
-0.655
-0.655
-0.67
-0.695
-0.725
-0.75
-0.77
-0.81
-0.825
-0.875
-0.915
-0.95
-0.98
-1.005
-1.045
-1.065
-1.08
-1.085
-1.085
-1.07
-1.06
-1.095
-1.115
-1.145
-1.175
-1.205
-1.21
-1.21
-1.215
-1.19
-1.17
-1.175
-1.165
-1.17
-1.21
-1.235
-1.235
-1.245
-1.235
-1.23
-1.195
-1.2
-1.18
-1.195
-1.185
-1.2
-1.195
-1.21
-1.22
-1.23
-1.22
-1.215
-1.215
-1.205
-1.2
-1.185
-1.165
-1.16
-1.155
-1.16
-1.165
-1.165
-1.19
-1.19
-1.215
-1.195
-1.195
-1.195
-1.17
-1.165
-1.145
-1.13
-1.125
-1.13
-1.135
-1.14
-1.155
-1.15
-1.15
-1.155
-1.16
-1.17
-1.16
-1.14
-1.13
-1.125
-1.14
-1.165
-1.17
-1.195
-1.205
-1.205
-1.18
-1.165
-1.155
-1.145
-1.15
-1.135
-1.12
-1.1
-1.08
-1.065
-1.035
-1.025
-1.02
-1.035
-1.02
-1.03
-1.04
-1.075
-1.1
-1.105
-1.115
-1.13
-1.135
-1.135
-1.16
-1.165
-1.17
-1.175
-1.185
-1.175
-1.205
-1.18
-1.2
-1.195
-1.205
-1.22
-1.21
-1.205
-1.19
-1.18
-1.18
-1.16
-1.17
-1.17
-1.165
-1.16
-1.16
-1.155
-1.165
-1.21
-1.235
-1.275
-1.3
-1.275
-1.165
-0.985
-0.695
-0.34
0.055
0.45
0.74
0.915
1.0
0.965
0.825
0.59
0.205
-0.26
-0.735
-1.075
-1.23
-1.22
-1.115
-1.005
-0.92
-0.925
-0.935
-1.005
-1.06
-1.11
-1.16
-1.17
-1.16
-1.14
-1.125
-1.11
-1.14
-1.14
-1.16
-1.185
-1.185
-1.185
-1.155
-1.135
-1.11
-1.115
-1.125
-1.145
-1.185
-1.21
-1.225
-1.235
-1.225
-1.22
-1.205
-1.19
-1.2
-1.165
-1.145
-1.155
-1.155
-1.165
-1.17
-1.165
-1.16
-1.175
-1.165
-1.175
-1.185
-1.2
-1.215
-1.215
-1.195
-1.175
-1.17
-1.17
-1.17
-1.17
-1.16
-1.155
-1.145
-1.165
-1.16
-1.17
-1.165
-1.17
-1.17
-1.165
-1.15
-1.155
-1.13
-1.125
-1.085
-1.06
-1.065
-1.05
-1.045
-1.025
-1.03
-1.03
-1.005
-1.0
-0.975
-0.95
-0.905
-0.885
-0.855
-0.855
-0.835
-0.81
-0.78
-0.74
-0.735
-0.72
-0.735
-0.72
-0.72
-0.69
-0.68
-0.665
-0.655
-0.645
-0.66
-0.665
-0.685
-0.695
-0.73
-0.74
-0.77
-0.79
-0.825
-0.845
-0.88
-0.93
-0.96
-0.975
-0.995
-1.035
-1.055
-1.06
-1.065
-1.065
-1.075
-1.09
-1.115
-1.115
-1.135
-1.125
-1.14
-1.16
-1.17
-1.18
-1.2
-1.205
-1.21
-1.2
-1.185
-1.17
-1.16
-1.16
-1.165
-1.165
-1.18
-1.16
-1.165
-1.16
-1.17
-1.165
-1.16
-1.185
-1.21
-1.21
-1.23
-1.21
-1.185
-1.175
-1.175
-1.16
-1.145
-1.145
-1.13
-1.145
-1.175
-1.195
-1.19
-1.205
-1.205
-1.195
-1.2
-1.19
-1.155
-1.14
-1.13
-1.115
-1.13
-1.14
-1.15
-1.155
-1.15
-1.14
-1.13
-1.075
-1.055
-1.075
-1.075
-1.095
-1.1
-1.105
-1.095
-1.085
-1.07
-1.06
-1.065
-1.04
-1.04
-1.035
-1.055
-1.06
-1.055
-1.085
-1.1
-1.11
-1.11
-1.085
-1.06
-1.02
-0.98
-0.955
-0.935
-0.945
-0.965
-0.97
-0.98
-0.995
-0.995
-0.97
-0.965
-0.955
-0.955
-0.955
-0.985
-1.01
-1.045
-1.075
-1.095
-1.125
-1.135
-1.12
-1.105
-1.075
-1.04
-1.035
-1.035
-1.02
-1.035
-1.055
-1.06
-1.055
-1.045
-1.025
-0.995
-1.0
-0.99
-1.04
-1.08
-1.1
-1.08
-1.035
-0.86
-0.605
-0.25
0.14
0.545
0.885
1.09
1.185
1.17
1.025
0.755
0.34
-0.155
-0.625
-0.94
-1.04
-0.97
-0.83
-0.705
-0.66
-0.665
-0.72
-0.795
-0.855
-0.9
-0.905
-0.89
-0.88
-0.85
-0.835
-0.82
-0.81
-0.82
-0.815
-0.815
-0.82
-0.83
-0.835
-0.84
-0.86
-0.86
-0.845
-0.82
-0.805
-0.785
-0.78
-0.785
-0.805
-0.81
-0.825
-0.805
-0.79
-0.76
-0.74
-0.73
-0.725
-0.72
-0.73
-0.73
-0.705
-0.68
-0.665
-0.645
-0.625
-0.615
-0.61
-0.595
-0.6
-0.6
-0.61
-0.58
-0.595
-0.59
-0.58
-0.575
-0.58
-0.55
-0.535
-0.505
-0.49
-0.47
-0.455
-0.46
-0.445
-0.445
-0.44
-0.42
-0.405
-0.385
-0.375
-0.36
-0.345
-0.33
-0.29
-0.275
-0.25
-0.225
-0.205
-0.17
-0.125
-0.095
-0.06
-0.045
-0.02
-0.005
-0.005
-0.005
0.005
0.0
0.01
0.01
0.02
0.025
0.015
0.05
0.035
0.015
-0.025
-0.035
-0.045
-0.07
-0.085
-0.1
-0.095
-0.12
-0.13
-0.13
-0.145
-0.18
-0.225
-0.26
-0.29
-0.315
-0.32
-0.335
-0.33
-0.345
-0.37
-0.36
-0.375
-0.395
-0.395
-0.405
-0.395
-0.385
-0.38
-0.38
-0.39
-0.355
-0.345
-0.335
-0.31
-0.295
-0.305
-0.325
-0.33
-0.34
-0.33
-0.35
-0.35
-0.365
-0.355
-0.335
-0.325
-0.315
-0.31
-0.335
-0.335
-0.345
-0.345
-0.35
-0.32
-0.305
-0.285
-0.275
-0.275
-0.29
-0.3
-0.32
-0.315
-0.32
-0.33
-0.31
-0.265
-0.175
-0.065
0.06
0.17
0.285
0.4
0.545
0.73
0.925
1.125
1.32
1.495
1.65
1.79
1.905
2.005
2.1
2.16
2.17
2.17
2.145
2.115
2.095
2.07
2.06
2.075
2.12
2.16
2.175
2.165
2.12
2.055
1.945
1.81
1.65
1.47
1.26
0.99
0.69
0.385
0.145
-0.01
-0.08
-0.095
-0.08
-0.065
-0.06
-0.09
-0.145
-0.18
-0.22
-0.24
-0.255
-0.265
-0.285
-0.285
-0.31
-0.325
-0.345
-0.345
-0.33
-0.325
-0.295
-0.285
-0.275
-0.28
-0.29
-0.305
-0.315
-0.335
-0.355
-0.355
-0.36
-0.355
-0.385
-0.4
-0.415
-0.42
-0.435
-0.415
-0.41
-0.4
-0.4
-0.425
-0.445
-0.48
-0.535
-0.575
-0.585
-0.62
-0.625
-0.615
-0.625
-0.63
-0.645
-0.68
-0.715
-0.735
-0.77
-0.82
-0.855
-0.905
-0.955
-1.0
-1.055
-1.11
-1.16
-1.185
-1.175
-1.17
-1.165
-1.155
-1.12
-1.085
-1.095
-1.1
-1.09
-1.1
-1.125
-1.115
-1.095
-1.055
-1.01
-0.96
-0.905
-0.865
-0.815
-0.77
-0.73
-0.685
-0.62
-0.575
-0.515
-0.47
-0.4
-0.33
-0.275
-0.23
-0.21
-0.18
-0.125
-0.1
-0.08
-0.06
-0.03
-0.03
-0.045
-0.05
-0.065
-0.05
-0.045
-0.05
-0.05
-0.025
-0.035
-0.025
-0.005
-0.01
0.0
-0.005
-0.025
-0.04
-0.05
-0.05
-0.065
-0.07
-0.06
-0.035
-0.01
-0.005
0.0
0.02
0.02
0.03
0.025
0.005
-0.05
-0.095
-0.12
-0.17
-0.145
-0.145
-0.115
-0.1
-0.085
-0.09
-0.09
-0.075
-0.08
-0.08
-0.065
-0.055
-0.035
-0.03
-0.015
-0.03
-0.06
-0.07
-0.115
-0.125
-0.15
-0.16
-0.145
-0.125
-0.125
-0.125
-0.12
-0.12
-0.12
-0.12
-0.12
-0.125
-0.14
-0.16
-0.17
-0.15
-0.14
-0.135
-0.115
-0.105
-0.115
-0.115
-0.145
-0.145
-0.16
-0.175
-0.16
-0.16
-0.165
-0.15
-0.145
-0.14
-0.15
-0.18
-0.19
-0.195
-0.215
-0.215
-0.215
-0.215
-0.205
-0.2
-0.2
-0.205
-0.225
-0.245
-0.245
-0.24
-0.235
-0.235
-0.24
-0.235
-0.22
-0.21
-0.195
-0.205
-0.205
-0.2
-0.21
-0.225
-0.23
-0.24
-0.25
-0.255
-0.25
-0.245
-0.24
-0.22
-0.225
-0.235
-0.24
-0.26
-0.275
-0.275
-0.285
-0.27
-0.26
-0.235
-0.255
-0.255
-0.265
-0.26
-0.27
-0.295
-0.27
-0.27
-0.275
-0.27
-0.27
-0.28
-0.275
-0.27
-0.275
-0.3
-0.3
-0.305
-0.305
-0.31
-0.31
-0.31
-0.305
-0.325
-0.305
-0.305
-0.315
-0.31
-0.305
-0.31
-0.31
-0.29
-0.275
-0.265
-0.26
-0.22
-0.215
-0.2
-0.195
-0.185
-0.2
-0.215
-0.235
-0.255
-0.27
-0.285
-0.305
-0.31
-0.33
-0.32
-0.355
-0.355
-0.38
-0.38
-0.395
-0.38
-0.35
-0.345
-0.34
-0.345
-0.34
-0.36
-0.365
-0.365
-0.39
-0.4
-0.425
-0.425
-0.445
-0.46
-0.485
-0.5
-0.505
-0.48
-0.42
-0.31
-0.13
0.13
0.44
0.8
1.125
1.385
1.54
1.56
1.46
1.235
0.825
0.33
-0.15
-0.485
-0.635
-0.61
-0.52
-0.395
-0.325
-0.3
-0.315
-0.35
-0.39
-0.43
-0.44
-0.445
-0.45
-0.465
-0.465
-0.465
-0.48
-0.47
-0.47
-0.475
-0.485
-0.51
-0.55
-0.58
-0.6
-0.575
-0.545
-0.515
-0.495
-0.48
-0.48
-0.475
-0.475
-0.5
-0.525
-0.53
-0.54
-0.535
-0.52
-0.515
-0.525
-0.525
-0.555
-0.54
-0.585
-0.595
-0.605
-0.6
-0.615
-0.615
-0.605
-0.595
-0.585
-0.56
-0.52
-0.48
-0.455
-0.47
-0.485
-0.52
-0.55
-0.59
-0.6
-0.59
-0.57
-0.555
-0.51
-0.48
-0.485
-0.495
-0.48
-0.47
-0.455
-0.43
-0.43
-0.4
-0.365
-0.32
-0.31
-0.305
-0.33
-0.35
-0.355
-0.37
-0.34
-0.315
-0.27
-0.24
-0.215
-0.21
-0.235
-0.245
-0.245
-0.255
-0.235
-0.205
-0.185
-0.155
-0.125
-0.105
-0.08
-0.055
-0.04
-0.04
-0.045
-0.045
-0.06
-0.085
-0.115
-0.16
-0.17
-0.18
-0.18
-0.175
-0.17
-0.185
-0.215
-0.25
-0.29
-0.29
-0.335
-0.37
-0.395
-0.39
-0.405
-0.41
-0.44
-0.475
-0.525
-0.575
-0.59
-0.605
-0.595
-0.59
-0.555
-0.555
-0.56
-0.555
-0.565
-0.585
-0.58
-0.605
-0.62
-0.63
-0.62
-0.6
-0.59
-0.565
-0.55
-0.565
-0.55
-0.585
-0.585
-0.6
-0.61
-0.615
-0.61
-0.61
-0.59
-0.59
-0.585
-0.57
-0.57
-0.575
-0.605
-0.635
-0.67
-0.69
-0.69
-0.695
-0.695
-0.655
-0.655
-0.645
-0.64
-0.65
-0.68
-0.685
-0.72
-0.735
-0.76
-0.77
-0.765
-0.735
-0.73
-0.72
-0.72
-0.715
-0.725
-0.72
-0.735
-0.74
-0.735
-0.74
-0.735
-0.755
-0.755
-0.775
-0.785
-0.81
-0.83
-0.825
-0.81
-0.805
-0.81
-0.79
-0.8
-0.82
-0.83
-0.845
-0.855
-0.865
-0.85
-0.835
-0.845
-0.855
-0.87
-0.875
-0.88
-0.84
-0.82
-0.795
-0.77
-0.77
-0.765
-0.765
-0.77
-0.785
-0.78
-0.755
-0.75
-0.76
-0.765
-0.76
-0.775
-0.785
-0.805
-0.83
-0.88
-0.905
-0.925
-0.935
-0.935
-0.955
-0.93
-0.935
-0.92
-0.905
-0.905
-0.93
-0.925
-0.935
-0.945
-0.965
-0.975
-0.97
-0.965
-0.96
-0.985
-0.995
-1.03
-1.045
-0.98
-0.885
-0.725
-0.48
-0.15
0.23
0.63
0.94
1.13
1.2
1.145
0.985
0.65
0.175
-0.355
-0.805
-1.06
-1.115
-0.995
-0.87
-0.755
-0.71
-0.745
-0.815
-0.91
-0.995
-1.015
-1.04
-1.01
-1.005
-0.99
-1.005
-1.025
-1.02
-1.05
-1.05
-1.065
-1.05
-1.035
-1.045
-1.07
-1.06
-1.075
-1.055
-1.05
-1.035
-1.03
-1.035
-1.03
-1.04
-1.04
-1.045
-1.055
-1.06
-1.055
-1.05
-1.055
-1.06
-1.06
-1.05
-1.055
-1.06
-1.085
-1.09
-1.08
-1.065
-1.055
-1.04
-1.045
-1.015
-1.03
-1.04
-1.03
-1.015
-1.03
-1.045
-1.01
-0.985
-0.945
-0.96
-0.94
-0.935
-0.925
-0.91
-0.925
-0.9
-0.89
-0.885
-0.86
-0.85
-0.82
-0.8
-0.77
-0.745
-0.73
-0.72
-0.72
-0.73
-0.725
-0.715
-0.695
-0.675
-0.64
-0.595
-0.56
-0.54
-0.525
-0.52
-0.505
-0.485
-0.485
-0.465
-0.465
-0.46
-0.465
-0.47
-0.475
-0.485
-0.5
-0.535
-0.57
-0.585
-0.62
-0.65
-0.665
-0.69
-0.71
-0.75
-0.77
-0.81
-0.85
-0.865
-0.9
-0.925
-0.95
-0.975
-0.995
-0.98
-0.97
-0.945
-0.945
-0.93
-0.94
-0.955
-0.96
-0.975
-1.01
-1.025
-1.05
-1.05
-1.03
-1.01
-1.01
-0.98
-0.98
-0.99
-0.99
-1.005
-1.015
-1.0
-0.995
-0.98
-0.97
-0.955
-0.94
-0.935
-0.935
-0.93
-0.93
-0.935
-0.95
-0.97
-0.985
-0.985
-0.96
-0.945
-0.925
-0.905
-0.895
-0.875
-0.84
-0.785
-0.665
-0.545
-0.41
-0.25
-0.08
0.12
0.3
0.515
0.695
0.895
1.07
1.225
1.355
1.46
1.535
1.585
1.62
1.62
1.645
1.645
1.61
1.555
1.515
1.48
1.475
1.485
1.49
1.475
1.46
1.415
1.33
1.185
1.01
0.785
0.505
0.16
-0.24
-0.625
-0.96
-1.185
-1.28
-1.255
-1.21
-1.145
-1.115
-1.12
-1.145
-1.19
-1.245
-1.27
-1.305
-1.32
-1.34
-1.355
-1.37
-1.38
-1.43
-1.45
-1.485
-1.54
-1.575
-1.59
-1.62
-1.64
-1.66
-1.705
-1.72
-1.73
-1.735
-1.75
-1.76
-1.78
-1.8
-1.81
-1.83
-1.865
-1.865
-1.88
-1.895
-1.905
-1.96
-1.975
-1.99
-2.03
-2.045
-2.085
-2.1
-2.125
-2.135
-2.165
-2.175
-2.2
-2.23
-2.26
-2.3
-2.345
-2.405
-2.42
-2.45
-2.495
-2.525
-2.55
-2.56
-2.59
-2.615
-2.63
-2.67
-2.69
-2.71
-2.705
-2.705
-2.69
-2.67
-2.655
-2.655
-2.63
-2.64
-2.62
-2.63
-2.61
-2.57
-2.53
-2.47
-2.43
-2.38
-2.335
-2.305
-2.255
-2.2
-2.14
-2.075
-2.0
-1.945
-1.87
-1.82
-1.765
-1.695
-1.655
-1.575
-1.505
-1.465
-1.425
-1.4
-1.37
-1.35
-1.36
-1.355
-1.355
-1.36
-1.365
-1.35
-1.345
-1.345
-1.33
-1.325
-1.325
-1.315
-1.33
-1.335
-1.33
-1.325
-1.305
-1.29
-1.285
-1.3
-1.3
-1.32
-1.335
-1.355
-1.335
-1.325
-1.335
-1.315
-1.305
-1.295
-1.28
-1.275
-1.29
-1.285
-1.29
-1.285
-1.305
-1.335
-1.35
-1.34
-1.335
-1.31
-1.305
-1.305
-1.33
-1.33
-1.315
-1.32
-1.31
-1.325
-1.315
-1.325
-1.31
-1.305
-1.295
-1.3
-1.31
-1.3
-1.325
-1.32
-1.31
-1.325
-1.305
-1.285
-1.27
-1.265
-1.285
-1.295
-1.305
-1.32
-1.32
-1.315
-1.315
-1.325
-1.335
-1.335
-1.325
-1.3
-1.295
-1.28
-1.285
-1.295
-1.3
-1.31
-1.31
-1.315
-1.31
-1.295
-1.28
-1.275
-1.27
-1.26
-1.275
-1.295
-1.285
-1.295
-1.3
-1.295
-1.3
-1.285
-1.285
-1.285
-1.275
-1.265
-1.26
-1.245
-1.24
-1.255
-1.265
-1.275
-1.26
-1.255
-1.245
-1.235
-1.225
-1.23
-1.24
-1.27
-1.27
-1.29
-1.275
-1.3
-1.295
-1.265
-1.25
-1.235
-1.23
-1.215
-1.22
-1.215
-1.255
-1.25
-1.24
-1.255
-1.245
-1.23
-1.205
-1.2
-1.19
-1.195
-1.225
-1.235
-1.245
-1.26
-1.24
-1.23
-1.225
-1.225
-1.22
-1.23
-1.225
-1.24
-1.22
-1.22
-1.195
-1.19
-1.195
-1.2
-1.195
-1.185
-1.17
-1.165
-1.18
-1.19
-1.185
-1.195
-1.205
-1.235
-1.25
-1.245
-1.235
-1.215
-1.21
-1.21
-1.195
-1.17
-1.18
-1.19
-1.195
-1.195
-1.185
-1.2
-1.175
-1.18
-1.165
-1.13
-1.115
-1.105
-1.1
-1.09
-1.095
-1.08
-1.065
-1.055
-1.045
-1.03
-1.015
-1.005
-1.0
-1.02
-1.035
-1.055
-1.07
-1.1
-1.105
-1.115
-1.14
-1.135
-1.145
-1.165
-1.15
-1.16
-1.17
-1.185
-1.2
-1.21
-1.215
-1.21
-1.2
-1.19
-1.185
-1.185
-1.185
-1.18
-1.185
-1.21
-1.24
-1.26
-1.275
-1.305
-1.325
-1.29
-1.255
-1.135
-0.95
-0.705
-0.36
0.015
0.375
0.685
0.855
0.91
0.855
0.69
0.375
-0.08
-0.595
-1.065
-1.345
-1.44
-1.375
-1.245
-1.145
-1.09
-1.095
-1.135
-1.21
-1.255
-1.305
-1.32
-1.335
-1.33
-1.345
-1.35
-1.365
-1.36
-1.365
-1.365
-1.36
-1.355
-1.355
-1.36
-1.365
-1.37
-1.375
-1.385
-1.395
-1.415
-1.425
-1.42
-1.445
-1.43
-1.425
-1.445
-1.44
-1.435
-1.44
-1.44
-1.44
-1.445
-1.435
-1.425
-1.43
-1.435
-1.445
-1.445
-1.43
-1.425
-1.425
-1.41
-1.425
-1.435
-1.46
-1.48
-1.47
-1.46
-1.435
-1.425
-1.42
-1.42
-1.435
-1.45
-1.45
-1.435
-1.43
-1.425
-1.4
-1.395
-1.375
-1.37
-1.37
-1.365
-1.35
-1.355
-1.355
-1.34
-1.335
-1.315
-1.31
-1.27
-1.255
-1.24
-1.23
-1.21
-1.22
-1.205
-1.185
-1.19
-1.175
-1.15
-1.13
-1.11
-1.095
-1.075
-1.08
-1.08
-1.06
-1.055
-1.05
-1.03
-1.02
-0.995
-0.965
-0.95
-0.935
-0.94
-0.955
-0.97
-0.985
-0.995
-1.03
-1.035
-1.06
-1.07
-1.105
-1.115
-1.13
-1.16
-1.195
-1.205
-1.25
-1.275
-1.31
-1.335
-1.355
-1.375
-1.37
-1.375
-1.385
-1.39
-1.395
-1.415
-1.435
-1.435
-1.46
-1.45
-1.46
-1.465
-1.46
-1.445
-1.44
-1.44
-1.435
-1.43
-1.44
-1.435
-1.45
-1.455
-1.45
-1.445
-1.445
-1.43
-1.43
-1.41
-1.415
-1.415
-1.415
-1.41
-1.415
-1.415
-1.415
-1.41
-1.405
-1.395
-1.395
-1.4
-1.405
-1.42
-1.425
-1.425
-1.45
-1.44
-1.39
-1.32
-1.195
-1.065
-0.92
-0.77
-0.62
-0.44
-0.275
-0.105
0.085
0.295
0.495
0.685
0.835
0.96
1.095
1.15
1.21
1.25
1.24
1.215
1.2
1.16
1.105
1.055
1.025
0.99
1.005
1.03
1.05
1.04
0.98
0.895
0.76
0.605
0.43
0.25
0.05
-0.22
-0.545
-0.92
-1.245
-1.45
-1.555
-1.57
-1.555
-1.53
-1.505
-1.51
-1.51
-1.545
-1.615
-1.66
-1.715
-1.765
-1.79
-1.82
-1.845
-1.85
-1.875
-1.905
-1.915
-1.95
-1.97
-1.995
-2.025
-2.045
-2.08
-2.09
-2.1
-2.105
-2.115
-2.125
-2.125
-2.135
-2.15
-2.165
-2.165
-2.195
-2.23
-2.235
-2.265
-2.27
-2.295
-2.3
-2.31
-2.32
-2.355
-2.355
-2.365
-2.38
-2.42
-2.435
-2.465
-2.48
-2.495
-2.52
-2.53
-2.555
-2.565
-2.595
-2.615
-2.66
-2.69
-2.74
-2.76
-2.785
-2.805
-2.84
-2.835
-2.825
-2.825
-2.845
-2.855
-2.87
-2.895
-2.91
-2.9
-2.895
-2.885
-2.875
-2.86
-2.85
-2.805
-2.79
-2.765
-2.735
-2.715
-2.69
-2.67
-2.625
-2.595
-2.535
-2.475
-2.39
-2.33
-2.27
-2.23
-2.2
-2.155
-2.12
-2.09
-2.06
-2.0
-1.96
-1.915
-1.88
-1.85
-1.835
-1.825
-1.83
-1.825
-1.84
-1.825
-1.815
-1.81
-1.795
-1.795
-1.775
-1.78
-1.76
-1.755
-1.77
-1.775
-1.785
-1.785
-1.795
-1.785
-1.775
-1.77
-1.755
-1.745
-1.74
-1.74
-1.74
-1.76
-1.77
-1.775
-1.78
-1.79
-1.77
-1.75
-1.735
-1.73
-1.725
-1.74
-1.73
-1.735
-1.74
-1.74
-1.745
-1.73
-1.735
-1.725
-1.725
-1.72
-1.725
-1.73
-1.73
-1.745
-1.735
-1.74
-1.73
-1.73
-1.73
-1.72
-1.71
-1.7
-1.705
-1.705
-1.72
-1.75
-1.75
-1.755
-1.76
-1.76
-1.74
-1.725
-1.725
-1.73
-1.735
-1.74
-1.745
-1.745
-1.74
-1.745
-1.755
-1.76
-1.75
-1.735
-1.735
-1.715
-1.72
-1.72
-1.725
-1.73
-1.725
-1.73
-1.74
-1.725
-1.72
-1.705
-1.695
-1.695
-1.695
-1.7
-1.72
-1.725
-1.715
-1.735
-1.74
-1.71
-1.73
-1.71
-1.725
-1.69
-1.71
-1.705
-1.695
-1.695
-1.705
-1.715
-1.71
-1.715
-1.71
-1.715
-1.695
-1.685
-1.68
-1.695
-1.675
-1.675
-1.695
-1.68
-1.69
-1.68
-1.665
-1.675
-1.66
-1.645
-1.655
-1.67
-1.68
-1.685
-1.68
-1.67
-1.685
-1.695
-1.675
-1.655
-1.64
-1.635
-1.645
-1.65
-1.655
-1.645
-1.65
-1.66
-1.665
-1.66
-1.645
-1.65
-1.63
-1.625
-1.625
-1.63
-1.62
-1.635
-1.64
-1.655
-1.65
-1.645
-1.63
-1.625
-1.61
-1.6
-1.59
-1.6
-1.59
-1.62
-1.625
-1.63
-1.625
-1.625
-1.615
-1.595
-1.59
-1.59
-1.605
-1.595
-1.6
-1.615
-1.61
-1.61
-1.605
-1.595
-1.59
-1.56
-1.55
-1.525
-1.495
-1.485
-1.46
-1.465
-1.445
-1.425
-1.445
-1.455
-1.455
-1.465
-1.45
-1.455
-1.46
-1.475
-1.49
-1.525
-1.54
-1.57
-1.565
-1.585
-1.57
-1.565
-1.56
-1.56
-1.545
-1.545
-1.555
-1.54
-1.555
-1.55
-1.565
-1.575
-1.575
-1.56
-1.54
-1.545
-1.55
-1.595
-1.59
-1.58
-1.535
-1.425
-1.255
-1.005
-0.66
-0.26
0.135
0.47
0.68
0.775
0.755
0.59
0.28
-0.185
-0.73
-1.26
-1.585
-1.7
-1.635
-1.495
-1.335
-1.28
-1.265
-1.315
-1.4
-1.465
-1.505
-1.53
-1.545
-1.525
-1.52
-1.5
-1.495
-1.52
-1.525
-1.535
-1.54
-1.55
-1.565
-1.555
-1.535
-1.535
-1.53
-1.525
-1.515
-1.515
-1.52
-1.525
-1.545
-1.545
-1.555
-1.545
-1.54
-1.53
-1.515
-1.515
-1.52
-1.52
-1.525
-1.525
-1.54
-1.545
-1.54
-1.545
-1.54
-1.54
-1.525
-1.495
-1.5
-1.49
-1.5
-1.51
-1.515
-1.53
-1.505
-1.505
-1.49
-1.485
-1.465
-1.45
-1.465
-1.455
-1.445
-1.47
-1.45
-1.44
-1.44
-1.45
-1.425
-1.405
-1.375
-1.36
-1.36
-1.365
-1.34
-1.335
-1.34
-1.32
-1.32
-1.28
-1.255
-1.22
-1.205
-1.18
-1.155
-1.15
-1.145
-1.125
-1.12
-1.095
-1.09
-1.065
-1.045
-1.025
-0.99
-0.975
-0.96
-0.945
-0.94
-0.935
-0.945
-0.95
-0.935
-0.96
-0.97
-0.95
-0.965
-0.96
-0.98
-1.0
-1.035
-1.065
-1.095
-1.135
-1.15
-1.18
-1.2
-1.22
-1.22
-1.235
-1.26
-1.26
-1.3
-1.325
-1.35
-1.355
-1.35
-1.36
-1.365
-1.36
-1.35
-1.365
-1.345
-1.355
-1.36
-1.37
-1.385
-1.4
-1.395
-1.385
-1.375
-1.36
-1.36
-1.34
-1.335
-1.345
-1.345
-1.345
-1.355
-1.36
-1.35
-1.36
-1.35
-1.34
-1.33
-1.325
-1.315
-1.33
-1.34
-1.335
-1.345
-1.35
-1.335
-1.355
-1.355
-1.34
-1.33
-1.33
-1.32
-1.33
-1.335
-1.34
-1.355
-1.35
-1.37
-1.37
-1.355
-1.35
-1.355
-1.34
-1.34
-1.35
-1.355
-1.36
-1.375
-1.385
-1.385
-1.39
-1.375
-1.385
-1.375
-1.375
-1.36
-1.37
-1.365
-1.385
-1.37
-1.395
-1.405
-1.39
-1.395
-1.375
-1.37
-1.37
-1.37
-1.365
-1.365
-1.37
-1.355
-1.355
-1.35
-1.33
-1.295
-1.265
-1.225
-1.225
-1.215
-1.21
-1.23
-1.25
-1.265
-1.285
-1.295
-1.295
-1.3
-1.305
-1.315
-1.31
-1.33
-1.365
-1.38
-1.39
-1.405
-1.41
-1.405
-1.41
-1.405
-1.405
-1.38
-1.365
-1.365
-1.37
-1.37
-1.36
-1.365
-1.375
-1.375
-1.39
-1.385
-1.4
-1.425
-1.42
-1.39
-1.33
-1.205
-1.06
-0.8
-0.48
-0.11
0.265
0.57
0.79
0.89
0.88
0.74
0.45
0.015
-0.565
-1.09
-1.42
-1.54
-1.49
-1.35
-1.215
-1.145
-1.12
-1.165
-1.23
-1.295
-1.35
-1.39
-1.39
-1.385
-1.395
-1.385
-1.37
-1.36
-1.355
-1.37
-1.365
-1.365
-1.375
-1.38
-1.38
-1.395
-1.39
-1.385
-1.365
-1.385
-1.38
-1.355
-1.355
-1.375
-1.37
-1.38
-1.39
-1.38
-1.385
-1.38
-1.365
-1.36
-1.345
-1.355
-1.34
-1.355
-1.365
-1.365
-1.365
-1.365
-1.365
-1.36
-1.345
-1.33
-1.31
-1.32
-1.32
-1.325
-1.325
-1.32
-1.325
-1.335
-1.31
-1.3
-1.29
-1.27
-1.25
-1.24
-1.24
-1.225
-1.23
-1.22
-1.205
-1.19
-1.185
-1.15
-1.13
-1.1
-1.065
-1.06
-1.025
-1.02
-1.01
-1.0
-0.985
-0.97
-0.955
-0.915
-0.9
-0.875
-0.87
-0.825
-0.83
-0.815
-0.795
-0.8
-0.805
-0.8
-0.805
-0.81
-0.83
-0.84
-0.855
-0.89
-0.915
-0.945
-0.99
-1.035
-1.065
-1.11
-1.135
-1.15
-1.17
-1.185
-1.215
-1.23
-1.25
-1.28
-1.295
-1.315
-1.33
-1.345
-1.355
-1.355
-1.365
-1.35
-1.35
-1.37
-1.36
-1.365
-1.37
-1.39
-1.395
-1.41
-1.41
-1.405
-1.405
-1.4
-1.39
-1.38
-1.365
-1.39
-1.375
-1.375
-1.39
-1.4
-1.395
-1.38
-1.37
-1.375
-1.37
-1.355
-1.345
-1.35
-1.355
-1.37
-1.36
-1.375
-1.385
-1.375
-1.36
-1.355
-1.34
-1.35
-1.355
-1.37
-1.375
-1.35
-1.365
-1.37
-1.385
-1.37
-1.355
-1.34
-1.34
-1.345
-1.335
-1.355
-1.37
-1.365
-1.38
-1.38
-1.385
-1.38
-1.385
-1.37
-1.365
-1.375
-1.38
-1.38
-1.375
-1.395
-1.38
-1.395
-1.395
-1.4
-1.39
-1.39
-1.385
-1.365
-1.37
-1.37
-1.405
-1.4
-1.39
-1.385
-1.375
-1.355
-1.33
-1.305
-1.285
-1.265
-1.255
-1.255
-1.255
-1.265
-1.28
-1.275
-1.305
-1.295
-1.3
-1.3
-1.3
-1.305
-1.33
-1.345
-1.355
-1.36
-1.4
-1.415
-1.425
-1.44
-1.41
-1.4
-1.405
-1.39
-1.4
-1.395
-1.42
-1.43
-1.445
-1.44
-1.435
-1.425
-1.405
-1.4
-1.4
-1.395
-1.405
-1.42
-1.435
-1.465
-1.475
-1.47
-1.39
-1.25
-1.08
-0.83
-0.525
-0.175
0.185
0.495
0.705
0.81
0.82
0.725
0.525
0.185
-0.29
-0.835
-1.265
-1.545
-1.61
-1.52
-1.365
-1.24
-1.175
-1.175
-1.215
-1.29
-1.345
-1.385
-1.385
-1.39
-1.39
-1.385
-1.385
-1.405
-1.41
-1.43
-1.43
-1.445
-1.42
-1.425
-1.425
-1.43
-1.415
-1.415
-1.42
-1.415
-1.425
-1.43
-1.435
-1.445
-1.415
-1.42
-1.4
-1.415
-1.395
-1.405
-1.41
-1.405
-1.44
-1.425
-1.435
-1.425
-1.415
-1.415
-1.41
-1.385
-1.4
-1.4
-1.4
-1.41
-1.42
-1.425
-1.425
-1.415
-1.405
-1.385
-1.37
-1.37
-1.36
-1.365
-1.375
-1.36
-1.37
-1.375
-1.375
-1.355
-1.34
-1.325
-1.315
-1.295
-1.285
-1.275
-1.28
-1.265
-1.26
-1.245
-1.235
-1.22
-1.2
-1.165
-1.14
-1.12
-1.09
-1.095
-1.085
-1.075
-1.055
-1.045
-1.05
-1.02
-0.98
-0.975
-0.92
-0.905
-0.905
-0.89
-0.9
-0.875
-0.885
-0.875
-0.885
-0.875
-0.885
-0.88
-0.895
-0.915
-0.955
-1.0
-1.04
-1.09
-1.105
-1.13
-1.17
-1.21
-1.215
-1.25
-1.26
-1.275
-1.3
-1.32
-1.35
-1.38
-1.385
-1.405
-1.42
-1.41
-1.41
-1.415
-1.415
-1.425
-1.435
-1.44
-1.455
-1.45
-1.465
-1.465
-1.48
-1.475
-1.455
-1.46
-1.44
-1.44
-1.44
-1.44
-1.44
-1.45
-1.465
-1.455
-1.46
-1.44
-1.43
-1.42
-1.405
-1.395
-1.395
-1.4
-1.405
-1.395
-1.415
-1.41
-1.4
-1.4
-1.375
-1.385
-1.395
-1.395
-1.385
-1.37
-1.38
-1.37
-1.375
-1.355
-1.275
-1.185
-1.055
-0.915
-0.775
-0.625
-0.475
-0.305
-0.135
0.07
0.28
0.47
0.65
0.825
0.985
1.115
1.215
1.27
1.29
1.28
1.26
1.255
1.205
1.155
1.095
1.065
1.065
1.1
1.125
1.155
1.125
1.055
0.945
0.815
0.645
0.415
0.135
-0.205
-0.6
-0.97
-1.26
-1.415
-1.475
-1.455
-1.425
-1.41
-1.44
-1.47
-1.56
-1.61
-1.67
-1.695
-1.715
-1.735
-1.755
-1.775
-1.815
-1.86
-1.885
-1.93
-1.93
-1.94
-1.94
-1.935
-1.94
-1.94
-1.965
-1.97
-1.99
-2.03
-2.04
-2.055
-2.075
-2.075
-2.08
-2.11
-2.105
-2.095
-2.14
-2.14
-2.175
-2.195
-2.22
-2.25
-2.27
-2.275
-2.295
-2.29
-2.295
-2.315
-2.345
-2.36
-2.395
-2.415
-2.445
-2.49
-2.505
-2.525
-2.55
-2.545
-2.535
-2.545
-2.565
-2.59
-2.605
-2.63
-2.635
-2.655
-2.665
-2.68
-2.685
-2.675
-2.665
-2.665
-2.64
-2.63
-2.645
-2.62
-2.6
-2.58
-2.57
-2.535
-2.495
-2.455
-2.415
-2.37
-2.335
-2.295
-2.23
-2.165
-2.1
-2.055
-2.015
-1.955
-1.91
-1.87
-1.815
-1.765
-1.73
-1.7
-1.69
-1.685
-1.67
-1.67
-1.645
-1.645
-1.62
-1.605
-1.595
-1.59
-1.595
-1.595
-1.6
-1.605
-1.61
-1.61
-1.625
-1.62
-1.605
-1.595
-1.575
-1.57
-1.565
-1.58
-1.575
-1.58
-1.6
-1.595
-1.595
-1.59
-1.57
-1.555
-1.545
-1.54
-1.55
-1.55
-1.54
-1.545
-1.535
-1.525
-1.525
-1.525
-1.51
-1.495
-1.49
-1.495
-1.495
-1.495
-1.5
-1.515
-1.51
-1.515
-1.515
-1.51
-1.495
-1.48
-1.475
-1.47
-1.465
-1.46
-1.49
-1.49
-1.485
-1.495
-1.495
-1.49
-1.475
-1.46
-1.46
-1.43
-1.45
-1.455
-1.465
-1.47
-1.455
-1.455
-1.455
-1.445
-1.45
-1.435
-1.425
-1.42
-1.415
-1.415
-1.445
-1.425
-1.445
-1.43
-1.445
-1.46
-1.43
-1.425
-1.415
-1.41
-1.42
-1.44
-1.43
-1.45
-1.425
-1.425
-1.425
-1.425
-1.415
-1.395
-1.395
-1.395
-1.395
-1.395
-1.395
-1.395
-1.41
-1.405
-1.405
-1.41
-1.39
-1.395
-1.38
-1.365
-1.36
-1.375
-1.375
-1.395
-1.4
-1.4
-1.395
-1.385
-1.38
-1.36
-1.36
-1.345
-1.35
-1.355
-1.365
-1.37
-1.37
-1.38
-1.38
-1.385
-1.38
-1.375
-1.365
-1.35
-1.375
-1.365
-1.365
-1.365
-1.365
-1.375
-1.365
-1.37
-1.36
-1.355
-1.345
-1.32
-1.32
-1.33
-1.355
-1.345
-1.345
-1.35
-1.365
-1.375
-1.36
-1.35
-1.32
-1.31
-1.315
-1.34
-1.34
-1.35
-1.365
-1.35
-1.35
-1.345
-1.345
-1.32
-1.325
-1.315
-1.31
-1.325
-1.325
-1.32
-1.34
-1.34
-1.335
-1.335
-1.315
-1.305
-1.295
-1.29
-1.3
-1.31
-1.305
-1.315
-1.33
-1.31
-1.315
-1.315
-1.295
-1.29
-1.285
-1.275
-1.275
-1.28
-1.255
-1.28
-1.285
-1.275
-1.255
-1.245
-1.21
-1.18
-1.15
-1.13
-1.12
-1.105
-1.11
-1.135
-1.14
-1.15
-1.165
-1.175
-1.185
-1.17
-1.175
-1.185
-1.185
-1.205
-1.215
-1.225
-1.265
-1.265
-1.28
-1.265
-1.26
-1.24
-1.235
-1.215
-1.215
-1.22
-1.235
-1.23
