Lead II
-0.665
-0.67
-0.66
-0.66
-0.66
-0.65
-0.645
-0.655
-0.64
-0.64
-0.655
-0.65
-0.655
-0.665
-0.695
-0.69
-0.675
-0.66
-0.64
-0.65
-0.625
-0.635
-0.635
-0.635
-0.655
-0.655
-0.655
-0.64
-0.615
-0.61
-0.575
-0.545
-0.525
-0.51
-0.5
-0.51
-0.51
-0.525
-0.485
-0.47
-0.43
-0.42
-0.385
-0.37
-0.375
-0.395
-0.43
-0.44
-0.485
-0.505
-0.51
-0.505
-0.49
-0.445
-0.4
-0.37
-0.375
-0.39
-0.415
-0.475
-0.53
-0.555
-0.585
-0.62
-0.625
-0.63
-0.635
-0.655
-0.665
-0.68
-0.7
-0.725
-0.72
-0.735
-0.74
-0.735
-0.715
-0.705
-0.705
-0.7
-0.71
-0.705
-0.71
-0.725
-0.72
-0.73
-0.75
-0.76
-0.76
-0.745
-0.755
-0.755
-0.745
-0.745
-0.74
-0.72
-0.715
-0.7
-0.73
-0.755
-0.765
-0.785
-0.77
-0.73
-0.665
-0.57
-0.41
-0.24
-0.065
0.095
0.2
0.23
0.195
0.17
0.19
0.29
0.465
0.675
0.83
0.84
0.63
0.2
-0.39
-0.995
-1.495
-1.835
-2.005
-2.085
-2.11
-2.145
-2.185
-2.22
-2.27
-2.28
-2.28
-2.285
-2.27
-2.235
-2.21
-2.175
-2.11
-2.025
-1.915
-1.79
-1.63
-1.44
-1.29
-1.165
-1.06
-0.98
-0.92
-0.895
-0.87
-0.87
-0.85
-0.84
-0.835
-0.825
-0.795
-0.8
-0.82
-0.815
-0.81
-0.78
-0.775
-0.79
-0.79
-0.795
-0.81
-0.835
-0.83
-0.845
-0.86
-0.855
-0.86
-0.88
-0.87
-0.895
-0.91
-0.925
-0.94
-0.97
-0.99
-1.015
-1.02
-1.03
-1.025
-1.02
-1.0
-1.03
-1.05
-1.07
-1.08
-1.09
-1.105
-1.115
-1.11
-1.1
-1.085
-1.08
-1.08
-1.075
-1.08
-1.075
-1.08
-1.105
-1.1
-1.095
-1.07
-1.045
-1.02
-0.985
-0.97
-0.95
-0.93
-0.91
-0.9
-0.885
-0.865
-0.855
-0.855
-0.82
-0.785
-0.765
-0.74
-0.73
-0.72
-0.715
-0.725
-0.725
-0.71
-0.725
-0.71
-0.705
-0.69
-0.69
-0.685
-0.69
-0.67
-0.665
-0.68
-0.68
-0.695
-0.705
-0.715
-0.715
-0.71
-0.68
-0.67
-0.68
-0.685
-0.69
-0.7
-0.72
-0.735
-0.745
-0.735
-0.715
-0.71
-0.715
-0.7
-0.71
-0.73
-0.73
-0.74
-0.76
-0.755
-0.765
-0.76
-0.755
-0.76
-0.74
-0.735
-0.745
-0.735
-0.73
-0.75
-0.755
-0.755
-0.76
-0.745
-0.755
-0.735
-0.72
-0.735
-0.75
-0.755
-0.76
-0.75
-0.765
-0.76
-0.755
-0.76
-0.74
-0.735
-0.74
-0.74
-0.74
-0.75
-0.745
-0.745
-0.75
-0.765
-0.76
-0.775
-0.755
-0.74
-0.74
-0.725
-0.715
-0.735
-0.705
-0.735
-0.735
-0.74
-0.74
-0.74
-0.74
-0.745
-0.745
-0.73
-0.74
-0.745
-0.755
-0.745
-0.74
-0.735
-0.735
-0.72
-0.7
-0.695
-0.705
-0.695
-0.68
-0.66
-0.65
-0.64
-0.63
-0.625
-0.625
-0.63
-0.61
-0.61
-0.56
-0.52
-0.475
-0.465
-0.465
-0.495
-0.505
-0.545
-0.58
-0.59
-0.61
-0.61
-0.575
-0.54
-0.5
-0.48
-0.475
-0.485
-0.525
-0.565
-0.595
-0.65
-0.665
-0.69
-0.715
-0.73
-0.745
-0.765
-0.77
-0.8
-0.805
-0.82
-0.85
-0.865
-0.855
-0.845
-0.825
-0.82
-0.81
-0.795
-0.82
-0.805
-0.835
-0.845
-0.865
-0.85
-0.85
-0.825
-0.82
-0.805
-0.81
-0.815
-0.81
-0.825
-0.825
-0.84
-0.85
-0.855
-0.87
-0.865
-0.87
-0.835
-0.83
-0.795
-0.775
-0.7
-0.59
-0.42
-0.21
0.005
0.175
0.275
0.29
0.25
0.22
0.24
0.315
0.455
0.625
0.735
0.755
0.55
0.175
-0.345
-0.905
-1.41
-1.775
-1.985
-2.08
-2.14
-2.175
-2.22
-2.255
-2.29
-2.33
-2.32
-2.315
-2.315
-2.295
-2.27
-2.255
-2.215
-2.17
-2.11
-2.03
-1.89
-1.705
-1.51
-1.33
-1.17
-1.05
-1.0
-0.96
-0.98
-0.995
-0.995
-1.0
-0.985
-0.96
-0.94
-0.9
-0.885
-0.895
-0.885
-0.9
-0.925
-0.94
-0.945
-0.95
-0.945
-0.94
-0.94
-0.935
-0.945
-0.945
-0.955
-0.96
-0.98
-0.995
-1.01
-1.03
-1.05
-1.055
-1.065
-1.075
-1.085
-1.085
-1.08
-1.115
-1.145
-1.135
-1.145
-1.14
-1.145
-1.15
-1.165
-1.17
-1.195
-1.195
-1.2
-1.205
-1.205
-1.21
-1.245
-1.225
-1.225
-1.215
-1.2
-1.175
-1.16
-1.145
-1.13
-1.125
-1.11
-1.115
-1.11
-1.1
-1.075
-1.06
-1.015
-0.97
-0.94
-0.915
-0.89
-0.875
-0.865
-0.845
-0.85
-0.87
-0.85
-0.83
-0.805
-0.78
-0.765
-0.76
-0.75
-0.755
-0.76
-0.755
-0.755
-0.765
-0.74
-0.745
-0.755
-0.755
-0.75
-0.75
-0.735
-0.72
-0.72
-0.74
-0.765
-0.79
-0.79
-0.755
-0.73
-0.71
-0.685
-0.695
-0.705
-0.735
-0.745
-0.76
-0.775
-0.785
-0.77
-0.75
-0.755
-0.75
-0.745
-0.75
-0.755
-0.755
-0.75
-0.76
-0.765
-0.76
-0.785
-0.775
-0.78
-0.77
-0.76
-0.745
-0.745
-0.74
-0.76
-0.75
-0.765
-0.785
-0.78
-0.77
-0.775
-0.745
-0.755
-0.74
-0.765
-0.765
-0.74
-0.75
-0.76
-0.75
-0.75
-0.75
-0.74
-0.73
-0.715
-0.71
-0.735
-0.735
-0.735
-0.755
-0.765
-0.765
-0.775
-0.76
-0.745
-0.75
-0.735
-0.715
-0.705
-0.685
-0.69
-0.7
-0.73
-0.76
-0.76
-0.76
-0.74
-0.705
-0.705
-0.695
-0.68
-0.685
-0.685
-0.675
-0.665
-0.675
-0.655
-0.645
-0.63
-0.61
-0.605
-0.595
-0.58
-0.555
-0.54
-0.505
-0.495
-0.48
-0.475
-0.495
-0.49
-0.505
-0.52
-0.535
-0.555
-0.575
-0.59
-0.575
-0.525
-0.505
-0.49
-0.475
-0.485
-0.49
-0.505
-0.545
-0.6
-0.635
-0.665
-0.675
-0.705
-0.725
-0.75
-0.745
-0.765
-0.765
-0.77
-0.765
-0.76
-0.78
-0.775
-0.795
-0.78
-0.79
-0.785
-0.785
-0.78
-0.785
-0.785
-0.78
-0.81
-0.8
-0.81
-0.81
-0.825
-0.825
-0.82
-0.795
-0.77
-0.775
-0.765
-0.775
-0.77
-0.8
-0.79
-0.805
-0.82
-0.845
-0.84
-0.83
-0.805
-0.755
-0.67
-0.54
-0.365
-0.175
-0.01
0.1
0.18
0.175
0.15
0.175
0.25
0.425
0.615
0.795
0.835
0.71
0.355
-0.165
-0.755
-1.255
-1.62
-1.82
-1.925
-1.985
-2.045
-2.1
-2.14
-2.205
-2.235
-2.26
-2.245
-2.235
-2.22
-2.195
-2.15
-2.1
-2.035
-1.935
-1.805
-1.65
-1.48
-1.325
-1.215
-1.125
-1.06
-0.98
-0.945
-0.915
-0.895
-0.89
-0.875
-0.875
-0.87
-0.865
-0.86
-0.865
-0.85
-0.85
-0.84
-0.835
-0.825
-0.82
-0.815
-0.825
-0.85
-0.86
-0.885
-0.9
-0.895
-0.89
-0.885
-0.88
-0.89
-0.895
-0.93
-0.93
-0.96
-0.96
-0.98
-0.985
-1.0
-1.01
-0.985
-1.0
-1.0
-1.01
-1.025
-1.05
-1.085
-1.105
-1.13
-1.145
-1.14
-1.15
-1.125
-1.13
-1.13
-1.115
-1.12
-1.13
-1.15
-1.155
-1.16
-1.16
-1.16
-1.14
-1.145
-1.1
-1.075
-1.045
-1.035
-1.025
-1.025
-1.01
-1.01
-0.98
-0.945
-0.91
-0.885
-0.855
-0.835
-0.81
-0.805
-0.8
-0.785
-0.785
-0.785
-0.795
-0.775
-0.765
-0.73
-0.7
-0.685
-0.665
-0.655
-0.655
-0.675
-0.68
-0.705
-0.7
-0.715
-0.71
-0.695
-0.68
-0.655
-0.655
-0.665
-0.665
-0.675
-0.705
-0.7
-0.715
-0.7
-0.69
-0.69
-0.68
-0.66
-0.655
-0.66
-0.685
-0.7
-0.71
-0.715
-0.72
-0.72
-0.725
-0.705
-0.71
-0.695
-0.69
-0.705
-0.72
-0.76
-0.77
-0.775
-0.795
-0.795
-0.775
-0.76
-0.75
-0.725
-0.73
-0.735
-0.735
-0.725
-0.75
-0.745
-0.75
-0.745
-0.75
-0.725
-0.725
-0.725
-0.715
-0.725
-0.73
-0.745
-0.755
-0.77
-0.76
-0.76
-0.74
-0.725
-0.725
-0.73
-0.715
-0.705
-0.71
-0.74
-0.74
-0.755
-0.745
-0.735
-0.745
-0.73
-0.715
-0.705
-0.695
-0.7
-0.705
-0.735
-0.72
-0.73
-0.74
-0.735
-0.73
-0.71
-0.69
-0.685
-0.64
-0.645
-0.65
-0.66
-0.675
-0.675
-0.675
-0.66
-0.615
-0.6
-0.565
-0.55
-0.525
-0.515
-0.5
-0.485
-0.46
-0.45
-0.465
-0.47
-0.505
-0.52
-0.54
-0.56
-0.565
-0.575
-0.565
-0.525
-0.5
-0.47
-0.49
-0.49
-0.54
-0.565
-0.595
-0.635
-0.665
-0.7
-0.71
-0.725
-0.74
-0.76
-0.785
-0.805
-0.795
-0.79
-0.795
-0.77
-0.765
-0.765
-0.775
-0.8
-0.795
-0.805
-0.82
-0.84
-0.835
-0.81
-0.79
-0.79
-0.785
-0.79
-0.815
-0.805
-0.795
-0.805
-0.805
-0.815
-0.82
-0.8
-0.8
-0.79
-0.775
-0.79
-0.795
-0.82
-0.83
-0.825
-0.82
-0.73
-0.615
-0.435
-0.245
-0.06
0.07
0.13
0.095
0.075
0.1
0.185
0.355
0.585
0.75
0.775
0.56
0.115
-0.48
-1.105
-1.625
-1.955
-2.15
-2.245
-2.285
-2.28
-2.285
-2.275
-2.265
-2.25
-2.25
-2.26
-2.245
-2.22
-2.18
-2.095
-1.99
-1.875
-1.7
-1.525
-1.36
-1.2
-1.09
-1.0
-0.965
-0.945
-0.93
-0.92
-0.905
-0.89
-0.87
-0.875
-0.85
-0.825
-0.82
-0.815
-0.815
-0.83
-0.85
-0.855
-0.87
-0.87
-0.86
-0.84
-0.835
-0.83
-0.85
-0.87
-0.905
-0.925
-0.94
-0.96
-0.98
-0.975
-0.98
-0.99
-0.995
-1.005
-1.03
-1.04
-1.035
-1.05
-1.06
-1.085
-1.105
-1.09
-1.115
-1.12
-1.11
-1.125
-1.105
-1.1
-1.115
-1.11
-1.11
-1.135
-1.125
-1.135
-1.12
-1.105
-1.08
-1.065
-1.04
-1.055
-1.035
-1.01
-1.005
-0.975
-0.95
-0.945
-0.915
-0.905
-0.86
-0.845
-0.825
-0.825
-0.815
-0.79
-0.795
-0.795
-0.8
-0.775
-0.775
-0.755
-0.725
-0.71
-0.685
-0.675
-0.69
-0.71
-0.72
-0.735
-0.73
-0.745
-0.725
-0.705
-0.695
-0.67
-0.675
-0.68
-0.685
-0.695
-0.725
-0.715
-0.71
-0.72
-0.715
-0.705
-0.705
-0.715
-0.72
-0.72
-0.725
-0.725
-0.735
-0.735
-0.735
-0.715
-0.73
-0.74
-0.745
-0.745
-0.75
-0.745
-0.755
-0.76
-0.745
-0.75
-0.755
-0.75
-0.745
-0.76
-0.735
-0.715
-0.73
-0.735
-0.745
-0.745
-0.75
-0.745
-0.735
-0.73
-0.735
-0.725
-0.73
-0.715
-0.705
-0.69
-0.71
-0.705
-0.715
-0.74
-0.76
-0.77
-0.75
-0.725
-0.71
-0.705
-0.695
-0.7
-0.715
-0.74
-0.74
-0.735
-0.715
-0.705
-0.725
-0.725
-0.725
-0.71
-0.685
-0.675
-0.685
-0.7
-0.705
-0.735
-0.73
-0.715
-0.705
-0.7
-0.655
-0.65
-0.63
-0.635
-0.64
-0.655
-0.65
-0.64
-0.625
-0.61
-0.59
-0.585
-0.565
-0.55
-0.53
-0.51
-0.49
-0.45
-0.435
-0.44
-0.43
-0.45
-0.475
-0.49
-0.52
-0.525
-0.53
-0.515
-0.51
-0.485
-0.465
-0.45
-0.44
-0.455
-0.49
-0.53
-0.565
-0.605
-0.625
-0.64
-0.665
-0.69
-0.705
-0.735
-0.73
-0.77
-0.765
-0.775
-0.75
-0.73
-0.74
-0.77
-0.775
-0.785
-0.79
-0.775
-0.77
-0.77
-0.785
-0.765
-0.76
-0.75
-0.755
-0.745
-0.765
-0.775
-0.79
-0.82
-0.815
-0.81
-0.8
-0.81
-0.775
-0.76
-0.77
-0.755
-0.765
-0.785
-0.8
-0.815
-0.8
-0.74
-0.665
-0.555
-0.375
-0.185
-0.025
0.095
0.155
0.125
0.105
0.125
0.255
0.45
0.67
0.825
0.795
0.5
0.015
-0.625
-1.23
-1.68
-1.965
-2.12
-2.165
-2.185
-2.2
-2.23
-2.245
-2.26
-2.265
-2.255
-2.255
-2.26
-2.275
-2.255
-2.205
-2.155
-2.075
-1.96
-1.82
-1.64
-1.465
-1.305
-1.165
-1.055
-0.99
-0.965
-0.94
-0.92
-0.895
-0.86
-0.835
-0.815
-0.795
-0.815
-0.82
-0.825
-0.825
-0.835
-0.835
-0.835
-0.82
-0.82
-0.83
-0.83
-0.81
-0.815
-0.83
-0.84
-0.845
-0.86
-0.86
-0.865
-0.91
-0.905
-0.9
-0.9
-0.91
-0.905
-0.915
-0.93
-0.955
-0.995
-1.015
-1.05
-1.065
-1.06
-1.04
-1.025
-1.045
-1.05
-1.055
-1.075
-1.09
-1.105
-1.11
-1.125
-1.115
-1.115
-1.1
-1.1
-1.09
-1.08
-1.08
-1.08
-1.08
-1.07
-1.055
-1.045
-1.02
-0.975
-0.96
-0.935
-0.91
-0.895
-0.88
-0.865
-0.84
-0.83
-0.825
-0.805
-0.8
-0.79
-0.77
-0.76
-0.73
-0.71
-0.7
-0.695
-0.7
-0.71
-0.705
-0.675
-0.685
-0.67
-0.67
-0.67
-0.675
-0.635
-0.645
-0.65
-0.675
-0.69
-0.685
-0.67
-0.665
-0.665
-0.66
-0.66
-0.675
-0.68
-0.665
-0.675
-0.69
-0.685
-0.695
-0.705
-0.71
-0.705
-0.705
-0.695
-0.695
-0.7
-0.705
-0.715
-0.73
-0.735
-0.74
-0.735
-0.695
-0.69
-0.705
-0.69
-0.695
-0.715
-0.72
-0.7
-0.705
-0.715
-0.725
-0.74
-0.735
-0.73
-0.72
-0.7
-0.68
-0.68
-0.665
-0.685
-0.695
-0.71
-0.725
-0.73
-0.71
-0.715
-0.705
-0.69
-0.68
-0.68
-0.69
-0.7
-0.71
-0.71
-0.705
-0.695
-0.69
-0.685
-0.68
-0.67
-0.68
-0.665
-0.685
-0.69
-0.7
-0.71
-0.71
-0.71
-0.695
-0.69
-0.675
-0.65
-0.655
-0.66
-0.65
-0.665
-0.66
-0.66
-0.65
-0.65
-0.64
-0.635
-0.61
-0.585
-0.57
-0.55
-0.515
-0.52
-0.53
-0.525
-0.51
-0.475
-0.445
-0.41
-0.395
-0.405
-0.425
-0.455
-0.49
-0.53
-0.555
-0.565
-0.555
-0.51
-0.47
-0.42
-0.405
-0.395
-0.435
-0.485
-0.54
-0.575
-0.605
-0.65
-0.66
-0.68
-0.69
-0.7
-0.705
-0.71
-0.735
-0.735
-0.755
-0.765
-0.755
-0.76
-0.765
-0.77
-0.77
-0.765
-0.76
-0.77
-0.76
-0.765
-0.75
-0.785
-0.78
-0.8
-0.805
-0.8
-0.8
-0.78
-0.775
-0.765
-0.755
-0.75
-0.75
-0.765
-0.77
-0.78
-0.79
-0.805
-0.825
-0.8
-0.75
-0.665
-0.52
-0.355
-0.17
0.0
0.125
0.17
0.145
0.125
0.165
0.29
0.47
0.67
0.81
0.79
0.565
0.1
-0.49
-1.09
-1.56
-1.865
-2.04
-2.135
-2.15
-2.18
-2.21
-2.235
-2.23
-2.28
-2.28
-2.28
-2.265
-2.25
-2.255
-2.19
-2.135
-2.05
-1.93
-1.805
-1.63
-1.465
-1.32
-1.19
-1.095
-1.045
-0.965
-0.935
-0.915
-0.895
-0.89
-0.875
-0.85
-0.85
-0.83
-0.815
-0.825
-0.81
-0.805
-0.8
-0.805
-0.81
-0.81
-0.82
-0.82
-0.82
-0.83
-0.84
-0.85
-0.855
-0.85
-0.865
-0.865
-0.875
-0.9
-0.895
-0.905
-0.93
-0.96
-0.975
-1.005
-0.995
-1.01
-1.01
-1.025
-1.015
-1.03
-1.04
-1.045
-1.025
-1.04
-1.05
-1.06
-1.07
-1.08
-1.1
-1.1
-1.115
-1.095
-1.08
-1.085
-1.09
-1.095
-1.125
-1.125
-1.105
-1.07
-1.055
-1.025
-1.015
-0.99
-0.98
-0.975
-0.96
-0.95
-0.96
-0.93
-0.905
-0.895
-0.865
-0.815
-0.8
-0.765
-0.75
-0.75
-0.745
-0.76
-0.75
-0.75
-0.725
-0.725
-0.725
-0.685
-0.69
-0.68
-0.675
-0.675
-0.675
-0.67
-0.68
-0.66
-0.66
-0.65
-0.655
-0.66
-0.655
-0.66
-0.66
-0.66
-0.66
-0.66
-0.685
-0.695
-0.69
-0.675
-0.685
-0.685
-0.69
-0.695
-0.685
-0.705
-0.72
-0.725
-0.71
-0.725
-0.735
-0.72
-0.715
-0.705
-0.69
-0.705
-0.705
-0.705
-0.72
-0.715
-0.735
-0.75
-0.74
-0.73
-0.725
-0.725
-0.7
-0.705
-0.695
-0.705
-0.7
-0.71
-0.71
-0.71
-0.7
-0.705
-0.69
-0.675
-0.685
-0.695
-0.7
-0.725
-0.725
-0.73
-0.73
-0.73
-0.705
-0.695
-0.67
-0.65
-0.665
-0.655
-0.66
-0.66
-0.685
-0.695
-0.695
-0.71
-0.71
-0.705
-0.695
-0.675
-0.675
-0.66
-0.68
-0.66
-0.675
-0.68
-0.69
-0.695
-0.705
-0.7
-0.69
-0.67
-0.66
-0.65
-0.635
-0.625
-0.625
-0.625
-0.615
-0.62
-0.61
-0.61
-0.595
-0.59
-0.56
-0.545
-0.53
-0.515
-0.505
-0.505
-0.5
-0.475
-0.44
-0.425
-0.41
-0.42
-0.425
-0.455
-0.475
-0.48
-0.515
-0.52
-0.515
-0.48
-0.475
-0.45
-0.42
-0.41
-0.415
-0.435
-0.48
-0.525
-0.565
-0.615
-0.625
-0.64
-0.66
-0.685
-0.69
-0.695
-0.68
-0.675
-0.695
-0.69
-0.685
-0.7
-0.695
-0.7
-0.715
-0.725
-0.725
-0.73
-0.74
-0.73
-0.72
-0.725
-0.725
-0.73
-0.725
-0.73
-0.715
-0.715
-0.695
-0.695
-0.7
-0.69
-0.695
-0.695
-0.715
-0.705
-0.735
-0.735
-0.73
-0.705
-0.61
-0.465
-0.275
-0.065
0.15
0.3
0.38
0.385
0.33
0.32
0.35
0.47
0.615
0.77
0.83
0.73
0.4
-0.125
-0.69
-1.2
-1.59
-1.845
-1.965
-2.025
-2.04
-2.055
-2.065
-2.08
-2.095
-2.13
-2.125
-2.135
-2.125
-2.115
-2.08
-2.03
-1.98
-1.895
-1.76
-1.59
-1.41
-1.22
-1.08
-0.985
-0.925
-0.9
-0.885
-0.86
-0.855
-0.84
-0.805
-0.815
-0.785
-0.77
-0.77
-0.78
-0.795
-0.805
-0.8
-0.795
-0.795
-0.77
-0.765
-0.76
-0.785
-0.76
-0.795
-0.785
-0.83
-0.855
-0.86
-0.87
-0.875
-0.86
-0.85
-0.845
-0.865
-0.895
-0.92
-0.945
-0.97
-0.97
-0.98
-0.995
-1.0
-1.0
-1.005
-1.01
-1.04
-1.035
-1.02
-1.03
-1.035
-1.045
-1.045
-1.045
-1.03
-1.035
-1.015
-1.0
-0.99
-0.97
-0.965
-0.955
-0.94
-0.945
-0.92
-0.91
-0.865
-0.815
-0.785
-0.745
-0.725
-0.72
-0.705
-0.7
-0.695
-0.67
-0.655
-0.63
-0.605
-0.58
-0.555
-0.55
-0.54
-0.53
-0.525
-0.51
-0.52
-0.51
-0.5
-0.51
-0.495
-0.48
-0.47
-0.47
-0.475
-0.475
-0.49
-0.485
-0.465
-0.475
-0.485
-0.485
-0.47
-0.455
-0.47
-0.45
-0.445
-0.465
-0.46
-0.465
-0.47
-0.48
-0.485
-0.475
-0.475
-0.485
-0.48
-0.475
-0.47
-0.49
-0.485
-0.485
-0.49
-0.485
-0.49
-0.505
-0.485
-0.485
-0.465
-0.455
-0.46
-0.465
-0.47
-0.47
-0.49
-0.49
-0.49
-0.485
-0.475
-0.475
-0.46
-0.43
-0.43
-0.42
-0.45
-0.44
-0.43
-0.45
-0.435
-0.43
-0.45
-0.435
-0.425
-0.42
-0.42
-0.43
-0.42
-0.42
-0.425
-0.43
-0.415
-0.42
-0.41
-0.43
-0.42
-0.42
-0.42
-0.42
-0.425
-0.435
-0.43
-0.43
-0.44
-0.435
-0.435
-0.41
-0.405
-0.38
-0.39
-0.395
-0.38
-0.38
-0.385
-0.38
-0.38
-0.355
-0.35
-0.33
-0.295
-0.285
-0.275
-0.265
-0.26
-0.24
-0.23
-0.21
-0.185
-0.18
-0.175
-0.18
-0.195
-0.2
-0.23
-0.245
-0.255
-0.26
-0.255
-0.225
-0.195
-0.19
-0.16
-0.155
-0.19
-0.225
-0.265
-0.31
-0.34
-0.37
-0.39
-0.4
-0.415
-0.44
-0.425
-0.435
-0.425
-0.435
-0.445
-0.455
-0.455
-0.475
-0.475
-0.495
-0.485
-0.49
-0.48
-0.48
-0.465
-0.455
-0.475
-0.475
-0.485
-0.495
-0.51
-0.51
-0.515
-0.515
-0.505
-0.49
-0.48
-0.47
-0.465
-0.475
-0.48
-0.51
-0.53
-0.545
-0.56
-0.545
-0.525
-0.465
-0.35
-0.19
-0.03
0.15
0.275
0.355
0.375
0.35
0.36
0.425
0.57
0.78
0.98
1.12
1.13
0.93
0.58
0.05
-0.505
-0.975
-1.305
-1.51
-1.62
-1.69
-1.735
-1.785
-1.855
-1.88
-1.9
-1.92
-1.925
-1.935
-1.93
-1.9
-1.855
-1.795
-1.72
-1.59
-1.44
-1.255
-1.095
-0.955
-0.845
-0.77
-0.71
-0.665
-0.645
-0.635
-0.62
-0.6
-0.595
-0.58
-0.585
-0.565
-0.57
-0.56
-0.56
-0.575
-0.545
-0.545
-0.555
-0.565
-0.565
-0.575
-0.59
-0.585
-0.61
-0.605
-0.61
-0.615
-0.61
-0.625
-0.62
-0.63
-0.655
-0.675
-0.69
-0.71
-0.725
-0.745
-0.76
-0.76
-0.76
-0.765
-0.77
-0.765
-0.795
-0.84
-0.83
-0.84
-0.86
-0.855
-0.875
-0.89
-0.88
-0.875
-0.87
-0.86
-0.865
-0.855
-0.86
-0.855
-0.85
-0.835
-0.83
-0.815
-0.795
-0.795
-0.775
-0.75
-0.745
-0.73
-0.71
-0.7
-0.69
-0.665
-0.645
-0.615
-0.57
-0.54
-0.525
-0.5
-0.495
-0.5
-0.485
-0.5
-0.5
-0.49
-0.495
-0.465
-0.44
-0.44
-0.42
-0.405
-0.4
-0.405
-0.425
-0.43
-0.44
-0.445
-0.46
-0.455
-0.435
-0.42
-0.41
-0.405
-0.41
-0.425
-0.455
-0.445
-0.46
-0.47
-0.48
-0.47
-0.45
-0.435
-0.43
-0.45
-0.46
-0.465
-0.475
-0.5
-0.505
-0.49
-0.5
-0.5
-0.485
-0.48
-0.465
-0.475
-0.475
-0.48
-0.49
-0.505
-0.51
-0.52
-0.53
-0.515
-0.51
-0.515
-0.49
-0.485
-0.47
-0.495
-0.475
-0.495
-0.505
-0.49
-0.5
-0.51
-0.505
-0.505
-0.49
-0.475
-0.46
-0.475
-0.48
-0.495
-0.5
-0.505
-0.52
-0.515
-0.51
-0.485
-0.48
-0.47
-0.485
-0.475
-0.485
-0.48
-0.48
-0.485
-0.495
-0.48
-0.475
-0.47
-0.465
-0.455
-0.455
-0.455
-0.465
-0.465
-0.475
-0.47
-0.465
-0.44
-0.42
-0.39
-0.365
-0.345
-0.34
-0.36
-0.36
-0.36
-0.365
-0.375
-0.36
-0.32
-0.27
-0.245
-0.22
-0.21
-0.22
-0.24
-0.255
-0.285
-0.32
-0.335
-0.36
-0.37
-0.36
-0.325
-0.28
-0.25
-0.245
-0.245
-0.275
-0.3
-0.35
-0.4
-0.455
-0.495
-0.51
-0.51
-0.52
-0.52
-0.53
-0.545
-0.565
-0.575
-0.585
-0.59
-0.58
-0.58
-0.57
-0.565
-0.59
-0.595
-0.585
-0.61
-0.61
-0.615
-0.625
-0.63
-0.65
-0.645
-0.63
-0.62
-0.6
-0.595
-0.585
-0.58
-0.595
-0.6
-0.605
-0.605
-0.605
-0.625
-0.615
-0.61
-0.605
-0.59
-0.545
-0.47
-0.34
-0.155
0.02
0.195
0.295
0.35
0.335
0.345
0.365
0.495
0.66
0.82
0.93
0.835
0.525
0.0
-0.615
-1.19
-1.605
-1.88
-1.995
-2.045
-2.05
-2.07
-2.08
-2.105
-2.12
-2.125
-2.13
-2.11
-2.09
-2.065
-2.02
-1.96
-1.905
-1.82
-1.695
-1.555
-1.365
-1.22
-1.07
-0.945
-0.84
-0.8
-0.775
-0.76
-0.735
-0.72
-0.715
-0.69
-0.695
-0.705
-0.695
-0.695
-0.69
-0.665
-0.67
-0.655
-0.655
-0.675
-0.67
-0.685
-0.695
-0.695
-0.72
-0.715
-0.715
-0.715
-0.715
-0.725
-0.74
-0.76
-0.755
-0.795
-0.815
-0.83
-0.825
-0.84
-0.835
-0.835
-0.84
-0.835
-0.855
-0.88
-0.915
-0.935
-0.94
-0.955
-0.97
-0.97
-0.955
-0.97
-0.965
-0.94
-0.955
-0.95
-0.945
-0.955
-0.955
-0.965
-0.96
-0.95
-0.935
-0.925
-0.9
-0.88
-0.87
-0.85
-0.84
-0.815
-0.795
-0.78
-0.76
-0.745
-0.735
-0.7
-0.68
-0.665
-0.65
-0.64
-0.625
-0.615
-0.61
-0.605
-0.625
-0.6
-0.585
-0.57
-0.545
-0.535
-0.52
-0.52
-0.54
-0.56
-0.555
-0.565
-0.555
-0.565
-0.55
-0.545
-0.53
-0.535
-0.53
-0.53
-0.545
-0.545
-0.555
-0.565
-0.555
-0.565
-0.545
-0.555
-0.54
-0.545
-0.555
-0.565
-0.575
-0.59
-0.59
-0.6
-0.61
-0.6
-0.59
-0.58
-0.57
-0.545
-0.555
-0.57
-0.595
-0.595
-0.62
-0.625
-0.61
-0.615
-0.59
-0.6
-0.58
-0.565
-0.57
-0.585
-0.58
-0.58
-0.59
-0.58
-0.605
-0.6
-0.595
-0.575
-0.57
-0.57
-0.575
-0.55
-0.545
-0.56
-0.565
-0.575
-0.58
-0.605
-0.59
-0.57
-0.565
-0.565
-0.55
-0.555
-0.57
-0.6
-0.6
-0.61
-0.595
-0.595
-0.59
-0.59
-0.585
-0.565
-0.58
-0.575
-0.58
-0.59
-0.59
-0.61
-0.585
-0.58
-0.54
-0.545
-0.535
-0.53
-0.535
-0.53
-0.54
-0.52
-0.525
-0.505
-0.505
-0.485
-0.485
-0.49
-0.45
-0.435
-0.43
-0.415
-0.4
-0.375
-0.37
-0.34
-0.345
-0.335
-0.345
-0.365
-0.375
-0.385
-0.41
-0.42
-0.415
-0.4
-0.365
-0.355
-0.335
-0.34
-0.365
-0.41
-0.45
-0.48
-0.505
-0.535
-0.54
-0.565
-0.58
-0.605
-0.62
-0.62
-0.635
-0.625
-0.63
-0.625
-0.635
-0.64
-0.63
-0.665
-0.66
-0.66
-0.66
-0.675
-0.655
-0.645
-0.645
-0.635
-0.625
-0.625
-0.64
-0.65
-0.67
-0.67
-0.69
-0.68
-0.66
-0.655
-0.635
-0.63
-0.635
-0.63
-0.64
-0.655
-0.67
-0.675
-0.685
-0.67
-0.625
-0.53
-0.355
-0.165
0.03
0.2
0.315
0.335
0.33
0.275
0.3
0.36
0.51
0.69
0.835
0.905
0.82
0.515
0.05
-0.52
-1.04
-1.42
-1.675
-1.82
-1.875
-1.91
-1.925
-1.935
-1.955
-1.99
-1.99
-2.025
-2.025
-2.01
-2.015
-1.985
-1.925
-1.855
-1.73
-1.6
-1.44
-1.275
-1.125
-1.005
-0.91
-0.845
-0.81
-0.795
-0.775
-0.765
-0.775
-0.755
-0.74
-0.735
-0.725
-0.715
-0.72
-0.715
-0.73
-0.725
-0.705
-0.71
-0.705
-0.695
-0.7
-0.705
-0.72
-0.755
-0.77
-0.77
-0.78
-0.785
-0.79
-0.785
-0.785
-0.795
-0.8
-0.815
-0.84
-0.85
-0.88
-0.895
-0.91
-0.925
-0.93
-0.945
-0.93
-0.935
-0.96
-0.965
-0.965
-0.985
-0.995
-1.01
-1.025
-1.025
-1.02
-1.03
-1.01
-1.01
-0.99
-0.98
-0.985
-0.975
-0.98
-0.955
-0.945
-0.94
-0.91
-0.865
-0.85
-0.82
-0.815
-0.82
-0.78
-0.77
-0.76
-0.75
-0.725
-0.715
-0.705
-0.69
-0.66
-0.64
-0.635
-0.615
-0.615
-0.63
-0.62
-0.625
-0.635
-0.63
-0.61
-0.585
-0.575
-0.56
-0.56
-0.575
-0.565
-0.56
-0.56
-0.565
-0.555
-0.57
-0.565
-0.56
-0.55
-0.55
-0.555
-0.555
-0.56
-0.585
-0.595
-0.59
-0.58
-0.58
-0.565
-0.57
-0.57
-0.58
-0.585
-0.58
-0.6
-0.61
-0.595
-0.615
-0.65
-0.635
-0.63
-0.6
-0.59
-0.585
-0.58
-0.595
-0.6
-0.615
-0.62
-0.615
-0.63
-0.625
-0.61
-0.61
-0.605
-0.59
-0.595
-0.605
-0.61
-0.61
-0.625
-0.625
-0.64
-0.615
-0.605
-0.595
-0.58
-0.58
-0.58
-0.595
-0.585
-0.585
-0.6
-0.59
-0.605
-0.595
-0.59
-0.595
-0.59
-0.585
-0.58
-0.595
-0.605
-0.605
-0.595
-0.605
-0.62
-0.625
-0.605
-0.565
-0.55
-0.525
-0.515
-0.505
-0.5
-0.5
-0.51
-0.505
-0.505
-0.48
-0.465
-0.445
-0.435
-0.38
-0.35
-0.325
-0.32
-0.32
-0.35
-0.375
-0.41
-0.46
-0.465
-0.475
-0.44
-0.42
-0.395
-0.355
-0.35
-0.35
-0.37
-0.42
-0.46
-0.51
-0.535
-0.555
-0.58
-0.6
-0.595
-0.605
-0.625
-0.64
-0.655
-0.655
-0.66
-0.675
-0.655
-0.645
-0.64
-0.635
-0.645
-0.65
-0.655
-0.665
-0.68
-0.695
-0.705
-0.695
-0.695
-0.69
-0.665
-0.665
-0.65
-0.67
-0.665
-0.67
-0.685
-0.685
-0.685
-0.685
-0.67
-0.675
-0.69
-0.69
-0.71
-0.725
-0.725
-0.685
-0.61
-0.465
-0.31
-0.155
0.02
0.11
0.14
0.115
0.095
0.125
0.225
0.405
0.64
0.835
0.92
0.835
0.53
0.065
-0.485
-0.995
-1.395
-1.645
-1.8
-1.89
-1.955
-2.02
-2.05
-2.095
-2.1
-2.075
-2.07
-2.06
-2.065
-2.06
-2.01
-1.98
-1.91
-1.82
-1.7
-1.535
-1.365
-1.21
-1.075
-0.975
-0.895
-0.855
-0.82
-0.815
-0.815
-0.8
-0.775
-0.765
-0.75
-0.745
-0.72
-0.715
-0.715
-0.735
-0.72
-0.745
-0.74
-0.75
-0.745
-0.74
-0.73
-0.73
-0.72
-0.73
-0.72
-0.745
-0.76
-0.795
-0.81
-0.82
-0.84
-0.835
-0.84
-0.825
-0.835
-0.85
-0.845
-0.855
-0.88
-0.9
-0.91
-0.94
-0.955
-0.96
-0.97
-0.95
-0.965
-0.965
-0.98
-0.98
-0.985
-0.995
-1.015
-1.015
-1.01
-1.005
-1.0
-0.985
-1.0
-0.975
-0.96
-0.97
-0.945
-0.95
-0.94
-0.93
-0.925
-0.905
-0.865
-0.835
-0.82
-0.79
-0.77
-0.755
-0.76
-0.755
-0.75
-0.74
-0.715
-0.695
-0.675
-0.66
-0.64
-0.615
-0.63
-0.615
-0.6
-0.61
-0.59
-0.615
-0.6
-0.615
-0.6
-0.595
-0.57
-0.57
-0.59
-0.575
-0.59
-0.595
-0.59
-0.605
-0.6
-0.595
-0.595
-0.59
-0.585
-0.575
-0.575
-0.595
-0.6
-0.605
-0.61
-0.62
-0.635
-0.64
-0.62
-0.61
-0.62
-0.595
-0.615
-0.62
-0.64
-0.655
-0.685
-0.665
-0.665
-0.67
-0.68
-0.665
-0.65
-0.64
-0.635
-0.63
-0.63
-0.64
-0.665
-0.66
-0.67
-0.655
-0.645
-0.645
-0.65
-0.635
-0.635
-0.63
-0.635
-0.665
-0.66
-0.66
-0.67
-0.67
-0.665
-0.64
-0.63
-0.61
-0.615
-0.62
-0.63
-0.63
-0.645
-0.635
-0.66
-0.67
-0.645
-0.61
-0.605
-0.61
-0.62
-0.625
-0.64
-0.645
-0.66
-0.655
-0.65
-0.66
-0.645
-0.64
-0.595
-0.585
-0.57
-0.55
-0.55
-0.555
-0.54
-0.555
-0.55
-0.535
-0.53
-0.51
-0.49
-0.47
-0.435
-0.4
-0.39
-0.37
-0.38
-0.405
-0.43
-0.455
-0.485
-0.485
-0.485
-0.475
-0.465
-0.44
-0.43
-0.42
-0.41
-0.425
-0.455
-0.495
-0.52
-0.535
-0.545
-0.565
-0.57
-0.59
-0.63
-0.675
-0.69
-0.705
-0.705
-0.72
-0.705
-0.695
-0.69
-0.675
-0.7
-0.69
-0.685
-0.68
-0.695
-0.71
-0.72
-0.725
-0.71
-0.72
-0.725
-0.715
-0.71
-0.705
-0.715
-0.72
-0.715
-0.705
-0.725
-0.72
-0.71
-0.705
-0.685
-0.69
-0.705
-0.715
-0.72
-0.74
-0.74
-0.685
-0.59
-0.445
-0.24
-0.035
0.16
0.28
0.305
0.28
0.26
0.265
0.345
0.47
0.635
0.705
0.625
0.31
-0.2
-0.76
-1.295
-1.68
-1.92
-2.055
-2.1
-2.12
-2.135
-2.14
-2.135
-2.11
-2.11
-2.1
-2.075
-2.065
-2.055
-2.06
-2.04
-1.985
-1.88
-1.7
-1.505
-1.285
-1.12
-1.005
-0.94
-0.925
-0.895
-0.87
-0.835
-0.825
-0.82
-0.8
-0.77
-0.75
-0.755
-0.77
-0.76
-0.75
-0.755
-0.75
-0.76
-0.79
-0.81
-0.775
-0.72
-0.685
-0.68
-0.73
-0.855
-0.93
-0.94
-0.9
-0.84
-0.805
-0.765
-0.77
-0.85
-0.935
-0.98
-0.995
-0.985
-0.975
-0.99
-0.995
-0.97
-0.965
-0.975
-1.0
-1.035
-1.05
-1.05
-1.03
-0.99
-0.98
-0.995
-1.04
-1.08
-1.085
-1.065
-1.045
-0.98
-0.965
-0.98
-1.0
-1.025
-1.02
-0.995
-0.975
-0.965
-0.965
-0.97
-0.96
-0.95
-0.93
-0.875
-0.83
-0.795
-0.745
-0.73
-0.73
-0.73
-0.735
-0.715
-0.715
-0.695
-0.685
-0.675
-0.655
-0.62
-0.595
-0.6
-0.625
-0.68
-0.755
-0.775
-0.765
-0.715
-0.63
-0.57
-0.55
-0.555
-0.565
-0.575
-0.565
-0.565
-0.58
-0.615
-0.665
-0.71
-0.69
-0.66
-0.605
-0.59
-0.585
