Lead II
-0.065
-0.065
-0.065
-0.075
-0.065
-0.06
-0.045
-0.05
-0.055
-0.06
-0.07
-0.055
-0.05
-0.05
-0.075
-0.08
-0.08
-0.085
-0.075
-0.09
-0.095
-0.11
-0.12
-0.11
-0.1
-0.1
-0.105
-0.11
-0.095
-0.09
-0.075
-0.075
-0.085
-0.1
-0.1
-0.09
-0.085
-0.095
-0.08
-0.1
-0.075
-0.06
-0.04
-0.045
-0.045
-0.05
-0.055
-0.055
-0.055
-0.065
-0.07
-0.08
-0.08
-0.065
-0.055
-0.065
-0.06
-0.065
-0.08
-0.09
-0.11
-0.15
-0.18
-0.2
-0.21
-0.23
-0.225
-0.24
-0.265
-0.285
-0.28
-0.27
-0.275
-0.28
-0.285
-0.29
-0.285
-0.28
-0.27
-0.28
-0.285
-0.29
-0.295
-0.275
-0.265
-0.275
-0.27
-0.275
-0.285
-0.275
-0.265
-0.265
-0.27
-0.285
-0.29
-0.265
-0.255
-0.27
-0.265
-0.275
-0.28
-0.275
-0.25
-0.26
-0.255
-0.275
-0.27
-0.26
-0.245
-0.25
-0.255
-0.26
-0.255
-0.255
-0.24
-0.245
-0.26
-0.275
-0.3
-0.31
-0.31
-0.31
-0.275
-0.175
-0.04
0.105
0.24
0.34
0.415
0.495
0.62
0.77
0.935
1.065
1.19
1.265
1.315
1.34
1.36
1.35
1.29
1.19
1.005
0.835
0.705
0.545
0.415
0.26
0.075
-0.12
-0.28
-0.44
-0.565
-0.685
-0.79
-0.845
-0.855
-0.875
-0.87
-0.88
-0.865
-0.86
-0.84
-0.83
-0.805
-0.77
-0.735
-0.685
-0.66
-0.64
-0.63
-0.62
-0.585
-0.555
-0.52
-0.515
-0.51
-0.515
-0.51
-0.495
-0.495
-0.505
-0.51
-0.525
-0.525
-0.505
-0.505
-0.515
-0.525
-0.55
-0.545
-0.535
-0.53
-0.545
-0.55
-0.555
-0.565
-0.56
-0.545
-0.55
-0.57
-0.58
-0.575
-0.57
-0.555
-0.565
-0.57
-0.575
-0.575
-0.57
-0.56
-0.565
-0.565
-0.56
-0.565
-0.545
-0.53
-0.54
-0.52
-0.52
-0.515
-0.49
-0.475
-0.46
-0.46
-0.45
-0.445
-0.43
-0.41
-0.395
-0.385
-0.385
-0.36
-0.355
-0.315
-0.305
-0.3
-0.295
-0.27
-0.26
-0.23
-0.22
-0.215
-0.2
-0.18
-0.17
-0.15
-0.14
-0.135
-0.125
-0.125
-0.11
-0.09
-0.08
-0.08
-0.085
-0.09
-0.085
-0.065
-0.065
-0.075
-0.08
-0.085
-0.07
-0.065
-0.08
-0.09
-0.1
-0.11
-0.11
-0.105
-0.105
-0.11
-0.13
-0.125
-0.13
-0.11
-0.115
-0.11
-0.11
-0.105
-0.095
-0.085
-0.1
-0.1
-0.12
-0.12
-0.12
-0.105
-0.105
-0.09
-0.075
-0.08
-0.07
-0.07
-0.07
-0.08
-0.1
-0.11
-0.095
-0.095
-0.105
-0.105
-0.105
-0.1
-0.085
-0.08
-0.085
-0.11
-0.135
-0.16
-0.19
-0.195
-0.23
-0.255
-0.28
-0.3
-0.31
-0.3
-0.31
-0.315
-0.335
-0.33
-0.335
-0.31
-0.31
-0.315
-0.325
-0.315
-0.31
-0.3
-0.305
-0.31
-0.325
-0.325
-0.305
-0.31
-0.305
-0.31
-0.33
-0.31
-0.3
-0.3
-0.295
-0.3
-0.305
-0.305
-0.3
-0.29
-0.28
-0.29
-0.315
-0.31
-0.28
-0.27
-0.285
-0.285
-0.28
-0.285
-0.27
-0.27
-0.265
-0.285
-0.31
-0.335
-0.335
-0.35
-0.36
-0.345
-0.29
-0.17
-0.02
0.11
0.24
0.335
0.415
0.52
0.675
0.83
0.98
1.12
1.235
1.305
1.33
1.35
1.335
1.3
1.18
1.01
0.83
0.685
0.515
0.36
0.2
-0.015
-0.22
-0.37
-0.51
-0.635
-0.75
-0.84
-0.905
-0.915
-0.93
-0.925
-0.925
-0.91
-0.9
-0.885
-0.88
-0.85
-0.815
-0.785
-0.74
-0.715
-0.695
-0.675
-0.665
-0.635
-0.605
-0.575
-0.57
-0.565
-0.56
-0.56
-0.545
-0.54
-0.54
-0.545
-0.56
-0.57
-0.57
-0.565
-0.575
-0.57
-0.58
-0.585
-0.58
-0.57
-0.585
-0.595
-0.605
-0.605
-0.6
-0.595
-0.61
-0.61
-0.625
-0.62
-0.615
-0.605
-0.61
-0.605
-0.615
-0.63
-0.615
-0.6
-0.595
-0.6
-0.6
-0.6
-0.585
-0.575
-0.565
-0.575
-0.56
-0.555
-0.53
-0.52
-0.495
-0.49
-0.485
-0.475
-0.45
-0.435
-0.43
-0.425
-0.41
-0.405
-0.375
-0.355
-0.34
-0.325
-0.335
-0.31
-0.3
-0.27
-0.255
-0.245
-0.255
-0.24
-0.22
-0.195
-0.19
-0.18
-0.17
-0.155
-0.15
-0.14
-0.135
-0.13
-0.135
-0.12
-0.11
-0.11
-0.105
-0.1
-0.105
-0.11
-0.105
-0.105
-0.11
-0.125
-0.135
-0.125
-0.135
-0.125
-0.13
-0.145
-0.16
-0.165
-0.16
-0.165
-0.17
-0.175
-0.18
-0.17
-0.16
-0.135
-0.13
-0.145
-0.155
-0.16
-0.15
-0.145
-0.15
-0.16
-0.16
-0.155
-0.13
-0.105
-0.1
-0.11
-0.125
-0.125
-0.12
-0.12
-0.13
-0.13
-0.145
-0.145
-0.125
-0.11
-0.115
-0.115
-0.145
-0.13
-0.13
-0.125
-0.15
-0.185
-0.23
-0.25
-0.265
-0.28
-0.295
-0.325
-0.34
-0.355
-0.35
-0.32
-0.33
-0.34
-0.35
-0.355
-0.34
-0.345
-0.35
-0.35
-0.355
-0.35
-0.345
-0.335
-0.345
-0.335
-0.35
-0.355
-0.35
-0.335
-0.345
-0.335
-0.355
-0.335
-0.325
-0.325
-0.335
-0.325
-0.34
-0.335
-0.32
-0.315
-0.32
-0.31
-0.32
-0.32
-0.315
-0.295
-0.315
-0.315
-0.32
-0.325
-0.31
-0.305
-0.295
-0.3
-0.31
-0.325
-0.325
-0.32
-0.34
-0.365
-0.39
-0.38
-0.345
-0.28
-0.18
-0.065
0.055
0.175
0.295
0.385
0.455
0.57
0.705
0.855
0.995
1.125
1.24
1.32
1.36
1.36
1.36
1.345
1.27
1.125
0.93
0.765
0.63
0.505
0.365
0.215
0.035
-0.17
-0.35
-0.48
-0.615
-0.74
-0.845
-0.925
-0.945
-0.95
-0.95
-0.945
-0.955
-0.935
-0.94
-0.9
-0.88
-0.845
-0.815
-0.775
-0.755
-0.725
-0.7
-0.695
-0.675
-0.645
-0.62
-0.59
-0.58
-0.575
-0.585
-0.595
-0.575
-0.565
-0.575
-0.565
-0.595
-0.595
-0.59
-0.585
-0.595
-0.595
-0.61
-0.615
-0.61
-0.605
-0.615
-0.625
-0.64
-0.645
-0.64
-0.615
-0.64
-0.645
-0.655
-0.66
-0.65
-0.64
-0.65
-0.645
-0.665
-0.65
-0.65
-0.63
-0.645
-0.65
-0.66
-0.655
-0.645
-0.635
-0.62
-0.625
-0.625
-0.615
-0.6
-0.58
-0.58
-0.575
-0.57
-0.56
-0.54
-0.515
-0.515
-0.505
-0.495
-0.495
-0.465
-0.44
-0.44
-0.435
-0.42
-0.405
-0.39
-0.365
-0.355
-0.34
-0.34
-0.33
-0.31
-0.285
-0.28
-0.275
-0.26
-0.255
-0.245
-0.225
-0.205
-0.21
-0.195
-0.19
-0.17
-0.155
-0.16
-0.155
-0.16
-0.17
-0.155
-0.14
-0.145
-0.145
-0.155
-0.16
-0.14
-0.135
-0.135
-0.155
-0.165
-0.165
-0.16
-0.155
-0.16
-0.17
-0.185
-0.195
-0.185
-0.18
-0.19
-0.2
-0.205
-0.225
-0.2
-0.19
-0.18
-0.185
-0.195
-0.195
-0.18
-0.175
-0.185
-0.185
-0.2
-0.21
-0.205
-0.195
-0.19
-0.185
-0.175
-0.165
-0.155
-0.145
-0.155
-0.155
-0.16
-0.17
-0.16
-0.155
-0.165
-0.165
-0.175
-0.165
-0.155
-0.15
-0.14
-0.155
-0.175
-0.185
-0.19
-0.21
-0.255
-0.29
-0.305
-0.305
-0.325
-0.33
-0.36
-0.36
-0.38
-0.385
-0.375
-0.37
-0.375
-0.375
-0.39
-0.39
-0.385
-0.36
-0.37
-0.38
-0.375
-0.37
-0.36
-0.36
-0.365
-0.365
-0.37
-0.375
-0.36
-0.355
-0.355
-0.365
-0.37
-0.365
-0.36
-0.355
-0.345
-0.36
-0.365
-0.375
-0.345
-0.335
-0.35
-0.35
-0.355
-0.355
-0.35
-0.35
-0.33
-0.34
-0.345
-0.335
-0.325
-0.325
-0.335
-0.35
-0.36
-0.39
-0.385
-0.375
-0.355
-0.305
-0.205
-0.075
0.08
0.23
0.345
0.42
0.475
0.595
0.73
0.865
0.995
1.125
1.22
1.285
1.31
1.315
1.29
1.235
1.105
0.915
0.74
0.61
0.46
0.315
0.155
-0.015
-0.205
-0.375
-0.525
-0.64
-0.755
-0.86
-0.93
-0.955
-0.985
-1.005
-1.0
-0.995
-0.965
-0.975
-0.98
-0.955
-0.925
-0.875
-0.835
-0.795
-0.775
-0.76
-0.76
-0.73
-0.69
-0.66
-0.64
-0.63
-0.625
-0.62
-0.615
-0.59
-0.615
-0.62
-0.62
-0.63
-0.625
-0.62
-0.615
-0.635
-0.645
-0.64
-0.645
-0.635
-0.64
-0.655
-0.67
-0.675
-0.67
-0.65
-0.665
-0.675
-0.69
-0.69
-0.675
-0.66
-0.66
-0.67
-0.685
-0.68
-0.675
-0.66
-0.67
-0.665
-0.685
-0.675
-0.665
-0.65
-0.65
-0.655
-0.66
-0.645
-0.635
-0.61
-0.615
-0.6
-0.6
-0.605
-0.575
-0.55
-0.545
-0.54
-0.525
-0.52
-0.505
-0.485
-0.475
-0.475
-0.465
-0.455
-0.435
-0.415
-0.4
-0.385
-0.38
-0.37
-0.355
-0.32
-0.315
-0.305
-0.315
-0.3
-0.285
-0.255
-0.255
-0.25
-0.255
-0.24
-0.225
-0.205
-0.195
-0.2
-0.19
-0.2
-0.185
-0.16
-0.165
-0.185
-0.185
-0.19
-0.18
-0.175
-0.19
-0.19
-0.19
-0.205
-0.19
-0.19
-0.205
-0.205
-0.225
-0.225
-0.215
-0.205
-0.215
-0.225
-0.235
-0.24
-0.215
-0.21
-0.205
-0.21
-0.215
-0.22
-0.205
-0.2
-0.21
-0.21
-0.22
-0.23
-0.22
-0.215
-0.22
-0.21
-0.205
-0.195
-0.165
-0.155
-0.16
-0.16
-0.17
-0.17
-0.175
-0.17
-0.175
-0.18
-0.19
-0.19
-0.18
-0.17
-0.165
-0.17
-0.17
-0.185
-0.18
-0.17
-0.19
-0.22
-0.26
-0.295
-0.305
-0.3
-0.32
-0.35
-0.375
-0.4
-0.39
-0.375
-0.375
-0.39
-0.4
-0.4
-0.395
-0.385
-0.38
-0.4
-0.4
-0.385
-0.375
-0.365
-0.38
-0.38
-0.385
-0.395
-0.375
-0.37
-0.37
-0.37
-0.385
-0.38
-0.37
-0.355
-0.365
-0.375
-0.37
-0.375
-0.37
-0.355
-0.355
-0.365
-0.365
-0.36
-0.35
-0.335
-0.335
-0.35
-0.345
-0.36
-0.335
-0.33
-0.325
-0.325
-0.335
-0.345
-0.33
-0.335
-0.345
-0.375
-0.385
-0.405
-0.4
-0.375
-0.3
-0.205
-0.095
0.02
0.15
0.255
0.325
0.39
0.475
0.615
0.755
0.88
0.995
1.11
1.18
1.2
1.22
1.215
1.195
1.135
1.01
0.825
0.685
0.56
0.415
0.27
0.125
-0.065
-0.265
-0.405
-0.545
-0.665
-0.775
-0.865
-0.91
-0.92
-0.925
-0.935
-0.93
-0.92
-0.915
-0.89
-0.88
-0.84
-0.805
-0.765
-0.73
-0.7
-0.69
-0.685
-0.67
-0.65
-0.615
-0.585
-0.57
-0.575
-0.575
-0.555
-0.54
-0.545
-0.55
-0.555
-0.57
-0.575
-0.565
-0.57
-0.57
-0.59
-0.585
-0.585
-0.58
-0.575
-0.585
-0.6
-0.595
-0.61
-0.585
-0.595
-0.595
-0.605
-0.605
-0.61
-0.61
-0.6
-0.6
-0.615
-0.62
-0.62
-0.61
-0.6
-0.59
-0.605
-0.6
-0.6
-0.59
-0.565
-0.56
-0.56
-0.555
-0.555
-0.53
-0.505
-0.5
-0.49
-0.485
-0.48
-0.445
-0.43
-0.43
-0.42
-0.415
-0.395
-0.37
-0.345
-0.335
-0.33
-0.325
-0.315
-0.3
-0.275
-0.26
-0.255
-0.235
-0.235
-0.215
-0.185
-0.18
-0.175
-0.165
-0.165
-0.14
-0.135
-0.13
-0.12
-0.125
-0.125
-0.125
-0.1
-0.095
-0.105
-0.11
-0.115
-0.105
-0.095
-0.11
-0.11
-0.12
-0.125
-0.125
-0.125
-0.115
-0.13
-0.15
-0.145
-0.135
-0.13
-0.135
-0.14
-0.155
-0.16
-0.13
-0.12
-0.115
-0.125
-0.125
-0.135
-0.135
-0.12
-0.125
-0.125
-0.13
-0.15
-0.14
-0.115
-0.105
-0.09
-0.095
-0.1
-0.095
-0.09
-0.095
-0.105
-0.115
-0.12
-0.105
-0.1
-0.11
-0.11
-0.11
-0.11
-0.1
-0.09
-0.085
-0.095
-0.11
-0.13
-0.145
-0.155
-0.18
-0.205
-0.23
-0.245
-0.26
-0.265
-0.295
-0.31
-0.33
-0.325
-0.315
-0.31
-0.325
-0.335
-0.34
-0.335
-0.325
-0.31
-0.32
-0.325
-0.32
-0.325
-0.315
-0.31
-0.305
-0.325
-0.315
-0.32
-0.305
-0.305
-0.3
-0.305
-0.31
-0.305
-0.31
-0.29
-0.295
-0.3
-0.305
-0.305
-0.31
-0.29
-0.29
-0.295
-0.305
-0.3
-0.295
-0.295
-0.285
-0.295
-0.29
-0.28
-0.285
-0.265
-0.27
-0.285
-0.29
-0.295
-0.295
-0.305
-0.325
-0.35
-0.365
-0.355
-0.28
-0.185
-0.07
0.055
0.17
0.27
0.355
0.45
0.565
0.685
0.815
0.95
1.095
1.23
1.31
1.34
1.35
1.345
1.31
1.25
1.105
0.92
0.755
0.61
0.455
0.32
0.145
-0.06
-0.27
-0.43
-0.55
-0.65
-0.76
-0.835
-0.895
-0.915
-0.91
-0.895
-0.88
-0.885
-0.9
-0.88
-0.85
-0.8
-0.745
-0.72
-0.705
-0.68
-0.66
-0.64
-0.61
-0.595
-0.575
-0.57
-0.545
-0.52
-0.53
-0.52
-0.53
-0.55
-0.535
-0.525
-0.525
-0.535
-0.545
-0.555
-0.555
-0.54
-0.55
-0.545
-0.57
-0.57
-0.57
-0.565
-0.575
-0.575
-0.585
-0.595
-0.59
-0.59
-0.59
-0.6
-0.605
-0.605
-0.6
-0.595
-0.59
-0.595
-0.605
-0.605
-0.595
-0.575
-0.58
-0.58
-0.595
-0.58
-0.57
-0.545
-0.53
-0.535
-0.525
-0.525
-0.505
-0.49
-0.475
-0.47
-0.47
-0.46
-0.435
-0.41
-0.4
-0.395
-0.395
-0.375
-0.345
-0.325
-0.33
-0.315
-0.305
-0.295
-0.275
-0.255
-0.235
-0.23
-0.22
-0.22
-0.195
-0.175
-0.17
-0.16
-0.15
-0.16
-0.14
-0.125
-0.12
-0.11
-0.115
-0.12
-0.1
-0.1
-0.1
-0.085
-0.095
-0.11
-0.105
-0.1
-0.1
-0.095
-0.11
-0.115
-0.115
-0.115
-0.11
-0.135
-0.145
-0.155
-0.135
-0.135
-0.135
-0.14
-0.165
-0.145
-0.13
-0.125
-0.125
-0.115
-0.13
-0.145
-0.135
-0.125
-0.125
-0.135
-0.145
-0.16
-0.13
-0.115
-0.105
-0.105
-0.1
-0.11
-0.09
-0.08
-0.09
-0.09
-0.12
-0.13
-0.12
-0.11
-0.1
-0.11
-0.105
-0.11
-0.11
-0.095
-0.105
-0.105
-0.125
-0.155
-0.17
-0.2
-0.22
-0.23
-0.28
-0.31
-0.295
-0.3
-0.315
-0.32
-0.33
-0.345
-0.345
-0.33
-0.335
-0.34
-0.35
-0.34
-0.335
-0.32
-0.33
-0.34
-0.335
-0.34
-0.34
-0.325
-0.325
-0.335
-0.33
-0.34
-0.325
-0.32
-0.305
-0.32
-0.33
-0.33
-0.32
-0.3
-0.3
-0.3
-0.3
-0.325
-0.3
-0.305
-0.3
-0.305
-0.315
-0.32
-0.31
-0.295
-0.285
-0.285
-0.3
-0.3
-0.28
-0.265
-0.28
-0.28
-0.29
-0.305
-0.315
-0.305
-0.345
-0.36
-0.35
-0.34
-0.275
-0.18
-0.06
0.045
0.17
0.27
0.37
0.445
0.55
0.7
0.83
0.96
1.11
1.235
1.315
1.365
1.355
1.365
1.35
1.29
1.135
0.935
0.74
0.57
0.44
0.3
0.13
-0.065
-0.265
-0.42
-0.535
-0.635
-0.74
-0.845
-0.905
-0.93
-0.925
-0.915
-0.92
-0.895
-0.9
-0.895
-0.88
-0.835
-0.8
-0.755
-0.725
-0.705
-0.68
-0.655
-0.635
-0.615
-0.605
-0.58
-0.555
-0.545
-0.54
-0.545
-0.55
-0.56
-0.545
-0.54
-0.535
-0.555
-0.57
-0.575
-0.56
-0.565
-0.565
-0.58
-0.585
-0.595
-0.585
-0.585
-0.585
-0.595
-0.61
-0.61
-0.61
-0.6
-0.605
-0.61
-0.63
-0.62
-0.615
-0.6
-0.6
-0.61
-0.605
-0.62
-0.595
-0.595
-0.585
-0.58
-0.6
-0.575
-0.555
-0.535
-0.53
-0.525
-0.53
-0.525
-0.5
-0.48
-0.46
-0.455
-0.445
-0.445
-0.415
-0.39
-0.385
-0.375
-0.36
-0.345
-0.325
-0.315
-0.305
-0.285
-0.27
-0.265
-0.24
-0.23
-0.225
-0.205
-0.185
-0.2
-0.175
-0.17
-0.145
-0.145
-0.145
-0.145
-0.125
-0.105
-0.12
-0.125
-0.115
-0.13
-0.12
-0.115
-0.12
-0.125
-0.13
-0.13
-0.13
-0.13
-0.13
-0.13
-0.155
-0.17
-0.15
-0.16
-0.165
-0.18
-0.18
-0.185
-0.195
-0.17
-0.165
-0.155
-0.16
-0.175
-0.155
-0.15
-0.17
-0.165
-0.17
-0.18
-0.175
-0.17
-0.165
-0.15
-0.145
-0.14
-0.12
-0.115
-0.115
-0.13
-0.14
-0.14
-0.145
-0.145
-0.145
-0.145
-0.15
-0.145
-0.13
-0.14
-0.135
-0.13
-0.14
-0.165
-0.18
-0.18
-0.22
-0.25
-0.28
-0.305
-0.305
-0.32
-0.335
-0.36
-0.36
-0.365
-0.36
-0.355
-0.36
-0.37
-0.38
-0.37
-0.37
-0.36
-0.355
-0.365
-0.365
-0.365
-0.36
-0.35
-0.345
-0.355
-0.355
-0.36
-0.36
-0.345
-0.335
-0.35
-0.36
-0.36
-0.36
-0.345
-0.34
-0.345
-0.345
-0.35
-0.345
-0.335
-0.335
-0.34
-0.34
-0.35
-0.345
-0.33
-0.325
-0.335
-0.335
-0.33
-0.33
-0.31
-0.315
-0.31
-0.345
-0.35
-0.34
-0.34
-0.36
-0.385
-0.4
-0.39
-0.345
-0.265
-0.135
-0.01
0.1
0.23
0.33
0.415
0.5
0.62
0.75
0.88
1.02
1.15
1.27
1.35
1.365
1.365
1.365
1.33
1.215
1.055
0.88
0.705
0.57
0.425
0.275
0.105
-0.095
-0.325
-0.48
-0.62
-0.755
-0.865
-0.945
-0.985
-1.005
-0.99
-0.985
-0.98
-0.985
-0.98
-0.97
-0.93
-0.885
-0.855
-0.825
-0.795
-0.775
-0.74
-0.715
-0.69
-0.685
-0.665
-0.64
-0.615
-0.625
-0.61
-0.61
-0.625
-0.605
-0.61
-0.61
-0.615
-0.63
-0.625
-0.625
-0.615
-0.63
-0.635
-0.655
-0.65
-0.65
-0.64
-0.64
-0.655
-0.675
-0.685
-0.67
-0.67
-0.67
-0.69
-0.69
-0.69
-0.685
-0.675
-0.68
-0.68
-0.68
-0.7
-0.685
-0.67
-0.66
-0.66
-0.655
-0.66
-0.64
-0.625
-0.615
-0.625
-0.615
-0.6
-0.59
-0.565
-0.555
-0.545
-0.54
-0.525
-0.515
-0.485
-0.47
-0.45
-0.45
-0.44
-0.415
-0.39
-0.39
-0.375
-0.36
-0.345
-0.33
-0.31
-0.3
-0.285
-0.275
-0.26
-0.25
-0.24
-0.225
-0.225
-0.22
-0.215
-0.195
-0.185
-0.185
-0.195
-0.185
-0.185
-0.19
-0.17
-0.17
-0.18
-0.18
-0.19
-0.175
-0.17
-0.18
-0.195
-0.21
-0.21
-0.205
-0.195
-0.2
-0.215
-0.22
-0.245
-0.23
-0.225
-0.23
-0.225
-0.23
-0.23
-0.21
-0.205
-0.205
-0.215
-0.215
-0.225
-0.215
-0.21
-0.23
-0.23
-0.235
-0.235
-0.22
-0.19
-0.17
-0.17
-0.18
-0.185
-0.185
-0.165
-0.165
-0.185
-0.2
-0.21
-0.19
-0.18
-0.175
-0.185
-0.18
-0.175
-0.17
-0.17
-0.195
-0.215
-0.25
-0.275
-0.29
-0.295
-0.315
-0.345
-0.375
-0.38
-0.385
-0.375
-0.385
-0.385
-0.395
-0.405
-0.395
-0.38
-0.385
-0.385
-0.39
-0.4
-0.39
-0.39
-0.38
-0.38
-0.395
-0.39
-0.375
-0.365
-0.37
-0.38
-0.385
-0.385
-0.38
-0.365
-0.365
-0.37
-0.375
-0.38
-0.365
-0.365
-0.36
-0.36
-0.365
-0.365
-0.355
-0.345
-0.345
-0.355
-0.355
-0.355
-0.345
-0.34
-0.345
-0.335
-0.35
-0.36
-0.345
-0.35
-0.355
-0.365
-0.395
-0.39
-0.38
-0.345
-0.26
-0.135
-0.005
0.145
0.275
0.375
0.445
0.525
0.64
0.765
0.89
1.025
1.145
1.23
1.265
1.27
1.26
1.255
1.205
1.1
0.93
0.745
0.59
0.46
0.325
0.18
0.01
-0.19
-0.37
-0.515
-0.615
-0.73
-0.835
-0.92
-0.965
-0.98
-0.985
-0.985
-0.995
-0.97
-0.955
-0.955
-0.93
-0.9
-0.865
-0.835
-0.79
-0.745
-0.74
-0.72
-0.71
-0.68
-0.665
-0.63
-0.63
-0.615
-0.61
-0.61
-0.595
-0.58
-0.58
-0.595
-0.61
-0.605
-0.605
-0.605
-0.61
-0.61
-0.625
-0.62
-0.62
-0.625
-0.615
-0.635
-0.635
-0.635
-0.645
-0.63
-0.64
-0.64
-0.65
-0.665
-0.655
-0.645
-0.65
-0.655
-0.675
-0.67
-0.655
-0.645
-0.64
-0.625
-0.645
-0.635
-0.635
-0.61
-0.61
-0.6
-0.595
-0.6
-0.575
-0.56
-0.55
-0.525
-0.525
-0.52
-0.515
-0.49
-0.47
-0.47
-0.475
-0.445
-0.425
-0.395
-0.395
-0.385
-0.37
-0.365
-0.34
-0.305
-0.295
-0.285
-0.275
-0.27
-0.25
-0.23
-0.21
-0.215
-0.205
-0.205
-0.19
-0.17
-0.16
-0.17
-0.16
-0.175
-0.155
-0.155
-0.155
-0.155
-0.15
-0.16
-0.145
-0.145
-0.155
-0.165
-0.18
-0.18
-0.19
-0.18
-0.185
-0.19
-0.195
-0.21
-0.195
-0.175
-0.17
-0.16
-0.175
-0.18
-0.16
-0.15
-0.145
-0.16
-0.195
-0.19
-0.19
-0.17
-0.14
-0.145
-0.13
-0.14
-0.135
-0.125
-0.13
-0.135
-0.145
-0.15
-0.15
-0.145
-0.135
-0.14
-0.15
-0.15
-0.125
-0.125
-0.13
-0.155
-0.185
-0.215
-0.23
-0.245
-0.27
-0.29
-0.33
-0.35
-0.335
-0.34
-0.335
-0.345
-0.355
-0.36
-0.35
-0.34
-0.33
-0.345
-0.36
-0.35
-0.345
-0.32
-0.33
-0.33
-0.33
-0.34
-0.33
-0.33
-0.315
-0.32
-0.325
-0.335
-0.325
-0.315
-0.31
-0.31
-0.315
-0.325
-0.31
-0.305
-0.3
-0.305
-0.32
-0.32
-0.31
-0.295
-0.285
-0.295
-0.295
-0.295
-0.3
-0.285
-0.285
-0.295
-0.31
-0.31
-0.31
-0.32
-0.345
-0.36
-0.35
-0.305
-0.2
-0.08
0.055
0.18
0.28
0.35
0.44
0.55
0.695
0.845
0.97
1.105
1.225
1.28
1.295
1.295
1.27
1.2
1.08
0.93
0.76
0.61
0.48
0.34
0.205
0.04
-0.145
-0.32
-0.46
-0.585
-0.69
-0.795
-0.855
-0.885
-0.915
-0.915
-0.9
-0.885
-0.875
-0.88
-0.865
-0.835
-0.78
-0.74
-0.705
-0.69
-0.685
-0.675
-0.64
-0.61
-0.58
-0.575
-0.57
-0.565
-0.545
-0.535
-0.535
-0.53
-0.54
-0.55
-0.545
-0.545
-0.55
-0.565
-0.565
-0.575
-0.565
-0.565
-0.565
-0.585
-0.59
-0.595
-0.6
-0.59
-0.59
-0.605
-0.61
-0.62
-0.605
-0.6
-0.595
-0.61
-0.61
-0.615
-0.615
-0.605
-0.59
-0.605
-0.605
-0.62
-0.595
-0.58
-0.58
-0.585
-0.565
-0.565
-0.565
-0.545
-0.52
-0.52
-0.505
-0.505
-0.485
-0.46
-0.455
-0.435
-0.425
-0.425
-0.4
-0.38
-0.36
-0.365
-0.35
-0.33
-0.32
-0.295
-0.285
-0.26
-0.265
-0.25
-0.225
-0.205
-0.2
-0.18
-0.19
-0.165
-0.16
-0.13
-0.135
-0.135
-0.125
-0.13
-0.11
-0.11
-0.095
-0.11
-0.125
-0.115
-0.105
-0.095
-0.095
-0.1
-0.11
-0.11
-0.11
-0.115
-0.115
-0.12
-0.14
-0.145
-0.145
-0.15
-0.145
-0.15
-0.165
-0.155
-0.145
-0.125
-0.115
-0.13
-0.15
-0.145
-0.14
-0.125
-0.13
-0.145
-0.15
-0.155
-0.145
-0.125
-0.105
-0.105
-0.105
-0.12
-0.115
-0.105
-0.105
-0.105
-0.11
-0.13
-0.12
-0.115
-0.11
-0.115
-0.105
-0.11
-0.1
-0.115
-0.14
-0.185
-0.215
-0.235
-0.255
-0.27
-0.285
-0.29
-0.31
-0.33
-0.32
-0.315
-0.32
-0.325
-0.335
-0.325
-0.32
-0.31
-0.305
-0.315
-0.315
-0.32
-0.315
-0.3
-0.305
-0.295
-0.3
-0.31
-0.285
-0.3
-0.295
-0.295
-0.305
-0.31
-0.3
-0.295
-0.285
-0.3
-0.3
-0.315
-0.285
-0.28
-0.275
-0.28
-0.28
-0.295
-0.275
-0.26
-0.265
-0.275
-0.275
-0.275
-0.275
-0.27
-0.28
-0.305
-0.33
-0.345
-0.345
-0.335
-0.28
-0.18
-0.055
0.085
0.22
0.34
0.415
0.51
0.645
0.79
0.96
1.105
1.24
1.335
1.375
1.385
1.375
1.36
1.285
1.11
0.93
0.76
0.6
0.475
0.315
0.13
-0.105
-0.31
-0.465
-0.585
-0.7
-0.81
-0.9
-0.935
-0.925
-0.91
-0.9
-0.895
-0.9
-0.9
-0.87
-0.825
-0.785
-0.755
-0.725
-0.72
-0.685
-0.67
-0.64
-0.625
-0.605
-0.585
-0.565
-0.55
-0.54
-0.535
-0.53
-0.545
-0.54
-0.535
-0.54
-0.53
-0.545
-0.555
-0.555
-0.54
-0.535
-0.55
-0.57
-0.57
-0.57
-0.575
-0.57
-0.57
-0.59
-0.59
-0.585
-0.575
-0.585
-0.595
-0.59
-0.6
-0.595
-0.585
-0.585
-0.59
-0.605
-0.595
-0.59
-0.59
-0.575
-0.57
-0.585
-0.585
-0.555
-0.55
-0.55
-0.535
-0.54
-0.535
-0.505
-0.49
-0.475
-0.48
-0.475
-0.46
-0.425
-0.415
-0.405
-0.395
-0.375
-0.38
-0.35
-0.325
-0.305
-0.3
-0.3
-0.295
-0.28
-0.255
-0.23
-0.235
-0.225
-0.215
-0.19
-0.18
-0.16
-0.155
-0.145
-0.14
-0.135
-0.11
-0.1
-0.095
-0.1
-0.1
-0.095
-0.085
-0.07
-0.07
-0.085
-0.08
-0.075
-0.08
-0.075
-0.08
-0.085
-0.105
-0.09
-0.095
-0.095
-0.105
-0.115
-0.125
-0.11
-0.105
-0.11
-0.12
-0.125
-0.12
-0.105
-0.1
-0.095
-0.105
-0.11
-0.12
-0.105
-0.115
-0.125
-0.13
-0.145
-0.135
-0.11
-0.09
-0.075
-0.075
-0.085
-0.1
-0.085
-0.08
-0.08
-0.085
-0.105
-0.115
-0.105
-0.1
-0.085
-0.095
-0.09
-0.085
-0.075
-0.065
-0.08
-0.11
-0.15
-0.18
-0.195
-0.205
-0.24
-0.26
-0.27
-0.295
-0.285
-0.29
-0.295
-0.295
-0.305
-0.31
-0.305
-0.305
-0.3
-0.3
-0.305
-0.315
-0.31
-0.3
-0.28
-0.295
-0.295
-0.3
-0.285
-0.29
-0.28
-0.285
-0.29
-0.3
-0.29
-0.275
-0.28
-0.28
-0.29
-0.29
-0.285
-0.275
-0.27
-0.27
-0.275
-0.28
-0.265
-0.265
-0.265
-0.265
-0.28
-0.265
-0.27
-0.25
-0.245
-0.245
-0.25
-0.25
-0.245
-0.245
-0.25
-0.255
-0.27
-0.3
-0.31
-0.31
-0.305
-0.305
-0.255
-0.145
-0.01
0.11
0.225
0.33
0.395
0.455
0.575
0.71
0.855
0.99
1.125
1.235
1.345
1.405
1.435
1.445
1.42
1.38
1.31
1.16
0.97
0.81
0.655
0.505
0.37
0.235
0.045
-0.16
-0.34
-0.485
-0.585
-0.675
-0.78
-0.86
-0.895
-0.925
-0.905
-0.9
-0.885
-0.885
-0.875
-0.865
-0.825
-0.78
-0.74
-0.71
-0.69
-0.685
-0.67
-0.65
-0.61
-0.595
-0.58
-0.56
-0.54
-0.515
-0.515
-0.51
-0.515
-0.525
-0.52
-0.51
-0.515
-0.52
-0.515
-0.54
-0.535
-0.54
-0.535
-0.54
-0.56
-0.545
-0.545
-0.54
-0.55
-0.56
-0.565
-0.575
-0.565
-0.56
-0.57
-0.58
-0.585
-0.59
-0.595
-0.585
-0.58
-0.59
-0.6
-0.6
-0.585
-0.575
-0.575
-0.58
-0.575
-0.585
-0.565
-0.555
-0.545
-0.54
-0.55
-0.54
-0.53
-0.51
-0.5
-0.495
-0.495
-0.49
-0.47
-0.445
-0.435
-0.43
-0.425
-0.415
-0.405
-0.385
-0.36
-0.355
-0.35
-0.345
-0.32
-0.295
-0.285
-0.275
-0.28
-0.265
-0.23
-0.215
-0.205
-0.195
-0.19
-0.185
-0.16
-0.14
-0.14
-0.125
-0.12
-0.125
-0.12
-0.095
-0.08
-0.085
-0.095
-0.1
-0.08
-0.075
-0.07
-0.07
-0.085
-0.085
-0.085
-0.075
-0.075
-0.09
-0.095
-0.105
-0.11
-0.1
-0.11
-0.105
-0.115
-0.13
-0.125
-0.125
-0.12
-0.12
-0.15
-0.14
-0.135
-0.12
-0.115
-0.11
-0.115
-0.13
-0.12
-0.105
-0.105
-0.115
-0.13
-0.155
-0.15
-0.14
-0.145
-0.135
-0.135
-0.115
-0.1
-0.1
-0.1
-0.115
-0.12
-0.115
-0.095
-0.08
-0.11
-0.095
-0.115
-0.115
-0.105
-0.095
-0.095
-0.095
-0.095
-0.1
-0.095
-0.115
-0.13
-0.16
-0.195
-0.22
-0.24
-0.24
-0.25
-0.27
-0.3
-0.325
-0.31
-0.305
-0.29
-0.3
-0.32
-0.34
-0.325
-0.32
-0.31
-0.325
-0.325
-0.34
-0.32
-0.31
-0.315
-0.31
-0.33
-0.32
-0.32
-0.31
-0.3
-0.31
-0.31
-0.315
-0.3
-0.295
-0.29
-0.295
-0.31
-0.31
-0.285
-0.28
-0.295
-0.3
-0.29
-0.305
-0.3
-0.29
-0.29
-0.295
-0.28
-0.3
-0.285
-0.265
-0.265
-0.27
-0.27
-0.28
-0.27
-0.27
-0.27
-0.275
-0.305
-0.335
-0.34
-0.335
-0.295
-0.22
-0.095
0.035
0.175
0.315
0.425
0.5
0.605
0.75
0.91
1.055
1.185
1.315
1.38
1.41
1.425
1.415
1.4
1.315
1.17
0.97
0.785
0.655
0.51
0.355
0.18
-0.035
-0.235
-0.4
-0.52
-0.66
-0.775
-0.87
-0.925
-0.93
-0.935
-0.945
-0.94
-0.935
-0.925
-0.91
-0.895
-0.87
-0.83
-0.815
-0.75
-0.715
-0.7
-0.68
-0.675
-0.66
-0.625
-0.6
-0.575
-0.575
-0.57
-0.57
-0.56
-0.56
-0.545
-0.555
-0.57
-0.595
-0.585
-0.57
-0.57
-0.58
-0.58
-0.6
-0.585
-0.595
-0.595
-0.6
-0.615
-0.63
-0.615
-0.62
-0.615
-0.61
-0.61
-0.64
-0.63
-0.625
-0.625
-0.62
-0.64
-0.64
-0.64
-0.63
-0.625
-0.62
-0.625
-0.635
-0.615
-0.58
-0.59
-0.595
-0.59
-0.59
-0.57
-0.55
-0.54
-0.53
-0.525
-0.53
-0.5
-0.485
-0.48
-0.465
-0.465
-0.455
-0.43
-0.41
-0.385
-0.38
-0.37
-0.38
-0.35
-0.315
-0.32
-0.3
-0.3
-0.28
-0.265
-0.245
-0.225
-0.215
-0.215
-0.2
-0.19
-0.175
-0.16
-0.155
-0.16
-0.165
-0.145
-0.13
-0.13
-0.125
-0.125
-0.135
-0.12
-0.115
-0.115
-0.12
-0.13
-0.14
-0.12
-0.12
-0.13
-0.135
-0.15
-0.165
-0.16
-0.155
-0.15
-0.155
-0.16
-0.175
-0.165
-0.16
-0.145
-0.16
-0.145
-0.16
-0.15
-0.15
-0.14
-0.14
-0.155
-0.17
-0.17
-0.17
-0.175
-0.18
-0.185
-0.185
-0.16
-0.135
-0.135
-0.14
-0.145
-0.15
-0.145
-0.14
-0.135
-0.125
-0.125
-0.145
-0.14
-0.125
-0.115
-0.115
-0.13
-0.135
-0.125
-0.105
-0.11
-0.135
-0.165
-0.2
-0.21
-0.23
-0.245
-0.265
-0.29
-0.33
-0.32
-0.315
-0.325
-0.325
-0.335
-0.345
-0.335
-0.33
-0.31
-0.33
-0.345
-0.35
-0.34
-0.33
-0.33
-0.335
-0.335
-0.34
-0.33
-0.32
-0.32
-0.33
-0.34
-0.345
-0.325
-0.305
-0.31
-0.32
-0.335
-0.325
-0.32
-0.315
-0.3
-0.305
-0.315
-0.33
-0.33
-0.31
-0.305
-0.3
-0.305
-0.31
-0.295
-0.29
-0.29
-0.295
-0.295
-0.31
-0.295
-0.29
-0.285
-0.295
-0.32
-0.325
-0.335
-0.335
-0.345
-0.325
-0.3
-0.21
-0.085
0.04
0.18
0.295
0.4
0.47
0.565
0.68
0.81
0.925
1.045
1.185
1.31
1.405
1.425
1.43
1.4
1.37
1.295
1.145
0.955
0.77
0.605
0.44
0.285
0.11
-0.095
-0.3
-0.475
-0.63
-0.75
-0.84
-0.93
-0.98
-1.015
-1.015
-1.0
-0.98
-0.96
-0.965
-0.955
-0.94
-0.895
-0.855
-0.815
-0.785
-0.775
-0.765
-0.735
-0.7
-0.655
-0.65
-0.63
-0.625
-0.605
-0.595
-0.585
-0.58
-0.58
-0.595
-0.58
-0.595
-0.59
-0.59
-0.595
-0.61
-0.605
-0.605
-0.595
-0.605
-0.615
-0.625
-0.63
-0.62
-0.625
-0.625
-0.635
-0.64
-0.635
-0.62
-0.625
-0.62
-0.63
-0.64
-0.635
-0.63
-0.63
-0.625
-0.625
-0.625
-0.625
-0.6
-0.6
-0.595
-0.6
-0.6
-0.58
