Lead II
-0.765
-0.755
-0.75
-0.725
-0.7
-0.685
-0.69
-0.66
-0.66
-0.67
-0.67
-0.67
-0.68
-0.67
-0.68
-0.67
-0.665
-0.655
-0.635
-0.65
-0.65
-0.665
-0.68
-0.68
-0.685
-0.695
-0.68
-0.685
-0.695
-0.69
-0.665
-0.67
-0.675
-0.685
-0.695
-0.675
-0.715
-0.715
-0.705
-0.695
-0.71
-0.71
-0.7
-0.715
-0.73
-0.73
-0.735
-0.745
-0.74
-0.755
-0.75
-0.745
-0.735
-0.73
-0.725
-0.725
-0.72
-0.735
-0.74
-0.75
-0.75
-0.75
-0.745
-0.75
-0.735
-0.72
-0.715
-0.715
-0.71
-0.725
-0.72
-0.72
-0.745
-0.75
-0.75
-0.735
-0.73
-0.71
-0.715
-0.705
-0.71
-0.72
-0.725
-0.74
-0.73
-0.74
-0.755
-0.74
-0.74
-0.73
-0.72
-0.69
-0.7
-0.705
-0.71
-0.73
-0.73
-0.725
-0.715
-0.7
-0.685
-0.675
-0.66
-0.625
-0.635
-0.625
-0.625
-0.635
-0.63
-0.635
-0.635
-0.615
-0.58
-0.56
-0.53
-0.505
-0.48
-0.47
-0.47
-0.47
-0.495
-0.53
-0.54
-0.55
-0.555
-0.57
-0.555
-0.54
-0.525
-0.505
-0.48
-0.47
-0.465
-0.47
-0.505
-0.53
-0.57
-0.6
-0.625
-0.655
-0.675
-0.675
-0.685
-0.715
-0.735
-0.745
-0.75
-0.76
-0.755
-0.745
-0.74
-0.73
-0.735
-0.73
-0.74
-0.73
-0.77
-0.77
-0.765
-0.76
-0.755
-0.76
-0.765
-0.765
-0.745
-0.745
-0.74
-0.745
-0.74
-0.75
-0.755
-0.75
-0.75
-0.75
-0.75
-0.755
-0.77
-0.78
-0.795
-0.75
-0.68
-0.55
-0.38
-0.195
-0.03
0.07
0.115
0.08
0.04
0.065
0.155
0.305
0.455
0.56
0.53
0.32
-0.08
-0.56
-1.065
-1.465
-1.73
-1.865
-1.935
-1.97
-2.0
-2.02
-2.055
-2.055
-2.07
-2.04
-2.04
-2.01
-1.99
-2.0
-1.975
-1.945
-1.89
-1.82
-1.71
-1.575
-1.42
-1.255
-1.12
-1.04
-0.96
-0.925
-0.885
-0.875
-0.875
-0.87
-0.85
-0.82
-0.82
-0.8
-0.785
-0.78
-0.765
-0.775
-0.8
-0.8
-0.81
-0.82
-0.8
-0.8
-0.79
-0.79
-0.78
-0.8
-0.795
-0.805
-0.83
-0.855
-0.865
-0.88
-0.895
-0.89
-0.9
-0.885
-0.905
-0.91
-0.915
-0.925
-0.95
-0.955
-0.98
-1.0
-1.0
-1.01
-1.02
-1.025
-1.015
-1.015
-1.03
-1.02
-1.045
-1.05
-1.065
-1.065
-1.065
-1.06
-1.065
-1.07
-1.055
-1.045
-1.035
-1.015
-1.02
-1.015
-1.005
-0.995
-0.975
-0.96
-0.945
-0.93
-0.89
-0.865
-0.85
-0.825
-0.835
-0.83
-0.825
-0.815
-0.805
-0.775
-0.735
-0.72
-0.725
-0.7
-0.7
-0.7
-0.71
-0.705
-0.715
-0.72
-0.71
-0.695
-0.68
-0.67
-0.655
-0.66
-0.65
-0.655
-0.67
-0.67
-0.68
-0.685
-0.71
-0.705
-0.705
-0.705
-0.685
-0.69
-0.71
-0.71
-0.71
-0.715
-0.715
-0.715
-0.73
-0.72
-0.705
-0.69
-0.69
-0.705
-0.7
-0.705
-0.725
-0.73
-0.73
-0.725
-0.725
-0.725
-0.715
-0.715
-0.71
-0.7
-0.71
-0.715
-0.725
-0.72
-0.735
-0.74
-0.73
-0.71
-0.715
-0.71
-0.7
-0.685
-0.67
-0.695
-0.705
-0.7
-0.72
-0.725
-0.72
-0.71
-0.72
-0.71
-0.7
-0.68
-0.69
-0.685
-0.68
-0.685
-0.685
-0.695
-0.71
-0.685
-0.695
-0.695
-0.695
-0.68
-0.675
-0.69
-0.695
-0.69
-0.695
-0.705
-0.705
-0.695
-0.69
-0.685
-0.685
-0.7
-0.67
-0.675
-0.68
-0.675
-0.675
-0.675
-0.67
-0.635
-0.635
-0.615
-0.595
-0.59
-0.565
-0.575
-0.59
-0.585
-0.58
-0.58
-0.565
-0.52
-0.5
-0.455
-0.435
-0.44
-0.455
-0.485
-0.5
-0.545
-0.565
-0.57
-0.565
-0.57
-0.52
-0.5
-0.485
-0.465
-0.46
-0.48
-0.505
-0.55
-0.595
-0.635
-0.65
-0.68
-0.67
-0.675
-0.675
-0.7
-0.715
-0.715
-0.735
-0.735
-0.745
-0.75
-0.76
-0.75
-0.755
-0.745
-0.74
-0.725
-0.745
-0.745
-0.75
-0.775
-0.78
-0.785
-0.785
-0.77
-0.74
-0.745
-0.74
-0.74
-0.73
-0.74
-0.74
-0.755
-0.745
-0.755
-0.77
-0.765
-0.76
-0.765
-0.755
-0.775
-0.77
-0.75
-0.72
-0.64
-0.545
-0.39
-0.215
-0.06
0.07
0.12
0.1
0.055
0.035
0.08
0.19
0.36
0.54
0.635
0.615
0.43
0.06
-0.44
-0.93
-1.37
-1.675
-1.835
-1.91
-1.96
-1.975
-2.0
-2.04
-2.07
-2.08
-2.07
-2.075
-2.045
-2.035
-2.025
-1.99
-1.975
-1.95
-1.88
-1.815
-1.65
-1.49
-1.305
-1.14
-1.015
-0.93
-0.865
-0.845
-0.845
-0.845
-0.85
-0.83
-0.815
-0.805
-0.785
-0.765
-0.77
-0.765
-0.765
-0.76
-0.775
-0.795
-0.805
-0.815
-0.81
-0.795
-0.8
-0.785
-0.785
-0.8
-0.815
-0.83
-0.85
-0.86
-0.875
-0.9
-0.9
-0.895
-0.885
-0.885
-0.89
-0.9
-0.925
-0.94
-0.965
-0.985
-0.985
-1.0
-1.005
-1.01
-1.03
-1.015
-0.985
-0.985
-1.01
-1.01
-1.025
-1.035
-1.04
-1.045
-1.045
-1.045
-1.04
-1.02
-1.0
-1.0
-0.985
-1.01
-1.005
-0.97
-0.975
-0.965
-0.955
-0.945
-0.915
-0.895
-0.88
-0.845
-0.84
-0.825
-0.805
-0.82
-0.795
-0.765
-0.755
-0.75
-0.715
-0.71
-0.695
-0.69
-0.71
-0.715
-0.71
-0.695
-0.68
-0.68
-0.67
-0.66
-0.65
-0.65
-0.63
-0.655
-0.67
-0.665
-0.68
-0.68
-0.69
-0.7
-0.69
-0.7
-0.69
-0.68
-0.685
-0.655
-0.67
-0.7
-0.71
-0.715
-0.715
-0.725
-0.745
-0.735
-0.725
-0.705
-0.715
-0.715
-0.725
-0.73
-0.74
-0.73
-0.745
-0.74
-0.735
-0.725
-0.725
-0.72
-0.71
-0.725
-0.72
-0.715
-0.72
-0.725
-0.715
-0.71
-0.71
-0.705
-0.7
-0.705
-0.71
-0.71
-0.72
-0.715
-0.72
-0.715
-0.725
-0.72
-0.71
-0.705
-0.7
-0.68
-0.675
-0.67
-0.68
-0.695
-0.7
-0.7
-0.705
-0.71
-0.705
-0.7
-0.685
-0.68
-0.68
-0.67
-0.69
-0.69
-0.71
-0.715
-0.705
-0.72
-0.71
-0.715
-0.705
-0.68
-0.665
-0.68
-0.675
-0.69
-0.68
-0.685
-0.685
-0.695
-0.68
-0.645
-0.635
-0.635
-0.63
-0.615
-0.61
-0.615
-0.615
-0.615
-0.59
-0.57
-0.55
-0.515
-0.47
-0.445
-0.425
-0.46
-0.475
-0.52
-0.55
-0.57
-0.585
-0.59
-0.585
-0.55
-0.505
-0.49
-0.465
-0.445
-0.47
-0.5
-0.535
-0.575
-0.62
-0.655
-0.675
-0.69
-0.67
-0.67
-0.68
-0.695
-0.71
-0.725
-0.73
-0.735
-0.765
-0.76
-0.77
-0.76
-0.76
-0.745
-0.735
-0.73
-0.73
-0.73
-0.735
-0.735
-0.75
-0.76
-0.755
-0.745
-0.745
-0.735
-0.73
-0.72
-0.73
-0.725
-0.725
-0.74
-0.745
-0.76
-0.77
-0.77
-0.775
-0.75
-0.69
-0.61
-0.49
-0.325
-0.16
0.015
0.115
0.135
0.12
0.085
0.095
0.18
0.31
0.485
0.595
0.57
0.355
-0.05
-0.54
-1.055
-1.465
-1.7
-1.82
-1.845
-1.85
-1.875
-1.89
-1.915
-1.945
-1.96
-1.985
-1.99
-1.985
-1.95
-1.925
-1.87
-1.815
-1.74
-1.62
-1.495
-1.34
-1.195
-1.075
-0.995
-0.935
-0.88
-0.87
-0.85
-0.84
-0.835
-0.83
-0.835
-0.835
-0.805
-0.81
-0.815
-0.81
-0.81
-0.785
-0.78
-0.775
-0.78
-0.78
-0.79
-0.8
-0.805
-0.805
-0.835
-0.835
-0.825
-0.825
-0.82
-0.83
-0.85
-0.86
-0.865
-0.89
-0.905
-0.925
-0.94
-0.945
-0.95
-0.945
-0.96
-0.955
-0.98
-0.99
-1.0
-1.01
-1.025
-1.045
-1.055
-1.07
-1.055
-1.055
-1.04
-1.025
-1.03
-1.04
-1.03
-1.055
-1.06
-1.065
-1.055
-1.05
-1.045
-1.035
-1.005
-0.98
-0.975
-0.955
-0.94
-0.93
-0.91
-0.9
-0.875
-0.855
-0.83
-0.81
-0.78
-0.77
-0.745
-0.755
-0.755
-0.725
-0.725
-0.725
-0.705
-0.71
-0.7
-0.69
-0.675
-0.65
-0.655
-0.66
-0.66
-0.68
-0.685
-0.69
-0.67
-0.655
-0.645
-0.63
-0.625
-0.62
-0.625
-0.64
-0.64
-0.67
-0.67
-0.68
-0.68
-0.68
-0.675
-0.665
-0.65
-0.65
-0.66
-0.665
-0.675
-0.69
-0.68
-0.695
-0.71
-0.7
-0.7
-0.68
-0.68
-0.675
-0.665
-0.675
-0.67
-0.675
-0.68
-0.685
-0.69
-0.7
-0.69
-0.685
-0.675
-0.675
-0.685
-0.68
-0.675
-0.67
-0.675
-0.675
-0.67
-0.675
-0.675
-0.665
-0.685
-0.655
-0.66
-0.67
-0.68
-0.68
-0.69
-0.69
-0.69
-0.695
-0.69
-0.66
-0.65
-0.645
-0.64
-0.665
-0.65
-0.67
-0.665
-0.67
-0.685
-0.685
-0.68
-0.67
-0.665
-0.655
-0.64
-0.645
-0.65
-0.645
-0.66
-0.66
-0.655
-0.655
-0.64
-0.625
-0.615
-0.59
-0.575
-0.565
-0.565
-0.57
-0.58
-0.56
-0.555
-0.535
-0.505
-0.465
-0.44
-0.4
-0.4
-0.42
-0.43
-0.455
-0.485
-0.52
-0.525
-0.55
-0.535
-0.52
-0.495
-0.445
-0.43
-0.44
-0.445
-0.465
-0.52
-0.56
-0.61
-0.64
-0.65
-0.65
-0.65
-0.64
-0.66
-0.67
-0.69
-0.695
-0.715
-0.715
-0.74
-0.73
-0.735
-0.71
-0.695
-0.685
-0.7
-0.7
-0.71
-0.72
-0.735
-0.745
-0.75
-0.76
-0.75
-0.745
-0.73
-0.725
-0.73
-0.715
-0.72
-0.72
-0.715
-0.73
-0.73
-0.74
-0.735
-0.73
-0.73
-0.73
-0.75
-0.735
-0.685
-0.575
-0.435
-0.265
-0.105
0.025
0.075
0.065
0.06
0.08
0.16
0.32
0.505
0.625
0.605
0.41
0.005
-0.525
-1.04
-1.445
-1.71
-1.835
-1.89
-1.915
-1.925
-1.94
-1.965
-1.975
-1.98
-1.96
-1.96
-1.925
-1.9
-1.86
-1.805
-1.73
-1.63
-1.495
-1.35
-1.205
-1.085
-0.995
-0.92
-0.86
-0.86
-0.835
-0.81
-0.805
-0.785
-0.775
-0.795
-0.785
-0.775
-0.78
-0.77
-0.785
-0.765
-0.755
-0.76
-0.77
-0.775
-0.78
-0.8
-0.82
-0.81
-0.805
-0.8
-0.81
-0.81
-0.825
-0.82
-0.83
-0.85
-0.87
-0.88
-0.89
-0.895
-0.895
-0.91
-0.91
-0.925
-0.92
-0.95
-0.97
-0.98
-0.985
-1.02
-1.005
-1.02
-1.035
-1.03
-1.025
-1.025
-1.01
-1.015
-1.025
-1.02
-1.03
-1.03
-1.04
-1.04
-1.055
-1.025
-1.02
-1.005
-0.995
-0.97
-0.945
-0.94
-0.92
-0.905
-0.915
-0.9
-0.865
-0.85
-0.835
-0.81
-0.785
-0.775
-0.78
-0.78
-0.765
-0.76
-0.75
-0.74
-0.725
-0.725
-0.71
-0.69
-0.685
-0.68
-0.68
-0.675
-0.68
-0.685
-0.685
-0.685
-0.695
-0.69
-0.685
-0.67
-0.68
-0.68
-0.685
-0.69
-0.7
-0.705
-0.72
-0.725
-0.715
-0.71
-0.705
-0.69
-0.685
-0.69
-0.7
-0.695
-0.71
-0.73
-0.73
-0.73
-0.735
-0.725
-0.72
-0.715
-0.705
-0.71
-0.725
-0.73
-0.735
-0.745
-0.75
-0.755
-0.76
-0.755
-0.75
-0.75
-0.74
-0.715
-0.715
-0.725
-0.73
-0.725
-0.75
-0.745
-0.755
-0.76
-0.735
-0.725
-0.715
-0.73
-0.725
-0.735
-0.725
-0.745
-0.745
-0.755
-0.745
-0.745
-0.725
-0.725
-0.705
-0.705
-0.705
-0.72
-0.72
-0.74
-0.735
-0.74
-0.73
-0.72
-0.71
-0.7
-0.695
-0.705
-0.705
-0.7
-0.72
-0.715
-0.725
-0.745
-0.725
-0.725
-0.725
-0.69
-0.67
-0.66
-0.645
-0.65
-0.65
-0.64
-0.645
-0.665
-0.635
-0.635
-0.62
-0.595
-0.57
-0.535
-0.5
-0.475
-0.48
-0.515
-0.525
-0.57
-0.595
-0.595
-0.61
-0.585
-0.57
-0.55
-0.53
-0.515
-0.51
-0.515
-0.535
-0.565
-0.61
-0.63
-0.655
-0.675
-0.69
-0.7
-0.715
-0.73
-0.755
-0.78
-0.79
-0.795
-0.805
-0.805
-0.79
-0.795
-0.78
-0.77
-0.765
-0.81
-0.79
-0.8
-0.82
-0.825
-0.815
-0.82
-0.785
-0.795
-0.78
-0.775
-0.775
-0.78
-0.805
-0.8
-0.82
-0.835
-0.83
-0.83
-0.815
-0.8
-0.795
-0.8
-0.8
-0.82
-0.83
-0.83
-0.82
-0.765
-0.66
-0.525
-0.365
-0.2
-0.08
-0.005
-0.015
-0.065
-0.105
-0.095
0.0
0.17
0.355
0.505
0.575
0.44
0.1
-0.38
-0.91
-1.38
-1.71
-1.895
-1.975
-2.0
-2.0
-2.01
-2.03
-2.055
-2.05
-2.065
-2.05
-2.04
-2.04
-2.04
-2.05
-2.03
-1.975
-1.925
-1.825
-1.715
-1.575
-1.43
-1.3
-1.17
-1.085
-1.02
-0.985
-0.96
-0.955
-0.93
-0.91
-0.9
-0.87
-0.87
-0.86
-0.845
-0.85
-0.865
-0.885
-0.875
-0.88
-0.855
-0.835
-0.855
-0.835
-0.835
-0.86
-0.855
-0.885
-0.89
-0.9
-0.915
-0.93
-0.915
-0.915
-0.925
-0.925
-0.955
-0.96
-0.965
-0.98
-1.0
-1.02
-1.03
-1.04
-1.045
-1.055
-1.05
-1.055
-1.05
-1.07
-1.08
-1.105
-1.105
-1.115
-1.12
-1.125
-1.13
-1.14
-1.11
-1.11
-1.105
-1.095
-1.115
-1.095
-1.1
-1.105
-1.095
-1.095
-1.075
-1.05
-1.035
-1.015
-1.01
-0.985
-0.99
-0.965
-0.95
-0.935
-0.915
-0.9
-0.885
-0.855
-0.85
-0.825
-0.82
-0.815
-0.825
-0.825
-0.82
-0.82
-0.81
-0.79
-0.77
-0.775
-0.77
-0.745
-0.755
-0.745
-0.75
-0.755
-0.765
-0.78
-0.785
-0.785
-0.79
-0.775
-0.775
-0.75
-0.755
-0.755
-0.75
-0.765
-0.77
-0.785
-0.795
-0.795
-0.79
-0.795
-0.79
-0.8
-0.8
-0.8
-0.795
-0.8
-0.795
-0.825
-0.835
-0.84
-0.82
-0.815
-0.81
-0.815
-0.8
-0.81
-0.81
-0.815
-0.815
-0.82
-0.815
-0.815
-0.8
-0.805
-0.81
-0.79
-0.78
-0.78
-0.78
-0.8
-0.81
-0.805
-0.82
-0.805
-0.8
-0.785
-0.77
-0.765
-0.765
-0.76
-0.775
-0.77
-0.775
-0.78
-0.79
-0.8
-0.81
-0.775
-0.78
-0.765
-0.745
-0.755
-0.76
-0.77
-0.77
-0.79
-0.79
-0.78
-0.79
-0.785
-0.785
-0.765
-0.755
-0.765
-0.76
-0.78
-0.78
-0.78
-0.765
-0.75
-0.74
-0.73
-0.715
-0.695
-0.685
-0.665
-0.67
-0.665
-0.67
-0.665
-0.65
-0.625
-0.605
-0.565
-0.525
-0.5
-0.515
-0.525
-0.555
-0.585
-0.64
-0.66
-0.665
-0.665
-0.645
-0.605
-0.57
-0.535
-0.525
-0.535
-0.575
-0.62
-0.67
-0.725
-0.74
-0.755
-0.765
-0.775
-0.775
-0.78
-0.805
-0.81
-0.805
-0.81
-0.825
-0.83
-0.84
-0.85
-0.835
-0.835
-0.825
-0.82
-0.84
-0.835
-0.82
-0.825
-0.83
-0.85
-0.85
-0.87
-0.84
-0.835
-0.825
-0.82
-0.83
-0.825
-0.84
-0.835
-0.85
-0.85
-0.85
-0.85
-0.855
-0.83
-0.84
-0.81
-0.78
-0.705
-0.57
-0.4
-0.25
-0.085
0.01
0.04
0.03
0.005
0.03
0.09
0.25
0.39
0.475
0.415
0.18
-0.255
-0.78
-1.285
-1.685
-1.95
-2.045
-2.08
-2.07
-2.075
-2.08
-2.11
-2.12
-2.15
-2.16
-2.145
-2.13
-2.1
-2.055
-2.025
-1.965
-1.91
-1.84
-1.725
-1.59
-1.445
-1.295
-1.19
-1.12
-1.06
-1.01
-0.99
-0.975
-0.96
-0.955
-0.945
-0.925
-0.93
-0.925
-0.92
-0.915
-0.925
-0.925
-0.935
-0.92
-0.925
-0.925
-0.935
-0.945
-0.945
-0.945
-0.95
-0.94
-0.955
-0.965
-0.985
-1.0
-1.005
-1.005
-1.025
-1.02
-1.045
-1.08
-1.1
-1.11
-1.115
-1.115
-1.095
-1.1
-1.105
-1.13
-1.14
-1.16
-1.17
-1.18
-1.2
-1.205
-1.185
-1.19
-1.19
-1.195
-1.185
-1.205
-1.195
-1.205
-1.22
-1.235
-1.23
-1.225
-1.2
-1.19
-1.185
-1.175
-1.155
-1.15
-1.135
-1.11
-1.115
-1.105
-1.09
-1.05
-1.03
-1.015
-0.995
-0.98
-0.96
-0.945
-0.93
-0.925
-0.92
-0.91
-0.9
-0.88
-0.865
-0.855
-0.855
-0.845
-0.835
-0.835
-0.83
-0.835
-0.85
-0.87
-0.85
-0.83
-0.825
-0.82
-0.82
-0.82
-0.815
-0.8
-0.825
-0.825
-0.825
-0.825
-0.845
-0.835
-0.825
-0.82
-0.805
-0.805
-0.81
-0.82
-0.83
-0.845
-0.86
-0.87
-0.865
-0.86
-0.855
-0.855
-0.855
-0.83
-0.82
-0.835
-0.84
-0.84
-0.85
-0.865
-0.86
-0.865
-0.87
-0.85
-0.855
-0.85
-0.84
-0.85
-0.865
-0.845
-0.855
-0.87
-0.86
-0.86
-0.845
-0.835
-0.845
-0.83
-0.825
-0.815
-0.83
-0.845
-0.87
-0.87
-0.85
-0.855
-0.845
-0.83
-0.82
-0.825
-0.805
-0.8
-0.81
-0.82
-0.825
-0.83
-0.845
-0.855
-0.83
-0.81
-0.81
-0.805
-0.805
-0.8
-0.81
-0.815
-0.82
-0.825
-0.83
-0.815
-0.815
-0.795
-0.805
-0.785
-0.78
-0.775
-0.775
-0.78
-0.79
-0.775
-0.775
-0.755
-0.74
-0.72
-0.715
-0.705
-0.695
-0.695
-0.7
-0.69
-0.66
-0.645
-0.62
-0.605
-0.61
-0.63
-0.63
-0.64
-0.655
-0.685
-0.69
-0.68
-0.69
-0.665
-0.635
-0.61
-0.61
-0.61
-0.625
-0.65
-0.67
-0.71
-0.74
-0.76
-0.79
-0.8
-0.825
-0.83
-0.85
-0.835
-0.85
-0.86
-0.845
-0.855
-0.865
-0.87
-0.87
-0.875
-0.895
-0.885
-0.885
-0.875
-0.875
-0.87
-0.87
-0.88
-0.87
-0.88
-0.885
-0.9
-0.895
-0.895
-0.885
-0.885
-0.865
-0.86
-0.865
-0.88
-0.88
-0.87
-0.895
-0.91
-0.925
-0.93
-0.91
-0.885
-0.815
-0.705
-0.575
-0.385
-0.24
-0.1
-0.05
-0.06
-0.115
-0.13
-0.1
0.005
0.165
0.335
0.47
0.505
0.34
-0.005
-0.465
-0.97
-1.385
-1.685
-1.83
-1.92
-1.94
-1.97
-1.995
-2.035
-2.075
-2.1
-2.115
-2.115
-2.115
-2.105
-2.09
-2.045
-2.005
-1.935
-1.845
-1.74
-1.6
-1.46
-1.345
-1.23
-1.14
-1.075
-1.04
-1.01
-0.985
-0.99
-0.985
-0.99
-0.965
-0.96
-0.965
-0.955
-0.955
-0.945
-0.94
-0.94
-0.935
-0.945
-0.955
-0.945
-0.96
-0.98
-0.995
-0.99
-0.99
-0.99
-0.975
-0.985
-0.985
-1.0
-1.01
-1.025
-1.03
-1.055
-1.07
-1.085
-1.105
-1.115
-1.105
-1.13
-1.13
-1.14
-1.15
-1.14
-1.155
-1.16
-1.175
-1.185
-1.2
-1.205
-1.205
-1.21
-1.205
-1.205
-1.2
-1.205
-1.21
-1.21
-1.215
-1.22
-1.215
-1.23
-1.21
-1.2
-1.185
-1.15
-1.155
-1.145
-1.145
-1.135
-1.14
-1.13
-1.105
-1.09
-1.05
-1.03
-1.02
-1.02
-1.0
-0.965
-0.965
-0.945
-0.945
-0.95
-0.935
-0.935
-0.915
-0.9
-0.875
-0.855
-0.855
-0.85
-0.845
-0.84
-0.86
-0.84
-0.85
-0.84
-0.84
-0.825
-0.825
-0.825
-0.84
-0.86
-0.84
-0.85
-0.86
-0.855
-0.85
-0.865
-0.855
-0.84
-0.84
-0.84
-0.865
-0.835
-0.845
-0.865
-0.88
-0.885
-0.885
-0.855
-0.86
-0.85
-0.85
-0.845
-0.85
-0.87
-0.89
-0.88
-0.89
-0.895
-0.905
-0.91
-0.91
-0.895
-0.87
-0.87
-0.87
-0.87
-0.875
-0.89
-0.9
-0.905
-0.905
-0.905
-0.895
-0.895
-0.89
-0.875
-0.865
-0.86
-0.865
-0.875
-0.88
-0.885
-0.89
-0.885
-0.88
-0.87
-0.87
-0.865
-0.875
-0.875
-0.86
-0.88
-0.87
-0.885
-0.87
-0.87
-0.88
-0.86
-0.855
-0.845
-0.845
-0.855
-0.865
-0.88
-0.87
-0.885
-0.88
-0.87
-0.86
-0.84
-0.825
-0.815
-0.805
-0.8
-0.805
-0.805
-0.805
-0.795
-0.775
-0.775
-0.77
-0.76
-0.75
-0.725
-0.7
-0.67
-0.65
-0.635
-0.62
-0.62
-0.65
-0.65
-0.68
-0.685
-0.69
-0.71
-0.715
-0.72
-0.715
-0.705
-0.665
-0.65
-0.64
-0.625
-0.64
-0.645
-0.68
-0.7
-0.745
-0.79
-0.82
-0.84
-0.86
-0.87
-0.875
-0.89
-0.88
-0.885
-0.88
-0.885
-0.895
-0.895
-0.895
-0.92
-0.925
-0.92
-0.93
-0.925
-0.905
-0.915
-0.91
-0.9
-0.91
-0.92
-0.91
-0.92
-0.915
-0.95
-0.945
-0.935
-0.93
-0.92
-0.92
-0.91
-0.905
-0.905
-0.915
-0.925
-0.93
-0.935
-0.96
-0.965
-0.93
-0.89
-0.8
-0.665
-0.505
-0.355
-0.22
-0.135
-0.125
-0.16
-0.19
-0.175
-0.065
0.105
0.32
0.465
0.47
0.265
-0.13
-0.66
-1.2
-1.62
-1.905
-2.03
-2.05
-2.055
-2.07
-2.08
-2.125
-2.135
-2.16
-2.16
-2.16
-2.145
-2.16
-2.135
-2.095
-2.045
-1.985
-1.905
-1.815
-1.675
-1.535
-1.39
-1.28
-1.195
-1.135
-1.095
-1.05
-1.01
-0.995
-0.97
-0.97
-0.955
-0.945
-0.955
-0.95
-0.965
-0.98
-0.96
-0.955
-0.945
-0.945
-0.925
-0.93
-0.945
-0.955
-0.955
-0.97
-0.985
-0.99
-0.995
-0.985
-0.98
-0.995
-0.985
-0.995
-1.025
-1.02
-1.03
-1.045
-1.065
-1.07
-1.09
-1.08
-1.08
-1.085
-1.09
-1.095
-1.12
-1.135
-1.16
-1.16
-1.17
-1.19
-1.195
-1.2
-1.19
-1.185
-1.18
-1.19
-1.19
-1.195
-1.195
-1.21
-1.22
-1.225
-1.21
-1.195
-1.185
-1.17
-1.16
-1.15
-1.145
-1.125
-1.105
-1.085
-1.095
-1.075
-1.055
-1.04
-1.0
-0.985
-0.96
-0.95
-0.94
-0.935
-0.95
-0.94
-0.95
-0.935
-0.92
-0.9
-0.86
-0.855
-0.835
-0.83
-0.835
-0.825
-0.85
-0.835
-0.84
-0.83
-0.84
-0.83
-0.825
-0.815
-0.805
-0.805
-0.8
-0.8
-0.805
-0.825
-0.825
-0.855
-0.83
-0.825
-0.815
-0.82
-0.815
-0.825
-0.835
-0.83
-0.84
-0.855
-0.86
-0.85
-0.85
-0.84
-0.84
-0.845
-0.835
-0.835
-0.855
-0.87
-0.88
-0.885
-0.885
-0.865
-0.875
-0.875
-0.855
-0.845
-0.83
-0.84
-0.87
-0.87
-0.875
-0.89
-0.88
-0.885
-0.865
-0.855
-0.865
-0.85
-0.825
-0.83
-0.835
-0.835
-0.84
-0.85
-0.87
-0.855
-0.865
-0.855
-0.85
-0.835
-0.825
-0.825
-0.835
-0.825
-0.835
-0.84
-0.84
-0.845
-0.84
-0.85
-0.835
-0.83
-0.835
-0.83
-0.83
-0.82
-0.83
-0.84
-0.835
-0.83
-0.815
-0.81
-0.81
-0.8
-0.795
-0.785
-0.8
-0.81
-0.795
-0.785
-0.765
-0.775
-0.765
-0.735
-0.72
-0.71
-0.695
-0.7
-0.685
-0.685
-0.675
-0.635
-0.625
-0.62
-0.615
-0.59
-0.595
-0.605
-0.625
-0.645
-0.665
-0.68
-0.685
-0.66
-0.65
-0.635
-0.61
-0.63
-0.63
-0.655
-0.69
-0.72
-0.75
-0.795
-0.805
-0.83
-0.855
-0.875
-0.875
-0.885
-0.885
-0.885
-0.875
-0.865
-0.865
-0.865
-0.875
-0.9
-0.89
-0.88
-0.9
-0.895
-0.87
-0.88
-0.865
-0.875
-0.875
-0.88
-0.89
-0.9
-0.91
-0.91
-0.915
-0.895
-0.885
-0.87
-0.865
-0.86
-0.86
-0.87
-0.895
-0.905
-0.925
-0.91
-0.895
-0.84
-0.725
-0.58
-0.405
-0.26
-0.155
-0.085
-0.1
-0.165
-0.2
-0.165
-0.05
0.14
0.34
0.475
0.485
0.275
-0.135
-0.675
-1.21
-1.64
-1.9
-2.06
-2.12
-2.125
-2.11
-2.1
-2.105
-2.095
-2.1
-2.105
-2.11
-2.105
-2.1
-2.065
-2.04
-1.975
-1.875
-1.755
-1.605
-1.46
-1.32
-1.23
-1.15
-1.11
-1.055
-1.03
-1.015
-1.005
-0.99
-0.97
-0.94
-0.93
-0.92
-0.915
-0.93
-0.94
-0.945
-0.96
-0.945
-0.94
-0.935
-0.925
-0.905
-0.915
-0.92
-0.94
-0.925
-0.975
-0.975
-1.0
-0.99
-0.995
-1.015
-1.0
-1.0
-0.995
-1.01
-1.03
-1.04
-1.055
-1.07
-1.085
-1.105
-1.105
-1.11
-1.12
-1.115
-1.125
-1.135
-1.135
-1.15
-1.165
-1.185
-1.18
-1.195
-1.195
-1.185
-1.185
-1.17
-1.18
-1.19
-1.185
-1.2
-1.195
-1.19
-1.175
-1.165
-1.145
-1.13
-1.105
-1.09
-1.075
-1.065
-1.035
-1.06
-1.03
-1.03
-1.005
-0.995
-0.97
-0.955
-0.935
-0.895
-0.89
-0.89
-0.865
-0.87
-0.865
-0.86
-0.865
-0.865
-0.845
-0.835
-0.82
-0.8
-0.8
-0.795
-0.795
-0.8
-0.805
-0.805
-0.82
-0.815
-0.8
-0.795
-0.815
-0.79
-0.805
-0.81
-0.815
-0.83
-0.835
-0.835
-0.82
-0.825
-0.815
-0.82
-0.84
-0.805
-0.815
-0.815
-0.835
-0.845
-0.86
-0.86
-0.86
-0.86
-0.855
-0.845
-0.845
-0.825
-0.825
-0.83
-0.83
-0.845
-0.86
-0.86
-0.86
-0.87
-0.845
-0.83
-0.825
-0.8
-0.8
-0.815
-0.825
-0.84
-0.845
-0.855
-0.85
-0.84
-0.84
-0.845
-0.825
-0.8
-0.79
-0.795
-0.8
-0.825
-0.83
-0.83
-0.845
-0.83
-0.83
-0.81
-0.81
-0.8
-0.795
-0.795
-0.8
-0.81
-0.805
-0.825
-0.82
-0.82
-0.815
-0.805
-0.8
-0.79
-0.805
-0.79
-0.8
-0.83
-0.815
-0.815
-0.825
-0.795
-0.82
-0.795
-0.76
-0.74
-0.73
-0.73
-0.715
-0.71
-0.71
-0.72
-0.72
-0.715
-0.68
-0.66
-0.62
-0.57
-0.555
-0.55
-0.565
-0.58
-0.61
-0.63
-0.66
-0.68
-0.7
-0.695
-0.65
-0.625
-0.605
-0.565
-0.555
-0.58
-0.585
-0.605
-0.64
-0.69
-0.715
-0.75
-0.76
-0.77
-0.78
-0.805
-0.815
-0.835
-0.85
-0.845
-0.845
-0.865
-0.86
-0.85
-0.85
-0.855
-0.845
-0.86
-0.86
-0.87
-0.865
-0.875
-0.88
-0.875
-0.875
-0.855
-0.85
-0.845
-0.84
-0.84
-0.86
-0.865
-0.885
-0.89
-0.885
-0.865
-0.86
-0.84
-0.835
-0.835
-0.84
-0.875
-0.875
-0.87
-0.83
-0.73
-0.605
-0.435
-0.265
-0.15
-0.065
-0.065
-0.085
-0.095
-0.03
0.105
0.285
0.44
0.49
0.36
0.04
-0.43
-0.945
-1.395
-1.71
-1.885
-1.96
-1.99
-2.015
-2.025
-2.05
-2.08
-2.105
-2.1
-2.085
-2.08
-2.07
-2.045
-2.03
-2.01
-1.945
-1.9
-1.815
-1.69
-1.55
-1.41
-1.275
-1.18
-1.095
-1.045
-1.01
-0.985
-0.99
-1.015
-0.99
-0.98
-0.96
-0.92
-0.91
-0.885
-0.87
-0.87
-0.875
-0.875
-0.88
-0.895
-0.895
-0.915
-0.9
-0.91
-0.915
-0.91
-0.9
-0.91
-0.93
-0.94
-0.95
-0.975
-0.985
-0.985
-0.995
-0.99
-1.0
-1.01
-1.02
-1.025
-1.035
-1.05
-1.065
-1.065
-1.09
-1.105
-1.105
-1.1
-1.11
-1.11
-1.12
-1.14
-1.155
-1.16
-1.16
-1.165
-1.175
-1.16
-1.16
-1.14
-1.14
-1.13
-1.125
-1.11
-1.125
-1.145
-1.14
-1.125
-1.11
-1.11
-1.09
-1.09
-1.045
-1.015
-0.995
-0.97
-0.96
-0.945
-0.925
-0.92
-0.91
-0.91
-0.9
-0.87
-0.855
-0.83
-0.825
-0.81
-0.82
-0.81
-0.81
-0.805
-0.805
-0.825
-0.8
-0.79
-0.775
-0.765
-0.77
-0.76
-0.765
-0.78
-0.775
-0.785
-0.785
-0.785
-0.775
-0.775
-0.77
-0.775
-0.765
-0.79
-0.79
-0.785
-0.795
-0.79
-0.805
-0.805
-0.8
-0.78
-0.77
-0.77
-0.77
-0.785
-0.8
-0.815
-0.825
-0.845
-0.845
-0.84
-0.82
-0.805
-0.79
-0.785
-0.775
-0.77
-0.785
-0.8
-0.805
-0.81
-0.815
-0.8
-0.805
-0.805
-0.79
-0.775
-0.79
-0.77
-0.77
-0.78
-0.785
-0.8
-0.795
-0.79
-0.81
-0.78
-0.775
-0.765
-0.75
-0.755
-0.76
-0.77
-0.78
-0.78
-0.78
-0.775
-0.785
-0.79
-0.775
-0.775
-0.755
-0.76
-0.765
-0.765
-0.785
-0.78
-0.785
-0.79
-0.775
-0.775
-0.765
-0.755
-0.745
-0.74
-0.73
-0.74
-0.75
-0.76
-0.755
-0.755
-0.76
-0.73
-0.72
-0.705
-0.68
-0.675
-0.68
-0.68
-0.68
-0.69
-0.685
-0.67
-0.665
-0.64
-0.615
-0.6
-0.56
-0.54
-0.535
-0.55
-0.565
-0.585
-0.6
-0.635
-0.635
-0.655
-0.61
-0.575
-0.55
-0.535
-0.53
-0.545
-0.555
-0.6
-0.635
-0.645
-0.675
-0.705
-0.71
-0.705
-0.725
-0.745
-0.765
-0.785
-0.805
-0.785
-0.805
-0.805
-0.79
-0.785
-0.78
-0.78
-0.78
-0.805
-0.785
-0.81
-0.82
-0.84
-0.83
-0.83
-0.815
-0.795
-0.795
-0.79
-0.795
-0.785
-0.795
-0.8
-0.81
-0.805
-0.81
-0.815
-0.795
-0.8
-0.795
-0.805
-0.785
-0.8
-0.805
-0.805
-0.81
-0.785
-0.72
-0.605
-0.445
-0.265
-0.1
0.035
0.12
0.1
0.06
0.015
0.02
0.09
0.215
0.365
0.48
0.495
0.335
-0.03
-0.49
-0.985
-1.42
-1.705
-1.865
-1.925
-1.945
-1.945
-1.95
-1.955
-1.95
-1.975
-1.975
-1.975
-1.975
-1.97
-1.96
-1.955
-1.935
-1.885
-1.8
-1.69
-1.555
-1.39
-1.26
-1.135
-1.05
-0.98
-0.95
-0.94
-0.94
-0.93
-0.92
-0.895
-0.89
-0.86
-0.855
-0.845
-0.86
-0.85
-0.86
-0.86
-0.87
-0.86
-0.855
-0.845
-0.855
-0.85
-0.86
-0.87
-0.88
-0.885
-0.9
-0.925
-0.925
-0.935
-0.94
-0.925
-0.93
-0.935
-0.945
-0.95
-0.965
-1.0
-1.01
-1.02
-1.045
-1.065
-1.05
-1.045
-1.04
-1.055
-1.075
-1.075
-1.08
-1.095
-1.11
-1.135
-1.12
-1.13
-1.135
-1.125
-1.12
-1.12
-1.105
-1.105
-1.105
-1.095
-1.095
-1.1
-1.095
-1.085
-1.08
-1.07
-1.045
-1.025
-1.0
-0.99
-0.975
-0.975
-0.96
-0.94
-0.945
-0.92
-0.895
-0.885
-0.86
-0.845
-0.825
-0.825
-0.815
-0.825
-0.83
-0.82
-0.8
-0.8
-0.78
-0.75
-0.74
-0.735
-0.74
-0.74
-0.73
-0.72
-0.74
-0.73
-0.755
-0.76
-0.76
-0.73
-0.73
-0.72
-0.72
-0.72
-0.71
-0.72
-0.73
-0.735
-0.74
-0.745
-0.75
-0.73
-0.73
-0.725
-0.73
-0.735
-0.745
-0.765
-0.75
-0.76
-0.77
-0.78
-0.775
-0.765
-0.765
-0.75
-0.745
-0.75
-0.75
-0.76
-0.765
-0.78
-0.775
-0.785
-0.785
-0.755
-0.75
-0.74
-0.74
-0.74
-0.73
-0.745
-0.75
-0.75
-0.76
-0.76
-0.76
-0.755
-0.745
-0.735
-0.72
-0.725
-0.735
-0.72
-0.73
-0.755
-0.77
-0.765
-0.765
-0.76
-0.745
-0.75
-0.735
-0.73
-0.735
-0.74
-0.74
-0.745
-0.745
-0.745
-0.74
-0.74
-0.725
-0.72
-0.725
-0.725
-0.725
-0.725
-0.72
-0.735
-0.735
-0.735
-0.745
-0.73
-0.715
-0.705
-0.705
-0.67
-0.67
-0.665
-0.665
-0.665
-0.665
-0.655
-0.64
-0.615
-0.61
-0.585
-0.56
-0.54
-0.52
-0.505
-0.525
-0.5
-0.54
-0.56
-0.56
-0.585
-0.595
-0.595
-0.595
-0.575
-0.565
-0.55
-0.54
-0.53
-0.53
-0.54
-0.545
-0.575
-0.605
-0.63
-0.65
-0.665
-0.685
-0.705
-0.715
-0.735
-0.755
-0.77
-0.77
-0.78
-0.775
-0.785
-0.785
-0.77
-0.775
-0.785
-0.795
-0.8
-0.8
-0.805
-0.79
-0.795
-0.79
-0.79
-0.78
-0.795
-0.805
-0.805
-0.83
-0.84
-0.84
-0.825
-0.81
-0.81
-0.785
-0.765
-0.765
-0.765
-0.795
-0.815
-0.835
-0.855
-0.835
-0.81
-0.745
-0.63
-0.47
-0.32
-0.15
-0.04
0.01
-0.01
-0.055
-0.09
-0.06
0.05
0.245
0.44
0.57
0.585
0.415
0.045
-0.415
