Lead II
-0.59
-0.62
-0.66
-0.695
-0.72
-0.76
-0.775
-0.805
-0.83
-0.865
-0.89
-0.94
-0.96
-0.985
-0.995
-0.995
-1.005
-1.015
-1.02
-1.025
-1.035
-1.025
-1.035
-1.035
-1.035
-1.08
-1.08
-1.08
-1.08
-1.08
-1.075
-1.08
-1.07
-1.06
-1.065
-1.075
-1.075
-1.085
-1.085
-1.085
-1.07
-1.055
-1.06
-1.04
-1.04
-1.035
-1.04
-1.025
-1.03
-1.035
-1.05
-1.055
-1.05
-1.035
-1.025
-1.0
-1.005
-1.0
-1.005
-1.005
-1.015
-1.02
-1.025
-1.035
-1.03
-1.02
-1.01
-1.02
-1.01
-1.015
-1.005
-1.015
-1.03
-1.035
-1.035
-1.045
-1.05
-1.05
-1.04
-1.03
-1.025
-1.03
-1.025
-1.04
-1.05
-1.05
-1.06
-1.065
-1.055
-1.06
-1.045
-1.04
-1.055
-1.04
-1.05
-1.07
-1.06
-1.075
-1.065
-1.07
-1.075
-1.05
-1.07
-1.055
-1.06
-1.06
-1.065
-1.07
-1.08
-1.075
-1.095
-1.1
-1.065
-1.07
-1.065
-1.06
-1.055
-1.05
-1.05
-1.06
-1.06
-1.06
-1.07
-1.075
-1.075
-1.045
-1.05
-1.035
-1.035
-1.02
-1.0
-0.975
-0.965
-0.965
-0.955
-0.95
-0.935
-0.915
-0.885
-0.855
-0.83
-0.8
-0.765
-0.73
-0.72
-0.715
-0.725
-0.765
-0.775
-0.77
-0.755
-0.74
-0.725
-0.745
-0.765
-0.815
-0.865
-0.925
-0.97
-1.02
-1.055
-1.06
-1.07
-1.07
-1.055
-1.045
-1.04
-1.055
-1.065
-1.085
-1.095
-1.1
-1.095
-1.09
-1.075
-1.06
-1.05
-1.05
-1.06
-1.07
-1.065
-1.09
-1.095
-1.09
-1.105
-1.095
-1.085
-1.055
-1.055
-1.05
-1.04
-1.06
-1.06
-1.095
-1.115
-1.15
-1.135
-1.11
-1.025
-0.875
-0.67
-0.415
-0.1
0.29
0.665
0.965
1.16
1.225
1.215
1.085
0.84
0.45
-0.045
-0.565
-0.97
-1.19
-1.21
-1.095
-0.955
-0.84
-0.8
-0.8
-0.85
-0.915
-0.965
-1.005
-1.015
-1.03
-1.03
-1.035
-1.04
-1.045
-1.05
-1.06
-1.06
-1.045
-1.05
-1.03
-1.04
-1.045
-1.07
-1.08
-1.085
-1.075
-1.085
-1.08
-1.06
-1.07
-1.06
-1.05
-1.055
-1.055
-1.06
-1.06
-1.065
-1.075
-1.07
-1.07
-1.055
-1.04
-1.035
-1.02
-1.01
-1.03
-1.02
-1.025
-1.03
-1.03
-1.025
-1.02
-1.025
-1.005
-0.98
-0.98
-0.97
-0.97
-0.975
-0.98
-0.985
-0.98
-0.955
-0.945
-0.94
-0.92
-0.91
-0.905
-0.89
-0.875
-0.895
-0.885
-0.88
-0.865
-0.88
-0.845
-0.825
-0.79
-0.76
-0.74
-0.72
-0.705
-0.68
-0.67
-0.66
-0.645
-0.645
-0.595
-0.57
-0.53
-0.52
-0.49
-0.475
-0.455
-0.455
-0.445
-0.425
-0.42
-0.405
-0.4
-0.38
-0.34
-0.33
-0.335
-0.335
-0.35
-0.37
-0.405
-0.435
-0.455
-0.485
-0.535
-0.54
-0.57
-0.59
-0.625
-0.655
-0.675
-0.745
-0.77
-0.8
-0.835
-0.845
-0.86
-0.865
-0.87
-0.88
-0.905
-0.91
-0.92
-0.95
-0.965
-0.975
-0.985
-0.985
-1.005
-0.985
-0.975
-0.97
-0.97
-0.98
-0.985
-0.995
-0.99
-0.985
-0.99
-0.99
-0.995
-0.985
-0.985
-0.97
-0.965
-0.97
-0.965
-0.975
-0.985
-0.995
-0.98
-0.995
-0.975
-0.975
-0.97
-0.95
-0.93
-0.925
-0.92
-0.92
-0.92
-0.93
-0.92
-0.935
-0.93
-0.925
-0.92
-0.905
-0.905
-0.905
-0.885
-0.875
-0.825
-0.74
-0.64
-0.495
-0.345
-0.165
0.01
0.21
0.405
0.625
0.85
1.07
1.27
1.47
1.645
1.78
1.88
1.94
1.965
1.97
1.965
1.915
1.855
1.78
1.7
1.635
1.635
1.625
1.65
1.655
1.655
1.595
1.515
1.375
1.21
1.015
0.75
0.45
0.095
-0.305
-0.69
-0.955
-1.09
-1.155
-1.12
-1.105
-1.095
-1.13
-1.175
-1.225
-1.285
-1.305
-1.34
-1.35
-1.355
-1.345
-1.36
-1.37
-1.405
-1.405
-1.445
-1.47
-1.485
-1.505
-1.5
-1.505
-1.51
-1.51
-1.515
-1.54
-1.55
-1.565
-1.595
-1.61
-1.65
-1.66
-1.655
-1.65
-1.665
-1.675
-1.675
-1.685
-1.69
-1.695
-1.71
-1.71
-1.725
-1.745
-1.765
-1.74
-1.77
-1.74
-1.725
-1.705
-1.71
-1.72
-1.735
-1.78
-1.825
-1.86
-1.9
-1.93
-1.935
-1.955
-1.985
-2.045
-2.1
-2.175
-2.245
-2.305
-2.36
-2.39
-2.41
-2.44
-2.435
-2.445
-2.435
-2.455
-2.44
-2.425
-2.41
-2.415
-2.38
-2.35
-2.325
-2.245
-2.2
-2.14
-2.06
-2.0
-1.935
-1.89
-1.84
-1.78
-1.72
-1.66
-1.59
-1.525
-1.47
-1.415
-1.37
-1.345
-1.315
-1.3
-1.29
-1.28
-1.275
-1.285
-1.28
-1.27
-1.265
-1.22
-1.225
-1.22
-1.225
-1.225
-1.225
-1.23
-1.255
-1.24
-1.23
-1.22
-1.215
-1.205
-1.195
-1.195
-1.2
-1.21
-1.22
-1.21
-1.22
-1.205
-1.205
-1.205
-1.195
-1.185
-1.165
-1.17
-1.175
-1.165
-1.175
-1.18
-1.175
-1.19
-1.195
-1.185
-1.165
-1.13
-1.13
-1.15
-1.15
-1.145
-1.15
-1.155
-1.145
-1.15
-1.15
-1.125
-1.11
-1.12
-1.1
-1.11
-1.11
-1.11
-1.12
-1.125
-1.13
-1.135
-1.145
-1.135
-1.13
-1.13
-1.12
-1.11
-1.1
-1.11
-1.115
-1.13
-1.13
-1.145
-1.14
-1.12
-1.11
-1.11
-1.09
-1.105
-1.105
-1.105
-1.12
-1.135
-1.13
-1.14
-1.12
-1.11
-1.095
-1.095
-1.075
-1.09
-1.09
-1.1
-1.105
-1.11
-1.105
-1.11
-1.11
-1.095
-1.075
-1.065
-1.055
-1.06
-1.065
-1.08
-1.085
-1.1
-1.095
-1.11
-1.1
-1.095
-1.075
-1.08
-1.065
-1.075
-1.075
-1.08
-1.095
-1.095
-1.11
-1.09
-1.095
-1.095
-1.085
-1.065
-1.05
-1.04
-1.065
-1.065
-1.08
-1.08
-1.08
-1.09
-1.085
-1.08
-1.065
-1.07
-1.05
-1.045
-1.05
-1.08
-1.085
-1.1
-1.095
-1.08
-1.085
-1.095
-1.06
-1.065
-1.04
-1.065
-1.06
-1.07
-1.06
-1.07
-1.075
-1.085
-1.085
-1.055
-1.06
-1.055
-1.05
-1.05
-1.055
-1.06
-1.095
-1.1
-1.085
-1.095
-1.09
-1.095
-1.075
-1.045
-1.035
-1.04
-1.05
-1.05
-1.055
-1.055
-1.06
-1.06
-1.06
-1.045
-1.05
-1.04
-1.03
-1.035
-1.05
-1.045
-1.065
-1.075
-1.06
-1.07
-1.075
-1.04
-1.035
-1.05
-1.03
-1.04
-1.04
-1.055
-1.065
-1.07
-1.06
-1.065
-1.045
-1.025
-1.02
-1.015
-1.005
-1.035
-1.025
-1.02
-1.03
-1.035
-1.04
-1.055
-1.045
-1.03
-1.015
-1.015
-1.005
-1.02
-1.04
-1.03
-1.05
-1.055
-1.025
-1.04
-1.035
-1.03
-1.025
-1.025
-1.0
-1.025
-1.015
-1.025
-1.02
-1.02
-1.04
-1.04
-1.045
-1.045
-1.01
-1.01
-1.0
-1.005
-1.01
-1.005
-1.015
-1.01
-1.015
-1.02
-1.04
-1.035
-1.025
-1.005
-1.005
-0.99
-0.995
-1.0
-1.01
-1.02
-1.025
-1.03
-1.03
-1.02
-1.01
-1.0
-0.985
-0.995
-0.995
-0.99
-1.015
-1.01
-1.01
-1.02
-1.03
-1.01
-0.985
-0.98
-0.975
-0.98
-0.98
-0.99
-0.985
-1.01
-0.995
-1.01
-0.985
-0.96
-0.925
-0.9
-0.845
-0.835
-0.83
-0.82
-0.82
-0.8
-0.775
-0.74
-0.69
-0.65
-0.625
-0.615
-0.615
-0.635
-0.635
-0.64
-0.645
-0.665
-0.68
-0.735
-0.79
-0.835
-0.89
-0.93
-0.95
-0.97
-0.99
-1.01
-1.01
-1.025
-1.015
-1.02
-1.025
-1.02
-1.015
-1.01
-0.995
-1.015
-1.005
-1.005
-1.025
-1.025
-1.03
-1.035
-1.05
-1.02
-1.03
-1.025
-1.055
-1.06
-1.03
-0.96
-0.84
-0.62
-0.3
0.07
0.485
0.86
1.14
1.26
1.24
1.015
0.605
0.02
-0.57
-1.02
-1.205
-1.185
-1.055
-0.9
-0.8
-0.765
-0.795
-0.86
-0.93
-0.975
-1.02
-1.03
-1.035
-1.02
-1.02
-1.03
-1.015
-1.025
-1.015
-1.02
-1.025
-1.03
-1.025
-1.04
-1.05
-1.045
-1.055
-1.06
-1.05
-1.045
-1.03
-1.04
-1.05
-1.04
-1.055
-1.06
-1.095
-1.06
-1.06
-1.045
-1.045
-1.03
-1.02
-1.03
-1.035
-1.04
-1.055
-1.055
-1.05
-1.05
-1.04
-1.03
-1.035
-1.005
-0.985
-1.01
-0.995
-0.995
-0.995
-0.995
-0.98
-0.975
-0.965
-0.95
-0.915
-0.915
-0.89
-0.875
-0.875
-0.88
-0.855
-0.835
-0.84
-0.815
-0.795
-0.775
-0.765
-0.72
-0.71
-0.695
-0.695
-0.665
-0.645
-0.645
-0.625
-0.6
-0.6
-0.565
-0.545
-0.53
-0.51
-0.515
-0.505
-0.485
-0.49
-0.485
-0.47
-0.485
-0.475
-0.455
-0.445
-0.455
-0.445
-0.465
-0.49
-0.505
-0.555
-0.575
-0.605
-0.64
-0.655
-0.675
-0.675
-0.7
-0.705
-0.745
-0.77
-0.805
-0.83
-0.855
-0.88
-0.9
-0.9
-0.895
-0.89
-0.875
-0.885
-0.915
-0.915
-0.915
-0.95
-0.95
-0.945
-0.96
-0.945
-0.945
-0.93
-0.925
-0.93
-0.94
-0.94
-0.94
-0.94
-0.935
-0.945
-0.95
-0.965
-0.955
-0.92
-0.91
-0.895
-0.905
-0.9
-0.915
-0.915
-0.925
-0.925
-0.925
-0.92
-0.905
-0.895
-0.9
-0.89
-0.885
-0.895
-0.925
-0.935
-0.91
-0.925
-0.92
-0.925
-0.92
-0.905
-0.91
-0.915
-0.935
-0.935
-0.93
-0.94
-0.94
-0.935
-0.94
-0.94
-0.945
-0.94
-0.945
-0.935
-0.945
-0.955
-0.965
-0.98
-0.975
-0.97
-0.99
-0.995
-0.99
-0.985
-0.98
-0.98
-0.97
-0.975
-0.975
-1.0
-1.0
-1.015
-1.025
-1.03
-1.02
-1.02
-0.99
-0.99
-1.0
-1.015
-1.015
-1.04
-1.035
-1.035
-1.025
-1.045
-1.03
-1.01
-1.01
-1.0
-1.025
-1.035
-1.035
-1.045
-1.045
-1.03
-1.04
-1.05
-1.045
-1.045
-1.03
-1.03
-1.025
-1.03
-1.03
-1.035
-1.04
-1.03
-1.035
-1.03
-1.035
-1.025
-1.0
-0.985
-0.95
-0.95
-0.925
-0.925
-0.92
-0.9
-0.9
-0.9
-0.87
-0.845
-0.805
-0.77
-0.73
-0.69
-0.68
-0.685
-0.7
-0.72
-0.74
-0.75
-0.735
-0.73
-0.72
-0.725
-0.75
-0.775
-0.83
-0.89
-0.94
-0.975
-1.025
-1.05
-1.05
-1.04
-1.035
-1.04
-1.035
-1.03
-1.055
-1.06
-1.075
-1.09
-1.095
-1.08
-1.07
-1.06
-1.06
-1.055
-1.04
-1.02
-1.04
-1.065
-1.07
-1.075
-1.075
-1.055
-1.055
-1.035
-1.045
-1.05
-1.05
-1.08
-1.1
-1.075
-0.995
-0.885
-0.685
-0.415
-0.05
0.325
0.695
1.015
1.19
1.265
1.275
1.135
0.855
0.415
-0.145
-0.675
-1.065
-1.22
-1.18
-1.015
-0.865
-0.77
-0.745
-0.8
-0.87
-0.935
-0.985
-1.02
-1.03
-1.02
-1.0
-1.0
-0.995
-1.01
-1.01
-1.015
-1.02
-1.045
-1.04
-1.02
-1.02
-1.015
-1.015
-1.0
-1.0
-1.01
-1.005
-1.005
-1.005
-1.01
-1.015
-1.005
-0.995
-0.985
-0.985
-0.96
-0.97
-0.97
-0.98
-0.99
-0.995
-0.995
-0.995
-0.99
-0.98
-0.985
-0.965
-0.94
-0.945
-0.935
-0.95
-0.955
-0.95
-0.945
-0.945
-0.93
-0.945
-0.925
-0.9
-0.88
-0.88
-0.855
-0.85
-0.85
-0.855
-0.83
-0.83
-0.825
-0.81
-0.78
-0.765
-0.75
-0.725
-0.715
-0.71
-0.695
-0.69
-0.65
-0.64
-0.61
-0.59
-0.545
-0.545
-0.495
-0.495
-0.48
-0.475
-0.46
-0.45
-0.42
-0.415
-0.385
-0.38
-0.355
-0.34
-0.33
-0.33
-0.325
-0.345
-0.37
-0.39
-0.415
-0.435
-0.46
-0.485
-0.51
-0.53
-0.555
-0.595
-0.64
-0.675
-0.71
-0.745
-0.775
-0.815
-0.825
-0.835
-0.86
-0.855
-0.85
-0.87
-0.885
-0.895
-0.91
-0.92
-0.93
-0.945
-0.945
-0.94
-0.935
-0.925
-0.925
-0.925
-0.935
-0.935
-0.94
-0.94
-0.96
-0.96
-0.95
-0.95
-0.95
-0.93
-0.9
-0.905
-0.905
-0.9
-0.91
-0.905
-0.91
-0.895
-0.91
-0.89
-0.88
-0.87
-0.865
-0.85
-0.84
-0.845
-0.83
-0.77
-0.705
-0.585
-0.445
-0.27
-0.085
0.105
0.31
0.515
0.74
0.97
1.205
1.42
1.615
1.77
1.905
2.0
2.065
2.09
2.095
2.095
2.065
1.99
1.9
1.8
1.74
1.7
1.7
1.695
1.73
1.72
1.7
1.63
1.515
1.38
1.22
1.025
0.785
0.455
0.085
-0.31
-0.675
-0.915
-1.055
-1.085
-1.05
-1.02
-1.02
-1.05
-1.09
-1.155
-1.2
-1.24
-1.26
-1.28
-1.295
-1.305
-1.315
-1.34
-1.355
-1.365
-1.395
-1.42
-1.425
-1.425
-1.425
-1.43
-1.435
-1.45
-1.455
-1.495
-1.505
-1.525
-1.55
-1.565
-1.58
-1.585
-1.585
-1.59
-1.595
-1.605
-1.615
-1.665
-1.69
-1.7
-1.73
-1.765
-1.755
-1.78
-1.8
-1.805
-1.825
-1.84
-1.865
-1.895
-1.925
-1.945
-1.95
-1.965
-1.975
-1.985
-2.01
-2.015
-2.02
-2.025
-2.04
-2.03
-2.04
-2.035
-2.035
-2.015
-2.04
-2.07
-2.09
-2.075
-2.09
-2.095
-2.075
-2.08
-2.11
-2.14
-2.16
-2.16
-2.175
-2.145
-2.125
-2.055
-2.015
-1.955
-1.91
-1.85
-1.81
-1.75
-1.71
-1.655
-1.61
-1.555
-1.49
-1.44
-1.385
-1.335
-1.305
-1.275
-1.25
-1.235
-1.225
-1.235
-1.225
-1.195
-1.175
-1.165
-1.155
-1.165
-1.16
-1.155
-1.165
-1.19
-1.185
-1.19
-1.185
-1.18
-1.17
-1.165
-1.15
-1.13
-1.155
-1.155
-1.165
-1.165
-1.165
-1.155
-1.15
-1.155
-1.115
-1.105
-1.105
-1.105
-1.115
-1.11
-1.12
-1.105
-1.125
-1.11
-1.105
-1.115
-1.1
-1.075
-1.06
-1.055
-1.07
-1.065
-1.08
-1.095
-1.095
-1.07
-1.075
-1.07
-1.06
-1.05
-1.05
-1.055
-1.055
-1.05
-1.065
-1.075
-1.08
-1.05
-1.055
-1.055
-1.04
-1.03
-1.025
-1.015
-1.035
-1.02
-1.04
-1.04
-1.035
-1.045
-1.045
-1.03
-1.035
-1.03
-1.005
-1.01
-1.005
-1.01
-1.03
-1.04
-1.045
-1.045
-1.045
-1.03
-1.02
-1.015
-1.02
-1.005
-0.99
-1.005
-0.995
-1.005
-1.02
-1.01
-1.02
-1.025
-1.015
-1.005
-0.995
-0.985
-0.985
-1.0
-1.0
-1.02
-1.01
-1.01
-1.0
-1.005
-0.995
-0.98
-0.985
-0.985
-1.0
-1.0
-1.0
-0.995
-1.005
-0.995
-0.995
-0.985
-0.99
-0.99
-0.975
-0.945
-0.96
-0.965
-0.98
-0.97
-0.985
-0.99
-0.995
-0.995
-0.985
-0.975
-0.97
-0.96
-0.965
-0.955
-0.965
-0.975
-0.975
-0.975
-0.975
-0.97
-0.97
-0.945
-0.94
-0.925
-0.935
-0.95
-0.96
-0.975
-0.97
-0.97
-0.96
-0.965
-0.94
-0.94
-0.93
-0.93
-0.92
-0.93
-0.94
-0.94
-0.945
-0.95
-0.95
-0.94
-0.945
-0.92
-0.915
-0.91
-0.925
-0.92
-0.925
-0.93
-0.93
-0.92
-0.925
-0.935
-0.93
-0.92
-0.895
-0.9
-0.885
-0.905
-0.915
-0.91
-0.915
-0.92
-0.92
-0.92
-0.92
-0.905
-0.89
-0.895
-0.885
-0.91
-0.905
-0.91
-0.925
-0.91
-0.915
-0.915
-0.92
-0.9
-0.89
-0.87
-0.875
-0.88
-0.88
-0.885
-0.905
-0.89
-0.895
-0.89
-0.88
-0.885
-0.88
-0.875
-0.875
-0.875
-0.88
-0.885
-0.9
-0.895
-0.895
-0.885
-0.865
-0.86
-0.86
-0.85
-0.84
-0.855
-0.865
-0.87
-0.88
-0.885
-0.88
-0.88
-0.875
-0.86
-0.87
-0.86
-0.86
-0.86
-0.855
-0.865
-0.88
-0.88
-0.87
-0.86
-0.86
-0.85
-0.835
-0.85
-0.85
-0.85
-0.855
-0.865
-0.87
-0.88
-0.87
-0.865
-0.86
-0.835
-0.825
-0.82
-0.84
-0.845
-0.87
-0.875
-0.885
-0.88
-0.865
-0.865
-0.855
-0.87
-0.84
-0.84
-0.835
-0.845
-0.845
-0.835
-0.82
-0.83
-0.805
-0.77
-0.745
-0.73
-0.715
-0.695
-0.67
-0.65
-0.63
-0.6
-0.57
-0.53
-0.505
-0.5
-0.505
-0.505
-0.505
-0.51
-0.5
-0.51
-0.54
-0.59
-0.655
-0.71
-0.765
-0.815
-0.855
-0.875
-0.885
-0.89
-0.875
-0.88
-0.88
-0.89
-0.91
-0.905
-0.91
-0.9
-0.915
-0.91
-0.89
-0.895
-0.88
-0.9
-0.895
-0.9
-0.92
-0.94
-0.95
-0.97
-0.97
-0.96
-0.895
-0.785
-0.615
-0.405
-0.12
0.22
0.585
0.92
1.145
1.265
1.295
1.21
1.01
0.675
0.195
-0.33
-0.775
-1.025
-1.06
-0.955
-0.81
-0.69
-0.635
-0.65
-0.69
-0.77
-0.835
-0.88
-0.905
-0.905
-0.91
-0.905
-0.905
-0.91
-0.915
-0.91
-0.9
-0.89
-0.905
-0.915
-0.925
-0.95
-0.935
-0.95
-0.96
-0.955
-0.95
-0.945
-0.94
-0.945
-0.95
-0.945
-0.96
-0.945
-0.965
-0.96
-0.95
-0.96
-0.96
-0.95
-0.945
-0.975
-0.97
-0.955
-0.955
-0.97
-0.96
-0.96
-0.955
-0.945
-0.935
-0.93
-0.92
-0.92
-0.925
-0.915
-0.93
-0.94
-0.945
-0.93
-0.925
-0.92
-0.9
-0.885
-0.87
-0.87
-0.86
-0.87
-0.89
-0.885
-0.875
-0.865
-0.835
-0.82
-0.81
-0.785
-0.77
-0.75
-0.745
-0.74
-0.75
-0.75
-0.72
-0.695
-0.665
-0.655
-0.635
-0.63
-0.59
-0.57
-0.55
-0.535
-0.535
-0.53
-0.52
-0.525
-0.515
-0.515
-0.48
-0.465
-0.44
-0.415
-0.405
-0.395
-0.41
-0.41
-0.415
-0.43
-0.44
-0.43
-0.435
-0.445
-0.45
-0.485
-0.48
-0.52
-0.555
-0.565
-0.605
-0.625
-0.655
-0.675
-0.675
-0.685
-0.695
-0.71
-0.73
-0.765
-0.775
-0.78
-0.795
-0.815
-0.815
-0.82
-0.835
-0.84
-0.835
-0.83
-0.825
-0.83
-0.845
-0.855
-0.87
-0.88
-0.88
-0.885
-0.875
-0.875
-0.84
-0.845
-0.85
-0.845
-0.855
-0.87
-0.875
-0.875
-0.855
-0.85
-0.85
-0.83
-0.81
-0.81
-0.8
-0.82
-0.835
-0.85
-0.845
-0.855
-0.845
-0.835
-0.805
-0.825
-0.805
-0.8
-0.815
-0.83
-0.84
-0.84
-0.855
-0.845
-0.85
-0.835
-0.825
-0.82
-0.815
-0.805
-0.835
-0.84
-0.83
-0.845
-0.85
-0.855
-0.855
-0.875
-0.87
-0.885
-0.84
-0.865
-0.875
-0.86
-0.88
-0.895
-0.9
-0.895
-0.895
-0.88
-0.875
-0.885
-0.88
-0.875
-0.895
-0.895
-0.905
-0.91
-0.935
-0.945
-0.93
-0.915
-0.895
-0.895
-0.9
-0.895
-0.905
-0.915
-0.93
-0.925
-0.925
-0.935
-0.94
-0.93
-0.925
-0.91
-0.91
-0.92
-0.91
-0.92
-0.93
-0.945
-0.935
-0.955
-0.93
-0.925
-0.925
-0.92
-0.905
-0.89
-0.91
-0.895
-0.885
-0.885
-0.87
-0.87
-0.845
-0.825
-0.81
-0.785
-0.78
-0.75
-0.725
-0.7
-0.675
-0.655
-0.61
-0.595
-0.595
-0.605
-0.6
-0.62
-0.615
-0.62
-0.62
-0.65
-0.67
-0.71
-0.76
-0.82
-0.86
-0.905
-0.92
-0.945
-0.94
-0.94
-0.95
-0.95
-0.965
-0.965
-0.98
-0.985
-0.98
-0.99
-0.985
-0.995
-0.985
-0.965
-0.97
-0.98
-0.98
-0.99
-0.985
-0.975
-0.99
-0.975
-0.965
-0.95
-0.945
-0.94
-0.96
-0.99
-1.015
-1.03
-0.995
-0.945
-0.825
-0.64
-0.385
-0.05
0.335
0.715
1.04
1.235
1.31
1.245
1.04
0.635
0.055
-0.545
-0.99
-1.185
-1.155
-1.0
-0.865
-0.76
-0.74
-0.76
-0.83
-0.895
-0.97
-0.995
-0.975
-0.96
-0.955
-0.94
-0.93
-0.94
-0.95
-0.955
-0.99
-0.985
-0.995
-0.99
-0.975
-0.975
-0.96
-0.96
-0.97
-0.965
-0.98
-0.98
-0.99
-0.985
-0.975
-0.98
-0.98
-0.97
-0.965
-0.955
-0.965
-0.975
-0.98
-0.99
-0.995
-0.99
-0.985
-0.97
-0.95
-0.955
-0.945
-0.94
-0.935
-0.95
-0.95
-0.94
-0.94
-0.935
-0.95
-0.94
-0.915
-0.895
-0.87
-0.875
-0.85
-0.85
-0.835
-0.835
-0.84
-0.835
-0.82
-0.805
-0.78
-0.76
-0.73
-0.705
-0.69
-0.68
-0.67
-0.66
-0.645
-0.625
-0.61
-0.595
-0.565
-0.55
-0.515
-0.505
-0.47
-0.47
-0.465
-0.455
-0.455
-0.435
-0.415
-0.41
-0.4
-0.37
-0.355
-0.36
-0.35
-0.365
-0.38
-0.39
-0.395
-0.42
-0.435
-0.46
-0.48
-0.505
-0.52
-0.54
-0.585
-0.625
-0.655
-0.7
-0.74
-0.76
-0.775
-0.8
-0.8
-0.825
-0.83
-0.86
-0.855
-0.88
-0.89
-0.905
-0.93
-0.945
-0.95
-0.945
-0.945
-0.945
-0.94
-0.935
-0.945
-0.945
-0.945
-0.95
-0.96
-0.96
-0.975
-0.975
-0.95
-0.95
-0.935
-0.94
-0.935
-0.93
-0.92
-0.925
-0.935
-0.945
-0.95
-0.94
-0.92
-0.895
-0.885
-0.895
-0.885
-0.905
-0.895
-0.885
-0.895
-0.9
-0.92
-0.9
-0.895
-0.89
-0.89
-0.87
-0.88
-0.875
-0.895
-0.89
-0.91
-0.9
-0.9
-0.895
-0.895
-0.9
-0.895
-0.89
-0.885
-0.885
-0.905
-0.905
-0.92
-0.92
-0.94
-0.93
-0.915
-0.915
-0.9
-0.905
-0.905
-0.915
-0.93
-0.955
-0.955
-0.985
-0.955
-0.965
-0.96
-0.93
-0.935
-0.925
-0.935
-0.93
-0.945
-0.95
-0.96
-0.97
-0.97
-0.975
-0.965
-0.95
-0.935
-0.935
-0.945
-0.945
-0.95
-0.97
-0.975
-0.975
-0.98
-0.97
-0.965
-0.95
-0.955
-0.94
-0.955
-0.965
-0.96
-0.98
-0.98
-0.99
-0.975
-0.965
-0.96
-0.955
-0.94
-0.935
-0.93
-0.935
-0.925
-0.915
-0.9
-0.885
-0.86
-0.845
-0.83
-0.82
-0.795
-0.77
-0.75
-0.72
-0.7
-0.665
-0.635
-0.635
-0.63
-0.635
-0.64
-0.655
-0.655
-0.635
-0.65
-0.67
-0.69
-0.715
-0.77
-0.82
-0.865
-0.91
-0.95
-0.95
-0.97
-0.955
-0.97
-0.965
-0.98
-0.98
-1.015
-1.01
-1.025
-1.01
-1.01
-1.0
-1.0
-0.985
-0.99
-1.0
-1.005
-1.015
-1.025
-1.03
-1.02
-1.01
-1.0
-0.985
-0.98
-0.97
-0.98
-1.0
-1.025
-1.055
-1.06
-1.02
-0.94
-0.765
-0.525
-0.225
0.16
0.585
0.95
1.205
1.345
1.36
1.255
1.0
0.6
0.07
-0.47
-0.91
-1.125
-1.12
-0.995
-0.855
-0.75
-0.735
-0.8
-0.835
-0.89
-0.945
-0.965
-0.985
-0.97
-0.96
-0.98
-0.98
-0.975
-0.98
-0.98
-0.99
-0.995
-1.005
-0.995
-0.985
-0.98
-0.98
-0.99
-0.985
-1.0
-1.005
-1.02
-1.015
-1.015
-1.03
-1.0
-1.02
-1.005
-0.985
-0.99
-1.0
-1.01
-1.015
-1.025
-1.005
-1.04
-1.03
-1.01
-0.995
-0.98
-0.97
-0.965
-0.97
-0.97
-0.985
-0.985
-1.0
-0.97
-0.96
-0.95
-0.95
-0.92
-0.905
-0.905
-0.905
-0.895
-0.89
-0.88
-0.875
-0.87
-0.845
-0.835
-0.81
-0.78
-0.76
-0.75
-0.75
-0.73
-0.72
-0.71
-0.71
-0.66
-0.645
-0.605
-0.585
-0.56
-0.525
-0.505
-0.49
-0.475
-0.47
-0.455
-0.445
-0.43
-0.405
-0.38
-0.35
-0.335
-0.34
-0.335
-0.32
-0.335
-0.34
-0.36
-0.37
-0.395
-0.41
-0.435
-0.45
-0.48
-0.485
-0.535
-0.595
-0.615
-0.66
-0.705
-0.755
-0.765
-0.8
-0.82
-0.84
-0.825
-0.84
-0.865
-0.885
-0.89
-0.895
-0.91
-0.925
-0.935
-0.945
-0.94
-0.935
-0.935
-0.93
-0.935
-0.95
-0.95
-0.965
-0.96
-0.965
-0.965
-0.97
-0.965
-0.955
-0.945
-0.955
-0.94
-0.95
-0.97
-0.965
-0.96
-0.955
-0.955
-0.95
-0.94
-0.935
-0.935
-0.92
-0.9
-0.895
-0.905
-0.92
-0.915
-0.915
-0.915
-0.91
-0.895
-0.895
-0.885
-0.865
-0.87
-0.865
-0.885
-0.89
-0.915
-0.905
-0.915
-0.915
-0.9
-0.895
-0.895
-0.885
-0.885
-0.885
-0.89
-0.91
-0.92
-0.925
-0.92
-0.925
-0.91
-0.92
-0.9
-0.905
-0.905
-0.92
-0.92
-0.93
-0.94
-0.94
-0.94
-0.94
-0.93
-0.915
-0.92
-0.905
-0.9
-0.915
-0.93
-0.93
-0.94
-0.945
-0.945
-0.95
-0.94
-0.945
-0.94
-0.92
-0.935
-0.935
-0.935
-0.95
-0.96
-0.975
-0.97
-0.955
-0.935
-0.925
-0.925
-0.91
-0.92
-0.935
-0.94
-0.935
-0.95
-0.94
-0.935
-0.92
-0.895
-0.875
-0.855
-0.845
-0.83
-0.815
-0.8
-0.81
-0.795
-0.775
-0.765
-0.75
-0.695
-0.65
-0.605
-0.585
-0.59
-0.6
-0.625
-0.645
-0.635
-0.65
-0.67
-0.68
-0.71
-0.77
-0.805
-0.86
-0.895
-0.94
-0.95
-0.985
-0.995
-1.0
-1.0
-0.995
-0.995
-0.99
-0.985
-0.97
-0.985
-0.99
-0.995
-1.005
-1.01
-1.015
-1.0
-1.01
-1.01
-0.995
-0.985
-0.975
-0.975
-0.98
-0.985
-1.0
-1.005
-1.02
-1.035
-1.09
-1.09
-1.085
-1.045
-0.965
-0.84
-0.68
-0.455
-0.17
0.185
0.535
0.835
1.05
1.175
1.19
1.11
0.95
0.63
0.18
-0.37
-0.84
-1.135
-1.225
-1.155
-1.01
-0.855
-0.77
-0.755
-0.795
-0.85
-0.935
-0.98
-1.02
-1.035
-1.025
-1.025
-1.02
-1.02
-1.025
-1.02
-1.02
-1.025
-1.045
-1.045
-1.045
-1.04
-1.05
-1.075
-1.07
-1.065
-1.075
-1.07
-1.055
-1.045
-1.04
-1.055
-1.065
-1.08
-1.085
-1.075
-1.08
-1.075
-1.065
-1.06
-1.045
-1.05
-1.055
-1.055
-1.07
-1.085
-1.08
-1.085
-1.09
-1.075
-1.06
-1.05
-1.035
-1.05
-1.045
-1.055
-1.05
-1.05
-1.065
-1.045
-1.04
-1.02
-1.005
-0.995
-0.975
-0.965
-0.97
-0.975
-0.975
-0.97
-0.975
-0.945
-0.94
-0.91
-0.9
-0.88
-0.855
-0.83
-0.82
-0.815
-0.785
-0.78
-0.755
-0.745
-0.725
-0.7
-0.665
-0.63
-0.595
-0.585
-0.575
-0.56
-0.56
-0.55
-0.535
-0.51
-0.49
-0.48
-0.46
-0.445
-0.44
-0.44
-0.425
-0.43
-0.44
-0.45
-0.48
-0.505
-0.52
-0.545
-0.565
-0.585
-0.615
-0.67
-0.69
-0.72
-0.765
-0.785
-0.82
-0.845
-0.88
-0.905
-0.915
-0.925
-0.935
-0.95
-0.965
-0.97
-0.99
-1.015
-1.03
-1.055
-1.075
-1.075
-1.06
-1.06
-1.045
-1.05
-1.05
-1.07
-1.085
-1.095
-1.085
-1.095
-1.1
-1.1
-1.095
-1.08
-1.08
-1.085
-1.09
-1.105
-1.11
-1.1
-1.105
-1.11
-1.1
-1.095
-1.07
-1.065
-1.05
-1.05
-1.045
-1.055
-1.07
-1.045
-1.05
-1.065
-1.08
-1.065
-1.055
-1.06
-1.04
-1.02
-1.04
-1.04
-1.03
-1.025
-1.04
-1.05
-1.055
-1.04
-1.035
-1.02
-0.995
-1.005
-1.01
-1.02
-1.035
-1.045
-1.04
-1.06
-1.05
-1.055
-1.035
-1.03
-1.015
-1.025
-1.01
-1.025
-1.04
-1.055
-1.055
-1.06
-1.06
-1.065
-1.06
-1.055
-1.045
-1.045
-1.045
-1.04
-1.045
-1.055
-1.05
-1.045
-1.055
-1.05
-1.05
-1.045
-1.03
-1.04
-1.035
-1.05
-1.045
-1.05
-1.065
-1.055
-1.045
-1.045
-1.03
-0.985
-0.97
-0.955
-0.93
-0.92
-0.92
-0.93
-0.945
-0.92
-0.885
-0.845
-0.785
-0.725
-0.69
-0.675
-0.69
-0.72
-0.73
-0.735
-0.745
-0.755
-0.78
-0.77
-0.805
-0.845
-0.885
-0.935
-0.98
-1.025
-1.06
-1.09
-1.105
-1.085
-1.09
-1.08
-1.08
-1.09
-1.08
-1.06
-1.07
-1.07
-1.085
-1.095
-1.1
-1.115
-1.1
-1.105
-1.08
-1.07
-1.08
-1.08
-1.07
-1.085
-1.095
-1.085
-1.095
-1.095
-1.115
-1.12
-1.125
-1.12
-1.065
-0.95
-0.785
-0.545
-0.225
0.135
0.505
0.835
1.06
1.16
1.145
0.96
0.635
0.135
-0.42
-0.93
-1.245
-1.32
-1.215
-1.055
-0.925
-0.84
-0.835
-0.88
-0.945
-1.0
-1.025
-1.06
-1.07
-1.055
-1.05
-1.07
-1.065
-1.07
-1.065
-1.05
-1.055
-1.055
-1.055
-1.055
-1.08
-1.08
-1.085
-1.075
-1.065
-1.085
-1.08
-1.075
-1.05
-1.055
-1.06
-1.065
-1.08
-1.09
-1.1
-1.095
-1.09
-1.09
-1.06
-1.045
-1.03
-1.02
-1.015
-1.03
-1.05
-1.05
-1.065
-1.065
-1.07
-1.065
-1.035
-1.025
-1.005
-1.0
-1.0
-1.01
-1.01
-1.005
-1.01
-1.0
-0.985
-0.985
-0.955
-0.95
-0.93
-0.92
-0.93
-0.93
-0.925
-0.905
-0.895
-0.885
-0.845
-0.82
-0.795
-0.79
-0.75
-0.72
-0.7
-0.695
-0.685
-0.665
-0.64
-0.635
-0.615
-0.585
-0.575
-0.565
-0.52
-0.525
-0.495
-0.485
-0.475
-0.47
-0.46
-0.45
-0.43
-0.42
-0.405
-0.405
-0.405
-0.395
-0.425
-0.46
-0.485
-0.505
-0.52
-0.56
-0.58
-0.62
-0.645
-0.68
-0.71
-0.745
-0.79
-0.82
-0.855
-0.88
-0.93
-0.955
-0.97
-0.98
-0.97
-0.97
-0.96
-0.97
-0.99
-1.0
-1.025
-1.05
-1.06
-1.065
-1.045
-1.06
-1.055
-1.05
-1.045
-1.04
-1.035
-1.045
-1.07
-1.08
-1.095
-1.095
-1.095
-1.1
-1.08
-1.07
-1.045
-1.05
-1.045
-1.05
-1.06
-1.07
-1.08
-1.06
-1.055
-1.05
-1.05
-1.05
-1.02
-1.02
-1.015
-1.015
-1.02
-1.025
-1.035
-1.04
-1.05
-1.03
-1.01
-1.01
-0.99
-0.99
-0.995
-0.995
-0.995
-1.015
-1.035
-1.02
-1.03
-1.02
-1.0
-0.995
-0.995
-1.015
-1.025
-1.02
-1.045
-1.05
-1.05
-1.05
-1.05
-1.035
-1.035
-1.025
-1.03
-1.03
-1.035
-1.035
-1.045
-1.055
-1.06
-1.055
-1.055
-1.06
-1.045
-1.055
-1.045
-1.04
-1.04
-1.05
-1.065
-1.065
-1.09
-1.1
-1.08
-1.055
-1.05
-1.055
-1.04
-1.04
-1.045
-1.04
-1.065
-1.065
-1.075
-1.09
-1.08
-1.07
-1.055
-1.05
-1.045
-1.015
-1.015
-1.01
-1.01
-0.995
-0.985
-0.97
-0.94
-0.935
-0.92
-0.89
-0.87
-0.845
-0.805
-0.785
-0.755
-0.73
-0.74
-0.745
-0.755
-0.75
-0.775
-0.765
-0.745
-0.745
-0.775
-0.81
-0.855
-0.91
-0.965
-1.025
-1.05
-1.06
-1.06
-1.075
-1.065
-1.065
-1.075
-1.08
-1.09
-1.095
-1.105
-1.11
-1.11
-1.11
-1.085
-1.085
-1.07
-1.085
-1.075
-1.09
-1.105
-1.13
-1.115
-1.13
-1.13
-1.155
-1.105
-1.105
-1.1
-1.095
-1.145
-1.15
-1.135
-1.09
-0.985
-0.805
-0.52
-0.16
0.26
0.67
0.975
1.155
1.23
1.135
0.91
0.515
-0.025
-0.595
-1.055
-1.275
-1.28
-1.14
-0.98
-0.865
-0.825
-0.87
-0.935
-1.02
-1.075
-1.11
-1.105
-1.105
-1.1
-1.09
-1.06
-1.07
-1.085
-1.09
-1.105
-1.12
-1.125
-1.13
-1.13
-1.125
-1.12
-1.095
-1.1
-1.105
-1.115
-1.11
-1.13
-1.125
-1.125
-1.135
-1.125
-1.12
-1.105
-1.095
-1.09
-1.09
-1.09
-1.095
-1.115
-1.105
-1.095
-1.105
-1.1
-1.085
-1.075
-1.06
-1.055
-1.05
-1.045
-1.035
-1.05
-1.035
-1.045
-1.03
-1.025
-1.0
-0.99
-0.96
-0.95
-0.95
-0.935
-0.935
-0.925
-0.92
-0.905
-0.905
-0.875
-0.85
-0.83
-0.795
-0.745
-0.74
-0.725
-0.7
-0.695
-0.655
-0.64
-0.605
-0.585
-0.55
-0.525
-0.495
-0.47
-0.465
-0.46
-0.445
-0.44
-0.44
-0.43
-0.455
-0.46
-0.465
-0.475
-0.49
-0.5
-0.525
