Lead II
-0.62
-0.63
-0.64
-0.645
-0.64
-0.635
-0.615
-0.6
-0.585
-0.58
-0.565
-0.54
-0.525
-0.525
-0.53
-0.555
-0.575
-0.575
-0.575
-0.53
-0.48
-0.41
-0.27
-0.025
0.44
1.075
1.71
2.1
2.16
2.105
2.055
2.02
1.975
1.895
1.78
1.715
1.63
1.56
1.48
1.405
1.305
1.205
1.09
0.985
0.86
0.725
0.61
0.48
0.355
0.225
0.065
-0.105
-0.245
-0.395
-0.54
-0.68
-0.815
-0.935
-1.025
-1.115
-1.16
-1.205
-1.28
-1.38
-1.53
-1.67
-1.79
-1.875
-1.985
-2.125
-2.22
-2.265
-2.225
-2.135
-2.045
-1.945
-1.82
-1.675
-1.565
-1.51
-1.47
-1.405
-1.325
-1.27
-1.21
-1.19
-1.19
-1.185
-1.18
-1.155
-1.095
-1.03
-0.945
-0.89
-0.85
-0.81
-0.755
-0.675
-0.605
-0.55
-0.5
-0.425
-0.335
-0.27
-0.235
-0.2
-0.135
-0.085
-0.045
-0.03
-0.015
-0.015
0.0
0.015
0.06
0.115
0.14
0.125
0.105
0.09
0.125
0.19
0.235
0.245
0.245
0.25
0.28
0.35
0.395
0.41
0.42
0.425
0.47
0.52
0.565
0.585
0.61
0.605
0.62
0.64
0.66
0.685
0.695
0.71
0.725
0.77
0.795
0.8
0.785
0.765
0.765
0.805
0.825
0.825
0.81
0.805
0.82
0.83
0.82
0.79
0.765
0.725
0.71
0.685
0.66
0.62
0.585
0.525
0.49
0.475
0.435
0.395
0.345
0.32
0.29
0.27
0.225
0.17
0.09
0.045
0.0
-0.005
-0.02
-0.065
-0.125
-0.15
-0.165
-0.17
-0.175
-0.19
-0.2
-0.19
-0.155
-0.12
-0.12
-0.17
-0.195
-0.2
-0.17
-0.12
-0.085
-0.08
-0.105
-0.145
-0.17
-0.195
-0.215
-0.235
-0.225
-0.225
-0.22
-0.225
-0.22
-0.235
-0.245
-0.27
-0.31
-0.31
-0.345
-0.365
-0.38
-0.4
-0.405
-0.445
-0.485
-0.54
-0.58
-0.58
-0.56
-0.54
-0.545
-0.56
-0.595
-0.625
-0.605
-0.585
-0.595
-0.62
-0.62
-0.61
-0.6
-0.605
-0.64
-0.675
-0.66
-0.645
-0.615
-0.59
-0.6
-0.59
-0.61
-0.62
-0.635
-0.64
-0.645
-0.63
-0.63
-0.625
-0.62
-0.625
-0.62
-0.62
-0.62
-0.605
-0.6
-0.61
-0.675
-0.715
-0.72
-0.685
-0.64
-0.63
-0.625
-0.64
-0.665
-0.67
-0.66
-0.645
-0.635
-0.64
-0.63
-0.63
-0.605
-0.615
-0.63
-0.64
-0.645
-0.66
-0.66
-0.655
-0.65
-0.645
-0.635
-0.625
-0.635
-0.615
-0.6
-0.585
-0.58
-0.58
-0.58
-0.605
-0.6
-0.59
-0.585
-0.58
-0.585
-0.6
-0.605
-0.6
-0.585
-0.575
-0.535
-0.53
-0.525
-0.52
-0.535
-0.535
-0.52
-0.5
-0.5
-0.48
-0.47
-0.425
-0.36
-0.27
-0.14
0.165
0.705
1.34
1.975
2.195
2.185
2.105
2.05
2.015
1.96
1.885
1.79
1.695
1.605
1.53
1.455
1.37
1.275
1.16
1.02
0.885
0.755
0.58
0.43
0.255
0.095
-0.065
-0.2
-0.335
-0.465
-0.61
-0.735
-0.805
-0.86
-0.885
-0.905
-0.955
-1.035
-1.16
-1.29
-1.415
-1.565
-1.7
-1.82
-1.925
-1.99
-2.015
-1.975
-1.905
-1.82
-1.665
-1.495
-1.375
-1.33
-1.305
-1.295
-1.275
-1.235
-1.21
-1.2
-1.185
-1.175
-1.19
-1.195
-1.165
-1.115
-1.04
-0.96
-0.89
-0.835
-0.805
-0.775
-0.725
-0.67
-0.61
-0.515
-0.435
-0.355
-0.285
-0.215
-0.165
-0.105
-0.11
-0.105
-0.115
-0.12
-0.105
-0.075
-0.055
-0.025
-0.01
0.015
0.035
0.05
0.04
0.06
0.075
0.09
0.09
0.085
0.095
0.11
0.13
0.155
0.195
0.25
0.285
0.32
0.345
0.385
0.42
0.465
0.505
0.55
0.585
0.615
0.655
0.725
0.76
0.78
0.795
0.81
0.84
0.885
0.93
0.94
0.905
0.89
0.875
0.88
0.86
0.835
0.82
0.845
0.85
0.835
0.805
0.77
0.73
0.685
0.64
0.61
0.56
0.505
0.44
0.375
0.33
0.285
0.22
0.15
0.065
-0.01
-0.05
-0.08
-0.115
-0.17
-0.22
-0.28
-0.335
-0.36
-0.38
-0.375
-0.39
-0.415
-0.455
-0.5
-0.53
-0.57
-0.585
-0.6
-0.605
-0.59
-0.595
-0.595
-0.59
-0.58
-0.595
-0.62
-0.61
-0.61
-0.625
-0.655
-0.715
-0.715
-0.71
-0.71
-0.71
-0.71
-0.695
-0.69
-0.67
-0.68
-0.695
-0.7
-0.735
-0.74
-0.71
-0.7
-0.69
-0.685
-0.7
-0.715
-0.715
-0.715
-0.715
-0.71
-0.705
-0.685
-0.68
-0.66
-0.67
-0.67
-0.67
-0.67
-0.65
-0.65
-0.665
-0.68
-0.675
-0.65
-0.625
-0.615
-0.61
-0.645
-0.675
-0.68
-0.665
-0.625
-0.615
-0.59
-0.595
-0.605
-0.6
-0.605
-0.625
-0.645
-0.69
-0.695
-0.64
-0.595
-0.595
-0.645
-0.675
-0.665
-0.63
-0.61
-0.605
-0.635
-0.64
-0.625
-0.62
-0.605
-0.61
-0.605
-0.6
-0.58
-0.56
-0.56
-0.55
-0.565
-0.57
-0.56
-0.54
-0.53
-0.525
-0.55
-0.575
-0.585
-0.565
-0.545
-0.525
-0.515
-0.54
-0.535
-0.545
-0.575
-0.585
-0.58
-0.545
-0.53
-0.495
-0.49
-0.465
-0.46
-0.48
-0.495
-0.48
-0.455
-0.46
-0.44
-0.415
-0.365
-0.265
-0.135
0.145
0.695
1.33
1.965
2.22
2.18
2.09
2.02
1.965
1.91
1.835
1.75
1.655
1.56
1.45
1.35
1.255
1.14
1.0
0.845
0.69
0.545
0.4
0.21
-0.01
-0.225
-0.42
-0.57
-0.685
-0.825
-0.925
-1.035
-1.125
-1.16
-1.175
-1.245
-1.345
-1.515
-1.67
-1.785
-1.89
-2.02
-2.185
-2.3
-2.295
-2.17
-1.98
-1.775
-1.62
-1.51
-1.425
-1.345
-1.305
-1.265
-1.235
-1.22
-1.185
-1.14
-1.095
-1.075
-1.075
-1.075
-1.055
-1.005
-0.915
-0.825
-0.72
-0.635
-0.56
-0.465
-0.39
-0.32
-0.23
-0.13
-0.02
0.07
0.135
0.165
0.18
0.18
0.185
0.22
0.235
0.255
0.265
0.285
0.31
0.34
0.375
0.375
0.35
0.34
0.345
0.38
0.385
0.355
0.31
0.305
0.31
0.34
0.345
0.35
0.35
0.37
0.4
0.41
0.41
0.43
0.44
0.47
0.51
0.535
0.555
0.55
0.58
0.575
0.59
0.605
0.62
0.645
0.65
0.645
0.65
0.66
0.695
0.705
0.695
0.69
0.675
0.665
0.65
0.62
0.575
0.565
0.55
0.545
0.52
0.47
0.44
0.41
0.405
0.38
0.34
0.275
0.2
0.135
0.085
0.07
0.035
0.0
-0.04
-0.1
-0.16
-0.2
-0.225
-0.26
-0.3
-0.31
-0.345
-0.365
-0.375
-0.39
-0.42
-0.42
-0.465
-0.515
-0.58
-0.62
-0.62
-0.62
-0.61
-0.61
-0.605
-0.605
-0.62
-0.62
-0.615
-0.62
-0.63
-0.64
-0.655
-0.65
-0.655
-0.635
-0.645
-0.645
-0.655
-0.67
-0.67
-0.655
-0.65
-0.635
-0.65
-0.66
-0.65
-0.64
-0.645
-0.64
-0.635
-0.65
-0.645
-0.61
-0.6
-0.605
-0.635
-0.65
-0.655
-0.635
-0.625
-0.605
-0.615
-0.625
-0.605
-0.575
-0.555
-0.555
-0.565
-0.575
-0.575
-0.555
-0.54
-0.55
-0.565
-0.585
-0.585
-0.56
-0.545
-0.54
-0.555
-0.575
-0.59
-0.575
-0.56
-0.545
-0.555
-0.56
-0.565
-0.535
-0.525
-0.51
-0.545
-0.56
-0.585
-0.555
-0.545
-0.555
-0.575
-0.585
-0.59
-0.58
-0.565
-0.555
-0.545
-0.53
-0.525
-0.515
-0.52
-0.53
-0.55
-0.565
-0.56
-0.545
-0.52
-0.5
-0.5
-0.505
-0.515
-0.51
-0.5
-0.52
-0.53
-0.525
-0.51
-0.475
-0.46
-0.475
-0.49
-0.515
-0.52
-0.5
-0.47
-0.475
-0.485
-0.51
-0.51
-0.49
-0.47
-0.47
-0.465
-0.46
-0.435
-0.395
-0.345
-0.31
-0.24
-0.12
0.18
0.76
1.395
2.0
2.22
2.21
2.135
2.105
2.07
2.035
1.94
1.845
1.745
1.69
1.6
1.495
1.405
1.295
1.22
1.135
1.03
0.88
0.725
0.565
0.39
0.23
0.085
-0.055
-0.235
-0.42
-0.6
-0.72
-0.81
-0.905
-0.985
-1.05
-1.135
-1.235
-1.35
-1.495
-1.625
-1.745
-1.9
-2.035
-2.15
-2.215
-2.15
-2.01
-1.845
-1.68
-1.55
-1.435
-1.355
-1.33
-1.305
-1.25
-1.205
-1.165
-1.17
-1.17
-1.17
-1.175
-1.16
-1.155
-1.155
-1.125
-1.07
-0.97
-0.895
-0.84
-0.815
-0.785
-0.75
-0.695
-0.615
-0.515
-0.44
-0.37
-0.33
-0.265
-0.205
-0.165
-0.15
-0.15
-0.12
-0.1
-0.085
-0.08
-0.075
-0.065
-0.06
-0.065
-0.045
-0.035
-0.035
-0.02
0.005
0.035
0.065
0.085
0.095
0.08
0.095
0.125
0.16
0.19
0.21
0.22
0.23
0.265
0.305
0.34
0.375
0.41
0.44
0.485
0.53
0.56
0.595
0.605
0.615
0.635
0.66
0.69
0.685
0.655
0.655
0.665
0.695
0.725
0.73
0.72
0.71
0.72
0.695
0.69
0.645
0.62
0.615
0.615
0.62
0.6
0.575
0.56
0.525
0.485
0.44
0.395
0.36
0.305
0.27
0.25
0.23
0.185
0.14
0.08
0.015
-0.035
-0.095
-0.135
-0.17
-0.21
-0.235
-0.26
-0.265
-0.3
-0.335
-0.375
-0.4
-0.4
-0.395
-0.405
-0.43
-0.445
-0.465
-0.47
-0.445
-0.43
-0.425
-0.45
-0.48
-0.51
-0.505
-0.52
-0.525
-0.52
-0.505
-0.475
-0.49
-0.53
-0.555
-0.56
-0.565
-0.575
-0.585
-0.58
-0.565
-0.54
-0.525
-0.54
-0.55
-0.56
-0.56
-0.56
-0.54
-0.515
-0.525
-0.52
-0.51
-0.51
-0.505
-0.5
-0.485
-0.475
-0.48
-0.49
-0.475
-0.46
-0.46
-0.47
-0.495
-0.515
-0.505
-0.49
-0.475
-0.48
-0.5
-0.495
-0.48
-0.455
-0.44
-0.44
-0.455
-0.47
-0.465
-0.455
-0.445
-0.46
-0.475
-0.485
-0.475
-0.47
-0.46
-0.435
-0.405
-0.405
-0.44
-0.475
-0.515
-0.535
-0.535
-0.525
-0.515
-0.495
-0.485
-0.475
-0.46
-0.46
-0.465
-0.445
-0.425
-0.42
-0.41
-0.395
-0.37
-0.35
-0.345
-0.33
-0.335
-0.335
-0.33
-0.28
-0.27
-0.24
-0.21
-0.18
-0.14
-0.1
-0.09
-0.1
-0.11
-0.135
-0.17
-0.205
-0.2
-0.175
-0.155
-0.155
-0.17
-0.17
-0.15
-0.14
-0.15
-0.18
-0.195
-0.2
-0.195
-0.155
-0.125
-0.035
0.185
0.665
1.3
1.925
2.245
2.28
2.205
2.13
2.095
2.03
1.91
1.8
1.715
1.66
1.595
1.485
1.37
1.225
1.085
0.94
0.79
0.635
0.49
0.315
0.135
-0.025
-0.2
-0.36
-0.515
-0.66
-0.8
-0.925
-1.035
-1.165
-1.27
-1.37
-1.42
-1.47
-1.525
-1.68
-1.815
-1.935
-2.03
-2.105
-2.21
-2.32
-2.42
-2.46
-2.4
-2.26
-2.085
-1.92
-1.785
-1.65
-1.56
-1.49
-1.44
-1.405
-1.37
-1.345
-1.31
-1.255
-1.22
-1.215
-1.215
-1.21
-1.175
-1.125
-1.05
-0.975
-0.92
-0.89
-0.83
-0.765
-0.715
-0.635
-0.575
-0.525
-0.465
-0.375
-0.31
-0.24
-0.175
-0.13
-0.055
-0.02
-0.005
-0.01
-0.005
0.015
0.025
0.05
0.07
0.11
0.13
0.155
0.165
0.19
0.205
0.215
0.205
0.21
0.205
0.25
0.295
0.345
0.39
0.405
0.42
0.455
0.5
0.53
0.56
0.575
0.59
0.63
0.675
0.695
0.695
0.69
0.71
0.76
0.795
0.825
0.855
0.86
0.885
0.885
0.87
0.85
0.855
0.87
0.88
0.9
0.89
0.88
0.845
0.825
0.815
0.815
0.81
0.79
0.765
0.715
0.695
0.7
0.705
0.685
0.635
0.575
0.505
0.47
0.445
0.4
0.34
0.29
0.23
0.185
0.155
0.115
0.07
0.02
-0.025
-0.05
-0.07
-0.095
-0.125
-0.16
-0.22
-0.26
-0.295
-0.305
-0.325
-0.335
-0.345
-0.35
-0.365
-0.375
-0.39
-0.4
-0.42
-0.435
-0.45
-0.48
-0.5
-0.51
-0.5
-0.485
-0.495
-0.49
-0.5
-0.505
-0.515
-0.5
-0.475
-0.48
-0.47
-0.485
-0.515
-0.515
-0.51
-0.495
-0.485
-0.495
-0.495
-0.51
-0.515
-0.515
-0.525
-0.52
-0.52
-0.515
-0.51
-0.525
-0.535
-0.545
-0.53
-0.49
-0.475
-0.455
-0.445
-0.46
-0.47
-0.45
-0.445
-0.44
-0.425
-0.41
-0.38
-0.365
-0.33
-0.31
-0.285
-0.265
-0.26
-0.23
-0.205
-0.185
-0.15
-0.115
-0.1
-0.105
-0.14
-0.175
-0.2
-0.225
-0.245
-0.245
-0.215
-0.19
-0.18
-0.17
-0.17
-0.17
-0.19
-0.21
-0.25
-0.285
-0.305
-0.315
-0.34
-0.36
-0.4
-0.41
-0.435
-0.455
-0.45
-0.45
-0.485
-0.5
-0.53
-0.56
-0.56
-0.555
-0.57
-0.58
-0.565
-0.55
-0.52
-0.53
-0.56
-0.58
-0.6
-0.59
-0.58
-0.59
-0.595
-0.59
-0.6
-0.585
-0.56
-0.565
-0.555
-0.57
-0.59
-0.59
-0.58
-0.56
-0.545
-0.54
-0.53
-0.54
-0.55
-0.545
-0.55
-0.545
-0.54
-0.515
-0.51
-0.5
-0.49
-0.49
-0.5
-0.465
-0.43
-0.41
-0.36
-0.275
-0.105
0.24
0.81
1.445
1.995
2.24
2.255
2.185
2.14
2.105
2.035
1.955
1.86
1.765
1.705
1.635
1.57
1.5
1.415
1.315
1.22
1.115
1.0
0.88
0.745
0.615
0.515
0.415
0.305
0.21
0.12
0.02
-0.095
-0.2
-0.275
-0.335
-0.375
-0.4
-0.38
-0.375
-0.39
-0.48
-0.625
-0.795
-0.955
-1.12
-1.29
-1.44
-1.585
-1.63
-1.63
-1.61
-1.585
-1.535
-1.445
-1.325
-1.225
-1.18
-1.17
-1.17
-1.145
-1.12
-1.1
-1.1
-1.085
-1.085
-1.07
-1.08
-1.07
-1.04
-0.98
-0.935
-0.865
-0.79
-0.745
-0.715
-0.665
-0.625
-0.57
-0.5
-0.44
-0.37
-0.31
-0.245
-0.19
-0.13
-0.11
-0.105
-0.115
-0.1
-0.065
-0.03
-0.01
0.005
0.01
0.0
0.025
0.06
0.07
0.095
0.11
0.12
0.15
0.19
0.205
0.2
0.195
0.185
0.205
0.235
0.245
0.27
0.29
0.31
0.32
0.36
0.395
0.43
0.465
0.475
0.51
0.525
0.55
0.55
0.555
0.575
0.585
0.61
0.625
0.65
0.67
0.695
0.695
0.705
0.695
0.695
0.695
0.71
0.71
0.71
0.705
0.695
0.69
0.675
0.675
0.665
0.65
0.63
0.625
0.605
0.565
0.555
0.55
0.53
0.49
0.455
0.425
0.4
0.37
0.34
0.32
0.28
0.25
0.22
0.19
0.155
0.12
0.075
0.075
0.06
0.03
-0.015
-0.055
-0.1
-0.105
-0.09
-0.065
-0.05
-0.065
-0.095
-0.125
-0.12
-0.1
-0.075
-0.075
-0.065
-0.055
-0.035
-0.005
0.005
0.02
0.0
-0.025
-0.06
-0.075
-0.09
-0.1
-0.125
-0.12
-0.11
-0.095
-0.09
-0.11
-0.125
-0.135
-0.125
-0.115
-0.11
-0.13
-0.17
-0.205
-0.225
-0.24
-0.275
-0.3
-0.325
-0.345
-0.355
-0.4
-0.445
-0.48
-0.505
-0.515
-0.5
-0.485
-0.48
-0.485
-0.495
-0.515
-0.515
-0.495
-0.49
-0.485
-0.495
-0.495
-0.49
-0.48
-0.47
-0.47
-0.49
-0.5
-0.475
-0.47
-0.455
-0.45
-0.455
-0.465
-0.455
-0.44
-0.435
-0.45
-0.48
-0.48
-0.475
-0.48
-0.475
-0.495
-0.52
-0.525
-0.515
-0.49
-0.465
-0.47
-0.47
-0.485
-0.48
-0.48
-0.475
-0.47
-0.485
-0.465
-0.455
-0.445
-0.435
-0.43
-0.425
-0.425
-0.42
-0.425
-0.44
-0.46
-0.475
-0.47
-0.445
-0.43
-0.42
-0.41
-0.41
-0.425
-0.435
-0.445
-0.45
-0.455
-0.45
-0.43
-0.395
-0.375
-0.37
-0.39
-0.425
-0.405
-0.385
-0.34
-0.33
-0.34
-0.35
-0.36
-0.35
-0.335
-0.345
-0.355
-0.36
-0.335
-0.315
-0.3
-0.295
-0.275
-0.255
-0.24
-0.23
-0.17
-0.09
0.075
0.38
0.895
1.53
2.16
2.435
2.455
2.385
2.33
2.285
2.235
2.165
2.08
1.98
1.89
1.825
1.73
1.64
1.54
1.425
1.31
1.185
1.04
0.88
0.71
0.525
0.325
0.155
0.0
-0.135
-0.265
-0.415
-0.55
-0.645
-0.69
-0.73
-0.78
-0.825
-0.91
-1.025
-1.165
-1.315
-1.43
-1.545
-1.65
-1.75
-1.83
-1.84
-1.78
-1.67
-1.55
-1.41
-1.27
-1.155
-1.09
-1.06
-1.03
-0.995
-0.97
-0.935
-0.915
-0.9
-0.89
-0.885
-0.89
-0.89
-0.875
-0.83
-0.785
-0.705
-0.64
-0.58
-0.525
-0.47
-0.415
-0.35
-0.29
-0.21
-0.14
-0.085
-0.03
0.04
0.1
0.13
0.13
0.125
0.135
0.16
0.195
0.205
0.215
0.225
0.235
0.28
0.32
0.345
0.37
0.385
0.365
0.38
0.41
0.43
0.46
0.48
0.485
0.505
0.52
0.535
0.59
0.625
0.65
0.695
0.735
0.755
0.795
0.83
0.88
0.94
0.985
1.035
1.06
1.08
1.095
1.125
1.16
1.175
1.205
1.235
1.24
1.255
1.235
1.22
1.205
1.2
1.18
1.16
1.16
1.145
1.13
1.12
1.095
1.08
1.06
1.035
1.01
0.97
0.935
0.915
0.88
0.84
0.775
0.695
0.63
0.55
0.485
0.39
0.34
0.265
0.205
0.175
0.135
0.105
0.08
0.025
-0.045
-0.08
-0.105
-0.145
-0.17
-0.21
-0.225
-0.21
-0.205
-0.225
-0.255
-0.305
-0.345
-0.37
-0.36
-0.36
-0.34
-0.365
-0.37
-0.4
-0.405
-0.415
-0.44
-0.44
-0.435
-0.425
-0.425
-0.435
-0.435
-0.44
-0.43
-0.41
-0.395
-0.415
-0.43
-0.475
-0.485
-0.48
-0.475
-0.465
-0.475
-0.475
-0.47
-0.45
-0.46
-0.45
-0.465
-0.465
-0.475
-0.455
-0.455
-0.45
-0.455
-0.46
-0.46
-0.445
-0.4
-0.385
-0.39
-0.42
-0.455
-0.46
-0.455
-0.44
-0.45
-0.425
-0.42
-0.415
-0.395
-0.395
-0.395
-0.4
-0.405
-0.4
-0.385
-0.37
-0.37
-0.38
-0.39
-0.385
-0.375
-0.36
-0.34
-0.33
-0.35
-0.345
-0.365
-0.38
-0.415
-0.44
-0.425
-0.41
-0.375
-0.37
-0.375
-0.39
-0.4
-0.385
-0.36
-0.345
-0.355
-0.355
-0.355
-0.36
-0.355
-0.355
-0.35
-0.335
-0.32
-0.32
-0.305
-0.32
-0.345
-0.36
-0.355
-0.33
-0.31
-0.31
-0.32
-0.34
-0.33
-0.33
-0.305
-0.3
-0.315
-0.34
-0.335
-0.325
-0.305
-0.3
-0.29
-0.295
-0.29
-0.28
-0.265
-0.255
-0.245
-0.235
-0.235
-0.245
-0.255
-0.235
-0.22
-0.195
-0.2
-0.18
-0.155
-0.135
-0.07
0.06
0.355
0.92
1.555
2.17
2.44
2.465
2.39
2.325
2.28
2.2
2.11
1.99
1.89
1.785
1.705
1.6
1.5
1.39
1.27
1.13
0.985
0.81
0.625
0.41
0.195
-0.015
-0.21
-0.385
-0.555
-0.715
-0.855
-0.96
-1.04
-1.12
-1.165
-1.245
-1.33
-1.435
-1.55
-1.68
-1.795
-1.9
-2.005
-2.115
-2.18
-2.185
-2.13
-2.0
-1.8
-1.595
-1.425
-1.295
-1.21
-1.16
-1.115
-1.09
-1.04
-1.005
-0.965
-0.945
-0.915
-0.88
-0.845
-0.8
-0.715
-0.635
-0.535
-0.45
-0.375
-0.31
-0.23
-0.145
-0.045
0.065
0.165
0.25
0.3
0.36
0.42
0.485
0.52
0.52
0.515
0.52
0.515
0.565
0.615
0.65
0.66
0.64
0.625
0.63
0.63
0.635
0.645
0.645
0.635
0.64
0.665
0.68
0.695
0.69
0.665
0.67
0.7
0.74
0.78
0.815
0.82
0.82
0.83
0.84
0.865
0.9
0.925
0.955
0.985
0.995
1.005
1.01
1.02
1.03
1.035
1.045
1.055
1.04
1.035
1.02
1.015
1.01
0.99
0.98
0.955
0.95
0.94
0.9
0.845
0.815
0.77
0.75
0.725
0.7
0.665
0.62
0.575
0.525
0.48
0.405
0.34
0.27
0.215
0.2
0.16
0.12
0.08
0.03
-0.04
-0.095
-0.125
-0.145
-0.175
-0.225
-0.27
-0.275
-0.28
-0.29
-0.325
-0.365
-0.395
-0.385
-0.37
-0.35
-0.35
-0.375
-0.405
-0.43
-0.455
-0.47
-0.47
-0.46
-0.445
-0.42
-0.42
-0.41
-0.435
-0.46
-0.48
-0.47
-0.445
-0.43
-0.41
-0.415
-0.435
-0.43
-0.43
-0.45
-0.46
-0.455
-0.45
-0.435
-0.425
-0.43
-0.445
-0.465
-0.485
-0.475
-0.455
-0.435
-0.425
-0.415
-0.41
-0.415
-0.43
-0.445
-0.44
-0.44
-0.435
-0.44
-0.44
-0.435
-0.44
-0.435
-0.43
-0.395
-0.375
-0.365
-0.38
-0.405
-0.41
-0.42
-0.42
-0.425
-0.42
-0.43
-0.425
-0.395
-0.385
-0.375
-0.38
-0.415
-0.42
-0.405
-0.41
-0.435
-0.455
-0.475
-0.465
-0.435
-0.415
-0.415
-0.42
-0.425
-0.44
-0.42
-0.41
-0.41
-0.4
-0.43
-0.44
-0.435
-0.42
-0.41
-0.425
-0.425
-0.43
-0.405
-0.39
-0.4
-0.415
-0.42
-0.425
-0.415
-0.395
-0.37
-0.385
-0.415
-0.4
-0.38
-0.35
-0.35
-0.375
-0.405
-0.445
-0.44
-0.425
-0.405
-0.395
-0.39
-0.4
-0.39
-0.39
-0.395
-0.375
-0.36
-0.355
-0.33
-0.3
-0.275
-0.225
-0.11
0.135
0.63
1.265
1.9
2.25
2.3
2.24
2.18
2.155
2.1
2.025
1.94
1.86
1.79
1.74
1.665
1.575
1.46
1.335
1.215
1.12
1.005
0.86
0.695
0.55
0.4
0.265
0.125
-0.035
-0.22
-0.385
-0.515
-0.59
-0.635
-0.67
-0.715
-0.78
-0.905
-1.06
-1.225
-1.38
-1.545
-1.695
-1.84
-1.95
-1.975
-1.89
-1.76
-1.595
-1.445
-1.345
-1.295
-1.295
-1.28
-1.245
-1.2
-1.16
-1.165
-1.185
-1.185
-1.195
-1.155
-1.15
-1.13
-1.1
-1.05
-1.0
-0.91
-0.86
-0.805
-0.735
-0.68
-0.61
-0.55
-0.505
-0.455
-0.41
-0.345
-0.285
-0.25
-0.205
-0.19
-0.175
-0.18
-0.175
-0.17
-0.135
-0.12
-0.105
-0.105
-0.115
-0.095
-0.06
-0.04
-0.015
-0.01
-0.005
0.015
0.025
0.03
0.04
0.06
0.065
0.11
0.155
0.17
0.195
0.215
0.24
0.29
0.345
0.385
0.395
0.38
0.375
0.405
0.455
0.47
0.485
0.48
0.48
0.5
0.53
0.56
0.58
0.58
0.59
0.62
0.64
0.635
0.64
0.635
0.635
0.64
0.635
0.605
0.585
0.565
0.54
0.515
0.48
0.435
0.4
0.365
0.32
0.275
0.24
0.195
0.17
0.135
0.115
0.075
0.03
-0.01
-0.065
-0.11
-0.16
-0.19
-0.215
-0.255
-0.27
-0.32
-0.35
-0.355
-0.365
-0.375
-0.385
-0.405
-0.39
-0.38
-0.39
-0.435
-0.47
-0.515
-0.53
-0.51
-0.475
-0.485
-0.51
-0.54
-0.555
-0.57
-0.565
-0.55
-0.545
-0.55
-0.55
-0.545
-0.535
-0.55
-0.575
-0.59
-0.605
-0.595
-0.585
-0.585
-0.59
-0.585
-0.59
-0.58
-0.585
-0.575
-0.57
-0.55
-0.53
-0.53
-0.52
-0.52
-0.53
-0.525
-0.515
-0.505
-0.515
-0.535
-0.565
-0.585
-0.595
-0.56
-0.545
-0.53
-0.505
-0.515
-0.53
-0.53
-0.52
-0.52
-0.52
-0.54
-0.545
-0.545
-0.52
-0.495
-0.5
-0.525
-0.545
-0.55
-0.56
-0.55
-0.55
-0.535
-0.52
-0.515
-0.52
-0.525
-0.54
-0.565
-0.575
-0.56
-0.515
-0.505
-0.51
-0.53
-0.555
-0.555
-0.545
-0.53
-0.525
-0.505
-0.49
-0.47
-0.465
-0.47
-0.495
-0.5
-0.495
-0.455
-0.415
-0.395
-0.38
-0.355
-0.345
-0.335
-0.335
-0.33
-0.3
-0.265
-0.22
-0.185
-0.18
-0.19
-0.22
-0.25
-0.275
-0.28
-0.24
-0.225
-0.22
-0.23
-0.225
-0.22
-0.2
-0.195
-0.225
-0.24
-0.265
-0.255
-0.26
-0.275
-0.29
-0.275
-0.245
-0.115
0.155
0.645
1.275
1.815
2.075
2.125
2.08
2.015
1.95
1.88
1.79
1.695
1.62
1.545
1.44
1.35
1.265
1.18
1.09
0.96
0.795
0.655
0.515
0.395
0.265
0.13
-0.035
-0.2
-0.335
-0.46
-0.585
-0.67
-0.75
-0.825
-0.865
-0.895
-0.935
-1.035
-1.215
-1.385
-1.535
-1.65
-1.755
-1.885
-2.015
-2.13
-2.15
-2.045
-1.87
-1.72
-1.605
-1.505
-1.42
-1.37
-1.335
-1.325
-1.31
-1.285
-1.295
-1.285
-1.28
-1.305
-1.315
-1.325
-1.29
-1.235
-1.16
-1.105
-1.055
-1.01
-0.95
-0.895
-0.815
-0.77
-0.705
-0.65
-0.59
-0.505
-0.43
-0.385
-0.365
-0.355
-0.335
-0.3
-0.28
-0.26
-0.215
-0.175
-0.14
-0.105
-0.1
-0.105
-0.12
-0.145
-0.135
-0.12
-0.095
-0.07
-0.045
-0.03
0.0
0.045
0.1
0.13
0.135
0.145
0.155
0.195
0.24
0.275
0.305
0.325
0.35
0.375
0.415
0.45
0.47
0.48
0.475
0.51
0.52
0.53
0.53
0.55
0.555
0.59
0.6
0.6
0.595
0.56
0.535
0.535
0.525
0.505
0.475
0.47
0.45
0.465
0.44
0.415
0.38
0.325
0.295
0.295
0.295
0.27
0.22
0.145
0.075
0.03
-0.005
-0.03
-0.035
-0.075
-0.14
-0.17
-0.21
-0.245
-0.295
-0.36
-0.42
-0.45
-0.455
-0.45
-0.455
-0.485
-0.525
-0.54
-0.56
-0.585
-0.585
-0.585
-0.585
-0.57
-0.57
-0.59
-0.6
-0.62
-0.62
-0.625
-0.6
-0.605
-0.595
-0.59
-0.59
-0.585
-0.58
-0.575
-0.575
-0.585
-0.59
-0.605
-0.6
-0.63
-0.665
-0.7
-0.695
-0.68
-0.645
-0.645
-0.64
-0.645
-0.65
-0.645
-0.64
-0.645
-0.63
-0.62
-0.61
-0.575
-0.55
-0.525
-0.5
-0.485
-0.47
-0.425
-0.36
-0.33
-0.32
-0.345
-0.345
-0.305
-0.265
-0.22
-0.23
-0.265
-0.305
-0.325
-0.325
-0.34
-0.325
-0.325
-0.31
-0.305
-0.295
-0.305
-0.32
-0.345
-0.375
-0.385
-0.4
-0.42
-0.445
-0.48
-0.51
-0.535
-0.565
-0.585
-0.605
-0.625
-0.645
-0.66
-0.645
-0.63
-0.655
-0.67
-0.67
-0.645
-0.655
-0.685
-0.715
-0.755
-0.755
-0.73
-0.72
-0.695
-0.695
-0.71
-0.71
-0.685
-0.67
-0.665
-0.675
-0.67
-0.68
-0.68
-0.685
-0.705
-0.735
-0.73
-0.71
-0.7
-0.66
-0.64
-0.625
-0.635
-0.63
-0.655
-0.675
-0.715
-0.735
-0.725
-0.7
-0.635
-0.575
-0.505
-0.43
-0.275
0.065
0.65
1.285
1.825
2.05
2.035
1.965
1.91
1.87
1.805
1.715
1.615
1.515
1.435
1.35
1.265
1.18
1.085
0.98
0.85
0.715
0.57
0.445
0.305
0.195
0.075
-0.015
-0.105
-0.21
-0.345
-0.49
-0.58
-0.625
-0.66
-0.72
-0.755
-0.8
-0.895
-1.04
-1.23
-1.41
-1.535
-1.665
-1.795
-1.89
-1.95
-1.925
-1.87
-1.785
-1.7
-1.57
-1.47
-1.415
-1.38
-1.36
-1.32
-1.275
-1.23
-1.22
-1.225
-1.25
-1.26
-1.285
-1.275
-1.245
-1.195
-1.13
-1.065
-1.0
-0.945
-0.905
-0.855
-0.8
-0.735
-0.66
-0.61
-0.54
-0.47
-0.395
-0.315
-0.255
-0.235
-0.235
-0.23
-0.26
-0.24
-0.215
-0.185
-0.165
-0.16
-0.155
-0.135
-0.085
-0.065
-0.055
-0.045
-0.045
-0.035
-0.015
0.01
0.03
0.05
0.075
0.1
0.13
0.17
0.205
0.22
0.24
0.285
0.325
0.355
0.35
0.34
0.37
0.385
0.415
0.45
0.465
0.485
0.505
0.51
0.53
0.53
0.54
0.545
0.54
0.535
0.54
0.53
0.54
0.525
0.515
0.51
0.515
0.5
0.47
0.455
0.44
0.44
0.41
0.375
0.315
0.285
0.245
0.215
0.17
0.135
0.1
0.055
0.025
0.0
-0.04
-0.065
-0.1
-0.145
-0.17
-0.18
-0.205
-0.255
-0.275
-0.31
-0.325
-0.31
-0.305
-0.275
-0.25
-0.22
-0.2
-0.195
-0.2
-0.205
-0.225
-0.235
-0.265
-0.3
-0.32
-0.36
-0.375
-0.375
-0.35
-0.325
-0.32
-0.36
-0.41
-0.425
-0.415
-0.405
-0.425
-0.45
-0.47
-0.52
-0.54
-0.54
-0.55
-0.57
-0.58
-0.605
-0.62
-0.665
-0.705
-0.735
-0.75
-0.74
-0.735
-0.73
-0.745
-0.76
-0.79
-0.805
-0.8
-0.79
-0.77
-0.75
-0.74
-0.765
-0.795
-0.8
-0.8
-0.795
-0.79
-0.785
-0.785
-0.775
-0.765
-0.77
-0.77
-0.77
-0.78
-0.77
-0.77
-0.785
-0.78
-0.795
-0.785
-0.755
-0.74
-0.725
-0.76
-0.77
-0.775
-0.77
-0.775
-0.785
-0.795
-0.79
-0.78
-0.775
-0.775
-0.775
-0.78
-0.795
-0.815
-0.815
-0.805
-0.805
-0.795
-0.78
-0.775
-0.755
-0.745
-0.755
-0.755
-0.755
-0.72
-0.73
-0.74
-0.76
-0.765
-0.765
-0.745
-0.725
-0.735
-0.74
-0.735
-0.735
-0.72
-0.72
-0.705
-0.725
-0.725
-0.735
-0.74
-0.705
-0.685
-0.665
-0.665
-0.67
-0.67
-0.665
-0.655
-0.66
-0.645
-0.605
-0.565
-0.495
-0.41
-0.285
-0.025
0.51
1.145
1.78
2.035
2.025
1.945
1.895
1.835
1.785
1.7
1.595
1.5
1.42
1.33
1.23
1.125
1.0
0.845
0.68
0.53
0.335
0.14
-0.055
-0.27
-0.44
-0.62
-0.775
-0.935
-1.105
-1.23
-1.305
-1.355
-1.385
-1.425
-1.525
-1.66
-1.84
-1.95
-2.03
-2.085
-2.175
-2.265
-2.345
-2.385
-2.36
-2.245
-2.13
-1.975
-1.82
-1.67
-1.55
-1.485
-1.45
-1.4
-1.355
-1.345
-1.315
-1.31
-1.285
-1.28
-1.28
-1.265
-1.25
-1.195
-1.13
-1.065
-1.02
-0.975
-0.905
-0.83
-0.775
-0.72
-0.675
-0.625
-0.565
-0.51
-0.425
-0.345
-0.29
-0.24
-0.22
-0.2
-0.2
-0.195
-0.16
-0.145
-0.11
-0.075
-0.085
-0.095
-0.08
-0.08
-0.05
-0.035
-0.015
0.005
0.02
0.04
0.055
0.07
0.095
0.11
0.125
0.135
0.17
0.205
0.235
0.29
0.325
0.35
0.375
0.4
0.415
0.45
0.485
0.545
0.605
0.64
0.68
0.695
0.71
0.735
0.75
0.77
0.775
0.77
0.755
0.745
0.75
0.755
0.75
0.735
0.74
0.725
0.725
0.71
0.695
0.67
0.635
0.6
0.55
0.51
0.465
0.43
0.395
0.36
0.295
0.225
0.13
0.05
0.005
-0.02
-0.065
-0.115
-0.16
-0.205
-0.265
-0.315
-0.365
-0.415
-0.46
-0.51
-0.55
-0.58
-0.575
-0.595
-0.615
-0.64
-0.665
-0.685
-0.69
-0.715
-0.755
-0.785
-0.79
-0.785
-0.755
-0.755
-0.755
-0.77
-0.79
-0.82
-0.81
-0.8
-0.795
-0.805
-0.83
-0.84
-0.855
-0.855
-0.85
-0.855
-0.86
-0.865
-0.855
-0.84
-0.845
-0.87
-0.89
-0.89
-0.89
-0.875
-0.865
-0.865
-0.88
-0.885
-0.86
-0.85
-0.835
-0.83
-0.84
-0.855
-0.85
-0.835
-0.83
-0.84
-0.865
-0.895
-0.87
-0.855
-0.83
-0.825
-0.83
-0.825
-0.81
-0.795
-0.785
-0.8
-0.805
-0.81
