Lead II
-0.39
-0.375
-0.35
-0.33
-0.315
-0.335
-0.335
-0.335
-0.33
-0.33
-0.32
-0.31
-0.295
-0.27
-0.245
-0.225
-0.23
-0.22
-0.24
-0.265
-0.275
-0.26
-0.255
-0.25
-0.25
-0.24
-0.24
-0.23
-0.235
-0.235
-0.245
-0.225
-0.215
-0.21
-0.21
-0.225
-0.24
-0.22
-0.2
-0.19
-0.2
-0.195
-0.2
-0.205
-0.19
-0.17
-0.165
-0.17
-0.16
-0.155
-0.14
-0.13
-0.115
-0.115
-0.11
-0.105
-0.1
-0.085
-0.09
-0.095
-0.085
-0.07
-0.06
-0.04
-0.04
-0.035
-0.04
-0.025
-0.01
-0.005
0.0
0.0
0.01
0.025
0.05
0.055
0.04
0.03
0.01
0.015
0.015
0.025
0.0
0.0
-0.025
-0.02
-0.02
-0.015
-0.035
-0.045
-0.06
-0.06
-0.07
-0.075
-0.075
-0.08
-0.09
-0.105
-0.11
-0.1
-0.095
-0.115
-0.12
-0.13
-0.11
-0.11
-0.125
-0.135
-0.135
-0.125
-0.115
-0.11
-0.12
-0.125
-0.135
-0.125
-0.135
-0.13
-0.135
-0.135
-0.135
-0.14
-0.13
-0.135
-0.145
-0.135
-0.15
-0.13
-0.12
-0.105
-0.12
-0.12
-0.14
-0.14
-0.145
-0.155
-0.17
-0.18
-0.195
-0.18
-0.19
-0.2
-0.195
-0.19
-0.185
-0.18
-0.185
-0.19
-0.215
-0.225
-0.245
-0.235
-0.235
-0.235
-0.25
-0.255
-0.265
-0.245
-0.24
-0.225
-0.235
-0.23
-0.24
-0.24
-0.235
-0.23
-0.22
-0.23
-0.22
-0.21
-0.2
-0.205
-0.205
-0.215
-0.2
-0.185
-0.175
-0.17
-0.185
-0.185
-0.21
-0.215
-0.22
-0.185
-0.12
-0.035
0.05
0.16
0.27
0.38
0.47
0.565
0.68
0.81
0.94
1.01
1.025
0.955
0.82
0.655
0.455
0.16
-0.15
-0.375
-0.495
-0.535
-0.525
-0.49
-0.43
-0.39
-0.36
-0.33
-0.32
-0.305
-0.31
-0.315
-0.33
-0.335
-0.335
-0.315
-0.315
-0.315
-0.305
-0.285
-0.265
-0.25
-0.255
-0.26
-0.26
-0.245
-0.25
-0.23
-0.235
-0.25
-0.265
-0.25
-0.245
-0.23
-0.235
-0.245
-0.255
-0.25
-0.245
-0.245
-0.24
-0.235
-0.235
-0.22
-0.23
-0.225
-0.225
-0.215
-0.23
-0.23
-0.215
-0.21
-0.195
-0.19
-0.2
-0.19
-0.175
-0.155
-0.155
-0.16
-0.16
-0.15
-0.14
-0.14
-0.14
-0.13
-0.13
-0.11
-0.115
-0.095
-0.09
-0.095
-0.095
-0.085
-0.075
-0.07
-0.065
-0.055
-0.055
-0.045
-0.025
-0.02
-0.03
-0.045
-0.045
-0.035
-0.03
-0.02
-0.035
-0.035
-0.045
-0.045
-0.03
-0.05
-0.055
-0.06
-0.07
-0.065
-0.065
-0.07
-0.08
-0.095
-0.105
-0.11
-0.095
-0.1
-0.11
-0.135
-0.14
-0.135
-0.13
-0.13
-0.14
-0.145
-0.165
-0.155
-0.155
-0.145
-0.145
-0.16
-0.17
-0.175
-0.16
-0.15
-0.145
-0.155
-0.165
-0.175
-0.165
-0.16
-0.17
-0.18
-0.19
-0.185
-0.175
-0.18
-0.19
-0.2
-0.22
-0.225
-0.205
-0.22
-0.2
-0.21
-0.215
-0.21
-0.205
-0.2
-0.21
-0.205
-0.215
-0.22
-0.225
-0.225
-0.225
-0.22
-0.22
-0.215
-0.225
-0.215
-0.215
-0.21
-0.225
-0.215
-0.21
-0.205
-0.205
-0.22
-0.22
-0.215
-0.205
-0.2
-0.215
-0.22
-0.21
-0.195
-0.185
-0.19
-0.19
-0.195
-0.2
-0.19
-0.17
-0.145
-0.145
-0.16
-0.165
-0.135
-0.12
-0.125
-0.125
-0.13
-0.12
-0.095
-0.075
-0.075
-0.09
-0.105
-0.115
-0.115
-0.115
-0.115
-0.12
-0.13
-0.13
-0.135
-0.115
-0.095
-0.1
-0.105
-0.13
-0.13
-0.145
-0.15
-0.165
-0.16
-0.165
-0.16
-0.175
-0.165
-0.175
-0.18
-0.195
-0.195
-0.185
-0.175
-0.18
-0.18
-0.195
-0.185
-0.17
-0.18
-0.18
-0.19
-0.19
-0.185
-0.175
-0.16
-0.16
-0.17
-0.165
-0.17
-0.175
-0.19
-0.2
-0.19
-0.165
-0.11
-0.035
0.05
0.145
0.225
0.33
0.435
0.54
0.64
0.735
0.835
0.92
0.985
1.015
0.975
0.875
0.745
0.605
0.475
0.27
0.03
-0.17
-0.3
-0.37
-0.39
-0.36
-0.335
-0.29
-0.265
-0.255
-0.24
-0.255
-0.28
-0.295
-0.29
-0.3
-0.3
-0.305
-0.31
-0.32
-0.32
-0.315
-0.3
-0.285
-0.275
-0.265
-0.26
-0.26
-0.255
-0.235
-0.23
-0.235
-0.25
-0.26
-0.245
-0.235
-0.23
-0.24
-0.25
-0.255
-0.25
-0.24
-0.235
-0.225
-0.23
-0.235
-0.235
-0.225
-0.225
-0.215
-0.21
-0.215
-0.215
-0.205
-0.2
-0.2
-0.21
-0.21
-0.215
-0.19
-0.19
-0.19
-0.185
-0.18
-0.155
-0.16
-0.155
-0.165
-0.16
-0.15
-0.14
-0.13
-0.11
-0.11
-0.115
-0.105
-0.105
-0.085
-0.08
-0.08
-0.07
-0.07
-0.06
-0.05
-0.04
-0.035
-0.03
-0.025
-0.025
-0.025
-0.015
-0.015
-0.005
-0.005
0.01
0.02
0.01
0.025
0.025
0.025
0.02
0.03
0.035
0.02
0.01
0.0
0.02
0.035
0.03
0.015
0.005
-0.02
-0.02
-0.015
-0.02
-0.025
-0.035
-0.045
-0.05
-0.03
-0.02
-0.04
-0.045
-0.06
-0.06
-0.05
-0.07
-0.07
-0.08
-0.1
-0.095
-0.09
-0.085
-0.09
-0.095
-0.115
-0.105
-0.095
-0.09
-0.095
-0.1
-0.1
-0.095
-0.095
-0.11
-0.12
-0.12
-0.11
-0.12
-0.105
-0.11
-0.12
-0.125
-0.145
-0.15
-0.15
-0.165
-0.16
-0.175
-0.175
-0.16
-0.155
-0.16
-0.16
-0.17
-0.195
-0.19
-0.2
-0.2
-0.195
-0.2
-0.19
-0.18
-0.175
-0.175
-0.185
-0.18
-0.18
-0.17
-0.165
-0.17
-0.17
-0.17
-0.17
-0.16
-0.16
-0.16
-0.16
-0.155
-0.155
-0.145
-0.12
-0.11
-0.11
-0.095
-0.1
-0.09
-0.09
-0.095
-0.095
-0.095
-0.09
-0.09
-0.055
-0.06
-0.065
-0.08
-0.095
-0.1
-0.09
-0.095
-0.11
-0.125
-0.125
-0.12
-0.115
-0.105
-0.105
-0.13
-0.135
-0.135
-0.115
-0.1
-0.095
-0.11
-0.11
-0.095
-0.085
-0.09
-0.095
-0.115
-0.13
-0.14
-0.14
-0.15
-0.15
-0.13
-0.12
-0.12
-0.13
-0.135
-0.135
-0.135
-0.14
-0.125
-0.115
-0.12
-0.12
-0.13
-0.135
-0.14
-0.16
-0.165
-0.17
-0.17
-0.145
-0.065
0.015
0.125
0.225
0.32
0.41
0.505
0.62
0.73
0.835
0.93
0.955
0.905
0.795
0.675
0.52
0.285
0.0
-0.23
-0.37
-0.43
-0.44
-0.41
-0.36
-0.33
-0.305
-0.28
-0.28
-0.285
-0.28
-0.29
-0.28
-0.295
-0.3
-0.315
-0.31
-0.31
-0.28
-0.265
-0.265
-0.245
-0.245
-0.23
-0.215
-0.225
-0.235
-0.24
-0.24
-0.245
-0.23
-0.215
-0.215
-0.225
-0.225
-0.225
-0.22
-0.215
-0.215
-0.23
-0.23
-0.21
-0.18
-0.17
-0.19
-0.21
-0.215
-0.2
-0.185
-0.19
-0.19
-0.19
-0.18
-0.165
-0.165
-0.155
-0.15
-0.155
-0.155
-0.145
-0.12
-0.12
-0.12
-0.125
-0.115
-0.08
-0.06
-0.045
-0.055
-0.06
-0.05
-0.03
-0.03
-0.025
-0.035
-0.045
-0.04
-0.02
-0.005
0.005
0.005
-0.005
0.005
0.01
0.03
0.035
0.04
0.045
0.04
0.035
0.025
0.02
0.01
0.0
-0.01
-0.005
-0.01
-0.01
-0.015
-0.025
-0.045
-0.04
-0.045
-0.055
-0.055
-0.07
-0.075
-0.075
-0.075
-0.065
-0.07
-0.07
-0.08
-0.095
-0.11
-0.12
-0.125
-0.13
-0.125
-0.105
-0.115
-0.12
-0.13
-0.145
-0.175
-0.16
-0.135
-0.125
-0.125
-0.13
-0.14
-0.14
-0.135
-0.13
-0.14
-0.145
-0.155
-0.145
-0.15
-0.15
-0.17
-0.19
-0.19
-0.18
-0.17
-0.165
-0.17
-0.19
-0.2
-0.205
-0.19
-0.19
-0.195
-0.21
-0.205
-0.215
-0.21
-0.2
-0.205
-0.215
-0.22
-0.205
-0.2
-0.19
-0.19
-0.205
-0.195
-0.195
-0.185
-0.185
-0.19
-0.21
-0.195
-0.185
-0.16
-0.145
-0.14
-0.15
-0.135
-0.14
-0.135
-0.14
-0.13
-0.12
-0.1
-0.085
-0.095
-0.11
-0.12
-0.14
-0.15
-0.15
-0.155
-0.15
-0.15
-0.16
-0.165
-0.145
-0.135
-0.13
-0.14
-0.16
-0.17
-0.16
-0.155
-0.15
-0.14
-0.155
-0.155
-0.14
-0.13
-0.12
-0.115
-0.12
-0.125
-0.135
-0.145
-0.145
-0.145
-0.16
-0.175
-0.165
-0.16
-0.16
-0.155
-0.155
-0.155
-0.15
-0.15
-0.14
-0.145
-0.145
-0.135
-0.125
-0.12
-0.13
-0.14
-0.145
-0.16
-0.165
-0.165
-0.175
-0.155
-0.13
-0.08
0.01
0.11
0.215
0.325
0.405
0.485
0.58
0.695
0.805
0.905
0.98
1.035
1.01
0.915
0.785
0.61
0.35
0.02
-0.255
-0.415
-0.48
-0.505
-0.5
-0.47
-0.395
-0.34
-0.305
-0.29
-0.29
-0.31
-0.32
-0.325
-0.315
-0.32
-0.33
-0.33
-0.32
-0.3
-0.29
-0.28
-0.265
-0.26
-0.245
-0.235
-0.24
-0.24
-0.245
-0.26
-0.255
-0.245
-0.245
-0.235
-0.235
-0.25
-0.25
-0.245
-0.24
-0.245
-0.25
-0.235
-0.225
-0.22
-0.225
-0.225
-0.24
-0.235
-0.235
-0.225
-0.21
-0.21
-0.195
-0.21
-0.215
-0.21
-0.205
-0.195
-0.195
-0.185
-0.175
-0.16
-0.15
-0.15
-0.14
-0.145
-0.125
-0.125
-0.13
-0.125
-0.125
-0.12
-0.08
-0.065
-0.06
-0.055
-0.05
-0.05
-0.045
-0.035
-0.025
-0.025
-0.025
-0.025
-0.02
-0.005
-0.005
-0.02
-0.035
-0.05
-0.035
-0.035
-0.04
-0.045
-0.04
-0.045
-0.045
-0.05
-0.05
-0.055
-0.07
-0.09
-0.085
-0.085
-0.08
-0.075
-0.08
-0.09
-0.1
-0.105
-0.115
-0.115
-0.115
-0.13
-0.13
-0.115
-0.11
-0.12
-0.135
-0.14
-0.14
-0.12
-0.125
-0.13
-0.15
-0.17
-0.175
-0.17
-0.165
-0.16
-0.18
-0.2
-0.195
-0.185
-0.18
-0.18
-0.185
-0.185
-0.195
-0.19
-0.2
-0.21
-0.215
-0.225
-0.215
-0.225
-0.215
-0.22
-0.23
-0.23
-0.235
-0.22
-0.215
-0.215
-0.215
-0.215
-0.2
-0.19
-0.18
-0.18
-0.19
-0.175
-0.175
-0.175
-0.16
-0.16
-0.15
-0.15
-0.155
-0.16
-0.175
-0.185
-0.21
-0.215
-0.205
-0.2
-0.2
-0.2
-0.2
-0.22
-0.2
-0.205
-0.195
-0.205
-0.2
-0.2
-0.185
-0.18
-0.17
-0.16
-0.165
-0.18
-0.19
-0.195
-0.21
-0.21
-0.22
-0.21
-0.2
-0.205
-0.21
-0.205
-0.205
-0.215
-0.2
-0.18
-0.185
-0.195
-0.2
-0.185
-0.175
-0.16
-0.16
-0.16
-0.17
-0.18
-0.175
-0.19
-0.21
-0.23
-0.24
-0.215
-0.14
-0.06
0.025
0.125
0.215
0.305
0.405
0.505
0.595
0.73
0.84
0.935
1.005
1.03
0.975
0.86
0.72
0.54
0.295
0.005
-0.245
-0.385
-0.455
-0.485
-0.48
-0.455
-0.425
-0.375
-0.34
-0.305
-0.305
-0.3
-0.325
-0.33
-0.35
-0.36
-0.365
-0.37
-0.365
-0.36
-0.355
-0.36
-0.335
-0.32
-0.31
-0.305
-0.315
-0.295
-0.29
-0.29
-0.295
-0.285
-0.285
-0.305
-0.31
-0.31
-0.29
-0.285
-0.28
-0.29
-0.28
-0.28
-0.26
-0.27
-0.275
-0.275
-0.275
-0.26
-0.25
-0.25
-0.255
-0.27
-0.25
-0.245
-0.23
-0.235
-0.25
-0.245
-0.23
-0.22
-0.215
-0.21
-0.225
-0.215
-0.21
-0.19
-0.18
-0.17
-0.17
-0.165
-0.165
-0.135
-0.145
-0.14
-0.145
-0.145
-0.135
-0.125
-0.12
-0.11
-0.1
-0.08
-0.07
-0.065
-0.06
-0.055
-0.055
-0.06
-0.04
-0.015
-0.02
-0.025
-0.04
-0.03
-0.025
-0.015
-0.02
-0.02
-0.04
-0.025
-0.03
-0.03
-0.05
-0.06
-0.07
-0.07
-0.07
-0.07
-0.085
-0.09
-0.105
-0.12
-0.12
-0.105
-0.1
-0.105
-0.13
-0.155
-0.15
-0.14
-0.14
-0.135
-0.15
-0.145
-0.135
-0.135
-0.14
-0.15
-0.175
-0.17
-0.16
-0.16
-0.165
-0.16
-0.175
-0.175
-0.18
-0.175
-0.175
-0.165
-0.175
-0.19
-0.21
-0.215
-0.215
-0.205
-0.22
-0.23
-0.25
-0.23
-0.21
-0.215
-0.235
-0.24
-0.24
-0.23
-0.225
-0.235
-0.23
-0.24
-0.245
-0.245
-0.24
-0.245
-0.26
-0.255
-0.245
-0.24
-0.235
-0.23
-0.225
-0.225
-0.205
-0.175
-0.175
-0.18
-0.185
-0.18
-0.165
-0.145
-0.13
-0.14
-0.16
-0.16
-0.165
-0.155
-0.15
-0.165
-0.19
-0.21
-0.2
-0.19
-0.19
-0.195
-0.2
-0.21
-0.21
-0.2
-0.2
-0.205
-0.215
-0.195
-0.175
-0.165
-0.155
-0.15
-0.16
-0.17
-0.16
-0.15
-0.145
-0.155
-0.17
-0.19
-0.18
-0.185
-0.19
-0.19
-0.195
-0.195
-0.185
-0.165
-0.165
-0.185
-0.19
-0.19
-0.18
-0.18
-0.2
-0.215
-0.215
-0.2
-0.175
-0.18
-0.2
-0.21
-0.205
-0.21
-0.21
-0.21
-0.19
-0.16
-0.11
-0.045
0.035
0.125
0.225
0.33
0.41
0.49
0.59
0.695
0.81
0.91
0.995
1.03
1.005
0.89
0.76
0.62
0.445
0.21
-0.05
-0.24
-0.365
-0.44
-0.455
-0.46
-0.42
-0.37
-0.335
-0.32
-0.315
-0.33
-0.33
-0.335
-0.33
-0.34
-0.36
-0.37
-0.37
-0.36
-0.36
-0.36
-0.365
-0.365
-0.325
-0.305
-0.31
-0.305
-0.31
-0.315
-0.285
-0.275
-0.265
-0.27
-0.29
-0.295
-0.29
-0.275
-0.275
-0.285
-0.29
-0.28
-0.27
-0.27
-0.265
-0.285
-0.29
-0.3
-0.3
-0.28
-0.275
-0.285
-0.295
-0.3
-0.29
-0.27
-0.265
-0.26
-0.27
-0.275
-0.265
-0.255
-0.245
-0.23
-0.23
-0.23
-0.21
-0.195
-0.175
-0.185
-0.205
-0.205
-0.185
-0.165
-0.145
-0.155
-0.165
-0.175
-0.17
-0.145
-0.14
-0.13
-0.145
-0.16
-0.15
-0.135
-0.11
-0.1
-0.1
-0.12
-0.12
-0.08
-0.06
-0.04
-0.055
-0.055
-0.05
-0.04
-0.035
-0.035
-0.05
-0.06
-0.05
-0.025
-0.015
-0.02
-0.045
-0.055
-0.05
-0.045
-0.065
-0.07
-0.085
-0.095
-0.1
-0.1
-0.105
-0.09
-0.09
-0.095
-0.11
-0.11
-0.09
-0.085
-0.1
-0.11
-0.11
-0.095
-0.085
-0.08
-0.105
-0.135
-0.16
-0.16
-0.15
-0.135
-0.115
-0.115
-0.125
-0.12
-0.125
-0.135
-0.155
-0.165
-0.145
-0.13
-0.11
-0.095
-0.09
-0.1
-0.09
-0.105
-0.105
-0.11
-0.13
-0.14
-0.125
-0.12
-0.135
-0.15
-0.17
-0.16
-0.15
-0.15
-0.15
-0.155
-0.155
-0.145
-0.14
-0.16
-0.195
-0.215
-0.24
-0.255
-0.26
-0.255
-0.245
-0.235
-0.23
-0.25
-0.255
-0.26
-0.26
-0.26
-0.245
-0.235
-0.22
-0.21
-0.225
-0.265
-0.305
-0.29
-0.275
-0.24
-0.24
-0.235
-0.23
-0.23
-0.23
-0.215
-0.215
-0.215
-0.22
-0.215
-0.2
-0.165
-0.125
-0.085
-0.04
0.015
0.06
0.09
0.09
0.115
0.195
0.305
0.4
0.395
0.27
0.06
-0.19
-0.365
-0.48
-0.55
-0.605
-0.64
-0.675
-0.745
-0.84
-0.915
-0.945
-0.955
-0.97
-0.97
-0.955
-0.945
-0.94
-0.915
-0.83
-0.73
-0.59
-0.475
-0.37
-0.305
-0.275
-0.255
-0.255
-0.25
-0.255
-0.255
-0.25
-0.22
-0.18
-0.145
-0.125
-0.125
-0.135
-0.145
-0.11
-0.06
-0.045
-0.05
-0.08
-0.075
-0.045
-0.03
-0.065
-0.085
-0.12
-0.125
-0.095
-0.07
-0.045
-0.05
-0.05
-0.03
-0.02
-0.005
-0.005
0.015
0.015
0.025
0.035
0.05
0.055
0.075
0.07
0.085
0.11
0.155
0.155
0.14
0.12
0.11
0.125
0.14
0.175
0.19
0.205
0.215
0.21
0.2
0.195
0.2
0.195
0.18
0.195
0.195
0.2
0.2
0.17
0.16
0.165
0.165
0.14
0.125
0.115
0.11
0.125
0.125
0.1
0.08
0.045
0.03
0.02
0.0
-0.025
-0.05
-0.075
-0.085
-0.085
-0.09
-0.11
-0.13
-0.145
-0.15
-0.16
-0.165
-0.17
-0.18
-0.18
-0.175
-0.165
-0.155
-0.17
-0.185
-0.195
-0.195
-0.18
-0.175
-0.185
-0.205
-0.235
-0.225
-0.215
-0.21
-0.21
-0.205
-0.195
-0.19
-0.18
-0.185
-0.18
-0.17
-0.17
-0.175
-0.19
-0.2
-0.205
-0.205
-0.2
-0.195
-0.195
-0.19
-0.175
-0.175
-0.18
-0.165
-0.15
-0.145
-0.155
-0.175
-0.21
-0.215
-0.21
-0.18
-0.185
-0.2
-0.205
-0.18
-0.17
-0.155
-0.17
-0.185
-0.2
-0.21
-0.21
-0.195
-0.185
-0.16
-0.175
-0.2
-0.21
-0.185
-0.165
-0.145
-0.17
-0.18
-0.175
-0.17
-0.175
-0.19
-0.2
-0.2
-0.185
-0.16
-0.15
-0.145
-0.135
-0.14
-0.13
-0.13
-0.15
-0.155
-0.145
-0.135
-0.145
-0.175
-0.215
-0.23
-0.225
-0.195
-0.175
-0.155
-0.165
-0.16
-0.165
-0.16
-0.17
-0.17
-0.17
-0.17
-0.17
-0.165
-0.145
-0.145
-0.16
-0.145
-0.16
-0.145
-0.14
-0.13
-0.14
-0.14
-0.155
-0.16
-0.155
-0.15
-0.14
-0.145
-0.15
-0.155
-0.14
-0.125
-0.115
-0.115
-0.125
-0.12
-0.105
-0.105
-0.09
-0.09
-0.095
-0.065
-0.04
-0.025
-0.05
-0.09
-0.125
-0.125
-0.115
-0.09
-0.09
-0.1
-0.125
-0.135
-0.14
-0.11
-0.09
-0.095
-0.1
-0.105
-0.105
-0.105
-0.115
-0.135
-0.155
-0.16
-0.15
-0.14
-0.145
-0.16
-0.16
-0.16
-0.145
-0.125
-0.13
-0.14
-0.16
-0.165
-0.155
-0.135
-0.14
-0.14
-0.145
-0.155
-0.15
-0.13
-0.12
-0.115
-0.125
-0.125
-0.14
-0.14
-0.17
-0.18
-0.195
-0.16
-0.13
-0.065
0.015
0.1
0.19
0.3
0.415
0.52
0.605
0.67
0.76
0.865
0.96
1.055
1.09
1.055
0.96
0.835
0.69
0.505
0.26
-0.02
-0.21
-0.325
-0.365
-0.365
-0.355
-0.325
-0.295
-0.265
-0.225
-0.205
-0.215
-0.245
-0.28
-0.31
-0.305
-0.295
-0.29
-0.28
-0.29
-0.3
-0.3
-0.28
-0.265
-0.26
-0.24
-0.22
-0.195
-0.19
-0.2
-0.215
-0.23
-0.23
-0.225
-0.225
-0.21
-0.215
-0.22
-0.23
-0.22
-0.225
-0.22
-0.23
-0.235
-0.235
-0.23
-0.23
-0.225
-0.21
-0.21
-0.205
-0.195
-0.195
-0.2
-0.21
-0.22
-0.225
-0.215
-0.205
-0.21
-0.21
-0.22
-0.205
-0.19
-0.18
-0.18
-0.175
-0.185
-0.175
-0.145
-0.135
-0.135
-0.145
-0.14
-0.14
-0.115
-0.1
-0.095
-0.12
-0.12
-0.11
-0.09
-0.085
-0.085
-0.085
-0.085
-0.07
-0.055
-0.05
-0.055
-0.05
-0.04
-0.035
-0.03
-0.025
-0.02
-0.03
-0.04
-0.025
0.0
0.01
-0.01
-0.01
-0.015
-0.01
0.0
-0.005
-0.015
-0.03
-0.04
-0.025
-0.005
0.005
-0.005
-0.025
-0.05
-0.06
-0.05
-0.035
-0.04
-0.045
-0.055
-0.06
-0.07
-0.07
-0.08
-0.075
-0.095
-0.1
-0.08
-0.08
-0.09
-0.1
-0.105
-0.12
-0.1
-0.095
-0.11
-0.12
-0.125
-0.125
-0.135
-0.115
-0.12
-0.125
-0.13
-0.15
-0.135
-0.13
-0.135
-0.135
-0.145
-0.16
-0.16
-0.145
-0.145
-0.155
-0.17
-0.155
-0.115
-0.07
-0.055
-0.055
-0.07
-0.075
-0.08
-0.055
-0.03
-0.005
-0.005
-0.005
0.0
0.02
0.04
0.07
0.08
0.1
0.12
0.085
0.035
-0.02
-0.075
-0.16
-0.325
-0.605
-0.96
-1.305
-1.595
-1.79
-1.885
-1.935
-1.975
-1.98
-1.945
-1.935
-1.905
-1.83
-1.755
-1.645
-1.57
-1.48
-1.375
-1.285
-1.215
-1.13
-1.06
-0.97
-0.885
-0.815
-0.775
-0.71
-0.65
-0.57
-0.52
-0.51
-0.5
-0.48
-0.435
-0.4
-0.335
-0.26
-0.2
-0.16
-0.12
-0.08
-0.03
0.02
0.06
0.075
0.11
0.135
0.15
0.17
0.175
0.185
0.185
0.185
0.19
0.235
0.275
0.315
0.345
0.34
0.365
0.38
0.38
0.37
0.375
0.385
0.41
0.43
0.445
0.46
0.48
0.5
0.52
0.53
0.535
0.555
0.57
0.56
0.575
0.585
0.59
0.595
0.61
0.615
0.625
0.65
0.67
0.685
0.68
0.67
0.665
0.665
0.66
0.665
0.665
0.66
0.675
0.68
0.685
0.665
0.64
0.625
0.615
0.61
0.6
0.57
0.535
0.515
0.505
0.5
0.485
0.465
0.425
0.405
0.39
0.39
0.365
0.335
0.305
0.28
0.27
0.265
0.235
0.21
0.195
0.185
0.175
0.16
0.145
0.13
0.12
0.095
0.09
0.085
0.075
0.06
0.045
0.025
0.015
0.025
0.035
0.02
0.005
-0.025
-0.035
-0.035
-0.045
-0.05
-0.055
-0.04
-0.03
-0.035
-0.06
-0.075
-0.09
-0.08
-0.07
-0.05
-0.045
-0.02
0.0
0.025
0.045
0.035
0.0
-0.03
-0.025
-0.035
-0.045
-0.09
-0.15
-0.19
-0.185
-0.125
-0.045
0.0
-0.005
-0.055
-0.14
-0.19
-0.195
-0.16
-0.14
-0.11
-0.085
-0.095
-0.14
-0.16
-0.16
-0.155
-0.115
-0.075
-0.035
-0.04
-0.09
-0.175
-0.245
-0.265
-0.26
-0.215
-0.17
-0.115
-0.08
-0.055
-0.07
-0.11
-0.18
-0.215
-0.23
-0.235
-0.23
-0.205
-0.155
-0.15
-0.165
-0.19
-0.19
-0.185
-0.175
-0.19
-0.19
-0.2
-0.165
-0.12
-0.1
-0.11
-0.16
-0.2
-0.2
-0.175
-0.165
-0.165
-0.165
-0.125
-0.09
-0.09
-0.13
-0.18
-0.215
-0.215
-0.185
-0.15
-0.14
-0.18
-0.215
-0.22
-0.19
-0.15
-0.155
-0.16
-0.17
-0.18
-0.18
-0.18
-0.165
-0.17
-0.16
-0.165
-0.19
-0.18
-0.17
-0.165
-0.16
-0.16
-0.15
-0.14
-0.14
-0.14
-0.15
-0.155
-0.14
-0.135
-0.15
-0.16
-0.16
-0.16
-0.14
-0.13
-0.145
-0.135
-0.14
-0.155
-0.15
-0.125
-0.12
-0.125
-0.135
-0.165
-0.175
-0.165
-0.14
-0.13
-0.15
-0.175
-0.2
-0.2
-0.2
-0.2
-0.215
-0.2
-0.16
-0.125
-0.11
-0.105
-0.075
-0.055
-0.03
-0.05
-0.09
-0.115
-0.11
-0.105
-0.145
-0.175
-0.225
-0.22
-0.195
-0.165
-0.155
-0.14
-0.165
-0.205
-0.215
-0.2
-0.155
-0.105
-0.1
-0.12
-0.13
-0.11
-0.065
-0.015
0.01
-0.005
-0.065
-0.12
-0.155
-0.16
-0.155
-0.14
-0.095
-0.035
0.015
0.045
0.04
-0.055
-0.18
-0.255
-0.26
-0.195
-0.15
-0.155
-0.2
-0.195
-0.165
-0.15
-0.16
-0.165
-0.15
-0.135
-0.145
-0.15
-0.16
-0.17
-0.165
-0.155
-0.145
-0.14
-0.14
-0.145
-0.14
-0.14
-0.13
-0.13
-0.145
-0.15
-0.165
-0.175
-0.16
-0.145
-0.12
-0.035
0.075
0.205
0.365
0.56
0.68
0.71
0.71
0.74
0.81
0.915
1.03
1.095
1.04
0.805
0.465
0.015
-0.35
-0.53
-0.57
-0.575
-0.545
-0.49
-0.43
-0.385
-0.37
-0.33
-0.305
-0.3
-0.32
-0.335
-0.34
-0.34
-0.33
-0.3
-0.29
-0.285
-0.3
-0.32
-0.3
-0.29
-0.29
-0.27
-0.28
-0.265
-0.25
-0.245
-0.25
-0.245
-0.255
-0.245
-0.245
-0.255
-0.24
-0.23
-0.21
-0.185
-0.16
-0.17
-0.21
-0.23
-0.225
-0.22
-0.215
-0.22
-0.245
-0.25
-0.26
-0.295
-0.32
-0.325
-0.305
-0.265
-0.245
-0.245
-0.23
-0.21
-0.205
-0.205
-0.22
-0.225
-0.21
-0.195
-0.19
-0.195
-0.19
-0.18
-0.165
-0.155
-0.165
-0.175
-0.18
-0.19
-0.175
-0.16
-0.15
-0.13
-0.13
-0.13
-0.145
-0.15
-0.15
-0.17
-0.2
-0.2
-0.175
-0.155
-0.16
-0.145
-0.13
-0.115
-0.105
-0.085
-0.075
-0.065
-0.065
-0.065
-0.06
-0.045
-0.035
-0.045
-0.025
0.005
0.02
0.05
0.045
0.08
0.105
0.12
0.1
0.02
-0.09
-0.155
-0.145
-0.09
-0.055
-0.03
-0.02
-0.025
-0.03
-0.045
-0.055
-0.045
-0.045
-0.045
-0.05
-0.04
-0.04
-0.035
-0.05
-0.07
-0.06
-0.05
-0.035
-0.03
-0.04
-0.05
-0.055
-0.055
-0.045
-0.04
-0.05
-0.05
-0.05
-0.055
-0.045
-0.04
-0.055
-0.065
-0.055
-0.055
-0.025
0.005
0.03
0.04
0.065
0.1
0.135
0.13
0.105
0.115
0.135
0.19
0.215
0.19
0.035
-0.26
-0.665
-1.095
-1.475
-1.755
-1.985
-2.115
-2.17
-2.165
-2.145
-2.12
-2.095
-2.03
-1.935
-1.8
-1.64
-1.525
-1.475
-1.43
-1.35
-1.205
-1.03
-0.875
-0.81
-0.75
-0.685
-0.58
-0.505
-0.425
-0.365
-0.295
-0.255
-0.18
-0.07
0.055
0.135
0.18
0.195
0.245
0.3
0.35
0.37
0.39
0.4
0.42
0.445
0.48
0.52
0.55
0.55
0.56
0.575
0.575
0.605
0.585
0.565
0.575
0.615
0.66
0.7
0.73
0.745
0.715
0.71
0.735
0.795
0.79
0.755
0.715
0.715
0.78
0.83
0.86
0.855
0.845
0.83
0.81
0.805
0.84
0.87
0.885
0.89
0.89
0.88
0.89
0.89
0.895
0.875
0.845
0.805
0.795
0.77
0.755
0.725
0.725
0.72
0.685
0.65
0.615
0.585
0.57
0.535
0.5
0.465
0.445
0.43
0.415
0.385
0.37
0.365
0.355
0.31
0.245
0.195
0.19
0.19
0.205
0.215
0.22
0.175
0.11
0.05
0.035
0.045
0.06
0.075
0.065
0.05
0.025
0.035
0.04
0.04
0.04
0.03
0.035
0.035
0.03
0.025
0.01
0.005
0.005
0.005
0.01
0.025
0.015
0.02
0.015
0.02
0.01
0.015
0.01
0.0
0.0
0.005
-0.015
-0.04
-0.05
-0.045
-0.015
0.025
0.025
-0.04
-0.1
-0.145
-0.13
-0.1
-0.055
-0.07
-0.075
-0.075
-0.075
-0.05
-0.04
-0.04
-0.04
-0.055
-0.065
-0.09
-0.085
-0.08
-0.08
-0.075
-0.07
-0.065
-0.045
-0.03
-0.025
-0.035
-0.035
-0.045
-0.045
-0.05
-0.055
-0.07
-0.07
-0.05
-0.025
-0.01
-0.025
-0.05
-0.055
-0.03
0.005
0.025
0.02
0.005
-0.005
-0.005
0.03
0.04
0.01
-0.045
-0.09
-0.07
-0.03
0.01
0.015
-0.005
-0.03
-0.035
-0.015
0.0
0.01
-0.01
-0.025
-0.025
-0.015
-0.01
-0.025
-0.025
-0.01
0.0
-0.01
-0.015
-0.02
-0.03
-0.02
0.005
0.04
0.02
-0.01
-0.055
-0.055
-0.03
-0.005
0.01
-0.005
-0.005
0.015
0.035
0.05
0.03
-0.01
-0.035
-0.025
0.0
0.025
0.045
0.02
-0.005
0.015
0.02
0.035
0.01
-0.02
-0.045
-0.025
-0.01
-0.02
-0.055
-0.065
-0.045
-0.015
-0.015
-0.015
-0.035
-0.03
-0.035
-0.025
-0.03
-0.035
-0.03
-0.03
-0.04
-0.02
-0.015
-0.025
-0.045
-0.065
-0.07
-0.08
-0.06
-0.06
-0.07
-0.075
-0.08
-0.09
-0.1
-0.11
-0.11
-0.095
-0.085
-0.055
-0.05
-0.04
-0.06
-0.085
-0.11
-0.135
-0.13
-0.1
-0.04
0.045
0.135
0.24
0.36
0.47
0.55
0.64
0.72
0.825
0.93
1.015
1.015
0.96
0.85
0.76
0.635
0.465
0.2
-0.05
-0.255
-0.36
-0.405
-0.39
-0.335
-0.28
-0.27
-0.27
-0.26
-0.255
-0.24
-0.25
-0.26
-0.26
-0.25
-0.24
-0.24
-0.25
-0.255
-0.24
-0.21
-0.19
-0.185
-0.22
-0.235
-0.235
-0.22
-0.215
-0.215
-0.23
-0.245
-0.225
-0.205
-0.19
-0.195
-0.2
-0.22
-0.235
-0.235
-0.23
-0.225
-0.225
-0.23
-0.22
-0.22
-0.2
-0.2
-0.2
-0.21
-0.205
-0.2
-0.19
-0.185
-0.195
-0.2
-0.19
-0.18
-0.175
-0.185
-0.185
-0.18
-0.14
-0.125
-0.09
-0.115
-0.185
-0.255
-0.255
-0.21
-0.175
-0.17
-0.18
-0.19
-0.18
-0.16
-0.13
-0.14
-0.17
-0.19
-0.185
-0.155
-0.14
-0.13
-0.14
-0.145
-0.135
-0.11
-0.1
-0.09
-0.09
-0.095
-0.11
-0.12
-0.1
-0.105
-0.12
-0.125
-0.13
-0.1
-0.075
-0.08
-0.095
-0.1
-0.095
-0.085
-0.07
-0.06
-0.06
-0.06
-0.04
-0.025
-0.025
-0.04
-0.07
-0.095
-0.095
-0.085
-0.07
-0.065
-0.065
-0.055
-0.06
-0.055
-0.06
-0.075
-0.115
-0.14
-0.125
-0.105
-0.1
-0.11
-0.095
-0.09
-0.075
-0.08
-0.095
-0.12
-0.13
-0.12
-0.08
-0.05
-0.04
-0.09
-0.165
-0.195
-0.21
-0.2
-0.185
-0.16
-0.15
-0.155
-0.16
-0.155
-0.15
-0.16
-0.16
-0.175
-0.175
-0.165
-0.16
-0.16
-0.16
-0.175
-0.15
-0.155
-0.15
-0.16
-0.18
-0.185
-0.17
-0.165
-0.155
-0.155
-0.165
-0.165
-0.145
-0.12
-0.13
-0.13
-0.16
-0.175
-0.18
-0.17
-0.145
-0.13
-0.13
-0.14
-0.145
-0.15
-0.145
-0.125
-0.095
-0.085
-0.07
-0.07
-0.07
-0.07
-0.085
-0.105
-0.085
-0.045
-0.015
-0.005
-0.02
-0.065
-0.09
-0.115
-0.105
-0.105
-0.1
-0.115
-0.125
-0.16
-0.175
-0.165
-0.15
-0.15
-0.13
-0.12
-0.115
-0.115
-0.13
-0.135
-0.13
-0.125
-0.115
-0.105
-0.11
-0.12
-0.11
-0.095
-0.09
-0.115
-0.14
-0.15
-0.135
-0.11
-0.115
-0.125
-0.145
-0.155
-0.15
-0.145
-0.125
-0.14
-0.16
-0.16
-0.155
-0.14
-0.125
-0.125
-0.105
-0.09
-0.065
-0.05
-0.055
-0.08
-0.13
-0.17
-0.18
-0.2
-0.2
-0.155
-0.08
0.04
0.155
0.275
0.375
0.42
0.42
0.415
0.45
0.53
0.66
0.785
0.88
0.95
1.005
1.01
0.965
0.865
0.73
0.55
0.285
-0.04
-0.295
-0.435
-0.515
-0.54
-0.54
-0.495
-0.435
-0.38
-0.36
-0.345
-0.325
-0.3
-0.265
-0.245
-0.245
-0.26
-0.26
-0.25
-0.265
-0.255
-0.245
-0.24
-0.235
-0.245
-0.215
-0.2
-0.195
-0.2
-0.19
-0.185
-0.18
-0.18
-0.19
-0.195
-0.185
-0.175
-0.165
-0.165
-0.17
-0.17
-0.16
-0.16
-0.16
-0.175
-0.185
-0.185
-0.18
-0.17
-0.16
-0.155
-0.16
-0.185
-0.18
-0.16
-0.145
-0.13
-0.125
-0.135
-0.125
-0.125
-0.125
-0.145
-0.155
-0.16
-0.135
-0.115
-0.1
-0.09
-0.105
-0.105
-0.1
-0.09
-0.055
-0.03
-0.025
-0.03
-0.03
-0.005
0.02
0.025
0.025
0.035
0.035
0.05
0.05
0.045
0.035
0.025
0.035
0.045
0.065
0.07
0.065
0.06
0.06
0.065
0.085
0.085
0.08
0.07
0.09
0.09
0.105
0.105
0.11
0.095
0.095
0.1
0.105
0.12
0.115
0.105
0.085
0.085
0.085
0.08
0.09
0.105
0.105
0.105
0.085
0.085
0.08
0.07
0.075
0.09
0.09
0.07
0.045
0.03
0.015
0.02
0.03
0.05
0.04
0.025
0.04
0.06
0.085
0.085
0.06
0.005
-0.035
-0.06
-0.045
-0.055
-0.025
-0.025
-0.015
-0.015
-0.005
-0.01
-0.02
-0.03
-0.035
-0.035
-0.015
-0.005
-0.02
-0.045
-0.045
-0.035
-0.04
-0.035
-0.04
-0.045
-0.04
-0.035
-0.03
-0.04
-0.045
-0.055
