Lead II
-0.27
-0.27
-0.28
-0.29
-0.295
-0.295
-0.29
-0.26
-0.25
-0.245
-0.255
-0.275
-0.305
-0.35
-0.385
-0.41
-0.38
-0.29
-0.11
0.16
0.51
0.925
1.365
1.795
2.155
2.355
2.395
2.24
1.98
1.655
1.28
0.895
0.52
0.175
-0.175
-0.475
-0.695
-0.805
-0.795
-0.69
-0.55
-0.43
-0.37
-0.36
-0.4
-0.45
-0.48
-0.495
-0.485
-0.47
-0.465
-0.475
-0.495
-0.505
-0.49
-0.485
-0.465
-0.47
-0.445
-0.44
-0.445
-0.445
-0.46
-0.455
-0.44
-0.425
-0.405
-0.4
-0.395
-0.405
-0.395
-0.39
-0.36
-0.33
-0.275
-0.265
-0.255
-0.24
-0.225
-0.205
-0.17
-0.12
-0.08
-0.02
0.01
0.045
0.065
0.095
0.13
0.175
0.23
0.29
0.33
0.375
0.41
0.44
0.48
0.495
0.54
0.57
0.595
0.63
0.65
0.69
0.73
0.77
0.81
0.835
0.835
0.835
0.82
0.825
0.82
0.83
0.84
0.855
0.87
0.855
0.855
0.84
0.815
0.795
0.775
0.74
0.705
0.66
0.605
0.58
0.57
0.565
0.56
0.555
0.54
0.5
0.465
0.405
0.365
0.345
0.31
0.3
0.275
0.25
0.225
0.195
0.155
0.125
0.085
0.045
0.005
-0.02
-0.055
-0.07
-0.105
-0.12
-0.11
-0.12
-0.135
-0.15
-0.175
-0.2
-0.21
-0.225
-0.215
-0.2
-0.195
-0.19
-0.175
-0.165
-0.17
-0.145
-0.13
-0.09
-0.055
-0.02
0.0
0.01
0.04
0.045
0.08
0.085
0.11
0.12
0.12
0.105
0.07
0.03
-0.01
-0.06
-0.11
-0.18
-0.21
-0.25
-0.29
-0.315
-0.34
-0.35
-0.355
-0.345
-0.34
-0.335
-0.33
-0.335
-0.335
-0.335
-0.33
-0.335
-0.34
-0.34
-0.355
-0.365
-0.37
-0.36
-0.36
-0.355
-0.355
-0.37
-0.41
-0.445
-0.485
-0.5
-0.48
-0.4
-0.24
0.01
0.315
0.665
1.07
1.48
1.845
2.11
2.17
2.04
1.76
1.345
0.86
0.36
-0.075
-0.445
-0.75
-0.97
-1.12
-1.185
-1.18
-1.105
-0.985
-0.855
-0.745
-0.685
-0.67
-0.69
-0.72
-0.755
-0.77
-0.78
-0.775
-0.77
-0.77
-0.785
-0.79
-0.815
-0.825
-0.825
-0.83
-0.805
-0.805
-0.795
-0.805
-0.81
-0.83
-0.845
-0.855
-0.85
-0.835
-0.82
-0.8
-0.785
-0.775
-0.77
-0.78
-0.785
-0.785
-0.775
-0.75
-0.725
-0.705
-0.71
-0.67
-0.655
-0.63
-0.595
-0.57
-0.56
-0.56
-0.545
-0.53
-0.5
-0.465
-0.4
-0.36
-0.32
-0.29
-0.275
-0.25
-0.25
-0.2
-0.145
-0.1
-0.055
-0.01
0.01
0.02
0.06
0.095
0.135
0.16
0.155
0.175
0.185
0.185
0.21
0.235
0.235
0.25
0.245
0.23
0.215
0.185
0.18
0.155
0.14
0.125
0.085
0.075
0.03
0.01
-0.01
-0.03
-0.04
-0.075
-0.1
-0.145
-0.185
-0.215
-0.24
-0.25
-0.25
-0.27
-0.28
-0.315
-0.35
-0.395
-0.43
-0.45
-0.475
-0.48
-0.48
-0.495
-0.51
-0.51
-0.505
-0.5
-0.5
-0.5
-0.505
-0.52
-0.53
-0.53
-0.525
-0.515
-0.475
-0.465
-0.46
-0.445
-0.45
-0.435
-0.41
-0.375
-0.335
-0.3
-0.285
-0.28
-0.27
-0.25
-0.235
-0.21
-0.18
-0.175
-0.165
-0.185
-0.21
-0.265
-0.32
-0.375
-0.425
-0.46
-0.505
-0.54
-0.56
-0.59
-0.605
-0.595
-0.585
-0.58
-0.58
-0.59
-0.6
-0.605
-0.605
-0.615
-0.595
-0.59
-0.61
-0.64
-0.68
-0.73
-0.745
-0.75
-0.735
-0.7
-0.66
-0.59
-0.49
-0.325
-0.1
0.225
0.62
1.045
1.46
1.855
2.16
2.34
2.435
2.435
2.345
2.195
1.975
1.685
1.32
0.895
0.43
-0.055
-0.47
-0.785
-0.935
-0.985
-0.94
-0.9
-0.87
-0.87
-0.895
-0.935
-0.995
-1.03
-1.055
-1.065
-1.08
-1.085
-1.095
-1.09
-1.11
-1.14
-1.16
-1.18
-1.19
-1.175
-1.18
-1.175
-1.185
-1.19
-1.215
-1.22
-1.245
-1.25
-1.255
-1.265
-1.29
-1.28
-1.3
-1.3
-1.29
-1.285
-1.27
-1.265
-1.28
-1.29
-1.31
-1.3
-1.285
-1.27
-1.245
-1.225
-1.2
-1.185
-1.16
-1.15
-1.125
-1.1
-1.075
-1.03
-0.98
-0.945
-0.92
-0.875
-0.825
-0.77
-0.715
-0.675
-0.645
-0.6
-0.565
-0.525
-0.47
-0.425
-0.365
-0.31
-0.27
-0.235
-0.215
-0.2
-0.165
-0.13
-0.095
-0.065
-0.025
-0.01
-0.005
0.005
0.025
0.045
0.055
0.05
0.04
0.015
0.0
-0.04
-0.05
-0.055
-0.05
-0.06
-0.06
-0.095
-0.13
-0.14
-0.18
-0.215
-0.235
-0.25
-0.255
-0.27
-0.3
-0.335
-0.355
-0.365
-0.385
-0.39
-0.4
-0.425
-0.43
-0.46
-0.48
-0.455
-0.455
-0.45
-0.43
-0.415
-0.415
-0.42
-0.41
-0.395
-0.37
-0.335
-0.31
-0.275
-0.255
-0.24
-0.215
-0.21
-0.19
-0.175
-0.165
-0.16
-0.15
-0.175
-0.205
-0.265
-0.3
-0.35
-0.4
-0.435
-0.47
-0.51
-0.545
-0.555
-0.58
-0.555
-0.56
-0.535
-0.525
-0.525
-0.53
-0.525
-0.525
-0.535
-0.535
-0.53
-0.535
-0.535
-0.535
-0.545
-0.54
-0.545
-0.535
-0.52
-0.535
-0.58
-0.615
-0.66
-0.655
-0.59
-0.45
-0.22
0.095
0.485
0.91
1.355
1.735
2.01
2.11
2.03
1.795
1.455
1.035
0.625
0.245
-0.08
-0.39
-0.67
-0.9
-1.05
-1.09
-1.02
-0.895
-0.785
-0.7
-0.65
-0.64
-0.66
-0.69
-0.725
-0.75
-0.77
-0.775
-0.765
-0.76
-0.765
-0.77
-0.785
-0.8
-0.81
-0.82
-0.81
-0.805
-0.79
-0.785
-0.8
-0.805
-0.81
-0.805
-0.775
-0.755
-0.745
-0.725
-0.74
-0.725
-0.7
-0.69
-0.66
-0.63
-0.59
-0.555
-0.52
-0.49
-0.445
-0.41
-0.375
-0.32
-0.28
-0.24
-0.205
-0.17
-0.115
-0.045
0.03
0.095
0.155
0.2
0.265
0.3
0.33
0.375
0.405
0.445
0.49
0.53
0.565
0.6
0.65
0.68
0.705
0.72
0.74
0.745
0.735
0.73
0.73
0.735
0.735
0.74
0.725
0.725
0.7
0.67
0.65
0.615
0.59
0.56
0.55
0.51
0.485
0.45
0.44
0.425
0.385
0.38
0.355
0.325
0.28
0.25
0.205
0.175
0.155
0.145
0.115
0.085
0.045
0.02
-0.02
-0.06
-0.08
-0.09
-0.11
-0.135
-0.18
-0.205
-0.24
-0.24
-0.215
-0.185
-0.16
-0.16
-0.18
-0.215
-0.265
-0.265
-0.26
-0.23
-0.215
-0.18
-0.155
-0.14
-0.11
-0.075
-0.05
-0.025
-0.015
0.015
0.01
0.015
0.035
0.04
0.04
0.035
0.02
-0.005
-0.06
-0.11
-0.175
-0.235
-0.285
-0.32
-0.34
-0.34
-0.35
-0.36
-0.385
-0.405
-0.415
-0.405
-0.395
-0.38
-0.37
-0.365
-0.365
-0.395
-0.385
-0.415
-0.405
-0.4
-0.405
-0.405
-0.395
-0.395
-0.405
-0.425
-0.44
-0.465
-0.49
-0.51
-0.49
-0.42
-0.26
-0.025
0.3
0.695
1.125
1.53
1.895
2.115
2.17
2.025
1.755
1.42
1.035
0.635
0.225
-0.175
-0.545
-0.865
-1.12
-1.255
-1.265
-1.185
-1.065
-0.93
-0.81
-0.755
-0.745
-0.755
-0.78
-0.795
-0.8
-0.82
-0.82
-0.825
-0.845
-0.855
-0.87
-0.88
-0.885
-0.87
-0.87
-0.875
-0.885
-0.9
-0.915
-0.905
-0.905
-0.9
-0.905
-0.9
-0.9
-0.915
-0.925
-0.93
-0.9
-0.885
-0.865
-0.83
-0.825
-0.83
-0.845
-0.85
-0.835
-0.81
-0.78
-0.76
-0.73
-0.72
-0.715
-0.705
-0.685
-0.675
-0.655
-0.615
-0.59
-0.55
-0.53
-0.495
-0.47
-0.435
-0.38
-0.345
-0.31
-0.3
-0.29
-0.28
-0.26
-0.225
-0.195
-0.13
-0.105
-0.06
-0.03
-0.03
-0.02
-0.005
0.005
0.035
0.055
0.065
0.065
0.05
0.04
0.045
0.05
0.045
0.055
0.055
0.04
-0.005
-0.025
-0.06
-0.08
-0.095
-0.115
-0.125
-0.145
-0.165
-0.205
-0.235
-0.27
-0.285
-0.315
-0.33
-0.35
-0.385
-0.43
-0.47
-0.495
-0.52
-0.535
-0.555
-0.575
-0.605
-0.63
-0.655
-0.68
-0.69
-0.71
-0.705
-0.72
-0.715
-0.72
-0.74
-0.77
-0.775
-0.79
-0.77
-0.745
-0.72
-0.715
-0.71
-0.705
-0.72
-0.72
-0.735
-0.725
-0.735
-0.72
-0.71
-0.685
-0.66
-0.64
-0.605
-0.555
-0.525
-0.48
-0.46
-0.44
-0.44
-0.445
-0.445
-0.445
-0.425
-0.435
-0.435
-0.44
-0.49
-0.56
-0.645
-0.69
-0.73
-0.775
-0.79
-0.79
-0.8
-0.79
-0.805
-0.79
-0.805
-0.805
-0.81
-0.805
-0.81
-0.81
-0.825
-0.815
-0.805
-0.785
-0.76
-0.745
-0.755
-0.765
-0.775
-0.795
-0.81
-0.835
-0.85
-0.86
-0.865
-0.82
-0.69
-0.455
-0.11
0.315
0.815
1.3
1.695
1.94
1.93
1.72
1.38
0.95
0.495
0.035
-0.42
-0.815
-1.19
-1.455
-1.585
-1.575
-1.48
-1.315
-1.17
-1.055
-1.01
-1.01
-1.045
-1.08
-1.12
-1.15
-1.18
-1.185
-1.175
-1.16
-1.14
-1.125
-1.125
-1.13
-1.155
-1.18
-1.21
-1.205
-1.2
-1.2
-1.185
-1.19
-1.185
-1.18
-1.17
-1.155
-1.145
-1.14
-1.15
-1.14
-1.16
-1.17
-1.15
-1.13
-1.11
-1.06
-1.045
-1.025
-1.02
-1.01
-0.99
-0.975
-0.94
-0.925
-0.905
-0.88
-0.87
-0.835
-0.805
-0.745
-0.705
-0.66
-0.62
-0.605
-0.59
-0.565
-0.535
-0.49
-0.44
-0.395
-0.36
-0.33
-0.32
-0.31
-0.29
-0.28
-0.24
-0.225
-0.21
-0.185
-0.18
-0.175
-0.18
-0.17
-0.16
-0.15
-0.15
-0.185
-0.2
-0.23
-0.25
-0.27
-0.29
-0.285
-0.305
-0.32
-0.36
-0.39
-0.425
-0.465
-0.48
-0.505
-0.53
-0.555
-0.59
-0.61
-0.625
-0.64
-0.655
-0.665
-0.69
-0.71
-0.725
-0.755
-0.785
-0.77
-0.785
-0.785
-0.755
-0.755
-0.745
-0.755
-0.755
-0.75
-0.76
-0.75
-0.74
-0.74
-0.715
-0.69
-0.685
-0.64
-0.59
-0.55
-0.52
-0.495
-0.485
-0.5
-0.495
-0.49
-0.48
-0.455
-0.45
-0.44
-0.44
-0.475
-0.535
-0.605
-0.665
-0.73
-0.77
-0.805
-0.825
-0.845
-0.855
-0.875
-0.87
-0.865
-0.875
-0.87
-0.88
-0.885
-0.885
-0.9
-0.9
-0.885
-0.865
-0.87
-0.865
-0.865
-0.865
-0.875
-0.875
-0.89
-0.89
-0.915
-0.92
-0.94
-0.98
-0.99
-0.955
-0.875
-0.71
-0.465
-0.135
0.25
0.695
1.125
1.525
1.79
1.88
1.8
1.58
1.25
0.865
0.475
0.095
-0.225
-0.535
-0.82
-1.1
-1.33
-1.44
-1.45
-1.38
-1.26
-1.145
-1.055
-1.025
-1.03
-1.06
-1.08
-1.115
-1.125
-1.13
-1.15
-1.145
-1.14
-1.135
-1.13
-1.145
-1.155
-1.17
-1.185
-1.21
-1.2
-1.185
-1.17
-1.165
-1.16
-1.17
-1.19
-1.2
-1.215
-1.205
-1.19
-1.18
-1.18
-1.165
-1.16
-1.17
-1.155
-1.155
-1.155
-1.125
-1.125
-1.105
-1.09
-1.075
-1.055
-1.035
-1.005
-0.985
-0.945
-0.93
-0.9
-0.9
-0.875
-0.855
-0.825
-0.785
-0.735
-0.69
-0.645
-0.615
-0.57
-0.545
-0.515
-0.47
-0.43
-0.39
-0.345
-0.305
-0.28
-0.25
-0.215
-0.2
-0.16
-0.125
-0.105
-0.085
-0.08
-0.065
-0.06
-0.045
-0.01
0.005
0.015
0.005
0.005
-0.02
-0.035
-0.05
-0.06
-0.06
-0.065
-0.095
-0.11
-0.125
-0.145
-0.165
-0.18
-0.195
-0.205
-0.23
-0.265
-0.3
-0.335
-0.335
-0.34
-0.34
-0.35
-0.36
-0.39
-0.42
-0.46
-0.5
-0.525
-0.54
-0.54
-0.535
-0.535
-0.545
-0.555
-0.56
-0.56
-0.57
-0.56
-0.565
-0.56
-0.57
-0.57
-0.565
-0.54
-0.49
-0.44
-0.38
-0.355
-0.34
-0.34
-0.335
-0.335
-0.315
-0.285
-0.26
-0.25
-0.245
-0.27
-0.305
-0.37
-0.42
-0.48
-0.535
-0.585
-0.63
-0.665
-0.68
-0.675
-0.655
-0.63
-0.61
-0.6
-0.62
-0.64
-0.67
-0.68
-0.69
-0.675
-0.665
-0.665
-0.65
-0.66
-0.665
-0.665
-0.645
-0.64
-0.635
-0.645
-0.685
-0.725
-0.745
-0.735
-0.655
-0.505
-0.25
0.065
0.43
0.835
1.25
1.635
1.9
2.02
1.945
1.73
1.455
1.13
0.78
0.395
0.04
-0.32
-0.645
-0.935
-1.12
-1.18
-1.16
-1.045
-0.905
-0.785
-0.71
-0.675
-0.68
-0.735
-0.79
-0.825
-0.855
-0.825
-0.805
-0.79
-0.76
-0.745
-0.75
-0.755
-0.77
-0.77
-0.765
-0.77
-0.75
-0.75
-0.745
-0.74
-0.745
-0.755
-0.75
-0.745
-0.74
-0.71
-0.71
-0.685
-0.66
-0.64
-0.615
-0.58
-0.555
-0.53
-0.53
-0.535
-0.535
-0.525
-0.5
-0.46
-0.43
-0.36
-0.33
-0.285
-0.25
-0.21
-0.17
-0.135
-0.065
-0.03
0.0
0.03
0.045
0.075
0.1
0.13
0.175
0.21
0.255
0.285
0.305
0.345
0.375
0.4
0.435
0.47
0.49
0.5
0.495
0.5
0.505
0.495
0.48
0.48
0.49
0.48
0.47
0.48
0.475
0.445
0.415
0.405
0.38
0.375
0.35
0.315
0.285
0.24
0.205
0.195
0.19
0.19
0.175
0.16
0.135
0.08
0.04
0.01
-0.025
-0.06
-0.09
-0.115
-0.135
-0.175
-0.2
-0.235
-0.255
-0.285
-0.3
-0.335
-0.365
-0.395
-0.42
-0.45
-0.455
-0.455
-0.44
-0.44
-0.43
-0.445
-0.45
-0.465
-0.485
-0.48
-0.47
-0.45
-0.445
-0.43
-0.41
-0.39
-0.38
-0.36
-0.335
-0.305
-0.28
-0.25
-0.23
-0.22
-0.19
-0.175
-0.145
-0.11
-0.1
-0.085
-0.085
-0.105
-0.145
-0.2
-0.255
-0.3
-0.345
-0.38
-0.415
-0.45
-0.485
-0.54
-0.585
-0.63
-0.665
-0.685
-0.675
-0.64
-0.56
-0.465
-0.34
-0.155
0.06
0.28
0.51
0.73
0.945
1.175
1.39
1.605
1.795
1.955
2.08
2.155
2.21
2.245
2.245
2.23
2.225
2.22
2.205
2.2
2.195
2.185
2.2
2.21
2.215
2.2
2.155
2.035
1.85
1.6
1.275
0.915
0.52
0.095
-0.33
-0.72
-1.02
-1.205
-1.27
-1.27
-1.245
-1.235
-1.26
-1.28
-1.325
-1.365
-1.405
-1.43
-1.455
-1.475
-1.495
-1.515
-1.535
-1.555
-1.585
-1.615
-1.64
-1.655
-1.675
-1.695
-1.71
-1.725
-1.745
-1.775
-1.82
-1.87
-1.91
-1.95
-1.955
-1.955
-1.955
-1.96
-1.96
-1.98
-2.005
-2.02
-2.015
-2.025
-2.02
-2.01
-2.0
-2.01
-2.0
-1.995
-1.98
-1.96
-1.935
-1.9
-1.875
-1.845
-1.815
-1.775
-1.735
-1.68
-1.63
-1.57
-1.53
-1.49
-1.46
-1.42
-1.4
-1.355
-1.295
-1.2
-1.125
-1.07
-1.025
-0.975
-0.925
-0.87
-0.83
-0.785
-0.755
-0.715
-0.69
-0.665
-0.63
-0.615
-0.575
-0.545
-0.515
-0.51
-0.5
-0.515
-0.525
-0.53
-0.53
-0.51
-0.5
-0.495
-0.5
-0.515
-0.54
-0.565
-0.595
-0.605
-0.615
-0.635
-0.67
-0.695
-0.72
-0.73
-0.75
-0.75
-0.745
-0.74
-0.765
-0.785
-0.815
-0.825
-0.83
-0.82
-0.815
-0.805
-0.805
-0.81
-0.815
-0.815
-0.815
-0.785
-0.79
-0.795
-0.785
-0.785
-0.78
-0.78
-0.77
-0.76
-0.76
-0.735
-0.755
-0.755
-0.755
-0.735
-0.71
-0.67
-0.635
-0.595
-0.585
-0.565
-0.57
-0.555
-0.555
-0.54
-0.535
-0.53
-0.545
-0.57
-0.61
-0.67
-0.72
-0.77
-0.815
-0.845
-0.885
-0.91
-0.935
-0.94
-0.945
-0.92
-0.91
-0.9
-0.89
-0.895
-0.92
-0.925
-0.94
-0.945
-0.935
-0.935
-0.925
-0.925
-0.93
-0.94
-0.93
-0.925
-0.935
-0.93
-0.945
-0.995
-1.04
-1.055
-1.025
-0.895
-0.665
-0.345
0.04
0.47
0.915
1.345
1.665
1.84
1.86
1.695
1.395
0.975
0.495
0.0
-0.475
-0.9
-1.255
-1.53
-1.65
-1.66
-1.555
-1.43
-1.305
-1.205
-1.155
-1.145
-1.145
-1.18
-1.21
-1.235
-1.26
-1.28
-1.285
-1.28
-1.275
-1.28
-1.275
-1.26
-1.275
-1.275
-1.3
-1.305
-1.305
-1.295
-1.315
-1.31
-1.325
-1.335
-1.34
-1.34
-1.33
-1.32
-1.315
-1.32
-1.315
-1.325
-1.33
-1.32
-1.315
-1.295
-1.27
-1.26
-1.25
-1.24
-1.23
-1.205
-1.185
-1.175
-1.145
-1.125
-1.11
-1.09
-1.08
-1.04
-0.99
-0.945
-0.9
-0.87
-0.84
-0.825
-0.81
-0.79
-0.77
-0.695
-0.65
-0.6
-0.55
-0.515
-0.485
-0.445
-0.415
-0.395
-0.345
-0.32
-0.3
-0.275
-0.26
-0.24
-0.23
-0.2
-0.175
-0.155
-0.16
-0.16
-0.165
-0.175
-0.19
-0.185
-0.18
-0.18
-0.195
-0.205
-0.235
-0.27
-0.305
-0.34
-0.37
-0.375
-0.415
-0.43
-0.46
-0.495
-0.525
-0.55
-0.57
-0.585
-0.61
-0.635
-0.655
-0.685
-0.705
-0.725
-0.735
-0.725
-0.725
-0.72
-0.73
-0.725
-0.725
-0.735
-0.755
-0.75
-0.765
-0.735
-0.725
-0.715
-0.705
-0.695
-0.675
-0.655
-0.62
-0.595
-0.565
-0.555
-0.55
-0.55
-0.535
-0.515
-0.5
-0.485
-0.485
-0.49
-0.525
-0.58
-0.645
-0.7
-0.755
-0.79
-0.825
-0.83
-0.875
-0.9
-0.91
-0.925
-0.92
-0.905
-0.91
-0.915
-0.91
-0.925
-0.93
-0.93
-0.92
-0.91
-0.895
-0.9
-0.885
-0.9
-0.92
-0.93
-0.94
-0.93
-0.925
-0.925
-0.935
-0.965
-1.0
-1.02
-0.99
-0.895
-0.74
-0.5
-0.185
0.22
0.665
1.13
1.535
1.8
1.865
1.725
1.43
1.03
0.59
0.16
-0.245
-0.605
-0.935
-1.205
-1.385
-1.46
-1.445
-1.345
-1.225
-1.13
-1.06
-1.035
-1.07
-1.11
-1.15
-1.17
-1.2
-1.185
-1.19
-1.185
-1.17
-1.165
-1.175
-1.19
-1.21
-1.24
-1.235
-1.24
-1.22
-1.215
-1.215
-1.225
-1.22
-1.245
-1.255
-1.265
-1.26
-1.25
-1.235
-1.225
-1.22
-1.22
-1.215
-1.21
-1.22
-1.205
-1.195
-1.19
-1.18
-1.175
-1.155
-1.135
-1.105
-1.07
-1.04
-1.02
-1.01
-0.98
-0.96
-0.935
-0.905
-0.855
-0.825
-0.77
-0.725
-0.695
-0.635
-0.595
-0.55
-0.5
-0.45
-0.415
-0.395
-0.355
-0.32
-0.285
-0.25
-0.21
-0.18
-0.145
-0.13
-0.11
-0.1
-0.11
-0.1
-0.09
-0.1
-0.085
-0.08
-0.075
-0.075
-0.085
-0.095
-0.12
-0.15
-0.185
-0.2
-0.215
-0.225
-0.21
-0.21
-0.22
-0.235
-0.28
-0.32
-0.375
-0.395
-0.42
-0.43
-0.445
-0.45
-0.475
-0.5
-0.525
-0.555
-0.58
-0.595
-0.6
-0.615
-0.62
-0.645
-0.645
-0.645
-0.625
-0.6
-0.58
-0.575
-0.585
-0.605
-0.615
-0.605
-0.59
-0.575
-0.54
-0.5
-0.455
-0.4
-0.37
-0.35
-0.335
-0.31
-0.305
-0.27
-0.255
-0.24
-0.235
-0.225
-0.235
-0.23
-0.27
-0.305
-0.36
-0.42
-0.47
-0.52
-0.555
-0.59
-0.58
-0.57
-0.565
-0.555
-0.55
-0.555
-0.55
-0.55
-0.55
-0.54
-0.54
-0.525
-0.535
-0.535
-0.55
-0.525
-0.515
-0.51
-0.5
-0.525
-0.55
-0.575
-0.6
-0.615
-0.6
-0.555
-0.455
-0.275
-0.03
0.275
0.66
1.095
1.525
1.885
2.095
2.145
1.995
1.665
1.26
0.835
0.375
-0.03
-0.385
-0.7
-0.935
-1.14
-1.225
-1.21
-1.11
-0.985
-0.85
-0.76
-0.715
-0.73
-0.765
-0.795
-0.83
-0.86
-0.86
-0.865
-0.865
-0.87
-0.88
-0.905
-0.9
-0.885
-0.88
-0.88
-0.885
-0.9
-0.905
-0.92
-0.92
-0.91
-0.91
-0.895
-0.895
-0.9
-0.91
-0.9
-0.885
-0.865
-0.835
-0.81
-0.775
-0.765
-0.765
-0.74
-0.725
-0.695
-0.665
-0.64
-0.625
-0.635
-0.61
-0.59
-0.555
-0.515
-0.465
-0.435
-0.405
-0.39
-0.38
-0.36
-0.315
-0.26
-0.225
-0.175
-0.125
-0.095
-0.065
-0.04
-0.005
0.02
0.055
0.08
0.1
0.12
0.135
0.135
0.155
0.195
0.195
0.225
0.225
0.215
0.22
0.2
0.19
0.195
0.195
0.195
0.18
0.16
0.12
0.09
0.05
0.03
0.02
0.005
-0.01
-0.04
-0.075
-0.115
-0.155
-0.2
-0.215
-0.23
-0.27
-0.285
-0.325
-0.35
-0.39
-0.43
-0.47
-0.48
-0.5
-0.525
-0.55
-0.57
-0.61
-0.625
-0.625
-0.625
-0.64
-0.66
-0.67
-0.7
-0.715
-0.715
-0.715
-0.7
-0.66
-0.63
-0.625
-0.63
-0.645
-0.665
-0.66
-0.665
-0.64
-0.615
-0.595
-0.56
-0.52
-0.5
-0.465
-0.43
-0.405
-0.385
-0.38
-0.38
-0.39
-0.38
-0.36
-0.335
-0.33
-0.335
-0.37
-0.44
-0.525
-0.595
-0.655
-0.695
-0.705
-0.715
-0.75
-0.78
-0.83
-0.855
-0.84
-0.815
-0.715
-0.565
-0.36
-0.125
0.12
0.38
0.605
0.85
1.095
1.32
1.515
1.67
1.795
1.91
2.02
2.105
2.195
2.255
2.295
2.31
2.295
2.245
2.195
2.145
2.1
2.075
2.08
2.09
2.105
2.085
2.04
1.96
1.825
1.635
1.365
1.03
0.66
0.27
-0.1
-0.455
-0.8
-1.09
-1.295
-1.375
-1.39
-1.37
-1.355
-1.355
-1.385
-1.425
-1.485
-1.545
-1.555
-1.57
-1.585
-1.605
-1.63
-1.665
-1.695
-1.72
-1.75
-1.77
-1.8
-1.85
-1.88
-1.9
-1.915
-1.935
-1.965
-1.985
-1.98
-2.02
-2.045
-2.075
-2.095
-2.1
-2.11
-2.115
-2.115
-2.135
-2.12
-2.125
-2.12
-2.13
-2.125
-2.125
-2.115
-2.1
-2.07
-2.06
-2.02
-1.975
-1.92
-1.88
-1.83
-1.805
-1.785
-1.735
-1.69
-1.645
-1.585
-1.525
-1.485
-1.42
-1.385
-1.345
-1.3
-1.265
-1.21
-1.165
-1.12
-1.08
-1.02
-0.985
-0.935
-0.905
-0.87
-0.825
-0.795
-0.77
-0.755
-0.755
-0.74
-0.74
-0.725
-0.715
-0.68
-0.66
-0.645
-0.645
-0.655
-0.67
-0.7
-0.71
-0.725
-0.735
-0.725
-0.73
-0.73
-0.755
-0.78
-0.8
-0.825
-0.825
-0.835
-0.865
-0.88
-0.905
-0.93
-0.945
-0.955
-0.945
-0.95
-0.945
-0.945
-0.97
-0.99
-1.0
-1.01
-1.01
-1.0
-0.98
-0.97
-0.955
-0.945
-0.95
-0.95
-0.955
-0.95
-0.945
-0.95
-0.945
-0.935
-0.94
-0.945
-0.93
-0.91
-0.88
-0.855
-0.81
-0.79
-0.785
-0.78
-0.77
-0.755
-0.725
-0.695
-0.665
-0.64
-0.64
-0.635
-0.65
-0.655
-0.685
-0.735
-0.775
-0.83
-0.86
-0.91
-0.935
-0.945
-0.975
-0.975
-0.98
-0.995
-0.985
-0.985
-1.0
-1.015
-1.02
-1.015
-1.0
-0.995
-0.98
-0.96
-0.96
-0.97
-0.985
-0.99
-0.98
-0.975
-0.96
-0.955
-0.96
-0.98
-1.005
-1.025
-1.06
-1.04
-0.99
-0.87
-0.655
-0.37
-0.025
0.38
0.845
1.295
1.665
1.885
1.915
1.735
1.465
1.125
0.75
0.35
-0.05
-0.43
-0.81
-1.155
-1.425
-1.58
-1.615
-1.535
-1.395
-1.255
-1.165
-1.12
-1.115
-1.145
-1.18
-1.215
-1.22
-1.215
-1.215
-1.19
-1.215
-1.22
-1.245
-1.26
-1.27
-1.265
-1.265
-1.24
-1.24
-1.25
-1.265
-1.28
-1.295
-1.3
-1.285
-1.265
-1.275
-1.25
-1.255
-1.265
-1.26
-1.28
-1.25
-1.24
-1.24
-1.235
-1.23
-1.22
-1.21
-1.17
-1.155
-1.135
-1.1
-1.065
-1.05
-1.055
-1.055
-1.05
-1.04
-1.005
-0.97
-0.935
-0.885
-0.845
-0.815
-0.79
-0.765
-0.735
-0.705
-0.655
-0.615
-0.58
-0.555
-0.53
-0.5
-0.46
-0.415
-0.375
-0.325
-0.295
-0.265
-0.25
-0.245
-0.23
-0.21
-0.18
-0.15
-0.105
-0.075
-0.075
-0.065
-0.075
-0.075
-0.09
-0.085
-0.08
-0.075
-0.075
-0.08
-0.09
-0.12
-0.135
-0.155
-0.17
-0.19
-0.205
-0.23
-0.26
-0.31
-0.36
-0.395
-0.415
-0.42
-0.435
-0.455
-0.475
-0.505
-0.545
-0.58
-0.62
-0.645
-0.655
-0.655
-0.66
-0.655
-0.645
-0.665
-0.705
-0.72
-0.73
-0.73
-0.71
-0.7
-0.705
-0.7
-0.715
-0.71
-0.705
-0.685
-0.66
-0.635
-0.615
-0.615
-0.595
-0.595
-0.585
-0.565
-0.555
-0.525
-0.505
-0.49
-0.485
-0.5
-0.51
-0.535
-0.555
-0.58
-0.615
-0.655
-0.705
-0.76
-0.815
-0.86
-0.895
-0.91
-0.905
-0.89
-0.88
-0.88
-0.88
-0.89
-0.905
-0.905
-0.905
-0.9
-0.89
-0.895
-0.9
-0.915
-0.935
-0.945
-0.96
-0.98
-0.96
-0.95
-0.93
-0.905
-0.87
-0.83
-0.765
-0.66
-0.525
-0.335
-0.09
0.22
0.61
1.03
1.465
1.865
2.195
2.415
2.51
2.485
2.375
2.19
1.93
1.59
1.225
0.82
0.35
-0.13
-0.595
-0.965
-1.19
-1.27
-1.245
-1.175
-1.125
-1.105
-1.125
-1.18
-1.225
-1.265
-1.29
-1.295
-1.315
-1.33
-1.345
-1.36
-1.375
-1.38
-1.395
-1.395
-1.395
-1.415
-1.43
-1.455
-1.48
-1.5
-1.5
-1.495
-1.495
-1.5
-1.495
-1.495
-1.51
-1.53
-1.545
-1.56
-1.56
-1.56
-1.565
-1.575
-1.565
-1.585
-1.56
-1.55
-1.535
-1.525
-1.525
-1.515
-1.515
-1.52
-1.5
-1.475
-1.44
-1.4
-1.35
-1.325
-1.3
-1.275
-1.24
-1.205
-1.16
-1.12
-1.08
-1.055
-1.02
-0.985
-0.93
-0.885
-0.845
-0.8
-0.76
-0.71
-0.675
-0.645
-0.6
-0.555
-0.51
-0.475
-0.425
-0.4
-0.38
-0.37
-0.37
-0.35
-0.345
-0.335
-0.33
-0.32
-0.335
-0.335
-0.355
-0.36
-0.365
-0.375
-0.395
-0.42
-0.45
-0.485
-0.51
-0.515
-0.515
-0.52
-0.53
-0.56
-0.585
-0.635
-0.67
-0.705
-0.72
-0.735
-0.745
-0.765
-0.77
-0.775
-0.785
-0.79
-0.775
-0.765
-0.755
-0.755
-0.76
-0.78
-0.785
-0.775
-0.765
-0.745
-0.705
-0.685
-0.66
-0.645
-0.64
-0.625
-0.615
-0.6
-0.57
-0.56
-0.535
-0.535
-0.52
-0.515
-0.515
-0.52
-0.535
-0.565
-0.615
-0.67
-0.73
-0.775
-0.8
-0.825
-0.82
-0.815
-0.815
-0.82
-0.825
-0.825
-0.835
-0.835
-0.815
-0.805
-0.8
-0.795
-0.79
-0.795
-0.79
-0.79
-0.8
-0.78
-0.78
-0.79
-0.795
-0.795
-0.805
-0.805
-0.81
-0.81
-0.82
-0.83
-0.805
-0.71
-0.52
-0.225
0.195
0.675
1.195
1.655
1.99
2.115
2.015
1.755
1.39
0.965
0.545
0.13
-0.24
-0.61
-0.94
-1.165
-1.26
-1.225
-1.12
-0.995
-0.885
-0.845
-0.85
-0.9
-0.93
-0.96
-0.965
-0.975
-0.97
-0.985
-0.99
-1.0
-1.005
-1.005
-1.015
-1.035
-1.035
-1.055
-1.065
-1.075
-1.07
-1.065
-1.055
-1.05
-1.065
-1.08
-1.085
-1.105
-1.105
-1.09
-1.07
-1.055
-1.045
-1.04
-1.045
-1.045
-1.03
-1.015
-0.995
-0.98
-0.965
-0.94
-0.925
-0.905
-0.87
-0.835
-0.815
-0.77
-0.755
-0.73
-0.71
-0.68
-0.665
-0.62
-0.57
-0.505
-0.45
-0.41
-0.38
-0.36
-0.335
-0.29
-0.26
-0.23
-0.17
-0.125
-0.09
-0.065
-0.025
0.005
0.035
0.075
0.115
0.145
0.16
0.175
0.165
0.18
0.195
0.23
0.27
0.295
0.3
0.285
0.27
0.245
0.22
0.185
0.175
0.18
0.19
0.19
0.175
0.145
0.11
0.09
0.045
0.015
-0.005
-0.03
-0.05
-0.075
-0.1
-0.11
-0.125
-0.16
-0.18
-0.215
-0.235
-0.265
-0.3
-0.33
-0.33
-0.335
-0.33
-0.345
-0.335
-0.355
-0.365
-0.39
-0.385
-0.385
-0.38
-0.365
-0.36
-0.35
-0.355
-0.37
-0.36
-0.345
-0.295
-0.26
-0.22
-0.19
-0.185
-0.18
-0.175
-0.155
-0.135
-0.09
-0.05
-0.03
-0.025
-0.035
-0.08
-0.14
-0.195
-0.25
-0.305
-0.345
-0.38
-0.4
-0.415
-0.44
-0.44
-0.41
-0.405
-0.405
-0.41
-0.415
-0.425
-0.42
-0.415
-0.4
-0.38
-0.385
-0.39
-0.405
-0.41
-0.425
-0.45
-0.47
-0.485
-0.505
-0.515
-0.52
-0.5
-0.445
-0.295
-0.035
0.305
0.745
1.22
1.68
2.1
2.435
2.63
2.675
2.575
2.38
2.11
1.83
1.52
1.215
0.915
0.585
0.25
-0.085
-0.355
-0.555
-0.635
-0.64
-0.605
-0.565
-0.55
-0.56
-0.6
-0.645
-0.69
-0.715
-0.72
-0.73
-0.725
-0.72
-0.72
-0.725
-0.76
-0.78
-0.795
-0.815
-0.82
-0.82
-0.82
-0.82
-0.815
-0.83
-0.845
-0.85
-0.855
-0.835
-0.835
-0.82
-0.84
-0.845
-0.835
-0.82
-0.8
-0.79
-0.76
-0.755
-0.75
-0.75
-0.75
-0.745
-0.71
-0.68
-0.655
-0.64
-0.615
-0.605
-0.6
-0.57
-0.55
-0.515
-0.49
-0.465
-0.445
-0.405
-0.37
-0.325
-0.28
-0.24
-0.21
-0.18
-0.155
-0.14
-0.105
-0.075
-0.035
0.005
0.06
0.08
0.1
0.12
0.145
0.155
0.165
0.175
0.185
0.18
0.165
0.175
0.18
0.195
0.2
0.19
0.17
0.15
0.115
0.085
0.05
0.045
0.04
0.015
0.0
-0.03
-0.045
-0.095
-0.115
-0.14
-0.18
-0.205
-0.235
-0.275
-0.315
-0.33
-0.35
-0.365
-0.375
-0.385
-0.39
-0.42
-0.435
-0.465
-0.47
-0.48
-0.465
-0.45
-0.435
-0.435
-0.44
-0.455
-0.45
-0.43
-0.425
-0.4
-0.395
-0.4
-0.41
-0.415
-0.405
-0.4
-0.38
-0.355
-0.335
-0.325
-0.305
-0.29
-0.275
-0.25
-0.215
-0.18
-0.14
-0.105
-0.085
-0.085
-0.085
-0.095
-0.105
-0.115
-0.15
-0.195
-0.265
-0.335
-0.365
-0.415
-0.43
-0.43
-0.435
-0.445
-0.44
-0.465
-0.49
-0.5
-0.495
-0.47
-0.43
-0.435
-0.41
-0.41
-0.42
-0.42
-0.435
-0.43
-0.425
-0.425
-0.43
-0.44
-0.45
-0.46
-0.475
-0.49
-0.51
-0.485
-0.405
-0.245
0.015
0.365
0.815
1.3
1.785
2.16
2.385
2.385
2.19
1.835
1.405
0.91
0.44
-0.01
-0.405
-0.755
-1.025
-1.2
-1.23
-1.175
-1.055
-0.925
-0.825
-0.75
-0.72
-0.71
-0.705
-0.715
-0.72
-0.715
-0.72
-0.715
-0.73
-0.745
-0.75
-0.75
-0.755
-0.755
-0.745
-0.735
-0.75
-0.74
-0.745
-0.765
-0.765
-0.78
-0.77
-0.74
-0.73
-0.735
-0.745
-0.745
-0.74
-0.73
-0.705
-0.675
-0.655
-0.665
-0.67
-0.655
-0.645
-0.645
-0.625
-0.59
-0.56
-0.545
-0.515
-0.53
-0.51
-0.49
-0.48
-0.43
-0.39
-0.37
-0.345
-0.33
-0.31
-0.295
-0.255
-0.225
-0.18
-0.14
-0.105
-0.1
-0.085
-0.07
-0.05
-0.02
0.025
0.07
0.11
0.155
0.18
0.18
0.195
0.225
0.245
0.26
0.28
0.28
0.28
0.275
0.28
0.275
0.29
0.29
0.27
0.255
0.23
0.195
0.15
0.13
0.115
0.095
0.08
0.06
0.015
-0.03
-0.07
-0.11
-0.145
-0.16
-0.18
-0.215
-0.235
-0.26
