Lead II
0.05
0.05
0.06
0.055
0.03
0.055
0.07
0.06
0.045
0.03
0.005
0.025
0.045
0.04
0.03
0.01
0.015
0.035
0.055
0.075
0.05
0.04
0.025
0.045
0.035
0.035
0.02
-0.01
-0.01
0.005
0.01
0.015
0.0
-0.005
-0.01
0.0
0.01
0.015
0.005
-0.005
-0.015
-0.01
-0.005
0.0
0.015
-0.02
-0.025
-0.015
0.01
0.005
0.0
-0.005
-0.005
0.0
0.02
0.02
0.015
0.01
0.015
0.035
0.065
0.095
0.115
0.125
0.16
0.235
0.29
0.33
0.38
0.435
0.55
0.7
0.87
1.015
1.145
1.295
1.455
1.66
1.89
2.06
2.115
2.025
1.765
1.36
0.925
0.57
0.325
0.14
0.035
-0.01
-0.01
0.01
0.01
-0.01
-0.02
-0.01
0.005
-0.005
-0.015
-0.055
-0.08
-0.075
-0.07
-0.065
-0.055
-0.085
-0.095
-0.075
-0.085
-0.065
-0.08
-0.09
-0.09
-0.09
-0.085
-0.075
-0.085
-0.105
-0.115
-0.1
-0.09
-0.095
-0.105
-0.125
-0.115
-0.11
-0.11
-0.105
-0.12
-0.125
-0.135
-0.125
-0.11
-0.1
-0.115
-0.13
-0.135
-0.125
-0.13
-0.12
-0.125
-0.125
-0.12
-0.135
-0.105
-0.1
-0.115
-0.12
-0.13
-0.115
-0.095
-0.095
-0.1
-0.125
-0.12
-0.115
-0.09
-0.085
-0.09
-0.11
-0.105
-0.09
-0.07
-0.075
-0.065
-0.08
-0.075
-0.06
-0.055
-0.05
-0.04
-0.045
-0.045
-0.015
-0.005
0.015
0.02
0.01
0.015
0.035
0.055
0.09
0.09
0.1
0.125
0.13
0.175
0.185
0.195
0.175
0.2
0.22
0.265
0.26
0.265
0.25
0.25
0.25
0.265
0.255
0.24
0.225
0.2
0.195
0.205
0.19
0.175
0.155
0.135
0.145
0.135
0.13
0.105
0.095
0.085
0.09
0.085
0.095
0.09
0.065
0.045
0.055
0.07
0.065
0.065
0.06
0.04
0.06
0.065
0.06
0.045
0.035
0.045
0.04
0.07
0.065
0.045
0.035
0.035
0.04
0.045
0.06
0.05
0.045
0.02
0.03
0.035
0.025
0.03
0.015
0.025
0.04
0.045
0.04
0.025
0.025
0.015
0.015
0.035
0.04
0.035
0.03
0.01
0.025
0.05
0.045
0.045
0.015
0.03
0.04
0.05
0.05
0.045
0.03
0.025
0.04
0.06
0.055
0.055
0.045
0.045
0.035
0.055
0.055
0.05
0.045
0.04
0.035
0.04
0.05
0.05
0.035
0.035
0.04
0.045
0.045
0.055
0.025
0.03
0.025
0.055
0.045
0.045
0.03
0.015
0.03
0.035
0.05
0.035
0.02
0.015
0.03
0.03
0.035
0.025
0.015
0.01
0.015
0.025
0.035
0.035
0.025
0.0
0.005
0.035
0.035
0.02
0.01
0.0
0.01
0.045
0.025
0.015
0.0
0.0
0.0
0.015
0.025
0.01
0.0
0.0
0.015
0.025
0.015
0.02
0.01
0.0
0.0
0.025
0.04
0.02
0.01
0.01
0.025
0.03
0.03
0.025
0.0
0.01
0.01
0.025
0.02
0.02
0.01
0.005
0.015
0.03
0.025
0.02
0.0
-0.01
0.015
0.03
0.03
0.025
0.005
0.0
0.0
0.015
0.03
0.01
-0.005
0.005
0.0
0.025
0.02
0.02
0.005
-0.01
0.005
0.015
0.04
0.03
0.01
0.01
0.015
0.045
0.045
0.055
0.04
0.045
0.055
0.065
0.07
0.065
0.055
0.05
0.065
0.08
0.08
0.075
0.065
0.065
0.055
0.06
0.06
0.055
0.04
0.035
0.055
0.065
0.06
0.055
0.045
0.04
0.065
0.075
0.08
0.075
0.06
0.05
0.03
0.055
0.035
0.03
0.015
0.01
0.02
0.035
0.04
0.025
0.015
0.015
0.025
0.03
0.03
0.02
0.01
0.015
0.025
0.035
0.02
0.02
0.015
0.01
0.02
0.035
0.025
0.015
0.005
0.01
0.02
0.035
0.05
0.045
0.045
0.035
0.035
0.08
0.09
0.125
0.135
0.175
0.235
0.285
0.335
0.405
0.475
0.59
0.725
0.87
1.01
1.145
1.265
1.425
1.645
1.855
1.995
1.99
1.79
1.45
0.995
0.565
0.28
0.11
0.005
-0.015
0.01
0.03
0.05
0.025
0.01
-0.005
0.0
0.005
-0.02
-0.035
-0.055
-0.055
-0.045
-0.045
-0.045
-0.045
-0.055
-0.07
-0.05
-0.045
-0.04
-0.05
-0.07
-0.05
-0.05
-0.04
-0.045
-0.06
-0.085
-0.08
-0.07
-0.055
-0.05
-0.065
-0.08
-0.09
-0.065
-0.065
-0.06
-0.075
-0.105
-0.1
-0.08
-0.07
-0.07
-0.075
-0.1
-0.09
-0.085
-0.065
-0.055
-0.065
-0.085
-0.095
-0.09
-0.06
-0.065
-0.07
-0.085
-0.095
-0.075
-0.055
-0.055
-0.06
-0.075
-0.07
-0.075
-0.055
-0.04
-0.055
-0.075
-0.065
-0.05
-0.015
-0.015
-0.015
-0.03
-0.02
-0.02
0.005
0.015
0.005
-0.01
0.02
0.045
0.06
0.075
0.075
0.07
0.075
0.12
0.15
0.16
0.15
0.155
0.16
0.19
0.22
0.245
0.245
0.245
0.25
0.25
0.27
0.26
0.245
0.235
0.225
0.23
0.235
0.215
0.205
0.175
0.155
0.165
0.16
0.16
0.14
0.11
0.08
0.085
0.105
0.11
0.105
0.07
0.075
0.075
0.1
0.08
0.065
0.055
0.045
0.05
0.08
0.07
0.055
0.05
0.04
0.065
0.07
0.065
0.055
0.025
0.03
0.04
0.04
0.045
0.035
0.015
0.015
0.02
0.04
0.045
0.03
0.01
-0.005
0.005
0.015
0.01
-0.005
-0.01
-0.005
0.0
0.0
0.005
-0.005
-0.02
-0.01
-0.015
-0.005
0.005
0.01
-0.015
-0.02
-0.005
0.01
0.015
0.0
0.0
-0.025
-0.02
0.005
0.01
0.0
-0.015
-0.015
0.0
0.01
0.01
-0.005
-0.015
-0.015
0.005
0.02
0.005
0.0
-0.015
-0.025
-0.015
0.0
0.01
0.0
0.0
-0.015
0.0
0.0
0.0
-0.015
-0.025
-0.02
-0.01
-0.005
-0.005
-0.015
-0.03
-0.035
-0.015
-0.005
-0.015
-0.025
-0.055
-0.045
-0.045
-0.02
-0.02
-0.02
-0.045
-0.03
-0.025
-0.03
-0.04
-0.025
-0.035
-0.05
-0.035
-0.025
-0.035
-0.05
-0.05
-0.045
-0.045
-0.025
-0.04
-0.04
-0.045
-0.045
-0.04
-0.015
-0.025
-0.04
-0.06
-0.055
-0.045
-0.025
-0.035
-0.05
-0.055
-0.055
-0.04
-0.04
-0.05
-0.04
-0.06
-0.065
-0.06
-0.04
-0.04
-0.045
-0.06
-0.065
-0.05
-0.035
-0.03
-0.045
-0.06
-0.055
-0.045
-0.035
-0.035
-0.04
-0.045
-0.055
-0.025
-0.02
-0.015
-0.01
-0.025
-0.015
-0.01
0.005
0.025
0.015
0.0
0.0
0.015
0.03
0.03
0.01
-0.015
-0.015
-0.005
-0.01
0.0
-0.01
-0.015
-0.015
-0.01
0.01
0.0
-0.005
0.0
-0.005
0.005
0.02
0.015
0.005
-0.02
-0.03
-0.025
-0.02
-0.025
-0.04
-0.045
-0.045
-0.035
-0.04
-0.015
-0.03
-0.05
-0.05
-0.04
-0.025
-0.035
-0.045
-0.05
-0.055
-0.055
-0.03
-0.025
-0.04
-0.045
-0.04
-0.045
-0.025
-0.03
-0.025
-0.05
-0.04
-0.04
-0.02
-0.02
-0.04
-0.04
-0.035
-0.005
0.045
0.045
0.065
0.095
0.15
0.21
0.25
0.295
0.38
0.465
0.6
0.75
0.9
1.035
1.17
1.295
1.475
1.71
1.895
1.99
1.955
1.775
1.475
1.06
0.685
0.385
0.185
0.02
-0.07
-0.08
-0.055
-0.045
-0.045
-0.065
-0.065
-0.06
-0.07
-0.07
-0.095
-0.135
-0.13
-0.125
-0.115
-0.115
-0.125
-0.14
-0.14
-0.135
-0.12
-0.145
-0.135
-0.15
-0.16
-0.14
-0.135
-0.135
-0.14
-0.155
-0.155
-0.16
-0.15
-0.15
-0.155
-0.18
-0.185
-0.16
-0.155
-0.16
-0.18
-0.19
-0.175
-0.17
-0.15
-0.155
-0.165
-0.18
-0.19
-0.175
-0.16
-0.15
-0.165
-0.18
-0.17
-0.175
-0.16
-0.16
-0.16
-0.165
-0.17
-0.16
-0.145
-0.145
-0.155
-0.155
-0.16
-0.135
-0.12
-0.13
-0.12
-0.13
-0.14
-0.115
-0.095
-0.11
-0.105
-0.105
-0.105
-0.075
-0.055
-0.055
-0.055
-0.05
-0.05
-0.015
0.01
0.015
0.005
0.0
0.025
0.05
0.065
0.09
0.085
0.11
0.11
0.135
0.165
0.17
0.175
0.17
0.19
0.22
0.25
0.24
0.23
0.22
0.215
0.205
0.22
0.215
0.21
0.17
0.165
0.155
0.155
0.145
0.135
0.11
0.105
0.105
0.095
0.09
0.07
0.045
0.035
0.05
0.055
0.05
0.03
0.03
0.02
0.03
0.035
0.035
0.025
0.015
0.01
0.03
0.035
0.02
0.02
0.005
0.0
0.02
0.025
0.015
0.015
-0.005
-0.02
0.015
0.02
0.015
-0.005
-0.01
-0.005
0.005
0.005
0.005
0.005
-0.015
-0.015
-0.01
0.005
-0.005
-0.025
-0.02
-0.015
-0.005
0.0
0.005
-0.01
-0.01
-0.03
-0.005
0.005
0.005
-0.005
-0.005
-0.01
-0.005
0.02
0.005
0.0
-0.01
-0.02
-0.01
0.015
0.005
0.005
-0.015
-0.005
0.0
0.015
0.015
0.0
-0.005
-0.01
0.025
0.02
0.01
-0.01
-0.015
-0.005
-0.005
0.0
0.01
0.0
-0.01
-0.015
0.015
0.015
0.01
-0.015
-0.015
-0.025
-0.01
0.005
0.005
-0.005
-0.015
0.0
-0.01
-0.005
0.0
-0.01
-0.025
-0.025
-0.02
-0.005
-0.01
-0.02
-0.03
-0.02
-0.01
0.005
0.01
0.0
-0.02
-0.025
-0.005
0.005
0.01
0.005
-0.01
-0.02
0.0
0.0
0.01
0.0
-0.01
0.0
0.02
0.02
0.01
-0.005
-0.015
-0.02
0.01
0.005
0.02
0.005
-0.005
-0.01
-0.005
0.025
0.02
0.015
-0.005
-0.01
0.01
0.02
0.02
0.005
0.0
-0.005
0.015
0.025
0.015
0.005
-0.005
0.005
0.02
0.035
0.03
0.005
-0.005
-0.005
0.01
0.02
0.03
0.02
0.01
0.015
0.04
0.04
0.025
0.035
0.03
0.045
0.05
0.07
0.07
0.05
0.05
0.05
0.075
0.09
0.095
0.085
0.06
0.07
0.075
0.075
0.06
0.055
0.04
0.045
0.05
0.055
0.05
0.045
0.035
0.035
0.065
0.075
0.065
0.07
0.04
0.05
0.05
0.075
0.04
0.035
0.005
0.01
0.03
0.035
0.035
0.025
0.02
0.02
0.025
0.035
0.035
0.03
0.01
0.02
0.035
0.035
0.035
0.01
0.005
0.01
0.025
0.035
0.04
0.04
0.025
0.03
0.035
0.04
0.04
0.02
0.025
0.03
0.055
0.08
0.09
0.115
0.125
0.165
0.23
0.29
0.34
0.41
0.5
0.64
0.805
0.96
1.105
1.25
1.37
1.54
1.755
1.955
2.015
1.93
1.68
1.275
0.84
0.495
0.255
0.07
-0.015
-0.015
-0.005
0.015
0.005
0.005
-0.005
-0.005
-0.01
-0.01
-0.03
-0.05
-0.07
-0.07
-0.05
-0.055
-0.05
-0.06
-0.08
-0.06
-0.065
-0.05
-0.055
-0.07
-0.07
-0.075
-0.065
-0.04
-0.06
-0.075
-0.085
-0.085
-0.08
-0.075
-0.07
-0.085
-0.095
-0.09
-0.07
-0.07
-0.08
-0.105
-0.125
-0.11
-0.1
-0.08
-0.085
-0.095
-0.12
-0.115
-0.11
-0.09
-0.08
-0.09
-0.11
-0.105
-0.09
-0.09
-0.08
-0.09
-0.09
-0.085
-0.07
-0.065
-0.065
-0.085
-0.085
-0.085
-0.065
-0.055
-0.055
-0.06
-0.07
-0.065
-0.04
-0.01
-0.005
-0.015
-0.02
-0.02
0.01
0.04
0.04
0.04
0.04
0.065
0.09
0.12
0.13
0.125
0.13
0.155
0.175
0.21
0.22
0.225
0.215
0.215
0.245
0.245
0.255
0.235
0.23
0.225
0.22
0.22
0.195
0.165
0.15
0.165
0.155
0.155
0.135
0.1
0.085
0.085
0.085
0.095
0.08
0.085
0.06
0.05
0.06
0.065
0.06
0.045
0.025
0.025
0.035
0.05
0.045
0.04
0.02
0.02
0.04
0.055
0.04
0.035
0.01
0.01
0.02
0.025
0.03
0.015
0.0
0.0
0.015
0.015
0.015
0.005
-0.005
-0.01
-0.005
0.0
0.005
-0.01
-0.025
-0.025
-0.005
0.0
0.01
-0.015
-0.035
-0.015
-0.01
-0.005
0.0
-0.015
-0.025
-0.025
-0.01
0.0
0.005
0.0
0.0
-0.015
-0.005
0.01
0.01
0.0
-0.01
-0.005
-0.005
0.005
-0.005
-0.01
-0.005
-0.01
-0.015
0.015
-0.015
-0.01
-0.04
-0.025
-0.01
-0.005
-0.02
-0.03
-0.04
-0.03
-0.015
-0.015
-0.02
-0.035
-0.05
-0.045
-0.03
-0.025
-0.025
-0.04
-0.045
-0.05
-0.04
-0.025
-0.03
-0.035
-0.05
-0.05
-0.045
-0.04
-0.04
-0.055
-0.065
-0.06
-0.05
-0.035
-0.04
-0.06
-0.065
-0.065
-0.045
-0.035
-0.04
-0.06
-0.075
-0.07
-0.055
-0.035
-0.04
-0.06
-0.07
-0.065
-0.05
-0.04
-0.05
-0.07
-0.07
-0.075
-0.06
-0.055
-0.06
-0.075
-0.08
-0.07
-0.06
-0.04
-0.04
-0.055
-0.08
-0.06
-0.05
-0.045
-0.04
-0.06
-0.07
-0.065
-0.055
-0.045
-0.05
-0.05
-0.065
-0.06
-0.055
-0.035
-0.055
-0.065
-0.07
-0.065
-0.045
-0.04
-0.04
-0.05
-0.065
-0.07
-0.055
-0.035
-0.04
-0.045
-0.045
-0.035
-0.015
0.0
-0.005
-0.005
-0.015
-0.01
0.005
0.01
0.025
0.01
-0.01
-0.005
0.0
0.0
-0.01
-0.025
-0.025
-0.03
-0.02
-0.01
-0.005
-0.015
-0.02
-0.02
0.0
0.01
0.005
-0.015
-0.035
-0.03
-0.025
-0.025
-0.035
-0.045
-0.05
-0.05
-0.035
-0.02
-0.025
-0.045
-0.055
-0.05
-0.035
-0.03
-0.04
-0.045
-0.055
-0.045
-0.04
-0.03
-0.03
-0.05
-0.055
-0.055
-0.035
-0.025
-0.03
-0.035
-0.055
-0.055
-0.04
-0.02
-0.02
-0.025
-0.02
0.0
0.025
0.065
0.09
0.135
0.175
0.22
0.28
0.365
0.46
0.6
0.74
0.905
1.07
1.23
1.405
1.59
1.805
1.975
2.04
1.94
1.635
1.18
0.755
0.41
0.2
0.06
-0.05
-0.075
-0.085
-0.06
-0.045
-0.03
-0.025
-0.05
-0.08
-0.1
-0.095
-0.085
-0.11
-0.11
-0.125
-0.12
-0.115
-0.1
-0.115
-0.125
-0.12
-0.125
-0.11
-0.1
-0.12
-0.125
-0.135
-0.135
-0.115
-0.105
-0.12
-0.13
-0.145
-0.135
-0.145
-0.12
-0.13
-0.145
-0.155
-0.155
-0.145
-0.125
-0.135
-0.14
-0.16
-0.15
-0.145
-0.13
-0.135
-0.145
-0.16
-0.155
-0.145
-0.125
-0.115
-0.135
-0.145
-0.13
-0.135
-0.095
-0.115
-0.115
-0.13
-0.12
-0.11
-0.085
-0.085
-0.09
-0.085
-0.085
-0.075
-0.04
-0.035
-0.04
-0.035
-0.03
0.0
0.015
0.04
0.045
0.06
0.065
0.095
0.135
0.145
0.145
0.16
0.19
0.22
0.24
0.24
0.23
0.24
0.245
0.25
0.27
0.245
0.235
0.21
0.195
0.205
0.195
0.175
0.16
0.13
0.12
0.125
0.135
0.1
0.09
0.07
0.08
0.085
0.09
0.065
0.055
0.05
0.045
0.06
0.06
0.06
0.05
0.04
0.04
0.06
0.055
0.05
0.045
0.04
0.04
0.055
0.07
0.055
0.025
0.025
0.03
0.045
0.055
0.05
0.025
0.02
0.015
0.03
0.04
0.035
0.02
0.015
0.03
0.025
0.04
0.035
0.015
0.01
0.03
0.03
0.035
0.025
0.015
0.01
0.015
0.035
0.035
0.03
0.03
0.02
0.025
0.035
0.045
0.045
0.035
0.025
0.03
0.05
0.075
0.075
0.07
0.075
0.12
0.185
0.27
0.355
0.45
0.525
0.59
0.615
0.585
0.505
0.365
0.165
-0.115
-0.445
-0.835
-1.3
-1.67
-1.855
-1.905
-1.905
-1.91
-1.9
-1.85
-1.785
-1.67
-1.545
-1.39
-1.245
-1.13
-1.02
-0.92
-0.815
-0.735
-0.655
-0.58
-0.53
-0.47
-0.42
-0.375
-0.34
-0.3
-0.265
-0.22
-0.145
-0.09
-0.045
-0.01
0.025
0.06
0.12
0.165
0.185
0.19
0.18
0.21
0.225
0.245
0.255
0.26
0.26
0.285
0.29
0.32
0.31
0.295
0.295
0.295
0.32
0.35
0.35
0.335
0.355
0.345
0.39
0.4
0.405
0.41
0.41
0.415
0.445
0.46
0.46
0.46
0.465
0.475
0.505
0.535
0.53
0.535
0.545
0.565
0.59
0.63
0.635
0.645
0.66
0.675
0.71
0.745
0.77
0.775
0.795
0.835
0.865
0.9
0.925
0.94
0.955
0.995
1.025
1.06
1.075
1.085
1.1
1.13
1.155
1.18
1.175
1.165
1.15
1.16
1.16
1.17
1.145
1.11
1.08
1.08
1.06
1.04
1.01
0.965
0.92
0.9
0.865
0.86
0.825
0.785
0.74
0.715
0.71
0.68
0.65
0.605
0.56
0.53
0.52
0.49
0.46
0.435
0.385
0.355
0.34
0.34
0.31
0.275
0.245
0.225
0.22
0.225
0.2
0.165
0.16
0.155
0.155
0.16
0.145
0.145
0.105
0.115
0.12
0.125
0.105
0.1
0.08
0.085
0.1
0.105
0.09
0.065
0.06
0.065
0.07
0.09
0.07
0.065
0.045
0.06
0.05
0.09
0.06
0.055
0.04
0.045
0.05
0.05
0.05
0.03
0.015
0.03
0.04
0.05
0.025
0.025
0.01
0.005
0.015
0.03
0.025
-0.005
-0.005
-0.01
-0.01
0.01
-0.005
-0.01
-0.025
-0.02
-0.015
-0.005
-0.02
-0.035
-0.045
-0.04
-0.03
-0.02
-0.015
-0.03
-0.045
-0.03
-0.025
-0.015
-0.025
-0.04
-0.045
-0.04
-0.02
-0.025
-0.035
-0.05
-0.06
-0.055
-0.04
-0.03
-0.035
-0.05
-0.045
-0.045
-0.035
-0.035
-0.035
-0.05
-0.06
-0.05
-0.03
-0.04
-0.04
-0.045
-0.06
-0.065
-0.045
-0.035
-0.02
-0.045
-0.055
-0.05
-0.04
-0.04
-0.045
-0.05
-0.06
-0.05
-0.04
-0.02
-0.03
-0.05
-0.055
-0.05
-0.04
-0.025
-0.03
-0.035
-0.05
-0.045
-0.025
-0.025
-0.03
-0.05
-0.05
-0.055
-0.04
-0.025
-0.03
-0.045
-0.05
-0.04
-0.04
-0.025
-0.03
-0.045
-0.045
-0.045
-0.03
-0.015
-0.035
-0.04
-0.045
-0.04
-0.03
-0.01
-0.02
-0.045
-0.055
-0.045
-0.035
-0.02
-0.025
-0.04
-0.04
-0.04
-0.015
-0.01
-0.02
-0.03
-0.045
-0.03
-0.02
0.0
-0.02
-0.035
-0.035
-0.02
-0.015
0.0
-0.02
-0.02
-0.03
-0.02
0.005
0.015
0.01
-0.015
-0.02
-0.02
-0.005
0.01
0.01
0.0
-0.01
0.01
0.015
0.015
0.02
0.015
0.0
0.02
0.02
0.025
0.03
0.01
-0.005
0.015
0.02
0.03
0.035
0.03
0.02
0.015
0.04
0.055
0.045
0.035
0.03
0.03
0.04
0.055
0.04
0.01
0.015
0.025
0.05
0.06
0.055
0.035
0.035
0.035
0.05
0.05
0.06
0.04
0.025
0.035
0.05
0.06
0.055
0.045
0.04
0.05
0.075
0.08
0.07
0.055
0.04
0.05
0.07
0.08
0.09
0.065
0.06
0.07
0.06
0.085
0.09
0.07
0.075
0.07
0.085
0.09
0.085
0.065
0.07
0.075
0.08
0.095
0.08
0.075
0.065
0.075
0.085
0.09
0.085
0.09
0.07
0.075
0.095
0.095
0.095
0.075
0.065
0.08
0.095
0.09
0.085
0.07
0.075
0.08
0.1
0.11
0.11
0.1
0.09
0.085
0.1
0.1
0.095
0.095
0.095
0.1
0.095
0.115
0.11
0.1
0.095
0.1
0.1
0.1
0.105
0.105
0.075
0.095
0.1
0.12
0.1
0.1
0.095
0.105
0.12
0.125
0.115
0.09
0.1
0.1
0.11
0.115
0.1
0.09
0.085
0.095
0.105
0.115
0.11
0.105
0.1
0.09
0.11
0.11
0.105
0.105
0.09
0.095
0.11
0.125
0.12
0.085
0.09
0.1
0.105
0.125
0.11
0.105
0.09
0.09
0.11
0.125
0.115
0.105
0.09
0.105
0.115
0.115
0.115
0.105
0.1
0.105
0.12
0.14
0.125
0.12
0.13
0.13
0.15
0.16
0.145
0.14
0.155
0.15
0.18
0.18
0.17
0.165
0.165
0.15
0.18
0.175
0.16
0.15
0.145
0.155
0.14
0.165
0.15
0.135
0.14
0.145
0.16
0.18
0.165
0.165
0.165
0.165
0.17
0.17
0.145
0.135
0.12
0.12
0.125
0.135
0.125
0.12
0.1
0.105
0.125
0.135
0.125
0.12
0.095
0.09
0.105
0.125
0.12
0.1
0.095
0.105
0.12
0.115
0.105
0.085
0.095
0.09
0.13
0.14
0.135
0.125
0.12
0.135
0.155
0.175
0.205
0.22
0.245
0.3
0.365
0.38
0.415
0.47
0.58
0.715
0.87
1.0
1.14
1.29
1.445
1.635
1.855
2.025
2.055
1.935
1.63
1.195
0.77
0.455
0.24
0.12
0.095
0.14
0.165
0.155
0.135
0.11
0.08
0.07
0.08
0.07
0.055
0.035
0.01
0.03
0.045
0.05
0.035
0.01
-0.005
0.02
0.025
0.03
0.01
-0.005
-0.01
0.0
0.005
0.005
0.005
-0.015
-0.03
-0.015
0.01
-0.01
0.0
-0.005
-0.025
-0.025
0.0
-0.005
0.0
-0.01
-0.015
-0.02
0.0
0.005
-0.005
-0.025
-0.035
-0.02
0.005
-0.005
-0.015
-0.02
-0.03
-0.015
0.01
-0.005
-0.01
-0.025
-0.01
-0.005
0.005
0.01
0.01
0.005
0.0
0.01
0.015
0.04
0.035
0.035
0.015
0.03
0.045
0.05
0.045
0.045
0.035
0.055
0.075
0.07
0.07
0.075
0.05
0.065
0.085
0.105
0.1
0.1
0.095
0.105
0.12
0.155
0.14
0.145
0.15
0.17
0.19
0.21
0.21
0.215
0.22
0.255
0.29
0.305
0.305
0.305
0.3
0.315
0.34
0.355
0.355
0.36
0.33
0.35
0.35
0.35
0.345
0.32
0.31
0.315
0.31
0.305
0.295
0.285
0.255
0.27
0.27
0.275
0.25
0.23
0.215
0.23
0.23
0.235
0.225
0.215
0.195
0.195
0.21
0.21
0.195
0.18
0.18
0.19
0.2
0.21
0.19
0.18
0.165
0.175
0.185
0.195
0.19
0.19
0.165
0.175
0.175
0.185
0.175
0.175
0.17
0.17
0.19
0.2
0.185
0.17
0.155
0.17
0.18
0.18
0.18
0.165
0.155
0.17
0.18
0.185
0.175
0.17
0.155
0.16
0.17
0.185
0.175
0.155
0.145
0.14
0.16
0.17
0.16
0.135
0.13
0.14
0.14
0.16
0.14
0.125
0.12
0.135
0.13
0.14
0.125
0.115
0.105
0.105
0.125
0.13
0.12
0.1
0.1
0.105
0.11
0.105
0.1
0.085
0.09
0.085
0.095
0.095
0.095
0.07
0.065
0.08
0.08
0.09
0.07
0.065
0.065
0.065
0.08
0.085
0.065
0.05
0.045
0.06
0.07
0.07
0.065
0.04
0.035
0.05
0.06
0.065
0.06
0.035
0.035
0.04
0.06
0.065
0.065
0.035
0.04
0.045
0.055
0.055
0.05
0.04
0.035
0.05
0.06
0.06
0.06
0.035
0.03
0.03
0.05
0.055
0.05
0.045
0.02
0.045
0.05
0.05
0.03
0.03
0.025
0.035
0.055
0.06
0.05
0.02
0.03
0.035
0.045
0.05
0.04
0.03
0.03
0.035
0.045
0.045
0.045
0.035
0.04
0.045
0.055
0.055
0.04
0.025
0.015
0.035
0.05
0.06
0.05
0.035
0.025
0.04
0.04
0.05
0.05
0.035
0.035
0.04
0.045
0.065
0.055
0.03
0.04
0.045
0.075
0.08
0.09
0.075
0.08
0.1
0.1
0.11
0.105
0.095
0.1
0.095
0.115
0.11
0.105
0.08
0.06
0.08
0.075
0.085
0.075
0.07
0.075
0.085
0.095
0.11
0.1
0.09
0.08
0.085
0.1
0.095
0.08
0.045
0.04
0.03
0.045
0.07
0.05
0.045
0.035
0.035
0.045
0.055
0.035
0.025
0.035
0.045
0.05
0.05
0.05
0.03
0.02
0.04
0.055
0.05
0.045
0.025
0.03
0.045
0.065
0.07
0.055
0.05
0.045
0.055
0.09
0.11
0.135
0.16
0.195
0.255
0.32
0.37
0.425
0.505
0.635
0.82
1.005
1.175
1.34
1.485
1.68
1.925
2.12
2.185
2.065
1.725
1.23
0.755
0.42
0.21
0.065
0.015
0.02
0.04
0.06
0.055
0.025
0.0
-0.01
-0.015
-0.025
-0.025
-0.04
-0.06
-0.07
-0.075
-0.055
-0.045
-0.06
-0.07
-0.085
-0.085
-0.06
-0.075
-0.08
-0.095
-0.1
-0.09
-0.09
-0.1
-0.095
-0.115
-0.105
-0.1
-0.1
-0.085
-0.11
-0.115
-0.135
-0.105
-0.09
-0.085
-0.09
-0.115
-0.11
-0.11
-0.105
-0.085
-0.1
-0.1
-0.115
-0.11
-0.09
-0.09
-0.095
-0.105
-0.12
-0.095
-0.075
-0.065
-0.08
-0.09
-0.09
-0.1
-0.065
-0.075
-0.07
-0.085
-0.075
-0.06
-0.055
-0.04
-0.045
-0.055
-0.065
-0.04
-0.015
-0.02
-0.02
-0.03
-0.03
-0.025
0.0
0.01
0.01
0.015
0.01
0.045
0.06
0.065
0.065
0.065
0.075
0.105
0.13
0.13
0.145
0.135
0.135
0.17
0.18
0.195
0.205
0.185
0.205
0.21
0.225
0.23
0.225
0.21
0.2
0.21
0.22
0.205
0.195
0.17
0.155
0.17
0.165
0.15
0.145
0.135
0.11
0.11
0.13
0.125
0.1
0.095
0.09
0.09
0.11
0.105
0.095
0.075
0.07
0.075
0.095
0.1
0.085
0.065
0.065
0.07
0.075
0.08
0.07
0.07
0.055
0.06
0.075
0.075
0.065
0.04
0.04
0.05
0.06
0.065
0.065
0.05
0.035
0.055
0.06
0.065
0.06
0.05
0.04
0.045
0.065
0.07
0.055
0.05
0.05
0.065
0.085
0.075
0.08
0.075
0.055
0.065
0.085
0.095
0.09
0.075
0.06
0.07
0.075
0.08
0.075
0.075
0.075
0.07
0.085
0.09
0.075
0.055
0.055
0.07
0.075
0.08
0.08
0.06
0.055
0.045
0.07
0.06
0.065
0.045
0.04
0.045
0.06
0.055
0.045
0.035
0.04
0.04
0.055
0.055
0.05
0.025
0.02
0.03
0.045
0.035
0.045
0.03
0.02
0.04
0.055
0.045
0.04
0.025
0.015
0.035
0.055
0.05
0.035
0.02
0.03
0.03
0.04
0.045
0.03
0.025
0.01
0.03
0.02
0.035
0.03
0.015
0.01
0.03
0.04
0.045
0.03
0.015
0.015
0.02
0.045
0.035
0.03
0.025
0.015
0.015
0.04
0.035
0.035
0.02
0.025
0.025
0.04
0.055
0.03
0.025
0.01
0.025
0.045
0.045
0.05
0.03
0.03
0.03
0.04
0.05
0.045
0.04
0.04
0.04
0.045
0.05
0.035
0.02
0.025
0.04
0.055
0.045
0.045
0.035
0.02
0.035
0.055
0.055
0.05
0.045
0.035
0.05
0.05
0.04
0.04
0.03
0.045
0.045
0.06
0.055
0.05
0.05
0.055
0.07
0.095
0.09
0.085
0.085
0.08
0.095
0.11
0.12
0.115
0.09
0.09
0.105
0.095
0.09
0.065
0.065
0.05
0.065
0.075
0.085
0.075
0.065
0.055
0.07
0.095
0.1
0.085
0.07
0.06
0.075
0.075
0.075
0.055
0.025
0.02
0.04
0.055
0.06
0.05
0.03
0.03
0.03
0.05
0.055
0.045
0.03
0.03
0.04
0.045
0.055
0.035
0.025
0.03
0.05
0.055
0.055
0.04
0.03
0.025
0.035
0.04
0.055
0.04
0.04
0.025
0.055
0.08
0.095
0.095
0.12
0.14
0.2
0.26
0.315
0.34
0.4
0.495
0.65
0.805
0.965
1.1
1.245
1.415
1.615
1.845
2.015
2.055
1.9
1.575
1.125
0.705
0.4
0.17
0.025
-0.03
-0.02
0.025
0.045
0.025
0.01
0.0
0.01
0.01
-0.01
-0.035
-0.05
-0.045
-0.05
-0.04
-0.05
-0.04
-0.065
-0.065
-0.065
-0.05
-0.055
-0.06
-0.075
-0.075
-0.065
-0.065
-0.065
-0.07
-0.09
-0.1
-0.075
-0.075
-0.07
-0.085
-0.095
-0.11
-0.09
-0.08
-0.085
-0.08
-0.095
-0.09
-0.09
-0.08
-0.08
-0.08
-0.095
-0.1
-0.095
-0.07
-0.07
-0.08
-0.09
-0.1
-0.08
-0.07
-0.06
-0.07
-0.09
-0.095
-0.08
-0.055
-0.055
-0.045
-0.07
-0.065
-0.06
-0.05
-0.03
-0.025
-0.04
-0.035
-0.02
-0.015
-0.01
0.0
-0.005
-0.01
0.025
0.05
0.06
0.06
0.05
0.07
0.075
0.1
0.12
0.12
0.13
0.135
0.16
0.18
0.205
0.205
0.21
0.215
0.225
0.245
0.24
0.235
0.22
0.215
0.215
0.235
0.22
0.21
0.185
0.175
0.165
0.175
0.16
0.155
0.12
0.125
0.11
0.115
0.115
0.1
0.095
0.09
0.095
0.095
0.09
0.075
0.065
0.065
0.08
0.085
0.085
0.07
0.05
0.05
0.075
0.08
0.09
0.07
0.06
0.045
0.06
0.08
0.075
0.06
0.05
0.05
0.06
0.065
0.055
0.055
0.03
0.05
0.045
0.065
0.065
0.045
0.035
0.03
0.06
0.075
0.07
0.07
0.045
0.06
0.06
0.07
0.085
0.065
0.065
0.075
0.085
0.08
0.08
0.08
0.07
0.065
0.075
0.085
0.09
0.08
0.075
0.055
0.07
0.08
0.075
0.065
0.04
0.04
0.05
0.055
0.065
0.045
0.05
0.05
0.045
0.07
0.065
0.055
0.04
0.045
0.04
0.05
0.055
0.04
0.035
0.03
0.035
0.04
0.04
0.04
0.02
0.025
0.045
0.045
0.04
0.03
0.02
0.015
0.035
0.05
0.045
0.04
0.015
0.015
0.03
0.03
0.045
0.03
0.025
0.03
0.015
0.03
0.035
0.035
0.02
0.015
0.025
0.05
0.05
0.035
0.015
0.02
0.02
0.025
0.03
0.025
0.01
0.015
0.015
0.03
0.025
0.01
0.01
0.015
0.015
0.035
0.035
0.02
0.005
0.01
0.025
0.045
0.03
0.025
0.025
0.005
0.03
0.035
0.03
0.025
0.02
0.025
0.035
0.035
0.04
0.035
0.03
0.03
0.045
0.04
0.05
0.03
0.03
0.03
0.05
0.06
0.04
0.035
0.025
0.035
0.045
0.055
0.05
0.055
0.025
0.035
0.05
0.07
0.075
0.07
0.065
0.07
0.07
0.09
0.1
0.085
0.075
0.085
0.1
0.12
0.125
0.12
0.085
0.07
0.075
0.085
0.075
0.07
0.07
0.075
0.085
0.11
