Lead II
-0.825
-0.805
-0.765
-0.74
-0.72
-0.705
-0.66
-0.64
-0.585
-0.565
-0.555
-0.565
-0.545
-0.51
-0.47
-0.45
-0.44
-0.435
-0.415
-0.38
-0.35
-0.345
-0.36
-0.355
-0.355
-0.33
-0.32
-0.325
-0.335
-0.36
-0.35
-0.36
-0.345
-0.34
-0.345
-0.35
-0.355
-0.34
-0.325
-0.325
-0.33
-0.345
-0.35
-0.345
-0.33
-0.335
-0.35
-0.36
-0.365
-0.34
-0.335
-0.33
-0.345
-0.345
-0.335
-0.33
-0.315
-0.32
-0.335
-0.325
-0.32
-0.315
-0.305
-0.305
-0.32
-0.33
-0.32
-0.315
-0.285
-0.28
-0.305
-0.31
-0.3
-0.275
-0.275
-0.28
-0.29
-0.295
-0.3
-0.305
-0.28
-0.295
-0.28
-0.3
-0.295
-0.275
-0.255
-0.27
-0.285
-0.295
-0.295
-0.275
-0.27
-0.26
-0.275
-0.29
-0.295
-0.285
-0.265
-0.265
-0.28
-0.29
-0.27
-0.27
-0.25
-0.245
-0.26
-0.27
-0.255
-0.235
-0.215
-0.205
-0.2
-0.2
-0.195
-0.18
-0.15
-0.125
-0.13
-0.12
-0.115
-0.08
-0.075
-0.08
-0.09
-0.105
-0.1
-0.105
-0.095
-0.105
-0.155
-0.17
-0.19
-0.19
-0.185
-0.205
-0.215
-0.24
-0.23
-0.23
-0.23
-0.245
-0.245
-0.25
-0.25
-0.24
-0.235
-0.235
-0.255
-0.27
-0.255
-0.26
-0.225
-0.23
-0.245
-0.25
-0.26
-0.24
-0.22
-0.22
-0.24
-0.25
-0.25
-0.22
-0.14
-0.03
0.115
0.295
0.525
0.75
0.99
1.22
1.41
1.54
1.57
1.365
0.995
0.59
0.21
-0.06
-0.185
-0.19
-0.2
-0.245
-0.295
-0.285
-0.235
-0.205
-0.215
-0.23
-0.25
-0.275
-0.275
-0.25
-0.255
-0.25
-0.265
-0.285
-0.285
-0.28
-0.26
-0.255
-0.28
-0.285
-0.275
-0.255
-0.245
-0.24
-0.255
-0.285
-0.27
-0.26
-0.255
-0.235
-0.25
-0.265
-0.255
-0.245
-0.23
-0.22
-0.225
-0.225
-0.22
-0.195
-0.175
-0.17
-0.165
-0.16
-0.165
-0.145
-0.13
-0.13
-0.13
-0.115
-0.105
-0.075
-0.045
-0.03
-0.025
-0.025
-0.005
0.02
0.045
0.055
0.05
0.065
0.075
0.11
0.14
0.155
0.155
0.15
0.17
0.185
0.215
0.23
0.21
0.225
0.23
0.23
0.24
0.225
0.195
0.165
0.135
0.12
0.1
0.095
0.05
0.015
-0.01
-0.025
-0.05
-0.07
-0.105
-0.14
-0.17
-0.175
-0.18
-0.195
-0.22
-0.225
-0.225
-0.22
-0.225
-0.23
-0.245
-0.26
-0.255
-0.24
-0.225
-0.23
-0.275
-0.28
-0.275
-0.27
-0.25
-0.255
-0.29
-0.285
-0.27
-0.265
-0.225
-0.235
-0.235
-0.265
-0.25
-0.24
-0.235
-0.24
-0.26
-0.27
-0.25
-0.26
-0.23
-0.225
-0.255
-0.26
-0.26
-0.245
-0.235
-0.245
-0.26
-0.275
-0.255
-0.26
-0.26
-0.255
-0.28
-0.275
-0.255
-0.26
-0.21
-0.18
-0.155
-0.165
-0.17
-0.165
-0.14
-0.13
-0.13
-0.14
-0.155
-0.15
-0.145
-0.155
-0.155
-0.175
-0.18
-0.17
-0.17
-0.19
-0.23
-0.255
-0.27
-0.275
-0.255
-0.27
-0.285
-0.295
-0.32
-0.32
-0.295
-0.3
-0.31
-0.33
-0.345
-0.325
-0.3
-0.27
-0.305
-0.33
-0.33
-0.31
-0.285
-0.28
-0.285
-0.295
-0.305
-0.29
-0.28
-0.3
-0.31
-0.275
-0.18
-0.08
0.08
0.255
0.46
0.69
0.945
1.175
1.385
1.51
1.465
1.215
0.82
0.395
-0.015
-0.26
-0.36
-0.365
-0.365
-0.38
-0.37
-0.335
-0.315
-0.31
-0.32
-0.32
-0.305
-0.315
-0.335
-0.36
-0.34
-0.32
-0.31
-0.335
-0.34
-0.37
-0.365
-0.36
-0.32
-0.295
-0.29
-0.29
-0.28
-0.27
-0.25
-0.255
-0.295
-0.325
-0.325
-0.285
-0.26
-0.25
-0.275
-0.285
-0.275
-0.255
-0.245
-0.23
-0.235
-0.215
-0.195
-0.185
-0.175
-0.17
-0.17
-0.185
-0.18
-0.175
-0.17
-0.145
-0.145
-0.145
-0.135
-0.095
-0.075
-0.06
-0.055
-0.055
-0.045
-0.015
0.005
0.02
0.02
0.02
0.035
0.055
0.075
0.075
0.085
0.06
0.04
0.05
0.085
0.1
0.1
0.075
0.075
0.08
0.09
0.075
0.025
-0.005
-0.025
-0.04
-0.055
-0.06
-0.085
-0.125
-0.14
-0.155
-0.155
-0.165
-0.195
-0.225
-0.26
-0.255
-0.255
-0.245
-0.265
-0.285
-0.27
-0.255
-0.24
-0.26
-0.295
-0.305
-0.285
-0.275
-0.25
-0.235
-0.275
-0.3
-0.295
-0.26
-0.255
-0.275
-0.305
-0.295
-0.27
-0.245
-0.225
-0.23
-0.24
-0.24
-0.23
-0.225
-0.21
-0.215
-0.235
-0.235
-0.235
-0.21
-0.18
-0.195
-0.2
-0.205
-0.2
-0.195
-0.185
-0.175
-0.2
-0.205
-0.2
-0.175
-0.155
-0.155
-0.15
-0.14
-0.085
-0.03
0.02
0.08
0.13
0.2
0.32
0.435
0.555
0.64
0.705
0.765
0.85
0.945
1.065
1.195
1.315
1.39
1.465
1.55
1.61
1.63
1.595
1.505
1.42
1.34
1.26
1.185
1.11
1.06
1.02
0.99
0.985
0.95
0.92
0.905
0.905
0.91
0.89
0.82
0.715
0.59
0.415
0.19
-0.03
-0.21
-0.35
-0.45
-0.485
-0.505
-0.51
-0.525
-0.555
-0.595
-0.62
-0.65
-0.65
-0.655
-0.68
-0.705
-0.72
-0.725
-0.72
-0.72
-0.74
-0.78
-0.78
-0.785
-0.775
-0.78
-0.815
-0.84
-0.865
-0.89
-0.89
-0.9
-0.895
-0.91
-0.915
-0.915
-0.92
-0.935
-0.93
-0.95
-0.975
-0.99
-0.995
-1.01
-1.015
-1.02
-1.0
-0.985
-0.96
-0.96
-0.965
-0.965
-0.945
-0.915
-0.89
-0.865
-0.855
-0.855
-0.82
-0.765
-0.72
-0.685
-0.66
-0.645
-0.635
-0.57
-0.515
-0.475
-0.465
-0.475
-0.48
-0.45
-0.39
-0.375
-0.36
-0.38
-0.38
-0.37
-0.335
-0.32
-0.34
-0.355
-0.34
-0.315
-0.29
-0.29
-0.315
-0.355
-0.37
-0.38
-0.355
-0.345
-0.355
-0.365
-0.375
-0.34
-0.29
-0.27
-0.285
-0.31
-0.315
-0.31
-0.32
-0.34
-0.375
-0.395
-0.41
-0.405
-0.385
-0.385
-0.4
-0.425
-0.415
-0.415
-0.4
-0.41
-0.43
-0.445
-0.46
-0.47
-0.445
-0.445
-0.445
-0.445
-0.44
-0.415
-0.415
-0.405
-0.425
-0.45
-0.44
-0.425
-0.41
-0.4
-0.42
-0.42
-0.425
-0.405
-0.395
-0.385
-0.405
-0.425
-0.415
-0.4
-0.39
-0.39
-0.385
-0.39
-0.38
-0.355
-0.345
-0.37
-0.4
-0.41
-0.4
-0.375
-0.36
-0.34
-0.345
-0.355
-0.355
-0.355
-0.35
-0.32
-0.35
-0.385
-0.4
-0.385
-0.375
-0.385
-0.42
-0.45
-0.44
-0.39
-0.37
-0.365
-0.395
-0.43
-0.43
-0.415
-0.405
-0.415
-0.42
-0.45
-0.45
-0.45
-0.43
-0.405
-0.415
-0.445
-0.43
-0.425
-0.415
-0.395
-0.4
-0.415
-0.4
-0.38
-0.345
-0.325
-0.32
-0.335
-0.335
-0.32
-0.28
-0.25
-0.245
-0.245
-0.225
-0.19
-0.17
-0.18
-0.21
-0.23
-0.225
-0.21
-0.235
-0.255
-0.26
-0.285
-0.295
-0.285
-0.28
-0.275
-0.305
-0.33
-0.345
-0.35
-0.335
-0.305
-0.32
-0.345
-0.36
-0.36
-0.355
-0.33
-0.34
-0.36
-0.355
-0.34
-0.325
-0.325
-0.35
-0.35
-0.35
-0.325
-0.23
-0.115
0.03
0.235
0.48
0.725
0.985
1.215
1.34
1.33
1.125
0.735
0.32
-0.06
-0.335
-0.415
-0.4
-0.37
-0.38
-0.38
-0.37
-0.305
-0.305
-0.3
-0.32
-0.31
-0.325
-0.345
-0.345
-0.33
-0.335
-0.325
-0.34
-0.36
-0.355
-0.33
-0.3
-0.31
-0.315
-0.325
-0.325
-0.305
-0.29
-0.285
-0.285
-0.31
-0.32
-0.32
-0.295
-0.305
-0.305
-0.305
-0.305
-0.27
-0.255
-0.26
-0.28
-0.28
-0.295
-0.27
-0.245
-0.235
-0.265
-0.275
-0.265
-0.235
-0.19
-0.17
-0.18
-0.21
-0.2
-0.17
-0.135
-0.115
-0.1
-0.105
-0.1
-0.08
-0.065
-0.04
-0.02
-0.01
0.01
0.025
0.045
0.06
0.08
0.08
0.095
0.12
0.145
0.155
0.13
0.105
0.1
0.095
0.095
0.095
0.065
0.03
0.0
-0.015
-0.015
-0.06
-0.09
-0.13
-0.155
-0.17
-0.18
-0.21
-0.215
-0.25
-0.27
-0.265
-0.26
-0.26
-0.28
-0.305
-0.305
-0.305
-0.305
-0.315
-0.32
-0.35
-0.365
-0.34
-0.32
-0.31
-0.32
-0.325
-0.33
-0.32
-0.315
-0.325
-0.325
-0.315
-0.31
-0.29
-0.275
-0.27
-0.285
-0.305
-0.31
-0.285
-0.275
-0.28
-0.295
-0.315
-0.3
-0.28
-0.265
-0.27
-0.285
-0.305
-0.315
-0.31
-0.3
-0.295
-0.305
-0.305
-0.315
-0.315
-0.3
-0.28
-0.29
-0.31
-0.31
-0.285
-0.275
-0.285
-0.285
-0.275
-0.25
-0.215
-0.19
-0.175
-0.2
-0.205
-0.2
-0.155
-0.12
-0.105
-0.115
-0.145
-0.18
-0.195
-0.19
-0.21
-0.255
-0.28
-0.295
-0.285
-0.29
-0.27
-0.31
-0.355
-0.36
-0.355
-0.345
-0.34
-0.35
-0.375
-0.39
-0.375
-0.365
-0.355
-0.37
-0.385
-0.36
-0.335
-0.3
-0.27
-0.25
-0.205
-0.16
-0.095
-0.05
0.005
0.115
0.295
0.52
0.79
1.055
1.3
1.515
1.71
1.875
1.955
1.83
1.485
1.0
0.54
0.16
-0.045
-0.17
-0.24
-0.315
-0.36
-0.345
-0.315
-0.31
-0.32
-0.365
-0.395
-0.395
-0.405
-0.42
-0.445
-0.445
-0.46
-0.455
-0.445
-0.43
-0.435
-0.44
-0.45
-0.455
-0.44
-0.43
-0.42
-0.425
-0.47
-0.46
-0.445
-0.425
-0.415
-0.41
-0.43
-0.435
-0.43
-0.395
-0.39
-0.385
-0.405
-0.405
-0.395
-0.385
-0.38
-0.39
-0.42
-0.42
-0.415
-0.39
-0.37
-0.37
-0.39
-0.395
-0.38
-0.375
-0.35
-0.35
-0.36
-0.35
-0.35
-0.32
-0.305
-0.295
-0.29
-0.285
-0.275
-0.25
-0.23
-0.245
-0.24
-0.24
-0.215
-0.18
-0.175
-0.19
-0.19
-0.195
-0.175
-0.17
-0.17
-0.19
-0.215
-0.225
-0.215
-0.215
-0.215
-0.245
-0.27
-0.285
-0.275
-0.275
-0.28
-0.305
-0.315
-0.315
-0.3
-0.29
-0.285
-0.305
-0.325
-0.325
-0.315
-0.295
-0.31
-0.34
-0.345
-0.345
-0.335
-0.305
-0.295
-0.305
-0.315
-0.32
-0.305
-0.3
-0.3
-0.305
-0.32
-0.31
-0.295
-0.26
-0.255
-0.26
-0.265
-0.245
-0.225
-0.175
-0.14
-0.135
-0.105
-0.055
0.015
0.09
0.17
0.24
0.31
0.4
0.505
0.63
0.74
0.825
0.91
0.99
1.085
1.175
1.25
1.305
1.35
1.35
1.32
1.24
1.165
1.105
1.085
1.055
1.045
1.015
0.98
0.915
0.865
0.82
0.8
0.835
0.855
0.83
0.73
0.635
0.51
0.365
0.165
-0.045
-0.215
-0.34
-0.405
-0.43
-0.455
-0.485
-0.53
-0.56
-0.57
-0.605
-0.62
-0.625
-0.65
-0.66
-0.66
-0.66
-0.655
-0.675
-0.695
-0.715
-0.715
-0.7
-0.72
-0.735
-0.76
-0.775
-0.78
-0.765
-0.755
-0.765
-0.79
-0.805
-0.81
-0.805
-0.82
-0.835
-0.855
-0.855
-0.855
-0.835
-0.845
-0.865
-0.87
-0.865
-0.845
-0.845
-0.855
-0.845
-0.86
-0.85
-0.83
-0.815
-0.805
-0.82
-0.795
-0.775
-0.735
-0.7
-0.67
-0.655
-0.635
-0.6
-0.57
-0.535
-0.53
-0.525
-0.515
-0.505
-0.47
-0.44
-0.405
-0.42
-0.415
-0.425
-0.405
-0.385
-0.375
-0.385
-0.4
-0.39
-0.375
-0.375
-0.375
-0.395
-0.425
-0.415
-0.41
-0.395
-0.395
-0.41
-0.415
-0.415
-0.39
-0.37
-0.355
-0.365
-0.38
-0.385
-0.385
-0.395
-0.39
-0.385
-0.38
-0.385
-0.37
-0.36
-0.34
-0.35
-0.355
-0.365
-0.355
-0.33
-0.35
-0.355
-0.375
-0.375
-0.37
-0.34
-0.335
-0.345
-0.35
-0.355
-0.34
-0.315
-0.305
-0.305
-0.325
-0.33
-0.33
-0.285
-0.295
-0.31
-0.34
-0.34
-0.315
-0.295
-0.285
-0.295
-0.315
-0.32
-0.285
-0.285
-0.29
-0.3
-0.315
-0.295
-0.285
-0.285
-0.285
-0.29
-0.32
-0.33
-0.31
-0.285
-0.26
-0.265
-0.275
-0.28
-0.275
-0.275
-0.28
-0.275
-0.3
-0.295
-0.28
-0.27
-0.27
-0.265
-0.275
-0.27
-0.27
-0.275
-0.275
-0.255
-0.255
-0.265
-0.27
-0.265
-0.265
-0.265
-0.28
-0.3
-0.28
-0.28
-0.27
-0.26
-0.275
-0.27
-0.26
-0.22
-0.205
-0.23
-0.25
-0.27
-0.25
-0.23
-0.23
-0.235
-0.25
-0.245
-0.24
-0.21
-0.21
-0.205
-0.205
-0.195
-0.19
-0.18
-0.19
-0.205
-0.23
-0.205
-0.185
-0.13
-0.12
-0.115
-0.105
-0.1
-0.08
-0.055
-0.025
-0.01
-0.035
-0.05
-0.05
-0.045
-0.045
-0.075
-0.095
-0.1
-0.11
-0.12
-0.13
-0.16
-0.175
-0.19
-0.195
-0.19
-0.185
-0.21
-0.21
-0.205
-0.19
-0.175
-0.18
-0.195
-0.23
-0.23
-0.2
-0.19
-0.18
-0.19
-0.18
-0.18
-0.18
-0.17
-0.115
-0.005
0.15
0.335
0.57
0.855
1.08
1.275
1.38
1.32
1.045
0.635
0.215
-0.135
-0.32
-0.34
-0.28
-0.23
-0.2
-0.175
-0.155
-0.145
-0.145
-0.155
-0.155
-0.155
-0.175
-0.175
-0.16
-0.13
-0.145
-0.17
-0.195
-0.205
-0.17
-0.145
-0.145
-0.15
-0.16
-0.145
-0.125
-0.12
-0.115
-0.13
-0.145
-0.155
-0.135
-0.1
-0.09
-0.09
-0.11
-0.095
-0.085
-0.055
-0.045
-0.045
-0.055
-0.035
-0.035
-0.015
-0.03
-0.035
-0.02
0.0
0.035
0.055
0.07
0.07
0.07
0.08
0.085
0.105
0.12
0.14
0.145
0.155
0.17
0.195
0.2
0.21
0.225
0.225
0.24
0.265
0.28
0.28
0.28
0.285
0.31
0.33
0.335
0.33
0.34
0.32
0.335
0.37
0.365
0.335
0.315
0.305
0.31
0.33
0.31
0.26
0.225
0.21
0.195
0.18
0.16
0.12
0.075
0.065
0.065
0.07
0.065
0.03
-0.01
-0.03
-0.015
-0.015
-0.035
-0.06
-0.065
-0.055
-0.025
0.005
0.0
-0.025
-0.065
-0.08
-0.06
-0.02
-0.015
-0.04
-0.06
-0.065
-0.065
-0.04
-0.025
-0.025
-0.055
-0.07
-0.055
-0.03
-0.025
-0.06
-0.08
-0.07
-0.055
-0.04
-0.035
-0.02
0.005
0.02
0.035
0.05
0.06
0.075
0.08
0.085
0.1
0.12
0.125
0.095
0.09
0.06
0.065
0.075
0.075
0.05
0.015
-0.01
-0.02
-0.03
-0.025
-0.03
-0.04
-0.045
-0.035
-0.015
0.015
0.055
0.1
0.165
0.215
0.305
0.37
0.415
0.465
0.525
0.595
0.675
0.74
0.8
0.86
0.94
1.005
1.1
1.16
1.195
1.255
1.33
1.41
1.515
1.595
1.64
1.68
1.745
1.825
1.875
1.89
1.78
1.455
1.005
0.6
0.32
0.115
-0.005
-0.13
-0.21
-0.25
-0.27
-0.315
-0.345
-0.37
-0.385
-0.405
-0.415
-0.435
-0.475
-0.48
-0.48
-0.47
-0.465
-0.465
-0.49
-0.51
-0.505
-0.5
-0.49
-0.5
-0.54
-0.56
-0.565
-0.55
-0.555
-0.545
-0.555
-0.57
-0.58
-0.57
-0.55
-0.56
-0.59
-0.6
-0.615
-0.605
-0.605
-0.62
-0.635
-0.665
-0.66
-0.645
-0.635
-0.64
-0.65
-0.68
-0.68
-0.685
-0.685
-0.67
-0.685
-0.685
-0.7
-0.695
-0.685
-0.685
-0.685
-0.69
-0.665
-0.65
-0.615
-0.595
-0.59
-0.59
-0.585
-0.55
-0.51
-0.48
-0.47
-0.47
-0.45
-0.415
-0.365
-0.335
-0.325
-0.315
-0.295
-0.285
-0.26
-0.265
-0.28
-0.3
-0.285
-0.285
-0.285
-0.27
-0.265
-0.275
-0.275
-0.27
-0.255
-0.25
-0.265
-0.28
-0.28
-0.28
-0.255
-0.255
-0.3
-0.335
-0.33
-0.3
-0.28
-0.255
-0.27
-0.285
-0.285
-0.26
-0.26
-0.255
-0.285
-0.295
-0.31
-0.275
-0.225
-0.2
-0.2
-0.24
-0.255
-0.255
-0.245
-0.23
-0.23
-0.205
-0.22
-0.21
-0.195
-0.21
-0.23
-0.23
-0.23
-0.22
-0.195
-0.17
-0.18
-0.18
-0.195
-0.145
-0.11
-0.105
-0.11
-0.135
-0.13
-0.07
-0.02
0.0
-0.005
-0.025
-0.04
-0.05
-0.04
-0.055
-0.045
-0.045
-0.035
-0.025
-0.035
-0.075
-0.11
-0.145
-0.17
-0.17
-0.18
-0.16
-0.165
-0.175
-0.18
-0.16
-0.14
-0.135
-0.14
-0.16
-0.19
-0.18
-0.165
-0.15
-0.15
-0.15
-0.155
-0.165
-0.125
-0.11
-0.105
-0.13
-0.125
-0.1
-0.055
0.015
0.125
0.275
0.485
0.735
0.985
1.2
1.385
1.505
1.535
1.36
0.995
0.59
0.22
-0.035
-0.155
-0.155
-0.115
-0.11
-0.13
-0.14
-0.13
-0.105
-0.095
-0.105
-0.125
-0.145
-0.14
-0.13
-0.125
-0.14
-0.155
-0.165
-0.145
-0.125
-0.14
-0.16
-0.155
-0.17
-0.15
-0.135
-0.12
-0.12
-0.13
-0.16
-0.165
-0.135
-0.12
-0.11
-0.12
-0.135
-0.125
-0.11
-0.09
-0.085
-0.075
-0.085
-0.075
-0.055
-0.025
0.0
-0.025
0.0
0.01
0.04
0.055
0.065
0.065
0.045
0.055
0.07
0.115
0.14
0.15
0.15
0.17
0.175
0.19
0.22
0.22
0.22
0.24
0.245
0.28
0.295
0.28
0.265
0.28
0.295
0.315
0.355
0.35
0.335
0.31
0.31
0.33
0.335
0.315
0.265
0.25
0.23
0.21
0.18
0.145
0.095
0.05
0.03
0.03
0.03
0.005
-0.025
-0.06
-0.095
-0.09
-0.09
-0.12
-0.155
-0.165
-0.17
-0.155
-0.19
-0.185
-0.195
-0.195
-0.19
-0.18
-0.2
-0.2
-0.21
-0.22
-0.2
-0.19
-0.21
-0.23
-0.245
-0.245
-0.215
-0.2
-0.195
-0.205
-0.215
-0.21
-0.2
-0.175
-0.175
-0.18
-0.195
-0.2
-0.205
-0.185
-0.185
-0.19
-0.2
-0.195
-0.18
-0.165
-0.16
-0.175
-0.17
-0.16
-0.11
-0.055
-0.03
-0.045
-0.08
-0.07
-0.045
-0.03
-0.01
-0.015
-0.02
-0.025
-0.015
-0.005
-0.04
-0.065
-0.085
-0.095
-0.12
-0.12
-0.145
-0.18
-0.21
-0.22
-0.225
-0.215
-0.23
-0.25
-0.285
-0.295
-0.285
-0.27
-0.25
-0.27
-0.295
-0.285
-0.275
-0.275
-0.285
-0.295
-0.32
-0.315
-0.295
-0.265
-0.25
-0.27
-0.285
-0.31
-0.315
-0.29
-0.25
-0.16
-0.035
0.135
0.37
0.62
0.905
1.185
1.425
1.58
1.585
1.38
0.99
0.56
0.145
-0.15
-0.235
-0.24
-0.27
-0.325
-0.365
-0.355
-0.315
-0.29
-0.315
-0.32
-0.35
-0.34
-0.345
-0.355
-0.34
-0.355
-0.355
-0.375
-0.37
-0.36
-0.355
-0.355
-0.355
-0.375
-0.38
-0.355
-0.355
-0.365
-0.35
-0.345
-0.335
-0.31
-0.305
-0.315
-0.325
-0.315
-0.3
-0.3
-0.29
-0.3
-0.285
-0.285
-0.275
-0.25
-0.235
-0.23
-0.235
-0.235
-0.23
-0.2
-0.205
-0.205
-0.205
-0.185
-0.145
-0.12
-0.105
-0.115
-0.13
-0.14
-0.105
-0.075
-0.045
-0.035
-0.025
-0.02
-0.015
0.0
0.01
0.02
0.0
-0.005
0.015
0.03
0.035
0.05
0.04
0.03
0.035
0.035
0.02
-0.005
-0.025
-0.05
-0.06
-0.07
-0.095
-0.13
-0.17
-0.195
-0.2
-0.215
-0.25
-0.28
-0.295
-0.315
-0.3
-0.295
-0.295
-0.305
-0.33
-0.34
-0.32
-0.32
-0.33
-0.35
-0.36
-0.365
-0.36
-0.34
-0.35
-0.34
-0.345
-0.35
-0.35
-0.325
-0.31
-0.33
-0.345
-0.35
-0.325
-0.295
-0.28
-0.29
-0.3
-0.31
-0.305
-0.28
-0.27
-0.275
-0.31
-0.32
-0.33
-0.32
-0.31
-0.315
-0.315
-0.315
-0.28
-0.26
-0.245
-0.22
-0.205
-0.2
-0.195
-0.19
-0.19
-0.185
-0.185
-0.18
-0.165
-0.145
-0.13
-0.125
-0.145
-0.165
-0.18
-0.175
-0.185
-0.205
-0.25
-0.29
-0.33
-0.32
-0.32
-0.335
-0.36
-0.37
-0.37
-0.365
-0.37
-0.38
-0.405
-0.405
-0.405
-0.385
-0.395
-0.38
-0.395
-0.405
-0.405
-0.385
-0.375
-0.37
-0.37
-0.37
-0.35
-0.335
-0.345
-0.355
-0.345
-0.31
-0.19
0.0
0.245
0.51
0.81
1.115
1.415
1.69
1.89
1.97
1.89
1.605
1.15
0.665
0.23
-0.03
-0.135
-0.18
-0.25
-0.285
-0.3
-0.29
-0.305
-0.32
-0.34
-0.335
-0.345
-0.355
-0.365
-0.38
-0.38
-0.375
-0.37
-0.385
-0.39
-0.405
-0.385
-0.365
-0.385
-0.38
-0.39
-0.385
-0.355
-0.34
-0.335
-0.345
-0.37
-0.39
-0.37
-0.35
-0.33
-0.345
-0.365
-0.37
-0.355
-0.37
-0.345
-0.355
-0.36
-0.365
-0.34
-0.33
-0.31
-0.315
-0.33
-0.34
-0.33
-0.31
-0.305
-0.325
-0.34
-0.33
-0.305
-0.29
-0.265
-0.25
-0.27
-0.27
-0.25
-0.24
-0.225
-0.225
-0.225
-0.25
-0.225
-0.195
-0.19
-0.17
-0.19
-0.195
-0.18
-0.16
-0.13
-0.13
-0.14
-0.15
-0.145
-0.135
-0.125
-0.145
-0.17
-0.175
-0.18
-0.17
-0.195
-0.205
-0.235
-0.255
-0.255
-0.24
-0.25
-0.265
-0.29
-0.305
-0.31
-0.295
-0.3
-0.34
-0.365
-0.36
-0.365
-0.34
-0.33
-0.355
-0.37
-0.365
-0.345
-0.34
-0.32
-0.335
-0.345
-0.35
-0.34
-0.32
-0.325
-0.335
-0.37
-0.37
-0.35
-0.32
-0.315
-0.32
-0.315
-0.32
-0.32
-0.295
-0.285
-0.29
-0.31
-0.31
-0.295
-0.285
-0.29
-0.28
-0.305
-0.31
-0.3
-0.28
-0.245
-0.23
-0.23
-0.22
-0.19
-0.13
-0.08
-0.04
0.005
0.055
0.14
0.245
0.365
0.425
0.48
0.57
0.69
0.8
0.915
1.005
1.075
1.155
1.24
1.33
1.39
1.47
1.48
1.455
1.43
1.37
1.285
1.195
1.1
1.03
0.96
0.91
0.855
0.78
0.72
0.675
0.665
0.65
0.615
0.595
0.58
0.55
0.515
0.45
0.385
0.29
0.13
-0.045
-0.22
-0.37
-0.47
-0.545
-0.59
-0.625
-0.62
-0.645
-0.665
-0.7
-0.715
-0.745
-0.745
-0.73
-0.735
-0.755
-0.78
-0.79
-0.785
-0.775
-0.78
-0.79
-0.825
-0.84
-0.845
-0.83
-0.84
-0.865
-0.885
-0.9
-0.905
-0.885
-0.88
-0.895
-0.92
-0.935
-0.935
-0.92
-0.925
-0.955
-0.98
-0.99
-0.985
-0.985
-0.985
-0.99
-1.005
-1.03
-1.02
-1.0
-0.99
-0.99
-1.005
-1.0
-1.01
-0.985
-0.97
-0.97
-0.96
-0.945
-0.915
-0.88
-0.855
-0.855
-0.84
-0.815
-0.78
-0.725
-0.695
-0.68
-0.67
-0.65
-0.62
-0.59
-0.555
-0.55
-0.53
-0.525
-0.505
-0.47
-0.445
-0.45
-0.465
-0.46
-0.45
-0.425
-0.42
-0.435
-0.435
-0.445
-0.44
-0.43
-0.42
-0.42
-0.43
-0.42
-0.405
-0.4
-0.4
-0.41
-0.415
-0.42
-0.42
-0.41
-0.4
-0.42
-0.435
-0.435
-0.43
-0.415
-0.39
-0.395
-0.42
-0.42
-0.42
-0.41
-0.39
-0.41
-0.4
-0.4
-0.4
-0.36
-0.36
-0.36
-0.37
-0.375
-0.375
-0.375
-0.37
-0.385
-0.395
-0.4
-0.37
-0.355
-0.35
-0.365
-0.365
-0.395
-0.405
-0.39
-0.375
-0.38
-0.38
-0.38
-0.365
-0.36
-0.36
-0.345
-0.36
-0.39
-0.375
-0.36
-0.35
-0.345
-0.37
-0.41
-0.405
-0.4
-0.38
-0.37
-0.37
-0.385
-0.395
-0.37
-0.38
-0.37
-0.395
-0.39
-0.395
-0.38
-0.375
-0.375
-0.39
-0.42
-0.415
-0.395
-0.365
-0.35
-0.355
-0.37
-0.355
-0.345
-0.325
-0.31
-0.3
-0.305
-0.3
-0.295
-0.285
-0.26
-0.255
-0.25
-0.245
-0.23
-0.19
-0.195
-0.21
-0.225
-0.22
-0.235
-0.255
-0.295
-0.34
-0.365
-0.37
-0.35
-0.345
-0.37
-0.385
-0.4
-0.395
-0.365
-0.355
-0.365
-0.385
-0.42
-0.405
-0.4
-0.395
-0.385
-0.39
-0.405
-0.395
-0.385
-0.395
-0.395
-0.4
-0.405
-0.405
-0.41
-0.4
-0.365
-0.315
-0.2
-0.045
0.165
0.395
0.625
0.845
1.07
1.26
1.325
1.17
0.755
0.235
-0.16
-0.365
-0.4
-0.37
-0.37
-0.425
-0.445
-0.42
-0.39
-0.365
-0.37
-0.4
-0.425
-0.43
-0.415
-0.425
-0.43
-0.435
-0.44
-0.445
-0.43
-0.435
-0.44
-0.46
-0.455
-0.435
-0.42
-0.395
-0.4
-0.42
-0.425
-0.415
-0.385
-0.395
-0.38
-0.405
-0.43
-0.41
-0.38
-0.365
-0.365
-0.375
-0.37
-0.355
-0.34
-0.32
-0.32
-0.32
-0.33
-0.315
-0.285
-0.275
-0.275
-0.28
-0.28
-0.255
-0.235
-0.215
-0.19
-0.2
-0.205
-0.2
-0.18
-0.145
-0.155
-0.14
-0.14
-0.14
-0.12
-0.09
-0.09
-0.115
-0.105
-0.06
-0.045
-0.025
-0.02
-0.025
-0.03
-0.01
0.015
0.03
0.01
-0.005
-0.005
-0.02
-0.01
-0.015
-0.05
-0.07
-0.095
-0.105
-0.1
-0.11
-0.135
-0.175
-0.21
-0.23
-0.23
-0.24
-0.275
-0.3
-0.325
-0.35
-0.355
-0.365
-0.355
-0.36
-0.38
-0.37
-0.35
-0.35
-0.37
-0.38
-0.385
-0.385
-0.38
-0.375
-0.36
-0.365
-0.375
-0.365
-0.36
-0.365
-0.345
-0.37
-0.39
-0.375
-0.37
-0.36
-0.385
-0.405
-0.42
-0.425
-0.4
-0.365
-0.38
-0.39
-0.41
-0.415
-0.405
-0.405
-0.41
-0.425
-0.43
-0.41
-0.38
-0.35
-0.33
-0.345
-0.355
-0.355
-0.33
-0.275
-0.26
-0.265
-0.265
-0.27
-0.27
-0.255
-0.25
-0.285
-0.3
-0.305
-0.325
-0.34
-0.375
-0.41
-0.425
-0.435
-0.425
-0.425
-0.425
-0.46
-0.48
-0.485
-0.475
-0.47
-0.49
-0.505
-0.51
-0.485
-0.465
-0.46
-0.46
-0.475
-0.47
-0.47
-0.43
-0.395
-0.365
-0.36
-0.35
-0.3
-0.19
-0.03
0.18
0.43
0.705
0.99
1.3
1.55
1.73
1.75
1.56
1.18
0.75
0.33
0.015
-0.18
-0.27
-0.335
-0.38
-0.41
-0.44
-0.45
-0.48
-0.485
-0.52
-0.5
-0.51
-0.54
-0.55
-0.55
-0.555
-0.55
-0.565
-0.59
-0.605
-0.595
-0.565
-0.545
-0.56
-0.58
-0.575
-0.57
-0.555
-0.555
-0.55
-0.565
-0.575
-0.565
-0.54
-0.53
-0.535
-0.55
-0.56
-0.555
-0.53
-0.515
-0.525
-0.545
-0.545
-0.545
-0.54
-0.54
-0.535
-0.54
-0.525
-0.51
-0.515
-0.515
-0.52
-0.52
-0.51
-0.505
-0.48
-0.485
-0.49
-0.51
-0.52
-0.515
-0.5
-0.485
-0.47
-0.475
-0.475
-0.48
-0.475
-0.46
-0.465
-0.485
-0.475
-0.455
-0.43
-0.41
-0.43
-0.435
-0.445
-0.43
-0.415
-0.4
-0.39
-0.41
-0.415
-0.43
-0.41
-0.405
-0.415
-0.445
-0.46
-0.44
-0.445
-0.445
-0.46
-0.475
-0.48
-0.48
-0.48
-0.465
-0.475
-0.48
-0.49
-0.49
-0.475
-0.46
-0.46
-0.48
-0.5
-0.485
-0.48
-0.475
-0.475
-0.475
-0.465
-0.455
-0.445
-0.45
-0.455
-0.465
-0.465
-0.445
-0.43
-0.435
-0.45
-0.46
-0.48
-0.455
-0.46
-0.455
-0.455
-0.45
-0.46
-0.44
-0.415
-0.395
-0.41
-0.41
-0.41
-0.38
-0.33
-0.265
-0.235
-0.2
-0.14
-0.055
0.04
0.135
0.225
0.3
0.385
0.5
0.655
0.78
0.875
0.955
1.055
1.14
1.225
1.295
1.365
1.395
1.385
1.335
1.245
1.155
1.06
0.98
0.925
0.87
0.815
0.735
0.68
0.625
0.585
0.55
0.535
0.52
0.495
0.435
0.34
0.255
0.175
0.04
-0.155
-0.355
-0.525
-0.62
-0.68
-0.715
-0.75
-0.775
-0.81
-0.815
-0.84
-0.85
-0.85
-0.85
-0.88
-0.88
-0.89
-0.895
-0.9
-0.93
-0.94
-0.94
-0.94
-0.94
-0.94
-0.955
-0.975
-0.98
-0.985
-0.985
-0.985
-1.01
-1.04
-1.025
-1.04
-1.015
-1.035
-1.055
-1.075
-1.08
-1.08
-1.075
-1.07
-1.085
-1.1
-1.105
-1.075
-1.085
-1.07
-1.06
-1.075
-1.07
-1.06
-1.035
-1.015
-1.01
-1.005
-0.985
-0.935
-0.91
-0.87
-0.865
-0.86
-0.835
-0.795
-0.765
-0.74
-0.73
-0.705
-0.695
-0.665
-0.635
-0.635
-0.655
-0.66
-0.64
-0.605
-0.59
-0.59
-0.595
-0.605
-0.595
-0.575
-0.56
-0.58
-0.585
-0.605
-0.61
-0.605
-0.6
-0.59
-0.61
-0.63
-0.605
-0.585
-0.56
-0.555
-0.57
-0.59
-0.58
-0.57
-0.565
-0.585
-0.595
-0.595
-0.58
-0.57
-0.565
-0.55
-0.555
-0.555
-0.56
-0.55
-0.545
-0.545
-0.565
-0.57
-0.575
-0.57
-0.555
-0.56
-0.585
-0.58
-0.56
-0.56
-0.525
-0.515
-0.545
-0.555
-0.56
-0.53
-0.52
-0.52
-0.555
-0.565
-0.565
-0.54
-0.535
-0.53
-0.555
-0.555
-0.555
-0.535
-0.53
-0.535
-0.54
-0.55
-0.535
-0.53
-0.535
-0.55
-0.57
-0.57
-0.58
-0.55
-0.525
-0.525
-0.54
-0.55
-0.54
-0.505
-0.48
-0.465
-0.48
-0.505
-0.49
-0.46
-0.415
-0.39
-0.385
-0.385
-0.385
-0.365
-0.36
-0.36
-0.385
-0.4
-0.425
-0.435
-0.475
-0.505
-0.535
-0.535
-0.515
-0.505
-0.535
-0.545
-0.555
-0.565
-0.57
-0.55
-0.55
-0.55
-0.56
-0.595
-0.595
-0.575
-0.575
-0.56
-0.57
-0.57
-0.56
-0.535
-0.53
-0.555
-0.585
-0.615
-0.61
-0.575
-0.51
-0.4
-0.245
-0.02
0.27
0.575
0.84
1.045
1.155
1.08
0.745
0.265
-0.22
-0.535
-0.645
-0.64
-0.605
-0.585
-0.56
-0.525
-0.52
-0.525
-0.545
-0.545
-0.545
-0.53
-0.535
-0.545
-0.545
-0.55
-0.53
-0.535
-0.55
-0.55
-0.555
-0.535
-0.53
-0.515
-0.51
-0.51
-0.5
-0.485
-0.475
-0.48
-0.465
-0.465
-0.46
-0.455
-0.455
-0.435
-0.465
-0.47
-0.475
-0.435
-0.41
-0.41
-0.415
-0.405
-0.38
-0.36
-0.34
-0.34
-0.36
-0.35
-0.34
-0.325
-0.29
-0.275
-0.26
-0.265
-0.26
-0.24
-0.21
-0.21
-0.235
-0.235
-0.22
-0.195
-0.165
-0.16
-0.18
-0.18
-0.155
-0.13
-0.115
-0.11
-0.125
-0.13
-0.125
-0.1
-0.105
-0.125
-0.13
-0.16
-0.14
-0.15
-0.165
-0.195
-0.225
-0.245
-0.27
-0.275
-0.275
-0.285
-0.315
-0.345
-0.365
-0.37
-0.38
-0.42
-0.43
-0.42
-0.395
-0.385
-0.38
-0.395
-0.405
-0.415
-0.41
-0.415
-0.41
-0.405
-0.415
-0.4
-0.4
-0.4
-0.425
-0.43
-0.435
-0.44
-0.445
-0.45
-0.45
-0.485
-0.495
-0.505
-0.485
-0.43
-0.385
-0.37
-0.33
-0.28
-0.255
-0.27
-0.295
-0.335
-0.35
-0.335
-0.265
-0.195
-0.125
-0.075
-0.085
-0.11
-0.14
-0.17
-0.195
-0.2
-0.24
-0.28
-0.325
-0.36
-0.385
-0.4
-0.4
-0.385
-0.355
-0.325
-0.3
-0.27
-0.3
-0.355
-0.425
-0.495
-0.52
-0.49
-0.45
-0.43
-0.44
-0.415
-0.43
-0.435
-0.48
-0.49
-0.475
-0.475
-0.485
-0.5
-0.515
-0.5
-0.405
-0.2
0.025
0.135
0.28
0.6
0.935
1.085
1.075
0.86
0.475
0.065
-0.28
-0.475
-0.53
-0.53
-0.54
-0.55
-0.53
-0.44
-0.37
-0.375
-0.385
