Lead II
-1.0
-1.0
-0.98
-0.97
-0.975
-0.98
-0.98
-1.0
-1.02
-1.02
-1.01
-1.015
-1.0
-0.995
-0.98
-0.98
-0.975
-0.965
-0.975
-0.98
-1.01
-0.995
-1.01
-1.005
-0.985
-0.98
-0.965
-0.955
-0.945
-0.965
-0.965
-0.985
-0.99
-0.995
-1.015
-1.02
-1.025
-1.025
-1.02
-1.005
-1.02
-1.02
-1.025
-1.035
-1.04
-1.055
-1.07
-1.06
-1.065
-1.07
-1.065
-1.06
-1.06
-1.065
-1.11
-1.11
-1.095
-1.095
-1.105
-1.105
-1.1
-1.075
-1.08
-1.08
-1.085
-1.095
-1.115
-1.135
-1.125
-1.13
-1.13
-1.14
-1.125
-1.115
-1.115
-1.075
-1.08
-1.065
-1.055
-1.045
-1.04
-1.055
-1.06
-1.06
-1.065
-1.035
-1.02
-1.01
-1.015
-0.995
-0.99
-0.965
-0.955
-0.96
-0.96
-0.975
-0.97
-0.995
-1.015
-0.985
-1.005
-1.015
-1.035
-1.045
-1.075
-1.085
-1.095
-1.125
-1.145
-1.17
-1.17
-1.17
-1.19
-1.205
-1.21
-1.215
-1.235
-1.23
-1.24
-1.225
-1.22
-1.215
-1.21
-1.2
-1.215
-1.205
-1.2
-1.205
-1.2
-1.185
-1.115
-1.02
-0.805
-0.525
-0.15
0.285
0.755
1.255
1.715
2.08
2.285
2.355
2.285
2.045
1.605
0.965
0.325
-0.315
-0.955
-1.595
-1.72
-1.5
-1.24
-1.03
-0.93
-0.935
-1.01
-1.1
-1.175
-1.22
-1.235
-1.245
-1.225
-1.215
-1.24
-1.255
-1.24
-1.24
-1.245
-1.22
-1.2
-1.195
-1.185
-1.17
-1.185
-1.195
-1.195
-1.195
-1.205
-1.19
-1.17
-1.14
-1.125
-1.095
-1.09
-1.105
-1.09
-1.11
-1.1
-1.095
-1.08
-1.07
-1.06
-1.055
-1.01
-0.97
-0.95
-0.95
-0.925
-0.92
-0.91
-0.885
-0.87
-0.855
-0.84
-0.805
-0.78
-0.74
-0.715
-0.685
-0.66
-0.635
-0.62
-0.61
-0.595
-0.57
-0.54
-0.515
-0.49
-0.465
-0.46
-0.46
-0.465
-0.475
-0.5
-0.505
-0.535
-0.555
-0.565
-0.575
-0.595
-0.62
-0.64
-0.685
-0.735
-0.805
-0.855
-0.91
-0.945
-0.98
-0.995
-1.02
-1.07
-1.09
-1.14
-1.16
-1.185
-1.21
-1.225
-1.245
-1.235
-1.26
-1.275
-1.265
-1.27
-1.265
-1.285
-1.3
-1.31
-1.325
-1.345
-1.35
-1.335
-1.325
-1.305
-1.295
-1.295
-1.285
-1.29
-1.295
-1.295
-1.3
-1.31
-1.31
-1.31
-1.305
-1.295
-1.29
-1.265
-1.255
-1.245
-1.25
-1.255
-1.265
-1.285
-1.29
-1.3
-1.31
-1.3
-1.29
-1.28
-1.265
-1.265
-1.255
-1.27
-1.27
-1.3
-1.325
-1.345
-1.36
-1.34
-1.335
-1.33
-1.315
-1.31
-1.33
-1.31
-1.33
-1.345
-1.35
-1.355
-1.36
-1.35
-1.35
-1.35
-1.34
-1.345
-1.355
-1.355
-1.365
-1.365
-1.365
-1.365
-1.37
-1.365
-1.365
-1.375
-1.38
-1.385
-1.365
-1.37
-1.37
-1.385
-1.375
-1.375
-1.375
-1.38
-1.36
-1.36
-1.345
-1.335
-1.325
-1.31
-1.29
-1.29
-1.285
-1.29
-1.3
-1.285
-1.29
-1.275
-1.265
-1.265
-1.27
-1.28
-1.27
-1.27
-1.245
-1.24
-1.22
-1.215
-1.205
-1.195
-1.2
-1.22
-1.23
-1.25
-1.265
-1.285
-1.295
-1.295
-1.295
-1.275
-1.315
-1.31
-1.315
-1.34
-1.36
-1.39
-1.45
-1.46
-1.47
-1.47
-1.455
-1.455
-1.435
-1.44
-1.41
-1.41
-1.4
-1.405
-1.405
-1.425
-1.43
-1.43
-1.43
-1.385
-1.33
-1.25
-1.105
-0.915
-0.66
-0.34
0.015
0.37
0.745
1.14
1.495
1.795
1.98
2.03
1.86
1.435
0.795
0.155
-0.485
-1.125
-1.765
-1.965
-1.765
-1.475
-1.235
-1.105
-1.08
-1.145
-1.245
-1.32
-1.38
-1.405
-1.405
-1.395
-1.385
-1.375
-1.37
-1.365
-1.36
-1.36
-1.36
-1.365
-1.37
-1.37
-1.38
-1.385
-1.375
-1.355
-1.335
-1.32
-1.295
-1.285
-1.285
-1.285
-1.265
-1.29
-1.26
-1.255
-1.255
-1.235
-1.24
-1.23
-1.215
-1.205
-1.18
-1.165
-1.155
-1.145
-1.135
-1.12
-1.1
-1.07
-1.025
-1.015
-0.985
-0.97
-0.97
-0.96
-0.94
-0.92
-0.885
-0.84
-0.81
-0.775
-0.77
-0.74
-0.695
-0.665
-0.655
-0.635
-0.63
-0.62
-0.61
-0.635
-0.635
-0.64
-0.65
-0.64
-0.635
-0.665
-0.68
-0.7
-0.755
-0.795
-0.85
-0.91
-0.955
-1.015
-1.04
-1.08
-1.085
-1.12
-1.135
-1.165
-1.215
-1.23
-1.245
-1.28
-1.3
-1.315
-1.31
-1.31
-1.305
-1.31
-1.33
-1.34
-1.355
-1.365
-1.365
-1.365
-1.37
-1.37
-1.35
-1.335
-1.32
-1.325
-1.33
-1.33
-1.345
-1.34
-1.36
-1.355
-1.365
-1.355
-1.34
-1.32
-1.305
-1.3
-1.31
-1.315
-1.31
-1.3
-1.3
-1.295
-1.31
-1.305
-1.325
-1.305
-1.295
-1.29
-1.29
-1.315
-1.33
-1.34
-1.325
-1.335
-1.325
-1.32
-1.315
-1.32
-1.29
-1.31
-1.315
-1.325
-1.345
-1.355
-1.37
-1.37
-1.36
-1.34
-1.31
-1.31
-1.305
-1.31
-1.32
-1.33
-1.365
-1.36
-1.365
-1.36
-1.375
-1.35
-1.34
-1.325
-1.32
-1.32
-1.325
-1.315
-1.33
-1.34
-1.335
-1.34
-1.355
-1.36
-1.345
-1.35
-1.335
-1.33
-1.335
-1.31
-1.285
-1.285
-1.27
-1.245
-1.26
-1.255
-1.255
-1.25
-1.25
-1.24
-1.23
-1.21
-1.2
-1.18
-1.17
-1.165
-1.165
-1.155
-1.15
-1.17
-1.16
-1.17
-1.18
-1.2
-1.205
-1.215
-1.225
-1.23
-1.24
-1.25
-1.26
-1.27
-1.265
-1.285
-1.335
-1.37
-1.385
-1.395
-1.395
-1.395
-1.38
-1.355
-1.35
-1.34
-1.35
-1.35
-1.36
-1.36
-1.355
-1.375
-1.35
-1.36
-1.34
-1.29
-1.23
-1.12
-0.965
-0.795
-0.55
-0.27
0.025
0.36
0.725
1.1
1.445
1.7
1.815
1.695
1.3
0.66
0.02
-0.62
-1.26
-1.9
-1.925
-1.7
-1.445
-1.23
-1.095
-1.055
-1.085
-1.16
-1.245
-1.305
-1.355
-1.345
-1.355
-1.325
-1.32
-1.315
-1.32
-1.31
-1.31
-1.295
-1.305
-1.31
-1.3
-1.3
-1.295
-1.295
-1.32
-1.3
-1.29
-1.265
-1.235
-1.23
-1.225
-1.225
-1.23
-1.225
-1.21
-1.215
-1.195
-1.195
-1.195
-1.165
-1.15
-1.145
-1.14
-1.13
-1.145
-1.12
-1.11
-1.095
-1.105
-1.095
-1.05
-1.015
-1.0
-0.975
-0.95
-0.935
-0.925
-0.91
-0.885
-0.87
-0.86
-0.82
-0.795
-0.765
-0.735
-0.71
-0.68
-0.66
-0.65
-0.645
-0.63
-0.63
-0.61
-0.605
-0.595
-0.595
-0.565
-0.57
-0.575
-0.59
-0.635
-0.66
-0.72
-0.755
-0.785
-0.84
-0.865
-0.9
-0.925
-0.98
-1.035
-1.05
-1.09
-1.145
-1.18
-1.215
-1.225
-1.245
-1.235
-1.245
-1.255
-1.255
-1.275
-1.28
-1.29
-1.31
-1.335
-1.34
-1.34
-1.33
-1.315
-1.31
-1.315
-1.31
-1.325
-1.315
-1.335
-1.335
-1.335
-1.34
-1.35
-1.34
-1.32
-1.32
-1.295
-1.285
-1.28
-1.295
-1.305
-1.295
-1.315
-1.33
-1.33
-1.315
-1.305
-1.3
-1.275
-1.265
-1.255
-1.26
-1.285
-1.29
-1.305
-1.325
-1.345
-1.33
-1.315
-1.305
-1.3
-1.305
-1.3
-1.315
-1.32
-1.33
-1.33
-1.345
-1.35
-1.335
-1.325
-1.32
-1.32
-1.325
-1.33
-1.345
-1.36
-1.38
-1.385
-1.385
-1.42
-1.41
-1.375
-1.385
-1.365
-1.35
-1.36
-1.35
-1.345
-1.355
-1.365
-1.38
-1.37
-1.37
-1.37
-1.36
-1.345
-1.335
-1.325
-1.32
-1.32
-1.33
-1.31
-1.305
-1.305
-1.29
-1.265
-1.255
-1.235
-1.225
-1.23
-1.235
-1.245
-1.255
-1.25
-1.22
-1.205
-1.19
-1.185
-1.195
-1.205
-1.215
-1.225
-1.23
-1.245
-1.245
-1.27
-1.285
-1.315
-1.335
-1.365
-1.36
-1.38
-1.38
-1.405
-1.405
-1.415
-1.41
-1.405
-1.405
-1.415
-1.4
-1.38
-1.39
-1.355
-1.34
-1.335
-1.355
-1.355
-1.315
-1.295
-1.205
-1.075
-0.875
-0.625
-0.315
0.01
0.38
0.76
1.11
1.415
1.67
1.835
1.87
1.755
1.38
0.755
0.115
-0.525
-1.165
-1.785
-1.765
-1.57
-1.3
-1.1
-1.025
-1.04
-1.11
-1.195
-1.265
-1.28
-1.275
-1.26
-1.245
-1.245
-1.25
-1.27
-1.275
-1.275
-1.285
-1.285
-1.26
-1.225
-1.215
-1.2
-1.195
-1.2
-1.2
-1.21
-1.205
-1.2
-1.18
-1.175
-1.165
-1.15
-1.14
-1.145
-1.145
-1.145
-1.14
-1.105
-1.095
-1.085
-1.055
-1.03
-1.02
-0.985
-0.98
-0.965
-0.96
-0.96
-0.95
-0.915
-0.905
-0.885
-0.85
-0.82
-0.795
-0.765
-0.71
-0.71
-0.675
-0.67
-0.66
-0.63
-0.605
-0.565
-0.545
-0.505
-0.49
-0.465
-0.455
-0.44
-0.45
-0.44
-0.44
-0.435
-0.445
-0.46
-0.455
-0.47
-0.49
-0.51
-0.53
-0.55
-0.58
-0.635
-0.68
-0.725
-0.77
-0.805
-0.845
-0.85
-0.9
-0.915
-0.955
-0.96
-0.995
-1.01
-1.05
-1.075
-1.11
-1.13
-1.13
-1.125
-1.1
-1.1
-1.105
-1.11
-1.13
-1.12
-1.11
-1.12
-1.135
-1.16
-1.15
-1.16
-1.145
-1.105
-1.105
-1.11
-1.11
-1.125
-1.125
-1.135
-1.135
-1.14
-1.135
-1.105
-1.1
-1.085
-1.07
-1.08
-1.085
-1.11
-1.12
-1.135
-1.13
-1.125
-1.105
-1.095
-1.085
-1.075
-1.085
-1.095
-1.095
-1.105
-1.11
-1.12
-1.125
-1.125
-1.125
-1.11
-1.115
-1.1
-1.095
-1.09
-1.105
-1.12
-1.12
-1.14
-1.14
-1.15
-1.145
-1.13
-1.115
-1.13
-1.12
-1.125
-1.135
-1.14
-1.14
-1.16
-1.16
-1.14
-1.155
-1.15
-1.16
-1.145
-1.15
-1.155
-1.16
-1.175
-1.165
-1.185
-1.175
-1.16
-1.15
-1.145
-1.12
-1.105
-1.11
-1.1
-1.105
-1.09
-1.08
-1.075
-1.05
-1.025
-1.025
-1.0
-0.995
-1.005
-1.005
-1.01
-1.035
-1.025
-0.985
-0.96
-0.93
-0.935
-0.92
-0.925
-0.925
-0.95
-0.94
-0.955
-0.96
-0.98
-1.005
-1.035
-1.055
-1.075
-1.095
-1.115
-1.11
-1.115
-1.11
-1.13
-1.145
-1.17
-1.19
-1.19
-1.205
-1.21
-1.205
-1.185
-1.17
-1.165
-1.16
-1.15
-1.16
-1.185
-1.18
-1.18
-1.17
-1.15
-1.075
-0.975
-0.82
-0.625
-0.365
-0.025
0.375
0.825
1.28
1.71
2.045
2.23
2.235
1.96
1.365
0.725
0.085
-0.555
-1.195
-1.7
-1.495
-1.205
-0.955
-0.815
-0.81
-0.87
-0.97
-1.045
-1.095
-1.13
-1.13
-1.145
-1.14
-1.14
-1.14
-1.14
-1.125
-1.13
-1.125
-1.14
-1.11
-1.1
-1.1
-1.085
-1.1
-1.095
-1.09
-1.075
-1.075
-1.065
-1.035
-1.03
-1.025
-1.025
-1.025
-1.02
-1.025
-1.015
-1.01
-0.98
-0.975
-0.96
-0.965
-0.94
-0.905
-0.87
-0.86
-0.835
-0.845
-0.825
-0.805
-0.795
-0.765
-0.74
-0.705
-0.665
-0.63
-0.595
-0.58
-0.57
-0.595
-0.59
-0.575
-0.545
-0.52
-0.455
-0.425
-0.4
-0.37
-0.36
-0.355
-0.35
-0.36
-0.355
-0.345
-0.36
-0.36
-0.365
-0.375
-0.385
-0.395
-0.45
-0.48
-0.525
-0.585
-0.62
-0.665
-0.715
-0.77
-0.805
-0.815
-0.84
-0.88
-0.915
-0.945
-0.995
-0.995
-1.03
-1.025
-1.045
-1.055
-1.035
-1.04
-1.025
-1.02
-1.035
-1.045
-1.06
-1.07
-1.095
-1.095
-1.105
-1.105
-1.095
-1.09
-1.085
-1.08
-1.055
-1.05
-1.055
-1.06
-1.065
-1.075
-1.075
-1.075
-1.08
-1.05
-1.055
-1.05
-1.05
-1.065
-1.075
-1.08
-1.085
-1.095
-1.09
-1.07
-1.07
-1.065
-1.06
-1.04
-1.04
-1.065
-1.065
-1.07
-1.1
-1.11
-1.125
-1.115
-1.1
-1.095
-1.085
-1.075
-1.07
-1.095
-1.125
-1.125
-1.145
-1.15
-1.15
-1.14
-1.13
-1.125
-1.12
-1.11
-1.11
-1.125
-1.125
-1.125
-1.145
-1.155
-1.15
-1.14
-1.13
-1.115
-1.105
-1.115
-1.125
-1.125
-1.135
-1.145
-1.16
-1.165
-1.165
-1.15
-1.15
-1.135
-1.115
-1.115
-1.11
-1.095
-1.09
-1.065
-1.055
-1.04
-1.02
-1.01
-0.995
-0.98
-0.98
-0.98
-0.98
-0.99
-1.0
-1.01
-1.0
-0.97
-0.93
-0.915
-0.92
-0.91
-0.92
-0.935
-0.945
-0.95
-0.97
-0.97
-0.985
-0.995
-1.015
-1.025
-1.065
-1.09
-1.1
-1.11
-1.13
-1.14
-1.17
-1.175
-1.195
-1.2
-1.2
-1.195
-1.195
-1.185
-1.18
-1.16
-1.155
-1.155
-1.155
-1.165
-1.17
-1.175
-1.17
-1.135
-1.06
-0.93
-0.765
-0.49
-0.195
0.155
0.52
0.91
1.305
1.7
2.045
2.28
2.415
2.415
2.27
1.885
1.245
0.605
-0.035
-0.675
-1.315
-1.595
-1.35
-1.085
-0.9
-0.845
-0.89
-0.995
-1.1
-1.185
-1.23
-1.235
-1.245
-1.215
-1.205
-1.19
-1.185
-1.185
-1.18
-1.18
-1.175
-1.17
-1.17
-1.165
-1.175
-1.155
-1.165
-1.145
-1.125
-1.115
-1.1
-1.07
-1.07
-1.065
-1.075
-1.09
-1.08
-1.085
-1.085
-1.07
-1.04
-1.015
-1.005
-0.965
-0.955
-0.955
-0.93
-0.935
-0.92
-0.91
-0.89
-0.865
-0.83
-0.8
-0.79
-0.76
-0.75
-0.71
-0.68
-0.655
-0.635
-0.605
-0.6
-0.59
-0.54
-0.495
-0.485
-0.46
-0.44
-0.43
-0.415
-0.41
-0.405
-0.41
-0.39
-0.395
-0.385
-0.385
-0.385
-0.39
-0.415
-0.45
-0.49
-0.53
-0.585
-0.66
-0.7
-0.73
-0.75
-0.78
-0.805
-0.83
-0.865
-0.91
-0.955
-0.99
-1.025
-1.06
-1.08
-1.105
-1.11
-1.11
-1.115
-1.08
-1.1
-1.1
-1.115
-1.14
-1.15
-1.16
-1.16
-1.15
-1.17
-1.15
-1.13
-1.11
-1.105
-1.095
-1.085
-1.1
-1.105
-1.11
-1.11
-1.11
-1.1
-1.11
-1.105
-1.08
-1.07
-1.075
-1.09
-1.1
-1.125
-1.12
-1.105
-1.1
-1.08
-1.06
-1.055
-1.055
-1.045
-1.055
-1.065
-1.07
-1.115
-1.1
-1.1
-1.11
-1.115
-1.11
-1.09
-1.09
-1.08
-1.095
-1.105
-1.105
-1.115
-1.125
-1.12
-1.13
-1.115
-1.1
-1.1
-1.085
-1.105
-1.105
-1.11
-1.13
-1.135
-1.15
-1.145
-1.145
-1.135
-1.115
-1.1
-1.095
-1.095
-1.085
-1.09
-1.115
-1.125
-1.14
-1.145
-1.155
-1.125
-1.115
-1.1
-1.085
-1.105
-1.105
-1.12
-1.125
-1.125
-1.11
-1.085
-1.08
-1.045
-1.015
-0.995
-0.97
-0.955
-0.945
-0.945
-0.945
-0.97
-0.98
-0.995
-0.99
-0.95
-0.915
-0.875
-0.855
-0.845
-0.855
-0.885
-0.895
-0.91
-0.93
-0.94
-0.965
-0.975
-0.985
-0.995
-0.99
-1.0
-1.025
-1.045
-1.08
-1.105
-1.125
-1.16
-1.185
-1.19
-1.175
-1.145
-1.14
-1.14
-1.13
-1.145
-1.15
-1.145
-1.135
-1.135
-1.135
-1.135
-1.16
-1.18
-1.16
-1.13
-1.055
-0.98
-0.835
-0.645
-0.385
-0.075
0.265
0.615
1.0
1.405
1.8
2.14
2.385
2.49
2.49
2.34
1.955
1.315
0.675
0.035
-0.605
-1.245
-1.57
-1.36
-1.07
-0.845
-0.735
-0.755
-0.86
-0.97
-1.075
-1.115
-1.135
-1.125
-1.08
-1.09
-1.095
-1.1
-1.12
-1.135
-1.15
-1.135
-1.13
-1.125
-1.1
-1.09
-1.055
-1.055
-1.06
-1.065
-1.055
-1.035
-1.04
-1.03
-1.035
-1.005
-0.995
-0.985
-0.965
-0.985
-0.98
-0.98
-0.96
-0.935
-0.93
-0.915
-0.905
-0.905
-0.88
-0.86
-0.825
-0.82
-0.815
-0.8
-0.79
-0.785
-0.78
-0.765
-0.74
-0.71
-0.665
-0.63
-0.61
-0.56
-0.54
-0.505
-0.485
-0.475
-0.47
-0.445
-0.425
-0.4
-0.37
-0.345
-0.325
-0.31
-0.305
-0.3
-0.315
-0.325
-0.32
-0.345
-0.35
-0.34
-0.355
-0.375
-0.4
-0.415
-0.44
-0.495
-0.555
-0.6
-0.66
-0.71
-0.74
-0.74
-0.765
-0.8
-0.825
-0.855
-0.89
-0.92
-0.955
-1.0
-1.005
-1.015
-1.01
-1.01
-1.015
-1.015
-1.01
-1.005
-1.0
-1.005
-1.015
-1.035
-1.045
-1.025
-1.02
-1.02
-1.02
-1.015
-1.0
-0.995
-0.985
-1.0
-0.975
-0.99
-0.995
-1.0
-1.005
-0.99
-1.0
-0.985
-0.965
-0.98
-0.97
-0.98
-1.0
-1.0
-1.01
-1.01
-1.02
-1.01
-1.0
-0.985
-0.985
-0.98
-0.99
-1.005
-1.01
-1.02
-1.025
-1.04
-1.035
-1.04
-1.035
-1.03
-1.025
-1.025
-1.025
-1.04
-1.05
-1.075
-1.09
-1.07
-1.065
-1.065
-1.05
-1.05
-1.035
-1.045
-1.05
-1.055
-1.06
-1.065
-1.065
-1.095
-1.1
-1.1
-1.075
-1.065
-1.035
-1.06
-1.045
-1.05
-1.065
-1.08
-1.095
-1.095
-1.08
-1.08
-1.065
-1.065
-1.055
-1.055
-1.045
-1.03
-1.015
-0.99
-0.965
-0.965
-0.945
-0.935
-0.935
-0.925
-0.925
-0.935
-0.935
-0.92
-0.9
-0.88
-0.85
-0.85
-0.845
-0.855
-0.845
-0.86
-0.86
-0.865
-0.895
-0.89
-0.93
-0.945
-0.98
-1.01
-1.045
-1.06
-1.075
-1.09
-1.105
-1.115
-1.135
-1.14
-1.14
-1.16
-1.175
-1.155
-1.16
-1.16
-1.15
-1.14
-1.125
-1.12
-1.135
-1.135
-1.145
-1.135
-1.105
-1.04
-0.955
-0.785
-0.565
-0.29
0.055
0.435
0.87
1.32
1.76
2.1
2.315
2.365
2.205
1.77
1.13
0.49
-0.15
-0.79
-1.43
-1.705
-1.435
-1.115
-0.86
-0.755
-0.78
-0.87
-0.99
-1.065
-1.125
-1.135
-1.135
-1.13
-1.125
-1.12
-1.14
-1.16
-1.16
-1.165
-1.155
-1.165
-1.135
-1.125
-1.135
-1.135
-1.14
-1.14
-1.135
-1.135
-1.12
-1.1
-1.075
-1.065
-1.045
-1.05
-1.05
-1.055
-1.07
-1.06
-1.055
-1.055
-1.04
-1.015
-0.99
-0.975
-0.945
-0.93
-0.91
-0.905
-0.905
-0.905
-0.895
-0.855
-0.845
-0.815
-0.775
-0.74
-0.72
-0.695
-0.665
-0.64
-0.62
-0.585
-0.575
-0.555
-0.535
-0.515
-0.49
-0.45
-0.42
-0.415
-0.395
-0.41
-0.415
-0.43
-0.455
-0.465
-0.45
-0.455
-0.45
-0.48
-0.47
-0.495
-0.545
-0.61
-0.65
-0.705
-0.765
-0.835
-0.89
-0.905
-0.93
-0.955
-0.96
-1.005
-1.025
-1.065
-1.085
-1.115
-1.125
-1.145
-1.16
-1.18
-1.19
-1.19
-1.185
-1.185
-1.19
-1.185
-1.19
-1.19
-1.21
-1.215
-1.21
-1.155
-1.155
-1.135
-1.11
-1.085
-1.095
-1.115
-1.12
-1.115
-1.125
-1.13
-1.125
-1.115
-1.115
-1.105
-1.095
-1.085
-1.105
-1.115
-1.125
-1.145
-1.14
-1.15
-1.15
-1.145
-1.135
-1.13
-1.11
-1.12
-1.135
-1.135
-1.15
-1.175
-1.185
-1.195
-1.195
-1.19
-1.185
-1.175
-1.17
-1.17
-1.175
-1.185
-1.19
-1.18
-1.2
-1.205
-1.22
-1.22
-1.215
-1.205
-1.19
-1.185
-1.185
-1.185
-1.205
-1.22
-1.225
-1.24
-1.225
-1.215
-1.22
-1.205
-1.195
-1.19
-1.195
-1.22
-1.225
-1.24
-1.245
-1.25
-1.255
-1.255
-1.25
-1.23
-1.22
-1.205
-1.205
-1.205
-1.205
-1.205
-1.18
-1.18
-1.165
-1.155
-1.145
-1.135
-1.12
-1.12
-1.15
-1.13
-1.13
-1.13
-1.115
-1.1
-1.085
-1.07
-1.05
-1.055
-1.05
-1.055
-1.07
-1.09
-1.12
-1.125
-1.13
-1.125
-1.135
-1.165
-1.18
-1.2
-1.225
-1.24
-1.265
-1.28
-1.315
-1.35
-1.36
-1.36
-1.365
-1.35
-1.34
-1.305
-1.28
-1.29
-1.265
-1.26
-1.275
-1.28
-1.285
-1.295
-1.285
-1.245
-1.18
-1.065
-0.88
-0.645
-0.35
-0.02
0.345
0.735
1.135
1.52
1.865
2.11
2.215
2.17
1.9
1.36
0.72
0.08
-0.56
-1.2
-1.84
-1.815
-1.555
-1.265
-1.05
-0.97
-0.98
-1.06
-1.17
-1.24
-1.29
-1.29
-1.275
-1.27
-1.26
-1.26
-1.25
-1.24
-1.24
-1.225
-1.23
-1.22
-1.23
-1.215
-1.195
-1.205
-1.2
-1.18
-1.175
-1.155
-1.155
-1.135
-1.12
-1.11
-1.09
-1.09
-1.08
-1.085
-1.075
-1.055
-1.04
-1.01
-0.985
-0.955
-0.945
-0.935
-0.945
-0.95
-0.95
-0.945
-0.92
-0.885
-0.86
-0.825
-0.79
-0.77
-0.75
-0.725
-0.71
-0.675
-0.655
-0.63
-0.62
-0.59
-0.55
-0.52
-0.485
-0.47
-0.445
-0.455
-0.46
-0.47
-0.46
-0.46
-0.46
-0.45
-0.44
-0.44
-0.44
-0.46
-0.495
-0.525
-0.59
-0.62
-0.65
-0.69
-0.725
-0.76
-0.775
-0.805
-0.835
-0.85
-0.88
-0.895
-0.93
-0.96
-1.01
-1.045
-1.065
-1.05
-1.06
-1.045
-1.06
-1.06
-1.05
-1.055
-1.065
-1.06
-1.065
-1.06
-1.07
-1.055
-1.03
-1.03
-1.025
-1.01
-1.015
-0.995
-1.02
-1.04
-1.06
-1.06
-1.05
-1.045
-1.02
-1.01
-1.005
-1.0
-1.015
-1.01
-1.02
-1.05
-1.035
-1.045
-1.05
-1.055
-1.025
-1.03
-1.02
-1.02
-1.035
-1.045
-1.055
-1.07
-1.07
-1.075
-1.085
-1.09
-1.075
-1.07
-1.055
-1.055
-1.05
-1.065
-1.07
-1.07
-1.075
-1.08
-1.09
-1.115
-1.125
-1.11
-1.105
-1.105
-1.1
-1.1
-1.105
-1.12
-1.125
-1.125
-1.135
-1.125
-1.125
-1.13
-1.11
-1.11
-1.095
-1.11
-1.105
-1.125
-1.125
-1.13
-1.14
-1.14
-1.12
-1.125
-1.105
-1.105
-1.1
-1.105
-1.09
-1.105
-1.11
-1.095
-1.09
-1.08
-1.06
-1.05
-1.025
-1.0
-1.0
-0.995
-1.01
-1.01
-1.015
-1.01
-1.03
-1.0
-0.98
-0.955
-0.92
-0.905
-0.885
-0.89
-0.885
-0.91
-0.92
-0.915
-0.935
-0.955
-0.97
-0.965
-0.96
-0.95
-0.955
-0.97
-1.005
-1.04
-1.085
-1.105
-1.155
-1.185
-1.185
-1.185
-1.16
-1.155
-1.13
-1.13
-1.125
-1.14
-1.13
-1.135
-1.145
-1.145
-1.145
-1.145
-1.15
-1.145
-1.165
-1.14
-1.13
-1.095
-1.015
-0.875
-0.66
-0.38
-0.045
0.335
0.725
1.13
1.53
1.88
2.21
2.37
2.425
2.315
2.01
1.435
0.795
0.155
-0.485
-1.125
-1.67
-1.525
-1.25
-0.98
-0.815
-0.785
-0.86
-0.94
-1.03
-1.085
-1.105
-1.11
-1.1
-1.095
-1.105
-1.11
-1.14
-1.155
-1.135
-1.145
-1.13
-1.11
-1.11
-1.065
-1.06
-1.06
-1.055
-1.07
-1.065
-1.055
-1.075
-1.05
-1.02
-1.02
-1.0
-0.99
-1.01
-0.99
-0.985
-1.005
-1.005
-0.99
-0.97
-0.97
-0.935
-0.915
-0.895
-0.88
-0.865
-0.855
-0.855
-0.855
-0.865
-0.865
-0.845
-0.8
-0.78
-0.74
-0.68
-0.675
-0.625
-0.62
-0.62
-0.585
-0.565
-0.56
-0.545
-0.515
-0.495
-0.48
-0.45
-0.415
-0.395
-0.38
-0.37
-0.355
-0.36
-0.35
-0.345
-0.355
-0.34
-0.325
-0.315
-0.335
-0.355
-0.38
-0.41
-0.45
-0.46
-0.495
-0.54
-0.58
-0.6
-0.635
-0.655
-0.7
-0.725
-0.735
-0.765
-0.8
-0.845
-0.88
-0.92
-0.945
-0.95
-0.95
-0.955
-0.975
-0.985
-0.995
-1.01
-1.015
-1.035
-1.04
-1.05
-1.06
-1.045
-1.03
-1.025
-1.005
-1.02
-1.02
-1.035
-1.04
-1.04
-1.035
-1.03
-1.005
-0.985
-0.98
-0.975
-0.965
-0.965
-0.95
-0.965
-0.98
-0.975
-0.975
-0.98
-0.985
-0.985
-0.975
-0.975
-0.985
-0.985
-0.995
-1.0
-0.995
-1.01
-1.02
-1.04
-1.035
-1.015
-1.01
-1.005
-0.995
-1.01
-1.03
-1.035
-1.05
-1.03
-1.045
-1.045
-1.04
-1.045
-1.03
-1.02
-1.01
-1.005
-1.015
-1.055
-1.07
-1.075
-1.075
-1.085
-1.08
-1.055
-1.045
-1.02
-1.005
-1.02
-1.035
-1.05
-1.07
-1.07
-1.075
-1.075
-1.06
-1.055
-1.055
-1.035
-1.055
-1.05
-1.05
-1.03
-1.025
-1.015
-1.01
-0.995
-0.975
-0.955
-0.945
-0.935
-0.925
-0.93
-0.945
-0.95
-0.95
-0.945
-0.93
-0.91
-0.87
-0.86
-0.82
-0.81
-0.805
-0.815
-0.84
-0.86
-0.9
-0.92
-0.925
-0.955
-0.965
-0.975
-0.975
-0.97
-0.995
-1.01
-1.03
-1.075
-1.105
-1.135
-1.14
-1.16
-1.16
-1.145
-1.145
-1.14
-1.115
-1.11
-1.115
-1.12
-1.125
-1.125
-1.135
-1.13
-1.135
-1.105
-1.06
-0.965
-0.81
-0.585
-0.31
0.045
0.43
0.855
1.32
1.8
2.2
2.48
2.58
2.455
2.035
1.395
0.755
0.115
-0.525
-1.165
-1.66
-1.385
-1.055
-0.81
-0.725
-0.74
-0.83
-0.98
-1.065
-1.115
-1.15
-1.15
-1.135
-1.12
-1.12
-1.095
-1.09
-1.07
-1.085
-1.085
-1.085
-1.095
-1.1
-1.1
-1.105
-1.085
-1.075
-1.06
-1.04
-1.02
-1.005
-1.005
-1.015
-1.025
-1.0
-1.01
-0.99
-0.995
-0.98
-0.96
-0.94
-0.92
-0.895
-0.9
-0.885
-0.89
-0.87
-0.875
-0.875
-0.855
-0.83
-0.825
-0.785
-0.74
-0.71
-0.7
-0.675
-0.67
-0.66
-0.65
-0.62
-0.595
-0.555
-0.51
-0.47
-0.44
-0.405
-0.395
-0.375
-0.375
-0.365
-0.36
-0.345
-0.33
-0.325
-0.32
-0.31
-0.32
-0.335
-0.35
-0.35
-0.38
-0.415
-0.455
-0.48
-0.52
-0.555
-0.585
-0.62
-0.63
-0.675
-0.705
-0.75
-0.795
-0.85
-0.885
-0.93
-0.955
-0.975
-0.995
-1.01
-1.015
-1.02
-1.035
-1.04
-1.055
-1.08
-1.09
-1.095
-1.09
-1.1
-1.085
-1.09
-1.075
-1.075
-1.06
-1.065
-1.06
-1.06
-1.095
-1.085
-1.08
-1.08
-1.07
-1.055
-1.05
-1.025
-1.025
-1.025
-1.025
-1.03
-1.035
-1.05
-1.045
-1.025
-1.015
-1.015
-1.0
-0.99
-0.99
-0.95
-0.93
-0.875
-0.84
-0.805
-0.74
-0.68
-0.625
-0.565
-0.485
-0.41
-0.33
-0.265
-0.2
-0.115
-0.01
0.14
0.305
0.48
0.66
0.84
1.04
1.25
1.455
1.64
1.825
2.0
2.16
2.315
2.46
2.58
2.675
2.755
2.795
2.84
2.84
2.84
2.805
2.755
2.685
2.505
2.145
1.505
0.865
0.225
-0.415
-1.035
-1.19
-1.225
-1.22
-1.21
-1.215
-1.26
-1.355
-1.435
-1.49
-1.53
-1.545
-1.55
-1.545
-1.55
-1.555
-1.56
-1.57
-1.585
-1.605
-1.635
-1.645
-1.66
-1.65
-1.65
-1.665
-1.685
-1.72
-1.745
-1.755
-1.78
-1.785
-1.79
-1.795
-1.795
-1.8
-1.815
-1.85
-1.88
-1.91
-1.93
-1.96
-1.97
-1.995
-2.0
-2.015
-2.03
-2.055
-2.055
-2.075
-2.1
-2.13
-2.145
-2.165
-2.18
-2.19
-2.215
-2.2
-2.185
-2.165
-2.15
-2.15
-2.125
-2.105
-2.09
-2.05
-2.02
-1.98
-1.935
-1.885
-1.825
-1.765
-1.71
-1.65
-1.595
-1.53
-1.485
-1.455
-1.415
-1.38
-1.345
-1.29
-1.275
-1.23
-1.215
-1.2
-1.19
-1.23
-1.225
-1.235
-1.255
-1.25
-1.25
-1.245
-1.235
-1.235
-1.23
-1.23
-1.23
-1.23
-1.24
-1.245
-1.275
-1.265
-1.285
-1.28
-1.27
-1.25
-1.24
-1.26
-1.27
-1.275
-1.275
-1.29
-1.285
-1.29
-1.285
-1.27
-1.285
-1.285
-1.255
-1.26
-1.255
-1.27
-1.27
-1.275
-1.3
-1.305
-1.31
-1.29
-1.275
-1.275
-1.275
-1.26
-1.275
-1.28
-1.27
-1.29
-1.28
-1.28
-1.28
-1.28
-1.28
-1.26
-1.255
-1.255
-1.245
-1.255
-1.255
-1.27
-1.28
-1.275
-1.275
-1.255
-1.25
-1.24
-1.22
-1.225
-1.24
-1.225
-1.225
-1.225
-1.225
-1.23
-1.225
-1.215
-1.22
-1.205
-1.185
-1.19
-1.185
-1.205
-1.195
-1.205
-1.21
-1.2
-1.205
-1.175
-1.185
-1.16
-1.14
-1.145
-1.15
-1.17
-1.18
-1.175
-1.195
-1.19
-1.19
-1.165
-1.16
-1.16
-1.14
-1.14
-1.135
-1.14
-1.145
-1.155
-1.165
-1.165
-1.165
-1.14
-1.135
-1.125
-1.11
-1.125
-1.12
-1.12
-1.1
-1.105
-1.125
-1.12
-1.13
-1.125
-1.12
-1.1
-1.1
-1.1
-1.1
-1.115
-1.115
-1.12
-1.13
-1.125
-1.12
-1.115
-1.1
-1.09
-1.08
-1.075
-1.085
-1.105
-1.11
-1.125
-1.125
-1.11
-1.115
-1.095
-1.09
-1.07
-1.07
-1.07
-1.05
-1.07
-1.075
-1.09
-1.095
-1.11
-1.09
-1.07
-1.06
-1.05
-1.045
-1.035
-1.045
-1.045
-1.035
-1.03
-1.035
-1.05
-1.055
-1.06
-1.065
-1.055
-1.05
-1.045
-1.04
-1.035
-1.025
-1.005
-1.0
-0.98
-0.965
-0.95
-0.935
-0.915
-0.905
-0.9
-0.915
-0.9
-0.9
-0.875
-0.85
-0.84
-0.825
-0.81
-0.81
-0.815
-0.805
-0.8
-0.815
-0.815
-0.835
-0.88
-0.885
-0.89
-0.915
-0.9
-0.91
-0.925
-0.94
-0.955
-0.995
-1.005
-1.01
-1.04
-1.055
-1.06
-1.05
-1.055
-1.035
-1.025
-1.03
-1.025
-1.025
-1.03
-1.02
-1.04
-1.035
-1.04
-1.025
-0.98
-0.9
-0.785
-0.62
-0.4
-0.14
0.135
0.46
0.81
1.18
1.59
1.98
2.29
2.465
2.46
2.22
1.66
1.02
0.38
-0.26
-0.9
-1.54
-1.485
-1.2
-0.915
-0.715
-0.64
-0.685
-0.78
-0.875
-0.965
-1.03
-1.04
-1.02
-1.03
-1.015
-1.0
-0.98
-0.975
-0.97
-0.975
-0.96
-0.97
-0.975
-0.97
-0.975
-0.98
-0.975
-0.955
-0.94
-0.935
-0.92
-0.925
-0.905
-0.91
-0.91
-0.9
-0.905
-0.9
-0.89
-0.87
-0.84
-0.805
-0.78
-0.76
-0.74
-0.74
-0.74
-0.725
-0.71
-0.69
-0.665
-0.645
-0.615
-0.575
-0.545
-0.515
-0.51
-0.5
-0.465
-0.44
-0.405
-0.385
-0.35
-0.32
-0.295
-0.26
-0.21
-0.185
-0.145
-0.13
-0.12
-0.1
-0.085
-0.06
-0.03
0.005
0.035
0.02
0.04
0.04
0.03
0.02
0.025
0.01
0.01
-0.01
-0.045
-0.08
-0.105
-0.145
-0.17
-0.215
-0.27
-0.325
-0.385
-0.44
-0.46
-0.51
-0.55
-0.585
-0.6
-0.625
-0.63
-0.655
-0.67
-0.695
-0.73
-0.75
-0.76
-0.775
-0.77
-0.755
-0.745
-0.745
-0.74
-0.755
-0.77
-0.77
-0.785
-0.79
-0.785
-0.77
-0.755
-0.745
-0.72
-0.735
-0.74
-0.755
-0.76
-0.795
-0.795
-0.81
-0.795
-0.8
-0.795
-0.78
-0.79
-0.79
-0.795
-0.785
-0.79
-0.82
-0.82
-0.85
-0.85
-0.86
-0.865
-0.865
-0.865
-0.86
-0.87
-0.86
-0.87
-0.88
-0.89
-0.91
-0.92
-0.95
-0.97
-0.955
-0.96
-0.945
-0.935
-0.935
-0.945
-0.965
-0.99
-1.025
-1.01
-1.02
-1.02
-1.01
-1.01
-1.005
-0.995
-1.005
-0.995
-1.02
-1.01
-1.02
-1.035
-1.04
-1.03
-1.035
-1.03
-1.03
-1.015
-1.015
-0.995
-0.985
-0.985
-0.98
-0.975
-0.97
-0.99
-1.01
-0.99
-0.99
-0.98
-0.97
-0.965
-0.955
-0.965
-0.935
-0.925
-0.93
-0.9
-0.905
-0.91
-0.92
-0.895
-0.905
-0.94
-0.965
-0.995
-1.015
-1.02
-1.045
-1.075
-1.075
-1.09
-1.105
-1.115
-1.145
-1.16
-1.2
-1.215
-1.21
-1.205
-1.195
-1.2
-1.185
-1.18
-1.18
-1.18
-1.185
-1.19
-1.19
-1.195
-1.195
-1.19
-1.16
-1.08
-0.96
-0.78
-0.555
-0.265
0.095
0.525
0.995
1.46
1.895
2.22
