Lead II
-0.59
-0.625
-0.635
-0.64
-0.645
-0.645
-0.62
-0.665
-0.685
-0.71
-0.745
-0.74
-0.725
-0.725
-0.74
-0.725
-0.73
-0.745
-0.74
-0.74
-0.73
-0.74
-0.78
-0.82
-0.845
-0.865
-0.855
-0.825
-0.795
-0.78
-0.79
-0.8
-0.835
-0.875
-0.925
-0.915
-0.9
-0.865
-0.83
-0.8
-0.815
-0.825
-0.83
-0.87
-0.9
-0.855
-0.815
-0.74
-0.645
-0.545
-0.41
-0.295
-0.205
-0.16
-0.125
-0.04
0.1
0.31
0.545
0.75
0.87
0.77
0.425
-0.125
-0.755
-1.335
-1.74
-1.955
-2.07
-2.08
-2.08
-2.075
-2.11
-2.14
-2.16
-2.155
-2.16
-2.155
-2.12
-2.08
-2.045
-2.01
-1.95
-1.87
-1.735
-1.56
-1.38
-1.195
-1.04
-0.905
-0.84
-0.85
-0.875
-0.855
-0.84
-0.83
-0.83
-0.825
-0.825
-0.82
-0.805
-0.795
-0.765
-0.795
-0.795
-0.81
-0.825
-0.845
-0.87
-0.875
-0.88
-0.86
-0.85
-0.875
-0.875
-0.88
-0.9
-0.91
-0.92
-0.925
-0.925
-0.95
-0.955
-0.945
-0.95
-0.945
-0.955
-1.0
-1.02
-1.055
-1.05
-1.035
-1.005
-1.0
-1.0
-0.975
-0.99
-0.995
-0.995
-1.02
-1.035
-1.045
-1.045
-1.04
-1.01
-0.985
-0.945
-0.895
-0.87
-0.825
-0.795
-0.81
-0.81
-0.775
-0.755
-0.73
-0.705
-0.745
-0.74
-0.74
-0.735
-0.705
-0.65
-0.63
-0.61
-0.63
-0.685
-0.725
-0.75
-0.765
-0.74
-0.72
-0.71
-0.71
-0.685
-0.67
-0.675
-0.66
-0.67
-0.7
-0.725
-0.76
-0.755
-0.745
-0.745
-0.755
-0.77
-0.77
-0.78
-0.765
-0.755
-0.76
-0.755
-0.75
-0.72
-0.7
-0.685
-0.71
-0.725
-0.775
-0.81
-0.84
-0.845
-0.855
-0.845
-0.8
-0.73
-0.7
-0.72
-0.75
-0.775
-0.78
-0.79
-0.795
-0.78
-0.785
-0.76
-0.725
-0.69
-0.685
-0.685
-0.715
-0.685
-0.665
-0.655
-0.655
-0.685
-0.725
-0.76
-0.775
-0.75
-0.715
-0.655
-0.625
-0.605
-0.575
-0.57
-0.54
-0.515
-0.5
-0.53
-0.555
-0.6
-0.595
-0.57
-0.535
-0.505
-0.515
-0.515
-0.555
-0.59
-0.635
-0.645
-0.625
-0.575
-0.52
-0.51
-0.555
-0.63
-0.67
-0.71
-0.73
-0.725
-0.72
-0.725
-0.74
-0.745
-0.78
-0.795
-0.8
-0.82
-0.84
-0.84
-0.835
-0.82
-0.8
-0.785
-0.805
-0.82
-0.815
-0.82
-0.78
-0.77
-0.775
-0.75
-0.75
-0.765
-0.815
-0.86
-0.92
-0.945
-0.935
-0.91
-0.85
-0.81
-0.79
-0.805
-0.83
-0.85
-0.845
-0.83
-0.775
-0.68
-0.545
-0.35
-0.175
-0.08
-0.05
-0.055
-0.05
0.02
0.195
0.44
0.715
0.905
0.94
0.745
0.305
-0.245
-0.855
-1.365
-1.74
-1.93
-2.01
-2.065
-2.11
-2.15
-2.18
-2.225
-2.245
-2.2
-2.175
-2.175
-2.175
-2.17
-2.16
-2.115
-2.06
-1.945
-1.785
-1.595
-1.38
-1.175
-1.02
-0.92
-0.89
-0.895
-0.9
-0.88
-0.83
-0.785
-0.755
-0.75
-0.775
-0.82
-0.845
-0.88
-0.885
-0.865
-0.815
-0.725
-0.71
-0.78
-0.825
-0.875
-0.885
-0.885
-0.865
-0.875
-0.895
-0.91
-0.93
-0.94
-0.95
-0.945
-0.925
-0.935
-0.955
-0.945
-0.955
-0.95
-0.945
-0.97
-1.04
-1.115
-1.155
-1.155
-1.11
-1.045
-1.015
-0.985
-1.0
-1.0
-1.015
-1.03
-1.015
-0.99
-1.01
-1.02
-1.015
-1.0
-0.965
-0.935
-0.9
-0.875
-0.865
-0.865
-0.86
-0.86
-0.845
-0.81
-0.74
-0.695
-0.665
-0.66
-0.71
-0.75
-0.755
-0.76
-0.72
-0.69
-0.665
-0.665
-0.655
-0.635
-0.6
-0.555
-0.535
-0.565
-0.595
-0.625
-0.65
-0.655
-0.665
-0.66
-0.675
-0.68
-0.68
-0.65
-0.655
-0.66
-0.715
-0.79
-0.83
-0.82
-0.795
-0.755
-0.715
-0.665
-0.655
-0.64
-0.655
-0.695
-0.705
-0.745
-0.745
-0.765
-0.76
-0.73
-0.7
-0.67
-0.66
-0.655
-0.635
-0.63
-0.64
-0.675
-0.71
-0.76
-0.82
-0.86
-0.88
-0.84
-0.805
-0.78
-0.745
-0.74
-0.745
-0.75
-0.745
-0.71
-0.705
-0.705
-0.7
-0.675
-0.655
-0.61
-0.615
-0.605
-0.595
-0.57
-0.525
-0.505
-0.505
-0.55
-0.545
-0.55
-0.54
-0.515
-0.5
-0.51
-0.55
-0.565
-0.61
-0.65
-0.685
-0.695
-0.665
-0.645
-0.605
-0.55
-0.52
-0.49
-0.5
-0.545
-0.62
-0.66
-0.675
-0.675
-0.63
-0.615
-0.645
-0.705
-0.77
-0.81
-0.82
-0.815
-0.785
-0.77
-0.775
-0.775
-0.805
-0.805
-0.835
-0.835
-0.83
-0.83
-0.81
-0.785
-0.78
-0.79
-0.8
-0.815
-0.795
-0.78
-0.785
-0.795
-0.81
-0.84
-0.845
-0.875
-0.88
-0.84
-0.73
-0.575
-0.4
-0.24
-0.125
-0.08
-0.075
-0.06
0.045
0.23
0.52
0.78
0.94
0.88
0.565
0.035
-0.595
-1.165
-1.605
-1.855
-1.98
-2.005
-2.02
-2.035
-2.085
-2.13
-2.14
-2.145
-2.14
-2.145
-2.14
-2.11
-2.08
-2.01
-1.95
-1.87
-1.755
-1.61
-1.435
-1.28
-1.135
-1.025
-0.95
-0.895
-0.855
-0.82
-0.78
-0.74
-0.72
-0.695
-0.675
-0.655
-0.655
-0.615
-0.6
-0.605
-0.585
-0.61
-0.635
-0.695
-0.77
-0.825
-0.86
-0.865
-0.815
-0.76
-0.71
-0.72
-0.76
-0.81
-0.85
-0.89
-0.905
-0.905
-0.91
-0.905
-0.9
-0.89
-0.865
-0.87
-0.875
-0.905
-0.935
-1.0
-1.015
-1.035
-1.075
-1.065
-1.065
-1.02
-0.98
-0.96
-0.915
-0.945
-0.98
-1.015
-1.05
-1.055
-1.035
-1.005
-0.975
-0.95
-0.905
-0.85
-0.8
-0.775
-0.76
-0.78
-0.805
-0.81
-0.795
-0.79
-0.745
-0.745
-0.75
-0.765
-0.75
-0.74
-0.715
-0.695
-0.69
-0.68
-0.685
-0.71
-0.73
-0.74
-0.735
-0.74
-0.755
-0.78
-0.805
-0.79
-0.785
-0.77
-0.76
-0.72
-0.68
-0.615
-0.595
-0.575
-0.585
-0.635
-0.71
-0.795
-0.91
-1.01
-1.075
-1.045
-0.98
-0.895
-0.825
-0.79
-0.755
-0.735
-0.725
-0.705
-0.675
-0.65
-0.62
-0.67
-0.78
-0.91
-1.03
-1.085
-1.065
-1.01
-0.93
-0.89
-0.835
-0.8
-0.775
-0.78
-0.78
-0.75
-0.74
-0.73
-0.705
-0.71
-0.71
-0.705
-0.71
-0.725
-0.73
-0.72
-0.695
-0.655
-0.63
-0.625
-0.61
-0.635
-0.665
-0.69
-0.725
-0.7
-0.65
-0.605
-0.55
-0.525
-0.505
-0.505
-0.49
-0.47
-0.49
-0.505
-0.53
-0.535
-0.545
-0.545
-0.54
-0.545
-0.565
-0.58
-0.59
-0.58
-0.575
-0.57
-0.58
-0.625
-0.675
-0.71
-0.73
-0.73
-0.69
-0.69
-0.665
-0.665
-0.7
-0.735
-0.77
-0.8
-0.82
-0.825
-0.83
-0.82
-0.8
-0.805
-0.79
-0.795
-0.81
-0.86
-0.89
-0.935
-1.0
-1.04
-1.085
-1.07
-1.0
-0.915
-0.84
-0.83
-0.875
-0.955
-1.05
-1.105
-1.11
-1.065
-1.025
-0.95
-0.87
-0.765
-0.61
-0.405
-0.235
-0.11
-0.03
-0.02
0.0
0.05
0.17
0.315
0.51
0.695
0.82
0.81
0.61
0.17
-0.41
-0.99
-1.45
-1.74
-1.85
-1.875
-1.88
-1.945
-2.0
-2.08
-2.11
-2.16
-2.155
-2.13
-2.07
-2.01
-1.94
-1.9
-1.85
-1.81
-1.795
-1.79
-1.725
-1.61
-1.45
-1.275
-1.14
-1.055
-1.02
-1.02
-1.03
-1.015
-0.99
-0.96
-0.92
-0.875
-0.84
-0.82
-0.785
-0.775
-0.765
-0.75
-0.745
-0.745
-0.78
-0.815
-0.855
-0.89
-0.92
-0.95
-0.95
-0.905
-0.855
-0.845
-0.84
-0.835
-0.85
-0.845
-0.86
-0.87
-0.895
-0.895
-0.9
-0.905
-0.905
-0.89
-0.885
-0.91
-0.93
-0.96
-0.955
-0.96
-0.975
-0.99
-0.96
-0.96
-0.93
-0.945
-0.95
-0.985
-1.015
-1.05
-1.055
-1.045
-1.05
-1.015
-0.99
-0.965
-0.955
-0.955
-0.935
-0.89
-0.84
-0.775
-0.74
-0.765
-0.79
-0.82
-0.85
-0.835
-0.83
-0.755
-0.74
-0.715
-0.715
-0.755
-0.77
-0.79
-0.78
-0.76
-0.73
-0.705
-0.685
-0.69
-0.715
-0.77
-0.825
-0.89
-0.895
-0.875
-0.845
-0.8
-0.78
-0.755
-0.735
-0.735
-0.755
-0.775
-0.76
-0.765
-0.785
-0.825
-0.85
-0.855
-0.845
-0.8
-0.73
-0.665
-0.64
-0.66
-0.695
-0.735
-0.77
-0.825
-0.835
-0.85
-0.815
-0.795
-0.805
-0.8
-0.815
-0.82
-0.825
-0.85
-0.825
-0.825
-0.83
-0.79
-0.795
-0.775
-0.78
-0.77
-0.775
-0.78
-0.755
-0.745
-0.705
-0.67
-0.635
-0.6
-0.59
-0.57
-0.59
-0.63
-0.675
-0.7
-0.73
-0.705
-0.69
-0.7
-0.715
-0.72
-0.715
-0.7
-0.7
-0.7
-0.73
-0.74
-0.76
-0.77
-0.76
-0.75
-0.725
-0.72
-0.715
-0.715
-0.735
-0.77
-0.765
-0.775
-0.805
-0.815
-0.86
-0.915
-0.995
-1.02
-1.02
-1.005
-0.985
-0.965
-0.95
-0.93
-0.925
-0.885
-0.85
-0.855
-0.87
-0.895
-0.945
-0.96
-0.97
-0.975
-0.94
-0.915
-0.905
-0.89
-0.93
-0.97
-1.025
-1.05
-1.035
-1.045
-0.995
-0.905
-0.74
-0.54
-0.365
-0.22
-0.145
-0.11
-0.06
0.005
0.16
0.385
0.625
0.83
0.86
0.665
0.21
-0.43
-1.07
-1.605
-1.945
-2.1
-2.12
-2.12
-2.115
-2.13
-2.205
-2.255
-2.315
-2.34
-2.36
-2.355
-2.33
-2.285
-2.21
-2.155
-2.1
-2.03
-1.885
-1.725
-1.55
-1.4
-1.275
-1.195
-1.145
-1.11
-1.065
-1.035
-0.99
-0.975
-0.965
-0.965
-0.95
-0.99
-1.0
-1.02
-1.035
-1.02
-1.01
-0.975
-0.94
-0.925
-0.93
-0.955
-0.995
-1.025
-1.055
-1.06
-1.095
-1.12
-1.115
-1.12
-1.115
-1.105
-1.1
-1.1
-1.12
-1.12
-1.12
-1.15
-1.195
-1.22
-1.22
-1.215
-1.2
-1.185
-1.155
-1.13
-1.135
-1.155
-1.2
-1.23
-1.235
-1.195
-1.155
-1.125
-1.115
-1.1
-1.095
-1.09
-1.085
-1.1
-1.065
-1.04
-1.055
-1.09
-1.09
-1.075
-1.04
-0.995
-0.93
-0.895
-0.9
-0.905
-0.94
-0.945
-0.96
-0.935
-0.88
-0.845
-0.8
-0.79
-0.785
-0.805
-0.805
-0.805
-0.75
-0.75
-0.74
-0.78
-0.8
-0.81
-0.81
-0.815
-0.81
-0.84
-0.86
-0.87
-0.88
-0.9
-0.92
-0.905
-0.88
-0.83
-0.8
-0.785
-0.755
-0.765
-0.76
-0.78
-0.81
-0.825
-0.83
-0.84
-0.825
-0.86
-0.875
-0.885
-0.865
-0.855
-0.825
-0.815
-0.805
-0.815
-0.825
-0.87
-0.88
-0.895
-0.905
-0.87
-0.82
-0.805
-0.77
-0.785
-0.82
-0.84
-0.86
-0.88
-0.89
-0.895
-0.9
-0.865
-0.835
-0.8
-0.79
-0.79
-0.8
-0.8
-0.79
-0.76
-0.71
-0.67
-0.66
-0.655
-0.625
-0.625
-0.64
-0.685
-0.71
-0.725
-0.71
-0.715
-0.695
-0.665
-0.66
-0.675
-0.7
-0.74
-0.78
-0.765
-0.77
-0.725
-0.72
-0.725
-0.705
-0.72
-0.75
-0.765
-0.785
-0.82
-0.835
-0.845
-0.88
-0.91
-0.935
-0.96
-0.975
-0.965
-0.94
-0.935
-0.925
-0.945
-0.95
-0.965
-0.945
-0.945
-0.945
-0.95
-0.94
-0.945
-0.945
-0.95
-0.945
-0.97
-0.965
-0.945
-0.935
-0.935
-0.96
-0.96
-0.985
-1.01
-0.995
-0.935
-0.83
-0.69
-0.53
-0.37
-0.25
-0.195
-0.17
-0.125
-0.015
0.13
0.365
0.62
0.855
0.96
0.89
0.585
0.065
-0.545
-1.13
-1.575
-1.835
-1.965
-2.025
-2.08
-2.135
-2.21
-2.26
-2.29
-2.28
-2.265
-2.225
-2.2
-2.19
-2.19
-2.175
-2.175
-2.15
-2.065
-1.94
-1.77
-1.595
-1.43
-1.3
-1.19
-1.09
-1.04
-1.025
-1.045
-1.06
-1.06
-1.06
-1.015
-0.965
-0.945
-0.935
-0.935
-0.97
-0.97
-0.975
-0.995
-1.025
-1.065
-1.065
-1.08
-1.105
-1.11
-1.12
-1.13
-1.125
-1.11
-1.11
-1.1
-1.105
-1.115
-1.14
-1.175
-1.165
-1.18
-1.18
-1.18
-1.155
-1.13
-1.115
-1.13
-1.155
-1.225
-1.3
-1.335
-1.345
-1.315
-1.285
-1.225
-1.22
-1.22
-1.215
-1.21
-1.22
-1.225
-1.235
-1.23
-1.215
-1.185
-1.15
-1.1
-1.06
-1.0
-0.95
-0.92
-0.92
-0.955
-0.99
-0.985
-0.945
-0.9
-0.83
-0.825
-0.865
-0.9
-0.935
-0.93
-0.935
-0.92
-0.875
-0.83
-0.825
-0.86
-0.875
-0.895
-0.875
-0.86
-0.85
-0.855
-0.87
-0.875
-0.88
-0.875
-0.875
-0.875
-0.875
-0.87
-0.865
-0.845
-0.855
-0.855
-0.86
-0.87
-0.88
-0.855
-0.865
-0.84
-0.84
-0.855
-0.885
-0.89
-0.895
-0.89
-0.9
-0.895
-0.885
-0.875
-0.875
-0.89
-0.91
-0.93
-0.945
-0.945
-0.955
-0.945
-0.915
-0.885
-0.875
-0.88
-0.91
-0.9
-0.925
-0.925
-0.955
-0.945
-0.915
-0.86
-0.815
-0.775
-0.765
-0.78
-0.815
-0.83
-0.84
-0.85
-0.835
-0.825
-0.8
-0.75
-0.725
-0.675
-0.66
-0.635
-0.615
-0.61
-0.625
-0.68
-0.76
-0.84
-0.85
-0.835
-0.805
-0.78
-0.775
-0.745
-0.725
-0.715
-0.69
-0.715
-0.765
-0.81
-0.87
-0.905
-0.905
-0.9
-0.875
-0.86
-0.9
-0.965
-0.99
-1.02
-1.005
-0.975
-0.97
-0.97
-0.95
-0.96
-0.97
-0.955
-0.95
-0.94
-0.95
-0.945
-0.94
-0.925
-0.895
-0.845
-0.825
-0.84
-0.89
-0.95
-1.015
-1.035
-1.05
-1.06
-1.075
-1.09
-1.115
-1.125
-1.075
-0.98
-0.845
-0.68
-0.52
-0.405
-0.305
-0.25
-0.21
-0.16
-0.075
0.06
0.3
0.51
0.675
0.715
0.555
0.195
-0.295
-0.84
-1.28
-1.585
-1.745
-1.805
-1.85
-1.9
-1.97
-1.985
-2.02
-2.02
-2.02
-2.06
-2.085
-2.105
-2.08
-2.03
-1.99
-1.955
-1.875
-1.77
-1.605
-1.43
-1.285
-1.17
-1.105
-1.06
-1.04
-1.025
-1.0
-0.965
-0.945
-0.945
-0.955
-0.98
-1.005
-1.005
-0.99
-0.94
-0.92
-0.895
-0.91
-0.95
-1.0
-1.0
-0.995
-0.975
-0.96
-0.985
-1.01
-1.015
-1.01
-1.01
-1.04
-1.07
-1.09
-1.125
-1.115
-1.09
-1.085
-1.12
-1.185
-1.25
-1.325
-1.34
-1.31
-1.27
-1.235
-1.22
-1.225
-1.22
-1.23
-1.235
-1.215
-1.2
-1.195
-1.185
-1.175
-1.175
-1.145
-1.105
-1.1
-1.085
-1.075
-1.065
-1.06
-1.045
-1.04
-1.03
-1.05
-1.07
-1.07
-1.05
-1.015
-0.985
-0.945
-0.92
-0.885
-0.89
-0.865
-0.835
-0.84
-0.825
-0.82
-0.8
-0.795
-0.815
-0.845
-0.865
-0.85
-0.85
-0.845
-0.83
-0.825
-0.8
-0.8
-0.765
-0.765
-0.775
-0.79
-0.8
-0.785
-0.765
-0.735
-0.735
-0.765
-0.84
-0.905
-0.95
-0.985
-0.95
-0.9
-0.86
-0.815
-0.815
-0.81
-0.815
-0.825
-0.835
-0.83
-0.85
-0.835
-0.815
-0.805
-0.815
-0.83
-0.86
-0.875
-0.885
-0.865
-0.845
-0.805
-0.76
-0.74
-0.75
-0.76
-0.785
-0.79
-0.79
-0.78
-0.795
-0.81
-0.805
-0.835
-0.835
-0.84
-0.845
-0.815
-0.815
-0.79
-0.755
-0.75
-0.73
-0.715
-0.71
-0.725
-0.705
-0.72
-0.71
-0.695
-0.685
-0.67
-0.66
-0.65
-0.655
-0.645
-0.655
-0.675
-0.675
-0.695
-0.735
-0.73
-0.725
-0.705
-0.67
-0.62
-0.61
-0.61
-0.63
-0.68
-0.76
-0.83
-0.895
-0.94
-0.935
-0.9
-0.855
-0.81
-0.79
-0.83
-0.905
-0.985
-1.02
-1.0
-0.97
-0.925
-0.88
-0.86
-0.885
-0.905
-0.92
-0.925
-0.89
-0.89
-0.89
-0.915
-0.975
-0.99
-0.98
-0.93
-0.895
-0.855
-0.885
-0.95
-1.04
-1.125
-1.17
-1.16
-1.075
-0.96
-0.825
-0.65
-0.51
-0.38
-0.325
-0.28
-0.23
-0.14
0.02
0.23
0.475
0.68
0.79
0.765
0.535
0.14
-0.35
-0.825
-1.195
-1.45
-1.61
-1.745
-1.88
-1.96
-2.055
-2.09
-2.09
-2.07
-2.035
-2.025
-2.03
-2.055
-2.08
-2.11
-2.07
-2.005
-1.895
-1.73
-1.565
-1.405
-1.26
-1.14
-1.03
-0.975
-0.925
-0.89
-0.86
-0.845
-0.855
-0.91
-0.955
-0.965
-0.935
-0.875
-0.86
-0.85
-0.9
-0.94
-0.985
-1.035
-1.03
-1.0
-0.97
-0.94
-0.95
-0.975
-1.005
-1.04
-1.05
-1.07
-1.065
-1.055
-1.055
-1.055
-1.06
-1.055
-1.075
-1.06
-1.065
-1.04
-1.03
-1.04
-1.04
-1.075
-1.15
-1.2
-1.245
-1.265
-1.23
-1.215
-1.15
-1.105
-1.085
-1.06
-1.055
-1.08
-1.105
-1.12
-1.11
-1.055
-1.02
-0.97
-0.935
-0.905
-0.89
-0.89
-0.915
-0.92
-0.91
-0.905
-0.86
-0.815
-0.78
-0.74
-0.73
-0.735
-0.745
-0.77
-0.785
-0.8
-0.79
-0.76
-0.725
-0.705
-0.735
-0.755
-0.765
-0.775
-0.745
-0.755
-0.775
-0.78
-0.795
-0.785
-0.8
-0.8
-0.81
-0.81
-0.81
-0.775
-0.745
-0.72
-0.705
-0.735
-0.75
-0.755
-0.76
-0.745
-0.705
-0.695
-0.71
-0.75
-0.81
-0.835
-0.835
-0.84
-0.815
-0.795
-0.77
-0.775
-0.775
-0.745
-0.745
-0.72
-0.695
-0.71
-0.74
-0.775
-0.81
-0.845
-0.845
-0.825
-0.81
-0.78
-0.77
-0.75
-0.78
-0.795
-0.765
-0.75
-0.74
-0.72
-0.71
-0.685
-0.685
-0.675
-0.675
-0.65
-0.65
-0.61
-0.59
-0.6
-0.595
-0.595
-0.59
-0.58
-0.58
-0.58
-0.595
-0.66
-0.72
-0.77
-0.79
-0.77
-0.725
-0.69
-0.65
-0.615
-0.62
-0.645
-0.7
-0.735
-0.775
-0.805
-0.81
-0.805
-0.8
-0.805
-0.805
-0.82
-0.83
-0.875
-0.915
-0.955
-0.995
-0.985
-0.955
-0.915
-0.86
-0.83
-0.8
-0.815
-0.84
-0.9
-0.92
-0.93
-0.925
-0.915
-0.91
-0.91
-0.9
-0.88
-0.875
-0.88
-0.88
-0.895
-0.92
-0.955
-0.96
-0.925
-0.855
-0.735
-0.57
-0.415
-0.305
-0.23
-0.18
-0.08
0.09
0.34
0.62
0.85
0.94
0.82
0.465
-0.05
-0.635
-1.135
-1.495
-1.7
-1.81
-1.87
-1.955
-2.025
-2.075
-2.125
-2.145
-2.115
-2.075
-2.06
-2.055
-2.055
-2.05
-2.05
-2.035
-2.01
-1.94
-1.845
-1.735
-1.605
-1.46
-1.34
-1.22
-1.12
-1.05
-1.015
-0.99
-0.95
-0.935
-0.91
-0.88
-0.86
-0.86
-0.88
-0.915
-0.915
-0.9
-0.89
-0.875
-0.875
-0.89
-0.9
-0.93
-0.925
-0.915
-0.885
-0.87
-0.87
-0.9
-0.945
-0.96
-0.98
-0.99
-0.985
-0.97
-0.96
-0.995
-1.04
-1.075
-1.095
-1.095
-1.065
-1.045
-1.045
-1.055
-1.065
-1.07
-1.08
-1.06
-1.035
-1.035
-1.05
-1.09
-1.125
-1.15
-1.155
-1.145
-1.13
-1.075
-1.025
-0.955
-0.88
-0.835
-0.83
-0.845
-0.855
-0.825
-0.775
-0.745
-0.78
-0.825
-0.875
-0.88
-0.87
-0.835
-0.815
-0.795
-0.785
-0.77
-0.75
-0.725
-0.72
-0.72
-0.71
-0.695
-0.73
-0.73
-0.705
-0.695
-0.685
-0.685
-0.695
-0.72
-0.73
-0.765
-0.77
-0.77
-0.755
-0.745
-0.735
-0.735
-0.72
-0.69
-0.695
-0.695
-0.72
-0.76
-0.78
-0.81
-0.805
-0.775
-0.715
-0.69
-0.72
-0.79
-0.855
-0.87
-0.87
-0.855
-0.845
-0.84
-0.815
-0.81
-0.8
-0.775
-0.73
-0.7
-0.695
-0.715
-0.755
-0.79
-0.82
-0.835
-0.835
-0.845
-0.855
-0.855
-0.845
-0.84
-0.815
-0.81
-0.79
-0.76
-0.725
-0.71
-0.68
-0.62
-0.585
-0.565
-0.555
-0.555
-0.535
-0.51
-0.515
-0.515
-0.545
-0.54
-0.55
-0.575
-0.555
-0.57
-0.63
-0.695
-0.755
-0.785
-0.77
-0.75
-0.725
-0.67
-0.615
-0.555
-0.505
-0.515
-0.52
-0.58
-0.65
-0.72
-0.765
-0.785
-0.78
-0.775
-0.765
-0.775
-0.78
-0.79
-0.78
-0.765
-0.76
-0.75
-0.775
-0.8
-0.835
-0.845
-0.86
-0.87
-0.83
-0.76
-0.75
-0.785
-0.865
-0.945
-0.98
-0.98
-0.915
-0.84
-0.785
-0.76
-0.775
-0.8
-0.865
-0.92
-0.955
-0.935
-0.88
-0.75
-0.65
-0.555
-0.47
-0.395
-0.305
-0.245
-0.165
-0.14
-0.06
0.045
0.245
0.5
0.735
0.87
0.835
0.565
0.1
-0.485
-1.115
-1.585
-1.865
-1.98
-2.02
-2.04
-2.04
-2.075
-2.125
-2.185
-2.23
-2.19
-2.145
-2.09
-2.035
-2.055
-2.1
-2.08
-2.025
-1.905
-1.77
-1.6
-1.425
-1.24
-1.1
-0.975
-0.885
-0.83
-0.855
-0.875
-0.9
-0.87
-0.845
-0.83
-0.8
-0.785
-0.75
-0.74
-0.765
-0.8
-0.865
-0.92
-0.945
-0.94
-0.915
-0.88
-0.83
-0.805
-0.8
-0.825
-0.885
-0.945
-1.0
-1.065
-1.05
-1.025
-1.02
-1.01
-1.02
-1.035
-1.045
-1.025
-1.015
-1.02
-1.025
-1.02
-1.04
-1.05
-1.06
-1.05
-1.015
-0.995
-1.0
-1.0
-1.05
-1.045
-1.045
-1.015
-0.985
-0.955
-0.95
-0.945
-0.935
-0.935
-0.925
-0.9
-0.86
-0.83
-0.805
-0.765
-0.745
-0.735
-0.73
-0.72
-0.71
-0.74
-0.76
-0.76
-0.76
-0.74
-0.7
-0.68
-0.665
-0.685
-0.7
-0.745
-0.78
-0.785
-0.78
-0.785
-0.775
-0.765
-0.755
-0.72
-0.7
-0.685
-0.695
-0.715
-0.755
-0.77
-0.79
-0.81
-0.81
-0.77
-0.755
-0.72
-0.71
-0.705
-0.7
-0.735
-0.78
-0.81
-0.78
-0.755
-0.72
-0.74
-0.8
-0.865
-0.935
-0.97
-0.97
-0.93
-0.865
-0.815
-0.77
-0.755
-0.765
-0.785
-0.815
-0.83
-0.835
-0.82
-0.855
-0.87
-0.9
-0.91
-0.895
-0.86
-0.85
-0.85
-0.845
-0.855
-0.83
-0.82
-0.795
-0.795
-0.775
-0.815
-0.82
-0.82
-0.79
-0.75
-0.7
-0.675
-0.66
-0.665
-0.68
-0.665
-0.65
-0.64
-0.65
-0.645
-0.665
-0.71
-0.775
-0.825
-0.86
-0.865
-0.84
-0.795
-0.7
-0.62
-0.59
-0.585
-0.665
-0.755
-0.86
-0.94
-0.975
-0.98
-0.945
-0.89
-0.85
-0.84
-0.88
-0.97
-1.02
-1.045
-1.025
-0.995
-0.98
-0.975
-0.98
-0.975
-0.97
-0.96
-0.965
-0.975
-0.99
-1.02
-1.015
-1.005
-0.97
-0.93
-0.895
-0.875
-0.9
-0.915
-0.935
-0.99
-1.015
-1.02
-1.005
-0.96
-0.875
-0.75
-0.585
-0.415
-0.235
-0.12
-0.04
0.015
0.075
0.175
0.295
0.47
0.635
0.7
0.54
0.145
-0.425
-1.025
-1.52
-1.855
-2.02
-2.07
-2.065
-2.05
-2.06
-2.085
-2.14
-2.185
-2.175
-2.175
-2.155
-2.15
-2.12
-2.1
-2.075
-2.045
-1.965
-1.855
-1.69
-1.525
-1.32
-1.145
-1.05
-0.99
-1.0
-1.025
-1.04
-1.03
-1.02
-0.995
-0.97
-0.935
-0.905
-0.89
-0.885
-0.9
-0.9
-0.93
-0.955
-0.99
-1.04
-1.06
-1.06
-1.015
-0.95
-0.92
-0.94
-0.96
-1.015
-1.065
-1.105
-1.11
-1.125
-1.12
-1.115
-1.1
-1.075
-1.05
-1.04
-1.04
-1.05
-1.07
-1.095
-1.145
-1.145
-1.14
-1.11
-1.11
-1.115
-1.135
-1.135
-1.125
-1.11
-1.12
-1.165
-1.185
-1.23
-1.215
-1.175
-1.14
-1.12
-1.09
-1.05
-1.0
-0.94
-0.9
-0.875
-0.87
-0.91
-0.95
-0.96
-0.94
-0.895
-0.855
-0.785
-0.74
-0.735
-0.765
-0.79
-0.785
-0.805
-0.825
-0.855
-0.855
-0.84
-0.8
-0.755
-0.76
-0.77
-0.81
-0.855
-0.9
-0.925
-0.91
-0.86
-0.79
-0.725
-0.695
-0.715
-0.73
-0.79
-0.82
-0.85
-0.9
-0.9
-0.9
-0.885
-0.885
-0.87
-0.845
-0.835
-0.825
-0.785
-0.77
-0.77
-0.785
-0.82
-0.855
-0.855
-0.87
-0.85
-0.87
-0.875
-0.85
-0.83
-0.795
-0.8
-0.82
-0.855
-0.85
-0.815
-0.79
-0.73
-0.725
-0.775
-0.82
-0.88
-0.9
-0.93
-0.935
-0.925
-0.885
-0.83
-0.775
-0.705
-0.655
-0.635
-0.67
-0.74
-0.825
-0.855
-0.845
-0.825
-0.78
-0.705
-0.685
-0.645
-0.64
-0.63
-0.625
-0.645
-0.65
-0.685
-0.685
-0.69
-0.68
-0.68
-0.715
-0.75
-0.785
-0.78
-0.75
-0.695
-0.65
-0.63
-0.625
-0.695
-0.74
-0.765
-0.775
-0.785
-0.775
-0.815
-0.85
-0.865
-0.85
-0.845
-0.835
-0.845
-0.85
-0.92
-0.965
-0.98
-0.945
-0.94
-0.93
-0.94
-0.965
-0.985
-1.0
-0.985
-0.95
-0.92
-0.91
-0.93
-0.955
-0.97
-0.95
-0.95
-0.96
-0.985
-1.04
-1.07
-1.095
-1.07
-1.035
-0.92
-0.77
-0.605
-0.44
-0.3
-0.195
-0.2
-0.17
-0.16
-0.085
0.09
0.32
0.57
0.78
0.86
0.775
0.48
0.0
-0.6
-1.16
-1.605
-1.855
-1.985
-2.03
-2.06
-2.08
-2.135
-2.18
-2.21
-2.215
-2.175
-2.15
-2.14
-2.17
-2.185
-2.21
-2.205
-2.2
-2.135
-2.055
-1.925
-1.765
-1.585
-1.43
-1.305
-1.2
-1.105
-1.035
-1.0
-0.97
-0.97
-0.96
-0.935
-0.925
-0.9
-0.86
-0.845
-0.875
-0.91
-0.92
-0.885
-0.84
-0.81
-0.85
-0.945
-1.025
-1.065
-1.065
-1.035
-1.01
-0.975
-0.96
-0.965
-0.97
-1.01
-1.01
-0.98
-0.975
-0.96
-0.955
-0.975
-1.005
-1.05
-1.07
-1.1
-1.11
-1.105
-1.115
-1.125
-1.11
-1.11
-1.1
-1.105
-1.14
-1.165
-1.185
-1.165
-1.105
-1.045
-1.01
-1.0
-1.04
-1.085
-1.095
-1.06
-0.98
-0.89
-0.825
-0.805
-0.83
-0.865
-0.87
-0.87
-0.86
-0.85
-0.83
-0.82
-0.795
-0.78
-0.75
-0.75
-0.745
-0.745
-0.745
-0.74
-0.755
-0.77
-0.78
-0.77
-0.735
-0.695
-0.695
-0.735
-0.785
-0.845
-0.845
-0.835
-0.825
-0.805
-0.8
-0.815
-0.795
-0.79
-0.785
-0.775
-0.775
-0.765
-0.78
-0.8
-0.815
-0.815
-0.795
-0.8
-0.82
-0.855
-0.87
-0.885
-0.88
-0.885
-0.86
-0.835
-0.84
-0.86
-0.885
-0.9
-0.91
-0.88
-0.83
-0.815
-0.8
-0.79
-0.8
-0.835
-0.87
-0.915
-0.945
-0.95
-0.93
-0.885
-0.855
-0.805
-0.775
-0.765
-0.76
-0.755
-0.755
-0.77
-0.745
-0.73
-0.705
-0.65
-0.635
-0.625
-0.625
-0.655
-0.685
-0.71
-0.675
-0.65
-0.59
-0.565
-0.57
-0.635
-0.695
-0.765
-0.795
-0.81
-0.795
-0.785
-0.745
-0.71
-0.69
-0.685
-0.655
-0.685
-0.73
-0.81
-0.86
-0.905
-0.905
-0.88
-0.86
-0.84
-0.83
-0.865
-0.905
-0.935
-0.935
-0.945
-0.925
-0.925
-0.885
-0.875
-0.865
-0.875
-0.895
-0.905
-0.915
-0.94
-0.955
-0.96
-0.935
-0.92
-0.895
-0.9
-0.93
-0.945
-0.98
-1.015
-1.03
-1.005
-0.985
-0.96
-0.91
-0.86
-0.785
-0.67
-0.525
-0.4
-0.28
-0.22
-0.185
-0.135
-0.06
0.07
0.255
0.435
0.62
0.725
0.65
0.4
-0.06
-0.635
-1.225
-1.7
-1.975
-2.12
-2.16
-2.185
-2.21
-2.22
-2.265
-2.275
-2.27
-2.265
-2.255
-2.24
-2.215
-2.175
-2.14
-2.125
-2.07
-1.98
-1.825
-1.66
-1.48
-1.305
-1.16
-1.07
-1.025
-0.99
-0.99
-1.02
-1.05
-1.055
-1.05
-1.035
-1.0
-0.98
-0.95
-0.94
-0.925
-0.925
-0.94
-0.955
-0.99
-1.03
-1.05
-1.045
-1.045
-1.04
-1.05
-1.06
-1.1
-1.13
-1.135
-1.15
-1.15
-1.15
-1.135
-1.12
-1.115
-1.13
-1.135
-1.11
-1.115
-1.135
-1.155
-1.17
-1.175
-1.175
-1.18
-1.185
-1.195
-1.225
-1.255
-1.28
-1.285
-1.26
-1.2
-1.14
-1.105
-1.11
-1.125
-1.155
-1.18
-1.18
-1.175
-1.135
-1.07
-1.025
-0.99
-0.965
-0.97
-0.96
-0.97
-0.98
-0.97
-1.0
-1.035
-1.015
-0.985
-0.915
-0.89
-0.875
-0.86
-0.875
-0.875
-0.875
-0.85
-0.835
-0.82
-0.805
-0.835
-0.88
-0.905
-0.925
-0.925
-0.915
-0.915
-0.925
-0.915
-0.915
-0.905
-0.885
-0.875
-0.85
-0.84
-0.87
-0.905
-0.925
-0.95
-0.96
-0.95
-0.92
-0.93
-0.925
-0.915
-0.905
-0.865
-0.84
-0.82
-0.81
-0.82
-0.855
-0.93
-0.96
-0.97
-0.96
-0.925
-0.89
-0.895
-0.945
-0.965
-0.98
-1.0
-1.0
-0.995
-1.0
-0.995
-0.99
-0.98
-0.98
-0.97
-0.93
-0.905
-0.92
-0.92
-0.93
-0.915
-0.88
-0.855
-0.82
-0.785
-0.78
-0.75
-0.74
-0.75
-0.765
-0.79
-0.8
-0.79
-0.785
-0.745
-0.705
-0.695
-0.705
-0.74
-0.78
-0.765
-0.77
-0.79
-0.815
-0.845
-0.85
-0.865
-0.855
-0.825
-0.79
-0.73
-0.69
-0.695
-0.71
-0.77
-0.84
-0.91
-1.01
-1.055
-1.07
-1.045
-1.015
-0.985
-0.95
-0.925
-0.94
-0.97
-0.985
-0.995
-0.99
-0.98
-0.99
-1.0
-1.02
-1.01
-1.005
-0.98
-0.97
-0.94
-0.91
-0.92
-0.95
-0.985
-1.025
-1.07
-1.1
-1.13
-1.13
-1.11
-1.065
-1.015
-0.955
-0.86
-0.755
-0.575
-0.37
-0.2
-0.115
-0.075
-0.08
-0.03
0.08
0.255
0.475
0.645
0.695
0.565
0.23
-0.285
-0.85
-1.355
-1.71
-1.935
-2.01
-2.06
-2.09
-2.13
-2.18
-2.19
-2.17
-2.14
-2.09
-2.045
-2.04
-2.06
-2.075
-2.11
-2.13
-2.17
-2.11
-1.995
-1.815
-1.61
-1.39
-1.215
-1.155
-1.095
-1.1
-1.13
-1.135
-1.09
-1.035
-0.96
-0.905
-0.87
-0.875
-0.945
-0.995
-1.05
-1.055
-1.04
-0.975
-0.91
-0.9
-0.925
-0.97
-1.015
-1.075
-1.105
-1.085
-1.085
-1.065
-1.065
-1.06
-1.09
-1.135
-1.16
-1.17
-1.125
-1.085
-1.015
-1.055
-1.115
-1.175
-1.22
-1.22
-1.23
-1.215
-1.175
-1.14
-1.105
-1.09
-1.125
-1.17
-1.2
-1.205
-1.225
-1.205
-1.18
-1.145
-1.1
-1.07
-1.04
-1.005
-0.96
-0.935
-0.905
-0.875
-0.91
-0.945
-1.015
-1.025
-1.0
-0.95
-0.895
-0.84
-0.79
-0.77
-0.76
-0.775
-0.85
-0.915
-0.96
-0.925
-0.875
-0.815
-0.775
-0.735
-0.71
-0.72
-0.755
-0.825
-0.86
-0.885
-0.865
-0.83
-0.775
-0.745
-0.715
-0.715
-0.685
-0.685
-0.685
-0.71
-0.755
-0.84
-0.89
-0.89
-0.865
-0.8
-0.745
-0.735
-0.73
-0.765
-0.805
-0.83
-0.825
-0.805
-0.785
-0.8
-0.84
-0.885
-0.915
-0.915
-0.875
-0.825
-0.775
-0.77
-0.79
-0.8
-0.83
-0.82
-0.775
-0.715
-0.69
-0.715
-0.745
-0.785
-0.82
-0.8
-0.735
-0.675
-0.65
-0.63
-0.625
-0.63
-0.615
-0.62
-0.605
-0.605
-0.62
-0.62
-0.615
-0.59
-0.57
-0.54
-0.55
-0.555
-0.58
-0.595
-0.595
-0.555
-0.555
-0.555
-0.585
-0.56
-0.575
-0.535
-0.53
-0.475
-0.44
-0.465
-0.515
-0.58
-0.625
-0.63
-0.625
-0.605
-0.605
-0.61
-0.635
-0.64
-0.62
-0.6
-0.575
-0.52
-0.495
-0.525
-0.57
-0.635
-0.695
-0.73
-0.74
-0.705
-0.645
-0.58
-0.53
-0.505
-0.515
-0.545
-0.57
-0.6
-0.61
-0.625
-0.625
-0.63
-0.665
-0.71
-0.735
-0.695
-0.6
-0.445
