Lead II
-0.995
-1.005
-1.035
-1.04
-1.045
-1.05
-1.025
-1.02
-1.03
-1.04
-1.06
-1.08
-1.1
-1.14
-1.14
-1.16
-1.18
-1.205
-1.22
-1.23
-1.24
-1.245
-1.25
-1.245
-1.245
-1.225
-1.21
-1.225
-1.2
-1.18
-1.185
-1.185
-1.205
-1.205
-1.23
-1.235
-1.245
-1.21
-1.16
-1.08
-0.945
-0.715
-0.455
-0.15
0.13
0.42
0.71
1.03
1.345
1.625
1.81
1.865
1.705
1.255
0.615
-0.025
-0.665
-1.305
-1.735
-1.66
-1.415
-1.17
-0.99
-0.91
-0.915
-0.985
-1.065
-1.125
-1.16
-1.155
-1.15
-1.155
-1.16
-1.17
-1.185
-1.185
-1.17
-1.15
-1.125
-1.095
-1.095
-1.09
-1.095
-1.105
-1.1
-1.09
-1.085
-1.08
-1.075
-1.045
-1.04
-1.005
-1.01
-1.025
-1.025
-1.045
-1.035
-1.04
-1.03
-1.03
-1.005
-0.99
-0.955
-0.925
-0.915
-0.9
-0.915
-0.9
-0.9
-0.89
-0.865
-0.855
-0.825
-0.8
-0.75
-0.72
-0.71
-0.715
-0.74
-0.755
-0.755
-0.73
-0.695
-0.65
-0.62
-0.605
-0.585
-0.585
-0.575
-0.575
-0.57
-0.57
-0.57
-0.575
-0.58
-0.605
-0.625
-0.66
-0.655
-0.66
-0.64
-0.665
-0.68
-0.68
-0.695
-0.71
-0.74
-0.77
-0.795
-0.815
-0.845
-0.85
-0.86
-0.875
-0.89
-0.91
-0.93
-0.945
-0.98
-0.975
-0.96
-0.965
-0.95
-0.955
-0.965
-0.96
-0.98
-1.0
-1.015
-1.03
-1.03
-1.045
-1.025
-1.035
-1.02
-1.015
-1.0
-0.98
-0.97
-0.965
-0.96
-0.965
-0.965
-0.96
-0.955
-0.95
-0.93
-0.91
-0.91
-0.91
-0.945
-0.985
-0.985
-0.99
-0.965
-0.945
-0.925
-0.875
-0.82
-0.775
-0.74
-0.715
-0.705
-0.69
-0.63
-0.575
-0.505
-0.44
-0.36
-0.28
-0.2
-0.08
0.005
0.11
0.225
0.34
0.5
0.66
0.815
0.99
1.14
1.28
1.445
1.615
1.78
1.92
2.045
2.135
2.2
2.29
2.375
2.44
2.535
2.58
2.58
2.565
2.5
2.345
2.04
1.49
0.85
0.21
-0.43
-0.915
-1.07
-1.105
-1.11
-1.13
-1.185
-1.24
-1.3
-1.38
-1.445
-1.51
-1.55
-1.585
-1.555
-1.525
-1.495
-1.455
-1.455
-1.475
-1.53
-1.57
-1.61
-1.625
-1.635
-1.64
-1.635
-1.635
-1.65
-1.66
-1.675
-1.705
-1.725
-1.75
-1.785
-1.805
-1.81
-1.82
-1.82
-1.84
-1.85
-1.86
-1.875
-1.895
-1.94
-1.985
-2.025
-2.025
-2.045
-2.05
-2.035
-2.06
-2.065
-2.075
-2.09
-2.1
-2.13
-2.145
-2.18
-2.19
-2.205
-2.195
-2.17
-2.13
-2.13
-2.115
-2.145
-2.175
-2.205
-2.205
-2.19
-2.13
-2.085
-2.035
-1.99
-1.965
-1.93
-1.88
-1.81
-1.73
-1.66
-1.61
-1.58
-1.57
-1.525
-1.47
-1.425
-1.365
-1.33
-1.3
-1.285
-1.28
-1.265
-1.24
-1.195
-1.17
-1.17
-1.175
-1.19
-1.175
-1.16
-1.125
-1.09
-1.05
-1.055
-1.05
-1.085
-1.105
-1.14
-1.155
-1.16
-1.145
-1.145
-1.125
-1.11
-1.12
-1.115
-1.13
-1.125
-1.12
-1.125
-1.12
-1.11
-1.115
-1.125
-1.135
-1.155
-1.165
-1.195
-1.23
-1.23
-1.205
-1.195
-1.185
-1.185
-1.17
-1.155
-1.145
-1.125
-1.12
-1.115
-1.115
-1.135
-1.15
-1.18
-1.2
-1.19
-1.18
-1.165
-1.15
-1.14
-1.125
-1.1
-1.1
-1.095
-1.135
-1.18
-1.215
-1.23
-1.23
-1.195
-1.15
-1.105
-1.12
-1.12
-1.15
-1.165
-1.17
-1.17
-1.17
-1.16
-1.16
-1.18
-1.18
-1.18
-1.165
-1.17
-1.185
-1.17
-1.15
-1.145
-1.155
-1.16
-1.16
-1.15
-1.14
-1.135
-1.13
-1.14
-1.14
-1.14
-1.14
-1.14
-1.15
-1.16
-1.16
-1.155
-1.15
-1.135
-1.115
-1.125
-1.14
-1.17
-1.19
-1.2
-1.215
-1.19
-1.165
-1.145
-1.145
-1.125
-1.13
-1.145
-1.165
-1.18
-1.17
-1.17
-1.18
-1.165
-1.16
-1.155
-1.145
-1.13
-1.125
-1.1
-1.11
-1.125
-1.125
-1.13
-1.145
-1.145
-1.165
-1.16
-1.145
-1.155
-1.145
-1.135
-1.145
-1.155
-1.14
-1.14
-1.15
-1.14
-1.125
-1.105
-1.07
-1.07
-1.075
-1.085
-1.105
-1.135
-1.145
-1.17
-1.165
-1.15
-1.135
-1.105
-1.11
-1.125
-1.155
-1.16
-1.17
-1.13
-1.135
-1.12
-1.11
-1.11
-1.105
-1.105
-1.09
-1.085
-1.09
-1.09
-1.09
-1.1
-1.11
-1.09
-1.095
-1.1
-1.105
-1.115
-1.1
-1.1
-1.085
-1.06
-1.05
-1.03
-1.025
-1.03
-1.06
-1.045
-1.04
-1.03
-0.965
-0.965
-0.95
-0.93
-0.935
-0.945
-0.96
-0.995
-0.985
-0.955
-0.92
-0.88
-0.845
-0.84
-0.855
-0.88
-0.925
-0.945
-0.955
-0.94
-0.94
-0.925
-0.91
-0.91
-0.915
-0.92
-0.96
-1.015
-1.04
-1.055
-1.07
-1.1
-1.09
-1.085
-1.05
-1.04
-1.04
-1.06
-1.095
-1.12
-1.14
-1.13
-1.1
-1.085
-1.07
-1.085
-1.065
-1.03
-0.96
-0.9
-0.785
-0.61
-0.385
-0.12
0.235
0.625
1.05
1.485
1.87
2.135
2.27
2.165
1.8
1.16
0.52
-0.12
-0.76
-1.4
-1.68
-1.47
-1.17
-0.91
-0.765
-0.735
-0.805
-0.9
-0.985
-1.06
-1.12
-1.135
-1.12
-1.09
-1.065
-1.055
-1.025
-1.03
-1.06
-1.08
-1.105
-1.12
-1.09
-1.105
-1.075
-1.05
-1.035
-1.025
-1.04
-1.05
-1.045
-1.035
-1.01
-1.01
-1.01
-0.985
-0.99
-0.985
-0.96
-0.925
-0.91
-0.905
-0.915
-0.92
-0.93
-0.92
-0.905
-0.905
-0.88
-0.885
-0.865
-0.835
-0.81
-0.8
-0.765
-0.74
-0.725
-0.71
-0.695
-0.67
-0.65
-0.605
-0.575
-0.55
-0.525
-0.5
-0.5
-0.505
-0.5
-0.505
-0.49
-0.48
-0.445
-0.435
-0.4
-0.385
-0.35
-0.35
-0.325
-0.33
-0.335
-0.34
-0.34
-0.365
-0.345
-0.335
-0.315
-0.31
-0.315
-0.335
-0.36
-0.38
-0.42
-0.455
-0.515
-0.58
-0.63
-0.65
-0.655
-0.675
-0.67
-0.68
-0.695
-0.71
-0.76
-0.785
-0.81
-0.875
-0.885
-0.87
-0.87
-0.865
-0.83
-0.82
-0.83
-0.84
-0.85
-0.87
-0.87
-0.865
-0.85
-0.84
-0.83
-0.85
-0.86
-0.875
-0.88
-0.875
-0.88
-0.9
-0.895
-0.88
-0.875
-0.87
-0.875
-0.885
-0.9
-0.91
-0.91
-0.9
-0.91
-0.935
-0.95
-0.95
-0.955
-0.95
-0.92
-0.945
-0.945
-0.96
-0.98
-0.99
-0.985
-0.98
-0.985
-0.995
-1.01
-1.02
-1.025
-1.035
-1.01
-1.01
-1.02
-1.005
-1.005
-1.025
-1.03
-1.05
-1.055
-1.065
-1.055
-1.065
-1.035
-1.03
-1.035
-1.035
-1.03
-1.04
-1.055
-1.075
-1.075
-1.09
-1.065
-1.055
-1.035
-1.045
-1.05
-1.06
-1.055
-1.08
-1.075
-1.07
-1.075
-1.055
-1.05
-1.045
-1.005
-0.995
-0.99
-0.995
-1.01
-1.005
-1.01
-1.01
-1.0
-0.98
-0.97
-0.94
-0.92
-0.895
-0.905
-0.915
-0.92
-0.94
-0.955
-0.965
-0.98
-0.98
-0.965
-0.975
-0.96
-0.96
-0.985
-0.985
-0.995
-1.025
-1.055
-1.095
-1.11
-1.13
-1.145
-1.17
-1.145
-1.14
-1.14
-1.165
-1.15
-1.16
-1.155
-1.165
-1.155
-1.125
-1.105
-1.11
-1.135
-1.17
-1.2
-1.22
-1.22
-1.21
-1.155
-1.08
-0.935
-0.72
-0.45
-0.13
0.24
0.655
1.07
1.5
1.845
2.09
2.175
2.035
1.63
0.99
0.35
-0.29
-0.93
-1.57
-1.71
-1.51
-1.26
-1.035
-0.905
-0.88
-0.925
-1.0
-1.06
-1.115
-1.13
-1.155
-1.145
-1.16
-1.165
-1.165
-1.155
-1.17
-1.18
-1.16
-1.16
-1.145
-1.135
-1.145
-1.12
-1.13
-1.125
-1.135
-1.125
-1.135
-1.135
-1.115
-1.09
-1.08
-1.055
-1.055
-1.055
-1.06
-1.06
-1.07
-1.085
-1.095
-1.085
-1.065
-1.045
-1.02
-0.99
-0.985
-0.97
-0.975
-0.985
-0.985
-0.985
-0.97
-0.93
-0.91
-0.89
-0.88
-0.855
-0.855
-0.84
-0.84
-0.84
-0.83
-0.825
-0.8
-0.785
-0.765
-0.74
-0.72
-0.695
-0.68
-0.675
-0.665
-0.675
-0.66
-0.675
-0.675
-0.67
-0.67
-0.685
-0.67
-0.665
-0.665
-0.655
-0.68
-0.7
-0.72
-0.735
-0.735
-0.75
-0.77
-0.79
-0.81
-0.79
-0.82
-0.835
-0.875
-0.915
-0.94
-0.975
-0.99
-1.005
-1.015
-1.005
-1.015
-1.01
-1.015
-1.005
-1.04
-1.06
-1.09
-1.1
-1.115
-1.125
-1.12
-1.12
-1.115
-1.11
-1.1
-1.08
-1.1
-1.095
-1.1
-1.1
-1.105
-1.115
-1.105
-1.115
-1.1
-1.08
-1.085
-1.115
-1.11
-1.12
-1.12
-1.135
-1.13
-1.125
-1.12
-1.12
-1.1
-1.09
-1.095
-1.1
-1.1
-1.11
-1.115
-1.125
-1.145
-1.145
-1.14
-1.155
-1.135
-1.12
-1.105
-1.11
-1.12
-1.13
-1.15
-1.165
-1.165
-1.155
-1.155
-1.155
-1.17
-1.18
-1.175
-1.175
-1.185
-1.165
-1.17
-1.18
-1.185
-1.195
-1.19
-1.18
-1.18
-1.18
-1.155
-1.155
-1.185
-1.195
-1.21
-1.2
-1.195
-1.19
-1.17
-1.175
-1.155
-1.145
-1.145
-1.15
-1.16
-1.16
-1.17
-1.18
-1.185
-1.18
-1.17
-1.14
-1.13
-1.11
-1.085
-1.085
-1.085
-1.095
-1.095
-1.095
-1.11
-1.1
-1.085
-1.065
-1.065
-1.04
-1.025
-1.0
-0.99
-0.98
-0.975
-0.99
-1.005
-1.02
-1.025
-1.03
-1.035
-1.025
-1.03
-1.025
-1.025
-1.03
-1.07
-1.06
-1.1
-1.135
-1.15
-1.175
-1.185
-1.185
-1.195
-1.2
-1.185
-1.19
-1.18
-1.19
-1.18
-1.195
-1.2
-1.19
-1.19
-1.18
-1.175
-1.175
-1.16
-1.175
-1.17
-1.135
-1.07
-0.965
-0.78
-0.53
-0.24
0.115
0.49
0.88
1.285
1.645
1.925
2.08
2.045
1.725
1.13
0.49
-0.15
-0.79
-1.43
-1.695
-1.555
-1.32
-1.105
-0.965
-0.915
-0.94
-0.985
-1.04
-1.08
-1.095
-1.095
-1.085
-1.105
-1.12
-1.14
-1.14
-1.135
-1.13
-1.115
-1.105
-1.09
-1.08
-1.07
-1.07
-1.075
-1.07
-1.065
-1.065
-1.07
-1.065
-1.065
-1.05
-1.025
-1.0
-0.99
-0.98
-0.975
-0.96
-0.965
-0.96
-0.965
-0.945
-0.935
-0.915
-0.89
-0.885
-0.855
-0.85
-0.835
-0.84
-0.825
-0.825
-0.795
-0.79
-0.8
-0.78
-0.75
-0.725
-0.695
-0.685
-0.675
-0.66
-0.655
-0.645
-0.64
-0.61
-0.585
-0.555
-0.55
-0.545
-0.54
-0.54
-0.515
-0.52
-0.525
-0.54
-0.55
-0.555
-0.56
-0.55
-0.565
-0.555
-0.565
-0.57
-0.59
-0.61
-0.645
-0.68
-0.715
-0.765
-0.78
-0.775
-0.785
-0.81
-0.805
-0.83
-0.86
-0.89
-0.88
-0.895
-0.91
-0.91
-0.915
-0.925
-0.925
-0.925
-0.915
-0.92
-0.92
-0.925
-0.935
-0.955
-0.96
-0.965
-0.97
-0.955
-0.935
-0.92
-0.895
-0.885
-0.895
-0.92
-0.92
-0.93
-0.955
-0.925
-0.915
-0.925
-0.89
-0.895
-0.885
-0.92
-0.94
-0.96
-0.98
-0.98
-0.97
-0.97
-0.98
-0.985
-0.97
-0.95
-0.935
-0.935
-0.945
-0.96
-0.98
-0.99
-0.995
-0.995
-1.005
-1.0
-0.995
-0.995
-0.995
-0.99
-0.98
-1.0
-1.01
-1.02
-1.04
-1.04
-1.02
-1.02
-1.005
-1.01
-1.005
-1.01
-1.0
-1.005
-1.01
-1.01
-1.01
-1.025
-1.035
-1.03
-1.025
-1.01
-1.015
-1.02
-1.02
-1.045
-1.045
-1.02
-1.025
-1.005
-1.03
-1.025
-1.035
-1.03
-1.02
-1.045
-1.03
-1.03
-1.045
-1.04
-1.045
-1.04
-1.02
-0.995
-0.965
-0.945
-0.92
-0.915
-0.905
-0.935
-0.945
-0.955
-0.965
-0.96
-0.945
-0.92
-0.88
-0.85
-0.84
-0.85
-0.855
-0.88
-0.88
-0.9
-0.89
-0.9
-0.925
-0.925
-0.92
-0.92
-0.925
-0.935
-0.965
-1.0
-1.035
-1.065
-1.09
-1.1
-1.095
-1.08
-1.065
-1.045
-1.04
-1.035
-1.035
-1.035
-1.06
-1.075
-1.075
-1.07
-1.075
-1.06
-1.05
-1.06
-1.055
-1.05
-1.025
-0.955
-0.815
-0.635
-0.375
-0.06
0.305
0.675
1.08
1.49
1.835
2.11
2.29
2.3
2.13
1.685
1.045
0.405
-0.235
-0.875
-1.515
-1.55
-1.285
-1.02
-0.825
-0.745
-0.78
-0.87
-0.96
-1.05
-1.075
-1.08
-1.05
-1.035
-1.015
-1.015
-1.03
-1.05
-1.055
-1.065
-1.07
-1.075
-1.08
-1.06
-1.04
-1.04
-1.01
-0.995
-0.985
-0.995
-0.995
-1.02
-1.025
-1.035
-1.02
-1.0
-0.985
-0.975
-0.955
-0.94
-0.935
-0.925
-0.935
-0.93
-0.94
-0.95
-0.92
-0.91
-0.88
-0.86
-0.83
-0.815
-0.805
-0.775
-0.78
-0.76
-0.755
-0.73
-0.695
-0.67
-0.645
-0.61
-0.605
-0.58
-0.57
-0.56
-0.56
-0.56
-0.565
-0.545
-0.535
-0.515
-0.53
-0.53
-0.495
-0.5
-0.505
-0.52
-0.545
-0.565
-0.575
-0.6
-0.635
-0.64
-0.65
-0.665
-0.675
-0.7
-0.72
-0.76
-0.785
-0.835
-0.845
-0.885
-0.92
-0.935
-0.94
-0.93
-0.92
-0.93
-0.935
-0.945
-0.965
-0.985
-0.99
-0.985
-0.99
-0.985
-0.975
-0.955
-0.955
-0.96
-0.965
-0.96
-0.97
-0.975
-0.97
-0.97
-0.965
-0.955
-0.955
-0.945
-0.945
-0.935
-0.94
-0.935
-0.945
-0.96
-0.98
-1.0
-1.0
-0.99
-1.0
-0.985
-0.985
-0.97
-0.975
-0.965
-0.995
-0.99
-1.005
-1.015
-1.02
-1.025
-1.005
-1.0
-0.985
-0.985
-0.985
-0.995
-1.015
-1.03
-1.045
-1.055
-1.03
-1.03
-1.04
-1.025
-1.0
-1.01
-1.025
-1.025
-1.05
-1.045
-1.04
-1.045
-1.04
-1.035
-1.025
-1.04
-1.03
-1.03
-1.025
-1.05
-1.04
-1.06
-1.06
-1.06
-1.05
-1.05
-1.04
-1.04
-1.025
-1.04
-1.04
-1.04
-1.035
-1.035
-1.035
-1.04
-1.015
-0.985
-0.94
-0.925
-0.905
-0.915
-0.915
-0.93
-0.935
-0.945
-0.96
-0.94
-0.925
-0.92
-0.905
-0.88
-0.85
-0.85
-0.86
-0.875
-0.885
-0.9
-0.93
-0.925
-0.935
-0.945
-0.925
-0.925
-0.925
-0.95
-0.99
-1.01
-1.04
-1.055
-1.07
-1.085
-1.1
-1.1
-1.085
-1.07
-1.07
-1.075
-1.065
-1.07
-1.08
-1.08
-1.09
-1.09
-1.085
-1.07
-1.08
-1.065
-1.075
-1.085
-1.07
-1.03
-0.985
-0.865
-0.685
-0.435
-0.12
0.26
0.675
1.13
1.555
1.945
2.235
2.4
2.405
2.235
1.84
1.2
0.56
-0.08
-0.72
-1.36
-1.605
-1.45
-1.19
-0.94
-0.78
-0.755
-0.815
-0.905
-0.98
-1.035
-1.07
-1.045
-1.04
-1.025
-1.02
-1.035
-1.055
-1.075
-1.065
-1.065
-1.065
-1.065
-1.04
-1.035
-1.025
-1.035
-1.03
-1.025
-1.025
-1.025
-1.015
-1.03
-1.025
-1.0
-0.99
-0.975
-0.945
-0.95
-0.935
-0.955
-0.975
-0.975
-0.955
-0.96
-0.935
-0.92
-0.9
-0.88
-0.865
-0.845
-0.86
-0.84
-0.845
-0.835
-0.825
-0.81
-0.785
-0.77
-0.77
-0.73
-0.715
-0.675
-0.675
-0.655
-0.66
-0.64
-0.62
-0.59
-0.56
-0.54
-0.505
-0.48
-0.47
-0.46
-0.47
-0.485
-0.5
-0.51
-0.525
-0.51
-0.52
-0.51
-0.505
-0.52
-0.52
-0.515
-0.52
-0.55
-0.585
-0.615
-0.66
-0.685
-0.725
-0.745
-0.77
-0.785
-0.795
-0.815
-0.825
-0.865
-0.885
-0.91
-0.93
-0.95
-0.965
-0.95
-0.96
-0.945
-0.95
-0.965
-0.97
-0.99
-0.99
-1.015
-1.02
-1.025
-1.04
-1.005
-0.995
-0.985
-0.97
-0.965
-0.965
-1.0
-0.98
-0.99
-1.005
-1.03
-1.01
-1.01
-0.995
-0.975
-0.96
-0.965
-0.975
-0.97
-0.995
-1.005
-1.01
-1.02
-1.02
-1.03
-1.025
-1.03
-1.03
-1.035
-1.045
-1.045
-1.05
-1.055
-1.055
-1.05
-1.045
-1.06
-1.07
-1.045
-1.04
-1.04
-1.05
-1.07
-1.065
-1.075
-1.085
-1.105
-1.08
-1.075
-1.055
-1.08
-1.07
-1.07
-1.06
-1.07
-1.08
-1.09
-1.09
-1.11
-1.105
-1.11
-1.09
-1.085
-1.07
-1.075
-1.065
-1.095
-1.1
-1.11
-1.11
-1.12
-1.125
-1.125
-1.11
-1.105
-1.07
-1.05
-1.035
-1.04
-1.035
-1.035
-1.035
-1.04
-1.04
-1.03
-1.01
-1.0
-0.975
-0.955
-0.95
-0.94
-0.935
-0.945
-0.935
-0.945
-0.96
-0.945
-0.955
-0.98
-0.98
-0.985
-1.0
-1.005
-1.01
-1.04
-1.05
-1.07
-1.09
-1.11
-1.12
-1.13
-1.13
-1.14
-1.16
-1.155
-1.145
-1.16
-1.16
-1.16
-1.16
-1.145
-1.135
-1.135
-1.12
-1.115
-1.14
-1.145
-1.145
-1.14
-1.125
-1.075
-0.98
-0.855
-0.645
-0.41
-0.09
0.195
0.54
0.93
1.335
1.72
2.03
2.195
2.14
1.85
1.265
0.625
-0.015
-0.655
-1.295
-1.66
-1.505
-1.245
-1.005
-0.875
-0.86
-0.895
-0.96
-1.04
-1.07
-1.11
-1.125
-1.14
-1.13
-1.135
-1.125
-1.135
-1.155
-1.135
-1.13
-1.135
-1.105
-1.095
-1.11
-1.1
-1.095
-1.115
-1.1
-1.09
-1.105
-1.1
-1.065
-1.05
-1.035
-1.025
-1.015
-1.025
-1.015
-1.01
-1.01
-1.01
-1.01
-0.99
-0.98
-0.97
-0.94
-0.93
-0.92
-0.915
-0.91
-0.895
-0.9
-0.875
-0.875
-0.85
-0.815
-0.79
-0.75
-0.73
-0.735
-0.705
-0.705
-0.705
-0.68
-0.67
-0.66
-0.63
-0.62
-0.6
-0.585
-0.565
-0.56
-0.57
-0.56
-0.57
-0.575
-0.595
-0.59
-0.6
-0.605
-0.615
-0.615
-0.625
-0.645
-0.67
-0.7
-0.73
-0.755
-0.785
-0.81
-0.83
-0.855
-0.885
-0.88
-0.89
-0.935
-0.935
-0.96
-0.98
-0.99
-1.025
-1.02
-1.025
-1.035
-1.025
-1.045
-1.03
-1.04
-1.04
-1.035
-1.055
-1.07
-1.07
-1.065
-1.065
-1.07
-1.035
-1.035
-1.04
-1.025
-1.03
-1.035
-1.04
-1.035
-1.055
-1.035
-1.02
-1.02
-1.015
-1.01
-1.0
-1.01
-1.035
-1.03
-1.03
-1.035
-1.05
-1.05
-1.045
-1.03
-1.02
-1.01
-1.01
-1.02
-1.035
-1.05
-1.055
-1.065
-1.065
-1.075
-1.055
-1.06
-1.075
-1.055
-1.04
-1.05
-1.05
-1.07
-1.095
-1.09
-1.085
-1.105
-1.095
-1.07
-1.07
-1.06
-1.065
-1.05
-1.055
-1.06
-1.08
-1.075
-1.09
-1.085
-1.085
-1.07
-1.06
-1.045
-1.045
-1.04
-1.04
-1.065
-1.07
-1.065
-1.07
-1.065
-1.07
-1.065
-1.06
-1.05
-1.05
-1.06
-1.05
-1.06
-1.055
-1.03
-1.02
-1.02
-0.985
-0.96
-0.96
-0.95
-0.92
-0.925
-0.93
-0.95
-0.95
-0.95
-0.94
-0.935
-0.92
-0.895
-0.875
-0.86
-0.845
-0.87
-0.87
-0.91
-0.93
-0.945
-0.95
-0.94
-0.94
-0.915
-0.91
-0.905
-0.91
-0.955
-0.985
-1.025
-1.05
-1.075
-1.095
-1.12
-1.115
-1.115
-1.095
-1.065
-1.045
-1.04
-1.045
-1.05
-1.075
-1.075
-1.085
-1.09
-1.1
-1.09
-1.08
-1.07
-1.04
-0.995
-0.935
-0.815
-0.63
-0.345
0.0
0.375
0.785
1.235
1.625
1.975
2.21
2.345
2.335
2.125
1.705
1.065
0.425
-0.215
-0.855
-1.495
-1.49
-1.28
-1.02
-0.82
-0.73
-0.76
-0.84
-0.94
-1.025
-1.075
-1.08
-1.055
-1.06
-1.03
-1.015
-1.015
-1.03
-1.035
-1.045
-1.025
-1.035
-1.025
-1.015
-1.005
-0.99
-0.995
-0.995
-0.99
-0.995
-0.99
-1.005
-1.005
-0.995
-0.995
-0.99
-0.965
-0.965
-0.935
-0.925
-0.915
-0.915
-0.915
-0.915
-0.91
-0.905
-0.9
-0.89
-0.87
-0.855
-0.815
-0.805
-0.775
-0.755
-0.75
-0.75
-0.735
-0.725
-0.72
-0.705
-0.68
-0.66
-0.635
-0.605
-0.585
-0.565
-0.545
-0.545
-0.535
-0.53
-0.52
-0.515
-0.49
-0.475
-0.47
-0.465
-0.47
-0.475
-0.495
-0.515
-0.51
-0.52
-0.51
-0.525
-0.525
-0.535
-0.55
-0.565
-0.6
-0.625
-0.66
-0.705
-0.735
-0.75
-0.77
-0.805
-0.815
-0.85
-0.83
-0.845
-0.855
-0.87
-0.9
-0.92
-0.94
-0.94
-0.95
-0.955
-0.96
-0.94
-0.95
-0.92
-0.93
-0.93
-0.93
-0.935
-0.945
-0.95
-0.945
-0.97
-0.955
-0.93
-0.93
-0.915
-0.915
-0.915
-0.925
-0.93
-0.94
-0.93
-0.935
-0.935
-0.925
-0.925
-0.935
-0.925
-0.93
-0.925
-0.93
-0.94
-0.96
-0.955
-0.96
-0.96
-0.965
-0.955
-0.955
-0.94
-0.945
-0.94
-0.95
-0.97
-0.975
-0.975
-0.98
-0.985
-0.985
-0.985
-0.99
-0.98
-0.975
-0.98
-0.995
-0.995
-1.01
-1.01
-1.01
-1.005
-0.99
-0.985
-0.995
-0.99
-0.995
-1.0
-1.005
-1.0
-1.005
-1.01
-1.02
-1.025
-1.04
-1.03
-1.025
-1.0
-1.01
-1.005
-1.01
-1.0
-1.01
-1.03
-1.055
-1.035
-1.03
-1.04
-1.02
-1.005
-1.005
-0.995
-1.0
-1.0
-1.005
-0.99
-0.965
-0.965
-0.93
-0.92
-0.92
-0.895
-0.915
-0.895
-0.9
-0.895
-0.895
-0.905
-0.885
-0.88
-0.85
-0.83
-0.815
-0.805
-0.815
-0.83
-0.85
-0.88
-0.88
-0.895
-0.895
-0.91
-0.92
-0.92
-0.91
-0.91
-0.945
-0.94
-0.97
-0.995
-1.03
-1.055
-1.07
-1.1
-1.085
-1.09
-1.06
-1.035
-1.04
-1.04
-1.04
-1.06
-1.06
-1.07
-1.065
-1.065
-1.095
-1.085
-1.085
-1.065
-1.045
-0.975
-0.87
-0.71
-0.47
-0.195
0.17
0.58
1.02
1.465
1.865
2.165
2.32
2.315
2.095
1.625
0.985
0.345
-0.295
-0.935
-1.575
-1.54
-1.275
-0.975
-0.76
-0.68
-0.7
-0.79
-0.915
-1.0
-1.06
-1.085
-1.06
-1.035
-1.0
-0.995
-0.985
-0.995
-1.005
-1.025
-1.03
-1.03
-1.035
-1.03
-1.02
-1.005
-1.0
-0.98
-0.985
-0.985
-0.985
-0.975
-0.99
-0.98
-0.985
-0.96
-0.97
-0.945
-0.925
-0.915
-0.915
-0.92
-0.91
-0.905
-0.92
-0.905
-0.905
-0.89
-0.875
-0.845
-0.825
-0.8
-0.795
-0.785
-0.78
-0.785
-0.76
-0.755
-0.745
-0.715
-0.69
-0.64
-0.62
-0.58
-0.56
-0.54
-0.53
-0.535
-0.535
-0.52
-0.535
-0.52
-0.51
-0.49
-0.48
-0.48
-0.485
-0.49
-0.485
-0.505
-0.51
-0.515
-0.535
-0.54
-0.55
-0.565
-0.575
-0.605
-0.63
-0.67
-0.705
-0.755
-0.77
-0.8
-0.815
-0.83
-0.855
-0.865
-0.88
-0.9
-0.9
-0.92
-0.94
-0.945
-0.96
-0.975
-0.99
-1.0
-1.005
-0.99
-0.985
-0.97
-0.995
-0.97
-0.98
-1.0
-0.99
-0.995
-1.0
-0.995
-0.985
-0.985
-0.985
-0.98
-0.96
-0.965
-0.985
-0.995
-1.0
-0.995
-1.005
-1.005
-0.995
-0.985
-0.985
-0.98
-0.98
-1.0
-1.02
-1.005
-1.03
-1.025
-1.025
-1.025
-1.01
-1.0
-1.01
-1.015
-1.015
-1.025
-1.03
-1.055
-1.06
-1.065
-1.075
-1.08
-1.065
-1.055
-1.045
-1.05
-1.045
-1.06
-1.06
-1.07
-1.08
-1.08
-1.095
-1.085
-1.09
-1.085
-1.065
-1.055
-1.06
-1.08
-1.08
-1.105
-1.11
-1.105
-1.12
-1.1
-1.095
-1.085
-1.08
-1.06
-1.08
-1.09
-1.09
-1.095
-1.105
-1.105
-1.11
-1.105
-1.1
-1.08
-1.065
-1.03
-1.01
-1.005
-1.0
-0.99
-1.0
-0.995
-0.995
-1.005
-0.99
-0.975
-0.97
-0.96
-0.945
-0.94
-0.935
-0.93
-0.93
-0.94
-0.93
-0.95
-0.955
-0.96
-0.965
-0.97
-0.99
-0.99
-0.99
-1.01
-1.035
-1.05
-1.08
-1.1
-1.115
-1.12
-1.13
-1.135
-1.145
-1.17
-1.155
-1.17
-1.16
-1.17
-1.165
-1.15
-1.15
-1.14
-1.125
-1.12
-1.135
-1.14
-1.14
-1.15
-1.165
-1.155
-1.13
-1.065
-0.94
-0.745
-0.49
-0.14
0.255
0.69
1.165
1.595
1.965
2.19
2.285
2.17
1.88
1.32
0.68
0.04
-0.6
-1.24
-1.635
-1.54
-1.325
-1.095
-0.935
-0.89
-0.9
-0.975
-1.035
-1.115
-1.15
-1.17
-1.165
-1.165
-1.16
-1.14
-1.14
-1.16
-1.17
-1.16
-1.15
-1.15
-1.13
-1.13
-1.125
-1.125
-1.1
-1.1
-1.095
-1.105
-1.08
-1.08
-1.095
-1.065
-1.035
-1.025
-1.05
-1.05
-1.06
-1.08
-1.07
-1.065
-1.04
-1.005
-0.985
-0.955
-0.945
-0.94
-0.945
-0.95
-0.945
-0.935
-0.925
-0.915
-0.88
-0.85
-0.835
-0.82
-0.805
-0.775
-0.77
-0.75
-0.73
-0.7
-0.7
-0.67
-0.655
-0.64
-0.625
-0.615
-0.59
-0.58
-0.595
-0.595
-0.595
-0.615
-0.62
-0.625
-0.615
-0.61
-0.605
-0.605
-0.63
-0.655
-0.685
-0.715
-0.74
-0.76
-0.815
-0.825
-0.855
-0.86
-0.89
-0.895
-0.9
-0.92
-0.94
-0.965
-0.995
-1.01
-1.03
-1.04
-1.06
-1.045
-1.04
-1.035
-1.02
-1.02
-1.02
-1.03
-1.04
-1.05
-1.055
-1.07
-1.07
-1.04
-1.05
-1.03
-1.025
-1.02
-1.015
-1.02
-1.025
-1.025
-1.03
-1.025
-1.03
-1.02
-1.005
-1.0
-1.0
-1.01
-1.015
-1.025
-1.035
-1.035
-1.045
-1.03
-1.025
-1.01
-1.01
-1.01
-1.025
-1.035
-1.02
-1.045
-1.065
-1.045
-1.045
-1.06
-1.045
-1.045
-1.015
-1.005
-1.02
-1.01
-1.015
-1.04
-1.055
-1.065
-1.07
-1.07
-1.075
-1.065
-1.055
-1.035
-1.04
-1.045
-1.04
-1.04
-1.05
-1.05
-1.06
-1.085
-1.08
-1.045
-1.045
-1.04
-1.035
-1.025
-1.035
-1.055
-1.07
-1.085
-1.08
-1.1
-1.055
-1.045
-1.035
-1.025
-1.03
-1.045
-1.05
-1.035
-1.045
-1.05
-1.035
-1.02
-0.995
-0.97
-0.945
-0.925
-0.925
-0.93
-0.93
-0.935
-0.965
-0.96
-0.98
-0.95
-0.935
-0.89
-0.865
-0.85
-0.85
-0.87
-0.88
-0.905
-0.91
-0.92
-0.945
-0.955
-0.96
-0.945
-0.95
-0.95
-0.99
-1.03
-1.05
-1.07
-1.105
-1.11
-1.13
-1.12
-1.105
-1.09
-1.07
-1.06
-1.06
-1.065
-1.07
-1.085
-1.09
-1.085
-1.095
-1.085
-1.085
-1.095
-1.095
-1.07
-1.035
-0.985
-0.88
-0.765
-0.565
-0.31
0.01
0.36
0.75
1.17
1.57
1.93
2.19
2.305
2.285
2.08
1.585
0.945
0.305
-0.335
-0.975
-1.555
-1.425
-1.165
-0.92
-0.76
-0.73
-0.79
-0.895
-0.985
-1.05
-1.07
-1.07
-1.06
-1.025
-1.045
-1.03
-1.04
-1.06
-1.06
-1.07
-1.07
-1.085
-1.075
-1.05
-1.03
-1.01
-0.985
-0.98
-0.975
-0.97
-0.985
-0.99
-1.0
-0.995
-1.005
-1.005
-0.995
-0.995
-0.965
-0.95
-0.94
-0.93
-0.92
-0.925
-0.93
-0.95
-0.93
-0.91
-0.905
-0.87
-0.84
-0.83
-0.8
-0.82
-0.83
-0.8
-0.78
-0.76
-0.735
-0.7
-0.665
-0.655
-0.625
-0.605
-0.6
-0.575
-0.57
-0.555
-0.53
-0.52
-0.5
-0.485
-0.47
-0.45
-0.435
-0.44
-0.455
-0.465
-0.49
-0.5
-0.52
-0.545
-0.55
-0.555
-0.545
-0.54
-0.54
-0.565
-0.61
-0.645
-0.69
-0.71
-0.745
-0.75
-0.775
-0.79
-0.8
-0.805
-0.815
-0.83
-0.85
-0.895
-0.93
-0.95
-0.955
-0.965
-0.97
-0.97
-0.975
-0.98
-0.975
-0.98
-1.0
-0.99
-1.01
-1.015
-1.02
-1.025
-1.01
-0.99
-0.965
-0.97
-0.935
-0.95
-0.975
-0.975
-1.005
-1.005
-1.0
-1.01
-0.99
-0.98
-0.975
-0.97
-0.945
-0.94
-0.94
-0.945
-0.965
-0.965
-0.98
-0.99
-0.99
-1.01
-1.01
-0.99
-0.985
-0.965
-0.98
-0.975
-0.995
-0.995
-0.99
-1.005
-0.985
-0.99
-0.99
-0.99
-0.99
-1.015
-0.995
-1.02
-1.02
-1.04
-1.055
-1.045
-1.03
-1.035
-1.03
-1.005
-1.01
-1.02
-1.035
-1.04
-1.06
-1.08
-1.08
-1.095
-1.075
-1.065
-1.045
-1.025
-1.015
-1.0
-1.0
-1.015
-1.025
-1.04
-1.07
-1.065
-1.075
-1.075
-1.06
-1.065
-1.07
-1.07
-1.075
-1.065
-1.07
-1.09
-1.085
-1.08
-1.09
-1.06
-1.04
-1.025
-0.97
-0.94
-0.93
-0.94
-0.955
-0.955
-0.965
-0.95
-0.935
-0.91
-0.91
-0.905
-0.88
-0.875
-0.87
-0.87
-0.89
-0.905
-0.925
-0.93
-0.945
-0.94
-0.925
-0.915
-0.925
-0.945
-0.98
-0.995
-1.02
-1.03
-1.06
-1.08
-1.11
-1.135
-1.135
-1.135
-1.125
-1.115
-1.115
-1.11
-1.105
-1.125
-1.12
-1.105
-1.115
-1.09
-1.085
-1.085
-1.1
-1.12
-1.13
-1.135
-1.11
-1.055
-0.935
-0.75
-0.475
-0.105
0.32
0.785
1.265
1.71
2.07
2.29
2.335
2.165
1.7
1.06
0.42
-0.22
-0.86
-1.5
-1.625
-1.375
-1.05
-0.84
-0.74
-0.765
-0.875
-0.98
-1.08
-1.12
-1.135
-1.115
-1.11
-1.07
-1.075
-1.06
-1.07
-1.085
-1.105
-1.11
-1.1
-1.115
-1.1
-1.075
-1.065
-1.065
-1.05
-1.055
-1.045
-1.055
-1.065
-1.065
-1.05
-1.025
-1.005
-1.005
-0.985
-0.975
-0.98
-0.985
-0.98
-0.985
-0.975
-0.965
-0.94
-0.92
-0.9
-0.885
-0.855
-0.84
-0.835
-0.83
-0.83
-0.835
-0.835
-0.825
-0.805
-0.785
-0.765
-0.725
-0.705
-0.675
-0.655
-0.64
-0.64
-0.625
-0.6
-0.575
-0.55
-0.55
-0.53
-0.5
-0.49
-0.485
-0.48
-0.505
-0.49
-0.505
-0.53
-0.575
-0.59
-0.605
-0.625
-0.625
-0.625
-0.63
-0.65
-0.675
-0.72
-0.755
-0.79
-0.82
-0.84
-0.845
-0.845
-0.865
-0.87
-0.895
-0.93
-0.97
-1.015
-1.05
-1.06
-1.07
-1.06
-1.04
-1.03
-1.035
-1.035
-1.035
-1.045
-1.055
-1.055
-1.045
-1.065
-1.06
-1.045
-1.035
-1.02
-1.0
-1.0
-0.995
-0.99
-1.005
-1.03
-1.04
-1.055
-1.065
-1.055
-1.055
-1.045
-1.05
-1.045
-1.04
-1.045
-1.04
-1.045
-1.05
-1.065
-1.085
-1.12
-1.115
-1.105
-1.08
-1.065
-1.04
-1.06
-1.06
-1.075
-1.095
-1.11
-1.12
-1.14
-1.145
-1.145
-1.115
-1.105
-1.105
-1.11
-1.125
-1.12
-1.15
-1.155
-1.145
-1.14
-1.13
-1.135
-1.135
-1.12
-1.12
-1.135
-1.14
-1.155
-1.15
-1.155
-1.16
-1.155
-1.16
-1.145
-1.145
-1.13
-1.125
-1.12
-1.13
-1.125
-1.14
-1.16
-1.175
-1.185
-1.185
-1.18
-1.175
-1.165
-1.15
-1.145
-1.13
-1.125
-1.115
-1.115
-1.1
-1.085
-1.07
-1.07
-1.065
-1.055
-1.065
-1.08
-1.06
-1.07
-1.065
-1.065
-1.045
-1.04
-1.015
-0.985
-0.98
-0.975
-0.96
-0.975
-0.98
-1.02
-1.03
-1.055
-1.065
-1.075
-1.08
-1.065
-1.07
-1.07
-1.085
-1.11
-1.155
-1.185
-1.23
-1.265
-1.265
-1.25
-1.235
-1.22
-1.21
-1.185
-1.18
-1.185
-1.19
-1.195
-1.215
-1.22
-1.215
-1.22
-1.215
-1.21
-1.2
-1.18
-1.125
-1.03
-0.87
-0.655
-0.345
0.025
0.455
0.905
1.35
1.78
2.1
2.3
2.355
2.22
1.865
1.24
0.6
-0.04
-0.68
-1.32
-1.705
-1.52
-1.255
-1.01
-0.88
-0.865
