Lead II
0.675
0.37
0.06
-0.2
-0.325
-0.36
-0.29
-0.255
-0.24
-0.245
-0.245
-0.25
-0.26
-0.28
-0.305
-0.305
-0.3
-0.295
-0.29
-0.3
-0.31
-0.32
-0.315
-0.32
-0.31
-0.32
-0.34
-0.335
-0.34
-0.315
-0.31
-0.32
-0.34
-0.345
-0.34
-0.335
-0.325
-0.33
-0.34
-0.345
-0.33
-0.32
-0.305
-0.305
-0.325
-0.33
-0.32
-0.31
-0.3
-0.305
-0.32
-0.335
-0.34
-0.325
-0.305
-0.305
-0.31
-0.315
-0.3
-0.28
-0.28
-0.275
-0.275
-0.275
-0.265
-0.25
-0.25
-0.235
-0.24
-0.235
-0.225
-0.21
-0.19
-0.2
-0.215
-0.215
-0.2
-0.18
-0.16
-0.155
-0.16
-0.17
-0.17
-0.155
-0.14
-0.145
-0.165
-0.17
-0.165
-0.145
-0.135
-0.135
-0.145
-0.145
-0.15
-0.14
-0.12
-0.135
-0.155
-0.16
-0.15
-0.145
-0.15
-0.155
-0.165
-0.19
-0.195
-0.18
-0.18
-0.18
-0.2
-0.205
-0.21
-0.215
-0.22
-0.23
-0.235
-0.245
-0.23
-0.22
-0.215
-0.215
-0.235
-0.255
-0.235
-0.225
-0.235
-0.235
-0.245
-0.255
-0.24
-0.24
-0.225
-0.245
-0.25
-0.26
-0.26
-0.25
-0.245
-0.265
-0.265
-0.255
-0.25
-0.225
-0.23
-0.245
-0.26
-0.25
-0.245
-0.225
-0.21
-0.225
-0.245
-0.27
-0.245
-0.22
-0.22
-0.225
-0.235
-0.22
-0.22
-0.195
-0.185
-0.19
-0.2
-0.225
-0.21
-0.195
-0.185
-0.2
-0.205
-0.2
-0.185
-0.17
-0.165
-0.185
-0.205
-0.22
-0.19
-0.18
-0.16
-0.19
-0.2
-0.21
-0.22
-0.205
-0.205
-0.205
-0.21
-0.215
-0.205
-0.195
-0.19
-0.19
-0.21
-0.22
-0.215
-0.205
-0.205
-0.215
-0.24
-0.24
-0.24
-0.22
-0.225
-0.24
-0.245
-0.25
-0.25
-0.235
-0.22
-0.245
-0.245
-0.245
-0.23
-0.225
-0.215
-0.215
-0.235
-0.225
-0.215
-0.215
-0.22
-0.225
-0.23
-0.225
-0.22
-0.215
-0.215
-0.235
-0.24
-0.245
-0.245
-0.225
-0.205
-0.21
-0.235
-0.225
-0.195
-0.15
-0.105
-0.065
-0.03
0.06
0.205
0.375
0.55
0.725
0.905
1.105
1.3
1.415
1.395
1.215
0.95
0.63
0.325
0.015
-0.265
-0.43
-0.465
-0.405
-0.34
-0.29
-0.265
-0.25
-0.265
-0.265
-0.27
-0.26
-0.27
-0.275
-0.29
-0.315
-0.3
-0.29
-0.285
-0.31
-0.33
-0.325
-0.32
-0.31
-0.305
-0.32
-0.32
-0.325
-0.33
-0.31
-0.285
-0.31
-0.34
-0.365
-0.355
-0.34
-0.32
-0.335
-0.345
-0.335
-0.325
-0.32
-0.33
-0.34
-0.335
-0.335
-0.315
-0.295
-0.295
-0.29
-0.31
-0.315
-0.31
-0.29
-0.285
-0.3
-0.31
-0.32
-0.32
-0.29
-0.25
-0.245
-0.255
-0.255
-0.245
-0.25
-0.235
-0.23
-0.24
-0.23
-0.2
-0.18
-0.16
-0.16
-0.155
-0.165
-0.165
-0.14
-0.125
-0.11
-0.12
-0.12
-0.095
-0.09
-0.08
-0.095
-0.1
-0.095
-0.09
-0.07
-0.07
-0.075
-0.08
-0.085
-0.065
-0.055
-0.08
-0.1
-0.11
-0.12
-0.12
-0.125
-0.14
-0.15
-0.175
-0.19
-0.2
-0.195
-0.21
-0.23
-0.26
-0.265
-0.27
-0.26
-0.255
-0.28
-0.3
-0.295
-0.3
-0.3
-0.315
-0.31
-0.32
-0.325
-0.315
-0.29
-0.275
-0.3
-0.315
-0.315
-0.29
-0.265
-0.255
-0.265
-0.29
-0.29
-0.285
-0.26
-0.24
-0.25
-0.26
-0.26
-0.25
-0.24
-0.225
-0.225
-0.225
-0.22
-0.2
-0.185
-0.195
-0.205
-0.225
-0.22
-0.215
-0.2
-0.205
-0.225
-0.24
-0.23
-0.215
-0.205
-0.22
-0.23
-0.24
-0.255
-0.25
-0.25
-0.23
-0.245
-0.245
-0.25
-0.26
-0.24
-0.23
-0.235
-0.235
-0.24
-0.245
-0.255
-0.24
-0.25
-0.25
-0.25
-0.255
-0.235
-0.24
-0.255
-0.25
-0.255
-0.245
-0.235
-0.24
-0.25
-0.265
-0.27
-0.26
-0.235
-0.24
-0.235
-0.235
-0.24
-0.235
-0.22
-0.225
-0.215
-0.24
-0.245
-0.245
-0.22
-0.225
-0.22
-0.225
-0.235
-0.235
-0.23
-0.22
-0.24
-0.26
-0.28
-0.265
-0.25
-0.26
-0.255
-0.27
-0.27
-0.255
-0.245
-0.245
-0.26
-0.285
-0.285
-0.28
-0.265
-0.24
-0.24
-0.255
-0.275
-0.245
-0.23
-0.22
-0.245
-0.26
-0.255
-0.25
-0.195
-0.135
-0.095
-0.05
0.04
0.17
0.32
0.505
0.675
0.87
1.06
1.245
1.375
1.405
1.285
1.05
0.745
0.445
0.15
-0.115
-0.315
-0.4
-0.365
-0.31
-0.245
-0.24
-0.235
-0.245
-0.255
-0.26
-0.265
-0.275
-0.295
-0.325
-0.32
-0.31
-0.305
-0.295
-0.325
-0.335
-0.34
-0.345
-0.32
-0.315
-0.34
-0.36
-0.345
-0.335
-0.315
-0.305
-0.31
-0.33
-0.335
-0.345
-0.32
-0.32
-0.33
-0.35
-0.35
-0.34
-0.335
-0.325
-0.325
-0.315
-0.325
-0.345
-0.35
-0.34
-0.31
-0.315
-0.335
-0.34
-0.32
-0.315
-0.31
-0.32
-0.31
-0.295
-0.27
-0.25
-0.26
-0.29
-0.275
-0.26
-0.245
-0.225
-0.23
-0.225
-0.2
-0.19
-0.185
-0.17
-0.175
-0.18
-0.185
-0.18
-0.16
-0.14
-0.135
-0.175
-0.185
-0.17
-0.13
-0.115
-0.125
-0.14
-0.155
-0.15
-0.125
-0.11
-0.115
-0.13
-0.14
-0.155
-0.135
-0.11
-0.12
-0.165
-0.19
-0.19
-0.17
-0.15
-0.155
-0.165
-0.2
-0.2
-0.2
-0.195
-0.22
-0.23
-0.25
-0.225
-0.225
-0.225
-0.245
-0.275
-0.28
-0.275
-0.25
-0.245
-0.235
-0.28
-0.275
-0.26
-0.24
-0.25
-0.275
-0.29
-0.28
-0.265
-0.245
-0.235
-0.245
-0.285
-0.28
-0.265
-0.23
-0.22
-0.225
-0.24
-0.245
-0.235
-0.215
-0.19
-0.165
-0.16
-0.16
-0.135
-0.12
-0.1
-0.095
-0.06
0.01
0.095
0.165
0.225
0.29
0.345
0.425
0.51
0.585
0.67
0.76
0.845
0.93
1.01
1.09
1.13
1.13
1.085
1.07
1.055
1.045
1.005
0.935
0.845
0.76
0.67
0.62
0.52
0.4
0.29
0.215
0.18
0.17
0.16
0.155
0.125
0.1
0.085
0.115
0.17
0.24
0.3
0.34
0.305
0.175
-0.05
-0.285
-0.46
-0.535
-0.56
-0.56
-0.58
-0.615
-0.635
-0.66
-0.665
-0.67
-0.685
-0.69
-0.72
-0.725
-0.71
-0.68
-0.675
-0.7
-0.725
-0.755
-0.75
-0.745
-0.75
-0.78
-0.785
-0.79
-0.785
-0.79
-0.8
-0.825
-0.85
-0.865
-0.875
-0.87
-0.875
-0.905
-0.915
-0.935
-0.945
-0.94
-0.94
-0.96
-0.98
-0.99
-1.0
-0.99
-0.99
-1.0
-1.01
-0.995
-0.97
-0.93
-0.915
-0.925
-0.925
-0.915
-0.9
-0.88
-0.88
-0.86
-0.845
-0.83
-0.795
-0.765
-0.725
-0.71
-0.68
-0.66
-0.63
-0.61
-0.58
-0.585
-0.575
-0.575
-0.54
-0.505
-0.495
-0.47
-0.465
-0.445
-0.43
-0.425
-0.42
-0.42
-0.42
-0.41
-0.41
-0.385
-0.39
-0.385
-0.385
-0.375
-0.355
-0.345
-0.35
-0.36
-0.36
-0.355
-0.345
-0.315
-0.315
-0.34
-0.355
-0.37
-0.36
-0.33
-0.315
-0.325
-0.34
-0.335
-0.295
-0.28
-0.255
-0.28
-0.275
-0.285
-0.26
-0.255
-0.255
-0.275
-0.3
-0.305
-0.275
-0.25
-0.23
-0.215
-0.23
-0.25
-0.25
-0.245
-0.25
-0.255
-0.26
-0.285
-0.275
-0.255
-0.255
-0.265
-0.28
-0.295
-0.29
-0.28
-0.27
-0.265
-0.275
-0.28
-0.255
-0.255
-0.265
-0.28
-0.29
-0.29
-0.27
-0.26
-0.25
-0.265
-0.285
-0.3
-0.275
-0.25
-0.245
-0.265
-0.27
-0.265
-0.25
-0.235
-0.24
-0.24
-0.28
-0.28
-0.295
-0.28
-0.29
-0.29
-0.295
-0.3
-0.29
-0.275
-0.265
-0.255
-0.265
-0.26
-0.245
-0.25
-0.25
-0.265
-0.27
-0.27
-0.26
-0.255
-0.265
-0.25
-0.26
-0.27
-0.255
-0.24
-0.235
-0.255
-0.26
-0.25
-0.255
-0.245
-0.245
-0.26
-0.28
-0.265
-0.24
-0.24
-0.255
-0.27
-0.29
-0.285
-0.275
-0.25
-0.26
-0.255
-0.27
-0.275
-0.27
-0.245
-0.245
-0.275
-0.275
-0.26
-0.24
-0.235
-0.255
-0.25
-0.27
-0.25
-0.23
-0.23
-0.22
-0.23
-0.24
-0.23
-0.215
-0.22
-0.23
-0.255
-0.26
-0.265
-0.245
-0.24
-0.24
-0.24
-0.25
-0.255
-0.26
-0.265
-0.245
-0.24
-0.27
-0.29
-0.275
-0.26
-0.24
-0.235
-0.255
-0.27
-0.27
-0.265
-0.265
-0.275
-0.28
-0.255
-0.235
-0.19
-0.175
-0.205
-0.24
-0.265
-0.25
-0.23
-0.225
-0.225
-0.24
-0.24
-0.22
-0.205
-0.19
-0.17
-0.14
-0.07
0.025
0.14
0.28
0.45
0.635
0.865
1.145
1.39
1.59
1.65
1.565
1.36
1.075
0.78
0.465
0.135
-0.15
-0.31
-0.32
-0.265
-0.22
-0.19
-0.21
-0.225
-0.235
-0.23
-0.245
-0.26
-0.29
-0.295
-0.295
-0.285
-0.285
-0.29
-0.325
-0.325
-0.32
-0.315
-0.335
-0.335
-0.335
-0.34
-0.33
-0.325
-0.33
-0.345
-0.34
-0.34
-0.335
-0.325
-0.33
-0.35
-0.345
-0.34
-0.325
-0.32
-0.32
-0.33
-0.33
-0.355
-0.345
-0.33
-0.335
-0.34
-0.355
-0.36
-0.355
-0.335
-0.33
-0.36
-0.345
-0.345
-0.325
-0.31
-0.3
-0.285
-0.3
-0.31
-0.3
-0.29
-0.25
-0.235
-0.245
-0.235
-0.22
-0.225
-0.215
-0.19
-0.175
-0.165
-0.17
-0.17
-0.145
-0.14
-0.13
-0.13
-0.135
-0.125
-0.115
-0.13
-0.15
-0.135
-0.11
-0.095
-0.11
-0.12
-0.13
-0.105
-0.1
-0.075
-0.08
-0.08
-0.095
-0.095
-0.085
-0.08
-0.06
-0.08
-0.11
-0.11
-0.11
-0.115
-0.125
-0.145
-0.145
-0.145
-0.135
-0.14
-0.15
-0.17
-0.2
-0.19
-0.165
-0.155
-0.18
-0.205
-0.22
-0.21
-0.19
-0.175
-0.185
-0.185
-0.2
-0.195
-0.185
-0.18
-0.19
-0.21
-0.22
-0.205
-0.19
-0.18
-0.19
-0.21
-0.235
-0.225
-0.215
-0.205
-0.2
-0.21
-0.225
-0.205
-0.19
-0.185
-0.195
-0.205
-0.19
-0.195
-0.165
-0.15
-0.16
-0.155
-0.185
-0.175
-0.15
-0.14
-0.15
-0.155
-0.165
-0.175
-0.15
-0.14
-0.14
-0.15
-0.155
-0.155
-0.155
-0.145
-0.145
-0.155
-0.175
-0.175
-0.175
-0.16
-0.15
-0.16
-0.175
-0.19
-0.18
-0.17
-0.16
-0.185
-0.2
-0.21
-0.2
-0.175
-0.185
-0.18
-0.19
-0.195
-0.2
-0.19
-0.19
-0.19
-0.22
-0.22
-0.21
-0.195
-0.2
-0.215
-0.23
-0.22
-0.205
-0.195
-0.195
-0.205
-0.225
-0.22
-0.21
-0.2
-0.19
-0.195
-0.225
-0.225
-0.205
-0.15
-0.145
-0.165
-0.195
-0.22
-0.215
-0.195
-0.18
-0.18
-0.19
-0.19
-0.18
-0.18
-0.18
-0.19
-0.205
-0.195
-0.185
-0.185
-0.165
-0.18
-0.2
-0.205
-0.195
-0.18
-0.16
-0.165
-0.18
-0.195
-0.19
-0.155
-0.145
-0.17
-0.19
-0.17
-0.18
-0.175
-0.16
-0.16
-0.145
-0.095
-0.005
0.1
0.21
0.32
0.5
0.705
0.94
1.17
1.395
1.555
1.6
1.52
1.335
1.055
0.72
0.385
0.025
-0.225
-0.305
-0.265
-0.2
-0.155
-0.15
-0.145
-0.15
-0.165
-0.195
-0.235
-0.245
-0.26
-0.26
-0.265
-0.255
-0.28
-0.29
-0.28
-0.275
-0.275
-0.29
-0.305
-0.325
-0.305
-0.295
-0.27
-0.285
-0.31
-0.325
-0.315
-0.315
-0.295
-0.295
-0.3
-0.315
-0.315
-0.3
-0.305
-0.3
-0.305
-0.315
-0.315
-0.29
-0.285
-0.295
-0.305
-0.305
-0.315
-0.305
-0.285
-0.28
-0.28
-0.295
-0.29
-0.275
-0.26
-0.255
-0.25
-0.27
-0.265
-0.24
-0.23
-0.215
-0.23
-0.245
-0.245
-0.235
-0.22
-0.21
-0.22
-0.22
-0.215
-0.2
-0.18
-0.165
-0.19
-0.18
-0.195
-0.16
-0.155
-0.14
-0.155
-0.155
-0.155
-0.135
-0.105
-0.105
-0.105
-0.125
-0.115
-0.105
-0.075
-0.08
-0.085
-0.11
-0.11
-0.1
-0.095
-0.105
-0.125
-0.145
-0.155
-0.16
-0.16
-0.16
-0.17
-0.18
-0.18
-0.185
-0.185
-0.18
-0.2
-0.215
-0.225
-0.215
-0.21
-0.215
-0.235
-0.24
-0.235
-0.24
-0.245
-0.26
-0.265
-0.25
-0.245
-0.23
-0.23
-0.23
-0.235
-0.255
-0.255
-0.24
-0.23
-0.215
-0.2
-0.215
-0.2
-0.18
-0.155
-0.13
-0.13
-0.125
-0.11
-0.095
-0.055
-0.035
-0.02
0.015
0.09
0.165
0.235
0.295
0.34
0.415
0.5
0.575
0.69
0.805
0.885
0.97
1.065
1.15
1.25
1.295
1.285
1.265
1.27
1.28
1.275
1.245
1.19
1.1
1.0
0.92
0.845
0.745
0.63
0.52
0.45
0.415
0.39
0.37
0.355
0.31
0.295
0.305
0.335
0.39
0.455
0.525
0.58
0.575
0.45
0.185
-0.1
-0.325
-0.415
-0.455
-0.465
-0.49
-0.53
-0.575
-0.59
-0.59
-0.6
-0.63
-0.625
-0.66
-0.685
-0.68
-0.69
-0.685
-0.695
-0.715
-0.73
-0.735
-0.72
-0.74
-0.76
-0.805
-0.82
-0.805
-0.81
-0.82
-0.84
-0.875
-0.875
-0.895
-0.895
-0.905
-0.935
-0.96
-0.95
-0.93
-0.915
-0.935
-0.955
-0.965
-0.955
-0.94
-0.93
-0.945
-0.95
-0.96
-0.945
-0.935
-0.915
-0.9
-0.92
-0.905
-0.9
-0.87
-0.85
-0.805
-0.79
-0.78
-0.76
-0.72
-0.685
-0.665
-0.65
-0.635
-0.605
-0.57
-0.535
-0.52
-0.505
-0.5
-0.5
-0.46
-0.425
-0.405
-0.405
-0.405
-0.39
-0.37
-0.36
-0.37
-0.365
-0.395
-0.37
-0.36
-0.335
-0.34
-0.34
-0.345
-0.355
-0.345
-0.325
-0.335
-0.36
-0.37
-0.36
-0.355
-0.34
-0.325
-0.35
-0.345
-0.335
-0.32
-0.3
-0.31
-0.305
-0.32
-0.33
-0.33
-0.305
-0.315
-0.325
-0.345
-0.33
-0.305
-0.28
-0.295
-0.305
-0.315
-0.315
-0.285
-0.27
-0.27
-0.27
-0.275
-0.275
-0.265
-0.235
-0.245
-0.25
-0.28
-0.285
-0.27
-0.265
-0.26
-0.25
-0.26
-0.27
-0.26
-0.24
-0.25
-0.265
-0.27
-0.265
-0.245
-0.235
-0.24
-0.24
-0.255
-0.26
-0.25
-0.24
-0.215
-0.225
-0.245
-0.24
-0.225
-0.21
-0.21
-0.235
-0.245
-0.245
-0.23
-0.215
-0.215
-0.255
-0.245
-0.26
-0.245
-0.215
-0.215
-0.22
-0.24
-0.23
-0.215
-0.2
-0.21
-0.235
-0.25
-0.245
-0.23
-0.21
-0.215
-0.235
-0.25
-0.26
-0.245
-0.235
-0.235
-0.245
-0.255
-0.24
-0.225
-0.2
-0.215
-0.225
-0.24
-0.23
-0.22
-0.21
-0.21
-0.22
-0.215
-0.215
-0.22
-0.21
-0.215
-0.21
-0.225
-0.22
-0.215
-0.19
-0.195
-0.195
-0.21
-0.215
-0.215
-0.215
-0.2
-0.195
-0.205
-0.215
-0.205
-0.2
-0.195
-0.21
-0.225
-0.23
-0.2
-0.205
-0.195
-0.205
-0.225
-0.225
-0.205
-0.19
-0.165
-0.135
-0.075
0.02
0.14
0.295
0.475
0.665
0.885
1.105
1.345
1.51
1.55
1.44
1.175
0.835
0.525
0.25
-0.055
-0.27
-0.34
-0.29
-0.195
-0.15
-0.135
-0.155
-0.19
-0.205
-0.215
-0.225
-0.245
-0.26
-0.275
-0.28
-0.28
-0.27
-0.275
-0.29
-0.29
-0.28
-0.265
-0.265
-0.3
-0.37
-0.42
-0.41
-0.375
-0.335
-0.305
-0.3
-0.31
-0.32
-0.335
-0.335
-0.36
-0.385
-0.375
-0.35
-0.32
-0.325
-0.365
-0.4
-0.42
-0.42
-0.37
-0.325
-0.31
-0.29
-0.25
-0.21
-0.195
-0.215
-0.275
-0.36
-0.42
-0.415
-0.39
-0.335
-0.315
-0.3
-0.28
-0.27
-0.265
-0.26
-0.26
-0.27
-0.265
-0.265
-0.245
-0.215
-0.2
-0.21
-0.22
-0.22
-0.195
-0.195
-0.19
-0.19
-0.205
-0.185
-0.16
-0.145
-0.14
-0.155
-0.155
-0.15
-0.135
-0.11
-0.1
-0.085
-0.075
-0.08
-0.08
-0.105
-0.15
-0.205
-0.225
-0.215
-0.205
-0.195
-0.175
-0.19
-0.205
-0.225
-0.21
-0.205
-0.23
-0.275
-0.31
-0.31
-0.295
-0.27
-0.26
-0.265
-0.28
-0.295
-0.305
-0.29
-0.295
-0.29
-0.29
-0.285
-0.23
-0.195
-0.19
-0.22
-0.255
-0.305
-0.315
-0.31
-0.305
-0.3
-0.295
-0.275
-0.26
-0.235
-0.245
-0.26
-0.27
-0.26
-0.23
-0.215
-0.225
-0.23
-0.24
-0.245
-0.23
-0.205
-0.225
-0.25
-0.255
-0.25
-0.235
-0.22
-0.22
-0.22
-0.23
-0.24
-0.23
-0.205
-0.21
-0.235
-0.265
-0.285
-0.27
-0.25
-0.24
-0.245
-0.245
-0.255
-0.255
-0.245
-0.24
-0.245
-0.27
-0.265
-0.255
-0.235
-0.235
-0.245
-0.23
-0.21
-0.185
-0.18
-0.22
-0.275
-0.28
-0.265
-0.235
-0.225
-0.24
-0.245
-0.26
-0.255
-0.23
-0.17
-0.11
-0.01
0.11
0.26
0.485
0.72
0.99
1.21
1.38
1.435
1.315
1.055
0.71
0.335
-0.03
-0.335
-0.46
-0.45
-0.375
-0.31
-0.285
-0.27
-0.245
-0.235
-0.25
-0.28
-0.29
-0.305
-0.285
-0.275
-0.32
-0.375
-0.435
-0.455
-0.425
-0.39
-0.38
-0.39
-0.395
-0.4
-0.395
-0.375
-0.365
-0.37
-0.39
-0.395
-0.39
-0.38
-0.385
-0.405
-0.415
-0.4
-0.39
-0.37
-0.36
-0.355
-0.355
-0.365
-0.365
-0.355
-0.355
-0.37
-0.38
-0.375
-0.38
-0.355
-0.34
-0.34
-0.345
-0.335
-0.34
-0.35
-0.355
-0.375
-0.385
-0.355
-0.335
-0.295
-0.3
-0.33
-0.345
-0.37
-0.34
-0.305
-0.3
-0.3
-0.34
-0.365
-0.33
-0.305
-0.28
-0.29
-0.31
-0.31
-0.29
-0.245
-0.23
-0.235
-0.255
-0.255
-0.225
-0.215
-0.23
-0.24
-0.23
-0.23
-0.205
-0.18
-0.165
-0.165
-0.19
-0.22
-0.245
-0.24
-0.26
-0.275
-0.295
-0.29
-0.28
-0.265
-0.29
-0.29
-0.315
-0.305
-0.295
-0.295
-0.31
-0.305
-0.305
-0.315
-0.325
-0.32
-0.315
-0.32
-0.32
-0.34
-0.305
-0.275
-0.255
-0.285
-0.33
-0.345
-0.32
-0.29
-0.28
-0.29
-0.29
-0.275
-0.25
-0.23
-0.26
-0.315
-0.34
-0.325
-0.29
-0.255
-0.26
-0.275
-0.285
-0.27
-0.255
-0.26
-0.29
-0.295
-0.28
-0.255
-0.265
-0.275
-0.285
-0.28
-0.28
-0.265
-0.265
-0.25
-0.255
-0.275
-0.295
-0.295
-0.29
-0.265
-0.26
-0.275
-0.28
-0.295
-0.27
-0.235
-0.21
-0.185
-0.19
-0.245
-0.325
-0.355
-0.365
-0.36
-0.335
-0.31
-0.29
-0.26
-0.265
-0.285
-0.305
-0.315
-0.31
-0.305
-0.305
-0.31
-0.31
-0.315
-0.295
-0.265
-0.265
-0.26
-0.275
-0.28
-0.27
-0.25
-0.26
-0.265
-0.27
-0.255
-0.245
-0.235
-0.225
-0.25
-0.27
-0.25
-0.22
-0.175
-0.12
-0.065
-0.01
0.11
0.295
0.48
0.68
0.885
1.09
1.3
1.44
1.44
1.235
0.875
0.465
0.085
-0.22
-0.405
-0.445
-0.415
-0.345
-0.305
-0.3
-0.305
-0.325
-0.34
-0.36
-0.375
-0.36
-0.365
-0.36
-0.36
-0.365
-0.345
-0.35
-0.34
-0.35
-0.355
-0.355
-0.36
-0.355
-0.34
-0.36
-0.37
-0.375
-0.365
-0.34
-0.325
-0.33
-0.35
-0.355
-0.355
-0.34
-0.32
-0.32
-0.355
-0.38
-0.37
-0.355
-0.325
-0.335
-0.345
-0.355
-0.345
-0.33
-0.31
-0.32
-0.305
-0.31
-0.32
-0.315
-0.3
-0.29
-0.285
-0.29
-0.275
-0.26
-0.23
-0.22
-0.255
-0.295
-0.34
-0.315
-0.27
-0.24
-0.255
-0.27
-0.275
-0.235
-0.22
-0.205
-0.2
-0.205
-0.195
-0.21
-0.195
-0.2
-0.21
-0.205
-0.195
-0.155
-0.13
-0.125
-0.155
-0.175
-0.175
-0.155
-0.13
-0.115
-0.115
-0.105
-0.11
-0.125
-0.125
-0.145
-0.16
-0.16
-0.15
-0.13
-0.115
-0.115
-0.1
-0.105
-0.105
-0.135
-0.145
-0.17
-0.185
-0.22
-0.265
-0.275
-0.27
-0.235
-0.22
-0.235
-0.225
-0.195
-0.18
-0.185
-0.2
-0.23
-0.22
-0.19
-0.18
-0.185
-0.21
-0.215
-0.2
-0.18
-0.17
-0.175
-0.17
-0.18
-0.18
-0.165
-0.165
-0.17
-0.185
-0.21
-0.21
-0.19
-0.17
-0.155
-0.15
-0.15
-0.155
-0.14
-0.125
-0.12
-0.135
-0.165
-0.16
-0.15
-0.13
-0.13
-0.145
-0.155
-0.165
-0.16
-0.145
-0.14
-0.13
-0.15
-0.15
-0.145
-0.15
-0.165
-0.175
-0.185
-0.18
-0.155
-0.13
-0.11
-0.1
-0.1
-0.12
-0.165
-0.17
-0.175
-0.175
-0.185
-0.175
-0.155
-0.155
-0.145
-0.175
-0.18
-0.18
-0.14
-0.135
-0.135
-0.14
-0.165
-0.16
-0.155
-0.12
-0.1
-0.12
-0.12
-0.13
-0.125
-0.1
-0.075
-0.04
0.005
0.09
0.195
0.36
0.545
0.745
0.935
1.155
1.37
1.54
1.585
1.5
1.28
0.955
0.6
0.275
-0.045
-0.27
-0.335
-0.32
-0.265
-0.19
-0.15
-0.155
-0.18
-0.2
-0.205
-0.21
-0.225
-0.235
-0.26
-0.26
-0.24
-0.235
-0.25
-0.265
-0.29
-0.315
-0.31
-0.285
-0.28
-0.28
-0.285
-0.28
-0.255
-0.235
-0.255
-0.28
-0.3
-0.305
-0.295
-0.29
-0.295
-0.305
-0.315
-0.3
-0.26
-0.2
-0.205
-0.225
-0.305
-0.355
-0.36
-0.33
-0.31
-0.325
-0.325
-0.31
-0.28
-0.235
-0.23
-0.25
-0.26
-0.265
-0.25
-0.23
-0.225
-0.245
-0.24
-0.235
-0.205
-0.19
-0.185
-0.2
-0.2
-0.18
-0.17
-0.145
-0.145
-0.17
-0.175
-0.175
-0.16
-0.15
-0.145
-0.16
-0.16
-0.155
-0.125
-0.135
-0.14
-0.15
-0.18
-0.165
-0.15
-0.11
-0.125
-0.125
-0.135
-0.14
-0.14
-0.135
-0.15
-0.16
-0.16
-0.155
-0.155
-0.135
-0.17
-0.18
-0.21
-0.215
-0.215
-0.195
-0.22
-0.24
-0.235
-0.24
-0.22
-0.22
-0.22
-0.23
-0.235
-0.23
-0.225
-0.225
-0.235
-0.245
-0.25
-0.24
-0.22
-0.21
-0.21
-0.225
-0.22
-0.215
-0.21
-0.21
-0.195
-0.195
-0.205
-0.23
-0.235
-0.235
-0.23
-0.23
-0.24
-0.245
-0.22
-0.205
-0.205
-0.22
-0.215
-0.22
-0.205
-0.185
-0.2
-0.205
-0.22
-0.225
-0.205
-0.19
-0.185
-0.21
-0.235
-0.235
-0.23
-0.205
-0.21
-0.195
-0.22
-0.21
-0.19
-0.175
-0.195
-0.215
-0.24
-0.22
-0.2
-0.195
-0.195
-0.21
-0.2
-0.195
-0.18
-0.175
-0.19
-0.195
-0.215
-0.205
-0.2
-0.19
-0.205
-0.205
-0.22
-0.22
-0.22
-0.19
-0.2
-0.21
-0.22
-0.22
-0.21
-0.19
-0.195
-0.225
-0.27
-0.28
-0.24
-0.21
-0.215
-0.23
-0.245
-0.245
-0.225
-0.205
-0.21
-0.22
-0.225
-0.24
-0.225
-0.21
-0.205
-0.215
-0.235
-0.235
-0.235
-0.19
-0.155
-0.12
-0.1
-0.05
-0.01
0.075
0.205
0.335
0.485
0.675
0.875
1.105
1.31
1.455
1.48
1.4
1.185
0.895
0.57
0.265
-0.03
-0.25
-0.355
-0.335
-0.3
-0.255
-0.24
-0.205
-0.18
-0.18
-0.22
-0.26
-0.275
-0.27
-0.26
-0.25
-0.26
-0.275
-0.3
-0.285
-0.275
-0.275
-0.275
-0.29
-0.32
-0.34
-0.37
-0.36
-0.365
-0.345
-0.35
-0.35
-0.335
-0.31
-0.32
-0.32
-0.33
-0.335
-0.33
-0.32
-0.32
-0.335
-0.33
-0.33
-0.325
-0.32
-0.32
-0.325
-0.335
-0.345
-0.345
-0.325
-0.34
-0.35
-0.345
-0.34
-0.305
-0.29
-0.29
-0.3
-0.315
-0.295
-0.295
-0.28
-0.28
-0.275
-0.285
-0.285
-0.29
-0.28
-0.27
-0.275
-0.27
-0.255
-0.23
-0.225
-0.23
-0.225
-0.23
-0.23
-0.205
-0.19
-0.19
-0.205
-0.2
-0.21
-0.2
-0.185
-0.18
-0.19
-0.19
-0.175
-0.16
-0.15
-0.15
-0.16
-0.16
-0.15
-0.13
-0.13
-0.125
-0.13
-0.13
-0.14
-0.14
-0.135
-0.145
-0.165
-0.175
-0.19
-0.195
-0.19
-0.2
-0.215
-0.25
-0.245
-0.245
-0.245
-0.255
-0.25
-0.24
-0.24
-0.225
-0.22
-0.2
-0.225
-0.235
-0.22
-0.21
-0.215
-0.235
-0.245
-0.255
-0.265
-0.255
-0.235
-0.23
-0.23
-0.215
-0.18
-0.17
-0.18
-0.18
-0.2
-0.21
-0.205
-0.195
-0.165
-0.165
-0.175
-0.195
-0.21
-0.225
-0.205
-0.2
-0.215
-0.21
-0.205
-0.19
-0.195
-0.2
-0.235
-0.23
-0.215
-0.2
-0.18
-0.185
-0.195
-0.22
-0.225
-0.215
-0.19
-0.2
-0.205
-0.215
-0.2
-0.19
-0.16
-0.175
-0.2
-0.235
-0.24
-0.215
-0.195
-0.195
-0.19
-0.2
-0.195
-0.18
-0.165
-0.195
-0.205
-0.22
-0.205
-0.205
-0.22
-0.23
-0.225
-0.215
-0.22
-0.22
-0.245
-0.26
-0.265
-0.245
-0.235
-0.23
-0.23
-0.235
-0.23
-0.24
-0.245
-0.255
-0.23
-0.225
-0.235
-0.24
-0.235
-0.235
-0.215
-0.22
-0.24
-0.255
-0.25
-0.22
-0.215
-0.22
-0.24
-0.25
-0.23
-0.17
-0.095
-0.04
0.005
0.09
0.22
0.39
0.59
0.81
1.035
1.255
1.47
1.61
1.635
1.485
1.205
0.855
0.5
0.145
-0.15
-0.36
-0.435
-0.4
-0.35
-0.29
-0.26
-0.24
-0.26
-0.28
-0.295
-0.285
-0.275
-0.285
-0.305
-0.325
-0.315
-0.315
-0.33
-0.35
-0.355
-0.35
-0.34
-0.315
-0.305
-0.305
-0.31
-0.335
-0.335
-0.34
-0.33
-0.335
-0.34
-0.355
-0.34
-0.315
-0.3
-0.335
-0.355
-0.365
-0.34
-0.315
-0.32
-0.34
-0.36
-0.355
-0.355
-0.335
-0.3
-0.31
-0.32
-0.345
-0.345
-0.35
-0.33
-0.33
-0.34
-0.335
-0.32
-0.29
-0.26
-0.26
-0.26
-0.275
-0.285
-0.25
-0.23
-0.225
-0.225
-0.23
-0.215
-0.175
-0.15
-0.15
-0.155
-0.18
-0.17
-0.14
-0.125
-0.14
-0.16
-0.15
-0.14
-0.12
-0.105
-0.11
-0.14
-0.145
-0.125
-0.095
-0.09
-0.09
-0.095
-0.1
-0.1
-0.09
-0.085
-0.105
-0.13
-0.135
-0.115
-0.105
-0.1
-0.12
-0.14
-0.125
-0.115
-0.11
-0.13
-0.16
-0.19
-0.225
-0.2
-0.17
-0.17
-0.19
-0.205
-0.225
-0.225
-0.21
-0.215
-0.22
-0.24
-0.245
-0.225
-0.195
-0.175
-0.175
-0.165
-0.165
-0.18
-0.19
-0.18
-0.175
-0.185
-0.215
-0.2
-0.18
-0.15
-0.18
-0.2
-0.19
-0.165
-0.135
-0.11
-0.115
-0.14
-0.205
-0.205
-0.18
-0.145
-0.14
-0.16
-0.18
-0.18
-0.16
-0.155
-0.135
-0.155
-0.15
-0.165
-0.145
-0.125
-0.115
-0.12
-0.14
-0.145
-0.155
-0.145
-0.155
-0.165
-0.18
-0.185
-0.16
-0.15
-0.175
-0.185
-0.18
-0.17
-0.16
-0.12
-0.13
-0.145
-0.155
-0.155
-0.135
-0.125
-0.135
-0.13
-0.13
-0.115
-0.11
-0.105
-0.115
-0.135
-0.145
-0.15
-0.15
-0.15
-0.145
-0.15
-0.145
-0.155
-0.145
-0.125
-0.13
-0.145
-0.15
-0.15
-0.145
-0.135
-0.135
-0.15
-0.14
-0.145
-0.145
-0.135
-0.15
-0.135
-0.13
-0.135
-0.125
-0.11
-0.11
-0.085
-0.05
-0.005
0.065
0.175
0.3
0.45
0.61
0.83
1.085
1.325
1.51
1.645
1.69
1.62
1.44
1.19
0.87
0.515
0.135
-0.185
-0.36
-0.4
-0.35
-0.29
-0.275
-0.24
-0.205
-0.19
-0.205
-0.245
-0.26
-0.265
-0.25
-0.25
-0.28
-0.275
-0.3
-0.27
-0.245
-0.235
-0.235
-0.26
-0.285
-0.285
-0.28
-0.245
-0.245
-0.25
-0.245
-0.245
-0.235
-0.245
-0.26
-0.275
-0.31
-0.28
-0.275
-0.25
-0.27
-0.295
-0.295
-0.29
-0.28
-0.285
-0.295
-0.3
-0.31
-0.3
-0.29
-0.265
-0.275
-0.29
-0.31
-0.295
-0.29
-0.265
-0.25
-0.255
-0.27
-0.23
-0.21
-0.19
-0.185
-0.19
-0.195
-0.175
-0.14
-0.12
-0.125
-0.115
-0.115
-0.08
-0.07
-0.05
-0.03
-0.035
-0.045
-0.05
-0.02
0.0
0.01
-0.01
-0.03
-0.025
-0.025
-0.005
-0.015
-0.015
-0.01
-0.005
0.005
0.005
-0.015
-0.035
-0.04
-0.045
-0.04
-0.035
-0.045
-0.065
-0.07
-0.075
-0.07
-0.09
-0.105
-0.115
-0.15
-0.17
-0.155
-0.135
-0.12
-0.145
-0.165
-0.16
-0.14
-0.125
-0.125
-0.145
-0.15
-0.16
-0.155
-0.14
-0.15
-0.15
-0.16
-0.165
-0.165
-0.13
-0.135
-0.155
-0.185
-0.165
-0.15
-0.15
-0.14
-0.135
-0.125
-0.115
-0.1
-0.085
-0.08
-0.07
-0.075
-0.065
-0.015
0.02
0.035
0.025
0.045
0.1
0.2
0.31
0.365
0.375
0.36
0.38
0.445
0.55
0.645
0.7
0.77
0.865
0.985
1.1
1.185
1.245
1.275
1.285
1.29
1.305
1.295
1.265
1.235
1.195
1.165
1.1
1.0
0.89
0.78
0.67
0.57
0.5
0.43
0.38
0.315
0.315
0.315
0.31
0.28
0.28
0.305
0.37
0.46
0.58
0.635
0.615
0.475
0.265
0.015
-0.17
-0.315
-0.435
-0.495
-0.51
-0.5
-0.495
-0.525
-0.56
-0.595
-0.62
-0.625
-0.635
-0.665
-0.68
-0.69
-0.685
-0.675
-0.665
-0.68
-0.705
-0.725
-0.725
-0.7
-0.705
-0.715
-0.735
-0.755
-0.785
-0.815
-0.805
-0.79
-0.755
-0.775
-0.82
-0.86
-0.875
-0.875
-0.885
-0.89
-0.89
-0.885
-0.91
-0.94
-0.94
-0.94
-0.92
-0.92
-0.9
-0.9
-0.9
-0.89
-0.875
-0.86
-0.81
-0.79
-0.78
-0.775
-0.75
-0.72
-0.68
-0.655
-0.645
-0.62
-0.58
-0.525
-0.49
-0.47
-0.44
-0.425
-0.41
-0.395
-0.355
-0.345
-0.33
-0.33
-0.3
-0.27
-0.25
-0.255
-0.285
-0.29
-0.28
-0.24
-0.235
-0.255
-0.29
-0.325
-0.315
-0.28
-0.26
-0.275
-0.305
-0.325
-0.315
-0.32
-0.305
-0.29
-0.31
-0.305
-0.3
-0.275
-0.26
-0.25
-0.29
-0.31
-0.31
-0.295
-0.275
-0.26
-0.28
-0.285
-0.275
-0.265
-0.26
-0.27
-0.27
-0.25
-0.245
-0.245
-0.23
-0.25
-0.235
-0.24
-0.25
-0.225
-0.21
-0.23
-0.24
-0.26
-0.235
-0.22
-0.2
-0.205
-0.23
-0.22
-0.19
-0.18
-0.185
-0.21
-0.23
-0.23
-0.2
-0.185
-0.165
-0.165
-0.195
-0.23
-0.245
-0.225
-0.205
-0.215
-0.23
-0.235
-0.23
-0.215
-0.2
-0.215
-0.235
-0.23
-0.21
-0.18
-0.185
-0.195
-0.205
-0.22
-0.225
-0.205
-0.17
-0.175
-0.18
-0.2
-0.2
-0.19
-0.17
-0.19
-0.22
-0.245
-0.205
-0.19
-0.175
-0.195
-0.19
-0.2
-0.185
-0.17
-0.16
-0.175
-0.195
-0.205
-0.2
-0.2
-0.175
-0.18
-0.165
-0.185
-0.2
-0.165
-0.125
-0.135
-0.17
-0.225
-0.235
-0.2
-0.165
-0.155
-0.19
-0.19
-0.185
-0.165
-0.155
-0.175
-0.195
-0.21
-0.185
-0.16
-0.15
-0.155
-0.155
-0.14
-0.105
-0.05
0.025
0.105
0.2
0.355
0.54
0.75
0.97
1.195
1.365
1.455
1.44
1.305
1.075
0.76
0.42
0.065
-0.23
-0.395
-0.385
-0.31
-0.265
-0.235
-0.2
-0.185
-0.17
