Lead II
-0.065
-0.07
-0.09
-0.1
-0.105
-0.115
-0.12
-0.115
-0.115
-0.115
-0.115
-0.12
-0.135
-0.14
-0.16
-0.175
-0.175
-0.175
-0.18
-0.185
-0.175
-0.17
-0.165
-0.175
-0.175
-0.18
-0.19
-0.185
-0.2
-0.185
-0.18
-0.16
-0.15
-0.135
-0.125
-0.13
-0.12
-0.13
-0.12
-0.125
-0.115
-0.11
-0.09
-0.075
-0.05
-0.035
-0.015
-0.01
0.005
0.01
0.025
0.035
0.045
0.055
0.075
0.09
0.1
0.115
0.125
0.135
0.145
0.14
0.14
0.14
0.145
0.15
0.15
0.155
0.17
0.165
0.175
0.145
0.15
0.13
0.12
0.105
0.095
0.09
0.09
0.08
0.085
0.075
0.07
0.06
0.055
0.045
0.035
0.02
0.01
0.01
0.005
0.02
0.015
0.025
0.015
0.01
0.005
-0.005
-0.015
-0.03
-0.02
-0.02
-0.01
0.0
-0.01
0.015
0.015
0.02
0.005
-0.005
-0.005
-0.005
-0.01
-0.01
0.0
0.005
0.01
0.025
0.025
0.025
0.025
0.025
0.01
0.005
0.0
0.005
0.02
0.01
0.02
0.03
0.03
0.045
0.04
0.035
0.03
0.01
0.01
0.01
0.02
0.02
0.025
0.025
0.04
0.04
0.035
0.03
0.02
0.005
0.01
0.005
0.01
0.015
0.02
0.025
0.035
0.045
0.035
0.02
0.03
0.015
0.015
0.015
0.02
0.015
0.01
0.02
0.02
0.02
0.03
0.015
0.01
0.01
0.015
0.01
0.015
0.02
0.02
0.04
0.025
0.02
0.02
0.02
0.015
0.0
0.0
0.005
0.01
0.01
0.01
0.01
0.02
0.0
0.0
0.005
0.0
-0.005
-0.015
0.0
0.0
0.0
0.01
0.02
0.03
0.025
0.015
0.01
0.01
-0.015
-0.01
-0.01
0.0
0.0
0.005
0.005
0.015
0.005
0.005
-0.025
-0.015
-0.03
-0.015
-0.02
-0.025
-0.02
-0.01
-0.015
-0.015
-0.02
-0.02
-0.025
-0.035
-0.04
-0.035
-0.035
-0.025
-0.025
-0.025
-0.02
-0.02
-0.02
-0.015
-0.025
-0.035
-0.04
-0.04
-0.045
-0.035
-0.04
-0.045
-0.025
-0.03
-0.03
-0.045
-0.05
-0.06
-0.065
-0.065
-0.065
-0.065
-0.06
-0.065
-0.05
-0.05
-0.06
-0.055
-0.055
-0.06
-0.075
-0.085
-0.08
-0.08
-0.07
-0.065
-0.07
-0.045
-0.055
-0.075
-0.065
-0.07
-0.08
-0.075
-0.075
-0.065
-0.055
-0.055
-0.05
-0.045
-0.055
-0.06
-0.065
-0.075
-0.075
-0.09
-0.075
-0.055
-0.04
-0.03
-0.025
-0.01
-0.01
-0.03
-0.05
-0.07
-0.08
-0.085
-0.08
-0.105
-0.105
-0.085
-0.075
-0.07
-0.055
-0.045
-0.05
-0.05
-0.065
-0.08
-0.085
-0.09
-0.11
-0.125
-0.13
-0.135
-0.165
-0.165
-0.175
-0.18
-0.185
-0.185
-0.185
-0.17
-0.175
-0.165
-0.165
-0.165
-0.185
-0.19
-0.225
-0.225
-0.18
-0.115
-0.035
0.055
0.125
0.17
0.195
0.17
0.09
-0.05
-0.18
-0.27
-0.27
-0.165
0.035
0.27
0.52
0.75
0.955
1.145
1.31
1.455
1.58
1.645
1.67
1.645
1.57
1.48
1.315
1.11
0.885
0.695
0.485
0.265
0.04
-0.16
-0.32
-0.445
-0.515
-0.53
-0.52
-0.495
-0.47
-0.435
-0.41
-0.39
-0.385
-0.39
-0.385
-0.39
-0.39
-0.385
-0.39
-0.385
-0.38
-0.375
-0.38
-0.395
-0.4
-0.405
-0.415
-0.41
-0.41
-0.42
-0.42
-0.415
-0.405
-0.4
-0.41
-0.42
-0.435
-0.435
-0.44
-0.445
-0.45
-0.46
-0.45
-0.445
-0.44
-0.45
-0.455
-0.45
-0.455
-0.465
-0.475
-0.49
-0.495
-0.48
-0.495
-0.495
-0.5
-0.495
-0.515
-0.52
-0.53
-0.53
-0.54
-0.555
-0.55
-0.55
-0.55
-0.55
-0.55
-0.55
-0.57
-0.58
-0.6
-0.61
-0.625
-0.65
-0.645
-0.635
-0.63
-0.625
-0.63
-0.63
-0.645
-0.645
-0.655
-0.68
-0.695
-0.7
-0.695
-0.705
-0.7
-0.7
-0.685
-0.67
-0.675
-0.67
-0.675
-0.675
-0.68
-0.68
-0.675
-0.655
-0.645
-0.635
-0.615
-0.62
-0.595
-0.58
-0.58
-0.575
-0.56
-0.55
-0.535
-0.53
-0.5
-0.48
-0.48
-0.455
-0.445
-0.43
-0.43
-0.425
-0.415
-0.415
-0.405
-0.4
-0.385
-0.37
-0.36
-0.36
-0.365
-0.36
-0.375
-0.385
-0.39
-0.395
-0.39
-0.395
-0.395
-0.4
-0.41
-0.425
-0.435
-0.45
-0.465
-0.485
-0.5
-0.505
-0.52
-0.53
-0.535
-0.54
-0.55
-0.545
-0.56
-0.57
-0.575
-0.59
-0.605
-0.605
-0.61
-0.61
-0.605
-0.595
-0.585
-0.58
-0.58
-0.59
-0.585
-0.59
-0.59
-0.595
-0.61
-0.595
-0.595
-0.59
-0.575
-0.57
-0.57
-0.575
-0.58
-0.575
-0.58
-0.58
-0.59
-0.59
-0.58
-0.565
-0.56
-0.56
-0.555
-0.55
-0.565
-0.57
-0.58
-0.57
-0.565
-0.575
-0.56
-0.56
-0.545
-0.55
-0.555
-0.555
-0.565
-0.575
-0.565
-0.575
-0.565
-0.57
-0.56
-0.555
-0.56
-0.555
-0.56
-0.56
-0.56
-0.565
-0.575
-0.58
-0.595
-0.6
-0.595
-0.585
-0.575
-0.57
-0.575
-0.57
-0.58
-0.595
-0.585
-0.59
-0.6
-0.58
-0.58
-0.575
-0.575
-0.57
-0.56
-0.57
-0.58
-0.585
-0.6
-0.6
-0.61
-0.605
-0.61
-0.61
-0.59
-0.585
-0.585
-0.585
-0.605
-0.605
-0.605
-0.615
-0.61
-0.615
-0.605
-0.605
-0.6
-0.585
-0.6
-0.605
-0.61
-0.625
-0.63
-0.635
-0.64
-0.64
-0.635
-0.635
-0.61
-0.605
-0.61
-0.615
-0.625
-0.63
-0.645
-0.645
-0.64
-0.64
-0.635
-0.62
-0.62
-0.62
-0.62
-0.625
-0.625
-0.635
-0.64
-0.65
-0.635
-0.645
-0.65
-0.635
-0.64
-0.63
-0.63
-0.63
-0.645
-0.66
-0.675
-0.67
-0.67
-0.67
-0.665
-0.675
-0.67
-0.66
-0.665
-0.655
-0.665
-0.67
-0.67
-0.68
-0.675
-0.665
-0.67
-0.665
-0.67
-0.67
-0.66
-0.67
-0.675
-0.685
-0.685
-0.675
-0.69
-0.685
-0.685
-0.68
-0.685
-0.67
-0.67
-0.685
-0.685
-0.7
-0.7
-0.695
-0.69
-0.69
-0.685
-0.68
-0.675
-0.665
-0.665
-0.675
-0.675
-0.685
-0.675
-0.675
-0.68
-0.69
-0.685
-0.68
-0.68
-0.675
-0.66
-0.645
-0.66
-0.655
-0.66
-0.665
-0.675
-0.67
-0.67
-0.67
-0.655
-0.655
-0.655
-0.66
-0.675
-0.675
-0.68
-0.665
-0.66
-0.65
-0.645
-0.645
-0.645
-0.665
-0.68
-0.7
-0.74
-0.745
-0.76
-0.745
-0.75
-0.75
-0.74
-0.74
-0.75
-0.74
-0.745
-0.765
-0.78
-0.79
-0.805
-0.805
-0.785
-0.755
-0.71
-0.605
-0.505
-0.425
-0.38
-0.355
-0.39
-0.47
-0.615
-0.77
-0.895
-0.94
-0.895
-0.735
-0.525
-0.295
-0.04
0.18
0.395
0.6
0.775
0.925
1.055
1.13
1.16
1.145
1.095
0.98
0.78
0.565
0.32
0.075
-0.19
-0.44
-0.67
-0.85
-0.955
-1.01
-1.035
-1.03
-1.01
-1.0
-0.98
-0.96
-0.955
-0.96
-0.945
-0.94
-0.925
-0.925
-0.925
-0.92
-0.935
-0.935
-0.94
-0.95
-0.955
-0.965
-0.955
-0.95
-0.945
-0.945
-0.925
-0.92
-0.935
-0.93
-0.945
-0.945
-0.955
-0.965
-0.965
-0.96
-0.96
-0.955
-0.95
-0.94
-0.955
-0.955
-0.98
-0.975
-1.0
-1.005
-1.0
-0.99
-0.98
-0.995
-0.985
-0.98
-0.99
-0.995
-1.0
-1.03
-1.03
-1.025
-1.05
-1.04
-1.03
-1.035
-1.035
-1.04
-1.045
-1.05
-1.065
-1.07
-1.085
-1.1
-1.105
-1.11
-1.105
-1.105
-1.105
-1.1
-1.115
-1.115
-1.14
-1.135
-1.155
-1.165
-1.15
-1.16
-1.15
-1.14
-1.14
-1.13
-1.135
-1.14
-1.155
-1.145
-1.145
-1.145
-1.15
-1.125
-1.11
-1.08
-1.065
-1.05
-1.045
-1.04
-1.015
-1.025
-1.015
-1.01
-0.99
-0.97
-0.97
-0.95
-0.935
-0.91
-0.89
-0.87
-0.875
-0.865
-0.87
-0.875
-0.85
-0.845
-0.835
-0.825
-0.82
-0.8
-0.805
-0.82
-0.835
-0.825
-0.845
-0.845
-0.86
-0.855
-0.865
-0.865
-0.87
-0.88
-0.895
-0.915
-0.935
-0.96
-0.985
-0.985
-1.005
-0.995
-1.0
-1.005
-0.995
-0.995
-1.005
-1.03
-1.03
-1.04
-1.04
-1.05
-1.065
-1.04
-1.045
-1.05
-1.02
-1.015
-1.02
-1.03
-1.025
-1.05
-1.055
-1.045
-1.04
-1.03
-1.04
-1.02
-1.0
-0.99
-1.0
-1.005
-1.01
-1.02
-1.015
-1.01
-1.015
-1.02
-1.005
-1.0
-0.985
-0.98
-0.975
-0.97
-0.97
-0.985
-0.98
-0.99
-1.0
-0.99
-0.99
-0.985
-0.975
-0.97
-0.97
-0.975
-0.975
-0.975
-0.99
-0.99
-1.0
-1.0
-0.995
-0.985
-0.97
-0.965
-0.965
-0.975
-0.98
-0.985
-0.98
-0.995
-1.0
-0.99
-0.995
-0.985
-0.98
-0.965
-0.95
-0.96
-0.97
-0.99
-0.985
-0.985
-0.99
-0.99
-0.985
-0.965
-0.965
-0.965
-0.97
-0.97
-0.975
-0.985
-0.985
-0.985
-0.985
-0.985
-0.985
-0.965
-0.955
-0.955
-0.965
-0.965
-0.965
-0.975
-0.985
-0.995
-0.99
-0.985
-0.985
-0.975
-0.97
-0.96
-0.965
-0.97
-0.975
-0.985
-0.99
-0.99
-1.0
-0.98
-0.99
-0.99
-0.99
-0.975
-0.98
-0.975
-0.985
-0.99
-1.0
-1.0
-1.005
-1.0
-1.0
-0.99
-0.98
-0.985
-0.975
-0.975
-0.98
-0.995
-1.0
-1.01
-1.015
-1.005
-1.005
-1.0
-0.99
-0.985
-0.99
-0.99
-1.005
-1.02
-1.005
-1.02
-1.025
-1.035
-1.03
-1.01
-1.0
-1.0
-1.005
-1.01
-1.01
-1.02
-1.03
-1.035
-1.035
-1.035
-1.035
-1.02
-1.0
-0.995
-1.005
-1.01
-1.015
-1.03
-1.035
-1.04
-1.03
-1.04
-1.035
-1.025
-1.015
-0.995
-1.005
-1.005
-1.005
-1.0
-1.005
-1.0
-1.0
-1.0
-1.025
-1.02
-1.015
-1.005
-0.99
-0.985
-0.99
-0.98
-0.975
-0.97
-0.965
-0.97
-0.96
-0.96
-0.965
-0.975
-0.975
-0.985
-0.99
-1.005
-1.005
-1.005
-1.01
-1.005
-0.98
-0.97
-0.955
-0.95
-0.945
-0.955
-0.985
-1.015
-1.035
-1.045
-1.06
-1.07
-1.07
-1.08
-1.065
-1.055
-1.055
-1.045
-1.05
-1.055
-1.065
-1.075
-1.09
-1.095
-1.095
-1.085
-1.045
-0.995
-0.92
-0.84
-0.755
-0.7
-0.665
-0.66
-0.71
-0.8
-0.95
-1.07
-1.15
-1.14
-1.035
-0.815
-0.59
-0.34
-0.11
0.105
0.325
0.52
0.71
0.87
0.975
1.035
1.02
0.96
0.855
0.71
0.52
0.32
0.12
-0.09
-0.295
-0.535
-0.755
-0.96
-1.135
-1.26
-1.335
-1.36
-1.36
-1.33
-1.3
-1.255
-1.24
-1.215
-1.205
-1.19
-1.2
-1.205
-1.215
-1.22
-1.22
-1.235
-1.235
-1.255
-1.24
-1.23
-1.215
-1.22
-1.23
-1.22
-1.225
-1.24
-1.25
-1.255
-1.245
-1.25
-1.235
-1.225
-1.24
-1.22
-1.23
-1.23
-1.23
-1.245
-1.27
-1.265
-1.265
-1.275
-1.27
-1.255
-1.26
-1.255
-1.27
-1.27
-1.275
-1.285
-1.3
-1.3
-1.31
-1.31
-1.315
-1.315
-1.3
-1.31
-1.31
-1.32
-1.335
-1.345
-1.35
-1.355
-1.37
-1.375
-1.365
-1.36
-1.365
-1.36
-1.38
-1.385
-1.39
-1.41
-1.42
-1.425
-1.435
-1.43
-1.43
-1.435
-1.425
-1.43
-1.425
-1.445
-1.44
-1.44
-1.445
-1.44
-1.45
-1.425
-1.425
-1.41
-1.4
-1.375
-1.375
-1.365
-1.355
-1.355
-1.35
-1.35
-1.32
-1.3
-1.285
-1.27
-1.245
-1.225
-1.21
-1.21
-1.205
-1.205
-1.185
-1.18
-1.17
-1.145
-1.145
-1.115
-1.095
-1.085
-1.06
-1.07
-1.085
-1.085
-1.085
-1.09
-1.085
-1.09
-1.08
-1.08
-1.075
-1.065
-1.07
-1.085
-1.11
-1.12
-1.13
-1.14
-1.15
-1.15
-1.16
-1.165
-1.16
-1.16
-1.17
-1.18
-1.19
-1.205
-1.225
-1.225
-1.23
-1.24
-1.23
-1.225
-1.22
-1.215
-1.215
-1.22
-1.225
-1.225
-1.235
-1.24
-1.23
-1.235
-1.215
-1.215
-1.205
-1.21
-1.205
-1.22
-1.205
-1.215
-1.225
-1.225
-1.23
-1.225
-1.22
-1.21
-1.21
-1.18
-1.18
-1.185
-1.18
-1.185
-1.185
-1.185
-1.195
-1.19
-1.185
-1.175
-1.175
-1.155
-1.155
-1.15
-1.16
-1.165
-1.165
-1.18
-1.19
-1.185
-1.175
-1.16
-1.16
-1.155
-1.155
-1.15
-1.14
-1.165
-1.17
-1.165
-1.155
-1.165
-1.145
-1.15
-1.15
-1.14
-1.145
-1.14
-1.13
-1.135
-1.135
-1.14
-1.155
-1.145
-1.155
-1.15
-1.16
-1.145
-1.13
-1.135
-1.135
-1.13
-1.14
-1.155
-1.16
-1.15
-1.145
-1.14
-1.14
-1.125
-1.11
-1.115
-1.115
-1.115
-1.125
-1.135
-1.13
-1.135
-1.13
-1.125
-1.125
-1.11
-1.105
-1.105
-1.105
-1.11
-1.115
-1.125
-1.125
-1.125
-1.11
-1.11
-1.1
-1.105
-1.105
-1.105
-1.11
-1.125
-1.12
-1.12
-1.125
-1.12
-1.11
-1.11
-1.1
-1.095
-1.095
-1.1
-1.1
-1.105
-1.105
-1.12
-1.11
-1.11
-1.105
-1.095
-1.095
-1.09
-1.09
-1.095
-1.1
-1.09
-1.11
-1.115
-1.11
-1.11
-1.1
-1.085
-1.08
-1.08
-1.08
-1.085
-1.1
-1.105
-1.105
-1.11
-1.115
-1.11
-1.095
-1.1
-1.105
-1.09
-1.09
-1.085
-1.08
-1.1
-1.1
-1.1
-1.1
-1.1
-1.095
-1.085
-1.085
-1.075
-1.075
-1.075
-1.085
-1.09
-1.1
-1.095
-1.09
-1.085
-1.085
-1.085
-1.075
-1.065
-1.075
-1.07
-1.075
-1.075
-1.09
-1.09
-1.105
-1.095
-1.085
-1.085
-1.095
-1.08
-1.09
-1.075
-1.08
-1.09
-1.09
-1.09
-1.085
-1.09
-1.075
-1.06
-1.05
-1.045
-1.055
-1.055
-1.065
-1.07
-1.07
-1.065
-1.045
-1.04
-1.03
-1.02
-1.005
-1.0
-1.01
-1.015
-1.04
-1.045
-1.06
-1.065
-1.06
-1.065
-1.05
-1.045
-1.035
-1.015
-0.995
-0.99
-0.995
-1.01
-1.03
-1.05
-1.08
-1.09
-1.1
-1.095
-1.1
-1.09
-1.105
-1.105
-1.11
-1.11
-1.125
-1.115
-1.125
-1.105
-1.11
-1.115
-1.105
-1.105
-1.115
-1.12
-1.105
-1.055
-0.975
-0.88
-0.81
-0.74
-0.705
-0.7
-0.77
-0.885
-1.03
-1.145
-1.18
-1.075
-0.875
-0.605
-0.335
-0.065
0.2
0.435
0.645
0.83
0.97
1.055
1.065
1.045
0.97
0.855
0.7
0.5
0.29
0.07
-0.15
-0.38
-0.635
-0.87
-1.11
-1.285
-1.385
-1.42
-1.415
-1.37
-1.33
-1.295
-1.26
-1.24
-1.24
-1.235
-1.225
-1.235
-1.25
-1.255
-1.255
-1.26
-1.25
-1.245
-1.235
-1.245
-1.245
-1.255
-1.255
-1.255
-1.255
-1.255
-1.27
-1.26
-1.26
-1.25
-1.255
-1.245
-1.255
-1.265
-1.265
-1.265
-1.28
-1.28
-1.28
-1.27
-1.28
-1.28
-1.27
-1.265
-1.27
-1.26
-1.27
-1.28
-1.285
-1.29
-1.295
-1.31
-1.305
-1.3
-1.3
-1.28
-1.295
-1.305
-1.31
-1.32
-1.325
-1.335
-1.345
-1.345
-1.35
-1.335
-1.335
-1.34
-1.34
-1.35
-1.355
-1.37
-1.39
-1.4
-1.395
-1.41
-1.39
-1.385
-1.39
-1.39
-1.4
-1.405
-1.415
-1.405
-1.415
-1.42
-1.42
-1.43
-1.41
-1.39
-1.38
-1.365
-1.355
-1.36
-1.35
-1.34
-1.34
-1.33
-1.33
-1.3
-1.28
-1.27
-1.245
-1.23
-1.22
-1.22
-1.205
-1.205
-1.2
-1.185
-1.175
-1.16
-1.135
-1.115
-1.095
-1.085
-1.075
-1.07
-1.08
-1.085
-1.085
-1.085
-1.07
-1.06
-1.07
-1.06
-1.055
-1.055
-1.055
-1.065
-1.07
-1.095
-1.115
-1.115
-1.13
-1.14
-1.15
-1.15
-1.155
-1.15
-1.175
-1.19
-1.21
-1.225
-1.23
-1.24
-1.26
-1.255
-1.26
-1.25
-1.24
-1.24
-1.24
-1.25
-1.245
-1.26
-1.26
-1.265
-1.255
-1.265
-1.26
-1.25
-1.235
-1.235
-1.23
-1.23
-1.225
-1.245
-1.24
-1.235
-1.23
-1.225
-1.22
-1.205
-1.185
-1.185
-1.185
-1.2
-1.19
-1.2
-1.2
-1.205
-1.205
-1.195
-1.19
-1.18
-1.175
-1.165
-1.16
-1.16
-1.165
-1.175
-1.185
-1.19
-1.19
-1.175
-1.18
-1.155
-1.15
-1.15
-1.15
-1.16
-1.165
-1.165
-1.165
-1.17
-1.18
-1.18
-1.17
-1.17
-1.165
-1.15
-1.155
-1.15
-1.155
-1.155
-1.16
-1.155
-1.16
-1.16
-1.145
-1.14
-1.14
-1.13
-1.13
-1.155
-1.145
-1.145
-1.15
-1.16
-1.16
-1.15
-1.145
-1.155
-1.14
-1.13
-1.12
-1.13
-1.135
-1.145
-1.15
-1.15
-1.15
-1.145
-1.135
-1.13
-1.135
-1.125
-1.115
-1.13
-1.14
-1.145
-1.135
-1.14
-1.14
-1.14
-1.14
-1.135
-1.13
-1.115
-1.115
-1.13
-1.135
-1.135
-1.14
-1.14
-1.15
-1.155
-1.14
-1.12
-1.125
-1.12
-1.12
-1.125
-1.13
-1.14
-1.13
-1.125
-1.135
-1.14
-1.14
-1.13
-1.115
-1.125
-1.12
-1.13
-1.12
-1.13
-1.14
-1.13
-1.14
-1.135
-1.12
-1.13
-1.115
-1.105
-1.1
-1.11
-1.12
-1.145
-1.155
-1.15
-1.15
-1.135
-1.135
-1.125
-1.13
-1.12
-1.12
-1.125
-1.145
-1.13
-1.135
-1.13
-1.135
-1.13
-1.12
-1.11
-1.11
-1.095
-1.1
-1.095
-1.105
-1.115
-1.135
-1.135
-1.14
-1.13
-1.12
-1.115
-1.11
-1.09
-1.095
-1.1
-1.11
-1.12
-1.115
-1.115
-1.12
-1.125
-1.125
-1.12
-1.11
-1.095
-1.095
-1.1
-1.09
-1.085
-1.09
-1.09
-1.105
-1.105
-1.115
-1.105
-1.095
-1.07
-1.075
-1.055
-1.05
-1.06
-1.055
-1.05
-1.045
-1.05
-1.06
-1.065
-1.075
-1.065
-1.055
-1.075
-1.065
-1.065
-1.065
-1.055
-1.045
-1.035
-1.025
-1.025
-1.03
-1.045
-1.05
-1.055
-1.055
-1.065
-1.095
-1.125
-1.125
-1.13
-1.125
-1.12
-1.11
-1.105
-1.1
-1.105
-1.1
-1.11
-1.115
-1.115
-1.125
-1.12
-1.12
-1.125
-1.135
-1.12
-1.115
-1.05
-0.99
-0.905
-0.825
-0.75
-0.705
-0.69
-0.715
-0.805
-0.955
-1.11
-1.225
-1.255
-1.145
-0.965
-0.73
-0.49
-0.255
-0.02
0.195
0.395
0.575
0.72
0.825
0.865
0.87
0.83
0.765
0.67
0.54
0.35
0.13
-0.1
-0.35
-0.61
-0.865
-1.075
-1.235
-1.325
-1.365
-1.355
-1.33
-1.3
-1.26
-1.24
-1.215
-1.195
-1.18
-1.19
-1.19
-1.205
-1.2
-1.205
-1.215
-1.22
-1.22
-1.2
-1.19
-1.185
-1.18
-1.19
-1.215
-1.225
-1.215
-1.215
-1.225
-1.22
-1.21
-1.2
-1.19
-1.185
-1.185
-1.195
-1.2
-1.205
-1.205
-1.215
-1.22
-1.215
-1.22
-1.205
-1.2
-1.19
-1.2
-1.2
-1.22
-1.22
-1.23
-1.24
-1.245
-1.245
-1.24
-1.23
-1.235
-1.24
-1.225
-1.23
-1.24
-1.245
-1.25
-1.26
-1.275
-1.275
-1.275
-1.275
-1.27
-1.25
-1.26
-1.27
-1.275
-1.285
-1.295
-1.31
-1.32
-1.33
-1.325
-1.325
-1.32
-1.305
-1.3
-1.31
-1.32
-1.33
-1.33
-1.34
-1.335
-1.33
-1.335
-1.32
-1.315
-1.305
-1.295
-1.28
-1.275
-1.29
-1.28
-1.28
-1.265
-1.26
-1.245
-1.225
-1.205
-1.19
-1.17
-1.155
-1.15
-1.135
-1.115
-1.105
-1.1
-1.09
-1.065
-1.04
-1.03
-0.995
-0.995
-0.99
-0.97
-0.97
-0.98
-0.98
-0.975
-0.975
-0.965
-0.96
-0.96
-0.96
-0.95
-0.98
-0.985
-1.01
-1.02
-1.03
-1.03
-1.05
-1.055
-1.065
-1.06
-1.045
-1.06
-1.08
-1.08
-1.105
-1.11
-1.12
-1.12
-1.125
-1.12
-1.11
-1.11
-1.105
-1.11
-1.11
-1.11
-1.125
-1.12
-1.125
-1.13
-1.125
-1.115
-1.11
-1.11
-1.09
-1.09
-1.095
-1.09
-1.1
-1.1
-1.115
-1.105
-1.115
-1.095
-1.08
-1.1
-1.065
-1.07
-1.065
-1.07
-1.065
-1.09
-1.085
-1.08
-1.08
-1.065
-1.055
-1.055
-1.035
-1.025
-1.025
-1.03
-1.045
-1.045
-1.06
-1.055
-1.05
-1.05
-1.035
-1.035
-1.01
-1.02
-1.02
-1.02
-1.03
-1.03
-1.035
-1.04
-1.04
-1.04
-1.045
-1.025
-1.01
-1.01
-1.01
-1.01
-1.015
-1.02
-1.035
-1.025
-1.04
-1.03
-1.025
-1.015
-0.99
-0.99
-0.99
-0.985
-1.0
-1.005
-1.015
-1.015
-1.01
-1.015
-0.995
-0.98
-0.98
-0.97
-0.97
-0.98
-0.99
-0.985
-0.995
-0.995
-1.0
-0.99
-0.975
-0.965
-0.975
-0.96
-0.965
-0.975
-0.98
-0.99
-0.99
-0.985
-0.99
-0.98
-0.99
-0.98
-0.97
-0.965
-0.965
-0.975
-0.97
-0.98
-0.975
-0.975
-0.975
-0.975
-0.965
-0.95
-0.94
-0.96
-0.96
-0.965
-0.97
-0.98
-0.985
-0.975
-0.965
-0.97
-0.975
-0.955
-0.945
-0.94
-0.94
-0.94
-0.95
-0.95
-0.96
-0.96
-0.96
-0.955
-0.955
-0.95
-0.935
-0.935
-0.945
-0.945
-0.945
-0.95
-0.955
-0.95
-0.95
-0.95
-0.95
-0.94
-0.945
-0.945
-0.945
-0.95
-0.955
-0.96
-0.95
-0.96
-0.955
-0.95
-0.94
-0.935
-0.94
-0.92
-0.935
-0.925
-0.95
-0.96
-0.965
-0.955
-0.955
-0.95
-0.945
-0.945
-0.93
-0.935
-0.935
-0.945
-0.94
-0.94
-0.955
-0.945
-0.95
-0.925
-0.915
-0.92
-0.905
-0.895
-0.92
-0.915
-0.925
-0.94
-0.94
-0.925
-0.9
-0.895
-0.89
-0.885
-0.86
-0.87
-0.865
-0.885
-0.905
-0.915
-0.93
-0.935
-0.935
-0.93
-0.915
-0.92
-0.91
-0.9
-0.88
-0.865
-0.865
-0.87
-0.885
-0.89
-0.9
-0.91
-0.92
-0.93
-0.945
-0.945
-0.965
-0.97
-0.96
-0.97
-0.97
-0.995
-0.98
-0.975
-0.97
-0.965
-0.965
-0.96
-0.975
-0.995
-0.99
-0.955
-0.875
-0.78
-0.695
-0.61
-0.555
-0.535
-0.6
-0.73
-0.89
-1.0
-1.01
-0.885
-0.66
-0.375
-0.06
0.23
0.515
0.765
0.98
1.125
1.205
1.23
1.17
1.065
0.92
0.73
0.495
0.26
0.04
-0.175
-0.405
-0.64
-0.855
-1.02
-1.15
-1.23
-1.245
-1.245
-1.205
-1.16
-1.14
-1.115
-1.09
-1.08
-1.085
-1.095
-1.105
-1.105
-1.125
-1.13
-1.13
-1.11
-1.11
-1.105
-1.1
-1.095
-1.1
-1.105
-1.115
-1.105
-1.105
-1.12
-1.12
-1.115
-1.11
-1.11
-1.125
-1.115
-1.105
-1.115
-1.125
-1.15
-1.155
-1.155
-1.145
-1.155
-1.155
-1.155
-1.155
-1.155
-1.155
-1.165
-1.18
-1.175
-1.185
-1.195
-1.195
-1.2
-1.19
-1.2
-1.2
-1.195
-1.2
-1.205
-1.22
-1.225
-1.24
-1.25
-1.245
-1.245
-1.25
-1.265
-1.265
-1.265
-1.275
-1.285
-1.295
-1.305
-1.3
-1.31
-1.315
-1.315
-1.31
-1.305
-1.3
-1.305
-1.3
-1.305
-1.295
-1.305
-1.3
-1.29
-1.295
-1.28
-1.28
-1.265
-1.24
-1.225
-1.21
-1.195
-1.195
-1.19
-1.175
-1.17
-1.15
-1.135
-1.11
-1.1
-1.085
-1.06
-1.045
-1.045
-1.045
-1.025
-1.015
-1.015
-0.995
-0.99
-0.98
-0.965
-0.95
-0.93
-0.945
-0.935
-0.94
-0.945
-0.95
-0.96
-0.96
-0.96
-0.96
-0.965
-0.97
-0.965
-0.97
-0.98
-1.01
-1.01
-1.035
-1.045
-1.055
-1.05
-1.055
-1.06
-1.06
-1.06
-1.07
-1.085
-1.1
-1.12
-1.135
-1.135
-1.125
-1.115
-1.11
-1.105
-1.1
-1.1
-1.115
-1.11
-1.1
-1.115
-1.12
-1.125
-1.125
-1.105
-1.1
-1.09
-1.09
-1.085
-1.095
-1.095
-1.09
-1.09
-1.09
-1.09
-1.085
-1.08
-1.065
-1.065
-1.065
-1.06
-1.055
-1.055
-1.065
-1.065
-1.07
-1.07
-1.07
-1.075
-1.06
-1.045
-1.035
-1.04
-1.035
-1.045
-1.055
-1.07
-1.06
-1.06
-1.06
-1.05
-1.05
-1.035
-1.035
-1.035
-1.03
-1.04
-1.045
-1.035
-1.05
-1.05
-1.055
-1.05
-1.03
-1.025
-1.01
-1.005
-0.995
-1.005
-1.02
-1.015
-1.035
-1.035
-1.03
-1.025
-1.02
-1.015
-1.01
-1.005
-1.0
-1.01
-1.01
-1.025
-1.025
-1.035
-1.03
-1.04
-1.035
-1.025
-1.01
-1.0
-1.0
-1.01
-1.01
-1.015
-1.025
-1.03
-1.025
-1.02
-1.035
-1.02
-1.0
-1.0
-0.995
-1.0
-1.005
-1.005
-1.03
-1.025
-1.025
-1.035
-1.025
-1.01
-1.02
-1.0
-1.0
-1.02
-1.015
-1.02
-1.02
-1.025
-1.02
-1.01
-1.0
-1.0
-1.005
-0.995
-1.005
-1.02
-1.005
-1.005
-1.005
-1.02
-1.015
-1.015
-1.015
-1.015
-1.01
-0.995
-0.995
-1.0
-1.0
-1.005
-1.005
-1.02
-1.015
-1.015
-1.01
-1.005
-1.0
-0.99
-0.99
-0.995
-1.005
-1.015
-1.01
-1.005
-1.005
-1.005
-0.995
-0.99
-0.985
-0.98
-0.99
-0.99
-1.005
-1.01
-1.02
-1.015
-1.015
-1.025
-1.02
-1.015
-1.0
-0.985
-1.0
-1.01
-1.005
-1.015
-1.005
-1.015
-1.01
-1.015
-1.02
-1.015
-1.01
-1.0
-1.005
-1.0
-1.01
-1.01
-1.025
-1.02
-1.02
-1.01
-1.0
-1.0
-0.98
-0.985
-0.985
-0.965
-0.975
-0.98
-0.995
-0.995
-1.0
-1.005
-0.985
-0.965
-0.955
-0.935
-0.94
-0.945
-0.94
-0.94
-0.945
-0.955
-0.96
-0.975
-0.975
-0.97
-0.98
-0.965
-0.97
-0.965
-0.965
-0.96
-0.945
-0.935
-0.92
-0.925
-0.92
-0.94
-0.945
-0.945
-0.975
-0.99
-1.015
-1.035
-1.045
-1.04
-1.045
-1.04
-1.04
-1.04
-1.02
-1.025
-1.025
-1.02
-1.04
-1.045
-1.055
-1.07
-1.05
-1.015
-0.93
-0.83
-0.735
-0.67
-0.62
-0.625
-0.68
-0.785
-0.935
-1.075
-1.13
-1.08
-0.915
-0.675
-0.405
-0.1
0.175
0.445
0.67
0.87
1.035
1.165
1.245
1.25
1.225
1.145
1.03
0.875
0.66
0.41
0.17
-0.05
-0.285
-0.51
-0.755
-0.96
-1.145
-1.255
-1.33
-1.315
-1.31
-1.27
-1.245
-1.22
-1.21
-1.195
-1.185
-1.185
-1.175
-1.17
-1.18
-1.17
-1.175
-1.175
-1.18
-1.175
-1.19
-1.195
-1.19
-1.195
-1.18
-1.18
-1.175
-1.17
-1.175
-1.18
-1.19
-1.185
-1.195
-1.215
-1.21
-1.195
-1.19
-1.185
-1.19
-1.19
-1.19
-1.195
-1.2
-1.205
-1.23
-1.23
-1.225
-1.225
-1.215
-1.215
-1.22
-1.21
-1.215
-1.23
-1.24
-1.23
-1.24
-1.245
-1.245
-1.245
-1.25
-1.235
-1.235
-1.23
-1.24
-1.255
-1.27
-1.29
-1.285
-1.3
-1.3
-1.295
-1.295
-1.295
-1.29
-1.295
-1.305
-1.315
-1.325
-1.335
-1.345
-1.355
-1.355
-1.35
-1.34
-1.335
-1.325
-1.33
-1.34
-1.34
-1.345
-1.345
-1.35
-1.35
-1.35
-1.335
-1.31
-1.3
-1.28
-1.27
-1.255
-1.245
-1.25
-1.24
-1.235
-1.215
-1.2
-1.19
-1.165
-1.16
-1.135
-1.12
-1.11
-1.115
-1.095
-1.075
-1.075
-1.07
-1.06
-1.045
-1.035
-1.04
-1.005
-1.0
-0.995
-1.005
-1.01
-1.025
-1.025
-1.05
-1.05
-1.045
-1.05
-1.055
-1.06
-1.055
-1.08
-1.09
-1.105
-1.115
-1.14
-1.15
-1.16
-1.16
-1.175
-1.175
-1.18
-1.16
-1.18
-1.2
-1.22
-1.22
-1.235
-1.24
-1.23
-1.23
-1.22
-1.21
-1.205
-1.205
-1.215
-1.205
-1.215
-1.21
-1.21
-1.2
-1.21
-1.205
-1.185
-1.18
-1.175
-1.175
-1.17
-1.17
-1.185
-1.18
-1.18
-1.185
-1.185
-1.17
-1.17
-1.17
-1.15
-1.135
-1.15
-1.15
-1.15
-1.16
-1.165
-1.16
-1.16
-1.15
-1.14
-1.135
-1.13
-1.12
-1.125
-1.135
-1.145
-1.15
-1.15
-1.16
-1.155
-1.145
-1.145
-1.135
-1.125
-1.115
-1.115
-1.115
-1.12
-1.13
-1.13
-1.135
-1.13
-1.135
-1.125
-1.115
-1.115
-1.11
-1.11
-1.15
-1.115
-1.125
-1.13
-1.135
-1.145
-1.135
-1.125
-1.13
-1.115
-1.115
-1.105
-1.12
-1.125
-1.125
-1.135
-1.145
-1.14
-1.14
-1.135
-1.12
-1.11
-1.095
-1.1
-1.115
-1.12
-1.125
-1.13
-1.135
-1.14
-1.14
-1.13
-1.13
-1.12
-1.105
-1.105
-1.115
-1.115
-1.135
-1.125
-1.135
-1.145
-1.135
-1.125
-1.13
-1.12
-1.105
-1.105
-1.115
-1.115
-1.11
-1.13
-1.125
-1.12
-1.125
-1.12
-1.115
-1.115
-1.115
-1.11
-1.11
-1.12
-1.11
-1.13
-1.125
-1.135
-1.135
-1.145
-1.13
-1.125
-1.11
-1.11
-1.12
-1.13
-1.135
-1.125
-1.125
-1.125
-1.125
-1.125
-1.12
-1.115
-1.105
-1.115
-1.105
-1.105
-1.115
-1.12
-1.12
-1.125
-1.125
-1.115
-1.115
-1.105
-1.1
-1.1
-1.105
-1.105
-1.13
-1.145
-1.13
-1.14
-1.13
-1.125
-1.12
-1.12
-1.105
-1.1
-1.105
-1.11
-1.115
-1.125
-1.135
-1.125
-1.115
-1.105
-1.11
-1.09
-1.095
-1.1
-1.09
-1.105
-1.09
-1.11
-1.105
-1.105
-1.1
-1.09
-1.075
-1.075
-1.065
-1.07
-1.07
-1.095
-1.095
-1.105
-1.115
-1.095
-1.075
-1.05
-1.055
-1.05
-1.035
-1.04
-1.045
-1.05
-1.06
-1.085
-1.08
-1.105
-1.09
-1.07
-1.06
-1.06
-1.05
-1.045
-1.03
-1.03
-1.02
-1.04
-1.04
-1.045
-1.05
-1.055
-1.08
-1.08
-1.08
-1.08
-1.105
-1.12
-1.125
-1.125
-1.14
-1.125
-1.12
-1.11
-1.11
-1.1
-1.105
-1.105
-1.11
-1.12
-1.135
-1.145
-1.16
-1.145
-1.11
-1.035
-0.935
-0.845
-0.75
-0.705
-0.665
-0.67
-0.725
-0.855
-1.015
-1.17
-1.265
-1.26
-1.16
-0.97
-0.725
-0.495
-0.29
-0.085
0.13
0.315
0.505
0.675
0.8
0.9
0.94
0.94
0.91
0.825
0.72
0.565
0.355
0.145
-0.08
-0.325
-0.57
-0.82
-1.035
-1.2
-1.3
-1.335
-1.35
-1.335
-1.31
-1.285
-1.27
-1.255
-1.24
-1.235
-1.215
-1.205
-1.185
-1.195
-1.205
-1.215
-1.21
-1.23
-1.245
-1.23
-1.225
-1.21
-1.2
-1.19
-1.195
-1.185
-1.195
-1.205
-1.225
-1.225
-1.23
-1.235
-1.225
-1.215
-1.21
-1.205
-1.2
-1.205
-1.205
-1.21
-1.22
-1.24
-1.235
-1.24
-1.23
-1.225
-1.225
-1.22
-1.215
-1.23
-1.225
-1.235
-1.245
-1.245
-1.265
-1.265
-1.28
-1.255
-1.26
-1.255
-1.245
-1.265
-1.255
-1.26
-1.285
-1.295
-1.3
-1.31
-1.3
-1.285
-1.28
-1.28
-1.28
-1.28
-1.29
-1.31
-1.315
-1.345
-1.335
-1.32
-1.34
-1.325
-1.325
-1.325
-1.32
-1.325
-1.325
-1.34
-1.36
-1.365
-1.375
-1.36
-1.355
-1.355
-1.335
-1.335
-1.335
-1.325
-1.33
-1.33
-1.345
-1.33
-1.325
-1.325
-1.31
-1.28
-1.275
-1.265
-1.24
-1.235
-1.225
-1.215
-1.215
-1.215
-1.2
-1.2
-1.165
-1.14
-1.125
-1.1
-1.08
-1.06
-1.06
-1.06
-1.04
-1.045
-1.05
-1.04
-1.025
-1.0
-1.005
-0.985
-0.985
-0.99
-0.995
-1.01
-1.03
-1.045
-1.045
-1.055
-1.055
-1.07
-1.07
-1.075
-1.08
-1.09
-1.1
-1.125
-1.135
-1.15
-1.155
-1.16
-1.17
-1.17
-1.165
-1.165
-1.165
