Lead II
-0.225
-0.225
-0.215
-0.235
-0.235
-0.21
-0.2
-0.2
-0.22
-0.225
-0.22
-0.215
-0.205
-0.2
-0.21
-0.22
-0.225
-0.205
-0.195
-0.215
-0.235
-0.25
-0.25
-0.255
-0.245
-0.25
-0.275
-0.31
-0.295
-0.29
-0.29
-0.285
-0.295
-0.305
-0.29
-0.285
-0.28
-0.29
-0.305
-0.32
-0.315
-0.285
-0.285
-0.275
-0.285
-0.305
-0.31
-0.3
-0.295
-0.285
-0.285
-0.29
-0.29
-0.29
-0.28
-0.305
-0.315
-0.32
-0.285
-0.205
-0.085
0.02
0.13
0.23
0.325
0.46
0.62
0.77
0.93
1.125
1.325
1.545
1.76
1.95
2.045
2.09
2.09
2.075
2.005
1.87
1.635
1.28
0.885
0.535
0.34
0.23
0.19
0.165
0.135
0.12
0.095
0.065
0.015
-0.035
-0.07
-0.095
-0.1
-0.125
-0.155
-0.17
-0.185
-0.195
-0.205
-0.24
-0.27
-0.31
-0.345
-0.355
-0.35
-0.365
-0.42
-0.445
-0.455
-0.455
-0.44
-0.44
-0.46
-0.465
-0.485
-0.475
-0.46
-0.47
-0.49
-0.485
-0.48
-0.46
-0.445
-0.455
-0.48
-0.51
-0.495
-0.495
-0.485
-0.485
-0.495
-0.515
-0.515
-0.52
-0.5
-0.51
-0.535
-0.54
-0.535
-0.53
-0.52
-0.53
-0.55
-0.57
-0.56
-0.56
-0.54
-0.55
-0.57
-0.605
-0.62
-0.605
-0.59
-0.6
-0.62
-0.64
-0.645
-0.66
-0.645
-0.65
-0.655
-0.675
-0.655
-0.645
-0.625
-0.64
-0.645
-0.64
-0.635
-0.63
-0.585
-0.585
-0.595
-0.59
-0.575
-0.56
-0.515
-0.485
-0.485
-0.475
-0.45
-0.425
-0.415
-0.39
-0.37
-0.38
-0.34
-0.305
-0.28
-0.28
-0.285
-0.29
-0.285
-0.255
-0.23
-0.22
-0.235
-0.26
-0.255
-0.245
-0.215
-0.23
-0.235
-0.25
-0.265
-0.25
-0.245
-0.245
-0.255
-0.28
-0.27
-0.255
-0.24
-0.25
-0.26
-0.28
-0.275
-0.27
-0.245
-0.25
-0.265
-0.3
-0.295
-0.28
-0.24
-0.24
-0.25
-0.285
-0.29
-0.27
-0.26
-0.26
-0.275
-0.29
-0.285
-0.275
-0.255
-0.265
-0.275
-0.28
-0.26
-0.26
-0.255
-0.26
-0.275
-0.285
-0.27
-0.25
-0.235
-0.23
-0.255
-0.28
-0.275
-0.27
-0.24
-0.225
-0.235
-0.265
-0.27
-0.26
-0.24
-0.24
-0.24
-0.24
-0.245
-0.24
-0.245
-0.235
-0.26
-0.255
-0.26
-0.24
-0.23
-0.24
-0.27
-0.285
-0.275
-0.255
-0.225
-0.235
-0.255
-0.285
-0.265
-0.25
-0.23
-0.21
-0.225
-0.235
-0.215
-0.205
-0.19
-0.185
-0.18
-0.19
-0.195
-0.185
-0.175
-0.185
-0.175
-0.17
-0.165
-0.16
-0.15
-0.175
-0.205
-0.215
-0.2
-0.185
-0.17
-0.16
-0.185
-0.215
-0.225
-0.225
-0.21
-0.21
-0.24
-0.265
-0.275
-0.28
-0.27
-0.275
-0.28
-0.28
-0.26
-0.26
-0.245
-0.26
-0.275
-0.305
-0.305
-0.27
-0.265
-0.27
-0.285
-0.29
-0.295
-0.285
-0.26
-0.265
-0.28
-0.28
-0.28
-0.285
-0.275
-0.275
-0.3
-0.315
-0.28
-0.195
-0.115
-0.015
0.105
0.195
0.305
0.42
0.555
0.705
0.9
1.11
1.33
1.575
1.79
1.925
1.99
2.01
1.965
1.845
1.615
1.27
0.915
0.645
0.445
0.34
0.285
0.25
0.23
0.21
0.195
0.15
0.125
0.045
-0.005
-0.045
-0.07
-0.08
-0.09
-0.115
-0.16
-0.2
-0.235
-0.25
-0.285
-0.315
-0.355
-0.38
-0.415
-0.425
-0.425
-0.445
-0.46
-0.475
-0.475
-0.48
-0.47
-0.465
-0.485
-0.495
-0.485
-0.49
-0.475
-0.485
-0.5
-0.535
-0.535
-0.53
-0.51
-0.515
-0.54
-0.55
-0.565
-0.555
-0.545
-0.54
-0.555
-0.565
-0.57
-0.575
-0.6
-0.61
-0.61
-0.62
-0.6
-0.605
-0.605
-0.62
-0.665
-0.67
-0.68
-0.66
-0.635
-0.655
-0.69
-0.72
-0.735
-0.73
-0.715
-0.715
-0.715
-0.745
-0.765
-0.73
-0.72
-0.725
-0.73
-0.73
-0.71
-0.705
-0.675
-0.67
-0.66
-0.66
-0.645
-0.61
-0.575
-0.57
-0.575
-0.565
-0.53
-0.49
-0.445
-0.435
-0.435
-0.405
-0.38
-0.33
-0.32
-0.305
-0.32
-0.335
-0.315
-0.29
-0.265
-0.26
-0.265
-0.26
-0.26
-0.265
-0.26
-0.265
-0.29
-0.295
-0.29
-0.3
-0.27
-0.28
-0.295
-0.305
-0.29
-0.285
-0.27
-0.27
-0.31
-0.315
-0.305
-0.29
-0.275
-0.27
-0.3
-0.3
-0.325
-0.315
-0.285
-0.29
-0.31
-0.33
-0.35
-0.335
-0.32
-0.295
-0.315
-0.335
-0.335
-0.34
-0.325
-0.345
-0.355
-0.365
-0.355
-0.35
-0.34
-0.335
-0.35
-0.35
-0.335
-0.31
-0.3
-0.31
-0.33
-0.325
-0.3
-0.295
-0.28
-0.29
-0.32
-0.34
-0.34
-0.33
-0.32
-0.31
-0.325
-0.345
-0.355
-0.325
-0.31
-0.31
-0.315
-0.32
-0.325
-0.315
-0.285
-0.285
-0.285
-0.28
-0.29
-0.26
-0.265
-0.25
-0.265
-0.27
-0.27
-0.25
-0.25
-0.255
-0.255
-0.25
-0.235
-0.21
-0.225
-0.23
-0.25
-0.25
-0.23
-0.215
-0.22
-0.245
-0.275
-0.29
-0.27
-0.26
-0.255
-0.29
-0.31
-0.34
-0.34
-0.335
-0.32
-0.325
-0.3
-0.33
-0.345
-0.32
-0.315
-0.32
-0.32
-0.32
-0.33
-0.31
-0.3
-0.32
-0.335
-0.335
-0.315
-0.305
-0.29
-0.3
-0.305
-0.295
-0.285
-0.275
-0.205
-0.095
0.04
0.165
0.305
0.46
0.615
0.825
1.03
1.26
1.49
1.71
1.925
2.025
2.055
2.045
1.975
1.825
1.515
1.065
0.62
0.345
0.22
0.185
0.185
0.185
0.145
0.08
0.03
-0.005
-0.045
-0.075
-0.11
-0.12
-0.145
-0.17
-0.21
-0.24
-0.29
-0.33
-0.36
-0.385
-0.39
-0.425
-0.455
-0.48
-0.48
-0.47
-0.465
-0.49
-0.505
-0.51
-0.505
-0.485
-0.47
-0.475
-0.495
-0.53
-0.515
-0.525
-0.5
-0.505
-0.51
-0.545
-0.545
-0.535
-0.535
-0.535
-0.55
-0.555
-0.56
-0.565
-0.56
-0.565
-0.58
-0.605
-0.59
-0.59
-0.595
-0.615
-0.63
-0.635
-0.635
-0.635
-0.64
-0.66
-0.675
-0.705
-0.7
-0.68
-0.66
-0.67
-0.685
-0.71
-0.73
-0.71
-0.69
-0.675
-0.695
-0.695
-0.7
-0.675
-0.65
-0.635
-0.625
-0.62
-0.605
-0.58
-0.565
-0.53
-0.52
-0.49
-0.46
-0.415
-0.385
-0.385
-0.36
-0.345
-0.32
-0.295
-0.28
-0.275
-0.295
-0.3
-0.285
-0.27
-0.255
-0.25
-0.255
-0.275
-0.3
-0.27
-0.25
-0.24
-0.27
-0.29
-0.29
-0.27
-0.26
-0.265
-0.28
-0.285
-0.285
-0.285
-0.27
-0.285
-0.295
-0.295
-0.3
-0.27
-0.28
-0.285
-0.3
-0.305
-0.3
-0.305
-0.3
-0.295
-0.31
-0.325
-0.315
-0.295
-0.275
-0.275
-0.295
-0.3
-0.315
-0.3
-0.275
-0.265
-0.285
-0.29
-0.3
-0.295
-0.275
-0.275
-0.275
-0.275
-0.27
-0.275
-0.265
-0.28
-0.29
-0.29
-0.285
-0.265
-0.255
-0.275
-0.28
-0.3
-0.275
-0.27
-0.255
-0.26
-0.29
-0.295
-0.285
-0.285
-0.255
-0.265
-0.285
-0.305
-0.305
-0.27
-0.25
-0.25
-0.275
-0.265
-0.265
-0.225
-0.195
-0.19
-0.19
-0.21
-0.225
-0.215
-0.215
-0.2
-0.205
-0.2
-0.195
-0.205
-0.19
-0.195
-0.225
-0.22
-0.22
-0.225
-0.22
-0.235
-0.25
-0.26
-0.265
-0.25
-0.245
-0.265
-0.29
-0.315
-0.315
-0.3
-0.295
-0.295
-0.31
-0.325
-0.335
-0.305
-0.295
-0.305
-0.31
-0.33
-0.325
-0.315
-0.31
-0.3
-0.3
-0.31
-0.32
-0.31
-0.3
-0.265
-0.29
-0.32
-0.32
-0.235
-0.11
0.02
0.12
0.16
0.23
0.335
0.475
0.645
0.85
1.07
1.32
1.575
1.79
1.93
1.975
1.91
1.75
1.475
1.1
0.75
0.5
0.36
0.29
0.25
0.22
0.19
0.155
0.115
0.075
0.03
0.005
-0.04
-0.115
-0.145
-0.175
-0.185
-0.21
-0.235
-0.27
-0.315
-0.345
-0.39
-0.395
-0.395
-0.425
-0.455
-0.465
-0.47
-0.46
-0.47
-0.465
-0.48
-0.48
-0.48
-0.475
-0.475
-0.495
-0.505
-0.5
-0.495
-0.5
-0.5
-0.525
-0.53
-0.535
-0.53
-0.505
-0.545
-0.555
-0.575
-0.58
-0.55
-0.53
-0.535
-0.55
-0.57
-0.575
-0.6
-0.565
-0.58
-0.595
-0.6
-0.625
-0.62
-0.605
-0.63
-0.64
-0.66
-0.665
-0.66
-0.65
-0.65
-0.66
-0.665
-0.66
-0.65
-0.645
-0.645
-0.635
-0.645
-0.615
-0.585
-0.555
-0.545
-0.545
-0.53
-0.52
-0.47
-0.43
-0.435
-0.42
-0.42
-0.395
-0.355
-0.315
-0.295
-0.29
-0.295
-0.29
-0.28
-0.255
-0.255
-0.26
-0.27
-0.28
-0.275
-0.26
-0.255
-0.27
-0.285
-0.285
-0.285
-0.27
-0.275
-0.29
-0.29
-0.265
-0.275
-0.28
-0.295
-0.315
-0.315
-0.295
-0.285
-0.285
-0.29
-0.305
-0.32
-0.315
-0.3
-0.295
-0.29
-0.315
-0.335
-0.335
-0.33
-0.31
-0.31
-0.32
-0.33
-0.34
-0.325
-0.315
-0.32
-0.32
-0.34
-0.34
-0.315
-0.315
-0.315
-0.33
-0.345
-0.33
-0.32
-0.31
-0.32
-0.33
-0.33
-0.33
-0.305
-0.28
-0.27
-0.295
-0.33
-0.33
-0.32
-0.295
-0.3
-0.305
-0.32
-0.32
-0.315
-0.295
-0.29
-0.3
-0.32
-0.31
-0.295
-0.295
-0.305
-0.325
-0.325
-0.32
-0.285
-0.27
-0.28
-0.305
-0.325
-0.315
-0.305
-0.28
-0.27
-0.27
-0.28
-0.265
-0.245
-0.23
-0.245
-0.255
-0.245
-0.235
-0.235
-0.23
-0.23
-0.23
-0.245
-0.215
-0.205
-0.19
-0.205
-0.225
-0.24
-0.23
-0.215
-0.21
-0.235
-0.265
-0.275
-0.29
-0.265
-0.26
-0.265
-0.275
-0.29
-0.305
-0.305
-0.305
-0.3
-0.29
-0.315
-0.31
-0.29
-0.28
-0.31
-0.32
-0.325
-0.31
-0.305
-0.3
-0.3
-0.32
-0.315
-0.32
-0.3
-0.27
-0.275
-0.28
-0.3
-0.31
-0.31
-0.285
-0.285
-0.27
-0.225
-0.135
-0.01
0.125
0.23
0.335
0.435
0.535
0.63
0.74
0.9
1.08
1.325
1.575
1.805
1.955
1.98
1.92
1.755
1.46
1.07
0.725
0.485
0.33
0.25
0.22
0.215
0.22
0.21
0.19
0.12
0.09
0.025
-0.015
-0.075
-0.095
-0.13
-0.155
-0.185
-0.205
-0.25
-0.285
-0.325
-0.345
-0.37
-0.375
-0.39
-0.42
-0.45
-0.475
-0.465
-0.455
-0.45
-0.465
-0.475
-0.48
-0.475
-0.48
-0.475
-0.48
-0.485
-0.495
-0.5
-0.495
-0.5
-0.51
-0.515
-0.52
-0.525
-0.515
-0.52
-0.52
-0.545
-0.54
-0.525
-0.53
-0.535
-0.54
-0.565
-0.58
-0.585
-0.575
-0.585
-0.615
-0.615
-0.63
-0.63
-0.615
-0.63
-0.64
-0.655
-0.655
-0.65
-0.645
-0.675
-0.695
-0.705
-0.7
-0.685
-0.675
-0.695
-0.71
-0.72
-0.73
-0.715
-0.675
-0.675
-0.685
-0.69
-0.685
-0.665
-0.635
-0.625
-0.635
-0.6
-0.59
-0.565
-0.53
-0.505
-0.485
-0.485
-0.45
-0.405
-0.375
-0.355
-0.355
-0.345
-0.325
-0.315
-0.285
-0.255
-0.28
-0.285
-0.285
-0.27
-0.255
-0.26
-0.26
-0.27
-0.255
-0.26
-0.245
-0.255
-0.255
-0.255
-0.27
-0.26
-0.245
-0.245
-0.27
-0.285
-0.275
-0.26
-0.25
-0.245
-0.255
-0.285
-0.29
-0.28
-0.265
-0.27
-0.265
-0.275
-0.28
-0.285
-0.27
-0.27
-0.275
-0.285
-0.28
-0.265
-0.255
-0.255
-0.275
-0.29
-0.285
-0.285
-0.26
-0.255
-0.28
-0.295
-0.3
-0.29
-0.275
-0.27
-0.285
-0.29
-0.295
-0.285
-0.27
-0.27
-0.285
-0.295
-0.295
-0.265
-0.25
-0.25
-0.275
-0.27
-0.29
-0.27
-0.25
-0.24
-0.26
-0.27
-0.285
-0.26
-0.24
-0.24
-0.255
-0.255
-0.255
-0.25
-0.24
-0.25
-0.26
-0.265
-0.26
-0.255
-0.23
-0.24
-0.26
-0.27
-0.27
-0.25
-0.235
-0.225
-0.235
-0.24
-0.265
-0.26
-0.225
-0.215
-0.21
-0.205
-0.195
-0.185
-0.175
-0.175
-0.2
-0.21
-0.215
-0.195
-0.18
-0.18
-0.19
-0.19
-0.19
-0.185
-0.15
-0.14
-0.17
-0.19
-0.21
-0.195
-0.175
-0.17
-0.175
-0.195
-0.21
-0.205
-0.225
-0.225
-0.25
-0.265
-0.255
-0.24
-0.235
-0.25
-0.255
-0.27
-0.275
-0.27
-0.235
-0.235
-0.24
-0.27
-0.265
-0.27
-0.25
-0.245
-0.265
-0.275
-0.26
-0.255
-0.24
-0.245
-0.24
-0.27
-0.295
-0.27
-0.25
-0.245
-0.24
-0.25
-0.255
-0.255
-0.25
-0.26
-0.26
-0.22
-0.13
-0.035
0.08
0.17
0.245
0.34
0.455
0.605
0.775
0.97
1.15
1.34
1.55
1.775
1.945
2.04
2.05
2.015
1.94
1.785
1.515
1.12
0.71
0.415
0.275
0.235
0.225
0.2
0.19
0.14
0.11
0.085
0.045
0.01
-0.035
-0.08
-0.1
-0.105
-0.1
-0.12
-0.16
-0.195
-0.25
-0.265
-0.28
-0.305
-0.34
-0.36
-0.365
-0.38
-0.38
-0.4
-0.42
-0.45
-0.445
-0.43
-0.415
-0.415
-0.42
-0.445
-0.45
-0.445
-0.435
-0.435
-0.435
-0.46
-0.45
-0.46
-0.45
-0.465
-0.47
-0.485
-0.47
-0.47
-0.465
-0.485
-0.5
-0.51
-0.5
-0.49
-0.485
-0.49
-0.495
-0.53
-0.545
-0.525
-0.52
-0.525
-0.535
-0.56
-0.58
-0.565
-0.555
-0.565
-0.57
-0.585
-0.6
-0.595
-0.59
-0.595
-0.61
-0.61
-0.605
-0.595
-0.59
-0.59
-0.605
-0.62
-0.595
-0.585
-0.55
-0.555
-0.55
-0.54
-0.515
-0.495
-0.46
-0.44
-0.44
-0.43
-0.42
-0.39
-0.345
-0.34
-0.315
-0.305
-0.29
-0.26
-0.23
-0.235
-0.225
-0.23
-0.23
-0.205
-0.205
-0.21
-0.225
-0.23
-0.22
-0.225
-0.21
-0.21
-0.215
-0.22
-0.255
-0.235
-0.235
-0.235
-0.225
-0.245
-0.245
-0.245
-0.24
-0.23
-0.245
-0.255
-0.265
-0.25
-0.24
-0.25
-0.255
-0.275
-0.285
-0.26
-0.23
-0.24
-0.27
-0.28
-0.28
-0.265
-0.25
-0.25
-0.255
-0.265
-0.285
-0.28
-0.27
-0.26
-0.265
-0.275
-0.27
-0.27
-0.26
-0.265
-0.28
-0.28
-0.28
-0.27
-0.255
-0.25
-0.26
-0.27
-0.27
-0.265
-0.245
-0.24
-0.25
-0.25
-0.26
-0.25
-0.24
-0.24
-0.255
-0.255
-0.25
-0.235
-0.22
-0.22
-0.23
-0.26
-0.26
-0.24
-0.22
-0.225
-0.23
-0.255
-0.25
-0.25
-0.235
-0.245
-0.235
-0.24
-0.25
-0.235
-0.24
-0.25
-0.26
-0.265
-0.25
-0.25
-0.235
-0.235
-0.255
-0.265
-0.26
-0.255
-0.22
-0.22
-0.23
-0.245
-0.245
-0.225
-0.21
-0.22
-0.225
-0.225
-0.215
-0.2
-0.18
-0.17
-0.195
-0.21
-0.22
-0.185
-0.18
-0.165
-0.18
-0.185
-0.19
-0.18
-0.18
-0.195
-0.195
-0.21
-0.23
-0.22
-0.19
-0.2
-0.22
-0.235
-0.24
-0.235
-0.23
-0.24
-0.255
-0.265
-0.275
-0.285
-0.27
-0.285
-0.285
-0.305
-0.305
-0.3
-0.285
-0.29
-0.28
-0.29
-0.28
-0.28
-0.27
-0.27
-0.285
-0.3
-0.305
-0.31
-0.29
-0.27
-0.285
-0.285
-0.28
-0.29
-0.255
-0.265
-0.28
-0.295
-0.29
-0.295
-0.285
-0.275
-0.23
-0.175
-0.075
0.065
0.195
0.31
0.38
0.48
0.625
0.805
1.015
1.21
1.395
1.56
1.715
1.855
1.945
1.97
1.94
1.835
1.65
1.425
1.165
0.895
0.645
0.46
0.34
0.305
0.29
0.27
0.225
0.18
0.14
0.105
0.08
0.05
-0.005
-0.05
-0.085
-0.1
-0.11
-0.12
-0.16
-0.205
-0.23
-0.25
-0.26
-0.295
-0.355
-0.375
-0.4
-0.415
-0.425
-0.43
-0.455
-0.48
-0.475
-0.47
-0.455
-0.445
-0.47
-0.48
-0.49
-0.485
-0.495
-0.51
-0.51
-0.515
-0.52
-0.51
-0.505
-0.515
-0.535
-0.54
-0.545
-0.545
-0.545
-0.555
-0.585
-0.595
-0.595
-0.6
-0.565
-0.58
-0.605
-0.63
-0.635
-0.63
-0.625
-0.615
-0.655
-0.655
-0.68
-0.68
-0.69
-0.685
-0.695
-0.71
-0.71
-0.72
-0.715
-0.74
-0.745
-0.755
-0.75
-0.75
-0.72
-0.73
-0.735
-0.75
-0.74
-0.705
-0.695
-0.67
-0.655
-0.67
-0.67
-0.625
-0.59
-0.575
-0.57
-0.555
-0.515
-0.48
-0.445
-0.435
-0.405
-0.395
-0.375
-0.35
-0.325
-0.315
-0.325
-0.32
-0.305
-0.295
-0.27
-0.26
-0.285
-0.3
-0.29
-0.285
-0.26
-0.26
-0.285
-0.295
-0.31
-0.29
-0.27
-0.295
-0.295
-0.33
-0.335
-0.31
-0.29
-0.29
-0.285
-0.295
-0.295
-0.285
-0.28
-0.285
-0.31
-0.315
-0.32
-0.305
-0.3
-0.3
-0.305
-0.325
-0.33
-0.305
-0.31
-0.3
-0.325
-0.32
-0.34
-0.335
-0.325
-0.315
-0.325
-0.335
-0.325
-0.325
-0.33
-0.305
-0.32
-0.325
-0.315
-0.315
-0.31
-0.32
-0.335
-0.33
-0.325
-0.3
-0.285
-0.29
-0.315
-0.33
-0.335
-0.32
-0.29
-0.27
-0.29
-0.325
-0.34
-0.305
-0.275
-0.27
-0.275
-0.28
-0.295
-0.295
-0.285
-0.295
-0.31
-0.31
-0.32
-0.3
-0.29
-0.29
-0.315
-0.32
-0.31
-0.29
-0.275
-0.275
-0.295
-0.31
-0.305
-0.28
-0.25
-0.245
-0.25
-0.25
-0.275
-0.255
-0.24
-0.24
-0.235
-0.24
-0.225
-0.23
-0.215
-0.22
-0.23
-0.25
-0.245
-0.24
-0.23
-0.235
-0.24
-0.255
-0.27
-0.245
-0.235
-0.24
-0.26
-0.275
-0.275
-0.27
-0.28
-0.27
-0.285
-0.3
-0.31
-0.3
-0.3
-0.305
-0.31
-0.315
-0.3
-0.295
-0.28
-0.285
-0.295
-0.305
-0.31
-0.3
-0.3
-0.28
-0.295
-0.305
-0.305
-0.3
-0.28
-0.29
-0.29
-0.29
-0.28
-0.27
-0.26
-0.26
-0.285
-0.32
-0.31
-0.27
-0.195
-0.065
0.055
0.145
0.24
0.355
0.485
0.63
0.77
0.93
1.125
1.325
1.53
1.72
1.845
1.935
1.985
2.0
2.005
1.945
1.795
1.53
1.145
0.76
0.495
0.33
0.24
0.19
0.18
0.165
0.16
0.13
0.08
0.03
0.01
-0.025
-0.05
-0.08
-0.11
-0.16
-0.165
-0.175
-0.18
-0.205
-0.25
-0.285
-0.325
-0.345
-0.35
-0.38
-0.405
-0.425
-0.45
-0.455
-0.445
-0.45
-0.485
-0.48
-0.48
-0.465
-0.455
-0.455
-0.475
-0.49
-0.5
-0.485
-0.47
-0.475
-0.5
-0.52
-0.525
-0.52
-0.5
-0.495
-0.515
-0.545
-0.55
-0.535
-0.52
-0.535
-0.535
-0.56
-0.56
-0.56
-0.56
-0.575
-0.58
-0.59
-0.59
-0.605
-0.595
-0.61
-0.615
-0.645
-0.65
-0.65
-0.64
-0.63
-0.64
-0.665
-0.665
-0.665
-0.655
-0.665
-0.665
-0.68
-0.675
-0.675
-0.66
-0.66
-0.655
-0.655
-0.64
-0.62
-0.605
-0.6
-0.59
-0.59
-0.58
-0.55
-0.505
-0.48
-0.46
-0.465
-0.43
-0.405
-0.36
-0.335
-0.325
-0.325
-0.305
-0.285
-0.27
-0.25
-0.255
-0.27
-0.27
-0.265
-0.255
-0.255
-0.26
-0.265
-0.275
-0.265
-0.25
-0.265
-0.295
-0.295
-0.295
-0.275
-0.26
-0.28
-0.29
-0.305
-0.305
-0.295
-0.275
-0.265
-0.28
-0.295
-0.31
-0.3
-0.295
-0.285
-0.3
-0.305
-0.31
-0.305
-0.295
-0.29
-0.295
-0.31
-0.305
-0.3
-0.28
-0.285
-0.3
-0.3
-0.305
-0.3
-0.28
-0.265
-0.28
-0.295
-0.305
-0.3
-0.28
-0.27
-0.275
-0.295
-0.295
-0.275
-0.265
-0.265
-0.275
-0.295
-0.285
-0.265
-0.25
-0.245
-0.265
-0.285
-0.285
-0.275
-0.255
-0.25
-0.265
-0.295
-0.305
-0.27
-0.27
-0.255
-0.26
-0.28
-0.285
-0.28
-0.27
-0.265
-0.275
-0.28
-0.29
-0.28
-0.245
-0.255
-0.27
-0.285
-0.29
-0.28
-0.26
-0.255
-0.275
-0.29
-0.285
-0.285
-0.265
-0.265
-0.265
-0.265
-0.265
-0.26
-0.225
-0.225
-0.225
-0.25
-0.245
-0.22
-0.19
-0.2
-0.21
-0.235
-0.23
-0.21
-0.195
-0.185
-0.18
-0.19
-0.2
-0.2
-0.18
-0.175
-0.195
-0.21
-0.22
-0.205
-0.2
-0.2
-0.235
-0.245
-0.265
-0.24
-0.23
-0.25
-0.27
-0.305
-0.305
-0.3
-0.285
-0.285
-0.295
-0.305
-0.315
-0.285
-0.275
-0.275
-0.285
-0.29
-0.305
-0.3
-0.28
-0.285
-0.315
-0.305
-0.305
-0.28
-0.275
-0.265
-0.28
-0.295
-0.3
-0.29
-0.275
-0.265
-0.26
-0.26
-0.265
-0.27
-0.255
-0.205
-0.14
-0.04
0.055
0.16
0.245
0.335
0.425
0.52
0.665
0.855
1.04
1.21
1.315
1.46
1.575
1.7
1.82
1.895
1.905
1.81
1.615
1.285
0.93
0.63
0.45
0.345
0.295
0.275
0.26
0.23
0.21
0.15
0.135
0.105
0.08
0.035
-0.005
-0.045
-0.1
-0.11
-0.13
-0.17
-0.205
-0.255
-0.295
-0.31
-0.34
-0.36
-0.38
-0.385
-0.4
-0.405
-0.39
-0.39
-0.415
-0.45
-0.44
-0.435
-0.435
-0.435
-0.44
-0.47
-0.47
-0.455
-0.44
-0.44
-0.48
-0.49
-0.49
-0.485
-0.48
-0.47
-0.485
-0.49
-0.495
-0.505
-0.505
-0.525
-0.525
-0.555
-0.54
-0.525
-0.525
-0.54
-0.545
-0.56
-0.57
-0.555
-0.545
-0.56
-0.59
-0.615
-0.615
-0.625
-0.605
-0.605
-0.615
-0.64
-0.65
-0.635
-0.615
-0.625
-0.63
-0.635
-0.64
-0.62
-0.615
-0.585
-0.58
-0.575
-0.56
-0.54
-0.51
-0.48
-0.475
-0.47
-0.43
-0.41
-0.37
-0.335
-0.325
-0.31
-0.3
-0.265
-0.255
-0.23
-0.245
-0.245
-0.245
-0.23
-0.2
-0.205
-0.215
-0.245
-0.245
-0.235
-0.215
-0.23
-0.235
-0.25
-0.255
-0.25
-0.22
-0.205
-0.22
-0.245
-0.25
-0.25
-0.24
-0.23
-0.255
-0.26
-0.265
-0.255
-0.27
-0.25
-0.265
-0.27
-0.27
-0.27
-0.275
-0.275
-0.28
-0.3
-0.29
-0.27
-0.26
-0.255
-0.27
-0.29
-0.31
-0.285
-0.29
-0.27
-0.29
-0.31
-0.31
-0.305
-0.29
-0.27
-0.26
-0.29
-0.28
-0.295
-0.275
-0.27
-0.28
-0.295
-0.29
-0.28
-0.265
-0.265
-0.275
-0.275
-0.285
-0.265
-0.26
-0.245
-0.27
-0.275
-0.275
-0.26
-0.245
-0.245
-0.245
-0.27
-0.275
-0.27
-0.26
-0.265
-0.275
-0.265
-0.28
-0.28
-0.265
-0.255
-0.265
-0.275
-0.275
-0.265
-0.255
-0.25
-0.25
-0.285
-0.275
-0.255
-0.225
-0.24
-0.24
-0.26
-0.265
-0.25
-0.235
-0.215
-0.215
-0.22
-0.24
-0.23
-0.2
-0.2
-0.2
-0.2
-0.2
-0.185
-0.19
-0.19
-0.19
-0.2
-0.215
-0.205
-0.215
-0.225
-0.235
-0.24
-0.235
-0.22
-0.21
-0.23
-0.245
-0.265
-0.29
-0.27
-0.265
-0.265
-0.265
-0.295
-0.3
-0.29
-0.265
-0.25
-0.255
-0.27
-0.295
-0.29
-0.275
-0.28
-0.285
-0.29
-0.28
-0.26
-0.245
-0.25
-0.26
-0.275
-0.275
-0.26
-0.23
-0.23
-0.24
-0.275
-0.28
-0.25
-0.2
-0.125
0.0
0.08
0.16
0.23
0.315
0.415
0.535
0.69
0.875
1.105
1.33
1.525
1.72
1.865
1.93
1.975
1.925
1.77
1.47
1.125
0.82
0.625
0.495
0.405
0.32
0.265
0.24
0.22
0.24
0.225
0.155
0.11
0.055
0.01
-0.01
-0.055
-0.09
-0.13
-0.185
-0.19
-0.215
-0.25
-0.285
-0.32
-0.345
-0.355
-0.365
-0.375
-0.4
-0.42
-0.43
-0.42
-0.41
-0.415
-0.435
-0.465
-0.47
-0.455
-0.455
-0.425
-0.43
-0.455
-0.485
-0.475
-0.47
-0.465
-0.475
-0.485
-0.495
-0.515
-0.51
-0.505
-0.525
-0.52
-0.51
-0.51
-0.51
-0.525
-0.535
-0.57
-0.575
-0.57
-0.575
-0.58
-0.6
-0.63
-0.63
-0.635
-0.635
-0.65
-0.67
-0.68
-0.69
-0.69
-0.685
-0.67
-0.67
-0.685
-0.695
-0.695
-0.685
-0.665
-0.65
-0.655
-0.67
-0.645
-0.61
-0.58
-0.57
-0.555
-0.53
-0.5
-0.485
-0.465
-0.465
-0.445
-0.4
-0.35
-0.32
-0.305
-0.305
-0.305
-0.275
-0.26
-0.245
-0.235
-0.235
-0.27
-0.25
-0.235
-0.205
-0.2
-0.215
-0.225
-0.25
-0.24
-0.215
-0.21
-0.235
-0.24
-0.255
-0.25
-0.215
-0.225
-0.21
-0.24
-0.255
-0.255
-0.24
-0.26
-0.275
-0.26
-0.27
-0.25
-0.245
-0.225
-0.255
-0.275
-0.27
-0.26
-0.235
-0.235
-0.255
-0.29
-0.28
-0.285
-0.25
-0.235
-0.24
-0.27
-0.265
-0.26
-0.255
-0.245
-0.25
-0.265
-0.27
-0.25
-0.245
-0.24
-0.24
-0.255
-0.24
-0.235
-0.24
-0.215
-0.225
-0.24
-0.225
-0.225
-0.215
-0.225
-0.23
-0.245
-0.245
-0.215
-0.205
-0.22
-0.23
-0.25
-0.255
-0.235
-0.21
-0.21
-0.215
-0.225
-0.21
-0.22
-0.215
-0.21
-0.22
-0.235
-0.24
-0.235
-0.22
-0.195
-0.215
-0.225
-0.22
-0.21
-0.21
-0.205
-0.225
-0.22
-0.225
-0.2
-0.17
-0.16
-0.15
-0.185
-0.19
-0.175
-0.145
-0.14
-0.135
-0.145
-0.17
-0.17
-0.145
-0.14
-0.145
-0.175
-0.19
-0.195
-0.185
-0.185
-0.18
-0.195
-0.205
-0.19
-0.195
-0.205
-0.225
-0.255
-0.25
-0.245
-0.22
-0.235
-0.25
-0.265
-0.245
-0.235
-0.215
-0.215
-0.22
-0.245
-0.27
-0.245
-0.225
-0.205
-0.21
-0.23
-0.235
-0.22
-0.205
-0.19
-0.19
-0.21
-0.2
-0.195
-0.2
-0.195
-0.18
-0.145
-0.04
0.09
0.22
0.31
0.405
0.53
0.675
0.87
1.05
1.23
1.36
1.485
1.675
1.86
2.0
2.045
2.005
1.845
1.545
1.14
0.755
0.485
0.36
0.295
0.28
0.28
0.27
0.245
0.215
0.18
0.155
0.13
0.085
0.035
-0.01
-0.04
-0.08
-0.1
-0.115
-0.17
-0.22
-0.265
-0.285
-0.3
-0.305
-0.32
-0.37
-0.4
-0.38
-0.375
-0.365
-0.35
-0.375
-0.39
-0.4
-0.395
-0.39
-0.375
-0.385
-0.4
-0.415
-0.41
-0.41
-0.395
-0.4
-0.425
-0.42
-0.415
-0.41
-0.41
-0.435
-0.455
-0.45
-0.435
-0.435
-0.435
-0.455
-0.49
-0.5
-0.49
-0.485
-0.495
-0.52
-0.54
-0.55
-0.545
-0.54
-0.53
-0.55
-0.555
-0.59
-0.58
-0.56
-0.565
-0.58
-0.585
-0.595
-0.595
-0.575
-0.585
-0.59
-0.585
-0.575
-0.58
-0.57
-0.54
-0.53
-0.505
-0.49
-0.455
-0.41
-0.4
-0.4
-0.37
-0.345
-0.315
-0.275
-0.255
-0.255
-0.26
-0.245
-0.225
-0.205
-0.18
-0.185
-0.205
-0.215
-0.185
-0.18
-0.17
-0.19
-0.205
-0.215
-0.2
-0.18
-0.185
-0.195
-0.21
-0.215
-0.215
-0.215
-0.195
-0.2
-0.21
-0.22
-0.22
-0.21
-0.21
-0.22
-0.24
-0.235
-0.24
-0.225
-0.225
-0.225
-0.235
-0.24
-0.215
-0.205
-0.215
-0.225
-0.235
-0.24
-0.22
-0.215
-0.215
-0.23
-0.23
-0.22
-0.225
-0.2
-0.205
-0.22
-0.26
-0.23
-0.215
-0.205
-0.19
-0.19
-0.2
-0.23
-0.215
-0.19
-0.19
-0.195
-0.2
-0.22
-0.22
-0.2
-0.2
-0.195
-0.205
-0.205
-0.195
-0.195
-0.2
-0.215
-0.225
-0.22
-0.21
-0.2
-0.22
-0.23
-0.23
-0.215
-0.2
-0.195
-0.21
-0.22
-0.235
-0.255
-0.235
-0.215
-0.2
-0.21
-0.22
-0.245
-0.23
-0.205
-0.19
-0.19
-0.2
-0.195
-0.19
-0.18
-0.165
-0.16
-0.16
-0.18
-0.17
-0.155
-0.16
-0.155
-0.165
-0.15
-0.145
-0.13
-0.14
-0.175
-0.18
-0.195
-0.205
-0.19
-0.21
-0.205
-0.21
-0.22
-0.205
-0.19
-0.195
-0.205
-0.22
-0.235
-0.245
-0.245
-0.27
-0.26
-0.27
-0.275
-0.26
-0.26
-0.25
-0.245
-0.26
-0.275
-0.265
-0.255
-0.26
-0.25
-0.255
-0.25
-0.255
-0.245
-0.235
-0.25
-0.255
-0.265
-0.23
-0.215
-0.21
-0.22
-0.245
-0.24
-0.195
-0.09
0.035
0.12
0.18
0.2
0.26
0.335
0.415
0.53
0.68
0.875
1.1
1.33
1.55
1.735
1.885
1.97
2.0
1.95
1.73
1.4
0.985
0.665
0.465
0.38
0.335
0.305
0.285
0.27
0.26
0.26
0.22
0.18
0.12
0.065
0.03
0.02
-0.02
-0.06
-0.105
-0.135
-0.15
-0.15
-0.185
-0.235
-0.295
-0.3
-0.325
-0.325
-0.325
-0.37
-0.41
-0.415
-0.405
-0.395
-0.385
-0.4
-0.425
-0.43
-0.435
-0.43
-0.43
-0.44
-0.445
-0.435
-0.435
-0.43
-0.44
-0.465
-0.475
-0.485
-0.47
-0.445
-0.45
-0.475
-0.52
-0.525
-0.515
-0.505
-0.51
-0.535
-0.55
-0.58
-0.555
-0.545
-0.545
-0.55
-0.57
-0.585
-0.605
-0.6
-0.605
-0.62
-0.64
-0.655
-0.635
-0.635
-0.65
-0.665
-0.675
-0.675
-0.66
-0.65
-0.65
-0.665
-0.67
-0.69
-0.65
-0.635
-0.625
-0.6
-0.605
-0.595
-0.58
-0.555
-0.515
-0.505
-0.505
-0.47
-0.45
-0.41
-0.39
-0.38
-0.37
-0.36
-0.325
-0.29
-0.28
-0.275
-0.28
-0.26
-0.24
-0.23
-0.225
-0.245
-0.25
-0.265
-0.235
-0.215
-0.215
-0.22
-0.24
-0.255
-0.25
-0.23
-0.22
-0.225
-0.25
-0.26
-0.255
-0.235
-0.245
-0.24
-0.25
-0.255
-0.265
-0.26
-0.255
-0.265
-0.275
-0.27
-0.26
-0.25
-0.255
-0.285
-0.28
-0.28
-0.275
-0.27
-0.265
-0.28
-0.285
-0.29
-0.28
-0.265
-0.255
-0.275
-0.295
-0.3
-0.285
-0.27
-0.25
-0.255
-0.28
-0.3
-0.265
-0.25
-0.245
-0.255
-0.28
-0.29
-0.28
-0.265
-0.26
-0.265
-0.27
-0.265
-0.255
-0.255
-0.265
-0.25
-0.265
-0.27
-0.235
-0.235
-0.245
-0.26
-0.26
-0.27
-0.26
-0.24
-0.23
-0.25
-0.27
-0.275
-0.275
-0.23
-0.225
-0.25
-0.265
-0.28
-0.26
-0.24
-0.235
-0.24
-0.255
-0.265
-0.255
-0.235
-0.22
-0.23
-0.22
-0.22
-0.21
-0.2
-0.195
-0.2
-0.2
-0.18
-0.165
-0.175
-0.18
-0.19
-0.21
-0.19
-0.18
-0.16
-0.155
-0.17
-0.195
-0.23
-0.23
-0.225
-0.225
-0.2
-0.23
-0.25
-0.255
-0.245
-0.245
-0.255
-0.275
-0.28
-0.29
-0.28
-0.275
-0.285
-0.29
-0.295
-0.285
-0.255
-0.25
-0.275
-0.305
-0.3
-0.27
-0.24
-0.235
-0.24
-0.28
-0.28
-0.25
-0.235
-0.22
-0.225
-0.25
-0.255
-0.265
-0.245
-0.25
-0.245
-0.19
-0.095
0.03
0.135
0.225
0.32
0.41
0.515
0.65
0.805
0.965
1.1
1.22
1.35
1.535
1.725
1.885
1.94
1.895
1.71
1.41
1.035
0.675
0.42
0.3
0.25
0.235
0.26
0.255
0.235
0.205
0.175
0.14
0.11
0.07
0.005
-0.045
-0.07
-0.07
-0.1
-0.125
-0.18
-0.225
-0.26
-0.28
-0.29
-0.31
-0.355
-0.385
-0.4
-0.425
-0.415
-0.41
-0.405
-0.425
-0.43
-0.435
-0.425
-0.425
-0.44
-0.445
-0.45
-0.445
-0.43
-0.445
-0.475
-0.47
-0.475
-0.465
