Lead II
-0.585
-0.58
-0.575
-0.595
-0.59
-0.61
-0.6
-0.6
-0.6
-0.6
-0.595
-0.59
-0.585
-0.58
-0.585
-0.585
-0.59
-0.595
-0.595
-0.595
-0.585
-0.575
-0.555
-0.545
-0.535
-0.525
-0.51
-0.52
-0.52
-0.52
-0.515
-0.51
-0.5
-0.48
-0.47
-0.46
-0.46
-0.485
-0.5
-0.52
-0.53
-0.55
-0.555
-0.545
-0.545
-0.545
-0.545
-0.545
-0.555
-0.57
-0.585
-0.59
-0.59
-0.595
-0.585
-0.57
-0.555
-0.555
-0.52
-0.5
-0.475
-0.42
-0.375
-0.3
-0.16
0.02
0.25
0.55
0.865
1.16
1.375
1.46
1.365
1.07
0.53
-0.11
-0.75
-1.39
-1.62
-1.555
-1.325
-1.075
-0.885
-0.755
-0.72
-0.71
-0.725
-0.705
-0.695
-0.665
-0.65
-0.635
-0.64
-0.635
-0.63
-0.64
-0.645
-0.64
-0.64
-0.64
-0.63
-0.635
-0.635
-0.63
-0.63
-0.605
-0.61
-0.585
-0.57
-0.575
-0.575
-0.585
-0.585
-0.59
-0.59
-0.59
-0.57
-0.57
-0.555
-0.545
-0.545
-0.54
-0.535
-0.54
-0.545
-0.54
-0.535
-0.525
-0.535
-0.525
-0.51
-0.495
-0.485
-0.485
-0.475
-0.49
-0.495
-0.49
-0.495
-0.48
-0.465
-0.445
-0.44
-0.43
-0.42
-0.415
-0.43
-0.42
-0.425
-0.425
-0.425
-0.42
-0.43
-0.425
-0.42
-0.41
-0.405
-0.4
-0.4
-0.415
-0.425
-0.43
-0.44
-0.435
-0.425
-0.42
-0.405
-0.415
-0.405
-0.405
-0.415
-0.405
-0.42
-0.405
-0.405
-0.385
-0.355
-0.35
-0.335
-0.32
-0.32
-0.325
-0.33
-0.335
-0.36
-0.395
-0.395
-0.405
-0.415
-0.43
-0.43
-0.435
-0.455
-0.465
-0.505
-0.525
-0.53
-0.545
-0.555
-0.555
-0.55
-0.545
-0.55
-0.55
-0.545
-0.555
-0.555
-0.57
-0.58
-0.58
-0.58
-0.575
-0.57
-0.565
-0.555
-0.56
-0.54
-0.535
-0.545
-0.545
-0.55
-0.545
-0.54
-0.54
-0.535
-0.52
-0.515
-0.505
-0.5
-0.49
-0.49
-0.47
-0.465
-0.46
-0.465
-0.465
-0.46
-0.445
-0.45
-0.43
-0.42
-0.425
-0.43
-0.44
-0.445
-0.465
-0.465
-0.45
-0.46
-0.45
-0.445
-0.44
-0.44
-0.44
-0.455
-0.47
-0.48
-0.495
-0.49
-0.49
-0.49
-0.5
-0.5
-0.495
-0.5
-0.51
-0.51
-0.505
-0.51
-0.525
-0.53
-0.535
-0.53
-0.54
-0.535
-0.525
-0.535
-0.54
-0.54
-0.545
-0.565
-0.565
-0.565
-0.55
-0.565
-0.555
-0.55
-0.545
-0.56
-0.565
-0.57
-0.575
-0.575
-0.585
-0.59
-0.59
-0.59
-0.595
-0.585
-0.59
-0.58
-0.575
-0.575
-0.59
-0.59
-0.595
-0.595
-0.605
-0.6
-0.585
-0.575
-0.57
-0.565
-0.575
-0.575
-0.585
-0.595
-0.595
-0.61
-0.595
-0.605
-0.6
-0.605
-0.585
-0.58
-0.585
-0.58
-0.585
-0.59
-0.6
-0.605
-0.615
-0.62
-0.595
-0.6
-0.605
-0.585
-0.585
-0.59
-0.605
-0.605
-0.625
-0.61
-0.62
-0.61
-0.61
-0.6
-0.575
-0.58
-0.58
-0.59
-0.58
-0.585
-0.59
-0.59
-0.59
-0.565
-0.54
-0.535
-0.515
-0.5
-0.5
-0.495
-0.495
-0.495
-0.485
-0.49
-0.485
-0.485
-0.485
-0.495
-0.485
-0.495
-0.51
-0.52
-0.52
-0.515
-0.52
-0.53
-0.525
-0.545
-0.54
-0.54
-0.555
-0.565
-0.57
-0.58
-0.58
-0.58
-0.575
-0.585
-0.565
-0.57
-0.555
-0.54
-0.52
-0.48
-0.455
-0.395
-0.29
-0.13
0.09
0.375
0.71
1.085
1.39
1.55
1.56
1.34
0.865
0.225
-0.415
-1.055
-1.54
-1.53
-1.32
-1.055
-0.845
-0.72
-0.655
-0.65
-0.645
-0.65
-0.65
-0.64
-0.63
-0.645
-0.65
-0.65
-0.64
-0.64
-0.64
-0.64
-0.63
-0.645
-0.64
-0.635
-0.635
-0.635
-0.635
-0.61
-0.605
-0.605
-0.595
-0.595
-0.595
-0.58
-0.58
-0.585
-0.585
-0.595
-0.585
-0.58
-0.565
-0.545
-0.545
-0.53
-0.51
-0.525
-0.52
-0.53
-0.535
-0.53
-0.525
-0.52
-0.515
-0.51
-0.5
-0.485
-0.49
-0.485
-0.465
-0.48
-0.485
-0.47
-0.47
-0.455
-0.445
-0.43
-0.42
-0.41
-0.41
-0.4
-0.405
-0.405
-0.41
-0.405
-0.395
-0.385
-0.36
-0.365
-0.36
-0.345
-0.35
-0.34
-0.35
-0.35
-0.36
-0.35
-0.35
-0.335
-0.335
-0.315
-0.295
-0.28
-0.275
-0.27
-0.26
-0.27
-0.255
-0.26
-0.255
-0.255
-0.25
-0.26
-0.285
-0.28
-0.305
-0.32
-0.34
-0.36
-0.375
-0.4
-0.42
-0.44
-0.44
-0.465
-0.47
-0.465
-0.475
-0.49
-0.495
-0.525
-0.53
-0.54
-0.54
-0.54
-0.54
-0.54
-0.535
-0.53
-0.53
-0.535
-0.545
-0.545
-0.55
-0.555
-0.55
-0.55
-0.555
-0.535
-0.52
-0.53
-0.53
-0.515
-0.515
-0.525
-0.535
-0.53
-0.515
-0.505
-0.495
-0.485
-0.475
-0.47
-0.46
-0.465
-0.455
-0.465
-0.475
-0.475
-0.46
-0.47
-0.46
-0.46
-0.445
-0.455
-0.46
-0.455
-0.46
-0.47
-0.475
-0.48
-0.48
-0.485
-0.49
-0.48
-0.48
-0.48
-0.485
-0.485
-0.49
-0.495
-0.51
-0.53
-0.52
-0.53
-0.53
-0.52
-0.525
-0.535
-0.53
-0.535
-0.55
-0.555
-0.56
-0.555
-0.56
-0.555
-0.56
-0.56
-0.56
-0.56
-0.56
-0.56
-0.55
-0.575
-0.59
-0.595
-0.595
-0.595
-0.575
-0.58
-0.57
-0.575
-0.595
-0.57
-0.585
-0.59
-0.595
-0.605
-0.6
-0.6
-0.6
-0.595
-0.585
-0.58
-0.58
-0.58
-0.58
-0.585
-0.59
-0.595
-0.6
-0.61
-0.605
-0.595
-0.6
-0.58
-0.59
-0.59
-0.59
-0.605
-0.605
-0.61
-0.595
-0.635
-0.6
-0.6
-0.6
-0.585
-0.58
-0.59
-0.59
-0.6
-0.595
-0.605
-0.61
-0.605
-0.595
-0.59
-0.585
-0.575
-0.57
-0.59
-0.585
-0.585
-0.59
-0.59
-0.59
-0.585
-0.58
-0.575
-0.565
-0.555
-0.56
-0.55
-0.545
-0.555
-0.55
-0.545
-0.52
-0.515
-0.495
-0.5
-0.495
-0.495
-0.495
-0.465
-0.455
-0.455
-0.46
-0.495
-0.515
-0.52
-0.545
-0.54
-0.53
-0.515
-0.51
-0.505
-0.51
-0.54
-0.55
-0.575
-0.58
-0.58
-0.6
-0.57
-0.56
-0.555
-0.53
-0.51
-0.505
-0.51
-0.495
-0.475
-0.44
-0.36
-0.22
-0.015
0.27
0.62
1.01
1.345
1.545
1.59
1.405
0.96
0.32
-0.32
-0.96
-1.515
-1.535
-1.33
-1.045
-0.81
-0.7
-0.64
-0.65
-0.655
-0.67
-0.675
-0.65
-0.64
-0.63
-0.62
-0.63
-0.63
-0.65
-0.65
-0.66
-0.66
-0.655
-0.65
-0.635
-0.62
-0.61
-0.605
-0.6
-0.605
-0.605
-0.6
-0.61
-0.61
-0.6
-0.595
-0.585
-0.565
-0.56
-0.535
-0.53
-0.53
-0.52
-0.53
-0.535
-0.535
-0.53
-0.52
-0.515
-0.51
-0.505
-0.49
-0.49
-0.475
-0.48
-0.485
-0.475
-0.475
-0.475
-0.47
-0.45
-0.435
-0.43
-0.415
-0.41
-0.4
-0.405
-0.41
-0.42
-0.42
-0.405
-0.39
-0.39
-0.375
-0.365
-0.365
-0.36
-0.36
-0.37
-0.375
-0.365
-0.37
-0.365
-0.37
-0.36
-0.35
-0.345
-0.335
-0.335
-0.335
-0.335
-0.32
-0.32
-0.33
-0.32
-0.31
-0.295
-0.275
-0.26
-0.23
-0.23
-0.22
-0.24
-0.255
-0.265
-0.29
-0.315
-0.33
-0.345
-0.365
-0.365
-0.38
-0.385
-0.415
-0.43
-0.435
-0.455
-0.49
-0.495
-0.51
-0.51
-0.505
-0.51
-0.505
-0.5
-0.51
-0.525
-0.525
-0.55
-0.555
-0.545
-0.555
-0.54
-0.535
-0.52
-0.53
-0.515
-0.5
-0.505
-0.515
-0.525
-0.525
-0.535
-0.53
-0.5
-0.485
-0.465
-0.445
-0.44
-0.43
-0.44
-0.445
-0.435
-0.43
-0.415
-0.39
-0.35
-0.335
-0.295
-0.265
-0.23
-0.21
-0.185
-0.18
-0.17
-0.17
-0.165
-0.18
-0.195
-0.225
-0.245
-0.28
-0.3
-0.335
-0.36
-0.39
-0.425
-0.435
-0.47
-0.475
-0.49
-0.495
-0.5
-0.505
-0.505
-0.525
-0.535
-0.55
-0.555
-0.575
-0.575
-0.565
-0.56
-0.56
-0.56
-0.56
-0.565
-0.555
-0.565
-0.57
-0.6
-0.63
-0.655
-0.61
-0.49
-0.25
0.12
0.57
1.005
1.35
1.535
1.465
1.155
0.585
-0.055
-0.695
-1.335
-1.615
-1.51
-1.25
-0.99
-0.78
-0.665
-0.63
-0.65
-0.67
-0.68
-0.655
-0.645
-0.62
-0.605
-0.595
-0.595
-0.62
-0.625
-0.635
-0.65
-0.655
-0.655
-0.645
-0.64
-0.63
-0.625
-0.62
-0.625
-0.615
-0.62
-0.625
-0.62
-0.625
-0.62
-0.61
-0.6
-0.585
-0.56
-0.55
-0.535
-0.525
-0.53
-0.54
-0.545
-0.535
-0.53
-0.52
-0.495
-0.485
-0.495
-0.485
-0.485
-0.475
-0.465
-0.465
-0.455
-0.45
-0.46
-0.435
-0.42
-0.4
-0.385
-0.38
-0.37
-0.38
-0.37
-0.37
-0.375
-0.375
-0.36
-0.355
-0.34
-0.325
-0.325
-0.31
-0.3
-0.3
-0.31
-0.315
-0.32
-0.33
-0.305
-0.295
-0.285
-0.27
-0.265
-0.25
-0.25
-0.255
-0.25
-0.26
-0.25
-0.235
-0.225
-0.23
-0.21
-0.21
-0.2
-0.2
-0.215
-0.235
-0.25
-0.275
-0.3
-0.33
-0.345
-0.36
-0.375
-0.385
-0.415
-0.42
-0.445
-0.455
-0.475
-0.485
-0.505
-0.52
-0.52
-0.52
-0.51
-0.51
-0.51
-0.51
-0.52
-0.525
-0.525
-0.51
-0.52
-0.535
-0.54
-0.53
-0.525
-0.515
-0.51
-0.49
-0.49
-0.49
-0.485
-0.495
-0.5
-0.495
-0.485
-0.485
-0.49
-0.49
-0.485
-0.5
-0.49
-0.475
-0.465
-0.46
-0.475
-0.49
-0.49
-0.49
-0.475
-0.47
-0.47
-0.465
-0.465
-0.475
-0.495
-0.5
-0.505
-0.515
-0.525
-0.515
-0.52
-0.525
-0.51
-0.505
-0.5
-0.505
-0.515
-0.52
-0.525
-0.525
-0.53
-0.55
-0.54
-0.535
-0.54
-0.535
-0.535
-0.545
-0.555
-0.565
-0.555
-0.57
-0.56
-0.565
-0.565
-0.56
-0.575
-0.575
-0.56
-0.56
-0.57
-0.58
-0.58
-0.595
-0.595
-0.585
-0.575
-0.58
-0.585
-0.57
-0.565
-0.575
-0.585
-0.58
-0.585
-0.595
-0.6
-0.6
-0.585
-0.575
-0.585
-0.58
-0.585
-0.59
-0.585
-0.6
-0.61
-0.61
-0.605
-0.6
-0.585
-0.58
-0.57
-0.565
-0.57
-0.585
-0.59
-0.62
-0.605
-0.605
-0.6
-0.61
-0.605
-0.6
-0.595
-0.59
-0.585
-0.595
-0.595
-0.61
-0.615
-0.625
-0.625
-0.62
-0.615
-0.605
-0.59
-0.585
-0.58
-0.58
-0.59
-0.595
-0.61
-0.615
-0.63
-0.63
-0.625
-0.625
-0.605
-0.595
-0.6
-0.595
-0.595
-0.6
-0.605
-0.6
-0.61
-0.615
-0.615
-0.6
-0.595
-0.58
-0.58
-0.585
-0.59
-0.6
-0.59
-0.605
-0.595
-0.6
-0.595
-0.59
-0.58
-0.58
-0.575
-0.575
-0.56
-0.56
-0.57
-0.575
-0.58
-0.585
-0.58
-0.575
-0.585
-0.575
-0.57
-0.57
-0.565
-0.565
-0.575
-0.58
-0.575
-0.575
-0.585
-0.565
-0.565
-0.565
-0.56
-0.56
-0.575
-0.58
-0.59
-0.585
-0.57
-0.575
-0.565
-0.57
-0.565
-0.555
-0.545
-0.555
-0.55
-0.555
-0.57
-0.565
-0.57
-0.57
-0.565
-0.555
-0.56
-0.56
-0.555
-0.54
-0.555
-0.565
-0.57
-0.56
-0.56
-0.545
-0.535
-0.52
-0.475
-0.46
-0.45
-0.445
-0.455
-0.455
-0.465
-0.475
-0.495
-0.505
-0.51
-0.5
-0.49
-0.475
-0.47
-0.47
-0.475
-0.495
-0.505
-0.525
-0.535
-0.55
-0.55
-0.54
-0.52
-0.505
-0.49
-0.48
-0.455
-0.45
-0.415
-0.375
-0.295
-0.16
0.055
0.345
0.69
1.055
1.385
1.57
1.615
1.44
1.025
0.385
-0.255
-0.895
-1.535
-1.62
-1.445
-1.16
-0.895
-0.74
-0.665
-0.66
-0.685
-0.67
-0.675
-0.655
-0.63
-0.615
-0.6
-0.6
-0.59
-0.6
-0.6
-0.615
-0.625
-0.62
-0.61
-0.62
-0.61
-0.585
-0.57
-0.565
-0.55
-0.55
-0.55
-0.54
-0.545
-0.56
-0.58
-0.575
-0.565
-0.54
-0.53
-0.52
-0.52
-0.51
-0.515
-0.52
-0.525
-0.52
-0.515
-0.52
-0.51
-0.505
-0.495
-0.47
-0.475
-0.465
-0.475
-0.48
-0.465
-0.48
-0.47
-0.455
-0.46
-0.455
-0.45
-0.43
-0.435
-0.425
-0.43
-0.415
-0.42
-0.425
-0.415
-0.43
-0.43
-0.41
-0.405
-0.395
-0.4
-0.405
-0.42
-0.425
-0.43
-0.43
-0.43
-0.42
-0.42
-0.415
-0.43
-0.425
-0.42
-0.44
-0.44
-0.435
-0.43
-0.445
-0.445
-0.435
-0.425
-0.4
-0.375
-0.35
-0.34
-0.325
-0.31
-0.31
-0.3
-0.295
-0.3
-0.285
-0.29
-0.29
-0.3
-0.305
-0.31
-0.315
-0.335
-0.335
-0.35
-0.385
-0.38
-0.4
-0.42
-0.43
-0.43
-0.425
-0.42
-0.43
-0.435
-0.455
-0.46
-0.475
-0.475
-0.5
-0.49
-0.485
-0.47
-0.46
-0.47
-0.465
-0.46
-0.455
-0.46
-0.47
-0.46
-0.45
-0.445
-0.445
-0.43
-0.405
-0.4
-0.4
-0.385
-0.385
-0.375
-0.375
-0.375
-0.38
-0.37
-0.355
-0.345
-0.335
-0.345
-0.34
-0.335
-0.34
-0.335
-0.355
-0.345
-0.335
-0.34
-0.345
-0.33
-0.335
-0.33
-0.335
-0.34
-0.345
-0.355
-0.355
-0.365
-0.375
-0.375
-0.375
-0.375
-0.365
-0.37
-0.37
-0.38
-0.4
-0.41
-0.425
-0.43
-0.435
-0.43
-0.435
-0.43
-0.43
-0.43
-0.43
-0.44
-0.455
-0.455
-0.47
-0.475
-0.48
-0.48
-0.48
-0.485
-0.475
-0.485
-0.485
-0.49
-0.485
-0.49
-0.51
-0.52
-0.525
-0.525
-0.52
-0.5
-0.485
-0.485
-0.5
-0.5
-0.505
-0.52
-0.53
-0.535
-0.53
-0.535
-0.53
-0.53
-0.53
-0.52
-0.525
-0.525
-0.525
-0.525
-0.53
-0.54
-0.54
-0.545
-0.54
-0.535
-0.525
-0.535
-0.535
-0.535
-0.545
-0.55
-0.565
-0.555
-0.555
-0.545
-0.535
-0.525
-0.525
-0.51
-0.54
-0.535
-0.55
-0.555
-0.56
-0.555
-0.57
-0.565
-0.56
-0.545
-0.54
-0.53
-0.525
-0.525
-0.535
-0.54
-0.545
-0.545
-0.545
-0.55
-0.555
-0.555
-0.545
-0.53
-0.53
-0.53
-0.54
-0.55
-0.56
-0.56
-0.54
-0.545
-0.545
-0.535
-0.53
-0.515
-0.52
-0.52
-0.52
-0.53
-0.535
-0.535
-0.535
-0.515
-0.495
-0.465
-0.44
-0.43
-0.42
-0.425
-0.44
-0.445
-0.45
-0.45
-0.445
-0.45
-0.455
-0.47
-0.465
-0.475
-0.47
-0.475
-0.475
-0.485
-0.5
-0.51
-0.515
-0.525
-0.535
-0.54
-0.505
-0.495
-0.495
-0.48
-0.48
-0.47
-0.455
-0.395
-0.325
-0.185
-0.01
0.25
0.575
0.965
1.3
1.54
1.605
1.46
1.03
0.39
-0.25
-0.89
-1.53
-1.6
-1.385
-1.095
-0.855
-0.695
-0.64
-0.65
-0.665
-0.675
-0.665
-0.645
-0.615
-0.615
-0.595
-0.6
-0.615
-0.625
-0.62
-0.625
-0.62
-0.62
-0.615
-0.61
-0.61
-0.59
-0.58
-0.57
-0.575
-0.565
-0.575
-0.6
-0.575
-0.58
-0.58
-0.575
-0.555
-0.54
-0.54
-0.53
-0.53
-0.515
-0.525
-0.52
-0.525
-0.525
-0.515
-0.5
-0.495
-0.495
-0.48
-0.48
-0.48
-0.48
-0.49
-0.49
-0.49
-0.49
-0.48
-0.46
-0.45
-0.45
-0.435
-0.425
-0.425
-0.43
-0.43
-0.43
-0.43
-0.425
-0.43
-0.43
-0.415
-0.415
-0.415
-0.4
-0.4
-0.4
-0.405
-0.41
-0.42
-0.43
-0.43
-0.425
-0.425
-0.41
-0.415
-0.4
-0.405
-0.41
-0.42
-0.42
-0.42
-0.415
-0.4
-0.4
-0.38
-0.36
-0.345
-0.33
-0.32
-0.315
-0.31
-0.32
-0.325
-0.325
-0.34
-0.345
-0.355
-0.35
-0.36
-0.38
-0.395
-0.41
-0.43
-0.445
-0.46
-0.46
-0.48
-0.485
-0.485
-0.495
-0.495
-0.5
-0.52
-0.53
-0.535
-0.545
-0.56
-0.56
-0.57
-0.57
-0.55
-0.545
-0.55
-0.525
-0.53
-0.53
-0.535
-0.54
-0.54
-0.545
-0.53
-0.53
-0.515
-0.515
-0.5
-0.505
-0.495
-0.49
-0.49
-0.5
-0.495
-0.49
-0.49
-0.48
-0.465
-0.46
-0.455
-0.445
-0.445
-0.455
-0.465
-0.455
-0.465
-0.47
-0.47
-0.47
-0.455
-0.46
-0.445
-0.455
-0.455
-0.47
-0.48
-0.49
-0.49
-0.495
-0.505
-0.495
-0.495
-0.495
-0.49
-0.505
-0.515
-0.515
-0.53
-0.53
-0.53
-0.535
-0.535
-0.545
-0.55
-0.53
-0.53
-0.53
-0.545
-0.54
-0.545
-0.56
-0.56
-0.57
-0.56
-0.555
-0.555
-0.55
-0.555
-0.56
-0.56
-0.565
-0.575
-0.585
-0.575
-0.59
-0.58
-0.585
-0.585
-0.585
-0.575
-0.565
-0.58
-0.59
-0.595
-0.6
-0.6
-0.61
-0.605
-0.595
-0.585
-0.575
-0.565
-0.56
-0.58
-0.585
-0.59
-0.585
-0.595
-0.605
-0.605
-0.6
-0.595
-0.59
-0.59
-0.58
-0.585
-0.58
-0.6
-0.59
-0.6
-0.6
-0.595
-0.595
-0.595
-0.585
-0.575
-0.575
-0.585
-0.585
-0.585
-0.59
-0.595
-0.595
-0.58
-0.585
-0.58
-0.595
-0.58
-0.585
-0.57
-0.57
-0.58
-0.59
-0.59
-0.6
-0.595
-0.59
-0.58
-0.565
-0.565
-0.55
-0.545
-0.55
-0.545
-0.545
-0.53
-0.515
-0.51
-0.505
-0.495
-0.495
-0.48
-0.47
-0.46
-0.46
-0.475
-0.48
-0.5
-0.53
-0.535
-0.55
-0.55
-0.55
-0.54
-0.525
-0.515
-0.505
-0.52
-0.535
-0.565
-0.575
-0.59
-0.58
-0.58
-0.565
-0.555
-0.54
-0.535
-0.525
-0.515
-0.49
-0.47
-0.435
-0.36
-0.205
0.005
0.29
0.65
1.025
1.35
1.57
1.635
1.48
1.1
0.47
-0.17
-0.81
-1.41
-1.515
-1.37
-1.105
-0.885
-0.725
-0.665
-0.67
-0.68
-0.705
-0.695
-0.67
-0.64
-0.625
-0.61
-0.625
-0.63
-0.645
-0.66
-0.65
-0.67
-0.675
-0.66
-0.66
-0.64
-0.645
-0.63
-0.62
-0.625
-0.605
-0.62
-0.63
-0.625
-0.63
-0.62
-0.615
-0.61
-0.59
-0.585
-0.555
-0.56
-0.55
-0.555
-0.555
-0.555
-0.55
-0.545
-0.535
-0.52
-0.52
-0.51
-0.5
-0.495
-0.495
-0.5
-0.51
-0.51
-0.515
-0.485
-0.48
-0.475
-0.475
-0.45
-0.44
-0.43
-0.435
-0.43
-0.425
-0.43
-0.43
-0.425
-0.41
-0.395
-0.39
-0.375
-0.36
-0.365
-0.37
-0.365
-0.38
-0.37
-0.37
-0.365
-0.365
-0.36
-0.355
-0.35
-0.345
-0.34
-0.34
-0.35
-0.35
-0.35
-0.345
-0.365
-0.34
-0.335
-0.32
-0.315
-0.29
-0.28
-0.275
-0.275
-0.27
-0.265
-0.265
-0.25
-0.245
-0.235
-0.24
-0.24
-0.25
-0.26
-0.275
-0.285
-0.305
-0.33
-0.35
-0.375
-0.38
-0.405
-0.405
-0.42
-0.435
-0.44
-0.46
-0.475
-0.495
-0.515
-0.53
-0.54
-0.54
-0.535
-0.53
-0.525
-0.525
-0.535
-0.535
-0.54
-0.545
-0.55
-0.555
-0.545
-0.55
-0.535
-0.53
-0.52
-0.525
-0.51
-0.51
-0.515
-0.52
-0.52
-0.515
-0.515
-0.505
-0.495
-0.47
-0.475
-0.46
-0.46
-0.45
-0.47
-0.465
-0.475
-0.47
-0.47
-0.475
-0.465
-0.46
-0.455
-0.46
-0.45
-0.46
-0.465
-0.475
-0.485
-0.485
-0.49
-0.495
-0.485
-0.485
-0.48
-0.475
-0.49
-0.48
-0.505
-0.515
-0.52
-0.525
-0.52
-0.525
-0.51
-0.515
-0.525
-0.525
-0.535
-0.555
-0.545
-0.55
-0.57
-0.57
-0.57
-0.57
-0.57
-0.56
-0.555
-0.56
-0.56
-0.56
-0.565
-0.585
-0.595
-0.595
-0.6
-0.595
-0.595
-0.59
-0.59
-0.585
-0.59
-0.59
-0.605
-0.605
-0.61
-0.6
-0.61
-0.605
-0.61
-0.6
-0.585
-0.58
-0.58
-0.59
-0.59
-0.62
-0.625
-0.63
-0.625
-0.615
-0.605
-0.605
-0.605
-0.595
-0.59
-0.59
-0.595
-0.605
-0.615
-0.615
-0.62
-0.62
-0.615
-0.61
-0.595
-0.605
-0.605
-0.6
-0.61
-0.605
-0.615
-0.615
-0.61
-0.615
-0.605
-0.6
-0.595
-0.59
-0.59
-0.58
-0.595
-0.6
-0.615
-0.625
-0.605
-0.6
-0.59
-0.58
-0.575
-0.57
-0.56
-0.565
-0.555
-0.555
-0.56
-0.535
-0.53
-0.515
-0.515
-0.515
-0.495
-0.485
-0.475
-0.47
-0.47
-0.485
-0.51
-0.545
-0.565
-0.56
-0.56
-0.55
-0.55
-0.535
-0.53
-0.54
-0.555
-0.57
-0.59
-0.6
-0.605
-0.61
-0.61
-0.605
-0.595
-0.58
-0.58
-0.58
-0.555
-0.56
-0.56
-0.53
-0.52
-0.475
-0.43
-0.34
-0.185
0.01
0.26
0.585
0.92
1.245
1.49
1.585
1.54
1.3
0.82
0.18
-0.46
-1.1
-1.49
-1.48
-1.28
-1.035
-0.84
-0.725
-0.675
-0.675
-0.685
-0.675
-0.66
-0.645
-0.64
-0.63
-0.65
-0.67
-0.69
-0.695
-0.69
-0.695
-0.675
-0.65
-0.65
-0.63
-0.635
-0.63
-0.64
-0.64
-0.63
-0.635
-0.63
-0.625
-0.615
-0.59
-0.59
-0.585
-0.58
-0.57
-0.575
-0.58
-0.585
-0.58
-0.565
-0.555
-0.555
-0.54
-0.525
-0.515
-0.515
-0.505
-0.52
-0.53
-0.525
-0.535
-0.525
-0.52
-0.49
-0.495
-0.48
-0.465
-0.455
-0.455
-0.455
-0.465
-0.465
-0.455
-0.445
-0.44
-0.425
-0.415
-0.415
-0.41
-0.395
-0.41
-0.405
-0.41
-0.405
-0.4
-0.39
-0.395
-0.38
-0.37
-0.365
-0.36
-0.36
-0.37
-0.39
-0.385
-0.4
-0.39
-0.38
-0.395
-0.365
-0.36
-0.36
-0.34
-0.345
-0.335
-0.315
-0.31
-0.305
-0.285
-0.285
-0.285
-0.285
-0.285
-0.285
-0.3
-0.315
-0.32
-0.335
-0.36
-0.39
-0.405
-0.42
-0.43
-0.44
-0.455
-0.46
-0.47
-0.485
-0.5
-0.51
-0.52
-0.53
-0.545
-0.535
-0.545
-0.545
-0.54
-0.555
-0.56
-0.56
-0.55
-0.545
-0.55
-0.555
-0.555
-0.545
-0.56
-0.555
-0.54
-0.52
-0.51
-0.505
-0.5
-0.505
-0.505
-0.515
-0.505
-0.5
-0.49
-0.485
-0.47
-0.46
-0.445
-0.435
-0.435
-0.435
-0.44
-0.445
-0.46
-0.465
-0.46
-0.46
-0.45
-0.445
-0.445
-0.445
-0.44
-0.455
-0.46
-0.46
-0.485
-0.47
-0.48
-0.47
-0.48
-0.475
-0.47
-0.48
-0.475
-0.49
-0.5
-0.525
-0.52
-0.54
-0.535
-0.535
-0.52
-0.52
-0.52
-0.515
-0.52
-0.535
-0.56
-0.555
-0.565
-0.575
-0.575
-0.565
-0.56
-0.555
-0.545
-0.535
-0.545
-0.555
-0.56
-0.565
-0.57
-0.575
-0.59
-0.59
-0.58
-0.57
-0.565
-0.57
-0.575
-0.58
-0.58
-0.58
-0.58
-0.59
-0.585
-0.58
-0.58
-0.58
-0.57
-0.575
-0.57
-0.58
-0.58
-0.6
-0.61
-0.605
-0.605
-0.595
-0.595
-0.59
-0.575
-0.575
-0.585
-0.59
-0.605
-0.615
-0.615
-0.6
-0.595
-0.605
-0.595
-0.59
-0.595
-0.585
-0.595
-0.595
-0.595
-0.61
-0.61
-0.605
-0.605
-0.605
-0.6
-0.59
-0.585
-0.58
-0.585
-0.58
-0.6
-0.605
-0.615
-0.605
-0.6
-0.585
-0.575
-0.57
-0.565
-0.57
-0.565
-0.565
-0.565
-0.555
-0.545
-0.53
-0.51
-0.5
-0.49
-0.48
-0.485
-0.49
-0.47
-0.465
-0.465
-0.47
-0.485
-0.505
-0.515
-0.54
-0.55
-0.54
-0.535
-0.535
-0.535
-0.54
-0.55
-0.555
-0.565
-0.57
-0.575
-0.575
-0.575
-0.57
-0.545
-0.555
-0.55
-0.545
-0.535
-0.53
-0.515
-0.485
-0.45
-0.385
-0.28
-0.13
0.08
0.34
0.665
1.0
1.315
1.53
1.615
1.515
1.2
0.625
-0.015
-0.655
-1.295
-1.745
-1.645
-1.375
-1.08
-0.875
-0.765
-0.735
-0.74
-0.74
-0.72
-0.685
-0.645
-0.615
-0.6
-0.605
-0.625
-0.65
-0.65
-0.675
-0.68
-0.67
-0.655
-0.64
-0.64
-0.615
-0.605
-0.6
-0.61
-0.615
-0.63
-0.625
-0.62
-0.62
-0.61
-0.585
-0.575
-0.56
-0.57
-0.58
-0.58
-0.575
-0.58
-0.565
-0.565
-0.555
-0.55
-0.54
-0.525
-0.52
-0.505
-0.5
-0.51
-0.505
-0.51
-0.52
-0.515
-0.5
-0.49
-0.46
-0.455
-0.455
-0.45
-0.445
-0.45
-0.46
-0.47
-0.46
-0.465
-0.45
-0.425
-0.425
-0.405
-0.405
-0.395
-0.38
-0.4
-0.405
-0.4
-0.405
-0.415
-0.415
-0.405
-0.4
-0.395
-0.395
-0.4
-0.41
-0.41
-0.41
-0.415
-0.405
-0.41
-0.42
-0.41
-0.39
-0.385
-0.37
-0.365
-0.355
-0.345
-0.345
-0.335
-0.335
-0.34
-0.345
-0.33
-0.34
-0.345
-0.345
-0.37
-0.4
-0.415
-0.445
-0.45
-0.465
-0.48
-0.49
-0.51
-0.515
-0.51
-0.515
-0.515
-0.52
-0.53
-0.545
-0.555
-0.575
-0.565
-0.565
-0.56
-0.55
-0.53
-0.545
-0.54
-0.56
-0.55
-0.55
-0.555
-0.55
-0.54
-0.53
-0.515
-0.51
-0.5
-0.485
-0.48
-0.48
-0.485
-0.48
-0.48
-0.485
-0.48
-0.47
-0.455
-0.445
-0.43
-0.43
-0.425
-0.43
-0.44
-0.445
-0.44
-0.435
-0.43
-0.425
-0.42
-0.425
-0.42
-0.42
-0.445
-0.44
-0.45
-0.45
-0.465
-0.465
-0.46
-0.475
-0.47
-0.45
-0.455
-0.455
-0.475
-0.48
-0.485
-0.51
-0.515
-0.515
-0.5
-0.495
-0.505
-0.505
-0.51
-0.515
-0.535
-0.54
-0.555
-0.565
-0.56
-0.565
-0.56
-0.55
-0.545
-0.54
-0.53
-0.53
-0.54
-0.54
-0.55
-0.57
-0.58
-0.585
-0.585
-0.585
-0.575
-0.575
-0.555
-0.56
-0.575
-0.595
-0.585
-0.595
-0.605
-0.61
-0.59
-0.59
-0.575
-0.575
-0.565
-0.575
-0.565
-0.575
-0.585
-0.595
-0.605
-0.61
-0.61
-0.61
-0.605
-0.59
-0.57
-0.575
-0.585
-0.575
-0.58
-0.585
-0.605
-0.605
-0.605
-0.605
-0.59
-0.585
-0.58
-0.58
-0.6
-0.6
-0.59
-0.605
-0.61
-0.585
-0.585
-0.585
-0.585
-0.575
-0.575
-0.57
-0.58
-0.575
-0.575
-0.58
-0.575
-0.575
-0.56
-0.54
-0.505
-0.5
-0.485
-0.47
-0.47
-0.47
-0.47
-0.48
-0.47
-0.46
-0.45
-0.45
-0.47
-0.47
-0.475
-0.49
-0.495
-0.505
-0.52
-0.52
-0.53
-0.525
-0.545
-0.545
-0.55
-0.555
-0.55
-0.565
-0.56
-0.575
-0.57
-0.58
-0.56
-0.555
-0.55
-0.535
-0.51
-0.49
-0.455
-0.41
-0.355
-0.255
-0.105
0.085
0.38
0.725
1.085
1.41
1.605
1.64
1.485
1.06
0.42
-0.22
-0.86
-1.5
-1.76
-1.54
-1.24
-0.975
-0.78
-0.68
-0.665
-0.68
-0.67
-0.66
-0.645
-0.625
-0.615
-0.625
-0.62
-0.63
-0.635
-0.63
-0.62
-0.625
-0.63
-0.625
-0.62
-0.615
-0.615
-0.61
-0.6
-0.595
-0.59
-0.585
-0.575
-0.565
-0.565
-0.58
-0.585
-0.6
-0.6
-0.59
-0.58
-0.565
-0.545
-0.535
-0.535
-0.525
-0.525
-0.525
-0.52
-0.525
-0.525
-0.52
-0.515
-0.51
-0.505
-0.5
-0.485
-0.48
-0.48
-0.475
-0.47
-0.47
-0.475
-0.48
-0.465
-0.46
-0.445
-0.42
-0.42
-0.415
-0.41
-0.42
-0.415
-0.415
-0.41
-0.415
-0.4
-0.395
-0.39
-0.385
-0.38
-0.385
-0.39
-0.39
-0.405
-0.41
-0.41
-0.42
-0.425
-0.425
-0.41
-0.405
-0.385
-0.375
-0.37
-0.375
-0.38
-0.39
-0.38
-0.34
-0.33
-0.315
-0.31
-0.305
-0.29
-0.305
-0.315
-0.32
-0.355
-0.36
-0.385
-0.405
-0.42
-0.435
-0.44
-0.44
-0.45
-0.46
-0.485
-0.5
-0.505
-0.535
-0.54
-0.55
-0.555
-0.535
-0.54
-0.535
-0.53
-0.525
-0.545
-0.535
-0.545
-0.55
-0.555
-0.555
-0.545
-0.55
-0.55
-0.54
-0.53
-0.51
-0.51
-0.505
-0.51
-0.52
-0.515
-0.515
-0.51
-0.52
-0.49
-0.47
-0.455
-0.455
-0.445
-0.455
-0.45
-0.445
-0.46
-0.465
-0.47
-0.455
-0.445
-0.44
-0.415
-0.42
-0.44
-0.435
-0.445
-0.45
-0.455
-0.455
-0.46
-0.455
-0.465
-0.445
-0.44
-0.435
-0.465
-0.475
-0.495
-0.505
-0.5
-0.505
-0.495
-0.5
-0.5
-0.5
-0.5
-0.495
-0.495
-0.5
-0.51
-0.52
-0.53
-0.535
-0.535
-0.55
-0.55
-0.545
-0.535
-0.54
-0.555
-0.555
-0.55
-0.56
-0.57
-0.585
-0.585
-0.58
-0.57
-0.56
-0.55
-0.55
-0.575
-0.57
-0.58
-0.58
-0.59
-0.585
-0.585
-0.59
-0.575
-0.575
-0.57
-0.565
-0.57
-0.565
-0.57
-0.585
-0.595
-0.595
-0.595
-0.6
-0.585
-0.58
-0.575
-0.58
-0.58
-0.575
-0.59
-0.6
-0.61
-0.6
-0.595
-0.59
-0.58
-0.58
-0.6
-0.59
-0.6
-0.595
-0.595
-0.59
-0.6
-0.62
-0.62
-0.62
-0.61
-0.605
-0.585
-0.58
-0.58
-0.58
-0.59
-0.605
-0.61
-0.62
-0.615
-0.595
-0.595
-0.575
-0.575
-0.575
-0.58
-0.585
-0.585
-0.595
-0.6
-0.595
-0.575
-0.575
-0.59
-0.56
-0.545
-0.53
-0.52
-0.515
-0.52
-0.515
-0.51
-0.505
-0.505
-0.49
-0.49
-0.49
-0.49
-0.51
-0.525
-0.535
-0.545
-0.555
-0.555
-0.565
-0.56
-0.57
-0.565
-0.58
-0.585
-0.59
-0.605
-0.6
-0.6
-0.59
-0.59
-0.575
-0.57
-0.58
-0.54
-0.505
-0.475
-0.42
-0.33
-0.165
0.06
0.375
0.745
1.125
1.425
1.585
1.575
1.345
0.865
0.225
-0.415
-1.055
-1.58
-1.585
-1.375
-1.09
-0.87
-0.73
-0.685
-0.69
-0.68
-0.69
-0.675
-0.65
-0.64
-0.635
-0.64
-0.645
-0.66
-0.66
-0.66
-0.665
-0.65
-0.645
-0.63
-0.645
-0.645
-0.64
-0.65
-0.64
-0.625
-0.62
-0.62
-0.6
-0.605
-0.605
-0.59
-0.6
-0.6
-0.595
-0.6
-0.605
-0.605
-0.58
-0.565
-0.555
-0.545
-0.535
-0.535
-0.545
-0.545
-0.545
-0.54
-0.54
-0.535
-0.52
-0.51
-0.505
-0.49
-0.485
-0.485
-0.475
-0.475
-0.47
-0.48
-0.475
-0.465
-0.46
-0.455
-0.435
-0.425
-0.42
-0.42
-0.405
-0.405
-0.41
-0.395
-0.395
-0.39
-0.38
-0.385
-0.37
-0.365
-0.365
-0.37
-0.375
-0.385
-0.38
-0.38
-0.38
-0.36
-0.365
-0.355
-0.355
-0.335
-0.345
-0.33
-0.335
-0.325
-0.33
-0.325
-0.305
-0.295
-0.29
-0.27
-0.26
-0.24
-0.23
-0.22
-0.235
-0.26
-0.27
-0.29
-0.325
-0.345
-0.35
-0.345
-0.365
-0.38
-0.39
-0.41
-0.43
-0.445
-0.47
-0.5
-0.505
-0.515
-0.525
-0.52
-0.53
-0.52
-0.525
-0.52
-0.535
-0.545
-0.555
-0.555
-0.57
-0.58
-0.56
-0.555
-0.545
-0.54
-0.535
-0.535
-0.535
-0.545
-0.54
-0.545
-0.545
-0.54
-0.525
-0.525
-0.52
-0.505
-0.5
-0.5
-0.485
-0.495
-0.49
-0.49
-0.49
-0.485
-0.485
-0.47
-0.48
-0.475
-0.455
-0.45
-0.46
-0.46
-0.47
-0.475
-0.475
-0.485
-0.47
-0.47
-0.475
-0.475
-0.475
-0.465
-0.475
-0.485
-0.49
-0.495
-0.5
-0.505
-0.505
-0.505
-0.515
-0.505
-0.505
-0.51
-0.505
-0.515
-0.515
-0.535
-0.54
-0.54
-0.54
-0.545
-0.54
-0.53
-0.525
-0.545
-0.55
-0.56
-0.575
-0.585
-0.59
-0.585
-0.575
-0.575
-0.565
-0.56
-0.565
-0.57
-0.585
-0.58
-0.58
-0.595
-0.61
-0.595
-0.6
-0.595
