Lead II
-0.49
-0.5
-0.505
-0.515
-0.5
-0.49
-0.485
-0.505
-0.515
-0.505
-0.505
-0.495
-0.505
-0.515
-0.515
-0.5
-0.515
-0.505
-0.495
-0.505
-0.51
-0.505
-0.495
-0.51
-0.52
-0.545
-0.59
-0.635
-0.645
-0.63
-0.595
-0.54
-0.465
-0.285
-0.005
0.345
0.695
1.0
1.29
1.5
1.59
1.53
1.225
0.665
0.025
-0.545
-0.855
-1.025
-0.99
-0.945
-0.86
-0.71
-0.62
-0.59
-0.605
-0.62
-0.62
-0.605
-0.595
-0.6
-0.62
-0.625
-0.64
-0.625
-0.615
-0.62
-0.62
-0.615
-0.62
-0.61
-0.615
-0.63
-0.64
-0.64
-0.64
-0.625
-0.605
-0.61
-0.62
-0.63
-0.64
-0.625
-0.625
-0.62
-0.61
-0.62
-0.625
-0.595
-0.605
-0.595
-0.605
-0.605
-0.6
-0.59
-0.565
-0.565
-0.57
-0.59
-0.59
-0.58
-0.545
-0.54
-0.535
-0.555
-0.545
-0.535
-0.52
-0.5
-0.5
-0.5
-0.495
-0.47
-0.455
-0.445
-0.43
-0.42
-0.42
-0.385
-0.36
-0.345
-0.325
-0.32
-0.305
-0.275
-0.255
-0.24
-0.225
-0.22
-0.21
-0.185
-0.155
-0.15
-0.145
-0.145
-0.13
-0.115
-0.1
-0.08
-0.085
-0.08
-0.1
-0.09
-0.085
-0.095
-0.11
-0.135
-0.155
-0.165
-0.175
-0.205
-0.24
-0.265
-0.305
-0.315
-0.33
-0.355
-0.385
-0.41
-0.43
-0.45
-0.435
-0.455
-0.47
-0.49
-0.495
-0.5
-0.5
-0.495
-0.5
-0.51
-0.51
-0.52
-0.505
-0.515
-0.515
-0.515
-0.51
-0.51
-0.495
-0.485
-0.51
-0.5
-0.5
-0.49
-0.47
-0.47
-0.465
-0.47
-0.47
-0.445
-0.445
-0.445
-0.465
-0.455
-0.45
-0.45
-0.445
-0.445
-0.45
-0.455
-0.465
-0.455
-0.45
-0.44
-0.435
-0.44
-0.45
-0.445
-0.43
-0.445
-0.44
-0.455
-0.45
-0.45
-0.435
-0.44
-0.445
-0.455
-0.455
-0.45
-0.45
-0.455
-0.465
-0.47
-0.475
-0.46
-0.46
-0.465
-0.47
-0.48
-0.49
-0.48
-0.48
-0.49
-0.48
-0.5
-0.505
-0.495
-0.49
-0.5
-0.505
-0.51
-0.52
-0.505
-0.495
-0.505
-0.51
-0.515
-0.51
-0.505
-0.51
-0.505
-0.52
-0.525
-0.535
-0.52
-0.51
-0.51
-0.525
-0.53
-0.53
-0.525
-0.52
-0.525
-0.525
-0.535
-0.535
-0.53
-0.525
-0.515
-0.52
-0.525
-0.52
-0.51
-0.515
-0.52
-0.525
-0.53
-0.53
-0.53
-0.515
-0.525
-0.53
-0.525
-0.52
-0.51
-0.515
-0.52
-0.52
-0.52
-0.525
-0.505
-0.505
-0.515
-0.515
-0.53
-0.53
-0.51
-0.505
-0.505
-0.51
-0.525
-0.525
-0.505
-0.5
-0.495
-0.51
-0.515
-0.515
-0.505
-0.495
-0.49
-0.505
-0.505
-0.52
-0.505
-0.485
-0.49
-0.5
-0.515
-0.51
-0.505
-0.485
-0.48
-0.5
-0.505
-0.51
-0.495
-0.485
-0.495
-0.5
-0.515
-0.515
-0.5
-0.495
-0.49
-0.505
-0.505
-0.505
-0.485
-0.49
-0.505
-0.49
-0.505
-0.505
-0.5
-0.48
-0.49
-0.485
-0.5
-0.505
-0.485
-0.48
-0.47
-0.48
-0.49
-0.49
-0.485
-0.47
-0.475
-0.485
-0.49
-0.49
-0.48
-0.465
-0.47
-0.47
-0.46
-0.46
-0.43
-0.41
-0.4
-0.405
-0.385
-0.385
-0.375
-0.37
-0.37
-0.355
-0.365
-0.355
-0.35
-0.34
-0.33
-0.345
-0.35
-0.34
-0.345
-0.35
-0.355
-0.38
-0.395
-0.41
-0.39
-0.38
-0.37
-0.375
-0.38
-0.405
-0.395
-0.39
-0.41
-0.435
-0.45
-0.455
-0.455
-0.455
-0.47
-0.475
-0.49
-0.5
-0.5
-0.49
-0.495
-0.495
-0.5
-0.495
-0.495
-0.48
-0.485
-0.495
-0.495
-0.51
-0.48
-0.47
-0.47
-0.49
-0.505
-0.54
-0.565
-0.605
-0.625
-0.595
-0.54
-0.465
-0.315
-0.045
0.32
0.69
1.04
1.355
1.58
1.68
1.56
1.21
0.64
0.055
-0.395
-0.64
-0.71
-0.695
-0.66
-0.605
-0.505
-0.42
-0.4
-0.43
-0.45
-0.47
-0.44
-0.435
-0.44
-0.47
-0.475
-0.49
-0.49
-0.475
-0.475
-0.485
-0.495
-0.495
-0.49
-0.48
-0.49
-0.505
-0.51
-0.51
-0.495
-0.49
-0.48
-0.485
-0.49
-0.505
-0.485
-0.48
-0.475
-0.475
-0.485
-0.495
-0.48
-0.475
-0.47
-0.475
-0.485
-0.475
-0.465
-0.455
-0.45
-0.455
-0.46
-0.47
-0.445
-0.415
-0.41
-0.41
-0.415
-0.41
-0.38
-0.375
-0.37
-0.365
-0.365
-0.35
-0.32
-0.31
-0.295
-0.275
-0.285
-0.27
-0.225
-0.205
-0.185
-0.17
-0.165
-0.15
-0.115
-0.11
-0.095
-0.09
-0.08
-0.06
-0.025
0.005
0.005
0.015
0.02
0.025
0.05
0.07
0.085
0.09
0.09
0.09
0.105
0.115
0.11
0.105
0.095
0.09
0.09
0.09
0.075
0.06
0.04
0.01
-0.015
-0.02
-0.035
-0.06
-0.09
-0.12
-0.145
-0.145
-0.165
-0.2
-0.21
-0.225
-0.23
-0.225
-0.245
-0.265
-0.275
-0.295
-0.295
-0.285
-0.29
-0.305
-0.32
-0.33
-0.31
-0.305
-0.305
-0.32
-0.32
-0.315
-0.305
-0.29
-0.3
-0.3
-0.305
-0.305
-0.295
-0.3
-0.295
-0.3
-0.31
-0.305
-0.285
-0.275
-0.275
-0.275
-0.28
-0.29
-0.28
-0.255
-0.255
-0.27
-0.27
-0.27
-0.26
-0.255
-0.25
-0.27
-0.29
-0.265
-0.26
-0.235
-0.245
-0.26
-0.255
-0.27
-0.255
-0.24
-0.25
-0.245
-0.255
-0.27
-0.255
-0.245
-0.24
-0.26
-0.26
-0.275
-0.26
-0.255
-0.25
-0.265
-0.285
-0.285
-0.275
-0.265
-0.27
-0.28
-0.275
-0.295
-0.285
-0.255
-0.255
-0.28
-0.31
-0.315
-0.3
-0.275
-0.29
-0.3
-0.31
-0.305
-0.295
-0.285
-0.3
-0.32
-0.315
-0.31
-0.305
-0.295
-0.3
-0.305
-0.31
-0.31
-0.305
-0.29
-0.285
-0.29
-0.3
-0.29
-0.29
-0.275
-0.285
-0.29
-0.305
-0.29
-0.28
-0.27
-0.29
-0.295
-0.295
-0.29
-0.28
-0.27
-0.275
-0.275
-0.28
-0.3
-0.28
-0.27
-0.28
-0.29
-0.295
-0.3
-0.285
-0.27
-0.26
-0.265
-0.28
-0.275
-0.27
-0.255
-0.27
-0.265
-0.28
-0.265
-0.26
-0.255
-0.26
-0.26
-0.25
-0.255
-0.24
-0.215
-0.22
-0.225
-0.225
-0.22
-0.195
-0.175
-0.175
-0.175
-0.18
-0.185
-0.165
-0.145
-0.145
-0.155
-0.155
-0.165
-0.155
-0.14
-0.14
-0.14
-0.165
-0.175
-0.17
-0.18
-0.19
-0.21
-0.2
-0.195
-0.175
-0.165
-0.17
-0.195
-0.22
-0.225
-0.23
-0.225
-0.24
-0.255
-0.275
-0.275
-0.27
-0.265
-0.275
-0.285
-0.29
-0.295
-0.29
-0.28
-0.295
-0.295
-0.3
-0.295
-0.28
-0.27
-0.265
-0.28
-0.29
-0.285
-0.28
-0.28
-0.285
-0.295
-0.34
-0.385
-0.405
-0.39
-0.35
-0.295
-0.22
-0.065
0.215
0.55
0.855
1.155
1.415
1.62
1.74
1.73
1.525
1.105
0.555
0.035
-0.315
-0.505
-0.55
-0.545
-0.5
-0.415
-0.295
-0.225
-0.235
-0.255
-0.275
-0.285
-0.26
-0.25
-0.255
-0.27
-0.295
-0.3
-0.29
-0.285
-0.3
-0.305
-0.3
-0.305
-0.295
-0.295
-0.295
-0.305
-0.31
-0.32
-0.315
-0.31
-0.3
-0.305
-0.305
-0.305
-0.305
-0.285
-0.295
-0.29
-0.295
-0.285
-0.29
-0.265
-0.275
-0.27
-0.28
-0.295
-0.285
-0.275
-0.275
-0.275
-0.285
-0.27
-0.25
-0.245
-0.245
-0.225
-0.23
-0.23
-0.22
-0.19
-0.185
-0.185
-0.17
-0.15
-0.14
-0.125
-0.11
-0.095
-0.085
-0.07
-0.045
-0.025
-0.02
-0.015
0.01
0.035
0.065
0.085
0.095
0.105
0.11
0.12
0.14
0.16
0.16
0.165
0.155
0.175
0.185
0.205
0.21
0.205
0.205
0.195
0.205
0.205
0.19
0.17
0.15
0.14
0.135
0.13
0.105
0.085
0.05
0.045
0.02
0.0
-0.015
-0.035
-0.07
-0.08
-0.08
-0.075
-0.105
-0.115
-0.135
-0.145
-0.145
-0.15
-0.165
-0.18
-0.185
-0.195
-0.185
-0.17
-0.185
-0.19
-0.195
-0.195
-0.19
-0.165
-0.18
-0.185
-0.195
-0.21
-0.185
-0.18
-0.185
-0.185
-0.195
-0.185
-0.165
-0.17
-0.175
-0.175
-0.185
-0.18
-0.165
-0.15
-0.155
-0.16
-0.17
-0.16
-0.155
-0.145
-0.145
-0.14
-0.145
-0.14
-0.145
-0.135
-0.135
-0.145
-0.155
-0.14
-0.14
-0.125
-0.13
-0.13
-0.155
-0.155
-0.145
-0.13
-0.14
-0.145
-0.15
-0.15
-0.135
-0.135
-0.145
-0.15
-0.165
-0.16
-0.15
-0.145
-0.16
-0.17
-0.175
-0.19
-0.18
-0.165
-0.175
-0.19
-0.2
-0.195
-0.195
-0.185
-0.195
-0.205
-0.235
-0.21
-0.205
-0.2
-0.22
-0.23
-0.23
-0.235
-0.23
-0.22
-0.23
-0.24
-0.245
-0.24
-0.235
-0.23
-0.235
-0.25
-0.26
-0.26
-0.27
-0.255
-0.26
-0.265
-0.275
-0.295
-0.285
-0.275
-0.285
-0.28
-0.295
-0.295
-0.29
-0.27
-0.28
-0.275
-0.3
-0.31
-0.29
-0.265
-0.275
-0.29
-0.305
-0.31
-0.29
-0.285
-0.3
-0.29
-0.29
-0.29
-0.285
-0.255
-0.255
-0.24
-0.24
-0.235
-0.2
-0.185
-0.19
-0.205
-0.195
-0.185
-0.17
-0.145
-0.155
-0.17
-0.175
-0.16
-0.135
-0.13
-0.15
-0.165
-0.185
-0.21
-0.205
-0.205
-0.18
-0.185
-0.18
-0.185
-0.195
-0.21
-0.25
-0.27
-0.29
-0.295
-0.285
-0.3
-0.315
-0.325
-0.345
-0.355
-0.345
-0.34
-0.35
-0.36
-0.36
-0.375
-0.36
-0.35
-0.355
-0.36
-0.36
-0.38
-0.36
-0.35
-0.355
-0.365
-0.355
-0.345
-0.35
-0.36
-0.41
-0.465
-0.485
-0.465
-0.405
-0.31
-0.165
0.11
0.475
0.855
1.22
1.515
1.69
1.72
1.545
1.06
0.455
-0.08
-0.435
-0.585
-0.61
-0.555
-0.475
-0.375
-0.295
-0.27
-0.3
-0.34
-0.335
-0.315
-0.3
-0.315
-0.355
-0.365
-0.38
-0.365
-0.37
-0.36
-0.37
-0.335
-0.305
-0.275
-0.27
-0.275
-0.285
-0.28
-0.26
-0.255
-0.26
-0.27
-0.27
-0.275
-0.25
-0.24
-0.26
-0.265
-0.27
-0.25
-0.245
-0.235
-0.235
-0.24
-0.245
-0.245
-0.24
-0.215
-0.22
-0.22
-0.235
-0.22
-0.195
-0.185
-0.19
-0.19
-0.19
-0.17
-0.15
-0.135
-0.13
-0.115
-0.105
-0.11
-0.07
-0.045
-0.04
-0.035
-0.03
-0.02
-0.01
-0.01
-0.02
-0.015
0.0
0.005
0.015
0.05
0.05
0.06
0.065
0.075
0.085
0.115
0.115
0.12
0.115
0.125
0.13
0.145
0.13
0.13
0.115
0.1
0.105
0.095
0.065
0.055
0.035
0.005
-0.015
-0.03
-0.065
-0.095
-0.13
-0.145
-0.155
-0.165
-0.175
-0.195
-0.215
-0.235
-0.235
-0.235
-0.25
-0.255
-0.27
-0.26
-0.27
-0.27
-0.28
-0.28
-0.295
-0.3
-0.295
-0.285
-0.29
-0.28
-0.3
-0.295
-0.285
-0.27
-0.27
-0.285
-0.28
-0.28
-0.275
-0.245
-0.25
-0.26
-0.26
-0.26
-0.245
-0.235
-0.24
-0.24
-0.24
-0.24
-0.235
-0.22
-0.225
-0.225
-0.23
-0.235
-0.23
-0.21
-0.225
-0.22
-0.23
-0.23
-0.23
-0.215
-0.22
-0.225
-0.235
-0.24
-0.245
-0.225
-0.24
-0.25
-0.25
-0.25
-0.26
-0.24
-0.24
-0.245
-0.265
-0.265
-0.26
-0.255
-0.265
-0.26
-0.275
-0.295
-0.295
-0.27
-0.295
-0.295
-0.3
-0.305
-0.31
-0.29
-0.295
-0.305
-0.31
-0.32
-0.31
-0.305
-0.3
-0.315
-0.325
-0.335
-0.33
-0.315
-0.33
-0.325
-0.345
-0.345
-0.335
-0.325
-0.33
-0.325
-0.345
-0.345
-0.335
-0.325
-0.325
-0.34
-0.355
-0.36
-0.345
-0.325
-0.325
-0.345
-0.345
-0.35
-0.35
-0.34
-0.34
-0.335
-0.34
-0.35
-0.345
-0.335
-0.335
-0.35
-0.36
-0.36
-0.345
-0.345
-0.34
-0.34
-0.345
-0.36
-0.34
-0.325
-0.32
-0.305
-0.305
-0.295
-0.28
-0.235
-0.26
-0.25
-0.265
-0.27
-0.25
-0.225
-0.225
-0.23
-0.245
-0.24
-0.235
-0.21
-0.225
-0.235
-0.255
-0.27
-0.27
-0.28
-0.29
-0.28
-0.295
-0.275
-0.265
-0.28
-0.29
-0.32
-0.325
-0.34
-0.335
-0.33
-0.345
-0.355
-0.38
-0.38
-0.38
-0.385
-0.395
-0.39
-0.39
-0.405
-0.38
-0.38
-0.39
-0.41
-0.415
-0.405
-0.4
-0.37
-0.385
-0.385
-0.385
-0.4
-0.4
-0.395
-0.42
-0.47
-0.53
-0.555
-0.495
-0.42
-0.365
-0.24
-0.005
0.345
0.73
1.07
1.37
1.605
1.74
1.71
1.49
1.02
0.415
-0.16
-0.525
-0.635
-0.61
-0.55
-0.505
-0.41
-0.315
-0.305
-0.3
-0.32
-0.34
-0.345
-0.35
-0.355
-0.355
-0.365
-0.38
-0.385
-0.38
-0.375
-0.365
-0.36
-0.37
-0.385
-0.375
-0.38
-0.36
-0.345
-0.36
-0.37
-0.37
-0.37
-0.36
-0.355
-0.36
-0.37
-0.375
-0.365
-0.365
-0.35
-0.36
-0.37
-0.37
-0.375
-0.365
-0.355
-0.37
-0.375
-0.385
-0.37
-0.375
-0.345
-0.345
-0.345
-0.345
-0.335
-0.31
-0.295
-0.305
-0.305
-0.3
-0.295
-0.265
-0.235
-0.23
-0.225
-0.21
-0.2
-0.19
-0.165
-0.145
-0.14
-0.125
-0.095
-0.07
-0.05
-0.04
-0.025
-0.015
0.0
0.015
0.04
0.045
0.06
0.07
0.075
0.095
0.115
0.11
0.11
0.105
0.125
0.14
0.14
0.13
0.12
0.105
0.08
0.095
0.095
0.075
0.04
0.025
0.0
-0.035
-0.03
-0.055
-0.095
-0.12
-0.145
-0.145
-0.15
-0.18
-0.205
-0.22
-0.245
-0.25
-0.24
-0.245
-0.275
-0.28
-0.29
-0.29
-0.28
-0.295
-0.305
-0.3
-0.305
-0.31
-0.295
-0.295
-0.315
-0.32
-0.325
-0.31
-0.295
-0.295
-0.29
-0.285
-0.29
-0.28
-0.265
-0.245
-0.26
-0.275
-0.255
-0.24
-0.225
-0.225
-0.22
-0.22
-0.22
-0.22
-0.2
-0.215
-0.225
-0.23
-0.235
-0.23
-0.215
-0.22
-0.22
-0.22
-0.215
-0.205
-0.205
-0.22
-0.225
-0.23
-0.235
-0.24
-0.23
-0.225
-0.23
-0.25
-0.26
-0.265
-0.26
-0.26
-0.26
-0.265
-0.28
-0.28
-0.275
-0.28
-0.3
-0.315
-0.32
-0.305
-0.315
-0.31
-0.33
-0.355
-0.36
-0.345
-0.335
-0.345
-0.365
-0.365
-0.39
-0.38
-0.365
-0.36
-0.375
-0.385
-0.395
-0.375
-0.37
-0.385
-0.39
-0.405
-0.405
-0.385
-0.39
-0.38
-0.405
-0.41
-0.415
-0.385
-0.385
-0.39
-0.385
-0.4
-0.395
-0.395
-0.38
-0.38
-0.4
-0.39
-0.41
-0.4
-0.38
-0.39
-0.395
-0.405
-0.405
-0.4
-0.385
-0.395
-0.395
-0.4
-0.385
-0.375
-0.37
-0.37
-0.35
-0.34
-0.315
-0.315
-0.31
-0.3
-0.305
-0.3
-0.295
-0.285
-0.275
-0.285
-0.295
-0.28
-0.28
-0.29
-0.28
-0.305
-0.31
-0.335
-0.345
-0.34
-0.32
-0.315
-0.32
-0.33
-0.345
-0.35
-0.36
-0.365
-0.375
-0.39
-0.395
-0.405
-0.395
-0.395
-0.425
-0.435
-0.435
-0.445
-0.42
-0.44
-0.435
-0.45
-0.46
-0.44
-0.415
-0.415
-0.42
-0.42
-0.42
-0.42
-0.4
-0.4
-0.41
-0.445
-0.435
-0.445
-0.455
-0.505
-0.56
-0.58
-0.535
-0.47
-0.36
-0.215
0.04
0.365
0.73
1.105
1.435
1.64
1.71
1.57
1.15
0.535
-0.055
-0.455
-0.645
-0.675
-0.64
-0.565
-0.47
-0.385
-0.33
-0.335
-0.365
-0.37
-0.365
-0.36
-0.345
-0.355
-0.355
-0.37
-0.37
-0.38
-0.38
-0.385
-0.39
-0.38
-0.37
-0.375
-0.38
-0.385
-0.385
-0.39
-0.38
-0.385
-0.39
-0.395
-0.385
-0.385
-0.375
-0.38
-0.375
-0.38
-0.41
-0.385
-0.37
-0.36
-0.38
-0.385
-0.375
-0.375
-0.345
-0.335
-0.335
-0.355
-0.355
-0.335
-0.33
-0.305
-0.31
-0.315
-0.315
-0.3
-0.275
-0.26
-0.255
-0.24
-0.23
-0.215
-0.185
-0.155
-0.165
-0.15
-0.145
-0.11
-0.08
-0.08
-0.065
-0.045
-0.045
-0.01
0.015
0.015
0.03
0.04
0.06
0.08
0.1
0.115
0.115
0.135
0.14
0.16
0.175
0.175
0.175
0.185
0.17
0.175
0.175
0.16
0.13
0.115
0.11
0.11
0.095
0.065
0.04
0.005
-0.04
-0.03
-0.045
-0.07
-0.09
-0.125
-0.155
-0.155
-0.16
-0.175
-0.19
-0.205
-0.205
-0.2
-0.195
-0.21
-0.22
-0.24
-0.265
-0.245
-0.235
-0.235
-0.245
-0.25
-0.26
-0.25
-0.245
-0.265
-0.27
-0.265
-0.265
-0.27
-0.25
-0.255
-0.265
-0.265
-0.255
-0.25
-0.23
-0.225
-0.24
-0.235
-0.235
-0.215
-0.2
-0.21
-0.215
-0.215
-0.22
-0.215
-0.205
-0.2
-0.205
-0.21
-0.21
-0.2
-0.195
-0.205
-0.21
-0.225
-0.225
-0.205
-0.19
-0.195
-0.215
-0.205
-0.215
-0.215
-0.21
-0.205
-0.22
-0.225
-0.235
-0.225
-0.21
-0.225
-0.235
-0.25
-0.25
-0.245
-0.235
-0.255
-0.255
-0.27
-0.27
-0.265
-0.235
-0.25
-0.26
-0.265
-0.27
-0.265
-0.265
-0.27
-0.28
-0.285
-0.29
-0.27
-0.265
-0.295
-0.29
-0.29
-0.305
-0.285
-0.275
-0.285
-0.29
-0.3
-0.295
-0.29
-0.285
-0.285
-0.28
-0.29
-0.31
-0.305
-0.29
-0.29
-0.28
-0.29
-0.3
-0.295
-0.29
-0.28
-0.29
-0.3
-0.295
-0.285
-0.265
-0.27
-0.285
-0.295
-0.285
-0.27
-0.25
-0.235
-0.23
-0.215
-0.21
-0.21
-0.19
-0.195
-0.2
-0.205
-0.2
-0.175
-0.185
-0.18
-0.185
-0.195
-0.17
-0.175
-0.175
-0.19
-0.215
-0.23
-0.25
-0.235
-0.235
-0.23
-0.215
-0.215
-0.23
-0.225
-0.235
-0.245
-0.26
-0.28
-0.285
-0.28
-0.285
-0.29
-0.295
-0.32
-0.315
-0.33
-0.32
-0.325
-0.325
-0.335
-0.335
-0.33
-0.33
-0.325
-0.33
-0.34
-0.34
-0.335
-0.315
-0.315
-0.32
-0.335
-0.33
-0.34
-0.325
-0.35
-0.385
-0.445
-0.46
-0.415
-0.355
-0.295
-0.2
0.015
0.32
0.675
0.975
1.235
1.475
1.615
1.635
1.495
1.12
0.58
0.065
-0.325
-0.52
-0.59
-0.58
-0.545
-0.47
-0.385
-0.31
-0.285
-0.285
-0.3
-0.325
-0.325
-0.33
-0.32
-0.31
-0.33
-0.345
-0.35
-0.355
-0.355
-0.345
-0.35
-0.365
-0.355
-0.37
-0.34
-0.34
-0.345
-0.36
-0.355
-0.37
-0.35
-0.35
-0.34
-0.36
-0.365
-0.35
-0.36
-0.33
-0.34
-0.35
-0.36
-0.35
-0.345
-0.335
-0.33
-0.335
-0.335
-0.325
-0.315
-0.305
-0.3
-0.31
-0.31
-0.315
-0.29
-0.27
-0.26
-0.265
-0.245
-0.235
-0.21
-0.185
-0.18
-0.175
-0.165
-0.145
-0.12
-0.105
-0.085
-0.07
-0.06
-0.04
-0.01
0.01
0.01
0.04
0.035
0.04
0.07
0.085
0.1
0.11
0.095
0.115
0.125
0.135
0.12
0.11
0.105
0.09
0.08
0.095
0.075
0.055
0.045
0.03
0.015
-0.005
-0.02
-0.055
-0.075
-0.1
-0.125
-0.135
-0.16
-0.18
-0.22
-0.23
-0.22
-0.24
-0.24
-0.27
-0.29
-0.29
-0.295
-0.3
-0.315
-0.335
-0.34
-0.33
-0.325
-0.335
-0.345
-0.33
-0.35
-0.34
-0.34
-0.32
-0.325
-0.33
-0.34
-0.335
-0.31
-0.295
-0.295
-0.295
-0.305
-0.295
-0.28
-0.27
-0.275
-0.28
-0.31
-0.3
-0.275
-0.255
-0.25
-0.265
-0.265
-0.265
-0.245
-0.235
-0.23
-0.225
-0.25
-0.255
-0.24
-0.23
-0.22
-0.235
-0.24
-0.26
-0.25
-0.24
-0.25
-0.265
-0.28
-0.285
-0.275
-0.255
-0.27
-0.29
-0.295
-0.295
-0.29
-0.275
-0.295
-0.31
-0.345
-0.33
-0.315
-0.305
-0.315
-0.325
-0.34
-0.345
-0.345
-0.335
-0.35
-0.355
-0.36
-0.365
-0.365
-0.355
-0.355
-0.365
-0.38
-0.385
-0.37
-0.355
-0.36
-0.355
-0.375
-0.375
-0.375
-0.36
-0.365
-0.38
-0.375
-0.385
-0.375
-0.375
-0.365
-0.38
-0.39
-0.395
-0.385
-0.375
-0.385
-0.385
-0.405
-0.395
-0.385
-0.39
-0.4
-0.395
-0.405
-0.405
-0.405
-0.41
-0.39
-0.405
-0.415
-0.42
-0.405
-0.385
-0.385
-0.4
-0.4
-0.405
-0.38
-0.355
-0.345
-0.34
-0.33
-0.315
-0.305
-0.295
-0.3
-0.305
-0.305
-0.31
-0.295
-0.29
-0.285
-0.29
-0.295
-0.285
-0.275
-0.28
-0.275
-0.31
-0.32
-0.33
-0.34
-0.34
-0.335
-0.325
-0.32
-0.33
-0.33
-0.325
-0.34
-0.35
-0.38
-0.38
-0.385
-0.385
-0.415
-0.405
-0.415
-0.42
-0.42
-0.425
-0.43
-0.45
-0.455
-0.445
-0.45
-0.44
-0.44
-0.44
-0.455
-0.445
-0.43
-0.435
-0.44
-0.43
-0.445
-0.445
-0.435
-0.445
-0.47
-0.52
-0.585
-0.605
-0.575
-0.51
-0.44
-0.325
-0.105
0.255
0.64
0.985
1.31
1.57
1.7
1.67
1.415
0.935
0.3
-0.25
-0.58
-0.715
-0.71
-0.66
-0.6
-0.51
-0.425
-0.38
-0.395
-0.405
-0.405
-0.415
-0.42
-0.42
-0.415
-0.42
-0.425
-0.435
-0.435
-0.44
-0.435
-0.44
-0.44
-0.445
-0.445
-0.45
-0.45
-0.445
-0.45
-0.45
-0.47
-0.465
-0.455
-0.44
-0.44
-0.445
-0.455
-0.455
-0.455
-0.435
-0.445
-0.44
-0.445
-0.45
-0.44
-0.425
-0.425
-0.425
-0.435
-0.435
-0.425
-0.415
-0.39
-0.385
-0.39
-0.385
-0.37
-0.36
-0.34
-0.335
-0.335
-0.33
-0.305
-0.29
-0.27
-0.27
-0.26
-0.25
-0.205
-0.18
-0.16
-0.15
-0.155
-0.13
-0.105
-0.075
-0.06
-0.05
-0.04
-0.025
0.01
0.02
0.03
0.035
0.045
0.05
0.06
0.08
0.09
0.09
0.08
0.08
0.08
0.075
0.07
0.05
0.02
0.015
0.01
-0.005
-0.025
-0.06
-0.095
-0.115
-0.135
-0.145
-0.17
-0.2
-0.23
-0.255
-0.26
-0.27
-0.285
-0.305
-0.34
-0.35
-0.335
-0.34
-0.34
-0.365
-0.37
-0.375
-0.37
-0.365
-0.375
-0.375
-0.395
-0.39
-0.39
-0.38
-0.375
-0.39
-0.385
-0.385
-0.37
-0.37
-0.37
-0.385
-0.4
-0.405
-0.4
-0.37
-0.365
-0.365
-0.38
-0.385
-0.385
-0.37
-0.37
-0.365
-0.375
-0.36
-0.36
-0.355
-0.345
-0.355
-0.35
-0.35
-0.35
-0.345
-0.35
-0.365
-0.36
-0.355
-0.34
-0.335
-0.34
-0.335
-0.35
-0.35
-0.345
-0.34
-0.345
-0.355
-0.365
-0.36
-0.355
-0.35
-0.35
-0.37
-0.385
-0.37
-0.375
-0.365
-0.365
-0.375
-0.4
-0.395
-0.38
-0.375
-0.375
-0.385
-0.4
-0.395
-0.385
-0.37
-0.375
-0.385
-0.415
-0.415
-0.41
-0.4
-0.405
-0.415
-0.415
-0.435
-0.415
-0.415
-0.415
-0.42
-0.43
-0.43
-0.435
-0.43
-0.425
-0.43
-0.445
-0.445
-0.455
-0.44
-0.435
-0.44
-0.45
-0.455
-0.445
-0.435
-0.44
-0.445
-0.45
-0.45
-0.455
-0.44
-0.445
-0.46
-0.46
-0.445
-0.45
-0.435
-0.435
-0.44
-0.46
-0.45
-0.44
-0.43
-0.42
-0.41
-0.415
-0.4
-0.37
-0.36
-0.36
-0.355
-0.375
-0.355
-0.35
-0.33
-0.325
-0.345
-0.34
-0.33
-0.32
-0.315
-0.32
-0.33
-0.345
-0.35
-0.355
-0.36
-0.37
-0.385
-0.4
-0.395
-0.38
-0.36
-0.365
-0.375
-0.4
-0.405
-0.4
-0.405
-0.415
-0.44
-0.465
-0.465
-0.465
-0.46
-0.475
-0.49
-0.505
-0.5
-0.505
-0.5
-0.49
-0.49
-0.51
-0.495
-0.49
-0.48
-0.485
-0.495
-0.515
-0.5
-0.5
-0.495
-0.495
-0.52
-0.57
-0.625
-0.66
-0.645
-0.585
-0.535
-0.44
-0.255
0.09
0.465
0.835
1.16
1.435
1.6
1.64
1.505
1.085
0.46
-0.165
-0.605
-0.785
-0.79
-0.72
-0.68
-0.605
-0.515
-0.445
-0.44
-0.465
-0.485
-0.5
-0.49
-0.47
-0.46
-0.475
-0.5
-0.52
-0.52
-0.52
-0.515
-0.51
-0.525
-0.53
-0.505
-0.485
-0.47
-0.485
-0.49
-0.505
-0.505
-0.49
-0.485
-0.465
-0.5
-0.505
-0.495
-0.485
-0.48
-0.485
-0.485
-0.495
-0.485
-0.475
-0.46
-0.455
-0.475
-0.48
-0.475
-0.46
-0.445
-0.45
-0.445
-0.45
-0.44
-0.43
-0.425
-0.415
-0.425
-0.425
-0.405
-0.385
-0.375
-0.36
-0.365
-0.365
-0.355
-0.33
-0.31
-0.295
-0.29
-0.29
-0.26
-0.235
-0.225
-0.205
-0.2
-0.19
-0.175
-0.15
-0.14
-0.12
-0.105
-0.08
-0.065
-0.05
-0.025
-0.03
-0.015
-0.02
0.0
0.01
0.04
0.05
0.045
0.04
0.04
0.05
0.055
0.05
0.045
0.035
0.02
0.025
0.01
-0.005
-0.025
-0.06
-0.07
-0.085
-0.1
-0.115
-0.155
-0.185
-0.2
-0.22
-0.225
-0.255
-0.285
-0.305
-0.32
-0.31
-0.315
-0.33
-0.34
-0.365
-0.365
-0.37
-0.36
-0.36
-0.39
-0.4
-0.385
-0.375
-0.375
-0.385
-0.405
-0.4
-0.4
-0.4
-0.39
-0.38
-0.385
-0.39
-0.385
-0.375
-0.37
-0.375
-0.385
-0.385
-0.39
-0.395
-0.385
-0.38
-0.385
-0.395
-0.395
-0.385
-0.37
-0.37
-0.365
-0.375
-0.38
-0.37
-0.36
-0.365
-0.375
-0.385
-0.38
-0.385
-0.375
-0.375
-0.375
-0.385
-0.385
-0.39
-0.37
-0.37
-0.39
-0.395
-0.38
-0.38
-0.375
-0.375
-0.385
-0.39
-0.405
-0.4
-0.38
-0.39
-0.395
-0.41
-0.405
-0.4
-0.405
-0.41
-0.425
-0.425
-0.415
-0.425
-0.4
-0.42
-0.42
-0.455
-0.445
-0.435
-0.43
-0.44
-0.435
-0.445
-0.445
-0.44
-0.445
-0.455
-0.46
-0.47
-0.47
-0.46
-0.45
-0.45
-0.465
-0.47
-0.47
-0.46
-0.46
-0.46
-0.48
-0.485
-0.485
-0.47
-0.465
-0.475
-0.475
-0.48
-0.48
-0.48
-0.46
-0.46
-0.47
-0.465
-0.455
-0.445
-0.435
-0.445
-0.47
-0.48
-0.48
-0.465
-0.45
-0.465
-0.48
-0.485
-0.47
-0.455
-0.425
-0.42
-0.42
-0.41
-0.4
-0.36
-0.345
-0.32
-0.335
-0.33
-0.335
-0.32
-0.3
-0.3
-0.305
-0.325
-0.325
-0.31
-0.295
-0.285
-0.295
-0.315
-0.33
-0.345
-0.36
-0.365
-0.37
-0.365
-0.36
-0.33
-0.33
-0.35
-0.365
-0.39
-0.37
-0.375
-0.36
-0.38
-0.405
-0.42
-0.43
-0.425
-0.415
-0.445
-0.45
-0.445
-0.43
-0.41
-0.4
-0.405
-0.405
-0.425
-0.425
-0.415
-0.405
-0.395
-0.42
-0.425
-0.415
-0.425
-0.425
-0.49
-0.53
-0.575
-0.525
-0.475
-0.4
-0.285
-0.04
0.305
0.705
1.09
1.43
1.63
1.685
1.525
1.11
0.505
-0.08
-0.505
-0.69
-0.68
-0.635
-0.56
-0.445
-0.365
-0.35
-0.37
-0.385
-0.39
-0.375
-0.38
-0.38
-0.4
-0.405
-0.42
-0.405
-0.395
-0.405
-0.415
-0.415
-0.415
-0.415
-0.425
-0.425
-0.43
-0.42
-0.41
-0.41
-0.42
-0.415
-0.415
-0.405
-0.395
-0.385
-0.38
-0.395
-0.405
-0.415
-0.4
-0.39
-0.38
-0.385
-0.38
-0.365
-0.37
-0.345
-0.35
-0.35
-0.355
-0.355
-0.33
-0.315
-0.31
-0.32
-0.32
-0.295
-0.28
-0.275
-0.27
-0.255
-0.265
-0.235
-0.215
-0.19
-0.165
-0.15
-0.145
-0.125
-0.105
-0.08
-0.06
-0.04
-0.05
-0.03
0.005
0.02
0.025
0.035
0.055
0.065
0.08
0.1
0.1
0.115
0.125
0.13
0.14
0.16
0.17
0.16
0.15
0.15
0.14
0.13
0.135
0.115
0.1
0.075
0.065
0.05
0.025
0.0
-0.04
-0.075
-0.075
-0.09
-0.105
-0.135
-0.155
-0.175
-0.18
-0.175
-0.195
-0.215
-0.22
-0.23
-0.23
-0.225
-0.235
-0.235
-0.27
-0.28
-0.26
-0.26
-0.245
-0.255
-0.265
-0.26
-0.255
-0.245
-0.245
-0.26
-0.265
-0.265
-0.26
-0.255
-0.245
-0.255
-0.265
-0.26
-0.255
-0.24
-0.24
-0.235
-0.25
-0.245
-0.24
-0.23
-0.24
-0.24
-0.24
-0.235
-0.22
-0.215
-0.225
-0.22
-0.23
-0.225
-0.215
-0.21
-0.21
-0.23
-0.235
-0.235
-0.225
-0.21
-0.21
-0.22
-0.235
-0.235
-0.225
-0.22
-0.22
-0.24
-0.25
-0.24
-0.24
-0.235
-0.23
-0.235
-0.26
-0.255
-0.25
-0.26
-0.255
-0.27
-0.285
-0.275
-0.275
-0.27
-0.28
-0.29
-0.295
-0.3
-0.29
-0.285
-0.29
-0.295
-0.305
-0.315
-0.295
-0.29
-0.295
-0.305
-0.31
-0.32
-0.31
-0.295
-0.31
-0.32
-0.34
-0.33
-0.315
-0.3
-0.325
-0.33
-0.34
-0.32
-0.325
-0.31
-0.32
-0.325
-0.34
-0.34
-0.32
-0.315
-0.315
-0.315
-0.325
-0.305
-0.285
-0.265
-0.25
-0.25
-0.255
-0.25
-0.24
-0.23
-0.23
-0.22
-0.225
-0.22
-0.22
-0.205
-0.21
-0.225
-0.24
-0.235
-0.245
-0.25
-0.27
-0.285
-0.285
-0.275
-0.265
-0.26
-0.26
-0.29
-0.305
-0.315
-0.335
-0.32
-0.335
-0.34
-0.355
-0.35
-0.36
-0.375
-0.39
-0.395
-0.4
-0.4
-0.395
-0.395
-0.39
-0.395
-0.42
-0.425
-0.41
-0.395
-0.39
-0.39
-0.4
-0.4
-0.4
-0.39
-0.415
-0.435
-0.5
-0.53
-0.5
-0.45
-0.385
-0.3
-0.1
0.21
0.585
0.94
1.245
1.455
1.53
1.45
1.13
0.625
0.08
-0.35
-0.595
-0.68
-0.66
-0.565
-0.445
-0.365
-0.38
-0.39
-0.4
-0.4
-0.375
-0.395
-0.4
-0.41
-0.415
-0.41
-0.42
-0.43
-0.44
-0.44
-0.44
-0.425
-0.435
-0.445
-0.455
-0.455
-0.445
-0.43
-0.435
-0.44
-0.445
-0.435
-0.445
-0.435
-0.435
-0.44
-0.445
-0.44
-0.435
-0.42
-0.425
-0.435
-0.435
-0.425
-0.42
-0.405
-0.41
-0.415
-0.41
-0.405
-0.4
-0.395
-0.385
-0.385
-0.385
-0.37
-0.36
-0.35
-0.335
-0.325
-0.325
-0.3
-0.28
-0.27
-0.255
-0.24
-0.215
-0.205
-0.175
-0.15
-0.14
-0.125
-0.115
-0.115
-0.075
-0.05
-0.025
-0.03
-0.03
-0.01
0.005
0.03
0.035
0.035
0.025
0.03
0.04
0.04
0.04
0.01
0.0
-0.015
-0.015
-0.03
-0.045
-0.07
-0.105
-0.13
-0.14
-0.15
-0.17
-0.195
-0.23
-0.24
-0.255
-0.265
-0.275
-0.295
-0.315
-0.325
-0.33
-0.325
-0.33
-0.34
-0.355
-0.35
-0.355
-0.345
-0.34
-0.36
-0.375
-0.36
-0.35
-0.35
-0.36
-0.37
-0.365
-0.36
-0.36
-0.35
-0.35
-0.36
-0.36
-0.355
-0.35
-0.345
-0.355
-0.35
-0.36
-0.345
-0.34
-0.325
-0.325
-0.33
-0.34
-0.335
-0.335
-0.315
-0.31
-0.31
-0.325
-0.32
-0.305
-0.305
-0.31
-0.315
-0.32
-0.315
-0.295
-0.295
-0.29
-0.31
-0.32
-0.31
-0.305
-0.3
-0.31
-0.315
-0.325
-0.335
-0.33
-0.325
-0.335
-0.335
-0.34
-0.34
-0.33
-0.33
-0.335
-0.345
-0.365
-0.365
-0.35
-0.34
-0.345
-0.355
-0.37
-0.385
-0.375
-0.375
-0.375
-0.385
-0.415
-0.4
-0.395
-0.4
-0.385
-0.4
-0.42
-0.415
-0.385
-0.4
-0.385
-0.395
-0.405
-0.4
-0.39
-0.4
-0.4
