Lead II
-0.115
-0.15
-0.165
-0.18
-0.185
-0.2
-0.21
-0.25
-0.26
-0.27
-0.26
-0.26
-0.29
-0.32
-0.325
-0.32
-0.295
-0.31
-0.315
-0.325
-0.32
-0.3
-0.305
-0.32
-0.315
-0.33
-0.31
-0.31
-0.295
-0.305
-0.325
-0.335
-0.315
-0.305
-0.29
-0.29
-0.295
-0.295
-0.28
-0.265
-0.23
-0.21
-0.2
-0.205
-0.18
-0.145
-0.1
-0.075
-0.04
-0.02
0.005
0.025
0.045
0.06
0.075
0.1
0.13
0.145
0.135
0.115
0.095
0.075
0.075
0.085
0.095
0.085
0.07
0.04
0.02
0.02
0.0
-0.025
-0.065
-0.11
-0.125
-0.13
-0.145
-0.17
-0.21
-0.235
-0.245
-0.26
-0.265
-0.295
-0.305
-0.325
-0.34
-0.345
-0.35
-0.365
-0.375
-0.395
-0.385
-0.395
-0.37
-0.38
-0.38
-0.39
-0.385
-0.39
-0.37
-0.38
-0.39
-0.395
-0.4
-0.39
-0.385
-0.375
-0.39
-0.4
-0.4
-0.38
-0.39
-0.395
-0.395
-0.405
-0.395
-0.385
-0.375
-0.37
-0.375
-0.375
-0.37
-0.37
-0.38
-0.365
-0.365
-0.385
-0.38
-0.36
-0.36
-0.35
-0.34
-0.36
-0.355
-0.335
-0.315
-0.31
-0.295
-0.29
-0.26
-0.19
-0.1
0.09
0.505
1.11
1.69
1.955
1.87
1.665
1.515
1.45
1.395
1.32
1.215
1.14
1.06
0.975
0.9
0.845
0.755
0.665
0.56
0.455
0.345
0.255
0.15
0.01
-0.135
-0.295
-0.43
-0.56
-0.69
-0.835
-0.98
-1.115
-1.205
-1.265
-1.305
-1.35
-1.4
-1.475
-1.55
-1.645
-1.745
-1.83
-1.91
-1.98
-2.03
-2.1
-2.155
-2.17
-2.14
-2.065
-1.935
-1.83
-1.705
-1.58
-1.46
-1.365
-1.285
-1.24
-1.185
-1.15
-1.105
-1.07
-1.03
-0.97
-0.93
-0.93
-0.925
-0.9
-0.845
-0.77
-0.68
-0.615
-0.575
-0.54
-0.485
-0.415
-0.34
-0.255
-0.18
-0.125
-0.055
0.01
0.08
0.15
0.19
0.21
0.24
0.275
0.285
0.295
0.315
0.325
0.355
0.39
0.405
0.43
0.44
0.455
0.48
0.485
0.515
0.54
0.555
0.57
0.59
0.625
0.68
0.695
0.71
0.73
0.75
0.785
0.825
0.845
0.865
0.885
0.905
0.95
0.985
1.01
1.025
1.045
1.075
1.09
1.12
1.135
1.145
1.145
1.165
1.18
1.2
1.205
1.205
1.195
1.2
1.21
1.215
1.21
1.18
1.155
1.145
1.14
1.135
1.12
1.095
1.065
1.055
1.06
1.035
1.03
1.0
0.98
0.99
0.99
0.985
0.97
0.94
0.91
0.88
0.86
0.825
0.78
0.75
0.7
0.66
0.6
0.535
0.465
0.41
0.36
0.335
0.31
0.28
0.265
0.23
0.185
0.15
0.13
0.105
0.07
0.025
-0.025
-0.085
-0.1
-0.115
-0.155
-0.18
-0.24
-0.26
-0.285
-0.305
-0.325
-0.355
-0.37
-0.38
-0.375
-0.38
-0.4
-0.425
-0.45
-0.455
-0.445
-0.45
-0.44
-0.46
-0.475
-0.465
-0.46
-0.45
-0.455
-0.445
-0.47
-0.465
-0.455
-0.46
-0.465
-0.46
-0.46
-0.46
-0.455
-0.45
-0.445
-0.455
-0.465
-0.45
-0.44
-0.415
-0.425
-0.44
-0.455
-0.445
-0.445
-0.455
-0.45
-0.445
-0.45
-0.44
-0.43
-0.43
-0.425
-0.425
-0.44
-0.44
-0.44
-0.425
-0.425
-0.435
-0.445
-0.44
-0.42
-0.41
-0.425
-0.43
-0.425
-0.43
-0.425
-0.42
-0.43
-0.425
-0.445
-0.425
-0.405
-0.4
-0.405
-0.41
-0.41
-0.405
-0.4
-0.4
-0.41
-0.4
-0.41
-0.415
-0.39
-0.385
-0.395
-0.39
-0.405
-0.4
-0.395
-0.385
-0.385
-0.395
-0.405
-0.395
-0.375
-0.355
-0.355
-0.355
-0.37
-0.37
-0.365
-0.36
-0.355
-0.36
-0.365
-0.36
-0.335
-0.33
-0.34
-0.34
-0.345
-0.34
-0.325
-0.31
-0.32
-0.305
-0.315
-0.305
-0.29
-0.285
-0.275
-0.265
-0.26
-0.245
-0.22
-0.2
-0.165
-0.085
0.07
0.43
0.975
1.57
1.945
1.98
1.8
1.635
1.57
1.52
1.445
1.345
1.24
1.16
1.07
0.985
0.92
0.84
0.75
0.67
0.55
0.43
0.28
0.135
-0.01
-0.145
-0.275
-0.425
-0.61
-0.81
-0.99
-1.17
-1.315
-1.46
-1.595
-1.69
-1.79
-1.84
-1.88
-1.925
-1.98
-2.065
-2.185
-2.245
-2.295
-2.345
-2.41
-2.455
-2.485
-2.445
-2.365
-2.22
-2.06
-1.89
-1.73
-1.58
-1.45
-1.345
-1.26
-1.2
-1.14
-1.08
-1.005
-0.945
-0.9
-0.865
-0.845
-0.815
-0.78
-0.715
-0.67
-0.62
-0.55
-0.475
-0.41
-0.335
-0.275
-0.22
-0.155
-0.055
0.05
0.15
0.235
0.3
0.37
0.425
0.5
0.56
0.615
0.66
0.715
0.765
0.805
0.845
0.855
0.89
0.935
0.995
1.035
1.06
1.05
1.04
1.04
1.06
1.09
1.115
1.14
1.155
1.17
1.195
1.23
1.25
1.265
1.275
1.275
1.295
1.315
1.3
1.315
1.33
1.325
1.325
1.34
1.34
1.345
1.345
1.33
1.305
1.335
1.345
1.32
1.32
1.295
1.29
1.275
1.265
1.245
1.21
1.195
1.195
1.19
1.17
1.145
1.095
1.045
1.0
0.985
0.955
0.9
0.835
0.8
0.76
0.715
0.675
0.64
0.58
0.51
0.46
0.435
0.405
0.34
0.27
0.195
0.155
0.11
0.085
0.03
-0.005
-0.065
-0.105
-0.125
-0.165
-0.195
-0.215
-0.25
-0.275
-0.28
-0.295
-0.32
-0.325
-0.345
-0.375
-0.385
-0.39
-0.4
-0.395
-0.405
-0.4
-0.395
-0.39
-0.39
-0.385
-0.42
-0.42
-0.41
-0.41
-0.41
-0.425
-0.43
-0.415
-0.41
-0.415
-0.415
-0.43
-0.43
-0.41
-0.395
-0.39
-0.39
-0.405
-0.41
-0.41
-0.405
-0.405
-0.405
-0.415
-0.4
-0.39
-0.385
-0.37
-0.37
-0.37
-0.37
-0.38
-0.36
-0.36
-0.35
-0.345
-0.345
-0.34
-0.32
-0.315
-0.315
-0.325
-0.335
-0.34
-0.345
-0.335
-0.32
-0.32
-0.33
-0.34
-0.34
-0.34
-0.33
-0.325
-0.33
-0.32
-0.32
-0.31
-0.325
-0.345
-0.34
-0.325
-0.305
-0.3
-0.31
-0.33
-0.34
-0.345
-0.325
-0.31
-0.305
-0.305
-0.325
-0.305
-0.29
-0.275
-0.275
-0.29
-0.3
-0.29
-0.285
-0.27
-0.29
-0.295
-0.305
-0.285
-0.26
-0.26
-0.26
-0.28
-0.27
-0.27
-0.255
-0.26
-0.255
-0.27
-0.265
-0.25
-0.235
-0.23
-0.25
-0.25
-0.25
-0.245
-0.235
-0.23
-0.225
-0.23
-0.245
-0.235
-0.23
-0.205
-0.2
-0.21
-0.21
-0.205
-0.2
-0.185
-0.175
-0.17
-0.155
-0.155
-0.12
-0.095
-0.07
-0.01
0.155
0.545
1.12
1.735
2.075
2.075
1.895
1.74
1.675
1.62
1.54
1.45
1.345
1.27
1.185
1.12
1.035
0.965
0.845
0.75
0.64
0.53
0.395
0.25
0.105
-0.01
-0.13
-0.305
-0.485
-0.68
-0.85
-0.99
-1.095
-1.16
-1.245
-1.315
-1.41
-1.45
-1.53
-1.63
-1.76
-1.85
-1.91
-1.985
-2.035
-2.105
-2.14
-2.095
-1.99
-1.85
-1.675
-1.525
-1.395
-1.245
-1.145
-1.08
-1.04
-1.015
-0.985
-0.96
-0.94
-0.925
-0.915
-0.895
-0.89
-0.86
-0.815
-0.74
-0.65
-0.595
-0.55
-0.505
-0.46
-0.385
-0.305
-0.225
-0.135
-0.075
-0.015
0.05
0.12
0.185
0.205
0.225
0.23
0.25
0.265
0.295
0.325
0.33
0.335
0.355
0.385
0.41
0.435
0.445
0.465
0.515
0.545
0.56
0.595
0.605
0.615
0.655
0.7
0.73
0.75
0.785
0.815
0.835
0.85
0.895
0.925
0.95
0.985
1.005
1.035
1.08
1.105
1.12
1.125
1.14
1.155
1.19
1.195
1.19
1.185
1.19
1.19
1.19
1.185
1.18
1.16
1.15
1.145
1.135
1.115
1.085
1.045
1.02
0.985
0.935
0.905
0.845
0.82
0.775
0.75
0.705
0.65
0.59
0.535
0.49
0.455
0.41
0.365
0.315
0.265
0.21
0.185
0.135
0.1
0.055
0.015
-0.02
-0.045
-0.07
-0.08
-0.085
-0.105
-0.12
-0.12
-0.15
-0.175
-0.21
-0.21
-0.205
-0.19
-0.195
-0.205
-0.225
-0.23
-0.225
-0.22
-0.21
-0.225
-0.23
-0.235
-0.23
-0.26
-0.245
-0.27
-0.27
-0.265
-0.265
-0.245
-0.245
-0.255
-0.265
-0.275
-0.26
-0.235
-0.23
-0.24
-0.245
-0.255
-0.235
-0.22
-0.215
-0.235
-0.25
-0.25
-0.24
-0.22
-0.21
-0.225
-0.22
-0.225
-0.21
-0.205
-0.21
-0.215
-0.22
-0.22
-0.205
-0.2
-0.195
-0.185
-0.19
-0.2
-0.195
-0.195
-0.2
-0.215
-0.235
-0.23
-0.22
-0.21
-0.205
-0.225
-0.235
-0.245
-0.235
-0.21
-0.2
-0.22
-0.22
-0.235
-0.22
-0.215
-0.205
-0.205
-0.215
-0.205
-0.21
-0.215
-0.185
-0.19
-0.195
-0.18
-0.155
-0.12
-0.105
-0.085
-0.075
-0.04
0.005
0.045
0.095
0.105
0.11
0.11
0.14
0.165
0.195
0.21
0.2
0.155
0.13
0.12
0.11
0.095
0.085
0.09
0.105
0.12
0.12
0.105
0.075
0.035
0.02
0.0
-0.03
-0.06
-0.105
-0.115
-0.125
-0.13
-0.14
-0.17
-0.18
-0.175
-0.16
-0.14
-0.105
0.0
0.23
0.725
1.36
1.855
1.97
1.81
1.625
1.515
1.45
1.385
1.28
1.185
1.085
0.98
0.915
0.845
0.74
0.625
0.5
0.36
0.24
0.11
-0.035
-0.185
-0.365
-0.555
-0.745
-0.925
-1.095
-1.285
-1.46
-1.62
-1.7
-1.75
-1.775
-1.81
-1.86
-1.935
-2.02
-2.15
-2.23
-2.315
-2.385
-2.445
-2.47
-2.425
-2.3
-2.115
-1.96
-1.805
-1.635
-1.49
-1.35
-1.275
-1.22
-1.17
-1.13
-1.065
-1.02
-0.995
-0.985
-0.98
-0.93
-0.86
-0.78
-0.71
-0.655
-0.6
-0.53
-0.45
-0.375
-0.305
-0.24
-0.175
-0.105
0.015
0.085
0.14
0.17
0.2
0.245
0.28
0.295
0.335
0.35
0.365
0.395
0.435
0.465
0.485
0.525
0.555
0.59
0.61
0.635
0.655
0.695
0.74
0.8
0.82
0.84
0.88
0.905
0.915
0.985
1.025
1.06
1.08
1.1
1.115
1.16
1.18
1.2
1.235
1.245
1.25
1.265
1.29
1.3
1.29
1.285
1.255
1.24
1.245
1.245
1.225
1.205
1.17
1.15
1.105
1.095
1.06
1.005
0.945
0.91
0.89
0.825
0.76
0.68
0.625
0.59
0.54
0.49
0.445
0.38
0.33
0.29
0.235
0.17
0.105
0.05
0.0
-0.03
-0.05
-0.08
-0.115
-0.145
-0.165
-0.19
-0.21
-0.23
-0.235
-0.25
-0.27
-0.275
-0.285
-0.29
-0.28
-0.3
-0.315
-0.325
-0.32
-0.32
-0.315
-0.315
-0.325
-0.335
-0.335
-0.32
-0.32
-0.33
-0.33
-0.315
-0.295
-0.28
-0.28
-0.26
-0.21
-0.15
-0.095
-0.06
-0.035
-0.025
-0.03
-0.03
0.01
0.06
0.095
0.115
0.105
0.095
0.075
0.06
0.035
0.01
0.01
0.015
0.035
0.035
0.025
0.015
-0.01
-0.03
-0.055
-0.085
-0.115
-0.135
-0.175
-0.19
-0.22
-0.245
-0.275
-0.29
-0.305
-0.32
-0.315
-0.335
-0.355
-0.39
-0.425
-0.455
-0.465
-0.465
-0.465
-0.46
-0.46
-0.46
-0.445
-0.445
-0.45
-0.46
-0.48
-0.455
-0.45
-0.435
-0.445
-0.46
-0.485
-0.475
-0.485
-0.465
-0.465
-0.46
-0.46
-0.45
-0.44
-0.445
-0.46
-0.465
-0.465
-0.455
-0.47
-0.465
-0.475
-0.47
-0.47
-0.45
-0.435
-0.42
-0.42
-0.44
-0.46
-0.465
-0.46
-0.45
-0.45
-0.445
-0.46
-0.435
-0.445
-0.44
-0.44
-0.44
-0.43
-0.4
-0.38
-0.38
-0.37
-0.345
-0.325
-0.22
-0.025
0.37
0.965
1.56
1.85
1.81
1.635
1.49
1.405
1.345
1.25
1.155
1.045
0.95
0.84
0.74
0.62
0.515
0.395
0.255
0.1
-0.035
-0.195
-0.365
-0.575
-0.79
-1.02
-1.25
-1.475
-1.645
-1.79
-1.915
-2.0
-2.07
-2.135
-2.18
-2.205
-2.25
-2.32
-2.41
-2.485
-2.53
-2.56
-2.57
-2.6
-2.59
-2.5
-2.36
-2.205
-2.05
-1.88
-1.71
-1.56
-1.445
-1.365
-1.295
-1.23
-1.17
-1.115
-1.06
-1.015
-1.0
-0.985
-0.97
-0.905
-0.83
-0.735
-0.665
-0.595
-0.545
-0.485
-0.415
-0.34
-0.285
-0.205
-0.14
-0.07
-0.005
0.075
0.14
0.195
0.225
0.23
0.25
0.265
0.3
0.325
0.33
0.325
0.35
0.375
0.395
0.43
0.445
0.46
0.49
0.525
0.565
0.585
0.6
0.615
0.625
0.665
0.695
0.725
0.75
0.77
0.81
0.845
0.875
0.905
0.935
0.955
0.985
0.995
0.995
1.015
1.025
1.06
1.095
1.115
1.13
1.15
1.135
1.14
1.15
1.16
1.18
1.19
1.185
1.19
1.2
1.23
1.24
1.235
1.225
1.22
1.235
1.23
1.22
1.18
1.15
1.115
1.08
1.025
0.96
0.87
0.79
0.73
0.685
0.645
0.59
0.54
0.485
0.435
0.375
0.335
0.295
0.215
0.13
0.04
-0.02
-0.05
-0.09
-0.125
-0.185
-0.23
-0.25
-0.28
-0.31
-0.325
-0.35
-0.395
-0.415
-0.445
-0.445
-0.46
-0.475
-0.485
-0.48
-0.47
-0.475
-0.48
-0.495
-0.5
-0.495
-0.5
-0.51
-0.53
-0.535
-0.535
-0.52
-0.51
-0.49
-0.505
-0.515
-0.52
-0.52
-0.52
-0.5
-0.505
-0.5
-0.505
-0.5
-0.505
-0.495
-0.5
-0.5
-0.505
-0.49
-0.485
-0.47
-0.475
-0.47
-0.49
-0.48
-0.48
-0.465
-0.46
-0.45
-0.47
-0.46
-0.445
-0.45
-0.475
-0.51
-0.51
-0.5
-0.49
-0.475
-0.47
-0.46
-0.48
-0.49
-0.46
-0.455
-0.47
-0.46
-0.465
-0.455
-0.45
-0.445
-0.445
-0.46
-0.455
-0.45
-0.445
-0.445
-0.44
-0.455
-0.45
-0.44
-0.425
-0.43
-0.43
-0.435
-0.445
-0.435
-0.43
-0.42
-0.42
-0.43
-0.44
-0.45
-0.425
-0.415
-0.42
-0.43
-0.425
-0.43
-0.405
-0.41
-0.405
-0.41
-0.42
-0.395
-0.38
-0.375
-0.375
-0.4
-0.405
-0.405
-0.41
-0.4
-0.385
-0.385
-0.4
-0.385
-0.365
-0.355
-0.355
-0.37
-0.375
-0.35
-0.34
-0.315
-0.305
-0.3
-0.3
-0.275
-0.225
-0.13
0.085
0.46
1.03
1.605
1.905
1.89
1.735
1.6
1.54
1.475
1.43
1.34
1.26
1.16
1.07
0.995
0.92
0.835
0.73
0.595
0.435
0.295
0.15
0.0
-0.18
-0.33
-0.505
-0.665
-0.845
-1.04
-1.225
-1.4
-1.555
-1.67
-1.76
-1.835
-1.915
-1.995
-2.05
-2.09
-2.155
-2.26
-2.34
-2.415
-2.495
-2.545
-2.6
-2.605
-2.585
-2.49
-2.35
-2.155
-1.955
-1.765
-1.6
-1.47
-1.39
-1.325
-1.26
-1.195
-1.16
-1.115
-1.085
-1.045
-1.03
-1.0
-0.97
-0.925
-0.87
-0.78
-0.685
-0.59
-0.52
-0.45
-0.37
-0.27
-0.16
-0.05
0.075
0.195
0.28
0.365
0.445
0.515
0.56
0.615
0.635
0.67
0.675
0.675
0.665
0.675
0.67
0.7
0.725
0.755
0.775
0.79
0.795
0.815
0.835
0.86
0.855
0.845
0.86
0.885
0.9
0.925
0.94
0.955
0.96
0.975
1.0
1.025
1.055
1.07
1.095
1.125
1.14
1.15
1.16
1.17
1.185
1.22
1.235
1.245
1.26
1.245
1.24
1.22
1.21
1.21
1.19
1.175
1.165
1.14
1.115
1.09
1.04
0.985
0.935
0.895
0.855
0.815
0.755
0.695
0.645
0.595
0.55
0.485
0.425
0.35
0.28
0.23
0.195
0.14
0.08
0.02
-0.04
-0.08
-0.115
-0.16
-0.2
-0.235
-0.26
-0.29
-0.305
-0.325
-0.355
-0.375
-0.4
-0.405
-0.405
-0.41
-0.43
-0.44
-0.46
-0.455
-0.445
-0.445
-0.445
-0.445
-0.465
-0.46
-0.465
-0.46
-0.48
-0.505
-0.525
-0.495
-0.48
-0.48
-0.48
-0.475
-0.485
-0.485
-0.485
-0.48
-0.48
-0.485
-0.49
-0.475
-0.455
-0.46
-0.445
-0.46
-0.475
-0.47
-0.455
-0.455
-0.45
-0.455
-0.465
-0.445
-0.415
-0.415
-0.42
-0.43
-0.435
-0.415
-0.405
-0.4
-0.39
-0.405
-0.43
-0.44
-0.435
-0.42
-0.42
-0.43
-0.45
-0.435
-0.415
-0.41
-0.42
-0.425
-0.43
-0.415
-0.405
-0.405
-0.425
-0.42
-0.445
-0.45
-0.44
-0.42
-0.41
-0.435
-0.43
-0.435
-0.415
-0.4
-0.41
-0.41
-0.41
-0.4
-0.395
-0.4
-0.415
-0.41
-0.425
-0.415
-0.41
-0.4
-0.395
-0.405
-0.405
-0.395
-0.38
-0.38
-0.385
-0.395
-0.4
-0.4
-0.39
-0.38
-0.37
-0.39
-0.4
-0.375
-0.375
-0.38
-0.38
-0.395
-0.4
-0.37
-0.375
-0.37
-0.37
-0.375
-0.37
-0.355
-0.355
-0.355
-0.35
-0.34
-0.355
-0.345
-0.335
-0.31
-0.295
-0.265
-0.23
-0.12
0.09
0.51
1.125
1.655
1.88
1.825
1.685
1.59
1.54
1.485
1.41
1.33
1.28
1.22
1.155
1.105
1.035
0.975
0.875
0.765
0.645
0.505
0.38
0.235
0.06
-0.16
-0.41
-0.625
-0.85
-1.065
-1.265
-1.46
-1.595
-1.725
-1.83
-1.89
-1.96
-2.025
-2.09
-2.175
-2.28
-2.37
-2.44
-2.505
-2.575
-2.63
-2.69
-2.68
-2.635
-2.555
-2.425
-2.275
-2.095
-1.915
-1.72
-1.585
-1.505
-1.445
-1.385
-1.315
-1.25
-1.205
-1.16
-1.135
-1.14
-1.12
-1.08
-1.05
-1.0
-0.925
-0.86
-0.795
-0.73
-0.66
-0.615
-0.56
-0.5
-0.415
-0.325
-0.235
-0.16
-0.085
-0.035
0.03
0.085
0.13
0.14
0.145
0.16
0.175
0.205
0.235
0.245
0.255
0.27
0.305
0.34
0.365
0.375
0.415
0.425
0.47
0.505
0.53
0.565
0.575
0.6
0.65
0.7
0.745
0.79
0.805
0.83
0.87
0.91
0.945
0.96
0.99
1.02
1.055
1.085
1.115
1.125
1.135
1.145
1.175
1.185
1.19
1.195
1.2
1.19
1.2
1.215
1.2
1.19
1.18
1.165
1.145
1.135
1.105
1.07
1.035
0.99
0.975
0.945
0.92
0.875
0.83
0.775
0.75
0.715
0.66
0.61
0.555
0.485
0.42
0.395
0.33
0.27
0.225
0.185
0.145
0.09
0.055
0.015
-0.01
-0.06
-0.095
-0.125
-0.145
-0.185
-0.2
-0.2
-0.205
-0.22
-0.245
-0.255
-0.265
-0.275
-0.28
-0.275
-0.295
-0.315
-0.325
-0.33
-0.325
-0.325
-0.32
-0.325
-0.335
-0.335
-0.32
-0.32
-0.325
-0.32
-0.33
-0.335
-0.33
-0.33
-0.325
-0.335
-0.335
-0.345
-0.34
-0.33
-0.33
-0.33
-0.32
-0.32
-0.305
-0.295
-0.305
-0.32
-0.34
-0.32
-0.3
-0.3
-0.295
-0.31
-0.31
-0.315
-0.295
-0.27
-0.255
-0.25
-0.265
-0.285
-0.275
-0.265
-0.26
-0.26
-0.275
-0.285
-0.285
-0.27
-0.265
-0.26
-0.27
-0.275
-0.28
-0.265
-0.28
-0.28
-0.31
-0.315
-0.285
-0.27
-0.27
-0.28
-0.285
-0.28
-0.275
-0.25
-0.245
-0.23
-0.225
-0.21
-0.175
-0.14
-0.1
-0.06
-0.03
0.005
0.025
0.045
0.065
0.07
0.09
0.115
0.135
0.15
0.135
0.105
0.06
0.03
0.035
0.05
0.04
0.03
0.015
-0.02
-0.025
-0.025
-0.035
-0.055
-0.11
-0.135
-0.165
-0.18
-0.195
-0.22
-0.23
-0.255
-0.28
-0.275
-0.3
-0.325
-0.34
-0.35
-0.34
-0.34
-0.36
-0.375
-0.385
-0.37
-0.355
-0.32
-0.3
-0.28
-0.25
-0.15
0.095
0.525
1.12
1.67
1.895
1.815
1.63
1.525
1.46
1.395
1.295
1.18
1.09
1.025
0.95
0.855
0.745
0.645
0.515
0.4
0.27
0.12
-0.01
-0.14
-0.275
-0.445
-0.615
-0.785
-0.97
-1.135
-1.3
-1.455
-1.595
-1.695
-1.76
-1.805
-1.805
-1.845
-1.9
-2.0
-2.13
-2.225
-2.275
-2.32
-2.4
-2.465
-2.495
-2.44
-2.32
-2.185
-2.01
-1.86
-1.685
-1.54
-1.42
-1.325
-1.285
-1.235
-1.195
-1.15
-1.09
-1.045
-1.01
-1.0
-0.985
-0.96
-0.905
-0.84
-0.76
-0.68
-0.625
-0.575
-0.5
-0.43
-0.355
-0.285
-0.225
-0.15
-0.08
0.0
0.085
0.155
0.195
0.23
0.265
0.28
0.295
0.31
0.315
0.34
0.375
0.42
0.435
0.425
0.435
0.455
0.485
0.52
0.555
0.565
0.585
0.6
0.64
0.675
0.71
0.735
0.755
0.775
0.805
0.85
0.88
0.915
0.935
0.955
0.985
1.02
1.05
1.07
1.09
1.1
1.12
1.145
1.17
1.175
1.18
1.175
1.21
1.22
1.22
1.22
1.205
1.19
1.18
1.17
1.18
1.15
1.145
1.12
1.105
1.075
1.055
1.01
0.965
0.935
0.915
0.89
0.86
0.81
0.765
0.725
0.69
0.65
0.605
0.545
0.49
0.445
0.395
0.34
0.295
0.25
0.195
0.15
0.115
0.095
0.06
0.01
-0.025
-0.07
-0.1
-0.115
-0.14
-0.17
-0.205
-0.23
-0.235
-0.25
-0.245
-0.275
-0.305
-0.31
-0.3
-0.3
-0.295
-0.305
-0.315
-0.325
-0.305
-0.29
-0.285
-0.285
-0.255
-0.22
-0.205
-0.17
-0.125
-0.09
-0.07
-0.065
-0.045
-0.015
0.01
0.015
0.01
0.025
0.045
0.07
0.06
0.035
-0.01
-0.04
-0.035
-0.03
-0.035
-0.05
-0.06
-0.07
-0.065
-0.065
-0.07
-0.095
-0.11
-0.135
-0.15
-0.16
-0.185
-0.21
-0.245
-0.28
-0.305
-0.325
-0.35
-0.36
-0.39
-0.4
-0.4
-0.4
-0.41
-0.425
-0.44
-0.455
-0.46
-0.46
-0.45
-0.46
-0.47
-0.475
-0.485
-0.485
-0.49
-0.505
-0.5
-0.515
-0.5
-0.485
-0.48
-0.495
-0.5
-0.505
-0.495
-0.5
-0.485
-0.49
-0.505
-0.505
-0.515
-0.5
-0.495
-0.505
-0.505
-0.505
-0.505
-0.49
-0.485
-0.495
-0.505
-0.51
-0.49
-0.5
-0.51
-0.515
-0.51
-0.51
-0.505
-0.505
-0.51
-0.51
-0.51
-0.52
-0.51
-0.51
-0.495
-0.505
-0.495
-0.505
-0.505
-0.495
-0.495
-0.495
-0.5
-0.5
-0.485
-0.475
-0.47
-0.465
-0.465
-0.465
-0.445
-0.435
-0.42
-0.43
-0.4
-0.37
-0.285
-0.17
0.13
0.64
1.26
1.705
1.805
1.675
1.52
1.43
1.375
1.3
1.21
1.11
1.01
0.905
0.81
0.705
0.61
0.52
0.375
0.235
0.08
-0.095
-0.26
-0.41
-0.585
-0.785
-0.96
-1.135
-1.315
-1.48
-1.635
-1.8
-1.94
-2.03
-2.08
-2.135
-2.195
-2.245
-2.305
-2.375
-2.455
-2.525
-2.58
-2.625
-2.66
-2.705
-2.695
-2.665
-2.58
-2.475
-2.345
-2.19
-2.02
-1.845
-1.66
-1.54
-1.44
-1.375
-1.285
-1.235
-1.155
-1.11
-1.08
-1.065
-1.05
-1.025
-0.985
-0.945
-0.89
-0.825
-0.74
-0.655
-0.595
-0.53
-0.485
-0.415
-0.335
-0.245
-0.16
-0.09
-0.025
0.03
0.095
0.165
0.205
0.235
0.245
0.26
0.285
0.325
0.34
0.34
0.335
0.37
0.395
0.425
0.435
0.46
0.48
0.5
0.53
0.565
0.6
0.615
0.64
0.64
0.68
0.72
0.745
0.785
0.795
0.84
0.88
0.93
0.96
0.98
1.015
1.045
1.105
1.125
1.155
1.185
1.205
1.225
1.275
1.325
1.38
1.405
1.42
1.46
1.51
1.54
1.555
1.56
1.55
1.535
1.545
1.55
1.555
1.52
1.475
1.425
1.39
1.33
1.285
1.23
1.2
1.155
1.12
1.095
1.045
0.98
0.92
0.84
0.785
0.735
0.65
0.57
0.485
0.415
0.355
0.29
0.225
0.145
0.06
-0.01
-0.065
-0.1
-0.15
-0.2
-0.26
-0.295
-0.33
-0.345
-0.38
-0.41
-0.44
-0.45
-0.46
-0.485
-0.49
-0.5
-0.53
-0.535
-0.545
-0.545
-0.54
-0.555
-0.565
-0.575
-0.575
-0.575
-0.575
-0.585
-0.595
-0.61
-0.58
-0.575
-0.575
-0.58
-0.595
-0.59
-0.58
-0.575
-0.565
-0.57
-0.58
-0.595
-0.57
-0.56
-0.55
-0.555
-0.555
-0.57
-0.555
-0.56
-0.56
-0.56
-0.565
-0.565
-0.555
-0.54
-0.545
-0.54
-0.545
-0.55
-0.54
-0.545
-0.54
-0.54
-0.54
-0.555
-0.55
-0.54
-0.545
-0.55
-0.56
-0.585
-0.58
-0.57
-0.565
-0.565
-0.58
-0.58
-0.58
-0.55
-0.555
-0.565
-0.575
-0.585
-0.565
-0.555
-0.565
-0.565
-0.575
-0.595
-0.575
-0.55
-0.56
-0.555
-0.56
-0.575
-0.565
-0.575
-0.565
-0.57
-0.575
-0.58
-0.57
-0.545
-0.555
-0.545
-0.55
-0.55
-0.54
-0.54
-0.555
-0.55
-0.55
-0.555
-0.54
-0.545
-0.535
-0.54
-0.555
-0.56
-0.525
-0.525
-0.52
-0.54
-0.545
-0.55
-0.535
-0.535
-0.53
-0.535
-0.535
-0.53
-0.52
-0.52
-0.52
-0.525
-0.515
-0.515
-0.5
-0.485
-0.48
-0.48
-0.475
-0.46
-0.41
-0.34
-0.21
0.09
0.62
1.255
1.74
1.79
1.61
1.415
1.325
1.255
1.175
1.08
0.955
0.85
0.75
0.63
0.52
0.42
0.285
0.13
-0.045
-0.215
-0.375
-0.54
-0.75
-0.945
-1.135
-1.345
-1.54
-1.725
-1.905
-2.075
-2.205
-2.3
-2.33
-2.365
-2.39
-2.42
-2.46
-2.525
-2.6
-2.66
-2.69
-2.72
-2.75
-2.795
-2.785
-2.735
-2.63
-2.48
-2.305
-2.12
-1.91
-1.725
-1.555
-1.465
-1.41
-1.33
-1.235
-1.155
-1.085
-1.045
-0.99
-0.95
-0.885
-0.805
-0.715
-0.62
-0.52
-0.435
-0.35
-0.225
-0.13
-0.06
-0.02
0.03
0.105
0.165
0.23
0.29
0.35
0.41
0.465
0.495
0.5
0.515
0.515
0.495
0.505
0.51
0.52
0.515
0.515
0.5
0.49
0.485
0.495
0.505
0.515
0.525
0.55
0.575
0.59
0.605
0.615
0.63
0.66
0.685
0.705
0.745
0.77
0.795
0.83
0.86
0.89
0.905
0.915
0.935
0.96
0.985
1.02
1.035
1.03
1.035
1.05
1.055
1.06
1.055
1.035
1.03
1.015
1.015
1.005
0.99
0.965
0.925
0.91
0.88
0.86
0.825
0.785
0.73
0.7
0.655
0.61
0.555
0.505
0.44
0.395
0.365
0.315
0.26
0.2
0.16
0.095
0.04
0.005
-0.06
-0.1
-0.135
-0.175
-0.205
-0.235
-0.28
-0.31
-0.355
-0.355
-0.385
-0.39
-0.425
-0.45
-0.48
-0.475
-0.465
-0.475
-0.475
-0.49
-0.51
-0.51
-0.51
-0.495
-0.51
-0.515
-0.525
-0.515
-0.525
-0.525
-0.54
-0.545
-0.55
-0.525
-0.51
-0.515
-0.505
-0.525
-0.54
-0.535
-0.52
-0.525
-0.52
-0.53
-0.54
-0.53
-0.515
-0.505
-0.505
-0.525
-0.535
-0.53
-0.51
-0.505
-0.51
-0.505
-0.51
-0.5
-0.485
-0.49
-0.51
-0.52
-0.51
-0.51
-0.5
-0.49
-0.485
-0.485
-0.49
-0.48
-0.475
-0.49
-0.485
-0.48
-0.485
-0.48
-0.475
-0.47
-0.485
-0.475
-0.49
-0.48
-0.47
-0.47
-0.46
-0.47
-0.47
-0.475
-0.46
-0.45
-0.465
-0.445
-0.465
-0.455
-0.45
-0.44
-0.445
-0.445
-0.47
-0.46
-0.455
-0.445
-0.435
-0.445
-0.445
-0.435
-0.445
-0.435
-0.445
-0.445
-0.46
-0.445
-0.435
-0.43
-0.43
-0.43
-0.44
-0.435
-0.44
-0.43
-0.445
-0.445
-0.45
-0.45
-0.425
-0.405
-0.395
-0.41
-0.435
-0.425
-0.415
-0.415
-0.415
-0.415
-0.425
-0.395
-0.39
-0.385
-0.385
-0.395
-0.39
-0.385
-0.355
-0.345
-0.335
-0.305
-0.275
-0.22
-0.13
0.025
0.345
0.9
1.535
2.015
2.09
1.935
1.775
1.715
1.68
1.62
1.545
1.455
1.355
1.26
1.165
1.075
0.98
0.845
0.705
0.545
0.39
0.23
0.04
-0.15
-0.355
-0.58
-0.81
-1.04
-1.235
-1.415
-1.55
-1.675
-1.775
-1.85
-1.915
-1.985
-2.085
-2.215
-2.315
-2.375
-2.41
-2.495
-2.58
-2.62
-2.595
-2.475
-2.33
-2.15
-1.985
-1.8
-1.625
-1.485
-1.395
-1.32
-1.26
-1.22
-1.18
-1.125
-1.085
-1.09
-1.09
-1.045
-0.99
-0.905
-0.825
-0.76
-0.715
-0.66
-0.605
-0.525
-0.455
-0.385
-0.29
-0.22
-0.145
-0.085
-0.01
0.05
0.09
0.11
0.12
0.15
0.195
0.225
0.235
0.24
0.25
0.285
0.325
0.355
0.36
0.37
0.4
0.445
0.5
0.52
0.545
0.58
0.61
0.645
0.685
0.72
0.75
0.775
0.785
0.82
0.87
0.905
0.945
0.97
1.0
1.045
1.08
1.11
1.12
1.15
1.155
1.195
1.215
1.24
1.245
1.24
1.24
1.25
1.275
1.27
1.255
1.23
1.2
1.195
1.19
1.155
1.125
1.09
1.06
1.025
0.985
0.95
0.905
0.86
0.825
0.77
0.745
0.68
0.63
0.575
0.52
0.465
0.425
0.36
0.295
0.245
0.19
0.155
0.12
0.085
0.035
-0.005
-0.025
-0.065
-0.085
-0.145
-0.175
-0.195
-0.23
-0.225
-0.225
-0.225
-0.23
-0.26
-0.28
-0.29
-0.275
-0.275
-0.3
-0.315
-0.34
-0.32
-0.315
-0.305
-0.3
-0.295
-0.32
-0.325
-0.335
-0.315
-0.32
-0.335
-0.345
-0.325
-0.315
-0.31
-0.315
-0.31
-0.315
-0.315
-0.3
-0.305
-0.315
-0.31
-0.315
-0.305
-0.3
-0.285
-0.295
-0.3
-0.285
-0.285
-0.275
-0.285
-0.295
-0.305
-0.31
-0.29
-0.28
-0.27
-0.28
-0.29
-0.315
-0.295
-0.295
-0.3
-0.3
-0.305
-0.32
-0.305
-0.285
-0.295
-0.295
-0.28
-0.27
-0.25
-0.23
-0.22
-0.215
-0.225
-0.205
-0.185
-0.14
-0.12
-0.105
-0.09
-0.065
-0.045
-0.03
0.0
0.02
0.045
0.045
0.045
0.015
0.005
-0.02
-0.025
-0.025
-0.01
-0.01
-0.01
-0.02
-0.045
-0.065
-0.08
-0.095
-0.125
-0.155
-0.19
-0.21
-0.235
-0.25
-0.27
-0.295
-0.35
-0.375
-0.38
-0.375
-0.395
-0.41
-0.43
-0.45
-0.455
-0.45
-0.47
-0.48
-0.49
-0.49
-0.49
-0.475
-0.465
-0.475
-0.475
-0.475
-0.465
-0.445
-0.44
-0.44
-0.435
-0.43
-0.39
-0.345
-0.255
-0.025
0.425
1.06
1.65
1.8
1.64
1.435
1.335
1.285
1.235
1.15
1.065
0.99
0.915
0.855
0.81
0.755
0.675
0.58
0.49
0.39
0.31
0.205
0.09
-0.04
-0.165
-0.28
-0.39
-0.5
-0.62
-0.74
-0.805
-0.855
-0.865
-0.86
-0.845
-0.86
-0.92
-1.065
-1.165
-1.265
-1.37
-1.5
-1.645
-1.76
-1.755
-1.675
-1.565
-1.46
-1.37
-1.26
-1.17
-1.15
-1.14
-1.14
-1.12
-1.12
-1.07
-1.04
-1.03
-1.06
-1.085
-1.06
-1.01
-0.96
-0.91
-0.865
-0.82
-0.775
-0.725
-0.65
-0.595
-0.52
