Lead II
-0.345
-0.32
-0.31
-0.32
-0.31
-0.32
-0.305
-0.285
-0.295
-0.305
-0.31
-0.3
-0.305
-0.295
-0.3
-0.315
-0.31
-0.31
-0.29
-0.275
-0.29
-0.3
-0.32
-0.32
-0.305
-0.29
-0.3
-0.31
-0.34
-0.32
-0.305
-0.31
-0.285
-0.29
-0.3
-0.29
-0.285
-0.28
-0.265
-0.29
-0.31
-0.295
-0.285
-0.275
-0.275
-0.29
-0.305
-0.285
-0.27
-0.25
-0.245
-0.245
-0.25
-0.255
-0.255
-0.25
-0.275
-0.285
-0.245
-0.18
-0.07
0.065
0.235
0.43
0.655
0.89
1.15
1.35
1.415
1.275
0.97
0.62
0.29
0.0
-0.155
-0.195
-0.21
-0.225
-0.205
-0.18
-0.165
-0.18
-0.19
-0.195
-0.185
-0.18
-0.19
-0.2
-0.225
-0.23
-0.23
-0.205
-0.22
-0.225
-0.235
-0.23
-0.21
-0.205
-0.2
-0.21
-0.22
-0.205
-0.19
-0.175
-0.18
-0.195
-0.205
-0.205
-0.18
-0.165
-0.17
-0.175
-0.18
-0.175
-0.155
-0.14
-0.135
-0.145
-0.15
-0.125
-0.125
-0.12
-0.135
-0.135
-0.13
-0.12
-0.1
-0.07
-0.06
-0.06
-0.06
-0.045
-0.03
0.01
0.0
0.01
0.01
0.015
0.02
0.045
0.06
0.055
0.08
0.105
0.115
0.15
0.17
0.165
0.165
0.185
0.215
0.235
0.245
0.21
0.21
0.225
0.22
0.235
0.215
0.185
0.175
0.17
0.15
0.13
0.12
0.09
0.065
0.035
0.03
0.01
-0.025
-0.075
-0.105
-0.135
-0.125
-0.125
-0.135
-0.165
-0.18
-0.195
-0.185
-0.17
-0.175
-0.19
-0.215
-0.215
-0.215
-0.215
-0.205
-0.22
-0.22
-0.215
-0.215
-0.2
-0.2
-0.21
-0.21
-0.205
-0.195
-0.19
-0.205
-0.225
-0.23
-0.215
-0.205
-0.19
-0.2
-0.22
-0.22
-0.22
-0.205
-0.185
-0.185
-0.195
-0.21
-0.22
-0.205
-0.205
-0.225
-0.225
-0.25
-0.235
-0.225
-0.21
-0.21
-0.22
-0.215
-0.22
-0.205
-0.19
-0.2
-0.21
-0.23
-0.24
-0.235
-0.22
-0.22
-0.225
-0.235
-0.235
-0.225
-0.22
-0.22
-0.215
-0.22
-0.215
-0.22
-0.21
-0.23
-0.235
-0.25
-0.24
-0.225
-0.215
-0.22
-0.235
-0.23
-0.22
-0.205
-0.185
-0.185
-0.205
-0.245
-0.245
-0.225
-0.205
-0.205
-0.19
-0.195
-0.185
-0.17
-0.15
-0.14
-0.145
-0.15
-0.155
-0.145
-0.155
-0.15
-0.175
-0.19
-0.21
-0.195
-0.19
-0.17
-0.185
-0.19
-0.18
-0.19
-0.17
-0.17
-0.18
-0.18
-0.185
-0.185
-0.185
-0.18
-0.195
-0.205
-0.205
-0.19
-0.2
-0.18
-0.19
-0.2
-0.195
-0.175
-0.17
-0.17
-0.195
-0.2
-0.19
-0.2
-0.175
-0.17
-0.175
-0.18
-0.155
-0.155
-0.145
-0.145
-0.16
-0.16
-0.105
0.005
0.13
0.3
0.46
0.69
0.93
1.22
1.445
1.545
1.41
1.105
0.765
0.46
0.215
0.05
-0.05
-0.11
-0.15
-0.19
-0.155
-0.125
-0.115
-0.135
-0.155
-0.155
-0.145
-0.145
-0.155
-0.175
-0.155
-0.155
-0.155
-0.16
-0.175
-0.19
-0.185
-0.17
-0.155
-0.165
-0.17
-0.18
-0.16
-0.145
-0.12
-0.13
-0.145
-0.15
-0.145
-0.14
-0.13
-0.135
-0.15
-0.16
-0.15
-0.135
-0.105
-0.1
-0.115
-0.11
-0.1
-0.09
-0.075
-0.075
-0.075
-0.08
-0.075
-0.05
-0.04
-0.03
-0.03
-0.04
-0.03
-0.015
0.015
0.02
0.025
0.005
0.025
0.06
0.085
0.1
0.09
0.085
0.11
0.125
0.16
0.175
0.165
0.165
0.195
0.205
0.24
0.25
0.255
0.25
0.255
0.27
0.28
0.275
0.26
0.245
0.25
0.245
0.25
0.235
0.2
0.165
0.14
0.14
0.125
0.11
0.06
0.025
0.005
-0.005
-0.02
-0.035
-0.065
-0.1
-0.105
-0.11
-0.105
-0.105
-0.125
-0.145
-0.14
-0.135
-0.125
-0.125
-0.16
-0.18
-0.185
-0.175
-0.16
-0.155
-0.175
-0.185
-0.18
-0.165
-0.15
-0.15
-0.16
-0.165
-0.17
-0.16
-0.15
-0.165
-0.18
-0.19
-0.175
-0.15
-0.14
-0.15
-0.165
-0.165
-0.165
-0.15
-0.135
-0.135
-0.16
-0.175
-0.17
-0.17
-0.14
-0.14
-0.15
-0.16
-0.175
-0.18
-0.135
-0.135
-0.16
-0.185
-0.18
-0.175
-0.16
-0.15
-0.16
-0.165
-0.17
-0.16
-0.145
-0.155
-0.165
-0.17
-0.16
-0.13
-0.115
-0.105
-0.14
-0.12
-0.115
-0.085
-0.055
-0.065
-0.065
-0.07
-0.055
-0.035
-0.025
-0.03
-0.04
-0.065
-0.075
-0.06
-0.035
-0.02
-0.015
-0.01
0.04
0.1
0.175
0.225
0.27
0.325
0.395
0.475
0.55
0.605
0.635
0.67
0.735
0.81
0.895
0.96
1.035
1.105
1.225
1.285
1.29
1.26
1.19
1.135
1.125
1.115
1.105
1.105
1.095
1.065
1.055
1.065
1.065
1.08
1.085
1.065
1.055
0.99
0.87
0.7
0.45
0.185
-0.02
-0.17
-0.285
-0.35
-0.4
-0.41
-0.43
-0.435
-0.46
-0.475
-0.51
-0.54
-0.555
-0.54
-0.545
-0.555
-0.575
-0.585
-0.59
-0.575
-0.565
-0.57
-0.6
-0.615
-0.625
-0.65
-0.615
-0.64
-0.655
-0.675
-0.675
-0.67
-0.66
-0.67
-0.685
-0.7
-0.7
-0.695
-0.675
-0.68
-0.715
-0.74
-0.73
-0.715
-0.705
-0.71
-0.735
-0.74
-0.74
-0.73
-0.69
-0.685
-0.695
-0.725
-0.705
-0.69
-0.66
-0.65
-0.65
-0.635
-0.615
-0.59
-0.555
-0.53
-0.515
-0.5
-0.465
-0.46
-0.42
-0.395
-0.395
-0.405
-0.36
-0.33
-0.305
-0.295
-0.295
-0.285
-0.29
-0.275
-0.27
-0.255
-0.285
-0.29
-0.285
-0.285
-0.28
-0.28
-0.305
-0.325
-0.315
-0.3
-0.29
-0.3
-0.31
-0.32
-0.315
-0.3
-0.29
-0.295
-0.31
-0.32
-0.325
-0.31
-0.3
-0.305
-0.32
-0.335
-0.305
-0.29
-0.275
-0.28
-0.3
-0.31
-0.305
-0.29
-0.29
-0.29
-0.295
-0.315
-0.29
-0.285
-0.265
-0.26
-0.265
-0.27
-0.26
-0.245
-0.23
-0.235
-0.24
-0.27
-0.27
-0.255
-0.245
-0.235
-0.26
-0.26
-0.245
-0.235
-0.235
-0.23
-0.23
-0.24
-0.22
-0.215
-0.2
-0.2
-0.235
-0.24
-0.23
-0.225
-0.21
-0.21
-0.235
-0.235
-0.23
-0.205
-0.195
-0.185
-0.195
-0.2
-0.21
-0.22
-0.21
-0.205
-0.205
-0.225
-0.225
-0.215
-0.205
-0.195
-0.205
-0.225
-0.215
-0.205
-0.18
-0.18
-0.19
-0.21
-0.215
-0.195
-0.185
-0.165
-0.16
-0.155
-0.145
-0.135
-0.105
-0.08
-0.065
-0.06
-0.04
-0.045
-0.055
-0.075
-0.095
-0.12
-0.11
-0.125
-0.12
-0.13
-0.165
-0.17
-0.17
-0.17
-0.17
-0.175
-0.2
-0.22
-0.23
-0.23
-0.22
-0.215
-0.22
-0.23
-0.235
-0.22
-0.2
-0.185
-0.22
-0.24
-0.22
-0.21
-0.205
-0.21
-0.21
-0.23
-0.225
-0.205
-0.195
-0.19
-0.2
-0.225
-0.22
-0.205
-0.15
-0.055
0.04
0.195
0.42
0.7
0.995
1.235
1.42
1.53
1.46
1.23
0.895
0.535
0.175
-0.065
-0.16
-0.19
-0.21
-0.215
-0.22
-0.21
-0.185
-0.19
-0.175
-0.185
-0.2
-0.215
-0.21
-0.19
-0.195
-0.185
-0.2
-0.225
-0.22
-0.21
-0.195
-0.185
-0.2
-0.21
-0.22
-0.195
-0.175
-0.17
-0.17
-0.175
-0.18
-0.18
-0.17
-0.165
-0.18
-0.185
-0.17
-0.16
-0.14
-0.13
-0.12
-0.13
-0.12
-0.115
-0.105
-0.095
-0.095
-0.095
-0.095
-0.09
-0.055
-0.04
-0.05
-0.05
-0.035
0.005
0.04
0.055
0.05
0.055
0.075
0.095
0.1
0.125
0.13
0.14
0.155
0.185
0.22
0.24
0.235
0.235
0.255
0.27
0.295
0.3
0.275
0.27
0.265
0.265
0.27
0.245
0.205
0.175
0.14
0.125
0.115
0.09
0.055
0.01
-0.02
-0.045
-0.065
-0.075
-0.115
-0.145
-0.155
-0.155
-0.165
-0.19
-0.205
-0.215
-0.215
-0.215
-0.195
-0.205
-0.23
-0.245
-0.25
-0.24
-0.23
-0.24
-0.25
-0.25
-0.235
-0.225
-0.225
-0.23
-0.24
-0.26
-0.25
-0.225
-0.235
-0.235
-0.245
-0.25
-0.255
-0.235
-0.225
-0.215
-0.215
-0.225
-0.23
-0.22
-0.21
-0.21
-0.22
-0.23
-0.26
-0.23
-0.235
-0.23
-0.22
-0.235
-0.235
-0.24
-0.215
-0.205
-0.215
-0.225
-0.24
-0.215
-0.21
-0.225
-0.23
-0.255
-0.255
-0.235
-0.22
-0.21
-0.23
-0.22
-0.22
-0.19
-0.17
-0.16
-0.17
-0.17
-0.155
-0.155
-0.135
-0.12
-0.11
-0.12
-0.115
-0.12
-0.09
-0.09
-0.11
-0.14
-0.15
-0.15
-0.145
-0.165
-0.205
-0.22
-0.235
-0.225
-0.22
-0.225
-0.255
-0.265
-0.265
-0.245
-0.215
-0.215
-0.225
-0.24
-0.24
-0.245
-0.24
-0.23
-0.24
-0.245
-0.245
-0.235
-0.23
-0.215
-0.225
-0.23
-0.23
-0.22
-0.21
-0.2
-0.215
-0.24
-0.245
-0.225
-0.16
-0.06
0.065
0.24
0.445
0.705
0.965
1.22
1.42
1.525
1.43
1.14
0.795
0.435
0.11
-0.095
-0.175
-0.195
-0.21
-0.22
-0.24
-0.215
-0.185
-0.18
-0.175
-0.19
-0.215
-0.22
-0.25
-0.235
-0.21
-0.205
-0.225
-0.23
-0.23
-0.215
-0.205
-0.205
-0.2
-0.215
-0.205
-0.21
-0.19
-0.205
-0.215
-0.215
-0.2
-0.19
-0.175
-0.18
-0.175
-0.19
-0.165
-0.145
-0.13
-0.125
-0.15
-0.155
-0.155
-0.14
-0.125
-0.12
-0.125
-0.12
-0.11
-0.095
-0.065
-0.055
-0.035
-0.04
-0.025
0.0
0.02
0.02
0.01
0.045
0.05
0.085
0.115
0.14
0.145
0.145
0.16
0.19
0.205
0.215
0.215
0.22
0.24
0.255
0.28
0.28
0.275
0.255
0.245
0.245
0.245
0.205
0.17
0.13
0.09
0.07
0.05
0.02
-0.005
-0.06
-0.085
-0.09
-0.085
-0.115
-0.125
-0.16
-0.17
-0.17
-0.175
-0.19
-0.21
-0.215
-0.215
-0.2
-0.19
-0.195
-0.205
-0.215
-0.225
-0.21
-0.2
-0.21
-0.23
-0.24
-0.25
-0.23
-0.22
-0.21
-0.21
-0.23
-0.215
-0.195
-0.195
-0.19
-0.205
-0.215
-0.22
-0.215
-0.195
-0.195
-0.205
-0.2
-0.21
-0.205
-0.175
-0.17
-0.185
-0.195
-0.21
-0.175
-0.185
-0.195
-0.185
-0.21
-0.22
-0.195
-0.18
-0.18
-0.19
-0.205
-0.2
-0.195
-0.185
-0.175
-0.2
-0.2
-0.195
-0.195
-0.175
-0.19
-0.18
-0.2
-0.19
-0.17
-0.15
-0.145
-0.15
-0.16
-0.145
-0.13
-0.1
-0.08
-0.08
-0.06
-0.04
0.02
0.075
0.14
0.195
0.245
0.31
0.365
0.46
0.5
0.555
0.585
0.62
0.68
0.74
0.785
0.83
0.895
0.955
1.03
1.12
1.175
1.255
1.295
1.305
1.29
1.25
1.185
1.13
1.095
1.065
1.07
1.105
1.12
1.085
1.075
1.09
1.105
1.135
1.14
1.13
1.06
0.975
0.85
0.675
0.445
0.195
-0.02
-0.155
-0.225
-0.295
-0.335
-0.375
-0.415
-0.44
-0.445
-0.445
-0.465
-0.5
-0.525
-0.52
-0.515
-0.51
-0.52
-0.52
-0.54
-0.54
-0.55
-0.545
-0.54
-0.565
-0.6
-0.605
-0.6
-0.59
-0.585
-0.6
-0.615
-0.62
-0.615
-0.6
-0.605
-0.615
-0.625
-0.63
-0.635
-0.625
-0.645
-0.67
-0.665
-0.675
-0.66
-0.65
-0.65
-0.67
-0.67
-0.675
-0.65
-0.635
-0.635
-0.635
-0.66
-0.655
-0.64
-0.615
-0.61
-0.615
-0.605
-0.6
-0.57
-0.535
-0.52
-0.51
-0.495
-0.48
-0.43
-0.4
-0.375
-0.385
-0.375
-0.335
-0.305
-0.265
-0.24
-0.235
-0.235
-0.225
-0.205
-0.175
-0.175
-0.175
-0.19
-0.195
-0.18
-0.185
-0.205
-0.21
-0.21
-0.22
-0.21
-0.205
-0.2
-0.21
-0.245
-0.23
-0.22
-0.2
-0.205
-0.22
-0.24
-0.265
-0.25
-0.225
-0.22
-0.23
-0.255
-0.25
-0.225
-0.22
-0.22
-0.215
-0.23
-0.23
-0.235
-0.225
-0.21
-0.215
-0.225
-0.225
-0.215
-0.205
-0.195
-0.205
-0.215
-0.205
-0.19
-0.17
-0.17
-0.19
-0.22
-0.22
-0.185
-0.175
-0.17
-0.185
-0.19
-0.18
-0.17
-0.155
-0.15
-0.165
-0.16
-0.16
-0.16
-0.15
-0.15
-0.155
-0.18
-0.16
-0.16
-0.125
-0.135
-0.15
-0.155
-0.155
-0.14
-0.12
-0.12
-0.13
-0.15
-0.175
-0.145
-0.14
-0.12
-0.135
-0.155
-0.14
-0.135
-0.125
-0.115
-0.12
-0.125
-0.155
-0.13
-0.115
-0.115
-0.135
-0.14
-0.14
-0.14
-0.115
-0.12
-0.125
-0.135
-0.135
-0.14
-0.105
-0.125
-0.12
-0.135
-0.145
-0.135
-0.125
-0.125
-0.13
-0.135
-0.13
-0.1
-0.085
-0.065
-0.055
-0.055
-0.05
-0.01
0.0
0.015
0.025
0.02
0.035
0.04
0.025
0.01
0.015
-0.02
-0.035
-0.035
-0.025
-0.025
-0.07
-0.09
-0.105
-0.105
-0.095
-0.115
-0.125
-0.135
-0.14
-0.115
-0.095
-0.09
-0.105
-0.115
-0.135
-0.12
-0.105
-0.105
-0.125
-0.14
-0.13
-0.115
-0.1
-0.08
-0.095
-0.105
-0.105
-0.09
-0.07
-0.07
-0.1
-0.12
-0.095
0.015
0.155
0.32
0.485
0.685
0.93
1.17
1.41
1.57
1.55
1.315
1.01
0.705
0.43
0.2
0.085
0.005
-0.045
-0.085
-0.105
-0.09
-0.065
-0.07
-0.08
-0.07
-0.065
-0.085
-0.095
-0.12
-0.13
-0.115
-0.11
-0.105
-0.11
-0.125
-0.11
-0.095
-0.09
-0.09
-0.09
-0.095
-0.09
-0.095
-0.08
-0.08
-0.105
-0.11
-0.11
-0.09
-0.075
-0.06
-0.045
-0.05
-0.045
-0.02
-0.005
-0.02
-0.015
-0.035
-0.01
0.01
0.045
0.045
0.055
0.06
0.07
0.105
0.115
0.12
0.125
0.12
0.135
0.18
0.195
0.225
0.24
0.25
0.255
0.29
0.33
0.34
0.335
0.325
0.335
0.365
0.39
0.39
0.38
0.37
0.365
0.39
0.385
0.38
0.34
0.31
0.305
0.31
0.295
0.265
0.225
0.175
0.15
0.135
0.115
0.09
0.065
0.03
0.005
0.0
-0.01
-0.015
-0.04
-0.065
-0.085
-0.095
-0.085
-0.09
-0.115
-0.135
-0.14
-0.12
-0.115
-0.115
-0.11
-0.12
-0.135
-0.14
-0.115
-0.115
-0.125
-0.15
-0.15
-0.145
-0.14
-0.14
-0.145
-0.16
-0.155
-0.145
-0.125
-0.125
-0.145
-0.155
-0.14
-0.125
-0.13
-0.135
-0.155
-0.165
-0.16
-0.165
-0.145
-0.14
-0.155
-0.16
-0.16
-0.15
-0.13
-0.13
-0.155
-0.16
-0.17
-0.16
-0.16
-0.17
-0.165
-0.18
-0.17
-0.17
-0.145
-0.155
-0.165
-0.185
-0.19
-0.155
-0.125
-0.12
-0.14
-0.16
-0.135
-0.115
-0.075
-0.07
-0.075
-0.07
-0.055
-0.045
-0.025
-0.02
-0.04
-0.07
-0.085
-0.105
-0.1
-0.115
-0.14
-0.175
-0.18
-0.18
-0.17
-0.18
-0.19
-0.21
-0.21
-0.215
-0.2
-0.2
-0.225
-0.25
-0.235
-0.25
-0.23
-0.23
-0.24
-0.26
-0.245
-0.235
-0.22
-0.21
-0.22
-0.235
-0.235
-0.23
-0.205
-0.21
-0.225
-0.225
-0.23
-0.235
-0.225
-0.19
-0.135
-0.05
0.085
0.265
0.495
0.76
1.035
1.29
1.48
1.48
1.285
1.005
0.67
0.325
0.06
-0.085
-0.16
-0.195
-0.22
-0.24
-0.225
-0.195
-0.18
-0.195
-0.23
-0.25
-0.245
-0.24
-0.225
-0.225
-0.24
-0.25
-0.235
-0.245
-0.215
-0.22
-0.225
-0.255
-0.235
-0.235
-0.215
-0.2
-0.21
-0.215
-0.22
-0.225
-0.19
-0.18
-0.18
-0.19
-0.19
-0.18
-0.165
-0.165
-0.17
-0.19
-0.18
-0.17
-0.135
-0.115
-0.13
-0.13
-0.125
-0.105
-0.08
-0.075
-0.095
-0.105
-0.09
-0.065
-0.055
-0.025
-0.02
-0.005
0.0
0.035
0.06
0.07
0.085
0.095
0.105
0.125
0.15
0.16
0.15
0.15
0.155
0.18
0.195
0.21
0.215
0.225
0.23
0.235
0.24
0.225
0.2
0.165
0.125
0.1
0.09
0.065
0.035
0.0
-0.035
-0.06
-0.085
-0.095
-0.12
-0.15
-0.16
-0.155
-0.165
-0.18
-0.215
-0.265
-0.27
-0.275
-0.245
-0.23
-0.245
-0.255
-0.27
-0.27
-0.25
-0.24
-0.265
-0.265
-0.27
-0.28
-0.275
-0.275
-0.3
-0.3
-0.305
-0.295
-0.275
-0.255
-0.265
-0.275
-0.27
-0.25
-0.23
-0.235
-0.255
-0.275
-0.285
-0.27
-0.255
-0.255
-0.255
-0.265
-0.26
-0.26
-0.245
-0.235
-0.24
-0.255
-0.275
-0.27
-0.26
-0.265
-0.26
-0.285
-0.28
-0.275
-0.27
-0.235
-0.245
-0.26
-0.25
-0.245
-0.23
-0.23
-0.235
-0.255
-0.255
-0.25
-0.24
-0.24
-0.25
-0.235
-0.22
-0.195
-0.17
-0.155
-0.15
-0.155
-0.155
-0.14
-0.12
-0.11
-0.115
-0.135
-0.12
-0.095
-0.065
-0.03
-0.01
0.015
0.04
0.105
0.185
0.225
0.285
0.335
0.395
0.45
0.52
0.57
0.605
0.665
0.75
0.825
0.9
0.975
1.03
1.11
1.205
1.285
1.34
1.33
1.295
1.24
1.185
1.165
1.16
1.125
1.1
1.075
1.065
1.05
1.05
1.035
1.03
1.035
1.06
1.075
1.05
0.98
0.86
0.695
0.47
0.235
0.01
-0.165
-0.29
-0.38
-0.45
-0.485
-0.475
-0.495
-0.51
-0.555
-0.58
-0.58
-0.585
-0.59
-0.61
-0.635
-0.65
-0.66
-0.645
-0.655
-0.66
-0.68
-0.68
-0.675
-0.66
-0.665
-0.695
-0.715
-0.72
-0.715
-0.72
-0.715
-0.73
-0.75
-0.76
-0.75
-0.745
-0.745
-0.77
-0.775
-0.8
-0.78
-0.775
-0.78
-0.825
-0.845
-0.83
-0.815
-0.795
-0.805
-0.81
-0.83
-0.85
-0.825
-0.805
-0.785
-0.8
-0.81
-0.805
-0.805
-0.785
-0.785
-0.78
-0.785
-0.775
-0.75
-0.71
-0.685
-0.67
-0.645
-0.63
-0.6
-0.565
-0.515
-0.51
-0.505
-0.495
-0.455
-0.42
-0.4
-0.39
-0.385
-0.36
-0.35
-0.32
-0.31
-0.31
-0.305
-0.295
-0.285
-0.285
-0.285
-0.305
-0.325
-0.33
-0.33
-0.315
-0.31
-0.32
-0.36
-0.355
-0.335
-0.325
-0.32
-0.315
-0.34
-0.35
-0.355
-0.355
-0.34
-0.34
-0.365
-0.36
-0.35
-0.335
-0.33
-0.345
-0.35
-0.36
-0.355
-0.35
-0.345
-0.345
-0.355
-0.36
-0.34
-0.32
-0.32
-0.325
-0.33
-0.34
-0.32
-0.31
-0.31
-0.315
-0.32
-0.32
-0.325
-0.32
-0.305
-0.305
-0.32
-0.335
-0.315
-0.29
-0.28
-0.275
-0.295
-0.29
-0.29
-0.27
-0.28
-0.3
-0.305
-0.295
-0.275
-0.26
-0.26
-0.26
-0.265
-0.295
-0.27
-0.255
-0.255
-0.255
-0.285
-0.285
-0.27
-0.245
-0.25
-0.245
-0.26
-0.27
-0.24
-0.23
-0.23
-0.235
-0.245
-0.25
-0.23
-0.22
-0.225
-0.255
-0.25
-0.27
-0.23
-0.18
-0.15
-0.145
-0.145
-0.14
-0.135
-0.105
-0.095
-0.09
-0.09
-0.09
-0.085
-0.08
-0.1
-0.12
-0.125
-0.145
-0.15
-0.15
-0.155
-0.165
-0.185
-0.2
-0.21
-0.19
-0.19
-0.22
-0.245
-0.245
-0.235
-0.22
-0.21
-0.205
-0.24
-0.23
-0.22
-0.195
-0.195
-0.195
-0.215
-0.225
-0.2
-0.195
-0.205
-0.205
-0.225
-0.21
-0.19
-0.175
-0.175
-0.195
-0.2
-0.18
-0.095
0.035
0.19
0.345
0.535
0.75
1.02
1.255
1.48
1.555
1.42
1.135
0.83
0.505
0.205
0.005
-0.11
-0.15
-0.17
-0.18
-0.175
-0.165
-0.16
-0.165
-0.175
-0.17
-0.17
-0.18
-0.21
-0.21
-0.19
-0.17
-0.175
-0.175
-0.21
-0.215
-0.205
-0.185
-0.185
-0.2
-0.2
-0.21
-0.205
-0.18
-0.155
-0.155
-0.17
-0.18
-0.16
-0.14
-0.14
-0.145
-0.17
-0.165
-0.155
-0.13
-0.11
-0.13
-0.135
-0.13
-0.105
-0.105
-0.085
-0.065
-0.07
-0.07
-0.05
-0.03
-0.03
-0.02
-0.035
-0.015
0.015
0.045
0.055
0.065
0.08
0.085
0.11
0.15
0.165
0.17
0.17
0.175
0.2
0.23
0.255
0.255
0.26
0.265
0.295
0.33
0.355
0.355
0.35
0.35
0.35
0.38
0.36
0.35
0.34
0.31
0.3
0.29
0.265
0.245
0.2
0.175
0.16
0.15
0.12
0.075
0.03
-0.015
-0.01
-0.04
-0.04
-0.06
-0.08
-0.1
-0.105
-0.105
-0.11
-0.115
-0.135
-0.15
-0.15
-0.145
-0.16
-0.165
-0.18
-0.195
-0.175
-0.16
-0.165
-0.17
-0.185
-0.185
-0.165
-0.15
-0.15
-0.17
-0.195
-0.185
-0.18
-0.175
-0.16
-0.18
-0.18
-0.18
-0.175
-0.16
-0.145
-0.145
-0.17
-0.185
-0.165
-0.155
-0.16
-0.16
-0.175
-0.18
-0.18
-0.155
-0.145
-0.155
-0.165
-0.17
-0.155
-0.145
-0.14
-0.16
-0.165
-0.18
-0.165
-0.16
-0.155
-0.165
-0.17
-0.175
-0.175
-0.15
-0.15
-0.145
-0.16
-0.16
-0.15
-0.13
-0.14
-0.145
-0.145
-0.135
-0.115
-0.09
-0.075
-0.065
-0.055
-0.065
-0.035
-0.01
-0.005
-0.005
-0.025
-0.02
-0.01
-0.01
-0.05
-0.06
-0.09
-0.115
-0.11
-0.1
-0.11
-0.13
-0.155
-0.165
-0.16
-0.14
-0.145
-0.16
-0.175
-0.19
-0.18
-0.18
-0.17
-0.2
-0.195
-0.185
-0.175
-0.17
-0.15
-0.165
-0.195
-0.18
-0.175
-0.15
-0.15
-0.16
-0.18
-0.18
-0.17
-0.15
-0.145
-0.145
-0.17
-0.175
-0.16
-0.095
0.005
0.095
0.22
0.39
0.605
0.83
1.035
1.255
1.435
1.555
1.505
1.255
0.93
0.56
0.265
0.075
-0.01
-0.06
-0.09
-0.14
-0.17
-0.17
-0.135
-0.125
-0.125
-0.155
-0.175
-0.18
-0.175
-0.17
-0.16
-0.185
-0.175
-0.19
-0.175
-0.17
-0.15
-0.175
-0.18
-0.195
-0.18
-0.17
-0.175
-0.185
-0.19
-0.17
-0.16
-0.14
-0.135
-0.145
-0.15
-0.14
-0.13
-0.125
-0.115
-0.135
-0.145
-0.15
-0.13
-0.125
-0.11
-0.115
-0.125
-0.115
-0.095
-0.065
-0.045
-0.05
-0.07
-0.06
-0.05
-0.025
-0.02
-0.01
-0.01
0.0
0.015
0.045
0.055
0.05
0.055
0.065
0.105
0.135
0.175
0.175
0.165
0.175
0.2
0.215
0.225
0.235
0.24
0.255
0.265
0.295
0.305
0.31
0.285
0.29
0.295
0.285
0.26
0.24
0.195
0.17
0.15
0.145
0.12
0.09
0.035
0.01
-0.005
-0.01
-0.025
-0.055
-0.085
-0.1
-0.115
-0.125
-0.13
-0.16
-0.19
-0.185
-0.185
-0.175
-0.17
-0.19
-0.21
-0.22
-0.19
-0.18
-0.18
-0.18
-0.2
-0.22
-0.215
-0.205
-0.195
-0.2
-0.22
-0.23
-0.215
-0.205
-0.185
-0.19
-0.205
-0.205
-0.2
-0.19
-0.185
-0.19
-0.21
-0.21
-0.19
-0.18
-0.175
-0.18
-0.205
-0.215
-0.185
-0.17
-0.155
-0.16
-0.185
-0.2
-0.2
-0.18
-0.18
-0.185
-0.195
-0.195
-0.185
-0.17
-0.155
-0.17
-0.185
-0.185
-0.165
-0.145
-0.14
-0.175
-0.19
-0.2
-0.185
-0.165
-0.16
-0.165
-0.19
-0.19
-0.185
-0.165
-0.15
-0.16
-0.18
-0.18
-0.165
-0.14
-0.13
-0.13
-0.125
-0.085
-0.035
0.04
0.12
0.165
0.22
0.275
0.35
0.445
0.535
0.61
0.645
0.67
0.72
0.78
0.82
0.865
0.925
0.98
1.035
1.095
1.145
1.185
1.255
1.295
1.305
1.285
1.235
1.155
1.095
1.08
1.075
1.06
1.05
1.065
1.045
1.045
1.055
1.06
1.085
1.1
1.11
1.105
1.06
0.95
0.795
0.585
0.365
0.17
-0.02
-0.155
-0.25
-0.34
-0.39
-0.42
-0.43
-0.455
-0.46
-0.505
-0.525
-0.565
-0.56
-0.545
-0.555
-0.565
-0.57
-0.58
-0.58
-0.575
-0.59
-0.605
-0.625
-0.635
-0.635
-0.625
-0.615
-0.62
-0.635
-0.655
-0.655
-0.64
-0.635
-0.64
-0.66
-0.69
-0.69
-0.7
-0.69
-0.695
-0.71
-0.705
-0.7
-0.68
-0.68
-0.695
-0.705
-0.71
-0.675
-0.67
-0.66
-0.68
-0.695
-0.715
-0.7
-0.665
-0.66
-0.675
-0.69
-0.685
-0.67
-0.645
-0.605
-0.61
-0.6
-0.59
-0.565
-0.525
-0.505
-0.505
-0.505
-0.485
-0.44
-0.415
-0.385
-0.375
-0.365
-0.35
-0.315
-0.285
-0.26
-0.255
-0.265
-0.275
-0.275
-0.265
-0.275
-0.275
-0.275
-0.285
-0.29
-0.285
-0.295
-0.285
-0.315
-0.315
-0.31
-0.295
-0.3
-0.32
-0.34
-0.34
-0.33
-0.305
-0.305
-0.31
-0.315
-0.325
-0.31
-0.295
-0.29
-0.29
-0.32
-0.33
-0.33
-0.315
-0.295
-0.32
-0.33
-0.34
-0.32
-0.305
-0.295
-0.295
-0.31
-0.32
-0.315
-0.295
-0.29
-0.305
-0.32
-0.325
-0.31
-0.305
-0.295
-0.29
-0.305
-0.31
-0.31
-0.285
-0.255
-0.275
-0.295
-0.3
-0.28
-0.275
-0.28
-0.295
-0.295
-0.3
-0.28
-0.265
-0.25
-0.255
-0.27
-0.275
-0.27
-0.25
-0.255
-0.27
-0.285
-0.295
-0.285
-0.26
-0.255
-0.265
-0.27
-0.28
-0.27
-0.24
-0.245
-0.24
-0.27
-0.26
-0.265
-0.26
-0.255
-0.265
-0.275
-0.28
-0.28
-0.25
-0.235
-0.245
-0.27
-0.265
-0.245
-0.23
-0.24
-0.25
-0.265
-0.275
-0.265
-0.26
-0.26
-0.26
-0.27
-0.25
-0.24
-0.22
-0.215
-0.235
-0.25
-0.26
-0.255
-0.245
-0.235
-0.245
-0.255
-0.255
-0.24
-0.225
-0.205
-0.205
-0.215
-0.195
-0.175
-0.15
-0.15
-0.16
-0.165
-0.18
-0.16
-0.14
-0.125
-0.135
-0.145
-0.17
-0.16
-0.155
-0.17
-0.16
-0.185
-0.185
-0.19
-0.195
-0.205
-0.22
-0.25
-0.25
-0.25
-0.22
-0.225
-0.235
-0.255
-0.25
-0.24
-0.235
-0.22
-0.24
-0.255
-0.265
-0.255
-0.245
-0.23
-0.245
-0.26
-0.265
-0.245
-0.235
-0.23
-0.225
-0.22
-0.225
-0.215
-0.215
-0.23
-0.245
-0.26
-0.255
-0.195
-0.095
0.025
0.145
0.315
0.54
0.79
1.07
1.335
1.495
1.46
1.22
0.87
0.49
0.15
-0.11
-0.225
-0.255
-0.25
-0.235
-0.21
-0.195
-0.18
-0.2
-0.2
-0.205
-0.215
-0.22
-0.245
-0.265
-0.255
-0.235
-0.215
-0.215
-0.225
-0.23
-0.22
-0.19
-0.195
-0.19
-0.2
-0.2
-0.205
-0.19
-0.19
-0.205
-0.205
-0.205
-0.19
-0.17
-0.165
-0.17
-0.17
-0.17
-0.16
-0.14
-0.145
-0.145
-0.155
-0.155
-0.145
-0.125
-0.115
-0.125
-0.115
-0.105
-0.1
-0.075
-0.05
-0.04
-0.05
-0.05
-0.035
-0.015
-0.01
0.005
0.01
0.015
0.035
0.07
0.08
0.1
0.1
0.115
0.14
0.16
0.195
0.205
0.2
0.205
0.225
0.23
0.265
0.275
0.28
0.285
0.3
0.3
0.305
0.29
0.275
0.25
0.23
0.215
0.185
0.14
0.1
0.075
0.065
0.045
0.015
-0.01
-0.045
-0.075
-0.07
-0.07
-0.09
-0.11
-0.145
-0.155
-0.16
-0.16
-0.17
-0.175
-0.19
-0.195
-0.185
-0.18
-0.18
-0.18
-0.18
-0.195
-0.19
-0.185
-0.185
-0.19
-0.195
-0.205
-0.195
-0.18
-0.18
-0.195
-0.195
-0.2
-0.175
-0.165
-0.16
-0.17
-0.205
-0.205
-0.205
-0.18
-0.19
-0.19
-0.195
-0.205
-0.205
-0.175
-0.16
-0.155
-0.185
-0.195
-0.19
-0.18
-0.175
-0.195
-0.195
-0.195
-0.17
-0.16
-0.16
-0.16
-0.19
-0.19
-0.185
-0.18
-0.175
-0.18
-0.185
-0.18
-0.155
-0.13
-0.12
-0.125
-0.125
-0.11
-0.105
-0.07
-0.055
-0.055
-0.065
-0.075
-0.065
-0.07
-0.06
-0.085
-0.105
-0.135
-0.12
-0.11
-0.105
-0.125
-0.155
-0.165
-0.165
-0.165
-0.16
-0.195
-0.205
-0.215
-0.215
-0.195
-0.19
-0.185
-0.21
-0.21
-0.205
-0.185
-0.19
-0.19
-0.205
-0.215
-0.205
-0.195
-0.195
-0.185
-0.205
-0.195
-0.2
-0.175
-0.165
-0.17
-0.195
-0.21
-0.16
-0.035
0.105
0.33
0.56
0.82
1.105
1.38
1.565
1.51
1.19
0.76
0.385
0.105
-0.055
-0.135
-0.2
-0.235
-0.215
-0.175
-0.14
-0.145
-0.18
-0.195
-0.185
-0.175
-0.17
-0.18
-0.195
-0.21
-0.195
-0.2
-0.195
-0.19
-0.205
-0.195
-0.185
-0.175
-0.17
-0.155
-0.16
-0.165
-0.165
-0.16
-0.15
-0.15
-0.165
-0.165
-0.16
-0.135
-0.13
-0.13
-0.14
-0.135
-0.115
-0.085
-0.08
-0.085
-0.105
-0.11
-0.08
-0.065
-0.045
-0.05
-0.045
-0.04
-0.015
0.025
0.04
0.055
0.06
0.07
0.085
0.11
0.135
0.145
0.165
0.16
0.19
0.24
0.255
0.27
0.265
0.285
0.31
0.33
0.335
0.345
0.335
0.31
0.315
0.31
0.315
0.285
0.25
0.225
0.205
0.2
0.185
0.15
0.115
0.065
0.03
0.02
0.01
-0.025
-0.065
-0.1
-0.105
-0.105
-0.11
-0.125
-0.15
-0.15
-0.16
-0.15
-0.145
-0.15
-0.175
-0.19
-0.19
-0.17
-0.165
-0.175
-0.2
-0.195
-0.195
-0.165
-0.155
-0.16
-0.18
-0.18
-0.19
-0.175
-0.165
-0.16
-0.18
-0.185
-0.19
-0.17
-0.165
-0.165
-0.19
-0.19
-0.16
-0.15
-0.145
-0.14
-0.175
-0.18
-0.17
-0.155
-0.15
-0.15
-0.16
-0.185
-0.17
-0.16
-0.14
-0.13
-0.155
-0.165
-0.16
-0.145
-0.15
-0.145
-0.17
-0.17
-0.175
-0.135
-0.13
-0.13
-0.15
-0.13
-0.12
-0.105
-0.085
-0.085
-0.085
-0.085
-0.06
-0.045
-0.02
0.0
0.015
0.065
0.125
0.195
0.255
0.305
0.315
0.355
0.43
0.49
0.56
0.615
0.67
0.715
0.77
0.825
0.905
0.95
0.995
1.04
1.105
1.215
1.31
1.32
1.29
1.24
1.18
1.15
1.12
1.085
1.075
1.065
1.095
1.09
1.09
1.1
1.08
1.07
1.09
1.085
1.045
0.95
0.825
0.63
0.4
0.185
0.01
-0.115
-0.235
-0.325
-0.36
-0.385
-0.4
-0.425
-0.465
-0.485
-0.485
-0.49
-0.485
-0.51
-0.52
-0.54
-0.53
-0.52
-0.52
-0.525
-0.545
-0.58
-0.585
-0.57
-0.56
-0.575
-0.605
-0.62
-0.61
-0.595
-0.59
-0.595
-0.63
-0.63
-0.625
-0.625
-0.625
-0.64
-0.675
-0.67
-0.68
-0.65
-0.645
-0.645
-0.66
-0.67
-0.66
-0.64
-0.64
-0.64
-0.665
-0.665
-0.655
-0.635
-0.615
-0.62
-0.615
-0.605
-0.585
-0.55
-0.525
-0.51
-0.5
-0.475
-0.455
-0.41
-0.385
-0.37
-0.365
-0.335
-0.295
-0.255
-0.215
-0.21
-0.21
-0.2
-0.215
-0.18
-0.18
-0.185
-0.205
-0.205
-0.205
-0.19
-0.195
-0.195
-0.205
-0.22
-0.21
-0.21
-0.21
-0.22
-0.25
-0.265
-0.26
-0.245
-0.24
-0.24
-0.25
-0.255
-0.255
-0.245
-0.23
-0.235
-0.25
-0.265
-0.265
-0.255
-0.26
-0.26
-0.27
-0.28
-0.275
-0.255
-0.24
-0.24
-0.26
-0.265
