Lead II
-0.545
-0.52
-0.515
-0.5
-0.49
-0.5
-0.475
-0.45
-0.43
-0.415
-0.425
-0.405
-0.385
-0.355
-0.335
-0.345
-0.36
-0.345
-0.305
-0.29
-0.3
-0.315
-0.3
-0.29
-0.265
-0.24
-0.255
-0.265
-0.24
-0.235
-0.225
-0.22
-0.205
-0.195
-0.21
-0.195
-0.19
-0.18
-0.19
-0.185
-0.215
-0.215
-0.2
-0.195
-0.2
-0.23
-0.255
-0.265
-0.265
-0.26
-0.285
-0.315
-0.325
-0.315
-0.32
-0.32
-0.335
-0.34
-0.34
-0.345
-0.355
-0.335
-0.34
-0.355
-0.37
-0.375
-0.35
-0.315
-0.315
-0.345
-0.355
-0.32
-0.31
-0.305
-0.31
-0.32
-0.315
-0.3
-0.28
-0.25
-0.21
-0.14
-0.075
-0.005
0.045
0.07
0.015
-0.095
-0.255
-0.455
-0.595
-0.62
-0.51
-0.355
-0.255
-0.195
-0.085
0.09
0.22
0.28
0.29
0.295
0.265
0.225
0.16
0.05
-0.075
-0.2
-0.285
-0.33
-0.37
-0.405
-0.42
-0.415
-0.41
-0.39
-0.41
-0.42
-0.42
-0.42
-0.405
-0.4
-0.405
-0.425
-0.43
-0.445
-0.425
-0.405
-0.405
-0.425
-0.44
-0.435
-0.415
-0.4
-0.415
-0.42
-0.42
-0.41
-0.395
-0.365
-0.36
-0.34
-0.34
-0.355
-0.345
-0.31
-0.29
-0.305
-0.315
-0.275
-0.25
-0.225
-0.235
-0.225
-0.235
-0.23
-0.215
-0.185
-0.18
-0.19
-0.195
-0.165
-0.145
-0.11
-0.105
-0.1
-0.09
-0.075
-0.055
-0.02
-0.025
-0.02
-0.02
-0.025
-0.01
-0.005
-0.015
-0.065
-0.08
-0.095
-0.075
-0.105
-0.12
-0.125
-0.145
-0.15
-0.16
-0.14
-0.145
-0.17
-0.185
-0.185
-0.165
-0.15
-0.18
-0.19
-0.19
-0.185
-0.16
-0.165
-0.165
-0.17
-0.17
-0.195
-0.195
-0.16
-0.145
-0.17
-0.195
-0.235
-0.225
-0.205
-0.235
-0.235
-0.26
-0.235
-0.215
-0.205
-0.215
-0.25
-0.245
-0.22
-0.21
-0.2
-0.21
-0.215
-0.22
-0.2
-0.185
-0.185
-0.19
-0.185
-0.2
-0.195
-0.185
-0.185
-0.175
-0.18
-0.21
-0.215
-0.21
-0.185
-0.2
-0.225
-0.25
-0.235
-0.22
-0.2
-0.225
-0.23
-0.22
-0.195
-0.175
-0.175
-0.195
-0.205
-0.205
-0.215
-0.22
-0.185
-0.185
-0.21
-0.22
-0.23
-0.2
-0.175
-0.185
-0.195
-0.205
-0.205
-0.195
-0.175
-0.195
-0.22
-0.23
-0.215
-0.205
-0.205
-0.205
-0.2
-0.2
-0.195
-0.185
-0.165
-0.155
-0.17
-0.18
-0.175
-0.155
-0.125
-0.13
-0.15
-0.165
-0.15
-0.14
-0.13
-0.14
-0.15
-0.145
-0.155
-0.14
-0.135
-0.14
-0.155
-0.17
-0.165
-0.16
-0.145
-0.145
-0.145
-0.105
-0.025
0.045
0.09
0.155
0.25
0.335
0.385
0.41
0.44
0.435
0.435
0.475
0.56
0.645
0.69
0.74
0.785
0.85
0.865
0.845
0.815
0.73
0.62
0.52
0.405
0.275
0.12
-0.03
-0.15
-0.22
-0.24
-0.24
-0.23
-0.265
-0.285
-0.3
-0.335
-0.315
-0.335
-0.335
-0.36
-0.4
-0.41
-0.405
-0.395
-0.41
-0.425
-0.43
-0.425
-0.425
-0.425
-0.415
-0.42
-0.455
-0.455
-0.415
-0.405
-0.405
-0.41
-0.415
-0.39
-0.385
-0.375
-0.385
-0.385
-0.38
-0.365
-0.34
-0.315
-0.29
-0.295
-0.29
-0.275
-0.245
-0.225
-0.215
-0.225
-0.205
-0.175
-0.15
-0.13
-0.12
-0.105
-0.1
-0.09
-0.07
-0.03
-0.025
-0.025
-0.02
-0.01
0.025
0.045
0.045
0.02
0.02
0.055
0.07
0.075
0.045
0.05
0.03
0.035
0.045
0.05
0.03
0.025
-0.01
-0.015
-0.01
-0.02
-0.05
-0.04
-0.07
-0.07
-0.075
-0.08
-0.08
-0.09
-0.1
-0.12
-0.115
-0.1
-0.09
-0.13
-0.17
-0.17
-0.135
-0.135
-0.15
-0.165
-0.15
-0.15
-0.12
-0.105
-0.125
-0.13
-0.13
-0.13
-0.11
-0.09
-0.075
-0.105
-0.115
-0.12
-0.105
-0.08
-0.1
-0.11
-0.1
-0.08
-0.07
-0.085
-0.095
-0.11
-0.1
-0.115
-0.095
-0.08
-0.08
-0.09
-0.105
-0.1
-0.07
-0.055
-0.08
-0.09
-0.085
-0.095
-0.09
-0.095
-0.1
-0.115
-0.125
-0.135
-0.13
-0.13
-0.155
-0.17
-0.18
-0.18
-0.16
-0.16
-0.185
-0.2
-0.215
-0.21
-0.2
-0.19
-0.185
-0.22
-0.215
-0.2
-0.19
-0.165
-0.2
-0.195
-0.18
-0.18
-0.175
-0.17
-0.17
-0.19
-0.2
-0.185
-0.17
-0.17
-0.18
-0.195
-0.21
-0.195
-0.19
-0.18
-0.175
-0.175
-0.2
-0.195
-0.18
-0.17
-0.17
-0.185
-0.22
-0.195
-0.205
-0.19
-0.21
-0.2
-0.205
-0.2
-0.18
-0.17
-0.185
-0.205
-0.2
-0.195
-0.19
-0.185
-0.2
-0.195
-0.19
-0.19
-0.175
-0.165
-0.16
-0.18
-0.21
-0.2
-0.165
-0.155
-0.17
-0.175
-0.195
-0.2
-0.18
-0.18
-0.165
-0.18
-0.2
-0.195
-0.185
-0.16
-0.165
-0.175
-0.18
-0.155
-0.155
-0.155
-0.155
-0.155
-0.165
-0.16
-0.14
-0.145
-0.14
-0.17
-0.17
-0.165
-0.155
-0.145
-0.16
-0.175
-0.175
-0.145
-0.095
-0.01
0.075
0.11
0.135
0.2
0.32
0.44
0.515
0.54
0.56
0.61
0.64
0.685
0.735
0.81
0.9
0.96
0.96
0.965
1.015
1.07
1.045
0.97
0.94
0.85
0.745
0.62
0.5
0.37
0.215
0.065
-0.1
-0.23
-0.325
-0.375
-0.395
-0.395
-0.41
-0.435
-0.45
-0.465
-0.465
-0.47
-0.48
-0.505
-0.53
-0.54
-0.535
-0.52
-0.49
-0.515
-0.535
-0.54
-0.51
-0.5
-0.54
-0.535
-0.55
-0.54
-0.54
-0.53
-0.51
-0.51
-0.525
-0.525
-0.515
-0.465
-0.47
-0.49
-0.495
-0.47
-0.425
-0.41
-0.415
-0.42
-0.41
-0.39
-0.36
-0.355
-0.345
-0.33
-0.34
-0.345
-0.315
-0.28
-0.28
-0.285
-0.265
-0.245
-0.215
-0.2
-0.18
-0.16
-0.165
-0.165
-0.155
-0.11
-0.1
-0.115
-0.115
-0.09
-0.065
-0.05
-0.04
-0.04
-0.05
-0.06
-0.045
-0.035
-0.045
-0.065
-0.095
-0.105
-0.095
-0.115
-0.145
-0.165
-0.17
-0.175
-0.17
-0.175
-0.18
-0.195
-0.23
-0.22
-0.21
-0.2
-0.23
-0.255
-0.27
-0.235
-0.235
-0.245
-0.255
-0.27
-0.285
-0.3
-0.275
-0.265
-0.285
-0.295
-0.32
-0.315
-0.31
-0.315
-0.355
-0.37
-0.375
-0.37
-0.365
-0.35
-0.345
-0.365
-0.375
-0.35
-0.33
-0.3
-0.31
-0.305
-0.305
-0.305
-0.29
-0.27
-0.27
-0.285
-0.295
-0.285
-0.265
-0.27
-0.265
-0.28
-0.285
-0.28
-0.27
-0.265
-0.27
-0.285
-0.295
-0.295
-0.28
-0.27
-0.29
-0.31
-0.315
-0.315
-0.29
-0.285
-0.3
-0.3
-0.305
-0.31
-0.31
-0.32
-0.32
-0.335
-0.38
-0.41
-0.385
-0.375
-0.385
-0.42
-0.435
-0.42
-0.39
-0.385
-0.41
-0.415
-0.425
-0.405
-0.375
-0.36
-0.375
-0.39
-0.385
-0.39
-0.39
-0.385
-0.38
-0.37
-0.385
-0.405
-0.37
-0.36
-0.375
-0.395
-0.405
-0.385
-0.38
-0.375
-0.395
-0.395
-0.375
-0.39
-0.385
-0.355
-0.355
-0.36
-0.39
-0.4
-0.375
-0.37
-0.38
-0.395
-0.405
-0.41
-0.395
-0.41
-0.425
-0.44
-0.46
-0.48
-0.475
-0.475
-0.49
-0.515
-0.52
-0.515
-0.495
-0.49
-0.505
-0.515
-0.515
-0.52
-0.505
-0.49
-0.495
-0.515
-0.535
-0.535
-0.52
-0.5
-0.515
-0.525
-0.535
-0.535
-0.54
-0.53
-0.53
-0.55
-0.565
-0.56
-0.54
-0.525
-0.545
-0.56
-0.56
-0.555
-0.555
-0.545
-0.545
-0.55
-0.56
-0.545
-0.545
-0.55
-0.575
-0.585
-0.605
-0.605
-0.605
-0.605
-0.62
-0.65
-0.665
-0.635
-0.62
-0.615
-0.605
-0.59
-0.55
-0.49
-0.42
-0.35
-0.315
-0.275
-0.25
-0.245
-0.305
-0.37
-0.39
-0.375
-0.31
-0.235
-0.185
-0.095
-0.01
0.045
0.06
0.025
-0.055
-0.13
-0.21
-0.33
-0.49
-0.64
-0.745
-0.805
-0.87
-0.895
-0.895
-0.9
-0.905
-0.93
-0.95
-0.995
-1.03
-1.035
-1.03
-1.045
-1.075
-1.09
-1.09
-1.105
-1.095
-1.085
-1.08
-1.105
-1.115
-1.08
-1.075
-1.07
-1.065
-1.065
-1.065
-1.07
-1.055
-1.04
-1.04
-1.035
-1.045
-1.03
-1.01
-1.015
-1.0
-1.01
-0.995
-0.98
-0.975
-0.97
-0.965
-0.965
-0.975
-0.975
-0.95
-0.92
-0.93
-0.94
-0.94
-0.915
-0.885
-0.89
-0.895
-0.89
-0.88
-0.86
-0.85
-0.835
-0.835
-0.865
-0.89
-0.91
-0.885
-0.875
-0.885
-0.9
-0.91
-0.905
-0.905
-0.9
-0.91
-0.94
-0.945
-0.96
-0.96
-0.97
-0.97
-0.99
-1.0
-1.01
-0.995
-0.995
-1.005
-1.02
-1.03
-1.015
-1.01
-1.005
-1.01
-1.04
-1.075
-1.05
-1.05
-1.06
-1.06
-1.075
-1.075
-1.07
-1.08
-1.065
-1.06
-1.09
-1.095
-1.085
-1.07
-1.07
-1.085
-1.095
-1.105
-1.11
-1.125
-1.125
-1.145
-1.145
-1.15
-1.15
-1.11
-1.1
-1.11
-1.095
-1.115
-1.11
-1.095
-1.08
-1.085
-1.095
-1.095
-1.075
-1.075
-1.055
-1.06
-1.065
-1.06
-1.06
-1.045
-1.04
-1.025
-1.035
-1.05
-1.04
-1.035
-1.02
-1.04
-1.035
-1.05
-1.045
-1.025
-1.01
-1.02
-1.035
-1.055
-1.06
-1.035
-1.03
-1.05
-1.065
-1.08
-1.085
-1.085
-1.09
-1.1
-1.14
-1.14
-1.145
-1.115
-1.1
-1.11
-1.11
-1.105
-1.11
-1.085
-1.075
-1.07
-1.09
-1.09
-1.085
-1.055
-1.05
-1.065
-1.075
-1.065
-1.065
-1.065
-1.05
-1.055
-1.05
-1.065
-1.05
-1.01
-1.005
-1.01
-1.035
-1.03
-1.03
-1.01
-0.985
-0.98
-1.0
-1.015
-1.005
-0.98
-0.96
-0.985
-0.995
-0.985
-0.975
-0.96
-0.945
-0.96
-0.96
-0.975
-0.985
-0.97
-0.985
-0.995
-1.015
-1.02
-1.015
-0.995
-0.985
-1.0
-1.01
-1.01
-1.0
-0.98
-0.975
-0.98
-0.975
-0.985
-0.955
-0.955
-0.935
-0.93
-0.93
-0.945
-0.935
-0.91
-0.91
-0.905
-0.895
-0.89
-0.895
-0.87
-0.875
-0.87
-0.87
-0.88
-0.895
-0.88
-0.845
-0.85
-0.87
-0.88
-0.86
-0.84
-0.845
-0.835
-0.835
-0.82
-0.815
-0.81
-0.805
-0.805
-0.8
-0.805
-0.805
-0.775
-0.755
-0.78
-0.815
-0.8
-0.78
-0.725
-0.655
-0.605
-0.55
-0.505
-0.425
-0.27
-0.135
-0.03
0.025
0.085
0.155
0.265
0.4
0.525
0.6
0.635
0.66
0.725
0.75
0.71
0.615
0.48
0.335
0.22
0.05
-0.155
-0.355
-0.54
-0.665
-0.74
-0.8
-0.8
-0.81
-0.84
-0.86
-0.865
-0.855
-0.865
-0.885
-0.885
-0.885
-0.88
-0.865
-0.88
-0.885
-0.905
-0.9
-0.885
-0.87
-0.895
-0.915
-0.95
-0.945
-0.92
-0.885
-0.885
-0.875
-0.87
-0.845
-0.825
-0.795
-0.79
-0.795
-0.795
-0.77
-0.725
-0.7
-0.685
-0.67
-0.675
-0.65
-0.615
-0.59
-0.59
-0.57
-0.555
-0.525
-0.485
-0.47
-0.46
-0.465
-0.44
-0.43
-0.405
-0.385
-0.375
-0.375
-0.4
-0.39
-0.35
-0.34
-0.35
-0.34
-0.355
-0.315
-0.305
-0.295
-0.295
-0.29
-0.315
-0.33
-0.31
-0.305
-0.325
-0.375
-0.405
-0.405
-0.39
-0.395
-0.39
-0.39
-0.41
-0.395
-0.39
-0.375
-0.375
-0.395
-0.415
-0.4
-0.36
-0.355
-0.375
-0.385
-0.39
-0.37
-0.36
-0.375
-0.375
-0.385
-0.39
-0.38
-0.375
-0.36
-0.345
-0.385
-0.39
-0.4
-0.385
-0.36
-0.37
-0.375
-0.38
-0.365
-0.345
-0.34
-0.355
-0.36
-0.365
-0.375
-0.355
-0.36
-0.355
-0.375
-0.4
-0.39
-0.35
-0.34
-0.355
-0.375
-0.37
-0.36
-0.325
-0.32
-0.32
-0.33
-0.315
-0.3
-0.295
-0.27
-0.27
-0.265
-0.27
-0.255
-0.235
-0.23
-0.245
-0.235
-0.24
-0.225
-0.23
-0.23
-0.23
-0.23
-0.235
-0.225
-0.2
-0.18
-0.195
-0.22
-0.225
-0.195
-0.2
-0.19
-0.19
-0.19
-0.2
-0.2
-0.18
-0.17
-0.18
-0.2
-0.22
-0.215
-0.215
-0.21
-0.23
-0.21
-0.215
-0.22
-0.225
-0.215
-0.22
-0.215
-0.145
-0.06
0.02
0.095
0.22
0.355
0.525
0.67
0.82
0.955
1.05
1.16
1.26
1.365
1.425
1.425
1.43
1.425
1.37
1.265
1.14
0.98
0.83
0.665
0.45
0.235
0.055
-0.08
-0.205
-0.295
-0.32
-0.32
-0.325
-0.315
-0.355
-0.38
-0.4
-0.39
-0.38
-0.385
-0.41
-0.41
-0.44
-0.44
-0.44
-0.45
-0.445
-0.46
-0.49
-0.485
-0.465
-0.46
-0.465
-0.47
-0.46
-0.43
-0.41
-0.38
-0.365
-0.355
-0.335
-0.33
-0.3
-0.26
-0.255
-0.26
-0.25
-0.23
-0.2
-0.175
-0.19
-0.18
-0.18
-0.15
-0.125
-0.11
-0.105
-0.105
-0.1
-0.085
-0.055
-0.025
-0.035
-0.045
-0.05
-0.005
0.0
0.025
0.03
0.03
0.045
0.055
0.06
0.085
0.085
0.05
0.03
0.01
0.01
-0.005
-0.04
-0.08
-0.105
-0.105
-0.1
-0.115
-0.13
-0.145
-0.145
-0.165
-0.16
-0.17
-0.17
-0.17
-0.195
-0.205
-0.205
-0.195
-0.21
-0.235
-0.245
-0.245
-0.225
-0.195
-0.23
-0.255
-0.25
-0.235
-0.225
-0.245
-0.255
-0.27
-0.285
-0.28
-0.27
-0.27
-0.275
-0.305
-0.325
-0.33
-0.3
-0.3
-0.315
-0.335
-0.335
-0.31
-0.31
-0.31
-0.33
-0.35
-0.35
-0.355
-0.36
-0.345
-0.35
-0.395
-0.405
-0.38
-0.365
-0.355
-0.375
-0.395
-0.39
-0.38
-0.365
-0.36
-0.36
-0.365
-0.37
-0.36
-0.35
-0.325
-0.325
-0.35
-0.35
-0.33
-0.35
-0.345
-0.36
-0.37
-0.375
-0.38
-0.36
-0.35
-0.355
-0.355
-0.35
-0.35
-0.345
-0.34
-0.345
-0.36
-0.37
-0.37
-0.35
-0.35
-0.37
-0.385
-0.4
-0.395
-0.39
-0.4
-0.42
-0.44
-0.455
-0.44
-0.42
-0.4
-0.41
-0.425
-0.42
-0.415
-0.385
-0.38
-0.385
-0.38
-0.375
-0.37
-0.355
-0.35
-0.33
-0.365
-0.385
-0.37
-0.36
-0.36
-0.375
-0.395
-0.38
-0.38
-0.375
-0.335
-0.305
-0.235
-0.155
-0.05
0.06
0.175
0.255
0.315
0.34
0.345
0.35
0.37
0.41
0.47
0.515
0.555
0.63
0.695
0.71
0.675
0.585
0.465
0.35
0.24
0.12
-0.065
-0.235
-0.355
-0.41
-0.47
-0.515
-0.54
-0.525
-0.52
-0.52
-0.535
-0.565
-0.57
-0.58
-0.59
-0.58
-0.56
-0.58
-0.595
-0.63
-0.605
-0.59
-0.58
-0.59
-0.625
-0.625
-0.595
-0.59
-0.585
-0.58
-0.595
-0.6
-0.59
-0.58
-0.56
-0.56
-0.57
-0.565
-0.57
-0.55
-0.53
-0.535
-0.545
-0.55
-0.535
-0.505
-0.475
-0.46
-0.465
-0.445
-0.42
-0.39
-0.365
-0.355
-0.335
-0.335
-0.315
-0.29
-0.26
-0.24
-0.245
-0.24
-0.205
-0.17
-0.175
-0.185
-0.18
-0.16
-0.135
-0.125
-0.1
-0.085
-0.09
-0.095
-0.1
-0.08
-0.07
-0.105
-0.135
-0.14
-0.14
-0.135
-0.145
-0.16
-0.19
-0.23
-0.24
-0.255
-0.255
-0.255
-0.29
-0.325
-0.32
-0.31
-0.33
-0.35
-0.38
-0.38
-0.365
-0.355
-0.36
-0.36
-0.36
-0.355
-0.34
-0.33
-0.295
-0.3
-0.31
-0.3
-0.275
-0.275
-0.28
-0.27
-0.28
-0.28
-0.28
-0.245
-0.22
-0.215
-0.195
-0.13
-0.01
0.085
0.135
0.11
0.1
0.08
0.04
-0.03
-0.14
-0.275
-0.36
-0.365
-0.225
-0.055
0.055
0.17
0.36
0.495
0.555
0.59
0.59
0.52
0.39
0.25
0.165
0.065
-0.05
-0.2
-0.28
-0.345
-0.37
-0.38
-0.375
-0.385
-0.41
-0.415
-0.415
-0.4
-0.415
-0.435
-0.43
-0.435
-0.43
-0.415
-0.4
-0.4
-0.42
-0.425
-0.42
-0.405
-0.385
-0.39
-0.415
-0.41
-0.365
-0.34
-0.33
-0.335
-0.34
-0.345
-0.34
-0.315
-0.28
-0.27
-0.26
-0.27
-0.24
-0.2
-0.185
-0.185
-0.175
-0.165
-0.13
-0.1
-0.1
-0.095
-0.095
-0.085
-0.065
-0.04
-0.025
-0.02
-0.045
-0.05
-0.025
0.015
0.03
0.035
0.02
0.02
0.03
0.06
0.045
0.035
0.03
0.03
0.04
0.03
0.025
0.015
0.005
-0.01
-0.03
-0.015
-0.005
-0.02
-0.045
-0.08
-0.07
-0.055
-0.04
-0.065
-0.09
-0.11
-0.1
-0.1
-0.12
-0.13
-0.135
-0.14
-0.125
-0.12
-0.125
-0.125
-0.13
-0.13
-0.11
-0.105
-0.095
-0.095
-0.105
-0.115
-0.105
-0.075
-0.075
-0.08
-0.125
-0.125
-0.09
-0.065
-0.055
-0.075
-0.075
-0.065
-0.06
-0.055
-0.05
-0.05
-0.065
-0.075
-0.055
-0.04
-0.02
-0.04
-0.07
-0.055
-0.04
-0.015
-0.03
-0.03
-0.045
-0.04
-0.04
-0.035
-0.035
-0.055
-0.05
-0.065
-0.075
-0.075
-0.045
-0.07
-0.095
-0.09
-0.075
-0.06
-0.055
-0.07
-0.06
-0.06
-0.065
-0.045
-0.035
-0.035
-0.055
-0.065
-0.055
-0.03
-0.025
-0.045
-0.04
-0.03
-0.03
-0.015
-0.03
-0.03
-0.05
-0.065
-0.055
-0.045
-0.03
-0.04
-0.06
-0.08
-0.075
-0.04
-0.045
-0.05
-0.06
-0.065
-0.055
-0.05
-0.04
-0.05
-0.07
-0.075
-0.065
-0.055
-0.06
-0.05
-0.065
-0.07
-0.05
-0.03
-0.02
-0.03
-0.025
-0.03
-0.025
0.005
0.005
0.015
0.0
0.005
0.03
0.04
0.045
0.045
0.035
0.04
0.045
0.05
0.065
0.07
0.035
0.03
0.045
0.06
0.065
0.055
0.05
0.05
0.055
0.065
0.06
0.06
0.055
0.035
0.04
0.045
0.055
0.04
0.015
0.015
0.025
0.05
0.045
0.035
0.015
0.015
0.03
0.02
0.04
0.025
0.03
0.04
0.035
0.045
0.05
0.065
0.035
0.06
0.075
0.07
0.1
0.085
0.09
0.08
0.085
0.1
0.115
0.115
0.09
0.09
0.125
0.135
0.14
0.125
0.11
0.1
0.125
0.125
0.115
0.115
0.105
0.1
0.095
0.11
0.125
0.12
0.105
0.09
0.105
0.105
0.11
0.11
0.07
0.08
0.095
0.115
0.1
0.115
0.1
0.105
0.095
0.105
0.115
0.1
0.075
0.06
0.075
0.11
0.115
0.115
0.105
0.125
0.14
0.145
0.16
0.175
0.175
0.17
0.17
0.25
0.33
0.395
0.415
0.46
0.555
0.66
0.755
0.795
0.795
0.815
0.825
0.86
0.925
0.995
1.065
1.1
1.135
1.21
1.29
1.3
1.265
1.2
1.09
0.99
0.88
0.745
0.59
0.41
0.245
0.145
0.075
0.005
-0.045
-0.065
-0.06
-0.035
-0.07
-0.09
-0.125
-0.135
-0.135
-0.125
-0.14
-0.145
-0.165
-0.185
-0.175
-0.155
-0.165
-0.18
-0.19
-0.185
-0.175
-0.16
-0.155
-0.155
-0.17
-0.16
-0.15
-0.13
-0.13
-0.125
-0.135
-0.14
-0.105
-0.1
-0.105
-0.095
-0.095
-0.075
-0.07
-0.045
-0.02
-0.015
-0.04
-0.03
-0.005
0.02
0.03
0.035
0.045
0.06
0.085
0.11
0.135
0.14
0.14
0.13
0.19
0.225
0.25
0.25
0.235
0.26
0.29
0.31
0.32
0.32
0.315
0.32
0.34
0.365
0.37
0.365
0.345
0.33
0.345
0.345
0.335
0.325
0.28
0.285
0.28
0.285
0.28
0.275
0.245
0.215
0.235
0.24
0.265
0.25
0.225
0.21
0.23
0.245
0.24
0.22
0.21
0.215
0.235
0.235
0.24
0.235
0.23
0.23
0.225
0.245
0.265
0.28
0.265
0.27
0.29
0.305
0.325
0.34
0.32
0.32
0.32
0.345
0.35
0.33
0.32
0.31
0.335
0.355
0.345
0.345
0.34
0.355
0.365
0.355
0.36
0.345
0.34
0.33
0.325
0.35
0.355
0.355
0.33
0.335
0.375
0.455
0.525
0.565
0.565
0.575
0.655
0.73
0.71
0.67
0.635
0.65
0.715
0.84
1.02
1.16
1.205
1.235
1.34
1.415
1.41
1.35
1.295
1.23
1.18
1.1
0.99
0.86
0.73
0.565
0.42
0.325
0.225
0.13
0.08
0.05
0.065
0.085
0.06
0.025
0.0
-0.025
-0.025
-0.015
-0.035
-0.04
-0.075
-0.075
-0.08
-0.06
-0.055
-0.08
-0.11
-0.125
-0.12
-0.105
-0.1
-0.125
-0.11
-0.11
-0.095
-0.095
-0.085
-0.085
-0.09
-0.095
-0.075
-0.07
-0.035
-0.035
-0.06
-0.05
-0.01
0.015
0.025
0.025
0.015
0.045
0.08
0.105
0.155
0.165
0.165
0.175
0.205
0.25
0.255
0.275
0.27
0.27
0.295
0.31
0.335
0.36
0.35
0.345
0.345
0.37
0.37
0.345
0.325
0.32
0.325
0.305
0.32
0.295
0.275
0.25
0.245
0.245
0.24
0.225
0.2
0.175
0.21
0.21
0.215
0.185
0.18
0.185
0.195
0.19
0.2
0.195
0.175
0.155
0.16
0.2
0.2
0.18
0.16
0.165
0.175
0.19
0.19
0.18
0.18
0.17
0.17
0.185
0.195
0.2
0.17
0.16
0.185
0.2
0.195
0.17
0.13
0.14
0.165
0.175
0.15
0.14
0.12
0.13
0.14
0.135
0.135
0.125
0.135
0.12
0.105
0.135
0.16
0.125
0.115
0.105
0.13
0.145
0.155
0.135
0.115
0.115
0.135
0.145
0.135
0.115
0.11
0.125
0.125
0.125
0.115
0.1
0.09
0.075
0.075
0.085
0.105
0.105
0.095
0.085
0.1
0.12
0.115
0.095
0.085
0.075
0.08
0.1
0.085
0.065
0.06
0.06
0.06
0.065
0.07
0.07
0.045
0.04
0.04
0.06
0.06
0.05
0.02
0.035
0.04
0.045
0.025
0.03
0.025
0.025
0.01
0.015
0.025
0.015
0.03
0.025
0.01
0.03
0.02
0.01
-0.015
-0.005
0.005
0.01
0.0
-0.03
-0.035
-0.045
-0.05
-0.035
-0.02
-0.045
-0.075
-0.075
-0.075
-0.045
-0.055
-0.075
-0.09
-0.1
-0.085
-0.075
-0.08
-0.09
-0.125
-0.145
-0.125
-0.105
-0.11
-0.13
-0.14
-0.135
-0.135
-0.115
-0.12
-0.13
-0.13
-0.13
-0.125
-0.11
-0.095
-0.135
-0.15
-0.15
-0.135
-0.115
-0.135
-0.145
-0.155
-0.16
-0.165
-0.145
-0.145
-0.145
-0.175
-0.195
-0.165
-0.16
-0.155
-0.18
-0.2
-0.2
-0.205
-0.185
-0.185
-0.185
-0.195
-0.195
-0.185
-0.185
-0.17
-0.165
-0.175
-0.18
-0.15
-0.125
-0.12
-0.11
-0.075
-0.015
0.065
0.11
0.18
0.27
0.375
0.485
0.6
0.67
0.725
0.755
0.78
0.885
0.995
1.065
1.1
1.08
1.065
1.11
1.16
1.17
1.115
1.04
0.93
0.78
0.65
0.56
0.435
0.27
0.08
-0.08
-0.21
-0.285
-0.37
-0.455
-0.53
-0.54
-0.52
-0.52
-0.525
-0.565
-0.6
-0.605
-0.61
-0.6
-0.62
-0.665
-0.715
-0.715
-0.7
-0.695
-0.695
-0.71
-0.745
-0.745
-0.745
-0.735
-0.74
-0.74
-0.75
-0.775
-0.77
-0.725
-0.71
-0.71
-0.725
-0.73
-0.72
-0.68
-0.705
-0.73
-0.71
-0.715
-0.695
-0.695
-0.695
-0.7
-0.695
-0.695
-0.68
-0.66
-0.655
-0.65
-0.655
-0.66
-0.645
-0.615
-0.605
-0.62
-0.62
-0.615
-0.585
-0.565
-0.565
-0.55
-0.555
-0.545
-0.505
-0.49
-0.485
-0.47
-0.47
-0.48
-0.47
-0.425
-0.41
-0.405
-0.4
-0.385
-0.36
-0.32
-0.32
-0.315
-0.325
-0.31
-0.315
-0.315
-0.315
-0.32
-0.34
-0.36
-0.37
-0.35
-0.355
-0.38
-0.395
-0.4
-0.38
-0.375
-0.375
-0.41
-0.4
-0.39
-0.395
-0.385
-0.385
-0.385
-0.405
-0.42
-0.415
-0.385
-0.395
-0.41
-0.42
-0.415
-0.4
-0.395
-0.4
-0.405
-0.395
-0.41
-0.4
-0.39
-0.38
-0.4
-0.435
-0.43
-0.4
-0.37
-0.37
-0.375
-0.35
-0.295
-0.2
-0.1
-0.055
-0.075
-0.165
-0.275
-0.385
-0.47
-0.525
-0.595
-0.73
-0.97
-1.215
-1.36
-1.42
-1.385
-1.315
-1.275
-1.175
-1.05
-0.9
-0.73
-0.545
-0.37
-0.29
-0.28
-0.29
-0.275
-0.28
-0.35
-0.43
-0.475
-0.505
-0.58
-0.645
-0.635
-0.56
-0.505
-0.49
-0.5
-0.51
-0.505
-0.515
-0.505
-0.49
-0.495
-0.525
-0.52
-0.505
-0.485
-0.485
-0.48
-0.475
-0.47
-0.455
-0.425
-0.405
-0.405
-0.39
-0.36
-0.325
-0.29
-0.27
-0.25
-0.235
-0.21
-0.19
-0.155
-0.105
-0.085
-0.085
-0.055
-0.005
0.055
0.105
0.11
0.13
0.15
0.185
0.235
0.26
0.27
0.29
0.305
0.335
0.37
0.4
0.42
0.4
0.41
0.43
0.45
0.45
0.43
0.405
0.395
0.37
0.36
0.315
0.28
0.25
0.21
0.18
0.165
0.135
0.1
0.045
0.0
-0.015
-0.02
-0.055
-0.09
-0.11
-0.14
-0.15
-0.15
-0.16
-0.18
-0.205
-0.24
-0.24
-0.245
-0.245
-0.27
-0.295
-0.295
-0.3
-0.295
-0.295
-0.295
-0.325
-0.34
-0.34
-0.32
-0.325
-0.34
-0.36
-0.35
-0.35
-0.345
-0.335
-0.35
-0.365
-0.385
-0.375
-0.355
-0.34
-0.35
-0.36
-0.375
-0.36
-0.365
-0.355
-0.365
-0.355
-0.39
-0.385
-0.36
-0.335
-0.345
-0.365
-0.355
-0.34
-0.34
-0.34
-0.325
-0.34
-0.34
-0.325
-0.31
-0.29
-0.295
-0.315
-0.32
-0.31
-0.3
-0.3
-0.325
-0.33
-0.325
-0.32
-0.31
-0.3
-0.32
-0.35
-0.34
-0.335
-0.31
-0.32
-0.325
-0.345
-0.35
-0.335
-0.32
-0.315
-0.325
-0.345
-0.35
-0.33
-0.31
-0.32
-0.33
-0.34
-0.355
-0.355
-0.335
-0.315
-0.315
-0.335
-0.35
-0.345
-0.325
-0.33
-0.35
-0.355
-0.35
-0.345
-0.335
-0.335
-0.35
-0.37
-0.36
-0.35
-0.34
-0.335
-0.365
-0.365
-0.37
-0.36
-0.36
-0.37
-0.38
-0.375
-0.395
-0.395
-0.385
-0.37
-0.385
-0.405
-0.42
-0.4
-0.385
-0.39
-0.39
-0.405
-0.41
-0.4
-0.4
-0.415
-0.435
-0.43
-0.425
-0.425
-0.415
-0.425
-0.42
-0.425
-0.435
-0.43
-0.425
-0.425
-0.42
-0.445
-0.44
-0.435
-0.425
-0.43
-0.44
-0.455
-0.46
-0.465
-0.47
-0.455
-0.46
-0.465
-0.47
-0.46
-0.45
-0.43
-0.45
-0.445
-0.43
-0.365
-0.275
-0.2
-0.14
-0.07
0.015
0.08
0.125
0.12
0.035
-0.075
-0.175
-0.2
-0.15
-0.08
-0.02
0.005
0.03
0.115
0.225
0.285
0.28
0.225
0.115
0.05
-0.005
-0.09
-0.245
-0.42
-0.51
-0.56
-0.59
-0.63
-0.65
-0.665
-0.66
-0.675
-0.695
-0.705
-0.72
-0.75
-0.765
-0.77
-0.76
-0.765
-0.79
-0.795
-0.8
-0.815
-0.785
-0.82
-0.805
-0.82
-0.825
-0.83
-0.82
-0.82
-0.835
-0.85
-0.84
-0.835
-0.825
-0.805
-0.805
-0.805
-0.8
-0.785
-0.75
-0.755
-0.765
-0.77
-0.775
-0.76
-0.735
-0.73
-0.74
-0.75
-0.745
-0.745
-0.72
-0.7
-0.695
-0.69
-0.7
-0.685
-0.66
-0.645
-0.655
-0.64
-0.635
-0.63
-0.62
-0.605
-0.585
-0.595
-0.585
-0.565
-0.525
-0.505
-0.535
-0.55
-0.55
-0.52
-0.53
-0.525
-0.53
-0.56
-0.585
-0.58
-0.58
-0.585
-0.61
-0.62
-0.65
-0.63
-0.615
-0.62
-0.625
-0.645
-0.65
-0.64
-0.645
-0.64
-0.645
-0.67
-0.665
-0.65
-0.61
-0.62
-0.625
-0.615
-0.61
-0.615
-0.58
-0.58
-0.59
-0.59
-0.585
-0.565
-0.54
-0.54
-0.555
-0.54
-0.53
-0.53
-0.53
-0.515
-0.52
-0.55
-0.55
-0.54
-0.525
-0.525
-0.56
-0.59
-0.575
-0.575
-0.57
-0.565
-0.565
-0.565
-0.57
-0.575
-0.56
-0.56
-0.57
-0.585
-0.595
-0.585
-0.56
-0.565
-0.595
-0.605
-0.595
-0.595
-0.585
-0.585
-0.585
-0.595
-0.63
-0.615
-0.605
-0.6
-0.62
-0.625
-0.63
-0.615
-0.615
-0.63
-0.635
-0.625
-0.63
-0.62
-0.6
-0.59
-0.595
-0.62
-0.63
-0.625
-0.6
-0.6
-0.615
-0.62
-0.62
-0.635
-0.615
-0.585
-0.6
-0.635
-0.625
-0.58
-0.56
-0.56
-0.585
-0.575
-0.565
-0.575
-0.55
-0.545
-0.555
-0.565
-0.565
-0.54
-0.515
-0.52
-0.53
-0.52
-0.47
-0.395
-0.315
-0.24
-0.175
-0.115
-0.04
0.055
0.14
0.19
0.275
0.34
0.44
0.58
0.665
0.715
0.73
0.76
0.78
0.77
0.725
0.62
0.46
0.35
0.245
0.105
-0.04
-0.245
-0.42
-0.52
-0.595
-0.625
-0.605
-0.605
-0.635
-0.675
-0.695
-0.675
-0.66
-0.655
-0.665
-0.68
-0.69
-0.69
-0.675
-0.685
-0.695
-0.705
-0.695
-0.7
-0.68
-0.68
-0.675
-0.685
-0.695
-0.68
-0.645
-0.625
-0.635
-0.635
-0.63
-0.61
-0.585
-0.575
-0.585
-0.585
-0.575
-0.545
-0.5
-0.47
-0.47
-0.48
-0.46
-0.42
-0.385
-0.375
-0.375
-0.365
-0.355
-0.325
-0.295
-0.265
-0.235
-0.245
-0.24
-0.22
-0.18
-0.16
-0.155
-0.17
-0.15
-0.125
-0.11
-0.1
-0.15
-0.135
-0.135
-0.13
-0.14
-0.15
-0.165
-0.18
-0.195
-0.21
-0.23
-0.225
-0.25
-0.27
-0.27
-0.265
-0.25
-0.255
-0.285
-0.3
-0.31
-0.285
-0.285
-0.29
-0.325
-0.325
-0.34
-0.35
-0.33
-0.33
-0.335
-0.365
-0.36
-0.35
-0.32
-0.335
-0.365
-0.375
-0.36
-0.325
-0.32
-0.32
-0.34
-0.335
-0.35
-0.345
-0.33
-0.31
-0.325
-0.335
-0.345
-0.315
-0.305
-0.305
-0.315
-0.32
-0.32
-0.31
-0.29
-0.28
-0.28
-0.275
-0.27
-0.245
-0.23
-0.215
-0.215
-0.24
-0.235
-0.205
-0.175
-0.19
-0.215
-0.22
-0.21
-0.21
-0.2
-0.19
-0.195
-0.2
-0.215
-0.205
-0.195
-0.18
-0.215
-0.2
-0.185
-0.17
-0.17
-0.17
-0.175
-0.185
-0.2
-0.19
-0.18
-0.165
-0.195
-0.2
-0.2
-0.185
-0.19
-0.19
-0.205
-0.21
-0.2
-0.19
-0.18
-0.16
-0.18
-0.18
-0.185
-0.165
-0.155
-0.16
-0.16
-0.19
-0.18
-0.17
-0.15
-0.145
-0.15
-0.175
-0.18
-0.14
-0.125
-0.145
-0.165
-0.16
-0.145
-0.125
-0.115
-0.095
-0.09
-0.105
-0.095
-0.08
-0.035
-0.03
-0.055
-0.06
-0.06
-0.03
-0.025
-0.02
-0.02
-0.04
-0.05
-0.04
-0.025
-0.03
-0.065
-0.08
-0.075
-0.055
-0.065
-0.07
-0.065
-0.08
-0.07
-0.065
-0.045
-0.035
-0.045
-0.07
-0.065
-0.035
-0.02
-0.005
-0.02
-0.035
-0.02
-0.01
0.005
0.01
0.01
0.0
-0.005
0.01
0.05
0.03
0.02
0.025
0.015
0.02
0.03
0.045
0.04
0.04
0.04
0.04
0.065
0.08
0.075
0.055
0.075
0.105
0.125
0.115
0.11
0.125
0.14
0.15
0.165
0.165
0.16
0.14
0.13
0.12
