Lead II
-0.08
-0.075
-0.065
-0.065
-0.06
-0.065
-0.075
-0.07
-0.07
-0.075
-0.08
-0.08
-0.1
-0.11
-0.105
-0.095
-0.08
-0.08
-0.095
-0.11
-0.1
-0.095
-0.085
-0.085
-0.08
-0.065
-0.045
-0.065
-0.07
-0.075
-0.085
-0.09
-0.09
-0.11
-0.1
-0.095
-0.08
-0.075
-0.065
-0.055
-0.05
-0.05
-0.05
-0.045
-0.04
-0.035
-0.02
-0.02
-0.03
-0.035
-0.035
-0.04
-0.055
-0.06
-0.065
-0.06
-0.055
-0.065
-0.08
-0.085
-0.09
-0.08
-0.06
-0.05
-0.065
-0.08
-0.105
-0.1
-0.095
-0.075
-0.07
-0.055
-0.045
-0.035
-0.03
-0.06
-0.085
-0.1
-0.1
-0.1
-0.11
-0.125
-0.14
-0.14
-0.145
-0.135
-0.12
-0.115
-0.115
-0.115
-0.13
-0.12
-0.125
-0.115
-0.1
-0.1
-0.115
-0.135
-0.16
-0.175
-0.17
-0.135
-0.085
0.0
0.09
0.185
0.27
0.335
0.405
0.495
0.61
0.745
0.87
0.96
1.01
0.995
0.925
0.845
0.73
0.585
0.355
0.075
-0.16
-0.32
-0.41
-0.43
-0.425
-0.355
-0.295
-0.275
-0.26
-0.255
-0.255
-0.22
-0.21
-0.22
-0.245
-0.255
-0.255
-0.26
-0.28
-0.305
-0.31
-0.275
-0.265
-0.26
-0.245
-0.25
-0.25
-0.26
-0.26
-0.25
-0.235
-0.23
-0.24
-0.255
-0.265
-0.255
-0.235
-0.225
-0.22
-0.225
-0.22
-0.21
-0.235
-0.24
-0.235
-0.235
-0.23
-0.24
-0.24
-0.235
-0.235
-0.235
-0.245
-0.225
-0.21
-0.21
-0.21
-0.22
-0.24
-0.225
-0.205
-0.22
-0.215
-0.2
-0.2
-0.2
-0.2
-0.2
-0.2
-0.2
-0.19
-0.185
-0.2
-0.19
-0.21
-0.225
-0.22
-0.225
-0.22
-0.195
-0.185
-0.175
-0.185
-0.185
-0.175
-0.185
-0.19
-0.19
-0.175
-0.155
-0.16
-0.15
-0.155
-0.14
-0.125
-0.12
-0.115
-0.13
-0.125
-0.115
-0.11
-0.105
-0.075
-0.07
-0.085
-0.08
-0.095
-0.08
-0.08
-0.08
-0.095
-0.085
-0.09
-0.075
-0.06
-0.045
-0.05
-0.065
-0.065
-0.1
-0.11
-0.095
-0.085
-0.075
-0.1
-0.11
-0.1
-0.12
-0.12
-0.13
-0.13
-0.12
-0.115
-0.11
-0.13
-0.13
-0.155
-0.155
-0.14
-0.135
-0.125
-0.14
-0.15
-0.14
-0.13
-0.145
-0.165
-0.175
-0.18
-0.17
-0.175
-0.165
-0.15
-0.17
-0.155
-0.125
-0.11
-0.095
-0.085
-0.065
-0.05
-0.04
-0.06
-0.05
-0.03
0.01
0.035
0.05
-0.03
-0.21
-0.51
-0.915
-1.29
-1.63
-1.94
-2.175
-2.305
-2.34
-2.34
-2.335
-2.33
-2.295
-2.275
-2.225
-2.18
-2.09
-2.005
-1.86
-1.69
-1.51
-1.345
-1.185
-1.06
-0.96
-0.875
-0.785
-0.71
-0.635
-0.57
-0.52
-0.465
-0.43
-0.385
-0.325
-0.255
-0.15
-0.065
0.025
0.075
0.15
0.22
0.27
0.3
0.31
0.315
0.355
0.39
0.41
0.42
0.41
0.405
0.435
0.45
0.465
0.45
0.45
0.45
0.47
0.495
0.51
0.52
0.515
0.51
0.525
0.545
0.55
0.565
0.555
0.555
0.58
0.61
0.625
0.62
0.63
0.63
0.65
0.67
0.685
0.7
0.71
0.695
0.7
0.72
0.74
0.745
0.75
0.735
0.735
0.765
0.79
0.795
0.79
0.775
0.77
0.77
0.76
0.77
0.765
0.765
0.77
0.765
0.755
0.745
0.725
0.7
0.715
0.705
0.69
0.665
0.64
0.605
0.6
0.585
0.555
0.53
0.485
0.45
0.43
0.415
0.39
0.365
0.335
0.275
0.285
0.255
0.235
0.22
0.205
0.185
0.18
0.18
0.175
0.165
0.13
0.11
0.095
0.075
0.07
0.045
0.025
0.03
0.01
0.015
0.005
0.005
-0.005
-0.01
-0.015
-0.015
-0.025
-0.04
-0.03
-0.04
-0.03
-0.04
-0.055
-0.065
-0.08
-0.07
-0.055
-0.05
-0.055
-0.075
-0.07
-0.08
-0.08
-0.06
-0.06
-0.06
-0.075
-0.095
-0.085
-0.08
-0.075
-0.08
-0.085
-0.09
-0.08
-0.075
-0.075
-0.1
-0.13
-0.13
-0.12
-0.095
-0.095
-0.12
-0.12
-0.115
-0.105
-0.1
-0.11
-0.13
-0.14
-0.135
-0.13
-0.125
-0.12
-0.125
-0.135
-0.14
-0.14
-0.135
-0.13
-0.15
-0.145
-0.15
-0.14
-0.125
-0.125
-0.125
-0.13
-0.14
-0.12
-0.11
-0.115
-0.12
-0.125
-0.115
-0.11
-0.12
-0.12
-0.14
-0.15
-0.155
-0.145
-0.13
-0.12
-0.105
-0.13
-0.15
-0.15
-0.135
-0.12
-0.125
-0.11
-0.12
-0.125
-0.115
-0.1
-0.12
-0.125
-0.135
-0.135
-0.15
-0.155
-0.15
-0.145
-0.16
-0.145
-0.125
-0.135
-0.14
-0.145
-0.15
-0.125
-0.115
-0.115
-0.115
-0.135
-0.145
-0.135
-0.115
-0.115
-0.15
-0.15
-0.15
-0.125
-0.115
-0.105
-0.115
-0.125
-0.12
-0.115
-0.11
-0.125
-0.105
-0.085
-0.1
-0.095
-0.105
-0.08
-0.065
-0.075
-0.09
-0.08
-0.09
-0.085
-0.1
-0.115
-0.14
-0.125
-0.125
-0.12
-0.125
-0.125
-0.125
-0.12
-0.115
-0.13
-0.13
-0.135
-0.125
-0.115
-0.11
-0.115
-0.115
-0.11
-0.09
-0.075
-0.1
-0.135
-0.17
-0.19
-0.185
-0.16
-0.145
-0.145
-0.15
-0.15
-0.145
-0.14
-0.135
-0.14
-0.155
-0.145
-0.16
-0.15
-0.14
-0.145
-0.17
-0.2
-0.2
-0.175
-0.1
-0.02
0.06
0.155
0.255
0.365
0.48
0.605
0.725
0.84
0.925
0.95
0.875
0.745
0.59
0.385
0.115
-0.13
-0.31
-0.415
-0.445
-0.41
-0.355
-0.305
-0.285
-0.28
-0.27
-0.26
-0.285
-0.3
-0.315
-0.32
-0.32
-0.305
-0.305
-0.295
-0.285
-0.27
-0.265
-0.25
-0.26
-0.27
-0.275
-0.28
-0.28
-0.285
-0.28
-0.27
-0.27
-0.265
-0.265
-0.26
-0.28
-0.295
-0.285
-0.27
-0.265
-0.25
-0.26
-0.245
-0.235
-0.23
-0.23
-0.245
-0.265
-0.24
-0.225
-0.22
-0.24
-0.255
-0.26
-0.26
-0.245
-0.235
-0.225
-0.24
-0.22
-0.225
-0.23
-0.22
-0.215
-0.23
-0.24
-0.215
-0.205
-0.19
-0.19
-0.205
-0.215
-0.215
-0.22
-0.21
-0.225
-0.225
-0.22
-0.215
-0.21
-0.2
-0.2
-0.2
-0.21
-0.195
-0.19
-0.19
-0.185
-0.18
-0.18
-0.14
-0.12
-0.105
-0.095
-0.105
-0.12
-0.105
-0.09
-0.085
-0.075
-0.095
-0.105
-0.095
-0.075
-0.08
-0.075
-0.085
-0.09
-0.09
-0.085
-0.095
-0.11
-0.125
-0.12
-0.105
-0.105
-0.09
-0.09
-0.105
-0.125
-0.125
-0.11
-0.11
-0.13
-0.13
-0.145
-0.13
-0.125
-0.13
-0.135
-0.15
-0.165
-0.165
-0.185
-0.17
-0.165
-0.165
-0.17
-0.185
-0.19
-0.18
-0.16
-0.155
-0.155
-0.15
-0.13
-0.095
-0.06
-0.03
-0.01
0.005
0.01
0.005
-0.005
-0.01
-0.01
0.005
0.035
0.01
-0.12
-0.375
-0.74
-1.175
-1.575
-1.915
-2.17
-2.33
-2.365
-2.345
-2.32
-2.295
-2.26
-2.185
-2.085
-1.985
-1.885
-1.795
-1.67
-1.51
-1.335
-1.175
-1.065
-0.98
-0.905
-0.83
-0.745
-0.685
-0.605
-0.55
-0.51
-0.48
-0.44
-0.39
-0.32
-0.23
-0.15
-0.075
-0.025
0.045
0.12
0.165
0.195
0.22
0.24
0.28
0.3
0.32
0.34
0.37
0.385
0.385
0.4
0.405
0.4
0.39
0.36
0.365
0.375
0.405
0.415
0.45
0.465
0.485
0.485
0.48
0.465
0.475
0.485
0.515
0.535
0.55
0.55
0.52
0.535
0.56
0.58
0.6
0.595
0.59
0.6
0.625
0.64
0.66
0.665
0.67
0.68
0.685
0.685
0.685
0.705
0.72
0.715
0.72
0.705
0.705
0.72
0.71
0.695
0.67
0.65
0.65
0.645
0.615
0.59
0.565
0.55
0.545
0.525
0.495
0.45
0.43
0.415
0.41
0.39
0.355
0.335
0.335
0.33
0.3
0.245
0.185
0.14
0.13
0.15
0.14
0.135
0.12
0.09
0.055
0.025
0.0
-0.02
-0.03
-0.025
-0.01
0.0
0.02
0.005
-0.005
-0.015
-0.02
-0.02
-0.04
-0.05
-0.09
-0.12
-0.1
-0.045
-0.015
-0.045
-0.125
-0.195
-0.185
-0.135
-0.115
-0.13
-0.135
-0.125
-0.105
-0.07
-0.05
-0.085
-0.16
-0.22
-0.22
-0.145
-0.07
-0.09
-0.165
-0.225
-0.23
-0.18
-0.155
-0.16
-0.18
-0.21
-0.22
-0.235
-0.22
-0.2
-0.175
-0.145
-0.11
-0.135
-0.165
-0.205
-0.225
-0.21
-0.175
-0.135
-0.14
-0.155
-0.195
-0.23
-0.205
-0.21
-0.19
-0.2
-0.21
-0.23
-0.23
-0.22
-0.215
-0.22
-0.205
-0.19
-0.185
-0.19
-0.185
-0.195
-0.195
-0.195
-0.21
-0.2
-0.17
-0.15
-0.135
-0.16
-0.19
-0.205
-0.21
-0.185
-0.2
-0.215
-0.225
-0.205
-0.195
-0.19
-0.185
-0.185
-0.18
-0.185
-0.195
-0.22
-0.225
-0.21
-0.205
-0.185
-0.18
-0.19
-0.18
-0.175
-0.145
-0.135
-0.15
-0.165
-0.195
-0.21
-0.21
-0.205
-0.185
-0.16
-0.16
-0.155
-0.14
-0.16
-0.215
-0.255
-0.26
-0.225
-0.165
-0.13
-0.135
-0.145
-0.155
-0.125
-0.08
-0.065
-0.145
-0.2
-0.2
-0.135
-0.08
-0.13
-0.2
-0.24
-0.21
-0.15
-0.09
-0.115
-0.19
-0.28
-0.335
-0.315
-0.25
-0.2
-0.185
-0.2
-0.21
-0.19
-0.18
-0.15
-0.12
-0.11
-0.14
-0.17
-0.195
-0.2
-0.215
-0.21
-0.235
-0.24
-0.235
-0.215
-0.195
-0.175
-0.195
-0.235
-0.25
-0.24
-0.205
-0.195
-0.225
-0.26
-0.285
-0.27
-0.23
-0.19
-0.125
-0.045
0.01
0.06
0.14
0.28
0.42
0.53
0.615
0.685
0.785
0.84
0.835
0.745
0.64
0.54
0.36
0.085
-0.18
-0.37
-0.47
-0.51
-0.485
-0.44
-0.42
-0.405
-0.375
-0.35
-0.335
-0.345
-0.355
-0.37
-0.355
-0.36
-0.335
-0.335
-0.355
-0.375
-0.36
-0.325
-0.29
-0.305
-0.325
-0.345
-0.355
-0.335
-0.335
-0.36
-0.385
-0.385
-0.34
-0.3
-0.295
-0.3
-0.32
-0.355
-0.37
-0.36
-0.34
-0.32
-0.31
-0.325
-0.335
-0.33
-0.31
-0.285
-0.285
-0.305
-0.305
-0.28
-0.325
-0.29
-0.315
-0.32
-0.285
-0.245
-0.205
-0.195
-0.23
-0.31
-0.36
-0.35
-0.285
-0.24
-0.235
-0.28
-0.33
-0.34
-0.325
-0.315
-0.3
-0.315
-0.275
-0.245
-0.255
-0.3
-0.33
-0.35
-0.305
-0.29
-0.28
-0.27
-0.265
-0.28
-0.295
-0.29
-0.27
-0.255
-0.255
-0.25
-0.245
-0.235
-0.2
-0.18
-0.16
-0.165
-0.185
-0.22
-0.2
-0.15
-0.08
-0.095
-0.185
-0.245
-0.275
-0.25
-0.2
-0.195
-0.185
-0.155
-0.13
-0.155
-0.195
-0.245
-0.24
-0.225
-0.21
-0.21
-0.215
-0.215
-0.195
-0.195
-0.19
-0.21
-0.225
-0.215
-0.2
-0.2
-0.235
-0.265
-0.265
-0.26
-0.235
-0.235
-0.265
-0.275
-0.27
-0.265
-0.25
-0.25
-0.255
-0.255
-0.245
-0.265
-0.26
-0.25
-0.245
-0.265
-0.29
-0.325
-0.305
-0.28
-0.25
-0.26
-0.285
-0.295
-0.28
-0.25
-0.235
-0.235
-0.245
-0.275
-0.29
-0.335
-0.36
-0.36
-0.345
-0.315
-0.29
-0.285
-0.285
-0.275
-0.265
-0.26
-0.245
-0.24
-0.235
-0.235
-0.21
-0.2
-0.17
-0.14
-0.125
-0.11
-0.1
-0.08
-0.04
0.0
0.04
0.055
0.07
0.075
0.105
0.13
0.165
0.195
0.22
0.245
0.27
0.25
0.205
0.17
0.145
0.05
-0.1
-0.34
-0.675
-1.015
-1.31
-1.525
-1.69
-1.78
-1.79
-1.79
-1.79
-1.795
-1.72
-1.635
-1.585
-1.55
-1.475
-1.38
-1.275
-1.18
-1.145
-1.155
-1.13
-1.08
-0.98
-0.905
-0.855
-0.83
-0.77
-0.725
-0.675
-0.655
-0.625
-0.615
-0.635
-0.63
-0.625
-0.6
-0.54
-0.515
-0.49
-0.46
-0.415
-0.355
-0.295
-0.26
-0.24
-0.22
-0.175
-0.115
-0.075
-0.055
-0.03
-0.02
0.005
0.01
0.015
0.03
0.05
0.045
0.07
0.075
0.08
0.06
0.08
0.085
0.09
0.1
0.115
0.135
0.14
0.17
0.195
0.215
0.245
0.26
0.26
0.24
0.215
0.215
0.21
0.215
0.23
0.26
0.275
0.29
0.31
0.3
0.31
0.315
0.315
0.3
0.315
0.325
0.335
0.345
0.35
0.37
0.37
0.37
0.36
0.355
0.36
0.365
0.375
0.39
0.365
0.35
0.345
0.355
0.36
0.37
0.335
0.32
0.3
0.295
0.305
0.28
0.255
0.22
0.215
0.19
0.195
0.185
0.16
0.15
0.145
0.13
0.105
0.065
0.01
-0.01
-0.005
0.0
-0.005
-0.02
-0.045
-0.06
-0.06
-0.065
-0.07
-0.08
-0.11
-0.14
-0.135
-0.13
-0.125
-0.165
-0.215
-0.245
-0.24
-0.225
-0.21
-0.21
-0.22
-0.235
-0.24
-0.22
-0.21
-0.19
-0.2
-0.22
-0.23
-0.225
-0.22
-0.215
-0.22
-0.225
-0.235
-0.265
-0.275
-0.295
-0.29
-0.295
-0.285
-0.285
-0.285
-0.29
-0.29
-0.305
-0.285
-0.26
-0.255
-0.265
-0.285
-0.285
-0.285
-0.28
-0.27
-0.275
-0.275
-0.285
-0.27
-0.25
-0.255
-0.28
-0.305
-0.325
-0.315
-0.295
-0.29
-0.29
-0.295
-0.295
-0.3
-0.3
-0.315
-0.325
-0.335
-0.345
-0.325
-0.31
-0.29
-0.28
-0.28
-0.285
-0.31
-0.315
-0.32
-0.31
-0.315
-0.315
-0.315
-0.305
-0.305
-0.32
-0.34
-0.33
-0.325
-0.31
-0.305
-0.31
-0.315
-0.325
-0.31
-0.315
-0.3
-0.3
-0.305
-0.315
-0.305
-0.305
-0.3
-0.295
-0.305
-0.32
-0.32
-0.32
-0.32
-0.3
-0.31
-0.325
-0.32
-0.305
-0.3
-0.3
-0.305
-0.32
-0.31
-0.31
-0.305
-0.295
-0.295
-0.29
-0.28
-0.265
-0.26
-0.28
-0.27
-0.27
-0.27
-0.275
-0.285
-0.28
-0.285
-0.25
-0.225
-0.215
-0.23
-0.29
-0.335
-0.35
-0.325
-0.3
-0.285
-0.285
-0.295
-0.31
-0.3
-0.305
-0.315
-0.3
-0.31
-0.315
-0.305
-0.295
-0.295
-0.295
-0.305
-0.315
-0.31
-0.315
-0.315
-0.3
-0.3
-0.295
-0.285
-0.28
-0.26
-0.27
-0.285
-0.31
-0.31
-0.32
-0.315
-0.315
-0.315
-0.33
-0.325
-0.315
-0.305
-0.3
-0.3
-0.325
-0.34
-0.33
-0.315
-0.305
-0.305
-0.305
-0.305
-0.3
-0.295
-0.305
-0.325
-0.325
-0.315
-0.315
-0.305
-0.3
-0.29
-0.245
-0.175
-0.105
-0.045
0.02
0.095
0.175
0.26
0.34
0.425
0.505
0.595
0.7
0.785
0.87
0.855
0.78
0.69
0.565
0.42
0.19
-0.115
-0.395
-0.56
-0.65
-0.685
-0.68
-0.67
-0.63
-0.565
-0.545
-0.515
-0.505
-0.48
-0.45
-0.42
-0.42
-0.43
-0.43
-0.435
-0.435
-0.435
-0.435
-0.43
-0.42
-0.395
-0.375
-0.37
-0.39
-0.395
-0.4
-0.405
-0.4
-0.415
-0.42
-0.425
-0.4
-0.375
-0.37
-0.38
-0.405
-0.4
-0.385
-0.36
-0.35
-0.35
-0.36
-0.355
-0.35
-0.34
-0.34
-0.335
-0.35
-0.365
-0.38
-0.38
-0.37
-0.36
-0.355
-0.34
-0.325
-0.335
-0.335
-0.335
-0.34
-0.325
-0.325
-0.32
-0.32
-0.325
-0.325
-0.31
-0.31
-0.3
-0.32
-0.33
-0.335
-0.33
-0.315
-0.315
-0.32
-0.335
-0.34
-0.33
-0.3
-0.285
-0.295
-0.32
-0.355
-0.34
-0.325
-0.295
-0.3
-0.295
-0.305
-0.29
-0.285
-0.295
-0.295
-0.315
-0.32
-0.315
-0.3
-0.27
-0.255
-0.26
-0.265
-0.25
-0.235
-0.21
-0.195
-0.175
-0.185
-0.205
-0.24
-0.24
-0.215
-0.21
-0.22
-0.205
-0.205
-0.185
-0.17
-0.185
-0.205
-0.2
-0.205
-0.2
-0.18
-0.2
-0.21
-0.205
-0.22
-0.22
-0.215
-0.21
-0.225
-0.225
-0.205
-0.185
-0.195
-0.22
-0.25
-0.235
-0.22
-0.21
-0.21
-0.225
-0.235
-0.23
-0.22
-0.215
-0.215
-0.225
-0.235
-0.21
-0.2
-0.205
-0.225
-0.24
-0.26
-0.265
-0.23
-0.225
-0.24
-0.26
-0.27
-0.25
-0.23
-0.21
-0.215
-0.19
-0.175
-0.165
-0.14
-0.115
-0.105
-0.08
-0.07
-0.045
0.0
0.06
0.09
0.125
0.17
0.25
0.335
0.375
0.365
0.34
0.32
0.245
0.05
-0.335
-0.87
-1.39
-1.73
-1.94
-2.02
-2.05
-2.07
-2.085
-2.065
-2.005
-1.95
-1.89
-1.8
-1.665
-1.54
-1.435
-1.375
-1.325
-1.235
-1.12
-1.055
-0.97
-0.895
-0.81
-0.725
-0.65
-0.62
-0.585
-0.58
-0.56
-0.53
-0.49
-0.475
-0.44
-0.38
-0.285
-0.215
-0.14
-0.11
-0.075
-0.015
0.035
0.07
0.08
0.085
0.105
0.14
0.17
0.18
0.175
0.19
0.235
0.29
0.285
0.26
0.215
0.21
0.235
0.28
0.32
0.34
0.34
0.335
0.345
0.375
0.41
0.435
0.435
0.44
0.455
0.475
0.51
0.515
0.525
0.54
0.535
0.565
0.585
0.61
0.62
0.63
0.645
0.645
0.62
0.6
0.62
0.625
0.64
0.615
0.615
0.6
0.605
0.61
0.63
0.65
0.645
0.62
0.615
0.615
0.62
0.605
0.585
0.56
0.555
0.545
0.525
0.49
0.46
0.43
0.425
0.415
0.4
0.375
0.33
0.295
0.25
0.215
0.19
0.185
0.17
0.165
0.13
0.1
0.105
0.11
0.125
0.125
0.11
0.045
-0.03
-0.09
-0.08
-0.05
-0.035
-0.06
-0.085
-0.1
-0.1
-0.095
-0.105
-0.115
-0.13
-0.15
-0.12
-0.115
-0.12
-0.125
-0.13
-0.145
-0.13
-0.13
-0.12
-0.125
-0.115
-0.13
-0.145
-0.155
-0.155
-0.16
-0.15
-0.155
-0.15
-0.17
-0.205
-0.22
-0.22
-0.18
-0.155
-0.155
-0.16
-0.18
-0.175
-0.175
-0.16
-0.18
-0.175
-0.2
-0.19
-0.165
-0.15
-0.135
-0.125
-0.135
-0.135
-0.145
-0.135
-0.135
-0.145
-0.19
-0.215
-0.2
-0.18
-0.16
-0.17
-0.175
-0.18
-0.16
-0.145
-0.155
-0.155
-0.17
-0.155
-0.16
-0.19
-0.22
-0.205
-0.185
-0.195
-0.185
-0.185
-0.18
-0.165
-0.165
-0.165
-0.16
-0.15
-0.145
-0.155
-0.185
-0.205
-0.19
-0.185
-0.17
-0.18
-0.19
-0.18
-0.175
-0.175
-0.185
-0.18
-0.175
-0.165
-0.16
-0.17
-0.17
-0.17
-0.175
-0.19
-0.21
-0.21
-0.185
-0.155
-0.145
-0.135
-0.135
-0.13
-0.135
-0.15
-0.15
-0.155
-0.13
-0.12
-0.125
-0.125
-0.12
-0.09
-0.055
-0.065
-0.1
-0.105
-0.11
-0.11
-0.12
-0.145
-0.165
-0.18
-0.17
-0.16
-0.135
-0.125
-0.14
-0.155
-0.18
-0.205
-0.21
-0.19
-0.185
-0.205
-0.225
-0.195
-0.135
-0.105
-0.125
-0.145
-0.185
-0.185
-0.18
-0.15
-0.125
-0.135
-0.165
-0.17
-0.15
-0.12
-0.125
-0.13
-0.155
-0.18
-0.17
-0.135
-0.105
-0.13
-0.18
-0.19
-0.185
-0.18
-0.145
-0.095
-0.025
0.07
0.15
0.24
0.37
0.485
0.585
0.73
0.88
1.015
1.09
1.13
1.08
0.99
0.795
0.465
0.07
-0.215
-0.35
-0.4
-0.39
-0.37
-0.305
-0.275
-0.265
-0.255
-0.27
-0.285
-0.315
-0.305
-0.295
-0.28
-0.28
-0.28
-0.285
-0.27
-0.25
-0.265
-0.255
-0.255
-0.245
-0.245
-0.25
-0.265
-0.265
-0.26
-0.26
-0.255
-0.275
-0.265
-0.245
-0.22
-0.235
-0.245
-0.27
-0.265
-0.235
-0.215
-0.22
-0.24
-0.27
-0.27
-0.24
-0.225
-0.225
-0.21
-0.215
-0.23
-0.23
-0.215
-0.205
-0.21
-0.225
-0.21
-0.2
-0.19
-0.16
-0.15
-0.165
-0.175
-0.18
-0.17
-0.17
-0.165
-0.15
-0.15
-0.145
-0.135
-0.13
-0.12
-0.135
-0.17
-0.175
-0.165
-0.165
-0.165
-0.165
-0.145
-0.13
-0.13
-0.125
-0.11
-0.125
-0.125
-0.095
-0.055
-0.055
-0.09
-0.115
-0.1
-0.055
-0.02
-0.005
-0.02
-0.04
-0.05
-0.045
-0.045
-0.065
-0.075
-0.075
-0.045
-0.02
-0.01
-0.005
-0.01
-0.02
-0.04
-0.06
-0.05
-0.06
-0.06
-0.06
-0.025
-0.005
-0.025
-0.04
-0.085
-0.115
-0.105
-0.105
-0.1
-0.095
-0.09
-0.085
-0.08
-0.095
-0.105
-0.1
-0.11
-0.11
-0.15
-0.175
-0.195
-0.185
-0.16
-0.155
-0.145
-0.125
-0.095
-0.04
-0.04
-0.05
-0.065
-0.055
-0.01
0.085
0.175
0.175
0.1
0.005
-0.02
0.0
0.045
0.09
0.155
0.185
0.16
0.105
0.045
-0.035
-0.175
-0.425
-0.8
-1.245
-1.63
-1.875
-1.985
-2.04
-2.075
-2.08
-2.03
-1.945
-1.875
-1.795
-1.69
-1.535
-1.405
-1.285
-1.21
-1.175
-1.145
-1.055
-0.965
-0.875
-0.78
-0.68
-0.585
-0.505
-0.445
-0.42
-0.39
-0.37
-0.355
-0.315
-0.245
-0.18
-0.1
-0.025
0.05
0.12
0.16
0.16
0.16
0.175
0.2
0.22
0.25
0.28
0.305
0.325
0.355
0.4
0.455
0.48
0.505
0.535
0.56
0.54
0.465
0.42
0.48
0.575
0.58
0.48
0.405
0.395
0.46
0.55
0.615
0.625
0.615
0.62
0.62
0.61
0.62
0.65
0.66
0.655
0.635
0.65
0.715
0.775
0.78
0.735
0.66
0.595
0.61
0.645
0.645
0.62
0.61
0.645
0.675
0.675
0.655
0.615
0.615
0.61
0.6
0.565
0.52
0.49
0.5
0.525
0.545
0.5
0.43
0.385
0.39
0.38
0.38
0.375
0.405
0.395
0.255
0.04
-0.075
-0.035
0.08
0.115
0.115
0.11
0.125
0.14
0.1
0.03
-0.005
-0.005
0.01
0.015
0.005
-0.01
-0.02
0.005
0.035
0.07
0.07
0.06
0.03
-0.02
-0.07
-0.08
-0.065
-0.015
0.01
-0.015
-0.095
-0.165
-0.155
-0.115
-0.075
-0.07
-0.07
-0.04
-0.035
-0.045
-0.065
-0.095
-0.095
-0.085
-0.085
-0.105
-0.11
-0.09
-0.055
-0.03
-0.03
-0.025
-0.035
-0.06
-0.095
-0.125
-0.12
-0.105
-0.09
-0.085
-0.1
-0.115
-0.125
-0.13
-0.11
-0.095
-0.07
-0.06
-0.1
-0.15
-0.17
-0.12
-0.095
-0.07
-0.08
-0.09
-0.085
-0.085
-0.095
-0.1
-0.08
-0.07
-0.02
0.035
0.105
0.095
-0.02
-0.165
-0.205
-0.165
-0.105
-0.08
-0.09
-0.125
-0.125
-0.1
-0.05
-0.045
-0.085
-0.115
-0.145
-0.13
-0.075
-0.035
-0.005
-0.015
-0.02
0.0
-0.005
-0.05
-0.085
-0.105
-0.09
-0.08
-0.055
-0.06
-0.08
-0.075
-0.06
-0.05
-0.035
-0.04
-0.035
-0.03
0.0
-0.005
-0.075
-0.16
-0.19
-0.17
-0.12
-0.105
-0.095
-0.1
-0.085
-0.065
-0.035
-0.015
-0.015
-0.045
-0.085
-0.115
-0.14
-0.16
-0.15
-0.145
-0.14
-0.125
-0.09
-0.07
-0.05
-0.05
-0.08
-0.105
-0.11
-0.09
-0.08
-0.055
-0.02
0.0
-0.015
-0.055
-0.09
-0.105
-0.11
-0.15
-0.18
-0.19
-0.18
-0.13
-0.055
0.005
0.08
0.155
0.25
0.335
0.43
0.515
0.65
0.795
0.92
0.985
0.995
0.93
0.86
0.765
0.635
0.425
0.145
-0.08
-0.215
-0.32
-0.36
-0.36
-0.3
-0.26
-0.225
-0.205
-0.2
-0.19
-0.205
-0.205
-0.2
-0.205
-0.215
-0.24
-0.275
-0.305
-0.305
-0.24
-0.185
-0.17
-0.165
-0.175
-0.175
-0.215
-0.285
-0.325
-0.33
-0.315
-0.295
-0.265
-0.235
-0.22
-0.215
-0.235
-0.235
-0.22
-0.215
-0.2
-0.215
-0.22
-0.23
-0.21
-0.205
-0.2
-0.2
-0.2
-0.2
-0.205
-0.205
-0.22
-0.205
-0.205
-0.205
-0.205
-0.185
-0.2
-0.19
-0.21
-0.2
-0.205
-0.195
-0.2
-0.2
-0.205
-0.215
-0.195
-0.19
-0.185
-0.19
-0.185
-0.165
-0.165
-0.155
-0.165
-0.155
-0.15
-0.13
-0.135
-0.15
-0.165
-0.18
-0.19
-0.18
-0.17
-0.16
-0.18
-0.175
-0.175
-0.16
-0.14
-0.12
-0.115
-0.1
-0.09
-0.05
-0.06
-0.065
-0.075
-0.085
-0.09
-0.08
-0.07
-0.045
-0.055
-0.07
-0.085
-0.085
-0.07
-0.07
-0.08
-0.075
-0.07
-0.035
-0.01
-0.025
-0.075
-0.1
-0.11
-0.1
-0.125
-0.145
-0.135
-0.14
-0.145
-0.13
-0.125
-0.135
-0.15
-0.16
-0.17
-0.175
-0.15
-0.145
-0.15
-0.155
-0.155
-0.145
-0.13
-0.125
-0.15
-0.17
-0.155
-0.115
-0.085
-0.07
-0.055
-0.035
-0.015
0.015
0.015
0.015
0.015
0.035
0.055
-0.01
-0.2
-0.515
-0.88
-1.26
-1.605
-1.885
-2.09
-2.18
-2.175
-2.16
-2.135
-2.04
-1.925
-1.785
-1.635
-1.495
-1.39
-1.25
-1.115
-0.975
-0.835
-0.725
-0.705
-0.73
-0.765
-0.745
-0.67
-0.59
-0.55
-0.51
-0.465
-0.405
-0.35
-0.275
-0.21
-0.125
-0.04
0.045
0.11
0.16
0.195
0.235
0.275
0.285
0.285
0.3
0.29
0.295
0.31
0.35
0.35
0.32
0.27
0.28
0.35
0.405
0.43
0.41
0.38
0.35
0.38
0.42
0.44
0.455
0.465
0.48
0.515
0.535
0.54
0.545
0.55
0.565
0.59
0.605
0.595
0.595
0.59
0.61
0.62
0.645
0.64
0.64
0.645
0.655
0.69
0.705
0.69
0.68
0.665
0.655
0.645
0.65
0.635
0.605
0.585
0.575
0.555
0.55
0.52
0.495
0.45
0.415
0.39
0.385
0.37
0.355
0.325
0.31
0.28
0.28
0.26
0.24
0.21
0.195
0.175
0.155
0.125
0.1
0.065
0.055
0.04
0.035
0.035
0.015
0.0
-0.015
-0.01
-0.015
-0.04
-0.05
-0.06
-0.05
-0.035
-0.015
-0.01
-0.025
-0.075
-0.115
-0.155
-0.185
-0.165
-0.14
-0.135
-0.14
-0.145
-0.125
-0.13
-0.125
-0.145
-0.135
-0.135
-0.13
-0.13
-0.135
-0.15
-0.15
-0.17
-0.155
-0.16
-0.155
-0.165
-0.16
-0.165
-0.155
-0.14
-0.15
-0.155
-0.165
-0.165
-0.15
-0.16
-0.165
-0.19
-0.18
-0.18
-0.185
-0.195
-0.205
-0.2
-0.19
-0.18
-0.185
-0.175
-0.175
-0.185
-0.175
-0.16
-0.15
-0.165
-0.165
-0.185
-0.185
-0.185
-0.18
-0.18
-0.175
-0.185
-0.17
-0.17
-0.155
-0.135
-0.13
-0.13
-0.165
-0.21
-0.22
-0.225
-0.22
-0.215
-0.22
-0.205
-0.19
-0.195
-0.195
-0.2
-0.19
-0.17
-0.175
-0.16
-0.175
-0.185
-0.175
-0.17
-0.17
-0.175
-0.18
-0.19
-0.2
-0.19
-0.18
-0.185
-0.18
-0.185
-0.19
-0.165
-0.155
-0.145
-0.145
-0.14
-0.16
-0.175
-0.15
-0.145
-0.14
-0.185
-0.21
-0.215
-0.195
-0.18
-0.17
-0.17
-0.16
-0.14
-0.13
-0.125
-0.135
-0.14
-0.12
-0.115
-0.11
-0.12
-0.115
-0.13
-0.13
-0.14
-0.135
-0.15
-0.155
-0.17
-0.165
-0.155
-0.135
-0.125
-0.125
-0.125
-0.125
-0.135
-0.13
-0.135
-0.11
-0.065
-0.015
-0.005
-0.07
-0.175
-0.24
-0.26
-0.255
-0.22
-0.17
-0.16
-0.18
-0.245
-0.255
-0.235
-0.21
-0.2
-0.19
-0.195
-0.185
-0.17
-0.17
-0.165
-0.185
-0.195
-0.185
-0.17
-0.14
-0.125
-0.15
-0.2
-0.235
-0.21
-0.14
-0.055
0.035
0.115
0.225
0.325
0.43
0.535
0.65
0.75
0.86
0.97
1.03
1.015
0.935
0.795
0.61
0.31
-0.025
-0.28
-0.405
-0.49
-0.5
-0.47
-0.4
-0.355
-0.325
-0.325
-0.32
-0.285
-0.255
-0.255
-0.27
-0.335
-0.365
-0.375
-0.36
-0.33
-0.32
-0.315
-0.315
-0.315
-0.315
-0.295
-0.29
-0.295
-0.28
-0.27
-0.26
-0.23
-0.25
-0.27
-0.285
-0.29
-0.28
-0.29
-0.285
-0.3
-0.28
-0.26
-0.235
-0.24
-0.24
-0.265
-0.28
-0.275
-0.26
-0.235
-0.255
-0.26
-0.25
-0.255
-0.255
-0.245
-0.245
-0.235
-0.215
-0.245
-0.24
-0.25
-0.255
-0.25
-0.215
-0.225
-0.23
-0.245
-0.255
-0.275
-0.25
-0.24
-0.235
-0.235
-0.235
-0.235
-0.225
-0.22
-0.215
-0.22
-0.215
-0.215
-0.21
-0.21
-0.195
-0.195
-0.195
-0.2
-0.175
-0.17
-0.155
-0.16
-0.18
-0.215
-0.21
-0.195
-0.17
-0.15
-0.14
-0.165
-0.16
-0.16
-0.175
-0.175
-0.17
-0.17
-0.16
-0.135
-0.13
-0.115
-0.12
-0.12
-0.115
-0.105
-0.1
-0.095
-0.095
-0.095
-0.105
-0.115
-0.115
-0.115
-0.105
-0.105
-0.1
-0.1
-0.105
-0.105
-0.125
-0.13
-0.115
-0.11
-0.11
-0.11
-0.105
-0.11
-0.11
-0.12
-0.095
-0.095
-0.11
-0.11
-0.1
-0.1
-0.095
-0.1
-0.09
-0.095
-0.11
-0.15
-0.18
-0.21
-0.215
-0.225
-0.21
-0.195
-0.2
-0.205
-0.215
-0.205
-0.185
-0.195
-0.175
-0.19
-0.2
-0.21
-0.2
-0.185
-0.18
-0.185
-0.19
-0.195
-0.205
-0.2
-0.2
-0.19
-0.185
-0.185
-0.19
-0.185
-0.17
-0.15
-0.155
-0.155
-0.15
-0.13
-0.12
-0.135
-0.145
-0.165
-0.135
-0.09
-0.07
-0.065
-0.07
-0.075
-0.065
-0.05
-0.04
-0.055
-0.065
-0.075
-0.065
-0.05
-0.05
-0.02
0.025
0.035
0.045
0.06
0.065
0.07
0.075
0.07
0.08
0.115
0.205
0.33
0.415
0.46
0.49
0.49
0.48
0.455
0.395
0.27
0.095
-0.175
-0.5
-0.855
-1.175
-1.445
-1.64
-1.755
-1.815
-1.84
-1.87
-1.875
-1.835
-1.785
-1.745
-1.74
-1.705
-1.605
-1.455
-1.31
-1.225
-1.21
-1.23
-1.215
-1.155
-1.085
-0.99
-0.915
-0.825
-0.74
-0.64
-0.555
-0.485
-0.48
-0.485
-0.51
-0.515
-0.475
-0.455
-0.43
-0.425
-0.415
-0.38
-0.355
-0.315
-0.29
-0.245
-0.19
-0.125
-0.055
-0.005
0.04
0.06
0.07
0.1
0.145
0.165
0.185
0.18
0.155
0.175
0.185
0.215
0.23
0.24
0.23
0.24
0.27
0.29
0.315
0.32
0.315
0.315
0.33
0.36
0.38
0.39
0.39
0.395
0.415
0.44
0.45
0.45
0.45
0.475
0.475
0.495
0.51
0.52
0.52
0.53
0.54
0.555
0.555
0.56
0.56
0.565
0.565
0.56
0.555
0.55
0.535
0.535
0.555
0.59
0.595
0.58
0.565
0.545
0.55
0.54
0.54
0.54
0.525
0.515
0.5
0.505
0.495
0.47
0.44
0.43
0.435
0.415
0.39
0.375
0.32
0.3
0.285
0.275
0.26
0.25
0.225
0.22
0.2
0.19
0.165
0.14
0.11
0.105
0.1
0.1
0.09
0.075
0.06
0.035
0.05
0.025
0.04
0.025
0.0
-0.015
-0.02
-0.03
-0.03
-0.03
-0.045
-0.055
-0.055
-0.06
-0.07
-0.065
-0.08
-0.07
-0.065
-0.075
-0.11
-0.11
-0.1
-0.08
-0.065
-0.065
-0.075
-0.07
-0.065
-0.06
-0.07
-0.07
-0.07
-0.085
-0.08
-0.07
-0.065
-0.07
-0.09
-0.09
-0.105
-0.105
-0.105
-0.095
-0.105
-0.085
