Lead II
-0.755
-0.73
-0.69
-0.655
-0.59
-0.505
-0.42
-0.325
-0.245
-0.175
-0.13
-0.115
-0.11
-0.1
-0.085
-0.075
-0.07
-0.07
-0.065
-0.055
-0.04
-0.01
0.005
0.015
0.03
0.03
0.05
0.06
0.075
0.085
0.09
0.1
0.115
0.13
0.14
0.165
0.18
0.195
0.21
0.23
0.24
0.255
0.27
0.275
0.295
0.32
0.335
0.35
0.37
0.365
0.38
0.39
0.39
0.395
0.395
0.395
0.38
0.385
0.39
0.39
0.395
0.385
0.385
0.365
0.345
0.33
0.31
0.285
0.26
0.25
0.225
0.225
0.205
0.18
0.15
0.125
0.095
0.075
0.07
0.045
0.025
-0.005
-0.025
-0.045
-0.06
-0.065
-0.075
-0.07
-0.065
-0.075
-0.09
-0.12
-0.175
-0.29
-0.44
-0.62
-0.83
-1.01
-1.155
-1.275
-1.36
-1.43
-1.48
-1.515
-1.545
-1.555
-1.54
-1.52
-1.485
-1.455
-1.425
-1.375
-1.325
-1.265
-1.195
-1.12
-1.06
-1.0
-0.965
-0.92
-0.865
-0.845
-0.825
-0.82
-0.81
-0.79
-0.77
-0.74
-0.705
-0.64
-0.55
-0.44
-0.335
-0.23
-0.155
-0.115
-0.095
-0.095
-0.09
-0.105
-0.11
-0.095
-0.075
-0.055
-0.02
-0.02
-0.005
0.0
-0.005
0.005
0.01
0.025
0.045
0.075
0.095
0.11
0.135
0.135
0.145
0.15
0.155
0.175
0.18
0.215
0.235
0.25
0.255
0.275
0.29
0.305
0.335
0.365
0.385
0.405
0.415
0.425
0.425
0.455
0.49
0.505
0.53
0.53
0.525
0.5
0.48
0.46
0.425
0.395
0.39
0.375
0.365
0.34
0.32
0.275
0.25
0.205
0.16
0.135
0.09
0.07
0.035
0.02
0.005
-0.015
-0.025
-0.035
-0.04
-0.03
-0.04
-0.035
-0.055
-0.095
-0.18
-0.3
-0.445
-0.605
-0.76
-0.89
-1.02
-1.13
-1.215
-1.285
-1.345
-1.385
-1.415
-1.43
-1.415
-1.415
-1.39
-1.365
-1.32
-1.275
-1.22
-1.175
-1.12
-1.05
-0.99
-0.95
-0.915
-0.895
-0.865
-0.845
-0.83
-0.81
-0.785
-0.75
-0.7
-0.67
-0.6
-0.525
-0.44
-0.345
-0.265
-0.19
-0.135
-0.12
-0.125
-0.13
-0.135
-0.125
-0.13
-0.105
-0.09
-0.07
-0.04
-0.025
0.0
0.015
0.015
0.03
0.03
0.05
0.055
0.08
0.085
0.115
0.125
0.125
0.15
0.165
0.175
0.195
0.215
0.24
0.24
0.255
0.28
0.29
0.31
0.32
0.34
0.355
0.365
0.355
0.365
0.355
0.355
0.36
0.375
0.38
0.38
0.365
0.36
0.335
0.31
0.285
0.26
0.24
0.22
0.215
0.205
0.195
0.17
0.15
0.12
0.095
0.055
0.035
0.01
-0.02
-0.04
-0.055
-0.04
-0.06
-0.07
-0.115
-0.21
-0.35
-0.53
-0.72
-0.905
-1.075
-1.195
-1.275
-1.345
-1.375
-1.405
-1.425
-1.425
-1.405
-1.4
-1.37
-1.35
-1.31
-1.27
-1.23
-1.175
-1.115
-1.055
-0.995
-0.945
-0.91
-0.89
-0.88
-0.865
-0.855
-0.82
-0.8
-0.78
-0.74
-0.705
-0.665
-0.635
-0.575
-0.515
-0.455
-0.37
-0.305
-0.24
-0.175
-0.15
-0.13
-0.1
-0.09
-0.075
-0.065
-0.06
-0.06
-0.055
-0.05
-0.035
-0.015
0.005
0.03
0.06
0.065
0.095
0.115
0.125
0.14
0.15
0.165
0.18
0.21
0.235
0.27
0.3
0.32
0.33
0.33
0.325
0.34
0.35
0.375
0.39
0.405
0.42
0.44
0.44
0.44
0.44
0.44
0.425
0.41
0.405
0.39
0.365
0.37
0.36
0.345
0.34
0.315
0.305
0.27
0.245
0.215
0.18
0.17
0.13
0.125
0.1
0.095
0.075
0.06
0.03
-0.01
-0.025
-0.06
-0.08
-0.12
-0.13
-0.135
-0.14
-0.145
-0.14
-0.14
-0.145
-0.15
-0.14
-0.15
-0.15
-0.17
-0.22
-0.3
-0.425
-0.57
-0.72
-0.88
-1.01
-1.12
-1.215
-1.295
-1.35
-1.38
-1.415
-1.41
-1.395
-1.38
-1.35
-1.325
-1.285
-1.255
-1.215
-1.175
-1.14
-1.075
-1.03
-0.97
-0.935
-0.91
-0.895
-0.875
-0.84
-0.805
-0.79
-0.76
-0.74
-0.72
-0.69
-0.655
-0.6
-0.53
-0.445
-0.36
-0.29
-0.235
-0.185
-0.145
-0.125
-0.11
-0.1
-0.075
-0.055
-0.05
-0.02
-0.005
0.025
0.045
0.05
0.075
0.075
0.085
0.095
0.115
0.14
0.155
0.175
0.2
0.22
0.24
0.26
0.26
0.27
0.275
0.3
0.305
0.345
0.365
0.41
0.43
0.445
0.455
0.455
0.46
0.46
0.46
0.47
0.475
0.47
0.47
0.47
0.465
0.45
0.435
0.42
0.395
0.355
0.33
0.315
0.29
0.28
0.265
0.255
0.24
0.225
0.195
0.18
0.14
0.105
0.09
0.04
0.03
0.01
0.0
-0.005
-0.02
-0.02
-0.055
-0.075
-0.1
-0.13
-0.155
-0.175
-0.19
-0.19
-0.2
-0.2
-0.215
-0.225
-0.24
-0.27
-0.29
-0.31
-0.32
-0.325
-0.33
-0.34
-0.335
-0.345
-0.335
-0.34
-0.35
-0.36
-0.37
-0.36
-0.375
-0.37
-0.375
-0.375
-0.37
-0.375
-0.375
-0.37
-0.365
-0.38
-0.39
-0.41
-0.42
-0.425
-0.415
-0.41
-0.4
-0.39
-0.39
-0.39
-0.4
-0.4
-0.41
-0.415
-0.41
-0.395
-0.38
-0.375
-0.37
-0.365
-0.355
-0.35
-0.35
-0.34
-0.345
-0.365
-0.37
-0.385
-0.395
-0.39
-0.39
-0.385
-0.38
-0.375
-0.375
-0.385
-0.4
-0.41
-0.43
-0.45
-0.45
-0.445
-0.44
-0.445
-0.445
-0.445
-0.45
-0.46
-0.47
-0.49
-0.485
-0.485
-0.485
-0.475
-0.45
-0.445
-0.445
-0.45
-0.45
-0.455
-0.47
-0.485
-0.49
-0.48
-0.455
-0.395
-0.31
-0.2
-0.055
0.105
0.265
0.415
0.515
0.565
0.505
0.355
0.14
-0.1
-0.295
-0.425
-0.48
-0.475
-0.445
-0.41
-0.39
-0.385
-0.385
-0.405
-0.41
-0.425
-0.44
-0.435
-0.43
-0.425
-0.415
-0.435
-0.435
-0.45
-0.46
-0.465
-0.46
-0.46
-0.445
-0.435
-0.44
-0.445
-0.445
-0.455
-0.47
-0.475
-0.47
-0.465
-0.46
-0.46
-0.45
-0.445
-0.44
-0.435
-0.445
-0.455
-0.455
-0.465
-0.455
-0.475
-0.46
-0.46
-0.44
-0.44
-0.445
-0.445
-0.445
-0.45
-0.465
-0.47
-0.475
-0.485
-0.49
-0.47
-0.465
-0.44
-0.44
-0.44
-0.445
-0.445
-0.45
-0.47
-0.48
-0.48
-0.47
-0.455
-0.45
-0.43
-0.425
-0.415
-0.415
-0.42
-0.42
-0.42
-0.425
-0.415
-0.4
-0.385
-0.36
-0.34
-0.335
-0.33
-0.335
-0.34
-0.33
-0.33
-0.315
-0.315
-0.31
-0.29
-0.28
-0.265
-0.255
-0.245
-0.25
-0.27
-0.265
-0.265
-0.27
-0.26
-0.26
-0.25
-0.25
-0.25
-0.265
-0.265
-0.26
-0.28
-0.29
-0.3
-0.305
-0.315
-0.325
-0.33
-0.335
-0.33
-0.325
-0.33
-0.34
-0.355
-0.38
-0.375
-0.38
-0.38
-0.38
-0.37
-0.37
-0.37
-0.375
-0.38
-0.39
-0.405
-0.415
-0.43
-0.42
-0.415
-0.405
-0.395
-0.395
-0.405
-0.41
-0.41
-0.405
-0.405
-0.405
-0.4
-0.395
-0.4
-0.405
-0.4
-0.4
-0.395
-0.395
-0.4
-0.39
-0.405
-0.405
-0.4
-0.405
-0.4
-0.39
-0.37
-0.36
-0.35
-0.345
-0.34
-0.35
-0.355
-0.365
-0.385
-0.375
-0.37
-0.365
-0.355
-0.34
-0.34
-0.335
-0.35
-0.35
-0.35
-0.365
-0.38
-0.37
-0.39
-0.39
-0.38
-0.38
-0.38
-0.38
-0.38
-0.395
-0.415
-0.415
-0.44
-0.44
-0.455
-0.45
-0.455
-0.44
-0.43
-0.425
-0.415
-0.405
-0.41
-0.42
-0.42
-0.42
-0.43
-0.44
-0.435
-0.43
-0.43
-0.43
-0.405
-0.37
-0.31
-0.225
-0.12
0.02
0.18
0.365
0.535
0.645
0.675
0.585
0.43
0.215
-0.01
-0.2
-0.335
-0.38
-0.395
-0.37
-0.34
-0.325
-0.325
-0.325
-0.325
-0.335
-0.34
-0.35
-0.37
-0.39
-0.4
-0.41
-0.405
-0.405
-0.395
-0.4
-0.39
-0.4
-0.41
-0.4
-0.405
-0.405
-0.41
-0.405
-0.405
-0.395
-0.39
-0.39
-0.4
-0.4
-0.41
-0.42
-0.425
-0.43
-0.425
-0.415
-0.41
-0.39
-0.39
-0.39
-0.39
-0.38
-0.39
-0.39
-0.395
-0.4
-0.41
-0.4
-0.405
-0.395
-0.385
-0.375
-0.385
-0.39
-0.395
-0.4
-0.41
-0.4
-0.395
-0.385
-0.385
-0.38
-0.385
-0.4
-0.405
-0.41
-0.41
-0.415
-0.41
-0.41
-0.405
-0.405
-0.4
-0.4
-0.395
-0.38
-0.37
-0.365
-0.365
-0.37
-0.37
-0.355
-0.355
-0.34
-0.325
-0.305
-0.305
-0.3
-0.295
-0.29
-0.28
-0.275
-0.27
-0.265
-0.255
-0.25
-0.24
-0.25
-0.23
-0.225
-0.225
-0.225
-0.23
-0.235
-0.26
-0.27
-0.275
-0.285
-0.285
-0.29
-0.29
-0.29
-0.305
-0.31
-0.31
-0.325
-0.325
-0.34
-0.33
-0.33
-0.325
-0.32
-0.315
-0.325
-0.325
-0.325
-0.315
-0.34
-0.345
-0.35
-0.355
-0.355
-0.36
-0.37
-0.36
-0.35
-0.345
-0.35
-0.365
-0.38
-0.395
-0.39
-0.38
-0.37
-0.365
-0.36
-0.355
-0.37
-0.37
-0.38
-0.39
-0.38
-0.37
-0.375
-0.38
-0.375
-0.38
-0.38
-0.365
-0.355
-0.34
-0.33
-0.335
-0.34
-0.345
-0.35
-0.36
-0.365
-0.35
-0.35
-0.33
-0.315
-0.31
-0.3
-0.29
-0.285
-0.28
-0.305
-0.3
-0.305
-0.31
-0.31
-0.305
-0.305
-0.3
-0.305
-0.32
-0.34
-0.35
-0.345
-0.355
-0.355
-0.35
-0.365
-0.36
-0.365
-0.37
-0.365
-0.375
-0.38
-0.39
-0.41
-0.415
-0.41
-0.41
-0.4
-0.38
-0.37
-0.365
-0.365
-0.36
-0.35
-0.345
-0.31
-0.275
-0.23
-0.185
-0.175
-0.165
-0.195
-0.27
-0.375
-0.475
-0.545
-0.59
-0.6
-0.605
-0.6
-0.635
-0.66
-0.695
-0.72
-0.71
-0.685
-0.645
-0.58
-0.52
-0.465
-0.425
-0.385
-0.35
-0.32
-0.31
-0.3
-0.3
-0.295
-0.295
-0.29
-0.3
-0.3
-0.305
-0.29
-0.28
-0.275
-0.255
-0.245
-0.235
-0.235
-0.235
-0.245
-0.24
-0.25
-0.245
-0.235
-0.215
-0.21
-0.21
-0.195
-0.18
-0.18
-0.17
-0.165
-0.16
-0.155
-0.16
-0.16
-0.15
-0.155
-0.155
-0.155
-0.145
-0.135
-0.125
-0.115
-0.105
-0.105
-0.105
-0.1
-0.08
-0.08
-0.065
-0.06
-0.05
-0.05
-0.05
-0.05
-0.04
-0.025
-0.015
-0.005
0.015
0.015
0.02
0.045
0.04
0.035
0.03
0.035
0.015
0.01
0.0
0.0
0.015
0.005
0.02
0.0
-0.01
-0.02
-0.04
-0.065
-0.095
-0.135
-0.19
-0.27
-0.37
-0.495
-0.655
-0.85
-1.03
-1.205
-1.345
-1.48
-1.585
-1.67
-1.74
-1.795
-1.825
-1.85
-1.855
-1.85
-1.84
-1.815
-1.79
-1.745
-1.685
-1.615
-1.53
-1.425
-1.295
-1.17
-1.045
-0.93
-0.83
-0.765
-0.7
-0.67
-0.64
-0.595
-0.505
-0.395
-0.265
-0.155
-0.07
-0.01
0.02
0.045
0.055
0.055
0.065
0.08
0.09
0.115
0.13
0.13
0.145
0.165
0.18
0.19
0.2
0.22
0.225
0.24
0.26
0.27
0.29
0.305
0.335
0.355
0.37
0.375
0.395
0.415
0.435
0.455
0.48
0.5
0.52
0.535
0.55
0.565
0.585
0.605
0.62
0.63
0.64
0.64
0.65
0.64
0.65
0.65
0.66
0.66
0.65
0.64
0.64
0.62
0.595
0.56
0.53
0.485
0.47
0.45
0.43
0.41
0.38
0.345
0.31
0.265
0.235
0.185
0.155
0.12
0.11
0.085
0.08
0.065
0.045
0.025
0.01
-0.025
-0.035
-0.055
-0.055
-0.04
-0.015
0.015
0.045
0.055
0.015
-0.075
-0.23
-0.425
-0.615
-0.81
-0.97
-1.1
-1.21
-1.28
-1.35
-1.395
-1.425
-1.42
-1.425
-1.425
-1.415
-1.4
-1.375
-1.34
-1.295
-1.235
-1.195
-1.155
-1.1
-1.055
-0.99
-0.955
-0.92
-0.895
-0.875
-0.855
-0.835
-0.81
-0.775
-0.75
-0.73
-0.68
-0.645
-0.62
-0.59
-0.54
-0.46
-0.36
-0.26
-0.175
-0.105
-0.065
-0.05
-0.035
-0.03
-0.02
-0.005
0.015
0.035
0.065
0.085
0.105
0.115
0.125
0.135
0.14
0.15
0.16
0.175
0.185
0.2
0.215
0.23
0.255
0.27
0.28
0.285
0.305
0.315
0.335
0.34
0.34
0.35
0.365
0.375
0.39
0.405
0.42
0.43
0.45
0.455
0.46
0.45
0.44
0.435
0.42
0.41
0.405
0.4
0.385
0.375
0.36
0.325
0.295
0.285
0.245
0.235
0.21
0.2
0.18
0.17
0.145
0.08
-0.04
-0.195
-0.405
-0.635
-0.835
-1.005
-1.125
-1.215
-1.29
-1.335
-1.39
-1.425
-1.445
-1.45
-1.44
-1.43
-1.38
-1.325
-1.255
-1.185
-1.11
-1.035
-0.97
-0.915
-0.88
-0.85
-0.815
-0.8
-0.78
-0.765
-0.735
-0.71
-0.66
-0.615
-0.55
-0.465
-0.365
-0.27
-0.185
-0.125
-0.09
-0.08
-0.08
-0.08
-0.07
-0.06
-0.04
-0.015
0.005
0.015
0.02
0.03
0.035
0.03
0.05
0.065
0.075
0.1
0.12
0.135
0.16
0.175
0.195
0.19
0.21
0.21
0.23
0.245
0.26
0.285
0.315
0.33
0.35
0.365
0.38
0.41
0.435
0.435
0.46
0.455
0.465
0.46
0.445
0.44
0.43
0.405
0.385
0.36
0.325
0.31
0.29
0.25
0.23
0.195
0.15
0.12
0.085
0.055
0.02
0.005
-0.02
-0.03
-0.025
-0.025
-0.01
0.005
0.0
-0.02
-0.08
-0.205
-0.355
-0.56
-0.74
-0.9
-1.03
-1.135
-1.235
-1.295
-1.355
-1.395
-1.43
-1.435
-1.435
-1.4
-1.37
-1.305
-1.25
-1.175
-1.095
-1.01
-0.945
-0.9
-0.84
-0.775
-0.695
-0.605
-0.52
-0.43
-0.355
-0.305
-0.275
-0.255
-0.245
-0.25
-0.245
-0.245
-0.24
-0.225
-0.205
-0.2
-0.195
-0.185
-0.18
-0.16
-0.145
-0.14
-0.12
-0.1
-0.1
-0.09
-0.09
-0.085
-0.085
-0.08
-0.065
-0.04
-0.02
0.005
0.01
0.01
0.025
0.015
0.015
0.025
0.04
0.065
0.075
0.09
0.11
0.13
0.14
0.15
0.155
0.15
0.16
0.16
0.165
0.18
0.195
0.205
0.215
0.21
0.205
0.19
0.165
0.145
0.12
0.09
0.08
0.065
0.055
0.05
0.03
0.005
-0.02
-0.035
-0.06
-0.08
-0.1
-0.105
-0.13
-0.13
-0.14
-0.165
-0.2
-0.275
-0.39
-0.545
-0.74
-0.93
-1.11
-1.275
-1.39
-1.485
-1.555
-1.61
-1.635
-1.67
-1.68
-1.685
-1.67
-1.65
-1.595
-1.53
-1.465
-1.385
-1.315
-1.235
-1.175
-1.1
-1.045
-0.995
-0.955
-0.925
-0.89
-0.87
-0.85
-0.815
-0.78
-0.745
-0.705
-0.66
-0.605
-0.545
-0.47
-0.375
-0.3
-0.215
-0.165
-0.125
-0.105
-0.095
-0.08
-0.06
-0.035
-0.02
-0.015
0.0
0.005
0.03
0.035
0.05
0.065
0.08
0.105
0.115
0.115
0.12
0.135
0.16
0.175
0.18
0.2
0.22
0.225
0.26
0.285
0.305
0.325
0.33
0.35
0.36
0.38
0.39
0.42
0.435
0.455
0.475
0.49
0.505
0.51
0.505
0.51
0.49
0.485
0.47
0.46
0.44
0.425
0.385
0.325
0.215
0.075
-0.13
-0.35
-0.57
-0.755
-0.895
-1.01
-1.1
-1.16
-1.215
-1.255
-1.28
-1.285
-1.25
-1.22
-1.17
-1.12
-1.07
-1.015
-0.965
-0.915
-0.865
-0.82
-0.79
-0.77
-0.76
-0.755
-0.75
-0.745
-0.74
-0.73
-0.71
-0.67
-0.65
-0.605
-0.545
-0.465
-0.375
-0.31
-0.23
-0.19
-0.16
-0.14
-0.115
-0.11
-0.085
-0.065
-0.05
-0.03
-0.025
-0.02
-0.02
-0.01
-0.015
-0.005
0.01
0.035
0.05
0.075
0.09
0.105
0.11
0.115
0.13
0.13
0.14
0.15
0.16
0.17
0.18
0.205
0.22
0.225
0.23
0.23
0.225
0.22
0.22
0.22
0.22
0.22
0.21
0.195
0.185
0.165
0.14
0.115
0.085
0.06
0.03
0.005
-0.005
-0.02
-0.025
-0.03
-0.04
-0.04
-0.055
-0.065
-0.065
-0.07
-0.07
-0.095
-0.145
-0.23
-0.35
-0.515
-0.705
-0.88
-1.035
-1.17
-1.26
-1.33
-1.385
-1.415
-1.425
-1.405
-1.385
-1.365
-1.35
-1.335
-1.3
-1.275
-1.25
-1.205
-1.155
-1.1
-1.03
-0.965
-0.915
-0.885
-0.85
-0.825
-0.81
-0.79
-0.785
-0.76
-0.74
-0.715
-0.68
-0.64
-0.595
-0.53
-0.46
-0.37
-0.28
-0.2
-0.14
-0.095
-0.08
-0.06
-0.045
-0.03
-0.01
0.01
0.025
0.045
0.05
0.065
0.08
0.09
0.105
0.11
0.13
0.15
0.165
0.185
0.2
0.225
0.235
0.25
0.255
0.265
0.285
0.295
0.32
0.35
0.37
0.38
0.405
0.43
0.43
0.45
0.45
0.46
0.465
0.47
0.485
0.48
0.5
0.49
0.49
0.48
0.47
0.455
0.43
0.405
0.38
0.37
0.355
0.355
0.345
0.33
0.31
0.305
0.275
0.255
0.235
0.21
0.19
0.17
0.145
0.12
0.09
0.03
-0.065
-0.175
-0.335
-0.505
-0.67
-0.835
-0.96
-1.07
-1.15
-1.21
-1.255
-1.3
-1.33
-1.355
-1.37
-1.38
-1.36
-1.355
-1.335
-1.315
-1.27
-1.215
-1.15
-1.09
-1.03
-0.97
-0.95
-0.905
-0.88
-0.87
-0.845
-0.83
-0.79
-0.775
-0.74
-0.695
-0.625
-0.54
-0.455
-0.38
-0.305
-0.245
-0.21
-0.175
-0.145
-0.13
-0.12
-0.11
-0.095
-0.085
-0.08
-0.075
-0.07
-0.065
-0.065
-0.05
-0.035
-0.015
0.0
0.015
0.025
0.03
0.03
0.03
0.055
0.055
0.07
0.075
0.1
0.105
0.11
0.135
0.145
0.165
0.17
0.17
0.18
0.185
0.19
0.195
0.2
0.215
0.215
0.23
0.23
0.23
0.235
0.215
0.19
0.185
0.165
0.15
0.14
0.125
0.115
0.1
0.095
0.075
0.05
0.03
0.02
0.0
-0.015
-0.04
-0.055
-0.08
-0.135
-0.245
-0.395
-0.595
-0.79
-0.985
-1.135
-1.25
-1.33
-1.395
-1.435
-1.455
-1.45
-1.445
-1.435
-1.415
-1.39
-1.375
-1.355
-1.315
-1.275
-1.22
-1.155
-1.08
-1.03
-0.985
-0.95
-0.915
-0.89
-0.875
-0.85
-0.84
-0.81
-0.775
-0.735
-0.7
-0.63
-0.565
-0.475
-0.375
-0.27
-0.2
-0.15
-0.105
-0.085
-0.085
-0.075
-0.06
-0.045
-0.015
-0.005
0.02
0.02
0.03
0.025
0.045
0.06
0.07
0.11
0.125
0.145
0.17
0.185
0.205
0.215
0.23
0.235
0.24
0.26
0.275
0.285
0.315
0.345
0.355
0.375
0.405
0.415
0.415
0.41
0.41
0.415
0.405
0.425
0.42
0.42
0.42
0.415
0.4
0.385
0.365
0.335
0.315
0.295
0.275
0.265
0.24
0.23
0.215
0.185
0.17
0.14
0.115
0.085
0.055
0.03
0.005
-0.01
-0.02
-0.04
-0.04
-0.055
-0.075
-0.08
-0.105
-0.115
-0.135
-0.14
-0.18
-0.175
-0.19
-0.19
-0.195
-0.2
-0.18
-0.19
-0.21
-0.22
-0.245
-0.255
-0.285
-0.29
-0.31
-0.31
-0.31
-0.32
-0.33
-0.36
-0.36
-0.37
-0.395
-0.405
-0.43
-0.43
-0.445
-0.45
-0.44
-0.45
-0.45
-0.45
-0.465
-0.46
-0.465
-0.465
-0.48
-0.48
-0.465
-0.475
-0.465
-0.46
-0.465
-0.46
-0.47
-0.48
-0.49
-0.495
-0.49
-0.485
-0.48
-0.465
-0.46
-0.46
-0.455
-0.465
-0.47
-0.49
-0.51
-0.515
-0.495
-0.44
-0.375
-0.25
-0.12
0.05
0.24
0.415
0.57
0.645
0.61
0.455
0.215
-0.06
-0.295
-0.465
-0.525
-0.525
-0.47
-0.42
-0.385
-0.38
-0.39
-0.41
-0.44
-0.46
-0.45
-0.465
-0.465
-0.455
-0.455
-0.46
-0.475
-0.48
-0.49
-0.485
-0.485
-0.485
-0.47
-0.475
-0.475
-0.48
-0.48
-0.48
-0.48
-0.48
-0.49
-0.49
-0.495
-0.49
-0.49
-0.49
-0.465
-0.485
-0.485
-0.49
-0.5
-0.505
-0.505
-0.51
-0.52
-0.52
-0.515
-0.505
-0.505
-0.495
-0.495
-0.5
-0.5
-0.51
-0.525
-0.525
-0.54
-0.535
-0.52
-0.51
-0.51
-0.505
-0.51
-0.51
-0.51
-0.52
-0.515
-0.515
-0.515
-0.505
-0.505
-0.49
-0.48
-0.48
-0.47
-0.47
-0.47
-0.47
-0.465
-0.465
-0.465
-0.455
-0.435
-0.425
-0.395
-0.395
-0.38
-0.38
-0.38
-0.38
-0.38
-0.385
-0.38
-0.355
-0.335
-0.33
-0.32
-0.32
-0.315
-0.34
-0.33
-0.34
-0.345
-0.35
-0.355
-0.355
-0.35
-0.355
-0.36
-0.365
-0.37
-0.39
-0.395
-0.405
-0.41
-0.42
-0.425
-0.425
-0.425
-0.43
-0.43
-0.43
-0.42
-0.42
-0.44
-0.44
-0.455
-0.465
-0.465
-0.475
-0.465
-0.445
-0.435
-0.43
-0.42
-0.425
-0.445
-0.455
-0.47
-0.47
-0.475
-0.47
-0.46
-0.445
-0.44
-0.44
-0.43
-0.425
-0.43
-0.425
-0.435
-0.435
-0.43
-0.43
-0.425
-0.41
-0.395
-0.385
-0.38
-0.375
-0.36
-0.355
-0.35
-0.365
-0.375
-0.39
-0.4
-0.41
-0.4
-0.405
-0.405
-0.39
-0.395
-0.41
-0.42
-0.42
-0.43
-0.43
-0.435
-0.435
-0.435
-0.45
-0.455
-0.455
-0.475
-0.475
-0.485
-0.49
-0.495
-0.49
-0.475
-0.48
-0.47
-0.465
-0.465
-0.455
-0.455
-0.445
-0.465
-0.455
-0.47
-0.5
-0.515
-0.53
-0.505
-0.455
-0.37
-0.245
-0.1
0.09
0.305
0.53
0.735
0.845
0.835
0.685
0.43
0.125
-0.17
-0.375
-0.5
-0.52
-0.49
-0.445
-0.41
-0.39
-0.37
-0.36
-0.35
-0.36
-0.375
-0.38
-0.395
-0.405
-0.41
-0.42
-0.425
-0.43
-0.42
-0.42
-0.42
-0.415
-0.415
-0.41
-0.425
-0.435
-0.45
-0.44
-0.445
-0.42
-0.42
-0.425
-0.415
-0.425
-0.42
-0.42
-0.41
-0.42
-0.425
-0.415
-0.415
-0.415
-0.405
-0.4
-0.39
-0.395
-0.395
-0.4
-0.41
-0.425
-0.425
-0.43
-0.42
-0.42
-0.405
-0.395
-0.395
-0.385
-0.38
-0.385
-0.38
-0.39
-0.395
-0.395
-0.4
-0.39
-0.365
-0.36
-0.34
-0.325
-0.32
-0.32
-0.325
-0.325
-0.325
-0.31
-0.315
-0.31
-0.285
-0.285
-0.265
-0.265
-0.24
-0.23
-0.225
-0.22
-0.225
-0.22
-0.225
-0.22
-0.21
-0.205
-0.185
-0.165
-0.155
-0.155
-0.16
-0.17
-0.18
-0.195
-0.195
-0.205
-0.215
-0.23
-0.23
-0.24
-0.245
-0.25
-0.25
-0.255
-0.275
-0.285
-0.29
-0.3
-0.305
-0.31
-0.315
-0.305
-0.32
-0.325
-0.34
-0.355
-0.37
-0.38
-0.385
-0.38
-0.37
-0.36
-0.345
-0.34
-0.345
-0.345
-0.35
-0.36
-0.37
-0.38
-0.38
-0.385
-0.39
-0.39
-0.385
-0.38
-0.385
-0.385
-0.38
-0.385
-0.39
-0.395
-0.415
-0.42
-0.415
-0.41
-0.405
-0.41
-0.39
-0.375
-0.38
-0.375
-0.385
-0.4
-0.41
-0.405
-0.395
-0.365
-0.355
-0.345
-0.345
-0.355
-0.34
-0.345
-0.35
-0.35
-0.345
-0.33
-0.31
-0.3
-0.3
-0.31
-0.31
-0.315
-0.335
-0.355
-0.36
-0.375
-0.38
-0.38
-0.365
-0.36
-0.335
-0.345
-0.345
-0.36
-0.375
-0.39
-0.41
-0.43
-0.45
-0.465
-0.45
-0.435
-0.43
-0.415
-0.41
-0.41
-0.425
-0.42
-0.43
-0.43
-0.425
-0.43
-0.415
-0.41
-0.41
-0.425
-0.445
-0.47
-0.495
-0.475
-0.42
-0.32
-0.175
0.01
0.235
0.47
0.7
0.88
0.965
0.9
0.68
0.365
0.03
-0.265
-0.455
-0.545
-0.53
-0.465
-0.4
-0.35
-0.335
-0.335
-0.345
-0.35
-0.37
-0.39
-0.41
-0.405
-0.395
-0.38
-0.37
-0.375
-0.375
-0.38
-0.375
-0.39
-0.4
-0.395
-0.405
-0.41
-0.4
-0.39
-0.39
-0.37
-0.37
-0.37
-0.385
-0.395
-0.39
-0.4
-0.395
-0.385
-0.39
-0.38
-0.38
-0.37
-0.37
-0.385
-0.39
-0.39
-0.4
-0.385
-0.395
-0.385
-0.385
-0.38
-0.38
-0.38
-0.375
-0.38
-0.38
-0.385
-0.4
-0.4
-0.405
-0.395
-0.39
-0.385
-0.375
-0.375
-0.37
-0.375
-0.38
-0.38
-0.39
-0.39
-0.385
-0.375
-0.36
-0.355
-0.34
-0.325
-0.325
-0.305
-0.305
-0.3
-0.3
-0.295
-0.295
-0.295
-0.29
-0.28
-0.26
-0.25
-0.245
-0.235
-0.24
-0.25
-0.26
-0.28
-0.265
-0.25
-0.25
-0.245
-0.25
-0.26
-0.255
-0.26
-0.275
-0.285
-0.295
-0.31
-0.315
-0.305
-0.32
-0.315
-0.31
-0.31
-0.31
-0.305
-0.33
-0.335
-0.345
-0.35
-0.345
-0.34
-0.34
-0.345
-0.335
-0.33
-0.35
-0.35
-0.345
-0.355
-0.36
-0.365
-0.37
-0.36
-0.365
-0.36
-0.345
-0.35
-0.345
-0.35
-0.35
-0.36
-0.37
-0.375
-0.38
-0.37
-0.375
-0.36
-0.36
-0.355
-0.345
-0.35
-0.355
-0.355
-0.36
-0.345
-0.35
-0.335
-0.33
-0.315
-0.31
-0.31
-0.305
-0.305
-0.295
-0.28
-0.285
-0.285
-0.295
-0.3
-0.31
-0.31
-0.31
-0.32
-0.325
-0.325
-0.32
-0.335
-0.34
-0.355
-0.365
-0.37
-0.375
-0.375
-0.38
-0.385
-0.4
-0.405
-0.41
-0.425
-0.425
-0.425
-0.415
-0.41
-0.405
-0.4
-0.385
-0.385
-0.385
-0.38
-0.385
-0.39
-0.405
-0.405
-0.425
-0.44
-0.455
-0.465
-0.44
-0.385
-0.285
-0.14
0.02
0.21
0.425
0.63
0.79
0.86
0.795
0.59
0.295
-0.035
-0.295
-0.47
-0.51
-0.465
-0.395
-0.335
-0.295
-0.27
-0.265
-0.285
-0.31
-0.335
-0.35
-0.36
-0.37
-0.375
-0.38
-0.385
-0.39
-0.395
-0.385
-0.385
-0.385
-0.375
-0.36
-0.37
-0.375
-0.385
-0.38
-0.4
-0.395
-0.385
-0.39
-0.375
-0.375
-0.365
-0.36
-0.365
-0.365
-0.38
-0.38
-0.375
-0.375
-0.38
-0.375
-0.36
-0.35
-0.35
-0.35
-0.355
-0.36
-0.37
-0.38
-0.37
-0.375
-0.36
-0.365
-0.36
-0.365
-0.355
-0.36
-0.35
-0.36
-0.36
-0.37
-0.365
-0.38
-0.38
-0.385
-0.37
-0.36
-0.36
-0.36
-0.36
-0.365
-0.37
-0.375
-0.365
-0.365
-0.365
-0.35
-0.345
-0.33
-0.33
-0.32
-0.31
-0.31
-0.305
-0.31
-0.3
-0.305
-0.295
-0.28
-0.265
-0.245
-0.23
-0.225
-0.215
-0.22
-0.23
-0.24
-0.245
-0.265
-0.255
-0.255
-0.26
-0.25
-0.255
-0.26
-0.245
-0.265
-0.275
-0.29
-0.295
-0.315
-0.315
-0.32
-0.32
-0.305
-0.315
-0.31
-0.32
-0.315
-0.325
-0.34
-0.35
-0.35
-0.355
-0.335
-0.34
-0.33
-0.33
-0.33
-0.33
-0.33
-0.345
-0.36
-0.35
-0.375
-0.37
-0.37
-0.37
-0.36
-0.355
-0.35
-0.35
-0.355
-0.37
-0.37
-0.375
-0.37
-0.37
-0.365
-0.365
-0.36
-0.355
-0.35
-0.35
-0.345
-0.34
-0.345
-0.33
-0.325
-0.315
-0.305
-0.3
-0.295
-0.29
-0.285
-0.275
-0.26
-0.25
-0.265
-0.26
-0.295
-0.305
-0.32
-0.325
-0.325
-0.315
-0.32
-0.325
-0.33
-0.35
-0.36
-0.375
-0.385
-0.39
-0.4
-0.4
-0.395
-0.405
-0.405
-0.41
-0.41
-0.415
-0.42
-0.425
-0.425
-0.42
-0.41
-0.405
-0.4
-0.385
-0.38
-0.375
-0.39
-0.41
-0.435
-0.47
-0.48
-0.44
-0.365
-0.255
-0.09
0.12
0.335
0.58
0.765
0.865
0.835
0.63
0.325
-0.005
-0.295
-0.47
-0.51
-0.465
-0.38
-0.315
-0.275
-0.265
-0.28
-0.315
-0.35
-0.365
-0.365
-0.355
-0.345
-0.34
-0.34
-0.345
-0.35
-0.355
-0.36
-0.365
-0.36
-0.355
-0.365
-0.36
-0.365
-0.35
-0.365
-0.36
-0.355
-0.37
-0.37
-0.36
-0.355
-0.35
-0.355
-0.36
-0.355
-0.345
-0.35
-0.34
-0.345
-0.35
-0.35
-0.36
-0.365
-0.36
-0.35
-0.34
-0.34
-0.34
-0.335
-0.35
-0.35
-0.35
-0.36
-0.365
-0.365
-0.365
-0.365
-0.355
-0.335
-0.34
-0.34
-0.335
-0.35
-0.35
-0.375
-0.36
-0.36
-0.37
-0.35
-0.355
-0.35
-0.335
-0.33
-0.33
-0.325
-0.34
-0.325
-0.315
-0.315
-0.3
-0.285
-0.26
-0.245
-0.225
-0.22
-0.21
-0.215
-0.215
-0.23
-0.215
-0.215
-0.2
-0.19
-0.185
-0.185
-0.19
-0.2
-0.21
-0.215
-0.235
-0.24
-0.245
-0.26
-0.26
-0.25
-0.245
-0.245
-0.25
-0.27
-0.28
-0.29
-0.295
-0.305
-0.315
-0.315
-0.32
-0.315
-0.315
-0.32
-0.32
-0.31
-0.315
-0.315
-0.32
-0.325
-0.33
-0.345
-0.335
-0.345
-0.345
-0.325
-0.32
-0.325
-0.31
-0.32
-0.34
-0.35
-0.355
-0.345
-0.35
-0.345
-0.345
-0.35
-0.35
-0.345
-0.34
-0.34
-0.34
-0.345
-0.355
-0.365
-0.36
-0.35
-0.35
-0.34
-0.325
-0.325
-0.32
-0.31
-0.315
-0.315
-0.3
-0.3
-0.3
-0.295
-0.29
-0.28
-0.255
-0.235
-0.225
-0.235
-0.23
-0.255
-0.27
-0.29
-0.3
-0.285
-0.275
-0.28
-0.275
-0.28
-0.295
-0.305
-0.31
-0.32
-0.355
-0.38
-0.395
-0.405
-0.405
-0.39
-0.37
-0.37
-0.37
-0.385
-0.39
-0.4
-0.395
-0.395
-0.39
-0.38
-0.365
-0.365
-0.36
-0.37
-0.385
-0.415
-0.435
-0.45
-0.425
-0.385
-0.275
-0.13
0.055
0.275
0.51
0.725
0.88
0.925
0.82
0.58
0.255
-0.06
-0.31
-0.46
-0.485
-0.43
-0.37
-0.305
-0.265
-0.26
-0.265
-0.285
-0.315
-0.33
-0.345
-0.345
-0.34
-0.335
-0.32
-0.325
-0.33
-0.34
-0.35
-0.36
-0.345
-0.355
-0.345
-0.345
-0.345
-0.35
-0.34
-0.33
-0.325
-0.32
-0.33
-0.33
-0.33
-0.34
-0.35
-0.33
-0.325
-0.335
-0.325
-0.33
-0.34
-0.34
-0.34
-0.345
-0.345
-0.345
-0.345
-0.335
-0.335
-0.33
-0.32
-0.315
-0.31
-0.33
-0.335
-0.335
-0.34
-0.33
-0.32
-0.32
-0.315
-0.33
-0.325
-0.33
-0.345
-0.34
-0.34
-0.345
-0.34
-0.35
-0.355
-0.35
-0.345
-0.34
-0.335
-0.33
-0.33
-0.325
-0.32
-0.32
-0.315
-0.315
-0.315
-0.295
-0.285
-0.275
-0.255
-0.23
-0.22
-0.215
-0.215
-0.22
-0.215
-0.215
-0.215
-0.2
-0.175
-0.18
-0.18
-0.18
-0.175
-0.195
-0.205
-0.21
-0.21
-0.22
-0.23
-0.235
-0.225
-0.235
-0.235
-0.255
-0.255
-0.25
-0.255
-0.28
-0.285
-0.295
-0.3
-0.29
-0.285
-0.3
-0.295
-0.295
-0.3
-0.295
-0.295
-0.305
-0.315
-0.33
-0.33
-0.335
-0.325
-0.325
-0.315
-0.325
-0.32
-0.33
-0.33
-0.335
-0.34
-0.35
-0.345
-0.36
-0.355
-0.35
-0.34
-0.335
-0.34
-0.355
-0.36
-0.365
-0.365
-0.355
-0.36
-0.36
-0.355
-0.355
-0.35
-0.335
-0.325
-0.31
-0.315
-0.31
-0.315
-0.325
-0.31
-0.29
