Lead II
0.285
0.225
0.15
0.1
0.075
0.045
0.005
-0.06
-0.105
-0.145
-0.175
-0.2
-0.225
-0.265
-0.305
-0.335
-0.345
-0.355
-0.38
-0.415
-0.435
-0.445
-0.445
-0.455
-0.46
-0.47
-0.5
-0.51
-0.505
-0.515
-0.51
-0.51
-0.53
-0.53
-0.535
-0.52
-0.515
-0.515
-0.535
-0.54
-0.525
-0.495
-0.49
-0.51
-0.53
-0.52
-0.525
-0.505
-0.51
-0.495
-0.505
-0.515
-0.49
-0.485
-0.485
-0.495
-0.49
-0.485
-0.455
-0.44
-0.445
-0.44
-0.445
-0.425
-0.405
-0.38
-0.36
-0.36
-0.355
-0.345
-0.325
-0.28
-0.23
-0.23
-0.23
-0.2
-0.17
-0.14
-0.105
-0.09
-0.09
-0.1
-0.115
-0.13
-0.155
-0.165
-0.17
-0.16
-0.16
-0.145
-0.15
-0.175
-0.205
-0.205
-0.215
-0.23
-0.255
-0.265
-0.3
-0.345
-0.355
-0.355
-0.37
-0.39
-0.415
-0.435
-0.425
-0.43
-0.44
-0.45
-0.465
-0.475
-0.47
-0.485
-0.505
-0.52
-0.525
-0.525
-0.5
-0.495
-0.485
-0.5
-0.52
-0.51
-0.505
-0.51
-0.5
-0.505
-0.505
-0.515
-0.49
-0.485
-0.49
-0.485
-0.5
-0.495
-0.49
-0.465
-0.445
-0.46
-0.49
-0.49
-0.485
-0.465
-0.455
-0.475
-0.475
-0.465
-0.435
-0.42
-0.4
-0.41
-0.41
-0.395
-0.345
-0.265
-0.17
0.03
0.46
1.095
1.73
2.08
2.025
1.825
1.68
1.61
1.545
1.46
1.33
1.21
1.095
1.015
0.945
0.845
0.71
0.57
0.435
0.3
0.155
0.02
-0.13
-0.3
-0.475
-0.65
-0.795
-0.925
-1.045
-1.18
-1.33
-1.425
-1.495
-1.55
-1.605
-1.665
-1.715
-1.76
-1.815
-1.87
-1.935
-2.015
-2.08
-2.145
-2.205
-2.235
-2.21
-2.17
-2.095
-2.01
-1.86
-1.7
-1.56
-1.455
-1.405
-1.345
-1.285
-1.23
-1.18
-1.15
-1.105
-1.065
-1.04
-1.005
-0.975
-0.955
-0.885
-0.815
-0.75
-0.69
-0.635
-0.585
-0.54
-0.485
-0.42
-0.345
-0.275
-0.2
-0.135
-0.075
-0.01
0.055
0.11
0.145
0.145
0.16
0.195
0.215
0.235
0.245
0.25
0.28
0.305
0.33
0.355
0.37
0.38
0.395
0.44
0.46
0.485
0.495
0.505
0.525
0.565
0.605
0.62
0.65
0.67
0.71
0.745
0.77
0.795
0.815
0.825
0.87
0.905
0.935
0.965
0.97
0.98
1.005
1.025
1.04
1.06
1.075
1.07
1.08
1.09
1.105
1.11
1.105
1.085
1.09
1.095
1.1
1.07
1.05
1.025
1.015
1.01
0.995
0.965
0.935
0.9
0.875
0.855
0.815
0.775
0.745
0.695
0.65
0.61
0.57
0.53
0.475
0.425
0.375
0.36
0.34
0.29
0.25
0.215
0.185
0.16
0.155
0.13
0.115
0.095
0.1
0.12
0.145
0.155
0.15
0.16
0.165
0.185
0.205
0.2
0.22
0.2
0.17
0.135
0.09
0.075
0.065
0.05
0.06
0.065
0.055
0.045
0.01
0.01
0.015
0.01
0.0
-0.04
-0.07
-0.11
-0.135
-0.13
-0.13
-0.155
-0.195
-0.24
-0.245
-0.265
-0.26
-0.28
-0.29
-0.315
-0.32
-0.32
-0.305
-0.32
-0.33
-0.35
-0.35
-0.36
-0.37
-0.355
-0.345
-0.355
-0.35
-0.355
-0.335
-0.335
-0.355
-0.37
-0.36
-0.35
-0.355
-0.36
-0.385
-0.39
-0.37
-0.36
-0.35
-0.365
-0.365
-0.375
-0.36
-0.365
-0.365
-0.365
-0.355
-0.375
-0.365
-0.375
-0.36
-0.37
-0.39
-0.4
-0.39
-0.375
-0.36
-0.355
-0.355
-0.36
-0.365
-0.365
-0.36
-0.375
-0.385
-0.38
-0.37
-0.365
-0.355
-0.365
-0.365
-0.38
-0.36
-0.355
-0.335
-0.335
-0.345
-0.37
-0.37
-0.35
-0.345
-0.345
-0.345
-0.345
-0.34
-0.33
-0.32
-0.325
-0.34
-0.35
-0.345
-0.31
-0.295
-0.3
-0.32
-0.33
-0.32
-0.305
-0.295
-0.28
-0.285
-0.275
-0.28
-0.27
-0.255
-0.26
-0.265
-0.265
-0.24
-0.195
-0.175
-0.17
-0.16
-0.105
0.05
0.35
0.87
1.505
1.97
2.075
1.97
1.82
1.76
1.705
1.64
1.525
1.435
1.34
1.245
1.135
1.05
0.935
0.825
0.685
0.55
0.37
0.205
0.06
-0.085
-0.225
-0.385
-0.57
-0.77
-0.98
-1.155
-1.295
-1.435
-1.565
-1.66
-1.755
-1.82
-1.855
-1.885
-1.925
-1.95
-2.005
-2.065
-2.135
-2.19
-2.245
-2.305
-2.375
-2.395
-2.38
-2.305
-2.2
-2.075
-1.935
-1.77
-1.595
-1.45
-1.33
-1.255
-1.215
-1.145
-1.08
-1.0
-0.965
-0.915
-0.9
-0.88
-0.835
-0.8
-0.76
-0.705
-0.67
-0.59
-0.535
-0.445
-0.395
-0.33
-0.28
-0.22
-0.15
-0.075
-0.005
0.055
0.12
0.195
0.27
0.335
0.375
0.4
0.415
0.43
0.455
0.495
0.5
0.515
0.52
0.545
0.565
0.58
0.6
0.615
0.63
0.65
0.675
0.7
0.73
0.745
0.765
0.785
0.825
0.855
0.885
0.905
0.93
0.96
1.005
1.055
1.08
1.105
1.135
1.175
1.225
1.285
1.33
1.37
1.405
1.46
1.52
1.565
1.6
1.62
1.62
1.655
1.685
1.71
1.725
1.715
1.69
1.66
1.645
1.635
1.62
1.595
1.565
1.55
1.55
1.535
1.515
1.485
1.415
1.385
1.345
1.3
1.24
1.185
1.1
1.055
1.015
0.94
0.875
0.795
0.7
0.645
0.59
0.525
0.475
0.42
0.355
0.31
0.25
0.21
0.155
0.09
0.04
0.02
-0.005
-0.04
-0.065
-0.09
-0.125
-0.145
-0.155
-0.165
-0.19
-0.205
-0.25
-0.25
-0.26
-0.27
-0.295
-0.295
-0.31
-0.3
-0.3
-0.285
-0.305
-0.315
-0.335
-0.33
-0.32
-0.305
-0.315
-0.335
-0.335
-0.325
-0.325
-0.31
-0.33
-0.33
-0.34
-0.34
-0.35
-0.345
-0.34
-0.325
-0.33
-0.34
-0.33
-0.335
-0.335
-0.335
-0.335
-0.32
-0.32
-0.3
-0.31
-0.335
-0.34
-0.33
-0.31
-0.295
-0.29
-0.305
-0.31
-0.315
-0.305
-0.3
-0.29
-0.315
-0.33
-0.3
-0.29
-0.285
-0.29
-0.31
-0.325
-0.325
-0.305
-0.29
-0.3
-0.305
-0.32
-0.315
-0.315
-0.295
-0.29
-0.295
-0.31
-0.31
-0.3
-0.295
-0.305
-0.295
-0.305
-0.295
-0.29
-0.28
-0.29
-0.3
-0.31
-0.3
-0.29
-0.265
-0.285
-0.285
-0.285
-0.275
-0.28
-0.285
-0.28
-0.29
-0.29
-0.28
-0.26
-0.255
-0.265
-0.275
-0.28
-0.275
-0.26
-0.24
-0.245
-0.245
-0.255
-0.26
-0.265
-0.245
-0.24
-0.245
-0.26
-0.26
-0.235
-0.22
-0.215
-0.225
-0.255
-0.24
-0.235
-0.22
-0.195
-0.225
-0.23
-0.23
-0.21
-0.2
-0.195
-0.19
-0.195
-0.155
-0.125
-0.11
-0.06
-0.01
0.145
0.51
1.08
1.685
2.075
2.105
1.965
1.83
1.765
1.725
1.635
1.54
1.415
1.315
1.215
1.115
0.99
0.87
0.735
0.6
0.465
0.32
0.15
-0.01
-0.19
-0.39
-0.57
-0.785
-0.995
-1.195
-1.365
-1.52
-1.655
-1.76
-1.845
-1.92
-1.97
-2.015
-2.03
-2.035
-2.07
-2.15
-2.25
-2.325
-2.38
-2.425
-2.475
-2.49
-2.475
-2.385
-2.225
-2.045
-1.87
-1.69
-1.54
-1.37
-1.255
-1.14
-1.065
-1.01
-0.96
-0.89
-0.82
-0.765
-0.74
-0.705
-0.66
-0.58
-0.47
-0.355
-0.265
-0.18
-0.12
-0.03
0.045
0.125
0.205
0.32
0.425
0.535
0.605
0.64
0.67
0.68
0.69
0.725
0.76
0.8
0.8
0.79
0.785
0.795
0.82
0.845
0.85
0.84
0.83
0.825
0.84
0.85
0.85
0.865
0.855
0.855
0.87
0.9
0.925
0.93
0.935
0.96
1.01
1.045
1.075
1.085
1.08
1.115
1.155
1.195
1.21
1.21
1.2
1.215
1.25
1.28
1.275
1.275
1.28
1.295
1.285
1.28
1.27
1.275
1.245
1.235
1.225
1.21
1.18
1.14
1.11
1.085
1.08
1.045
1.01
0.945
0.89
0.85
0.82
0.79
0.74
0.68
0.615
0.575
0.535
0.495
0.445
0.395
0.32
0.285
0.255
0.23
0.18
0.13
0.075
0.035
0.015
0.005
-0.02
-0.055
-0.1
-0.115
-0.115
-0.11
-0.13
-0.17
-0.19
-0.185
-0.21
-0.195
-0.205
-0.215
-0.22
-0.225
-0.22
-0.215
-0.215
-0.225
-0.24
-0.25
-0.245
-0.25
-0.245
-0.25
-0.25
-0.245
-0.235
-0.24
-0.245
-0.25
-0.26
-0.255
-0.25
-0.24
-0.25
-0.25
-0.25
-0.24
-0.245
-0.22
-0.215
-0.215
-0.235
-0.23
-0.235
-0.235
-0.24
-0.255
-0.26
-0.25
-0.225
-0.21
-0.21
-0.235
-0.25
-0.25
-0.23
-0.21
-0.22
-0.215
-0.24
-0.25
-0.245
-0.225
-0.23
-0.235
-0.24
-0.23
-0.24
-0.245
-0.245
-0.255
-0.255
-0.24
-0.24
-0.235
-0.25
-0.265
-0.275
-0.27
-0.235
-0.22
-0.235
-0.26
-0.28
-0.27
-0.255
-0.245
-0.235
-0.255
-0.25
-0.26
-0.255
-0.255
-0.255
-0.275
-0.28
-0.265
-0.245
-0.25
-0.26
-0.265
-0.265
-0.25
-0.245
-0.24
-0.24
-0.245
-0.25
-0.245
-0.235
-0.23
-0.255
-0.28
-0.28
-0.245
-0.225
-0.215
-0.22
-0.245
-0.265
-0.255
-0.255
-0.235
-0.225
-0.22
-0.235
-0.215
-0.21
-0.18
-0.185
-0.17
-0.14
-0.075
0.065
0.41
0.975
1.6
1.95
1.99
1.86
1.75
1.68
1.625
1.55
1.465
1.39
1.3
1.205
1.125
1.06
0.975
0.87
0.785
0.645
0.52
0.385
0.26
0.11
-0.05
-0.235
-0.44
-0.645
-0.805
-0.96
-1.12
-1.29
-1.425
-1.545
-1.605
-1.67
-1.69
-1.72
-1.785
-1.89
-1.985
-2.075
-2.16
-2.265
-2.365
-2.435
-2.395
-2.25
-2.065
-1.865
-1.69
-1.58
-1.47
-1.38
-1.34
-1.315
-1.27
-1.23
-1.185
-1.135
-1.1
-1.075
-1.07
-1.05
-0.99
-0.89
-0.795
-0.71
-0.66
-0.63
-0.57
-0.515
-0.43
-0.34
-0.255
-0.19
-0.115
-0.05
0.02
0.085
0.135
0.145
0.14
0.165
0.19
0.21
0.215
0.225
0.245
0.27
0.285
0.305
0.32
0.33
0.365
0.4
0.425
0.44
0.45
0.455
0.49
0.53
0.58
0.62
0.65
0.655
0.695
0.725
0.77
0.805
0.825
0.845
0.88
0.905
0.94
0.97
0.99
1.01
1.03
1.065
1.08
1.095
1.08
1.08
1.08
1.105
1.12
1.12
1.095
1.075
1.08
1.08
1.06
1.02
1.0
0.96
0.945
0.93
0.9
0.845
0.795
0.745
0.705
0.67
0.625
0.57
0.51
0.46
0.405
0.35
0.325
0.275
0.23
0.18
0.13
0.095
0.065
0.035
0.0
-0.05
-0.08
-0.09
-0.115
-0.135
-0.155
-0.18
-0.205
-0.215
-0.23
-0.225
-0.26
-0.275
-0.285
-0.275
-0.265
-0.28
-0.28
-0.3
-0.31
-0.3
-0.31
-0.305
-0.3
-0.32
-0.325
-0.315
-0.305
-0.295
-0.305
-0.32
-0.325
-0.32
-0.3
-0.305
-0.325
-0.305
-0.3
-0.29
-0.29
-0.285
-0.3
-0.315
-0.315
-0.305
-0.285
-0.275
-0.275
-0.275
-0.27
-0.28
-0.27
-0.27
-0.27
-0.28
-0.28
-0.275
-0.275
-0.26
-0.27
-0.29
-0.285
-0.275
-0.275
-0.295
-0.295
-0.29
-0.28
-0.27
-0.285
-0.28
-0.275
-0.285
-0.295
-0.29
-0.305
-0.285
-0.285
-0.3
-0.285
-0.295
-0.285
-0.275
-0.27
-0.285
-0.295
-0.305
-0.3
-0.285
-0.295
-0.295
-0.3
-0.29
-0.265
-0.265
-0.285
-0.295
-0.275
-0.235
-0.215
-0.185
-0.175
-0.165
-0.13
-0.09
-0.05
-0.025
-0.005
-0.015
0.015
0.06
0.105
0.13
0.1
0.06
0.035
0.01
0.03
0.015
0.015
0.015
0.02
0.03
0.045
0.03
-0.005
-0.02
-0.035
-0.04
-0.05
-0.035
-0.005
0.155
0.56
1.155
1.715
1.945
1.87
1.71
1.61
1.56
1.505
1.42
1.3
1.18
1.075
0.99
0.89
0.78
0.66
0.52
0.36
0.21
0.05
-0.135
-0.335
-0.525
-0.71
-0.89
-1.08
-1.305
-1.52
-1.69
-1.835
-1.94
-2.025
-2.105
-2.18
-2.23
-2.255
-2.26
-2.32
-2.4
-2.505
-2.585
-2.66
-2.705
-2.74
-2.755
-2.71
-2.585
-2.365
-2.15
-1.935
-1.75
-1.585
-1.49
-1.395
-1.335
-1.275
-1.22
-1.175
-1.145
-1.115
-1.09
-1.075
-1.03
-0.99
-0.925
-0.85
-0.77
-0.68
-0.62
-0.565
-0.505
-0.42
-0.32
-0.23
-0.155
-0.08
-0.01
0.065
0.14
0.18
0.21
0.23
0.235
0.265
0.285
0.33
0.355
0.37
0.385
0.405
0.44
0.47
0.48
0.51
0.515
0.57
0.61
0.645
0.67
0.695
0.695
0.74
0.79
0.835
0.87
0.885
0.9
0.945
0.98
1.015
1.055
1.06
1.08
1.1
1.125
1.16
1.185
1.2
1.205
1.215
1.225
1.25
1.245
1.225
1.195
1.185
1.205
1.21
1.19
1.17
1.125
1.12
1.09
1.08
1.05
1.02
0.975
0.94
0.9
0.865
0.815
0.765
0.695
0.64
0.61
0.59
0.53
0.46
0.385
0.355
0.315
0.285
0.225
0.175
0.12
0.075
0.045
0.01
-0.02
-0.06
-0.09
-0.11
-0.135
-0.155
-0.18
-0.19
-0.235
-0.265
-0.275
-0.275
-0.26
-0.27
-0.29
-0.285
-0.285
-0.27
-0.285
-0.3
-0.31
-0.31
-0.31
-0.305
-0.31
-0.315
-0.315
-0.32
-0.3
-0.285
-0.29
-0.29
-0.325
-0.33
-0.32
-0.3
-0.295
-0.315
-0.315
-0.315
-0.29
-0.275
-0.275
-0.3
-0.305
-0.295
-0.275
-0.255
-0.25
-0.235
-0.215
-0.17
-0.15
-0.14
-0.13
-0.1
-0.09
-0.04
-0.01
0.01
0.005
0.025
0.055
0.105
0.11
0.08
0.045
0.01
0.0
0.015
0.02
0.025
0.005
-0.01
-0.025
-0.03
-0.04
-0.045
-0.065
-0.095
-0.135
-0.165
-0.16
-0.185
-0.205
-0.25
-0.28
-0.285
-0.3
-0.305
-0.33
-0.355
-0.375
-0.37
-0.355
-0.36
-0.37
-0.395
-0.42
-0.415
-0.425
-0.43
-0.43
-0.43
-0.43
-0.405
-0.405
-0.41
-0.415
-0.415
-0.405
-0.4
-0.43
-0.425
-0.43
-0.43
-0.415
-0.41
-0.405
-0.39
-0.4
-0.39
-0.39
-0.385
-0.385
-0.39
-0.38
-0.38
-0.38
-0.395
-0.37
-0.34
-0.32
-0.315
-0.31
-0.27
-0.15
0.105
0.605
1.24
1.74
1.895
1.81
1.685
1.605
1.55
1.47
1.375
1.26
1.18
1.085
1.005
0.915
0.82
0.715
0.57
0.43
0.29
0.155
0.01
-0.15
-0.32
-0.505
-0.71
-0.9
-1.035
-1.16
-1.31
-1.455
-1.59
-1.69
-1.755
-1.795
-1.825
-1.86
-1.91
-2.0
-2.095
-2.165
-2.24
-2.32
-2.4
-2.46
-2.45
-2.375
-2.285
-2.17
-2.03
-1.86
-1.68
-1.525
-1.425
-1.355
-1.295
-1.255
-1.2
-1.13
-1.065
-1.015
-0.99
-0.985
-0.97
-0.905
-0.84
-0.77
-0.705
-0.64
-0.58
-0.51
-0.455
-0.385
-0.335
-0.28
-0.21
-0.125
-0.055
0.005
0.045
0.1
0.145
0.185
0.22
0.235
0.245
0.24
0.275
0.305
0.33
0.35
0.345
0.35
0.385
0.415
0.44
0.46
0.475
0.48
0.52
0.56
0.595
0.62
0.63
0.635
0.66
0.685
0.725
0.755
0.785
0.795
0.82
0.835
0.88
0.895
0.925
0.925
0.97
0.99
1.01
1.03
1.035
1.02
1.055
1.075
1.085
1.085
1.075
1.05
1.045
1.055
1.06
1.04
1.02
0.995
0.99
0.97
0.96
0.93
0.905
0.865
0.85
0.815
0.775
0.74
0.69
0.65
0.605
0.575
0.535
0.485
0.425
0.37
0.345
0.31
0.27
0.22
0.16
0.105
0.085
0.065
0.065
0.055
0.02
-0.005
-0.02
-0.02
0.015
0.025
0.035
0.055
0.065
0.065
0.07
0.075
0.085
0.085
0.07
0.045
0.01
-0.015
-0.05
-0.065
-0.06
-0.05
-0.025
-0.025
-0.06
-0.095
-0.12
-0.125
-0.14
-0.175
-0.215
-0.24
-0.25
-0.255
-0.275
-0.31
-0.345
-0.38
-0.395
-0.4
-0.4
-0.415
-0.445
-0.45
-0.46
-0.465
-0.455
-0.46
-0.47
-0.49
-0.49
-0.475
-0.465
-0.475
-0.485
-0.505
-0.505
-0.485
-0.5
-0.48
-0.5
-0.495
-0.505
-0.5
-0.495
-0.5
-0.515
-0.525
-0.515
-0.505
-0.5
-0.505
-0.52
-0.53
-0.535
-0.54
-0.53
-0.515
-0.515
-0.535
-0.525
-0.53
-0.52
-0.525
-0.53
-0.53
-0.535
-0.525
-0.535
-0.525
-0.53
-0.54
-0.545
-0.535
-0.535
-0.52
-0.535
-0.54
-0.53
-0.53
-0.535
-0.535
-0.545
-0.54
-0.545
-0.535
-0.52
-0.5
-0.51
-0.515
-0.515
-0.505
-0.5
-0.5
-0.505
-0.5
-0.49
-0.495
-0.5
-0.515
-0.515
-0.51
-0.485
-0.49
-0.465
-0.465
-0.475
-0.46
-0.46
-0.455
-0.45
-0.44
-0.415
-0.405
-0.37
-0.345
-0.275
-0.135
0.155
0.67
1.305
1.77
1.875
1.745
1.605
1.505
1.46
1.405
1.335
1.235
1.13
1.03
0.94
0.87
0.775
0.645
0.51
0.38
0.23
0.075
-0.045
-0.205
-0.385
-0.57
-0.755
-0.92
-1.08
-1.245
-1.42
-1.605
-1.73
-1.81
-1.895
-1.965
-2.04
-2.095
-2.105
-2.14
-2.18
-2.27
-2.34
-2.425
-2.485
-2.545
-2.585
-2.595
-2.55
-2.45
-2.3
-2.135
-1.97
-1.795
-1.68
-1.58
-1.495
-1.43
-1.365
-1.315
-1.27
-1.235
-1.185
-1.16
-1.14
-1.12
-1.085
-1.045
-0.985
-0.935
-0.85
-0.79
-0.735
-0.7
-0.615
-0.56
-0.485
-0.425
-0.355
-0.3
-0.215
-0.145
-0.065
0.0
0.055
0.095
0.125
0.15
0.14
0.16
0.175
0.19
0.225
0.245
0.275
0.275
0.29
0.31
0.335
0.345
0.365
0.385
0.395
0.41
0.425
0.46
0.5
0.515
0.535
0.55
0.59
0.62
0.64
0.68
0.695
0.715
0.75
0.795
0.84
0.885
0.905
0.925
0.965
1.0
1.05
1.105
1.15
1.18
1.22
1.26
1.305
1.325
1.335
1.335
1.35
1.365
1.375
1.36
1.32
1.285
1.265
1.255
1.23
1.225
1.21
1.165
1.15
1.135
1.11
1.065
1.02
0.955
0.92
0.85
0.815
0.74
0.69
0.61
0.565
0.495
0.42
0.325
0.275
0.205
0.16
0.11
0.05
0.01
-0.045
-0.09
-0.14
-0.185
-0.215
-0.235
-0.275
-0.315
-0.34
-0.35
-0.375
-0.385
-0.41
-0.43
-0.45
-0.465
-0.47
-0.475
-0.485
-0.5
-0.5
-0.495
-0.51
-0.515
-0.515
-0.54
-0.525
-0.52
-0.505
-0.51
-0.535
-0.55
-0.555
-0.54
-0.525
-0.535
-0.525
-0.55
-0.55
-0.555
-0.545
-0.545
-0.53
-0.54
-0.54
-0.545
-0.53
-0.53
-0.545
-0.555
-0.545
-0.525
-0.515
-0.515
-0.52
-0.55
-0.545
-0.54
-0.51
-0.505
-0.515
-0.515
-0.51
-0.52
-0.515
-0.51
-0.515
-0.52
-0.51
-0.495
-0.485
-0.495
-0.525
-0.525
-0.52
-0.505
-0.5
-0.51
-0.525
-0.54
-0.525
-0.505
-0.51
-0.51
-0.505
-0.53
-0.51
-0.495
-0.49
-0.495
-0.51
-0.52
-0.515
-0.515
-0.495
-0.485
-0.485
-0.49
-0.495
-0.495
-0.49
-0.475
-0.485
-0.49
-0.49
-0.48
-0.455
-0.455
-0.47
-0.49
-0.49
-0.47
-0.48
-0.48
-0.475
-0.47
-0.46
-0.46
-0.475
-0.48
-0.49
-0.49
-0.465
-0.45
-0.445
-0.43
-0.445
-0.46
-0.475
-0.465
-0.45
-0.44
-0.43
-0.43
-0.425
-0.42
-0.41
-0.41
-0.41
-0.415
-0.405
-0.39
-0.375
-0.37
-0.365
-0.35
-0.32
-0.275
-0.195
-0.04
0.25
0.715
1.29
1.705
1.84
1.74
1.6
1.495
1.445
1.38
1.3
1.175
1.06
0.96
0.85
0.745
0.64
0.5
0.365
0.2
0.045
-0.11
-0.285
-0.47
-0.685
-0.895
-1.1
-1.315
-1.505
-1.685
-1.845
-1.99
-2.11
-2.185
-2.245
-2.285
-2.33
-2.36
-2.365
-2.375
-2.435
-2.485
-2.545
-2.6
-2.645
-2.675
-2.705
-2.745
-2.785
-2.775
-2.695
-2.53
-2.325
-2.125
-1.95
-1.78
-1.615
-1.49
-1.395
-1.34
-1.29
-1.225
-1.165
-1.11
-1.06
-1.02
-0.98
-0.955
-0.89
-0.835
-0.76
-0.675
-0.6
-0.52
-0.425
-0.335
-0.255
-0.17
-0.09
-0.02
0.09
0.21
0.32
0.405
0.475
0.535
0.605
0.635
0.645
0.655
0.65
0.62
0.635
0.685
0.725
0.745
0.755
0.75
0.765
0.78
0.795
0.8
0.79
0.765
0.78
0.78
0.81
0.805
0.8
0.8
0.815
0.855
0.87
0.875
0.87
0.885
0.93
0.945
0.97
0.975
0.99
1.005
1.035
1.05
1.07
1.085
1.095
1.1
1.12
1.16
1.185
1.19
1.205
1.195
1.21
1.21
1.205
1.2
1.2
1.185
1.19
1.17
1.17
1.155
1.13
1.105
1.085
1.055
1.035
1.0
0.96
0.92
0.895
0.86
0.835
0.805
0.74
0.68
0.645
0.61
0.575
0.52
0.46
0.38
0.32
0.28
0.245
0.215
0.155
0.11
0.065
0.035
-0.005
-0.045
-0.075
-0.11
-0.145
-0.18
-0.21
-0.23
-0.26
-0.27
-0.29
-0.285
-0.3
-0.32
-0.355
-0.385
-0.39
-0.39
-0.375
-0.375
-0.395
-0.4
-0.405
-0.405
-0.4
-0.41
-0.425
-0.44
-0.445
-0.425
-0.41
-0.41
-0.43
-0.455
-0.46
-0.455
-0.435
-0.425
-0.415
-0.43
-0.46
-0.455
-0.46
-0.45
-0.465
-0.455
-0.43
-0.4
-0.405
-0.41
-0.435
-0.44
-0.435
-0.44
-0.435
-0.435
-0.44
-0.44
-0.43
-0.43
-0.41
-0.41
-0.415
-0.425
-0.44
-0.43
-0.44
-0.43
-0.435
-0.45
-0.445
-0.43
-0.415
-0.425
-0.44
-0.455
-0.47
-0.47
-0.445
-0.44
-0.445
-0.47
-0.47
-0.475
-0.45
-0.465
-0.475
-0.485
-0.495
-0.485
-0.455
-0.46
-0.465
-0.495
-0.51
-0.49
-0.46
-0.48
-0.49
-0.52
-0.49
-0.47
-0.48
-0.485
-0.495
-0.505
-0.515
-0.505
-0.505
-0.495
-0.485
-0.505
-0.505
-0.505
-0.505
-0.505
-0.505
-0.525
-0.52
-0.49
-0.475
-0.485
-0.51
-0.52
-0.51
-0.5
-0.485
-0.495
-0.505
-0.505
-0.5
-0.515
-0.52
-0.51
-0.52
-0.52
-0.51
-0.51
-0.49
-0.48
-0.48
-0.475
-0.435
-0.41
-0.35
-0.26
0.005
0.51
1.145
1.71
1.875
1.76
1.6
1.495
1.42
1.325
1.215
1.115
1.01
0.91
0.815
0.725
0.625
0.505
0.365
0.215
0.095
-0.015
-0.145
-0.27
-0.425
-0.56
-0.71
-0.87
-1.03
-1.175
-1.305
-1.44
-1.525
-1.59
-1.66
-1.765
-1.845
-1.905
-1.95
-2.01
-2.11
-2.2
-2.275
-2.35
-2.425
-2.49
-2.525
-2.51
-2.445
-2.345
-2.21
-2.045
-1.89
-1.745
-1.63
-1.575
-1.545
-1.505
-1.46
-1.42
-1.395
-1.355
-1.345
-1.335
-1.325
-1.29
-1.265
-1.225
-1.145
-1.07
-1.015
-0.985
-0.95
-0.92
-0.855
-0.77
-0.7
-0.64
-0.585
-0.55
-0.495
-0.435
-0.37
-0.32
-0.3
-0.28
-0.27
-0.25
-0.24
-0.22
-0.225
-0.21
-0.185
-0.16
-0.15
-0.14
-0.125
-0.11
-0.07
-0.035
0.0
0.015
0.02
0.02
0.04
0.08
0.1
0.135
0.165
0.185
0.23
0.255
0.305
0.335
0.345
0.365
0.38
0.425
0.46
0.48
0.49
0.505
0.52
0.57
0.615
0.635
0.645
0.635
0.645
0.66
0.68
0.69
0.69
0.69
0.685
0.685
0.675
0.65
0.635
0.615
0.615
0.61
0.6
0.56
0.55
0.5
0.46
0.42
0.405
0.375
0.34
0.3
0.255
0.205
0.16
0.105
0.055
0.005
-0.045
-0.08
-0.11
-0.15
-0.19
-0.245
-0.28
-0.315
-0.355
-0.4
-0.43
-0.465
-0.48
-0.505
-0.515
-0.535
-0.585
-0.62
-0.625
-0.635
-0.665
-0.675
-0.695
-0.72
-0.73
-0.715
-0.72
-0.735
-0.755
-0.765
-0.765
-0.75
-0.74
-0.76
-0.77
-0.775
-0.78
-0.79
-0.775
-0.775
-0.77
-0.785
-0.78
-0.795
-0.795
-0.795
-0.8
-0.805
-0.79
-0.78
-0.78
-0.785
-0.785
-0.785
-0.77
-0.765
-0.76
-0.775
-0.78
-0.78
-0.78
-0.755
-0.74
-0.74
-0.74
-0.75
-0.755
-0.75
-0.755
-0.755
-0.745
-0.74
-0.745
-0.75
-0.74
-0.74
-0.74
-0.75
-0.74
-0.735
-0.73
-0.73
-0.745
-0.745
-0.745
-0.735
-0.74
-0.75
-0.76
-0.76
-0.745
-0.72
-0.725
-0.71
-0.74
-0.745
-0.745
-0.735
-0.73
-0.725
-0.715
-0.735
-0.72
-0.71
-0.71
-0.71
-0.715
-0.72
-0.715
-0.7
-0.68
-0.695
-0.71
-0.735
-0.715
-0.7
-0.69
-0.675
-0.69
-0.695
-0.685
-0.65
-0.62
-0.61
-0.595
-0.6
-0.575
-0.565
-0.51
-0.48
-0.44
-0.44
-0.42
-0.4
-0.385
-0.34
-0.31
-0.32
-0.32
-0.345
-0.365
-0.385
-0.39
-0.375
-0.355
-0.35
-0.34
-0.335
-0.335
-0.33
-0.295
-0.25
-0.18
-0.015
0.365
0.955
1.58
1.905
1.865
1.66
1.515
1.415
1.35
1.255
1.125
1.015
0.895
0.78
0.655
0.54
0.42
0.28
0.135
-0.035
-0.21
-0.36
-0.505
-0.665
-0.815
-0.97
-1.125
-1.275
-1.41
-1.53
-1.635
-1.755
-1.84
-1.905
-1.975
-2.025
-2.065
-2.1
-2.135
-2.195
-2.26
-2.32
-2.385
-2.465
-2.525
-2.57
-2.575
-2.54
-2.44
-2.315
-2.155
-1.99
-1.86
-1.72
-1.65
-1.605
-1.56
-1.505
-1.445
-1.44
-1.415
-1.395
-1.375
-1.355
-1.305
-1.27
-1.22
-1.16
-1.085
-1.005
-0.945
-0.9
-0.85
-0.8
-0.715
-0.64
-0.54
-0.475
-0.41
-0.36
-0.295
-0.245
-0.22
-0.19
-0.165
-0.16
-0.12
-0.095
-0.065
-0.06
-0.035
-0.015
0.015
0.035
0.06
0.095
0.1
0.12
0.165
0.2
0.23
0.25
0.28
0.31
0.355
0.4
0.43
0.475
0.5
0.525
0.565
0.625
0.66
0.695
0.705
0.735
0.77
0.825
0.845
0.865
0.875
0.89
0.91
0.93
0.955
0.955
0.95
0.955
0.95
0.935
0.95
0.93
0.91
0.895
0.89
0.87
0.845
0.83
0.79
0.75
0.725
0.71
0.685
0.635
0.58
0.53
0.495
0.47
0.42
0.36
0.315
0.265
0.225
0.175
0.14
0.075
0.025
-0.045
-0.07
-0.095
-0.11
-0.15
-0.195
-0.26
-0.285
-0.275
-0.29
-0.315
-0.335
-0.355
-0.365
-0.365
-0.37
-0.39
-0.39
-0.41
-0.42
-0.405
-0.41
-0.415
-0.43
-0.43
-0.42
-0.42
-0.415
-0.415
-0.43
-0.455
-0.44
-0.425
-0.42
-0.435
-0.43
-0.43
-0.425
-0.425
-0.415
-0.42
-0.43
-0.43
-0.41
-0.405
-0.415
-0.41
-0.415
-0.415
-0.41
-0.395
-0.4
-0.38
-0.39
-0.4
-0.39
-0.36
-0.35
-0.35
-0.345
-0.35
-0.345
-0.325
-0.325
-0.28
-0.26
-0.245
-0.215
-0.18
-0.135
-0.1
-0.1
-0.09
-0.075
-0.06
-0.035
0.005
0.015
-0.01
-0.03
-0.05
-0.05
-0.07
-0.085
-0.08
-0.075
-0.085
-0.1
-0.12
-0.13
-0.145
-0.145
-0.165
-0.18
-0.2
-0.23
-0.275
-0.3
-0.32
-0.315
-0.32
-0.345
-0.365
-0.365
-0.38
-0.395
-0.405
-0.42
-0.44
-0.43
-0.42
-0.415
-0.435
-0.45
-0.45
-0.45
-0.445
-0.435
-0.44
-0.44
-0.445
-0.445
-0.44
-0.445
-0.43
-0.445
-0.455
-0.45
-0.435
-0.43
-0.43
-0.435
-0.425
-0.405
-0.405
-0.41
-0.405
-0.395
-0.4
-0.37
-0.325
-0.29
-0.26
-0.19
-0.005
0.435
1.07
1.705
2.085
2.02
1.82
1.685
1.625
1.575
1.455
1.33
1.195
1.07
0.995
0.895
0.79
0.635
0.475
0.325
0.2
0.065
-0.085
-0.245
-0.44
-0.625
-0.79
-0.975
-1.13
-1.285
-1.41
-1.54
-1.68
-1.76
-1.825
-1.87
-1.915
-1.925
-1.945
-2.0
-2.07
-2.15
-2.2
-2.245
-2.285
-2.3
-2.3
-2.25
-2.155
-2.015
-1.86
-1.68
-1.515
-1.405
-1.325
-1.265
-1.19
-1.11
-1.065
-1.02
-0.95
-0.9
-0.88
-0.855
-0.83
-0.795
-0.715
-0.62
-0.535
-0.465
-0.42
-0.375
-0.33
-0.255
-0.18
-0.105
-0.03
0.03
0.095
0.175
0.25
0.305
0.34
0.355
0.365
0.39
0.42
0.45
0.475
0.49
0.505
0.535
0.565
0.585
0.585
0.615
0.625
0.665
0.705
0.745
0.775
0.79
0.825
0.86
0.895
0.925
0.955
0.975
1.01
1.035
1.07
1.1
1.12
1.15
1.165
1.195
1.225
1.25
1.265
1.28
1.31
1.335
1.34
1.345
1.33
1.33
1.34
1.335
1.335
1.33
1.325
1.315
1.28
1.26
1.235
1.235
1.205
1.18
1.135
1.09
1.07
1.04
1.01
0.985
0.94
0.9
0.865
0.82
0.77
0.725
0.67
0.615
0.56
0.535
0.5
0.465
0.415
0.375
0.305
0.245
0.19
0.16
0.15
0.145
0.12
0.09
0.06
0.04
0.02
0.035
0.03
0.05
0.04
0.035
0.04
0.065
0.09
0.135
0.165
0.165
0.16
0.18
0.21
0.235
0.22
0.2
0.16
0.13
0.125
0.125
0.115
0.115
0.11
0.14
0.14
0.115
0.08
0.06
0.05
0.035
0.035
0.01
-0.01
-0.035
-0.05
-0.05
-0.075
-0.13
-0.16
-0.175
-0.18
-0.18
-0.18
-0.18
-0.205
-0.22
-0.24
-0.24
-0.27
-0.255
-0.265
-0.275
-0.27
-0.245
-0.245
-0.255
-0.275
-0.28
-0.28
-0.255
-0.26
-0.26
-0.265
-0.295
-0.3
-0.285
-0.28
-0.255
-0.265
-0.28
-0.29
-0.29
-0.29
-0.285
-0.3
-0.285
-0.285
-0.295
-0.295
-0.285
-0.285
-0.28
-0.305
-0.31
-0.315
-0.305
-0.295
-0.3
-0.305
-0.3
-0.285
-0.27
-0.285
-0.31
-0.315
-0.305
-0.295
-0.275
-0.265
-0.28
-0.31
-0.31
-0.3
-0.28
-0.275
-0.285
-0.305
-0.31
-0.29
-0.28
-0.29
-0.29
-0.3
-0.285
-0.27
-0.26
-0.265
-0.27
-0.27
-0.26
-0.25
-0.255
-0.245
-0.24
-0.235
-0.225
-0.205
-0.195
-0.19
-0.17
-0.17
-0.155
-0.11
0.0
0.26
0.78
1.415
2.0
2.175
2.04
1.88
1.785
1.72
1.655
1.57
1.47
1.36
1.265
1.155
1.035
0.905
0.785
0.64
0.47
0.285
0.14
0.015
-0.125
-0.28
-0.45
-0.63
-0.76
-0.875
-0.985
-1.145
-1.3
-1.405
-1.485
-1.545
-1.59
-1.63
-1.67
-1.745
-1.84
-1.935
-2.025
-2.115
-2.2
-2.275
-2.265
-2.22
-2.12
-1.98
-1.81
-1.63
-1.455
-1.33
-1.25
-1.185
-1.125
-1.065
-1.0
-0.925
-0.885
