Lead II
-0.37
-0.35
-0.355
-0.335
-0.34
-0.35
-0.345
-0.33
-0.335
-0.32
-0.3
-0.315
-0.31
-0.325
-0.305
-0.3
-0.28
-0.245
-0.23
-0.165
-0.055
0.215
0.71
1.325
1.795
1.975
1.895
1.77
1.67
1.62
1.54
1.45
1.34
1.23
1.105
0.975
0.85
0.715
0.59
0.435
0.26
0.07
-0.125
-0.31
-0.51
-0.72
-0.945
-1.205
-1.43
-1.635
-1.835
-2.0
-2.13
-2.235
-2.315
-2.365
-2.42
-2.46
-2.465
-2.48
-2.525
-2.56
-2.62
-2.645
-2.69
-2.74
-2.8
-2.815
-2.81
-2.74
-2.565
-2.34
-2.09
-1.87
-1.67
-1.49
-1.315
-1.185
-1.085
-1.015
-0.915
-0.805
-0.7
-0.64
-0.615
-0.63
-0.63
-0.585
-0.525
-0.455
-0.38
-0.3
-0.225
-0.14
-0.08
-0.025
0.015
0.05
0.095
0.165
0.23
0.275
0.315
0.34
0.38
0.415
0.45
0.46
0.455
0.455
0.455
0.5
0.515
0.525
0.515
0.51
0.515
0.555
0.565
0.6
0.615
0.615
0.64
0.675
0.725
0.745
0.755
0.78
0.805
0.835
0.87
0.91
0.955
0.98
0.99
1.02
1.06
1.075
1.12
1.14
1.16
1.175
1.22
1.25
1.26
1.26
1.265
1.285
1.305
1.31
1.305
1.295
1.29
1.29
1.295
1.295
1.295
1.275
1.25
1.22
1.21
1.185
1.15
1.11
1.075
1.055
1.04
0.995
0.945
0.89
0.84
0.795
0.75
0.71
0.655
0.6
0.53
0.49
0.435
0.385
0.34
0.28
0.23
0.18
0.145
0.09
0.05
-0.005
-0.055
-0.09
-0.125
-0.145
-0.165
-0.185
-0.225
-0.22
-0.225
-0.255
-0.255
-0.29
-0.31
-0.315
-0.325
-0.32
-0.33
-0.335
-0.355
-0.345
-0.35
-0.355
-0.37
-0.375
-0.38
-0.365
-0.37
-0.38
-0.4
-0.405
-0.405
-0.395
-0.385
-0.385
-0.4
-0.395
-0.405
-0.4
-0.39
-0.395
-0.385
-0.395
-0.395
-0.38
-0.39
-0.38
-0.385
-0.38
-0.365
-0.345
-0.345
-0.36
-0.365
-0.35
-0.35
-0.335
-0.335
-0.345
-0.35
-0.35
-0.35
-0.345
-0.355
-0.35
-0.34
-0.355
-0.365
-0.365
-0.35
-0.36
-0.36
-0.365
-0.375
-0.38
-0.385
-0.37
-0.365
-0.365
-0.38
-0.39
-0.375
-0.37
-0.375
-0.385
-0.39
-0.38
-0.38
-0.375
-0.39
-0.405
-0.4
-0.395
-0.365
-0.37
-0.37
-0.395
-0.435
-0.425
-0.405
-0.38
-0.38
-0.395
-0.4
-0.395
-0.38
-0.375
-0.385
-0.395
-0.41
-0.405
-0.39
-0.39
-0.39
-0.4
-0.405
-0.39
-0.375
-0.37
-0.375
-0.38
-0.385
-0.38
-0.375
-0.37
-0.37
-0.365
-0.38
-0.355
-0.34
-0.34
-0.335
-0.31
-0.295
-0.25
-0.195
-0.1
0.08
0.45
1.035
1.65
1.985
2.01
1.895
1.795
1.74
1.695
1.65
1.56
1.45
1.335
1.21
1.095
0.985
0.85
0.69
0.53
0.35
0.17
-0.02
-0.235
-0.465
-0.725
-0.995
-1.26
-1.465
-1.665
-1.87
-2.03
-2.16
-2.235
-2.3
-2.345
-2.39
-2.455
-2.545
-2.62
-2.68
-2.74
-2.8
-2.865
-2.905
-2.9
-2.795
-2.62
-2.425
-2.24
-2.06
-1.88
-1.725
-1.605
-1.535
-1.46
-1.41
-1.36
-1.305
-1.255
-1.235
-1.215
-1.175
-1.14
-1.09
-1.02
-0.95
-0.88
-0.825
-0.76
-0.72
-0.665
-0.595
-0.53
-0.435
-0.355
-0.265
-0.2
-0.13
-0.09
-0.035
0.01
0.04
0.045
0.065
0.075
0.095
0.14
0.15
0.17
0.175
0.19
0.215
0.235
0.26
0.28
0.295
0.32
0.34
0.38
0.415
0.455
0.495
0.51
0.54
0.58
0.625
0.655
0.69
0.715
0.74
0.77
0.82
0.88
0.89
0.905
0.92
0.955
0.995
1.03
1.035
1.04
1.04
1.055
1.075
1.09
1.1
1.075
1.09
1.08
1.08
1.065
1.06
1.025
1.02
1.005
0.98
0.94
0.9
0.865
0.83
0.795
0.775
0.73
0.68
0.63
0.575
0.54
0.5
0.44
0.375
0.31
0.26
0.225
0.185
0.12
0.08
0.025
-0.025
-0.065
-0.1
-0.135
-0.165
-0.195
-0.245
-0.265
-0.27
-0.28
-0.31
-0.34
-0.375
-0.405
-0.385
-0.39
-0.39
-0.425
-0.445
-0.445
-0.435
-0.445
-0.455
-0.455
-0.47
-0.46
-0.46
-0.465
-0.49
-0.495
-0.505
-0.475
-0.475
-0.47
-0.47
-0.49
-0.49
-0.485
-0.48
-0.47
-0.485
-0.49
-0.49
-0.475
-0.46
-0.475
-0.48
-0.475
-0.475
-0.47
-0.465
-0.475
-0.475
-0.47
-0.475
-0.475
-0.47
-0.465
-0.455
-0.465
-0.465
-0.45
-0.45
-0.45
-0.45
-0.47
-0.485
-0.47
-0.47
-0.475
-0.475
-0.475
-0.485
-0.48
-0.47
-0.47
-0.48
-0.485
-0.495
-0.485
-0.475
-0.47
-0.49
-0.495
-0.49
-0.485
-0.48
-0.465
-0.47
-0.45
-0.445
-0.395
-0.38
-0.345
-0.315
-0.305
-0.28
-0.23
-0.185
-0.16
-0.16
-0.145
-0.115
-0.1
-0.105
-0.125
-0.17
-0.195
-0.205
-0.195
-0.195
-0.2
-0.205
-0.21
-0.23
-0.24
-0.265
-0.285
-0.305
-0.34
-0.365
-0.39
-0.405
-0.43
-0.47
-0.485
-0.51
-0.515
-0.515
-0.535
-0.545
-0.555
-0.56
-0.56
-0.555
-0.57
-0.57
-0.565
-0.535
-0.485
-0.375
-0.125
0.355
0.99
1.54
1.745
1.665
1.5
1.395
1.33
1.255
1.17
1.085
0.975
0.87
0.765
0.655
0.55
0.435
0.28
0.12
-0.055
-0.23
-0.41
-0.6
-0.8
-0.995
-1.195
-1.39
-1.56
-1.705
-1.88
-2.03
-2.135
-2.21
-2.26
-2.28
-2.315
-2.355
-2.43
-2.53
-2.58
-2.64
-2.7
-2.775
-2.84
-2.87
-2.81
-2.705
-2.545
-2.375
-2.21
-2.05
-1.875
-1.745
-1.66
-1.605
-1.57
-1.51
-1.46
-1.39
-1.345
-1.34
-1.33
-1.305
-1.255
-1.17
-1.1
-1.035
-0.96
-0.9
-0.83
-0.78
-0.69
-0.61
-0.515
-0.435
-0.345
-0.26
-0.18
-0.13
-0.08
-0.025
0.02
0.05
0.065
0.095
0.095
0.105
0.14
0.155
0.185
0.2
0.22
0.225
0.28
0.3
0.325
0.355
0.38
0.395
0.43
0.48
0.505
0.53
0.55
0.59
0.625
0.665
0.705
0.72
0.72
0.755
0.785
0.835
0.855
0.885
0.915
0.93
0.955
0.98
0.99
0.99
1.01
1.01
1.03
1.035
1.04
1.025
1.015
0.995
0.985
0.975
0.97
0.945
0.91
0.895
0.87
0.85
0.815
0.775
0.72
0.685
0.66
0.625
0.585
0.54
0.475
0.42
0.38
0.35
0.3
0.245
0.18
0.13
0.085
0.05
0.005
-0.04
-0.105
-0.145
-0.18
-0.215
-0.26
-0.28
-0.325
-0.345
-0.355
-0.365
-0.395
-0.43
-0.46
-0.485
-0.49
-0.475
-0.495
-0.505
-0.52
-0.53
-0.52
-0.515
-0.52
-0.545
-0.55
-0.575
-0.56
-0.555
-0.54
-0.54
-0.55
-0.555
-0.55
-0.56
-0.575
-0.585
-0.58
-0.575
-0.545
-0.53
-0.515
-0.505
-0.49
-0.485
-0.46
-0.44
-0.41
-0.375
-0.345
-0.315
-0.28
-0.255
-0.23
-0.21
-0.18
-0.17
-0.17
-0.185
-0.22
-0.25
-0.275
-0.3
-0.265
-0.245
-0.23
-0.235
-0.25
-0.275
-0.27
-0.275
-0.305
-0.345
-0.39
-0.415
-0.425
-0.42
-0.445
-0.485
-0.515
-0.535
-0.565
-0.57
-0.59
-0.61
-0.64
-0.65
-0.645
-0.635
-0.665
-0.685
-0.715
-0.715
-0.7
-0.695
-0.69
-0.7
-0.73
-0.735
-0.73
-0.715
-0.705
-0.715
-0.73
-0.74
-0.74
-0.735
-0.73
-0.73
-0.745
-0.75
-0.73
-0.735
-0.74
-0.745
-0.75
-0.765
-0.745
-0.73
-0.73
-0.745
-0.75
-0.755
-0.75
-0.745
-0.74
-0.735
-0.73
-0.74
-0.725
-0.73
-0.74
-0.755
-0.765
-0.745
-0.74
-0.715
-0.71
-0.705
-0.695
-0.675
-0.645
-0.605
-0.525
-0.345
0.025
0.635
1.27
1.635
1.645
1.495
1.36
1.285
1.22
1.14
1.005
0.87
0.74
0.635
0.55
0.435
0.29
0.12
-0.055
-0.25
-0.44
-0.635
-0.865
-1.085
-1.32
-1.55
-1.74
-1.9
-2.06
-2.22
-2.34
-2.45
-2.48
-2.505
-2.525
-2.565
-2.615
-2.715
-2.76
-2.805
-2.845
-2.905
-2.925
-2.9
-2.81
-2.665
-2.51
-2.335
-2.17
-2.005
-1.86
-1.755
-1.68
-1.6
-1.53
-1.485
-1.42
-1.35
-1.295
-1.27
-1.245
-1.215
-1.17
-1.105
-1.02
-0.96
-0.9
-0.85
-0.785
-0.71
-0.645
-0.565
-0.495
-0.43
-0.35
-0.28
-0.195
-0.14
-0.105
-0.075
-0.05
-0.02
0.0
0.025
0.035
0.06
0.08
0.12
0.145
0.16
0.16
0.19
0.2
0.245
0.285
0.295
0.315
0.345
0.375
0.405
0.425
0.445
0.48
0.505
0.55
0.575
0.6
0.625
0.65
0.67
0.7
0.745
0.765
0.78
0.785
0.81
0.825
0.84
0.85
0.85
0.85
0.845
0.845
0.87
0.845
0.845
0.81
0.8
0.8
0.78
0.77
0.73
0.705
0.67
0.66
0.635
0.59
0.555
0.505
0.465
0.44
0.42
0.405
0.375
0.34
0.295
0.275
0.26
0.25
0.235
0.23
0.215
0.21
0.2
0.18
0.145
0.125
0.1
0.065
0.015
-0.055
-0.115
-0.15
-0.185
-0.205
-0.215
-0.23
-0.235
-0.26
-0.275
-0.32
-0.33
-0.36
-0.39
-0.425
-0.46
-0.48
-0.515
-0.545
-0.57
-0.615
-0.655
-0.65
-0.68
-0.7
-0.725
-0.74
-0.75
-0.74
-0.745
-0.77
-0.795
-0.82
-0.825
-0.81
-0.805
-0.81
-0.805
-0.82
-0.825
-0.81
-0.805
-0.805
-0.805
-0.82
-0.84
-0.835
-0.815
-0.81
-0.805
-0.815
-0.82
-0.815
-0.81
-0.8
-0.81
-0.815
-0.82
-0.81
-0.815
-0.8
-0.815
-0.82
-0.83
-0.82
-0.82
-0.815
-0.82
-0.83
-0.84
-0.83
-0.82
-0.815
-0.82
-0.835
-0.85
-0.86
-0.845
-0.845
-0.84
-0.835
-0.84
-0.83
-0.815
-0.805
-0.82
-0.835
-0.855
-0.845
-0.835
-0.83
-0.825
-0.835
-0.845
-0.85
-0.82
-0.81
-0.81
-0.82
-0.825
-0.81
-0.81
-0.795
-0.81
-0.82
-0.835
-0.805
-0.785
-0.77
-0.79
-0.795
-0.795
-0.785
-0.765
-0.77
-0.78
-0.805
-0.795
-0.775
-0.76
-0.755
-0.75
-0.76
-0.755
-0.745
-0.72
-0.715
-0.73
-0.74
-0.74
-0.72
-0.685
-0.665
-0.66
-0.65
-0.635
-0.57
-0.455
-0.23
0.195
0.815
1.385
1.67
1.64
1.485
1.355
1.275
1.195
1.115
1.005
0.875
0.75
0.615
0.515
0.39
0.245
0.07
-0.125
-0.34
-0.535
-0.705
-0.895
-1.1
-1.32
-1.54
-1.755
-1.92
-2.065
-2.2
-2.34
-2.44
-2.53
-2.57
-2.575
-2.605
-2.665
-2.73
-2.8
-2.86
-2.92
-2.97
-3.015
-3.045
-3.025
-2.89
-2.725
-2.53
-2.34
-2.17
-2.0
-1.875
-1.78
-1.685
-1.61
-1.545
-1.485
-1.42
-1.355
-1.33
-1.3
-1.295
-1.26
-1.195
-1.11
-1.01
-0.94
-0.875
-0.815
-0.75
-0.69
-0.625
-0.54
-0.47
-0.385
-0.305
-0.225
-0.16
-0.11
-0.05
-0.01
0.025
0.05
0.055
0.08
0.1
0.095
0.145
0.185
0.195
0.2
0.205
0.245
0.3
0.355
0.385
0.425
0.45
0.49
0.555
0.615
0.685
0.73
0.81
0.87
0.935
0.99
1.03
1.075
1.105
1.135
1.17
1.19
1.185
1.17
1.165
1.18
1.205
1.235
1.24
1.255
1.23
1.235
1.21
1.225
1.205
1.195
1.16
1.12
1.115
1.085
1.055
1.005
0.955
0.895
0.855
0.815
0.755
0.705
0.65
0.6
0.56
0.515
0.465
0.38
0.315
0.245
0.195
0.15
0.11
0.05
-0.005
-0.065
-0.12
-0.165
-0.22
-0.27
-0.325
-0.37
-0.405
-0.42
-0.45
-0.48
-0.53
-0.545
-0.59
-0.61
-0.63
-0.645
-0.66
-0.665
-0.665
-0.665
-0.685
-0.695
-0.72
-0.72
-0.735
-0.73
-0.73
-0.74
-0.765
-0.79
-0.765
-0.755
-0.765
-0.765
-0.785
-0.785
-0.785
-0.77
-0.76
-0.78
-0.79
-0.8
-0.785
-0.77
-0.76
-0.765
-0.77
-0.775
-0.77
-0.755
-0.745
-0.755
-0.74
-0.75
-0.73
-0.73
-0.735
-0.745
-0.745
-0.735
-0.705
-0.7
-0.695
-0.705
-0.705
-0.7
-0.695
-0.685
-0.7
-0.695
-0.695
-0.69
-0.675
-0.665
-0.675
-0.68
-0.685
-0.685
-0.685
-0.67
-0.66
-0.66
-0.67
-0.67
-0.68
-0.67
-0.665
-0.665
-0.665
-0.675
-0.665
-0.67
-0.66
-0.665
-0.665
-0.67
-0.66
-0.655
-0.665
-0.65
-0.655
-0.65
-0.645
-0.635
-0.645
-0.645
-0.645
-0.65
-0.635
-0.645
-0.635
-0.635
-0.635
-0.64
-0.625
-0.615
-0.615
-0.615
-0.63
-0.625
-0.63
-0.62
-0.615
-0.62
-0.615
-0.62
-0.61
-0.585
-0.585
-0.59
-0.6
-0.605
-0.575
-0.56
-0.565
-0.585
-0.59
-0.595
-0.58
-0.555
-0.545
-0.54
-0.545
-0.555
-0.535
-0.525
-0.515
-0.5
-0.475
-0.45
-0.405
-0.315
-0.12
0.285
0.86
1.43
1.77
1.8
1.675
1.555
1.475
1.41
1.33
1.24
1.11
0.995
0.88
0.77
0.67
0.555
0.415
0.255
0.06
-0.13
-0.29
-0.465
-0.685
-0.915
-1.17
-1.43
-1.67
-1.86
-2.035
-2.18
-2.32
-2.42
-2.49
-2.55
-2.585
-2.61
-2.62
-2.65
-2.705
-2.73
-2.79
-2.835
-2.89
-2.93
-2.965
-2.965
-2.94
-2.83
-2.67
-2.46
-2.24
-2.04
-1.865
-1.715
-1.595
-1.495
-1.38
-1.265
-1.165
-1.075
-1.02
-0.965
-0.865
-0.79
-0.72
-0.665
-0.625
-0.565
-0.5
-0.435
-0.39
-0.345
-0.28
-0.22
-0.135
-0.065
0.015
0.095
0.155
0.22
0.29
0.34
0.37
0.375
0.415
0.425
0.42
0.42
0.41
0.41
0.415
0.41
0.44
0.46
0.475
0.485
0.5
0.51
0.52
0.54
0.545
0.55
0.58
0.595
0.635
0.685
0.705
0.73
0.75
0.77
0.8
0.84
0.865
0.885
0.91
0.94
0.995
1.03
1.055
1.07
1.08
1.09
1.125
1.135
1.155
1.165
1.175
1.17
1.18
1.2
1.2
1.185
1.175
1.165
1.175
1.17
1.155
1.13
1.095
1.065
1.045
1.02
1.005
0.97
0.92
0.89
0.855
0.835
0.79
0.735
0.68
0.63
0.595
0.575
0.515
0.46
0.405
0.365
0.33
0.295
0.245
0.21
0.14
0.085
0.05
0.015
-0.03
-0.07
-0.105
-0.145
-0.18
-0.195
-0.235
-0.255
-0.28
-0.305
-0.32
-0.325
-0.355
-0.38
-0.405
-0.42
-0.415
-0.43
-0.44
-0.45
-0.465
-0.46
-0.455
-0.445
-0.47
-0.49
-0.48
-0.485
-0.475
-0.485
-0.49
-0.495
-0.515
-0.505
-0.5
-0.485
-0.495
-0.495
-0.5
-0.515
-0.5
-0.505
-0.49
-0.51
-0.49
-0.5
-0.5
-0.49
-0.495
-0.49
-0.495
-0.495
-0.49
-0.475
-0.475
-0.485
-0.47
-0.45
-0.445
-0.435
-0.44
-0.44
-0.44
-0.44
-0.425
-0.425
-0.43
-0.44
-0.445
-0.445
-0.425
-0.415
-0.415
-0.445
-0.435
-0.445
-0.43
-0.43
-0.43
-0.435
-0.45
-0.46
-0.44
-0.435
-0.43
-0.42
-0.44
-0.455
-0.435
-0.445
-0.425
-0.43
-0.445
-0.45
-0.455
-0.435
-0.44
-0.45
-0.455
-0.455
-0.455
-0.445
-0.45
-0.46
-0.46
-0.465
-0.46
-0.445
-0.435
-0.45
-0.465
-0.455
-0.43
-0.43
-0.44
-0.45
-0.45
-0.47
-0.46
-0.455
-0.445
-0.435
-0.44
-0.445
-0.44
-0.435
-0.43
-0.445
-0.445
-0.45
-0.44
-0.435
-0.425
-0.42
-0.425
-0.435
-0.435
-0.42
-0.4
-0.415
-0.43
-0.43
-0.43
-0.415
-0.41
-0.405
-0.41
-0.415
-0.405
-0.385
-0.385
-0.365
-0.35
-0.32
-0.25
-0.135
0.08
0.46
1.01
1.545
1.875
1.92
1.82
1.735
1.685
1.665
1.6
1.53
1.445
1.335
1.24
1.16
1.105
1.025
0.9
0.745
0.585
0.42
0.255
0.095
-0.07
-0.26
-0.44
-0.65
-0.85
-1.035
-1.24
-1.425
-1.6
-1.765
-1.92
-2.045
-2.145
-2.24
-2.295
-2.345
-2.375
-2.42
-2.49
-2.58
-2.665
-2.745
-2.8
-2.855
-2.895
-2.91
-2.885
-2.76
-2.565
-2.375
-2.205
-2.055
-1.925
-1.79
-1.67
-1.555
-1.49
-1.415
-1.365
-1.305
-1.25
-1.215
-1.195
-1.16
-1.135
-1.11
-1.06
-0.99
-0.905
-0.84
-0.8
-0.745
-0.7
-0.63
-0.57
-0.53
-0.45
-0.38
-0.31
-0.225
-0.165
-0.115
-0.075
-0.02
0.03
0.065
0.075
0.08
0.095
0.105
0.13
0.155
0.17
0.195
0.205
0.225
0.255
0.28
0.295
0.305
0.305
0.315
0.365
0.395
0.425
0.455
0.475
0.5
0.535
0.575
0.605
0.63
0.665
0.685
0.745
0.785
0.825
0.845
0.855
0.9
0.94
0.97
0.975
1.01
1.02
1.05
1.075
1.075
1.075
1.085
1.1
1.11
1.12
1.115
1.12
1.105
1.095
1.075
1.07
1.05
1.035
0.995
0.965
0.93
0.91
0.89
0.865
0.81
0.77
0.725
0.7
0.65
0.6
0.545
0.48
0.445
0.42
0.38
0.32
0.24
0.165
0.125
0.105
0.07
0.035
-0.03
-0.065
-0.115
-0.135
-0.165
-0.215
-0.235
-0.26
-0.285
-0.305
-0.315
-0.335
-0.35
-0.39
-0.4
-0.4
-0.405
-0.415
-0.445
-0.45
-0.46
-0.455
-0.445
-0.45
-0.485
-0.495
-0.51
-0.49
-0.47
-0.475
-0.49
-0.5
-0.505
-0.51
-0.5
-0.5
-0.5
-0.52
-0.51
-0.51
-0.505
-0.515
-0.515
-0.51
-0.505
-0.49
-0.475
-0.48
-0.49
-0.505
-0.495
-0.49
-0.47
-0.47
-0.47
-0.485
-0.485
-0.485
-0.46
-0.46
-0.47
-0.475
-0.485
-0.465
-0.455
-0.45
-0.465
-0.495
-0.49
-0.475
-0.45
-0.45
-0.47
-0.495
-0.5
-0.49
-0.485
-0.485
-0.49
-0.49
-0.49
-0.485
-0.49
-0.495
-0.515
-0.515
-0.515
-0.495
-0.495
-0.505
-0.51
-0.515
-0.515
-0.49
-0.49
-0.48
-0.48
-0.465
-0.455
-0.445
-0.42
-0.405
-0.4
-0.375
-0.34
-0.3
-0.255
-0.235
-0.2
-0.2
-0.18
-0.15
-0.125
-0.105
-0.115
-0.145
-0.165
-0.195
-0.19
-0.22
-0.23
-0.235
-0.23
-0.22
-0.195
-0.225
-0.245
-0.265
-0.275
-0.29
-0.305
-0.34
-0.36
-0.385
-0.42
-0.44
-0.44
-0.445
-0.46
-0.49
-0.51
-0.51
-0.48
-0.465
-0.43
-0.355
-0.19
0.175
0.71
1.295
1.66
1.74
1.625
1.51
1.435
1.38
1.29
1.19
1.095
0.995
0.9
0.79
0.695
0.57
0.43
0.3
0.14
-0.015
-0.175
-0.35
-0.535
-0.7
-0.89
-1.075
-1.28
-1.465
-1.63
-1.765
-1.905
-2.015
-2.11
-2.195
-2.265
-2.295
-2.33
-2.365
-2.43
-2.535
-2.615
-2.665
-2.72
-2.785
-2.84
-2.875
-2.86
-2.735
-2.58
-2.395
-2.23
-2.07
-1.905
-1.755
-1.66
-1.61
-1.555
-1.52
-1.48
-1.415
-1.39
-1.36
-1.345
-1.33
-1.29
-1.23
-1.16
-1.075
-1.005
-0.955
-0.9
-0.855
-0.79
-0.72
-0.66
-0.585
-0.515
-0.41
-0.325
-0.25
-0.19
-0.135
-0.08
-0.04
0.015
0.04
0.05
0.07
0.095
0.12
0.165
0.185
0.2
0.215
0.225
0.26
0.285
0.305
0.325
0.335
0.38
0.4
0.43
0.455
0.495
0.52
0.545
0.575
0.62
0.655
0.68
0.705
0.735
0.77
0.82
0.84
0.85
0.86
0.885
0.93
0.96
0.98
1.005
1.015
1.035
1.045
1.065
1.065
1.055
1.05
1.06
1.065
1.075
1.07
1.04
1.03
1.015
1.0
0.985
0.955
0.915
0.87
0.83
0.805
0.78
0.74
0.71
0.675
0.635
0.585
0.535
0.485
0.44
0.4
0.345
0.315
0.275
0.22
0.175
0.11
0.045
0.0
-0.025
-0.075
-0.11
-0.17
-0.21
-0.24
-0.255
-0.29
-0.33
-0.35
-0.375
-0.39
-0.395
-0.41
-0.43
-0.455
-0.47
-0.47
-0.47
-0.47
-0.475
-0.485
-0.5
-0.5
-0.52
-0.51
-0.53
-0.535
-0.54
-0.535
-0.52
-0.525
-0.535
-0.535
-0.53
-0.54
-0.52
-0.525
-0.53
-0.535
-0.545
-0.55
-0.525
-0.505
-0.495
-0.485
-0.47
-0.45
-0.425
-0.42
-0.395
-0.37
-0.335
-0.29
-0.255
-0.23
-0.215
-0.185
-0.165
-0.13
-0.09
-0.09
-0.125
-0.15
-0.175
-0.18
-0.185
-0.18
-0.195
-0.205
-0.22
-0.22
-0.215
-0.23
-0.26
-0.295
-0.33
-0.335
-0.37
-0.43
-0.455
-0.48
-0.495
-0.51
-0.525
-0.545
-0.56
-0.58
-0.585
-0.595
-0.6
-0.605
-0.635
-0.67
-0.67
-0.66
-0.645
-0.66
-0.66
-0.665
-0.68
-0.655
-0.655
-0.645
-0.665
-0.665
-0.675
-0.67
-0.66
-0.68
-0.695
-0.705
-0.69
-0.67
-0.66
-0.67
-0.69
-0.695
-0.705
-0.68
-0.66
-0.665
-0.67
-0.69
-0.7
-0.685
-0.645
-0.645
-0.645
-0.66
-0.68
-0.66
-0.64
-0.645
-0.625
-0.625
-0.605
-0.55
-0.49
-0.355
-0.055
0.49
1.125
1.62
1.725
1.59
1.44
1.355
1.28
1.2
1.1
0.965
0.85
0.725
0.62
0.51
0.39
0.24
0.08
-0.09
-0.265
-0.43
-0.615
-0.84
-1.065
-1.275
-1.465
-1.625
-1.78
-1.965
-2.125
-2.23
-2.305
-2.335
-2.37
-2.4
-2.46
-2.54
-2.63
-2.675
-2.705
-2.745
-2.805
-2.84
-2.815
-2.71
-2.58
-2.43
-2.265
-2.085
-1.915
-1.775
-1.665
-1.59
-1.52
-1.46
-1.405
-1.33
-1.255
-1.205
-1.18
-1.16
-1.13
-1.085
-1.005
-0.915
-0.865
-0.815
-0.78
-0.705
-0.655
-0.58
-0.505
-0.435
-0.37
-0.295
-0.205
-0.135
-0.075
-0.025
0.015
0.055
0.075
0.095
0.115
0.115
0.13
0.16
0.195
0.205
0.215
0.235
0.26
0.29
0.3
0.325
0.34
0.36
0.39
0.435
0.475
0.5
0.515
0.53
0.55
0.595
0.64
0.67
0.7
0.735
0.755
0.78
0.81
0.815
0.85
0.86
0.89
0.935
0.95
0.94
0.94
0.945
0.955
0.975
0.985
0.975
0.965
0.95
0.945
0.935
0.935
0.905
0.905
0.875
0.85
0.82
0.795
0.78
0.74
0.705
0.675
0.64
0.625
0.58
0.52
0.47
0.42
0.4
0.365
0.32
0.25
0.21
0.155
0.13
0.11
0.08
0.045
0.02
-0.005
-0.005
0.01
0.02
0.02
0.02
0.015
0.035
0.04
0.055
0.035
-0.005
-0.07
-0.105
-0.125
-0.14
-0.16
-0.19
-0.215
-0.215
-0.2
-0.2
-0.24
-0.265
-0.29
-0.305
-0.33
-0.36
-0.4
-0.425
-0.45
-0.465
-0.495
-0.52
-0.53
-0.555
-0.59
-0.605
-0.6
-0.615
-0.64
-0.645
-0.655
-0.66
-0.66
-0.685
-0.695
-0.685
-0.675
-0.675
-0.66
-0.675
-0.69
-0.695
-0.695
-0.685
-0.685
-0.69
-0.69
-0.7
-0.7
-0.685
-0.67
-0.68
-0.69
-0.705
-0.72
-0.705
-0.695
-0.7
-0.71
-0.72
-0.72
-0.715
-0.71
-0.7
-0.725
-0.74
-0.745
-0.73
-0.715
-0.705
-0.72
-0.745
-0.765
-0.745
-0.73
-0.725
-0.72
-0.715
-0.73
-0.745
-0.73
-0.73
-0.735
-0.73
-0.725
-0.715
-0.695
-0.705
-0.705
-0.695
-0.71
-0.69
-0.695
-0.705
-0.705
-0.7
-0.695
-0.675
-0.67
-0.67
-0.665
-0.695
-0.68
-0.67
-0.665
-0.65
-0.66
-0.66
-0.655
-0.64
-0.635
-0.625
-0.63
-0.625
-0.64
-0.62
-0.585
-0.585
-0.585
-0.57
-0.555
-0.53
-0.49
-0.44
-0.285
0.005
0.545
1.165
1.6
1.705
1.61
1.485
1.4
1.335
1.265
1.16
1.035
0.92
0.805
0.72
0.635
0.5
0.37
0.22
0.045
-0.135
-0.305
-0.485
-0.705
-0.94
-1.185
-1.405
-1.595
-1.765
-1.945
-2.12
-2.26
-2.36
-2.43
-2.485
-2.515
-2.55
-2.595
-2.65
-2.715
-2.765
-2.83
-2.885
-2.935
-2.96
-2.915
-2.81
-2.645
-2.46
-2.255
-2.04
-1.855
-1.74
-1.635
-1.56
-1.495
-1.415
-1.355
-1.295
-1.245
-1.21
-1.18
-1.15
-1.1
-1.06
-1.0
-0.925
-0.845
-0.76
-0.69
-0.64
-0.595
-0.525
-0.44
-0.335
-0.25
-0.17
-0.11
-0.055
0.0
0.065
0.125
0.145
0.16
0.185
0.185
0.215
0.265
0.28
0.28
0.29
0.31
0.35
0.39
0.42
0.43
0.445
0.46
0.505
0.54
0.57
0.595
0.625
0.65
0.705
0.75
0.8
0.845
0.885
0.925
0.985
1.065
1.115
1.175
1.22
1.27
1.3
1.34
1.37
1.39
1.415
1.425
1.435
1.415
1.4
1.395
1.375
1.37
1.365
1.38
1.355
1.33
1.295
1.275
1.25
1.225
1.18
1.125
1.065
1.015
0.975
0.94
0.87
0.78
0.71
0.665
0.6
0.535
0.475
0.405
0.35
0.285
0.225
0.155
0.075
0.025
-0.04
-0.09
-0.105
-0.14
-0.19
-0.24
-0.285
-0.325
-0.345
-0.36
-0.395
-0.42
-0.445
-0.465
-0.49
-0.49
-0.505
-0.525
-0.535
-0.56
-0.56
-0.565
-0.57
-0.575
-0.595
-0.61
-0.61
-0.6
-0.62
-0.625
-0.65
-0.65
-0.64
-0.625
-0.625
-0.64
-0.65
-0.65
-0.65
-0.65
-0.635
-0.635
-0.64
-0.655
-0.645
-0.63
-0.63
-0.625
-0.625
-0.64
-0.625
-0.61
-0.61
-0.62
-0.64
-0.63
-0.61
-0.59
-0.575
-0.59
-0.595
-0.605
-0.585
-0.57
-0.57
-0.575
-0.585
-0.595
-0.585
-0.575
-0.57
-0.585
-0.575
-0.58
-0.57
-0.545
-0.555
-0.565
-0.57
-0.57
-0.555
-0.54
-0.545
-0.565
-0.575
-0.555
-0.54
-0.52
-0.535
-0.545
-0.565
-0.565
-0.545
-0.525
-0.525
-0.54
-0.555
-0.56
-0.525
-0.515
-0.505
-0.495
-0.52
-0.535
-0.515
-0.51
-0.49
-0.51
-0.52
-0.51
-0.5
-0.48
-0.475
-0.485
-0.515
-0.515
-0.49
-0.47
-0.465
-0.47
-0.48
-0.475
-0.46
-0.45
-0.455
-0.46
-0.455
-0.46
-0.44
-0.425
-0.41
-0.415
-0.41
-0.405
-0.385
-0.36
-0.345
-0.32
-0.26
-0.105
0.245
0.815
1.425
1.81
1.85
1.715
1.58
1.515
1.425
1.335
1.215
1.08
0.96
0.845
0.725
0.59
0.445
0.265
0.07
-0.11
-0.315
-0.535
-0.76
-1.03
-1.295
-1.55
-1.765
-1.965
-2.13
-2.275
-2.37
-2.44
-2.49
-2.525
-2.545
-2.575
-2.61
-2.65
-2.725
-2.785
-2.835
-2.88
-2.925
-2.915
-2.87
-2.755
-2.545
-2.295
-2.045
-1.845
-1.695
-1.56
-1.46
-1.375
-1.29
-1.195
-1.13
-1.06
-1.0
-0.945
-0.89
-0.815
-0.74
-0.655
-0.55
-0.455
-0.315
-0.22
-0.13
-0.055
0.045
0.13
0.215
0.305
0.365
0.4
0.44
0.47
0.52
0.595
0.645
0.67
0.66
0.66
0.675
0.695
0.7
0.715
0.72
0.715
0.72
0.715
0.695
0.695
0.705
0.725
0.755
0.77
0.775
0.785
0.8
0.825
0.86
0.89
0.91
0.905
0.925
0.955
0.995
1.04
1.065
1.09
1.1
1.125
1.16
1.19
1.21
1.225
1.24
1.24
1.26
1.275
1.27
1.27
1.26
1.25
1.26
1.26
1.23
1.205
1.195
1.155
1.165
1.155
1.11
1.075
1.04
1.01
0.985
0.95
0.895
0.85
0.8
0.755
0.735
0.69
0.64
0.58
0.535
0.46
0.43
0.385
0.33
0.27
0.215
0.16
0.135
0.095
0.045
0.0
-0.055
-0.09
-0.12
-0.145
-0.17
-0.205
-0.24
-0.28
-0.285
-0.3
-0.33
-0.35
-0.365
-0.385
-0.4
-0.385
-0.4
-0.42
-0.435
-0.44
-0.43
-0.42
-0.42
-0.445
-0.455
-0.47
-0.46
-0.46
-0.465
-0.46
-0.455
-0.46
-0.45
-0.445
-0.445
-0.46
-0.46
-0.475
-0.46
-0.45
-0.45
-0.445
-0.45
-0.455
-0.45
-0.435
-0.425
-0.435
-0.45
-0.455
-0.44
-0.42
-0.425
-0.415
-0.425
-0.43
-0.415
-0.4
-0.39
-0.41
-0.4
-0.41
-0.4
-0.39
-0.39
-0.395
-0.39
-0.39
-0.385
-0.385
-0.395
-0.395
-0.41
-0.415
-0.4
-0.4
-0.405
-0.4
-0.405
-0.425
-0.425
-0.41
-0.415
-0.415
-0.415
-0.425
-0.405
-0.4
-0.4
-0.415
-0.415
-0.42
-0.43
-0.42
-0.415
-0.41
-0.42
-0.42
-0.42
-0.41
-0.41
-0.425
-0.42
-0.415
-0.405
-0.4
-0.425
-0.44
-0.435
-0.44
-0.415
-0.4
-0.405
-0.395
-0.41
-0.415
-0.4
-0.395
-0.395
-0.4
-0.415
-0.41
-0.39
-0.385
-0.41
-0.405
-0.42
-0.42
-0.39
-0.39
-0.38
-0.395
-0.395
-0.385
-0.365
-0.35
-0.36
-0.355
-0.35
-0.33
-0.28
-0.205
-0.09
0.185
0.655
1.25
1.725
1.885
1.815
1.695
1.59
1.53
1.475
1.38
1.29
1.17
1.065
0.955
0.855
0.765
0.65
0.535
0.385
0.23
0.08
-0.075
-0.275
-0.475
-0.675
-0.89
-1.115
-1.32
-1.535
-1.72
-1.9
-2.035
-2.13
-2.18
-2.225
-2.27
-2.305
-2.365
-2.43
-2.505
-2.585
-2.665
-2.75
-2.81
-2.85
-2.835
-2.755
-2.615
-2.445
-2.24
-2.045
-1.885
-1.75
-1.655
-1.56
-1.485
-1.39
-1.31
-1.27
-1.24
-1.215
-1.18
-1.125
-1.09
-1.07
-1.025
-0.97
-0.895
-0.8
-0.715
-0.67
-0.625
-0.575
-0.53
-0.455
-0.355
-0.29
-0.235
-0.16
-0.105
-0.05
0.025
0.09
0.12
0.15
0.16
0.17
0.18
0.195
0.225
0.24
0.25
0.265
0.305
0.325
0.33
0.35
0.355
0.39
0.43
0.455
0.465
0.48
0.5
0.53
0.565
0.595
0.62
0.65
0.675
0.715
0.75
0.79
0.815
0.835
0.86
0.905
0.945
0.97
0.99
1.0
1.025
1.065
1.095
1.11
1.115
1.14
1.14
1.135
1.15
1.16
1.15
1.145
1.135
1.14
1.14
1.13
1.11
1.065
1.03
1.01
1.03
0.995
0.95
0.915
0.86
0.84
0.805
0.76
0.715
0.665
0.605
0.56
0.55
0.485
0.435
0.375
0.325
0.28
0.23
0.19
0.14
0.09
0.035
0.0
-0.03
-0.06
-0.105
-0.135
-0.165
-0.195
-0.215
-0.245
-0.275
-0.295
-0.32
-0.325
-0.335
-0.35
-0.37
-0.39
-0.405
-0.4
-0.4
-0.415
-0.42
-0.435
-0.45
-0.44
-0.435
-0.45
-0.455
-0.475
-0.47
-0.455
-0.455
-0.465
-0.475
-0.485
-0.5
-0.485
-0.47
-0.47
-0.475
-0.49
-0.49
-0.48
-0.475
-0.485
-0.495
-0.5
-0.505
-0.48
-0.465
-0.455
-0.47
-0.485
-0.475
-0.48
-0.455
-0.46
-0.465
-0.47
-0.47
-0.45
-0.44
-0.445
-0.445
-0.445
-0.46
-0.465
-0.445
-0.445
