Lead II
-0.24
-0.255
-0.285
-0.305
-0.335
-0.325
-0.275
-0.16
0.0
0.225
0.5
0.82
1.17
1.525
1.83
2.095
2.23
2.29
2.255
2.145
1.92
1.55
1.04
0.485
0.0
-0.325
-0.47
-0.485
-0.42
-0.35
-0.295
-0.285
-0.3
-0.34
-0.38
-0.405
-0.4
-0.395
-0.385
-0.39
-0.405
-0.405
-0.415
-0.44
-0.43
-0.44
-0.44
-0.44
-0.43
-0.43
-0.445
-0.435
-0.455
-0.465
-0.47
-0.47
-0.475
-0.48
-0.485
-0.49
-0.485
-0.47
-0.48
-0.49
-0.5
-0.51
-0.515
-0.515
-0.52
-0.52
-0.52
-0.525
-0.52
-0.53
-0.535
-0.545
-0.555
-0.57
-0.565
-0.57
-0.575
-0.59
-0.575
-0.575
-0.575
-0.595
-0.6
-0.595
-0.615
-0.625
-0.63
-0.645
-0.64
-0.645
-0.655
-0.675
-0.66
-0.665
-0.675
-0.69
-0.71
-0.715
-0.735
-0.735
-0.745
-0.765
-0.785
-0.79
-0.8
-0.82
-0.82
-0.845
-0.87
-0.89
-0.91
-0.93
-0.95
-0.96
-0.98
-0.995
-1.005
-1.015
-1.04
-1.045
-1.07
-1.09
-1.11
-1.115
-1.125
-1.125
-1.13
-1.125
-1.115
-1.115
-1.115
-1.105
-1.095
-1.08
-1.07
-1.055
-1.02
-1.005
-0.975
-0.93
-0.875
-0.845
-0.8
-0.775
-0.75
-0.735
-0.72
-0.69
-0.66
-0.63
-0.595
-0.58
-0.545
-0.51
-0.5
-0.49
-0.475
-0.465
-0.46
-0.45
-0.44
-0.435
-0.43
-0.415
-0.4
-0.385
-0.39
-0.39
-0.395
-0.395
-0.395
-0.395
-0.39
-0.39
-0.39
-0.395
-0.375
-0.375
-0.375
-0.375
-0.385
-0.385
-0.39
-0.385
-0.39
-0.395
-0.385
-0.385
-0.365
-0.36
-0.36
-0.36
-0.37
-0.375
-0.37
-0.365
-0.38
-0.365
-0.355
-0.36
-0.35
-0.345
-0.345
-0.355
-0.35
-0.35
-0.365
-0.37
-0.365
-0.36
-0.345
-0.35
-0.34
-0.335
-0.34
-0.34
-0.33
-0.345
-0.345
-0.345
-0.335
-0.33
-0.33
-0.325
-0.305
-0.285
-0.29
-0.285
-0.29
-0.29
-0.295
-0.305
-0.305
-0.295
-0.275
-0.245
-0.215
-0.185
-0.18
-0.165
-0.155
-0.165
-0.18
-0.2
-0.205
-0.21
-0.225
-0.23
-0.235
-0.24
-0.255
-0.26
-0.285
-0.31
-0.325
-0.325
-0.315
-0.305
-0.31
-0.33
-0.355
-0.365
-0.395
-0.405
-0.415
-0.415
-0.42
-0.425
-0.43
-0.425
-0.42
-0.425
-0.42
-0.415
-0.415
-0.42
-0.425
-0.435
-0.435
-0.445
-0.445
-0.44
-0.44
-0.435
-0.43
-0.42
-0.42
-0.42
-0.43
-0.425
-0.425
-0.435
-0.435
-0.435
-0.43
-0.42
-0.415
-0.41
-0.42
-0.425
-0.46
-0.475
-0.505
-0.535
-0.535
-0.475
-0.34
-0.15
0.08
0.39
0.74
1.125
1.475
1.8
2.035
2.15
2.2
2.155
2.035
1.79
1.39
0.89
0.305
-0.2
-0.54
-0.69
-0.71
-0.645
-0.55
-0.475
-0.45
-0.455
-0.48
-0.52
-0.54
-0.56
-0.57
-0.565
-0.565
-0.555
-0.56
-0.565
-0.575
-0.57
-0.57
-0.56
-0.575
-0.59
-0.575
-0.58
-0.585
-0.59
-0.58
-0.59
-0.585
-0.585
-0.58
-0.57
-0.555
-0.55
-0.545
-0.53
-0.515
-0.51
-0.515
-0.51
-0.495
-0.49
-0.49
-0.505
-0.515
-0.53
-0.555
-0.565
-0.58
-0.58
-0.6
-0.595
-0.585
-0.59
-0.605
-0.625
-0.645
-0.66
-0.68
-0.695
-0.7
-0.705
-0.715
-0.73
-0.73
-0.745
-0.745
-0.775
-0.78
-0.795
-0.815
-0.825
-0.85
-0.85
-0.86
-0.87
-0.885
-0.895
-0.885
-0.895
-0.91
-0.93
-0.965
-0.965
-0.99
-1.005
-1.01
-1.01
-1.01
-1.02
-1.025
-1.025
-1.045
-1.055
-1.065
-1.075
-1.095
-1.1
-1.085
-1.08
-1.055
-1.03
-1.015
-0.97
-0.95
-0.93
-0.905
-0.89
-0.87
-0.825
-0.8
-0.77
-0.74
-0.715
-0.675
-0.655
-0.64
-0.625
-0.62
-0.605
-0.595
-0.59
-0.585
-0.58
-0.565
-0.56
-0.54
-0.525
-0.53
-0.525
-0.53
-0.53
-0.535
-0.54
-0.545
-0.535
-0.53
-0.53
-0.52
-0.52
-0.52
-0.52
-0.525
-0.535
-0.535
-0.55
-0.535
-0.535
-0.52
-0.535
-0.53
-0.52
-0.525
-0.52
-0.525
-0.53
-0.53
-0.54
-0.55
-0.54
-0.52
-0.525
-0.51
-0.505
-0.515
-0.52
-0.52
-0.52
-0.52
-0.53
-0.53
-0.52
-0.515
-0.51
-0.49
-0.485
-0.485
-0.485
-0.49
-0.495
-0.495
-0.51
-0.5
-0.505
-0.5
-0.49
-0.49
-0.48
-0.48
-0.475
-0.475
-0.485
-0.485
-0.495
-0.495
-0.5
-0.49
-0.48
-0.475
-0.475
-0.48
-0.48
-0.49
-0.49
-0.495
-0.51
-0.495
-0.485
-0.49
-0.49
-0.485
-0.49
-0.49
-0.5
-0.5
-0.51
-0.51
-0.52
-0.515
-0.525
-0.515
-0.515
-0.51
-0.48
-0.485
-0.495
-0.51
-0.52
-0.52
-0.525
-0.52
-0.515
-0.51
-0.51
-0.5
-0.505
-0.515
-0.52
-0.495
-0.5
-0.52
-0.525
-0.525
-0.515
-0.515
-0.51
-0.51
-0.505
-0.5
-0.505
-0.505
-0.505
-0.52
-0.525
-0.525
-0.51
-0.5
-0.505
-0.49
-0.495
-0.5
-0.51
-0.505
-0.52
-0.525
-0.52
-0.54
-0.525
-0.52
-0.53
-0.51
-0.5
-0.51
-0.51
-0.51
-0.52
-0.52
-0.525
-0.52
-0.525
-0.515
-0.51
-0.515
-0.5
-0.495
-0.505
-0.505
-0.51
-0.53
-0.53
-0.54
-0.535
-0.535
-0.535
-0.515
-0.515
-0.5
-0.5
-0.51
-0.515
-0.53
-0.53
-0.54
-0.53
-0.53
-0.515
-0.51
-0.515
-0.51
-0.52
-0.51
-0.51
-0.53
-0.53
-0.535
-0.525
-0.525
-0.525
-0.51
-0.5
-0.505
-0.51
-0.52
-0.525
-0.53
-0.54
-0.525
-0.53
-0.525
-0.515
-0.51
-0.505
-0.505
-0.51
-0.53
-0.525
-0.545
-0.535
-0.53
-0.52
-0.515
-0.515
-0.51
-0.5
-0.495
-0.505
-0.505
-0.515
-0.52
-0.525
-0.53
-0.52
-0.51
-0.5
-0.49
-0.49
-0.5
-0.5
-0.51
-0.515
-0.52
-0.53
-0.52
-0.515
-0.5
-0.515
-0.505
-0.505
-0.505
-0.5
-0.515
-0.505
-0.525
-0.52
-0.53
-0.515
-0.515
-0.505
-0.49
-0.49
-0.505
-0.51
-0.51
-0.51
-0.515
-0.52
-0.51
-0.525
-0.51
-0.51
-0.505
-0.485
-0.495
-0.5
-0.52
-0.51
-0.52
-0.53
-0.525
-0.51
-0.505
-0.5
-0.51
-0.505
-0.495
-0.505
-0.505
-0.51
-0.515
-0.525
-0.52
-0.51
-0.51
-0.495
-0.48
-0.485
-0.48
-0.47
-0.475
-0.465
-0.475
-0.465
-0.46
-0.44
-0.45
-0.425
-0.42
-0.415
-0.42
-0.43
-0.42
-0.44
-0.435
-0.42
-0.39
-0.365
-0.35
-0.315
-0.29
-0.295
-0.305
-0.315
-0.345
-0.375
-0.4
-0.435
-0.435
-0.435
-0.43
-0.435
-0.415
-0.415
-0.41
-0.425
-0.425
-0.435
-0.465
-0.485
-0.5
-0.52
-0.535
-0.535
-0.53
-0.515
-0.515
-0.5
-0.505
-0.515
-0.51
-0.525
-0.52
-0.515
-0.51
-0.51
-0.505
-0.495
-0.505
-0.5
-0.51
-0.505
-0.515
-0.52
-0.515
-0.515
-0.52
-0.515
-0.505
-0.5
-0.51
-0.53
-0.565
-0.6
-0.62
-0.585
-0.485
-0.32
-0.095
0.175
0.515
0.895
1.275
1.63
1.92
2.11
2.18
2.15
2.05
1.825
1.47
0.95
0.37
-0.165
-0.54
-0.72
-0.76
-0.71
-0.625
-0.555
-0.53
-0.55
-0.59
-0.62
-0.65
-0.65
-0.65
-0.645
-0.64
-0.655
-0.66
-0.675
-0.69
-0.685
-0.685
-0.685
-0.68
-0.67
-0.68
-0.68
-0.705
-0.715
-0.725
-0.72
-0.715
-0.72
-0.715
-0.71
-0.715
-0.715
-0.71
-0.715
-0.715
-0.74
-0.755
-0.755
-0.765
-0.77
-0.76
-0.75
-0.745
-0.745
-0.755
-0.775
-0.785
-0.775
-0.785
-0.8
-0.795
-0.8
-0.8
-0.8
-0.79
-0.795
-0.8
-0.8
-0.82
-0.825
-0.84
-0.85
-0.85
-0.865
-0.875
-0.88
-0.88
-0.875
-0.88
-0.895
-0.92
-0.935
-0.95
-0.97
-0.995
-0.99
-1.005
-1.005
-1.025
-1.03
-1.04
-1.06
-1.09
-1.105
-1.15
-1.165
-1.195
-1.205
-1.2
-1.205
-1.205
-1.215
-1.24
-1.245
-1.275
-1.28
-1.295
-1.295
-1.31
-1.31
-1.28
-1.265
-1.245
-1.225
-1.205
-1.18
-1.165
-1.14
-1.105
-1.07
-1.055
-1.025
-0.975
-0.945
-0.895
-0.875
-0.835
-0.8
-0.775
-0.755
-0.76
-0.75
-0.72
-0.7
-0.66
-0.64
-0.62
-0.59
-0.58
-0.585
-0.575
-0.565
-0.575
-0.575
-0.565
-0.555
-0.545
-0.535
-0.545
-0.52
-0.53
-0.51
-0.52
-0.54
-0.545
-0.54
-0.54
-0.545
-0.53
-0.525
-0.53
-0.51
-0.52
-0.52
-0.515
-0.515
-0.525
-0.535
-0.535
-0.52
-0.51
-0.505
-0.5
-0.5
-0.49
-0.5
-0.5
-0.505
-0.51
-0.505
-0.52
-0.515
-0.505
-0.5
-0.5
-0.485
-0.495
-0.485
-0.485
-0.495
-0.505
-0.505
-0.51
-0.505
-0.495
-0.485
-0.485
-0.48
-0.475
-0.48
-0.485
-0.495
-0.5
-0.485
-0.48
-0.475
-0.465
-0.455
-0.44
-0.425
-0.43
-0.42
-0.43
-0.425
-0.43
-0.435
-0.43
-0.425
-0.41
-0.38
-0.36
-0.34
-0.32
-0.3
-0.295
-0.295
-0.315
-0.335
-0.35
-0.365
-0.365
-0.375
-0.375
-0.385
-0.395
-0.41
-0.42
-0.435
-0.44
-0.455
-0.455
-0.46
-0.465
-0.48
-0.495
-0.51
-0.545
-0.545
-0.55
-0.55
-0.57
-0.57
-0.57
-0.565
-0.555
-0.54
-0.555
-0.545
-0.545
-0.56
-0.57
-0.57
-0.565
-0.57
-0.585
-0.575
-0.565
-0.555
-0.56
-0.555
-0.565
-0.565
-0.565
-0.565
-0.575
-0.58
-0.575
-0.575
-0.555
-0.55
-0.545
-0.545
-0.55
-0.555
-0.58
-0.625
-0.655
-0.67
-0.655
-0.555
-0.385
-0.16
0.115
0.465
0.86
1.245
1.595
1.865
2.035
2.09
2.05
1.875
1.545
1.065
0.455
-0.13
-0.57
-0.795
-0.85
-0.795
-0.7
-0.61
-0.575
-0.57
-0.6
-0.64
-0.685
-0.695
-0.695
-0.68
-0.675
-0.68
-0.675
-0.7
-0.7
-0.705
-0.705
-0.71
-0.695
-0.68
-0.68
-0.68
-0.695
-0.705
-0.715
-0.725
-0.725
-0.725
-0.72
-0.71
-0.7
-0.69
-0.685
-0.68
-0.67
-0.665
-0.66
-0.655
-0.65
-0.655
-0.66
-0.63
-0.635
-0.64
-0.65
-0.67
-0.68
-0.705
-0.725
-0.74
-0.745
-0.75
-0.755
-0.765
-0.765
-0.77
-0.79
-0.805
-0.81
-0.835
-0.85
-0.855
-0.885
-0.895
-0.905
-0.91
-0.905
-0.915
-0.925
-0.94
-0.955
-0.975
-1.0
-1.025
-1.03
-1.04
-1.045
-1.05
-1.075
-1.075
-1.09
-1.12
-1.135
-1.155
-1.16
-1.17
-1.19
-1.19
-1.2
-1.21
-1.205
-1.22
-1.215
-1.21
-1.215
-1.215
-1.205
-1.19
-1.175
-1.15
-1.12
-1.09
-1.065
-1.02
-0.99
-0.96
-0.935
-0.92
-0.895
-0.895
-0.875
-0.85
-0.815
-0.79
-0.765
-0.745
-0.73
-0.73
-0.725
-0.73
-0.725
-0.725
-0.72
-0.705
-0.7
-0.695
-0.69
-0.68
-0.685
-0.685
-0.675
-0.68
-0.68
-0.69
-0.7
-0.695
-0.685
-0.69
-0.685
-0.68
-0.68
-0.67
-0.67
-0.67
-0.69
-0.69
-0.695
-0.69
-0.685
-0.67
-0.685
-0.67
-0.675
-0.675
-0.675
-0.685
-0.695
-0.71
-0.695
-0.695
-0.69
-0.67
-0.66
-0.65
-0.65
-0.65
-0.655
-0.66
-0.675
-0.67
-0.675
-0.67
-0.665
-0.665
-0.655
-0.64
-0.635
-0.635
-0.655
-0.66
-0.665
-0.665
-0.67
-0.675
-0.66
-0.655
-0.65
-0.645
-0.655
-0.655
-0.66
-0.66
-0.66
-0.67
-0.675
-0.675
-0.66
-0.665
-0.66
-0.66
-0.665
-0.65
-0.665
-0.66
-0.665
-0.665
-0.675
-0.675
-0.67
-0.67
-0.665
-0.66
-0.66
-0.67
-0.675
-0.67
-0.67
-0.69
-0.69
-0.705
-0.695
-0.68
-0.68
-0.665
-0.66
-0.68
-0.68
-0.68
-0.685
-0.685
-0.685
-0.69
-0.7
-0.695
-0.695
-0.675
-0.67
-0.665
-0.675
-0.685
-0.69
-0.69
-0.705
-0.705
-0.695
-0.695
-0.695
-0.68
-0.675
-0.69
-0.69
-0.695
-0.705
-0.7
-0.7
-0.695
-0.69
-0.69
-0.685
-0.68
-0.69
-0.685
-0.695
-0.695
-0.69
-0.7
-0.72
-0.72
-0.7
-0.7
-0.7
-0.695
-0.685
-0.685
-0.68
-0.69
-0.695
-0.71
-0.705
-0.705
-0.695
-0.695
-0.69
-0.69
-0.68
-0.685
-0.69
-0.695
-0.705
-0.715
-0.71
-0.71
-0.715
-0.705
-0.695
-0.69
-0.7
-0.71
-0.7
-0.71
-0.715
-0.725
-0.72
-0.715
-0.71
-0.715
-0.695
-0.695
-0.69
-0.69
-0.7
-0.7
-0.705
-0.705
-0.72
-0.715
-0.71
-0.7
-0.695
-0.695
-0.7
-0.7
-0.705
-0.705
-0.725
-0.725
-0.72
-0.72
-0.71
-0.71
-0.7
-0.69
-0.69
-0.7
-0.705
-0.72
-0.715
-0.72
-0.725
-0.72
-0.725
-0.705
-0.705
-0.705
-0.685
-0.7
-0.71
-0.71
-0.73
-0.725
-0.725
-0.72
-0.715
-0.725
-0.71
-0.71
-0.7
-0.7
-0.69
-0.7
-0.705
-0.72
-0.72
-0.715
-0.7
-0.705
-0.705
-0.685
-0.69
-0.69
-0.705
-0.71
-0.71
-0.72
-0.72
-0.72
-0.715
-0.7
-0.685
-0.685
-0.685
-0.685
-0.69
-0.7
-0.71
-0.71
-0.725
-0.73
-0.71
-0.7
-0.7
-0.705
-0.695
-0.69
-0.705
-0.7
-0.71
-0.705
-0.715
-0.705
-0.725
-0.7
-0.695
-0.68
-0.69
-0.69
-0.69
-0.7
-0.705
-0.71
-0.705
-0.715
-0.705
-0.71
-0.7
-0.69
-0.695
-0.695
-0.695
-0.72
-0.715
-0.715
-0.71
-0.715
-0.705
-0.705
-0.69
-0.69
-0.695
-0.705
-0.7
-0.705
-0.7
-0.71
-0.715
-0.705
-0.7
-0.705
-0.695
-0.675
-0.67
-0.655
-0.66
-0.655
-0.64
-0.64
-0.645
-0.645
-0.635
-0.63
-0.63
-0.625
-0.62
-0.62
-0.6
-0.59
-0.565
-0.57
-0.55
-0.55
-0.535
-0.535
-0.535
-0.55
-0.58
-0.59
-0.61
-0.625
-0.63
-0.645
-0.66
-0.665
-0.66
-0.64
-0.64
-0.64
-0.635
-0.635
-0.655
-0.685
-0.7
-0.72
-0.735
-0.755
-0.75
-0.745
-0.72
-0.72
-0.725
-0.73
-0.72
-0.735
-0.745
-0.75
-0.74
-0.74
-0.735
-0.735
-0.735
-0.725
-0.72
-0.715
-0.73
-0.73
-0.73
-0.735
-0.73
-0.725
-0.715
-0.71
-0.72
-0.715
-0.74
-0.775
-0.815
-0.825
-0.82
-0.745
-0.625
-0.46
-0.245
0.015
0.315
0.65
0.985
1.295
1.57
1.765
1.86
1.88
1.845
1.755
1.56
1.225
0.745
0.175
-0.345
-0.715
-0.9
-0.95
-0.91
-0.84
-0.775
-0.755
-0.75
-0.785
-0.82
-0.845
-0.85
-0.865
-0.855
-0.855
-0.855
-0.865
-0.88
-0.895
-0.9
-0.905
-0.905
-0.89
-0.88
-0.885
-0.905
-0.91
-0.905
-0.915
-0.93
-0.935
-0.935
-0.92
-0.915
-0.905
-0.9
-0.915
-0.91
-0.925
-0.95
-0.95
-0.955
-0.97
-0.96
-0.955
-0.95
-0.96
-0.955
-0.965
-0.965
-0.97
-0.985
-0.98
-0.99
-1.01
-1.01
-0.995
-0.995
-0.995
-0.995
-1.01
-1.015
-1.025
-1.035
-1.04
-1.06
-1.065
-1.065
-1.055
-1.07
-1.075
-1.08
-1.095
-1.105
-1.115
-1.125
-1.145
-1.15
-1.155
-1.175
-1.175
-1.185
-1.185
-1.195
-1.22
-1.24
-1.27
-1.275
-1.295
-1.32
-1.335
-1.335
-1.355
-1.38
-1.375
-1.385
-1.395
-1.425
-1.43
-1.46
-1.475
-1.475
-1.485
-1.48
-1.47
-1.465
-1.435
-1.43
-1.415
-1.405
-1.385
-1.37
-1.345
-1.315
-1.29
-1.235
-1.19
-1.155
-1.105
-1.06
-1.05
-1.01
-0.985
-0.96
-0.945
-0.91
-0.895
-0.86
-0.84
-0.815
-0.795
-0.785
-0.76
-0.755
-0.76
-0.77
-0.75
-0.745
-0.75
-0.73
-0.72
-0.72
-0.71
-0.71
-0.705
-0.715
-0.71
-0.715
-0.72
-0.72
-0.71
-0.705
-0.695
-0.695
-0.68
-0.675
-0.685
-0.695
-0.695
-0.695
-0.69
-0.705
-0.695
-0.695
-0.68
-0.675
-0.665
-0.66
-0.66
-0.66
-0.665
-0.665
-0.67
-0.665
-0.665
-0.66
-0.645
-0.645
-0.625
-0.63
-0.62
-0.635
-0.65
-0.655
-0.66
-0.66
-0.655
-0.62
-0.615
-0.6
-0.585
-0.58
-0.57
-0.59
-0.585
-0.575
-0.57
-0.565
-0.565
-0.545
-0.53
-0.505
-0.475
-0.445
-0.44
-0.43
-0.435
-0.43
-0.455
-0.475
-0.475
-0.49
-0.495
-0.5
-0.515
-0.51
-0.525
-0.54
-0.565
-0.575
-0.575
-0.58
-0.58
-0.58
-0.59
-0.6
-0.615
-0.635
-0.66
-0.665
-0.68
-0.69
-0.69
-0.685
-0.68
-0.68
-0.68
-0.68
-0.67
-0.675
-0.68
-0.685
-0.685
-0.695
-0.69
-0.695
-0.695
-0.685
-0.675
-0.68
-0.68
-0.67
-0.675
-0.67
-0.675
-0.68
-0.685
-0.68
-0.675
-0.665
-0.665
-0.655
-0.655
-0.655
-0.665
-0.685
-0.725
-0.755
-0.79
-0.78
-0.73
-0.615
-0.425
-0.205
0.075
0.41
0.765
1.12
1.435
1.69
1.86
1.94
1.935
1.835
1.615
1.25
0.73
0.14
-0.4
-0.765
-0.93
-0.94
-0.855
-0.76
-0.67
-0.66
-0.665
-0.685
-0.71
-0.735
-0.75
-0.75
-0.74
-0.735
-0.74
-0.745
-0.75
-0.755
-0.76
-0.745
-0.745
-0.735
-0.735
-0.74
-0.75
-0.755
-0.76
-0.76
-0.77
-0.76
-0.735
-0.74
-0.74
-0.72
-0.71
-0.72
-0.71
-0.705
-0.695
-0.685
-0.66
-0.645
-0.635
-0.62
-0.615
-0.63
-0.64
-0.645
-0.665
-0.69
-0.71
-0.705
-0.71
-0.715
-0.715
-0.71
-0.7
-0.705
-0.725
-0.735
-0.76
-0.77
-0.785
-0.79
-0.79
-0.805
-0.81
-0.81
-0.815
-0.83
-0.835
-0.845
-0.86
-0.875
-0.875
-0.895
-0.895
-0.9
-0.91
-0.91
-0.925
-0.935
-0.93
-0.955
-0.965
-0.99
-1.0
-1.03
-1.025
-1.04
-1.035
-1.04
-1.035
-1.05
-1.075
-1.075
-1.085
-1.095
-1.105
-1.1
-1.09
-1.09
-1.065
-1.03
-0.99
-0.965
-0.93
-0.89
-0.855
-0.83
-0.805
-0.78
-0.745
-0.71
-0.665
-0.635
-0.6
-0.575
-0.565
-0.545
-0.53
-0.515
-0.515
-0.5
-0.49
-0.485
-0.465
-0.455
-0.435
-0.44
-0.415
-0.42
-0.435
-0.425
-0.42
-0.42
-0.4
-0.395
-0.385
-0.385
-0.365
-0.35
-0.355
-0.35
-0.37
-0.37
-0.355
-0.355
-0.35
-0.34
-0.34
-0.33
-0.32
-0.31
-0.3
-0.295
-0.3
-0.3
-0.305
-0.305
-0.295
-0.285
-0.27
-0.265
-0.245
-0.245
-0.24
-0.235
-0.24
-0.235
-0.235
-0.235
-0.24
-0.22
-0.21
-0.21
-0.18
-0.175
-0.18
-0.18
-0.2
-0.185
-0.19
-0.18
-0.17
-0.165
-0.145
-0.13
-0.125
-0.12
-0.12
-0.12
-0.125
-0.12
-0.12
-0.115
-0.105
-0.105
-0.095
-0.09
-0.065
-0.065
-0.055
-0.07
-0.07
-0.06
-0.065
-0.07
-0.055
-0.045
-0.035
-0.04
-0.02
-0.025
-0.005
-0.01
-0.02
-0.015
-0.015
-0.01
-0.01
0.0
0.015
0.01
0.035
0.045
0.04
0.05
0.04
0.03
0.035
0.03
0.05
0.055
0.075
0.08
0.1
0.095
0.105
0.105
0.115
0.1
0.095
0.115
0.115
0.12
0.13
0.135
0.13
0.13
0.14
0.135
0.14
0.155
0.145
0.155
0.155
0.16
0.175
0.185
0.185
0.2
0.19
0.2
0.195
0.19
0.195
0.195
0.195
0.2
0.2
0.215
0.24
0.245
0.245
0.235
0.23
0.23
0.225
0.22
0.22
0.245
0.24
0.25
0.26
0.27
0.265
0.275
0.27
0.28
0.27
0.27
0.27
0.27
0.285
0.285
0.295
0.305
0.31
0.32
0.305
0.305
0.31
0.3
0.31
0.315
0.32
0.325
0.33
0.33
0.33
0.335
0.33
0.335
0.33
0.33
0.34
0.335
0.345
0.36
0.37
0.375
0.385
0.38
0.38
0.375
0.37
0.365
0.36
0.375
0.365
0.375
0.39
0.4
0.385
0.395
0.38
0.38
0.38
0.38
0.385
0.39
0.405
0.405
0.42
0.425
0.43
0.42
0.41
0.41
0.415
0.415
0.42
0.42
0.44
0.44
0.445
0.445
0.435
0.44
0.43
0.435
0.415
0.425
0.42
0.43
0.435
0.45
0.45
0.465
0.465
0.47
0.47
0.455
0.45
0.445
0.45
0.44
0.45
0.46
0.46
0.475
0.465
0.46
0.465
0.47
0.465
0.46
0.47
0.47
0.47
0.475
0.485
0.49
0.495
0.485
0.475
0.48
0.47
0.47
0.475
0.47
0.48
0.495
0.495
0.495
0.5
0.505
0.49
0.485
0.48
0.47
0.475
0.465
0.485
0.48
0.495
0.495
0.515
0.5
0.5
0.485
0.48
0.48
0.47
0.48
0.485
0.505
0.5
0.515
0.515
0.5
0.48
0.475
0.5
0.49
0.495
0.495
0.515
0.53
0.545
0.56
0.575
0.565
0.565
0.56
0.54
0.53
0.545
0.55
0.565
0.565
0.585
0.61
0.61
0.625
0.635
0.655
0.655
0.645
0.635
0.62
0.61
0.6
0.59
0.585
0.56
0.555
0.55
0.535
0.525
0.525
0.53
0.525
0.52
0.525
0.515
0.515
0.48
0.465
0.465
0.455
0.45
0.435
0.45
0.445
0.44
0.455
0.465
0.465
0.46
0.455
0.44
0.44
0.44
0.42
0.425
0.43
0.435
0.445
0.435
0.435
0.445
0.44
0.435
0.425
0.41
0.4
0.365
0.35
0.335
0.315
0.315
0.335
0.41
0.53
0.69
0.89
1.105
1.35
1.615
1.855
2.035
2.145
2.185
2.18
2.14
2.075
1.975
1.74
1.415
1.01
0.64
0.37
0.235
0.205
0.26
0.315
0.365
0.37
0.355
0.335
0.295
0.26
0.245
0.235
0.255
0.265
0.25
0.255
0.24
0.24
0.24
0.225
0.215
0.2
0.205
0.19
0.195
0.205
0.205
0.195
0.195
0.19
0.175
0.165
0.16
0.15
0.135
0.145
0.14
0.145
0.145
0.145
0.145
0.145
0.125
0.115
0.105
0.09
0.095
0.085
0.085
0.085
0.085
0.07
0.075
0.065
0.065
0.05
0.025
0.035
0.04
0.02
0.025
0.03
0.02
0.03
0.015
0.0
-0.01
-0.025
-0.035
-0.055
-0.05
-0.055
-0.06
-0.055
-0.065
-0.075
-0.08
-0.09
-0.105
-0.125
-0.15
-0.165
-0.18
-0.2
-0.19
-0.21
-0.225
-0.225
-0.26
-0.285
-0.3
-0.33
-0.35
-0.375
-0.39
-0.415
-0.42
-0.44
-0.46
-0.475
-0.485
-0.51
-0.525
-0.535
-0.555
-0.57
-0.565
-0.57
-0.56
-0.56
-0.57
-0.56
-0.555
-0.55
-0.525
-0.51
-0.485
-0.45
-0.43
-0.39
-0.35
-0.315
-0.27
-0.235
-0.195
-0.16
-0.14
-0.115
-0.095
-0.07
-0.05
-0.025
0.0
0.01
0.04
0.08
0.09
0.095
0.105
0.115
0.12
0.13
0.135
0.15
0.135
0.14
0.145
0.155
0.15
0.155
0.145
0.145
0.145
0.15
0.13
0.135
0.15
0.155
0.17
0.165
0.17
0.165
0.155
0.16
0.14
0.125
0.13
0.145
0.145
0.155
0.155
0.155
0.155
0.15
0.145
0.14
0.14
0.135
0.125
0.14
0.145
0.15
0.16
0.16
0.155
0.145
0.14
0.135
0.145
0.13
0.12
0.125
0.135
0.14
0.15
0.16
0.16
0.16
0.16
0.16
0.165
0.165
0.175
0.165
0.175
0.185
0.175
0.18
0.175
0.17
0.165
0.165
0.185
0.2
0.21
0.235
0.265
0.285
0.29
0.285
0.265
0.24
0.215
0.195
0.175
0.17
0.15
0.145
0.155
0.145
0.15
0.14
0.135
0.13
0.125
0.105
0.095
0.06
0.03
0.02
0.005
0.0
0.02
0.02
0.02
0.0
-0.01
-0.025
-0.03
-0.025
-0.03
-0.025
-0.025
-0.02
-0.035
-0.025
-0.035
-0.03
-0.045
-0.045
-0.06
-0.06
-0.07
-0.065
-0.07
-0.065
-0.05
-0.045
-0.055
-0.06
-0.055
-0.06
-0.07
-0.07
-0.085
-0.09
-0.09
-0.085
-0.095
-0.11
-0.15
-0.18
-0.165
-0.11
-0.005
0.185
0.415
0.665
0.98
1.29
1.555
1.755
1.855
1.89
1.84
1.77
1.64
1.42
1.055
0.58
0.13
-0.175
-0.345
-0.37
-0.315
-0.245
-0.195
-0.155
-0.17
-0.2
-0.225
-0.25
-0.26
-0.27
-0.24
-0.24
-0.245
-0.25
-0.265
-0.275
-0.29
-0.3
-0.31
-0.31
-0.295
-0.305
-0.305
-0.29
-0.3
-0.295
-0.31
-0.325
-0.335
-0.345
-0.33
-0.33
-0.32
-0.315
-0.29
-0.27
-0.265
-0.26
-0.26
-0.265
-0.27
-0.29
-0.3
-0.315
-0.325
-0.32
-0.325
-0.315
-0.33
-0.345
-0.35
-0.36
-0.39
-0.405
-0.43
-0.45
-0.485
-0.485
-0.49
-0.475
-0.47
-0.48
-0.505
-0.525
-0.54
-0.555
-0.58
-0.58
-0.595
-0.595
-0.61
-0.615
-0.635
-0.645
-0.665
-0.68
-0.7
-0.72
-0.73
-0.75
-0.755
-0.775
-0.78
-0.785
-0.805
-0.82
-0.845
-0.865
-0.885
-0.9
-0.93
-0.955
-0.945
-0.96
-0.96
-0.965
-0.97
-0.975
-0.985
-0.985
-1.005
-0.99
-0.98
-0.96
-0.935
-0.91
-0.885
-0.855
-0.83
-0.805
-0.785
-0.76
-0.735
-0.715
-0.705
-0.66
-0.625
-0.605
-0.585
-0.565
-0.55
-0.54
-0.535
-0.525
-0.52
-0.52
-0.515
-0.51
-0.5
-0.48
-0.485
-0.475
-0.48
-0.485
-0.485
-0.495
-0.505
-0.505
-0.515
-0.505
-0.505
-0.505
-0.505
-0.505
-0.5
-0.5
-0.51
-0.52
-0.525
-0.54
-0.53
-0.535
-0.53
-0.525
-0.525
-0.525
-0.535
-0.54
-0.54
-0.545
-0.555
-0.56
-0.565
-0.555
-0.56
-0.55
-0.545
-0.535
-0.545
-0.55
-0.54
-0.55
-0.57
-0.57
-0.565
-0.57
-0.56
-0.545
-0.535
-0.525
-0.545
-0.54
-0.545
-0.545
-0.565
-0.575
-0.565
-0.555
-0.56
-0.56
-0.555
-0.55
-0.55
-0.55
-0.56
-0.56
-0.575
-0.585
-0.59
-0.585
-0.595
-0.59
-0.57
-0.565
-0.58
-0.585
-0.585
-0.6
-0.595
-0.615
-0.615
-0.615
-0.61
-0.6
-0.61
-0.61
-0.62
-0.62
-0.61
-0.62
-0.63
-0.645
-0.645
-0.64
-0.63
-0.625
-0.615
-0.625
-0.63
-0.63
-0.645
-0.635
-0.655
-0.66
-0.665
-0.665
-0.65
-0.65
-0.65
-0.64
-0.655
-0.66
-0.675
-0.68
-0.675
-0.69
-0.685
-0.68
-0.67
-0.68
-0.675
-0.675
-0.675
-0.695
-0.7
-0.71
-0.705
-0.71
-0.705
-0.705
-0.705
-0.695
-0.71
-0.695
-0.69
-0.7
-0.71
-0.715
-0.715
-0.735
-0.75
-0.745
-0.74
-0.725
-0.725
-0.725
-0.72
-0.72
-0.73
-0.745
-0.745
-0.755
-0.745
-0.755
-0.745
-0.745
-0.74
-0.725
-0.73
-0.74
-0.74
-0.75
-0.76
-0.76
-0.76
-0.755
-0.75
-0.74
-0.73
-0.745
-0.75
-0.74
-0.75
-0.765
-0.775
-0.78
-0.765
-0.775
-0.765
-0.77
-0.76
-0.755
-0.765
-0.78
-0.76
-0.775
-0.765
-0.78
-0.79
-0.775
-0.78
-0.77
-0.775
-0.765
-0.765
-0.77
-0.77
-0.78
-0.79
-0.805
-0.8
-0.79
-0.79
-0.775
-0.78
-0.775
-0.785
-0.79
-0.79
-0.795
-0.81
-0.81
-0.815
-0.815
-0.805
-0.8
-0.79
-0.795
-0.79
-0.805
-0.8
-0.81
-0.82
-0.825
-0.815
-0.82
-0.815
-0.82
-0.8
-0.8
-0.8
-0.8
-0.805
-0.815
-0.82
-0.83
-0.825
-0.82
-0.815
-0.825
-0.815
-0.815
-0.815
-0.81
-0.83
-0.825
-0.835
-0.83
-0.83
-0.825
-0.83
-0.82
-0.82
-0.815
-0.82
-0.82
-0.815
-0.825
-0.825
-0.825
-0.84
-0.83
-0.84
-0.83
-0.815
-0.82
-0.82
-0.81
-0.815
-0.825
-0.835
-0.835
-0.83
-0.82
-0.835
-0.825
-0.82
-0.81
-0.815
-0.81
-0.82
-0.825
-0.83
-0.84
-0.85
-0.835
-0.825
-0.81
-0.81
-0.795
-0.8
-0.795
-0.785
-0.78
-0.785
-0.78
-0.77
-0.76
-0.745
-0.74
-0.745
-0.74
-0.74
-0.74
-0.73
-0.73
-0.715
-0.71
-0.685
-0.66
-0.64
-0.625
-0.62
-0.625
-0.665
-0.68
-0.705
-0.725
-0.745
-0.76
-0.76
-0.75
-0.735
-0.735
-0.735
-0.715
-0.73
-0.73
-0.745
-0.765
-0.795
-0.815
-0.83
-0.83
-0.83
-0.815
-0.8
-0.795
-0.78
-0.78
-0.785
-0.805
-0.81
-0.815
-0.805
-0.82
-0.815
-0.795
-0.79
-0.78
-0.78
-0.775
-0.77
-0.775
-0.78
-0.79
-0.785
-0.785
-0.775
-0.785
-0.79
-0.8
-0.825
-0.865
-0.865
-0.82
-0.715
-0.555
-0.33
-0.045
0.29
0.66
1.01
1.315
1.51
1.62
1.605
1.54
1.375
1.085
0.635
0.095
-0.415
-0.765
-0.925
-0.96
-0.91
-0.83
-0.77
-0.76
-0.765
-0.805
-0.83
-0.87
-0.87
-0.885
-0.875
-0.85
-0.84
-0.85
-0.855
-0.87
-0.885
-0.89
-0.885
-0.885
-0.875
-0.875
-0.875
-0.87
-0.87
-0.865
-0.865
-0.875
-0.88
-0.88
-0.885
-0.885
-0.885
-0.875
-0.875
-0.865
-0.865
-0.865
-0.87
-0.88
-0.885
-0.89
-0.875
-0.885
-0.865
-0.85
-0.83
-0.82
-0.8
-0.795
-0.785
-0.765
-0.765
-0.765
-0.765
-0.76
-0.77
-0.77
-0.78
-0.79
-0.82
-0.825
-0.845
-0.87
-0.87
-0.87
-0.87
-0.885
-0.895
-0.9
-0.925
-0.93
-0.945
-0.96
-0.975
-1.015
-1.025
-1.05
-1.065
-1.09
-1.095
-1.115
-1.125
-1.135
-1.15
-1.175
-1.195
-1.21
-1.23
-1.26
-1.27
-1.28
-1.3
-1.3
-1.305
-1.305
-1.315
-1.325
-1.345
-1.345
-1.345
-1.355
-1.34
-1.33
-1.32
-1.295
-1.275
-1.235
-1.21
-1.19
-1.16
-1.125
-1.09
-1.06
-1.025
-0.98
-0.935
-0.89
-0.855
-0.815
-0.785
-0.75
-0.725
-0.715
-0.695
-0.675
-0.675
-0.64
-0.615
-0.59
-0.57
-0.535
-0.52
-0.51
-0.505
-0.505
-0.505
-0.505
-0.495
-0.495
-0.48
-0.49
-0.465
-0.455
-0.45
-0.46
-0.445
-0.455
-0.46
-0.455
-0.465
-0.465
-0.435
-0.425
-0.425
-0.41
-0.41
-0.415
-0.415
-0.415
-0.42
-0.42
-0.425
-0.415
-0.405
-0.385
-0.395
-0.39
-0.375
-0.38
-0.38
-0.38
-0.385
-0.375
-0.375
-0.375
-0.37
-0.365
-0.355
-0.35
-0.35
-0.335
-0.335
-0.345
-0.35
-0.35
-0.355
-0.35
-0.34
-0.34
-0.34
-0.33
-0.32
-0.31
-0.32
-0.315
-0.325
-0.335
-0.335
-0.325
-0.32
-0.31
-0.31
-0.31
-0.305
-0.32
-0.31
-0.315
-0.315
-0.33
-0.32
-0.32
-0.325
-0.32
-0.31
-0.305
-0.315
-0.31
-0.315
-0.325
-0.325
-0.33
-0.325
-0.32
-0.315
-0.325
-0.305
-0.31
-0.305
-0.305
-0.305
-0.305
-0.31
-0.325
-0.33
-0.32
-0.33
-0.335
-0.32
-0.3
-0.305
-0.31
-0.32
-0.325
-0.325
-0.325
-0.32
-0.325
-0.315
-0.315
-0.315
-0.31
-0.305
-0.315
-0.32
-0.315
-0.33
-0.34
-0.34
-0.335
-0.325
-0.325
-0.325
-0.31
-0.31
-0.305
-0.32
-0.32
-0.33
-0.335
-0.33
-0.33
-0.33
