Lead II
-0.96
-0.95
-0.93
-0.92
-0.895
-0.89
-0.88
-0.89
-0.885
-0.86
-0.86
-0.83
-0.815
-0.795
-0.77
-0.75
-0.73
-0.725
-0.72
-0.715
-0.735
-0.735
-0.725
-0.73
-0.715
-0.695
-0.7
-0.685
-0.7
-0.7
-0.71
-0.735
-0.745
-0.76
-0.785
-0.78
-0.79
-0.795
-0.805
-0.81
-0.83
-0.85
-0.875
-0.905
-0.935
-0.945
-0.98
-0.985
-1.0
-0.995
-1.0
-1.01
-1.02
-1.035
-1.02
-1.03
-1.05
-1.045
-1.06
-1.075
-1.07
-1.06
-1.05
-1.05
-1.04
-1.065
-1.08
-1.075
-1.085
-1.1
-1.1
-1.09
-1.085
-1.06
-1.04
-1.025
-1.035
-1.035
-1.03
-1.05
-1.055
-1.05
-1.075
-1.075
-1.075
-1.08
-1.085
-1.07
-1.065
-1.06
-1.085
-1.07
-1.1
-1.1
-1.105
-1.115
-1.1
-1.085
-1.085
-1.08
-1.085
-1.1
-1.115
-1.12
-1.135
-1.145
-1.145
-1.15
-1.145
-1.135
-1.135
-1.125
-1.115
-1.12
-1.135
-1.14
-1.165
-1.165
-1.17
-1.17
-1.155
-1.15
-1.15
-1.125
-1.13
-1.13
-1.135
-1.15
-1.145
-1.155
-1.175
-1.17
-1.165
-1.165
-1.15
-1.13
-1.13
-1.125
-1.125
-1.135
-1.13
-1.125
-1.125
-1.105
-1.055
-1.045
-1.03
-1.005
-1.005
-1.01
-1.02
-1.04
-1.04
-1.045
-1.025
-1.0
-0.965
-0.93
-0.925
-0.905
-0.92
-0.93
-0.95
-0.995
-1.005
-0.995
-0.995
-1.01
-1.02
-1.005
-1.01
-1.015
-1.05
-1.08
-1.09
-1.12
-1.15
-1.17
-1.195
-1.22
-1.225
-1.21
-1.19
-1.175
-1.155
-1.16
-1.155
-1.175
-1.18
-1.185
-1.195
-1.19
-1.19
-1.17
-1.17
-1.15
-1.145
-1.12
-1.075
-0.995
-0.85
-0.665
-0.42
-0.145
0.17
0.49
0.845
1.195
1.52
1.78
1.955
1.965
1.795
1.37
0.73
0.09
-0.55
-1.19
-1.735
-1.645
-1.4
-1.135
-0.935
-0.86
-0.87
-0.945
-1.035
-1.105
-1.15
-1.165
-1.145
-1.125
-1.12
-1.12
-1.12
-1.135
-1.145
-1.145
-1.14
-1.135
-1.13
-1.11
-1.095
-1.085
-1.07
-1.08
-1.085
-1.105
-1.105
-1.105
-1.095
-1.1
-1.1
-1.08
-1.055
-1.045
-1.03
-1.015
-1.005
-1.02
-1.01
-1.005
-1.005
-0.995
-0.995
-0.97
-0.95
-0.92
-0.91
-0.89
-0.89
-0.89
-0.895
-0.875
-0.86
-0.855
-0.825
-0.805
-0.79
-0.76
-0.735
-0.73
-0.72
-0.705
-0.72
-0.69
-0.7
-0.705
-0.7
-0.675
-0.66
-0.64
-0.64
-0.655
-0.65
-0.67
-0.675
-0.7
-0.72
-0.71
-0.73
-0.74
-0.73
-0.725
-0.725
-0.75
-0.78
-0.79
-0.83
-0.84
-0.87
-0.88
-0.905
-0.905
-0.925
-0.93
-0.935
-0.945
-0.96
-0.98
-0.99
-1.01
-1.005
-1.01
-1.02
-1.005
-1.0
-0.99
-0.985
-0.985
-0.995
-0.995
-1.02
-1.01
-1.0
-1.01
-1.005
-1.02
-0.995
-0.995
-0.995
-0.975
-0.98
-0.99
-0.985
-1.0
-1.005
-1.015
-1.015
-1.005
-1.0
-0.995
-0.995
-0.99
-1.02
-1.025
-1.015
-1.025
-1.035
-1.04
-1.035
-1.04
-1.03
-1.025
-1.035
-1.035
-1.035
-1.06
-1.06
-1.075
-1.075
-1.075
-1.09
-1.085
-1.07
-1.065
-1.055
-1.065
-1.06
-1.09
-1.08
-1.095
-1.095
-1.115
-1.1
-1.105
-1.085
-1.085
-1.08
-1.075
-1.08
-1.095
-1.105
-1.105
-1.11
-1.11
-1.105
-1.095
-1.11
-1.085
-1.085
-1.09
-1.09
-1.105
-1.105
-1.125
-1.095
-1.095
-1.06
-1.035
-1.01
-0.975
-0.97
-0.95
-0.955
-0.965
-0.98
-0.995
-1.005
-1.01
-0.995
-0.97
-0.95
-0.905
-0.885
-0.87
-0.88
-0.895
-0.925
-0.96
-0.96
-0.975
-0.985
-0.985
-0.985
-0.985
-1.0
-1.03
-1.055
-1.09
-1.115
-1.135
-1.175
-1.185
-1.19
-1.195
-1.195
-1.165
-1.155
-1.16
-1.165
-1.17
-1.18
-1.19
-1.18
-1.195
-1.19
-1.18
-1.18
-1.155
-1.125
-1.095
-1.005
-0.855
-0.655
-0.35
0.015
0.415
0.875
1.31
1.7
1.98
2.11
2.015
1.64
1.01
0.37
-0.27
-0.91
-1.55
-1.86
-1.645
-1.345
-1.085
-0.93
-0.895
-0.95
-1.05
-1.145
-1.19
-1.22
-1.225
-1.21
-1.2
-1.18
-1.185
-1.185
-1.185
-1.19
-1.195
-1.215
-1.22
-1.2
-1.22
-1.19
-1.175
-1.165
-1.155
-1.145
-1.14
-1.15
-1.15
-1.165
-1.15
-1.145
-1.14
-1.14
-1.135
-1.105
-1.09
-1.08
-1.07
-1.075
-1.06
-1.07
-1.07
-1.065
-1.05
-1.04
-1.02
-0.98
-0.96
-0.935
-0.93
-0.93
-0.935
-0.925
-0.925
-0.92
-0.91
-0.89
-0.87
-0.855
-0.84
-0.82
-0.815
-0.81
-0.785
-0.785
-0.78
-0.785
-0.79
-0.8
-0.785
-0.77
-0.77
-0.76
-0.775
-0.78
-0.82
-0.83
-0.86
-0.865
-0.87
-0.885
-0.89
-0.92
-0.91
-0.935
-0.955
-0.96
-1.0
-1.03
-1.07
-1.1
-1.135
-1.16
-1.125
-1.13
-1.13
-1.125
-1.13
-1.155
-1.16
-1.175
-1.185
-1.175
-1.185
-1.17
-1.175
-1.175
-1.165
-1.165
-1.17
-1.16
-1.165
-1.16
-1.165
-1.175
-1.175
-1.19
-1.175
-1.165
-1.165
-1.16
-1.16
-1.175
-1.18
-1.2
-1.195
-1.21
-1.21
-1.21
-1.19
-1.21
-1.185
-1.18
-1.21
-1.195
-1.215
-1.22
-1.23
-1.245
-1.25
-1.245
-1.235
-1.215
-1.22
-1.235
-1.225
-1.225
-1.23
-1.24
-1.25
-1.26
-1.265
-1.27
-1.265
-1.255
-1.25
-1.255
-1.25
-1.245
-1.25
-1.26
-1.27
-1.28
-1.28
-1.3
-1.28
-1.275
-1.265
-1.25
-1.26
-1.275
-1.285
-1.29
-1.285
-1.29
-1.285
-1.285
-1.28
-1.275
-1.275
-1.26
-1.26
-1.26
-1.265
-1.265
-1.265
-1.265
-1.255
-1.235
-1.22
-1.18
-1.18
-1.165
-1.16
-1.17
-1.17
-1.185
-1.175
-1.16
-1.16
-1.135
-1.11
-1.1
-1.09
-1.075
-1.07
-1.09
-1.11
-1.12
-1.14
-1.16
-1.165
-1.16
-1.155
-1.145
-1.15
-1.17
-1.2
-1.23
-1.28
-1.31
-1.325
-1.34
-1.355
-1.325
-1.315
-1.29
-1.285
-1.27
-1.26
-1.28
-1.28
-1.315
-1.315
-1.31
-1.315
-1.305
-1.285
-1.265
-1.23
-1.165
-1.045
-0.88
-0.635
-0.32
0.015
0.385
0.765
1.15
1.485
1.73
1.86
1.835
1.55
1.01
0.37
-0.27
-0.91
-1.55
-1.84
-1.715
-1.475
-1.235
-1.09
-1.035
-1.07
-1.145
-1.21
-1.28
-1.295
-1.29
-1.3
-1.29
-1.285
-1.285
-1.27
-1.265
-1.265
-1.26
-1.275
-1.27
-1.27
-1.26
-1.255
-1.24
-1.23
-1.23
-1.205
-1.195
-1.19
-1.195
-1.195
-1.205
-1.2
-1.205
-1.205
-1.19
-1.16
-1.155
-1.14
-1.13
-1.135
-1.135
-1.13
-1.12
-1.095
-1.11
-1.105
-1.07
-1.055
-1.04
-1.01
-0.98
-0.965
-0.945
-0.95
-0.935
-0.95
-0.94
-0.93
-0.91
-0.885
-0.86
-0.85
-0.845
-0.83
-0.825
-0.835
-0.83
-0.855
-0.84
-0.84
-0.845
-0.84
-0.845
-0.85
-0.85
-0.85
-0.865
-0.88
-0.91
-0.925
-0.935
-0.96
-0.975
-0.99
-1.005
-1.015
-1.025
-1.05
-1.05
-1.065
-1.085
-1.11
-1.13
-1.14
-1.155
-1.16
-1.15
-1.155
-1.14
-1.135
-1.14
-1.14
-1.135
-1.155
-1.165
-1.175
-1.175
-1.175
-1.165
-1.15
-1.13
-1.13
-1.13
-1.13
-1.165
-1.16
-1.17
-1.185
-1.165
-1.14
-1.135
-1.1
-1.095
-1.08
-1.08
-1.075
-1.075
-1.04
-1.02
-0.98
-0.92
-0.855
-0.785
-0.715
-0.645
-0.585
-0.535
-0.47
-0.425
-0.37
-0.295
-0.23
-0.11
-0.01
0.12
0.265
0.41
0.565
0.71
0.87
1.015
1.155
1.31
1.455
1.59
1.715
1.815
1.915
2.02
2.115
2.195
2.275
2.335
2.35
2.345
2.25
2.065
1.68
1.095
0.455
-0.185
-0.825
-1.22
-1.37
-1.41
-1.385
-1.4
-1.385
-1.43
-1.48
-1.535
-1.575
-1.595
-1.615
-1.61
-1.605
-1.585
-1.58
-1.59
-1.585
-1.61
-1.615
-1.625
-1.635
-1.645
-1.66
-1.66
-1.68
-1.7
-1.72
-1.74
-1.735
-1.75
-1.765
-1.775
-1.785
-1.79
-1.795
-1.805
-1.835
-1.86
-1.89
-1.89
-1.92
-1.93
-1.935
-1.95
-1.945
-1.955
-1.975
-1.97
-2.01
-2.025
-2.06
-2.075
-2.1
-2.105
-2.13
-2.135
-2.11
-2.11
-2.1
-2.11
-2.09
-2.09
-2.075
-2.06
-2.06
-2.035
-2.0
-1.955
-1.895
-1.86
-1.83
-1.785
-1.735
-1.695
-1.655
-1.625
-1.575
-1.515
-1.47
-1.435
-1.385
-1.325
-1.28
-1.25
-1.215
-1.205
-1.2
-1.19
-1.18
-1.17
-1.155
-1.13
-1.115
-1.1
-1.09
-1.09
-1.095
-1.1
-1.095
-1.1
-1.105
-1.1
-1.105
-1.09
-1.095
-1.08
-1.085
-1.08
-1.08
-1.085
-1.095
-1.105
-1.115
-1.135
-1.11
-1.1
-1.085
-1.085
-1.1
-1.085
-1.1
-1.115
-1.11
-1.125
-1.115
-1.115
-1.11
-1.105
-1.09
-1.085
-1.08
-1.09
-1.1
-1.1
-1.125
-1.125
-1.13
-1.13
-1.12
-1.115
-1.11
-1.08
-1.08
-1.085
-1.085
-1.09
-1.1
-1.12
-1.125
-1.13
-1.115
-1.1
-1.085
-1.08
-1.075
-1.08
-1.095
-1.095
-1.095
-1.105
-1.105
-1.105
-1.11
-1.09
-1.085
-1.07
-1.07
-1.065
-1.075
-1.09
-1.09
-1.085
-1.09
-1.1
-1.11
-1.08
-1.06
-1.065
-1.055
-1.055
-1.075
-1.075
-1.08
-1.085
-1.08
-1.085
-1.07
-1.06
-1.06
-1.045
-1.045
-1.06
-1.065
-1.085
-1.085
-1.085
-1.08
-1.08
-1.065
-1.05
-1.035
-1.03
-1.025
-1.03
-1.035
-1.05
-1.06
-1.055
-1.05
-1.045
-1.065
-1.045
-1.045
-1.04
-1.03
-1.05
-1.065
-1.05
-1.055
-1.055
-1.05
-1.045
-1.04
-1.035
-1.025
-1.015
-1.01
-1.02
-1.02
-1.025
-1.045
-1.05
-1.065
-1.08
-1.06
-1.035
-1.025
-1.01
-1.015
-1.015
-1.02
-1.03
-1.03
-1.035
-1.035
-1.04
-1.04
-1.015
-1.015
-1.005
-0.995
-1.01
-1.005
-1.015
-1.025
-1.03
-1.025
-1.03
-1.02
-1.015
-1.015
-1.0
-0.995
-0.99
-0.99
-0.985
-1.0
-1.0
-1.0
-1.005
-1.0
-0.995
-0.98
-0.97
-0.97
-0.98
-0.97
-0.97
-0.96
-0.945
-0.925
-0.91
-0.89
-0.865
-0.86
-0.85
-0.87
-0.88
-0.885
-0.89
-0.89
-0.855
-0.855
-0.835
-0.835
-0.815
-0.82
-0.81
-0.82
-0.825
-0.84
-0.84
-0.85
-0.855
-0.88
-0.885
-0.88
-0.88
-0.885
-0.9
-0.92
-0.945
-0.975
-1.0
-1.02
-1.04
-1.03
-1.04
-1.02
-1.01
-1.005
-0.99
-0.995
-0.99
-0.985
-0.99
-1.0
-1.01
-1.01
-0.995
-0.935
-0.86
-0.73
-0.545
-0.33
-0.1
0.145
0.4
0.695
1.005
1.33
1.61
1.835
1.865
1.655
1.175
0.535
-0.105
-0.745
-1.385
-1.5
-1.36
-1.125
-0.91
-0.78
-0.74
-0.78
-0.84
-0.925
-0.965
-1.0
-1.005
-0.99
-0.995
-1.02
-1.01
-1.005
-1.015
-1.025
-0.985
-0.995
-0.985
-0.995
-0.99
-0.985
-0.98
-0.99
-1.0
-0.98
-0.98
-0.975
-0.96
-0.95
-0.97
-0.94
-0.955
-0.945
-0.96
-0.945
-0.93
-0.915
-0.92
-0.91
-0.875
-0.865
-0.855
-0.85
-0.86
-0.86
-0.855
-0.85
-0.845
-0.81
-0.79
-0.77
-0.75
-0.74
-0.735
-0.74
-0.725
-0.715
-0.695
-0.68
-0.665
-0.65
-0.615
-0.62
-0.59
-0.56
-0.555
-0.555
-0.555
-0.54
-0.535
-0.52
-0.51
-0.49
-0.475
-0.46
-0.435
-0.44
-0.44
-0.435
-0.44
-0.445
-0.455
-0.435
-0.43
-0.43
-0.445
-0.44
-0.425
-0.435
-0.435
-0.44
-0.48
-0.515
-0.535
-0.565
-0.595
-0.605
-0.62
-0.635
-0.635
-0.645
-0.675
-0.69
-0.725
-0.755
-0.77
-0.775
-0.785
-0.78
-0.78
-0.785
-0.78
-0.785
-0.805
-0.83
-0.855
-0.85
-0.845
-0.85
-0.85
-0.835
-0.815
-0.82
-0.81
-0.815
-0.82
-0.835
-0.845
-0.85
-0.855
-0.86
-0.87
-0.865
-0.86
-0.855
-0.845
-0.845
-0.855
-0.855
-0.865
-0.88
-0.9
-0.915
-0.915
-0.905
-0.91
-0.9
-0.905
-0.91
-0.92
-0.93
-0.935
-0.95
-0.96
-0.97
-0.975
-0.97
-0.955
-0.95
-0.955
-0.96
-0.97
-0.975
-0.975
-0.99
-1.0
-1.01
-1.01
-1.015
-1.005
-0.985
-0.97
-0.97
-0.99
-0.985
-1.005
-1.0
-1.015
-1.03
-1.02
-1.025
-1.025
-1.025
-1.015
-1.0
-1.01
-1.005
-1.025
-1.03
-1.06
-1.055
-1.06
-1.035
-1.025
-1.03
-1.005
-0.965
-0.965
-0.92
-0.925
-0.945
-0.935
-0.925
-0.935
-0.925
-0.915
-0.92
-0.89
-0.885
-0.875
-0.865
-0.845
-0.83
-0.835
-0.86
-0.9
-0.895
-0.9
-0.895
-0.885
-0.91
-0.905
-0.93
-0.95
-0.985
-1.02
-1.04
-1.06
-1.08
-1.09
-1.1
-1.115
-1.135
-1.135
-1.14
-1.14
-1.12
-1.115
-1.125
-1.12
-1.115
-1.1
-1.095
-1.095
-1.095
-1.115
-1.12
-1.125
-1.11
-1.09
-1.015
-0.9
-0.725
-0.485
-0.21
0.105
0.46
0.83
1.23
1.55
1.755
1.8
1.615
1.115
0.475
-0.165
-0.805
-1.445
-1.76
-1.605
-1.32
-1.055
-0.915
-0.86
-0.905
-0.985
-1.08
-1.115
-1.15
-1.13
-1.11
-1.095
-1.09
-1.1
-1.115
-1.12
-1.13
-1.125
-1.125
-1.11
-1.1
-1.08
-1.065
-1.06
-1.06
-1.065
-1.08
-1.09
-1.08
-1.065
-1.06
-1.045
-1.045
-1.025
-1.015
-1.015
-1.025
-1.015
-1.02
-1.005
-1.01
-1.005
-0.995
-0.97
-0.955
-0.93
-0.925
-0.91
-0.92
-0.92
-0.91
-0.915
-0.915
-0.895
-0.875
-0.84
-0.815
-0.8
-0.795
-0.79
-0.775
-0.78
-0.78
-0.775
-0.785
-0.775
-0.78
-0.775
-0.77
-0.755
-0.765
-0.76
-0.765
-0.79
-0.805
-0.815
-0.825
-0.825
-0.845
-0.855
-0.85
-0.865
-0.885
-0.905
-0.915
-0.935
-0.955
-0.975
-0.995
-0.995
-0.995
-1.02
-1.02
-1.03
-1.035
-1.055
-1.065
-1.085
-1.105
-1.11
-1.12
-1.15
-1.14
-1.135
-1.135
-1.11
-1.11
-1.105
-1.135
-1.13
-1.135
-1.13
-1.145
-1.14
-1.16
-1.145
-1.155
-1.155
-1.15
-1.145
-1.13
-1.13
-1.145
-1.145
-1.155
-1.15
-1.155
-1.15
-1.145
-1.135
-1.135
-1.155
-1.155
-1.16
-1.165
-1.19
-1.18
-1.19
-1.19
-1.185
-1.18
-1.165
-1.175
-1.16
-1.195
-1.195
-1.22
-1.23
-1.24
-1.22
-1.235
-1.22
-1.22
-1.205
-1.2
-1.2
-1.215
-1.215
-1.215
-1.235
-1.245
-1.255
-1.255
-1.245
-1.235
-1.235
-1.225
-1.215
-1.23
-1.235
-1.24
-1.24
-1.25
-1.255
-1.25
-1.25
-1.245
-1.25
-1.235
-1.245
-1.255
-1.245
-1.24
-1.23
-1.22
-1.215
-1.19
-1.165
-1.17
-1.17
-1.13
-1.135
-1.155
-1.175
-1.17
-1.155
-1.155
-1.14
-1.105
-1.08
-1.06
-1.045
-1.045
-1.08
-1.085
-1.105
-1.13
-1.155
-1.16
-1.155
-1.17
-1.155
-1.155
-1.155
-1.175
-1.2
-1.22
-1.25
-1.27
-1.3
-1.32
-1.35
-1.345
-1.34
-1.33
-1.32
-1.31
-1.3
-1.3
-1.29
-1.3
-1.305
-1.31
-1.31
-1.315
-1.305
-1.29
-1.275
-1.26
-1.22
-1.135
-1.025
-0.815
-0.545
-0.22
0.155
0.545
0.945
1.31
1.59
1.75
1.705
1.425
0.9
0.26
-0.38
-1.02
-1.66
-1.965
-1.885
-1.65
-1.4
-1.215
-1.12
-1.09
-1.14
-1.205
-1.28
-1.315
-1.335
-1.345
-1.315
-1.32
-1.29
-1.3
-1.305
-1.31
-1.3
-1.31
-1.31
-1.31
-1.3
-1.285
-1.28
-1.275
-1.255
-1.26
-1.255
-1.265
-1.245
-1.26
-1.27
-1.255
-1.255
-1.235
-1.215
-1.21
-1.195
-1.18
-1.175
-1.17
-1.19
-1.18
-1.175
-1.17
-1.165
-1.15
-1.135
-1.115
-1.1
-1.085
-1.065
-1.055
-1.05
-1.045
-1.03
-1.015
-1.005
-0.98
-0.965
-0.945
-0.93
-0.915
-0.92
-0.905
-0.905
-0.905
-0.925
-0.895
-0.91
-0.905
-0.9
-0.89
-0.9
-0.895
-0.9
-0.925
-0.95
-0.96
-0.97
-1.0
-1.0
-1.005
-1.005
-1.02
-1.015
-1.03
-1.055
-1.075
-1.105
-1.13
-1.16
-1.175
-1.195
-1.23
-1.225
-1.22
-1.22
-1.225
-1.235
-1.225
-1.24
-1.26
-1.27
-1.27
-1.28
-1.265
-1.265
-1.24
-1.255
-1.24
-1.245
-1.255
-1.265
-1.275
-1.275
-1.25
-1.255
-1.245
-1.23
-1.215
-1.22
-1.2
-1.2
-1.225
-1.215
-1.215
-1.22
-1.215
-1.245
-1.225
-1.21
-1.21
-1.21
-1.205
-1.205
-1.21
-1.215
-1.24
-1.235
-1.265
-1.275
-1.25
-1.265
-1.245
-1.23
-1.23
-1.23
-1.225
-1.25
-1.265
-1.275
-1.27
-1.26
-1.255
-1.26
-1.255
-1.235
-1.245
-1.25
-1.245
-1.245
-1.27
-1.295
-1.285
-1.285
-1.265
-1.27
-1.25
-1.245
-1.23
-1.24
-1.24
-1.24
-1.255
-1.265
-1.28
-1.28
-1.27
-1.26
-1.27
-1.235
-1.22
-1.225
-1.215
-1.215
-1.22
-1.23
-1.205
-1.195
-1.17
-1.155
-1.135
-1.11
-1.09
-1.085
-1.1
-1.095
-1.1
-1.115
-1.115
-1.105
-1.085
-1.045
-1.03
-1.0
-0.98
-0.975
-0.995
-1.005
-1.05
-1.06
-1.07
-1.09
-1.065
-1.075
-1.055
-1.04
-1.04
-1.06
-1.085
-1.1
-1.13
-1.15
-1.18
-1.195
-1.235
-1.21
-1.225
-1.215
-1.195
-1.19
-1.18
-1.175
-1.185
-1.195
-1.195
-1.215
-1.2
-1.195
-1.18
-1.18
-1.165
-1.165
-1.135
-1.105
-1.04
-0.94
-0.76
-0.54
-0.26
0.065
0.41
0.785
1.12
1.425
1.62
1.675
1.52
1.13
0.515
-0.125
-0.765
-1.405
-1.77
-1.75
-1.545
-1.3
-1.1
-0.965
-0.93
-0.97
-1.03
-1.1
-1.14
-1.14
-1.145
-1.155
-1.11
-1.115
-1.125
-1.125
-1.12
-1.145
-1.15
-1.135
-1.12
-1.115
-1.095
-1.095
-1.085
-1.075
-1.06
-1.08
-1.08
-1.095
-1.085
-1.085
-1.075
-1.055
-1.04
-1.03
-1.02
-1.02
-1.005
-1.02
-1.02
-1.01
-1.005
-1.005
-0.995
-0.98
-0.965
-0.955
-0.93
-0.92
-0.925
-0.92
-0.925
-0.905
-0.89
-0.885
-0.85
-0.84
-0.81
-0.8
-0.78
-0.775
-0.76
-0.75
-0.745
-0.745
-0.745
-0.735
-0.71
-0.705
-0.69
-0.68
-0.67
-0.695
-0.685
-0.685
-0.715
-0.71
-0.73
-0.735
-0.75
-0.74
-0.74
-0.735
-0.73
-0.75
-0.775
-0.785
-0.825
-0.83
-0.845
-0.87
-0.89
-0.89
-0.905
-0.9
-0.895
-0.925
-0.94
-0.965
-0.98
-0.99
-1.005
-0.995
-1.01
-1.0
-1.0
-0.995
-0.99
-1.01
-1.02
-1.025
-1.04
-1.035
-1.055
-1.055
-1.055
-1.045
-1.02
-0.995
-0.985
-0.985
-0.995
-1.0
-1.025
-1.015
-1.045
-1.025
-1.025
-1.005
-1.01
-1.005
-0.985
-0.975
-0.98
-0.985
-0.995
-1.0
-1.025
-1.035
-1.04
-1.025
-1.02
-1.015
-1.005
-1.01
-1.015
-1.015
-1.025
-1.05
-1.075
-1.05
-1.055
-1.06
-1.06
-1.045
-1.035
-1.055
-1.045
-1.06
-1.055
-1.085
-1.085
-1.085
-1.095
-1.085
-1.075
-1.055
-1.055
-1.045
-1.05
-1.065
-1.06
-1.09
-1.085
-1.08
-1.075
-1.075
-1.08
-1.06
-1.055
-1.04
-1.04
-1.05
-1.07
-1.065
-1.08
-1.095
-1.075
-1.065
-1.03
-1.01
-0.975
-0.955
-0.955
-0.945
-0.96
-0.955
-0.945
-0.94
-0.945
-0.93
-0.93
-0.915
-0.9
-0.885
-0.87
-0.855
-0.845
-0.845
-0.855
-0.875
-0.89
-0.895
-0.9
-0.9
-0.91
-0.915
-0.93
-0.935
-0.975
-1.02
-1.055
-1.07
-1.08
-1.09
-1.09
-1.09
-1.08
-1.07
-1.08
-1.075
-1.08
-1.1
-1.095
-1.1
-1.1
-1.09
-1.07
-1.09
-1.085
-1.075
-1.075
-1.06
-1.02
-0.97
-0.87
-0.7
-0.465
-0.175
0.155
0.52
0.9
1.275
1.6
1.815
1.895
1.76
1.36
0.72
0.08
-0.56
-1.2
-1.66
-1.61
-1.38
-1.11
-0.905
-0.795
-0.785
-0.86
-0.94
-1.01
-1.06
-1.065
-1.065
-1.045
-1.04
-1.04
-1.04
-1.04
-1.035
-1.065
-1.065
-1.065
-1.045
-1.035
-1.02
-1.015
-0.995
-1.0
-1.0
-1.005
-1.02
-1.01
-1.005
-1.01
-0.99
-0.965
-0.96
-0.95
-0.945
-0.94
-0.945
-0.94
-0.95
-0.945
-0.945
-0.915
-0.91
-0.895
-0.87
-0.855
-0.855
-0.84
-0.84
-0.835
-0.82
-0.81
-0.795
-0.785
-0.765
-0.745
-0.71
-0.705
-0.68
-0.655
-0.655
-0.64
-0.645
-0.64
-0.625
-0.635
-0.625
-0.595
-0.59
-0.57
-0.57
-0.58
-0.6
-0.605
-0.61
-0.625
-0.62
-0.62
-0.615
-0.645
-0.635
-0.64
-0.645
-0.665
-0.685
-0.71
-0.74
-0.745
-0.765
-0.79
-0.8
-0.82
-0.82
-0.815
-0.84
-0.865
-0.895
-0.905
-0.92
-0.925
-0.94
-0.935
-0.93
-0.925
-0.915
-0.9
-0.925
-0.93
-0.94
-0.925
-0.95
-0.955
-0.98
-0.975
-0.975
-0.955
-0.94
-0.925
-0.925
-0.92
-0.925
-0.925
-0.93
-0.95
-0.95
-0.95
-0.95
-0.94
-0.935
-0.925
-0.925
-0.92
-0.925
-0.925
-0.955
-0.94
-0.96
-0.97
-0.95
-0.935
-0.935
-0.935
-0.935
-0.96
-0.96
-0.975
-0.985
-0.985
-0.985
-1.0
-1.005
-0.985
-0.985
-0.98
-0.965
-0.97
-0.985
-0.995
-1.01
-1.02
-1.025
-1.025
-1.025
-1.03
-1.015
-1.005
-1.025
-1.015
-1.005
-1.0
-1.005
-1.045
-1.035
-1.03
-1.01
-0.99
-0.995
-0.99
-0.985
-0.99
-1.025
-1.035
-1.01
-1.025
-1.03
-1.035
-1.025
-1.02
-0.99
-0.975
-0.965
-0.96
-0.95
-0.95
-0.93
-0.92
-0.905
-0.9
-0.88
-0.885
-0.875
-0.865
-0.875
-0.88
-0.89
-0.895
-0.87
-0.855
-0.835
-0.84
-0.845
-0.84
-0.85
-0.84
-0.85
-0.86
-0.855
-0.87
-0.885
-0.91
-0.935
-0.99
-0.99
-1.0
-1.01
-1.025
-1.055
-1.055
-1.075
-1.095
-1.085
-1.085
-1.085
-1.085
-1.08
-1.065
-1.06
-1.06
-1.065
-1.065
-1.095
-1.095
-1.08
-1.075
-1.03
-0.965
-0.825
-0.63
-0.35
-0.02
0.375
0.78
1.215
1.595
1.86
1.965
1.825
1.37
0.73
0.09
-0.55
-1.19
-1.75
-1.635
-1.37
-1.06
-0.875
-0.795
-0.815
-0.9
-1.01
-1.055
-1.095
-1.09
-1.085
-1.06
-1.035
-1.05
-1.055
-1.065
-1.09
-1.085
-1.075
-1.065
-1.05
-1.04
-1.025
-1.025
-1.035
-1.035
-1.045
-1.015
-1.025
-1.02
-1.02
-1.0
-0.995
-0.975
-0.97
-0.96
-0.965
-0.955
-0.96
-0.955
-0.975
-0.975
-0.93
-0.905
-0.89
-0.875
-0.87
-0.86
-0.845
-0.835
-0.84
-0.82
-0.805
-0.79
-0.76
-0.735
-0.715
-0.69
-0.685
-0.68
-0.665
-0.665
-0.66
-0.655
-0.66
-0.65
-0.645
-0.64
-0.62
-0.62
-0.63
-0.64
-0.64
-0.68
-0.685
-0.695
-0.7
-0.71
-0.715
-0.725
-0.735
-0.75
-0.75
-0.79
-0.805
-0.845
-0.85
-0.88
-0.905
-0.925
-0.945
-0.96
-0.97
-0.98
-1.015
-1.0
-1.015
-1.025
-1.03
-1.055
-1.075
-1.065
-1.06
-1.06
-1.055
-1.06
-1.05
-1.05
-1.065
-1.065
-1.075
-1.075
-1.08
-1.105
-1.08
-1.075
-1.055
-1.045
-1.04
-1.05
-1.055
-1.06
-1.075
-1.07
-1.075
-1.08
-1.085
-1.075
-1.06
-1.06
-1.055
-1.065
-1.06
-1.08
-1.1
-1.095
-1.1
-1.11
-1.11
-1.11
-1.095
-1.09
-1.1
-1.09
-1.105
-1.125
-1.125
-1.13
-1.15
-1.145
-1.14
-1.13
-1.14
-1.125
-1.145
-1.135
-1.145
-1.155
-1.17
-1.17
-1.175
-1.19
-1.165
-1.165
-1.15
-1.14
-1.14
-1.15
-1.16
-1.18
-1.185
-1.18
-1.195
-1.185
-1.17
-1.17
-1.165
-1.155
-1.155
-1.165
-1.17
-1.175
-1.18
-1.195
-1.195
-1.205
-1.195
-1.185
-1.17
-1.15
-1.135
-1.12
-1.095
-1.085
-1.08
-1.07
-1.07
-1.075
-1.065
-1.065
-1.065
-1.06
-1.06
-1.07
-1.06
-1.05
-1.025
-1.005
-0.99
-1.0
-0.995
-0.985
-0.985
-1.005
-1.005
-1.015
-1.025
-1.045
-1.05
-1.04
-1.06
-1.065
-1.07
-1.08
-1.105
-1.105
-1.135
-1.16
-1.175
-1.195
-1.22
-1.24
-1.25
-1.23
-1.22
-1.21
-1.2
-1.2
-1.19
-1.205
-1.21
-1.21
-1.19
-1.19
-1.2
-1.205
-1.205
-1.18
-1.175
-1.11
-1.03
-0.9
-0.745
-0.495
-0.23
0.09
0.455
0.865
1.275
1.635
1.885
2.0
1.88
1.485
0.845
0.205
-0.435
-1.075
-1.715
-1.81
-1.57
-1.275
-1.03
-0.895
-0.865
-0.945
-1.045
-1.105
-1.165
-1.205
-1.19
-1.175
-1.17
-1.17
-1.15
-1.15
-1.155
-1.145
-1.13
-1.135
-1.15
-1.155
-1.14
-1.14
-1.13
-1.11
-1.11
-1.085
-1.085
-1.09
-1.1
-1.085
-1.07
-1.08
-1.06
-1.075
-1.065
-1.05
-1.045
-1.025
-1.005
-1.0
-1.005
-0.995
-1.015
-1.01
-0.995
-0.985
-0.96
-0.945
-0.93
-0.905
-0.885
-0.865
-0.865
-0.835
-0.825
-0.81
-0.8
-0.79
-0.775
-0.76
-0.74
-0.71
-0.7
-0.69
-0.68
-0.675
-0.68
-0.68
-0.68
-0.68
-0.685
-0.68
-0.68
-0.68
-0.69
-0.685
-0.695
-0.72
-0.735
-0.75
-0.79
-0.8
-0.815
-0.815
-0.845
-0.85
-0.875
-0.905
-0.935
-0.96
-0.985
-1.01
-1.035
-1.045
-1.055
-1.05
-1.05
-1.05
-1.05
-1.045
-1.06
-1.055
-1.08
-1.085
-1.09
-1.085
-1.075
-1.075
-1.06
-1.04
-1.035
-1.04
-1.045
-1.05
-1.075
-1.08
-1.08
-1.085
-1.08
-1.07
-1.07
-1.045
-1.045
-1.05
-1.055
-1.065
-1.06
-1.075
-1.07
-1.08
-1.075
-1.07
-1.06
-1.075
-1.065
-1.065
-1.07
-1.09
-1.095
-1.105
-1.115
-1.11
-1.11
-1.1
-1.1
-1.095
-1.095
-1.09
-1.105
-1.115
-1.135
-1.13
-1.14
-1.155
-1.14
-1.145
-1.12
-1.105
-1.09
-1.09
-1.095
-1.12
-1.115
-1.125
-1.12
-1.115
-1.12
-1.12
-1.115
-1.125
-1.12
-1.135
-1.135
-1.145
-1.12
-1.12
-1.14
-1.14
-1.125
-1.105
-1.09
-1.085
-1.075
-1.075
-1.055
-1.05
-1.035
-1.025
-0.995
-0.985
-0.98
-0.96
-0.95
-0.94
-0.925
-0.94
-0.93
-0.93
-0.91
-0.89
-0.895
-0.885
-0.895
-0.915
-0.905
-0.905
-0.92
-0.905
-0.91
-0.93
-0.96
-0.96
-0.965
-0.985
-1.01
-1.025
-1.05
-1.05
-1.08
-1.115
-1.125
-1.145
-1.155
-1.14
-1.135
-1.135
-1.125
-1.11
-1.105
-1.105
-1.1
-1.105
-1.1
-1.115
-1.13
-1.14
-1.14
-1.12
-1.115
-1.02
-0.915
-0.75
-0.53
-0.265
0.02
0.345
0.735
1.15
1.52
1.835
2.055
2.12
1.98
1.59
0.95
0.31
-0.33
-0.97
-1.61
-1.685
-1.405
-1.11
-0.885
-0.795
-0.815
-0.89
-0.98
-1.065
-1.105
-1.115
-1.11
-1.105
-1.105
-1.105
-1.115
-1.12
-1.115
-1.1
-1.09
-1.09
-1.095
-1.085
-1.085
-1.095
-1.095
-1.08
-1.085
-1.055
-1.045
-1.02
-1.02
-1.025
-1.03
-1.03
-1.05
-1.04
-1.04
-1.015
-1.005
-0.99
-0.97
-0.935
-0.92
-0.91
-0.905
-0.905
-0.915
-0.92
-0.91
-0.905
-0.875
-0.87
-0.84
-0.81
-0.81
-0.775
-0.765
-0.755
-0.73
-0.73
-0.7
-0.685
-0.675
-0.655
-0.645
-0.635
-0.63
-0.615
-0.625
-0.645
-0.64
-0.635
-0.645
-0.65
-0.64
-0.64
-0.635
-0.64
-0.645
-0.665
-0.675
-0.705
-0.735
-0.76
-0.785
-0.825
-0.84
-0.845
-0.865
-0.85
-0.875
-0.895
-0.915
-0.93
-0.945
-0.975
-0.985
-0.995
-0.995
-1.0
-1.01
-1.0
-0.99
-0.995
-1.005
-1.02
-1.02
-1.025
-1.01
-1.015
-1.01
-1.0
-1.0
-0.985
-0.965
-0.98
-0.995
-1.005
-1.005
-1.02
-1.03
-1.045
-1.04
-1.025
-1.015
-0.99
-0.99
-0.995
-1.005
-1.005
-1.02
-1.025
-1.04
-1.045
-1.06
-1.065
-1.04
-1.04
-1.025
-1.035
-1.04
-1.045
-1.08
-1.08
-1.08
-1.075
-1.075
-1.07
-1.065
-1.06
-1.07
-1.075
-1.09
-1.1
-1.105
-1.11
-1.115
-1.11
-1.11
-1.105
-1.09
-1.09
-1.085
-1.085
-1.11
-1.115
-1.125
-1.135
-1.135
-1.135
-1.135
-1.125
-1.11
-1.115
-1.115
-1.115
-1.11
-1.13
-1.13
-1.145
-1.14
-1.15
-1.145
-1.13
-1.135
-1.135
-1.12
-1.13
-1.135
-1.13
-1.135
-1.125
-1.105
-1.09
-1.065
-1.06
-1.035
-1.03
-1.025
-1.035
-1.035
-1.04
-1.045
-1.045
-1.035
-1.035
-1.03
-0.985
-0.96
-0.925
-0.9
-0.94
-0.955
-0.985
-1.005
-1.035
-1.045
-1.06
-1.045
-1.035
-1.03
-1.05
-1.075
-1.1
-1.12
-1.135
-1.175
-1.2
-1.23
-1.235
-1.235
-1.23
-1.205
-1.19
-1.19
-1.195
-1.205
-1.21
-1.21
-1.21
-1.195
-1.215
-1.21
-1.21
-1.205
-1.19
-1.135
-1.07
-0.965
-0.86
-0.685
-0.485
-0.185
0.135
0.53
0.975
1.425
1.785
2.03
2.115
1.98
1.59
0.95
0.31
-0.33
-0.97
-1.61
-1.755
-1.545
-1.28
-1.045
-0.905
-0.895
-0.945
-1.035
-1.12
-1.17
-1.2
-1.21
-1.2
-1.195
-1.175
-1.17
-1.185
-1.185
-1.19
-1.2
-1.2
-1.195
-1.2
-1.185
-1.18
-1.165
-1.15
-1.145
-1.15
-1.145
-1.15
-1.165
-1.17
-1.175
-1.16
-1.15
-1.13
-1.115
-1.095
-1.075
-1.075
-1.065
-1.075
-1.07
-1.07
-1.07
-1.07
-1.05
-1.03
-1.005
-0.995
-0.97
-0.96
-0.945
-0.94
-0.94
-0.93
-0.925
-0.905
-0.9
-0.87
-0.85
-0.83
-0.82
-0.8
-0.805
-0.785
-0.765
-0.765
-0.76
-0.755
-0.73
-0.73
-0.73
-0.72
-0.7
-0.715
-0.72
-0.72
-0.745
-0.755
-0.765
-0.77
-0.775
-0.77
-0.775
-0.785
-0.815
-0.835
-0.86
-0.91
-0.93
-0.96
-0.975
-0.995
-1.015
-1.025
-1.045
-1.03
-1.05
-1.075
-1.075
-1.105
-1.125
-1.15
-1.16
-1.17
-1.16
-1.16
-1.16
-1.155
-1.135
-1.13
-1.145
-1.135
-1.135
-1.15
-1.165
-1.17
-1.155
-1.14
-1.145
-1.13
-1.125
-1.12
-1.14
-1.125
-1.15
-1.15
-1.15
-1.15
-1.155
-1.14
-1.13
-1.125
-1.12
-1.135
-1.135
-1.145
-1.155
-1.165
-1.16
-1.16
-1.16
-1.155
-1.17
-1.17
-1.16
-1.165
-1.18
-1.185
-1.2
-1.19
-1.205
-1.22
-1.21
-1.205
-1.205
-1.205
-1.2
-1.205
-1.21
-1.22
-1.215
-1.225
-1.23
-1.24
-1.25
-1.245
-1.235
-1.245
-1.22
-1.23
-1.22
-1.245
-1.255
-1.275
-1.285
-1.295
-1.295
-1.275
-1.265
-1.245
-1.25
-1.26
-1.245
-1.255
-1.26
-1.27
-1.265
-1.275
-1.275
-1.26
-1.265
-1.245
-1.23
-1.21
-1.18
-1.18
-1.175
-1.185
