Lead II
-0.825
-0.85
-0.875
-0.91
-0.93
-0.93
-0.935
-0.93
-0.92
-0.895
-0.885
-0.88
-0.9
-0.93
-0.98
-1.02
-1.09
-1.115
-1.09
-1.055
-1.02
-1.02
-1.0
-1.015
-1.035
-1.065
-1.095
-1.12
-1.14
-1.145
-1.125
-1.09
-1.085
-1.09
-1.11
-1.14
-1.14
-1.135
-1.125
-1.095
-1.08
-1.08
-1.065
-1.06
-1.055
-1.05
-1.04
-1.015
-0.985
-0.965
-0.935
-0.915
-0.905
-0.885
-0.855
-0.81
-0.79
-0.78
-0.77
-0.805
-0.815
-0.795
-0.775
-0.775
-0.77
-0.755
-0.76
-0.74
-0.735
-0.72
-0.71
-0.715
-0.72
-0.725
-0.725
-0.715
-0.7
-0.68
-0.69
-0.705
-0.72
-0.74
-0.715
-0.725
-0.71
-0.715
-0.73
-0.75
-0.775
-0.78
-0.785
-0.76
-0.74
-0.735
-0.715
-0.71
-0.71
-0.72
-0.735
-0.755
-0.77
-0.805
-0.805
-0.805
-0.815
-0.8
-0.79
-0.76
-0.745
-0.735
-0.77
-0.8
-0.81
-0.82
-0.795
-0.79
-0.775
-0.785
-0.775
-0.785
-0.765
-0.775
-0.76
-0.77
-0.78
-0.755
-0.765
-0.75
-0.76
-0.75
-0.735
-0.735
-0.765
-0.785
-0.815
-0.82
-0.785
-0.765
-0.755
-0.74
-0.74
-0.74
-0.735
-0.73
-0.73
-0.71
-0.715
-0.72
-0.72
-0.71
-0.695
-0.7
-0.675
-0.655
-0.64
-0.655
-0.635
-0.595
-0.58
-0.545
-0.525
-0.515
-0.51
-0.505
-0.525
-0.515
-0.53
-0.545
-0.565
-0.585
-0.595
-0.595
-0.59
-0.555
-0.535
-0.515
-0.51
-0.53
-0.585
-0.66
-0.72
-0.76
-0.775
-0.78
-0.765
-0.765
-0.76
-0.785
-0.79
-0.8
-0.81
-0.77
-0.765
-0.765
-0.78
-0.795
-0.82
-0.84
-0.835
-0.845
-0.83
-0.815
-0.805
-0.82
-0.81
-0.825
-0.835
-0.835
-0.82
-0.825
-0.835
-0.835
-0.845
-0.84
-0.835
-0.81
-0.81
-0.84
-0.87
-0.895
-0.89
-0.895
-0.83
-0.785
-0.74
-0.67
-0.595
-0.475
-0.325
-0.15
0.01
0.13
0.145
0.1
0.065
0.08
0.175
0.35
0.535
0.61
0.515
0.18
-0.34
-0.955
-1.505
-1.915
-2.11
-2.18
-2.165
-2.14
-2.15
-2.175
-2.215
-2.235
-2.25
-2.225
-2.195
-2.155
-2.135
-2.1
-2.085
-2.075
-2.045
-1.97
-1.82
-1.665
-1.5
-1.335
-1.21
-1.11
-1.03
-0.995
-0.965
-0.94
-0.93
-0.915
-0.915
-0.92
-0.95
-0.95
-0.905
-0.89
-0.87
-0.865
-0.85
-0.845
-0.855
-0.845
-0.86
-0.855
-0.885
-0.91
-0.925
-0.94
-0.945
-0.925
-0.91
-0.905
-0.91
-0.93
-0.945
-0.955
-0.975
-0.985
-1.025
-1.06
-1.11
-1.11
-1.085
-1.075
-1.055
-1.055
-1.06
-1.07
-1.09
-1.095
-1.105
-1.08
-1.085
-1.09
-1.09
-1.12
-1.135
-1.135
-1.13
-1.09
-1.05
-1.025
-1.0
-1.005
-0.985
-0.99
-0.96
-0.93
-0.91
-0.92
-0.915
-0.89
-0.87
-0.855
-0.825
-0.82
-0.805
-0.775
-0.78
-0.745
-0.735
-0.755
-0.765
-0.78
-0.79
-0.785
-0.78
-0.775
-0.74
-0.74
-0.72
-0.7
-0.69
-0.695
-0.72
-0.745
-0.74
-0.73
-0.725
-0.705
-0.675
-0.66
-0.65
-0.68
-0.71
-0.765
-0.76
-0.775
-0.775
-0.755
-0.74
-0.725
-0.73
-0.76
-0.765
-0.765
-0.745
-0.745
-0.77
-0.8
-0.81
-0.805
-0.82
-0.825
-0.815
-0.795
-0.775
-0.78
-0.77
-0.775
-0.765
-0.75
-0.75
-0.755
-0.78
-0.82
-0.86
-0.81
-0.81
-0.785
-0.76
-0.765
-0.76
-0.75
-0.77
-0.785
-0.8
-0.825
-0.815
-0.81
-0.795
-0.795
-0.77
-0.765
-0.765
-0.765
-0.77
-0.785
-0.77
-0.78
-0.755
-0.745
-0.715
-0.71
-0.685
-0.695
-0.68
-0.665
-0.66
-0.655
-0.655
-0.655
-0.66
-0.66
-0.645
-0.615
-0.575
-0.53
-0.52
-0.545
-0.54
-0.56
-0.565
-0.58
-0.575
-0.58
-0.555
-0.535
-0.515
-0.51
-0.51
-0.515
-0.53
-0.545
-0.565
-0.605
-0.64
-0.645
-0.66
-0.69
-0.695
-0.72
-0.75
-0.77
-0.81
-0.835
-0.835
-0.83
-0.815
-0.78
-0.76
-0.75
-0.745
-0.765
-0.795
-0.86
-0.865
-0.85
-0.815
-0.815
-0.82
-0.785
-0.78
-0.75
-0.75
-0.77
-0.815
-0.82
-0.88
-0.9
-0.885
-0.86
-0.825
-0.815
-0.785
-0.78
-0.795
-0.795
-0.825
-0.82
-0.75
-0.635
-0.465
-0.31
-0.135
0.02
0.075
0.07
0.045
0.015
0.075
0.19
0.365
0.5
0.555
0.42
0.075
-0.425
-0.985
-1.48
-1.82
-2.035
-2.12
-2.16
-2.205
-2.205
-2.21
-2.2
-2.16
-2.145
-2.13
-2.135
-2.115
-2.105
-2.07
-1.995
-1.91
-1.795
-1.64
-1.485
-1.36
-1.275
-1.195
-1.125
-1.045
-1.0
-0.98
-0.945
-0.95
-0.935
-0.93
-0.925
-0.92
-0.9
-0.865
-0.845
-0.84
-0.83
-0.855
-0.86
-0.875
-0.885
-0.88
-0.885
-0.905
-0.91
-0.905
-0.89
-0.86
-0.86
-0.89
-0.935
-1.0
-1.035
-1.07
-1.065
-1.05
-1.035
-1.01
-1.01
-1.015
-1.02
-1.03
-1.025
-1.045
-1.085
-1.105
-1.145
-1.15
-1.14
-1.13
-1.14
-1.12
-1.135
-1.125
-1.115
-1.095
-1.1
-1.085
-1.095
-1.1
-1.1
-1.095
-1.075
-1.03
-1.025
-1.01
-0.96
-0.955
-0.92
-0.895
-0.905
-0.885
-0.885
-0.855
-0.825
-0.805
-0.78
-0.745
-0.745
-0.75
-0.775
-0.795
-0.81
-0.795
-0.78
-0.75
-0.725
-0.705
-0.71
-0.715
-0.74
-0.76
-0.77
-0.785
-0.78
-0.78
-0.755
-0.755
-0.725
-0.73
-0.73
-0.71
-0.705
-0.72
-0.745
-0.785
-0.815
-0.815
-0.78
-0.76
-0.755
-0.75
-0.775
-0.8
-0.805
-0.835
-0.835
-0.83
-0.81
-0.8
-0.775
-0.76
-0.77
-0.76
-0.79
-0.8
-0.805
-0.82
-0.83
-0.835
-0.83
-0.825
-0.815
-0.785
-0.78
-0.77
-0.77
-0.77
-0.78
-0.775
-0.755
-0.745
-0.745
-0.76
-0.78
-0.81
-0.8
-0.79
-0.775
-0.755
-0.745
-0.735
-0.765
-0.77
-0.805
-0.84
-0.84
-0.81
-0.775
-0.745
-0.73
-0.705
-0.73
-0.75
-0.74
-0.725
-0.71
-0.7
-0.66
-0.61
-0.59
-0.575
-0.575
-0.585
-0.595
-0.59
-0.56
-0.53
-0.51
-0.52
-0.545
-0.555
-0.575
-0.595
-0.58
-0.58
-0.57
-0.55
-0.53
-0.53
-0.55
-0.575
-0.59
-0.6
-0.62
-0.635
-0.68
-0.71
-0.74
-0.77
-0.8
-0.8
-0.81
-0.8
-0.785
-0.775
-0.79
-0.8
-0.795
-0.795
-0.785
-0.785
-0.8
-0.835
-0.88
-0.905
-0.915
-0.91
-0.88
-0.845
-0.79
-0.765
-0.765
-0.775
-0.8
-0.845
-0.875
-0.86
-0.86
-0.855
-0.865
-0.85
-0.84
-0.81
-0.8
-0.785
-0.765
-0.685
-0.555
-0.385
-0.16
0.05
0.175
0.235
0.185
0.115
0.1
0.12
0.23
0.395
0.53
0.55
0.4
0.045
-0.435
-0.985
-1.465
-1.795
-1.99
-2.08
-2.105
-2.12
-2.125
-2.165
-2.175
-2.165
-2.16
-2.17
-2.165
-2.16
-2.14
-2.105
-2.025
-1.955
-1.85
-1.71
-1.525
-1.34
-1.17
-1.055
-0.99
-0.95
-0.935
-0.945
-0.935
-0.925
-0.91
-0.895
-0.885
-0.89
-0.885
-0.895
-0.885
-0.87
-0.84
-0.83
-0.84
-0.875
-0.905
-0.925
-0.925
-0.905
-0.9
-0.915
-0.93
-0.94
-0.965
-0.945
-0.935
-0.93
-0.945
-0.98
-1.0
-1.015
-1.005
-1.015
-1.015
-1.035
-1.055
-1.075
-1.105
-1.125
-1.155
-1.16
-1.135
-1.125
-1.08
-1.075
-1.09
-1.125
-1.15
-1.165
-1.15
-1.13
-1.14
-1.085
-1.05
-0.995
-0.965
-0.95
-0.94
-0.945
-0.96
-0.95
-0.95
-0.95
-0.93
-0.9
-0.855
-0.8
-0.75
-0.72
-0.71
-0.72
-0.755
-0.765
-0.78
-0.79
-0.785
-0.765
-0.745
-0.73
-0.72
-0.72
-0.715
-0.69
-0.67
-0.675
-0.71
-0.725
-0.75
-0.76
-0.75
-0.74
-0.72
-0.715
-0.73
-0.75
-0.71
-0.725
-0.695
-0.695
-0.715
-0.75
-0.785
-0.79
-0.79
-0.765
-0.745
-0.73
-0.705
-0.705
-0.735
-0.775
-0.785
-0.77
-0.775
-0.785
-0.795
-0.8
-0.815
-0.81
-0.8
-0.78
-0.765
-0.76
-0.77
-0.77
-0.775
-0.77
-0.765
-0.745
-0.755
-0.765
-0.775
-0.805
-0.825
-0.835
-0.83
-0.815
-0.795
-0.79
-0.8
-0.775
-0.775
-0.775
-0.77
-0.78
-0.76
-0.755
-0.735
-0.73
-0.74
-0.755
-0.77
-0.77
-0.75
-0.7
-0.655
-0.655
-0.69
-0.735
-0.75
-0.73
-0.675
-0.665
-0.635
-0.635
-0.66
-0.655
-0.655
-0.64
-0.6
-0.55
-0.53
-0.51
-0.505
-0.53
-0.555
-0.575
-0.585
-0.585
-0.555
-0.57
-0.555
-0.56
-0.555
-0.57
-0.575
-0.56
-0.535
-0.505
-0.5
-0.535
-0.575
-0.64
-0.675
-0.73
-0.79
-0.835
-0.86
-0.875
-0.875
-0.845
-0.795
-0.775
-0.76
-0.795
-0.82
-0.855
-0.87
-0.86
-0.84
-0.84
-0.84
-0.825
-0.835
-0.805
-0.78
-0.805
-0.84
-0.88
-0.905
-0.895
-0.855
-0.82
-0.785
-0.77
-0.78
-0.81
-0.84
-0.855
-0.85
-0.82
-0.82
-0.825
-0.84
-0.795
-0.71
-0.545
-0.36
-0.165
-0.025
0.055
0.09
0.08
0.05
0.055
0.095
0.235
0.39
0.56
0.65
0.585
0.315
-0.155
-0.725
-1.28
-1.705
-1.94
-2.045
-2.075
-2.085
-2.12
-2.145
-2.19
-2.2
-2.2
-2.16
-2.165
-2.155
-2.145
-2.145
-2.115
-2.09
-2.03
-1.92
-1.77
-1.62
-1.48
-1.345
-1.22
-1.15
-1.08
-1.045
-1.01
-0.99
-0.96
-0.94
-0.95
-0.93
-0.915
-0.915
-0.91
-0.92
-0.92
-0.905
-0.9
-0.915
-0.89
-0.845
-0.835
-0.83
-0.84
-0.865
-0.9
-0.915
-0.92
-0.925
-0.91
-0.895
-0.89
-0.905
-0.94
-0.96
-0.985
-0.99
-0.99
-1.015
-1.03
-1.045
-1.065
-1.075
-1.105
-1.1
-1.075
-1.045
-1.06
-1.065
-1.105
-1.115
-1.14
-1.155
-1.175
-1.16
-1.15
-1.11
-1.085
-1.08
-1.08
-1.09
-1.095
-1.075
-1.065
-1.045
-1.02
-0.995
-0.975
-0.97
-0.94
-0.92
-0.885
-0.88
-0.89
-0.9
-0.91
-0.885
-0.84
-0.795
-0.755
-0.725
-0.745
-0.76
-0.785
-0.805
-0.775
-0.74
-0.715
-0.705
-0.7
-0.705
-0.69
-0.665
-0.665
-0.68
-0.69
-0.71
-0.72
-0.72
-0.715
-0.725
-0.74
-0.72
-0.725
-0.72
-0.74
-0.73
-0.765
-0.755
-0.76
-0.78
-0.77
-0.765
-0.765
-0.77
-0.75
-0.75
-0.77
-0.745
-0.74
-0.775
-0.8
-0.83
-0.845
-0.825
-0.775
-0.74
-0.72
-0.745
-0.76
-0.81
-0.83
-0.845
-0.835
-0.835
-0.815
-0.795
-0.785
-0.77
-0.77
-0.76
-0.755
-0.76
-0.775
-0.77
-0.795
-0.825
-0.805
-0.79
-0.765
-0.715
-0.71
-0.72
-0.75
-0.77
-0.8
-0.805
-0.775
-0.75
-0.72
-0.715
-0.705
-0.72
-0.735
-0.74
-0.725
-0.73
-0.725
-0.725
-0.725
-0.73
-0.71
-0.69
-0.65
-0.655
-0.645
-0.66
-0.655
-0.635
-0.585
-0.545
-0.51
-0.49
-0.5
-0.525
-0.54
-0.56
-0.575
-0.59
-0.62
-0.6
-0.58
-0.53
-0.485
-0.465
-0.455
-0.46
-0.485
-0.51
-0.525
-0.52
-0.555
-0.585
-0.675
-0.775
-0.82
-0.83
-0.8
-0.775
-0.775
-0.785
-0.79
-0.805
-0.82
-0.82
-0.83
-0.81
-0.76
-0.725
-0.685
-0.735
-0.82
-0.87
-0.9
-0.875
-0.835
-0.815
-0.815
-0.805
-0.81
-0.805
-0.8
-0.795
-0.785
-0.785
-0.79
-0.78
-0.775
-0.79
-0.795
-0.8
-0.81
-0.815
-0.815
-0.78
-0.705
-0.565
-0.37
-0.16
0.01
0.17
0.21
0.19
0.135
0.095
0.15
0.265
0.425
0.54
0.55
0.38
0.015
-0.47
-1.015
-1.475
-1.815
-1.985
-2.065
-2.105
-2.105
-2.13
-2.135
-2.16
-2.17
-2.15
-2.155
-2.13
-2.115
-2.11
-2.09
-2.045
-1.98
-1.875
-1.74
-1.585
-1.455
-1.335
-1.22
-1.135
-1.045
-1.0
-0.975
-0.95
-0.935
-0.91
-0.9
-0.875
-0.875
-0.87
-0.875
-0.885
-0.89
-0.9
-0.9
-0.9
-0.895
-0.895
-0.88
-0.875
-0.87
-0.88
-0.9
-0.93
-0.945
-0.965
-0.96
-0.975
-0.98
-1.03
-1.05
-1.05
-1.06
-1.06
-1.055
-1.045
-1.06
-1.09
-1.11
-1.125
-1.165
-1.175
-1.18
-1.155
-1.135
-1.125
-1.13
-1.125
-1.155
-1.185
-1.19
-1.195
-1.185
-1.17
-1.16
-1.14
-1.12
-1.12
-1.085
-1.065
-1.075
-1.09
-1.095
-1.06
-1.01
-0.96
-0.945
-0.905
-0.915
-0.91
-0.895
-0.88
-0.875
-0.85
-0.83
-0.805
-0.79
-0.785
-0.79
-0.78
-0.79
-0.775
-0.77
-0.76
-0.76
-0.745
-0.75
-0.765
-0.78
-0.8
-0.775
-0.785
-0.785
-0.755
-0.735
-0.73
-0.74
-0.77
-0.8
-0.8
-0.795
-0.79
-0.765
-0.755
-0.775
-0.77
-0.78
-0.79
-0.805
-0.805
-0.845
-0.895
-0.895
-0.885
-0.86
-0.82
-0.775
-0.77
-0.78
-0.805
-0.85
-0.865
-0.84
-0.825
-0.8
-0.79
-0.805
-0.84
-0.84
-0.87
-0.88
-0.86
-0.825
-0.815
-0.79
-0.795
-0.79
-0.825
-0.815
-0.81
-0.795
-0.755
-0.75
-0.76
-0.805
-0.835
-0.845
-0.875
-0.845
-0.82
-0.79
-0.77
-0.77
-0.77
-0.8
-0.815
-0.815
-0.815
-0.8
-0.785
-0.77
-0.76
-0.755
-0.74
-0.74
-0.74
-0.72
-0.71
-0.71
-0.705
-0.71
-0.7
-0.71
-0.675
-0.66
-0.63
-0.6
-0.56
-0.525
-0.515
-0.555
-0.575
-0.595
-0.625
-0.63
-0.63
-0.625
-0.625
-0.6
-0.545
-0.53
-0.515
-0.53
-0.56
-0.62
-0.635
-0.66
-0.68
-0.695
-0.72
-0.755
-0.775
-0.805
-0.805
-0.805
-0.795
-0.8
-0.79
-0.8
-0.815
-0.805
-0.8
-0.825
-0.825
-0.82
-0.85
-0.83
-0.85
-0.86
-0.85
-0.835
-0.815
-0.79
-0.8
-0.805
-0.815
-0.82
-0.835
-0.845
-0.845
-0.835
-0.815
-0.83
-0.81
-0.8
-0.82
-0.83
-0.825
-0.815
-0.75
-0.64
-0.48
-0.28
-0.1
0.055
0.155
0.165
0.135
0.1
0.15
0.23
0.39
0.515
0.59
0.57
0.34
-0.075
-0.565
-1.065
-1.455
-1.745
-1.895
-1.97
-2.01
-2.035
-2.08
-2.09
-2.115
-2.12
-2.125
-2.115
-2.1
-2.09
-2.06
-2.03
-1.995
-1.96
-1.9
-1.79
-1.665
-1.495
-1.34
-1.2
-1.085
-1.03
-1.005
-1.0
-1.005
-1.005
-0.995
-0.97
-0.95
-0.92
-0.885
-0.875
-0.865
-0.87
-0.89
-0.895
-0.92
-0.92
-0.935
-0.94
-0.94
-0.935
-0.93
-0.935
-0.925
-0.945
-0.96
-0.97
-0.965
-0.99
-1.035
-1.065
-1.07
-1.07
-1.06
-1.055
-1.055
-1.075
-1.105
-1.11
-1.145
-1.13
-1.15
-1.14
-1.14
-1.145
-1.14
-1.135
-1.135
-1.145
-1.17
-1.18
-1.17
-1.17
-1.16
-1.16
-1.145
-1.14
-1.11
-1.08
-1.035
-1.0
-0.985
-0.955
-0.935
-0.93
-0.91
-0.895
-0.88
-0.855
-0.84
-0.855
-0.855
-0.875
-0.885
-0.89
-0.905
-0.89
-0.86
-0.81
-0.74
-0.69
-0.675
-0.68
-0.695
-0.735
-0.785
-0.84
-0.85
-0.835
-0.8
-0.76
-0.735
-0.71
-0.705
-0.72
-0.73
-0.75
-0.78
-0.78
-0.785
-0.775
-0.77
-0.76
-0.76
-0.75
-0.75
-0.74
-0.725
-0.735
-0.75
-0.765
-0.785
-0.795
-0.785
-0.79
-0.78
-0.755
-0.74
-0.71
-0.725
-0.74
-0.775
-0.785
-0.775
-0.775
-0.78
-0.78
-0.77
-0.78
-0.775
-0.77
-0.785
-0.765
-0.75
-0.75
-0.74
-0.735
-0.75
-0.765
-0.775
-0.785
-0.765
-0.755
-0.725
-0.7
-0.685
-0.695
-0.71
-0.725
-0.745
-0.755
-0.75
-0.745
-0.72
-0.705
-0.69
-0.69
-0.68
-0.69
-0.72
-0.74
-0.76
-0.74
-0.74
-0.725
-0.71
-0.685
-0.665
-0.67
-0.685
-0.7
-0.73
-0.76
-0.745
-0.735
-0.67
-0.565
-0.42
-0.235
-0.085
0.065
0.14
0.145
0.1
0.06
0.105
0.25
0.46
0.69
0.85
0.91
0.795
0.47
0.025
-0.49
-0.95
-1.28
-1.495
-1.61
-1.665
-1.685
-1.745
-1.79
-1.84
-1.89
-1.91
-1.91
-1.93
-1.93
-1.925
-1.905
-1.88
-1.84
-1.795
-1.715
-1.59
-1.455
-1.295
-1.155
-1.04
-0.935
-0.865
-0.825
-0.82
-0.83
-0.85
-0.86
-0.845
-0.83
-0.81
-0.785
-0.775
-0.76
-0.77
-0.77
-0.79
-0.81
-0.815
-0.825
-0.83
-0.83
-0.815
-0.82
-0.83
-0.845
-0.865
-0.88
-0.895
-0.9
-0.91
-0.91
-0.925
-0.935
-0.955
-0.98
-1.005
-1.01
-1.0
-0.985
-1.0
-1.02
-1.03
-1.03
-1.035
-1.06
-1.065
-1.075
-1.08
-1.105
-1.12
-1.115
-1.115
-1.105
-1.105
-1.09
-1.08
-1.07
-1.075
-1.06
-1.065
-1.065
-1.045
-1.01
-0.995
-0.975
-0.955
-0.915
-0.91
-0.865
-0.845
-0.83
-0.82
-0.81
-0.805
-0.8
-0.775
-0.745
-0.725
-0.695
-0.69
-0.685
-0.69
-0.685
-0.7
-0.705
-0.675
-0.675
-0.69
-0.69
-0.69
-0.685
-0.695
-0.695
-0.705
-0.7
-0.715
-0.69
-0.705
-0.71
-0.72
-0.69
-0.715
-0.695
-0.69
-0.69
-0.695
-0.715
-0.715
-0.735
-0.745
-0.74
-0.76
-0.73
-0.725
-0.71
-0.7
-0.695
-0.69
-0.69
-0.705
-0.73
-0.735
-0.725
-0.72
-0.725
-0.74
-0.745
-0.715
-0.715
-0.685
-0.7
-0.71
-0.73
-0.745
-0.745
-0.735
-0.725
-0.715
-0.715
-0.71
-0.71
-0.71
-0.715
-0.7
-0.71
-0.72
-0.71
-0.715
-0.71
-0.71
-0.705
-0.705
-0.68
-0.695
-0.67
-0.655
-0.655
-0.675
-0.68
-0.68
-0.69
-0.705
-0.715
-0.71
-0.73
-0.75
-0.735
-0.735
-0.71
-0.675
-0.68
-0.68
-0.7
-0.7
-0.7
-0.705
-0.705
-0.71
-0.695
-0.705
-0.7
-0.705
-0.705
-0.695
-0.705
-0.72
-0.7
-0.68
-0.675
-0.675
-0.675
-0.69
-0.68
-0.68
-0.685
-0.69
-0.675
-0.655
-0.655
-0.615
-0.615
-0.605
-0.605
-0.605
-0.595
-0.6
-0.565
-0.53
-0.485
-0.47
-0.465
-0.455
-0.475
-0.505
-0.51
-0.535
-0.575
-0.585
-0.59
-0.58
-0.54
-0.53
-0.495
-0.49
-0.515
-0.55
-0.59
-0.635
-0.665
-0.685
-0.705
-0.725
-0.725
-0.755
-0.75
-0.735
-0.75
-0.765
-0.77
-0.775
-0.795
-0.79
-0.79
-0.785
-0.765
-0.745
-0.73
-0.725
-0.76
-0.78
-0.79
-0.815
-0.82
-0.815
-0.825
-0.805
-0.815
-0.815
-0.815
-0.795
-0.795
-0.795
-0.785
-0.79
-0.795
-0.825
-0.84
-0.86
-0.855
-0.825
-0.78
-0.66
-0.54
-0.395
-0.22
-0.07
0.045
0.105
0.1
0.065
0.085
0.16
0.335
0.505
0.63
0.635
0.495
0.17
-0.315
-0.815
-1.255
-1.56
-1.71
-1.79
-1.835
-1.885
-1.935
-1.99
-2.025
-2.095
-2.1
-2.11
-2.1
-2.065
-2.035
-2.015
-2.005
-1.975
-1.935
-1.875
-1.775
-1.63
-1.49
-1.36
-1.225
-1.115
-1.02
-0.97
-0.945
-0.925
-0.935
-0.93
-0.945
-0.93
-0.93
-0.92
-0.92
-0.91
-0.895
-0.88
-0.87
-0.83
-0.835
-0.83
-0.855
-0.9
-0.94
-0.975
-0.995
-0.975
-0.955
-0.94
-0.925
-0.915
-0.935
-0.97
-0.985
-1.015
-1.03
-1.025
-1.04
-1.045
-1.04
-1.045
-1.04
-1.05
-1.055
-1.08
-1.105
-1.115
-1.12
-1.135
-1.12
-1.115
-1.13
-1.155
-1.165
-1.18
-1.17
-1.17
-1.145
-1.15
-1.14
-1.135
-1.14
-1.115
-1.11
-1.095
-1.06
-1.035
-1.015
-1.01
-1.0
-1.01
-1.005
-0.98
-0.98
-0.935
-0.875
-0.83
-0.83
-0.855
-0.86
-0.84
-0.83
-0.805
-0.79
-0.76
-0.76
-0.75
-0.76
-0.75
-0.74
-0.735
-0.72
-0.685
-0.715
-0.72
-0.71
-0.725
-0.75
-0.755
-0.765
-0.75
-0.76
-0.705
-0.695
-0.675
-0.67
-0.69
-0.725
-0.75
-0.775
-0.775
-0.785
-0.75
-0.74
-0.715
-0.725
-0.725
-0.73
-0.76
-0.78
-0.775
-0.78
-0.775
-0.76
-0.775
-0.79
-0.765
-0.775
-0.78
-0.785
-0.795
-0.79
-0.8
-0.805
-0.815
-0.815
-0.81
-0.795
-0.79
-0.79
-0.805
-0.805
-0.825
-0.825
-0.83
-0.835
-0.81
-0.83
-0.79
-0.77
-0.765
-0.765
-0.79
-0.795
-0.8
-0.8
-0.815
-0.82
-0.82
-0.81
-0.795
-0.77
-0.755
-0.765
-0.775
-0.785
-0.805
-0.795
-0.785
-0.775
-0.78
-0.775
-0.765
-0.76
-0.745
-0.74
-0.76
-0.755
-0.775
-0.775
-0.775
-0.775
-0.77
-0.775
-0.765
-0.77
-0.755
-0.74
-0.72
-0.72
-0.725
-0.725
-0.71
-0.72
-0.705
-0.7
-0.685
-0.67
-0.66
-0.655
-0.655
-0.65
-0.665
-0.645
-0.63
-0.615
-0.6
-0.565
-0.53
-0.495
-0.475
-0.505
-0.52
-0.57
-0.6
-0.62
-0.625
-0.625
-0.6
-0.575
-0.535
-0.525
-0.51
-0.54
-0.575
-0.605
-0.645
-0.67
-0.71
-0.72
-0.72
-0.73
-0.755
-0.785
-0.78
-0.785
-0.81
-0.805
-0.8
-0.815
-0.825
-0.825
-0.83
-0.84
-0.825
-0.82
-0.805
-0.785
-0.79
-0.8
-0.815
-0.82
-0.83
-0.845
-0.835
-0.825
-0.815
-0.815
-0.795
-0.805
-0.805
-0.8
-0.795
-0.81
-0.815
-0.825
-0.845
-0.84
-0.82
-0.78
-0.685
-0.535
-0.365
-0.205
-0.06
0.055
0.085
0.07
0.065
0.08
0.155
0.3
0.485
0.62
0.645
0.54
0.19
-0.33
-0.885
-1.38
-1.74
-1.905
-1.985
-1.99
-1.99
-2.01
-2.02
-2.065
-2.115
-2.14
-2.135
-2.14
-2.13
-2.12
-2.07
-1.985
-1.93
-1.85
-1.735
-1.61
-1.48
-1.34
-1.22
-1.125
-1.06
-1.01
-0.985
-0.945
-0.93
-0.915
-0.9
-0.895
-0.915
-0.915
-0.9
-0.905
-0.9
-0.905
-0.88
-0.88
-0.875
-0.87
-0.88
-0.88
-0.885
-0.895
-0.885
-0.91
-0.92
-0.945
-0.965
-0.965
-0.96
-0.965
-0.96
-0.955
-0.97
-1.005
-1.055
-1.085
-1.095
-1.105
-1.095
-1.09
-1.09
-1.105
-1.115
-1.145
-1.145
-1.155
-1.15
-1.16
-1.145
-1.13
-1.12
-1.12
-1.13
-1.14
-1.15
-1.145
-1.145
-1.115
-1.09
-1.08
-1.075
-1.06
-1.05
-1.015
-0.99
-0.985
-0.97
-0.94
-0.93
-0.93
-0.895
-0.895
-0.86
-0.84
-0.84
-0.82
-0.795
-0.78
-0.775
-0.76
-0.76
-0.75
-0.77
-0.775
-0.77
-0.765
-0.755
-0.74
-0.72
-0.72
-0.695
-0.715
-0.71
-0.735
-0.745
-0.75
-0.765
-0.77
-0.74
-0.755
-0.74
-0.75
-0.745
-0.735
-0.725
-0.745
-0.75
-0.755
-0.75
-0.75
-0.75
-0.74
-0.725
-0.73
-0.735
-0.75
-0.745
-0.755
-0.77
-0.785
-0.785
-0.8
-0.805
-0.8
-0.79
-0.8
-0.78
-0.795
-0.79
-0.79
-0.785
-0.78
-0.785
-0.775
-0.765
-0.77
-0.76
-0.75
-0.77
-0.775
-0.775
-0.78
-0.785
-0.795
-0.805
-0.805
-0.78
-0.78
-0.76
-0.78
-0.76
-0.76
-0.79
-0.815
-0.805
-0.835
-0.825
-0.79
-0.765
-0.75
-0.74
-0.74
-0.745
-0.74
-0.75
-0.755
-0.765
-0.765
-0.765
-0.765
-0.77
-0.765
-0.765
-0.755
-0.745
-0.74
-0.73
-0.72
-0.725
-0.71
-0.71
-0.685
-0.655
-0.65
-0.625
-0.63
-0.64
-0.655
-0.665
-0.65
-0.635
-0.58
-0.54
-0.515
-0.5
-0.495
-0.515
-0.53
-0.57
-0.595
-0.61
-0.62
-0.595
-0.595
-0.56
-0.515
-0.49
-0.49
-0.51
-0.535
-0.58
-0.63
-0.665
-0.695
-0.715
-0.735
-0.745
-0.78
-0.795
-0.835
-0.82
-0.81
-0.795
-0.765
-0.785
-0.8
-0.825
-0.835
-0.825
-0.82
-0.81
-0.795
-0.795
-0.795
-0.79
-0.795
-0.8
-0.8
-0.815
-0.835
-0.83
-0.815
-0.81
-0.795
-0.775
-0.775
-0.765
-0.765
-0.775
-0.805
-0.815
-0.835
-0.825
-0.82
-0.83
-0.815
-0.795
-0.735
-0.645
-0.515
-0.345
-0.16
0.015
0.14
0.18
0.175
0.165
0.17
0.245
0.37
0.525
0.625
0.605
0.4
0.015
-0.515
-1.06
-1.51
-1.8
-1.98
-2.05
-2.08
-2.105
-2.12
-2.145
-2.15
-2.175
-2.175
-2.17
-2.15
-2.14
-2.08
-2.055
-2.025
-1.975
-1.895
-1.77
-1.62
-1.44
-1.3
-1.175
-1.095
-1.025
-0.99
-0.96
-0.94
-0.93
-0.915
-0.915
-0.88
-0.875
-0.86
-0.86
-0.865
-0.865
-0.86
-0.84
-0.84
-0.84
-0.855
-0.87
-0.865
-0.88
-0.885
-0.895
-0.905
-0.935
-0.935
-0.935
-0.935
-0.945
-0.935
-0.945
-0.955
-0.97
-0.995
-1.01
-1.025
-1.025
-1.045
-1.035
-1.055
-1.065
-1.06
-1.075
-1.075
-1.085
-1.1
-1.11
-1.11
-1.115
-1.125
-1.105
-1.115
-1.125
-1.125
-1.135
-1.12
-1.13
-1.14
-1.135
-1.12
-1.08
-1.05
-1.02
-0.975
-0.97
-0.955
-0.955
-0.955
-0.965
-0.955
-0.915
-0.875
-0.85
-0.805
-0.8
-0.78
-0.79
-0.785
-0.785
-0.79
-0.81
-0.8
-0.79
-0.765
-0.76
-0.735
-0.735
-0.72
-0.715
-0.705
-0.7
-0.7
-0.705
-0.715
-0.745
-0.735
-0.75
-0.74
-0.74
-0.72
-0.71
-0.705
-0.725
-0.745
-0.75
-0.75
-0.75
-0.765
-0.775
-0.77
-0.75
-0.73
-0.735
-0.735
-0.735
-0.74
-0.755
-0.765
-0.76
-0.775
-0.775
-0.765
-0.75
-0.765
-0.75
-0.765
-0.765
-0.8
-0.82
-0.83
-0.815
-0.795
-0.76
-0.75
-0.76
-0.77
-0.785
-0.81
-0.8
-0.785
-0.785
-0.775
-0.775
-0.77
-0.74
-0.745
-0.785
-0.785
-0.785
-0.795
-0.785
-0.775
-0.79
-0.785
-0.79
-0.78
-0.77
-0.74
-0.725
-0.725
-0.74
-0.77
-0.76
-0.77
-0.775
-0.77
-0.76
-0.77
-0.75
-0.755
-0.735
-0.725
-0.73
-0.745
-0.76
-0.745
-0.755
-0.755
-0.725
-0.71
-0.71
-0.71
-0.69
-0.685
-0.685
-0.66
-0.655
-0.655
-0.67
-0.655
-0.64
-0.59
-0.535
-0.495
-0.46
-0.48
-0.51
-0.56
-0.625
-0.64
-0.68
-0.675
-0.65
-0.625
-0.56
-0.52
-0.485
-0.47
-0.49
-0.515
-0.555
-0.62
-0.665
-0.685
-0.715
-0.735
-0.75
-0.755
-0.755
-0.745
-0.785
-0.8
-0.8
-0.795
-0.8
-0.815
-0.8
-0.82
-0.815
-0.815
-0.835
-0.84
-0.84
-0.82
-0.84
-0.845
-0.85
-0.845
-0.83
-0.83
-0.835
-0.825
-0.81
-0.81
-0.81
-0.82
-0.815
-0.835
-0.835
-0.845
-0.83
-0.82
-0.815
-0.805
-0.805
-0.825
-0.845
-0.84
-0.85
-0.805
-0.71
-0.55
-0.37
-0.165
0.005
0.12
0.16
0.145
0.14
0.17
0.275
0.42
0.55
0.575
0.46
0.17
-0.26
-0.755
-1.225
-1.56
-1.805
-1.91
-1.985
-2.025
-2.06
-2.075
-2.125
-2.14
-2.155
-2.14
-2.125
-2.125
-2.09
-2.08
-2.06
-2.035
-2.0
-1.955
-1.86
-1.72
-1.555
-1.39
-1.24
-1.135
-1.075
-1.03
-0.985
-0.975
-0.965
-0.935
-0.92
-0.905
-0.89
-0.89
-0.875
-0.85
-0.875
-0.88
-0.885
-0.885
-0.89
-0.905
-0.91
-0.92
-0.92
-0.92
-0.915
-0.9
-0.905
-0.905
-0.915
-0.92
-0.935
-0.975
-1.0
-1.02
-1.01
-1.01
-1.005
-1.0
-1.025
-1.05
-1.07
-1.1
-1.11
-1.12
-1.125
-1.13
-1.125
-1.11
-1.105
-1.125
-1.125
-1.145
-1.145
-1.155
-1.145
-1.135
-1.14
-1.14
-1.16
-1.165
-1.155
-1.13
-1.11
-1.085
-1.07
-1.06
-1.04
-1.025
-1.0
-0.985
-0.96
-0.945
-0.905
-0.915
-0.895
-0.86
-0.865
-0.845
-0.84
-0.835
-0.835
-0.825
-0.82
-0.815
-0.79
-0.78
-0.775
-0.78
-0.785
-0.775
-0.795
-0.79
-0.77
-0.765
-0.755
-0.76
-0.775
-0.78
-0.77
-0.775
-0.76
-0.76
-0.77
-0.785
-0.79
-0.805
-0.785
-0.78
-0.775
-0.765
-0.78
-0.77
-0.775
-0.785
-0.79
-0.815
-0.82
-0.815
-0.805
-0.8
-0.79
-0.795
-0.805
-0.79
-0.79
-0.8
-0.81
-0.835
-0.845
-0.855
-0.86
-0.85
-0.845
-0.825
-0.8
-0.8
-0.805
-0.795
-0.81
-0.83
-0.84
-0.82
-0.82
-0.805
-0.785
-0.765
-0.77
-0.79
-0.785
-0.82
-0.84
-0.86
-0.845
-0.835
-0.82
-0.8
-0.785
-0.785
-0.795
-0.805
-0.82
-0.82
-0.815
-0.82
-0.805
-0.8
-0.78
-0.775
-0.765
-0.76
-0.765
-0.78
-0.765
-0.76
-0.75
-0.75
-0.745
-0.77
-0.735
-0.72
-0.71
-0.685
-0.695
-0.695
-0.695
-0.675
-0.655
-0.62
-0.595
-0.56
-0.55
-0.555
-0.565
-0.58
-0.605
-0.625
-0.625
-0.63
-0.625
-0.61
-0.59
-0.575
-0.545
-0.555
-0.575
-0.62
-0.665
-0.665
-0.69
-0.705
-0.73
-0.77
-0.785
-0.8
-0.805
-0.81
-0.815
-0.815
-0.81
-0.82
-0.81
-0.82
-0.845
-0.845
-0.865
-0.87
-0.85
-0.85
-0.84
-0.845
-0.845
-0.85
-0.87
-0.875
-0.895
-0.9
-0.87
-0.86
-0.84
-0.825
-0.84
-0.82
-0.83
-0.845
-0.85
-0.86
-0.84
-0.85
-0.86
-0.88
-0.865
-0.88
-0.865
-0.845
-0.76
-0.62
-0.43
-0.255
-0.085
0.03
0.065
0.05
0.055
0.14
0.28
0.44
0.56
0.58
0.39
0.015
-0.505
-1.035
-1.505
-1.815
-1.975
-2.03
-2.03
-2.05
-2.07
-2.11
-2.13
-2.145
-2.16
-2.165
-2.16
-2.145
-2.135
-2.095
-2.03
-1.995
-1.915
-1.805
-1.685
-1.525
-1.415
-1.275
-1.18
-1.105
-1.045
-1.005
-0.96
-0.955
-0.93
-0.915
-0.905
-0.915
-0.92
-0.915
-0.91
-0.915
-0.91
-0.91
-0.905
-0.92
-0.92
-0.915
-0.915
-0.93
-0.93
-0.925
-0.935
-0.94
-0.92
-0.94
-0.97
-0.99
-1.015
-1.015
-1.035
-1.035
-1.045
-1.06
-1.08
-1.075
-1.08
-1.08
-1.075
-1.08
-1.105
-1.115
-1.135
-1.16
-1.165
-1.165
-1.16
-1.155
-1.16
-1.145
-1.13
-1.13
-1.13
-1.155
-1.17
-1.16
-1.15
-1.125
-1.1
-1.08
-1.05
-1.06
-1.055
-1.055
-1.025
-0.995
-0.98
-0.955
-0.945
-0.9
-0.89
-0.875
-0.85
-0.83
-0.805
-0.795
-0.775
-0.785
-0.79
-0.79
-0.78
-0.795
-0.78
-0.78
-0.765
-0.75
-0.745
-0.74
-0.735
-0.71
-0.72
-0.725
-0.745
-0.755
-0.76
-0.75
-0.745
-0.74
-0.745
-0.745
-0.75
-0.76
-0.765
-0.76
-0.77
-0.775
-0.775
-0.775
-0.76
-0.745
-0.725
-0.73
-0.73
-0.725
-0.76
-0.8
-0.81
-0.8
-0.78
-0.77
-0.765
-0.77
-0.76
-0.77
-0.77
-0.805
-0.805
-0.84
-0.85
-0.85
-0.83
-0.825
-0.79
-0.785
-0.77
-0.75
-0.745
-0.765
-0.785
-0.795
-0.8
-0.795
-0.8
-0.785
-0.775
-0.775
-0.755
-0.75
-0.745
-0.745
-0.74
-0.77
-0.765
-0.78
-0.79
-0.81
-0.785
-0.78
-0.775
-0.77
-0.775
-0.765
-0.765
-0.76
-0.755
-0.75
-0.775
-0.765
-0.755
-0.74
-0.735
