Lead II
-0.505
-0.495
-0.545
-0.62
-0.725
-0.815
-0.885
-0.92
-0.92
-0.915
-0.865
-0.82
-0.765
-0.7
-0.63
-0.535
-0.475
-0.41
-0.365
-0.33
-0.3
-0.25
-0.23
-0.21
-0.18
-0.175
-0.185
-0.175
-0.17
-0.185
-0.185
-0.195
-0.185
-0.19
-0.185
-0.17
-0.155
-0.15
-0.15
-0.145
-0.145
-0.155
-0.155
-0.165
-0.17
-0.17
-0.165
-0.135
-0.12
-0.11
-0.11
-0.115
-0.12
-0.125
-0.135
-0.13
-0.135
-0.13
-0.12
-0.105
-0.095
-0.095
-0.1
-0.095
-0.095
-0.095
-0.09
-0.085
-0.075
-0.055
-0.07
-0.06
-0.055
-0.05
-0.03
-0.03
-0.02
-0.02
-0.015
-0.015
-0.015
-0.005
-0.005
-0.005
-0.005
0.015
0.01
0.025
0.035
0.04
0.035
0.025
0.015
0.015
0.045
0.065
0.085
0.09
0.11
0.105
0.1
0.11
0.11
0.1
0.08
0.095
0.1
0.12
0.145
0.17
0.19
0.195
0.19
0.18
0.17
0.17
0.19
0.21
0.22
0.23
0.25
0.26
0.25
0.265
0.26
0.265
0.255
0.26
0.26
0.255
0.255
0.245
0.25
0.235
0.22
0.2
0.185
0.165
0.135
0.12
0.105
0.075
0.07
0.06
0.06
0.045
0.035
0.01
0.015
-0.005
-0.01
-0.015
-0.025
-0.04
-0.055
-0.08
-0.09
-0.08
-0.06
-0.045
-0.035
-0.035
-0.055
-0.065
-0.07
-0.08
-0.055
-0.04
-0.035
-0.025
-0.025
-0.035
-0.04
-0.06
-0.065
-0.075
-0.07
-0.07
-0.06
-0.055
-0.055
-0.05
-0.045
-0.06
-0.06
-0.065
-0.08
-0.085
-0.09
-0.105
-0.1
-0.1
-0.085
-0.085
-0.09
-0.095
-0.105
-0.115
-0.125
-0.13
-0.13
-0.13
-0.135
-0.125
-0.125
-0.115
-0.115
-0.13
-0.14
-0.145
-0.14
-0.15
-0.155
-0.15
-0.15
-0.14
-0.145
-0.145
-0.135
-0.14
-0.145
-0.155
-0.16
-0.165
-0.17
-0.185
-0.155
-0.15
-0.155
-0.15
-0.155
-0.155
-0.16
-0.17
-0.175
-0.185
-0.185
-0.19
-0.18
-0.17
-0.165
-0.165
-0.16
-0.165
-0.165
-0.175
-0.175
-0.185
-0.18
-0.17
-0.175
-0.16
-0.15
-0.14
-0.125
-0.115
-0.115
-0.125
-0.13
-0.125
-0.125
-0.115
-0.1
-0.085
-0.05
-0.035
-0.04
-0.005
-0.015
-0.025
-0.03
-0.045
-0.05
-0.05
-0.06
-0.07
-0.075
-0.09
-0.105
-0.105
-0.12
-0.135
-0.16
-0.18
-0.19
-0.205
-0.21
-0.2
-0.205
-0.2
-0.2
-0.21
-0.215
-0.225
-0.235
-0.24
-0.235
-0.25
-0.23
-0.225
-0.225
-0.22
-0.22
-0.22
-0.235
-0.23
-0.245
-0.25
-0.245
-0.235
-0.235
-0.23
-0.225
-0.225
-0.235
-0.255
-0.305
-0.38
-0.45
-0.49
-0.465
-0.345
-0.115
0.185
0.555
0.915
1.235
1.4
1.385
1.135
0.69
0.215
-0.175
-0.41
-0.495
-0.49
-0.48
-0.485
-0.535
-0.63
-0.725
-0.84
-0.915
-0.945
-0.955
-0.925
-0.875
-0.815
-0.735
-0.645
-0.575
-0.475
-0.42
-0.37
-0.335
-0.315
-0.29
-0.28
-0.27
-0.26
-0.23
-0.24
-0.22
-0.215
-0.235
-0.23
-0.23
-0.23
-0.22
-0.21
-0.21
-0.21
-0.205
-0.2
-0.2
-0.19
-0.19
-0.19
-0.185
-0.2
-0.2
-0.195
-0.19
-0.19
-0.185
-0.175
-0.165
-0.17
-0.17
-0.17
-0.16
-0.165
-0.17
-0.16
-0.15
-0.15
-0.145
-0.135
-0.125
-0.125
-0.115
-0.12
-0.125
-0.135
-0.13
-0.115
-0.11
-0.105
-0.09
-0.08
-0.07
-0.06
-0.065
-0.06
-0.055
-0.06
-0.05
-0.055
-0.045
-0.025
-0.01
-0.005
0.005
0.005
-0.005
0.0
0.015
0.01
0.005
0.015
0.025
0.045
0.06
0.07
0.075
0.09
0.095
0.095
0.09
0.09
0.095
0.105
0.12
0.13
0.14
0.145
0.16
0.165
0.165
0.17
0.17
0.16
0.18
0.185
0.185
0.2
0.195
0.215
0.21
0.22
0.215
0.21
0.19
0.18
0.195
0.18
0.18
0.165
0.165
0.17
0.145
0.13
0.115
0.115
0.085
0.065
0.065
0.05
0.04
0.03
0.02
0.025
0.005
-0.005
-0.02
-0.045
-0.055
-0.085
-0.085
-0.095
-0.105
-0.105
-0.095
-0.095
-0.11
-0.11
-0.125
-0.135
-0.14
-0.145
-0.15
-0.145
-0.13
-0.13
-0.13
-0.11
-0.115
-0.115
-0.115
-0.115
-0.115
-0.115
-0.12
-0.12
-0.11
-0.095
-0.1
-0.09
-0.1
-0.095
-0.11
-0.115
-0.125
-0.115
-0.12
-0.125
-0.125
-0.125
-0.125
-0.12
-0.135
-0.135
-0.145
-0.15
-0.155
-0.145
-0.16
-0.165
-0.15
-0.16
-0.145
-0.145
-0.155
-0.155
-0.16
-0.165
-0.165
-0.185
-0.185
-0.195
-0.2
-0.18
-0.19
-0.185
-0.18
-0.185
-0.185
-0.18
-0.205
-0.205
-0.205
-0.2
-0.205
-0.22
-0.2
-0.19
-0.19
-0.185
-0.19
-0.205
-0.22
-0.215
-0.21
-0.215
-0.2
-0.21
-0.205
-0.185
-0.195
-0.195
-0.21
-0.21
-0.21
-0.22
-0.23
-0.24
-0.23
-0.21
-0.2
-0.2
-0.21
-0.205
-0.21
-0.21
-0.215
-0.235
-0.22
-0.22
-0.215
-0.215
-0.195
-0.195
-0.195
-0.195
-0.195
-0.2
-0.205
-0.21
-0.21
-0.21
-0.2
-0.18
-0.16
-0.145
-0.145
-0.15
-0.145
-0.15
-0.14
-0.14
-0.135
-0.115
-0.085
-0.075
-0.05
-0.03
-0.04
-0.04
-0.065
-0.075
-0.09
-0.11
-0.12
-0.125
-0.135
-0.145
-0.155
-0.17
-0.19
-0.195
-0.21
-0.225
-0.24
-0.245
-0.24
-0.245
-0.25
-0.24
-0.24
-0.245
-0.245
-0.24
-0.24
-0.25
-0.255
-0.26
-0.26
-0.26
-0.26
-0.265
-0.26
-0.25
-0.24
-0.26
-0.255
-0.255
-0.275
-0.305
-0.36
-0.42
-0.485
-0.485
-0.405
-0.22
0.06
0.405
0.785
1.125
1.34
1.375
1.165
0.74
0.25
-0.155
-0.4
-0.49
-0.49
-0.465
-0.46
-0.515
-0.605
-0.73
-0.85
-0.93
-0.965
-0.96
-0.92
-0.865
-0.795
-0.715
-0.635
-0.55
-0.485
-0.42
-0.375
-0.335
-0.315
-0.295
-0.275
-0.26
-0.26
-0.25
-0.25
-0.24
-0.235
-0.245
-0.245
-0.245
-0.225
-0.215
-0.215
-0.205
-0.19
-0.2
-0.195
-0.2
-0.205
-0.21
-0.21
-0.205
-0.2
-0.19
-0.19
-0.18
-0.18
-0.165
-0.185
-0.185
-0.19
-0.185
-0.18
-0.185
-0.175
-0.155
-0.155
-0.135
-0.14
-0.14
-0.125
-0.135
-0.145
-0.14
-0.13
-0.13
-0.12
-0.115
-0.12
-0.1
-0.1
-0.095
-0.08
-0.085
-0.09
-0.08
-0.08
-0.065
-0.06
-0.05
-0.045
-0.03
-0.02
-0.02
-0.015
-0.01
-0.01
0.0
-0.005
-0.005
0.005
0.02
0.015
0.03
0.05
0.055
0.075
0.075
0.075
0.085
0.09
0.09
0.11
0.13
0.135
0.145
0.14
0.145
0.155
0.16
0.16
0.165
0.175
0.175
0.19
0.19
0.195
0.21
0.215
0.215
0.22
0.215
0.205
0.2
0.215
0.215
0.225
0.235
0.24
0.245
0.24
0.23
0.205
0.185
0.17
0.165
0.14
0.135
0.115
0.105
0.08
0.08
0.065
0.055
0.05
0.03
0.015
-0.005
-0.02
-0.035
-0.05
-0.055
-0.065
-0.065
-0.07
-0.075
-0.085
-0.085
-0.1
-0.11
-0.11
-0.12
-0.125
-0.125
-0.125
-0.11
-0.115
-0.11
-0.095
-0.11
-0.115
-0.13
-0.12
-0.135
-0.13
-0.125
-0.12
-0.12
-0.11
-0.135
-0.15
-0.13
-0.125
-0.125
-0.125
-0.13
-0.12
-0.13
-0.13
-0.135
-0.14
-0.13
-0.14
-0.15
-0.15
-0.15
-0.155
-0.16
-0.16
-0.155
-0.155
-0.15
-0.155
-0.15
-0.155
-0.165
-0.16
-0.165
-0.17
-0.175
-0.175
-0.17
-0.185
-0.165
-0.17
-0.16
-0.145
-0.16
-0.17
-0.175
-0.195
-0.195
-0.2
-0.2
-0.18
-0.17
-0.165
-0.165
-0.17
-0.185
-0.19
-0.21
-0.205
-0.2
-0.205
-0.205
-0.195
-0.175
-0.185
-0.165
-0.17
-0.165
-0.17
-0.185
-0.2
-0.21
-0.21
-0.205
-0.19
-0.17
-0.16
-0.15
-0.155
-0.17
-0.17
-0.185
-0.185
-0.2
-0.2
-0.19
-0.185
-0.17
-0.165
-0.16
-0.16
-0.155
-0.15
-0.155
-0.145
-0.14
-0.13
-0.115
-0.1
-0.075
-0.07
-0.06
-0.055
-0.05
-0.045
-0.04
-0.04
-0.045
-0.05
-0.06
-0.055
-0.065
-0.08
-0.08
-0.09
-0.11
-0.13
-0.155
-0.17
-0.18
-0.195
-0.185
-0.205
-0.195
-0.21
-0.22
-0.22
-0.225
-0.245
-0.245
-0.26
-0.245
-0.24
-0.215
-0.205
-0.205
-0.215
-0.205
-0.21
-0.21
-0.225
-0.24
-0.24
-0.235
-0.225
-0.215
-0.215
-0.205
-0.24
-0.26
-0.31
-0.385
-0.445
-0.455
-0.36
-0.175
0.08
0.435
0.81
1.14
1.365
1.39
1.2
0.79
0.28
-0.175
-0.46
-0.585
-0.585
-0.54
-0.5
-0.5
-0.565
-0.645
-0.74
-0.82
-0.865
-0.885
-0.865
-0.84
-0.795
-0.725
-0.665
-0.58
-0.5
-0.425
-0.36
-0.31
-0.275
-0.25
-0.245
-0.235
-0.24
-0.23
-0.215
-0.19
-0.18
-0.165
-0.16
-0.185
-0.18
-0.185
-0.195
-0.19
-0.185
-0.175
-0.17
-0.165
-0.145
-0.15
-0.155
-0.15
-0.155
-0.17
-0.165
-0.165
-0.155
-0.14
-0.13
-0.115
-0.12
-0.125
-0.12
-0.135
-0.135
-0.13
-0.135
-0.105
-0.1
-0.08
-0.085
-0.07
-0.075
-0.085
-0.085
-0.09
-0.095
-0.105
-0.11
-0.1
-0.075
-0.06
-0.035
-0.025
-0.02
-0.015
-0.005
-0.005
-0.005
-0.005
-0.015
-0.02
0.0
-0.005
0.015
0.02
0.015
0.02
0.025
0.02
0.04
0.045
0.06
0.065
0.07
0.08
0.075
0.08
0.075
0.08
0.095
0.1
0.12
0.11
0.11
0.11
0.135
0.135
0.155
0.17
0.175
0.18
0.175
0.165
0.17
0.17
0.17
0.19
0.2
0.21
0.235
0.245
0.25
0.255
0.25
0.255
0.245
0.25
0.235
0.235
0.23
0.225
0.235
0.23
0.23
0.205
0.185
0.17
0.155
0.125
0.11
0.09
0.095
0.09
0.08
0.075
0.055
0.04
0.025
0.015
-0.005
-0.01
-0.025
-0.03
-0.03
-0.035
-0.04
-0.035
-0.045
-0.06
-0.065
-0.065
-0.07
-0.09
-0.09
-0.085
-0.085
-0.08
-0.075
-0.075
-0.065
-0.075
-0.07
-0.085
-0.09
-0.1
-0.1
-0.1
-0.09
-0.085
-0.075
-0.07
-0.06
-0.055
-0.07
-0.07
-0.09
-0.11
-0.1
-0.095
-0.09
-0.095
-0.1
-0.07
-0.075
-0.08
-0.085
-0.09
-0.1
-0.105
-0.12
-0.115
-0.115
-0.12
-0.13
-0.125
-0.125
-0.13
-0.13
-0.135
-0.14
-0.155
-0.155
-0.165
-0.155
-0.165
-0.165
-0.155
-0.15
-0.145
-0.155
-0.16
-0.17
-0.17
-0.175
-0.18
-0.18
-0.175
-0.165
-0.18
-0.17
-0.165
-0.18
-0.18
-0.185
-0.195
-0.2
-0.19
-0.2
-0.185
-0.195
-0.18
-0.185
-0.19
-0.185
-0.185
-0.19
-0.2
-0.19
-0.195
-0.185
-0.17
-0.16
-0.145
-0.145
-0.14
-0.14
-0.14
-0.14
-0.135
-0.13
-0.12
-0.12
-0.1
-0.1
-0.07
-0.05
-0.04
-0.03
-0.03
-0.04
-0.065
-0.07
-0.08
-0.09
-0.08
-0.09
-0.095
-0.1
-0.11
-0.13
-0.15
-0.17
-0.18
-0.2
-0.215
-0.22
-0.23
-0.23
-0.22
-0.215
-0.22
-0.235
-0.24
-0.255
-0.26
-0.265
-0.27
-0.255
-0.245
-0.245
-0.245
-0.245
-0.255
-0.24
-0.25
-0.255
-0.25
-0.26
-0.245
-0.255
-0.25
-0.245
-0.245
-0.245
-0.255
-0.285
-0.35
-0.41
-0.47
-0.51
-0.475
-0.36
-0.14
0.15
0.495
0.84
1.11
1.29
1.285
1.08
0.665
0.2
-0.165
-0.39
-0.47
-0.47
-0.46
-0.45
-0.505
-0.595
-0.705
-0.815
-0.875
-0.925
-0.915
-0.9
-0.835
-0.785
-0.695
-0.615
-0.54
-0.47
-0.405
-0.36
-0.335
-0.315
-0.295
-0.29
-0.265
-0.265
-0.255
-0.245
-0.235
-0.23
-0.235
-0.24
-0.235
-0.24
-0.24
-0.24
-0.225
-0.22
-0.205
-0.205
-0.205
-0.205
-0.205
-0.215
-0.215
-0.225
-0.21
-0.2
-0.205
-0.19
-0.19
-0.18
-0.17
-0.18
-0.18
-0.185
-0.205
-0.2
-0.195
-0.175
-0.165
-0.155
-0.14
-0.145
-0.14
-0.135
-0.135
-0.13
-0.14
-0.125
-0.115
-0.12
-0.115
-0.1
-0.095
-0.085
-0.08
-0.075
-0.075
-0.06
-0.07
-0.07
-0.06
-0.055
-0.04
-0.035
-0.035
-0.02
-0.005
0.01
-0.005
0.0
0.005
0.01
0.02
0.025
0.055
0.065
0.075
0.09
0.085
0.085
0.09
0.09
0.085
0.1
0.105
0.11
0.135
0.14
0.155
0.155
0.165
0.165
0.175
0.17
0.17
0.18
0.16
0.175
0.185
0.19
0.185
0.175
0.175
0.165
0.16
0.135
0.11
0.1
0.095
0.08
0.065
0.065
0.055
0.035
0.015
0.005
-0.01
-0.03
-0.05
-0.075
-0.075
-0.085
-0.11
-0.105
-0.105
-0.115
-0.125
-0.13
-0.13
-0.15
-0.16
-0.165
-0.17
-0.175
-0.165
-0.175
-0.18
-0.155
-0.16
-0.165
-0.175
-0.17
-0.17
-0.18
-0.195
-0.185
-0.17
-0.16
-0.155
-0.15
-0.17
-0.17
-0.165
-0.175
-0.17
-0.175
-0.17
-0.175
-0.165
-0.15
-0.15
-0.15
-0.16
-0.16
-0.17
-0.17
-0.18
-0.2
-0.185
-0.185
-0.175
-0.175
-0.17
-0.165
-0.165
-0.175
-0.18
-0.185
-0.205
-0.205
-0.19
-0.195
-0.195
-0.185
-0.18
-0.195
-0.19
-0.185
-0.205
-0.2
-0.21
-0.23
-0.21
-0.215
-0.205
-0.21
-0.195
-0.195
-0.2
-0.2
-0.2
-0.205
-0.22
-0.23
-0.23
-0.23
-0.22
-0.215
-0.21
-0.21
-0.2
-0.2
-0.21
-0.215
-0.225
-0.22
-0.225
-0.22
-0.215
-0.215
-0.195
-0.195
-0.21
-0.21
-0.21
-0.22
-0.225
-0.225
-0.23
-0.23
-0.225
-0.215
-0.21
-0.21
-0.205
-0.21
-0.21
-0.215
-0.225
-0.24
-0.23
-0.225
-0.22
-0.215
-0.21
-0.205
-0.21
-0.205
-0.215
-0.215
-0.22
-0.23
-0.215
-0.21
-0.195
-0.19
-0.165
-0.155
-0.155
-0.15
-0.155
-0.145
-0.15
-0.145
-0.135
-0.115
-0.095
-0.07
-0.06
-0.045
-0.05
-0.05
-0.075
-0.09
-0.105
-0.12
-0.13
-0.14
-0.14
-0.155
-0.155
-0.18
-0.2
-0.215
-0.22
-0.235
-0.235
-0.24
-0.245
-0.24
-0.25
-0.245
-0.24
-0.245
-0.245
-0.245
-0.245
-0.255
-0.26
-0.265
-0.265
-0.255
-0.255
-0.245
-0.235
-0.24
-0.235
-0.24
-0.25
-0.26
-0.3
-0.34
-0.4
-0.46
-0.485
-0.435
-0.255
0.03
0.39
0.78
1.12
1.345
1.345
1.09
0.635
0.15
-0.22
-0.435
-0.51
-0.505
-0.505
-0.525
-0.595
-0.69
-0.795
-0.89
-0.935
-0.97
-0.93
-0.9
-0.825
-0.74
-0.665
-0.57
-0.505
-0.45
-0.4
-0.355
-0.325
-0.31
-0.28
-0.265
-0.26
-0.255
-0.235
-0.24
-0.24
-0.225
-0.24
-0.225
-0.235
-0.225
-0.215
-0.21
-0.205
-0.195
-0.19
-0.195
-0.195
-0.2
-0.2
-0.205
-0.2
-0.2
-0.195
-0.195
-0.185
-0.175
-0.18
-0.165
-0.18
-0.18
-0.19
-0.185
-0.19
-0.18
-0.165
-0.155
-0.145
-0.145
-0.14
-0.15
-0.15
-0.15
-0.15
-0.145
-0.14
-0.135
-0.125
-0.115
-0.1
-0.1
-0.09
-0.08
-0.08
-0.08
-0.08
-0.075
-0.08
-0.065
-0.05
-0.04
-0.035
-0.025
-0.02
-0.02
-0.025
-0.015
-0.025
-0.02
-0.02
-0.015
-0.005
0.0
0.025
0.03
0.04
0.05
0.05
0.055
0.055
0.08
0.095
0.105
0.125
0.145
0.145
0.145
0.155
0.155
0.15
0.17
0.15
0.16
0.165
0.175
0.185
0.2
0.215
0.22
0.23
0.215
0.22
0.22
0.215
0.225
0.22
0.22
0.225
0.22
0.22
0.215
0.22
0.21
0.195
0.18
0.135
0.13
0.105
0.1
0.095
0.09
0.09
0.085
0.075
0.06
0.04
0.015
0.005
-0.03
-0.03
-0.055
-0.06
-0.075
-0.08
-0.07
-0.08
-0.09
-0.095
-0.105
-0.12
-0.13
-0.13
-0.135
-0.14
-0.12
-0.105
-0.11
-0.12
-0.115
-0.135
-0.145
-0.145
-0.145
-0.16
-0.135
-0.13
-0.12
-0.115
-0.1
-0.115
-0.115
-0.11
-0.105
-0.11
-0.12
-0.135
-0.13
-0.14
-0.13
-0.125
-0.11
-0.125
-0.145
-0.15
-0.16
-0.165
-0.175
-0.17
-0.16
-0.155
-0.155
-0.145
-0.14
-0.145
-0.16
-0.155
-0.185
-0.18
-0.195
-0.195
-0.195
-0.19
-0.185
-0.185
-0.175
-0.18
-0.18
-0.18
-0.185
-0.205
-0.21
-0.21
-0.22
-0.215
-0.21
-0.205
-0.19
-0.195
-0.195
-0.205
-0.22
-0.22
-0.245
-0.26
-0.245
-0.24
-0.22
-0.23
-0.215
-0.205
-0.215
-0.2
-0.21
-0.23
-0.235
-0.25
-0.25
-0.24
-0.225
-0.21
-0.195
-0.19
-0.195
-0.21
-0.225
-0.235
-0.24
-0.24
-0.235
-0.22
-0.215
-0.225
-0.22
-0.235
-0.225
-0.225
-0.225
-0.22
-0.22
-0.215
-0.215
-0.215
-0.225
-0.23
-0.22
-0.215
-0.21
-0.2
-0.195
-0.185
-0.175
-0.16
-0.16
-0.16
-0.15
-0.135
-0.12
-0.105
-0.085
-0.08
-0.06
-0.05
-0.055
-0.05
-0.06
-0.065
-0.075
-0.08
-0.08
-0.095
-0.105
-0.13
-0.145
-0.18
-0.195
-0.205
-0.23
-0.235
-0.24
-0.235
-0.225
-0.225
-0.21
-0.21
-0.225
-0.24
-0.26
-0.265
-0.275
-0.275
-0.27
-0.255
-0.255
-0.26
-0.27
-0.285
-0.285
-0.27
-0.265
-0.245
-0.25
-0.245
-0.255
-0.24
-0.23
-0.23
-0.255
-0.275
-0.315
-0.375
-0.43
-0.49
-0.47
-0.37
-0.14
0.175
0.565
0.95
1.275
1.445
1.365
1.02
0.495
-0.035
-0.42
-0.615
-0.65
-0.615
-0.56
-0.56
-0.605
-0.695
-0.795
-0.885
-0.935
-0.945
-0.93
-0.875
-0.82
-0.74
-0.65
-0.575
-0.485
-0.425
-0.355
-0.32
-0.31
-0.315
-0.295
-0.265
-0.265
-0.24
-0.23
-0.225
-0.215
-0.225
-0.24
-0.235
-0.25
-0.24
-0.245
-0.22
-0.2
-0.19
-0.19
-0.195
-0.19
-0.215
-0.21
-0.205
-0.205
-0.195
-0.19
-0.17
-0.17
-0.165
-0.155
-0.16
-0.165
-0.18
-0.175
-0.175
-0.175
-0.165
-0.14
-0.14
-0.13
-0.12
-0.105
-0.105
-0.1
-0.095
-0.085
-0.095
-0.1
-0.105
-0.125
-0.115
-0.11
-0.1
-0.075
-0.065
-0.045
-0.045
-0.03
-0.035
-0.04
-0.035
-0.03
-0.025
-0.02
-0.025
-0.02
-0.015
0.005
0.0
0.005
0.025
0.02
0.02
0.015
0.03
0.045
0.06
0.07
0.09
0.085
0.09
0.08
0.08
0.085
0.09
0.12
0.125
0.145
0.155
0.17
0.165
0.165
0.16
0.175
0.175
0.165
0.175
0.185
0.2
0.205
0.22
0.23
0.24
0.24
0.24
0.235
0.22
0.2
0.2
0.195
0.18
0.18
0.17
0.17
0.145
0.13
0.11
0.095
0.075
0.05
0.04
0.03
0.02
0.02
0.015
0.005
-0.015
-0.02
-0.04
-0.055
-0.065
-0.1
-0.095
-0.095
-0.095
-0.095
-0.09
-0.085
-0.1
-0.095
-0.105
-0.105
-0.115
-0.12
-0.13
-0.115
-0.115
-0.125
-0.11
-0.1
-0.105
-0.085
-0.105
-0.1
-0.115
-0.115
-0.125
-0.115
-0.105
-0.11
-0.095
-0.105
-0.1
-0.11
-0.12
-0.125
-0.13
-0.135
-0.13
-0.135
-0.135
-0.14
-0.125
-0.135
-0.13
-0.15
-0.155
-0.175
-0.165
-0.18
-0.185
-0.18
-0.185
-0.185
-0.18
-0.18
-0.19
-0.175
-0.19
-0.195
-0.2
-0.205
-0.21
-0.22
-0.215
-0.21
-0.2
-0.205
-0.215
-0.21
-0.215
-0.23
-0.25
-0.255
-0.255
-0.25
-0.235
-0.235
-0.235
-0.225
-0.24
-0.23
-0.23
-0.24
-0.24
-0.25
-0.255
-0.255
-0.25
-0.245
-0.23
-0.235
-0.235
-0.23
-0.25
-0.25
-0.26
-0.26
-0.255
-0.255
-0.255
-0.25
-0.24
-0.235
-0.225
-0.215
-0.21
-0.22
-0.215
-0.215
-0.215
-0.21
-0.17
-0.185
-0.16
-0.13
-0.11
-0.105
-0.095
-0.09
-0.095
-0.105
-0.125
-0.13
-0.13
-0.135
-0.14
-0.155
-0.16
-0.18
-0.2
-0.22
-0.245
-0.27
-0.285
-0.3
-0.305
-0.3
-0.29
-0.29
-0.3
-0.285
-0.285
-0.305
-0.305
-0.31
-0.315
-0.315
-0.305
-0.295
-0.295
-0.295
-0.29
-0.29
-0.3
-0.305
-0.305
-0.315
-0.315
-0.305
-0.305
-0.295
-0.295
-0.29
-0.31
-0.335
-0.385
-0.45
-0.525
-0.555
-0.52
-0.37
-0.12
0.195
0.56
0.925
1.22
1.385
1.365
1.12
0.7
0.215
-0.2
-0.445
-0.535
-0.545
-0.515
-0.515
-0.55
-0.63
-0.745
-0.84
-0.955
-1.015
-1.045
-1.02
-0.98
-0.935
-0.86
-0.775
-0.705
-0.625
-0.555
-0.49
-0.435
-0.4
-0.37
-0.35
-0.335
-0.325
-0.305
-0.29
-0.29
-0.275
-0.275
-0.28
-0.28
-0.285
-0.285
-0.275
-0.265
-0.255
-0.24
-0.235
-0.23
-0.225
-0.235
-0.23
-0.235
-0.24
-0.24
-0.24
-0.225
-0.23
-0.225
-0.23
-0.205
-0.2
-0.205
-0.205
-0.205
-0.22
-0.21
-0.205
-0.195
-0.195
-0.18
-0.18
-0.175
-0.185
-0.175
-0.18
-0.18
-0.185
-0.175
-0.17
-0.175
-0.17
-0.145
-0.13
-0.145
-0.13
-0.13
-0.12
-0.115
-0.12
-0.115
-0.11
-0.1
-0.105
-0.095
-0.08
-0.065
-0.06
-0.055
-0.05
-0.045
-0.045
-0.04
-0.04
-0.02
-0.005
0.005
0.015
0.015
0.025
0.035
0.04
0.04
0.05
0.05
0.045
0.075
0.075
0.08
0.11
0.115
0.12
0.11
0.12
0.115
0.115
0.125
0.13
0.14
0.145
0.16
0.17
0.18
0.195
0.195
0.195
0.19
0.185
0.18
0.19
0.195
0.2
0.195
0.185
0.165
0.16
0.15
0.13
0.105
0.08
0.06
0.055
0.04
0.025
0.015
0.01
-0.015
-0.025
-0.045
-0.06
-0.085
-0.1
-0.115
-0.12
-0.12
-0.145
-0.13
-0.13
-0.14
-0.16
-0.16
-0.17
-0.175
-0.19
-0.21
-0.2
-0.205
-0.185
-0.185
-0.175
-0.19
-0.175
-0.18
-0.18
-0.18
-0.19
-0.18
-0.18
-0.165
-0.16
-0.155
-0.15
-0.145
-0.15
-0.15
-0.16
-0.16
-0.17
-0.17
-0.175
-0.175
-0.17
-0.16
-0.155
-0.16
-0.16
-0.17
-0.175
-0.18
-0.195
-0.2
-0.195
-0.2
-0.185
-0.185
-0.18
-0.19
-0.19
-0.21
-0.2
-0.215
-0.23
-0.24
-0.24
-0.225
-0.225
-0.235
-0.215
-0.215
-0.22
-0.215
-0.225
-0.23
-0.245
-0.25
-0.245
-0.24
-0.245
-0.22
-0.22
-0.225
-0.225
-0.235
-0.235
-0.245
-0.245
-0.25
-0.245
-0.24
-0.23
-0.23
-0.225
-0.225
-0.23
-0.23
-0.24
-0.245
-0.25
-0.245
-0.245
-0.245
-0.245
-0.24
-0.245
-0.23
-0.23
-0.235
-0.25
-0.24
-0.25
-0.255
-0.25
-0.255
-0.245
-0.235
-0.23
-0.235
-0.23
-0.24
-0.24
-0.25
-0.25
-0.255
-0.27
-0.25
-0.24
-0.225
-0.215
-0.22
-0.215
-0.225
-0.225
-0.23
-0.235
-0.235
-0.23
-0.215
-0.205
-0.205
-0.185
-0.17
-0.18
-0.175
-0.175
-0.17
-0.18
-0.16
-0.155
-0.14
-0.125
-0.105
-0.085
-0.07
-0.055
-0.06
-0.07
-0.075
-0.09
-0.105
-0.115
-0.125
-0.135
-0.14
-0.13
-0.14
-0.155
-0.18
-0.195
-0.23
-0.24
-0.25
-0.26
-0.27
-0.265
-0.265
-0.265
-0.255
-0.26
-0.255
-0.27
-0.285
-0.285
-0.28
-0.29
-0.275
-0.27
-0.26
-0.265
-0.26
-0.26
-0.265
-0.27
-0.275
-0.28
-0.28
-0.28
-0.275
-0.275
-0.265
-0.265
-0.295
-0.335
-0.405
-0.475
-0.52
-0.52
-0.4
-0.18
0.145
0.515
0.91
1.235
1.425
1.425
1.19
0.735
0.24
-0.195
-0.445
-0.545
-0.565
-0.54
-0.54
-0.575
-0.67
-0.77
-0.885
-0.96
-0.995
-0.995
-0.955
-0.9
-0.825
-0.735
-0.65
-0.56
-0.48
-0.425
-0.38
-0.345
-0.335
-0.32
-0.31
-0.305
-0.29
-0.27
-0.27
-0.255
-0.25
-0.245
-0.24
-0.25
-0.25
-0.255
-0.245
-0.25
-0.24
-0.23
-0.215
-0.22
-0.2
-0.215
-0.24
-0.215
-0.22
-0.22
-0.22
-0.22
-0.225
-0.215
-0.21
-0.195
-0.19
-0.195
-0.2
-0.2
-0.185
-0.205
-0.205
-0.185
-0.175
-0.17
-0.155
-0.14
-0.14
-0.135
-0.14
-0.13
-0.14
-0.14
-0.13
-0.13
-0.125
-0.115
-0.105
-0.085
-0.08
-0.075
-0.075
-0.07
-0.075
-0.08
-0.075
-0.07
-0.055
-0.045
-0.04
-0.035
-0.025
-0.02
-0.015
-0.01
-0.005
-0.01
-0.005
0.0
0.01
0.03
0.04
0.065
0.085
0.09
0.1
0.115
0.11
0.11
0.105
0.11
0.115
0.13
0.14
0.145
0.15
0.16
0.16
0.17
0.17
0.18
0.185
0.18
0.2
0.21
0.22
0.225
0.225
0.23
0.235
0.22
0.21
0.19
0.18
0.17
0.16
0.155
0.14
0.13
0.11
0.105
0.09
0.055
0.03
0.02
0.005
-0.005
-0.005
-0.005
-0.02
-0.02
-0.04
-0.05
-0.07
-0.1
-0.105
-0.11
-0.115
-0.13
-0.135
-0.13
-0.135
-0.125
-0.135
-0.13
-0.14
-0.14
-0.155
-0.16
-0.17
-0.16
-0.16
-0.155
-0.155
-0.14
-0.135
-0.135
-0.14
-0.155
-0.16
-0.165
-0.17
-0.17
-0.155
-0.14
-0.125
-0.135
-0.13
-0.145
-0.16
-0.16
-0.17
-0.165
-0.165
-0.175
-0.165
-0.18
-0.17
-0.17
-0.165
-0.175
-0.165
-0.17
-0.175
-0.195
-0.2
-0.205
-0.2
-0.21
-0.2
-0.18
-0.18
-0.18
-0.185
-0.19
-0.215
-0.235
-0.22
-0.22
-0.21
-0.2
-0.19
-0.18
-0.18
-0.19
-0.2
-0.215
-0.22
-0.24
-0.25
-0.255
-0.235
-0.225
-0.22
-0.195
-0.195
-0.2
-0.2
-0.22
-0.23
-0.26
-0.26
-0.265
-0.25
-0.235
-0.21
-0.2
-0.185
-0.19
-0.2
-0.215
-0.24
-0.255
-0.255
-0.245
-0.245
-0.235
-0.235
-0.215
-0.22
-0.225
-0.23
-0.23
-0.245
-0.245
-0.235
-0.235
-0.215
-0.21
-0.21
-0.205
-0.215
-0.22
-0.245
-0.24
-0.25
-0.23
-0.235
-0.235
-0.225
-0.22
-0.2
-0.175
-0.15
-0.15
-0.15
-0.14
-0.14
-0.135
-0.13
-0.12
-0.095
-0.095
-0.07
-0.06
-0.065
-0.07
-0.075
-0.085
-0.08
-0.1
-0.13
-0.145
-0.16
-0.16
-0.165
-0.17
-0.17
-0.175
-0.205
-0.22
-0.24
-0.245
-0.25
-0.255
-0.245
-0.24
-0.235
-0.215
-0.22
-0.22
-0.22
-0.25
-0.26
-0.275
-0.275
-0.285
-0.265
-0.25
-0.245
-0.24
-0.235
-0.235
-0.255
-0.265
-0.26
-0.26
-0.27
-0.265
-0.26
-0.27
-0.27
-0.3
-0.355
-0.43
-0.465
-0.45
-0.325
-0.095
0.23
0.58
0.93
1.225
1.375
1.32
1.035
0.585
0.095
-0.3
-0.53
-0.6
-0.595
-0.56
-0.54
-0.555
-0.62
-0.69
-0.77
-0.835
-0.875
-0.89
-0.885
-0.86
-0.83
-0.785
-0.715
-0.655
-0.565
-0.5
-0.44
-0.395
-0.34
-0.315
-0.285
-0.275
-0.285
-0.27
-0.255
-0.245
-0.235
-0.22
-0.22
-0.22
-0.205
-0.215
-0.21
-0.235
-0.225
-0.215
-0.215
-0.19
-0.19
-0.17
-0.19
-0.18
-0.195
-0.19
-0.205
-0.215
-0.215
-0.21
-0.2
-0.2
-0.18
-0.16
-0.155
-0.165
-0.165
-0.17
-0.17
-0.175
-0.185
-0.175
-0.17
-0.165
-0.165
-0.15
-0.14
-0.145
-0.155
-0.15
-0.14
-0.14
-0.14
-0.135
-0.125
-0.13
-0.105
-0.095
-0.1
-0.085
-0.095
-0.09
-0.085
-0.09
-0.09
-0.075
-0.065
-0.055
-0.055
-0.035
-0.035
-0.035
-0.045
-0.06
-0.045
-0.07
-0.04
-0.04
-0.03
-0.01
0.005
0.02
0.02
0.015
0.03
0.03
0.03
0.03
0.02
0.035
0.035
0.045
0.06
0.075
0.08
0.08
0.085
0.095
0.105
0.1
0.105
0.105
0.12
0.125
0.135
0.15
0.165
0.16
0.155
0.17
0.17
0.165
0.165
0.16
0.165
0.16
0.15
0.155
0.155
0.155
0.155
0.145
0.13
0.115
0.095
0.08
0.09
0.07
0.065
0.06
0.05
0.025
0.01
0.0
-0.02
-0.03
-0.055
-0.06
-0.07
-0.07
-0.08
-0.075
-0.085
-0.095
-0.095
-0.11
-0.12
-0.13
-0.135
-0.135
-0.135
-0.13
-0.13
-0.125
-0.12
-0.12
-0.125
-0.13
-0.14
-0.135
-0.13
-0.14
-0.13
-0.13
-0.13
-0.13
-0.125
-0.12
-0.12
-0.135
-0.135
-0.14
-0.14
-0.145
-0.145
-0.14
-0.135
-0.14
-0.13
-0.14
-0.135
-0.155
-0.165
-0.175
-0.18
-0.175
-0.19
-0.175
-0.175
-0.165
-0.165
-0.17
-0.18
-0.2
-0.2
-0.205
-0.2
-0.225
-0.21
-0.2
-0.195
-0.21
-0.2
-0.21
-0.21
-0.225
-0.215
-0.225
-0.23
-0.235
-0.235
-0.225
-0.22
-0.21
-0.21
-0.21
-0.21
-0.23
-0.24
-0.25
-0.255
-0.245
-0.24
-0.24
-0.23
-0.23
-0.22
-0.215
-0.225
-0.23
-0.225
-0.24
-0.255
-0.255
-0.245
-0.24
-0.23
-0.225
-0.22
-0.225
-0.23
-0.245
-0.24
-0.22
-0.23
-0.22
-0.2
-0.185
-0.18
-0.185
-0.165
-0.17
-0.165
-0.155
-0.14
-0.13
-0.11
-0.105
-0.1
-0.095
-0.1
-0.095
-0.1
-0.11
-0.12
-0.13
-0.15
-0.165
-0.18
-0.19
-0.205
-0.225
-0.24
-0.245
-0.255
-0.26
-0.265
-0.275
-0.27
-0.27
-0.285
-0.28
-0.275
-0.285
-0.275
-0.265
-0.275
-0.275
-0.275
-0.275
-0.275
-0.285
-0.3
-0.3
-0.285
-0.285
-0.275
-0.265
-0.26
-0.265
-0.275
-0.29
-0.305
-0.34
-0.395
-0.47
-0.5
-0.52
-0.46
-0.31
-0.065
0.25
0.6
0.93
1.19
1.29
1.17
0.835
0.38
-0.05
-0.355
-0.49
-0.535
-0.525
-0.515
-0.555
-0.625
-0.715
-0.815
-0.905
-0.96
-0.965
-0.93
-0.89
-0.84
-0.765
-0.7
-0.63
-0.555
-0.48
-0.435
-0.395
-0.36
-0.345
-0.335
-0.315
-0.305
-0.3
-0.295
-0.29
-0.29
-0.29
-0.29
-0.285
-0.285
-0.28
-0.27
-0.26
-0.255
-0.265
-0.26
-0.265
-0.27
-0.26
-0.265
-0.265
-0.255
-0.25
-0.245
-0.23
-0.23
-0.215
-0.225
-0.225
-0.23
-0.23
-0.24
-0.225
-0.22
-0.225
-0.215
-0.19
-0.195
-0.19
-0.195
-0.19
-0.195
-0.205
-0.2
-0.185
-0.18
-0.165
-0.16
-0.15
-0.145
-0.15
-0.14
-0.135
-0.135
-0.135
-0.14
-0.13
-0.125
-0.11
-0.105
-0.105
-0.105
-0.085
-0.085
-0.085
-0.085
-0.09
-0.085
-0.07
-0.065
-0.05
-0.03
-0.03
-0.025
-0.005
-0.005
-0.01
-0.005
-0.005
0.0
0.015
0.025
0.04
0.045
0.06
0.065
0.085
0.085
0.08
0.09
0.08
0.085
0.095
0.095
