Lead II
-1.26
-1.325
-1.385
-1.43
-1.45
-1.465
-1.445
-1.445
-1.435
-1.415
-1.4
-1.355
-1.25
-1.165
-1.085
-0.98
-0.86
-0.76
-0.685
-0.65
-0.61
-0.58
-0.545
-0.475
-0.41
-0.345
-0.295
-0.255
-0.205
-0.14
-0.085
-0.03
0.02
0.06
0.085
0.135
0.185
0.21
0.22
0.22
0.235
0.26
0.295
0.31
0.315
0.31
0.305
0.32
0.335
0.365
0.365
0.35
0.35
0.36
0.385
0.395
0.39
0.39
0.39
0.415
0.435
0.44
0.445
0.43
0.445
0.445
0.485
0.495
0.495
0.495
0.5
0.525
0.56
0.575
0.57
0.57
0.575
0.6
0.635
0.66
0.655
0.66
0.68
0.72
0.745
0.765
0.785
0.8
0.82
0.85
0.875
0.905
0.92
0.915
0.925
0.945
0.985
0.995
1.01
0.995
1.015
1.035
1.055
1.06
1.055
1.03
1.025
1.025
1.035
1.035
1.0
0.985
0.95
0.96
0.955
0.92
0.895
0.85
0.82
0.785
0.78
0.755
0.71
0.665
0.625
0.61
0.565
0.54
0.5
0.45
0.405
0.385
0.37
0.35
0.31
0.275
0.26
0.24
0.22
0.21
0.185
0.165
0.145
0.13
0.14
0.13
0.115
0.1
0.08
0.095
0.105
0.09
0.095
0.075
0.055
0.06
0.075
0.07
0.065
0.05
0.05
0.045
0.08
0.07
0.05
0.035
0.025
0.035
0.045
0.04
0.02
0.0
-0.005
0.005
0.005
0.005
0.005
-0.02
-0.015
-0.005
0.01
0.015
0.01
-0.005
-0.005
-0.005
0.005
-0.005
0.0
-0.015
-0.02
-0.01
-0.005
0.005
-0.005
-0.035
-0.03
-0.015
-0.015
-0.02
-0.025
-0.055
-0.055
-0.045
-0.03
-0.025
-0.015
-0.015
-0.05
-0.03
-0.015
-0.015
-0.025
-0.05
-0.05
-0.05
-0.025
-0.015
-0.03
-0.05
-0.06
-0.035
-0.02
-0.015
-0.025
-0.035
-0.03
-0.03
-0.005
-0.015
-0.025
-0.025
-0.04
-0.045
-0.03
-0.015
-0.03
-0.05
-0.05
-0.05
-0.035
-0.04
-0.055
-0.055
-0.06
-0.055
-0.05
-0.05
-0.05
-0.07
-0.085
-0.07
-0.065
-0.07
-0.085
-0.11
-0.115
-0.095
-0.075
-0.08
-0.075
-0.08
-0.085
-0.09
-0.065
-0.05
-0.06
-0.07
-0.075
-0.06
-0.04
-0.03
-0.065
-0.05
-0.05
-0.03
-0.005
0.005
0.01
0.03
0.045
0.13
0.255
0.545
0.965
1.35
1.475
1.35
1.15
1.02
0.955
0.885
0.8
0.74
0.67
0.59
0.505
0.405
0.3
0.215
0.11
0.01
-0.115
-0.245
-0.39
-0.55
-0.68
-0.825
-0.97
-1.09
-1.18
-1.25
-1.295
-1.355
-1.42
-1.475
-1.51
-1.525
-1.515
-1.495
-1.47
-1.455
-1.435
-1.39
-1.305
-1.195
-1.095
-0.97
-0.875
-0.765
-0.69
-0.66
-0.665
-0.65
-0.62
-0.56
-0.5
-0.45
-0.395
-0.35
-0.3
-0.22
-0.145
-0.09
-0.045
-0.005
0.04
0.09
0.14
0.165
0.175
0.18
0.185
0.205
0.225
0.225
0.215
0.205
0.21
0.23
0.25
0.265
0.28
0.275
0.275
0.29
0.305
0.315
0.31
0.305
0.295
0.315
0.33
0.365
0.375
0.37
0.375
0.405
0.42
0.435
0.44
0.43
0.435
0.455
0.485
0.505
0.515
0.52
0.525
0.56
0.595
0.6
0.615
0.62
0.65
0.675
0.71
0.72
0.73
0.735
0.745
0.77
0.815
0.835
0.85
0.855
0.865
0.89
0.91
0.905
0.915
0.89
0.89
0.89
0.9
0.89
0.875
0.85
0.835
0.82
0.815
0.79
0.745
0.7
0.665
0.625
0.615
0.59
0.545
0.49
0.46
0.43
0.4
0.35
0.305
0.27
0.225
0.21
0.185
0.165
0.125
0.07
0.055
0.03
0.025
0.02
-0.015
-0.035
-0.055
-0.06
-0.045
-0.035
-0.06
-0.085
-0.085
-0.085
-0.08
-0.085
-0.09
-0.115
-0.13
-0.125
-0.11
-0.105
-0.12
-0.125
-0.14
-0.13
-0.125
-0.13
-0.135
-0.15
-0.165
-0.155
-0.135
-0.13
-0.145
-0.155
-0.165
-0.155
-0.14
-0.14
-0.17
-0.19
-0.21
-0.215
-0.21
-0.205
-0.19
-0.225
-0.215
-0.21
-0.195
-0.195
-0.195
-0.215
-0.225
-0.215
-0.205
-0.2
-0.225
-0.22
-0.225
-0.24
-0.215
-0.22
-0.235
-0.245
-0.25
-0.24
-0.235
-0.23
-0.24
-0.27
-0.27
-0.265
-0.265
-0.255
-0.275
-0.28
-0.285
-0.29
-0.27
-0.265
-0.275
-0.3
-0.31
-0.295
-0.285
-0.275
-0.3
-0.31
-0.31
-0.31
-0.3
-0.305
-0.31
-0.325
-0.32
-0.315
-0.31
-0.32
-0.33
-0.345
-0.355
-0.365
-0.34
-0.335
-0.34
-0.34
-0.335
-0.315
-0.31
-0.315
-0.325
-0.34
-0.34
-0.33
-0.31
-0.32
-0.325
-0.33
-0.34
-0.325
-0.32
-0.305
-0.32
-0.33
-0.33
-0.315
-0.275
-0.26
-0.245
-0.245
-0.205
-0.13
0.03
0.33
0.805
1.2
1.29
1.09
0.85
0.72
0.65
0.585
0.485
0.395
0.33
0.23
0.12
-0.025
-0.135
-0.24
-0.335
-0.465
-0.625
-0.765
-0.925
-1.07
-1.21
-1.325
-1.445
-1.545
-1.625
-1.69
-1.75
-1.775
-1.81
-1.84
-1.805
-1.79
-1.74
-1.715
-1.685
-1.645
-1.57
-1.45
-1.305
-1.18
-1.09
-1.025
-1.005
-0.99
-0.965
-0.93
-0.88
-0.845
-0.8
-0.74
-0.65
-0.59
-0.55
-0.495
-0.44
-0.395
-0.325
-0.27
-0.26
-0.245
-0.24
-0.22
-0.195
-0.175
-0.175
-0.175
-0.15
-0.125
-0.1
-0.085
-0.09
-0.105
-0.105
-0.095
-0.065
-0.04
-0.045
-0.065
-0.06
-0.045
-0.015
-0.02
0.0
-0.005
-0.015
0.015
0.025
0.05
0.055
0.055
0.075
0.09
0.115
0.135
0.155
0.16
0.17
0.195
0.225
0.245
0.245
0.255
0.27
0.305
0.33
0.365
0.37
0.37
0.375
0.4
0.435
0.455
0.47
0.495
0.505
0.52
0.56
0.58
0.58
0.58
0.575
0.6
0.6
0.6
0.58
0.56
0.545
0.53
0.52
0.505
0.495
0.455
0.43
0.4
0.385
0.36
0.305
0.25
0.21
0.19
0.17
0.14
0.07
0.025
-0.01
-0.025
-0.05
-0.085
-0.135
-0.16
-0.195
-0.22
-0.24
-0.25
-0.28
-0.315
-0.34
-0.33
-0.325
-0.33
-0.35
-0.395
-0.415
-0.415
-0.4
-0.395
-0.41
-0.425
-0.44
-0.435
-0.415
-0.42
-0.44
-0.45
-0.455
-0.455
-0.44
-0.445
-0.455
-0.475
-0.48
-0.465
-0.455
-0.45
-0.46
-0.455
-0.47
-0.455
-0.45
-0.455
-0.45
-0.465
-0.505
-0.505
-0.495
-0.495
-0.5
-0.5
-0.505
-0.495
-0.49
-0.49
-0.5
-0.52
-0.535
-0.525
-0.5
-0.5
-0.51
-0.53
-0.545
-0.525
-0.5
-0.505
-0.515
-0.53
-0.515
-0.505
-0.495
-0.505
-0.5
-0.52
-0.525
-0.525
-0.525
-0.52
-0.515
-0.545
-0.55
-0.535
-0.515
-0.52
-0.535
-0.56
-0.56
-0.55
-0.545
-0.535
-0.53
-0.55
-0.56
-0.545
-0.535
-0.525
-0.525
-0.53
-0.53
-0.54
-0.535
-0.54
-0.535
-0.55
-0.55
-0.555
-0.545
-0.55
-0.545
-0.56
-0.56
-0.535
-0.515
-0.505
-0.51
-0.53
-0.535
-0.52
-0.49
-0.485
-0.505
-0.52
-0.515
-0.51
-0.495
-0.485
-0.5
-0.49
-0.5
-0.495
-0.48
-0.485
-0.485
-0.475
-0.455
-0.42
-0.36
-0.225
0.05
0.52
1.015
1.18
0.99
0.695
0.52
0.435
0.38
0.295
0.19
0.1
-0.025
-0.155
-0.29
-0.405
-0.515
-0.635
-0.795
-0.955
-1.105
-1.245
-1.38
-1.49
-1.61
-1.685
-1.76
-1.815
-1.855
-1.88
-1.9
-1.925
-1.89
-1.84
-1.805
-1.765
-1.715
-1.625
-1.505
-1.375
-1.23
-1.13
-1.1
-1.085
-1.075
-1.025
-0.965
-0.915
-0.865
-0.815
-0.76
-0.7
-0.62
-0.55
-0.5
-0.465
-0.435
-0.375
-0.34
-0.305
-0.285
-0.285
-0.265
-0.225
-0.205
-0.195
-0.18
-0.185
-0.185
-0.16
-0.14
-0.14
-0.135
-0.15
-0.15
-0.135
-0.12
-0.11
-0.12
-0.125
-0.105
-0.085
-0.06
-0.045
-0.03
-0.035
-0.01
-0.015
0.025
0.035
0.045
0.045
0.055
0.085
0.12
0.13
0.14
0.17
0.19
0.22
0.27
0.285
0.3
0.31
0.33
0.35
0.385
0.435
0.445
0.46
0.475
0.51
0.54
0.555
0.555
0.56
0.57
0.585
0.59
0.585
0.59
0.59
0.56
0.57
0.58
0.575
0.53
0.49
0.47
0.45
0.44
0.42
0.375
0.33
0.285
0.27
0.245
0.215
0.165
0.115
0.04
0.01
-0.01
-0.035
-0.07
-0.1
-0.13
-0.135
-0.16
-0.195
-0.23
-0.24
-0.265
-0.285
-0.28
-0.285
-0.315
-0.345
-0.365
-0.36
-0.345
-0.35
-0.36
-0.38
-0.395
-0.39
-0.385
-0.37
-0.4
-0.4
-0.415
-0.39
-0.375
-0.38
-0.4
-0.415
-0.41
-0.405
-0.4
-0.4
-0.395
-0.41
-0.42
-0.415
-0.42
-0.415
-0.425
-0.435
-0.455
-0.43
-0.42
-0.41
-0.425
-0.43
-0.435
-0.43
-0.425
-0.425
-0.44
-0.46
-0.475
-0.455
-0.44
-0.435
-0.445
-0.465
-0.465
-0.45
-0.425
-0.42
-0.425
-0.43
-0.425
-0.415
-0.4
-0.395
-0.41
-0.435
-0.45
-0.43
-0.42
-0.415
-0.425
-0.445
-0.45
-0.445
-0.42
-0.41
-0.425
-0.445
-0.46
-0.43
-0.415
-0.42
-0.43
-0.445
-0.45
-0.43
-0.425
-0.43
-0.425
-0.43
-0.445
-0.43
-0.415
-0.425
-0.425
-0.435
-0.44
-0.43
-0.425
-0.43
-0.445
-0.455
-0.455
-0.43
-0.425
-0.415
-0.42
-0.43
-0.425
-0.43
-0.4
-0.405
-0.41
-0.415
-0.415
-0.405
-0.395
-0.39
-0.39
-0.405
-0.41
-0.4
-0.39
-0.39
-0.39
-0.385
-0.375
-0.365
-0.345
-0.32
-0.325
-0.3
-0.28
-0.19
-0.04
0.315
0.8
1.195
1.25
1.035
0.785
0.655
0.585
0.505
0.39
0.29
0.175
0.075
-0.07
-0.2
-0.315
-0.425
-0.54
-0.65
-0.79
-0.945
-1.08
-1.21
-1.31
-1.425
-1.515
-1.6
-1.67
-1.725
-1.755
-1.78
-1.8
-1.805
-1.795
-1.735
-1.67
-1.61
-1.555
-1.45
-1.325
-1.17
-1.015
-0.915
-0.85
-0.84
-0.84
-0.785
-0.705
-0.64
-0.545
-0.475
-0.405
-0.325
-0.25
-0.2
-0.17
-0.16
-0.145
-0.125
-0.09
-0.065
-0.065
-0.065
-0.065
-0.04
-0.015
-0.005
-0.025
-0.025
-0.01
-0.005
0.015
0.025
0.015
0.015
0.02
0.035
0.06
0.07
0.065
0.05
0.06
0.085
0.1
0.12
0.125
0.115
0.12
0.14
0.165
0.165
0.175
0.165
0.19
0.235
0.265
0.295
0.29
0.31
0.34
0.36
0.4
0.43
0.455
0.475
0.495
0.525
0.565
0.605
0.62
0.615
0.635
0.655
0.71
0.735
0.73
0.745
0.755
0.775
0.785
0.79
0.78
0.76
0.755
0.755
0.76
0.77
0.75
0.71
0.685
0.68
0.655
0.62
0.59
0.54
0.49
0.465
0.44
0.415
0.35
0.3
0.255
0.225
0.2
0.165
0.11
0.065
0.025
0.005
-0.015
-0.035
-0.075
-0.1
-0.125
-0.12
-0.13
-0.145
-0.155
-0.19
-0.21
-0.205
-0.2
-0.2
-0.22
-0.235
-0.235
-0.245
-0.23
-0.225
-0.24
-0.25
-0.245
-0.24
-0.24
-0.24
-0.24
-0.255
-0.25
-0.26
-0.265
-0.24
-0.265
-0.29
-0.285
-0.27
-0.26
-0.26
-0.27
-0.28
-0.285
-0.285
-0.265
-0.25
-0.25
-0.255
-0.26
-0.25
-0.225
-0.235
-0.25
-0.255
-0.26
-0.25
-0.245
-0.26
-0.26
-0.29
-0.27
-0.255
-0.25
-0.24
-0.25
-0.27
-0.265
-0.265
-0.25
-0.245
-0.255
-0.275
-0.27
-0.265
-0.26
-0.255
-0.255
-0.275
-0.28
-0.275
-0.265
-0.28
-0.3
-0.315
-0.3
-0.29
-0.295
-0.275
-0.28
-0.295
-0.31
-0.29
-0.29
-0.28
-0.295
-0.305
-0.31
-0.295
-0.275
-0.275
-0.275
-0.29
-0.285
-0.28
-0.27
-0.27
-0.26
-0.29
-0.28
-0.275
-0.265
-0.265
-0.27
-0.28
-0.275
-0.295
-0.28
-0.275
-0.265
-0.295
-0.285
-0.275
-0.255
-0.26
-0.265
-0.275
-0.27
-0.275
-0.255
-0.27
-0.27
-0.29
-0.295
-0.285
-0.27
-0.255
-0.255
-0.265
-0.26
-0.25
-0.255
-0.25
-0.24
-0.26
-0.265
-0.25
-0.245
-0.24
-0.26
-0.255
-0.245
-0.23
-0.19
-0.19
-0.135
-0.075
0.06
0.325
0.735
1.15
1.4
1.35
1.16
0.965
0.87
0.8
0.72
0.605
0.525
0.44
0.38
0.26
0.135
0.005
-0.1
-0.185
-0.29
-0.425
-0.545
-0.7
-0.82
-0.945
-1.05
-1.17
-1.28
-1.38
-1.44
-1.49
-1.535
-1.575
-1.625
-1.63
-1.62
-1.575
-1.51
-1.45
-1.38
-1.32
-1.255
-1.18
-1.085
-0.975
-0.87
-0.79
-0.7
-0.6
-0.535
-0.48
-0.425
-0.35
-0.275
-0.19
-0.125
-0.08
-0.07
-0.055
-0.06
-0.035
-0.005
-0.005
-0.005
-0.01
-0.015
0.0
0.03
0.01
0.005
-0.005
-0.005
0.01
0.02
0.035
0.03
0.035
0.03
0.035
0.065
0.07
0.065
0.06
0.055
0.09
0.105
0.115
0.115
0.12
0.115
0.13
0.155
0.155
0.165
0.16
0.185
0.195
0.23
0.23
0.24
0.245
0.25
0.28
0.31
0.335
0.315
0.335
0.34
0.355
0.39
0.41
0.41
0.415
0.435
0.445
0.48
0.495
0.52
0.51
0.53
0.55
0.565
0.6
0.6
0.59
0.6
0.63
0.645
0.65
0.64
0.62
0.62
0.615
0.63
0.605
0.59
0.54
0.52
0.515
0.515
0.47
0.445
0.39
0.355
0.32
0.305
0.275
0.24
0.2
0.185
0.155
0.145
0.125
0.08
0.055
0.025
0.005
0.0
-0.01
-0.035
-0.06
-0.07
-0.08
-0.085
-0.095
-0.105
-0.135
-0.14
-0.145
-0.14
-0.15
-0.155
-0.16
-0.175
-0.175
-0.15
-0.155
-0.18
-0.18
-0.19
-0.18
-0.17
-0.16
-0.175
-0.18
-0.2
-0.18
-0.17
-0.165
-0.185
-0.195
-0.21
-0.185
-0.19
-0.195
-0.19
-0.205
-0.2
-0.195
-0.18
-0.17
-0.185
-0.215
-0.215
-0.205
-0.18
-0.195
-0.195
-0.225
-0.21
-0.205
-0.175
-0.18
-0.19
-0.21
-0.21
-0.205
-0.195
-0.19
-0.19
-0.21
-0.2
-0.19
-0.18
-0.18
-0.195
-0.195
-0.2
-0.195
-0.17
-0.17
-0.175
-0.18
-0.2
-0.18
-0.16
-0.155
-0.155
-0.165
-0.15
-0.095
-0.055
-0.015
0.03
0.08
0.155
0.245
0.33
0.4
0.455
0.505
0.555
0.615
0.67
0.735
0.795
0.865
0.93
1.01
1.09
1.165
1.245
1.34
1.455
1.56
1.665
1.72
1.765
1.835
1.905
1.995
2.055
2.075
2.06
2.01
1.915
1.76
1.5
1.105
0.675
0.295
0.06
-0.075
-0.14
-0.2
-0.275
-0.37
-0.435
-0.48
-0.5
-0.535
-0.56
-0.585
-0.605
-0.625
-0.61
-0.62
-0.66
-0.69
-0.7
-0.7
-0.695
-0.695
-0.715
-0.725
-0.735
-0.73
-0.725
-0.735
-0.745
-0.76
-0.775
-0.775
-0.78
-0.79
-0.83
-0.85
-0.875
-0.87
-0.86
-0.885
-0.89
-0.93
-0.94
-0.955
-0.955
-0.985
-1.01
-1.035
-1.06
-1.08
-1.085
-1.09
-1.13
-1.16
-1.18
-1.2
-1.21
-1.245
-1.275
-1.315
-1.34
-1.355
-1.36
-1.385
-1.425
-1.455
-1.495
-1.51
-1.51
-1.535
-1.56
-1.595
-1.62
-1.625
-1.65
-1.65
-1.7
-1.72
-1.75
-1.745
-1.75
-1.76
-1.765
-1.785
-1.795
-1.795
-1.775
-1.785
-1.785
-1.795
-1.8
-1.785
-1.765
-1.77
-1.77
-1.775
-1.76
-1.74
-1.695
-1.685
-1.66
-1.66
-1.63
-1.605
-1.565
-1.535
-1.525
-1.51
-1.465
-1.425
-1.385
-1.36
-1.335
-1.34
-1.305
-1.25
-1.21
-1.18
-1.165
-1.155
-1.125
-1.08
-1.035
-0.995
-0.99
-0.985
-0.935
-0.9
-0.865
-0.825
-0.8
-0.78
-0.76
-0.71
-0.67
-0.645
-0.625
-0.61
-0.59
-0.56
-0.525
-0.51
-0.475
-0.485
-0.46
-0.425
-0.385
-0.365
-0.35
-0.34
-0.33
-0.3
-0.28
-0.26
-0.25
-0.245
-0.24
-0.24
-0.205
-0.19
-0.185
-0.19
-0.17
-0.16
-0.125
-0.11
-0.105
-0.12
-0.125
-0.105
-0.095
-0.08
-0.1
-0.115
-0.11
-0.11
-0.085
-0.09
-0.095
-0.115
-0.105
-0.085
-0.05
-0.04
-0.04
-0.03
-0.035
-0.025
-0.025
-0.005
-0.02
-0.035
-0.04
-0.02
-0.01
-0.005
-0.015
-0.015
-0.02
-0.005
-0.01
0.005
0.0
-0.02
-0.03
-0.01
0.01
0.01
0.0
-0.005
-0.01
0.005
0.03
0.02
0.01
-0.01
-0.01
-0.015
0.005
0.01
-0.02
-0.02
-0.03
-0.005
0.015
0.02
0.0
-0.005
-0.03
-0.01
-0.005
0.0
-0.025
-0.01
-0.02
0.005
0.04
0.035
0.035
0.02
0.01
0.02
0.02
0.035
0.005
-0.01
-0.015
0.0
0.025
0.02
0.015
0.0
-0.01
0.005
0.01
0.025
0.02
0.005
-0.005
0.0
0.015
0.015
0.01
-0.005
-0.02
0.0
0.01
0.01
0.0
-0.015
-0.005
0.005
0.02
0.015
0.005
-0.025
-0.015
-0.005
0.01
0.02
-0.005
-0.02
-0.025
-0.015
0.0
-0.015
0.0
-0.01
-0.02
0.0
0.005
0.005
-0.005
-0.025
-0.025
-0.01
-0.005
-0.005
-0.015
-0.015
-0.025
-0.015
0.005
0.005
0.01
0.01
-0.005
0.03
0.045
0.055
0.05
0.055
0.07
0.11
0.18
0.29
0.495
0.9
1.365
1.625
1.57
1.32
1.105
0.995
0.95
0.895
0.82
0.73
0.63
0.505
0.395
0.3
0.205
0.1
-0.035
-0.16
-0.285
-0.41
-0.52
-0.66
-0.8
-0.965
-1.065
-1.155
-1.22
-1.29
-1.375
-1.445
-1.485
-1.5
-1.505
-1.515
-1.51
-1.485
-1.475
-1.435
-1.37
-1.305
-1.24
-1.14
-1.045
-0.935
-0.805
-0.705
-0.655
-0.665
-0.625
-0.6
-0.545
-0.495
-0.465
-0.415
-0.35
-0.275
-0.195
-0.135
-0.085
-0.045
-0.01
0.045
0.095
0.13
0.15
0.15
0.165
0.175
0.215
0.225
0.225
0.22
0.23
0.26
0.275
0.28
0.26
0.265
0.28
0.29
0.305
0.32
0.315
0.31
0.32
0.335
0.355
0.36
0.35
0.35
0.36
0.37
0.39
0.41
0.4
0.415
0.43
0.46
0.49
0.51
0.515
0.53
0.545
0.565
0.595
0.61
0.62
0.62
0.64
0.665
0.695
0.71
0.72
0.715
0.72
0.745
0.77
0.79
0.8
0.805
0.81
0.855
0.87
0.89
0.885
0.89
0.89
0.9
0.92
0.94
0.93
0.92
0.915
0.92
0.94
0.915
0.885
0.88
0.86
0.855
0.84
0.825
0.805
0.76
0.73
0.705
0.68
0.64
0.6
0.54
0.49
0.455
0.425
0.385
0.335
0.295
0.275
0.275
0.25
0.235
0.205
0.165
0.14
0.12
0.115
0.09
0.055
0.025
0.025
0.005
0.005
-0.03
-0.03
-0.07
-0.08
-0.09
-0.085
-0.09
-0.11
-0.125
-0.145
-0.13
-0.12
-0.13
-0.145
-0.165
-0.18
-0.175
-0.155
-0.16
-0.175
-0.205
-0.195
-0.2
-0.2
-0.19
-0.205
-0.225
-0.225
-0.225
-0.21
-0.21
-0.23
-0.245
-0.24
-0.24
-0.235
-0.24
-0.255
-0.265
-0.275
-0.27
-0.265
-0.27
-0.29
-0.295
-0.285
-0.275
-0.285
-0.28
-0.29
-0.31
-0.325
-0.32
-0.31
-0.32
-0.335
-0.34
-0.35
-0.34
-0.33
-0.325
-0.345
-0.355
-0.35
-0.33
-0.305
-0.29
-0.285
-0.28
-0.25
-0.205
-0.145
-0.085
-0.005
0.07
0.15
0.24
0.32
0.375
0.435
0.485
0.545
0.64
0.71
0.79
0.86
0.915
0.96
1.06
1.19
1.305
1.4
1.485
1.545
1.635
1.755
1.855
1.91
1.93
1.93
1.895
1.81
1.65
1.36
0.925
0.455
0.055
-0.21
-0.345
-0.41
-0.465
-0.545
-0.615
-0.67
-0.72
-0.785
-0.815
-0.845
-0.855
-0.87
-0.89
-0.92
-0.945
-0.96
-0.965
-0.96
-0.98
-1.0
-1.01
-1.025
-1.015
-1.015
-1.015
-1.04
-1.06
-1.08
-1.075
-1.085
-1.115
-1.13
-1.14
-1.16
-1.16
-1.17
-1.175
-1.21
-1.24
-1.255
-1.27
-1.285
-1.31
-1.33
-1.375
-1.41
-1.405
-1.42
-1.45
-1.48
-1.52
-1.55
-1.57
-1.595
-1.615
-1.655
-1.71
-1.745
-1.765
-1.76
-1.78
-1.82
-1.855
-1.875
-1.89
-1.885
-1.905
-1.93
-1.95
-1.96
-1.965
-1.95
-1.965
-1.99
-2.025
-2.02
-1.995
-1.98
-1.975
-1.97
-1.98
-1.99
-1.97
-1.945
-1.935
-1.93
-1.935
-1.925
-1.885
-1.86
-1.84
-1.825
-1.805
-1.785
-1.74
-1.715
-1.675
-1.66
-1.64
-1.625
-1.575
-1.53
-1.5
-1.48
-1.475
-1.45
-1.425
-1.36
-1.335
-1.3
-1.29
-1.26
-1.225
-1.185
-1.165
-1.125
-1.12
-1.085
-1.055
-1.0
-0.975
-0.95
-0.94
-0.9
-0.885
-0.835
-0.815
-0.81
-0.81
-0.805
-0.79
-0.78
-0.76
-0.77
-0.775
-0.77
-0.755
-0.73
-0.715
-0.725
-0.72
-0.695
-0.67
-0.625
-0.58
-0.52
-0.46
-0.38
-0.295
-0.205
-0.13
-0.05
0.045
0.125
0.23
0.35
0.465
0.56
0.63
0.635
0.615
0.555
0.425
0.17
-0.17
-0.49
-0.695
-0.79
-0.815
-0.84
-0.875
-0.9
-0.895
-0.89
-0.905
-0.94
-0.98
-1.0
-1.025
-1.03
-1.035
-1.025
-1.01
-0.96
-0.875
-0.81
-0.725
-0.64
-0.6
-0.555
-0.525
-0.5
-0.49
-0.49
-0.5
-0.51
-0.495
-0.505
-0.49
-0.5
-0.5
-0.5
-0.51
-0.495
-0.49
-0.505
-0.53
-0.53
-0.515
-0.52
-0.515
-0.55
-0.53
-0.535
-0.515
-0.495
-0.485
-0.525
-0.55
-0.555
-0.56
-0.565
-0.57
-0.59
-0.62
-0.63
-0.635
-0.64
-0.645
-0.68
-0.7
-0.71
-0.705
-0.705
-0.71
-0.735
-0.755
-0.765
-0.76
-0.755
-0.76
-0.75
-0.755
-0.77
-0.75
-0.73
-0.71
-0.71
-0.72
-0.705
-0.68
-0.65
-0.64
-0.635
-0.625
-0.625
-0.615
-0.575
-0.525
-0.525
-0.5
-0.48
-0.445
-0.43
-0.405
-0.405
-0.39
-0.375
-0.35
-0.34
-0.34
-0.35
-0.355
-0.345
-0.33
-0.305
-0.305
-0.295
-0.295
-0.295
-0.285
-0.28
-0.27
-0.275
-0.295
-0.295
-0.275
-0.275
-0.26
-0.265
-0.3
-0.3
-0.275
-0.275
-0.26
-0.265
-0.275
-0.29
-0.28
-0.275
-0.27
-0.285
-0.295
-0.295
-0.285
-0.27
-0.27
-0.285
-0.295
-0.285
-0.255
-0.24
-0.235
-0.255
-0.265
-0.26
-0.235
-0.225
-0.24
-0.24
-0.26
-0.265
-0.25
-0.245
-0.25
-0.26
-0.26
-0.26
-0.27
-0.235
-0.23
-0.235
-0.25
-0.245
-0.235
-0.235
-0.235
-0.225
-0.24
-0.24
-0.24
-0.22
-0.22
-0.235
-0.25
-0.255
-0.245
-0.22
-0.245
-0.24
-0.255
-0.26
-0.25
-0.23
-0.23
-0.25
-0.27
-0.28
-0.265
-0.265
-0.275
-0.285
-0.295
-0.3
-0.285
-0.255
-0.24
-0.24
-0.26
-0.265
-0.265
-0.235
-0.235
-0.255
-0.25
-0.265
-0.25
-0.26
-0.25
-0.27
-0.27
-0.265
-0.235
-0.22
-0.23
-0.245
-0.26
-0.255
-0.25
-0.24
-0.23
-0.24
-0.24
-0.265
-0.265
-0.235
-0.23
-0.245
-0.275
-0.275
-0.235
-0.235
-0.225
-0.22
-0.235
-0.25
-0.245
-0.235
-0.225
-0.255
-0.265
-0.265
-0.27
-0.265
-0.255
-0.245
-0.275
-0.265
-0.24
-0.21
-0.205
-0.215
-0.24
-0.225
-0.205
-0.195
-0.19
-0.195
-0.21
-0.21
-0.21
-0.185
-0.18
-0.19
-0.21
-0.195
-0.175
-0.17
-0.165
-0.185
-0.16
-0.175
-0.155
-0.15
-0.15
-0.16
-0.17
-0.165
-0.135
-0.11
-0.075
-0.025
0.07
0.325
0.825
1.36
1.6
1.4
1.03
0.81
0.76
0.71
0.645
0.54
0.43
0.31
0.205
0.11
0.01
-0.105
-0.24
-0.355
-0.47
-0.59
-0.73
-0.885
-1.025
-1.125
-1.195
-1.25
-1.32
-1.38
-1.42
-1.455
-1.465
-1.445
-1.42
-1.41
-1.395
-1.355
-1.31
-1.225
-1.13
-1.025
-0.92
-0.805
-0.715
-0.66
-0.645
-0.625
-0.59
-0.555
-0.505
-0.445
-0.385
-0.34
-0.29
-0.21
-0.13
-0.06
-0.005
0.025
0.055
0.095
0.125
0.165
0.17
0.175
0.19
0.21
0.215
0.235
0.24
0.255
0.235
0.235
0.27
0.285
0.29
0.29
0.27
0.3
0.305
0.345
0.355
0.34
0.325
0.33
0.36
0.385
0.38
0.4
0.41
0.43
0.46
0.475
0.5
0.5
0.505
0.505
0.555
0.6
0.61
0.635
0.63
0.64
0.675
0.715
0.73
0.73
0.74
0.755
0.78
0.825
0.825
0.83
0.825
0.82
0.85
0.875
0.875
0.865
0.84
0.84
0.825
0.835
0.82
0.805
0.77
0.74
0.725
0.715
0.68
0.66
0.625
0.6
0.57
0.555
0.525
0.49
0.455
0.43
0.415
0.41
0.395
0.355
0.32
0.295
0.305
0.3
0.3
0.275
0.255
0.22
0.2
0.19
0.175
0.14
0.12
0.115
0.11
0.11
0.095
0.06
0.055
0.035
0.025
0.05
0.045
0.025
0.01
0.0
0.01
0.015
0.01
-0.01
-0.025
-0.025
-0.03
0.0
-0.015
-0.02
-0.05
-0.065
-0.05
-0.04
-0.025
-0.02
-0.03
-0.035
-0.03
-0.01
-0.005
-0.01
-0.02
-0.02
-0.01
0.015
0.005
-0.015
-0.04
-0.04
-0.04
-0.045
-0.04
-0.05
-0.065
-0.085
-0.08
-0.065
-0.07
-0.08
-0.1
-0.115
-0.115
-0.1
-0.095
-0.125
-0.135
-0.135
-0.12
-0.12
-0.11
-0.125
-0.145
-0.15
-0.155
-0.15
-0.155
-0.175
-0.19
-0.19
-0.165
-0.155
-0.15
-0.16
-0.175
-0.17
-0.16
-0.145
-0.14
-0.13
-0.14
-0.13
-0.11
-0.1
-0.1
-0.09
-0.095
-0.105
-0.105
-0.105
-0.095
-0.11
-0.12
-0.125
-0.12
-0.11
-0.09
-0.115
-0.115
-0.13
-0.11
-0.12
-0.1
-0.11
-0.125
-0.11
-0.11
-0.095
-0.105
-0.11
-0.115
-0.11
-0.1
-0.08
-0.085
-0.09
-0.09
-0.08
-0.065
-0.035
-0.02
-0.025
-0.015
0.025
0.115
0.32
0.675
1.16
1.495
1.52
1.27
1.025
0.91
0.825
0.73
0.64
0.535
0.435
0.315
0.17
0.035
-0.07
-0.18
-0.285
-0.425
-0.57
-0.715
-0.84
-0.95
-1.04
-1.15
-1.245
-1.33
-1.39
-1.425
-1.465
-1.485
-1.515
-1.525
-1.53
-1.495
-1.435
-1.405
-1.365
-1.315
-1.255
-1.165
-1.035
-0.93
-0.83
-0.745
-0.695
-0.635
-0.6
-0.56
-0.52
-0.485
-0.44
-0.38
-0.315
-0.245
-0.2
-0.16
-0.11
-0.07
-0.01
0.015
0.04
0.08
0.12
0.165
0.215
0.23
0.245
0.23
0.235
0.265
0.29
0.305
0.305
0.315
0.32
0.325
0.345
0.36
0.365
0.355
0.37
0.38
0.415
0.4
0.405
0.42
0.435
0.475
0.49
0.5
0.49
0.48
0.48
0.525
0.555
0.565
0.565
0.57
0.575
0.605
0.635
0.655
0.645
0.67
0.675
0.72
0.755
0.78
0.78
0.79
0.805
0.855
0.9
0.935
0.95
0.95
0.96
0.995
1.025
1.04
1.035
1.04
1.065
1.08
1.105
1.11
1.115
1.095
1.095
1.1
1.115
1.105
1.075
1.05
1.02
1.02
0.985
0.97
0.935
0.9
0.85
0.825
0.795
0.765
0.72
0.65
0.61
0.575
0.54
0.505
0.45
0.385
0.35
0.325
0.305
0.28
0.24
0.195
0.17
0.165
0.16
0.135
0.1
0.08
0.08
0.08
0.07
0.055
0.025
0.015
0.01
0.01
0.0
-0.01
-0.01
-0.02
-0.03
-0.025
-0.02
-0.005
-0.02
-0.03
-0.035
-0.03
-0.01
-0.01
-0.025
-0.04
-0.04
-0.035
-0.025
-0.015
-0.03
-0.035
-0.045
-0.035
-0.015
-0.025
-0.02
-0.045
-0.045
-0.045
-0.03
-0.04
-0.05
-0.055
-0.06
-0.04
-0.045
-0.06
-0.07
-0.095
-0.1
-0.1
-0.09
-0.095
-0.09
-0.085
-0.11
-0.095
-0.09
-0.09
-0.115
-0.13
-0.14
-0.13
-0.12
-0.13
-0.125
-0.13
-0.145
-0.12
-0.1
-0.09
-0.1
-0.125
-0.135
-0.11
-0.095
-0.11
-0.1
-0.115
-0.115
-0.095
-0.085
-0.095
-0.1
-0.115
-0.12
-0.09
-0.09
-0.075
-0.09
-0.1
-0.115
-0.095
-0.1
-0.09
-0.095
-0.115
-0.11
-0.1
-0.085
-0.085
-0.1
-0.13
-0.12
-0.115
-0.115
-0.1
-0.11
-0.125
-0.13
-0.115
-0.11
-0.115
-0.13
-0.155
-0.145
-0.145
-0.14
-0.13
-0.15
-0.145
-0.14
-0.12
-0.105
-0.09
-0.105
-0.105
-0.115
-0.09
-0.09
-0.09
-0.08
-0.09
-0.095
-0.08
-0.07
-0.05
-0.06
-0.065
-0.045
-0.025
0.04
0.105
0.26
0.56
0.995
1.385
1.49
1.335
1.105
0.94
0.87
0.83
0.775
0.67
0.575
0.46
0.365
0.26
0.16
0.045
-0.07
-0.185
-0.31
-0.425
-0.52
-0.635
-0.78
-0.925
-1.045
-1.135
-1.21
-1.28
-1.35
-1.415
-1.48
-1.525
-1.555
-1.555
-1.575
-1.6
-1.6
-1.565
-1.51
-1.475
-1.44
-1.4
-1.335
-1.22
-1.095
-0.985
-0.88
-0.78
-0.715
-0.675
-0.65
-0.62
-0.585
-0.56
-0.51
-0.435
-0.365
-0.315
-0.28
-0.225
-0.165
-0.105
-0.03
0.02
0.05
0.075
0.125
0.17
0.205
0.225
0.24
0.24
0.255
0.28
0.29
0.305
0.305
0.285
0.295
0.29
0.325
0.345
0.34
0.335
0.345
0.365
0.4
0.4
0.395
0.395
0.405
0.435
0.45
0.47
0.465
0.455
0.48
0.485
0.51
0.52
0.545
0.54
0.54
0.565
0.59
0.625
0.64
0.645
0.67
0.69
0.72
0.755
0.765
0.76
0.785
0.815
0.85
0.86
0.875
0.88
0.905
0.935
0.965
0.98
0.98
0.97
0.97
1.005
1.03
1.025
1.035
1.01
1.025
1.03
1.05
1.045
1.015
1.005
0.98
0.965
0.96
0.925
0.88
0.83
0.795
0.77
0.74
0.71
0.655
0.585
0.56
0.52
0.495
0.455
0.415
0.355
0.335
0.295
0.285
0.25
0.23
0.2
0.185
0.175
0.17
0.155
0.125
0.105
0.085
0.075
0.075
0.06
0.05
0.02
-0.01
0.015
0.01
-0.005
-0.01
-0.025
-0.02
-0.01
0.01
0.01
-0.005
-0.025
-0.04
-0.025
-0.015
-0.005
-0.01
-0.025
-0.025
-0.01
0.005
-0.005
-0.015
-0.025
-0.035
-0.03
-0.015
-0.015
-0.02
-0.04
-0.035
-0.03
-0.035
-0.02
-0.035
-0.05
-0.045
-0.05
-0.045
-0.04
-0.045
-0.05
-0.055
-0.035
