Lead II
-0.58
-0.58
-0.565
-0.56
-0.565
-0.56
-0.565
-0.56
-0.545
-0.525
-0.525
-0.52
-0.52
-0.51
-0.505
-0.48
-0.47
-0.465
-0.465
-0.455
-0.44
-0.405
-0.395
-0.395
-0.375
-0.385
-0.36
-0.34
-0.31
-0.315
-0.305
-0.3
-0.28
-0.25
-0.235
-0.225
-0.215
-0.21
-0.18
-0.16
-0.165
-0.145
-0.14
-0.125
-0.1
-0.075
-0.08
-0.065
-0.08
-0.08
-0.055
-0.05
-0.05
-0.045
-0.05
-0.055
-0.045
-0.04
-0.035
-0.06
-0.07
-0.07
-0.055
-0.055
-0.05
-0.075
-0.075
-0.095
-0.09
-0.085
-0.095
-0.105
-0.115
-0.125
-0.125
-0.11
-0.115
-0.125
-0.105
-0.095
-0.09
-0.08
-0.085
-0.09
-0.09
-0.1
-0.095
-0.08
-0.1
-0.115
-0.135
-0.125
-0.105
-0.085
-0.075
-0.085
-0.08
-0.075
-0.065
-0.07
-0.065
-0.07
-0.06
-0.075
-0.065
-0.06
-0.065
-0.055
-0.075
-0.085
-0.055
-0.04
-0.03
-0.05
-0.065
-0.075
-0.1
-0.105
-0.135
-0.16
-0.195
-0.205
-0.215
-0.22
-0.24
-0.26
-0.265
-0.265
-0.265
-0.27
-0.265
-0.265
-0.275
-0.28
-0.27
-0.26
-0.28
-0.265
-0.27
-0.28
-0.27
-0.25
-0.265
-0.265
-0.27
-0.275
-0.25
-0.25
-0.24
-0.25
-0.26
-0.255
-0.245
-0.235
-0.235
-0.235
-0.24
-0.245
-0.23
-0.22
-0.22
-0.23
-0.23
-0.23
-0.225
-0.215
-0.21
-0.215
-0.22
-0.225
-0.215
-0.205
-0.21
-0.215
-0.23
-0.24
-0.245
-0.26
-0.27
-0.29
-0.285
-0.235
-0.135
0.0
0.15
0.28
0.385
0.485
0.585
0.685
0.815
0.935
1.065
1.205
1.335
1.42
1.465
1.475
1.46
1.425
1.365
1.245
1.065
0.88
0.725
0.56
0.44
0.275
0.085
-0.135
-0.305
-0.455
-0.58
-0.675
-0.775
-0.83
-0.865
-0.87
-0.865
-0.845
-0.835
-0.835
-0.835
-0.81
-0.77
-0.715
-0.685
-0.665
-0.645
-0.63
-0.6
-0.57
-0.545
-0.52
-0.5
-0.495
-0.485
-0.465
-0.46
-0.47
-0.48
-0.49
-0.48
-0.475
-0.47
-0.49
-0.505
-0.505
-0.49
-0.485
-0.5
-0.5
-0.51
-0.515
-0.51
-0.5
-0.505
-0.505
-0.52
-0.52
-0.525
-0.52
-0.52
-0.53
-0.535
-0.535
-0.535
-0.515
-0.525
-0.53
-0.525
-0.535
-0.525
-0.5
-0.5
-0.505
-0.505
-0.505
-0.485
-0.47
-0.465
-0.445
-0.44
-0.425
-0.41
-0.375
-0.355
-0.35
-0.34
-0.335
-0.315
-0.29
-0.285
-0.265
-0.25
-0.24
-0.22
-0.19
-0.18
-0.165
-0.16
-0.145
-0.135
-0.105
-0.09
-0.09
-0.09
-0.085
-0.07
-0.045
-0.035
-0.045
-0.03
-0.04
-0.035
-0.01
-0.01
-0.02
-0.015
-0.01
-0.01
-0.01
-0.015
-0.025
-0.02
-0.04
-0.045
-0.035
-0.04
-0.045
-0.06
-0.065
-0.07
-0.05
-0.055
-0.055
-0.06
-0.065
-0.06
-0.04
-0.04
-0.045
-0.06
-0.065
-0.065
-0.055
-0.05
-0.05
-0.05
-0.045
-0.01
0.015
0.01
-0.005
-0.01
-0.015
-0.015
-0.005
-0.015
-0.025
-0.03
-0.045
-0.025
-0.01
-0.005
-0.01
-0.02
-0.035
-0.035
-0.06
-0.09
-0.12
-0.16
-0.185
-0.195
-0.215
-0.225
-0.235
-0.265
-0.265
-0.25
-0.25
-0.255
-0.255
-0.265
-0.255
-0.245
-0.24
-0.245
-0.25
-0.255
-0.255
-0.255
-0.235
-0.23
-0.255
-0.255
-0.255
-0.255
-0.235
-0.235
-0.24
-0.255
-0.26
-0.25
-0.235
-0.235
-0.24
-0.245
-0.25
-0.245
-0.23
-0.23
-0.235
-0.235
-0.24
-0.225
-0.215
-0.205
-0.215
-0.215
-0.215
-0.21
-0.185
-0.19
-0.21
-0.22
-0.23
-0.235
-0.245
-0.265
-0.285
-0.285
-0.245
-0.14
-0.01
0.12
0.24
0.355
0.45
0.535
0.65
0.815
0.95
1.085
1.22
1.36
1.46
1.505
1.525
1.53
1.505
1.47
1.335
1.16
0.98
0.81
0.66
0.51
0.37
0.18
-0.05
-0.26
-0.43
-0.565
-0.685
-0.775
-0.845
-0.875
-0.895
-0.875
-0.85
-0.855
-0.865
-0.86
-0.84
-0.79
-0.74
-0.71
-0.675
-0.66
-0.645
-0.62
-0.58
-0.55
-0.54
-0.525
-0.505
-0.49
-0.475
-0.48
-0.485
-0.485
-0.485
-0.48
-0.48
-0.49
-0.5
-0.51
-0.515
-0.515
-0.515
-0.52
-0.53
-0.54
-0.55
-0.545
-0.54
-0.55
-0.555
-0.56
-0.575
-0.57
-0.565
-0.575
-0.565
-0.575
-0.57
-0.565
-0.545
-0.55
-0.555
-0.555
-0.55
-0.545
-0.525
-0.52
-0.515
-0.52
-0.515
-0.51
-0.485
-0.48
-0.48
-0.475
-0.455
-0.44
-0.405
-0.395
-0.385
-0.38
-0.37
-0.35
-0.315
-0.3
-0.295
-0.29
-0.28
-0.25
-0.21
-0.195
-0.185
-0.18
-0.165
-0.15
-0.13
-0.115
-0.105
-0.1
-0.095
-0.08
-0.055
-0.06
-0.05
-0.055
-0.06
-0.045
-0.035
-0.015
-0.025
-0.045
-0.05
-0.04
-0.045
-0.045
-0.06
-0.08
-0.065
-0.07
-0.06
-0.06
-0.07
-0.09
-0.1
-0.085
-0.075
-0.08
-0.085
-0.085
-0.095
-0.07
-0.065
-0.06
-0.07
-0.085
-0.085
-0.085
-0.075
-0.08
-0.095
-0.115
-0.105
-0.095
-0.07
-0.065
-0.045
-0.04
-0.065
-0.055
-0.05
-0.055
-0.06
-0.07
-0.08
-0.075
-0.06
-0.055
-0.05
-0.04
-0.045
-0.03
-0.035
-0.035
-0.06
-0.1
-0.125
-0.15
-0.165
-0.18
-0.205
-0.225
-0.255
-0.26
-0.26
-0.265
-0.27
-0.28
-0.29
-0.285
-0.275
-0.275
-0.275
-0.3
-0.3
-0.28
-0.27
-0.265
-0.27
-0.275
-0.285
-0.26
-0.25
-0.245
-0.26
-0.265
-0.265
-0.265
-0.24
-0.24
-0.25
-0.245
-0.26
-0.245
-0.235
-0.235
-0.25
-0.25
-0.255
-0.25
-0.225
-0.225
-0.245
-0.245
-0.245
-0.235
-0.225
-0.23
-0.23
-0.225
-0.235
-0.245
-0.23
-0.255
-0.265
-0.285
-0.305
-0.29
-0.245
-0.165
-0.04
0.085
0.215
0.345
0.465
0.535
0.63
0.75
0.915
1.065
1.215
1.355
1.47
1.545
1.58
1.595
1.605
1.57
1.465
1.29
1.09
0.9
0.725
0.545
0.37
0.17
-0.055
-0.265
-0.43
-0.58
-0.71
-0.815
-0.88
-0.91
-0.915
-0.91
-0.915
-0.895
-0.895
-0.895
-0.85
-0.825
-0.78
-0.745
-0.705
-0.68
-0.655
-0.64
-0.625
-0.595
-0.58
-0.55
-0.525
-0.52
-0.51
-0.52
-0.53
-0.515
-0.515
-0.505
-0.515
-0.53
-0.535
-0.53
-0.52
-0.525
-0.54
-0.545
-0.555
-0.56
-0.55
-0.56
-0.575
-0.585
-0.6
-0.585
-0.58
-0.585
-0.585
-0.6
-0.61
-0.6
-0.59
-0.59
-0.6
-0.615
-0.61
-0.605
-0.585
-0.575
-0.57
-0.57
-0.57
-0.55
-0.525
-0.515
-0.515
-0.5
-0.485
-0.475
-0.445
-0.415
-0.405
-0.395
-0.385
-0.37
-0.34
-0.33
-0.32
-0.315
-0.29
-0.265
-0.24
-0.235
-0.22
-0.23
-0.2
-0.19
-0.165
-0.15
-0.145
-0.135
-0.12
-0.115
-0.09
-0.085
-0.07
-0.07
-0.075
-0.07
-0.05
-0.045
-0.06
-0.075
-0.075
-0.07
-0.06
-0.075
-0.085
-0.09
-0.1
-0.105
-0.09
-0.095
-0.11
-0.125
-0.135
-0.125
-0.12
-0.12
-0.11
-0.12
-0.14
-0.115
-0.11
-0.11
-0.12
-0.125
-0.125
-0.13
-0.12
-0.125
-0.125
-0.125
-0.11
-0.09
-0.075
-0.07
-0.095
-0.095
-0.1
-0.075
-0.08
-0.085
-0.1
-0.1
-0.105
-0.09
-0.075
-0.06
-0.075
-0.09
-0.11
-0.12
-0.145
-0.175
-0.195
-0.22
-0.26
-0.265
-0.28
-0.29
-0.3
-0.31
-0.315
-0.31
-0.3
-0.31
-0.315
-0.32
-0.315
-0.315
-0.305
-0.31
-0.305
-0.32
-0.32
-0.31
-0.3
-0.295
-0.295
-0.3
-0.315
-0.315
-0.3
-0.3
-0.305
-0.31
-0.315
-0.305
-0.315
-0.31
-0.305
-0.305
-0.305
-0.28
-0.27
-0.28
-0.285
-0.305
-0.29
-0.28
-0.265
-0.27
-0.265
-0.27
-0.275
-0.27
-0.27
-0.255
-0.27
-0.28
-0.315
-0.315
-0.31
-0.29
-0.25
-0.135
-0.025
0.14
0.28
0.4
0.495
0.565
0.63
0.755
0.895
1.02
1.14
1.255
1.365
1.425
1.455
1.445
1.405
1.36
1.26
1.09
0.925
0.745
0.605
0.46
0.295
0.12
-0.085
-0.28
-0.445
-0.59
-0.72
-0.815
-0.88
-0.93
-0.95
-0.96
-0.965
-0.935
-0.925
-0.92
-0.915
-0.89
-0.845
-0.81
-0.755
-0.725
-0.715
-0.71
-0.69
-0.66
-0.62
-0.605
-0.57
-0.575
-0.575
-0.545
-0.535
-0.525
-0.54
-0.555
-0.555
-0.54
-0.555
-0.55
-0.56
-0.57
-0.56
-0.57
-0.565
-0.57
-0.575
-0.59
-0.615
-0.615
-0.58
-0.585
-0.615
-0.615
-0.625
-0.62
-0.6
-0.605
-0.61
-0.615
-0.61
-0.595
-0.58
-0.58
-0.595
-0.6
-0.6
-0.585
-0.575
-0.565
-0.57
-0.565
-0.565
-0.54
-0.52
-0.505
-0.5
-0.495
-0.485
-0.46
-0.45
-0.425
-0.415
-0.405
-0.4
-0.375
-0.35
-0.335
-0.32
-0.3
-0.285
-0.265
-0.25
-0.235
-0.23
-0.225
-0.22
-0.195
-0.17
-0.15
-0.16
-0.16
-0.145
-0.15
-0.12
-0.11
-0.125
-0.11
-0.105
-0.11
-0.1
-0.115
-0.115
-0.115
-0.13
-0.13
-0.13
-0.13
-0.13
-0.145
-0.15
-0.15
-0.135
-0.14
-0.16
-0.165
-0.17
-0.155
-0.165
-0.155
-0.16
-0.16
-0.17
-0.16
-0.155
-0.145
-0.15
-0.165
-0.175
-0.165
-0.15
-0.16
-0.18
-0.185
-0.175
-0.16
-0.13
-0.125
-0.12
-0.125
-0.14
-0.135
-0.125
-0.11
-0.125
-0.135
-0.12
-0.12
-0.11
-0.12
-0.115
-0.12
-0.125
-0.1
-0.11
-0.125
-0.15
-0.195
-0.22
-0.24
-0.255
-0.275
-0.295
-0.315
-0.345
-0.33
-0.345
-0.33
-0.34
-0.345
-0.36
-0.345
-0.345
-0.345
-0.35
-0.36
-0.355
-0.345
-0.34
-0.335
-0.33
-0.34
-0.34
-0.325
-0.315
-0.325
-0.335
-0.325
-0.33
-0.32
-0.33
-0.31
-0.32
-0.34
-0.33
-0.325
-0.31
-0.32
-0.325
-0.315
-0.33
-0.32
-0.315
-0.315
-0.315
-0.325
-0.335
-0.31
-0.315
-0.295
-0.295
-0.31
-0.31
-0.31
-0.305
-0.31
-0.325
-0.34
-0.345
-0.33
-0.28
-0.19
-0.07
0.065
0.19
0.325
0.43
0.47
0.535
0.62
0.735
0.86
0.985
1.08
1.155
1.175
1.16
1.155
1.145
1.105
1.015
0.89
0.745
0.6
0.515
0.4
0.285
0.155
0.01
-0.15
-0.31
-0.44
-0.565
-0.69
-0.78
-0.85
-0.895
-0.925
-0.915
-0.93
-0.925
-0.9
-0.88
-0.88
-0.87
-0.845
-0.805
-0.765
-0.735
-0.725
-0.705
-0.69
-0.675
-0.655
-0.625
-0.6
-0.595
-0.585
-0.57
-0.56
-0.545
-0.54
-0.55
-0.55
-0.55
-0.555
-0.52
-0.525
-0.54
-0.56
-0.56
-0.55
-0.555
-0.56
-0.555
-0.575
-0.58
-0.575
-0.565
-0.57
-0.59
-0.59
-0.59
-0.585
-0.565
-0.585
-0.58
-0.595
-0.6
-0.6
-0.59
-0.6
-0.595
-0.605
-0.605
-0.585
-0.575
-0.58
-0.57
-0.565
-0.555
-0.535
-0.525
-0.52
-0.515
-0.51
-0.495
-0.485
-0.45
-0.44
-0.445
-0.445
-0.43
-0.4
-0.39
-0.37
-0.36
-0.355
-0.345
-0.315
-0.29
-0.28
-0.27
-0.27
-0.265
-0.235
-0.22
-0.21
-0.195
-0.195
-0.19
-0.155
-0.135
-0.135
-0.125
-0.13
-0.115
-0.085
-0.075
-0.08
-0.08
-0.09
-0.095
-0.09
-0.085
-0.08
-0.095
-0.095
-0.105
-0.11
-0.1
-0.115
-0.12
-0.125
-0.14
-0.14
-0.14
-0.14
-0.165
-0.175
-0.16
-0.155
-0.14
-0.125
-0.12
-0.125
-0.125
-0.115
-0.105
-0.105
-0.105
-0.12
-0.12
-0.12
-0.095
-0.105
-0.095
-0.075
-0.065
-0.06
-0.045
-0.055
-0.06
-0.09
-0.095
-0.095
-0.075
-0.08
-0.085
-0.09
-0.09
-0.07
-0.07
-0.075
-0.115
-0.15
-0.19
-0.205
-0.22
-0.235
-0.255
-0.28
-0.31
-0.305
-0.295
-0.29
-0.3
-0.31
-0.33
-0.3
-0.305
-0.31
-0.315
-0.32
-0.325
-0.315
-0.3
-0.3
-0.305
-0.31
-0.31
-0.315
-0.295
-0.295
-0.3
-0.31
-0.32
-0.315
-0.305
-0.295
-0.29
-0.315
-0.305
-0.29
-0.285
-0.285
-0.285
-0.28
-0.275
-0.265
-0.26
-0.26
-0.27
-0.27
-0.285
-0.275
-0.265
-0.255
-0.255
-0.27
-0.295
-0.29
-0.305
-0.31
-0.35
-0.35
-0.345
-0.29
-0.18
-0.035
0.09
0.225
0.305
0.39
0.48
0.595
0.73
0.865
0.99
1.115
1.225
1.315
1.335
1.34
1.335
1.325
1.28
1.155
0.98
0.84
0.7
0.585
0.48
0.33
0.155
-0.035
-0.23
-0.38
-0.51
-0.64
-0.755
-0.84
-0.89
-0.91
-0.9
-0.9
-0.905
-0.895
-0.9
-0.875
-0.85
-0.805
-0.785
-0.745
-0.715
-0.675
-0.655
-0.645
-0.63
-0.605
-0.59
-0.555
-0.54
-0.53
-0.535
-0.52
-0.52
-0.52
-0.49
-0.505
-0.495
-0.52
-0.52
-0.51
-0.52
-0.525
-0.545
-0.545
-0.555
-0.55
-0.54
-0.545
-0.555
-0.57
-0.575
-0.565
-0.565
-0.56
-0.58
-0.58
-0.585
-0.57
-0.555
-0.575
-0.575
-0.585
-0.59
-0.57
-0.56
-0.565
-0.58
-0.565
-0.595
-0.57
-0.555
-0.545
-0.55
-0.54
-0.545
-0.525
-0.51
-0.495
-0.51
-0.5
-0.5
-0.47
-0.45
-0.44
-0.445
-0.43
-0.41
-0.385
-0.35
-0.345
-0.32
-0.32
-0.315
-0.28
-0.25
-0.24
-0.225
-0.22
-0.21
-0.185
-0.165
-0.155
-0.15
-0.145
-0.145
-0.12
-0.115
-0.09
-0.095
-0.095
-0.08
-0.075
-0.065
-0.075
-0.08
-0.085
-0.095
-0.08
-0.075
-0.065
-0.07
-0.09
-0.095
-0.07
-0.065
-0.065
-0.075
-0.075
-0.095
-0.09
-0.085
-0.09
-0.11
-0.115
-0.12
-0.11
-0.12
-0.125
-0.135
-0.135
-0.14
-0.12
-0.1
-0.09
-0.115
-0.12
-0.115
-0.13
-0.115
-0.115
-0.115
-0.125
-0.115
-0.1
-0.08
-0.07
-0.065
-0.07
-0.075
-0.065
-0.055
-0.065
-0.085
-0.09
-0.085
-0.08
-0.06
-0.065
-0.06
-0.075
-0.08
-0.085
-0.085
-0.105
-0.145
-0.19
-0.205
-0.23
-0.225
-0.26
-0.285
-0.305
-0.32
-0.32
-0.315
-0.315
-0.315
-0.335
-0.335
-0.32
-0.305
-0.31
-0.31
-0.315
-0.315
-0.305
-0.305
-0.295
-0.3
-0.315
-0.32
-0.3
-0.295
-0.29
-0.3
-0.305
-0.305
-0.31
-0.295
-0.285
-0.305
-0.305
-0.3
-0.295
-0.29
-0.29
-0.305
-0.315
-0.31
-0.3
-0.28
-0.28
-0.285
-0.29
-0.29
-0.27
-0.255
-0.255
-0.26
-0.27
-0.295
-0.3
-0.315
-0.335
-0.345
-0.355
-0.32
-0.225
-0.095
0.035
0.16
0.28
0.385
0.465
0.555
0.69
0.825
0.98
1.1
1.24
1.36
1.44
1.46
1.465
1.445
1.42
1.345
1.16
0.955
0.795
0.63
0.495
0.35
0.16
-0.04
-0.25
-0.41
-0.55
-0.665
-0.79
-0.875
-0.92
-0.945
-0.93
-0.925
-0.92
-0.915
-0.925
-0.925
-0.87
-0.82
-0.78
-0.745
-0.725
-0.72
-0.69
-0.67
-0.635
-0.605
-0.605
-0.59
-0.565
-0.54
-0.52
-0.535
-0.535
-0.535
-0.515
-0.515
-0.52
-0.53
-0.535
-0.55
-0.55
-0.54
-0.555
-0.565
-0.57
-0.585
-0.585
-0.58
-0.575
-0.585
-0.6
-0.595
-0.6
-0.585
-0.605
-0.61
-0.625
-0.63
-0.62
-0.605
-0.6
-0.605
-0.62
-0.625
-0.61
-0.59
-0.59
-0.57
-0.58
-0.58
-0.57
-0.55
-0.54
-0.535
-0.54
-0.535
-0.505
-0.49
-0.475
-0.465
-0.455
-0.455
-0.42
-0.4
-0.4
-0.385
-0.38
-0.375
-0.34
-0.325
-0.305
-0.3
-0.3
-0.285
-0.255
-0.24
-0.215
-0.215
-0.2
-0.19
-0.165
-0.135
-0.145
-0.14
-0.135
-0.125
-0.1
-0.085
-0.08
-0.08
-0.08
-0.08
-0.065
-0.05
-0.04
-0.055
-0.065
-0.07
-0.07
-0.055
-0.065
-0.075
-0.075
-0.085
-0.09
-0.075
-0.09
-0.1
-0.105
-0.12
-0.125
-0.12
-0.125
-0.125
-0.135
-0.145
-0.125
-0.125
-0.11
-0.115
-0.12
-0.11
-0.095
-0.09
-0.085
-0.1
-0.105
-0.11
-0.1
-0.1
-0.085
-0.085
-0.085
-0.095
-0.065
-0.07
-0.065
-0.06
-0.075
-0.065
-0.06
-0.07
-0.075
-0.095
-0.105
-0.095
-0.09
-0.075
-0.07
-0.08
-0.085
-0.09
-0.085
-0.085
-0.11
-0.145
-0.17
-0.205
-0.215
-0.23
-0.245
-0.275
-0.295
-0.315
-0.305
-0.31
-0.315
-0.315
-0.33
-0.335
-0.335
-0.32
-0.32
-0.325
-0.335
-0.34
-0.34
-0.32
-0.315
-0.32
-0.335
-0.33
-0.32
-0.315
-0.305
-0.31
-0.31
-0.305
-0.295
-0.295
-0.305
-0.29
-0.31
-0.31
-0.305
-0.285
-0.28
-0.285
-0.295
-0.29
-0.28
-0.285
-0.28
-0.27
-0.28
-0.29
-0.285
-0.27
-0.265
-0.28
-0.285
-0.275
-0.28
-0.27
-0.28
-0.29
-0.32
-0.345
-0.36
-0.36
-0.35
-0.305
-0.22
-0.095
0.05
0.19
0.305
0.4
0.485
0.595
0.755
0.905
1.045
1.175
1.31
1.415
1.475
1.505
1.505
1.495
1.455
1.37
1.24
1.06
0.89
0.75
0.595
0.445
0.295
0.115
-0.08
-0.285
-0.44
-0.575
-0.69
-0.78
-0.865
-0.93
-0.96
-0.965
-0.96
-0.945
-0.93
-0.94
-0.945
-0.93
-0.9
-0.855
-0.82
-0.78
-0.76
-0.74
-0.71
-0.695
-0.67
-0.65
-0.625
-0.615
-0.58
-0.57
-0.555
-0.56
-0.55
-0.565
-0.555
-0.545
-0.55
-0.56
-0.565
-0.57
-0.555
-0.57
-0.57
-0.57
-0.59
-0.59
-0.58
-0.565
-0.59
-0.58
-0.61
-0.605
-0.6
-0.595
-0.605
-0.61
-0.62
-0.635
-0.615
-0.615
-0.625
-0.63
-0.64
-0.64
-0.635
-0.625
-0.615
-0.625
-0.625
-0.63
-0.63
-0.625
-0.605
-0.6
-0.605
-0.605
-0.585
-0.575
-0.565
-0.555
-0.545
-0.53
-0.52
-0.49
-0.48
-0.47
-0.47
-0.455
-0.43
-0.415
-0.39
-0.395
-0.39
-0.37
-0.35
-0.33
-0.315
-0.315
-0.305
-0.3
-0.275
-0.24
-0.235
-0.215
-0.22
-0.215
-0.19
-0.175
-0.17
-0.175
-0.165
-0.155
-0.15
-0.125
-0.13
-0.12
-0.135
-0.13
-0.11
-0.1
-0.095
-0.105
-0.1
-0.095
-0.095
-0.09
-0.105
-0.115
-0.12
-0.13
-0.12
-0.11
-0.125
-0.14
-0.15
-0.165
-0.155
-0.145
-0.17
-0.18
-0.195
-0.19
-0.195
-0.185
-0.195
-0.19
-0.195
-0.205
-0.185
-0.165
-0.165
-0.17
-0.185
-0.19
-0.18
-0.17
-0.165
-0.175
-0.16
-0.17
-0.145
-0.13
-0.12
-0.115
-0.13
-0.13
-0.12
-0.115
-0.11
-0.125
-0.145
-0.16
-0.155
-0.13
-0.13
-0.135
-0.14
-0.135
-0.13
-0.135
-0.125
-0.155
-0.165
-0.21
-0.22
-0.24
-0.265
-0.295
-0.315
-0.335
-0.345
-0.36
-0.355
-0.365
-0.385
-0.385
-0.385
-0.39
-0.38
-0.38
-0.39
-0.4
-0.39
-0.375
-0.365
-0.375
-0.395
-0.39
-0.395
-0.385
-0.38
-0.38
-0.395
-0.395
-0.385
-0.38
-0.39
-0.38
-0.38
-0.39
-0.38
-0.37
-0.37
-0.37
-0.385
-0.38
-0.37
-0.36
-0.37
-0.36
-0.37
-0.36
-0.35
-0.34
-0.34
-0.335
-0.35
-0.35
-0.335
-0.325
-0.325
-0.33
-0.355
-0.365
-0.375
-0.38
-0.385
-0.385
-0.36
-0.29
-0.15
0.01
0.145
0.265
0.38
0.465
0.555
0.68
0.81
0.925
1.05
1.175
1.3
1.39
1.43
1.44
1.415
1.38
1.32
1.17
0.96
0.765
0.585
0.405
0.25
0.08
-0.145
-0.375
-0.555
-0.705
-0.825
-0.92
-0.985
-1.035
-1.055
-1.065
-1.04
-1.03
-1.02
-1.025
-1.015
-0.975
-0.94
-0.885
-0.85
-0.825
-0.815
-0.8
-0.775
-0.73
-0.72
-0.69
-0.685
-0.665
-0.65
-0.625
-0.63
-0.63
-0.63
-0.63
-0.635
-0.615
-0.63
-0.645
-0.655
-0.645
-0.655
-0.65
-0.665
-0.66
-0.665
-0.685
-0.675
-0.66
-0.67
-0.68
-0.705
-0.705
-0.705
-0.685
-0.685
-0.695
-0.71
-0.71
-0.695
-0.685
-0.675
-0.685
-0.7
-0.69
-0.68
-0.66
-0.66
-0.665
-0.655
-0.66
-0.645
-0.625
-0.605
-0.615
-0.61
-0.59
-0.575
-0.545
-0.55
-0.55
-0.54
-0.53
-0.505
-0.48
-0.46
-0.45
-0.445
-0.43
-0.395
-0.38
-0.365
-0.36
-0.35
-0.325
-0.315
-0.275
-0.275
-0.27
-0.27
-0.265
-0.245
-0.225
-0.215
-0.205
-0.205
-0.205
-0.19
-0.17
-0.17
-0.165
-0.18
-0.19
-0.18
-0.175
-0.18
-0.195
-0.185
-0.19
-0.2
-0.19
-0.195
-0.205
-0.215
-0.23
-0.235
-0.22
-0.205
-0.22
-0.235
-0.255
-0.24
-0.23
-0.245
-0.26
-0.26
-0.275
-0.27
-0.26
-0.24
-0.245
-0.255
-0.265
-0.245
-0.23
-0.235
-0.24
-0.245
-0.255
-0.24
-0.25
-0.255
-0.25
-0.245
-0.235
-0.215
-0.185
-0.175
-0.19
-0.19
-0.2
-0.18
-0.175
-0.175
-0.18
-0.195
-0.2
-0.185
-0.175
-0.175
-0.18
-0.185
-0.185
-0.165
-0.18
-0.19
-0.215
-0.26
-0.29
-0.295
-0.32
-0.345
-0.365
-0.39
-0.415
-0.42
-0.41
-0.405
-0.43
-0.45
-0.45
-0.44
-0.425
-0.425
-0.425
-0.43
-0.44
-0.425
-0.41
-0.42
-0.405
-0.415
-0.42
-0.4
-0.385
-0.395
-0.39
-0.4
-0.405
-0.405
-0.4
-0.4
-0.39
-0.395
-0.4
-0.39
-0.38
-0.38
-0.385
-0.395
-0.41
-0.405
-0.39
-0.385
-0.39
-0.395
-0.405
-0.38
-0.365
-0.365
-0.36
-0.385
-0.38
-0.365
-0.355
-0.36
-0.39
-0.4
-0.39
-0.35
-0.275
-0.145
0.015
0.15
0.28
0.385
0.445
0.515
0.625
0.735
0.855
0.975
1.09
1.145
1.145
1.12
1.095
1.065
0.995
0.87
0.685
0.52
0.375
0.285
0.175
0.025
-0.155
-0.335
-0.505
-0.63
-0.73
-0.84
-0.93
-0.975
-0.995
-0.985
-0.97
-0.95
-0.955
-0.965
-0.96
-0.92
-0.86
-0.825
-0.79
-0.78
-0.765
-0.75
-0.715
-0.685
-0.665
-0.65
-0.645
-0.615
-0.605
-0.605
-0.6
-0.6
-0.605
-0.59
-0.585
-0.59
-0.595
-0.61
-0.625
-0.605
-0.605
-0.62
-0.63
-0.635
-0.635
-0.625
-0.63
-0.635
-0.645
-0.655
-0.665
-0.66
-0.65
-0.65
-0.655
-0.66
-0.66
-0.645
-0.635
-0.635
-0.625
-0.635
-0.635
-0.605
-0.595
-0.58
-0.58
-0.57
-0.57
-0.545
-0.515
-0.505
-0.505
-0.51
-0.5
-0.475
-0.44
-0.425
-0.41
-0.41
-0.4
-0.38
-0.345
-0.335
-0.33
-0.32
-0.305
-0.275
-0.255
-0.25
-0.24
-0.25
-0.24
-0.225
-0.19
-0.18
-0.18
-0.18
-0.18
-0.16
-0.14
-0.135
-0.135
-0.14
-0.145
-0.135
-0.135
-0.135
-0.155
-0.16
-0.165
-0.165
-0.155
-0.165
-0.19
-0.2
-0.2
-0.2
-0.195
-0.195
-0.22
-0.23
-0.24
-0.23
-0.22
-0.225
-0.22
-0.22
-0.215
-0.2
-0.175
-0.18
-0.185
-0.195
-0.19
-0.18
-0.175
-0.195
-0.185
-0.2
-0.185
-0.155
-0.155
-0.135
-0.135
-0.135
-0.135
-0.125
-0.13
-0.14
-0.165
-0.165
-0.16
-0.16
-0.15
-0.16
-0.15
-0.155
-0.16
-0.155
-0.15
-0.19
-0.2
-0.24
-0.275
-0.275
-0.29
-0.315
-0.335
-0.355
-0.37
-0.36
-0.35
-0.36
-0.37
-0.385
-0.385
-0.38
-0.365
-0.37
-0.375
-0.38
-0.39
-0.375
-0.365
-0.38
-0.37
-0.38
-0.375
-0.365
-0.345
-0.35
-0.36
-0.355
-0.36
-0.355
-0.335
-0.33
-0.34
-0.34
-0.355
-0.34
-0.32
-0.325
-0.33
-0.335
-0.345
-0.33
-0.305
-0.31
-0.315
-0.325
-0.32
-0.31
-0.3
-0.3
-0.32
-0.34
-0.35
-0.37
-0.365
-0.38
-0.36
-0.3
-0.185
-0.03
0.11
0.24
0.325
0.385
0.485
0.625
0.79
0.93
1.045
1.145
1.2
1.225
1.24
1.225
1.18
1.085
0.935
0.78
0.66
0.535
0.405
0.275
0.1
-0.1
-0.265
-0.435
-0.565
-0.7
-0.805
-0.86
-0.89
-0.91
-0.91
-0.915
-0.91
-0.885
-0.865
-0.845
-0.81
-0.775
-0.75
-0.73
-0.69
-0.67
-0.665
-0.635
-0.615
-0.585
-0.555
-0.545
-0.54
-0.54
-0.54
-0.535
-0.535
-0.535
-0.545
-0.55
-0.565
-0.56
-0.55
-0.555
-0.565
-0.57
-0.585
-0.575
-0.56
-0.56
-0.57
-0.58
-0.59
-0.58
-0.57
-0.575
-0.58
-0.59
-0.595
-0.585
-0.58
-0.585
-0.57
-0.58
-0.58
-0.56
-0.55
-0.555
-0.565
-0.55
-0.56
-0.54
-0.5
-0.51
-0.505
-0.49
-0.475
-0.45
-0.43
-0.405
-0.405
-0.385
-0.39
-0.35
-0.335
-0.305
-0.315
-0.305
-0.28
-0.27
-0.24
-0.215
-0.21
-0.21
-0.2
-0.175
-0.165
-0.15
-0.135
-0.135
-0.13
-0.12
-0.105
-0.105
-0.1
-0.105
-0.095
-0.085
-0.08
-0.075
-0.065
-0.07
-0.07
-0.065
-0.05
-0.06
-0.065
-0.08
-0.08
-0.08
-0.075
-0.08
-0.095
-0.11
-0.12
-0.12
-0.13
-0.125
-0.135
-0.155
-0.155
-0.15
-0.15
-0.135
-0.145
-0.135
-0.13
-0.115
-0.12
-0.125
-0.12
-0.13
-0.13
-0.115
-0.105
-0.105
-0.085
-0.09
-0.08
-0.055
-0.05
-0.06
-0.06
-0.07
-0.08
-0.08
-0.08
-0.085
-0.09
-0.09
-0.085
-0.085
-0.085
-0.075
-0.09
-0.115
-0.13
-0.155
-0.17
-0.2
-0.235
-0.26
-0.275
-0.305
-0.31
-0.325
-0.325
-0.34
-0.34
-0.335
-0.325
-0.33
-0.335
-0.35
-0.345
-0.33
-0.335
-0.33
-0.335
-0.33
-0.34
-0.325
-0.315
-0.32
-0.325
-0.33
-0.335
-0.335
-0.32
-0.32
-0.335
-0.33
-0.345
-0.32
-0.31
-0.32
-0.325
-0.335
-0.335
-0.32
-0.31
-0.31
-0.31
-0.31
-0.305
-0.305
-0.28
-0.27
-0.29
-0.28
-0.29
-0.27
-0.27
-0.29
-0.31
-0.35
-0.365
-0.36
-0.355
-0.33
-0.275
-0.16
-0.03
0.12
0.25
0.345
0.415
0.5
0.64
0.795
0.94
1.075
1.195
1.29
1.345
1.38
1.385
1.365
1.305
1.18
0.995
0.83
0.7
0.55
0.405
0.23
0.01
-0.19
-0.365
-0.515
-0.66
-0.785
-0.875
-0.93
-0.93
-0.94
-0.94
-0.945
-0.945
-0.93
-0.885
-0.845
-0.805
-0.78
-0.75
-0.72
-0.685
-0.66
-0.64
-0.615
-0.59
-0.555
-0.54
-0.535
-0.545
-0.55
-0.555
-0.55
-0.55
-0.55
-0.56
-0.57
-0.58
-0.585
-0.565
-0.585
-0.585
-0.6
-0.61
-0.61
-0.6
-0.6
-0.61
-0.63
-0.62
-0.625
-0.61
-0.605
-0.605
-0.61
-0.615
-0.61
-0.585
-0.585
-0.595
-0.6
-0.6
-0.57
-0.555
-0.555
-0.555
-0.56
-0.55
-0.535
-0.505
-0.505
-0.485
-0.475
-0.48
-0.455
-0.44
-0.42
-0.4
-0.41
-0.38
-0.365
-0.325
-0.31
-0.3
-0.285
-0.27
-0.24
-0.21
-0.2
-0.2
-0.19
-0.18
-0.16
-0.13
-0.13
-0.12
-0.115
-0.115
-0.105
-0.08
-0.08
-0.07
-0.085
-0.08
-0.075
-0.045
-0.06
-0.075
-0.085
-0.095
-0.085
-0.07
-0.075
-0.085
-0.11
-0.11
-0.105
-0.11
-0.095
-0.1
-0.13
-0.14
-0.13
-0.13
-0.13
-0.14
-0.15
-0.16
-0.145
-0.135
-0.125
-0.14
-0.14
-0.125
-0.125
-0.115
-0.125
-0.125
-0.125
-0.13
-0.13
-0.115
-0.11
-0.095
-0.1
-0.095
-0.08
-0.08
-0.075
-0.08
-0.095
-0.1
-0.1
-0.08
-0.075
-0.08
-0.08
-0.09
-0.075
-0.06
-0.07
-0.085
-0.105
-0.125
-0.16
-0.185
-0.21
-0.23
-0.265
-0.28
-0.3
-0.31
-0.32
-0.33
-0.345
-0.355
-0.345
-0.34
-0.35
-0.345
-0.36
-0.355
-0.345
-0.335
-0.335
-0.345
-0.345
-0.33
-0.325
-0.31
-0.305
-0.31
-0.32
-0.325
-0.31
-0.305
-0.31
-0.305
-0.315
-0.31
-0.31
-0.295
-0.315
-0.31
-0.32
-0.315
-0.305
-0.29
-0.28
-0.3
-0.3
-0.3
-0.29
-0.28
-0.28
-0.285
-0.29
-0.295
-0.305
-0.285
-0.3
-0.31
-0.335
-0.36
-0.355
-0.335
-0.285
-0.205
-0.08
0.055
0.215
0.34
0.435
0.515
0.63
0.775
0.925
1.055
1.2
1.33
1.415
1.48
1.5
1.51
1.48
1.41
1.265
1.06
0.895
0.735
0.595
0.445
0.27
0.045
-0.19
-0.37
-0.52
-0.645
-0.78
-0.88
-0.935
-0.96
-0.965
-0.965
-0.96
-0.955
-0.95
-0.93
-0.905
-0.865
-0.84
-0.795
-0.765
-0.74
-0.705
-0.69
-0.69
-0.665
-0.625
-0.595
-0.57
-0.58
-0.575
-0.57
-0.555
-0.54
-0.54
-0.55
-0.56
-0.56
-0.56
-0.55
-0.56
-0.565
-0.58
-0.58
-0.585
-0.585
-0.59
-0.6
-0.615
-0.62
-0.62
-0.605
-0.61
-0.62
-0.63
-0.635
-0.635
-0.63
-0.63
-0.63
-0.65
-0.65
-0.635
-0.615
-0.615
-0.62
-0.625
-0.625
-0.6
-0.565
-0.555
-0.545
-0.55
-0.545
-0.52
-0.505
-0.48
-0.485
-0.475
-0.47
-0.445
-0.425
-0.41
-0.415
-0.395
-0.375
-0.36
-0.335
-0.315
-0.315
-0.31
-0.3
-0.29
-0.255
-0.24
-0.225
-0.215
-0.205
-0.19
-0.155
-0.15
-0.15
-0.135
-0.11
-0.105
-0.09
-0.085
-0.08
-0.085
-0.08
-0.07
-0.06
-0.065
-0.07
-0.08
-0.095
-0.075
-0.08
-0.085
-0.1
-0.1
-0.11
-0.125
-0.115
-0.12
-0.13
-0.145
-0.15
-0.15
-0.145
-0.155
-0.165
-0.18
-0.165
-0.17
-0.155
-0.145
-0.135
-0.135
-0.135
-0.135
-0.12
-0.12
-0.135
-0.145
-0.155
-0.14
-0.125
-0.115
-0.11
-0.115
-0.1
-0.095
-0.085
-0.085
-0.09
-0.11
-0.125
-0.12
-0.12
-0.115
-0.125
-0.12
-0.12
-0.105
-0.1
-0.1
-0.11
-0.12
-0.14
-0.16
-0.185
-0.215
-0.24
-0.27
-0.28
-0.305
-0.31
-0.325
-0.345
-0.365
-0.37
-0.345
-0.35
-0.355
-0.355
-0.36
-0.365
-0.34
-0.35
-0.34
-0.345
-0.35
-0.36
-0.35
-0.355
-0.35
-0.35
-0.355
-0.36
-0.35
-0.345
-0.335
-0.34
-0.34
-0.35
-0.33
-0.325
-0.32
-0.335
-0.345
-0.33
-0.325
-0.31
-0.31
-0.325
-0.315
-0.325
-0.315
-0.31
-0.3
-0.31
-0.31
-0.32
-0.3
-0.29
-0.305
-0.3
-0.335
-0.345
-0.365
-0.365
-0.375
-0.36
-0.33
-0.225
-0.075
0.085
0.24
0.365
0.455
0.545
0.675
0.825
0.98
1.105
1.235
1.35
1.445
1.51
1.53
1.525
1.505
1.475
1.425
1.3
1.1
0.92
0.75
0.58
0.43
0.285
0.09
-0.15
-0.375
-0.55
-0.675
-0.795
-0.905
-0.99
-1.035
-1.055
-1.045
-1.025
-1.01
-1.005
-1.02
-0.995
-0.97
-0.925
-0.885
-0.85
-0.83
-0.805
-0.77
-0.745
-0.71
-0.7
-0.68
-0.655
-0.63
-0.615
-0.61
-0.59
-0.605
-0.61
-0.61
-0.61
-0.605
-0.61
