Lead II
-0.305
-0.305
-0.305
-0.31
-0.31
-0.295
-0.29
-0.295
-0.29
-0.3
-0.295
-0.295
-0.28
-0.27
-0.275
-0.27
-0.275
-0.26
-0.25
-0.235
-0.25
-0.255
-0.255
-0.235
-0.235
-0.225
-0.23
-0.245
-0.25
-0.235
-0.23
-0.235
-0.235
-0.24
-0.245
-0.24
-0.23
-0.23
-0.25
-0.275
-0.3
-0.305
-0.29
-0.275
-0.235
-0.155
-0.035
0.08
0.21
0.32
0.385
0.44
0.515
0.63
0.77
0.9
1.005
1.095
1.17
1.245
1.275
1.265
1.265
1.24
1.185
1.085
0.94
0.8
0.675
0.575
0.455
0.355
0.215
0.035
-0.135
-0.285
-0.41
-0.525
-0.61
-0.705
-0.77
-0.815
-0.85
-0.835
-0.83
-0.825
-0.825
-0.835
-0.82
-0.785
-0.74
-0.705
-0.67
-0.65
-0.645
-0.63
-0.605
-0.585
-0.565
-0.54
-0.535
-0.51
-0.5
-0.49
-0.48
-0.49
-0.495
-0.49
-0.475
-0.485
-0.49
-0.5
-0.51
-0.5
-0.51
-0.505
-0.505
-0.53
-0.52
-0.505
-0.51
-0.51
-0.515
-0.525
-0.53
-0.52
-0.51
-0.525
-0.525
-0.535
-0.52
-0.505
-0.505
-0.52
-0.525
-0.535
-0.54
-0.53
-0.52
-0.525
-0.53
-0.525
-0.53
-0.51
-0.49
-0.48
-0.48
-0.47
-0.48
-0.46
-0.43
-0.43
-0.425
-0.415
-0.405
-0.38
-0.365
-0.34
-0.34
-0.325
-0.31
-0.275
-0.25
-0.235
-0.235
-0.225
-0.21
-0.19
-0.175
-0.165
-0.155
-0.155
-0.15
-0.13
-0.105
-0.09
-0.08
-0.07
-0.075
-0.06
-0.05
-0.035
-0.04
-0.035
-0.04
-0.03
-0.025
-0.025
-0.035
-0.04
-0.045
-0.045
-0.03
-0.02
-0.04
-0.045
-0.06
-0.055
-0.05
-0.05
-0.06
-0.085
-0.08
-0.065
-0.05
-0.05
-0.04
-0.05
-0.06
-0.06
-0.06
-0.05
-0.06
-0.06
-0.055
-0.04
-0.025
-0.005
0.005
-0.01
-0.015
-0.01
0.0
0.005
-0.025
-0.035
-0.045
-0.025
-0.02
-0.02
-0.005
-0.015
-0.025
-0.035
-0.025
-0.05
-0.09
-0.115
-0.16
-0.175
-0.195
-0.21
-0.245
-0.275
-0.285
-0.29
-0.285
-0.29
-0.3
-0.3
-0.31
-0.3
-0.295
-0.275
-0.28
-0.28
-0.285
-0.275
-0.27
-0.255
-0.27
-0.27
-0.275
-0.255
-0.255
-0.25
-0.26
-0.26
-0.265
-0.27
-0.245
-0.255
-0.255
-0.275
-0.29
-0.27
-0.26
-0.265
-0.265
-0.265
-0.265
-0.245
-0.25
-0.245
-0.25
-0.255
-0.255
-0.245
-0.23
-0.235
-0.22
-0.25
-0.275
-0.295
-0.295
-0.295
-0.31
-0.27
-0.175
-0.045
0.095
0.22
0.325
0.4
0.47
0.61
0.77
0.92
1.055
1.19
1.285
1.36
1.4
1.405
1.395
1.355
1.265
1.12
0.96
0.805
0.67
0.535
0.39
0.225
0.045
-0.155
-0.3
-0.455
-0.575
-0.685
-0.77
-0.82
-0.87
-0.9
-0.91
-0.9
-0.89
-0.875
-0.89
-0.885
-0.85
-0.79
-0.745
-0.705
-0.695
-0.685
-0.67
-0.64
-0.595
-0.555
-0.555
-0.555
-0.535
-0.52
-0.525
-0.505
-0.505
-0.51
-0.52
-0.505
-0.5
-0.505
-0.515
-0.525
-0.55
-0.52
-0.54
-0.535
-0.55
-0.55
-0.58
-0.565
-0.57
-0.555
-0.57
-0.57
-0.585
-0.58
-0.565
-0.565
-0.57
-0.57
-0.57
-0.57
-0.565
-0.555
-0.565
-0.565
-0.57
-0.55
-0.53
-0.52
-0.525
-0.52
-0.52
-0.5
-0.475
-0.465
-0.46
-0.45
-0.45
-0.435
-0.425
-0.405
-0.405
-0.4
-0.39
-0.37
-0.345
-0.325
-0.32
-0.31
-0.3
-0.27
-0.255
-0.24
-0.23
-0.225
-0.21
-0.18
-0.17
-0.145
-0.135
-0.14
-0.125
-0.105
-0.1
-0.08
-0.055
-0.065
-0.06
-0.045
-0.045
-0.04
-0.045
-0.045
-0.05
-0.045
-0.03
-0.04
-0.05
-0.06
-0.07
-0.065
-0.065
-0.07
-0.075
-0.09
-0.095
-0.09
-0.095
-0.1
-0.115
-0.12
-0.12
-0.125
-0.11
-0.1
-0.1
-0.1
-0.095
-0.075
-0.08
-0.08
-0.09
-0.1
-0.105
-0.095
-0.08
-0.065
-0.075
-0.075
-0.085
-0.055
-0.045
-0.05
-0.055
-0.065
-0.075
-0.07
-0.075
-0.08
-0.075
-0.09
-0.09
-0.07
-0.065
-0.065
-0.06
-0.09
-0.105
-0.12
-0.14
-0.165
-0.19
-0.225
-0.27
-0.265
-0.275
-0.28
-0.305
-0.31
-0.31
-0.305
-0.295
-0.315
-0.325
-0.335
-0.335
-0.33
-0.315
-0.315
-0.325
-0.33
-0.32
-0.32
-0.31
-0.305
-0.31
-0.31
-0.32
-0.305
-0.3
-0.295
-0.295
-0.285
-0.305
-0.295
-0.28
-0.27
-0.265
-0.285
-0.29
-0.275
-0.25
-0.265
-0.27
-0.275
-0.285
-0.27
-0.265
-0.265
-0.27
-0.275
-0.275
-0.26
-0.26
-0.265
-0.265
-0.285
-0.31
-0.325
-0.33
-0.335
-0.32
-0.275
-0.175
-0.035
0.105
0.24
0.35
0.415
0.49
0.63
0.785
0.92
1.06
1.195
1.315
1.42
1.485
1.495
1.485
1.46
1.41
1.305
1.14
0.945
0.775
0.62
0.465
0.315
0.14
-0.085
-0.3
-0.465
-0.59
-0.695
-0.78
-0.865
-0.925
-0.955
-0.96
-0.96
-0.945
-0.92
-0.93
-0.92
-0.895
-0.845
-0.795
-0.755
-0.73
-0.695
-0.685
-0.675
-0.64
-0.605
-0.605
-0.585
-0.585
-0.555
-0.555
-0.545
-0.545
-0.545
-0.555
-0.545
-0.53
-0.54
-0.555
-0.565
-0.575
-0.565
-0.555
-0.56
-0.565
-0.59
-0.6
-0.6
-0.575
-0.585
-0.595
-0.605
-0.595
-0.59
-0.6
-0.61
-0.6
-0.61
-0.615
-0.615
-0.605
-0.61
-0.615
-0.62
-0.635
-0.625
-0.605
-0.59
-0.595
-0.6
-0.6
-0.58
-0.56
-0.55
-0.565
-0.555
-0.55
-0.525
-0.51
-0.5
-0.49
-0.49
-0.48
-0.44
-0.41
-0.395
-0.39
-0.38
-0.37
-0.34
-0.325
-0.305
-0.3
-0.295
-0.285
-0.275
-0.245
-0.23
-0.23
-0.215
-0.215
-0.2
-0.175
-0.17
-0.155
-0.155
-0.155
-0.13
-0.12
-0.105
-0.105
-0.105
-0.095
-0.08
-0.07
-0.065
-0.075
-0.08
-0.09
-0.075
-0.065
-0.06
-0.065
-0.085
-0.09
-0.08
-0.075
-0.09
-0.1
-0.115
-0.115
-0.12
-0.115
-0.13
-0.13
-0.135
-0.135
-0.115
-0.1
-0.09
-0.095
-0.12
-0.12
-0.105
-0.105
-0.105
-0.105
-0.105
-0.11
-0.085
-0.075
-0.065
-0.07
-0.065
-0.065
-0.065
-0.065
-0.06
-0.065
-0.085
-0.08
-0.07
-0.06
-0.055
-0.07
-0.09
-0.075
-0.085
-0.09
-0.11
-0.14
-0.175
-0.22
-0.23
-0.245
-0.265
-0.295
-0.32
-0.34
-0.33
-0.31
-0.315
-0.325
-0.34
-0.34
-0.33
-0.315
-0.305
-0.31
-0.315
-0.32
-0.305
-0.305
-0.305
-0.305
-0.325
-0.325
-0.305
-0.295
-0.315
-0.315
-0.33
-0.33
-0.32
-0.31
-0.305
-0.315
-0.315
-0.32
-0.29
-0.29
-0.285
-0.28
-0.295
-0.29
-0.295
-0.29
-0.28
-0.275
-0.275
-0.28
-0.275
-0.26
-0.27
-0.28
-0.31
-0.345
-0.355
-0.325
-0.27
-0.175
-0.04
0.115
0.245
0.395
0.49
0.585
0.715
0.875
1.045
1.21
1.36
1.485
1.555
1.585
1.59
1.565
1.495
1.33
1.1
0.88
0.715
0.545
0.37
0.18
-0.055
-0.295
-0.465
-0.615
-0.745
-0.88
-0.96
-1.005
-1.005
-1.0
-0.985
-0.995
-0.995
-0.975
-0.935
-0.895
-0.84
-0.805
-0.785
-0.755
-0.74
-0.69
-0.665
-0.64
-0.635
-0.62
-0.585
-0.585
-0.55
-0.55
-0.555
-0.57
-0.56
-0.555
-0.57
-0.575
-0.585
-0.595
-0.605
-0.6
-0.595
-0.615
-0.635
-0.625
-0.63
-0.62
-0.63
-0.63
-0.645
-0.66
-0.645
-0.64
-0.645
-0.65
-0.655
-0.66
-0.65
-0.635
-0.63
-0.63
-0.625
-0.635
-0.625
-0.6
-0.585
-0.585
-0.58
-0.57
-0.545
-0.535
-0.53
-0.53
-0.525
-0.52
-0.49
-0.475
-0.45
-0.455
-0.445
-0.43
-0.415
-0.39
-0.37
-0.365
-0.365
-0.345
-0.32
-0.295
-0.28
-0.265
-0.27
-0.25
-0.23
-0.205
-0.19
-0.18
-0.165
-0.155
-0.135
-0.13
-0.115
-0.12
-0.1
-0.105
-0.1
-0.085
-0.08
-0.085
-0.1
-0.115
-0.1
-0.105
-0.095
-0.1
-0.11
-0.115
-0.125
-0.115
-0.12
-0.125
-0.14
-0.15
-0.155
-0.14
-0.135
-0.14
-0.145
-0.145
-0.14
-0.125
-0.11
-0.11
-0.115
-0.125
-0.12
-0.12
-0.12
-0.13
-0.145
-0.16
-0.145
-0.12
-0.105
-0.09
-0.1
-0.1
-0.09
-0.095
-0.095
-0.11
-0.125
-0.125
-0.115
-0.105
-0.1
-0.115
-0.115
-0.105
-0.1
-0.085
-0.09
-0.11
-0.14
-0.18
-0.19
-0.21
-0.235
-0.255
-0.27
-0.31
-0.31
-0.31
-0.31
-0.315
-0.34
-0.355
-0.34
-0.345
-0.33
-0.34
-0.345
-0.36
-0.35
-0.335
-0.33
-0.335
-0.335
-0.335
-0.33
-0.31
-0.31
-0.315
-0.325
-0.325
-0.315
-0.3
-0.295
-0.305
-0.3
-0.31
-0.29
-0.285
-0.28
-0.29
-0.285
-0.3
-0.29
-0.3
-0.28
-0.3
-0.295
-0.295
-0.28
-0.275
-0.275
-0.29
-0.29
-0.3
-0.315
-0.32
-0.315
-0.295
-0.245
-0.125
0.04
0.2
0.34
0.465
0.53
0.615
0.755
0.9
1.035
1.165
1.27
1.34
1.375
1.37
1.36
1.305
1.21
1.045
0.845
0.69
0.535
0.385
0.245
0.04
-0.17
-0.35
-0.505
-0.635
-0.765
-0.86
-0.9
-0.92
-0.915
-0.91
-0.9
-0.895
-0.88
-0.84
-0.805
-0.755
-0.715
-0.705
-0.67
-0.66
-0.645
-0.615
-0.6
-0.585
-0.56
-0.545
-0.52
-0.525
-0.525
-0.53
-0.52
-0.52
-0.52
-0.53
-0.545
-0.555
-0.54
-0.53
-0.54
-0.55
-0.56
-0.565
-0.57
-0.555
-0.555
-0.56
-0.575
-0.57
-0.56
-0.55
-0.565
-0.565
-0.57
-0.585
-0.575
-0.57
-0.56
-0.56
-0.57
-0.565
-0.565
-0.535
-0.52
-0.525
-0.51
-0.51
-0.51
-0.475
-0.465
-0.46
-0.45
-0.435
-0.41
-0.38
-0.365
-0.35
-0.34
-0.335
-0.305
-0.28
-0.265
-0.245
-0.245
-0.225
-0.205
-0.195
-0.18
-0.175
-0.165
-0.165
-0.145
-0.125
-0.12
-0.12
-0.13
-0.105
-0.09
-0.075
-0.075
-0.075
-0.08
-0.075
-0.065
-0.065
-0.06
-0.07
-0.075
-0.08
-0.08
-0.065
-0.055
-0.08
-0.09
-0.105
-0.105
-0.095
-0.095
-0.12
-0.125
-0.14
-0.135
-0.11
-0.1
-0.105
-0.11
-0.115
-0.105
-0.1
-0.09
-0.105
-0.12
-0.14
-0.13
-0.12
-0.105
-0.095
-0.095
-0.09
-0.055
-0.05
-0.045
-0.05
-0.055
-0.08
-0.08
-0.055
-0.06
-0.06
-0.07
-0.07
-0.07
-0.065
-0.055
-0.07
-0.08
-0.1
-0.12
-0.135
-0.16
-0.185
-0.215
-0.24
-0.26
-0.265
-0.285
-0.305
-0.315
-0.31
-0.305
-0.295
-0.3
-0.305
-0.31
-0.32
-0.305
-0.295
-0.295
-0.29
-0.295
-0.295
-0.295
-0.26
-0.275
-0.28
-0.29
-0.295
-0.295
-0.285
-0.265
-0.275
-0.29
-0.285
-0.285
-0.265
-0.26
-0.27
-0.27
-0.265
-0.265
-0.245
-0.25
-0.25
-0.25
-0.255
-0.25
-0.245
-0.225
-0.23
-0.225
-0.235
-0.225
-0.2
-0.21
-0.21
-0.235
-0.265
-0.26
-0.275
-0.275
-0.255
-0.195
-0.095
0.045
0.195
0.32
0.415
0.47
0.55
0.675
0.82
0.96
1.06
1.165
1.205
1.235
1.23
1.23
1.21
1.145
1.02
0.88
0.755
0.66
0.54
0.415
0.27
0.09
-0.095
-0.255
-0.4
-0.535
-0.66
-0.745
-0.78
-0.795
-0.815
-0.81
-0.815
-0.8
-0.785
-0.765
-0.74
-0.71
-0.67
-0.635
-0.61
-0.6
-0.585
-0.57
-0.55
-0.52
-0.485
-0.46
-0.455
-0.445
-0.435
-0.43
-0.425
-0.425
-0.435
-0.44
-0.455
-0.445
-0.45
-0.44
-0.455
-0.475
-0.48
-0.475
-0.475
-0.47
-0.5
-0.49
-0.505
-0.49
-0.49
-0.495
-0.49
-0.505
-0.51
-0.5
-0.48
-0.485
-0.495
-0.49
-0.505
-0.49
-0.47
-0.46
-0.46
-0.46
-0.475
-0.455
-0.44
-0.425
-0.425
-0.425
-0.425
-0.405
-0.395
-0.375
-0.38
-0.375
-0.365
-0.345
-0.315
-0.315
-0.3
-0.295
-0.285
-0.265
-0.245
-0.225
-0.21
-0.205
-0.19
-0.17
-0.155
-0.135
-0.13
-0.135
-0.115
-0.09
-0.065
-0.06
-0.04
-0.045
-0.04
-0.02
-0.01
0.005
0.0
0.01
-0.015
-0.005
0.015
0.015
0.005
-0.005
-0.01
-0.005
0.0
-0.005
-0.005
-0.02
-0.04
-0.03
-0.02
-0.015
-0.03
-0.045
-0.05
-0.04
-0.025
-0.02
-0.025
-0.02
-0.015
0.0
0.02
0.02
0.005
-0.005
-0.015
0.0
0.01
0.03
0.025
0.015
0.015
0.03
0.04
0.045
0.035
0.025
0.01
0.03
0.035
0.02
0.005
-0.01
0.005
0.01
0.02
0.025
0.02
0.015
0.005
0.005
-0.005
-0.02
-0.045
-0.085
-0.11
-0.13
-0.145
-0.155
-0.185
-0.21
-0.23
-0.24
-0.235
-0.225
-0.24
-0.25
-0.27
-0.255
-0.25
-0.255
-0.245
-0.265
-0.27
-0.265
-0.255
-0.26
-0.26
-0.26
-0.265
-0.255
-0.235
-0.24
-0.25
-0.245
-0.255
-0.245
-0.225
-0.235
-0.235
-0.23
-0.245
-0.225
-0.215
-0.22
-0.205
-0.225
-0.235
-0.22
-0.2
-0.205
-0.2
-0.225
-0.215
-0.21
-0.215
-0.2
-0.215
-0.205
-0.225
-0.21
-0.2
-0.205
-0.22
-0.24
-0.27
-0.27
-0.275
-0.27
-0.225
-0.16
-0.055
0.085
0.22
0.32
0.41
0.485
0.585
0.705
0.86
0.995
1.125
1.22
1.3
1.39
1.435
1.45
1.44
1.395
1.325
1.195
1.05
0.905
0.765
0.625
0.48
0.33
0.155
-0.025
-0.21
-0.375
-0.51
-0.615
-0.71
-0.77
-0.805
-0.835
-0.84
-0.835
-0.81
-0.805
-0.805
-0.785
-0.745
-0.7
-0.655
-0.635
-0.605
-0.595
-0.585
-0.545
-0.515
-0.495
-0.485
-0.475
-0.48
-0.47
-0.45
-0.445
-0.455
-0.45
-0.475
-0.47
-0.455
-0.45
-0.47
-0.485
-0.485
-0.485
-0.485
-0.485
-0.495
-0.495
-0.51
-0.49
-0.49
-0.485
-0.495
-0.495
-0.5
-0.505
-0.49
-0.505
-0.495
-0.52
-0.52
-0.51
-0.515
-0.505
-0.51
-0.515
-0.505
-0.495
-0.485
-0.48
-0.475
-0.475
-0.465
-0.455
-0.435
-0.415
-0.405
-0.405
-0.395
-0.365
-0.35
-0.325
-0.32
-0.31
-0.305
-0.28
-0.255
-0.245
-0.225
-0.225
-0.215
-0.19
-0.175
-0.165
-0.165
-0.16
-0.15
-0.13
-0.105
-0.105
-0.095
-0.09
-0.08
-0.07
-0.055
-0.035
-0.035
-0.035
-0.035
-0.025
-0.02
-0.005
0.0
-0.015
-0.015
-0.01
-0.01
0.01
0.005
-0.005
-0.005
-0.015
-0.015
-0.015
-0.015
-0.025
-0.035
-0.025
-0.045
-0.025
-0.035
-0.045
-0.055
-0.045
-0.03
-0.025
-0.04
-0.035
-0.04
-0.045
-0.035
-0.03
-0.06
-0.065
-0.05
-0.035
-0.01
-0.005
0.0
-0.005
-0.005
-0.01
0.0
0.015
0.005
0.0
-0.015
-0.005
-0.005
0.0
0.0
-0.005
-0.015
0.0
0.0
-0.015
-0.02
-0.055
-0.085
-0.11
-0.125
-0.15
-0.175
-0.205
-0.225
-0.225
-0.23
-0.24
-0.255
-0.26
-0.265
-0.27
-0.255
-0.25
-0.255
-0.265
-0.28
-0.26
-0.25
-0.25
-0.245
-0.25
-0.26
-0.25
-0.235
-0.23
-0.22
-0.23
-0.235
-0.23
-0.235
-0.235
-0.23
-0.235
-0.245
-0.245
-0.22
-0.225
-0.225
-0.23
-0.235
-0.225
-0.22
-0.215
-0.22
-0.23
-0.24
-0.215
-0.215
-0.2
-0.205
-0.205
-0.215
-0.205
-0.2
-0.18
-0.195
-0.195
-0.2
-0.19
-0.19
-0.215
-0.23
-0.25
-0.265
-0.225
-0.18
-0.09
0.03
0.145
0.25
0.36
0.435
0.515
0.595
0.705
0.83
0.965
1.105
1.22
1.335
1.41
1.47
1.5
1.52
1.505
1.47
1.38
1.24
1.085
0.93
0.785
0.65
0.5
0.355
0.175
-0.005
-0.19
-0.365
-0.485
-0.605
-0.71
-0.775
-0.825
-0.85
-0.89
-0.905
-0.89
-0.865
-0.86
-0.86
-0.865
-0.84
-0.79
-0.74
-0.715
-0.68
-0.665
-0.665
-0.635
-0.605
-0.575
-0.57
-0.55
-0.53
-0.51
-0.495
-0.475
-0.49
-0.485
-0.49
-0.48
-0.47
-0.46
-0.465
-0.48
-0.5
-0.49
-0.49
-0.495
-0.5
-0.53
-0.535
-0.53
-0.525
-0.53
-0.535
-0.555
-0.555
-0.555
-0.55
-0.55
-0.545
-0.565
-0.565
-0.57
-0.555
-0.55
-0.555
-0.56
-0.57
-0.555
-0.535
-0.535
-0.525
-0.52
-0.53
-0.5
-0.485
-0.48
-0.47
-0.475
-0.475
-0.455
-0.42
-0.43
-0.42
-0.415
-0.41
-0.375
-0.375
-0.355
-0.355
-0.345
-0.325
-0.315
-0.285
-0.265
-0.25
-0.25
-0.235
-0.225
-0.195
-0.185
-0.17
-0.155
-0.15
-0.145
-0.11
-0.09
-0.095
-0.09
-0.08
-0.06
-0.045
-0.03
-0.03
-0.025
-0.03
-0.01
-0.015
-0.02
-0.02
-0.03
-0.04
-0.035
-0.03
-0.03
-0.015
-0.045
-0.065
-0.045
-0.045
-0.04
-0.045
-0.06
-0.08
-0.07
-0.065
-0.05
-0.055
-0.055
-0.065
-0.055
-0.04
-0.03
-0.05
-0.05
-0.06
-0.05
-0.05
-0.06
-0.06
-0.055
-0.05
-0.035
-0.025
-0.01
-0.02
-0.035
-0.045
-0.045
-0.025
-0.03
-0.045
-0.065
-0.07
-0.05
-0.045
-0.035
-0.04
-0.04
-0.045
-0.04
-0.025
-0.035
-0.05
-0.08
-0.11
-0.135
-0.16
-0.165
-0.195
-0.215
-0.235
-0.255
-0.27
-0.27
-0.28
-0.29
-0.295
-0.295
-0.29
-0.295
-0.285
-0.3
-0.3
-0.295
-0.29
-0.285
-0.27
-0.29
-0.29
-0.285
-0.275
-0.275
-0.275
-0.28
-0.29
-0.285
-0.265
-0.26
-0.275
-0.265
-0.275
-0.255
-0.25
-0.25
-0.25
-0.255
-0.25
-0.245
-0.235
-0.235
-0.235
-0.235
-0.24
-0.235
-0.225
-0.22
-0.235
-0.25
-0.255
-0.24
-0.215
-0.225
-0.23
-0.245
-0.255
-0.255
-0.26
-0.28
-0.285
-0.31
-0.285
-0.215
-0.08
0.045
0.185
0.325
0.42
0.53
0.605
0.73
0.88
1.015
1.15
1.285
1.41
1.5
1.56
1.565
1.555
1.555
1.525
1.455
1.325
1.14
0.965
0.825
0.695
0.545
0.375
0.205
0.01
-0.195
-0.34
-0.485
-0.62
-0.74
-0.855
-0.905
-0.925
-0.945
-0.95
-0.95
-0.96
-0.93
-0.92
-0.9
-0.905
-0.875
-0.85
-0.805
-0.75
-0.735
-0.72
-0.695
-0.695
-0.665
-0.63
-0.595
-0.585
-0.57
-0.575
-0.555
-0.545
-0.535
-0.54
-0.545
-0.55
-0.55
-0.545
-0.545
-0.55
-0.575
-0.58
-0.565
-0.555
-0.555
-0.565
-0.58
-0.595
-0.59
-0.585
-0.585
-0.59
-0.595
-0.615
-0.6
-0.585
-0.59
-0.59
-0.605
-0.605
-0.605
-0.59
-0.59
-0.6
-0.615
-0.615
-0.62
-0.6
-0.595
-0.605
-0.605
-0.61
-0.6
-0.565
-0.575
-0.565
-0.565
-0.55
-0.53
-0.515
-0.505
-0.505
-0.5
-0.48
-0.465
-0.445
-0.41
-0.41
-0.405
-0.395
-0.365
-0.34
-0.315
-0.3
-0.285
-0.285
-0.26
-0.24
-0.225
-0.215
-0.21
-0.205
-0.19
-0.155
-0.135
-0.145
-0.13
-0.13
-0.115
-0.1
-0.095
-0.09
-0.085
-0.095
-0.07
-0.075
-0.07
-0.06
-0.075
-0.085
-0.09
-0.07
-0.08
-0.065
-0.08
-0.09
-0.075
-0.075
-0.08
-0.085
-0.09
-0.1
-0.09
-0.1
-0.095
-0.085
-0.1
-0.125
-0.095
-0.095
-0.09
-0.105
-0.1
-0.125
-0.13
-0.125
-0.125
-0.125
-0.11
-0.105
-0.075
-0.055
-0.06
-0.065
-0.065
-0.07
-0.065
-0.065
-0.07
-0.07
-0.07
-0.07
-0.07
-0.06
-0.045
-0.05
-0.06
-0.095
-0.11
-0.14
-0.16
-0.195
-0.23
-0.265
-0.28
-0.29
-0.295
-0.305
-0.325
-0.325
-0.325
-0.31
-0.31
-0.315
-0.33
-0.32
-0.315
-0.32
-0.31
-0.305
-0.305
-0.31
-0.32
-0.295
-0.295
-0.305
-0.31
-0.315
-0.305
-0.29
-0.29
-0.295
-0.315
-0.315
-0.31
-0.3
-0.29
-0.29
-0.3
-0.31
-0.3
-0.29
-0.27
-0.275
-0.285
-0.29
-0.28
-0.265
-0.27
-0.265
-0.27
-0.27
-0.26
-0.25
-0.25
-0.245
-0.265
-0.29
-0.285
-0.285
-0.27
-0.25
-0.175
-0.065
0.095
0.23
0.365
0.465
0.535
0.595
0.71
0.85
0.975
1.095
1.2
1.28
1.345
1.365
1.36
1.33
1.295
1.215
1.085
0.925
0.78
0.65
0.51
0.39
0.255
0.115
-0.055
-0.25
-0.41
-0.545
-0.67
-0.755
-0.825
-0.89
-0.915
-0.94
-0.925
-0.905
-0.895
-0.895
-0.9
-0.895
-0.845
-0.79
-0.755
-0.73
-0.73
-0.715
-0.705
-0.675
-0.63
-0.61
-0.6
-0.58
-0.57
-0.56
-0.55
-0.535
-0.53
-0.55
-0.54
-0.525
-0.53
-0.525
-0.545
-0.555
-0.535
-0.54
-0.55
-0.555
-0.555
-0.57
-0.565
-0.57
-0.57
-0.58
-0.585
-0.605
-0.605
-0.575
-0.58
-0.58
-0.595
-0.595
-0.595
-0.575
-0.575
-0.59
-0.59
-0.6
-0.595
-0.575
-0.575
-0.575
-0.565
-0.575
-0.555
-0.53
-0.525
-0.52
-0.52
-0.52
-0.51
-0.48
-0.465
-0.46
-0.46
-0.465
-0.455
-0.44
-0.42
-0.405
-0.41
-0.405
-0.36
-0.36
-0.33
-0.315
-0.31
-0.295
-0.27
-0.25
-0.245
-0.215
-0.205
-0.21
-0.18
-0.16
-0.15
-0.135
-0.14
-0.13
-0.11
-0.095
-0.075
-0.07
-0.08
-0.085
-0.07
-0.05
-0.05
-0.06
-0.075
-0.11
-0.08
-0.08
-0.08
-0.085
-0.1
-0.115
-0.105
-0.09
-0.09
-0.085
-0.105
-0.12
-0.1
-0.085
-0.08
-0.08
-0.075
-0.085
-0.075
-0.075
-0.065
-0.075
-0.075
-0.095
-0.085
-0.075
-0.06
-0.045
-0.055
-0.05
-0.05
-0.045
-0.05
-0.05
-0.05
-0.075
-0.075
-0.065
-0.07
-0.07
-0.065
-0.07
-0.055
-0.035
-0.035
-0.055
-0.075
-0.11
-0.14
-0.16
-0.165
-0.195
-0.22
-0.245
-0.26
-0.255
-0.255
-0.255
-0.275
-0.28
-0.29
-0.285
-0.275
-0.28
-0.29
-0.3
-0.29
-0.265
-0.27
-0.27
-0.28
-0.28
-0.27
-0.255
-0.255
-0.255
-0.265
-0.27
-0.255
-0.245
-0.235
-0.245
-0.245
-0.24
-0.235
-0.24
-0.235
-0.225
-0.225
-0.23
-0.225
-0.205
-0.2
-0.21
-0.22
-0.23
-0.225
-0.21
-0.205
-0.215
-0.235
-0.245
-0.245
-0.265
-0.28
-0.295
-0.3
-0.27
-0.185
-0.05
0.11
0.24
0.34
0.42
0.505
0.635
0.795
0.945
1.075
1.205
1.325
1.39
1.42
1.415
1.395
1.345
1.23
1.08
0.925
0.765
0.63
0.495
0.335
0.15
-0.05
-0.24
-0.4
-0.535
-0.66
-0.74
-0.795
-0.825
-0.84
-0.845
-0.835
-0.82
-0.81
-0.8
-0.77
-0.735
-0.69
-0.645
-0.61
-0.6
-0.59
-0.57
-0.545
-0.515
-0.485
-0.475
-0.49
-0.485
-0.48
-0.47
-0.455
-0.465
-0.46
-0.48
-0.48
-0.465
-0.465
-0.47
-0.485
-0.49
-0.5
-0.495
-0.48
-0.495
-0.505
-0.52
-0.52
-0.505
-0.5
-0.505
-0.51
-0.515
-0.52
-0.51
-0.5
-0.51
-0.52
-0.52
-0.515
-0.525
-0.515
-0.505
-0.51
-0.51
-0.515
-0.495
-0.475
-0.475
-0.475
-0.47
-0.445
-0.44
-0.415
-0.415
-0.415
-0.4
-0.385
-0.355
-0.345
-0.34
-0.32
-0.31
-0.285
-0.25
-0.24
-0.225
-0.22
-0.21
-0.195
-0.165
-0.14
-0.145
-0.135
-0.135
-0.125
-0.105
-0.085
-0.07
-0.065
-0.075
-0.055
-0.025
-0.02
-0.025
-0.02
-0.03
-0.01
0.0
0.005
-0.005
-0.015
-0.025
-0.01
-0.005
0.0
-0.005
-0.02
-0.02
-0.01
-0.01
0.0
-0.015
-0.015
-0.025
-0.015
-0.005
0.005
-0.005
-0.015
-0.03
-0.03
-0.015
-0.01
-0.025
-0.055
-0.065
-0.05
-0.025
-0.02
-0.01
-0.005
-0.01
0.0
0.0
0.005
-0.005
-0.015
-0.035
-0.035
-0.02
-0.01
-0.01
-0.01
-0.01
0.01
0.005
0.005
-0.01
-0.04
-0.07
-0.105
-0.125
-0.15
-0.18
-0.215
-0.24
-0.26
-0.255
-0.26
-0.255
-0.27
-0.28
-0.28
-0.26
-0.265
-0.27
-0.275
-0.27
-0.26
-0.245
-0.25
-0.245
-0.25
-0.26
-0.23
-0.23
-0.22
-0.23
-0.23
-0.245
-0.24
-0.225
-0.23
-0.23
-0.25
-0.25
-0.24
-0.22
-0.23
-0.22
-0.235
-0.235
-0.24
-0.22
-0.215
-0.215
-0.215
-0.215
-0.21
-0.195
-0.185
-0.205
-0.22
-0.22
-0.22
-0.225
-0.24
-0.265
-0.275
-0.26
-0.22
-0.12
0.01
0.125
0.24
0.35
0.445
0.525
0.635
0.75
0.905
1.03
1.175
1.315
1.41
1.465
1.475
1.47
1.445
1.4
1.285
1.105
0.915
0.76
0.63
0.48
0.315
0.125
-0.085
-0.275
-0.4
-0.52
-0.64
-0.725
-0.805
-0.85
-0.86
-0.855
-0.865
-0.84
-0.85
-0.86
-0.84
-0.805
-0.76
-0.725
-0.69
-0.68
-0.64
-0.625
-0.6
-0.57
-0.56
-0.535
-0.51
-0.485
-0.48
-0.475
-0.48
-0.49
-0.485
-0.475
-0.47
-0.475
-0.485
-0.495
-0.495
-0.49
-0.495
-0.49
-0.505
-0.51
-0.52
-0.52
-0.52
-0.53
-0.55
-0.565
-0.555
-0.545
-0.54
-0.545
-0.56
-0.565
-0.565
-0.555
-0.545
-0.565
-0.565
-0.57
-0.555
-0.55
-0.54
-0.535
-0.545
-0.55
-0.545
-0.515
-0.5
-0.49
-0.49
-0.49
-0.47
-0.445
-0.43
-0.42
-0.415
-0.42
-0.4
-0.39
-0.365
-0.35
-0.345
-0.345
-0.32
-0.3
-0.29
-0.275
-0.27
-0.25
-0.24
-0.225
-0.2
-0.19
-0.175
-0.175
-0.155
-0.125
-0.115
-0.105
-0.095
-0.095
-0.08
-0.05
-0.035
-0.025
-0.025
-0.04
-0.03
-0.015
-0.005
0.0
-0.01
-0.03
-0.025
-0.015
-0.005
-0.02
-0.035
-0.06
-0.05
-0.045
-0.035
-0.04
-0.055
-0.07
-0.045
-0.045
-0.045
-0.04
-0.04
-0.065
-0.055
-0.045
-0.045
-0.055
-0.055
-0.075
-0.06
-0.06
-0.055
-0.05
-0.055
-0.05
-0.03
-0.025
-0.01
-0.025
-0.04
-0.045
-0.05
-0.035
-0.04
-0.05
-0.065
-0.06
-0.045
-0.035
-0.04
-0.04
-0.06
-0.06
-0.055
-0.075
-0.09
-0.14
-0.175
-0.185
-0.21
-0.225
-0.245
-0.26
-0.275
-0.27
-0.265
-0.265
-0.265
-0.265
-0.28
-0.285
-0.275
-0.275
-0.27
-0.275
-0.285
-0.295
-0.295
-0.28
-0.28
-0.285
-0.29
-0.295
-0.29
-0.275
-0.27
-0.28
-0.28
-0.285
-0.265
-0.25
-0.26
-0.265
-0.255
-0.275
-0.26
-0.24
-0.235
-0.235
-0.24
-0.255
-0.235
-0.23
-0.22
-0.22
-0.225
-0.23
-0.225
-0.225
-0.235
-0.23
-0.255
-0.275
-0.285
-0.3
-0.31
-0.305
-0.275
-0.21
-0.06
0.085
0.245
0.36
0.445
0.52
0.68
0.855
1.04
1.185
1.32
1.425
1.52
1.55
1.55
1.515
1.435
1.275
1.08
0.9
0.735
0.57
0.395
0.21
-0.01
-0.225
-0.385
-0.535
-0.695
-0.82
-0.895
-0.92
-0.935
-0.945
-0.94
-0.94
-0.93
-0.915
-0.905
-0.87
-0.835
-0.805
-0.77
-0.715
-0.69
-0.675
-0.66
-0.65
-0.615
-0.59
-0.565
-0.55
-0.535
-0.535
-0.535
-0.525
-0.515
-0.535
-0.55
-0.56
-0.555
-0.55
-0.555
-0.575
-0.585
-0.58
-0.585
-0.59
-0.575
-0.59
-0.6
-0.61
-0.595
-0.605
-0.595
-0.61
-0.605
-0.61
-0.605
-0.595
-0.595
-0.595
-0.6
-0.605
-0.59
-0.58
-0.575
-0.585
-0.585
-0.6
-0.6
-0.58
-0.565
-0.565
-0.555
-0.545
-0.525
-0.51
-0.485
-0.475
-0.465
-0.455
-0.44
-0.42
-0.405
-0.385
-0.375
-0.36
-0.33
-0.31
-0.285
-0.275
-0.27
-0.27
-0.24
-0.22
-0.2
-0.185
-0.185
-0.18
-0.165
-0.145
-0.14
-0.13
-0.115
-0.12
-0.11
-0.095
-0.08
-0.09
-0.09
-0.085
-0.08
-0.065
-0.07
-0.07
-0.085
-0.085
-0.085
-0.075
-0.085
-0.085
-0.095
-0.105
-0.095
-0.09
-0.075
-0.09
-0.085
-0.09
-0.09
-0.08
-0.08
-0.085
-0.105
-0.11
-0.105
-0.105
-0.115
-0.135
-0.14
-0.155
-0.14
-0.115
-0.105
-0.095
-0.11
-0.105
-0.105
-0.095
-0.08
-0.085
-0.085
-0.095
-0.1
-0.085
-0.08
-0.065
-0.08
-0.065
-0.05
-0.045
-0.06
-0.105
-0.135
-0.165
-0.185
-0.195
-0.22
-0.25
-0.28
-0.295
-0.305
-0.3
-0.295
-0.305
-0.315
-0.33
-0.325
-0.315
-0.305
-0.31
-0.305
-0.325
-0.315
-0.305
-0.305
-0.295
-0.295
-0.305
-0.31
-0.275
-0.29
-0.28
-0.285
-0.295
-0.29
-0.285
-0.28
-0.28
-0.295
-0.295
-0.28
-0.275
-0.275
-0.265
-0.27
-0.28
-0.275
-0.26
-0.255
-0.26
-0.275
-0.275
-0.25
-0.26
-0.235
-0.245
-0.245
-0.26
-0.26
-0.255
-0.255
-0.27
-0.295
-0.295
-0.265
-0.215
-0.1
0.045
0.18
0.31
0.445
0.535
0.62
0.705
0.81
0.915
1.045
1.165
1.29
1.355
1.395
1.385
1.375
1.355
1.305
1.195
1.01
0.82
0.67
0.525
0.39
0.235
0.05
-0.15
-0.335
-0.46
-0.595
-0.725
-0.81
-0.875
-0.91
-0.9
-0.895
-0.885
-0.89
-0.89
-0.89
-0.86
-0.82
-0.775
-0.755
-0.73
-0.71
-0.69
-0.67
-0.64
-0.62
-0.595
-0.57
-0.545
-0.52
-0.52
-0.52
-0.525
-0.53
-0.52
-0.52
-0.515
-0.525
-0.54
-0.54
-0.54
-0.53
-0.53
-0.55
-0.565
-0.56
-0.555
-0.56
-0.565
-0.59
-0.6
-0.59
-0.585
-0.585
-0.59
-0.605
-0.605
-0.6
-0.6
-0.585
-0.59
-0.6
-0.6
-0.58
-0.57
-0.56
-0.56
-0.56
-0.55
-0.54
-0.52
-0.5
-0.48
-0.485
-0.47
-0.445
-0.43
-0.41
-0.405
-0.39
-0.375
-0.355
-0.345
-0.325
-0.325
-0.315
-0.295
-0.28
-0.255
-0.23
-0.225
-0.22
-0.22
-0.195
-0.165
-0.135
-0.13
-0.13
-0.13
-0.115
-0.095
-0.08
-0.07
-0.08
-0.09
-0.065
-0.06
-0.055
-0.055
-0.07
-0.075
-0.08
-0.075
-0.07
-0.08
-0.095
-0.11
-0.12
-0.115
-0.12
-0.13
-0.135
-0.15
-0.13
-0.115
-0.115
-0.115
-0.105
-0.125
-0.115
-0.11
-0.11
-0.105
-0.125
-0.135
-0.125
-0.11
-0.1
-0.095
-0.1
-0.085
-0.065
-0.06
-0.055
-0.055
-0.055
-0.07
-0.085
-0.08
-0.08
-0.075
-0.075
-0.09
-0.075
-0.065
-0.06
-0.065
-0.095
-0.14
-0.14
-0.16
-0.175
-0.215
-0.24
-0.265
-0.285
-0.275
-0.275
-0.265
-0.285
-0.29
-0.285
-0.28
-0.285
-0.285
-0.28
-0.295
-0.295
-0.275
-0.275
-0.29
-0.3
-0.305
-0.295
-0.28
-0.28
-0.28
-0.29
-0.29
-0.295
-0.28
-0.265
-0.27
-0.28
-0.285
-0.275
-0.26
-0.255
-0.26
-0.255
-0.265
-0.25
-0.23
-0.22
-0.22
-0.235
-0.23
-0.225
-0.215
-0.215
-0.225
-0.23
-0.23
-0.23
