Lead II
-0.76
-0.725
-0.705
-0.695
-0.72
-0.72
-0.715
-0.745
-0.765
-0.785
-0.82
-0.83
-0.805
-0.78
-0.74
-0.725
-0.7
-0.705
-0.71
-0.73
-0.755
-0.785
-0.785
-0.78
-0.82
-0.8
-0.78
-0.775
-0.78
-0.755
-0.745
-0.77
-0.805
-0.815
-0.815
-0.805
-0.805
-0.8
-0.79
-0.795
-0.8
-0.8
-0.775
-0.76
-0.73
-0.745
-0.745
-0.77
-0.785
-0.795
-0.76
-0.755
-0.725
-0.715
-0.715
-0.74
-0.76
-0.765
-0.78
-0.79
-0.79
-0.765
-0.755
-0.75
-0.745
-0.74
-0.73
-0.73
-0.72
-0.71
-0.715
-0.71
-0.69
-0.68
-0.655
-0.655
-0.645
-0.645
-0.635
-0.59
-0.58
-0.565
-0.555
-0.555
-0.565
-0.58
-0.575
-0.57
-0.595
-0.59
-0.625
-0.635
-0.645
-0.64
-0.62
-0.575
-0.565
-0.545
-0.535
-0.53
-0.56
-0.6
-0.645
-0.675
-0.69
-0.695
-0.71
-0.705
-0.72
-0.73
-0.745
-0.765
-0.765
-0.785
-0.795
-0.79
-0.79
-0.785
-0.785
-0.77
-0.77
-0.79
-0.785
-0.795
-0.815
-0.815
-0.82
-0.81
-0.82
-0.815
-0.82
-0.845
-0.86
-0.85
-0.82
-0.8
-0.77
-0.775
-0.79
-0.805
-0.83
-0.87
-0.885
-0.925
-0.935
-0.935
-0.885
-0.775
-0.64
-0.455
-0.3
-0.18
-0.145
-0.155
-0.18
-0.16
-0.045
0.18
0.435
0.63
0.67
0.52
0.195
-0.21
-0.605
-0.935
-1.165
-1.325
-1.43
-1.525
-1.595
-1.685
-1.745
-1.78
-1.81
-1.835
-1.85
-1.865
-1.87
-1.855
-1.835
-1.79
-1.695
-1.565
-1.405
-1.27
-1.135
-1.055
-1.0
-0.96
-0.97
-0.985
-1.0
-0.995
-0.97
-0.94
-0.93
-0.895
-0.91
-0.915
-0.92
-0.945
-0.96
-0.95
-0.94
-0.925
-0.915
-0.92
-0.92
-0.915
-0.92
-0.95
-0.965
-0.975
-0.975
-0.995
-1.01
-1.025
-1.03
-1.01
-1.025
-1.025
-1.04
-1.065
-1.07
-1.095
-1.125
-1.125
-1.145
-1.155
-1.15
-1.155
-1.15
-1.15
-1.16
-1.175
-1.15
-1.175
-1.2
-1.185
-1.195
-1.205
-1.2
-1.185
-1.19
-1.195
-1.19
-1.185
-1.175
-1.165
-1.155
-1.16
-1.15
-1.135
-1.11
-1.09
-1.08
-1.045
-1.015
-1.02
-0.995
-1.0
-0.975
-0.965
-0.945
-0.93
-0.905
-0.9
-0.88
-0.85
-0.835
-0.815
-0.815
-0.81
-0.815
-0.83
-0.8
-0.8
-0.79
-0.79
-0.79
-0.78
-0.795
-0.795
-0.8
-0.81
-0.805
-0.795
-0.8
-0.81
-0.8
-0.78
-0.78
-0.775
-0.785
-0.785
-0.795
-0.8
-0.83
-0.835
-0.835
-0.855
-0.85
-0.84
-0.84
-0.825
-0.825
-0.82
-0.82
-0.835
-0.85
-0.855
-0.87
-0.87
-0.865
-0.875
-0.86
-0.85
-0.845
-0.835
-0.85
-0.87
-0.85
-0.87
-0.865
-0.86
-0.855
-0.835
-0.84
-0.84
-0.85
-0.855
-0.87
-0.855
-0.855
-0.85
-0.85
-0.835
-0.835
-0.825
-0.81
-0.795
-0.8
-0.8
-0.815
-0.815
-0.815
-0.82
-0.835
-0.84
-0.83
-0.835
-0.83
-0.8
-0.795
-0.8
-0.8
-0.81
-0.805
-0.82
-0.815
-0.815
-0.795
-0.795
-0.785
-0.775
-0.765
-0.755
-0.745
-0.725
-0.72
-0.715
-0.7
-0.69
-0.695
-0.675
-0.66
-0.635
-0.62
-0.61
-0.595
-0.605
-0.61
-0.61
-0.63
-0.64
-0.67
-0.665
-0.68
-0.67
-0.645
-0.625
-0.605
-0.6
-0.6
-0.61
-0.635
-0.65
-0.68
-0.72
-0.76
-0.765
-0.775
-0.8
-0.8
-0.82
-0.845
-0.855
-0.875
-0.885
-0.885
-0.88
-0.87
-0.865
-0.855
-0.865
-0.885
-0.89
-0.905
-0.905
-0.9
-0.91
-0.89
-0.885
-0.885
-0.875
-0.865
-0.88
-0.89
-0.885
-0.885
-0.9
-0.905
-0.89
-0.885
-0.875
-0.875
-0.865
-0.87
-0.89
-0.915
-0.93
-0.965
-0.98
-0.97
-0.89
-0.775
-0.6
-0.44
-0.28
-0.19
-0.17
-0.19
-0.205
-0.175
-0.055
0.15
0.375
0.545
0.595
0.485
0.15
-0.28
-0.74
-1.1
-1.385
-1.55
-1.65
-1.715
-1.785
-1.855
-1.93
-1.97
-2.005
-2.02
-2.03
-2.035
-2.06
-2.065
-2.065
-2.055
-2.015
-1.94
-1.82
-1.69
-1.55
-1.395
-1.285
-1.195
-1.13
-1.085
-1.08
-1.06
-1.03
-1.015
-0.995
-0.98
-0.985
-0.955
-0.955
-0.94
-0.96
-0.94
-0.95
-0.96
-0.965
-0.955
-0.94
-0.935
-0.94
-0.955
-0.97
-1.0
-1.005
-1.035
-1.035
-1.04
-1.015
-1.025
-1.025
-1.035
-1.045
-1.06
-1.09
-1.095
-1.125
-1.145
-1.15
-1.165
-1.165
-1.17
-1.18
-1.165
-1.17
-1.165
-1.17
-1.185
-1.205
-1.215
-1.225
-1.22
-1.235
-1.225
-1.22
-1.195
-1.2
-1.195
-1.195
-1.205
-1.205
-1.195
-1.185
-1.18
-1.165
-1.135
-1.115
-1.085
-1.07
-1.06
-1.06
-1.035
-1.04
-1.02
-1.0
-0.99
-0.97
-0.93
-0.93
-0.91
-0.875
-0.875
-0.87
-0.87
-0.87
-0.875
-0.87
-0.87
-0.855
-0.85
-0.83
-0.815
-0.81
-0.805
-0.805
-0.825
-0.81
-0.835
-0.84
-0.84
-0.835
-0.84
-0.835
-0.84
-0.815
-0.83
-0.825
-0.855
-0.855
-0.88
-0.88
-0.885
-0.88
-0.855
-0.85
-0.845
-0.84
-0.855
-0.865
-0.865
-0.875
-0.885
-0.895
-0.905
-0.91
-0.9
-0.9
-0.885
-0.89
-0.88
-0.885
-0.895
-0.9
-0.92
-0.925
-0.935
-0.925
-0.93
-0.93
-0.905
-0.895
-0.89
-0.885
-0.89
-0.885
-0.895
-0.9
-0.91
-0.895
-0.885
-0.87
-0.88
-0.86
-0.865
-0.87
-0.875
-0.89
-0.9
-0.9
-0.895
-0.89
-0.905
-0.88
-0.88
-0.865
-0.85
-0.85
-0.87
-0.88
-0.875
-0.875
-0.89
-0.895
-0.89
-0.88
-0.865
-0.85
-0.84
-0.83
-0.84
-0.85
-0.84
-0.84
-0.83
-0.805
-0.79
-0.765
-0.755
-0.735
-0.735
-0.725
-0.71
-0.71
-0.675
-0.675
-0.655
-0.625
-0.62
-0.64
-0.66
-0.665
-0.695
-0.72
-0.755
-0.765
-0.75
-0.73
-0.695
-0.68
-0.635
-0.645
-0.65
-0.68
-0.735
-0.78
-0.84
-0.865
-0.88
-0.885
-0.905
-0.905
-0.915
-0.925
-0.935
-0.925
-0.935
-0.935
-0.92
-0.93
-0.94
-0.95
-0.96
-0.965
-0.96
-0.97
-0.96
-0.955
-0.955
-0.94
-0.945
-0.955
-0.96
-0.975
-0.985
-0.97
-0.95
-0.945
-0.93
-0.93
-0.935
-0.96
-0.97
-1.005
-1.0
-0.995
-0.945
-0.85
-0.72
-0.535
-0.365
-0.24
-0.195
-0.2
-0.23
-0.215
-0.12
0.055
0.3
0.47
0.55
0.43
0.12
-0.345
-0.845
-1.295
-1.62
-1.82
-1.95
-2.015
-2.075
-2.12
-2.145
-2.185
-2.18
-2.175
-2.18
-2.175
-2.17
-2.18
-2.145
-2.125
-2.07
-1.985
-1.855
-1.715
-1.54
-1.395
-1.28
-1.18
-1.135
-1.09
-1.085
-1.07
-1.07
-1.03
-1.005
-0.985
-0.965
-0.95
-0.94
-0.955
-0.955
-0.99
-1.0
-1.0
-1.005
-0.98
-0.98
-0.965
-0.97
-0.98
-0.98
-1.0
-1.01
-1.04
-1.055
-1.085
-1.1
-1.125
-1.12
-1.1
-1.085
-1.08
-1.08
-1.09
-1.105
-1.135
-1.155
-1.18
-1.2
-1.21
-1.21
-1.215
-1.225
-1.215
-1.23
-1.215
-1.22
-1.205
-1.23
-1.205
-1.225
-1.22
-1.22
-1.215
-1.195
-1.19
-1.18
-1.185
-1.18
-1.19
-1.18
-1.16
-1.155
-1.135
-1.1
-1.07
-1.04
-1.015
-1.01
-0.995
-0.98
-0.97
-0.99
-0.98
-0.965
-0.94
-0.935
-0.905
-0.9
-0.87
-0.865
-0.855
-0.855
-0.86
-0.86
-0.845
-0.865
-0.855
-0.85
-0.855
-0.85
-0.84
-0.845
-0.835
-0.835
-0.84
-0.86
-0.845
-0.845
-0.85
-0.855
-0.845
-0.84
-0.835
-0.86
-0.855
-0.865
-0.875
-0.89
-0.89
-0.89
-0.89
-0.885
-0.89
-0.89
-0.865
-0.88
-0.875
-0.88
-0.89
-0.895
-0.91
-0.915
-0.92
-0.89
-0.89
-0.88
-0.88
-0.87
-0.87
-0.865
-0.885
-0.875
-0.88
-0.88
-0.875
-0.875
-0.865
-0.86
-0.855
-0.885
-0.875
-0.895
-0.895
-0.88
-0.875
-0.865
-0.88
-0.84
-0.83
-0.82
-0.81
-0.82
-0.825
-0.835
-0.84
-0.85
-0.865
-0.84
-0.85
-0.83
-0.83
-0.84
-0.825
-0.81
-0.82
-0.815
-0.83
-0.83
-0.845
-0.855
-0.845
-0.84
-0.815
-0.805
-0.79
-0.785
-0.775
-0.775
-0.775
-0.78
-0.755
-0.74
-0.73
-0.73
-0.72
-0.71
-0.705
-0.69
-0.685
-0.66
-0.635
-0.615
-0.605
-0.595
-0.595
-0.615
-0.615
-0.625
-0.65
-0.665
-0.67
-0.675
-0.66
-0.635
-0.62
-0.61
-0.6
-0.6
-0.625
-0.655
-0.675
-0.71
-0.745
-0.755
-0.795
-0.815
-0.835
-0.87
-0.885
-0.89
-0.875
-0.88
-0.87
-0.87
-0.875
-0.87
-0.89
-0.9
-0.915
-0.92
-0.905
-0.92
-0.93
-0.915
-0.9
-0.9
-0.91
-0.915
-0.93
-0.925
-0.925
-0.94
-0.925
-0.915
-0.9
-0.895
-0.88
-0.885
-0.9
-0.92
-0.93
-0.94
-0.935
-0.895
-0.8
-0.65
-0.47
-0.285
-0.13
-0.005
0.06
0.035
-0.02
-0.03
0.0
0.09
0.245
0.405
0.505
0.465
0.215
-0.225
-0.74
-1.245
-1.625
-1.89
-2.03
-2.09
-2.105
-2.135
-2.16
-2.195
-2.2
-2.21
-2.225
-2.225
-2.23
-2.23
-2.21
-2.185
-2.125
-2.055
-1.945
-1.78
-1.6
-1.435
-1.295
-1.19
-1.115
-1.08
-1.075
-1.065
-1.07
-1.05
-1.03
-1.02
-1.0
-0.985
-0.98
-0.985
-1.005
-1.005
-1.0
-1.0
-1.0
-0.995
-1.01
-1.005
-0.985
-1.005
-1.015
-1.015
-1.02
-1.045
-1.035
-1.065
-1.075
-1.06
-1.07
-1.08
-1.075
-1.115
-1.135
-1.12
-1.145
-1.16
-1.17
-1.18
-1.2
-1.205
-1.205
-1.19
-1.195
-1.215
-1.195
-1.21
-1.235
-1.245
-1.26
-1.265
-1.25
-1.24
-1.23
-1.215
-1.205
-1.205
-1.21
-1.2
-1.21
-1.2
-1.195
-1.185
-1.19
-1.17
-1.145
-1.12
-1.105
-1.075
-1.07
-1.035
-1.025
-1.01
-1.0
-0.995
-0.975
-0.96
-0.93
-0.92
-0.905
-0.885
-0.885
-0.875
-0.87
-0.865
-0.87
-0.875
-0.85
-0.86
-0.845
-0.835
-0.81
-0.825
-0.825
-0.84
-0.855
-0.865
-0.855
-0.85
-0.845
-0.845
-0.825
-0.825
-0.81
-0.82
-0.845
-0.835
-0.855
-0.865
-0.87
-0.87
-0.86
-0.855
-0.85
-0.835
-0.83
-0.835
-0.84
-0.86
-0.86
-0.88
-0.905
-0.91
-0.905
-0.89
-0.88
-0.87
-0.85
-0.86
-0.875
-0.875
-0.885
-0.9
-0.885
-0.885
-0.88
-0.85
-0.865
-0.86
-0.84
-0.835
-0.835
-0.85
-0.855
-0.865
-0.86
-0.87
-0.875
-0.865
-0.86
-0.835
-0.835
-0.84
-0.84
-0.845
-0.835
-0.84
-0.845
-0.85
-0.845
-0.835
-0.83
-0.82
-0.815
-0.81
-0.815
-0.815
-0.82
-0.82
-0.835
-0.84
-0.83
-0.815
-0.795
-0.78
-0.765
-0.755
-0.755
-0.755
-0.75
-0.745
-0.73
-0.725
-0.7
-0.695
-0.68
-0.66
-0.625
-0.605
-0.595
-0.565
-0.575
-0.575
-0.59
-0.615
-0.635
-0.645
-0.665
-0.67
-0.67
-0.675
-0.67
-0.64
-0.62
-0.59
-0.575
-0.59
-0.62
-0.645
-0.68
-0.71
-0.75
-0.765
-0.775
-0.79
-0.81
-0.84
-0.845
-0.865
-0.865
-0.86
-0.86
-0.84
-0.825
-0.84
-0.85
-0.85
-0.865
-0.88
-0.885
-0.885
-0.885
-0.88
-0.86
-0.85
-0.85
-0.835
-0.85
-0.865
-0.875
-0.87
-0.875
-0.89
-0.89
-0.885
-0.875
-0.865
-0.865
-0.87
-0.885
-0.89
-0.905
-0.92
-0.895
-0.835
-0.74
-0.595
-0.425
-0.265
-0.14
-0.09
-0.095
-0.115
-0.135
-0.08
0.06
0.235
0.445
0.585
0.595
0.435
0.075
-0.4
-0.88
-1.285
-1.575
-1.745
-1.84
-1.915
-1.975
-2.01
-2.06
-2.07
-2.085
-2.09
-2.09
-2.09
-2.1
-2.085
-2.045
-2.015
-1.96
-1.86
-1.735
-1.6
-1.445
-1.31
-1.2
-1.11
-1.055
-1.03
-1.005
-0.985
-0.99
-0.97
-0.945
-0.925
-0.9
-0.925
-0.91
-0.9
-0.915
-0.92
-0.93
-0.93
-0.93
-0.935
-0.915
-0.91
-0.9
-0.915
-0.935
-0.925
-0.945
-0.985
-0.975
-0.985
-1.0
-0.985
-0.985
-0.99
-0.995
-1.0
-1.02
-1.035
-1.05
-1.065
-1.07
-1.085
-1.09
-1.115
-1.105
-1.12
-1.12
-1.12
-1.11
-1.135
-1.14
-1.135
-1.17
-1.165
-1.16
-1.145
-1.14
-1.15
-1.125
-1.125
-1.13
-1.125
-1.135
-1.135
-1.13
-1.13
-1.12
-1.1
-1.09
-1.08
-1.02
-1.01
-1.0
-1.0
-0.975
-0.955
-0.945
-0.93
-0.925
-0.905
-0.91
-0.88
-0.86
-0.85
-0.85
-0.82
-0.825
-0.825
-0.805
-0.795
-0.8
-0.775
-0.775
-0.76
-0.76
-0.77
-0.77
-0.795
-0.775
-0.79
-0.785
-0.795
-0.79
-0.78
-0.77
-0.77
-0.75
-0.76
-0.775
-0.775
-0.805
-0.81
-0.835
-0.825
-0.85
-0.84
-0.82
-0.815
-0.795
-0.79
-0.8
-0.825
-0.83
-0.82
-0.84
-0.845
-0.855
-0.855
-0.845
-0.855
-0.835
-0.855
-0.85
-0.845
-0.85
-0.845
-0.855
-0.86
-0.845
-0.865
-0.86
-0.85
-0.825
-0.84
-0.82
-0.845
-0.82
-0.84
-0.84
-0.85
-0.84
-0.845
-0.83
-0.82
-0.815
-0.81
-0.81
-0.835
-0.835
-0.835
-0.845
-0.855
-0.86
-0.86
-0.845
-0.82
-0.825
-0.805
-0.8
-0.8
-0.81
-0.815
-0.81
-0.825
-0.82
-0.81
-0.81
-0.8
-0.795
-0.805
-0.785
-0.785
-0.79
-0.775
-0.75
-0.72
-0.705
-0.695
-0.695
-0.705
-0.695
-0.68
-0.66
-0.645
-0.625
-0.615
-0.605
-0.6
-0.58
-0.585
-0.605
-0.62
-0.645
-0.655
-0.69
-0.68
-0.665
-0.625
-0.595
-0.59
-0.57
-0.59
-0.605
-0.65
-0.69
-0.73
-0.765
-0.765
-0.775
-0.765
-0.795
-0.82
-0.845
-0.865
-0.875
-0.89
-0.88
-0.88
-0.865
-0.845
-0.84
-0.84
-0.835
-0.855
-0.905
-0.91
-0.9
-0.885
-0.86
-0.86
-0.865
-0.875
-0.885
-0.89
-0.875
-0.875
-0.865
-0.86
-0.855
-0.85
-0.84
-0.85
-0.865
-0.86
-0.86
-0.865
-0.855
-0.805
-0.715
-0.56
-0.365
-0.2
-0.035
0.045
0.075
0.055
0.02
0.035
0.135
0.28
0.44
0.55
0.58
0.395
0.02
-0.495
-1.005
-1.475
-1.775
-1.95
-2.05
-2.08
-2.1
-2.125
-2.135
-2.145
-2.135
-2.14
-2.14
-2.155
-2.155
-2.15
-2.12
-2.075
-2.0
-1.905
-1.76
-1.57
-1.4
-1.235
-1.135
-1.045
-1.01
-1.01
-0.975
-0.975
-0.96
-0.95
-0.925
-0.915
-0.9
-0.885
-0.895
-0.885
-0.91
-0.905
-0.9
-0.925
-0.92
-0.915
-0.91
-0.9
-0.91
-0.92
-0.91
-0.915
-0.925
-0.94
-0.965
-0.975
-0.965
-0.98
-0.965
-0.975
-0.985
-0.97
-0.985
-1.005
-1.035
-1.055
-1.085
-1.08
-1.1
-1.08
-1.065
-1.075
-1.075
-1.09
-1.115
-1.105
-1.095
-1.1
-1.105
-1.125
-1.13
-1.13
-1.12
-1.13
-1.12
-1.11
-1.125
-1.12
-1.115
-1.105
-1.105
-1.09
-1.075
-1.06
-1.045
-1.02
-1.01
-1.0
-0.975
-0.955
-0.935
-0.935
-0.925
-0.93
-0.91
-0.885
-0.87
-0.84
-0.805
-0.79
-0.78
-0.77
-0.79
-0.79
-0.81
-0.81
-0.81
-0.805
-0.77
-0.755
-0.73
-0.725
-0.73
-0.735
-0.74
-0.75
-0.775
-0.77
-0.77
-0.755
-0.755
-0.745
-0.75
-0.76
-0.75
-0.755
-0.755
-0.755
-0.775
-0.76
-0.765
-0.79
-0.78
-0.785
-0.785
-0.79
-0.795
-0.79
-0.81
-0.81
-0.805
-0.8
-0.805
-0.795
-0.785
-0.775
-0.77
-0.77
-0.775
-0.78
-0.79
-0.785
-0.8
-0.8
-0.82
-0.8
-0.785
-0.77
-0.785
-0.77
-0.765
-0.76
-0.77
-0.77
-0.77
-0.755
-0.75
-0.76
-0.76
-0.755
-0.75
-0.765
-0.76
-0.75
-0.76
-0.755
-0.77
-0.775
-0.77
-0.76
-0.74
-0.73
-0.735
-0.75
-0.75
-0.765
-0.775
-0.77
-0.765
-0.755
-0.76
-0.74
-0.73
-0.735
-0.73
-0.72
-0.725
-0.71
-0.71
-0.685
-0.68
-0.7
-0.695
-0.68
-0.675
-0.65
-0.62
-0.6
-0.595
-0.59
-0.575
-0.575
-0.57
-0.555
-0.525
-0.52
-0.52
-0.53
-0.555
-0.595
-0.605
-0.635
-0.63
-0.61
-0.585
-0.57
-0.535
-0.515
-0.525
-0.53
-0.545
-0.59
-0.645
-0.69
-0.73
-0.75
-0.76
-0.745
-0.74
-0.755
-0.76
-0.78
-0.78
-0.805
-0.815
-0.815
-0.795
-0.8
-0.805
-0.795
-0.805
-0.8
-0.8
-0.81
-0.82
-0.805
-0.79
-0.795
-0.795
-0.795
-0.8
-0.815
-0.815
-0.82
-0.805
-0.8
-0.8
-0.8
-0.8
-0.81
-0.815
-0.83
-0.855
-0.885
-0.875
-0.86
-0.785
-0.69
-0.54
-0.345
-0.175
-0.055
0.025
0.005
-0.015
-0.045
0.04
0.19
0.38
0.555
0.655
0.59
0.33
-0.09
-0.61
-1.05
-1.39
-1.615
-1.715
-1.77
-1.815
-1.835
-1.865
-1.91
-1.935
-1.985
-1.995
-2.0
-1.98
-1.99
-1.97
-1.94
-1.9
-1.82
-1.71
-1.56
-1.41
-1.26
-1.16
-1.065
-1.01
-0.975
-0.955
-0.935
-0.905
-0.9
-0.885
-0.88
-0.87
-0.89
-0.895
-0.88
-0.89
-0.88
-0.875
-0.85
-0.85
-0.855
-0.85
-0.86
-0.865
-0.88
-0.885
-0.88
-0.885
-0.89
-0.905
-0.93
-0.945
-0.94
-0.925
-0.93
-0.925
-0.945
-0.955
-0.985
-0.995
-1.01
-1.02
-1.01
-1.015
-1.0
-1.015
-1.02
-1.025
-1.03
-1.07
-1.09
-1.095
-1.105
-1.11
-1.125
-1.115
-1.11
-1.09
-1.1
-1.1
-1.1
-1.09
-1.11
-1.13
-1.145
-1.115
-1.11
-1.09
-1.065
-1.05
-1.03
-1.01
-1.0
-1.0
-0.975
-0.975
-0.97
-0.95
-0.905
-0.85
-0.83
-0.82
-0.82
-0.83
-0.845
-0.835
-0.84
-0.825
-0.815
-0.795
-0.77
-0.735
-0.735
-0.725
-0.715
-0.715
-0.735
-0.74
-0.75
-0.745
-0.73
-0.725
-0.725
-0.715
-0.705
-0.705
-0.7
-0.72
-0.71
-0.72
-0.71
-0.7
-0.71
-0.73
-0.73
-0.735
-0.745
-0.755
-0.735
-0.73
-0.73
-0.735
-0.73
-0.725
-0.74
-0.75
-0.76
-0.76
-0.76
-0.755
-0.755
-0.745
-0.735
-0.745
-0.75
-0.76
-0.775
-0.78
-0.775
-0.785
-0.8
-0.775
-0.745
-0.75
-0.75
-0.76
-0.755
-0.77
-0.785
-0.785
-0.78
-0.77
-0.76
-0.745
-0.74
-0.74
-0.745
-0.75
-0.755
-0.77
-0.785
-0.78
-0.775
-0.755
-0.73
-0.71
-0.73
-0.74
-0.75
-0.755
-0.785
-0.775
-0.77
-0.765
-0.74
-0.725
-0.71
-0.715
-0.73
-0.715
-0.725
-0.715
-0.715
-0.71
-0.705
-0.71
-0.71
-0.69
-0.665
-0.655
-0.635
-0.61
-0.615
-0.62
-0.615
-0.61
-0.585
-0.56
-0.525
-0.505
-0.495
-0.49
-0.505
-0.52
-0.545
-0.565
-0.595
-0.615
-0.63
-0.63
-0.585
-0.53
-0.505
-0.49
-0.475
-0.515
-0.585
-0.63
-0.665
-0.695
-0.745
-0.755
-0.78
-0.775
-0.765
-0.765
-0.77
-0.775
-0.76
-0.76
-0.78
-0.805
-0.805
-0.805
-0.805
-0.78
-0.79
-0.775
-0.76
-0.785
-0.785
-0.81
-0.82
-0.835
-0.83
-0.815
-0.8
-0.79
-0.79
-0.78
-0.785
-0.8
-0.8
-0.815
-0.81
-0.825
-0.81
-0.82
-0.815
-0.82
-0.815
-0.81
-0.79
-0.69
-0.575
-0.4
-0.245
-0.115
-0.05
-0.04
-0.065
-0.06
0.01
0.145
0.325
0.525
0.67
0.69
0.525
0.165
-0.33
-0.825
-1.24
-1.53
-1.69
-1.785
-1.845
-1.905
-1.935
-1.965
-1.99
-2.0
-2.015
-2.01
-2.005
-1.97
-1.905
-1.865
-1.785
-1.665
-1.54
-1.41
-1.305
-1.195
-1.105
-1.035
-0.98
-0.935
-0.9
-0.88
-0.855
-0.86
-0.86
-0.86
-0.85
-0.86
-0.86
-0.865
-0.875
-0.86
-0.845
-0.81
-0.785
-0.775
-0.79
-0.81
-0.835
-0.86
-0.87
-0.875
-0.875
-0.87
-0.875
-0.875
-0.855
-0.855
-0.875
-0.885
-0.9
-0.945
-0.97
-0.965
-0.985
-0.99
-0.985
-0.98
-0.97
-0.975
-0.975
-1.005
-1.015
-1.045
-1.055
-1.075
-1.07
-1.07
-1.05
-1.04
-1.035
-1.045
-1.055
-1.06
-1.065
-1.07
-1.065
-1.05
-1.045
-1.035
-1.025
-1.0
-0.985
-0.955
-0.945
-0.95
-0.935
-0.925
-0.91
-0.885
-0.855
-0.825
-0.81
-0.795
-0.79
-0.795
-0.78
-0.77
-0.78
-0.76
-0.745
-0.73
-0.725
-0.71
-0.705
-0.71
-0.71
-0.7
-0.685
-0.695
-0.7
-0.705
-0.72
-0.7
-0.695
-0.69
-0.675
-0.675
-0.66
-0.67
-0.68
-0.7
-0.72
-0.715
-0.73
-0.735
-0.73
-0.735
-0.73
-0.72
-0.725
-0.715
-0.715
-0.725
-0.75
-0.745
-0.75
-0.75
-0.765
-0.75
-0.745
-0.74
-0.735
-0.765
-0.78
-0.79
-0.785
-0.8
-0.8
-0.815
-0.79
-0.75
-0.745
-0.74
-0.73
-0.73
-0.745
-0.755
-0.765
-0.77
-0.78
-0.78
-0.77
-0.76
-0.745
-0.73
-0.725
-0.73
-0.74
-0.74
-0.755
-0.75
-0.75
-0.755
-0.75
-0.76
-0.75
-0.74
-0.74
-0.76
-0.74
-0.745
-0.735
-0.76
-0.76
-0.765
-0.76
-0.775
-0.78
-0.76
-0.74
-0.745
-0.735
-0.73
-0.745
-0.74
-0.735
-0.725
-0.715
-0.695
-0.69
-0.66
-0.66
-0.655
-0.66
-0.65
-0.645
-0.66
-0.665
-0.65
-0.64
-0.59
-0.57
-0.535
-0.51
-0.505
-0.52
-0.525
-0.555
-0.585
-0.605
-0.625
-0.625
-0.6
-0.57
-0.545
-0.51
-0.505
-0.53
-0.56
-0.605
-0.64
-0.685
-0.71
-0.73
-0.745
-0.73
-0.73
-0.72
-0.73
-0.745
-0.795
-0.805
-0.825
-0.825
-0.81
-0.815
-0.8
-0.815
-0.815
-0.8
-0.8
-0.805
-0.805
-0.835
-0.83
-0.845
-0.865
-0.84
-0.83
-0.84
-0.825
-0.815
-0.83
-0.845
-0.84
-0.83
-0.84
-0.83
-0.83
-0.82
-0.825
-0.83
-0.82
-0.79
-0.715
-0.585
-0.415
-0.25
-0.09
0.025
0.075
0.07
0.055
0.085
0.16
0.305
0.475
0.565
0.505
0.25
-0.22
-0.765
-1.275
-1.64
-1.86
-1.96
-1.995
-2.0
-2.01
-2.03
-2.06
-2.09
-2.12
-2.13
-2.12
-2.1
-2.08
-2.05
-1.98
-1.93
-1.855
-1.72
-1.585
-1.455
-1.31
-1.205
-1.11
-1.065
-1.04
-1.03
-1.01
-0.98
-0.945
-0.92
-0.905
-0.89
-0.9
-0.905
-0.905
-0.895
-0.89
-0.88
-0.85
-0.845
-0.855
-0.86
-0.875
-0.88
-0.905
-0.93
-0.92
-0.92
-0.91
-0.895
-0.9
-0.9
-0.91
-0.925
-0.955
-0.99
-1.005
-1.025
-1.015
-1.01
-0.985
-1.01
-1.01
-1.025
-1.05
-1.06
-1.07
-1.09
-1.1
-1.11
-1.125
-1.12
-1.125
-1.1
-1.105
-1.085
-1.1
-1.1
-1.105
-1.12
-1.105
-1.11
-1.11
-1.115
-1.11
-1.085
-1.055
-1.03
-1.035
-1.0
-0.99
-0.99
-0.985
-0.95
-0.95
-0.91
-0.88
-0.845
-0.815
-0.795
-0.78
-0.795
-0.8
-0.795
-0.79
-0.785
-0.76
-0.765
-0.755
-0.73
-0.72
-0.71
-0.695
-0.685
-0.71
-0.715
-0.715
-0.715
-0.71
-0.72
-0.72
-0.725
-0.715
-0.725
-0.725
-0.7
-0.71
-0.715
-0.71
-0.72
-0.74
-0.73
-0.73
-0.735
-0.725
-0.73
-0.72
-0.725
-0.74
-0.755
-0.77
-0.79
-0.77
-0.785
-0.765
-0.75
-0.75
-0.745
-0.74
-0.74
-0.76
-0.76
-0.77
-0.78
-0.795
-0.79
-0.805
-0.785
-0.76
-0.73
-0.73
-0.725
-0.745
-0.765
-0.785
-0.795
-0.77
-0.78
-0.785
-0.775
-0.775
-0.755
-0.755
-0.75
-0.745
-0.755
-0.77
-0.76
-0.75
-0.76
-0.755
-0.74
-0.74
-0.735
-0.745
-0.735
-0.765
-0.76
-0.77
-0.755
-0.76
-0.75
-0.735
-0.74
-0.73
-0.72
-0.735
-0.735
-0.73
-0.725
-0.715
-0.69
-0.68
-0.68
-0.67
-0.655
-0.63
-0.615
-0.6
-0.605
-0.61
-0.61
-0.615
-0.605
-0.565
-0.525
-0.49
-0.465
-0.475
-0.515
-0.555
-0.6
-0.625
-0.645
-0.645
-0.64
-0.6
-0.56
-0.52
-0.5
-0.495
-0.515
-0.55
-0.58
-0.625
-0.665
-0.7
-0.72
-0.73
-0.73
-0.74
-0.76
-0.765
-0.765
-0.765
-0.785
-0.78
-0.8
-0.79
-0.8
-0.795
-0.8
-0.81
-0.815
-0.795
-0.795
-0.77
-0.795
-0.795
-0.8
-0.825
-0.835
-0.82
-0.825
-0.815
-0.81
-0.795
-0.795
-0.805
-0.815
-0.8
-0.8
-0.82
-0.83
-0.835
-0.825
-0.82
-0.795
-0.75
-0.645
-0.505
-0.35
-0.19
-0.075
-0.02
-0.03
-0.02
0.0
0.115
0.28
0.475
0.62
0.66
0.53
0.19
-0.295
-0.775
-1.2
-1.5
-1.69
-1.75
-1.79
-1.8
-1.84
-1.895
-1.935
-1.985
-2.01
-2.025
-2.03
-2.02
-2.0
-1.975
-1.94
-1.915
-1.87
-1.8
-1.69
-1.55
-1.415
-1.295
-1.19
-1.13
-1.055
-1.01
-0.99
-0.945
-0.93
-0.92
-0.89
-0.885
-0.875
-0.885
-0.875
-0.885
-0.865
-0.85
-0.85
-0.855
-0.845
-0.835
-0.85
-0.875
-0.88
-0.885
-0.885
-0.895
-0.89
-0.875
-0.88
-0.88
-0.89
-0.9
-0.91
-0.915
-0.925
-0.94
-0.965
-0.995
-1.0
-0.99
-0.98
-0.985
-0.985
-0.995
-1.025
-1.045
-1.065
-1.075
-1.075
-1.095
-1.07
-1.065
-1.085
-1.075
-1.075
-1.065
-1.045
-1.08
-1.08
-1.075
-1.07
-1.075
-1.075
-1.07
-1.065
-1.035
-1.015
-1.005
-0.99
-0.985
-0.97
-0.95
-0.96
-0.94
-0.9
-0.86
-0.845
-0.82
-0.825
-0.825
-0.82
-0.815
-0.79
-0.79
-0.78
-0.77
-0.755
-0.75
-0.725
-0.7
-0.69
-0.71
-0.71
-0.74
-0.73
-0.735
-0.735
-0.74
-0.715
-0.71
-0.7
-0.695
-0.685
-0.675
-0.685
-0.695
-0.715
-0.715
-0.72
-0.71
-0.695
-0.69
-0.675
-0.67
-0.685
-0.7
-0.715
-0.715
-0.725
-0.715
-0.72
-0.71
-0.705
-0.725
-0.72
-0.72
-0.735
-0.715
-0.72
-0.715
-0.74
-0.755
-0.76
-0.755
-0.74
-0.72
-0.73
-0.72
-0.7
-0.705
-0.705
-0.69
-0.705
-0.7
-0.7
-0.71
-0.735
-0.72
-0.72
-0.705
-0.715
-0.715
-0.735
-0.74
-0.735
-0.735
-0.715
-0.71
-0.695
-0.68
-0.685
-0.665
-0.675
-0.69
-0.7
-0.715
-0.73
-0.73
-0.74
-0.73
-0.71
-0.695
-0.68
-0.67
-0.67
-0.665
-0.685
-0.7
-0.715
-0.735
-0.75
-0.74
-0.715
-0.71
-0.7
-0.68
-0.665
-0.645
-0.655
-0.645
-0.64
-0.625
-0.595
-0.585
-0.575
-0.57
-0.57
-0.555
-0.565
-0.53
-0.51
-0.49
-0.47
-0.47
-0.48
-0.5
-0.51
-0.525
-0.56
-0.58
-0.57
-0.555
-0.53
-0.52
-0.495
-0.48
-0.485
-0.52
-0.54
-0.57
-0.575
-0.625
-0.645
-0.66
-0.65
-0.665
-0.685
-0.695
-0.725
-0.755
-0.775
-0.76
-0.765
-0.72
-0.735
-0.72
-0.745
-0.74
-0.75
-0.765
-0.77
-0.765
-0.755
-0.76
-0.775
-0.77
-0.765
-0.76
-0.74
-0.73
-0.74
-0.755
-0.745
-0.76
-0.75
-0.74
-0.745
-0.75
-0.75
-0.75
-0.765
-0.785
-0.785
-0.775
-0.73
-0.665
-0.51
-0.33
-0.15
-0.03
0.025
0.02
0.0
0.02
0.085
0.23
0.42
0.585
0.7
0.675
0.48
0.115
-0.355
-0.855
-1.22
-1.475
-1.62
-1.69
-1.735
-1.79
-1.835
-1.895
-1.93
-1.94
-1.95
-1.94
-1.94
-1.935
-1.93
-1.92
-1.895
-1.85
-1.785
-1.675
-1.53
-1.385
-1.225
-1.115
-1.045
-0.995
-0.97
-0.945
-0.915
-0.895
-0.865
-0.85
-0.82
-0.785
-0.775
-0.775
-0.775
-0.785
-0.79
-0.8
-0.795
-0.805
-0.79
-0.79
-0.77
-0.77
-0.765
-0.775
-0.785
-0.805
-0.82
-0.825
-0.835
-0.845
-0.855
-0.85
-0.845
-0.845
-0.85
-0.865
-0.875
-0.91
-0.945
-0.96
-0.985
-0.985
-0.975
-0.965
-0.955
-0.965
-0.955
-0.96
-0.965
-0.98
-0.985
-1.0
-1.02
-1.01
-1.005
-1.005
-0.98
-0.975
-0.96
-0.965
-0.975
-0.965
-0.98
-0.985
-0.98
-0.96
-0.93
-0.915
-0.9
-0.885
-0.84
-0.845
-0.825
-0.805
-0.805
-0.805
-0.805
-0.79
-0.77
-0.755
-0.74
-0.68
-0.665
-0.68
-0.68
-0.69
-0.675
-0.675
-0.67
-0.665
-0.66
-0.635
-0.62
-0.625
-0.605
-0.61
-0.61
-0.62
-0.645
-0.64
-0.64
-0.645
-0.65
-0.65
-0.655
-0.635
-0.62
-0.625
-0.635
-0.655
-0.66
-0.67
-0.665
-0.68
-0.67
-0.665
-0.665
-0.68
-0.68
-0.695
-0.685
-0.7
-0.7
-0.715
-0.71
-0.71
-0.705
-0.69
-0.69
-0.695
-0.67
-0.68
-0.675
-0.69
-0.69
-0.7
-0.72
-0.72
-0.695
-0.69
-0.675
-0.655
-0.665
-0.67
-0.695
-0.695
-0.7
-0.695
-0.68
-0.69
-0.695
-0.685
-0.69
-0.685
-0.665
-0.65
-0.66
-0.66
-0.69
-0.7
-0.685
-0.685
-0.69
-0.67
-0.68
-0.675
-0.655
-0.67
-0.675
-0.66
-0.68
-0.675
-0.685
-0.685
-0.67
-0.675
-0.665
-0.65
-0.64
-0.64
-0.63
-0.645
-0.65
-0.64
-0.64
-0.64
-0.64
-0.595
-0.58
-0.57
-0.55
-0.55
-0.55
-0.55
-0.545
-0.545
-0.535
-0.52
-0.475
-0.465
-0.44
-0.43
-0.42
-0.455
-0.48
-0.515
-0.535
-0.55
-0.555
-0.54
-0.505
-0.47
-0.47
-0.43
-0.41
-0.44
-0.47
-0.52
-0.59
-0.625
-0.64
-0.67
-0.675
-0.67
-0.685
-0.695
-0.68
-0.69
-0.695
-0.725
-0.725
-0.735
-0.74
-0.76
-0.75
-0.74
-0.73
-0.73
-0.725
-0.71
-0.72
-0.715
-0.715
-0.735
-0.745
-0.755
-0.76
-0.745
-0.74
-0.75
-0.73
-0.725
-0.735
-0.725
-0.73
-0.745
-0.76
-0.76
-0.775
-0.765
-0.76
-0.74
-0.705
-0.655
-0.545
-0.425
-0.28
-0.16
-0.04
0.01
-0.01
-0.02
-0.01
0.085
0.24
0.42
0.565
0.63
0.535
0.235
-0.195
-0.705
-1.145
-1.455
-1.63
-1.73
-1.775
-1.825
-1.85
-1.9
-1.94
-1.97
-1.97
-1.975
-1.975
-1.965
-1.945
-1.905
-1.865
-1.83
-1.76
-1.67
-1.555
-1.415
-1.28
-1.145
-1.045
-0.975
-0.905
-0.85
-0.83
-0.83
-0.83
-0.81
-0.8
-0.795
-0.805
-0.795
-0.795
-0.77
-0.75
-0.75
-0.73
-0.755
-0.76
-0.75
-0.765
-0.78
-0.79
-0.81
-0.815
-0.8
-0.815
-0.805
-0.795
-0.795
-0.82
-0.835
-0.845
-0.86
-0.9
-0.915
-0.91
-0.9
-0.92
-0.91
-0.91
-0.915
-0.93
-0.945
-0.945
-0.96
-0.965
-0.975
-0.98
-0.98
-0.975
-0.975
-0.95
-0.975
-0.96
-0.975
-0.965
-0.98
-0.985
-1.0
-0.975
-0.965
-0.935
-0.91
-0.885
-0.87
-0.885
-0.865
-0.86
-0.845
-0.84
-0.81
-0.815
-0.78
-0.75
-0.725
-0.705
-0.705
-0.685
-0.675
-0.675
-0.66
-0.65
-0.645
-0.64
-0.65
-0.64
-0.63
-0.615
-0.615
-0.605
-0.615
-0.61
-0.635
