Lead II
-0.71
-0.695
-0.705
-0.71
-0.705
-0.705
-0.69
-0.675
-0.64
-0.665
-0.655
-0.66
-0.64
-0.61
-0.61
-0.58
-0.58
-0.565
-0.56
-0.54
-0.53
-0.535
-0.52
-0.5
-0.49
-0.445
-0.43
-0.415
-0.4
-0.39
-0.365
-0.36
-0.36
-0.35
-0.35
-0.33
-0.32
-0.295
-0.29
-0.28
-0.27
-0.265
-0.255
-0.225
-0.235
-0.23
-0.235
-0.23
-0.22
-0.195
-0.205
-0.2
-0.2
-0.19
-0.185
-0.175
-0.185
-0.19
-0.19
-0.185
-0.175
-0.155
-0.145
-0.165
-0.175
-0.17
-0.19
-0.18
-0.19
-0.19
-0.19
-0.175
-0.165
-0.165
-0.165
-0.175
-0.185
-0.185
-0.175
-0.15
-0.145
-0.14
-0.145
-0.145
-0.135
-0.14
-0.14
-0.135
-0.145
-0.145
-0.14
-0.13
-0.135
-0.125
-0.145
-0.125
-0.12
-0.12
-0.12
-0.145
-0.14
-0.15
-0.15
-0.145
-0.15
-0.17
-0.185
-0.17
-0.165
-0.13
-0.125
-0.135
-0.14
-0.15
-0.145
-0.145
-0.155
-0.18
-0.18
-0.175
-0.145
-0.13
-0.13
-0.145
-0.16
-0.175
-0.17
-0.175
-0.17
-0.16
-0.16
-0.135
-0.14
-0.135
-0.14
-0.155
-0.17
-0.18
-0.18
-0.16
-0.15
-0.155
-0.15
-0.16
-0.165
-0.19
-0.19
-0.215
-0.22
-0.215
-0.195
-0.17
-0.17
-0.19
-0.185
-0.19
-0.18
-0.175
-0.17
-0.18
-0.205
-0.2
-0.185
-0.185
-0.17
-0.18
-0.195
-0.19
-0.165
-0.165
-0.165
-0.16
-0.17
-0.17
-0.185
-0.165
-0.17
-0.17
-0.18
-0.18
-0.19
-0.17
-0.175
-0.18
-0.185
-0.195
-0.17
-0.16
-0.175
-0.185
-0.2
-0.21
-0.215
-0.2
-0.205
-0.205
-0.215
-0.2
-0.175
-0.16
-0.17
-0.18
-0.19
-0.185
-0.18
-0.175
-0.185
-0.2
-0.215
-0.19
-0.17
-0.16
-0.17
-0.18
-0.19
-0.205
-0.2
-0.18
-0.19
-0.185
-0.18
-0.185
-0.18
-0.175
-0.195
-0.21
-0.215
-0.235
-0.21
-0.18
-0.175
-0.195
-0.21
-0.21
-0.21
-0.21
-0.19
-0.185
-0.185
-0.17
-0.17
-0.17
-0.185
-0.195
-0.23
-0.235
-0.235
-0.22
-0.2
-0.19
-0.195
-0.19
-0.18
-0.18
-0.195
-0.21
-0.22
-0.205
-0.185
-0.17
-0.15
-0.15
-0.16
-0.145
-0.135
-0.125
-0.125
-0.15
-0.165
-0.18
-0.165
-0.145
-0.145
-0.145
-0.17
-0.205
-0.205
-0.21
-0.215
-0.23
-0.245
-0.24
-0.225
-0.23
-0.225
-0.24
-0.245
-0.255
-0.265
-0.275
-0.295
-0.305
-0.32
-0.325
-0.32
-0.295
-0.29
-0.305
-0.32
-0.32
-0.305
-0.285
-0.3
-0.315
-0.305
-0.305
-0.27
-0.23
-0.23
-0.24
-0.225
-0.23
-0.23
-0.23
-0.24
-0.265
-0.255
-0.24
-0.23
-0.205
-0.215
-0.22
-0.225
-0.225
-0.195
-0.18
-0.185
-0.19
-0.215
-0.21
-0.205
-0.19
-0.205
-0.23
-0.225
-0.205
-0.2
-0.195
-0.235
-0.275
-0.33
-0.365
-0.365
-0.335
-0.315
-0.27
-0.27
-0.245
-0.2
-0.175
-0.155
-0.15
-0.125
-0.085
0.035
0.215
0.385
0.485
0.495
0.455
0.39
0.305
0.18
0.055
-0.01
-0.065
-0.105
-0.13
-0.16
-0.18
-0.21
-0.205
-0.18
-0.16
-0.16
-0.16
-0.165
-0.165
-0.175
-0.155
-0.175
-0.165
-0.165
-0.155
-0.13
-0.115
-0.115
-0.135
-0.145
-0.15
-0.145
-0.145
-0.145
-0.155
-0.15
-0.15
-0.13
-0.115
-0.135
-0.145
-0.165
-0.16
-0.145
-0.12
-0.125
-0.12
-0.12
-0.125
-0.13
-0.1
-0.105
-0.115
-0.105
-0.105
-0.1
-0.08
-0.075
-0.06
-0.05
-0.06
-0.04
-0.04
-0.02
-0.025
-0.035
-0.02
-0.005
0.02
0.005
-0.005
-0.005
0.0
0.01
0.02
0.005
-0.01
-0.02
-0.01
0.035
0.055
0.035
0.06
0.065
0.04
0.035
0.055
0.05
0.06
0.07
0.08
0.075
0.085
0.085
0.06
0.05
0.05
0.05
0.08
0.085
0.08
0.075
0.055
0.035
0.045
0.015
0.02
0.01
0.015
0.015
0.045
0.02
-0.01
-0.025
-0.04
-0.045
-0.045
-0.05
-0.045
-0.06
-0.07
-0.08
-0.075
-0.11
-0.125
-0.145
-0.165
-0.16
-0.155
-0.15
-0.16
-0.18
-0.185
-0.195
-0.18
-0.19
-0.21
-0.21
-0.2
-0.19
-0.195
-0.18
-0.18
-0.2
-0.225
-0.225
-0.21
-0.22
-0.22
-0.22
-0.215
-0.215
-0.205
-0.225
-0.245
-0.25
-0.235
-0.225
-0.23
-0.245
-0.27
-0.29
-0.305
-0.285
-0.285
-0.29
-0.3
-0.31
-0.315
-0.31
-0.295
-0.28
-0.3
-0.285
-0.295
-0.275
-0.275
-0.29
-0.315
-0.345
-0.385
-0.385
-0.39
-0.39
-0.375
-0.37
-0.345
-0.295
-0.205
-0.11
-0.025
0.07
0.16
0.25
0.37
0.465
0.59
0.72
0.865
1.0
1.12
1.265
1.39
1.485
1.59
1.7
1.785
1.875
1.945
2.01
2.045
2.08
2.11
2.075
2.0
1.87
1.675
1.46
1.235
0.97
0.685
0.445
0.235
0.095
-0.01
-0.1
-0.205
-0.325
-0.4
-0.44
-0.46
-0.505
-0.51
-0.515
-0.535
-0.515
-0.5
-0.515
-0.525
-0.545
-0.565
-0.55
-0.54
-0.56
-0.555
-0.545
-0.565
-0.565
-0.56
-0.595
-0.615
-0.645
-0.65
-0.64
-0.64
-0.655
-0.675
-0.7
-0.705
-0.71
-0.705
-0.705
-0.72
-0.71
-0.715
-0.715
-0.68
-0.67
-0.69
-0.685
-0.69
-0.685
-0.67
-0.66
-0.66
-0.68
-0.68
-0.69
-0.68
-0.685
-0.7
-0.705
-0.715
-0.71
-0.67
-0.68
-0.67
-0.665
-0.675
-0.665
-0.655
-0.65
-0.66
-0.655
-0.655
-0.655
-0.64
-0.64
-0.645
-0.64
-0.63
-0.615
-0.59
-0.59
-0.6
-0.61
-0.62
-0.605
-0.59
-0.575
-0.545
-0.55
-0.52
-0.51
-0.505
-0.52
-0.525
-0.49
-0.505
-0.445
-0.395
-0.385
-0.375
-0.375
-0.38
-0.365
-0.34
-0.325
-0.31
-0.295
-0.27
-0.23
-0.215
-0.2
-0.2
-0.225
-0.225
-0.2
-0.17
-0.155
-0.125
-0.12
-0.105
-0.085
-0.08
-0.105
-0.125
-0.145
-0.15
-0.11
-0.095
-0.09
-0.095
-0.12
-0.13
-0.12
-0.125
-0.115
-0.105
-0.11
-0.105
-0.1
-0.09
-0.095
-0.1
-0.12
-0.115
-0.12
-0.09
-0.09
-0.08
-0.09
-0.08
-0.07
-0.055
-0.065
-0.08
-0.07
-0.065
-0.065
-0.035
-0.035
-0.035
-0.045
-0.065
-0.035
-0.035
-0.03
-0.045
-0.055
-0.065
-0.06
-0.08
-0.085
-0.115
-0.11
-0.11
-0.085
-0.06
-0.065
-0.06
-0.075
-0.075
-0.08
-0.065
-0.085
-0.095
-0.095
-0.09
-0.08
-0.05
-0.07
-0.085
-0.095
-0.1
-0.1
-0.095
-0.075
-0.07
-0.065
-0.075
-0.085
-0.105
-0.13
-0.145
-0.14
-0.15
-0.135
-0.11
-0.105
-0.1
-0.1
-0.13
-0.13
-0.115
-0.115
-0.13
-0.12
-0.125
-0.085
-0.07
-0.075
-0.095
-0.105
-0.12
-0.105
-0.1
-0.1
-0.1
-0.1
-0.105
-0.095
-0.11
-0.125
-0.14
-0.12
-0.135
-0.115
-0.105
-0.1
-0.11
-0.14
-0.145
-0.125
-0.095
-0.09
-0.1
-0.11
-0.13
-0.135
-0.145
-0.135
-0.11
-0.1
-0.115
-0.09
-0.08
-0.085
-0.105
-0.115
-0.125
-0.115
-0.115
-0.12
-0.125
-0.135
-0.145
-0.13
-0.135
-0.14
-0.14
-0.15
-0.16
-0.13
-0.125
-0.12
-0.14
-0.155
-0.14
-0.125
-0.11
-0.115
-0.125
-0.135
-0.15
-0.135
-0.11
-0.11
-0.11
-0.115
-0.12
-0.12
-0.115
-0.12
-0.14
-0.155
-0.17
-0.15
-0.135
-0.14
-0.155
-0.16
-0.165
-0.15
-0.13
-0.135
-0.14
-0.135
-0.14
-0.125
-0.105
-0.095
-0.1
-0.085
-0.085
-0.07
-0.08
-0.12
-0.13
-0.13
-0.135
-0.14
-0.12
-0.115
-0.12
-0.155
-0.16
-0.175
-0.2
-0.2
-0.215
-0.21
-0.195
-0.19
-0.185
-0.205
-0.23
-0.255
-0.26
-0.27
-0.25
-0.25
-0.245
-0.245
-0.255
-0.27
-0.245
-0.265
-0.28
-0.27
-0.265
-0.23
-0.2
-0.19
-0.215
-0.195
-0.18
-0.155
-0.11
-0.115
-0.125
-0.175
-0.195
-0.185
-0.18
-0.19
-0.195
-0.195
-0.2
-0.18
-0.165
-0.15
-0.15
-0.155
-0.165
-0.165
-0.14
-0.15
-0.145
-0.16
-0.165
-0.15
-0.155
-0.165
-0.185
-0.205
-0.24
-0.265
-0.275
-0.29
-0.275
-0.27
-0.24
-0.2
-0.155
-0.125
-0.11
-0.085
-0.06
-0.005
0.105
0.23
0.355
0.465
0.48
0.475
0.45
0.385
0.28
0.165
0.075
0.01
-0.03
-0.075
-0.105
-0.13
-0.13
-0.135
-0.125
-0.14
-0.135
-0.14
-0.14
-0.105
-0.085
-0.08
-0.09
-0.1
-0.115
-0.115
-0.09
-0.1
-0.105
-0.11
-0.11
-0.08
-0.06
-0.07
-0.08
-0.085
-0.095
-0.06
-0.055
-0.06
-0.05
-0.065
-0.045
-0.05
-0.045
-0.05
-0.055
-0.065
-0.055
-0.04
-0.025
-0.03
-0.03
-0.05
-0.07
-0.07
-0.055
-0.05
-0.045
-0.035
-0.03
-0.005
0.01
0.0
0.005
0.0
-0.01
0.01
0.04
0.045
0.05
0.035
0.025
0.04
0.05
0.05
0.035
0.02
0.035
0.06
0.09
0.09
0.09
0.08
0.065
0.055
0.07
0.06
0.055
0.055
0.045
0.06
0.095
0.09
0.09
0.08
0.085
0.1
0.115
0.1
0.11
0.1
0.085
0.1
0.13
0.12
0.135
0.12
0.1
0.105
0.1
0.08
0.06
0.055
0.04
0.07
0.08
0.065
0.055
0.035
0.015
0.01
0.01
0.0
-0.015
-0.035
-0.03
-0.035
-0.045
-0.05
-0.065
-0.08
-0.095
-0.09
-0.09
-0.1
-0.115
-0.13
-0.145
-0.16
-0.14
-0.14
-0.155
-0.165
-0.17
-0.165
-0.15
-0.165
-0.175
-0.175
-0.175
-0.155
-0.15
-0.16
-0.18
-0.18
-0.2
-0.205
-0.18
-0.175
-0.19
-0.205
-0.205
-0.18
-0.18
-0.18
-0.185
-0.205
-0.21
-0.22
-0.215
-0.225
-0.22
-0.25
-0.245
-0.245
-0.22
-0.215
-0.215
-0.22
-0.23
-0.25
-0.235
-0.26
-0.26
-0.285
-0.28
-0.26
-0.245
-0.235
-0.24
-0.26
-0.255
-0.24
-0.235
-0.255
-0.27
-0.295
-0.3
-0.265
-0.245
-0.25
-0.265
-0.285
-0.295
-0.325
-0.35
-0.375
-0.38
-0.365
-0.345
-0.31
-0.24
-0.16
-0.075
-0.005
0.08
0.155
0.24
0.31
0.415
0.55
0.685
0.825
0.96
1.075
1.18
1.27
1.365
1.465
1.54
1.63
1.705
1.805
1.87
1.95
2.035
2.075
2.11
2.125
2.125
2.095
2.06
1.98
1.84
1.66
1.445
1.21
0.995
0.755
0.52
0.315
0.16
0.04
-0.045
-0.15
-0.26
-0.355
-0.415
-0.44
-0.45
-0.465
-0.49
-0.495
-0.5
-0.495
-0.485
-0.495
-0.505
-0.525
-0.515
-0.505
-0.5
-0.505
-0.52
-0.54
-0.545
-0.53
-0.52
-0.53
-0.55
-0.575
-0.59
-0.595
-0.6
-0.59
-0.6
-0.62
-0.63
-0.63
-0.63
-0.635
-0.64
-0.64
-0.64
-0.62
-0.605
-0.6
-0.61
-0.62
-0.63
-0.61
-0.59
-0.59
-0.595
-0.605
-0.615
-0.615
-0.61
-0.61
-0.625
-0.645
-0.645
-0.635
-0.625
-0.62
-0.63
-0.645
-0.63
-0.635
-0.61
-0.61
-0.62
-0.63
-0.645
-0.635
-0.63
-0.635
-0.635
-0.62
-0.615
-0.595
-0.59
-0.59
-0.59
-0.6
-0.615
-0.63
-0.635
-0.62
-0.625
-0.615
-0.62
-0.6
-0.575
-0.565
-0.575
-0.58
-0.575
-0.575
-0.56
-0.555
-0.55
-0.535
-0.51
-0.475
-0.47
-0.47
-0.48
-0.5
-0.495
-0.47
-0.445
-0.44
-0.425
-0.415
-0.405
-0.38
-0.35
-0.335
-0.335
-0.325
-0.32
-0.295
-0.255
-0.245
-0.26
-0.26
-0.255
-0.235
-0.205
-0.205
-0.21
-0.225
-0.22
-0.2
-0.185
-0.195
-0.19
-0.17
-0.17
-0.14
-0.12
-0.095
-0.105
-0.115
-0.14
-0.145
-0.125
-0.14
-0.145
-0.155
-0.16
-0.15
-0.14
-0.145
-0.125
-0.14
-0.155
-0.14
-0.145
-0.15
-0.155
-0.175
-0.17
-0.14
-0.115
-0.11
-0.12
-0.135
-0.135
-0.13
-0.135
-0.125
-0.135
-0.14
-0.14
-0.12
-0.1
-0.09
-0.09
-0.105
-0.13
-0.135
-0.125
-0.115
-0.12
-0.115
-0.125
-0.1
-0.095
-0.11
-0.14
-0.16
-0.185
-0.175
-0.15
-0.13
-0.125
-0.125
-0.13
-0.115
-0.12
-0.145
-0.17
-0.19
-0.185
-0.17
-0.15
-0.145
-0.15
-0.15
-0.15
-0.155
-0.14
-0.14
-0.155
-0.175
-0.175
-0.15
-0.13
-0.12
-0.125
-0.145
-0.15
-0.145
-0.15
-0.17
-0.18
-0.21
-0.185
-0.17
-0.14
-0.14
-0.16
-0.16
-0.17
-0.175
-0.18
-0.175
-0.19
-0.2
-0.2
-0.195
-0.16
-0.17
-0.155
-0.17
-0.2
-0.19
-0.18
-0.175
-0.17
-0.175
-0.19
-0.205
-0.19
-0.18
-0.18
-0.18
-0.175
-0.17
-0.17
-0.165
-0.16
-0.16
-0.155
-0.175
-0.18
-0.19
-0.195
-0.2
-0.215
-0.195
-0.185
-0.185
-0.195
-0.2
-0.21
-0.2
-0.19
-0.18
-0.19
-0.195
-0.23
-0.205
-0.2
-0.195
-0.19
-0.195
-0.185
-0.17
-0.16
-0.16
-0.18
-0.19
-0.205
-0.2
-0.2
-0.2
-0.205
-0.21
-0.195
-0.16
-0.155
-0.155
-0.17
-0.195
-0.235
-0.245
-0.24
-0.235
-0.245
-0.23
-0.23
-0.215
-0.22
-0.205
-0.225
-0.23
-0.235
-0.22
-0.21
-0.195
-0.205
-0.22
-0.215
-0.225
-0.235
-0.22
-0.23
-0.23
-0.215
-0.205
-0.2
-0.18
-0.205
-0.215
-0.245
-0.25
-0.235
-0.225
-0.22
-0.215
-0.2
-0.175
-0.165
-0.17
-0.195
-0.215
-0.24
-0.255
-0.25
-0.23
-0.225
-0.21
-0.2
-0.185
-0.185
-0.195
-0.19
-0.205
-0.215
-0.21
-0.205
-0.215
-0.215
-0.23
-0.225
-0.215
-0.2
-0.22
-0.23
-0.25
-0.26
-0.255
-0.24
-0.225
-0.215
-0.225
-0.24
-0.24
-0.24
-0.27
-0.29
-0.31
-0.325
-0.315
-0.305
-0.315
-0.34
-0.345
-0.35
-0.35
-0.34
-0.33
-0.345
-0.345
-0.36
-0.34
-0.33
-0.335
-0.355
-0.355
-0.33
-0.315
-0.295
-0.295
-0.29
-0.295
-0.29
-0.28
-0.255
-0.265
-0.275
-0.285
-0.28
-0.27
-0.25
-0.245
-0.235
-0.24
-0.235
-0.225
-0.225
-0.225
-0.245
-0.25
-0.245
-0.23
-0.205
-0.205
-0.21
-0.23
-0.235
-0.24
-0.225
-0.23
-0.24
-0.245
-0.245
-0.245
-0.235
-0.26
-0.27
-0.295
-0.33
-0.365
-0.4
-0.42
-0.405
-0.38
-0.335
-0.29
-0.27
-0.235
-0.225
-0.22
-0.21
-0.19
-0.155
-0.105
-0.035
0.055
0.2
0.345
0.47
0.505
0.475
0.415
0.33
0.245
0.14
0.06
-0.025
-0.095
-0.155
-0.175
-0.19
-0.23
-0.235
-0.25
-0.255
-0.225
-0.2
-0.185
-0.175
-0.175
-0.175
-0.16
-0.16
-0.18
-0.225
-0.245
-0.25
-0.25
-0.24
-0.225
-0.215
-0.205
-0.21
-0.2
-0.19
-0.195
-0.2
-0.205
-0.205
-0.185
-0.17
-0.155
-0.15
-0.15
-0.155
-0.15
-0.145
-0.14
-0.14
-0.145
-0.14
-0.145
-0.115
-0.115
-0.115
-0.12
-0.125
-0.11
-0.11
-0.1
-0.115
-0.125
-0.125
-0.11
-0.09
-0.08
-0.09
-0.1
-0.11
-0.095
-0.08
-0.08
-0.09
-0.11
-0.105
-0.095
-0.075
-0.065
-0.075
-0.07
-0.06
-0.04
-0.03
-0.025
-0.03
-0.03
-0.035
-0.035
-0.04
0.0
-0.03
-0.04
-0.045
-0.035
-0.03
-0.01
-0.02
-0.01
-0.02
0.005
0.015
0.005
0.0
-0.01
-0.01
0.01
0.03
0.05
0.03
0.045
0.025
0.05
0.05
0.035
0.02
0.015
0.01
0.01
0.035
0.06
0.06
0.055
0.04
0.025
0.025
-0.01
-0.01
-0.035
-0.03
-0.025
-0.015
-0.005
-0.01
-0.03
-0.045
-0.04
-0.045
-0.07
-0.09
-0.115
-0.12
-0.125
-0.11
-0.105
-0.115
-0.125
-0.135
-0.135
-0.13
-0.14
-0.155
-0.185
-0.19
-0.19
-0.175
-0.185
-0.19
-0.18
-0.19
-0.195
-0.18
-0.2
-0.21
-0.235
-0.24
-0.225
-0.21
-0.215
-0.205
-0.21
-0.215
-0.195
-0.185
-0.185
-0.2
-0.23
-0.24
-0.25
-0.24
-0.23
-0.225
-0.24
-0.24
-0.245
-0.225
-0.24
-0.25
-0.255
-0.28
-0.29
-0.265
-0.255
-0.255
-0.275
-0.275
-0.26
-0.26
-0.255
-0.27
-0.27
-0.28
-0.285
-0.285
-0.285
-0.315
-0.32
-0.32
-0.315
-0.31
-0.305
-0.295
-0.315
-0.305
-0.29
-0.275
-0.27
-0.275
-0.285
-0.29
-0.29
-0.29
-0.28
-0.29
-0.29
-0.285
-0.285
-0.27
-0.27
-0.275
-0.315
-0.34
-0.345
-0.37
-0.38
-0.385
-0.39
-0.41
-0.385
-0.375
-0.36
-0.345
-0.315
-0.265
-0.195
-0.11
-0.055
-0.005
0.04
0.11
0.185
0.265
0.355
0.455
0.56
0.67
0.79
0.91
1.02
1.11
1.205
1.305
1.4
1.485
1.56
1.65
1.715
1.795
1.86
1.925
1.97
2.02
2.025
2.025
2.005
1.965
1.87
1.76
1.615
1.47
1.3
1.105
0.865
0.625
0.41
0.235
0.09
-0.005
-0.1
-0.185
-0.29
-0.38
-0.44
-0.505
-0.545
-0.56
-0.585
-0.585
-0.595
-0.595
-0.6
-0.605
-0.62
-0.63
-0.635
-0.625
-0.62
-0.625
-0.645
-0.655
-0.665
-0.655
-0.65
-0.65
-0.675
-0.67
-0.645
-0.64
-0.65
-0.655
-0.67
-0.67
-0.665
-0.66
-0.655
-0.65
-0.655
-0.65
-0.65
-0.64
-0.64
-0.645
-0.66
-0.645
-0.63
-0.62
-0.61
-0.615
-0.625
-0.625
-0.63
-0.64
-0.63
-0.625
-0.64
-0.655
-0.645
-0.63
-0.635
-0.63
-0.625
-0.63
-0.625
-0.63
-0.635
-0.64
-0.68
-0.685
-0.67
-0.665
-0.68
-0.685
-0.685
-0.69
-0.68
-0.67
-0.665
-0.665
-0.675
-0.685
-0.68
-0.665
-0.665
-0.665
-0.665
-0.675
-0.675
-0.655
-0.66
-0.655
-0.65
-0.64
-0.62
-0.605
-0.595
-0.605
-0.615
-0.615
-0.61
-0.59
-0.595
-0.585
-0.59
-0.585
-0.585
-0.555
-0.56
-0.555
-0.555
-0.55
-0.54
-0.52
-0.52
-0.52
-0.51
-0.495
-0.485
-0.49
-0.465
-0.44
-0.44
-0.425
-0.4
-0.38
-0.355
-0.355
-0.37
-0.38
-0.37
-0.35
-0.345
-0.34
-0.33
-0.325
-0.31
-0.29
-0.285
-0.28
-0.275
-0.28
-0.26
-0.24
-0.23
-0.21
-0.215
-0.22
-0.2
-0.175
-0.165
-0.165
-0.175
-0.19
-0.185
-0.17
-0.18
-0.185
-0.195
-0.195
-0.18
-0.155
-0.155
-0.13
-0.13
-0.135
-0.13
-0.12
-0.12
-0.12
-0.14
-0.14
-0.155
-0.135
-0.12
-0.105
-0.1
-0.1
-0.105
-0.11
-0.09
-0.11
-0.11
-0.135
-0.125
-0.115
-0.105
-0.1
-0.095
-0.085
-0.065
-0.055
-0.04
-0.04
-0.06
-0.075
-0.08
-0.08
-0.1
-0.11
-0.13
-0.125
-0.11
-0.105
-0.09
-0.095
-0.085
-0.09
-0.07
-0.065
-0.05
-0.05
-0.055
-0.06
-0.06
-0.055
-0.055
-0.07
-0.085
-0.085
-0.085
-0.065
-0.055
-0.05
-0.05
-0.065
-0.05
-0.055
-0.08
-0.09
-0.095
-0.09
-0.075
-0.065
-0.055
-0.055
-0.07
-0.055
-0.06
-0.05
-0.05
-0.065
-0.08
-0.08
-0.085
-0.085
-0.06
-0.065
-0.07
-0.075
-0.06
-0.045
-0.065
-0.06
-0.075
-0.075
-0.065
-0.045
-0.045
-0.04
-0.07
-0.07
-0.06
-0.035
-0.04
-0.05
-0.06
-0.065
-0.06
-0.035
-0.03
-0.025
-0.02
-0.025
-0.025
-0.035
-0.055
-0.065
-0.08
-0.08
-0.08
-0.08
-0.075
-0.06
-0.075
-0.075
-0.035
-0.015
-0.01
-0.015
-0.045
-0.07
-0.06
-0.055
-0.055
-0.065
-0.06
-0.05
-0.05
-0.05
-0.05
-0.065
-0.095
-0.075
-0.065
-0.045
-0.035
-0.05
-0.06
-0.065
-0.075
-0.06
-0.065
-0.055
-0.06
-0.06
-0.045
-0.03
-0.025
-0.02
-0.03
-0.04
-0.055
-0.065
-0.08
-0.105
-0.105
-0.12
-0.095
-0.095
-0.085
-0.065
-0.08
-0.07
-0.075
-0.075
-0.07
-0.09
-0.105
-0.095
-0.095
-0.1
-0.095
-0.095
-0.09
-0.105
-0.09
-0.095
-0.08
-0.08
-0.095
-0.105
-0.095
-0.09
-0.095
-0.085
-0.1
-0.085
-0.085
-0.065
-0.055
-0.075
-0.09
-0.1
-0.07
-0.08
-0.08
-0.09
-0.08
-0.085
-0.06
-0.045
-0.04
-0.05
-0.075
-0.085
-0.085
-0.07
-0.07
-0.055
-0.055
-0.06
-0.05
-0.05
-0.045
-0.05
-0.05
-0.055
-0.05
-0.02
-0.015
-0.01
-0.01
-0.025
-0.015
-0.02
-0.035
-0.06
-0.075
-0.085
-0.08
-0.065
-0.05
-0.07
-0.08
-0.1
-0.1
-0.1
-0.1
-0.12
-0.135
-0.15
-0.15
-0.14
-0.14
-0.16
-0.165
-0.165
-0.185
-0.195
-0.21
-0.21
-0.25
-0.255
-0.245
-0.235
-0.23
-0.22
-0.225
-0.23
-0.215
-0.225
-0.235
-0.25
-0.25
-0.255
-0.25
-0.21
-0.18
-0.175
-0.17
-0.165
-0.155
-0.14
-0.145
-0.165
-0.155
-0.15
-0.11
-0.08
-0.075
-0.085
-0.095
-0.12
-0.15
-0.15
-0.14
-0.14
-0.13
-0.125
-0.13
-0.13
-0.12
-0.13
-0.125
-0.115
-0.12
-0.11
-0.105
-0.13
-0.155
-0.175
-0.2
-0.24
-0.25
-0.26
-0.265
-0.23
-0.21
-0.165
-0.12
-0.075
-0.05
-0.01
0.015
0.05
0.055
0.07
0.16
0.3
0.46
0.555
0.565
0.54
0.49
0.44
0.34
0.235
0.135
0.04
-0.035
-0.07
-0.085
-0.09
-0.105
-0.115
-0.11
-0.1
-0.09
-0.09
-0.095
-0.095
-0.115
-0.115
-0.105
-0.075
-0.065
-0.075
-0.085
-0.1
-0.08
-0.06
-0.06
-0.04
-0.035
-0.055
-0.045
-0.055
-0.065
-0.07
-0.07
-0.08
-0.06
-0.05
-0.055
-0.04
-0.04
-0.03
-0.025
-0.005
-0.015
-0.045
-0.05
-0.045
-0.045
-0.03
-0.015
-0.01
-0.01
0.0
0.0
0.0
-0.01
-0.01
-0.025
-0.02
-0.015
0.01
0.025
0.03
0.02
0.02
0.02
0.03
0.035
0.03
0.04
0.04
0.055
0.065
0.07
0.05
0.045
0.02
0.005
0.035
0.05
0.06
0.055
0.06
0.09
0.095
0.095
0.09
0.07
0.06
0.055
0.085
0.09
0.1
0.08
0.085
0.105
0.11
0.11
0.1
0.095
0.095
0.1
0.105
0.105
0.09
0.09
0.095
0.09
0.085
0.08
0.07
0.065
0.06
0.05
0.04
0.025
0.005
-0.01
-0.035
-0.04
-0.045
-0.04
-0.035
-0.06
-0.065
-0.065
-0.06
-0.065
-0.08
-0.095
-0.105
-0.095
-0.095
-0.09
-0.1
-0.115
-0.13
-0.12
-0.12
-0.125
-0.12
-0.135
-0.13
-0.15
-0.12
-0.12
-0.13
-0.155
-0.16
-0.155
-0.17
-0.165
-0.17
-0.19
-0.19
-0.195
-0.19
-0.175
-0.19
-0.195
-0.19
-0.16
-0.16
-0.17
-0.175
-0.205
-0.215
-0.225
-0.215
-0.21
-0.2
-0.205
-0.205
-0.18
-0.175
-0.18
-0.22
-0.255
-0.265
-0.26
-0.245
-0.225
-0.24
-0.235
-0.22
-0.225
-0.235
-0.245
-0.255
-0.27
-0.275
-0.27
-0.28
-0.315
-0.345
-0.375
-0.375
-0.355
-0.31
-0.235
-0.13
-0.03
0.045
0.12
0.205
0.285
0.375
0.515
0.655
0.805
0.945
1.085
1.175
1.305
1.405
1.495
1.59
1.7
1.8
1.88
1.955
2.005
2.05
2.04
1.99
1.84
1.65
1.44
1.19
0.915
0.625
0.36
0.16
0.035
-0.055
-0.15
-0.265
-0.375
-0.46
-0.49
-0.49
-0.52
-0.535
-0.57
-0.585
-0.575
-0.58
-0.575
-0.575
-0.595
-0.625
-0.625
-0.61
-0.61
-0.625
-0.64
-0.66
-0.655
-0.67
-0.665
-0.66
-0.665
-0.67
-0.675
-0.66
-0.66
-0.675
-0.71
-0.73
-0.715
-0.72
-0.705
-0.7
-0.685
-0.69
-0.67
-0.67
-0.69
-0.7
-0.71
-0.73
-0.725
-0.695
-0.695
-0.69
-0.705
-0.705
-0.685
-0.67
-0.685
-0.7
-0.72
-0.745
-0.74
-0.72
-0.72
-0.74
-0.725
-0.705
-0.69
-0.675
-0.685
-0.685
-0.7
-0.7
-0.705
-0.68
-0.66
-0.645
-0.635
-0.635
-0.61
-0.6
-0.585
-0.6
-0.585
-0.58
-0.56
-0.535
-0.52
-0.51
-0.505
-0.5
-0.47
-0.445
-0.43
-0.4
-0.385
-0.355
-0.325
-0.305
-0.305
-0.3
-0.325
-0.325
-0.305
-0.275
-0.27
-0.27
-0.27
-0.265
-0.25
-0.22
-0.205
-0.205
-0.205
-0.205
-0.175
-0.165
-0.16
-0.17
-0.19
-0.19
-0.175
-0.18
-0.155
-0.175
-0.18
-0.18
-0.18
-0.175
-0.16
-0.15
-0.15
-0.15
-0.12
-0.11
-0.115
-0.135
-0.15
-0.16
-0.15
-0.13
-0.105
-0.085
-0.095
-0.125
-0.13
-0.14
-0.135
-0.16
-0.145
-0.14
-0.12
-0.1
-0.1
-0.11
-0.12
-0.13
-0.14
-0.105
-0.085
-0.08
-0.085
-0.095
-0.1
-0.095
-0.085
-0.085
-0.095
-0.095
-0.09
-0.075
-0.07
-0.075
-0.085
-0.085
-0.085
-0.08
-0.075
-0.09
-0.105
-0.11
-0.105
-0.1
-0.085
-0.075
-0.08
-0.07
-0.035
-0.025
-0.045
-0.09
-0.115
-0.12
-0.1
-0.085
-0.065
-0.055
-0.07
-0.1
-0.08
-0.085
-0.07
-0.08
-0.065
-0.065
-0.065
-0.055
-0.045
-0.045
-0.07
-0.075
-0.07
-0.05
-0.045
-0.055
-0.055
-0.065
-0.07
-0.065
-0.06
-0.065
-0.06
-0.065
-0.055
-0.04
-0.005
-0.01
-0.035
-0.045
-0.04
-0.035
-0.055
-0.04
-0.04
-0.035
-0.015
0.0
0.0
-0.02
-0.03
-0.04
-0.045
-0.03
-0.025
-0.01
-0.015
-0.015
-0.02
-0.01
0.01
0.005
-0.015
-0.02
-0.005
0.02
0.025
0.05
0.04
0.02
0.025
0.045
0.055
0.04
0.025
0.045
0.055
0.06
0.07
0.065
0.035
0.03
0.025
0.04
0.055
0.055
0.055
0.065
0.07
0.07
0.07
0.06
0.055
0.065
0.105
0.15
0.175
0.185
0.175
0.16
0.14
0.14
0.16
0.175
0.165
0.16
0.16
0.165
0.14
0.13
0.115
0.085
0.08
0.095
0.11
0.1
0.095
0.08
0.075
0.065
0.07
0.1
0.11
0.115
0.095
0.08
0.075
0.035
-0.02
-0.005
0.01
0.04
0.06
0.045
0.01
-0.005
-0.005
0.015
0.03
0.045
0.03
0.03
0.045
0.065
0.085
0.095
0.1
0.09
0.125
0.145
0.155
0.14
0.135
0.135
0.155
0.175
0.195
0.17
0.155
0.155
0.16
0.18
0.18
0.18
0.175
0.15
0.165
0.175
0.17
0.155
0.12
0.09
0.075
0.11
0.135
0.165
0.2
0.225
0.27
0.325
0.38
0.41
0.43
0.48
0.575
0.725
0.85
0.9
0.85
0.795
0.685
0.545
0.435
0.325
0.235
0.19
0.165
0.165
0.16
0.165
0.155
0.16
0.165
0.18
0.18
0.155
0.145
0.16
0.18
0.195
0.21
0.215
0.21
0.205
0.195
0.195
0.215
0.225
0.225
0.23
0.255
0.255
0.22
0.205
0.19
0.185
0.2
0.235
0.25
0.255
0.25
0.24
0.245
0.23
0.245
0.245
0.25
0.24
0.26
0.28
0.29
0.29
0.285
0.29
0.295
0.275
0.26
0.24
0.255
0.27
0.28
0.29
0.295
0.3
0.3
0.29
0.29
0.285
0.29
0.3
0.3
0.3
0.325
0.33
0.335
0.335
0.32
0.315
0.325
0.35
0.345
0.345
0.325
0.295
0.305
0.315
0.34
0.355
0.365
0.365
0.32
0.33
0.31
0.3
0.295
0.29
0.295
0.295
0.295
0.265
0.245
0.215
0.225
0.22
0.215
0.225
0.21
0.21
0.205
0.2
0.21
0.19
0.16
0.115
0.1
0.11
0.105
0.115
0.115
0.115
0.115
0.1
0.085
0.085
0.065
0.035
0.045
0.035
0.06
0.06
0.045
0.035
0.025
0.02
0.02
0.035
0.025
0.025
0.045
0.065
0.055
0.05
0.02
0.02
0.02
0.025
0.015
0.015
-0.005
-0.01
0.025
0.025
0.02
0.01
0.005
-0.005
0.01
0.02
-0.005
-0.025
-0.055
-0.055
-0.065
-0.06
-0.05
-0.04
-0.06
-0.055
-0.055
-0.03
-0.03
-0.07
-0.105
-0.16
-0.185
-0.19
-0.195
-0.195
-0.19
-0.17
-0.115
-0.045
0.04
0.13
0.2
0.25
0.315
0.39
0.475
0.57
0.705
0.86
1.005
1.135
1.25
1.375
1.46
1.565
1.67
1.77
1.875
1.945
2.01
2.07
2.13
2.185
2.215
2.18
2.1
1.975
1.825
1.65
1.425
1.19
0.925
0.675
0.445
0.27
0.13
0.04
-0.065
-0.16
-0.22
-0.245
-0.27
-0.285
-0.315
-0.335
-0.35
-0.36
-0.39
-0.405
-0.43
-0.45
-0.435
-0.44
-0.435
-0.45
-0.47
-0.49
-0.495
-0.485
-0.48
-0.475
-0.48
-0.495
-0.49
-0.485
-0.495
-0.495
-0.5
-0.52
-0.54
-0.55
-0.565
-0.585
-0.585
-0.595
-0.595
-0.595
-0.58
-0.585
-0.61
-0.615
-0.61
-0.6
-0.585
-0.595
-0.605
-0.61
-0.61
-0.59
-0.585
-0.605
-0.61
-0.62
-0.62
-0.6
-0.6
-0.595
-0.605
-0.6
-0.595
-0.58
-0.575
-0.605
-0.625
-0.64
-0.64
-0.615
-0.605
-0.595
-0.595
-0.575
-0.565
-0.57
-0.57
-0.57
-0.57
-0.56
-0.555
-0.545
-0.535
-0.54
-0.54
-0.55
-0.54
-0.53
-0.51
-0.505
-0.525
-0.525
-0.505
-0.49
-0.485
-0.48
-0.47
-0.47
-0.455
-0.43
-0.425
-0.405
-0.405
-0.395
-0.38
-0.355
-0.325
-0.32
-0.345
-0.32
-0.315
-0.275
-0.26
-0.26
-0.265
-0.27
-0.265
-0.23
-0.22
-0.21
-0.195
-0.18
-0.16
-0.135
-0.12
-0.135
-0.15
-0.16
-0.16
-0.15
-0.15
-0.135
-0.115
-0.095
-0.075
-0.055
-0.035
-0.04
-0.05
-0.08
-0.11
-0.125
-0.115
-0.12
-0.11
-0.11
-0.085
-0.06
-0.045
-0.05
-0.06
-0.07
-0.065
-0.055
-0.06
-0.065
-0.08
-0.08
-0.055
-0.03
-0.045
-0.045
-0.075
-0.085
-0.08
-0.07
-0.055
-0.065
-0.07
-0.065
-0.055
-0.04
-0.04
-0.05
-0.065
-0.065
-0.065
-0.035
-0.025
-0.01
-0.03
-0.035
-0.02
-0.01
-0.01
-0.005
-0.015
-0.03
-0.035
-0.02
-0.04
-0.03
-0.025
-0.035
-0.015
0.01
0.025
0.005
-0.02
-0.035
-0.04
-0.035
-0.035
-0.025
-0.06
-0.06
-0.05
-0.03
-0.03
-0.03
-0.04
-0.03
-0.025
-0.03
-0.035
-0.04
-0.045
-0.06
-0.04
-0.03
-0.02
-0.03
-0.025
-0.04
-0.045
-0.03
-0.005
-0.01
-0.01
-0.02
-0.015
-0.01
0.005
-0.01
-0.015
-0.03
-0.03
-0.025
-0.03
-0.03
-0.055
-0.05
-0.025
-0.01
0.015
0.015
0.0
-0.01
-0.005
-0.025
-0.015
-0.03
-0.055
-0.055
-0.045
-0.025
-0.015
-0.01
-0.015
-0.035
-0.03
-0.035
-0.035
-0.035
-0.025
-0.02
0.0
0.0
0.015
0.01
-0.005
-0.02
-0.02
-0.03
-0.02
-0.03
-0.035
-0.03
-0.015
-0.015
0.0
-0.01
-0.01
-0.02
