Lead II
-1.29
-1.14
-1.015
-0.895
-0.815
-0.755
-0.735
-0.73
-0.755
-0.73
-0.72
-0.715
-0.685
-0.67
-0.665
-0.665
-0.66
-0.685
-0.68
-0.69
-0.705
-0.7
-0.705
-0.705
-0.685
-0.705
-0.7
-0.705
-0.71
-0.725
-0.755
-0.77
-0.795
-0.795
-0.795
-0.825
-0.83
-0.82
-0.805
-0.805
-0.805
-0.81
-0.845
-0.875
-0.905
-0.915
-0.935
-0.935
-0.925
-0.925
-0.9
-0.9
-0.915
-0.93
-0.935
-0.945
-0.955
-0.96
-0.965
-0.975
-0.97
-0.955
-0.935
-0.93
-0.94
-0.945
-0.94
-0.94
-0.925
-0.895
-0.87
-0.85
-0.83
-0.79
-0.76
-0.74
-0.72
-0.71
-0.715
-0.715
-0.71
-0.695
-0.69
-0.67
-0.65
-0.64
-0.62
-0.6
-0.585
-0.58
-0.57
-0.59
-0.575
-0.605
-0.605
-0.6
-0.58
-0.57
-0.56
-0.515
-0.52
-0.52
-0.52
-0.565
-0.555
-0.57
-0.575
-0.575
-0.56
-0.555
-0.535
-0.53
-0.535
-0.54
-0.555
-0.57
-0.585
-0.58
-0.595
-0.585
-0.565
-0.56
-0.55
-0.545
-0.56
-0.565
-0.585
-0.6
-0.63
-0.615
-0.605
-0.62
-0.595
-0.59
-0.575
-0.55
-0.56
-0.565
-0.56
-0.6
-0.61
-0.6
-0.605
-0.595
-0.595
-0.58
-0.55
-0.54
-0.53
-0.525
-0.54
-0.55
-0.57
-0.585
-0.58
-0.585
-0.575
-0.565
-0.56
-0.545
-0.55
-0.55
-0.555
-0.55
-0.555
-0.565
-0.565
-0.565
-0.55
-0.55
-0.55
-0.54
-0.545
-0.545
-0.56
-0.55
-0.56
-0.56
-0.55
-0.55
-0.525
-0.505
-0.51
-0.5
-0.52
-0.5
-0.505
-0.495
-0.485
-0.485
-0.49
-0.47
-0.46
-0.445
-0.41
-0.395
-0.36
-0.345
-0.325
-0.32
-0.325
-0.35
-0.37
-0.415
-0.44
-0.43
-0.43
-0.43
-0.42
-0.4
-0.37
-0.35
-0.33
-0.355
-0.38
-0.425
-0.47
-0.485
-0.505
-0.505
-0.515
-0.54
-0.54
-0.565
-0.58
-0.59
-0.6
-0.595
-0.57
-0.56
-0.57
-0.57
-0.58
-0.59
-0.59
-0.6
-0.605
-0.61
-0.635
-0.625
-0.615
-0.61
-0.61
-0.61
-0.605
-0.605
-0.6
-0.615
-0.61
-0.615
-0.62
-0.62
-0.63
-0.62
-0.615
-0.605
-0.62
-0.62
-0.615
-0.615
-0.6
-0.505
-0.395
-0.245
-0.06
0.095
0.2
0.225
0.19
0.165
0.195
0.255
0.41
0.56
0.675
0.68
0.53
0.18
-0.265
-0.73
-1.11
-1.39
-1.55
-1.67
-1.725
-1.76
-1.785
-1.79
-1.785
-1.785
-1.775
-1.775
-1.77
-1.765
-1.74
-1.72
-1.68
-1.615
-1.49
-1.34
-1.19
-1.06
-0.945
-0.87
-0.805
-0.76
-0.74
-0.74
-0.725
-0.71
-0.7
-0.685
-0.66
-0.665
-0.67
-0.68
-0.67
-0.68
-0.675
-0.665
-0.675
-0.68
-0.685
-0.69
-0.685
-0.67
-0.68
-0.67
-0.685
-0.705
-0.715
-0.725
-0.735
-0.75
-0.77
-0.78
-0.785
-0.795
-0.8
-0.795
-0.8
-0.84
-0.85
-0.85
-0.85
-0.875
-0.895
-0.905
-0.91
-0.925
-0.915
-0.9
-0.905
-0.905
-0.935
-0.945
-0.94
-0.95
-0.96
-0.975
-0.96
-0.94
-0.94
-0.91
-0.89
-0.88
-0.875
-0.88
-0.855
-0.855
-0.845
-0.82
-0.79
-0.76
-0.74
-0.705
-0.7
-0.695
-0.68
-0.69
-0.705
-0.685
-0.665
-0.675
-0.64
-0.625
-0.6
-0.575
-0.575
-0.575
-0.565
-0.575
-0.59
-0.59
-0.605
-0.61
-0.605
-0.59
-0.58
-0.57
-0.57
-0.59
-0.6
-0.6
-0.61
-0.6
-0.595
-0.6
-0.605
-0.59
-0.585
-0.565
-0.57
-0.585
-0.585
-0.6
-0.61
-0.615
-0.615
-0.61
-0.61
-0.61
-0.61
-0.605
-0.605
-0.625
-0.64
-0.66
-0.65
-0.655
-0.675
-0.65
-0.635
-0.64
-0.64
-0.625
-0.625
-0.63
-0.635
-0.645
-0.665
-0.665
-0.665
-0.67
-0.65
-0.64
-0.63
-0.615
-0.6
-0.605
-0.625
-0.63
-0.64
-0.665
-0.66
-0.645
-0.64
-0.645
-0.625
-0.63
-0.635
-0.625
-0.625
-0.63
-0.635
-0.645
-0.665
-0.65
-0.65
-0.655
-0.64
-0.63
-0.615
-0.615
-0.63
-0.645
-0.64
-0.64
-0.645
-0.62
-0.605
-0.585
-0.59
-0.55
-0.52
-0.495
-0.495
-0.515
-0.51
-0.525
-0.515
-0.49
-0.455
-0.43
-0.42
-0.42
-0.425
-0.445
-0.465
-0.495
-0.52
-0.53
-0.525
-0.51
-0.455
-0.44
-0.415
-0.44
-0.465
-0.51
-0.555
-0.575
-0.58
-0.605
-0.61
-0.62
-0.65
-0.665
-0.68
-0.68
-0.69
-0.685
-0.705
-0.7
-0.705
-0.705
-0.695
-0.69
-0.695
-0.69
-0.705
-0.71
-0.72
-0.705
-0.705
-0.72
-0.725
-0.72
-0.705
-0.7
-0.7
-0.695
-0.695
-0.7
-0.675
-0.68
-0.695
-0.71
-0.715
-0.74
-0.755
-0.755
-0.74
-0.7
-0.61
-0.475
-0.33
-0.185
-0.085
0.005
0.005
-0.03
-0.06
-0.02
0.09
0.275
0.48
0.625
0.61
0.41
0.0
-0.495
-0.955
-1.33
-1.565
-1.7
-1.76
-1.79
-1.805
-1.83
-1.86
-1.865
-1.875
-1.875
-1.89
-1.9
-1.885
-1.845
-1.785
-1.705
-1.605
-1.46
-1.305
-1.185
-1.075
-0.995
-0.93
-0.89
-0.865
-0.86
-0.825
-0.8
-0.785
-0.77
-0.765
-0.76
-0.765
-0.775
-0.79
-0.775
-0.78
-0.785
-0.79
-0.775
-0.78
-0.765
-0.775
-0.755
-0.755
-0.78
-0.79
-0.805
-0.805
-0.82
-0.825
-0.84
-0.835
-0.84
-0.85
-0.87
-0.87
-0.88
-0.895
-0.905
-0.915
-0.945
-0.935
-0.95
-0.935
-0.925
-0.94
-0.97
-0.965
-0.99
-0.985
-0.985
-0.99
-0.97
-0.975
-0.97
-0.98
-0.97
-0.955
-0.965
-0.94
-0.945
-0.935
-0.925
-0.93
-0.935
-0.91
-0.88
-0.855
-0.815
-0.79
-0.785
-0.765
-0.76
-0.745
-0.755
-0.75
-0.74
-0.725
-0.71
-0.695
-0.675
-0.655
-0.65
-0.665
-0.67
-0.67
-0.67
-0.675
-0.665
-0.64
-0.625
-0.615
-0.61
-0.625
-0.625
-0.64
-0.665
-0.66
-0.68
-0.685
-0.685
-0.665
-0.67
-0.65
-0.655
-0.635
-0.65
-0.65
-0.67
-0.68
-0.695
-0.7
-0.705
-0.67
-0.685
-0.685
-0.69
-0.675
-0.685
-0.695
-0.7
-0.71
-0.715
-0.72
-0.725
-0.72
-0.715
-0.705
-0.71
-0.71
-0.71
-0.695
-0.695
-0.71
-0.715
-0.72
-0.715
-0.72
-0.71
-0.7
-0.7
-0.685
-0.69
-0.695
-0.695
-0.695
-0.705
-0.705
-0.7
-0.695
-0.695
-0.695
-0.68
-0.68
-0.68
-0.7
-0.69
-0.67
-0.685
-0.68
-0.685
-0.695
-0.685
-0.68
-0.66
-0.655
-0.655
-0.665
-0.685
-0.685
-0.685
-0.685
-0.68
-0.67
-0.66
-0.665
-0.635
-0.62
-0.6
-0.6
-0.595
-0.6
-0.6
-0.6
-0.595
-0.59
-0.585
-0.555
-0.535
-0.495
-0.49
-0.445
-0.46
-0.465
-0.49
-0.515
-0.525
-0.55
-0.54
-0.55
-0.535
-0.5
-0.475
-0.475
-0.465
-0.48
-0.495
-0.525
-0.555
-0.575
-0.6
-0.62
-0.62
-0.625
-0.64
-0.655
-0.675
-0.685
-0.715
-0.715
-0.72
-0.71
-0.705
-0.7
-0.69
-0.675
-0.68
-0.705
-0.71
-0.715
-0.73
-0.74
-0.745
-0.74
-0.75
-0.715
-0.715
-0.7
-0.71
-0.705
-0.705
-0.695
-0.71
-0.72
-0.715
-0.7
-0.69
-0.69
-0.705
-0.71
-0.72
-0.725
-0.72
-0.695
-0.64
-0.535
-0.385
-0.22
-0.06
0.06
0.155
0.17
0.125
0.105
0.125
0.2
0.325
0.47
0.555
0.51
0.29
-0.12
-0.6
-1.05
-1.405
-1.625
-1.755
-1.815
-1.85
-1.865
-1.855
-1.86
-1.85
-1.87
-1.875
-1.885
-1.88
-1.855
-1.835
-1.79
-1.735
-1.63
-1.51
-1.35
-1.21
-1.065
-0.97
-0.91
-0.885
-0.87
-0.88
-0.885
-0.875
-0.855
-0.83
-0.8
-0.765
-0.755
-0.77
-0.79
-0.785
-0.805
-0.81
-0.795
-0.83
-0.82
-0.8
-0.79
-0.805
-0.805
-0.795
-0.795
-0.795
-0.82
-0.825
-0.84
-0.845
-0.865
-0.86
-0.88
-0.885
-0.91
-0.925
-0.925
-0.915
-0.91
-0.92
-0.955
-0.95
-0.985
-0.985
-0.99
-1.005
-1.0
-1.01
-1.01
-1.02
-1.015
-1.01
-1.02
-1.02
-1.025
-1.03
-1.05
-1.015
-1.0
-0.975
-0.965
-0.97
-0.945
-0.95
-0.935
-0.935
-0.93
-0.92
-0.875
-0.86
-0.815
-0.8
-0.78
-0.775
-0.76
-0.77
-0.76
-0.76
-0.755
-0.73
-0.725
-0.695
-0.68
-0.675
-0.665
-0.685
-0.68
-0.685
-0.685
-0.675
-0.68
-0.685
-0.69
-0.685
-0.67
-0.65
-0.62
-0.62
-0.635
-0.64
-0.675
-0.71
-0.69
-0.69
-0.675
-0.665
-0.645
-0.64
-0.655
-0.645
-0.64
-0.66
-0.685
-0.705
-0.715
-0.71
-0.69
-0.685
-0.66
-0.675
-0.685
-0.705
-0.71
-0.735
-0.73
-0.74
-0.74
-0.75
-0.72
-0.71
-0.71
-0.69
-0.7
-0.715
-0.725
-0.715
-0.725
-0.715
-0.72
-0.695
-0.69
-0.685
-0.695
-0.71
-0.72
-0.715
-0.715
-0.715
-0.715
-0.725
-0.7
-0.705
-0.71
-0.705
-0.735
-0.72
-0.71
-0.705
-0.695
-0.71
-0.705
-0.71
-0.7
-0.7
-0.69
-0.68
-0.66
-0.645
-0.655
-0.67
-0.675
-0.685
-0.675
-0.66
-0.63
-0.615
-0.605
-0.605
-0.575
-0.565
-0.535
-0.505
-0.49
-0.485
-0.535
-0.54
-0.585
-0.61
-0.615
-0.61
-0.595
-0.605
-0.58
-0.565
-0.535
-0.53
-0.535
-0.55
-0.605
-0.64
-0.655
-0.68
-0.655
-0.65
-0.675
-0.705
-0.75
-0.78
-0.79
-0.79
-0.785
-0.785
-0.785
-0.8
-0.77
-0.745
-0.74
-0.755
-0.765
-0.775
-0.815
-0.825
-0.82
-0.83
-0.805
-0.815
-0.78
-0.75
-0.73
-0.75
-0.755
-0.765
-0.79
-0.81
-0.805
-0.82
-0.81
-0.79
-0.79
-0.79
-0.805
-0.84
-0.855
-0.885
-0.87
-0.82
-0.745
-0.625
-0.48
-0.335
-0.235
-0.21
-0.205
-0.23
-0.195
-0.09
0.08
0.285
0.455
0.565
0.525
0.345
-0.025
-0.455
-0.845
-1.17
-1.365
-1.485
-1.58
-1.675
-1.75
-1.83
-1.865
-1.87
-1.87
-1.86
-1.86
-1.85
-1.86
-1.86
-1.805
-1.755
-1.68
-1.585
-1.445
-1.315
-1.195
-1.07
-1.005
-0.955
-0.91
-0.905
-0.89
-0.895
-0.88
-0.895
-0.875
-0.865
-0.85
-0.84
-0.825
-0.855
-0.835
-0.835
-0.83
-0.825
-0.825
-0.825
-0.825
-0.83
-0.83
-0.83
-0.835
-0.845
-0.84
-0.85
-0.87
-0.885
-0.91
-0.94
-0.955
-0.94
-0.95
-0.93
-0.935
-0.935
-0.93
-0.935
-0.95
-0.985
-1.0
-1.02
-1.03
-1.025
-1.02
-1.015
-1.02
-1.01
-1.0
-1.0
-0.995
-1.01
-1.025
-1.025
-1.04
-1.025
-1.035
-1.02
-1.0
-1.0
-0.97
-0.955
-0.955
-0.96
-0.94
-0.935
-0.915
-0.88
-0.85
-0.825
-0.8
-0.78
-0.785
-0.78
-0.78
-0.775
-0.775
-0.775
-0.75
-0.71
-0.7
-0.68
-0.67
-0.675
-0.675
-0.685
-0.715
-0.715
-0.72
-0.72
-0.715
-0.72
-0.685
-0.68
-0.67
-0.675
-0.67
-0.685
-0.7
-0.7
-0.695
-0.7
-0.695
-0.705
-0.695
-0.695
-0.705
-0.7
-0.715
-0.715
-0.72
-0.73
-0.73
-0.735
-0.72
-0.725
-0.73
-0.73
-0.72
-0.735
-0.73
-0.74
-0.73
-0.74
-0.73
-0.73
-0.74
-0.735
-0.72
-0.71
-0.725
-0.72
-0.745
-0.75
-0.76
-0.76
-0.75
-0.76
-0.75
-0.74
-0.715
-0.705
-0.69
-0.69
-0.695
-0.69
-0.71
-0.73
-0.72
-0.73
-0.73
-0.72
-0.72
-0.715
-0.69
-0.7
-0.695
-0.7
-0.725
-0.715
-0.715
-0.71
-0.71
-0.69
-0.695
-0.695
-0.68
-0.695
-0.71
-0.705
-0.695
-0.705
-0.695
-0.705
-0.675
-0.635
-0.63
-0.605
-0.6
-0.61
-0.605
-0.595
-0.58
-0.565
-0.54
-0.51
-0.48
-0.475
-0.47
-0.48
-0.5
-0.525
-0.54
-0.55
-0.57
-0.58
-0.6
-0.565
-0.545
-0.51
-0.485
-0.495
-0.515
-0.53
-0.575
-0.625
-0.65
-0.67
-0.685
-0.7
-0.73
-0.725
-0.735
-0.735
-0.715
-0.73
-0.74
-0.745
-0.765
-0.785
-0.78
-0.79
-0.78
-0.775
-0.77
-0.76
-0.775
-0.76
-0.76
-0.775
-0.785
-0.795
-0.79
-0.8
-0.795
-0.785
-0.775
-0.765
-0.755
-0.76
-0.78
-0.775
-0.8
-0.805
-0.825
-0.83
-0.82
-0.78
-0.71
-0.605
-0.46
-0.32
-0.18
-0.085
-0.045
-0.065
-0.11
-0.11
-0.065
0.1
0.3
0.48
0.56
0.485
0.185
-0.26
-0.8
-1.24
-1.605
-1.785
-1.87
-1.92
-1.935
-1.96
-1.97
-1.98
-1.995
-1.99
-2.01
-2.02
-2.005
-1.99
-1.955
-1.91
-1.815
-1.74
-1.6
-1.465
-1.32
-1.21
-1.11
-1.055
-0.995
-0.965
-0.935
-0.91
-0.885
-0.855
-0.835
-0.815
-0.8
-0.8
-0.79
-0.805
-0.835
-0.82
-0.84
-0.835
-0.825
-0.81
-0.8
-0.815
-0.805
-0.81
-0.81
-0.84
-0.855
-0.875
-0.895
-0.885
-0.87
-0.87
-0.87
-0.875
-0.885
-0.915
-0.94
-0.96
-0.965
-0.965
-0.975
-0.98
-0.97
-0.96
-0.965
-0.975
-0.995
-1.01
-1.03
-1.045
-1.055
-1.05
-1.02
-1.005
-1.005
-1.01
-1.0
-1.005
-0.995
-0.985
-0.995
-0.99
-0.995
-0.99
-0.96
-0.945
-0.89
-0.875
-0.875
-0.865
-0.845
-0.84
-0.835
-0.835
-0.81
-0.795
-0.765
-0.75
-0.75
-0.745
-0.715
-0.715
-0.705
-0.725
-0.73
-0.715
-0.715
-0.695
-0.685
-0.7
-0.69
-0.695
-0.675
-0.7
-0.69
-0.695
-0.7
-0.72
-0.73
-0.73
-0.715
-0.7
-0.695
-0.68
-0.67
-0.695
-0.695
-0.705
-0.715
-0.725
-0.755
-0.735
-0.745
-0.735
-0.745
-0.725
-0.735
-0.735
-0.74
-0.74
-0.75
-0.745
-0.745
-0.745
-0.75
-0.75
-0.72
-0.74
-0.73
-0.735
-0.735
-0.76
-0.765
-0.77
-0.78
-0.775
-0.775
-0.765
-0.75
-0.745
-0.725
-0.745
-0.745
-0.76
-0.755
-0.76
-0.755
-0.77
-0.75
-0.725
-0.71
-0.71
-0.7
-0.715
-0.74
-0.765
-0.775
-0.76
-0.745
-0.735
-0.73
-0.735
-0.725
-0.71
-0.7
-0.715
-0.705
-0.705
-0.72
-0.735
-0.72
-0.75
-0.735
-0.72
-0.695
-0.66
-0.63
-0.635
-0.61
-0.61
-0.615
-0.625
-0.625
-0.615
-0.6
-0.565
-0.53
-0.52
-0.49
-0.485
-0.475
-0.495
-0.515
-0.555
-0.57
-0.58
-0.57
-0.55
-0.52
-0.51
-0.505
-0.505
-0.52
-0.535
-0.56
-0.59
-0.625
-0.665
-0.68
-0.69
-0.7
-0.675
-0.685
-0.72
-0.735
-0.78
-0.785
-0.81
-0.79
-0.8
-0.78
-0.76
-0.74
-0.74
-0.755
-0.775
-0.81
-0.82
-0.81
-0.8
-0.8
-0.805
-0.81
-0.785
-0.785
-0.78
-0.78
-0.795
-0.795
-0.785
-0.79
-0.795
-0.79
-0.79
-0.78
-0.775
-0.79
-0.8
-0.805
-0.8
-0.77
-0.71
-0.63
-0.535
-0.4
-0.26
-0.145
-0.055
-0.03
-0.045
-0.055
-0.03
0.065
0.225
0.37
0.465
0.43
0.17
-0.27
-0.75
-1.215
-1.575
-1.78
-1.895
-1.93
-1.94
-1.975
-1.98
-2.015
-2.03
-2.04
-2.025
-2.04
-1.995
-1.97
-1.96
-1.925
-1.905
-1.83
-1.76
-1.635
-1.51
-1.365
-1.235
-1.13
-1.035
-0.965
-0.895
-0.895
-0.88
-0.895
-0.885
-0.865
-0.855
-0.84
-0.83
-0.84
-0.84
-0.825
-0.825
-0.81
-0.815
-0.84
-0.845
-0.84
-0.845
-0.86
-0.85
-0.855
-0.845
-0.835
-0.85
-0.855
-0.885
-0.89
-0.905
-0.905
-0.95
-0.94
-0.95
-0.935
-0.94
-0.96
-0.965
-0.985
-1.0
-1.015
-1.01
-1.01
-1.03
-1.04
-1.025
-1.025
-1.02
-1.005
-1.02
-1.05
-1.065
-1.085
-1.085
-1.065
-1.055
-1.04
-1.02
-1.035
-1.025
-0.995
-0.99
-0.985
-0.98
-0.965
-0.975
-0.95
-0.935
-0.91
-0.875
-0.86
-0.84
-0.82
-0.82
-0.835
-0.815
-0.825
-0.82
-0.8
-0.795
-0.785
-0.77
-0.76
-0.745
-0.725
-0.73
-0.735
-0.73
-0.73
-0.74
-0.735
-0.74
-0.72
-0.7
-0.7
-0.705
-0.7
-0.725
-0.735
-0.745
-0.755
-0.76
-0.75
-0.76
-0.745
-0.725
-0.715
-0.725
-0.705
-0.7
-0.705
-0.72
-0.75
-0.76
-0.795
-0.8
-0.795
-0.78
-0.775
-0.765
-0.75
-0.75
-0.75
-0.75
-0.76
-0.775
-0.8
-0.82
-0.835
-0.815
-0.785
-0.77
-0.75
-0.745
-0.75
-0.75
-0.775
-0.785
-0.8
-0.795
-0.79
-0.775
-0.77
-0.76
-0.755
-0.75
-0.75
-0.75
-0.765
-0.775
-0.775
-0.79
-0.8
-0.78
-0.77
-0.735
-0.725
-0.73
-0.735
-0.735
-0.735
-0.76
-0.775
-0.78
-0.8
-0.765
-0.725
-0.715
-0.7
-0.71
-0.715
-0.74
-0.73
-0.725
-0.715
-0.705
-0.685
-0.67
-0.66
-0.655
-0.65
-0.625
-0.605
-0.6
-0.605
-0.575
-0.59
-0.585
-0.565
-0.535
-0.52
-0.54
-0.53
-0.56
-0.6
-0.63
-0.655
-0.645
-0.605
-0.575
-0.55
-0.515
-0.52
-0.525
-0.57
-0.625
-0.665
-0.69
-0.71
-0.725
-0.745
-0.775
-0.79
-0.805
-0.79
-0.78
-0.775
-0.78
-0.78
-0.79
-0.8
-0.815
-0.81
-0.81
-0.83
-0.81
-0.805
-0.805
-0.79
-0.84
-0.82
-0.81
-0.82
-0.795
-0.79
-0.795
-0.83
-0.835
-0.82
-0.805
-0.79
-0.79
-0.775
-0.765
-0.79
-0.805
-0.825
-0.85
-0.85
-0.83
-0.79
-0.72
-0.62
-0.49
-0.325
-0.19
-0.075
-0.05
-0.07
-0.125
-0.13
-0.095
0.06
0.25
0.415
0.455
0.29
-0.09
-0.615
-1.14
-1.555
-1.825
-1.975
-2.035
-2.04
-2.04
-2.045
-2.045
-2.06
-2.055
-2.06
-2.045
-2.07
-2.04
-2.03
-1.97
-1.88
-1.79
-1.655
-1.53
-1.385
-1.265
-1.15
-1.08
-1.015
-0.985
-0.96
-0.925
-0.895
-0.87
-0.845
-0.84
-0.84
-0.86
-0.875
-0.875
-0.865
-0.875
-0.845
-0.855
-0.835
-0.82
-0.805
-0.805
-0.815
-0.82
-0.845
-0.87
-0.88
-0.9
-0.91
-0.88
-0.87
-0.88
-0.885
-0.885
-0.92
-0.955
-0.96
-0.955
-0.965
-0.96
-0.99
-1.0
-0.99
-0.995
-0.985
-0.985
-1.01
-1.04
-1.04
-1.065
-1.06
-1.05
-1.035
-1.055
-1.045
-1.055
-1.035
-1.03
-1.025
-1.01
-1.0
-1.005
-1.005
-1.005
-1.0
-0.985
-0.965
-0.905
-0.875
-0.865
-0.865
-0.865
-0.865
-0.845
-0.85
-0.825
-0.82
-0.795
-0.785
-0.75
-0.745
-0.755
-0.77
-0.755
-0.75
-0.735
-0.72
-0.72
-0.7
-0.69
-0.68
-0.69
-0.68
-0.68
-0.685
-0.7
-0.715
-0.72
-0.72
-0.715
-0.69
-0.705
-0.71
-0.695
-0.705
-0.725
-0.72
-0.72
-0.73
-0.74
-0.735
-0.745
-0.745
-0.76
-0.72
-0.71
-0.7
-0.695
-0.71
-0.715
-0.74
-0.74
-0.745
-0.76
-0.765
-0.775
-0.77
-0.75
-0.72
-0.71
-0.71
-0.725
-0.74
-0.77
-0.785
-0.785
-0.79
-0.775
-0.755
-0.74
-0.73
-0.715
-0.72
-0.72
-0.74
-0.74
-0.755
-0.755
-0.73
-0.725
-0.72
-0.72
-0.725
-0.72
-0.715
-0.725
-0.735
-0.735
-0.73
-0.735
-0.725
-0.72
-0.715
-0.705
-0.685
-0.7
-0.7
-0.705
-0.72
-0.725
-0.71
-0.725
-0.73
-0.72
-0.705
-0.665
-0.635
-0.63
-0.63
-0.635
-0.63
-0.61
-0.605
-0.605
-0.605
-0.59
-0.565
-0.54
-0.505
-0.475
-0.485
-0.485
-0.53
-0.555
-0.585
-0.595
-0.59
-0.575
-0.565
-0.54
-0.515
-0.51
-0.505
-0.53
-0.55
-0.565
-0.63
-0.66
-0.705
-0.71
-0.71
-0.71
-0.72
-0.725
-0.745
-0.775
-0.78
-0.79
-0.795
-0.79
-0.775
-0.775
-0.78
-0.775
-0.755
-0.735
-0.745
-0.77
-0.78
-0.805
-0.81
-0.81
-0.795
-0.77
-0.765
-0.775
-0.785
-0.79
-0.79
-0.77
-0.78
-0.795
-0.79
-0.785
-0.775
-0.78
-0.765
-0.77
-0.775
-0.755
-0.71
-0.635
-0.495
-0.345
-0.185
-0.08
-0.01
-0.015
-0.04
-0.06
-0.01
0.11
0.285
0.43
0.495
0.395
0.095
-0.365
-0.885
-1.335
-1.65
-1.825
-1.91
-1.915
-1.93
-1.94
-1.97
-1.99
-2.02
-2.025
-2.03
-2.015
-1.98
-1.955
-1.905
-1.855
-1.825
-1.755
-1.665
-1.53
-1.385
-1.225
-1.095
-0.99
-0.93
-0.9
-0.89
-0.88
-0.885
-0.865
-0.86
-0.85
-0.855
-0.855
-0.86
-0.83
-0.81
-0.82
-0.815
-0.805
-0.8
-0.795
-0.785
-0.795
-0.815
-0.815
-0.83
-0.835
-0.855
-0.86
-0.88
-0.88
-0.855
-0.875
-0.88
-0.895
-0.935
-0.955
-0.96
-0.96
-0.945
-0.94
-0.93
-0.94
-0.96
-0.985
-1.01
-1.01
-1.02
-1.03
-1.035
-1.025
-1.015
-1.005
-1.01
-1.02
-1.015
-1.025
-1.045
-1.05
-1.035
-1.015
-0.975
-0.935
-0.91
-0.89
-0.895
-0.87
-0.87
-0.875
-0.88
-0.85
-0.855
-0.835
-0.795
-0.785
-0.76
-0.75
-0.725
-0.715
-0.7
-0.695
-0.7
-0.695
-0.71
-0.705
-0.695
-0.69
-0.685
-0.715
-0.685
-0.695
-0.68
-0.66
-0.655
-0.65
-0.665
-0.685
-0.69
-0.69
-0.68
-0.685
-0.675
-0.68
-0.67
-0.7
-0.705
-0.705
-0.71
-0.725
-0.705
-0.7
-0.715
-0.7
-0.69
-0.695
-0.7
-0.715
-0.725
-0.71
-0.72
-0.735
-0.74
-0.73
-0.72
-0.715
-0.7
-0.715
-0.72
-0.715
-0.705
-0.715
-0.72
-0.715
-0.715
-0.71
-0.7
-0.705
-0.68
-0.69
-0.675
-0.685
-0.68
-0.69
-0.72
-0.73
-0.725
-0.735
-0.705
-0.695
-0.68
-0.67
-0.66
-0.665
-0.665
-0.68
-0.69
-0.71
-0.705
-0.7
-0.69
-0.665
-0.665
-0.665
-0.675
-0.66
-0.665
-0.67
-0.67
-0.675
-0.67
-0.655
-0.645
-0.63
-0.61
-0.58
-0.57
-0.565
-0.575
-0.58
-0.565
-0.54
-0.505
-0.475
-0.46
-0.455
-0.465
-0.475
-0.495
-0.51
-0.55
-0.565
-0.57
-0.555
-0.535
-0.5
-0.48
-0.47
-0.465
-0.475
-0.51
-0.56
-0.6
-0.625
-0.675
-0.69
-0.705
-0.69
-0.7
-0.71
-0.71
-0.71
-0.715
-0.725
-0.735
-0.74
-0.775
-0.79
-0.8
-0.785
-0.76
-0.74
-0.72
-0.725
-0.74
-0.77
-0.785
-0.795
-0.79
-0.805
-0.775
-0.755
-0.745
-0.76
-0.74
-0.745
-0.74
-0.76
-0.77
-0.78
-0.775
-0.79
-0.77
-0.78
-0.78
-0.75
-0.74
-0.695
-0.62
-0.505
-0.355
-0.205
-0.065
0.03
0.045
0.03
0.01
0.02
0.09
0.215
0.395
0.51
0.525
0.375
0.04
-0.465
-0.965
-1.39
-1.69
-1.845
-1.925
-1.94
-1.965
-1.98
-2.0
-2.02
-2.035
-2.045
-2.03
-2.02
-1.995
-1.97
-1.945
-1.895
-1.865
-1.795
-1.68
-1.545
-1.395
-1.255
-1.16
-1.04
-0.985
-0.94
-0.905
-0.88
-0.87
-0.86
-0.855
-0.865
-0.88
-0.885
-0.88
-0.875
-0.855
-0.835
-0.815
-0.805
-0.815
-0.815
-0.83
-0.84
-0.86
-0.855
-0.87
-0.86
-0.85
-0.84
-0.84
-0.84
-0.865
-0.875
-0.89
-0.905
-0.91
-0.935
-0.945
-0.94
-0.93
-0.95
-0.945
-0.94
-0.97
-0.98
-1.005
-1.005
-1.02
-1.025
-1.035
-1.04
-1.035
-1.03
-1.045
-1.04
-1.055
-1.055
-1.065
-1.07
-1.05
-1.055
-1.03
-1.03
-1.015
-1.005
-1.0
-0.975
-0.995
-0.995
-0.975
-0.975
-0.955
-0.94
-0.935
-0.91
-0.875
-0.85
-0.81
-0.8
-0.795
-0.8
-0.815
-0.82
-0.81
-0.8
-0.795
-0.785
-0.785
-0.77
-0.765
-0.745
-0.725
-0.715
-0.715
-0.705
-0.71
-0.735
-0.74
-0.73
-0.74
-0.725
-0.715
-0.7
-0.72
-0.71
-0.715
-0.715
-0.725
-0.735
-0.73
-0.745
-0.735
-0.735
-0.715
-0.71
-0.74
-0.74
-0.75
-0.745
-0.77
-0.76
-0.765
-0.765
-0.765
-0.755
-0.73
-0.73
-0.74
-0.76
-0.775
-0.785
-0.785
-0.785
-0.795
-0.78
-0.765
-0.745
-0.735
-0.725
-0.72
-0.725
-0.745
-0.76
-0.795
-0.805
-0.8
-0.79
-0.765
-0.745
-0.73
-0.735
-0.735
-0.735
-0.745
-0.765
-0.765
-0.755
-0.755
-0.755
-0.775
-0.765
-0.765
-0.755
-0.765
-0.77
-0.755
-0.78
-0.775
-0.78
-0.78
-0.765
-0.735
-0.725
-0.715
-0.725
-0.72
-0.73
-0.735
-0.735
-0.74
-0.73
-0.72
-0.715
-0.695
-0.7
-0.7
-0.67
-0.665
-0.64
-0.64
-0.645
-0.65
-0.655
-0.635
-0.6
-0.57
-0.555
-0.54
-0.535
-0.545
-0.55
-0.56
-0.55
-0.575
-0.59
-0.6
-0.615
-0.6
-0.59
-0.56
-0.53
-0.525
-0.515
-0.545
-0.59
-0.645
-0.705
-0.725
-0.75
-0.75
-0.74
-0.735
-0.735
-0.75
-0.78
-0.785
-0.79
-0.81
-0.82
-0.82
-0.82
-0.82
-0.805
-0.795
-0.78
-0.78
-0.78
-0.795
-0.8
-0.795
-0.81
-0.795
-0.81
-0.79
-0.825
-0.8
-0.805
-0.81
-0.79
-0.81
-0.81
-0.84
-0.83
-0.8
-0.78
-0.77
-0.765
-0.775
-0.775
-0.785
-0.76
-0.69
-0.56
-0.41
-0.265
-0.12
-0.035
-0.025
-0.05
-0.08
-0.055
0.035
0.185
0.375
0.475
0.46
0.27
-0.15
-0.66
-1.17
-1.575
-1.835
-1.94
-2.0
-2.005
-2.005
-2.01
-2.04
-2.04
-2.04
-2.02
-2.03
-1.995
-1.965
-1.925
-1.83
-1.745
-1.64
-1.52
-1.39
-1.27
-1.175
-1.085
-1.015
-0.98
-0.96
-0.945
-0.92
-0.92
-0.89
-0.875
-0.88
-0.885
-0.89
-0.875
-0.875
-0.87
-0.85
-0.845
-0.82
-0.815
-0.82
-0.845
-0.87
-0.915
-0.925
-0.92
-0.89
-0.86
-0.865
-0.86
-0.865
-0.895
-0.91
-0.935
-0.925
-0.94
-0.95
-0.97
-0.99
-1.0
-1.005
-1.0
-0.995
-1.01
-1.005
-1.015
-1.045
-1.07
-1.065
-1.065
-1.05
-1.07
-1.06
-1.06
-1.065
-1.08
-1.11
-1.095
-1.09
-1.06
-1.055
-1.045
-1.025
-1.05
-1.035
-1.015
-0.99
-0.985
-0.985
-0.97
-0.945
-0.945
-0.94
-0.905
-0.885
-0.87
-0.815
-0.795
-0.8
-0.8
-0.815
-0.82
-0.84
-0.83
-0.825
-0.805
-0.79
-0.775
-0.75
-0.73
-0.72
-0.74
-0.745
-0.765
-0.75
-0.755
-0.73
-0.735
-0.725
-0.725
-0.73
-0.74
-0.735
-0.75
-0.75
-0.745
-0.75
-0.755
-0.76
-0.76
-0.77
-0.75
-0.76
-0.755
-0.755
-0.76
-0.76
-0.785
-0.805
-0.815
-0.83
-0.81
-0.8
-0.8
-0.795
-0.815
-0.81
-0.79
-0.8
-0.805
-0.825
-0.835
-0.835
-0.82
-0.805
-0.815
-0.81
-0.795
-0.785
-0.79
-0.82
-0.84
-0.845
-0.85
-0.84
-0.815
-0.79
-0.77
-0.775
-0.765
-0.775
-0.785
-0.8
-0.81
-0.815
-0.84
-0.805
-0.8
-0.775
-0.78
-0.765
-0.75
-0.75
-0.77
-0.765
-0.785
-0.785
-0.805
-0.8
-0.805
-0.795
-0.77
-0.755
-0.73
-0.72
-0.72
-0.715
-0.72
-0.73
-0.705
-0.685
-0.69
-0.695
-0.68
-0.67
-0.65
-0.62
-0.59
-0.57
-0.56
-0.56
-0.575
-0.57
-0.6
-0.615
-0.63
-0.64
-0.65
-0.635
-0.61
-0.595
-0.565
-0.58
-0.58
-0.615
-0.63
-0.655
-0.68
-0.715
-0.755
-0.79
-0.79
-0.795
-0.79
-0.79
-0.81
-0.83
-0.84
-0.84
-0.835
-0.815
-0.81
-0.81
-0.82
-0.835
-0.86
-0.865
-0.895
-0.9
-0.9
-0.89
-0.86
-0.84
-0.82
-0.81
-0.82
-0.845
-0.855
-0.875
-0.88
-0.88
-0.9
-0.895
-0.875
-0.84
-0.825
-0.83
-0.835
-0.84
-0.865
-0.88
-0.875
-0.84
-0.77
-0.665
-0.55
-0.39
-0.27
-0.19
-0.125
-0.11
-0.16
-0.185
-0.16
-0.055
0.11
0.29
0.435
0.43
0.225
-0.205
-0.735
-1.25
-1.67
-1.945
-2.06
-2.1
-2.105
-2.085
-2.08
-2.08
-2.06
-2.075
-2.08
-2.085
-2.085
-2.06
-2.055
-1.99
-1.92
-1.815
-1.675
-1.505
-1.35
-1.23
-1.125
-1.065
-1.045
-1.045
-1.025
-1.0
-0.97
-0.94
-0.915
-0.89
-0.885
-0.885
-0.905
-0.915
-0.93
-0.915
-0.92
-0.91
-0.9
-0.905
-0.91
-0.915
-0.91
-0.905
-0.905
-0.915
-0.93
-0.95
-0.99
-1.0
-1.0
-1.0
-0.985
-0.975
-0.97
-0.985
-1.01
-1.05
-1.07
-1.07
-1.065
-1.06
-1.09
-1.105
-1.1
-1.095
-1.095
-1.09
-1.095
-1.105
-1.125
-1.125
-1.125
-1.115
-1.105
-1.1
-1.095
-1.095
-1.095
-1.1
-1.1
-1.11
-1.065
-1.05
-1.035
-1.035
-1.01
-0.985
-0.96
-0.935
-0.91
-0.89
-0.88
-0.88
-0.89
-0.915
-0.91
-0.9
-0.885
-0.865
-0.825
-0.815
-0.775
-0.795
-0.795
-0.8
-0.805
-0.815
-0.83
-0.825
-0.82
-0.805
-0.79
-0.775
-0.76
-0.765
-0.765
-0.78
-0.775
-0.8
-0.805
-0.81
-0.815
-0.805
-0.79
-0.79
-0.78
-0.805
-0.805
-0.795
-0.795
-0.795
-0.81
-0.84
-0.84
-0.86
-0.845
-0.83
-0.81
-0.815
-0.82
-0.825
-0.815
-0.825
-0.825
-0.83
-0.85
-0.835
-0.83
-0.83
-0.835
-0.815
-0.82
-0.825
-0.84
-0.835
-0.845
-0.84
-0.85
-0.825
-0.82
-0.795
-0.775
-0.765
-0.78
-0.79
-0.795
-0.815
-0.83
-0.85
-0.85
-0.83
-0.82
-0.79
-0.78
-0.775
-0.785
-0.81
-0.835
-0.84
-0.84
-0.82
-0.805
-0.8
-0.785
-0.77
-0.765
-0.775
-0.785
-0.79
-0.79
-0.79
-0.775
-0.76
-0.765
-0.74
-0.705
-0.69
-0.67
-0.685
-0.69
-0.705
-0.71
-0.69
-0.655
-0.615
-0.585
-0.565
-0.565
-0.575
-0.595
-0.62
-0.645
-0.65
-0.675
-0.66
-0.65
-0.6
-0.59
-0.555
-0.575
-0.59
-0.62
-0.67
-0.715
-0.75
-0.78
-0.79
-0.795
-0.8
-0.815
-0.815
-0.82
-0.84
-0.84
-0.865
-0.855
-0.845
-0.84
-0.84
-0.83
-0.845
-0.875
-0.89
-0.875
-0.87
-0.86
-0.845
-0.83
-0.845
-0.86
-0.875
-0.855
-0.865
-0.85
-0.84
-0.835
-0.83
-0.82
-0.825
-0.85
-0.85
-0.87
-0.88
-0.875
-0.89
-0.87
-0.815
-0.725
-0.57
-0.4
-0.22
-0.07
0.02
0.04
0.005
-0.03
-0.04
0.015
0.155
0.3
0.405
0.38
0.135
-0.29
-0.82
-1.33
-1.725
-1.97
-2.09
-2.145
-2.155
-2.1
-2.08
-2.07
-2.07
-2.08
-2.09
-2.1
-2.08
-2.05
-2.0
-1.94
-1.84
-1.715
-1.555
-1.425
-1.28
-1.175
-1.095
-1.045
-1.025
-1.015
-1.01
-0.995
-0.985
-0.96
-0.94
-0.94
-0.92
-0.925
-0.915
-0.915
-0.915
-0.925
-0.925
-0.93
-0.935
-0.915
-0.925
-0.9
-0.905
-0.925
-0.94
-0.945
-0.965
-0.97
-0.985
-1.005
-0.99
-1.0
-1.01
-1.005
-1.025
-1.045
-1.05
-1.06
-1.06
-1.07
-1.075
-1.095
-1.09
-1.095
-1.095
-1.1
-1.105
-1.11
-1.125
-1.14
-1.15
-1.16
-1.155
-1.16
-1.155
-1.135
-1.11
-1.1
-1.095
-1.095
-1.09
-1.085
-1.1
-1.09
-1.06
-1.045
-1.025
-1.01
-0.965
-0.95
-0.925
-0.91
-0.905
-0.89
-0.875
-0.87
