Lead II
-0.79
-0.78
-0.795
-0.855
-0.87
-0.86
-0.8
-0.78
-0.775
-0.785
-0.78
-0.775
-0.775
-0.765
-0.785
-0.81
-0.81
-0.79
-0.765
-0.755
-0.765
-0.78
-0.79
-0.775
-0.76
-0.735
-0.745
-0.755
-0.775
-0.755
-0.74
-0.735
-0.76
-0.8
-0.82
-0.8
-0.785
-0.77
-0.755
-0.765
-0.76
-0.755
-0.73
-0.73
-0.725
-0.705
-0.72
-0.705
-0.695
-0.705
-0.69
-0.705
-0.695
-0.685
-0.68
-0.665
-0.685
-0.69
-0.685
-0.68
-0.665
-0.66
-0.665
-0.67
-0.67
-0.675
-0.645
-0.635
-0.615
-0.63
-0.64
-0.65
-0.615
-0.56
-0.505
-0.415
-0.225
0.155
0.755
1.365
1.8
1.975
1.955
1.9
1.855
1.795
1.74
1.65
1.555
1.485
1.43
1.365
1.275
1.165
1.05
0.93
0.825
0.7
0.585
0.445
0.3
0.125
-0.015
-0.18
-0.345
-0.485
-0.62
-0.75
-0.89
-0.985
-1.08
-1.155
-1.205
-1.22
-1.235
-1.285
-1.395
-1.54
-1.695
-1.83
-1.94
-2.045
-2.16
-2.29
-2.37
-2.35
-2.22
-2.065
-1.92
-1.805
-1.725
-1.645
-1.565
-1.505
-1.47
-1.43
-1.425
-1.42
-1.365
-1.315
-1.26
-1.235
-1.23
-1.225
-1.195
-1.13
-1.06
-0.98
-0.91
-0.84
-0.77
-0.695
-0.635
-0.565
-0.485
-0.4
-0.29
-0.22
-0.165
-0.13
-0.11
-0.07
-0.03
0.0
0.015
0.015
0.035
0.065
0.1
0.115
0.1
0.06
0.035
0.025
0.025
0.04
0.03
0.02
0.02
0.015
0.03
0.045
0.045
0.04
0.025
0.035
0.065
0.09
0.125
0.145
0.135
0.125
0.135
0.17
0.185
0.205
0.21
0.245
0.27
0.295
0.295
0.31
0.325
0.335
0.365
0.39
0.4
0.39
0.39
0.395
0.4
0.41
0.39
0.395
0.39
0.39
0.4
0.39
0.375
0.34
0.315
0.295
0.28
0.26
0.24
0.215
0.17
0.16
0.155
0.165
0.125
0.095
0.04
0.005
-0.025
-0.055
-0.1
-0.145
-0.195
-0.245
-0.285
-0.33
-0.38
-0.42
-0.495
-0.545
-0.57
-0.575
-0.58
-0.6
-0.615
-0.64
-0.665
-0.68
-0.705
-0.72
-0.72
-0.74
-0.75
-0.745
-0.765
-0.775
-0.79
-0.8
-0.805
-0.81
-0.82
-0.825
-0.85
-0.855
-0.855
-0.85
-0.855
-0.84
-0.85
-0.845
-0.845
-0.84
-0.85
-0.87
-0.885
-0.9
-0.89
-0.875
-0.865
-0.85
-0.87
-0.865
-0.87
-0.88
-0.88
-0.88
-0.885
-0.88
-0.85
-0.835
-0.845
-0.83
-0.85
-0.85
-0.835
-0.82
-0.8
-0.775
-0.78
-0.8
-0.81
-0.805
-0.81
-0.795
-0.795
-0.8
-0.79
-0.78
-0.775
-0.785
-0.79
-0.785
-0.775
-0.765
-0.78
-0.785
-0.805
-0.815
-0.805
-0.79
-0.785
-0.795
-0.8
-0.805
-0.775
-0.77
-0.76
-0.77
-0.77
-0.77
-0.775
-0.775
-0.78
-0.79
-0.785
-0.78
-0.78
-0.765
-0.775
-0.79
-0.775
-0.765
-0.75
-0.74
-0.765
-0.785
-0.785
-0.785
-0.77
-0.76
-0.765
-0.765
-0.76
-0.76
-0.745
-0.74
-0.735
-0.735
-0.755
-0.75
-0.735
-0.69
-0.69
-0.71
-0.745
-0.76
-0.76
-0.75
-0.735
-0.735
-0.735
-0.74
-0.735
-0.705
-0.69
-0.675
-0.695
-0.72
-0.73
-0.735
-0.73
-0.715
-0.69
-0.67
-0.625
-0.555
-0.455
-0.255
0.14
0.775
1.41
1.88
2.0
1.97
1.905
1.865
1.835
1.78
1.69
1.6
1.51
1.45
1.395
1.33
1.25
1.145
1.035
0.915
0.81
0.7
0.58
0.43
0.29
0.125
-0.07
-0.25
-0.415
-0.59
-0.73
-0.83
-0.925
-0.985
-1.065
-1.105
-1.16
-1.245
-1.36
-1.49
-1.645
-1.82
-1.97
-2.105
-2.24
-2.35
-2.445
-2.455
-2.35
-2.19
-2.02
-1.855
-1.72
-1.615
-1.57
-1.56
-1.53
-1.52
-1.505
-1.505
-1.485
-1.45
-1.42
-1.425
-1.435
-1.445
-1.45
-1.42
-1.335
-1.255
-1.195
-1.145
-1.105
-1.06
-0.99
-0.94
-0.885
-0.825
-0.755
-0.68
-0.605
-0.555
-0.535
-0.51
-0.5
-0.495
-0.475
-0.465
-0.435
-0.425
-0.405
-0.385
-0.355
-0.355
-0.375
-0.38
-0.375
-0.355
-0.32
-0.29
-0.27
-0.27
-0.27
-0.25
-0.215
-0.185
-0.14
-0.12
-0.11
-0.11
-0.1
-0.07
-0.055
-0.025
-0.005
0.03
0.075
0.12
0.15
0.19
0.195
0.22
0.24
0.275
0.285
0.31
0.33
0.355
0.375
0.39
0.39
0.38
0.38
0.365
0.385
0.38
0.385
0.385
0.375
0.36
0.375
0.365
0.355
0.345
0.305
0.305
0.295
0.26
0.2
0.15
0.13
0.115
0.11
0.085
0.04
0.01
-0.025
-0.075
-0.125
-0.17
-0.22
-0.26
-0.295
-0.325
-0.36
-0.405
-0.435
-0.485
-0.52
-0.545
-0.56
-0.55
-0.58
-0.625
-0.665
-0.705
-0.715
-0.715
-0.725
-0.72
-0.735
-0.735
-0.73
-0.715
-0.73
-0.755
-0.795
-0.81
-0.82
-0.825
-0.825
-0.82
-0.815
-0.81
-0.82
-0.815
-0.805
-0.815
-0.82
-0.815
-0.81
-0.805
-0.8
-0.84
-0.855
-0.885
-0.88
-0.865
-0.84
-0.845
-0.84
-0.84
-0.83
-0.84
-0.86
-0.875
-0.885
-0.86
-0.83
-0.81
-0.795
-0.8
-0.805
-0.82
-0.83
-0.83
-0.82
-0.795
-0.79
-0.785
-0.785
-0.8
-0.815
-0.825
-0.805
-0.8
-0.77
-0.755
-0.755
-0.755
-0.755
-0.755
-0.745
-0.75
-0.74
-0.75
-0.755
-0.745
-0.745
-0.745
-0.775
-0.78
-0.78
-0.8
-0.795
-0.8
-0.8
-0.805
-0.81
-0.81
-0.815
-0.795
-0.77
-0.75
-0.755
-0.765
-0.77
-0.785
-0.785
-0.775
-0.785
-0.805
-0.795
-0.79
-0.765
-0.735
-0.72
-0.7
-0.655
-0.615
-0.58
-0.575
-0.58
-0.57
-0.545
-0.485
-0.445
-0.42
-0.41
-0.38
-0.39
-0.42
-0.42
-0.44
-0.465
-0.455
-0.445
-0.45
-0.475
-0.505
-0.505
-0.49
-0.47
-0.435
-0.445
-0.48
-0.52
-0.545
-0.56
-0.565
-0.565
-0.56
-0.57
-0.565
-0.545
-0.505
-0.41
-0.215
0.175
0.785
1.42
1.85
2.005
1.99
1.905
1.84
1.795
1.735
1.64
1.54
1.435
1.35
1.285
1.205
1.105
0.965
0.835
0.7
0.585
0.46
0.33
0.19
0.035
-0.1
-0.24
-0.38
-0.515
-0.655
-0.81
-0.925
-1.01
-1.06
-1.115
-1.175
-1.245
-1.315
-1.415
-1.55
-1.715
-1.83
-1.945
-2.07
-2.185
-2.29
-2.36
-2.355
-2.295
-2.16
-1.98
-1.82
-1.695
-1.595
-1.545
-1.54
-1.525
-1.51
-1.485
-1.47
-1.475
-1.495
-1.505
-1.5
-1.485
-1.45
-1.42
-1.37
-1.31
-1.235
-1.17
-1.155
-1.13
-1.065
-1.01
-0.925
-0.865
-0.795
-0.74
-0.675
-0.59
-0.52
-0.47
-0.435
-0.425
-0.415
-0.39
-0.385
-0.365
-0.34
-0.32
-0.3
-0.28
-0.275
-0.265
-0.24
-0.23
-0.205
-0.19
-0.15
-0.115
-0.095
-0.1
-0.09
-0.05
-0.005
0.045
0.04
0.045
0.055
0.085
0.135
0.18
0.215
0.24
0.27
0.305
0.34
0.355
0.365
0.38
0.405
0.43
0.45
0.455
0.47
0.455
0.465
0.495
0.51
0.52
0.515
0.535
0.525
0.53
0.52
0.505
0.48
0.44
0.43
0.44
0.45
0.44
0.42
0.375
0.335
0.33
0.3
0.27
0.235
0.19
0.14
0.1
0.065
0.03
-0.005
-0.065
-0.125
-0.175
-0.19
-0.24
-0.3
-0.375
-0.425
-0.445
-0.465
-0.48
-0.51
-0.525
-0.545
-0.565
-0.575
-0.615
-0.625
-0.64
-0.65
-0.655
-0.695
-0.7
-0.725
-0.745
-0.74
-0.74
-0.745
-0.735
-0.72
-0.715
-0.72
-0.705
-0.69
-0.67
-0.68
-0.71
-0.75
-0.78
-0.79
-0.805
-0.81
-0.815
-0.805
-0.775
-0.76
-0.765
-0.775
-0.765
-0.755
-0.725
-0.715
-0.715
-0.72
-0.725
-0.745
-0.755
-0.745
-0.74
-0.71
-0.7
-0.665
-0.65
-0.62
-0.585
-0.56
-0.545
-0.535
-0.49
-0.465
-0.435
-0.41
-0.38
-0.345
-0.325
-0.335
-0.385
-0.425
-0.44
-0.455
-0.45
-0.43
-0.4
-0.39
-0.405
-0.435
-0.43
-0.42
-0.435
-0.445
-0.48
-0.51
-0.52
-0.525
-0.555
-0.58
-0.62
-0.65
-0.68
-0.67
-0.67
-0.685
-0.71
-0.74
-0.745
-0.755
-0.77
-0.775
-0.795
-0.795
-0.8
-0.805
-0.81
-0.805
-0.81
-0.815
-0.805
-0.79
-0.785
-0.795
-0.82
-0.825
-0.805
-0.785
-0.79
-0.79
-0.79
-0.8
-0.79
-0.77
-0.765
-0.775
-0.78
-0.765
-0.755
-0.75
-0.75
-0.75
-0.76
-0.77
-0.77
-0.765
-0.765
-0.79
-0.81
-0.815
-0.79
-0.75
-0.75
-0.73
-0.7
-0.675
-0.635
-0.54
-0.36
0.015
0.615
1.25
1.86
2.095
2.095
2.01
1.955
1.895
1.81
1.73
1.63
1.5
1.4
1.32
1.24
1.155
1.035
0.88
0.7
0.525
0.39
0.24
0.065
-0.125
-0.28
-0.42
-0.55
-0.69
-0.82
-0.935
-1.015
-1.055
-1.06
-1.07
-1.13
-1.27
-1.435
-1.635
-1.78
-1.895
-2.01
-2.12
-2.18
-2.15
-2.085
-2.0
-1.88
-1.74
-1.645
-1.575
-1.51
-1.46
-1.42
-1.4
-1.42
-1.41
-1.365
-1.305
-1.29
-1.31
-1.31
-1.285
-1.185
-1.11
-1.04
-0.985
-0.96
-0.92
-0.86
-0.775
-0.7
-0.615
-0.555
-0.505
-0.415
-0.34
-0.305
-0.295
-0.31
-0.325
-0.32
-0.295
-0.275
-0.275
-0.265
-0.25
-0.2
-0.15
-0.12
-0.125
-0.14
-0.155
-0.135
-0.105
-0.075
-0.055
-0.035
0.005
0.06
0.11
0.12
0.105
0.1
0.115
0.15
0.19
0.23
0.255
0.275
0.285
0.31
0.34
0.35
0.365
0.355
0.355
0.395
0.415
0.41
0.41
0.4
0.405
0.435
0.455
0.44
0.395
0.355
0.335
0.35
0.37
0.38
0.36
0.32
0.28
0.265
0.27
0.25
0.23
0.18
0.14
0.105
0.07
0.05
0.02
-0.035
-0.12
-0.18
-0.225
-0.225
-0.26
-0.265
-0.28
-0.27
-0.25
-0.245
-0.235
-0.235
-0.23
-0.22
-0.215
-0.245
-0.275
-0.29
-0.29
-0.28
-0.285
-0.32
-0.34
-0.39
-0.4
-0.405
-0.39
-0.39
-0.4
-0.415
-0.435
-0.44
-0.45
-0.49
-0.535
-0.565
-0.585
-0.59
-0.605
-0.64
-0.67
-0.68
-0.7
-0.72
-0.74
-0.755
-0.785
-0.79
-0.8
-0.795
-0.79
-0.805
-0.825
-0.825
-0.815
-0.795
-0.775
-0.775
-0.8
-0.8
-0.785
-0.755
-0.76
-0.79
-0.825
-0.84
-0.835
-0.81
-0.795
-0.805
-0.82
-0.83
-0.83
-0.81
-0.805
-0.82
-0.85
-0.86
-0.865
-0.84
-0.815
-0.805
-0.815
-0.815
-0.82
-0.8
-0.79
-0.765
-0.78
-0.81
-0.84
-0.845
-0.825
-0.825
-0.83
-0.82
-0.805
-0.8
-0.795
-0.81
-0.81
-0.84
-0.835
-0.81
-0.79
-0.78
-0.785
-0.79
-0.785
-0.78
-0.76
-0.735
-0.725
-0.72
-0.745
-0.745
-0.745
-0.73
-0.745
-0.78
-0.8
-0.795
-0.765
-0.755
-0.745
-0.75
-0.77
-0.755
-0.75
-0.725
-0.71
-0.705
-0.705
-0.71
-0.7
-0.69
-0.685
-0.68
-0.675
-0.66
-0.655
-0.665
-0.66
-0.635
-0.59
-0.51
-0.425
-0.315
-0.095
0.35
0.985
1.62
2.065
2.175
2.12
2.035
1.985
1.93
1.865
1.77
1.675
1.56
1.475
1.39
1.265
1.15
1.015
0.885
0.74
0.59
0.395
0.205
0.025
-0.13
-0.275
-0.41
-0.54
-0.685
-0.82
-0.91
-0.98
-1.04
-1.085
-1.15
-1.23
-1.36
-1.53
-1.71
-1.845
-1.96
-2.07
-2.165
-2.205
-2.15
-2.045
-1.915
-1.75
-1.6
-1.485
-1.43
-1.415
-1.39
-1.39
-1.38
-1.36
-1.335
-1.32
-1.315
-1.315
-1.305
-1.265
-1.185
-1.11
-1.045
-0.995
-0.955
-0.915
-0.835
-0.75
-0.665
-0.605
-0.56
-0.505
-0.43
-0.365
-0.32
-0.305
-0.295
-0.28
-0.245
-0.215
-0.19
-0.17
-0.185
-0.2
-0.215
-0.19
-0.15
-0.11
-0.1
-0.095
-0.065
-0.025
0.005
0.02
0.035
0.05
0.08
0.165
0.22
0.25
0.255
0.29
0.36
0.44
0.505
0.56
0.595
0.63
0.67
0.705
0.725
0.75
0.765
0.785
0.79
0.775
0.745
0.72
0.725
0.73
0.75
0.75
0.74
0.73
0.705
0.69
0.68
0.645
0.605
0.57
0.525
0.48
0.415
0.375
0.325
0.265
0.195
0.135
0.09
0.055
0.01
-0.05
-0.14
-0.23
-0.3
-0.36
-0.405
-0.435
-0.455
-0.49
-0.51
-0.555
-0.6
-0.63
-0.645
-0.665
-0.68
-0.685
-0.705
-0.72
-0.75
-0.77
-0.775
-0.775
-0.78
-0.78
-0.79
-0.82
-0.825
-0.82
-0.805
-0.81
-0.825
-0.85
-0.865
-0.87
-0.885
-0.89
-0.91
-0.915
-0.905
-0.89
-0.89
-0.905
-0.905
-0.905
-0.885
-0.88
-0.89
-0.895
-0.885
-0.885
-0.885
-0.885
-0.895
-0.905
-0.89
-0.885
-0.85
-0.83
-0.845
-0.85
-0.865
-0.88
-0.88
-0.855
-0.84
-0.84
-0.845
-0.855
-0.84
-0.84
-0.83
-0.84
-0.85
-0.835
-0.8
-0.785
-0.795
-0.805
-0.84
-0.845
-0.82
-0.805
-0.795
-0.815
-0.835
-0.855
-0.84
-0.825
-0.815
-0.8
-0.79
-0.785
-0.775
-0.77
-0.785
-0.785
-0.79
-0.79
-0.765
-0.74
-0.74
-0.74
-0.76
-0.785
-0.79
-0.775
-0.755
-0.755
-0.76
-0.77
-0.755
-0.745
-0.735
-0.755
-0.75
-0.735
-0.725
-0.72
-0.745
-0.755
-0.77
-0.76
-0.73
-0.715
-0.7
-0.695
-0.705
-0.705
-0.7
-0.695
-0.68
-0.685
-0.69
-0.675
-0.665
-0.655
-0.665
-0.68
-0.68
-0.675
-0.65
-0.625
-0.595
-0.575
-0.535
-0.465
-0.34
-0.125
0.305
0.935
1.57
2.01
2.16
2.13
2.055
1.975
1.9
1.815
1.715
1.615
1.53
1.415
1.3
1.205
1.105
1.01
0.88
0.74
0.58
0.425
0.265
0.1
-0.085
-0.29
-0.475
-0.635
-0.8
-0.945
-1.055
-1.16
-1.22
-1.27
-1.295
-1.355
-1.45
-1.58
-1.735
-1.885
-2.02
-2.15
-2.29
-2.42
-2.465
-2.42
-2.26
-2.06
-1.88
-1.725
-1.615
-1.52
-1.445
-1.405
-1.365
-1.31
-1.27
-1.25
-1.21
-1.19
-1.18
-1.145
-1.105
-1.045
-0.97
-0.89
-0.795
-0.735
-0.685
-0.65
-0.565
-0.485
-0.415
-0.345
-0.295
-0.24
-0.175
-0.115
-0.065
-0.025
0.035
0.07
0.09
0.08
0.065
0.035
0.025
0.025
0.065
0.085
0.085
0.045
0.025
0.005
0.02
0.04
0.045
0.055
0.065
0.055
0.085
0.105
0.13
0.145
0.175
0.18
0.215
0.245
0.255
0.265
0.26
0.285
0.305
0.34
0.375
0.385
0.4
0.415
0.44
0.465
0.48
0.5
0.5
0.505
0.515
0.51
0.495
0.49
0.485
0.485
0.495
0.485
0.455
0.43
0.42
0.395
0.38
0.38
0.39
0.375
0.34
0.29
0.265
0.235
0.21
0.16
0.12
0.08
0.03
-0.025
-0.075
-0.145
-0.215
-0.265
-0.3
-0.335
-0.375
-0.41
-0.43
-0.45
-0.465
-0.485
-0.51
-0.545
-0.59
-0.605
-0.605
-0.605
-0.63
-0.655
-0.7
-0.725
-0.715
-0.71
-0.695
-0.705
-0.715
-0.725
-0.74
-0.735
-0.745
-0.75
-0.755
-0.745
-0.725
-0.73
-0.755
-0.78
-0.8
-0.8
-0.785
-0.765
-0.77
-0.775
-0.78
-0.79
-0.775
-0.77
-0.76
-0.765
-0.785
-0.79
-0.79
-0.8
-0.8
-0.795
-0.805
-0.785
-0.76
-0.735
-0.73
-0.735
-0.745
-0.765
-0.75
-0.74
-0.725
-0.72
-0.71
-0.71
-0.69
-0.665
-0.66
-0.695
-0.705
-0.72
-0.72
-0.71
-0.695
-0.685
-0.67
-0.665
-0.68
-0.705
-0.715
-0.72
-0.715
-0.7
-0.695
-0.705
-0.725
-0.72
-0.705
-0.695
-0.68
-0.68
-0.685
-0.695
-0.695
-0.695
-0.705
-0.68
-0.675
-0.675
-0.665
-0.68
-0.67
-0.65
-0.65
-0.63
-0.62
-0.625
-0.655
-0.67
-0.7
-0.705
-0.69
-0.69
-0.675
-0.665
-0.665
-0.64
-0.64
-0.645
-0.65
-0.645
-0.64
-0.63
-0.615
-0.62
-0.63
-0.645
-0.645
-0.645
-0.655
-0.645
-0.635
-0.625
-0.625
-0.625
-0.63
-0.625
-0.6
-0.58
-0.57
-0.575
-0.585
-0.58
-0.555
-0.535
-0.54
-0.555
-0.565
-0.56
-0.515
-0.445
-0.37
-0.255
-0.02
0.465
1.1
1.735
2.115
2.24
2.215
2.15
2.12
2.08
2.025
1.955
1.875
1.785
1.72
1.655
1.59
1.495
1.405
1.3
1.22
1.125
0.98
0.8
0.595
0.395
0.21
0.03
-0.14
-0.325
-0.49
-0.675
-0.845
-0.97
-1.085
-1.145
-1.215
-1.275
-1.345
-1.45
-1.62
-1.775
-1.905
-2.005
-2.085
-2.185
-2.3
-2.415
-2.48
-2.435
-2.305
-2.145
-1.98
-1.83
-1.715
-1.62
-1.535
-1.48
-1.415
-1.37
-1.335
-1.325
-1.305
-1.29
-1.28
-1.28
-1.29
-1.26
-1.22
-1.16
-1.115
-1.065
-1.025
-0.985
-0.935
-0.905
-0.845
-0.795
-0.72
-0.64
-0.565
-0.515
-0.47
-0.415
-0.365
-0.325
-0.275
-0.24
-0.215
-0.215
-0.21
-0.18
-0.16
-0.14
-0.14
-0.13
-0.13
-0.095
-0.06
-0.065
-0.075
-0.08
-0.08
-0.04
0.0
0.04
0.07
0.105
0.125
0.145
0.19
0.245
0.285
0.31
0.335
0.36
0.395
0.44
0.48
0.505
0.53
0.535
0.57
0.62
0.63
0.635
0.65
0.665
0.68
0.71
0.73
0.73
0.73
0.745
0.755
0.775
0.78
0.755
0.75
0.735
0.755
0.76
0.74
0.705
0.65
0.61
0.595
0.565
0.53
0.495
0.45
0.42
0.4
0.38
0.34
0.26
0.205
0.15
0.095
0.04
-0.03
-0.085
-0.11
-0.125
-0.15
-0.17
-0.21
-0.25
-0.29
-0.34
-0.375
-0.395
-0.425
-0.45
-0.475
-0.51
-0.51
-0.53
-0.515
-0.535
-0.54
-0.56
-0.555
-0.55
-0.555
-0.565
-0.58
-0.58
-0.6
-0.6
-0.595
-0.62
-0.64
-0.665
-0.665
-0.645
-0.62
-0.605
-0.595
-0.61
-0.615
-0.625
-0.63
-0.66
-0.68
-0.67
-0.665
-0.65
-0.64
-0.66
-0.665
-0.64
-0.61
-0.575
-0.575
-0.6
-0.635
-0.645
-0.625
-0.585
-0.585
-0.615
-0.65
-0.655
-0.625
-0.605
-0.6
-0.6
-0.59
-0.58
-0.555
-0.545
-0.555
-0.57
-0.585
-0.595
-0.575
-0.555
-0.54
-0.535
-0.55
-0.58
-0.59
-0.59
-0.6
-0.605
-0.605
-0.585
-0.565
-0.555
-0.57
-0.59
-0.595
-0.605
-0.59
-0.565
-0.575
-0.585
-0.605
-0.62
-0.605
-0.59
-0.575
-0.56
-0.555
-0.535
-0.525
-0.5
-0.495
-0.49
-0.48
-0.455
-0.435
-0.415
-0.41
-0.4
-0.395
-0.38
-0.355
-0.315
-0.295
-0.27
-0.245
-0.24
-0.235
-0.255
-0.27
-0.3
-0.305
-0.3
-0.28
-0.255
-0.24
-0.255
-0.245
-0.25
-0.245
-0.26
-0.29
-0.34
-0.37
-0.385
-0.38
-0.385
-0.395
-0.43
-0.455
-0.465
-0.445
-0.445
-0.465
-0.485
-0.455
-0.405
-0.28
-0.07
0.34
0.96
1.59
2.04
2.235
2.235
2.165
2.115
2.06
1.99
1.92
1.835
1.755
1.66
1.575
1.5
1.45
1.39
1.315
1.21
1.08
0.905
0.745
0.575
0.44
0.33
0.21
0.08
-0.045
-0.145
-0.255
-0.375
-0.475
-0.54
-0.57
-0.62
-0.67
-0.705
-0.715
-0.735
-0.82
-0.915
-1.05
-1.205
-1.4
-1.565
-1.71
-1.82
-1.9
-1.905
-1.845
-1.75
-1.615
-1.525
-1.43
-1.375
-1.35
-1.345
-1.335
-1.305
-1.285
-1.275
-1.27
-1.27
-1.285
-1.305
-1.345
-1.34
-1.31
-1.24
-1.13
-1.03
-0.98
-0.97
-0.97
-0.93
-0.88
-0.8
-0.73
-0.66
-0.61
-0.525
-0.465
-0.395
-0.355
-0.345
-0.34
-0.32
-0.3
-0.28
-0.26
-0.245
-0.25
-0.21
-0.19
-0.17
-0.16
-0.145
-0.155
-0.155
-0.135
-0.11
-0.085
-0.08
-0.075
-0.055
-0.03
0.0
0.025
0.03
0.045
0.07
0.12
0.16
0.19
0.195
0.205
0.205
0.24
0.28
0.315
0.33
0.325
0.335
0.355
0.4
0.43
0.435
0.44
0.435
0.455
0.465
0.47
0.475
0.48
0.495
0.495
0.52
0.525
0.535
0.525
0.485
0.46
0.42
0.405
0.41
0.41
0.41
0.405
0.37
0.325
0.295
0.29
0.28
0.265
0.225
0.165
0.12
0.07
0.055
0.015
-0.015
-0.04
-0.085
-0.14
-0.21
-0.24
-0.27
-0.305
-0.34
-0.37
-0.38
-0.405
-0.42
-0.425
-0.455
-0.48
-0.495
-0.5
-0.49
-0.495
-0.535
-0.545
-0.56
-0.565
-0.55
-0.565
-0.57
-0.585
-0.595
-0.59
-0.58
-0.58
-0.56
-0.57
-0.58
-0.585
-0.59
-0.62
-0.645
-0.67
-0.655
-0.625
-0.615
-0.615
-0.6
-0.61
-0.615
-0.605
-0.595
-0.595
-0.6
-0.615
-0.615
-0.585
-0.555
-0.535
-0.52
-0.525
-0.495
-0.435
-0.4
-0.4
-0.435
-0.445
-0.44
-0.385
-0.35
-0.315
-0.285
-0.275
-0.275
-0.29
-0.28
-0.3
-0.295
-0.31
-0.31
-0.285
-0.275
-0.27
-0.26
-0.27
-0.285
-0.3
-0.305
-0.33
-0.37
-0.405
-0.415
-0.435
-0.465
-0.49
-0.535
-0.555
-0.58
-0.59
-0.59
-0.625
-0.635
-0.655
-0.66
-0.64
-0.655
-0.705
-0.725
-0.745
-0.73
-0.7
-0.685
-0.665
-0.66
-0.655
-0.68
-0.685
-0.695
-0.685
-0.675
-0.675
-0.665
-0.68
-0.685
-0.69
-0.7
-0.695
-0.68
-0.66
-0.66
-0.68
-0.71
-0.725
-0.725
-0.71
-0.685
-0.685
-0.68
-0.69
-0.705
-0.695
-0.67
-0.66
-0.66
-0.675
-0.685
-0.66
-0.64
-0.625
-0.605
-0.6
-0.58
-0.565
-0.545
-0.5
-0.425
-0.26
0.12
0.755
1.39
2.025
2.26
2.215
2.1
2.025
1.965
1.885
1.79
1.69
1.595
1.53
1.47
1.385
1.285
1.17
1.07
0.97
0.865
0.71
0.535
0.38
0.245
0.125
0.05
-0.055
-0.185
-0.325
-0.435
-0.5
-0.55
-0.58
-0.62
-0.66
-0.74
-0.86
-1.0
-1.175
-1.34
-1.475
-1.595
-1.72
-1.83
-1.9
-1.89
-1.825
-1.73
-1.615
-1.485
-1.41
-1.39
-1.355
-1.335
-1.275
-1.245
-1.24
-1.235
-1.23
-1.225
-1.21
-1.195
-1.185
-1.15
-1.105
-1.04
-0.98
-0.925
-0.885
-0.83
-0.775
-0.725
-0.65
-0.58
-0.51
-0.45
-0.395
-0.34
-0.285
-0.255
-0.24
-0.22
-0.215
-0.195
-0.165
-0.15
-0.145
-0.14
-0.12
-0.11
-0.09
-0.085
-0.08
-0.065
-0.045
-0.02
0.0
0.03
0.06
0.065
0.075
0.08
0.09
0.095
0.11
0.15
0.18
0.22
0.265
0.29
0.31
0.32
0.31
0.335
0.35
0.375
0.4
0.42
0.43
0.44
0.475
0.5
0.51
0.505
0.505
0.515
0.535
0.55
0.54
0.535
0.545
0.57
0.6
0.6
0.585
0.555
0.53
0.515
0.51
0.515
0.505
0.47
0.45
0.405
0.375
0.365
0.355
0.335
0.295
0.245
0.23
0.215
0.19
0.16
0.135
0.1
0.08
0.07
0.04
0.035
0.03
0.025
0.03
0.03
0.04
0.015
-0.015
-0.035
-0.03
-0.025
-0.01
-0.02
-0.065
-0.15
-0.19
-0.205
-0.215
-0.235
-0.265
-0.29
-0.29
-0.26
-0.26
-0.275
-0.3
-0.305
-0.33
-0.345
-0.35
-0.365
-0.385
-0.41
-0.435
-0.475
-0.52
-0.575
-0.61
-0.635
-0.63
-0.625
-0.635
-0.655
-0.665
-0.675
-0.675
-0.685
-0.735
-0.755
-0.765
-0.75
-0.715
-0.685
-0.685
-0.685
-0.705
-0.715
-0.72
-0.715
-0.715
-0.715
-0.725
-0.72
-0.715
-0.7
-0.69
-0.685
-0.68
-0.675
-0.67
-0.665
-0.67
-0.705
-0.7
-0.69
-0.685
-0.675
-0.7
-0.73
-0.73
-0.73
-0.71
-0.695
-0.7
-0.69
-0.705
-0.71
-0.71
-0.69
-0.69
-0.7
-0.69
-0.7
-0.695
-0.695
-0.705
-0.725
-0.73
-0.725
-0.685
-0.66
-0.66
-0.65
-0.66
-0.645
-0.635
-0.63
-0.66
-0.645
-0.665
-0.665
-0.65
-0.66
-0.675
-0.67
-0.655
-0.64
-0.605
-0.59
-0.6
-0.63
-0.66
-0.66
-0.655
-0.635
-0.61
-0.605
-0.6
-0.6
-0.595
-0.575
-0.565
-0.57
-0.575
-0.61
-0.6
-0.58
-0.565
-0.545
-0.54
-0.545
-0.525
-0.53
-0.52
-0.52
-0.515
-0.485
-0.425
-0.34
-0.22
0.0
0.455
1.09
1.725
2.23
2.31
2.255
2.17
2.105
2.05
1.985
1.895
1.795
1.7
1.615
1.525
1.415
1.295
1.17
1.03
0.865
0.705
0.55
0.39
0.225
0.06
-0.1
-0.25
-0.395
-0.56
-0.73
-0.86
-0.94
-1.0
-1.065
-1.115
-1.16
-1.23
-1.35
-1.485
-1.625
-1.745
-1.855
-1.955
-2.055
-2.12
-2.135
-2.085
-2.0
-1.88
-1.74
-1.585
-1.455
-1.355
-1.32
-1.29
-1.24
-1.19
-1.15
-1.13
-1.11
-1.095
-1.09
-1.085
-1.095
-1.08
-1.065
-0.995
-0.94
-0.88
-0.835
-0.795
-0.755
-0.72
-0.655
-0.6
-0.515
-0.445
-0.365
-0.295
-0.24
-0.195
-0.145
-0.1
-0.09
-0.085
-0.08
-0.055
-0.015
0.015
0.04
0.045
0.05
0.075
0.105
0.115
0.145
0.14
0.155
0.175
0.22
0.25
0.265
0.285
0.31
0.355
0.42
0.475
0.525
0.575
0.62
0.69
0.75
0.79
0.825
0.83
0.84
0.885
0.93
0.975
0.99
0.99
0.97
0.98
0.99
1.0
1.02
1.03
1.04
1.035
1.05
1.055
1.035
1.01
0.98
0.965
0.965
0.935
0.9
0.865
0.82
0.79
0.77
0.74
0.7
0.66
0.62
0.58
0.56
0.51
0.45
0.37
0.28
0.21
0.165
0.115
0.08
0.045
0.0
-0.045
-0.07
-0.12
-0.18
-0.23
-0.28
-0.31
-0.315
-0.37
-0.395
-0.435
-0.45
-0.465
-0.47
-0.49
-0.52
-0.545
-0.565
-0.565
-0.575
-0.57
-0.595
-0.595
-0.605
-0.61
-0.6
-0.61
-0.625
-0.65
-0.66
-0.665
-0.665
-0.685
-0.705
-0.725
-0.715
-0.68
-0.67
-0.665
-0.655
-0.67
-0.69
-0.705
-0.7
-0.72
-0.715
-0.72
-0.705
-0.695
-0.665
-0.66
-0.68
-0.69
-0.715
-0.705
-0.705
-0.695
-0.695
-0.705
-0.7
-0.68
-0.65
-0.65
-0.65
-0.655
-0.655
-0.63
-0.6
-0.605
-0.605
-0.585
-0.61
-0.615
-0.63
-0.635
-0.63
-0.615
-0.62
-0.59
-0.59
-0.6
-0.6
-0.6
-0.595
-0.57
-0.565
-0.575
-0.615
-0.625
-0.635
-0.6
-0.575
-0.57
-0.575
-0.59
-0.595
-0.595
-0.565
-0.57
-0.57
-0.575
-0.585
-0.58
-0.585
-0.59
-0.615
-0.605
-0.6
-0.58
-0.565
-0.565
-0.565
-0.57
-0.56
-0.54
-0.525
-0.525
-0.54
-0.545
-0.545
-0.525
-0.515
-0.52
-0.53
-0.555
-0.56
-0.545
-0.545
-0.53
-0.53
-0.525
-0.51
-0.51
-0.5
-0.49
-0.475
-0.46
-0.455
-0.45
-0.46
-0.465
-0.465
-0.435
-0.39
-0.315
-0.2
0.02
0.485
1.12
1.755
2.26
2.365
2.3
2.21
2.135
2.065
1.985
1.89
1.79
1.69
1.59
1.48
1.385
1.28
1.15
1.0
0.83
0.63
0.435
0.24
0.025
-0.185
-0.36
-0.535
-0.665
-0.815
-0.955
-1.06
-1.16
-1.22
-1.25
-1.285
-1.37
-1.475
-1.61
-1.725
-1.82
-1.925
-2.045
-2.17
-2.25
-2.23
-2.095
-1.915
-1.725
-1.575
-1.44
-1.345
-1.28
-1.225
-1.165
-1.11
-1.07
-1.035
-0.975
-0.95
-0.93
-0.92
-0.895
-0.84
-0.765
-0.68
-0.615
-0.55
-0.495
-0.43
-0.37
-0.32
-0.26
-0.185
-0.11
-0.05
-0.01
0.035
0.075
0.12
0.115
0.11
0.095
0.09
0.075
0.075
0.065
0.07
0.095
0.105
0.1
0.075
0.065
0.085
0.13
0.15
0.14
0.12
0.105
0.12
0.155
0.195
0.215
0.225
0.235
0.265
0.315
0.35
0.365
0.37
0.375
0.405
0.45
0.475
0.475
0.48
0.49
0.505
0.54
0.57
0.575
0.585
0.595
0.59
0.59
0.605
0.61
0.605
0.575
0.54
0.53
0.525
0.53
0.52
0.495
0.47
0.43
0.41
0.4
0.39
0.35
0.325
0.295
0.265
0.225
0.19
0.135
0.105
0.06
0.02
0.01
-0.025
-0.075
-0.145
-0.185
-0.23
-0.25
-0.275
-0.295
-0.295
-0.325
-0.38
-0.44
-0.485
-0.485
-0.485
-0.48
-0.495
-0.515
-0.545
-0.55
-0.56
-0.555
-0.565
-0.57
-0.585
-0.6
-0.59
-0.58
-0.575
-0.595
-0.59
-0.61
-0.615
-0.59
-0.59
-0.585
-0.6
-0.605
-0.625
-0.655
-0.675
-0.69
-0.7
-0.695
-0.68
-0.665
-0.63
-0.62
-0.62
-0.62
-0.64
-0.625
-0.615
-0.615
-0.635
-0.65
-0.65
-0.625
-0.59
-0.565
-0.575
-0.58
-0.59
-0.585
-0.565
-0.575
-0.57
-0.585
-0.585
-0.565
-0.555
-0.525
-0.53
-0.53
-0.54
-0.555
-0.56
-0.585
-0.6
-0.595
-0.585
-0.55
-0.535
-0.555
-0.56
-0.575
-0.575
-0.54
-0.525
-0.53
-0.54
-0.555
-0.555
-0.545
-0.535
-0.545
-0.56
-0.565
-0.555
-0.55
-0.545
-0.54
-0.53
-0.53
-0.535
-0.53
-0.53
-0.535
-0.525
-0.54
-0.55
-0.545
-0.54
-0.545
-0.55
-0.53
-0.55
-0.52
-0.51
-0.525
-0.52
-0.53
-0.515
-0.51
-0.505
-0.505
-0.52
-0.515
-0.51
-0.49
-0.465
-0.465
-0.47
-0.485
-0.495
-0.475
-0.455
-0.42
-0.42
-0.435
-0.45
-0.47
-0.445
-0.41
-0.38
-0.33
-0.23
0.0
0.455
1.09
1.725
2.205
2.35
2.36
2.32
2.28
2.25
2.19
2.115
2.04
1.97
1.895
1.835
1.75
1.63
1.51
1.375
1.205
1.01
0.83
0.685
0.52
0.37
0.19
0.02
-0.16
-0.34
-0.485
-0.61
-0.73
-0.83
-0.895
-0.95
-1.035
-1.16
-1.35
-1.54
-1.72
-1.86
-1.98
-2.105
-2.205
-2.225
-2.14
-2.01
-1.845
-1.685
-1.55
-1.44
-1.375
-1.335
-1.285
-1.24
-1.225
-1.23
-1.23
-1.23
-1.225
-1.22
-1.225
-1.205
-1.16
-1.09
-1.005
-0.95
-0.905
-0.855
-0.81
-0.755
-0.68
-0.59
-0.52
-0.485
-0.455
-0.39
-0.315
-0.27
-0.255
-0.27
-0.265
-0.25
-0.215
-0.185
-0.205
-0.2
-0.185
-0.16
-0.125
-0.1
-0.105
-0.105
-0.11
-0.1
-0.06
-0.025
0.0
0.015
0.04
0.065
0.12
0.145
0.18
0.205
0.24
0.25
0.29
0.325
0.355
0.38
0.42
0.45
0.49
0.515
0.53
0.565
0.61
0.645
0.685
0.685
0.665
0.625
0.625
0.62
0.65
0.69
0.69
0.685
0.675
0.655
0.66
0.655
0.63
0.605
0.565
0.53
