Lead II
-1.105
-1.105
-1.115
-1.125
-1.13
-1.13
-1.135
-1.15
-1.14
-1.135
-1.13
-1.13
-1.12
-1.125
-1.125
-1.13
-1.145
-1.15
-1.165
-1.135
-1.135
-1.125
-1.12
-1.12
-1.11
-1.12
-1.12
-1.125
-1.12
-1.115
-1.105
-1.115
-1.085
-1.085
-1.07
-1.04
-1.04
-1.04
-1.045
-1.04
-1.05
-1.035
-1.025
-1.01
-1.01
-0.99
-0.955
-0.93
-0.905
-0.89
-0.875
-0.89
-0.855
-0.835
-0.825
-0.795
-0.765
-0.76
-0.72
-0.7
-0.685
-0.675
-0.635
-0.63
-0.62
-0.62
-0.595
-0.59
-0.565
-0.56
-0.545
-0.54
-0.535
-0.55
-0.55
-0.595
-0.62
-0.64
-0.69
-0.72
-0.73
-0.76
-0.77
-0.81
-0.83
-0.87
-0.895
-0.925
-0.975
-0.99
-1.025
-1.04
-1.04
-1.055
-1.06
-1.06
-1.06
-1.075
-1.09
-1.105
-1.12
-1.13
-1.145
-1.135
-1.135
-1.125
-1.12
-1.12
-1.125
-1.13
-1.135
-1.14
-1.145
-1.145
-1.15
-1.16
-1.155
-1.145
-1.135
-1.12
-1.125
-1.115
-1.12
-1.125
-1.145
-1.145
-1.14
-1.145
-1.135
-1.12
-1.125
-1.11
-1.105
-1.1
-1.095
-1.105
-1.115
-1.125
-1.115
-1.13
-1.115
-1.105
-1.11
-1.1
-1.1
-1.105
-1.095
-1.09
-1.1
-1.115
-1.125
-1.11
-1.115
-1.09
-1.085
-1.09
-1.095
-1.095
-1.095
-1.11
-1.125
-1.145
-1.145
-1.14
-1.145
-1.15
-1.125
-1.12
-1.12
-1.115
-1.115
-1.13
-1.13
-1.15
-1.14
-1.145
-1.14
-1.13
-1.125
-1.12
-1.11
-1.11
-1.14
-1.135
-1.15
-1.155
-1.165
-1.18
-1.16
-1.155
-1.15
-1.13
-1.13
-1.13
-1.13
-1.14
-1.15
-1.16
-1.18
-1.175
-1.175
-1.155
-1.15
-1.15
-1.14
-1.135
-1.14
-1.14
-1.145
-1.155
-1.15
-1.16
-1.155
-1.155
-1.155
-1.14
-1.135
-1.12
-1.135
-1.145
-1.155
-1.155
-1.135
-1.095
-1.09
-1.045
-1.02
-1.0
-0.99
-0.99
-0.995
-0.99
-1.015
-1.015
-1.035
-1.05
-1.05
-1.07
-1.07
-1.065
-1.08
-1.08
-1.095
-1.11
-1.125
-1.16
-1.165
-1.17
-1.17
-1.17
-1.15
-1.145
-1.13
-1.13
-1.13
-1.15
-1.16
-1.175
-1.175
-1.175
-1.175
-1.15
-1.155
-1.14
-1.135
-1.135
-1.14
-1.14
-1.145
-1.155
-1.16
-1.16
-1.155
-1.145
-1.145
-1.175
-1.18
-1.19
-1.155
-1.07
-0.93
-0.715
-0.415
-0.04
0.325
0.655
0.87
0.965
0.975
0.85
0.595
0.21
-0.31
-0.815
-1.195
-1.355
-1.32
-1.18
-1.03
-0.92
-0.885
-0.93
-0.99
-1.06
-1.135
-1.15
-1.16
-1.165
-1.155
-1.15
-1.13
-1.13
-1.14
-1.155
-1.16
-1.17
-1.175
-1.175
-1.175
-1.18
-1.18
-1.175
-1.175
-1.155
-1.16
-1.155
-1.165
-1.17
-1.165
-1.185
-1.195
-1.195
-1.185
-1.175
-1.165
-1.175
-1.155
-1.16
-1.175
-1.18
-1.185
-1.195
-1.195
-1.18
-1.175
-1.175
-1.14
-1.155
-1.15
-1.14
-1.16
-1.145
-1.165
-1.16
-1.16
-1.145
-1.14
-1.115
-1.11
-1.09
-1.09
-1.07
-1.06
-1.06
-1.055
-1.05
-1.035
-1.03
-1.01
-0.99
-0.98
-0.95
-0.925
-0.925
-0.895
-0.87
-0.865
-0.86
-0.835
-0.82
-0.795
-0.78
-0.77
-0.725
-0.7
-0.685
-0.68
-0.68
-0.67
-0.67
-0.675
-0.645
-0.625
-0.61
-0.58
-0.585
-0.585
-0.59
-0.595
-0.62
-0.655
-0.68
-0.7
-0.725
-0.745
-0.77
-0.805
-0.815
-0.855
-0.88
-0.93
-0.945
-0.995
-1.005
-1.03
-1.045
-1.07
-1.075
-1.07
-1.085
-1.1
-1.11
-1.12
-1.12
-1.16
-1.16
-1.155
-1.185
-1.17
-1.17
-1.175
-1.16
-1.15
-1.165
-1.17
-1.185
-1.195
-1.2
-1.2
-1.21
-1.205
-1.185
-1.17
-1.18
-1.175
-1.175
-1.17
-1.19
-1.195
-1.205
-1.2
-1.2
-1.21
-1.195
-1.18
-1.18
-1.145
-1.16
-1.18
-1.165
-1.165
-1.16
-1.17
-1.155
-1.155
-1.16
-1.145
-1.135
-1.13
-1.14
-1.12
-1.135
-1.135
-1.13
-1.135
-1.155
-1.14
-1.14
-1.13
-1.12
-1.115
-1.11
-1.125
-1.13
-1.16
-1.16
-1.17
-1.175
-1.165
-1.15
-1.14
-1.155
-1.135
-1.16
-1.165
-1.175
-1.195
-1.17
-1.2
-1.205
-1.2
-1.175
-1.175
-1.17
-1.175
-1.17
-1.18
-1.19
-1.19
-1.195
-1.19
-1.2
-1.195
-1.19
-1.19
-1.175
-1.175
-1.18
-1.195
-1.18
-1.195
-1.19
-1.19
-1.2
-1.21
-1.21
-1.185
-1.175
-1.175
-1.185
-1.195
-1.18
-1.185
-1.2
-1.2
-1.2
-1.195
-1.175
-1.16
-1.16
-1.14
-1.14
-1.14
-1.135
-1.125
-1.095
-1.09
-1.075
-1.07
-1.065
-1.055
-1.04
-1.04
-1.06
-1.065
-1.08
-1.1
-1.115
-1.14
-1.15
-1.185
-1.175
-1.17
-1.185
-1.185
-1.2
-1.2
-1.2
-1.195
-1.205
-1.195
-1.205
-1.205
-1.18
-1.18
-1.175
-1.165
-1.18
-1.18
-1.19
-1.195
-1.19
-1.19
-1.205
-1.21
-1.17
-1.16
-1.16
-1.165
-1.165
-1.205
-1.21
-1.225
-1.18
-1.085
-0.9
-0.61
-0.22
0.215
0.59
0.89
1.03
1.035
0.86
0.505
-0.015
-0.58
-1.075
-1.335
-1.385
-1.255
-1.085
-0.93
-0.875
-0.9
-0.95
-1.02
-1.095
-1.135
-1.165
-1.155
-1.13
-1.125
-1.11
-1.12
-1.125
-1.135
-1.13
-1.14
-1.165
-1.15
-1.17
-1.165
-1.16
-1.155
-1.135
-1.125
-1.13
-1.14
-1.145
-1.185
-1.165
-1.155
-1.175
-1.185
-1.17
-1.15
-1.14
-1.125
-1.13
-1.135
-1.14
-1.145
-1.15
-1.15
-1.145
-1.135
-1.125
-1.125
-1.1
-1.115
-1.11
-1.105
-1.12
-1.13
-1.12
-1.12
-1.115
-1.1
-1.09
-1.085
-1.07
-1.04
-1.035
-1.03
-1.04
-1.025
-1.035
-1.045
-1.04
-1.025
-0.99
-0.975
-0.955
-0.91
-0.905
-0.895
-0.885
-0.865
-0.855
-0.84
-0.815
-0.78
-0.765
-0.725
-0.715
-0.68
-0.675
-0.65
-0.64
-0.615
-0.625
-0.605
-0.6
-0.59
-0.55
-0.54
-0.525
-0.505
-0.505
-0.5
-0.51
-0.54
-0.555
-0.59
-0.62
-0.63
-0.65
-0.675
-0.695
-0.72
-0.75
-0.78
-0.81
-0.86
-0.88
-0.915
-0.95
-0.97
-0.975
-0.985
-0.99
-0.99
-1.005
-1.035
-1.03
-1.055
-1.07
-1.085
-1.115
-1.11
-1.105
-1.095
-1.105
-1.08
-1.12
-1.105
-1.105
-1.12
-1.135
-1.145
-1.135
-1.135
-1.115
-1.11
-1.095
-1.125
-1.11
-1.11
-1.115
-1.115
-1.12
-1.125
-1.13
-1.13
-1.095
-1.085
-1.09
-1.08
-1.09
-1.1
-1.1
-1.085
-1.1
-1.095
-1.09
-1.08
-1.065
-1.065
-1.06
-1.045
-1.035
-1.04
-1.04
-1.06
-1.07
-1.06
-1.07
-1.075
-1.05
-1.055
-1.045
-1.03
-1.045
-1.05
-1.055
-1.065
-1.075
-1.08
-1.08
-1.08
-1.07
-1.06
-1.045
-1.045
-1.055
-1.08
-1.075
-1.095
-1.095
-1.085
-1.095
-1.09
-1.085
-1.09
-1.075
-1.08
-1.09
-1.095
-1.085
-1.1
-1.095
-1.095
-1.105
-1.11
-1.11
-1.095
-1.1
-1.085
-1.09
-1.1
-1.095
-1.105
-1.11
-1.115
-1.115
-1.115
-1.115
-1.105
-1.1
-1.1
-1.1
-1.09
-1.095
-1.115
-1.12
-1.12
-1.125
-1.11
-1.11
-1.09
-1.09
-1.08
-1.09
-1.1
-1.08
-1.1
-1.11
-1.13
-1.11
-1.115
-1.115
-1.095
-1.09
-1.075
-1.1
-1.085
-1.085
-1.1
-1.1
-1.095
-1.095
-1.1
-1.075
-1.075
-1.07
-1.06
-1.035
-1.0
-0.985
-0.98
-0.96
-0.955
-0.965
-0.965
-0.955
-0.975
-0.97
-0.975
-0.99
-1.0
-1.025
-1.06
-1.065
-1.085
-1.105
-1.12
-1.115
-1.125
-1.125
-1.095
-1.09
-1.1
-1.11
-1.12
-1.125
-1.12
-1.125
-1.12
-1.11
-1.11
-1.09
-1.085
-1.08
-1.085
-1.085
-1.08
-1.09
-1.075
-1.095
-1.09
-1.08
-1.06
-1.06
-1.05
-1.08
-1.115
-1.14
-1.13
-1.07
-0.945
-0.76
-0.495
-0.14
0.26
0.635
0.925
1.075
1.12
1.03
0.82
0.455
-0.05
-0.6
-1.02
-1.22
-1.22
-1.095
-0.93
-0.825
-0.79
-0.825
-0.895
-0.965
-1.035
-1.055
-1.07
-1.07
-1.06
-1.045
-1.025
-1.06
-1.065
-1.055
-1.07
-1.065
-1.09
-1.09
-1.095
-1.09
-1.095
-1.08
-1.075
-1.085
-1.08
-1.085
-1.09
-1.095
-1.12
-1.115
-1.12
-1.1
-1.115
-1.09
-1.075
-1.09
-1.09
-1.1
-1.12
-1.125
-1.105
-1.095
-1.095
-1.085
-1.07
-1.065
-1.07
-1.055
-1.07
-1.075
-1.085
-1.07
-1.08
-1.075
-1.065
-1.06
-1.04
-1.025
-1.015
-1.025
-1.01
-1.015
-1.035
-1.0
-1.015
-1.0
-0.99
-0.97
-0.955
-0.935
-0.92
-0.905
-0.89
-0.88
-0.86
-0.87
-0.845
-0.805
-0.775
-0.755
-0.72
-0.695
-0.655
-0.63
-0.61
-0.605
-0.605
-0.58
-0.56
-0.555
-0.545
-0.53
-0.5
-0.5
-0.49
-0.485
-0.505
-0.52
-0.54
-0.575
-0.585
-0.62
-0.635
-0.67
-0.685
-0.72
-0.76
-0.79
-0.815
-0.84
-0.885
-0.915
-0.94
-0.96
-0.985
-1.0
-1.0
-1.01
-1.01
-1.03
-1.045
-1.065
-1.07
-1.09
-1.095
-1.105
-1.11
-1.115
-1.09
-1.105
-1.095
-1.085
-1.1
-1.105
-1.11
-1.115
-1.125
-1.12
-1.115
-1.125
-1.105
-1.095
-1.085
-1.08
-1.09
-1.105
-1.11
-1.105
-1.105
-1.105
-1.105
-1.09
-1.09
-1.07
-1.055
-1.05
-1.05
-1.055
-1.085
-1.08
-1.08
-1.085
-1.075
-1.075
-1.06
-1.06
-1.055
-1.05
-1.055
-1.075
-1.065
-1.065
-1.065
-1.075
-1.07
-1.07
-1.065
-1.07
-1.055
-1.055
-1.06
-1.055
-1.055
-1.075
-1.07
-1.09
-1.09
-1.085
-1.085
-1.085
-1.065
-1.065
-1.07
-1.07
-1.09
-1.095
-1.1
-1.1
-1.1
-1.09
-1.095
-1.08
-1.07
-1.085
-1.1
-1.135
-1.13
-1.125
-1.13
-1.13
-1.13
-1.135
-1.135
-1.11
-1.1
-1.105
-1.1
-1.11
-1.115
-1.125
-1.14
-1.145
-1.135
-1.115
-1.12
-1.105
-1.105
-1.105
-1.12
-1.135
-1.145
-1.135
-1.14
-1.15
-1.15
-1.13
-1.115
-1.125
-1.12
-1.135
-1.15
-1.145
-1.16
-1.15
-1.14
-1.145
-1.15
-1.14
-1.14
-1.125
-1.12
-1.11
-1.125
-1.13
-1.135
-1.14
-1.13
-1.125
-1.135
-1.135
-1.13
-1.125
-1.11
-1.095
-1.095
-1.11
-1.12
-1.09
-1.055
-1.04
-1.015
-0.99
-0.97
-0.965
-0.96
-0.955
-0.965
-0.97
-0.99
-1.015
-1.04
-1.055
-1.065
-1.075
-1.08
-1.085
-1.085
-1.09
-1.115
-1.125
-1.135
-1.125
-1.13
-1.14
-1.115
-1.125
-1.115
-1.105
-1.1
-1.115
-1.115
-1.095
-1.13
-1.12
-1.125
-1.13
-1.12
-1.115
-1.115
-1.1
-1.095
-1.085
-1.085
-1.095
-1.105
-1.125
-1.145
-1.17
-1.18
-1.18
-1.11
-1.005
-0.815
-0.575
-0.255
0.12
0.46
0.76
0.95
1.025
1.005
0.88
0.615
0.225
-0.285
-0.765
-1.115
-1.275
-1.225
-1.08
-0.955
-0.875
-0.83
-0.87
-0.92
-0.975
-1.01
-1.04
-1.055
-1.07
-1.065
-1.075
-1.08
-1.085
-1.08
-1.065
-1.065
-1.065
-1.065
-1.065
-1.07
-1.09
-1.09
-1.1
-1.095
-1.11
-1.105
-1.105
-1.11
-1.1
-1.075
-1.075
-1.075
-1.095
-1.11
-1.115
-1.11
-1.11
-1.1
-1.105
-1.095
-1.09
-1.1
-1.08
-1.095
-1.085
-1.11
-1.095
-1.11
-1.13
-1.1
-1.1
-1.075
-1.065
-1.045
-1.04
-1.035
-1.035
-1.06
-1.05
-1.055
-1.045
-1.035
-1.015
-1.01
-0.995
-0.96
-0.96
-0.945
-0.93
-0.935
-0.925
-0.915
-0.91
-0.89
-0.87
-0.835
-0.81
-0.795
-0.78
-0.735
-0.71
-0.71
-0.705
-0.69
-0.675
-0.65
-0.635
-0.615
-0.6
-0.575
-0.56
-0.55
-0.55
-0.54
-0.555
-0.545
-0.545
-0.55
-0.525
-0.535
-0.54
-0.565
-0.58
-0.605
-0.63
-0.66
-0.705
-0.75
-0.78
-0.805
-0.82
-0.84
-0.86
-0.875
-0.9
-0.93
-0.96
-0.99
-1.02
-1.035
-1.05
-1.065
-1.06
-1.07
-1.075
-1.06
-1.075
-1.075
-1.085
-1.085
-1.1
-1.125
-1.125
-1.145
-1.15
-1.13
-1.115
-1.11
-1.1
-1.1
-1.095
-1.1
-1.11
-1.115
-1.13
-1.135
-1.13
-1.125
-1.115
-1.1
-1.095
-1.105
-1.095
-1.09
-1.095
-1.11
-1.125
-1.11
-1.1
-1.085
-1.08
-1.055
-1.065
-1.065
-1.065
-1.08
-1.075
-1.085
-1.095
-1.085
-1.09
-1.09
-1.085
-1.045
-1.055
-1.055
-1.065
-1.065
-1.065
-1.085
-1.09
-1.085
-1.085
-1.07
-1.065
-1.075
-1.085
-1.09
-1.1
-1.1
-1.08
-1.09
-1.115
-1.13
-1.125
-1.095
-1.1
-1.095
-1.08
-1.08
-1.09
-1.105
-1.105
-1.12
-1.12
-1.14
-1.14
-1.13
-1.12
-1.12
-1.11
-1.115
-1.12
-1.12
-1.13
-1.135
-1.15
-1.14
-1.15
-1.125
-1.12
-1.12
-1.125
-1.12
-1.13
-1.14
-1.15
-1.155
-1.145
-1.135
-1.145
-1.135
-1.13
-1.125
-1.12
-1.125
-1.125
-1.155
-1.16
-1.165
-1.165
-1.165
-1.15
-1.16
-1.155
-1.14
-1.14
-1.125
-1.135
-1.14
-1.145
-1.15
-1.17
-1.155
-1.15
-1.13
-1.12
-1.11
-1.105
-1.09
-1.075
-1.065
-1.045
-1.035
-1.015
-1.005
-1.0
-0.99
-0.98
-0.98
-1.0
-1.02
-1.02
-1.04
-1.065
-1.09
-1.09
-1.105
-1.115
-1.12
-1.125
-1.135
-1.155
-1.17
-1.16
-1.16
-1.145
-1.165
-1.18
-1.165
-1.15
-1.145
-1.14
-1.135
-1.125
-1.12
-1.125
-1.15
-1.155
-1.175
-1.165
-1.15
-1.135
-1.14
-1.135
-1.115
-1.125
-1.13
-1.125
-1.155
-1.175
-1.215
-1.215
-1.165
-1.08
-0.93
-0.705
-0.415
-0.07
0.315
0.645
0.87
0.995
1.01
0.89
0.59
0.165
-0.375
-0.875
-1.2
-1.29
-1.235
-1.09
-0.97
-0.885
-0.89
-0.935
-1.01
-1.09
-1.11
-1.125
-1.13
-1.12
-1.1
-1.105
-1.105
-1.115
-1.125
-1.145
-1.14
-1.13
-1.14
-1.135
-1.13
-1.125
-1.13
-1.13
-1.14
-1.14
-1.17
-1.15
-1.145
-1.13
-1.14
-1.135
-1.12
-1.115
-1.13
-1.14
-1.15
-1.16
-1.155
-1.16
-1.165
-1.16
-1.135
-1.13
-1.125
-1.12
-1.125
-1.125
-1.14
-1.14
-1.14
-1.13
-1.13
-1.115
-1.1
-1.085
-1.07
-1.08
-1.075
-1.06
-1.055
-1.065
-1.07
-1.065
-1.075
-1.045
-1.035
-1.02
-1.005
-0.98
-0.99
-0.98
-0.97
-0.96
-0.945
-0.94
-0.94
-0.915
-0.9
-0.865
-0.845
-0.81
-0.785
-0.765
-0.745
-0.74
-0.75
-0.745
-0.72
-0.685
-0.665
-0.635
-0.615
-0.6
-0.605
-0.575
-0.57
-0.575
-0.565
-0.565
-0.56
-0.55
-0.55
-0.56
-0.57
-0.585
-0.595
-0.64
-0.66
-0.69
-0.725
-0.75
-0.78
-0.81
-0.835
-0.865
-0.895
-0.92
-0.955
-0.97
-0.995
-1.01
-1.03
-1.06
-1.09
-1.085
-1.11
-1.105
-1.095
-1.1
-1.105
-1.115
-1.13
-1.13
-1.125
-1.155
-1.17
-1.17
-1.17
-1.175
-1.155
-1.155
-1.155
-1.155
-1.15
-1.16
-1.185
-1.17
-1.165
-1.17
-1.15
-1.14
-1.145
-1.125
-1.135
-1.125
-1.14
-1.14
-1.155
-1.16
-1.16
-1.155
-1.13
-1.125
-1.115
-1.11
-1.11
-1.1
-1.1
-1.105
-1.11
-1.135
-1.13
-1.125
-1.115
-1.105
-1.09
-1.095
-1.095
-1.105
-1.11
-1.125
-1.12
-1.13
-1.135
-1.125
-1.12
-1.12
-1.11
-1.11
-1.105
-1.125
-1.125
-1.13
-1.155
-1.16
-1.155
-1.145
-1.145
-1.14
-1.13
-1.14
-1.13
-1.145
-1.15
-1.175
-1.17
-1.185
-1.18
-1.17
-1.165
-1.155
-1.155
-1.14
-1.13
-1.14
-1.16
-1.17
-1.17
-1.175
-1.165
-1.16
-1.165
-1.16
-1.135
-1.135
-1.15
-1.145
-1.165
-1.175
-1.175
-1.165
-1.185
-1.16
-1.155
-1.155
-1.145
-1.16
-1.155
-1.155
-1.165
-1.18
-1.19
-1.205
-1.195
-1.2
-1.19
-1.18
-1.15
-1.15
-1.145
-1.15
-1.145
-1.175
-1.185
-1.17
-1.195
-1.185
-1.18
-1.17
-1.155
-1.155
-1.135
-1.145
-1.16
-1.16
-1.175
-1.17
-1.185
-1.16
-1.14
-1.13
-1.13
-1.11
-1.095
-1.085
-1.07
-1.045
-1.035
-1.03
-1.025
-1.005
-1.0
-0.99
-1.005
-1.015
-1.03
-1.05
-1.075
-1.09
-1.11
-1.12
-1.135
-1.14
-1.16
-1.155
-1.15
-1.145
-1.15
-1.14
-1.155
-1.17
-1.17
-1.17
-1.16
-1.165
-1.155
-1.16
-1.14
-1.16
-1.135
-1.125
-1.155
-1.16
-1.145
-1.16
-1.16
-1.16
-1.15
-1.14
-1.15
-1.15
-1.175
-1.195
-1.195
-1.13
-1.005
-0.85
-0.585
-0.25
0.12
0.49
0.785
0.985
1.06
1.04
0.93
0.705
0.315
-0.18
-0.7
-1.11
-1.305
-1.29
-1.145
-0.99
-0.885
-0.855
-0.875
-0.94
-1.025
-1.075
-1.105
-1.125
-1.11
-1.105
-1.095
-1.085
-1.085
-1.095
-1.12
-1.135
-1.15
-1.145
-1.16
-1.14
-1.13
-1.115
-1.11
-1.1
-1.11
-1.105
-1.115
-1.125
-1.135
-1.13
-1.14
-1.14
-1.14
-1.115
-1.12
-1.1
-1.11
-1.1
-1.125
-1.12
-1.125
-1.125
-1.13
-1.14
-1.13
-1.105
-1.11
-1.1
-1.11
-1.105
-1.1
-1.12
-1.11
-1.1
-1.09
-1.095
-1.075
-1.055
-1.045
-1.025
-1.03
-1.025
-1.03
-1.025
-1.025
-1.005
-0.99
-0.975
-0.94
-0.935
-0.9
-0.875
-0.87
-0.845
-0.835
-0.82
-0.805
-0.785
-0.76
-0.74
-0.71
-0.685
-0.655
-0.635
-0.62
-0.63
-0.61
-0.605
-0.59
-0.58
-0.57
-0.56
-0.525
-0.525
-0.51
-0.485
-0.49
-0.505
-0.525
-0.56
-0.58
-0.595
-0.635
-0.67
-0.68
-0.705
-0.725
-0.755
-0.78
-0.82
-0.86
-0.89
-0.915
-0.94
-0.96
-0.98
-0.98
-0.995
-0.99
-0.995
-1.03
-1.04
-1.065
-1.08
-1.09
-1.095
-1.1
-1.09
-1.1
-1.09
-1.09
-1.085
-1.085
-1.09
-1.105
-1.115
-1.125
-1.125
-1.12
-1.12
-1.105
-1.09
-1.075
-1.08
-1.085
-1.07
-1.085
-1.09
-1.085
-1.105
-1.09
-1.095
-1.1
-1.075
-1.065
-1.045
-1.055
-1.06
-1.065
-1.085
-1.075
-1.055
-1.085
-1.08
-1.055
-1.06
-1.045
-1.045
-1.045
-1.04
-1.055
-1.07
-1.065
-1.07
-1.07
-1.065
-1.065
-1.05
-1.05
-1.055
-1.05
-1.05
-1.085
-1.09
-1.075
-1.085
-1.085
-1.095
-1.09
-1.07
-1.06
-1.07
-1.065
-1.075
-1.085
-1.085
-1.09
-1.105
-1.1
-1.1
-1.09
-1.08
-1.075
-1.075
-1.08
-1.085
-1.095
-1.115
-1.11
-1.12
-1.115
-1.13
-1.115
-1.11
-1.1
-1.095
-1.09
-1.1
-1.1
-1.125
-1.11
-1.125
-1.14
-1.125
-1.135
-1.125
-1.11
-1.095
-1.115
-1.095
-1.1
-1.135
-1.14
-1.135
-1.135
-1.15
-1.145
-1.12
-1.115
-1.1
-1.125
-1.125
-1.125
-1.135
-1.125
-1.13
-1.14
-1.145
-1.13
-1.115
-1.105
-1.085
-1.11
-1.11
-1.12
-1.135
-1.15
-1.135
-1.14
-1.14
-1.14
-1.125
-1.125
-1.105
-1.095
-1.125
-1.125
-1.11
-1.13
-1.135
-1.135
-1.14
-1.13
-1.12
-1.105
-1.11
-1.075
-1.08
-1.07
-1.085
-1.075
-1.045
-1.03
-1.01
-1.0
-0.98
-0.955
-0.945
-0.94
-0.96
-0.98
-0.995
-1.03
-1.03
-1.04
-1.065
-1.1
-1.095
-1.07
-1.095
-1.105
-1.12
-1.13
-1.14
-1.155
-1.14
-1.145
-1.14
-1.14
-1.14
-1.115
-1.11
-1.12
-1.125
-1.135
-1.14
-1.15
-1.14
-1.16
-1.16
-1.135
-1.115
-1.11
-1.1
-1.105
-1.105
-1.105
-1.125
-1.16
-1.2
-1.205
-1.18
-1.1
-0.96
-0.745
-0.45
-0.11
0.26
0.605
0.855
0.99
1.005
0.91
0.67
0.28
-0.235
-0.75
-1.105
-1.275
-1.265
-1.12
-0.99
-0.91
-0.89
-0.92
-1.0
-1.04
-1.09
-1.115
-1.12
-1.125
-1.135
-1.14
-1.15
-1.15
-1.15
-1.15
-1.15
-1.15
-1.14
-1.135
-1.13
-1.135
-1.135
-1.14
-1.155
-1.155
-1.17
-1.18
-1.175
-1.155
-1.16
-1.145
-1.13
-1.14
-1.155
-1.14
-1.155
-1.17
-1.165
-1.155
-1.175
-1.155
-1.15
-1.145
-1.125
-1.135
-1.15
-1.155
-1.16
-1.165
-1.16
-1.18
-1.17
-1.14
-1.14
-1.115
-1.1
-1.1
-1.08
-1.095
-1.115
-1.1
-1.1
-1.11
-1.085
-1.065
-1.045
-1.02
-1.0
-0.995
-0.995
-0.985
-0.97
-0.955
-0.94
-0.92
-0.91
-0.89
-0.86
-0.83
-0.805
-0.8
-0.77
-0.75
-0.73
-0.73
-0.715
-0.715
-0.685
-0.655
-0.64
-0.615
-0.595
-0.59
-0.57
-0.585
-0.6
-0.605
-0.61
-0.63
-0.66
-0.66
-0.675
-0.7
-0.705
-0.735
-0.775
-0.81
-0.84
-0.86
-0.9
-0.93
-0.96
-0.965
-0.995
-1.005
-1.005
-1.035
-1.05
-1.075
-1.095
-1.12
-1.135
-1.13
-1.16
-1.145
-1.15
-1.16
-1.16
-1.15
-1.165
-1.175
-1.185
-1.195
-1.2
-1.2
-1.195
-1.195
-1.195
-1.185
-1.18
-1.17
-1.18
-1.195
-1.19
-1.21
-1.21
-1.2
-1.19
-1.205
-1.18
-1.18
-1.17
-1.18
-1.185
-1.17
-1.18
-1.175
-1.185
-1.205
-1.2
-1.175
-1.165
-1.145
-1.145
-1.145
-1.145
-1.16
-1.17
-1.16
-1.155
-1.165
-1.17
-1.17
-1.16
-1.15
-1.145
-1.13
-1.14
-1.15
-1.165
-1.165
-1.19
-1.185
-1.175
-1.17
-1.17
-1.175
-1.16
-1.185
-1.19
-1.175
-1.185
-1.19
-1.19
-1.205
-1.215
-1.19
-1.19
-1.17
-1.17
-1.165
-1.17
-1.185
-1.19
-1.19
-1.205
-1.21
-1.205
-1.205
-1.19
-1.195
-1.175
-1.18
-1.195
-1.21
-1.215
-1.205
-1.215
-1.24
-1.23
-1.22
-1.205
-1.19
-1.18
-1.2
-1.215
-1.225
-1.22
-1.215
-1.215
-1.225
-1.225
-1.22
-1.22
-1.19
-1.17
-1.19
-1.205
-1.21
-1.205
-1.215
-1.215
-1.23
-1.22
-1.21
-1.2
-1.205
-1.205
-1.18
-1.19
-1.2
-1.2
-1.215
-1.21
-1.21
-1.21
-1.21
-1.195
-1.205
-1.205
-1.205
-1.21
-1.2
-1.2
-1.225
-1.23
-1.23
-1.22
-1.22
-1.225
-1.205
-1.185
-1.185
-1.185
-1.17
-1.185
-1.185
-1.175
-1.165
-1.14
-1.115
-1.09
-1.06
-1.045
-1.045
-1.05
-1.045
-1.055
-1.075
-1.075
-1.105
-1.125
-1.13
-1.125
-1.135
-1.14
-1.165
-1.175
-1.18
-1.215
-1.23
-1.245
-1.235
-1.24
-1.205
-1.205
-1.195
-1.19
-1.2
-1.19
-1.19
-1.23
-1.22
-1.2
-1.215
-1.205
-1.205
-1.195
-1.19
-1.18
-1.175
-1.18
-1.195
-1.205
-1.21
-1.22
-1.24
-1.25
-1.24
-1.24
-1.19
-1.08
-0.955
-0.71
-0.425
-0.07
0.275
0.595
0.805
0.925
0.915
0.8
0.52
0.105
-0.41
-0.9
-1.24
-1.365
-1.31
-1.18
-1.035
-0.975
-0.94
-0.97
-1.02
-1.09
-1.14
-1.175
-1.19
-1.17
-1.16
-1.17
-1.18
-1.185
-1.19
-1.17
-1.165
-1.15
-1.15
-1.16
-1.175
-1.18
-1.18
-1.2
-1.2
-1.195
-1.18
-1.16
-1.165
-1.17
-1.16
-1.155
-1.165
-1.175
-1.18
-1.18
-1.2
-1.205
-1.205
-1.2
-1.185
-1.15
-1.17
-1.17
-1.18
-1.18
-1.205
-1.205
-1.19
-1.19
-1.175
-1.155
-1.16
-1.155
-1.145
-1.15
-1.145
-1.13
-1.135
-1.12
-1.125
-1.115
-1.1
-1.085
-1.065
-1.055
-1.04
-1.025
-1.02
-1.005
-1.015
-0.99
-0.985
-0.97
-0.93
-0.905
-0.885
-0.85
-0.825
-0.81
-0.795
-0.785
-0.77
-0.75
-0.745
-0.715
-0.705
-0.66
-0.645
-0.615
-0.6
-0.605
-0.585
-0.58
-0.59
-0.595
-0.58
-0.595
-0.605
-0.615
-0.63
-0.645
-0.675
-0.715
-0.765
-0.79
-0.85
-0.875
-0.905
-0.925
-0.955
-0.965
-0.98
-1.01
-1.03
-1.04
-1.06
-1.07
-1.1
-1.1
-1.105
-1.11
-1.115
-1.105
-1.125
-1.125
-1.145
-1.135
-1.15
-1.155
-1.155
-1.17
-1.17
-1.18
-1.17
-1.155
-1.15
-1.145
-1.14
-1.145
-1.135
-1.13
-1.145
-1.155
-1.155
-1.14
-1.125
-1.12
-1.115
-1.095
-1.095
-1.1
-1.105
-1.105
-1.105
-1.105
-1.105
-1.11
-1.095
-1.105
-1.085
-1.085
-1.085
-1.09
-1.085
-1.09
-1.09
-1.105
-1.11
-1.105
-1.105
-1.095
-1.085
-1.08
-1.1
-1.095
-1.085
-1.11
-1.115
-1.125
-1.14
-1.14
-1.13
-1.115
-1.12
-1.095
-1.105
-1.11
-1.125
-1.125
-1.145
-1.155
-1.155
-1.145
-1.155
-1.14
-1.13
-1.125
-1.125
-1.125
-1.13
-1.14
-1.135
-1.145
-1.145
-1.17
-1.155
-1.14
-1.145
-1.125
-1.14
-1.14
-1.155
-1.16
-1.155
-1.16
-1.15
-1.155
-1.165
-1.15
-1.135
-1.12
-1.115
-1.13
-1.135
-1.16
-1.155
-1.16
-1.145
-1.155
-1.15
-1.15
-1.15
-1.14
-1.145
-1.16
-1.15
-1.165
-1.16
-1.18
-1.16
-1.18
-1.17
-1.155
-1.145
-1.13
-1.14
-1.14
-1.135
-1.145
-1.145
-1.145
-1.16
-1.16
-1.155
-1.145
-1.135
-1.13
-1.125
-1.13
-1.135
-1.135
-1.13
-1.145
-1.14
-1.145
-1.125
-1.125
-1.105
-1.11
-1.12
-1.085
-1.08
-1.075
-1.05
-1.04
-1.025
-0.995
-0.98
-0.975
-0.955
-0.945
-0.95
-0.98
-0.975
-1.02
-1.03
-1.055
-1.065
-1.065
-1.08
-1.08
-1.08
-1.09
-1.11
-1.125
-1.125
-1.145
-1.145
-1.145
-1.145
-1.145
-1.12
-1.125
-1.12
-1.11
-1.12
-1.125
-1.135
-1.14
-1.145
-1.15
-1.155
-1.16
-1.13
-1.13
-1.115
-1.105
-1.11
-1.12
-1.12
-1.145
-1.16
-1.2
-1.19
-1.15
-1.045
-0.87
-0.63
-0.305
0.065
0.455
0.765
0.965
1.065
1.04
0.91
0.665
0.285
-0.225
-0.745
-1.105
-1.25
-1.225
-1.115
-0.965
-0.87
-0.85
-0.875
-0.925
-0.995
-1.045
-1.075
-1.07
-1.09
-1.1
-1.1
-1.095
-1.105
-1.115
-1.115
-1.125
-1.11
-1.105
-1.11
-1.115
-1.095
-1.095
-1.105
-1.11
-1.13
-1.145
-1.135
-1.145
-1.14
-1.12
-1.13
-1.105
-1.125
-1.105
-1.12
-1.135
-1.13
-1.155
-1.145
-1.13
-1.13
-1.125
-1.11
-1.105
-1.09
-1.105
-1.105
-1.115
-1.12
-1.11
-1.13
-1.12
-1.12
-1.095
-1.08
-1.06
-1.055
-1.05
-1.05
-1.05
-1.05
-1.05
-1.04
-1.05
-1.035
-1.01
-0.99
-0.985
-0.95
-0.945
-0.945
-0.94
-0.925
-0.91
-0.885
-0.87
-0.85
-0.815
-0.78
-0.76
-0.73
-0.72
-0.71
-0.705
-0.69
-0.68
-0.66
-0.63
-0.615
-0.58
-0.555
-0.535
-0.53
-0.52
-0.515
-0.515
-0.53
-0.535
-0.54
-0.555
-0.55
-0.555
-0.58
-0.585
-0.615
-0.68
-0.705
-0.755
-0.785
-0.82
-0.85
-0.88
-0.905
-0.925
-0.94
-0.96
-0.975
-1.0
-1.025
-1.045
-1.06
-1.085
-1.11
-1.095
-1.095
-1.09
-1.085
-1.085
-1.09
-1.11
-1.09
-1.105
-1.105
-1.11
-1.115
-1.11
-1.105
-1.095
-1.1
-1.085
-1.11
-1.09
-1.105
-1.105
-1.095
-1.105
-1.12
-1.105
-1.085
-1.065
-1.06
-1.06
-1.04
-1.055
-1.05
-1.065
-1.07
-1.1
-1.105
-1.085
-1.06
-1.025
-0.955
-0.845
-0.715
-0.57
-0.42
-0.265
-0.095
0.1
0.295
0.51
0.745
0.965
1.17
1.33
1.485
1.605
1.68
1.72
1.72
1.715
1.67
1.625
1.565
1.5
1.445
1.42
1.43
1.435
1.425
1.4
1.345
1.23
1.085
0.92
0.735
0.5
0.205
-0.15
-0.53
-0.89
-1.145
-1.28
-1.3
-1.295
-1.29
-1.28
-1.285
-1.325
-1.375
-1.425
-1.44
-1.47
-1.495
-1.515
-1.54
-1.555
-1.585
-1.595
-1.585
-1.595
-1.585
-1.61
-1.605
-1.625
-1.65
-1.655
-1.67
-1.705
-1.705
-1.725
-1.735
-1.725
-1.735
-1.735
-1.745
-1.77
-1.805
-1.83
-1.855
-1.875
-1.9
-1.91
-1.91
-1.935
-1.95
-1.97
-1.98
-2.01
-2.035
-2.065
-2.1
-2.135
-2.175
-2.16
-2.165
-2.185
-2.19
-2.205
-2.23
-2.25
-2.24
-2.245
-2.25
-2.255
-2.26
-2.27
-2.27
-2.27
-2.26
-2.27
-2.29
-2.315
-2.325
-2.335
-2.345
-2.335
-2.33
-2.31
-2.3
-2.275
-2.26
-2.22
-2.19
-2.165
-2.11
-2.07
-2.015
-1.98
-1.92
-1.875
-1.815
-1.76
-1.695
-1.645
-1.595
-1.565
-1.51
-1.49
-1.46
-1.44
-1.415
-1.405
-1.38
-1.37
-1.35
-1.335
-1.32
-1.325
-1.315
-1.31
-1.335
-1.315
-1.335
-1.335
-1.32
-1.32
-1.32
-1.3
-1.3
-1.29
-1.29
-1.29
-1.285
-1.315
-1.3
-1.31
-1.295
-1.31
-1.27
-1.27
-1.27
-1.265
-1.26
-1.265
-1.265
-1.29
-1.285
-1.28
-1.28
-1.255
-1.255
-1.245
-1.24
-1.225
-1.225
-1.235
-1.255
-1.25
-1.245
-1.235
-1.22
-1.215
-1.215
-1.21
-1.195
-1.2
-1.195
-1.215
-1.2
-1.205
-1.21
-1.2
-1.2
-1.18
-1.185
-1.175
-1.15
-1.165
-1.165
-1.175
-1.18
-1.185
-1.195
-1.195
-1.185
-1.165
-1.165
-1.155
-1.145
-1.145
-1.155
-1.17
-1.175
-1.18
-1.185
-1.185
-1.19
-1.175
-1.155
-1.17
-1.15
-1.17
-1.175
-1.185
-1.185
-1.185
-1.18
-1.17
-1.165
-1.175
-1.17
-1.17
-1.15
-1.155
-1.16
-1.16
-1.175
-1.165
-1.175
-1.165
-1.175
-1.15
-1.145
-1.13
-1.135
-1.135
-1.135
-1.15
-1.14
-1.14
-1.15
-1.15
-1.15
-1.13
-1.125
-1.125
-1.115
-1.115
-1.13
-1.15
-1.14
-1.16
-1.145
-1.15
-1.145
-1.14
-1.12
-1.11
-1.105
-1.105
-1.14
-1.14
-1.135
-1.12
-1.13
-1.13
-1.12
-1.105
-1.105
-1.095
-1.085
-1.085
-1.095
-1.1
-1.095
-1.115
-1.11
-1.11
-1.1
-1.09
-1.075
-1.06
-1.05
-1.06
-1.06
-1.065
-1.075
-1.095
-1.08
-1.095
-1.09
-1.08
-1.07
-1.065
-1.07
-1.08
-1.06
-1.07
-1.065
-1.085
-1.085
-1.08
-1.075
-1.06
-1.05
-1.045
-1.045
-1.045
-1.055
-1.07
-1.065
-1.08
-1.08
-1.09
-1.07
-1.065
-1.055
-1.035
-1.025
-1.03
-1.04
-1.045
-1.06
-1.055
-1.05
-1.055
-1.065
-1.045
-1.03
-1.015
-1.02
-1.025
-1.035
-1.035
-1.035
-1.035
-1.03
-1.03
-1.04
-1.025
-1.01
-1.005
-0.995
-1.005
-1.005
-1.01
-1.015
-1.015
-1.025
-1.025
-1.005
-1.0
-1.0
-1.005
-1.0
-0.985
-0.99
-0.995
-1.0
-1.0
-1.02
-1.03
-1.015
-1.01
-0.985
-0.985
-0.975
-0.98
-0.97
-1.0
-1.015
-1.035
-1.03
-1.02
-1.0
-0.995
-0.985
-0.98
-0.965
-0.98
-0.98
-0.99
-0.995
-0.995
-1.005
-1.0
-1.005
-0.995
-0.985
-0.96
-0.96
-0.97
-0.97
-0.965
-0.975
-0.97
-0.985
-0.99
-0.99
-0.965
