Lead II
-0.175
-0.17
-0.145
-0.13
-0.13
-0.16
-0.165
-0.16
-0.16
-0.155
-0.165
-0.175
-0.175
-0.175
-0.16
-0.13
-0.14
-0.14
-0.16
-0.14
-0.15
-0.14
-0.135
-0.15
-0.155
-0.15
-0.15
-0.14
-0.145
-0.17
-0.18
-0.17
-0.15
-0.13
-0.145
-0.16
-0.17
-0.16
-0.14
-0.145
-0.14
-0.16
-0.155
-0.155
-0.14
-0.135
-0.125
-0.125
-0.115
-0.105
-0.065
-0.025
0.055
0.265
0.665
1.13
1.335
1.23
0.975
0.785
0.73
0.68
0.625
0.54
0.42
0.3
0.175
0.06
-0.055
-0.175
-0.315
-0.46
-0.595
-0.725
-0.86
-0.995
-1.155
-1.3
-1.41
-1.49
-1.55
-1.61
-1.68
-1.735
-1.77
-1.77
-1.75
-1.715
-1.675
-1.66
-1.62
-1.53
-1.42
-1.29
-1.15
-1.0
-0.9
-0.805
-0.775
-0.755
-0.74
-0.685
-0.63
-0.535
-0.455
-0.39
-0.315
-0.255
-0.185
-0.125
-0.04
0.015
0.06
0.075
0.105
0.125
0.16
0.17
0.18
0.17
0.175
0.185
0.205
0.23
0.225
0.215
0.215
0.235
0.25
0.26
0.25
0.255
0.26
0.28
0.305
0.32
0.32
0.325
0.335
0.36
0.37
0.395
0.405
0.41
0.42
0.445
0.48
0.5
0.515
0.52
0.525
0.545
0.61
0.625
0.65
0.66
0.665
0.69
0.725
0.755
0.775
0.79
0.795
0.825
0.85
0.865
0.875
0.885
0.88
0.895
0.915
0.92
0.905
0.92
0.905
0.89
0.915
0.9
0.885
0.855
0.83
0.795
0.785
0.77
0.735
0.68
0.66
0.62
0.595
0.56
0.515
0.455
0.405
0.375
0.355
0.335
0.285
0.245
0.2
0.18
0.165
0.145
0.135
0.1
0.07
0.055
0.06
0.035
0.02
-0.02
-0.025
-0.035
-0.045
-0.05
-0.07
-0.08
-0.105
-0.105
-0.1
-0.09
-0.095
-0.12
-0.125
-0.135
-0.125
-0.145
-0.145
-0.155
-0.16
-0.17
-0.15
-0.135
-0.14
-0.155
-0.165
-0.15
-0.14
-0.135
-0.145
-0.175
-0.17
-0.175
-0.17
-0.145
-0.16
-0.18
-0.185
-0.175
-0.165
-0.175
-0.17
-0.19
-0.19
-0.175
-0.16
-0.155
-0.165
-0.185
-0.18
-0.18
-0.19
-0.18
-0.185
-0.19
-0.21
-0.2
-0.185
-0.19
-0.18
-0.2
-0.22
-0.21
-0.2
-0.19
-0.19
-0.22
-0.22
-0.215
-0.205
-0.205
-0.2
-0.235
-0.23
-0.22
-0.205
-0.2
-0.21
-0.225
-0.23
-0.235
-0.215
-0.22
-0.225
-0.245
-0.255
-0.235
-0.23
-0.225
-0.215
-0.225
-0.24
-0.225
-0.21
-0.2
-0.21
-0.205
-0.215
-0.22
-0.19
-0.185
-0.195
-0.21
-0.215
-0.21
-0.2
-0.195
-0.2
-0.21
-0.215
-0.21
-0.205
-0.205
-0.215
-0.225
-0.22
-0.22
-0.21
-0.18
-0.195
-0.215
-0.225
-0.215
-0.19
-0.2
-0.2
-0.22
-0.215
-0.22
-0.2
-0.205
-0.21
-0.21
-0.185
-0.15
-0.085
0.01
0.225
0.605
1.075
1.31
1.185
0.94
0.76
0.695
0.645
0.58
0.515
0.44
0.325
0.195
0.05
-0.075
-0.185
-0.29
-0.43
-0.58
-0.72
-0.86
-0.995
-1.125
-1.26
-1.38
-1.495
-1.55
-1.615
-1.67
-1.72
-1.77
-1.8
-1.785
-1.765
-1.71
-1.66
-1.635
-1.56
-1.445
-1.29
-1.135
-1.005
-0.9
-0.835
-0.81
-0.77
-0.75
-0.7
-0.645
-0.6
-0.53
-0.45
-0.38
-0.31
-0.26
-0.19
-0.13
-0.05
-0.01
0.035
0.055
0.08
0.1
0.115
0.155
0.17
0.165
0.155
0.16
0.16
0.185
0.185
0.19
0.19
0.215
0.225
0.24
0.245
0.225
0.24
0.245
0.275
0.295
0.28
0.285
0.305
0.315
0.34
0.365
0.375
0.36
0.365
0.395
0.42
0.44
0.445
0.445
0.455
0.48
0.525
0.54
0.565
0.575
0.585
0.62
0.66
0.695
0.69
0.69
0.705
0.74
0.76
0.795
0.78
0.78
0.785
0.815
0.82
0.83
0.82
0.82
0.81
0.82
0.82
0.83
0.81
0.775
0.77
0.755
0.745
0.735
0.7
0.665
0.62
0.6
0.59
0.56
0.5
0.455
0.405
0.36
0.33
0.28
0.255
0.2
0.16
0.15
0.145
0.13
0.105
0.07
0.035
0.025
0.015
0.01
-0.025
-0.06
-0.075
-0.08
-0.085
-0.085
-0.095
-0.115
-0.135
-0.135
-0.125
-0.135
-0.15
-0.145
-0.165
-0.18
-0.165
-0.165
-0.185
-0.195
-0.2
-0.185
-0.18
-0.17
-0.185
-0.18
-0.195
-0.195
-0.19
-0.185
-0.205
-0.225
-0.22
-0.23
-0.215
-0.195
-0.2
-0.21
-0.21
-0.2
-0.195
-0.19
-0.2
-0.23
-0.26
-0.25
-0.255
-0.225
-0.245
-0.245
-0.26
-0.25
-0.245
-0.24
-0.25
-0.255
-0.275
-0.275
-0.25
-0.255
-0.275
-0.285
-0.295
-0.3
-0.285
-0.285
-0.28
-0.285
-0.295
-0.29
-0.28
-0.275
-0.28
-0.31
-0.315
-0.32
-0.31
-0.305
-0.32
-0.315
-0.31
-0.305
-0.28
-0.295
-0.3
-0.305
-0.315
-0.315
-0.3
-0.295
-0.305
-0.32
-0.315
-0.32
-0.3
-0.29
-0.295
-0.31
-0.32
-0.325
-0.29
-0.295
-0.3
-0.32
-0.335
-0.325
-0.315
-0.305
-0.315
-0.325
-0.33
-0.33
-0.31
-0.3
-0.295
-0.31
-0.32
-0.32
-0.305
-0.29
-0.305
-0.32
-0.315
-0.305
-0.29
-0.3
-0.295
-0.285
-0.285
-0.26
-0.21
-0.19
-0.135
-0.015
0.305
0.8
1.175
1.195
0.955
0.735
0.615
0.555
0.5
0.43
0.33
0.225
0.115
0.005
-0.105
-0.21
-0.35
-0.5
-0.64
-0.765
-0.885
-1.015
-1.135
-1.295
-1.425
-1.54
-1.615
-1.68
-1.765
-1.855
-1.915
-1.95
-1.98
-1.99
-1.985
-1.98
-1.94
-1.895
-1.825
-1.77
-1.68
-1.585
-1.47
-1.33
-1.185
-1.045
-0.97
-0.925
-0.905
-0.855
-0.8
-0.735
-0.685
-0.645
-0.59
-0.535
-0.455
-0.375
-0.315
-0.28
-0.225
-0.175
-0.12
-0.08
-0.065
-0.08
-0.06
-0.025
0.005
0.025
0.02
0.035
0.025
0.05
0.07
0.085
0.08
0.075
0.07
0.075
0.11
0.135
0.145
0.135
0.115
0.13
0.155
0.175
0.195
0.195
0.19
0.23
0.245
0.28
0.27
0.285
0.29
0.315
0.33
0.36
0.37
0.37
0.38
0.41
0.45
0.46
0.48
0.47
0.485
0.51
0.545
0.57
0.58
0.59
0.59
0.625
0.66
0.67
0.685
0.675
0.69
0.71
0.735
0.745
0.745
0.735
0.745
0.755
0.77
0.765
0.745
0.725
0.705
0.7
0.7
0.7
0.675
0.61
0.58
0.56
0.525
0.495
0.45
0.405
0.35
0.31
0.275
0.225
0.18
0.13
0.075
0.055
0.04
0.02
-0.025
-0.08
-0.13
-0.14
-0.15
-0.17
-0.2
-0.235
-0.275
-0.275
-0.285
-0.28
-0.315
-0.355
-0.37
-0.375
-0.37
-0.375
-0.395
-0.41
-0.425
-0.42
-0.415
-0.415
-0.44
-0.465
-0.475
-0.475
-0.46
-0.475
-0.45
-0.47
-0.48
-0.47
-0.455
-0.44
-0.445
-0.455
-0.45
-0.445
-0.43
-0.42
-0.435
-0.445
-0.47
-0.455
-0.455
-0.45
-0.475
-0.475
-0.495
-0.475
-0.455
-0.47
-0.465
-0.495
-0.505
-0.52
-0.51
-0.485
-0.495
-0.51
-0.51
-0.515
-0.505
-0.52
-0.52
-0.55
-0.555
-0.545
-0.535
-0.54
-0.54
-0.57
-0.58
-0.565
-0.555
-0.545
-0.56
-0.58
-0.605
-0.595
-0.59
-0.58
-0.585
-0.59
-0.61
-0.575
-0.57
-0.565
-0.575
-0.58
-0.6
-0.59
-0.565
-0.57
-0.59
-0.6
-0.6
-0.59
-0.575
-0.575
-0.575
-0.59
-0.6
-0.58
-0.58
-0.575
-0.585
-0.59
-0.59
-0.585
-0.575
-0.58
-0.575
-0.6
-0.605
-0.595
-0.595
-0.6
-0.615
-0.62
-0.63
-0.62
-0.63
-0.615
-0.62
-0.63
-0.62
-0.6
-0.595
-0.605
-0.62
-0.63
-0.645
-0.625
-0.61
-0.595
-0.63
-0.645
-0.645
-0.655
-0.635
-0.64
-0.64
-0.65
-0.64
-0.62
-0.61
-0.595
-0.595
-0.61
-0.61
-0.59
-0.565
-0.57
-0.55
-0.52
-0.465
-0.325
-0.065
0.355
0.78
1.025
1.015
0.825
0.64
0.505
0.43
0.36
0.28
0.205
0.12
0.05
-0.045
-0.13
-0.22
-0.295
-0.385
-0.47
-0.585
-0.695
-0.83
-0.92
-1.015
-1.12
-1.245
-1.37
-1.485
-1.59
-1.69
-1.74
-1.835
-1.895
-1.97
-2.015
-2.055
-2.115
-2.16
-2.195
-2.215
-2.225
-2.225
-2.165
-2.15
-2.14
-2.1
-2.02
-1.925
-1.85
-1.755
-1.67
-1.565
-1.45
-1.345
-1.27
-1.245
-1.225
-1.18
-1.13
-1.065
-1.0
-0.96
-0.92
-0.885
-0.81
-0.735
-0.675
-0.635
-0.59
-0.535
-0.495
-0.45
-0.395
-0.4
-0.38
-0.37
-0.36
-0.37
-0.335
-0.335
-0.32
-0.315
-0.28
-0.25
-0.24
-0.235
-0.245
-0.25
-0.235
-0.21
-0.2
-0.21
-0.23
-0.215
-0.21
-0.195
-0.165
-0.18
-0.17
-0.16
-0.14
-0.115
-0.1
-0.105
-0.11
-0.11
-0.1
-0.06
-0.05
-0.045
-0.045
-0.04
-0.035
-0.015
0.005
0.015
0.01
0.025
0.055
0.08
0.11
0.12
0.115
0.13
0.145
0.185
0.19
0.21
0.225
0.24
0.27
0.29
0.3
0.315
0.32
0.335
0.375
0.41
0.445
0.445
0.46
0.45
0.48
0.5
0.505
0.51
0.5
0.49
0.5
0.53
0.535
0.54
0.51
0.505
0.51
0.53
0.505
0.485
0.455
0.445
0.425
0.41
0.39
0.35
0.32
0.28
0.25
0.24
0.2
0.165
0.11
0.075
0.04
0.025
0.005
-0.05
-0.105
-0.135
-0.17
-0.18
-0.21
-0.24
-0.28
-0.31
-0.325
-0.335
-0.365
-0.39
-0.41
-0.43
-0.425
-0.435
-0.43
-0.46
-0.48
-0.505
-0.505
-0.505
-0.495
-0.505
-0.52
-0.53
-0.535
-0.515
-0.515
-0.535
-0.545
-0.53
-0.535
-0.53
-0.52
-0.535
-0.555
-0.545
-0.54
-0.53
-0.52
-0.525
-0.54
-0.55
-0.54
-0.52
-0.52
-0.55
-0.56
-0.555
-0.56
-0.555
-0.54
-0.54
-0.58
-0.565
-0.56
-0.55
-0.545
-0.555
-0.575
-0.58
-0.58
-0.565
-0.56
-0.56
-0.585
-0.58
-0.585
-0.59
-0.585
-0.6
-0.615
-0.625
-0.61
-0.615
-0.605
-0.605
-0.615
-0.605
-0.605
-0.59
-0.59
-0.59
-0.595
-0.605
-0.585
-0.585
-0.59
-0.605
-0.6
-0.605
-0.6
-0.58
-0.59
-0.6
-0.61
-0.61
-0.6
-0.585
-0.585
-0.6
-0.61
-0.615
-0.605
-0.59
-0.595
-0.605
-0.61
-0.62
-0.615
-0.6
-0.595
-0.605
-0.625
-0.64
-0.62
-0.605
-0.595
-0.615
-0.625
-0.63
-0.62
-0.61
-0.6
-0.61
-0.625
-0.645
-0.625
-0.61
-0.595
-0.6
-0.605
-0.62
-0.6
-0.585
-0.58
-0.59
-0.6
-0.61
-0.61
-0.585
-0.565
-0.57
-0.58
-0.585
-0.57
-0.56
-0.55
-0.555
-0.545
-0.565
-0.555
-0.54
-0.53
-0.545
-0.545
-0.55
-0.53
-0.5
-0.48
-0.435
-0.33
-0.1
0.365
0.905
1.105
0.935
0.62
0.435
0.37
0.345
0.275
0.17
0.055
-0.025
-0.115
-0.21
-0.315
-0.45
-0.575
-0.69
-0.77
-0.855
-0.97
-1.1
-1.255
-1.385
-1.49
-1.575
-1.635
-1.715
-1.78
-1.84
-1.89
-1.92
-1.93
-1.965
-2.0
-1.985
-1.945
-1.895
-1.86
-1.825
-1.8
-1.725
-1.615
-1.495
-1.36
-1.245
-1.17
-1.115
-1.09
-1.055
-1.01
-0.99
-0.945
-0.895
-0.825
-0.75
-0.695
-0.665
-0.615
-0.575
-0.5
-0.44
-0.39
-0.36
-0.35
-0.315
-0.285
-0.245
-0.215
-0.2
-0.205
-0.19
-0.16
-0.145
-0.13
-0.12
-0.135
-0.145
-0.115
-0.1
-0.08
-0.09
-0.085
-0.085
-0.06
-0.035
-0.03
-0.02
-0.03
-0.01
0.005
0.035
0.035
0.035
0.03
0.045
0.07
0.09
0.13
0.135
0.145
0.155
0.185
0.21
0.235
0.245
0.26
0.28
0.315
0.34
0.37
0.38
0.39
0.395
0.405
0.45
0.47
0.485
0.49
0.51
0.54
0.57
0.6
0.6
0.615
0.615
0.64
0.66
0.675
0.635
0.635
0.63
0.625
0.64
0.645
0.625
0.57
0.57
0.54
0.515
0.5
0.44
0.415
0.37
0.355
0.32
0.29
0.235
0.18
0.135
0.11
0.09
0.06
0.015
-0.03
-0.08
-0.095
-0.105
-0.135
-0.16
-0.22
-0.25
-0.27
-0.265
-0.295
-0.315
-0.34
-0.35
-0.35
-0.34
-0.335
-0.35
-0.36
-0.375
-0.385
-0.35
-0.355
-0.37
-0.39
-0.395
-0.375
-0.36
-0.355
-0.37
-0.375
-0.385
-0.38
-0.375
-0.37
-0.375
-0.4
-0.395
-0.395
-0.38
-0.375
-0.39
-0.405
-0.41
-0.395
-0.38
-0.37
-0.385
-0.41
-0.405
-0.39
-0.38
-0.385
-0.405
-0.42
-0.435
-0.435
-0.425
-0.425
-0.46
-0.47
-0.48
-0.465
-0.445
-0.445
-0.44
-0.465
-0.465
-0.43
-0.42
-0.425
-0.425
-0.445
-0.465
-0.47
-0.45
-0.45
-0.445
-0.455
-0.46
-0.45
-0.44
-0.43
-0.45
-0.45
-0.455
-0.46
-0.44
-0.455
-0.46
-0.46
-0.47
-0.455
-0.435
-0.445
-0.45
-0.455
-0.46
-0.445
-0.44
-0.43
-0.44
-0.46
-0.465
-0.445
-0.45
-0.435
-0.435
-0.46
-0.465
-0.455
-0.45
-0.445
-0.46
-0.45
-0.445
-0.435
-0.415
-0.405
-0.425
-0.43
-0.43
-0.425
-0.405
-0.405
-0.415
-0.425
-0.44
-0.42
-0.4
-0.395
-0.4
-0.41
-0.42
-0.4
-0.405
-0.415
-0.41
-0.41
-0.4
-0.375
-0.36
-0.345
-0.35
-0.36
-0.355
-0.34
-0.295
-0.24
-0.115
0.125
0.555
1.01
1.21
1.07
0.795
0.63
0.555
0.5
0.435
0.36
0.28
0.195
0.1
0.03
-0.05
-0.135
-0.245
-0.38
-0.495
-0.605
-0.695
-0.805
-0.955
-1.105
-1.25
-1.37
-1.455
-1.545
-1.635
-1.705
-1.79
-1.83
-1.84
-1.855
-1.855
-1.865
-1.84
-1.815
-1.775
-1.715
-1.66
-1.58
-1.495
-1.385
-1.255
-1.115
-1.025
-0.995
-0.95
-0.89
-0.835
-0.77
-0.715
-0.68
-0.61
-0.555
-0.47
-0.39
-0.33
-0.265
-0.22
-0.17
-0.12
-0.1
-0.075
-0.07
-0.045
-0.02
-0.01
0.0
0.01
-0.01
-0.01
0.015
0.02
0.04
0.045
0.04
0.035
0.055
0.08
0.09
0.09
0.08
0.08
0.09
0.11
0.125
0.125
0.12
0.13
0.165
0.19
0.215
0.225
0.225
0.235
0.255
0.275
0.3
0.3
0.33
0.37
0.385
0.425
0.455
0.46
0.48
0.5
0.53
0.57
0.585
0.61
0.615
0.615
0.67
0.695
0.71
0.715
0.715
0.715
0.725
0.745
0.76
0.745
0.74
0.73
0.715
0.705
0.71
0.67
0.62
0.605
0.585
0.595
0.565
0.52
0.475
0.43
0.395
0.375
0.33
0.28
0.235
0.205
0.18
0.175
0.15
0.085
0.045
0.01
-0.005
-0.015
-0.045
-0.06
-0.09
-0.13
-0.13
-0.14
-0.14
-0.16
-0.185
-0.21
-0.2
-0.2
-0.205
-0.21
-0.22
-0.24
-0.235
-0.235
-0.24
-0.25
-0.275
-0.28
-0.29
-0.275
-0.25
-0.28
-0.27
-0.275
-0.275
-0.26
-0.265
-0.28
-0.305
-0.31
-0.295
-0.28
-0.28
-0.275
-0.29
-0.285
-0.275
-0.265
-0.26
-0.255
-0.265
-0.275
-0.29
-0.26
-0.265
-0.285
-0.295
-0.305
-0.285
-0.275
-0.285
-0.295
-0.315
-0.31
-0.305
-0.305
-0.3
-0.315
-0.335
-0.35
-0.34
-0.335
-0.325
-0.345
-0.355
-0.37
-0.36
-0.325
-0.33
-0.335
-0.355
-0.365
-0.355
-0.35
-0.35
-0.36
-0.37
-0.375
-0.375
-0.36
-0.35
-0.34
-0.355
-0.355
-0.35
-0.365
-0.355
-0.355
-0.365
-0.375
-0.37
-0.35
-0.355
-0.37
-0.38
-0.38
-0.38
-0.37
-0.365
-0.38
-0.395
-0.385
-0.385
-0.38
-0.365
-0.38
-0.405
-0.415
-0.41
-0.42
-0.405
-0.425
-0.415
-0.415
-0.395
-0.385
-0.38
-0.385
-0.4
-0.41
-0.39
-0.385
-0.39
-0.385
-0.4
-0.39
-0.395
-0.375
-0.36
-0.36
-0.385
-0.37
-0.34
-0.305
-0.27
-0.175
0.03
0.41
0.895
1.165
1.08
0.83
0.62
0.535
0.465
0.405
0.32
0.21
0.095
-0.005
-0.12
-0.22
-0.35
-0.47
-0.6
-0.71
-0.815
-0.935
-1.055
-1.21
-1.365
-1.455
-1.54
-1.605
-1.66
-1.745
-1.82
-1.855
-1.875
-1.88
-1.88
-1.88
-1.865
-1.835
-1.79
-1.735
-1.66
-1.565
-1.455
-1.345
-1.21
-1.125
-1.065
-1.055
-1.07
-1.025
-0.97
-0.91
-0.86
-0.795
-0.76
-0.705
-0.655
-0.57
-0.505
-0.445
-0.4
-0.37
-0.34
-0.3
-0.27
-0.255
-0.245
-0.24
-0.24
-0.22
-0.205
-0.215
-0.195
-0.21
-0.18
-0.175
-0.16
-0.155
-0.155
-0.16
-0.15
-0.13
-0.13
-0.135
-0.13
-0.12
-0.11
-0.095
-0.08
-0.085
-0.085
-0.07
-0.05
-0.03
-0.015
-0.015
-0.005
0.0
0.005
0.045
0.06
0.05
0.07
0.085
0.105
0.135
0.15
0.16
0.185
0.19
0.235
0.265
0.285
0.295
0.305
0.32
0.35
0.375
0.395
0.395
0.4
0.41
0.42
0.44
0.445
0.435
0.41
0.39
0.38
0.355
0.36
0.32
0.31
0.27
0.25
0.23
0.18
0.13
0.08
0.035
0.01
-0.015
-0.055
-0.115
-0.16
-0.205
-0.245
-0.25
-0.26
-0.32
-0.365
-0.395
-0.395
-0.415
-0.435
-0.46
-0.495
-0.51
-0.52
-0.535
-0.545
-0.575
-0.585
-0.595
-0.6
-0.595
-0.595
-0.62
-0.63
-0.625
-0.635
-0.625
-0.63
-0.635
-0.67
-0.65
-0.66
-0.65
-0.645
-0.665
-0.67
-0.68
-0.67
-0.665
-0.65
-0.67
-0.685
-0.7
-0.69
-0.675
-0.66
-0.67
-0.685
-0.695
-0.69
-0.69
-0.675
-0.68
-0.705
-0.705
-0.695
-0.685
-0.69
-0.72
-0.735
-0.75
-0.735
-0.725
-0.715
-0.73
-0.745
-0.745
-0.74
-0.72
-0.715
-0.73
-0.73
-0.735
-0.73
-0.715
-0.725
-0.735
-0.745
-0.745
-0.735
-0.73
-0.725
-0.73
-0.735
-0.74
-0.725
-0.73
-0.72
-0.72
-0.73
-0.73
-0.735
-0.72
-0.71
-0.73
-0.735
-0.73
-0.73
-0.71
-0.72
-0.725
-0.735
-0.74
-0.735
-0.715
-0.705
-0.725
-0.745
-0.765
-0.73
-0.74
-0.73
-0.735
-0.745
-0.735
-0.73
-0.72
-0.715
-0.72
-0.725
-0.735
-0.73
-0.725
-0.72
-0.735
-0.755
-0.77
-0.76
-0.74
-0.72
-0.72
-0.725
-0.71
-0.68
-0.675
-0.67
-0.68
-0.69
-0.68
-0.675
-0.65
-0.635
-0.64
-0.62
-0.59
-0.545
-0.43
-0.21
0.18
0.65
0.94
0.875
0.615
0.38
0.275
0.185
0.115
0.05
-0.005
-0.06
-0.115
-0.165
-0.22
-0.24
-0.205
-0.145
-0.05
0.025
0.065
0.1
0.08
0.02
-0.08
-0.135
-0.18
-0.245
-0.35
-0.525
-0.725
-0.84
-0.835
-0.76
-0.665
-0.6
-0.59
-0.605
-0.625
-0.61
-0.6
-0.605
-0.62
-0.635
-0.65
-0.64
-0.635
-0.635
-0.655
-0.67
-0.68
-0.675
-0.68
-0.685
-0.71
-0.72
-0.735
-0.72
-0.7
-0.71
-0.72
-0.75
-0.75
-0.75
-0.73
-0.76
-0.76
-0.765
-0.77
-0.76
-0.75
-0.735
-0.765
-0.78
-0.785
-0.78
-0.76
-0.775
-0.78
-0.79
-0.785
-0.795
-0.775
-0.77
-0.785
-0.8
-0.8
-0.79
-0.79
-0.795
-0.815
-0.825
-0.83
-0.84
-0.83
-0.84
-0.855
-0.865
-0.885
-0.905
-0.9
-0.915
-0.935
-0.97
-0.985
-0.995
-1.0
-1.02
-1.035
-1.085
-1.09
-1.095
-1.09
-1.105
-1.12
-1.13
-1.145
-1.145
-1.15
-1.14
-1.18
-1.175
-1.17
-1.15
-1.125
-1.1
-1.08
-1.075
-1.045
-1.005
-0.975
-0.94
-0.925
-0.9
-0.89
-0.85
-0.825
-0.805
-0.795
-0.795
-0.795
-0.765
-0.735
-0.72
-0.725
-0.725
-0.72
-0.715
-0.705
-0.69
-0.69
-0.685
-0.69
-0.68
-0.655
-0.65
-0.665
-0.68
-0.66
-0.64
-0.625
-0.64
-0.63
-0.645
-0.65
-0.64
-0.635
-0.645
-0.64
-0.65
-0.65
-0.635
-0.605
-0.6
-0.61
-0.61
-0.615
-0.605
-0.595
-0.58
-0.595
-0.59
-0.605
-0.59
-0.57
-0.565
-0.585
-0.58
-0.59
-0.58
-0.565
-0.57
-0.585
-0.59
-0.585
-0.585
-0.58
-0.545
-0.575
-0.58
-0.575
-0.56
-0.55
-0.545
-0.555
-0.56
-0.55
-0.54
-0.52
-0.515
-0.52
-0.55
-0.555
-0.555
-0.555
-0.555
-0.565
-0.565
-0.57
-0.56
-0.565
-0.55
-0.535
-0.545
-0.565
-0.55
-0.535
-0.53
-0.535
-0.555
-0.55
-0.535
-0.53
-0.535
-0.53
-0.545
-0.55
-0.545
-0.54
-0.54
-0.56
-0.575
-0.565
-0.55
-0.535
-0.525
-0.525
-0.54
-0.54
-0.53
-0.515
-0.52
-0.51
-0.51
-0.52
-0.505
-0.485
-0.48
-0.5
-0.5
-0.515
-0.5
-0.48
-0.475
-0.485
-0.5
-0.505
-0.505
-0.495
-0.5
-0.51
-0.525
-0.515
-0.495
-0.49
-0.47
-0.46
-0.475
-0.485
-0.455
-0.435
-0.42
-0.415
-0.4
-0.35
-0.21
0.025
0.455
0.92
1.135
1.025
0.77
0.59
0.505
0.44
0.35
0.255
0.17
0.075
-0.03
-0.135
-0.26
-0.355
-0.445
-0.53
-0.635
-0.76
-0.875
-1.0
-1.12
-1.235
-1.34
-1.43
-1.515
-1.585
-1.63
-1.65
-1.675
-1.685
-1.665
-1.635
-1.57
-1.495
-1.425
-1.37
-1.33
-1.29
-1.215
-1.11
-1.02
-0.945
-0.875
-0.79
-0.685
-0.62
-0.535
-0.48
-0.43
-0.375
-0.345
-0.29
-0.29
-0.295
-0.315
-0.295
-0.27
-0.26
-0.245
-0.24
-0.255
-0.265
-0.25
-0.235
-0.225
-0.23
-0.235
-0.235
-0.215
-0.185
-0.185
-0.185
-0.2
-0.205
-0.2
-0.185
-0.18
-0.19
-0.205
-0.2
-0.195
-0.175
-0.145
-0.145
-0.145
-0.14
-0.13
-0.105
-0.085
-0.095
-0.095
-0.09
-0.075
-0.05
-0.02
-0.03
-0.015
-0.02
0.0
0.03
0.045
0.03
0.045
0.045
0.09
0.105
0.12
0.13
0.135
0.14
0.16
0.19
0.215
0.23
0.225
0.24
0.265
0.285
0.3
0.3
0.295
0.275
0.29
0.295
0.27
0.28
0.26
0.26
0.255
0.255
0.245
0.21
0.175
0.14
0.13
0.115
0.065
0.025
-0.015
-0.04
-0.06
-0.08
-0.11
-0.15
-0.2
-0.225
-0.26
-0.275
-0.285
-0.305
-0.35
-0.385
-0.39
-0.36
-0.37
-0.38
-0.405
-0.42
-0.42
-0.41
-0.405
-0.41
-0.43
-0.425
-0.42
-0.41
-0.395
-0.41
-0.42
-0.425
-0.43
-0.415
-0.425
-0.42
-0.44
-0.435
-0.43
-0.42
-0.425
-0.415
-0.435
-0.44
-0.425
-0.41
-0.41
-0.405
-0.405
-0.415
-0.41
-0.4
-0.39
-0.405
-0.415
-0.425
-0.415
-0.39
-0.395
-0.41
-0.415
-0.42
-0.4
-0.39
-0.4
-0.42
-0.435
-0.435
-0.435
-0.42
-0.425
-0.43
-0.455
-0.445
-0.425
-0.41
-0.42
-0.42
-0.435
-0.43
-0.44
-0.435
-0.445
-0.445
-0.465
-0.47
-0.465
-0.455
-0.46
-0.46
-0.485
-0.47
-0.465
-0.44
-0.45
-0.46
-0.47
-0.465
-0.455
-0.435
-0.445
-0.45
-0.455
-0.455
-0.46
-0.435
-0.43
-0.445
-0.455
-0.47
-0.45
-0.43
-0.435
-0.445
-0.46
-0.455
-0.455
-0.43
-0.435
-0.44
-0.46
-0.475
-0.455
-0.425
-0.425
-0.42
-0.43
-0.42
-0.42
-0.41
-0.4
-0.41
-0.44
-0.425
-0.425
-0.405
-0.415
-0.43
-0.45
-0.465
-0.445
-0.44
-0.405
-0.415
-0.435
-0.44
-0.42
-0.415
-0.405
-0.4
-0.405
-0.39
-0.38
-0.375
-0.37
-0.36
-0.375
-0.36
-0.36
-0.305
-0.245
-0.18
-0.045
0.28
0.78
1.175
1.21
0.965
0.725
0.605
0.555
0.515
0.425
0.35
0.255
0.16
0.085
-0.01
-0.11
-0.215
-0.33
-0.435
-0.53
-0.625
-0.73
-0.865
-0.995
-1.125
-1.24
-1.34
-1.435
-1.505
-1.585
-1.645
-1.7
-1.72
-1.745
-1.755
-1.765
-1.75
-1.705
-1.665
-1.625
-1.61
-1.565
-1.475
-1.36
-1.23
-1.1
-1.005
-0.95
-0.915
-0.895
-0.865
-0.82
-0.79
-0.75
-0.685
-0.61
-0.56
-0.495
-0.45
-0.405
-0.345
-0.29
-0.24
-0.21
-0.19
-0.175
-0.16
-0.15
-0.11
-0.08
-0.08
-0.08
-0.065
-0.05
-0.055
-0.045
-0.045
-0.05
-0.05
-0.035
-0.005
-0.01
-0.005
-0.01
-0.005
0.015
0.04
0.05
0.045
0.025
0.045
0.08
0.1
0.115
0.11
0.105
0.115
0.14
0.17
0.175
0.18
0.18
0.19
0.22
0.23
0.275
0.275
0.275
0.3
0.335
0.34
0.36
0.375
0.395
0.395
0.43
0.47
0.48
0.49
0.485
0.5
0.535
0.56
0.595
0.605
0.61
0.62
0.655
0.67
0.675
0.68
0.68
0.68
0.695
0.705
0.695
0.69
0.67
0.665
0.67
0.67
0.67
0.64
0.61
0.605
0.585
0.575
0.575
0.53
0.485
0.45
0.43
0.405
0.375
0.33
0.29
0.255
0.23
0.205
0.18
0.135
0.095
0.055
0.045
0.03
-0.005
-0.02
-0.06
-0.085
-0.1
-0.11
-0.13
-0.145
-0.18
-0.2
-0.205
-0.195
-0.21
-0.22
-0.24
-0.245
-0.24
-0.24
-0.24
-0.26
-0.285
-0.28
-0.275
-0.265
-0.265
-0.285
-0.305
-0.3
-0.295
-0.305
-0.315
-0.335
-0.35
-0.34
-0.335
-0.32
-0.3
-0.31
-0.31
-0.305
-0.29
-0.28
-0.28
-0.285
-0.315
-0.335
-0.305
-0.295
-0.295
-0.31
-0.325
-0.33
-0.33
-0.32
-0.315
-0.33
-0.335
-0.34
-0.34
-0.325
-0.315
-0.34
-0.35
-0.34
-0.335
-0.32
-0.33
-0.34
-0.355
-0.355
-0.35
-0.32
-0.33
-0.335
-0.345
-0.355
-0.345
-0.34
-0.34
-0.34
-0.36
-0.37
-0.36
-0.35
-0.365
-0.37
-0.39
-0.4
-0.38
-0.37
-0.36
-0.37
-0.375
-0.395
-0.36
-0.35
-0.35
-0.355
-0.375
-0.385
-0.37
-0.36
-0.365
-0.37
-0.385
-0.37
-0.36
-0.355
-0.35
-0.36
-0.39
-0.38
-0.365
-0.355
-0.37
-0.355
-0.38
-0.385
-0.385
-0.35
-0.355
-0.36
-0.38
-0.395
-0.36
-0.355
-0.35
-0.36
-0.37
-0.38
-0.375
-0.36
-0.36
-0.375
-0.375
-0.385
-0.375
-0.355
-0.355
-0.355
-0.365
-0.355
-0.34
-0.335
-0.33
-0.335
-0.365
-0.35
-0.345
-0.34
-0.34
-0.325
-0.34
-0.33
-0.32
-0.295
-0.29
-0.275
-0.265
-0.2
-0.075
0.165
0.55
0.945
1.18
1.125
0.92
0.76
0.65
0.605
0.535
0.46
0.39
0.33
0.24
0.13
0.01
-0.1
-0.235
-0.315
-0.44
-0.585
-0.73
-0.84
-0.97
-1.085
-1.21
-1.325
-1.415
-1.48
-1.535
-1.6
-1.645
-1.69
-1.73
-1.745
-1.75
-1.72
-1.71
-1.69
-1.665
-1.64
-1.585
-1.51
-1.42
-1.31
-1.205
-1.09
-0.97
-0.89
-0.845
-0.84
-0.855
-0.84
-0.78
-0.735
-0.69
-0.64
-0.605
-0.555
-0.495
-0.43
-0.38
-0.345
-0.295
-0.26
-0.195
-0.155
-0.135
-0.105
-0.095
-0.08
-0.055
-0.035
-0.015
-0.03
-0.025
-0.015
0.01
0.03
0.02
0.03
0.025
0.025
0.055
0.08
0.1
0.1
0.09
0.1
0.1
0.135
0.15
0.15
0.145
0.15
0.155
0.18
0.205
0.2
0.195
0.215
0.245
0.27
0.275
0.28
0.27
0.285
0.305
0.335
0.35
0.355
0.355
0.375
0.41
0.455
0.47
0.47
0.47
0.515
0.54
0.565
0.595
0.6
0.59
0.62
0.635
0.68
0.68
0.68
0.695
0.7
0.72
0.735
0.745
0.75
0.745
0.745
0.765
0.765
0.75
0.75
0.73
0.715
0.71
0.695
0.68
0.655
0.6
0.57
0.555
0.545
0.52
0.49
0.45
0.415
0.41
0.385
0.335
0.295
0.255
0.22
0.195
0.185
0.14
0.105
0.06
0.035
0.015
-0.005
-0.01
-0.04
-0.085
-0.095
-0.09
-0.085
-0.1
-0.125
-0.155
-0.17
-0.175
-0.17
-0.185
-0.2
-0.22
-0.22
-0.22
-0.185
-0.18
-0.2
-0.205
-0.205
-0.205
-0.19
-0.18
-0.21
-0.205
-0.21
-0.2
-0.19
-0.2
-0.22
-0.225
-0.245
-0.22
-0.21
-0.21
-0.225
-0.235
-0.23
-0.23
-0.205
-0.21
-0.23
-0.26
-0.245
-0.25
-0.23
-0.225
-0.245
-0.245
-0.25
-0.24
-0.225
-0.215
-0.24
-0.26
-0.255
-0.245
-0.235
-0.24
-0.245
-0.26
-0.275
-0.265
-0.24
-0.25
-0.265
-0.29
-0.31
-0.31
-0.295
-0.29
-0.305
-0.315
-0.32
-0.29
-0.265
-0.26
-0.265
-0.29
-0.285
-0.28
-0.27
-0.28
-0.28
-0.285
-0.29
-0.28
-0.27
-0.26
-0.29
-0.295
-0.3
-0.29
-0.27
-0.27
-0.29
-0.305
-0.31
-0.31
-0.29
-0.265
-0.28
-0.29
-0.31
-0.27
-0.27
-0.255
-0.27
-0.265
-0.275
-0.26
-0.25
-0.25
-0.275
-0.28
-0.285
-0.285
-0.27
-0.28
-0.295
-0.305
-0.315
-0.305
-0.28
-0.28
-0.28
-0.285
-0.28
-0.275
-0.255
-0.26
-0.26
-0.265
-0.27
-0.26
-0.25
-0.25
-0.26
-0.265
-0.265
-0.26
-0.265
-0.245
-0.255
-0.245
-0.24
-0.21
-0.18
-0.15
-0.125
-0.045
0.16
0.555
0.99
1.26
1.195
0.98
0.785
0.69
0.64
0.6
0.515
0.395
0.31
0.215
0.125
0.01
-0.11
-0.225
-0.35
-0.45
-0.55
-0.68
-0.795
-0.94
-1.055
-1.175
-1.26
-1.375
-1.465
-1.555
-1.61
-1.66
-1.715
-1.735
-1.765
-1.78
-1.77
-1.72
-1.675
-1.635
-1.595
-1.56
-1.445
-1.315
-1.17
-1.055
-0.97
-0.92
-0.88
-0.88
-0.84
-0.805
-0.77
-0.725
-0.66
-0.6
-0.525
-0.465
-0.405
-0.35
-0.29
-0.23
-0.175
-0.16
-0.12
-0.125
-0.095
-0.075
-0.045
-0.03
-0.05
-0.055
-0.02
0.01
0.035
0.035
0.025
0.035
0.045
0.06
0.065
0.085
0.085
0.065
0.06
0.07
0.1
0.1
0.095
0.08
0.095
0.115
0.145
0.16
0.16
0.16
0.17
0.205
0.23
0.235
0.245
0.25
0.265
0.295
0.325
0.365
0.36
0.38
0.4
0.425
0.46
0.475
0.485
0.485
0.505
0.535
0.58
0.605
0.62
0.625
0.64
0.665
0.67
0.67
0.67
0.665
0.665
0.68
0.69
0.69
0.66
0.635
0.62
0.615
0.61
0.57
0.535
0.505
0.455
0.43
0.4
0.375
0.32
0.265
0.23
0.195
0.175
0.135
0.085
0.04
0.0
-0.025
-0.045
-0.085
-0.13
-0.17
-0.2
-0.235
-0.245
-0.265
-0.29
-0.31
-0.335
-0.335
-0.33
-0.33
-0.36
-0.38
-0.385
-0.4
-0.38
-0.385
-0.4
-0.425
-0.425
-0.42
-0.405
-0.41
-0.425
-0.45
