Lead II
-0.83
-0.825
-0.815
-0.82
-0.815
-0.81
-0.81
-0.805
-0.815
-0.825
-0.825
-0.825
-0.825
-0.825
-0.835
-0.83
-0.82
-0.825
-0.83
-0.83
-0.835
-0.84
-0.84
-0.85
-0.85
-0.86
-0.845
-0.845
-0.85
-0.835
-0.835
-0.85
-0.85
-0.87
-0.865
-0.885
-0.865
-0.86
-0.86
-0.86
-0.86
-0.86
-0.855
-0.865
-0.865
-0.875
-0.88
-0.89
-0.88
-0.875
-0.875
-0.87
-0.885
-0.87
-0.875
-0.885
-0.895
-0.89
-0.895
-0.9
-0.905
-0.9
-0.895
-0.895
-0.88
-0.88
-0.875
-0.87
-0.875
-0.885
-0.885
-0.905
-0.915
-0.91
-0.895
-0.89
-0.9
-0.875
-0.86
-0.855
-0.845
-0.85
-0.855
-0.86
-0.855
-0.865
-0.87
-0.875
-0.88
-0.88
-0.88
-0.895
-0.885
-0.905
-0.925
-0.935
-0.925
-0.9
-0.89
-0.86
-0.85
-0.865
-0.86
-0.885
-0.9
-0.935
-0.96
-0.99
-1.01
-1.0
-1.01
-1.01
-0.995
-0.995
-0.99
-0.99
-1.0
-1.0
-1.025
-1.045
-1.06
-1.05
-1.045
-0.965
-0.86
-0.75
-0.65
-0.585
-0.54
-0.565
-0.655
-0.8
-0.965
-1.1
-1.12
-1.01
-0.795
-0.51
-0.205
0.09
0.355
0.59
0.805
0.98
1.105
1.175
1.17
1.135
1.04
0.92
0.725
0.5
0.26
0.005
-0.24
-0.525
-0.785
-1.01
-1.195
-1.325
-1.39
-1.4
-1.38
-1.345
-1.325
-1.305
-1.29
-1.285
-1.245
-1.23
-1.22
-1.22
-1.21
-1.21
-1.205
-1.22
-1.22
-1.24
-1.25
-1.255
-1.25
-1.255
-1.26
-1.245
-1.245
-1.23
-1.23
-1.22
-1.235
-1.23
-1.245
-1.265
-1.28
-1.275
-1.26
-1.26
-1.255
-1.26
-1.26
-1.27
-1.28
-1.28
-1.3
-1.32
-1.315
-1.32
-1.32
-1.325
-1.315
-1.32
-1.32
-1.34
-1.335
-1.365
-1.35
-1.37
-1.37
-1.38
-1.38
-1.385
-1.385
-1.385
-1.395
-1.4
-1.405
-1.4
-1.43
-1.435
-1.44
-1.445
-1.455
-1.44
-1.445
-1.45
-1.435
-1.44
-1.46
-1.47
-1.485
-1.475
-1.475
-1.475
-1.475
-1.49
-1.47
-1.46
-1.455
-1.42
-1.425
-1.425
-1.42
-1.405
-1.415
-1.405
-1.38
-1.37
-1.35
-1.33
-1.315
-1.305
-1.295
-1.28
-1.26
-1.255
-1.25
-1.225
-1.215
-1.2
-1.185
-1.165
-1.155
-1.135
-1.135
-1.125
-1.13
-1.145
-1.13
-1.13
-1.145
-1.155
-1.14
-1.135
-1.13
-1.135
-1.15
-1.155
-1.165
-1.19
-1.205
-1.22
-1.24
-1.235
-1.245
-1.255
-1.265
-1.27
-1.29
-1.315
-1.32
-1.335
-1.345
-1.375
-1.375
-1.385
-1.385
-1.38
-1.375
-1.385
-1.385
-1.405
-1.41
-1.42
-1.415
-1.415
-1.415
-1.41
-1.42
-1.405
-1.39
-1.395
-1.395
-1.39
-1.4
-1.4
-1.41
-1.41
-1.4
-1.39
-1.385
-1.375
-1.36
-1.355
-1.36
-1.355
-1.36
-1.38
-1.36
-1.37
-1.36
-1.345
-1.34
-1.33
-1.315
-1.33
-1.33
-1.33
-1.345
-1.335
-1.36
-1.345
-1.345
-1.33
-1.32
-1.315
-1.31
-1.32
-1.32
-1.335
-1.34
-1.33
-1.325
-1.325
-1.33
-1.33
-1.33
-1.33
-1.325
-1.33
-1.315
-1.325
-1.33
-1.325
-1.325
-1.325
-1.32
-1.32
-1.31
-1.305
-1.295
-1.3
-1.3
-1.305
-1.31
-1.32
-1.33
-1.33
-1.32
-1.32
-1.3
-1.305
-1.3
-1.3
-1.31
-1.31
-1.33
-1.315
-1.315
-1.315
-1.315
-1.315
-1.3
-1.3
-1.29
-1.3
-1.3
-1.3
-1.31
-1.31
-1.31
-1.3
-1.305
-1.3
-1.31
-1.295
-1.295
-1.295
-1.295
-1.3
-1.3
-1.305
-1.31
-1.305
-1.31
-1.3
-1.29
-1.295
-1.295
-1.3
-1.3
-1.3
-1.31
-1.3
-1.315
-1.305
-1.3
-1.29
-1.285
-1.285
-1.275
-1.28
-1.3
-1.295
-1.305
-1.31
-1.305
-1.31
-1.31
-1.305
-1.3
-1.285
-1.275
-1.285
-1.295
-1.295
-1.3
-1.305
-1.325
-1.31
-1.295
-1.305
-1.28
-1.275
-1.265
-1.265
-1.265
-1.265
-1.265
-1.28
-1.28
-1.295
-1.29
-1.285
-1.255
-1.245
-1.22
-1.225
-1.235
-1.24
-1.245
-1.24
-1.245
-1.255
-1.255
-1.245
-1.255
-1.255
-1.25
-1.255
-1.255
-1.26
-1.26
-1.245
-1.24
-1.23
-1.22
-1.21
-1.2
-1.215
-1.21
-1.24
-1.245
-1.27
-1.29
-1.32
-1.32
-1.315
-1.32
-1.32
-1.31
-1.305
-1.305
-1.3
-1.305
-1.31
-1.32
-1.345
-1.355
-1.36
-1.355
-1.335
-1.265
-1.185
-1.07
-0.975
-0.905
-0.86
-0.85
-0.905
-1.02
-1.18
-1.3
-1.35
-1.265
-1.045
-0.775
-0.455
-0.125
0.19
0.47
0.71
0.9
1.035
1.085
1.055
0.98
0.86
0.71
0.485
0.235
-0.02
-0.265
-0.515
-0.75
-0.985
-1.2
-1.37
-1.49
-1.57
-1.585
-1.59
-1.575
-1.55
-1.53
-1.505
-1.5
-1.475
-1.46
-1.43
-1.43
-1.415
-1.405
-1.4
-1.4
-1.42
-1.415
-1.43
-1.425
-1.435
-1.43
-1.42
-1.41
-1.415
-1.405
-1.415
-1.415
-1.415
-1.42
-1.435
-1.43
-1.435
-1.435
-1.425
-1.425
-1.425
-1.41
-1.41
-1.415
-1.44
-1.44
-1.445
-1.44
-1.455
-1.445
-1.455
-1.445
-1.445
-1.45
-1.45
-1.45
-1.46
-1.48
-1.485
-1.485
-1.485
-1.495
-1.485
-1.47
-1.47
-1.465
-1.48
-1.5
-1.49
-1.505
-1.515
-1.52
-1.535
-1.535
-1.53
-1.54
-1.545
-1.545
-1.55
-1.54
-1.56
-1.57
-1.58
-1.585
-1.585
-1.59
-1.585
-1.59
-1.585
-1.58
-1.585
-1.58
-1.59
-1.61
-1.6
-1.6
-1.6
-1.59
-1.585
-1.565
-1.555
-1.54
-1.535
-1.53
-1.535
-1.525
-1.51
-1.51
-1.5
-1.495
-1.465
-1.445
-1.43
-1.405
-1.405
-1.39
-1.385
-1.37
-1.355
-1.34
-1.325
-1.31
-1.29
-1.27
-1.255
-1.235
-1.22
-1.22
-1.21
-1.21
-1.21
-1.2
-1.205
-1.2
-1.185
-1.18
-1.18
-1.17
-1.175
-1.18
-1.195
-1.21
-1.225
-1.235
-1.245
-1.27
-1.265
-1.27
-1.28
-1.28
-1.29
-1.3
-1.31
-1.33
-1.34
-1.335
-1.35
-1.37
-1.375
-1.375
-1.37
-1.37
-1.38
-1.38
-1.385
-1.385
-1.395
-1.4
-1.395
-1.385
-1.38
-1.38
-1.375
-1.36
-1.36
-1.365
-1.375
-1.365
-1.375
-1.36
-1.37
-1.37
-1.355
-1.345
-1.34
-1.335
-1.33
-1.33
-1.34
-1.33
-1.34
-1.34
-1.345
-1.33
-1.325
-1.31
-1.305
-1.3
-1.31
-1.305
-1.315
-1.31
-1.32
-1.31
-1.315
-1.32
-1.3
-1.29
-1.285
-1.275
-1.275
-1.29
-1.295
-1.3
-1.305
-1.3
-1.305
-1.29
-1.275
-1.28
-1.28
-1.265
-1.27
-1.285
-1.305
-1.295
-1.295
-1.3
-1.295
-1.285
-1.27
-1.28
-1.275
-1.26
-1.265
-1.27
-1.27
-1.275
-1.275
-1.27
-1.28
-1.28
-1.27
-1.27
-1.25
-1.25
-1.245
-1.25
-1.245
-1.255
-1.27
-1.27
-1.28
-1.26
-1.26
-1.255
-1.25
-1.235
-1.24
-1.25
-1.26
-1.265
-1.26
-1.26
-1.265
-1.255
-1.26
-1.25
-1.245
-1.235
-1.245
-1.24
-1.255
-1.25
-1.25
-1.265
-1.255
-1.26
-1.255
-1.25
-1.245
-1.245
-1.23
-1.245
-1.25
-1.24
-1.25
-1.25
-1.25
-1.245
-1.24
-1.225
-1.22
-1.225
-1.235
-1.225
-1.235
-1.23
-1.24
-1.24
-1.25
-1.24
-1.24
-1.24
-1.23
-1.215
-1.225
-1.23
-1.235
-1.225
-1.23
-1.245
-1.24
-1.24
-1.225
-1.22
-1.22
-1.215
-1.215
-1.22
-1.22
-1.235
-1.23
-1.23
-1.245
-1.245
-1.23
-1.225
-1.23
-1.225
-1.22
-1.215
-1.21
-1.22
-1.22
-1.23
-1.21
-1.22
-1.2
-1.19
-1.19
-1.175
-1.19
-1.2
-1.2
-1.195
-1.19
-1.18
-1.165
-1.17
-1.15
-1.155
-1.14
-1.13
-1.14
-1.15
-1.175
-1.19
-1.205
-1.205
-1.19
-1.19
-1.175
-1.16
-1.145
-1.12
-1.115
-1.095
-1.115
-1.115
-1.145
-1.155
-1.18
-1.205
-1.215
-1.22
-1.22
-1.21
-1.22
-1.225
-1.225
-1.225
-1.235
-1.235
-1.245
-1.245
-1.245
-1.24
-1.245
-1.25
-1.26
-1.255
-1.205
-1.135
-1.035
-0.945
-0.865
-0.8
-0.755
-0.77
-0.85
-0.98
-1.13
-1.25
-1.28
-1.195
-0.995
-0.735
-0.46
-0.175
0.1
0.355
0.605
0.83
1.01
1.13
1.185
1.18
1.1
1.01
0.865
0.68
0.435
0.185
-0.09
-0.365
-0.655
-0.925
-1.17
-1.36
-1.495
-1.565
-1.57
-1.56
-1.52
-1.49
-1.445
-1.41
-1.38
-1.37
-1.355
-1.36
-1.35
-1.35
-1.35
-1.355
-1.36
-1.35
-1.355
-1.345
-1.345
-1.34
-1.34
-1.345
-1.36
-1.365
-1.36
-1.36
-1.355
-1.345
-1.345
-1.34
-1.345
-1.355
-1.365
-1.37
-1.375
-1.38
-1.385
-1.385
-1.375
-1.365
-1.365
-1.355
-1.36
-1.365
-1.38
-1.39
-1.385
-1.4
-1.405
-1.405
-1.41
-1.395
-1.405
-1.405
-1.395
-1.41
-1.42
-1.425
-1.43
-1.43
-1.455
-1.45
-1.445
-1.445
-1.445
-1.455
-1.45
-1.46
-1.47
-1.48
-1.48
-1.49
-1.495
-1.5
-1.49
-1.49
-1.49
-1.485
-1.49
-1.495
-1.51
-1.495
-1.51
-1.505
-1.5
-1.49
-1.485
-1.465
-1.455
-1.45
-1.44
-1.445
-1.44
-1.41
-1.405
-1.385
-1.375
-1.365
-1.345
-1.33
-1.315
-1.29
-1.285
-1.265
-1.25
-1.245
-1.24
-1.215
-1.21
-1.19
-1.17
-1.155
-1.145
-1.125
-1.12
-1.125
-1.125
-1.125
-1.145
-1.145
-1.165
-1.16
-1.175
-1.17
-1.17
-1.18
-1.185
-1.195
-1.215
-1.22
-1.25
-1.26
-1.285
-1.3
-1.3
-1.305
-1.32
-1.33
-1.33
-1.35
-1.355
-1.365
-1.365
-1.38
-1.38
-1.385
-1.39
-1.38
-1.375
-1.36
-1.36
-1.365
-1.36
-1.36
-1.37
-1.37
-1.365
-1.365
-1.36
-1.35
-1.34
-1.325
-1.325
-1.32
-1.315
-1.32
-1.32
-1.325
-1.32
-1.31
-1.31
-1.31
-1.285
-1.275
-1.27
-1.28
-1.28
-1.28
-1.285
-1.28
-1.3
-1.29
-1.29
-1.28
-1.275
-1.255
-1.25
-1.26
-1.245
-1.255
-1.26
-1.275
-1.275
-1.275
-1.265
-1.265
-1.25
-1.245
-1.245
-1.24
-1.24
-1.24
-1.24
-1.26
-1.255
-1.265
-1.245
-1.23
-1.23
-1.24
-1.225
-1.22
-1.215
-1.215
-1.235
-1.24
-1.24
-1.23
-1.23
-1.225
-1.23
-1.22
-1.215
-1.205
-1.215
-1.22
-1.225
-1.23
-1.22
-1.22
-1.215
-1.205
-1.2
-1.2
-1.205
-1.195
-1.195
-1.21
-1.205
-1.205
-1.2
-1.205
-1.2
-1.195
-1.19
-1.175
-1.185
-1.195
-1.185
-1.195
-1.205
-1.205
-1.2
-1.195
-1.205
-1.2
-1.205
-1.2
-1.19
-1.2
-1.2
-1.195
-1.21
-1.21
-1.21
-1.195
-1.19
-1.18
-1.17
-1.18
-1.18
-1.175
-1.195
-1.195
-1.2
-1.185
-1.18
-1.185
-1.195
-1.175
-1.165
-1.165
-1.165
-1.16
-1.165
-1.17
-1.165
-1.175
-1.17
-1.17
-1.17
-1.155
-1.155
-1.14
-1.145
-1.145
-1.15
-1.155
-1.155
-1.16
-1.155
-1.15
-1.14
-1.14
-1.135
-1.13
-1.12
-1.13
-1.135
-1.145
-1.15
-1.14
-1.125
-1.11
-1.085
-1.08
-1.065
-1.06
-1.06
-1.055
-1.065
-1.08
-1.09
-1.09
-1.105
-1.11
-1.105
-1.105
-1.1
-1.1
-1.085
-1.095
-1.09
-1.095
-1.075
-1.06
-1.055
-1.055
-1.05
-1.055
-1.055
-1.06
-1.085
-1.095
-1.11
-1.125
-1.135
-1.15
-1.155
-1.155
-1.16
-1.145
-1.145
-1.13
-1.12
-1.125
-1.13
-1.155
-1.165
-1.19
-1.165
-1.125
-1.035
-0.925
-0.815
-0.715
-0.65
-0.625
-0.675
-0.805
-0.97
-1.11
-1.17
-1.065
-0.865
-0.565
-0.24
0.065
0.375
0.665
0.9
1.085
1.235
1.28
1.26
1.175
1.035
0.86
0.63
0.38
0.13
-0.115
-0.36
-0.62
-0.87
-1.08
-1.245
-1.365
-1.415
-1.425
-1.395
-1.355
-1.315
-1.285
-1.26
-1.25
-1.24
-1.235
-1.23
-1.21
-1.2
-1.205
-1.22
-1.21
-1.205
-1.205
-1.19
-1.205
-1.215
-1.21
-1.225
-1.215
-1.215
-1.205
-1.205
-1.205
-1.2
-1.205
-1.21
-1.21
-1.23
-1.23
-1.24
-1.24
-1.245
-1.23
-1.215
-1.215
-1.215
-1.22
-1.22
-1.225
-1.23
-1.245
-1.25
-1.255
-1.265
-1.26
-1.25
-1.255
-1.25
-1.25
-1.275
-1.28
-1.275
-1.28
-1.29
-1.3
-1.295
-1.29
-1.275
-1.275
-1.275
-1.295
-1.29
-1.305
-1.305
-1.325
-1.325
-1.345
-1.35
-1.33
-1.33
-1.33
-1.33
-1.33
-1.34
-1.345
-1.345
-1.355
-1.365
-1.345
-1.33
-1.325
-1.32
-1.305
-1.28
-1.28
-1.275
-1.265
-1.265
-1.265
-1.255
-1.24
-1.225
-1.205
-1.175
-1.15
-1.15
-1.13
-1.11
-1.115
-1.085
-1.065
-1.045
-1.015
-0.99
-0.975
-0.955
-0.94
-0.925
-0.92
-0.925
-0.925
-0.925
-0.925
-0.94
-0.93
-0.935
-0.93
-0.93
-0.935
-0.925
-0.955
-0.96
-0.975
-0.995
-0.995
-1.025
-1.035
-1.035
-1.045
-1.05
-1.055
-1.06
-1.08
-1.08
-1.085
-1.115
-1.12
-1.135
-1.14
-1.15
-1.145
-1.14
-1.12
-1.11
-1.115
-1.115
-1.115
-1.12
-1.11
-1.12
-1.115
-1.105
-1.1
-1.09
-1.085
-1.08
-1.075
-1.075
-1.08
-1.075
-1.085
-1.1
-1.09
-1.075
-1.055
-1.045
-1.045
-1.045
-1.045
-1.04
-1.045
-1.04
-1.045
-1.045
-1.04
-1.035
-1.03
-1.02
-1.02
-1.015
-1.02
-1.015
-1.005
-1.01
-1.02
-1.02
-1.015
-1.005
-1.005
-0.995
-0.985
-0.99
-0.98
-0.98
-0.99
-0.99
-0.995
-1.0
-0.995
-0.99
-0.99
-0.98
-0.975
-0.975
-0.985
-0.985
-0.97
-0.975
-0.99
-0.995
-0.985
-0.975
-0.97
-0.97
-0.97
-0.95
-0.955
-0.965
-0.965
-0.965
-0.97
-0.97
-0.97
-0.965
-0.965
-0.955
-0.945
-0.935
-0.935
-0.945
-0.96
-0.955
-0.955
-0.95
-0.955
-0.95
-0.95
-0.95
-0.925
-0.92
-0.935
-0.935
-0.935
-0.94
-0.945
-0.94
-0.945
-0.935
-0.925
-0.93
-0.91
-0.92
-0.925
-0.925
-0.93
-0.94
-0.94
-0.94
-0.935
-0.94
-0.92
-0.925
-0.92
-0.92
-0.91
-0.905
-0.915
-0.925
-0.92
-0.925
-0.925
-0.925
-0.91
-0.91
-0.915
-0.9
-0.9
-0.905
-0.915
-0.905
-0.92
-0.91
-0.92
-0.92
-0.91
-0.915
-0.9
-0.9
-0.895
-0.895
-0.895
-0.9
-0.9
-0.91
-0.915
-0.905
-0.89
-0.89
-0.88
-0.89
-0.885
-0.895
-0.9
-0.905
-0.91
-0.905
-0.905
-0.91
-0.88
-0.875
-0.885
-0.88
-0.86
-0.855
-0.865
-0.87
-0.885
-0.895
-0.885
-0.885
-0.865
-0.84
-0.825
-0.81
-0.805
-0.81
-0.81
-0.815
-0.82
-0.83
-0.84
-0.86
-0.855
-0.84
-0.83
-0.825
-0.825
-0.83
-0.82
-0.81
-0.805
-0.79
-0.78
-0.79
-0.8
-0.81
-0.815
-0.84
-0.85
-0.875
-0.885
-0.895
-0.9
-0.895
-0.9
-0.895
-0.895
-0.89
-0.875
-0.87
-0.875
-0.875
-0.9
-0.92
-0.94
-0.945
-0.9
-0.82
-0.7
-0.585
-0.475
-0.425
-0.39
-0.415
-0.54
-0.705
-0.87
-0.955
-0.95
-0.805
-0.565
-0.265
0.04
0.335
0.6
0.85
1.085
1.28
1.425
1.51
1.53
1.475
1.37
1.16
0.895
0.595
0.28
-0.03
-0.355
-0.645
-0.885
-1.065
-1.165
-1.21
-1.205
-1.17
-1.135
-1.095
-1.065
-1.045
-1.02
-1.03
-1.005
-1.0
-0.995
-0.995
-0.985
-0.99
-0.975
-0.975
-0.995
-0.99
-0.99
-0.995
-0.995
-1.0
-1.01
-0.99
-0.99
-0.99
-0.98
-0.985
-0.98
-0.98
-0.98
-0.99
-0.99
-1.0
-1.015
-1.005
-1.0
-0.995
-0.995
-0.98
-0.99
-0.99
-0.995
-1.005
-1.01
-1.02
-1.03
-1.03
-1.02
-1.025
-1.035
-1.035
-1.025
-1.03
-1.04
-1.065
-1.065
-1.07
-1.07
-1.06
-1.055
-1.07
-1.06
-1.05
-1.07
-1.07
-1.07
-1.09
-1.095
-1.095
-1.1
-1.105
-1.105
-1.105
-1.105
-1.105
-1.11
-1.12
-1.12
-1.125
-1.13
-1.13
-1.13
-1.135
-1.12
-1.115
-1.1
-1.09
-1.085
-1.08
-1.085
-1.065
-1.075
-1.07
-1.06
-1.05
-1.025
-1.015
-0.99
-0.965
-0.975
-0.955
-0.94
-0.94
-0.935
-0.905
-0.89
-0.87
-0.86
-0.845
-0.84
-0.815
-0.79
-0.785
-0.78
-0.78
-0.79
-0.785
-0.775
-0.765
-0.76
-0.765
-0.76
-0.755
-0.76
-0.775
-0.77
-0.775
-0.8
-0.81
-0.825
-0.82
-0.83
-0.835
-0.845
-0.855
-0.87
-0.88
-0.905
-0.925
-0.935
-0.945
-0.95
-0.96
-0.955
-0.965
-0.96
-0.975
-0.97
-0.985
-1.0
-1.005
-1.0
-1.005
-1.015
-1.005
-0.995
-0.99
-0.98
-0.97
-0.97
-0.98
-0.99
-0.985
-0.995
-1.005
-1.005
-0.98
-0.985
-0.965
-0.955
-0.95
-0.955
-0.95
-0.96
-0.955
-0.965
-0.955
-0.955
-0.945
-0.945
-0.925
-0.92
-0.92
-0.925
-0.91
-0.915
-0.925
-0.925
-0.92
-0.925
-0.925
-0.91
-0.89
-0.88
-0.895
-0.885
-0.88
-0.89
-0.9
-0.9
-0.9
-0.9
-0.895
-0.875
-0.88
-0.87
-0.87
-0.875
-0.87
-0.885
-0.88
-0.875
-0.885
-0.895
-0.885
-0.88
-0.88
-0.86
-0.855
-0.86
-0.855
-0.865
-0.865
-0.87
-0.88
-0.88
-0.885
-0.885
-0.87
-0.865
-0.845
-0.845
-0.84
-0.85
-0.855
-0.855
-0.87
-0.865
-0.865
-0.87
-0.855
-0.85
-0.835
-0.845
-0.835
-0.84
-0.845
-0.86
-0.85
-0.865
-0.855
-0.855
-0.855
-0.845
-0.84
-0.83
-0.83
-0.835
-0.84
-0.84
-0.845
-0.845
-0.835
-0.84
-0.83
-0.825
-0.825
-0.82
-0.835
-0.845
-0.845
-0.84
-0.835
-0.84
-0.85
-0.845
-0.825
-0.825
-0.805
-0.81
-0.805
-0.815
-0.82
-0.825
-0.835
-0.83
-0.825
-0.825
-0.82
-0.82
-0.805
-0.82
-0.815
-0.825
-0.82
-0.83
-0.83
-0.835
-0.83
-0.83
-0.82
-0.81
-0.805
-0.815
-0.825
-0.805
-0.815
-0.81
-0.84
-0.835
-0.82
-0.82
-0.815
-0.795
-0.795
-0.795
-0.8
-0.81
-0.815
-0.805
-0.81
-0.805
-0.8
-0.785
-0.785
-0.78
-0.775
-0.78
-0.785
-0.775
-0.78
-0.76
-0.75
-0.74
-0.75
-0.725
-0.73
-0.72
-0.72
-0.73
-0.755
-0.765
-0.77
-0.775
-0.77
-0.785
-0.79
-0.775
-0.77
-0.745
-0.74
-0.705
-0.705
-0.705
-0.715
-0.73
-0.755
-0.765
-0.785
-0.805
-0.81
-0.8
-0.805
-0.8
-0.8
-0.805
-0.8
-0.815
-0.82
-0.835
-0.835
-0.835
-0.83
-0.835
-0.79
-0.72
-0.63
-0.53
-0.455
-0.385
-0.34
-0.345
-0.395
-0.505
-0.665
-0.785
-0.835
-0.785
-0.61
-0.375
-0.105
0.165
0.445
0.705
0.945
1.18
1.375
1.53
1.605
1.615
1.555
1.44
1.27
1.045
0.785
0.515
0.255
0.005
-0.24
-0.46
-0.66
-0.83
-0.96
-1.04
-1.075
-1.085
-1.07
-1.055
-1.025
-0.99
-0.965
-0.95
-0.925
-0.92
-0.895
-0.9
-0.91
-0.905
-0.92
-0.92
-0.92
-0.925
-0.91
-0.905
-0.9
-0.905
-0.925
-0.94
-0.95
-0.95
-0.935
-0.94
-0.93
-0.915
-0.915
-0.91
-0.915
-0.92
-0.92
-0.925
-0.935
-0.94
-0.945
-0.94
-0.94
-0.945
-0.945
-0.935
-0.93
-0.94
-0.96
-0.975
-0.975
-0.99
-0.995
-1.005
-1.0
-1.015
-1.005
-0.99
-0.975
-0.99
-1.005
-1.025
-1.025
-1.035
-1.04
-1.035
-1.045
-1.045
-1.02
-1.035
-1.04
-1.04
-1.045
-1.065
-1.075
-1.085
-1.085
-1.09
-1.085
-1.095
-1.09
-1.09
-1.085
-1.07
-1.085
-1.09
-1.09
-1.09
-1.085
-1.085
-1.08
-1.06
-1.045
-1.03
-1.005
-0.995
-0.99
-0.99
-0.965
-0.965
-0.955
-0.94
-0.905
-0.885
-0.865
-0.84
-0.805
-0.79
-0.785
-0.775
-0.77
-0.755
-0.75
-0.745
-0.735
-0.72
-0.71
-0.705
-0.69
-0.69
-0.67
-0.685
-0.695
-0.71
-0.71
-0.71
-0.725
-0.715
-0.72
-0.73
-0.73
-0.74
-0.745
-0.765
-0.79
-0.805
-0.82
-0.835
-0.845
-0.855
-0.855
-0.855
-0.86
-0.865
-0.87
-0.89
-0.905
-0.915
-0.93
-0.94
-0.935
-0.925
-0.915
-0.91
-0.905
-0.895
-0.9
-0.92
-0.915
-0.915
-0.92
-0.935
-0.93
-0.915
-0.91
-0.895
-0.895
-0.89
-0.88
-0.89
-0.885
-0.89
-0.895
-0.895
-0.87
-0.865
-0.845
-0.835
-0.835
-0.835
-0.835
-0.86
-0.86
-0.855
-0.865
-0.855
-0.855
-0.855
-0.835
-0.83
-0.82
-0.82
-0.825
-0.83
-0.845
-0.835
-0.85
-0.84
-0.83
-0.84
-0.83
-0.82
-0.805
-0.81
-0.81
-0.81
-0.82
-0.82
-0.825
-0.82
-0.835
-0.825
-0.815
-0.795
-0.8
-0.8
-0.815
-0.815
-0.82
-0.82
-0.825
-0.81
-0.83
-0.83
-0.83
-0.82
-0.805
-0.795
-0.8
-0.805
-0.82
-0.815
-0.81
-0.81
-0.815
-0.82
-0.805
-0.805
-0.795
-0.785
-0.78
-0.795
-0.79
-0.795
-0.805
-0.82
-0.815
-0.805
-0.79
-0.795
-0.785
-0.785
-0.79
-0.79
-0.795
-0.81
-0.81
-0.82
-0.83
-0.815
-0.805
-0.795
-0.785
-0.79
-0.795
-0.785
-0.8
-0.805
-0.8
-0.805
-0.8
-0.8
-0.785
-0.77
-0.77
-0.77
-0.78
-0.785
-0.8
-0.795
-0.8
-0.805
-0.805
-0.81
-0.8
-0.8
-0.785
-0.79
-0.79
-0.795
-0.8
-0.8
-0.805
-0.8
-0.8
-0.795
-0.79
-0.78
-0.78
-0.78
-0.785
-0.785
-0.785
-0.785
-0.79
-0.795
-0.785
-0.785
-0.78
-0.77
-0.77
-0.77
-0.775
-0.765
-0.78
-0.77
-0.765
-0.765
-0.775
-0.76
-0.75
-0.75
-0.75
-0.75
-0.755
-0.75
-0.75
-0.745
-0.735
-0.725
-0.73
-0.725
-0.72
-0.715
-0.71
-0.715
-0.73
-0.73
-0.735
-0.745
-0.755
-0.75
-0.755
-0.75
-0.745
-0.73
-0.715
-0.705
-0.7
-0.685
-0.685
-0.69
-0.685
-0.7
-0.7
-0.705
-0.71
-0.73
-0.735
-0.75
-0.76
-0.785
-0.805
-0.81
-0.8
-0.79
-0.79
-0.8
-0.775
-0.765
-0.755
-0.765
-0.775
-0.8
-0.81
-0.825
-0.82
-0.795
-0.725
-0.62
-0.51
-0.43
-0.335
-0.305
-0.345
-0.435
-0.595
-0.745
-0.82
-0.755
-0.575
-0.32
-0.01
0.305
0.6
0.885
1.14
1.355
1.5
1.58
1.605
1.565
1.495
1.385
1.235
1.045
0.82
0.57
0.345
0.135
-0.08
-0.305
-0.53
-0.75
-0.905
-1.01
-1.075
-1.095
-1.07
-1.05
-1.045
-1.025
-1.005
-1.0
-0.975
-0.96
-0.935
-0.92
-0.91
-0.91
-0.895
-0.9
-0.905
-0.91
-0.92
-0.93
-0.92
-0.925
-0.94
-0.925
-0.91
-0.91
-0.9
-0.905
-0.91
-0.92
-0.925
-0.925
-0.925
-0.92
-0.925
-0.915
-0.91
-0.905
-0.9
-0.905
-0.92
-0.92
-0.925
-0.925
-0.935
-0.945
-0.945
-0.935
-0.945
-0.94
-0.935
-0.945
-0.94
-0.945
-0.965
-0.975
-0.98
-0.985
-0.985
-0.98
-0.98
-0.99
-0.98
-0.98
-0.98
-1.0
-1.01
-1.025
-1.025
-1.03
-1.03
-1.045
-1.025
-1.025
-1.015
-1.02
-1.025
-1.045
-1.065
-1.08
-1.075
-1.06
-1.065
-1.07
-1.06
-1.055
-1.055
-1.045
-1.045
-1.04
-1.04
-1.06
-1.05
-1.06
-1.045
-1.04
-1.025
-1.02
-1.005
-0.98
-0.975
-0.97
-0.95
-0.95
-0.94
-0.925
-0.925
-0.905
-0.875
-0.855
-0.835
-0.82
-0.805
-0.785
-0.78
-0.765
-0.76
-0.75
-0.745
-0.73
-0.72
-0.695
-0.7
-0.68
-0.695
-0.69
-0.705
-0.72
-0.72
-0.735
-0.735
-0.745
-0.74
-0.75
-0.75
-0.775
-0.785
-0.805
-0.82
-0.83
-0.845
-0.865
-0.88
-0.875
-0.875
-0.89
-0.89
-0.895
-0.91
-0.91
-0.92
-0.935
-0.94
-0.945
-0.94
-0.94
-0.925
-0.925
-0.93
-0.92
-0.915
-0.93
-0.925
-0.945
-0.94
-0.945
-0.935
-0.925
-0.915
-0.9
-0.885
-0.875
-0.88
-0.885
-0.885
-0.885
-0.885
-0.88
-0.875
-0.885
-0.87
-0.86
-0.845
-0.84
-0.835
-0.84
-0.84
-0.84
-0.85
-0.855
-0.85
-0.845
-0.845
-0.83
-0.82
-0.815
-0.825
-0.83
-0.84
-0.84
-0.845
-0.83
-0.81
-0.82
-0.81
-0.815
-0.82
-0.815
-0.805
-0.815
-0.815
-0.83
-0.83
-0.83
-0.83
-0.82
-0.805
-0.805
-0.79
-0.795
-0.8
-0.8
-0.805
-0.82
-0.83
-0.825
-0.81
-0.805
-0.795
-0.785
-0.79
-0.785
-0.79
-0.79
-0.8
-0.8
-0.8
-0.825
-0.82
-0.8
-0.795
-0.8
-0.78
-0.78
-0.775
-0.785
-0.79
-0.795
-0.81
-0.8
-0.81
-0.795
-0.8
-0.78
-0.775
-0.775
-0.77
-0.775
-0.775
-0.78
-0.79
-0.785
-0.785
-0.775
-0.78
-0.765
-0.75
-0.76
-0.75
-0.765
-0.76
-0.775
-0.78
-0.78
-0.775
-0.765
-0.765
-0.755
-0.75
-0.75
-0.75
-0.76
-0.775
-0.78
-0.765
-0.78
-0.775
-0.78
-0.77
-0.76
-0.75
-0.73
-0.74
-0.745
-0.76
-0.76
-0.76
-0.76
-0.76
-0.755
-0.74
-0.745
-0.72
-0.73
-0.73
-0.73
-0.75
-0.735
-0.75
-0.745
-0.76
-0.745
-0.74
-0.735
-0.735
-0.725
-0.73
-0.72
-0.725
-0.72
-0.72
-0.725
-0.715
-0.715
-0.7
-0.705
-0.7
-0.705
-0.72
-0.715
-0.71
-0.7
-0.675
-0.665
-0.645
-0.645
-0.64
-0.64
-0.64
-0.635
-0.65
-0.665
-0.685
-0.69
-0.69
-0.69
-0.685
-0.67
-0.66
-0.64
-0.615
-0.605
-0.61
-0.61
-0.625
-0.63
-0.65
-0.675
-0.68
-0.685
-0.685
-0.69
-0.685
-0.68
-0.685
-0.685
-0.695
-0.69
-0.71
-0.71
-0.69
-0.69
-0.685
-0.695
-0.705
-0.71
-0.695
-0.66
-0.59
-0.49
-0.4
-0.3
-0.23
-0.19
-0.16
-0.215
-0.335
-0.505
-0.68
-0.78
-0.76
-0.615
-0.395
-0.125
0.16
0.435
0.7
0.925
1.135
1.33
1.49
1.56
1.6
1.575
1.51
1.415
1.26
1.065
0.82
0.565
0.31
0.01
-0.27
-0.52
-0.73
-0.86
-0.92
-0.925
-0.885
-0.835
-0.79
-0.745
-0.71
-0.69
-0.67
-0.67
-0.66
-0.655
-0.665
-0.66
-0.68
-0.66
-0.655
-0.65
-0.64
-0.635
-0.635
-0.63
-0.63
-0.63
-0.645
-0.645
-0.65
-0.65
-0.63
-0.625
-0.62
-0.615
-0.6
-0.61
-0.61
-0.625
-0.635
-0.64
-0.63
-0.625
-0.61
-0.605
-0.61
-0.6
-0.6
-0.61
-0.62
-0.63
-0.64
-0.65
-0.645
-0.65
-0.63
-0.625
-0.615
-0.615
-0.605
-0.63
-0.64
-0.645
-0.655
-0.66
-0.665
-0.66
-0.66
-0.65
-0.66
-0.65
-0.66
-0.665
-0.67
-0.68
-0.68
-0.685
-0.695
-0.685
-0.68
-0.67
-0.665
-0.66
-0.655
-0.65
-0.655
-0.65
-0.655
-0.635
-0.625
-0.61
-0.59
-0.575
-0.55
-0.53
-0.52
-0.5
-0.48
-0.475
-0.46
-0.44
-0.425
-0.4
-0.38
-0.345
-0.32
-0.3
-0.285
-0.28
-0.27
-0.255
-0.25
-0.24
-0.225
-0.21
-0.195
-0.195
-0.185
-0.185
-0.185
-0.185
-0.195
-0.215
-0.215
-0.21
-0.215
-0.215
-0.22
-0.225
-0.215
-0.225
-0.24
-0.25
-0.27
-0.29
-0.305
-0.315
-0.315
-0.325
-0.33
-0.335
-0.325
-0.335
-0.34
-0.35
-0.365
-0.365
-0.37
-0.37
-0.365
-0.37
-0.34
-0.34
-0.335
-0.325
-0.33
-0.325
-0.335
-0.335
-0.33
-0.325
-0.305
-0.305
-0.285
-0.29
-0.275
-0.26
-0.255
-0.255
-0.265
-0.255
-0.265
-0.26
-0.255
-0.25
-0.25
-0.235
-0.215
-0.215
-0.215
-0.215
-0.215
-0.215
-0.22
-0.225
-0.24
-0.225
-0.215
-0.195
-0.195
-0.175
-0.175
-0.17
-0.175
-0.18
-0.2
-0.2
-0.205
-0.19
-0.185
-0.175
-0.17
-0.155
-0.165
-0.16
-0.16
-0.155
-0.18
-0.17
-0.17
-0.155
-0.165
-0.145
-0.14
-0.135
-0.135
-0.135
-0.13
-0.135
-0.14
-0.145
-0.145
-0.135
-0.13
-0.13
-0.115
-0.115
-0.12
-0.115
-0.11
-0.115
-0.115
-0.125
-0.125
-0.125
-0.12
-0.105
-0.11
-0.105
-0.09
-0.085
-0.1
-0.095
-0.095
-0.105
-0.105
-0.1
-0.095
-0.09
-0.08
-0.08
-0.085
-0.085
-0.08
-0.085
-0.085
-0.09
-0.095
-0.09
-0.08
-0.075
-0.07
-0.07
-0.08
-0.08
-0.085
-0.105
-0.095
-0.095
-0.1
-0.09
-0.085
-0.075
-0.075
-0.065
-0.065
-0.07
-0.075
-0.08
-0.09
-0.08
-0.085
-0.075
-0.075
-0.05
-0.055
-0.06
-0.065
-0.065
-0.06
-0.065
-0.07
-0.065
-0.07
-0.065
-0.055
-0.055
-0.055
-0.045
-0.05
-0.05
-0.06
-0.075
-0.07
-0.08
-0.08
-0.055
-0.05
-0.035
-0.03
-0.015
-0.02
-0.02
-0.025
-0.035
-0.045
-0.045
-0.04
-0.035
-0.015
-0.005
0.0
0.025
0.03
0.025
0.02
0.005
0.005
0.015
0.015
0.0
0.0
0.005
0.0
0.005
0.0
-0.005
-0.015
-0.02
-0.01
-0.005
0.0
0.02
0.03
0.045
0.05
0.04
0.035
0.0
-0.005
-0.035
-0.06
-0.095
-0.09
-0.095
-0.085
-0.085
-0.075
-0.065
-0.06
-0.07
-0.08
-0.105
-0.135
-0.14
-0.135
-0.075
-0.01
0.09
0.19
0.295
0.35
0.365
0.305
0.17
0.01
-0.115
-0.14
-0.015
0.21
0.49
0.795
1.08
1.345
1.56
1.765
1.92
2.02
2.065
2.045
2.01
1.94
1.81
1.645
1.425
1.195
0.945
0.7
0.455
0.235
0.02
-0.16
-0.295
-0.39
-0.435
-0.41
-0.39
-0.365
-0.34
-0.305
-0.285
-0.26
-0.25
-0.24
-0.23
-0.21
-0.22
-0.2
-0.2
-0.2
-0.2
-0.215
-0.225
-0.225
-0.225
-0.23
-0.23
-0.21
-0.215
-0.205
-0.205
-0.215
-0.215
-0.22
-0.22
-0.235
-0.24
-0.255
-0.25
-0.245
-0.235
-0.23
-0.23
-0.23
-0.245
-0.235
-0.255
-0.255
-0.265
-0.27
-0.28
-0.28
-0.275
-0.275
-0.265
-0.27
-0.285
-0.285
-0.31
-0.315
-0.325
-0.325
-0.33
-0.34
-0.33
-0.315
-0.33
-0.33
-0.34
-0.345
-0.36
-0.39
-0.39
-0.385
-0.39
-0.405
-0.405
-0.4
-0.4
-0.395
-0.405
-0.41
-0.415
-0.42
-0.43
-0.43
-0.425
-0.425
-0.425
-0.41
-0.4
-0.395
-0.41
-0.405
-0.4
-0.395
-0.385
-0.37
-0.36
-0.34
-0.32
-0.31
-0.27
-0.255
-0.245
-0.225
-0.23
-0.22
-0.21
-0.18
-0.17
-0.155
-0.14
-0.145
-0.105
-0.095
-0.1
-0.095
-0.095
-0.095
-0.09
-0.1
-0.095
-0.095
-0.08
-0.085
-0.085
-0.095
-0.11
-0.12
-0.15
-0.165
-0.175
-0.205
-0.2
-0.215
-0.215
-0.22
-0.23
-0.25
-0.26
-0.275
-0.295
-0.305
-0.32
-0.315
-0.32
-0.335
-0.33
-0.335
-0.34
-0.36
-0.35
-0.36
-0.37
-0.38
-0.38
-0.38
-0.39
-0.375
-0.365
-0.37
-0.375
-0.365
-0.36
-0.365
