Lead II
-1.2
-1.145
-1.11
-1.065
-1.035
-0.975
-0.925
-0.9
-0.865
-0.84
-0.805
-0.755
-0.7
-0.685
-0.695
-0.715
-0.715
-0.71
-0.705
-0.67
-0.62
-0.565
-0.52
-0.475
-0.39
-0.31
-0.245
-0.205
-0.18
-0.155
-0.135
-0.095
-0.075
-0.055
-0.07
-0.065
-0.025
0.01
0.03
0.03
0.045
0.05
0.08
0.095
0.12
0.135
0.125
0.16
0.17
0.185
0.21
0.23
0.215
0.215
0.225
0.245
0.265
0.25
0.235
0.24
0.24
0.25
0.245
0.215
0.19
0.165
0.15
0.16
0.155
0.13
0.11
0.09
0.075
0.05
0.03
0.015
0.0
-0.015
-0.035
-0.04
-0.065
-0.08
-0.115
-0.11
-0.1
-0.085
-0.09
-0.115
-0.13
-0.135
-0.13
-0.14
-0.165
-0.185
-0.21
-0.215
-0.2
-0.165
-0.14
-0.135
-0.145
-0.16
-0.175
-0.185
-0.2
-0.225
-0.245
-0.25
-0.24
-0.22
-0.215
-0.24
-0.24
-0.255
-0.245
-0.255
-0.25
-0.275
-0.305
-0.32
-0.315
-0.31
-0.295
-0.31
-0.345
-0.35
-0.32
-0.315
-0.315
-0.31
-0.325
-0.32
-0.325
-0.32
-0.32
-0.33
-0.34
-0.355
-0.33
-0.31
-0.305
-0.32
-0.34
-0.33
-0.335
-0.32
-0.335
-0.34
-0.335
-0.345
-0.335
-0.315
-0.315
-0.315
-0.315
-0.335
-0.32
-0.305
-0.295
-0.3
-0.31
-0.31
-0.295
-0.28
-0.28
-0.285
-0.255
-0.2
-0.07
0.095
0.265
0.415
0.53
0.635
0.7
0.65
0.485
0.255
0.05
-0.16
-0.425
-0.67
-0.825
-0.9
-0.88
-0.79
-0.69
-0.61
-0.535
-0.47
-0.42
-0.37
-0.345
-0.325
-0.31
-0.3
-0.305
-0.29
-0.27
-0.245
-0.24
-0.265
-0.26
-0.25
-0.235
-0.21
-0.185
-0.18
-0.18
-0.21
-0.19
-0.175
-0.155
-0.15
-0.16
-0.16
-0.14
-0.095
-0.08
-0.08
-0.075
-0.075
-0.06
-0.055
-0.05
-0.05
-0.045
-0.035
-0.02
0.0
0.01
0.0
-0.035
-0.05
-0.045
-0.045
-0.035
-0.025
-0.045
-0.05
-0.05
-0.035
-0.04
-0.05
-0.06
-0.075
-0.065
-0.045
-0.04
-0.065
-0.08
-0.095
-0.095
-0.09
-0.09
-0.1
-0.115
-0.135
-0.145
-0.15
-0.15
-0.16
-0.18
-0.21
-0.235
-0.23
-0.235
-0.25
-0.245
-0.255
-0.235
-0.225
-0.22
-0.23
-0.255
-0.26
-0.26
-0.25
-0.24
-0.245
-0.265
-0.265
-0.245
-0.225
-0.22
-0.21
-0.215
-0.2
-0.185
-0.185
-0.195
-0.205
-0.205
-0.18
-0.155
-0.14
-0.14
-0.135
-0.15
-0.145
-0.145
-0.12
-0.135
-0.145
-0.16
-0.17
-0.17
-0.165
-0.19
-0.195
-0.205
-0.205
-0.195
-0.18
-0.19
-0.21
-0.23
-0.235
-0.215
-0.21
-0.215
-0.23
-0.25
-0.245
-0.24
-0.24
-0.24
-0.25
-0.26
-0.25
-0.225
-0.2
-0.19
-0.2
-0.225
-0.235
-0.245
-0.265
-0.265
-0.27
-0.26
-0.245
-0.235
-0.225
-0.21
-0.215
-0.245
-0.245
-0.23
-0.215
-0.215
-0.225
-0.25
-0.245
-0.25
-0.25
-0.265
-0.26
-0.25
-0.2
-0.085
0.055
0.18
0.305
0.43
0.55
0.62
0.6
0.43
0.19
0.015
-0.17
-0.405
-0.635
-0.8
-0.895
-0.85
-0.72
-0.63
-0.55
-0.495
-0.435
-0.38
-0.345
-0.3
-0.26
-0.235
-0.225
-0.24
-0.22
-0.205
-0.195
-0.185
-0.18
-0.185
-0.19
-0.16
-0.16
-0.15
-0.15
-0.145
-0.155
-0.16
-0.14
-0.115
-0.11
-0.11
-0.09
-0.075
-0.055
-0.045
-0.03
-0.025
-0.025
0.005
0.03
0.055
0.06
0.055
0.055
0.09
0.125
0.125
0.125
0.115
0.125
0.125
0.14
0.145
0.135
0.135
0.145
0.155
0.16
0.18
0.165
0.165
0.17
0.175
0.185
0.185
0.15
0.13
0.11
0.1
0.09
0.09
0.055
0.015
0.015
0.01
0.015
0.01
-0.015
-0.045
-0.085
-0.1
-0.1
-0.105
-0.125
-0.16
-0.175
-0.16
-0.15
-0.135
-0.155
-0.16
-0.165
-0.15
-0.14
-0.15
-0.15
-0.16
-0.15
-0.125
-0.06
0.015
0.07
0.125
0.205
0.32
0.475
0.65
0.825
1.035
1.245
1.445
1.6
1.76
1.885
1.945
1.975
1.96
1.845
1.65
1.47
1.235
0.89
0.49
0.175
0.02
-0.06
-0.125
-0.165
-0.185
-0.165
-0.175
-0.195
-0.21
-0.205
-0.2
-0.245
-0.33
-0.44
-0.52
-0.565
-0.57
-0.595
-0.67
-0.71
-0.7
-0.655
-0.57
-0.505
-0.5
-0.495
-0.495
-0.485
-0.475
-0.46
-0.45
-0.455
-0.465
-0.445
-0.41
-0.38
-0.36
-0.355
-0.37
-0.37
-0.36
-0.33
-0.31
-0.32
-0.325
-0.335
-0.31
-0.275
-0.27
-0.295
-0.29
-0.295
-0.275
-0.275
-0.265
-0.28
-0.295
-0.29
-0.28
-0.26
-0.25
-0.255
-0.275
-0.27
-0.24
-0.24
-0.245
-0.255
-0.26
-0.255
-0.245
-0.215
-0.225
-0.235
-0.26
-0.235
-0.23
-0.205
-0.21
-0.215
-0.205
-0.195
-0.21
-0.2
-0.22
-0.25
-0.265
-0.27
-0.255
-0.245
-0.24
-0.265
-0.27
-0.265
-0.245
-0.225
-0.22
-0.24
-0.265
-0.275
-0.255
-0.265
-0.275
-0.27
-0.275
-0.26
-0.25
-0.25
-0.26
-0.275
-0.29
-0.295
-0.28
-0.265
-0.25
-0.26
-0.28
-0.275
-0.265
-0.245
-0.255
-0.255
-0.27
-0.25
-0.245
-0.25
-0.235
-0.235
-0.265
-0.275
-0.27
-0.255
-0.27
-0.28
-0.285
-0.28
-0.27
-0.27
-0.27
-0.275
-0.29
-0.29
-0.29
-0.26
-0.245
-0.25
-0.26
-0.295
-0.285
-0.26
-0.26
-0.28
-0.295
-0.31
-0.295
-0.285
-0.285
-0.305
-0.315
-0.305
-0.3
-0.295
-0.275
-0.285
-0.28
-0.28
-0.265
-0.255
-0.265
-0.275
-0.295
-0.31
-0.3
-0.285
-0.29
-0.285
-0.3
-0.315
-0.305
-0.285
-0.28
-0.285
-0.305
-0.305
-0.28
-0.25
-0.24
-0.26
-0.275
-0.255
-0.25
-0.23
-0.24
-0.25
-0.26
-0.245
-0.21
-0.185
-0.17
-0.18
-0.195
-0.185
-0.18
-0.195
-0.225
-0.23
-0.23
-0.23
-0.24
-0.245
-0.25
-0.27
-0.27
-0.28
-0.265
-0.245
-0.245
-0.265
-0.29
-0.29
-0.28
-0.265
-0.265
-0.295
-0.325
-0.325
-0.31
-0.31
-0.3
-0.295
-0.31
-0.305
-0.305
-0.285
-0.29
-0.29
-0.29
-0.29
-0.285
-0.285
-0.29
-0.3
-0.3
-0.305
-0.28
-0.27
-0.265
-0.285
-0.29
-0.285
-0.26
-0.235
-0.24
-0.265
-0.29
-0.285
-0.29
-0.275
-0.25
-0.195
-0.115
0.01
0.165
0.3
0.4
0.5
0.58
0.64
0.665
0.585
0.375
0.17
-0.04
-0.295
-0.56
-0.745
-0.835
-0.855
-0.8
-0.71
-0.64
-0.58
-0.53
-0.495
-0.46
-0.42
-0.365
-0.315
-0.295
-0.285
-0.285
-0.285
-0.275
-0.25
-0.235
-0.23
-0.235
-0.225
-0.21
-0.19
-0.185
-0.175
-0.16
-0.15
-0.155
-0.145
-0.17
-0.185
-0.175
-0.15
-0.12
-0.105
-0.095
-0.09
-0.065
-0.065
-0.065
-0.065
-0.085
-0.09
-0.12
-0.095
-0.07
-0.04
-0.04
-0.03
-0.03
-0.01
0.015
0.03
0.025
0.005
0.005
-0.005
0.0
-0.005
-0.005
-0.025
-0.025
-0.025
-0.01
0.0
0.015
0.0
-0.015
-0.025
0.0
0.0
-0.01
-0.03
-0.05
-0.035
-0.01
0.01
0.01
-0.005
-0.055
-0.08
-0.075
-0.075
-0.075
-0.11
-0.15
-0.15
-0.12
-0.11
-0.085
-0.095
-0.12
-0.145
-0.165
-0.17
-0.155
-0.16
-0.17
-0.205
-0.22
-0.22
-0.235
-0.245
-0.25
-0.225
-0.19
-0.175
-0.18
-0.2
-0.205
-0.2
-0.19
-0.18
-0.19
-0.195
-0.2
-0.2
-0.18
-0.155
-0.15
-0.15
-0.13
-0.13
-0.1
-0.08
-0.08
-0.105
-0.13
-0.13
-0.135
-0.13
-0.145
-0.15
-0.145
-0.15
-0.17
-0.165
-0.175
-0.17
-0.18
-0.205
-0.22
-0.225
-0.215
-0.21
-0.185
-0.165
-0.16
-0.185
-0.215
-0.235
-0.235
-0.215
-0.205
-0.175
-0.175
-0.205
-0.23
-0.24
-0.22
-0.2
-0.195
-0.205
-0.235
-0.235
-0.245
-0.205
-0.19
-0.2
-0.275
-0.265
-0.27
-0.26
-0.24
-0.245
-0.255
-0.26
-0.25
-0.25
-0.205
-0.125
-0.01
0.12
0.26
0.41
0.52
0.57
0.505
0.33
0.17
0.0
-0.27
-0.575
-0.82
-0.93
-0.84
-0.705
-0.585
-0.525
-0.45
-0.365
-0.31
-0.31
-0.315
-0.305
-0.27
-0.245
-0.225
-0.21
-0.215
-0.23
-0.25
-0.245
-0.22
-0.2
-0.2
-0.185
-0.165
-0.175
-0.18
-0.17
-0.15
-0.135
-0.135
-0.12
-0.09
-0.085
-0.085
-0.07
-0.08
-0.065
-0.035
-0.005
0.02
0.015
0.025
0.04
0.055
0.085
0.105
0.11
0.1
0.095
0.115
0.125
0.14
0.15
0.135
0.145
0.165
0.18
0.175
0.17
0.165
0.155
0.165
0.16
0.16
0.15
0.115
0.115
0.12
0.115
0.1
0.075
0.05
0.02
0.015
0.01
-0.005
-0.05
-0.105
-0.13
-0.125
-0.11
-0.105
-0.125
-0.155
-0.16
-0.155
-0.155
-0.16
-0.185
-0.21
-0.22
-0.21
-0.205
-0.19
-0.205
-0.22
-0.22
-0.195
-0.17
-0.195
-0.2
-0.215
-0.21
-0.2
-0.19
-0.19
-0.195
-0.175
-0.145
-0.1
-0.08
-0.115
-0.17
-0.22
-0.23
-0.195
-0.14
-0.145
-0.16
-0.195
-0.19
-0.13
-0.08
-0.04
-0.05
-0.1
-0.155
-0.175
-0.155
-0.15
-0.155
-0.18
-0.18
-0.18
-0.165
-0.175
-0.2
-0.21
-0.195
-0.18
-0.165
-0.17
-0.195
-0.21
-0.23
-0.235
-0.23
-0.225
-0.225
-0.23
-0.235
-0.23
-0.215
-0.23
-0.23
-0.235
-0.24
-0.22
-0.195
-0.2
-0.215
-0.23
-0.225
-0.205
-0.195
-0.2
-0.22
-0.235
-0.235
-0.225
-0.205
-0.19
-0.195
-0.205
-0.2
-0.185
-0.185
-0.175
-0.175
-0.18
-0.185
-0.19
-0.145
-0.09
-0.03
0.075
0.235
0.385
0.53
0.65
0.705
0.685
0.565
0.39
0.25
0.1
-0.135
-0.425
-0.675
-0.81
-0.815
-0.72
-0.625
-0.565
-0.495
-0.415
-0.33
-0.27
-0.26
-0.27
-0.24
-0.21
-0.18
-0.165
-0.165
-0.18
-0.17
-0.155
-0.13
-0.12
-0.115
-0.125
-0.125
-0.125
-0.095
-0.085
-0.08
-0.08
-0.08
-0.045
-0.005
0.005
0.005
-0.005
0.01
0.045
0.075
0.085
0.07
0.085
0.09
0.12
0.16
0.16
0.165
0.17
0.17
0.195
0.215
0.21
0.2
0.18
0.18
0.18
0.2
0.19
0.195
0.195
0.195
0.225
0.245
0.245
0.22
0.19
0.17
0.165
0.145
0.135
0.12
0.08
0.055
0.045
0.03
0.01
-0.01
-0.03
-0.04
-0.04
-0.055
-0.09
-0.11
-0.12
-0.145
-0.145
-0.14
-0.135
-0.15
-0.16
-0.145
-0.145
-0.135
-0.15
-0.175
-0.195
-0.195
-0.18
-0.15
-0.17
-0.165
-0.16
-0.175
-0.17
-0.15
-0.14
-0.145
-0.165
-0.16
-0.145
-0.13
-0.13
-0.13
-0.14
-0.115
-0.095
-0.075
-0.08
-0.08
-0.065
-0.075
-0.05
-0.04
-0.065
-0.1
-0.115
-0.12
-0.11
-0.115
-0.125
-0.135
-0.14
-0.15
-0.145
-0.135
-0.135
-0.145
-0.165
-0.185
-0.195
-0.17
-0.18
-0.19
-0.205
-0.21
-0.185
-0.17
-0.18
-0.185
-0.2
-0.195
-0.185
-0.17
-0.165
-0.19
-0.195
-0.195
-0.195
-0.165
-0.17
-0.175
-0.205
-0.2
-0.185
-0.175
-0.16
-0.165
-0.18
-0.2
-0.205
-0.205
-0.22
-0.235
-0.235
-0.215
-0.21
-0.18
-0.165
-0.135
-0.08
0.01
0.12
0.255
0.365
0.48
0.56
0.59
0.56
0.47
0.355
0.235
0.02
-0.23
-0.46
-0.645
-0.78
-0.795
-0.72
-0.635
-0.56
-0.505
-0.45
-0.365
-0.305
-0.275
-0.24
-0.19
-0.17
-0.19
-0.2
-0.195
-0.175
-0.15
-0.145
-0.135
-0.14
-0.135
-0.115
-0.09
-0.095
-0.085
-0.09
-0.085
-0.06
-0.06
-0.045
-0.045
-0.045
-0.045
-0.025
0.01
0.025
0.02
0.045
0.065
0.105
0.12
0.135
0.155
0.145
0.15
0.16
0.18
0.19
0.185
0.175
0.19
0.215
0.215
0.235
0.23
0.215
0.21
0.21
0.245
0.23
0.225
0.21
0.21
0.21
0.21
0.185
0.17
0.135
0.11
0.085
0.08
0.07
0.04
0.02
-0.01
-0.015
-0.025
-0.05
-0.075
-0.1
-0.1
-0.09
-0.075
-0.095
-0.105
-0.125
-0.125
-0.125
-0.12
-0.135
-0.17
-0.18
-0.165
-0.15
-0.125
-0.135
-0.145
-0.145
-0.145
-0.145
-0.13
-0.145
-0.18
-0.19
-0.185
-0.15
-0.155
-0.155
-0.155
-0.165
-0.155
-0.125
-0.095
-0.085
-0.095
-0.11
-0.115
-0.125
-0.1
-0.07
-0.055
-0.05
-0.045
-0.05
-0.065
-0.085
-0.105
-0.105
-0.095
-0.08
-0.09
-0.12
-0.135
-0.16
-0.155
-0.145
-0.135
-0.135
-0.16
-0.19
-0.17
-0.165
-0.175
-0.18
-0.18
-0.195
-0.19
-0.185
-0.16
-0.155
-0.16
-0.18
-0.175
-0.17
-0.145
-0.155
-0.155
-0.19
-0.18
-0.175
-0.16
-0.15
-0.175
-0.175
-0.165
-0.175
-0.165
-0.155
-0.16
-0.175
-0.175
-0.17
-0.16
-0.155
-0.15
-0.115
-0.04
0.11
0.275
0.41
0.55
0.68
0.785
0.825
0.765
0.59
0.35
0.03
-0.305
-0.59
-0.745
-0.72
-0.61
-0.515
-0.425
-0.345
-0.255
-0.205
-0.195
-0.185
-0.165
-0.14
-0.11
-0.09
-0.09
-0.1
-0.1
-0.09
-0.075
-0.06
-0.07
-0.08
-0.065
-0.065
-0.04
-0.035
-0.04
-0.035
-0.02
0.015
0.04
0.055
0.065
0.05
0.05
0.095
0.135
0.155
0.15
0.165
0.175
0.2
0.245
0.265
0.25
0.255
0.25
0.285
0.305
0.29
0.29
0.28
0.28
0.29
0.315
0.315
0.295
0.27
0.28
0.29
0.27
0.25
0.205
0.165
0.145
0.12
0.11
0.085
0.07
0.03
0.01
0.015
0.02
-0.005
-0.025
-0.045
-0.06
-0.06
-0.07
-0.075
-0.08
-0.09
-0.085
-0.07
-0.06
-0.075
-0.095
-0.105
-0.11
-0.1
-0.09
-0.08
-0.095
-0.095
-0.1
-0.1
-0.08
-0.08
-0.07
-0.09
-0.085
-0.08
-0.075
-0.08
-0.08
-0.075
-0.055
-0.04
-0.015
-0.02
-0.02
-0.025
-0.035
-0.05
-0.05
-0.05
-0.07
-0.095
-0.105
-0.105
-0.09
-0.07
-0.07
-0.085
-0.085
-0.085
-0.08
-0.105
-0.13
-0.135
-0.13
-0.105
-0.11
-0.105
-0.12
-0.125
-0.125
-0.1
-0.09
-0.09
-0.105
-0.12
-0.12
-0.095
-0.105
-0.1
-0.105
-0.12
-0.115
-0.115
-0.09
-0.085
-0.1
-0.105
-0.115
-0.105
-0.085
-0.095
-0.11
-0.145
-0.16
-0.135
-0.07
0.045
0.22
0.39
0.565
0.765
0.93
1.035
1.115
1.085
0.955
0.775
0.535
0.22
-0.135
-0.445
-0.625
-0.655
-0.605
-0.515
-0.43
-0.36
-0.29
-0.215
-0.175
-0.15
-0.135
-0.15
-0.125
-0.1
-0.085
-0.075
-0.09
-0.1
-0.085
-0.07
-0.055
-0.055
-0.06
-0.06
-0.05
-0.03
-0.005
0.005
0.005
0.005
0.02
0.035
0.07
0.065
0.065
0.075
0.09
0.12
0.14
0.165
0.165
0.19
0.215
0.235
0.265
0.265
0.265
0.25
0.265
0.285
0.31
0.305
0.295
0.31
0.315
0.325
0.335
0.33
0.31
0.29
0.29
0.27
0.27
0.25
0.22
0.18
0.155
0.14
0.135
0.11
0.085
0.05
0.03
0.015
-0.005
-0.025
-0.07
-0.075
-0.075
-0.095
-0.08
-0.095
-0.115
-0.125
-0.12
-0.11
-0.095
-0.105
-0.135
-0.155
-0.145
-0.14
-0.12
-0.13
-0.135
-0.135
-0.135
-0.11
-0.09
-0.085
-0.09
-0.115
-0.105
-0.095
-0.09
-0.08
-0.06
-0.07
-0.055
-0.04
-0.02
-0.025
-0.055
-0.08
-0.09
-0.085
-0.09
-0.09
-0.125
-0.14
-0.15
-0.145
-0.13
-0.13
-0.115
-0.14
-0.17
-0.18
-0.18
-0.19
-0.205
-0.225
-0.215
-0.205
-0.195
-0.19
-0.19
-0.19
-0.195
-0.18
-0.17
-0.175
-0.2
-0.205
-0.19
-0.17
-0.155
-0.175
-0.19
-0.205
-0.205
-0.17
-0.155
-0.165
-0.145
-0.15
-0.145
-0.175
-0.17
-0.2
-0.22
-0.225
-0.17
-0.03
0.165
0.38
0.57
0.75
0.935
1.07
1.135
1.04
0.85
0.625
0.325
-0.03
-0.365
-0.615
-0.73
-0.71
-0.615
-0.485
-0.39
-0.33
-0.265
-0.235
-0.225
-0.205
-0.19
-0.18
-0.17
-0.175
-0.175
-0.165
-0.14
-0.135
-0.14
-0.155
-0.145
-0.12
-0.105
-0.1
-0.095
-0.1
-0.07
-0.055
-0.03
-0.015
-0.005
0.0
0.02
0.05
0.065
0.08
0.115
0.135
0.16
0.2
0.23
0.235
0.23
0.23
0.235
0.26
0.28
0.27
0.275
0.255
0.255
0.275
0.295
0.305
0.29
0.275
0.255
0.255
0.255
0.215
0.2
0.17
0.165
0.14
0.135
0.095
0.05
-0.005
-0.02
-0.03
-0.05
-0.055
-0.08
-0.115
-0.14
-0.13
-0.125
-0.13
-0.16
-0.175
-0.175
-0.155
-0.14
-0.15
-0.19
-0.205
-0.205
-0.2
-0.18
-0.19
-0.195
-0.195
-0.18
-0.165
-0.14
-0.14
-0.16
-0.17
-0.175
-0.17
-0.16
-0.16
-0.17
-0.16
-0.135
-0.09
-0.045
-0.03
-0.055
-0.09
-0.105
-0.11
-0.115
-0.14
-0.14
-0.16
-0.16
-0.155
-0.17
-0.18
-0.2
-0.215
-0.2
-0.2
-0.215
-0.225
-0.255
-0.24
-0.24
-0.24
-0.225
-0.23
-0.24
-0.25
-0.24
-0.23
-0.215
-0.23
-0.225
-0.235
-0.245
-0.23
-0.22
-0.21
-0.23
-0.235
-0.23
-0.215
-0.205
-0.21
-0.2
-0.215
-0.22
-0.215
-0.2
-0.215
-0.22
-0.245
-0.25
-0.255
-0.23
-0.165
-0.05
0.15
0.355
0.525
0.725
0.89
0.975
1.015
0.95
0.79
0.6
0.33
0.015
-0.325
-0.615
-0.77
-0.76
-0.675
-0.58
-0.49
-0.41
-0.345
-0.295
-0.265
-0.255
-0.24
-0.225
-0.195
-0.165
-0.155
-0.165
-0.18
-0.17
-0.155
-0.14
-0.14
-0.14
-0.155
-0.15
-0.12
-0.1
-0.075
-0.075
-0.085
-0.065
-0.055
-0.035
-0.035
-0.04
-0.035
-0.015
0.03
0.055
0.08
0.07
0.095
0.1
0.125
0.165
0.16
0.165
0.18
0.175
0.19
0.22
0.24
0.225
0.22
0.225
0.24
0.25
0.265
0.25
0.225
0.215
0.195
0.185
0.165
0.13
0.115
0.09
0.075
0.055
0.04
0.015
-0.005
-0.02
-0.04
-0.065
-0.115
-0.15
-0.16
-0.09
0.01
0.095
0.105
0.05
-0.05
-0.165
-0.235
-0.235
-0.225
-0.21
-0.21
-0.21
-0.23
-0.245
-0.295
-0.31
-0.305
-0.27
-0.235
-0.22
-0.22
-0.235
-0.225
-0.22
-0.19
-0.175
-0.195
-0.205
-0.22
-0.195
-0.195
-0.18
-0.16
-0.16
-0.155
-0.145
-0.13
-0.115
-0.125
-0.155
-0.19
-0.2
-0.2
-0.21
-0.21
-0.235
-0.245
-0.25
-0.225
-0.225
-0.225
-0.24
-0.265
-0.285
-0.28
-0.26
-0.275
-0.285
-0.3
-0.295
-0.28
-0.25
-0.26
-0.28
-0.3
-0.29
-0.28
-0.255
-0.26
-0.28
-0.285
-0.26
-0.245
-0.23
-0.235
-0.255
-0.26
-0.26
-0.255
-0.245
-0.245
-0.26
-0.27
-0.255
-0.25
-0.225
-0.24
-0.26
-0.265
-0.215
-0.04
0.16
0.345
0.485
0.655
0.825
0.96
0.995
0.88
0.675
0.47
0.205
-0.12
-0.455
-0.725
-0.845
-0.8
-0.68
-0.55
-0.45
-0.385
-0.345
-0.295
-0.265
-0.23
-0.205
-0.22
-0.23
-0.23
-0.21
-0.18
-0.165
-0.17
-0.18
-0.185
-0.18
-0.165
-0.135
-0.115
-0.115
-0.11
-0.095
-0.07
-0.055
-0.055
-0.055
-0.04
-0.02
0.0
0.035
0.055
0.06
0.07
0.1
0.13
0.155
0.17
0.17
0.175
0.21
0.24
0.27
0.25
0.215
0.205
0.21
0.23
0.245
0.25
0.24
0.25
0.26
0.24
0.215
0.175
0.145
0.13
0.105
0.09
0.085
0.06
0.025
-0.015
-0.03
-0.01
-0.02
-0.045
-0.09
-0.11
-0.13
-0.12
-0.125
-0.155
-0.17
-0.18
-0.195
-0.2
-0.19
-0.215
-0.215
-0.22
-0.235
-0.215
-0.205
-0.215
-0.225
-0.23
-0.225
-0.22
-0.21
-0.225
-0.22
-0.22
-0.22
-0.195
-0.185
-0.185
-0.2
-0.22
-0.2
-0.175
-0.15
-0.14
-0.145
-0.155
-0.14
-0.125
-0.13
-0.155
-0.19
-0.215
-0.205
-0.175
-0.18
-0.215
-0.255
-0.27
-0.265
-0.235
-0.23
-0.245
-0.26
-0.28
-0.275
-0.27
-0.255
-0.265
-0.285
-0.305
-0.295
-0.275
-0.26
-0.26
-0.285
-0.305
-0.295
-0.295
-0.26
-0.255
-0.25
-0.25
-0.26
-0.255
-0.25
-0.265
-0.28
-0.28
-0.265
-0.26
-0.255
-0.265
-0.27
-0.27
-0.265
-0.26
-0.27
-0.295
-0.32
-0.31
-0.255
-0.13
-0.005
0.135
0.285
0.45
0.62
0.725
0.74
0.63
0.475
0.27
0.0
-0.335
-0.635
-0.86
-0.935
-0.885
-0.78
-0.665
-0.575
-0.495
-0.41
-0.37
-0.315
-0.295
-0.28
-0.28
-0.28
-0.275
-0.255
-0.255
-0.235
-0.22
-0.23
-0.23
-0.205
-0.185
-0.17
-0.165
-0.16
-0.18
-0.17
-0.145
-0.125
-0.105
-0.12
-0.115
-0.105
-0.085
-0.05
-0.03
-0.025
-0.015
-0.005
0.015
0.035
0.05
0.06
0.045
0.07
0.115
0.17
0.18
0.155
0.155
0.17
0.185
0.21
0.215
0.205
0.19
0.16
0.155
0.175
0.18
0.165
0.145
0.14
0.14
0.135
0.135
0.125
0.08
0.06
0.045
0.035
0.02
-0.005
-0.045
-0.05
-0.06
-0.06
-0.09
-0.125
-0.145
-0.155
-0.16
-0.15
-0.16
-0.19
-0.2
-0.21
-0.22
-0.215
-0.215
-0.23
-0.24
-0.24
-0.25
-0.235
-0.225
-0.24
-0.245
-0.245
-0.23
-0.225
-0.24
-0.25
-0.25
-0.245
-0.245
-0.235
-0.23
-0.215
-0.21
-0.21
-0.215
-0.205
-0.21
-0.21
-0.22
-0.21
-0.195
-0.2
-0.205
-0.215
-0.205
-0.175
-0.115
-0.09
-0.095
-0.13
-0.155
-0.17
-0.17
-0.17
-0.19
-0.205
-0.21
-0.215
-0.205
-0.21
-0.215
-0.21
-0.21
-0.19
-0.195
-0.2
-0.225
-0.24
-0.255
-0.25
-0.23
-0.22
-0.23
-0.23
-0.225
-0.215
-0.22
-0.215
-0.23
-0.23
-0.25
-0.25
-0.235
-0.24
-0.225
-0.225
-0.225
-0.23
-0.205
-0.195
-0.2
-0.22
-0.225
-0.22
-0.215
-0.2
-0.205
-0.23
-0.255
-0.255
-0.245
-0.2
-0.115
-0.005
0.14
0.315
0.505
0.68
0.81
0.905
0.895
0.795
0.645
0.46
0.15
-0.24
-0.58
-0.785
-0.825
-0.73
-0.63
-0.56
-0.49
-0.41
-0.34
-0.275
-0.24
-0.22
-0.215
-0.195
-0.175
-0.16
-0.145
-0.16
-0.165
-0.155
-0.11
-0.085
-0.075
-0.06
-0.05
-0.03
-0.02
-0.01
-0.03
-0.04
-0.03
0.04
0.14
0.195
0.175
0.125
0.02
-0.06
-0.08
-0.045
-0.02
0.01
0.005
0.0
0.005
0.03
0.06
0.12
0.155
0.17
0.205
0.23
0.225
0.2
0.16
0.15
0.165
0.215
0.205
0.175
0.12
0.11
0.13
0.145
0.135
0.105
0.085
0.11
0.105
0.11
0.075
0.025
0.01
0.01
0.005
-0.04
-0.095
-0.155
-0.15
-0.115
-0.07
-0.035
-0.065
-0.135
-0.24
-0.315
-0.32
-0.32
-0.32
-0.34
-0.36
-0.34
-0.31
-0.27
-0.22
-0.17
-0.12
-0.085
-0.115
-0.215
-0.35
-0.445
-0.485
-0.44
-0.37
-0.305
-0.295
-0.315
-0.32
-0.295
-0.25
-0.245
-0.25
-0.25
-0.23
-0.195
-0.185
-0.195
-0.215
-0.245
-0.26
-0.26
-0.27
-0.265
-0.29
-0.305
-0.315
-0.305
-0.285
-0.265
-0.265
-0.265
-0.275
-0.255
-0.255
-0.26
-0.255
-0.265
-0.29
-0.29
-0.285
-0.275
-0.265
-0.235
-0.16
0.005
0.185
0.25
0.125
-0.135
-0.39
-0.54
-0.535
-0.47
-0.425
-0.415
-0.43
-0.385
-0.33
-0.265
-0.255
-0.285
-0.335
-0.34
-0.31
-0.285
-0.29
-0.28
-0.25
-0.215
-0.15
-0.14
-0.205
-0.28
-0.28
-0.135
0.075
0.28
0.515
0.755
0.965
1.09
1.1
0.95
0.695
0.48
0.255
-0.025
-0.325
-0.58
-0.75
-0.795
-0.68
-0.47
-0.235
-0.015
0.06
-0.095
-0.355
-0.575
-0.65
-0.595
-0.51
-0.42
-0.355
-0.275
-0.205
-0.16
-0.115
-0.115
-0.175
-0.245
-0.25
-0.24
-0.25
-0.27
-0.29
-0.27
-0.215
-0.15
-0.155
-0.17
-0.195
-0.185
-0.13
-0.07
-0.015
0.005
0.045
0.065
0.085
0.095
0.12
0.135
0.11
0.1
0.1
0.095
0.155
0.285
0.43
0.48
0.435
0.275
0.09
0.0
0.045
0.175
0.305
0.37
0.315
0.165
0.055
0.055
0.135
0.22
0.215
0.14
0.005
-0.07
-0.085
-0.06
-0.015
0.01
-0.015
-0.065
-0.11
-0.14
-0.14
-0.115
-0.065
-0.015
-0.015
-0.08
-0.145
-0.135
-0.06
0.005
-0.03
-0.16
-0.295
-0.45
-0.56
-0.535
-0.41
-0.295
-0.225
-0.245
-0.335
-0.42
-0.455
-0.405
-0.32
-0.295
-0.3
-0.305
-0.325
-0.31
-0.3
-0.285
-0.285
-0.305
-0.25
-0.225
-0.205
-0.195
-0.2
-0.2
-0.175
-0.155
-0.165
-0.21
-0.23
-0.225
-0.23
-0.215
-0.19
-0.195
-0.21
-0.2
-0.185
-0.145
-0.135
-0.13
-0.14
-0.165
-0.195
-0.205
-0.19
-0.19
-0.215
-0.22
-0.165
-0.12
-0.15
-0.24
-0.325
-0.315
-0.25
-0.165
-0.155
-0.19
-0.26
-0.315
-0.35
-0.325
-0.3
-0.28
-0.26
-0.195
-0.1
-0.07
-0.15
-0.265
-0.355
-0.365
-0.33
-0.25
-0.155
-0.085
-0.05
-0.08
-0.11
-0.22
-0.365
-0.47
-0.48
-0.375
-0.21
-0.02
0.185
0.39
0.545
0.605
0.66
0.725
0.845
0.895
0.83
0.67
0.575
0.405
0.13
-0.24
-0.58
-0.79
-0.83
-0.775
-0.7
-0.62
-0.54
-0.455
-0.415
-0.375
-0.375
-0.37
-0.345
-0.32
-0.305
-0.285
-0.24
-0.17
-0.115
-0.09
-0.12
-0.17
-0.16
-0.095
-0.055
-0.075
-0.1
-0.11
-0.13
-0.125
-0.175
-0.29
-0.355
-0.34
-0.245
-0.13
-0.005
0.095
0.175
0.2
0.16
0.11
0.045
-0.04
-0.11
-0.095
-0.01
0.115
0.195
0.27
0.305
0.28
0.175
0.025
-0.04
0.02
0.15
0.27
0.3
0.31
0.37
0.51
0.56
0.455
0.245
0.09
0.06
0.11
0.165
0.205
0.18
0.075
-0.01
-0.02
0.005
0.04
0.045
0.055
0.04
-0.005
-0.09
-0.12
-0.07
-0.03
-0.02
-0.075
-0.175
-0.245
-0.275
-0.215
-0.115
0.005
0.0
-0.08
-0.21
-0.3
-0.325
-0.315
-0.33
-0.325
-0.23
-0.07
0.01
-0.075
-0.18
-0.275
-0.28
-0.245
-0.185
-0.12
-0.085
-0.09
-0.15
-0.225
-0.235
-0.2
-0.205
-0.275
-0.34
-0.325
-0.28
-0.285
-0.335
-0.415
-0.43
-0.395
-0.32
-0.195
-0.01
0.13
0.155
0.05
-0.135
-0.305
-0.37
-0.32
-0.2
-0.18
-0.255
-0.3
-0.215
-0.025
0.05
-0.095
-0.37
-0.52
-0.49
-0.355
-0.22
-0.105
-0.035
-0.07
-0.155
-0.25
-0.305
-0.25
-0.105
-0.04
-0.12
-0.29
-0.415
-0.39
-0.32
-0.28
-0.285
-0.275
-0.19
-0.095
-0.11
-0.21
-0.32
-0.38
-0.355
-0.3
-0.19
-0.03
0.02
-0.06
-0.27
-0.45
-0.525
-0.505
-0.47
-0.47
-0.475
-0.43
-0.39
-0.375
-0.31
-0.275
-0.26
-0.33
-0.435
-0.475
-0.41
-0.255
-0.045
0.15
0.275
0.335
0.4
0.42
0.365
0.25
0.175
0.19
0.265
0.33
0.225
-0.045
-0.41
-0.695
-0.82
-0.75
-0.655
-0.685
-0.775
-0.755
-0.61
-0.47
-0.385
-0.37
-0.375
-0.36
-0.3
-0.24
-0.21
-0.22
-0.24
-0.24
-0.25
-0.235
-0.16
-0.11
-0.11
-0.14
-0.13
-0.135
-0.255
-0.44
-0.515
-0.42
-0.27
-0.195
-0.185
-0.14
-0.1
-0.13
-0.16
-0.18
-0.175
-0.2
-0.195
-0.145
-0.05
0.02
-0.05
-0.195
-0.245
-0.16
-0.035
0.0
-0.03
-0.05
0.0
0.09
0.16
0.19
0.15
0.095
0.09
0.155
0.225
0.235
0.2
0.14
0.065
0.065
0.17
0.25
0.135
-0.09
-0.285
-0.23
-0.06
0.105
0.155
0.1
0.035
0.035
0.055
0.045
0.025
-0.03
-0.14
-0.21
-0.205
-0.095
-0.02
-0.065
-0.22
-0.37
-0.395
-0.36
-0.31
-0.275
-0.28
-0.24
-0.15
-0.045
-0.04
-0.14
-0.31
-0.4
-0.315
-0.22
-0.265
-0.42
-0.55
-0.5
-0.34
-0.195
-0.145
-0.215
-0.3
-0.345
-0.31
-0.245
-0.21
-0.235
-0.225
-0.065
0.075
-0.07
-0.395
-0.605
-0.59
-0.445
-0.325
-0.215
-0.115
-0.09
-0.16
-0.245
-0.26
-0.22
-0.21
-0.23
-0.32
-0.36
-0.305
-0.215
-0.175
-0.21
-0.16
0.03
0.14
0.0
-0.32
-0.575
-0.62
-0.475
-0.275
-0.095
0.005
-0.065
-0.205
-0.245
-0.14
-0.04
-0.125
-0.33
-0.44
-0.425
-0.34
-0.155
0.13
0.255
0.015
-0.47
-0.79
-0.695
-0.335
-0.05
0.02
-0.125
-0.305
-0.465
-0.59
-0.64
-0.62
-0.5
-0.35
-0.265
-0.265
-0.33
-0.44
-0.495
-0.425
-0.26
-0.19
-0.22
-0.32
-0.445
-0.57
-0.57
-0.44
-0.22
-0.015
0.1
0.195
0.31
0.405
0.435
0.385
0.38
0.375
0.365
0.315
0.285
0.155
-0.05
-0.175
-0.245
-0.45
-0.775
-1.08
-1.185
-1.09
-0.845
-0.52
-0.3
-0.39
-0.63
-0.725
-0.625
-0.47
-0.35
-0.26
-0.215
-0.29
-0.42
-0.54
-0.6
-0.58
-0.51
-0.375
-0.18
-0.085
-0.165
-0.375
-0.545
-0.56
-0.415
-0.26
-0.16
-0.16
-0.19
-0.21
-0.175
-0.115
-0.055
-0.005
-0.015
-0.085
-0.155
-0.18
-0.185
-0.21
-0.235
-0.24
-0.225
-0.22
-0.175
-0.03
0.11
0.09
-0.03
-0.105
-0.06
-0.03
-0.1
-0.265
-0.41
-0.43
-0.32
-0.21
-0.12
-0.035
0.08
0.12
0.05
-0.015
-0.075
-0.15
-0.195
-0.225
-0.295
-0.43
-0.525
-0.48
-0.355
-0.295
-0.26
-0.32
-0.47
-0.45
-0.29
-0.225
-0.395
-0.67
-0.875
-0.91
-0.82
-0.735
-0.66
-0.595
-0.465
-0.36
-0.325
-0.295
-0.19
-0.075
-0.19
-0.635
-1.16
-1.36
-1.15
-0.83
-0.645
-0.565
-0.495
-0.385
-0.32
-0.31
-0.385
-0.46
-0.53
-0.6
-0.65
-0.675
-0.685
-0.66
-0.555
-0.38
-0.235
-0.19
-0.32
-0.575
-0.775
-0.845
-0.865
-0.855
-0.795
-0.705
-0.595
-0.525
-0.48
-0.45
-0.43
-0.43
-0.52
-0.56
-0.46
-0.335
-0.38
-0.56
-0.79
-0.845
-0.78
-0.705
-0.64
