Lead II
-0.24
-0.23
-0.24
-0.255
-0.27
-0.245
-0.205
-0.195
-0.195
-0.21
-0.21
-0.215
-0.22
-0.22
-0.23
-0.27
-0.275
-0.225
-0.095
0.085
0.3
0.555
0.83
1.085
1.32
1.5
1.5
1.195
0.73
0.23
-0.105
-0.255
-0.265
-0.245
-0.245
-0.225
-0.175
-0.15
-0.13
-0.16
-0.195
-0.21
-0.19
-0.17
-0.175
-0.2
-0.215
-0.23
-0.225
-0.225
-0.195
-0.2
-0.185
-0.175
-0.18
-0.18
-0.18
-0.18
-0.17
-0.17
-0.155
-0.15
-0.16
-0.18
-0.175
-0.155
-0.135
-0.13
-0.125
-0.14
-0.14
-0.11
-0.1
-0.075
-0.08
-0.085
-0.09
-0.075
-0.04
-0.045
-0.04
-0.045
-0.05
-0.02
0.0
0.015
0.045
0.045
0.06
0.09
0.1
0.13
0.12
0.12
0.13
0.15
0.18
0.195
0.195
0.2
0.205
0.225
0.255
0.255
0.255
0.24
0.23
0.24
0.24
0.22
0.205
0.155
0.13
0.12
0.12
0.13
0.085
0.05
0.02
0.0
-0.01
-0.015
-0.04
-0.07
-0.095
-0.09
-0.105
-0.115
-0.125
-0.13
-0.14
-0.155
-0.15
-0.145
-0.165
-0.19
-0.22
-0.2
-0.165
-0.145
-0.15
-0.155
-0.165
-0.17
-0.165
-0.15
-0.16
-0.17
-0.18
-0.17
-0.165
-0.165
-0.15
-0.16
-0.16
-0.165
-0.17
-0.15
-0.145
-0.165
-0.16
-0.16
-0.155
-0.145
-0.15
-0.155
-0.15
-0.145
-0.115
-0.105
-0.1
-0.095
-0.09
-0.07
-0.055
-0.025
-0.015
-0.01
-0.03
-0.025
-0.01
-0.015
-0.015
-0.05
-0.075
-0.1
-0.11
-0.13
-0.155
-0.18
-0.195
-0.185
-0.17
-0.165
-0.19
-0.21
-0.22
-0.22
-0.2
-0.185
-0.19
-0.21
-0.215
-0.205
-0.17
-0.16
-0.175
-0.19
-0.185
-0.205
-0.2
-0.195
-0.145
-0.02
0.145
0.38
0.65
0.915
1.155
1.365
1.485
1.39
1.04
0.555
0.105
-0.225
-0.355
-0.345
-0.29
-0.245
-0.235
-0.255
-0.255
-0.225
-0.215
-0.22
-0.23
-0.245
-0.27
-0.27
-0.265
-0.27
-0.255
-0.265
-0.27
-0.245
-0.235
-0.235
-0.23
-0.26
-0.27
-0.245
-0.245
-0.235
-0.225
-0.23
-0.24
-0.23
-0.21
-0.185
-0.19
-0.205
-0.215
-0.205
-0.175
-0.155
-0.155
-0.165
-0.17
-0.17
-0.135
-0.125
-0.105
-0.11
-0.11
-0.08
-0.04
-0.015
-0.02
-0.045
-0.025
-0.01
0.005
0.035
0.055
0.04
0.035
0.055
0.08
0.105
0.135
0.13
0.135
0.14
0.135
0.145
0.105
0.11
0.105
0.095
0.08
0.07
0.045
0.03
0.02
-0.005
-0.045
-0.05
-0.08
-0.1
-0.12
-0.12
-0.125
-0.14
-0.15
-0.17
-0.19
-0.2
-0.205
-0.19
-0.2
-0.225
-0.24
-0.235
-0.215
-0.2
-0.195
-0.205
-0.23
-0.225
-0.21
-0.215
-0.225
-0.225
-0.225
-0.22
-0.215
-0.185
-0.175
-0.19
-0.225
-0.22
-0.195
-0.185
-0.195
-0.205
-0.215
-0.195
-0.17
-0.175
-0.19
-0.2
-0.195
-0.18
-0.175
-0.19
-0.195
-0.205
-0.215
-0.22
-0.235
-0.205
-0.205
-0.2
-0.205
-0.18
-0.16
-0.135
-0.115
-0.11
-0.115
-0.12
-0.1
-0.085
-0.075
-0.055
-0.045
-0.03
-0.025
-0.015
-0.02
-0.01
-0.015
-0.02
-0.015
-0.01
-0.05
-0.095
-0.14
-0.125
-0.12
-0.135
-0.14
-0.18
-0.21
-0.2
-0.185
-0.18
-0.21
-0.22
-0.25
-0.24
-0.205
-0.205
-0.2
-0.22
-0.225
-0.225
-0.2
-0.2
-0.21
-0.215
-0.18
-0.145
-0.09
-0.025
0.035
0.095
0.175
0.27
0.42
0.565
0.73
0.9
1.125
1.39
1.675
1.94
2.145
2.26
2.215
1.95
1.525
1.07
0.605
0.225
0.035
-0.035
-0.07
-0.115
-0.15
-0.165
-0.165
-0.155
-0.185
-0.21
-0.24
-0.265
-0.29
-0.27
-0.265
-0.25
-0.245
-0.265
-0.285
-0.26
-0.25
-0.255
-0.27
-0.265
-0.27
-0.255
-0.245
-0.245
-0.24
-0.24
-0.245
-0.245
-0.255
-0.26
-0.26
-0.29
-0.315
-0.285
-0.27
-0.265
-0.26
-0.255
-0.265
-0.24
-0.22
-0.235
-0.225
-0.245
-0.25
-0.25
-0.26
-0.265
-0.275
-0.28
-0.26
-0.25
-0.225
-0.22
-0.205
-0.2
-0.17
-0.135
-0.105
-0.105
-0.12
-0.12
-0.12
-0.125
-0.11
-0.095
-0.06
-0.05
-0.05
-0.045
-0.05
-0.04
-0.02
-0.015
-0.005
-0.025
-0.03
-0.025
-0.04
-0.06
-0.095
-0.11
-0.11
-0.14
-0.135
-0.16
-0.17
-0.16
-0.155
-0.13
-0.13
-0.155
-0.18
-0.195
-0.195
-0.2
-0.185
-0.195
-0.21
-0.215
-0.195
-0.19
-0.2
-0.215
-0.215
-0.19
-0.175
-0.155
-0.165
-0.195
-0.23
-0.245
-0.235
-0.205
-0.2
-0.205
-0.2
-0.2
-0.17
-0.175
-0.18
-0.195
-0.19
-0.19
-0.175
-0.155
-0.15
-0.165
-0.165
-0.185
-0.19
-0.195
-0.18
-0.16
-0.17
-0.16
-0.14
-0.115
-0.115
-0.15
-0.155
-0.15
-0.145
-0.14
-0.125
-0.135
-0.155
-0.125
-0.085
-0.04
-0.025
-0.01
0.015
0.075
0.15
0.225
0.275
0.325
0.37
0.445
0.525
0.625
0.705
0.755
0.825
0.915
1.015
1.115
1.21
1.295
1.365
1.445
1.535
1.6
1.62
1.59
1.525
1.425
1.33
1.245
1.18
1.115
1.065
1.01
0.975
0.95
0.91
0.885
0.85
0.835
0.835
0.85
0.86
0.865
0.845
0.805
0.745
0.66
0.525
0.335
0.125
-0.07
-0.23
-0.335
-0.405
-0.47
-0.505
-0.52
-0.52
-0.535
-0.555
-0.605
-0.65
-0.64
-0.66
-0.68
-0.68
-0.68
-0.685
-0.695
-0.68
-0.7
-0.695
-0.725
-0.755
-0.75
-0.755
-0.75
-0.785
-0.835
-0.855
-0.845
-0.825
-0.82
-0.855
-0.885
-0.91
-0.92
-0.895
-0.89
-0.91
-0.94
-0.97
-0.965
-0.97
-0.97
-0.99
-1.03
-1.04
-1.045
-1.05
-1.06
-1.07
-1.09
-1.085
-1.055
-1.015
-0.99
-1.0
-1.005
-0.995
-0.98
-0.965
-0.935
-0.9
-0.87
-0.86
-0.82
-0.79
-0.745
-0.715
-0.69
-0.66
-0.625
-0.565
-0.52
-0.5
-0.49
-0.465
-0.435
-0.41
-0.395
-0.38
-0.375
-0.37
-0.36
-0.335
-0.32
-0.31
-0.32
-0.34
-0.335
-0.325
-0.305
-0.305
-0.315
-0.31
-0.33
-0.32
-0.315
-0.315
-0.33
-0.345
-0.345
-0.34
-0.335
-0.325
-0.34
-0.35
-0.35
-0.34
-0.295
-0.27
-0.285
-0.335
-0.335
-0.325
-0.3
-0.29
-0.31
-0.315
-0.31
-0.28
-0.265
-0.275
-0.29
-0.305
-0.285
-0.27
-0.235
-0.245
-0.255
-0.28
-0.295
-0.27
-0.255
-0.265
-0.285
-0.29
-0.25
-0.23
-0.205
-0.215
-0.23
-0.26
-0.24
-0.22
-0.215
-0.215
-0.24
-0.25
-0.26
-0.235
-0.22
-0.22
-0.23
-0.23
-0.235
-0.235
-0.21
-0.205
-0.22
-0.24
-0.235
-0.215
-0.225
-0.23
-0.24
-0.24
-0.235
-0.22
-0.2
-0.215
-0.23
-0.23
-0.21
-0.19
-0.19
-0.18
-0.215
-0.25
-0.25
-0.23
-0.215
-0.21
-0.21
-0.215
-0.21
-0.2
-0.205
-0.21
-0.22
-0.23
-0.21
-0.185
-0.18
-0.19
-0.215
-0.235
-0.23
-0.215
-0.205
-0.2
-0.22
-0.235
-0.235
-0.215
-0.19
-0.205
-0.205
-0.21
-0.195
-0.17
-0.155
-0.18
-0.2
-0.195
-0.165
-0.14
-0.125
-0.13
-0.115
-0.095
-0.055
-0.03
-0.03
-0.025
-0.04
-0.055
-0.07
-0.07
-0.095
-0.095
-0.125
-0.135
-0.145
-0.125
-0.125
-0.145
-0.165
-0.17
-0.175
-0.165
-0.175
-0.205
-0.22
-0.22
-0.215
-0.19
-0.18
-0.19
-0.215
-0.23
-0.215
-0.205
-0.205
-0.185
-0.2
-0.195
-0.185
-0.175
-0.17
-0.185
-0.205
-0.195
-0.155
-0.03
0.135
0.345
0.595
0.845
1.09
1.365
1.61
1.775
1.725
1.435
1.05
0.615
0.225
-0.065
-0.2
-0.215
-0.18
-0.185
-0.2
-0.205
-0.195
-0.185
-0.165
-0.175
-0.185
-0.2
-0.225
-0.245
-0.235
-0.23
-0.21
-0.21
-0.22
-0.23
-0.225
-0.22
-0.195
-0.185
-0.2
-0.215
-0.2
-0.19
-0.175
-0.19
-0.2
-0.19
-0.185
-0.185
-0.17
-0.165
-0.185
-0.18
-0.165
-0.135
-0.115
-0.11
-0.115
-0.12
-0.115
-0.1
-0.085
-0.105
-0.105
-0.1
-0.075
-0.065
-0.035
-0.03
-0.03
-0.045
-0.015
0.03
0.055
0.07
0.07
0.075
0.095
0.1
0.125
0.155
0.165
0.185
0.205
0.215
0.245
0.245
0.26
0.25
0.29
0.31
0.33
0.335
0.32
0.31
0.32
0.32
0.335
0.325
0.305
0.285
0.27
0.265
0.25
0.225
0.185
0.16
0.14
0.14
0.115
0.08
0.025
-0.01
-0.03
-0.045
-0.04
-0.055
-0.08
-0.09
-0.115
-0.105
-0.125
-0.135
-0.13
-0.135
-0.145
-0.145
-0.15
-0.175
-0.185
-0.18
-0.185
-0.18
-0.165
-0.165
-0.17
-0.185
-0.185
-0.17
-0.145
-0.155
-0.16
-0.175
-0.165
-0.155
-0.13
-0.14
-0.17
-0.185
-0.185
-0.155
-0.15
-0.16
-0.15
-0.15
-0.15
-0.135
-0.125
-0.135
-0.155
-0.16
-0.16
-0.15
-0.15
-0.155
-0.165
-0.17
-0.16
-0.145
-0.145
-0.125
-0.15
-0.145
-0.145
-0.145
-0.12
-0.14
-0.145
-0.17
-0.165
-0.15
-0.145
-0.14
-0.15
-0.16
-0.16
-0.135
-0.115
-0.095
-0.105
-0.105
-0.09
-0.035
0.03
0.085
0.12
0.15
0.205
0.285
0.39
0.505
0.58
0.67
0.755
0.815
0.87
0.93
1.005
1.085
1.18
1.285
1.355
1.415
1.455
1.49
1.535
1.53
1.485
1.41
1.29
1.205
1.14
1.11
1.095
1.055
0.985
0.935
0.915
0.915
0.89
0.875
0.835
0.855
0.87
0.875
0.84
0.765
0.625
0.455
0.265
0.06
-0.105
-0.24
-0.365
-0.445
-0.465
-0.465
-0.48
-0.505
-0.525
-0.565
-0.56
-0.575
-0.58
-0.58
-0.6
-0.63
-0.63
-0.625
-0.625
-0.64
-0.675
-0.695
-0.695
-0.685
-0.69
-0.715
-0.74
-0.745
-0.745
-0.745
-0.75
-0.77
-0.8
-0.84
-0.84
-0.845
-0.855
-0.85
-0.875
-0.9
-0.905
-0.895
-0.89
-0.905
-0.925
-0.945
-0.935
-0.93
-0.92
-0.925
-0.935
-0.94
-0.935
-0.925
-0.9
-0.88
-0.87
-0.855
-0.845
-0.815
-0.765
-0.735
-0.72
-0.705
-0.67
-0.62
-0.59
-0.565
-0.555
-0.525
-0.48
-0.44
-0.41
-0.39
-0.365
-0.355
-0.335
-0.305
-0.275
-0.275
-0.27
-0.285
-0.28
-0.265
-0.26
-0.26
-0.29
-0.285
-0.29
-0.265
-0.245
-0.245
-0.265
-0.28
-0.275
-0.255
-0.255
-0.255
-0.275
-0.28
-0.285
-0.285
-0.26
-0.255
-0.285
-0.3
-0.295
-0.275
-0.255
-0.26
-0.26
-0.265
-0.255
-0.255
-0.245
-0.24
-0.25
-0.265
-0.265
-0.255
-0.235
-0.225
-0.235
-0.23
-0.235
-0.22
-0.21
-0.21
-0.225
-0.24
-0.235
-0.24
-0.21
-0.21
-0.225
-0.235
-0.24
-0.23
-0.2
-0.205
-0.21
-0.24
-0.23
-0.215
-0.19
-0.185
-0.205
-0.225
-0.225
-0.215
-0.21
-0.195
-0.215
-0.215
-0.215
-0.21
-0.205
-0.2
-0.21
-0.2
-0.21
-0.195
-0.18
-0.18
-0.2
-0.21
-0.2
-0.195
-0.195
-0.18
-0.205
-0.215
-0.2
-0.195
-0.185
-0.155
-0.16
-0.18
-0.18
-0.17
-0.17
-0.18
-0.195
-0.195
-0.21
-0.18
-0.18
-0.175
-0.18
-0.18
-0.16
-0.14
-0.135
-0.14
-0.155
-0.16
-0.15
-0.145
-0.11
-0.075
-0.08
-0.095
-0.085
-0.08
-0.045
-0.04
-0.025
-0.025
-0.015
-0.005
0.005
-0.015
-0.02
-0.035
-0.06
-0.08
-0.09
-0.095
-0.125
-0.145
-0.15
-0.145
-0.135
-0.13
-0.15
-0.165
-0.155
-0.155
-0.14
-0.16
-0.165
-0.175
-0.18
-0.175
-0.165
-0.155
-0.17
-0.175
-0.17
-0.165
-0.14
-0.135
-0.145
-0.175
-0.165
-0.175
-0.17
-0.155
-0.105
0.0
0.155
0.375
0.635
0.905
1.135
1.35
1.525
1.55
1.345
0.96
0.515
0.14
-0.085
-0.15
-0.145
-0.14
-0.16
-0.185
-0.18
-0.15
-0.125
-0.12
-0.155
-0.175
-0.18
-0.16
-0.16
-0.165
-0.18
-0.185
-0.2
-0.195
-0.19
-0.185
-0.195
-0.205
-0.195
-0.175
-0.16
-0.165
-0.16
-0.17
-0.155
-0.145
-0.135
-0.14
-0.155
-0.16
-0.16
-0.15
-0.14
-0.14
-0.145
-0.165
-0.155
-0.13
-0.09
-0.09
-0.07
-0.065
-0.07
-0.065
-0.04
-0.025
-0.05
-0.055
-0.045
-0.025
0.005
0.02
0.035
0.04
0.04
0.085
0.125
0.13
0.13
0.13
0.135
0.17
0.205
0.22
0.205
0.22
0.235
0.255
0.275
0.295
0.295
0.3
0.295
0.295
0.295
0.305
0.28
0.26
0.24
0.225
0.225
0.215
0.17
0.14
0.115
0.11
0.085
0.075
0.05
0.015
0.0
-0.02
-0.03
-0.035
-0.05
-0.065
-0.085
-0.09
-0.09
-0.1
-0.13
-0.13
-0.125
-0.125
-0.1
-0.11
-0.125
-0.155
-0.16
-0.155
-0.14
-0.135
-0.145
-0.17
-0.155
-0.135
-0.125
-0.11
-0.125
-0.135
-0.14
-0.12
-0.105
-0.125
-0.135
-0.145
-0.14
-0.135
-0.12
-0.125
-0.135
-0.145
-0.155
-0.115
-0.105
-0.095
-0.125
-0.15
-0.155
-0.155
-0.135
-0.125
-0.155
-0.165
-0.155
-0.135
-0.115
-0.105
-0.115
-0.115
-0.12
-0.115
-0.105
-0.115
-0.13
-0.14
-0.135
-0.115
-0.075
-0.055
-0.06
-0.08
-0.065
-0.04
0.0
0.005
0.005
0.01
0.01
0.03
0.035
0.03
0.0
-0.04
-0.07
-0.095
-0.105
-0.105
-0.12
-0.13
-0.125
-0.13
-0.14
-0.135
-0.15
-0.165
-0.16
-0.155
-0.155
-0.135
-0.15
-0.17
-0.155
-0.145
-0.13
-0.14
-0.14
-0.145
-0.14
-0.135
-0.115
-0.135
-0.175
-0.19
-0.135
-0.025
0.125
0.31
0.545
0.83
1.095
1.295
1.49
1.525
1.33
0.935
0.455
0.05
-0.225
-0.305
-0.285
-0.26
-0.235
-0.205
-0.17
-0.135
-0.105
-0.105
-0.115
-0.12
-0.1
-0.13
-0.16
-0.18
-0.165
-0.14
-0.11
-0.095
-0.105
-0.115
-0.095
-0.07
-0.03
-0.03
-0.04
-0.05
-0.065
-0.025
0.005
0.025
0.025
0.035
0.05
0.065
0.075
0.065
0.065
0.07
0.065
0.105
0.145
0.155
0.145
0.13
0.145
0.155
0.185
0.195
0.17
0.16
0.165
0.185
0.22
0.23
0.225
0.23
0.265
0.28
0.305
0.325
0.305
0.305
0.31
0.345
0.37
0.395
0.415
0.405
0.415
0.435
0.44
0.44
0.42
0.42
0.42
0.43
0.43
0.405
0.36
0.315
0.295
0.285
0.28
0.25
0.205
0.17
0.13
0.11
0.115
0.095
0.065
0.03
-0.01
-0.02
-0.025
-0.035
-0.08
-0.08
-0.095
-0.08
-0.08
-0.085
-0.095
-0.115
-0.13
-0.13
-0.12
-0.12
-0.145
-0.16
-0.17
-0.17
-0.165
-0.185
-0.195
-0.2
-0.195
-0.19
-0.16
-0.125
-0.105
-0.075
-0.06
-0.045
-0.04
-0.06
-0.07
-0.08
-0.08
-0.065
-0.06
-0.065
-0.07
-0.085
-0.085
-0.075
-0.075
-0.07
-0.08
-0.1
-0.115
-0.105
-0.095
-0.095
-0.105
-0.11
-0.105
-0.1
-0.08
-0.06
-0.09
-0.11
-0.1
-0.095
-0.08
-0.065
-0.07
-0.065
-0.05
-0.015
0.03
0.055
0.04
0.04
0.045
0.06
0.095
0.1
0.085
0.065
0.035
0.04
0.065
0.08
0.065
0.06
0.11
0.165
0.265
0.375
0.47
0.53
0.585
0.655
0.755
0.855
0.935
1.015
1.085
1.145
1.21
1.285
1.36
1.41
1.445
1.43
1.38
1.295
1.205
1.13
1.07
1.035
1.0
0.965
0.92
0.88
0.87
0.875
0.895
0.925
0.925
0.895
0.83
0.765
0.655
0.44
0.195
-0.06
-0.23
-0.315
-0.34
-0.36
-0.4
-0.43
-0.455
-0.46
-0.46
-0.485
-0.49
-0.515
-0.53
-0.52
-0.52
-0.555
-0.58
-0.605
-0.595
-0.585
-0.59
-0.605
-0.625
-0.635
-0.635
-0.635
-0.63
-0.625
-0.665
-0.695
-0.715
-0.725
-0.73
-0.72
-0.745
-0.76
-0.78
-0.765
-0.75
-0.76
-0.79
-0.805
-0.805
-0.81
-0.805
-0.805
-0.82
-0.835
-0.83
-0.83
-0.795
-0.785
-0.785
-0.8
-0.765
-0.735
-0.7
-0.69
-0.675
-0.67
-0.665
-0.635
-0.575
-0.53
-0.495
-0.47
-0.45
-0.405
-0.37
-0.33
-0.325
-0.3
-0.29
-0.245
-0.215
-0.225
-0.24
-0.26
-0.25
-0.23
-0.235
-0.215
-0.235
-0.235
-0.25
-0.225
-0.22
-0.22
-0.245
-0.25
-0.255
-0.25
-0.24
-0.245
-0.265
-0.28
-0.285
-0.28
-0.27
-0.265
-0.29
-0.28
-0.285
-0.275
-0.265
-0.275
-0.275
-0.29
-0.3
-0.29
-0.285
-0.29
-0.285
-0.28
-0.27
-0.26
-0.235
-0.245
-0.26
-0.27
-0.26
-0.25
-0.245
-0.25
-0.265
-0.27
-0.27
-0.255
-0.235
-0.225
-0.245
-0.265
-0.29
-0.26
-0.26
-0.25
-0.28
-0.27
-0.28
-0.28
-0.28
-0.285
-0.29
-0.285
-0.27
-0.25
-0.24
-0.215
-0.21
-0.22
-0.205
-0.195
-0.19
-0.18
-0.16
-0.165
-0.14
-0.125
-0.095
-0.085
-0.115
-0.14
-0.135
-0.11
-0.09
-0.105
-0.17
-0.225
-0.25
-0.245
-0.22
-0.225
-0.245
-0.275
-0.275
-0.245
-0.23
-0.23
-0.25
-0.275
-0.26
-0.23
-0.215
-0.225
-0.255
-0.28
-0.295
-0.29
-0.27
-0.275
-0.285
-0.29
-0.28
-0.275
-0.245
-0.23
-0.19
-0.12
0.0
0.18
0.435
0.665
0.875
1.065
1.255
1.35
1.22
0.85
0.4
0.0
-0.22
-0.265
-0.24
-0.23
-0.28
-0.31
-0.285
-0.235
-0.21
-0.235
-0.23
-0.24
-0.265
-0.255
-0.25
-0.265
-0.3
-0.34
-0.365
-0.345
-0.32
-0.3
-0.315
-0.31
-0.31
-0.31
-0.295
-0.29
-0.265
-0.265
-0.27
-0.27
-0.24
-0.22
-0.24
-0.26
-0.26
-0.255
-0.235
-0.235
-0.245
-0.27
-0.26
-0.23
-0.195
-0.18
-0.175
-0.185
-0.165
-0.155
-0.14
-0.135
-0.145
-0.155
-0.15
-0.13
-0.09
-0.065
-0.05
-0.05
-0.04
-0.02
0.015
0.035
0.04
0.05
0.04
0.055
0.095
0.12
0.11
0.12
0.13
0.17
0.22
0.23
0.22
0.195
0.17
0.16
0.17
0.14
0.085
0.035
0.035
0.03
0.0
-0.015
-0.06
-0.085
-0.085
-0.12
-0.14
-0.155
-0.195
-0.2
-0.2
-0.195
-0.205
-0.22
-0.245
-0.275
-0.295
-0.3
-0.335
-0.35
-0.34
-0.33
-0.325
-0.31
-0.305
-0.33
-0.335
-0.355
-0.345
-0.335
-0.31
-0.305
-0.325
-0.34
-0.345
-0.315
-0.295
-0.29
-0.3
-0.32
-0.32
-0.3
-0.3
-0.29
-0.315
-0.325
-0.34
-0.34
-0.315
-0.3
-0.315
-0.32
-0.305
-0.28
-0.255
-0.255
-0.27
-0.315
-0.315
-0.31
-0.295
-0.295
-0.29
-0.27
-0.25
-0.215
-0.21
-0.225
-0.255
-0.275
-0.235
-0.2
-0.16
-0.15
-0.15
-0.17
-0.18
-0.18
-0.185
-0.19
-0.21
-0.22
-0.23
-0.255
-0.26
-0.275
-0.29
-0.3
-0.3
-0.285
-0.295
-0.305
-0.34
-0.345
-0.36
-0.35
-0.31
-0.315
-0.315
-0.325
-0.33
-0.31
-0.29
-0.275
-0.32
-0.34
-0.345
-0.36
-0.35
-0.33
-0.32
-0.34
-0.35
-0.305
-0.205
-0.075
0.065
0.245
0.47
0.73
1.005
1.22
1.36
1.265
0.955
0.55
0.19
-0.085
-0.23
-0.275
-0.29
-0.325
-0.315
-0.29
-0.26
-0.25
-0.27
-0.285
-0.29
-0.3
-0.315
-0.35
-0.375
-0.385
-0.4
-0.37
-0.345
-0.325
-0.325
-0.325
-0.32
-0.36
-0.37
-0.38
-0.36
-0.33
-0.315
-0.32
-0.335
-0.35
-0.335
-0.315
-0.305
-0.32
-0.335
-0.335
-0.32
-0.29
-0.265
-0.27
-0.285
-0.31
-0.31
-0.295
-0.26
-0.24
-0.24
-0.245
-0.235
-0.21
-0.19
-0.18
-0.17
-0.16
-0.12
-0.1
-0.06
-0.065
-0.095
-0.105
-0.09
-0.04
0.0
0.02
0.005
-0.015
0.015
0.055
0.08
0.07
0.03
-0.01
-0.015
0.01
0.02
-0.01
-0.05
-0.095
-0.13
-0.125
-0.13
-0.14
-0.17
-0.185
-0.21
-0.215
-0.24
-0.245
-0.285
-0.305
-0.32
-0.325
-0.325
-0.33
-0.335
-0.34
-0.335
-0.315
-0.3
-0.31
-0.335
-0.345
-0.325
-0.305
-0.3
-0.3
-0.345
-0.355
-0.355
-0.325
-0.275
-0.25
-0.245
-0.255
-0.295
-0.305
-0.305
-0.305
-0.295
-0.295
-0.295
-0.275
-0.265
-0.265
-0.28
-0.29
-0.29
-0.255
-0.225
-0.225
-0.25
-0.275
-0.285
-0.265
-0.255
-0.245
-0.265
-0.26
-0.27
-0.255
-0.265
-0.275
-0.29
-0.29
-0.275
-0.245
-0.22
-0.195
-0.195
-0.195
-0.19
-0.18
-0.16
-0.145
-0.16
-0.16
-0.15
-0.125
-0.105
-0.08
-0.09
-0.115
-0.14
-0.16
-0.175
-0.195
-0.225
-0.25
-0.22
-0.16
-0.1
-0.055
-0.025
0.015
0.065
0.14
0.245
0.35
0.405
0.465
0.505
0.575
0.64
0.705
0.745
0.805
0.86
0.94
1.055
1.15
1.195
1.22
1.225
1.195
1.15
1.145
1.13
1.155
1.185
1.215
1.24
1.225
1.2
1.225
1.255
1.25
1.145
0.94
0.685
0.425
0.215
0.0
-0.155
-0.29
-0.4
-0.5
-0.55
-0.55
-0.53
-0.53
-0.565
-0.61
-0.64
-0.64
-0.62
-0.61
-0.63
-0.67
-0.68
-0.69
-0.685
-0.67
-0.68
-0.705
-0.73
-0.725
-0.72
-0.71
-0.715
-0.735
-0.745
-0.75
-0.745
-0.77
-0.815
-0.845
-0.87
-0.865
-0.84
-0.835
-0.86
-0.88
-0.875
-0.855
-0.825
-0.835
-0.86
-0.9
-0.9
-0.9
-0.895
-0.89
-0.895
-0.91
-0.935
-0.925
-0.91
-0.885
-0.87
-0.86
-0.83
-0.8
-0.785
-0.77
-0.8
-0.81
-0.795
-0.755
-0.705
-0.67
-0.665
-0.64
-0.615
-0.59
-0.55
-0.515
-0.495
-0.49
-0.465
-0.445
-0.415
-0.4
-0.41
-0.425
-0.425
-0.405
-0.415
-0.415
-0.435
-0.42
-0.425
-0.405
-0.38
-0.37
-0.42
-0.425
-0.43
-0.415
-0.405
-0.41
-0.42
-0.435
-0.435
-0.425
-0.405
-0.4
-0.405
-0.42
-0.42
-0.395
-0.375
-0.38
-0.4
-0.42
-0.42
-0.41
-0.385
-0.405
-0.405
-0.4
-0.4
-0.395
-0.385
-0.35
-0.355
-0.355
-0.36
-0.36
-0.355
-0.345
-0.345
-0.35
-0.335
-0.35
-0.35
-0.375
-0.375
-0.36
-0.335
-0.33
-0.34
-0.355
-0.355
-0.36
-0.35
-0.33
-0.31
-0.315
-0.305
-0.305
-0.31
-0.29
-0.265
-0.24
-0.225
-0.215
-0.2
-0.19
-0.165
-0.16
-0.18
-0.22
-0.255
-0.25
-0.22
-0.215
-0.255
-0.285
-0.31
-0.3
-0.29
-0.275
-0.28
-0.29
-0.3
-0.335
-0.36
-0.375
-0.375
-0.37
-0.35
-0.335
-0.325
-0.315
-0.305
-0.32
-0.335
-0.34
-0.33
-0.325
-0.34
-0.35
-0.35
-0.34
-0.31
-0.305
-0.325
-0.38
-0.4
-0.38
-0.28
-0.15
0.01
0.19
0.42
0.695
0.94
1.155
1.305
1.35
1.185
0.845
0.445
0.09
-0.205
-0.35
-0.385
-0.37
-0.335
-0.32
-0.31
-0.295
-0.275
-0.255
-0.26
-0.26
-0.28
-0.305
-0.32
-0.3
-0.275
-0.26
-0.285
-0.325
-0.37
-0.345
-0.325
-0.295
-0.285
-0.305
-0.295
-0.28
-0.25
-0.24
-0.255
-0.27
-0.27
-0.27
-0.25
-0.24
-0.245
-0.235
-0.25
-0.245
-0.225
-0.215
-0.22
-0.22
-0.225
-0.22
-0.205
-0.195
-0.2
-0.215
-0.2
-0.175
-0.155
-0.135
-0.125
-0.13
-0.13
-0.13
-0.095
-0.055
-0.045
-0.04
-0.035
-0.015
0.005
0.025
0.015
0.0
-0.005
0.025
0.07
0.09
0.095
0.085
0.085
0.09
0.13
0.155
0.155
0.135
0.13
0.155
0.165
0.165
0.14
0.12
0.115
0.11
0.12
0.095
0.065
0.01
-0.025
-0.02
-0.01
-0.04
-0.08
-0.115
-0.15
-0.185
-0.175
-0.185
-0.21
-0.235
-0.245
-0.245
-0.245
-0.245
-0.265
-0.27
-0.27
-0.25
-0.25
-0.25
-0.275
-0.305
-0.305
-0.31
-0.29
-0.28
-0.275
-0.27
-0.265
-0.26
-0.28
-0.26
-0.28
-0.285
-0.285
-0.27
-0.255
-0.245
-0.25
-0.275
-0.27
-0.265
-0.245
-0.265
-0.26
-0.27
-0.28
-0.265
-0.25
-0.23
-0.225
-0.21
-0.205
-0.19
-0.185
-0.18
-0.175
-0.15
-0.13
-0.11
-0.08
-0.085
-0.1
-0.105
-0.11
-0.095
-0.095
-0.095
-0.135
-0.14
-0.17
-0.19
-0.22
-0.23
-0.245
-0.255
-0.25
-0.26
-0.25
-0.26
-0.245
-0.26
-0.27
-0.265
-0.265
-0.27
-0.295
-0.33
-0.33
-0.305
-0.28
-0.27
-0.28
-0.295
-0.3
-0.265
-0.25
-0.26
-0.3
-0.33
-0.31
-0.225
-0.1
0.055
0.235
0.49
0.775
1.085
1.35
1.49
1.39
1.02
0.525
0.055
-0.27
-0.385
-0.38
-0.365
-0.35
-0.34
-0.305
-0.27
-0.26
-0.285
-0.31
-0.305
-0.28
-0.27
-0.285
-0.305
-0.325
-0.315
-0.305
-0.3
-0.29
-0.3
-0.305
-0.295
-0.27
-0.28
-0.285
-0.285
-0.285
-0.275
-0.25
-0.255
-0.265
-0.275
-0.29
-0.275
-0.25
-0.245
-0.25
-0.255
-0.25
-0.225
-0.2
-0.185
-0.18
-0.18
-0.18
-0.17
-0.155
-0.155
-0.145
-0.165
-0.145
-0.125
-0.1
-0.105
-0.105
-0.1
-0.08
-0.06
-0.045
-0.045
-0.035
-0.06
-0.05
-0.01
0.02
0.035
0.03
0.01
0.02
0.05
0.07
0.08
0.07
0.055
0.06
0.08
0.095
0.095
0.075
0.04
0.02
0.005
-0.005
-0.015
-0.035
-0.065
-0.08
-0.095
-0.11
-0.11
-0.135
-0.155
-0.175
-0.17
-0.185
-0.18
-0.215
-0.245
-0.27
-0.265
-0.255
-0.26
-0.265
-0.275
-0.28
-0.275
-0.275
-0.27
-0.27
-0.28
-0.28
-0.265
-0.26
-0.255
-0.28
-0.305
-0.3
-0.28
-0.265
-0.265
-0.26
-0.26
-0.28
-0.26
-0.235
-0.22
-0.24
-0.245
-0.245
-0.235
-0.225
-0.215
-0.23
-0.26
-0.25
-0.245
-0.235
-0.235
-0.23
-0.24
-0.225
-0.22
-0.19
-0.19
-0.17
-0.17
-0.17
-0.16
-0.14
-0.13
-0.135
-0.125
-0.125
-0.11
-0.095
-0.075
-0.075
-0.09
-0.095
-0.08
-0.075
-0.08
-0.1
-0.135
-0.15
-0.17
-0.185
-0.2
-0.215
-0.25
-0.255
-0.255
-0.245
-0.255
-0.255
-0.285
-0.285
-0.26
-0.25
-0.255
-0.275
-0.29
-0.295
-0.29
-0.28
-0.275
-0.265
-0.26
-0.255
-0.23
-0.215
-0.225
-0.23
-0.225
-0.2
-0.14
-0.035
0.125
0.33
0.58
0.835
1.095
1.39
1.645
1.855
1.99
2.045
1.88
1.51
1.035
0.56
0.165
-0.05
-0.125
-0.155
-0.205
-0.25
-0.26
-0.265
-0.27
-0.275
-0.285
-0.295
-0.32
-0.335
-0.32
-0.315
-0.31
-0.32
-0.33
-0.335
-0.33
-0.325
-0.33
-0.345
-0.355
-0.355
-0.35
-0.32
-0.31
-0.32
-0.325
-0.315
-0.305
-0.29
-0.3
-0.31
-0.32
-0.325
-0.315
-0.285
-0.28
-0.275
-0.29
-0.31
-0.285
-0.27
-0.26
-0.27
-0.275
-0.28
-0.25
-0.245
-0.225
-0.24
-0.24
-0.255
-0.24
-0.22
-0.19
-0.195
-0.205
-0.175
-0.16
-0.135
-0.1
-0.115
-0.13
-0.13
-0.115
-0.105
-0.1
-0.085
-0.095
-0.08
-0.05
-0.025
-0.015
-0.02
-0.04
-0.045
-0.045
-0.04
-0.045
-0.065
-0.115
-0.14
-0.14
-0.125
-0.125
-0.145
-0.165
-0.205
-0.225
-0.235
-0.225
-0.22
-0.23
-0.245
-0.235
-0.225
-0.22
-0.25
-0.275
-0.295
-0.265
-0.265
-0.24
-0.235
-0.245
-0.245
-0.24
-0.245
-0.255
-0.27
-0.285
-0.28
-0.27
-0.265
-0.25
-0.26
-0.27
-0.27
-0.265
-0.24
-0.22
-0.235
-0.23
-0.23
-0.215
-0.195
-0.195
-0.2
-0.215
-0.25
-0.24
-0.225
-0.215
-0.225
-0.255
-0.25
-0.205
-0.18
-0.16
-0.16
-0.17
-0.15
-0.135
-0.125
-0.115
-0.13
-0.12
-0.115
-0.1
-0.07
-0.06
-0.065
-0.075
-0.085
-0.07
-0.05
-0.055
-0.08
-0.095
-0.11
-0.125
-0.125
-0.16
-0.18
-0.21
-0.23
-0.235
-0.21
-0.2
-0.22
-0.245
-0.265
-0.255
-0.235
-0.225
-0.215
-0.225
-0.25
-0.25
-0.265
-0.245
-0.25
-0.265
-0.265
-0.24
-0.2
-0.19
-0.195
-0.2
-0.22
-0.225
-0.21
-0.195
-0.17
-0.065
0.085
0.32
0.59
0.855
1.08
1.28
1.49
1.6
1.535
1.24
0.835
0.42
0.08
-0.115
-0.18
-0.17
-0.2
-0.25
-0.28
-0.23
-0.185
-0.185
-0.205
-0.24
-0.26
-0.25
-0.235
-0.22
-0.21
-0.25
-0.26
-0.29
-0.275
-0.27
-0.27
-0.28
-0.275
-0.265
-0.225
-0.22
-0.225
-0.255
-0.26
-0.25
-0.235
-0.225
-0.21
-0.235
-0.23
-0.215
-0.205
-0.195
-0.185
-0.215
-0.205
-0.185
-0.16
-0.125
-0.115
-0.115
-0.115
-0.105
-0.09
-0.095
-0.105
-0.135
-0.135
-0.095
-0.06
-0.055
-0.04
-0.035
-0.02
0.0
0.015
0.02
0.04
0.045
0.05
0.07
0.1
0.12
0.115
0.105
0.115
0.13
0.16
0.19
0.205
0.2
0.19
0.175
0.195
0.19
0.165
0.13
0.1
0.085
0.085
0.065
0.03
-0.005
-0.055
-0.07
-0.08
-0.09
-0.105
-0.135
-0.15
-0.155
-0.15
-0.17
-0.185
-0.215
-0.22
-0.22
-0.21
-0.215
-0.215
-0.22
-0.23
-0.22
-0.22
-0.19
-0.2
-0.23
-0.255
-0.23
-0.225
-0.21
-0.21
-0.215
-0.24
-0.23
-0.2
-0.175
-0.165
-0.17
-0.185
-0.195
-0.2
-0.215
-0.225
-0.22
-0.215
-0.195
-0.18
-0.185
-0.2
-0.24
-0.24
-0.215
-0.19
-0.19
-0.185
-0.205
-0.205
-0.21
-0.185
-0.175
-0.175
-0.195
-0.205
-0.195
-0.165
-0.135
-0.125
-0.13
-0.1
-0.105
-0.105
-0.1
-0.105
-0.115
-0.095
-0.075
-0.065
-0.07
-0.075
-0.095
-0.12
-0.11
-0.12
-0.14
-0.14
-0.16
-0.18
-0.19
-0.215
-0.245
-0.25
-0.26
-0.26
-0.26
-0.245
-0.27
-0.28
-0.29
-0.295
-0.25
-0.235
-0.22
-0.22
-0.24
-0.25
-0.255
-0.235
-0.22
-0.215
-0.22
-0.245
-0.225
-0.165
-0.065
0.11
0.32
0.58
0.84
1.1
1.35
1.515
1.52
1.28
0.865
0.43
0.08
-0.12
-0.18
-0.185
-0.195
-0.225
-0.225
-0.21
-0.195
-0.21
-0.235
-0.245
-0.245
-0.26
-0.25
-0.255
-0.25
-0.235
-0.23
-0.245
-0.26
-0.255
-0.255
-0.25
-0.265
-0.245
-0.26
-0.27
-0.26
-0.25
-0.235
-0.235
-0.25
-0.24
-0.23
-0.21
-0.21
-0.195
-0.18
-0.185
-0.19
-0.18
-0.175
-0.175
-0.175
-0.165
-0.145
-0.11
-0.11
-0.105
-0.115
-0.12
