Lead II
-0.19
-0.2
-0.2
-0.19
-0.17
-0.18
-0.205
-0.2
-0.19
-0.185
-0.16
-0.155
-0.17
-0.17
-0.165
-0.145
-0.14
-0.15
-0.17
-0.17
-0.155
-0.125
-0.095
-0.085
-0.08
-0.05
0.01
0.095
0.175
0.27
0.38
0.545
0.705
0.87
1.03
1.155
1.22
1.215
1.115
0.92
0.685
0.395
0.085
-0.175
-0.325
-0.37
-0.32
-0.275
-0.25
-0.24
-0.225
-0.195
-0.195
-0.19
-0.215
-0.23
-0.225
-0.225
-0.22
-0.23
-0.23
-0.235
-0.24
-0.225
-0.225
-0.22
-0.24
-0.26
-0.25
-0.24
-0.225
-0.22
-0.235
-0.245
-0.245
-0.23
-0.22
-0.225
-0.235
-0.24
-0.235
-0.215
-0.2
-0.215
-0.22
-0.225
-0.23
-0.235
-0.215
-0.225
-0.23
-0.25
-0.245
-0.235
-0.205
-0.205
-0.22
-0.23
-0.21
-0.2
-0.175
-0.18
-0.19
-0.185
-0.18
-0.165
-0.15
-0.145
-0.16
-0.15
-0.14
-0.1
-0.08
-0.07
-0.07
-0.08
-0.065
-0.04
-0.025
-0.015
-0.025
-0.02
-0.01
0.015
0.035
0.045
0.04
0.025
0.045
0.055
0.075
0.085
0.07
0.055
0.055
0.065
0.07
0.065
0.045
0.035
0.025
0.025
0.02
-0.005
-0.02
-0.05
-0.06
-0.06
-0.055
-0.075
-0.11
-0.14
-0.14
-0.145
-0.145
-0.16
-0.18
-0.195
-0.2
-0.185
-0.18
-0.185
-0.2
-0.215
-0.215
-0.2
-0.195
-0.205
-0.205
-0.21
-0.2
-0.19
-0.18
-0.19
-0.205
-0.215
-0.2
-0.185
-0.18
-0.18
-0.195
-0.2
-0.19
-0.17
-0.165
-0.145
-0.15
-0.14
-0.125
-0.09
-0.05
-0.035
-0.03
-0.035
-0.015
0.03
0.085
0.135
0.17
0.215
0.275
0.335
0.405
0.46
0.51
0.56
0.63
0.71
0.78
0.86
0.905
0.945
0.945
0.93
0.915
0.89
0.845
0.815
0.76
0.705
0.64
0.55
0.465
0.355
0.27
0.185
0.13
0.085
0.06
0.03
0.03
0.035
0.07
0.12
0.16
0.215
0.27
0.265
0.21
0.055
-0.095
-0.225
-0.29
-0.33
-0.35
-0.375
-0.405
-0.44
-0.45
-0.45
-0.47
-0.49
-0.52
-0.545
-0.545
-0.555
-0.555
-0.59
-0.605
-0.595
-0.605
-0.6
-0.595
-0.605
-0.605
-0.61
-0.62
-0.615
-0.61
-0.62
-0.65
-0.66
-0.64
-0.645
-0.62
-0.625
-0.645
-0.655
-0.66
-0.645
-0.635
-0.64
-0.665
-0.685
-0.67
-0.66
-0.645
-0.655
-0.66
-0.665
-0.66
-0.65
-0.625
-0.635
-0.635
-0.635
-0.62
-0.6
-0.585
-0.575
-0.58
-0.585
-0.555
-0.525
-0.5
-0.485
-0.47
-0.46
-0.435
-0.395
-0.365
-0.345
-0.335
-0.33
-0.31
-0.27
-0.235
-0.225
-0.23
-0.23
-0.23
-0.215
-0.2
-0.22
-0.215
-0.225
-0.225
-0.215
-0.205
-0.22
-0.24
-0.25
-0.24
-0.23
-0.215
-0.22
-0.24
-0.255
-0.255
-0.26
-0.25
-0.245
-0.26
-0.275
-0.28
-0.26
-0.265
-0.28
-0.285
-0.3
-0.28
-0.26
-0.255
-0.26
-0.275
-0.29
-0.275
-0.27
-0.24
-0.25
-0.26
-0.28
-0.27
-0.245
-0.245
-0.23
-0.255
-0.245
-0.255
-0.225
-0.215
-0.23
-0.235
-0.25
-0.25
-0.25
-0.23
-0.22
-0.24
-0.25
-0.24
-0.235
-0.225
-0.23
-0.245
-0.28
-0.255
-0.245
-0.235
-0.23
-0.24
-0.25
-0.245
-0.225
-0.21
-0.215
-0.22
-0.245
-0.245
-0.23
-0.22
-0.24
-0.23
-0.245
-0.25
-0.24
-0.225
-0.235
-0.245
-0.25
-0.25
-0.24
-0.23
-0.245
-0.25
-0.265
-0.255
-0.25
-0.235
-0.24
-0.265
-0.28
-0.26
-0.25
-0.225
-0.24
-0.255
-0.265
-0.27
-0.255
-0.24
-0.25
-0.255
-0.265
-0.25
-0.245
-0.24
-0.25
-0.24
-0.26
-0.25
-0.245
-0.225
-0.23
-0.24
-0.245
-0.24
-0.235
-0.22
-0.215
-0.23
-0.24
-0.225
-0.205
-0.2
-0.215
-0.225
-0.23
-0.245
-0.235
-0.23
-0.23
-0.25
-0.25
-0.23
-0.22
-0.21
-0.225
-0.235
-0.24
-0.23
-0.215
-0.21
-0.225
-0.24
-0.25
-0.24
-0.225
-0.21
-0.225
-0.24
-0.25
-0.225
-0.225
-0.205
-0.21
-0.22
-0.24
-0.23
-0.215
-0.205
-0.21
-0.225
-0.235
-0.225
-0.21
-0.205
-0.215
-0.215
-0.22
-0.23
-0.215
-0.205
-0.205
-0.225
-0.24
-0.23
-0.22
-0.2
-0.215
-0.24
-0.245
-0.235
-0.215
-0.21
-0.22
-0.23
-0.245
-0.24
-0.225
-0.215
-0.22
-0.24
-0.24
-0.23
-0.22
-0.21
-0.205
-0.215
-0.215
-0.195
-0.195
-0.185
-0.2
-0.215
-0.23
-0.22
-0.205
-0.195
-0.2
-0.21
-0.22
-0.215
-0.19
-0.195
-0.195
-0.21
-0.21
-0.2
-0.195
-0.185
-0.185
-0.195
-0.205
-0.195
-0.185
-0.175
-0.195
-0.21
-0.215
-0.205
-0.19
-0.185
-0.185
-0.2
-0.19
-0.19
-0.175
-0.16
-0.16
-0.175
-0.165
-0.155
-0.135
-0.13
-0.14
-0.15
-0.145
-0.135
-0.105
-0.085
-0.04
0.015
0.085
0.175
0.3
0.435
0.59
0.725
0.86
1.015
1.14
1.19
1.1
0.935
0.7
0.46
0.225
-0.02
-0.19
-0.265
-0.275
-0.235
-0.195
-0.185
-0.2
-0.23
-0.24
-0.235
-0.23
-0.22
-0.235
-0.255
-0.25
-0.245
-0.255
-0.255
-0.265
-0.28
-0.285
-0.28
-0.265
-0.26
-0.27
-0.28
-0.275
-0.26
-0.255
-0.26
-0.27
-0.275
-0.29
-0.285
-0.265
-0.255
-0.25
-0.255
-0.265
-0.26
-0.255
-0.245
-0.245
-0.255
-0.265
-0.27
-0.24
-0.23
-0.245
-0.255
-0.26
-0.245
-0.23
-0.215
-0.225
-0.23
-0.23
-0.22
-0.215
-0.195
-0.2
-0.195
-0.185
-0.17
-0.16
-0.145
-0.135
-0.145
-0.145
-0.14
-0.105
-0.09
-0.095
-0.08
-0.09
-0.08
-0.05
-0.04
-0.04
-0.04
-0.045
-0.04
-0.01
-0.015
-0.025
-0.02
-0.02
-0.01
-0.005
0.0
0.01
-0.005
-0.02
-0.02
-0.015
-0.01
-0.03
-0.05
-0.06
-0.055
-0.06
-0.05
-0.065
-0.08
-0.105
-0.12
-0.135
-0.135
-0.15
-0.15
-0.165
-0.18
-0.17
-0.165
-0.185
-0.205
-0.21
-0.2
-0.195
-0.185
-0.175
-0.19
-0.21
-0.2
-0.195
-0.18
-0.2
-0.205
-0.21
-0.195
-0.18
-0.185
-0.185
-0.205
-0.215
-0.21
-0.18
-0.175
-0.2
-0.195
-0.2
-0.21
-0.195
-0.19
-0.195
-0.21
-0.205
-0.195
-0.17
-0.165
-0.18
-0.185
-0.205
-0.195
-0.19
-0.18
-0.185
-0.18
-0.2
-0.18
-0.18
-0.17
-0.185
-0.2
-0.21
-0.2
-0.185
-0.17
-0.175
-0.19
-0.195
-0.195
-0.19
-0.17
-0.18
-0.18
-0.2
-0.195
-0.18
-0.165
-0.16
-0.185
-0.21
-0.19
-0.19
-0.17
-0.18
-0.21
-0.235
-0.22
-0.21
-0.19
-0.22
-0.225
-0.24
-0.225
-0.225
-0.2
-0.215
-0.23
-0.23
-0.225
-0.225
-0.215
-0.215
-0.22
-0.24
-0.235
-0.225
-0.215
-0.225
-0.235
-0.25
-0.245
-0.23
-0.22
-0.23
-0.245
-0.25
-0.24
-0.22
-0.215
-0.21
-0.225
-0.24
-0.225
-0.21
-0.205
-0.21
-0.215
-0.22
-0.23
-0.21
-0.205
-0.22
-0.215
-0.21
-0.2
-0.19
-0.18
-0.17
-0.18
-0.195
-0.175
-0.16
-0.135
-0.155
-0.14
-0.14
-0.1
-0.04
0.015
0.085
0.16
0.255
0.4
0.56
0.715
0.86
0.98
1.09
1.16
1.205
1.135
0.99
0.77
0.53
0.26
0.035
-0.155
-0.295
-0.34
-0.33
-0.29
-0.25
-0.225
-0.225
-0.235
-0.255
-0.26
-0.25
-0.235
-0.245
-0.26
-0.285
-0.285
-0.27
-0.28
-0.295
-0.305
-0.31
-0.295
-0.285
-0.28
-0.295
-0.3
-0.305
-0.3
-0.29
-0.28
-0.27
-0.285
-0.3
-0.28
-0.28
-0.255
-0.265
-0.275
-0.29
-0.275
-0.26
-0.245
-0.255
-0.26
-0.27
-0.255
-0.225
-0.23
-0.21
-0.23
-0.23
-0.22
-0.205
-0.2
-0.2
-0.205
-0.2
-0.18
-0.175
-0.135
-0.13
-0.14
-0.14
-0.13
-0.115
-0.1
-0.105
-0.105
-0.115
-0.105
-0.075
-0.035
-0.055
-0.06
-0.065
-0.045
-0.025
-0.005
-0.005
-0.015
-0.015
0.0
0.025
0.03
0.02
0.02
0.015
0.025
0.035
0.06
0.045
0.03
0.015
0.015
0.02
0.025
0.03
0.005
0.0
-0.01
-0.005
0.0
-0.01
-0.04
-0.065
-0.08
-0.075
-0.06
-0.07
-0.085
-0.11
-0.11
-0.11
-0.1
-0.125
-0.14
-0.15
-0.155
-0.14
-0.125
-0.135
-0.135
-0.155
-0.145
-0.13
-0.12
-0.14
-0.13
-0.145
-0.13
-0.115
-0.11
-0.11
-0.125
-0.15
-0.125
-0.085
-0.07
-0.04
-0.035
-0.025
0.01
0.035
0.065
0.075
0.1
0.15
0.21
0.28
0.335
0.37
0.405
0.48
0.555
0.64
0.71
0.775
0.83
0.92
0.99
1.05
1.075
1.07
1.03
0.995
0.98
0.975
0.93
0.845
0.74
0.625
0.525
0.445
0.345
0.25
0.155
0.095
0.065
0.07
0.08
0.06
0.035
0.06
0.12
0.195
0.285
0.31
0.265
0.16
0.045
-0.055
-0.15
-0.23
-0.275
-0.305
-0.315
-0.335
-0.35
-0.38
-0.41
-0.42
-0.435
-0.44
-0.44
-0.465
-0.48
-0.505
-0.515
-0.51
-0.495
-0.51
-0.535
-0.555
-0.555
-0.555
-0.525
-0.55
-0.575
-0.565
-0.575
-0.575
-0.57
-0.59
-0.61
-0.62
-0.605
-0.59
-0.59
-0.595
-0.61
-0.62
-0.62
-0.61
-0.605
-0.615
-0.625
-0.63
-0.62
-0.6
-0.585
-0.59
-0.615
-0.625
-0.615
-0.585
-0.575
-0.58
-0.575
-0.575
-0.575
-0.545
-0.525
-0.525
-0.52
-0.505
-0.5
-0.47
-0.445
-0.42
-0.435
-0.4
-0.385
-0.37
-0.345
-0.32
-0.31
-0.31
-0.285
-0.245
-0.215
-0.21
-0.205
-0.21
-0.18
-0.16
-0.16
-0.155
-0.155
-0.165
-0.16
-0.16
-0.14
-0.165
-0.175
-0.185
-0.18
-0.165
-0.17
-0.185
-0.205
-0.2
-0.195
-0.185
-0.175
-0.17
-0.195
-0.2
-0.2
-0.19
-0.18
-0.185
-0.205
-0.22
-0.2
-0.185
-0.16
-0.165
-0.185
-0.18
-0.19
-0.17
-0.165
-0.175
-0.175
-0.17
-0.16
-0.155
-0.15
-0.15
-0.165
-0.165
-0.16
-0.14
-0.14
-0.145
-0.155
-0.17
-0.155
-0.135
-0.145
-0.145
-0.155
-0.16
-0.17
-0.16
-0.135
-0.15
-0.14
-0.15
-0.14
-0.12
-0.13
-0.145
-0.17
-0.175
-0.16
-0.155
-0.145
-0.16
-0.165
-0.185
-0.185
-0.185
-0.18
-0.185
-0.19
-0.175
-0.16
-0.13
-0.135
-0.15
-0.15
-0.17
-0.155
-0.145
-0.135
-0.15
-0.155
-0.155
-0.15
-0.135
-0.12
-0.135
-0.145
-0.15
-0.15
-0.145
-0.135
-0.135
-0.155
-0.16
-0.145
-0.125
-0.125
-0.12
-0.135
-0.15
-0.15
-0.15
-0.155
-0.155
-0.17
-0.175
-0.17
-0.16
-0.155
-0.16
-0.17
-0.19
-0.18
-0.175
-0.165
-0.18
-0.195
-0.195
-0.205
-0.2
-0.18
-0.185
-0.195
-0.19
-0.185
-0.18
-0.17
-0.185
-0.2
-0.195
-0.17
-0.155
-0.15
-0.17
-0.18
-0.175
-0.15
-0.145
-0.125
-0.125
-0.145
-0.15
-0.13
-0.12
-0.115
-0.115
-0.135
-0.14
-0.125
-0.095
-0.095
-0.095
-0.12
-0.125
-0.135
-0.12
-0.12
-0.12
-0.145
-0.145
-0.135
-0.11
-0.115
-0.13
-0.15
-0.16
-0.15
-0.13
-0.125
-0.135
-0.145
-0.145
-0.13
-0.13
-0.12
-0.13
-0.125
-0.125
-0.115
-0.095
-0.07
-0.05
-0.02
0.035
0.125
0.225
0.36
0.51
0.67
0.845
1.03
1.195
1.325
1.405
1.38
1.265
1.06
0.78
0.475
0.13
-0.14
-0.285
-0.305
-0.24
-0.17
-0.155
-0.155
-0.165
-0.175
-0.165
-0.155
-0.17
-0.195
-0.215
-0.195
-0.195
-0.2
-0.23
-0.24
-0.245
-0.225
-0.215
-0.195
-0.23
-0.23
-0.25
-0.24
-0.225
-0.23
-0.235
-0.26
-0.28
-0.255
-0.245
-0.24
-0.25
-0.265
-0.265
-0.26
-0.23
-0.215
-0.235
-0.245
-0.255
-0.235
-0.195
-0.19
-0.185
-0.2
-0.205
-0.195
-0.17
-0.175
-0.16
-0.165
-0.165
-0.165
-0.155
-0.16
-0.165
-0.15
-0.14
-0.145
-0.14
-0.11
-0.115
-0.12
-0.125
-0.105
-0.105
-0.095
-0.1
-0.105
-0.105
-0.095
-0.08
-0.07
-0.075
-0.075
-0.08
-0.055
-0.045
-0.02
-0.03
-0.035
-0.04
-0.025
-0.005
0.005
0.01
0.0
0.01
0.025
0.04
0.05
0.035
0.02
0.03
0.04
0.05
0.05
0.045
0.005
0.0
-0.01
0.0
0.01
-0.02
-0.04
-0.05
-0.045
-0.05
-0.055
-0.065
-0.09
-0.105
-0.12
-0.095
-0.095
-0.1
-0.135
-0.13
-0.145
-0.13
-0.14
-0.155
-0.175
-0.185
-0.165
-0.15
-0.14
-0.15
-0.155
-0.165
-0.17
-0.16
-0.155
-0.165
-0.165
-0.165
-0.165
-0.15
-0.145
-0.14
-0.165
-0.16
-0.14
-0.13
-0.135
-0.145
-0.15
-0.155
-0.14
-0.11
-0.12
-0.13
-0.135
-0.135
-0.135
-0.115
-0.11
-0.11
-0.135
-0.13
-0.12
-0.11
-0.115
-0.13
-0.145
-0.14
-0.125
-0.115
-0.115
-0.125
-0.14
-0.13
-0.13
-0.12
-0.12
-0.135
-0.14
-0.135
-0.115
-0.12
-0.135
-0.14
-0.16
-0.165
-0.16
-0.17
-0.155
-0.16
-0.18
-0.19
-0.16
-0.15
-0.14
-0.155
-0.18
-0.175
-0.175
-0.17
-0.18
-0.17
-0.18
-0.175
-0.18
-0.175
-0.175
-0.17
-0.185
-0.185
-0.175
-0.175
-0.18
-0.195
-0.21
-0.195
-0.19
-0.17
-0.18
-0.195
-0.205
-0.19
-0.18
-0.165
-0.17
-0.175
-0.185
-0.19
-0.19
-0.185
-0.18
-0.18
-0.17
-0.17
-0.165
-0.15
-0.145
-0.155
-0.18
-0.17
-0.15
-0.105
-0.055
-0.015
0.045
0.11
0.22
0.37
0.53
0.72
0.88
1.045
1.21
1.34
1.395
1.32
1.155
0.9
0.645
0.35
0.05
-0.23
-0.405
-0.45
-0.39
-0.32
-0.26
-0.245
-0.25
-0.25
-0.24
-0.22
-0.23
-0.245
-0.25
-0.255
-0.245
-0.245
-0.235
-0.245
-0.265
-0.28
-0.275
-0.265
-0.255
-0.265
-0.27
-0.275
-0.29
-0.275
-0.28
-0.275
-0.285
-0.28
-0.27
-0.27
-0.255
-0.27
-0.295
-0.29
-0.285
-0.27
-0.27
-0.285
-0.3
-0.29
-0.275
-0.27
-0.255
-0.275
-0.285
-0.28
-0.275
-0.255
-0.245
-0.245
-0.26
-0.275
-0.25
-0.245
-0.24
-0.235
-0.24
-0.24
-0.24
-0.22
-0.205
-0.205
-0.21
-0.21
-0.215
-0.185
-0.165
-0.175
-0.18
-0.18
-0.175
-0.15
-0.125
-0.14
-0.15
-0.155
-0.135
-0.13
-0.12
-0.115
-0.125
-0.12
-0.115
-0.07
-0.055
-0.055
-0.08
-0.09
-0.07
-0.055
-0.05
-0.055
-0.045
-0.05
-0.05
-0.055
-0.045
-0.06
-0.085
-0.09
-0.085
-0.09
-0.095
-0.105
-0.13
-0.145
-0.145
-0.13
-0.135
-0.135
-0.175
-0.195
-0.195
-0.18
-0.18
-0.19
-0.19
-0.205
-0.205
-0.2
-0.195
-0.205
-0.225
-0.235
-0.22
-0.22
-0.225
-0.235
-0.24
-0.245
-0.235
-0.22
-0.21
-0.23
-0.24
-0.24
-0.215
-0.21
-0.185
-0.195
-0.21
-0.205
-0.195
-0.2
-0.19
-0.195
-0.21
-0.225
-0.22
-0.195
-0.205
-0.205
-0.22
-0.215
-0.2
-0.185
-0.185
-0.21
-0.21
-0.21
-0.19
-0.19
-0.17
-0.17
-0.195
-0.2
-0.185
-0.175
-0.185
-0.18
-0.185
-0.195
-0.195
-0.18
-0.19
-0.19
-0.195
-0.19
-0.18
-0.165
-0.175
-0.19
-0.205
-0.215
-0.2
-0.185
-0.19
-0.19
-0.2
-0.195
-0.205
-0.185
-0.19
-0.2
-0.225
-0.215
-0.21
-0.2
-0.2
-0.21
-0.22
-0.23
-0.225
-0.21
-0.22
-0.23
-0.235
-0.23
-0.22
-0.2
-0.195
-0.2
-0.215
-0.225
-0.215
-0.215
-0.22
-0.225
-0.215
-0.215
-0.205
-0.195
-0.195
-0.205
-0.235
-0.23
-0.21
-0.2
-0.19
-0.2
-0.205
-0.21
-0.2
-0.18
-0.18
-0.185
-0.19
-0.195
-0.16
-0.15
-0.125
-0.12
-0.115
-0.06
0.03
0.135
0.25
0.405
0.58
0.775
0.98
1.17
1.34
1.44
1.465
1.38
1.195
0.945
0.64
0.285
-0.07
-0.325
-0.435
-0.395
-0.335
-0.295
-0.275
-0.26
-0.25
-0.23
-0.235
-0.255
-0.265
-0.275
-0.27
-0.27
-0.265
-0.285
-0.28
-0.285
-0.275
-0.27
-0.255
-0.28
-0.305
-0.31
-0.3
-0.285
-0.275
-0.275
-0.285
-0.275
-0.28
-0.285
-0.275
-0.27
-0.29
-0.295
-0.255
-0.24
-0.235
-0.255
-0.265
-0.275
-0.265
-0.245
-0.235
-0.25
-0.26
-0.26
-0.255
-0.225
-0.23
-0.235
-0.255
-0.255
-0.25
-0.225
-0.225
-0.21
-0.23
-0.235
-0.22
-0.2
-0.19
-0.195
-0.195
-0.19
-0.17
-0.155
-0.145
-0.145
-0.15
-0.145
-0.14
-0.125
-0.13
-0.115
-0.115
-0.11
-0.085
-0.07
-0.05
-0.065
-0.075
-0.065
-0.06
-0.03
-0.02
-0.02
-0.025
-0.015
0.01
0.02
0.025
0.025
0.015
0.01
0.015
0.025
0.015
0.01
0.0
-0.005
-0.01
-0.01
-0.015
-0.02
-0.04
-0.075
-0.075
-0.065
-0.085
-0.1
-0.12
-0.135
-0.135
-0.14
-0.165
-0.16
-0.185
-0.185
-0.185
-0.185
-0.195
-0.215
-0.235
-0.24
-0.245
-0.235
-0.215
-0.22
-0.225
-0.23
-0.23
-0.22
-0.2
-0.21
-0.23
-0.225
-0.23
-0.215
-0.21
-0.195
-0.2
-0.18
-0.185
-0.165
-0.155
-0.16
-0.17
-0.17
-0.165
-0.145
-0.15
-0.165
-0.17
-0.165
-0.155
-0.135
-0.13
-0.145
-0.165
-0.165
-0.145
-0.13
-0.135
-0.12
-0.145
-0.15
-0.15
-0.155
-0.155
-0.17
-0.17
-0.185
-0.16
-0.15
-0.15
-0.17
-0.175
-0.185
-0.18
-0.17
-0.165
-0.17
-0.19
-0.185
-0.17
-0.165
-0.16
-0.18
-0.2
-0.2
-0.18
-0.18
-0.175
-0.19
-0.19
-0.205
-0.195
-0.175
-0.175
-0.18
-0.185
-0.18
-0.155
-0.15
-0.155
-0.16
-0.17
-0.19
-0.17
-0.155
-0.135
-0.145
-0.15
-0.145
-0.145
-0.14
-0.145
-0.13
-0.145
-0.125
-0.095
-0.035
0.025
0.115
0.2
0.35
0.565
0.785
1.005
1.195
1.375
1.495
1.535
1.5
1.335
1.05
0.69
0.32
-0.05
-0.305
-0.405
-0.37
-0.305
-0.245
-0.195
-0.195
-0.205
-0.23
-0.24
-0.24
-0.235
-0.23
-0.235
-0.245
-0.265
-0.26
-0.265
-0.25
-0.25
-0.255
-0.285
-0.275
-0.26
-0.245
-0.235
-0.255
-0.265
-0.27
-0.27
-0.245
-0.245
-0.24
-0.25
-0.255
-0.245
-0.23
-0.23
-0.24
-0.26
-0.265
-0.25
-0.235
-0.235
-0.22
-0.245
-0.24
-0.24
-0.235
-0.23
-0.23
-0.225
-0.22
-0.2
-0.19
-0.2
-0.205
-0.22
-0.205
-0.195
-0.185
-0.175
-0.185
-0.16
-0.15
-0.145
-0.13
-0.115
-0.12
-0.115
-0.1
-0.085
-0.07
-0.06
-0.06
-0.065
-0.065
-0.04
-0.035
-0.025
-0.04
-0.035
-0.02
-0.025
0.005
0.005
-0.005
0.0
-0.01
0.0
0.0
-0.005
-0.015
-0.02
-0.025
-0.035
-0.035
-0.04
-0.065
-0.095
-0.115
-0.105
-0.095
-0.115
-0.12
-0.155
-0.17
-0.165
-0.16
-0.16
-0.19
-0.21
-0.215
-0.2
-0.17
-0.17
-0.18
-0.21
-0.195
-0.185
-0.16
-0.175
-0.175
-0.175
-0.175
-0.14
-0.125
-0.105
-0.1
-0.075
-0.05
-0.025
0.02
0.045
0.095
0.135
0.205
0.275
0.35
0.4
0.46
0.515
0.595
0.675
0.765
0.85
0.945
0.995
1.08
1.135
1.15
1.12
1.07
1.04
1.015
0.96
0.88
0.765
0.63
0.5
0.38
0.27
0.165
0.075
0.025
-0.01
-0.025
-0.03
-0.02
-0.005
0.03
0.09
0.2
0.31
0.345
0.28
0.13
-0.065
-0.24
-0.355
-0.4
-0.415
-0.425
-0.45
-0.49
-0.495
-0.495
-0.52
-0.545
-0.58
-0.59
-0.585
-0.585
-0.59
-0.605
-0.635
-0.64
-0.63
-0.62
-0.63
-0.645
-0.67
-0.675
-0.66
-0.66
-0.665
-0.675
-0.675
-0.685
-0.68
-0.675
-0.68
-0.69
-0.7
-0.68
-0.675
-0.66
-0.665
-0.675
-0.695
-0.7
-0.695
-0.675
-0.67
-0.67
-0.68
-0.68
-0.66
-0.63
-0.625
-0.63
-0.635
-0.615
-0.595
-0.565
-0.55
-0.53
-0.53
-0.515
-0.495
-0.47
-0.455
-0.455
-0.445
-0.42
-0.375
-0.345
-0.33
-0.31
-0.315
-0.3
-0.28
-0.255
-0.235
-0.26
-0.265
-0.26
-0.255
-0.22
-0.23
-0.24
-0.26
-0.26
-0.255
-0.225
-0.24
-0.245
-0.27
-0.275
-0.26
-0.25
-0.245
-0.255
-0.245
-0.24
-0.23
-0.23
-0.225
-0.24
-0.235
-0.24
-0.23
-0.23
-0.22
-0.215
-0.235
-0.245
-0.23
-0.215
-0.215
-0.23
-0.24
-0.245
-0.22
-0.21
-0.205
-0.215
-0.24
-0.245
-0.23
-0.21
-0.2
-0.21
-0.21
-0.22
-0.205
-0.185
-0.185
-0.205
-0.215
-0.2
-0.195
-0.175
-0.17
-0.19
-0.2
-0.195
-0.195
-0.175
-0.18
-0.18
-0.2
-0.19
-0.185
-0.175
-0.18
-0.185
-0.22
-0.215
-0.195
-0.185
-0.18
-0.2
-0.21
-0.21
-0.19
-0.18
-0.195
-0.2
-0.21
-0.21
-0.2
-0.175
-0.185
-0.2
-0.215
-0.22
-0.215
-0.2
-0.19
-0.215
-0.22
-0.235
-0.22
-0.19
-0.2
-0.22
-0.235
-0.225
-0.215
-0.2
-0.185
-0.205
-0.22
-0.21
-0.2
-0.19
-0.195
-0.195
-0.215
-0.205
-0.19
-0.18
-0.18
-0.205
-0.22
-0.22
-0.205
-0.2
-0.2
-0.205
-0.23
-0.225
-0.22
-0.21
-0.21
-0.22
-0.24
-0.235
-0.225
-0.195
-0.21
-0.215
-0.225
-0.235
-0.225
-0.2
-0.21
-0.22
-0.215
-0.195
-0.195
-0.185
-0.18
-0.18
-0.19
-0.19
-0.18
-0.15
-0.16
-0.17
-0.19
-0.19
-0.17
-0.14
-0.135
-0.14
-0.16
-0.155
-0.15
-0.13
-0.14
-0.15
-0.165
-0.155
-0.145
-0.135
-0.12
-0.125
-0.12
-0.095
-0.035
0.035
0.125
0.22
0.325
0.48
0.675
0.885
1.05
1.195
1.285
1.285
1.2
1.0
0.705
0.39
0.075
-0.155
-0.245
-0.24
-0.195
-0.185
-0.195
-0.21
-0.215
-0.21
-0.195
-0.215
-0.24
-0.245
-0.235
-0.22
-0.225
-0.245
-0.25
-0.245
-0.24
-0.24
-0.25
-0.265
-0.265
-0.27
-0.25
-0.255
-0.25
-0.255
-0.27
-0.27
-0.26
-0.25
-0.25
-0.26
-0.26
-0.26
-0.245
-0.235
-0.24
-0.25
-0.255
-0.25
-0.245
-0.225
-0.225
-0.235
-0.245
-0.245
-0.235
-0.21
-0.205
-0.2
-0.215
-0.2
-0.185
-0.17
-0.165
-0.185
-0.19
-0.185
-0.165
-0.145
-0.14
-0.14
-0.14
-0.125
-0.105
-0.09
-0.1
-0.105
-0.11
-0.1
-0.075
-0.065
-0.05
-0.055
-0.07
-0.06
-0.045
-0.015
-0.02
-0.015
-0.025
-0.01
-0.005
0.0
0.005
0.005
-0.005
-0.005
0.01
0.03
0.02
0.015
0.0
-0.005
-0.005
0.0
-0.025
-0.03
-0.06
-0.075
-0.065
-0.055
-0.06
-0.085
-0.1
-0.1
-0.095
-0.1
-0.1
-0.115
-0.13
-0.145
-0.14
-0.135
-0.13
-0.14
-0.15
-0.16
-0.15
-0.125
-0.13
-0.145
-0.165
-0.165
-0.145
-0.135
-0.13
-0.15
-0.16
-0.155
-0.155
-0.145
-0.145
-0.165
-0.165
-0.155
-0.145
-0.14
-0.14
-0.15
-0.17
-0.16
-0.15
-0.135
-0.15
-0.165
-0.175
-0.16
-0.15
-0.125
-0.12
-0.135
-0.145
-0.14
-0.12
-0.115
-0.115
-0.135
-0.15
-0.155
-0.13
-0.11
-0.105
-0.12
-0.15
-0.15
-0.14
-0.125
-0.13
-0.135
-0.16
-0.155
-0.15
-0.135
-0.135
-0.145
-0.18
-0.175
-0.17
-0.16
-0.175
-0.175
-0.19
-0.18
-0.175
-0.145
-0.145
-0.175
-0.195
-0.185
-0.17
-0.165
-0.165
-0.18
-0.175
-0.19
-0.17
-0.15
-0.16
-0.17
-0.175
-0.18
-0.17
-0.155
-0.17
-0.185
-0.2
-0.2
-0.19
-0.17
-0.18
-0.19
-0.2
-0.19
-0.17
-0.155
-0.165
-0.195
-0.195
-0.205
-0.195
-0.175
-0.185
-0.18
-0.18
-0.17
-0.155
-0.14
-0.145
-0.16
-0.16
-0.16
-0.16
-0.13
-0.125
-0.125
-0.13
-0.115
-0.085
-0.05
-0.005
0.075
0.155
0.27
0.41
0.575
0.75
0.89
1.025
1.13
1.19
1.125
0.955
0.69
0.4
0.12
-0.12
-0.275
-0.31
-0.3
-0.26
-0.23
-0.2
-0.185
-0.21
-0.24
-0.245
-0.25
-0.235
-0.22
-0.225
-0.23
-0.25
-0.265
-0.255
-0.245
-0.245
-0.27
-0.29
-0.27
-0.245
-0.23
-0.24
-0.27
-0.285
-0.295
-0.28
-0.26
-0.255
-0.26
-0.265
-0.26
-0.245
-0.24
-0.25
-0.26
-0.265
-0.265
-0.265
-0.24
-0.245
-0.26
-0.28
-0.28
-0.26
-0.25
-0.255
-0.24
-0.25
-0.25
-0.235
-0.205
-0.2
-0.215
-0.215
-0.205
-0.205
-0.19
-0.19
-0.17
-0.18
-0.17
-0.15
-0.13
-0.125
-0.125
-0.135
-0.125
-0.105
-0.1
-0.08
-0.095
-0.1
-0.11
-0.09
-0.075
-0.085
-0.095
-0.095
-0.08
-0.065
-0.055
-0.055
-0.075
-0.065
-0.065
-0.045
-0.035
-0.035
-0.055
-0.07
-0.075
-0.065
-0.06
-0.075
-0.085
-0.105
-0.105
-0.09
-0.095
-0.105
-0.125
-0.14
-0.16
-0.15
-0.135
-0.14
-0.16
-0.175
-0.19
-0.2
-0.185
-0.215
-0.23
-0.225
-0.25
-0.225
-0.225
-0.24
-0.235
-0.255
-0.26
-0.235
-0.22
-0.23
-0.23
-0.23
-0.23
-0.215
-0.205
-0.22
-0.225
-0.23
-0.23
-0.215
-0.19
-0.2
-0.205
-0.225
-0.215
-0.205
-0.185
-0.19
-0.18
-0.19
-0.185
-0.18
-0.17
-0.15
-0.15
-0.165
-0.155
-0.16
-0.135
-0.15
-0.17
-0.175
-0.17
-0.16
-0.155
-0.155
-0.175
-0.19
-0.195
-0.175
-0.17
-0.175
-0.185
-0.205
-0.195
-0.185
-0.17
-0.17
-0.19
-0.205
-0.21
-0.195
-0.18
-0.185
-0.2
-0.195
-0.185
-0.17
-0.165
-0.175
-0.19
-0.21
-0.2
-0.175
-0.165
-0.17
-0.185
-0.2
-0.205
-0.195
-0.19
-0.195
-0.21
-0.215
-0.205
-0.195
-0.19
-0.19
-0.205
-0.22
-0.225
-0.19
-0.185
-0.205
-0.215
-0.21
-0.21
-0.205
-0.195
-0.21
-0.225
-0.23
-0.215
-0.2
-0.195
-0.205
-0.215
-0.22
-0.215
-0.195
-0.185
-0.18
-0.2
-0.21
-0.215
-0.21
-0.195
-0.2
-0.2
-0.21
-0.205
-0.185
-0.175
-0.185
-0.205
-0.21
-0.205
-0.18
-0.165
-0.18
-0.18
-0.195
-0.195
-0.19
-0.185
-0.18
-0.19
-0.19
-0.195
-0.19
-0.18
-0.185
-0.2
-0.2
-0.19
-0.19
-0.17
-0.17
-0.19
-0.195
-0.2
-0.175
-0.18
-0.2
-0.2
-0.205
-0.21
-0.205
-0.185
-0.18
-0.195
-0.205
-0.215
-0.205
-0.195
-0.185
-0.185
-0.2
-0.21
-0.185
-0.165
-0.175
-0.185
-0.215
-0.215
-0.2
-0.17
-0.17
-0.19
-0.175
-0.18
-0.16
-0.16
-0.155
-0.165
-0.195
-0.185
-0.165
-0.16
-0.16
-0.185
-0.19
-0.175
-0.165
-0.155
-0.16
-0.175
-0.19
-0.185
-0.19
-0.175
-0.17
-0.165
-0.195
-0.18
-0.18
-0.17
-0.18
-0.175
-0.2
-0.19
-0.175
-0.155
-0.165
-0.175
-0.2
-0.195
-0.165
-0.15
-0.15
-0.165
-0.18
-0.17
-0.155
-0.16
-0.155
-0.17
-0.19
-0.175
-0.175
-0.15
-0.155
-0.165
-0.19
-0.17
-0.15
-0.145
-0.145
-0.17
-0.165
-0.17
-0.15
-0.135
-0.13
-0.135
-0.145
-0.14
-0.14
-0.15
-0.145
-0.15
-0.16
-0.155
-0.14
-0.115
-0.11
-0.13
-0.135
-0.14
-0.14
-0.12
-0.115
-0.13
-0.135
-0.13
-0.11
-0.09
-0.095
-0.105
-0.115
-0.11
-0.105
-0.115
-0.11
-0.12
-0.125
-0.12
-0.09
-0.09
-0.095
-0.115
-0.135
-0.13
-0.115
-0.095
-0.1
-0.11
-0.115
-0.11
-0.105
-0.085
-0.085
-0.115
-0.13
-0.125
-0.11
-0.09
-0.075
-0.095
-0.1
-0.105
-0.085
-0.065
-0.06
-0.055
-0.045
0.0
0.06
0.145
0.245
0.35
0.48
0.65
0.825
1.0
1.155
1.31
1.43
1.51
1.495
1.38
1.16
0.9
0.635
0.365
0.125
-0.045
-0.145
-0.165
-0.155
-0.105
-0.075
-0.075
-0.085
-0.11
-0.125
-0.14
-0.125
-0.11
-0.13
-0.145
-0.15
-0.16
-0.165
-0.165
-0.16
-0.17
-0.195
-0.19
-0.17
-0.16
-0.165
-0.175
-0.19
-0.19
-0.17
-0.155
-0.165
-0.165
-0.185
-0.18
-0.16
-0.165
-0.15
-0.175
-0.175
-0.175
-0.17
-0.155
-0.175
-0.175
-0.19
-0.18
-0.17
-0.16
-0.165
-0.185
-0.195
-0.19
-0.18
-0.165
-0.165
-0.16
-0.17
-0.16
-0.14
-0.125
-0.12
-0.14
-0.14
-0.14
-0.125
-0.115
-0.105
-0.105
-0.11
-0.1
-0.09
-0.07
-0.065
-0.075
-0.075
-0.08
-0.06
-0.03
-0.025
-0.02
-0.035
-0.015
0.01
0.05
0.05
0.035
0.03
0.035
0.06
0.09
0.095
0.085
0.08
0.08
0.09
0.11
0.115
0.105
0.095
0.095
0.12
0.135
0.135
0.125
0.12
0.12
0.125
0.13
0.13
0.11
0.1
0.095
0.11
0.11
0.105
0.08
0.065
0.05
0.055
0.055
0.03
0.015
-0.015
-0.03
-0.02
-0.005
-0.015
-0.04
-0.055
-0.08
-0.055
-0.05
-0.06
-0.08
-0.1
-0.11
-0.09
-0.085
-0.09
-0.105
-0.115
-0.11
-0.1
-0.085
-0.105
-0.115
-0.135
-0.145
-0.12
-0.13
-0.12
-0.13
-0.135
-0.13
-0.1
-0.085
-0.08
-0.095
-0.11
-0.1
-0.08
-0.075
-0.07
-0.1
-0.105
-0.095
-0.075
-0.075
-0.07
-0.085
-0.095
-0.1
-0.085
-0.065
-0.065
-0.075
-0.09
-0.085
-0.06
-0.045
-0.04
-0.055
-0.06
-0.065
-0.065
-0.065
-0.055
-0.06
-0.08
-0.08
-0.045
-0.045
-0.05
-0.06
-0.075
-0.07
-0.06
-0.055
-0.06
-0.09
-0.08
-0.08
-0.065
-0.055
-0.075
-0.09
-0.1
-0.095
-0.085
-0.065
-0.075
-0.08
-0.095
-0.11
-0.085
-0.08
-0.07
-0.095
-0.095
-0.085
-0.07
-0.05
-0.055
-0.07
-0.07
-0.07
-0.055
-0.055
-0.055
-0.07
-0.08
-0.07
-0.055
-0.04
-0.04
-0.055
-0.055
-0.025
0.015
0.09
0.16
0.24
0.31
0.475
0.66
0.88
1.07
1.25
1.39
1.515
1.555
1.475
1.28
0.995
0.705
0.395
0.095
-0.16
-0.28
-0.3
-0.255
-0.185
-0.145
-0.115
-0.11
-0.115
-0.135
-0.135
-0.12
-0.13
-0.13
-0.145
-0.14
-0.15
-0.155
-0.14
-0.16
-0.18
-0.19
-0.2
-0.185
-0.19
-0.18
-0.185
-0.2
-0.195
-0.195
-0.185
-0.19
-0.185
-0.19
-0.17
-0.165
-0.16
-0.15
-0.16
-0.18
-0.18
-0.165
-0.15
-0.15
-0.16
-0.17
-0.18
-0.16
-0.13
-0.135
-0.145
-0.165
-0.155
-0.135
-0.135
-0.145
-0.145
-0.16
-0.145
-0.115
-0.09
-0.09
-0.1
