Lead II
-0.72
-0.73
-0.745
-0.765
-0.765
-0.765
-0.74
-0.725
-0.695
-0.665
-0.65
-0.61
-0.605
-0.65
-0.73
-0.785
-0.815
-0.82
-0.795
-0.78
-0.725
-0.705
-0.67
-0.63
-0.615
-0.625
-0.68
-0.73
-0.75
-0.745
-0.71
-0.69
-0.695
-0.75
-0.78
-0.77
-0.73
-0.68
-0.615
-0.6
-0.585
-0.575
-0.56
-0.565
-0.555
-0.53
-0.505
-0.525
-0.58
-0.63
-0.655
-0.65
-0.65
-0.66
-0.645
-0.6
-0.555
-0.52
-0.525
-0.55
-0.61
-0.675
-0.715
-0.77
-0.795
-0.81
-0.78
-0.76
-0.745
-0.755
-0.775
-0.805
-0.805
-0.83
-0.86
-0.85
-0.855
-0.855
-0.825
-0.755
-0.69
-0.625
-0.6
-0.66
-0.78
-0.915
-1.015
-1.035
-0.985
-0.905
-0.82
-0.78
-0.805
-0.85
-0.9
-0.955
-0.965
-0.935
-0.855
-0.7
-0.51
-0.32
-0.16
-0.095
-0.05
-0.01
0.07
0.23
0.41
0.605
0.725
0.725
0.545
0.14
-0.375
-0.9
-1.33
-1.67
-1.87
-1.98
-2.05
-2.07
-2.08
-2.105
-2.1
-2.085
-2.05
-2.02
-2.005
-2.005
-2.0
-1.975
-1.92
-1.855
-1.76
-1.625
-1.45
-1.27
-1.115
-0.97
-0.91
-0.89
-0.91
-0.9
-0.865
-0.82
-0.78
-0.74
-0.745
-0.785
-0.815
-0.825
-0.82
-0.81
-0.78
-0.77
-0.785
-0.81
-0.84
-0.84
-0.81
-0.785
-0.765
-0.74
-0.765
-0.825
-0.89
-0.92
-0.905
-0.875
-0.835
-0.84
-0.875
-0.92
-0.92
-0.94
-0.955
-0.99
-1.005
-1.015
-1.02
-1.005
-0.975
-0.955
-0.93
-0.93
-0.905
-0.905
-0.92
-0.95
-0.97
-1.015
-1.05
-1.06
-1.015
-0.95
-0.885
-0.825
-0.79
-0.8
-0.81
-0.84
-0.895
-0.93
-0.94
-0.895
-0.845
-0.77
-0.74
-0.7
-0.68
-0.675
-0.655
-0.655
-0.63
-0.645
-0.655
-0.66
-0.68
-0.705
-0.715
-0.735
-0.75
-0.75
-0.695
-0.64
-0.62
-0.615
-0.67
-0.74
-0.765
-0.77
-0.735
-0.685
-0.63
-0.61
-0.61
-0.62
-0.59
-0.58
-0.595
-0.605
-0.685
-0.74
-0.765
-0.76
-0.74
-0.725
-0.72
-0.725
-0.75
-0.775
-0.765
-0.72
-0.69
-0.68
-0.655
-0.645
-0.65
-0.705
-0.765
-0.795
-0.785
-0.755
-0.72
-0.665
-0.625
-0.625
-0.635
-0.64
-0.65
-0.635
-0.62
-0.6
-0.575
-0.58
-0.565
-0.52
-0.485
-0.445
-0.46
-0.49
-0.545
-0.6
-0.695
-0.755
-0.755
-0.76
-0.71
-0.67
-0.64
-0.615
-0.625
-0.61
-0.58
-0.565
-0.565
-0.605
-0.635
-0.665
-0.71
-0.735
-0.735
-0.715
-0.705
-0.69
-0.715
-0.755
-0.755
-0.78
-0.775
-0.805
-0.835
-0.86
-0.875
-0.875
-0.865
-0.86
-0.845
-0.83
-0.815
-0.81
-0.82
-0.79
-0.775
-0.785
-0.805
-0.835
-0.85
-0.85
-0.85
-0.825
-0.81
-0.815
-0.845
-0.89
-0.91
-0.87
-0.8
-0.68
-0.51
-0.335
-0.19
-0.07
-0.03
-0.025
-0.015
0.045
0.195
0.385
0.585
0.75
0.775
0.615
0.275
-0.21
-0.775
-1.305
-1.695
-1.915
-1.99
-1.995
-1.96
-1.93
-1.945
-1.975
-2.035
-2.075
-2.115
-2.105
-2.04
-1.98
-1.93
-1.88
-1.86
-1.845
-1.795
-1.7
-1.53
-1.37
-1.225
-1.15
-1.03
-0.95
-0.875
-0.83
-0.815
-0.845
-0.845
-0.845
-0.825
-0.8
-0.8
-0.805
-0.81
-0.805
-0.805
-0.81
-0.82
-0.84
-0.85
-0.86
-0.88
-0.885
-0.85
-0.83
-0.83
-0.845
-0.855
-0.86
-0.855
-0.865
-0.915
-0.945
-0.955
-0.965
-0.975
-1.01
-1.02
-1.03
-1.02
-0.995
-0.99
-0.985
-1.0
-0.995
-1.045
-1.065
-1.07
-1.06
-1.085
-1.105
-1.125
-1.115
-1.11
-1.07
-1.04
-1.015
-0.975
-0.98
-0.975
-0.975
-0.99
-0.955
-0.915
-0.875
-0.865
-0.885
-0.92
-0.94
-0.915
-0.87
-0.815
-0.79
-0.775
-0.78
-0.8
-0.815
-0.82
-0.8
-0.775
-0.77
-0.795
-0.795
-0.76
-0.735
-0.705
-0.685
-0.695
-0.77
-0.795
-0.775
-0.705
-0.61
-0.52
-0.51
-0.55
-0.65
-0.805
-0.945
-1.005
-0.97
-0.895
-0.825
-0.775
-0.765
-0.73
-0.715
-0.74
-0.76
-0.81
-0.815
-0.81
-0.795
-0.785
-0.8
-0.83
-0.82
-0.82
-0.79
-0.79
-0.78
-0.77
-0.77
-0.79
-0.8
-0.805
-0.8
-0.79
-0.765
-0.76
-0.735
-0.725
-0.725
-0.74
-0.765
-0.795
-0.81
-0.78
-0.745
-0.705
-0.665
-0.655
-0.635
-0.61
-0.6
-0.605
-0.605
-0.595
-0.595
-0.59
-0.585
-0.605
-0.62
-0.605
-0.595
-0.595
-0.64
-0.71
-0.74
-0.73
-0.665
-0.63
-0.635
-0.69
-0.725
-0.78
-0.795
-0.795
-0.785
-0.785
-0.805
-0.825
-0.815
-0.82
-0.795
-0.81
-0.83
-0.865
-0.88
-0.865
-0.845
-0.835
-0.85
-0.875
-0.895
-0.89
-0.88
-0.87
-0.86
-0.855
-0.845
-0.825
-0.825
-0.825
-0.84
-0.84
-0.85
-0.9
-0.925
-0.96
-0.925
-0.85
-0.715
-0.545
-0.385
-0.23
-0.12
-0.06
-0.04
0.02
0.145
0.315
0.505
0.655
0.7
0.62
0.345
-0.095
-0.64
-1.185
-1.595
-1.88
-2.05
-2.14
-2.17
-2.135
-2.1
-2.045
-2.0
-1.92
-1.885
-1.895
-1.905
-1.92
-1.945
-1.95
-1.87
-1.755
-1.62
-1.485
-1.37
-1.27
-1.185
-1.08
-0.975
-0.905
-0.84
-0.83
-0.84
-0.85
-0.865
-0.83
-0.845
-0.865
-0.905
-0.9
-0.88
-0.85
-0.835
-0.84
-0.82
-0.785
-0.75
-0.75
-0.775
-0.79
-0.825
-0.855
-0.9
-0.92
-0.915
-0.905
-0.9
-0.9
-0.935
-0.99
-1.03
-1.04
-1.035
-0.985
-0.935
-0.89
-0.87
-0.905
-1.005
-1.08
-1.11
-1.085
-1.05
-1.025
-1.01
-1.0
-1.02
-1.02
-1.035
-1.055
-1.06
-1.065
-1.07
-1.05
-1.02
-1.0
-0.975
-0.96
-0.925
-0.91
-0.86
-0.825
-0.81
-0.805
-0.825
-0.805
-0.75
-0.7
-0.65
-0.66
-0.695
-0.755
-0.825
-0.835
-0.805
-0.795
-0.78
-0.785
-0.805
-0.79
-0.745
-0.715
-0.68
-0.695
-0.71
-0.76
-0.78
-0.785
-0.745
-0.655
-0.61
-0.645
-0.705
-0.775
-0.8
-0.8
-0.78
-0.765
-0.725
-0.69
-0.68
-0.675
-0.685
-0.725
-0.73
-0.74
-0.725
-0.74
-0.765
-0.755
-0.725
-0.7
-0.66
-0.645
-0.66
-0.685
-0.71
-0.72
-0.72
-0.74
-0.725
-0.735
-0.755
-0.755
-0.745
-0.74
-0.74
-0.715
-0.7
-0.68
-0.67
-0.645
-0.62
-0.565
-0.525
-0.485
-0.455
-0.465
-0.455
-0.495
-0.495
-0.48
-0.485
-0.515
-0.565
-0.625
-0.695
-0.72
-0.74
-0.74
-0.745
-0.705
-0.64
-0.55
-0.495
-0.505
-0.555
-0.61
-0.665
-0.715
-0.75
-0.745
-0.71
-0.69
-0.67
-0.65
-0.67
-0.71
-0.745
-0.79
-0.815
-0.885
-0.9
-0.88
-0.85
-0.84
-0.79
-0.795
-0.83
-0.84
-0.835
-0.835
-0.805
-0.77
-0.75
-0.755
-0.74
-0.75
-0.745
-0.765
-0.8
-0.835
-0.875
-0.9
-0.895
-0.795
-0.655
-0.47
-0.295
-0.17
-0.08
-0.04
0.015
0.095
0.27
0.45
0.625
0.735
0.66
0.375
-0.1
-0.68
-1.195
-1.58
-1.815
-1.915
-1.95
-1.975
-2.01
-2.04
-2.07
-2.075
-2.06
-2.035
-2.01
-1.985
-1.945
-1.92
-1.875
-1.83
-1.745
-1.615
-1.48
-1.365
-1.3
-1.22
-1.125
-1.035
-0.985
-0.93
-0.88
-0.855
-0.835
-0.8
-0.79
-0.775
-0.74
-0.705
-0.695
-0.69
-0.7
-0.73
-0.74
-0.74
-0.745
-0.77
-0.775
-0.795
-0.785
-0.78
-0.8
-0.81
-0.81
-0.815
-0.815
-0.83
-0.855
-0.875
-0.885
-0.905
-0.89
-0.89
-0.875
-0.865
-0.855
-0.835
-0.875
-0.88
-0.865
-0.85
-0.815
-0.785
-0.805
-0.85
-0.94
-1.03
-1.095
-1.13
-1.105
-1.065
-1.0
-0.95
-0.905
-0.865
-0.855
-0.865
-0.865
-0.88
-0.88
-0.865
-0.83
-0.79
-0.76
-0.735
-0.755
-0.76
-0.725
-0.685
-0.665
-0.665
-0.695
-0.72
-0.735
-0.755
-0.73
-0.735
-0.74
-0.715
-0.71
-0.7
-0.68
-0.625
-0.59
-0.575
-0.565
-0.555
-0.605
-0.665
-0.72
-0.77
-0.775
-0.755
-0.72
-0.68
-0.65
-0.625
-0.61
-0.605
-0.59
-0.6
-0.66
-0.735
-0.785
-0.78
-0.75
-0.72
-0.685
-0.66
-0.67
-0.705
-0.745
-0.745
-0.705
-0.69
-0.65
-0.64
-0.655
-0.7
-0.775
-0.835
-0.86
-0.85
-0.805
-0.74
-0.695
-0.63
-0.575
-0.535
-0.53
-0.545
-0.57
-0.595
-0.605
-0.64
-0.645
-0.64
-0.59
-0.52
-0.45
-0.405
-0.39
-0.41
-0.505
-0.595
-0.65
-0.66
-0.625
-0.58
-0.55
-0.545
-0.57
-0.6
-0.64
-0.66
-0.65
-0.62
-0.605
-0.61
-0.605
-0.61
-0.64
-0.645
-0.635
-0.66
-0.65
-0.65
-0.665
-0.67
-0.675
-0.71
-0.745
-0.765
-0.795
-0.775
-0.76
-0.79
-0.8
-0.835
-0.835
-0.865
-0.86
-0.845
-0.825
-0.78
-0.75
-0.73
-0.715
-0.715
-0.72
-0.72
-0.74
-0.755
-0.795
-0.825
-0.83
-0.79
-0.68
-0.55
-0.395
-0.26
-0.155
-0.11
-0.09
-0.07
0.025
0.215
0.47
0.72
0.86
0.835
0.56
0.065
-0.51
-1.04
-1.465
-1.71
-1.83
-1.86
-1.89
-1.89
-1.91
-1.935
-1.98
-2.035
-2.035
-2.04
-2.01
-1.97
-1.95
-1.925
-1.89
-1.865
-1.835
-1.775
-1.635
-1.47
-1.27
-1.135
-1.02
-0.95
-0.895
-0.875
-0.865
-0.825
-0.785
-0.74
-0.695
-0.645
-0.65
-0.67
-0.69
-0.71
-0.745
-0.79
-0.8
-0.795
-0.755
-0.735
-0.735
-0.765
-0.77
-0.775
-0.805
-0.82
-0.845
-0.84
-0.845
-0.845
-0.865
-0.895
-0.895
-0.915
-0.88
-0.85
-0.84
-0.83
-0.84
-0.88
-0.92
-0.97
-0.965
-0.975
-0.985
-1.015
-1.025
-1.02
-1.015
-1.0
-0.99
-0.97
-0.975
-0.99
-1.01
-0.995
-0.975
-0.95
-0.93
-0.905
-0.89
-0.86
-0.84
-0.82
-0.8
-0.79
-0.785
-0.785
-0.78
-0.785
-0.765
-0.72
-0.68
-0.62
-0.59
-0.6
-0.65
-0.735
-0.82
-0.845
-0.815
-0.755
-0.71
-0.68
-0.685
-0.695
-0.695
-0.705
-0.705
-0.655
-0.585
-0.555
-0.565
-0.635
-0.695
-0.73
-0.75
-0.735
-0.725
-0.735
-0.71
-0.725
-0.725
-0.75
-0.76
-0.765
-0.745
-0.74
-0.75
-0.76
-0.76
-0.76
-0.755
-0.71
-0.7
-0.69
-0.675
-0.675
-0.67
-0.7
-0.735
-0.75
-0.775
-0.77
-0.745
-0.74
-0.71
-0.695
-0.685
-0.71
-0.73
-0.775
-0.775
-0.775
-0.76
-0.715
-0.7
-0.66
-0.615
-0.585
-0.58
-0.57
-0.58
-0.575
-0.555
-0.515
-0.505
-0.505
-0.525
-0.52
-0.505
-0.475
-0.48
-0.555
-0.63
-0.735
-0.785
-0.785
-0.74
-0.675
-0.61
-0.55
-0.54
-0.555
-0.585
-0.645
-0.695
-0.71
-0.71
-0.69
-0.715
-0.74
-0.77
-0.79
-0.815
-0.825
-0.805
-0.77
-0.76
-0.745
-0.79
-0.815
-0.83
-0.84
-0.845
-0.845
-0.825
-0.765
-0.7
-0.67
-0.69
-0.725
-0.78
-0.825
-0.835
-0.855
-0.84
-0.865
-0.845
-0.82
-0.775
-0.765
-0.77
-0.775
-0.805
-0.745
-0.645
-0.495
-0.35
-0.21
-0.11
-0.045
0.01
0.115
0.28
0.485
0.7
0.815
0.79
0.515
0.095
-0.415
-0.905
-1.27
-1.51
-1.67
-1.775
-1.845
-1.915
-2.0
-2.06
-2.06
-2.02
-1.97
-1.885
-1.82
-1.755
-1.75
-1.76
-1.765
-1.78
-1.73
-1.645
-1.495
-1.325
-1.14
-0.995
-0.895
-0.855
-0.86
-0.885
-0.89
-0.91
-0.875
-0.865
-0.82
-0.79
-0.795
-0.79
-0.78
-0.79
-0.755
-0.755
-0.77
-0.79
-0.815
-0.81
-0.82
-0.8
-0.78
-0.765
-0.77
-0.795
-0.81
-0.845
-0.84
-0.855
-0.86
-0.885
-0.895
-0.94
-0.915
-0.92
-0.88
-0.855
-0.81
-0.79
-0.775
-0.8
-0.85
-0.92
-0.98
-1.015
-0.995
-0.95
-0.875
-0.825
-0.83
-0.895
-0.96
-1.02
-1.025
-0.995
-0.955
-0.9
-0.86
-0.845
-0.855
-0.88
-0.9
-0.92
-0.87
-0.83
-0.765
-0.735
-0.735
-0.765
-0.81
-0.8
-0.795
-0.755
-0.725
-0.685
-0.68
-0.68
-0.67
-0.685
-0.715
-0.74
-0.74
-0.73
-0.72
-0.695
-0.675
-0.635
-0.59
-0.56
-0.55
-0.575
-0.62
-0.66
-0.675
-0.715
-0.75
-0.76
-0.745
-0.715
-0.7
-0.67
-0.665
-0.685
-0.695
-0.68
-0.685
-0.695
-0.695
-0.7
-0.69
-0.69
-0.7
-0.69
-0.695
-0.69
-0.68
-0.67
-0.655
-0.67
-0.67
-0.685
-0.67
-0.68
-0.68
-0.68
-0.675
-0.655
-0.635
-0.605
-0.565
-0.555
-0.575
-0.63
-0.705
-0.735
-0.755
-0.705
-0.64
-0.585
-0.57
-0.58
-0.585
-0.555
-0.515
-0.485
-0.475
-0.475
-0.49
-0.5
-0.49
-0.47
-0.445
-0.44
-0.475
-0.54
-0.6
-0.66
-0.695
-0.695
-0.65
-0.595
-0.545
-0.515
-0.5
-0.505
-0.52
-0.555
-0.61
-0.66
-0.725
-0.765
-0.795
-0.775
-0.755
-0.765
-0.775
-0.745
-0.715
-0.67
-0.64
-0.635
-0.635
-0.65
-0.645
-0.68
-0.695
-0.73
-0.78
-0.81
-0.795
-0.795
-0.76
-0.75
-0.72
-0.715
-0.72
-0.745
-0.755
-0.78
-0.805
-0.83
-0.835
-0.83
-0.765
-0.63
-0.43
-0.265
-0.125
-0.065
-0.025
0.03
0.135
0.29
0.495
0.67
0.745
0.65
0.34
-0.145
-0.685
-1.16
-1.505
-1.705
-1.76
-1.8
-1.83
-1.86
-1.91
-1.935
-1.955
-1.945
-1.925
-1.89
-1.845
-1.82
-1.8
-1.79
-1.76
-1.725
-1.655
-1.515
-1.34
-1.14
-1.015
-0.92
-0.86
-0.84
-0.83
-0.81
-0.765
-0.75
-0.715
-0.66
-0.635
-0.64
-0.625
-0.645
-0.67
-0.695
-0.705
-0.71
-0.72
-0.735
-0.75
-0.74
-0.74
-0.725
-0.68
-0.66
-0.645
-0.615
-0.595
-0.6
-0.655
-0.735
-0.84
-0.925
-0.96
-0.92
-0.89
-0.855
-0.83
-0.805
-0.79
-0.79
-0.81
-0.845
-0.9
-0.945
-0.94
-0.9
-0.85
-0.795
-0.795
-0.83
-0.89
-0.91
-0.945
-0.925
-0.86
-0.795
-0.755
-0.74
-0.74
-0.785
-0.79
-0.8
-0.77
-0.75
-0.725
-0.725
-0.72
-0.665
-0.63
-0.59
-0.57
-0.575
-0.585
-0.615
-0.62
-0.61
-0.57
-0.525
-0.51
-0.525
-0.55
-0.57
-0.595
-0.625
-0.625
-0.635
-0.61
-0.555
-0.53
-0.52
-0.545
-0.595
-0.655
-0.715
-0.695
-0.645
-0.6
-0.55
-0.515
-0.495
-0.51
-0.545
-0.59
-0.63
-0.63
-0.655
-0.7
-0.7
-0.675
-0.595
-0.52
-0.485
-0.465
-0.515
-0.615
-0.735
-0.8
-0.785
-0.71
-0.645
-0.615
-0.635
-0.67
-0.685
-0.65
-0.57
-0.525
-0.525
-0.565
-0.58
-0.605
-0.595
-0.575
-0.55
-0.54
-0.5
-0.47
-0.4
-0.33
-0.28
-0.285
-0.335
-0.405
-0.49
-0.555
-0.56
-0.55
-0.545
-0.545
-0.52
-0.495
-0.5
-0.5
-0.5
-0.5
-0.505
-0.47
-0.425
-0.365
-0.345
-0.36
-0.4
-0.465
-0.55
-0.645
-0.69
-0.71
-0.725
-0.725
-0.735
-0.71
-0.72
-0.69
-0.66
-0.625
-0.58
-0.535
-0.56
-0.59
-0.645
-0.665
-0.645
-0.615
-0.61
-0.595
-0.645
-0.695
-0.745
-0.795
-0.775
-0.705
-0.665
-0.655
-0.695
-0.685
-0.635
-0.515
-0.38
-0.29
-0.255
-0.29
-0.335
-0.36
-0.325
-0.225
-0.09
0.025
0.175
0.315
0.5
0.645
0.755
0.745
0.535
0.165
-0.275
-0.695
-1.04
-1.32
-1.52
-1.67
-1.8
-1.925
-1.99
-1.995
-1.94
-1.845
-1.785
-1.755
-1.73
-1.735
-1.75
-1.75
-1.71
-1.69
-1.66
-1.59
-1.46
-1.275
-1.085
-0.93
-0.825
-0.755
-0.7
-0.645
-0.655
-0.69
-0.75
-0.765
-0.71
-0.615
-0.52
-0.445
-0.4
-0.44
-0.52
-0.595
-0.695
-0.72
-0.675
-0.565
-0.46
-0.395
-0.425
-0.53
-0.645
-0.725
-0.76
-0.73
-0.645
-0.56
-0.535
-0.505
-0.465
-0.435
-0.435
-0.485
-0.585
-0.72
-0.785
-0.785
-0.75
-0.71
-0.685
-0.665
-0.65
-0.625
-0.6
-0.595
-0.62
-0.675
-0.68
-0.675
-0.64
-0.605
-0.575
-0.57
-0.59
-0.61
-0.605
-0.585
-0.52
-0.465
-0.41
-0.41
-0.43
-0.445
-0.455
-0.44
-0.415
-0.345
-0.27
-0.205
-0.185
-0.22
-0.29
-0.335
-0.39
-0.47
-0.545
-0.57
-0.545
-0.485
-0.38
-0.325
-0.28
-0.28
-0.275
-0.27
-0.28
-0.3
-0.325
-0.365
-0.415
-0.485
-0.5
-0.465
-0.43
-0.45
-0.495
-0.545
-0.545
-0.52
-0.455
-0.415
-0.41
-0.46
-0.55
-0.67
-0.74
-0.79
-0.725
-0.62
-0.495
-0.43
-0.41
-0.44
-0.505
-0.59
-0.695
-0.79
-0.835
-0.8
-0.715
-0.625
-0.58
-0.545
-0.53
-0.535
-0.605
-0.67
-0.695
-0.67
-0.645
-0.605
-0.565
-0.525
-0.535
-0.555
-0.565
-0.55
-0.51
-0.51
-0.56
-0.595
-0.585
-0.525
-0.47
-0.4
-0.375
-0.395
-0.49
-0.605
-0.675
-0.685
-0.625
-0.545
-0.495
-0.47
-0.47
-0.5
-0.52
-0.56
-0.555
-0.58
-0.555
-0.525
-0.53
-0.545
-0.575
-0.615
-0.67
-0.74
-0.75
-0.76
-0.775
-0.82
-0.845
-0.835
-0.77
-0.665
-0.595
-0.6
-0.67
-0.72
-0.73
-0.715
-0.7
-0.75
-0.855
-0.92
-0.935
-0.89
-0.835
-0.795
-0.755
-0.72
-0.69
-0.665
-0.645
-0.615
-0.54
-0.45
-0.365
-0.285
-0.235
-0.195
-0.175
-0.135
-0.105
-0.05
0.075
0.295
0.56
0.79
0.835
0.655
0.22
-0.4
-1.035
-1.545
-1.795
-1.79
-1.705
-1.655
-1.67
-1.705
-1.74
-1.775
-1.8
-1.81
-1.81
-1.84
-1.905
-2.0
-2.025
-1.97
-1.88
-1.755
-1.6
-1.465
-1.29
-1.12
-0.97
-0.825
-0.735
-0.69
-0.68
-0.715
-0.725
-0.725
-0.68
-0.64
-0.63
-0.6
-0.555
-0.6
-0.655
-0.78
-0.9
-1.0
-1.025
-0.965
-0.85
-0.77
-0.71
-0.7
-0.715
-0.765
-0.83
-0.91
-0.915
-0.835
-0.74
-0.635
-0.545
-0.53
-0.605
-0.775
-1.0
-1.175
-1.245
-1.18
-1.06
-0.94
-0.875
-0.84
-0.835
-0.885
-0.93
-0.97
-0.96
-0.97
-1.03
-1.11
-1.115
-1.06
-0.96
-0.85
-0.785
-0.795
-0.88
-0.985
-1.02
-0.99
-0.925
-0.83
-0.77
-0.755
-0.755
-0.755
-0.76
-0.78
-0.79
-0.785
-0.755
-0.695
-0.63
-0.565
-0.53
-0.58
-0.675
-0.745
-0.775
-0.825
-0.92
-0.98
-0.925
-0.8
-0.68
-0.585
-0.55
-0.58
-0.665
-0.745
-0.795
-0.805
-0.795
-0.775
-0.74
-0.7
-0.66
-0.6
-0.555
-0.575
-0.67
-0.815
-0.89
-0.86
-0.74
-0.595
-0.555
-0.605
-0.74
-0.87
-0.925
-0.91
-0.87
-0.815
-0.78
-0.765
-0.75
-0.745
-0.765
-0.805
-0.835
-0.85
-0.81
-0.73
-0.675
-0.68
-0.755
-0.84
-0.905
-0.88
-0.805
-0.71
-0.65
-0.64
-0.66
-0.685
-0.73
-0.745
-0.745
-0.75
-0.785
-0.83
-0.825
-0.77
-0.675
-0.575
-0.515
-0.545
-0.61
-0.7
-0.755
-0.78
-0.755
-0.715
-0.675
-0.64
-0.615
-0.6
-0.585
-0.555
-0.535
-0.495
-0.51
-0.545
-0.66
-0.84
-0.99
-1.03
-0.995
-0.91
-0.79
-0.72
-0.715
-0.765
-0.84
-0.915
-0.955
-0.955
-0.925
-0.905
-0.905
-0.885
-0.885
-0.87
-0.845
-0.805
-0.805
-0.825
-0.845
-0.87
-0.84
-0.8
-0.75
-0.705
-0.705
-0.775
-0.865
-0.9
-0.95
-0.98
-1.035
-1.035
-0.99
-0.85
-0.675
-0.485
-0.35
-0.235
-0.21
-0.24
-0.235
-0.2
-0.07
0.135
0.38
0.57
0.685
0.615
0.335
-0.14
-0.7
-1.205
-1.59
-1.785
-1.835
-1.81
-1.79
-1.765
-1.765
-1.805
-1.855
-1.885
-1.9
-1.865
-1.835
-1.875
-1.975
-2.075
-2.13
-2.105
-1.99
-1.86
-1.7
-1.505
-1.31
-1.155
-1.065
-1.02
-1.03
-1.05
-1.035
-0.99
-0.885
-0.8
-0.765
-0.78
-0.82
-0.87
-0.915
-0.9
-0.9
-0.91
-0.94
-0.94
-0.935
-0.9
-0.87
-0.81
-0.77
-0.715
-0.765
-0.835
-0.97
-1.065
-1.11
-1.05
-0.935
-0.845
-0.77
-0.755
-0.8
-0.915
-1.03
-1.09
-1.105
-1.125
-1.125
-1.095
-1.055
-1.05
-0.985
-0.955
-0.94
-0.935
-0.985
-1.04
-1.075
-1.09
-1.095
-1.07
-1.065
-1.065
-1.08
-1.07
-1.045
-1.01
-0.97
-0.945
-0.965
-1.015
-1.045
-1.065
-1.085
-1.065
-0.99
-0.94
-0.88
-0.86
-0.84
-0.815
-0.795
-0.78
-0.79
-0.78
-0.815
-0.84
-0.865
-0.825
-0.785
-0.735
-0.725
-0.72
-0.695
-0.665
-0.655
-0.655
-0.7
-0.77
-0.81
-0.82
-0.825
-0.785
-0.79
-0.795
-0.825
-0.855
-0.865
-0.825
-0.81
-0.795
-0.785
-0.765
-0.785
-0.79
-0.78
-0.75
-0.71
-0.66
-0.635
-0.625
-0.69
-0.75
-0.835
-0.865
-0.88
-0.84
-0.785
-0.745
-0.775
-0.835
-0.885
-0.905
-0.88
-0.83
-0.77
-0.71
-0.68
-0.665
-0.665
-0.68
-0.685
-0.7
-0.74
-0.735
-0.7
-0.685
-0.665
-0.655
-0.685
-0.69
-0.655
-0.62
-0.59
-0.55
-0.55
-0.56
-0.565
-0.56
-0.545
-0.55
-0.545
-0.59
-0.63
-0.66
-0.685
-0.695
-0.715
-0.7
-0.7
-0.715
-0.74
-0.76
-0.75
-0.755
-0.78
-0.79
-0.825
-0.82
-0.845
-0.845
-0.865
-0.88
-0.865
-0.86
-0.84
-0.845
-0.845
-0.84
-0.845
-0.815
-0.79
-0.77
-0.745
-0.71
-0.74
-0.795
-0.885
-0.91
-0.89
-0.855
-0.805
-0.82
-0.835
-0.895
-0.945
-0.985
-0.995
-0.94
-0.85
-0.71
-0.535
-0.35
-0.22
-0.14
-0.13
-0.155
-0.17
-0.155
-0.045
0.165
0.38
0.57
0.675
0.56
0.225
-0.27
-0.825
-1.3
-1.6
-1.755
-1.795
-1.815
-1.835
-1.875
-1.915
-1.93
-1.935
-1.935
-1.915
-1.93
-1.93
-1.965
-2.005
-2.015
-1.98
-1.88
-1.745
-1.555
-1.38
-1.235
-1.13
-1.055
-0.995
-0.945
-0.89
-0.855
-0.855
-0.86
-0.845
-0.85
-0.83
-0.805
-0.785
-0.76
-0.77
-0.775
-0.795
-0.81
-0.84
-0.845
-0.835
-0.815
-0.815
-0.825
-0.84
-0.87
-0.905
-0.92
-0.935
-0.895
-0.865
-0.87
-0.835
-0.85
-0.9
-0.99
-1.07
-1.115
-1.075
-1.01
-0.93
-0.89
-0.92
-0.985
-1.055
-1.1
-1.075
-1.025
-0.995
-0.965
-0.94
-0.94
-0.95
-0.94
-0.985
-0.985
-0.965
-0.95
-0.925
-0.92
-0.925
-0.915
-0.885
-0.85
-0.815
-0.8
-0.81
-0.815
-0.79
-0.81
-0.855
-0.89
-0.88
-0.835
-0.765
-0.73
-0.71
-0.72
-0.74
-0.75
-0.755
-0.74
-0.73
-0.715
-0.745
-0.77
-0.775
-0.755
-0.715
-0.65
-0.62
-0.64
-0.705
-0.765
-0.805
-0.79
-0.78
-0.77
-0.75
-0.745
-0.745
-0.735
-0.735
-0.735
-0.72
-0.72
-0.715
-0.705
-0.7
-0.69
-0.69
-0.71
-0.755
-0.81
-0.835
-0.835
-0.835
-0.82
-0.81
-0.775
-0.76
-0.72
-0.67
-0.59
-0.565
-0.6
-0.7
-0.81
-0.89
-0.905
-0.885
-0.82
-0.785
-0.71
-0.675
-0.665
-0.645
-0.67
-0.69
-0.68
-0.69
-0.685
-0.655
-0.62
-0.595
-0.605
-0.625
-0.65
-0.65
-0.645
-0.655
-0.67
-0.66
-0.64
-0.62
-0.62
-0.655
-0.675
-0.7
-0.74
-0.75
-0.7
-0.62
-0.545
-0.535
-0.595
-0.74
-0.905
-0.985
-0.975
-0.94
-0.9
-0.885
-0.865
-0.87
-0.875
-0.88
-0.9
-0.91
-0.905
-0.89
-0.875
-0.845
-0.83
-0.83
-0.82
-0.815
-0.815
-0.865
-0.915
-0.975
-1.0
-0.995
-0.95
-0.91
-0.865
-0.84
-0.84
-0.88
-0.885
-0.865
-0.825
-0.765
-0.69
-0.56
-0.44
-0.32
-0.27
-0.27
-0.25
-0.205
-0.08
0.155
0.375
0.555
0.625
0.535
0.27
-0.145
-0.655
-1.145
-1.515
-1.755
-1.875
-1.92
-1.955
-1.97
-2.005
-2.035
-2.06
-2.06
-2.05
-2.02
-1.995
-1.965
-1.96
-1.93
-1.92
-1.84
-1.705
-1.515
-1.315
-1.14
-1.005
-0.915
-0.87
-0.89
-0.895
-0.91
-0.89
-0.9
-0.87
-0.85
-0.835
-0.83
-0.785
-0.73
-0.66
-0.635
-0.635
-0.705
-0.82
-0.965
-1.085
-1.11
-1.065
-0.935
-0.795
-0.68
-0.625
-0.675
-0.795
-0.93
-1.06
-1.16
-1.19
-1.145
-1.03
-0.925
-0.865
-0.88
-0.925
-0.975
-1.035
-1.075
-1.095
-1.08
-1.075
-1.07
-1.025
-1.0
-0.96
-0.94
-0.925
-0.94
-1.005
-1.055
-1.1
-1.105
-1.1
-1.08
-1.035
-0.965
-0.885
-0.8
-0.785
-0.83
-0.9
-0.975
-1.03
-1.035
-1.0
-0.94
-0.875
-0.83
-0.815
-0.82
-0.795
-0.815
-0.83
-0.85
-0.84
-0.81
-0.78
-0.745
-0.725
-0.735
-0.75
-0.72
-0.67
-0.635
-0.65
-0.745
-0.865
-0.935
-0.965
-0.945
-0.895
-0.84
-0.8
-0.78
-0.75
-0.755
-0.755
-0.765
-0.775
-0.79
-0.8
-0.8
-0.795
-0.815
-0.855
-0.85
-0.8
-0.72
-0.67
-0.645
-0.695
-0.815
-0.925
-0.995
-0.985
-0.935
-0.885
-0.855
-0.835
-0.845
-0.885
-0.935
-0.955
-0.92
-0.89
-0.86
-0.85
-0.865
-0.885
-0.9
-0.87
-0.81
-0.755
-0.69
-0.7
-0.725
-0.745
-0.76
-0.785
-0.82
-0.835
-0.84
-0.79
-0.765
-0.705
-0.69
-0.65
-0.645
-0.64
-0.67
-0.7
-0.765
-0.81
-0.84
-0.8
-0.785
-0.77
-0.77
-0.78
-0.785
-0.805
-0.82
-0.835
-0.835
-0.83
-0.805
-0.785
-0.77
-0.76
-0.765
-0.79
-0.82
-0.88
-0.915
-0.93
-0.95
-0.96
-0.97
-0.965
-0.98
-0.99
-0.995
-0.96
-0.925
-0.895
-0.875
-0.885
-0.935
-0.975
-1.01
-1.025
-1.02
-0.985
-0.935
-0.92
-0.925
-0.93
-0.94
-0.965
-0.985
-0.975
-0.915
-0.815
-0.69
-0.53
-0.38
-0.3
-0.265
-0.22
-0.11
0.08
0.325
0.54
0.62
0.48
0.09
-0.455
-1.035
-1.5
-1.795
-1.925
-1.955
-1.95
-1.95
-1.995
-2.065
-2.13
-2.13
-2.12
-2.085
-2.05
-2.01
-1.985
-1.97
-1.945
-1.9
-1.805
-1.665
-1.525
-1.365
-1.235
-1.13
-1.055
-1.01
-0.985
-0.95
-0.95
-0.95
-0.945
-0.95
-0.94
-0.945
-0.94
-0.955
-0.95
-0.955
-0.92
-0.91
-0.895
-0.875
-0.91
-0.9
-0.895
-0.92
-0.94
-0.95
-0.98
-0.975
-0.95
-0.925
-0.925
-0.935
-0.95
-0.95
-0.97
-1.02
-1.09
-1.115
-1.1
-1.125
-1.105
-1.125
-1.13
-1.13
-1.125
-1.135
-1.095
-1.075
-1.03
-0.995
-0.98
-1.005
-1.05
-1.115
-1.145
-1.14
-1.105
-1.02
-0.94
-0.895
-0.915
-0.94
-0.935
-0.91
-0.91
-0.92
-0.955
-0.97
-0.965
-0.945
-0.905
-0.88
-0.86
-0.86
-0.89
-0.865
-0.835
-0.815
-0.805
-0.78
-0.755
-0.745
-0.76
-0.795
-0.835
-0.87
-0.865
-0.835
-0.84
-0.84
-0.825
-0.815
-0.8
-0.805
-0.805
-0.845
-0.86
-0.885
-0.875
-0.845
-0.83
-0.815
-0.8
-0.765
-0.74
-0.74
-0.76
-0.8
-0.87
-0.925
-0.96
-0.975
-0.94
-0.91
-0.9
-0.865
-0.845
-0.835
-0.835
-0.855
-0.87
-0.87
-0.875
-0.875
-0.87
-0.84
-0.8
-0.8
-0.805
-0.825
-0.85
-0.85
-0.83
-0.805
-0.755
-0.71
-0.675
-0.68
-0.675
-0.675
-0.665
-0.67
-0.685
-0.71
-0.72
-0.745
-0.75
-0.78
-0.825
-0.86
-0.895
-0.875
-0.85
-0.795
-0.745
-0.715
-0.715
-0.715
-0.74
-0.775
-0.805
-0.84
-0.87
-0.89
-0.885
-0.865
-0.835
-0.8
-0.785
-0.805
-0.855
-0.905
-0.94
-0.985
-1.0
-1.005
-0.985
-0.955
-0.935
-0.92
-0.905
-0.885
-0.87
-0.88
-0.905
-0.935
-0.98
-1.01
-1.06
-1.075
-1.055
-1.02
-0.965
-0.9
-0.89
-0.91
-0.945
-0.99
-1.035
-1.055
-1.01
-0.915
-0.77
-0.59
-0.47
-0.375
-0.39
-0.415
-0.43
-0.395
-0.275
-0.065
0.19
0.44
0.575
0.545
0.275
-0.145
-0.665
-1.15
-1.535
-1.81
-1.98
-2.045
-2.04
-2.0
-2.005
-2.045
-2.08
-2.125
-2.135
-2.115
-2.075
-2.03
-1.985
-1.92
-1.83
-1.735
-1.605
-1.47
-1.335
-1.215
-1.135
-1.04
-0.995
-0.995
-0.99
-0.995
-0.98
-0.955
-0.915
-0.905
-0.89
-0.875
-0.9
-0.915
-0.93
-0.945
-0.945
-0.935
-0.915
-0.905
-0.92
-0.935
-0.92
-0.9
-0.915
-0.91
-0.905
-0.945
-0.94
-0.935
-0.95
-0.94
-0.92
-0.89
-0.875
-0.905
-0.975
-1.035
-1.075
-1.09
-1.095
-1.09
-1.095
-1.09
-1.07
-1.015
-0.99
-1.0
-1.03
-1.09
-1.13
-1.16
-1.15
-1.15
-1.12
-1.095
-1.05
-1.01
-0.98
-0.965
-0.98
-0.985
-1.03
-0.995
-0.985
-0.95
-0.91
-0.905
-0.845
-0.825
-0.825
-0.835
-0.835
-0.825
-0.82
-0.82
-0.82
-0.825
-0.83
-0.825
-0.805
-0.785
-0.76
-0.75
-0.735
-0.735
-0.77
-0.83
-0.885
-0.885
-0.83
-0.76
-0.74
-0.755
-0.795
-0.84
-0.865
-0.875
-0.87
-0.865
-0.85
-0.85
-0.87
-0.885
-0.89
-0.895
-0.88
-0.85
-0.805
-0.765
-0.76
-0.785
-0.835
-0.905
-0.945
-0.945
-0.93
-0.865
-0.805
-0.765
-0.785
-0.85
-0.925
-0.97
-0.975
-0.945
-0.92
-0.895
-0.89
-0.87
-0.83
-0.82
-0.845
-0.865
-0.895
-0.89
-0.895
-0.875
-0.85
-0.805
-0.755
-0.75
-0.73
-0.715
-0.715
-0.71
-0.705
-0.7
-0.725
-0.72
-0.75
-0.775
-0.775
-0.765
-0.765
-0.74
-0.765
-0.78
-0.835
-0.855
-0.825
-0.765
-0.74
-0.74
-0.78
-0.795
-0.805
-0.81
-0.835
-0.885
-0.93
-0.96
-0.975
-0.99
-0.985
-0.98
-1.0
-1.015
-1.025
-1.0
-0.98
-0.98
-0.98
-0.975
-0.99
-0.99
-0.995
-0.985
-0.955
-0.925
-0.91
-0.925
-0.93
-0.935
-0.98
-1.005
-0.99
-1.015
-1.06
-1.095
-1.08
-1.015
-0.905
-0.745
-0.57
-0.45
-0.375
-0.355
-0.36
-0.345
-0.295
-0.19
0.03
0.295
0.49
0.575
0.41
0.03
-0.515
-1.085
-1.535
-1.86
-1.995
-2.035
-2.02
-1.995
-2.005
-2.025
-2.03
-2.06
-2.07
-2.11
-2.14
-2.1
-2.06
-1.99
-1.91
-1.835
-1.775
-1.675
-1.545
-1.375
-1.235
-1.115
-1.015
-0.98
-0.96
-0.98
-0.99
-1.0
-1.005
-1.01
-1.005
-0.98
-0.95
-0.91
-0.915
-0.925
-0.935
-0.925
-0.945
-0.945
-0.945
-0.915
-0.905
-0.915
-0.945
-0.965
-0.99
-1.015
-1.02
-1.02
-1.02
-0.965
-0.92
-0.91
-0.95
-1.005
-1.11
-1.18
-1.2
-1.17
-1.125
-1.07
-1.055
-1.025
-1.02
-1.015
-1.045
-1.075
-1.12
-1.15
-1.155
-1.13
-1.09
-1.05
-1.0
-0.985
