Lead II
-0.26
-0.25
-0.26
-0.27
-0.275
-0.265
-0.255
-0.265
-0.27
-0.265
-0.27
-0.255
-0.26
-0.255
-0.255
-0.26
-0.265
-0.255
-0.245
-0.25
-0.235
-0.24
-0.25
-0.24
-0.23
-0.225
-0.225
-0.22
-0.23
-0.225
-0.21
-0.21
-0.2
-0.22
-0.24
-0.24
-0.255
-0.265
-0.285
-0.29
-0.285
-0.215
-0.105
0.04
0.17
0.295
0.39
0.48
0.575
0.71
0.855
1.005
1.135
1.28
1.41
1.47
1.49
1.47
1.445
1.41
1.3
1.13
0.95
0.795
0.645
0.51
0.37
0.2
-0.015
-0.22
-0.39
-0.52
-0.64
-0.74
-0.825
-0.855
-0.885
-0.9
-0.88
-0.855
-0.86
-0.86
-0.86
-0.825
-0.775
-0.735
-0.695
-0.675
-0.66
-0.65
-0.615
-0.59
-0.57
-0.545
-0.535
-0.495
-0.49
-0.47
-0.465
-0.475
-0.475
-0.48
-0.465
-0.47
-0.47
-0.48
-0.49
-0.495
-0.49
-0.49
-0.51
-0.505
-0.525
-0.525
-0.525
-0.515
-0.52
-0.54
-0.555
-0.56
-0.555
-0.545
-0.555
-0.555
-0.575
-0.565
-0.545
-0.555
-0.55
-0.56
-0.565
-0.545
-0.53
-0.53
-0.525
-0.525
-0.535
-0.51
-0.505
-0.49
-0.485
-0.485
-0.49
-0.465
-0.46
-0.44
-0.43
-0.425
-0.425
-0.41
-0.38
-0.36
-0.355
-0.345
-0.35
-0.34
-0.3
-0.29
-0.265
-0.265
-0.27
-0.23
-0.21
-0.185
-0.175
-0.19
-0.17
-0.155
-0.125
-0.115
-0.105
-0.095
-0.09
-0.065
-0.05
-0.035
-0.035
-0.035
-0.04
-0.04
-0.015
-0.005
-0.015
-0.02
-0.03
-0.025
-0.01
-0.01
-0.02
-0.035
-0.045
-0.035
-0.035
-0.035
-0.05
-0.07
-0.075
-0.08
-0.065
-0.07
-0.09
-0.095
-0.1
-0.085
-0.065
-0.045
-0.05
-0.05
-0.06
-0.06
-0.035
-0.04
-0.045
-0.05
-0.065
-0.05
-0.035
-0.025
-0.035
-0.025
-0.03
-0.015
-0.01
-0.005
-0.01
-0.035
-0.035
-0.035
-0.04
-0.035
-0.04
-0.055
-0.06
-0.05
-0.035
-0.03
-0.035
-0.055
-0.08
-0.095
-0.105
-0.13
-0.16
-0.18
-0.21
-0.225
-0.24
-0.24
-0.275
-0.285
-0.29
-0.285
-0.28
-0.285
-0.295
-0.3
-0.31
-0.3
-0.29
-0.285
-0.29
-0.305
-0.305
-0.295
-0.285
-0.28
-0.285
-0.29
-0.29
-0.285
-0.27
-0.275
-0.28
-0.285
-0.285
-0.28
-0.265
-0.265
-0.26
-0.27
-0.275
-0.265
-0.25
-0.25
-0.25
-0.245
-0.26
-0.25
-0.24
-0.235
-0.245
-0.255
-0.265
-0.245
-0.24
-0.225
-0.235
-0.24
-0.24
-0.23
-0.225
-0.215
-0.25
-0.27
-0.295
-0.29
-0.275
-0.255
-0.165
-0.04
0.1
0.24
0.375
0.475
0.555
0.63
0.76
0.905
1.04
1.19
1.32
1.43
1.495
1.56
1.585
1.595
1.575
1.525
1.44
1.32
1.145
0.99
0.845
0.705
0.565
0.415
0.28
0.09
-0.115
-0.29
-0.445
-0.57
-0.68
-0.8
-0.885
-0.935
-0.97
-0.97
-0.96
-0.945
-0.935
-0.94
-0.95
-0.905
-0.86
-0.815
-0.775
-0.74
-0.735
-0.705
-0.675
-0.665
-0.63
-0.61
-0.59
-0.555
-0.54
-0.525
-0.52
-0.53
-0.53
-0.515
-0.51
-0.5
-0.515
-0.525
-0.545
-0.53
-0.525
-0.53
-0.53
-0.55
-0.565
-0.565
-0.565
-0.55
-0.57
-0.565
-0.59
-0.59
-0.57
-0.57
-0.57
-0.585
-0.6
-0.59
-0.585
-0.575
-0.58
-0.59
-0.6
-0.585
-0.585
-0.555
-0.575
-0.575
-0.58
-0.57
-0.56
-0.55
-0.55
-0.555
-0.54
-0.545
-0.525
-0.52
-0.515
-0.505
-0.505
-0.485
-0.47
-0.46
-0.445
-0.45
-0.44
-0.415
-0.4
-0.38
-0.385
-0.38
-0.365
-0.345
-0.33
-0.3
-0.295
-0.29
-0.275
-0.25
-0.235
-0.215
-0.195
-0.195
-0.185
-0.17
-0.135
-0.135
-0.125
-0.115
-0.115
-0.09
-0.075
-0.06
-0.06
-0.06
-0.065
-0.055
-0.04
-0.025
-0.035
-0.045
-0.06
-0.055
-0.055
-0.055
-0.07
-0.075
-0.085
-0.075
-0.07
-0.07
-0.09
-0.09
-0.11
-0.115
-0.095
-0.1
-0.09
-0.1
-0.105
-0.115
-0.11
-0.1
-0.1
-0.105
-0.1
-0.105
-0.09
-0.095
-0.105
-0.105
-0.12
-0.105
-0.105
-0.11
-0.11
-0.115
-0.105
-0.1
-0.08
-0.065
-0.07
-0.07
-0.07
-0.07
-0.06
-0.055
-0.075
-0.095
-0.105
-0.105
-0.09
-0.08
-0.07
-0.07
-0.075
-0.07
-0.065
-0.075
-0.1
-0.135
-0.18
-0.205
-0.215
-0.22
-0.25
-0.27
-0.295
-0.305
-0.295
-0.285
-0.3
-0.32
-0.335
-0.325
-0.31
-0.31
-0.315
-0.32
-0.33
-0.32
-0.31
-0.305
-0.325
-0.325
-0.34
-0.315
-0.3
-0.29
-0.3
-0.3
-0.295
-0.29
-0.285
-0.28
-0.285
-0.285
-0.285
-0.285
-0.27
-0.265
-0.265
-0.265
-0.28
-0.275
-0.27
-0.26
-0.26
-0.275
-0.275
-0.265
-0.255
-0.25
-0.24
-0.255
-0.255
-0.255
-0.26
-0.26
-0.285
-0.31
-0.315
-0.295
-0.23
-0.11
0.02
0.165
0.3
0.425
0.51
0.585
0.68
0.79
0.9
1.035
1.165
1.24
1.27
1.27
1.245
1.215
1.16
1.055
0.9
0.74
0.575
0.47
0.37
0.25
0.09
-0.09
-0.275
-0.41
-0.53
-0.64
-0.745
-0.82
-0.88
-0.885
-0.885
-0.87
-0.87
-0.87
-0.865
-0.845
-0.83
-0.78
-0.76
-0.745
-0.71
-0.68
-0.655
-0.645
-0.63
-0.6
-0.59
-0.57
-0.535
-0.52
-0.515
-0.525
-0.51
-0.505
-0.505
-0.505
-0.515
-0.525
-0.535
-0.53
-0.535
-0.52
-0.53
-0.535
-0.545
-0.545
-0.53
-0.525
-0.525
-0.525
-0.535
-0.535
-0.54
-0.535
-0.54
-0.55
-0.555
-0.545
-0.545
-0.535
-0.545
-0.545
-0.555
-0.545
-0.53
-0.53
-0.525
-0.525
-0.535
-0.51
-0.515
-0.5
-0.49
-0.495
-0.495
-0.47
-0.47
-0.45
-0.455
-0.45
-0.44
-0.425
-0.4
-0.39
-0.365
-0.36
-0.345
-0.325
-0.295
-0.3
-0.28
-0.27
-0.27
-0.245
-0.235
-0.22
-0.205
-0.2
-0.2
-0.18
-0.155
-0.155
-0.14
-0.13
-0.145
-0.12
-0.105
-0.09
-0.09
-0.09
-0.1
-0.085
-0.085
-0.07
-0.07
-0.075
-0.08
-0.065
-0.05
-0.065
-0.065
-0.085
-0.09
-0.07
-0.065
-0.075
-0.075
-0.08
-0.1
-0.095
-0.09
-0.09
-0.105
-0.115
-0.125
-0.125
-0.115
-0.12
-0.13
-0.13
-0.125
-0.115
-0.1
-0.11
-0.105
-0.115
-0.12
-0.11
-0.11
-0.1
-0.115
-0.135
-0.15
-0.12
-0.1
-0.085
-0.07
-0.065
-0.065
-0.065
-0.05
-0.055
-0.055
-0.065
-0.08
-0.08
-0.075
-0.07
-0.07
-0.075
-0.085
-0.065
-0.05
-0.05
-0.06
-0.08
-0.115
-0.13
-0.155
-0.175
-0.21
-0.235
-0.28
-0.295
-0.31
-0.345
-0.385
-0.41
-0.435
-0.445
-0.455
-0.49
-0.495
-0.515
-0.555
-0.555
-0.535
-0.49
-0.405
-0.335
-0.31
-0.28
-0.255
-0.18
-0.1
0.02
0.145
0.28
0.395
0.425
0.34
0.185
0.0
-0.21
-0.435
-0.67
-0.84
-0.97
-1.08
-1.135
-1.165
-1.195
-1.23
-1.31
-1.395
-1.435
-1.44
-1.405
-1.41
-1.4
-1.395
-1.375
-1.355
-1.325
-1.305
-1.265
-1.215
-1.145
-1.06
-0.99
-0.925
-0.85
-0.79
-0.705
-0.635
-0.57
-0.535
-0.48
-0.435
-0.345
-0.29
-0.235
-0.205
-0.18
-0.16
-0.14
-0.12
-0.1
-0.095
-0.095
-0.095
-0.075
-0.06
-0.06
-0.04
-0.05
-0.065
-0.045
-0.015
-0.01
-0.005
0.0
-0.015
0.01
0.025
0.035
0.055
0.05
0.05
0.06
0.085
0.105
0.11
0.13
0.125
0.15
0.17
0.19
0.19
0.205
0.205
0.225
0.245
0.27
0.275
0.28
0.285
0.295
0.33
0.35
0.345
0.365
0.365
0.385
0.405
0.415
0.43
0.425
0.425
0.435
0.46
0.465
0.465
0.46
0.46
0.46
0.455
0.47
0.475
0.465
0.455
0.45
0.44
0.45
0.425
0.4
0.395
0.405
0.39
0.39
0.36
0.35
0.335
0.325
0.32
0.31
0.3
0.28
0.255
0.26
0.25
0.24
0.225
0.2
0.175
0.17
0.175
0.155
0.14
0.125
0.1
0.105
0.1
0.09
0.075
0.06
0.03
0.035
0.035
0.03
0.025
-0.005
-0.015
-0.02
-0.01
-0.015
-0.03
-0.025
-0.04
-0.035
-0.035
-0.035
-0.035
-0.05
-0.065
-0.065
-0.055
-0.055
-0.07
-0.08
-0.08
-0.08
-0.095
-0.075
-0.075
-0.085
-0.105
-0.085
-0.08
-0.09
-0.09
-0.095
-0.095
-0.08
-0.06
-0.055
-0.05
-0.065
-0.055
-0.05
-0.045
-0.04
-0.03
-0.035
-0.03
-0.01
0.02
0.04
0.045
0.05
0.035
0.035
0.065
0.065
0.04
0.02
0.015
0.015
0.035
0.03
0.03
0.035
0.015
0.02
0.025
0.015
-0.005
-0.035
-0.08
-0.12
-0.12
-0.15
-0.175
-0.2
-0.22
-0.235
-0.23
-0.23
-0.245
-0.255
-0.26
-0.255
-0.245
-0.255
-0.245
-0.255
-0.265
-0.25
-0.225
-0.23
-0.235
-0.24
-0.25
-0.245
-0.245
-0.24
-0.24
-0.25
-0.275
-0.25
-0.24
-0.23
-0.245
-0.255
-0.265
-0.26
-0.24
-0.235
-0.25
-0.24
-0.25
-0.235
-0.23
-0.22
-0.22
-0.24
-0.245
-0.22
-0.215
-0.205
-0.205
-0.215
-0.21
-0.22
-0.205
-0.225
-0.24
-0.28
-0.28
-0.275
-0.245
-0.165
-0.04
0.095
0.23
0.355
0.465
0.535
0.635
0.78
0.925
1.08
1.215
1.315
1.38
1.405
1.4
1.39
1.35
1.265
1.1
0.92
0.765
0.655
0.54
0.39
0.205
0.005
-0.19
-0.365
-0.5
-0.63
-0.75
-0.83
-0.87
-0.875
-0.885
-0.88
-0.87
-0.87
-0.88
-0.855
-0.815
-0.765
-0.725
-0.705
-0.68
-0.655
-0.635
-0.605
-0.59
-0.565
-0.555
-0.52
-0.51
-0.485
-0.485
-0.485
-0.485
-0.49
-0.495
-0.49
-0.5
-0.505
-0.525
-0.52
-0.515
-0.51
-0.52
-0.535
-0.55
-0.545
-0.54
-0.535
-0.56
-0.56
-0.57
-0.565
-0.57
-0.555
-0.56
-0.58
-0.58
-0.57
-0.565
-0.555
-0.56
-0.565
-0.565
-0.545
-0.54
-0.535
-0.525
-0.525
-0.525
-0.515
-0.49
-0.48
-0.48
-0.485
-0.48
-0.45
-0.43
-0.42
-0.415
-0.405
-0.4
-0.37
-0.36
-0.345
-0.32
-0.315
-0.315
-0.29
-0.27
-0.265
-0.245
-0.24
-0.23
-0.21
-0.2
-0.18
-0.175
-0.145
-0.145
-0.14
-0.12
-0.09
-0.085
-0.085
-0.075
-0.055
-0.04
-0.02
-0.025
-0.025
-0.025
-0.025
-0.01
0.005
0.0
-0.005
-0.02
-0.015
0.005
0.005
-0.01
-0.02
-0.035
-0.035
-0.025
-0.045
-0.045
-0.055
-0.065
-0.05
-0.045
-0.035
-0.03
-0.03
-0.035
-0.025
-0.025
-0.02
-0.035
-0.04
-0.04
-0.04
-0.025
-0.02
-0.02
-0.02
-0.02
-0.015
-0.01
-0.015
-0.01
-0.03
-0.04
-0.045
-0.05
-0.06
-0.065
-0.06
-0.065
-0.07
-0.07
-0.075
-0.075
-0.085
-0.095
-0.115
-0.14
-0.17
-0.185
-0.225
-0.25
-0.265
-0.285
-0.285
-0.305
-0.33
-0.335
-0.345
-0.33
-0.325
-0.335
-0.34
-0.345
-0.34
-0.335
-0.32
-0.325
-0.33
-0.33
-0.325
-0.32
-0.32
-0.315
-0.32
-0.33
-0.305
-0.315
-0.3
-0.31
-0.31
-0.315
-0.305
-0.295
-0.29
-0.3
-0.295
-0.295
-0.29
-0.27
-0.26
-0.27
-0.27
-0.28
-0.265
-0.255
-0.26
-0.26
-0.245
-0.265
-0.255
-0.25
-0.255
-0.285
-0.31
-0.34
-0.335
-0.325
-0.3
-0.23
-0.13
0.0
0.15
0.29
0.395
0.47
0.575
0.72
0.89
1.055
1.2
1.33
1.395
1.44
1.445
1.435
1.395
1.275
1.09
0.895
0.715
0.59
0.43
0.22
-0.03
-0.265
-0.455
-0.605
-0.73
-0.84
-0.91
-0.93
-0.945
-0.935
-0.91
-0.905
-0.915
-0.905
-0.86
-0.795
-0.75
-0.72
-0.7
-0.675
-0.64
-0.605
-0.575
-0.545
-0.535
-0.52
-0.51
-0.49
-0.5
-0.495
-0.505
-0.52
-0.51
-0.5
-0.515
-0.525
-0.525
-0.555
-0.54
-0.53
-0.535
-0.56
-0.565
-0.575
-0.575
-0.57
-0.575
-0.575
-0.58
-0.585
-0.595
-0.585
-0.575
-0.575
-0.585
-0.575
-0.57
-0.55
-0.545
-0.54
-0.55
-0.555
-0.53
-0.505
-0.5
-0.505
-0.49
-0.485
-0.465
-0.455
-0.43
-0.42
-0.42
-0.405
-0.385
-0.36
-0.35
-0.335
-0.34
-0.32
-0.31
-0.29
-0.255
-0.235
-0.235
-0.215
-0.195
-0.175
-0.15
-0.14
-0.14
-0.13
-0.11
-0.085
-0.075
-0.07
-0.065
-0.07
-0.06
-0.04
-0.035
-0.03
-0.045
-0.05
-0.03
-0.025
-0.025
-0.04
-0.055
-0.07
-0.06
-0.055
-0.055
-0.06
-0.075
-0.09
-0.105
-0.105
-0.095
-0.105
-0.115
-0.13
-0.12
-0.12
-0.11
-0.12
-0.13
-0.13
-0.125
-0.11
-0.09
-0.09
-0.105
-0.1
-0.1
-0.085
-0.09
-0.085
-0.095
-0.095
-0.085
-0.065
-0.05
-0.05
-0.04
-0.045
-0.04
-0.03
-0.025
-0.02
-0.045
-0.065
-0.05
-0.03
-0.025
-0.035
-0.04
-0.025
-0.015
-0.01
-0.02
-0.04
-0.055
-0.105
-0.13
-0.155
-0.195
-0.205
-0.225
-0.255
-0.26
-0.27
-0.27
-0.285
-0.295
-0.305
-0.3
-0.29
-0.29
-0.295
-0.3
-0.305
-0.295
-0.285
-0.285
-0.295
-0.305
-0.315
-0.31
-0.295
-0.28
-0.285
-0.3
-0.29
-0.28
-0.27
-0.27
-0.27
-0.28
-0.28
-0.28
-0.26
-0.255
-0.265
-0.27
-0.28
-0.275
-0.255
-0.26
-0.26
-0.265
-0.27
-0.26
-0.255
-0.24
-0.235
-0.255
-0.27
-0.27
-0.255
-0.275
-0.295
-0.32
-0.335
-0.315
-0.255
-0.16
-0.025
0.11
0.25
0.395
0.505
0.62
0.725
0.86
1.005
1.15
1.305
1.425
1.52
1.565
1.555
1.55
1.52
1.44
1.28
1.07
0.875
0.715
0.575
0.42
0.25
0.035
-0.205
-0.395
-0.54
-0.695
-0.82
-0.91
-0.98
-0.995
-1.005
-0.985
-0.975
-0.97
-0.97
-0.945
-0.905
-0.86
-0.815
-0.775
-0.765
-0.745
-0.71
-0.69
-0.67
-0.65
-0.62
-0.595
-0.57
-0.565
-0.565
-0.545
-0.575
-0.565
-0.57
-0.58
-0.575
-0.58
-0.605
-0.605
-0.59
-0.59
-0.6
-0.6
-0.61
-0.615
-0.605
-0.61
-0.605
-0.615
-0.615
-0.625
-0.615
-0.615
-0.62
-0.64
-0.645
-0.645
-0.64
-0.62
-0.615
-0.62
-0.625
-0.615
-0.6
-0.6
-0.595
-0.605
-0.605
-0.58
-0.565
-0.54
-0.54
-0.53
-0.515
-0.52
-0.505
-0.46
-0.45
-0.45
-0.43
-0.395
-0.385
-0.355
-0.355
-0.33
-0.325
-0.3
-0.295
-0.27
-0.26
-0.25
-0.235
-0.205
-0.19
-0.185
-0.18
-0.16
-0.16
-0.135
-0.12
-0.115
-0.115
-0.115
-0.12
-0.11
-0.085
-0.08
-0.08
-0.075
-0.085
-0.085
-0.075
-0.075
-0.075
-0.085
-0.095
-0.095
-0.075
-0.07
-0.08
-0.095
-0.115
-0.12
-0.125
-0.13
-0.14
-0.14
-0.16
-0.145
-0.145
-0.13
-0.12
-0.13
-0.12
-0.12
-0.12
-0.125
-0.125
-0.14
-0.15
-0.135
-0.135
-0.125
-0.115
-0.115
-0.105
-0.08
-0.08
-0.07
-0.08
-0.08
-0.08
-0.095
-0.09
-0.09
-0.1
-0.085
-0.095
-0.095
-0.075
-0.08
-0.09
-0.11
-0.125
-0.145
-0.175
-0.205
-0.22
-0.25
-0.28
-0.305
-0.32
-0.33
-0.34
-0.355
-0.375
-0.37
-0.355
-0.355
-0.36
-0.36
-0.375
-0.375
-0.355
-0.335
-0.34
-0.34
-0.35
-0.335
-0.33
-0.33
-0.325
-0.33
-0.335
-0.335
-0.32
-0.32
-0.33
-0.335
-0.345
-0.335
-0.33
-0.315
-0.32
-0.325
-0.325
-0.31
-0.31
-0.31
-0.31
-0.31
-0.325
-0.32
-0.31
-0.295
-0.3
-0.305
-0.305
-0.29
-0.28
-0.275
-0.29
-0.29
-0.31
-0.33
-0.325
-0.305
-0.28
-0.21
-0.11
0.045
0.205
0.335
0.445
0.505
0.57
0.675
0.805
0.925
1.045
1.14
1.225
1.27
1.29
1.28
1.26
1.21
1.14
1.025
0.87
0.74
0.6
0.47
0.34
0.21
0.06
-0.125
-0.305
-0.48
-0.605
-0.73
-0.83
-0.89
-0.935
-0.96
-0.965
-0.96
-0.945
-0.95
-0.955
-0.93
-0.925
-0.88
-0.825
-0.8
-0.77
-0.745
-0.74
-0.715
-0.68
-0.655
-0.64
-0.625
-0.61
-0.59
-0.575
-0.57
-0.555
-0.555
-0.56
-0.555
-0.54
-0.54
-0.55
-0.555
-0.565
-0.55
-0.54
-0.555
-0.555
-0.57
-0.58
-0.575
-0.565
-0.56
-0.57
-0.585
-0.595
-0.6
-0.59
-0.59
-0.585
-0.605
-0.6
-0.605
-0.6
-0.58
-0.59
-0.605
-0.6
-0.58
-0.565
-0.57
-0.555
-0.545
-0.55
-0.54
-0.52
-0.5
-0.48
-0.485
-0.48
-0.46
-0.435
-0.415
-0.405
-0.39
-0.39
-0.37
-0.355
-0.325
-0.32
-0.31
-0.3
-0.28
-0.25
-0.23
-0.225
-0.225
-0.215
-0.205
-0.18
-0.165
-0.155
-0.155
-0.155
-0.145
-0.13
-0.105
-0.11
-0.105
-0.105
-0.105
-0.075
-0.075
-0.08
-0.08
-0.1
-0.08
-0.08
-0.085
-0.09
-0.105
-0.13
-0.125
-0.12
-0.115
-0.13
-0.135
-0.16
-0.16
-0.16
-0.145
-0.16
-0.185
-0.185
-0.185
-0.175
-0.155
-0.16
-0.15
-0.165
-0.145
-0.14
-0.13
-0.125
-0.135
-0.14
-0.115
-0.105
-0.085
-0.085
-0.075
-0.08
-0.06
-0.065
-0.05
-0.05
-0.065
-0.075
-0.08
-0.08
-0.07
-0.065
-0.07
-0.08
-0.065
-0.055
-0.065
-0.085
-0.11
-0.16
-0.19
-0.21
-0.215
-0.255
-0.285
-0.32
-0.32
-0.32
-0.315
-0.305
-0.315
-0.32
-0.32
-0.315
-0.305
-0.31
-0.315
-0.32
-0.31
-0.31
-0.295
-0.305
-0.305
-0.32
-0.305
-0.305
-0.285
-0.29
-0.315
-0.325
-0.3
-0.3
-0.29
-0.29
-0.3
-0.3
-0.285
-0.275
-0.275
-0.275
-0.28
-0.29
-0.285
-0.26
-0.245
-0.245
-0.255
-0.25
-0.25
-0.225
-0.225
-0.235
-0.23
-0.245
-0.25
-0.255
-0.27
-0.285
-0.305
-0.32
-0.305
-0.245
-0.12
0.005
0.11
0.225
0.33
0.415
0.47
0.555
0.685
0.795
0.935
1.07
1.175
1.245
1.265
1.265
1.265
1.255
1.225
1.145
1.005
0.85
0.745
0.645
0.545
0.425
0.285
0.07
-0.095
-0.25
-0.375
-0.515
-0.65
-0.75
-0.81
-0.845
-0.86
-0.875
-0.875
-0.89
-0.875
-0.875
-0.855
-0.84
-0.815
-0.785
-0.75
-0.7
-0.685
-0.675
-0.665
-0.64
-0.61
-0.57
-0.55
-0.515
-0.51
-0.5
-0.485
-0.475
-0.465
-0.47
-0.495
-0.495
-0.5
-0.485
-0.485
-0.49
-0.5
-0.5
-0.515
-0.51
-0.505
-0.515
-0.525
-0.535
-0.53
-0.525
-0.52
-0.54
-0.56
-0.555
-0.55
-0.54
-0.545
-0.55
-0.55
-0.56
-0.55
-0.535
-0.53
-0.535
-0.54
-0.53
-0.535
-0.515
-0.515
-0.505
-0.505
-0.505
-0.495
-0.48
-0.465
-0.445
-0.445
-0.44
-0.425
-0.415
-0.4
-0.395
-0.39
-0.38
-0.36
-0.335
-0.32
-0.295
-0.295
-0.295
-0.27
-0.245
-0.235
-0.215
-0.205
-0.21
-0.185
-0.155
-0.145
-0.14
-0.13
-0.12
-0.1
-0.08
-0.06
-0.06
-0.055
-0.055
-0.045
-0.025
-0.015
-0.015
-0.015
-0.01
-0.02
-0.005
-0.01
-0.015
-0.02
-0.025
-0.02
-0.02
-0.02
-0.03
-0.04
-0.05
-0.055
-0.05
-0.04
-0.06
-0.065
-0.075
-0.07
-0.065
-0.07
-0.075
-0.07
-0.075
-0.04
-0.04
-0.03
-0.035
-0.035
-0.06
-0.055
-0.04
-0.02
-0.025
-0.02
-0.03
-0.01
0.005
0.0
0.0
-0.01
-0.03
-0.035
-0.04
-0.035
-0.035
-0.04
-0.045
-0.035
-0.025
-0.01
-0.02
-0.045
-0.065
-0.075
-0.09
-0.1
-0.16
-0.185
-0.21
-0.225
-0.235
-0.255
-0.275
-0.29
-0.29
-0.285
-0.285
-0.285
-0.295
-0.295
-0.295
-0.295
-0.285
-0.28
-0.275
-0.295
-0.305
-0.295
-0.285
-0.29
-0.29
-0.29
-0.3
-0.295
-0.275
-0.265
-0.26
-0.27
-0.27
-0.26
-0.26
-0.255
-0.245
-0.25
-0.265
-0.255
-0.245
-0.24
-0.245
-0.245
-0.26
-0.255
-0.23
-0.235
-0.23
-0.235
-0.245
-0.245
-0.255
-0.255
-0.275
-0.305
-0.33
-0.345
-0.325
-0.28
-0.185
-0.06
0.065
0.21
0.33
0.425
0.495
0.59
0.725
0.88
1.02
1.15
1.27
1.37
1.4
1.425
1.43
1.41
1.365
1.25
1.065
0.9
0.765
0.63
0.505
0.34
0.14
-0.06
-0.26
-0.41
-0.565
-0.685
-0.8
-0.855
-0.895
-0.92
-0.935
-0.94
-0.93
-0.91
-0.895
-0.885
-0.85
-0.815
-0.78
-0.74
-0.71
-0.675
-0.66
-0.65
-0.63
-0.6
-0.56
-0.54
-0.52
-0.525
-0.525
-0.515
-0.495
-0.485
-0.5
-0.5
-0.52
-0.52
-0.53
-0.53
-0.53
-0.545
-0.56
-0.55
-0.56
-0.55
-0.555
-0.565
-0.57
-0.56
-0.555
-0.55
-0.555
-0.565
-0.585
-0.575
-0.555
-0.56
-0.565
-0.58
-0.585
-0.585
-0.565
-0.56
-0.57
-0.565
-0.575
-0.565
-0.55
-0.54
-0.555
-0.555
-0.545
-0.53
-0.51
-0.495
-0.49
-0.485
-0.49
-0.46
-0.43
-0.415
-0.415
-0.4
-0.395
-0.365
-0.35
-0.325
-0.305
-0.3
-0.295
-0.285
-0.26
-0.23
-0.22
-0.21
-0.2
-0.185
-0.165
-0.145
-0.13
-0.13
-0.125
-0.105
-0.09
-0.1
-0.08
-0.07
-0.07
-0.05
-0.04
-0.03
-0.025
-0.045
-0.05
-0.035
-0.03
-0.025
-0.025
-0.03
-0.045
-0.055
-0.045
-0.045
-0.045
-0.05
-0.065
-0.055
-0.055
-0.06
-0.07
-0.08
-0.09
-0.095
-0.085
-0.09
-0.1
-0.115
-0.135
-0.125
-0.125
-0.105
-0.09
-0.095
-0.095
-0.09
-0.085
-0.08
-0.085
-0.1
-0.12
-0.115
-0.08
-0.07
-0.065
-0.075
-0.07
-0.06
-0.04
-0.025
-0.035
-0.03
-0.04
-0.05
-0.05
-0.05
-0.045
-0.045
-0.045
-0.035
-0.025
-0.02
-0.025
-0.03
-0.065
-0.07
-0.1
-0.12
-0.15
-0.175
-0.21
-0.23
-0.25
-0.265
-0.285
-0.3
-0.315
-0.31
-0.315
-0.3
-0.31
-0.32
-0.325
-0.32
-0.3
-0.3
-0.3
-0.31
-0.315
-0.305
-0.3
-0.275
-0.28
-0.28
-0.295
-0.29
-0.265
-0.265
-0.27
-0.275
-0.28
-0.285
-0.275
-0.265
-0.27
-0.275
-0.275
-0.275
-0.265
-0.25
-0.26
-0.265
-0.275
-0.265
-0.26
-0.255
-0.255
-0.26
-0.27
-0.255
-0.25
-0.245
-0.25
-0.255
-0.265
-0.26
-0.265
-0.285
-0.305
-0.315
-0.325
-0.305
-0.255
-0.145
-0.025
0.1
0.22
0.345
0.45
0.53
0.63
0.75
0.865
1.02
1.16
1.28
1.395
1.46
1.47
1.485
1.48
1.47
1.38
1.235
1.04
0.88
0.74
0.62
0.485
0.335
0.16
-0.04
-0.215
-0.36
-0.49
-0.62
-0.745
-0.845
-0.9
-0.93
-0.955
-0.975
-0.98
-0.965
-0.94
-0.94
-0.94
-0.925
-0.89
-0.845
-0.79
-0.76
-0.74
-0.725
-0.72
-0.685
-0.655
-0.625
-0.615
-0.6
-0.595
-0.57
-0.555
-0.545
-0.555
-0.545
-0.565
-0.56
-0.545
-0.535
-0.55
-0.555
-0.56
-0.56
-0.555
-0.56
-0.555
-0.565
-0.58
-0.575
-0.57
-0.57
-0.585
-0.595
-0.6
-0.6
-0.6
-0.59
-0.61
-0.61
-0.625
-0.605
-0.605
-0.595
-0.61
-0.61
-0.635
-0.62
-0.62
-0.61
-0.61
-0.62
-0.635
-0.615
-0.6
-0.575
-0.59
-0.58
-0.575
-0.555
-0.545
-0.53
-0.52
-0.505
-0.515
-0.495
-0.48
-0.46
-0.455
-0.44
-0.43
-0.41
-0.38
-0.36
-0.35
-0.345
-0.345
-0.33
-0.31
-0.29
-0.285
-0.27
-0.275
-0.25
-0.225
-0.21
-0.205
-0.205
-0.2
-0.18
-0.18
-0.16
-0.16
-0.145
-0.16
-0.13
-0.11
-0.095
-0.09
-0.105
-0.085
-0.08
-0.075
-0.065
-0.07
-0.09
-0.09
-0.09
-0.085
-0.085
-0.085
-0.095
-0.105
-0.1
-0.1
-0.1
-0.115
-0.135
-0.14
-0.14
-0.13
-0.135
-0.15
-0.16
-0.18
-0.16
-0.17
-0.16
-0.165
-0.17
-0.17
-0.16
-0.155
-0.145
-0.15
-0.17
-0.185
-0.165
-0.165
-0.155
-0.145
-0.15
-0.145
-0.13
-0.11
-0.095
-0.095
-0.095
-0.095
-0.095
-0.07
-0.065
-0.075
-0.095
-0.125
-0.11
-0.11
-0.095
-0.1
-0.105
-0.12
-0.095
-0.095
-0.095
-0.105
-0.135
-0.165
-0.185
-0.215
-0.24
-0.26
-0.285
-0.315
-0.33
-0.345
-0.35
-0.355
-0.355
-0.37
-0.355
-0.355
-0.35
-0.36
-0.36
-0.37
-0.365
-0.345
-0.335
-0.355
-0.355
-0.365
-0.37
-0.355
-0.36
-0.36
-0.365
-0.36
-0.365
-0.355
-0.355
-0.345
-0.37
-0.365
-0.36
-0.345
-0.34
-0.35
-0.345
-0.365
-0.36
-0.335
-0.315
-0.33
-0.325
-0.335
-0.32
-0.305
-0.3
-0.305
-0.315
-0.32
-0.315
-0.3
-0.31
-0.31
-0.315
-0.335
-0.355
-0.36
-0.355
-0.33
-0.29
-0.185
-0.04
0.115
0.245
0.375
0.47
0.545
0.64
0.775
0.925
1.06
1.185
1.31
1.39
1.43
1.425
1.415
1.365
1.29
1.155
0.97
0.81
0.655
0.495
0.33
0.175
-0.02
-0.21
-0.405
-0.555
-0.685
-0.805
-0.905
-0.98
-1.015
-1.03
-1.05
-1.035
-1.01
-1.0
-0.995
-0.985
-0.965
-0.915
-0.87
-0.83
-0.8
-0.795
-0.79
-0.755
-0.72
-0.69
-0.66
-0.65
-0.64
-0.62
-0.595
-0.58
-0.57
-0.605
-0.605
-0.61
-0.595
-0.59
-0.615
-0.61
-0.625
-0.615
-0.605
-0.615
-0.62
-0.63
-0.635
-0.635
-0.625
-0.64
-0.65
-0.65
-0.66
-0.645
-0.645
-0.635
-0.645
-0.655
-0.67
-0.67
-0.66
-0.64
-0.64
-0.645
-0.65
-0.64
-0.63
-0.62
-0.615
-0.615
-0.62
-0.615
-0.6
-0.56
-0.56
-0.565
-0.58
-0.535
-0.52
-0.495
-0.495
-0.475
-0.465
-0.45
-0.43
-0.42
-0.405
-0.4
-0.395
-0.37
-0.365
-0.345
-0.33
-0.315
-0.305
-0.3
-0.28
-0.255
-0.25
-0.235
-0.22
-0.205
-0.185
-0.175
-0.16
-0.165
-0.16
-0.14
-0.13
-0.115
-0.115
-0.125
-0.135
-0.13
-0.12
-0.115
-0.125
-0.145
-0.15
-0.145
-0.135
-0.135
-0.145
-0.155
-0.175
-0.185
-0.17
-0.18
-0.19
-0.2
-0.21
-0.21
-0.225
-0.23
-0.23
-0.22
-0.245
-0.235
-0.215
-0.215
-0.215
-0.21
-0.21
-0.2
-0.19
-0.185
-0.19
-0.205
-0.21
-0.2
-0.195
-0.19
-0.195
-0.19
-0.19
-0.17
-0.145
-0.14
-0.12
-0.14
-0.14
-0.135
-0.145
-0.15
-0.15
-0.165
-0.17
-0.155
-0.15
-0.145
-0.15
-0.15
-0.15
-0.145
-0.14
-0.15
-0.16
-0.21
-0.25
-0.26
-0.275
-0.28
-0.315
-0.335
-0.375
-0.385
-0.385
-0.38
-0.385
-0.385
-0.405
-0.395
-0.395
-0.395
-0.39
-0.395
-0.4
-0.405
-0.39
-0.38
-0.385
-0.395
-0.405
-0.39
-0.385
-0.375
-0.375
-0.385
-0.395
-0.38
-0.37
-0.355
-0.35
-0.355
-0.37
-0.365
-0.35
-0.345
-0.345
-0.35
-0.36
-0.355
-0.345
-0.34
-0.34
-0.34
-0.345
-0.35
-0.33
-0.325
-0.33
-0.335
-0.34
-0.34
-0.335
-0.345
-0.36
-0.385
-0.395
-0.395
-0.34
-0.26
-0.125
0.005
0.15
0.28
0.385
0.445
0.515
0.62
0.735
0.855
0.975
1.085
1.155
1.165
1.14
1.115
1.09
1.025
0.885
0.715
0.55
0.44
0.335
0.225
0.07
-0.12
-0.32
-0.46
-0.58
-0.7
-0.83
-0.915
-0.97
-0.985
-0.975
-0.965
-0.955
-0.965
-0.955
-0.92
-0.885
-0.815
-0.78
-0.755
-0.75
-0.725
-0.695
-0.665
-0.635
-0.615
-0.61
-0.59
-0.57
-0.565
-0.555
-0.56
-0.57
-0.56
-0.545
-0.555
-0.555
-0.57
-0.59
-0.585
-0.575
-0.57
-0.595
-0.605
-0.605
-0.59
-0.595
-0.58
-0.585
-0.585
-0.59
-0.595
-0.57
-0.585
-0.595
-0.6
-0.6
-0.585
-0.57
-0.575
-0.58
-0.59
-0.58
-0.57
-0.55
-0.535
-0.535
-0.545
-0.53
-0.51
-0.495
-0.48
-0.475
-0.475
-0.475
-0.45
-0.415
-0.405
-0.385
-0.375
-0.37
-0.335
-0.31
-0.285
-0.27
-0.265
-0.255
-0.245
-0.22
-0.195
-0.19
-0.185
-0.17
-0.15
-0.13
-0.12
-0.11
-0.105
-0.11
-0.09
-0.065
-0.07
-0.065
-0.065
-0.07
-0.075
-0.065
-0.06
-0.06
-0.055
-0.08
-0.08
-0.075
-0.065
-0.07
-0.075
-0.075
-0.09
-0.08
-0.075
-0.1
-0.11
-0.1
-0.105
-0.115
-0.12
-0.12
-0.125
-0.14
-0.125
-0.12
-0.11
-0.09
-0.095
-0.11
-0.095
-0.085
-0.09
-0.085
-0.09
-0.08
-0.07
-0.05
-0.04
-0.04
-0.035
-0.06
-0.055
-0.035
-0.035
-0.05
-0.055
-0.065
-0.055
-0.04
-0.03
-0.05
-0.04
-0.035
-0.04
-0.05
-0.055
-0.095
-0.15
-0.17
-0.19
-0.205
-0.225
-0.255
-0.275
-0.3
-0.315
-0.305
-0.3
-0.305
-0.325
-0.33
-0.315
-0.305
-0.31
-0.315
-0.32
-0.335
-0.32
-0.305
-0.29
-0.29
-0.3
-0.31
-0.295
-0.295
-0.28
-0.28
-0.29
-0.29
-0.295
-0.295
-0.275
-0.28
-0.285
-0.28
-0.295
-0.28
-0.275
-0.275
-0.285
-0.28
-0.28
-0.285
-0.27
-0.27
-0.285
-0.28
-0.28
-0.275
-0.255
-0.28
-0.275
-0.28
-0.29
-0.3
-0.31
-0.33
-0.35
-0.34
-0.285
-0.175
-0.04
0.115
0.235
0.33
0.41
0.495
0.615
0.76
0.895
1.035
1.155
1.26
1.325
1.35
1.335
1.305
1.265
1.15
1.0
0.825
0.69
0.55
0.415
0.26
0.06
-0.16
-0.355
-0.505
-0.64
-0.735
-0.825
-0.885
-0.915
-0.935
-0.91
-0.905
-0.895
-0.89
-0.88
-0.845
-0.785
-0.745
-0.72
-0.7
-0.685
-0.68
-0.63
-0.59
-0.565
-0.565
-0.555
-0.545
-0.53
-0.53
-0.52
-0.52
-0.54
-0.545
-0.55
-0.535
-0.53
-0.54
-0.545
-0.565
-0.56
-0.56
-0.565
-0.57
-0.57
-0.585
-0.58
-0.585
-0.585
-0.585
-0.605
-0.615
-0.61
-0.6
-0.605
-0.605
-0.61
-0.62
-0.62
-0.6
-0.59
-0.6
-0.59
-0.6
-0.585
-0.555
-0.54
-0.535
-0.525
-0.52
-0.5
-0.46
-0.455
-0.45
-0.43
-0.43
-0.405
-0.375
-0.355
-0.34
-0.335
-0.33
-0.3
-0.285
-0.26
-0.25
-0.235
-0.235
-0.21
-0.195
-0.17
-0.17
-0.155
-0.15
-0.13
-0.115
-0.105
-0.095
-0.095
-0.09
-0.08
-0.08
-0.065
-0.06
-0.055
-0.07
-0.055
-0.065
-0.055
-0.05
-0.06
-0.07
-0.07
-0.07
-0.07
-0.09
-0.1
-0.115
-0.11
-0.105
-0.11
-0.115
-0.13
-0.145
-0.145
-0.145
-0.165
-0.155
-0.165
-0.18
-0.165
-0.14
-0.115
-0.13
-0.135
-0.135
-0.135
