Lead II
-0.285
-0.295
-0.3
-0.305
-0.32
-0.325
-0.325
-0.335
-0.35
-0.355
-0.35
-0.355
-0.35
-0.355
-0.35
-0.355
-0.365
-0.36
-0.37
-0.36
-0.355
-0.345
-0.34
-0.33
-0.33
-0.325
-0.33
-0.34
-0.35
-0.37
-0.395
-0.41
-0.4
-0.365
-0.305
-0.2
-0.065
0.095
0.275
0.445
0.61
0.73
0.76
0.68
0.5
0.255
0.005
-0.195
-0.315
-0.35
-0.31
-0.26
-0.22
-0.2
-0.2
-0.21
-0.23
-0.26
-0.28
-0.29
-0.28
-0.295
-0.29
-0.295
-0.295
-0.315
-0.315
-0.325
-0.32
-0.32
-0.315
-0.3
-0.3
-0.3
-0.29
-0.3
-0.305
-0.31
-0.315
-0.32
-0.315
-0.3
-0.3
-0.285
-0.28
-0.28
-0.275
-0.285
-0.285
-0.3
-0.29
-0.29
-0.29
-0.28
-0.275
-0.275
-0.27
-0.28
-0.28
-0.29
-0.295
-0.305
-0.295
-0.295
-0.285
-0.28
-0.28
-0.275
-0.26
-0.26
-0.26
-0.275
-0.275
-0.28
-0.285
-0.29
-0.295
-0.28
-0.29
-0.275
-0.265
-0.26
-0.265
-0.27
-0.275
-0.28
-0.285
-0.29
-0.275
-0.265
-0.26
-0.245
-0.245
-0.25
-0.23
-0.23
-0.23
-0.235
-0.23
-0.22
-0.215
-0.21
-0.205
-0.195
-0.185
-0.185
-0.19
-0.2
-0.205
-0.22
-0.22
-0.235
-0.235
-0.22
-0.23
-0.235
-0.23
-0.23
-0.235
-0.25
-0.26
-0.27
-0.27
-0.285
-0.285
-0.285
-0.28
-0.26
-0.265
-0.265
-0.265
-0.275
-0.285
-0.3
-0.295
-0.3
-0.295
-0.28
-0.285
-0.28
-0.275
-0.275
-0.28
-0.285
-0.285
-0.295
-0.305
-0.305
-0.3
-0.3
-0.295
-0.29
-0.28
-0.285
-0.29
-0.3
-0.305
-0.3
-0.3
-0.315
-0.31
-0.3
-0.29
-0.295
-0.295
-0.285
-0.29
-0.29
-0.29
-0.29
-0.28
-0.28
-0.265
-0.255
-0.25
-0.245
-0.24
-0.23
-0.23
-0.23
-0.225
-0.23
-0.21
-0.215
-0.205
-0.21
-0.23
-0.235
-0.24
-0.24
-0.245
-0.25
-0.265
-0.27
-0.28
-0.29
-0.295
-0.295
-0.285
-0.295
-0.3
-0.32
-0.33
-0.34
-0.34
-0.35
-0.34
-0.35
-0.345
-0.34
-0.325
-0.32
-0.32
-0.32
-0.32
-0.32
-0.32
-0.325
-0.325
-0.345
-0.35
-0.37
-0.38
-0.385
-0.355
-0.29
-0.21
-0.1
0.035
0.2
0.375
0.54
0.685
0.73
0.665
0.485
0.235
-0.02
-0.21
-0.33
-0.36
-0.325
-0.285
-0.24
-0.215
-0.215
-0.21
-0.225
-0.255
-0.265
-0.29
-0.3
-0.305
-0.305
-0.315
-0.32
-0.315
-0.31
-0.305
-0.295
-0.295
-0.295
-0.29
-0.31
-0.32
-0.31
-0.31
-0.32
-0.31
-0.32
-0.31
-0.29
-0.285
-0.285
-0.285
-0.295
-0.305
-0.305
-0.315
-0.315
-0.31
-0.305
-0.3
-0.29
-0.275
-0.28
-0.28
-0.28
-0.29
-0.295
-0.3
-0.295
-0.3
-0.3
-0.295
-0.29
-0.28
-0.285
-0.275
-0.275
-0.28
-0.285
-0.285
-0.295
-0.295
-0.28
-0.28
-0.275
-0.275
-0.26
-0.275
-0.275
-0.29
-0.285
-0.3
-0.295
-0.29
-0.29
-0.28
-0.275
-0.27
-0.265
-0.27
-0.275
-0.27
-0.275
-0.27
-0.265
-0.255
-0.25
-0.24
-0.225
-0.215
-0.215
-0.21
-0.22
-0.22
-0.225
-0.23
-0.225
-0.215
-0.205
-0.21
-0.2
-0.195
-0.21
-0.21
-0.225
-0.24
-0.255
-0.255
-0.265
-0.275
-0.28
-0.265
-0.26
-0.26
-0.27
-0.26
-0.29
-0.295
-0.3
-0.31
-0.305
-0.305
-0.3
-0.3
-0.285
-0.295
-0.285
-0.295
-0.29
-0.3
-0.32
-0.32
-0.32
-0.315
-0.315
-0.32
-0.305
-0.3
-0.315
-0.31
-0.325
-0.325
-0.345
-0.345
-0.35
-0.35
-0.335
-0.34
-0.34
-0.335
-0.325
-0.32
-0.325
-0.335
-0.345
-0.335
-0.34
-0.35
-0.33
-0.33
-0.32
-0.31
-0.3
-0.29
-0.285
-0.29
-0.295
-0.29
-0.295
-0.295
-0.28
-0.275
-0.26
-0.255
-0.245
-0.23
-0.23
-0.245
-0.245
-0.26
-0.28
-0.29
-0.29
-0.295
-0.29
-0.29
-0.285
-0.28
-0.285
-0.305
-0.32
-0.33
-0.36
-0.37
-0.385
-0.395
-0.39
-0.38
-0.37
-0.365
-0.365
-0.36
-0.365
-0.365
-0.37
-0.375
-0.375
-0.36
-0.37
-0.35
-0.35
-0.36
-0.37
-0.385
-0.42
-0.435
-0.425
-0.39
-0.335
-0.24
-0.11
0.045
0.225
0.405
0.58
0.7
0.73
0.635
0.45
0.215
-0.025
-0.21
-0.31
-0.335
-0.305
-0.27
-0.24
-0.23
-0.235
-0.25
-0.275
-0.3
-0.315
-0.34
-0.345
-0.345
-0.35
-0.345
-0.35
-0.355
-0.36
-0.37
-0.375
-0.38
-0.375
-0.365
-0.355
-0.34
-0.345
-0.355
-0.35
-0.355
-0.36
-0.365
-0.36
-0.35
-0.35
-0.34
-0.335
-0.325
-0.315
-0.32
-0.335
-0.35
-0.36
-0.35
-0.36
-0.355
-0.345
-0.345
-0.335
-0.325
-0.315
-0.325
-0.32
-0.335
-0.345
-0.355
-0.36
-0.355
-0.355
-0.355
-0.345
-0.335
-0.32
-0.32
-0.32
-0.32
-0.335
-0.34
-0.345
-0.335
-0.335
-0.33
-0.32
-0.32
-0.32
-0.315
-0.315
-0.32
-0.325
-0.335
-0.33
-0.33
-0.32
-0.315
-0.305
-0.3
-0.285
-0.28
-0.275
-0.275
-0.28
-0.275
-0.27
-0.28
-0.265
-0.26
-0.255
-0.24
-0.24
-0.23
-0.24
-0.245
-0.26
-0.275
-0.265
-0.27
-0.265
-0.275
-0.28
-0.285
-0.29
-0.3
-0.315
-0.32
-0.33
-0.33
-0.34
-0.335
-0.34
-0.33
-0.32
-0.315
-0.315
-0.315
-0.32
-0.335
-0.35
-0.355
-0.355
-0.355
-0.36
-0.345
-0.35
-0.345
-0.365
-0.36
-0.36
-0.38
-0.38
-0.375
-0.38
-0.38
-0.385
-0.38
-0.385
-0.38
-0.375
-0.385
-0.37
-0.38
-0.365
-0.37
-0.38
-0.38
-0.38
-0.375
-0.37
-0.375
-0.375
-0.38
-0.38
-0.4
-0.395
-0.41
-0.42
-0.41
-0.41
-0.4
-0.38
-0.37
-0.36
-0.36
-0.35
-0.35
-0.355
-0.355
-0.355
-0.365
-0.36
-0.35
-0.335
-0.325
-0.31
-0.29
-0.295
-0.295
-0.31
-0.33
-0.335
-0.35
-0.35
-0.355
-0.355
-0.355
-0.35
-0.355
-0.35
-0.35
-0.375
-0.395
-0.4
-0.415
-0.415
-0.42
-0.415
-0.405
-0.405
-0.395
-0.4
-0.415
-0.42
-0.43
-0.425
-0.435
-0.43
-0.42
-0.42
-0.4
-0.405
-0.395
-0.41
-0.445
-0.46
-0.495
-0.5
-0.465
-0.385
-0.265
-0.115
0.085
0.285
0.5
0.685
0.77
0.745
0.595
0.35
0.07
-0.175
-0.35
-0.425
-0.42
-0.38
-0.345
-0.32
-0.325
-0.325
-0.325
-0.35
-0.37
-0.375
-0.385
-0.39
-0.395
-0.385
-0.385
-0.39
-0.405
-0.415
-0.41
-0.415
-0.425
-0.415
-0.41
-0.4
-0.385
-0.375
-0.38
-0.385
-0.385
-0.395
-0.4
-0.4
-0.395
-0.39
-0.39
-0.385
-0.375
-0.375
-0.37
-0.38
-0.385
-0.38
-0.385
-0.39
-0.385
-0.385
-0.38
-0.375
-0.37
-0.37
-0.36
-0.36
-0.365
-0.375
-0.365
-0.375
-0.38
-0.375
-0.37
-0.36
-0.355
-0.36
-0.36
-0.36
-0.375
-0.38
-0.385
-0.385
-0.385
-0.37
-0.37
-0.36
-0.355
-0.355
-0.345
-0.36
-0.355
-0.365
-0.365
-0.37
-0.365
-0.35
-0.345
-0.34
-0.33
-0.315
-0.31
-0.305
-0.31
-0.305
-0.305
-0.31
-0.31
-0.305
-0.295
-0.29
-0.29
-0.29
-0.28
-0.29
-0.295
-0.31
-0.325
-0.335
-0.34
-0.335
-0.345
-0.335
-0.335
-0.34
-0.335
-0.345
-0.355
-0.36
-0.365
-0.375
-0.38
-0.385
-0.375
-0.375
-0.36
-0.355
-0.36
-0.36
-0.385
-0.385
-0.395
-0.4
-0.39
-0.39
-0.385
-0.375
-0.375
-0.375
-0.37
-0.39
-0.39
-0.395
-0.405
-0.405
-0.415
-0.4
-0.395
-0.39
-0.385
-0.39
-0.385
-0.39
-0.4
-0.415
-0.405
-0.415
-0.415
-0.415
-0.405
-0.415
-0.405
-0.4
-0.395
-0.4
-0.405
-0.42
-0.415
-0.42
-0.42
-0.41
-0.4
-0.39
-0.37
-0.37
-0.355
-0.355
-0.355
-0.355
-0.36
-0.355
-0.365
-0.35
-0.345
-0.315
-0.305
-0.29
-0.295
-0.3
-0.32
-0.33
-0.36
-0.365
-0.37
-0.365
-0.36
-0.355
-0.35
-0.36
-0.35
-0.37
-0.375
-0.39
-0.405
-0.42
-0.43
-0.43
-0.435
-0.43
-0.42
-0.42
-0.41
-0.42
-0.425
-0.435
-0.45
-0.45
-0.445
-0.435
-0.43
-0.42
-0.415
-0.415
-0.42
-0.425
-0.445
-0.475
-0.5
-0.505
-0.465
-0.395
-0.285
-0.145
0.02
0.205
0.39
0.555
0.66
0.66
0.54
0.325
0.065
-0.17
-0.345
-0.44
-0.445
-0.415
-0.35
-0.32
-0.305
-0.31
-0.315
-0.34
-0.355
-0.365
-0.38
-0.385
-0.375
-0.38
-0.375
-0.375
-0.385
-0.4
-0.4
-0.405
-0.405
-0.41
-0.4
-0.395
-0.395
-0.385
-0.375
-0.39
-0.4
-0.405
-0.415
-0.415
-0.41
-0.405
-0.395
-0.39
-0.385
-0.38
-0.375
-0.38
-0.38
-0.38
-0.385
-0.395
-0.38
-0.39
-0.38
-0.365
-0.37
-0.37
-0.36
-0.36
-0.365
-0.375
-0.385
-0.385
-0.38
-0.365
-0.365
-0.36
-0.35
-0.345
-0.35
-0.355
-0.36
-0.365
-0.37
-0.385
-0.38
-0.375
-0.37
-0.37
-0.365
-0.355
-0.35
-0.36
-0.365
-0.375
-0.37
-0.375
-0.385
-0.375
-0.37
-0.355
-0.35
-0.33
-0.335
-0.325
-0.33
-0.325
-0.325
-0.325
-0.325
-0.315
-0.29
-0.29
-0.275
-0.275
-0.27
-0.275
-0.285
-0.29
-0.3
-0.31
-0.32
-0.32
-0.325
-0.325
-0.325
-0.325
-0.32
-0.33
-0.335
-0.355
-0.365
-0.375
-0.37
-0.37
-0.365
-0.375
-0.355
-0.355
-0.35
-0.355
-0.37
-0.375
-0.385
-0.385
-0.395
-0.395
-0.385
-0.38
-0.375
-0.37
-0.38
-0.385
-0.39
-0.4
-0.4
-0.41
-0.41
-0.4
-0.405
-0.405
-0.39
-0.395
-0.385
-0.385
-0.405
-0.405
-0.41
-0.415
-0.415
-0.41
-0.405
-0.4
-0.4
-0.4
-0.395
-0.4
-0.405
-0.4
-0.4
-0.405
-0.395
-0.39
-0.375
-0.355
-0.355
-0.345
-0.34
-0.34
-0.34
-0.34
-0.335
-0.325
-0.315
-0.32
-0.32
-0.33
-0.335
-0.345
-0.35
-0.36
-0.37
-0.37
-0.38
-0.39
-0.4
-0.395
-0.4
-0.395
-0.4
-0.415
-0.425
-0.425
-0.435
-0.455
-0.45
-0.46
-0.465
-0.445
-0.445
-0.44
-0.435
-0.43
-0.43
-0.435
-0.435
-0.445
-0.445
-0.455
-0.47
-0.48
-0.5
-0.49
-0.465
-0.43
-0.34
-0.23
-0.105
0.035
0.2
0.375
0.52
0.6
0.585
0.44
0.225
-0.035
-0.26
-0.415
-0.48
-0.465
-0.415
-0.365
-0.325
-0.305
-0.315
-0.325
-0.35
-0.375
-0.38
-0.395
-0.405
-0.41
-0.42
-0.425
-0.425
-0.425
-0.425
-0.42
-0.42
-0.405
-0.405
-0.41
-0.42
-0.42
-0.425
-0.435
-0.43
-0.425
-0.415
-0.41
-0.405
-0.41
-0.4
-0.405
-0.41
-0.42
-0.415
-0.415
-0.42
-0.41
-0.4
-0.415
-0.395
-0.395
-0.4
-0.395
-0.395
-0.41
-0.41
-0.415
-0.405
-0.405
-0.4
-0.39
-0.385
-0.375
-0.38
-0.38
-0.39
-0.385
-0.39
-0.395
-0.395
-0.39
-0.39
-0.375
-0.375
-0.375
-0.37
-0.38
-0.385
-0.395
-0.4
-0.4
-0.395
-0.395
-0.385
-0.375
-0.37
-0.365
-0.355
-0.36
-0.36
-0.37
-0.375
-0.365
-0.36
-0.355
-0.335
-0.32
-0.315
-0.31
-0.3
-0.31
-0.3
-0.3
-0.31
-0.32
-0.315
-0.325
-0.315
-0.32
-0.315
-0.315
-0.315
-0.33
-0.34
-0.36
-0.36
-0.375
-0.375
-0.385
-0.375
-0.375
-0.375
-0.37
-0.38
-0.385
-0.39
-0.385
-0.4
-0.405
-0.41
-0.405
-0.4
-0.405
-0.385
-0.385
-0.385
-0.39
-0.4
-0.405
-0.415
-0.41
-0.42
-0.42
-0.41
-0.395
-0.4
-0.385
-0.395
-0.395
-0.405
-0.405
-0.415
-0.415
-0.42
-0.42
-0.41
-0.41
-0.405
-0.395
-0.4
-0.395
-0.41
-0.415
-0.42
-0.435
-0.425
-0.425
-0.435
-0.425
-0.415
-0.41
-0.4
-0.395
-0.395
-0.395
-0.385
-0.38
-0.385
-0.375
-0.365
-0.35
-0.35
-0.335
-0.315
-0.315
-0.315
-0.32
-0.325
-0.34
-0.36
-0.365
-0.37
-0.365
-0.37
-0.365
-0.355
-0.37
-0.38
-0.385
-0.4
-0.405
-0.425
-0.43
-0.445
-0.435
-0.435
-0.435
-0.44
-0.43
-0.44
-0.435
-0.45
-0.45
-0.46
-0.455
-0.45
-0.44
-0.44
-0.43
-0.44
-0.435
-0.445
-0.46
-0.48
-0.505
-0.52
-0.5
-0.455
-0.365
-0.255
-0.115
0.055
0.245
0.415
0.55
0.61
0.55
0.365
0.125
-0.115
-0.325
-0.44
-0.465
-0.43
-0.38
-0.34
-0.32
-0.315
-0.33
-0.355
-0.385
-0.395
-0.405
-0.39
-0.39
-0.39
-0.395
-0.405
-0.41
-0.425
-0.43
-0.43
-0.42
-0.425
-0.41
-0.405
-0.41
-0.41
-0.395
-0.4
-0.415
-0.42
-0.415
-0.425
-0.425
-0.41
-0.41
-0.4
-0.405
-0.4
-0.4
-0.4
-0.405
-0.415
-0.435
-0.435
-0.435
-0.435
-0.435
-0.425
-0.415
-0.405
-0.405
-0.41
-0.405
-0.4
-0.405
-0.405
-0.4
-0.395
-0.395
-0.39
-0.395
-0.39
-0.395
-0.395
-0.4
-0.41
-0.405
-0.415
-0.405
-0.405
-0.4
-0.4
-0.395
-0.39
-0.395
-0.395
-0.395
-0.4
-0.395
-0.395
-0.39
-0.385
-0.38
-0.375
-0.36
-0.355
-0.35
-0.34
-0.345
-0.345
-0.345
-0.335
-0.335
-0.32
-0.31
-0.31
-0.305
-0.305
-0.315
-0.33
-0.335
-0.34
-0.345
-0.35
-0.35
-0.35
-0.345
-0.35
-0.36
-0.355
-0.37
-0.365
-0.395
-0.395
-0.395
-0.405
-0.405
-0.4
-0.41
-0.4
-0.4
-0.41
-0.405
-0.41
-0.415
-0.415
-0.415
-0.42
-0.415
-0.415
-0.415
-0.42
-0.415
-0.41
-0.415
-0.42
-0.415
-0.435
-0.44
-0.44
-0.45
-0.445
-0.445
-0.43
-0.43
-0.425
-0.43
-0.425
-0.44
-0.45
-0.46
-0.455
-0.465
-0.455
-0.445
-0.44
-0.435
-0.44
-0.44
-0.44
-0.445
-0.45
-0.455
-0.45
-0.45
-0.43
-0.425
-0.41
-0.4
-0.385
-0.38
-0.38
-0.385
-0.39
-0.395
-0.395
-0.39
-0.37
-0.355
-0.33
-0.335
-0.33
-0.35
-0.355
-0.38
-0.4
-0.405
-0.405
-0.405
-0.41
-0.395
-0.395
-0.4
-0.41
-0.41
-0.44
-0.46
-0.47
-0.485
-0.48
-0.475
-0.475
-0.46
-0.46
-0.46
-0.45
-0.445
-0.455
-0.46
-0.465
-0.475
-0.465
-0.465
-0.47
-0.47
-0.465
-0.465
-0.49
-0.505
-0.52
-0.515
-0.49
-0.41
-0.3
-0.16
0.02
0.225
0.435
0.615
0.73
0.705
0.555
0.32
0.05
-0.195
-0.37
-0.45
-0.455
-0.425
-0.38
-0.345
-0.335
-0.335
-0.345
-0.37
-0.405
-0.425
-0.445
-0.45
-0.445
-0.425
-0.41
-0.41
-0.42
-0.425
-0.435
-0.445
-0.45
-0.45
-0.45
-0.44
-0.44
-0.44
-0.435
-0.44
-0.435
-0.43
-0.435
-0.425
-0.435
-0.435
-0.44
-0.44
-0.44
-0.44
-0.435
-0.435
-0.425
-0.43
-0.43
-0.43
-0.43
-0.445
-0.44
-0.425
-0.425
-0.41
-0.4
-0.4
-0.395
-0.405
-0.415
-0.41
-0.425
-0.43
-0.425
-0.425
-0.43
-0.395
-0.39
-0.38
-0.385
-0.39
-0.395
-0.4
-0.42
-0.425
-0.425
-0.415
-0.41
-0.41
-0.4
-0.385
-0.39
-0.39
-0.38
-0.39
-0.38
-0.385
-0.39
-0.39
-0.38
-0.375
-0.365
-0.34
-0.33
-0.32
-0.315
-0.31
-0.32
-0.32
-0.32
-0.32
-0.31
-0.31
-0.3
-0.3
-0.295
-0.305
-0.305
-0.32
-0.335
-0.34
-0.355
-0.36
-0.355
-0.355
-0.355
-0.355
-0.36
-0.37
-0.365
-0.375
-0.385
-0.39
-0.4
-0.4
-0.39
-0.39
-0.38
-0.38
-0.38
-0.385
-0.4
-0.41
-0.415
-0.425
-0.425
-0.405
-0.4
-0.405
-0.395
-0.395
-0.395
-0.385
-0.395
-0.41
-0.41
-0.42
-0.43
-0.435
-0.425
-0.42
-0.415
-0.415
-0.415
-0.415
-0.43
-0.43
-0.435
-0.435
-0.435
-0.435
-0.43
-0.43
-0.42
-0.415
-0.41
-0.41
-0.42
-0.425
-0.435
-0.43
-0.43
-0.42
-0.41
-0.41
-0.38
-0.375
-0.365
-0.375
-0.37
-0.37
-0.375
-0.39
-0.385
-0.36
-0.34
-0.34
-0.325
-0.32
-0.34
-0.335
-0.35
-0.365
-0.375
-0.385
-0.385
-0.39
-0.39
-0.39
-0.39
-0.38
-0.39
-0.395
-0.415
-0.43
-0.445
-0.465
-0.465
-0.46
-0.455
-0.45
-0.43
-0.435
-0.43
-0.44
-0.435
-0.445
-0.45
-0.45
-0.455
-0.45
-0.445
-0.44
-0.43
-0.435
-0.45
-0.475
-0.495
-0.525
-0.52
-0.485
-0.41
-0.305
-0.17
0.005
0.2
0.4
0.59
0.705
0.715
0.61
0.4
0.14
-0.115
-0.31
-0.42
-0.46
-0.43
-0.38
-0.33
-0.31
-0.32
-0.34
-0.335
-0.37
-0.385
-0.395
-0.4
-0.395
-0.405
-0.405
-0.405
-0.4
-0.405
-0.4
-0.415
-0.415
-0.42
-0.415
-0.415
-0.415
-0.395
-0.395
-0.39
-0.39
-0.39
-0.4
-0.4
-0.405
-0.4
-0.405
-0.41
-0.4
-0.395
-0.375
-0.375
-0.385
-0.38
-0.39
-0.38
-0.385
-0.38
-0.4
-0.39
-0.385
-0.375
-0.375
-0.36
-0.355
-0.365
-0.37
-0.375
-0.38
-0.37
-0.375
-0.37
-0.365
-0.36
-0.355
-0.345
-0.35
-0.345
-0.36
-0.375
-0.375
-0.38
-0.375
-0.38
-0.365
-0.37
-0.365
-0.365
-0.36
-0.365
-0.375
-0.375
-0.38
-0.375
-0.38
-0.38
-0.37
-0.355
-0.35
-0.345
-0.34
-0.335
-0.34
-0.345
-0.34
-0.335
-0.325
-0.31
-0.305
-0.295
-0.275
-0.265
-0.27
-0.265
-0.275
-0.285
-0.29
-0.3
-0.3
-0.3
-0.295
-0.3
-0.295
-0.3
-0.305
-0.305
-0.325
-0.33
-0.34
-0.35
-0.35
-0.34
-0.345
-0.34
-0.345
-0.345
-0.34
-0.35
-0.355
-0.365
-0.37
-0.365
-0.375
-0.365
-0.365
-0.365
-0.37
-0.365
-0.365
-0.365
-0.36
-0.37
-0.385
-0.385
-0.38
-0.385
-0.375
-0.37
-0.37
-0.37
-0.37
-0.385
-0.39
-0.39
-0.4
-0.405
-0.4
-0.39
-0.395
-0.375
-0.37
-0.38
-0.375
-0.39
-0.39
-0.4
-0.4
-0.405
-0.4
-0.4
-0.385
-0.375
-0.36
-0.36
-0.35
-0.35
-0.345
-0.35
-0.345
-0.35
-0.34
-0.33
-0.325
-0.305
-0.29
-0.28
-0.285
-0.29
-0.31
-0.325
-0.345
-0.36
-0.37
-0.36
-0.36
-0.355
-0.355
-0.355
-0.355
-0.37
-0.37
-0.39
-0.395
-0.41
-0.43
-0.425
-0.43
-0.42
-0.415
-0.415
-0.405
-0.4
-0.42
-0.415
-0.43
-0.43
-0.43
-0.425
-0.425
-0.415
-0.42
-0.43
-0.455
-0.47
-0.48
-0.46
-0.395
-0.31
-0.185
-0.015
0.17
0.36
0.54
0.67
0.7
0.61
0.395
0.145
-0.11
-0.31
-0.425
-0.44
-0.4
-0.34
-0.295
-0.27
-0.265
-0.285
-0.315
-0.36
-0.37
-0.39
-0.4
-0.39
-0.39
-0.385
-0.39
-0.39
-0.38
-0.39
-0.395
-0.4
-0.415
-0.41
-0.42
-0.41
-0.4
-0.4
-0.395
-0.385
-0.38
-0.39
-0.39
-0.4
-0.4
-0.4
-0.41
-0.41
-0.39
-0.375
-0.375
-0.375
-0.37
-0.37
-0.38
-0.38
-0.39
-0.4
-0.385
-0.385
-0.375
-0.37
-0.355
-0.35
-0.355
-0.355
-0.36
-0.365
-0.37
-0.37
-0.37
-0.36
-0.36
-0.345
-0.34
-0.34
-0.335
-0.345
-0.345
-0.35
-0.35
-0.355
-0.365
-0.355
-0.35
-0.35
-0.345
-0.335
-0.345
-0.34
-0.34
-0.355
-0.35
-0.35
-0.35
-0.335
-0.33
-0.315
-0.3
-0.295
-0.29
-0.295
-0.29
-0.29
-0.29
-0.305
-0.295
-0.285
-0.28
-0.275
-0.28
-0.28
-0.275
-0.29
-0.295
-0.305
-0.315
-0.315
-0.325
-0.32
-0.315
-0.315
-0.315
-0.33
-0.33
-0.34
-0.355
-0.355
-0.365
-0.38
-0.37
-0.37
-0.37
-0.36
-0.365
-0.375
-0.365
-0.375
-0.375
-0.385
-0.39
-0.395
-0.395
-0.385
-0.38
-0.375
-0.37
-0.375
-0.385
-0.38
-0.39
-0.395
-0.41
-0.405
-0.4
-0.395
-0.395
-0.385
-0.38
-0.38
-0.38
-0.385
-0.39
-0.395
-0.39
-0.4
-0.4
-0.4
-0.4
-0.39
-0.375
-0.38
-0.375
-0.39
-0.395
-0.395
-0.4
-0.395
-0.395
-0.375
-0.37
-0.35
-0.345
-0.34
-0.33
-0.34
-0.34
-0.335
-0.345
-0.345
-0.335
-0.32
-0.3
-0.285
-0.275
-0.275
-0.295
-0.295
-0.32
-0.34
-0.35
-0.36
-0.36
-0.36
-0.345
-0.355
-0.35
-0.36
-0.365
-0.375
-0.385
-0.41
-0.415
-0.425
-0.43
-0.43
-0.42
-0.42
-0.41
-0.405
-0.405
-0.405
-0.415
-0.425
-0.43
-0.43
-0.44
-0.425
-0.42
-0.415
-0.41
-0.415
-0.42
-0.45
-0.465
-0.475
-0.435
-0.38
-0.28
-0.155
0.01
0.2
0.375
0.55
0.665
0.665
0.53
0.325
0.065
-0.19
-0.36
-0.435
-0.43
-0.375
-0.32
-0.29
-0.265
-0.27
-0.295
-0.325
-0.355
-0.38
-0.39
-0.395
-0.385
-0.375
-0.375
-0.375
-0.37
-0.365
-0.38
-0.38
-0.39
-0.395
-0.39
-0.385
-0.385
-0.375
-0.37
-0.375
-0.37
-0.38
-0.385
-0.395
-0.385
-0.395
-0.395
-0.395
-0.38
-0.375
-0.37
-0.365
-0.365
-0.37
-0.37
-0.375
-0.385
-0.38
-0.375
-0.375
-0.37
-0.36
-0.36
-0.355
-0.335
-0.35
-0.365
-0.36
-0.36
-0.365
-0.37
-0.36
-0.35
-0.355
-0.345
-0.35
-0.345
-0.345
-0.345
-0.355
-0.355
-0.37
-0.36
-0.36
-0.35
-0.345
-0.335
-0.335
-0.33
-0.32
-0.33
-0.33
-0.33
-0.325
-0.325
-0.325
-0.305
-0.29
-0.28
-0.265
-0.27
-0.265
-0.265
-0.265
-0.27
-0.27
-0.275
-0.29
-0.28
-0.28
-0.29
-0.275
-0.28
-0.285
-0.3
-0.31
-0.32
-0.325
-0.335
-0.33
-0.33
-0.325
-0.32
-0.325
-0.325
-0.325
-0.335
-0.335
-0.35
-0.35
-0.36
-0.355
-0.355
-0.35
-0.35
-0.345
-0.35
-0.36
-0.37
-0.37
-0.375
-0.385
-0.375
-0.365
-0.375
-0.355
-0.355
-0.36
-0.355
-0.36
-0.375
-0.38
-0.39
-0.39
-0.395
-0.4
-0.375
-0.385
-0.37
-0.375
-0.37
-0.365
-0.365
-0.385
-0.385
-0.39
-0.39
-0.38
-0.375
-0.365
-0.35
-0.335
-0.325
-0.335
-0.335
-0.335
-0.34
-0.34
-0.335
-0.335
-0.325
-0.315
-0.305
-0.29
-0.28
-0.27
-0.27
-0.265
-0.27
-0.285
-0.295
-0.305
-0.305
-0.31
-0.315
-0.31
-0.32
-0.32
-0.325
-0.34
-0.35
-0.35
-0.36
-0.36
-0.375
-0.38
-0.37
-0.39
-0.38
-0.385
-0.395
-0.395
-0.4
-0.41
-0.405
-0.395
-0.385
-0.375
-0.365
-0.375
-0.355
-0.37
-0.38
-0.395
-0.41
-0.44
-0.45
-0.44
-0.405
-0.335
-0.23
-0.08
0.09
0.285
0.475
0.64
0.73
0.69
0.54
0.305
0.065
-0.16
-0.3
-0.365
-0.36
-0.315
-0.28
-0.27
-0.275
-0.285
-0.29
-0.3
-0.31
-0.32
-0.34
-0.35
-0.36
-0.37
-0.365
-0.365
-0.365
-0.36
-0.365
-0.36
-0.365
-0.35
-0.35
-0.345
-0.35
-0.345
-0.345
-0.365
-0.365
-0.36
-0.37
-0.36
-0.36
-0.355
-0.34
-0.335
-0.345
-0.345
-0.36
-0.37
-0.365
-0.36
-0.36
-0.35
-0.345
-0.33
-0.335
-0.335
-0.33
-0.335
-0.34
-0.345
-0.355
-0.355
-0.355
-0.34
-0.34
-0.335
-0.32
-0.33
-0.32
-0.32
-0.33
-0.34
-0.345
-0.355
-0.355
-0.345
-0.34
-0.33
-0.315
-0.315
-0.325
-0.31
-0.315
-0.325
-0.33
-0.325
-0.335
-0.32
-0.31
-0.3
-0.29
-0.28
-0.27
-0.27
-0.27
-0.27
-0.28
-0.27
-0.27
-0.26
-0.245
-0.245
-0.235
-0.23
-0.23
-0.245
-0.265
-0.275
-0.29
-0.315
-0.32
-0.31
-0.315
-0.305
-0.305
-0.3
-0.305
-0.315
-0.33
-0.34
-0.35
-0.355
-0.345
-0.34
-0.345
-0.335
-0.335
-0.34
-0.345
-0.345
-0.365
-0.375
-0.375
-0.37
-0.37
-0.37
-0.35
-0.355
-0.35
-0.345
-0.35
-0.355
-0.355
-0.37
-0.38
-0.38
-0.39
-0.395
-0.375
-0.37
-0.365
-0.365
-0.365
-0.365
-0.37
-0.375
-0.38
-0.39
-0.39
-0.38
-0.375
-0.375
-0.37
-0.37
-0.36
-0.36
-0.37
-0.375
-0.375
-0.365
-0.355
-0.34
-0.345
-0.33
-0.335
-0.32
-0.31
-0.315
-0.305
-0.3
-0.3
-0.3
-0.295
-0.29
-0.305
-0.31
-0.315
-0.315
-0.315
-0.325
-0.335
-0.35
-0.34
-0.355
-0.35
-0.35
-0.35
-0.35
-0.355
-0.36
-0.365
-0.38
-0.39
-0.4
-0.41
-0.415
-0.415
-0.41
-0.4
-0.39
-0.385
-0.38
-0.39
-0.39
-0.395
-0.395
-0.405
-0.405
-0.395
-0.39
-0.39
-0.415
-0.43
-0.44
-0.415
-0.37
-0.275
-0.15
-0.005
0.185
0.4
0.6
0.77
0.83
0.78
0.6
0.345
0.065
-0.165
-0.32
-0.395
-0.4
-0.365
-0.33
-0.3
-0.285
-0.28
-0.28
-0.285
-0.3
-0.315
-0.34
-0.35
-0.365
-0.38
-0.375
-0.37
-0.365
-0.355
-0.355
-0.355
-0.36
-0.355
-0.36
-0.365
-0.375
-0.37
-0.375
-0.365
-0.36
-0.35
-0.35
-0.345
-0.35
-0.35
-0.36
-0.37
-0.365
-0.37
-0.36
-0.35
-0.345
-0.345
-0.35
-0.34
-0.345
-0.34
-0.345
-0.355
-0.36
-0.36
-0.35
-0.34
-0.335
-0.325
-0.32
-0.32
-0.33
-0.33
-0.335
-0.35
-0.35
-0.34
-0.35
-0.35
-0.33
-0.33
-0.315
-0.32
-0.315
-0.325
-0.33
-0.335
-0.345
-0.34
-0.34
-0.335
-0.335
-0.33
-0.325
-0.32
-0.325
-0.325
-0.32
-0.325
-0.325
-0.33
-0.32
-0.31
-0.295
-0.28
-0.275
-0.255
-0.27
-0.265
-0.26
-0.265
-0.26
-0.265
-0.26
-0.25
-0.26
-0.245
-0.26
-0.25
-0.265
-0.275
-0.28
-0.295
-0.305
-0.31
-0.31
-0.31
-0.31
-0.32
-0.31
-0.31
-0.32
-0.33
-0.33
-0.34
-0.34
-0.345
-0.345
-0.34
-0.345
-0.335
-0.335
-0.33
-0.325
-0.345
-0.34
-0.345
-0.34
-0.35
-0.35
-0.36
-0.355
-0.34
-0.335
-0.325
-0.305
-0.295
-0.255
-0.215
-0.175
-0.125
-0.07
-0.02
-0.01
-0.055
-0.2
-0.4
-0.655
-0.925
-1.155
-1.345
-1.495
-1.615
-1.695
-1.73
-1.71
-1.65
-1.57
-1.48
-1.375
-1.27
-1.19
-1.115
-1.045
-0.975
-0.915
-0.87
-0.83
-0.775
-0.725
-0.695
-0.655
-0.645
-0.66
-0.685
-0.705
-0.715
-0.7
-0.67
-0.63
-0.585
-0.54
-0.495
-0.425
-0.34
-0.25
-0.16
-0.095
-0.07
-0.065
-0.075
-0.085
-0.075
-0.07
-0.05
-0.04
-0.03
-0.02
-0.01
-0.005
0.0
0.015
0.025
0.035
0.05
0.075
0.095
0.11
0.115
0.115
0.125
0.145
0.15
0.17
0.185
0.21
0.24
0.26
0.265
0.285
0.295
0.315
0.325
0.335
0.345
0.36
0.385
0.405
0.42
0.435
0.45
0.46
0.47
0.46
0.45
0.455
0.445
0.435
0.435
0.425
0.435
0.425
0.405
0.39
0.365
0.34
0.325
0.29
0.28
0.26
0.235
0.21
0.205
0.185
0.17
0.145
0.115
0.1
0.07
0.045
0.03
0.01
0.0
0.0
-0.015
-0.025
-0.045
-0.055
-0.07
-0.095
-0.11
-0.12
-0.14
-0.145
-0.14
-0.15
-0.16
-0.17
-0.185
-0.185
-0.2
-0.21
-0.23
-0.24
-0.245
-0.26
-0.255
-0.27
-0.275
-0.275
-0.265
-0.28
-0.295
-0.3
-0.305
-0.315
-0.33
-0.32
-0.32
-0.32
-0.31
-0.31
-0.31
-0.31
-0.315
-0.325
-0.335
-0.34
-0.34
-0.34
-0.34
-0.34
-0.34
-0.325
-0.335
-0.33
-0.335
-0.35
-0.35
-0.365
-0.355
-0.355
-0.355
-0.335
-0.335
-0.33
-0.335
-0.335
-0.345
-0.35
-0.355
-0.355
-0.365
-0.36
-0.355
-0.355
-0.35
-0.34
-0.335
-0.335
-0.345
-0.35
-0.36
-0.36
-0.365
-0.365
-0.355
-0.36
-0.35
-0.35
-0.345
-0.35
-0.35
-0.355
-0.36
-0.365
-0.36
-0.355
-0.35
-0.35
-0.35
-0.34
-0.34
-0.33
-0.35
-0.345
-0.36
-0.355
-0.365
-0.36
-0.36
-0.355
-0.345
-0.355
-0.35
-0.35
-0.35
-0.36
-0.365
-0.37
-0.37
-0.365
-0.36
-0.345
-0.345
-0.335
-0.335
-0.335
-0.34
-0.35
-0.35
-0.355
-0.365
-0.35
-0.34
-0.33
-0.3
-0.295
-0.295
-0.295
-0.29
-0.29
-0.295
-0.3
-0.295
-0.285
-0.27
-0.25
-0.24
-0.245
-0.26
-0.26
-0.28
-0.3
-0.305
-0.315
-0.32
-0.315
-0.32
-0.32
-0.305
-0.3
-0.31
-0.31
-0.325
-0.345
-0.365
-0.37
-0.38
-0.375
-0.375
-0.36
-0.355
-0.36
-0.35
-0.355
-0.355
-0.36
-0.365
-0.375
-0.37
-0.365
-0.37
-0.37
-0.355
-0.37
-0.385
-0.39
-0.385
-0.33
-0.245
-0.13
0.01
0.19
0.375
0.55
0.69
0.74
0.68
0.495
0.255
0.01
-0.195
-0.305
-0.34
-0.305
-0.26
-0.22
-0.19
-0.195
-0.215
-0.25
-0.28
-0.31
-0.32
-0.34
-0.335
-0.335
-0.33
-0.325
-0.325
-0.325
-0.33
-0.34
-0.33
-0.34
-0.335
-0.345
-0.34
-0.335
-0.325
-0.325
-0.325
-0.32
-0.32
-0.315
-0.32
-0.325
-0.33
-0.33
-0.345
-0.34
-0.33
-0.33
-0.32
-0.315
-0.32
-0.33
-0.315
-0.32
-0.315
-0.33
-0.335
-0.335
-0.315
-0.32
-0.305
-0.305
-0.305
-0.295
-0.305
-0.31
-0.32
-0.315
-0.32
-0.325
-0.31
-0.3
-0.3
-0.29
-0.295
-0.285
-0.29
-0.295
-0.3
-0.31
-0.305
-0.31
-0.31
-0.305
-0.29
-0.28
-0.28
-0.275
-0.285
-0.285
-0.285
-0.295
-0.295
-0.28
-0.27
-0.27
-0.255
-0.25
-0.255
-0.24
-0.235
-0.245
-0.235
-0.23
-0.22
-0.215
-0.21
-0.19
-0.18
-0.17
-0.17
-0.175
-0.17
-0.18
-0.185
-0.195
-0.2
-0.205
-0.205
-0.195
-0.205
-0.2
-0.205
-0.22
-0.235
-0.255
-0.27
-0.28
-0.285
-0.285
-0.285
-0.285
-0.28
-0.275
-0.275
-0.28
-0.285
-0.29
-0.305
-0.31
-0.31
-0.31
-0.315
-0.305
-0.3
-0.295
-0.295
-0.3
-0.305
-0.305
-0.325
-0.335
-0.32
-0.325
-0.325
-0.315
-0.315
-0.31
-0.305
-0.305
-0.33
-0.33
-0.34
-0.345
-0.335
-0.335
-0.335
-0.335
-0.325
-0.325
-0.33
-0.325
-0.325
-0.335
-0.335
-0.34
-0.335
-0.33
-0.32
-0.305
-0.29
-0.29
-0.275
-0.275
-0.28
-0.29
-0.285
-0.295
-0.29
-0.285
-0.265
-0.255
-0.25
-0.24
-0.245
-0.265
-0.275
-0.3
-0.31
-0.325
-0.315
-0.325
-0.31
-0.315
-0.31
-0.305
-0.32
-0.32
-0.33
-0.345
-0.375
-0.375
-0.39
-0.385
-0.38
-0.375
-0.36
-0.355
-0.355
-0.36
-0.36
-0.365
-0.37
-0.365
-0.37
-0.37
-0.365
-0.36
-0.36
-0.365
-0.385
-0.405
-0.405
-0.4
-0.355
-0.28
-0.175
-0.04
0.125
0.325
0.5
0.65
0.7
0.635
0.47
0.215
-0.035
-0.255
-0.355
-0.39
-0.35
