Lead II
-0.16
-0.155
-0.14
-0.135
-0.135
-0.14
-0.135
-0.125
-0.11
-0.11
-0.115
-0.115
-0.11
-0.095
-0.06
-0.04
-0.055
-0.075
-0.085
-0.08
-0.075
-0.08
-0.08
-0.1
-0.125
-0.115
-0.11
-0.115
-0.125
-0.14
-0.14
-0.115
-0.085
-0.08
-0.075
-0.09
-0.1
-0.095
-0.1
-0.105
-0.115
-0.115
-0.11
-0.105
-0.09
-0.075
-0.07
-0.06
-0.055
-0.04
-0.03
-0.03
-0.03
-0.03
-0.04
-0.045
-0.055
-0.08
-0.1
-0.115
-0.105
-0.09
-0.065
-0.055
-0.055
-0.065
-0.06
-0.06
-0.055
-0.05
-0.06
-0.06
-0.06
-0.05
-0.05
-0.035
-0.035
-0.035
-0.03
-0.04
-0.035
-0.03
-0.025
-0.045
-0.05
-0.065
-0.055
-0.075
-0.085
-0.09
-0.06
-0.005
0.06
0.12
0.185
0.25
0.32
0.4
0.475
0.545
0.635
0.73
0.82
0.915
1.0
1.08
1.135
1.155
1.145
1.095
1.025
0.91
0.715
0.415
0.155
-0.025
-0.125
-0.215
-0.285
-0.34
-0.35
-0.325
-0.295
-0.245
-0.23
-0.225
-0.215
-0.2
-0.18
-0.16
-0.165
-0.155
-0.16
-0.145
-0.17
-0.17
-0.185
-0.195
-0.175
-0.16
-0.135
-0.135
-0.13
-0.14
-0.13
-0.105
-0.08
-0.075
-0.09
-0.09
-0.075
-0.065
-0.075
-0.095
-0.105
-0.11
-0.125
-0.1
-0.08
-0.085
-0.085
-0.08
-0.08
-0.055
-0.03
-0.035
-0.05
-0.07
-0.075
-0.075
-0.06
-0.075
-0.06
-0.065
-0.07
-0.055
-0.055
-0.045
-0.045
-0.035
-0.03
-0.005
0.005
0.005
0.005
0.01
0.02
0.03
0.04
0.045
0.045
0.05
0.045
0.055
0.07
0.095
0.1
0.08
0.075
0.075
0.095
0.105
0.11
0.105
0.105
0.115
0.13
0.135
0.135
0.125
0.14
0.145
0.175
0.18
0.185
0.16
0.16
0.18
0.19
0.18
0.17
0.165
0.18
0.19
0.185
0.16
0.145
0.135
0.115
0.145
0.14
0.13
0.135
0.105
0.08
0.085
0.115
0.115
0.105
0.095
0.1
0.105
0.085
0.065
0.035
0.03
0.025
0.015
0.015
0.03
0.02
0.015
-0.005
0.01
0.015
0.005
-0.01
-0.025
-0.03
-0.025
-0.02
-0.02
-0.005
-0.015
-0.025
-0.03
-0.04
-0.045
-0.04
-0.035
-0.055
-0.07
-0.07
-0.065
-0.075
-0.105
-0.11
-0.12
-0.11
-0.12
-0.09
-0.08
-0.08
-0.095
-0.12
-0.125
-0.13
-0.135
-0.155
-0.145
-0.15
-0.125
-0.115
-0.13
-0.15
-0.145
-0.12
-0.11
-0.11
-0.13
-0.14
-0.145
-0.135
-0.1
-0.075
-0.06
-0.075
-0.07
-0.095
-0.1
-0.11
-0.12
-0.135
-0.14
-0.135
-0.135
-0.135
-0.135
-0.145
-0.145
-0.145
-0.15
-0.165
-0.165
-0.14
-0.115
-0.1
-0.09
-0.12
-0.145
-0.145
-0.125
-0.11
-0.115
-0.115
-0.11
-0.11
-0.115
-0.12
-0.12
-0.115
-0.11
-0.115
-0.13
-0.145
-0.15
-0.145
-0.125
-0.135
-0.145
-0.145
-0.13
-0.11
-0.125
-0.125
-0.15
-0.17
-0.155
-0.14
-0.14
-0.135
-0.13
-0.13
-0.125
-0.15
-0.18
-0.2
-0.15
-0.045
0.05
0.14
0.215
0.27
0.345
0.39
0.445
0.53
0.625
0.735
0.845
0.915
0.94
0.92
0.845
0.74
0.6
0.37
0.04
-0.24
-0.435
-0.51
-0.54
-0.53
-0.52
-0.505
-0.5
-0.46
-0.4
-0.345
-0.29
-0.275
-0.285
-0.315
-0.315
-0.29
-0.285
-0.275
-0.275
-0.28
-0.27
-0.275
-0.265
-0.25
-0.245
-0.255
-0.25
-0.23
-0.22
-0.215
-0.22
-0.225
-0.21
-0.195
-0.18
-0.18
-0.195
-0.22
-0.245
-0.245
-0.23
-0.2
-0.19
-0.185
-0.195
-0.2
-0.2
-0.205
-0.205
-0.22
-0.2
-0.19
-0.165
-0.155
-0.16
-0.165
-0.165
-0.16
-0.145
-0.14
-0.14
-0.15
-0.14
-0.1
-0.08
-0.095
-0.145
-0.175
-0.125
-0.09
-0.085
-0.1
-0.1
-0.095
-0.085
-0.07
-0.05
-0.035
-0.035
-0.055
-0.05
-0.055
-0.03
-0.03
-0.03
-0.025
-0.01
-0.005
0.005
0.02
0.03
0.02
-0.015
-0.025
-0.02
-0.02
-0.01
-0.02
-0.025
-0.015
-0.015
-0.025
-0.035
-0.065
-0.06
-0.045
-0.055
-0.075
-0.09
-0.095
-0.09
-0.085
-0.08
-0.085
-0.085
-0.075
-0.06
-0.065
-0.07
-0.08
-0.105
-0.11
-0.11
-0.11
-0.095
-0.1
-0.1
-0.11
-0.115
-0.105
-0.1
-0.11
-0.115
-0.12
-0.125
-0.115
-0.11
-0.115
-0.125
-0.12
-0.12
-0.115
-0.13
-0.15
-0.155
-0.18
-0.175
-0.145
-0.145
-0.14
-0.155
-0.16
-0.165
-0.165
-0.16
-0.175
-0.185
-0.185
-0.17
-0.175
-0.195
-0.195
-0.205
-0.19
-0.175
-0.19
-0.185
-0.19
-0.21
-0.195
-0.17
-0.15
-0.135
-0.155
-0.165
-0.16
-0.15
-0.135
-0.13
-0.125
-0.13
-0.135
-0.13
-0.13
-0.145
-0.155
-0.165
-0.17
-0.17
-0.165
-0.155
-0.155
-0.165
-0.175
-0.175
-0.165
-0.17
-0.18
-0.175
-0.195
-0.185
-0.16
-0.145
-0.165
-0.16
-0.16
-0.145
-0.13
-0.135
-0.145
-0.155
-0.16
-0.17
-0.185
-0.19
-0.195
-0.2
-0.185
-0.165
-0.165
-0.17
-0.165
-0.185
-0.18
-0.165
-0.16
-0.145
-0.14
-0.155
-0.15
-0.14
-0.13
-0.125
-0.12
-0.135
-0.15
-0.16
-0.155
-0.14
-0.095
-0.05
0.02
0.115
0.205
0.27
0.34
0.425
0.495
0.595
0.725
0.845
0.95
1.025
1.07
1.08
1.04
0.935
0.705
0.29
-0.14
-0.395
-0.49
-0.53
-0.53
-0.515
-0.455
-0.395
-0.355
-0.335
-0.315
-0.275
-0.255
-0.25
-0.26
-0.26
-0.255
-0.275
-0.275
-0.265
-0.25
-0.245
-0.215
-0.205
-0.195
-0.19
-0.175
-0.17
-0.195
-0.2
-0.205
-0.205
-0.19
-0.195
-0.195
-0.2
-0.205
-0.205
-0.205
-0.21
-0.19
-0.18
-0.195
-0.195
-0.175
-0.155
-0.16
-0.16
-0.155
-0.145
-0.125
-0.125
-0.11
-0.095
-0.09
-0.095
-0.09
-0.07
-0.065
-0.075
-0.08
-0.07
-0.045
-0.03
-0.025
-0.02
-0.02
-0.02
0.0
0.01
0.0
0.0
0.0
0.015
0.035
0.04
0.05
0.045
0.035
0.035
0.045
0.04
0.03
0.025
0.015
0.03
0.025
0.015
0.0
-0.01
-0.02
-0.03
-0.02
-0.02
-0.03
-0.055
-0.05
-0.065
-0.06
-0.075
-0.075
-0.08
-0.085
-0.095
-0.08
-0.085
-0.1
-0.115
-0.115
-0.11
-0.085
-0.07
-0.075
-0.095
-0.105
-0.11
-0.11
-0.11
-0.12
-0.13
-0.135
-0.135
-0.125
-0.12
-0.13
-0.15
-0.16
-0.145
-0.125
-0.13
-0.12
-0.12
-0.11
-0.105
-0.07
-0.055
-0.05
-0.075
-0.09
-0.085
-0.07
-0.05
-0.04
-0.045
-0.065
-0.08
-0.09
-0.08
-0.1
-0.145
-0.15
-0.145
-0.11
-0.115
-0.125
-0.135
-0.135
-0.135
-0.14
-0.14
-0.125
-0.13
-0.13
-0.14
-0.15
-0.135
-0.115
-0.105
-0.115
-0.14
-0.135
-0.145
-0.165
-0.19
-0.2
-0.195
-0.17
-0.165
-0.165
-0.18
-0.195
-0.21
-0.205
-0.195
-0.19
-0.175
-0.18
-0.18
-0.165
-0.16
-0.145
-0.17
-0.18
-0.165
-0.165
-0.19
-0.21
-0.21
-0.215
-0.155
-0.105
-0.045
0.055
0.175
0.295
0.39
0.46
0.535
0.61
0.7
0.835
0.945
1.0
0.97
0.88
0.77
0.615
0.35
0.02
-0.225
-0.37
-0.44
-0.475
-0.475
-0.455
-0.42
-0.415
-0.405
-0.395
-0.345
-0.285
-0.27
-0.28
-0.3
-0.305
-0.29
-0.285
-0.285
-0.27
-0.29
-0.285
-0.26
-0.225
-0.205
-0.195
-0.205
-0.225
-0.24
-0.245
-0.245
-0.24
-0.23
-0.24
-0.23
-0.225
-0.21
-0.215
-0.225
-0.215
-0.195
-0.195
-0.19
-0.215
-0.245
-0.24
-0.21
-0.17
-0.17
-0.175
-0.215
-0.23
-0.21
-0.195
-0.165
-0.165
-0.165
-0.16
-0.15
-0.13
-0.12
-0.115
-0.12
-0.11
-0.09
-0.075
-0.085
-0.07
-0.065
-0.055
-0.05
-0.075
-0.075
-0.07
-0.065
-0.06
-0.055
-0.035
-0.03
-0.045
-0.055
-0.04
0.0
0.02
0.015
0.0
-0.03
-0.04
-0.045
-0.05
-0.07
-0.07
-0.075
-0.08
-0.08
-0.08
-0.085
-0.08
-0.09
-0.09
-0.09
-0.075
-0.09
-0.095
-0.11
-0.12
-0.125
-0.12
-0.115
-0.13
-0.14
-0.15
-0.145
-0.14
-0.16
-0.17
-0.17
-0.165
-0.18
-0.18
-0.165
-0.155
-0.135
-0.15
-0.16
-0.15
-0.16
-0.17
-0.18
-0.185
-0.165
-0.14
-0.13
-0.14
-0.17
-0.17
-0.165
-0.16
-0.16
-0.165
-0.175
-0.185
-0.165
-0.14
-0.135
-0.135
-0.15
-0.145
-0.13
-0.105
-0.095
-0.085
-0.085
-0.12
-0.11
-0.11
-0.11
-0.125
-0.145
-0.15
-0.135
-0.13
-0.135
-0.14
-0.15
-0.135
-0.125
-0.11
-0.105
-0.11
-0.14
-0.18
-0.18
-0.15
-0.155
-0.185
-0.225
-0.23
-0.2
-0.16
-0.155
-0.205
-0.23
-0.215
-0.18
-0.15
-0.165
-0.19
-0.21
-0.185
-0.165
-0.16
-0.18
-0.21
-0.22
-0.215
-0.205
-0.195
-0.205
-0.205
-0.215
-0.23
-0.22
-0.18
-0.14
-0.095
-0.025
0.08
0.205
0.315
0.385
0.445
0.52
0.625
0.76
0.89
0.975
1.025
1.005
0.935
0.8
0.53
0.115
-0.26
-0.48
-0.575
-0.575
-0.54
-0.49
-0.435
-0.405
-0.405
-0.4
-0.355
-0.31
-0.275
-0.3
-0.33
-0.325
-0.325
-0.31
-0.31
-0.325
-0.335
-0.31
-0.265
-0.24
-0.245
-0.26
-0.275
-0.27
-0.255
-0.245
-0.25
-0.255
-0.26
-0.245
-0.225
-0.23
-0.245
-0.255
-0.245
-0.225
-0.205
-0.215
-0.22
-0.25
-0.25
-0.25
-0.21
-0.19
-0.19
-0.205
-0.21
-0.2
-0.18
-0.17
-0.17
-0.175
-0.17
-0.195
-0.18
-0.17
-0.155
-0.15
-0.125
-0.11
-0.095
-0.075
-0.065
-0.075
-0.07
-0.06
-0.045
-0.04
-0.035
-0.035
-0.035
-0.035
-0.01
-0.01
0.0
-0.005
0.005
0.0
0.01
0.0
-0.01
-0.015
-0.015
-0.02
-0.015
-0.04
-0.035
-0.025
-0.04
-0.05
-0.05
-0.075
-0.085
-0.12
-0.115
-0.1
-0.085
-0.085
-0.07
-0.06
-0.055
-0.065
-0.08
-0.1
-0.09
-0.08
-0.06
-0.06
-0.07
-0.085
-0.11
-0.135
-0.135
-0.135
-0.12
-0.115
-0.13
-0.14
-0.135
-0.12
-0.115
-0.12
-0.15
-0.17
-0.18
-0.15
-0.135
-0.145
-0.155
-0.175
-0.185
-0.17
-0.16
-0.17
-0.195
-0.21
-0.22
-0.2
-0.185
-0.165
-0.17
-0.185
-0.19
-0.18
-0.135
-0.12
-0.13
-0.15
-0.16
-0.15
-0.11
-0.115
-0.11
-0.11
-0.12
-0.125
-0.135
-0.16
-0.18
-0.195
-0.19
-0.165
-0.15
-0.165
-0.165
-0.175
-0.19
-0.185
-0.18
-0.17
-0.17
-0.175
-0.18
-0.16
-0.13
-0.12
-0.13
-0.13
-0.135
-0.13
-0.15
-0.16
-0.185
-0.195
-0.185
-0.17
-0.155
-0.155
-0.16
-0.175
-0.18
-0.165
-0.155
-0.16
-0.175
-0.185
-0.19
-0.175
-0.16
-0.15
-0.16
-0.165
-0.17
-0.18
-0.18
-0.16
-0.085
0.02
0.11
0.2
0.305
0.385
0.51
0.66
0.795
0.94
1.05
1.06
1.01
0.875
0.655
0.25
-0.14
-0.365
-0.435
-0.455
-0.435
-0.39
-0.355
-0.33
-0.32
-0.31
-0.3
-0.315
-0.275
-0.275
-0.31
-0.31
-0.3
-0.28
-0.24
-0.235
-0.245
-0.245
-0.25
-0.225
-0.22
-0.235
-0.245
-0.25
-0.25
-0.24
-0.235
-0.235
-0.245
-0.235
-0.225
-0.225
-0.22
-0.22
-0.215
-0.21
-0.205
-0.21
-0.2
-0.2
-0.19
-0.185
-0.175
-0.18
-0.175
-0.16
-0.135
-0.145
-0.145
-0.135
-0.12
-0.11
-0.095
-0.095
-0.1
-0.075
-0.06
-0.06
-0.05
-0.05
-0.055
-0.06
-0.065
-0.045
-0.01
0.025
0.03
0.03
0.025
0.01
0.0
-0.005
-0.005
-0.005
-0.005
-0.02
-0.03
-0.04
-0.055
-0.06
-0.05
-0.05
-0.04
-0.04
-0.055
-0.065
-0.065
-0.06
-0.075
-0.085
-0.1
-0.085
-0.08
-0.08
-0.075
-0.075
-0.075
-0.08
-0.09
-0.08
-0.08
-0.09
-0.09
-0.1
-0.105
-0.105
-0.105
-0.1
-0.11
-0.11
-0.115
-0.115
-0.105
-0.12
-0.14
-0.145
-0.15
-0.13
-0.13
-0.14
-0.155
-0.155
-0.16
-0.14
-0.135
-0.14
-0.155
-0.165
-0.16
-0.145
-0.15
-0.155
-0.185
-0.17
-0.15
-0.145
-0.125
-0.105
-0.1
-0.09
-0.11
-0.125
-0.115
-0.105
-0.105
-0.08
-0.09
-0.11
-0.125
-0.14
-0.13
-0.145
-0.14
-0.16
-0.165
-0.15
-0.125
-0.06
-0.005
0.055
0.125
0.155
0.185
0.22
0.265
0.29
0.28
0.165
-0.035
-0.31
-0.545
-0.695
-0.795
-0.91
-1.02
-1.13
-1.235
-1.36
-1.49
-1.61
-1.68
-1.725
-1.75
-1.82
-1.85
-1.885
-1.93
-1.965
-1.955
-1.945
-1.92
-1.905
-1.895
-1.89
-1.865
-1.81
-1.705
-1.615
-1.555
-1.5
-1.4
-1.295
-1.18
-1.1
-1.005
-0.885
-0.76
-0.65
-0.59
-0.57
-0.555
-0.54
-0.525
-0.5
-0.445
-0.385
-0.335
-0.295
-0.24
-0.175
-0.095
0.015
0.135
0.245
0.31
0.335
0.345
0.31
0.29
0.31
0.345
0.395
0.445
0.485
0.51
0.55
0.575
0.575
0.585
0.59
0.615
0.64
0.69
0.73
0.74
0.705
0.66
0.645
0.655
0.69
0.735
0.775
0.795
0.79
0.77
0.76
0.8
0.86
0.91
0.92
0.89
0.83
0.775
0.735
0.74
0.8
0.875
0.91
0.915
0.9
0.875
0.865
0.875
0.85
0.805
0.73
0.68
0.65
0.63
0.655
0.695
0.73
0.695
0.62
0.55
0.47
0.43
0.385
0.395
0.4
0.38
0.375
0.37
0.385
0.4
0.395
0.375
0.35
0.315
0.265
0.22
0.145
0.06
0.01
-0.015
0.015
0.05
0.09
0.08
0.06
0.035
0.03
0.035
0.09
0.11
0.075
0.035
-0.005
-0.02
-0.035
-0.075
-0.105
-0.105
-0.105
-0.1
-0.095
-0.05
0.0
0.03
0.0
-0.04
-0.095
-0.135
-0.165
-0.165
-0.145
-0.11
-0.06
-0.06
-0.075
-0.075
-0.085
-0.075
-0.105
-0.155
-0.175
-0.135
-0.1
-0.105
-0.18
-0.285
-0.335
-0.28
-0.155
-0.035
0.0
-0.065
-0.2
-0.305
-0.31
-0.205
-0.1
-0.04
-0.11
-0.2
-0.24
-0.24
-0.215
-0.2
-0.2
-0.19
-0.165
-0.1
-0.01
0.015
-0.085
-0.245
-0.325
-0.3
-0.205
-0.205
-0.28
-0.32
-0.3
-0.235
-0.155
-0.135
-0.165
-0.205
-0.225
-0.19
-0.1
-0.055
-0.09
-0.18
-0.23
-0.23
-0.215
-0.22
-0.24
-0.245
-0.205
-0.185
-0.205
-0.235
-0.265
-0.26
-0.23
-0.23
-0.235
-0.24
-0.255
-0.26
-0.235
-0.165
-0.1
-0.12
-0.195
-0.3
-0.36
-0.345
-0.265
-0.195
-0.18
-0.25
-0.335
-0.37
-0.375
-0.305
-0.225
-0.175
-0.215
-0.275
-0.28
-0.225
-0.195
-0.205
-0.23
-0.28
-0.335
-0.36
-0.355
-0.35
-0.325
-0.3
-0.3
-0.315
-0.335
-0.315
-0.265
-0.23
-0.175
-0.14
-0.1
-0.015
0.115
0.235
0.31
0.36
0.44
0.535
0.625
0.745
0.86
0.9
0.835
0.705
0.545
0.39
0.185
-0.115
-0.365
-0.49
-0.5
-0.5
-0.6
-0.72
-0.76
-0.735
-0.685
-0.655
-0.6
-0.535
-0.45
-0.38
-0.345
-0.315
-0.31
-0.29
-0.28
-0.235
-0.185
-0.21
-0.315
-0.435
-0.53
-0.575
-0.545
-0.43
-0.29
-0.235
-0.265
-0.355
-0.4
-0.425
-0.42
-0.395
-0.385
-0.37
-0.39
-0.385
-0.35
-0.325
-0.32
-0.34
-0.335
-0.29
-0.255
-0.275
-0.335
-0.415
-0.45
-0.39
-0.29
-0.2
-0.19
-0.24
-0.345
-0.435
-0.45
-0.42
-0.355
-0.26
-0.195
-0.175
-0.22
-0.33
-0.41
-0.445
-0.42
-0.38
-0.35
-0.35
-0.345
-0.32
-0.295
-0.25
-0.225
-0.205
-0.225
-0.275
-0.305
-0.305
-0.315
-0.355
-0.345
-0.285
-0.19
-0.165
-0.245
-0.37
-0.425
-0.38
-0.275
-0.175
-0.165
-0.27
-0.44
-0.535
-0.545
-0.425
-0.275
-0.185
-0.23
-0.315
-0.35
-0.33
-0.27
-0.22
-0.175
-0.135
-0.145
-0.19
-0.245
-0.31
-0.325
-0.315
-0.26
-0.18
-0.135
-0.085
-0.035
0.015
0.04
-0.035
-0.19
-0.35
-0.415
-0.32
-0.13
0.0
-0.005
-0.105
-0.235
-0.33
-0.385
-0.38
-0.32
-0.25
-0.2
-0.2
-0.27
-0.365
-0.435
-0.45
-0.42
-0.375
-0.345
-0.335
-0.325
-0.305
-0.27
-0.255
-0.24
-0.23
-0.23
-0.225
-0.225
-0.28
-0.35
-0.395
-0.37
-0.345
-0.305
-0.285
-0.26
-0.21
-0.1
0.02
0.085
0.01
-0.16
-0.3
-0.305
-0.2
-0.11
-0.125
-0.25
-0.37
-0.37
-0.31
-0.235
-0.23
-0.255
-0.255
-0.24
-0.23
-0.2
-0.135
-0.07
-0.02
0.0
0.005
-0.01
0.0
0.02
0.02
0.0
-0.01
-0.06
-0.12
-0.24
-0.5
-0.855
-1.25
-1.6
-1.885
-2.095
-2.175
-2.195
-2.195
-2.18
-2.17
-2.12
-2.065
-1.96
-1.845
-1.73
-1.62
-1.545
-1.475
-1.4
-1.325
-1.26
-1.205
-1.135
-1.05
-0.945
-0.81
-0.705
-0.67
-0.73
-0.755
-0.745
-0.675
-0.65
-0.65
-0.705
-0.695
-0.58
-0.445
-0.345
-0.285
-0.25
-0.21
-0.17
-0.125
-0.09
-0.05
-0.03
0.015
0.08
0.18
0.225
0.235
0.215
0.225
0.26
0.335
0.385
0.445
0.475
0.485
0.455
0.415
0.375
0.365
0.37
0.375
0.41
0.455
0.465
0.505
0.545
0.565
0.585
0.6
0.615
0.605
0.57
0.58
0.61
0.665
0.7
0.725
0.785
0.815
0.83
0.825
0.795
0.74
0.65
0.64
0.63
0.615
0.625
0.63
0.66
0.68
0.675
0.66
0.61
0.565
0.505
0.48
0.485
0.5
0.52
0.525
0.48
0.41
0.365
0.325
0.3
0.275
0.255
0.255
0.265
0.245
0.23
0.21
0.2
0.2
0.185
0.165
0.125
0.11
0.11
0.12
0.165
0.15
0.03
-0.13
-0.215
-0.195
-0.1
-0.025
-0.015
-0.08
-0.165
-0.2
-0.19
-0.17
-0.18
-0.18
-0.14
-0.115
-0.135
-0.145
-0.12
-0.105
-0.105
-0.12
-0.105
-0.075
-0.09
-0.125
-0.155
-0.145
-0.11
-0.085
-0.085
-0.115
-0.135
-0.12
-0.08
-0.05
-0.01
0.005
0.01
0.01
-0.025
-0.06
-0.075
-0.125
-0.2
-0.225
-0.225
-0.2
-0.195
-0.185
-0.165
-0.155
-0.205
-0.215
-0.2
-0.135
-0.12
-0.15
-0.185
-0.215
-0.23
-0.25
-0.26
-0.26
-0.215
-0.16
-0.145
-0.14
-0.14
-0.155
-0.18
-0.2
-0.195
-0.17
-0.135
-0.115
-0.08
-0.06
-0.065
-0.11
-0.175
-0.2
-0.185
-0.155
-0.105
-0.045
-0.035
-0.065
-0.115
-0.18
-0.23
-0.25
-0.22
-0.175
-0.125
-0.095
-0.09
-0.12
-0.125
-0.12
-0.1
-0.09
-0.09
-0.125
-0.175
-0.215
-0.22
-0.2
-0.18
-0.16
-0.16
-0.15
-0.135
-0.12
-0.125
-0.145
-0.19
-0.19
-0.19
-0.195
-0.195
-0.2
-0.205
-0.21
-0.2
-0.19
-0.19
-0.205
-0.22
-0.23
-0.22
-0.23
-0.235
-0.24
-0.23
-0.195
-0.18
-0.165
-0.16
-0.16
-0.16
-0.155
-0.125
-0.115
-0.115
-0.12
-0.125
-0.15
-0.18
-0.19
-0.19
-0.185
-0.165
-0.145
-0.14
-0.15
-0.175
-0.155
-0.095
0.0
0.105
0.18
0.23
0.29
0.365
0.46
0.535
0.605
0.67
0.78
0.87
0.91
0.94
0.925
0.87
0.745
0.51
0.2
-0.1
-0.28
-0.375
-0.45
-0.485
-0.49
-0.435
-0.36
-0.32
-0.315
-0.33
-0.32
-0.275
-0.24
-0.24
-0.26
-0.285
-0.3
-0.29
-0.275
-0.28
-0.28
-0.285
-0.285
-0.26
-0.23
-0.21
-0.205
-0.2
-0.19
-0.135
-0.085
-0.04
-0.05
-0.15
-0.305
-0.435
-0.49
-0.485
-0.4
-0.335
-0.31
-0.32
-0.32
-0.305
-0.29
-0.28
-0.29
-0.31
-0.31
-0.295
-0.26
-0.245
-0.225
-0.21
-0.205
-0.19
-0.2
-0.2
-0.2
-0.2
-0.2
-0.21
-0.23
-0.23
-0.225
-0.185
-0.17
-0.17
-0.175
-0.185
-0.185
-0.185
-0.185
-0.195
-0.2
-0.2
-0.2
-0.175
-0.165
-0.18
-0.18
-0.2
-0.21
-0.205
-0.205
-0.205
-0.2
-0.205
-0.19
-0.18
-0.18
-0.165
-0.175
-0.205
-0.21
-0.195
-0.15
-0.105
-0.075
-0.075
-0.105
-0.155
-0.175
-0.17
-0.155
-0.145
-0.145
-0.115
-0.095
-0.08
-0.085
-0.095
-0.105
-0.09
-0.065
-0.065
-0.07
-0.08
-0.075
-0.08
-0.085
-0.08
-0.065
-0.075
-0.08
-0.1
-0.125
-0.14
-0.135
-0.12
-0.095
-0.085
-0.095
-0.11
-0.11
-0.12
-0.1
-0.08
-0.095
-0.12
-0.12
-0.105
-0.1
-0.1
-0.11
-0.135
-0.13
-0.135
-0.115
-0.125
-0.135
-0.135
-0.095
-0.05
0.0
-0.01
-0.08
-0.17
-0.225
-0.215
-0.19
-0.17
-0.16
-0.17
-0.175
-0.155
-0.135
-0.105
-0.09
-0.085
-0.08
-0.065
-0.04
-0.04
-0.01
0.005
0.02
0.005
0.005
0.06
0.14
0.205
0.25
0.21
0.085
-0.12
-0.445
-0.835
-1.22
-1.56
-1.865
-2.11
-2.25
-2.28
-2.24
-2.23
-2.245
-2.235
-2.205
-2.155
-2.105
-2.05
-1.95
-1.81
-1.63
-1.475
-1.34
-1.25
-1.18
-1.1
-1.025
-0.925
-0.83
-0.75
-0.67
-0.6
-0.525
-0.42
-0.285
-0.18
-0.095
-0.025
0.05
0.11
0.115
0.12
0.13
0.16
0.215
0.275
0.32
0.39
0.45
0.51
0.55
0.545
0.52
0.555
0.63
0.725
0.71
0.575
0.415
0.29
0.255
0.295
0.38
0.475
0.55
0.59
0.615
0.655
0.695
0.73
0.765
0.785
0.79
0.785
0.835
0.945
1.085
1.13
1.03
0.89
0.835
0.83
0.905
0.92
0.88
0.82
0.81
0.885
0.96
0.96
0.865
0.79
0.775
0.735
0.725
0.67
0.665
0.66
0.65
0.66
0.685
0.705
0.685
0.625
0.565
0.51
0.47
0.475
0.485
0.495
0.46
0.37
0.265
0.185
0.125
0.135
0.15
0.14
0.1
0.07
0.045
0.015
-0.01
0.0
0.02
0.045
0.06
0.06
0.035
-0.005
0.005
0.06
0.105
0.115
0.11
0.065
0.0
-0.08
-0.07
0.035
0.145
0.155
-0.005
-0.215
-0.33
-0.335
-0.28
-0.21
-0.16
-0.14
-0.135
-0.125
-0.09
-0.08
-0.105
-0.135
-0.145
-0.115
-0.06
0.01
0.03
-0.02
-0.1
-0.155
-0.13
-0.06
-0.065
-0.16
-0.265
-0.265
-0.19
-0.175
-0.23
-0.27
-0.255
-0.17
-0.065
0.02
-0.02
-0.185
-0.335
-0.39
-0.36
-0.31
-0.26
-0.22
-0.145
-0.105
-0.145
-0.235
-0.315
-0.355
-0.32
-0.24
-0.13
-0.115
-0.175
-0.25
-0.28
-0.225
-0.145
-0.09
-0.065
-0.09
-0.145
-0.245
-0.32
-0.325
-0.225
-0.075
0.0
-0.045
-0.145
-0.27
-0.38
-0.45
-0.43
-0.375
-0.325
-0.31
-0.325
-0.35
-0.345
-0.305
-0.25
-0.24
-0.265
-0.29
-0.28
-0.22
-0.15
-0.12
-0.13
-0.1
-0.04
-0.055
-0.165
-0.335
-0.43
-0.355
-0.17
-0.04
-0.035
-0.125
-0.235
-0.28
-0.26
-0.225
-0.22
-0.245
-0.265
-0.295
-0.315
-0.33
-0.325
-0.295
-0.26
-0.215
-0.16
-0.115
-0.14
-0.225
-0.31
-0.35
-0.335
-0.275
-0.24
-0.28
-0.36
-0.385
-0.325
-0.225
-0.21
-0.285
-0.345
-0.36
-0.32
-0.295
-0.29
-0.295
-0.295
-0.285
-0.27
-0.245
-0.23
-0.235
-0.265
-0.27
-0.25
-0.185
-0.185
-0.245
-0.315
-0.335
-0.285
-0.235
-0.195
-0.185
-0.24
-0.345
-0.385
-0.315
-0.205
-0.17
-0.25
-0.335
-0.33
-0.225
-0.05
0.09
0.175
0.235
0.32
0.44
0.54
0.595
0.655
0.755
0.825
0.77
0.57
0.325
0.11
-0.055
-0.175
-0.215
-0.245
-0.355
-0.45
-0.52
-0.55
-0.625
-0.715
-0.74
-0.67
-0.585
-0.52
-0.455
-0.425
-0.43
-0.465
-0.49
-0.475
-0.46
-0.435
-0.415
-0.43
-0.445
-0.48
-0.475
-0.43
-0.385
-0.33
-0.285
-0.285
-0.345
-0.445
-0.525
-0.53
-0.46
-0.415
-0.38
-0.34
-0.3
-0.295
-0.335
-0.395
-0.46
-0.48
-0.465
-0.47
-0.47
-0.45
-0.41
-0.375
-0.365
-0.35
-0.36
-0.38
-0.37
-0.365
-0.355
-0.35
-0.345
-0.32
-0.31
-0.3
-0.27
-0.23
-0.185
-0.175
-0.215
-0.33
-0.42
-0.425
-0.425
-0.44
-0.42
-0.305
-0.24
-0.27
-0.37
-0.48
-0.5
-0.425
-0.335
-0.315
-0.345
-0.335
-0.285
-0.25
-0.25
-0.28
-0.305
-0.29
-0.22
-0.18
-0.21
-0.295
-0.355
-0.35
-0.265
-0.195
-0.195
-0.22
-0.255
-0.315
-0.375
-0.435
-0.45
-0.37
-0.245
-0.175
-0.215
-0.33
-0.41
-0.42
-0.38
-0.345
-0.305
-0.285
-0.295
-0.315
-0.31
-0.295
-0.285
-0.28
-0.275
-0.265
-0.23
-0.21
-0.2
-0.215
-0.235
-0.27
-0.28
-0.285
-0.265
-0.24
-0.21
-0.2
-0.195
-0.205
-0.255
-0.375
-0.5
-0.56
-0.53
-0.41
-0.275
-0.225
-0.29
-0.415
-0.515
-0.51
-0.435
-0.37
-0.335
-0.335
-0.335
-0.34
-0.345
-0.35
-0.36
-0.355
-0.345
-0.325
-0.3
-0.255
-0.195
-0.16
-0.135
-0.14
-0.125
-0.13
-0.145
-0.205
-0.305
-0.39
-0.355
-0.255
-0.165
-0.15
-0.175
-0.24
-0.385
-0.525
-0.725
-0.985
-1.285
-1.55
-1.765
-1.94
-2.075
-2.115
-2.145
-2.165
-2.165
-2.13
-2.065
-1.975
-1.91
-1.84
-1.735
-1.62
-1.54
-1.465
-1.36
-1.22
-1.08
-1.01
-1.0
-0.985
-0.95
-0.92
-0.875
-0.84
-0.81
-0.76
-0.705
-0.61
-0.525
-0.435
-0.385
-0.425
-0.48
-0.505
-0.43
-0.28
-0.185
-0.16
-0.155
-0.13
-0.07
0.035
0.165
0.285
0.325
0.285
0.235
0.2
0.12
0.025
0.005
0.045
0.125
0.22
0.27
0.295
0.29
0.29
0.33
0.365
0.395
0.46
0.495
0.5
0.45
0.39
0.39
0.43
0.455
0.485
0.515
0.54
0.565
0.575
0.565
0.56
0.565
0.595
0.605
0.625
0.635
0.62
0.625
0.645
0.655
0.665
0.66
0.67
0.705
0.755
0.765
0.695
0.555
0.475
0.5
0.565
0.6
0.595
0.61
0.66
0.645
0.525
0.33
0.22
0.19
0.2
0.24
0.28
0.315
0.305
0.26
0.2
0.175
0.175
0.175
0.16
0.13
0.09
0.06
0.065
0.05
0.055
0.055
0.055
0.055
0.06
0.025
-0.015
-0.055
-0.085
-0.075
-0.035
-0.055
-0.12
-0.19
-0.215
-0.2
-0.15
-0.125
-0.14
-0.185
-0.22
-0.215
-0.185
-0.17
-0.135
-0.135
-0.14
-0.185
-0.235
-0.285
-0.27
-0.225
-0.2
-0.205
-0.2
-0.195
-0.175
-0.17
-0.155
-0.12
-0.09
-0.08
-0.1
-0.16
-0.275
-0.345
-0.36
-0.34
-0.33
-0.32
-0.29
-0.195
-0.12
-0.125
-0.205
-0.295
-0.35
-0.345
-0.34
-0.35
-0.34
-0.325
-0.28
-0.26
-0.275
-0.275
-0.27
-0.255
-0.245
-0.23
-0.215
-0.225
-0.255
-0.275
-0.275
-0.255
-0.24
-0.23
-0.215
-0.225
-0.22
-0.22
-0.235
-0.295
-0.355
-0.36
-0.35
-0.28
-0.22
-0.195
-0.2
-0.225
-0.255
-0.23
-0.225
-0.22
-0.23
-0.245
-0.275
-0.335
-0.435
-0.475
-0.415
-0.335
-0.295
-0.3
-0.305
-0.27
-0.25
-0.245
-0.24
-0.2
-0.19
-0.225
-0.26
-0.295
-0.275
-0.275
-0.27
-0.28
-0.265
-0.21
-0.125
-0.095
-0.13
-0.23
-0.32
-0.355
-0.31
-0.24
-0.205
-0.19
-0.17
-0.13
-0.095
-0.12
-0.17
-0.23
-0.23
-0.23
-0.205
-0.2
-0.19
-0.175
-0.185
-0.205
-0.205
-0.2
-0.225
-0.3
-0.34
-0.335
-0.3
-0.23
-0.16
-0.1
-0.045
-0.04
-0.13
-0.315
-0.455
-0.45
-0.38
-0.345
-0.355
-0.33
-0.32
-0.305
-0.31
-0.33
-0.35
-0.36
-0.35
-0.33
-0.27
-0.24
-0.245
-0.26
-0.27
-0.26
-0.26
-0.285
-0.34
-0.355
-0.34
-0.325
-0.275
-0.215
-0.135
-0.045
0.05
0.115
0.225
0.33
0.44
0.53
0.64
0.765
0.865
0.9
0.87
0.8
0.685
0.455
0.12
-0.17
-0.32
-0.42
-0.51
-0.575
-0.56
-0.505
-0.445
-0.385
-0.36
-0.36
-0.38
-0.42
-0.47
-0.495
-0.49
-0.46
-0.415
-0.38
-0.345
-0.33
-0.355
-0.39
-0.39
-0.37
-0.355
-0.36
-0.33
-0.26
-0.23
-0.31
-0.415
-0.465
-0.425
-0.36
-0.325
-0.315
-0.305
-0.3
-0.335
-0.335
-0.33
-0.315
-0.275
-0.24
-0.27
-0.36
-0.435
-0.45
-0.38
-0.32
-0.32
-0.33
-0.34
-0.325
-0.31
-0.335
-0.35
-0.34
-0.33
-0.335
-0.325
-0.29
-0.28
-0.285
-0.28
-0.28
-0.28
-0.285
-0.3
-0.3
-0.265
-0.22
-0.155
-0.125
-0.19
-0.305
-0.43
-0.505
-0.485
-0.365
-0.245
-0.195
-0.245
-0.29
-0.31
-0.315
-0.315
-0.275
-0.245
-0.225
-0.205
-0.19
-0.18
-0.19
-0.17
-0.15
-0.155
-0.17
-0.175
-0.14
-0.14
-0.175
-0.24
-0.29
-0.275
-0.2
-0.11
-0.04
-0.085
-0.19
-0.265
-0.22
-0.155
-0.18
-0.255
-0.31
-0.275
-0.195
-0.15
-0.19
-0.265
-0.3
-0.255
-0.145
-0.08
-0.11
-0.21
-0.31
-0.385
-0.38
-0.35
-0.305
-0.27
-0.24
-0.215
-0.205
-0.19
-0.155
-0.1
-0.065
-0.105
-0.185
-0.295
-0.365
-0.395
-0.35
-0.255
-0.16
-0.155
-0.16
-0.155
-0.215
-0.3
-0.405
-0.42
-0.36
-0.275
-0.225
-0.24
-0.27
-0.285
-0.27
-0.25
-0.24
-0.225
-0.185
-0.155
-0.17
-0.205
-0.225
-0.205
-0.17
-0.13
-0.115
-0.125
-0.165
-0.2
-0.225
-0.21
-0.16
-0.085
-0.015
0.025
0.005
-0.095
-0.27
-0.41
-0.47
-0.385
-0.27
-0.23
-0.215
-0.25
-0.28
-0.31
-0.31
-0.29
-0.265
-0.26
-0.24
-0.21
-0.21
-0.22
-0.225
-0.215
-0.215
-0.215
-0.205
-0.215
-0.24
-0.24
-0.225
-0.21
-0.18
-0.145
-0.145
-0.145
-0.12
-0.065
-0.04
-0.115
-0.265
-0.395
-0.42
-0.335
-0.245
-0.205
-0.225
-0.25
-0.24
-0.18
-0.135
-0.11
-0.085
0.015
0.175
0.345
0.465
0.5
0.48
0.565
0.7
0.825
0.845
0.76
0.62
0.48
0.34
0.13
-0.075
-0.245
-0.315
-0.34
-0.34
-0.305
-0.285
-0.295
-0.33
-0.39
-0.45
-0.45
-0.405
-0.39
-0.44
-0.445
-0.41
-0.36
-0.36
-0.365
-0.345
-0.305
-0.28
-0.29
-0.28
-0.265
-0.28
