Lead II
-0.02
-0.025
-0.04
-0.04
-0.035
-0.025
0.005
0.005
0.02
0.015
0.025
0.055
0.055
0.05
0.035
0.04
0.06
0.095
0.12
0.125
0.125
0.115
0.13
0.15
0.165
0.17
0.18
0.18
0.195
0.25
0.275
0.285
0.27
0.27
0.285
0.3
0.305
0.325
0.32
0.33
0.34
0.355
0.38
0.35
0.34
0.3
0.3
0.305
0.3
0.3
0.265
0.23
0.215
0.205
0.185
0.16
0.11
0.08
0.05
0.055
0.035
0.02
-0.01
-0.05
-0.075
-0.09
-0.09
-0.115
-0.14
-0.15
-0.165
-0.15
-0.16
-0.17
-0.2
-0.225
-0.235
-0.235
-0.22
-0.22
-0.255
-0.25
-0.25
-0.26
-0.245
-0.26
-0.285
-0.3
-0.29
-0.275
-0.245
-0.245
-0.265
-0.27
-0.27
-0.26
-0.26
-0.26
-0.27
-0.285
-0.265
-0.235
-0.22
-0.23
-0.26
-0.26
-0.25
-0.245
-0.24
-0.23
-0.24
-0.24
-0.235
-0.22
-0.205
-0.22
-0.25
-0.25
-0.27
-0.265
-0.23
-0.225
-0.24
-0.25
-0.24
-0.255
-0.235
-0.25
-0.265
-0.255
-0.24
-0.22
-0.185
-0.17
-0.175
-0.18
-0.165
-0.155
-0.135
-0.12
-0.115
-0.095
-0.065
-0.025
-0.02
-0.01
-0.02
-0.035
-0.02
-0.015
0.0
-0.025
-0.05
-0.075
-0.1
-0.12
-0.145
-0.205
-0.245
-0.27
-0.275
-0.265
-0.26
-0.275
-0.285
-0.31
-0.315
-0.33
-0.315
-0.32
-0.34
-0.355
-0.345
-0.31
-0.315
-0.315
-0.33
-0.36
-0.35
-0.35
-0.345
-0.33
-0.34
-0.335
-0.315
-0.295
-0.305
-0.32
-0.32
-0.315
-0.285
-0.26
-0.21
-0.13
-0.035
0.085
0.27
0.49
0.73
0.96
1.16
1.27
1.26
1.01
0.59
0.065
-0.355
-0.62
-0.68
-0.62
-0.55
-0.55
-0.6
-0.63
-0.66
-0.68
-0.69
-0.71
-0.72
-0.71
-0.71
-0.715
-0.705
-0.705
-0.73
-0.71
-0.695
-0.645
-0.6
-0.58
-0.565
-0.52
-0.47
-0.39
-0.305
-0.255
-0.255
-0.24
-0.24
-0.22
-0.2
-0.2
-0.195
-0.195
-0.19
-0.16
-0.155
-0.15
-0.17
-0.18
-0.175
-0.15
-0.12
-0.11
-0.105
-0.11
-0.11
-0.095
-0.075
-0.075
-0.085
-0.09
-0.075
-0.055
-0.025
-0.01
-0.025
-0.03
-0.015
-0.005
0.03
0.03
0.04
0.05
0.05
0.075
0.105
0.13
0.115
0.105
0.125
0.16
0.18
0.19
0.205
0.175
0.2
0.195
0.21
0.2
0.19
0.17
0.165
0.17
0.17
0.15
0.115
0.065
0.04
0.025
0.02
0.0
-0.04
-0.07
-0.09
-0.11
-0.13
-0.175
-0.205
-0.25
-0.245
-0.24
-0.235
-0.255
-0.275
-0.305
-0.315
-0.32
-0.32
-0.34
-0.35
-0.36
-0.365
-0.355
-0.345
-0.355
-0.375
-0.4
-0.39
-0.395
-0.39
-0.38
-0.375
-0.395
-0.39
-0.375
-0.36
-0.385
-0.395
-0.41
-0.4
-0.38
-0.345
-0.345
-0.36
-0.37
-0.375
-0.37
-0.365
-0.365
-0.375
-0.375
-0.39
-0.36
-0.335
-0.35
-0.365
-0.38
-0.37
-0.36
-0.36
-0.38
-0.37
-0.38
-0.38
-0.37
-0.365
-0.37
-0.39
-0.405
-0.395
-0.38
-0.35
-0.335
-0.35
-0.35
-0.325
-0.315
-0.29
-0.275
-0.28
-0.275
-0.265
-0.225
-0.2
-0.185
-0.165
-0.17
-0.175
-0.15
-0.14
-0.15
-0.16
-0.18
-0.185
-0.195
-0.2
-0.245
-0.315
-0.345
-0.38
-0.385
-0.39
-0.39
-0.405
-0.435
-0.44
-0.455
-0.475
-0.47
-0.48
-0.495
-0.505
-0.485
-0.475
-0.475
-0.505
-0.53
-0.525
-0.515
-0.505
-0.515
-0.505
-0.515
-0.5
-0.5
-0.465
-0.465
-0.48
-0.48
-0.475
-0.43
-0.405
-0.355
-0.32
-0.245
-0.125
0.045
0.245
0.495
0.73
0.955
1.13
1.2
1.125
0.835
0.395
-0.055
-0.42
-0.655
-0.745
-0.695
-0.64
-0.635
-0.66
-0.68
-0.71
-0.755
-0.795
-0.83
-0.825
-0.795
-0.755
-0.765
-0.795
-0.795
-0.8
-0.81
-0.795
-0.775
-0.755
-0.73
-0.68
-0.63
-0.575
-0.525
-0.495
-0.45
-0.405
-0.37
-0.35
-0.335
-0.35
-0.34
-0.33
-0.275
-0.255
-0.265
-0.285
-0.3
-0.29
-0.26
-0.23
-0.21
-0.225
-0.22
-0.21
-0.2
-0.17
-0.175
-0.17
-0.18
-0.15
-0.13
-0.09
-0.105
-0.105
-0.095
-0.09
-0.07
-0.02
-0.02
-0.02
-0.01
0.005
0.035
0.075
0.095
0.09
0.085
0.095
0.13
0.16
0.175
0.175
0.18
0.2
0.22
0.245
0.245
0.23
0.22
0.235
0.245
0.255
0.24
0.215
0.175
0.155
0.125
0.125
0.085
0.05
0.02
0.005
0.0
-0.015
-0.05
-0.095
-0.135
-0.155
-0.175
-0.17
-0.185
-0.215
-0.225
-0.245
-0.25
-0.25
-0.275
-0.315
-0.335
-0.325
-0.325
-0.315
-0.3
-0.32
-0.345
-0.365
-0.35
-0.34
-0.33
-0.355
-0.355
-0.36
-0.33
-0.32
-0.335
-0.355
-0.38
-0.355
-0.335
-0.305
-0.305
-0.315
-0.33
-0.335
-0.32
-0.32
-0.315
-0.32
-0.32
-0.31
-0.28
-0.255
-0.27
-0.29
-0.305
-0.31
-0.3
-0.295
-0.285
-0.29
-0.29
-0.295
-0.275
-0.285
-0.29
-0.31
-0.3
-0.31
-0.27
-0.265
-0.265
-0.27
-0.285
-0.27
-0.24
-0.2
-0.195
-0.195
-0.2
-0.17
-0.145
-0.115
-0.1
-0.105
-0.085
-0.06
-0.05
-0.03
-0.01
-0.035
-0.04
-0.05
-0.05
-0.065
-0.1
-0.135
-0.185
-0.205
-0.22
-0.23
-0.235
-0.27
-0.295
-0.31
-0.295
-0.29
-0.295
-0.305
-0.32
-0.33
-0.33
-0.34
-0.35
-0.355
-0.36
-0.345
-0.325
-0.32
-0.305
-0.33
-0.35
-0.35
-0.33
-0.32
-0.3
-0.285
-0.285
-0.255
-0.215
-0.17
-0.09
0.03
0.205
0.445
0.73
1.025
1.245
1.34
1.255
0.935
0.46
-0.015
-0.395
-0.6
-0.62
-0.555
-0.5
-0.505
-0.545
-0.595
-0.645
-0.675
-0.665
-0.645
-0.625
-0.63
-0.67
-0.69
-0.7
-0.665
-0.665
-0.615
-0.58
-0.535
-0.495
-0.44
-0.39
-0.355
-0.325
-0.28
-0.22
-0.16
-0.145
-0.15
-0.145
-0.14
-0.125
-0.09
-0.1
-0.11
-0.105
-0.09
-0.06
-0.035
-0.03
-0.045
-0.05
-0.04
-0.025
0.005
0.0
0.005
0.015
0.025
0.05
0.065
0.06
0.055
0.045
0.07
0.1
0.135
0.15
0.135
0.145
0.175
0.19
0.225
0.225
0.225
0.23
0.255
0.285
0.305
0.305
0.315
0.3
0.31
0.335
0.35
0.35
0.335
0.325
0.32
0.315
0.31
0.28
0.235
0.2
0.175
0.175
0.155
0.14
0.09
0.065
0.035
0.025
0.015
-0.01
-0.045
-0.065
-0.075
-0.075
-0.08
-0.115
-0.145
-0.17
-0.185
-0.18
-0.19
-0.19
-0.215
-0.225
-0.235
-0.23
-0.22
-0.23
-0.25
-0.255
-0.245
-0.23
-0.205
-0.235
-0.26
-0.27
-0.26
-0.24
-0.23
-0.23
-0.235
-0.225
-0.215
-0.21
-0.21
-0.23
-0.24
-0.245
-0.24
-0.225
-0.195
-0.2
-0.205
-0.22
-0.225
-0.235
-0.22
-0.21
-0.22
-0.225
-0.21
-0.2
-0.205
-0.215
-0.24
-0.245
-0.24
-0.23
-0.2
-0.205
-0.215
-0.225
-0.23
-0.235
-0.22
-0.225
-0.24
-0.245
-0.24
-0.225
-0.2
-0.195
-0.21
-0.235
-0.235
-0.205
-0.17
-0.15
-0.14
-0.15
-0.125
-0.105
-0.08
-0.09
-0.08
-0.075
-0.045
-0.005
0.045
0.03
0.015
-0.005
-0.02
-0.015
-0.02
-0.045
-0.1
-0.13
-0.18
-0.185
-0.2
-0.225
-0.26
-0.275
-0.27
-0.265
-0.25
-0.27
-0.285
-0.295
-0.305
-0.31
-0.305
-0.305
-0.315
-0.32
-0.305
-0.295
-0.285
-0.295
-0.305
-0.315
-0.31
-0.29
-0.27
-0.255
-0.255
-0.255
-0.245
-0.22
-0.17
-0.1
0.015
0.19
0.42
0.71
0.995
1.225
1.325
1.215
0.865
0.36
-0.09
-0.43
-0.58
-0.555
-0.495
-0.475
-0.51
-0.555
-0.61
-0.645
-0.66
-0.67
-0.64
-0.635
-0.645
-0.685
-0.695
-0.7
-0.68
-0.655
-0.605
-0.575
-0.54
-0.5
-0.435
-0.39
-0.35
-0.28
-0.235
-0.19
-0.17
-0.16
-0.17
-0.17
-0.165
-0.155
-0.14
-0.125
-0.11
-0.13
-0.115
-0.11
-0.085
-0.09
-0.085
-0.09
-0.08
-0.05
-0.03
-0.02
-0.025
-0.025
-0.02
-0.005
0.01
0.035
0.045
0.065
0.08
0.095
0.11
0.1
0.105
0.105
0.125
0.155
0.19
0.2
0.2
0.195
0.2
0.23
0.25
0.245
0.255
0.265
0.285
0.3
0.3
0.29
0.27
0.245
0.22
0.225
0.23
0.195
0.155
0.125
0.085
0.065
0.05
0.005
-0.04
-0.045
-0.075
-0.09
-0.085
-0.135
-0.16
-0.2
-0.21
-0.21
-0.215
-0.22
-0.24
-0.26
-0.275
-0.275
-0.27
-0.29
-0.31
-0.315
-0.3
-0.29
-0.27
-0.295
-0.305
-0.33
-0.325
-0.32
-0.285
-0.295
-0.29
-0.305
-0.315
-0.295
-0.29
-0.29
-0.3
-0.3
-0.31
-0.28
-0.275
-0.275
-0.29
-0.31
-0.315
-0.305
-0.295
-0.295
-0.3
-0.31
-0.31
-0.295
-0.305
-0.315
-0.34
-0.35
-0.35
-0.33
-0.305
-0.31
-0.33
-0.34
-0.35
-0.345
-0.335
-0.34
-0.35
-0.36
-0.345
-0.34
-0.31
-0.33
-0.325
-0.31
-0.295
-0.26
-0.22
-0.21
-0.22
-0.225
-0.195
-0.18
-0.125
-0.125
-0.12
-0.135
-0.11
-0.085
-0.07
-0.105
-0.12
-0.16
-0.195
-0.225
-0.24
-0.28
-0.31
-0.345
-0.35
-0.355
-0.36
-0.38
-0.4
-0.415
-0.43
-0.4
-0.395
-0.405
-0.425
-0.445
-0.45
-0.435
-0.44
-0.455
-0.47
-0.475
-0.45
-0.435
-0.425
-0.43
-0.445
-0.46
-0.445
-0.43
-0.405
-0.4
-0.385
-0.385
-0.35
-0.27
-0.14
0.0
0.2
0.445
0.715
0.965
1.15
1.175
0.975
0.58
0.09
-0.355
-0.635
-0.745
-0.695
-0.635
-0.64
-0.675
-0.725
-0.765
-0.81
-0.85
-0.85
-0.83
-0.795
-0.79
-0.81
-0.86
-0.88
-0.875
-0.835
-0.81
-0.775
-0.755
-0.71
-0.655
-0.61
-0.56
-0.51
-0.47
-0.42
-0.375
-0.365
-0.33
-0.335
-0.33
-0.33
-0.32
-0.29
-0.29
-0.295
-0.29
-0.275
-0.245
-0.23
-0.23
-0.235
-0.25
-0.25
-0.235
-0.21
-0.2
-0.2
-0.2
-0.185
-0.16
-0.165
-0.165
-0.165
-0.15
-0.135
-0.105
-0.07
-0.06
-0.065
-0.065
-0.055
-0.035
0.0
-0.005
0.015
0.02
0.03
0.055
0.075
0.085
0.07
0.075
0.095
0.115
0.13
0.12
0.09
0.06
0.04
0.025
0.03
-0.005
-0.035
-0.075
-0.095
-0.12
-0.15
-0.18
-0.21
-0.26
-0.255
-0.255
-0.255
-0.28
-0.32
-0.355
-0.375
-0.375
-0.36
-0.385
-0.405
-0.41
-0.42
-0.42
-0.43
-0.43
-0.435
-0.445
-0.44
-0.415
-0.395
-0.41
-0.42
-0.46
-0.45
-0.435
-0.425
-0.42
-0.43
-0.42
-0.44
-0.425
-0.41
-0.41
-0.42
-0.435
-0.42
-0.42
-0.39
-0.4
-0.42
-0.44
-0.445
-0.43
-0.42
-0.41
-0.43
-0.425
-0.42
-0.415
-0.4
-0.415
-0.455
-0.45
-0.45
-0.425
-0.4
-0.405
-0.415
-0.41
-0.395
-0.375
-0.355
-0.35
-0.35
-0.33
-0.305
-0.29
-0.255
-0.25
-0.25
-0.235
-0.22
-0.19
-0.175
-0.185
-0.195
-0.22
-0.24
-0.255
-0.28
-0.31
-0.35
-0.39
-0.41
-0.415
-0.415
-0.425
-0.44
-0.48
-0.495
-0.47
-0.46
-0.45
-0.485
-0.5
-0.505
-0.505
-0.49
-0.495
-0.505
-0.505
-0.505
-0.49
-0.465
-0.465
-0.485
-0.495
-0.485
-0.47
-0.44
-0.425
-0.435
-0.4
-0.37
-0.31
-0.195
-0.04
0.15
0.395
0.685
0.96
1.16
1.2
1.005
0.585
0.07
-0.375
-0.645
-0.755
-0.705
-0.66
-0.66
-0.71
-0.72
-0.745
-0.815
-0.83
-0.83
-0.795
-0.765
-0.77
-0.79
-0.825
-0.845
-0.84
-0.815
-0.78
-0.735
-0.7
-0.66
-0.61
-0.545
-0.495
-0.445
-0.395
-0.36
-0.33
-0.3
-0.28
-0.27
-0.25
-0.255
-0.225
-0.21
-0.22
-0.215
-0.21
-0.195
-0.16
-0.14
-0.12
-0.145
-0.15
-0.14
-0.125
-0.125
-0.105
-0.1
-0.095
-0.085
-0.065
-0.025
-0.04
-0.045
-0.045
-0.035
-0.005
0.035
0.045
0.055
0.06
0.07
0.085
0.105
0.125
0.13
0.14
0.15
0.18
0.2
0.21
0.21
0.215
0.225
0.24
0.265
0.27
0.275
0.255
0.245
0.25
0.245
0.225
0.19
0.155
0.12
0.115
0.115
0.095
0.055
0.01
-0.03
-0.03
-0.035
-0.065
-0.095
-0.125
-0.135
-0.135
-0.135
-0.165
-0.19
-0.225
-0.25
-0.235
-0.225
-0.23
-0.245
-0.25
-0.265
-0.25
-0.26
-0.27
-0.275
-0.29
-0.285
-0.275
-0.245
-0.24
-0.265
-0.28
-0.29
-0.275
-0.27
-0.265
-0.265
-0.27
-0.275
-0.25
-0.235
-0.245
-0.275
-0.28
-0.28
-0.275
-0.26
-0.255
-0.25
-0.26
-0.25
-0.255
-0.24
-0.25
-0.26
-0.275
-0.255
-0.25
-0.245
-0.25
-0.25
-0.28
-0.275
-0.265
-0.24
-0.24
-0.27
-0.265
-0.24
-0.235
-0.235
-0.235
-0.255
-0.275
-0.255
-0.23
-0.19
-0.17
-0.17
-0.165
-0.15
-0.145
-0.13
-0.11
-0.1
-0.105
-0.075
-0.03
0.0
-0.005
-0.025
-0.055
-0.045
-0.04
-0.045
-0.06
-0.1
-0.14
-0.185
-0.21
-0.23
-0.24
-0.27
-0.295
-0.295
-0.285
-0.28
-0.3
-0.325
-0.36
-0.355
-0.34
-0.335
-0.345
-0.355
-0.36
-0.35
-0.345
-0.335
-0.35
-0.355
-0.365
-0.35
-0.34
-0.3
-0.295
-0.295
-0.305
-0.295
-0.31
-0.245
-0.185
-0.08
0.05
0.27
0.515
0.78
1.025
1.225
1.315
1.265
1.01
0.62
0.16
-0.26
-0.53
-0.625
-0.585
-0.525
-0.555
-0.575
-0.62
-0.64
-0.665
-0.68
-0.705
-0.695
-0.705
-0.71
-0.705
-0.69
-0.72
-0.725
-0.71
-0.68
-0.625
-0.565
-0.55
-0.535
-0.475
-0.425
-0.365
-0.27
-0.24
-0.22
-0.21
-0.2
-0.185
-0.19
-0.175
-0.175
-0.17
-0.165
-0.13
-0.1
-0.095
-0.115
-0.125
-0.115
-0.095
-0.075
-0.065
-0.065
-0.055
-0.05
-0.035
-0.02
-0.025
-0.035
-0.045
-0.02
0.005
0.03
0.04
0.05
0.05
0.06
0.075
0.085
0.1
0.105
0.12
0.145
0.18
0.19
0.195
0.205
0.195
0.205
0.23
0.245
0.255
0.265
0.27
0.275
0.29
0.295
0.295
0.27
0.245
0.23
0.23
0.24
0.22
0.18
0.145
0.115
0.08
0.065
0.045
0.01
-0.015
-0.035
-0.04
-0.055
-0.075
-0.12
-0.16
-0.185
-0.2
-0.195
-0.2
-0.225
-0.235
-0.255
-0.26
-0.275
-0.275
-0.3
-0.31
-0.31
-0.31
-0.29
-0.275
-0.305
-0.31
-0.32
-0.31
-0.3
-0.315
-0.325
-0.33
-0.315
-0.3
-0.28
-0.285
-0.3
-0.32
-0.33
-0.315
-0.305
-0.3
-0.29
-0.295
-0.3
-0.29
-0.28
-0.27
-0.29
-0.3
-0.305
-0.285
-0.26
-0.27
-0.285
-0.295
-0.315
-0.31
-0.3
-0.3
-0.295
-0.305
-0.295
-0.29
-0.275
-0.3
-0.32
-0.335
-0.33
-0.33
-0.3
-0.31
-0.3
-0.29
-0.275
-0.25
-0.225
-0.215
-0.22
-0.215
-0.2
-0.175
-0.145
-0.125
-0.11
-0.105
-0.095
-0.07
-0.07
-0.075
-0.075
-0.09
-0.1
-0.095
-0.095
-0.135
-0.185
-0.235
-0.285
-0.28
-0.3
-0.3
-0.315
-0.33
-0.35
-0.36
-0.35
-0.36
-0.39
-0.405
-0.41
-0.4
-0.375
-0.38
-0.405
-0.415
-0.425
-0.425
-0.415
-0.43
-0.44
-0.44
-0.43
-0.41
-0.375
-0.39
-0.415
-0.425
-0.425
-0.385
-0.355
-0.335
-0.29
-0.24
-0.15
-0.01
0.19
0.39
0.625
0.84
1.065
1.205
1.21
0.99
0.61
0.16
-0.265
-0.57
-0.69
-0.685
-0.65
-0.625
-0.635
-0.66
-0.695
-0.71
-0.755
-0.805
-0.815
-0.805
-0.775
-0.77
-0.79
-0.795
-0.795
-0.815
-0.77
-0.745
-0.73
-0.72
-0.69
-0.66
-0.585
-0.53
-0.48
-0.44
-0.39
-0.35
-0.33
-0.325
-0.32
-0.315
-0.3
-0.28
-0.245
-0.25
-0.26
-0.26
-0.28
-0.255
-0.245
-0.23
-0.22
-0.225
-0.21
-0.205
-0.175
-0.175
-0.18
-0.19
-0.18
-0.155
-0.13
-0.125
-0.125
-0.12
-0.115
-0.1
-0.085
-0.085
-0.085
-0.085
-0.06
-0.03
0.005
-0.01
0.0
0.02
0.03
0.045
0.06
0.07
0.075
0.08
0.075
0.115
0.13
0.135
0.12
0.11
0.095
0.105
0.115
0.115
0.11
0.065
0.03
0.02
-0.005
-0.04
-0.075
-0.1
-0.12
-0.125
-0.15
-0.19
-0.225
-0.265
-0.3
-0.285
-0.29
-0.32
-0.34
-0.375
-0.39
-0.38
-0.385
-0.405
-0.44
-0.46
-0.465
-0.45
-0.435
-0.44
-0.45
-0.47
-0.485
-0.485
-0.465
-0.47
-0.48
-0.485
-0.475
-0.46
-0.455
-0.455
-0.475
-0.49
-0.49
-0.475
-0.455
-0.445
-0.445
-0.46
-0.475
-0.45
-0.455
-0.445
-0.47
-0.475
-0.475
-0.46
-0.42
-0.425
-0.435
-0.455
-0.47
-0.47
-0.445
-0.445
-0.45
-0.475
-0.465
-0.465
-0.44
-0.44
-0.48
-0.48
-0.485
-0.475
-0.445
-0.425
-0.415
-0.4
-0.4
-0.37
-0.35
-0.36
-0.37
-0.365
-0.36
-0.315
-0.28
-0.26
-0.25
-0.25
-0.26
-0.23
-0.23
-0.235
-0.26
-0.295
-0.305
-0.33
-0.33
-0.37
-0.41
-0.47
-0.485
-0.485
-0.485
-0.495
-0.505
-0.535
-0.535
-0.515
-0.525
-0.54
-0.555
-0.565
-0.585
-0.56
-0.545
-0.535
-0.56
-0.565
-0.575
-0.575
-0.575
-0.585
-0.585
-0.56
-0.55
-0.515
-0.51
-0.505
-0.52
-0.525
-0.515
-0.48
-0.425
-0.375
-0.275
-0.145
0.035
0.28
0.53
0.775
0.97
1.075
0.99
0.74
0.35
-0.095
-0.5
-0.76
-0.83
-0.79
-0.73
-0.73
-0.77
-0.815
-0.84
-0.855
-0.865
-0.89
-0.905
-0.925
-0.905
-0.895
-0.9
-0.915
-0.925
-0.93
-0.905
-0.855
-0.815
-0.78
-0.765
-0.73
-0.69
-0.63
-0.565
-0.505
-0.46
-0.44
-0.415
-0.4
-0.39
-0.38
-0.4
-0.39
-0.375
-0.33
-0.31
-0.295
-0.31
-0.325
-0.32
-0.315
-0.285
-0.28
-0.275
-0.26
-0.255
-0.24
-0.225
-0.235
-0.24
-0.24
-0.23
-0.195
-0.175
-0.16
-0.16
-0.15
-0.15
-0.135
-0.11
-0.11
-0.11
-0.1
-0.08
-0.045
-0.025
-0.015
-0.01
-0.015
-0.005
0.015
0.04
0.06
0.055
0.06
0.075
0.105
0.125
0.135
0.125
0.11
0.1
0.105
0.11
0.095
0.06
0.035
0.02
0.0
-0.01
-0.045
-0.09
-0.115
-0.135
-0.14
-0.13
-0.165
-0.19
-0.235
-0.25
-0.265
-0.27
-0.3
-0.325
-0.345
-0.36
-0.34
-0.34
-0.365
-0.38
-0.41
-0.435
-0.415
-0.4
-0.415
-0.415
-0.43
-0.43
-0.42
-0.405
-0.41
-0.425
-0.44
-0.435
-0.415
-0.405
-0.395
-0.395
-0.415
-0.41
-0.41
-0.415
-0.405
-0.41
-0.4
-0.395
-0.39
-0.365
-0.38
-0.38
-0.39
-0.415
-0.41
-0.39
-0.41
-0.395
-0.4
-0.405
-0.375
-0.38
-0.375
-0.395
-0.405
-0.41
-0.4
-0.385
-0.37
-0.375
-0.385
-0.385
-0.37
-0.37
-0.37
-0.36
-0.36
-0.325
-0.31
-0.27
-0.275
-0.275
-0.26
-0.255
-0.23
-0.21
-0.2
-0.185
-0.17
-0.15
-0.13
-0.125
-0.135
-0.165
-0.185
-0.195
-0.2
-0.22
-0.245
-0.29
-0.34
-0.355
-0.37
-0.365
-0.385
-0.405
-0.43
-0.42
-0.425
-0.41
-0.42
-0.435
-0.455
-0.445
-0.455
-0.455
-0.47
-0.465
-0.47
-0.47
-0.445
-0.43
-0.43
-0.45
-0.46
-0.465
-0.445
-0.41
-0.415
-0.405
-0.41
-0.395
-0.355
-0.32
-0.285
-0.21
-0.09
0.095
0.33
0.615
0.84
1.045
1.175
1.14
0.875
0.455
-0.02
-0.43
-0.67
-0.72
-0.665
-0.63
-0.63
-0.68
-0.725
-0.74
-0.775
-0.78
-0.79
-0.79
-0.785
-0.765
-0.76
-0.775
-0.79
-0.83
-0.825
-0.81
-0.745
-0.685
-0.645
-0.61
-0.595
-0.545
-0.48
-0.4
-0.375
-0.34
-0.3
-0.28
-0.255
-0.23
-0.22
-0.22
-0.24
-0.23
-0.195
-0.175
-0.165
-0.16
-0.155
-0.16
-0.145
-0.125
-0.145
-0.14
-0.14
-0.135
-0.105
-0.085
-0.075
-0.07
-0.07
-0.065
-0.045
-0.02
-0.015
-0.015
-0.015
-0.01
0.045
0.08
0.08
0.06
0.065
0.08
0.11
0.14
0.15
0.145
0.165
0.18
0.195
0.22
0.22
0.21
0.2
0.23
0.25
0.285
0.285
0.275
0.265
0.23
0.245
0.22
0.195
0.17
0.15
0.13
0.115
0.11
0.07
0.03
-0.025
-0.04
-0.055
-0.07
-0.085
-0.135
-0.145
-0.17
-0.165
-0.17
-0.2
-0.235
-0.26
-0.27
-0.265
-0.255
-0.265
-0.285
-0.305
-0.32
-0.325
-0.315
-0.345
-0.34
-0.35
-0.36
-0.325
-0.305
-0.305
-0.32
-0.33
-0.34
-0.35
-0.335
-0.325
-0.345
-0.335
-0.33
-0.325
-0.315
-0.305
-0.325
-0.345
-0.335
-0.345
-0.315
-0.3
-0.31
-0.335
-0.33
-0.325
-0.32
-0.34
-0.33
-0.355
-0.34
-0.325
-0.305
-0.305
-0.34
-0.365
-0.345
-0.345
-0.345
-0.335
-0.33
-0.345
-0.32
-0.3
-0.27
-0.26
-0.26
-0.26
-0.245
-0.22
-0.215
-0.18
-0.19
-0.18
-0.145
-0.13
-0.1
-0.11
-0.115
-0.135
-0.12
-0.115
-0.115
-0.12
-0.165
-0.21
-0.25
-0.285
-0.3
-0.335
-0.355
-0.355
-0.375
-0.36
-0.375
-0.39
-0.415
-0.44
-0.44
-0.44
-0.425
-0.42
-0.435
-0.45
-0.455
-0.445
-0.445
-0.445
-0.465
-0.465
-0.46
-0.445
-0.415
-0.425
-0.435
-0.45
-0.465
-0.45
-0.425
-0.39
-0.375
-0.35
-0.27
-0.18
-0.04
0.11
0.295
0.505
0.77
1.005
1.16
1.19
1.01
0.655
0.185
-0.25
-0.575
-0.735
-0.745
-0.69
-0.65
-0.645
-0.665
-0.72
-0.76
-0.8
-0.835
-0.835
-0.805
-0.79
-0.795
-0.795
-0.8
-0.805
-0.8
-0.805
-0.79
-0.75
-0.73
-0.68
-0.62
-0.585
-0.53
-0.49
-0.43
-0.36
-0.32
-0.305
-0.31
-0.32
-0.3
-0.28
-0.26
-0.225
-0.23
-0.25
-0.255
-0.235
-0.215
-0.205
-0.205
-0.205
-0.19
-0.175
-0.17
-0.16
-0.18
-0.185
-0.16
-0.16
-0.13
-0.115
-0.115
-0.135
-0.125
-0.08
-0.055
-0.055
-0.055
-0.055
-0.035
0.0
0.015
0.035
0.035
0.015
0.045
0.06
0.09
0.1
0.105
0.105
0.13
0.155
0.17
0.175
0.175
0.165
0.17
0.19
0.2
0.2
0.19
0.16
0.125
0.135
0.12
0.08
0.045
0.005
-0.025
-0.02
-0.025
-0.06
-0.085
-0.13
-0.165
-0.18
-0.205
-0.215
-0.24
-0.245
-0.275
-0.275
-0.285
-0.315
-0.33
-0.36
-0.37
-0.37
-0.355
-0.355
-0.37
-0.385
-0.385
-0.395
-0.4
-0.4
-0.41
-0.42
-0.425
-0.4
-0.39
-0.38
-0.39
-0.41
-0.415
-0.43
-0.4
-0.405
-0.41
-0.415
-0.425
-0.4
-0.375
-0.385
-0.405
-0.425
-0.435
-0.43
-0.41
-0.4
-0.41
-0.4
-0.405
-0.405
-0.4
-0.405
-0.415
-0.44
-0.435
-0.415
-0.41
-0.405
-0.42
-0.425
-0.445
-0.435
-0.425
-0.425
-0.435
-0.44
-0.42
-0.39
-0.37
-0.355
-0.36
-0.37
-0.355
-0.34
-0.315
-0.295
-0.29
-0.295
-0.265
-0.255
-0.22
-0.21
-0.235
-0.24
-0.24
-0.235
-0.215
-0.24
-0.28
-0.32
-0.36
-0.38
-0.405
-0.43
-0.455
-0.48
-0.49
-0.48
-0.48
-0.51
-0.545
-0.555
-0.555
-0.555
-0.55
-0.53
-0.545
-0.565
-0.575
-0.56
-0.56
-0.57
-0.59
-0.595
-0.6
-0.57
-0.55
-0.55
-0.57
-0.585
-0.59
-0.56
-0.535
-0.54
-0.515
-0.49
-0.425
-0.335
-0.19
-0.025
0.17
0.4
0.635
0.875
1.025
0.995
0.735
0.335
-0.13
-0.525
-0.79
-0.89
-0.865
-0.805
-0.775
-0.795
-0.81
-0.865
-0.9
-0.935
-0.98
-0.965
-0.94
-0.92
-0.93
-0.955
-0.955
-0.96
-0.95
-0.94
-0.95
-0.91
-0.875
-0.825
-0.77
-0.715
-0.67
-0.61
-0.56
-0.515
-0.48
-0.48
-0.475
-0.48
-0.455
-0.415
-0.395
-0.4
-0.41
-0.42
-0.405
-0.39
-0.38
-0.38
-0.36
-0.375
-0.365
-0.345
-0.32
-0.33
-0.335
-0.34
-0.33
-0.295
-0.27
-0.27
-0.28
-0.28
-0.255
-0.235
-0.21
-0.205
-0.2
-0.2
-0.185
-0.145
-0.14
-0.14
-0.145
-0.13
-0.11
-0.08
-0.055
-0.03
-0.025
-0.02
-0.01
0.01
0.02
0.02
0.0
-0.01
0.005
0.01
0.02
0.015
-0.035
-0.065
-0.075
-0.095
-0.11
-0.13
-0.165
-0.195
-0.22
-0.235
-0.25
-0.275
-0.315
-0.375
-0.4
-0.39
-0.395
-0.4
-0.41
-0.445
-0.465
-0.465
-0.47
-0.505
-0.525
-0.55
-0.545
-0.52
-0.505
-0.515
-0.53
-0.55
-0.565
-0.565
-0.55
-0.55
-0.555
-0.555
-0.55
-0.545
-0.525
-0.545
-0.565
-0.57
-0.555
-0.56
-0.53
-0.53
-0.545
-0.55
-0.55
-0.52
-0.525
-0.525
-0.53
-0.55
-0.535
-0.53
-0.515
-0.51
-0.54
-0.55
-0.545
-0.54
-0.53
-0.53
-0.54
-0.55
-0.55
-0.55
-0.535
-0.55
-0.575
-0.565
-0.545
-0.52
-0.485
-0.48
-0.485
-0.475
-0.485
-0.48
-0.46
-0.445
-0.445
-0.425
-0.405
-0.37
-0.35
-0.35
-0.345
-0.375
-0.375
-0.365
-0.36
-0.365
-0.4
-0.43
-0.455
-0.49
-0.525
-0.55
-0.565
-0.595
-0.615
-0.595
-0.58
-0.6
-0.61
-0.635
-0.64
-0.645
-0.635
-0.63
-0.635
-0.65
-0.655
-0.66
-0.64
-0.67
-0.67
-0.67
-0.655
-0.64
-0.625
-0.61
-0.615
-0.62
-0.625
-0.625
-0.59
-0.565
-0.525
-0.475
-0.345
-0.17
0.08
0.335
0.595
0.815
0.985
0.99
0.78
0.34
-0.17
-0.625
-0.91
-1.01
-0.94
-0.895
-0.88
-0.92
-0.96
-0.985
-1.0
-1.02
-1.045
-1.055
-1.07
-1.045
-1.04
-1.06
-1.095
-1.095
-1.075
-1.035
-0.98
-0.945
-0.9
-0.86
-0.805
-0.725
-0.645
-0.605
-0.57
-0.565
-0.555
-0.55
-0.535
-0.515
-0.5
-0.5
-0.49
-0.465
-0.47
-0.465
-0.455
-0.465
-0.46
-0.43
-0.4
-0.385
-0.385
-0.395
-0.39
-0.37
-0.355
-0.345
-0.325
-0.325
-0.31
-0.285
-0.255
-0.25
-0.25
-0.245
-0.22
-0.195
-0.165
-0.135
-0.13
-0.12
-0.11
-0.09
-0.07
-0.045
-0.065
-0.05
-0.025
0.015
0.045
0.035
0.03
0.01
0.005
0.015
0.01
-0.005
-0.035
-0.055
-0.08
-0.095
-0.125
-0.165
-0.215
-0.25
-0.285
-0.29
-0.295
-0.325
-0.345
-0.39
-0.425
-0.43
-0.44
-0.455
-0.475
-0.485
-0.495
-0.495
-0.495
-0.505
-0.525
-0.565
-0.55
-0.55
-0.53
-0.53
-0.55
-0.55
-0.56
-0.555
-0.545
-0.535
-0.54
-0.555
-0.55
-0.53
-0.495
-0.505
-0.52
-0.53
-0.53
-0.525
-0.51
-0.5
-0.5
-0.51
-0.5
-0.495
-0.5
-0.5
-0.515
-0.51
-0.495
-0.495
-0.47
-0.49
-0.505
-0.53
-0.525
-0.515
-0.5
-0.5
-0.505
-0.505
-0.505
-0.485
-0.465
-0.48
-0.48
-0.475
-0.455
-0.435
-0.38
-0.405
-0.375
-0.37
-0.365
-0.32
-0.295
-0.27
-0.265
-0.26
-0.275
-0.265
-0.255
-0.255
-0.285
-0.32
-0.345
-0.365
-0.395
-0.415
-0.445
-0.48
-0.49
-0.5
-0.495
-0.515
-0.53
-0.535
-0.54
-0.53
-0.515
-0.525
-0.545
-0.57
-0.58
-0.575
-0.555
-0.545
-0.545
-0.56
-0.565
-0.54
-0.53
-0.545
-0.54
-0.545
-0.535
-0.5
-0.49
-0.465
-0.435
-0.385
-0.285
-0.11
0.115
0.38
0.64
0.875
1.08
1.15
0.98
0.6
0.085
-0.38
-0.725
-0.875
-0.85
-0.81
-0.78
-0.805
-0.85
-0.865
-0.88
-0.915
-0.935
-0.94
-0.915
-0.905
-0.89
-0.925
-0.945
-0.955
-0.94
-0.895
-0.835
-0.78
-0.735
-0.7
-0.64
-0.575
-0.52
-0.45
-0.435
-0.41
-0.385
-0.355
-0.34
-0.32
-0.325
-0.335
-0.335
-0.305
-0.29
-0.27
-0.265
-0.275
-0.26
-0.24
-0.225
-0.24
-0.225
-0.245
-0.225
-0.2
-0.165
-0.145
-0.14
-0.16
-0.14
-0.125
-0.1
-0.09
-0.08
-0.09
-0.055
-0.025
0.01
0.0
0.015
0.02
0.025
0.06
0.095
0.135
0.14
0.145
0.15
0.175
0.185
0.195
0.195
0.19
0.2
0.22
0.23
0.205
0.19
0.16
0.145
0.115
0.105
0.085
0.055
0.025
-0.005
-0.015
-0.04
-0.075
-0.13
-0.17
-0.185
-0.195
-0.185
-0.215
-0.24
-0.28
-0.305
-0.33
-0.315
-0.34
-0.345
-0.355
-0.365
-0.36
-0.355
-0.375
-0.39
-0.41
-0.425
-0.405
-0.38
-0.38
-0.385
-0.405
-0.41
-0.405
-0.395
-0.395
-0.395
-0.41
-0.39
-0.365
-0.355
-0.365
-0.36
-0.4
-0.395
-0.39
-0.375
-0.365
-0.35
-0.36
-0.365
-0.36
-0.35
-0.37
-0.365
-0.38
-0.38
-0.36
-0.33
-0.335
-0.35
-0.36
-0.37
-0.365
-0.355
-0.355
-0.36
-0.37
-0.36
-0.355
-0.33
-0.325
-0.325
-0.315
-0.305
-0.265
-0.235
-0.23
-0.23
-0.23
-0.21
-0.185
-0.145
-0.135
-0.125
-0.105
-0.1
-0.09
-0.085
-0.105
-0.13
-0.17
-0.19
-0.215
-0.24
-0.275
-0.305
-0.325
-0.35
-0.35
-0.355
-0.365
-0.375
-0.395
-0.395
-0.39
-0.4
-0.405
-0.43
-0.44
-0.46
-0.43
-0.41
-0.405
-0.41
-0.44
-0.44
-0.435
-0.41
-0.395
-0.41
-0.42
-0.385
-0.36
-0.325
-0.3
-0.25
-0.145
0.015
0.265
0.53
0.81
1.05
1.2
1.2
0.975
0.53
-0.02
-0.51
-0.755
-0.79
-0.715
-0.635
-0.645
-0.695
-0.745
-0.805
-0.8
-0.775
-0.765
-0.745
-0.77
-0.79
-0.795
-0.79
-0.755
-0.73
-0.665
-0.62
-0.56
-0.515
-0.45
-0.395
-0.345
-0.3
-0.265
-0.24
-0.2
-0.2
-0.2
-0.21
-0.185
-0.16
-0.145
-0.145
-0.16
-0.14
-0.125
-0.105
-0.115
-0.12
-0.125
-0.105
-0.085
-0.055
-0.035
-0.04
-0.05
-0.05
-0.03
0.0
0.005
0.01
0.015
0.04
0.065
0.08
0.095
0.09
0.09
0.1
0.13
0.16
0.175
0.19
0.19
0.21
0.21
0.235
0.245
0.255
0.26
0.275
0.305
0.31
0.305
0.275
0.255
0.225
0.215
0.215
0.2
0.165
0.13
0.1
0.075
0.07
0.03
-0.015
-0.065
-0.065
-0.065
-0.08
-0.085
-0.12
-0.17
-0.19
-0.195
-0.21
-0.205
-0.225
-0.25
-0.25
-0.26
