Lead II
-0.175
-0.195
-0.205
-0.22
-0.205
-0.185
-0.18
-0.175
-0.19
-0.205
-0.19
-0.19
-0.175
-0.19
-0.185
-0.2
-0.195
-0.185
-0.17
-0.195
-0.22
-0.225
-0.205
-0.195
-0.17
-0.19
-0.195
-0.19
-0.18
-0.16
-0.16
-0.155
-0.165
-0.17
-0.17
-0.15
-0.14
-0.145
-0.16
-0.165
-0.155
-0.14
-0.135
-0.15
-0.155
-0.155
-0.135
-0.095
-0.03
0.09
0.365
0.785
1.18
1.285
1.13
0.925
0.775
0.71
0.65
0.565
0.485
0.395
0.28
0.17
0.04
-0.065
-0.18
-0.35
-0.495
-0.675
-0.82
-0.975
-1.15
-1.295
-1.46
-1.58
-1.68
-1.765
-1.82
-1.89
-1.945
-1.98
-1.98
-1.93
-1.885
-1.85
-1.79
-1.725
-1.6
-1.455
-1.305
-1.165
-1.05
-0.965
-0.905
-0.87
-0.815
-0.76
-0.695
-0.63
-0.56
-0.465
-0.375
-0.31
-0.245
-0.175
-0.11
-0.05
0.0
0.035
0.045
0.045
0.08
0.115
0.145
0.135
0.135
0.13
0.145
0.18
0.2
0.195
0.205
0.2
0.235
0.27
0.28
0.29
0.285
0.28
0.285
0.325
0.335
0.335
0.32
0.345
0.36
0.38
0.41
0.43
0.43
0.44
0.46
0.485
0.525
0.535
0.545
0.55
0.575
0.6
0.63
0.65
0.66
0.66
0.68
0.72
0.76
0.765
0.78
0.78
0.79
0.82
0.845
0.86
0.865
0.875
0.88
0.895
0.89
0.9
0.875
0.87
0.855
0.86
0.855
0.82
0.78
0.735
0.71
0.69
0.67
0.635
0.595
0.54
0.51
0.49
0.46
0.435
0.38
0.325
0.3
0.265
0.235
0.195
0.15
0.12
0.08
0.08
0.055
0.015
-0.005
-0.025
-0.035
-0.035
-0.035
-0.06
-0.07
-0.105
-0.095
-0.1
-0.105
-0.13
-0.135
-0.15
-0.145
-0.145
-0.125
-0.135
-0.15
-0.175
-0.155
-0.13
-0.115
-0.125
-0.135
-0.15
-0.135
-0.13
-0.115
-0.12
-0.135
-0.155
-0.135
-0.125
-0.12
-0.125
-0.155
-0.165
-0.17
-0.15
-0.15
-0.155
-0.17
-0.19
-0.175
-0.17
-0.175
-0.185
-0.195
-0.21
-0.225
-0.19
-0.195
-0.195
-0.21
-0.22
-0.22
-0.205
-0.215
-0.22
-0.25
-0.26
-0.255
-0.25
-0.24
-0.25
-0.265
-0.27
-0.26
-0.25
-0.245
-0.255
-0.27
-0.28
-0.26
-0.245
-0.23
-0.235
-0.25
-0.255
-0.24
-0.225
-0.22
-0.23
-0.245
-0.255
-0.255
-0.245
-0.245
-0.245
-0.25
-0.265
-0.265
-0.25
-0.24
-0.25
-0.27
-0.3
-0.275
-0.27
-0.255
-0.26
-0.27
-0.3
-0.285
-0.28
-0.29
-0.28
-0.3
-0.305
-0.3
-0.3
-0.295
-0.29
-0.3
-0.305
-0.29
-0.275
-0.275
-0.27
-0.265
-0.265
-0.26
-0.25
-0.235
-0.235
-0.25
-0.245
-0.245
-0.24
-0.23
-0.235
-0.23
-0.21
-0.2
-0.155
-0.105
0.0
0.22
0.585
0.99
1.205
1.145
0.92
0.73
0.65
0.595
0.535
0.45
0.345
0.225
0.12
0.005
-0.12
-0.23
-0.36
-0.505
-0.64
-0.77
-0.88
-1.0
-1.145
-1.295
-1.455
-1.565
-1.655
-1.715
-1.81
-1.89
-1.96
-1.99
-2.005
-2.005
-2.015
-2.02
-1.995
-1.915
-1.86
-1.79
-1.7
-1.6
-1.47
-1.32
-1.17
-1.055
-0.99
-0.965
-0.95
-0.92
-0.865
-0.805
-0.725
-0.68
-0.63
-0.555
-0.47
-0.4
-0.34
-0.285
-0.245
-0.19
-0.135
-0.095
-0.07
-0.06
-0.04
-0.03
0.0
0.04
0.04
0.05
0.045
0.05
0.065
0.08
0.075
0.075
0.065
0.08
0.105
0.12
0.12
0.125
0.135
0.165
0.18
0.21
0.215
0.215
0.215
0.23
0.25
0.26
0.28
0.275
0.295
0.3
0.335
0.35
0.355
0.355
0.365
0.39
0.405
0.45
0.465
0.46
0.495
0.535
0.57
0.61
0.615
0.625
0.63
0.655
0.68
0.705
0.71
0.72
0.73
0.735
0.745
0.77
0.78
0.76
0.75
0.75
0.76
0.75
0.74
0.72
0.705
0.695
0.675
0.655
0.65
0.61
0.565
0.555
0.515
0.5
0.445
0.41
0.355
0.315
0.28
0.24
0.185
0.14
0.08
0.06
0.035
0.015
-0.025
-0.07
-0.105
-0.115
-0.12
-0.125
-0.14
-0.175
-0.2
-0.205
-0.205
-0.195
-0.21
-0.255
-0.265
-0.265
-0.255
-0.28
-0.285
-0.31
-0.325
-0.34
-0.315
-0.285
-0.295
-0.3
-0.315
-0.295
-0.28
-0.275
-0.3
-0.3
-0.32
-0.32
-0.315
-0.295
-0.305
-0.32
-0.355
-0.34
-0.335
-0.325
-0.34
-0.355
-0.35
-0.345
-0.33
-0.32
-0.32
-0.335
-0.335
-0.34
-0.33
-0.32
-0.32
-0.335
-0.345
-0.34
-0.325
-0.32
-0.33
-0.36
-0.355
-0.355
-0.345
-0.345
-0.375
-0.41
-0.41
-0.42
-0.41
-0.39
-0.395
-0.41
-0.41
-0.405
-0.41
-0.395
-0.39
-0.405
-0.42
-0.42
-0.41
-0.405
-0.415
-0.44
-0.45
-0.435
-0.425
-0.415
-0.43
-0.44
-0.445
-0.455
-0.445
-0.42
-0.415
-0.43
-0.445
-0.45
-0.42
-0.405
-0.415
-0.425
-0.44
-0.425
-0.4
-0.405
-0.385
-0.4
-0.4
-0.39
-0.385
-0.385
-0.4
-0.42
-0.43
-0.42
-0.41
-0.415
-0.425
-0.435
-0.435
-0.415
-0.395
-0.39
-0.405
-0.42
-0.42
-0.425
-0.405
-0.39
-0.375
-0.385
-0.4
-0.415
-0.4
-0.36
-0.355
-0.345
-0.325
-0.275
-0.205
-0.055
0.26
0.675
0.97
1.035
0.855
0.68
0.58
0.52
0.45
0.37
0.29
0.23
0.14
0.02
-0.095
-0.19
-0.295
-0.385
-0.51
-0.665
-0.8
-0.935
-1.08
-1.22
-1.38
-1.535
-1.64
-1.735
-1.815
-1.885
-1.965
-2.05
-2.12
-2.16
-2.165
-2.175
-2.19
-2.18
-2.16
-2.11
-2.04
-1.985
-1.93
-1.855
-1.765
-1.64
-1.515
-1.355
-1.23
-1.145
-1.095
-1.06
-0.995
-0.925
-0.87
-0.82
-0.77
-0.715
-0.63
-0.555
-0.505
-0.455
-0.4
-0.335
-0.27
-0.215
-0.18
-0.17
-0.155
-0.115
-0.075
-0.055
-0.055
-0.035
-0.05
-0.035
-0.02
-0.01
-0.02
-0.03
-0.035
-0.025
0.01
0.035
0.03
0.025
0.045
0.055
0.08
0.105
0.11
0.1
0.12
0.125
0.155
0.155
0.165
0.17
0.17
0.205
0.21
0.235
0.25
0.245
0.245
0.26
0.285
0.33
0.335
0.33
0.35
0.37
0.395
0.415
0.44
0.445
0.455
0.48
0.515
0.535
0.55
0.56
0.56
0.585
0.61
0.64
0.665
0.67
0.67
0.68
0.71
0.735
0.735
0.74
0.72
0.755
0.775
0.775
0.77
0.755
0.75
0.735
0.76
0.76
0.745
0.705
0.68
0.645
0.655
0.63
0.585
0.55
0.505
0.475
0.445
0.425
0.37
0.31
0.265
0.23
0.2
0.17
0.14
0.075
0.035
0.01
-0.015
-0.045
-0.075
-0.13
-0.17
-0.2
-0.22
-0.22
-0.245
-0.29
-0.315
-0.32
-0.325
-0.33
-0.34
-0.35
-0.365
-0.385
-0.395
-0.39
-0.405
-0.405
-0.405
-0.41
-0.39
-0.38
-0.39
-0.4
-0.41
-0.405
-0.405
-0.39
-0.395
-0.41
-0.42
-0.42
-0.415
-0.405
-0.41
-0.42
-0.445
-0.435
-0.425
-0.42
-0.435
-0.45
-0.455
-0.47
-0.475
-0.445
-0.455
-0.475
-0.485
-0.48
-0.49
-0.49
-0.49
-0.52
-0.535
-0.52
-0.52
-0.515
-0.525
-0.53
-0.535
-0.545
-0.525
-0.53
-0.535
-0.56
-0.575
-0.575
-0.555
-0.55
-0.55
-0.565
-0.565
-0.56
-0.545
-0.525
-0.545
-0.56
-0.57
-0.57
-0.58
-0.555
-0.565
-0.565
-0.585
-0.585
-0.58
-0.575
-0.585
-0.61
-0.595
-0.6
-0.585
-0.6
-0.605
-0.61
-0.625
-0.62
-0.615
-0.605
-0.62
-0.62
-0.645
-0.625
-0.635
-0.635
-0.625
-0.63
-0.64
-0.645
-0.635
-0.625
-0.635
-0.655
-0.66
-0.65
-0.64
-0.63
-0.635
-0.64
-0.645
-0.64
-0.63
-0.61
-0.62
-0.625
-0.635
-0.64
-0.625
-0.615
-0.6
-0.62
-0.625
-0.62
-0.61
-0.62
-0.62
-0.625
-0.65
-0.63
-0.615
-0.605
-0.615
-0.605
-0.615
-0.585
-0.545
-0.49
-0.405
-0.235
0.055
0.43
0.775
0.945
0.875
0.685
0.525
0.425
0.365
0.315
0.23
0.115
0.055
-0.045
-0.11
-0.2
-0.31
-0.42
-0.53
-0.63
-0.735
-0.81
-0.945
-1.06
-1.185
-1.305
-1.41
-1.515
-1.625
-1.73
-1.82
-1.89
-1.96
-2.0
-2.085
-2.18
-2.225
-2.255
-2.265
-2.27
-2.275
-2.255
-2.24
-2.205
-2.155
-2.135
-2.055
-1.97
-1.865
-1.73
-1.605
-1.5
-1.435
-1.385
-1.375
-1.35
-1.31
-1.27
-1.22
-1.175
-1.125
-1.065
-0.98
-0.93
-0.875
-0.83
-0.785
-0.72
-0.67
-0.625
-0.595
-0.56
-0.545
-0.51
-0.475
-0.435
-0.425
-0.41
-0.39
-0.37
-0.355
-0.335
-0.335
-0.35
-0.355
-0.345
-0.315
-0.32
-0.31
-0.32
-0.325
-0.31
-0.3
-0.28
-0.3
-0.305
-0.3
-0.275
-0.26
-0.255
-0.26
-0.27
-0.27
-0.25
-0.23
-0.21
-0.21
-0.205
-0.215
-0.19
-0.17
-0.165
-0.15
-0.12
-0.12
-0.095
-0.06
-0.04
-0.035
-0.035
-0.015
-0.005
0.02
0.035
0.055
0.075
0.07
0.105
0.12
0.165
0.185
0.195
0.205
0.235
0.255
0.295
0.3
0.3
0.29
0.325
0.35
0.375
0.375
0.375
0.365
0.385
0.4
0.415
0.41
0.39
0.38
0.355
0.38
0.37
0.345
0.31
0.3
0.285
0.275
0.255
0.24
0.21
0.175
0.155
0.145
0.11
0.09
0.05
0.015
-0.015
-0.045
-0.05
-0.1
-0.14
-0.185
-0.215
-0.225
-0.255
-0.295
-0.345
-0.385
-0.39
-0.395
-0.425
-0.44
-0.46
-0.495
-0.515
-0.52
-0.53
-0.55
-0.58
-0.6
-0.6
-0.615
-0.61
-0.63
-0.66
-0.685
-0.68
-0.675
-0.675
-0.69
-0.72
-0.735
-0.725
-0.695
-0.705
-0.7
-0.725
-0.73
-0.74
-0.74
-0.735
-0.73
-0.75
-0.77
-0.77
-0.75
-0.745
-0.755
-0.76
-0.765
-0.755
-0.74
-0.73
-0.73
-0.745
-0.745
-0.755
-0.74
-0.74
-0.73
-0.745
-0.75
-0.745
-0.73
-0.74
-0.75
-0.765
-0.78
-0.775
-0.76
-0.76
-0.765
-0.77
-0.78
-0.78
-0.775
-0.75
-0.755
-0.775
-0.785
-0.775
-0.765
-0.76
-0.765
-0.775
-0.785
-0.78
-0.755
-0.75
-0.765
-0.785
-0.795
-0.775
-0.775
-0.765
-0.775
-0.775
-0.785
-0.78
-0.78
-0.76
-0.775
-0.795
-0.8
-0.79
-0.785
-0.775
-0.78
-0.795
-0.81
-0.82
-0.81
-0.79
-0.795
-0.805
-0.815
-0.8
-0.8
-0.785
-0.785
-0.8
-0.82
-0.815
-0.805
-0.79
-0.795
-0.8
-0.815
-0.795
-0.79
-0.785
-0.775
-0.8
-0.79
-0.8
-0.785
-0.775
-0.78
-0.81
-0.81
-0.8
-0.795
-0.795
-0.79
-0.82
-0.82
-0.82
-0.815
-0.795
-0.8
-0.8
-0.79
-0.81
-0.79
-0.765
-0.785
-0.8
-0.79
-0.785
-0.765
-0.765
-0.775
-0.79
-0.8
-0.815
-0.79
-0.8
-0.8
-0.795
-0.805
-0.785
-0.775
-0.775
-0.77
-0.775
-0.805
-0.79
-0.775
-0.765
-0.765
-0.765
-0.76
-0.76
-0.73
-0.705
-0.685
-0.66
-0.615
-0.475
-0.175
0.23
0.67
0.925
0.885
0.655
0.43
0.33
0.255
0.175
0.085
-0.01
-0.1
-0.16
-0.285
-0.405
-0.525
-0.645
-0.74
-0.86
-0.995
-1.115
-1.235
-1.36
-1.485
-1.62
-1.745
-1.845
-1.93
-2.0
-2.06
-2.12
-2.175
-2.24
-2.265
-2.265
-2.245
-2.23
-2.2
-2.175
-2.165
-2.11
-2.025
-1.92
-1.81
-1.7
-1.57
-1.455
-1.37
-1.34
-1.325
-1.315
-1.275
-1.2
-1.135
-1.065
-1.015
-0.965
-0.915
-0.865
-0.8
-0.76
-0.72
-0.685
-0.66
-0.62
-0.58
-0.555
-0.525
-0.52
-0.49
-0.47
-0.46
-0.445
-0.445
-0.45
-0.445
-0.435
-0.41
-0.4
-0.4
-0.41
-0.405
-0.39
-0.375
-0.35
-0.355
-0.355
-0.35
-0.34
-0.31
-0.29
-0.295
-0.305
-0.3
-0.295
-0.26
-0.24
-0.24
-0.24
-0.23
-0.21
-0.18
-0.145
-0.125
-0.13
-0.14
-0.105
-0.075
-0.06
-0.05
-0.06
-0.04
-0.005
0.045
0.085
0.115
0.13
0.145
0.18
0.225
0.255
0.285
0.285
0.3
0.32
0.36
0.385
0.395
0.41
0.405
0.41
0.41
0.41
0.4
0.355
0.355
0.35
0.345
0.335
0.295
0.26
0.215
0.19
0.16
0.135
0.09
0.035
-0.02
-0.075
-0.08
-0.13
-0.17
-0.225
-0.26
-0.29
-0.305
-0.345
-0.38
-0.42
-0.46
-0.485
-0.48
-0.5
-0.525
-0.56
-0.58
-0.59
-0.6
-0.61
-0.615
-0.63
-0.66
-0.64
-0.63
-0.645
-0.655
-0.675
-0.69
-0.69
-0.69
-0.685
-0.705
-0.705
-0.715
-0.71
-0.69
-0.7
-0.71
-0.72
-0.73
-0.71
-0.685
-0.68
-0.69
-0.71
-0.73
-0.71
-0.715
-0.71
-0.705
-0.725
-0.73
-0.72
-0.71
-0.7
-0.72
-0.725
-0.725
-0.72
-0.71
-0.695
-0.705
-0.72
-0.725
-0.71
-0.7
-0.7
-0.715
-0.73
-0.735
-0.735
-0.725
-0.725
-0.735
-0.75
-0.745
-0.745
-0.735
-0.73
-0.73
-0.755
-0.765
-0.755
-0.745
-0.725
-0.745
-0.745
-0.76
-0.755
-0.74
-0.72
-0.725
-0.735
-0.74
-0.755
-0.735
-0.75
-0.76
-0.765
-0.765
-0.755
-0.745
-0.74
-0.725
-0.73
-0.745
-0.73
-0.705
-0.685
-0.705
-0.715
-0.74
-0.725
-0.72
-0.73
-0.74
-0.735
-0.745
-0.745
-0.72
-0.725
-0.72
-0.735
-0.74
-0.725
-0.725
-0.715
-0.74
-0.755
-0.755
-0.73
-0.72
-0.705
-0.72
-0.73
-0.73
-0.725
-0.72
-0.71
-0.705
-0.705
-0.71
-0.685
-0.665
-0.655
-0.645
-0.65
-0.66
-0.65
-0.635
-0.615
-0.62
-0.615
-0.585
-0.53
-0.42
-0.19
0.185
0.675
1.055
1.14
0.93
0.66
0.475
0.37
0.29
0.195
0.1
0.0
-0.115
-0.24
-0.365
-0.5
-0.585
-0.685
-0.795
-0.915
-1.035
-1.135
-1.23
-1.355
-1.48
-1.61
-1.715
-1.78
-1.825
-1.88
-1.95
-2.02
-2.06
-2.08
-2.09
-2.085
-2.075
-2.07
-2.035
-1.985
-1.925
-1.84
-1.76
-1.67
-1.59
-1.45
-1.345
-1.27
-1.22
-1.19
-1.155
-1.11
-1.035
-0.965
-0.92
-0.875
-0.81
-0.745
-0.67
-0.6
-0.545
-0.49
-0.465
-0.42
-0.395
-0.375
-0.37
-0.365
-0.35
-0.33
-0.31
-0.305
-0.29
-0.275
-0.255
-0.26
-0.25
-0.22
-0.235
-0.255
-0.245
-0.22
-0.215
-0.185
-0.175
-0.17
-0.16
-0.14
-0.11
-0.12
-0.115
-0.105
-0.1
-0.075
-0.045
-0.035
-0.035
-0.025
-0.01
0.02
0.065
0.105
0.13
0.14
0.165
0.185
0.24
0.275
0.305
0.32
0.355
0.4
0.435
0.465
0.475
0.48
0.5
0.525
0.56
0.57
0.575
0.58
0.6
0.6
0.63
0.66
0.665
0.65
0.65
0.645
0.66
0.66
0.63
0.595
0.575
0.545
0.52
0.49
0.465
0.41
0.375
0.335
0.3
0.25
0.21
0.155
0.09
0.065
0.035
0.0
-0.04
-0.095
-0.14
-0.165
-0.195
-0.225
-0.27
-0.305
-0.345
-0.36
-0.375
-0.38
-0.395
-0.43
-0.44
-0.445
-0.445
-0.46
-0.475
-0.49
-0.505
-0.505
-0.475
-0.465
-0.495
-0.485
-0.5
-0.495
-0.465
-0.475
-0.465
-0.475
-0.485
-0.475
-0.46
-0.45
-0.465
-0.47
-0.47
-0.475
-0.46
-0.46
-0.475
-0.495
-0.49
-0.485
-0.47
-0.465
-0.49
-0.49
-0.505
-0.505
-0.49
-0.51
-0.51
-0.52
-0.525
-0.515
-0.5
-0.5
-0.515
-0.535
-0.54
-0.525
-0.495
-0.48
-0.505
-0.51
-0.515
-0.49
-0.485
-0.47
-0.485
-0.495
-0.495
-0.515
-0.49
-0.465
-0.485
-0.49
-0.49
-0.485
-0.475
-0.485
-0.485
-0.505
-0.5
-0.495
-0.485
-0.475
-0.48
-0.515
-0.52
-0.515
-0.505
-0.495
-0.495
-0.53
-0.53
-0.525
-0.51
-0.52
-0.52
-0.52
-0.525
-0.51
-0.505
-0.485
-0.48
-0.485
-0.495
-0.485
-0.46
-0.455
-0.46
-0.48
-0.47
-0.485
-0.46
-0.44
-0.445
-0.455
-0.455
-0.44
-0.435
-0.435
-0.435
-0.46
-0.455
-0.44
-0.425
-0.42
-0.41
-0.435
-0.42
-0.41
-0.375
-0.31
-0.245
-0.09
0.21
0.705
1.145
1.305
1.155
0.86
0.66
0.585
0.53
0.46
0.37
0.275
0.17
0.075
-0.025
-0.145
-0.26
-0.385
-0.5
-0.62
-0.73
-0.87
-0.99
-1.14
-1.28
-1.395
-1.475
-1.54
-1.625
-1.715
-1.78
-1.825
-1.845
-1.85
-1.855
-1.85
-1.82
-1.805
-1.72
-1.66
-1.575
-1.48
-1.36
-1.235
-1.125
-1.07
-1.055
-1.05
-1.02
-0.96
-0.88
-0.815
-0.755
-0.695
-0.64
-0.545
-0.465
-0.415
-0.355
-0.335
-0.3
-0.25
-0.195
-0.17
-0.16
-0.145
-0.145
-0.12
-0.1
-0.085
-0.09
-0.1
-0.09
-0.085
-0.05
-0.035
-0.04
-0.055
-0.055
-0.05
-0.025
-0.025
-0.02
-0.02
-0.01
-0.005
0.01
0.025
0.025
0.02
0.035
0.065
0.095
0.115
0.135
0.165
0.175
0.21
0.215
0.27
0.27
0.295
0.315
0.34
0.375
0.41
0.44
0.445
0.47
0.5
0.535
0.57
0.595
0.61
0.635
0.665
0.7
0.725
0.74
0.735
0.74
0.755
0.755
0.775
0.765
0.75
0.745
0.725
0.735
0.735
0.7
0.665
0.625
0.605
0.58
0.57
0.54
0.5
0.455
0.425
0.385
0.345
0.29
0.23
0.19
0.15
0.13
0.095
0.05
0.0
-0.04
-0.07
-0.085
-0.105
-0.15
-0.2
-0.225
-0.24
-0.24
-0.24
-0.245
-0.26
-0.28
-0.285
-0.285
-0.275
-0.305
-0.32
-0.325
-0.34
-0.315
-0.31
-0.315
-0.345
-0.355
-0.37
-0.365
-0.345
-0.37
-0.38
-0.385
-0.375
-0.36
-0.34
-0.365
-0.37
-0.37
-0.355
-0.325
-0.32
-0.325
-0.34
-0.345
-0.335
-0.33
-0.315
-0.33
-0.36
-0.37
-0.355
-0.355
-0.365
-0.365
-0.38
-0.385
-0.385
-0.37
-0.365
-0.385
-0.385
-0.39
-0.39
-0.38
-0.38
-0.39
-0.39
-0.395
-0.38
-0.365
-0.355
-0.38
-0.395
-0.395
-0.39
-0.385
-0.38
-0.395
-0.41
-0.41
-0.405
-0.385
-0.39
-0.395
-0.42
-0.43
-0.395
-0.38
-0.37
-0.37
-0.38
-0.395
-0.39
-0.365
-0.37
-0.375
-0.385
-0.39
-0.39
-0.385
-0.38
-0.39
-0.41
-0.4
-0.405
-0.405
-0.4
-0.405
-0.425
-0.415
-0.4
-0.39
-0.395
-0.39
-0.395
-0.405
-0.395
-0.37
-0.36
-0.38
-0.395
-0.4
-0.395
-0.375
-0.36
-0.365
-0.38
-0.375
-0.38
-0.355
-0.335
-0.345
-0.345
-0.335
-0.325
-0.315
-0.305
-0.31
-0.305
-0.295
-0.255
-0.2
-0.09
0.125
0.51
1.0
1.365
1.39
1.16
0.905
0.745
0.66
0.59
0.5
0.405
0.305
0.195
0.08
-0.03
-0.15
-0.27
-0.38
-0.51
-0.645
-0.75
-0.85
-0.965
-1.09
-1.24
-1.36
-1.465
-1.555
-1.62
-1.685
-1.755
-1.805
-1.815
-1.81
-1.8
-1.785
-1.765
-1.745
-1.695
-1.605
-1.525
-1.415
-1.31
-1.21
-1.085
-0.975
-0.93
-0.94
-0.925
-0.9
-0.84
-0.775
-0.705
-0.66
-0.61
-0.565
-0.475
-0.415
-0.35
-0.32
-0.275
-0.26
-0.225
-0.195
-0.16
-0.16
-0.15
-0.145
-0.105
-0.07
-0.04
-0.045
-0.05
-0.055
-0.04
-0.015
0.0
0.02
0.015
0.025
0.04
0.06
0.075
0.075
0.075
0.085
0.105
0.13
0.14
0.135
0.14
0.15
0.175
0.195
0.21
0.22
0.23
0.22
0.255
0.29
0.32
0.305
0.315
0.325
0.35
0.395
0.42
0.43
0.435
0.455
0.48
0.525
0.54
0.55
0.56
0.575
0.6
0.605
0.635
0.645
0.67
0.685
0.705
0.75
0.76
0.77
0.78
0.795
0.795
0.81
0.81
0.795
0.78
0.755
0.73
0.71
0.685
0.645
0.605
0.555
0.515
0.515
0.49
0.44
0.375
0.325
0.29
0.26
0.22
0.17
0.11
0.07
0.035
0.03
0.0
-0.04
-0.08
-0.13
-0.125
-0.125
-0.13
-0.165
-0.2
-0.21
-0.23
-0.235
-0.225
-0.245
-0.275
-0.285
-0.285
-0.27
-0.285
-0.3
-0.32
-0.335
-0.315
-0.31
-0.295
-0.325
-0.34
-0.35
-0.34
-0.32
-0.285
-0.295
-0.305
-0.305
-0.315
-0.3
-0.295
-0.305
-0.31
-0.315
-0.315
-0.305
-0.305
-0.31
-0.34
-0.345
-0.33
-0.32
-0.3
-0.31
-0.33
-0.335
-0.335
-0.315
-0.31
-0.325
-0.335
-0.345
-0.33
-0.33
-0.335
-0.34
-0.355
-0.35
-0.35
-0.345
-0.33
-0.345
-0.355
-0.36
-0.345
-0.335
-0.35
-0.36
-0.37
-0.385
-0.385
-0.38
-0.365
-0.385
-0.375
-0.385
-0.36
-0.35
-0.35
-0.355
-0.36
-0.375
-0.355
-0.355
-0.345
-0.35
-0.37
-0.385
-0.395
-0.38
-0.365
-0.37
-0.38
-0.375
-0.37
-0.345
-0.35
-0.37
-0.385
-0.385
-0.385
-0.38
-0.365
-0.38
-0.385
-0.4
-0.4
-0.38
-0.37
-0.375
-0.38
-0.4
-0.39
-0.39
-0.385
-0.385
-0.39
-0.4
-0.405
-0.39
-0.38
-0.385
-0.405
-0.42
-0.41
-0.385
-0.375
-0.37
-0.38
-0.375
-0.37
-0.36
-0.35
-0.36
-0.355
-0.35
-0.325
-0.31
-0.29
-0.29
-0.285
-0.255
-0.195
-0.075
0.155
0.555
1.035
1.355
1.36
1.15
0.905
0.75
0.665
0.585
0.49
0.4
0.29
0.17
0.035
-0.08
-0.17
-0.285
-0.4
-0.525
-0.655
-0.79
-0.91
-1.06
-1.215
-1.375
-1.53
-1.625
-1.715
-1.77
-1.83
-1.875
-1.91
-1.915
-1.9
-1.87
-1.83
-1.81
-1.785
-1.705
-1.62
-1.505
-1.385
-1.27
-1.17
-1.07
-1.015
-0.97
-0.935
-0.885
-0.83
-0.795
-0.72
-0.655
-0.605
-0.57
-0.525
-0.465
-0.405
-0.34
-0.285
-0.275
-0.24
-0.225
-0.195
-0.165
-0.155
-0.145
-0.155
-0.145
-0.135
-0.11
-0.095
-0.11
-0.11
-0.11
-0.105
-0.085
-0.065
-0.065
-0.065
-0.055
-0.045
-0.02
-0.015
-0.01
-0.02
0.0
0.025
0.035
0.05
0.065
0.065
0.055
0.075
0.11
0.125
0.13
0.135
0.145
0.175
0.215
0.245
0.26
0.27
0.29
0.31
0.35
0.375
0.38
0.39
0.4
0.43
0.475
0.5
0.52
0.53
0.55
0.565
0.605
0.615
0.625
0.635
0.64
0.65
0.665
0.675
0.685
0.67
0.67
0.68
0.67
0.655
0.63
0.595
0.575
0.565
0.555
0.515
0.485
0.425
0.375
0.335
0.31
0.27
0.21
0.155
0.09
0.06
0.025
-0.025
-0.07
-0.115
-0.165
-0.195
-0.23
-0.245
-0.295
-0.345
-0.37
-0.385
-0.395
-0.415
-0.445
-0.475
-0.495
-0.51
-0.51
-0.53
-0.55
-0.565
-0.59
-0.595
-0.59
-0.595
-0.6
-0.615
-0.63
-0.605
-0.6
-0.595
-0.62
-0.62
-0.61
-0.59
-0.575
-0.57
-0.57
-0.595
-0.615
-0.61
-0.595
-0.6
-0.61
-0.625
-0.635
-0.625
-0.615
-0.62
-0.635
-0.65
-0.655
-0.645
-0.625
-0.64
-0.655
-0.665
-0.675
-0.665
-0.655
-0.66
-0.67
-0.695
-0.695
-0.695
-0.695
-0.69
-0.7
-0.71
-0.725
-0.72
-0.73
-0.755
-0.765
-0.77
-0.795
-0.775
-0.765
-0.755
-0.77
-0.765
-0.785
-0.755
-0.735
-0.73
-0.725
-0.745
-0.755
-0.73
-0.72
-0.725
-0.72
-0.735
-0.745
-0.75
-0.755
-0.755
-0.75
-0.765
-0.775
-0.765
-0.75
-0.755
-0.755
-0.765
-0.77
-0.76
-0.745
-0.745
-0.77
-0.78
-0.78
-0.775
-0.755
-0.76
-0.77
-0.78
-0.815
-0.8
-0.78
-0.785
-0.8
-0.805
-0.825
-0.825
-0.815
-0.815
-0.825
-0.845
-0.85
-0.845
-0.82
-0.81
-0.8
-0.805
-0.805
-0.79
-0.77
-0.765
-0.775
-0.805
-0.81
-0.79
-0.765
-0.76
-0.765
-0.77
-0.76
-0.755
-0.735
-0.71
-0.71
-0.715
-0.705
-0.67
-0.605
-0.52
-0.36
-0.065
0.36
0.805
1.04
0.985
0.745
0.49
0.33
0.22
0.155
0.055
-0.045
-0.155
-0.25
-0.345
-0.435
-0.55
-0.65
-0.765
-0.86
-0.975
-1.08
-1.2
-1.335
-1.49
-1.605
-1.675
-1.74
-1.775
-1.84
-1.9
-1.94
-1.965
-1.98
-2.005
-2.01
-2.035
-2.04
-2.02
-2.0
-1.98
-1.975
-1.96
-1.93
-1.87
-1.785
-1.7
-1.615
-1.545
-1.465
-1.41
-1.35
-1.325
-1.305
-1.29
-1.245
-1.185
-1.125
-1.065
-1.025
-0.99
-0.955
-0.89
-0.82
-0.78
-0.745
-0.72
-0.705
-0.665
-0.62
-0.61
-0.6
-0.59
-0.59
-0.565
-0.555
-0.56
-0.55
-0.575
-0.58
-0.565
-0.55
-0.54
-0.535
-0.545
-0.53
-0.515
-0.48
-0.465
-0.445
-0.44
-0.435
-0.415
-0.39
-0.375
-0.38
-0.375
-0.375
-0.345
-0.33
-0.3
-0.29
-0.29
-0.285
-0.245
-0.225
-0.2
-0.19
-0.2
-0.18
-0.145
-0.105
-0.1
-0.08
-0.08
-0.06
-0.035
0.01
0.02
0.04
0.06
0.07
0.11
0.135
0.145
0.17
0.18
0.18
0.21
0.235
0.245
0.24
0.23
0.24
0.235
0.27
0.28
0.28
0.28
0.28
0.275
0.27
0.295
0.285
0.26
0.235
0.215
0.195
0.16
0.115
0.04
-0.005
-0.03
-0.065
-0.105
-0.15
-0.21
-0.265
-0.295
-0.31
-0.35
-0.41
-0.455
-0.475
-0.49
-0.51
-0.53
-0.56
-0.585
-0.605
-0.63
-0.615
-0.64
-0.655
-0.69
-0.695
-0.695
-0.685
-0.68
-0.71
-0.725
-0.735
-0.715
-0.715
-0.69
-0.7
-0.71
-0.715
-0.705
-0.685
-0.68
-0.7
-0.695
-0.7
-0.68
-0.65
-0.655
-0.65
-0.67
-0.66
-0.66
-0.665
-0.67
-0.67
-0.695
-0.695
-0.675
-0.68
-0.67
-0.675
-0.685
-0.695
-0.69
-0.685
-0.68
-0.7
-0.71
-0.72
-0.71
-0.705
-0.695
-0.725
-0.74
-0.74
-0.73
-0.73
-0.725
-0.755
-0.745
-0.75
-0.73
-0.725
-0.725
-0.75
-0.755
-0.755
-0.74
-0.725
-0.73
-0.73
-0.735
-0.735
-0.735
-0.71
-0.7
-0.71
-0.71
-0.71
-0.7
-0.68
-0.685
-0.705
-0.71
-0.71
-0.705
-0.69
-0.68
-0.695
-0.705
-0.7
-0.705
-0.69
-0.685
-0.69
-0.71
-0.705
-0.705
-0.685
-0.68
-0.68
-0.7
-0.72
-0.71
-0.695
-0.7
-0.715
-0.715
-0.72
-0.71
-0.685
-0.685
-0.685
-0.7
-0.71
-0.72
-0.7
-0.685
-0.72
-0.72
-0.715
-0.71
-0.685
-0.67
-0.66
-0.67
-0.685
-0.67
-0.65
-0.64
-0.64
-0.65
-0.665
-0.645
-0.63
-0.61
-0.625
-0.625
-0.65
-0.64
-0.61
-0.6
-0.585
-0.605
-0.6
-0.57
-0.54
-0.5
-0.445
-0.385
-0.18
0.2
0.645
1.035
1.19
1.07
0.795
0.565
0.455
0.395
0.315
0.225
0.14
0.07
0.015
-0.06
-0.15
-0.25
-0.33
-0.41
-0.485
-0.56
-0.675
-0.765
-0.865
-0.97
-1.055
-1.12
-1.225
-1.35
-1.42
-1.49
-1.515
-1.565
-1.61
-1.675
-1.72
-1.735
-1.73
-1.735
-1.75
-1.765
-1.77
-1.74
-1.71
-1.7
-1.68
-1.665
-1.6
-1.535
-1.445
-1.355
-1.295
-1.225
-1.17
-1.14
-1.125
-1.115
-1.08
-1.045
-1.02
-0.965
-0.905
-0.86
-0.82
-0.795
-0.755
-0.7
-0.63
-0.59
-0.55
-0.525
-0.52
-0.465
-0.43
-0.42
-0.425
-0.4
-0.385
-0.37
-0.335
-0.33
-0.325
-0.32
-0.315
-0.31
-0.295
-0.27
-0.275
-0.27
-0.25
-0.235
-0.22
-0.2
-0.22
-0.235
-0.235
-0.225
-0.19
-0.175
-0.17
-0.175
-0.16
-0.16
-0.115
-0.105
-0.1
-0.115
-0.1
-0.075
-0.065
-0.055
-0.055
-0.05
-0.035
-0.005
0.01
0.025
0.045
0.06
0.065
0.1
0.125
0.15
0.18
0.175
0.195
0.225
0.265
0.28
0.275
0.285
0.305
0.35
0.38
0.4
0.4
0.41
0.41
0.425
0.445
0.47
0.48
0.47
0.455
0.47
0.47
0.475
0.455
0.415
0.405
0.385
0.38
0.355
0.315
0.27
0.21
0.185
0.155
0.13
0.09
0.04
0.01
-0.015
-0.025
-0.05
-0.075
-0.145
-0.17
-0.185
-0.205
-0.215
-0.255
-0.3
-0.315
-0.32
-0.325
-0.34
-0.37
-0.405
-0.42
-0.43
-0.415
-0.44
-0.425
-0.455
-0.465
-0.455
-0.445
-0.44
-0.45
-0.47
-0.475
-0.46
-0.44
-0.44
-0.43
-0.45
-0.46
-0.455
-0.43
-0.435
-0.445
-0.445
-0.46
-0.43
-0.415
-0.415
-0.425
-0.435
-0.445
-0.425
-0.43
-0.42
-0.43
-0.45
-0.445
-0.445
-0.425
-0.43
-0.435
-0.455
-0.455
-0.445
-0.44
-0.445
-0.455
-0.475
-0.48
-0.475
-0.48
-0.465
-0.48
-0.51
-0.51
-0.495
-0.48
-0.47
-0.475
-0.485
-0.51
-0.495
-0.47
-0.46
-0.475
-0.485
-0.495
-0.48
-0.47
-0.485
-0.48
-0.495
-0.465
-0.46
-0.435
-0.46
-0.45
-0.46
-0.45
-0.445
-0.435
-0.43
-0.445
-0.445
-0.465
-0.45
-0.425
-0.425
-0.44
-0.45
-0.46
-0.445
-0.43
-0.44
-0.445
-0.455
-0.46
-0.46
-0.455
-0.435
-0.46
-0.49
-0.485
-0.48
-0.47
-0.465
-0.465
-0.475
-0.485
-0.49
-0.46
-0.47
-0.47
-0.495
-0.48
-0.48
-0.45
-0.425
-0.435
-0.455
-0.44
-0.44
-0.425
-0.42
-0.43
-0.455
-0.445
-0.425
-0.395
-0.385
-0.385
-0.395
-0.395
-0.385
-0.37
-0.35
-0.35
-0.34
-0.33
-0.29
-0.23
-0.15
0.05
0.42
0.91
1.345
1.465
1.22
0.88
0.665
0.56
0.485
0.4
0.285
0.17
0.075
-0.03
-0.125
-0.22
-0.32
-0.43
-0.53
-0.635
-0.735
-0.805
-0.91
-1.02
-1.135
-1.255
-1.32
-1.385
-1.425
-1.485
-1.53
-1.555
-1.59
-1.575
-1.58
-1.59
-1.585
-1.58
-1.535
-1.51
-1.48
-1.44
-1.38
-1.315
-1.205
-1.095
-0.995
-0.945
-0.92
-0.915
-0.89
-0.85
-0.815
-0.76
-0.72
-0.68
-0.625
-0.58
-0.53
-0.485
-0.445
-0.395
-0.35
-0.29
-0.24
-0.22
-0.2
-0.18
-0.16
-0.115
-0.115
-0.095
-0.105
-0.085
-0.09
-0.07
-0.045
-0.06
-0.05
-0.035
-0.035
-0.015
-0.005
0.0
-0.015
-0.015
0.005
0.03
0.045
0.045
0.045
0.055
0.08
0.09
0.1
0.1
0.1
0.12
0.145
0.175
0.19
0.2
0.195
0.215
0.23
0.255
0.265
0.28
0.28
0.31
0.35
0.38
0.42
0.43
0.44
0.46
0.515
0.545
0.57
0.58
0.605
0.635
0.655
0.69
0.715
0.725
0.74
0.74
0.76
0.79
0.815
0.8
0.79
0.785
0.79
0.785
