Lead II
-0.125
-0.135
-0.145
-0.16
-0.2
-0.235
-0.245
-0.265
-0.255
-0.27
-0.295
-0.325
-0.33
-0.315
-0.295
-0.32
-0.355
-0.375
-0.385
-0.38
-0.355
-0.36
-0.38
-0.38
-0.375
-0.36
-0.345
-0.345
-0.365
-0.375
-0.38
-0.37
-0.36
-0.35
-0.365
-0.375
-0.39
-0.36
-0.365
-0.37
-0.38
-0.385
-0.38
-0.37
-0.365
-0.365
-0.375
-0.385
-0.39
-0.375
-0.36
-0.38
-0.38
-0.405
-0.405
-0.41
-0.39
-0.39
-0.415
-0.45
-0.45
-0.45
-0.46
-0.47
-0.485
-0.5
-0.485
-0.465
-0.45
-0.465
-0.45
-0.455
-0.45
-0.44
-0.43
-0.45
-0.475
-0.49
-0.48
-0.45
-0.415
-0.425
-0.47
-0.485
-0.49
-0.46
-0.445
-0.44
-0.46
-0.485
-0.49
-0.445
-0.42
-0.405
-0.4
-0.415
-0.42
-0.43
-0.435
-0.435
-0.465
-0.47
-0.48
-0.47
-0.435
-0.425
-0.425
-0.425
-0.445
-0.46
-0.445
-0.45
-0.465
-0.49
-0.495
-0.485
-0.47
-0.445
-0.435
-0.45
-0.465
-0.455
-0.435
-0.425
-0.42
-0.42
-0.41
-0.39
-0.39
-0.405
-0.42
-0.42
-0.395
-0.38
-0.365
-0.33
-0.31
-0.27
-0.16
0.09
0.54
1.09
1.475
1.515
1.27
1.01
0.83
0.745
0.645
0.545
0.435
0.33
0.255
0.155
0.045
-0.065
-0.17
-0.245
-0.32
-0.435
-0.575
-0.72
-0.855
-0.985
-1.11
-1.22
-1.325
-1.38
-1.46
-1.54
-1.57
-1.635
-1.66
-1.685
-1.7
-1.705
-1.665
-1.665
-1.655
-1.645
-1.625
-1.56
-1.485
-1.425
-1.365
-1.255
-1.14
-1.04
-0.965
-0.925
-0.905
-0.87
-0.845
-0.795
-0.735
-0.685
-0.645
-0.595
-0.515
-0.43
-0.365
-0.315
-0.305
-0.31
-0.31
-0.305
-0.26
-0.205
-0.185
-0.17
-0.13
-0.1
-0.085
-0.09
-0.095
-0.105
-0.1
-0.095
-0.07
-0.06
-0.05
-0.04
-0.025
-0.005
0.025
0.025
0.035
0.015
0.02
0.04
0.055
0.075
0.07
0.06
0.065
0.09
0.105
0.13
0.13
0.125
0.15
0.175
0.205
0.205
0.2
0.205
0.215
0.235
0.285
0.285
0.29
0.3
0.33
0.365
0.405
0.43
0.44
0.465
0.485
0.515
0.54
0.57
0.595
0.59
0.62
0.655
0.68
0.685
0.695
0.695
0.72
0.745
0.77
0.775
0.77
0.75
0.74
0.74
0.74
0.745
0.72
0.67
0.65
0.635
0.62
0.585
0.52
0.465
0.435
0.415
0.395
0.355
0.3
0.245
0.2
0.17
0.145
0.085
0.025
-0.015
-0.045
-0.045
-0.06
-0.11
-0.14
-0.16
-0.17
-0.195
-0.21
-0.235
-0.245
-0.255
-0.245
-0.235
-0.23
-0.225
-0.25
-0.245
-0.235
-0.235
-0.23
-0.24
-0.27
-0.27
-0.27
-0.26
-0.245
-0.25
-0.26
-0.255
-0.25
-0.235
-0.215
-0.235
-0.23
-0.255
-0.26
-0.245
-0.24
-0.24
-0.25
-0.275
-0.275
-0.26
-0.24
-0.24
-0.25
-0.265
-0.28
-0.27
-0.275
-0.285
-0.305
-0.305
-0.305
-0.295
-0.285
-0.275
-0.3
-0.32
-0.32
-0.32
-0.33
-0.315
-0.32
-0.325
-0.31
-0.295
-0.285
-0.285
-0.31
-0.33
-0.325
-0.32
-0.305
-0.285
-0.315
-0.31
-0.335
-0.34
-0.33
-0.35
-0.35
-0.35
-0.335
-0.335
-0.325
-0.32
-0.32
-0.345
-0.35
-0.35
-0.325
-0.325
-0.33
-0.33
-0.335
-0.32
-0.31
-0.315
-0.32
-0.335
-0.325
-0.33
-0.295
-0.3
-0.305
-0.33
-0.33
-0.305
-0.3
-0.305
-0.32
-0.335
-0.355
-0.34
-0.33
-0.32
-0.32
-0.335
-0.315
-0.31
-0.29
-0.28
-0.29
-0.305
-0.285
-0.28
-0.265
-0.245
-0.25
-0.265
-0.255
-0.225
-0.2
-0.175
-0.145
-0.075
0.13
0.53
1.04
1.435
1.54
1.34
1.055
0.875
0.795
0.735
0.64
0.535
0.43
0.345
0.27
0.195
0.085
0.0
-0.1
-0.18
-0.255
-0.37
-0.48
-0.61
-0.735
-0.82
-0.905
-0.99
-1.095
-1.17
-1.215
-1.265
-1.305
-1.37
-1.39
-1.42
-1.435
-1.415
-1.385
-1.385
-1.38
-1.395
-1.375
-1.31
-1.23
-1.13
-1.03
-0.94
-0.855
-0.78
-0.755
-0.735
-0.72
-0.71
-0.67
-0.605
-0.56
-0.5
-0.445
-0.38
-0.325
-0.255
-0.19
-0.165
-0.13
-0.105
-0.07
-0.045
-0.005
-0.01
-0.02
-0.02
-0.02
-0.005
0.005
0.005
-0.015
-0.03
-0.02
0.0
0.015
0.01
0.02
0.025
0.04
0.08
0.095
0.09
0.09
0.09
0.095
0.11
0.14
0.155
0.145
0.13
0.145
0.17
0.185
0.205
0.195
0.205
0.215
0.23
0.255
0.27
0.275
0.285
0.3
0.325
0.37
0.375
0.395
0.395
0.43
0.46
0.49
0.49
0.505
0.515
0.53
0.555
0.58
0.605
0.63
0.64
0.665
0.69
0.705
0.7
0.7
0.685
0.7
0.725
0.74
0.75
0.73
0.71
0.71
0.705
0.715
0.695
0.66
0.62
0.585
0.57
0.54
0.505
0.47
0.425
0.385
0.365
0.35
0.315
0.26
0.22
0.185
0.18
0.175
0.145
0.105
0.06
0.035
0.015
0.005
-0.015
-0.05
-0.08
-0.105
-0.12
-0.12
-0.12
-0.13
-0.125
-0.135
-0.14
-0.13
-0.165
-0.19
-0.215
-0.215
-0.19
-0.175
-0.18
-0.175
-0.19
-0.185
-0.185
-0.175
-0.16
-0.18
-0.185
-0.18
-0.195
-0.17
-0.19
-0.18
-0.19
-0.195
-0.19
-0.17
-0.185
-0.2
-0.205
-0.2
-0.19
-0.16
-0.17
-0.185
-0.205
-0.225
-0.22
-0.21
-0.225
-0.22
-0.215
-0.205
-0.2
-0.205
-0.24
-0.255
-0.27
-0.27
-0.26
-0.26
-0.235
-0.25
-0.25
-0.23
-0.23
-0.215
-0.205
-0.23
-0.235
-0.23
-0.215
-0.205
-0.215
-0.21
-0.235
-0.235
-0.225
-0.215
-0.215
-0.21
-0.245
-0.235
-0.22
-0.205
-0.215
-0.235
-0.255
-0.24
-0.23
-0.22
-0.21
-0.22
-0.245
-0.235
-0.22
-0.205
-0.21
-0.23
-0.245
-0.24
-0.23
-0.215
-0.225
-0.22
-0.23
-0.22
-0.22
-0.225
-0.225
-0.225
-0.235
-0.225
-0.205
-0.19
-0.18
-0.195
-0.2
-0.18
-0.185
-0.165
-0.17
-0.17
-0.165
-0.175
-0.165
-0.145
-0.14
-0.145
-0.165
-0.165
-0.155
-0.14
-0.135
-0.125
-0.13
-0.125
-0.105
-0.075
-0.04
-0.015
0.025
0.185
0.495
0.965
1.48
1.82
1.94
1.885
1.865
1.93
2.03
2.11
2.13
2.1
2.035
1.915
1.755
1.58
1.34
1.06
0.73
0.44
0.215
0.09
0.055
0.085
0.115
0.14
0.13
0.11
0.085
0.055
0.065
0.05
0.04
0.01
-0.015
-0.04
-0.04
-0.045
-0.055
-0.085
-0.1
-0.115
-0.125
-0.13
-0.145
-0.17
-0.21
-0.21
-0.205
-0.19
-0.2
-0.2
-0.225
-0.23
-0.23
-0.21
-0.235
-0.265
-0.275
-0.285
-0.295
-0.275
-0.3
-0.31
-0.335
-0.355
-0.34
-0.34
-0.34
-0.36
-0.395
-0.385
-0.39
-0.4
-0.4
-0.42
-0.44
-0.44
-0.435
-0.43
-0.425
-0.44
-0.46
-0.48
-0.48
-0.495
-0.515
-0.52
-0.555
-0.555
-0.575
-0.58
-0.605
-0.63
-0.66
-0.665
-0.67
-0.675
-0.695
-0.72
-0.765
-0.785
-0.8
-0.8
-0.835
-0.87
-0.9
-0.915
-0.92
-0.925
-0.93
-0.935
-0.955
-0.965
-0.955
-0.945
-0.935
-0.955
-0.95
-0.935
-0.9
-0.85
-0.84
-0.805
-0.795
-0.775
-0.73
-0.695
-0.66
-0.655
-0.64
-0.605
-0.58
-0.54
-0.515
-0.505
-0.49
-0.475
-0.445
-0.42
-0.405
-0.39
-0.385
-0.365
-0.35
-0.32
-0.32
-0.31
-0.32
-0.315
-0.295
-0.28
-0.275
-0.29
-0.29
-0.285
-0.27
-0.26
-0.265
-0.255
-0.27
-0.265
-0.245
-0.235
-0.235
-0.24
-0.245
-0.25
-0.24
-0.215
-0.235
-0.24
-0.255
-0.24
-0.23
-0.22
-0.215
-0.21
-0.225
-0.215
-0.2
-0.18
-0.185
-0.19
-0.2
-0.205
-0.18
-0.165
-0.155
-0.165
-0.18
-0.19
-0.17
-0.15
-0.145
-0.145
-0.16
-0.16
-0.15
-0.135
-0.14
-0.155
-0.165
-0.16
-0.155
-0.135
-0.155
-0.155
-0.16
-0.15
-0.15
-0.14
-0.135
-0.145
-0.15
-0.15
-0.145
-0.145
-0.13
-0.145
-0.15
-0.15
-0.135
-0.125
-0.115
-0.13
-0.145
-0.135
-0.115
-0.11
-0.1
-0.105
-0.125
-0.125
-0.12
-0.11
-0.12
-0.135
-0.13
-0.14
-0.105
-0.09
-0.075
-0.085
-0.09
-0.095
-0.095
-0.08
-0.08
-0.085
-0.105
-0.095
-0.09
-0.07
-0.065
-0.08
-0.105
-0.095
-0.09
-0.08
-0.065
-0.075
-0.08
-0.08
-0.065
-0.065
-0.065
-0.09
-0.1
-0.115
-0.12
-0.085
-0.095
-0.1
-0.125
-0.105
-0.1
-0.08
-0.075
-0.085
-0.1
-0.105
-0.095
-0.085
-0.09
-0.1
-0.12
-0.105
-0.09
-0.075
-0.055
-0.065
-0.08
-0.075
-0.06
-0.045
-0.045
-0.055
-0.06
-0.065
-0.06
-0.035
-0.035
-0.03
-0.04
-0.025
0.005
0.03
0.05
0.085
0.18
0.435
0.895
1.37
1.67
1.655
1.4
1.165
1.025
0.97
0.91
0.81
0.705
0.6
0.515
0.43
0.33
0.22
0.11
0.025
-0.065
-0.16
-0.265
-0.405
-0.545
-0.66
-0.775
-0.875
-0.94
-1.005
-1.075
-1.115
-1.16
-1.17
-1.185
-1.185
-1.17
-1.165
-1.11
-1.065
-1.01
-0.95
-0.915
-0.87
-0.775
-0.68
-0.57
-0.49
-0.435
-0.385
-0.33
-0.28
-0.255
-0.19
-0.13
-0.08
-0.02
0.025
0.045
0.06
0.07
0.08
0.1
0.115
0.12
0.105
0.09
0.08
0.095
0.09
0.095
0.085
0.09
0.1
0.135
0.155
0.155
0.16
0.155
0.155
0.165
0.17
0.185
0.17
0.165
0.15
0.175
0.185
0.195
0.195
0.18
0.19
0.205
0.215
0.225
0.225
0.22
0.215
0.245
0.265
0.27
0.265
0.275
0.28
0.295
0.315
0.325
0.33
0.315
0.335
0.345
0.375
0.38
0.385
0.4
0.41
0.44
0.47
0.475
0.48
0.48
0.48
0.505
0.545
0.55
0.565
0.57
0.595
0.62
0.65
0.65
0.655
0.665
0.665
0.68
0.69
0.695
0.665
0.655
0.665
0.655
0.655
0.63
0.595
0.57
0.545
0.53
0.52
0.49
0.455
0.415
0.385
0.37
0.36
0.325
0.29
0.25
0.235
0.21
0.22
0.18
0.145
0.105
0.1
0.095
0.09
0.08
0.07
0.04
0.04
0.035
0.05
0.02
0.015
-0.01
-0.005
0.0
0.015
0.025
0.01
-0.01
0.0
0.01
0.03
0.04
0.0
0.005
0.015
0.02
0.035
0.02
0.015
-0.005
-0.01
-0.005
0.005
0.02
-0.005
-0.015
-0.015
-0.005
0.015
0.01
0.0
-0.005
-0.01
0.005
0.02
0.025
0.0
-0.02
-0.025
-0.005
0.0
-0.01
-0.015
-0.02
-0.015
0.0
0.01
0.015
0.0
-0.02
-0.015
0.0
0.005
-0.005
-0.01
-0.015
-0.02
-0.005
0.02
0.01
0.005
-0.005
0.015
0.02
0.035
0.035
0.035
0.005
0.015
0.025
0.035
0.04
0.02
0.01
0.005
0.015
0.03
0.03
0.015
0.0
-0.01
0.015
0.015
0.015
0.015
-0.015
-0.03
-0.01
-0.005
-0.005
-0.02
-0.035
-0.04
-0.035
-0.035
-0.015
-0.03
-0.03
-0.025
-0.015
-0.005
-0.005
-0.02
-0.03
-0.05
-0.055
-0.025
-0.03
-0.04
-0.045
-0.045
-0.03
-0.005
0.0
-0.005
-0.005
-0.005
0.01
0.015
0.025
0.015
0.005
-0.01
0.01
0.035
0.025
0.01
-0.005
-0.005
0.02
0.035
0.045
0.045
0.01
0.015
0.025
0.035
0.045
0.025
0.015
0.005
0.01
0.03
0.035
0.04
0.035
0.055
0.1
0.14
0.195
0.285
0.51
0.895
1.335
1.625
1.68
1.49
1.265
1.125
1.055
1.005
0.925
0.81
0.72
0.625
0.545
0.455
0.345
0.235
0.12
0.015
-0.08
-0.17
-0.27
-0.4
-0.515
-0.62
-0.735
-0.805
-0.905
-0.98
-1.06
-1.125
-1.175
-1.225
-1.27
-1.3
-1.315
-1.33
-1.31
-1.28
-1.25
-1.23
-1.225
-1.185
-1.1
-0.995
-0.87
-0.78
-0.665
-0.58
-0.505
-0.475
-0.47
-0.46
-0.455
-0.43
-0.385
-0.31
-0.27
-0.225
-0.19
-0.135
-0.05
0.025
0.085
0.13
0.17
0.195
0.245
0.285
0.285
0.305
0.305
0.315
0.34
0.365
0.36
0.37
0.36
0.365
0.36
0.385
0.405
0.39
0.38
0.38
0.415
0.435
0.455
0.455
0.455
0.455
0.48
0.5
0.505
0.515
0.495
0.515
0.535
0.56
0.58
0.595
0.6
0.61
0.645
0.675
0.7
0.705
0.7
0.715
0.75
0.775
0.815
0.815
0.835
0.855
0.9
0.925
0.95
0.96
0.97
1.0
1.02
1.04
1.06
1.065
1.065
1.095
1.1
1.12
1.125
1.12
1.12
1.13
1.165
1.195
1.17
1.175
1.13
1.11
1.115
1.1
1.075
1.035
0.995
0.97
0.96
0.925
0.895
0.835
0.795
0.765
0.735
0.71
0.665
0.605
0.55
0.52
0.48
0.45
0.42
0.38
0.325
0.3
0.3
0.29
0.285
0.25
0.23
0.22
0.215
0.22
0.205
0.185
0.155
0.155
0.16
0.165
0.15
0.125
0.12
0.12
0.12
0.125
0.125
0.11
0.1
0.105
0.12
0.105
0.095
0.12
0.1
0.105
0.105
0.12
0.125
0.115
0.1
0.095
0.105
0.12
0.12
0.12
0.11
0.095
0.105
0.12
0.11
0.09
0.07
0.08
0.085
0.09
0.1
0.085
0.07
0.075
0.065
0.095
0.085
0.075
0.04
0.025
0.045
0.055
0.05
0.055
0.045
0.045
0.06
0.08
0.09
0.075
0.065
0.065
0.07
0.075
0.075
0.05
0.01
0.01
0.03
0.04
0.055
0.045
0.04
0.045
0.05
0.065
0.07
0.05
0.035
0.015
0.03
0.045
0.025
0.01
-0.01
-0.01
0.0
0.01
0.02
0.015
0.005
-0.005
0.015
0.015
0.005
0.01
-0.005
-0.005
0.015
0.02
0.025
0.015
-0.03
-0.02
-0.01
0.01
0.015
-0.005
-0.015
-0.005
0.01
0.03
0.04
0.02
0.025
0.02
0.03
0.035
0.055
0.045
0.035
0.055
0.065
0.07
0.085
0.055
0.065
0.07
0.105
0.145
0.175
0.25
0.4
0.72
1.185
1.575
1.68
1.53
1.28
1.11
1.03
0.975
0.9
0.785
0.68
0.595
0.52
0.42
0.3
0.17
0.05
-0.075
-0.185
-0.285
-0.41
-0.55
-0.67
-0.79
-0.925
-1.0
-1.105
-1.19
-1.27
-1.31
-1.35
-1.38
-1.405
-1.42
-1.425
-1.415
-1.385
-1.335
-1.3
-1.255
-1.205
-1.12
-1.0
-0.855
-0.725
-0.62
-0.54
-0.485
-0.475
-0.445
-0.415
-0.38
-0.32
-0.24
-0.16
-0.07
-0.015
0.05
0.105
0.175
0.25
0.295
0.355
0.385
0.405
0.435
0.485
0.52
0.545
0.545
0.55
0.56
0.575
0.6
0.61
0.61
0.59
0.595
0.625
0.645
0.64
0.65
0.645
0.65
0.67
0.695
0.71
0.72
0.685
0.72
0.74
0.76
0.785
0.77
0.77
0.785
0.8
0.83
0.845
0.84
0.86
0.88
0.92
0.935
0.98
0.99
0.995
1.03
1.07
1.1
1.13
1.13
1.145
1.175
1.195
1.235
1.26
1.255
1.255
1.28
1.305
1.315
1.33
1.34
1.34
1.365
1.355
1.37
1.375
1.37
1.36
1.35
1.335
1.335
1.325
1.29
1.25
1.21
1.19
1.185
1.135
1.09
1.04
0.985
0.95
0.915
0.895
0.845
0.795
0.75
0.71
0.695
0.66
0.615
0.57
0.53
0.51
0.505
0.475
0.44
0.415
0.405
0.395
0.375
0.37
0.345
0.325
0.31
0.315
0.305
0.3
0.29
0.28
0.28
0.285
0.28
0.28
0.255
0.265
0.26
0.265
0.275
0.27
0.25
0.235
0.24
0.25
0.275
0.27
0.27
0.265
0.265
0.265
0.27
0.265
0.275
0.27
0.26
0.26
0.275
0.27
0.245
0.245
0.24
0.255
0.26
0.24
0.24
0.21
0.22
0.24
0.235
0.24
0.215
0.195
0.205
0.225
0.25
0.26
0.28
0.305
0.33
0.38
0.445
0.505
0.575
0.645
0.74
0.85
0.94
1.02
1.08
1.125
1.17
1.28
1.39
1.47
1.535
1.59
1.655
1.75
1.88
2.015
2.13
2.17
2.235
2.305
2.4
2.455
2.485
2.475
2.445
2.39
2.235
1.93
1.485
1.01
0.61
0.34
0.18
0.105
0.015
-0.065
-0.14
-0.2
-0.24
-0.28
-0.335
-0.375
-0.395
-0.405
-0.4
-0.43
-0.455
-0.485
-0.485
-0.48
-0.48
-0.5
-0.535
-0.575
-0.58
-0.58
-0.6
-0.615
-0.64
-0.665
-0.68
-0.675
-0.665
-0.69
-0.715
-0.75
-0.78
-0.805
-0.83
-0.86
-0.895
-0.94
-0.97
-0.99
-0.995
-1.035
-1.09
-1.145
-1.2
-1.205
-1.22
-1.265
-1.295
-1.335
-1.375
-1.38
-1.41
-1.435
-1.49
-1.525
-1.555
-1.56
-1.56
-1.57
-1.605
-1.63
-1.655
-1.66
-1.67
-1.685
-1.7
-1.725
-1.74
-1.735
-1.71
-1.71
-1.7
-1.705
-1.68
-1.65
-1.605
-1.585
-1.58
-1.565
-1.55
-1.515
-1.47
-1.42
-1.4
-1.37
-1.345
-1.3
-1.255
-1.215
-1.185
-1.175
-1.145
-1.095
-1.04
-1.0
-0.975
-0.95
-0.91
-0.835
-0.8
-0.785
-0.765
-0.755
-0.745
-0.715
-0.685
-0.65
-0.62
-0.605
-0.59
-0.56
-0.52
-0.485
-0.46
-0.44
-0.415
-0.365
-0.345
-0.33
-0.32
-0.315
-0.29
-0.265
-0.245
-0.24
-0.245
-0.23
-0.21
-0.19
-0.19
-0.175
-0.185
-0.19
-0.195
-0.185
-0.165
-0.16
-0.155
-0.16
-0.155
-0.14
-0.115
-0.105
-0.12
-0.135
-0.135
-0.115
-0.11
-0.115
-0.11
-0.115
-0.105
-0.095
-0.09
-0.1
-0.12
-0.13
-0.125
-0.105
-0.095
-0.1
-0.1
-0.105
-0.115
-0.095
-0.09
-0.075
-0.075
-0.09
-0.075
-0.07
-0.05
-0.06
-0.09
-0.095
-0.1
-0.085
-0.09
-0.07
-0.075
-0.09
-0.09
-0.08
-0.075
-0.08
-0.1
-0.105
-0.095
-0.08
-0.07
-0.07
-0.1
-0.12
-0.125
-0.1
-0.085
-0.075
-0.09
-0.105
-0.105
-0.085
-0.085
-0.07
-0.09
-0.11
-0.11
-0.095
-0.09
-0.1
-0.105
-0.12
-0.095
-0.08
-0.05
-0.045
-0.055
-0.06
-0.07
-0.075
-0.08
-0.09
-0.115
-0.115
-0.1
-0.065
-0.04
-0.035
-0.06
-0.08
-0.09
-0.085
-0.05
-0.045
-0.06
-0.09
-0.12
-0.115
-0.095
-0.085
-0.08
-0.085
-0.07
-0.05
-0.03
-0.04
-0.065
-0.08
-0.08
-0.09
-0.075
-0.085
-0.075
-0.095
-0.095
-0.085
-0.075
-0.085
-0.095
-0.085
-0.08
-0.07
-0.08
-0.1
-0.115
-0.12
-0.085
-0.045
0.0
0.005
0.015
0.0
-0.01
-0.005
0.015
0.05
0.085
0.115
0.19
0.37
0.755
1.255
1.62
1.65
1.415
1.15
1.02
0.985
0.995
0.935
0.83
0.69
0.535
0.385
0.25
0.11
-0.035
-0.195
-0.34
-0.505
-0.675
-0.87
-1.04
-1.185
-1.295
-1.385
-1.465
-1.53
-1.57
-1.57
-1.575
-1.585
-1.58
-1.565
-1.54
-1.53
-1.5
-1.405
-1.275
-1.075
-0.845
-0.655
-0.605
-0.67
-0.73
-0.745
-0.705
-0.6
-0.51
-0.45
-0.385
-0.275
-0.13
0.065
0.275
0.46
0.59
0.71
0.845
1.005
1.145
1.16
1.09
1.05
1.055
1.145
1.295
1.39
1.425
1.435
1.41
1.31
1.17
1.025
1.025
1.145
1.31
1.405
1.395
1.3
1.225
1.225
1.295
1.4
1.49
1.53
1.525
1.49
1.465
1.48
1.51
1.54
1.56
1.56
1.55
1.545
1.555
1.57
1.6
1.645
1.675
1.665
1.635
1.635
1.65
1.655
1.675
1.705
1.755
1.81
1.915
1.99
2.015
1.995
1.925
1.845
1.825
1.85
1.92
1.96
1.97
1.93
1.86
1.81
1.79
1.83
1.88
1.915
1.9
1.86
1.79
1.73
1.69
1.7
1.74
1.775
1.765
1.685
1.55
1.4
1.3
1.26
1.26
1.31
1.325
1.3
1.235
1.16
1.115
1.105
1.13
1.15
1.17
1.145
1.115
1.08
1.085
1.025
0.915
0.785
0.72
0.74
0.825
0.89
0.9
0.835
0.765
0.705
0.695
0.695
0.68
0.63
0.575
0.53
0.605
0.755
0.975
1.085
1.095
0.975
0.795
0.655
0.575
0.585
0.615
0.655
0.715
0.75
0.755
0.705
0.62
0.54
0.48
0.46
0.49
0.55
0.62
0.67
0.675
0.625
0.54
0.46
0.42
0.475
0.545
0.62
0.65
0.65
0.605
0.525
0.44
0.405
0.4
0.42
0.46
0.51
0.57
0.6
0.585
0.525
0.44
0.39
0.36
0.335
0.315
0.34
0.455
0.615
0.73
0.68
0.505
0.35
0.26
0.28
0.375
0.49
0.58
0.69
0.69
0.575
0.395
0.295
0.31
0.395
0.445
0.41
0.315
0.205
0.185
0.21
0.315
0.46
0.56
0.57
0.515
0.41
0.32
0.26
0.255
0.255
0.255
0.26
0.25
0.295
0.39
0.525
0.64
0.605
0.445
0.255
0.165
0.195
0.345
0.515
0.65
0.645
0.535
0.305
0.12
0.065
0.115
0.195
0.25
0.265
0.285
0.32
0.385
0.43
0.41
0.32
0.26
0.26
0.355
0.48
0.605
0.75
0.96
1.24
1.555
1.725
1.685
1.52
1.335
1.23
1.17
1.115
1.105
1.095
1.03
0.875
0.68
0.505
0.43
0.385
0.3
0.155
-0.03
-0.245
-0.43
-0.59
-0.72
-0.855
-0.995
-1.13
-1.28
-1.425
-1.575
-1.68
-1.74
-1.75
-1.755
-1.745
-1.73
-1.67
-1.585
-1.475
-1.365
-1.265
-1.145
-1.015
-0.91
-0.835
-0.775
-0.735
-0.645
-0.525
-0.405
-0.35
-0.38
-0.415
-0.39
-0.27
-0.095
0.095
0.23
0.315
0.43
0.545
0.615
0.605
0.53
0.445
0.4
0.445
0.555
0.65
0.675
0.61
0.545
0.52
0.525
0.58
0.64
0.71
0.69
0.61
0.53
0.55
0.635
0.74
0.815
0.835
0.87
0.86
0.82
0.76
0.71
0.685
0.69
0.735
0.795
0.79
0.73
0.68
0.685
0.755
0.85
0.975
1.045
1.08
1.105
1.095
1.105
1.105
1.09
1.05
1.025
1.02
1.075
1.155
1.21
1.23
1.23
1.215
1.195
1.19
1.225
1.27
1.285
1.26
1.24
1.21
1.2
1.225
1.25
1.29
1.29
1.245
1.17
1.09
1.075
1.065
1.045
1.0
0.93
0.87
0.84
0.73
0.6
0.475
0.405
0.39
0.44
0.5
0.55
0.56
0.515
0.395
0.285
0.22
0.2
0.2
0.185
0.16
0.175
0.185
0.225
0.215
0.215
0.17
0.105
0.05
0.015
0.01
0.005
0.03
0.055
0.055
0.03
-0.01
-0.01
0.035
0.085
0.135
0.165
0.155
0.135
0.065
0.005
-0.01
0.0
0.015
0.01
-0.01
-0.025
0.0
0.015
-0.045
-0.14
-0.19
-0.19
-0.135
-0.055
-0.005
0.02
0.025
-0.005
-0.04
-0.075
-0.1
-0.135
-0.13
-0.105
-0.065
-0.05
-0.065
-0.125
-0.17
-0.145
-0.12
-0.08
-0.09
-0.13
-0.19
-0.22
-0.185
-0.12
-0.105
-0.14
-0.2
-0.265
-0.31
-0.315
-0.28
-0.23
-0.185
-0.175
-0.165
-0.165
-0.18
-0.21
-0.245
-0.255
-0.255
-0.245
-0.255
-0.25
-0.26
-0.225
-0.19
-0.145
-0.155
-0.165
-0.215
-0.26
-0.305
-0.305
-0.315
-0.305
-0.285
-0.28
-0.285
-0.275
-0.28
-0.28
-0.265
-0.27
-0.275
-0.27
-0.285
-0.325
-0.375
-0.375
-0.345
-0.285
-0.25
-0.265
-0.31
-0.34
-0.36
-0.36
-0.35
-0.34
-0.34
-0.33
-0.305
-0.29
-0.305
-0.33
-0.35
-0.35
-0.335
-0.31
-0.295
-0.28
-0.23
-0.07
0.205
0.575
0.905
1.1
1.075
0.915
0.77
0.68
0.62
0.555
0.46
0.365
0.295
0.215
0.08
-0.06
-0.22
-0.35
-0.48
-0.605
-0.75
-0.93
-1.13
-1.28
-1.42
-1.545
-1.66
-1.795
-1.9
-1.985
-2.035
-2.1
-2.145
-2.23
-2.28
-2.305
-2.295
-2.28
-2.27
-2.275
-2.26
-2.195
-2.115
-2.03
-1.935
-1.825
-1.745
-1.62
-1.45
-1.315
-1.215
-1.14
-1.12
-1.07
-1.02
-0.975
-0.895
-0.86
-0.82
-0.755
-0.695
-0.625
-0.565
-0.515
-0.455
-0.39
-0.32
-0.26
-0.23
-0.185
-0.19
-0.155
-0.125
-0.095
-0.08
-0.065
-0.075
-0.075
-0.06
-0.055
-0.065
-0.08
-0.075
-0.055
-0.025
0.01
0.01
0.0
0.015
0.01
0.045
0.065
0.075
0.06
0.065
0.065
0.09
0.12
0.115
0.135
0.115
0.125
0.15
0.17
0.195
0.2
0.2
0.225
0.25
0.28
0.295
0.28
0.31
0.3
0.325
0.36
0.375
0.4
0.405
0.43
0.46
0.495
0.53
0.54
0.54
0.545
0.58
0.605
0.615
0.62
0.625
0.63
0.64
0.655
0.65
0.66
0.655
0.645
0.665
0.685
0.67
0.66
0.63
0.585
0.585
0.575
0.565
0.535
0.53
0.53
0.54
0.515
0.44
0.38
0.31
0.27
0.24
0.215
0.17
0.11
0.065
0.03
0.005
0.005
-0.035
-0.08
-0.13
-0.16
-0.195
-0.22
-0.245
-0.265
-0.29
-0.29
-0.29
-0.28
-0.29
-0.31
-0.34
-0.395
-0.405
-0.425
-0.46
-0.475
-0.47
-0.465
-0.425
-0.415
-0.415
-0.435
-0.455
-0.46
-0.475
-0.475
-0.5
-0.525
-0.545
-0.56
-0.545
-0.555
-0.585
-0.605
-0.615
-0.61
-0.615
-0.57
-0.535
-0.515
-0.515
-0.515
-0.5
-0.475
-0.46
-0.485
-0.51
-0.52
-0.51
-0.485
-0.485
-0.49
-0.485
-0.47
-0.465
-0.465
-0.47
-0.475
-0.485
-0.47
-0.475
-0.465
-0.51
-0.545
-0.58
-0.6
-0.575
-0.57
-0.565
-0.57
-0.57
-0.57
-0.55
-0.56
-0.545
-0.57
-0.57
-0.575
-0.565
-0.555
-0.555
-0.595
-0.6
-0.61
-0.62
-0.61
-0.62
-0.63
-0.655
-0.635
-0.62
-0.615
-0.635
-0.635
-0.645
-0.63
-0.6
-0.565
-0.55
-0.545
-0.52
-0.51
-0.48
-0.47
-0.465
-0.475
-0.495
-0.51
-0.5
-0.505
-0.51
-0.52
-0.52
-0.51
-0.495
-0.49
-0.5
-0.51
-0.5
-0.505
-0.485
-0.485
-0.49
-0.48
-0.485
-0.495
-0.445
-0.45
-0.435
-0.445
-0.46
-0.46
-0.445
-0.435
-0.435
-0.45
-0.465
-0.455
-0.445
-0.445
-0.43
-0.425
-0.415
-0.41
-0.395
-0.395
-0.405
-0.405
-0.415
-0.395
-0.36
-0.29
-0.13
0.14
0.5
0.86
1.07
1.09
0.935
0.76
0.63
0.565
0.5
0.435
0.34
0.235
0.15
0.045
-0.045
-0.135
-0.23
-0.36
-0.505
-0.62
-0.745
-0.855
-0.985
-1.13
-1.31
-1.465
-1.605
-1.7
-1.81
-1.89
-1.975
-2.055
-2.095
-2.145
-2.19
-2.235
-2.285
-2.295
-2.29
-2.245
-2.215
-2.195
-2.16
-2.095
-2.01
-1.91
-1.82
-1.695
-1.585
-1.44
-1.275
-1.125
-1.025
-0.965
-0.93
-0.905
-0.86
-0.8
-0.745
-0.65
-0.565
-0.47
-0.385
-0.265
-0.195
-0.14
-0.105
-0.105
-0.065
-0.04
-0.025
-0.035
-0.03
-0.03
-0.01
0.015
0.04
0.04
0.045
0.045
0.07
0.09
0.095
0.09
0.095
0.085
0.105
0.135
0.15
0.155
0.16
0.175
0.19
0.21
0.22
0.2
0.205
0.22
0.23
0.245
0.26
0.26
0.25
0.255
0.28
0.31
0.35
0.355
0.345
0.35
0.355
0.385
0.405
0.425
0.445
0.46
0.47
0.49
0.5
0.5
0.495
0.505
0.53
0.565
0.565
0.58
0.595
0.625
0.65
0.69
0.715
0.73
0.73
0.74
0.765
0.805
0.82
0.825
0.84
0.825
0.845
0.865
0.855
0.855
0.845
0.845
0.84
0.84
0.805
0.785
0.755
0.75
0.72
0.7
0.66
0.61
0.555
0.515
0.51
0.505
0.475
0.43
0.375
0.335
0.295
0.285
0.23
0.205
0.165
0.13
0.11
0.095
0.04
0.005
-0.035
-0.045
-0.045
-0.06
-0.06
-0.085
-0.125
-0.105
-0.125
-0.11
-0.115
-0.135
-0.14
-0.145
-0.12
-0.13
-0.13
-0.14
-0.15
-0.16
-0.14
-0.12
-0.125
-0.13
-0.145
-0.135
-0.12
-0.11
-0.105
-0.115
-0.12
-0.11
-0.12
-0.095
-0.115
-0.125
-0.135
-0.125
-0.1
-0.09
-0.075
-0.08
-0.1
-0.1
-0.095
-0.07
-0.065
-0.085
-0.095
-0.095
-0.08
-0.035
-0.03
-0.03
-0.01
0.015
0.075
0.165
0.22
0.29
0.35
0.43
0.515
0.58
0.615
0.65
0.665
0.7
0.76
0.84
0.895
0.945
0.975
1.025
1.115
1.195
1.27
1.35
1.405
1.49
1.54
1.605
1.63
1.655
1.68
1.69
1.725
1.72
1.69
1.62
1.49
1.295
1.005
0.68
0.36
0.095
-0.085
-0.18
-0.215
-0.225
-0.295
-0.375
-0.465
-0.55
-0.62
-0.71
-0.795
-0.86
-0.895
-0.925
-0.945
-0.95
-1.0
-1.075
-1.15
-1.205
-1.265
-1.305
-1.415
-1.495
-1.57
-1.605
-1.635
-1.64
-1.66
-1.68
-1.725
-1.745
-1.745
-1.74
-1.76
-1.775
-1.815
-1.845
-1.86
-1.865
-1.885
-1.92
-1.955
-1.98
-1.995
-2.02
-2.045
-2.07
-2.12
-2.15
-2.16
-2.155
-2.19
-2.225
-2.27
-2.29
-2.3
-2.32
-2.345
-2.37
-2.4
-2.43
-2.435
-2.45
-2.46
-2.505
-2.51
-2.515
-2.515
-2.505
-2.515
-2.525
-2.535
-2.545
-2.535
-2.535
-2.515
-2.525
-2.525
-2.51
-2.48
-2.45
-2.42
-2.42
-2.405
-2.38
-2.33
-2.28
-2.27
-2.245
-2.24
-2.215
-2.16
-2.1
-2.05
-2.02
-2.0
-1.98
-1.92
-1.88
-1.845
-1.82
-1.8
-1.765
-1.705
-1.645
-1.615
-1.58
-1.55
-1.525
-1.485
-1.43
-1.405
-1.4
-1.375
-1.34
-1.295
-1.255
-1.24
-1.225
-1.215
-1.2
-1.16
-1.115
-1.11
-1.09
-1.1
-1.075
-1.025
-0.99
-0.96
-0.965
-0.955
-0.945
-0.92
-0.895
-0.9
-0.91
-0.915
-0.895
-0.86
-0.835
-0.83
-0.835
-0.835
-0.835
-0.81
-0.8
-0.795
-0.8
-0.825
-0.815
-0.795
-0.765
-0.765
-0.77
-0.77
-0.76
-0.745
-0.74
-0.745
-0.75
-0.77
-0.75
-0.74
-0.72
-0.73
-0.74
-0.75
-0.75
-0.75
-0.73
-0.72
-0.715
-0.72
-0.715
-0.71
-0.695
-0.695
-0.71
-0.715
-0.71
-0.705
-0.685
-0.69
-0.71
-0.72
-0.725
-0.69
-0.67
-0.665
-0.68
-0.675
