Lead II
-0.85
-0.85
-0.855
-0.84
-0.84
-0.855
-0.86
-0.85
-0.855
-0.85
-0.865
-0.875
-0.895
-0.92
-0.92
-0.915
-0.91
-0.925
-0.89
-0.895
-0.91
-0.92
-0.915
-0.94
-0.96
-0.955
-0.935
-0.915
-0.89
-0.885
-0.87
-0.87
-0.865
-0.865
-0.875
-0.87
-0.87
-0.87
-0.845
-0.82
-0.805
-0.78
-0.745
-0.73
-0.72
-0.71
-0.71
-0.72
-0.72
-0.73
-0.725
-0.74
-0.72
-0.72
-0.705
-0.69
-0.705
-0.71
-0.72
-0.73
-0.74
-0.745
-0.74
-0.745
-0.74
-0.73
-0.725
-0.725
-0.735
-0.73
-0.73
-0.745
-0.745
-0.745
-0.75
-0.74
-0.74
-0.735
-0.735
-0.74
-0.745
-0.76
-0.795
-0.81
-0.8
-0.76
-0.65
-0.485
-0.28
-0.08
0.19
0.47
0.75
1.02
1.255
1.41
1.485
1.49
1.43
1.29
1.06
0.71
0.275
-0.195
-0.62
-0.9
-1.03
-1.045
-1.005
-0.955
-0.915
-0.89
-0.875
-0.895
-0.905
-0.915
-0.935
-0.94
-0.945
-0.935
-0.945
-0.955
-0.945
-0.93
-0.91
-0.89
-0.87
-0.845
-0.85
-0.84
-0.85
-0.85
-0.855
-0.865
-0.87
-0.89
-0.885
-0.89
-0.895
-0.895
-0.905
-0.9
-0.925
-0.905
-0.925
-0.93
-0.935
-0.94
-0.935
-0.945
-0.935
-0.94
-0.94
-0.955
-0.97
-0.985
-1.005
-1.005
-1.005
-1.015
-1.01
-1.0
-1.02
-1.025
-1.04
-1.05
-1.055
-1.065
-1.085
-1.085
-1.09
-1.09
-1.1
-1.095
-1.105
-1.115
-1.12
-1.15
-1.17
-1.19
-1.21
-1.245
-1.255
-1.275
-1.285
-1.295
-1.305
-1.31
-1.335
-1.36
-1.365
-1.375
-1.395
-1.415
-1.415
-1.39
-1.38
-1.36
-1.33
-1.3
-1.265
-1.24
-1.2
-1.165
-1.14
-1.115
-1.09
-1.055
-1.01
-0.975
-0.935
-0.89
-0.865
-0.825
-0.805
-0.805
-0.785
-0.765
-0.765
-0.75
-0.74
-0.735
-0.73
-0.72
-0.725
-0.72
-0.73
-0.725
-0.74
-0.74
-0.745
-0.755
-0.74
-0.725
-0.725
-0.725
-0.735
-0.735
-0.735
-0.745
-0.755
-0.755
-0.755
-0.745
-0.745
-0.75
-0.725
-0.73
-0.725
-0.73
-0.735
-0.75
-0.75
-0.75
-0.725
-0.725
-0.715
-0.71
-0.685
-0.67
-0.665
-0.645
-0.635
-0.64
-0.63
-0.615
-0.585
-0.555
-0.51
-0.435
-0.365
-0.31
-0.235
-0.145
-0.08
-0.02
0.055
0.135
0.255
0.405
0.53
0.66
0.8
0.93
1.03
1.115
1.17
1.21
1.26
1.28
1.28
1.275
1.28
1.26
1.24
1.21
1.18
1.175
1.2
1.29
1.365
1.43
1.41
1.28
0.995
0.655
0.285
-0.065
-0.355
-0.58
-0.715
-0.805
-0.855
-0.885
-0.9
-0.925
-0.935
-0.945
-0.975
-1.005
-1.035
-1.06
-1.085
-1.11
-1.13
-1.15
-1.16
-1.165
-1.175
-1.195
-1.19
-1.205
-1.215
-1.23
-1.255
-1.28
-1.285
-1.31
-1.32
-1.325
-1.335
-1.34
-1.345
-1.35
-1.365
-1.39
-1.42
-1.44
-1.47
-1.5
-1.535
-1.555
-1.56
-1.575
-1.585
-1.615
-1.635
-1.655
-1.685
-1.725
-1.75
-1.78
-1.8
-1.82
-1.83
-1.845
-1.855
-1.85
-1.865
-1.875
-1.91
-1.92
-1.94
-1.975
-1.98
-1.985
-1.99
-1.98
-1.955
-1.94
-1.935
-1.925
-1.895
-1.885
-1.88
-1.875
-1.87
-1.84
-1.81
-1.795
-1.76
-1.735
-1.705
-1.68
-1.66
-1.62
-1.59
-1.56
-1.52
-1.475
-1.43
-1.38
-1.34
-1.29
-1.25
-1.22
-1.175
-1.155
-1.14
-1.11
-1.09
-1.045
-1.015
-0.995
-0.965
-0.94
-0.935
-0.925
-0.9
-0.9
-0.885
-0.88
-0.86
-0.86
-0.85
-0.845
-0.845
-0.84
-0.84
-0.835
-0.845
-0.84
-0.85
-0.865
-0.865
-0.875
-0.865
-0.88
-0.875
-0.88
-0.885
-0.885
-0.88
-0.895
-0.905
-0.91
-0.915
-0.925
-0.92
-0.91
-0.885
-0.87
-0.86
-0.85
-0.845
-0.84
-0.84
-0.835
-0.835
-0.825
-0.825
-0.815
-0.78
-0.75
-0.735
-0.725
-0.705
-0.69
-0.67
-0.655
-0.675
-0.66
-0.65
-0.665
-0.66
-0.655
-0.66
-0.66
-0.66
-0.665
-0.68
-0.69
-0.68
-0.68
-0.66
-0.65
-0.66
-0.65
-0.65
-0.655
-0.66
-0.68
-0.68
-0.68
-0.69
-0.695
-0.69
-0.685
-0.66
-0.66
-0.665
-0.67
-0.67
-0.675
-0.685
-0.7
-0.7
-0.69
-0.685
-0.69
-0.685
-0.695
-0.685
-0.685
-0.69
-0.7
-0.72
-0.73
-0.73
-0.745
-0.74
-0.735
-0.745
-0.75
-0.765
-0.77
-0.78
-0.785
-0.795
-0.8
-0.8
-0.8
-0.8
-0.8
-0.795
-0.775
-0.765
-0.765
-0.765
-0.765
-0.77
-0.78
-0.775
-0.765
-0.745
-0.72
-0.69
-0.665
-0.625
-0.61
-0.59
-0.585
-0.58
-0.585
-0.595
-0.585
-0.595
-0.595
-0.595
-0.58
-0.58
-0.585
-0.595
-0.595
-0.605
-0.605
-0.61
-0.605
-0.605
-0.605
-0.6
-0.59
-0.6
-0.59
-0.59
-0.595
-0.62
-0.615
-0.62
-0.63
-0.65
-0.66
-0.665
-0.665
-0.63
-0.55
-0.415
-0.24
-0.035
0.225
0.515
0.82
1.115
1.365
1.545
1.635
1.645
1.595
1.475
1.27
0.94
0.495
0.0
-0.43
-0.735
-0.865
-0.885
-0.84
-0.775
-0.735
-0.735
-0.765
-0.8
-0.845
-0.865
-0.86
-0.84
-0.83
-0.815
-0.81
-0.815
-0.815
-0.835
-0.855
-0.85
-0.845
-0.825
-0.81
-0.77
-0.745
-0.73
-0.72
-0.705
-0.71
-0.725
-0.75
-0.755
-0.775
-0.765
-0.77
-0.775
-0.785
-0.79
-0.785
-0.815
-0.81
-0.82
-0.825
-0.835
-0.845
-0.85
-0.855
-0.845
-0.845
-0.855
-0.855
-0.87
-0.88
-0.885
-0.895
-0.91
-0.92
-0.915
-0.93
-0.93
-0.925
-0.93
-0.94
-0.955
-0.965
-0.98
-1.0
-1.03
-1.04
-1.045
-1.055
-1.065
-1.07
-1.08
-1.1
-1.135
-1.145
-1.16
-1.175
-1.2
-1.23
-1.225
-1.235
-1.245
-1.24
-1.23
-1.235
-1.23
-1.235
-1.235
-1.205
-1.205
-1.185
-1.13
-1.09
-1.05
-1.025
-0.975
-0.95
-0.93
-0.905
-0.88
-0.85
-0.8
-0.765
-0.725
-0.685
-0.645
-0.61
-0.6
-0.585
-0.585
-0.595
-0.585
-0.605
-0.61
-0.605
-0.605
-0.59
-0.58
-0.565
-0.555
-0.55
-0.55
-0.555
-0.57
-0.575
-0.575
-0.595
-0.585
-0.6
-0.585
-0.585
-0.58
-0.56
-0.57
-0.58
-0.58
-0.59
-0.59
-0.6
-0.605
-0.605
-0.6
-0.585
-0.59
-0.595
-0.585
-0.59
-0.595
-0.605
-0.61
-0.615
-0.615
-0.62
-0.62
-0.63
-0.635
-0.635
-0.65
-0.665
-0.68
-0.685
-0.69
-0.685
-0.695
-0.685
-0.69
-0.685
-0.695
-0.685
-0.685
-0.685
-0.68
-0.675
-0.665
-0.665
-0.66
-0.66
-0.66
-0.655
-0.645
-0.63
-0.625
-0.6
-0.595
-0.57
-0.57
-0.555
-0.53
-0.52
-0.515
-0.5
-0.505
-0.5
-0.515
-0.525
-0.515
-0.52
-0.53
-0.53
-0.53
-0.53
-0.53
-0.525
-0.53
-0.53
-0.525
-0.53
-0.535
-0.545
-0.545
-0.555
-0.555
-0.555
-0.55
-0.555
-0.55
-0.535
-0.555
-0.55
-0.565
-0.575
-0.585
-0.58
-0.58
-0.58
-0.565
-0.57
-0.555
-0.55
-0.55
-0.57
-0.58
-0.575
-0.59
-0.615
-0.63
-0.65
-0.67
-0.655
-0.61
-0.49
-0.325
-0.13
0.13
0.405
0.715
1.02
1.305
1.51
1.64
1.665
1.625
1.465
1.18
0.755
0.245
-0.24
-0.64
-0.865
-0.925
-0.86
-0.76
-0.665
-0.595
-0.58
-0.58
-0.57
-0.585
-0.59
-0.585
-0.59
-0.59
-0.605
-0.61
-0.61
-0.625
-0.63
-0.64
-0.635
-0.655
-0.66
-0.675
-0.69
-0.695
-0.705
-0.695
-0.7
-0.705
-0.705
-0.715
-0.725
-0.74
-0.745
-0.755
-0.765
-0.77
-0.78
-0.78
-0.785
-0.785
-0.78
-0.795
-0.795
-0.82
-0.83
-0.84
-0.85
-0.85
-0.855
-0.855
-0.855
-0.875
-0.88
-0.9
-0.93
-0.94
-0.97
-0.985
-1.015
-1.015
-1.02
-1.025
-1.03
-1.035
-1.04
-1.04
-1.06
-1.075
-1.075
-1.085
-1.105
-1.095
-1.115
-1.12
-1.14
-1.145
-1.16
-1.17
-1.185
-1.185
-1.175
-1.18
-1.16
-1.13
-1.1
-1.07
-1.035
-1.01
-0.965
-0.955
-0.935
-0.91
-0.88
-0.865
-0.83
-0.805
-0.785
-0.765
-0.735
-0.715
-0.69
-0.685
-0.67
-0.67
-0.665
-0.665
-0.66
-0.66
-0.65
-0.64
-0.635
-0.63
-0.625
-0.625
-0.63
-0.64
-0.645
-0.655
-0.65
-0.65
-0.65
-0.655
-0.66
-0.65
-0.62
-0.63
-0.625
-0.63
-0.63
-0.65
-0.64
-0.65
-0.645
-0.655
-0.65
-0.65
-0.655
-0.665
-0.66
-0.67
-0.67
-0.67
-0.67
-0.65
-0.64
-0.625
-0.605
-0.595
-0.59
-0.6
-0.59
-0.605
-0.62
-0.625
-0.625
-0.63
-0.62
-0.62
-0.59
-0.57
-0.55
-0.545
-0.52
-0.53
-0.525
-0.535
-0.545
-0.55
-0.555
-0.54
-0.54
-0.535
-0.54
-0.535
-0.54
-0.55
-0.56
-0.575
-0.575
-0.57
-0.56
-0.56
-0.55
-0.545
-0.535
-0.53
-0.54
-0.545
-0.555
-0.555
-0.555
-0.56
-0.57
-0.555
-0.565
-0.56
-0.54
-0.535
-0.545
-0.535
-0.54
-0.55
-0.555
-0.565
-0.585
-0.595
-0.6
-0.595
-0.54
-0.43
-0.295
-0.12
0.08
0.325
0.595
0.865
1.16
1.41
1.595
1.69
1.695
1.615
1.455
1.185
0.82
0.355
-0.105
-0.455
-0.675
-0.74
-0.71
-0.645
-0.58
-0.545
-0.54
-0.56
-0.585
-0.595
-0.61
-0.615
-0.605
-0.58
-0.575
-0.56
-0.57
-0.595
-0.605
-0.615
-0.635
-0.65
-0.655
-0.66
-0.66
-0.67
-0.67
-0.67
-0.665
-0.68
-0.685
-0.705
-0.715
-0.715
-0.73
-0.745
-0.74
-0.74
-0.74
-0.735
-0.74
-0.755
-0.75
-0.77
-0.78
-0.79
-0.795
-0.815
-0.815
-0.795
-0.79
-0.79
-0.785
-0.795
-0.805
-0.815
-0.83
-0.84
-0.845
-0.855
-0.86
-0.865
-0.865
-0.875
-0.86
-0.875
-0.875
-0.895
-0.9
-0.92
-0.93
-0.935
-0.95
-0.965
-0.98
-0.98
-1.0
-1.01
-1.02
-1.045
-1.055
-1.065
-1.065
-1.08
-1.09
-1.075
-1.045
-1.03
-1.015
-1.015
-1.0
-1.0
-0.995
-0.985
-0.96
-0.93
-0.905
-0.875
-0.84
-0.81
-0.775
-0.76
-0.755
-0.715
-0.7
-0.7
-0.7
-0.68
-0.66
-0.64
-0.63
-0.615
-0.595
-0.59
-0.585
-0.6
-0.59
-0.6
-0.6
-0.605
-0.6
-0.595
-0.595
-0.585
-0.575
-0.58
-0.57
-0.575
-0.58
-0.58
-0.58
-0.58
-0.58
-0.575
-0.57
-0.57
-0.56
-0.55
-0.54
-0.535
-0.535
-0.53
-0.52
-0.52
-0.52
-0.515
-0.5
-0.505
-0.49
-0.485
-0.5
-0.525
-0.52
-0.53
-0.54
-0.515
-0.505
-0.5
-0.5
-0.485
-0.47
-0.455
-0.44
-0.445
-0.45
-0.47
-0.47
-0.475
-0.49
-0.475
-0.465
-0.465
-0.45
-0.455
-0.465
-0.465
-0.47
-0.48
-0.485
-0.485
-0.475
-0.475
-0.48
-0.47
-0.46
-0.47
-0.47
-0.46
-0.475
-0.47
-0.49
-0.485
-0.49
-0.5
-0.495
-0.49
-0.485
-0.49
-0.485
-0.5
-0.51
-0.53
-0.53
-0.515
-0.515
-0.51
-0.495
-0.485
-0.495
-0.48
-0.485
-0.495
-0.485
-0.485
-0.485
-0.495
-0.465
-0.46
-0.44
-0.435
-0.42
-0.43
-0.435
-0.445
-0.45
-0.47
-0.495
-0.51
-0.515
-0.52
-0.505
-0.49
-0.47
-0.465
-0.455
-0.44
-0.435
-0.42
-0.435
-0.425
-0.42
-0.425
-0.415
-0.405
-0.395
-0.4
-0.415
-0.42
-0.42
-0.445
-0.47
-0.49
-0.495
-0.47
-0.415
-0.32
-0.165
0.045
0.275
0.53
0.815
1.09
1.355
1.56
1.71
1.78
1.795
1.755
1.66
1.455
1.135
0.7
0.225
-0.19
-0.455
-0.58
-0.605
-0.57
-0.52
-0.485
-0.46
-0.48
-0.49
-0.51
-0.535
-0.56
-0.58
-0.575
-0.565
-0.565
-0.56
-0.555
-0.56
-0.55
-0.565
-0.575
-0.575
-0.59
-0.605
-0.605
-0.61
-0.62
-0.625
-0.63
-0.635
-0.64
-0.64
-0.65
-0.67
-0.66
-0.67
-0.655
-0.655
-0.64
-0.62
-0.615
-0.61
-0.64
-0.645
-0.66
-0.67
-0.685
-0.685
-0.685
-0.7
-0.695
-0.695
-0.69
-0.695
-0.7
-0.705
-0.72
-0.735
-0.755
-0.76
-0.765
-0.77
-0.78
-0.775
-0.79
-0.785
-0.79
-0.795
-0.82
-0.835
-0.84
-0.865
-0.87
-0.91
-0.91
-0.925
-0.91
-0.92
-0.93
-0.945
-0.965
-0.975
-0.995
-1.01
-1.01
-1.02
-1.015
-1.015
-1.02
-1.01
-1.005
-0.995
-1.005
-0.985
-0.98
-0.96
-0.935
-0.915
-0.875
-0.835
-0.795
-0.775
-0.75
-0.73
-0.72
-0.71
-0.68
-0.67
-0.635
-0.61
-0.585
-0.555
-0.53
-0.505
-0.49
-0.485
-0.48
-0.475
-0.49
-0.51
-0.495
-0.495
-0.48
-0.475
-0.47
-0.465
-0.47
-0.465
-0.47
-0.48
-0.49
-0.485
-0.485
-0.48
-0.475
-0.46
-0.455
-0.44
-0.435
-0.445
-0.45
-0.455
-0.46
-0.47
-0.465
-0.46
-0.45
-0.44
-0.45
-0.43
-0.43
-0.435
-0.445
-0.45
-0.455
-0.445
-0.445
-0.44
-0.42
-0.425
-0.4
-0.385
-0.38
-0.385
-0.38
-0.37
-0.37
-0.365
-0.36
-0.36
-0.345
-0.345
-0.36
-0.365
-0.38
-0.38
-0.395
-0.415
-0.425
-0.435
-0.43
-0.405
-0.39
-0.395
-0.37
-0.335
-0.335
-0.33
-0.35
-0.37
-0.375
-0.38
-0.365
-0.375
-0.37
-0.365
-0.355
-0.365
-0.365
-0.385
-0.385
-0.39
-0.4
-0.405
-0.4
-0.395
-0.395
-0.385
-0.38
-0.385
-0.375
-0.39
-0.395
-0.415
-0.42
-0.425
-0.435
-0.435
-0.44
-0.43
-0.405
-0.395
-0.395
-0.4
-0.405
-0.41
-0.41
-0.405
-0.41
-0.4
-0.405
-0.395
-0.41
-0.385
-0.38
-0.37
-0.37
-0.37
-0.375
-0.375
-0.37
-0.36
-0.355
-0.36
-0.355
-0.36
-0.37
-0.37
-0.4
-0.415
-0.43
-0.44
-0.445
-0.44
-0.385
-0.265
-0.105
0.085
0.33
0.58
0.865
1.135
1.385
1.61
1.78
1.865
1.885
1.84
1.715
1.485
1.12
0.645
0.145
-0.245
-0.49
-0.56
-0.55
-0.475
-0.415
-0.37
-0.36
-0.37
-0.4
-0.435
-0.455
-0.465
-0.475
-0.485
-0.49
-0.505
-0.505
-0.51
-0.515
-0.51
-0.52
-0.515
-0.53
-0.525
-0.535
-0.545
-0.545
-0.555
-0.535
-0.54
-0.54
-0.525
-0.52
-0.525
-0.535
-0.535
-0.535
-0.555
-0.56
-0.56
-0.57
-0.585
-0.59
-0.59
-0.595
-0.605
-0.605
-0.615
-0.61
-0.615
-0.62
-0.6
-0.6
-0.595
-0.585
-0.605
-0.63
-0.645
-0.675
-0.69
-0.72
-0.72
-0.72
-0.74
-0.745
-0.73
-0.74
-0.75
-0.76
-0.785
-0.8
-0.835
-0.845
-0.87
-0.89
-0.885
-0.895
-0.9
-0.91
-0.915
-0.915
-0.935
-0.945
-0.965
-0.975
-0.98
-0.975
-0.975
-0.95
-0.935
-0.92
-0.89
-0.875
-0.835
-0.82
-0.795
-0.78
-0.745
-0.715
-0.685
-0.645
-0.615
-0.57
-0.54
-0.52
-0.51
-0.49
-0.49
-0.485
-0.465
-0.45
-0.43
-0.425
-0.415
-0.41
-0.405
-0.4
-0.39
-0.395
-0.39
-0.39
-0.375
-0.345
-0.34
-0.325
-0.325
-0.33
-0.33
-0.335
-0.335
-0.34
-0.34
-0.35
-0.345
-0.36
-0.34
-0.34
-0.345
-0.34
-0.335
-0.335
-0.33
-0.34
-0.35
-0.345
-0.365
-0.36
-0.37
-0.37
-0.36
-0.35
-0.345
-0.35
-0.35
-0.35
-0.36
-0.375
-0.385
-0.385
-0.365
-0.37
-0.365
-0.355
-0.355
-0.345
-0.355
-0.355
-0.37
-0.38
-0.375
-0.385
-0.39
-0.38
-0.36
-0.36
-0.355
-0.355
-0.365
-0.38
-0.39
-0.395
-0.395
-0.39
-0.39
-0.4
-0.395
-0.395
-0.375
-0.39
-0.375
-0.375
-0.37
-0.365
-0.355
-0.355
-0.35
-0.335
-0.355
-0.35
-0.35
-0.36
-0.365
-0.36
-0.35
-0.36
-0.35
-0.345
-0.34
-0.315
-0.29
-0.275
-0.26
-0.265
-0.265
-0.285
-0.3
-0.295
-0.305
-0.315
-0.305
-0.31
-0.31
-0.29
-0.29
-0.29
-0.3
-0.305
-0.315
-0.315
-0.33
-0.335
-0.33
-0.325
-0.31
-0.31
-0.31
-0.305
-0.31
-0.325
-0.325
-0.335
-0.335
-0.335
-0.325
-0.32
-0.315
-0.305
-0.295
-0.3
-0.29
-0.305
-0.325
-0.315
-0.31
-0.32
-0.34
-0.365
-0.375
-0.365
-0.315
-0.24
-0.11
0.075
0.305
0.575
0.875
1.19
1.49
1.735
1.885
1.935
1.89
1.705
1.385
0.925
0.385
-0.1
-0.44
-0.595
-0.59
-0.505
-0.4
-0.31
-0.285
-0.285
-0.31
-0.335
-0.365
-0.37
-0.39
-0.395
-0.385
-0.385
-0.395
-0.405
-0.41
-0.425
-0.425
-0.435
-0.45
-0.46
-0.465
-0.465
-0.48
-0.48
-0.47
-0.485
-0.48
-0.51
-0.505
-0.515
-0.525
-0.535
-0.55
-0.55
-0.55
-0.54
-0.535
-0.54
-0.545
-0.54
-0.545
-0.56
-0.57
-0.57
-0.59
-0.59
-0.6
-0.595
-0.58
-0.575
-0.58
-0.585
-0.59
-0.59
-0.6
-0.61
-0.605
-0.59
-0.59
-0.58
-0.58
-0.605
-0.6
-0.615
-0.63
-0.66
-0.68
-0.69
-0.695
-0.72
-0.725
-0.74
-0.735
-0.74
-0.735
-0.745
-0.75
-0.755
-0.765
-0.785
-0.795
-0.815
-0.835
-0.835
-0.84
-0.835
-0.82
-0.815
-0.805
-0.79
-0.78
-0.76
-0.755
-0.73
-0.705
-0.69
-0.655
-0.625
-0.6
-0.565
-0.55
-0.515
-0.51
-0.505
-0.5
-0.48
-0.455
-0.445
-0.435
-0.42
-0.415
-0.405
-0.395
-0.4
-0.39
-0.385
-0.38
-0.39
-0.375
-0.37
-0.355
-0.345
-0.335
-0.335
-0.325
-0.33
-0.33
-0.34
-0.335
-0.31
-0.3
-0.275
-0.275
-0.265
-0.23
-0.25
-0.245
-0.25
-0.265
-0.27
-0.275
-0.275
-0.285
-0.29
-0.27
-0.25
-0.23
-0.21
-0.21
-0.2
-0.205
-0.215
-0.225
-0.235
-0.25
-0.245
-0.235
-0.225
-0.215
-0.215
-0.22
-0.215
-0.235
-0.245
-0.24
-0.255
-0.27
-0.27
-0.25
-0.25
-0.24
-0.245
-0.245
-0.25
-0.25
-0.25
-0.26
-0.265
-0.265
-0.265
-0.255
-0.255
-0.245
-0.25
-0.25
-0.26
-0.255
-0.27
-0.26
-0.25
-0.265
-0.27
-0.25
-0.24
-0.225
-0.225
-0.22
-0.22
-0.22
-0.215
-0.21
-0.21
-0.215
-0.21
-0.195
-0.2
-0.2
-0.215
-0.235
-0.24
-0.245
-0.235
-0.25
-0.24
-0.23
-0.215
-0.195
-0.18
-0.16
-0.15
-0.155
-0.15
-0.17
-0.175
-0.185
-0.185
-0.19
-0.185
-0.175
-0.175
-0.165
-0.18
-0.17
-0.165
-0.175
-0.18
-0.19
-0.2
-0.205
-0.2
-0.2
-0.195
-0.185
-0.185
-0.19
-0.19
-0.19
-0.2
-0.205
-0.195
-0.195
-0.205
-0.2
-0.18
-0.175
-0.17
-0.18
-0.175
-0.18
-0.18
-0.18
-0.185
-0.18
-0.185
-0.2
-0.21
-0.205
-0.17
-0.1
0.05
0.235
0.45
0.715
1.0
1.305
1.565
1.785
1.91
1.975
1.955
1.875
1.73
1.495
1.12
0.67
0.22
-0.12
-0.325
-0.36
-0.315
-0.245
-0.145
-0.13
-0.12
-0.15
-0.19
-0.215
-0.24
-0.25
-0.235
-0.225
-0.23
-0.235
-0.255
-0.26
-0.27
-0.275
-0.29
-0.305
-0.31
-0.31
-0.31
-0.31
-0.305
-0.305
-0.31
-0.31
-0.325
-0.33
-0.35
-0.37
-0.37
-0.375
-0.375
-0.37
-0.375
-0.375
-0.365
-0.365
-0.39
-0.395
-0.415
-0.42
-0.42
-0.425
-0.415
-0.405
-0.4
-0.4
-0.4
-0.4
-0.41
-0.425
-0.435
-0.43
-0.435
-0.43
-0.425
-0.425
-0.43
-0.42
-0.44
-0.45
-0.46
-0.48
-0.495
-0.53
-0.535
-0.545
-0.555
-0.56
-0.565
-0.56
-0.565
-0.575
-0.585
-0.595
-0.605
-0.63
-0.635
-0.645
-0.67
-0.675
-0.685
-0.675
-0.675
-0.675
-0.67
-0.675
-0.675
-0.655
-0.635
-0.615
-0.58
-0.555
-0.525
-0.485
-0.46
-0.435
-0.41
-0.4
-0.375
-0.365
-0.36
-0.33
-0.305
-0.29
-0.27
-0.25
-0.245
-0.23
-0.235
-0.24
-0.225
-0.23
-0.22
-0.22
-0.2
-0.195
-0.18
-0.17
-0.15
-0.165
-0.15
-0.16
-0.16
-0.165
-0.17
-0.16
-0.14
-0.13
-0.12
-0.1
-0.08
-0.08
-0.08
-0.075
-0.085
-0.1
-0.095
-0.095
-0.095
-0.095
-0.09
-0.095
-0.095
-0.1
-0.085
-0.1
-0.065
-0.06
-0.08
-0.065
-0.065
-0.06
-0.08
-0.07
-0.085
-0.085
-0.08
-0.095
-0.09
-0.11
-0.115
-0.115
-0.12
-0.13
-0.12
-0.11
-0.11
-0.115
-0.11
-0.135
-0.13
-0.13
-0.145
-0.145
-0.145
-0.135
-0.135
-0.135
-0.13
-0.13
-0.135
-0.14
-0.155
-0.155
-0.155
-0.155
-0.14
-0.145
-0.135
-0.135
-0.125
-0.125
-0.125
-0.13
-0.125
-0.13
-0.12
-0.11
-0.105
-0.09
-0.085
-0.08
-0.075
-0.08
-0.095
-0.125
-0.13
-0.145
-0.16
-0.165
-0.15
-0.14
-0.135
-0.13
-0.12
-0.11
-0.1
-0.095
-0.09
-0.105
-0.115
-0.105
-0.115
-0.11
-0.115
-0.1
-0.1
-0.1
-0.1
-0.115
-0.115
-0.12
-0.125
-0.13
-0.125
-0.135
-0.13
-0.115
-0.105
-0.115
-0.115
-0.12
-0.135
-0.145
-0.145
-0.15
-0.15
-0.135
-0.135
-0.12
-0.125
-0.12
-0.125
-0.145
-0.155
-0.175
-0.195
-0.225
-0.24
-0.225
-0.19
-0.08
0.075
0.25
0.475
0.72
1.015
1.295
1.565
1.785
1.91
1.96
1.94
1.875
1.72
1.455
1.075
0.59
0.14
-0.175
-0.335
-0.36
-0.32
-0.25
-0.19
-0.16
-0.155
-0.18
-0.19
-0.215
-0.22
-0.225
-0.22
-0.225
-0.235
-0.225
-0.23
-0.24
-0.25
-0.27
-0.27
-0.285
-0.28
-0.305
-0.31
-0.31
-0.33
-0.315
-0.33
-0.33
-0.33
-0.36
-0.365
-0.35
-0.355
-0.385
-0.385
-0.39
-0.39
-0.39
-0.395
-0.41
-0.4
-0.41
-0.42
-0.425
-0.435
-0.45
-0.455
-0.455
-0.455
-0.46
-0.455
-0.45
-0.46
-0.47
-0.475
-0.485
-0.5
-0.505
-0.495
-0.505
-0.505
-0.5
-0.5
-0.5
-0.515
-0.525
-0.545
-0.57
-0.59
-0.62
-0.64
-0.65
-0.655
-0.64
-0.64
-0.64
-0.65
-0.655
-0.655
-0.685
-0.69
-0.71
-0.74
-0.75
-0.76
-0.77
-0.77
-0.77
-0.77
-0.76
-0.75
-0.76
-0.75
-0.71
-0.7
-0.685
-0.655
-0.63
-0.59
-0.55
-0.52
-0.5
-0.48
-0.465
-0.45
-0.445
-0.44
-0.42
-0.41
-0.375
-0.37
-0.35
-0.335
-0.335
-0.33
-0.325
-0.325
-0.34
-0.335
-0.33
-0.33
-0.31
-0.31
-0.3
-0.295
-0.3
-0.3
-0.29
-0.29
-0.29
-0.285
-0.275
-0.27
-0.275
-0.265
-0.255
-0.25
-0.27
-0.27
-0.28
-0.295
-0.295
-0.3
-0.29
-0.28
-0.255
-0.245
-0.23
-0.225
-0.25
-0.235
-0.235
-0.25
-0.255
-0.26
-0.27
-0.265
-0.255
-0.24
-0.245
-0.245
-0.25
-0.245
-0.265
-0.265
-0.27
-0.27
-0.27
-0.27
-0.265
-0.26
-0.27
-0.26
-0.27
-0.27
-0.275
-0.28
-0.3
-0.3
-0.29
-0.295
-0.285
-0.28
-0.295
-0.29
-0.285
-0.3
-0.32
-0.315
-0.325
-0.325
-0.33
-0.335
-0.325
-0.32
-0.31
-0.31
-0.31
-0.31
-0.32
-0.325
-0.325
-0.325
-0.32
-0.32
-0.32
-0.31
-0.3
-0.295
-0.29
-0.285
-0.275
-0.275
-0.265
-0.255
-0.255
-0.27
-0.27
-0.28
-0.285
-0.29
-0.315
-0.325
-0.34
-0.35
-0.355
-0.36
-0.355
-0.35
-0.325
-0.3
-0.29
-0.265
-0.27
-0.285
-0.295
-0.315
-0.34
-0.35
-0.35
-0.345
-0.345
-0.335
-0.33
-0.32
-0.335
-0.34
-0.36
-0.365
-0.375
-0.38
-0.38
-0.37
-0.375
-0.365
-0.36
-0.365
-0.37
-0.375
-0.38
-0.39
-0.395
-0.405
-0.405
-0.41
-0.405
-0.4
-0.39
-0.39
-0.395
-0.395
-0.42
-0.42
-0.415
-0.41
-0.4
-0.405
-0.4
-0.385
-0.375
-0.365
-0.375
-0.375
-0.375
-0.395
-0.395
-0.41
-0.43
-0.435
-0.445
-0.43
-0.385
-0.285
-0.145
0.03
0.265
0.53
0.815
1.085
1.34
1.55
1.695
1.745
1.71
1.63
1.45
1.16
0.725
0.24
-0.185
-0.455
-0.565
-0.565
-0.515
-0.43
-0.375
-0.365
-0.385
-0.425
-0.465
-0.505
-0.52
-0.525
-0.525
-0.52
-0.52
-0.52
-0.53
-0.545
-0.55
-0.565
-0.575
-0.585
-0.59
-0.595
-0.61
-0.61
-0.6
-0.605
-0.6
-0.605
-0.615
-0.625
-0.635
-0.645
-0.65
-0.665
-0.665
-0.655
-0.645
-0.64
-0.64
-0.635
-0.65
-0.66
-0.665
-0.675
-0.69
-0.685
-0.69
-0.705
-0.695
-0.68
-0.675
-0.665
-0.665
-0.67
-0.675
-0.68
-0.69
-0.72
-0.72
-0.735
-0.73
-0.745
-0.75
-0.76
-0.77
-0.79
-0.8
-0.81
-0.835
-0.86
-0.86
-0.84
-0.83
-0.83
-0.84
-0.83
-0.87
-0.895
-0.92
-0.95
-0.995
-1.005
-1.01
-1.01
-1.025
-1.035
-1.03
-1.045
-1.045
-1.055
-1.065
-1.07
-1.065
-1.075
-1.055
-1.03
-1.01
-0.965
-0.93
-0.9
-0.89
-0.865
-0.845
-0.825
-0.8
-0.79
-0.76
-0.745
-0.72
-0.705
-0.68
-0.66
-0.65
-0.64
-0.63
-0.62
-0.63
-0.61
-0.595
-0.595
-0.59
-0.57
-0.56
-0.55
-0.54
-0.54
-0.535
-0.52
-0.51
-0.52
-0.505
-0.505
-0.495
-0.49
-0.48
-0.485
-0.505
-0.52
-0.51
-0.52
-0.535
-0.545
-0.535
-0.53
-0.51
-0.485
-0.465
-0.45
-0.45
-0.46
-0.47
-0.485
-0.505
-0.515
-0.52
-0.52
-0.52
-0.51
-0.505
-0.495
-0.495
-0.495
-0.505
-0.525
-0.535
-0.53
-0.525
-0.545
-0.545
-0.525
-0.53
-0.535
-0.54
-0.545
-0.545
-0.55
-0.565
-0.56
-0.565
-0.575
-0.575
-0.575
-0.555
-0.555
-0.555
-0.55
-0.57
-0.565
-0.57
-0.575
-0.575
-0.58
-0.555
-0.55
-0.545
-0.53
-0.53
-0.515
-0.52
-0.52
-0.525
-0.53
-0.52
-0.53
-0.53
-0.54
-0.565
-0.56
-0.57
-0.57
-0.57
-0.57
-0.57
-0.57
-0.555
-0.55
-0.54
-0.52
-0.51
-0.5
-0.51
-0.525
-0.535
-0.56
-0.56
-0.575
-0.56
-0.57
-0.565
-0.57
-0.565
-0.555
-0.565
-0.565
-0.575
-0.58
-0.59
-0.6
-0.6
-0.59
-0.595
-0.6
-0.585
-0.575
-0.59
-0.595
-0.605
-0.615
-0.63
-0.61
-0.62
-0.61
-0.61
-0.605
-0.61
-0.59
-0.59
-0.595
-0.6
-0.59
-0.595
-0.6
-0.595
-0.595
-0.585
-0.565
-0.57
-0.545
-0.53
-0.52
-0.515
-0.515
-0.515
-0.52
-0.53
-0.555
-0.58
-0.59
-0.58
-0.515
-0.4
-0.215
-0.01
0.27
0.57
0.9
1.18
1.4
1.555
1.585
1.555
1.425
1.18
0.795
0.295
-0.205
-0.585
-0.78
-0.83
-0.785
-0.71
-0.645
-0.61
-0.595
-0.64
-0.665
-0.695
-0.725
-0.735
-0.735
-0.735
-0.73
-0.74
-0.735
-0.735
-0.745
-0.745
-0.755
-0.76
-0.77
-0.78
-0.785
-0.785
-0.78
-0.795
-0.8
-0.78
-0.79
-0.785
-0.8
-0.795
-0.805
-0.815
-0.815
-0.815
-0.815
-0.815
-0.81
-0.8
-0.775
-0.775
-0.775
-0.78
-0.775
-0.785
-0.785
-0.8
-0.815
-0.805
-0.81
-0.82
-0.825
-0.84
-0.84
-0.855
-0.895
-0.895
-0.9
-0.91
-0.9
-0.89
-0.885
-0.885
-0.895
-0.91
-0.94
-0.965
-0.98
-1.005
-1.025
-1.03
-1.045
-1.06
-1.07
-1.085
-1.095
-1.115
-1.125
-1.15
-1.16
-1.185
-1.19
-1.195
-1.19
-1.185
-1.18
-1.17
-1.16
-1.15
-1.14
-1.12
-1.105
-1.095
-1.075
-1.04
-1.01
-0.98
-0.93
-0.905
-0.88
-0.86
-0.85
-0.845
-0.825
-0.805
-0.785
-0.77
-0.74
-0.735
-0.715
-0.685
-0.67
-0.665
-0.67
-0.655
-0.65
-0.635
-0.625
-0.615
-0.6
-0.595
-0.595
-0.59
-0.585
-0.59
-0.595
-0.6
-0.61
-0.615
-0.625
-0.625
-0.615
-0.6
-0.585
-0.56
-0.55
-0.555
-0.56
-0.58
-0.6
-0.62
-0.635
-0.63
-0.635
-0.62
-0.62
-0.615
-0.61
-0.61
-0.615
-0.63
-0.64
-0.645
-0.65
-0.65
-0.65
-0.65
-0.645
-0.635
-0.62
-0.63
-0.64
-0.64
-0.65
-0.67
-0.67
-0.655
-0.65
-0.645
-0.64
-0.64
-0.63
-0.635
-0.635
-0.64
-0.645
-0.655
-0.66
-0.655
-0.65
-0.64
-0.655
-0.63
-0.605
-0.605
-0.605
-0.595
-0.59
-0.59
-0.58
-0.58
-0.58
-0.58
-0.585
-0.585
-0.59
-0.605
-0.625
-0.645
-0.66
-0.675
-0.66
-0.65
-0.63
-0.625
-0.61
-0.59
-0.58
-0.565
-0.575
-0.585
-0.6
-0.6
-0.615
-0.625
-0.635
-0.62
-0.605
-0.605
-0.62
-0.61
-0.62
-0.63
-0.635
-0.65
-0.65
-0.66
-0.655
-0.66
-0.635
-0.63
-0.64
-0.645
-0.635
-0.64
-0.655
-0.67
-0.675
-0.675
-0.665
-0.67
-0.655
-0.645
-0.65
-0.645
-0.65
-0.65
-0.66
-0.65
-0.655
-0.64
-0.64
-0.635
-0.63
-0.615
-0.61
-0.61
-0.595
-0.585
-0.58
-0.565
-0.58
-0.57
-0.575
-0.59
-0.59
-0.615
-0.63
-0.59
-0.48
-0.29
-0.06
0.225
0.58
0.93
1.245
1.46
1.58
1.62
1.565
1.385
1.12
0.725
0.225
-0.265
-0.62
-0.79
-0.83
-0.785
-0.71
-0.64
-0.61
-0.61
-0.645
-0.69
-0.73
-0.76
-0.76
-0.77
-0.76
-0.75
-0.75
-0.75
-0.76
-0.765
-0.785
-0.8
-0.795
-0.82
-0.82
-0.825
-0.825
-0.82
-0.81
-0.805
-0.81
-0.815
-0.825
-0.82
-0.84
-0.83
-0.86
-0.85
-0.83
-0.845
-0.825
-0.815
-0.805
-0.8
-0.805
-0.81
-0.825
-0.835
-0.845
-0.87
-0.87
-0.87
-0.875
-0.88
-0.885
-0.885
-0.88
-0.89
-0.885
-0.88
-0.885
-0.885
-0.885
-0.885
-0.9
-0.905
-0.93
-0.945
-0.965
-1.005
-1.015
-1.035
-1.05
-1.06
-1.075
-1.085
-1.08
-1.095
-1.105
-1.12
-1.145
-1.16
-1.18
-1.2
-1.22
-1.225
-1.23
-1.235
-1.225
-1.215
-1.205
-1.195
-1.185
-1.185
-1.175
-1.17
-1.15
-1.12
-1.065
-1.025
-0.99
-0.955
-0.925
-0.905
-0.88
-0.85
-0.835
-0.815
-0.795
-0.77
-0.75
-0.715
-0.695
-0.675
-0.665
-0.67
-0.675
-0.675
-0.68
-0.685
-0.675
-0.675
-0.675
-0.66
-0.65
-0.645
-0.63
-0.625
-0.62
-0.63
-0.635
-0.655
-0.665
-0.675
-0.685
-0.68
-0.68
-0.67
-0.66
-0.675
-0.68
-0.685
-0.685
-0.685
-0.715
-0.695
-0.7
-0.685
-0.675
-0.665
-0.665
-0.66
-0.665
-0.665
-0.68
-0.69
-0.7
-0.695
-0.695
-0.68
-0.675
-0.68
-0.665
-0.655
-0.655
-0.675
-0.675
-0.685
-0.675
-0.685
-0.675
-0.67
-0.655
-0.655
-0.645
-0.665
-0.67
-0.67
-0.665
-0.685
-0.695
-0.675
-0.67
-0.675
-0.655
-0.645
-0.64
-0.65
-0.64
-0.65
-0.66
-0.665
-0.68
-0.675
-0.66
-0.645
-0.63
-0.615
-0.595
-0.58
-0.575
-0.575
