Lead II
0.04
0.045
0.04
0.065
0.075
0.075
0.07
0.065
0.07
0.09
0.085
0.08
0.06
0.055
0.06
0.075
0.085
0.07
0.06
0.05
0.055
0.07
0.085
0.075
0.08
0.07
0.07
0.075
0.095
0.08
0.08
0.06
0.06
0.075
0.085
0.07
0.035
0.04
0.05
0.075
0.09
0.07
0.045
0.04
0.05
0.05
0.085
0.08
0.075
0.06
0.09
0.105
0.1
0.1
0.085
0.08
0.065
0.095
0.1
0.085
0.09
0.065
0.075
0.1
0.1
0.095
0.07
0.06
0.065
0.06
0.085
0.085
0.075
0.075
0.09
0.1
0.105
0.095
0.095
0.09
0.1
0.12
0.13
0.13
0.11
0.115
0.15
0.205
0.235
0.295
0.345
0.395
0.52
0.72
0.93
1.14
1.285
1.41
1.49
1.52
1.48
1.38
1.285
1.315
1.425
1.555
1.475
1.205
0.965
0.85
0.86
0.89
0.885
0.835
0.795
0.745
0.7
0.7
0.67
0.635
0.58
0.54
0.51
0.525
0.515
0.47
0.445
0.39
0.355
0.355
0.33
0.3
0.26
0.24
0.215
0.215
0.205
0.18
0.14
0.115
0.1
0.095
0.08
0.05
0.045
0.025
0.015
0.015
0.0
0.005
-0.02
-0.055
-0.06
-0.055
-0.05
-0.06
-0.1
-0.11
-0.1
-0.095
-0.11
-0.13
-0.16
-0.175
-0.18
-0.19
-0.19
-0.2
-0.235
-0.235
-0.24
-0.25
-0.25
-0.275
-0.295
-0.315
-0.345
-0.34
-0.355
-0.385
-0.415
-0.445
-0.465
-0.47
-0.49
-0.525
-0.565
-0.615
-0.635
-0.64
-0.66
-0.695
-0.74
-0.765
-0.76
-0.765
-0.78
-0.79
-0.81
-0.82
-0.82
-0.8
-0.81
-0.795
-0.79
-0.79
-0.765
-0.73
-0.705
-0.675
-0.665
-0.63
-0.6
-0.53
-0.485
-0.465
-0.45
-0.415
-0.385
-0.34
-0.31
-0.28
-0.255
-0.265
-0.245
-0.21
-0.175
-0.17
-0.165
-0.155
-0.15
-0.11
-0.095
-0.09
-0.105
-0.095
-0.1
-0.08
-0.08
-0.075
-0.095
-0.1
-0.085
-0.055
-0.04
-0.05
-0.05
-0.055
-0.045
-0.04
-0.025
-0.035
-0.05
-0.045
-0.02
0.0
0.02
0.025
0.025
0.025
0.055
0.1
0.155
0.225
0.3
0.39
0.5
0.61
0.705
0.79
0.85
0.89
0.95
1.03
1.12
1.185
1.225
1.285
1.37
1.455
1.56
1.675
1.76
1.815
1.85
1.91
1.965
2.015
2.05
2.06
2.055
2.03
1.93
1.715
1.37
0.94
0.54
0.265
0.11
0.03
-0.03
-0.085
-0.14
-0.17
-0.205
-0.26
-0.32
-0.37
-0.375
-0.385
-0.4
-0.42
-0.44
-0.46
-0.47
-0.45
-0.46
-0.475
-0.49
-0.515
-0.515
-0.515
-0.505
-0.545
-0.56
-0.58
-0.58
-0.585
-0.575
-0.59
-0.625
-0.64
-0.655
-0.665
-0.665
-0.685
-0.72
-0.75
-0.765
-0.775
-0.805
-0.825
-0.86
-0.91
-0.94
-0.935
-0.965
-1.01
-1.04
-1.075
-1.11
-1.115
-1.145
-1.17
-1.215
-1.25
-1.27
-1.28
-1.31
-1.35
-1.375
-1.41
-1.425
-1.435
-1.45
-1.475
-1.495
-1.53
-1.53
-1.535
-1.53
-1.55
-1.555
-1.555
-1.54
-1.55
-1.51
-1.52
-1.515
-1.53
-1.515
-1.475
-1.445
-1.425
-1.415
-1.395
-1.36
-1.315
-1.275
-1.265
-1.23
-1.205
-1.155
-1.11
-1.08
-1.055
-1.02
-0.975
-0.93
-0.885
-0.83
-0.795
-0.785
-0.74
-0.71
-0.655
-0.625
-0.585
-0.57
-0.535
-0.495
-0.465
-0.45
-0.44
-0.435
-0.43
-0.415
-0.38
-0.36
-0.34
-0.36
-0.345
-0.34
-0.315
-0.29
-0.285
-0.28
-0.26
-0.235
-0.205
-0.2
-0.205
-0.195
-0.175
-0.165
-0.125
-0.1
-0.08
-0.045
0.0
0.065
0.13
0.19
0.23
0.265
0.29
0.345
0.385
0.46
0.51
0.545
0.61
0.69
0.76
0.795
0.8
0.74
0.65
0.54
0.44
0.37
0.335
0.32
0.27
0.22
0.155
0.1
0.055
0.025
-0.02
-0.095
-0.17
-0.265
-0.35
-0.41
-0.41
-0.38
-0.35
-0.36
-0.38
-0.39
-0.39
-0.4
-0.385
-0.375
-0.385
-0.395
-0.42
-0.415
-0.405
-0.4
-0.4
-0.43
-0.43
-0.455
-0.435
-0.425
-0.445
-0.465
-0.475
-0.465
-0.46
-0.46
-0.485
-0.495
-0.515
-0.52
-0.505
-0.505
-0.525
-0.535
-0.55
-0.565
-0.565
-0.55
-0.56
-0.59
-0.595
-0.605
-0.6
-0.59
-0.6
-0.62
-0.63
-0.61
-0.62
-0.62
-0.635
-0.66
-0.665
-0.675
-0.64
-0.635
-0.645
-0.665
-0.675
-0.665
-0.67
-0.67
-0.675
-0.69
-0.71
-0.71
-0.685
-0.695
-0.695
-0.705
-0.71
-0.705
-0.71
-0.69
-0.695
-0.72
-0.735
-0.735
-0.705
-0.69
-0.69
-0.69
-0.7
-0.7
-0.65
-0.63
-0.635
-0.63
-0.63
-0.62
-0.585
-0.575
-0.56
-0.58
-0.57
-0.55
-0.53
-0.505
-0.505
-0.505
-0.495
-0.48
-0.455
-0.415
-0.425
-0.44
-0.435
-0.42
-0.39
-0.38
-0.385
-0.395
-0.405
-0.4
-0.395
-0.38
-0.38
-0.37
-0.385
-0.365
-0.33
-0.33
-0.345
-0.36
-0.375
-0.37
-0.335
-0.32
-0.325
-0.34
-0.335
-0.32
-0.31
-0.32
-0.315
-0.335
-0.33
-0.33
-0.315
-0.3
-0.305
-0.325
-0.32
-0.31
-0.31
-0.285
-0.3
-0.31
-0.335
-0.32
-0.32
-0.315
-0.32
-0.325
-0.34
-0.34
-0.32
-0.315
-0.325
-0.34
-0.345
-0.345
-0.335
-0.345
-0.36
-0.36
-0.36
-0.35
-0.325
-0.32
-0.34
-0.335
-0.365
-0.35
-0.35
-0.355
-0.36
-0.355
-0.35
-0.335
-0.32
-0.315
-0.335
-0.345
-0.335
-0.33
-0.315
-0.31
-0.32
-0.34
-0.35
-0.33
-0.32
-0.305
-0.335
-0.345
-0.35
-0.34
-0.325
-0.32
-0.35
-0.35
-0.37
-0.36
-0.35
-0.355
-0.36
-0.37
-0.38
-0.375
-0.355
-0.345
-0.355
-0.37
-0.39
-0.36
-0.36
-0.36
-0.365
-0.395
-0.405
-0.385
-0.37
-0.35
-0.345
-0.365
-0.375
-0.36
-0.34
-0.335
-0.31
-0.33
-0.34
-0.32
-0.315
-0.31
-0.33
-0.345
-0.365
-0.35
-0.34
-0.33
-0.33
-0.35
-0.355
-0.36
-0.34
-0.345
-0.345
-0.35
-0.365
-0.365
-0.34
-0.33
-0.35
-0.34
-0.355
-0.345
-0.325
-0.32
-0.31
-0.32
-0.295
-0.245
-0.15
0.065
0.46
0.915
1.245
1.265
1.04
0.82
0.695
0.64
0.61
0.575
0.545
0.535
0.525
0.545
0.615
0.715
0.825
0.895
0.91
0.88
0.775
0.645
0.51
0.36
0.165
-0.085
-0.35
-0.515
-0.54
-0.465
-0.365
-0.305
-0.275
-0.265
-0.28
-0.275
-0.3
-0.32
-0.36
-0.355
-0.36
-0.355
-0.37
-0.395
-0.41
-0.41
-0.41
-0.395
-0.405
-0.43
-0.445
-0.44
-0.425
-0.43
-0.465
-0.47
-0.485
-0.465
-0.45
-0.44
-0.46
-0.475
-0.495
-0.49
-0.49
-0.49
-0.5
-0.525
-0.545
-0.555
-0.545
-0.535
-0.545
-0.56
-0.585
-0.57
-0.57
-0.57
-0.565
-0.585
-0.6
-0.62
-0.63
-0.635
-0.66
-0.69
-0.69
-0.675
-0.66
-0.655
-0.655
-0.675
-0.68
-0.7
-0.695
-0.705
-0.715
-0.745
-0.745
-0.755
-0.755
-0.77
-0.8
-0.825
-0.87
-0.885
-0.88
-0.895
-0.93
-0.97
-0.99
-1.005
-1.03
-1.03
-1.05
-1.085
-1.105
-1.12
-1.115
-1.115
-1.135
-1.155
-1.16
-1.15
-1.14
-1.145
-1.16
-1.165
-1.155
-1.145
-1.12
-1.075
-1.07
-1.07
-1.04
-1.0
-0.96
-0.94
-0.915
-0.9
-0.875
-0.84
-0.795
-0.77
-0.755
-0.745
-0.73
-0.705
-0.67
-0.64
-0.625
-0.62
-0.605
-0.595
-0.58
-0.55
-0.54
-0.555
-0.555
-0.525
-0.5
-0.495
-0.505
-0.5
-0.51
-0.49
-0.45
-0.47
-0.48
-0.485
-0.485
-0.485
-0.47
-0.465
-0.485
-0.485
-0.485
-0.475
-0.455
-0.44
-0.435
-0.455
-0.445
-0.435
-0.415
-0.385
-0.395
-0.4
-0.41
-0.415
-0.38
-0.375
-0.38
-0.405
-0.395
-0.38
-0.37
-0.365
-0.37
-0.37
-0.375
-0.375
-0.375
-0.355
-0.365
-0.37
-0.375
-0.36
-0.35
-0.35
-0.36
-0.37
-0.375
-0.375
-0.35
-0.345
-0.355
-0.365
-0.365
-0.355
-0.355
-0.345
-0.37
-0.375
-0.395
-0.385
-0.365
-0.345
-0.355
-0.38
-0.38
-0.37
-0.35
-0.325
-0.345
-0.335
-0.325
-0.295
-0.295
-0.275
-0.29
-0.295
-0.3
-0.285
-0.285
-0.28
-0.305
-0.33
-0.32
-0.32
-0.295
-0.3
-0.305
-0.315
-0.315
-0.315
-0.295
-0.29
-0.295
-0.29
-0.305
-0.3
-0.28
-0.265
-0.28
-0.295
-0.305
-0.3
-0.28
-0.27
-0.275
-0.285
-0.3
-0.305
-0.285
-0.27
-0.28
-0.305
-0.315
-0.305
-0.29
-0.275
-0.27
-0.27
-0.26
-0.21
-0.16
-0.09
0.025
0.275
0.7
1.16
1.39
1.33
1.125
0.955
0.91
0.89
0.885
0.855
0.82
0.835
0.905
1.035
1.15
1.215
1.255
1.24
1.14
1.03
0.91
0.76
0.57
0.315
0.02
-0.23
-0.34
-0.305
-0.235
-0.15
-0.1
-0.07
-0.065
-0.065
-0.095
-0.12
-0.13
-0.16
-0.15
-0.17
-0.195
-0.23
-0.26
-0.25
-0.235
-0.23
-0.245
-0.265
-0.26
-0.255
-0.23
-0.225
-0.225
-0.25
-0.25
-0.25
-0.25
-0.245
-0.255
-0.275
-0.28
-0.27
-0.275
-0.28
-0.3
-0.325
-0.335
-0.325
-0.31
-0.305
-0.31
-0.33
-0.33
-0.335
-0.345
-0.335
-0.35
-0.37
-0.38
-0.365
-0.35
-0.345
-0.36
-0.39
-0.405
-0.405
-0.415
-0.4
-0.425
-0.435
-0.46
-0.445
-0.46
-0.465
-0.475
-0.5
-0.525
-0.525
-0.525
-0.52
-0.545
-0.57
-0.605
-0.61
-0.61
-0.61
-0.615
-0.64
-0.67
-0.685
-0.7
-0.72
-0.75
-0.775
-0.78
-0.775
-0.79
-0.795
-0.81
-0.84
-0.845
-0.83
-0.825
-0.81
-0.83
-0.825
-0.825
-0.81
-0.785
-0.755
-0.74
-0.735
-0.715
-0.69
-0.65
-0.625
-0.615
-0.61
-0.6
-0.585
-0.55
-0.52
-0.51
-0.505
-0.495
-0.455
-0.43
-0.415
-0.415
-0.41
-0.395
-0.385
-0.355
-0.335
-0.34
-0.355
-0.365
-0.315
-0.285
-0.27
-0.26
-0.27
-0.27
-0.255
-0.22
-0.205
-0.21
-0.21
-0.225
-0.215
-0.195
-0.195
-0.195
-0.21
-0.22
-0.215
-0.205
-0.19
-0.21
-0.225
-0.21
-0.2
-0.185
-0.17
-0.19
-0.185
-0.205
-0.185
-0.18
-0.17
-0.19
-0.205
-0.205
-0.21
-0.2
-0.205
-0.2
-0.21
-0.205
-0.18
-0.175
-0.17
-0.165
-0.185
-0.16
-0.145
-0.135
-0.12
-0.125
-0.13
-0.13
-0.13
-0.13
-0.11
-0.125
-0.145
-0.17
-0.155
-0.145
-0.12
-0.13
-0.14
-0.155
-0.145
-0.135
-0.13
-0.14
-0.16
-0.175
-0.155
-0.14
-0.15
-0.14
-0.155
-0.165
-0.16
-0.145
-0.12
-0.13
-0.155
-0.17
-0.165
-0.16
-0.16
-0.16
-0.185
-0.205
-0.185
-0.155
-0.13
-0.13
-0.14
-0.14
-0.12
-0.095
-0.075
-0.065
-0.08
-0.09
-0.08
-0.065
-0.06
-0.06
-0.08
-0.09
-0.085
-0.07
-0.065
-0.065
-0.08
-0.08
-0.07
-0.075
-0.075
-0.085
-0.085
-0.08
-0.07
-0.055
-0.06
-0.06
-0.065
-0.065
-0.065
-0.05
-0.03
-0.025
0.015
0.065
0.13
0.205
0.305
0.445
0.625
0.85
1.045
1.205
1.295
1.33
1.305
1.245
1.16
1.11
1.135
1.28
1.425
1.43
1.235
1.005
0.9
0.885
0.86
0.845
0.825
0.775
0.75
0.715
0.665
0.605
0.56
0.52
0.485
0.425
0.375
0.35
0.32
0.295
0.26
0.205
0.165
0.135
0.12
0.115
0.095
0.04
0.025
-0.005
-0.035
-0.02
-0.025
-0.03
-0.04
-0.07
-0.06
-0.075
-0.075
-0.075
-0.085
-0.105
-0.105
-0.12
-0.11
-0.13
-0.16
-0.175
-0.18
-0.17
-0.17
-0.195
-0.215
-0.225
-0.24
-0.235
-0.24
-0.27
-0.295
-0.32
-0.32
-0.305
-0.32
-0.345
-0.38
-0.425
-0.43
-0.465
-0.485
-0.505
-0.54
-0.57
-0.6
-0.605
-0.645
-0.655
-0.69
-0.715
-0.74
-0.73
-0.75
-0.775
-0.805
-0.835
-0.85
-0.86
-0.875
-0.89
-0.895
-0.91
-0.925
-0.915
-0.9
-0.885
-0.895
-0.88
-0.855
-0.83
-0.8
-0.765
-0.765
-0.745
-0.705
-0.655
-0.625
-0.605
-0.59
-0.585
-0.545
-0.505
-0.465
-0.425
-0.425
-0.405
-0.375
-0.35
-0.33
-0.325
-0.325
-0.32
-0.315
-0.295
-0.285
-0.28
-0.27
-0.275
-0.255
-0.235
-0.215
-0.21
-0.21
-0.215
-0.195
-0.17
-0.165
-0.16
-0.15
-0.155
-0.155
-0.12
-0.12
-0.13
-0.145
-0.145
-0.13
-0.125
-0.105
-0.1
-0.115
-0.1
-0.085
-0.08
-0.035
-0.025
-0.035
-0.03
-0.005
0.045
0.1
0.145
0.195
0.245
0.33
0.43
0.52
0.605
0.675
0.73
0.78
0.84
0.91
0.97
1.02
1.085
1.15
1.225
1.3
1.375
1.475
1.555
1.65
1.705
1.755
1.815
1.875
1.945
2.005
2.035
2.04
1.99
1.89
1.71
1.43
1.07
0.69
0.37
0.135
0.015
-0.035
-0.07
-0.115
-0.195
-0.265
-0.315
-0.355
-0.37
-0.395
-0.415
-0.445
-0.47
-0.465
-0.46
-0.495
-0.505
-0.525
-0.55
-0.54
-0.555
-0.555
-0.57
-0.59
-0.6
-0.61
-0.595
-0.615
-0.61
-0.65
-0.665
-0.665
-0.675
-0.68
-0.69
-0.72
-0.73
-0.745
-0.755
-0.765
-0.79
-0.815
-0.845
-0.85
-0.85
-0.87
-0.89
-0.93
-0.945
-0.955
-0.96
-0.995
-1.025
-1.05
-1.08
-1.09
-1.11
-1.135
-1.16
-1.2
-1.23
-1.24
-1.25
-1.28
-1.33
-1.36
-1.385
-1.385
-1.385
-1.39
-1.41
-1.445
-1.46
-1.46
-1.46
-1.47
-1.485
-1.52
-1.525
-1.52
-1.51
-1.485
-1.495
-1.495
-1.495
-1.47
-1.44
-1.405
-1.41
-1.39
-1.365
-1.34
-1.295
-1.27
-1.23
-1.205
-1.195
-1.145
-1.11
-1.055
-1.025
-0.995
-0.965
-0.935
-0.88
-0.825
-0.79
-0.77
-0.74
-0.695
-0.64
-0.605
-0.585
-0.565
-0.535
-0.485
-0.45
-0.425
-0.405
-0.395
-0.385
-0.355
-0.315
-0.31
-0.29
-0.285
-0.275
-0.255
-0.23
-0.22
-0.215
-0.21
-0.215
-0.17
-0.165
-0.145
-0.14
-0.145
-0.125
-0.11
-0.075
-0.075
-0.065
-0.07
-0.075
-0.06
-0.035
-0.025
-0.02
-0.02
-0.02
-0.02
-0.005
-0.01
-0.015
-0.015
-0.025
-0.02
0.005
0.01
0.01
-0.015
0.0
0.02
0.025
0.03
0.03
0.015
0.01
0.005
0.025
0.035
0.025
0.005
0.02
0.015
0.02
0.04
0.025
0.03
0.015
0.03
0.05
0.055
0.045
0.03
0.04
0.05
0.07
0.08
0.075
0.05
0.045
0.07
0.09
0.095
0.095
0.085
0.055
0.065
0.06
0.07
0.06
0.045
0.035
0.05
0.06
0.06
0.045
0.015
0.015
0.02
0.04
0.055
0.025
0.025
0.02
0.02
0.045
0.045
0.025
0.015
0.01
0.03
0.035
0.045
0.05
0.035
0.03
0.03
0.04
0.04
0.015
0.025
0.015
0.015
0.04
0.03
0.03
0.025
0.01
0.025
0.04
0.055
0.05
0.05
0.035
0.04
0.06
0.055
0.035
0.015
-0.005
0.02
0.02
0.03
0.015
0.0
-0.015
-0.005
0.005
0.02
0.01
-0.005
-0.005
0.0
0.03
0.04
0.045
0.03
0.025
0.04
0.055
0.06
0.045
0.02
0.01
0.03
0.03
0.03
0.025
0.02
0.01
0.02
0.03
0.025
0.025
0.015
0.01
0.02
0.035
0.025
0.04
0.01
0.02
0.015
0.03
0.045
0.03
0.005
0.0
0.01
0.03
0.045
0.07
0.09
0.125
0.27
0.555
0.96
1.355
1.495
1.395
1.225
1.065
0.99
0.91
0.835
0.74
0.665
0.625
0.55
0.445
0.355
0.26
0.155
0.07
-0.04
-0.135
-0.255
-0.355
-0.46
-0.54
-0.64
-0.685
-0.695
-0.625
-0.565
-0.525
-0.495
-0.515
-0.51
-0.515
-0.485
-0.46
-0.435
-0.45
-0.48
-0.485
-0.455
-0.395
-0.275
-0.165
-0.075
-0.015
0.025
0.045
0.06
0.065
0.06
0.07
0.07
0.095
0.1
0.095
0.07
0.07
0.075
0.085
0.07
0.075
0.065
0.045
0.06
0.065
0.07
0.065
0.035
0.035
0.05
0.05
0.075
0.06
0.045
0.035
0.05
0.04
0.06
0.06
0.045
0.04
0.045
0.055
0.06
0.045
0.04
0.035
0.06
0.08
0.09
0.09
0.08
0.08
0.09
0.105
0.115
0.105
0.1
0.1
0.12
0.145
0.15
0.145
0.14
0.12
0.135
0.145
0.17
0.16
0.14
0.135
0.135
0.15
0.165
0.17
0.155
0.14
0.15
0.15
0.145
0.125
0.115
0.085
0.055
0.045
0.025
0.005
-0.025
-0.06
-0.085
-0.075
-0.12
-0.145
-0.18
-0.22
-0.235
-0.235
-0.24
-0.27
-0.29
-0.305
-0.315
-0.31
-0.315
-0.325
-0.345
-0.34
-0.345
-0.335
-0.325
-0.315
-0.32
-0.32
-0.295
-0.28
-0.275
-0.29
-0.305
-0.28
-0.265
-0.235
-0.215
-0.22
-0.225
-0.225
-0.23
-0.2
-0.2
-0.21
-0.2
-0.205
-0.175
-0.165
-0.155
-0.165
-0.185
-0.185
-0.175
-0.165
-0.165
-0.155
-0.175
-0.185
-0.19
-0.18
-0.17
-0.17
-0.185
-0.165
-0.17
-0.15
-0.145
-0.15
-0.18
-0.175
-0.17
-0.155
-0.165
-0.18
-0.175
-0.175
-0.16
-0.155
-0.165
-0.185
-0.19
-0.21
-0.205
-0.175
-0.165
-0.17
-0.19
-0.205
-0.22
-0.205
-0.195
-0.21
-0.2
-0.185
-0.15
-0.1
-0.05
0.005
0.04
0.105
0.21
0.29
0.365
0.415
0.435
0.5
0.535
0.59
0.68
0.72
0.8
0.86
0.93
1.01
1.09
1.175
1.26
1.355
1.44
1.515
1.58
1.645
1.72
1.795
1.85
1.855
1.845
1.79
1.68
1.505
1.2
0.825
0.43
0.065
-0.15
-0.255
-0.3
-0.34
-0.395
-0.47
-0.545
-0.59
-0.61
-0.64
-0.675
-0.71
-0.725
-0.745
-0.745
-0.755
-0.77
-0.8
-0.815
-0.83
-0.825
-0.82
-0.83
-0.84
-0.87
-0.89
-0.875
-0.865
-0.88
-0.895
-0.92
-0.925
-0.925
-0.92
-0.925
-0.93
-0.955
-0.97
-0.985
-0.985
-1.005
-1.035
-1.08
-1.095
-1.095
-1.115
-1.145
-1.175
-1.225
-1.26
-1.265
-1.255
-1.275
-1.3
-1.345
-1.385
-1.415
-1.42
-1.44
-1.47
-1.51
-1.535
-1.56
-1.56
-1.6
-1.625
-1.66
-1.685
-1.695
-1.695
-1.71
-1.735
-1.775
-1.79
-1.79
-1.8
-1.8
-1.82
-1.84
-1.84
-1.83
-1.82
-1.8
-1.81
-1.8
-1.795
-1.77
-1.74
-1.735
-1.72
-1.73
-1.7
-1.665
-1.625
-1.585
-1.57
-1.555
-1.555
-1.5
-1.455
-1.425
-1.395
-1.39
-1.36
-1.305
-1.245
-1.205
-1.155
-1.14
-1.11
-1.075
-1.04
-1.0
-0.99
-0.985
-0.95
-0.915
-0.865
-0.845
-0.82
-0.815
-0.795
-0.76
-0.715
-0.69
-0.69
-0.7
-0.685
-0.665
-0.635
-0.625
-0.6
-0.595
-0.58
-0.56
-0.54
-0.535
-0.53
-0.525
-0.52
-0.495
-0.46
-0.455
-0.455
-0.455
-0.45
-0.425
-0.41
-0.4
-0.405
-0.42
-0.405
-0.375
-0.345
-0.33
-0.335
-0.345
-0.33
-0.32
-0.29
-0.295
-0.305
-0.315
-0.305
-0.295
-0.29
-0.28
-0.29
-0.3
-0.285
-0.29
-0.275
-0.265
-0.285
-0.285
-0.29
-0.265
-0.245
-0.235
-0.255
-0.245
-0.245
-0.225
-0.22
-0.205
-0.21
-0.22
-0.25
-0.215
-0.22
-0.225
-0.245
-0.26
-0.24
-0.235
-0.215
-0.22
-0.23
-0.245
-0.255
-0.24
-0.225
-0.21
-0.2
-0.225
-0.255
-0.235
-0.23
-0.22
-0.21
-0.22
-0.225
-0.21
-0.205
-0.19
-0.195
-0.215
-0.22
-0.24
-0.25
-0.215
-0.215
-0.235
-0.23
-0.22
-0.2
-0.19
-0.2
-0.205
-0.22
-0.205
-0.2
-0.205
-0.215
-0.22
-0.215
-0.21
-0.205
-0.2
-0.205
-0.23
-0.235
-0.23
-0.225
-0.23
-0.225
-0.235
-0.25
-0.245
-0.215
-0.205
-0.23
-0.255
-0.245
-0.25
-0.225
-0.22
-0.23
-0.245
-0.255
-0.27
-0.25
-0.24
-0.24
-0.245
-0.26
-0.23
-0.22
-0.23
-0.235
-0.235
-0.25
-0.235
-0.235
-0.235
-0.245
-0.245
-0.245
-0.225
-0.215
-0.2
-0.21
-0.215
-0.21
-0.195
-0.18
-0.18
-0.195
-0.22
-0.225
-0.215
-0.2
-0.19
-0.215
-0.225
-0.235
-0.215
-0.205
-0.185
-0.195
-0.205
-0.21
-0.2
-0.18
-0.17
-0.175
-0.17
-0.17
-0.115
-0.02
0.165
0.48
0.875
1.25
1.38
1.265
1.07
0.915
0.825
0.77
0.71
0.645
0.58
0.505
0.445
0.395
0.355
0.32
0.31
0.325
0.36
0.42
0.49
0.535
0.57
0.54
0.495
0.445
0.39
0.36
0.29
0.165
-0.04
-0.24
-0.35
-0.335
-0.25
-0.18
-0.14
-0.115
-0.125
-0.105
-0.11
-0.135
-0.155
-0.17
-0.17
-0.18
-0.18
-0.185
-0.205
-0.215
-0.205
-0.205
-0.215
-0.225
-0.26
-0.26
-0.275
-0.255
-0.26
-0.275
-0.285
-0.295
-0.295
-0.295
-0.295
-0.295
-0.315
-0.34
-0.32
-0.315
-0.315
-0.3
-0.32
-0.325
-0.335
-0.31
-0.32
-0.31
-0.34
-0.34
-0.34
-0.33
-0.335
-0.35
-0.365
-0.38
-0.36
-0.36
-0.35
-0.37
-0.375
-0.39
-0.385
-0.38
-0.385
-0.39
-0.425
-0.425
-0.42
-0.41
-0.415
-0.43
-0.475
-0.475
-0.465
-0.47
-0.465
-0.5
-0.515
-0.53
-0.545
-0.565
-0.565
-0.585
-0.625
-0.635
-0.635
-0.65
-0.665
-0.685
-0.715
-0.745
-0.735
-0.74
-0.745
-0.765
-0.78
-0.785
-0.785
-0.775
-0.765
-0.765
-0.785
-0.78
-0.765
-0.735
-0.72
-0.72
-0.72
-0.705
-0.685
-0.655
-0.645
-0.63
-0.635
-0.62
-0.595
-0.56
-0.54
-0.54
-0.54
-0.52
-0.52
-0.485
-0.47
-0.455
-0.45
-0.445
-0.415
-0.395
-0.39
-0.37
-0.375
-0.36
-0.34
-0.33
-0.325
-0.355
-0.365
-0.36
-0.35
-0.345
-0.335
-0.35
-0.36
-0.375
-0.365
-0.355
-0.33
-0.335
-0.345
-0.35
-0.34
-0.33
-0.33
-0.34
-0.355
-0.355
-0.355
-0.335
-0.33
-0.35
-0.365
-0.36
-0.365
-0.355
-0.335
-0.355
-0.375
-0.375
-0.37
-0.365
-0.37
-0.375
-0.36
-0.365
-0.345
-0.34
-0.33
-0.325
-0.34
-0.325
-0.29
-0.26
-0.245
-0.21
-0.18
-0.14
-0.065
0.01
0.095
0.165
0.225
0.305
0.37
0.43
0.49
0.55
0.6
0.67
0.755
0.83
0.925
0.985
1.06
1.175
1.305
1.405
1.47
1.545
1.6
1.675
1.78
1.86
1.905
1.89
1.83
1.725
1.51
1.165
0.69
0.225
-0.115
-0.275
-0.35
-0.38
-0.435
-0.52
-0.61
-0.66
-0.7
-0.72
-0.725
-0.755
-0.795
-0.805
-0.805
-0.815
-0.82
-0.85
-0.865
-0.885
-0.87
-0.88
-0.87
-0.88
-0.89
-0.925
-0.925
-0.93
-0.945
-0.965
-0.995
-1.015
-1.015
-1.01
-1.03
-1.045
-1.1
-1.12
-1.115
-1.125
-1.14
-1.175
-1.22
-1.245
-1.27
-1.28
-1.3
-1.345
-1.38
-1.405
-1.425
-1.44
-1.46
-1.495
-1.545
-1.575
-1.605
-1.595
-1.625
-1.655
-1.68
-1.71
-1.725
-1.74
-1.76
-1.8
-1.825
-1.83
-1.835
-1.83
-1.825
-1.84
-1.86
-1.865
-1.87
-1.845
-1.85
-1.875
-1.85
-1.85
-1.835
-1.8
-1.77
-1.76
-1.75
-1.755
-1.705
-1.66
-1.62
-1.6
-1.58
-1.56
-1.535
-1.47
-1.44
-1.405
-1.385
-1.34
-1.295
-1.25
-1.21
-1.175
-1.155
-1.14
-1.105
-1.045
-1.0
-0.99
-0.985
-0.94
-0.9
-0.87
-0.83
-0.815
-0.82
-0.795
-0.775
-0.73
-0.695
-0.685
-0.7
-0.685
-0.67
-0.63
-0.62
-0.615
-0.62
-0.62
-0.6
-0.565
-0.545
-0.535
-0.54
-0.54
-0.525
-0.49
-0.485
-0.495
-0.49
-0.485
-0.48
-0.45
-0.445
-0.425
-0.435
-0.425
-0.41
-0.39
-0.385
-0.375
-0.39
-0.38
-0.375
-0.345
-0.32
-0.325
-0.345
-0.345
-0.335
-0.31
-0.31
-0.315
-0.325
-0.315
-0.3
-0.285
-0.28
-0.305
-0.305
-0.305
-0.31
-0.285
-0.28
-0.275
-0.29
-0.29
-0.29
-0.27
-0.26
-0.28
-0.29
-0.31
-0.295
-0.275
-0.27
-0.275
-0.305
-0.295
-0.27
-0.27
-0.265
-0.275
-0.295
-0.285
-0.26
-0.235
-0.225
-0.24
-0.245
-0.25
-0.24
-0.23
-0.23
-0.23
-0.245
-0.26
-0.25
-0.25
-0.245
-0.255
-0.26
-0.265
-0.25
-0.25
-0.22
-0.21
-0.225
-0.22
-0.225
-0.205
-0.205
-0.205
-0.22
-0.23
-0.21
-0.2
-0.2
-0.205
-0.215
-0.225
-0.225
-0.21
-0.2
-0.22
-0.235
-0.235
-0.225
-0.21
-0.21
-0.225
-0.23
-0.225
-0.21
-0.19
-0.18
-0.18
-0.195
-0.205
-0.17
-0.15
-0.17
-0.175
-0.19
-0.195
-0.185
-0.175
-0.175
-0.185
-0.195
-0.195
-0.17
-0.145
-0.155
-0.145
-0.18
-0.15
-0.145
-0.145
-0.14
-0.135
-0.155
-0.14
-0.13
-0.125
-0.12
-0.13
-0.13
-0.125
-0.125
-0.095
-0.105
-0.09
-0.095
-0.065
-0.02
0.05
0.22
0.585
1.075
1.43
1.465
1.25
1.005
0.87
0.82
0.745
0.655
0.57
0.48
0.37
0.24
0.125
0.02
-0.07
-0.18
-0.31
-0.46
-0.59
-0.72
-0.84
-0.945
-1.06
-1.175
-1.245
-1.325
-1.37
-1.43
-1.46
-1.5
-1.53
-1.495
-1.455
-1.435
-1.405
-1.36
-1.29
-1.185
-1.045
-0.945
-0.825
-0.745
-0.705
-0.685
-0.635
-0.59
-0.535
-0.465
-0.43
-0.36
-0.28
-0.19
-0.14
-0.09
-0.005
0.06
0.13
0.175
0.185
0.195
0.215
0.235
0.275
0.3
0.31
0.3
0.315
0.32
0.34
0.355
0.35
0.32
0.33
0.345
0.37
0.385
0.375
0.355
0.37
0.39
0.42
0.435
0.43
0.42
0.45
0.475
0.51
0.515
0.525
0.515
0.52
0.565
0.605
0.61
0.615
0.63
0.64
0.675
0.715
0.73
0.75
0.76
0.78
0.815
0.855
0.87
0.89
0.89
0.9
0.92
0.94
0.97
0.955
0.955
0.935
0.93
0.925
0.94
0.905
0.905
0.895
0.88
0.88
0.86
0.83
0.8
0.76
0.76
0.74
0.73
0.695
0.645
0.61
0.595
0.565
0.54
0.515
0.475
0.465
0.445
0.435
0.42
0.38
0.355
0.325
0.315
0.31
0.32
0.295
0.27
0.25
0.26
0.26
0.25
0.23
0.215
0.22
0.215
0.22
0.2
0.175
0.155
0.125
0.12
0.12
0.12
0.105
0.09
0.075
0.08
0.085
0.085
0.07
0.055
0.05
0.06
0.065
0.06
0.055
0.05
0.03
0.04
0.025
0.035
0.02
0.015
-0.01
0.0
-0.005
-0.005
-0.03
-0.04
-0.045
-0.035
-0.02
0.005
-0.02
-0.01
-0.025
-0.015
0.0
0.005
-0.005
-0.015
-0.02
-0.01
0.01
0.02
0.02
0.015
-0.005
-0.015
0.005
-0.01
-0.035
-0.07
-0.06
-0.07
-0.06
-0.05
-0.065
-0.075
-0.075
-0.07
-0.055
-0.055
-0.07
-0.09
-0.095
-0.095
-0.085
-0.075
-0.105
-0.105
-0.1
-0.095
-0.095
-0.1
-0.11
-0.12
-0.125
-0.11
-0.095
-0.105
-0.11
-0.115
-0.11
-0.095
-0.085
-0.065
-0.075
-0.085
-0.09
-0.08
-0.08
-0.07
-0.085
-0.095
-0.08
-0.07
-0.04
-0.025
-0.025
-0.04
-0.045
-0.055
-0.06
-0.065
-0.095
-0.08
-0.08
-0.08
-0.075
-0.065
-0.08
-0.085
-0.09
-0.08
-0.065
-0.05
-0.06
-0.06
-0.06
-0.05
-0.035
-0.02
0.01
0.055
0.2
0.52
0.985
1.36
1.41
1.23
1.0
0.885
0.845
0.795
0.71
0.6
0.505
0.41
0.32
0.2
0.08
-0.045
-0.175
-0.295
-0.42
-0.54
-0.705
-0.85
-0.98
-1.07
-1.155
-1.23
-1.325
-1.43
-1.5
-1.515
-1.52
-1.535
-1.51
-1.49
-1.465
-1.41
-1.345
-1.255
-1.15
-1.04
-0.945
-0.815
-0.72
-0.69
-0.685
-0.675
-0.655
-0.6
-0.52
-0.445
-0.395
-0.345
-0.28
-0.205
-0.125
-0.075
-0.025
0.01
0.055
0.115
0.145
0.175
0.175
0.175
0.18
0.22
0.26
0.27
0.27
0.275
0.28
0.3
0.335
0.34
0.36
0.35
0.345
0.36
0.355
0.35
0.365
0.35
0.34
0.37
0.395
0.395
0.405
0.415
0.415
0.43
0.455
0.465
0.47
0.48
0.49
0.515
0.545
0.56
0.59
0.59
0.605
0.635
0.655
0.67
0.675
0.695
0.705
0.725
0.76
0.775
0.785
0.79
0.79
0.815
0.835
0.87
0.87
0.865
0.87
0.89
0.905
0.905
0.885
0.87
0.86
0.855
0.865
0.865
0.835
0.795
0.76
0.725
0.7
0.67
0.62
0.565
0.52
0.5
0.485
0.45
0.41
0.375
0.33
0.3
0.275
0.275
0.25
0.2
0.175
0.155
0.14
0.125
0.085
0.055
0.03
0.025
0.035
0.02
-0.01
-0.04
-0.08
-0.08
-0.085
-0.09
-0.09
-0.115
-0.12
-0.115
-0.115
-0.115
-0.12
-0.15
-0.14
-0.135
-0.13
-0.12
-0.135
-0.15
-0.14
-0.125
-0.105
-0.085
-0.1
-0.105
-0.1
-0.095
-0.085
-0.09
-0.115
-0.12
-0.12
-0.1
-0.105
-0.095
-0.105
-0.115
-0.115
-0.11
-0.075
-0.06
-0.06
-0.08
-0.085
-0.07
-0.05
-0.02
-0.02
0.015
0.06
0.12
0.175
0.2
0.215
0.205
0.21
0.25
0.295
0.36
0.405
0.455
0.505
0.59
0.635
0.63
0.58
0.49
0.4
0.32
0.245
0.215
0.175
0.155
0.095
0.055
0.03
-0.01
-0.065
-0.155
-0.255
-0.325
-0.375
-0.43
-0.425
-0.4
-0.37
-0.355
-0.335
-0.33
-0.345
-0.365
-0.37
-0.375
-0.35
-0.35
-0.35
-0.37
-0.385
-0.38
-0.39
-0.39
-0.36
-0.365
-0.385
-0.38
-0.38
-0.375
-0.39
-0.41
-0.415
-0.405
-0.39
-0.39
-0.4
-0.425
-0.43
-0.45
-0.455
-0.475
-0.505
-0.515
-0.525
-0.505
-0.495
-0.505
-0.515
-0.545
-0.565
-0.55
-0.545
-0.53
-0.53
-0.545
-0.57
-0.555
-0.545
-0.55
-0.555
-0.59
-0.615
-0.61
-0.63
-0.63
-0.645
-0.67
-0.69
-0.705
-0.7
-0.715
-0.75
-0.76
-0.76
-0.77
-0.77
-0.79
-0.815
-0.84
-0.86
-0.865
-0.855
-0.87
-0.875
-0.915
-0.91
-0.91
-0.9
-0.905
-0.92
-0.93
-0.93
-0.9
-0.875
-0.88
-0.88
-0.89
-0.87
-0.845
-0.825
-0.8
-0.795
-0.79
-0.76
-0.725
-0.675
-0.65
-0.625
-0.6
-0.565
-0.52
-0.49
-0.455
-0.44
