Lead II
-0.49
-0.465
-0.48
-0.495
-0.495
-0.5
-0.49
-0.485
-0.48
-0.495
-0.505
-0.505
-0.485
-0.49
-0.475
-0.49
-0.5
-0.495
-0.48
-0.475
-0.48
-0.49
-0.505
-0.515
-0.505
-0.485
-0.48
-0.485
-0.5
-0.495
-0.5
-0.485
-0.485
-0.485
-0.505
-0.515
-0.505
-0.5
-0.495
-0.49
-0.495
-0.505
-0.51
-0.495
-0.5
-0.49
-0.485
-0.485
-0.485
-0.495
-0.48
-0.475
-0.46
-0.455
-0.445
-0.43
-0.42
-0.42
-0.425
-0.435
-0.435
-0.43
-0.4
-0.37
-0.35
-0.34
-0.32
-0.315
-0.325
-0.31
-0.315
-0.315
-0.325
-0.34
-0.345
-0.35
-0.35
-0.385
-0.395
-0.42
-0.475
-0.535
-0.565
-0.58
-0.575
-0.56
-0.545
-0.545
-0.535
-0.545
-0.55
-0.54
-0.53
-0.535
-0.535
-0.535
-0.525
-0.51
-0.5
-0.515
-0.505
-0.505
-0.5
-0.49
-0.485
-0.49
-0.48
-0.475
-0.46
-0.46
-0.46
-0.465
-0.44
-0.405
-0.34
-0.22
-0.075
0.055
0.195
0.335
0.525
0.7
0.86
0.945
0.975
0.915
0.76
0.5
0.245
0.09
0.06
0.02
-0.07
-0.22
-0.345
-0.405
-0.42
-0.445
-0.455
-0.51
-0.55
-0.575
-0.62
-0.63
-0.645
-0.645
-0.65
-0.65
-0.67
-0.675
-0.655
-0.635
-0.615
-0.605
-0.605
-0.64
-0.62
-0.62
-0.6
-0.605
-0.61
-0.615
-0.615
-0.605
-0.61
-0.61
-0.615
-0.61
-0.59
-0.585
-0.58
-0.57
-0.575
-0.575
-0.565
-0.55
-0.555
-0.55
-0.57
-0.575
-0.555
-0.56
-0.55
-0.55
-0.55
-0.565
-0.545
-0.53
-0.525
-0.515
-0.515
-0.51
-0.5
-0.495
-0.49
-0.49
-0.5
-0.49
-0.49
-0.46
-0.44
-0.42
-0.44
-0.445
-0.445
-0.415
-0.405
-0.4
-0.405
-0.405
-0.37
-0.34
-0.33
-0.32
-0.32
-0.305
-0.305
-0.27
-0.255
-0.255
-0.265
-0.265
-0.27
-0.26
-0.24
-0.245
-0.245
-0.265
-0.27
-0.265
-0.27
-0.3
-0.32
-0.33
-0.32
-0.31
-0.33
-0.35
-0.35
-0.355
-0.375
-0.38
-0.375
-0.385
-0.39
-0.385
-0.395
-0.395
-0.41
-0.39
-0.4
-0.405
-0.4
-0.39
-0.39
-0.385
-0.385
-0.395
-0.395
-0.4
-0.41
-0.395
-0.395
-0.375
-0.37
-0.36
-0.355
-0.37
-0.39
-0.395
-0.37
-0.355
-0.36
-0.365
-0.38
-0.38
-0.38
-0.375
-0.375
-0.38
-0.37
-0.375
-0.36
-0.355
-0.36
-0.365
-0.34
-0.345
-0.335
-0.335
-0.34
-0.345
-0.34
-0.33
-0.295
-0.29
-0.285
-0.295
-0.31
-0.31
-0.29
-0.26
-0.26
-0.265
-0.275
-0.275
-0.265
-0.245
-0.25
-0.25
-0.25
-0.265
-0.255
-0.235
-0.24
-0.235
-0.22
-0.185
-0.165
-0.16
-0.15
-0.155
-0.145
-0.11
-0.075
-0.04
-0.035
-0.055
-0.06
-0.045
-0.005
0.025
0.035
0.0
-0.04
-0.07
-0.07
-0.065
-0.065
-0.105
-0.16
-0.225
-0.27
-0.28
-0.28
-0.29
-0.315
-0.33
-0.335
-0.33
-0.335
-0.325
-0.335
-0.34
-0.35
-0.33
-0.33
-0.355
-0.355
-0.355
-0.345
-0.335
-0.335
-0.345
-0.35
-0.35
-0.345
-0.345
-0.34
-0.345
-0.34
-0.32
-0.285
-0.235
-0.145
-0.03
0.13
0.31
0.53
0.72
0.9
1.04
1.12
1.135
1.055
0.86
0.555
0.29
0.175
0.15
0.09
-0.005
-0.135
-0.2
-0.215
-0.23
-0.26
-0.29
-0.315
-0.34
-0.365
-0.38
-0.4
-0.405
-0.395
-0.395
-0.385
-0.37
-0.345
-0.33
-0.315
-0.325
-0.325
-0.33
-0.31
-0.295
-0.265
-0.265
-0.265
-0.245
-0.24
-0.22
-0.205
-0.2
-0.19
-0.18
-0.165
-0.17
-0.155
-0.15
-0.155
-0.16
-0.165
-0.155
-0.145
-0.15
-0.16
-0.17
-0.16
-0.145
-0.145
-0.155
-0.165
-0.175
-0.155
-0.155
-0.15
-0.145
-0.15
-0.15
-0.145
-0.145
-0.155
-0.16
-0.16
-0.155
-0.145
-0.135
-0.13
-0.125
-0.125
-0.115
-0.105
-0.09
-0.075
-0.055
-0.045
-0.04
-0.025
-0.005
0.01
0.01
0.025
0.02
0.045
0.055
0.075
0.085
0.07
0.065
0.08
0.1
0.105
0.1
0.075
0.06
0.065
0.07
0.065
0.06
0.035
0.035
0.045
0.05
0.045
0.03
0.015
0.0
0.01
0.01
0.025
0.01
0.02
0.005
0.02
0.025
0.015
0.02
0.02
0.025
0.045
0.05
0.045
0.04
0.035
0.03
0.045
0.055
0.06
0.055
0.045
0.04
0.065
0.07
0.095
0.09
0.075
0.065
0.055
0.065
0.085
0.11
0.12
0.08
0.055
0.035
0.015
0.02
0.005
-0.01
-0.015
0.0
0.005
0.015
0.02
0.025
0.04
0.05
0.04
0.035
0.02
0.01
0.01
0.01
0.015
-0.005
-0.02
-0.03
-0.035
-0.045
-0.05
-0.055
-0.06
-0.065
-0.05
-0.055
-0.06
-0.07
-0.07
-0.075
-0.075
-0.07
-0.075
-0.07
-0.075
-0.085
-0.06
-0.045
-0.045
-0.065
-0.08
-0.09
-0.075
-0.045
-0.02
-0.015
-0.015
-0.015
-0.01
0.01
0.02
0.025
0.005
-0.025
-0.02
-0.04
-0.045
-0.08
-0.12
-0.145
-0.165
-0.185
-0.21
-0.225
-0.255
-0.28
-0.295
-0.27
-0.265
-0.255
-0.27
-0.29
-0.31
-0.305
-0.285
-0.27
-0.27
-0.27
-0.27
-0.255
-0.28
-0.295
-0.305
-0.33
-0.305
-0.26
-0.2
-0.17
-0.19
-0.24
-0.315
-0.345
-0.33
-0.27
-0.205
-0.13
0.01
0.185
0.39
0.585
0.76
0.91
1.075
1.185
1.245
1.23
1.1
0.81
0.485
0.275
0.185
0.145
0.08
-0.035
-0.13
-0.17
-0.215
-0.265
-0.35
-0.39
-0.34
-0.32
-0.35
-0.455
-0.53
-0.54
-0.495
-0.455
-0.445
-0.425
-0.425
-0.42
-0.415
-0.405
-0.385
-0.375
-0.375
-0.375
-0.32
-0.275
-0.25
-0.26
-0.29
-0.3
-0.255
-0.23
-0.24
-0.305
-0.35
-0.355
-0.31
-0.27
-0.28
-0.33
-0.345
-0.345
-0.305
-0.275
-0.265
-0.26
-0.245
-0.245
-0.24
-0.245
-0.26
-0.275
-0.275
-0.27
-0.245
-0.23
-0.22
-0.21
-0.205
-0.2
-0.19
-0.205
-0.215
-0.255
-0.27
-0.245
-0.2
-0.175
-0.175
-0.185
-0.18
-0.18
-0.165
-0.155
-0.14
-0.125
-0.11
-0.1
-0.035
0.035
0.095
0.085
-0.015
-0.08
-0.06
0.0
0.015
-0.005
-0.025
-0.03
-0.015
0.0
0.035
0.05
0.06
0.005
-0.05
-0.105
-0.14
-0.125
-0.105
-0.08
-0.085
-0.095
-0.115
-0.14
-0.155
-0.15
-0.125
-0.1
-0.095
-0.135
-0.18
-0.21
-0.2
-0.175
-0.16
-0.16
-0.155
-0.135
-0.11
-0.085
-0.105
-0.15
-0.185
-0.2
-0.19
-0.16
-0.125
-0.125
-0.145
-0.17
-0.16
-0.14
-0.125
-0.11
-0.135
-0.16
-0.145
-0.13
-0.115
-0.12
-0.155
-0.2
-0.215
-0.195
-0.155
-0.135
-0.135
-0.135
-0.145
-0.155
-0.18
-0.205
-0.19
-0.195
-0.16
-0.145
-0.145
-0.135
-0.14
-0.155
-0.165
-0.15
-0.105
-0.065
-0.085
-0.135
-0.18
-0.19
-0.195
-0.21
-0.235
-0.265
-0.255
-0.225
-0.21
-0.19
-0.185
-0.175
-0.15
-0.12
-0.125
-0.15
-0.155
-0.14
-0.1
-0.05
-0.02
-0.025
-0.04
-0.03
-0.01
0.005
0.01
-0.005
-0.03
-0.07
-0.075
-0.07
-0.075
-0.075
-0.095
-0.125
-0.15
-0.185
-0.23
-0.255
-0.275
-0.285
-0.265
-0.24
-0.24
-0.24
-0.24
-0.23
-0.22
-0.215
-0.215
-0.19
-0.18
-0.21
-0.235
-0.23
-0.21
-0.195
-0.175
-0.195
-0.195
-0.15
-0.11
-0.1
-0.165
-0.27
-0.325
-0.295
-0.215
-0.135
-0.11
-0.075
0.0
0.14
0.34
0.53
0.69
0.87
1.03
1.175
1.285
1.33
1.295
1.135
0.87
0.61
0.44
0.375
0.325
0.225
0.09
0.0
-0.02
-0.03
-0.1
-0.255
-0.38
-0.39
-0.36
-0.32
-0.33
-0.38
-0.43
-0.425
-0.415
-0.42
-0.445
-0.465
-0.415
-0.37
-0.395
-0.46
-0.505
-0.49
-0.455
-0.415
-0.39
-0.385
-0.375
-0.385
-0.36
-0.355
-0.37
-0.39
-0.405
-0.395
-0.375
-0.365
-0.36
-0.38
-0.38
-0.385
-0.375
-0.36
-0.36
-0.365
-0.375
-0.375
-0.365
-0.36
-0.35
-0.365
-0.37
-0.375
-0.36
-0.355
-0.35
-0.355
-0.345
-0.355
-0.34
-0.32
-0.305
-0.3
-0.295
-0.305
-0.29
-0.27
-0.26
-0.255
-0.255
-0.235
-0.21
-0.185
-0.175
-0.19
-0.175
-0.17
-0.145
-0.11
-0.08
-0.085
-0.075
-0.075
-0.04
-0.02
-0.005
-0.01
-0.03
-0.015
-0.005
0.01
0.015
0.015
0.005
-0.005
-0.01
-0.015
-0.015
-0.045
-0.07
-0.09
-0.085
-0.08
-0.08
-0.1
-0.105
-0.12
-0.13
-0.125
-0.12
-0.115
-0.13
-0.14
-0.14
-0.135
-0.12
-0.11
-0.11
-0.095
-0.115
-0.12
-0.11
-0.08
-0.085
-0.12
-0.17
-0.19
-0.165
-0.14
-0.13
-0.145
-0.13
-0.11
-0.11
-0.14
-0.145
-0.165
-0.145
-0.135
-0.12
-0.12
-0.145
-0.16
-0.165
-0.175
-0.155
-0.155
-0.16
-0.175
-0.16
-0.175
-0.185
-0.195
-0.2
-0.215
-0.215
-0.21
-0.21
-0.22
-0.225
-0.25
-0.25
-0.24
-0.245
-0.245
-0.245
-0.255
-0.235
-0.235
-0.255
-0.245
-0.225
-0.205
-0.18
-0.175
-0.165
-0.165
-0.185
-0.19
-0.165
-0.11
-0.085
-0.065
-0.06
-0.055
-0.06
-0.035
-0.03
-0.03
-0.055
-0.08
-0.07
-0.07
-0.05
-0.07
-0.085
-0.125
-0.155
-0.205
-0.235
-0.245
-0.245
-0.245
-0.245
-0.22
-0.225
-0.22
-0.215
-0.24
-0.245
-0.25
-0.24
-0.225
-0.215
-0.235
-0.225
-0.245
-0.255
-0.245
-0.24
-0.23
-0.225
-0.21
-0.205
-0.23
-0.24
-0.235
-0.205
-0.165
-0.105
-0.01
0.135
0.3
0.485
0.655
0.85
1.025
1.15
1.21
1.19
1.095
0.855
0.535
0.3
0.205
0.195
0.14
0.02
-0.125
-0.205
-0.22
-0.22
-0.25
-0.29
-0.33
-0.355
-0.375
-0.385
-0.4
-0.41
-0.395
-0.395
-0.405
-0.39
-0.39
-0.385
-0.38
-0.375
-0.375
-0.37
-0.365
-0.375
-0.38
-0.37
-0.36
-0.345
-0.33
-0.335
-0.34
-0.35
-0.35
-0.34
-0.33
-0.335
-0.34
-0.34
-0.355
-0.33
-0.315
-0.31
-0.31
-0.305
-0.335
-0.325
-0.31
-0.31
-0.32
-0.325
-0.34
-0.33
-0.325
-0.32
-0.32
-0.31
-0.335
-0.32
-0.32
-0.3
-0.29
-0.295
-0.295
-0.285
-0.27
-0.27
-0.275
-0.275
-0.27
-0.265
-0.24
-0.23
-0.225
-0.215
-0.21
-0.195
-0.175
-0.155
-0.145
-0.145
-0.155
-0.135
-0.11
-0.095
-0.095
-0.105
-0.12
-0.11
-0.11
-0.095
-0.11
-0.13
-0.135
-0.14
-0.145
-0.155
-0.17
-0.175
-0.185
-0.185
-0.175
-0.175
-0.19
-0.21
-0.23
-0.225
-0.22
-0.23
-0.24
-0.255
-0.255
-0.23
-0.225
-0.215
-0.225
-0.235
-0.25
-0.23
-0.215
-0.215
-0.215
-0.235
-0.235
-0.225
-0.205
-0.2
-0.205
-0.22
-0.245
-0.235
-0.215
-0.21
-0.205
-0.215
-0.23
-0.225
-0.215
-0.2
-0.225
-0.23
-0.24
-0.255
-0.25
-0.245
-0.265
-0.25
-0.255
-0.255
-0.24
-0.255
-0.265
-0.275
-0.28
-0.265
-0.255
-0.25
-0.27
-0.27
-0.275
-0.265
-0.26
-0.26
-0.275
-0.29
-0.295
-0.29
-0.275
-0.255
-0.265
-0.265
-0.255
-0.225
-0.21
-0.205
-0.22
-0.23
-0.24
-0.205
-0.175
-0.14
-0.135
-0.14
-0.135
-0.095
-0.07
-0.055
-0.07
-0.09
-0.12
-0.145
-0.125
-0.125
-0.15
-0.2
-0.245
-0.29
-0.31
-0.315
-0.32
-0.33
-0.335
-0.335
-0.34
-0.33
-0.33
-0.345
-0.345
-0.335
-0.325
-0.315
-0.315
-0.32
-0.335
-0.31
-0.3
-0.295
-0.285
-0.285
-0.285
-0.285
-0.28
-0.275
-0.275
-0.255
-0.22
-0.155
-0.025
0.145
0.345
0.555
0.765
0.97
1.14
1.215
1.21
1.135
0.895
0.565
0.31
0.215
0.18
0.11
-0.03
-0.15
-0.2
-0.225
-0.265
-0.32
-0.375
-0.42
-0.415
-0.43
-0.46
-0.485
-0.495
-0.48
-0.465
-0.46
-0.46
-0.47
-0.47
-0.46
-0.455
-0.45
-0.45
-0.45
-0.445
-0.43
-0.42
-0.43
-0.425
-0.42
-0.42
-0.4
-0.4
-0.405
-0.4
-0.41
-0.425
-0.405
-0.4
-0.415
-0.43
-0.43
-0.435
-0.42
-0.4
-0.41
-0.415
-0.435
-0.455
-0.435
-0.415
-0.42
-0.42
-0.445
-0.435
-0.415
-0.41
-0.39
-0.395
-0.39
-0.39
-0.375
-0.36
-0.34
-0.33
-0.335
-0.34
-0.32
-0.31
-0.285
-0.275
-0.27
-0.255
-0.225
-0.2
-0.215
-0.18
-0.175
-0.165
-0.14
-0.13
-0.12
-0.115
-0.115
-0.14
-0.125
-0.115
-0.115
-0.135
-0.16
-0.18
-0.185
-0.175
-0.195
-0.2
-0.2
-0.21
-0.2
-0.205
-0.215
-0.23
-0.24
-0.25
-0.235
-0.24
-0.25
-0.255
-0.26
-0.26
-0.255
-0.26
-0.25
-0.255
-0.285
-0.28
-0.28
-0.26
-0.26
-0.255
-0.265
-0.26
-0.26
-0.265
-0.25
-0.255
-0.255
-0.26
-0.245
-0.23
-0.22
-0.23
-0.24
-0.235
-0.235
-0.225
-0.215
-0.215
-0.23
-0.24
-0.215
-0.22
-0.235
-0.245
-0.25
-0.265
-0.255
-0.25
-0.245
-0.25
-0.265
-0.275
-0.26
-0.245
-0.255
-0.245
-0.27
-0.275
-0.26
-0.24
-0.235
-0.23
-0.225
-0.215
-0.195
-0.19
-0.15
-0.125
-0.125
-0.135
-0.135
-0.115
-0.08
-0.05
-0.03
-0.025
0.01
0.03
0.035
0.05
0.055
0.045
0.03
0.01
-0.005
-0.02
-0.02
-0.05
-0.08
-0.12
-0.175
-0.22
-0.25
-0.245
-0.215
-0.205
-0.19
-0.21
-0.235
-0.24
-0.245
-0.23
-0.22
-0.22
-0.22
-0.205
-0.205
-0.21
-0.21
-0.22
-0.22
-0.205
-0.2
-0.19
-0.185
-0.17
-0.165
-0.18
-0.18
-0.18
-0.135
-0.075
0.0
0.12
0.305
0.525
0.755
0.97
1.145
1.265
1.315
1.32
1.18
0.89
0.595
0.44
0.425
0.425
0.305
0.16
0.025
-0.02
-0.04
-0.075
-0.095
-0.14
-0.17
-0.21
-0.23
-0.24
-0.245
-0.26
-0.265
-0.275
-0.265
-0.255
-0.235
-0.23
-0.225
-0.215
-0.225
-0.215
-0.22
-0.21
-0.22
-0.235
-0.21
-0.18
-0.17
-0.165
-0.18
-0.19
-0.18
-0.175
-0.17
-0.17
-0.16
-0.16
-0.145
-0.145
-0.165
-0.185
-0.195
-0.205
-0.17
-0.15
-0.16
-0.18
-0.185
-0.205
-0.19
-0.175
-0.18
-0.175
-0.185
-0.18
-0.175
-0.16
-0.16
-0.16
-0.175
-0.185
-0.18
-0.15
-0.14
-0.14
-0.15
-0.145
-0.125
-0.115
-0.12
-0.11
-0.1
-0.105
-0.075
-0.075
-0.065
-0.07
-0.05
-0.04
-0.015
0.01
0.01
-0.005
-0.03
-0.055
-0.055
-0.05
-0.055
-0.06
-0.09
-0.13
-0.15
-0.175
-0.21
-0.23
-0.255
-0.245
-0.225
-0.215
-0.21
-0.215
-0.23
-0.25
-0.265
-0.285
-0.305
-0.32
-0.34
-0.36
-0.375
-0.385
-0.38
-0.385
-0.385
-0.39
-0.39
-0.4
-0.395
-0.38
-0.375
-0.38
-0.39
-0.395
-0.4
-0.425
-0.435
-0.42
-0.41
-0.4
-0.405
-0.415
-0.43
-0.44
-0.435
-0.41
-0.385
-0.39
-0.39
-0.4
-0.39
-0.385
-0.37
-0.37
-0.385
-0.385
-0.385
-0.365
-0.355
-0.36
-0.345
-0.355
-0.35
-0.35
-0.33
-0.325
-0.32
-0.335
-0.33
-0.33
-0.34
-0.35
-0.36
-0.34
-0.335
-0.295
-0.31
-0.3
-0.3
-0.305
-0.28
-0.255
-0.24
-0.225
-0.235
-0.25
-0.255
-0.215
-0.19
-0.19
-0.19
-0.18
-0.175
-0.125
-0.105
-0.085
-0.1
-0.155
-0.18
-0.175
-0.175
-0.195
-0.22
-0.29
-0.325
-0.36
-0.38
-0.38
-0.36
-0.37
-0.375
-0.37
-0.365
-0.375
-0.385
-0.375
-0.37
-0.365
-0.35
-0.355
-0.365
-0.38
-0.385
-0.39
-0.375
-0.375
-0.38
-0.385
-0.385
-0.385
-0.375
-0.375
-0.41
-0.41
-0.39
-0.36
-0.325
-0.285
-0.195
-0.045
0.14
0.315
0.485
0.645
0.795
0.92
1.005
1.01
0.97
0.825
0.535
0.245
0.075
0.06
0.055
-0.015
-0.14
-0.27
-0.34
-0.375
-0.38
-0.43
-0.475
-0.495
-0.515
-0.525
-0.565
-0.59
-0.6
-0.57
-0.54
-0.495
-0.485
-0.5
-0.53
-0.555
-0.545
-0.51
-0.49
-0.47
-0.46
-0.475
-0.475
-0.455
-0.45
-0.44
-0.435
-0.445
-0.44
-0.435
-0.415
-0.405
-0.4
-0.41
-0.41
-0.405
-0.395
-0.415
-0.435
-0.45
-0.44
-0.425
-0.41
-0.41
-0.43
-0.45
-0.435
-0.425
-0.415
-0.415
-0.43
-0.45
-0.45
-0.43
-0.415
-0.395
-0.38
-0.405
-0.405
-0.395
-0.375
-0.39
-0.39
-0.38
-0.35
-0.35
-0.35
-0.355
-0.34
-0.33
-0.32
-0.315
-0.285
-0.275
-0.245
-0.24
-0.215
-0.22
-0.205
-0.175
-0.155
-0.165
-0.165
-0.155
-0.155
-0.14
-0.16
-0.165
-0.155
-0.16
-0.16
-0.16
-0.165
-0.19
-0.195
-0.19
-0.205
-0.205
-0.23
-0.25
-0.245
-0.23
-0.21
-0.235
-0.245
-0.255
-0.24
-0.24
-0.24
-0.25
-0.265
-0.255
-0.24
-0.225
-0.22
-0.23
-0.22
-0.23
-0.21
-0.205
-0.195
-0.21
-0.215
-0.22
-0.215
-0.2
-0.2
-0.205
-0.21
-0.205
-0.21
-0.2
-0.19
-0.185
-0.195
-0.215
-0.225
-0.225
-0.22
-0.255
-0.26
-0.25
-0.225
-0.21
-0.23
-0.25
-0.26
-0.285
-0.255
-0.235
-0.225
-0.23
-0.23
-0.24
-0.22
-0.19
-0.16
-0.175
-0.195
-0.23
-0.24
-0.245
-0.21
-0.18
-0.18
-0.18
-0.17
-0.16
-0.15
-0.14
-0.115
-0.135
-0.135
-0.13
-0.105
-0.08
-0.035
-0.01
0.0
0.01
0.0
0.01
0.015
0.025
0.045
0.065
0.065
0.045
0.03
0.005
0.0
0.0
-0.015
-0.06
-0.105
-0.155
-0.17
-0.18
-0.185
-0.2
-0.205
-0.23
-0.23
-0.205
-0.2
-0.195
-0.205
-0.225
-0.23
-0.225
-0.2
-0.195
-0.205
-0.22
-0.235
-0.23
-0.205
-0.2
-0.185
-0.185
-0.175
-0.17
-0.165
-0.165
-0.16
-0.12
-0.035
0.07
0.23
0.415
0.61
0.82
1.045
1.21
1.3
1.315
1.255
1.055
0.745
0.495
0.385
0.37
0.315
0.225
0.085
-0.005
-0.055
-0.09
-0.14
-0.2
-0.24
-0.26
-0.265
-0.285
-0.315
-0.335
-0.325
-0.315
-0.305
-0.31
-0.31
-0.3
-0.29
-0.28
-0.27
-0.285
-0.28
-0.275
-0.25
-0.225
-0.2
-0.19
-0.18
-0.175
-0.17
-0.165
-0.165
-0.17
-0.15
-0.17
-0.16
-0.14
-0.135
-0.135
-0.125
-0.12
-0.085
-0.07
-0.065
-0.075
-0.08
-0.09
-0.065
-0.045
-0.01
0.025
0.04
0.06
0.085
0.125
0.15
0.18
0.18
0.185
0.22
0.23
0.24
0.23
0.25
0.26
0.29
0.315
0.335
0.335
0.345
0.34
0.355
0.37
0.355
0.34
0.335
0.31
0.33
0.32
0.335
0.34
0.32
0.3
0.32
0.34
0.335
0.35
0.335
0.34
0.34
0.345
0.35
0.35
0.335
0.315
0.31
0.3
0.28
0.28
0.255
0.23
0.225
0.215
0.2
0.165
0.145
0.135
0.15
0.155
0.145
0.125
0.1
0.08
0.075
0.085
0.065
0.055
0.045
0.03
0.05
0.065
0.07
0.085
0.1
0.135
0.22
0.305
0.4
0.505
0.625
0.77
0.945
1.075
1.19
1.305
1.455
1.625
1.78
1.9
1.95
1.95
1.84
1.56
1.125
0.7
0.435
0.27
0.095
-0.12
-0.325
-0.425
-0.49
-0.505
-0.5
-0.5
-0.48
-0.47
-0.475
-0.48
-0.49
-0.505
-0.495
-0.5
-0.5
-0.515
-0.53
-0.56
-0.55
-0.54
-0.555
-0.57
-0.61
-0.645
-0.655
-0.64
-0.62
-0.62
-0.625
-0.63
-0.62
-0.615
-0.605
-0.605
-0.6
-0.62
-0.605
-0.605
-0.6
-0.555
-0.535
-0.52
-0.53
-0.515
-0.54
-0.54
-0.55
-0.54
-0.535
-0.545
-0.545
-0.555
-0.55
-0.54
-0.54
-0.53
-0.52
-0.52
-0.52
-0.51
-0.485
-0.475
-0.465
-0.485
-0.48
-0.47
-0.455
-0.415
-0.4
-0.405
-0.395
-0.395
-0.375
-0.345
-0.325
-0.32
-0.29
-0.285
-0.26
-0.23
-0.21
-0.205
-0.19
-0.17
-0.14
-0.12
-0.105
-0.1
-0.1
-0.09
-0.08
-0.07
-0.08
-0.09
-0.11
-0.125
-0.12
-0.125
-0.125
-0.145
-0.16
-0.175
-0.185
-0.175
-0.185
-0.195
-0.22
-0.23
-0.23
-0.21
-0.21
-0.225
-0.245
-0.27
-0.25
-0.235
-0.22
-0.21
-0.21
-0.21
-0.19
-0.185
-0.175
-0.16
-0.155
-0.135
-0.12
-0.12
-0.12
-0.125
-0.115
-0.125
-0.125
-0.15
-0.16
-0.175
-0.175
-0.18
-0.18
-0.18
-0.19
-0.22
-0.235
-0.25
-0.25
-0.235
-0.235
-0.255
-0.265
-0.28
-0.275
-0.255
-0.255
-0.27
-0.28
-0.28
-0.27
-0.275
-0.26
-0.255
-0.255
-0.25
-0.25
-0.235
-0.24
-0.24
-0.24
-0.225
-0.19
-0.185
-0.2
-0.215
-0.21
-0.215
-0.205
-0.195
-0.2
-0.22
-0.26
-0.275
-0.275
-0.255
-0.26
-0.28
-0.295
-0.33
-0.335
-0.335
-0.34
-0.34
-0.35
-0.355
-0.36
-0.36
-0.36
-0.36
-0.355
-0.35
-0.345
-0.335
-0.33
-0.33
-0.33
-0.34
-0.34
-0.345
-0.325
-0.315
-0.28
-0.27
-0.28
-0.305
-0.37
-0.415
-0.43
-0.41
-0.355
-0.32
-0.305
-0.31
-0.305
-0.305
-0.29
-0.275
-0.265
-0.27
-0.265
-0.27
-0.255
-0.235
-0.225
-0.225
-0.235
-0.245
-0.23
-0.225
-0.22
-0.23
-0.23
-0.22
-0.225
-0.23
-0.235
-0.23
-0.23
-0.235
-0.23
-0.22
-0.225
-0.235
-0.245
-0.235
-0.225
-0.22
-0.23
-0.245
-0.25
-0.28
-0.28
-0.26
-0.265
-0.265
-0.28
-0.305
-0.3
-0.295
-0.28
-0.28
-0.29
-0.3
-0.295
-0.29
-0.285
-0.285
-0.285
-0.27
-0.25
-0.235
-0.225
-0.235
-0.245
-0.255
-0.24
-0.215
-0.18
-0.15
-0.135
-0.125
-0.11
-0.095
-0.08
-0.085
-0.09
-0.1
-0.1
-0.095
-0.1
-0.125
-0.13
-0.16
-0.2
-0.24
-0.275
-0.29
-0.31
-0.33
-0.32
-0.32
-0.31
-0.3
-0.29
-0.285
-0.275
-0.26
-0.25
-0.26
-0.255
-0.26
-0.24
-0.225
-0.22
-0.205
-0.23
-0.215
-0.205
-0.19
-0.175
-0.165
-0.145
-0.145
-0.12
-0.105
-0.09
-0.065
-0.005
0.09
0.235
0.4
0.58
0.75
0.905
1.055
1.2
1.285
1.27
1.195
1.02
0.72
0.44
0.3
0.29
0.285
0.17
0.025
-0.07
-0.09
-0.095
-0.095
-0.13
-0.17
-0.17
-0.155
-0.15
-0.205
-0.32
-0.415
-0.42
-0.355
-0.29
-0.31
-0.34
-0.35
-0.33
-0.305
-0.27
-0.255
-0.25
-0.275
-0.275
-0.27
-0.235
-0.22
-0.205
-0.195
-0.155
-0.175
-0.26
-0.345
-0.415
-0.41
-0.375
-0.35
-0.37
-0.415
-0.47
-0.52
-0.505
-0.47
-0.42
-0.4
-0.38
-0.375
-0.355
-0.34
-0.34
-0.385
-0.44
-0.445
-0.405
-0.36
-0.35
-0.355
-0.36
-0.36
-0.315
-0.29
-0.275
-0.265
-0.24
-0.2
-0.115
-0.04
-0.03
-0.115
-0.21
-0.24
-0.23
-0.215
-0.185
-0.155
-0.12
-0.085
-0.05
-0.01
0.02
0.045
0.045
-0.01
-0.045
-0.03
0.01
0.035
0.045
0.035
0.02
0.02
0.02
0.035
0.075
0.09
0.085
0.04
-0.005
-0.005
-0.005
-0.025
-0.045
-0.055
-0.07
-0.105
-0.115
-0.135
-0.155
-0.2
-0.22
-0.225
-0.225
-0.235
-0.28
-0.305
-0.335
-0.345
-0.35
-0.355
-0.335
-0.315
-0.335
-0.355
-0.38
-0.365
-0.36
-0.355
-0.355
-0.325
-0.335
-0.365
-0.435
-0.46
-0.425
-0.38
-0.375
-0.425
-0.48
-0.49
-0.465
-0.435
-0.4
-0.415
-0.42
-0.43
-0.435
-0.43
-0.42
-0.425
-0.44
-0.455
-0.46
-0.46
-0.455
-0.45
-0.42
-0.395
-0.365
-0.37
-0.435
-0.495
-0.51
-0.475
-0.46
-0.445
-0.455
-0.475
-0.48
-0.45
-0.405
-0.385
-0.39
-0.445
-0.5
-0.535
-0.52
-0.49
-0.46
-0.42
-0.355
-0.325
-0.345
-0.425
-0.5
-0.5
-0.445
-0.365
-0.31
-0.265
-0.27
-0.305
-0.34
-0.33
-0.285
-0.24
-0.225
-0.265
-0.335
-0.405
-0.455
-0.46
-0.45
-0.445
-0.455
-0.475
-0.505
-0.525
-0.555
-0.595
-0.585
-0.535
-0.485
-0.53
-0.625
-0.68
-0.63
-0.555
-0.54
-0.6
-0.62
-0.585
-0.54
-0.52
-0.545
-0.6
-0.63
-0.61
-0.565
-0.515
-0.535
-0.565
-0.605
-0.595
-0.55
-0.5
-0.49
-0.485
-0.485
-0.42
-0.27
-0.08
0.1
0.225
0.335
0.5
0.725
0.915
1.015
1.015
0.935
0.72
0.405
0.09
-0.05
-0.05
-0.035
-0.09
-0.21
-0.365
-0.47
-0.535
-0.565
-0.6
-0.625
-0.64
-0.645
-0.67
-0.685
-0.715
-0.73
-0.75
-0.75
-0.745
-0.725
-0.715
-0.695
-0.67
-0.66
-0.67
-0.69
-0.71
-0.69
-0.665
-0.65
-0.645
-0.645
-0.65
-0.65
-0.65
-0.68
-0.67
-0.64
-0.625
-0.61
-0.595
-0.6
-0.605
-0.635
-0.67
-0.685
-0.665
-0.64
-0.615
-0.615
-0.64
-0.62
-0.61
-0.6
-0.59
-0.605
-0.605
-0.595
-0.585
-0.58
-0.585
-0.595
-0.58
-0.56
-0.535
-0.53
-0.55
-0.595
-0.6
-0.565
-0.535
-0.5
-0.45
-0.445
-0.47
-0.52
-0.57
-0.545
-0.53
-0.505
-0.48
-0.41
-0.355
-0.365
-0.43
-0.48
-0.425
-0.305
-0.27
-0.325
-0.415
-0.47
-0.44
-0.33
-0.275
-0.29
-0.33
-0.385
-0.41
-0.42
-0.4
-0.37
-0.375
-0.38
-0.395
-0.405
-0.405
-0.395
-0.395
-0.4
-0.415
-0.415
-0.42
-0.435
-0.43
-0.435
-0.43
-0.425
-0.425
-0.41
-0.41
-0.41
-0.41
-0.4
-0.39
-0.4
-0.41
-0.42
-0.425
-0.42
-0.41
-0.405
-0.405
-0.4
-0.415
-0.395
-0.4
-0.385
-0.39
-0.395
-0.405
-0.395
-0.39
-0.385
-0.39
-0.395
-0.39
-0.385
-0.37
-0.365
-0.37
-0.38
-0.37
-0.355
-0.36
-0.37
-0.385
-0.375
-0.375
-0.355
-0.325
-0.32
-0.335
-0.33
-0.325
-0.315
-0.295
-0.295
-0.295
-0.31
-0.32
-0.32
-0.305
-0.3
-0.3
-0.305
-0.31
-0.295
-0.28
-0.26
-0.245
-0.255
-0.285
-0.27
-0.245
-0.215
-0.205
-0.185
-0.18
-0.175
-0.165
-0.145
-0.155
-0.16
-0.18
-0.2
-0.225
-0.24
-0.235
-0.25
-0.295
-0.34
-0.385
-0.42
-0.435
-0.445
-0.455
-0.45
-0.44
-0.445
-0.44
-0.45
-0.45
-0.445
-0.43
-0.43
-0.435
-0.445
-0.445
-0.435
-0.415
-0.405
-0.41
-0.405
-0.41
-0.41
-0.385
-0.385
-0.375
-0.375
-0.37
-0.355
-0.32
-0.295
-0.225
-0.13
0.015
0.21
0.425
0.625
0.8
0.965
1.08
1.13
1.09
0.915
0.59
0.29
0.155
0.135
0.115
0.01
-0.15
-0.255
-0.325
-0.325
-0.35
-0.41
-0.465
-0.515
-0.54
-0.545
-0.56
-0.585
-0.605
-0.605
-0.615
-0.615
-0.605
-0.58
-0.58
-0.595
-0.61
-0.605
-0.6
-0.58
-0.58
-0.59
-0.595
-0.57
-0.565
-0.57
-0.585
-0.59
-0.585
-0.565
-0.55
-0.555
-0.56
-0.57
-0.56
-0.56
-0.545
-0.55
-0.535
-0.53
-0.545
-0.535
-0.535
-0.535
-0.525
-0.535
-0.535
-0.52
-0.495
-0.495
-0.495
-0.525
-0.525
-0.515
-0.515
-0.515
-0.52
-0.51
-0.5
-0.49
-0.47
-0.465
-0.47
-0.46
-0.465
-0.45
-0.435
-0.41
-0.4
-0.395
-0.38
-0.36
-0.345
-0.345
-0.34
-0.31
-0.285
-0.26
-0.245
-0.24
-0.25
-0.265
-0.245
-0.235
-0.21
-0.215
-0.23
-0.24
-0.245
-0.245
-0.24
-0.235
-0.26
-0.29
-0.29
-0.305
-0.305
-0.3
-0.3
-0.31
-0.33
-0.34
-0.34
-0.365
-0.365
-0.37
-0.365
-0.365
-0.35
-0.35
-0.365
-0.38
-0.385
-0.365
-0.34
-0.34
-0.345
-0.365
-0.38
-0.365
-0.365
-0.35
-0.355
-0.365
-0.37
-0.375
-0.365
-0.365
-0.355
-0.365
-0.38
-0.385
-0.395
-0.395
-0.405
-0.415
-0.42
-0.415
-0.4
-0.39
-0.395
-0.425
-0.445
-0.43
-0.43
-0.445
-0.445
-0.455
-0.45
-0.445
-0.43
-0.435
-0.445
-0.455
-0.47
-0.45
-0.435
-0.415
-0.415
-0.435
-0.45
-0.44
-0.425
-0.42
-0.415
-0.42
-0.415
-0.375
-0.355
-0.35
-0.33
-0.32
-0.34
-0.345
-0.34
-0.32
-0.305
-0.305
-0.295
-0.28
-0.25
-0.245
-0.24
-0.245
-0.27
-0.285
-0.305
-0.32
-0.34
-0.355
-0.395
-0.42
-0.45
-0.495
-0.515
-0.535
-0.55
-0.53
-0.515
-0.505
-0.49
-0.49
-0.5
-0.52
-0.52
-0.515
-0.525
-0.515
-0.52
-0.515
-0.495
-0.49
-0.485
-0.485
-0.48
-0.48
-0.48
-0.47
-0.475
-0.485
-0.485
-0.455
-0.42
-0.365
-0.265
-0.12
0.08
0.295
0.515
0.725
0.89
0.985
0.995
0.93
0.725
0.405
0.165
0.065
0.06
0.02
-0.085
-0.265
-0.385
-0.445
-0.44
-0.465
-0.515
-0.565
-0.59
-0.63
-0.655
-0.665
-0.66
-0.67
-0.665
-0.665
-0.665
-0.665
-0.645
-0.645
-0.655
-0.65
-0.655
-0.645
-0.61
-0.61
-0.61
-0.605
-0.615
-0.62
-0.6
-0.595
-0.585
-0.595
-0.615
-0.61
-0.605
-0.61
-0.615
-0.615
-0.615
-0.625
-0.61
-0.615
-0.62
-0.625
-0.635
-0.625
-0.63
-0.62
-0.63
-0.625
-0.625
-0.6
-0.605
-0.615
-0.625
-0.635
-0.63
-0.605
-0.6
-0.59
-0.6
-0.585
-0.585
-0.555
-0.535
-0.535
-0.525
-0.53
-0.52
-0.5
-0.485
-0.48
-0.455
-0.475
-0.455
-0.425
-0.4
-0.385
-0.405
-0.405
-0.405
-0.38
-0.37
-0.36
-0.375
-0.38
-0.39
-0.395
-0.395
-0.4
-0.4
-0.425
-0.445
-0.435
-0.445
-0.45
-0.46
-0.46
-0.47
-0.485
-0.48
-0.49
-0.495
-0.5
-0.485
-0.475
-0.475
-0.47
-0.485
-0.49
-0.48
-0.465
-0.45
-0.435
-0.435
-0.44
-0.45
-0.435
-0.42
-0.42
-0.415
-0.415
-0.42
-0.405
-0.405
-0.385
-0.39
-0.41
-0.425
-0.41
-0.405
-0.39
-0.39
-0.385
-0.38
-0.37
-0.36
-0.36
-0.36
-0.36
-0.37
-0.365
-0.355
-0.345
-0.345
-0.345
-0.345
-0.345
-0.34
-0.335
-0.335
-0.335
-0.345
-0.315
-0.305
-0.3
-0.315
-0.335
-0.345
-0.345
-0.35
-0.335
-0.34
-0.345
-0.35
-0.355
-0.325
-0.315
-0.285
-0.27
-0.27
-0.27
-0.255
-0.255
-0.25
-0.235
-0.22
-0.175
-0.165
-0.18
-0.18
-0.195
-0.195
-0.18
-0.165
-0.18
-0.2
-0.24
-0.25
-0.245
-0.225
-0.265
-0.315
-0.385
-0.44
-0.47
-0.48
-0.485
-0.49
-0.515
-0.53
-0.54
-0.54
-0.555
-0.565
-0.585
-0.585
