Lead II
0.27
0.29
0.295
0.295
0.32
0.325
0.345
0.365
0.38
0.395
0.405
0.415
0.42
0.43
0.425
0.43
0.44
0.45
0.46
0.47
0.485
0.495
0.495
0.51
0.5
0.51
0.505
0.49
0.475
0.47
0.46
0.45
0.445
0.445
0.43
0.415
0.395
0.38
0.355
0.325
0.3
0.28
0.25
0.25
0.23
0.215
0.195
0.18
0.15
0.135
0.12
0.095
0.08
0.06
0.055
0.045
0.035
0.035
0.02
0.01
0.0
-0.015
-0.03
-0.035
-0.04
-0.055
-0.055
-0.055
-0.055
-0.05
-0.055
-0.06
-0.07
-0.085
-0.09
-0.09
-0.085
-0.085
-0.08
-0.085
-0.07
-0.065
-0.06
-0.07
-0.07
-0.07
-0.075
-0.08
-0.085
-0.08
-0.08
-0.075
-0.07
-0.065
-0.065
-0.06
-0.06
-0.065
-0.07
-0.075
-0.085
-0.095
-0.075
-0.085
-0.07
-0.07
-0.06
-0.07
-0.07
-0.075
-0.08
-0.09
-0.09
-0.08
-0.08
-0.09
-0.09
-0.085
-0.08
-0.09
-0.1
-0.095
-0.105
-0.12
-0.13
-0.13
-0.125
-0.115
-0.11
-0.1
-0.105
-0.105
-0.1
-0.115
-0.115
-0.125
-0.14
-0.14
-0.14
-0.13
-0.14
-0.115
-0.105
-0.115
-0.125
-0.135
-0.135
-0.13
-0.13
-0.14
-0.135
-0.13
-0.135
-0.125
-0.12
-0.12
-0.105
-0.115
-0.135
-0.145
-0.14
-0.145
-0.14
-0.135
-0.135
-0.125
-0.12
-0.125
-0.125
-0.135
-0.145
-0.14
-0.145
-0.135
-0.145
-0.125
-0.135
-0.12
-0.12
-0.12
-0.13
-0.125
-0.125
-0.135
-0.13
-0.135
-0.125
-0.125
-0.11
-0.11
-0.1
-0.1
-0.095
-0.095
-0.1
-0.1
-0.09
-0.085
-0.075
-0.065
-0.06
-0.045
-0.035
-0.03
-0.02
-0.015
0.005
0.015
0.03
0.04
0.045
0.045
0.055
0.045
0.025
0.01
0.0
-0.02
-0.01
-0.03
-0.035
-0.055
-0.065
-0.07
-0.095
-0.095
-0.11
-0.13
-0.135
-0.145
-0.155
-0.16
-0.18
-0.18
-0.185
-0.18
-0.16
-0.16
-0.155
-0.175
-0.17
-0.18
-0.185
-0.185
-0.185
-0.18
-0.17
-0.175
-0.17
-0.165
-0.15
-0.145
-0.145
-0.16
-0.17
-0.2
-0.24
-0.295
-0.37
-0.425
-0.425
-0.305
-0.08
0.225
0.61
1.01
1.36
1.58
1.605
1.395
0.965
0.45
0.01
-0.265
-0.38
-0.4
-0.385
-0.405
-0.455
-0.545
-0.675
-0.8
-0.88
-0.93
-0.935
-0.89
-0.83
-0.755
-0.655
-0.55
-0.46
-0.385
-0.31
-0.265
-0.23
-0.21
-0.19
-0.185
-0.165
-0.165
-0.15
-0.145
-0.15
-0.145
-0.145
-0.145
-0.145
-0.14
-0.125
-0.11
-0.105
-0.11
-0.095
-0.1
-0.12
-0.12
-0.1
-0.11
-0.1
-0.095
-0.1
-0.085
-0.085
-0.08
-0.07
-0.07
-0.06
-0.065
-0.05
-0.03
-0.04
-0.02
-0.025
-0.015
0.0
0.005
-0.015
0.005
0.015
0.01
0.015
0.035
0.035
0.06
0.075
0.08
0.085
0.1
0.115
0.13
0.14
0.13
0.14
0.14
0.145
0.16
0.185
0.185
0.215
0.24
0.265
0.275
0.3
0.31
0.325
0.32
0.335
0.35
0.36
0.38
0.4
0.4
0.425
0.435
0.445
0.465
0.47
0.465
0.47
0.48
0.48
0.5
0.51
0.505
0.51
0.505
0.495
0.485
0.46
0.48
0.48
0.48
0.485
0.49
0.485
0.465
0.45
0.425
0.4
0.375
0.35
0.335
0.31
0.3
0.29
0.275
0.255
0.205
0.2
0.17
0.135
0.12
0.1
0.085
0.09
0.08
0.07
0.055
0.035
0.015
0.01
-0.005
-0.01
-0.02
-0.025
-0.02
-0.025
-0.045
-0.035
-0.055
-0.045
-0.06
-0.07
-0.085
-0.095
-0.09
-0.095
-0.09
-0.085
-0.07
-0.055
-0.07
-0.05
-0.06
-0.065
-0.065
-0.065
-0.07
-0.085
-0.08
-0.09
-0.07
-0.065
-0.05
-0.035
-0.025
-0.04
-0.06
-0.065
-0.09
-0.09
-0.095
-0.09
-0.065
-0.055
-0.045
-0.05
-0.05
-0.055
-0.055
-0.075
-0.085
-0.08
-0.09
-0.09
-0.08
-0.08
-0.075
-0.08
-0.085
-0.075
-0.085
-0.08
-0.095
-0.105
-0.095
-0.1
-0.1
-0.105
-0.105
-0.09
-0.09
-0.09
-0.1
-0.105
-0.12
-0.125
-0.115
-0.115
-0.11
-0.11
-0.09
-0.085
-0.08
-0.09
-0.085
-0.09
-0.095
-0.105
-0.11
-0.13
-0.13
-0.135
-0.13
-0.135
-0.125
-0.12
-0.11
-0.09
-0.09
-0.1
-0.09
-0.09
-0.095
-0.095
-0.09
-0.095
-0.11
-0.12
-0.115
-0.115
-0.14
-0.125
-0.13
-0.125
-0.135
-0.1
-0.105
-0.105
-0.09
-0.08
-0.055
-0.04
-0.045
-0.03
-0.03
-0.03
-0.03
-0.02
0.01
0.025
0.045
0.075
0.065
0.07
0.055
0.04
0.04
0.04
0.03
0.03
0.0
-0.015
-0.055
-0.055
-0.08
-0.1
-0.125
-0.125
-0.13
-0.13
-0.125
-0.13
-0.12
-0.1
-0.105
-0.12
-0.13
-0.145
-0.16
-0.165
-0.17
-0.15
-0.15
-0.145
-0.135
-0.115
-0.11
-0.11
-0.11
-0.115
-0.135
-0.15
-0.18
-0.22
-0.275
-0.325
-0.355
-0.305
-0.135
0.14
0.51
0.935
1.315
1.57
1.605
1.355
0.875
0.315
-0.12
-0.39
-0.49
-0.47
-0.45
-0.44
-0.485
-0.57
-0.675
-0.765
-0.815
-0.83
-0.825
-0.785
-0.745
-0.685
-0.625
-0.565
-0.48
-0.41
-0.33
-0.265
-0.21
-0.18
-0.155
-0.13
-0.11
-0.105
-0.11
-0.095
-0.095
-0.11
-0.1
-0.095
-0.095
-0.085
-0.07
-0.065
-0.06
-0.055
-0.055
-0.06
-0.07
-0.075
-0.06
-0.065
-0.05
-0.04
-0.05
-0.03
-0.03
-0.03
-0.03
-0.04
-0.035
-0.03
-0.025
-0.025
-0.02
0.0
0.0
0.005
0.015
0.02
0.02
0.015
0.015
0.015
0.015
0.03
0.04
0.045
0.06
0.065
0.08
0.08
0.085
0.08
0.085
0.08
0.095
0.09
0.12
0.135
0.145
0.15
0.15
0.16
0.155
0.175
0.185
0.195
0.205
0.215
0.225
0.25
0.255
0.27
0.28
0.28
0.305
0.31
0.315
0.32
0.32
0.315
0.35
0.36
0.38
0.39
0.385
0.39
0.4
0.4
0.405
0.405
0.41
0.4
0.42
0.42
0.425
0.42
0.42
0.405
0.395
0.385
0.375
0.35
0.345
0.325
0.305
0.305
0.29
0.285
0.255
0.235
0.205
0.17
0.15
0.115
0.105
0.095
0.075
0.065
0.06
0.05
0.04
0.035
0.015
0.015
0.0
-0.01
-0.025
-0.025
-0.015
-0.015
-0.01
-0.005
-0.01
-0.01
-0.01
-0.02
-0.025
-0.02
-0.025
-0.02
0.0
0.015
0.02
0.015
0.015
0.015
0.02
0.01
0.005
0.0
-0.015
0.015
0.01
0.02
0.02
0.03
0.04
0.03
0.02
-0.005
-0.01
-0.005
-0.015
-0.005
0.0
0.01
0.01
0.005
0.005
-0.01
-0.01
-0.02
-0.03
-0.04
-0.04
-0.04
-0.04
-0.035
-0.04
-0.04
-0.045
-0.05
-0.05
-0.06
-0.07
-0.075
-0.08
-0.075
-0.075
-0.06
-0.055
-0.065
-0.055
-0.075
-0.075
-0.08
-0.09
-0.085
-0.085
-0.075
-0.075
-0.075
-0.085
-0.06
-0.075
-0.08
-0.09
-0.085
-0.095
-0.105
-0.105
-0.1
-0.095
-0.09
-0.085
-0.085
-0.09
-0.1
-0.095
-0.1
-0.105
-0.1
-0.12
-0.11
-0.11
-0.1
-0.09
-0.1
-0.085
-0.085
-0.085
-0.08
-0.08
-0.085
-0.07
-0.06
-0.05
-0.03
-0.04
-0.025
-0.03
-0.01
-0.015
0.0
0.005
0.015
0.035
0.045
0.075
0.08
0.095
0.075
0.07
0.065
0.055
0.025
0.015
0.01
-0.005
-0.005
-0.02
-0.025
-0.05
-0.055
-0.075
-0.085
-0.11
-0.115
-0.125
-0.13
-0.13
-0.135
-0.135
-0.125
-0.125
-0.115
-0.13
-0.14
-0.13
-0.135
-0.15
-0.145
-0.145
-0.145
-0.145
-0.15
-0.145
-0.135
-0.14
-0.135
-0.13
-0.135
-0.135
-0.155
-0.15
-0.155
-0.185
-0.245
-0.295
-0.355
-0.39
-0.325
-0.165
0.1
0.44
0.82
1.18
1.48
1.615
1.575
1.29
0.86
0.385
0.015
-0.2
-0.29
-0.295
-0.29
-0.3
-0.37
-0.47
-0.605
-0.71
-0.8
-0.855
-0.865
-0.855
-0.81
-0.775
-0.705
-0.615
-0.525
-0.43
-0.35
-0.275
-0.215
-0.19
-0.16
-0.15
-0.15
-0.155
-0.14
-0.13
-0.13
-0.12
-0.105
-0.09
-0.085
-0.08
-0.085
-0.09
-0.09
-0.09
-0.08
-0.09
-0.08
-0.065
-0.07
-0.055
-0.05
-0.04
-0.04
-0.05
-0.05
-0.045
-0.045
-0.04
-0.025
-0.03
-0.02
-0.01
0.0
0.005
0.01
0.0
0.005
0.005
0.015
0.025
0.015
0.035
0.045
0.07
0.08
0.085
0.095
0.095
0.105
0.1
0.11
0.115
0.125
0.16
0.18
0.19
0.21
0.225
0.235
0.24
0.24
0.255
0.265
0.28
0.295
0.315
0.335
0.355
0.37
0.385
0.38
0.38
0.395
0.42
0.41
0.445
0.45
0.45
0.455
0.48
0.495
0.495
0.495
0.48
0.485
0.495
0.495
0.51
0.49
0.495
0.5
0.495
0.49
0.47
0.46
0.44
0.41
0.39
0.37
0.355
0.355
0.335
0.31
0.285
0.27
0.25
0.235
0.2
0.175
0.155
0.135
0.11
0.095
0.085
0.07
0.065
0.065
0.035
0.035
0.015
0.015
0.0
-0.015
-0.01
-0.015
-0.025
-0.03
-0.015
-0.02
-0.025
-0.025
-0.04
-0.055
-0.065
-0.065
-0.055
-0.05
-0.045
-0.045
-0.03
-0.035
-0.035
-0.035
-0.025
-0.035
-0.035
-0.04
-0.045
-0.04
-0.03
-0.025
-0.015
-0.02
-0.02
-0.025
-0.025
-0.02
-0.04
-0.04
-0.03
-0.035
-0.055
-0.025
-0.02
-0.015
-0.015
-0.015
-0.02
-0.025
-0.04
-0.04
-0.04
-0.045
-0.045
-0.05
-0.03
-0.035
-0.035
-0.035
-0.045
-0.04
-0.06
-0.07
-0.07
-0.065
-0.065
-0.06
-0.045
-0.045
-0.05
-0.045
-0.055
-0.065
-0.07
-0.075
-0.07
-0.07
-0.07
-0.075
-0.065
-0.065
-0.06
-0.065
-0.075
-0.075
-0.08
-0.08
-0.085
-0.085
-0.08
-0.075
-0.07
-0.085
-0.08
-0.065
-0.08
-0.075
-0.085
-0.09
-0.1
-0.095
-0.09
-0.095
-0.075
-0.075
-0.085
-0.085
-0.08
-0.08
-0.09
-0.09
-0.09
-0.085
-0.08
-0.075
-0.07
-0.065
-0.07
-0.06
-0.065
-0.07
-0.075
-0.07
-0.05
-0.045
-0.03
-0.025
-0.005
0.0
0.01
0.015
0.025
0.03
0.04
0.055
0.075
0.075
0.1
0.11
0.115
0.115
0.09
0.07
0.06
0.035
0.025
0.01
-0.005
-0.02
-0.025
-0.04
-0.055
-0.06
-0.07
-0.085
-0.095
-0.085
-0.095
-0.1
-0.105
-0.105
-0.115
-0.105
-0.105
-0.105
-0.11
-0.11
-0.11
-0.13
-0.13
-0.135
-0.135
-0.12
-0.105
-0.1
-0.1
-0.08
-0.095
-0.085
-0.11
-0.14
-0.17
-0.23
-0.305
-0.37
-0.35
-0.235
-0.01
0.32
0.695
1.08
1.42
1.62
1.61
1.345
0.9
0.42
0.035
-0.19
-0.275
-0.265
-0.245
-0.245
-0.305
-0.4
-0.525
-0.665
-0.77
-0.835
-0.85
-0.85
-0.8
-0.765
-0.705
-0.635
-0.56
-0.485
-0.395
-0.335
-0.29
-0.24
-0.19
-0.17
-0.145
-0.135
-0.125
-0.12
-0.12
-0.11
-0.115
-0.115
-0.11
-0.105
-0.1
-0.085
-0.085
-0.07
-0.08
-0.08
-0.075
-0.09
-0.075
-0.09
-0.08
-0.075
-0.08
-0.07
-0.06
-0.05
-0.04
-0.035
-0.035
-0.035
-0.035
-0.045
-0.035
-0.035
-0.03
-0.025
-0.02
-0.02
0.005
0.005
0.0
0.005
0.005
0.01
0.01
0.015
0.02
0.04
0.05
0.055
0.06
0.07
0.075
0.08
0.08
0.07
0.07
0.09
0.12
0.135
0.14
0.155
0.16
0.175
0.17
0.17
0.185
0.195
0.21
0.215
0.24
0.26
0.26
0.29
0.305
0.305
0.32
0.325
0.31
0.325
0.335
0.345
0.36
0.375
0.385
0.4
0.405
0.415
0.42
0.425
0.43
0.45
0.445
0.465
0.475
0.5
0.5
0.515
0.515
0.52
0.515
0.5
0.5
0.47
0.46
0.455
0.46
0.47
0.455
0.445
0.425
0.415
0.385
0.36
0.34
0.325
0.29
0.285
0.27
0.25
0.235
0.23
0.2
0.175
0.145
0.14
0.105
0.08
0.07
0.055
0.045
0.04
0.035
0.04
0.03
0.02
0.005
0.01
-0.005
-0.02
-0.03
-0.025
-0.03
-0.025
-0.025
-0.025
-0.04
-0.035
-0.035
-0.03
-0.035
-0.04
-0.03
-0.04
-0.025
-0.03
-0.02
-0.01
-0.02
-0.01
-0.02
-0.02
-0.025
-0.04
-0.03
-0.02
-0.02
-0.01
-0.015
-0.03
-0.03
-0.015
-0.025
-0.03
-0.025
-0.025
-0.03
-0.04
-0.035
-0.045
-0.04
-0.035
-0.045
-0.03
-0.04
-0.05
-0.065
-0.075
-0.075
-0.075
-0.07
-0.06
-0.055
-0.045
-0.05
-0.05
-0.075
-0.08
-0.09
-0.09
-0.085
-0.08
-0.07
-0.06
-0.065
-0.075
-0.085
-0.09
-0.095
-0.085
-0.09
-0.095
-0.095
-0.095
-0.08
-0.08
-0.075
-0.075
-0.085
-0.09
-0.075
-0.085
-0.095
-0.095
-0.1
-0.095
-0.09
-0.105
-0.085
-0.07
-0.085
-0.075
-0.085
-0.09
-0.105
-0.12
-0.105
-0.115
-0.11
-0.105
-0.09
-0.07
-0.07
-0.06
-0.07
-0.065
-0.065
-0.065
-0.05
-0.04
-0.035
-0.025
-0.02
-0.01
-0.015
0.015
0.025
0.04
0.06
0.07
0.1
0.1
0.11
0.095
0.065
0.045
0.025
0.02
0.005
-0.01
-0.035
-0.06
-0.08
-0.1
-0.1
-0.11
-0.1
-0.105
-0.1
-0.09
-0.115
-0.125
-0.14
-0.15
-0.15
-0.145
-0.135
-0.13
-0.11
-0.11
-0.12
-0.12
-0.125
-0.13
-0.14
-0.155
-0.155
-0.135
-0.125
-0.125
-0.115
-0.12
-0.135
-0.155
-0.21
-0.26
-0.34
-0.4
-0.405
-0.32
-0.12
0.2
0.575
0.97
1.31
1.575
1.645
1.5
1.115
0.6
0.12
-0.22
-0.385
-0.395
-0.36
-0.33
-0.345
-0.415
-0.53
-0.665
-0.76
-0.84
-0.87
-0.87
-0.85
-0.795
-0.725
-0.655
-0.57
-0.49
-0.41
-0.36
-0.3
-0.26
-0.215
-0.19
-0.16
-0.135
-0.13
-0.115
-0.105
-0.11
-0.1
-0.095
-0.12
-0.11
-0.1
-0.1
-0.09
-0.09
-0.09
-0.075
-0.075
-0.07
-0.06
-0.065
-0.06
-0.06
-0.06
-0.06
-0.05
-0.045
-0.035
-0.025
-0.03
-0.015
-0.02
-0.015
-0.025
-0.025
-0.02
-0.02
-0.005
0.005
0.0
0.005
0.005
0.005
0.0
-0.005
0.005
-0.005
0.03
0.025
0.055
0.06
0.07
0.075
0.075
0.085
0.09
0.095
0.1
0.11
0.11
0.13
0.14
0.15
0.16
0.16
0.19
0.195
0.19
0.21
0.21
0.22
0.225
0.245
0.27
0.29
0.305
0.33
0.335
0.345
0.355
0.355
0.355
0.355
0.37
0.38
0.39
0.4
0.42
0.425
0.435
0.435
0.445
0.44
0.435
0.435
0.435
0.44
0.45
0.455
0.455
0.455
0.435
0.42
0.39
0.37
0.345
0.315
0.3
0.285
0.28
0.255
0.235
0.225
0.195
0.19
0.155
0.13
0.095
0.08
0.07
0.04
0.045
0.03
0.03
0.035
0.02
0.02
0.005
0.0
-0.01
-0.03
-0.035
-0.05
-0.06
-0.055
-0.04
-0.04
-0.04
-0.035
-0.03
-0.035
-0.04
-0.05
-0.05
-0.06
-0.045
-0.04
-0.015
0.0
-0.005
-0.01
-0.02
-0.04
-0.05
-0.05
-0.03
-0.035
-0.02
-0.025
-0.02
-0.02
-0.03
-0.04
-0.045
-0.04
-0.04
-0.045
-0.055
-0.055
-0.045
-0.05
-0.03
-0.025
-0.045
-0.045
-0.055
-0.06
-0.065
-0.08
-0.09
-0.09
-0.095
-0.09
-0.09
-0.075
-0.085
-0.06
-0.07
-0.07
-0.085
-0.105
-0.095
-0.1
-0.095
-0.09
-0.085
-0.075
-0.085
-0.08
-0.1
-0.11
-0.11
-0.11
-0.11
-0.095
-0.095
-0.095
-0.085
-0.095
-0.095
-0.095
-0.105
-0.105
-0.1
-0.095
-0.1
-0.095
-0.105
-0.105
-0.11
-0.11
-0.1
-0.095
-0.095
-0.1
-0.105
-0.11
-0.11
-0.105
-0.09
-0.08
-0.085
-0.065
-0.06
-0.055
-0.06
-0.05
-0.05
-0.04
-0.04
-0.03
-0.025
-0.01
0.005
0.025
0.04
0.07
0.075
0.07
0.065
0.02
0.025
0.01
0.015
0.01
0.005
0.005
-0.005
-0.02
-0.045
-0.07
-0.1
-0.12
-0.12
-0.14
-0.135
-0.145
-0.125
-0.13
-0.135
-0.12
-0.135
-0.14
-0.16
-0.175
-0.17
-0.175
-0.16
-0.16
-0.155
-0.15
-0.15
-0.145
-0.16
-0.18
-0.17
-0.17
-0.18
-0.165
-0.175
-0.185
-0.19
-0.215
-0.27
-0.35
-0.405
-0.415
-0.325
-0.145
0.155
0.545
0.935
1.29
1.535
1.61
1.44
1.05
0.53
0.045
-0.295
-0.435
-0.445
-0.42
-0.385
-0.39
-0.455
-0.565
-0.675
-0.78
-0.845
-0.885
-0.885
-0.88
-0.84
-0.795
-0.745
-0.67
-0.595
-0.505
-0.425
-0.34
-0.29
-0.245
-0.22
-0.22
-0.2
-0.185
-0.18
-0.175
-0.165
-0.145
-0.145
-0.14
-0.135
-0.12
-0.14
-0.15
-0.15
-0.13
-0.11
-0.12
-0.11
-0.095
-0.105
-0.095
-0.1
-0.105
-0.11
-0.11
-0.095
-0.105
-0.095
-0.085
-0.07
-0.07
-0.065
-0.07
-0.07
-0.07
-0.08
-0.08
-0.07
-0.065
-0.045
-0.035
-0.035
-0.015
-0.01
-0.005
-0.015
0.0
0.0
0.005
-0.015
-0.005
0.025
0.04
0.045
0.065
0.05
0.075
0.075
0.09
0.085
0.085
0.095
0.095
0.115
0.13
0.145
0.165
0.17
0.175
0.18
0.18
0.185
0.18
0.195
0.21
0.235
0.25
0.26
0.27
0.275
0.28
0.29
0.295
0.295
0.295
0.295
0.305
0.32
0.33
0.335
0.345
0.355
0.37
0.365
0.365
0.365
0.37
0.37
0.37
0.375
0.375
0.375
0.37
0.36
0.345
0.34
0.305
0.3
0.275
0.25
0.235
0.23
0.235
0.205
0.195
0.18
0.16
0.135
0.11
0.08
0.055
0.045
0.03
0.025
0.005
-0.01
-0.015
-0.03
-0.04
-0.055
-0.075
-0.08
-0.09
-0.095
-0.095
-0.1
-0.09
-0.085
-0.08
-0.09
-0.08
-0.085
-0.09
-0.095
-0.105
-0.095
-0.095
-0.095
-0.08
-0.07
-0.07
-0.06
-0.065
-0.07
-0.07
-0.085
-0.085
-0.085
-0.075
-0.065
-0.065
-0.06
-0.045
-0.055
-0.05
-0.045
-0.05
-0.055
-0.06
-0.065
-0.075
-0.065
-0.07
-0.065
-0.06
-0.045
-0.065
-0.07
-0.075
-0.09
-0.095
-0.1
-0.105
-0.1
-0.09
-0.1
-0.095
-0.095
-0.1
-0.12
-0.13
-0.135
-0.145
-0.145
-0.145
-0.14
-0.13
-0.135
-0.135
-0.13
-0.125
-0.135
-0.14
-0.14
-0.155
-0.155
-0.16
-0.155
-0.155
-0.16
-0.135
-0.145
-0.15
-0.165
-0.15
-0.165
-0.18
-0.175
-0.17
-0.17
-0.155
-0.145
-0.15
-0.145
-0.15
-0.16
-0.16
-0.16
-0.165
-0.16
-0.17
-0.16
-0.16
-0.155
-0.155
-0.155
-0.17
-0.17
-0.18
-0.18
-0.175
-0.175
-0.17
-0.165
-0.155
-0.15
-0.14
-0.15
-0.15
-0.16
-0.16
-0.17
-0.16
-0.165
-0.17
-0.15
-0.135
-0.125
-0.11
-0.105
-0.095
-0.09
-0.095
-0.09
-0.085
-0.085
-0.09
-0.08
-0.065
-0.03
-0.005
0.01
0.025
0.035
0.025
0.01
0.005
-0.02
-0.03
-0.03
-0.04
-0.04
-0.04
-0.065
-0.08
-0.09
-0.115
-0.14
-0.17
-0.175
-0.19
-0.185
-0.19
-0.18
-0.175
-0.165
-0.175
-0.18
-0.185
-0.195
-0.21
-0.22
-0.215
-0.215
-0.21
-0.2
-0.185
-0.195
-0.18
-0.19
-0.2
-0.21
-0.205
-0.2
-0.195
-0.205
-0.225
-0.255
-0.315
-0.38
-0.445
-0.45
-0.375
-0.17
0.15
0.525
0.94
1.305
1.53
1.59
1.41
1.0
0.49
0.05
-0.24
-0.365
-0.4
-0.395
-0.41
-0.455
-0.57
-0.695
-0.805
-0.9
-0.955
-0.965
-0.945
-0.885
-0.82
-0.735
-0.63
-0.53
-0.45
-0.375
-0.315
-0.27
-0.245
-0.235
-0.235
-0.23
-0.235
-0.22
-0.215
-0.205
-0.205
-0.19
-0.17
-0.17
-0.165
-0.175
-0.175
-0.165
-0.175
-0.165
-0.155
-0.145
-0.15
-0.135
-0.13
-0.135
-0.125
-0.135
-0.125
-0.135
-0.125
-0.13
-0.125
-0.1
-0.11
-0.095
-0.09
-0.09
-0.095
-0.075
-0.095
-0.085
-0.085
-0.075
-0.065
-0.06
-0.045
-0.03
-0.015
-0.02
-0.01
-0.015
-0.015
-0.015
0.0
-0.005
0.01
0.01
0.03
0.045
0.055
0.07
0.065
0.08
0.095
0.1
0.11
0.125
0.135
0.15
0.165
0.19
0.205
0.22
0.23
0.24
0.255
0.255
0.27
0.28
0.295
0.3
0.32
0.34
0.36
0.38
0.39
0.39
0.39
0.405
0.395
0.395
0.405
0.425
0.435
0.44
0.455
0.465
0.465
0.465
0.47
0.455
0.45
0.44
0.435
0.44
0.435
0.435
0.425
0.405
0.39
0.365
0.35
0.32
0.295
0.275
0.265
0.255
0.235
0.215
0.2
0.185
0.155
0.14
0.115
0.1
0.085
0.07
0.045
0.035
0.025
0.015
0.005
0.0
-0.015
-0.035
-0.045
-0.055
-0.07
-0.075
-0.08
-0.08
-0.075
-0.075
-0.08
-0.08
-0.085
-0.095
-0.095
-0.1
-0.11
-0.105
-0.105
-0.105
-0.105
-0.1
-0.085
-0.08
-0.085
-0.085
-0.09
-0.095
-0.11
-0.1
-0.095
-0.085
-0.08
-0.08
-0.09
-0.085
-0.075
-0.08
-0.09
-0.09
-0.09
-0.1
-0.1
-0.105
-0.1
-0.125
-0.115
-0.12
-0.12
-0.125
-0.115
-0.12
-0.135
-0.13
-0.13
-0.12
-0.125
-0.115
-0.115
-0.12
-0.12
-0.13
-0.135
-0.14
-0.145
-0.135
-0.145
-0.125
-0.125
-0.125
-0.115
-0.125
-0.14
-0.15
-0.145
-0.16
-0.16
-0.16
-0.155
-0.16
-0.15
-0.14
-0.15
-0.165
-0.175
-0.17
-0.17
-0.19
-0.19
-0.195
-0.185
-0.18
-0.17
-0.15
-0.15
-0.145
-0.14
-0.14
-0.155
-0.16
-0.165
-0.165
-0.16
-0.15
-0.15
-0.13
-0.135
-0.14
-0.135
-0.155
-0.17
-0.175
-0.18
-0.16
-0.15
-0.14
-0.125
-0.11
-0.095
-0.09
-0.08
-0.085
-0.065
-0.07
-0.08
-0.075
-0.065
-0.065
-0.035
-0.01
0.025
0.045
0.075
0.08
0.065
0.05
0.02
0.0
-0.02
-0.02
-0.03
-0.04
-0.04
-0.05
-0.075
-0.105
-0.11
-0.14
-0.15
-0.145
-0.15
-0.14
-0.145
-0.145
-0.145
-0.15
-0.15
-0.165
-0.175
-0.18
-0.185
-0.18
-0.17
-0.185
-0.17
-0.15
-0.15
-0.16
-0.155
-0.155
-0.155
-0.155
-0.16
-0.155
-0.16
-0.16
-0.18
-0.23
-0.29
-0.365
-0.405
-0.37
-0.24
0.005
0.33
0.72
1.1
1.42
1.605
1.58
1.32
0.855
0.36
-0.065
-0.325
-0.42
-0.415
-0.37
-0.36
-0.41
-0.49
-0.615
-0.73
-0.83
-0.89
-0.905
-0.9
-0.87
-0.825
-0.755
-0.685
-0.59
-0.505
-0.43
-0.335
-0.27
-0.22
-0.2
-0.19
-0.185
-0.18
-0.17
-0.16
-0.15
-0.145
-0.115
-0.11
-0.105
-0.105
-0.1
-0.105
-0.12
-0.12
-0.115
-0.125
-0.115
-0.1
-0.085
-0.06
-0.065
-0.065
-0.065
-0.07
-0.07
-0.08
-0.075
-0.075
-0.065
-0.06
-0.035
-0.035
-0.02
0.0
0.0
0.005
0.0
-0.015
-0.015
-0.005
0.01
0.025
0.03
0.045
0.045
0.04
0.05
0.06
0.07
0.075
0.075
0.095
0.1
0.115
0.13
0.16
0.175
0.185
0.195
0.19
0.19
0.2
0.205
0.215
0.25
0.255
0.265
0.295
0.3
0.325
0.35
0.365
0.375
0.38
0.38
0.39
0.4
0.415
0.43
0.44
0.455
0.46
0.45
0.44
0.45
0.45
0.475
0.48
0.51
0.51
0.505
0.515
0.515
0.51
0.49
0.47
0.455
0.44
0.43
0.415
0.395
0.375
0.37
0.37
0.355
0.335
0.305
0.27
0.235
0.2
0.18
0.155
0.135
0.135
0.13
0.115
0.1
0.095
0.08
0.07
0.045
0.025
0.005
-0.005
0.005
-0.005
0.005
0.0
-0.01
-0.035
-0.05
-0.055
-0.06
-0.07
-0.05
-0.04
-0.05
-0.035
-0.035
-0.025
-0.03
-0.025
-0.035
-0.035
-0.03
-0.035
-0.03
-0.035
-0.045
-0.05
-0.045
-0.045
-0.035
-0.025
0.0
-0.005
-0.005
-0.01
-0.005
-0.015
-0.02
-0.025
-0.02
-0.025
-0.02
-0.02
-0.01
-0.015
-0.015
-0.025
-0.035
-0.055
-0.055
-0.05
-0.045
-0.045
-0.04
-0.035
-0.04
-0.045
-0.04
-0.065
-0.045
-0.055
-0.06
-0.07
-0.06
-0.07
-0.065
-0.075
-0.075
-0.09
-0.11
-0.11
-0.105
-0.11
-0.075
-0.065
-0.045
-0.05
-0.045
-0.06
-0.07
-0.085
-0.1
-0.11
-0.11
-0.105
-0.1
-0.115
-0.105
-0.085
-0.095
-0.085
-0.07
-0.08
-0.09
-0.08
-0.08
-0.08
-0.085
-0.09
-0.085
-0.075
-0.085
-0.08
-0.075
-0.075
-0.08
-0.08
-0.075
-0.075
-0.055
-0.05
-0.035
-0.01
-0.005
0.0
-0.005
-0.01
-0.01
0.0
0.0
0.02
0.045
0.07
0.09
0.11
0.11
0.11
0.1
0.08
0.065
0.04
0.025
0.015
0.015
-0.015
-0.01
-0.03
-0.04
-0.06
-0.08
-0.095
-0.115
-0.125
-0.13
-0.12
-0.12
-0.125
-0.11
-0.105
-0.115
-0.105
-0.11
-0.125
-0.13
-0.14
-0.135
-0.135
-0.125
-0.115
-0.12
-0.1
-0.1
-0.1
-0.115
-0.12
-0.125
-0.155
-0.17
-0.235
-0.29
-0.355
-0.345
-0.245
-0.02
0.325
0.735
1.145
1.48
1.635
1.525
1.145
0.615
0.105
-0.25
-0.405
-0.435
-0.41
-0.4
-0.435
-0.515
-0.615
-0.715
-0.8
-0.85
-0.845
-0.82
-0.76
-0.705
-0.62
-0.535
-0.45
-0.365
-0.3
-0.235
-0.195
-0.165
-0.145
-0.135
-0.125
-0.11
-0.12
-0.12
-0.105
-0.1
-0.105
-0.1
-0.09
-0.085
-0.065
-0.065
-0.055
-0.05
-0.055
-0.055
-0.055
-0.06
-0.07
-0.07
-0.065
-0.055
-0.05
-0.035
-0.025
-0.03
-0.015
-0.015
-0.02
-0.02
-0.025
-0.02
-0.01
-0.005
0.015
0.02
0.035
0.035
0.04
0.045
0.035
0.04
0.035
0.03
0.035
0.055
0.075
0.08
0.095
0.1
0.11
0.115
0.095
0.11
0.115
0.13
0.13
0.14
0.165
0.175
0.185
0.195
0.21
0.22
0.225
0.23
0.23
0.235
0.245
0.26
0.265
0.285
0.315
0.295
0.325
0.335
0.33
0.335
0.34
0.35
0.35
0.365
0.36
0.38
0.39
0.395
0.41
0.41
0.42
0.41
0.415
0.42
0.425
0.425
0.43
0.425
0.425
0.435
0.425
0.41
0.385
0.37
0.355
0.34
0.325
0.305
0.3
0.28
0.265
0.26
0.24
0.22
0.195
0.165
0.145
0.11
0.105
0.09
0.085
0.075
0.07
0.05
0.04
0.025
0.02
-0.005
-0.02
-0.025
-0.035
-0.03
-0.03
-0.035
-0.03
-0.03
-0.025
-0.04
-0.045
-0.05
-0.05
-0.065
-0.06
-0.06
-0.045
-0.04
-0.02
-0.02
-0.015
-0.025
-0.015
-0.02
-0.035
-0.03
-0.025
-0.015
0.0
-0.01
0.01
0.01
0.005
0.0
-0.005
-0.005
-0.005
-0.005
-0.005
-0.005
-0.005
0.01
0.015
0.005
0.01
0.005
-0.015
-0.01
-0.015
-0.035
-0.035
-0.03
-0.035
-0.035
-0.02
-0.025
-0.035
-0.03
-0.045
-0.05
-0.06
-0.065
-0.065
-0.065
-0.055
-0.05
-0.04
-0.05
-0.06
-0.06
-0.075
-0.07
-0.085
-0.095
-0.085
-0.08
-0.08
-0.075
-0.065
-0.07
-0.075
-0.075
-0.085
-0.085
-0.1
-0.11
-0.1
-0.1
-0.095
-0.09
-0.085
-0.09
-0.09
-0.09
-0.1
-0.105
-0.105
-0.115
-0.12
-0.115
-0.095
-0.095
-0.075
-0.085
-0.075
-0.08
-0.09
-0.095
-0.095
-0.1
-0.105
-0.1
-0.095
-0.09
-0.08
-0.075
-0.085
-0.09
-0.1
-0.1
-0.115
-0.095
-0.085
-0.08
-0.07
-0.075
-0.045
-0.02
-0.03
-0.02
-0.02
-0.035
-0.02
-0.03
-0.015
-0.01
0.015
0.025
0.06
0.07
0.085
0.095
0.09
0.08
0.065
0.05
0.045
0.03
0.03
0.03
0.02
0.015
-0.005
-0.015
-0.03
-0.045
-0.08
-0.095
-0.105
-0.125
-0.12
-0.11
-0.1
-0.11
-0.105
-0.105
-0.12
-0.125
-0.135
-0.14
-0.135
-0.13
-0.125
-0.125
-0.125
-0.11
-0.115
-0.13
-0.12
-0.135
-0.13
-0.135
-0.14
-0.135
-0.125
-0.13
-0.12
-0.13
-0.16
-0.215
-0.285
-0.37
-0.41
-0.385
-0.28
-0.055
0.265
0.65
1.04
1.375
1.61
1.645
1.46
1.075
0.59
0.15
-0.135
-0.265
-0.265
-0.245
-0.225
-0.27
-0.35
-0.48
-0.62
-0.75
-0.855
-0.89
-0.895
-0.865
-0.825
-0.78
-0.705
-0.62
-0.54
-0.46
-0.38
-0.325
-0.265
-0.235
-0.205
-0.185
-0.155
-0.145
-0.13
-0.115
-0.11
-0.125
-0.115
-0.1
-0.105
-0.105
-0.1
-0.1
-0.085
-0.08
-0.065
-0.07
-0.075
-0.08
-0.075
-0.075
-0.08
-0.08
-0.085
-0.065
-0.075
-0.06
-0.04
-0.045
-0.05
-0.03
-0.04
-0.045
-0.035
-0.04
-0.035
-0.025
-0.035
-0.02
-0.005
-0.005
0.0
0.01
0.0
0.015
0.015
0.02
0.015
0.045
0.045
0.055
0.07
0.07
0.085
0.09
0.085
0.095
0.11
0.11
0.135
0.145
0.155
0.17
0.19
0.19
0.205
0.2
0.215
0.23
0.24
0.26
0.26
0.275
0.29
0.315
0.33
0.355
0.365
0.37
0.385
0.395
0.4
0.405
0.43
0.45
0.455
0.48
0.49
0.495
0.505
0.5
0.505
0.53
0.52
0.52
0.52
0.53
0.54
0.54
0.55
0.545
0.525
0.525
0.5
0.49
0.465
0.455
0.435
0.43
0.4
0.385
0.365
0.335
0.325
0.3
0.265
0.245
0.215
0.19
0.18
0.15
0.135
0.135
0.115
0.095
0.095
0.085
0.065
0.055
0.03
0.015
0.0
0.005
0.01
0.01
0.0
-0.005
-0.01
-0.02
-0.03
-0.035
-0.05
-0.055
-0.05
-0.05
-0.04
-0.035
-0.025
-0.02
-0.03
-0.04
-0.03
-0.04
-0.05
-0.045
-0.055
-0.04
-0.03
-0.025
-0.005
-0.005
-0.005
-0.015
-0.01
-0.02
-0.03
-0.02
-0.02
-0.02
-0.02
-0.01
-0.01
-0.015
-0.015
-0.04
-0.03
-0.045
-0.055
-0.06
-0.055
-0.065
-0.05
-0.03
-0.03
-0.03
-0.035
-0.04
-0.045
-0.06
-0.06
-0.065
-0.065
-0.065
-0.065
-0.065
-0.065
-0.06
-0.075
-0.06
-0.07
-0.075
-0.08
-0.085
-0.08
-0.085
-0.08
-0.075
-0.08
-0.075
