Lead II
0.68
0.585
0.48
0.395
0.31
0.2
0.025
-0.16
-0.335
-0.52
-0.655
-0.76
-0.83
-0.875
-0.92
-0.945
-0.965
-1.01
-1.115
-1.27
-1.44
-1.575
-1.66
-1.755
-1.86
-1.95
-1.99
-1.945
-1.84
-1.685
-1.565
-1.455
-1.375
-1.28
-1.205
-1.17
-1.13
-1.135
-1.13
-1.115
-1.07
-1.015
-1.015
-1.025
-1.025
-1.02
-0.975
-0.915
-0.865
-0.8
-0.78
-0.74
-0.69
-0.615
-0.545
-0.485
-0.425
-0.36
-0.295
-0.235
-0.2
-0.15
-0.115
-0.085
-0.05
-0.04
-0.035
-0.005
0.01
0.025
0.045
0.07
0.09
0.095
0.115
0.145
0.165
0.185
0.19
0.18
0.2
0.235
0.26
0.3
0.315
0.34
0.35
0.36
0.39
0.425
0.44
0.465
0.485
0.515
0.545
0.595
0.62
0.64
0.655
0.68
0.71
0.715
0.745
0.75
0.755
0.75
0.77
0.785
0.805
0.815
0.82
0.81
0.815
0.82
0.82
0.81
0.8
0.79
0.785
0.78
0.755
0.715
0.68
0.66
0.65
0.635
0.59
0.54
0.485
0.44
0.405
0.375
0.345
0.295
0.24
0.195
0.155
0.12
0.09
0.055
0.01
-0.035
-0.055
-0.07
-0.09
-0.125
-0.155
-0.185
-0.18
-0.195
-0.205
-0.23
-0.245
-0.25
-0.24
-0.25
-0.26
-0.29
-0.31
-0.32
-0.315
-0.315
-0.295
-0.315
-0.325
-0.325
-0.32
-0.305
-0.315
-0.34
-0.325
-0.33
-0.32
-0.31
-0.305
-0.325
-0.35
-0.34
-0.335
-0.32
-0.315
-0.315
-0.32
-0.315
-0.305
-0.295
-0.295
-0.305
-0.305
-0.305
-0.295
-0.28
-0.28
-0.29
-0.295
-0.3
-0.28
-0.27
-0.265
-0.285
-0.295
-0.295
-0.27
-0.25
-0.255
-0.265
-0.285
-0.295
-0.29
-0.275
-0.28
-0.29
-0.3
-0.305
-0.295
-0.285
-0.285
-0.29
-0.31
-0.3
-0.305
-0.28
-0.28
-0.295
-0.305
-0.305
-0.29
-0.275
-0.275
-0.29
-0.3
-0.315
-0.295
-0.29
-0.275
-0.265
-0.25
-0.255
-0.225
-0.205
-0.195
-0.165
-0.15
-0.11
-0.06
-0.02
0.0
0.0
-0.005
0.005
0.035
0.06
0.065
0.045
0.035
0.01
0.01
0.0
-0.01
-0.01
-0.02
-0.035
-0.03
-0.03
-0.03
-0.065
-0.07
-0.095
-0.12
-0.13
-0.16
-0.19
-0.205
-0.23
-0.225
-0.24
-0.265
-0.28
-0.295
-0.295
-0.29
-0.28
-0.265
-0.21
-0.07
0.275
0.835
1.4
1.7
1.685
1.52
1.37
1.325
1.27
1.19
1.1
0.995
0.91
0.86
0.79
0.71
0.63
0.53
0.41
0.295
0.185
0.055
-0.08
-0.225
-0.38
-0.535
-0.675
-0.835
-1.0
-1.16
-1.325
-1.465
-1.585
-1.695
-1.8
-1.855
-1.91
-1.95
-1.985
-2.07
-2.19
-2.295
-2.39
-2.45
-2.52
-2.58
-2.65
-2.64
-2.57
-2.435
-2.28
-2.13
-1.985
-1.825
-1.665
-1.55
-1.46
-1.385
-1.33
-1.275
-1.235
-1.185
-1.14
-1.12
-1.09
-1.075
-1.035
-0.965
-0.875
-0.81
-0.76
-0.715
-0.665
-0.57
-0.485
-0.395
-0.3
-0.23
-0.155
-0.08
-0.005
0.06
0.11
0.14
0.16
0.165
0.195
0.23
0.235
0.26
0.275
0.32
0.345
0.365
0.39
0.415
0.435
0.455
0.49
0.5
0.535
0.565
0.585
0.63
0.68
0.71
0.75
0.765
0.795
0.84
0.89
0.92
0.94
0.965
0.98
1.01
1.045
1.065
1.085
1.095
1.12
1.125
1.155
1.18
1.195
1.18
1.16
1.165
1.16
1.155
1.145
1.135
1.11
1.085
1.065
1.03
1.0
0.955
0.92
0.885
0.88
0.825
0.765
0.705
0.665
0.63
0.585
0.53
0.48
0.425
0.37
0.325
0.285
0.23
0.175
0.11
0.055
0.03
0.01
-0.025
-0.06
-0.1
-0.12
-0.14
-0.16
-0.18
-0.19
-0.22
-0.24
-0.245
-0.26
-0.285
-0.295
-0.295
-0.3
-0.29
-0.29
-0.28
-0.305
-0.315
-0.32
-0.305
-0.29
-0.29
-0.295
-0.31
-0.31
-0.285
-0.28
-0.255
-0.27
-0.265
-0.255
-0.215
-0.18
-0.155
-0.125
-0.085
-0.05
0.0
0.03
0.055
0.065
0.065
0.07
0.115
0.145
0.14
0.11
0.075
0.06
0.065
0.07
0.05
0.035
0.02
0.025
0.03
0.04
0.0
-0.045
-0.065
-0.11
-0.125
-0.15
-0.185
-0.23
-0.255
-0.29
-0.29
-0.285
-0.315
-0.34
-0.38
-0.405
-0.42
-0.42
-0.435
-0.45
-0.455
-0.47
-0.46
-0.46
-0.475
-0.49
-0.505
-0.51
-0.495
-0.47
-0.47
-0.48
-0.48
-0.485
-0.49
-0.48
-0.485
-0.505
-0.52
-0.525
-0.515
-0.495
-0.5
-0.51
-0.515
-0.505
-0.48
-0.48
-0.485
-0.495
-0.51
-0.525
-0.525
-0.505
-0.495
-0.505
-0.52
-0.51
-0.495
-0.485
-0.475
-0.465
-0.46
-0.465
-0.455
-0.45
-0.455
-0.47
-0.47
-0.45
-0.42
-0.4
-0.37
-0.29
-0.14
0.17
0.735
1.305
1.625
1.615
1.44
1.305
1.23
1.185
1.105
1.005
0.93
0.845
0.76
0.705
0.62
0.535
0.42
0.3
0.19
0.11
0.02
-0.1
-0.26
-0.425
-0.61
-0.8
-0.995
-1.185
-1.37
-1.565
-1.7
-1.835
-1.93
-1.975
-2.015
-2.045
-2.075
-2.15
-2.245
-2.315
-2.38
-2.41
-2.435
-2.47
-2.515
-2.495
-2.43
-2.31
-2.17
-2.0
-1.83
-1.66
-1.515
-1.42
-1.335
-1.265
-1.2
-1.13
-1.05
-0.99
-0.96
-0.945
-0.96
-0.955
-0.9
-0.835
-0.755
-0.675
-0.605
-0.54
-0.46
-0.39
-0.315
-0.225
-0.155
-0.11
-0.04
0.03
0.095
0.185
0.235
0.265
0.27
0.275
0.305
0.33
0.355
0.385
0.41
0.445
0.475
0.49
0.495
0.5
0.52
0.54
0.57
0.615
0.635
0.66
0.68
0.725
0.755
0.805
0.825
0.815
0.84
0.865
0.905
0.96
1.0
1.02
1.04
1.065
1.11
1.15
1.185
1.22
1.225
1.23
1.24
1.265
1.26
1.26
1.255
1.255
1.265
1.27
1.26
1.24
1.21
1.195
1.2
1.2
1.18
1.135
1.095
1.045
1.045
1.05
1.045
1.01
0.97
0.95
0.97
0.96
0.935
0.88
0.84
0.82
0.81
0.78
0.76
0.725
0.655
0.59
0.52
0.49
0.445
0.42
0.375
0.33
0.32
0.31
0.295
0.25
0.195
0.14
0.12
0.085
0.055
0.04
0.0
-0.045
-0.065
-0.09
-0.11
-0.135
-0.19
-0.24
-0.265
-0.255
-0.26
-0.28
-0.305
-0.33
-0.335
-0.335
-0.335
-0.35
-0.355
-0.37
-0.36
-0.355
-0.355
-0.345
-0.365
-0.385
-0.385
-0.38
-0.355
-0.37
-0.375
-0.38
-0.38
-0.37
-0.395
-0.405
-0.415
-0.41
-0.37
-0.335
-0.325
-0.355
-0.39
-0.4
-0.39
-0.39
-0.37
-0.37
-0.395
-0.415
-0.41
-0.4
-0.375
-0.355
-0.365
-0.385
-0.39
-0.405
-0.41
-0.405
-0.405
-0.405
-0.41
-0.395
-0.4
-0.42
-0.42
-0.415
-0.395
-0.385
-0.395
-0.42
-0.42
-0.415
-0.39
-0.38
-0.385
-0.405
-0.42
-0.425
-0.42
-0.41
-0.4
-0.4
-0.405
-0.415
-0.415
-0.42
-0.42
-0.415
-0.41
-0.405
-0.385
-0.4
-0.42
-0.43
-0.445
-0.46
-0.455
-0.455
-0.445
-0.43
-0.41
-0.405
-0.4
-0.4
-0.425
-0.45
-0.445
-0.435
-0.425
-0.42
-0.425
-0.425
-0.415
-0.415
-0.41
-0.395
-0.39
-0.38
-0.395
-0.395
-0.385
-0.365
-0.33
-0.28
-0.19
0.025
0.48
1.05
1.5
1.625
1.515
1.335
1.25
1.205
1.13
1.025
0.92
0.835
0.76
0.695
0.615
0.51
0.395
0.27
0.145
0.03
-0.12
-0.28
-0.455
-0.65
-0.815
-0.97
-1.155
-1.335
-1.495
-1.63
-1.77
-1.835
-1.925
-2.01
-2.075
-2.145
-2.205
-2.305
-2.41
-2.51
-2.575
-2.635
-2.695
-2.73
-2.74
-2.695
-2.6
-2.455
-2.28
-2.085
-1.89
-1.725
-1.6
-1.5
-1.425
-1.375
-1.325
-1.275
-1.225
-1.195
-1.175
-1.14
-1.105
-1.06
-0.995
-0.91
-0.83
-0.76
-0.72
-0.665
-0.61
-0.535
-0.45
-0.365
-0.27
-0.2
-0.125
-0.045
0.02
0.075
0.085
0.105
0.13
0.175
0.23
0.26
0.29
0.32
0.36
0.41
0.445
0.49
0.525
0.55
0.585
0.63
0.675
0.715
0.73
0.75
0.745
0.72
0.715
0.72
0.745
0.785
0.815
0.825
0.87
0.905
0.92
0.915
0.91
0.91
0.935
0.94
0.945
0.915
0.895
0.88
0.885
0.92
0.95
0.94
0.895
0.83
0.79
0.8
0.805
0.785
0.755
0.75
0.79
0.81
0.75
0.67
0.58
0.545
0.56
0.585
0.59
0.545
0.465
0.36
0.28
0.22
0.165
0.125
0.095
0.11
0.165
0.13
0.035
-0.11
-0.215
-0.26
-0.27
-0.27
-0.285
-0.33
-0.385
-0.435
-0.505
-0.565
-0.575
-0.58
-0.605
-0.68
-0.715
-0.685
-0.63
-0.62
-0.65
-0.705
-0.715
-0.715
-0.71
-0.715
-0.725
-0.765
-0.765
-0.765
-0.8
-0.805
-0.805
-0.795
-0.775
-0.775
-0.76
-0.73
-0.715
-0.7
-0.71
-0.745
-0.77
-0.78
-0.8
-0.8
-0.755
-0.74
-0.75
-0.785
-0.8
-0.8
-0.77
-0.75
-0.745
-0.75
-0.725
-0.7
-0.71
-0.735
-0.76
-0.8
-0.8
-0.76
-0.695
-0.675
-0.705
-0.75
-0.745
-0.71
-0.69
-0.71
-0.73
-0.725
-0.725
-0.725
-0.72
-0.715
-0.74
-0.735
-0.74
-0.715
-0.7
-0.71
-0.735
-0.775
-0.77
-0.745
-0.72
-0.72
-0.71
-0.715
-0.72
-0.725
-0.735
-0.725
-0.745
-0.75
-0.76
-0.775
-0.775
-0.725
-0.685
-0.675
-0.715
-0.755
-0.75
-0.735
-0.715
-0.72
-0.705
-0.715
-0.715
-0.71
-0.715
-0.735
-0.72
-0.71
-0.7
-0.685
-0.69
-0.7
-0.72
-0.725
-0.715
-0.71
-0.71
-0.725
-0.735
-0.725
-0.725
-0.715
-0.71
-0.72
-0.73
-0.73
-0.72
-0.71
-0.71
-0.71
-0.725
-0.705
-0.67
-0.655
-0.65
-0.67
-0.68
-0.67
-0.58
-0.35
0.11
0.745
1.28
1.38
1.21
1.02
0.92
0.87
0.8
0.715
0.62
0.545
0.46
0.38
0.31
0.24
0.16
0.045
-0.1
-0.25
-0.37
-0.445
-0.52
-0.665
-0.875
-1.08
-1.245
-1.41
-1.52
-1.63
-1.745
-1.83
-1.885
-1.945
-1.975
-1.995
-2.01
-2.08
-2.225
-2.375
-2.465
-2.505
-2.545
-2.6
-2.6
-2.545
-2.425
-2.245
-2.06
-1.835
-1.66
-1.52
-1.445
-1.4
-1.365
-1.34
-1.35
-1.325
-1.29
-1.245
-1.23
-1.24
-1.24
-1.235
-1.22
-1.165
-1.12
-1.055
-1.005
-0.945
-0.89
-0.835
-0.805
-0.775
-0.7
-0.605
-0.52
-0.46
-0.43
-0.385
-0.355
-0.34
-0.325
-0.315
-0.29
-0.255
-0.23
-0.225
-0.225
-0.205
-0.19
-0.165
-0.135
-0.115
-0.09
-0.055
-0.05
-0.03
0.01
0.015
0.045
0.08
0.125
0.15
0.165
0.19
0.245
0.305
0.355
0.385
0.395
0.405
0.44
0.5
0.525
0.54
0.55
0.575
0.65
0.71
0.725
0.72
0.725
0.74
0.78
0.795
0.805
0.805
0.795
0.775
0.765
0.765
0.76
0.75
0.735
0.7
0.685
0.655
0.63
0.595
0.56
0.52
0.5
0.45
0.405
0.345
0.3
0.255
0.22
0.175
0.105
0.035
-0.02
-0.06
-0.08
-0.13
-0.16
-0.225
-0.27
-0.32
-0.35
-0.39
-0.41
-0.445
-0.48
-0.515
-0.53
-0.53
-0.56
-0.59
-0.605
-0.63
-0.64
-0.625
-0.635
-0.67
-0.685
-0.7
-0.705
-0.7
-0.71
-0.705
-0.705
-0.71
-0.695
-0.69
-0.705
-0.725
-0.725
-0.72
-0.715
-0.71
-0.72
-0.735
-0.735
-0.725
-0.72
-0.705
-0.72
-0.71
-0.72
-0.72
-0.715
-0.705
-0.72
-0.715
-0.71
-0.72
-0.71
-0.7
-0.68
-0.67
-0.67
-0.685
-0.67
-0.67
-0.665
-0.665
-0.67
-0.67
-0.665
-0.655
-0.64
-0.65
-0.65
-0.645
-0.635
-0.63
-0.64
-0.66
-0.665
-0.66
-0.65
-0.645
-0.645
-0.655
-0.66
-0.645
-0.645
-0.645
-0.65
-0.655
-0.655
-0.665
-0.645
-0.645
-0.645
-0.665
-0.655
-0.65
-0.645
-0.625
-0.63
-0.63
-0.65
-0.655
-0.64
-0.63
-0.64
-0.645
-0.655
-0.645
-0.635
-0.6
-0.625
-0.645
-0.655
-0.645
-0.635
-0.62
-0.62
-0.625
-0.615
-0.61
-0.61
-0.585
-0.57
-0.57
-0.56
-0.55
-0.53
-0.49
-0.475
-0.455
-0.405
-0.375
-0.34
-0.315
-0.31
-0.315
-0.295
-0.255
-0.2
-0.16
-0.155
-0.18
-0.2
-0.23
-0.24
-0.225
-0.23
-0.22
-0.22
-0.205
-0.2
-0.16
-0.095
0.06
0.385
0.925
1.45
1.69
1.595
1.385
1.24
1.155
1.095
1.005
0.9
0.795
0.69
0.575
0.505
0.425
0.315
0.195
0.06
-0.085
-0.21
-0.33
-0.46
-0.63
-0.81
-1.0
-1.18
-1.355
-1.525
-1.725
-1.88
-2.025
-2.13
-2.185
-2.23
-2.25
-2.295
-2.315
-2.365
-2.425
-2.51
-2.59
-2.645
-2.685
-2.735
-2.755
-2.765
-2.73
-2.64
-2.5
-2.33
-2.17
-1.995
-1.81
-1.64
-1.53
-1.45
-1.41
-1.36
-1.315
-1.265
-1.215
-1.195
-1.165
-1.15
-1.125
-1.075
-1.015
-0.915
-0.845
-0.785
-0.75
-0.71
-0.64
-0.55
-0.455
-0.36
-0.275
-0.215
-0.18
-0.12
-0.065
0.005
0.035
0.06
0.07
0.095
0.125
0.15
0.18
0.195
0.235
0.25
0.275
0.29
0.3
0.305
0.35
0.395
0.435
0.465
0.49
0.505
0.525
0.57
0.62
0.645
0.675
0.7
0.725
0.79
0.83
0.86
0.88
0.91
0.93
0.96
1.005
1.025
1.07
1.07
1.09
1.115
1.13
1.135
1.13
1.14
1.15
1.155
1.185
1.18
1.155
1.13
1.12
1.115
1.09
1.08
1.07
1.06
1.04
1.0
0.965
0.92
0.89
0.84
0.79
0.75
0.725
0.68
0.63
0.59
0.545
0.515
0.46
0.39
0.32
0.28
0.265
0.23
0.19
0.13
0.07
0.035
0.025
0.025
-0.01
-0.055
-0.095
-0.13
-0.15
-0.15
-0.155
-0.175
-0.2
-0.215
-0.22
-0.215
-0.205
-0.215
-0.245
-0.27
-0.265
-0.245
-0.24
-0.24
-0.265
-0.275
-0.265
-0.26
-0.26
-0.275
-0.3
-0.29
-0.28
-0.27
-0.27
-0.27
-0.27
-0.28
-0.275
-0.275
-0.26
-0.255
-0.25
-0.255
-0.275
-0.26
-0.255
-0.26
-0.255
-0.265
-0.26
-0.255
-0.245
-0.255
-0.245
-0.22
-0.205
-0.165
-0.15
-0.15
-0.14
-0.13
-0.115
-0.08
-0.055
-0.025
-0.03
-0.015
-0.015
0.01
0.05
0.085
0.11
0.12
0.12
0.115
0.105
0.085
0.065
0.05
0.05
0.06
0.06
0.065
0.05
0.035
0.015
-0.005
-0.04
-0.08
-0.11
-0.115
-0.12
-0.14
-0.16
-0.2
-0.225
-0.23
-0.265
-0.275
-0.285
-0.305
-0.335
-0.32
-0.355
-0.35
-0.375
-0.395
-0.415
-0.405
-0.41
-0.41
-0.42
-0.425
-0.42
-0.435
-0.445
-0.43
-0.425
-0.415
-0.415
-0.42
-0.435
-0.43
-0.42
-0.415
-0.425
-0.44
-0.44
-0.43
-0.42
-0.42
-0.435
-0.44
-0.425
-0.4
-0.385
-0.385
-0.39
-0.41
-0.41
-0.38
-0.38
-0.39
-0.38
-0.375
-0.36
-0.31
-0.265
-0.2
-0.035
0.29
0.835
1.425
1.8
1.865
1.74
1.6
1.505
1.45
1.39
1.32
1.225
1.13
1.05
0.975
0.915
0.835
0.725
0.605
0.495
0.415
0.34
0.235
0.115
-0.035
-0.195
-0.325
-0.475
-0.63
-0.775
-0.92
-1.045
-1.2
-1.315
-1.415
-1.485
-1.53
-1.565
-1.605
-1.68
-1.795
-1.905
-1.985
-2.045
-2.1
-2.155
-2.205
-2.24
-2.21
-2.125
-2.005
-1.855
-1.72
-1.55
-1.405
-1.31
-1.245
-1.19
-1.15
-1.105
-1.065
-1.02
-0.96
-0.915
-0.9
-0.915
-0.92
-0.915
-0.865
-0.805
-0.755
-0.73
-0.7
-0.665
-0.615
-0.575
-0.495
-0.405
-0.335
-0.295
-0.24
-0.185
-0.115
-0.045
0.02
0.09
0.155
0.19
0.19
0.195
0.195
0.215
0.25
0.28
0.29
0.305
0.32
0.34
0.375
0.38
0.4
0.39
0.4
0.435
0.48
0.525
0.53
0.54
0.55
0.57
0.605
0.64
0.675
0.7
0.71
0.73
0.765
0.78
0.79
0.81
0.83
0.865
0.885
0.905
0.94
0.96
0.965
0.985
1.01
1.025
1.03
1.02
1.005
1.01
1.035
1.065
1.045
1.02
1.005
0.995
1.0
0.995
0.97
0.94
0.9
0.875
0.875
0.865
0.85
0.825
0.78
0.735
0.7
0.675
0.64
0.61
0.575
0.525
0.505
0.465
0.435
0.39
0.345
0.32
0.305
0.3
0.285
0.27
0.26
0.245
0.245
0.25
0.235
0.23
0.22
0.2
0.215
0.235
0.255
0.235
0.205
0.165
0.135
0.11
0.1
0.07
0.065
0.045
0.045
0.045
0.025
-0.005
-0.01
-0.01
0.0
0.005
-0.035
-0.065
-0.105
-0.13
-0.135
-0.165
-0.195
-0.215
-0.245
-0.275
-0.28
-0.275
-0.29
-0.305
-0.32
-0.36
-0.345
-0.35
-0.365
-0.375
-0.38
-0.38
-0.38
-0.385
-0.4
-0.415
-0.42
-0.4
-0.385
-0.375
-0.38
-0.4
-0.425
-0.415
-0.39
-0.36
-0.36
-0.385
-0.4
-0.415
-0.41
-0.41
-0.41
-0.415
-0.42
-0.425
-0.41
-0.395
-0.405
-0.415
-0.445
-0.445
-0.435
-0.42
-0.415
-0.405
-0.41
-0.415
-0.405
-0.4
-0.4
-0.395
-0.405
-0.41
-0.415
-0.425
-0.42
-0.415
-0.415
-0.42
-0.415
-0.41
-0.41
-0.425
-0.435
-0.42
-0.405
-0.395
-0.4
-0.405
-0.415
-0.4
-0.38
-0.375
-0.39
-0.4
-0.4
-0.39
-0.39
-0.38
-0.395
-0.39
-0.39
-0.39
-0.38
-0.365
-0.375
-0.365
-0.375
-0.38
-0.385
-0.375
-0.385
-0.39
-0.395
-0.39
-0.375
-0.36
-0.34
-0.345
-0.345
-0.345
-0.35
-0.335
-0.355
-0.345
-0.355
-0.35
-0.34
-0.325
-0.32
-0.305
-0.29
-0.26
-0.215
-0.15
0.005
0.305
0.805
1.425
1.885
2.05
2.0
1.905
1.84
1.795
1.735
1.665
1.59
1.515
1.43
1.33
1.255
1.18
1.095
0.975
0.83
0.68
0.55
0.425
0.29
0.14
-0.055
-0.245
-0.44
-0.615
-0.805
-0.985
-1.175
-1.36
-1.48
-1.555
-1.63
-1.72
-1.8
-1.87
-1.945
-2.04
-2.165
-2.285
-2.365
-2.435
-2.49
-2.545
-2.575
-2.545
-2.435
-2.285
-2.085
-1.895
-1.71
-1.53
-1.4
-1.305
-1.23
-1.165
-1.11
-1.07
-1.01
-0.96
-0.915
-0.885
-0.88
-0.85
-0.79
-0.745
-0.685
-0.62
-0.565
-0.515
-0.465
-0.4
-0.325
-0.24
-0.165
-0.095
-0.025
0.035
0.095
0.14
0.18
0.22
0.23
0.245
0.275
0.29
0.285
0.295
0.325
0.34
0.37
0.415
0.43
0.445
0.48
0.515
0.555
0.6
0.625
0.67
0.71
0.765
0.83
0.89
0.91
0.935
0.96
0.98
1.035
1.085
1.135
1.16
1.175
1.175
1.195
1.21
1.23
1.255
1.265
1.29
1.31
1.315
1.335
1.325
1.32
1.305
1.305
1.295
1.255
1.22
1.19
1.16
1.13
1.115
1.075
1.025
0.97
0.915
0.885
0.855
0.805
0.75
0.68
0.615
0.565
0.535
0.495
0.425
0.355
0.295
0.24
0.2
0.16
0.11
0.06
0.03
-0.025
-0.055
-0.09
-0.15
-0.195
-0.235
-0.24
-0.26
-0.29
-0.33
-0.365
-0.385
-0.385
-0.4
-0.41
-0.425
-0.455
-0.47
-0.475
-0.47
-0.48
-0.49
-0.5
-0.515
-0.52
-0.51
-0.52
-0.52
-0.53
-0.525
-0.51
-0.495
-0.495
-0.495
-0.505
-0.525
-0.54
-0.52
-0.505
-0.5
-0.515
-0.505
-0.505
-0.51
-0.52
-0.525
-0.51
-0.525
-0.51
-0.5
-0.495
-0.5
-0.51
-0.515
-0.5
-0.475
-0.495
-0.485
-0.465
-0.455
-0.465
-0.465
-0.475
-0.47
-0.48
-0.48
-0.48
-0.455
-0.455
-0.465
-0.465
-0.485
-0.47
-0.46
-0.46
-0.49
-0.49
-0.495
-0.475
-0.45
-0.445
-0.46
-0.49
-0.495
-0.465
-0.465
-0.465
-0.47
-0.5
-0.51
-0.495
-0.47
-0.445
-0.43
-0.465
-0.495
-0.495
-0.475
-0.46
-0.46
-0.445
-0.455
-0.445
-0.44
-0.44
-0.45
-0.455
-0.465
-0.45
-0.44
-0.445
-0.44
-0.445
-0.44
-0.43
-0.42
-0.435
-0.435
-0.445
-0.435
-0.415
-0.42
-0.42
-0.415
-0.43
-0.435
-0.425
-0.4
-0.385
-0.395
-0.415
-0.425
-0.4
-0.4
-0.405
-0.4
-0.415
-0.415
-0.385
-0.36
-0.34
-0.34
-0.325
-0.315
-0.285
-0.23
-0.145
0.025
0.365
0.895
1.47
1.855
1.95
1.9
1.815
1.745
1.7
1.635
1.55
1.46
1.36
1.25
1.2
1.12
1.015
0.91
0.805
0.66
0.52
0.365
0.195
0.02
-0.155
-0.315
-0.495
-0.685
-0.91
-1.12
-1.315
-1.505
-1.67
-1.795
-1.925
-2.01
-2.075
-2.15
-2.22
-2.3
-2.415
-2.525
-2.575
-2.625
-2.655
-2.66
-2.64
-2.54
-2.37
-2.155
-1.865
-1.6
-1.365
-1.175
-1.08
-1.025
-0.965
-0.9
-0.84
-0.78
-0.705
-0.66
-0.615
-0.58
-0.565
-0.535
-0.475
-0.415
-0.335
-0.3
-0.285
-0.255
-0.235
-0.21
-0.145
-0.07
-0.015
0.03
0.055
0.095
0.145
0.2
0.225
0.24
0.235
0.215
0.215
0.245
0.27
0.305
0.325
0.315
0.335
0.37
0.385
0.405
0.42
0.435
0.475
0.515
0.535
0.55
0.56
0.595
0.635
0.675
0.705
0.735
0.75
0.78
0.835
0.88
0.91
0.92
0.925
0.925
0.965
1.02
1.045
1.05
1.035
1.035
1.065
1.07
1.075
1.06
1.06
1.045
1.055
1.045
1.02
0.995
0.965
0.925
0.925
0.91
0.865
0.81
0.765
0.715
0.67
0.65
0.61
0.565
0.515
0.45
0.395
0.365
0.315
0.255
0.22
0.155
0.115
0.08
0.025
-0.02
-0.055
-0.09
-0.14
-0.14
-0.175
-0.205
-0.225
-0.255
-0.245
-0.27
-0.31
-0.33
-0.34
-0.35
-0.355
-0.355
-0.36
-0.38
-0.395
-0.4
-0.395
-0.365
-0.36
-0.37
-0.385
-0.405
-0.415
-0.41
-0.43
-0.43
-0.44
-0.445
-0.42
-0.4
-0.415
-0.43
-0.43
-0.435
-0.425
-0.41
-0.42
-0.42
-0.415
-0.4
-0.39
-0.375
-0.385
-0.4
-0.405
-0.385
-0.365
-0.335
-0.36
-0.365
-0.38
-0.38
-0.385
-0.365
-0.365
-0.355
-0.36
-0.39
-0.385
-0.37
-0.375
-0.37
-0.36
-0.38
-0.37
-0.355
-0.355
-0.36
-0.37
-0.385
-0.38
-0.365
-0.365
-0.38
-0.38
-0.39
-0.375
-0.365
-0.39
-0.385
-0.39
-0.38
-0.37
-0.375
-0.385
-0.385
-0.38
-0.385
-0.38
-0.38
-0.375
-0.38
-0.38
-0.375
-0.375
-0.375
-0.4
-0.385
-0.4
-0.395
-0.37
-0.37
-0.38
-0.39
-0.39
-0.385
-0.37
-0.355
-0.36
-0.365
-0.37
-0.35
-0.315
-0.285
-0.295
-0.28
-0.275
-0.26
-0.21
-0.165
-0.135
-0.115
-0.12
-0.11
-0.085
-0.01
0.02
0.055
0.05
0.035
0.045
0.065
0.125
0.28
0.6
1.145
1.69
2.02
2.07
1.99
1.915
1.85
1.785
1.71
1.61
1.505
1.4
1.28
1.185
1.055
0.925
0.75
0.58
0.405
0.24
0.065
-0.135
-0.325
-0.53
-0.745
-0.96
-1.18
-1.375
-1.565
-1.74
-1.875
-1.97
-2.045
-2.115
-2.18
-2.27
-2.38
-2.48
-2.57
-2.65
-2.73
-2.79
-2.825
-2.835
-2.765
-2.63
-2.44
-2.255
-2.06
-1.86
-1.675
-1.515
-1.415
-1.355
-1.31
-1.23
-1.155
-1.125
-1.1
-1.09
-1.075
-1.03
-0.98
-0.95
-0.885
-0.82
-0.745
-0.67
-0.6
-0.565
-0.51
-0.445
-0.365
-0.26
-0.165
-0.11
-0.055
-0.015
0.035
0.075
0.1
0.115
0.135
0.12
0.145
0.175
0.2
0.225
0.25
0.275
0.29
0.325
0.345
0.365
0.38
0.41
0.435
0.485
0.525
0.545
0.555
0.59
0.625
0.665
0.71
0.74
0.77
0.78
0.8
0.84
0.89
0.925
0.95
0.96
0.97
0.995
1.03
1.04
1.055
1.055
1.075
1.085
1.095
1.075
1.065
1.045
1.02
1.015
1.015
1.005
0.98
0.935
0.885
0.87
0.81
0.785
0.755
0.7
0.64
0.585
0.555
0.525
0.465
0.42
0.36
0.29
0.24
0.18
0.135
0.08
0.01
-0.015
-0.025
-0.075
-0.12
-0.165
-0.19
-0.195
-0.22
-0.235
-0.27
-0.295
-0.32
-0.32
-0.335
-0.355
-0.365
-0.36
-0.37
-0.365
-0.37
-0.375
-0.395
-0.42
-0.43
-0.415
-0.385
-0.395
-0.405
-0.42
-0.41
-0.405
-0.4
-0.42
-0.42
-0.43
-0.425
-0.415
-0.39
-0.39
-0.4
-0.395
-0.39
-0.36
-0.36
-0.38
-0.405
-0.395
-0.42
-0.4
-0.375
-0.365
-0.37
-0.375
-0.375
-0.37
-0.34
-0.34
-0.325
-0.325
-0.32
-0.305
-0.285
-0.275
-0.265
-0.225
-0.195
-0.155
-0.135
-0.115
-0.12
-0.11
-0.085
-0.06
-0.005
0.005
0.015
0.01
-0.015
-0.045
-0.05
-0.075
-0.085
-0.09
-0.095
-0.08
-0.075
-0.075
-0.105
-0.12
-0.135
-0.15
-0.18
-0.22
-0.245
-0.26
-0.285
-0.325
-0.345
-0.36
-0.385
-0.405
-0.435
-0.45
-0.445
-0.45
-0.465
-0.49
-0.505
-0.505
-0.49
-0.485
-0.495
-0.505
-0.52
-0.515
-0.49
-0.48
-0.485
-0.5
-0.535
-0.52
-0.495
-0.48
-0.47
-0.475
-0.47
-0.48
-0.495
-0.505
-0.515
-0.51
-0.49
-0.46
-0.47
-0.47
-0.48
-0.465
-0.43
-0.39
-0.36
-0.33
-0.28
-0.14
0.2
0.76
1.385
1.785
1.875
1.805
1.71
1.665
1.62
1.54
1.43
1.355
1.28
1.19
1.11
1.005
0.875
0.785
0.65
0.52
0.395
0.255
0.095
-0.09
-0.28
-0.475
-0.66
-0.86
-1.06
-1.265
-1.49
-1.675
-1.785
-1.875
-1.94
-2.0
-2.045
-2.1
-2.2
-2.33
-2.445
-2.52
-2.575
-2.62
-2.64
-2.63
-2.545
-2.415
-2.245
-2.06
-1.86
-1.7
-1.565
-1.45
-1.38
-1.305
-1.235
-1.185
-1.15
-1.08
-1.0
-0.935
-0.885
-0.88
-0.875
-0.845
-0.785
-0.695
-0.615
-0.55
-0.495
-0.455
-0.405
-0.325
-0.205
-0.11
-0.065
-0.025
0.0
0.075
0.145
0.21
0.24
0.255
0.27
0.275
0.3
0.345
0.37
0.38
0.37
0.385
0.42
0.455
0.46
0.475
0.49
0.5
0.53
0.555
0.58
0.61
0.635
0.67
0.705
0.75
0.785
0.8
0.82
0.84
0.88
0.9
0.895
0.905
0.935
0.985
1.02
1.035
1.04
1.04
1.07
1.085
1.11
1.12
1.12
1.12
1.125
1.145
1.135
1.115
1.09
1.055
1.035
1.015
1.0
0.97
0.93
0.915
0.89
0.845
0.81
0.77
0.72
0.68
0.655
0.63
0.605
0.555
0.495
0.43
0.35
0.305
0.275
0.225
0.18
0.135
0.1
0.09
0.09
0.07
0.055
0.03
0.01
0.01
0.03
0.045
0.04
0.025
0.005
0.01
0.03
0.065
0.065
0.05
0.0
-0.01
-0.04
-0.055
-0.055
-0.035
-0.035
-0.035
-0.03
-0.04
-0.065
-0.1
-0.135
-0.155
-0.155
-0.19
-0.23
-0.245
-0.28
-0.305
-0.34
-0.365
-0.385
-0.415
-0.425
-0.445
-0.435
-0.435
-0.435
-0.45
-0.475
-0.485
-0.51
-0.535
-0.55
-0.55
-0.535
-0.52
-0.52
-0.5
-0.515
-0.53
-0.545
-0.525
-0.51
-0.51
-0.52
-0.55
-0.57
-0.565
-0.545
-0.535
-0.555
-0.575
-0.585
-0.585
-0.575
-0.58
-0.59
-0.585
-0.57
-0.565
-0.57
-0.57
-0.575
-0.58
-0.57
-0.56
-0.565
-0.585
-0.585
-0.6
-0.57
-0.57
-0.57
-0.585
-0.615
-0.635
-0.65
-0.63
-0.595
-0.6
-0.595
-0.605
-0.625
-0.61
-0.585
-0.585
-0.605
-0.615
-0.6
-0.58
-0.585
-0.61
-0.65
-0.63
-0.62
-0.6
-0.58
-0.585
-0.615
-0.625
-0.61
-0.595
-0.6
-0.605
-0.62
-0.62
-0.595
-0.575
-0.565
-0.565
-0.57
-0.57
-0.555
-0.555
-0.56
-0.58
-0.56
-0.54
-0.5
-0.48
-0.435
-0.31
-0.01
0.505
1.13
1.605
1.79
1.75
1.68
1.625
1.595
1.525
1.46
1.365
1.285
1.205
1.13
1.05
0.95
0.825
0.695
0.56
0.43
0.31
0.16
-0.005
-0.195
-0.38
-0.525
-0.68
-0.815
-0.98
-1.155
-1.3
-1.42
-1.485
-1.52
-1.59
-1.62
-1.695
-1.805
-1.965
-2.08
-2.195
-2.245
-2.325
-2.4
-2.46
-2.47
-2.435
-2.315
-2.17
-1.985
-1.81
-1.645
-1.525
-1.435
-1.39
-1.33
-1.27
-1.23
-1.225
-1.21
-1.19
-1.18
-1.155
-1.125
-1.11
-1.095
-1.055
-1.005
-0.935
-0.845
-0.805
-0.765
-0.72
-0.675
-0.595
-0.535
-0.465
-0.405
-0.36
-0.29
-0.22
-0.16
-0.145
-0.15
-0.165
-0.165
-0.135
-0.105
-0.085
-0.045
-0.04
-0.04
-0.02
-0.015
-0.015
-0.01
0.005
0.04
0.075
0.115
0.145
0.155
0.165
0.22
0.275
0.315
0.335
0.375
0.41
0.45
0.5
0.54
0.56
0.56
0.595
0.65
0.705
0.745
0.755
0.76
0.735
0.735
0.745
0.77
0.785
0.795
0.805
0.81
0.81
0.825
0.84
0.855
0.82
0.8
0.77
0.765
0.73
0.705
0.67
0.63
0.585
0.555
0.525
0.505
0.46
0.405
0.365
0.31
0.265
0.22
0.16
0.105
0.065
0.02
-0.02
-0.07
-0.135
-0.185
-0.215
-0.23
-0.255
-0.32
-0.375
-0.425
-0.45
-0.46
-0.505
-0.525
-0.56
-0.595
-0.625
-0.625
-0.64
-0.66
-0.665
-0.69
-0.71
-0.74
-0.755
-0.77
-0.76
-0.75
-0.73
-0.72
-0.72
-0.76
-0.815
-0.835
-0.835
-0.8
-0.78
-0.815
-0.85
-0.87
-0.85
-0.82
-0.79
-0.8
-0.81
-0.8
-0.775
-0.765
-0.785
-0.825
-0.85
-0.84
-0.835
-0.82
-0.815
-0.815
-0.825
-0.82
-0.815
-0.79
-0.795
-0.79
-0.775
-0.77
-0.775
-0.77
-0.785
-0.775
-0.765
-0.76
-0.755
-0.76
-0.76
-0.755
-0.76
-0.755
-0.74
-0.735
-0.745
-0.755
-0.755
-0.75
-0.74
-0.73
-0.735
-0.74
-0.73
-0.745
-0.75
-0.76
-0.75
-0.74
-0.73
-0.745
-0.745
-0.725
-0.705
-0.705
-0.72
-0.755
-0.77
-0.76
-0.745
-0.765
-0.76
-0.765
-0.765
-0.765
-0.75
-0.735
-0.74
-0.74
-0.735
-0.72
-0.735
-0.73
-0.735
-0.735
-0.73
-0.72
-0.72
-0.705
-0.7
-0.705
-0.73
-0.715
