Lead II
-0.93
-0.93
-0.935
-0.93
-0.935
-0.935
-0.92
-0.915
-0.93
-0.94
-0.93
-0.915
-0.92
-0.93
-0.92
-0.925
-0.915
-0.905
-0.9
-0.91
-0.91
-0.91
-0.925
-0.905
-0.91
-0.935
-0.935
-0.915
-0.91
-0.91
-0.9
-0.9
-0.905
-0.9
-0.91
-0.91
-0.91
-0.9
-0.92
-0.91
-0.895
-0.895
-0.89
-0.89
-0.895
-0.905
-0.895
-0.9
-0.92
-0.915
-0.91
-0.9
-0.905
-0.89
-0.875
-0.88
-0.89
-0.89
-0.895
-0.905
-0.91
-0.9
-0.895
-0.885
-0.895
-0.89
-0.88
-0.88
-0.88
-0.885
-0.88
-0.895
-0.9
-0.895
-0.885
-0.9
-0.88
-0.875
-0.86
-0.865
-0.875
-0.87
-0.875
-0.885
-0.88
-0.89
-0.885
-0.88
-0.88
-0.875
-0.86
-0.87
-0.865
-0.865
-0.87
-0.885
-0.885
-0.875
-0.88
-0.875
-0.87
-0.87
-0.86
-0.86
-0.86
-0.865
-0.87
-0.88
-0.88
-0.875
-0.875
-0.865
-0.86
-0.86
-0.85
-0.85
-0.85
-0.85
-0.855
-0.86
-0.86
-0.855
-0.855
-0.845
-0.845
-0.835
-0.83
-0.825
-0.82
-0.825
-0.83
-0.845
-0.845
-0.85
-0.845
-0.835
-0.825
-0.815
-0.79
-0.785
-0.78
-0.785
-0.785
-0.785
-0.785
-0.785
-0.795
-0.8
-0.805
-0.805
-0.8
-0.805
-0.815
-0.82
-0.82
-0.835
-0.82
-0.81
-0.775
-0.775
-0.745
-0.76
-0.745
-0.755
-0.775
-0.79
-0.81
-0.83
-0.845
-0.855
-0.855
-0.85
-0.865
-0.85
-0.84
-0.855
-0.855
-0.855
-0.855
-0.86
-0.89
-0.885
-0.885
-0.87
-0.835
-0.755
-0.665
-0.545
-0.445
-0.375
-0.375
-0.445
-0.585
-0.76
-0.89
-0.905
-0.785
-0.535
-0.245
0.07
0.395
0.67
0.925
1.115
1.245
1.32
1.33
1.295
1.225
1.12
0.975
0.78
0.565
0.335
0.115
-0.12
-0.355
-0.6
-0.81
-0.96
-1.07
-1.1
-1.105
-1.09
-1.05
-1.02
-1.0
-0.975
-0.97
-0.955
-0.935
-0.92
-0.905
-0.905
-0.91
-0.9
-0.915
-0.92
-0.925
-0.925
-0.93
-0.935
-0.925
-0.925
-0.92
-0.915
-0.91
-0.915
-0.92
-0.925
-0.935
-0.95
-0.96
-0.945
-0.945
-0.935
-0.94
-0.935
-0.945
-0.955
-0.955
-0.965
-0.965
-0.96
-0.97
-0.985
-0.99
-0.98
-0.965
-0.975
-0.965
-0.975
-0.995
-1.005
-1.0
-1.01
-1.0
-1.025
-1.025
-1.025
-1.01
-1.025
-1.02
-1.02
-1.035
-1.055
-1.06
-1.055
-1.065
-1.07
-1.075
-1.08
-1.075
-1.08
-1.08
-1.085
-1.1
-1.095
-1.11
-1.12
-1.125
-1.125
-1.12
-1.125
-1.11
-1.105
-1.1
-1.095
-1.1
-1.1
-1.105
-1.11
-1.095
-1.09
-1.08
-1.065
-1.05
-1.035
-1.005
-1.0
-1.01
-0.99
-0.98
-0.97
-0.96
-0.945
-0.915
-0.895
-0.865
-0.845
-0.825
-0.805
-0.785
-0.785
-0.775
-0.79
-0.775
-0.75
-0.75
-0.73
-0.715
-0.73
-0.72
-0.73
-0.73
-0.74
-0.745
-0.75
-0.765
-0.78
-0.795
-0.79
-0.795
-0.805
-0.81
-0.82
-0.825
-0.85
-0.855
-0.885
-0.885
-0.895
-0.895
-0.9
-0.895
-0.9
-0.89
-0.905
-0.91
-0.92
-0.925
-0.92
-0.93
-0.93
-0.92
-0.915
-0.91
-0.9
-0.905
-0.895
-0.905
-0.905
-0.905
-0.91
-0.92
-0.905
-0.9
-0.895
-0.885
-0.875
-0.865
-0.87
-0.865
-0.875
-0.875
-0.865
-0.88
-0.88
-0.88
-0.87
-0.86
-0.865
-0.845
-0.835
-0.855
-0.84
-0.85
-0.855
-0.855
-0.855
-0.85
-0.85
-0.845
-0.825
-0.825
-0.82
-0.82
-0.825
-0.835
-0.83
-0.84
-0.83
-0.835
-0.815
-0.825
-0.81
-0.81
-0.81
-0.81
-0.815
-0.82
-0.82
-0.835
-0.835
-0.84
-0.825
-0.82
-0.82
-0.815
-0.815
-0.82
-0.815
-0.825
-0.83
-0.835
-0.835
-0.835
-0.815
-0.81
-0.815
-0.805
-0.795
-0.795
-0.79
-0.79
-0.805
-0.8
-0.8
-0.8
-0.795
-0.79
-0.785
-0.79
-0.785
-0.775
-0.785
-0.79
-0.805
-0.815
-0.805
-0.805
-0.805
-0.79
-0.79
-0.78
-0.775
-0.78
-0.775
-0.79
-0.8
-0.805
-0.805
-0.795
-0.795
-0.785
-0.785
-0.775
-0.78
-0.775
-0.785
-0.8
-0.8
-0.795
-0.805
-0.805
-0.805
-0.815
-0.805
-0.785
-0.785
-0.8
-0.795
-0.795
-0.79
-0.79
-0.81
-0.8
-0.795
-0.795
-0.795
-0.79
-0.775
-0.77
-0.785
-0.795
-0.8
-0.795
-0.79
-0.81
-0.795
-0.79
-0.785
-0.775
-0.785
-0.79
-0.79
-0.79
-0.795
-0.805
-0.8
-0.805
-0.79
-0.81
-0.805
-0.79
-0.77
-0.77
-0.78
-0.785
-0.79
-0.795
-0.79
-0.795
-0.785
-0.77
-0.775
-0.76
-0.755
-0.755
-0.76
-0.76
-0.77
-0.765
-0.775
-0.775
-0.765
-0.75
-0.735
-0.72
-0.705
-0.71
-0.715
-0.72
-0.72
-0.725
-0.725
-0.735
-0.735
-0.74
-0.735
-0.725
-0.73
-0.735
-0.735
-0.75
-0.745
-0.735
-0.73
-0.71
-0.7
-0.69
-0.68
-0.67
-0.685
-0.695
-0.72
-0.75
-0.765
-0.785
-0.8
-0.81
-0.805
-0.795
-0.79
-0.785
-0.775
-0.785
-0.785
-0.785
-0.805
-0.81
-0.835
-0.84
-0.84
-0.825
-0.765
-0.685
-0.595
-0.5
-0.435
-0.37
-0.345
-0.36
-0.435
-0.555
-0.725
-0.84
-0.885
-0.79
-0.6
-0.335
-0.045
0.25
0.545
0.825
1.08
1.305
1.47
1.545
1.55
1.505
1.385
1.21
0.985
0.73
0.475
0.215
-0.075
-0.34
-0.585
-0.815
-0.975
-1.06
-1.1
-1.1
-1.085
-1.05
-1.03
-0.995
-0.98
-0.955
-0.925
-0.91
-0.91
-0.905
-0.9
-0.91
-0.91
-0.915
-0.92
-0.925
-0.93
-0.93
-0.925
-0.915
-0.91
-0.9
-0.9
-0.91
-0.915
-0.925
-0.92
-0.93
-0.93
-0.93
-0.94
-0.94
-0.92
-0.9
-0.915
-0.915
-0.935
-0.94
-0.945
-0.945
-0.975
-0.96
-0.97
-0.95
-0.95
-0.935
-0.935
-0.945
-0.96
-0.97
-0.975
-0.975
-0.98
-0.98
-0.985
-0.995
-0.995
-0.985
-0.99
-0.99
-1.005
-1.015
-1.02
-1.035
-1.035
-1.05
-1.05
-1.045
-1.05
-1.05
-1.045
-1.055
-1.05
-1.065
-1.065
-1.075
-1.085
-1.085
-1.085
-1.07
-1.075
-1.06
-1.05
-1.055
-1.045
-1.055
-1.05
-1.045
-1.055
-1.045
-1.02
-1.005
-0.99
-0.97
-0.965
-0.935
-0.93
-0.93
-0.91
-0.895
-0.9
-0.88
-0.855
-0.84
-0.81
-0.795
-0.775
-0.77
-0.76
-0.755
-0.75
-0.745
-0.73
-0.735
-0.72
-0.725
-0.71
-0.695
-0.7
-0.705
-0.71
-0.715
-0.725
-0.735
-0.745
-0.76
-0.765
-0.77
-0.775
-0.775
-0.79
-0.81
-0.825
-0.835
-0.855
-0.865
-0.88
-0.89
-0.9
-0.91
-0.905
-0.925
-0.92
-0.925
-0.945
-0.935
-0.925
-0.935
-0.95
-0.95
-0.95
-0.94
-0.94
-0.94
-0.945
-0.935
-0.935
-0.95
-0.945
-0.935
-0.95
-0.935
-0.92
-0.915
-0.905
-0.895
-0.905
-0.9
-0.89
-0.895
-0.89
-0.885
-0.9
-0.89
-0.875
-0.875
-0.865
-0.865
-0.855
-0.855
-0.86
-0.87
-0.865
-0.865
-0.87
-0.855
-0.845
-0.845
-0.845
-0.835
-0.83
-0.83
-0.84
-0.845
-0.855
-0.845
-0.85
-0.84
-0.84
-0.83
-0.825
-0.82
-0.815
-0.825
-0.82
-0.825
-0.835
-0.835
-0.835
-0.84
-0.825
-0.815
-0.8
-0.8
-0.805
-0.805
-0.81
-0.81
-0.82
-0.825
-0.83
-0.82
-0.82
-0.81
-0.81
-0.8
-0.795
-0.795
-0.8
-0.815
-0.815
-0.82
-0.82
-0.815
-0.805
-0.795
-0.795
-0.79
-0.785
-0.795
-0.79
-0.8
-0.805
-0.805
-0.82
-0.81
-0.8
-0.79
-0.795
-0.79
-0.785
-0.775
-0.775
-0.785
-0.785
-0.8
-0.805
-0.8
-0.8
-0.81
-0.78
-0.78
-0.785
-0.78
-0.78
-0.79
-0.79
-0.8
-0.795
-0.79
-0.8
-0.795
-0.785
-0.77
-0.76
-0.77
-0.77
-0.785
-0.785
-0.795
-0.805
-0.805
-0.815
-0.8
-0.8
-0.785
-0.79
-0.775
-0.79
-0.785
-0.78
-0.8
-0.795
-0.79
-0.795
-0.785
-0.775
-0.76
-0.76
-0.77
-0.76
-0.77
-0.775
-0.78
-0.785
-0.785
-0.78
-0.775
-0.775
-0.755
-0.75
-0.755
-0.77
-0.76
-0.76
-0.785
-0.785
-0.785
-0.77
-0.745
-0.725
-0.705
-0.705
-0.7
-0.7
-0.7
-0.72
-0.725
-0.735
-0.75
-0.745
-0.74
-0.74
-0.735
-0.745
-0.73
-0.73
-0.73
-0.715
-0.71
-0.705
-0.71
-0.71
-0.71
-0.725
-0.72
-0.735
-0.765
-0.78
-0.795
-0.8
-0.8
-0.8
-0.8
-0.795
-0.79
-0.785
-0.78
-0.795
-0.81
-0.83
-0.825
-0.79
-0.72
-0.62
-0.51
-0.415
-0.34
-0.3
-0.34
-0.46
-0.625
-0.79
-0.865
-0.79
-0.62
-0.34
-0.005
0.31
0.625
0.89
1.15
1.35
1.455
1.51
1.475
1.39
1.275
1.105
0.895
0.65
0.415
0.16
-0.105
-0.365
-0.63
-0.83
-0.99
-1.06
-1.09
-1.07
-1.045
-1.01
-0.975
-0.94
-0.925
-0.895
-0.895
-0.885
-0.89
-0.89
-0.9
-0.91
-0.91
-0.915
-0.89
-0.9
-0.895
-0.895
-0.895
-0.895
-0.915
-0.91
-0.925
-0.92
-0.92
-0.91
-0.895
-0.895
-0.88
-0.89
-0.885
-0.905
-0.91
-0.92
-0.925
-0.925
-0.925
-0.925
-0.925
-0.92
-0.915
-0.92
-0.92
-0.935
-0.95
-0.95
-0.96
-0.975
-0.98
-0.975
-0.98
-0.975
-0.97
-0.975
-0.97
-0.98
-0.99
-1.005
-1.03
-1.035
-1.035
-1.035
-1.035
-1.03
-1.02
-1.025
-1.03
-1.045
-1.05
-1.065
-1.07
-1.085
-1.08
-1.09
-1.08
-1.08
-1.08
-1.07
-1.085
-1.095
-1.1
-1.115
-1.115
-1.115
-1.13
-1.125
-1.11
-1.11
-1.09
-1.08
-1.09
-1.08
-1.07
-1.065
-1.06
-1.055
-1.035
-1.03
-1.005
-0.99
-0.985
-0.965
-0.97
-0.935
-0.915
-0.915
-0.9
-0.89
-0.87
-0.85
-0.835
-0.81
-0.8
-0.775
-0.77
-0.77
-0.765
-0.755
-0.75
-0.755
-0.755
-0.755
-0.75
-0.735
-0.73
-0.73
-0.725
-0.73
-0.74
-0.745
-0.76
-0.77
-0.765
-0.77
-0.775
-0.785
-0.785
-0.795
-0.805
-0.835
-0.84
-0.86
-0.865
-0.88
-0.89
-0.895
-0.895
-0.89
-0.89
-0.89
-0.9
-0.905
-0.925
-0.94
-0.955
-0.95
-0.95
-0.94
-0.94
-0.925
-0.925
-0.925
-0.925
-0.93
-0.935
-0.94
-0.95
-0.95
-0.95
-0.96
-0.935
-0.93
-0.905
-0.9
-0.91
-0.915
-0.91
-0.915
-0.915
-0.91
-0.925
-0.915
-0.9
-0.9
-0.9
-0.885
-0.885
-0.9
-0.9
-0.885
-0.89
-0.9
-0.895
-0.895
-0.885
-0.87
-0.87
-0.86
-0.85
-0.86
-0.86
-0.87
-0.875
-0.88
-0.87
-0.86
-0.865
-0.855
-0.84
-0.84
-0.835
-0.84
-0.84
-0.845
-0.865
-0.86
-0.855
-0.85
-0.845
-0.84
-0.835
-0.82
-0.83
-0.835
-0.83
-0.835
-0.84
-0.845
-0.845
-0.83
-0.83
-0.835
-0.835
-0.81
-0.805
-0.815
-0.82
-0.825
-0.83
-0.835
-0.83
-0.83
-0.835
-0.825
-0.82
-0.81
-0.815
-0.825
-0.825
-0.82
-0.825
-0.815
-0.82
-0.82
-0.81
-0.795
-0.8
-0.785
-0.795
-0.805
-0.81
-0.83
-0.84
-0.83
-0.83
-0.82
-0.805
-0.79
-0.785
-0.78
-0.785
-0.795
-0.795
-0.8
-0.8
-0.805
-0.805
-0.805
-0.795
-0.78
-0.78
-0.78
-0.78
-0.775
-0.785
-0.78
-0.795
-0.8
-0.79
-0.785
-0.78
-0.775
-0.77
-0.77
-0.77
-0.78
-0.785
-0.78
-0.8
-0.79
-0.79
-0.78
-0.785
-0.76
-0.765
-0.77
-0.755
-0.765
-0.775
-0.78
-0.79
-0.78
-0.78
-0.775
-0.77
-0.77
-0.77
-0.765
-0.77
-0.76
-0.77
-0.77
-0.79
-0.77
-0.755
-0.755
-0.74
-0.74
-0.73
-0.73
-0.73
-0.725
-0.72
-0.72
-0.715
-0.715
-0.71
-0.7
-0.695
-0.69
-0.68
-0.685
-0.695
-0.7
-0.725
-0.735
-0.735
-0.74
-0.74
-0.735
-0.72
-0.705
-0.685
-0.665
-0.645
-0.645
-0.66
-0.66
-0.695
-0.69
-0.725
-0.74
-0.76
-0.755
-0.77
-0.775
-0.76
-0.755
-0.75
-0.765
-0.775
-0.785
-0.78
-0.785
-0.775
-0.775
-0.785
-0.795
-0.765
-0.725
-0.64
-0.535
-0.44
-0.36
-0.32
-0.34
-0.435
-0.595
-0.735
-0.78
-0.7
-0.52
-0.25
0.055
0.37
0.67
0.95
1.205
1.41
1.555
1.615
1.62
1.55
1.44
1.28
1.065
0.825
0.575
0.33
0.085
-0.155
-0.41
-0.63
-0.815
-0.955
-1.04
-1.08
-1.075
-1.055
-1.025
-1.0
-0.98
-0.945
-0.92
-0.895
-0.88
-0.87
-0.87
-0.89
-0.89
-0.9
-0.905
-0.91
-0.915
-0.89
-0.885
-0.875
-0.865
-0.875
-0.87
-0.875
-0.885
-0.89
-0.895
-0.9
-0.895
-0.885
-0.88
-0.87
-0.87
-0.865
-0.875
-0.88
-0.88
-0.885
-0.9
-0.9
-0.905
-0.905
-0.9
-0.9
-0.895
-0.895
-0.91
-0.91
-0.92
-0.93
-0.95
-0.95
-0.955
-0.95
-0.95
-0.94
-0.935
-0.945
-0.95
-0.965
-0.965
-0.975
-0.985
-0.99
-0.99
-0.995
-0.995
-0.995
-0.99
-0.99
-1.0
-1.01
-1.015
-1.03
-1.035
-1.045
-1.045
-1.045
-1.025
-1.035
-1.015
-1.025
-1.02
-1.005
-1.035
-1.045
-1.03
-1.01
-1.015
-1.0
-0.995
-0.975
-0.96
-0.96
-0.945
-0.94
-0.935
-0.93
-0.905
-0.89
-0.875
-0.86
-0.835
-0.815
-0.795
-0.785
-0.77
-0.75
-0.725
-0.73
-0.72
-0.69
-0.695
-0.665
-0.655
-0.65
-0.635
-0.63
-0.635
-0.65
-0.65
-0.66
-0.66
-0.675
-0.685
-0.68
-0.69
-0.69
-0.695
-0.71
-0.71
-0.73
-0.75
-0.78
-0.78
-0.8
-0.805
-0.82
-0.815
-0.825
-0.83
-0.835
-0.84
-0.845
-0.855
-0.865
-0.885
-0.89
-0.885
-0.885
-0.88
-0.875
-0.875
-0.865
-0.87
-0.87
-0.88
-0.89
-0.905
-0.88
-0.885
-0.875
-0.87
-0.86
-0.85
-0.855
-0.85
-0.855
-0.86
-0.86
-0.855
-0.86
-0.855
-0.85
-0.84
-0.825
-0.82
-0.805
-0.825
-0.81
-0.81
-0.81
-0.81
-0.825
-0.81
-0.805
-0.8
-0.78
-0.775
-0.775
-0.79
-0.795
-0.785
-0.79
-0.79
-0.8
-0.78
-0.785
-0.77
-0.77
-0.755
-0.755
-0.755
-0.77
-0.755
-0.765
-0.765
-0.77
-0.77
-0.76
-0.765
-0.76
-0.745
-0.745
-0.75
-0.745
-0.76
-0.755
-0.77
-0.775
-0.765
-0.75
-0.75
-0.745
-0.73
-0.735
-0.74
-0.745
-0.75
-0.76
-0.76
-0.765
-0.755
-0.75
-0.75
-0.74
-0.73
-0.735
-0.735
-0.735
-0.745
-0.755
-0.76
-0.76
-0.76
-0.74
-0.735
-0.73
-0.71
-0.72
-0.72
-0.73
-0.735
-0.745
-0.75
-0.74
-0.745
-0.73
-0.72
-0.72
-0.715
-0.72
-0.71
-0.72
-0.73
-0.725
-0.735
-0.75
-0.735
-0.735
-0.725
-0.705
-0.71
-0.715
-0.715
-0.73
-0.735
-0.735
-0.735
-0.735
-0.725
-0.715
-0.71
-0.7
-0.7
-0.7
-0.695
-0.72
-0.725
-0.72
-0.725
-0.73
-0.72
-0.72
-0.715
-0.7
-0.695
-0.7
-0.695
-0.705
-0.705
-0.715
-0.725
-0.725
-0.715
-0.72
-0.71
-0.71
-0.695
-0.695
-0.69
-0.69
-0.695
-0.7
-0.7
-0.705
-0.69
-0.68
-0.68
-0.685
-0.67
-0.67
-0.68
-0.675
-0.685
-0.68
-0.665
-0.66
-0.64
-0.64
-0.63
-0.63
-0.635
-0.63
-0.64
-0.665
-0.67
-0.685
-0.685
-0.69
-0.69
-0.69
-0.685
-0.655
-0.64
-0.625
-0.61
-0.62
-0.62
-0.625
-0.65
-0.66
-0.685
-0.68
-0.695
-0.725
-0.715
-0.72
-0.725
-0.725
-0.73
-0.73
-0.745
-0.755
-0.76
-0.74
-0.74
-0.735
-0.725
-0.75
-0.76
-0.77
-0.77
-0.77
-0.725
-0.66
-0.565
-0.47
-0.385
-0.315
-0.255
-0.265
-0.325
-0.455
-0.61
-0.745
-0.8
-0.735
-0.56
-0.325
-0.05
0.24
0.5
0.75
0.965
1.18
1.355
1.495
1.565
1.58
1.535
1.44
1.3
1.095
0.83
0.56
0.275
0.005
-0.265
-0.51
-0.73
-0.9
-1.0
-1.04
-1.05
-1.035
-0.995
-0.955
-0.93
-0.92
-0.91
-0.905
-0.88
-0.88
-0.86
-0.865
-0.87
-0.86
-0.85
-0.87
-0.86
-0.86
-0.86
-0.865
-0.88
-0.865
-0.865
-0.86
-0.86
-0.855
-0.85
-0.85
-0.86
-0.86
-0.865
-0.875
-0.89
-0.9
-0.9
-0.885
-0.875
-0.865
-0.86
-0.875
-0.87
-0.88
-0.88
-0.89
-0.9
-0.905
-0.91
-0.91
-0.915
-0.91
-0.9
-0.91
-0.915
-0.92
-0.93
-0.93
-0.95
-0.945
-0.955
-0.95
-0.945
-0.945
-0.945
-0.955
-0.97
-0.975
-0.985
-1.0
-1.015
-1.01
-1.015
-1.02
-1.01
-1.025
-1.015
-1.015
-1.025
-1.025
-1.05
-1.05
-1.055
-1.06
-1.065
-1.06
-1.05
-1.03
-1.04
-1.03
-1.03
-1.02
-1.025
-1.02
-1.01
-1.005
-1.0
-0.99
-0.965
-0.955
-0.925
-0.915
-0.905
-0.9
-0.885
-0.875
-0.87
-0.845
-0.825
-0.8
-0.79
-0.76
-0.725
-0.71
-0.705
-0.685
-0.695
-0.675
-0.67
-0.67
-0.665
-0.65
-0.65
-0.64
-0.62
-0.635
-0.625
-0.645
-0.655
-0.67
-0.675
-0.685
-0.7
-0.705
-0.715
-0.715
-0.72
-0.725
-0.74
-0.76
-0.78
-0.805
-0.81
-0.825
-0.84
-0.84
-0.835
-0.84
-0.83
-0.84
-0.845
-0.855
-0.865
-0.885
-0.88
-0.88
-0.885
-0.86
-0.85
-0.845
-0.83
-0.84
-0.84
-0.84
-0.845
-0.85
-0.845
-0.84
-0.84
-0.84
-0.825
-0.815
-0.81
-0.8
-0.805
-0.8
-0.805
-0.815
-0.815
-0.805
-0.8
-0.795
-0.8
-0.785
-0.775
-0.76
-0.765
-0.775
-0.78
-0.785
-0.785
-0.795
-0.785
-0.785
-0.775
-0.765
-0.76
-0.77
-0.76
-0.765
-0.765
-0.785
-0.78
-0.785
-0.785
-0.765
-0.755
-0.76
-0.745
-0.745
-0.74
-0.745
-0.75
-0.75
-0.755
-0.755
-0.755
-0.745
-0.75
-0.735
-0.73
-0.735
-0.73
-0.735
-0.745
-0.74
-0.75
-0.76
-0.74
-0.745
-0.75
-0.745
-0.73
-0.72
-0.735
-0.73
-0.73
-0.73
-0.73
-0.73
-0.735
-0.74
-0.73
-0.74
-0.735
-0.715
-0.72
-0.715
-0.715
-0.735
-0.735
-0.735
-0.74
-0.735
-0.725
-0.71
-0.7
-0.705
-0.705
-0.705
-0.71
-0.72
-0.715
-0.73
-0.73
-0.725
-0.72
-0.72
-0.715
-0.715
-0.69
-0.7
-0.71
-0.715
-0.72
-0.72
-0.72
-0.72
-0.71
-0.715
-0.7
-0.71
-0.7
-0.7
-0.71
-0.71
-0.715
-0.715
-0.705
-0.72
-0.71
-0.71
-0.71
-0.7
-0.695
-0.705
-0.71
-0.71
-0.725
-0.725
-0.74
-0.735
-0.72
-0.72
-0.715
-0.7
-0.71
-0.71
-0.72
-0.72
-0.73
-0.725
-0.72
-0.715
-0.705
-0.7
-0.695
-0.69
-0.715
-0.715
-0.71
-0.7
-0.705
-0.71
-0.7
-0.7
-0.695
-0.685
-0.675
-0.665
-0.675
-0.665
-0.665
-0.665
-0.685
-0.695
-0.7
-0.695
-0.685
-0.665
-0.645
-0.64
-0.645
-0.63
-0.635
-0.635
-0.63
-0.64
-0.66
-0.655
-0.685
-0.67
-0.66
-0.67
-0.67
-0.67
-0.68
-0.67
-0.66
-0.645
-0.625
-0.63
-0.63
-0.625
-0.645
-0.66
-0.69
-0.71
-0.725
-0.735
-0.74
-0.74
-0.74
-0.735
-0.73
-0.73
-0.725
-0.715
-0.725
-0.74
-0.76
-0.77
-0.76
-0.705
-0.605
-0.495
-0.385
-0.3
-0.25
-0.245
-0.31
-0.43
-0.6
-0.74
-0.79
-0.715
-0.515
-0.23
0.075
0.375
0.665
0.935
1.16
1.36
1.51
1.595
1.605
1.57
1.475
1.31
1.105
0.86
0.615
0.365
0.115
-0.135
-0.395
-0.63
-0.825
-0.975
-1.04
-1.07
-1.06
-1.025
-0.985
-0.955
-0.935
-0.9
-0.89
-0.87
-0.86
-0.865
-0.855
-0.86
-0.865
-0.86
-0.855
-0.85
-0.86
-0.855
-0.86
-0.86
-0.865
-0.87
-0.875
-0.87
-0.86
-0.86
-0.855
-0.845
-0.845
-0.845
-0.86
-0.85
-0.865
-0.88
-0.885
-0.885
-0.87
-0.87
-0.875
-0.88
-0.89
-0.895
-0.9
-0.905
-0.915
-0.915
-0.915
-0.915
-0.92
-0.92
-0.915
-0.915
-0.925
-0.925
-0.945
-0.95
-0.96
-0.955
-0.97
-0.965
-0.96
-0.975
-0.965
-0.98
-0.985
-1.0
-1.0
-0.995
-0.995
-1.005
-1.005
-1.005
-1.005
-1.02
-1.015
-1.015
-1.015
-1.02
-1.02
-1.025
-1.03
-1.03
-1.025
-1.025
-1.01
-1.005
-0.99
-0.975
-0.975
-0.975
-0.965
-0.95
-0.94
-0.94
-0.92
-0.91
-0.895
-0.87
-0.86
-0.84
-0.825
-0.815
-0.8
-0.785
-0.77
-0.755
-0.74
-0.735
-0.715
-0.7
-0.685
-0.675
-0.665
-0.665
-0.66
-0.67
-0.66
-0.665
-0.665
-0.67
-0.65
-0.645
-0.65
-0.66
-0.66
-0.66
-0.68
-0.695
-0.7
-0.715
-0.725
-0.725
-0.735
-0.74
-0.735
-0.75
-0.76
-0.785
-0.79
-0.815
-0.83
-0.85
-0.85
-0.84
-0.85
-0.855
-0.86
-0.85
-0.865
-0.865
-0.88
-0.88
-0.9
-0.895
-0.9
-0.9
-0.89
-0.89
-0.885
-0.855
-0.87
-0.87
-0.875
-0.88
-0.885
-0.88
-0.87
-0.86
-0.86
-0.845
-0.84
-0.83
-0.835
-0.825
-0.835
-0.85
-0.835
-0.84
-0.845
-0.82
-0.82
-0.815
-0.795
-0.79
-0.795
-0.795
-0.795
-0.795
-0.795
-0.8
-0.795
-0.78
-0.785
-0.775
-0.77
-0.755
-0.765
-0.775
-0.775
-0.765
-0.775
-0.78
-0.78
-0.775
-0.775
-0.765
-0.76
-0.75
-0.755
-0.745
-0.76
-0.755
-0.765
-0.775
-0.77
-0.76
-0.755
-0.75
-0.75
-0.735
-0.74
-0.74
-0.74
-0.75
-0.75
-0.755
-0.76
-0.75
-0.745
-0.74
-0.735
-0.725
-0.72
-0.73
-0.745
-0.745
-0.75
-0.74
-0.745
-0.75
-0.725
-0.72
-0.715
-0.72
-0.72
-0.715
-0.72
-0.725
-0.725
-0.735
-0.74
-0.715
-0.72
-0.715
-0.73
-0.725
-0.725
-0.715
-0.73
-0.725
-0.735
-0.745
-0.74
-0.725
-0.72
-0.72
-0.71
-0.72
-0.705
-0.715
-0.705
-0.715
-0.735
-0.735
-0.745
-0.73
-0.72
-0.705
-0.71
-0.71
-0.705
-0.685
-0.705
-0.7
-0.72
-0.72
-0.71
-0.71
-0.695
-0.705
-0.71
-0.695
-0.715
-0.715
-0.71
-0.71
-0.715
-0.71
-0.715
-0.71
-0.71
-0.705
-0.695
-0.685
-0.69
-0.705
-0.705
-0.705
-0.71
-0.705
-0.7
-0.7
-0.685
-0.69
-0.675
-0.66
-0.675
-0.69
-0.69
-0.685
-0.69
-0.68
-0.69
-0.685
-0.67
-0.655
-0.665
-0.665
-0.67
-0.685
-0.69
-0.67
-0.66
-0.64
-0.625
-0.61
-0.61
-0.605
-0.605
-0.615
-0.62
-0.62
-0.655
-0.655
-0.665
-0.655
-0.67
-0.665
-0.655
-0.65
-0.635
-0.625
-0.61
-0.6
-0.6
-0.61
-0.605
-0.625
-0.635
-0.645
-0.655
-0.67
-0.685
-0.685
-0.71
-0.715
-0.725
-0.715
-0.72
-0.73
-0.715
-0.71
-0.71
-0.705
-0.72
-0.725
-0.735
-0.7
-0.635
-0.545
-0.45
-0.345
-0.27
-0.215
-0.23
-0.32
-0.475
-0.64
-0.74
-0.74
-0.595
-0.34
-0.045
0.27
0.565
0.84
1.085
1.305
1.495
1.615
1.67
1.635
1.54
1.41
1.22
0.995
0.745
0.5
0.255
0.025
-0.2
-0.425
-0.645
-0.805
-0.925
-0.99
-1.005
-1.005
-0.98
-0.945
-0.91
-0.88
-0.84
-0.825
-0.81
-0.805
-0.8
-0.795
-0.81
-0.815
-0.815
-0.805
-0.805
-0.805
-0.805
-0.785
-0.785
-0.795
-0.805
-0.82
-0.815
-0.825
-0.82
-0.82
-0.82
-0.815
-0.8
-0.8
-0.81
-0.805
-0.81
-0.82
-0.835
-0.835
-0.845
-0.83
-0.83
-0.825
-0.83
-0.84
-0.84
-0.845
-0.86
-0.88
-0.89
-0.88
-0.875
-0.865
-0.86
-0.865
-0.86
-0.865
-0.875
-0.875
-0.885
-0.9
-0.915
-0.905
-0.91
-0.915
-0.91
-0.915
-0.91
-0.91
-0.925
-0.93
-0.94
-0.965
-0.98
-0.97
-0.975
-0.985
-0.99
-0.985
-0.975
-0.975
-0.96
-0.98
-0.98
-0.985
-0.99
-1.0
-0.995
-0.985
-0.965
-0.965
-0.945
-0.94
-0.935
-0.93
-0.925
-0.925
-0.925
-0.915
-0.905
-0.89
-0.875
-0.845
-0.83
-0.81
-0.785
-0.765
-0.75
-0.735
-0.72
-0.705
-0.69
-0.66
-0.645
-0.62
-0.61
-0.595
-0.58
-0.585
-0.58
-0.575
-0.57
-0.575
-0.585
-0.585
-0.585
-0.565
-0.565
-0.565
-0.595
-0.6
-0.6
-0.625
-0.65
-0.655
-0.665
-0.665
-0.66
-0.675
-0.67
-0.67
-0.705
-0.715
-0.73
-0.735
-0.75
-0.765
-0.78
-0.78
-0.765
-0.77
-0.76
-0.76
-0.755
-0.765
-0.765
-0.785
-0.785
-0.795
-0.785
-0.8
-0.785
-0.775
-0.755
-0.765
-0.76
-0.75
-0.74
-0.75
-0.76
-0.765
-0.76
-0.755
-0.74
-0.735
-0.72
-0.71
-0.715
-0.72
-0.715
-0.725
-0.73
-0.725
-0.735
-0.725
-0.715
-0.71
-0.71
-0.7
-0.695
-0.695
-0.695
-0.71
-0.7
-0.71
-0.705
-0.705
-0.695
-0.7
-0.685
-0.675
-0.675
-0.68
-0.69
-0.69
-0.7
-0.685
-0.69
-0.68
-0.67
-0.675
-0.665
-0.67
-0.665
-0.66
-0.665
-0.67
-0.69
-0.685
-0.685
-0.675
-0.675
-0.66
-0.66
-0.65
-0.64
-0.65
-0.655
-0.65
-0.66
-0.655
-0.66
-0.66
-0.655
-0.655
-0.64
-0.64
-0.645
-0.645
-0.645
-0.65
-0.655
-0.65
-0.67
-0.665
-0.655
-0.66
-0.655
-0.64
-0.64
-0.645
-0.645
-0.66
-0.665
-0.67
-0.675
-0.67
-0.65
-0.65
-0.645
-0.645
-0.66
-0.665
-0.665
-0.65
-0.665
-0.67
-0.68
-0.685
-0.66
-0.655
-0.65
-0.645
-0.635
-0.64
-0.65
-0.65
-0.665
-0.665
-0.665
-0.66
-0.655
-0.65
-0.635
-0.635
-0.645
-0.645
-0.65
-0.655
-0.665
-0.665
-0.67
-0.67
-0.655
-0.66
-0.645
-0.64
-0.655
-0.66
-0.655
-0.66
-0.665
-0.67
-0.67
-0.67
-0.665
-0.655
-0.65
-0.645
-0.64
-0.635
-0.65
-0.655
-0.655
-0.66
-0.655
-0.66
-0.665
-0.65
-0.645
-0.64
-0.64
-0.645
-0.64
-0.65
-0.65
-0.64
-0.65
-0.635
-0.64
-0.635
-0.65
-0.65
-0.645
-0.645
-0.625
-0.625
-0.62
-0.615
-0.615
-0.615
-0.62
-0.61
-0.595
-0.59
-0.605
-0.615
-0.635
-0.64
-0.665
-0.67
-0.66
-0.635
-0.625
-0.605
-0.595
-0.57
-0.565
-0.575
-0.58
-0.6
-0.615
-0.625
-0.645
-0.665
-0.66
-0.665
-0.675
-0.68
-0.67
-0.68
-0.69
-0.685
-0.705
-0.705
-0.71
-0.71
-0.7
-0.69
-0.695
-0.71
-0.71
-0.71
-0.67
-0.625
-0.535
-0.44
-0.355
-0.285
-0.245
-0.23
-0.26
-0.375
-0.535
-0.665
-0.72
-0.63
-0.42
-0.135
0.2
0.545
0.865
1.165
1.4
1.595
1.69
1.715
1.665
1.575
1.455
1.29
1.075
0.84
0.595
0.355
0.095
-0.165
-0.435
-0.665
-0.865
-0.98
-1.045
-1.055
-1.035
-1.0
-0.975
-0.935
-0.9
-0.88
-0.855
-0.84
-0.84
-0.83
-0.83
-0.83
-0.825
-0.84
-0.84
-0.835
-0.825
-0.82
-0.82
-0.83
-0.835
-0.83
-0.83
-0.83
-0.835
-0.84
-0.835
-0.83
-0.835
-0.82
-0.815
-0.825
-0.83
-0.84
-0.85
-0.85
-0.835
-0.835
-0.835
-0.83
-0.83
-0.825
-0.83
-0.845
-0.845
-0.85
-0.86
-0.865
-0.855
-0.86
-0.865
-0.875
-0.87
-0.87
-0.88
-0.875
-0.895
-0.9
-0.905
-0.915
-0.92
-0.925
-0.915
-0.91
-0.91
-0.92
-0.92
-0.935
-0.94
-0.95
-0.965
-0.97
-0.98
-0.975
-0.98
-0.97
-0.98
-0.975
-0.975
-0.98
-0.985
-0.99
-1.0
-0.995
-1.0
-0.99
-0.98
-0.985
-0.975
-0.955
-0.96
-0.95
-0.94
-0.93
-0.945
-0.93
-0.91
-0.89
-0.875
-0.865
-0.84
-0.825
-0.81
-0.78
-0.775
-0.76
-0.755
-0.735
-0.725
-0.71
-0.695
-0.675
-0.66
-0.635
-0.63
-0.625
-0.635
-0.635
-0.625
-0.625
-0.615
-0.62
-0.61
-0.61
-0.615
-0.62
-0.635
-0.635
-0.66
-0.675
-0.705
-0.71
-0.735
-0.74
-0.74
-0.76
-0.76
-0.765
-0.79
-0.8
-0.815
-0.83
-0.85
-0.84
-0.865
-0.87
-0.855
-0.85
-0.845
-0.85
-0.85
-0.85
-0.855
-0.86
-0.855
-0.855
-0.865
-0.865
-0.845
-0.835
-0.83
-0.835
-0.83
-0.825
-0.825
-0.825
-0.815
-0.82
-0.82
-0.82
-0.81
-0.8
-0.795
-0.78
-0.79
-0.785
-0.775
-0.795
-0.785
-0.785
-0.78
-0.775
-0.775
-0.765
-0.77
-0.755
-0.755
-0.76
-0.755
-0.765
-0.765
-0.755
-0.76
-0.765
-0.75
-0.75
-0.735
-0.735
-0.735
-0.75
-0.75
-0.745
-0.75
-0.75
-0.75
-0.755
-0.75
-0.735
-0.73
-0.735
-0.735
-0.735
-0.73
-0.74
-0.74
-0.735
-0.75
-0.745
-0.735
-0.72
-0.73
-0.715
-0.725
-0.73
-0.725
-0.745
-0.74
-0.725
-0.73
-0.735
-0.74
-0.735
-0.72
-0.7
-0.715
-0.725
-0.72
-0.74
-0.73
-0.735
-0.73
-0.73
-0.725
-0.72
-0.72
-0.705
-0.71
-0.71
-0.715
-0.73
-0.72
-0.73
-0.74
-0.745
-0.73
-0.725
-0.72
-0.705
-0.705
-0.71
-0.715
-0.725
-0.73
-0.73
-0.73
-0.725
-0.72
-0.705
-0.705
-0.695
-0.69
-0.705
-0.705
-0.72
-0.725
-0.72
-0.73
-0.725
-0.72
-0.715
-0.715
-0.695
-0.71
-0.7
-0.71
-0.715
-0.72
-0.72
-0.715
-0.715
-0.715
-0.715
-0.72
-0.7
-0.705
-0.705
-0.715
-0.715
-0.725
-0.725
-0.735
-0.735
-0.715
-0.71
-0.7
-0.695
-0.7
-0.705
-0.705
-0.71
-0.72
-0.715
-0.73
-0.725
-0.715
-0.71
-0.71
-0.695
-0.7
-0.715
-0.715
-0.725
-0.725
-0.715
-0.72
-0.725
-0.705
-0.695
-0.685
-0.675
-0.675
-0.675
-0.685
-0.695
-0.7
-0.695
-0.695
-0.68
-0.67
-0.65
-0.645
-0.615
-0.62
-0.63
-0.64
-0.655
-0.675
-0.685
-0.685
-0.69
-0.7
-0.695
-0.675
-0.65
-0.655
-0.63
-0.62
-0.625
-0.635
-0.64
-0.655
-0.66
-0.675
-0.69
-0.7
-0.72
-0.74
-0.74
-0.745
-0.75
-0.75
-0.745
-0.75
-0.755
-0.74
-0.735
-0.725
-0.72
-0.745
-0.75
-0.755
-0.745
-0.69
-0.62
-0.53
-0.425
-0.355
-0.295
-0.27
-0.285
-0.39
-0.545
-0.685
-0.77
-0.73
-0.565
-0.315
-0.03
0.265
0.57
0.82
1.06
1.26
1.445
1.58
1.64
1.635
1.575
1.45
1.26
1.03
0.765
0.48
0.22
-0.06
-0.34
-0.605
-0.83
-0.99
-1.07
-1.105
-1.07
-1.035
-0.985
-0.935
-0.905
-0.88
-0.86
-0.85
-0.855
-0.855
-0.86
-0.875
-0.88
-0.87
-0.865
-0.855
-0.85
-0.865
-0.865
-0.875
-0.87
-0.875
-0.875
-0.88
-0.86
-0.865
-0.86
-0.875
-0.855
-0.855
-0.86
-0.865
-0.875
-0.885
-0.88
-0.9
-0.915
-0.895
-0.885
-0.88
-0.875
-0.885
-0.88
-0.89
