Lead II
-0.26
-0.275
-0.24
-0.23
-0.23
-0.235
-0.24
-0.24
-0.23
-0.225
-0.225
-0.225
-0.225
-0.225
-0.195
-0.18
-0.19
-0.185
-0.2
-0.185
-0.17
-0.15
-0.15
-0.165
-0.16
-0.155
-0.145
-0.115
-0.12
-0.135
-0.125
-0.12
-0.095
-0.085
-0.07
-0.07
-0.07
-0.06
-0.03
-0.015
-0.005
0.0
0.0
0.015
0.055
0.065
0.085
0.085
0.095
0.1
0.13
0.155
0.155
0.16
0.17
0.18
0.21
0.22
0.235
0.23
0.24
0.255
0.255
0.275
0.265
0.25
0.22
0.23
0.225
0.215
0.19
0.16
0.135
0.115
0.105
0.075
0.06
0.015
-0.01
-0.025
-0.04
-0.06
-0.08
-0.11
-0.135
-0.15
-0.145
-0.155
-0.165
-0.195
-0.21
-0.21
-0.21
-0.195
-0.2
-0.215
-0.235
-0.23
-0.21
-0.22
-0.22
-0.24
-0.245
-0.25
-0.22
-0.22
-0.23
-0.235
-0.24
-0.23
-0.215
-0.205
-0.215
-0.225
-0.245
-0.23
-0.215
-0.205
-0.21
-0.22
-0.23
-0.24
-0.22
-0.21
-0.21
-0.23
-0.23
-0.24
-0.22
-0.2
-0.205
-0.21
-0.205
-0.19
-0.165
-0.145
-0.145
-0.155
-0.155
-0.14
-0.115
-0.085
-0.075
-0.065
-0.07
-0.075
-0.065
-0.05
-0.065
-0.08
-0.095
-0.1
-0.105
-0.1
-0.125
-0.15
-0.19
-0.2
-0.2
-0.205
-0.225
-0.235
-0.255
-0.24
-0.25
-0.235
-0.215
-0.215
-0.195
-0.165
-0.105
-0.03
0.04
0.09
0.135
0.22
0.305
0.39
0.455
0.5
0.55
0.605
0.675
0.76
0.85
0.915
0.985
1.055
1.14
1.23
1.345
1.47
1.575
1.635
1.715
1.82
1.915
2.005
2.075
2.045
1.835
1.465
1.1
0.755
0.43
0.195
0.005
-0.135
-0.245
-0.33
-0.37
-0.39
-0.4
-0.405
-0.45
-0.48
-0.495
-0.505
-0.49
-0.5
-0.505
-0.53
-0.55
-0.54
-0.525
-0.525
-0.535
-0.555
-0.575
-0.57
-0.555
-0.54
-0.555
-0.57
-0.59
-0.585
-0.58
-0.58
-0.565
-0.595
-0.61
-0.595
-0.59
-0.58
-0.595
-0.615
-0.62
-0.63
-0.615
-0.605
-0.615
-0.625
-0.635
-0.64
-0.625
-0.61
-0.62
-0.645
-0.645
-0.64
-0.63
-0.595
-0.59
-0.61
-0.62
-0.6
-0.565
-0.545
-0.54
-0.54
-0.53
-0.505
-0.49
-0.455
-0.435
-0.43
-0.425
-0.395
-0.355
-0.345
-0.32
-0.31
-0.305
-0.28
-0.26
-0.24
-0.245
-0.26
-0.27
-0.285
-0.25
-0.245
-0.255
-0.28
-0.28
-0.29
-0.295
-0.285
-0.28
-0.295
-0.315
-0.31
-0.295
-0.285
-0.295
-0.31
-0.315
-0.305
-0.3
-0.295
-0.285
-0.3
-0.31
-0.305
-0.285
-0.27
-0.275
-0.285
-0.29
-0.29
-0.28
-0.265
-0.275
-0.275
-0.305
-0.285
-0.27
-0.26
-0.245
-0.25
-0.25
-0.225
-0.205
-0.16
-0.135
-0.11
-0.085
-0.025
0.04
0.125
0.195
0.255
0.33
0.415
0.5
0.605
0.695
0.755
0.815
0.875
0.935
1.01
1.035
1.1
1.13
1.155
1.145
1.145
1.11
1.055
0.995
0.97
0.96
0.98
0.96
0.915
0.905
0.9
0.94
0.995
1.045
1.015
0.95
0.855
0.72
0.555
0.34
0.09
-0.12
-0.265
-0.345
-0.4
-0.435
-0.465
-0.51
-0.55
-0.565
-0.56
-0.565
-0.59
-0.625
-0.62
-0.625
-0.62
-0.63
-0.66
-0.68
-0.685
-0.675
-0.675
-0.69
-0.705
-0.72
-0.715
-0.725
-0.695
-0.705
-0.735
-0.755
-0.765
-0.755
-0.745
-0.75
-0.77
-0.795
-0.79
-0.775
-0.78
-0.775
-0.795
-0.805
-0.795
-0.77
-0.76
-0.765
-0.77
-0.79
-0.78
-0.76
-0.73
-0.725
-0.74
-0.73
-0.715
-0.69
-0.665
-0.66
-0.665
-0.64
-0.625
-0.6
-0.565
-0.545
-0.545
-0.54
-0.505
-0.48
-0.47
-0.44
-0.44
-0.445
-0.435
-0.415
-0.375
-0.375
-0.395
-0.42
-0.43
-0.4
-0.39
-0.395
-0.405
-0.415
-0.41
-0.41
-0.4
-0.42
-0.425
-0.425
-0.435
-0.42
-0.41
-0.42
-0.44
-0.435
-0.425
-0.42
-0.41
-0.4
-0.435
-0.435
-0.425
-0.415
-0.405
-0.4
-0.415
-0.42
-0.425
-0.41
-0.39
-0.4
-0.42
-0.415
-0.41
-0.4
-0.39
-0.37
-0.385
-0.395
-0.395
-0.395
-0.385
-0.375
-0.39
-0.405
-0.39
-0.375
-0.36
-0.36
-0.375
-0.395
-0.38
-0.365
-0.355
-0.345
-0.36
-0.37
-0.39
-0.365
-0.355
-0.365
-0.365
-0.375
-0.38
-0.365
-0.35
-0.345
-0.365
-0.37
-0.37
-0.355
-0.355
-0.345
-0.36
-0.37
-0.35
-0.34
-0.34
-0.345
-0.365
-0.37
-0.37
-0.36
-0.34
-0.355
-0.37
-0.375
-0.37
-0.355
-0.34
-0.345
-0.36
-0.37
-0.365
-0.355
-0.34
-0.35
-0.36
-0.37
-0.36
-0.355
-0.34
-0.345
-0.365
-0.375
-0.36
-0.35
-0.34
-0.34
-0.36
-0.365
-0.375
-0.35
-0.34
-0.34
-0.355
-0.36
-0.35
-0.345
-0.325
-0.35
-0.35
-0.36
-0.355
-0.35
-0.335
-0.34
-0.34
-0.345
-0.355
-0.345
-0.33
-0.325
-0.34
-0.34
-0.345
-0.32
-0.32
-0.305
-0.315
-0.315
-0.305
-0.265
-0.26
-0.26
-0.28
-0.28
-0.265
-0.225
-0.195
-0.185
-0.195
-0.205
-0.21
-0.2
-0.205
-0.235
-0.26
-0.275
-0.275
-0.275
-0.265
-0.29
-0.325
-0.345
-0.34
-0.33
-0.33
-0.345
-0.345
-0.37
-0.365
-0.36
-0.345
-0.36
-0.38
-0.395
-0.38
-0.37
-0.36
-0.345
-0.365
-0.37
-0.36
-0.34
-0.325
-0.34
-0.37
-0.38
-0.35
-0.27
-0.125
0.045
0.265
0.56
0.905
1.24
1.465
1.52
1.315
0.985
0.6
0.235
-0.09
-0.26
-0.335
-0.36
-0.35
-0.35
-0.305
-0.285
-0.3
-0.34
-0.36
-0.345
-0.34
-0.335
-0.37
-0.39
-0.38
-0.36
-0.35
-0.35
-0.36
-0.37
-0.355
-0.35
-0.335
-0.33
-0.335
-0.345
-0.335
-0.32
-0.305
-0.295
-0.31
-0.33
-0.315
-0.295
-0.275
-0.265
-0.285
-0.295
-0.3
-0.27
-0.25
-0.23
-0.235
-0.25
-0.245
-0.21
-0.195
-0.185
-0.2
-0.185
-0.175
-0.155
-0.13
-0.12
-0.125
-0.115
-0.095
-0.075
-0.04
-0.025
-0.03
-0.035
-0.01
0.01
0.035
0.04
0.035
0.055
0.07
0.095
0.115
0.13
0.12
0.13
0.115
0.12
0.145
0.14
0.115
0.085
0.075
0.065
0.06
0.04
-0.005
-0.045
-0.075
-0.08
-0.1
-0.12
-0.15
-0.19
-0.195
-0.21
-0.205
-0.225
-0.25
-0.285
-0.29
-0.285
-0.28
-0.29
-0.305
-0.33
-0.335
-0.33
-0.32
-0.325
-0.32
-0.34
-0.345
-0.315
-0.3
-0.31
-0.325
-0.34
-0.335
-0.32
-0.295
-0.3
-0.305
-0.325
-0.32
-0.31
-0.29
-0.315
-0.31
-0.32
-0.315
-0.31
-0.285
-0.305
-0.325
-0.35
-0.33
-0.3
-0.29
-0.295
-0.29
-0.31
-0.3
-0.28
-0.245
-0.225
-0.235
-0.25
-0.24
-0.225
-0.195
-0.18
-0.185
-0.195
-0.185
-0.17
-0.16
-0.155
-0.17
-0.205
-0.21
-0.215
-0.225
-0.24
-0.26
-0.285
-0.3
-0.3
-0.295
-0.29
-0.295
-0.28
-0.225
-0.175
-0.04
0.03
0.11
0.19
0.295
0.385
0.485
0.575
0.645
0.735
0.845
0.945
1.075
1.215
1.315
1.375
1.37
1.39
1.435
1.52
1.58
1.63
1.68
1.76
1.815
1.785
1.595
1.235
0.865
0.53
0.255
0.025
-0.155
-0.295
-0.36
-0.42
-0.455
-0.475
-0.515
-0.54
-0.55
-0.56
-0.56
-0.58
-0.6
-0.61
-0.63
-0.615
-0.615
-0.615
-0.635
-0.655
-0.65
-0.645
-0.64
-0.64
-0.66
-0.675
-0.68
-0.69
-0.685
-0.705
-0.715
-0.72
-0.725
-0.725
-0.72
-0.73
-0.76
-0.755
-0.775
-0.76
-0.75
-0.755
-0.775
-0.795
-0.805
-0.805
-0.785
-0.785
-0.81
-0.82
-0.82
-0.81
-0.8
-0.8
-0.8
-0.805
-0.795
-0.775
-0.75
-0.735
-0.73
-0.725
-0.715
-0.69
-0.65
-0.625
-0.625
-0.615
-0.605
-0.565
-0.52
-0.485
-0.475
-0.455
-0.42
-0.4
-0.37
-0.35
-0.35
-0.36
-0.36
-0.36
-0.32
-0.34
-0.34
-0.355
-0.355
-0.35
-0.335
-0.335
-0.345
-0.37
-0.365
-0.345
-0.325
-0.335
-0.35
-0.345
-0.36
-0.35
-0.33
-0.33
-0.35
-0.36
-0.35
-0.355
-0.33
-0.32
-0.34
-0.35
-0.36
-0.34
-0.32
-0.32
-0.335
-0.365
-0.35
-0.335
-0.325
-0.315
-0.305
-0.315
-0.3
-0.28
-0.265
-0.225
-0.2
-0.175
-0.135
-0.08
0.005
0.07
0.135
0.205
0.275
0.37
0.47
0.545
0.61
0.665
0.73
0.83
0.935
1.02
1.09
1.155
1.225
1.3
1.325
1.32
1.29
1.24
1.21
1.18
1.15
1.13
1.09
1.065
1.04
1.015
0.995
0.99
0.99
1.005
1.055
1.05
1.005
0.875
0.695
0.475
0.24
0.04
-0.11
-0.23
-0.315
-0.395
-0.455
-0.475
-0.485
-0.495
-0.535
-0.56
-0.59
-0.58
-0.575
-0.6
-0.615
-0.64
-0.655
-0.645
-0.64
-0.64
-0.675
-0.7
-0.71
-0.685
-0.675
-0.68
-0.69
-0.715
-0.715
-0.72
-0.715
-0.71
-0.73
-0.75
-0.755
-0.75
-0.755
-0.75
-0.78
-0.8
-0.8
-0.785
-0.775
-0.775
-0.795
-0.805
-0.795
-0.79
-0.78
-0.775
-0.8
-0.8
-0.795
-0.775
-0.755
-0.75
-0.755
-0.76
-0.745
-0.72
-0.705
-0.675
-0.68
-0.685
-0.66
-0.62
-0.6
-0.57
-0.555
-0.56
-0.54
-0.495
-0.45
-0.43
-0.415
-0.415
-0.4
-0.39
-0.36
-0.33
-0.335
-0.34
-0.32
-0.31
-0.305
-0.3
-0.305
-0.315
-0.31
-0.3
-0.29
-0.295
-0.305
-0.33
-0.33
-0.315
-0.305
-0.3
-0.32
-0.335
-0.33
-0.32
-0.305
-0.31
-0.32
-0.32
-0.315
-0.325
-0.305
-0.285
-0.3
-0.31
-0.305
-0.3
-0.285
-0.28
-0.285
-0.295
-0.315
-0.295
-0.285
-0.26
-0.275
-0.29
-0.295
-0.28
-0.255
-0.255
-0.265
-0.28
-0.27
-0.27
-0.25
-0.25
-0.26
-0.27
-0.275
-0.26
-0.24
-0.24
-0.25
-0.265
-0.26
-0.25
-0.24
-0.24
-0.255
-0.25
-0.26
-0.24
-0.225
-0.225
-0.24
-0.26
-0.24
-0.235
-0.22
-0.215
-0.23
-0.235
-0.245
-0.23
-0.23
-0.225
-0.225
-0.245
-0.235
-0.22
-0.225
-0.21
-0.225
-0.23
-0.235
-0.22
-0.21
-0.215
-0.225
-0.23
-0.235
-0.225
-0.205
-0.2
-0.225
-0.235
-0.23
-0.22
-0.2
-0.2
-0.215
-0.22
-0.23
-0.23
-0.205
-0.205
-0.215
-0.225
-0.235
-0.215
-0.195
-0.2
-0.21
-0.215
-0.22
-0.205
-0.195
-0.185
-0.19
-0.205
-0.21
-0.195
-0.19
-0.185
-0.195
-0.22
-0.23
-0.205
-0.175
-0.17
-0.2
-0.19
-0.165
-0.135
-0.11
-0.105
-0.11
-0.12
-0.125
-0.095
-0.055
-0.05
-0.055
-0.065
-0.055
-0.045
-0.035
-0.05
-0.065
-0.095
-0.125
-0.105
-0.115
-0.115
-0.14
-0.17
-0.185
-0.18
-0.175
-0.17
-0.195
-0.2
-0.22
-0.21
-0.195
-0.185
-0.195
-0.205
-0.215
-0.195
-0.19
-0.185
-0.205
-0.215
-0.215
-0.22
-0.195
-0.195
-0.19
-0.2
-0.195
-0.195
-0.185
-0.205
-0.195
-0.15
-0.055
0.06
0.22
0.425
0.645
0.905
1.145
1.385
1.575
1.625
1.43
1.09
0.72
0.355
0.12
-0.015
-0.08
-0.12
-0.17
-0.19
-0.195
-0.155
-0.155
-0.185
-0.205
-0.205
-0.195
-0.18
-0.21
-0.215
-0.22
-0.22
-0.205
-0.21
-0.215
-0.235
-0.225
-0.215
-0.19
-0.2
-0.2
-0.205
-0.205
-0.2
-0.18
-0.185
-0.19
-0.205
-0.205
-0.18
-0.16
-0.155
-0.165
-0.17
-0.175
-0.175
-0.135
-0.13
-0.125
-0.135
-0.13
-0.11
-0.09
-0.09
-0.1
-0.1
-0.1
-0.075
-0.055
-0.05
-0.05
-0.055
-0.05
-0.005
0.01
0.025
0.02
0.015
0.02
0.055
0.06
0.085
0.09
0.09
0.105
0.13
0.165
0.175
0.18
0.185
0.19
0.225
0.255
0.255
0.24
0.255
0.265
0.285
0.3
0.3
0.295
0.285
0.275
0.275
0.275
0.28
0.25
0.23
0.195
0.18
0.175
0.15
0.1
0.055
0.035
0.04
0.03
0.0
-0.03
-0.06
-0.08
-0.08
-0.075
-0.1
-0.11
-0.14
-0.145
-0.145
-0.145
-0.155
-0.175
-0.185
-0.185
-0.18
-0.17
-0.195
-0.215
-0.22
-0.22
-0.22
-0.19
-0.2
-0.215
-0.23
-0.225
-0.21
-0.21
-0.19
-0.205
-0.215
-0.235
-0.215
-0.205
-0.2
-0.205
-0.22
-0.205
-0.185
-0.18
-0.185
-0.19
-0.205
-0.205
-0.2
-0.19
-0.19
-0.185
-0.205
-0.2
-0.18
-0.16
-0.165
-0.17
-0.175
-0.155
-0.13
-0.115
-0.115
-0.13
-0.13
-0.115
-0.105
-0.07
-0.05
-0.05
-0.065
-0.065
-0.05
-0.045
-0.055
-0.055
-0.105
-0.11
-0.095
-0.085
-0.09
-0.12
-0.15
-0.195
-0.19
-0.185
-0.19
-0.215
-0.23
-0.24
-0.23
-0.22
-0.21
-0.21
-0.18
-0.145
-0.095
-0.02
0.045
0.095
0.15
0.225
0.31
0.415
0.475
0.52
0.575
0.615
0.68
0.755
0.845
0.915
0.985
1.05
1.12
1.22
1.335
1.44
1.575
1.665
1.755
1.85
1.94
2.005
2.06
2.085
2.005
1.73
1.365
0.985
0.64
0.375
0.195
0.045
-0.06
-0.185
-0.285
-0.35
-0.365
-0.36
-0.385
-0.42
-0.465
-0.48
-0.485
-0.495
-0.49
-0.505
-0.52
-0.535
-0.52
-0.51
-0.515
-0.525
-0.545
-0.545
-0.55
-0.53
-0.53
-0.545
-0.56
-0.575
-0.57
-0.55
-0.56
-0.565
-0.585
-0.595
-0.6
-0.585
-0.585
-0.6
-0.62
-0.635
-0.635
-0.605
-0.62
-0.64
-0.645
-0.65
-0.655
-0.63
-0.63
-0.63
-0.66
-0.655
-0.655
-0.64
-0.625
-0.66
-0.665
-0.645
-0.63
-0.59
-0.595
-0.6
-0.61
-0.585
-0.56
-0.53
-0.52
-0.515
-0.515
-0.495
-0.47
-0.445
-0.42
-0.425
-0.43
-0.415
-0.385
-0.365
-0.335
-0.34
-0.34
-0.33
-0.295
-0.285
-0.27
-0.275
-0.285
-0.29
-0.275
-0.275
-0.285
-0.305
-0.31
-0.315
-0.31
-0.31
-0.295
-0.315
-0.31
-0.325
-0.31
-0.31
-0.3
-0.31
-0.325
-0.325
-0.31
-0.295
-0.3
-0.305
-0.33
-0.325
-0.31
-0.29
-0.3
-0.31
-0.32
-0.32
-0.31
-0.295
-0.295
-0.29
-0.31
-0.305
-0.28
-0.25
-0.235
-0.245
-0.235
-0.21
-0.155
-0.115
-0.065
-0.03
0.025
0.1
0.175
0.26
0.315
0.39
0.47
0.55
0.66
0.76
0.845
0.915
0.965
1.025
1.09
1.155
1.21
1.265
1.295
1.3
1.305
1.285
1.245
1.205
1.145
1.09
1.08
1.085
1.075
1.045
1.04
1.045
1.05
1.085
1.11
1.09
1.01
0.9
0.785
0.64
0.435
0.225
0.035
-0.105
-0.21
-0.285
-0.34
-0.4
-0.45
-0.485
-0.49
-0.505
-0.525
-0.565
-0.605
-0.605
-0.595
-0.59
-0.61
-0.62
-0.65
-0.66
-0.65
-0.635
-0.635
-0.66
-0.68
-0.695
-0.695
-0.705
-0.69
-0.705
-0.71
-0.72
-0.71
-0.72
-0.715
-0.73
-0.75
-0.75
-0.745
-0.745
-0.745
-0.775
-0.795
-0.79
-0.785
-0.765
-0.765
-0.77
-0.78
-0.785
-0.765
-0.765
-0.75
-0.77
-0.78
-0.78
-0.775
-0.755
-0.735
-0.72
-0.72
-0.73
-0.71
-0.68
-0.655
-0.655
-0.67
-0.63
-0.6
-0.565
-0.55
-0.54
-0.535
-0.5
-0.475
-0.435
-0.415
-0.425
-0.425
-0.41
-0.385
-0.35
-0.345
-0.355
-0.36
-0.355
-0.33
-0.325
-0.3
-0.325
-0.35
-0.355
-0.335
-0.315
-0.32
-0.33
-0.35
-0.36
-0.335
-0.33
-0.315
-0.325
-0.345
-0.35
-0.335
-0.315
-0.32
-0.33
-0.34
-0.36
-0.33
-0.31
-0.325
-0.31
-0.33
-0.35
-0.33
-0.32
-0.3
-0.31
-0.325
-0.32
-0.3
-0.295
-0.295
-0.305
-0.315
-0.315
-0.315
-0.295
-0.295
-0.31
-0.31
-0.315
-0.285
-0.29
-0.275
-0.275
-0.305
-0.31
-0.3
-0.275
-0.265
-0.275
-0.3
-0.295
-0.275
-0.245
-0.265
-0.275
-0.29
-0.28
-0.275
-0.26
-0.255
-0.265
-0.275
-0.28
-0.275
-0.26
-0.26
-0.265
-0.275
-0.27
-0.265
-0.24
-0.235
-0.255
-0.265
-0.265
-0.255
-0.24
-0.24
-0.24
-0.265
-0.265
-0.255
-0.24
-0.23
-0.24
-0.26
-0.265
-0.25
-0.235
-0.235
-0.255
-0.255
-0.265
-0.245
-0.235
-0.245
-0.255
-0.26
-0.27
-0.255
-0.24
-0.24
-0.25
-0.275
-0.27
-0.265
-0.235
-0.245
-0.25
-0.27
-0.265
-0.265
-0.23
-0.215
-0.235
-0.235
-0.245
-0.245
-0.215
-0.205
-0.23
-0.225
-0.23
-0.23
-0.22
-0.2
-0.21
-0.23
-0.24
-0.21
-0.215
-0.195
-0.21
-0.21
-0.21
-0.195
-0.155
-0.14
-0.135
-0.15
-0.17
-0.14
-0.115
-0.09
-0.09
-0.085
-0.08
-0.065
-0.05
-0.05
-0.07
-0.1
-0.115
-0.115
-0.105
-0.105
-0.135
-0.16
-0.19
-0.19
-0.18
-0.18
-0.19
-0.21
-0.215
-0.21
-0.195
-0.19
-0.2
-0.22
-0.22
-0.215
-0.19
-0.18
-0.19
-0.21
-0.225
-0.2
-0.175
-0.19
-0.18
-0.2
-0.215
-0.205
-0.2
-0.175
-0.115
0.005
0.155
0.39
0.67
0.99
1.28
1.535
1.67
1.575
1.29
0.92
0.545
0.195
-0.02
-0.1
-0.12
-0.145
-0.185
-0.205
-0.18
-0.145
-0.145
-0.155
-0.18
-0.21
-0.215
-0.21
-0.185
-0.185
-0.195
-0.215
-0.205
-0.2
-0.18
-0.18
-0.19
-0.21
-0.225
-0.195
-0.18
-0.19
-0.205
-0.2
-0.19
-0.185
-0.16
-0.165
-0.165
-0.18
-0.175
-0.165
-0.14
-0.135
-0.135
-0.145
-0.155
-0.14
-0.11
-0.105
-0.105
-0.13
-0.11
-0.1
-0.075
-0.06
-0.065
-0.055
-0.055
-0.02
0.0
0.02
0.01
0.0
0.01
0.035
0.07
0.085
0.105
0.105
0.12
0.14
0.175
0.19
0.195
0.195
0.2
0.23
0.26
0.275
0.28
0.265
0.28
0.3
0.325
0.33
0.315
0.29
0.295
0.305
0.305
0.295
0.265
0.23
0.215
0.195
0.19
0.16
0.13
0.09
0.065
0.05
0.03
0.015
-0.02
-0.065
-0.085
-0.09
-0.085
-0.075
-0.11
-0.15
-0.155
-0.15
-0.135
-0.14
-0.155
-0.17
-0.175
-0.175
-0.145
-0.165
-0.165
-0.17
-0.175
-0.17
-0.16
-0.14
-0.16
-0.185
-0.18
-0.165
-0.155
-0.135
-0.145
-0.17
-0.16
-0.155
-0.15
-0.14
-0.165
-0.17
-0.17
-0.17
-0.145
-0.135
-0.14
-0.16
-0.17
-0.15
-0.135
-0.13
-0.14
-0.145
-0.14
-0.12
-0.08
-0.07
-0.09
-0.09
-0.09
-0.06
-0.04
-0.02
-0.01
-0.01
-0.01
0.0
0.015
0.0
-0.015
-0.045
-0.055
-0.055
-0.045
-0.065
-0.075
-0.105
-0.12
-0.125
-0.115
-0.105
-0.09
-0.065
-0.02
0.04
0.1
0.155
0.215
0.295
0.365
0.445
0.53
0.6
0.65
0.695
0.765
0.85
0.95
1.03
1.08
1.155
1.24
1.365
1.465
1.5
1.44
1.36
1.31
1.355
1.42
1.47
1.49
1.525
1.555
1.595
1.645
1.65
1.54
1.305
1.025
0.745
0.49
0.27
0.065
-0.09
-0.225
-0.32
-0.34
-0.36
-0.395
-0.42
-0.445
-0.465
-0.465
-0.475
-0.5
-0.51
-0.52
-0.505
-0.495
-0.505
-0.52
-0.535
-0.55
-0.545
-0.53
-0.535
-0.555
-0.58
-0.585
-0.57
-0.57
-0.57
-0.61
-0.61
-0.63
-0.63
-0.62
-0.63
-0.64
-0.655
-0.655
-0.66
-0.64
-0.65
-0.67
-0.695
-0.695
-0.675
-0.67
-0.67
-0.665
-0.685
-0.68
-0.675
-0.66
-0.645
-0.64
-0.65
-0.64
-0.625
-0.6
-0.585
-0.585
-0.575
-0.565
-0.52
-0.48
-0.45
-0.435
-0.45
-0.415
-0.375
-0.32
-0.295
-0.28
-0.28
-0.27
-0.245
-0.205
-0.195
-0.2
-0.215
-0.215
-0.2
-0.185
-0.195
-0.205
-0.215
-0.23
-0.205
-0.2
-0.205
-0.215
-0.24
-0.23
-0.22
-0.21
-0.205
-0.225
-0.24
-0.235
-0.23
-0.22
-0.215
-0.22
-0.245
-0.24
-0.23
-0.215
-0.215
-0.235
-0.24
-0.25
-0.235
-0.21
-0.21
-0.215
-0.235
-0.23
-0.215
-0.18
-0.165
-0.175
-0.16
-0.155
-0.12
-0.065
-0.03
0.005
0.04
0.1
0.16
0.245
0.325
0.395
0.46
0.555
0.64
0.705
0.77
0.845
0.905
0.96
1.015
1.08
1.13
1.18
1.205
1.215
1.21
1.19
1.155
1.115
1.07
1.03
1.04
1.03
1.005
0.96
0.95
0.975
1.04
1.135
1.175
1.165
1.105
0.995
0.845
0.64
0.43
0.21
0.035
-0.1
-0.16
-0.225
-0.265
-0.32
-0.38
-0.415
-0.44
-0.445
-0.455
-0.49
-0.535
-0.545
-0.545
-0.535
-0.53
-0.55
-0.58
-0.58
-0.585
-0.585
-0.58
-0.585
-0.61
-0.61
-0.62
-0.61
-0.61
-0.635
-0.64
-0.66
-0.645
-0.64
-0.63
-0.66
-0.68
-0.715
-0.71
-0.675
-0.685
-0.685
-0.71
-0.705
-0.7
-0.68
-0.665
-0.685
-0.685
-0.685
-0.655
-0.645
-0.625
-0.635
-0.64
-0.625
-0.61
-0.575
-0.56
-0.55
-0.55
-0.535
-0.5
-0.465
-0.425
-0.43
-0.425
-0.41
-0.375
-0.345
-0.335
-0.34
-0.325
-0.34
-0.315
-0.3
-0.28
-0.285
-0.305
-0.325
-0.3
-0.28
-0.285
-0.3
-0.31
-0.315
-0.305
-0.285
-0.285
-0.3
-0.305
-0.32
-0.315
-0.295
-0.29
-0.305
-0.325
-0.33
-0.315
-0.305
-0.3
-0.3
-0.33
-0.32
-0.305
-0.295
-0.29
-0.3
-0.31
-0.305
-0.29
-0.265
-0.265
-0.28
-0.305
-0.295
-0.285
-0.28
-0.265
-0.275
-0.295
-0.3
-0.295
-0.26
-0.28
-0.28
-0.29
-0.285
-0.27
-0.25
-0.245
-0.26
-0.275
-0.27
-0.26
-0.255
-0.25
-0.265
-0.265
-0.275
-0.265
-0.25
-0.245
-0.26
-0.275
-0.275
-0.265
-0.25
-0.25
-0.26
-0.285
-0.285
-0.275
-0.255
-0.26
-0.26
-0.285
-0.285
-0.26
-0.255
-0.255
-0.255
-0.27
-0.275
-0.255
-0.245
-0.24
-0.255
-0.285
-0.28
-0.27
-0.25
-0.25
-0.275
-0.29
-0.285
-0.27
-0.25
-0.255
-0.26
-0.28
-0.28
-0.27
-0.255
-0.26
-0.275
-0.275
-0.285
-0.28
-0.28
-0.26
-0.27
-0.29
-0.285
-0.265
-0.25
-0.255
-0.27
-0.275
-0.29
-0.26
-0.255
-0.26
-0.265
-0.285
-0.275
-0.26
-0.255
-0.26
-0.28
-0.29
-0.28
-0.275
-0.26
-0.255
-0.265
-0.27
-0.28
-0.275
-0.255
-0.25
-0.265
-0.285
-0.275
-0.265
-0.255
-0.255
-0.255
-0.275
-0.285
-0.26
-0.24
-0.215
-0.205
-0.215
-0.205
-0.195
-0.19
-0.175
-0.155
-0.16
-0.16
-0.145
-0.12
-0.105
-0.11
-0.15
-0.16
-0.17
-0.165
-0.155
-0.18
-0.205
-0.215
-0.23
-0.23
-0.24
-0.255
-0.275
-0.28
-0.27
-0.265
-0.27
-0.28
-0.32
-0.315
-0.305
-0.3
-0.285
-0.295
-0.305
-0.31
-0.305
-0.285
-0.27
-0.28
-0.285
-0.275
-0.285
-0.285
-0.29
-0.32
-0.33
-0.29
-0.2
-0.075
0.08
0.285
0.545
0.865
1.17
1.435
1.56
1.47
1.155
0.765
0.365
0.03
-0.16
-0.245
-0.295
-0.305
-0.305
-0.275
-0.26
-0.25
-0.26
-0.29
-0.3
-0.285
-0.28
-0.295
-0.305
-0.305
-0.3
-0.3
-0.29
-0.305
-0.295
-0.31
-0.295
-0.28
-0.285
-0.275
-0.295
-0.3
-0.285
-0.27
-0.27
-0.275
-0.29
-0.29
-0.28
-0.265
-0.255
-0.26
-0.28
-0.28
-0.265
-0.24
-0.23
-0.24
-0.24
-0.24
-0.215
-0.195
-0.185
-0.19
-0.195
-0.18
-0.17
-0.145
-0.135
-0.135
-0.14
-0.125
-0.115
-0.075
-0.06
-0.065
-0.065
-0.05
-0.035
-0.01
0.0
0.005
0.015
0.03
0.05
0.07
0.09
0.085
0.075
0.09
0.125
0.15
0.175
0.17
0.17
0.175
0.185
0.195
0.205
0.175
0.165
0.145
0.15
0.145
0.12
0.075
0.055
0.02
0.015
0.0
-0.035
-0.045
-0.08
-0.11
-0.13
-0.135
-0.155
-0.185
-0.21
-0.23
-0.25
-0.255
-0.265
-0.285
-0.295
-0.3
-0.3
-0.29
-0.28
-0.295
-0.315
-0.33
-0.33
-0.31
-0.295
-0.31
-0.325
-0.325
-0.315
-0.295
-0.305
-0.315
-0.325
-0.33
-0.31
-0.295
-0.29
-0.305
-0.32
-0.335
-0.305
-0.28
-0.285
-0.295
-0.31
-0.31
-0.305
-0.285
-0.275
-0.295
-0.295
-0.285
-0.305
-0.265
-0.265
-0.26
-0.265
-0.255
-0.235
-0.22
-0.21
-0.225
-0.215
-0.21
-0.19
-0.165
-0.15
-0.15
-0.155
-0.155
-0.145
-0.15
-0.15
-0.165
-0.19
-0.205
-0.195
-0.2
-0.215
-0.195
-0.19
-0.145
-0.115
-0.045
0.015
0.075
0.15
0.235
0.33
0.425
0.505
0.56
0.615
0.69
0.8
0.915
0.995
1.075
1.15
1.27
1.38
1.41
1.385
1.305
1.25
1.205
1.2
1.16
1.12
1.085
1.055
1.02
1.01
1.03
1.035
1.035
1.04
1.035
1.0
0.9
0.765
0.57
0.335
0.08
-0.13
-0.285
-0.395
-0.47
-0.535
-0.56
-0.56
-0.56
-0.585
-0.62
-0.655
-0.67
-0.67
-0.655
-0.66
-0.675
-0.7
-0.705
-0.705
-0.695
-0.7
-0.705
-0.735
-0.735
-0.73
-0.74
-0.74
-0.765
-0.79
-0.805
-0.79
-0.79
-0.795
-0.815
-0.835
-0.85
-0.865
-0.845
-0.845
-0.865
-0.885
-0.9
-0.89
-0.885
-0.87
-0.87
-0.895
-0.905
-0.875
-0.865
-0.855
-0.85
-0.85
-0.855
-0.82
-0.79
-0.755
-0.74
-0.71
-0.69
-0.63
-0.585
-0.53
-0.505
-0.485
-0.475
-0.43
-0.395
-0.37
-0.365
-0.37
-0.37
-0.35
-0.345
-0.335
-0.36
-0.385
-0.385
-0.375
-0.35
-0.35
-0.385
-0.38
-0.385
-0.385
-0.365
-0.345
-0.365
-0.39
-0.385
-0.375
-0.365
-0.365
-0.375
-0.38
-0.395
-0.36
-0.36
-0.36
-0.37
-0.375
-0.385
-0.365
-0.355
-0.36
-0.36
-0.36
-0.38
-0.365
-0.34
-0.345
-0.35
-0.35
-0.365
-0.355
-0.335
-0.335
-0.34
-0.325
-0.335
-0.305
-0.275
-0.25
-0.23
-0.2
-0.155
-0.1
-0.02
0.04
0.09
0.15
0.22
0.325
0.425
0.5
0.565
0.61
0.67
0.755
0.86
0.93
0.99
1.055
1.14
1.245
1.315
1.33
1.29
1.22
1.14
1.125
1.095
1.07
1.045
1.025
0.985
0.97
0.985
0.995
1.015
1.04
1.07
1.07
1.035
0.925
0.765
0.555
0.325
0.14
-0.025
-0.175
-0.27
-0.37
-0.44
-0.47
-0.495
-0.515
-0.525
-0.56
-0.575
-0.585
-0.585
-0.605
-0.62
-0.635
-0.655
-0.645
-0.64
-0.645
-0.665
-0.69
-0.695
-0.7
-0.695
-0.705
-0.72
-0.73
-0.745
-0.75
-0.74
-0.75
-0.765
-0.77
-0.78
-0.795
-0.78
-0.785
-0.8
-0.82
-0.825
-0.825
-0.825
-0.825
-0.83
-0.84
-0.85
-0.835
-0.83
-0.835
-0.845
-0.845
-0.84
-0.84
-0.81
-0.81
-0.8
-0.795
-0.79
-0.77
-0.745
-0.72
-0.72
-0.715
-0.695
-0.66
-0.63
-0.6
-0.59
-0.575
-0.56
-0.525
-0.485
-0.465
-0.455
-0.445
-0.42
-0.395
-0.375
-0.355
-0.37
-0.375
-0.37
-0.36
-0.345
-0.34
-0.34
-0.36
-0.37
-0.37
-0.355
-0.345
-0.36
-0.365
-0.365
-0.36
-0.355
-0.35
-0.35
-0.37
-0.385
-0.37
-0.35
-0.35
-0.355
-0.365
-0.38
-0.37
-0.35
-0.34
-0.36
-0.36
-0.38
-0.365
-0.35
-0.33
-0.345
-0.35
-0.35
-0.345
-0.335
-0.325
-0.325
-0.33
-0.345
-0.335
-0.315
-0.305
-0.315
-0.315
-0.315
-0.315
-0.305
-0.3
-0.3
-0.31
-0.325
-0.32
-0.295
-0.29
-0.29
-0.3
-0.305
-0.305
-0.29
-0.27
-0.295
-0.3
-0.305
-0.305
-0.28
-0.28
-0.29
-0.295
-0.3
-0.295
-0.28
-0.285
-0.29
-0.305
-0.3
-0.29
-0.265
-0.27
-0.27
-0.28
-0.28
-0.275
-0.255
-0.255
-0.265
-0.275
-0.275
-0.275
-0.27
-0.255
-0.26
-0.27
-0.265
-0.265
-0.255
-0.245
-0.26
-0.27
-0.265
-0.26
-0.25
-0.245
-0.26
-0.28
-0.28
-0.275
-0.26
-0.25
-0.26
-0.265
-0.275
-0.255
-0.26
-0.25
-0.255
-0.265
-0.27
-0.27
-0.255
-0.25
-0.255
-0.275
-0.275
-0.265
-0.255
-0.245
-0.26
-0.27
-0.27
-0.265
-0.255
-0.245
-0.24
-0.255
-0.27
-0.255
-0.235
-0.215
-0.215
-0.19
-0.175
-0.18
-0.165
-0.16
-0.145
-0.14
-0.13
-0.115
-0.09
-0.105
-0.11
-0.12
-0.135
-0.14
-0.14
-0.145
-0.16
-0.18
-0.205
-0.22
-0.215
-0.22
-0.23
-0.26
-0.27
-0.27
-0.245
-0.255
-0.27
-0.275
-0.285
-0.275
-0.26
-0.26
-0.27
-0.275
-0.285
-0.285
-0.26
-0.255
-0.255
-0.275
-0.27
-0.25
-0.245
-0.235
-0.27
-0.27
-0.245
-0.16
-0.05
0.095
0.245
0.455
0.705
0.985
1.27
1.5
1.59
1.475
1.21
0.9
0.58
0.28
0.045
-0.1
-0.175
-0.215
-0.24
-0.255
-0.255
-0.23
-0.235
-0.24
-0.25
-0.25
-0.25
-0.29
-0.295
-0.275
-0.26
-0.26
-0.255
-0.275
-0.285
-0.26
-0.255
-0.26
-0.245
-0.265
-0.27
-0.26
-0.255
-0.25
-0.25
-0.25
-0.25
-0.245
-0.225
-0.21
-0.225
-0.235
-0.24
-0.23
-0.2
-0.19
-0.195
-0.2
-0.21
-0.195
-0.17
-0.15
-0.155
-0.17
-0.175
-0.155
-0.135
-0.12
-0.125
-0.115
-0.12
-0.105
-0.08
-0.055
-0.06
-0.06
-0.055
-0.04
-0.015
0.0
0.015
0.015
0.015
0.04
0.065
0.085
0.1
0.095
0.11
0.125
0.155
0.175
0.18
0.175
0.18
0.21
0.22
0.23
0.24
0.215
0.21
0.225
0.22
0.23
0.215
0.195
0.175
0.155
0.15
0.135
0.09
0.05
0.025
-0.015
-0.01
-0.04
-0.065
-0.1
-0.135
-0.16
-0.155
-0.16
-0.18
-0.22
-0.23
-0.225
-0.215
-0.22
-0.235
-0.26
-0.27
-0.275
-0.25
-0.245
-0.255
-0.28
-0.28
-0.285
-0.27
-0.25
-0.265
-0.27
-0.28
-0.28
-0.265
-0.26
-0.255
-0.27
-0.27
-0.265
-0.26
-0.25
-0.27
-0.28
-0.285
-0.28
-0.255
-0.245
-0.25
-0.27
-0.285
-0.28
-0.27
-0.25
-0.245
-0.26
-0.265
-0.26
-0.235
-0.225
-0.225
-0.235
-0.215
-0.21
-0.175
-0.175
-0.165
-0.185
-0.19
-0.17
-0.13
-0.11
-0.1
-0.12
-0.135
-0.13
-0.135
-0.12
-0.135
-0.18
-0.2
-0.175
-0.165
-0.165
-0.195
-0.215
-0.225
-0.21
-0.15
-0.105
-0.075
-0.04
0.005
0.065
0.145
0.22
0.285
0.355
0.41
0.49
0.575
0.655
0.725
