Lead II
-0.02
-0.585
-1.125
-1.55
-1.835
-1.98
-2.03
-2.065
-2.065
-2.04
-2.06
-2.085
-2.105
-2.125
-2.135
-2.165
-2.15
-2.135
-2.07
-2.0
-1.915
-1.82
-1.685
-1.525
-1.355
-1.2
-1.105
-1.06
-1.015
-0.94
-0.895
-0.86
-0.835
-0.805
-0.805
-0.82
-0.84
-0.875
-0.9
-0.88
-0.855
-0.835
-0.795
-0.76
-0.75
-0.77
-0.78
-0.79
-0.79
-0.81
-0.82
-0.83
-0.83
-0.835
-0.845
-0.84
-0.865
-0.9
-0.93
-0.955
-0.945
-0.94
-0.935
-0.935
-0.945
-0.99
-1.045
-1.075
-1.105
-1.09
-1.05
-1.015
-1.015
-1.01
-1.025
-1.04
-1.035
-1.05
-1.035
-1.015
-1.035
-1.055
-1.06
-1.08
-1.08
-1.065
-1.045
-1.03
-1.025
-1.025
-0.985
-0.95
-0.92
-0.895
-0.89
-0.905
-0.915
-0.88
-0.83
-0.785
-0.75
-0.745
-0.735
-0.73
-0.715
-0.715
-0.715
-0.7
-0.685
-0.67
-0.68
-0.68
-0.7
-0.685
-0.655
-0.63
-0.64
-0.64
-0.635
-0.64
-0.66
-0.655
-0.66
-0.665
-0.68
-0.69
-0.685
-0.67
-0.685
-0.665
-0.66
-0.675
-0.68
-0.71
-0.705
-0.71
-0.705
-0.7
-0.695
-0.685
-0.67
-0.67
-0.69
-0.71
-0.71
-0.705
-0.71
-0.715
-0.7
-0.7
-0.68
-0.7
-0.71
-0.745
-0.775
-0.78
-0.775
-0.74
-0.71
-0.71
-0.71
-0.75
-0.76
-0.76
-0.76
-0.77
-0.765
-0.72
-0.72
-0.715
-0.74
-0.73
-0.705
-0.715
-0.7
-0.7
-0.69
-0.7
-0.69
-0.68
-0.68
-0.71
-0.715
-0.725
-0.735
-0.78
-0.77
-0.755
-0.715
-0.66
-0.625
-0.605
-0.605
-0.635
-0.64
-0.65
-0.64
-0.61
-0.595
-0.57
-0.555
-0.51
-0.49
-0.445
-0.46
-0.455
-0.47
-0.475
-0.475
-0.5
-0.52
-0.535
-0.505
-0.5
-0.48
-0.47
-0.45
-0.43
-0.44
-0.475
-0.505
-0.54
-0.59
-0.605
-0.625
-0.665
-0.695
-0.715
-0.765
-0.79
-0.785
-0.78
-0.755
-0.715
-0.71
-0.705
-0.705
-0.73
-0.775
-0.8
-0.8
-0.775
-0.755
-0.735
-0.76
-0.78
-0.79
-0.785
-0.775
-0.75
-0.745
-0.745
-0.78
-0.8
-0.81
-0.8
-0.79
-0.795
-0.78
-0.76
-0.74
-0.735
-0.75
-0.79
-0.81
-0.81
-0.735
-0.625
-0.455
-0.285
-0.1
0.08
0.195
0.235
0.215
0.16
0.15
0.195
0.27
0.405
0.505
0.475
0.25
-0.195
-0.75
-1.28
-1.685
-1.96
-2.09
-2.145
-2.155
-2.18
-2.185
-2.205
-2.205
-2.21
-2.2
-2.175
-2.165
-2.145
-2.12
-2.07
-2.045
-2.0
-1.945
-1.85
-1.7
-1.53
-1.345
-1.21
-1.115
-1.055
-1.01
-0.995
-0.945
-0.91
-0.86
-0.86
-0.875
-0.86
-0.855
-0.82
-0.8
-0.785
-0.81
-0.85
-0.855
-0.845
-0.81
-0.78
-0.78
-0.78
-0.8
-0.82
-0.84
-0.84
-0.85
-0.86
-0.88
-0.88
-0.89
-0.89
-0.89
-0.885
-0.915
-0.94
-0.97
-0.99
-1.005
-1.035
-1.045
-1.03
-1.04
-1.06
-1.035
-1.015
-1.005
-1.02
-1.045
-1.045
-1.09
-1.15
-1.175
-1.18
-1.155
-1.11
-1.08
-1.055
-1.055
-1.06
-1.065
-1.075
-1.11
-1.115
-1.085
-1.06
-1.035
-1.01
-0.98
-0.965
-0.96
-0.96
-0.92
-0.89
-0.86
-0.86
-0.87
-0.85
-0.83
-0.79
-0.75
-0.735
-0.74
-0.75
-0.775
-0.79
-0.775
-0.74
-0.695
-0.66
-0.65
-0.665
-0.68
-0.71
-0.72
-0.7
-0.67
-0.655
-0.65
-0.69
-0.695
-0.715
-0.7
-0.68
-0.66
-0.655
-0.665
-0.695
-0.705
-0.69
-0.665
-0.665
-0.67
-0.685
-0.715
-0.735
-0.74
-0.74
-0.725
-0.73
-0.73
-0.705
-0.74
-0.73
-0.755
-0.78
-0.75
-0.725
-0.7
-0.705
-0.725
-0.74
-0.74
-0.73
-0.73
-0.72
-0.73
-0.715
-0.69
-0.71
-0.73
-0.77
-0.795
-0.78
-0.74
-0.72
-0.715
-0.715
-0.735
-0.755
-0.755
-0.75
-0.72
-0.71
-0.705
-0.705
-0.7
-0.705
-0.715
-0.72
-0.715
-0.71
-0.7
-0.7
-0.705
-0.695
-0.69
-0.7
-0.735
-0.755
-0.76
-0.75
-0.71
-0.65
-0.615
-0.605
-0.61
-0.63
-0.66
-0.65
-0.66
-0.645
-0.665
-0.67
-0.655
-0.6
-0.525
-0.465
-0.41
-0.4
-0.43
-0.475
-0.515
-0.505
-0.545
-0.55
-0.545
-0.53
-0.515
-0.49
-0.45
-0.44
-0.435
-0.45
-0.49
-0.54
-0.595
-0.655
-0.68
-0.695
-0.69
-0.71
-0.72
-0.725
-0.73
-0.73
-0.74
-0.735
-0.74
-0.76
-0.77
-0.76
-0.745
-0.72
-0.72
-0.705
-0.725
-0.745
-0.75
-0.755
-0.74
-0.735
-0.73
-0.735
-0.775
-0.8
-0.795
-0.77
-0.735
-0.715
-0.71
-0.725
-0.725
-0.735
-0.73
-0.715
-0.73
-0.7
-0.705
-0.675
-0.655
-0.555
-0.395
-0.195
0.01
0.175
0.27
0.29
0.235
0.23
0.255
0.39
0.535
0.665
0.675
0.475
0.075
-0.51
-1.1
-1.56
-1.865
-1.97
-1.98
-1.965
-1.955
-1.995
-2.025
-2.055
-2.075
-2.1
-2.115
-2.145
-2.145
-2.135
-2.08
-2.04
-1.965
-1.91
-1.855
-1.745
-1.615
-1.445
-1.27
-1.13
-1.035
-0.995
-0.965
-0.91
-0.865
-0.805
-0.81
-0.83
-0.865
-0.875
-0.845
-0.805
-0.77
-0.74
-0.765
-0.805
-0.835
-0.845
-0.845
-0.81
-0.79
-0.785
-0.785
-0.765
-0.77
-0.805
-0.845
-0.885
-0.9
-0.895
-0.865
-0.855
-0.865
-0.91
-0.94
-0.97
-0.975
-0.96
-0.975
-0.965
-0.965
-0.98
-1.01
-1.055
-1.075
-1.1
-1.1
-1.075
-1.04
-0.99
-0.995
-1.005
-1.055
-1.12
-1.145
-1.155
-1.135
-1.105
-1.095
-1.065
-1.06
-1.045
-1.03
-1.01
-1.0
-0.995
-0.975
-0.98
-0.97
-0.935
-0.895
-0.85
-0.8
-0.785
-0.765
-0.76
-0.75
-0.74
-0.73
-0.745
-0.75
-0.755
-0.76
-0.725
-0.68
-0.645
-0.615
-0.62
-0.66
-0.69
-0.685
-0.685
-0.665
-0.69
-0.715
-0.685
-0.64
-0.61
-0.6
-0.59
-0.62
-0.645
-0.685
-0.705
-0.695
-0.69
-0.67
-0.66
-0.665
-0.635
-0.65
-0.64
-0.64
-0.685
-0.68
-0.71
-0.71
-0.705
-0.68
-0.675
-0.67
-0.68
-0.695
-0.665
-0.685
-0.7
-0.715
-0.715
-0.705
-0.705
-0.735
-0.765
-0.79
-0.755
-0.71
-0.68
-0.67
-0.68
-0.7
-0.715
-0.72
-0.725
-0.73
-0.73
-0.725
-0.695
-0.675
-0.68
-0.67
-0.685
-0.715
-0.735
-0.75
-0.745
-0.72
-0.68
-0.645
-0.625
-0.63
-0.63
-0.63
-0.625
-0.645
-0.69
-0.725
-0.72
-0.69
-0.655
-0.61
-0.585
-0.57
-0.56
-0.575
-0.565
-0.58
-0.57
-0.545
-0.525
-0.47
-0.435
-0.42
-0.425
-0.415
-0.415
-0.45
-0.49
-0.5
-0.515
-0.515
-0.51
-0.485
-0.445
-0.405
-0.405
-0.4
-0.41
-0.435
-0.485
-0.54
-0.6
-0.625
-0.62
-0.63
-0.66
-0.715
-0.745
-0.73
-0.7
-0.685
-0.68
-0.69
-0.72
-0.735
-0.745
-0.765
-0.77
-0.75
-0.75
-0.725
-0.68
-0.67
-0.665
-0.7
-0.715
-0.75
-0.78
-0.77
-0.76
-0.75
-0.73
-0.7
-0.715
-0.735
-0.745
-0.745
-0.76
-0.735
-0.735
-0.735
-0.75
-0.77
-0.755
-0.705
-0.67
-0.65
-0.585
-0.485
-0.32
-0.135
0.055
0.16
0.22
0.195
0.165
0.195
0.29
0.445
0.59
0.675
0.63
0.4
-0.045
-0.605
-1.15
-1.595
-1.87
-2.005
-2.03
-2.015
-2.025
-2.035
-2.075
-2.095
-2.115
-2.125
-2.1
-2.07
-2.09
-2.09
-2.05
-1.99
-1.895
-1.815
-1.73
-1.6
-1.435
-1.28
-1.14
-1.015
-0.945
-0.89
-0.885
-0.88
-0.85
-0.82
-0.82
-0.82
-0.835
-0.825
-0.78
-0.74
-0.725
-0.725
-0.75
-0.755
-0.77
-0.775
-0.785
-0.825
-0.845
-0.845
-0.83
-0.805
-0.8
-0.77
-0.76
-0.765
-0.81
-0.84
-0.885
-0.895
-0.895
-0.875
-0.865
-0.89
-0.945
-0.99
-0.995
-0.99
-0.98
-0.96
-0.955
-0.97
-0.98
-1.02
-1.04
-1.065
-1.055
-1.045
-1.025
-1.025
-1.02
-1.045
-1.045
-1.07
-1.065
-1.03
-1.015
-0.975
-0.965
-0.945
-0.92
-0.925
-0.925
-0.93
-0.925
-0.91
-0.87
-0.845
-0.8
-0.75
-0.725
-0.71
-0.705
-0.71
-0.715
-0.705
-0.695
-0.71
-0.74
-0.715
-0.7
-0.655
-0.635
-0.61
-0.595
-0.595
-0.59
-0.58
-0.605
-0.64
-0.67
-0.665
-0.62
-0.585
-0.595
-0.615
-0.64
-0.66
-0.66
-0.63
-0.6
-0.585
-0.57
-0.57
-0.6
-0.62
-0.63
-0.67
-0.685
-0.695
-0.685
-0.64
-0.63
-0.655
-0.69
-0.695
-0.67
-0.645
-0.63
-0.63
-0.635
-0.645
-0.66
-0.685
-0.695
-0.725
-0.725
-0.725
-0.69
-0.645
-0.625
-0.625
-0.655
-0.675
-0.68
-0.67
-0.66
-0.665
-0.675
-0.705
-0.725
-0.735
-0.71
-0.685
-0.665
-0.655
-0.635
-0.615
-0.615
-0.64
-0.625
-0.65
-0.655
-0.675
-0.675
-0.68
-0.67
-0.66
-0.64
-0.61
-0.56
-0.54
-0.515
-0.505
-0.52
-0.545
-0.575
-0.56
-0.53
-0.485
-0.44
-0.375
-0.35
-0.37
-0.435
-0.5
-0.535
-0.52
-0.495
-0.47
-0.42
-0.4
-0.39
-0.38
-0.39
-0.415
-0.445
-0.485
-0.525
-0.55
-0.565
-0.58
-0.57
-0.59
-0.605
-0.635
-0.66
-0.69
-0.725
-0.725
-0.715
-0.695
-0.67
-0.68
-0.7
-0.715
-0.75
-0.775
-0.75
-0.72
-0.715
-0.695
-0.69
-0.68
-0.69
-0.695
-0.69
-0.725
-0.75
-0.74
-0.75
-0.735
-0.725
-0.72
-0.73
-0.7
-0.695
-0.67
-0.68
-0.72
-0.75
-0.765
-0.75
-0.7
-0.655
-0.575
-0.455
-0.305
-0.125
0.05
0.205
0.26
0.245
0.2
0.165
0.185
0.29
0.44
0.58
0.655
0.54
0.195
-0.305
-0.865
-1.36
-1.73
-1.92
-2.035
-2.075
-2.075
-2.095
-2.09
-2.115
-2.145
-2.155
-2.14
-2.12
-2.08
-2.05
-2.0
-1.945
-1.915
-1.865
-1.78
-1.66
-1.535
-1.325
-1.165
-1.03
-0.945
-0.91
-0.89
-0.875
-0.85
-0.82
-0.765
-0.755
-0.745
-0.74
-0.765
-0.77
-0.78
-0.78
-0.775
-0.755
-0.76
-0.735
-0.74
-0.775
-0.785
-0.78
-0.765
-0.75
-0.735
-0.755
-0.78
-0.825
-0.845
-0.845
-0.83
-0.815
-0.805
-0.8
-0.815
-0.86
-0.905
-0.96
-0.97
-0.94
-0.915
-0.9
-0.905
-0.94
-0.99
-0.985
-1.015
-1.005
-1.01
-1.035
-1.025
-1.03
-1.045
-1.08
-1.07
-1.085
-1.06
-1.04
-1.03
-0.995
-0.955
-0.94
-0.935
-0.935
-0.945
-0.935
-0.915
-0.925
-0.93
-0.895
-0.86
-0.8
-0.74
-0.71
-0.7
-0.695
-0.735
-0.72
-0.72
-0.705
-0.705
-0.68
-0.695
-0.71
-0.69
-0.68
-0.64
-0.63
-0.615
-0.62
-0.64
-0.63
-0.625
-0.58
-0.58
-0.595
-0.625
-0.645
-0.66
-0.645
-0.62
-0.605
-0.59
-0.59
-0.62
-0.615
-0.625
-0.61
-0.625
-0.62
-0.645
-0.675
-0.7
-0.695
-0.68
-0.665
-0.64
-0.615
-0.61
-0.625
-0.655
-0.675
-0.71
-0.74
-0.755
-0.74
-0.715
-0.71
-0.695
-0.7
-0.68
-0.67
-0.65
-0.645
-0.665
-0.685
-0.7
-0.705
-0.73
-0.735
-0.72
-0.695
-0.67
-0.665
-0.65
-0.66
-0.675
-0.68
-0.705
-0.72
-0.735
-0.725
-0.71
-0.665
-0.66
-0.65
-0.655
-0.665
-0.68
-0.69
-0.695
-0.71
-0.695
-0.67
-0.66
-0.645
-0.63
-0.6
-0.59
-0.605
-0.63
-0.65
-0.65
-0.615
-0.58
-0.53
-0.52
-0.51
-0.535
-0.55
-0.53
-0.505
-0.465
-0.405
-0.405
-0.405
-0.425
-0.465
-0.47
-0.48
-0.49
-0.49
-0.47
-0.485
-0.52
-0.5
-0.455
-0.42
-0.39
-0.395
-0.415
-0.44
-0.485
-0.535
-0.585
-0.62
-0.67
-0.68
-0.67
-0.67
-0.65
-0.655
-0.665
-0.69
-0.705
-0.745
-0.75
-0.73
-0.71
-0.705
-0.69
-0.685
-0.695
-0.705
-0.71
-0.73
-0.73
-0.75
-0.72
-0.715
-0.715
-0.725
-0.74
-0.745
-0.715
-0.695
-0.66
-0.66
-0.69
-0.74
-0.79
-0.81
-0.78
-0.72
-0.685
-0.68
-0.7
-0.72
-0.73
-0.715
-0.675
-0.625
-0.525
-0.375
-0.2
-0.005
0.14
0.26
0.285
0.23
0.16
0.135
0.185
0.345
0.525
0.675
0.71
0.585
0.235
-0.285
-0.845
-1.355
-1.74
-1.955
-2.025
-2.07
-2.09
-2.095
-2.105
-2.085
-2.07
-2.07
-2.065
-2.065
-2.06
-2.04
-2.02
-1.975
-1.9
-1.79
-1.585
-1.4
-1.245
-1.155
-1.065
-1.0
-0.95
-0.91
-0.89
-0.855
-0.83
-0.83
-0.805
-0.805
-0.805
-0.79
-0.78
-0.78
-0.785
-0.795
-0.835
-0.825
-0.815
-0.785
-0.765
-0.745
-0.77
-0.775
-0.79
-0.79
-0.785
-0.77
-0.82
-0.88
-0.92
-0.93
-0.915
-0.865
-0.825
-0.815
-0.825
-0.86
-0.9
-0.945
-0.975
-0.97
-0.97
-0.985
-1.015
-1.025
-1.035
-1.03
-1.02
-1.01
-0.995
-0.995
-1.02
-1.02
-1.01
-1.04
-1.065
-1.075
-1.095
-1.05
-1.0
-0.98
-0.965
-0.96
-0.945
-0.925
-0.905
-0.905
-0.88
-0.885
-0.895
-0.89
-0.86
-0.81
-0.755
-0.73
-0.7
-0.705
-0.74
-0.75
-0.75
-0.71
-0.655
-0.605
-0.58
-0.605
-0.63
-0.655
-0.65
-0.63
-0.61
-0.6
-0.595
-0.59
-0.635
-0.675
-0.715
-0.71
-0.655
-0.585
-0.545
-0.525
-0.55
-0.555
-0.55
-0.565
-0.585
-0.63
-0.7
-0.73
-0.725
-0.685
-0.66
-0.645
-0.635
-0.645
-0.655
-0.645
-0.66
-0.64
-0.635
-0.66
-0.69
-0.685
-0.705
-0.705
-0.7
-0.725
-0.73
-0.735
-0.72
-0.7
-0.675
-0.665
-0.68
-0.685
-0.685
-0.68
-0.68
-0.67
-0.68
-0.69
-0.68
-0.705
-0.71
-0.71
-0.68
-0.66
-0.65
-0.66
-0.695
-0.725
-0.74
-0.735
-0.725
-0.7
-0.665
-0.635
-0.635
-0.64
-0.655
-0.65
-0.635
-0.625
-0.61
-0.6
-0.57
-0.545
-0.535
-0.525
-0.565
-0.575
-0.57
-0.55
-0.505
-0.475
-0.43
-0.41
-0.405
-0.42
-0.46
-0.47
-0.48
-0.49
-0.505
-0.505
-0.5
-0.475
-0.41
-0.405
-0.41
-0.43
-0.445
-0.485
-0.54
-0.57
-0.595
-0.595
-0.615
-0.63
-0.665
-0.715
-0.725
-0.71
-0.73
-0.725
-0.725
-0.725
-0.725
-0.715
-0.72
-0.725
-0.73
-0.745
-0.76
-0.755
-0.745
-0.74
-0.735
-0.73
-0.715
-0.72
-0.755
-0.775
-0.835
-0.855
-0.875
-0.82
-0.76
-0.7
-0.66
-0.67
-0.705
-0.73
-0.765
-0.775
-0.76
-0.765
-0.78
-0.775
-0.73
-0.615
-0.49
-0.3
-0.085
0.09
0.215
0.245
0.22
0.19
0.185
0.23
0.365
0.495
0.59
0.605
0.495
0.195
-0.25
-0.785
-1.28
-1.69
-1.95
-2.1
-2.16
-2.15
-2.13
-2.105
-2.115
-2.12
-2.12
-2.11
-2.11
-2.095
-2.09
-2.07
-2.04
-1.98
-1.895
-1.75
-1.58
-1.4
-1.23
-1.105
-1.025
-0.975
-0.97
-0.96
-0.925
-0.9
-0.88
-0.855
-0.825
-0.805
-0.82
-0.86
-0.855
-0.845
-0.83
-0.765
-0.75
-0.765
-0.77
-0.79
-0.795
-0.79
-0.805
-0.83
-0.845
-0.84
-0.845
-0.845
-0.875
-0.885
-0.92
-0.935
-0.92
-0.905
-0.925
-0.925
-0.95
-0.955
-0.985
-0.995
-1.01
-1.02
-1.015
-1.005
-1.02
-1.06
-1.08
-1.07
-1.055
-1.04
-1.045
-1.05
-1.07
-1.07
-1.09
-1.075
-1.09
-1.08
-1.055
-1.055
-1.065
-1.055
-1.075
-1.055
-1.03
-1.01
-0.965
-0.915
-0.89
-0.87
-0.885
-0.895
-0.88
-0.865
-0.845
-0.82
-0.755
-0.715
-0.7
-0.75
-0.75
-0.755
-0.735
-0.7
-0.67
-0.685
-0.705
-0.72
-0.725
-0.71
-0.705
-0.67
-0.665
-0.665
-0.68
-0.68
-0.695
-0.735
-0.735
-0.735
-0.705
-0.655
-0.62
-0.585
-0.605
-0.635
-0.66
-0.685
-0.695
-0.725
-0.77
-0.785
-0.775
-0.765
-0.74
-0.695
-0.675
-0.69
-0.715
-0.755
-0.765
-0.75
-0.75
-0.715
-0.72
-0.71
-0.715
-0.74
-0.745
-0.755
-0.76
-0.74
-0.72
-0.695
-0.705
-0.73
-0.745
-0.775
-0.75
-0.725
-0.7
-0.7
-0.695
-0.71
-0.74
-0.75
-0.76
-0.77
-0.745
-0.735
-0.695
-0.68
-0.69
-0.715
-0.735
-0.75
-0.745
-0.745
-0.73
-0.725
-0.72
-0.71
-0.695
-0.665
-0.645
-0.64
-0.65
-0.68
-0.67
-0.66
-0.66
-0.655
-0.63
-0.635
-0.61
-0.575
-0.525
-0.475
-0.435
-0.425
-0.47
-0.52
-0.555
-0.57
-0.59
-0.585
-0.54
-0.525
-0.5
-0.495
-0.48
-0.47
-0.495
-0.525
-0.565
-0.605
-0.65
-0.69
-0.71
-0.715
-0.71
-0.735
-0.75
-0.74
-0.73
-0.73
-0.745
-0.75
-0.735
-0.75
-0.79
-0.815
-0.835
-0.84
-0.785
-0.765
-0.75
-0.75
-0.765
-0.78
-0.785
-0.77
-0.785
-0.81
-0.825
-0.81
-0.785
-0.785
-0.775
-0.795
-0.81
-0.81
-0.815
-0.8
-0.75
-0.745
-0.745
-0.775
-0.785
-0.78
-0.71
-0.605
-0.4
-0.175
0.025
0.145
0.205
0.205
0.17
0.15
0.195
0.27
0.375
0.485
0.52
0.405
0.085
-0.365
-0.87
-1.32
-1.64
-1.84
-1.955
-2.01
-2.045
-2.09
-2.115
-2.125
-2.12
-2.095
-2.085
-2.08
-2.08
-2.065
-2.065
-2.015
-1.965
-1.865
-1.7
-1.54
-1.385
-1.23
-1.08
-0.97
-0.885
-0.865
-0.885
-0.92
-0.935
-0.955
-0.94
-0.92
-0.87
-0.825
-0.8
-0.815
-0.815
-0.825
-0.825
-0.81
-0.795
-0.815
-0.86
-0.89
-0.905
-0.88
-0.88
-0.885
-0.89
-0.88
-0.85
-0.84
-0.85
-0.915
-0.98
-1.015
-1.045
-1.035
-1.025
-0.995
-1.0
-1.01
-1.035
-1.06
-1.075
-1.09
-1.1
-1.1
-1.105
-1.145
-1.14
-1.125
-1.115
-1.11
-1.1
-1.09
-1.08
-1.085
-1.09
-1.09
-1.09
-1.09
-1.085
-1.095
-1.065
-1.015
-0.995
-0.98
-0.965
-0.945
-0.935
-0.925
-0.905
-0.87
-0.845
-0.82
-0.79
-0.79
-0.785
-0.785
-0.79
-0.78
-0.775
-0.75
-0.73
-0.705
-0.695
-0.725
-0.75
-0.74
-0.73
-0.7
-0.695
-0.685
-0.69
-0.69
-0.68
-0.68
-0.67
-0.67
-0.69
-0.705
-0.695
-0.665
-0.675
-0.68
-0.685
-0.695
-0.67
-0.675
-0.68
-0.69
-0.715
-0.73
-0.76
-0.755
-0.74
-0.745
-0.745
-0.75
-0.75
-0.735
-0.74
-0.74
-0.74
-0.735
-0.72
-0.735
-0.74
-0.76
-0.745
-0.755
-0.755
-0.755
-0.725
-0.705
-0.705
-0.71
-0.735
-0.78
-0.815
-0.805
-0.785
-0.74
-0.725
-0.725
-0.75
-0.745
-0.75
-0.735
-0.74
-0.705
-0.72
-0.745
-0.74
-0.745
-0.755
-0.77
-0.775
-0.775
-0.735
-0.725
-0.68
-0.675
-0.685
-0.69
-0.705
-0.68
-0.65
-0.625
-0.615
-0.605
-0.6
-0.615
-0.6
-0.595
-0.585
-0.54
-0.515
-0.485
-0.485
-0.49
-0.495
-0.505
-0.5
-0.51
-0.525
-0.545
-0.55
-0.58
-0.59
-0.595
-0.565
-0.525
-0.495
-0.485
-0.485
-0.53
-0.575
-0.615
-0.65
-0.695
-0.705
-0.725
-0.72
-0.745
-0.72
-0.73
-0.71
-0.73
-0.74
-0.765
-0.77
-0.77
-0.77
-0.76
-0.75
-0.765
-0.79
-0.805
-0.81
-0.8
-0.79
-0.795
-0.795
-0.805
-0.81
-0.785
-0.78
-0.75
-0.74
-0.725
-0.74
-0.76
-0.805
-0.805
-0.815
-0.805
-0.83
-0.805
-0.795
-0.775
-0.765
-0.76
-0.745
-0.71
-0.67
-0.6
-0.475
-0.335
-0.16
0.02
0.125
0.145
0.125
0.065
0.055
0.125
0.26
0.44
0.59
0.65
0.56
0.295
-0.14
-0.68
-1.195
-1.57
-1.825
-1.93
-1.985
-2.025
-2.05
-2.11
-2.155
-2.15
-2.11
-2.09
-2.07
-2.085
-2.095
-2.095
-2.075
-2.055
-1.985
-1.915
-1.825
-1.67
-1.485
-1.31
-1.17
-1.085
-1.05
-1.0
-0.975
-0.925
-0.895
-0.88
-0.885
-0.88
-0.88
-0.835
-0.78
-0.725
-0.725
-0.78
-0.845
-0.9
-0.9
-0.885
-0.845
-0.805
-0.78
-0.775
-0.805
-0.805
-0.8
-0.805
-0.805
-0.835
-0.86
-0.895
-0.945
-0.97
-0.985
-0.985
-0.975
-0.96
-0.93
-0.935
-0.94
-0.97
-0.99
-1.0
-1.005
-1.03
-1.04
-1.035
-1.065
-1.095
-1.115
-1.125
-1.11
-1.085
-1.095
-1.09
-1.105
-1.1
-1.1
-1.065
-1.03
-0.985
-0.945
-0.955
-1.015
-1.095
-1.145
-1.13
-1.07
-1.01
-0.945
-0.9
-0.875
-0.85
-0.85
-0.825
-0.82
-0.8
-0.8
-0.78
-0.78
-0.76
-0.75
-0.76
-0.785
-0.755
-0.7
-0.67
-0.635
-0.64
-0.665
-0.7
-0.73
-0.715
-0.695
-0.655
-0.625
-0.61
-0.62
-0.655
-0.65
-0.69
-0.69
-0.69
-0.685
-0.67
-0.68
-0.66
-0.66
-0.655
-0.68
-0.69
-0.725
-0.755
-0.765
-0.775
-0.795
-0.79
-0.78
-0.735
-0.69
-0.655
-0.655
-0.69
-0.715
-0.755
-0.8
-0.815
-0.83
-0.815
-0.8
-0.785
-0.76
-0.72
-0.72
-0.705
-0.72
-0.745
-0.755
-0.78
-0.765
-0.76
-0.755
-0.72
-0.705
-0.695
-0.725
-0.775
-0.805
-0.79
-0.775
-0.78
-0.795
-0.795
-0.78
-0.765
-0.735
-0.705
-0.685
-0.695
-0.71
-0.735
-0.77
-0.785
-0.765
-0.755
-0.735
-0.705
-0.685
-0.695
-0.725
-0.71
-0.695
-0.685
-0.675
-0.665
-0.68
-0.705
-0.72
-0.73
-0.69
-0.625
-0.56
-0.51
-0.495
-0.5
-0.48
-0.505
-0.545
-0.58
-0.595
-0.58
-0.56
-0.515
-0.485
-0.5
-0.49
-0.505
-0.515
-0.5
-0.515
-0.525
-0.53
-0.555
-0.565
-0.59
-0.605
-0.645
-0.695
-0.77
-0.795
-0.8
-0.815
-0.795
-0.74
-0.73
-0.76
-0.815
-0.835
-0.835
-0.795
-0.745
-0.745
-0.73
-0.76
-0.805
-0.81
-0.81
-0.81
-0.805
-0.8
-0.805
-0.775
-0.74
-0.735
-0.755
-0.795
-0.825
-0.82
-0.805
-0.785
-0.795
-0.79
-0.775
-0.79
-0.8
-0.795
-0.765
-0.685
-0.515
-0.27
-0.015
0.175
0.265
0.235
0.155
0.07
0.065
0.15
0.29
0.42
0.52
0.51
0.325
-0.055
-0.57
-1.12
-1.585
-1.905
-2.07
-2.085
-2.075
-2.07
-2.105
-2.155
-2.18
-2.17
-2.145
-2.105
-2.08
-2.085
-2.065
-2.08
-2.07
-2.045
-1.99
-1.895
-1.755
-1.58
-1.425
-1.29
-1.17
-1.045
-0.965
-0.91
-0.91
-0.925
-0.94
-0.945
-0.935
-0.89
-0.855
-0.8
-0.785
-0.805
-0.835
-0.895
-0.94
-0.95
-0.925
-0.875
-0.825
-0.83
-0.845
-0.865
-0.89
-0.895
-0.905
-0.915
-0.94
-0.93
-0.96
-1.01
-1.015
-0.985
-0.96
-0.945
-0.97
-1.025
-1.055
-1.09
-1.095
-1.09
-1.09
-1.08
-1.085
-1.08
-1.11
-1.13
-1.145
-1.16
-1.14
-1.12
-1.095
-1.095
-1.125
-1.14
-1.13
-1.135
-1.14
-1.135
-1.13
-1.125
-1.145
-1.115
-1.105
-1.07
-1.04
-1.015
-0.985
-0.985
-0.955
-0.93
-0.925
-0.885
-0.885
-0.88
-0.875
-0.865
-0.84
-0.82
-0.795
-0.795
-0.79
-0.755
-0.725
-0.71
-0.705
-0.715
-0.735
-0.75
-0.765
-0.765
-0.765
-0.75
-0.745
-0.705
-0.705
-0.685
-0.67
-0.68
-0.7
-0.74
-0.745
-0.74
-0.72
-0.715
-0.725
-0.73
-0.75
-0.76
-0.775
-0.775
-0.735
-0.705
-0.675
-0.71
-0.735
-0.765
-0.77
-0.765
-0.76
-0.745
-0.785
-0.81
-0.805
-0.8
-0.765
-0.76
-0.735
-0.72
-0.725
-0.75
-0.765
-0.795
-0.81
-0.8
-0.765
-0.765
-0.775
-0.82
-0.83
-0.82
-0.765
-0.71
-0.68
-0.685
-0.735
-0.76
-0.79
-0.825
-0.825
-0.805
-0.785
-0.77
-0.74
-0.72
-0.735
-0.745
-0.76
-0.78
-0.79
-0.785
-0.78
-0.75
-0.71
-0.665
-0.66
-0.68
-0.745
-0.77
-0.755
-0.715
-0.665
-0.635
-0.635
-0.63
-0.63
-0.605
-0.565
-0.525
-0.51
-0.53
-0.55
-0.605
-0.645
-0.67
-0.68
-0.68
-0.66
-0.59
-0.53
-0.49
-0.485
-0.505
-0.54
-0.575
-0.615
-0.615
-0.62
-0.635
-0.665
-0.71
-0.75
-0.77
-0.76
-0.76
-0.72
-0.72
-0.745
-0.795
-0.845
-0.835
-0.845
-0.835
-0.805
-0.785
-0.785
-0.785
-0.805
-0.825
-0.84
-0.85
-0.85
-0.85
-0.85
-0.83
-0.835
-0.815
-0.775
-0.745
-0.755
-0.785
-0.835
-0.83
-0.865
-0.865
-0.86
-0.81
-0.79
-0.77
-0.78
-0.785
-0.79
-0.78
-0.725
-0.625
-0.465
-0.29
-0.105
0.04
0.135
0.17
0.13
0.12
0.13
0.24
0.385
0.545
0.585
0.49
0.195
-0.245
-0.745
-1.215
-1.57
-1.8
-1.92
-1.96
-2.005
-2.05
-2.09
-2.105
-2.13
-2.115
-2.125
-2.135
-2.14
-2.12
-2.095
-2.035
-2.015
-1.975
-1.93
-1.855
-1.715
-1.55
-1.385
-1.225
-1.125
-1.055
-1.025
-0.98
-0.94
-0.915
-0.89
-0.87
-0.875
-0.895
-0.895
-0.88
-0.855
-0.84
-0.82
-0.83
-0.86
-0.89
-0.905
-0.88
-0.86
-0.86
-0.875
-0.88
-0.86
-0.84
-0.84
-0.845
-0.89
-0.94
-1.0
-1.025
-1.045
-1.025
-1.005
-0.955
-0.955
-0.955
-0.98
-1.025
-1.08
-1.12
-1.12
-1.085
-1.055
-1.07
-1.1
-1.11
-1.155
-1.14
-1.135
-1.115
-1.135
-1.11
-1.105
-1.115
-1.1
-1.075
-1.035
-1.015
-1.02
-1.025
-1.075
-1.1
-1.135
-1.12
-1.095
-1.02
-0.945
-0.89
-0.855
-0.835
-0.82
-0.815
-0.825
-0.86
-0.865
-0.86
-0.85
-0.8
-0.745
-0.685
-0.68
-0.685
-0.695
-0.71
-0.705
-0.715
-0.735
-0.74
-0.735
-0.735
-0.72
-0.735
-0.725
-0.685
-0.67
-0.655
-0.665
-0.695
-0.71
-0.745
-0.76
-0.77
-0.77
-0.765
-0.755
-0.71
-0.68
-0.635
-0.63
-0.66
-0.69
-0.71
-0.75
-0.76
-0.78
-0.795
-0.795
-0.77
-0.755
-0.73
-0.72
-0.73
-0.75
-0.78
-0.82
-0.82
-0.82
-0.785
-0.76
-0.74
-0.735
-0.78
-0.8
-0.805
-0.76
-0.725
-0.695
-0.695
-0.72
-0.77
-0.83
-0.845
-0.835
-0.8
-0.745
-0.71
-0.7
-0.72
-0.75
-0.78
-0.8
-0.795
-0.79
-0.765
-0.765
-0.76
-0.755
-0.75
-0.735
-0.725
-0.74
-0.745
-0.705
-0.69
-0.655
-0.625
-0.63
-0.64
-0.655
-0.645
-0.59
-0.51
-0.445
-0.44
-0.45
-0.5
-0.54
-0.57
-0.595
-0.615
-0.63
-0.65
-0.65
-0.615
-0.555
-0.49
-0.445
-0.415
-0.43
-0.49
-0.57
-0.695
-0.785
-0.805
-0.8
-0.75
-0.705
-0.7
-0.715
-0.77
-0.81
-0.82
-0.84
-0.805
-0.79
-0.78
-0.785
-0.8
-0.82
-0.815
-0.8
-0.8
-0.8
-0.815
-0.835
-0.845
-0.835
-0.82
-0.805
-0.78
-0.8
-0.805
-0.825
-0.825
-0.8
-0.79
-0.805
-0.825
-0.835
-0.85
-0.855
-0.855
-0.85
-0.82
-0.75
-0.655
-0.5
-0.31
-0.135
0.02
0.115
0.12
0.06
0.005
0.03
0.15
0.335
0.52
0.59
0.475
0.12
-0.385
-0.96
-1.44
-1.76
-1.915
-1.98
-2.005
-2.03
-2.075
-2.125
-2.17
-2.205
-2.22
-2.175
-2.15
-2.125
-2.12
-2.115
-2.095
-2.045
-1.98
-1.895
-1.78
-1.635
-1.47
-1.305
-1.18
-1.09
-1.025
-0.98
-0.945
-0.93
-0.925
-0.9
-0.86
-0.835
-0.82
-0.825
-0.865
-0.92
-0.925
-0.925
-0.88
-0.83
-0.8
-0.8
-0.81
-0.845
-0.855
-0.855
-0.87
-0.915
-0.905
-0.93
-0.94
-0.93
-0.9
-0.875
-0.86
-0.915
-0.965
-0.985
-1.0
-1.01
-0.98
-0.985
-1.015
-1.085
-1.135
-1.125
-1.09
-1.03
-0.99
-0.98
-1.03
-1.08
-1.125
-1.19
-1.19
-1.18
-1.135
-1.09
-1.05
-1.055
-1.055
-1.085
-1.11
-1.115
-1.1
-1.1
-1.075
-1.04
-1.025
-1.01
-0.97
-0.955
-0.935
-0.93
-0.94
-0.945
-0.905
-0.865
-0.795
-0.77
-0.74
-0.725
-0.705
-0.715
-0.735
-0.76
-0.785
-0.77
-0.755
-0.73
-0.72
-0.705
-0.685
-0.655
-0.645
-0.665
-0.7
-0.715
-0.745
-0.745
-0.72
-0.695
-0.675
-0.675
-0.69
-0.7
-0.73
-0.72
-0.72
-0.73
-0.725
-0.74
-0.765
-0.785
-0.79
-0.76
-0.71
-0.66
-0.64
-0.69
-0.76
-0.8
-0.805
-0.78
-0.73
-0.745
-0.77
-0.815
-0.84
-0.85
-0.85
-0.835
-0.785
-0.765
-0.745
-0.755
-0.765
-0.785
-0.79
-0.805
-0.805
-0.8
-0.815
-0.83
-0.825
-0.825
-0.815
-0.795
-0.78
-0.775
-0.78
-0.76
-0.75
-0.77
-0.735
-0.75
-0.765
-0.765
-0.76
-0.77
-0.795
-0.835
-0.82
-0.79
-0.755
-0.72
-0.705
-0.73
-0.765
-0.78
-0.76
-0.745
-0.735
-0.735
-0.73
-0.73
-0.7
-0.655
-0.61
-0.6
-0.61
-0.61
-0.645
-0.63
-0.62
-0.57
-0.535
-0.495
-0.48
-0.49
-0.495
-0.52
-0.585
-0.675
-0.745
-0.72
-0.665
-0.585
-0.555
-0.51
-0.485
-0.51
-0.5
-0.535
-0.575
-0.65
-0.72
-0.745
-0.76
-0.76
-0.755
-0.735
-0.73
-0.735
-0.78
-0.795
-0.835
-0.875
-0.875
-0.865
-0.85
-0.845
-0.835
-0.82
-0.82
-0.825
-0.825
-0.815
-0.76
-0.745
-0.79
-0.845
-0.895
-0.925
-0.895
-0.88
-0.825
-0.77
-0.75
-0.78
-0.795
-0.85
-0.875
-0.88
-0.86
-0.855
-0.84
-0.835
-0.86
-0.855
-0.81
-0.74
-0.595
-0.425
-0.185
0.005
0.155
0.185
0.13
0.005
-0.05
-0.005
0.155
0.34
0.475
0.495
0.365
0.0
-0.525
-1.09
-1.58
-1.9
-2.08
-2.13
-2.105
-2.075
-2.095
-2.145
-2.215
-2.27
-2.265
-2.245
-2.195
-2.15
-2.14
-2.115
-2.07
-2.045
-1.965
-1.895
-1.79
-1.655
-1.49
-1.325
-1.17
-1.06
-0.99
-0.95
-0.935
-0.925
-0.93
-0.93
-0.93
-0.93
-0.94
-0.945
-0.95
-0.96
-0.965
-0.94
-0.885
-0.845
-0.855
-0.875
-0.895
-0.905
-0.93
-0.96
-0.985
-0.985
-0.975
-0.965
-0.955
-0.99
-1.005
-1.015
-1.025
-1.04
-1.04
-1.06
-1.09
-1.11
-1.13
-1.165
-1.175
-1.17
-1.15
-1.15
-1.14
-1.155
-1.17
-1.2
-1.215
-1.21
-1.2
-1.175
-1.125
-1.115
-1.14
-1.16
-1.195
-1.18
-1.14
-1.115
-1.115
-1.105
-1.1
-1.105
-1.07
-1.035
-1.02
-1.01
-1.01
-0.995
-0.945
-0.91
-0.88
-0.855
-0.87
-0.87
-0.855
-0.845
-0.845
-0.83
-0.8
-0.81
-0.79
-0.77
-0.75
-0.765
-0.785
-0.82
-0.805
-0.785
-0.765
-0.75
-0.725
-0.715
-0.73
-0.755
-0.785
-0.785
-0.775
-0.745
-0.74
-0.745
-0.78
-0.795
-0.795
-0.78
-0.76
-0.76
-0.78
-0.78
-0.775
-0.765
-0.755
-0.765
-0.8
-0.825
-0.82
-0.79
-0.79
-0.79
-0.8
-0.815
-0.825
-0.835
-0.815
-0.8
-0.795
-0.77
