Lead II
0.385
0.4
0.43
0.43
0.44
0.455
0.45
0.48
0.49
0.515
0.55
0.585
0.625
0.635
0.655
0.655
0.675
0.68
0.685
0.715
0.735
0.765
0.8
0.825
0.825
0.82
0.815
0.83
0.83
0.82
0.82
0.82
0.805
0.81
0.805
0.79
0.765
0.745
0.73
0.69
0.66
0.63
0.585
0.545
0.52
0.505
0.49
0.465
0.425
0.39
0.335
0.285
0.235
0.195
0.17
0.165
0.165
0.175
0.17
0.155
0.12
0.07
0.03
0.005
0.005
-0.005
-0.01
-0.03
-0.035
-0.055
-0.05
-0.04
-0.035
-0.05
-0.07
-0.085
-0.095
-0.09
-0.095
-0.07
-0.07
-0.06
-0.065
-0.045
-0.06
-0.05
-0.05
-0.07
-0.075
-0.09
-0.09
-0.1
-0.09
-0.095
-0.095
-0.095
-0.105
-0.08
-0.07
-0.07
-0.07
-0.075
-0.085
-0.11
-0.11
-0.095
-0.085
-0.065
-0.07
-0.07
-0.08
-0.085
-0.09
-0.105
-0.13
-0.125
-0.125
-0.115
-0.1
-0.085
-0.095
-0.105
-0.095
-0.11
-0.115
-0.135
-0.135
-0.12
-0.12
-0.125
-0.115
-0.105
-0.1
-0.1
-0.115
-0.13
-0.145
-0.135
-0.14
-0.15
-0.145
-0.14
-0.14
-0.13
-0.15
-0.15
-0.13
-0.125
-0.115
-0.115
-0.12
-0.14
-0.145
-0.165
-0.15
-0.13
-0.11
-0.09
-0.08
-0.07
-0.06
-0.04
-0.02
0.015
0.05
0.055
0.055
0.06
0.025
0.035
0.05
0.085
0.12
0.155
0.17
0.155
0.135
0.12
0.115
0.12
0.13
0.145
0.145
0.13
0.09
0.06
0.04
0.01
0.005
-0.025
-0.04
-0.055
-0.07
-0.085
-0.095
-0.115
-0.14
-0.175
-0.2
-0.21
-0.215
-0.195
-0.18
-0.165
-0.155
-0.145
-0.145
-0.16
-0.16
-0.165
-0.19
-0.215
-0.235
-0.22
-0.16
-0.055
0.095
0.27
0.475
0.66
0.83
0.98
1.13
1.27
1.385
1.465
1.465
1.42
1.315
1.125
0.875
0.585
0.315
0.135
0.015
-0.04
-0.095
-0.15
-0.2
-0.255
-0.295
-0.315
-0.335
-0.36
-0.375
-0.37
-0.395
-0.41
-0.425
-0.415
-0.425
-0.42
-0.425
-0.445
-0.47
-0.475
-0.495
-0.5
-0.51
-0.51
-0.515
-0.515
-0.505
-0.51
-0.495
-0.5
-0.5
-0.49
-0.49
-0.495
-0.525
-0.525
-0.545
-0.56
-0.565
-0.56
-0.575
-0.57
-0.585
-0.595
-0.58
-0.585
-0.585
-0.585
-0.605
-0.615
-0.625
-0.655
-0.7
-0.735
-0.78
-0.805
-0.81
-0.81
-0.805
-0.83
-0.84
-0.82
-0.82
-0.83
-0.865
-0.875
-0.9
-0.91
-0.935
-0.955
-0.985
-0.985
-1.0
-0.985
-0.965
-0.92
-0.9
-0.86
-0.84
-0.81
-0.81
-0.835
-0.835
-0.82
-0.78
-0.73
-0.7
-0.66
-0.635
-0.61
-0.575
-0.545
-0.515
-0.485
-0.475
-0.465
-0.45
-0.44
-0.425
-0.4
-0.37
-0.34
-0.335
-0.33
-0.335
-0.33
-0.33
-0.345
-0.37
-0.375
-0.385
-0.375
-0.365
-0.345
-0.335
-0.335
-0.335
-0.35
-0.35
-0.345
-0.35
-0.34
-0.34
-0.345
-0.34
-0.325
-0.32
-0.33
-0.315
-0.32
-0.325
-0.315
-0.3
-0.28
-0.245
-0.205
-0.19
-0.18
-0.185
-0.18
-0.16
-0.14
-0.095
-0.035
0.04
0.13
0.23
0.325
0.405
0.475
0.545
0.6
0.665
0.725
0.815
0.885
0.965
1.03
1.095
1.135
1.15
1.145
1.105
0.98
0.765
0.445
0.03
-0.45
-0.935
-1.37
-1.71
-1.915
-1.98
-1.935
-1.825
-1.68
-1.555
-1.44
-1.37
-1.31
-1.235
-1.16
-1.035
-0.895
-0.755
-0.645
-0.595
-0.58
-0.6
-0.615
-0.645
-0.63
-0.59
-0.555
-0.53
-0.505
-0.505
-0.535
-0.54
-0.56
-0.57
-0.57
-0.575
-0.57
-0.56
-0.56
-0.565
-0.565
-0.58
-0.585
-0.585
-0.58
-0.57
-0.585
-0.605
-0.58
-0.595
-0.605
-0.6
-0.57
-0.56
-0.55
-0.545
-0.56
-0.585
-0.615
-0.615
-0.605
-0.58
-0.57
-0.555
-0.55
-0.555
-0.55
-0.545
-0.545
-0.525
-0.5
-0.485
-0.455
-0.425
-0.42
-0.42
-0.425
-0.42
-0.405
-0.365
-0.345
-0.335
-0.335
-0.335
-0.32
-0.325
-0.33
-0.34
-0.365
-0.395
-0.42
-0.435
-0.445
-0.445
-0.455
-0.46
-0.47
-0.48
-0.5
-0.5
-0.51
-0.515
-0.525
-0.515
-0.51
-0.51
-0.5
-0.52
-0.53
-0.565
-0.58
-0.58
-0.575
-0.57
-0.575
-0.56
-0.565
-0.575
-0.585
-0.585
-0.585
-0.58
-0.56
-0.545
-0.535
-0.525
-0.53
-0.52
-0.52
-0.52
-0.545
-0.57
-0.585
-0.585
-0.58
-0.56
-0.555
-0.55
-0.56
-0.565
-0.585
-0.59
-0.6
-0.585
-0.575
-0.545
-0.54
-0.515
-0.52
-0.53
-0.545
-0.555
-0.565
-0.575
-0.57
-0.58
-0.595
-0.61
-0.595
-0.605
-0.6
-0.6
-0.585
-0.56
-0.545
-0.525
-0.515
-0.53
-0.565
-0.575
-0.585
-0.575
-0.53
-0.495
-0.45
-0.425
-0.41
-0.41
-0.435
-0.455
-0.445
-0.41
-0.35
-0.315
-0.275
-0.27
-0.28
-0.295
-0.31
-0.315
-0.305
-0.3
-0.3
-0.315
-0.325
-0.35
-0.385
-0.415
-0.45
-0.465
-0.5
-0.525
-0.57
-0.6
-0.6
-0.605
-0.615
-0.63
-0.635
-0.635
-0.615
-0.6
-0.595
-0.6
-0.61
-0.615
-0.61
-0.59
-0.58
-0.585
-0.585
-0.58
-0.545
-0.475
-0.33
-0.15
0.06
0.255
0.44
0.63
0.805
0.95
1.075
1.145
1.14
1.09
0.965
0.765
0.47
0.12
-0.18
-0.41
-0.54
-0.605
-0.615
-0.63
-0.675
-0.705
-0.745
-0.79
-0.82
-0.84
-0.835
-0.83
-0.82
-0.81
-0.82
-0.815
-0.82
-0.825
-0.845
-0.87
-0.895
-0.93
-0.925
-0.915
-0.89
-0.87
-0.85
-0.86
-0.865
-0.9
-0.915
-0.925
-0.915
-0.915
-0.925
-0.935
-0.96
-0.97
-0.97
-0.96
-0.955
-0.95
-0.955
-0.98
-1.005
-1.015
-1.015
-1.015
-1.02
-1.05
-1.065
-1.075
-1.075
-1.075
-1.08
-1.105
-1.12
-1.155
-1.205
-1.23
-1.26
-1.28
-1.295
-1.295
-1.3
-1.29
-1.28
-1.275
-1.28
-1.29
-1.3
-1.305
-1.265
-1.255
-1.215
-1.2
-1.18
-1.155
-1.125
-1.115
-1.085
-1.065
-1.035
-0.99
-0.94
-0.895
-0.855
-0.82
-0.79
-0.745
-0.745
-0.775
-0.79
-0.805
-0.81
-0.81
-0.8
-0.785
-0.78
-0.78
-0.77
-0.78
-0.785
-0.785
-0.785
-0.78
-0.775
-0.76
-0.75
-0.745
-0.745
-0.725
-0.695
-0.68
-0.695
-0.725
-0.755
-0.79
-0.785
-0.78
-0.755
-0.73
-0.71
-0.72
-0.735
-0.74
-0.725
-0.72
-0.725
-0.74
-0.75
-0.745
-0.71
-0.68
-0.665
-0.655
-0.66
-0.68
-0.69
-0.695
-0.71
-0.68
-0.66
-0.615
-0.57
-0.535
-0.5
-0.5
-0.51
-0.51
-0.535
-0.525
-0.52
-0.505
-0.5
-0.505
-0.55
-0.59
-0.635
-0.685
-0.715
-0.735
-0.745
-0.76
-0.795
-0.81
-0.84
-0.845
-0.835
-0.81
-0.81
-0.8
-0.81
-0.82
-0.825
-0.85
-0.87
-0.885
-0.875
-0.855
-0.805
-0.76
-0.715
-0.7
-0.695
-0.66
-0.565
-0.405
-0.205
0.03
0.27
0.485
0.685
0.855
0.97
1.04
1.03
0.985
0.87
0.715
0.475
0.16
-0.185
-0.53
-0.78
-0.94
-0.99
-0.97
-0.92
-0.885
-0.865
-0.915
-0.99
-1.03
-1.05
-1.03
-1.015
-0.99
-0.99
-1.025
-1.035
-1.07
-1.085
-1.085
-1.09
-1.075
-1.06
-1.07
-1.08
-1.075
-1.085
-1.085
-1.07
-1.07
-1.09
-1.11
-1.125
-1.125
-1.115
-1.1
-1.07
-1.065
-1.065
-1.095
-1.11
-1.12
-1.13
-1.155
-1.17
-1.19
-1.175
-1.17
-1.165
-1.175
-1.2
-1.22
-1.225
-1.215
-1.2
-1.18
-1.19
-1.23
-1.26
-1.315
-1.335
-1.33
-1.295
-1.285
-1.265
-1.275
-1.33
-1.39
-1.43
-1.44
-1.435
-1.42
-1.39
-1.36
-1.355
-1.35
-1.35
-1.33
-1.28
-1.235
-1.19
-1.13
-1.095
-1.075
-1.105
-1.145
-1.155
-1.155
-1.115
-1.06
-1.025
-0.995
-0.975
-0.985
-0.985
-0.98
-0.975
-0.945
-0.94
-0.935
-0.955
-0.99
-0.985
-0.98
-0.96
-0.95
-0.93
-0.885
-0.825
-0.75
-0.69
-0.625
-0.57
-0.5
-0.44
-0.345
-0.215
-0.09
0.01
0.02
-0.045
-0.23
-0.52
-0.89
-1.285
-1.655
-1.985
-2.25
-2.475
-2.65
-2.785
-2.885
-2.96
-2.975
-2.985
-2.955
-2.93
-2.88
-2.825
-2.735
-2.625
-2.485
-2.345
-2.235
-2.16
-2.11
-2.055
-1.975
-1.885
-1.755
-1.645
-1.555
-1.47
-1.42
-1.385
-1.375
-1.36
-1.325
-1.26
-1.16
-1.08
-0.99
-0.905
-0.83
-0.77
-0.725
-0.69
-0.68
-0.66
-0.675
-0.705
-0.7
-0.685
-0.655
-0.615
-0.57
-0.555
-0.555
-0.545
-0.54
-0.51
-0.505
-0.47
-0.45
-0.44
-0.425
-0.425
-0.41
-0.425
-0.425
-0.42
-0.395
-0.345
-0.29
-0.26
-0.215
-0.205
-0.19
-0.19
-0.17
-0.155
-0.155
-0.14
-0.13
-0.1
-0.085
-0.045
-0.035
-0.03
-0.025
-0.01
-0.015
-0.01
-0.035
-0.065
-0.1
-0.115
-0.135
-0.145
-0.14
-0.155
-0.175
-0.21
-0.265
-0.32
-0.38
-0.41
-0.45
-0.485
-0.51
-0.54
-0.565
-0.575
-0.615
-0.645
-0.715
-0.785
-0.845
-0.88
-0.89
-0.9
-0.895
-0.89
-0.885
-0.89
-0.905
-0.94
-0.95
-0.975
-0.985
-0.99
-1.005
-1.0
-1.0
-0.985
-0.975
-0.99
-0.975
-0.98
-0.975
-0.97
-0.99
-0.99
-0.99
-0.98
-0.955
-0.94
-0.935
-0.945
-0.97
-1.0
-1.005
-1.045
-1.07
-1.06
-1.05
-1.02
-1.01
-1.0
-1.01
-1.02
-1.02
-1.02
-1.01
-1.0
-1.02
-1.03
-1.05
-1.035
-1.03
-1.02
-1.005
-1.015
-1.0
-1.005
-1.01
-1.015
-1.025
-1.02
-1.025
-1.035
-1.025
-1.02
-1.005
-1.005
-1.0
-1.015
-1.035
-1.04
-1.045
-1.045
-1.04
-1.025
-1.025
-1.025
-1.04
-1.04
-1.035
-1.04
-1.01
-1.01
-1.005
-1.04
-1.065
-1.07
-1.095
-1.075
-1.035
-1.005
-0.975
-0.965
-0.99
-1.0
-1.025
-1.04
-1.04
-1.035
-1.015
-0.98
-0.955
-0.92
-0.89
-0.885
-0.9
-0.92
-0.92
-0.92
-0.885
-0.83
-0.775
-0.71
-0.685
-0.71
-0.745
-0.795
-0.83
-0.85
-0.83
-0.82
-0.79
-0.795
-0.785
-0.775
-0.79
-0.815
-0.875
-0.93
-0.99
-1.035
-1.045
-1.055
-1.045
-1.035
-1.035
-1.03
-1.03
-1.035
-1.04
-1.025
-1.02
-1.02
-1.015
-1.035
-1.065
-1.09
-1.09
-1.06
-1.0
-0.93
-0.81
-0.655
-0.46
-0.255
-0.035
0.17
0.38
0.585
0.76
0.9
0.975
0.97
0.9
0.73
0.465
0.125
-0.23
-0.56
-0.805
-0.955
-1.03
-1.025
-1.01
-1.005
-1.005
-1.04
-1.09
-1.115
-1.145
-1.16
-1.16
-1.165
-1.19
-1.2
-1.22
-1.23
-1.22
-1.205
-1.205
-1.205
-1.22
-1.22
-1.215
-1.23
-1.235
-1.23
-1.225
-1.23
-1.23
-1.225
-1.22
-1.205
-1.195
-1.19
-1.205
-1.225
-1.255
-1.28
-1.28
-1.265
-1.26
-1.245
-1.255
-1.265
-1.275
-1.3
-1.31
-1.325
-1.345
-1.36
-1.37
-1.39
-1.39
-1.4
-1.41
-1.41
-1.425
-1.425
-1.435
-1.435
-1.45
-1.455
-1.46
-1.475
-1.485
-1.51
-1.535
-1.555
-1.575
-1.59
-1.575
-1.55
-1.55
-1.525
-1.52
-1.52
-1.505
-1.515
-1.505
-1.5
-1.465
-1.44
-1.4
-1.37
-1.35
-1.33
-1.305
-1.27
-1.225
-1.18
-1.15
-1.13
-1.115
-1.105
-1.08
-1.065
-1.04
-1.01
-0.995
-0.995
-0.99
-0.98
-0.985
-0.96
-0.97
-0.975
-0.995
-1.015
-1.025
-1.02
-1.005
-0.995
-0.965
-0.965
-0.96
-0.965
-0.97
-0.95
-0.94
-0.925
-0.92
-0.925
-0.92
-0.95
-0.935
-0.95
-0.945
-0.965
-0.985
-0.98
-0.965
-0.915
-0.875
-0.82
-0.785
-0.755
-0.73
-0.715
-0.725
-0.72
-0.705
-0.675
-0.59
-0.51
-0.44
-0.365
-0.29
-0.24
-0.18
-0.12
-0.04
0.03
0.105
0.185
0.27
0.37
0.465
0.56
0.65
0.7
0.77
0.805
0.835
0.845
0.825
0.765
0.62
0.38
0.02
-0.41
-0.88
-1.33
-1.685
-1.945
-2.1
-2.145
-2.115
-2.02
-1.935
-1.865
-1.82
-1.795
-1.745
-1.685
-1.6
-1.525
-1.425
-1.335
-1.235
-1.16
-1.105
-1.075
-1.07
-1.055
-1.06
-1.06
-1.07
-1.08
-1.105
-1.13
-1.135
-1.13
-1.11
-1.07
-1.07
-1.04
-1.05
-1.06
-1.06
-1.06
-1.055
-1.06
-1.07
-1.085
-1.085
-1.06
-1.04
-1.035
-1.025
-1.035
-1.045
-1.065
-1.075
-1.08
-1.085
-1.075
-1.065
-1.045
-1.025
-1.015
-0.99
-0.99
-1.005
-1.02
-1.035
-1.035
-1.02
-1.0
-0.995
-0.97
-0.945
-0.915
-0.91
-0.9
-0.88
-0.88
-0.875
-0.855
-0.855
-0.82
-0.8
-0.785
-0.775
-0.76
-0.745
-0.755
-0.745
-0.755
-0.785
-0.815
-0.84
-0.87
-0.855
-0.835
-0.82
-0.83
-0.845
-0.875
-0.915
-0.925
-0.935
-0.92
-0.9
-0.885
-0.9
-0.92
-0.915
-0.905
-0.905
-0.89
-0.875
-0.88
-0.895
-0.925
-0.935
-0.925
-0.895
-0.88
-0.86
-0.86
-0.845
-0.87
-0.875
-0.885
-0.905
-0.92
-0.93
-0.91
-0.89
-0.875
-0.855
-0.84
-0.84
-0.84
-0.84
-0.845
-0.85
-0.855
-0.87
-0.865
-0.86
-0.84
-0.825
-0.805
-0.785
-0.775
-0.765
-0.8
-0.805
-0.84
-0.865
-0.89
-0.89
-0.88
-0.825
-0.805
-0.8
-0.815
-0.83
-0.845
-0.85
-0.845
-0.82
-0.81
-0.795
-0.765
-0.735
-0.695
-0.685
-0.685
-0.685
-0.7
-0.695
-0.69
-0.665
-0.63
-0.59
-0.56
-0.545
-0.525
-0.51
-0.51
-0.515
-0.55
-0.565
-0.575
-0.585
-0.575
-0.56
-0.525
-0.52
-0.53
-0.54
-0.555
-0.575
-0.595
-0.625
-0.67
-0.695
-0.735
-0.76
-0.77
-0.78
-0.78
-0.79
-0.795
-0.795
-0.805
-0.815
-0.815
-0.82
-0.8
-0.78
-0.755
-0.76
-0.745
-0.755
-0.77
-0.775
-0.775
-0.735
-0.675
-0.545
-0.37
-0.145
0.1
0.34
0.555
0.75
0.935
1.095
1.21
1.27
1.255
1.165
0.99
0.75
0.47
0.15
-0.15
-0.385
-0.545
-0.635
-0.695
-0.72
-0.735
-0.77
-0.785
-0.83
-0.84
-0.89
-0.895
-0.905
-0.915
-0.91
-0.91
-0.895
-0.91
-0.92
-0.91
-0.935
-0.93
-0.925
-0.91
-0.93
-0.91
-0.935
-0.94
-0.965
-0.995
-1.0
-0.99
-0.995
-0.975
-0.96
-0.945
-0.94
-0.935
-0.93
-0.95
-0.975
-0.985
-1.005
-1.0
-0.99
-0.96
-0.94
-0.905
-0.905
-0.93
-0.965
-1.015
-1.04
-1.045
-1.06
-1.065
-1.065
-1.07
-1.075
-1.09
-1.1
-1.105
-1.115
-1.15
-1.15
-1.16
-1.17
-1.17
-1.165
-1.17
-1.175
-1.18
-1.18
-1.195
-1.2
-1.205
-1.205
-1.2
-1.18
-1.155
-1.14
-1.13
-1.12
-1.11
-1.1
-1.08
-1.045
-1.0
-0.98
-0.955
-0.935
-0.925
-0.92
-0.895
-0.87
-0.82
-0.775
-0.755
-0.745
-0.765
-0.79
-0.8
-0.795
-0.76
-0.735
-0.7
-0.69
-0.69
-0.695
-0.72
-0.715
-0.71
-0.71
-0.71
-0.725
-0.705
-0.7
-0.69
-0.675
-0.68
-0.665
-0.66
-0.635
-0.635
-0.655
-0.68
-0.695
-0.69
-0.685
-0.69
-0.69
-0.675
-0.675
-0.68
-0.67
-0.66
-0.65
-0.63
-0.615
-0.6
-0.575
-0.56
-0.545
-0.525
-0.52
-0.51
-0.48
-0.455
-0.425
-0.385
-0.375
-0.37
-0.395
-0.405
-0.42
-0.405
-0.395
-0.39
-0.395
-0.42
-0.44
-0.49
-0.515
-0.525
-0.55
-0.56
-0.575
-0.585
-0.595
-0.62
-0.635
-0.655
-0.66
-0.65
-0.64
-0.625
-0.635
-0.64
-0.66
-0.655
-0.63
-0.61
-0.575
-0.57
-0.57
-0.585
-0.62
-0.625
-0.605
-0.515
-0.35
-0.145
0.08
0.325
0.55
0.745
0.92
1.09
1.23
1.33
1.35
1.32
1.22
1.05
0.8
0.495
0.18
-0.12
-0.345
-0.47
-0.535
-0.555
-0.545
-0.55
-0.585
-0.625
-0.67
-0.715
-0.725
-0.735
-0.72
-0.735
-0.72
-0.725
-0.72
-0.74
-0.75
-0.75
-0.735
-0.715
-0.72
-0.705
-0.725
-0.735
-0.735
-0.735
-0.735
-0.725
-0.715
-0.715
-0.725
-0.73
-0.735
-0.76
-0.77
-0.77
-0.765
-0.75
-0.745
-0.74
-0.745
-0.75
-0.765
-0.775
-0.765
-0.79
-0.82
-0.825
-0.845
-0.825
-0.83
-0.81
-0.81
-0.8
-0.805
-0.82
-0.845
-0.885
-0.9
-0.915
-0.925
-0.915
-0.905
-0.9
-0.905
-0.89
-0.89
-0.88
-0.86
-0.845
-0.815
-0.84
-0.845
-0.83
-0.81
-0.785
-0.755
-0.73
-0.695
-0.68
-0.65
-0.64
-0.61
-0.58
-0.555
-0.535
-0.55
-0.545
-0.56
-0.545
-0.53
-0.515
-0.51
-0.495
-0.495
-0.51
-0.52
-0.52
-0.53
-0.515
-0.495
-0.46
-0.425
-0.415
-0.39
-0.385
-0.375
-0.35
-0.3
-0.23
-0.16
-0.095
-0.035
0.025
0.1
0.175
0.29
0.41
0.5
0.535
0.485
0.345
0.1
-0.235
-0.625
-1.015
-1.355
-1.615
-1.795
-1.915
-2.025
-2.11
-2.175
-2.23
-2.26
-2.265
-2.245
-2.205
-2.14
-2.075
-1.99
-1.875
-1.775
-1.665
-1.565
-1.48
-1.44
-1.39
-1.345
-1.29
-1.18
-1.07
-0.97
-0.905
-0.88
-0.85
-0.835
-0.79
-0.75
-0.68
-0.595
-0.495
-0.395
-0.27
-0.155
-0.08
-0.02
-0.02
-0.06
-0.08
-0.085
-0.075
-0.04
-0.01
0.02
0.045
0.04
0.045
0.05
0.05
0.06
0.075
0.11
0.135
0.165
0.19
0.22
0.24
0.25
0.25
0.265
0.295
0.305
0.335
0.36
0.395
0.42
0.46
0.505
0.51
0.535
0.525
0.545
0.565
0.59
0.63
0.67
0.68
0.685
0.69
0.685
0.675
0.66
0.645
0.64
0.61
0.585
0.54
0.525
0.5
0.48
0.46
0.415
0.375
0.325
0.285
0.25
0.21
0.185
0.16
0.14
0.14
0.105
0.065
0.015
-0.045
-0.095
-0.135
-0.145
-0.15
-0.165
-0.16
-0.165
-0.18
-0.19
-0.195
-0.195
-0.205
-0.21
-0.23
-0.25
-0.265
-0.27
-0.265
-0.27
-0.25
-0.23
-0.22
-0.2
-0.195
-0.19
-0.195
-0.22
-0.25
-0.255
-0.26
-0.245
-0.225
-0.22
-0.22
-0.205
-0.205
-0.195
-0.19
-0.195
-0.205
-0.23
-0.245
-0.265
-0.26
-0.26
-0.23
-0.22
-0.2
-0.21
-0.205
-0.22
-0.235
-0.245
-0.27
-0.25
-0.24
-0.23
-0.21
-0.21
-0.225
-0.23
-0.24
-0.245
-0.245
-0.245
-0.235
-0.23
-0.235
-0.205
-0.2
-0.185
-0.17
-0.17
-0.165
-0.155
-0.165
-0.18
-0.195
-0.205
-0.2
-0.195
-0.175
-0.165
-0.16
-0.165
-0.175
-0.19
-0.18
-0.165
-0.15
-0.15
-0.15
-0.175
-0.18
-0.185
-0.16
-0.14
-0.125
-0.105
-0.08
-0.065
-0.035
-0.03
-0.015
0.01
0.03
0.06
0.09
0.115
0.155
0.17
0.165
0.15
0.145
0.125
0.14
0.155
0.19
0.185
0.175
0.16
0.125
0.09
0.075
0.04
0.01
-0.03
-0.07
-0.095
-0.11
-0.105
-0.115
-0.115
-0.125
-0.145
-0.135
-0.145
-0.14
-0.13
-0.105
-0.095
-0.08
-0.075
-0.065
-0.075
-0.07
-0.06
-0.025
0.04
0.155
0.325
0.52
0.74
0.955
1.16
1.355
1.54
1.705
1.805
1.845
1.825
1.73
1.57
1.365
1.095
0.8
0.535
0.325
0.18
0.09
0.075
0.05
0.035
0.005
-0.06
-0.105
-0.14
-0.175
-0.175
-0.165
-0.155
-0.155
-0.16
-0.18
-0.195
-0.205
-0.21
-0.2
-0.205
-0.19
-0.19
-0.205
-0.205
-0.2
-0.21
-0.215
-0.215
-0.205
-0.19
-0.195
-0.2
-0.2
-0.215
-0.2
-0.18
-0.2
-0.205
-0.215
-0.235
-0.23
-0.23
-0.235
-0.235
-0.215
-0.23
-0.23
-0.235
-0.24
-0.255
-0.255
-0.275
-0.285
-0.305
-0.33
-0.345
-0.36
-0.36
-0.375
-0.37
-0.385
-0.4
-0.415
-0.445
-0.475
-0.495
-0.5
-0.51
-0.51
-0.51
-0.505
-0.515
-0.515
-0.525
-0.545
-0.555
-0.56
-0.56
-0.545
-0.53
-0.495
-0.465
-0.445
-0.425
-0.405
-0.365
-0.35
-0.31
-0.28
-0.255
-0.23
-0.205
-0.19
-0.15
-0.13
-0.1
-0.085
-0.07
-0.07
-0.055
-0.035
-0.02
-0.005
0.01
0.025
0.055
0.065
0.1
0.115
0.135
0.17
0.205
0.25
0.295
0.36
0.425
0.48
0.56
0.62
0.685
0.75
0.77
0.72
0.585
0.355
-0.015
-0.41
-0.81
-1.18
-1.48
-1.715
-1.89
-1.985
-2.04
-2.095
-2.13
-2.155
-2.175
-2.165
-2.12
-2.05
-1.98
-1.92
-1.84
-1.77
-1.68
-1.575
-1.445
-1.285
-1.12
-0.975
-0.855
-0.745
-0.645
-0.575
-0.48
-0.385
-0.3
-0.195
-0.105
0.0
0.12
0.25
0.37
0.47
0.545
0.58
0.59
0.565
0.565
0.545
0.55
0.55
0.55
0.55
0.565
0.58
0.605
0.62
0.635
0.635
0.635
0.635
0.65
0.66
0.675
0.695
0.71
0.72
0.74
0.755
0.78
0.805
0.805
0.82
0.81
0.835
0.86
0.88
0.905
0.935
0.965
0.96
0.985
0.98
0.985
0.995
1.01
1.03
1.055
1.07
1.095
1.115
1.125
1.13
1.13
1.12
1.11
1.09
1.08
1.08
1.05
1.045
1.03
1.0
0.985
0.955
0.93
0.875
0.825
0.775
0.72
0.695
0.655
0.61
0.58
0.54
0.505
0.455
0.435
0.395
0.35
0.315
0.28
0.255
0.23
0.21
0.19
0.19
0.175
0.165
0.135
0.12
0.1
0.08
0.075
0.06
0.05
0.05
0.05
0.06
0.075
0.06
0.065
0.055
0.055
0.035
0.035
0.04
0.045
0.05
0.06
0.06
0.065
0.06
0.055
0.035
0.015
0.0
-0.02
-0.02
-0.02
-0.015
-0.01
0.01
0.015
0.005
0.015
0.0
0.0
0.005
-0.005
-0.005
0.005
0.005
0.0
0.0
-0.02
-0.015
-0.015
-0.02
-0.025
-0.025
-0.035
-0.04
-0.045
-0.02
-0.005
0.005
0.0
-0.025
-0.015
-0.01
-0.025
-0.03
-0.025
-0.025
-0.02
-0.015
-0.01
-0.005
-0.01
0.005
0.0
-0.01
-0.005
-0.015
-0.02
-0.025
-0.03
-0.03
-0.025
-0.02
-0.02
-0.01
-0.015
-0.02
-0.015
-0.04
-0.04
-0.045
-0.04
-0.03
-0.015
-0.02
-0.01
-0.01
0.01
0.015
0.03
0.03
0.04
0.04
0.05
0.07
0.09
0.095
0.125
0.125
0.14
0.155
0.17
0.195
0.23
0.265
0.29
0.315
0.315
0.295
0.295
0.275
0.265
0.25
0.255
0.255
0.25
0.24
0.215
0.185
0.165
0.13
0.12
0.1
0.075
0.06
0.04
0.015
-0.015
-0.035
-0.07
-0.075
-0.07
-0.065
-0.055
-0.045
-0.045
-0.045
-0.04
-0.055
-0.065
-0.045
-0.035
-0.04
-0.01
0.01
0.075
0.175
0.32
0.5
0.705
0.925
1.135
1.325
1.505
1.665
1.8
1.875
1.895
1.84
1.735
1.555
1.315
1.025
0.71
0.435
0.235
0.115
0.07
0.045
0.035
0.01
-0.02
-0.075
-0.135
-0.19
-0.225
-0.235
-0.245
-0.24
-0.225
-0.21
-0.205
-0.215
-0.215
-0.235
-0.245
-0.25
-0.26
-0.275
-0.3
-0.285
-0.285
-0.27
-0.265
-0.265
-0.255
-0.26
-0.27
-0.26
-0.285
-0.285
-0.295
-0.3
-0.3
-0.3
-0.295
-0.315
-0.305
-0.315
-0.325
-0.335
-0.36
-0.365
-0.375
-0.375
-0.375
-0.38
-0.395
-0.42
-0.455
-0.48
-0.5
-0.52
-0.53
-0.53
-0.545
-0.55
-0.565
-0.575
-0.59
-0.61
-0.63
-0.64
-0.665
-0.69
-0.71
-0.705
-0.7
-0.68
-0.675
-0.66
-0.64
-0.64
-0.62
-0.61
-0.615
-0.61
-0.59
-0.56
-0.535
-0.49
-0.44
-0.39
-0.355
-0.325
-0.305
-0.29
-0.285
-0.265
-0.25
-0.225
-0.205
-0.2
-0.17
-0.15
-0.11
-0.08
-0.065
-0.08
-0.09
-0.105
-0.12
-0.125
-0.11
-0.1
-0.08
-0.07
-0.06
-0.075
-0.07
-0.09
-0.08
-0.09
-0.105
-0.105
-0.11
-0.1
-0.09
-0.075
-0.055
-0.055
-0.045
-0.035
-0.045
-0.055
-0.065
-0.07
-0.07
-0.06
-0.055
-0.04
-0.015
0.0
0.02
0.03
0.03
0.03
0.04
0.035
0.07
0.095
0.14
0.175
0.225
0.26
0.275
0.265
0.245
0.22
0.2
0.19
0.2
0.205
0.225
0.23
0.21
0.175
0.145
0.095
0.065
0.035
0.025
0.01
0.0
-0.005
-0.025
-0.04
-0.065
-0.08
-0.095
-0.105
-0.08
-0.09
-0.09
-0.09
-0.075
-0.05
-0.04
-0.035
-0.03
-0.045
-0.05
-0.015
-0.005
0.085
0.235
0.43
0.675
0.91
1.135
1.34
1.525
1.655
1.795
1.86
1.875
1.82
1.71
1.535
1.295
1.0
0.685
0.405
0.2
0.065
0.02
0.01
0.01
0.0
-0.015
-0.04
-0.075
-0.125
-0.15
-0.18
-0.175
-0.175
-0.18
-0.18
-0.2
-0.21
-0.225
-0.245
-0.245
-0.245
-0.23
-0.215
-0.21
-0.2
-0.21
-0.22
-0.225
-0.23
-0.255
-0.25
-0.25
-0.25
-0.24
-0.24
-0.24
-0.25
-0.25
-0.245
-0.255
-0.27
-0.28
-0.28
-0.285
-0.285
-0.295
-0.305
-0.295
-0.28
-0.28
-0.285
-0.315
-0.335
-0.355
-0.37
-0.395
-0.415
-0.41
-0.41
-0.41
-0.405
-0.415
-0.415
-0.44
-0.465
-0.47
-0.475
-0.47
-0.46
-0.45
-0.44
-0.435
-0.445
-0.43
-0.41
-0.4
-0.37
-0.36
-0.335
-0.3
-0.28
-0.255
-0.225
-0.195
-0.17
-0.165
-0.155
-0.155
-0.13
-0.105
-0.095
-0.08
-0.06
-0.06
-0.06
-0.06
-0.06
-0.05
-0.04
-0.04
-0.03
-0.025
-0.02
-0.035
-0.05
-0.05
-0.06
-0.05
-0.055
-0.045
-0.04
-0.045
-0.04
-0.045
-0.045
-0.065
-0.06
-0.045
-0.045
-0.025
-0.02
-0.03
-0.04
-0.06
-0.05
-0.07
-0.055
-0.055
-0.035
-0.02
0.005
0.01
0.035
0.04
0.045
0.06
0.055
0.065
0.075
0.085
0.125
0.16
0.19
0.245
0.27
0.285
0.295
0.31
0.28
0.24
0.225
0.205
0.22
0.23
0.24
0.245
0.24
0.22
0.19
0.155
0.115
0.08
0.05
0.03
0.02
-0.005
-0.005
-0.02
-0.035
-0.04
-0.055
-0.055
-0.075
-0.07
-0.065
-0.045
-0.04
-0.03
-0.02
-0.005
-0.01
-0.02
-0.01
0.0
0.025
0.08
0.205
0.385
0.61
0.85
1.075
1.295
1.47
1.675
1.82
1.91
1.925
1.875
1.765
1.58
1.325
1.005
0.71
0.44
0.24
0.115
0.04
0.015
0.005
-0.01
-0.03
-0.08
-0.12
-0.16
-0.155
-0.17
-0.17
-0.18
-0.185
-0.2
-0.205
-0.215
-0.215
-0.215
-0.225
-0.215
-0.21
-0.215
-0.22
-0.215
-0.22
-0.23
-0.24
-0.25
-0.255
-0.25
-0.245
-0.235
-0.23
-0.235
-0.235
-0.245
-0.255
-0.27
-0.29
-0.315
-0.33
-0.32
-0.335
-0.32
-0.32
-0.325
-0.325
-0.33
-0.345
-0.36
-0.385
-0.395
-0.42
-0.435
-0.445
-0.45
-0.455
-0.465
-0.475
-0.455
-0.47
-0.48
-0.485
-0.52
-0.53
-0.545
-0.53
-0.515
-0.495
-0.485
-0.46
-0.44
-0.43
-0.42
-0.405
-0.385
-0.36
-0.325
-0.3
-0.28
-0.255
-0.235
-0.215
-0.205
-0.18
-0.155
-0.15
-0.145
-0.125
-0.13
-0.09
-0.08
-0.075
-0.065
-0.055
-0.05
-0.06
-0.08
-0.08
-0.1
-0.105
-0.105
-0.1
-0.09
-0.08
-0.075
-0.075
-0.07
-0.075
-0.085
-0.09
-0.09
-0.09
-0.09
-0.07
-0.085
-0.08
-0.055
-0.05
-0.05
-0.055
-0.06
-0.08
-0.09
-0.085
-0.08
-0.06
-0.05
-0.03
-0.01
0.01
0.005
0.01
0.025
0.025
0.03
0.055
0.075
0.09
0.105
0.13
0.165
0.195
0.23
0.24
0.255
0.245
0.23
0.215
0.195
0.195
0.19
0.21
0.23
0.24
0.23
0.21
0.16
0.11
0.07
0.03
0.0
-0.015
-0.02
-0.01
-0.01
-0.03
-0.04
-0.06
-0.075
-0.09
-0.105
-0.12
-0.11
-0.105
-0.1
-0.085
-0.09
-0.09
-0.07
-0.08
-0.095
-0.085
-0.105
-0.1
-0.075
-0.055
0.04
0.18
0.365
0.58
0.81
1.01
1.19
1.345
1.52
1.675
1.785
1.835
1.83
1.75
1.615
1.415
1.13
0.82
0.515
0.285
0.12
0.025
-0.03
-0.06
-0.07
-0.075
-0.1
-0.145
-0.185
-0.22
-0.255
-0.265
-0.28
-0.27
-0.265
-0.26
-0.245
-0.245
-0.245
-0.255
-0.26
-0.27
-0.275
-0.285
-0.3
-0.315
-0.315
-0.3
-0.3
-0.29
-0.285
-0.28
-0.29
-0.29
-0.3
-0.315
-0.345
-0.345
-0.345
-0.34
-0.34
-0.33
-0.335
-0.34
-0.365
-0.365
-0.375
-0.385
-0.4
-0.4
-0.41
-0.41
-0.42
-0.425
-0.425
-0.455
-0.465
-0.485
-0.505
-0.515
-0.525
-0.535
-0.535
-0.535
-0.52
-0.515
-0.51
-0.505
-0.49
-0.495
-0.485
-0.485
-0.475
-0.455
-0.45
-0.405
-0.38
-0.345
-0.305
-0.28
-0.265
-0.24
-0.235
-0.225
-0.205
-0.185
-0.16
-0.145
-0.125
-0.105
-0.1
-0.09
-0.095
-0.1
-0.1
-0.12
-0.115
-0.11
-0.095
-0.085
-0.085
-0.08
-0.065
-0.065
-0.075
-0.085
-0.09
-0.1
-0.11
-0.105
-0.1
-0.09
-0.08
-0.07
-0.065
-0.075
-0.065
-0.075
-0.09
-0.09
-0.09
-0.09
-0.085
-0.08
-0.07
-0.07
-0.07
-0.065
-0.065
-0.05
-0.06
-0.055
-0.04
-0.02
-0.005
0.04
0.04
0.06
0.07
0.09
0.105
0.13
0.16
0.18
0.2
0.22
0.225
0.225
0.21
0.18
0.19
0.19
0.185
0.19
0.195
0.195
0.175
0.14
0.11
0.09
0.07
0.05
0.03
0.005
0.0
-0.01
-0.035
-0.065
-0.085
-0.095
-0.11
-0.11
-0.095
-0.09
-0.075
-0.07
-0.07
-0.075
-0.08
-0.1
-0.11
-0.105
-0.095
-0.095
-0.07
-0.06
-0.015
0.04
0.125
0.24
0.42
0.605
0.81
1.02
1.22
1.41
1.585
1.735
1.84
1.86
1.825
1.725
1.585
1.38
1.1
0.835
0.565
0.345
0.195
0.115
0.055
0.015
-0.005
-0.03
-0.065
-0.125
-0.19
-0.23
-0.25
-0.265
-0.255
-0.245
-0.245
-0.25
-0.25
-0.25
-0.285
-0.295
-0.3
-0.305
-0.3
-0.305
-0.285
-0.29
-0.27
-0.295
-0.3
-0.315
-0.32
-0.335
-0.345
-0.345
-0.34
-0.32
-0.32
-0.31
-0.31
-0.305
-0.31
-0.335
-0.36
-0.38
-0.39
-0.395
-0.405
-0.395
-0.375
-0.375
-0.38
-0.4
-0.405
-0.42
-0.43
-0.455
-0.465
-0.48
-0.49
-0.495
-0.505
-0.51
