Lead II
0.445
0.42
0.385
0.375
0.36
0.34
0.315
0.26
0.245
0.22
0.22
0.205
0.175
0.15
0.13
0.11
0.1
0.09
0.065
0.05
0.035
0.03
0.015
0.005
-0.005
-0.02
-0.02
-0.025
-0.02
-0.04
-0.045
-0.055
-0.07
-0.07
-0.065
-0.06
-0.06
-0.06
-0.07
-0.075
-0.08
-0.05
-0.05
-0.055
-0.075
-0.075
-0.07
-0.075
-0.075
-0.09
-0.095
-0.09
-0.085
-0.085
-0.09
-0.095
-0.105
-0.1
-0.09
-0.08
-0.08
-0.1
-0.11
-0.11
-0.1
-0.09
-0.085
-0.085
-0.1
-0.085
-0.065
-0.045
-0.03
-0.03
-0.03
-0.02
0.005
0.03
0.04
0.055
0.095
0.145
0.195
0.25
0.275
0.325
0.38
0.44
0.49
0.565
0.62
0.675
0.71
0.775
0.84
0.945
1.06
1.15
1.23
1.355
1.465
1.545
1.58
1.605
1.625
1.645
1.645
1.615
1.545
1.48
1.405
1.355
1.28
1.17
1.055
0.935
0.85
0.775
0.66
0.535
0.4
0.29
0.19
0.1
0.055
0.03
0.015
-0.03
-0.085
-0.165
-0.23
-0.275
-0.33
-0.38
-0.42
-0.46
-0.515
-0.555
-0.6
-0.66
-0.715
-0.75
-0.75
-0.77
-0.765
-0.785
-0.805
-0.82
-0.84
-0.855
-0.875
-0.89
-0.895
-0.915
-0.93
-0.925
-0.945
-0.965
-0.99
-1.005
-1.005
-1.015
-1.02
-1.045
-1.05
-1.055
-1.06
-1.075
-1.085
-1.095
-1.115
-1.11
-1.1
-1.125
-1.135
-1.145
-1.155
-1.15
-1.135
-1.135
-1.14
-1.15
-1.145
-1.14
-1.115
-1.1
-1.09
-1.085
-1.075
-1.045
-1.035
-1.025
-0.995
-0.995
-0.975
-0.955
-0.915
-0.88
-0.86
-0.835
-0.8
-0.755
-0.725
-0.715
-0.68
-0.67
-0.65
-0.635
-0.605
-0.58
-0.54
-0.52
-0.51
-0.48
-0.45
-0.435
-0.425
-0.405
-0.395
-0.365
-0.355
-0.33
-0.325
-0.315
-0.305
-0.285
-0.27
-0.265
-0.255
-0.25
-0.26
-0.245
-0.24
-0.23
-0.23
-0.225
-0.225
-0.22
-0.21
-0.215
-0.21
-0.215
-0.22
-0.22
-0.19
-0.18
-0.185
-0.195
-0.2
-0.21
-0.205
-0.185
-0.185
-0.195
-0.205
-0.2
-0.17
-0.15
-0.145
-0.155
-0.17
-0.185
-0.19
-0.19
-0.195
-0.185
-0.175
-0.155
-0.16
-0.155
-0.17
-0.15
-0.15
-0.15
-0.135
-0.135
-0.12
-0.135
-0.145
-0.14
-0.13
-0.13
-0.125
-0.13
-0.12
-0.11
-0.095
-0.09
-0.1
-0.105
-0.1
-0.085
-0.095
-0.08
-0.08
-0.085
-0.1
-0.085
-0.08
-0.065
-0.065
-0.075
-0.08
-0.07
-0.055
-0.045
-0.05
-0.065
-0.07
-0.05
-0.035
-0.02
-0.025
-0.03
-0.04
-0.055
-0.05
-0.055
-0.05
-0.055
-0.055
-0.055
-0.03
-0.02
-0.025
-0.025
-0.02
-0.015
-0.015
-0.01
-0.015
-0.015
-0.01
0.01
0.015
0.015
-0.005
0.005
0.025
0.04
0.05
0.035
0.025
0.01
-0.02
-0.02
-0.025
-0.005
-0.005
0.0
-0.02
-0.025
-0.025
-0.045
-0.085
-0.085
-0.08
-0.045
-0.04
-0.025
-0.035
-0.04
-0.04
-0.04
-0.05
-0.065
-0.065
-0.07
-0.07
-0.075
-0.08
-0.065
-0.05
-0.055
-0.06
-0.05
-0.04
-0.035
-0.03
-0.05
-0.06
-0.075
-0.09
-0.09
-0.095
-0.05
0.045
0.145
0.255
0.375
0.48
0.57
0.69
0.83
0.975
1.065
1.05
0.965
0.8
0.6
0.32
0.02
-0.175
-0.29
-0.325
-0.305
-0.245
-0.18
-0.155
-0.175
-0.195
-0.195
-0.17
-0.18
-0.205
-0.235
-0.235
-0.205
-0.195
-0.19
-0.18
-0.175
-0.18
-0.165
-0.15
-0.125
-0.12
-0.125
-0.13
-0.12
-0.11
-0.14
-0.145
-0.145
-0.135
-0.13
-0.115
-0.105
-0.115
-0.12
-0.125
-0.1
-0.085
-0.08
-0.09
-0.095
-0.085
-0.075
-0.07
-0.075
-0.07
-0.08
-0.07
-0.055
-0.045
-0.04
-0.03
-0.02
-0.015
0.0
0.025
0.03
0.04
0.045
0.03
0.035
0.06
0.075
0.09
0.095
0.105
0.11
0.115
0.12
0.135
0.135
0.145
0.16
0.165
0.17
0.175
0.18
0.19
0.195
0.2
0.195
0.2
0.21
0.225
0.22
0.225
0.22
0.2
0.185
0.19
0.2
0.195
0.19
0.155
0.145
0.13
0.135
0.13
0.13
0.12
0.1
0.085
0.09
0.085
0.09
0.08
0.05
0.035
0.025
0.025
0.03
0.045
0.035
0.035
0.04
0.03
0.025
0.015
0.005
-0.01
0.005
0.0
0.0
0.0
0.0
0.0
0.0
0.0
-0.03
-0.035
-0.04
-0.04
-0.035
-0.02
-0.03
-0.035
-0.05
-0.06
-0.055
-0.065
-0.06
-0.065
-0.06
-0.07
-0.06
-0.055
-0.05
-0.05
-0.055
-0.065
-0.05
-0.055
-0.04
-0.035
-0.035
-0.03
-0.025
-0.015
-0.025
-0.04
-0.06
-0.07
-0.065
-0.055
-0.035
-0.04
-0.045
-0.04
-0.02
-0.015
-0.02
-0.025
-0.03
-0.03
-0.035
-0.04
-0.05
-0.06
-0.075
-0.09
-0.085
-0.085
-0.08
-0.07
-0.075
-0.09
-0.095
-0.085
-0.095
-0.1
-0.105
-0.105
-0.09
-0.065
-0.065
-0.085
-0.095
-0.1
-0.105
-0.095
-0.09
-0.09
-0.095
-0.105
-0.11
-0.105
-0.12
-0.145
-0.145
-0.12
-0.055
0.03
0.12
0.2
0.275
0.36
0.465
0.57
0.675
0.78
0.885
0.975
1.0
0.96
0.865
0.74
0.6
0.415
0.175
-0.065
-0.225
-0.34
-0.37
-0.355
-0.305
-0.24
-0.2
-0.19
-0.21
-0.225
-0.225
-0.23
-0.245
-0.255
-0.265
-0.28
-0.275
-0.265
-0.255
-0.235
-0.22
-0.22
-0.21
-0.2
-0.19
-0.19
-0.2
-0.195
-0.195
-0.185
-0.175
-0.18
-0.17
-0.185
-0.19
-0.18
-0.18
-0.175
-0.185
-0.2
-0.18
-0.175
-0.16
-0.18
-0.175
-0.17
-0.155
-0.15
-0.155
-0.155
-0.155
-0.145
-0.145
-0.13
-0.115
-0.11
-0.105
-0.12
-0.105
-0.09
-0.065
-0.065
-0.07
-0.07
-0.055
-0.045
-0.035
-0.015
-0.02
-0.01
-0.005
0.005
0.025
0.035
0.02
0.03
0.055
0.08
0.075
0.075
0.07
0.07
0.075
0.085
0.08
0.08
0.08
0.07
0.08
0.085
0.085
0.08
0.06
0.04
0.03
0.035
0.03
0.015
0.015
0.0
-0.01
0.0
0.0
-0.015
-0.025
-0.04
-0.03
-0.03
-0.03
-0.035
-0.05
-0.065
-0.065
-0.055
-0.05
-0.06
-0.065
-0.065
-0.065
-0.07
-0.085
-0.085
-0.1
-0.11
-0.11
-0.105
-0.105
-0.105
-0.115
-0.13
-0.14
-0.14
-0.135
-0.14
-0.145
-0.155
-0.14
-0.14
-0.14
-0.145
-0.16
-0.16
-0.15
-0.135
-0.115
-0.115
-0.12
-0.12
-0.11
-0.105
-0.105
-0.095
-0.105
-0.09
-0.08
-0.07
-0.085
-0.085
-0.1
-0.12
-0.12
-0.105
-0.12
-0.14
-0.15
-0.17
-0.155
-0.135
-0.135
-0.13
-0.145
-0.16
-0.16
-0.145
-0.135
-0.125
-0.12
-0.1
-0.085
-0.03
0.0
0.07
0.12
0.185
0.23
0.255
0.265
0.295
0.315
0.32
0.24
0.075
-0.18
-0.42
-0.58
-0.675
-0.77
-0.9
-1.015
-1.135
-1.27
-1.405
-1.505
-1.57
-1.62
-1.67
-1.72
-1.74
-1.765
-1.795
-1.82
-1.81
-1.795
-1.75
-1.7
-1.67
-1.65
-1.625
-1.59
-1.5
-1.385
-1.285
-1.205
-1.13
-1.05
-0.97
-0.905
-0.855
-0.785
-0.715
-0.655
-0.61
-0.57
-0.52
-0.465
-0.405
-0.33
-0.245
-0.155
-0.045
0.035
0.09
0.135
0.18
0.24
0.28
0.3
0.315
0.315
0.325
0.345
0.36
0.385
0.395
0.405
0.405
0.435
0.455
0.46
0.475
0.485
0.49
0.5
0.525
0.525
0.545
0.555
0.57
0.59
0.605
0.615
0.635
0.64
0.645
0.67
0.705
0.72
0.725
0.725
0.73
0.74
0.755
0.765
0.77
0.775
0.78
0.785
0.8
0.81
0.81
0.8
0.8
0.805
0.815
0.805
0.8
0.775
0.76
0.76
0.755
0.755
0.74
0.725
0.705
0.7
0.69
0.675
0.65
0.61
0.58
0.58
0.59
0.6
0.56
0.515
0.485
0.445
0.42
0.4
0.385
0.38
0.355
0.34
0.32
0.31
0.28
0.265
0.245
0.235
0.22
0.21
0.17
0.15
0.115
0.1
0.11
0.1
0.085
0.06
0.04
0.025
0.025
0.01
0.01
-0.015
-0.035
-0.02
0.005
0.005
0.005
-0.01
-0.03
-0.04
-0.045
-0.045
-0.045
-0.045
-0.05
-0.04
-0.035
-0.04
-0.045
-0.06
-0.08
-0.075
-0.075
-0.065
-0.07
-0.075
-0.1
-0.085
-0.08
-0.075
-0.08
-0.09
-0.095
-0.09
-0.08
-0.075
-0.075
-0.08
-0.09
-0.085
-0.095
-0.1
-0.12
-0.115
-0.125
-0.105
-0.095
-0.09
-0.085
-0.095
-0.1
-0.12
-0.11
-0.1
-0.09
-0.07
-0.095
-0.1
-0.105
-0.095
-0.08
-0.06
-0.05
-0.045
-0.05
-0.05
-0.045
-0.065
-0.08
-0.09
-0.11
-0.1
-0.105
-0.095
-0.11
-0.12
-0.13
-0.13
-0.135
-0.125
-0.115
-0.115
-0.125
-0.145
-0.165
-0.18
-0.165
-0.145
-0.125
-0.12
-0.105
-0.105
-0.115
-0.125
-0.145
-0.145
-0.155
-0.175
-0.175
-0.165
-0.175
-0.17
-0.185
-0.195
-0.185
-0.17
-0.155
-0.16
-0.165
-0.19
-0.19
-0.185
-0.165
-0.145
-0.15
-0.18
-0.195
-0.19
-0.185
-0.19
-0.205
-0.22
-0.19
-0.125
-0.035
0.045
0.12
0.215
0.325
0.435
0.545
0.655
0.78
0.875
0.93
0.94
0.865
0.74
0.58
0.37
0.085
-0.175
-0.355
-0.445
-0.48
-0.495
-0.46
-0.405
-0.36
-0.335
-0.32
-0.325
-0.32
-0.305
-0.29
-0.29
-0.29
-0.285
-0.3
-0.315
-0.31
-0.305
-0.295
-0.285
-0.275
-0.26
-0.245
-0.265
-0.275
-0.26
-0.26
-0.26
-0.265
-0.27
-0.27
-0.265
-0.25
-0.24
-0.235
-0.235
-0.245
-0.265
-0.255
-0.24
-0.225
-0.23
-0.24
-0.235
-0.245
-0.235
-0.225
-0.21
-0.215
-0.235
-0.23
-0.22
-0.21
-0.195
-0.195
-0.205
-0.205
-0.195
-0.185
-0.175
-0.175
-0.18
-0.175
-0.17
-0.15
-0.15
-0.15
-0.165
-0.17
-0.155
-0.135
-0.13
-0.13
-0.14
-0.145
-0.125
-0.115
-0.105
-0.11
-0.11
-0.115
-0.1
-0.1
-0.1
-0.105
-0.12
-0.115
-0.1
-0.06
-0.05
-0.065
-0.085
-0.095
-0.095
-0.085
-0.08
-0.09
-0.095
-0.115
-0.115
-0.11
-0.11
-0.125
-0.12
-0.13
-0.125
-0.115
-0.125
-0.13
-0.135
-0.14
-0.12
-0.115
-0.12
-0.135
-0.14
-0.15
-0.155
-0.14
-0.145
-0.145
-0.15
-0.15
-0.145
-0.14
-0.14
-0.145
-0.16
-0.165
-0.17
-0.155
-0.15
-0.14
-0.15
-0.16
-0.155
-0.16
-0.16
-0.17
-0.18
-0.19
-0.19
-0.19
-0.19
-0.195
-0.205
-0.215
-0.215
-0.21
-0.205
-0.2
-0.19
-0.2
-0.18
-0.19
-0.17
-0.18
-0.18
-0.18
-0.17
-0.16
-0.155
-0.175
-0.185
-0.2
-0.205
-0.2
-0.2
-0.22
-0.225
-0.24
-0.24
-0.235
-0.24
-0.23
-0.23
-0.225
-0.215
-0.205
-0.2
-0.21
-0.205
-0.215
-0.2
-0.185
-0.175
-0.165
-0.16
-0.155
-0.16
-0.17
-0.17
-0.185
-0.195
-0.205
-0.205
-0.195
-0.2
-0.195
-0.205
-0.2
-0.19
-0.175
-0.17
-0.18
-0.2
-0.2
-0.185
-0.17
-0.165
-0.175
-0.175
-0.165
-0.14
-0.14
-0.16
-0.19
-0.23
-0.245
-0.24
-0.21
-0.175
-0.11
-0.035
0.07
0.175
0.275
0.335
0.405
0.48
0.57
0.69
0.81
0.915
0.995
1.0
0.935
0.845
0.725
0.545
0.285
-0.035
-0.29
-0.445
-0.525
-0.54
-0.525
-0.505
-0.44
-0.385
-0.35
-0.33
-0.325
-0.325
-0.31
-0.31
-0.305
-0.315
-0.32
-0.325
-0.325
-0.315
-0.3
-0.295
-0.285
-0.28
-0.27
-0.25
-0.25
-0.245
-0.245
-0.26
-0.26
-0.26
-0.235
-0.23
-0.235
-0.24
-0.245
-0.24
-0.23
-0.22
-0.225
-0.245
-0.24
-0.235
-0.23
-0.21
-0.22
-0.225
-0.25
-0.25
-0.24
-0.23
-0.23
-0.23
-0.23
-0.23
-0.22
-0.195
-0.19
-0.18
-0.175
-0.17
-0.165
-0.155
-0.15
-0.155
-0.14
-0.14
-0.12
-0.09
-0.095
-0.085
-0.045
-0.025
-0.005
-0.02
-0.065
-0.105
-0.12
-0.105
-0.07
-0.04
-0.035
-0.02
-0.025
-0.015
0.0
0.005
0.0
0.0
0.01
0.015
0.015
0.015
0.005
0.0
-0.01
-0.005
0.005
0.0
-0.005
-0.025
-0.035
-0.02
-0.025
-0.025
-0.06
-0.085
-0.095
-0.09
-0.09
-0.09
-0.085
-0.095
-0.11
-0.1
-0.095
-0.09
-0.095
-0.12
-0.12
-0.135
-0.14
-0.115
-0.115
-0.13
-0.145
-0.135
-0.12
-0.105
-0.125
-0.125
-0.135
-0.135
-0.14
-0.14
-0.14
-0.15
-0.145
-0.14
-0.155
-0.155
-0.17
-0.17
-0.18
-0.175
-0.16
-0.16
-0.155
-0.16
-0.16
-0.15
-0.155
-0.145
-0.16
-0.145
-0.145
-0.135
-0.125
-0.115
-0.11
-0.12
-0.14
-0.155
-0.175
-0.185
-0.195
-0.21
-0.2
-0.2
-0.175
-0.165
-0.16
-0.185
-0.205
-0.2
-0.18
-0.165
-0.165
-0.17
-0.175
-0.145
-0.125
-0.12
-0.155
-0.18
-0.175
-0.18
-0.165
-0.165
-0.18
-0.195
-0.21
-0.19
-0.18
-0.195
-0.175
-0.185
-0.185
-0.165
-0.165
-0.165
-0.165
-0.16
-0.15
-0.145
-0.15
-0.165
-0.17
-0.18
-0.195
-0.21
-0.2
-0.205
-0.155
-0.085
-0.01
0.08
0.2
0.315
0.43
0.545
0.645
0.795
0.93
1.03
1.065
1.015
0.905
0.76
0.585
0.32
0.02
-0.23
-0.36
-0.405
-0.4
-0.365
-0.31
-0.26
-0.23
-0.21
-0.21
-0.21
-0.215
-0.245
-0.29
-0.285
-0.275
-0.275
-0.28
-0.29
-0.3
-0.3
-0.27
-0.255
-0.245
-0.25
-0.265
-0.255
-0.25
-0.23
-0.235
-0.25
-0.24
-0.235
-0.215
-0.22
-0.23
-0.25
-0.265
-0.25
-0.23
-0.22
-0.23
-0.235
-0.225
-0.21
-0.205
-0.21
-0.23
-0.26
-0.27
-0.255
-0.25
-0.235
-0.215
-0.205
-0.2
-0.19
-0.17
-0.165
-0.15
-0.14
-0.15
-0.135
-0.12
-0.105
-0.095
-0.105
-0.1
-0.09
-0.06
-0.05
-0.035
-0.055
-0.055
-0.065
-0.045
-0.005
0.02
0.015
-0.015
-0.03
-0.04
-0.02
0.005
0.015
0.005
0.01
0.01
-0.005
-0.005
-0.02
-0.025
-0.02
-0.005
-0.005
-0.01
-0.01
-0.01
-0.005
-0.005
-0.025
-0.035
-0.04
-0.055
-0.055
-0.045
-0.035
-0.045
-0.065
-0.085
-0.055
-0.04
-0.05
-0.08
-0.11
-0.12
-0.085
-0.06
-0.07
-0.09
-0.12
-0.13
-0.135
-0.125
-0.115
-0.125
-0.13
-0.13
-0.115
-0.115
-0.125
-0.155
-0.165
-0.185
-0.165
-0.14
-0.13
-0.15
-0.165
-0.165
-0.155
-0.15
-0.14
-0.15
-0.18
-0.2
-0.19
-0.17
-0.17
-0.18
-0.2
-0.205
-0.19
-0.17
-0.155
-0.165
-0.16
-0.155
-0.14
-0.135
-0.135
-0.135
-0.15
-0.17
-0.165
-0.145
-0.145
-0.145
-0.17
-0.16
-0.14
-0.12
-0.115
-0.135
-0.165
-0.175
-0.165
-0.145
-0.115
-0.115
-0.155
-0.175
-0.195
-0.205
-0.225
-0.23
-0.21
-0.205
-0.205
-0.21
-0.22
-0.21
-0.205
-0.2
-0.19
-0.19
-0.19
-0.195
-0.2
-0.22
-0.225
-0.215
-0.205
-0.205
-0.2
-0.185
-0.175
-0.16
-0.165
-0.175
-0.195
-0.22
-0.225
-0.225
-0.21
-0.175
-0.135
-0.07
0.015
0.135
0.24
0.325
0.4
0.475
0.58
0.69
0.81
0.91
0.98
0.985
0.92
0.77
0.605
0.44
0.255
0.05
-0.135
-0.265
-0.37
-0.425
-0.44
-0.425
-0.38
-0.33
-0.295
-0.29
-0.3
-0.305
-0.295
-0.295
-0.325
-0.335
-0.34
-0.35
-0.34
-0.32
-0.315
-0.325
-0.33
-0.305
-0.28
-0.275
-0.265
-0.275
-0.28
-0.27
-0.26
-0.245
-0.26
-0.28
-0.315
-0.335
-0.335
-0.315
-0.305
-0.28
-0.28
-0.295
-0.285
-0.295
-0.295
-0.31
-0.32
-0.285
-0.245
-0.23
-0.235
-0.245
-0.245
-0.25
-0.24
-0.22
-0.205
-0.2
-0.23
-0.255
-0.225
-0.205
-0.17
-0.17
-0.17
-0.175
-0.165
-0.14
-0.125
-0.14
-0.195
-0.225
-0.195
-0.15
-0.125
-0.12
-0.105
-0.095
-0.065
-0.05
-0.05
-0.055
-0.065
-0.07
-0.075
-0.06
-0.03
0.0
0.025
0.025
0.015
0.0
0.0
0.0
0.03
0.03
0.01
0.0
0.015
0.005
-0.03
-0.04
-0.04
-0.035
-0.055
-0.045
-0.065
-0.075
-0.08
-0.09
-0.11
-0.14
-0.175
-0.19
-0.175
-0.17
-0.17
-0.175
-0.2
-0.21
-0.215
-0.215
-0.205
-0.22
-0.245
-0.255
-0.27
-0.26
-0.25
-0.23
-0.225
-0.24
-0.235
-0.245
-0.255
-0.26
-0.235
-0.25
-0.245
-0.24
-0.255
-0.265
-0.285
-0.285
-0.27
-0.26
-0.245
-0.245
-0.24
-0.25
-0.275
-0.28
-0.29
-0.265
-0.265
-0.265
-0.275
-0.26
-0.265
-0.28
-0.29
-0.295
-0.28
-0.235
-0.195
-0.17
-0.195
-0.245
-0.295
-0.32
-0.325
-0.31
-0.3
-0.3
-0.305
-0.285
-0.27
-0.245
-0.255
-0.27
-0.27
-0.245
-0.24
-0.23
-0.23
-0.23
-0.21
-0.21
-0.2
-0.2
-0.215
-0.24
-0.235
-0.23
-0.22
-0.22
-0.25
-0.245
-0.225
-0.225
-0.235
-0.22
-0.22
-0.215
-0.205
-0.19
-0.19
-0.19
-0.2
-0.22
-0.22
-0.2
-0.19
-0.185
-0.2
-0.21
-0.215
-0.205
-0.225
-0.235
-0.245
-0.24
-0.225
-0.225
-0.205
-0.21
-0.225
-0.225
-0.22
-0.21
-0.205
-0.21
-0.23
-0.23
-0.225
-0.205
-0.21
-0.205
-0.205
-0.205
-0.21
-0.19
-0.195
-0.215
-0.25
-0.265
-0.255
-0.225
-0.18
-0.125
-0.06
0.045
0.145
0.26
0.335
0.405
0.47
0.54
0.65
0.75
0.86
0.93
0.955
0.935
0.86
0.765
0.65
0.505
0.26
-0.025
-0.245
-0.395
-0.485
-0.54
-0.55
-0.535
-0.485
-0.43
-0.4
-0.365
-0.365
-0.355
-0.355
-0.345
-0.35
-0.36
-0.375
-0.39
-0.37
-0.365
-0.355
-0.355
-0.33
-0.32
-0.3
-0.28
-0.29
-0.28
-0.29
-0.285
-0.255
-0.24
-0.25
-0.265
-0.275
-0.275
-0.25
-0.225
-0.22
-0.215
-0.245
-0.265
-0.28
-0.285
-0.285
-0.275
-0.27
-0.265
-0.255
-0.25
-0.25
-0.25
-0.235
-0.22
-0.215
-0.205
-0.205
-0.195
-0.225
-0.225
-0.21
-0.19
-0.185
-0.2
-0.205
-0.21
-0.205
-0.185
-0.165
-0.145
-0.14
-0.17
-0.185
-0.185
-0.16
-0.125
-0.125
-0.145
-0.125
-0.1
-0.08
-0.065
-0.07
-0.06
-0.065
-0.055
-0.05
-0.035
-0.02
-0.01
-0.005
-0.005
-0.02
-0.015
-0.015
0.0
0.015
0.025
0.025
0.02
0.01
-0.005
-0.02
-0.01
-0.015
-0.01
-0.01
-0.01
0.005
-0.01
-0.02
-0.035
-0.035
-0.05
-0.04
-0.025
-0.025
-0.04
-0.065
-0.06
-0.065
-0.05
-0.055
-0.075
-0.105
-0.11
-0.105
-0.1
-0.11
-0.115
-0.115
-0.115
-0.1
-0.105
-0.1
-0.09
-0.11
-0.13
-0.135
-0.13
-0.11
-0.105
-0.11
-0.14
-0.16
-0.165
-0.135
-0.125
-0.115
-0.125
-0.115
-0.125
-0.145
-0.16
-0.18
-0.17
-0.15
-0.135
-0.145
-0.155
-0.175
-0.2
-0.2
-0.19
-0.18
-0.165
-0.18
-0.185
-0.18
-0.17
-0.16
-0.145
-0.145
-0.15
-0.135
-0.145
-0.17
-0.18
-0.185
-0.18
-0.155
-0.14
-0.15
-0.175
-0.2
-0.21
-0.2
-0.185
-0.17
-0.18
-0.215
-0.25
-0.235
-0.2
-0.18
-0.17
-0.18
-0.18
-0.17
-0.16
-0.135
-0.135
-0.15
-0.155
-0.175
-0.155
-0.155
-0.135
-0.14
-0.15
-0.17
-0.18
-0.17
-0.17
-0.2
-0.215
-0.2
-0.175
-0.155
-0.14
-0.145
-0.165
-0.165
-0.14
-0.135
-0.145
-0.17
-0.195
-0.17
-0.16
-0.175
-0.2
-0.225
-0.23
-0.205
-0.15
-0.08
-0.01
0.095
0.21
0.315
0.405
0.51
0.635
0.75
0.875
0.99
1.075
1.075
0.99
0.845
0.655
0.4
0.065
-0.23
-0.395
-0.455
-0.425
-0.395
-0.34
-0.29
-0.27
-0.255
-0.245
-0.25
-0.25
-0.25
-0.27
-0.285
-0.275
-0.275
-0.255
-0.25
-0.24
-0.235
-0.225
-0.21
-0.205
-0.21
-0.22
-0.225
-0.23
-0.225
-0.215
-0.21
-0.21
-0.22
-0.245
-0.225
-0.22
-0.215
-0.215
-0.225
-0.235
-0.22
-0.195
-0.2
-0.205
-0.22
-0.2
-0.185
-0.175
-0.175
-0.175
-0.17
-0.175
-0.155
-0.14
-0.14
-0.135
-0.13
-0.13
-0.115
-0.115
-0.11
-0.105
-0.1
-0.09
-0.075
-0.05
-0.04
-0.05
-0.065
-0.06
-0.03
0.0
0.015
0.01
0.005
0.005
0.02
0.025
0.04
0.05
0.055
0.05
0.06
0.075
0.07
0.07
0.055
0.045
0.05
0.05
0.05
0.055
0.04
0.015
0.015
0.005
-0.01
-0.02
-0.03
-0.035
-0.02
-0.02
-0.035
-0.055
-0.06
-0.06
-0.075
-0.065
-0.075
-0.07
-0.085
-0.08
-0.085
-0.09
-0.085
-0.075
-0.08
-0.075
-0.075
-0.055
-0.045
-0.04
-0.055
-0.055
-0.05
-0.035
-0.025
-0.02
-0.035
-0.06
-0.05
-0.03
-0.035
-0.055
-0.07
-0.08
-0.07
-0.065
-0.065
-0.055
-0.07
-0.06
-0.065
-0.065
-0.075
-0.07
-0.065
-0.07
-0.065
-0.06
-0.055
-0.055
-0.055
-0.055
-0.04
-0.025
-0.02
-0.025
-0.02
-0.01
-0.02
-0.015
-0.035
-0.035
-0.055
-0.06
-0.07
-0.08
-0.065
-0.065
-0.07
-0.07
-0.075
-0.055
-0.055
-0.05
-0.07
-0.08
-0.08
-0.06
-0.055
-0.04
-0.03
-0.025
-0.025
-0.025
-0.035
-0.03
-0.055
-0.06
-0.05
-0.055
-0.06
-0.055
-0.06
-0.07
-0.055
-0.035
-0.03
-0.04
-0.045
-0.04
-0.045
-0.035
-0.02
-0.03
-0.04
-0.045
-0.03
-0.03
-0.025
-0.025
-0.03
-0.04
-0.07
-0.07
-0.055
-0.005
0.065
0.14
0.23
0.33
0.445
0.545
0.645
0.755
0.875
0.995
1.085
1.13
1.11
1.02
0.905
0.755
0.565
0.305
0.045
-0.14
-0.255
-0.295
-0.3
-0.255
-0.2
-0.145
-0.11
-0.085
-0.08
-0.095
-0.115
-0.13
-0.14
-0.145
-0.165
-0.17
-0.185
-0.175
-0.145
-0.13
-0.125
-0.13
-0.14
-0.15
-0.135
-0.125
-0.12
-0.13
-0.13
-0.13
-0.12
-0.115
-0.125
-0.125
-0.135
-0.14
-0.135
-0.13
-0.12
-0.115
-0.13
-0.12
-0.125
-0.11
-0.1
-0.11
-0.11
-0.11
-0.105
-0.09
-0.09
-0.105
-0.105
-0.1
-0.09
-0.085
-0.065
-0.035
-0.05
-0.045
-0.035
-0.02
-0.015
-0.01
-0.005
-0.005
0.01
0.02
0.01
0.03
0.04
0.06
0.07
0.085
0.075
0.07
0.07
0.075
0.09
0.115
0.125
0.125
0.115
0.115
0.11
0.115
0.12
0.1
0.09
0.085
0.09
0.095
0.09
0.075
0.075
0.06
0.055
0.05
0.045
0.035
0.02
0.02
0.025
0.025
0.03
0.015
-0.005
-0.01
-0.01
0.0
0.005
0.0
-0.02
-0.03
-0.03
-0.03
-0.025
-0.035
-0.055
-0.07
-0.08
-0.08
-0.085
-0.1
-0.1
-0.11
-0.115
-0.13
-0.145
-0.145
-0.15
-0.155
-0.15
-0.155
-0.16
-0.17
-0.19
-0.195
-0.185
-0.15
-0.14
-0.145
-0.16
-0.155
-0.145
-0.12
-0.11
-0.095
-0.115
-0.13
-0.14
-0.155
-0.16
-0.165
-0.18
-0.19
-0.17
-0.16
-0.155
-0.165
-0.18
-0.18
-0.18
-0.16
-0.15
-0.135
-0.15
-0.145
-0.13
-0.13
-0.13
-0.135
-0.16
-0.185
-0.185
-0.17
-0.175
-0.16
-0.17
-0.19
-0.19
-0.18
-0.17
-0.165
-0.16
-0.17
-0.165
-0.17
-0.18
-0.17
-0.18
-0.19
-0.205
-0.205
-0.18
-0.14
-0.065
0.015
0.13
0.245
0.35
0.45
0.555
0.685
0.815
0.905
0.96
0.895
0.745
0.56
0.365
0.085
-0.18
-0.355
-0.43
-0.43
-0.39
-0.335
-0.305
-0.29
-0.28
-0.28
-0.275
-0.265
-0.265
-0.265
-0.285
-0.29
-0.3
-0.31
-0.31
-0.31
-0.3
-0.285
-0.26
-0.235
-0.24
-0.245
-0.25
-0.26
-0.275
-0.265
-0.26
-0.25
-0.255
-0.245
-0.22
-0.21
-0.23
-0.245
-0.245
-0.25
-0.225
-0.235
-0.24
-0.245
-0.25
-0.255
-0.235
-0.215
-0.195
-0.2
-0.2
-0.215
-0.195
-0.185
-0.19
-0.19
-0.19
-0.19
-0.18
-0.145
-0.145
-0.13
-0.145
-0.15
-0.145
-0.13
-0.12
-0.11
-0.1
-0.09
-0.09
-0.07
-0.06
-0.07
-0.075
-0.07
-0.05
-0.04
-0.025
-0.025
-0.025
-0.01
-0.005
0.0
0.005
0.005
0.0
-0.005
0.0
-0.015
-0.015
-0.015
-0.015
-0.025
-0.025
-0.04
-0.06
-0.06
-0.055
-0.065
-0.06
-0.07
-0.07
-0.08
-0.105
-0.11
-0.11
-0.105
-0.105
-0.1
-0.11
-0.125
-0.115
-0.115
-0.125
-0.14
-0.13
-0.135
-0.135
-0.13
-0.14
-0.145
-0.15
-0.145
-0.135
-0.13
-0.145
-0.16
-0.165
-0.175
-0.155
-0.15
-0.145
-0.155
-0.165
-0.165
-0.16
-0.16
-0.175
-0.185
-0.195
-0.205
-0.205
-0.2
-0.19
-0.19
-0.2
-0.2
-0.195
-0.2
-0.2
-0.215
-0.215
-0.205
-0.175
-0.16
-0.165
-0.165
-0.17
-0.17
-0.145
-0.145
-0.14
-0.14
-0.125
-0.12
-0.12
-0.13
-0.15
-0.175
-0.17
-0.175
-0.18
-0.175
-0.17
-0.165
-0.16
-0.175
-0.175
-0.18
-0.17
-0.16
-0.16
-0.16
-0.14
-0.12
-0.11
-0.12
-0.14
-0.155
-0.165
-0.17
-0.175
-0.18
-0.19
-0.185
-0.18
-0.16
-0.135
-0.135
-0.12
-0.11
-0.11
-0.125
-0.155
-0.18
-0.18
-0.175
-0.15
-0.135
-0.135
-0.155
-0.185
-0.18
-0.125
-0.035
0.065
0.17
0.275
0.38
0.485
0.605
0.715
0.845
0.95
1.02
1.02
0.925
0.79
0.6
0.295
-0.08
-0.37
-0.51
-0.54
-0.495
-0.455
-0.4
-0.335
-0.3
-0.28
-0.275
-0.26
-0.26
-0.265
-0.27
-0.265
-0.27
-0.275
-0.285
-0.26
-0.22
-0.21
-0.21
-0.24
-0.235
-0.215
-0.205
-0.205
-0.22
-0.23
-0.235
-0.22
-0.205
-0.215
-0.225
-0.215
-0.215
-0.215
-0.21
-0.215
-0.215
-0.2
-0.205
-0.19
-0.175
-0.165
-0.155
-0.16
-0.165
-0.175
-0.17
-0.17
-0.15
-0.135
-0.135
-0.12
-0.13
-0.145
-0.135
-0.135
-0.13
-0.105
-0.085
-0.075
-0.08
-0.095
-0.08
-0.07
-0.055
-0.045
-0.035
-0.04
-0.05
-0.025
-0.005
0.005
0.005
0.0
0.01
0.03
0.035
0.035
0.03
0.04
0.02
0.035
0.05
0.045
0.05
0.05
0.06
0.065
0.045
0.02
0.005
-0.01
-0.015
-0.02
0.02
0.025
0.01
0.0
-0.03
-0.035
-0.03
-0.03
-0.04
-0.045
-0.05
-0.055
-0.04
-0.05
-0.05
-0.07
-0.09
-0.075
-0.07
-0.07
-0.07
-0.08
-0.085
-0.075
-0.07
-0.09
-0.075
-0.075
-0.07
-0.075
-0.09
-0.115
-0.11
-0.115
-0.115
-0.115
-0.115
-0.12
-0.11
-0.12
-0.125
-0.13
-0.105
-0.115
-0.115
-0.12
-0.13
-0.145
-0.155
-0.155
-0.165
-0.16
-0.14
-0.12
-0.11
-0.125
-0.13
-0.135
-0.13
-0.105
-0.095
-0.085
-0.095
-0.085
-0.07
-0.06
-0.065
-0.07
-0.08
-0.08
-0.08
-0.09
-0.105
-0.125
-0.135
-0.17
-0.17
-0.16
-0.15
-0.15
-0.145
-0.16
-0.165
-0.15
-0.13
-0.12
-0.115
-0.125
-0.115
-0.11
-0.105
-0.105
-0.11
-0.115
-0.12
-0.12
-0.105
-0.11
-0.12
-0.13
-0.13
-0.125
-0.105
-0.1
-0.125
-0.135
-0.145
-0.14
-0.115
-0.115
-0.11
-0.12
-0.125
-0.1
-0.085
-0.08
-0.09
-0.115
-0.125
-0.115
-0.09
-0.09
-0.09
-0.11
-0.125
-0.14
-0.13
-0.125
-0.075
0.0
0.09
0.195
0.305
0.38
0.47
0.57
0.675
0.825
0.94
1.03
1.07
1.05
0.97
0.84
0.715
0.56
0.335
0.06
-0.16
-0.295
-0.335
-0.36
-0.35
-0.33
-0.29
-0.245
-0.19
-0.17
-0.175
-0.2
-0.215
-0.22
-0.22
-0.235
-0.235
-0.24
-0.24
-0.25
-0.24
-0.215
-0.2
-0.19
-0.18
-0.17
-0.165
-0.17
-0.155
-0.15
-0.165
-0.165
-0.165
-0.16
-0.15
-0.16
-0.19
-0.205
-0.2
-0.2
-0.19
-0.19
-0.185
-0.175
-0.175
-0.175
-0.175
-0.18
-0.175
-0.16
-0.14
-0.135
-0.12
-0.12
-0.13
-0.12
-0.105
-0.085
-0.075
-0.07
-0.08
-0.06
-0.04
-0.035
-0.04
-0.045
-0.03
-0.015
0.0
0.0
0.0
0.005
0.015
0.03
0.045
0.045
0.065
0.075
0.07
0.07
0.08
0.105
0.12
0.125
0.1
0.075
0.075
0.075
0.095
0.1
0.1
0.11
0.115
0.09
0.04
0.0
-0.01
0.015
0.035
0.035
0.01
-0.01
-0.015
0.0
0.035
0.035
0.025
0.01
0.0
-0.005
0.0
-0.01
-0.015
-0.035
-0.045
-0.05
-0.035
-0.03
-0.035
-0.045
-0.05
-0.045
-0.05
-0.055
-0.05
-0.055
-0.045
-0.03
-0.03
-0.025
-0.04
-0.065
-0.075
-0.07
-0.06
-0.05
-0.07
-0.1
-0.12
-0.12
-0.115
-0.115
-0.1
-0.095
-0.1
-0.09
-0.09
-0.07
-0.085
-0.1
-0.095
-0.09
-0.075
-0.08
-0.055
-0.05
-0.055
-0.065
-0.06
-0.065
-0.06
-0.05
-0.06
-0.065
-0.055
-0.075
-0.1
-0.11
-0.11
-0.1
-0.07
-0.085
-0.075
-0.08
-0.08
-0.09
-0.085
-0.11
-0.1
-0.09
-0.085
-0.065
-0.06
-0.045
-0.04
-0.04
-0.03
-0.045
-0.085
-0.095
-0.08
-0.07
-0.08
-0.085
-0.085
-0.1
-0.125
-0.13
-0.13
-0.12
-0.105
-0.11
-0.115
-0.12
-0.11
-0.11
-0.1
-0.095
-0.085
-0.09
-0.085
-0.095
-0.075
-0.08
-0.09
-0.115
-0.145
-0.155
-0.14
-0.12
-0.085
-0.02
0.055
0.16
0.28
0.385
0.455
0.525
0.605
0.725
0.84
0.935
1.005
1.05
1.02
0.945
0.84
0.7
0.535
0.33
0.085
-0.09
-0.21
-0.3
-0.345
-0.35
-0.32
-0.255
-0.205
-0.185
-0.18
-0.175
-0.185
-0.175
-0.165
-0.185
-0.2
-0.22
-0.245
-0.23
-0.22
-0.215
-0.225
-0.23
-0.22
-0.19
-0.165
-0.15
-0.155
-0.155
-0.16
-0.15
-0.135
-0.15
-0.18
-0.19
-0.205
-0.185
-0.155
-0.145
-0.155
-0.18
-0.205
-0.2
-0.185
-0.18
-0.175
-0.155
-0.14
-0.135
-0.135
-0.135
-0.145
-0.155
-0.165
-0.165
-0.155
-0.155
-0.155
-0.16
-0.16
-0.14
-0.135
-0.12
-0.125
-0.125
-0.13
-0.12
-0.095
-0.095
-0.095
-0.085
-0.08
-0.055
-0.035
-0.025
