Lead II
-0.52
-0.64
-0.63
-0.605
-0.615
-0.65
-0.64
-0.665
-0.72
-0.745
-0.75
-0.74
-0.74
-0.74
-0.725
-0.71
-0.75
-0.765
-0.76
-0.715
-0.655
-0.59
-0.56
-0.545
-0.525
-0.475
-0.375
-0.28
-0.24
-0.24
-0.245
-0.21
-0.155
-0.145
-0.185
-0.205
-0.18
-0.165
-0.135
-0.16
-0.23
-0.295
-0.295
-0.23
-0.18
-0.135
-0.14
-0.175
-0.215
-0.21
-0.19
-0.155
-0.12
-0.115
-0.085
-0.065
-0.025
-0.02
-0.045
-0.1
-0.11
-0.08
-0.02
0.01
0.035
0.07
0.095
0.125
0.145
0.165
0.185
0.175
0.13
0.08
0.08
0.105
0.11
0.095
0.115
0.145
0.17
0.19
0.19
0.135
0.115
0.11
0.115
0.135
0.13
0.095
0.045
0.0
-0.01
-0.05
-0.125
-0.18
-0.185
-0.185
-0.185
-0.225
-0.26
-0.295
-0.295
-0.29
-0.27
-0.275
-0.315
-0.32
-0.35
-0.375
-0.38
-0.385
-0.39
-0.4
-0.36
-0.345
-0.37
-0.39
-0.45
-0.485
-0.48
-0.445
-0.385
-0.38
-0.42
-0.495
-0.515
-0.53
-0.505
-0.465
-0.44
-0.405
-0.39
-0.385
-0.39
-0.42
-0.445
-0.445
-0.42
-0.365
-0.335
-0.33
-0.38
-0.41
-0.415
-0.44
-0.49
-0.505
-0.51
-0.495
-0.48
-0.47
-0.455
-0.455
-0.43
-0.4
-0.39
-0.39
-0.41
-0.415
-0.375
-0.31
-0.32
-0.335
-0.37
-0.365
-0.345
-0.315
-0.235
-0.15
-0.105
-0.2
-0.32
-0.38
-0.36
-0.285
-0.225
-0.205
-0.295
-0.42
-0.48
-0.48
-0.465
-0.42
-0.395
-0.395
-0.46
-0.49
-0.48
-0.54
-0.625
-0.68
-0.655
-0.565
-0.52
-0.55
-0.575
-0.605
-0.6
-0.6
-0.615
-0.635
-0.64
-0.6
-0.54
-0.48
-0.44
-0.46
-0.52
-0.565
-0.57
-0.555
-0.475
-0.35
-0.23
-0.105
0.025
0.215
0.465
0.735
0.9
0.865
0.595
0.18
-0.225
-0.545
-0.73
-0.735
-0.685
-0.69
-0.78
-0.885
-0.935
-0.945
-0.94
-0.93
-0.925
-0.905
-0.895
-0.875
-0.86
-0.81
-0.8
-0.815
-0.84
-0.855
-0.82
-0.79
-0.745
-0.75
-0.75
-0.705
-0.64
-0.57
-0.505
-0.435
-0.38
-0.37
-0.395
-0.405
-0.41
-0.455
-0.515
-0.53
-0.475
-0.39
-0.3
-0.23
-0.2
-0.255
-0.3
-0.34
-0.395
-0.425
-0.415
-0.345
-0.26
-0.215
-0.18
-0.13
-0.105
-0.155
-0.275
-0.365
-0.36
-0.315
-0.275
-0.235
-0.205
-0.135
-0.06
-0.005
0.0
-0.075
-0.15
-0.105
-0.03
0.01
0.04
0.075
0.09
0.075
0.05
0.005
-0.04
-0.07
-0.12
-0.14
-0.14
-0.12
-0.095
-0.11
-0.09
-0.095
-0.135
-0.17
-0.225
-0.24
-0.24
-0.22
-0.215
-0.28
-0.335
-0.32
-0.295
-0.32
-0.405
-0.475
-0.515
-0.505
-0.48
-0.46
-0.45
-0.465
-0.505
-0.55
-0.58
-0.58
-0.575
-0.575
-0.565
-0.53
-0.47
-0.415
-0.395
-0.415
-0.53
-0.655
-0.685
-0.63
-0.54
-0.515
-0.52
-0.52
-0.495
-0.465
-0.425
-0.395
-0.435
-0.525
-0.61
-0.625
-0.585
-0.54
-0.535
-0.555
-0.57
-0.565
-0.525
-0.49
-0.48
-0.475
-0.475
-0.46
-0.415
-0.38
-0.425
-0.515
-0.585
-0.58
-0.54
-0.505
-0.465
-0.42
-0.36
-0.31
-0.31
-0.33
-0.375
-0.39
-0.39
-0.36
-0.31
-0.275
-0.29
-0.335
-0.365
-0.355
-0.325
-0.36
-0.425
-0.465
-0.465
-0.465
-0.485
-0.48
-0.475
-0.495
-0.54
-0.61
-0.635
-0.635
-0.61
-0.59
-0.615
-0.675
-0.73
-0.705
-0.64
-0.595
-0.61
-0.645
-0.68
-0.65
-0.615
-0.595
-0.565
-0.535
-0.505
-0.52
-0.55
-0.57
-0.54
-0.45
-0.375
-0.33
-0.205
0.03
0.33
0.61
0.8
0.89
0.795
0.49
0.035
-0.43
-0.745
-0.87
-0.86
-0.8
-0.75
-0.755
-0.755
-0.745
-0.75
-0.795
-0.87
-0.945
-0.98
-1.005
-0.965
-0.95
-0.89
-0.86
-0.91
-0.965
-0.965
-0.91
-0.87
-0.81
-0.73
-0.63
-0.545
-0.505
-0.465
-0.45
-0.43
-0.445
-0.43
-0.395
-0.34
-0.265
-0.23
-0.23
-0.26
-0.24
-0.24
-0.29
-0.35
-0.415
-0.43
-0.365
-0.325
-0.285
-0.29
-0.28
-0.265
-0.21
-0.165
-0.17
-0.19
-0.2
-0.17
-0.145
-0.135
-0.15
-0.165
-0.17
-0.165
-0.125
-0.06
-0.045
-0.03
0.0
0.075
0.075
0.05
0.06
0.09
0.13
0.145
0.085
0.035
0.015
0.01
0.025
0.04
0.065
0.105
0.045
-0.06
-0.145
-0.14
-0.095
-0.08
-0.135
-0.21
-0.28
-0.335
-0.355
-0.365
-0.34
-0.31
-0.295
-0.285
-0.34
-0.45
-0.52
-0.525
-0.505
-0.48
-0.47
-0.485
-0.465
-0.455
-0.46
-0.51
-0.565
-0.605
-0.615
-0.555
-0.52
-0.495
-0.5
-0.47
-0.415
-0.4
-0.395
-0.42
-0.435
-0.45
-0.425
-0.405
-0.425
-0.465
-0.485
-0.495
-0.495
-0.485
-0.47
-0.505
-0.54
-0.545
-0.52
-0.485
-0.425
-0.39
-0.365
-0.41
-0.535
-0.6
-0.61
-0.565
-0.525
-0.48
-0.44
-0.405
-0.375
-0.32
-0.295
-0.305
-0.285
-0.295
-0.335
-0.355
-0.33
-0.22
-0.125
-0.155
-0.28
-0.38
-0.395
-0.36
-0.31
-0.285
-0.3
-0.335
-0.385
-0.415
-0.425
-0.425
-0.475
-0.535
-0.545
-0.535
-0.495
-0.485
-0.49
-0.525
-0.57
-0.56
-0.545
-0.485
-0.45
-0.435
-0.455
-0.47
-0.48
-0.495
-0.455
-0.44
-0.425
-0.41
-0.435
-0.485
-0.6
-0.655
-0.615
-0.545
-0.41
-0.285
-0.14
0.05
0.26
0.52
0.79
1.005
1.07
0.91
0.535
0.045
-0.415
-0.715
-0.855
-0.855
-0.795
-0.77
-0.78
-0.79
-0.8
-0.845
-0.88
-0.885
-0.85
-0.775
-0.725
-0.72
-0.765
-0.82
-0.84
-0.83
-0.835
-0.83
-0.805
-0.775
-0.725
-0.635
-0.515
-0.415
-0.365
-0.38
-0.425
-0.445
-0.42
-0.36
-0.32
-0.27
-0.225
-0.19
-0.235
-0.3
-0.32
-0.295
-0.25
-0.235
-0.235
-0.23
-0.19
-0.12
-0.09
-0.105
-0.17
-0.21
-0.205
-0.185
-0.195
-0.21
-0.205
-0.185
-0.175
-0.12
-0.12
-0.08
-0.065
-0.05
-0.045
-0.015
0.015
0.025
0.06
0.065
0.095
0.16
0.235
0.26
0.17
0.05
-0.01
0.05
0.12
0.145
0.14
0.145
0.17
0.195
0.225
0.22
0.195
0.13
0.035
-0.035
-0.035
-0.005
-0.045
-0.1
-0.13
-0.13
-0.11
-0.11
-0.105
-0.14
-0.19
-0.225
-0.245
-0.245
-0.265
-0.28
-0.29
-0.275
-0.28
-0.295
-0.315
-0.34
-0.395
-0.42
-0.38
-0.32
-0.325
-0.375
-0.42
-0.435
-0.435
-0.42
-0.425
-0.425
-0.43
-0.4
-0.37
-0.33
-0.325
-0.34
-0.34
-0.345
-0.32
-0.315
-0.3
-0.31
-0.34
-0.35
-0.325
-0.29
-0.29
-0.3
-0.29
-0.255
-0.245
-0.275
-0.32
-0.36
-0.37
-0.345
-0.3
-0.27
-0.26
-0.285
-0.34
-0.355
-0.34
-0.305
-0.27
-0.235
-0.245
-0.24
-0.23
-0.205
-0.195
-0.19
-0.19
-0.16
-0.14
-0.11
-0.075
-0.065
-0.08
-0.1
-0.065
-0.04
-0.02
-0.04
-0.07
-0.085
-0.105
-0.145
-0.2
-0.25
-0.275
-0.295
-0.29
-0.285
-0.285
-0.33
-0.345
-0.36
-0.355
-0.34
-0.335
-0.36
-0.375
-0.375
-0.375
-0.35
-0.355
-0.365
-0.385
-0.385
-0.35
-0.335
-0.325
-0.33
-0.355
-0.36
-0.36
-0.325
-0.28
-0.26
-0.225
-0.145
-0.025
0.135
0.335
0.57
0.815
1.03
1.195
1.17
0.875
0.385
-0.12
-0.51
-0.675
-0.665
-0.575
-0.54
-0.56
-0.6
-0.635
-0.63
-0.67
-0.695
-0.7
-0.68
-0.66
-0.66
-0.675
-0.7
-0.72
-0.705
-0.655
-0.615
-0.55
-0.515
-0.48
-0.42
-0.34
-0.27
-0.235
-0.215
-0.215
-0.215
-0.2
-0.175
-0.155
-0.16
-0.155
-0.155
-0.145
-0.125
-0.125
-0.125
-0.12
-0.11
-0.085
-0.075
-0.065
-0.085
-0.1
-0.08
-0.07
-0.03
-0.015
-0.01
-0.04
-0.025
-0.015
0.02
0.035
0.01
0.02
0.035
0.065
0.105
0.13
0.13
0.095
0.105
0.14
0.19
0.22
0.235
0.225
0.22
0.23
0.225
0.235
0.235
0.25
0.255
0.26
0.27
0.25
0.22
0.17
0.135
0.12
0.115
0.105
0.055
0.03
-0.005
-0.035
-0.055
-0.08
-0.09
-0.115
-0.15
-0.15
-0.165
-0.175
-0.2
-0.24
-0.275
-0.28
-0.265
-0.265
-0.275
-0.285
-0.29
-0.305
-0.31
-0.315
-0.305
-0.32
-0.315
-0.3
-0.29
-0.28
-0.285
-0.3
-0.31
-0.305
-0.29
-0.275
-0.28
-0.29
-0.285
-0.29
-0.29
-0.29
-0.315
-0.32
-0.3
-0.285
-0.27
-0.275
-0.295
-0.31
-0.305
-0.305
-0.28
-0.28
-0.28
-0.305
-0.3
-0.305
-0.27
-0.275
-0.29
-0.325
-0.32
-0.29
-0.265
-0.26
-0.275
-0.275
-0.275
-0.275
-0.26
-0.25
-0.235
-0.235
-0.205
-0.17
-0.14
-0.14
-0.125
-0.145
-0.14
-0.105
-0.06
-0.035
-0.02
-0.015
-0.005
0.005
0.025
0.01
-0.005
-0.03
-0.04
-0.045
-0.065
-0.09
-0.15
-0.21
-0.25
-0.265
-0.28
-0.285
-0.29
-0.305
-0.315
-0.31
-0.305
-0.33
-0.355
-0.365
-0.36
-0.36
-0.34
-0.33
-0.355
-0.375
-0.39
-0.37
-0.35
-0.355
-0.355
-0.365
-0.35
-0.325
-0.33
-0.325
-0.31
-0.315
-0.305
-0.24
-0.16
-0.045
0.06
0.215
0.41
0.64
0.885
1.075
1.15
1.04
0.725
0.295
-0.115
-0.44
-0.625
-0.65
-0.58
-0.515
-0.515
-0.52
-0.565
-0.595
-0.635
-0.655
-0.645
-0.635
-0.64
-0.67
-0.685
-0.675
-0.67
-0.66
-0.665
-0.65
-0.63
-0.595
-0.545
-0.495
-0.45
-0.4
-0.345
-0.265
-0.195
-0.185
-0.185
-0.205
-0.2
-0.185
-0.155
-0.135
-0.115
-0.125
-0.12
-0.11
-0.09
-0.08
-0.095
-0.095
-0.07
-0.05
-0.045
-0.025
-0.025
-0.025
-0.035
-0.03
0.0
0.025
0.025
0.025
0.03
0.05
0.085
0.08
0.085
0.075
0.06
0.085
0.125
0.155
0.165
0.17
0.18
0.2
0.22
0.22
0.215
0.23
0.245
0.255
0.29
0.305
0.31
0.305
0.32
0.32
0.345
0.36
0.345
0.33
0.335
0.33
0.33
0.31
0.29
0.24
0.21
0.195
0.185
0.18
0.145
0.105
0.085
0.07
0.05
0.025
0.005
-0.035
-0.045
-0.05
-0.05
-0.045
-0.08
-0.115
-0.135
-0.155
-0.14
-0.14
-0.145
-0.175
-0.16
-0.16
-0.155
-0.15
-0.175
-0.195
-0.19
-0.18
-0.17
-0.16
-0.17
-0.185
-0.18
-0.17
-0.165
-0.17
-0.17
-0.175
-0.18
-0.17
-0.15
-0.14
-0.16
-0.185
-0.21
-0.185
-0.16
-0.145
-0.17
-0.185
-0.175
-0.16
-0.145
-0.165
-0.18
-0.19
-0.19
-0.175
-0.17
-0.17
-0.17
-0.195
-0.195
-0.19
-0.185
-0.19
-0.185
-0.19
-0.19
-0.17
-0.165
-0.175
-0.195
-0.2
-0.22
-0.22
-0.19
-0.17
-0.16
-0.13
-0.125
-0.11
-0.08
-0.07
-0.07
-0.065
-0.05
-0.025
0.02
0.03
0.025
0.02
0.04
0.065
0.075
0.085
0.085
0.065
0.05
0.035
0.025
-0.01
-0.07
-0.13
-0.175
-0.18
-0.17
-0.165
-0.185
-0.235
-0.23
-0.25
-0.245
-0.255
-0.265
-0.28
-0.28
-0.27
-0.27
-0.26
-0.27
-0.305
-0.325
-0.295
-0.275
-0.275
-0.29
-0.28
-0.28
-0.27
-0.26
-0.25
-0.27
-0.26
-0.265
-0.225
-0.175
-0.11
-0.05
0.03
0.15
0.33
0.535
0.765
0.975
1.12
1.165
1.03
0.71
0.27
-0.135
-0.435
-0.545
-0.5
-0.42
-0.365
-0.38
-0.425
-0.455
-0.48
-0.505
-0.54
-0.565
-0.57
-0.56
-0.54
-0.53
-0.535
-0.545
-0.585
-0.6
-0.585
-0.55
-0.52
-0.5
-0.485
-0.435
-0.36
-0.28
-0.215
-0.18
-0.16
-0.16
-0.135
-0.105
-0.08
-0.075
-0.07
-0.07
-0.055
-0.035
-0.03
-0.035
-0.04
-0.035
-0.01
0.01
0.025
0.02
0.015
0.015
0.015
0.03
0.035
0.035
0.03
0.04
0.055
0.075
0.085
0.1
0.08
0.085
0.11
0.125
0.15
0.145
0.14
0.145
0.18
0.18
0.195
0.205
0.21
0.215
0.235
0.275
0.27
0.27
0.27
0.28
0.285
0.29
0.3
0.31
0.325
0.32
0.345
0.35
0.345
0.31
0.28
0.255
0.245
0.235
0.225
0.215
0.185
0.15
0.145
0.135
0.1
0.08
0.025
0.02
0.025
0.035
0.025
-0.01
-0.045
-0.07
-0.08
-0.09
-0.105
-0.125
-0.135
-0.125
-0.14
-0.115
-0.14
-0.155
-0.175
-0.195
-0.195
-0.17
-0.16
-0.165
-0.175
-0.19
-0.18
-0.17
-0.185
-0.195
-0.21
-0.215
-0.2
-0.175
-0.17
-0.165
-0.185
-0.21
-0.215
-0.195
-0.2
-0.2
-0.22
-0.22
-0.19
-0.18
-0.18
-0.2
-0.205
-0.215
-0.205
-0.2
-0.195
-0.205
-0.205
-0.21
-0.21
-0.2
-0.205
-0.22
-0.24
-0.245
-0.23
-0.245
-0.22
-0.235
-0.24
-0.26
-0.245
-0.245
-0.24
-0.24
-0.225
-0.21
-0.175
-0.15
-0.135
-0.135
-0.135
-0.135
-0.115
-0.085
-0.085
-0.07
-0.055
-0.04
-0.005
0.0
-0.015
-0.015
-0.03
-0.055
-0.05
-0.07
-0.08
-0.13
-0.17
-0.22
-0.25
-0.265
-0.29
-0.3
-0.32
-0.34
-0.335
-0.325
-0.31
-0.345
-0.37
-0.385
-0.385
-0.365
-0.365
-0.375
-0.38
-0.385
-0.38
-0.365
-0.375
-0.39
-0.415
-0.415
-0.39
-0.36
-0.35
-0.35
-0.375
-0.365
-0.345
-0.34
-0.295
-0.27
-0.21
-0.115
0.03
0.205
0.385
0.58
0.785
0.94
1.0
0.865
0.535
0.1
-0.3
-0.565
-0.645
-0.6
-0.535
-0.51
-0.54
-0.565
-0.585
-0.59
-0.635
-0.675
-0.685
-0.695
-0.695
-0.675
-0.7
-0.73
-0.75
-0.75
-0.72
-0.675
-0.655
-0.64
-0.64
-0.605
-0.52
-0.43
-0.355
-0.305
-0.305
-0.3
-0.305
-0.285
-0.275
-0.265
-0.28
-0.275
-0.245
-0.225
-0.22
-0.235
-0.25
-0.255
-0.24
-0.225
-0.225
-0.235
-0.235
-0.225
-0.205
-0.19
-0.175
-0.2
-0.205
-0.195
-0.175
-0.16
-0.15
-0.15
-0.155
-0.175
-0.15
-0.13
-0.12
-0.125
-0.125
-0.11
-0.085
-0.07
-0.055
-0.055
-0.06
-0.05
-0.045
-0.015
0.005
0.005
0.0
0.01
0.0
0.005
0.01
0.02
0.0
-0.005
-0.015
-0.015
-0.025
-0.05
-0.085
-0.11
-0.135
-0.15
-0.17
-0.195
-0.22
-0.235
-0.25
-0.255
-0.285
-0.315
-0.35
-0.355
-0.37
-0.365
-0.365
-0.395
-0.415
-0.44
-0.445
-0.465
-0.475
-0.48
-0.49
-0.49
-0.48
-0.47
-0.475
-0.495
-0.51
-0.515
-0.515
-0.49
-0.49
-0.485
-0.49
-0.48
-0.5
-0.5
-0.5
-0.49
-0.51
-0.52
-0.515
-0.49
-0.48
-0.495
-0.525
-0.535
-0.525
-0.52
-0.53
-0.525
-0.535
-0.525
-0.515
-0.52
-0.505
-0.525
-0.545
-0.545
-0.545
-0.515
-0.51
-0.505
-0.51
-0.52
-0.515
-0.51
-0.51
-0.52
-0.52
-0.505
-0.475
-0.455
-0.44
-0.455
-0.455
-0.44
-0.42
-0.395
-0.365
-0.35
-0.335
-0.325
-0.305
-0.285
-0.29
-0.29
-0.32
-0.335
-0.355
-0.335
-0.36
-0.41
-0.475
-0.515
-0.52
-0.525
-0.555
-0.58
-0.6
-0.61
-0.61
-0.59
-0.585
-0.61
-0.635
-0.645
-0.65
-0.625
-0.62
-0.625
-0.645
-0.635
-0.62
-0.625
-0.64
-0.66
-0.645
-0.645
-0.625
-0.615
-0.59
-0.595
-0.595
-0.59
-0.575
-0.53
-0.495
-0.425
-0.36
-0.205
-0.025
0.195
0.42
0.61
0.755
0.795
0.68
0.375
-0.045
-0.45
-0.74
-0.875
-0.855
-0.785
-0.755
-0.795
-0.825
-0.845
-0.845
-0.865
-0.9
-0.92
-0.935
-0.93
-0.92
-0.93
-0.925
-0.955
-0.97
-0.985
-0.95
-0.93
-0.88
-0.86
-0.84
-0.81
-0.74
-0.68
-0.615
-0.555
-0.52
-0.495
-0.465
-0.46
-0.46
-0.44
-0.44
-0.435
-0.405
-0.375
-0.36
-0.36
-0.37
-0.375
-0.36
-0.355
-0.345
-0.33
-0.33
-0.32
-0.3
-0.285
-0.275
-0.285
-0.3
-0.3
-0.27
-0.25
-0.23
-0.245
-0.24
-0.235
-0.205
-0.185
-0.165
-0.17
-0.17
-0.16
-0.135
-0.1
-0.09
-0.08
-0.095
-0.085
-0.065
-0.05
-0.035
-0.03
-0.025
-0.015
0.025
0.03
0.035
0.035
0.02
0.02
0.015
0.03
0.025
0.01
-0.02
-0.055
-0.08
-0.095
-0.12
-0.15
-0.195
-0.21
-0.21
-0.215
-0.235
-0.27
-0.315
-0.335
-0.345
-0.365
-0.37
-0.385
-0.41
-0.425
-0.42
-0.44
-0.44
-0.445
-0.47
-0.475
-0.485
-0.465
-0.48
-0.5
-0.51
-0.5
-0.51
-0.495
-0.5
-0.49
-0.49
-0.49
-0.485
-0.475
-0.49
-0.49
-0.505
-0.505
-0.505
-0.48
-0.485
-0.475
-0.495
-0.505
-0.49
-0.475
-0.48
-0.48
-0.49
-0.5
-0.48
-0.455
-0.465
-0.49
-0.5
-0.51
-0.5
-0.485
-0.475
-0.47
-0.465
-0.445
-0.425
-0.41
-0.4
-0.405
-0.4
-0.395
-0.37
-0.32
-0.3
-0.29
-0.3
-0.27
-0.265
-0.245
-0.235
-0.23
-0.255
-0.24
-0.235
-0.235
-0.26
-0.31
-0.36
-0.405
-0.435
-0.425
-0.43
-0.445
-0.47
-0.475
-0.475
-0.48
-0.485
-0.5
-0.495
-0.49
-0.485
-0.49
-0.475
-0.485
-0.515
-0.525
-0.53
-0.5
-0.485
-0.485
-0.49
-0.48
-0.465
-0.465
-0.455
-0.44
-0.46
-0.445
-0.4
-0.33
-0.25
-0.15
-0.005
0.19
0.445
0.705
0.945
1.065
0.98
0.69
0.235
-0.215
-0.58
-0.76
-0.79
-0.7
-0.63
-0.61
-0.63
-0.68
-0.72
-0.765
-0.785
-0.78
-0.765
-0.74
-0.75
-0.75
-0.77
-0.77
-0.785
-0.775
-0.745
-0.68
-0.62
-0.555
-0.505
-0.49
-0.445
-0.375
-0.295
-0.215
-0.18
-0.185
-0.23
-0.255
-0.26
-0.225
-0.18
-0.175
-0.215
-0.235
-0.22
-0.185
-0.145
-0.125
-0.095
-0.085
-0.08
-0.06
-0.045
-0.045
-0.04
-0.015
-0.005
-0.015
-0.05
-0.115
-0.18
-0.165
-0.11
-0.055
-0.045
-0.07
-0.105
-0.11
-0.085
-0.03
0.015
0.045
0.06
0.09
0.13
0.175
0.135
0.035
-0.045
-0.05
0.025
0.085
0.095
0.1
0.105
0.115
0.105
0.085
0.02
-0.06
-0.125
-0.145
-0.18
-0.2
-0.22
-0.255
-0.285
-0.285
-0.285
-0.285
-0.29
-0.33
-0.34
-0.33
-0.325
-0.325
-0.34
-0.37
-0.395
-0.405
-0.41
-0.38
-0.38
-0.41
-0.415
-0.425
-0.41
-0.37
-0.34
-0.36
-0.39
-0.38
-0.355
-0.34
-0.35
-0.345
-0.33
-0.33
-0.315
-0.3
-0.285
-0.29
-0.305
-0.305
-0.255
-0.2
-0.155
-0.165
-0.19
-0.2
-0.185
-0.145
-0.145
-0.17
-0.195
-0.195
-0.105
-0.025
-0.005
-0.08
-0.18
-0.225
-0.175
-0.13
-0.07
-0.04
-0.035
-0.01
0.035
0.1
0.105
0.07
0.03
0.03
0.07
0.125
0.1
-0.005
-0.14
-0.22
-0.24
-0.23
-0.22
-0.215
-0.205
-0.195
-0.215
-0.22
-0.255
-0.3
-0.34
-0.34
-0.285
-0.23
-0.195
-0.215
-0.245
-0.255
-0.23
-0.235
-0.275
-0.335
-0.34
-0.32
-0.29
-0.31
-0.325
-0.335
-0.32
-0.275
-0.195
-0.12
-0.04
0.015
0.07
0.2
0.395
0.62
0.82
1.045
1.2
1.225
1.045
0.65
0.145
-0.295
-0.55
-0.61
-0.53
-0.405
-0.39
-0.505
-0.685
-0.78
-0.775
-0.71
-0.65
-0.595
-0.595
-0.62
-0.62
-0.605
-0.625
-0.625
-0.555
-0.48
-0.44
-0.475
-0.525
-0.5
-0.415
-0.335
-0.265
-0.215
-0.135
-0.095
-0.065
-0.08
-0.105
-0.13
-0.145
-0.135
-0.105
-0.07
-0.04
-0.005
0.03
0.075
0.095
0.045
0.03
0.03
0.025
-0.015
-0.075
-0.07
-0.005
0.05
0.075
0.05
0.05
0.065
0.1
0.125
0.185
0.215
0.21
0.195
0.16
0.15
0.155
0.23
0.275
0.275
0.26
0.25
0.255
0.295
0.35
0.36
0.335
0.315
0.36
0.41
0.4
0.305
0.22
0.225
0.24
0.21
0.155
0.1
0.105
0.145
0.17
0.14
0.1
0.02
-0.015
-0.045
-0.055
-0.05
-0.025
-0.035
-0.05
-0.085
-0.14
-0.205
-0.215
-0.225
-0.195
-0.19
-0.175
-0.085
-0.065
-0.13
-0.21
-0.245
-0.285
-0.285
-0.27
-0.24
-0.205
-0.17
-0.14
-0.13
-0.135
-0.165
-0.14
-0.08
-0.055
-0.065
-0.14
-0.265
-0.32
-0.3
-0.23
-0.18
-0.18
-0.215
-0.285
-0.3
-0.24
-0.145
-0.08
-0.08
-0.065
-0.025
-0.02
-0.035
0.005
0.07
0.07
0.005
-0.07
-0.075
-0.03
0.025
0.075
0.075
0.105
0.135
0.115
0.095
0.075
0.08
0.06
-0.03
-0.115
-0.15
-0.115
-0.105
-0.185
-0.26
-0.26
-0.235
-0.215
-0.195
-0.24
-0.295
-0.325
-0.285
-0.23
-0.21
-0.22
-0.225
-0.19
-0.165
-0.22
-0.255
-0.255
-0.26
-0.285
-0.33
-0.285
-0.18
-0.11
-0.12
-0.225
-0.28
-0.19
-0.01
0.205
0.435
0.67
0.865
1.08
1.225
1.12
0.735
0.235
-0.16
-0.4
-0.53
-0.585
-0.58
-0.58
-0.56
-0.55
-0.54
-0.57
-0.64
-0.685
-0.705
-0.655
-0.63
-0.635
-0.65
-0.62
-0.545
-0.485
-0.5
-0.6
-0.68
-0.66
-0.59
-0.53
-0.485
-0.44
-0.4
-0.375
-0.355
-0.29
-0.225
-0.195
-0.21
-0.195
-0.165
-0.145
-0.13
-0.175
-0.2
-0.205
-0.205
-0.185
-0.17
-0.195
-0.25
-0.265
-0.235
-0.17
-0.105
-0.075
-0.065
-0.07
-0.06
-0.09
-0.125
-0.115
-0.085
-0.045
-0.035
-0.05
-0.085
-0.115
-0.12
-0.105
-0.075
-0.015
0.04
0.115
0.14
0.1
0.035
0.005
0.03
0.035
0.035
0.0
0.02
0.07
0.1
0.13
0.12
0.095
0.09
0.085
0.045
-0.035
-0.11
-0.145
-0.175
-0.175
-0.195
-0.225
-0.25
-0.24
-0.235
-0.24
-0.235
-0.28
-0.34
-0.4
-0.425
-0.405
-0.37
-0.345
-0.355
-0.405
-0.48
-0.515
-0.455
-0.425
-0.49
-0.61
-0.66
-0.61
-0.535
-0.51
-0.52
-0.56
-0.54
-0.48
-0.44
-0.43
-0.45
-0.485
-0.49
-0.45
-0.445
-0.46
-0.48
-0.485
-0.515
-0.495
-0.455
-0.46
-0.535
-0.6
-0.61
-0.57
-0.605
-0.605
-0.605
-0.575
-0.515
-0.455
-0.4
-0.375
-0.345
-0.33
-0.31
-0.29
-0.305
-0.355
-0.375
-0.34
-0.295
-0.22
-0.185
-0.21
-0.295
-0.36
-0.35
-0.34
-0.37
-0.46
-0.52
-0.53
-0.52
-0.515
-0.525
-0.54
-0.53
-0.555
-0.565
-0.58
-0.56
-0.555
-0.585
-0.62
-0.605
-0.56
-0.535
-0.515
-0.505
-0.49
-0.465
-0.495
-0.565
-0.655
-0.71
-0.675
-0.6
-0.555
-0.58
-0.62
-0.625
-0.615
-0.515
-0.37
-0.23
-0.095
0.055
0.265
0.545
0.795
0.935
0.85
0.545
0.095
-0.36
-0.7
-0.83
-0.78
-0.72
-0.775
-0.835
-0.85
-0.85
-0.9
-0.95
-0.945
-0.915
-0.885
-0.9
-0.9
-0.88
-0.87
-0.88
-0.89
-0.875
-0.84
-0.77
-0.735
-0.675
-0.64
-0.565
-0.495
-0.455
-0.45
-0.47
-0.445
-0.37
-0.315
-0.28
-0.305
-0.315
-0.265
-0.19
-0.205
-0.295
-0.385
-0.355
-0.275
-0.195
-0.17
-0.21
-0.305
-0.375
-0.37
-0.28
-0.195
-0.16
-0.145
-0.14
-0.085
-0.045
-0.095
-0.13
-0.09
-0.03
0.04
0.065
0.085
0.035
-0.085
-0.165
-0.11
0.03
0.085
0.05
-0.02
-0.045
0.02
0.1
0.125
0.13
0.11
0.12
0.15
0.175
0.155
0.13
0.075
0.005
-0.065
-0.09
-0.1
-0.135
-0.205
-0.265
-0.245
-0.26
-0.325
-0.36
-0.38
-0.34
-0.32
-0.33
-0.345
-0.355
-0.375
-0.36
-0.335
-0.325
-0.34
-0.355
-0.335
-0.29
-0.225
-0.205
-0.255
-0.355
-0.43
-0.47
-0.47
-0.425
-0.375
-0.345
-0.335
-0.38
-0.45
-0.47
-0.415
-0.36
-0.34
-0.37
-0.395
-0.4
-0.385
-0.36
-0.345
-0.3
-0.235
-0.2
-0.145
-0.12
-0.195
-0.315
-0.385
-0.335
-0.275
-0.29
-0.33
-0.335
-0.275
-0.205
-0.145
-0.105
-0.07
-0.06
-0.06
-0.055
-0.06
-0.025
-0.02
-0.065
-0.115
-0.135
-0.12
-0.14
-0.17
-0.21
-0.25
-0.32
-0.345
-0.36
-0.39
-0.42
-0.44
-0.405
-0.385
-0.375
-0.355
-0.35
-0.33
-0.31
-0.305
-0.345
-0.415
-0.43
-0.425
-0.395
-0.39
-0.37
-0.365
-0.345
-0.31
-0.255
-0.23
-0.255
-0.31
-0.355
-0.29
-0.2
-0.135
-0.085
-0.01
0.195
0.44
0.63
0.815
0.98
1.1
1.08
0.86
0.435
0.015
-0.36
-0.585
-0.635
-0.575
-0.495
-0.45
-0.425
-0.445
-0.515
-0.635
-0.725
-0.77
-0.73
-0.675
-0.6
-0.575
-0.605
-0.66
-0.695
-0.69
-0.68
-0.67
-0.655
-0.605
-0.54
-0.46
-0.405
-0.32
-0.25
-0.19
-0.175
-0.17
-0.14
-0.09
-0.1
-0.155
-0.21
-0.18
-0.15
-0.13
-0.095
-0.05
-0.015
-0.03
-0.09
-0.145
-0.155
-0.155
-0.125
-0.11
-0.075
-0.025
0.015
0.025
-0.01
-0.045
-0.035
0.02
0.08
0.095
0.045
0.025
0.065
0.135
0.16
0.145
0.135
0.15
0.16
0.15
0.155
0.2
0.235
0.225
0.175
0.15
0.18
0.205
0.215
0.26
0.28
0.315
0.31
0.265
0.19
0.17
0.155
0.11
0.07
0.05
0.06
0.055
0.035
-0.015
-0.035
-0.04
-0.055
-0.09
-0.115
-0.13
-0.13
-0.14
-0.19
-0.205
-0.225
-0.25
-0.26
-0.285
-0.31
-0.325
-0.285
-0.25
-0.19
-0.14
-0.17
-0.3
-0.425
-0.425
-0.355
-0.24
-0.195
-0.215
-0.28
-0.315
-0.295
-0.245
-0.175
-0.18
-0.25
-0.33
-0.33
-0.265
-0.245
-0.255
-0.275
-0.28
-0.29
-0.29
-0.275
-0.24
-0.205
-0.19
-0.23
-0.295
-0.345
-0.34
-0.275
-0.22
-0.18
-0.19
-0.195
-0.17
-0.115
-0.075
-0.05
-0.095
-0.125
-0.105
-0.04
0.07
0.16
0.13
-0.005
-0.16
-0.235
-0.215
-0.17
-0.13
-0.13
-0.17
-0.235
-0.27
-0.275
-0.295
-0.32
-0.315
-0.285
-0.215
-0.195
-0.24
-0.345
-0.44
-0.47
-0.41
-0.355
-0.34
-0.35
-0.365
-0.385
-0.41
-0.42
-0.415
-0.42
-0.41
-0.405
-0.37
-0.325
-0.27
-0.245
-0.26
-0.325
-0.345
-0.3
-0.205
-0.085
0.025
0.24
0.495
0.785
1.015
1.12
1.03
0.785
0.415
0.01
-0.35
-0.545
-0.605
-0.58
-0.56
-0.55
-0.555
-0.57
-0.58
-0.605
-0.6
-0.595
-0.61
-0.63
-0.665
-0.685
-0.71
-0.71
-0.705
-0.665
-0.61
-0.54
-0.505
-0.515
-0.54
-0.57
-0.55
-0.48
-0.365
-0.26
-0.215
-0.205
-0.215
-0.205
-0.19
-0.125
-0.075
-0.085
-0.135
-0.165
-0.18
-0.155
-0.13
-0.09
-0.055
-0.045
-0.09
-0.15
-0.155
-0.165
-0.195
-0.185
-0.13
-0.045
0.015
0.02
-0.03
-0.065
-0.085
-0.065
-0.025
-0.02
-0.005
0.005
0.04
0.08
0.095
0.085
0.08
0.085
0.12
0.165
0.18
0.19
0.195
0.24
0.27
0.235
0.17
0.115
0.125
0.16
0.175
0.17
0.185
0.18
0.15
0.105
0.05
0.025
0.005
0.025
0.015
0.04
0.045
0.005
-0.085
-0.19
-0.195
-0.145
-0.1
-0.125
-0.17
-0.205
-0.235
-0.27
-0.285
-0.27
-0.245
-0.255
-0.265
-0.26
-0.255
-0.26
-0.35
-0.45
-0.48
-0.47
-0.455
-0.46
-0.415
-0.365
-0.305
-0.27
-0.3
-0.38
-0.445
-0.46
-0.47
-0.44
-0.41
-0.385
-0.34
-0.33
-0.31
-0.3
-0.31
-0.345
-0.385
-0.415
-0.435
-0.415
-0.385
-0.37
-0.375
-0.38
-0.395
-0.41
-0.445
-0.435
-0.405
-0.395
-0.405
-0.41
-0.385
-0.32
-0.245
-0.2
-0.23
-0.285
-0.335
-0.38
-0.365
-0.3
-0.23
-0.2
-0.23
-0.275
-0.28
-0.235
-0.18
-0.185
-0.25
-0.29
-0.275
-0.26
-0.255
-0.285
-0.34
-0.35
-0.355
-0.335
-0.33
-0.35
-0.38
-0.425
-0.455
-0.475
-0.48
-0.465
-0.415
-0.355
-0.35
-0.41
-0.53
-0.595
-0.555
-0.49
-0.44
-0.445
-0.51
-0.575
-0.58
-0.55
-0.54
-0.545
-0.54
-0.505
-0.46
-0.465
-0.51
-0.545
-0.485
-0.365
-0.26
-0.14
-0.01
0.17
0.375
0.615
0.86
0.99
0.965
0.7
0.31
-0.115
-0.465
-0.7
-0.775
-0.73
-0.69
-0.71
-0.735
-0.74
-0.745
-0.77
-0.815
-0.845
-0.865
-0.84
-0.82
-0.805
-0.8
-0.795
-0.81
-0.845
-0.84
-0.83
-0.77
-0.72
-0.69
-0.645
-0.565
-0.51
-0.46
-0.415
-0.39
-0.4
-0.43
-0.47
-0.49
-0.465
-0.41
-0.355
-0.35
-0.345
-0.35
-0.3
-0.27
-0.265
-0.275
-0.235
-0.2
-0.165
-0.125
-0.145
-0.155
-0.155
-0.18
-0.235
-0.275
-0.24
-0.18
-0.12
-0.125
-0.135
-0.125
-0.13
-0.17
-0.17
-0.165
-0.155
-0.13
-0.095
-0.09
-0.085
-0.08
-0.025
0.06
0.13
0.145
0.075
0.02
0.045
0.14
0.175
0.135
0.04
0.02
0.07
0.085
0.05
0.005
0.005
0.01
0.015
0.01
-0.02
-0.065
-0.14
-0.16
-0.12
-0.085
-0.15
-0.28
-0.355
-0.325
-0.265
-0.235
-0.28
-0.335
-0.37
-0.345
-0.295
-0.305
-0.4
-0.52
-0.55
-0.515
-0.46
-0.405
-0.37
-0.33
-0.34
-0.405
-0.475
-0.505
-0.465
-0.41
-0.38
-0.38
-0.415
-0.465
-0.5
-0.505
-0.48
-0.425
-0.355
-0.285
-0.23
-0.27
-0.395
-0.51
-0.535
-0.45
-0.385
-0.395
-0.45
-0.525
-0.535
-0.485
-0.43
-0.42
-0.42
-0.395
-0.375
-0.385
-0.4
-0.435
-0.44
-0.435
-0.365
-0.3
-0.245
-0.225
-0.2
-0.205
-0.175
-0.15
-0.145
-0.23
-0.375
-0.465
-0.435
-0.345
-0.255
-0.185
-0.185
-0.19
-0.185
-0.195
-0.185
-0.21
-0.23
-0.255
-0.29
-0.325
-0.35
-0.365
-0.37
-0.4
-0.395
-0.385
-0.385
-0.405
-0.415
-0.43
-0.445
-0.42
-0.385
-0.41
-0.475
-0.525
-0.525
-0.49
-0.46
-0.43
-0.43
-0.445
-0.44
-0.42
-0.415
-0.4
-0.415
-0.425
-0.435
-0.41
-0.37
-0.345
-0.33
-0.305
-0.255
-0.15
0.01
0.185
0.395
0.6
0.825
1.005
1.11
1.04
0.775
0.385
0.0
-0.31
-0.475
-0.51
-0.49
-0.475
-0.5
-0.545
-0.605
-0.67
-0.755
-0.815
-0.84
-0.82
-0.79
-0.765
-0.755
-0.78
-0.785
-0.785
-0.77
-0.76
-0.74
-0.705
