Lead II
-0.535
-0.53
-0.525
-0.53
-0.53
-0.53
-0.54
-0.52
-0.525
-0.515
-0.535
-0.53
-0.525
-0.51
-0.5
-0.485
-0.495
-0.505
-0.515
-0.51
-0.51
-0.52
-0.52
-0.51
-0.49
-0.495
-0.48
-0.485
-0.48
-0.485
-0.475
-0.49
-0.495
-0.48
-0.49
-0.48
-0.475
-0.48
-0.475
-0.47
-0.465
-0.46
-0.465
-0.46
-0.47
-0.47
-0.465
-0.46
-0.455
-0.45
-0.44
-0.43
-0.425
-0.445
-0.425
-0.415
-0.425
-0.425
-0.415
-0.41
-0.4
-0.405
-0.39
-0.39
-0.385
-0.385
-0.39
-0.375
-0.365
-0.35
-0.35
-0.34
-0.33
-0.325
-0.33
-0.34
-0.35
-0.35
-0.35
-0.36
-0.37
-0.375
-0.36
-0.375
-0.36
-0.335
-0.315
-0.295
-0.29
-0.28
-0.29
-0.3
-0.31
-0.33
-0.345
-0.355
-0.375
-0.375
-0.38
-0.375
-0.375
-0.38
-0.385
-0.395
-0.4
-0.4
-0.38
-0.395
-0.39
-0.385
-0.4
-0.405
-0.41
-0.385
-0.325
-0.25
-0.16
-0.06
0.02
0.075
0.085
0.045
-0.07
-0.225
-0.385
-0.475
-0.44
-0.3
-0.06
0.19
0.45
0.7
0.93
1.14
1.345
1.525
1.66
1.76
1.815
1.82
1.79
1.73
1.665
1.56
1.395
1.225
1.03
0.825
0.595
0.35
0.095
-0.15
-0.35
-0.515
-0.605
-0.65
-0.64
-0.605
-0.57
-0.54
-0.515
-0.48
-0.455
-0.445
-0.445
-0.435
-0.44
-0.43
-0.43
-0.445
-0.435
-0.44
-0.445
-0.435
-0.44
-0.435
-0.43
-0.43
-0.43
-0.43
-0.415
-0.41
-0.405
-0.395
-0.415
-0.4
-0.395
-0.4
-0.42
-0.42
-0.415
-0.425
-0.415
-0.415
-0.415
-0.395
-0.4
-0.405
-0.425
-0.435
-0.44
-0.445
-0.45
-0.445
-0.45
-0.455
-0.435
-0.445
-0.435
-0.445
-0.46
-0.465
-0.475
-0.475
-0.485
-0.465
-0.475
-0.465
-0.46
-0.47
-0.465
-0.48
-0.495
-0.51
-0.505
-0.51
-0.515
-0.515
-0.52
-0.515
-0.505
-0.515
-0.51
-0.52
-0.53
-0.535
-0.55
-0.555
-0.56
-0.565
-0.555
-0.545
-0.545
-0.53
-0.53
-0.53
-0.525
-0.53
-0.535
-0.54
-0.535
-0.525
-0.505
-0.495
-0.47
-0.46
-0.435
-0.445
-0.435
-0.42
-0.41
-0.405
-0.385
-0.375
-0.34
-0.32
-0.3
-0.27
-0.25
-0.24
-0.22
-0.23
-0.22
-0.205
-0.195
-0.2
-0.18
-0.165
-0.16
-0.155
-0.145
-0.15
-0.16
-0.175
-0.18
-0.19
-0.19
-0.195
-0.2
-0.2
-0.205
-0.195
-0.21
-0.215
-0.235
-0.255
-0.275
-0.295
-0.305
-0.32
-0.325
-0.335
-0.33
-0.34
-0.345
-0.37
-0.37
-0.38
-0.39
-0.405
-0.4
-0.41
-0.415
-0.4
-0.4
-0.4
-0.395
-0.4
-0.405
-0.415
-0.41
-0.41
-0.41
-0.4
-0.41
-0.395
-0.385
-0.37
-0.38
-0.375
-0.37
-0.37
-0.38
-0.38
-0.365
-0.365
-0.36
-0.35
-0.35
-0.325
-0.33
-0.325
-0.33
-0.325
-0.325
-0.325
-0.345
-0.34
-0.33
-0.325
-0.32
-0.31
-0.305
-0.305
-0.305
-0.31
-0.32
-0.325
-0.315
-0.33
-0.32
-0.315
-0.31
-0.305
-0.31
-0.3
-0.295
-0.305
-0.325
-0.315
-0.32
-0.325
-0.32
-0.315
-0.315
-0.31
-0.315
-0.315
-0.31
-0.31
-0.31
-0.325
-0.32
-0.315
-0.32
-0.315
-0.305
-0.305
-0.29
-0.29
-0.3
-0.305
-0.315
-0.32
-0.33
-0.33
-0.335
-0.315
-0.3
-0.305
-0.305
-0.305
-0.295
-0.31
-0.3
-0.31
-0.325
-0.325
-0.32
-0.31
-0.31
-0.305
-0.305
-0.31
-0.305
-0.305
-0.335
-0.335
-0.33
-0.325
-0.32
-0.335
-0.31
-0.315
-0.3
-0.3
-0.305
-0.31
-0.315
-0.325
-0.34
-0.33
-0.325
-0.335
-0.33
-0.315
-0.315
-0.31
-0.335
-0.32
-0.33
-0.335
-0.34
-0.34
-0.345
-0.34
-0.34
-0.345
-0.325
-0.33
-0.33
-0.34
-0.355
-0.35
-0.355
-0.345
-0.34
-0.345
-0.34
-0.345
-0.34
-0.33
-0.335
-0.35
-0.345
-0.35
-0.35
-0.35
-0.345
-0.345
-0.32
-0.32
-0.335
-0.345
-0.35
-0.345
-0.355
-0.32
-0.305
-0.295
-0.295
-0.29
-0.29
-0.295
-0.28
-0.29
-0.305
-0.315
-0.34
-0.34
-0.35
-0.345
-0.345
-0.345
-0.325
-0.315
-0.29
-0.3
-0.295
-0.29
-0.31
-0.305
-0.325
-0.33
-0.34
-0.355
-0.37
-0.38
-0.395
-0.39
-0.405
-0.42
-0.42
-0.415
-0.43
-0.435
-0.43
-0.425
-0.425
-0.425
-0.435
-0.445
-0.455
-0.45
-0.41
-0.335
-0.25
-0.15
-0.07
-0.005
0.02
-0.025
-0.13
-0.285
-0.425
-0.485
-0.43
-0.265
-0.035
0.225
0.475
0.71
0.93
1.15
1.355
1.525
1.665
1.71
1.715
1.65
1.54
1.38
1.17
0.935
0.675
0.44
0.2
-0.05
-0.285
-0.505
-0.665
-0.78
-0.805
-0.805
-0.775
-0.74
-0.695
-0.65
-0.625
-0.605
-0.6
-0.59
-0.595
-0.61
-0.615
-0.615
-0.615
-0.61
-0.605
-0.59
-0.595
-0.595
-0.6
-0.61
-0.61
-0.615
-0.625
-0.625
-0.63
-0.64
-0.63
-0.62
-0.615
-0.615
-0.62
-0.625
-0.64
-0.65
-0.66
-0.65
-0.66
-0.655
-0.665
-0.66
-0.655
-0.655
-0.665
-0.68
-0.69
-0.71
-0.705
-0.715
-0.71
-0.715
-0.715
-0.705
-0.705
-0.71
-0.725
-0.735
-0.745
-0.755
-0.77
-0.76
-0.775
-0.775
-0.78
-0.78
-0.785
-0.79
-0.795
-0.805
-0.815
-0.82
-0.835
-0.84
-0.84
-0.84
-0.845
-0.84
-0.835
-0.84
-0.84
-0.855
-0.875
-0.86
-0.865
-0.855
-0.855
-0.835
-0.815
-0.82
-0.81
-0.785
-0.785
-0.78
-0.78
-0.765
-0.75
-0.745
-0.71
-0.69
-0.675
-0.655
-0.62
-0.61
-0.595
-0.59
-0.565
-0.555
-0.55
-0.54
-0.525
-0.5
-0.505
-0.475
-0.46
-0.465
-0.47
-0.48
-0.48
-0.495
-0.51
-0.51
-0.51
-0.525
-0.53
-0.54
-0.56
-0.575
-0.57
-0.6
-0.61
-0.635
-0.645
-0.67
-0.695
-0.695
-0.685
-0.685
-0.695
-0.71
-0.72
-0.74
-0.765
-0.775
-0.77
-0.77
-0.775
-0.76
-0.755
-0.735
-0.75
-0.755
-0.745
-0.75
-0.745
-0.745
-0.74
-0.73
-0.73
-0.725
-0.715
-0.71
-0.7
-0.705
-0.715
-0.715
-0.72
-0.725
-0.735
-0.745
-0.735
-0.725
-0.725
-0.71
-0.695
-0.69
-0.71
-0.715
-0.71
-0.715
-0.72
-0.715
-0.715
-0.7
-0.7
-0.695
-0.695
-0.7
-0.69
-0.71
-0.715
-0.73
-0.73
-0.74
-0.715
-0.705
-0.71
-0.705
-0.7
-0.7
-0.705
-0.72
-0.725
-0.73
-0.72
-0.73
-0.73
-0.725
-0.72
-0.7
-0.7
-0.705
-0.705
-0.715
-0.72
-0.73
-0.735
-0.73
-0.73
-0.72
-0.71
-0.715
-0.705
-0.705
-0.72
-0.72
-0.72
-0.725
-0.745
-0.735
-0.735
-0.74
-0.72
-0.71
-0.71
-0.72
-0.725
-0.725
-0.73
-0.74
-0.745
-0.735
-0.735
-0.725
-0.72
-0.705
-0.725
-0.72
-0.725
-0.73
-0.735
-0.74
-0.74
-0.74
-0.735
-0.735
-0.735
-0.73
-0.73
-0.73
-0.725
-0.74
-0.74
-0.745
-0.765
-0.755
-0.765
-0.75
-0.745
-0.74
-0.735
-0.73
-0.745
-0.75
-0.75
-0.76
-0.755
-0.755
-0.76
-0.75
-0.75
-0.74
-0.745
-0.74
-0.765
-0.75
-0.755
-0.765
-0.765
-0.775
-0.775
-0.77
-0.76
-0.765
-0.765
-0.745
-0.755
-0.76
-0.755
-0.765
-0.78
-0.77
-0.765
-0.77
-0.77
-0.755
-0.76
-0.765
-0.775
-0.765
-0.77
-0.775
-0.775
-0.785
-0.76
-0.76
-0.755
-0.74
-0.74
-0.74
-0.775
-0.765
-0.765
-0.775
-0.76
-0.765
-0.74
-0.725
-0.72
-0.71
-0.7
-0.71
-0.7
-0.72
-0.74
-0.75
-0.75
-0.75
-0.765
-0.79
-0.765
-0.76
-0.76
-0.765
-0.755
-0.735
-0.73
-0.735
-0.73
-0.715
-0.735
-0.74
-0.745
-0.745
-0.775
-0.795
-0.815
-0.835
-0.83
-0.845
-0.84
-0.835
-0.825
-0.82
-0.82
-0.81
-0.805
-0.825
-0.835
-0.86
-0.865
-0.86
-0.82
-0.74
-0.63
-0.515
-0.415
-0.35
-0.34
-0.405
-0.51
-0.705
-0.875
-0.99
-0.975
-0.835
-0.6
-0.31
-0.03
0.24
0.485
0.705
0.895
1.05
1.16
1.215
1.23
1.2
1.145
1.035
0.855
0.64
0.415
0.155
-0.13
-0.43
-0.71
-0.925
-1.07
-1.17
-1.2
-1.17
-1.13
-1.08
-1.045
-1.015
-1.005
-1.0
-0.985
-0.98
-0.965
-0.97
-0.965
-0.96
-0.945
-0.95
-0.95
-0.955
-0.95
-0.97
-0.975
-0.99
-0.98
-0.98
-0.98
-0.975
-0.975
-0.97
-0.965
-0.965
-0.97
-0.985
-1.0
-1.0
-1.005
-1.02
-1.02
-1.03
-1.015
-1.01
-1.02
-1.025
-1.035
-1.015
-1.03
-1.045
-1.06
-1.065
-1.06
-1.05
-1.055
-1.05
-1.05
-1.055
-1.065
-1.065
-1.08
-1.08
-1.105
-1.105
-1.105
-1.105
-1.105
-1.105
-1.105
-1.11
-1.12
-1.13
-1.15
-1.16
-1.17
-1.18
-1.18
-1.18
-1.17
-1.18
-1.165
-1.18
-1.2
-1.205
-1.195
-1.2
-1.2
-1.2
-1.2
-1.195
-1.18
-1.165
-1.155
-1.13
-1.12
-1.12
-1.115
-1.105
-1.095
-1.085
-1.085
-1.055
-1.03
-1.01
-0.99
-0.97
-0.945
-0.935
-0.93
-0.925
-0.915
-0.885
-0.875
-0.855
-0.84
-0.835
-0.82
-0.81
-0.81
-0.815
-0.82
-0.815
-0.825
-0.825
-0.83
-0.825
-0.82
-0.815
-0.83
-0.83
-0.835
-0.845
-0.88
-0.9
-0.905
-0.915
-0.925
-0.93
-0.94
-0.945
-0.945
-0.95
-0.975
-0.995
-1.015
-1.005
-1.02
-1.025
-1.035
-1.035
-1.03
-1.03
-1.02
-1.025
-1.03
-1.04
-1.04
-1.05
-1.05
-1.045
-1.045
-1.04
-1.045
-1.03
-1.015
-1.015
-1.035
-1.02
-1.025
-1.02
-1.03
-1.035
-1.02
-1.005
-1.005
-1.0
-0.995
-0.985
-0.99
-0.99
-0.99
-0.99
-0.99
-0.985
-0.985
-0.985
-0.985
-0.97
-0.965
-0.955
-0.95
-0.96
-0.985
-0.975
-0.985
-0.98
-0.975
-0.96
-0.965
-0.955
-0.935
-0.935
-0.95
-0.955
-0.95
-0.965
-0.97
-0.97
-0.97
-0.96
-0.955
-0.95
-0.945
-0.935
-0.955
-0.95
-0.965
-0.97
-0.975
-0.965
-0.96
-0.955
-0.94
-0.93
-0.94
-0.945
-0.935
-0.94
-0.955
-0.95
-0.95
-0.955
-0.95
-0.945
-0.95
-0.94
-0.93
-0.93
-0.94
-0.94
-0.935
-0.955
-0.955
-0.965
-0.95
-0.94
-0.95
-0.94
-0.93
-0.93
-0.935
-0.94
-0.945
-0.945
-0.95
-0.95
-0.96
-0.94
-0.935
-0.94
-0.925
-0.925
-0.93
-0.93
-0.935
-0.945
-0.955
-0.945
-0.95
-0.94
-0.935
-0.935
-0.925
-0.94
-0.94
-0.925
-0.93
-0.94
-0.94
-0.94
-0.945
-0.93
-0.935
-0.925
-0.925
-0.92
-0.925
-0.93
-0.93
-0.935
-0.94
-0.945
-0.945
-0.93
-0.925
-0.925
-0.925
-0.915
-0.9
-0.895
-0.915
-0.92
-0.92
-0.92
-0.92
-0.915
-0.915
-0.91
-0.895
-0.885
-0.86
-0.865
-0.865
-0.865
-0.865
-0.875
-0.875
-0.875
-0.875
-0.885
-0.88
-0.885
-0.89
-0.915
-0.895
-0.895
-0.885
-0.875
-0.855
-0.84
-0.85
-0.84
-0.84
-0.86
-0.875
-0.89
-0.925
-0.94
-0.96
-0.97
-0.96
-0.95
-0.955
-0.96
-0.945
-0.945
-0.96
-0.955
-0.965
-0.98
-0.99
-1.01
-1.02
-1.0
-0.95
-0.87
-0.77
-0.67
-0.605
-0.545
-0.525
-0.535
-0.59
-0.72
-0.87
-0.98
-0.99
-0.885
-0.67
-0.415
-0.125
0.145
0.41
0.65
0.87
1.065
1.215
1.305
1.35
1.335
1.245
1.1
0.885
0.63
0.345
0.08
-0.185
-0.465
-0.72
-0.965
-1.145
-1.265
-1.325
-1.31
-1.3
-1.255
-1.225
-1.195
-1.165
-1.155
-1.13
-1.115
-1.1
-1.09
-1.085
-1.105
-1.11
-1.12
-1.125
-1.13
-1.115
-1.125
-1.115
-1.11
-1.105
-1.1
-1.09
-1.115
-1.125
-1.125
-1.125
-1.13
-1.135
-1.14
-1.14
-1.13
-1.125
-1.115
-1.105
-1.12
-1.135
-1.13
-1.14
-1.165
-1.165
-1.165
-1.165
-1.16
-1.145
-1.155
-1.155
-1.155
-1.17
-1.17
-1.185
-1.2
-1.2
-1.195
-1.195
-1.2
-1.185
-1.185
-1.205
-1.2
-1.205
-1.21
-1.225
-1.23
-1.245
-1.245
-1.255
-1.265
-1.25
-1.255
-1.25
-1.255
-1.265
-1.27
-1.28
-1.29
-1.29
-1.295
-1.295
-1.285
-1.28
-1.28
-1.265
-1.26
-1.25
-1.26
-1.245
-1.245
-1.25
-1.24
-1.225
-1.21
-1.2
-1.18
-1.155
-1.155
-1.145
-1.145
-1.12
-1.11
-1.1
-1.08
-1.06
-1.05
-1.025
-1.0
-0.975
-0.97
-0.955
-0.955
-0.965
-0.945
-0.945
-0.945
-0.935
-0.925
-0.915
-0.915
-0.905
-0.9
-0.9
-0.9
-0.91
-0.93
-0.935
-0.94
-0.95
-0.95
-0.96
-0.97
-0.965
-0.975
-1.005
-1.01
-1.015
-1.04
-1.06
-1.08
-1.09
-1.095
-1.1
-1.105
-1.115
-1.13
-1.14
-1.14
-1.145
-1.16
-1.16
-1.17
-1.175
-1.17
-1.16
-1.165
-1.155
-1.14
-1.15
-1.15
-1.15
-1.145
-1.155
-1.155
-1.145
-1.155
-1.135
-1.13
-1.11
-1.115
-1.12
-1.125
-1.125
-1.125
-1.115
-1.12
-1.125
-1.12
-1.12
-1.115
-1.1
-1.085
-1.095
-1.09
-1.085
-1.1
-1.105
-1.1
-1.085
-1.08
-1.075
-1.065
-1.05
-1.06
-1.075
-1.07
-1.08
-1.085
-1.08
-1.065
-1.07
-1.06
-1.045
-1.06
-1.04
-1.04
-1.04
-1.055
-1.06
-1.06
-1.065
-1.055
-1.05
-1.05
-1.05
-1.04
-1.035
-1.035
-1.04
-1.04
-1.05
-1.055
-1.065
-1.065
-1.065
-1.055
-1.065
-1.035
-1.025
-1.015
-1.025
-1.025
-1.045
-1.055
-1.055
-1.055
-1.05
-1.05
-1.04
-1.035
-1.025
-1.01
-1.03
-1.025
-1.03
-1.035
-1.05
-1.055
-1.06
-1.04
-1.03
-1.025
-1.015
-1.005
-1.01
-1.015
-1.025
-1.035
-1.035
-1.03
-1.035
-1.025
-1.02
-1.015
-1.01
-1.005
-1.0
-1.005
-1.01
-1.005
-1.015
-1.025
-1.02
-1.015
-1.015
-1.015
-1.01
-1.0
-1.01
-1.01
-1.005
-1.025
-1.025
-1.025
-1.025
-1.015
-1.005
-1.0
-0.98
-0.99
-0.99
-0.98
-0.985
-1.0
-0.995
-1.005
-1.005
-1.0
-0.985
-0.99
-0.975
-0.97
-0.975
-0.985
-0.985
-0.985
-0.98
-0.98
-0.985
-0.98
-0.96
-0.95
-0.945
-0.93
-0.94
-0.945
-0.955
-0.96
-0.96
-0.96
-0.935
-0.93
-0.91
-0.895
-0.88
-0.875
-0.88
-0.89
-0.9
-0.915
-0.925
-0.945
-0.955
-0.945
-0.95
-0.945
-0.93
-0.905
-0.895
-0.885
-0.885
-0.885
-0.89
-0.895
-0.9
-0.91
-0.91
-0.92
-0.92
-0.94
-0.95
-0.96
-0.98
-0.98
-1.0
-0.99
-0.99
-0.99
-0.98
-0.975
-0.97
-0.98
-0.98
-0.99
-0.995
-0.955
-0.885
-0.765
-0.655
-0.555
-0.48
-0.47
-0.515
-0.67
-0.865
-1.025
-1.065
-0.96
-0.73
-0.45
-0.155
0.145
0.41
0.66
0.87
1.03
1.13
1.17
1.155
1.095
1.005
0.87
0.695
0.495
0.275
0.055
-0.175
-0.435
-0.685
-0.92
-1.09
-1.2
-1.255
-1.26
-1.22
-1.175
-1.13
-1.1
-1.06
-1.045
-1.03
-1.03
-1.02
-1.01
-1.02
-1.025
-1.04
-1.035
-1.03
-1.025
-1.015
-1.02
-1.025
-1.01
-1.01
-1.01
-1.02
-1.035
-1.025
-1.03
-1.035
-1.035
-1.03
-1.025
-1.03
-1.025
-1.03
-1.035
-1.04
-1.055
-1.035
-1.04
-1.025
-1.035
-1.03
-1.035
-1.045
-1.045
-1.05
-1.06
-1.075
-1.07
-1.075
-1.085
-1.08
-1.07
-1.08
-1.075
-1.08
-1.11
-1.11
-1.105
-1.11
-1.13
-1.125
-1.125
-1.125
-1.125
-1.13
-1.14
-1.155
-1.165
-1.18
-1.19
-1.185
-1.185
-1.185
-1.195
-1.19
-1.19
-1.195
-1.19
-1.205
-1.21
-1.205
-1.225
-1.22
-1.23
-1.23
-1.2
-1.2
-1.195
-1.17
-1.165
-1.16
-1.16
-1.165
-1.15
-1.13
-1.135
-1.115
-1.095
-1.075
-1.065
-1.035
-1.02
-0.995
-0.99
-0.97
-0.935
-0.925
-0.905
-0.895
-0.89
-0.87
-0.85
-0.83
-0.825
-0.83
-0.815
-0.82
-0.82
-0.82
-0.84
-0.84
-0.845
-0.835
-0.835
-0.83
-0.84
-0.84
-0.86
-0.865
-0.88
-0.895
-0.9
-0.91
-0.915
-0.925
-0.92
-0.92
-0.925
-0.94
-0.95
-0.965
-0.97
-0.985
-0.99
-0.99
-1.0
-0.99
-0.99
-0.985
-0.98
-0.985
-0.985
-0.99
-1.0
-1.015
-1.015
-1.015
-1.0
-0.985
-0.97
-0.98
-0.97
-0.975
-0.965
-0.975
-0.98
-0.975
-0.98
-0.98
-0.965
-0.96
-0.95
-0.94
-0.955
-0.955
-0.95
-0.97
-0.965
-0.965
-0.955
-0.96
-0.955
-0.945
-0.94
-0.93
-0.93
-0.93
-0.945
-0.945
-0.94
-0.935
-0.95
-0.94
-0.935
-0.925
-0.915
-0.92
-0.915
-0.92
-0.91
-0.92
-0.935
-0.935
-0.93
-0.93
-0.93
-0.915
-0.915
-0.9
-0.9
-0.905
-0.9
-0.91
-0.91
-0.925
-0.92
-0.915
-0.915
-0.905
-0.905
-0.895
-0.89
-0.895
-0.9
-0.905
-0.915
-0.925
-0.92
-0.92
-0.915
-0.9
-0.9
-0.89
-0.885
-0.895
-0.895
-0.9
-0.915
-0.91
-0.92
-0.915
-0.905
-0.915
-0.9
-0.89
-0.895
-0.905
-0.91
-0.905
-0.915
-0.93
-0.925
-0.915
-0.91
-0.915
-0.905
-0.89
-0.89
-0.9
-0.91
-0.92
-0.91
-0.92
-0.915
-0.915
-0.915
-0.91
-0.9
-0.9
-0.895
-0.895
-0.9
-0.9
-0.915
-0.915
-0.9
-0.91
-0.905
-0.9
-0.915
-0.89
-0.885
-0.885
-0.9
-0.91
-0.925
-0.93
-0.93
-0.92
-0.915
-0.9
-0.89
-0.885
-0.875
-0.885
-0.87
-0.88
-0.875
-0.89
-0.89
-0.885
-0.895
-0.89
-0.875
-0.85
-0.84
-0.82
-0.82
-0.845
-0.84
-0.845
-0.845
-0.845
-0.835
-0.83
-0.835
-0.845
-0.85
-0.855
-0.865
-0.875
-0.88
-0.89
-0.88
-0.87
-0.85
-0.82
-0.81
-0.805
-0.805
-0.82
-0.84
-0.86
-0.895
-0.915
-0.935
-0.945
-0.945
-0.955
-0.94
-0.935
-0.92
-0.915
-0.925
-0.945
-0.955
-0.97
-0.99
-1.0
-0.99
-0.945
-0.88
-0.785
-0.69
-0.6
-0.535
-0.505
-0.5
-0.545
-0.655
-0.805
-0.945
-1.015
-0.985
-0.85
-0.635
-0.385
-0.14
0.105
0.355
0.6
0.83
1.04
1.225
1.335
1.37
1.365
1.3
1.21
1.07
0.915
0.7
0.485
0.26
0.035
-0.195
-0.445
-0.69
-0.895
-1.055
-1.165
-1.235
-1.27
-1.265
-1.25
-1.22
-1.195
-1.175
-1.135
-1.115
-1.105
-1.09
-1.075
-1.075
-1.09
-1.095
-1.115
-1.105
-1.115
-1.105
-1.105
-1.085
-1.085
-1.075
-1.085
-1.09
-1.1
-1.095
-1.105
-1.115
-1.11
-1.105
-1.1
-1.095
-1.09
-1.1
-1.1
-1.1
-1.1
-1.11
-1.11
-1.125
-1.125
-1.12
-1.115
-1.115
-1.11
-1.115
-1.125
-1.125
-1.14
-1.15
-1.155
-1.15
-1.165
-1.175
-1.175
-1.165
-1.155
-1.16
-1.165
-1.165
-1.195
-1.215
-1.205
-1.205
-1.215
-1.22
-1.215
-1.21
-1.22
-1.23
-1.21
-1.235
-1.245
-1.25
-1.25
-1.25
-1.27
-1.26
-1.255
-1.26
-1.265
-1.265
-1.255
-1.26
-1.265
-1.27
-1.29
-1.275
-1.285
-1.275
-1.275
-1.265
-1.245
-1.235
-1.22
-1.225
-1.23
-1.215
-1.215
-1.2
-1.185
-1.17
-1.16
-1.15
-1.11
-1.09
-1.08
-1.06
-1.055
-1.06
-1.05
-1.035
-1.025
-1.02
-0.99
-0.985
-0.975
-0.98
-0.99
-0.995
-0.99
-0.95
-0.915
-0.875
-0.865
-0.86
-0.875
-0.885
-0.895
-0.895
-0.91
-0.905
-0.92
-0.935
-0.945
-0.955
-0.965
-0.97
-0.985
-0.995
-1.01
-1.02
-1.03
-1.04
-1.07
-1.075
-1.085
-1.1
-1.12
-1.12
-1.125
-1.12
-1.13
-1.135
-1.145
-1.155
-1.165
-1.17
-1.18
-1.19
-1.18
-1.18
-1.175
-1.165
-1.16
-1.16
-1.165
-1.165
-1.165
-1.16
-1.165
-1.16
-1.155
-1.145
-1.135
-1.135
-1.125
-1.115
-1.12
-1.125
-1.14
-1.145
-1.155
-1.145
-1.15
-1.13
-1.115
-1.11
-1.095
-1.085
-1.09
-1.08
-1.095
-1.1
-1.105
-1.1
-1.095
-1.095
-1.07
-1.09
-1.065
-1.075
-1.07
-1.08
-1.085
-1.09
-1.09
-1.095
-1.1
-1.085
-1.085
-1.07
-1.065
-1.055
-1.05
-1.055
-1.06
-1.07
-1.075
-1.08
-1.08
-1.075
-1.065
-1.06
-1.05
-1.055
-1.055
-1.06
-1.055
-1.065
-1.065
-1.06
-1.065
-1.065
-1.06
-1.045
-1.045
-1.035
-1.035
-1.045
-1.05
-1.055
-1.06
-1.06
-1.06
-1.055
-1.045
-1.04
-1.035
-1.035
-1.035
-1.03
-1.035
-1.05
-1.055
-1.05
-1.065
-1.055
-1.05
-1.04
-1.025
-1.025
-1.025
-1.035
-1.045
-1.04
-1.045
-1.045
-1.045
-1.04
-1.03
-1.03
-1.03
-1.025
-1.025
-1.015
-1.035
-1.04
-1.055
-1.06
-1.065
-1.06
-1.04
-1.035
-1.03
-1.03
-1.025
-1.015
-1.02
-1.025
-1.03
-1.04
-1.045
-1.04
-1.03
-1.025
-1.015
-1.01
-1.005
-0.995
-0.995
-0.995
-1.005
-1.01
-1.015
-1.02
-1.02
-1.0
-0.995
-0.97
-0.955
-0.955
-0.94
-0.955
-0.96
-0.97
-0.955
-0.97
-0.96
-0.96
-0.96
-0.965
-0.975
-0.97
-0.975
-1.005
-0.985
-0.99
-0.98
-0.985
-0.965
-0.955
-0.935
-0.925
-0.935
-0.95
-0.97
-0.985
-1.015
-1.03
-1.025
-1.05
-1.04
-1.025
-1.025
-1.035
-1.025
-1.025
-1.025
-1.03
-1.04
-1.055
-1.06
-1.075
-1.065
-1.03
-0.965
-0.865
-0.75
-0.68
-0.605
-0.565
-0.57
-0.625
-0.735
-0.9
-1.06
-1.16
-1.145
-0.99
-0.77
-0.49
-0.19
0.07
0.325
0.56
0.77
0.96
1.1
1.19
1.215
1.18
1.095
0.975
0.805
0.59
0.35
0.12
-0.13
-0.365
-0.635
-0.87
-1.075
-1.205
-1.29
-1.32
-1.315
-1.285
-1.25
-1.22
-1.19
-1.17
-1.15
-1.13
-1.11
-1.12
-1.115
-1.11
-1.12
-1.12
-1.125
-1.13
-1.14
-1.12
-1.115
-1.115
-1.1
-1.115
-1.105
-1.11
-1.115
-1.125
-1.125
-1.135
-1.13
-1.135
-1.125
-1.12
-1.115
-1.12
-1.12
-1.12
-1.125
-1.145
-1.155
-1.155
-1.165
-1.155
-1.145
-1.15
-1.14
-1.155
-1.165
-1.175
-1.185
-1.18
-1.19
-1.19
-1.195
-1.19
-1.2
-1.195
-1.19
-1.185
-1.205
-1.21
-1.22
-1.225
-1.245
-1.245
-1.245
-1.245
-1.255
-1.26
-1.25
-1.24
-1.255
-1.26
-1.265
-1.275
-1.285
-1.295
-1.31
-1.3
-1.295
-1.3
-1.3
-1.285
-1.305
-1.305
-1.305
-1.305
-1.31
-1.305
-1.3
-1.3
-1.285
-1.28
-1.255
-1.235
-1.23
-1.21
-1.21
-1.195
-1.195
-1.19
-1.175
-1.16
-1.135
-1.11
-1.08
-1.05
-1.045
-1.03
-1.015
-1.01
-1.015
-0.985
-0.98
-0.965
-0.955
-0.935
-0.915
-0.905
-0.895
-0.905
-0.905
-0.905
-0.915
-0.92
-0.92
-0.92
-0.91
-0.93
-0.92
-0.925
-0.93
-0.94
-0.95
-0.975
-0.995
-1.02
-1.03
-1.025
-1.025
-1.025
-1.055
-1.045
-1.04
-1.045
-1.075
-1.065
-1.08
-1.08
-1.09
-1.095
-1.085
-1.075
-1.06
-1.055
-1.06
-1.06
-1.055
-1.055
-1.075
-1.055
-1.06
-1.05
-1.04
-1.03
-1.005
-1.0
-1.0
-0.99
-1.0
-1.01
-1.02
-1.02
-1.02
-1.0
-0.985
-0.985
-0.98
-0.98
-0.985
-0.97
-0.965
-0.97
-0.975
-0.985
-0.98
-0.98
-0.965
-0.96
-0.95
-0.935
-0.935
-0.94
-0.95
-0.95
-0.95
-0.95
-0.945
-0.93
-0.92
-0.92
-0.915
-0.91
-0.91
-0.915
-0.915
-0.91
-0.91
-0.915
-0.91
-0.915
-0.89
-0.895
-0.875
-0.87
-0.865
-0.86
-0.87
-0.87
-0.875
-0.89
-0.875
-0.86
-0.86
-0.85
-0.84
-0.83
-0.83
-0.825
-0.83
-0.84
-0.835
-0.845
-0.84
-0.845
-0.82
-0.81
-0.81
-0.79
-0.79
-0.8
-0.795
-0.815
-0.805
-0.82
-0.805
-0.805
-0.79
-0.785
-0.765
-0.76
-0.755
-0.76
-0.765
-0.76
-0.77
-0.77
-0.77
-0.765
-0.765
-0.76
-0.755
-0.735
-0.745
-0.725
-0.73
-0.725
-0.74
-0.75
-0.74
-0.74
-0.72
-0.72
-0.715
-0.7
-0.69
-0.69
-0.7
-0.705
-0.7
-0.705
-0.71
-0.71
-0.705
-0.695
-0.67
-0.67
-0.66
-0.665
-0.67
-0.675
-0.675
-0.675
-0.66
-0.655
-0.655
-0.635
-0.625
-0.615
-0.6
-0.595
-0.6
-0.6
-0.615
-0.61
-0.61
-0.61
-0.6
-0.6
-0.585
-0.54
-0.545
-0.535
-0.525
-0.53
-0.53
-0.53
-0.535
-0.535
-0.53
-0.55
-0.54
-0.535
-0.535
-0.53
-0.54
-0.54
-0.55
-0.545
-0.52
-0.505
-0.485
-0.48
-0.465
-0.45
-0.47
-0.465
-0.48
-0.495
-0.52
-0.53
-0.54
-0.56
-0.565
-0.555
-0.555
-0.545
-0.54
-0.535
-0.545
-0.535
-0.55
-0.55
-0.56
-0.57
-0.58
-0.58
-0.565
-0.5
-0.425
-0.315
-0.23
-0.16
-0.105
-0.09
-0.11
-0.19
-0.325
-0.475
-0.585
-0.585
-0.485
-0.275
-0.02
0.245
0.525
0.77
0.995
1.22
1.415
1.565
1.64
1.685
1.655
1.605
1.505
1.37
1.19
0.97
0.755
0.51
0.24
-0.03
-0.27
-0.475
-0.635
-0.74
-0.785
-0.78
-0.755
-0.725
-0.7
-0.665
-0.635
-0.59
-0.59
-0.555
-0.545
-0.55
-0.555
-0.545
-0.56
-0.57
-0.57
-0.56
-0.55
-0.54
-0.525
-0.525
-0.535
-0.53
-0.54
-0.55
-0.545
-0.545
-0.545
-0.54
-0.545
-0.54
-0.54
-0.53
-0.53
-0.535
-0.545
-0.54
-0.555
-0.555
-0.57
-0.58
-0.58
-0.565
-0.56
-0.545
-0.545
-0.56
-0.565
-0.575
-0.575
-0.58
-0.595
-0.595
-0.605
-0.59
-0.585
-0.585
-0.59
-0.595
-0.6
-0.615
-0.615
-0.63
-0.635
-0.63
-0.635
-0.625
-0.615
-0.625
-0.625
-0.64
-0.645
-0.645
-0.665
-0.655
-0.665
-0.665
-0.655
-0.67
-0.65
-0.64
-0.63
-0.625
-0.615
-0.615
-0.625
-0.615
-0.605
-0.59
-0.56
-0.545
-0.525
-0.5
-0.475
-0.475
-0.47
-0.46
-0.445
-0.43
-0.415
-0.405
-0.385
-0.365
-0.335
-0.31
-0.305
-0.295
-0.3
-0.29
-0.275
-0.265
-0.265
-0.265
-0.26
-0.25
-0.25
-0.24
-0.25
-0.25
-0.26
-0.275
-0.29
-0.295
-0.3
-0.315
-0.32
-0.32
-0.335
-0.345
-0.355
-0.36
-0.39
-0.4
-0.42
-0.43
-0.45
-0.455
-0.455
-0.47
-0.47
-0.465
-0.465
-0.475
-0.49
-0.49
-0.5
-0.51
-0.505
-0.505
-0.505
-0.495
-0.495
-0.485
-0.475
-0.48
-0.475
-0.475
-0.48
-0.48
-0.485
-0.48
-0.46
-0.445
-0.445
-0.435
-0.43
-0.435
-0.44
-0.445
-0.445
-0.435
-0.44
-0.43
-0.42
-0.415
-0.4
-0.395
-0.4
-0.39
-0.4
-0.4
-0.405
-0.41
-0.41
-0.405
-0.4
-0.395
-0.385
-0.38
-0.37
-0.375
-0.385
-0.385
-0.385
-0.385
-0.39
-0.39
-0.385
-0.385
-0.38
-0.355
-0.365
-0.355
-0.36
-0.365
-0.375
-0.38
-0.385
-0.38
-0.37
-0.38
-0.36
-0.35
-0.36
-0.365
-0.365
-0.36
-0.37
-0.37
-0.385
-0.37
-0.375
-0.36
-0.365
-0.35
-0.345
-0.345
-0.355
-0.36
-0.375
-0.36
-0.365
-0.375
-0.365
-0.35
-0.355
-0.355
-0.345
-0.36
-0.36
-0.36
-0.36
-0.37
-0.37
-0.37
-0.365
-0.37
-0.36
-0.345
-0.355
-0.35
-0.355
-0.365
-0.38
-0.37
-0.375
-0.37
-0.37
-0.365
-0.355
-0.35
-0.35
-0.35
-0.355
-0.36
-0.36
-0.37
-0.365
-0.375
-0.38
-0.37
-0.37
-0.36
-0.355
-0.355
-0.36
-0.355
-0.37
-0.375
-0.38
-0.38
-0.38
-0.38
-0.365
-0.365
-0.365
-0.365
-0.365
-0.375
-0.38
-0.39
-0.395
-0.41
-0.395
-0.385
-0.385
-0.36
-0.355
-0.35
-0.34
-0.355
-0.36
-0.375
-0.375
-0.375
-0.38
-0.37
-0.355
-0.335
-0.32
-0.31
-0.315
-0.315
-0.32
-0.325
-0.345
-0.365
-0.37
-0.36
-0.38
-0.355
-0.365
-0.36
-0.35
-0.36
-0.355
-0.345
-0.33
-0.325
-0.315
-0.31
-0.315
-0.32
-0.34
-0.355
-0.38
-0.4
-0.41
-0.44
-0.45
-0.445
-0.435
-0.45
-0.435
-0.425
-0.42
-0.435
-0.455
-0.465
-0.48
-0.505
-0.51
-0.49
-0.44
-0.35
-0.25
-0.15
-0.07
-0.015
0.01
-0.025
-0.125
-0.275
-0.445
-0.535
-0.55
-0.43
-0.21
0.06
0.355
0.625
0.865
1.1
1.285
1.44
1.54
1.585
1.58
1.52
1.445
1.295
1.095
0.86
0.595
0.335
0.07
-0.185
-0.415
-0.605
-0.73
-0.775
-0.775
-0.77
-0.72
-0.685
-0.67
-0.645
-0.64
-0.63
-0.635
-0.61
-0.6
-0.58
-0.585
-0.585
-0.6
-0.59
-0.61
-0.61
-0.61
-0.62
-0.615
-0.605
-0.61
-0.61
-0.62
-0.61
-0.6
-0.605
-0.61
-0.61
-0.615
-0.625
-0.64
-0.64
-0.64
-0.63
-0.62
-0.625
-0.625
-0.635
-0.64
-0.635
-0.665
-0.67
-0.67
-0.68
-0.675
-0.675
-0.675
-0.67
-0.675
-0.685
-0.695
-0.705
-0.71
-0.72
-0.725
-0.735
-0.735
-0.74
-0.73
-0.735
-0.735
-0.75
-0.76
-0.77
-0.78
-0.79
-0.81
-0.8
-0.815
-0.82
-0.815
-0.825
-0.835
-0.84
-0.85
-0.85
-0.855
-0.87
-0.875
-0.87
-0.875
-0.875
-0.86
-0.85
-0.84
-0.83
-0.825
-0.83
-0.825
-0.815
-0.815
-0.805
-0.79
-0.775
-0.765
-0.75
-0.735
-0.71
-0.7
-0.695
-0.67
-0.665
-0.655
-0.645
-0.625
-0.605
-0.59
-0.57
-0.555
-0.545
-0.53
-0.54
-0.53
-0.535
-0.52
-0.525
-0.525
-0.505
-0.495
-0.49
-0.49
-0.49
-0.495
-0.5
-0.52
-0.52
-0.54
-0.545
-0.56
-0.555
-0.56
-0.57
-0.58
-0.6
-0.61
-0.63
-0.645
-0.66
-0.67
-0.685
-0.7
-0.695
-0.73
-0.725
-0.705
-0.72
-0.725
-0.74
-0.74
-0.755
-0.77
-0.765
-0.77
-0.755
-0.755
-0.75
-0.76
-0.765
-0.765
-0.765
-0.76
-0.76
-0.755
-0.75
-0.75
-0.75
-0.745
-0.74
-0.74
-0.745
-0.74
-0.74
-0.74
-0.75
-0.755
-0.75
-0.745
-0.75
-0.745
-0.74
-0.735
-0.74
-0.73
-0.745
-0.755
-0.755
-0.765
-0.765
-0.765
-0.755
-0.735
-0.735
-0.725
-0.735
-0.74
-0.745
-0.745
-0.765
-0.77
-0.765
-0.755
-0.76
-0.75
-0.745
-0.74
-0.745
-0.735
-0.745
-0.75
-0.76
-0.76
-0.775
-0.755
-0.76
-0.76
-0.755
-0.75
-0.75
-0.76
-0.755
-0.77
-0.775
-0.79
-0.8
-0.79
-0.785
-0.775
-0.765
-0.76
-0.755
-0.76
-0.765
-0.76
-0.79
-0.785
-0.785
-0.785
-0.775
-0.775
-0.77
-0.77
-0.765
-0.78
-0.8
-0.79
-0.8
-0.8
-0.8
-0.8
-0.805
-0.8
-0.79
-0.795
-0.785
-0.79
-0.795
-0.815
-0.835
