Lead II
-0.78
-0.78
-0.785
-0.78
-0.785
-0.795
-0.795
-0.79
-0.78
-0.77
-0.78
-0.785
-0.785
-0.785
-0.8
-0.82
-0.805
-0.815
-0.825
-0.815
-0.815
-0.81
-0.795
-0.805
-0.805
-0.81
-0.815
-0.84
-0.855
-0.855
-0.865
-0.86
-0.845
-0.835
-0.84
-0.83
-0.83
-0.85
-0.86
-0.88
-0.88
-0.88
-0.89
-0.875
-0.88
-0.87
-0.865
-0.88
-0.885
-0.89
-0.905
-0.91
-0.905
-0.895
-0.9
-0.905
-0.91
-0.915
-0.9
-0.875
-0.9
-0.89
-0.925
-0.91
-0.92
-0.915
-0.925
-0.935
-0.93
-0.925
-0.92
-0.92
-0.905
-0.92
-0.94
-0.94
-0.935
-0.95
-0.955
-0.94
-0.93
-0.91
-0.895
-0.88
-0.91
-0.905
-0.915
-0.92
-0.93
-0.925
-0.93
-0.94
-0.915
-0.895
-0.905
-0.885
-0.9
-0.9
-0.895
-0.895
-0.905
-0.915
-0.91
-0.875
-0.86
-0.855
-0.795
-0.8
-0.765
-0.755
-0.765
-0.75
-0.755
-0.715
-0.695
-0.645
-0.605
-0.57
-0.545
-0.55
-0.57
-0.585
-0.595
-0.61
-0.605
-0.605
-0.635
-0.655
-0.69
-0.725
-0.79
-0.845
-0.895
-0.9
-0.93
-0.95
-0.975
-0.975
-0.97
-0.96
-0.96
-0.95
-0.94
-0.945
-0.95
-0.96
-0.96
-0.965
-0.98
-0.975
-0.975
-0.965
-0.965
-0.96
-0.95
-0.95
-0.935
-0.945
-0.95
-0.96
-0.965
-0.995
-1.025
-1.03
-0.995
-0.905
-0.74
-0.495
-0.19
0.215
0.61
0.95
1.19
1.29
1.28
1.155
0.915
0.54
0.04
-0.465
-0.885
-1.07
-1.085
-0.97
-0.83
-0.715
-0.7
-0.715
-0.77
-0.82
-0.885
-0.905
-0.925
-0.945
-0.945
-0.955
-0.97
-0.97
-0.99
-1.0
-0.99
-0.99
-0.975
-0.965
-0.96
-0.955
-0.97
-0.97
-0.99
-0.975
-0.985
-0.975
-0.99
-0.97
-0.97
-0.95
-0.965
-0.98
-0.985
-0.995
-0.995
-0.99
-0.995
-0.985
-0.97
-0.97
-0.94
-0.94
-0.955
-0.97
-0.96
-0.96
-0.965
-0.97
-0.95
-0.95
-0.94
-0.925
-0.915
-0.91
-0.91
-0.92
-0.91
-0.905
-0.895
-0.895
-0.905
-0.9
-0.88
-0.865
-0.84
-0.815
-0.83
-0.825
-0.82
-0.815
-0.815
-0.8
-0.795
-0.775
-0.75
-0.705
-0.68
-0.67
-0.655
-0.65
-0.64
-0.63
-0.62
-0.6
-0.59
-0.575
-0.56
-0.56
-0.53
-0.515
-0.505
-0.5
-0.5
-0.495
-0.475
-0.48
-0.48
-0.455
-0.44
-0.43
-0.42
-0.43
-0.44
-0.465
-0.48
-0.51
-0.55
-0.565
-0.57
-0.62
-0.64
-0.65
-0.675
-0.695
-0.72
-0.745
-0.775
-0.82
-0.84
-0.85
-0.86
-0.84
-0.85
-0.845
-0.83
-0.825
-0.85
-0.865
-0.86
-0.86
-0.875
-0.875
-0.88
-0.88
-0.875
-0.865
-0.845
-0.84
-0.84
-0.84
-0.86
-0.855
-0.875
-0.87
-0.88
-0.885
-0.88
-0.87
-0.865
-0.845
-0.84
-0.835
-0.84
-0.85
-0.855
-0.855
-0.86
-0.855
-0.835
-0.855
-0.835
-0.825
-0.825
-0.83
-0.83
-0.85
-0.86
-0.87
-0.865
-0.86
-0.87
-0.855
-0.865
-0.85
-0.865
-0.88
-0.88
-0.88
-0.885
-0.895
-0.91
-0.905
-0.9
-0.905
-0.875
-0.885
-0.885
-0.885
-0.9
-0.895
-0.9
-0.91
-0.91
-0.905
-0.91
-0.89
-0.885
-0.875
-0.885
-0.895
-0.895
-0.89
-0.9
-0.91
-0.925
-0.905
-0.9
-0.895
-0.895
-0.885
-0.885
-0.88
-0.895
-0.92
-0.93
-0.92
-0.93
-0.92
-0.925
-0.91
-0.885
-0.87
-0.88
-0.9
-0.91
-0.915
-0.91
-0.91
-0.915
-0.905
-0.89
-0.87
-0.855
-0.825
-0.805
-0.8
-0.795
-0.79
-0.77
-0.77
-0.775
-0.745
-0.72
-0.68
-0.62
-0.56
-0.54
-0.53
-0.545
-0.57
-0.575
-0.585
-0.59
-0.61
-0.61
-0.625
-0.645
-0.705
-0.775
-0.835
-0.89
-0.925
-0.955
-0.95
-0.965
-0.94
-0.935
-0.93
-0.91
-0.915
-0.93
-0.945
-0.945
-0.945
-0.95
-0.97
-0.975
-0.985
-0.955
-0.935
-0.955
-0.94
-0.945
-0.935
-0.94
-0.955
-0.95
-0.97
-0.96
-0.975
-0.97
-0.98
-0.99
-1.015
-1.015
-0.985
-0.89
-0.77
-0.585
-0.325
0.015
0.37
0.735
1.035
1.23
1.29
1.24
1.04
0.675
0.15
-0.425
-0.89
-1.125
-1.145
-1.03
-0.865
-0.73
-0.685
-0.71
-0.765
-0.83
-0.895
-0.94
-0.95
-0.985
-0.96
-0.955
-0.945
-0.935
-0.935
-0.955
-0.965
-0.955
-0.99
-0.985
-0.98
-1.0
-0.98
-0.965
-0.955
-0.945
-0.95
-0.955
-0.96
-0.975
-0.995
-0.995
-0.995
-0.98
-1.0
-0.985
-0.975
-0.97
-0.96
-0.965
-0.965
-0.965
-0.965
-0.975
-0.985
-0.985
-0.985
-0.975
-0.975
-0.96
-0.95
-0.945
-0.95
-0.965
-0.965
-0.96
-0.95
-0.925
-0.925
-0.9
-0.895
-0.88
-0.88
-0.875
-0.87
-0.87
-0.875
-0.86
-0.85
-0.83
-0.81
-0.785
-0.765
-0.75
-0.725
-0.71
-0.7
-0.695
-0.7
-0.695
-0.655
-0.65
-0.64
-0.62
-0.6
-0.58
-0.555
-0.56
-0.55
-0.535
-0.535
-0.535
-0.52
-0.525
-0.505
-0.495
-0.475
-0.48
-0.47
-0.485
-0.5
-0.535
-0.55
-0.57
-0.595
-0.615
-0.635
-0.65
-0.67
-0.675
-0.705
-0.725
-0.76
-0.795
-0.82
-0.825
-0.865
-0.855
-0.87
-0.88
-0.885
-0.905
-0.9
-0.915
-0.92
-0.925
-0.93
-0.945
-0.95
-0.965
-0.975
-0.97
-0.965
-0.945
-0.93
-0.935
-0.94
-0.94
-0.945
-0.96
-0.95
-0.96
-0.96
-0.95
-0.935
-0.91
-0.9
-0.91
-0.925
-0.92
-0.925
-0.935
-0.945
-0.95
-0.94
-0.92
-0.915
-0.9
-0.905
-0.905
-0.91
-0.91
-0.905
-0.93
-0.93
-0.935
-0.93
-0.92
-0.905
-0.89
-0.89
-0.9
-0.905
-0.92
-0.935
-0.915
-0.92
-0.93
-0.93
-0.93
-0.925
-0.925
-0.93
-0.955
-0.935
-0.935
-0.95
-0.965
-0.955
-0.98
-0.98
-0.97
-0.96
-0.93
-0.93
-0.95
-0.945
-0.95
-0.98
-0.98
-0.965
-0.965
-0.975
-0.97
-0.97
-0.97
-0.965
-0.97
-0.975
-0.97
-0.99
-0.995
-0.995
-1.015
-0.99
-0.985
-1.0
-0.98
-0.955
-0.975
-0.975
-0.995
-0.99
-1.0
-0.995
-1.015
-1.005
-0.995
-0.99
-0.98
-0.97
-0.97
-0.985
-0.995
-1.01
-0.995
-0.98
-0.985
-0.98
-0.975
-0.965
-0.935
-0.915
-0.875
-0.885
-0.865
-0.87
-0.86
-0.845
-0.835
-0.81
-0.775
-0.74
-0.66
-0.64
-0.62
-0.62
-0.65
-0.68
-0.685
-0.68
-0.685
-0.675
-0.675
-0.695
-0.735
-0.775
-0.81
-0.875
-0.935
-0.98
-1.0
-1.015
-1.01
-1.02
-1.015
-1.0
-1.015
-0.98
-0.98
-0.995
-1.025
-1.05
-1.05
-1.065
-1.065
-1.05
-1.04
-1.025
-1.01
-1.01
-1.005
-1.015
-1.01
-1.02
-1.02
-1.01
-1.02
-1.025
-1.02
-1.03
-1.045
-1.06
-1.065
-1.07
-1.035
-0.92
-0.76
-0.53
-0.2
0.18
0.56
0.915
1.16
1.285
1.295
1.21
1.015
0.7
0.245
-0.305
-0.785
-1.095
-1.165
-1.105
-0.96
-0.82
-0.75
-0.75
-0.805
-0.89
-0.94
-0.99
-1.02
-1.025
-1.015
-1.01
-0.99
-0.995
-1.0
-1.01
-1.015
-1.035
-1.04
-1.045
-1.06
-1.04
-1.045
-1.04
-1.03
-1.02
-1.01
-1.025
-1.03
-1.045
-1.055
-1.055
-1.06
-1.055
-1.05
-1.035
-1.04
-1.045
-1.035
-1.055
-1.035
-1.035
-1.06
-1.04
-1.05
-1.055
-1.05
-1.045
-1.035
-1.01
-0.99
-1.005
-1.02
-1.005
-1.01
-1.015
-1.015
-1.005
-0.985
-0.98
-0.98
-0.96
-0.945
-0.94
-0.935
-0.935
-0.94
-0.94
-0.91
-0.9
-0.89
-0.865
-0.865
-0.83
-0.82
-0.82
-0.81
-0.795
-0.79
-0.81
-0.775
-0.77
-0.75
-0.705
-0.68
-0.655
-0.655
-0.64
-0.625
-0.61
-0.62
-0.59
-0.59
-0.575
-0.57
-0.545
-0.52
-0.525
-0.515
-0.49
-0.485
-0.48
-0.495
-0.49
-0.49
-0.5
-0.5
-0.495
-0.515
-0.525
-0.555
-0.575
-0.595
-0.63
-0.66
-0.685
-0.71
-0.74
-0.76
-0.765
-0.785
-0.815
-0.82
-0.85
-0.88
-0.885
-0.905
-0.925
-0.935
-0.935
-0.935
-0.92
-0.915
-0.915
-0.92
-0.93
-0.95
-0.965
-0.97
-0.965
-0.965
-0.975
-0.96
-0.955
-0.945
-0.935
-0.935
-0.935
-0.945
-0.96
-0.95
-0.97
-0.96
-0.95
-0.965
-0.94
-0.94
-0.9
-0.89
-0.895
-0.905
-0.91
-0.915
-0.915
-0.91
-0.925
-0.925
-0.91
-0.9
-0.885
-0.895
-0.895
-0.905
-0.925
-0.905
-0.92
-0.915
-0.92
-0.905
-0.905
-0.89
-0.885
-0.895
-0.895
-0.905
-0.905
-0.915
-0.93
-0.93
-0.93
-0.93
-0.92
-0.9
-0.89
-0.9
-0.905
-0.905
-0.925
-0.95
-0.93
-0.935
-0.94
-0.94
-0.93
-0.93
-0.93
-0.925
-0.925
-0.93
-0.945
-0.97
-0.98
-0.98
-0.985
-0.965
-0.965
-0.95
-0.935
-0.935
-0.95
-0.975
-0.975
-0.985
-0.99
-0.985
-1.0
-0.99
-0.965
-0.955
-0.93
-0.925
-0.935
-0.945
-0.955
-0.97
-0.99
-0.985
-0.965
-0.965
-0.965
-0.95
-0.92
-0.92
-0.93
-0.915
-0.92
-0.925
-0.915
-0.925
-0.925
-0.89
-0.865
-0.845
-0.815
-0.785
-0.785
-0.775
-0.78
-0.745
-0.74
-0.715
-0.68
-0.62
-0.59
-0.59
-0.58
-0.595
-0.605
-0.61
-0.625
-0.635
-0.645
-0.685
-0.725
-0.77
-0.815
-0.865
-0.9
-0.925
-0.955
-0.96
-0.975
-0.975
-0.975
-0.99
-0.985
-0.98
-0.975
-0.97
-0.955
-0.95
-0.955
-0.97
-0.98
-0.97
-0.985
-1.0
-1.005
-0.985
-0.965
-0.97
-0.97
-0.955
-0.97
-0.96
-0.975
-0.975
-0.995
-1.01
-1.02
-1.055
-1.01
-0.95
-0.815
-0.61
-0.315
0.025
0.405
0.775
1.055
1.2
1.265
1.19
1.01
0.71
0.255
-0.275
-0.74
-1.05
-1.125
-1.065
-0.93
-0.795
-0.73
-0.73
-0.77
-0.845
-0.905
-0.94
-0.97
-0.96
-0.97
-0.975
-0.98
-0.98
-0.985
-0.985
-0.99
-0.98
-0.965
-0.965
-0.965
-0.975
-0.98
-0.995
-1.01
-1.005
-1.005
-1.005
-0.98
-0.98
-1.0
-0.965
-0.97
-0.99
-0.99
-1.0
-1.01
-1.0
-1.005
-1.0
-1.0
-0.995
-0.965
-0.95
-0.95
-0.965
-0.97
-0.975
-0.975
-0.985
-0.985
-0.99
-0.975
-0.97
-0.945
-0.93
-0.925
-0.935
-0.93
-0.945
-0.92
-0.915
-0.905
-0.885
-0.875
-0.855
-0.835
-0.83
-0.825
-0.83
-0.815
-0.81
-0.81
-0.79
-0.775
-0.765
-0.74
-0.72
-0.705
-0.675
-0.655
-0.64
-0.645
-0.63
-0.605
-0.58
-0.595
-0.55
-0.52
-0.505
-0.485
-0.485
-0.465
-0.45
-0.445
-0.44
-0.425
-0.42
-0.415
-0.4
-0.4
-0.38
-0.385
-0.39
-0.39
-0.425
-0.435
-0.46
-0.49
-0.51
-0.535
-0.555
-0.585
-0.605
-0.635
-0.635
-0.66
-0.685
-0.71
-0.73
-0.76
-0.77
-0.8
-0.81
-0.81
-0.82
-0.82
-0.815
-0.83
-0.83
-0.84
-0.85
-0.87
-0.875
-0.88
-0.895
-0.88
-0.845
-0.84
-0.835
-0.84
-0.84
-0.84
-0.845
-0.855
-0.875
-0.85
-0.85
-0.825
-0.835
-0.83
-0.8
-0.815
-0.825
-0.84
-0.835
-0.85
-0.84
-0.84
-0.83
-0.785
-0.72
-0.605
-0.47
-0.32
-0.16
0.01
0.215
0.42
0.645
0.88
1.13
1.37
1.575
1.77
1.91
2.0
2.05
2.07
2.08
2.055
2.02
1.96
1.895
1.825
1.76
1.74
1.74
1.755
1.745
1.71
1.64
1.52
1.385
1.24
1.08
0.9
0.675
0.4
0.02
-0.36
-0.695
-0.91
-1.025
-1.05
-1.055
-1.035
-1.03
-1.05
-1.075
-1.125
-1.17
-1.205
-1.24
-1.27
-1.285
-1.3
-1.33
-1.34
-1.35
-1.35
-1.355
-1.36
-1.36
-1.375
-1.395
-1.41
-1.425
-1.465
-1.485
-1.485
-1.495
-1.49
-1.51
-1.5
-1.5
-1.505
-1.5
-1.505
-1.515
-1.525
-1.545
-1.545
-1.545
-1.555
-1.55
-1.545
-1.535
-1.535
-1.51
-1.54
-1.565
-1.61
-1.64
-1.67
-1.7
-1.695
-1.73
-1.75
-1.79
-1.86
-1.92
-1.975
-2.06
-2.125
-2.185
-2.225
-2.26
-2.28
-2.31
-2.315
-2.325
-2.33
-2.35
-2.35
-2.365
-2.385
-2.375
-2.355
-2.33
-2.315
-2.275
-2.25
-2.23
-2.2
-2.17
-2.11
-2.075
-2.035
-1.985
-1.93
-1.86
-1.805
-1.735
-1.675
-1.61
-1.555
-1.52
-1.465
-1.42
-1.395
-1.365
-1.335
-1.275
-1.245
-1.215
-1.205
-1.175
-1.165
-1.15
-1.16
-1.155
-1.155
-1.17
-1.155
-1.14
-1.13
-1.135
-1.13
-1.1
-1.11
-1.11
-1.11
-1.13
-1.12
-1.12
-1.125
-1.1
-1.08
-1.1
-1.08
-1.07
-1.085
-1.1
-1.105
-1.11
-1.105
-1.095
-1.09
-1.075
-1.07
-1.075
-1.07
-1.065
-1.05
-1.06
-1.065
-1.075
-1.085
-1.09
-1.09
-1.06
-1.06
-1.05
-1.045
-1.03
-1.025
-1.03
-1.045
-1.055
-1.07
-1.065
-1.06
-1.06
-1.05
-1.055
-1.045
-1.04
-1.06
-1.035
-1.045
-1.065
-1.07
-1.07
-1.06
-1.04
-1.035
-1.02
-1.01
-1.005
-1.01
-1.02
-1.035
-1.05
-1.04
-1.04
-1.045
-1.035
-1.01
-1.015
-1.0
-1.0
-1.01
-1.025
-1.025
-1.01
-1.02
-1.02
-1.03
-1.025
-1.005
-0.995
-1.0
-0.99
-0.995
-0.99
-0.97
-1.015
-1.01
-1.005
-1.02
-1.025
-0.995
-0.995
-0.985
-0.985
-0.985
-0.985
-0.975
-0.985
-1.0
-1.01
-1.005
-1.005
-1.0
-0.995
-0.985
-0.975
-0.97
-0.975
-0.99
-1.0
-0.98
-0.995
-1.0
-0.99
-0.99
-0.985
-0.97
-0.955
-0.96
-0.985
-0.99
-0.985
-1.0
-1.0
-0.99
-0.985
-0.98
-0.98
-0.96
-0.96
-0.945
-0.955
-0.97
-0.97
-0.99
-0.98
-0.995
-0.985
-0.975
-0.96
-0.95
-0.945
-0.945
-0.95
-0.95
-0.965
-0.985
-0.97
-0.98
-0.985
-0.975
-0.98
-0.955
-0.965
-0.96
-0.955
-0.965
-0.96
-0.965
-0.97
-0.955
-0.97
-0.96
-0.945
-0.945
-0.945
-0.935
-0.94
-0.945
-0.955
-0.965
-0.965
-0.96
-0.95
-0.955
-0.95
-0.95
-0.935
-0.93
-0.935
-0.935
-0.945
-0.955
-0.965
-0.96
-0.96
-0.96
-0.94
-0.95
-0.94
-0.94
-0.94
-0.94
-0.96
-0.965
-0.95
-0.985
-0.97
-0.965
-0.945
-0.96
-0.955
-0.96
-0.96
-0.96
-0.975
-0.985
-0.99
-0.985
-0.96
-0.98
-0.965
-0.96
-0.94
-0.935
-0.94
-0.945
-0.955
-0.95
-0.955
-0.955
-0.955
-0.95
-0.93
-0.935
-0.915
-0.935
-0.925
-0.925
-0.94
-0.94
-0.935
-0.945
-0.96
-0.95
-0.93
-0.93
-0.92
-0.92
-0.94
-0.95
-0.945
-0.95
-0.94
-0.945
-0.945
-0.945
-0.925
-0.93
-0.92
-0.915
-0.92
-0.92
-0.935
-0.945
-0.945
-0.95
-0.925
-0.935
-0.92
-0.91
-0.89
-0.885
-0.875
-0.87
-0.87
-0.86
-0.84
-0.82
-0.825
-0.8
-0.79
-0.735
-0.705
-0.695
-0.645
-0.62
-0.59
-0.575
-0.585
-0.59
-0.63
-0.61
-0.59
-0.585
-0.57
-0.585
-0.63
-0.675
-0.74
-0.795
-0.85
-0.9
-0.93
-0.945
-0.94
-0.93
-0.925
-0.925
-0.93
-0.935
-0.94
-0.95
-0.955
-0.96
-0.965
-0.955
-0.955
-0.935
-0.94
-0.94
-0.945
-0.945
-0.97
-0.955
-0.97
-0.98
-0.995
-0.995
-1.03
-1.05
-1.04
-1.02
-0.95
-0.825
-0.64
-0.4
-0.115
0.23
0.6
0.935
1.18
1.325
1.365
1.305
1.14
0.86
0.455
-0.06
-0.56
-0.945
-1.095
-1.07
-0.935
-0.785
-0.68
-0.665
-0.705
-0.79
-0.875
-0.905
-0.945
-0.98
-0.98
-0.965
-0.95
-0.95
-0.94
-0.96
-0.975
-0.98
-0.98
-0.995
-1.01
-1.01
-1.02
-1.015
-1.02
-0.985
-0.99
-1.0
-1.005
-1.01
-1.02
-1.03
-1.025
-1.035
-1.035
-1.025
-1.005
-0.995
-0.99
-1.005
-1.005
-1.015
-1.04
-1.04
-1.035
-1.04
-1.035
-1.03
-1.025
-1.005
-0.985
-0.995
-0.99
-1.01
-0.995
-1.0
-0.99
-1.0
-1.0
-0.985
-0.985
-0.96
-0.945
-0.95
-0.945
-0.955
-0.95
-0.95
-0.95
-0.96
-0.93
-0.915
-0.895
-0.875
-0.86
-0.855
-0.84
-0.83
-0.82
-0.82
-0.815
-0.805
-0.795
-0.78
-0.75
-0.73
-0.71
-0.72
-0.705
-0.705
-0.695
-0.685
-0.685
-0.68
-0.67
-0.665
-0.62
-0.595
-0.575
-0.56
-0.545
-0.545
-0.53
-0.545
-0.535
-0.535
-0.525
-0.51
-0.485
-0.47
-0.455
-0.475
-0.47
-0.495
-0.505
-0.535
-0.545
-0.565
-0.585
-0.585
-0.6
-0.61
-0.63
-0.65
-0.66
-0.7
-0.73
-0.73
-0.755
-0.76
-0.78
-0.785
-0.765
-0.785
-0.78
-0.78
-0.8
-0.81
-0.82
-0.825
-0.835
-0.83
-0.82
-0.805
-0.795
-0.79
-0.77
-0.775
-0.795
-0.785
-0.8
-0.795
-0.795
-0.805
-0.81
-0.82
-0.8
-0.785
-0.765
-0.775
-0.77
-0.765
-0.78
-0.79
-0.81
-0.805
-0.795
-0.79
-0.77
-0.785
-0.765
-0.78
-0.765
-0.79
-0.8
-0.805
-0.805
-0.795
-0.81
-0.805
-0.81
-0.82
-0.815
-0.815
-0.815
-0.825
-0.815
-0.835
-0.835
-0.855
-0.855
-0.85
-0.845
-0.83
-0.83
-0.825
-0.83
-0.85
-0.87
-0.88
-0.865
-0.885
-0.88
-0.895
-0.88
-0.88
-0.86
-0.875
-0.885
-0.865
-0.86
-0.875
-0.89
-0.885
-0.885
-0.88
-0.88
-0.88
-0.86
-0.865
-0.865
-0.885
-0.89
-0.89
-0.89
-0.91
-0.9
-0.89
-0.875
-0.875
-0.865
-0.865
-0.865
-0.875
-0.89
-0.895
-0.885
-0.895
-0.895
-0.895
-0.89
-0.885
-0.87
-0.87
-0.88
-0.885
-0.895
-0.885
-0.89
-0.895
-0.885
-0.885
-0.87
-0.87
-0.865
-0.86
-0.855
-0.86
-0.855
-0.85
-0.825
-0.81
-0.785
-0.78
-0.75
-0.74
-0.725
-0.7
-0.69
-0.665
-0.65
-0.615
-0.585
-0.555
-0.535
-0.555
-0.555
-0.565
-0.55
-0.57
-0.56
-0.575
-0.595
-0.63
-0.665
-0.715
-0.775
-0.815
-0.86
-0.875
-0.895
-0.905
-0.915
-0.925
-0.93
-0.945
-0.955
-0.965
-0.965
-0.96
-0.965
-0.96
-0.94
-0.93
-0.93
-0.945
-0.96
-0.955
-0.965
-0.97
-0.955
-0.95
-0.94
-0.92
-0.925
-0.925
-0.945
-0.945
-0.98
-1.0
-1.025
-1.03
-0.975
-0.865
-0.705
-0.49
-0.2
0.15
0.515
0.845
1.095
1.22
1.26
1.225
1.115
0.855
0.49
0.005
-0.49
-0.865
-1.02
-1.035
-0.94
-0.81
-0.73
-0.69
-0.715
-0.775
-0.825
-0.87
-0.9
-0.925
-0.94
-0.945
-0.955
-0.96
-0.97
-0.99
-0.985
-0.965
-0.96
-0.955
-0.95
-0.96
-0.945
-0.97
-0.965
-0.99
-1.0
-0.99
-0.975
-0.98
-0.985
-0.995
-0.985
-0.96
-0.975
-0.97
-0.985
-1.0
-0.995
-0.995
-1.0
-1.005
-0.99
-1.0
-0.99
-0.99
-0.98
-0.975
-0.97
-0.97
-0.975
-0.975
-0.97
-0.975
-0.96
-0.955
-0.935
-0.935
-0.93
-0.93
-0.93
-0.93
-0.93
-0.915
-0.92
-0.9
-0.895
-0.88
-0.87
-0.845
-0.85
-0.855
-0.84
-0.82
-0.815
-0.81
-0.815
-0.78
-0.765
-0.735
-0.715
-0.69
-0.68
-0.67
-0.665
-0.655
-0.645
-0.63
-0.61
-0.6
-0.575
-0.56
-0.55
-0.53
-0.54
-0.56
-0.55
-0.54
-0.535
-0.525
-0.51
-0.49
-0.485
-0.47
-0.465
-0.47
-0.47
-0.51
-0.525
-0.545
-0.575
-0.6
-0.63
-0.635
-0.665
-0.675
-0.685
-0.705
-0.745
-0.76
-0.79
-0.82
-0.835
-0.855
-0.85
-0.865
-0.88
-0.865
-0.87
-0.895
-0.885
-0.9
-0.895
-0.92
-0.925
-0.95
-0.94
-0.945
-0.93
-0.925
-0.92
-0.9
-0.92
-0.925
-0.94
-0.935
-0.945
-0.945
-0.945
-0.94
-0.915
-0.91
-0.915
-0.925
-0.93
-0.925
-0.935
-0.925
-0.91
-0.92
-0.925
-0.92
-0.9
-0.885
-0.905
-0.9
-0.885
-0.89
-0.895
-0.895
-0.915
-0.91
-0.905
-0.9
-0.885
-0.89
-0.885
-0.895
-0.91
-0.91
-0.93
-0.925
-0.925
-0.945
-0.94
-0.935
-0.93
-0.92
-0.91
-0.9
-0.905
-0.92
-0.935
-0.945
-0.95
-0.965
-0.96
-0.955
-0.94
-0.94
-0.93
-0.925
-0.945
-0.945
-0.97
-0.975
-0.985
-0.995
-0.98
-0.97
-0.96
-0.955
-0.945
-0.945
-0.955
-0.945
-0.96
-0.97
-0.98
-0.98
-0.975
-0.96
-0.955
-0.96
-0.955
-0.925
-0.93
-0.955
-0.96
-0.99
-0.99
-0.995
-1.0
-0.97
-0.95
-0.95
-0.935
-0.9
-0.9
-0.885
-0.885
-0.86
-0.85
-0.84
-0.825
-0.81
-0.78
-0.755
-0.71
-0.675
-0.645
-0.605
-0.595
-0.6
-0.63
-0.655
-0.66
-0.645
-0.655
-0.665
-0.695
-0.74
-0.81
-0.855
-0.91
-0.96
-0.99
-1.015
-1.015
-1.015
-1.005
-1.0
-0.995
-0.98
-0.985
-1.0
-1.01
-1.02
-1.025
-1.03
-1.02
-1.01
-1.025
-1.015
-1.015
-1.0
-1.005
-1.0
-1.04
-1.03
-1.04
-1.03
-1.035
-1.065
-1.085
-1.095
-1.055
-0.965
-0.835
-0.64
-0.375
-0.02
0.36
0.71
0.975
1.145
1.185
1.115
0.905
0.525
-0.005
-0.565
-1.005
-1.215
-1.215
-1.085
-0.915
-0.81
-0.76
-0.785
-0.83
-0.92
-0.985
-1.025
-1.05
-1.035
-1.04
-1.025
-1.035
-1.025
-1.025
-1.03
-1.025
-1.01
-1.03
-1.035
-1.04
-1.03
-1.045
-1.06
-1.07
-1.07
-1.06
-1.04
-1.035
-1.03
-1.03
-1.025
-1.035
-1.045
-1.065
-1.06
-1.065
-1.05
-1.03
-1.03
-1.035
-1.025
-1.025
-1.035
-1.04
-1.04
-1.035
-1.045
-1.03
-1.02
-0.995
-1.0
-0.985
-0.995
-0.995
-0.995
-0.995
-0.99
-0.995
-0.975
-0.96
-0.95
-0.94
-0.92
-0.9
-0.9
-0.895
-0.88
-0.875
-0.885
-0.875
-0.855
-0.85
-0.825
-0.81
-0.795
-0.765
-0.75
-0.725
-0.705
-0.695
-0.68
-0.67
-0.65
-0.65
-0.645
-0.635
-0.61
-0.61
-0.59
-0.575
-0.565
-0.56
-0.56
-0.55
-0.55
-0.555
-0.545
-0.545
-0.54
-0.53
-0.535
-0.545
-0.57
-0.595
-0.6
-0.6
-0.63
-0.645
-0.665
-0.685
-0.705
-0.715
-0.735
-0.765
-0.79
-0.83
-0.845
-0.875
-0.895
-0.915
-0.925
-0.925
-0.935
-0.925
-0.935
-0.945
-0.935
-0.975
-0.975
-0.995
-0.995
-1.0
-1.0
-0.985
-0.98
-0.98
-0.98
-0.975
-0.97
-0.98
-0.98
-0.985
-1.005
-1.0
-0.985
-0.975
-0.965
-0.96
-0.95
-0.955
-0.96
-0.965
-0.965
-0.96
-0.965
-0.97
-0.95
-0.965
-0.955
-0.95
-0.945
-0.94
-0.94
-0.945
-0.96
-0.95
-0.95
-0.96
-0.955
-0.945
-0.93
-0.925
-0.93
-0.93
-0.93
-0.96
-0.965
-0.965
-0.97
-0.965
-0.96
-0.945
-0.96
-0.945
-0.93
-0.935
-0.955
-0.96
-0.985
-1.005
-1.005
-0.985
-0.985
-0.985
-0.975
-0.97
-0.97
-0.97
-0.97
-0.985
-0.99
-0.995
-0.985
-0.995
-0.98
-0.985
-0.985
-0.99
-0.98
-0.98
-0.995
-0.99
-1.0
-1.005
-1.005
-1.02
-1.01
-0.995
-0.995
-1.0
-1.0
-0.985
-0.995
-0.995
-1.0
-0.995
-1.0
-1.005
-0.98
-0.95
-0.935
-0.905
-0.88
-0.875
-0.86
-0.845
-0.855
-0.845
-0.84
-0.815
-0.775
-0.74
-0.7
-0.635
-0.625
-0.635
-0.66
-0.715
-0.725
-0.72
-0.715
-0.7
-0.7
-0.705
-0.73
-0.76
-0.835
-0.87
-0.935
-0.98
-1.015
-1.03
-1.045
-1.06
-1.055
-1.05
-1.04
-1.02
-1.015
-1.03
-1.015
-1.04
-1.055
-1.08
-1.06
-1.07
-1.07
-1.05
-1.035
-1.02
-1.025
-1.03
-1.035
-1.03
-1.04
-1.045
-1.055
-1.05
-1.06
-1.05
-1.05
-1.08
-1.095
-1.09
-1.03
-0.93
-0.76
-0.53
-0.225
0.145
0.54
0.895
1.12
1.235
1.245
1.125
0.825
0.365
-0.21
-0.755
-1.105
-1.225
-1.16
-1.005
-0.86
-0.775
-0.77
-0.825
-0.885
-0.96
-1.015
-1.04
-1.055
-1.05
-1.04
-1.03
-1.015
-1.01
-1.01
-1.035
-1.04
-1.045
-1.035
-1.045
-1.055
-1.06
-1.055
-1.04
-1.03
-1.035
-1.03
-1.035
-1.06
-1.06
-1.065
-1.06
-1.065
-1.055
-1.045
-1.055
-1.035
-1.02
-1.01
-1.02
-1.015
-1.01
-1.03
-1.04
-1.035
-1.025
-1.02
-0.995
-0.995
-0.97
-0.98
-0.99
-0.985
-0.99
-0.99
-0.995
-0.99
-0.98
-0.965
-0.94
-0.925
-0.91
-0.915
-0.89
-0.875
-0.87
-0.865
-0.86
-0.86
-0.85
-0.83
-0.825
-0.8
-0.765
-0.775
-0.76
-0.725
-0.725
-0.73
-0.715
-0.69
-0.67
-0.65
-0.63
-0.61
-0.58
-0.575
-0.565
-0.57
-0.56
-0.555
-0.545
-0.54
-0.525
-0.515
-0.49
-0.485
-0.485
-0.475
-0.495
-0.49
-0.525
-0.555
-0.58
-0.615
-0.64
-0.665
-0.68
-0.685
-0.715
-0.74
-0.77
-0.79
-0.82
-0.85
-0.885
-0.9
-0.92
-0.915
-0.925
-0.93
-0.935
-0.94
-0.955
-0.97
-0.98
-1.0
-0.995
-1.0
-0.995
-0.995
-1.0
-0.995
-0.985
-0.97
-0.98
-0.975
-0.985
-0.99
-1.0
-1.02
-1.02
-1.0
-0.995
-0.97
-0.965
-0.955
-0.965
-0.95
-0.96
-0.965
-0.965
-0.96
-0.96
-0.945
-0.935
-0.935
-0.925
-0.915
-0.93
-0.935
-0.94
-0.965
-0.955
-0.96
-0.975
-0.93
-0.94
-0.925
-0.915
-0.9
-0.91
-0.915
-0.92
-0.945
-0.935
-0.955
-0.955
-0.95
-0.93
-0.94
-0.95
-0.93
-0.925
-0.94
-0.96
-0.97
-0.985
-0.975
-0.985
-0.985
-0.97
-0.975
-0.97
-0.965
-0.975
-1.0
-1.01
-0.985
-1.005
-0.99
-1.005
-0.99
-0.995
-0.985
-0.97
-0.98
-0.975
-0.985
-1.0
-1.005
-1.0
-1.01
-1.025
-1.01
-1.0
-0.99
-0.985
-0.975
-0.97
-0.985
-0.98
-0.99
-0.995
-1.01
-0.985
-0.99
-0.975
-0.975
-0.955
-0.95
-0.935
-0.93
-0.915
-0.895
-0.88
-0.855
-0.88
-0.855
-0.845
-0.815
-0.805
-0.765
-0.71
-0.69
-0.65
-0.655
-0.66
-0.67
-0.7
-0.705
-0.695
-0.67
-0.66
-0.675
-0.725
-0.76
-0.805
-0.88
-0.935
-0.985
-1.01
-1.02
-1.02
-1.005
-1.0
-0.99
-0.995
-1.0
-1.01
-1.02
-1.04
-1.045
-1.055
-1.045
-1.045
-1.04
-1.03
-1.02
-1.015
-1.02
-1.03
-1.025
-1.055
-1.04
-1.045
-1.04
-1.03
-1.02
-1.01
-1.04
-1.075
-1.06
-1.03
-0.915
-0.745
-0.46
-0.135
0.265
0.675
0.975
1.18
1.24
1.195
1.045
0.74
0.315
-0.23
-0.715
-1.075
-1.21
-1.145
-0.99
-0.855
-0.76
-0.735
-0.795
-0.86
-0.93
-1.0
-1.04
-1.04
-1.03
-1.03
-1.005
-0.99
-0.985
-0.995
-1.025
-1.035
-1.035
-1.045
-1.06
-1.05
-1.05
-1.04
-1.04
-1.03
-1.045
-1.04
-1.045
-1.04
-1.055
-1.04
-1.055
-1.06
-1.05
-1.045
-1.035
-1.025
-1.015
-1.02
-1.025
-1.01
-1.015
-1.03
-1.04
-1.035
-1.02
-1.015
-1.02
-1.015
-0.99
-0.99
-0.97
-0.97
-0.98
-0.99
-0.975
-0.985
-0.965
-0.955
-0.95
-0.915
-0.915
-0.92
-0.945
-0.935
-0.915
-0.9
-0.895
-0.885
-0.87
-0.845
-0.825
-0.805
-0.79
-0.755
-0.745
-0.725
-0.73
-0.73
-0.705
-0.68
-0.68
-0.625
-0.61
-0.575
-0.545
-0.54
-0.52
-0.525
-0.51
-0.525
-0.505
-0.49
-0.48
-0.45
-0.43
-0.415
-0.415
-0.4
-0.395
-0.43
-0.44
-0.455
-0.48
-0.495
-0.505
-0.515
-0.535
-0.555
-0.59
-0.615
-0.65
-0.68
-0.705
-0.75
-0.77
-0.785
-0.8
-0.83
-0.83
-0.83
-0.81
-0.845
-0.85
-0.86
-0.88
-0.88
-0.89
-0.89
-0.89
-0.875
-0.885
-0.89
-0.89
-0.905
-0.88
-0.88
-0.895
-0.885
-0.885
-0.885
-0.895
-0.88
-0.885
-0.875
-0.875
-0.855
-0.85
-0.845
-0.865
-0.865
-0.86
-0.845
-0.85
-0.835
-0.84
-0.84
-0.85
-0.845
-0.84
-0.85
-0.86
-0.84
-0.795
-0.715
-0.61
-0.445
-0.275
-0.12
0.055
0.245
0.45
0.66
0.87
1.095
1.315
1.5
1.695
1.84
1.965
2.045
2.075
2.06
2.03
1.985
1.905
1.82
1.74
1.67
1.67
1.685
1.685
1.68
1.63
1.525
1.375
1.22
1.025
0.795
0.535
0.175
-0.215
-0.585
-0.865
-0.995
-1.05
-1.05
-1.03
-1.03
-1.035
-1.095
-1.145
-1.19
-1.245
-1.26
-1.285
-1.29
-1.295
-1.29
-1.31
-1.34
-1.36
-1.365
-1.38
-1.395
-1.405
-1.4
-1.405
-1.4
-1.395
-1.395
-1.395
-1.395
-1.415
-1.425
-1.435
-1.425
-1.405
-1.4
-1.39
-1.375
-1.36
-1.34
-1.335
-1.33
-1.37
-1.405
-1.44
-1.475
-1.49
-1.505
-1.52
-1.54
-1.57
-1.625
-1.69
-1.765
-1.85
-1.915
-1.985
-2.055
-2.11
-2.12
-2.155
-2.18
-2.2
-2.22
-2.24
-2.28
-2.3
-2.32
-2.335
-2.375
-2.38
-2.365
-2.36
-2.355
-2.345
-2.345
-2.355
-2.34
-2.325
-2.315
-2.295
-2.26
-2.215
-2.19
-2.14
-2.09
-2.025
-1.98
-1.945
-1.91
-1.865
-1.785
-1.75
-1.69
-1.635
-1.585
-1.535
-1.485
-1.435
-1.395
-1.36
-1.335
-1.31
-1.29
-1.265
-1.255
-1.225
-1.215
-1.19
-1.18
-1.17
-1.16
-1.175
-1.18
-1.17
-1.185
-1.18
-1.17
-1.17
-1.155
-1.145
-1.13
-1.12
-1.11
-1.125
-1.13
-1.14
-1.14
-1.145
-1.14
-1.135
-1.12
-1.115
-1.105
-1.105
-1.09
-1.105
-1.12
-1.125
-1.13
-1.14
-1.135
-1.14
-1.105
-1.095
-1.095
-1.06
-1.065
-1.07
-1.07
-1.065
-1.08
-1.095
-1.1
-1.1
-1.085
-1.075
-1.06
-1.04
-1.035
-1.04
-1.035
-1.045
-1.06
-1.07
-1.07
-1.055
-1.05
-1.05
-1.035
-1.03
-1.025
-1.03
-1.04
-1.025
-1.025
-1.035
-1.03
-1.04
-1.04
-1.02
-1.03
-1.01
-1.025
-1.03
-1.015
-1.04
-1.025
-1.04
-1.035
-1.035
-1.025
-1.02
-1.015
-0.99
-1.01
-1.0
-1.0
-1.005
-1.01
-1.015
-1.035
-1.035
-1.035
-1.03
-1.01
-1.005
-1.0
-0.99
-0.995
-1.005
-1.015
-1.025
-1.03
-1.025
-1.02
-1.01
-0.995
-0.995
-0.985
-1.0
-1.0
-1.015
-1.01
-1.02
-1.03
-1.03
-1.015
-1.0
-0.975
-0.97
-0.975
-0.99
-1.005
-1.005
-1.0
-1.005
-1.01
-0.995
-0.995
-0.975
-0.98
-0.985
-0.975
-0.99
-0.985
-0.99
-0.995
-1.01
-1.01
-0.995
-0.985
-0.985
-0.975
-0.965
-0.965
-0.97
-0.98
-0.985
-0.985
-0.995
-1.0
-0.995
-0.99
-0.995
-0.98
-0.96
-0.97
-0.98
-0.975
-0.98
-1.0
-1.005
-1.02
-1.005
-0.995
-1.0
-1.0
-0.975
-0.965
-0.965
-0.97
-0.985
-0.99
-0.995
-0.995
-0.995
-0.99
-0.975
