Lead II
-0.855
-0.86
-0.855
-0.855
-0.845
-0.835
-0.82
-0.83
-0.835
-0.835
-0.83
-0.845
-0.855
-0.87
-0.88
-0.89
-0.905
-0.865
-0.785
-0.655
-0.485
-0.195
0.14
0.52
0.895
1.175
1.32
1.38
1.32
1.125
0.795
0.34
-0.19
-0.65
-0.915
-0.99
-0.905
-0.785
-0.665
-0.58
-0.585
-0.625
-0.675
-0.75
-0.805
-0.825
-0.845
-0.84
-0.855
-0.86
-0.855
-0.85
-0.855
-0.845
-0.84
-0.835
-0.86
-0.865
-0.88
-0.86
-0.865
-0.86
-0.855
-0.86
-0.855
-0.835
-0.835
-0.845
-0.845
-0.85
-0.86
-0.86
-0.855
-0.88
-0.86
-0.865
-0.84
-0.84
-0.825
-0.835
-0.84
-0.845
-0.86
-0.865
-0.845
-0.845
-0.835
-0.815
-0.81
-0.805
-0.79
-0.79
-0.78
-0.785
-0.79
-0.795
-0.79
-0.795
-0.78
-0.76
-0.74
-0.725
-0.69
-0.705
-0.7
-0.7
-0.695
-0.675
-0.685
-0.675
-0.66
-0.625
-0.61
-0.59
-0.575
-0.55
-0.545
-0.53
-0.525
-0.515
-0.485
-0.47
-0.46
-0.43
-0.4
-0.395
-0.36
-0.365
-0.355
-0.375
-0.355
-0.35
-0.355
-0.33
-0.335
-0.28
-0.27
-0.25
-0.255
-0.25
-0.26
-0.295
-0.325
-0.32
-0.37
-0.37
-0.4
-0.41
-0.44
-0.46
-0.49
-0.515
-0.555
-0.59
-0.625
-0.65
-0.675
-0.695
-0.71
-0.72
-0.73
-0.73
-0.75
-0.75
-0.765
-0.77
-0.78
-0.79
-0.8
-0.815
-0.805
-0.82
-0.795
-0.81
-0.8
-0.795
-0.79
-0.805
-0.84
-0.845
-0.845
-0.83
-0.845
-0.83
-0.805
-0.79
-0.775
-0.78
-0.775
-0.78
-0.795
-0.775
-0.78
-0.775
-0.77
-0.765
-0.76
-0.765
-0.755
-0.74
-0.765
-0.755
-0.76
-0.775
-0.73
-0.64
-0.535
-0.39
-0.225
-0.065
0.095
0.26
0.455
0.655
0.885
1.115
1.355
1.565
1.745
1.895
2.0
2.08
2.105
2.12
2.095
2.05
1.985
1.9
1.81
1.75
1.72
1.735
1.775
1.8
1.79
1.745
1.655
1.505
1.36
1.17
0.985
0.735
0.44
0.105
-0.26
-0.58
-0.8
-0.915
-0.955
-0.97
-0.94
-0.93
-0.965
-1.01
-1.065
-1.1
-1.13
-1.155
-1.165
-1.17
-1.185
-1.21
-1.225
-1.255
-1.265
-1.275
-1.295
-1.295
-1.295
-1.29
-1.3
-1.3
-1.315
-1.32
-1.33
-1.345
-1.34
-1.33
-1.325
-1.325
-1.32
-1.325
-1.32
-1.305
-1.305
-1.29
-1.305
-1.295
-1.3
-1.315
-1.34
-1.36
-1.385
-1.39
-1.39
-1.425
-1.46
-1.53
-1.59
-1.67
-1.735
-1.81
-1.86
-1.935
-1.97
-1.995
-2.025
-2.075
-2.09
-2.125
-2.16
-2.2
-2.22
-2.26
-2.295
-2.3
-2.315
-2.31
-2.31
-2.315
-2.31
-2.325
-2.335
-2.325
-2.295
-2.295
-2.25
-2.23
-2.19
-2.15
-2.115
-2.055
-2.025
-1.985
-1.925
-1.875
-1.825
-1.77
-1.72
-1.645
-1.595
-1.535
-1.465
-1.41
-1.37
-1.32
-1.295
-1.27
-1.245
-1.225
-1.195
-1.165
-1.145
-1.13
-1.115
-1.1
-1.1
-1.105
-1.12
-1.115
-1.12
-1.125
-1.12
-1.11
-1.095
-1.075
-1.06
-1.055
-1.07
-1.075
-1.065
-1.09
-1.105
-1.105
-1.105
-1.09
-1.08
-1.07
-1.065
-1.07
-1.065
-1.07
-1.035
-1.07
-1.06
-1.07
-1.06
-1.05
-1.04
-1.045
-1.035
-1.045
-1.025
-1.02
-1.045
-1.04
-1.04
-1.045
-1.03
-1.02
-1.04
-1.04
-1.0
-1.005
-1.01
-1.02
-1.02
-1.025
-1.025
-1.025
-1.025
-1.02
-1.005
-0.985
-0.98
-0.99
-0.99
-0.985
-1.015
-1.02
-1.02
-1.015
-1.025
-1.015
-0.99
-0.98
-0.965
-0.96
-0.97
-0.985
-0.99
-0.985
-0.98
-1.0
-0.985
-0.975
-0.96
-0.965
-0.965
-0.955
-0.955
-0.955
-0.975
-0.97
-0.97
-0.975
-0.975
-0.965
-0.955
-0.955
-0.945
-0.95
-0.96
-0.96
-0.965
-0.965
-0.98
-0.97
-0.97
-0.975
-0.955
-0.95
-0.94
-0.935
-0.935
-0.94
-0.945
-0.955
-0.96
-0.97
-0.97
-0.95
-0.95
-0.93
-0.955
-0.95
-0.955
-0.955
-0.965
-0.95
-0.96
-0.98
-0.94
-0.93
-0.935
-0.925
-0.925
-0.925
-0.935
-0.94
-0.945
-0.95
-0.96
-0.95
-0.945
-0.955
-0.94
-0.925
-0.915
-0.92
-0.91
-0.915
-0.92
-0.94
-0.95
-0.95
-0.955
-0.94
-0.925
-0.905
-0.895
-0.895
-0.91
-0.895
-0.915
-0.91
-0.91
-0.925
-0.94
-0.915
-0.91
-0.895
-0.895
-0.89
-0.9
-0.91
-0.915
-0.905
-0.92
-0.91
-0.9
-0.895
-0.88
-0.87
-0.865
-0.885
-0.885
-0.89
-0.91
-0.89
-0.89
-0.9
-0.895
-0.9
-0.88
-0.875
-0.875
-0.88
-0.87
-0.89
-0.895
-0.87
-0.885
-0.885
-0.9
-0.89
-0.895
-0.885
-0.88
-0.855
-0.855
-0.86
-0.885
-0.875
-0.885
-0.885
-0.89
-0.875
-0.865
-0.85
-0.845
-0.84
-0.85
-0.85
-0.855
-0.865
-0.87
-0.875
-0.885
-0.875
-0.87
-0.86
-0.835
-0.84
-0.835
-0.835
-0.845
-0.86
-0.865
-0.87
-0.875
-0.865
-0.855
-0.84
-0.835
-0.84
-0.85
-0.845
-0.86
-0.86
-0.855
-0.865
-0.87
-0.85
-0.85
-0.84
-0.82
-0.815
-0.81
-0.805
-0.805
-0.78
-0.78
-0.765
-0.74
-0.725
-0.715
-0.695
-0.665
-0.645
-0.635
-0.635
-0.665
-0.685
-0.73
-0.76
-0.78
-0.8
-0.8
-0.79
-0.785
-0.79
-0.795
-0.805
-0.84
-0.84
-0.865
-0.87
-0.865
-0.865
-0.845
-0.83
-0.825
-0.81
-0.82
-0.82
-0.82
-0.84
-0.835
-0.85
-0.855
-0.85
-0.85
-0.84
-0.84
-0.85
-0.885
-0.88
-0.875
-0.81
-0.695
-0.475
-0.195
0.15
0.55
0.93
1.21
1.39
1.46
1.4
1.23
0.935
0.51
-0.01
-0.49
-0.845
-0.975
-0.93
-0.785
-0.655
-0.56
-0.545
-0.59
-0.645
-0.725
-0.78
-0.82
-0.82
-0.81
-0.795
-0.795
-0.8
-0.825
-0.835
-0.845
-0.86
-0.855
-0.855
-0.85
-0.845
-0.84
-0.84
-0.84
-0.815
-0.825
-0.84
-0.85
-0.865
-0.865
-0.895
-0.87
-0.87
-0.86
-0.855
-0.83
-0.83
-0.83
-0.84
-0.845
-0.85
-0.87
-0.87
-0.87
-0.855
-0.86
-0.84
-0.84
-0.825
-0.825
-0.83
-0.855
-0.845
-0.86
-0.86
-0.855
-0.835
-0.83
-0.825
-0.825
-0.81
-0.82
-0.815
-0.8
-0.8
-0.79
-0.79
-0.785
-0.765
-0.765
-0.745
-0.725
-0.71
-0.695
-0.695
-0.69
-0.7
-0.69
-0.69
-0.675
-0.64
-0.625
-0.605
-0.585
-0.57
-0.575
-0.555
-0.565
-0.55
-0.55
-0.535
-0.52
-0.505
-0.48
-0.45
-0.45
-0.435
-0.425
-0.415
-0.415
-0.41
-0.405
-0.4
-0.39
-0.39
-0.37
-0.365
-0.36
-0.36
-0.37
-0.4
-0.42
-0.46
-0.47
-0.495
-0.52
-0.54
-0.55
-0.565
-0.58
-0.595
-0.625
-0.635
-0.665
-0.695
-0.705
-0.735
-0.735
-0.755
-0.765
-0.765
-0.74
-0.745
-0.76
-0.77
-0.765
-0.765
-0.785
-0.795
-0.805
-0.775
-0.77
-0.765
-0.755
-0.745
-0.755
-0.76
-0.76
-0.765
-0.77
-0.77
-0.755
-0.755
-0.75
-0.735
-0.725
-0.715
-0.715
-0.715
-0.72
-0.73
-0.74
-0.73
-0.735
-0.73
-0.73
-0.725
-0.715
-0.725
-0.73
-0.71
-0.725
-0.74
-0.735
-0.76
-0.765
-0.755
-0.74
-0.74
-0.755
-0.75
-0.755
-0.755
-0.755
-0.765
-0.795
-0.8
-0.79
-0.79
-0.8
-0.785
-0.78
-0.78
-0.79
-0.8
-0.795
-0.8
-0.805
-0.82
-0.83
-0.815
-0.82
-0.8
-0.805
-0.8
-0.815
-0.815
-0.84
-0.855
-0.855
-0.855
-0.85
-0.845
-0.85
-0.825
-0.83
-0.825
-0.82
-0.82
-0.835
-0.855
-0.855
-0.86
-0.85
-0.85
-0.84
-0.84
-0.845
-0.83
-0.845
-0.845
-0.85
-0.86
-0.85
-0.87
-0.86
-0.855
-0.825
-0.815
-0.81
-0.78
-0.795
-0.77
-0.745
-0.73
-0.73
-0.73
-0.71
-0.695
-0.685
-0.68
-0.68
-0.685
-0.71
-0.72
-0.745
-0.755
-0.775
-0.8
-0.81
-0.825
-0.815
-0.83
-0.83
-0.855
-0.835
-0.835
-0.835
-0.845
-0.84
-0.85
-0.84
-0.85
-0.845
-0.835
-0.825
-0.83
-0.82
-0.83
-0.825
-0.835
-0.85
-0.855
-0.835
-0.825
-0.815
-0.805
-0.795
-0.795
-0.795
-0.82
-0.85
-0.87
-0.9
-0.87
-0.785
-0.62
-0.41
-0.145
0.175
0.55
0.89
1.17
1.35
1.415
1.365
1.245
0.98
0.59
0.09
-0.395
-0.755
-0.935
-0.925
-0.8
-0.675
-0.58
-0.535
-0.56
-0.63
-0.68
-0.73
-0.75
-0.77
-0.75
-0.755
-0.765
-0.77
-0.77
-0.785
-0.785
-0.785
-0.79
-0.775
-0.775
-0.77
-0.75
-0.77
-0.775
-0.78
-0.785
-0.795
-0.8
-0.81
-0.8
-0.795
-0.775
-0.785
-0.77
-0.785
-0.79
-0.79
-0.8
-0.8
-0.795
-0.81
-0.785
-0.785
-0.75
-0.765
-0.755
-0.75
-0.77
-0.765
-0.775
-0.78
-0.775
-0.765
-0.755
-0.75
-0.745
-0.725
-0.715
-0.73
-0.72
-0.73
-0.735
-0.74
-0.73
-0.725
-0.71
-0.69
-0.675
-0.665
-0.65
-0.655
-0.655
-0.645
-0.635
-0.625
-0.615
-0.605
-0.595
-0.57
-0.54
-0.515
-0.505
-0.48
-0.46
-0.465
-0.44
-0.425
-0.405
-0.395
-0.385
-0.34
-0.325
-0.295
-0.28
-0.275
-0.27
-0.255
-0.27
-0.255
-0.255
-0.255
-0.24
-0.225
-0.235
-0.225
-0.225
-0.24
-0.265
-0.295
-0.325
-0.345
-0.39
-0.41
-0.44
-0.455
-0.47
-0.48
-0.505
-0.545
-0.575
-0.605
-0.64
-0.65
-0.675
-0.695
-0.695
-0.695
-0.705
-0.71
-0.71
-0.72
-0.72
-0.74
-0.755
-0.765
-0.775
-0.78
-0.775
-0.755
-0.75
-0.745
-0.77
-0.765
-0.775
-0.775
-0.77
-0.78
-0.785
-0.785
-0.775
-0.77
-0.765
-0.745
-0.75
-0.735
-0.74
-0.745
-0.745
-0.76
-0.755
-0.76
-0.745
-0.725
-0.705
-0.71
-0.685
-0.685
-0.69
-0.695
-0.695
-0.705
-0.715
-0.71
-0.72
-0.715
-0.705
-0.68
-0.7
-0.7
-0.69
-0.665
-0.625
-0.535
-0.405
-0.275
-0.115
0.03
0.19
0.37
0.565
0.75
0.975
1.18
1.37
1.525
1.695
1.84
1.945
2.05
2.115
2.14
2.145
2.125
2.08
2.02
1.955
1.89
1.855
1.855
1.88
1.91
1.92
1.895
1.835
1.685
1.505
1.315
1.075
0.785
0.45
0.05
-0.34
-0.645
-0.825
-0.9
-0.915
-0.905
-0.875
-0.895
-0.94
-0.995
-1.035
-1.09
-1.105
-1.135
-1.135
-1.14
-1.145
-1.16
-1.175
-1.185
-1.195
-1.215
-1.21
-1.2
-1.185
-1.17
-1.155
-1.165
-1.145
-1.165
-1.175
-1.195
-1.22
-1.27
-1.31
-1.345
-1.34
-1.365
-1.37
-1.415
-1.43
-1.455
-1.5
-1.55
-1.59
-1.61
-1.645
-1.675
-1.68
-1.705
-1.725
-1.745
-1.78
-1.815
-1.84
-1.865
-1.895
-1.925
-1.97
-1.995
-2.02
-2.015
-2.045
-2.06
-2.08
-2.115
-2.13
-2.155
-2.18
-2.195
-2.22
-2.23
-2.235
-2.235
-2.225
-2.22
-2.23
-2.225
-2.2
-2.215
-2.21
-2.175
-2.165
-2.14
-2.095
-2.04
-1.98
-1.92
-1.87
-1.825
-1.775
-1.755
-1.695
-1.64
-1.59
-1.51
-1.445
-1.365
-1.32
-1.25
-1.21
-1.17
-1.155
-1.125
-1.09
-1.08
-1.065
-1.075
-1.03
-1.025
-1.005
-1.0
-1.0
-0.995
-1.0
-1.005
-1.015
-1.015
-1.02
-1.015
-1.005
-0.995
-0.99
-0.985
-0.985
-0.975
-0.975
-0.99
-1.0
-1.0
-1.0
-1.005
-1.0
-0.985
-0.97
-0.965
-0.96
-0.97
-0.97
-0.965
-0.98
-0.99
-0.975
-0.97
-0.955
-0.95
-0.945
-0.93
-0.915
-0.92
-0.92
-0.935
-0.935
-0.94
-0.94
-0.945
-0.93
-0.93
-0.915
-0.895
-0.905
-0.89
-0.9
-0.895
-0.905
-0.92
-0.925
-0.93
-0.92
-0.9
-0.895
-0.885
-0.885
-0.875
-0.89
-0.89
-0.905
-0.915
-0.915
-0.925
-0.91
-0.9
-0.89
-0.88
-0.88
-0.885
-0.88
-0.895
-0.895
-0.905
-0.9
-0.91
-0.9
-0.89
-0.88
-0.885
-0.85
-0.87
-0.875
-0.88
-0.905
-0.91
-0.905
-0.9
-0.9
-0.885
-0.875
-0.87
-0.865
-0.87
-0.875
-0.88
-0.905
-0.92
-0.915
-0.89
-0.9
-0.875
-0.865
-0.86
-0.845
-0.865
-0.855
-0.87
-0.88
-0.91
-0.895
-0.88
-0.875
-0.865
-0.855
-0.845
-0.835
-0.835
-0.85
-0.86
-0.865
-0.88
-0.875
-0.88
-0.885
-0.89
-0.87
-0.86
-0.85
-0.86
-0.85
-0.865
-0.86
-0.865
-0.865
-0.88
-0.9
-0.895
-0.865
-0.845
-0.84
-0.84
-0.84
-0.845
-0.85
-0.85
-0.86
-0.87
-0.85
-0.86
-0.85
-0.845
-0.835
-0.82
-0.845
-0.845
-0.855
-0.845
-0.855
-0.855
-0.855
-0.85
-0.83
-0.825
-0.815
-0.815
-0.835
-0.83
-0.835
-0.845
-0.85
-0.84
-0.835
-0.84
-0.815
-0.825
-0.805
-0.815
-0.815
-0.83
-0.825
-0.825
-0.835
-0.84
-0.835
-0.83
-0.84
-0.835
-0.805
-0.83
-0.845
-0.835
-0.825
-0.835
-0.835
-0.845
-0.85
-0.83
-0.805
-0.81
-0.795
-0.8
-0.815
-0.815
-0.825
-0.835
-0.83
-0.82
-0.825
-0.815
-0.805
-0.795
-0.795
-0.805
-0.815
-0.81
-0.83
-0.825
-0.83
-0.835
-0.82
-0.82
-0.82
-0.795
-0.785
-0.795
-0.79
-0.8
-0.82
-0.8
-0.795
-0.81
-0.825
-0.805
-0.81
-0.8
-0.795
-0.78
-0.78
-0.78
-0.775
-0.785
-0.785
-0.785
-0.755
-0.745
-0.715
-0.695
-0.655
-0.65
-0.635
-0.63
-0.625
-0.65
-0.675
-0.705
-0.695
-0.685
-0.695
-0.685
-0.685
-0.705
-0.725
-0.735
-0.775
-0.8
-0.81
-0.815
-0.825
-0.825
-0.81
-0.82
-0.815
-0.805
-0.815
-0.795
-0.805
-0.815
-0.805
-0.81
-0.815
-0.77
-0.76
-0.755
-0.75
-0.76
-0.76
-0.79
-0.79
-0.83
-0.845
-0.845
-0.825
-0.75
-0.61
-0.42
-0.15
0.195
0.54
0.9
1.185
1.365
1.435
1.4
1.24
0.935
0.475
-0.075
-0.555
-0.865
-0.95
-0.845
-0.715
-0.59
-0.54
-0.55
-0.6
-0.66
-0.715
-0.745
-0.76
-0.765
-0.75
-0.755
-0.76
-0.765
-0.775
-0.795
-0.8
-0.79
-0.8
-0.77
-0.765
-0.76
-0.775
-0.785
-0.79
-0.805
-0.805
-0.82
-0.81
-0.795
-0.795
-0.79
-0.775
-0.775
-0.77
-0.775
-0.785
-0.785
-0.81
-0.81
-0.79
-0.795
-0.78
-0.77
-0.765
-0.775
-0.765
-0.775
-0.785
-0.785
-0.78
-0.775
-0.78
-0.755
-0.745
-0.735
-0.74
-0.745
-0.735
-0.735
-0.745
-0.725
-0.725
-0.725
-0.72
-0.705
-0.685
-0.675
-0.665
-0.655
-0.645
-0.625
-0.63
-0.63
-0.625
-0.645
-0.63
-0.61
-0.565
-0.535
-0.515
-0.51
-0.485
-0.495
-0.495
-0.485
-0.47
-0.47
-0.455
-0.42
-0.395
-0.385
-0.355
-0.345
-0.32
-0.33
-0.31
-0.3
-0.305
-0.305
-0.285
-0.28
-0.275
-0.27
-0.28
-0.285
-0.33
-0.35
-0.38
-0.415
-0.44
-0.475
-0.5
-0.515
-0.555
-0.56
-0.565
-0.575
-0.605
-0.625
-0.645
-0.675
-0.7
-0.7
-0.715
-0.725
-0.715
-0.715
-0.695
-0.7
-0.715
-0.705
-0.71
-0.735
-0.735
-0.735
-0.725
-0.715
-0.715
-0.69
-0.69
-0.69
-0.69
-0.685
-0.71
-0.705
-0.705
-0.71
-0.69
-0.665
-0.645
-0.645
-0.64
-0.67
-0.675
-0.675
-0.69
-0.69
-0.69
-0.68
-0.645
-0.575
-0.475
-0.355
-0.205
-0.06
0.115
0.27
0.44
0.64
0.875
1.09
1.325
1.55
1.755
1.93
2.065
2.165
2.22
2.255
2.245
2.225
2.175
2.1
2.005
1.915
1.875
1.855
1.87
1.895
1.9
1.87
1.805
1.69
1.535
1.345
1.12
0.885
0.59
0.215
-0.145
-0.49
-0.755
-0.89
-0.93
-0.935
-0.92
-0.915
-0.945
-0.98
-1.025
-1.06
-1.09
-1.125
-1.145
-1.155
-1.18
-1.19
-1.235
-1.23
-1.25
-1.245
-1.26
-1.27
-1.265
-1.275
-1.3
-1.31
-1.32
-1.335
-1.36
-1.38
-1.39
-1.4
-1.4
-1.405
-1.41
-1.42
-1.445
-1.465
-1.475
-1.5
-1.51
-1.515
-1.54
-1.535
-1.55
-1.56
-1.55
-1.535
-1.54
-1.55
-1.57
-1.58
-1.595
-1.615
-1.635
-1.655
-1.665
-1.705
-1.745
-1.78
-1.835
-1.875
-1.93
-1.985
-2.015
-2.055
-2.08
-2.105
-2.125
-2.155
-2.18
-2.18
-2.2
-2.205
-2.21
-2.215
-2.23
-2.215
-2.205
-2.185
-2.155
-2.125
-2.095
-2.065
-2.03
-2.005
-1.95
-1.92
-1.88
-1.83
-1.765
-1.705
-1.63
-1.58
-1.515
-1.465
-1.415
-1.385
-1.345
-1.3
-1.265
-1.22
-1.185
-1.14
-1.105
-1.085
-1.085
-1.06
-1.03
-1.045
-1.055
-1.05
-1.055
-1.05
-1.04
-1.045
-1.025
-1.005
-1.0
-0.98
-0.99
-0.995
-1.005
-1.01
-1.01
-1.01
-1.0
-0.985
-0.98
-0.98
-0.955
-0.965
-0.95
-0.96
-0.965
-0.98
-0.95
-0.97
-0.97
-0.97
-0.96
-0.955
-0.945
-0.925
-0.935
-0.94
-0.95
-0.945
-0.95
-0.935
-0.945
-0.945
-0.94
-0.92
-0.92
-0.92
-0.92
-0.91
-0.915
-0.925
-0.94
-0.92
-0.92
-0.905
-0.91
-0.89
-0.89
-0.905
-0.91
-0.905
-0.91
-0.92
-0.92
-0.915
-0.905
-0.915
-0.91
-0.905
-0.88
-0.855
-0.88
-0.89
-0.895
-0.91
-0.9
-0.905
-0.905
-0.92
-0.9
-0.89
-0.9
-0.895
-0.885
-0.88
-0.89
-0.905
-0.9
-0.915
-0.93
-0.92
-0.9
-0.885
-0.895
-0.89
-0.895
-0.895
-0.9
-0.915
-0.905
-0.905
-0.905
-0.905
-0.885
-0.86
-0.875
-0.86
-0.87
-0.89
-0.9
-0.905
-0.915
-0.905
-0.895
-0.875
-0.88
-0.865
-0.855
-0.86
-0.86
-0.865
-0.87
-0.875
-0.88
-0.89
-0.875
-0.87
-0.86
-0.855
-0.845
-0.86
-0.86
-0.845
-0.865
-0.88
-0.9
-0.88
-0.89
-0.885
-0.875
-0.865
-0.865
-0.845
-0.855
-0.87
-0.875
-0.87
-0.87
-0.875
-0.87
-0.87
-0.855
-0.84
-0.85
-0.845
-0.835
-0.845
-0.86
-0.855
-0.86
-0.855
-0.86
-0.855
-0.845
-0.835
-0.835
-0.835
-0.825
-0.83
-0.85
-0.87
-0.86
-0.85
-0.845
-0.84
-0.835
-0.835
-0.82
-0.825
-0.84
-0.845
-0.855
-0.855
-0.87
-0.865
-0.865
-0.865
-0.845
-0.84
-0.815
-0.825
-0.82
-0.825
-0.83
-0.835
-0.85
-0.85
-0.84
-0.82
-0.83
-0.815
-0.82
-0.815
-0.8
-0.81
-0.815
-0.83
-0.845
-0.855
-0.855
-0.845
-0.82
-0.825
-0.815
-0.805
-0.805
-0.8
-0.815
-0.81
-0.825
-0.82
-0.815
-0.815
-0.805
-0.81
-0.78
-0.79
-0.795
-0.805
-0.805
-0.835
-0.825
-0.82
-0.82
-0.805
-0.8
-0.795
-0.805
-0.795
-0.79
-0.8
-0.805
-0.81
-0.825
-0.82
-0.825
-0.805
-0.8
-0.795
-0.78
-0.775
-0.79
-0.77
-0.795
-0.795
-0.805
-0.805
-0.8
-0.805
-0.805
-0.8
-0.785
-0.785
-0.775
-0.785
-0.8
-0.795
-0.825
-0.82
-0.815
-0.81
-0.805
-0.81
-0.795
-0.79
-0.785
-0.78
-0.79
-0.81
-0.82
-0.82
-0.805
-0.8
-0.79
-0.775
-0.76
-0.76
-0.76
-0.735
-0.745
-0.735
-0.71
-0.69
-0.675
-0.665
-0.655
-0.63
-0.615
-0.61
-0.63
-0.635
-0.66
-0.675
-0.71
-0.74
-0.74
-0.745
-0.75
-0.765
-0.775
-0.77
-0.785
-0.795
-0.795
-0.805
-0.795
-0.795
-0.81
-0.8
-0.8
-0.78
-0.765
-0.76
-0.765
-0.775
-0.78
-0.785
-0.785
-0.79
-0.79
-0.785
-0.785
-0.8
-0.825
-0.835
-0.83
-0.78
-0.68
-0.52
-0.295
-0.01
0.35
0.69
1.03
1.265
1.385
1.41
1.365
1.225
0.96
0.59
0.11
-0.345
-0.71
-0.875
-0.855
-0.725
-0.61
-0.51
-0.495
-0.545
-0.61
-0.655
-0.725
-0.785
-0.77
-0.77
-0.755
-0.735
-0.73
-0.745
-0.765
-0.76
-0.77
-0.77
-0.78
-0.79
-0.79
-0.785
-0.775
-0.785
-0.785
-0.77
-0.79
-0.805
-0.805
-0.81
-0.825
-0.835
-0.845
-0.825
-0.82
-0.805
-0.8
-0.8
-0.82
-0.81
-0.815
-0.815
-0.82
-0.815
-0.795
-0.795
-0.795
-0.78
-0.78
-0.775
-0.77
-0.79
-0.785
-0.79
-0.8
-0.805
-0.795
-0.78
-0.765
-0.765
-0.75
-0.725
-0.72
-0.715
-0.72
-0.72
-0.74
-0.73
-0.73
-0.695
-0.67
-0.67
-0.645
-0.635
-0.63
-0.615
-0.615
-0.63
-0.615
-0.59
-0.59
-0.57
-0.535
-0.525
-0.49
-0.49
-0.485
-0.47
-0.455
-0.445
-0.435
-0.43
-0.415
-0.395
-0.4
-0.375
-0.335
-0.32
-0.32
-0.3
-0.315
-0.31
-0.305
-0.295
-0.3
-0.29
-0.3
-0.27
-0.28
-0.305
-0.325
-0.34
-0.365
-0.41
-0.44
-0.465
-0.485
-0.495
-0.515
-0.535
-0.53
-0.56
-0.58
-0.605
-0.615
-0.65
-0.67
-0.695
-0.69
-0.695
-0.685
-0.695
-0.68
-0.68
-0.7
-0.715
-0.715
-0.715
-0.73
-0.735
-0.73
-0.725
-0.715
-0.705
-0.69
-0.68
-0.685
-0.69
-0.715
-0.715
-0.705
-0.705
-0.7
-0.71
-0.68
-0.675
-0.665
-0.655
-0.66
-0.675
-0.685
-0.695
-0.715
-0.7
-0.68
-0.62
-0.535
-0.41
-0.27
-0.12
0.025
0.17
0.33
0.535
0.745
0.965
1.225
1.47
1.69
1.88
2.04
2.145
2.22
2.26
2.265
2.24
2.2
2.115
2.02
1.925
1.87
1.84
1.825
1.85
1.83
1.78
1.675
1.5
1.32
1.125
0.915
0.635
0.295
-0.095
-0.455
-0.715
-0.865
-0.935
-0.93
-0.92
-0.935
-0.955
-0.975
-1.015
-1.05
-1.08
-1.105
-1.135
-1.14
-1.15
-1.175
-1.17
-1.205
-1.22
-1.245
-1.265
-1.245
-1.265
-1.24
-1.275
-1.27
-1.28
-1.31
-1.335
-1.36
-1.385
-1.395
-1.385
-1.39
-1.395
-1.395
-1.415
-1.435
-1.445
-1.46
-1.5
-1.525
-1.54
-1.555
-1.54
-1.53
-1.525
-1.525
-1.545
-1.565
-1.58
-1.6
-1.62
-1.615
-1.61
-1.605
-1.61
-1.605
-1.62
-1.635
-1.68
-1.735
-1.79
-1.845
-1.895
-1.94
-1.975
-2.0
-2.015
-2.035
-2.06
-2.09
-2.105
-2.14
-2.165
-2.17
-2.195
-2.18
-2.185
-2.155
-2.145
-2.135
-2.1
-2.065
-2.045
-2.01
-1.96
-1.92
-1.89
-1.845
-1.79
-1.745
-1.675
-1.625
-1.55
-1.485
-1.435
-1.385
-1.33
-1.29
-1.255
-1.22
-1.2
-1.155
-1.135
-1.12
-1.085
-1.055
-1.05
-1.045
-1.04
-1.04
-1.045
-1.05
-1.045
-1.055
-1.055
-1.03
-1.025
-1.005
-1.015
-1.0
-1.01
-1.01
-1.02
-1.035
-1.035
-1.03
-1.02
-1.01
-1.0
-0.985
-0.975
-0.975
-0.98
-0.99
-0.99
-1.0
-0.995
-0.985
-0.965
-0.96
-0.955
-0.95
-0.945
-0.93
-0.935
-0.945
-0.96
-0.965
-0.96
-0.96
-0.96
-0.945
-0.94
-0.93
-0.925
-0.94
-0.94
-0.955
-0.95
-0.955
-0.965
-0.96
-0.955
-0.95
-0.95
-0.925
-0.94
-0.93
-0.925
-0.93
-0.94
-0.945
-0.96
-0.965
-0.97
-0.96
-0.945
-0.93
-0.935
-0.93
-0.93
-0.935
-0.935
-0.94
-0.94
-0.95
-0.935
-0.925
-0.92
-0.91
-0.895
-0.905
-0.9
-0.91
-0.92
-0.92
-0.92
-0.925
-0.93
-0.92
-0.915
-0.91
-0.9
-0.915
-0.905
-0.905
-0.925
-0.93
-0.935
-0.945
-0.935
-0.92
-0.915
-0.905
-0.895
-0.895
-0.89
-0.9
-0.915
-0.915
-0.915
-0.915
-0.9
-0.9
-0.9
-0.895
-0.895
-0.895
-0.9
-0.915
-0.915
-0.915
-0.91
-0.915
-0.915
-0.925
-0.9
-0.885
-0.87
-0.885
-0.89
-0.89
-0.885
-0.9
-0.905
-0.905
-0.89
-0.9
-0.885
-0.89
-0.885
-0.885
-0.875
-0.9
-0.895
-0.9
-0.905
-0.905
-0.89
-0.89
-0.88
-0.875
-0.88
-0.875
-0.885
-0.9
-0.89
-0.895
-0.905
-0.915
-0.885
-0.885
-0.875
-0.86
-0.86
-0.865
-0.88
-0.87
-0.895
-0.895
-0.9
-0.895
-0.9
-0.895
-0.895
-0.875
-0.86
-0.865
-0.88
-0.895
-0.885
-0.88
-0.88
-0.875
-0.885
-0.865
-0.86
-0.85
-0.86
-0.855
-0.885
-0.885
-0.88
-0.875
-0.89
-0.895
-0.88
-0.87
-0.865
-0.855
-0.845
-0.85
-0.84
-0.855
-0.87
-0.875
-0.875
-0.88
-0.875
-0.88
-0.855
-0.86
-0.865
-0.87
-0.87
-0.875
-0.87
-0.875
-0.87
-0.87
-0.875
-0.865
-0.865
-0.84
-0.84
-0.84
-0.835
-0.855
-0.865
-0.885
-0.875
-0.87
-0.86
-0.845
-0.845
-0.825
-0.825
-0.815
-0.825
-0.83
-0.845
-0.845
-0.875
-0.875
-0.87
-0.865
-0.865
-0.865
-0.83
-0.825
-0.84
-0.85
-0.84
-0.84
-0.84
-0.855
-0.85
-0.855
-0.835
-0.825
-0.8
-0.8
-0.81
-0.815
-0.82
-0.815
-0.81
-0.81
-0.805
-0.79
-0.77
-0.755
-0.72
-0.715
-0.7
-0.695
-0.695
-0.695
-0.7
-0.69
-0.665
-0.635
-0.605
-0.56
-0.53
-0.545
-0.565
-0.605
-0.63
-0.67
-0.69
-0.705
-0.71
-0.705
-0.7
-0.705
-0.715
-0.735
-0.76
-0.805
-0.815
-0.84
-0.835
-0.815
-0.82
-0.805
-0.785
-0.78
-0.77
-0.77
-0.78
-0.785
-0.79
-0.795
-0.8
-0.79
-0.785
-0.765
-0.775
-0.755
-0.76
-0.78
-0.815
-0.84
-0.84
-0.815
-0.73
-0.58
-0.37
-0.075
0.28
0.65
0.995
1.25
1.4
1.455
1.425
1.31
1.12
0.78
0.345
-0.135
-0.555
-0.81
-0.855
-0.78
-0.64
-0.52
-0.46
-0.485
-0.55
-0.635
-0.67
-0.715
-0.73
-0.735
-0.715
-0.72
-0.745
-0.735
-0.75
-0.765
-0.78
-0.8
-0.78
-0.76
-0.755
-0.75
-0.75
-0.765
-0.78
-0.775
-0.775
-0.79
-0.78
-0.785
-0.79
-0.77
-0.775
-0.765
-0.75
-0.77
-0.77
-0.76
-0.775
-0.785
-0.795
-0.785
-0.785
-0.78
-0.77
-0.765
-0.76
-0.76
-0.755
-0.765
-0.76
-0.755
-0.77
-0.77
-0.76
-0.74
-0.73
-0.72
-0.71
-0.705
-0.705
-0.72
-0.72
-0.72
-0.705
-0.71
-0.7
-0.68
-0.655
-0.64
-0.635
-0.63
-0.615
-0.61
-0.605
-0.625
-0.6
-0.595
-0.59
-0.54
-0.52
-0.495
-0.48
-0.47
-0.47
-0.44
-0.435
-0.43
-0.415
-0.41
-0.395
-0.375
-0.355
-0.33
-0.315
-0.29
-0.305
-0.285
-0.29
-0.275
-0.255
-0.26
-0.26
-0.24
-0.21
-0.195
-0.18
-0.19
-0.2
-0.215
-0.265
-0.26
-0.305
-0.325
-0.36
-0.365
-0.4
-0.4
-0.4
-0.435
-0.475
-0.495
-0.52
-0.555
-0.56
-0.595
-0.6
-0.59
-0.6
-0.605
-0.605
-0.625
-0.615
-0.62
-0.66
-0.66
-0.665
-0.655
-0.65
-0.65
-0.625
-0.635
-0.63
-0.625
-0.635
-0.635
-0.64
-0.63
-0.625
-0.645
-0.64
-0.63
-0.61
-0.605
-0.605
-0.6
-0.595
-0.585
-0.605
-0.615
-0.61
-0.605
-0.6
-0.585
-0.58
-0.565
-0.55
-0.555
-0.56
-0.56
-0.58
-0.595
-0.61
-0.615
-0.62
-0.635
-0.62
-0.63
-0.61
-0.57
-0.515
-0.42
-0.32
-0.21
-0.07
0.04
0.2
0.375
0.56
0.775
0.985
1.19
1.41
1.59
1.755
1.885
1.995
2.08
2.15
2.175
2.205
2.2
2.18
2.145
2.06
1.99
1.93
1.89
1.9
1.91
1.925
1.92
1.88
1.79
1.64
1.45
1.225
0.98
0.66
0.31
-0.075
-0.43
-0.71
-0.85
-0.865
-0.845
-0.82
-0.81
-0.84
-0.885
-0.945
-0.985
-1.025
-1.065
-1.08
-1.08
-1.09
-1.1
-1.115
-1.125
-1.14
-1.165
-1.17
-1.18
-1.195
-1.2
-1.195
-1.185
-1.185
-1.18
-1.16
-1.175
-1.17
-1.175
-1.17
-1.2
-1.205
-1.195
-1.16
-1.16
-1.15
-1.18
-1.205
-1.25
-1.3
-1.345
-1.395
-1.44
-1.505
-1.53
-1.59
-1.645
-1.68
-1.725
-1.765
-1.805
-1.84
-1.88
-1.905
-1.94
-1.965
-1.995
-2.015
-2.015
-2.035
-2.055
-2.095
-2.105
-2.13
-2.14
-2.17
-2.19
-2.195
-2.215
-2.22
-2.225
-2.22
-2.21
-2.2
-2.205
-2.205
-2.175
-2.17
-2.145
-2.12
-2.105
-2.045
-2.0
-1.935
-1.885
-1.815
-1.755
-1.7
-1.645
-1.6
-1.545
-1.485
-1.435
-1.37
-1.31
-1.235
-1.195
-1.15
-1.13
-1.08
-1.07
-1.07
-1.06
-1.055
-1.065
-1.045
-1.035
-1.025
-1.015
-0.985
-0.98
-0.98
-1.005
-1.025
-1.02
-1.015
-1.005
-1.02
-1.005
-0.985
-0.98
-0.98
-1.0
-0.985
-1.0
-1.015
-1.015
-1.01
-1.03
-1.005
-1.0
-0.995
-0.975
-0.97
-0.96
-0.96
-0.965
-0.97
-0.975
-0.985
-1.005
-1.005
-0.98
-0.965
-0.95
-0.94
-0.945
-0.94
-0.95
-0.955
-0.955
-0.96
-0.955
-0.95
-0.96
-0.93
-0.925
-0.91
-0.905
-0.895
-0.91
-0.925
-0.945
-0.93
-0.94
-0.94
-0.92
-0.905
-0.9
-0.905
-0.89
-0.885
-0.885
-0.915
-0.92
-0.92
-0.925
-0.935
-0.905
-0.905
-0.895
-0.9
-0.895
-0.9
-0.91
-0.915
-0.91
-0.885
-0.89
-0.885
-0.89
-0.875
-0.875
-0.865
-0.87
-0.875
-0.875
-0.89
-0.895
-0.895
-0.905
-0.9
-0.895
-0.875
-0.87
-0.89
-0.865
-0.87
-0.87
-0.87
-0.88
-0.88
-0.9
-0.885
-0.885
-0.885
-0.885
-0.88
-0.855
-0.86
-0.885
-0.875
-0.875
-0.87
-0.875
-0.885
-0.89
-0.87
-0.865
-0.87
-0.86
-0.86
-0.86
-0.87
-0.88
-0.88
-0.88
-0.87
-0.865
-0.86
-0.855
-0.855
-0.86
-0.86
-0.855
-0.86
-0.865
-0.88
-0.875
-0.87
-0.865
-0.865
-0.88
-0.865
-0.87
-0.865
-0.845
-0.85
-0.855
-0.855
-0.865
-0.84
-0.84
-0.835
-0.82
-0.825
-0.83
-0.83
-0.83
-0.825
-0.835
-0.85
-0.85
-0.85
-0.845
-0.825
-0.82
-0.84
-0.825
-0.835
-0.84
-0.855
-0.865
-0.875
-0.875
-0.855
-0.855
-0.84
-0.83
-0.83
-0.825
-0.83
-0.83
-0.845
-0.85
-0.845
-0.855
-0.855
-0.845
-0.835
-0.835
-0.825
-0.81
-0.815
-0.835
-0.845
-0.84
-0.855
-0.855
-0.84
-0.845
-0.82
-0.815
-0.83
-0.835
-0.835
-0.845
-0.825
-0.83
-0.835
-0.835
-0.83
-0.835
-0.815
-0.815
-0.795
-0.81
-0.81
-0.805
-0.82
-0.84
-0.835
-0.835
-0.83
-0.81
-0.805
-0.81
-0.795
-0.82
-0.81
-0.81
-0.81
-0.815
-0.825
-0.84
-0.835
-0.82
-0.81
-0.815
-0.815
-0.79
-0.785
-0.805
-0.82
-0.81
-0.825
-0.825
-0.82
-0.785
-0.765
-0.765
-0.77
-0.76
-0.775
-0.76
-0.75
-0.735
-0.725
-0.715
-0.695
-0.685
-0.665
-0.65
-0.635
-0.6
-0.56
-0.53
-0.54
-0.54
-0.565
-0.615
-0.65
-0.67
-0.66
-0.67
-0.67
-0.665
-0.69
-0.735
-0.775
-0.805
-0.825
-0.83
-0.835
-0.845
-0.825
-0.81
-0.805
-0.79
-0.805
-0.81
