Lead II
-1.165
-1.205
-1.23
-1.24
-1.235
-1.175
-1.085
-0.93
-0.745
-0.575
-0.425
-0.355
-0.34
-0.375
-0.37
-0.285
-0.115
0.095
0.3
0.405
0.335
0.04
-0.455
-1.005
-1.51
-1.875
-2.09
-2.23
-2.285
-2.32
-2.365
-2.37
-2.38
-2.405
-2.41
-2.43
-2.42
-2.41
-2.41
-2.4
-2.355
-2.3
-2.2
-2.07
-1.92
-1.765
-1.615
-1.5
-1.415
-1.35
-1.355
-1.315
-1.315
-1.285
-1.26
-1.235
-1.22
-1.215
-1.215
-1.215
-1.215
-1.225
-1.215
-1.21
-1.215
-1.205
-1.2
-1.21
-1.205
-1.205
-1.205
-1.21
-1.23
-1.255
-1.27
-1.3
-1.31
-1.305
-1.285
-1.295
-1.305
-1.315
-1.335
-1.36
-1.37
-1.41
-1.41
-1.44
-1.445
-1.42
-1.42
-1.43
-1.43
-1.44
-1.44
-1.45
-1.445
-1.455
-1.475
-1.46
-1.465
-1.455
-1.45
-1.435
-1.415
-1.415
-1.415
-1.41
-1.415
-1.415
-1.395
-1.39
-1.36
-1.335
-1.305
-1.29
-1.265
-1.23
-1.215
-1.205
-1.195
-1.185
-1.195
-1.195
-1.18
-1.145
-1.14
-1.13
-1.11
-1.11
-1.105
-1.105
-1.095
-1.11
-1.11
-1.1
-1.1
-1.095
-1.085
-1.09
-1.08
-1.075
-1.085
-1.075
-1.095
-1.095
-1.105
-1.1
-1.09
-1.085
-1.09
-1.095
-1.08
-1.07
-1.07
-1.09
-1.11
-1.12
-1.135
-1.125
-1.135
-1.125
-1.105
-1.095
-1.085
-1.105
-1.11
-1.125
-1.125
-1.145
-1.16
-1.165
-1.155
-1.155
-1.155
-1.145
-1.155
-1.16
-1.14
-1.145
-1.135
-1.16
-1.165
-1.17
-1.15
-1.155
-1.145
-1.15
-1.15
-1.14
-1.135
-1.145
-1.155
-1.155
-1.17
-1.165
-1.16
-1.15
-1.135
-1.13
-1.125
-1.125
-1.125
-1.135
-1.14
-1.125
-1.125
-1.155
-1.135
-1.125
-1.135
-1.115
-1.11
-1.115
-1.125
-1.125
-1.125
-1.14
-1.135
-1.14
-1.145
-1.12
-1.115
-1.11
-1.085
-1.06
-1.065
-1.045
-1.055
-1.035
-1.045
-1.045
-1.04
-1.02
-0.995
-0.99
-0.955
-0.94
-0.92
-0.875
-0.875
-0.86
-0.88
-0.89
-0.92
-0.925
-0.93
-0.94
-0.94
-0.965
-0.94
-0.92
-0.875
-0.865
-0.855
-0.88
-0.9
-0.935
-0.965
-1.005
-1.04
-1.06
-1.085
-1.085
-1.095
-1.12
-1.15
-1.17
-1.15
-1.165
-1.17
-1.16
-1.16
-1.16
-1.185
-1.195
-1.19
-1.19
-1.2
-1.2
-1.19
-1.19
-1.185
-1.185
-1.17
-1.18
-1.16
-1.185
-1.195
-1.2
-1.205
-1.215
-1.215
-1.21
-1.21
-1.22
-1.22
-1.235
-1.225
-1.18
-1.1
-0.985
-0.82
-0.655
-0.505
-0.385
-0.335
-0.345
-0.355
-0.305
-0.185
0.0
0.2
0.315
0.29
0.045
-0.385
-0.91
-1.425
-1.84
-2.095
-2.26
-2.325
-2.36
-2.405
-2.44
-2.46
-2.485
-2.495
-2.48
-2.475
-2.47
-2.425
-2.405
-2.385
-2.34
-2.275
-2.185
-2.055
-1.89
-1.73
-1.585
-1.465
-1.385
-1.32
-1.29
-1.29
-1.3
-1.285
-1.265
-1.265
-1.24
-1.23
-1.245
-1.205
-1.2
-1.185
-1.2
-1.215
-1.21
-1.235
-1.235
-1.24
-1.245
-1.25
-1.24
-1.26
-1.265
-1.275
-1.32
-1.325
-1.34
-1.355
-1.385
-1.385
-1.405
-1.4
-1.4
-1.415
-1.425
-1.42
-1.435
-1.44
-1.47
-1.45
-1.47
-1.475
-1.475
-1.48
-1.475
-1.47
-1.465
-1.455
-1.465
-1.455
-1.425
-1.445
-1.445
-1.44
-1.435
-1.43
-1.425
-1.38
-1.36
-1.325
-1.31
-1.285
-1.275
-1.275
-1.24
-1.225
-1.205
-1.185
-1.185
-1.15
-1.135
-1.12
-1.125
-1.125
-1.12
-1.13
-1.125
-1.13
-1.15
-1.13
-1.13
-1.095
-1.08
-1.08
-1.08
-1.075
-1.085
-1.09
-1.105
-1.115
-1.12
-1.11
-1.11
-1.105
-1.115
-1.09
-1.085
-1.105
-1.1
-1.11
-1.115
-1.135
-1.135
-1.13
-1.11
-1.13
-1.115
-1.105
-1.12
-1.13
-1.135
-1.13
-1.145
-1.145
-1.15
-1.16
-1.155
-1.135
-1.125
-1.13
-1.135
-1.13
-1.15
-1.165
-1.175
-1.16
-1.175
-1.175
-1.165
-1.145
-1.145
-1.115
-1.13
-1.135
-1.13
-1.13
-1.14
-1.155
-1.14
-1.14
-1.14
-1.12
-1.12
-1.105
-1.13
-1.125
-1.14
-1.13
-1.13
-1.135
-1.13
-1.11
-1.11
-1.1
-1.08
-1.075
-1.09
-1.085
-1.095
-1.125
-1.13
-1.11
-1.115
-1.105
-1.095
-1.09
-1.065
-1.055
-1.04
-1.055
-1.055
-1.055
-1.04
-1.05
-1.04
-1.03
-1.015
-0.995
-0.985
-0.965
-0.965
-0.94
-0.92
-0.88
-0.855
-0.835
-0.84
-0.86
-0.875
-0.89
-0.905
-0.93
-0.94
-0.94
-0.935
-0.905
-0.885
-0.845
-0.845
-0.845
-0.85
-0.875
-0.895
-0.94
-0.96
-1.0
-1.025
-1.045
-1.075
-1.095
-1.1
-1.135
-1.125
-1.115
-1.1
-1.09
-1.1
-1.1
-1.115
-1.13
-1.13
-1.145
-1.16
-1.16
-1.135
-1.125
-1.12
-1.125
-1.11
-1.12
-1.12
-1.125
-1.12
-1.12
-1.125
-1.13
-1.11
-1.11
-1.115
-1.14
-1.15
-1.16
-1.16
-1.135
-1.05
-0.905
-0.715
-0.51
-0.32
-0.215
-0.2
-0.175
-0.19
-0.105
0.02
0.18
0.315
0.35
0.19
-0.135
-0.605
-1.11
-1.57
-1.885
-2.065
-2.155
-2.205
-2.27
-2.295
-2.325
-2.345
-2.355
-2.355
-2.33
-2.325
-2.31
-2.31
-2.29
-2.275
-2.225
-2.18
-2.09
-1.96
-1.805
-1.64
-1.49
-1.355
-1.275
-1.22
-1.215
-1.22
-1.22
-1.22
-1.21
-1.2
-1.18
-1.17
-1.15
-1.155
-1.13
-1.135
-1.145
-1.15
-1.155
-1.175
-1.165
-1.17
-1.16
-1.16
-1.17
-1.17
-1.165
-1.175
-1.195
-1.2
-1.23
-1.27
-1.28
-1.265
-1.285
-1.29
-1.28
-1.29
-1.285
-1.3
-1.31
-1.32
-1.35
-1.365
-1.365
-1.385
-1.39
-1.39
-1.375
-1.385
-1.375
-1.385
-1.4
-1.42
-1.405
-1.42
-1.415
-1.405
-1.405
-1.38
-1.36
-1.345
-1.33
-1.32
-1.315
-1.305
-1.295
-1.27
-1.26
-1.26
-1.225
-1.2
-1.16
-1.15
-1.1
-1.105
-1.095
-1.085
-1.09
-1.085
-1.095
-1.085
-1.07
-1.05
-1.01
-1.015
-1.0
-1.005
-1.01
-1.005
-1.005
-1.025
-1.035
-1.03
-1.035
-1.025
-1.005
-0.995
-1.005
-1.005
-0.995
-1.01
-1.01
-1.015
-1.02
-1.01
-1.025
-1.015
-1.025
-1.015
-1.01
-1.005
-1.02
-1.0
-1.03
-1.025
-1.04
-1.065
-1.065
-1.055
-1.025
-1.025
-1.03
-1.02
-1.025
-1.05
-1.05
-1.07
-1.07
-1.085
-1.08
-1.065
-1.065
-1.045
-1.04
-1.05
-1.045
-1.05
-1.055
-1.07
-1.07
-1.065
-1.065
-1.075
-1.045
-1.045
-1.03
-1.04
-1.045
-1.045
-1.06
-1.06
-1.07
-1.07
-1.06
-1.06
-1.045
-1.03
-1.015
-1.025
-1.035
-1.035
-1.055
-1.05
-1.055
-1.06
-1.055
-1.05
-1.035
-1.03
-1.01
-1.015
-1.03
-1.03
-1.015
-1.025
-1.025
-1.015
-1.005
-1.0
-0.985
-0.965
-0.945
-0.95
-0.95
-0.94
-0.94
-0.945
-0.925
-0.91
-0.895
-0.875
-0.835
-0.815
-0.795
-0.79
-0.785
-0.81
-0.83
-0.875
-0.885
-0.895
-0.89
-0.875
-0.845
-0.815
-0.785
-0.77
-0.775
-0.795
-0.83
-0.875
-0.915
-0.96
-0.975
-0.985
-1.0
-1.005
-1.01
-1.015
-1.05
-1.055
-1.07
-1.085
-1.09
-1.115
-1.105
-1.1
-1.09
-1.085
-1.075
-1.075
-1.085
-1.09
-1.095
-1.09
-1.085
-1.095
-1.09
-1.09
-1.085
-1.085
-1.07
-1.085
-1.085
-1.09
-1.095
-1.12
-1.12
-1.135
-1.16
-1.165
-1.155
-1.095
-0.99
-0.85
-0.665
-0.485
-0.34
-0.23
-0.22
-0.245
-0.24
-0.18
-0.075
0.135
0.35
0.495
0.49
0.29
-0.095
-0.585
-1.095
-1.515
-1.81
-1.975
-2.045
-2.1
-2.14
-2.205
-2.28
-2.325
-2.37
-2.375
-2.365
-2.36
-2.365
-2.345
-2.32
-2.275
-2.235
-2.2
-2.1
-1.96
-1.83
-1.675
-1.54
-1.42
-1.34
-1.27
-1.22
-1.195
-1.17
-1.165
-1.16
-1.135
-1.155
-1.13
-1.13
-1.125
-1.135
-1.13
-1.12
-1.13
-1.12
-1.12
-1.125
-1.125
-1.14
-1.16
-1.165
-1.175
-1.165
-1.17
-1.18
-1.18
-1.195
-1.205
-1.225
-1.235
-1.255
-1.275
-1.28
-1.3
-1.305
-1.3
-1.315
-1.315
-1.305
-1.325
-1.335
-1.355
-1.37
-1.37
-1.385
-1.395
-1.395
-1.385
-1.375
-1.365
-1.365
-1.35
-1.365
-1.35
-1.37
-1.34
-1.335
-1.31
-1.29
-1.265
-1.255
-1.23
-1.21
-1.18
-1.175
-1.14
-1.14
-1.125
-1.115
-1.09
-1.08
-1.06
-1.045
-1.04
-1.005
-1.02
-1.01
-1.005
-1.035
-1.025
-1.015
-1.01
-1.015
-1.0
-0.995
-0.97
-0.97
-0.975
-0.97
-0.985
-0.995
-1.0
-0.995
-1.01
-1.025
-1.005
-0.995
-0.98
-0.975
-1.0
-0.99
-0.995
-1.01
-1.0
-1.005
-1.01
-1.025
-1.025
-1.01
-1.0
-0.985
-1.0
-0.995
-1.005
-1.02
-1.04
-1.03
-1.045
-1.04
-1.045
-1.035
-1.02
-1.025
-1.025
-1.035
-1.045
-1.05
-1.065
-1.075
-1.07
-1.055
-1.05
-1.05
-1.025
-1.03
-1.025
-1.015
-1.025
-1.045
-1.055
-1.025
-1.055
-1.06
-1.05
-1.04
-1.03
-1.025
-1.03
-1.02
-1.015
-1.025
-1.03
-1.04
-1.035
-1.03
-1.025
-1.03
-1.02
-1.0
-1.005
-1.0
-1.0
-1.005
-1.03
-1.015
-1.015
-1.03
-1.0
-0.98
-0.975
-0.96
-0.965
-0.955
-0.965
-0.955
-0.955
-0.95
-0.96
-0.95
-0.945
-0.92
-0.89
-0.885
-0.88
-0.855
-0.855
-0.845
-0.83
-0.815
-0.79
-0.755
-0.75
-0.775
-0.775
-0.785
-0.825
-0.845
-0.825
-0.855
-0.835
-0.825
-0.785
-0.76
-0.75
-0.74
-0.765
-0.8
-0.845
-0.885
-0.93
-0.95
-0.96
-0.97
-1.005
-1.025
-1.02
-1.03
-1.035
-1.025
-1.03
-1.04
-1.04
-1.05
-1.065
-1.055
-1.055
-1.045
-1.06
-1.065
-1.04
-1.04
-1.045
-1.035
-1.03
-1.04
-1.06
-1.05
-1.055
-1.06
-1.045
-1.025
-1.04
-1.02
-1.025
-1.025
-1.055
-1.07
-1.085
-1.095
-1.075
-1.005
-0.895
-0.745
-0.575
-0.42
-0.28
-0.215
-0.195
-0.23
-0.255
-0.22
-0.115
0.06
0.26
0.455
0.52
0.46
0.18
-0.285
-0.805
-1.315
-1.705
-1.94
-2.08
-2.15
-2.185
-2.235
-2.26
-2.3
-2.33
-2.335
-2.335
-2.345
-2.33
-2.33
-2.33
-2.29
-2.26
-2.18
-2.11
-1.995
-1.865
-1.71
-1.575
-1.45
-1.355
-1.31
-1.26
-1.235
-1.205
-1.175
-1.15
-1.12
-1.1
-1.09
-1.085
-1.08
-1.09
-1.1
-1.11
-1.095
-1.085
-1.07
-1.06
-1.055
-1.06
-1.08
-1.095
-1.11
-1.115
-1.115
-1.13
-1.15
-1.145
-1.15
-1.15
-1.15
-1.165
-1.175
-1.195
-1.21
-1.225
-1.255
-1.26
-1.275
-1.265
-1.28
-1.285
-1.28
-1.28
-1.285
-1.3
-1.315
-1.315
-1.315
-1.32
-1.315
-1.31
-1.3
-1.3
-1.28
-1.275
-1.27
-1.26
-1.255
-1.26
-1.245
-1.245
-1.215
-1.19
-1.17
-1.135
-1.13
-1.095
-1.075
-1.06
-1.055
-1.065
-1.065
-1.05
-1.035
-1.01
-0.98
-0.96
-0.94
-0.945
-0.935
-0.925
-0.945
-0.935
-0.955
-0.945
-0.945
-0.94
-0.925
-0.93
-0.91
-0.9
-0.905
-0.92
-0.93
-0.94
-0.93
-0.945
-0.935
-0.925
-0.93
-0.935
-0.925
-0.93
-0.925
-0.95
-0.95
-0.96
-0.96
-0.955
-0.985
-0.965
-0.95
-0.96
-0.94
-0.96
-0.965
-0.965
-0.975
-0.975
-0.99
-0.99
-0.995
-0.99
-0.995
-0.995
-0.99
-0.995
-0.99
-0.98
-0.995
-1.0
-1.01
-1.025
-1.02
-1.0
-1.0
-0.995
-0.985
-0.97
-1.0
-0.985
-1.0
-1.0
-1.01
-1.005
-1.01
-1.0
-0.975
-0.985
-0.97
-0.96
-0.96
-0.955
-0.97
-0.98
-0.98
-0.995
-0.985
-0.98
-0.98
-0.98
-0.96
-0.975
-0.965
-0.955
-0.965
-0.98
-0.98
-0.98
-0.985
-0.97
-0.96
-0.945
-0.935
-0.925
-0.915
-0.915
-0.925
-0.92
-0.91
-0.9
-0.89
-0.87
-0.875
-0.855
-0.825
-0.805
-0.785
-0.755
-0.72
-0.71
-0.7
-0.695
-0.725
-0.715
-0.735
-0.755
-0.765
-0.78
-0.77
-0.78
-0.74
-0.73
-0.71
-0.73
-0.71
-0.72
-0.745
-0.8
-0.82
-0.855
-0.87
-0.92
-0.935
-0.94
-0.97
-0.985
-0.995
-0.99
-1.015
-1.005
-1.005
-1.0
-1.01
-1.0
-0.995
-1.02
-1.02
-1.025
-1.02
-1.025
-1.01
-1.0
-0.985
-0.99
-1.01
-1.01
-1.02
-0.995
-1.0
-1.015
-1.02
-1.015
-0.995
-1.01
-1.01
-1.04
-1.06
-1.055
-1.055
-0.965
-0.865
-0.715
-0.55
-0.37
-0.225
-0.145
-0.13
-0.155
-0.16
-0.105
0.015
0.2
0.385
0.525
0.51
0.315
-0.09
-0.59
-1.115
-1.53
-1.84
-2.0
-2.08
-2.11
-2.15
-2.19
-2.25
-2.295
-2.31
-2.3
-2.295
-2.28
-2.26
-2.255
-2.215
-2.2
-2.155
-2.065
-1.945
-1.805
-1.65
-1.5
-1.375
-1.265
-1.185
-1.14
-1.125
-1.105
-1.105
-1.09
-1.065
-1.055
-1.04
-1.025
-1.01
-1.005
-1.01
-1.025
-1.03
-1.035
-1.04
-1.05
-1.04
-1.055
-1.045
-1.04
-1.05
-1.055
-1.055
-1.07
-1.09
-1.105
-1.13
-1.14
-1.14
-1.15
-1.165
-1.16
-1.16
-1.16
-1.17
-1.185
-1.225
-1.235
-1.255
-1.265
-1.26
-1.27
-1.255
-1.25
-1.25
-1.26
-1.27
-1.28
-1.275
-1.28
-1.29
-1.28
-1.285
-1.27
-1.255
-1.24
-1.21
-1.19
-1.19
-1.19
-1.185
-1.17
-1.165
-1.15
-1.12
-1.11
-1.07
-1.055
-1.035
-1.02
-0.98
-0.985
-0.98
-0.965
-0.975
-0.96
-0.95
-0.955
-0.94
-0.925
-0.915
-0.9
-0.885
-0.865
-0.885
-0.885
-0.885
-0.89
-0.91
-0.9
-0.885
-0.89
-0.875
-0.875
-0.875
-0.875
-0.885
-0.905
-0.92
-0.92
-0.92
-0.9
-0.885
-0.89
-0.885
-0.88
-0.89
-0.895
-0.905
-0.91
-0.94
-0.93
-0.935
-0.95
-0.945
-0.945
-0.92
-0.925
-0.93
-0.925
-0.94
-0.96
-0.965
-0.97
-0.975
-0.99
-0.985
-0.96
-0.95
-0.945
-0.97
-0.96
-0.96
-0.98
-0.98
-0.975
-0.97
-0.965
-0.97
-0.97
-0.955
-0.95
-0.945
-0.955
-0.955
-1.005
-0.96
-0.955
-0.96
-0.95
-0.94
-0.925
-0.925
-0.925
-0.92
-0.92
-0.935
-0.95
-0.945
-0.945
-0.935
-0.935
-0.93
-0.925
-0.955
-0.92
-0.925
-0.925
-0.92
-0.93
-0.945
-0.94
-0.94
-0.96
-0.93
-0.92
-0.9
-0.915
-0.925
-0.915
-0.91
-0.895
-0.875
-0.845
-0.88
-0.825
-0.82
-0.815
-0.81
-0.805
-0.795
-0.8
-0.77
-0.73
-0.72
-0.69
-0.68
-0.67
-0.685
-0.7
-0.715
-0.74
-0.765
-0.775
-0.77
-0.765
-0.745
-0.705
-0.685
-0.69
-0.685
-0.67
-0.71
-0.74
-0.8
-0.865
-0.845
-0.865
-0.89
-0.915
-0.92
-0.935
-0.945
-0.935
-0.955
-0.94
-0.945
-0.94
-0.955
-0.965
-0.965
-1.025
-0.995
-1.02
-0.975
-0.955
-0.955
-0.965
-0.945
-0.955
-0.96
-0.965
-0.975
-0.975
-0.975
-0.98
-0.96
-0.95
-0.965
-0.97
-0.965
-0.965
-0.99
-1.01
-1.03
-1.045
-1.0
-0.935
-0.775
-0.59
-0.375
-0.18
-0.045
0.025
0.0
-0.03
-0.07
0.015
0.165
0.33
0.485
0.5
0.385
0.045
-0.455
-0.995
-1.49
-1.83
-2.025
-2.12
-2.15
-2.18
-2.205
-2.22
-2.23
-2.23
-2.23
-2.23
-2.24
-2.24
-2.22
-2.2
-2.18
-2.12
-2.01
-1.86
-1.69
-1.515
-1.345
-1.225
-1.14
-1.1
-1.09
-1.095
-1.085
-1.055
-1.04
-1.025
-1.015
-1.0
-1.0
-1.01
-1.015
-1.005
-1.02
-1.02
-1.035
-1.025
-1.015
-1.025
-1.025
-1.015
-1.035
-1.045
-1.06
-1.08
-1.09
-1.12
-1.11
-1.13
-1.12
-1.15
-1.145
-1.155
-1.165
-1.18
-1.19
-1.205
-1.235
-1.245
-1.265
-1.27
-1.255
-1.23
-1.23
-1.225
-1.225
-1.23
-1.245
-1.25
-1.265
-1.26
-1.265
-1.245
-1.225
-1.205
-1.19
-1.185
-1.17
-1.155
-1.145
-1.14
-1.135
-1.1
-1.075
-1.055
-1.03
-1.005
-0.98
-0.965
-0.95
-0.93
-0.94
-0.93
-0.925
-0.92
-0.915
-0.9
-0.88
-0.87
-0.87
-0.86
-0.855
-0.855
-0.86
-0.865
-0.875
-0.865
-0.87
-0.865
-0.85
-0.855
-0.825
-0.835
-0.835
-0.845
-0.85
-0.855
-0.86
-0.875
-0.885
-0.875
-0.875
-0.87
-0.85
-0.86
-0.86
-0.86
-0.875
-0.88
-0.895
-0.895
-0.9
-0.895
-0.885
-0.885
-0.88
-0.88
-0.875
-0.87
-0.895
-0.905
-0.925
-0.925
-0.925
-0.915
-0.895
-0.905
-0.89
-0.88
-0.88
-0.89
-0.91
-0.925
-0.925
-0.93
-0.915
-0.91
-0.895
-0.895
-0.88
-0.885
-0.89
-0.895
-0.9
-0.91
-0.91
-0.905
-0.9
-0.9
-0.89
-0.89
-0.885
-0.88
-0.88
-0.87
-0.885
-0.89
-0.89
-0.91
-0.905
-0.905
-0.885
-0.875
-0.875
-0.86
-0.86
-0.87
-0.88
-0.875
-0.875
-0.885
-0.875
-0.875
-0.865
-0.84
-0.825
-0.82
-0.805
-0.8
-0.795
-0.785
-0.81
-0.79
-0.78
-0.76
-0.74
-0.695
-0.675
-0.64
-0.63
-0.62
-0.63
-0.665
-0.695
-0.725
-0.735
-0.74
-0.72
-0.71
-0.675
-0.635
-0.615
-0.61
-0.635
-0.67
-0.71
-0.76
-0.8
-0.815
-0.825
-0.825
-0.845
-0.855
-0.875
-0.88
-0.905
-0.925
-0.94
-0.94
-0.95
-0.955
-0.93
-0.91
-0.925
-0.93
-0.92
-0.93
-0.94
-0.945
-0.955
-0.945
-0.95
-0.945
-0.92
-0.915
-0.915
-0.895
-0.905
-0.92
-0.93
-0.935
-0.945
-0.965
-0.96
-0.985
-0.975
-0.995
-0.94
-0.85
-0.71
-0.545
-0.34
-0.18
-0.05
-0.02
-0.03
-0.06
-0.065
0.005
0.17
0.35
0.52
0.595
0.5
0.21
-0.26
-0.785
-1.26
-1.615
-1.815
-1.94
-1.995
-2.04
-2.09
-2.135
-2.18
-2.215
-2.22
-2.22
-2.225
-2.205
-2.195
-2.165
-2.135
-2.085
-2.03
-1.935
-1.825
-1.68
-1.5
-1.36
-1.255
-1.165
-1.105
-1.1
-1.085
-1.06
-1.035
-1.01
-1.01
-1.005
-1.015
-1.03
-1.01
-1.015
-0.995
-0.97
-0.975
-0.995
-0.99
-0.995
-1.01
-1.01
-1.03
-1.04
-1.035
-1.04
-1.04
-1.045
-1.045
-1.055
-1.06
-1.08
-1.1
-1.115
-1.135
-1.15
-1.16
-1.17
-1.175
-1.185
-1.18
-1.19
-1.19
-1.185
-1.215
-1.21
-1.22
-1.24
-1.235
-1.255
-1.23
-1.24
-1.24
-1.225
-1.225
-1.235
-1.23
-1.225
-1.235
-1.22
-1.215
-1.195
-1.17
-1.15
-1.14
-1.12
-1.105
-1.075
-1.085
-1.06
-1.06
-1.045
-1.0
-0.98
-0.955
-0.925
-0.9
-0.885
-0.9
-0.875
-0.87
-0.87
-0.875
-0.88
-0.875
-0.845
-0.845
-0.835
-0.83
-0.815
-0.8
-0.81
-0.82
-0.83
-0.835
-0.85
-0.83
-0.845
-0.845
-0.82
-0.81
-0.825
-0.82
-0.825
-0.835
-0.845
-0.86
-0.87
-0.865
-0.85
-0.84
-0.835
-0.82
-0.825
-0.835
-0.83
-0.855
-0.87
-0.88
-0.895
-0.895
-0.9
-0.9
-0.87
-0.86
-0.855
-0.86
-0.86
-0.875
-0.88
-0.9
-0.905
-0.91
-0.905
-0.905
-0.89
-0.885
-0.885
-0.875
-0.875
-0.875
-0.9
-0.895
-0.895
-0.905
-0.89
-0.905
-0.89
-0.87
-0.865
-0.86
-0.865
-0.875
-0.87
-0.885
-0.89
-0.91
-0.9
-0.89
-0.88
-0.85
-0.85
-0.875
-0.875
-0.86
-0.87
-0.89
-0.89
-0.9
-0.865
-0.86
-0.835
-0.84
-0.82
-0.845
-0.83
-0.845
-0.835
-0.835
-0.85
-0.815
-0.83
-0.795
-0.77
-0.765
-0.75
-0.74
-0.735
-0.725
-0.715
-0.69
-0.66
-0.62
-0.6
-0.59
-0.605
-0.615
-0.635
-0.68
-0.71
-0.715
-0.715
-0.7
-0.68
-0.655
-0.595
-0.59
-0.585
-0.595
-0.65
-0.69
-0.745
-0.78
-0.815
-0.85
-0.875
-0.88
-0.885
-0.885
-0.88
-0.88
-0.88
-0.895
-0.895
-0.92
-0.93
-0.94
-0.945
-0.94
-0.95
-0.93
-0.925
-0.93
-0.91
-0.92
-0.915
-0.925
-0.925
-0.93
-0.925
-0.945
-0.925
-0.93
-0.92
-0.91
-0.92
-0.91
-0.91
-0.95
-0.96
-0.985
-1.01
-1.015
-0.965
-0.88
-0.755
-0.59
-0.41
-0.24
-0.115
-0.07
-0.08
-0.12
-0.095
0.0
0.175
0.395
0.585
0.67
0.535
0.205
-0.295
-0.87
-1.365
-1.715
-1.935
-2.035
-2.065
-2.1
-2.135
-2.165
-2.2
-2.205
-2.22
-2.22
-2.215
-2.22
-2.2
-2.175
-2.14
-2.07
-1.975
-1.86
-1.68
-1.525
-1.355
-1.25
-1.17
-1.1
-1.065
-1.055
-1.04
-1.005
-0.98
-0.985
-0.965
-0.95
-0.94
-0.945
-0.96
-0.97
-0.99
-0.985
-0.98
-0.975
-0.965
-0.96
-0.97
-0.975
-0.975
-0.99
-1.015
-1.04
-1.03
-1.04
-1.06
-1.06
-1.07
-1.075
-1.075
-1.085
-1.1
-1.115
-1.15
-1.175
-1.155
-1.185
-1.19
-1.205
-1.19
-1.195
-1.185
-1.205
-1.215
-1.21
-1.225
-1.24
-1.245
-1.25
-1.23
-1.22
-1.205
-1.205
-1.185
-1.175
-1.18
-1.175
-1.17
-1.17
-1.15
-1.135
-1.115
-1.095
-1.06
-1.035
-1.005
-0.985
-0.955
-0.935
-0.935
-0.93
-0.91
-0.915
-0.9
-0.885
-0.87
-0.855
-0.84
-0.83
-0.815
-0.83
-0.855
-0.865
-0.85
-0.835
-0.83
-0.835
-0.83
-0.805
-0.81
-0.82
-0.82
-0.815
-0.82
-0.83
-0.835
-0.855
-0.85
-0.845
-0.845
-0.825
-0.81
-0.82
-0.815
-0.835
-0.85
-0.845
-0.855
-0.86
-0.86
-0.855
-0.865
-0.855
-0.845
-0.86
-0.865
-0.86
-0.875
-0.875
-0.87
-0.89
-0.89
-0.9
-0.885
-0.87
-0.86
-0.875
-0.87
-0.88
-0.91
-0.895
-0.895
-0.895
-0.885
-0.88
-0.865
-0.865
-0.85
-0.85
-0.865
-0.88
-0.875
-0.875
-0.905
-0.9
-0.88
-0.885
-0.865
-0.855
-0.845
-0.845
-0.86
-0.87
-0.885
-0.885
-0.885
-0.875
-0.9
-0.875
-0.855
-0.86
-0.855
-0.855
-0.855
-0.86
-0.86
-0.88
-0.87
-0.875
-0.87
-0.875
-0.84
-0.84
-0.84
-0.835
-0.82
-0.81
-0.82
-0.805
-0.795
-0.805
-0.8
-0.77
-0.75
-0.73
-0.715
-0.705
-0.695
-0.685
-0.65
-0.625
-0.605
-0.625
-0.65
-0.645
-0.655
-0.67
-0.68
-0.695
-0.68
-0.655
-0.64
-0.625
-0.61
-0.61
-0.63
-0.66
-0.69
-0.735
-0.755
-0.8
-0.815
-0.84
-0.85
-0.865
-0.885
-0.9
-0.905
-0.91
-0.895
-0.895
-0.89
-0.9
-0.895
-0.905
-0.915
-0.945
-0.955
-0.94
-0.94
-0.93
-0.91
-0.905
-0.895
-0.9
-0.92
-0.92
-0.925
-0.92
-0.93
-0.935
-0.935
-0.91
-0.915
-0.905
-0.89
-0.915
-0.915
-0.93
-0.93
-0.915
-0.87
-0.775
-0.625
-0.46
-0.285
-0.115
0.0
0.025
0.005
-0.015
0.0
0.1
0.25
0.44
0.6
0.65
0.53
0.22
-0.24
-0.785
-1.26
-1.63
-1.875
-2.03
-2.095
-2.16
-2.205
-2.25
-2.27
-2.265
-2.25
-2.25
-2.22
-2.24
-2.22
-2.2
-2.155
-2.095
-2.0
-1.89
-1.71
-1.54
-1.335
-1.195
-1.075
-0.995
-0.945
-0.93
-0.885
-0.86
-0.835
-0.775
-0.745
-0.715
-0.69
-0.695
-0.715
-0.73
-0.745
-0.785
-0.785
-0.795
-0.82
-0.84
-0.855
-0.85
-0.84
-0.85
-0.85
-0.865
-0.885
-0.895
-0.92
-0.94
-0.97
-0.995
-1.01
-1.015
-1.03
-1.065
-1.09
-1.12
-1.145
-1.19
-1.205
-1.215
-1.225
-1.24
-1.225
-1.22
-1.225
-1.235
-1.235
-1.235
-1.235
-1.245
-1.22
-1.225
-1.205
-1.205
-1.18
-1.18
-1.155
-1.16
-1.14
-1.135
-1.13
-1.11
-1.09
-1.08
-1.04
-1.01
-0.985
-0.96
-0.94
-0.905
-0.89
-0.87
-0.87
-0.88
-0.875
-0.885
-0.86
-0.84
-0.83
-0.795
-0.785
-0.775
-0.755
-0.775
-0.785
-0.8
-0.8
-0.825
-0.825
-0.81
-0.8
-0.79
-0.77
-0.79
-0.775
-0.8
-0.81
-0.825
-0.83
-0.83
-0.835
-0.845
-0.83
-0.83
-0.825
-0.82
-0.81
-0.81
-0.825
-0.835
-0.855
-0.865
-0.86
-0.85
-0.845
-0.84
-0.825
-0.85
-0.845
-0.855
-0.87
-0.89
-0.89
-0.925
-0.91
-0.895
-0.895
-0.885
-0.87
-0.865
-0.885
-0.875
-0.885
-0.9
-0.89
-0.9
-0.885
-0.89
-0.865
-0.865
-0.88
-0.89
-0.89
-0.895
-0.87
-0.885
-0.875
-0.875
-0.865
-0.85
-0.855
-0.835
-0.83
-0.845
-0.85
-0.85
-0.865
-0.87
-0.89
-0.895
-0.9
-0.895
-0.87
-0.85
-0.84
-0.83
-0.84
-0.85
-0.85
-0.855
-0.87
-0.865
-0.875
-0.865
-0.85
-0.825
-0.81
-0.805
-0.8
-0.79
-0.78
-0.77
-0.78
-0.77
-0.765
-0.75
-0.73
-0.705
-0.66
-0.64
-0.615
-0.605
-0.605
-0.605
-0.64
-0.68
-0.685
-0.71
-0.71
-0.7
-0.67
-0.63
-0.605
-0.6
-0.605
-0.63
-0.655
-0.715
-0.755
-0.785
-0.81
-0.82
-0.815
-0.84
-0.84
-0.86
-0.895
-0.91
-0.93
-0.93
-0.94
-0.91
-0.9
-0.9
-0.885
-0.905
-0.905
-0.925
-0.935
-0.935
-0.945
-0.945
-0.93
-0.94
-0.925
-0.92
-0.925
-0.94
-0.93
-0.925
-0.94
-0.92
-0.925
-0.935
-0.95
-0.955
-0.955
-0.97
-0.975
-0.965
-0.925
-0.835
-0.715
-0.54
-0.36
-0.19
-0.07
-0.015
-0.01
-0.02
0.025
0.13
0.29
0.46
0.55
0.505
0.245
-0.195
-0.7
-1.175
-1.54
-1.76
-1.87
-1.945
-1.995
-2.045
-2.1
-2.14
-2.16
-2.175
-2.18
-2.175
-2.145
-2.135
-2.105
-2.055
-1.97
-1.845
-1.715
-1.565
-1.395
-1.27
-1.165
-1.105
-1.07
-1.06
-1.055
-1.045
-1.025
-1.01
-1.005
-0.995
-0.975
-0.975
-0.955
-0.965
-0.955
-0.935
-0.94
-0.94
-0.955
-0.96
-0.975
-0.99
-1.005
-1.035
-1.03
-1.03
-1.025
-1.01
-1.0
-1.01
-1.03
-1.04
-1.075
-1.11
-1.11
-1.145
-1.15
-1.15
-1.155
-1.15
-1.16
-1.17
-1.19
-1.18
-1.195
-1.195
-1.215
-1.22
-1.22
-1.225
-1.22
-1.22
-1.195
-1.2
-1.22
-1.21
-1.21
-1.23
-1.225
-1.21
-1.21
-1.185
-1.175
-1.155
-1.13
-1.12
-1.09
-1.08
-1.08
-1.04
-1.02
-1.025
-0.985
-0.97
-0.965
-0.925
-0.905
-0.91
-0.9
-0.89
-0.895
-0.875
-0.87
-0.885
-0.875
-0.86
-0.85
-0.84
-0.825
-0.835
-0.825
-0.83
-0.845
-0.86
-0.86
-0.86
-0.86
-0.85
-0.83
-0.815
-0.815
-0.835
-0.84
-0.855
-0.855
-0.86
-0.86
-0.865
-0.87
-0.855
-0.87
-0.86
-0.83
-0.865
-0.855
-0.875
-0.885
-0.885
-0.885
-0.9
-0.91
-0.91
-0.9
-0.91
-0.9
-0.905
-0.905
-0.91
-0.905
-0.925
-0.91
-0.925
-0.92
-0.915
-0.92
-0.915
-0.905
-0.92
-0.905
-0.915
-0.915
-0.92
-0.93
-0.935
-0.925
-0.93
-0.915
-0.905
-0.9
-0.9
-0.875
-0.885
-0.89
-0.905
-0.925
-0.925
-0.92
-0.9
-0.895
-0.885
-0.855
-0.85
-0.84
-0.835
-0.835
-0.825
-0.82
-0.81
-0.8
-0.79
-0.765
-0.76
-0.75
-0.74
-0.72
-0.71
-0.7
-0.675
-0.665
-0.66
-0.66
-0.645
-0.62
-0.61
-0.595
-0.585
-0.58
-0.565
-0.56
-0.56
-0.52
-0.49
-0.47
-0.45
-0.445
-0.445
-0.45
-0.465
-0.495
-0.52
-0.575
-0.59
-0.615
-0.625
-0.61
-0.57
-0.525
-0.495
-0.505
-0.525
-0.575
-0.62
-0.675
-0.715
-0.74
-0.78
-0.795
-0.785
-0.795
-0.8
-0.815
-0.84
-0.845
-0.855
-0.88
-0.89
-0.91
-0.915
-0.915
-0.92
-0.92
-0.915
-0.92
-0.935
-0.935
-0.94
-0.945
-0.935
-0.945
-0.945
-0.955
-0.935
-0.945
-0.935
-0.935
-0.935
-0.925
-0.925
-0.945
-0.955
-0.97
-0.99
-1.005
-1.015
-0.985
-0.935
-0.81
-0.68
-0.515
-0.375
-0.245
-0.19
-0.19
-0.235
-0.24
-0.165
0.015
0.24
0.46
0.605
0.59
0.38
-0.03
-0.58
-1.145
-1.65
-1.98
-2.165
-2.25
-2.29
-2.305
-2.33
-2.345
-2.345
-2.33
-2.295
-2.275
-2.255
-2.205
-2.145
-2.085
-1.995
-1.895
-1.75
-1.595
-1.435
-1.32
-1.24
-1.165
-1.14
-1.125
-1.11
-1.095
-1.07
-1.025
-0.985
-0.955
-0.95
-0.955
-0.995
-1.035
-1.03
-1.02
-1.01
-1.0
-0.99
-0.98
-0.97
-0.985
-1.0
-1.025
-1.03
-1.04
-1.04
-1.05
-1.045
-1.045
-1.06
-1.045
-1.055
-1.06
-1.065
-1.065
-1.08
-1.09
-1.105
-1.1
-1.09
-1.085
-1.085
-1.08
-1.075
-1.1
-1.115
-1.125
-1.14
-1.175
-1.19
-1.19
-1.215
-1.225
-1.215
-1.2
-1.185
-1.185
-1.18
-1.17
-1.17
-1.15
-1.135
-1.105
-1.075
-1.045
-1.02
-0.99
-0.96
-0.945
-0.955
-0.93
-0.92
-0.905
-0.895
-0.88
-0.855
-0.865
-0.855
-0.845
-0.84
-0.835
-0.83
-0.865
-0.865
-0.86
-0.85
-0.86
-0.85
-0.84
-0.84
-0.825
-0.81
-0.81
-0.805
-0.85
-0.84
-0.85
-0.855
-0.85
-0.835
-0.85
-0.84
-0.835
-0.84
-0.845
-0.87
-0.895
-0.915
-0.915
-0.925
-0.92
-0.91
-0.9
-0.9
-0.895
-0.895
-0.9
-0.885
-0.885
-0.89
-0.91
-0.925
-0.945
-0.975
-0.975
-0.995
-1.0
-1.005
-1.015
-1.025
-1.03
-1.01
-0.99
-0.99
-0.98
-0.935
-0.91
-0.915
-0.935
-0.98
-1.005
-0.99
-0.965
-0.92
-0.905
-0.905
-0.9
-0.91
-0.91
-0.935
-0.945
-0.94
-0.935
-0.925
-0.92
-0.94
-0.94
-0.94
-0.935
-0.945
-0.925
-0.915
-0.915
-0.9
-0.91
-0.92
-0.935
-0.965
-0.95
-0.955
-0.945
-0.93
-0.915
-0.91
-0.89
-0.86
-0.86
-0.845
-0.84
-0.845
-0.865
-0.865
-0.86
-0.835
-0.81
-0.755
-0.72
-0.7
-0.685
-0.695
-0.735
-0.755
-0.795
-0.815
-0.83
-0.83
-0.81
-0.8
-0.76
-0.75
-0.725
-0.73
-0.75
-0.775
-0.835
-0.875
-0.93
-0.95
-0.97
-0.99
-1.005
-1.035
-1.055
-1.075
-1.09
-1.105
-1.125
-1.135
-1.155
-1.155
-1.15
-1.135
-1.155
-1.135
-1.145
-1.155
-1.155
-1.135
-1.145
-1.14
-1.105
-1.085
-1.07
-1.04
-1.015
-1.02
-1.01
-1.02
-1.01
-1.015
-1.02
-1.025
-1.045
-1.03
-1.02
-0.97
-0.905
-0.81
-0.69
-0.53
-0.4
-0.26
-0.14
-0.08
-0.09
-0.12
-0.11
-0.06
0.085
0.275
0.46
0.535
0.445
0.155
-0.325
-0.87
-1.36
-1.715
-1.92
-2.02
-2.07
-2.1
-2.145
-2.18
-2.23
-2.26
-2.295
-2.275
-2.235
-2.215
-2.195
-2.15
-2.105
-2.025
-1.915
-1.765
-1.61
-1.44
-1.325
-1.205
-1.125
-1.07
-1.045
-1.05
-1.025
-1.02
-1.04
