Lead II
-1.055
-1.045
-1.045
-1.04
-1.035
-1.03
-1.025
-1.03
-1.03
-1.03
-1.025
-1.045
-1.04
-1.04
-1.035
-1.045
-1.04
-1.045
-1.03
-1.02
-1.03
-1.03
-1.055
-1.055
-1.065
-1.07
-1.09
-1.085
-1.085
-1.065
-1.05
-1.05
-1.06
-1.065
-1.08
-1.09
-1.1
-1.09
-1.09
-1.09
-1.08
-1.09
-1.075
-1.07
-1.09
-1.095
-1.11
-1.11
-1.105
-1.1
-1.11
-1.105
-1.09
-1.085
-1.075
-1.075
-1.065
-1.065
-1.045
-1.065
-1.065
-1.025
-0.995
-0.995
-0.98
-0.945
-0.93
-0.895
-0.88
-0.85
-0.815
-0.785
-0.765
-0.74
-0.765
-0.775
-0.785
-0.77
-0.755
-0.745
-0.755
-0.76
-0.79
-0.835
-0.9
-0.965
-1.035
-1.075
-1.08
-1.11
-1.115
-1.13
-1.12
-1.12
-1.115
-1.13
-1.13
-1.15
-1.16
-1.145
-1.14
-1.125
-1.15
-1.125
-1.13
-1.125
-1.145
-1.135
-1.135
-1.135
-1.14
-1.135
-1.13
-1.12
-1.12
-1.105
-1.15
-1.155
-1.185
-1.2
-1.205
-1.175
-1.105
-0.925
-0.69
-0.365
0.045
0.445
0.805
1.04
1.185
1.185
1.04
0.745
0.27
-0.315
-0.85
-1.21
-1.315
-1.255
-1.095
-0.95
-0.88
-0.875
-0.935
-1.02
-1.075
-1.12
-1.125
-1.135
-1.115
-1.095
-1.1
-1.11
-1.115
-1.13
-1.15
-1.155
-1.16
-1.17
-1.17
-1.16
-1.16
-1.135
-1.13
-1.13
-1.14
-1.155
-1.17
-1.155
-1.15
-1.155
-1.145
-1.135
-1.12
-1.12
-1.125
-1.13
-1.135
-1.14
-1.15
-1.145
-1.145
-1.155
-1.14
-1.14
-1.14
-1.125
-1.105
-1.105
-1.11
-1.12
-1.115
-1.1
-1.1
-1.09
-1.07
-1.07
-1.05
-1.02
-1.025
-1.035
-1.04
-1.03
-1.025
-1.015
-1.015
-0.995
-0.955
-0.935
-0.905
-0.895
-0.885
-0.89
-0.88
-0.87
-0.86
-0.84
-0.84
-0.805
-0.775
-0.75
-0.735
-0.705
-0.68
-0.67
-0.66
-0.66
-0.64
-0.645
-0.63
-0.62
-0.605
-0.59
-0.565
-0.565
-0.56
-0.555
-0.565
-0.555
-0.58
-0.615
-0.615
-0.65
-0.66
-0.67
-0.685
-0.715
-0.74
-0.77
-0.79
-0.82
-0.86
-0.865
-0.895
-0.92
-0.955
-0.945
-0.96
-0.955
-0.985
-0.99
-1.005
-1.02
-1.025
-1.03
-1.045
-1.055
-1.06
-1.035
-1.035
-1.025
-1.02
-1.02
-1.01
-1.035
-1.04
-1.035
-1.035
-1.04
-1.03
-1.025
-1.015
-1.0
-1.0
-1.0
-1.0
-1.025
-1.03
-1.03
-1.015
-1.01
-1.005
-0.99
-0.98
-0.975
-0.975
-0.98
-0.995
-1.005
-0.99
-0.99
-0.995
-0.985
-0.985
-0.975
-0.99
-0.96
-0.97
-0.965
-0.995
-0.99
-0.99
-1.01
-1.01
-1.0
-0.995
-0.98
-0.975
-0.985
-0.995
-0.995
-1.01
-1.015
-1.02
-1.02
-1.025
-1.03
-1.015
-1.01
-1.005
-1.005
-1.0
-1.0
-1.01
-1.01
-1.03
-1.04
-1.04
-1.045
-1.03
-1.035
-1.03
-1.025
-1.01
-1.035
-1.045
-1.06
-1.07
-1.065
-1.08
-1.07
-1.055
-1.045
-1.045
-1.03
-1.015
-1.035
-1.045
-1.065
-1.065
-1.065
-1.07
-1.06
-1.04
-1.035
-1.015
-0.99
-0.96
-0.945
-0.925
-0.925
-0.915
-0.895
-0.895
-0.865
-0.83
-0.805
-0.755
-0.71
-0.67
-0.675
-0.695
-0.715
-0.735
-0.75
-0.74
-0.73
-0.76
-0.77
-0.81
-0.855
-0.925
-0.985
-1.03
-1.07
-1.095
-1.105
-1.1
-1.095
-1.085
-1.07
-1.065
-1.07
-1.075
-1.085
-1.09
-1.1
-1.115
-1.105
-1.105
-1.12
-1.115
-1.095
-1.075
-1.08
-1.075
-1.095
-1.09
-1.075
-1.085
-1.085
-1.1
-1.085
-1.09
-1.1
-1.095
-1.12
-1.15
-1.135
-1.075
-0.99
-0.81
-0.58
-0.27
0.1
0.5
0.865
1.14
1.26
1.27
1.2
1.0
0.66
0.21
-0.36
-0.855
-1.18
-1.265
-1.19
-1.04
-0.89
-0.82
-0.83
-0.88
-0.97
-1.035
-1.095
-1.115
-1.13
-1.105
-1.11
-1.095
-1.085
-1.095
-1.105
-1.115
-1.125
-1.145
-1.145
-1.145
-1.155
-1.145
-1.14
-1.145
-1.125
-1.14
-1.13
-1.135
-1.15
-1.16
-1.185
-1.155
-1.165
-1.16
-1.14
-1.14
-1.155
-1.135
-1.125
-1.14
-1.135
-1.15
-1.155
-1.155
-1.135
-1.125
-1.115
-1.115
-1.095
-1.085
-1.085
-1.085
-1.095
-1.1
-1.095
-1.085
-1.075
-1.075
-1.06
-1.04
-1.02
-1.02
-1.005
-0.995
-0.995
-0.98
-0.98
-0.975
-0.965
-0.93
-0.92
-0.895
-0.885
-0.875
-0.85
-0.83
-0.83
-0.815
-0.785
-0.78
-0.765
-0.725
-0.705
-0.685
-0.66
-0.655
-0.64
-0.63
-0.625
-0.61
-0.61
-0.6
-0.595
-0.57
-0.545
-0.525
-0.525
-0.54
-0.545
-0.56
-0.58
-0.61
-0.64
-0.665
-0.69
-0.695
-0.73
-0.745
-0.755
-0.79
-0.815
-0.86
-0.875
-0.895
-0.915
-0.935
-0.95
-0.965
-0.985
-0.975
-0.99
-0.985
-0.99
-1.02
-1.02
-1.035
-1.05
-1.05
-1.05
-1.045
-1.045
-1.04
-1.035
-1.04
-1.045
-1.04
-1.05
-1.055
-1.06
-1.06
-1.065
-1.04
-1.04
-1.025
-1.01
-1.025
-1.025
-1.01
-1.02
-1.03
-1.035
-1.035
-1.045
-1.025
-1.01
-1.005
-0.995
-0.995
-1.01
-1.005
-1.01
-1.025
-1.01
-1.03
-1.025
-1.015
-1.015
-1.0
-0.995
-1.0
-0.995
-1.0
-1.01
-1.015
-1.015
-1.03
-1.025
-1.02
-1.02
-1.025
-1.015
-1.01
-1.02
-1.015
-1.03
-1.045
-1.065
-1.06
-1.05
-1.055
-1.04
-1.03
-1.025
-1.015
-1.02
-1.035
-1.035
-1.05
-1.07
-1.055
-1.06
-1.05
-1.05
-1.055
-1.04
-1.05
-1.04
-1.045
-1.055
-1.055
-1.075
-1.08
-1.06
-1.06
-1.045
-1.055
-1.055
-1.045
-1.055
-1.075
-1.075
-1.075
-1.075
-1.08
-1.07
-1.06
-1.055
-1.04
-1.04
-1.02
-1.015
-0.995
-0.985
-0.98
-0.965
-0.945
-0.945
-0.92
-0.89
-0.895
-0.85
-0.815
-0.78
-0.76
-0.725
-0.7
-0.7
-0.725
-0.745
-0.76
-0.765
-0.745
-0.735
-0.745
-0.775
-0.815
-0.855
-0.92
-0.99
-1.045
-1.075
-1.085
-1.09
-1.09
-1.085
-1.085
-1.085
-1.1
-1.115
-1.12
-1.135
-1.12
-1.135
-1.14
-1.125
-1.125
-1.125
-1.11
-1.11
-1.115
-1.125
-1.115
-1.125
-1.14
-1.13
-1.125
-1.12
-1.1
-1.095
-1.1
-1.125
-1.145
-1.175
-1.175
-1.13
-1.01
-0.795
-0.52
-0.15
0.265
0.645
0.965
1.155
1.21
1.145
0.97
0.625
0.155
-0.39
-0.885
-1.19
-1.265
-1.18
-1.045
-0.935
-0.865
-0.87
-0.925
-1.01
-1.06
-1.1
-1.13
-1.14
-1.12
-1.125
-1.12
-1.11
-1.115
-1.135
-1.145
-1.15
-1.16
-1.16
-1.16
-1.155
-1.16
-1.13
-1.135
-1.13
-1.155
-1.16
-1.17
-1.185
-1.185
-1.175
-1.18
-1.185
-1.18
-1.16
-1.145
-1.175
-1.16
-1.175
-1.18
-1.185
-1.19
-1.185
-1.17
-1.16
-1.16
-1.145
-1.145
-1.135
-1.14
-1.16
-1.145
-1.155
-1.16
-1.15
-1.13
-1.135
-1.13
-1.11
-1.1
-1.09
-1.095
-1.095
-1.1
-1.085
-1.09
-1.075
-1.04
-1.035
-1.01
-0.995
-0.99
-0.975
-0.975
-0.97
-0.945
-0.945
-0.925
-0.915
-0.895
-0.875
-0.845
-0.83
-0.795
-0.775
-0.765
-0.76
-0.75
-0.75
-0.725
-0.72
-0.695
-0.665
-0.65
-0.63
-0.62
-0.61
-0.605
-0.6
-0.595
-0.6
-0.58
-0.585
-0.565
-0.555
-0.56
-0.545
-0.565
-0.595
-0.625
-0.675
-0.695
-0.74
-0.765
-0.78
-0.795
-0.805
-0.825
-0.845
-0.88
-0.89
-0.92
-0.96
-0.99
-1.015
-1.035
-1.05
-1.045
-1.05
-1.04
-1.04
-1.05
-1.065
-1.065
-1.085
-1.085
-1.095
-1.11
-1.105
-1.09
-1.08
-1.095
-1.08
-1.075
-1.085
-1.085
-1.085
-1.095
-1.095
-1.1
-1.1
-1.1
-1.08
-1.075
-1.055
-1.05
-1.055
-1.05
-1.055
-1.07
-1.07
-1.07
-1.065
-1.07
-1.06
-1.055
-1.055
-1.03
-1.055
-1.045
-1.055
-1.055
-1.08
-1.075
-1.07
-1.08
-1.05
-1.055
-1.05
-1.02
-1.03
-1.04
-1.065
-1.065
-1.07
-1.065
-1.065
-1.07
-1.065
-1.06
-1.06
-1.065
-1.065
-1.07
-1.09
-1.075
-1.095
-1.1
-1.09
-1.075
-1.095
-1.085
-1.08
-1.075
-1.085
-1.09
-1.11
-1.12
-1.12
-1.13
-1.125
-1.115
-1.11
-1.105
-1.095
-1.09
-1.105
-1.105
-1.1
-1.11
-1.125
-1.135
-1.135
-1.135
-1.13
-1.14
-1.125
-1.105
-1.11
-1.095
-1.105
-1.11
-1.105
-1.11
-1.1
-1.095
-1.085
-1.065
-1.065
-1.045
-1.03
-1.015
-1.005
-1.01
-1.025
-0.995
-0.985
-0.955
-0.925
-0.885
-0.84
-0.815
-0.775
-0.74
-0.745
-0.745
-0.775
-0.795
-0.795
-0.785
-0.775
-0.775
-0.79
-0.84
-0.89
-0.945
-1.0
-1.06
-1.095
-1.145
-1.145
-1.15
-1.14
-1.13
-1.115
-1.105
-1.12
-1.135
-1.145
-1.16
-1.17
-1.155
-1.175
-1.16
-1.155
-1.15
-1.145
-1.14
-1.155
-1.17
-1.155
-1.165
-1.175
-1.17
-1.16
-1.175
-1.15
-1.155
-1.165
-1.17
-1.18
-1.175
-1.1
-0.95
-0.74
-0.425
-0.04
0.38
0.73
1.01
1.16
1.165
1.025
0.72
0.235
-0.355
-0.895
-1.245
-1.365
-1.29
-1.125
-0.985
-0.91
-0.9
-0.965
-1.035
-1.085
-1.125
-1.16
-1.165
-1.165
-1.145
-1.145
-1.13
-1.125
-1.135
-1.14
-1.135
-1.155
-1.15
-1.17
-1.18
-1.18
-1.19
-1.185
-1.17
-1.185
-1.155
-1.155
-1.16
-1.17
-1.17
-1.175
-1.18
-1.175
-1.18
-1.165
-1.16
-1.16
-1.13
-1.14
-1.14
-1.16
-1.16
-1.185
-1.19
-1.185
-1.17
-1.15
-1.13
-1.13
-1.11
-1.1
-1.115
-1.11
-1.1
-1.12
-1.12
-1.085
-1.07
-1.065
-1.06
-1.035
-1.045
-1.045
-1.045
-1.05
-1.025
-1.01
-0.99
-0.99
-0.965
-0.945
-0.915
-0.895
-0.88
-0.88
-0.875
-0.85
-0.84
-0.82
-0.8
-0.8
-0.77
-0.745
-0.725
-0.705
-0.675
-0.685
-0.68
-0.655
-0.675
-0.66
-0.65
-0.64
-0.615
-0.605
-0.595
-0.57
-0.56
-0.56
-0.56
-0.575
-0.61
-0.63
-0.645
-0.68
-0.71
-0.72
-0.75
-0.78
-0.8
-0.83
-0.85
-0.89
-0.915
-0.945
-0.97
-0.985
-0.99
-1.0
-1.025
-1.0
-1.01
-1.015
-1.03
-1.055
-1.085
-1.075
-1.075
-1.1
-1.1
-1.09
-1.075
-1.07
-1.065
-1.065
-1.075
-1.07
-1.09
-1.095
-1.09
-1.09
-1.085
-1.08
-1.06
-1.04
-1.035
-1.04
-1.04
-1.055
-1.06
-1.05
-1.045
-1.06
-1.055
-1.045
-1.045
-1.025
-1.03
-1.015
-1.03
-1.035
-1.045
-1.06
-1.06
-1.055
-1.045
-1.025
-1.03
-1.02
-1.01
-1.02
-1.035
-1.04
-1.045
-1.065
-1.055
-1.08
-1.075
-1.075
-1.05
-1.04
-1.02
-1.04
-1.035
-1.06
-1.065
-1.06
-1.075
-1.065
-1.065
-1.055
-1.04
-1.035
-1.05
-1.05
-1.06
-1.07
-1.08
-1.075
-1.075
-1.08
-1.08
-1.08
-1.06
-1.06
-1.055
-1.05
-1.065
-1.06
-1.075
-1.08
-1.09
-1.09
-1.08
-1.07
-1.06
-1.045
-1.04
-1.04
-1.05
-1.075
-1.055
-1.06
-1.05
-1.025
-1.015
-0.97
-0.96
-0.92
-0.9
-0.895
-0.905
-0.905
-0.865
-0.84
-0.81
-0.77
-0.735
-0.72
-0.695
-0.71
-0.71
-0.72
-0.725
-0.74
-0.755
-0.765
-0.82
-0.875
-0.94
-0.995
-1.035
-1.045
-1.065
-1.065
-1.09
-1.095
-1.08
-1.08
-1.105
-1.1
-1.1
-1.1
-1.1
-1.09
-1.065
-1.075
-1.1
-1.095
-1.105
-1.105
-1.11
-1.115
-1.12
-1.115
-1.1
-1.095
-1.075
-1.085
-1.095
-1.09
-1.115
-1.125
-1.165
-1.185
-1.185
-1.135
-1.045
-0.88
-0.66
-0.36
-0.01
0.385
0.76
1.045
1.2
1.27
1.215
1.045
0.755
0.31
-0.24
-0.765
-1.125
-1.26
-1.21
-1.085
-0.945
-0.865
-0.85
-0.875
-0.935
-1.0
-1.05
-1.08
-1.105
-1.08
-1.095
-1.09
-1.105
-1.125
-1.115
-1.105
-1.11
-1.105
-1.085
-1.11
-1.11
-1.11
-1.115
-1.125
-1.125
-1.15
-1.13
-1.13
-1.12
-1.105
-1.1
-1.11
-1.125
-1.145
-1.125
-1.13
-1.13
-1.125
-1.125
-1.12
-1.13
-1.105
-1.105
-1.11
-1.1
-1.105
-1.12
-1.105
-1.11
-1.105
-1.095
-1.08
-1.065
-1.07
-1.05
-1.035
-1.06
-1.045
-1.035
-1.025
-1.055
-1.04
-1.04
-0.995
-0.965
-0.965
-0.95
-0.955
-0.94
-0.925
-0.915
-0.905
-0.875
-0.87
-0.85
-0.82
-0.795
-0.775
-0.755
-0.725
-0.71
-0.705
-0.7
-0.68
-0.65
-0.635
-0.625
-0.605
-0.58
-0.55
-0.535
-0.525
-0.525
-0.525
-0.52
-0.515
-0.51
-0.525
-0.535
-0.535
-0.55
-0.56
-0.555
-0.585
-0.615
-0.65
-0.685
-0.715
-0.755
-0.8
-0.825
-0.845
-0.87
-0.89
-0.905
-0.92
-0.945
-0.965
-1.0
-1.0
-1.02
-1.025
-1.025
-1.025
-1.025
-1.02
-1.005
-1.01
-1.015
-1.03
-1.06
-1.06
-1.055
-1.05
-1.055
-1.035
-1.03
-1.02
-1.025
-1.025
-1.02
-1.045
-1.055
-1.06
-1.05
-1.06
-1.035
-1.01
-1.005
-0.985
-0.985
-0.98
-0.995
-0.995
-0.99
-0.99
-1.005
-1.005
-1.015
-1.0
-1.0
-0.985
-0.97
-0.975
-0.98
-0.99
-0.995
-1.005
-1.005
-1.01
-1.02
-1.015
-1.01
-1.005
-0.975
-0.985
-1.01
-1.03
-1.045
-1.045
-1.035
-1.05
-1.04
-1.025
-1.035
-1.005
-1.01
-1.005
-1.005
-1.035
-1.03
-1.045
-1.05
-1.065
-1.055
-1.04
-1.03
-1.065
-1.045
-1.035
-1.04
-1.07
-1.065
-1.06
-1.075
-1.065
-1.07
-1.06
-1.06
-1.05
-1.055
-1.04
-1.035
-1.045
-1.085
-1.08
-1.07
-1.075
-1.075
-1.08
-1.07
-1.06
-1.06
-1.045
-1.055
-1.06
-1.075
-1.075
-1.075
-1.065
-1.06
-1.065
-1.045
-1.035
-1.025
-1.02
-1.03
-1.04
-1.025
-1.035
-1.01
-1.0
-0.96
-0.94
-0.945
-0.905
-0.895
-0.865
-0.87
-0.845
-0.81
-0.79
-0.75
-0.7
-0.71
-0.68
-0.695
-0.715
-0.72
-0.72
-0.72
-0.725
-0.76
-0.78
-0.835
-0.88
-0.935
-0.97
-1.01
-1.045
-1.055
-1.065
-1.075
-1.07
-1.085
-1.1
-1.11
-1.11
-1.115
-1.11
-1.105
-1.105
-1.11
-1.1
-1.1
-1.115
-1.12
-1.145
-1.135
-1.135
-1.14
-1.14
-1.13
-1.125
-1.1
-1.105
-1.1
-1.095
-1.11
-1.125
-1.12
-1.12
-1.14
-1.165
-1.17
-1.16
-1.105
-0.985
-0.825
-0.575
-0.265
0.11
0.505
0.855
1.11
1.23
1.255
1.185
0.995
0.645
0.19
-0.355
-0.845
-1.165
-1.26
-1.205
-1.06
-0.93
-0.84
-0.83
-0.855
-0.94
-0.995
-1.055
-1.085
-1.105
-1.11
-1.11
-1.11
-1.095
-1.12
-1.105
-1.11
-1.105
-1.1
-1.125
-1.12
-1.125
-1.14
-1.14
-1.14
-1.13
-1.125
-1.125
-1.125
-1.11
-1.095
-1.125
-1.14
-1.155
-1.135
-1.15
-1.145
-1.14
-1.13
-1.13
-1.11
-1.11
-1.115
-1.12
-1.13
-1.125
-1.12
-1.13
-1.13
-1.115
-1.1
-1.085
-1.075
-1.09
-1.085
-1.09
-1.09
-1.08
-1.1
-1.095
-1.08
-1.065
-1.05
-1.03
-1.025
-1.015
-1.02
-1.01
-1.015
-1.01
-1.015
-1.005
-0.995
-0.97
-0.96
-0.94
-0.905
-0.91
-0.9
-0.9
-0.875
-0.875
-0.86
-0.835
-0.82
-0.805
-0.77
-0.75
-0.715
-0.69
-0.69
-0.69
-0.68
-0.655
-0.635
-0.625
-0.61
-0.595
-0.57
-0.55
-0.53
-0.53
-0.525
-0.52
-0.515
-0.52
-0.525
-0.535
-0.55
-0.535
-0.56
-0.58
-0.59
-0.62
-0.655
-0.685
-0.735
-0.765
-0.805
-0.825
-0.845
-0.855
-0.87
-0.87
-0.885
-0.915
-0.935
-0.96
-0.985
-1.0
-1.0
-1.01
-1.015
-1.02
-1.015
-1.005
-1.005
-1.02
-1.015
-1.03
-1.025
-1.03
-1.04
-1.045
-1.035
-1.045
-1.045
-1.04
-1.01
-1.01
-1.015
-1.01
-1.005
-1.005
-1.015
-1.02
-1.0
-0.99
-0.975
-0.97
-0.955
-0.955
-0.965
-0.985
-1.005
-1.01
-1.035
-1.005
-0.995
-0.985
-0.955
-0.885
-0.795
-0.695
-0.53
-0.39
-0.23
-0.07
0.12
0.31
0.535
0.77
1.025
1.255
1.48
1.65
1.81
1.935
2.005
2.05
2.045
2.05
2.03
1.985
1.915
1.835
1.76
1.71
1.675
1.68
1.675
1.645
1.565
1.435
1.28
1.11
0.91
0.655
0.34
-0.035
-0.45
-0.82
-1.095
-1.205
-1.23
-1.215
-1.195
-1.185
-1.19
-1.235
-1.28
-1.345
-1.385
-1.43
-1.46
-1.46
-1.485
-1.5
-1.515
-1.53
-1.535
-1.535
-1.55
-1.555
-1.565
-1.575
-1.605
-1.615
-1.625
-1.645
-1.655
-1.67
-1.67
-1.68
-1.67
-1.68
-1.7
-1.705
-1.715
-1.73
-1.735
-1.75
-1.745
-1.74
-1.735
-1.755
-1.75
-1.755
-1.74
-1.75
-1.745
-1.73
-1.73
-1.755
-1.78
-1.815
-1.835
-1.865
-1.89
-1.925
-1.995
-2.045
-2.12
-2.2
-2.265
-2.35
-2.39
-2.425
-2.435
-2.46
-2.46
-2.48
-2.47
-2.48
-2.5
-2.49
-2.51
-2.515
-2.5
-2.46
-2.435
-2.39
-2.365
-2.31
-2.28
-2.255
-2.21
-2.18
-2.14
-2.08
-2.02
-1.985
-1.915
-1.84
-1.78
-1.73
-1.685
-1.635
-1.595
-1.555
-1.505
-1.485
-1.475
-1.435
-1.42
-1.38
-1.35
-1.33
-1.31
-1.335
-1.33
-1.33
-1.325
-1.315
-1.325
-1.31
-1.3
-1.285
-1.285
-1.27
-1.305
-1.27
-1.265
-1.26
-1.265
-1.255
-1.255
-1.265
-1.27
-1.235
-1.22
-1.22
-1.22
-1.23
-1.25
-1.235
-1.245
-1.265
-1.245
-1.235
-1.23
-1.215
-1.215
-1.21
-1.205
-1.2
-1.21
-1.21
-1.235
-1.205
-1.195
-1.185
-1.175
-1.165
-1.165
-1.165
-1.17
-1.165
-1.175
-1.16
-1.175
-1.175
-1.175
-1.18
-1.18
-1.175
-1.175
-1.165
-1.165
-1.17
-1.175
-1.18
-1.17
-1.17
-1.165
-1.17
-1.145
-1.145
-1.155
-1.14
-1.135
-1.135
-1.145
-1.155
-1.15
-1.145
-1.155
-1.155
-1.15
-1.13
-1.12
-1.115
-1.115
-1.12
-1.13
-1.125
-1.145
-1.15
-1.145
-1.14
-1.13
-1.125
-1.11
-1.105
-1.115
-1.12
-1.125
-1.125
-1.14
-1.125
-1.13
-1.125
-1.11
-1.105
-1.085
-1.075
-1.08
-1.095
-1.12
-1.13
-1.115
-1.12
-1.1
-1.095
-1.1
-1.1
-1.09
-1.09
-1.09
-1.09
-1.105
-1.1
-1.115
-1.13
-1.11
-1.095
-1.075
-1.07
-1.06
-1.06
-1.045
-1.05
-1.065
-1.07
-1.09
-1.085
-1.08
-1.08
-1.07
-1.075
-1.07
-1.065
-1.06
-1.055
-1.065
-1.06
-1.065
-1.06
-1.055
-1.05
-1.05
-1.065
-1.035
-1.04
-1.045
-1.04
-1.05
-1.05
-1.065
-1.06
-1.06
-1.06
-1.045
-1.055
-1.035
-1.015
-1.02
-1.04
-1.04
-1.045
-1.06
-1.065
-1.065
-1.05
-1.045
-1.05
-1.025
-1.025
-1.03
-1.035
-1.045
-1.05
-1.055
-1.04
-1.045
-1.045
-1.035
-1.025
-1.02
-1.015
-1.04
-1.025
-1.035
-1.03
-1.04
-1.04
-1.05
-1.02
-1.015
-1.005
-1.0
-1.005
-1.0
-1.015
-1.015
-1.02
-1.03
-1.04
-1.035
-1.02
-1.025
-1.01
-1.0
-1.005
-1.01
-1.02
-1.015
-1.035
-1.025
-1.015
-1.015
-1.015
-1.005
-0.995
-0.985
-0.995
-1.01
-0.995
-1.015
-1.015
-1.025
-1.03
-1.025
-1.005
-1.005
-0.99
-1.005
-0.97
-0.98
-0.98
-0.99
-1.0
-1.005
-1.005
-1.01
-1.0
-0.99
-0.97
-0.96
-0.965
-0.96
-0.97
-0.98
-0.975
-0.985
-0.995
-0.995
-1.005
-0.985
-0.97
-0.975
-0.965
-0.96
-0.965
-0.97
-0.96
-0.975
-0.98
-0.965
-0.945
-0.93
-0.905
-0.885
-0.86
-0.845
-0.83
-0.83
-0.815
-0.815
-0.81
-0.77
-0.735
-0.685
-0.645
-0.595
-0.57
-0.585
-0.59
-0.595
-0.62
-0.605
-0.605
-0.615
-0.615
-0.625
-0.655
-0.695
-0.755
-0.83
-0.9
-0.945
-0.98
-0.98
-0.975
-0.975
-0.97
-0.95
-0.935
-0.935
-0.94
-0.965
-0.965
-0.98
-1.005
-0.99
-0.995
-0.99
-0.97
-0.96
-0.955
-0.96
-0.965
-0.975
-1.005
-1.03
-1.015
-0.94
-0.81
-0.575
-0.27
0.13
0.55
0.95
1.24
1.385
1.42
1.35
1.12
0.74
0.2
-0.37
-0.81
-1.025
-1.03
-0.925
-0.77
-0.695
-0.67
-0.72
-0.795
-0.88
-0.925
-0.955
-0.96
-0.945
-0.935
-0.93
-0.93
-0.93
-0.95
-0.97
-0.98
-1.02
-1.025
-1.01
-0.99
-0.99
-0.985
-0.975
-0.99
-0.975
-0.98
-0.985
-0.99
-1.01
-1.02
-1.01
-1.01
-1.0
-1.0
-0.995
-0.985
-0.97
-0.985
-0.99
-1.0
-1.01
-1.01
-0.99
-1.005
-0.98
-0.975
-0.97
-0.94
-0.96
-0.955
-0.955
-0.955
-0.98
-0.97
-0.96
-0.95
-0.925
-0.915
-0.89
-0.87
-0.88
-0.885
-0.88
-0.885
-0.88
-0.86
-0.85
-0.83
-0.82
-0.785
-0.76
-0.76
-0.75
-0.75
-0.73
-0.745
-0.74
-0.72
-0.71
-0.685
-0.655
-0.63
-0.62
-0.595
-0.575
-0.56
-0.555
-0.535
-0.54
-0.53
-0.535
-0.515
-0.48
-0.46
-0.44
-0.42
-0.41
-0.41
-0.42
-0.415
-0.41
-0.41
-0.395
-0.39
-0.39
-0.39
-0.395
-0.405
-0.42
-0.445
-0.46
-0.505
-0.52
-0.555
-0.585
-0.595
-0.605
-0.62
-0.63
-0.64
-0.665
-0.705
-0.705
-0.725
-0.745
-0.745
-0.75
-0.755
-0.765
-0.76
-0.74
-0.74
-0.75
-0.76
-0.76
-0.775
-0.79
-0.79
-0.785
-0.77
-0.77
-0.77
-0.75
-0.735
-0.74
-0.75
-0.745
-0.77
-0.765
-0.78
-0.775
-0.765
-0.755
-0.75
-0.735
-0.74
-0.75
-0.76
-0.755
-0.76
-0.775
-0.78
-0.775
-0.76
-0.75
-0.75
-0.755
-0.755
-0.75
-0.75
-0.75
-0.77
-0.785
-0.78
-0.79
-0.81
-0.79
-0.785
-0.77
-0.77
-0.78
-0.775
-0.79
-0.79
-0.8
-0.83
-0.815
-0.82
-0.81
-0.8
-0.785
-0.8
-0.805
-0.815
-0.82
-0.835
-0.845
-0.845
-0.835
-0.83
-0.835
-0.815
-0.82
-0.81
-0.81
-0.825
-0.845
-0.85
-0.875
-0.85
-0.88
-0.865
-0.865
-0.86
-0.85
-0.845
-0.855
-0.855
-0.87
-0.865
-0.88
-0.865
-0.86
-0.865
-0.87
-0.86
-0.835
-0.83
-0.84
-0.86
-0.855
-0.865
-0.865
-0.865
-0.875
-0.885
-0.87
-0.865
-0.85
-0.845
-0.845
-0.85
-0.865
-0.87
-0.89
-0.89
-0.885
-0.865
-0.87
-0.875
-0.85
-0.83
-0.825
-0.84
-0.84
-0.82
-0.815
-0.8
-0.78
-0.76
-0.74
-0.715
-0.69
-0.67
-0.66
-0.63
-0.63
-0.6
-0.575
-0.53
-0.52
-0.505
-0.495
-0.505
-0.515
-0.515
-0.51
-0.535
-0.54
-0.565
-0.6
-0.635
-0.69
-0.745
-0.79
-0.82
-0.835
-0.835
-0.855
-0.85
-0.865
-0.88
-0.88
-0.895
-0.895
-0.89
-0.89
-0.88
-0.89
-0.875
-0.87
-0.88
-0.89
-0.905
-0.92
-0.905
-0.915
-0.91
-0.895
-0.895
-0.88
-0.875
-0.875
-0.87
-0.89
-0.925
-0.95
-0.985
-0.985
-0.945
-0.84
-0.68
-0.45
-0.14
0.235
0.625
0.98
1.245
1.375
1.42
1.345
1.185
0.89
0.46
-0.075
-0.575
-0.9
-1.025
-0.99
-0.84
-0.705
-0.655
-0.65
-0.685
-0.75
-0.805
-0.84
-0.86
-0.88
-0.88
-0.875
-0.89
-0.89
-0.915
-0.905
-0.905
-0.905
-0.9
-0.89
-0.895
-0.88
-0.9
-0.91
-0.925
-0.915
-0.92
-0.935
-0.905
-0.91
-0.915
-0.92
-0.905
-0.915
-0.9
-0.91
-0.92
-0.935
-0.925
-0.925
-0.915
-0.92
-0.905
-0.895
-0.885
-0.875
-0.89
-0.89
-0.89
-0.895
-0.885
-0.88
-0.865
-0.85
-0.845
-0.85
-0.835
-0.835
-0.835
-0.845
-0.835
-0.83
-0.83
-0.815
-0.815
-0.79
-0.77
-0.755
-0.74
-0.75
-0.735
-0.725
-0.715
-0.735
-0.72
-0.715
-0.675
-0.655
-0.61
-0.585
-0.565
-0.56
-0.555
-0.545
-0.53
-0.515
-0.49
-0.48
-0.455
-0.425
-0.42
-0.405
-0.39
-0.38
-0.38
-0.37
-0.365
-0.38
-0.355
-0.34
-0.335
-0.34
-0.33
-0.325
-0.335
-0.36
-0.375
-0.415
-0.445
-0.49
-0.51
-0.51
-0.54
-0.56
-0.575
-0.575
-0.6
-0.64
-0.665
-0.68
-0.705
-0.735
-0.755
-0.765
-0.785
-0.785
-0.79
-0.785
-0.785
-0.805
-0.81
-0.815
-0.825
-0.85
-0.84
-0.845
-0.855
-0.835
-0.825
-0.805
-0.81
-0.805
-0.805
-0.805
-0.825
-0.825
-0.835
-0.845
-0.825
-0.82
-0.815
-0.81
-0.8
-0.81
-0.805
-0.815
-0.815
-0.83
-0.825
-0.83
-0.815
-0.795
-0.8
-0.79
-0.785
-0.81
-0.795
-0.8
-0.805
-0.81
-0.82
-0.82
-0.815
-0.805
-0.795
-0.78
-0.77
-0.785
-0.805
-0.81
-0.83
-0.83
-0.84
-0.85
-0.855
-0.835
-0.835
-0.815
-0.8
-0.81
-0.825
-0.815
-0.825
-0.84
-0.845
-0.86
-0.865
-0.865
-0.855
-0.835
-0.835
-0.86
-0.845
-0.87
-0.855
-0.875
-0.875
-0.88
-0.885
-0.88
-0.85
-0.85
-0.85
-0.85
-0.86
-0.855
-0.855
-0.86
-0.865
-0.86
-0.87
-0.855
-0.85
-0.855
-0.83
-0.85
-0.855
-0.85
-0.87
-0.875
-0.865
-0.87
-0.87
-0.87
-0.86
-0.845
-0.83
-0.845
-0.85
-0.865
-0.86
-0.87
-0.865
-0.845
-0.835
-0.8
-0.755
-0.74
-0.705
-0.695
-0.685
-0.68
-0.68
-0.655
-0.625
-0.6
-0.55
-0.515
-0.5
-0.485
-0.5
-0.515
-0.525
-0.52
-0.515
-0.55
-0.55
-0.605
-0.65
-0.71
-0.76
-0.79
-0.84
-0.85
-0.865
-0.895
-0.905
-0.905
-0.915
-0.92
-0.93
-0.93
-0.92
-0.91
-0.91
-0.91
-0.925
-0.935
-0.94
-0.935
-0.95
-0.935
-0.935
-0.925
-0.925
-0.915
-0.9
-0.89
-0.89
-0.895
-0.91
-0.915
-0.95
-0.99
-1.005
-1.005
-0.94
-0.84
-0.685
-0.505
-0.235
0.09
0.47
0.82
1.12
1.29
1.35
1.345
1.19
0.88
0.435
-0.13
-0.63
-0.96
-1.07
-1.02
-0.87
-0.745
-0.68
-0.68
-0.715
-0.78
-0.825
-0.875
-0.93
-0.935
-0.925
-0.93
-0.91
-0.915
-0.93
-0.92
-0.935
-0.935
-0.92
-0.915
-0.935
-0.94
-0.93
-0.955
-0.95
-0.965
-0.945
-0.935
-0.915
-0.93
-0.905
-0.92
-0.925
-0.925
-0.935
-0.935
-0.935
-0.94
-0.94
-0.93
-0.925
-0.935
-0.91
-0.9
-0.915
-0.92
-0.925
-0.93
-0.93
-0.935
-0.92
-0.91
-0.9
-0.9
-0.895
-0.89
-0.86
-0.865
-0.86
-0.855
-0.875
-0.875
-0.86
-0.835
-0.82
-0.805
-0.775
-0.77
-0.745
-0.74
-0.74
-0.75
-0.745
-0.74
-0.71
-0.67
-0.65
-0.63
-0.615
-0.6
-0.585
-0.57
-0.565
-0.55
-0.54
-0.525
-0.51
-0.475
-0.475
-0.455
-0.425
-0.41
-0.425
-0.42
-0.41
-0.405
-0.405
-0.41
-0.4
-0.395
-0.375
-0.385
-0.385
-0.4
-0.42
-0.44
-0.485
-0.515
-0.545
-0.585
-0.605
-0.61
-0.635
-0.665
-0.66
-0.695
-0.72
-0.755
-0.785
-0.8
-0.81
-0.815
-0.82
-0.835
-0.84
-0.84
-0.855
-0.865
-0.855
-0.86
-0.875
-0.89
-0.9
-0.895
-0.89
-0.88
-0.875
-0.87
-0.85
-0.84
-0.855
-0.86
-0.855
-0.875
-0.875
-0.885
-0.87
-0.87
-0.855
-0.85
-0.85
-0.845
-0.855
-0.85
-0.86
-0.86
-0.85
-0.86
-0.85
-0.85
-0.845
-0.845
-0.82
-0.82
-0.82
-0.82
-0.835
-0.84
-0.835
-0.855
-0.855
-0.85
-0.845
-0.825
-0.84
-0.825
-0.835
-0.84
-0.845
-0.855
-0.865
-0.87
-0.875
-0.855
-0.855
-0.84
-0.835
-0.83
-0.835
-0.85
-0.86
-0.875
-0.885
-0.88
-0.895
-0.88
-0.875
-0.87
-0.87
-0.865
-0.865
-0.88
-0.875
-0.87
-0.885
-0.895
-0.905
-0.905
-0.885
-0.88
-0.875
-0.88
-0.875
-0.87
-0.875
-0.88
-0.89
-0.89
-0.9
-0.895
-0.875
-0.88
-0.865
-0.865
-0.88
-0.88
-0.88
-0.875
-0.89
-0.88
-0.875
-0.845
-0.82
-0.795
-0.765
-0.75
-0.745
-0.74
-0.73
-0.73
-0.695
-0.685
-0.66
-0.615
-0.565
-0.53
-0.515
-0.52
-0.54
-0.545
-0.55
-0.54
-0.55
-0.585
-0.61
-0.625
-0.67
-0.72
-0.76
-0.815
-0.85
-0.87
-0.895
-0.92
-0.925
-0.925
-0.91
-0.905
-0.895
-0.895
-0.9
-0.905
-0.915
-0.92
-0.915
-0.945
-0.945
-0.95
-0.945
-0.935
-0.925
-0.91
-0.895
-0.9
-0.9
-0.905
-0.92
-0.915
-0.905
-0.92
-0.925
-0.915
-0.935
-0.945
-0.975
-0.96
-0.935
-0.805
-0.635
-0.41
-0.115
0.25
0.635
0.995
1.265
1.41
1.445
1.36
1.16
0.795
0.305
-0.23
-0.72
-1.015
-1.08
-0.995
-0.835
-0.705
-0.62
-0.64
-0.7
-0.78
-0.835
-0.9
-0.92
-0.905
-0.92
-0.91
-0.91
-0.895
-0.885
-0.88
-0.9
-0.9
-0.92
-0.935
-0.935
-0.935
-0.95
-0.945
-0.93
-0.92
-0.91
-0.915
-0.915
-0.91
-0.93
-0.925
-0.935
-0.95
-0.94
-0.94
-0.92
-0.915
-0.905
-0.91
-0.9
-0.905
-0.915
-0.925
-0.915
-0.935
-0.915
-0.915
-0.905
-0.905
-0.885
-0.875
-0.89
-0.885
-0.89
-0.88
-0.885
-0.89
-0.865
-0.86
-0.85
-0.84
-0.815
-0.81
-0.805
-0.81
-0.815
-0.82
-0.8
-0.775
-0.77
-0.755
-0.73
-0.715
-0.69
-0.69
-0.67
-0.665
-0.66
-0.645
-0.64
-0.62
-0.585
-0.57
-0.54
-0.52
-0.505
-0.49
-0.465
-0.445
-0.46
-0.445
-0.44
-0.41
-0.4
-0.375
-0.355
-0.345
-0.325
-0.32
-0.305
-0.31
-0.325
-0.33
-0.325
-0.35
-0.355
-0.38
-0.37
-0.405
-0.425
-0.445
-0.48
-0.505
-0.56
-0.58
-0.62
-0.65
-0.675
-0.695
-0.7
-0.71
-0.735
-0.745
-0.765
-0.785
-0.815
-0.82
-0.835
-0.845
-0.85
-0.84
-0.84
-0.845
-0.81
-0.825
-0.83
-0.845
-0.84
-0.85
-0.865
-0.885
-0.9
-0.855
-0.855
-0.84
-0.845
-0.83
-0.83
-0.845
-0.85
-0.855
-0.865
-0.87
-0.855
-0.84
-0.835
-0.825
-0.82
-0.81
-0.82
-0.81
-0.815
-0.835
-0.825
-0.84
-0.815
-0.81
-0.795
-0.795
-0.79
-0.785
-0.79
-0.795
-0.82
-0.8
-0.82
-0.805
-0.82
-0.8
-0.78
-0.78
-0.78
-0.785
-0.79
-0.795
-0.805
-0.8
-0.815
-0.81
-0.82
-0.815
-0.81
-0.8
-0.8
-0.805
-0.82
-0.82
-0.83
-0.84
-0.835
-0.83
-0.84
-0.835
-0.82
-0.81
-0.815
-0.81
-0.81
-0.825
-0.85
-0.86
-0.85
-0.85
-0.86
-0.835
-0.84
-0.825
-0.84
-0.84
-0.84
-0.835
-0.85
-0.855
-0.87
-0.875
-0.865
-0.87
-0.865
-0.855
-0.84
-0.83
-0.855
