Lead II
-0.415
-0.395
-0.385
-0.375
-0.38
-0.345
-0.32
-0.3
-0.29
-0.295
-0.29
-0.285
-0.265
-0.25
-0.26
-0.265
-0.27
-0.285
-0.27
-0.27
-0.27
-0.27
-0.27
-0.255
-0.25
-0.25
-0.27
-0.275
-0.285
-0.29
-0.27
-0.265
-0.275
-0.295
-0.29
-0.28
-0.265
-0.27
-0.265
-0.29
-0.295
-0.305
-0.285
-0.265
-0.26
-0.27
-0.29
-0.295
-0.275
-0.245
-0.26
-0.27
-0.295
-0.29
-0.265
-0.25
-0.24
-0.265
-0.27
-0.265
-0.265
-0.275
-0.285
-0.275
-0.28
-0.265
-0.26
-0.25
-0.255
-0.265
-0.275
-0.27
-0.24
-0.245
-0.275
-0.29
-0.295
-0.265
-0.26
-0.235
-0.235
-0.25
-0.25
-0.225
-0.21
-0.17
-0.18
-0.19
-0.205
-0.205
-0.19
-0.185
-0.175
-0.18
-0.18
-0.175
-0.165
-0.16
-0.165
-0.19
-0.21
-0.215
-0.185
-0.195
-0.195
-0.22
-0.245
-0.245
-0.23
-0.245
-0.265
-0.285
-0.3
-0.31
-0.29
-0.255
-0.265
-0.26
-0.285
-0.28
-0.275
-0.27
-0.275
-0.295
-0.305
-0.31
-0.285
-0.295
-0.285
-0.295
-0.295
-0.28
-0.275
-0.255
-0.25
-0.255
-0.26
-0.25
-0.225
-0.18
-0.095
0.025
0.13
0.23
0.36
0.47
0.585
0.77
0.965
1.21
1.47
1.73
1.895
1.94
1.925
1.89
1.81
1.64
1.295
0.9
0.59
0.405
0.315
0.29
0.275
0.275
0.245
0.205
0.165
0.105
0.02
-0.02
-0.045
-0.075
-0.095
-0.145
-0.175
-0.23
-0.28
-0.305
-0.31
-0.34
-0.375
-0.42
-0.44
-0.455
-0.445
-0.44
-0.445
-0.47
-0.495
-0.485
-0.48
-0.465
-0.47
-0.485
-0.485
-0.49
-0.48
-0.485
-0.52
-0.525
-0.545
-0.54
-0.515
-0.52
-0.53
-0.545
-0.545
-0.545
-0.54
-0.535
-0.565
-0.59
-0.605
-0.6
-0.585
-0.56
-0.565
-0.585
-0.605
-0.62
-0.635
-0.615
-0.615
-0.625
-0.655
-0.665
-0.655
-0.655
-0.67
-0.68
-0.69
-0.685
-0.67
-0.675
-0.68
-0.69
-0.685
-0.68
-0.66
-0.65
-0.645
-0.655
-0.655
-0.625
-0.565
-0.52
-0.515
-0.51
-0.49
-0.45
-0.41
-0.36
-0.355
-0.345
-0.345
-0.33
-0.31
-0.29
-0.28
-0.265
-0.26
-0.255
-0.235
-0.23
-0.235
-0.235
-0.23
-0.235
-0.205
-0.235
-0.225
-0.225
-0.23
-0.23
-0.225
-0.195
-0.21
-0.21
-0.24
-0.22
-0.235
-0.195
-0.21
-0.23
-0.25
-0.245
-0.225
-0.2
-0.21
-0.225
-0.24
-0.24
-0.23
-0.215
-0.22
-0.225
-0.24
-0.23
-0.22
-0.225
-0.24
-0.245
-0.245
-0.22
-0.21
-0.2
-0.24
-0.26
-0.25
-0.245
-0.22
-0.215
-0.215
-0.235
-0.25
-0.245
-0.235
-0.215
-0.21
-0.225
-0.22
-0.225
-0.215
-0.21
-0.23
-0.225
-0.24
-0.24
-0.25
-0.235
-0.245
-0.25
-0.23
-0.21
-0.195
-0.18
-0.195
-0.18
-0.185
-0.16
-0.145
-0.145
-0.165
-0.185
-0.205
-0.175
-0.145
-0.135
-0.13
-0.165
-0.185
-0.185
-0.185
-0.16
-0.15
-0.16
-0.165
-0.18
-0.185
-0.2
-0.205
-0.225
-0.23
-0.24
-0.25
-0.245
-0.255
-0.26
-0.265
-0.245
-0.235
-0.24
-0.25
-0.28
-0.29
-0.28
-0.26
-0.245
-0.255
-0.27
-0.285
-0.28
-0.255
-0.25
-0.235
-0.26
-0.265
-0.255
-0.245
-0.23
-0.22
-0.22
-0.18
-0.095
0.005
0.115
0.205
0.285
0.4
0.525
0.71
0.915
1.135
1.365
1.6
1.775
1.85
1.815
1.65
1.375
1.015
0.715
0.545
0.465
0.355
0.275
0.225
0.23
0.24
0.255
0.225
0.16
0.11
0.07
0.03
0.01
-0.02
-0.075
-0.125
-0.155
-0.185
-0.22
-0.275
-0.29
-0.34
-0.355
-0.36
-0.385
-0.415
-0.44
-0.45
-0.44
-0.43
-0.435
-0.455
-0.47
-0.49
-0.465
-0.45
-0.415
-0.435
-0.475
-0.485
-0.49
-0.48
-0.45
-0.47
-0.5
-0.515
-0.52
-0.515
-0.5
-0.5
-0.51
-0.51
-0.535
-0.525
-0.535
-0.535
-0.56
-0.565
-0.56
-0.545
-0.545
-0.58
-0.605
-0.61
-0.605
-0.585
-0.595
-0.62
-0.64
-0.645
-0.65
-0.65
-0.635
-0.635
-0.68
-0.685
-0.665
-0.645
-0.63
-0.625
-0.625
-0.625
-0.625
-0.585
-0.57
-0.545
-0.53
-0.51
-0.495
-0.46
-0.42
-0.41
-0.375
-0.365
-0.34
-0.295
-0.28
-0.27
-0.275
-0.275
-0.245
-0.21
-0.19
-0.195
-0.19
-0.215
-0.22
-0.195
-0.175
-0.165
-0.19
-0.2
-0.21
-0.18
-0.18
-0.19
-0.18
-0.21
-0.21
-0.185
-0.185
-0.19
-0.215
-0.225
-0.225
-0.205
-0.2
-0.195
-0.205
-0.235
-0.225
-0.21
-0.195
-0.205
-0.24
-0.24
-0.23
-0.215
-0.2
-0.215
-0.22
-0.23
-0.235
-0.23
-0.215
-0.225
-0.24
-0.245
-0.225
-0.22
-0.22
-0.22
-0.225
-0.245
-0.245
-0.235
-0.19
-0.195
-0.215
-0.245
-0.24
-0.23
-0.225
-0.21
-0.23
-0.23
-0.225
-0.215
-0.21
-0.225
-0.235
-0.23
-0.235
-0.215
-0.21
-0.215
-0.225
-0.245
-0.23
-0.21
-0.19
-0.185
-0.19
-0.195
-0.18
-0.16
-0.145
-0.14
-0.15
-0.155
-0.16
-0.16
-0.135
-0.13
-0.145
-0.14
-0.135
-0.13
-0.16
-0.17
-0.16
-0.17
-0.17
-0.165
-0.155
-0.165
-0.175
-0.21
-0.225
-0.225
-0.215
-0.22
-0.245
-0.265
-0.285
-0.26
-0.25
-0.23
-0.24
-0.255
-0.27
-0.29
-0.29
-0.285
-0.3
-0.28
-0.26
-0.245
-0.23
-0.25
-0.27
-0.265
-0.27
-0.255
-0.23
-0.24
-0.245
-0.255
-0.24
-0.225
-0.215
-0.18
-0.125
-0.03
0.08
0.165
0.24
0.295
0.395
0.53
0.69
0.87
1.065
1.245
1.45
1.65
1.8
1.89
1.875
1.76
1.555
1.25
0.93
0.675
0.525
0.435
0.345
0.265
0.215
0.24
0.26
0.245
0.215
0.155
0.09
0.055
0.03
0.01
-0.045
-0.09
-0.11
-0.13
-0.165
-0.215
-0.265
-0.29
-0.295
-0.3
-0.315
-0.335
-0.375
-0.415
-0.435
-0.44
-0.41
-0.445
-0.445
-0.455
-0.465
-0.445
-0.465
-0.485
-0.485
-0.505
-0.5
-0.48
-0.48
-0.485
-0.495
-0.515
-0.51
-0.5
-0.495
-0.5
-0.505
-0.505
-0.505
-0.51
-0.5
-0.535
-0.535
-0.545
-0.54
-0.535
-0.54
-0.56
-0.575
-0.58
-0.57
-0.56
-0.555
-0.585
-0.6
-0.62
-0.615
-0.61
-0.61
-0.635
-0.64
-0.64
-0.635
-0.645
-0.635
-0.665
-0.67
-0.685
-0.69
-0.68
-0.665
-0.665
-0.68
-0.695
-0.685
-0.665
-0.655
-0.66
-0.655
-0.655
-0.65
-0.615
-0.575
-0.56
-0.535
-0.525
-0.515
-0.5
-0.455
-0.445
-0.42
-0.41
-0.365
-0.35
-0.315
-0.355
-0.34
-0.335
-0.315
-0.275
-0.26
-0.245
-0.25
-0.235
-0.24
-0.24
-0.25
-0.255
-0.25
-0.24
-0.225
-0.215
-0.205
-0.22
-0.24
-0.25
-0.235
-0.2
-0.195
-0.205
-0.225
-0.23
-0.225
-0.225
-0.22
-0.23
-0.24
-0.255
-0.245
-0.22
-0.225
-0.24
-0.255
-0.27
-0.245
-0.22
-0.21
-0.23
-0.24
-0.25
-0.26
-0.25
-0.24
-0.235
-0.245
-0.25
-0.25
-0.24
-0.245
-0.27
-0.26
-0.255
-0.26
-0.24
-0.23
-0.235
-0.245
-0.255
-0.245
-0.23
-0.2
-0.22
-0.23
-0.27
-0.275
-0.255
-0.235
-0.23
-0.22
-0.23
-0.225
-0.21
-0.195
-0.2
-0.215
-0.23
-0.24
-0.23
-0.21
-0.185
-0.185
-0.195
-0.19
-0.195
-0.18
-0.17
-0.17
-0.17
-0.17
-0.155
-0.15
-0.16
-0.175
-0.165
-0.155
-0.145
-0.13
-0.135
-0.14
-0.165
-0.185
-0.18
-0.17
-0.16
-0.15
-0.155
-0.155
-0.135
-0.14
-0.16
-0.205
-0.24
-0.24
-0.23
-0.2
-0.2
-0.215
-0.24
-0.265
-0.275
-0.27
-0.265
-0.265
-0.255
-0.23
-0.225
-0.235
-0.265
-0.27
-0.265
-0.265
-0.245
-0.23
-0.23
-0.24
-0.25
-0.245
-0.23
-0.225
-0.21
-0.23
-0.225
-0.2
-0.18
-0.175
-0.195
-0.175
-0.12
-0.03
0.1
0.215
0.32
0.395
0.52
0.655
0.835
1.015
1.185
1.335
1.51
1.72
1.92
2.07
2.135
2.105
2.04
1.97
1.875
1.695
1.365
0.94
0.545
0.275
0.12
0.045
0.02
0.02
0.04
0.055
0.05
0.02
-0.01
-0.025
-0.06
-0.08
-0.09
-0.09
-0.115
-0.135
-0.17
-0.19
-0.205
-0.235
-0.265
-0.305
-0.335
-0.36
-0.365
-0.39
-0.395
-0.415
-0.44
-0.435
-0.425
-0.41
-0.415
-0.445
-0.43
-0.435
-0.43
-0.425
-0.445
-0.47
-0.47
-0.47
-0.445
-0.43
-0.445
-0.455
-0.465
-0.475
-0.46
-0.44
-0.44
-0.455
-0.485
-0.475
-0.485
-0.475
-0.46
-0.465
-0.465
-0.47
-0.46
-0.445
-0.48
-0.51
-0.52
-0.525
-0.51
-0.53
-0.53
-0.545
-0.555
-0.535
-0.53
-0.525
-0.54
-0.565
-0.6
-0.6
-0.585
-0.575
-0.595
-0.61
-0.61
-0.595
-0.565
-0.56
-0.585
-0.59
-0.595
-0.565
-0.54
-0.515
-0.505
-0.505
-0.51
-0.505
-0.465
-0.415
-0.39
-0.385
-0.38
-0.37
-0.345
-0.325
-0.315
-0.305
-0.285
-0.26
-0.235
-0.205
-0.225
-0.225
-0.225
-0.22
-0.185
-0.185
-0.195
-0.205
-0.225
-0.205
-0.19
-0.175
-0.175
-0.195
-0.205
-0.22
-0.195
-0.18
-0.19
-0.205
-0.21
-0.205
-0.19
-0.18
-0.195
-0.205
-0.23
-0.23
-0.21
-0.2
-0.2
-0.23
-0.245
-0.265
-0.235
-0.23
-0.245
-0.255
-0.265
-0.26
-0.26
-0.27
-0.305
-0.355
-0.38
-0.36
-0.29
-0.18
-0.105
0.005
0.14
0.35
0.575
0.8
1.0
1.185
1.3
1.36
1.315
1.235
1.165
1.105
1.025
0.94
0.84
0.715
0.525
0.28
0.07
-0.105
-0.215
-0.295
-0.4
-0.49
-0.555
-0.555
-0.515
-0.45
-0.395
-0.35
-0.33
-0.305
-0.3
-0.3
-0.325
-0.335
-0.335
-0.325
-0.31
-0.29
-0.29
-0.31
-0.33
-0.33
-0.315
-0.305
-0.3
-0.325
-0.375
-0.37
-0.36
-0.345
-0.35
-0.365
-0.38
-0.39
-0.37
-0.35
-0.345
-0.385
-0.37
-0.375
-0.355
-0.345
-0.33
-0.335
-0.345
-0.35
-0.35
-0.335
-0.315
-0.32
-0.325
-0.32
-0.33
-0.325
-0.335
-0.36
-0.37
-0.36
-0.37
-0.325
-0.315
-0.33
-0.34
-0.35
-0.355
-0.335
-0.315
-0.325
-0.335
-0.335
-0.31
-0.3
-0.3
-0.285
-0.28
-0.26
-0.23
-0.225
-0.215
-0.21
-0.195
-0.18
-0.145
-0.12
-0.115
-0.125
-0.135
-0.115
-0.105
-0.07
-0.075
-0.07
-0.07
-0.06
-0.005
0.035
0.055
0.05
0.05
0.075
0.095
0.105
0.09
0.06
0.065
0.065
0.045
0.05
0.025
0.005
-0.025
0.0
0.03
0.03
0.025
-0.005
-0.02
-0.03
-0.035
-0.025
-0.035
-0.065
-0.085
-0.08
-0.095
-0.08
-0.11
-0.145
-0.15
-0.145
-0.145
-0.14
-0.165
-0.165
-0.175
-0.17
-0.15
-0.15
-0.14
-0.15
-0.16
-0.175
-0.165
-0.14
-0.135
-0.155
-0.16
-0.17
-0.17
-0.165
-0.155
-0.165
-0.175
-0.17
-0.145
-0.125
-0.155
-0.18
-0.185
-0.185
-0.16
-0.16
-0.16
-0.175
-0.165
-0.165
-0.16
-0.165
-0.155
-0.15
-0.16
-0.16
-0.155
-0.15
-0.155
-0.17
-0.19
-0.18
-0.17
-0.16
-0.16
-0.185
-0.225
-0.205
-0.19
-0.17
-0.165
-0.18
-0.21
-0.225
-0.25
-0.245
-0.245
-0.23
-0.225
-0.205
-0.185
-0.175
-0.175
-0.205
-0.23
-0.235
-0.215
-0.205
-0.205
-0.245
-0.225
-0.19
-0.15
-0.135
-0.16
-0.205
-0.245
-0.29
-0.28
-0.28
-0.265
-0.285
-0.315
-0.315
-0.31
-0.27
-0.28
-0.275
-0.26
-0.24
-0.23
-0.23
-0.24
-0.235
-0.23
-0.235
-0.225
-0.21
-0.225
-0.245
-0.26
-0.24
-0.225
-0.22
-0.23
-0.255
-0.26
-0.245
-0.23
-0.22
-0.195
-0.21
-0.215
-0.23
-0.22
-0.21
-0.2
-0.21
-0.21
-0.19
-0.17
-0.16
-0.155
-0.165
-0.185
-0.195
-0.21
-0.22
-0.23
-0.24
-0.28
-0.26
-0.25
-0.235
-0.245
-0.275
-0.285
-0.245
-0.23
-0.21
-0.225
-0.25
-0.275
-0.26
-0.215
-0.17
-0.15
-0.145
-0.155
-0.15
-0.125
-0.115
-0.13
-0.135
-0.145
-0.135
-0.125
-0.11
-0.125
-0.135
-0.135
-0.145
-0.12
-0.11
-0.13
-0.145
-0.16
-0.14
-0.135
-0.13
-0.145
-0.17
-0.19
-0.19
-0.195
-0.185
-0.2
-0.225
-0.235
-0.24
-0.215
-0.205
-0.215
-0.23
-0.235
-0.23
-0.225
-0.21
-0.2
-0.215
-0.225
-0.225
-0.215
-0.215
-0.21
-0.23
-0.225
-0.22
-0.2
-0.2
-0.22
-0.235
-0.24
-0.23
-0.2
-0.18
-0.165
-0.14
-0.08
-0.015
0.095
0.15
0.175
0.195
0.22
0.305
0.405
0.535
0.71
0.9
1.095
1.285
1.49
1.675
1.795
1.81
1.76
1.625
1.395
1.05
0.725
0.45
0.32
0.245
0.205
0.205
0.18
0.14
0.125
0.12
0.115
0.08
0.03
-0.025
-0.065
-0.085
-0.095
-0.095
-0.105
-0.165
-0.21
-0.225
-0.23
-0.225
-0.24
-0.26
-0.28
-0.305
-0.33
-0.325
-0.34
-0.37
-0.37
-0.38
-0.375
-0.37
-0.4
-0.42
-0.425
-0.415
-0.385
-0.385
-0.4
-0.43
-0.455
-0.47
-0.455
-0.445
-0.465
-0.465
-0.45
-0.455
-0.455
-0.43
-0.43
-0.45
-0.455
-0.455
-0.455
-0.44
-0.455
-0.465
-0.47
-0.47
-0.45
-0.46
-0.475
-0.49
-0.495
-0.485
-0.465
-0.45
-0.435
-0.47
-0.49
-0.51
-0.52
-0.53
-0.535
-0.555
-0.56
-0.555
-0.545
-0.525
-0.535
-0.545
-0.545
-0.54
-0.52
-0.49
-0.49
-0.49
-0.505
-0.5
-0.49
-0.45
-0.43
-0.435
-0.415
-0.395
-0.365
-0.335
-0.32
-0.305
-0.295
-0.26
-0.225
-0.205
-0.175
-0.175
-0.165
-0.155
-0.14
-0.115
-0.105
-0.125
-0.135
-0.14
-0.125
-0.085
-0.075
-0.095
-0.11
-0.14
-0.115
-0.11
-0.1
-0.105
-0.125
-0.135
-0.13
-0.115
-0.1
-0.105
-0.105
-0.115
-0.11
-0.125
-0.13
-0.145
-0.16
-0.15
-0.14
-0.125
-0.13
-0.165
-0.175
-0.17
-0.15
-0.135
-0.14
-0.155
-0.17
-0.18
-0.175
-0.185
-0.18
-0.18
-0.185
-0.175
-0.155
-0.145
-0.155
-0.16
-0.17
-0.15
-0.12
-0.095
-0.1
-0.115
-0.16
-0.15
-0.14
-0.12
-0.125
-0.15
-0.145
-0.14
-0.14
-0.115
-0.12
-0.125
-0.135
-0.115
-0.095
-0.085
-0.09
-0.095
-0.105
-0.08
-0.07
-0.07
-0.07
-0.075
-0.08
-0.075
-0.055
-0.05
-0.04
-0.055
-0.075
-0.095
-0.08
-0.09
-0.095
-0.095
-0.115
-0.125
-0.14
-0.13
-0.135
-0.165
-0.165
-0.175
-0.175
-0.165
-0.19
-0.21
-0.2
-0.215
-0.19
-0.17
-0.175
-0.185
-0.21
-0.22
-0.215
-0.195
-0.205
-0.205
-0.215
-0.205
-0.205
-0.21
-0.21
-0.23
-0.235
-0.215
-0.185
-0.17
-0.155
-0.155
-0.17
-0.17
-0.165
-0.135
-0.08
0.02
0.115
0.22
0.285
0.375
0.445
0.515
0.62
0.76
0.955
1.135
1.305
1.505
1.65
1.755
1.835
1.845
1.795
1.715
1.545
1.28
0.935
0.65
0.45
0.325
0.245
0.205
0.21
0.22
0.205
0.16
0.125
0.095
0.085
0.05
0.02
-0.035
-0.075
-0.1
-0.12
-0.125
-0.15
-0.175
-0.215
-0.235
-0.25
-0.26
-0.29
-0.335
-0.365
-0.375
-0.345
-0.335
-0.35
-0.375
-0.39
-0.39
-0.375
-0.355
-0.36
-0.39
-0.395
-0.385
-0.375
-0.375
-0.375
-0.39
-0.405
-0.415
-0.405
-0.405
-0.405
-0.43
-0.44
-0.45
-0.46
-0.43
-0.435
-0.445
-0.44
-0.46
-0.445
-0.42
-0.435
-0.44
-0.45
-0.46
-0.475
-0.49
-0.505
-0.51
-0.525
-0.5
-0.49
-0.48
-0.48
-0.495
-0.515
-0.525
-0.51
-0.5
-0.505
-0.525
-0.535
-0.55
-0.52
-0.505
-0.495
-0.495
-0.5
-0.485
-0.47
-0.48
-0.5
-0.51
-0.525
-0.47
-0.43
-0.385
-0.39
-0.4
-0.39
-0.355
-0.325
-0.3
-0.285
-0.305
-0.295
-0.285
-0.265
-0.235
-0.195
-0.18
-0.21
-0.215
-0.215
-0.21
-0.205
-0.205
-0.21
-0.21
-0.205
-0.18
-0.19
-0.185
-0.18
-0.175
-0.185
-0.19
-0.23
-0.255
-0.27
-0.26
-0.215
-0.195
-0.225
-0.235
-0.25
-0.23
-0.215
-0.22
-0.215
-0.225
-0.23
-0.235
-0.24
-0.235
-0.24
-0.24
-0.26
-0.255
-0.245
-0.23
-0.215
-0.24
-0.255
-0.26
-0.245
-0.23
-0.22
-0.215
-0.21
-0.205
-0.185
-0.19
-0.215
-0.24
-0.265
-0.245
-0.215
-0.205
-0.215
-0.24
-0.25
-0.235
-0.205
-0.165
-0.145
-0.145
-0.16
-0.165
-0.15
-0.13
-0.12
-0.13
-0.15
-0.16
-0.15
-0.145
-0.13
-0.12
-0.125
-0.11
-0.1
-0.11
-0.15
-0.17
-0.18
-0.185
-0.17
-0.18
-0.205
-0.24
-0.26
-0.255
-0.255
-0.215
-0.22
-0.24
-0.25
-0.265
-0.25
-0.245
-0.23
-0.225
-0.235
-0.24
-0.245
-0.24
-0.235
-0.235
-0.245
-0.235
-0.23
-0.24
-0.235
-0.245
-0.26
-0.27
-0.265
-0.225
-0.23
-0.24
-0.23
-0.235
-0.2
-0.15
-0.08
0.015
0.09
0.18
0.255
0.345
0.41
0.465
0.525
0.65
0.795
0.985
1.195
1.425
1.59
1.68
1.685
1.575
1.325
0.985
0.66
0.455
0.33
0.255
0.205
0.155
0.145
0.16
0.165
0.165
0.15
0.12
0.065
0.03
0.0
-0.03
-0.085
-0.13
-0.16
-0.2
-0.225
-0.26
-0.29
-0.33
-0.355
-0.37
-0.38
-0.36
-0.38
-0.39
-0.425
-0.435
-0.425
-0.415
-0.425
-0.445
-0.45
-0.45
-0.425
-0.41
-0.41
-0.405
-0.43
-0.465
-0.475
-0.475
-0.485
-0.505
-0.495
-0.485
-0.48
-0.475
-0.49
-0.51
-0.52
-0.53
-0.53
-0.485
-0.49
-0.51
-0.53
-0.535
-0.52
-0.505
-0.51
-0.525
-0.54
-0.55
-0.52
-0.52
-0.525
-0.55
-0.54
-0.52
-0.53
-0.53
-0.565
-0.605
-0.62
-0.62
-0.605
-0.595
-0.605
-0.61
-0.615
-0.595
-0.585
-0.57
-0.575
-0.575
-0.575
-0.555
-0.515
-0.49
-0.49
-0.48
-0.48
-0.45
-0.395
-0.325
-0.295
-0.28
-0.275
-0.27
-0.275
-0.285
-0.275
-0.265
-0.25
-0.235
-0.21
-0.2
-0.22
-0.25
-0.255
-0.27
-0.265
-0.225
-0.21
-0.2
-0.225
-0.235
-0.25
-0.235
-0.205
-0.195
-0.21
-0.215
-0.2
-0.185
-0.17
-0.15
-0.145
-0.135
-0.135
-0.175
-0.215
-0.265
-0.31
-0.33
-0.3
-0.27
-0.26
-0.26
-0.27
-0.255
-0.24
-0.21
-0.225
-0.25
-0.265
-0.27
-0.26
-0.27
-0.24
-0.23
-0.22
-0.195
-0.205
-0.185
-0.195
-0.195
-0.215
-0.235
-0.245
-0.24
-0.24
-0.25
-0.255
-0.25
-0.21
-0.175
-0.175
-0.17
-0.175
-0.175
-0.155
-0.16
-0.16
-0.17
-0.145
-0.095
-0.045
-0.04
-0.085
-0.155
-0.21
-0.23
-0.255
-0.225
-0.21
-0.225
-0.245
-0.23
-0.215
-0.205
-0.185
-0.13
-0.065
-0.04
-0.1
-0.23
-0.385
-0.48
-0.49
-0.415
-0.36
-0.33
-0.365
-0.42
-0.395
-0.375
-0.32
-0.28
-0.27
-0.295
-0.295
-0.31
-0.315
-0.285
-0.27
-0.25
-0.26
-0.26
-0.23
-0.205
-0.185
-0.15
-0.08
0.02
0.115
0.15
0.185
0.25
0.365
0.515
0.695
0.88
1.065
1.235
1.425
1.585
1.66
1.605
1.46
1.195
0.88
0.58
0.36
0.235
0.14
0.08
0.06
0.065
0.085
0.1
0.08
0.055
0.01
-0.035
-0.06
-0.075
-0.08
-0.095
-0.12
-0.165
-0.2
-0.225
-0.27
-0.335
-0.385
-0.395
-0.39
-0.395
-0.41
-0.45
-0.47
-0.5
-0.49
-0.475
-0.485
-0.495
-0.49
-0.475
-0.46
-0.45
-0.455
-0.45
-0.445
-0.445
-0.43
-0.4
-0.38
-0.375
-0.425
-0.45
-0.5
-0.55
-0.565
-0.585
-0.59
-0.555
-0.51
-0.485
-0.495
-0.525
-0.555
-0.55
-0.535
-0.52
-0.53
-0.56
-0.565
-0.57
-0.565
-0.555
-0.56
-0.57
-0.585
-0.565
-0.565
-0.555
-0.575
-0.615
-0.625
-0.62
-0.595
-0.61
-0.65
-0.66
-0.64
-0.61
-0.59
-0.585
-0.585
-0.595
-0.6
-0.55
-0.49
-0.435
-0.405
-0.4
-0.395
-0.4
-0.385
-0.38
-0.375
-0.355
-0.34
-0.3
-0.275
-0.265
-0.25
-0.255
-0.255
-0.26
-0.25
-0.23
-0.23
-0.225
-0.215
-0.21
-0.215
-0.225
-0.25
-0.29
-0.305
-0.3
-0.28
-0.25
-0.28
-0.28
-0.285
-0.28
-0.26
-0.26
-0.29
-0.32
-0.335
-0.325
-0.31
-0.31
-0.285
-0.3
-0.31
-0.285
-0.275
-0.245
-0.23
-0.215
-0.205
-0.175
-0.16
-0.17
-0.235
-0.335
-0.4
-0.415
-0.38
-0.325
-0.28
-0.26
-0.235
-0.225
-0.24
-0.26
-0.275
-0.28
-0.255
-0.21
-0.195
-0.185
-0.19
-0.185
-0.18
-0.19
-0.215
-0.245
-0.285
-0.31
-0.315
-0.285
-0.22
-0.16
-0.155
-0.155
-0.18
-0.17
-0.16
-0.15
-0.15
-0.175
-0.205
-0.19
-0.19
-0.155
-0.15
-0.155
-0.165
-0.21
-0.24
-0.275
-0.3
-0.3
-0.275
-0.235
-0.22
-0.18
-0.215
-0.275
-0.315
-0.33
-0.3
-0.28
-0.265
-0.275
-0.285
-0.27
-0.26
-0.24
-0.24
-0.25
-0.265
-0.245
-0.235
-0.185
-0.14
-0.05
0.08
0.205
0.33
0.455
0.575
0.74
0.91
1.095
1.25
1.37
1.495
1.64
1.765
1.755
1.61
1.335
0.935
0.515
0.195
0.01
-0.035
-0.01
0.01
0.015
0.0
-0.025
-0.045
-0.055
-0.075
-0.09
-0.1
-0.095
-0.085
-0.07
-0.11
-0.17
-0.25
-0.29
-0.285
-0.265
-0.265
-0.28
-0.32
-0.395
-0.435
-0.445
-0.435
-0.425
-0.44
-0.43
-0.415
-0.42
-0.42
-0.445
-0.46
-0.445
-0.425
-0.395
-0.405
-0.435
-0.445
-0.435
-0.415
-0.375
-0.365
-0.385
-0.405
-0.415
-0.415
-0.39
-0.405
-0.415
-0.415
-0.41
-0.41
-0.4
-0.43
-0.45
-0.475
-0.475
-0.46
-0.45
-0.465
-0.505
-0.52
-0.52
-0.495
-0.485
-0.51
-0.53
-0.545
-0.545
-0.545
-0.52
-0.495
-0.51
-0.52
-0.51
-0.51
-0.51
-0.53
-0.505
-0.485
-0.465
-0.43
-0.395
-0.39
-0.405
-0.435
-0.46
-0.475
-0.465
-0.455
-0.465
-0.44
-0.39
-0.33
-0.295
-0.285
-0.28
-0.28
-0.285
-0.245
-0.235
-0.21
-0.2
-0.19
-0.185
-0.17
-0.17
-0.165
-0.18
-0.185
-0.185
-0.175
-0.145
-0.165
-0.19
-0.19
-0.195
-0.195
-0.175
-0.18
-0.21
-0.21
-0.2
-0.18
-0.175
-0.185
-0.215
-0.235
-0.24
-0.235
-0.215
-0.22
-0.215
-0.225
-0.22
-0.21
-0.195
-0.23
-0.255
-0.265
-0.265
-0.255
-0.27
-0.295
-0.325
-0.34
-0.31
-0.25
-0.135
-0.045
0.05
0.145
0.25
0.395
0.585
0.785
1.015
1.23
1.435
1.575
1.605
1.545
1.465
1.38
1.285
1.175
1.02
0.835
0.635
0.455
0.33
0.22
0.115
0.005
-0.11
-0.185
-0.245
-0.29
-0.295
-0.285
-0.285
-0.27
-0.25
-0.235
-0.245
-0.255
-0.29
-0.29
-0.295
-0.3
-0.3
-0.32
-0.34
-0.37
-0.37
-0.365
-0.35
-0.34
-0.35
-0.36
-0.375
-0.385
-0.375
-0.365
-0.375
-0.38
-0.37
-0.345
-0.325
-0.33
-0.34
-0.34
-0.345
-0.345
-0.31
-0.325
-0.335
-0.37
-0.38
-0.37
-0.36
-0.36
-0.37
-0.37
-0.37
-0.36
-0.34
-0.355
-0.36
-0.38
-0.385
-0.36
-0.36
-0.355
-0.36
-0.37
-0.35
-0.32
-0.295
-0.3
-0.31
-0.3
-0.28
-0.255
-0.235
-0.225
-0.215
-0.2
-0.175
-0.13
-0.095
-0.075
-0.085
-0.075
-0.08
-0.05
-0.015
0.005
0.01
0.005
0.005
0.015
0.045
0.055
0.045
0.02
0.015
-0.005
-0.01
-0.015
-0.035
-0.045
-0.05
-0.05
-0.04
-0.055
-0.08
-0.1
-0.11
-0.125
-0.095
-0.125
-0.125
-0.145
-0.16
-0.14
-0.115
-0.115
-0.14
-0.17
-0.18
-0.175
-0.16
-0.155
-0.16
-0.17
-0.165
-0.16
-0.135
-0.145
-0.155
-0.17
-0.175
-0.16
-0.135
-0.125
-0.135
-0.14
-0.145
-0.13
-0.13
-0.145
-0.16
-0.185
-0.19
-0.165
-0.13
-0.145
-0.14
-0.16
-0.17
-0.16
-0.13
-0.13
-0.145
-0.17
-0.185
-0.17
-0.155
-0.15
-0.165
-0.165
-0.17
-0.17
-0.16
-0.17
-0.19
-0.19
-0.205
-0.19
-0.18
-0.185
-0.21
-0.24
-0.24
-0.205
-0.185
-0.2
-0.225
-0.245
-0.23
-0.225
-0.215
-0.21
-0.215
-0.22
-0.245
-0.225
-0.215
-0.22
-0.235
-0.23
-0.255
-0.235
-0.22
-0.24
-0.245
-0.25
-0.235
-0.225
-0.23
-0.205
-0.225
-0.265
-0.255
-0.245
-0.21
-0.205
-0.215
-0.25
-0.255
-0.235
-0.22
-0.22
-0.225
-0.23
-0.24
-0.245
-0.22
-0.235
-0.22
-0.23
-0.23
-0.23
-0.225
-0.215
-0.235
-0.24
-0.22
-0.2
-0.205
-0.215
-0.21
-0.22
-0.19
-0.17
-0.13
-0.135
-0.135
-0.145
-0.14
-0.12
-0.115
-0.105
-0.13
-0.14
-0.135
-0.135
-0.12
-0.115
-0.13
-0.145
-0.16
-0.14
-0.13
-0.14
-0.15
-0.165
-0.165
-0.165
-0.16
-0.17
-0.195
-0.24
-0.235
-0.22
-0.21
-0.195
-0.215
-0.215
-0.235
-0.21
-0.21
-0.22
-0.225
-0.24
-0.245
-0.245
-0.24
-0.235
-0.24
-0.23
-0.245
-0.225
-0.21
-0.21
-0.215
-0.225
-0.23
-0.21
-0.195
-0.185
-0.13
-0.045
0.065
0.18
0.275
0.335
0.38
0.47
0.585
0.76
0.945
1.125
1.33
1.525
1.715
1.835
1.885
1.84
1.71
1.465
1.155
0.835
0.595
0.42
0.31
0.255
0.225
0.21
0.215
0.185
0.155
0.11
0.085
0.035
0.01
-0.01
-0.06
-0.09
-0.115
-0.14
-0.15
-0.19
-0.225
-0.265
-0.28
-0.285
-0.295
-0.315
-0.335
-0.365
-0.365
-0.36
-0.35
-0.345
-0.37
-0.39
-0.405
-0.4
-0.39
-0.385
-0.405
-0.41
-0.415
-0.41
-0.415
-0.41
-0.43
-0.46
-0.45
-0.425
-0.395
-0.4
-0.415
-0.45
-0.45
-0.435
-0.425
-0.415
-0.435
-0.45
-0.455
-0.465
-0.45
-0.44
-0.465
-0.47
-0.48
-0.485
-0.47
-0.48
-0.49
-0.51
-0.515
-0.5
-0.495
-0.49
-0.515
-0.54
-0.555
-0.55
-0.535
-0.535
-0.545
-0.555
-0.545
-0.54
-0.54
-0.535
-0.565
-0.57
-0.575
-0.555
-0.53
-0.525
-0.53
-0.535
-0.525
-0.485
-0.44
-0.435
-0.425
-0.425
-0.405
-0.365
-0.325
-0.295
-0.27
-0.27
-0.27
-0.25
-0.225
-0.2
-0.205
-0.19
-0.175
-0.125
-0.125
-0.1
-0.115
-0.1
-0.09
-0.045
-0.02
-0.025
-0.075
-0.145
-0.19
-0.22
-0.215
-0.225
-0.225
-0.205
-0.175
-0.145
-0.13
-0.135
-0.155
-0.165
-0.175
-0.17
-0.13
-0.14
-0.155
-0.18
-0.185
-0.175
-0.14
-0.14
-0.14
-0.145
-0.145
-0.12
-0.105
-0.125
-0.145
-0.15
-0.155
-0.135
-0.1
-0.1
-0.125
-0.15
-0.15
-0.13
-0.105
-0.095
-0.115
-0.135
-0.16
-0.15
-0.115
-0.11
-0.12
-0.12
-0.125
-0.105
-0.09
-0.08
-0.075
-0.065
-0.055
-0.02
0.0
-0.015
-0.035
-0.04
-0.045
-0.025
-0.02
-0.005
-0.01
-0.02
-0.02
-0.01
0.0
-0.01
-0.045
-0.065
-0.055
-0.065
-0.065
-0.03
-0.03
-0.035
-0.04
-0.05
-0.05
-0.06
-0.08
-0.08
-0.095
-0.105
-0.11
-0.1
-0.125
-0.13
-0.11
-0.09
-0.09
-0.1
-0.14
-0.165
-0.175
-0.18
-0.2
-0.2
-0.21
-0.22
-0.22
-0.21
-0.19
-0.185
-0.195
-0.19
-0.195
-0.17
-0.155
-0.165
-0.155
-0.165
-0.155
-0.155
-0.135
-0.105
-0.065
0.01
0.115
0.19
0.24
0.32
0.38
0.46
0.55
0.66
0.805
0.93
1.09
1.275
1.475
1.66
1.8
1.845
1.79
1.665
1.47
1.205
0.93
0.7
0.535
0.415
0.35
0.295
0.285
0.275
0.265
0.25
0.255
0.275
0.26
0.22
0.17
0.1
0.065
0.035
0.02
-0.005
-0.04
-0.08
-0.12
-0.145
-0.15
-0.175
-0.205
-0.24
-0.26
-0.255
-0.25
-0.28
-0.325
-0.34
-0.33
-0.33
-0.315
-0.315
-0.33
-0.34
-0.345
-0.35
-0.35
-0.37
-0.375
-0.41
-0.38
-0.36
-0.355
-0.365
-0.375
-0.4
-0.395
-0.39
-0.355
-0.355
-0.375
-0.395
-0.385
-0.38
-0.385
-0.385
-0.385
-0.39
-0.4
-0.38
-0.375
-0.39
-0.405
-0.42
-0.415
-0.4
-0.355
-0.35
-0.36
-0.375
-0.415
-0.435
-0.445
-0.48
-0.5
-0.525
-0.525
-0.49
-0.475
-0.475
-0.495
-0.525
-0.535
-0.53
-0.5
-0.49
-0.51
-0.525
-0.52
-0.5
-0.5
-0.485
-0.485
-0.485
-0.475
-0.46
-0.41
-0.415
-0.42
-0.42
-0.415
-0.375
-0.345
-0.315
-0.315
-0.315
-0.305
-0.285
-0.25
-0.24
-0.225
-0.205
-0.175
-0.13
-0.095
-0.08
-0.08
-0.12
-0.15
-0.155
-0.12
-0.115
-0.15
-0.18
-0.195
-0.19
-0.165
-0.155
-0.16
-0.145
-0.125
-0.115
-0.115
-0.15
-0.165
-0.185
-0.175
-0.175
-0.155
-0.15
-0.17
-0.205
-0.21
-0.205
-0.175
-0.175
-0.16
-0.17
-0.145
-0.135
-0.125
-0.165
-0.2
-0.235
-0.225
-0.195
-0.145
-0.15
-0.16
-0.19
-0.21
-0.2
-0.19
-0.2
-0.21
-0.22
-0.205
-0.21
-0.19
-0.19
-0.225
-0.24
-0.22
-0.21
-0.185
-0.185
-0.19
-0.215
-0.2
-0.18
-0.175
-0.195
-0.22
-0.265
-0.245
-0.225
-0.17
-0.125
-0.1
-0.1
-0.09
-0.1
-0.105
-0.12
-0.16
-0.195
-0.215
-0.19
-0.165
-0.125
-0.105
-0.095
-0.09
-0.065
-0.065
-0.08
-0.115
-0.145
-0.13
-0.095
-0.08
-0.11
-0.15
-0.175
-0.16
-0.14
-0.105
-0.125
-0.145
-0.18
-0.205
-0.195
-0.175
-0.18
-0.2
-0.24
-0.265
-0.255
-0.22
-0.23
-0.235
-0.265
-0.28
-0.265
-0.255
-0.245
-0.24
-0.23
-0.21
-0.215
-0.215
-0.225
-0.25
-0.265
-0.255
-0.245
-0.185
-0.155
-0.125
-0.11
-0.065
0.02
0.12
0.185
0.25
0.305
0.38
0.49
0.6
0.695
0.835
1.01
1.2
1.44
1.645
1.775
1.81
1.77
1.65
1.425
1.135
0.825
0.525
0.365
0.25
0.2
0.18
0.175
0.185
0.185
0.175
0.17
0.14
0.11
0.065
0.03
-0.01
-0.04
-0.035
-0.05
-0.07
-0.105
-0.125
-0.145
-0.16
-0.185
-0.22
-0.235
-0.255
-0.3
-0.34
-0.395
-0.42
-0.425
-0.415
-0.39
-0.36
-0.365
-0.38
-0.42
-0.43
-0.435
-0.41
-0.425
-0.425
-0.445
-0.43
