Lead II
0.3
0.31
0.28
0.295
0.3
0.32
0.34
0.325
0.345
0.36
0.37
0.39
0.41
0.42
0.41
0.42
0.45
0.475
0.515
0.525
0.55
0.54
0.555
0.59
0.625
0.635
0.64
0.64
0.66
0.705
0.735
0.78
0.795
0.805
0.83
0.85
0.89
0.905
0.925
0.94
0.955
0.98
1.005
1.035
1.045
1.045
1.065
1.09
1.1
1.095
1.085
1.075
1.085
1.075
1.085
1.055
1.04
1.015
1.005
0.995
0.99
0.945
0.9
0.84
0.785
0.78
0.755
0.705
0.675
0.645
0.605
0.57
0.53
0.48
0.42
0.375
0.32
0.315
0.29
0.255
0.21
0.165
0.125
0.105
0.095
0.075
0.035
0.005
-0.02
-0.005
-0.015
-0.03
-0.05
-0.075
-0.085
-0.085
-0.065
-0.08
-0.075
-0.115
-0.115
-0.1
-0.09
-0.095
-0.11
-0.13
-0.12
-0.115
-0.1
-0.105
-0.13
-0.125
-0.125
-0.125
-0.12
-0.125
-0.13
-0.16
-0.145
-0.135
-0.115
-0.13
-0.13
-0.14
-0.155
-0.135
-0.13
-0.13
-0.145
-0.16
-0.17
-0.16
-0.15
-0.16
-0.165
-0.175
-0.175
-0.17
-0.16
-0.18
-0.21
-0.21
-0.215
-0.2
-0.185
-0.18
-0.19
-0.205
-0.195
-0.18
-0.18
-0.195
-0.21
-0.23
-0.245
-0.215
-0.215
-0.215
-0.23
-0.245
-0.26
-0.24
-0.225
-0.24
-0.24
-0.25
-0.25
-0.26
-0.24
-0.26
-0.27
-0.27
-0.26
-0.235
-0.23
-0.23
-0.245
-0.27
-0.28
-0.255
-0.24
-0.25
-0.27
-0.28
-0.28
-0.29
-0.275
-0.285
-0.295
-0.275
-0.28
-0.26
-0.24
-0.25
-0.245
-0.255
-0.275
-0.28
-0.265
-0.27
-0.28
-0.285
-0.29
-0.275
-0.25
-0.265
-0.285
-0.3
-0.3
-0.275
-0.255
-0.24
-0.255
-0.275
-0.265
-0.26
-0.23
-0.23
-0.25
-0.26
-0.255
-0.24
-0.22
-0.19
-0.16
-0.115
-0.02
0.2
0.605
1.065
1.4
1.41
1.185
0.945
0.85
0.78
0.715
0.62
0.51
0.43
0.35
0.22
0.115
-0.015
-0.11
-0.23
-0.37
-0.49
-0.645
-0.8
-0.955
-1.09
-1.2
-1.315
-1.42
-1.495
-1.555
-1.625
-1.66
-1.7
-1.735
-1.765
-1.785
-1.77
-1.735
-1.72
-1.7
-1.67
-1.61
-1.52
-1.42
-1.315
-1.19
-1.085
-0.975
-0.915
-0.86
-0.795
-0.765
-0.695
-0.645
-0.575
-0.505
-0.45
-0.405
-0.355
-0.31
-0.23
-0.165
-0.13
-0.105
-0.095
-0.07
-0.02
0.015
0.035
0.04
0.035
0.045
0.065
0.085
0.08
0.085
0.065
0.075
0.08
0.11
0.115
0.11
0.125
0.12
0.15
0.165
0.175
0.17
0.17
0.19
0.225
0.245
0.255
0.27
0.275
0.3
0.31
0.345
0.37
0.36
0.37
0.4
0.45
0.485
0.51
0.515
0.53
0.55
0.575
0.625
0.645
0.645
0.655
0.69
0.725
0.765
0.77
0.81
0.825
0.845
0.885
0.91
0.925
0.92
0.905
0.9
0.92
0.965
0.965
0.955
0.95
0.935
0.95
0.96
0.94
0.91
0.86
0.83
0.84
0.825
0.8
0.755
0.705
0.665
0.64
0.625
0.565
0.51
0.445
0.405
0.365
0.355
0.315
0.24
0.17
0.15
0.135
0.12
0.07
0.035
-0.015
-0.04
-0.05
-0.045
-0.07
-0.095
-0.115
-0.13
-0.125
-0.13
-0.155
-0.18
-0.185
-0.185
-0.165
-0.15
-0.16
-0.17
-0.185
-0.185
-0.18
-0.165
-0.175
-0.205
-0.215
-0.205
-0.21
-0.19
-0.185
-0.19
-0.195
-0.2
-0.2
-0.175
-0.17
-0.19
-0.2
-0.195
-0.19
-0.155
-0.16
-0.175
-0.18
-0.185
-0.18
-0.17
-0.19
-0.19
-0.2
-0.2
-0.17
-0.17
-0.19
-0.2
-0.225
-0.22
-0.215
-0.195
-0.2
-0.225
-0.245
-0.245
-0.235
-0.225
-0.225
-0.235
-0.26
-0.255
-0.27
-0.26
-0.28
-0.295
-0.295
-0.29
-0.285
-0.25
-0.255
-0.275
-0.285
-0.285
-0.275
-0.26
-0.275
-0.285
-0.31
-0.315
-0.305
-0.275
-0.27
-0.27
-0.28
-0.27
-0.255
-0.25
-0.255
-0.265
-0.275
-0.3
-0.27
-0.265
-0.255
-0.27
-0.29
-0.29
-0.275
-0.265
-0.26
-0.255
-0.27
-0.28
-0.28
-0.245
-0.24
-0.255
-0.26
-0.27
-0.265
-0.235
-0.245
-0.24
-0.275
-0.265
-0.265
-0.245
-0.245
-0.25
-0.27
-0.25
-0.225
-0.21
-0.21
-0.225
-0.215
-0.22
-0.195
-0.155
-0.14
-0.115
-0.08
0.03
0.295
0.755
1.285
1.535
1.385
1.07
0.885
0.82
0.755
0.665
0.54
0.42
0.33
0.225
0.12
-0.015
-0.145
-0.27
-0.38
-0.49
-0.64
-0.785
-0.93
-1.08
-1.175
-1.27
-1.37
-1.465
-1.53
-1.59
-1.635
-1.675
-1.675
-1.71
-1.705
-1.695
-1.655
-1.6
-1.57
-1.495
-1.415
-1.315
-1.18
-1.04
-0.93
-0.89
-0.865
-0.84
-0.795
-0.72
-0.665
-0.62
-0.575
-0.525
-0.445
-0.375
-0.31
-0.24
-0.2
-0.13
-0.09
-0.05
-0.035
-0.05
-0.03
-0.02
-0.01
0.015
0.02
0.0
0.01
0.005
0.025
0.065
0.08
0.07
0.08
0.08
0.11
0.15
0.155
0.155
0.17
0.16
0.205
0.235
0.245
0.245
0.245
0.265
0.3
0.31
0.33
0.33
0.35
0.36
0.39
0.41
0.44
0.44
0.45
0.47
0.51
0.54
0.535
0.535
0.555
0.56
0.61
0.64
0.66
0.665
0.675
0.695
0.725
0.765
0.785
0.8
0.79
0.805
0.815
0.845
0.825
0.805
0.79
0.78
0.785
0.795
0.77
0.725
0.695
0.66
0.64
0.625
0.58
0.535
0.49
0.445
0.395
0.365
0.33
0.27
0.22
0.185
0.14
0.11
0.08
0.045
0.0
-0.045
-0.06
-0.08
-0.11
-0.15
-0.19
-0.21
-0.21
-0.205
-0.23
-0.255
-0.27
-0.275
-0.265
-0.245
-0.245
-0.25
-0.26
-0.255
-0.235
-0.225
-0.235
-0.235
-0.24
-0.235
-0.24
-0.22
-0.235
-0.245
-0.25
-0.26
-0.25
-0.235
-0.24
-0.25
-0.245
-0.255
-0.265
-0.245
-0.25
-0.26
-0.28
-0.29
-0.275
-0.27
-0.265
-0.295
-0.315
-0.32
-0.305
-0.315
-0.32
-0.34
-0.36
-0.355
-0.35
-0.34
-0.34
-0.365
-0.38
-0.38
-0.36
-0.335
-0.35
-0.37
-0.38
-0.4
-0.39
-0.36
-0.37
-0.375
-0.385
-0.385
-0.355
-0.34
-0.335
-0.35
-0.365
-0.36
-0.355
-0.335
-0.345
-0.355
-0.37
-0.365
-0.345
-0.345
-0.355
-0.355
-0.37
-0.39
-0.37
-0.365
-0.365
-0.375
-0.385
-0.395
-0.37
-0.35
-0.36
-0.385
-0.405
-0.41
-0.405
-0.385
-0.39
-0.405
-0.4
-0.395
-0.37
-0.36
-0.375
-0.375
-0.39
-0.395
-0.375
-0.35
-0.37
-0.36
-0.375
-0.4
-0.37
-0.37
-0.37
-0.38
-0.39
-0.38
-0.36
-0.33
-0.335
-0.325
-0.325
-0.325
-0.3
-0.26
-0.215
-0.16
-0.02
0.265
0.75
1.26
1.49
1.32
1.03
0.81
0.69
0.63
0.545
0.445
0.33
0.2
0.11
0.0
-0.105
-0.23
-0.345
-0.47
-0.585
-0.695
-0.835
-0.995
-1.14
-1.255
-1.32
-1.385
-1.44
-1.525
-1.595
-1.64
-1.665
-1.66
-1.685
-1.685
-1.665
-1.64
-1.6
-1.565
-1.51
-1.425
-1.335
-1.225
-1.105
-1.01
-0.965
-0.96
-0.945
-0.915
-0.855
-0.78
-0.745
-0.695
-0.65
-0.57
-0.5
-0.415
-0.365
-0.33
-0.31
-0.27
-0.21
-0.17
-0.145
-0.125
-0.11
-0.11
-0.075
-0.065
-0.055
-0.045
-0.06
-0.055
-0.035
-0.01
0.0
0.01
-0.005
-0.005
0.005
0.035
0.035
0.035
0.035
0.04
0.07
0.105
0.105
0.105
0.11
0.12
0.15
0.175
0.18
0.19
0.175
0.195
0.22
0.265
0.27
0.265
0.28
0.295
0.32
0.35
0.36
0.38
0.38
0.415
0.445
0.48
0.495
0.515
0.525
0.545
0.575
0.605
0.635
0.65
0.635
0.66
0.665
0.7
0.7
0.685
0.675
0.675
0.68
0.69
0.67
0.65
0.615
0.59
0.575
0.555
0.535
0.475
0.42
0.36
0.33
0.295
0.25
0.21
0.155
0.1
0.08
0.065
0.03
-0.005
-0.045
-0.07
-0.085
-0.09
-0.125
-0.145
-0.175
-0.205
-0.205
-0.19
-0.19
-0.205
-0.225
-0.23
-0.235
-0.225
-0.24
-0.26
-0.275
-0.29
-0.26
-0.245
-0.255
-0.27
-0.275
-0.27
-0.265
-0.26
-0.255
-0.27
-0.27
-0.285
-0.265
-0.27
-0.27
-0.3
-0.31
-0.31
-0.295
-0.29
-0.29
-0.305
-0.31
-0.31
-0.305
-0.295
-0.31
-0.325
-0.335
-0.335
-0.315
-0.31
-0.295
-0.305
-0.325
-0.325
-0.31
-0.3
-0.305
-0.33
-0.35
-0.34
-0.335
-0.305
-0.32
-0.315
-0.33
-0.305
-0.31
-0.295
-0.305
-0.32
-0.335
-0.345
-0.33
-0.31
-0.32
-0.325
-0.35
-0.355
-0.365
-0.34
-0.33
-0.345
-0.355
-0.36
-0.345
-0.335
-0.335
-0.345
-0.37
-0.365
-0.34
-0.33
-0.335
-0.335
-0.345
-0.35
-0.325
-0.34
-0.325
-0.34
-0.355
-0.365
-0.355
-0.355
-0.345
-0.35
-0.35
-0.35
-0.325
-0.31
-0.32
-0.33
-0.35
-0.345
-0.315
-0.3
-0.31
-0.315
-0.33
-0.32
-0.3
-0.285
-0.295
-0.3
-0.305
-0.305
-0.295
-0.255
-0.235
-0.235
-0.195
-0.1
0.14
0.56
1.13
1.485
1.42
1.1
0.85
0.745
0.69
0.59
0.475
0.375
0.275
0.18
0.055
-0.07
-0.215
-0.34
-0.45
-0.55
-0.68
-0.82
-0.965
-1.095
-1.22
-1.305
-1.4
-1.495
-1.565
-1.635
-1.655
-1.655
-1.675
-1.7
-1.705
-1.71
-1.655
-1.625
-1.6
-1.545
-1.495
-1.4
-1.28
-1.15
-1.035
-0.97
-0.92
-0.88
-0.83
-0.78
-0.715
-0.67
-0.62
-0.58
-0.5
-0.435
-0.375
-0.33
-0.285
-0.24
-0.2
-0.18
-0.15
-0.135
-0.13
-0.115
-0.09
-0.055
-0.055
-0.035
-0.04
-0.02
0.005
0.015
0.03
0.03
0.04
0.045
0.05
0.08
0.065
0.065
0.075
0.065
0.09
0.115
0.115
0.1
0.115
0.13
0.155
0.195
0.21
0.21
0.23
0.245
0.29
0.3
0.325
0.325
0.34
0.36
0.395
0.44
0.44
0.46
0.475
0.485
0.52
0.54
0.565
0.57
0.59
0.605
0.645
0.675
0.69
0.69
0.695
0.735
0.75
0.79
0.8
0.805
0.8
0.805
0.8
0.81
0.81
0.81
0.765
0.75
0.735
0.725
0.69
0.645
0.6
0.58
0.55
0.515
0.46
0.41
0.345
0.325
0.3
0.285
0.225
0.175
0.115
0.07
0.04
0.03
-0.005
-0.045
-0.08
-0.115
-0.12
-0.13
-0.15
-0.18
-0.205
-0.225
-0.23
-0.215
-0.225
-0.25
-0.25
-0.26
-0.255
-0.245
-0.26
-0.275
-0.275
-0.27
-0.26
-0.25
-0.25
-0.275
-0.285
-0.295
-0.27
-0.26
-0.27
-0.285
-0.29
-0.29
-0.28
-0.27
-0.265
-0.305
-0.3
-0.295
-0.28
-0.27
-0.27
-0.275
-0.275
-0.28
-0.265
-0.25
-0.27
-0.3
-0.32
-0.32
-0.31
-0.29
-0.295
-0.305
-0.31
-0.315
-0.295
-0.3
-0.3
-0.32
-0.32
-0.315
-0.305
-0.28
-0.3
-0.31
-0.315
-0.32
-0.315
-0.305
-0.31
-0.32
-0.335
-0.33
-0.32
-0.315
-0.33
-0.335
-0.34
-0.325
-0.32
-0.305
-0.315
-0.32
-0.345
-0.345
-0.33
-0.32
-0.31
-0.325
-0.335
-0.33
-0.315
-0.305
-0.31
-0.335
-0.365
-0.36
-0.35
-0.325
-0.33
-0.33
-0.34
-0.345
-0.315
-0.295
-0.3
-0.32
-0.335
-0.325
-0.325
-0.31
-0.305
-0.315
-0.33
-0.32
-0.31
-0.295
-0.3
-0.32
-0.33
-0.33
-0.31
-0.285
-0.29
-0.29
-0.305
-0.305
-0.29
-0.28
-0.27
-0.285
-0.26
-0.245
-0.205
-0.155
-0.09
-0.005
0.16
0.535
1.055
1.505
1.59
1.37
1.08
0.895
0.815
0.76
0.665
0.565
0.455
0.365
0.28
0.195
0.1
-0.015
-0.12
-0.225
-0.345
-0.455
-0.585
-0.73
-0.87
-1.005
-1.14
-1.24
-1.335
-1.405
-1.485
-1.54
-1.585
-1.605
-1.63
-1.655
-1.675
-1.675
-1.65
-1.62
-1.595
-1.57
-1.52
-1.45
-1.36
-1.255
-1.155
-1.055
-0.965
-0.91
-0.855
-0.815
-0.765
-0.725
-0.69
-0.635
-0.585
-0.52
-0.47
-0.44
-0.385
-0.33
-0.265
-0.185
-0.135
-0.105
-0.095
-0.07
-0.045
-0.015
0.01
0.025
0.03
0.035
0.07
0.075
0.095
0.095
0.085
0.1
0.13
0.14
0.155
0.135
0.14
0.145
0.165
0.185
0.195
0.18
0.18
0.19
0.205
0.23
0.23
0.235
0.21
0.245
0.255
0.27
0.275
0.29
0.3
0.32
0.36
0.39
0.415
0.425
0.41
0.435
0.465
0.5
0.52
0.54
0.55
0.565
0.6
0.64
0.66
0.655
0.67
0.695
0.735
0.78
0.805
0.815
0.83
0.85
0.89
0.92
0.935
0.94
0.94
0.945
0.965
0.97
0.95
0.94
0.94
0.925
0.93
0.915
0.895
0.85
0.83
0.81
0.785
0.77
0.705
0.66
0.595
0.55
0.535
0.505
0.465
0.41
0.355
0.295
0.265
0.25
0.21
0.165
0.125
0.075
0.06
0.045
0.01
-0.03
-0.08
-0.08
-0.09
-0.09
-0.115
-0.145
-0.165
-0.17
-0.17
-0.15
-0.165
-0.175
-0.18
-0.2
-0.2
-0.195
-0.195
-0.21
-0.23
-0.23
-0.21
-0.2
-0.2
-0.205
-0.22
-0.255
-0.23
-0.215
-0.215
-0.235
-0.255
-0.255
-0.25
-0.22
-0.245
-0.245
-0.265
-0.28
-0.27
-0.24
-0.245
-0.255
-0.27
-0.26
-0.27
-0.265
-0.25
-0.285
-0.28
-0.285
-0.27
-0.24
-0.245
-0.26
-0.275
-0.29
-0.275
-0.27
-0.26
-0.265
-0.285
-0.29
-0.28
-0.28
-0.28
-0.29
-0.305
-0.3
-0.305
-0.285
-0.28
-0.295
-0.305
-0.285
-0.285
-0.265
-0.275
-0.295
-0.31
-0.305
-0.31
-0.275
-0.28
-0.29
-0.31
-0.315
-0.3
-0.285
-0.285
-0.305
-0.31
-0.315
-0.3
-0.28
-0.285
-0.295
-0.305
-0.32
-0.305
-0.28
-0.285
-0.29
-0.3
-0.305
-0.285
-0.27
-0.28
-0.295
-0.31
-0.315
-0.3
-0.285
-0.275
-0.285
-0.285
-0.31
-0.295
-0.27
-0.27
-0.31
-0.31
-0.3
-0.29
-0.275
-0.275
-0.29
-0.3
-0.3
-0.29
-0.28
-0.285
-0.295
-0.295
-0.31
-0.305
-0.275
-0.28
-0.29
-0.295
-0.315
-0.29
-0.265
-0.27
-0.26
-0.27
-0.27
-0.28
-0.265
-0.245
-0.24
-0.245
-0.22
-0.185
-0.14
-0.08
0.035
0.295
0.76
1.29
1.585
1.495
1.24
1.0
0.875
0.83
0.76
0.675
0.565
0.47
0.365
0.27
0.15
0.045
-0.09
-0.19
-0.31
-0.405
-0.505
-0.625
-0.75
-0.885
-1.01
-1.12
-1.215
-1.31
-1.395
-1.475
-1.545
-1.605
-1.625
-1.65
-1.7
-1.71
-1.73
-1.72
-1.695
-1.675
-1.675
-1.645
-1.61
-1.535
-1.45
-1.36
-1.275
-1.19
-1.075
-0.97
-0.91
-0.9
-0.89
-0.86
-0.835
-0.765
-0.705
-0.645
-0.6
-0.55
-0.49
-0.405
-0.32
-0.255
-0.2
-0.15
-0.11
-0.065
-0.03
0.0
0.01
0.01
0.02
0.06
0.065
0.07
0.07
0.055
0.07
0.085
0.115
0.115
0.11
0.1
0.095
0.11
0.15
0.15
0.17
0.155
0.165
0.195
0.21
0.22
0.21
0.205
0.225
0.25
0.29
0.295
0.305
0.305
0.32
0.32
0.36
0.375
0.385
0.385
0.395
0.44
0.485
0.495
0.52
0.53
0.545
0.585
0.6
0.615
0.64
0.64
0.665
0.705
0.75
0.78
0.775
0.785
0.805
0.83
0.86
0.88
0.885
0.88
0.875
0.9
0.915
0.92
0.91
0.895
0.88
0.875
0.87
0.845
0.81
0.775
0.745
0.74
0.735
0.71
0.64
0.6
0.56
0.55
0.52
0.475
0.44
0.395
0.365
0.35
0.31
0.275
0.215
0.17
0.14
0.12
0.11
0.08
0.065
0.035
0.015
0.005
-0.005
-0.015
-0.045
-0.065
-0.085
-0.08
-0.08
-0.1
-0.13
-0.145
-0.145
-0.145
-0.13
-0.15
-0.155
-0.16
-0.17
-0.16
-0.14
-0.16
-0.175
-0.19
-0.19
-0.18
-0.165
-0.19
-0.195
-0.2
-0.195
-0.21
-0.17
-0.17
-0.19
-0.2
-0.205
-0.19
-0.175
-0.18
-0.17
-0.19
-0.18
-0.175
-0.16
-0.17
-0.18
-0.18
-0.175
-0.16
-0.165
-0.16
-0.18
-0.185
-0.215
-0.215
-0.2
-0.21
-0.215
-0.225
-0.225
-0.23
-0.205
-0.215
-0.225
-0.245
-0.24
-0.22
-0.225
-0.22
-0.24
-0.27
-0.285
-0.265
-0.26
-0.26
-0.26
-0.275
-0.265
-0.255
-0.25
-0.245
-0.26
-0.265
-0.26
-0.27
-0.245
-0.245
-0.25
-0.26
-0.25
-0.235
-0.215
-0.21
-0.225
-0.23
-0.23
-0.215
-0.205
-0.2
-0.215
-0.225
-0.205
-0.19
-0.18
-0.19
-0.225
-0.235
-0.235
-0.215
-0.215
-0.215
-0.23
-0.255
-0.255
-0.235
-0.23
-0.23
-0.235
-0.245
-0.255
-0.26
-0.24
-0.24
-0.24
-0.27
-0.26
-0.245
-0.23
-0.225
-0.25
-0.255
-0.255
-0.26
-0.215
-0.23
-0.23
-0.23
-0.205
-0.195
-0.17
-0.17
-0.16
-0.165
-0.1
-0.025
0.14
0.43
0.89
1.375
1.605
1.52
1.265
1.045
0.92
0.85
0.775
0.675
0.6
0.495
0.39
0.265
0.155
0.035
-0.06
-0.165
-0.305
-0.41
-0.52
-0.645
-0.735
-0.875
-1.015
-1.15
-1.265
-1.325
-1.37
-1.455
-1.525
-1.59
-1.63
-1.65
-1.65
-1.66
-1.66
-1.655
-1.645
-1.6
-1.555
-1.5
-1.45
-1.37
-1.265
-1.135
-1.005
-0.905
-0.845
-0.82
-0.79
-0.725
-0.655
-0.595
-0.54
-0.49
-0.435
-0.365
-0.28
-0.22
-0.17
-0.13
-0.09
-0.015
0.025
0.045
0.045
0.055
0.075
0.11
0.125
0.14
0.14
0.145
0.145
0.175
0.205
0.19
0.175
0.175
0.175
0.19
0.235
0.22
0.24
0.23
0.235
0.26
0.285
0.305
0.29
0.28
0.3
0.315
0.35
0.38
0.385
0.39
0.4
0.43
0.45
0.465
0.465
0.475
0.49
0.535
0.565
0.6
0.605
0.625
0.655
0.705
0.725
0.75
0.765
0.79
0.8
0.85
0.88
0.89
0.895
0.905
0.92
0.94
0.98
0.985
0.985
0.98
0.985
1.0
1.01
1.02
0.99
0.975
0.965
0.96
0.95
0.92
0.89
0.855
0.825
0.795
0.79
0.735
0.675
0.62
0.575
0.535
0.5
0.46
0.42
0.35
0.325
0.285
0.265
0.23
0.185
0.15
0.12
0.105
0.09
0.07
0.035
0.005
-0.015
-0.01
-0.02
-0.025
-0.06
-0.075
-0.09
-0.08
-0.075
-0.07
-0.1
-0.095
-0.09
-0.08
-0.07
-0.07
-0.08
-0.085
-0.07
-0.065
-0.07
-0.075
-0.095
-0.09
-0.085
-0.08
-0.07
-0.07
-0.1
-0.105
-0.1
-0.095
-0.085
-0.095
-0.1
-0.12
-0.11
-0.095
-0.085
-0.085
-0.11
-0.115
-0.105
-0.1
-0.09
-0.095
-0.12
-0.13
-0.105
-0.12
-0.1
-0.105
-0.135
-0.17
-0.165
-0.145
-0.125
-0.11
-0.13
-0.125
-0.13
-0.125
-0.11
-0.115
-0.125
-0.14
-0.13
-0.125
-0.1
-0.1
-0.115
-0.125
-0.13
-0.12
-0.13
-0.135
-0.14
-0.145
-0.145
-0.125
-0.125
-0.13
-0.13
-0.125
-0.13
-0.12
-0.115
-0.13
-0.14
-0.145
-0.14
-0.13
-0.115
-0.11
-0.125
-0.14
-0.15
-0.15
-0.135
-0.145
-0.15
-0.18
-0.175
-0.165
-0.145
-0.145
-0.16
-0.145
-0.145
-0.125
-0.11
-0.1
-0.135
-0.125
-0.115
-0.11
-0.075
-0.08
-0.1
-0.14
-0.115
-0.095
-0.095
-0.08
-0.09
-0.11
-0.105
-0.08
-0.055
-0.035
-0.02
-0.005
0.05
0.2
0.465
0.91
1.415
1.655
1.515
1.255
1.075
0.99
0.925
0.84
0.73
0.63
0.54
0.46
0.325
0.19
0.07
-0.04
-0.155
-0.28
-0.41
-0.515
-0.625
-0.735
-0.845
-0.97
-1.095
-1.2
-1.275
-1.345
-1.4
-1.465
-1.52
-1.55
-1.575
-1.58
-1.575
-1.555
-1.54
-1.52
-1.48
-1.41
-1.305
-1.215
-1.11
-1.02
-0.895
-0.785
-0.72
-0.695
-0.69
-0.67
-0.62
-0.55
-0.48
-0.41
-0.355
-0.31
-0.245
-0.175
-0.11
-0.085
-0.04
0.005
0.045
0.08
0.12
0.135
0.13
0.14
0.16
0.17
0.19
0.18
0.175
0.175
0.175
0.205
0.245
0.255
0.235
0.24
0.245
0.26
0.285
0.285
0.28
0.29
0.31
0.335
0.365
0.385
0.38
0.39
0.41
0.44
0.465
0.455
0.46
0.44
0.43
0.465
0.515
0.53
0.55
0.555
0.56
0.595
0.64
0.665
0.675
0.655
0.67
0.72
0.755
0.765
0.775
0.775
0.8
0.845
0.875
0.905
0.895
0.91
0.93
0.945
0.99
1.0
0.995
0.99
1.0
1.005
1.02
1.015
1.005
1.01
1.0
1.0
0.995
0.97
0.94
0.915
0.88
0.86
0.845
0.8
0.77
0.715
0.685
0.655
0.615
0.565
0.515
0.47
0.425
0.39
0.36
0.315
0.29
0.24
0.21
0.18
0.145
0.13
0.1
0.075
0.065
0.055
0.065
0.055
0.025
-0.005
-0.015
-0.02
-0.03
-0.045
-0.065
-0.075
-0.08
-0.075
-0.05
-0.055
-0.085
-0.09
-0.08
-0.06
-0.05
-0.045
-0.06
-0.07
-0.08
-0.055
-0.045
-0.055
-0.06
-0.065
-0.07
-0.055
-0.035
-0.045
-0.055
-0.075
-0.075
-0.075
-0.075
-0.07
-0.07
-0.085
-0.075
-0.07
-0.055
-0.06
-0.065
-0.08
-0.08
-0.09
-0.08
-0.075
-0.1
-0.115
-0.105
-0.085
-0.085
-0.095
-0.115
-0.11
-0.11
-0.095
-0.09
-0.11
-0.13
-0.155
-0.15
-0.145
-0.13
-0.15
-0.15
-0.15
-0.125
-0.115
-0.105
-0.11
-0.115
-0.125
-0.12
-0.1
-0.08
-0.08
-0.1
-0.1
-0.1
-0.095
-0.095
-0.105
-0.12
-0.14
-0.14
-0.125
-0.09
-0.11
-0.115
-0.13
-0.105
-0.115
-0.095
-0.1
-0.115
-0.135
-0.15
-0.15
-0.115
-0.105
-0.105
-0.12
-0.11
-0.11
-0.095
-0.105
-0.115
-0.135
-0.145
-0.13
-0.115
-0.115
-0.12
-0.12
-0.12
-0.11
-0.11
-0.11
-0.125
-0.125
-0.095
-0.065
-0.04
-0.04
-0.015
-0.015
0.005
0.095
0.225
0.49
0.93
1.43
1.655
1.52
1.28
1.085
0.99
0.92
0.83
0.74
0.675
0.57
0.465
0.345
0.225
0.105
0.0
-0.12
-0.26
-0.395
-0.53
-0.635
-0.745
-0.91
-1.06
-1.16
-1.265
-1.355
-1.405
-1.48
-1.55
-1.615
-1.615
-1.62
-1.615
-1.59
-1.585
-1.56
-1.515
-1.465
-1.375
-1.285
-1.18
-1.075
-0.95
-0.83
-0.755
-0.72
-0.705
-0.675
-0.615
-0.535
-0.47
-0.41
-0.37
-0.305
-0.245
-0.165
-0.09
-0.025
0.005
0.04
0.075
0.115
0.145
0.16
0.17
0.18
0.185
0.205
0.24
0.255
0.245
0.24
0.25
0.275
0.305
0.305
0.325
0.33
0.34
0.36
0.37
0.37
0.37
0.375
0.385
0.395
0.425
0.42
0.43
0.44
0.445
0.465
0.485
0.495
0.495
0.495
0.525
0.555
0.59
0.595
0.59
0.59
0.62
0.65
0.685
0.695
0.715
0.725
0.745
0.76
0.815
0.83
0.825
0.85
0.865
0.89
0.92
0.925
0.935
0.925
0.945
0.975
1.005
1.015
1.01
0.965
0.99
0.98
0.995
0.98
0.945
0.93
0.92
0.9
0.895
0.84
0.82
0.76
0.73
0.69
0.665
0.61
0.56
0.515
0.475
0.45
0.43
0.365
0.315
0.255
0.23
0.18
0.17
0.14
0.095
0.055
0.035
0.015
0.02
0.01
-0.01
-0.025
-0.02
-0.03
-0.01
-0.02
-0.04
-0.065
-0.055
-0.05
-0.035
-0.035
-0.04
-0.04
-0.055
-0.055
-0.07
-0.075
-0.085
-0.09
-0.085
-0.085
-0.055
-0.055
-0.07
-0.085
-0.065
-0.06
-0.045
-0.05
-0.08
-0.085
-0.095
-0.095
-0.09
-0.11
-0.095
-0.11
-0.11
-0.085
-0.095
-0.1
-0.115
-0.15
-0.15
-0.155
-0.135
-0.135
-0.15
-0.16
-0.18
-0.165
-0.145
-0.145
-0.155
-0.155
-0.145
-0.14
-0.13
-0.145
-0.17
-0.185
-0.19
-0.2
-0.18
-0.175
-0.17
-0.185
-0.18
-0.16
-0.14
-0.14
-0.15
-0.165
-0.155
-0.155
-0.14
-0.155
-0.16
-0.165
-0.18
-0.165
-0.165
-0.155
-0.17
-0.18
-0.18
-0.165
-0.155
-0.17
-0.195
-0.2
-0.2
-0.185
-0.165
-0.155
-0.16
-0.18
-0.19
-0.185
-0.165
-0.16
-0.17
-0.185
-0.2
-0.19
-0.17
-0.16
-0.19
-0.19
-0.195
-0.18
-0.175
-0.15
-0.17
-0.17
-0.17
-0.16
-0.135
-0.14
-0.13
-0.14
-0.12
-0.09
-0.04
-0.005
0.11
0.34
0.79
1.32
1.59
1.455
1.16
0.93
0.845
0.8
0.72
0.62
0.5
0.375
0.24
0.11
0.0
-0.13
-0.275
-0.41
-0.545
-0.67
-0.775
-0.96
-1.095
-1.24
-1.345
-1.435
-1.485
-1.56
-1.635
-1.69
-1.715
-1.7
-1.675
-1.66
-1.63
-1.605
-1.555
-1.465
-1.345
-1.24
-1.12
-1.0
-0.895
-0.82
-0.77
-0.725
-0.68
-0.64
-0.585
-0.525
-0.45
-0.39
-0.335
-0.3
-0.205
-0.14
-0.07
-0.035
-0.025
-0.005
0.015
0.05
0.07
0.08
0.075
0.08
0.09
0.1
0.13
0.125
0.125
0.125
0.14
0.175
0.19
0.185
0.185
0.19
0.2
0.21
0.24
0.255
0.245
0.235
0.245
0.255
0.305
0.31
0.315
0.345
0.375
0.395
0.435
0.435
0.435
0.43
0.445
0.475
0.51
0.53
0.55
0.57
0.585
0.635
0.67
0.68
0.705
0.715
0.74
0.77
0.81
0.8
0.82
0.83
0.835
0.86
0.885
0.89
0.88
0.865
0.86
0.86
0.875
0.855
0.825
0.795
0.765
0.75
0.735
0.685
0.615
0.575
0.54
0.52
0.49
0.445
0.385
0.325
0.27
0.235
0.195
0.14
0.08
0.045
0.02
-0.015
-0.02
-0.075
-0.12
-0.15
-0.165
-0.16
-0.165
-0.185
-0.21
-0.225
-0.235
-0.225
-0.225
-0.245
-0.25
-0.275
-0.27
-0.26
-0.245
-0.26
-0.26
-0.28
-0.285
-0.275
-0.255
-0.265
-0.28
-0.285
-0.295
-0.295
-0.265
-0.245
-0.26
-0.275
-0.28
-0.29
-0.285
-0.295
-0.295
-0.3
-0.32
-0.3
-0.285
-0.3
-0.315
-0.33
-0.32
-0.315
-0.315
-0.315
-0.325
-0.355
-0.345
-0.335
-0.35
-0.36
-0.38
-0.385
-0.38
-0.365
-0.36
-0.375
-0.4
-0.41
-0.415
-0.415
-0.405
-0.4
-0.395
-0.42
-0.395
-0.38
-0.38
-0.38
-0.39
-0.4
-0.39
-0.395
-0.375
-0.38
-0.38
-0.395
-0.395
-0.385
-0.37
-0.38
-0.405
-0.43
-0.4
-0.385
-0.36
-0.375
-0.385
-0.415
-0.415
-0.42
-0.415
-0.415
-0.425
-0.435
-0.435
-0.43
-0.415
-0.42
-0.43
-0.445
-0.45
-0.455
-0.445
-0.45
-0.46
-0.475
-0.485
-0.46
-0.455
-0.46
-0.45
-0.455
-0.46
-0.44
-0.42
-0.425
-0.44
-0.46
-0.46
-0.445
-0.42
-0.425
-0.435
-0.445
-0.44
-0.44
-0.41
-0.415
-0.425
-0.435
-0.435
-0.4
-0.365
-0.36
-0.345
-0.32
-0.2
0.05
0.465
0.97
1.325
1.305
1.06
0.815
0.685
0.605
0.53
0.435
0.325
0.23
0.14
0.025
-0.11
-0.24
-0.36
-0.465
-0.58
-0.7
-0.84
-0.965
-1.105
-1.23
-1.345
-1.465
-1.565
-1.65
-1.73
-1.77
-1.815
-1.87
-1.92
-1.94
-1.95
-1.925
-1.905
-1.875
-1.885
-1.84
-1.78
-1.69
-1.58
-1.485
-1.375
-1.26
-1.17
-1.1
-1.04
-1.015
-0.98
-0.94
-0.9
-0.84
-0.75
-0.695
-0.635
-0.585
-0.52
-0.48
-0.42
-0.365
-0.345
-0.335
-0.32
-0.295
-0.265
-0.235
-0.235
-0.23
-0.19
-0.18
-0.165
-0.165
-0.16
-0.165
-0.15
-0.125
-0.1
-0.105
-0.115
-0.11
-0.085
-0.085
-0.065
-0.045
-0.06
-0.05
-0.04
-0.015
0.01
0.035
0.03
0.02
0.04
0.07
0.105
0.12
0.12
0.135
0.15
0.175
0.21
0.215
0.21
0.215
0.245
0.28
0.325
0.335
0.365
0.375
0.41
0.43
0.475
0.5
0.505
0.535
0.565
0.58
0.63
0.64
0.645
0.665
0.69
0.705
0.715
0.72
0.715
0.705
0.695
0.72
0.72
0.715
0.67
0.635
0.605
0.585
0.565
0.54
0.5
0.44
0.39
0.35
0.315
0.265
0.2
0.15
0.11
0.08
0.05
-0.005
-0.055
-0.115
-0.155
-0.165
-0.19
-0.25
-0.29
-0.335
-0.345
-0.365
-0.35
-0.36
-0.37
-0.38
-0.4
-0.395
-0.4
-0.395
-0.43
-0.435
-0.42
-0.415
-0.41
-0.42
-0.425
-0.435
-0.43
-0.42
-0.415
-0.42
-0.42
-0.42
-0.43
-0.42
-0.42
-0.425
-0.43
-0.445
-0.43
-0.41
-0.39
-0.4
-0.41
-0.41
-0.425
-0.43
-0.42
-0.43
-0.43
-0.44
-0.445
-0.425
-0.42
-0.445
-0.475
-0.49
-0.49
-0.475
-0.47
-0.46
-0.47
-0.5
-0.495
-0.485
-0.465
-0.47
-0.49
-0.485
-0.48
-0.465
-0.455
-0.455
-0.47
-0.5
-0.48
-0.465
-0.465
-0.46
-0.48
-0.49
-0.485
-0.485
-0.495
-0.495
-0.485
-0.49
-0.5
-0.485
-0.485
-0.495
-0.505
-0.505
-0.49
-0.49
-0.47
-0.475
-0.475
-0.495
-0.505
-0.49
-0.49
-0.495
-0.525
-0.535
-0.535
-0.525
-0.515
-0.525
-0.53
-0.535
-0.54
-0.525
-0.52
-0.525
-0.52
-0.535
-0.525
-0.51
-0.49
-0.49
-0.5
-0.51
-0.51
-0.495
-0.495
-0.48
-0.51
-0.505
-0.5
-0.505
-0.495
-0.51
-0.5
-0.495
-0.495
-0.48
-0.48
-0.495
-0.51
-0.51
-0.505
-0.48
-0.475
-0.455
-0.45
-0.44
-0.44
-0.415
-0.375
-0.325
-0.255
-0.075
0.3
0.825
1.245
1.31
1.075
0.82
0.665
0.595
0.545
0.465
0.355
0.255
0.155
0.07
-0.015
-0.125
-0.245
-0.355
-0.435
-0.53
-0.61
-0.725
-0.855
-0.99
-1.105
-1.225
-1.33
-1.42
-1.505
-1.59
-1.645
-1.69
-1.715
-1.755
-1.78
-1.81
-1.82
-1.815
-1.775
-1.765
-1.775
-1.765
-1.73
-1.68
-1.61
-1.55
-1.46
-1.37
-1.29
-1.185
-1.13
-1.125
-1.085
-1.085
-1.03
-0.935
-0.87
-0.815
-0.785
-0.74
-0.675
-0.605
-0.535
-0.485
-0.475
-0.435
-0.4
-0.36
-0.315
-0.3
-0.28
-0.27
-0.245
-0.215
-0.195
-0.175
-0.175
-0.195
-0.165
-0.145
-0.15
-0.13
-0.14
-0.13
-0.115
-0.1
