Lead II
-0.76
-0.75
-0.715
-0.71
-0.69
-0.68
-0.69
-0.69
-0.685
-0.685
-0.675
-0.66
-0.65
-0.65
-0.635
-0.64
-0.64
-0.645
-0.65
-0.65
-0.645
-0.66
-0.645
-0.645
-0.645
-0.64
-0.63
-0.62
-0.61
-0.615
-0.62
-0.625
-0.63
-0.63
-0.635
-0.625
-0.63
-0.625
-0.615
-0.61
-0.595
-0.585
-0.59
-0.605
-0.605
-0.605
-0.62
-0.61
-0.61
-0.62
-0.61
-0.59
-0.59
-0.595
-0.595
-0.605
-0.61
-0.61
-0.615
-0.61
-0.61
-0.605
-0.585
-0.585
-0.595
-0.595
-0.605
-0.62
-0.61
-0.625
-0.62
-0.615
-0.615
-0.61
-0.61
-0.615
-0.62
-0.63
-0.625
-0.64
-0.65
-0.655
-0.65
-0.65
-0.64
-0.64
-0.635
-0.625
-0.625
-0.62
-0.625
-0.615
-0.62
-0.625
-0.615
-0.605
-0.61
-0.6
-0.605
-0.6
-0.595
-0.595
-0.595
-0.585
-0.6
-0.6
-0.59
-0.58
-0.58
-0.575
-0.565
-0.56
-0.57
-0.57
-0.57
-0.58
-0.585
-0.59
-0.59
-0.59
-0.58
-0.585
-0.59
-0.59
-0.59
-0.59
-0.595
-0.6
-0.605
-0.61
-0.605
-0.605
-0.6
-0.595
-0.585
-0.58
-0.58
-0.6
-0.62
-0.62
-0.615
-0.625
-0.625
-0.62
-0.625
-0.625
-0.6
-0.595
-0.6
-0.59
-0.6
-0.61
-0.61
-0.605
-0.615
-0.6
-0.595
-0.59
-0.58
-0.585
-0.59
-0.59
-0.605
-0.605
-0.61
-0.62
-0.63
-0.62
-0.605
-0.595
-0.595
-0.585
-0.58
-0.595
-0.6
-0.605
-0.605
-0.62
-0.61
-0.61
-0.61
-0.6
-0.595
-0.59
-0.61
-0.605
-0.62
-0.625
-0.635
-0.645
-0.645
-0.64
-0.63
-0.635
-0.615
-0.615
-0.615
-0.605
-0.63
-0.625
-0.625
-0.63
-0.635
-0.62
-0.595
-0.595
-0.58
-0.57
-0.57
-0.56
-0.565
-0.575
-0.565
-0.555
-0.54
-0.53
-0.53
-0.535
-0.535
-0.565
-0.58
-0.59
-0.55
-0.46
-0.315
-0.13
0.085
0.355
0.64
0.925
1.18
1.38
1.505
1.55
1.525
1.45
1.31
1.07
0.735
0.315
-0.13
-0.475
-0.67
-0.755
-0.755
-0.715
-0.69
-0.665
-0.675
-0.69
-0.725
-0.745
-0.77
-0.78
-0.77
-0.77
-0.78
-0.79
-0.805
-0.82
-0.855
-0.85
-0.855
-0.84
-0.82
-0.83
-0.825
-0.82
-0.825
-0.825
-0.825
-0.845
-0.845
-0.855
-0.845
-0.845
-0.825
-0.825
-0.825
-0.82
-0.81
-0.82
-0.84
-0.82
-0.84
-0.855
-0.86
-0.86
-0.865
-0.87
-0.865
-0.86
-0.875
-0.885
-0.89
-0.9
-0.91
-0.91
-0.92
-0.925
-0.915
-0.935
-0.93
-0.93
-0.945
-0.96
-0.98
-1.005
-1.025
-1.035
-1.04
-1.055
-1.06
-1.075
-1.09
-1.095
-1.11
-1.13
-1.15
-1.165
-1.175
-1.2
-1.2
-1.21
-1.21
-1.225
-1.24
-1.255
-1.265
-1.27
-1.29
-1.305
-1.32
-1.315
-1.315
-1.315
-1.305
-1.29
-1.265
-1.235
-1.215
-1.2
-1.175
-1.155
-1.125
-1.1
-1.065
-1.015
-0.985
-0.96
-0.92
-0.885
-0.86
-0.84
-0.825
-0.8
-0.79
-0.775
-0.76
-0.745
-0.73
-0.705
-0.705
-0.675
-0.68
-0.67
-0.66
-0.665
-0.67
-0.675
-0.665
-0.665
-0.665
-0.66
-0.65
-0.65
-0.65
-0.655
-0.67
-0.66
-0.675
-0.675
-0.685
-0.675
-0.66
-0.66
-0.65
-0.645
-0.65
-0.63
-0.635
-0.64
-0.665
-0.66
-0.655
-0.655
-0.66
-0.65
-0.64
-0.65
-0.645
-0.665
-0.67
-0.67
-0.675
-0.665
-0.66
-0.65
-0.645
-0.62
-0.63
-0.625
-0.61
-0.61
-0.625
-0.62
-0.625
-0.625
-0.625
-0.615
-0.615
-0.615
-0.6
-0.595
-0.59
-0.585
-0.605
-0.6
-0.605
-0.605
-0.61
-0.61
-0.62
-0.6
-0.605
-0.605
-0.615
-0.63
-0.64
-0.645
-0.665
-0.66
-0.65
-0.66
-0.655
-0.64
-0.64
-0.625
-0.635
-0.635
-0.645
-0.65
-0.645
-0.66
-0.665
-0.66
-0.66
-0.66
-0.65
-0.65
-0.66
-0.66
-0.665
-0.685
-0.675
-0.68
-0.675
-0.67
-0.655
-0.65
-0.65
-0.635
-0.64
-0.655
-0.665
-0.655
-0.665
-0.66
-0.66
-0.665
-0.655
-0.64
-0.635
-0.635
-0.64
-0.625
-0.645
-0.655
-0.655
-0.645
-0.645
-0.645
-0.65
-0.66
-0.66
-0.66
-0.67
-0.69
-0.705
-0.69
-0.705
-0.695
-0.675
-0.675
-0.655
-0.635
-0.625
-0.615
-0.635
-0.64
-0.65
-0.655
-0.67
-0.665
-0.67
-0.66
-0.66
-0.66
-0.65
-0.65
-0.635
-0.64
-0.65
-0.655
-0.655
-0.655
-0.665
-0.66
-0.66
-0.65
-0.64
-0.66
-0.655
-0.655
-0.66
-0.66
-0.665
-0.66
-0.655
-0.655
-0.64
-0.63
-0.635
-0.63
-0.635
-0.635
-0.65
-0.665
-0.675
-0.68
-0.675
-0.665
-0.65
-0.65
-0.64
-0.655
-0.655
-0.66
-0.665
-0.665
-0.665
-0.665
-0.66
-0.645
-0.63
-0.63
-0.625
-0.625
-0.62
-0.63
-0.625
-0.64
-0.635
-0.63
-0.625
-0.62
-0.62
-0.62
-0.64
-0.645
-0.67
-0.68
-0.665
-0.605
-0.485
-0.305
-0.08
0.185
0.475
0.78
1.065
1.31
1.48
1.57
1.58
1.55
1.46
1.285
1.005
0.575
0.06
-0.41
-0.725
-0.86
-0.865
-0.815
-0.73
-0.675
-0.66
-0.67
-0.695
-0.725
-0.74
-0.74
-0.745
-0.73
-0.735
-0.73
-0.735
-0.74
-0.75
-0.755
-0.76
-0.76
-0.775
-0.76
-0.76
-0.76
-0.78
-0.775
-0.79
-0.8
-0.815
-0.825
-0.83
-0.835
-0.83
-0.835
-0.825
-0.825
-0.82
-0.835
-0.86
-0.87
-0.87
-0.87
-0.87
-0.87
-0.865
-0.855
-0.85
-0.85
-0.85
-0.87
-0.875
-0.88
-0.89
-0.91
-0.905
-0.915
-0.93
-0.935
-0.925
-0.93
-0.935
-0.955
-0.955
-0.97
-0.98
-0.995
-0.995
-1.01
-1.01
-1.03
-1.035
-1.035
-1.045
-1.065
-1.085
-1.1
-1.135
-1.145
-1.16
-1.18
-1.19
-1.205
-1.225
-1.25
-1.27
-1.275
-1.305
-1.32
-1.335
-1.345
-1.345
-1.34
-1.33
-1.31
-1.285
-1.26
-1.245
-1.22
-1.2
-1.175
-1.13
-1.095
-1.055
-1.015
-0.975
-0.945
-0.905
-0.88
-0.85
-0.835
-0.825
-0.825
-0.81
-0.8
-0.785
-0.76
-0.745
-0.71
-0.69
-0.675
-0.68
-0.665
-0.655
-0.655
-0.66
-0.665
-0.65
-0.645
-0.64
-0.625
-0.625
-0.605
-0.6
-0.61
-0.61
-0.63
-0.62
-0.64
-0.65
-0.665
-0.65
-0.655
-0.655
-0.65
-0.65
-0.665
-0.675
-0.69
-0.695
-0.705
-0.705
-0.705
-0.69
-0.69
-0.69
-0.685
-0.69
-0.69
-0.705
-0.715
-0.715
-0.72
-0.7
-0.705
-0.69
-0.685
-0.67
-0.675
-0.665
-0.665
-0.66
-0.66
-0.66
-0.66
-0.65
-0.64
-0.66
-0.635
-0.625
-0.605
-0.605
-0.61
-0.615
-0.63
-0.63
-0.62
-0.64
-0.645
-0.635
-0.635
-0.63
-0.625
-0.635
-0.655
-0.65
-0.665
-0.67
-0.675
-0.68
-0.685
-0.67
-0.67
-0.665
-0.67
-0.675
-0.675
-0.68
-0.665
-0.69
-0.685
-0.685
-0.675
-0.675
-0.67
-0.655
-0.62
-0.595
-0.565
-0.545
-0.515
-0.49
-0.45
-0.4
-0.345
-0.275
-0.195
-0.13
-0.065
-0.02
0.02
0.05
0.1
0.195
0.335
0.53
0.76
1.005
1.25
1.46
1.62
1.705
1.725
1.71
1.655
1.58
1.46
1.24
0.855
0.35
-0.16
-0.55
-0.77
-0.85
-0.84
-0.795
-0.75
-0.745
-0.78
-0.82
-0.865
-0.895
-0.92
-0.935
-0.95
-0.965
-0.98
-1.0
-1.02
-1.04
-1.05
-1.065
-1.075
-1.08
-1.085
-1.085
-1.065
-1.07
-1.07
-1.065
-1.065
-1.07
-1.075
-1.085
-1.085
-1.095
-1.095
-1.1
-1.105
-1.12
-1.14
-1.15
-1.155
-1.165
-1.175
-1.18
-1.195
-1.205
-1.215
-1.215
-1.225
-1.25
-1.26
-1.28
-1.305
-1.325
-1.35
-1.365
-1.375
-1.395
-1.405
-1.42
-1.445
-1.47
-1.5
-1.53
-1.56
-1.59
-1.63
-1.63
-1.66
-1.69
-1.715
-1.725
-1.74
-1.77
-1.785
-1.81
-1.825
-1.835
-1.85
-1.87
-1.875
-1.86
-1.835
-1.825
-1.805
-1.785
-1.765
-1.73
-1.72
-1.68
-1.65
-1.605
-1.55
-1.5
-1.45
-1.39
-1.32
-1.265
-1.205
-1.16
-1.115
-1.065
-1.035
-1.0
-0.965
-0.935
-0.905
-0.87
-0.84
-0.84
-0.83
-0.815
-0.785
-0.775
-0.77
-0.76
-0.765
-0.74
-0.735
-0.72
-0.705
-0.725
-0.725
-0.725
-0.73
-0.73
-0.73
-0.73
-0.725
-0.73
-0.73
-0.73
-0.72
-0.735
-0.745
-0.75
-0.775
-0.775
-0.795
-0.79
-0.785
-0.76
-0.75
-0.735
-0.72
-0.73
-0.72
-0.725
-0.73
-0.725
-0.73
-0.715
-0.715
-0.705
-0.705
-0.705
-0.69
-0.705
-0.695
-0.705
-0.71
-0.715
-0.715
-0.715
-0.695
-0.69
-0.68
-0.67
-0.66
-0.67
-0.665
-0.665
-0.675
-0.7
-0.71
-0.71
-0.7
-0.695
-0.69
-0.68
-0.675
-0.675
-0.685
-0.68
-0.695
-0.705
-0.7
-0.715
-0.72
-0.71
-0.7
-0.695
-0.685
-0.695
-0.685
-0.685
-0.705
-0.71
-0.71
-0.71
-0.71
-0.715
-0.715
-0.705
-0.695
-0.7
-0.7
-0.7
-0.71
-0.715
-0.73
-0.715
-0.73
-0.72
-0.72
-0.705
-0.695
-0.68
-0.67
-0.675
-0.68
-0.685
-0.68
-0.675
-0.69
-0.68
-0.675
-0.665
-0.655
-0.65
-0.645
-0.635
-0.635
-0.655
-0.635
-0.64
-0.64
-0.63
-0.635
-0.625
-0.64
-0.63
-0.635
-0.635
-0.645
-0.655
-0.66
-0.66
-0.67
-0.665
-0.65
-0.655
-0.64
-0.645
-0.645
-0.65
-0.66
-0.67
-0.675
-0.69
-0.66
-0.665
-0.655
-0.64
-0.645
-0.64
-0.645
-0.67
-0.685
-0.69
-0.685
-0.68
-0.69
-0.675
-0.68
-0.665
-0.66
-0.66
-0.665
-0.675
-0.675
-0.68
-0.685
-0.68
-0.68
-0.66
-0.655
-0.645
-0.62
-0.605
-0.605
-0.62
-0.62
-0.64
-0.64
-0.65
-0.645
-0.645
-0.645
-0.645
-0.635
-0.625
-0.55
-0.435
-0.27
-0.08
0.185
0.48
0.76
1.03
1.26
1.41
1.495
1.5
1.44
1.35
1.185
0.925
0.545
0.11
-0.31
-0.61
-0.75
-0.775
-0.75
-0.7
-0.665
-0.65
-0.65
-0.675
-0.705
-0.73
-0.755
-0.755
-0.76
-0.75
-0.735
-0.74
-0.755
-0.77
-0.785
-0.805
-0.81
-0.81
-0.815
-0.82
-0.82
-0.815
-0.825
-0.825
-0.83
-0.835
-0.85
-0.865
-0.88
-0.88
-0.885
-0.895
-0.885
-0.885
-0.87
-0.875
-0.875
-0.895
-0.89
-0.89
-0.885
-0.885
-0.885
-0.87
-0.87
-0.89
-0.88
-0.875
-0.885
-0.895
-0.89
-0.905
-0.91
-0.92
-0.93
-0.925
-0.92
-0.935
-0.94
-0.945
-0.94
-0.96
-0.975
-1.0
-1.015
-1.04
-1.05
-1.06
-1.065
-1.065
-1.085
-1.085
-1.085
-1.105
-1.13
-1.145
-1.16
-1.18
-1.19
-1.195
-1.21
-1.215
-1.215
-1.225
-1.235
-1.245
-1.255
-1.26
-1.26
-1.25
-1.24
-1.215
-1.2
-1.165
-1.145
-1.12
-1.085
-1.065
-1.045
-1.015
-0.995
-0.965
-0.925
-0.89
-0.845
-0.81
-0.785
-0.755
-0.735
-0.725
-0.715
-0.695
-0.685
-0.675
-0.675
-0.66
-0.66
-0.655
-0.65
-0.65
-0.655
-0.67
-0.675
-0.69
-0.69
-0.68
-0.675
-0.675
-0.665
-0.67
-0.655
-0.66
-0.66
-0.67
-0.68
-0.685
-0.69
-0.685
-0.68
-0.675
-0.68
-0.665
-0.655
-0.655
-0.65
-0.655
-0.67
-0.665
-0.655
-0.655
-0.645
-0.64
-0.625
-0.625
-0.63
-0.635
-0.645
-0.645
-0.65
-0.665
-0.675
-0.695
-0.66
-0.64
-0.615
-0.615
-0.595
-0.595
-0.59
-0.585
-0.58
-0.58
-0.58
-0.57
-0.57
-0.57
-0.56
-0.565
-0.555
-0.565
-0.565
-0.57
-0.575
-0.585
-0.6
-0.605
-0.615
-0.605
-0.595
-0.6
-0.585
-0.585
-0.595
-0.595
-0.605
-0.61
-0.63
-0.65
-0.64
-0.635
-0.625
-0.625
-0.625
-0.625
-0.625
-0.645
-0.64
-0.665
-0.67
-0.675
-0.69
-0.695
-0.715
-0.725
-0.725
-0.715
-0.715
-0.71
-0.715
-0.705
-0.71
-0.705
-0.7
-0.69
-0.68
-0.67
-0.665
-0.665
-0.67
-0.665
-0.665
-0.67
-0.655
-0.65
-0.65
-0.645
-0.63
-0.625
-0.62
-0.635
-0.62
-0.625
-0.625
-0.635
-0.635
-0.63
-0.63
-0.615
-0.61
-0.61
-0.595
-0.605
-0.615
-0.63
-0.655
-0.66
-0.64
-0.58
-0.465
-0.295
-0.09
0.15
0.395
0.66
0.925
1.145
1.305
1.39
1.405
1.35
1.23
1.065
0.78
0.39
-0.045
-0.44
-0.7
-0.83
-0.855
-0.82
-0.775
-0.74
-0.735
-0.71
-0.72
-0.725
-0.74
-0.74
-0.74
-0.735
-0.745
-0.75
-0.76
-0.765
-0.77
-0.77
-0.76
-0.775
-0.775
-0.785
-0.79
-0.8
-0.815
-0.81
-0.82
-0.835
-0.845
-0.85
-0.82
-0.8
-0.8
-0.8
-0.805
-0.81
-0.82
-0.835
-0.83
-0.835
-0.84
-0.835
-0.825
-0.835
-0.82
-0.805
-0.81
-0.805
-0.805
-0.815
-0.82
-0.83
-0.845
-0.85
-0.855
-0.86
-0.88
-0.89
-0.91
-0.92
-0.945
-0.965
-0.99
-0.995
-0.995
-1.0
-1.0
-1.005
-1.01
-1.01
-1.035
-1.045
-1.075
-1.095
-1.09
-1.115
-1.1
-1.125
-1.125
-1.13
-1.14
-1.15
-1.165
-1.195
-1.205
-1.235
-1.255
-1.26
-1.265
-1.28
-1.28
-1.265
-1.26
-1.255
-1.235
-1.23
-1.225
-1.195
-1.18
-1.155
-1.12
-1.085
-1.04
-1.015
-0.96
-0.94
-0.9
-0.885
-0.855
-0.84
-0.815
-0.8
-0.77
-0.76
-0.74
-0.725
-0.695
-0.69
-0.685
-0.68
-0.68
-0.68
-0.68
-0.695
-0.685
-0.675
-0.66
-0.655
-0.655
-0.635
-0.63
-0.63
-0.64
-0.645
-0.65
-0.66
-0.665
-0.66
-0.67
-0.675
-0.675
-0.675
-0.68
-0.68
-0.685
-0.7
-0.705
-0.69
-0.68
-0.685
-0.7
-0.705
-0.685
-0.685
-0.69
-0.685
-0.69
-0.695
-0.695
-0.7
-0.7
-0.69
-0.675
-0.675
-0.665
-0.65
-0.665
-0.665
-0.675
-0.67
-0.66
-0.66
-0.66
-0.65
-0.64
-0.635
-0.625
-0.62
-0.635
-0.645
-0.65
-0.665
-0.67
-0.67
-0.655
-0.635
-0.63
-0.615
-0.605
-0.605
-0.595
-0.6
-0.595
-0.6
-0.61
-0.61
-0.62
-0.62
-0.605
-0.605
-0.59
-0.595
-0.595
-0.605
-0.61
-0.62
-0.635
-0.625
-0.625
-0.625
-0.62
-0.615
-0.62
-0.61
-0.6
-0.61
-0.61
-0.605
-0.605
-0.585
-0.57
-0.54
-0.515
-0.495
-0.45
-0.425
-0.36
-0.32
-0.27
-0.22
-0.165
-0.115
-0.065
-0.005
0.06
0.145
0.235
0.34
0.435
0.525
0.625
0.715
0.81
0.905
0.99
1.05
1.1
1.13
1.155
1.15
1.13
1.08
1.045
0.995
0.965
0.95
0.965
1.035
1.14
1.23
1.25
1.145
0.91
0.59
0.225
-0.11
-0.385
-0.575
-0.705
-0.755
-0.78
-0.785
-0.8
-0.81
-0.84
-0.88
-0.915
-0.955
-0.98
-1.01
-1.035
-1.03
-1.045
-1.05
-1.065
-1.08
-1.095
-1.13
-1.16
-1.19
-1.2
-1.22
-1.24
-1.265
-1.275
-1.3
-1.305
-1.32
-1.335
-1.345
-1.33
-1.355
-1.35
-1.37
-1.38
-1.385
-1.395
-1.4
-1.405
-1.41
-1.425
-1.44
-1.465
-1.49
-1.52
-1.555
-1.57
-1.6
-1.61
-1.625
-1.635
-1.645
-1.66
-1.685
-1.715
-1.74
-1.775
-1.77
-1.795
-1.81
-1.825
-1.835
-1.855
-1.87
-1.89
-1.915
-1.935
-1.955
-1.97
-1.985
-1.995
-1.99
-1.98
-1.98
-1.97
-1.965
-1.95
-1.945
-1.935
-1.92
-1.905
-1.88
-1.85
-1.81
-1.775
-1.735
-1.695
-1.66
-1.63
-1.605
-1.565
-1.52
-1.475
-1.44
-1.39
-1.33
-1.28
-1.23
-1.185
-1.14
-1.105
-1.07
-1.045
-1.02
-1.015
-0.99
-0.97
-0.95
-0.93
-0.895
-0.865
-0.845
-0.845
-0.84
-0.85
-0.835
-0.815
-0.825
-0.81
-0.8
-0.785
-0.775
-0.765
-0.755
-0.76
-0.76
-0.76
-0.76
-0.765
-0.77
-0.765
-0.76
-0.755
-0.75
-0.74
-0.725
-0.74
-0.735
-0.74
-0.745
-0.745
-0.74
-0.75
-0.74
-0.74
-0.73
-0.725
-0.725
-0.74
-0.75
-0.76
-0.77
-0.78
-0.775
-0.765
-0.755
-0.74
-0.735
-0.72
-0.7
-0.695
-0.68
-0.67
-0.69
-0.69
-0.7
-0.695
-0.69
-0.68
-0.68
-0.67
-0.665
-0.66
-0.685
-0.665
-0.67
-0.68
-0.685
-0.685
-0.67
-0.665
-0.65
-0.64
-0.65
-0.64
-0.655
-0.66
-0.665
-0.68
-0.67
-0.675
-0.675
-0.67
-0.655
-0.65
-0.65
-0.645
-0.65
-0.665
-0.665
-0.68
-0.675
-0.675
-0.675
-0.67
-0.645
-0.645
-0.635
-0.64
-0.645
-0.655
-0.665
-0.685
-0.695
-0.7
-0.69
-0.69
-0.685
-0.655
-0.65
-0.655
-0.65
-0.655
-0.65
-0.655
-0.66
-0.645
-0.635
-0.625
-0.615
-0.625
-0.64
-0.63
-0.645
-0.65
-0.66
-0.66
-0.66
-0.65
-0.64
-0.635
-0.63
-0.62
-0.62
-0.625
-0.625
-0.63
-0.645
-0.655
-0.65
-0.66
-0.66
-0.645
-0.635
-0.62
-0.615
-0.615
-0.615
-0.635
-0.645
-0.63
-0.64
-0.64
-0.625
-0.605
-0.605
-0.585
-0.58
-0.595
-0.61
-0.64
-0.685
-0.705
-0.715
-0.675
-0.565
-0.385
-0.16
0.105
0.43
0.74
1.06
1.31
1.485
1.57
1.555
1.495
1.355
1.105
0.74
0.275
-0.19
-0.545
-0.735
-0.785
-0.755
-0.695
-0.635
-0.595
-0.585
-0.61
-0.635
-0.655
-0.67
-0.68
-0.68
-0.69
-0.705
-0.72
-0.735
-0.74
-0.74
-0.74
-0.735
-0.735
-0.745
-0.745
-0.755
-0.77
-0.78
-0.795
-0.795
-0.8
-0.79
-0.785
-0.77
-0.78
-0.78
-0.79
-0.8
-0.8
-0.815
-0.83
-0.835
-0.845
-0.835
-0.84
-0.835
-0.83
-0.82
-0.81
-0.805
-0.805
-0.81
-0.815
-0.825
-0.82
-0.825
-0.84
-0.84
-0.85
-0.865
-0.875
-0.88
-0.895
-0.895
-0.91
-0.925
-0.945
-0.955
-0.96
-0.96
-0.955
-0.98
-1.005
-1.025
-1.04
-1.065
-1.08
-1.1
-1.115
-1.12
-1.13
-1.13
-1.155
-1.16
-1.16
-1.18
-1.205
-1.215
-1.21
-1.2
-1.205
-1.175
-1.165
-1.14
-1.11
-1.085
-1.06
-1.03
-0.99
-0.965
-0.94
-0.92
-0.88
-0.85
-0.815
-0.78
-0.75
-0.725
-0.7
-0.67
-0.645
-0.645
-0.62
-0.595
-0.585
-0.56
-0.54
-0.535
-0.525
-0.52
-0.525
-0.545
-0.56
-0.565
-0.58
-0.565
-0.58
-0.575
-0.56
-0.55
-0.545
-0.54
-0.555
-0.555
-0.575
-0.585
-0.585
-0.575
-0.59
-0.59
-0.585
-0.58
-0.57
-0.565
-0.555
-0.565
-0.58
-0.58
-0.585
-0.605
-0.605
-0.59
-0.585
-0.565
-0.56
-0.56
-0.565
-0.57
-0.585
-0.585
-0.58
-0.585
-0.575
-0.575
-0.565
-0.545
-0.525
-0.52
-0.515
-0.49
-0.495
-0.49
-0.49
-0.485
-0.48
-0.47
-0.455
-0.435
-0.43
-0.44
-0.435
-0.45
-0.465
-0.475
-0.475
-0.485
-0.48
-0.485
-0.475
-0.485
-0.475
-0.48
-0.5
-0.505
-0.52
-0.53
-0.535
-0.535
-0.545
-0.545
-0.535
-0.53
-0.525
-0.525
-0.525
-0.53
-0.54
-0.545
-0.555
-0.56
-0.57
-0.57
-0.565
-0.555
-0.555
-0.575
-0.58
-0.6
-0.605
-0.565
-0.47
-0.305
-0.075
0.19
0.49
0.805
1.105
1.365
1.53
1.605
1.605
1.52
1.37
1.1
0.7
0.22
-0.235
-0.535
-0.67
-0.675
-0.63
-0.56
-0.52
-0.53
-0.54
-0.565
-0.58
-0.59
-0.6
-0.595
-0.575
-0.575
-0.585
-0.595
-0.61
-0.63
-0.65
-0.655
-0.65
-0.66
-0.65
-0.655
-0.655
-0.66
-0.66
-0.675
-0.7
-0.715
-0.735
-0.745
-0.745
-0.755
-0.765
-0.75
-0.745
-0.76
-0.75
-0.75
-0.765
-0.785
-0.795
-0.81
-0.83
-0.835
-0.84
-0.855
-0.83
-0.835
-0.835
-0.85
-0.84
-0.84
-0.85
-0.855
-0.85
-0.855
-0.845
-0.86
-0.85
-0.87
-0.865
-0.895
-0.905
-0.91
-0.93
-0.955
-0.94
-0.95
-0.965
-0.98
-0.985
-1.01
-1.015
-1.03
-1.065
-1.07
-1.09
-1.1
-1.11
-1.115
-1.115
-1.115
-1.1
-1.095
-1.085
-1.085
-1.075
-1.055
-1.045
-1.005
-0.995
-0.965
-0.915
-0.885
-0.865
-0.815
-0.8
-0.77
-0.765
-0.755
-0.745
-0.74
-0.73
-0.705
-0.695
-0.685
-0.685
-0.68
-0.675
-0.665
-0.63
-0.625
-0.61
-0.605
-0.595
-0.585
-0.57
-0.57
-0.575
-0.575
-0.575
-0.585
-0.59
-0.59
-0.6
-0.61
-0.59
-0.585
-0.575
-0.57
-0.545
-0.54
-0.54
-0.555
-0.555
-0.57
-0.58
-0.58
-0.555
-0.555
-0.55
-0.54
-0.53
-0.52
-0.525
-0.52
-0.54
-0.53
-0.545
-0.52
-0.505
-0.47
-0.43
-0.405
-0.38
-0.36
-0.325
-0.295
-0.265
-0.24
-0.2
-0.135
-0.06
0.01
0.09
0.18
0.275
0.375
0.48
0.61
0.72
0.845
0.97
1.075
1.18
1.27
1.345
1.38
1.405
1.41
1.39
1.355
1.33
1.28
1.23
1.17
1.125
1.1
1.145
1.215
1.34
1.43
1.45
1.365
1.125
0.815
0.46
0.12
-0.16
-0.37
-0.54
-0.64
-0.715
-0.76
-0.8
-0.82
-0.86
-0.895
-0.925
-0.96
-0.97
-1.0
-1.02
-1.04
-1.055
-1.07
-1.085
-1.085
-1.105
-1.135
-1.165
-1.185
-1.19
-1.21
-1.225
-1.23
-1.23
-1.235
-1.255
-1.265
-1.285
-1.28
-1.285
-1.295
-1.31
-1.31
-1.32
-1.32
-1.33
-1.345
-1.365
-1.4
-1.43
-1.465
-1.505
-1.53
-1.555
-1.58
-1.595
-1.62
-1.635
-1.66
-1.665
-1.7
-1.725
-1.755
-1.79
-1.83
-1.84
-1.85
-1.865
-1.88
-1.89
-1.915
-1.925
-1.94
-1.96
-1.97
-1.985
-1.98
-1.975
-1.97
-1.955
-1.94
-1.915
-1.895
-1.875
-1.865
-1.86
-1.83
-1.81
-1.78
-1.745
-1.71
-1.665
-1.62
-1.565
-1.52
-1.48
-1.425
-1.385
-1.365
-1.315
-1.27
-1.21
-1.17
-1.115
-1.07
-1.03
-0.995
-0.955
-0.95
-0.93
-0.905
-0.88
-0.875
-0.85
-0.835
-0.825
-0.805
-0.785
-0.765
-0.75
-0.75
-0.75
-0.75
-0.755
-0.745
-0.74
-0.735
-0.73
-0.73
-0.725
-0.73
-0.725
-0.735
-0.74
-0.755
-0.76
-0.77
-0.76
-0.76
-0.745
-0.735
-0.74
-0.735
-0.74
-0.745
-0.75
-0.77
-0.78
-0.79
-0.79
-0.78
-0.775
-0.765
-0.76
-0.76
-0.75
-0.735
-0.73
-0.715
-0.705
-0.705
-0.69
-0.67
-0.655
-0.645
-0.63
-0.64
-0.635
-0.65
-0.66
-0.66
-0.67
-0.67
-0.67
-0.67
-0.67
-0.66
-0.645
-0.64
-0.64
-0.63
-0.645
-0.645
-0.64
-0.645
-0.655
-0.655
-0.655
-0.655
-0.635
-0.64
-0.64
-0.635
-0.645
-0.65
-0.665
-0.68
-0.69
-0.685
-0.67
-0.67
-0.66
-0.655
-0.67
-0.68
-0.68
-0.69
-0.705
-0.715
-0.72
-0.72
-0.72
-0.71
-0.71
-0.705
-0.71
-0.71
-0.715
-0.715
-0.71
-0.705
-0.7
-0.69
-0.675
-0.67
-0.645
-0.65
-0.64
-0.64
-0.645
-0.65
-0.655
-0.66
-0.665
-0.665
-0.66
-0.665
-0.655
-0.645
-0.645
-0.65
-0.655
-0.665
-0.67
-0.67
-0.665
-0.675
-0.665
-0.66
-0.655
-0.645
-0.66
-0.65
-0.68
-0.675
-0.685
-0.7
-0.69
-0.7
-0.68
-0.675
-0.665
-0.67
-0.675
-0.665
-0.67
-0.67
-0.67
-0.67
-0.675
-0.67
-0.66
-0.655
-0.645
-0.645
-0.655
-0.655
-0.66
-0.67
-0.67
-0.66
-0.645
-0.635
-0.61
-0.61
-0.59
-0.585
-0.59
-0.6
-0.605
-0.61
-0.62
-0.625
-0.62
-0.625
-0.615
-0.63
-0.62
-0.615
-0.63
-0.655
-0.665
-0.67
-0.675
-0.67
-0.67
-0.665
-0.65
-0.655
-0.65
-0.65
-0.655
-0.65
-0.67
-0.66
-0.675
-0.685
-0.675
-0.675
-0.68
-0.68
-0.675
-0.67
-0.68
-0.68
-0.68
-0.69
-0.705
-0.7
-0.69
-0.685
-0.695
-0.69
-0.685
-0.675
-0.66
-0.68
-0.665
-0.665
-0.66
-0.65
-0.635
-0.63
-0.62
-0.61
-0.625
-0.625
-0.65
-0.62
-0.585
-0.485
-0.325
-0.115
0.11
0.385
0.67
0.95
1.23
1.445
1.56
1.625
1.62
1.545
1.415
1.2
0.86
0.41
-0.08
-0.48
-0.74
-0.81
-0.805
-0.75
-0.695
-0.67
-0.655
-0.675
-0.71
-0.74
-0.765
-0.775
-0.77
-0.765
-0.785
-0.775
-0.81
-0.815
-0.835
-0.875
-0.895
-0.9
-0.895
-0.89
-0.885
-0.885
-0.885
-0.89
-0.895
-0.895
-0.9
-0.89
-0.895
-0.875
-0.88
-0.86
-0.85
-0.84
-0.855
-0.845
-0.845
-0.85
-0.86
-0.85
-0.845
-0.835
-0.83
-0.825
-0.81
-0.81
-0.825
-0.835
-0.85
-0.86
-0.87
-0.87
-0.885
-0.91
-0.92
-0.925
-0.93
-0.925
-0.925
-0.93
-0.95
-0.965
-0.965
-0.985
-0.995
-1.0
-1.01
-1.01
-1.02
-1.04
-1.06
-1.065
-1.085
-1.1
-1.115
-1.135
-1.145
-1.16
-1.17
-1.175
-1.195
-1.185
-1.2
-1.21
-1.22
-1.23
-1.24
-1.245
-1.255
-1.26
-1.265
-1.255
-1.24
-1.225
-1.19
-1.165
-1.135
-1.12
-1.095
-1.075
-1.015
-0.97
-0.905
-0.875
-0.83
-0.795
-0.77
-0.75
-0.735
-0.705
-0.71
-0.705
-0.7
-0.685
-0.65
-0.65
-0.63
-0.62
-0.63
-0.615
-0.605
-0.61
-0.605
-0.605
-0.605
-0.595
-0.59
-0.58
-0.57
-0.575
-0.58
-0.58
-0.595
-0.595
-0.615
-0.61
-0.605
-0.605
-0.595
-0.585
-0.59
-0.575
-0.57
-0.57
-0.58
-0.585
-0.605
-0.605
-0.6
-0.61
-0.615
-0.615
-0.625
-0.625
-0.635
-0.64
-0.64
-0.625
-0.62
-0.615
-0.59
-0.585
-0.58
-0.565
-0.545
-0.55
-0.555
-0.54
-0.565
-0.575
-0.595
-0.59
-0.59
-0.59
-0.58
-0.585
-0.565
-0.58
-0.56
-0.575
-0.59
-0.585
-0.59
-0.595
-0.585
-0.57
-0.575
-0.585
-0.575
-0.575
-0.57
-0.585
-0.58
-0.585
-0.595
-0.595
-0.585
-0.585
-0.565
-0.565
-0.555
-0.55
-0.555
-0.55
-0.565
-0.58
-0.58
-0.6
-0.605
-0.615
-0.625
-0.64
-0.66
-0.655
-0.635
-0.55
-0.43
-0.255
-0.03
0.235
0.56
0.895
1.215
1.47
1.615
1.67
1.62
1.51
1.295
0.96
0.49
-0.03
-0.47
-0.745
-0.84
-0.81
-0.715
-0.63
-0.59
-0.58
-0.615
-0.655
-0.695
-0.72
-0.74
-0.725
-0.725
-0.72
-0.73
-0.735
-0.74
-0.75
-0.755
-0.78
-0.785
-0.795
-0.79
-0.8
-0.785
-0.785
-0.78
-0.79
-0.8
-0.805
-0.83
-0.825
-0.845
-0.855
-0.865
-0.865
-0.86
-0.86
-0.875
-0.865
-0.88
-0.875
-0.91
-0.895
-0.91
-0.89
-0.88
-0.855
-0.85
-0.825
-0.825
-0.815
-0.805
-0.81
-0.815
-0.83
-0.86
-0.865
-0.885
-0.89
-0.905
-0.905
-0.905
-0.91
-0.91
-0.925
-0.935
-0.955
-0.98
-1.01
-1.03
-1.04
-1.055
-1.065
-1.08
-1.09
-1.105
-1.11
-1.13
-1.135
-1.16
-1.19
-1.195
-1.21
-1.21
-1.205
-1.2
-1.205
-1.2
-1.2
-1.2
-1.19
-1.175
-1.165
-1.135
-1.105
-1.06
-1.03
-1.0
-0.97
-0.94
-0.92
-0.885
-0.875
-0.85
-0.835
-0.81
-0.775
-0.745
-0.72
-0.7
-0.665
-0.645
-0.63
-0.615
-0.615
-0.62
-0.625
-0.635
-0.63
-0.615
-0.63
-0.625
-0.615
-0.625
-0.615
-0.62
-0.62
-0.64
-0.635
-0.645
-0.635
-0.625
-0.63
-0.63
-0.63
-0.64
-0.65
-0.665
-0.675
-0.695
-0.7
-0.68
-0.665
-0.655
-0.655
-0.65
-0.64
-0.65
-0.645
-0.655
-0.65
-0.645
-0.645
-0.62
-0.6
-0.555
-0.535
-0.505
-0.465
-0.445
-0.41
-0.375
-0.35
-0.315
-0.245
-0.19
-0.11
-0.025
0.07
0.155
0.235
0.325
0.435
0.565
0.69
0.805
0.94
1.055
1.16
1.26
1.325
1.39
1.43
1.43
1.435
1.42
1.39
1.36
1.31
1.26
1.205
1.185
1.195
1.25
1.35
1.42
1.415
1.28
0.99
0.6
0.205
-0.18
-0.475
-0.68
-0.8
-0.845
-0.855
-0.87
-0.875
-0.91
-0.945
-0.99
-1.03
-1.06
-1.065
-1.07
-1.08
-1.09
-1.085
-1.12
-1.14
-1.16
-1.175
-1.19
-1.215
-1.215
-1.235
-1.24
-1.25
-1.25
-1.265
-1.28
-1.29
-1.315
-1.34
-1.37
-1.4
-1.415
-1.435
-1.445
-1.475
-1.48
-1.505
-1.525
-1.56
-1.605
-1.63
-1.665
-1.705
-1.745
-1.75
-1.785
-1.825
-1.83
-1.84
-1.875
-1.91
-1.93
-1.955
-1.97
-1.995
-2.015
-2.035
-2.035
-2.04
-2.045
-2.04
-2.035
-2.035
-2.035
-2.04
-2.035
-2.025
-2.005
-1.985
-1.94
-1.905
-1.88
-1.825
-1.78
-1.74
-1.705
-1.67
-1.635
-1.58
-1.525
-1.48
-1.42
-1.37
-1.315
-1.255
-1.225
-1.18
-1.145
-1.12
-1.08
-1.045
-1.01
-0.98
-0.97
-0.94
-0.9
-0.88
-0.855
-0.84
-0.84
-0.835
-0.835
-0.835
-0.84
-0.82
-0.81
-0.795
-0.78
-0.775
-0.78
-0.76
-0.765
-0.76
-0.765
-0.765
-0.75
-0.75
-0.73
-0.73
-0.71
-0.7
-0.7
-0.71
-0.715
-0.725
-0.755
-0.735
-0.755
-0.74
-0.73
-0.725
-0.72
-0.73
-0.73
-0.725
-0.73
-0.72
-0.735
-0.735
-0.74
-0.73
-0.735
-0.72
-0.735
-0.72
-0.725
-0.72
-0.735
-0.735
-0.745
-0.745
-0.745
-0.75
-0.745
-0.74
-0.735
-0.725
-0.73
-0.735
-0.735
-0.75
-0.75
-0.765
-0.765
-0.765
-0.76
-0.755
-0.76
-0.76
-0.77
-0.76
-0.78
-0.775
-0.775
-0.79
-0.765
-0.74
-0.74
-0.725
-0.725
-0.7
-0.695
-0.705
-0.7
-0.72
-0.715
-0.715
-0.715
-0.71
-0.715
-0.69
-0.695
-0.675
-0.675
-0.68
-0.69
-0.705
-0.7
-0.695
-0.685
-0.685
-0.67
-0.67
-0.66
-0.66
-0.665
-0.675
-0.665
-0.67
-0.67
-0.675
-0.665
-0.675
-0.66
-0.655
-0.66
-0.64
-0.65
-0.645
-0.655
-0.65
-0.665
-0.67
-0.695
-0.705
-0.72
-0.73
-0.71
-0.64
-0.52
-0.35
-0.15
0.1
0.38
0.685
0.975
1.22
1.405
1.485
1.49
1.45
1.335
1.14
0.815
0.385
-0.065
-0.445
-0.67
-0.76
-0.775
-0.745
-0.685
-0.645
-0.64
-0.65
-0.675
-0.7
-0.725
-0.75
-0.74
-0.73
-0.72
-0.715
-0.725
-0.725
-0.745
-0.75
-0.77
-0.795
-0.785
-0.8
-0.795
-0.815
-0.81
-0.82
-0.825
-0.835
-0.835
-0.855
-0.865
-0.875
-0.89
-0.905
-0.91
-0.905
-0.915
-0.92
-0.92
-0.925
-0.925
-0.94
-0.955
-0.955
-0.96
-0.97
-0.97
-0.95
-0.95
-0.94
-0.935
-0.93
-0.945
-0.945
-0.955
-0.975
-0.985
-1.005
-1.0
-1.0
-1.0
-1.005
-1.0
-1.01
-1.015
-1.035
-1.055
-1.07
-1.085
-1.105
-1.115
-1.125
-1.13
-1.135
-1.13
-1.145
-1.17
-1.18
-1.19
-1.19
-1.205
-1.215
-1.205
