Lead II
-0.455
-0.44
-0.41
-0.39
-0.415
-0.465
-0.53
-0.545
-0.495
-0.445
-0.38
-0.345
-0.36
-0.4
-0.43
-0.375
-0.32
-0.25
-0.18
-0.11
-0.065
-0.09
-0.21
-0.335
-0.36
-0.3
-0.235
-0.175
-0.09
-0.025
-0.085
-0.3
-0.565
-0.7
-0.695
-0.615
-0.52
-0.48
-0.47
-0.47
-0.455
-0.385
-0.32
-0.285
-0.32
-0.355
-0.405
-0.45
-0.46
-0.43
-0.345
-0.29
-0.255
-0.275
-0.34
-0.405
-0.415
-0.385
-0.34
-0.29
-0.285
-0.34
-0.35
-0.345
-0.315
-0.295
-0.31
-0.37
-0.43
-0.445
-0.415
-0.33
-0.21
-0.18
-0.285
-0.46
-0.53
-0.46
-0.345
-0.305
-0.405
-0.545
-0.625
-0.63
-0.57
-0.53
-0.5
-0.47
-0.47
-0.44
-0.43
-0.465
-0.525
-0.565
-0.54
-0.43
-0.34
-0.365
-0.41
-0.415
-0.415
-0.44
-0.475
-0.495
-0.475
-0.415
-0.345
-0.3
-0.305
-0.31
-0.225
-0.045
0.17
0.385
0.535
0.625
0.705
0.795
0.875
0.885
0.885
0.87
0.845
0.745
0.575
0.33
0.04
-0.24
-0.455
-0.56
-0.62
-0.61
-0.565
-0.53
-0.52
-0.53
-0.57
-0.58
-0.545
-0.54
-0.58
-0.635
-0.61
-0.555
-0.525
-0.56
-0.63
-0.635
-0.62
-0.545
-0.485
-0.495
-0.575
-0.625
-0.62
-0.53
-0.465
-0.46
-0.385
-0.245
-0.195
-0.295
-0.43
-0.5
-0.535
-0.615
-0.635
-0.625
-0.585
-0.595
-0.675
-0.76
-0.84
-0.87
-0.855
-0.795
-0.74
-0.68
-0.645
-0.585
-0.565
-0.635
-0.695
-0.72
-0.66
-0.545
-0.485
-0.53
-0.61
-0.665
-0.66
-0.625
-0.58
-0.55
-0.555
-0.57
-0.59
-0.565
-0.52
-0.51
-0.51
-0.505
-0.38
-0.255
-0.255
-0.365
-0.44
-0.415
-0.405
-0.39
-0.415
-0.51
-0.59
-0.61
-0.595
-0.575
-0.585
-0.585
-0.535
-0.42
-0.35
-0.405
-0.48
-0.465
-0.385
-0.325
-0.345
-0.4
-0.44
-0.43
-0.435
-0.45
-0.47
-0.45
-0.395
-0.345
-0.35
-0.365
-0.38
-0.355
-0.265
-0.24
-0.245
-0.22
-0.19
-0.18
-0.235
-0.32
-0.41
-0.45
-0.42
-0.335
-0.285
-0.29
-0.365
-0.475
-0.58
-0.635
-0.63
-0.59
-0.535
-0.49
-0.45
-0.385
-0.32
-0.305
-0.33
-0.38
-0.41
-0.405
-0.4
-0.41
-0.4
-0.33
-0.27
-0.25
-0.21
-0.095
0.05
0.04
-0.045
-0.07
-0.04
-0.07
-0.175
-0.23
-0.25
-0.255
-0.39
-0.59
-0.685
-0.665
-0.59
-0.555
-0.585
-0.625
-0.62
-0.555
-0.505
-0.45
-0.46
-0.495
-0.475
-0.425
-0.38
-0.345
-0.325
-0.31
-0.305
-0.345
-0.38
-0.38
-0.335
-0.295
-0.25
-0.25
-0.3
-0.38
-0.445
-0.46
-0.43
-0.37
-0.225
-0.025
0.115
0.235
0.395
0.53
0.585
0.675
0.825
0.97
1.06
1.02
0.835
0.595
0.44
0.375
0.345
0.31
0.205
0.015
-0.28
-0.62
-0.845
-0.86
-0.73
-0.575
-0.47
-0.415
-0.45
-0.52
-0.595
-0.585
-0.54
-0.535
-0.58
-0.625
-0.65
-0.61
-0.555
-0.53
-0.535
-0.555
-0.575
-0.56
-0.56
-0.56
-0.555
-0.535
-0.53
-0.495
-0.465
-0.435
-0.455
-0.54
-0.605
-0.565
-0.4
-0.21
-0.13
-0.16
-0.27
-0.405
-0.52
-0.55
-0.495
-0.43
-0.455
-0.56
-0.69
-0.765
-0.765
-0.72
-0.655
-0.555
-0.455
-0.42
-0.435
-0.49
-0.54
-0.55
-0.54
-0.54
-0.545
-0.48
-0.44
-0.355
-0.32
-0.345
-0.41
-0.465
-0.515
-0.47
-0.35
-0.23
-0.21
-0.35
-0.575
-0.685
-0.625
-0.53
-0.435
-0.42
-0.425
-0.41
-0.34
-0.29
-0.3
-0.35
-0.37
-0.335
-0.275
-0.275
-0.315
-0.335
-0.325
-0.245
-0.13
-0.03
0.025
-0.04
-0.265
-0.48
-0.5
-0.365
-0.205
-0.19
-0.31
-0.445
-0.49
-0.49
-0.49
-0.475
-0.415
-0.32
-0.255
-0.265
-0.26
-0.285
-0.29
-0.285
-0.305
-0.375
-0.41
-0.42
-0.395
-0.35
-0.3
-0.27
-0.24
-0.17
-0.08
-0.015
-0.005
-0.05
-0.15
-0.27
-0.32
-0.335
-0.34
-0.34
-0.31
-0.225
-0.16
-0.145
-0.2
-0.33
-0.48
-0.54
-0.505
-0.41
-0.34
-0.31
-0.305
-0.28
-0.245
-0.235
-0.265
-0.29
-0.305
-0.335
-0.345
-0.345
-0.35
-0.355
-0.345
-0.355
-0.33
-0.285
-0.26
-0.275
-0.275
-0.27
-0.275
-0.315
-0.335
-0.325
-0.245
-0.21
-0.265
-0.35
-0.39
-0.395
-0.37
-0.315
-0.26
-0.19
-0.145
-0.125
-0.085
0.005
0.155
0.17
-0.025
-0.32
-0.535
-0.57
-0.455
-0.285
-0.2
-0.24
-0.33
-0.395
-0.42
-0.375
-0.32
-0.315
-0.36
-0.395
-0.365
-0.29
-0.24
-0.26
-0.3
-0.29
-0.235
-0.18
-0.185
-0.27
-0.355
-0.355
-0.315
-0.26
-0.24
-0.245
-0.265
-0.285
-0.275
-0.255
-0.235
-0.255
-0.3
-0.34
-0.36
-0.325
-0.27
-0.255
-0.26
-0.275
-0.26
-0.245
-0.23
-0.23
-0.16
-0.035
0.105
0.25
0.385
0.505
0.66
0.825
0.97
1.11
1.17
1.105
0.935
0.745
0.565
0.41
0.21
0.06
-0.005
0.03
0.045
-0.065
-0.265
-0.45
-0.54
-0.54
-0.465
-0.37
-0.31
-0.33
-0.405
-0.515
-0.565
-0.52
-0.46
-0.425
-0.425
-0.485
-0.535
-0.525
-0.49
-0.475
-0.48
-0.505
-0.505
-0.485
-0.465
-0.475
-0.475
-0.515
-0.54
-0.5
-0.47
-0.44
-0.465
-0.515
-0.555
-0.535
-0.47
-0.415
-0.375
-0.35
-0.375
-0.42
-0.495
-0.585
-0.635
-0.675
-0.685
-0.635
-0.57
-0.555
-0.57
-0.59
-0.585
-0.515
-0.43
-0.395
-0.42
-0.43
-0.45
-0.425
-0.415
-0.415
-0.425
-0.44
-0.45
-0.395
-0.33
-0.26
-0.215
-0.255
-0.345
-0.455
-0.52
-0.54
-0.505
-0.44
-0.39
-0.365
-0.385
-0.375
-0.33
-0.27
-0.27
-0.32
-0.41
-0.5
-0.55
-0.54
-0.47
-0.39
-0.335
-0.35
-0.405
-0.43
-0.395
-0.325
-0.31
-0.325
-0.335
-0.335
-0.3
-0.285
-0.27
-0.295
-0.32
-0.3
-0.265
-0.25
-0.295
-0.34
-0.375
-0.33
-0.24
-0.17
-0.125
-0.155
-0.22
-0.285
-0.31
-0.295
-0.305
-0.335
-0.345
-0.31
-0.275
-0.255
-0.255
-0.26
-0.275
-0.3
-0.38
-0.4
-0.365
-0.32
-0.305
-0.32
-0.345
-0.33
-0.27
-0.17
-0.11
-0.085
-0.115
-0.175
-0.25
-0.34
-0.405
-0.43
-0.39
-0.325
-0.285
-0.25
-0.24
-0.25
-0.255
-0.235
-0.265
-0.35
-0.4
-0.41
-0.415
-0.385
-0.35
-0.36
-0.42
-0.435
-0.36
-0.25
-0.195
-0.19
-0.195
-0.185
-0.205
-0.23
-0.235
-0.215
-0.14
-0.085
-0.085
-0.145
-0.25
-0.41
-0.535
-0.575
-0.515
-0.41
-0.3
-0.23
-0.185
-0.195
-0.28
-0.35
-0.415
-0.48
-0.54
-0.48
-0.355
-0.22
-0.205
-0.335
-0.485
-0.485
-0.405
-0.34
-0.34
-0.355
-0.355
-0.345
-0.32
-0.255
-0.2
-0.21
-0.23
-0.25
-0.235
-0.26
-0.275
-0.265
-0.235
-0.225
-0.26
-0.295
-0.305
-0.32
-0.38
-0.44
-0.47
-0.46
-0.415
-0.36
-0.3
-0.24
-0.23
-0.265
-0.305
-0.375
-0.415
-0.43
-0.425
-0.44
-0.435
-0.415
-0.4
-0.45
-0.52
-0.51
-0.41
-0.31
-0.335
-0.4
-0.39
-0.235
-0.06
0.09
0.215
0.355
0.475
0.68
0.905
1.035
1.04
0.94
0.75
0.575
0.43
0.295
0.095
-0.1
-0.22
-0.225
-0.175
-0.2
-0.255
-0.3
-0.325
-0.31
-0.27
-0.195
-0.16
-0.21
-0.305
-0.39
-0.455
-0.49
-0.46
-0.405
-0.355
-0.31
-0.285
-0.315
-0.39
-0.48
-0.53
-0.645
-0.79
-0.9
-0.835
-0.68
-0.59
-0.54
-0.52
-0.515
-0.54
-0.545
-0.545
-0.53
-0.54
-0.56
-0.575
-0.585
-0.57
-0.55
-0.535
-0.51
-0.5
-0.51
-0.51
-0.51
-0.5
-0.465
-0.43
-0.38
-0.32
-0.285
-0.275
-0.295
-0.365
-0.51
-0.585
-0.59
-0.505
-0.425
-0.36
-0.345
-0.39
-0.46
-0.49
-0.47
-0.38
-0.275
-0.15
-0.065
-0.09
-0.25
-0.465
-0.555
-0.525
-0.435
-0.36
-0.305
-0.285
-0.26
-0.27
-0.255
-0.225
-0.23
-0.255
-0.27
-0.28
-0.25
-0.175
-0.085
-0.03
-0.015
-0.1
-0.27
-0.38
-0.4
-0.35
-0.285
-0.225
-0.18
-0.195
-0.185
-0.125
-0.1
-0.135
-0.145
-0.125
-0.105
-0.17
-0.265
-0.3
-0.255
-0.24
-0.315
-0.435
-0.445
-0.365
-0.28
-0.265
-0.285
-0.29
-0.29
-0.3
-0.27
-0.2
-0.115
-0.105
-0.17
-0.28
-0.345
-0.37
-0.39
-0.355
-0.31
-0.25
-0.155
-0.11
-0.12
-0.175
-0.245
-0.35
-0.405
-0.41
-0.395
-0.36
-0.29
-0.175
-0.1
-0.12
-0.255
-0.415
-0.525
-0.54
-0.43
-0.3
-0.225
-0.23
-0.27
-0.285
-0.28
-0.26
-0.265
-0.27
-0.215
-0.1
0.07
0.165
0.07
-0.125
-0.35
-0.495
-0.54
-0.515
-0.445
-0.29
-0.17
-0.175
-0.32
-0.465
-0.5
-0.45
-0.41
-0.39
-0.31
-0.23
-0.21
-0.235
-0.235
-0.235
-0.29
-0.335
-0.33
-0.19
-0.09
-0.185
-0.31
-0.295
-0.18
-0.195
-0.375
-0.57
-0.59
-0.42
-0.17
-0.04
-0.06
-0.14
-0.2
-0.2
-0.15
-0.1
-0.08
-0.12
-0.14
-0.13
-0.1
-0.035
-0.005
-0.01
0.005
0.04
0.07
0.165
0.405
0.615
0.54
0.205
-0.085
-0.14
-0.08
0.1
0.365
0.635
0.77
0.775
0.84
1.015
1.185
1.225
1.155
0.855
0.35
-0.02
-0.03
0.13
0.18
0.02
-0.19
-0.28
-0.245
-0.16
-0.185
-0.28
-0.34
-0.385
-0.37
-0.31
-0.23
-0.175
-0.115
-0.06
-0.005
0.015
-0.135
-0.39
-0.525
-0.405
-0.245
-0.115
-0.045
-0.01
-0.015
-0.065
-0.21
-0.47
-0.565
-0.42
-0.325
-0.39
-0.425
-0.36
-0.365
-0.465
-0.455
-0.305
-0.21
-0.27
-0.335
-0.315
-0.205
-0.08
-0.09
-0.26
-0.375
-0.33
-0.2
-0.11
-0.085
0.01
0.115
0.07
-0.18
-0.36
-0.31
-0.235
-0.35
-0.46
-0.4
-0.23
-0.055
0.01
-0.02
-0.11
-0.155
-0.135
-0.09
-0.05
-0.16
-0.39
-0.295
0.09
0.38
0.365
0.305
0.165
-0.1
-0.36
-0.3
-0.005
0.155
0.085
-0.04
-0.1
-0.075
-0.035
-0.13
-0.28
-0.29
-0.19
-0.035
0.115
0.19
0.055
-0.24
-0.4
-0.24
0.03
0.15
0.055
-0.045
-0.025
0.085
0.145
0.145
0.155
0.14
0.1
0.06
0.01
-0.1
-0.21
-0.4
-0.775
-1.13
-1.32
-1.48
-1.58
-1.42
-1.045
-0.765
-0.74
-0.905
-1.01
-0.975
-0.815
-0.69
-0.615
-0.57
-0.58
-0.605
-0.55
-0.465
-0.395
-0.35
-0.35
-0.325
-0.235
-0.09
0.075
0.17
0.18
0.115
0.065
0.025
-0.045
-0.15
-0.21
-0.205
-0.14
-0.04
0.045
0.09
0.11
0.15
0.145
0.145
0.165
0.145
0.085
0.075
0.1
0.165
0.215
0.255
0.285
0.25
0.165
0.185
0.335
0.475
0.49
0.39
0.365
0.44
0.49
0.435
0.39
0.38
0.38
0.36
0.335
0.385
0.485
0.505
0.47
0.395
0.385
0.345
0.33
0.385
0.475
0.555
0.59
0.56
0.465
0.345
0.245
0.24
0.255
0.27
0.27
0.28
0.29
0.335
0.3
0.2
0.185
0.235
0.285
0.275
0.23
0.165
0.125
0.095
0.085
0.085
0.1
0.09
0.105
0.115
0.095
0.07
0.06
0.03
-0.095
-0.2
-0.15
-0.025
0.03
-0.02
-0.145
-0.245
-0.295
-0.2
-0.095
-0.045
-0.06
-0.1
-0.12
-0.12
-0.125
-0.125
-0.115
-0.16
-0.25
-0.245
-0.21
-0.16
-0.1
-0.095
-0.12
-0.14
-0.13
-0.145
-0.22
-0.3
-0.31
-0.235
-0.175
-0.175
-0.165
-0.115
-0.105
-0.105
-0.1
-0.03
0.11
0.225
0.115
-0.135
-0.305
-0.325
-0.255
-0.21
-0.255
-0.315
-0.325
-0.28
-0.26
-0.25
-0.24
-0.22
-0.21
-0.235
-0.225
-0.235
-0.245
-0.235
-0.22
-0.23
-0.25
-0.23
-0.22
-0.18
-0.13
-0.125
-0.125
-0.165
-0.225
-0.23
-0.18
-0.115
-0.12
-0.105
-0.06
-0.005
-0.06
-0.245
-0.425
-0.505
-0.43
-0.35
-0.325
-0.345
-0.305
-0.26
-0.245
-0.255
-0.235
-0.17
-0.17
-0.245
-0.3
-0.285
-0.21
-0.15
-0.135
-0.18
-0.245
-0.255
-0.245
-0.245
-0.24
-0.235
-0.19
-0.13
-0.08
-0.01
0.07
0.03
-0.115
-0.29
-0.375
-0.4
-0.4
-0.395
-0.345
-0.255
-0.175
-0.13
-0.17
-0.28
-0.405
-0.38
-0.285
-0.185
-0.175
-0.17
-0.17
-0.185
-0.21
-0.205
-0.165
-0.155
-0.13
-0.125
-0.14
-0.17
-0.135
-0.055
0.01
-0.02
-0.15
-0.335
-0.44
-0.385
-0.225
-0.165
-0.33
-0.44
-0.285
-0.025
0.14
0.19
0.26
0.36
0.49
0.605
0.725
0.88
1.025
1.1
1.11
1.07
0.985
0.875
0.705
0.505
0.25
0.04
-0.075
-0.07
-0.02
0.055
0.19
0.265
0.22
0.14
-0.035
-0.35
-0.645
-0.765
-0.685
-0.515
-0.445
-0.4
-0.38
-0.33
-0.305
-0.31
-0.35
-0.41
-0.425
-0.41
-0.395
-0.36
-0.34
-0.3
-0.2
-0.115
-0.17
-0.35
-0.515
-0.6
-0.575
-0.495
-0.43
-0.38
-0.33
-0.22
-0.11
-0.125
-0.185
-0.185
-0.275
-0.51
-0.71
-0.69
-0.515
-0.4
-0.52
-0.64
-0.515
-0.335
-0.31
-0.34
-0.335
-0.34
-0.395
-0.47
-0.46
-0.355
-0.275
-0.275
-0.34
-0.39
-0.4
-0.38
-0.36
-0.33
-0.29
-0.25
-0.215
-0.17
-0.15
-0.135
-0.18
-0.27
-0.355
-0.415
-0.4
-0.33
-0.25
-0.225
-0.2
-0.175
-0.155
-0.2
-0.22
-0.2
-0.155
-0.12
-0.125
-0.18
-0.135
-0.055
-0.06
-0.15
-0.225
-0.205
-0.155
-0.145
-0.165
-0.15
-0.12
-0.07
0.01
0.05
-0.005
-0.075
-0.13
-0.16
-0.205
-0.23
-0.255
-0.26
-0.24
-0.205
-0.16
-0.13
-0.13
-0.125
-0.105
-0.13
-0.125
-0.175
-0.22
-0.25
-0.245
-0.21
-0.18
-0.15
-0.105
-0.14
-0.22
-0.23
-0.17
-0.09
-0.09
-0.1
-0.1
-0.13
-0.17
-0.175
-0.155
-0.15
-0.16
-0.155
-0.085
-0.08
-0.095
-0.11
-0.085
-0.05
-0.04
-0.095
-0.2
-0.27
-0.225
-0.15
-0.135
-0.175
-0.25
-0.29
-0.265
-0.205
-0.155
-0.11
-0.135
-0.155
-0.18
-0.155
-0.135
-0.135
-0.145
-0.135
-0.14
-0.215
-0.3
-0.265
-0.12
-0.025
-0.055
-0.16
-0.25
-0.21
-0.095
0.07
0.28
0.49
0.645
0.77
0.87
0.985
1.085
1.145
1.14
1.05
0.935
0.815
0.65
0.435
0.27
0.1
-0.005
-0.07
-0.1
-0.125
-0.175
-0.205
-0.22
-0.21
-0.235
-0.295
-0.325
-0.315
-0.27
-0.235
-0.26
-0.33
-0.405
-0.445
-0.43
-0.395
-0.36
-0.33
-0.31
-0.32
-0.325
-0.295
-0.3
-0.36
-0.455
-0.48
-0.425
-0.37
-0.38
-0.43
-0.44
-0.425
-0.415
-0.41
-0.415
-0.41
-0.415
-0.41
-0.4
-0.395
-0.39
-0.385
-0.39
-0.43
-0.445
-0.4
-0.345
-0.325
-0.35
-0.335
-0.325
-0.325
-0.365
-0.415
-0.36
-0.255
-0.185
-0.195
-0.245
-0.305
-0.305
-0.25
-0.22
-0.245
-0.345
-0.42
-0.435
-0.385
-0.345
-0.3
-0.3
-0.285
-0.285
-0.29
-0.29
-0.255
-0.225
-0.21
-0.215
-0.215
-0.225
-0.19
-0.17
-0.17
-0.18
-0.19
-0.17
-0.155
-0.15
-0.12
-0.145
-0.17
-0.2
-0.195
-0.175
-0.14
-0.13
-0.13
-0.14
-0.16
-0.185
-0.215
-0.235
-0.22
-0.195
-0.165
-0.135
-0.1
-0.085
-0.085
-0.16
-0.22
-0.225
-0.17
-0.125
-0.085
-0.09
-0.1
-0.13
-0.185
-0.23
-0.24
-0.23
-0.22
-0.205
-0.16
-0.085
-0.05
-0.055
-0.065
-0.07
-0.075
-0.06
-0.045
-0.045
-0.055
-0.095
-0.165
-0.24
-0.24
-0.215
-0.17
-0.125
-0.15
-0.19
-0.22
-0.195
-0.13
-0.125
-0.19
-0.245
-0.25
-0.215
-0.175
-0.115
-0.09
-0.11
-0.145
-0.165
-0.12
-0.055
-0.055
-0.19
-0.325
-0.325
-0.2
-0.115
-0.105
-0.13
-0.11
-0.085
-0.1
-0.17
-0.235
-0.24
-0.15
-0.07
-0.05
-0.095
-0.135
-0.135
-0.115
-0.085
-0.075
-0.075
-0.095
-0.075
-0.075
-0.09
-0.115
-0.12
-0.115
-0.09
-0.065
-0.085
-0.11
-0.185
-0.215
-0.23
-0.215
-0.2
-0.17
-0.155
-0.155
-0.18
-0.18
-0.19
-0.15
-0.125
-0.115
-0.11
-0.135
-0.14
-0.125
-0.105
-0.055
-0.065
-0.145
-0.2
-0.19
-0.105
-0.075
-0.11
-0.115
-0.09
-0.075
-0.095
-0.15
-0.23
-0.27
-0.2
-0.075
0.01
0.0
-0.05
-0.06
-0.055
-0.015
0.035
0.075
0.11
0.15
0.22
0.33
0.46
0.575
0.68
0.775
0.92
1.035
1.135
1.14
1.095
1.01
0.895
0.725
0.475
0.215
0.005
-0.065
-0.075
-0.085
-0.125
-0.18
-0.195
-0.235
-0.265
-0.285
-0.33
-0.37
-0.36
-0.34
-0.32
-0.34
-0.395
-0.435
-0.38
-0.285
-0.225
-0.235
-0.25
-0.28
-0.295
-0.315
-0.325
-0.345
-0.345
-0.33
-0.315
-0.315
-0.315
-0.285
-0.265
-0.275
-0.29
-0.33
-0.39
-0.415
-0.425
-0.415
-0.405
-0.39
-0.385
-0.355
-0.325
-0.315
-0.345
-0.355
-0.315
-0.315
-0.375
-0.405
-0.375
-0.315
-0.29
-0.305
-0.335
-0.365
-0.39
-0.365
-0.32
-0.255
-0.25
-0.3
-0.375
-0.4
-0.415
-0.405
-0.375
-0.35
-0.34
-0.345
-0.35
-0.34
-0.325
-0.325
-0.33
-0.325
-0.31
-0.305
-0.27
-0.26
-0.265
-0.28
-0.28
-0.255
-0.25
-0.22
-0.205
-0.195
-0.175
-0.155
-0.15
-0.135
-0.145
-0.15
-0.16
-0.18
-0.135
-0.105
-0.11
-0.15
-0.155
-0.125
-0.095
-0.085
-0.13
-0.165
-0.17
-0.19
-0.2
-0.21
-0.195
-0.185
-0.19
-0.185
-0.185
-0.19
-0.195
-0.175
-0.15
-0.14
-0.16
-0.19
-0.21
-0.25
-0.25
-0.215
-0.2
-0.21
-0.22
-0.245
-0.245
-0.195
-0.135
-0.115
-0.145
-0.19
-0.21
-0.19
-0.185
-0.185
-0.19
-0.21
-0.195
-0.165
-0.17
-0.155
-0.15
-0.145
-0.14
-0.155
-0.165
-0.165
-0.17
-0.175
-0.19
-0.175
-0.155
-0.145
-0.14
-0.14
-0.12
-0.08
-0.065
-0.105
-0.145
-0.17
-0.17
-0.16
-0.12
-0.1
-0.105
-0.145
-0.18
-0.19
-0.185
-0.185
-0.2
-0.23
-0.235
-0.215
-0.17
-0.155
-0.185
-0.195
-0.195
-0.17
-0.18
-0.185
-0.205
-0.225
-0.215
-0.175
-0.14
-0.125
-0.145
-0.145
-0.115
-0.105
-0.145
-0.205
-0.225
-0.2
-0.15
-0.12
-0.115
-0.13
-0.145
-0.15
-0.205
-0.26
-0.245
-0.155
-0.09
-0.08
-0.105
-0.12
-0.09
-0.07
-0.06
-0.07
-0.07
-0.095
-0.115
-0.14
-0.15
-0.16
-0.16
-0.17
-0.17
-0.155
-0.135
-0.085
-0.04
-0.05
-0.125
-0.22
-0.255
-0.26
-0.25
-0.245
-0.235
-0.225
-0.23
-0.225
-0.22
-0.195
-0.185
-0.2
-0.22
-0.23
-0.175
-0.08
0.04
0.175
0.315
0.445
0.575
0.73
0.855
0.97
1.045
1.12
1.145
1.125
1.025
0.9
0.735
0.52
0.28
0.11
0.05
0.025
-0.07
-0.225
-0.265
-0.17
-0.04
0.025
-0.035
-0.14
-0.255
-0.325
-0.32
-0.32
-0.31
-0.35
-0.385
-0.365
-0.34
-0.365
-0.43
-0.455
-0.4
-0.335
-0.295
-0.33
-0.39
-0.46
-0.475
-0.445
-0.355
-0.245
-0.225
-0.31
-0.375
-0.35
-0.32
-0.33
-0.33
-0.25
-0.225
-0.365
-0.55
-0.585
-0.405
-0.16
0.02
0.02
-0.135
-0.335
-0.495
-0.54
-0.5
-0.445
-0.43
-0.415
-0.335
-0.2
-0.09
-0.17
-0.38
-0.515
-0.445
-0.27
-0.165
-0.18
-0.215
-0.245
-0.26
-0.3
-0.285
-0.26
-0.285
-0.355
-0.385
-0.4
-0.435
-0.455
-0.4
-0.22
-0.03
0.0
-0.065
-0.155
-0.215
-0.23
-0.285
-0.35
-0.255
-0.065
-0.08
-0.295
-0.505
-0.505
-0.385
-0.22
-0.095
-0.01
0.05
0.015
-0.16
-0.345
-0.395
-0.38
-0.36
-0.28
-0.15
-0.1
-0.14
-0.145
-0.095
-0.095
-0.185
-0.26
-0.295
-0.32
-0.235
-0.045
0.085
0.1
0.055
-0.085
-0.38
-0.66
-0.6
-0.195
0.145
0.135
-0.205
-0.535
-0.505
-0.255
-0.03
0.03
0.055
0.03
-0.09
-0.29
-0.42
-0.385
-0.255
-0.215
-0.245
-0.31
-0.285
-0.145
0.025
0.135
0.065
-0.15
-0.37
-0.44
-0.36
-0.215
-0.02
0.155
0.2
0.09
-0.065
-0.22
-0.33
-0.26
-0.055
0.02
-0.085
-0.185
-0.095
-0.02
-0.07
-0.15
-0.125
0.0
0.12
0.15
0.025
-0.185
-0.35
-0.35
-0.2
-0.04
0.045
0.035
-0.065
-0.255
-0.395
-0.38
-0.225
-0.005
0.105
0.1
0.045
0.055
0.025
-0.075
-0.175
-0.175
-0.115
-0.095
-0.12
-0.1
-0.06
-0.02
-0.05
-0.08
-0.09
-0.07
-0.055
-0.055
-0.055
-0.02
0.015
0.045
0.085
0.12
0.08
-0.02
-0.13
-0.135
-0.005
0.09
-0.035
-0.185
-0.14
0.05
0.16
0.1
-0.015
-0.09
-0.1
-0.045
0.01
0.04
0.04
0.04
0.045
0.085
0.12
0.125
0.09
0.06
0.055
0.09
0.08
0.065
0.07
0.105
0.22
0.33
0.455
0.58
0.73
0.9
1.04
1.14
1.175
1.16
1.12
1.075
1.03
0.96
0.84
0.66
0.445
0.275
0.165
0.085
-0.12
-0.365
-0.435
-0.31
-0.16
-0.09
-0.03
0.065
0.115
0.01
-0.19
-0.38
-0.48
-0.54
-0.53
-0.51
-0.455
-0.42
-0.405
-0.41
-0.415
-0.415
-0.4
-0.41
-0.4
-0.4
-0.405
-0.41
-0.41
-0.405
-0.42
-0.445
-0.44
-0.455
-0.435
-0.42
-0.405
-0.43
-0.47
-0.495
-0.52
-0.535
-0.535
-0.56
-0.56
-0.55
-0.53
-0.51
-0.5
-0.5
-0.485
-0.435
-0.355
-0.3
-0.31
-0.37
-0.395
-0.365
-0.3
-0.22
-0.165
-0.15
-0.175
-0.335
-0.595
-0.78
-0.845
-0.845
-0.805
-0.715
-0.635
-0.575
-0.55
-0.525
-0.51
-0.465
-0.45
-0.45
-0.465
-0.465
-0.475
-0.46
-0.415
-0.42
-0.44
-0.455
-0.445
-0.445
-0.43
-0.43
-0.435
-0.435
-0.435
-0.395
-0.355
-0.305
-0.265
-0.225
-0.25
-0.335
-0.395
-0.405
-0.37
-0.36
-0.355
-0.345
-0.34
-0.315
-0.27
-0.245
-0.245
-0.31
-0.405
-0.5
-0.585
-0.58
-0.545
-0.485
-0.435
-0.425
-0.43
-0.445
-0.425
-0.405
-0.385
-0.375
-0.39
-0.42
-0.425
-0.395
-0.365
-0.345
-0.36
-0.38
-0.38
-0.385
-0.355
-0.35
-0.315
-0.32
-0.335
-0.39
-0.375
-0.305
-0.245
-0.23
-0.305
-0.355
-0.35
-0.29
-0.23
-0.205
-0.255
-0.33
-0.385
-0.425
-0.43
-0.385
-0.34
-0.295
-0.3
-0.275
-0.26
-0.265
-0.275
-0.27
-0.255
-0.265
-0.27
-0.26
-0.275
-0.285
-0.315
-0.35
-0.38
-0.42
-0.42
-0.385
-0.335
-0.29
-0.27
-0.275
-0.275
-0.285
-0.31
-0.36
-0.415
-0.455
-0.445
-0.385
-0.37
-0.41
-0.43
-0.405
-0.33
-0.28
-0.345
-0.455
-0.535
-0.535
-0.48
-0.435
-0.39
-0.395
-0.45
-0.535
-0.565
-0.515
-0.425
-0.38
-0.375
-0.375
-0.4
-0.405
-0.39
-0.385
-0.355
-0.365
-0.34
-0.31
-0.275
-0.27
-0.305
-0.325
-0.33
-0.37
-0.42
-0.49
-0.495
-0.455
-0.36
-0.28
-0.205
-0.13
-0.005
0.12
0.235
0.35
0.505
0.66
0.755
0.815
0.82
0.785
0.72
0.545
0.355
0.12
-0.125
-0.28
-0.325
-0.36
-0.42
-0.49
-0.49
-0.46
-0.46
-0.485
-0.53
-0.54
-0.5
-0.48
-0.445
-0.47
-0.51
-0.53
-0.52
-0.465
-0.435
-0.4
-0.395
-0.46
-0.59
-0.665
-0.695
-0.655
-0.62
-0.62
-0.645
-0.635
-0.625
-0.625
-0.66
-0.665
-0.655
-0.64
-0.655
-0.67
-0.68
-0.67
-0.655
-0.66
-0.64
-0.635
-0.65
-0.675
-0.67
-0.67
-0.655
-0.645
-0.645
-0.675
-0.67
-0.635
-0.605
-0.615
-0.65
-0.665
-0.64
-0.6
-0.54
-0.5
-0.485
-0.45
-0.425
-0.435
-0.48
-0.525
-0.57
-0.585
-0.525
-0.4
-0.295
-0.295
-0.375
-0.45
-0.525
-0.6
-0.635
-0.61
-0.575
-0.525
-0.495
-0.445
-0.415
-0.4
-0.42
-0.43
-0.42
-0.385
-0.335
-0.32
-0.335
-0.37
-0.435
-0.45
-0.39
-0.34
-0.345
-0.365
-0.39
-0.39
-0.36
-0.325
-0.3
-0.305
-0.34
-0.385
-0.41
-0.4
-0.365
-0.36
-0.38
-0.39
-0.375
-0.335
-0.315
-0.28
-0.205
-0.115
-0.05
-0.04
-0.165
-0.36
-0.495
-0.52
-0.495
-0.455
-0.4
-0.39
-0.4
-0.415
-0.385
-0.35
-0.35
-0.355
-0.39
-0.39
-0.35
-0.315
-0.29
-0.325
-0.37
-0.37
-0.345
-0.275
-0.29
-0.31
-0.33
-0.325
-0.285
-0.26
-0.285
-0.34
-0.36
-0.32
-0.275
-0.255
-0.265
-0.285
-0.275
-0.235
-0.2
-0.175
-0.12
-0.12
-0.175
-0.3
-0.395
-0.415
-0.39
-0.39
-0.385
-0.36
-0.3
-0.255
-0.245
-0.21
-0.2
-0.225
-0.265
-0.31
-0.335
-0.34
-0.325
-0.295
-0.275
-0.265
-0.27
-0.25
-0.245
-0.265
-0.305
-0.355
-0.36
-0.31
-0.27
-0.26
-0.255
-0.265
-0.28
-0.305
-0.32
-0.29
-0.265
-0.245
-0.26
-0.27
-0.265
-0.265
-0.27
-0.265
-0.26
-0.23
-0.23
-0.23
-0.22
-0.225
-0.22
-0.205
-0.17
-0.075
0.04
0.165
0.29
0.405
0.535
0.685
0.845
0.97
1.07
1.065
1.045
0.98
0.915
0.8
0.595
0.31
0.015
-0.115
-0.12
-0.14
-0.195
-0.285
-0.325
-0.34
-0.35
-0.36
-0.35
-0.365
-0.35
-0.35
-0.35
-0.345
-0.32
-0.32
-0.315
-0.295
-0.255
-0.155
-0.05
-0.025
-0.08
-0.135
-0.265
-0.47
-0.685
-0.8
-0.805
-0.76
-0.68
-0.615
-0.575
-0.545
-0.54
-0.515
-0.51
-0.48
-0.475
-0.46
-0.43
-0.44
-0.475
-0.5
-0.495
-0.45
-0.385
-0.375
-0.385
-0.41
-0.42
-0.405
-0.39
-0.37
-0.36
-0.34
-0.335
-0.335
-0.33
-0.325
-0.31
-0.3
-0.305
-0.3
-0.255
-0.145
-0.08
-0.13
-0.28
-0.44
-0.52
-0.545
-0.555
-0.52
-0.475
-0.44
-0.395
-0.37
-0.375
-0.4
-0.405
-0.385
-0.355
-0.33
-0.3
-0.285
-0.26
-0.24
-0.21
-0.15
-0.09
-0.1
-0.12
-0.1
-0.06
-0.035
-0.04
-0.075
-0.075
-0.09
-0.17
-0.25
-0.255
-0.19
-0.135
-0.06
-0.025
-0.03
-0.125
-0.24
-0.36
-0.43
-0.425
-0.35
-0.245
-0.215
-0.25
-0.285
-0.33
-0.33
-0.315
-0.285
-0.285
-0.29
-0.285
-0.245
-0.2
-0.125
-0.04
0.045
0.075
0.01
-0.055
-0.06
0.03
0.085
0.115
0.065
-0.1
-0.255
-0.345
-0.395
-0.39
-0.415
-0.41
-0.395
-0.39
-0.37
-0.32
-0.27
-0.29
-0.365
-0.45
-0.44
-0.375
-0.275
-0.225
-0.225
-0.23
-0.255
-0.265
-0.255
-0.235
-0.23
-0.23
-0.235
-0.235
-0.22
-0.19
-0.17
-0.145
-0.205
-0.23
-0.24
-0.225
-0.185
-0.165
-0.16
-0.14
-0.125
-0.135
-0.18
-0.24
-0.31
-0.375
-0.435
-0.45
-0.46
-0.445
-0.375
-0.31
-0.27
-0.255
-0.275
-0.33
-0.365
-0.375
-0.355
-0.31
-0.245
-0.135
-0.02
0.0
-0.02
-0.11
-0.235
-0.335
-0.355
-0.305
-0.225
-0.17
-0.185
-0.25
-0.29
-0.285
-0.255
-0.215
-0.195
-0.14
-0.155
-0.22
-0.325
-0.43
-0.485
-0.51
-0.475
-0.435
-0.395
-0.325
-0.27
-0.25
-0.23
-0.185
-0.125
-0.13
-0.165
-0.175
-0.105
-0.065
-0.125
-0.23
-0.305
-0.335
-0.265
-0.115
0.08
0.285
0.5
0.665
0.735
0.76
0.82
0.91
0.955
0.905
0.81
0.725
0.625
0.39
0.07
-0.235
-0.365
-0.38
-0.33
-0.29
-0.275
-0.285
-0.31
-0.32
-0.32
-0.295
-0.25
-0.14
-0.03
-0.01
-0.095
-0.245
-0.385
-0.49
-0.51
-0.465
-0.345
-0.29
-0.395
-0.58
-0.695
-0.66
-0.58
-0.525
-0.505
-0.465
-0.415
-0.38
-0.38
-0.43
-0.455
-0.46
-0.44
-0.435
-0.42
-0.415
-0.405
-0.395
-0.375
-0.36
-0.36
-0.38
-0.39
-0.385
-0.36
-0.305
-0.245
-0.19
-0.17
-0.235
-0.295
-0.275
-0.23
-0.235
-0.34
-0.415
-0.445
-0.435
-0.365
-0.275
-0.205
-0.2
-0.155
-0.12
-0.145
-0.27
-0.45
-0.555
-0.535
-0.435
-0.28
-0.145
-0.14
-0.205
-0.28
-0.33
-0.37
-0.405
-0.41
-0.36
-0.275
-0.185
-0.15
-0.15
-0.155
-0.16
-0.18
-0.17
-0.11
-0.03
-0.005
-0.04
-0.105
-0.175
-0.225
-0.265
-0.255
-0.225
-0.18
-0.165
-0.185
-0.215
-0.195
-0.14
-0.065
0.0
0.005
-0.1
-0.195
-0.285
-0.305
-0.255
-0.18
-0.13
-0.14
-0.125
-0.145
-0.11
-0.01
0.08
0.095
0.04
-0.09
-0.225
-0.35
-0.345
-0.26
-0.18
-0.12
-0.115
-0.095
-0.105
-0.145
-0.18
-0.215
-0.195
-0.155
-0.13
-0.095
-0.095
-0.095
-0.085
-0.09
-0.08
-0.11
-0.125
-0.1
-0.035
0.04
0.07
0.115
0.18
0.185
0.1
-0.045
-0.16
-0.235
-0.255
-0.255
-0.235
-0.21
-0.155
-0.095
-0.035
-0.05
-0.1
-0.135
-0.13
-0.085
-0.055
-0.075
-0.11
-0.125
-0.1
-0.045
-0.025
-0.04
-0.065
-0.085
-0.08
-0.03
0.07
0.17
0.185
0.105
-0.05
-0.165
-0.185
-0.155
-0.085
-0.01
0.02
0.0
-0.07
-0.14
-0.195
-0.205
-0.15
-0.085
-0.04
0.03
0.075
0.1
0.07
0.0
-0.05
-0.055
0.0
0.075
0.12
0.105
0.055
0.04
0.06
0.065
0.08
0.125
0.22
0.37
0.545
0.76
1.015
1.23
1.34
1.295
1.18
1.065
0.965
0.88
0.725
0.48
0.215
0.025
-0.055
-0.075
-0.065
-0.07
-0.045
-0.015
-0.02
-0.075
-0.135
-0.165
-0.155
-0.1
-0.025
0.035
0.095
0.045
-0.025
-0.095
-0.13
-0.11
-0.09
-0.085
-0.11
-0.185
-0.26
-0.29
-0.265
-0.205
-0.11
-0.03
-0.045
-0.09
-0.16
-0.21
-0.21
-0.21
-0.215
-0.25
-0.27
-0.28
-0.275
-0.225
-0.185
-0.17
-0.195
-0.215
-0.2
-0.19
-0.17
-0.15
-0.145
-0.17
-0.16
-0.13
-0.1
-0.09
-0.105
-0.125
-0.085
-0.035
0.03
0.065
0.035
-0.025
-0.1
-0.125
-0.07
-0.02
0.0
0.055
0.15
0.255
0.23
0.11
-0.045
-0.1
-0.065
0.0
