Lead II
-0.22
-0.225
-0.24
-0.25
-0.25
-0.265
-0.275
-0.3
-0.3
-0.29
-0.295
-0.305
-0.32
-0.345
-0.345
-0.32
-0.32
-0.325
-0.34
-0.35
-0.34
-0.34
-0.33
-0.34
-0.35
-0.37
-0.355
-0.345
-0.335
-0.33
-0.36
-0.365
-0.36
-0.35
-0.34
-0.345
-0.35
-0.36
-0.345
-0.34
-0.31
-0.315
-0.32
-0.32
-0.33
-0.31
-0.305
-0.3
-0.325
-0.305
-0.285
-0.27
-0.25
-0.25
-0.265
-0.255
-0.245
-0.23
-0.22
-0.21
-0.215
-0.22
-0.2
-0.19
-0.155
-0.15
-0.17
-0.17
-0.155
-0.155
-0.14
-0.13
-0.14
-0.11
-0.11
-0.095
-0.075
-0.08
-0.085
-0.1
-0.075
-0.05
-0.045
-0.04
-0.045
-0.055
-0.04
-0.035
-0.04
-0.035
-0.055
-0.05
-0.045
-0.035
-0.015
-0.045
-0.065
-0.075
-0.07
-0.07
-0.07
-0.095
-0.105
-0.125
-0.115
-0.105
-0.095
-0.12
-0.14
-0.15
-0.155
-0.14
-0.135
-0.165
-0.16
-0.19
-0.175
-0.18
-0.16
-0.175
-0.185
-0.185
-0.19
-0.19
-0.17
-0.185
-0.19
-0.205
-0.18
-0.165
-0.15
-0.16
-0.17
-0.18
-0.17
-0.16
-0.15
-0.14
-0.14
-0.145
-0.13
-0.1
-0.08
-0.075
-0.08
-0.08
-0.055
-0.04
-0.005
0.015
0.03
0.045
0.085
0.13
0.2
0.235
0.275
0.32
0.385
0.47
0.54
0.595
0.63
0.7
0.765
0.82
0.88
0.87
0.845
0.785
0.715
0.655
0.59
0.5
0.37
0.235
0.09
-0.06
-0.18
-0.28
-0.36
-0.42
-0.45
-0.48
-0.48
-0.47
-0.475
-0.475
-0.47
-0.465
-0.45
-0.435
-0.46
-0.475
-0.48
-0.455
-0.45
-0.45
-0.48
-0.485
-0.48
-0.475
-0.46
-0.47
-0.485
-0.495
-0.47
-0.465
-0.43
-0.44
-0.455
-0.47
-0.48
-0.46
-0.45
-0.48
-0.49
-0.495
-0.5
-0.505
-0.475
-0.49
-0.525
-0.53
-0.52
-0.505
-0.505
-0.515
-0.53
-0.545
-0.545
-0.53
-0.515
-0.52
-0.54
-0.56
-0.55
-0.525
-0.515
-0.53
-0.535
-0.535
-0.53
-0.51
-0.48
-0.48
-0.49
-0.48
-0.45
-0.435
-0.405
-0.395
-0.395
-0.395
-0.375
-0.345
-0.32
-0.315
-0.295
-0.295
-0.28
-0.265
-0.245
-0.235
-0.24
-0.265
-0.24
-0.23
-0.21
-0.205
-0.22
-0.225
-0.22
-0.21
-0.2
-0.21
-0.23
-0.24
-0.235
-0.22
-0.22
-0.23
-0.25
-0.275
-0.27
-0.275
-0.255
-0.26
-0.275
-0.285
-0.285
-0.275
-0.265
-0.27
-0.285
-0.305
-0.3
-0.29
-0.275
-0.3
-0.315
-0.31
-0.315
-0.305
-0.285
-0.305
-0.33
-0.34
-0.32
-0.315
-0.305
-0.3
-0.3
-0.3
-0.3
-0.27
-0.265
-0.28
-0.28
-0.3
-0.3
-0.265
-0.25
-0.265
-0.265
-0.27
-0.275
-0.26
-0.245
-0.25
-0.27
-0.27
-0.285
-0.27
-0.27
-0.28
-0.295
-0.3
-0.3
-0.285
-0.27
-0.28
-0.295
-0.32
-0.32
-0.31
-0.285
-0.305
-0.31
-0.325
-0.32
-0.305
-0.305
-0.315
-0.325
-0.33
-0.33
-0.325
-0.33
-0.335
-0.355
-0.35
-0.34
-0.315
-0.31
-0.32
-0.355
-0.36
-0.35
-0.365
-0.335
-0.325
-0.355
-0.36
-0.345
-0.34
-0.33
-0.34
-0.35
-0.36
-0.355
-0.35
-0.345
-0.34
-0.36
-0.37
-0.355
-0.345
-0.345
-0.34
-0.35
-0.35
-0.355
-0.345
-0.335
-0.355
-0.36
-0.365
-0.355
-0.35
-0.335
-0.34
-0.335
-0.35
-0.35
-0.33
-0.33
-0.345
-0.345
-0.345
-0.35
-0.34
-0.32
-0.33
-0.345
-0.36
-0.355
-0.345
-0.355
-0.32
-0.34
-0.35
-0.345
-0.325
-0.3
-0.33
-0.33
-0.325
-0.33
-0.3
-0.32
-0.31
-0.31
-0.33
-0.32
-0.31
-0.305
-0.3
-0.32
-0.325
-0.32
-0.29
-0.29
-0.29
-0.315
-0.32
-0.31
-0.305
-0.295
-0.285
-0.3
-0.315
-0.325
-0.3
-0.3
-0.29
-0.31
-0.325
-0.315
-0.3
-0.285
-0.28
-0.295
-0.315
-0.295
-0.29
-0.275
-0.265
-0.305
-0.3
-0.29
-0.275
-0.245
-0.265
-0.255
-0.275
-0.26
-0.22
-0.21
-0.195
-0.205
-0.21
-0.185
-0.165
-0.15
-0.145
-0.155
-0.17
-0.125
-0.08
-0.06
-0.05
-0.065
-0.085
-0.07
-0.045
-0.035
-0.035
-0.06
-0.095
-0.09
-0.095
-0.1
-0.135
-0.17
-0.185
-0.175
-0.175
-0.17
-0.185
-0.195
-0.205
-0.21
-0.205
-0.195
-0.19
-0.205
-0.205
-0.205
-0.18
-0.165
-0.18
-0.185
-0.19
-0.16
-0.105
-0.005
0.11
0.245
0.4
0.585
0.73
0.83
0.875
0.875
0.845
0.765
0.655
0.475
0.255
0.015
-0.145
-0.23
-0.22
-0.21
-0.23
-0.28
-0.3
-0.285
-0.28
-0.275
-0.29
-0.32
-0.32
-0.315
-0.32
-0.32
-0.305
-0.32
-0.335
-0.35
-0.345
-0.34
-0.345
-0.36
-0.365
-0.335
-0.335
-0.32
-0.345
-0.36
-0.365
-0.36
-0.35
-0.325
-0.335
-0.365
-0.37
-0.355
-0.34
-0.34
-0.34
-0.35
-0.345
-0.35
-0.335
-0.32
-0.315
-0.32
-0.325
-0.325
-0.305
-0.32
-0.315
-0.32
-0.31
-0.305
-0.28
-0.27
-0.29
-0.305
-0.305
-0.3
-0.275
-0.255
-0.24
-0.26
-0.25
-0.24
-0.205
-0.205
-0.195
-0.21
-0.195
-0.195
-0.17
-0.16
-0.165
-0.155
-0.155
-0.125
-0.11
-0.095
-0.1
-0.115
-0.105
-0.085
-0.065
-0.05
-0.04
-0.055
-0.04
-0.035
-0.02
-0.005
0.0
-0.015
-0.025
-0.025
-0.015
0.0
0.0
-0.02
-0.045
-0.04
-0.03
-0.03
-0.04
-0.055
-0.065
-0.06
-0.06
-0.055
-0.075
-0.1
-0.115
-0.125
-0.13
-0.105
-0.12
-0.155
-0.16
-0.155
-0.145
-0.145
-0.17
-0.195
-0.205
-0.21
-0.19
-0.175
-0.185
-0.185
-0.2
-0.215
-0.2
-0.19
-0.185
-0.19
-0.175
-0.17
-0.15
-0.135
-0.13
-0.13
-0.13
-0.115
-0.085
-0.065
-0.055
-0.045
-0.05
-0.035
-0.01
0.045
0.065
0.095
0.13
0.195
0.27
0.35
0.42
0.48
0.53
0.62
0.71
0.79
0.83
0.895
0.955
1.035
1.11
1.15
1.14
1.115
1.04
0.96
0.885
0.795
0.67
0.505
0.345
0.185
0.03
-0.07
-0.17
-0.255
-0.34
-0.355
-0.36
-0.385
-0.395
-0.425
-0.42
-0.405
-0.39
-0.38
-0.41
-0.425
-0.445
-0.455
-0.44
-0.44
-0.45
-0.475
-0.495
-0.495
-0.49
-0.49
-0.515
-0.54
-0.555
-0.545
-0.53
-0.51
-0.53
-0.555
-0.55
-0.535
-0.52
-0.5
-0.5
-0.505
-0.53
-0.525
-0.515
-0.51
-0.52
-0.535
-0.54
-0.53
-0.54
-0.515
-0.535
-0.54
-0.55
-0.54
-0.53
-0.53
-0.525
-0.545
-0.545
-0.54
-0.515
-0.505
-0.495
-0.49
-0.505
-0.475
-0.47
-0.445
-0.435
-0.435
-0.43
-0.41
-0.385
-0.35
-0.335
-0.33
-0.325
-0.31
-0.28
-0.25
-0.23
-0.24
-0.23
-0.225
-0.2
-0.185
-0.195
-0.2
-0.2
-0.205
-0.2
-0.185
-0.21
-0.215
-0.22
-0.205
-0.19
-0.19
-0.205
-0.215
-0.235
-0.245
-0.225
-0.225
-0.235
-0.24
-0.25
-0.245
-0.24
-0.225
-0.22
-0.25
-0.25
-0.245
-0.23
-0.215
-0.23
-0.255
-0.27
-0.26
-0.245
-0.22
-0.235
-0.225
-0.235
-0.23
-0.22
-0.225
-0.235
-0.23
-0.25
-0.245
-0.22
-0.21
-0.21
-0.22
-0.23
-0.225
-0.21
-0.205
-0.215
-0.22
-0.23
-0.22
-0.21
-0.2
-0.2
-0.22
-0.23
-0.235
-0.235
-0.24
-0.235
-0.255
-0.255
-0.245
-0.23
-0.22
-0.24
-0.27
-0.29
-0.285
-0.255
-0.27
-0.27
-0.275
-0.285
-0.275
-0.265
-0.26
-0.275
-0.285
-0.29
-0.3
-0.275
-0.275
-0.27
-0.28
-0.29
-0.275
-0.27
-0.255
-0.27
-0.29
-0.3
-0.305
-0.29
-0.265
-0.26
-0.28
-0.3
-0.295
-0.28
-0.28
-0.275
-0.29
-0.3
-0.305
-0.285
-0.28
-0.275
-0.29
-0.31
-0.29
-0.285
-0.27
-0.28
-0.295
-0.3
-0.29
-0.275
-0.26
-0.265
-0.27
-0.285
-0.285
-0.27
-0.265
-0.28
-0.295
-0.305
-0.3
-0.295
-0.28
-0.29
-0.29
-0.3
-0.3
-0.305
-0.28
-0.28
-0.275
-0.285
-0.29
-0.27
-0.27
-0.285
-0.29
-0.295
-0.285
-0.285
-0.28
-0.28
-0.285
-0.285
-0.28
-0.27
-0.255
-0.26
-0.275
-0.29
-0.275
-0.275
-0.255
-0.26
-0.28
-0.305
-0.305
-0.28
-0.265
-0.28
-0.275
-0.285
-0.285
-0.29
-0.275
-0.285
-0.305
-0.31
-0.305
-0.28
-0.265
-0.275
-0.285
-0.305
-0.28
-0.255
-0.245
-0.27
-0.285
-0.29
-0.275
-0.275
-0.27
-0.28
-0.29
-0.295
-0.305
-0.285
-0.26
-0.28
-0.28
-0.285
-0.295
-0.27
-0.25
-0.255
-0.255
-0.27
-0.29
-0.27
-0.235
-0.245
-0.245
-0.26
-0.245
-0.235
-0.22
-0.22
-0.225
-0.235
-0.21
-0.185
-0.155
-0.145
-0.15
-0.16
-0.165
-0.14
-0.11
-0.085
-0.08
-0.085
-0.07
-0.075
-0.075
-0.07
-0.09
-0.11
-0.125
-0.135
-0.125
-0.155
-0.185
-0.195
-0.215
-0.21
-0.205
-0.225
-0.24
-0.24
-0.225
-0.21
-0.21
-0.225
-0.255
-0.255
-0.255
-0.26
-0.245
-0.26
-0.245
-0.225
-0.13
0.01
0.21
0.4
0.58
0.71
0.835
0.9
0.92
0.86
0.76
0.595
0.375
0.11
-0.135
-0.28
-0.32
-0.315
-0.31
-0.32
-0.33
-0.34
-0.35
-0.365
-0.375
-0.375
-0.38
-0.395
-0.41
-0.435
-0.42
-0.425
-0.42
-0.42
-0.455
-0.44
-0.445
-0.44
-0.44
-0.44
-0.47
-0.475
-0.475
-0.46
-0.44
-0.44
-0.47
-0.475
-0.465
-0.445
-0.43
-0.45
-0.46
-0.47
-0.46
-0.45
-0.45
-0.475
-0.48
-0.475
-0.455
-0.445
-0.435
-0.44
-0.455
-0.455
-0.44
-0.43
-0.41
-0.42
-0.42
-0.425
-0.395
-0.38
-0.36
-0.38
-0.365
-0.37
-0.345
-0.325
-0.3
-0.305
-0.31
-0.32
-0.315
-0.29
-0.265
-0.27
-0.26
-0.265
-0.255
-0.22
-0.21
-0.205
-0.22
-0.215
-0.2
-0.17
-0.15
-0.16
-0.17
-0.19
-0.19
-0.17
-0.145
-0.15
-0.18
-0.185
-0.19
-0.18
-0.16
-0.17
-0.2
-0.21
-0.21
-0.19
-0.195
-0.2
-0.23
-0.25
-0.25
-0.25
-0.25
-0.26
-0.29
-0.31
-0.315
-0.3
-0.3
-0.31
-0.33
-0.34
-0.33
-0.33
-0.315
-0.32
-0.335
-0.335
-0.33
-0.315
-0.305
-0.305
-0.32
-0.33
-0.315
-0.29
-0.27
-0.265
-0.265
-0.275
-0.245
-0.215
-0.185
-0.205
-0.185
-0.18
-0.145
-0.115
-0.07
-0.035
0.01
0.07
0.155
0.24
0.325
0.4
0.475
0.55
0.63
0.73
0.82
0.9
0.93
0.955
0.96
0.925
0.88
0.765
0.645
0.5
0.34
0.185
0.015
-0.15
-0.31
-0.41
-0.485
-0.515
-0.535
-0.55
-0.565
-0.575
-0.575
-0.565
-0.57
-0.59
-0.605
-0.64
-0.64
-0.63
-0.615
-0.625
-0.665
-0.675
-0.685
-0.67
-0.67
-0.68
-0.705
-0.705
-0.71
-0.705
-0.67
-0.68
-0.675
-0.685
-0.675
-0.655
-0.65
-0.65
-0.675
-0.705
-0.7
-0.7
-0.685
-0.705
-0.725
-0.735
-0.74
-0.725
-0.715
-0.72
-0.735
-0.74
-0.75
-0.73
-0.745
-0.755
-0.765
-0.775
-0.76
-0.74
-0.735
-0.73
-0.725
-0.75
-0.735
-0.7
-0.665
-0.665
-0.645
-0.65
-0.63
-0.595
-0.585
-0.55
-0.55
-0.535
-0.53
-0.51
-0.485
-0.49
-0.475
-0.465
-0.46
-0.44
-0.4
-0.42
-0.405
-0.42
-0.41
-0.385
-0.385
-0.4
-0.415
-0.425
-0.41
-0.4
-0.375
-0.38
-0.39
-0.4
-0.39
-0.38
-0.375
-0.39
-0.4
-0.41
-0.39
-0.39
-0.37
-0.385
-0.395
-0.405
-0.395
-0.38
-0.36
-0.365
-0.375
-0.405
-0.405
-0.38
-0.37
-0.365
-0.375
-0.395
-0.385
-0.37
-0.345
-0.34
-0.345
-0.365
-0.365
-0.35
-0.32
-0.33
-0.35
-0.36
-0.345
-0.33
-0.33
-0.34
-0.345
-0.355
-0.36
-0.33
-0.335
-0.335
-0.35
-0.37
-0.355
-0.335
-0.325
-0.335
-0.35
-0.36
-0.35
-0.33
-0.34
-0.345
-0.36
-0.37
-0.365
-0.36
-0.345
-0.355
-0.38
-0.375
-0.365
-0.37
-0.36
-0.37
-0.375
-0.4
-0.385
-0.38
-0.365
-0.36
-0.39
-0.405
-0.4
-0.38
-0.37
-0.38
-0.395
-0.415
-0.415
-0.405
-0.38
-0.38
-0.41
-0.405
-0.415
-0.4
-0.38
-0.395
-0.4
-0.41
-0.42
-0.42
-0.395
-0.37
-0.4
-0.395
-0.39
-0.38
-0.39
-0.395
-0.4
-0.41
-0.39
-0.375
-0.375
-0.395
-0.405
-0.425
-0.405
-0.4
-0.395
-0.395
-0.43
-0.425
-0.415
-0.405
-0.39
-0.4
-0.42
-0.425
-0.405
-0.395
-0.385
-0.395
-0.415
-0.415
-0.41
-0.385
-0.38
-0.41
-0.43
-0.43
-0.42
-0.4
-0.375
-0.38
-0.42
-0.42
-0.41
-0.4
-0.4
-0.395
-0.415
-0.405
-0.415
-0.39
-0.385
-0.4
-0.4
-0.415
-0.405
-0.39
-0.375
-0.37
-0.385
-0.42
-0.39
-0.385
-0.37
-0.38
-0.395
-0.41
-0.39
-0.375
-0.36
-0.365
-0.395
-0.41
-0.405
-0.385
-0.37
-0.365
-0.38
-0.39
-0.39
-0.365
-0.34
-0.35
-0.345
-0.335
-0.32
-0.31
-0.295
-0.285
-0.3
-0.3
-0.3
-0.26
-0.215
-0.195
-0.205
-0.22
-0.21
-0.21
-0.2
-0.2
-0.21
-0.235
-0.245
-0.255
-0.255
-0.28
-0.305
-0.315
-0.32
-0.315
-0.315
-0.32
-0.34
-0.345
-0.34
-0.315
-0.29
-0.295
-0.31
-0.325
-0.31
-0.285
-0.255
-0.21
-0.14
-0.005
0.205
0.435
0.635
0.78
0.85
0.86
0.835
0.76
0.615
0.375
0.11
-0.16
-0.315
-0.355
-0.33
-0.345
-0.39
-0.41
-0.425
-0.415
-0.415
-0.425
-0.445
-0.465
-0.465
-0.475
-0.465
-0.475
-0.48
-0.495
-0.495
-0.485
-0.49
-0.51
-0.5
-0.505
-0.515
-0.495
-0.495
-0.505
-0.52
-0.55
-0.525
-0.515
-0.5
-0.5
-0.49
-0.495
-0.495
-0.495
-0.51
-0.5
-0.495
-0.5
-0.51
-0.495
-0.485
-0.485
-0.485
-0.475
-0.47
-0.445
-0.445
-0.455
-0.455
-0.45
-0.43
-0.425
-0.415
-0.415
-0.41
-0.415
-0.41
-0.38
-0.375
-0.36
-0.35
-0.355
-0.35
-0.34
-0.32
-0.32
-0.31
-0.305
-0.295
-0.285
-0.27
-0.26
-0.255
-0.25
-0.23
-0.21
-0.195
-0.195
-0.195
-0.19
-0.18
-0.155
-0.16
-0.175
-0.175
-0.185
-0.18
-0.18
-0.155
-0.155
-0.175
-0.19
-0.18
-0.165
-0.175
-0.19
-0.2
-0.215
-0.21
-0.205
-0.21
-0.21
-0.235
-0.245
-0.26
-0.265
-0.26
-0.27
-0.27
-0.29
-0.28
-0.28
-0.275
-0.29
-0.3
-0.31
-0.305
-0.285
-0.28
-0.29
-0.29
-0.305
-0.29
-0.275
-0.265
-0.26
-0.255
-0.26
-0.245
-0.23
-0.215
-0.2
-0.195
-0.17
-0.18
-0.15
-0.135
-0.11
-0.105
-0.085
-0.07
-0.015
0.035
0.08
0.135
0.19
0.25
0.345
0.43
0.505
0.56
0.61
0.72
0.815
0.91
1.015
1.115
1.2
1.26
1.29
1.28
1.185
1.055
0.9
0.74
0.6
0.445
0.255
0.105
-0.05
-0.165
-0.23
-0.245
-0.28
-0.335
-0.38
-0.4
-0.4
-0.39
-0.42
-0.44
-0.465
-0.475
-0.46
-0.46
-0.49
-0.515
-0.535
-0.53
-0.535
-0.525
-0.545
-0.55
-0.545
-0.51
-0.495
-0.5
-0.51
-0.545
-0.565
-0.56
-0.55
-0.555
-0.585
-0.605
-0.62
-0.615
-0.605
-0.6
-0.625
-0.645
-0.67
-0.67
-0.66
-0.65
-0.665
-0.685
-0.72
-0.715
-0.705
-0.695
-0.7
-0.715
-0.75
-0.745
-0.73
-0.745
-0.755
-0.765
-0.775
-0.77
-0.755
-0.735
-0.74
-0.725
-0.73
-0.715
-0.695
-0.665
-0.64
-0.645
-0.63
-0.615
-0.595
-0.57
-0.56
-0.56
-0.545
-0.525
-0.485
-0.465
-0.445
-0.45
-0.45
-0.435
-0.405
-0.4
-0.395
-0.405
-0.42
-0.41
-0.385
-0.36
-0.365
-0.365
-0.38
-0.375
-0.365
-0.36
-0.355
-0.365
-0.36
-0.355
-0.355
-0.325
-0.325
-0.34
-0.345
-0.34
-0.32
-0.31
-0.315
-0.305
-0.305
-0.295
-0.28
-0.26
-0.27
-0.27
-0.27
-0.275
-0.245
-0.23
-0.24
-0.25
-0.26
-0.23
-0.21
-0.21
-0.21
-0.215
-0.22
-0.215
-0.19
-0.165
-0.17
-0.18
-0.185
-0.18
-0.18
-0.16
-0.16
-0.17
-0.2
-0.185
-0.175
-0.17
-0.165
-0.185
-0.19
-0.19
-0.18
-0.14
-0.145
-0.165
-0.18
-0.19
-0.19
-0.18
-0.18
-0.195
-0.21
-0.22
-0.205
-0.21
-0.21
-0.225
-0.23
-0.23
-0.215
-0.215
-0.22
-0.225
-0.245
-0.22
-0.22
-0.21
-0.205
-0.21
-0.235
-0.235
-0.23
-0.225
-0.235
-0.255
-0.255
-0.25
-0.24
-0.24
-0.22
-0.23
-0.25
-0.24
-0.225
-0.2
-0.2
-0.225
-0.25
-0.235
-0.245
-0.235
-0.26
-0.275
-0.275
-0.26
-0.255
-0.265
-0.26
-0.27
-0.255
-0.225
-0.225
-0.205
-0.215
-0.23
-0.245
-0.225
-0.235
-0.22
-0.22
-0.24
-0.25
-0.235
-0.22
-0.205
-0.225
-0.24
-0.27
-0.265
-0.25
-0.225
-0.23
-0.25
-0.265
-0.245
-0.235
-0.215
-0.225
-0.21
-0.23
-0.23
-0.225
-0.205
-0.195
-0.22
-0.225
-0.24
-0.245
-0.225
-0.215
-0.21
-0.225
-0.225
-0.215
-0.195
-0.19
-0.2
-0.195
-0.19
-0.195
-0.185
-0.175
-0.19
-0.2
-0.185
-0.16
-0.135
-0.135
-0.12
-0.11
-0.095
-0.07
-0.065
-0.05
-0.045
-0.015
0.0
0.02
0.05
0.055
0.045
0.035
0.035
0.045
0.03
0.005
-0.025
-0.065
-0.045
-0.065
-0.06
-0.08
-0.115
-0.135
-0.14
-0.115
-0.09
-0.1
-0.115
-0.14
-0.145
-0.14
-0.135
-0.115
-0.155
-0.175
-0.185
-0.13
-0.04
0.09
0.28
0.505
0.75
0.93
1.055
1.145
1.13
1.09
0.965
0.79
0.54
0.24
-0.03
-0.185
-0.2
-0.185
-0.185
-0.21
-0.22
-0.24
-0.23
-0.225
-0.23
-0.235
-0.245
-0.265
-0.26
-0.26
-0.26
-0.26
-0.275
-0.305
-0.33
-0.31
-0.29
-0.285
-0.305
-0.32
-0.33
-0.315
-0.305
-0.305
-0.325
-0.33
-0.33
-0.32
-0.29
-0.305
-0.32
-0.34
-0.33
-0.32
-0.295
-0.305
-0.325
-0.345
-0.33
-0.31
-0.275
-0.275
-0.3
-0.295
-0.31
-0.28
-0.27
-0.28
-0.275
-0.275
-0.275
-0.26
-0.235
-0.24
-0.25
-0.25
-0.235
-0.23
-0.205
-0.21
-0.215
-0.22
-0.22
-0.19
-0.175
-0.165
-0.18
-0.185
-0.17
-0.15
-0.13
-0.13
-0.12
-0.13
-0.13
-0.09
-0.07
-0.07
-0.075
-0.09
-0.075
-0.065
-0.045
-0.045
-0.065
-0.075
-0.065
-0.06
-0.045
-0.04
-0.06
-0.07
-0.065
-0.055
-0.05
-0.06
-0.065
-0.085
-0.095
-0.07
-0.06
-0.08
-0.115
-0.125
-0.115
-0.11
-0.1
-0.115
-0.125
-0.155
-0.155
-0.145
-0.14
-0.15
-0.185
-0.2
-0.21
-0.195
-0.185
-0.195
-0.205
-0.21
-0.205
-0.19
-0.185
-0.185
-0.195
-0.225
-0.22
-0.22
-0.195
-0.19
-0.195
-0.2
-0.185
-0.175
-0.17
-0.17
-0.17
-0.18
-0.16
-0.14
-0.125
-0.12
-0.14
-0.15
-0.135
-0.115
-0.095
-0.095
-0.07
-0.055
-0.035
0.0
0.045
0.07
0.115
0.135
0.175
0.235
0.27
0.3
0.335
0.325
0.295
0.215
0.09
-0.08
-0.27
-0.495
-0.69
-0.835
-0.98
-1.14
-1.275
-1.36
-1.365
-1.33
-1.27
-1.215
-1.175
-1.16
-1.115
-1.07
-1.03
-0.975
-0.93
-0.895
-0.84
-0.78
-0.735
-0.655
-0.585
-0.52
-0.425
-0.35
-0.285
-0.26
-0.245
-0.235
-0.2
-0.17
-0.16
-0.145
-0.17
-0.175
-0.195
-0.18
-0.17
-0.16
-0.175
-0.19
-0.17
-0.14
-0.125
-0.135
-0.145
-0.16
-0.145
-0.12
-0.085
-0.08
-0.065
-0.065
-0.05
-0.025
0.005
0.01
0.02
0.035
0.055
0.1
0.135
0.165
0.165
0.19
0.195
0.235
0.3
0.33
0.355
0.385
0.42
0.46
0.5
0.525
0.565
0.575
0.605
0.635
0.65
0.69
0.68
0.695
0.71
0.72
0.735
0.735
0.73
0.71
0.7
0.695
0.705
0.66
0.65
0.61
0.585
0.57
0.545
0.515
0.485
0.455
0.435
0.415
0.405
0.365
0.33
0.275
0.25
0.24
0.22
0.195
0.165
0.12
0.095
0.08
0.07
0.055
0.02
-0.015
-0.03
-0.04
-0.025
-0.05
-0.07
-0.085
-0.105
-0.11
-0.09
-0.125
-0.155
-0.15
-0.16
-0.155
-0.165
-0.18
-0.2
-0.2
-0.2
-0.19
-0.185
-0.205
-0.22
-0.24
-0.26
-0.23
-0.21
-0.22
-0.24
-0.255
-0.25
-0.245
-0.245
-0.245
-0.265
-0.285
-0.29
-0.28
-0.27
-0.27
-0.295
-0.33
-0.325
-0.315
-0.305
-0.315
-0.335
-0.35
-0.34
-0.34
-0.32
-0.34
-0.355
-0.37
-0.36
-0.36
-0.35
-0.355
-0.39
-0.405
-0.395
-0.395
-0.375
-0.39
-0.405
-0.42
-0.435
-0.4
-0.385
-0.39
-0.395
-0.43
-0.435
-0.43
-0.425
-0.44
-0.435
-0.45
-0.445
-0.435
-0.42
-0.42
-0.42
-0.435
-0.445
-0.435
-0.425
-0.405
-0.425
-0.425
-0.43
-0.425
-0.415
-0.415
-0.435
-0.45
-0.45
-0.455
-0.44
-0.45
-0.46
-0.46
-0.46
-0.455
-0.44
-0.445
-0.44
-0.45
-0.455
-0.44
-0.43
-0.425
-0.44
-0.46
-0.455
-0.445
-0.435
-0.44
-0.455
-0.465
-0.46
-0.44
-0.435
-0.435
-0.43
-0.45
-0.44
-0.425
-0.415
-0.42
-0.44
-0.445
-0.44
-0.425
-0.415
-0.435
-0.45
-0.47
-0.455
-0.445
-0.45
-0.46
-0.46
-0.46
-0.44
-0.44
-0.425
-0.43
-0.435
-0.445
-0.435
-0.42
-0.4
-0.385
-0.4
-0.39
-0.38
-0.355
-0.34
-0.35
-0.35
-0.37
-0.365
-0.345
-0.325
-0.31
-0.315
-0.305
-0.29
-0.265
-0.235
-0.22
-0.215
-0.21
-0.19
-0.175
-0.16
-0.155
-0.165
-0.18
-0.175
-0.19
-0.2
-0.215
-0.26
-0.27
-0.295
-0.3
-0.3
-0.315
-0.34
-0.355
-0.36
-0.35
-0.335
-0.34
-0.335
-0.345
-0.345
-0.33
-0.31
-0.295
-0.325
-0.31
-0.305
-0.265
-0.2
-0.095
0.045
0.25
0.47
0.665
0.815
0.885
0.91
0.865
0.785
0.65
0.435
0.16
-0.12
-0.325
-0.385
-0.37
-0.35
-0.38
-0.41
-0.42
-0.41
-0.41
-0.39
-0.42
-0.435
-0.45
-0.455
-0.46
-0.47
-0.49
-0.495
-0.5
-0.51
-0.49
-0.47
-0.475
-0.495
-0.505
-0.505
-0.47
-0.46
-0.465
-0.485
-0.49
-0.485
-0.475
-0.45
-0.455
-0.475
-0.48
-0.48
-0.47
-0.46
-0.455
-0.455
-0.465
-0.465
-0.45
-0.435
-0.425
-0.44
-0.455
-0.455
-0.44
-0.41
-0.415
-0.42
-0.435
-0.425
-0.4
-0.385
-0.37
-0.36
-0.37
-0.37
-0.35
-0.33
-0.34
-0.335
-0.33
-0.325
-0.32
-0.29
-0.29
-0.28
-0.29
-0.26
-0.245
-0.215
-0.22
-0.225
-0.225
-0.23
-0.185
-0.16
-0.155
-0.155
-0.16
-0.15
-0.135
-0.135
-0.14
-0.135
-0.14
-0.13
-0.115
-0.11
-0.11
-0.145
-0.16
-0.145
-0.13
-0.125
-0.14
-0.16
-0.17
-0.175
-0.175
-0.165
-0.17
-0.185
-0.2
-0.235
-0.23
-0.23
-0.24
-0.25
-0.265
-0.29
-0.295
-0.27
-0.29
-0.3
-0.31
-0.32
-0.31
-0.315
-0.305
-0.325
-0.34
-0.335
-0.315
-0.295
-0.31
-0.31
-0.315
-0.315
-0.3
-0.29
-0.28
-0.275
-0.275
-0.27
-0.235
-0.2
-0.19
-0.185
-0.185
-0.16
-0.14
-0.105
-0.085
-0.05
-0.025
0.02
0.085
0.165
0.235
0.31
0.37
0.455
0.555
0.635
0.72
0.78
0.865
0.95
1.05
1.16
1.255
1.33
1.37
1.41
1.405
1.375
1.31
1.19
1.055
0.895
0.73
0.555
0.375
0.195
0.0
-0.15
-0.235
-0.265
-0.31
-0.355
-0.41
-0.42
-0.395
-0.38
-0.39
-0.415
-0.42
-0.445
-0.46
-0.43
-0.42
-0.44
-0.445
-0.43
-0.425
-0.44
-0.45
-0.5
-0.51
-0.53
-0.51
-0.51
-0.525
-0.55
-0.58
-0.62
-0.63
-0.655
-0.66
-0.68
-0.715
-0.745
-0.735
-0.73
-0.75
-0.765
-0.795
-0.795
-0.795
-0.79
-0.8
-0.825
-0.865
-0.88
-0.885
-0.89
-0.895
-0.905
-0.94
-0.94
-0.945
-0.945
-0.96
-0.96
-0.975
-0.965
-0.95
-0.935
-0.935
-0.945
-0.95
-0.96
-0.94
-0.915
-0.89
-0.895
-0.885
-0.86
-0.825
-0.79
-0.785
-0.775
-0.77
-0.76
-0.72
-0.7
-0.675
-0.66
-0.66
-0.65
-0.62
-0.595
-0.59
-0.575
-0.565
-0.545
-0.54
-0.53
-0.545
-0.565
-0.57
-0.54
-0.515
-0.475
-0.495
-0.495
-0.505
-0.49
-0.48
-0.465
-0.465
-0.475
-0.475
-0.465
-0.44
-0.42
-0.41
-0.415
-0.43
-0.43
-0.415
-0.4
-0.4
-0.41
-0.42
-0.41
-0.385
-0.35
-0.365
-0.36
-0.39
-0.39
-0.385
-0.355
-0.33
-0.345
-0.355
-0.34
-0.325
-0.295
-0.275
-0.3
-0.29
-0.285
-0.275
-0.255
-0.255
-0.255
-0.265
-0.245
-0.23
-0.215
-0.22
-0.245
-0.245
-0.24
-0.215
-0.195
-0.205
-0.22
-0.23
-0.23
-0.22
-0.215
-0.21
-0.215
-0.215
-0.215
-0.21
-0.195
-0.205
-0.21
-0.23
-0.225
-0.225
-0.235
-0.235
-0.24
-0.255
-0.25
-0.245
-0.23
-0.215
-0.245
-0.25
-0.245
-0.24
-0.23
-0.235
-0.23
-0.245
-0.265
-0.25
-0.24
-0.23
-0.24
-0.245
-0.255
-0.265
-0.245
-0.245
-0.27
-0.275
-0.285
-0.25
-0.23
-0.235
-0.255
-0.26
-0.26
-0.26
-0.26
-0.265
-0.275
-0.28
-0.27
-0.245
-0.255
-0.27
-0.27
-0.285
-0.29
-0.285
-0.255
-0.255
-0.26
-0.27
-0.285
-0.27
-0.26
-0.265
-0.275
-0.275
-0.265
-0.265
-0.245
-0.265
-0.285
-0.285
-0.255
-0.24
-0.235
-0.225
-0.25
-0.28
-0.28
-0.265
-0.245
-0.24
-0.25
-0.255
-0.25
-0.26
-0.225
-0.23
-0.26
-0.275
-0.265
-0.25
-0.235
-0.23
-0.25
-0.26
-0.26
-0.25
-0.245
-0.245
-0.235
-0.23
-0.235
-0.23
-0.225
-0.215
-0.22
-0.225
-0.22
-0.185
-0.15
-0.14
-0.145
-0.165
-0.155
-0.12
-0.07
-0.06
-0.075
-0.07
-0.055
-0.015
0.03
0.05
0.06
0.04
0.045
0.045
0.06
0.065
0.05
0.025
0.03
0.015
0.0
-0.02
-0.07
-0.1
-0.105
-0.1
-0.1
-0.11
-0.14
-0.14
-0.155
-0.16
-0.135
-0.125
-0.115
-0.11
-0.115
-0.1
-0.1
-0.075
-0.09
-0.07
-0.02
0.05
0.17
0.29
0.445
0.62
0.805
0.93
1.02
1.05
1.03
0.975
0.86
0.69
0.44
0.165
-0.095
-0.215
-0.21
-0.165
-0.165
-0.165
-0.205
-0.225
-0.21
-0.205
-0.21
-0.225
-0.23
-0.255
-0.25
-0.235
-0.215
-0.22
-0.245
-0.26
-0.265
-0.255
-0.24
-0.28
-0.275
-0.28
-0.29
-0.26
-0.24
-0.24
-0.25
-0.27
-0.27
-0.265
-0.245
-0.245
-0.255
-0.255
-0.245
-0.24
-0.24
-0.23
-0.235
-0.23
-0.24
-0.21
-0.195
-0.21
-0.215
-0.21
-0.21
-0.195
-0.175
-0.17
-0.165
-0.16
-0.165
-0.13
-0.11
-0.115
-0.13
-0.135
-0.125
-0.1
-0.085
-0.08
-0.055
-0.055
-0.04
-0.02
0.0
0.02
0.015
0.015
0.03
0.05
0.095
0.095
0.105
0.085
0.065
0.09
0.135
0.16
0.17
0.16
0.165
0.175
0.195
0.21
0.2
0.19
0.185
0.195
0.215
0.225
0.2
0.18
0.16
0.155
0.165
0.15
0.135
0.125
0.11
0.12
0.115
0.11
0.09
0.045
0.035
0.035
0.05
0.04
0.02
-0.02
-0.025
-0.03
-0.04
-0.04
-0.06
-0.1
-0.095
-0.08
-0.065
-0.07
-0.105
-0.135
-0.14
-0.115
-0.11
-0.115
-0.1
-0.13
-0.115
-0.095
-0.085
-0.08
-0.075
-0.08
-0.07
-0.06
-0.035
-0.02
-0.02
-0.01
0.0
0.035
0.075
0.1
0.135
0.165
0.22
0.295
0.37
0.455
0.505
0.56
0.635
0.705
0.775
0.85
0.9
0.985
1.065
1.165
1.275
1.38
1.465
1.51
1.495
1.52
1.5
1.455
1.37
1.25
1.09
0.885
0.66
0.42
0.205
0.02
-0.09
-0.13
-0.15
-0.18
-0.24
-0.26
-0.27
-0.26
-0.27
-0.285
-0.32
-0.335
-0.335
-0.35
-0.32
-0.335
-0.365
-0.395
-0.42
-0.42
-0.43
-0.435
-0.475
-0.52
-0.545
-0.57
-0.59
-0.625
-0.66
-0.715
-0.72
-0.735
-0.74
-0.76
-0.795
-0.825
-0.84
-0.83
-0.83
-0.865
-0.875
-0.905
-0.925
-0.93
-0.935
-0.945
-0.96
-0.99
-1.01
-1.02
-1.015
-1.035
-1.07
-1.09
-1.1
-1.095
-1.09
-1.095
-1.11
-1.125
-1.13
-1.115
-1.08
-1.07
-1.09
-1.075
-1.06
-1.04
-1.0
-0.98
-0.96
-0.935
-0.915
-0.875
-0.84
-0.825
-0.805
-0.8
-0.765
-0.735
-0.695
-0.675
-0.67
-0.68
-0.68
-0.645
-0.615
-0.605
-0.59
-0.595
-0.585
-0.55
-0.515
-0.515
-0.52
-0.525
-0.5
-0.485
-0.465
-0.46
-0.455
-0.455
-0.45
-0.445
-0.435
-0.42
-0.425
-0.435
-0.42
-0.415
-0.4
-0.39
-0.385
-0.385
-0.4
-0.37
-0.345
-0.335
-0.35
-0.36
-0.355
-0.35
-0.315
-0.31
-0.3
-0.295
-0.295
-0.28
-0.26
-0.255
-0.25
-0.255
-0.24
-0.22
-0.205
-0.205
-0.21
-0.22
-0.23
-0.21
-0.2
-0.195
-0.205
-0.215
-0.215
-0.195
-0.185
-0.18
-0.2
-0.21
-0.225
-0.205
-0.195
-0.19
-0.215
-0.21
-0.225
-0.23
-0.22
-0.205
-0.215
-0.22
-0.23
-0.235
-0.22
-0.215
-0.23
-0.245
-0.24
-0.235
-0.225
-0.24
-0.24
-0.255
-0.265
-0.24
-0.235
-0.24
-0.255
-0.255
-0.26
-0.25
-0.25
-0.255
-0.26
-0.26
-0.26
-0.245
-0.235
-0.25
-0.275
-0.285
-0.285
-0.275
-0.265
-0.265
-0.27
-0.27
-0.275
-0.265
-0.265
-0.265
-0.27
-0.285
-0.3
-0.285
-0.28
-0.26
-0.27
-0.29
-0.295
-0.285
-0.275
-0.275
-0.285
-0.305
-0.31
-0.285
-0.275
-0.275
-0.29
-0.31
-0.31
-0.28
-0.24
-0.235
-0.25
-0.255
-0.27
-0.26
-0.25
-0.245
-0.26
-0.275
-0.27
-0.255
-0.245
-0.24
-0.25
-0.265
-0.26
-0.245
-0.225
-0.225
-0.235
-0.245
-0.255
-0.245
-0.215
-0.22
-0.24
-0.24
-0.23
-0.23
-0.215
-0.22
-0.24
-0.25
-0.25
-0.215
-0.2
-0.195
-0.2
-0.21
-0.21
-0.195
-0.165
-0.155
-0.155
-0.155
-0.155
-0.11
-0.085
-0.08
-0.065
-0.05
-0.02
0.02
0.065
0.06
0.045
0.01
0.015
0.04
0.045
0.045
0.01
-0.01
-0.04
-0.06
-0.055
-0.06
