Lead II
-0.36
-0.335
-0.295
-0.28
-0.27
-0.255
-0.275
-0.28
-0.27
-0.275
-0.285
-0.285
-0.29
-0.305
-0.31
-0.295
-0.32
-0.355
-0.405
-0.42
-0.425
-0.415
-0.405
-0.425
-0.425
-0.41
-0.415
-0.415
-0.41
-0.435
-0.46
-0.45
-0.445
-0.44
-0.42
-0.43
-0.45
-0.46
-0.46
-0.43
-0.445
-0.46
-0.485
-0.475
-0.455
-0.445
-0.45
-0.46
-0.465
-0.48
-0.475
-0.47
-0.47
-0.465
-0.475
-0.465
-0.46
-0.43
-0.44
-0.415
-0.42
-0.415
-0.405
-0.395
-0.39
-0.39
-0.4
-0.39
-0.4
-0.375
-0.39
-0.385
-0.4
-0.395
-0.395
-0.37
-0.35
-0.375
-0.38
-0.375
-0.385
-0.38
-0.395
-0.405
-0.43
-0.41
-0.415
-0.41
-0.415
-0.455
-0.51
-0.56
-0.56
-0.545
-0.5
-0.49
-0.475
-0.435
-0.385
-0.35
-0.335
-0.32
-0.305
-0.26
-0.185
-0.08
0.05
0.17
0.245
0.295
0.295
0.275
0.225
0.105
0.01
-0.06
-0.11
-0.13
-0.165
-0.195
-0.205
-0.21
-0.215
-0.205
-0.205
-0.195
-0.195
-0.175
-0.145
-0.135
-0.14
-0.18
-0.2
-0.185
-0.185
-0.155
-0.14
-0.145
-0.135
-0.12
-0.12
-0.115
-0.145
-0.145
-0.135
-0.125
-0.12
-0.105
-0.11
-0.11
-0.115
-0.13
-0.125
-0.115
-0.11
-0.095
-0.1
-0.08
-0.05
-0.04
-0.045
-0.065
-0.075
-0.065
-0.055
-0.015
0.005
0.01
-0.005
0.0
0.015
0.03
0.03
-0.01
-0.02
-0.02
-0.01
0.005
0.01
0.015
0.025
0.04
0.035
0.03
0.045
0.05
0.05
0.05
0.065
0.085
0.085
0.08
0.075
0.07
0.06
0.08
0.065
0.06
0.06
0.065
0.06
0.06
0.045
0.03
0.03
0.015
0.035
0.06
0.09
0.115
0.11
0.095
0.1
0.075
0.085
0.055
0.03
0.005
0.01
0.02
0.015
0.0
-0.02
-0.04
-0.045
-0.04
-0.025
-0.05
-0.08
-0.09
-0.09
-0.1
-0.11
-0.12
-0.13
-0.125
-0.135
-0.13
-0.125
-0.12
-0.13
-0.145
-0.19
-0.21
-0.225
-0.23
-0.245
-0.255
-0.255
-0.23
-0.235
-0.225
-0.23
-0.23
-0.24
-0.21
-0.205
-0.205
-0.205
-0.215
-0.2
-0.18
-0.17
-0.18
-0.19
-0.215
-0.235
-0.225
-0.215
-0.21
-0.205
-0.2
-0.175
-0.16
-0.185
-0.22
-0.26
-0.27
-0.26
-0.23
-0.215
-0.195
-0.17
-0.175
-0.19
-0.215
-0.205
-0.165
-0.18
-0.21
-0.235
-0.23
-0.24
-0.245
-0.24
-0.215
-0.195
-0.185
-0.205
-0.2
-0.18
-0.17
-0.19
-0.19
-0.185
-0.185
-0.185
-0.175
-0.16
-0.135
-0.12
-0.11
-0.145
-0.125
-0.085
-0.065
-0.07
-0.105
-0.14
-0.165
-0.17
-0.145
-0.14
-0.145
-0.15
-0.17
-0.145
-0.12
-0.12
-0.155
-0.16
-0.17
-0.165
-0.135
-0.13
-0.145
-0.155
-0.155
-0.125
-0.09
-0.095
-0.105
-0.135
-0.16
-0.165
-0.16
-0.165
-0.155
-0.16
-0.175
-0.165
-0.16
-0.15
-0.14
-0.155
-0.165
-0.18
-0.165
-0.175
-0.175
-0.175
-0.16
-0.16
-0.16
-0.16
-0.14
-0.13
-0.135
-0.12
-0.125
-0.16
-0.175
-0.195
-0.205
-0.195
-0.14
-0.135
-0.14
-0.18
-0.19
-0.165
-0.145
-0.135
-0.135
-0.14
-0.135
-0.115
-0.1
-0.11
-0.135
-0.165
-0.165
-0.17
-0.16
-0.2
-0.245
-0.26
-0.26
-0.25
-0.23
-0.22
-0.21
-0.185
-0.135
-0.085
-0.045
-0.025
0.04
0.13
0.255
0.385
0.525
0.62
0.645
0.62
0.57
0.48
0.395
0.295
0.2
0.15
0.105
0.1
0.105
0.09
0.07
0.035
0.035
0.045
0.075
0.06
0.05
0.045
0.06
0.095
0.11
0.115
0.08
0.065
0.085
0.1
0.12
0.105
0.09
0.065
0.04
0.045
0.055
0.08
0.09
0.085
0.095
0.115
0.155
0.15
0.13
0.12
0.12
0.135
0.165
0.19
0.205
0.195
0.18
0.19
0.23
0.215
0.21
0.2
0.205
0.215
0.2
0.195
0.205
0.2
0.215
0.215
0.24
0.24
0.23
0.225
0.235
0.27
0.3
0.305
0.305
0.28
0.27
0.275
0.29
0.295
0.31
0.31
0.33
0.355
0.38
0.37
0.36
0.335
0.345
0.375
0.395
0.37
0.345
0.33
0.3
0.28
0.275
0.27
0.26
0.23
0.225
0.225
0.25
0.23
0.225
0.21
0.2
0.185
0.165
0.13
0.105
0.08
0.065
0.1
0.14
0.15
0.13
0.13
0.115
0.075
0.055
0.01
-0.025
-0.005
0.015
0.035
0.045
0.035
0.02
-0.01
-0.05
-0.07
-0.08
-0.09
-0.085
-0.065
-0.035
-0.005
-0.01
-0.01
-0.035
-0.07
-0.09
-0.125
-0.115
-0.1
-0.08
-0.075
-0.09
-0.1
-0.075
-0.085
-0.095
-0.095
-0.06
-0.045
-0.035
-0.045
-0.08
-0.1
-0.105
-0.095
-0.085
-0.09
-0.09
-0.07
-0.05
-0.005
0.025
0.005
-0.005
-0.025
-0.065
-0.095
-0.075
-0.08
-0.085
-0.09
-0.08
-0.035
0.045
0.1
0.175
0.265
0.37
0.52
0.665
0.75
0.82
0.91
1.0
1.16
1.3
1.38
1.405
1.415
1.42
1.405
1.355
1.285
1.225
1.165
1.085
1.035
0.985
0.93
0.895
0.88
0.83
0.76
0.68
0.565
0.44
0.3
0.185
0.06
-0.04
-0.155
-0.235
-0.29
-0.315
-0.33
-0.35
-0.37
-0.375
-0.375
-0.395
-0.385
-0.385
-0.405
-0.425
-0.425
-0.425
-0.405
-0.385
-0.415
-0.42
-0.445
-0.46
-0.465
-0.48
-0.495
-0.48
-0.46
-0.44
-0.425
-0.435
-0.455
-0.445
-0.44
-0.43
-0.41
-0.395
-0.415
-0.425
-0.435
-0.445
-0.425
-0.41
-0.42
-0.415
-0.42
-0.42
-0.385
-0.375
-0.395
-0.4
-0.425
-0.44
-0.435
-0.42
-0.42
-0.43
-0.45
-0.455
-0.46
-0.445
-0.45
-0.455
-0.465
-0.46
-0.445
-0.425
-0.435
-0.445
-0.45
-0.455
-0.435
-0.425
-0.43
-0.435
-0.44
-0.44
-0.405
-0.37
-0.355
-0.365
-0.405
-0.41
-0.41
-0.35
-0.33
-0.325
-0.325
-0.315
-0.29
-0.27
-0.28
-0.275
-0.27
-0.26
-0.25
-0.22
-0.225
-0.21
-0.215
-0.215
-0.185
-0.17
-0.17
-0.18
-0.17
-0.16
-0.14
-0.13
-0.135
-0.135
-0.165
-0.155
-0.165
-0.16
-0.16
-0.175
-0.185
-0.175
-0.145
-0.14
-0.14
-0.15
-0.15
-0.16
-0.145
-0.135
-0.125
-0.115
-0.115
-0.13
-0.11
-0.095
-0.1
-0.09
-0.105
-0.105
-0.09
-0.07
-0.075
-0.08
-0.08
-0.08
-0.085
-0.08
-0.085
-0.095
-0.07
-0.075
-0.065
-0.05
-0.07
-0.07
-0.075
-0.065
-0.05
-0.04
-0.05
-0.05
-0.05
-0.065
-0.045
-0.035
-0.03
-0.015
-0.01
-0.01
-0.01
-0.005
-0.015
-0.02
-0.01
0.0
0.015
0.035
0.02
0.005
0.01
0.0
0.02
0.035
0.035
0.035
0.015
-0.005
-0.02
0.0
0.01
0.02
0.015
0.01
0.015
0.035
0.02
-0.005
-0.03
-0.015
0.005
0.0
-0.03
-0.025
-0.055
-0.065
-0.065
-0.05
-0.045
-0.05
-0.06
-0.105
-0.105
-0.09
-0.12
-0.15
-0.14
-0.115
-0.125
-0.095
-0.085
-0.105
-0.135
-0.165
-0.175
-0.175
-0.175
-0.185
-0.185
-0.21
-0.19
-0.175
-0.185
-0.205
-0.205
-0.205
-0.17
-0.16
-0.155
-0.165
-0.2
-0.205
-0.195
-0.16
-0.16
-0.17
-0.18
-0.195
-0.19
-0.175
-0.175
-0.17
-0.175
-0.16
-0.15
-0.145
-0.175
-0.19
-0.235
-0.28
-0.295
-0.3
-0.295
-0.29
-0.32
-0.345
-0.345
-0.35
-0.36
-0.365
-0.365
-0.37
-0.375
-0.36
-0.375
-0.41
-0.435
-0.45
-0.445
-0.435
-0.445
-0.455
-0.46
-0.48
-0.485
-0.475
-0.49
-0.5
-0.535
-0.555
-0.565
-0.545
-0.54
-0.55
-0.57
-0.565
-0.55
-0.53
-0.54
-0.565
-0.58
-0.61
-0.615
-0.61
-0.645
-0.66
-0.685
-0.705
-0.71
-0.75
-0.77
-0.79
-0.83
-0.86
-0.86
-0.865
-0.86
-0.88
-0.91
-0.945
-0.96
-0.995
-1.035
-1.105
-1.135
-1.14
-1.115
-1.085
-1.085
-1.055
-1.005
-0.97
-0.895
-0.795
-0.685
-0.58
-0.43
-0.29
-0.185
-0.145
-0.165
-0.19
-0.235
-0.295
-0.35
-0.365
-0.395
-0.41
-0.41
-0.405
-0.365
-0.33
-0.305
-0.28
-0.265
-0.26
-0.23
-0.195
-0.185
-0.155
-0.125
-0.105
-0.075
-0.055
-0.055
-0.075
-0.045
-0.03
0.02
0.05
0.07
0.09
0.115
0.14
0.175
0.195
0.205
0.21
0.23
0.25
0.29
0.33
0.35
0.36
0.36
0.35
0.37
0.405
0.415
0.425
0.44
0.455
0.45
0.475
0.47
0.46
0.455
0.43
0.455
0.47
0.475
0.475
0.48
0.47
0.47
0.45
0.43
0.415
0.39
0.38
0.365
0.355
0.32
0.295
0.285
0.285
0.29
0.29
0.28
0.25
0.215
0.19
0.18
0.18
0.165
0.13
0.105
0.075
0.045
0.03
-0.01
-0.02
-0.045
-0.08
-0.115
-0.13
-0.145
-0.17
-0.195
-0.215
-0.23
-0.26
-0.3
-0.33
-0.355
-0.385
-0.38
-0.375
-0.39
-0.43
-0.465
-0.5
-0.49
-0.495
-0.48
-0.48
-0.47
-0.47
-0.47
-0.465
-0.475
-0.46
-0.45
-0.45
-0.43
-0.405
-0.41
-0.415
-0.405
-0.405
-0.385
-0.38
-0.35
-0.345
-0.35
-0.365
-0.36
-0.35
-0.35
-0.37
-0.37
-0.35
-0.315
-0.315
-0.32
-0.345
-0.365
-0.375
-0.36
-0.345
-0.365
-0.365
-0.38
-0.395
-0.38
-0.385
-0.415
-0.44
-0.46
-0.475
-0.47
-0.47
-0.485
-0.495
-0.515
-0.535
-0.525
-0.53
-0.53
-0.525
-0.52
-0.525
-0.535
-0.535
-0.555
-0.56
-0.55
-0.55
-0.52
-0.495
-0.495
-0.485
-0.49
-0.49
-0.46
-0.43
-0.425
-0.42
-0.42
-0.425
-0.42
-0.415
-0.435
-0.445
-0.435
-0.44
-0.445
-0.46
-0.465
-0.47
-0.5
-0.505
-0.49
-0.495
-0.5
-0.505
-0.51
-0.535
-0.545
-0.57
-0.59
-0.605
-0.62
-0.625
-0.615
-0.6
-0.615
-0.63
-0.65
-0.665
-0.655
-0.655
-0.655
-0.65
-0.65
-0.655
-0.665
-0.645
-0.655
-0.63
-0.625
-0.6
-0.575
-0.555
-0.585
-0.605
-0.605
-0.61
-0.58
-0.54
-0.525
-0.53
-0.545
-0.56
-0.55
-0.53
-0.525
-0.535
-0.53
-0.535
-0.505
-0.49
-0.485
-0.49
-0.49
-0.495
-0.49
-0.49
-0.49
-0.5
-0.525
-0.555
-0.58
-0.55
-0.51
-0.47
-0.425
-0.38
-0.32
-0.275
-0.21
-0.155
-0.055
0.11
0.3
0.405
0.405
0.375
0.28
0.165
0.045
-0.035
-0.125
-0.18
-0.22
-0.25
-0.25
-0.25
-0.265
-0.28
-0.3
-0.295
-0.295
-0.31
-0.31
-0.305
-0.31
-0.295
-0.305
-0.285
-0.285
-0.285
-0.3
-0.27
-0.255
-0.23
-0.2
-0.195
-0.2
-0.2
-0.175
-0.145
-0.155
-0.15
-0.145
-0.13
-0.11
-0.115
-0.105
-0.085
-0.065
-0.05
-0.03
-0.005
0.0
0.0
0.015
0.025
0.055
0.1
0.135
0.16
0.19
0.2
0.215
0.205
0.205
0.22
0.215
0.24
0.26
0.28
0.275
0.26
0.245
0.245
0.28
0.295
0.3
0.3
0.295
0.28
0.275
0.29
0.275
0.26
0.24
0.245
0.25
0.26
0.255
0.25
0.235
0.225
0.225
0.225
0.235
0.22
0.205
0.17
0.155
0.15
0.135
0.12
0.12
0.115
0.12
0.125
0.12
0.115
0.1
0.085
0.085
0.085
0.075
0.085
0.05
0.05
0.035
0.04
0.025
-0.005
-0.035
-0.04
-0.06
-0.045
-0.055
-0.055
-0.08
-0.11
-0.11
-0.11
-0.14
-0.145
-0.145
-0.165
-0.155
-0.155
-0.17
-0.185
-0.21
-0.2
-0.195
-0.195
-0.18
-0.165
-0.17
-0.165
-0.17
-0.165
-0.16
-0.165
-0.165
-0.17
-0.175
-0.18
-0.2
-0.205
-0.2
-0.205
-0.205
-0.19
-0.195
-0.185
-0.185
-0.185
-0.175
-0.16
-0.145
-0.165
-0.155
-0.155
-0.145
-0.13
-0.14
-0.155
-0.175
-0.175
-0.185
-0.175
-0.165
-0.165
-0.155
-0.15
-0.135
-0.11
-0.09
-0.1
-0.1
-0.105
-0.09
-0.09
-0.105
-0.115
-0.135
-0.15
-0.17
-0.18
-0.2
-0.205
-0.23
-0.26
-0.245
-0.26
-0.3
-0.34
-0.365
-0.4
-0.43
-0.445
-0.455
-0.45
-0.47
-0.485
-0.49
-0.5
-0.52
-0.55
-0.58
-0.575
-0.56
-0.56
-0.55
-0.575
-0.6
-0.6
-0.6
-0.575
-0.565
-0.56
-0.565
-0.565
-0.56
-0.545
-0.545
-0.555
-0.575
-0.55
-0.515
-0.48
-0.47
-0.46
-0.445
-0.435
-0.435
-0.425
-0.425
-0.41
-0.41
-0.39
-0.365
-0.36
-0.365
-0.355
-0.355
-0.33
-0.305
-0.29
-0.29
-0.295
-0.27
-0.31
-0.305
-0.29
-0.29
-0.295
-0.315
-0.325
-0.315
-0.32
-0.325
-0.36
-0.39
-0.415
-0.425
-0.405
-0.385
-0.365
-0.33
-0.305
-0.265
-0.23
-0.21
-0.15
-0.11
-0.035
0.11
0.275
0.385
0.425
0.41
0.385
0.355
0.265
0.155
0.05
-0.01
-0.055
-0.08
-0.09
-0.1
-0.155
-0.17
-0.185
-0.155
-0.14
-0.145
-0.13
-0.135
-0.135
-0.14
-0.145
-0.14
-0.14
-0.17
-0.16
-0.145
-0.115
-0.105
-0.12
-0.125
-0.135
-0.135
-0.125
-0.105
-0.12
-0.11
-0.11
-0.1
-0.105
-0.095
-0.095
-0.11
-0.12
-0.095
-0.08
-0.075
-0.065
-0.07
-0.09
-0.055
-0.06
-0.07
-0.095
-0.105
-0.1
-0.075
-0.045
-0.05
-0.055
-0.045
-0.045
-0.045
-0.05
-0.03
-0.03
-0.035
-0.035
-0.02
-0.005
-0.005
-0.01
-0.04
-0.035
-0.02
-0.01
-0.01
0.005
0.005
0.005
0.015
0.005
-0.01
0.0
-0.01
-0.005
-0.005
0.0
0.01
0.005
-0.01
-0.035
-0.02
-0.02
-0.01
-0.025
-0.045
-0.05
-0.035
-0.025
-0.015
-0.02
-0.045
-0.06
-0.07
-0.06
-0.065
-0.07
-0.085
-0.1
-0.11
-0.095
-0.1
-0.13
-0.145
-0.16
-0.15
-0.14
-0.14
-0.15
-0.16
-0.17
-0.155
-0.165
-0.16
-0.18
-0.19
-0.2
-0.195
-0.185
-0.175
-0.165
-0.17
-0.165
-0.18
-0.175
-0.165
-0.165
-0.185
-0.185
-0.18
-0.18
-0.18
-0.185
-0.19
-0.195
-0.205
-0.19
-0.2
-0.2
-0.225
-0.23
-0.23
-0.23
-0.22
-0.25
-0.255
-0.255
-0.265
-0.275
-0.29
-0.3
-0.305
-0.305
-0.285
-0.27
-0.27
-0.285
-0.29
-0.285
-0.295
-0.285
-0.285
-0.295
-0.3
-0.3
-0.29
-0.29
-0.275
-0.275
-0.28
-0.265
-0.26
-0.24
-0.23
-0.23
-0.245
-0.25
-0.23
-0.22
-0.235
-0.235
-0.245
-0.25
-0.24
-0.215
-0.205
-0.19
-0.215
-0.225
-0.22
-0.185
-0.185
-0.19
-0.19
-0.185
-0.15
-0.13
-0.125
-0.115
-0.115
-0.125
-0.1
-0.105
-0.105
-0.12
-0.125
-0.135
-0.115
-0.11
-0.115
-0.125
-0.145
-0.165
-0.18
-0.18
-0.21
-0.22
-0.225
-0.25
-0.245
-0.25
-0.255
-0.27
-0.28
-0.3
-0.28
-0.26
-0.26
-0.245
-0.265
-0.285
-0.285
-0.29
-0.305
-0.32
-0.32
-0.34
-0.33
-0.32
-0.31
-0.3
-0.31
-0.33
-0.325
-0.335
-0.335
-0.345
-0.335
-0.33
-0.32
-0.295
-0.31
-0.3
-0.315
-0.315
-0.31
-0.285
-0.28
-0.275
-0.285
-0.28
-0.26
-0.25
-0.25
-0.25
-0.26
-0.27
-0.255
-0.245
-0.23
-0.235
-0.22
-0.23
-0.21
-0.205
-0.21
-0.235
-0.265
-0.26
-0.23
-0.23
-0.23
-0.215
-0.23
-0.265
-0.295
-0.33
-0.36
-0.395
-0.415
-0.4
-0.375
-0.335
-0.3
-0.3
-0.28
-0.275
-0.245
-0.215
-0.18
-0.15
-0.1
-0.015
0.12
0.275
0.42
0.49
0.505
0.48
0.475
0.415
0.355
0.275
0.2
0.15
0.11
0.07
0.04
0.02
-0.03
-0.04
-0.02
-0.01
0.015
0.01
0.03
0.035
0.06
0.065
0.07
0.065
0.045
0.04
0.055
0.065
0.075
0.08
0.07
0.095
0.11
0.12
0.14
0.12
0.12
0.12
0.11
0.13
0.125
0.13
0.11
0.13
0.135
0.145
0.16
0.16
0.14
0.15
0.155
0.165
0.165
0.175
0.175
0.17
0.185
0.2
0.2
0.185
0.18
0.18
0.2
0.215
0.23
0.235
0.225
0.23
0.23
0.235
0.225
0.245
0.235
0.225
0.24
0.25
0.25
0.26
0.26
0.255
0.27
0.295
0.295
0.29
0.28
0.285
0.305
0.325
0.33
0.355
0.335
0.315
0.3
0.315
0.32
0.3
0.295
0.315
0.33
0.34
0.34
0.305
0.28
0.275
0.275
0.275
0.26
0.25
0.25
0.255
0.255
0.275
0.28
0.27
0.25
0.225
0.215
0.215
0.205
0.185
0.16
0.15
0.14
0.15
0.135
0.12
0.095
0.08
0.055
0.04
0.05
0.05
0.025
0.02
0.015
-0.005
-0.015
-0.035
-0.055
-0.075
-0.06
-0.06
-0.065
-0.08
-0.1
-0.1
-0.105
-0.11
-0.125
-0.145
-0.165
-0.18
-0.19
-0.17
-0.18
-0.185
-0.205
-0.2
-0.22
-0.22
-0.22
-0.23
-0.245
-0.255
-0.25
-0.24
-0.26
-0.28
-0.29
-0.29
-0.305
-0.29
-0.29
-0.285
-0.29
-0.285
-0.295
-0.3
-0.305
-0.295
-0.325
-0.33
-0.335
-0.335
-0.35
-0.375
-0.39
-0.39
-0.39
-0.375
-0.37
-0.365
-0.375
-0.385
-0.375
-0.39
-0.375
-0.385
-0.41
-0.39
-0.39
-0.37
-0.35
-0.375
-0.39
-0.4
-0.39
-0.405
-0.415
-0.4
-0.395
-0.39
-0.385
-0.355
-0.35
-0.355
-0.36
-0.355
-0.33
-0.315
-0.31
-0.31
-0.31
-0.305
-0.28
-0.27
-0.235
-0.245
-0.235
-0.24
-0.235
-0.245
-0.245
-0.235
-0.225
-0.24
-0.25
-0.265
-0.26
-0.28
-0.305
-0.315
-0.32
-0.335
-0.325
-0.345
-0.345
-0.36
-0.345
-0.34
-0.36
-0.37
-0.395
-0.395
-0.4
-0.385
-0.39
-0.39
-0.39
-0.395
-0.4
-0.395
-0.395
-0.425
-0.43
-0.435
-0.435
-0.43
-0.43
-0.44
-0.45
-0.46
-0.455
-0.455
-0.475
-0.495
-0.495
-0.505
-0.49
-0.48
-0.465
-0.465
-0.465
-0.485
-0.465
-0.46
-0.465
-0.46
-0.455
-0.46
-0.43
-0.41
-0.39
-0.39
-0.4
-0.395
-0.4
-0.4
-0.4
-0.395
-0.395
-0.395
-0.385
-0.365
-0.35
-0.375
-0.355
-0.365
-0.35
-0.345
-0.345
-0.345
-0.355
-0.36
-0.34
-0.335
-0.325
-0.325
-0.345
-0.34
-0.35
-0.34
-0.355
-0.36
-0.385
-0.415
-0.435
-0.465
-0.51
-0.515
-0.52
-0.51
-0.5
-0.46
-0.445
-0.42
-0.39
-0.365
-0.34
-0.3
-0.27
-0.23
-0.185
-0.11
0.01
0.155
0.28
0.32
0.305
0.28
0.26
0.2
0.125
0.04
-0.04
-0.105
-0.16
-0.185
-0.19
-0.21
-0.225
-0.25
-0.25
-0.24
-0.23
-0.215
-0.22
-0.23
-0.22
-0.21
-0.19
-0.195
-0.21
-0.205
-0.205
-0.17
-0.15
-0.165
-0.185
-0.195
-0.17
-0.16
-0.155
-0.16
-0.165
-0.165
-0.145
-0.145
-0.135
-0.125
-0.13
-0.14
-0.135
-0.135
-0.125
-0.125
-0.11
-0.115
-0.12
-0.115
-0.11
-0.095
-0.095
-0.085
-0.085
-0.09
-0.095
-0.085
-0.1
-0.095
-0.095
-0.07
-0.055
-0.06
-0.075
-0.085
-0.08
-0.06
-0.05
-0.05
-0.055
-0.045
-0.05
-0.035
-0.045
-0.04
-0.05
-0.06
-0.06
-0.05
-0.03
-0.025
-0.04
-0.04
-0.03
-0.025
-0.03
-0.04
-0.06
-0.05
-0.035
-0.02
-0.015
-0.005
-0.02
-0.03
-0.035
-0.015
-0.01
-0.025
-0.025
-0.04
-0.04
-0.03
-0.02
-0.04
-0.04
-0.035
-0.035
-0.04
-0.035
-0.05
-0.06
-0.055
-0.05
-0.045
-0.04
-0.025
-0.055
-0.065
-0.08
-0.105
-0.105
-0.13
-0.145
-0.155
-0.165
-0.155
-0.165
-0.175
-0.185
-0.19
-0.21
-0.185
-0.185
-0.195
-0.2
-0.22
-0.2
-0.195
-0.2
-0.2
-0.205
-0.21
-0.215
-0.19
-0.195
-0.21
-0.22
-0.235
-0.235
-0.225
-0.21
-0.205
-0.205
-0.215
-0.215
-0.215
-0.22
-0.22
-0.225
-0.24
-0.22
-0.19
-0.17
-0.175
-0.185
-0.205
-0.2
-0.185
-0.195
-0.195
-0.205
-0.225
-0.19
-0.175
-0.16
-0.165
-0.185
-0.19
-0.19
-0.185
-0.19
-0.205
-0.21
-0.215
-0.195
-0.185
-0.185
-0.185
-0.215
-0.23
-0.23
-0.215
-0.215
-0.23
-0.25
-0.24
-0.215
-0.23
-0.235
-0.245
-0.245
-0.25
-0.26
-0.265
-0.26
-0.26
-0.265
-0.275
-0.275
-0.26
-0.265
-0.27
-0.285
-0.28
-0.28
-0.255
-0.245
-0.255
-0.245
-0.235
-0.22
-0.215
-0.195
-0.19
-0.17
-0.165
-0.15
-0.14
-0.13
-0.13
-0.145
-0.145
-0.155
-0.16
-0.18
-0.2
-0.205
-0.225
-0.2
-0.195
-0.185
-0.19
-0.205
-0.235
-0.235
-0.24
-0.25
-0.265
-0.26
-0.265
-0.245
-0.23
-0.215
-0.215
-0.235
-0.24
-0.24
-0.24
-0.22
-0.24
-0.245
-0.265
-0.27
-0.265
-0.285
-0.29
-0.3
-0.31
-0.305
-0.29
-0.285
-0.26
-0.245
-0.245
-0.24
-0.25
-0.255
-0.26
-0.28
-0.26
-0.24
-0.225
-0.2
-0.19
-0.2
-0.205
-0.19
-0.185
-0.18
-0.18
-0.17
-0.17
-0.15
-0.135
-0.11
-0.085
-0.085
-0.095
-0.11
-0.105
-0.11
-0.115
-0.115
-0.1
-0.095
-0.075
-0.07
-0.075
-0.095
-0.105
-0.11
-0.115
-0.145
-0.18
-0.21
-0.245
-0.25
-0.245
-0.225
-0.2
-0.18
-0.155
-0.125
-0.09
-0.06
-0.055
-0.04
-0.03
0.045
0.155
0.295
0.4
0.49
0.495
0.47
0.435
0.365
0.265
0.15
0.055
-0.005
-0.05
-0.075
-0.09
-0.11
-0.115
-0.105
-0.095
-0.085
-0.095
-0.105
-0.1
-0.12
-0.105
-0.11
-0.125
-0.095
-0.11
-0.1
-0.095
-0.105
-0.1
-0.095
-0.105
-0.09
-0.07
-0.065
-0.05
-0.05
-0.055
-0.06
-0.045
-0.04
-0.035
-0.02
-0.015
0.0
0.02
0.035
0.055
0.055
0.055
0.065
0.09
0.105
0.115
0.115
0.12
0.135
0.145
0.145
0.16
0.155
0.17
0.19
0.24
0.255
0.25
0.24
0.235
0.25
0.275
0.28
0.28
0.285
0.29
0.28
0.29
0.285
0.3
0.285
0.275
0.28
0.3
0.295
0.33
0.32
0.32
0.31
0.3
0.29
0.285
0.265
0.265
0.265
0.28
0.275
0.24
0.215
0.205
0.2
0.195
0.185
0.18
0.155
0.145
0.13
0.12
0.115
0.105
0.1
0.085
0.06
0.075
0.07
0.06
0.045
0.015
0.015
0.02
0.035
0.015
-0.01
-0.02
-0.025
-0.025
-0.02
-0.025
-0.055
-0.04
-0.015
-0.01
-0.025
-0.045
-0.055
-0.075
-0.07
-0.045
-0.04
-0.04
-0.055
-0.1
-0.105
-0.105
-0.1
-0.115
-0.11
-0.11
-0.14
-0.11
-0.105
-0.135
-0.15
-0.17
-0.175
-0.165
-0.17
-0.155
-0.175
-0.19
-0.19
-0.175
-0.155
-0.165
-0.18
-0.19
-0.18
-0.18
-0.2
-0.19
-0.21
-0.205
-0.2
-0.195
-0.185
-0.215
-0.225
-0.245
-0.25
-0.24
-0.25
-0.26
-0.255
-0.25
-0.225
-0.23
-0.235
-0.23
-0.23
-0.225
-0.215
-0.21
-0.205
-0.205
-0.24
-0.26
-0.265
-0.26
-0.275
-0.29
-0.3
-0.3
-0.305
-0.315
-0.35
-0.36
-0.36
-0.355
-0.365
-0.355
-0.35
-0.375
-0.39
-0.4
-0.395
-0.375
-0.38
-0.4
-0.395
-0.4
-0.41
-0.435
-0.41
-0.455
-0.465
-0.465
-0.47
-0.455
-0.425
-0.425
-0.435
-0.45
-0.445
-0.425
-0.435
-0.44
-0.445
-0.43
-0.39
-0.37
-0.365
-0.355
-0.38
-0.38
-0.38
-0.38
-0.375
-0.38
-0.38
-0.37
-0.355
-0.325
-0.325
-0.33
-0.335
-0.345
-0.33
-0.315
-0.295
-0.3
-0.305
-0.32
-0.335
-0.335
-0.345
-0.38
-0.41
-0.455
-0.46
-0.465
-0.45
-0.43
-0.41
-0.385
-0.325
-0.285
-0.235
-0.205
-0.185
-0.135
-0.04
0.095
0.23
0.32
0.36
0.345
0.305
0.26
0.185
0.065
-0.03
-0.11
-0.14
-0.16
-0.175
-0.185
-0.205
-0.225
-0.235
-0.22
-0.215
-0.215
-0.22
-0.23
-0.235
-0.23
-0.23
-0.23
-0.235
-0.23
-0.245
-0.225
-0.215
-0.215
-0.22
-0.23
-0.225
-0.225
-0.22
-0.21
-0.215
-0.195
-0.205
-0.19
-0.185
-0.19
-0.185
-0.18
-0.165
-0.15
-0.145
-0.135
-0.135
-0.135
-0.13
-0.125
-0.12
-0.12
-0.11
-0.105
-0.085
-0.065
-0.06
-0.055
-0.075
-0.09
-0.08
-0.07
-0.05
-0.03
-0.035
-0.06
-0.05
-0.035
-0.035
-0.03
-0.02
-0.02
-0.005
-0.01
-0.01
-0.015
-0.02
-0.03
-0.03
-0.01
0.0
0.005
0.0
-0.025
-0.025
-0.04
-0.025
-0.03
-0.035
-0.055
-0.07
-0.06
-0.08
-0.095
-0.105
-0.135
-0.135
-0.13
-0.14
-0.145
-0.175
-0.18
-0.175
-0.165
-0.175
-0.19
-0.21
-0.215
-0.205
-0.2
-0.185
-0.205
-0.22
-0.23
-0.225
-0.2
-0.2
-0.2
-0.22
-0.24
-0.255
-0.24
-0.235
-0.205
-0.205
-0.21
-0.21
-0.22
-0.23
-0.235
-0.26
-0.25
-0.255
-0.23
-0.22
-0.22
-0.24
-0.26
-0.26
-0.25
-0.25
-0.24
-0.24
-0.255
-0.26
-0.255
-0.255
-0.265
-0.275
-0.26
-0.24
-0.235
-0.25
-0.25
-0.265
-0.265
-0.25
-0.23
-0.23
-0.225
-0.225
-0.24
-0.23
-0.215
-0.2
-0.18
-0.185
-0.185
-0.165
-0.155
-0.145
-0.13
-0.125
-0.115
-0.1
-0.095
-0.075
-0.11
-0.12
-0.135
-0.13
-0.13
-0.13
-0.11
-0.135
-0.19
-0.19
-0.175
-0.18
-0.18
-0.19
-0.19
-0.175
-0.18
-0.19
-0.2
-0.215
-0.25
-0.22
-0.21
-0.175
-0.165
-0.19
-0.25
-0.275
-0.3
-0.325
-0.335
-0.325
-0.32
-0.315
-0.325
-0.325
-0.335
-0.365
-0.33
-0.315
-0.28
-0.245
-0.24
-0.245
-0.25
-0.23
-0.205
-0.185
-0.175
-0.18
-0.18
-0.18
-0.17
-0.145
-0.13
-0.135
-0.125
-0.135
-0.13
-0.12
-0.13
-0.16
-0.195
-0.18
-0.17
-0.165
-0.155
-0.155
-0.175
-0.205
-0.225
-0.26
-0.295
-0.32
-0.315
-0.285
-0.24
-0.19
-0.14
-0.12
-0.05
0.06
0.22
0.39
0.49
0.485
0.44
0.385
0.3
0.19
0.085
-0.02
-0.095
-0.115
-0.115
-0.12
-0.13
-0.15
-0.155
-0.155
-0.14
-0.14
-0.135
-0.14
-0.155
-0.16
-0.175
-0.195
-0.195
-0.19
-0.185
-0.16
-0.135
-0.135
-0.14
-0.135
-0.12
-0.1
-0.075
-0.045
-0.035
-0.04
-0.04
-0.04
-0.02
0.015
0.015
0.02
0.01
0.025
0.045
0.05
0.055
0.04
0.015
0.05
0.07
0.075
0.09
0.1
0.09
0.12
0.155
0.175
0.17
0.165
0.155
0.165
0.18
0.185
0.175
0.17
0.165
0.185
0.21
0.24
0.245
0.25
0.24
0.225
0.21
0.2
0.18
0.17
0.18
0.18
0.195
0.185
0.175
0.155
0.14
0.14
0.155
0.15
0.145
0.15
0.15
0.175
0.18
0.2
0.185
0.175
0.15
0.135
0.125
0.125
0.115
0.11
0.105
0.09
0.1
0.105
0.075
0.055
0.045
0.05
0.045
0.055
0.04
0.035
0.03
0.035
0.03
0.03
0.02
0.0
-0.03
-0.01
-0.005
0.0
-0.005
-0.015
-0.025
-0.025
-0.005
0.01
0.01
0.0
-0.005
0.0
0.005
0.005
-0.005
-0.015
-0.05
-0.025
-0.01
-0.01
-0.02
-0.05
-0.045
-0.04
-0.035
-0.03
-0.05
-0.06
-0.07
-0.065
-0.065
-0.05
-0.06
-0.07
-0.075
-0.085
-0.08
-0.065
-0.075
-0.095
-0.155
-0.18
-0.215
-0.225
-0.22
-0.23
-0.22
-0.18
-0.135
-0.06
0.005
0.075
0.13
0.2
0.28
0.355
0.45
0.57
0.7
0.845
0.985
1.105
1.21
1.32
1.42
1.505
1.615
1.71
1.775
1.845
1.86
1.89
1.905
1.9
1.84
1.735
1.58
1.395
1.165
0.9
0.625
0.35
0.095
-0.095
-0.24
-0.35
-0.46
-0.555
-0.615
-0.625
-0.645
-0.665
-0.68
-0.715
-0.74
-0.745
-0.74
-0.75
-0.755
-0.77
-0.795
-0.8
-0.775
-0.755
-0.775
-0.785
-0.82
-0.825
-0.82
-0.825
-0.82
-0.825
-0.825
-0.805
-0.785
-0.79
-0.785
-0.8
-0.81
-0.8
-0.81
-0.8
-0.81
-0.82
-0.835
-0.845
-0.855
-0.875
-0.875
-0.895
-0.89
-0.89
-0.88
-0.89
-0.9
-0.91
-0.93
-0.925
-0.915
-0.895
-0.895
-0.9
-0.925
-0.925
-0.91
-0.93
-0.925
-0.91
-0.92
-0.89
-0.86
-0.855
-0.86
-0.87
-0.885
-0.88
-0.87
-0.845
-0.805
-0.81
-0.82
-0.79
-0.78
-0.77
-0.765
-0.775
-0.77
-0.745
-0.705
-0.695
-0.69
-0.705
-0.685
-0.66
-0.64
-0.605
-0.61
-0.595
-0.585
-0.565
-0.555
-0.56
-0.555
-0.555
-0.55
-0.535
-0.51
-0.47
-0.445
-0.445
-0.45
-0.46
-0.45
-0.445
-0.44
-0.44
-0.455
-0.465
-0.455
-0.44
-0.445
-0.465
-0.47
-0.47
-0.45
-0.43
-0.44
-0.445
-0.46
-0.45
-0.44
-0.42
-0.405
-0.425
-0.435
-0.425
-0.425
-0.425
-0.43
-0.42
-0.415
-0.415
-0.425
-0.435
-0.41
-0.42
-0.43
-0.44
-0.44
-0.44
-0.445
-0.44
-0.445
-0.43
-0.42
-0.4
-0.415
-0.43
-0.45
-0.45
-0.45
-0.42
-0.42
-0.425
-0.425
-0.435
-0.42
-0.41
-0.41
-0.425
-0.435
-0.44
-0.425
-0.395
-0.395
-0.41
-0.415
-0.41
-0.415
-0.43
-0.41
-0.43
-0.43
-0.425
-0.42
-0.425
-0.425
-0.44
-0.43
-0.41
-0.405
-0.39
-0.395
-0.41
-0.42
-0.43
-0.425
-0.42
-0.43
-0.435
-0.46
-0.44
-0.435
-0.45
-0.44
-0.44
-0.43
-0.415
-0.415
-0.385
-0.39
-0.4
-0.405
-0.405
-0.4
-0.415
-0.4
-0.415
-0.445
-0.44
-0.425
-0.425
-0.425
-0.43
-0.43
-0.42
-0.42
-0.42
-0.445
-0.45
-0.44
-0.435
-0.41
-0.4
-0.41
-0.435
-0.46
-0.445
-0.435
-0.425
-0.435
-0.435
-0.445
-0.44
-0.435
-0.425
-0.44
-0.45
-0.47
-0.46
-0.455
-0.445
-0.44
-0.47
-0.47
-0.47
-0.44
-0.43
-0.43
-0.425
-0.42
-0.405
-0.41
-0.4
-0.405
-0.4
-0.395
-0.38
-0.365
-0.36
-0.345
-0.34
-0.335
-0.33
-0.33
-0.295
-0.3
-0.305
-0.32
-0.31
-0.3
-0.285
-0.295
-0.32
-0.32
-0.325
-0.32
-0.315
-0.325
-0.34
-0.38
-0.39
-0.395
-0.385
-0.385
-0.41
-0.415
-0.42
-0.415
-0.415
-0.435
-0.455
-0.45
-0.46
-0.465
-0.47
-0.485
-0.505
-0.495
-0.505
-0.49
-0.51
-0.5
-0.53
-0.535
-0.555
-0.535
-0.52
-0.51
-0.525
-0.52
-0.52
-0.51
-0.5
-0.53
