Lead II
-1.2
-1.21
-1.225
-1.25
-1.26
-1.275
-1.28
-1.295
-1.325
-1.34
-1.355
-1.365
-1.37
-1.385
-1.385
-1.395
-1.41
-1.425
-1.43
-1.45
-1.465
-1.475
-1.515
-1.515
-1.53
-1.555
-1.56
-1.565
-1.575
-1.575
-1.615
-1.605
-1.63
-1.635
-1.65
-1.665
-1.675
-1.67
-1.685
-1.69
-1.7
-1.69
-1.695
-1.72
-1.715
-1.72
-1.72
-1.72
-1.745
-1.78
-1.81
-1.835
-1.845
-1.87
-1.91
-1.925
-1.97
-2.02
-2.06
-2.12
-2.155
-2.19
-2.205
-2.205
-2.205
-2.19
-2.175
-2.17
-2.135
-2.11
-2.085
-2.04
-1.99
-1.945
-1.89
-1.835
-1.775
-1.705
-1.66
-1.615
-1.57
-1.505
-1.455
-1.41
-1.365
-1.325
-1.275
-1.22
-1.2
-1.17
-1.14
-1.125
-1.125
-1.125
-1.13
-1.12
-1.12
-1.11
-1.095
-1.085
-1.1
-1.09
-1.09
-1.105
-1.09
-1.105
-1.11
-1.095
-1.11
-1.095
-1.08
-1.07
-1.06
-1.055
-1.075
-1.07
-1.095
-1.085
-1.075
-1.08
-1.075
-1.08
-1.065
-1.07
-1.045
-1.035
-1.03
-1.045
-1.04
-1.06
-1.065
-1.075
-1.065
-1.06
-1.05
-1.055
-1.035
-1.015
-1.045
-1.03
-1.045
-1.04
-1.04
-1.045
-1.05
-1.045
-1.03
-1.02
-1.025
-1.005
-1.015
-1.015
-1.035
-1.02
-1.025
-1.045
-1.025
-1.035
-1.025
-1.005
-1.005
-0.995
-1.005
-1.005
-1.015
-1.02
-1.02
-1.025
-1.025
-1.015
-1.0
-1.01
-1.005
-0.985
-0.995
-0.99
-1.01
-1.005
-1.005
-1.025
-1.025
-1.01
-1.005
-0.995
-0.97
-0.95
-0.97
-0.975
-0.995
-0.99
-1.005
-0.995
-1.0
-0.98
-0.975
-0.965
-0.975
-0.955
-0.965
-0.955
-0.97
-0.985
-0.975
-0.99
-0.99
-0.985
-0.96
-0.945
-0.945
-0.93
-0.945
-0.945
-0.945
-0.965
-0.97
-0.97
-0.965
-0.975
-0.955
-0.945
-0.94
-0.935
-0.93
-0.935
-0.95
-0.955
-0.96
-0.955
-0.97
-0.955
-0.935
-0.935
-0.92
-0.91
-0.91
-0.915
-0.93
-0.935
-0.935
-0.955
-0.94
-0.935
-0.94
-0.92
-0.925
-0.92
-0.91
-0.91
-0.92
-0.93
-0.93
-0.925
-0.945
-0.955
-0.935
-0.94
-0.915
-0.91
-0.915
-0.93
-0.93
-0.955
-0.93
-0.935
-0.935
-0.92
-0.92
-0.905
-0.91
-0.9
-0.89
-0.885
-0.895
-0.915
-0.92
-0.925
-0.93
-0.935
-0.945
-0.915
-0.91
-0.905
-0.895
-0.905
-0.905
-0.91
-0.905
-0.92
-0.925
-0.925
-0.915
-0.89
-0.895
-0.88
-0.885
-0.895
-0.9
-0.915
-0.91
-0.92
-0.915
-0.915
-0.905
-0.905
-0.885
-0.88
-0.895
-0.91
-0.895
-0.895
-0.905
-0.915
-0.92
-0.915
-0.9
-0.89
-0.885
-0.865
-0.89
-0.885
-0.87
-0.9
-0.905
-0.92
-0.915
-0.91
-0.91
-0.91
-0.895
-0.885
-0.89
-0.895
-0.895
-0.9
-0.9
-0.905
-0.9
-0.895
-0.9
-0.885
-0.885
-0.87
-0.88
-0.885
-0.885
-0.91
-0.9
-0.9
-0.915
-0.9
-0.91
-0.905
-0.89
-0.88
-0.875
-0.895
-0.885
-0.895
-0.905
-0.92
-0.925
-0.92
-0.89
-0.905
-0.88
-0.865
-0.875
-0.875
-0.885
-0.87
-0.89
-0.87
-0.88
-0.89
-0.9
-0.895
-0.89
-0.85
-0.86
-0.865
-0.875
-0.875
-0.875
-0.865
-0.855
-0.84
-0.82
-0.785
-0.765
-0.73
-0.72
-0.72
-0.71
-0.705
-0.67
-0.65
-0.61
-0.57
-0.545
-0.55
-0.55
-0.535
-0.55
-0.545
-0.57
-0.565
-0.595
-0.62
-0.655
-0.705
-0.755
-0.78
-0.8
-0.835
-0.865
-0.88
-0.885
-0.915
-0.91
-0.885
-0.895
-0.885
-0.88
-0.885
-0.89
-0.885
-0.885
-0.89
-0.89
-0.9
-0.91
-0.905
-0.92
-0.91
-0.9
-0.91
-0.915
-0.935
-0.96
-0.96
-0.925
-0.835
-0.685
-0.44
-0.13
0.23
0.63
0.955
1.19
1.28
1.235
1.125
0.88
0.485
-0.01
-0.51
-0.895
-1.08
-1.025
-0.9
-0.745
-0.635
-0.6
-0.64
-0.695
-0.79
-0.855
-0.91
-0.91
-0.905
-0.88
-0.875
-0.87
-0.875
-0.88
-0.895
-0.91
-0.925
-0.94
-0.93
-0.935
-0.925
-0.92
-0.92
-0.915
-0.905
-0.91
-0.925
-0.93
-0.935
-0.955
-0.95
-0.95
-0.965
-0.945
-0.945
-0.945
-0.925
-0.92
-0.935
-0.93
-0.955
-0.935
-0.935
-0.94
-0.95
-0.94
-0.94
-0.92
-0.925
-0.925
-0.93
-0.905
-0.925
-0.93
-0.92
-0.94
-0.925
-0.92
-0.91
-0.895
-0.89
-0.895
-0.885
-0.88
-0.87
-0.87
-0.865
-0.865
-0.87
-0.83
-0.82
-0.805
-0.79
-0.795
-0.78
-0.77
-0.76
-0.76
-0.755
-0.74
-0.715
-0.695
-0.66
-0.66
-0.635
-0.62
-0.615
-0.6
-0.6
-0.59
-0.585
-0.575
-0.55
-0.54
-0.535
-0.51
-0.495
-0.51
-0.495
-0.485
-0.47
-0.465
-0.455
-0.475
-0.43
-0.41
-0.425
-0.405
-0.395
-0.39
-0.39
-0.395
-0.44
-0.455
-0.475
-0.5
-0.505
-0.51
-0.525
-0.53
-0.54
-0.57
-0.585
-0.6
-0.645
-0.685
-0.71
-0.735
-0.725
-0.73
-0.73
-0.735
-0.74
-0.75
-0.76
-0.79
-0.78
-0.805
-0.805
-0.815
-0.82
-0.815
-0.795
-0.79
-0.785
-0.805
-0.815
-0.82
-0.81
-0.825
-0.84
-0.84
-0.805
-0.81
-0.775
-0.78
-0.775
-0.78
-0.785
-0.785
-0.79
-0.79
-0.795
-0.785
-0.79
-0.785
-0.78
-0.775
-0.755
-0.755
-0.765
-0.765
-0.775
-0.785
-0.785
-0.79
-0.79
-0.78
-0.77
-0.77
-0.755
-0.77
-0.765
-0.785
-0.79
-0.825
-0.8
-0.815
-0.815
-0.8
-0.795
-0.795
-0.795
-0.805
-0.8
-0.81
-0.825
-0.85
-0.845
-0.85
-0.86
-0.855
-0.85
-0.84
-0.83
-0.835
-0.85
-0.85
-0.85
-0.855
-0.875
-0.865
-0.865
-0.86
-0.86
-0.85
-0.84
-0.845
-0.85
-0.87
-0.88
-0.88
-0.895
-0.895
-0.895
-0.875
-0.855
-0.85
-0.855
-0.85
-0.85
-0.86
-0.88
-0.89
-0.885
-0.885
-0.89
-0.89
-0.875
-0.87
-0.875
-0.875
-0.87
-0.88
-0.895
-0.905
-0.92
-0.915
-0.905
-0.895
-0.875
-0.85
-0.855
-0.83
-0.845
-0.86
-0.85
-0.835
-0.825
-0.81
-0.805
-0.775
-0.755
-0.72
-0.705
-0.725
-0.7
-0.665
-0.62
-0.585
-0.56
-0.56
-0.565
-0.57
-0.57
-0.58
-0.565
-0.585
-0.61
-0.625
-0.655
-0.725
-0.795
-0.84
-0.875
-0.9
-0.91
-0.905
-0.89
-0.905
-0.915
-0.925
-0.925
-0.935
-0.935
-0.95
-0.945
-0.945
-0.935
-0.95
-0.93
-0.93
-0.925
-0.935
-0.945
-0.935
-0.955
-0.945
-0.93
-0.935
-0.945
-0.92
-0.93
-0.95
-0.985
-0.99
-0.965
-0.895
-0.765
-0.55
-0.25
0.115
0.49
0.83
1.07
1.18
1.175
1.065
0.82
0.44
-0.07
-0.545
-0.915
-1.075
-1.06
-0.92
-0.775
-0.69
-0.665
-0.695
-0.765
-0.85
-0.91
-0.925
-0.93
-0.935
-0.91
-0.9
-0.905
-0.885
-0.9
-0.915
-0.93
-0.945
-0.97
-0.975
-0.97
-0.955
-0.935
-0.925
-0.945
-0.93
-0.925
-0.925
-0.94
-0.94
-0.96
-0.97
-0.955
-0.95
-0.94
-0.95
-0.93
-0.95
-0.945
-0.93
-0.94
-0.935
-0.935
-0.94
-0.935
-0.93
-0.92
-0.92
-0.905
-0.905
-0.89
-0.895
-0.905
-0.91
-0.895
-0.89
-0.89
-0.88
-0.875
-0.855
-0.85
-0.84
-0.835
-0.84
-0.83
-0.825
-0.805
-0.815
-0.8
-0.785
-0.745
-0.745
-0.72
-0.71
-0.69
-0.685
-0.67
-0.665
-0.665
-0.655
-0.615
-0.6
-0.565
-0.55
-0.515
-0.49
-0.48
-0.475
-0.465
-0.455
-0.445
-0.445
-0.415
-0.4
-0.395
-0.365
-0.365
-0.365
-0.355
-0.355
-0.36
-0.385
-0.38
-0.41
-0.415
-0.42
-0.435
-0.46
-0.48
-0.505
-0.535
-0.55
-0.595
-0.63
-0.665
-0.695
-0.725
-0.735
-0.745
-0.755
-0.74
-0.76
-0.78
-0.79
-0.81
-0.825
-0.85
-0.855
-0.86
-0.84
-0.85
-0.835
-0.84
-0.84
-0.84
-0.85
-0.85
-0.865
-0.885
-0.88
-0.875
-0.885
-0.86
-0.86
-0.85
-0.85
-0.83
-0.84
-0.85
-0.855
-0.85
-0.85
-0.85
-0.83
-0.82
-0.805
-0.81
-0.81
-0.805
-0.82
-0.815
-0.78
-0.74
-0.67
-0.54
-0.4
-0.235
-0.07
0.095
0.285
0.475
0.68
0.905
1.11
1.31
1.51
1.675
1.815
1.915
1.97
1.985
1.98
1.955
1.89
1.81
1.73
1.655
1.61
1.595
1.63
1.665
1.675
1.66
1.585
1.46
1.325
1.15
0.985
0.8
0.56
0.255
-0.09
-0.43
-0.725
-0.91
-0.975
-1.01
-0.995
-0.98
-0.99
-1.03
-1.09
-1.125
-1.165
-1.19
-1.205
-1.2
-1.225
-1.235
-1.255
-1.28
-1.305
-1.31
-1.335
-1.345
-1.35
-1.345
-1.345
-1.355
-1.37
-1.365
-1.39
-1.42
-1.445
-1.47
-1.475
-1.495
-1.495
-1.495
-1.5
-1.505
-1.535
-1.55
-1.575
-1.585
-1.615
-1.625
-1.63
-1.635
-1.625
-1.615
-1.62
-1.62
-1.64
-1.655
-1.66
-1.68
-1.695
-1.695
-1.7
-1.685
-1.685
-1.69
-1.72
-1.75
-1.785
-1.815
-1.845
-1.88
-1.915
-1.965
-1.995
-2.055
-2.095
-2.145
-2.175
-2.21
-2.23
-2.25
-2.26
-2.26
-2.26
-2.25
-2.235
-2.215
-2.18
-2.145
-2.115
-2.065
-2.03
-1.975
-1.92
-1.875
-1.845
-1.795
-1.75
-1.68
-1.625
-1.55
-1.49
-1.44
-1.365
-1.325
-1.295
-1.28
-1.255
-1.23
-1.21
-1.19
-1.155
-1.135
-1.125
-1.11
-1.105
-1.115
-1.105
-1.105
-1.115
-1.13
-1.115
-1.12
-1.105
-1.1
-1.085
-1.065
-1.08
-1.08
-1.085
-1.09
-1.09
-1.095
-1.105
-1.095
-1.09
-1.09
-1.08
-1.065
-1.06
-1.055
-1.065
-1.08
-1.105
-1.095
-1.08
-1.075
-1.06
-1.07
-1.055
-1.04
-1.03
-1.04
-1.045
-1.05
-1.05
-1.055
-1.05
-1.04
-1.045
-1.035
-1.025
-1.02
-1.02
-1.02
-1.03
-1.04
-1.055
-1.055
-1.05
-1.045
-1.03
-1.035
-1.02
-1.005
-1.005
-1.025
-1.02
-1.04
-1.04
-1.045
-1.04
-1.05
-1.035
-1.02
-1.02
-1.005
-1.01
-1.025
-1.03
-1.04
-1.04
-1.025
-1.03
-1.04
-1.025
-1.025
-1.01
-0.995
-0.995
-0.995
-0.995
-1.0
-1.015
-1.0
-1.01
-1.02
-1.005
-0.995
-0.995
-0.975
-0.98
-0.975
-0.985
-1.0
-0.995
-1.01
-1.0
-1.01
-1.0
-1.005
-0.985
-0.96
-0.98
-0.97
-0.975
-0.985
-0.985
-0.99
-1.0
-0.995
-0.98
-0.97
-0.97
-0.97
-0.97
-0.97
-0.98
-0.985
-0.98
-0.96
-0.97
-0.985
-0.985
-0.965
-0.955
-0.94
-0.945
-0.945
-0.965
-0.955
-0.955
-0.985
-0.96
-0.965
-0.965
-0.965
-0.945
-0.93
-0.945
-0.93
-0.935
-0.95
-0.94
-0.96
-0.96
-0.965
-0.96
-0.94
-0.945
-0.93
-0.94
-0.94
-0.95
-0.965
-0.97
-0.945
-0.965
-0.965
-0.95
-0.93
-0.925
-0.935
-0.925
-0.935
-0.925
-0.94
-0.94
-0.965
-0.96
-0.945
-0.955
-0.935
-0.94
-0.92
-0.925
-0.94
-0.935
-0.94
-0.94
-0.955
-0.95
-0.94
-0.935
-0.925
-0.9
-0.905
-0.905
-0.895
-0.91
-0.92
-0.935
-0.95
-0.97
-0.955
-0.965
-0.94
-0.945
-0.94
-0.915
-0.905
-0.93
-0.925
-0.935
-0.94
-0.95
-0.955
-0.945
-0.945
-0.94
-0.915
-0.915
-0.92
-0.92
-0.94
-0.945
-0.955
-0.96
-0.95
-0.95
-0.93
-0.915
-0.91
-0.895
-0.895
-0.91
-0.92
-0.925
-0.95
-0.925
-0.95
-0.95
-0.935
-0.925
-0.895
-0.89
-0.905
-0.89
-0.915
-0.915
-0.93
-0.915
-0.915
-0.91
-0.905
-0.895
-0.895
-0.895
-0.895
-0.9
-0.915
-0.915
-0.92
-0.93
-0.93
-0.915
-0.91
-0.895
-0.895
-0.875
-0.885
-0.885
-0.905
-0.91
-0.925
-0.93
-0.91
-0.9
-0.885
-0.87
-0.84
-0.835
-0.82
-0.805
-0.8
-0.815
-0.8
-0.785
-0.77
-0.74
-0.725
-0.695
-0.65
-0.62
-0.6
-0.58
-0.575
-0.6
-0.62
-0.625
-0.615
-0.59
-0.59
-0.595
-0.61
-0.645
-0.695
-0.76
-0.83
-0.88
-0.935
-0.94
-0.95
-0.945
-0.935
-0.935
-0.935
-0.925
-0.925
-0.93
-0.94
-0.975
-0.97
-0.97
-0.965
-0.965
-0.955
-0.955
-0.925
-0.905
-0.925
-0.92
-0.95
-0.97
-0.995
-1.025
-1.05
-1.04
-0.97
-0.875
-0.72
-0.505
-0.235
0.11
0.445
0.77
0.995
1.12
1.165
1.105
0.94
0.62
0.18
-0.345
-0.78
-1.04
-1.105
-1.01
-0.875
-0.775
-0.72
-0.725
-0.755
-0.82
-0.88
-0.92
-0.955
-0.965
-0.975
-0.955
-0.97
-0.98
-0.98
-0.97
-0.985
-0.975
-0.975
-0.965
-0.96
-0.955
-0.98
-0.985
-0.975
-0.995
-1.0
-1.0
-0.995
-0.985
-0.98
-0.98
-0.985
-0.985
-0.985
-0.995
-1.005
-1.0
-1.015
-1.0
-0.995
-0.985
-0.985
-0.975
-0.985
-0.99
-0.995
-1.0
-1.0
-1.01
-1.005
-0.98
-0.97
-0.96
-0.96
-0.955
-0.965
-0.97
-0.965
-0.97
-0.965
-0.965
-0.95
-0.945
-0.925
-0.905
-0.895
-0.88
-0.895
-0.895
-0.895
-0.895
-0.885
-0.88
-0.87
-0.84
-0.835
-0.81
-0.795
-0.78
-0.77
-0.77
-0.755
-0.76
-0.735
-0.74
-0.72
-0.71
-0.695
-0.66
-0.64
-0.63
-0.63
-0.615
-0.62
-0.615
-0.605
-0.585
-0.59
-0.565
-0.555
-0.525
-0.525
-0.505
-0.5
-0.505
-0.525
-0.51
-0.51
-0.515
-0.52
-0.52
-0.52
-0.53
-0.535
-0.53
-0.565
-0.575
-0.605
-0.625
-0.655
-0.675
-0.715
-0.705
-0.735
-0.745
-0.755
-0.76
-0.78
-0.795
-0.815
-0.83
-0.855
-0.84
-0.865
-0.845
-0.845
-0.85
-0.85
-0.86
-0.855
-0.86
-0.875
-0.89
-0.905
-0.89
-0.88
-0.88
-0.86
-0.85
-0.84
-0.83
-0.825
-0.835
-0.835
-0.835
-0.855
-0.85
-0.845
-0.83
-0.825
-0.815
-0.825
-0.8
-0.795
-0.82
-0.82
-0.83
-0.845
-0.845
-0.845
-0.85
-0.835
-0.815
-0.82
-0.81
-0.82
-0.82
-0.83
-0.845
-0.855
-0.865
-0.88
-0.865
-0.87
-0.855
-0.86
-0.845
-0.87
-0.865
-0.895
-0.89
-0.91
-0.895
-0.915
-0.905
-0.9
-0.89
-0.88
-0.875
-0.88
-0.9
-0.89
-0.91
-0.94
-0.925
-0.945
-0.935
-0.92
-0.92
-0.905
-0.895
-0.905
-0.895
-0.92
-0.925
-0.94
-0.935
-0.94
-0.935
-0.94
-0.935
-0.925
-0.91
-0.92
-0.92
-0.925
-0.94
-0.95
-0.935
-0.94
-0.95
-0.94
-0.94
-0.92
-0.91
-0.895
-0.915
-0.915
-0.93
-0.955
-0.96
-0.97
-0.96
-0.945
-0.93
-0.925
-0.915
-0.92
-0.945
-0.925
-0.91
-0.92
-0.915
-0.91
-0.905
-0.88
-0.855
-0.82
-0.795
-0.795
-0.785
-0.775
-0.765
-0.745
-0.715
-0.69
-0.65
-0.61
-0.595
-0.585
-0.57
-0.595
-0.605
-0.62
-0.63
-0.635
-0.66
-0.7
-0.73
-0.79
-0.825
-0.875
-0.905
-0.935
-0.96
-0.965
-0.965
-0.97
-0.955
-0.965
-0.96
-0.96
-0.955
-0.965
-0.96
-0.975
-0.975
-0.99
-1.01
-1.0
-0.995
-0.98
-0.975
-0.965
-0.96
-0.95
-0.94
-0.95
-0.96
-0.975
-1.01
-1.03
-1.04
-0.995
-0.885
-0.725
-0.505
-0.21
0.135
0.495
0.8
1.025
1.145
1.15
1.085
0.9
0.585
0.17
-0.325
-0.755
-1.015
-1.085
-1.02
-0.885
-0.775
-0.725
-0.725
-0.765
-0.83
-0.88
-0.91
-0.925
-0.935
-0.935
-0.94
-0.94
-0.96
-0.965
-0.955
-0.98
-0.985
-0.98
-0.955
-0.95
-0.935
-0.94
-0.945
-0.96
-0.975
-0.985
-0.985
-0.995
-0.99
-0.98
-0.975
-0.965
-0.96
-0.955
-0.955
-0.97
-0.97
-0.97
-0.985
-0.975
-0.965
-0.955
-0.95
-0.94
-0.93
-0.92
-0.94
-0.945
-0.935
-0.94
-0.94
-0.935
-0.925
-0.925
-0.925
-0.905
-0.875
-0.875
-0.875
-0.87
-0.885
-0.875
-0.875
-0.86
-0.84
-0.83
-0.8
-0.8
-0.775
-0.79
-0.77
-0.755
-0.74
-0.745
-0.725
-0.71
-0.68
-0.67
-0.645
-0.64
-0.59
-0.59
-0.57
-0.57
-0.55
-0.55
-0.55
-0.52
-0.51
-0.49
-0.485
-0.445
-0.425
-0.43
-0.425
-0.415
-0.42
-0.44
-0.43
-0.42
-0.415
-0.4
-0.415
-0.42
-0.42
-0.45
-0.47
-0.515
-0.54
-0.575
-0.605
-0.64
-0.67
-0.685
-0.7
-0.72
-0.73
-0.75
-0.79
-0.795
-0.825
-0.845
-0.86
-0.87
-0.875
-0.88
-0.87
-0.875
-0.875
-0.88
-0.885
-0.88
-0.895
-0.905
-0.91
-0.905
-0.92
-0.91
-0.905
-0.915
-0.905
-0.895
-0.89
-0.89
-0.895
-0.905
-0.925
-0.905
-0.895
-0.875
-0.86
-0.86
-0.86
-0.86
-0.865
-0.85
-0.845
-0.855
-0.85
-0.855
-0.86
-0.865
-0.86
-0.85
-0.845
-0.835
-0.82
-0.775
-0.685
-0.595
-0.455
-0.31
-0.15
0.04
0.22
0.42
0.635
0.805
1.015
1.21
1.395
1.54
1.67
1.76
1.84
1.88
1.9
1.88
1.855
1.805
1.705
1.625
1.58
1.555
1.565
1.595
1.605
1.59
1.535
1.43
1.285
1.11
0.885
0.65
0.295
-0.07
-0.445
-0.755
-0.96
-1.065
-1.075
-1.05
-1.03
-1.035
-1.085
-1.105
-1.17
-1.22
-1.26
-1.295
-1.285
-1.29
-1.29
-1.28
-1.29
-1.315
-1.345
-1.37
-1.395
-1.39
-1.415
-1.415
-1.42
-1.42
-1.42
-1.42
-1.44
-1.445
-1.455
-1.47
-1.49
-1.5
-1.505
-1.515
-1.505
-1.49
-1.5
-1.495
-1.48
-1.5
-1.51
-1.52
-1.52
-1.53
-1.505
-1.5
-1.505
-1.525
-1.55
-1.58
-1.61
-1.64
-1.67
-1.725
-1.765
-1.825
-1.89
-1.965
-2.025
-2.11
-2.15
-2.18
-2.215
-2.25
-2.285
-2.305
-2.32
-2.34
-2.355
-2.37
-2.395
-2.37
-2.38
-2.375
-2.355
-2.34
-2.35
-2.33
-2.325
-2.31
-2.29
-2.25
-2.215
-2.16
-2.115
-2.06
-2.0
-1.945
-1.9
-1.855
-1.8
-1.76
-1.71
-1.675
-1.61
-1.55
-1.5
-1.43
-1.38
-1.35
-1.33
-1.31
-1.305
-1.295
-1.265
-1.26
-1.255
-1.235
-1.21
-1.205
-1.205
-1.19
-1.185
-1.185
-1.195
-1.225
-1.21
-1.21
-1.21
-1.2
-1.215
-1.205
-1.18
-1.195
-1.195
-1.195
-1.2
-1.22
-1.22
-1.23
-1.22
-1.215
-1.185
-1.185
-1.17
-1.165
-1.18
-1.205
-1.19
-1.18
-1.185
-1.19
-1.19
-1.175
-1.165
-1.16
-1.155
-1.14
-1.145
-1.155
-1.145
-1.165
-1.16
-1.185
-1.16
-1.145
-1.125
-1.125
-1.115
-1.12
-1.125
-1.13
-1.155
-1.155
-1.16
-1.17
-1.17
-1.155
-1.135
-1.135
-1.125
-1.125
-1.13
-1.135
-1.14
-1.145
-1.145
-1.15
-1.135
-1.125
-1.125
-1.11
-1.1
-1.085
-1.115
-1.095
-1.12
-1.105
-1.12
-1.115
-1.11
-1.115
-1.09
-1.095
-1.085
-1.09
-1.095
-1.09
-1.095
-1.11
-1.1
-1.09
-1.09
-1.08
-1.065
-1.065
-1.055
-1.07
-1.065
-1.07
-1.095
-1.08
-1.085
-1.09
-1.08
-1.065
-1.065
-1.05
-1.025
-1.025
-1.02
-1.035
-1.045
-1.05
-1.055
-1.07
-1.08
-1.05
-1.03
-1.03
-1.025
-1.02
-1.02
-1.045
-1.045
-1.055
-1.04
-1.045
-1.035
-1.045
-1.035
-1.03
-1.01
-1.03
-1.02
-1.035
-1.04
-1.05
-1.06
-1.07
-1.065
-1.035
-1.05
-1.03
-1.015
-1.02
-1.035
-1.025
-1.015
-1.035
-1.035
-1.045
-1.07
-1.045
-1.03
-1.035
-1.055
-1.04
-1.03
-1.025
-1.045
-1.035
-1.05
-1.05
-1.055
-1.045
-1.025
-1.01
-1.01
-1.01
-1.02
-1.02
-1.03
-1.015
-1.035
-1.035
-1.025
-1.015
-1.015
-1.01
-0.995
-1.005
-1.0
-0.99
-1.005
-1.015
-1.015
-1.025
-1.04
-1.015
-1.0
-0.995
-1.0
-0.99
-1.0
-1.01
-1.01
-1.025
-1.015
-1.02
-1.03
-1.02
-1.02
-1.015
-1.0
-0.985
-0.985
-0.995
-1.01
-1.025
-1.02
-1.035
-1.025
-1.005
-1.02
-1.0
-1.005
-1.02
-1.03
-1.025
-1.025
-1.025
-1.025
-1.015
-1.035
-1.03
-1.01
-1.01
-0.995
-1.0
-1.01
-1.005
-1.005
-1.015
-1.03
-1.035
-1.04
-1.02
-1.005
-1.005
-1.0
-1.0
-1.01
-1.015
-1.025
-1.035
-1.025
-1.04
-1.02
-1.02
-1.005
-1.0
-0.995
-0.99
-0.995
-0.99
-0.995
-1.0
-1.015
-1.01
-1.005
-1.005
-1.0
-0.995
-0.99
-0.975
-1.0
-0.98
-1.0
-0.995
-1.02
-1.025
-1.005
-1.015
-0.985
-0.965
-0.95
-0.945
-0.93
-0.92
-0.915
-0.905
-0.9
-0.9
-0.87
-0.855
-0.82
-0.81
-0.78
-0.75
-0.71
-0.685
-0.69
-0.675
-0.685
-0.69
-0.7
-0.705
-0.7
-0.68
-0.675
-0.68
-0.685
-0.755
-0.785
-0.855
-0.92
-0.96
-1.005
-1.005
-1.015
-0.995
-1.005
-0.995
-0.985
-0.985
-0.995
-1.0
-1.015
-1.025
-1.03
-1.025
-1.025
-1.0
-0.985
-0.985
-0.99
-1.0
-1.01
-1.03
-1.045
-1.065
-1.09
-1.085
-1.04
-0.965
-0.83
-0.625
-0.4
-0.115
0.245
0.575
0.835
1.01
1.1
1.105
1.025
0.825
0.51
0.075
-0.43
-0.855
-1.105
-1.15
-1.07
-0.93
-0.81
-0.76
-0.765
-0.82
-0.865
-0.92
-0.96
-0.985
-1.005
-1.005
-1.0
-1.005
-1.0
-0.995
-1.01
-0.995
-0.99
-0.99
-0.995
-1.01
-1.015
-1.025
-1.035
-1.04
-1.03
-1.035
-1.02
-1.0
-1.005
-1.015
-1.015
-1.02
-1.025
-1.035
-1.045
-1.045
-1.04
-1.05
-1.045
-1.03
-1.045
-1.03
-1.025
-1.03
-1.035
-1.035
-1.03
-1.03
-1.025
-1.03
-1.02
-1.01
-0.995
-1.0
-0.995
-1.0
-1.0
-1.015
-1.0
-1.0
-0.985
-0.975
-0.955
-0.955
-0.94
-0.925
-0.93
-0.93
-0.925
-0.925
-0.92
-0.915
-0.9
-0.885
-0.875
-0.855
-0.835
-0.825
-0.805
-0.8
-0.78
-0.775
-0.775
-0.775
-0.76
-0.725
-0.705
-0.695
-0.675
-0.655
-0.65
-0.64
-0.64
-0.66
-0.63
-0.645
-0.615
-0.605
-0.58
-0.55
-0.525
-0.505
-0.51
-0.485
-0.495
-0.505
-0.5
-0.52
-0.52
-0.53
-0.53
-0.53
-0.535
-0.55
-0.59
-0.61
-0.645
-0.655
-0.675
-0.71
-0.725
-0.74
-0.77
-0.77
-0.77
-0.79
-0.805
-0.82
-0.855
-0.865
-0.855
-0.86
-0.865
-0.865
-0.86
-0.84
-0.855
-0.845
-0.85
-0.85
-0.865
-0.865
-0.885
-0.89
-0.895
-0.87
-0.86
-0.85
-0.83
-0.825
-0.835
-0.835
-0.845
-0.835
-0.845
-0.85
-0.845
-0.845
-0.855
-0.83
-0.815
-0.8
-0.815
-0.825
-0.835
-0.835
-0.845
-0.83
-0.765
-0.645
-0.525
-0.345
-0.195
-0.02
0.155
0.345
0.55
0.775
0.99
1.22
1.43
1.635
1.785
1.9
1.99
2.025
2.04
2.015
1.98
1.895
1.805
1.725
1.65
1.6
1.63
1.63
1.66
1.68
1.645
1.585
1.485
1.335
1.17
0.99
0.78
0.535
0.23
-0.125
-0.48
-0.775
-0.96
-1.05
-1.075
-1.06
-1.045
-1.06
-1.095
-1.135
-1.19
-1.22
-1.24
-1.26
-1.28
-1.3
-1.34
-1.35
-1.36
-1.38
-1.39
-1.39
-1.39
-1.405
-1.405
-1.42
-1.44
-1.46
-1.455
-1.48
-1.485
-1.505
-1.525
-1.52
-1.525
-1.54
-1.53
-1.555
-1.58
-1.605
-1.64
-1.655
-1.68
-1.685
-1.705
-1.72
-1.72
-1.72
-1.725
-1.725
-1.745
-1.77
-1.78
-1.81
-1.83
-1.83
-1.845
-1.835
-1.835
-1.835
-1.805
-1.81
-1.845
-1.88
-1.915
-1.94
-1.97
-1.975
-1.99
-2.01
-2.02
-2.065
-2.085
-2.13
-2.175
-2.2
-2.235
-2.28
-2.295
-2.3
-2.305
-2.285
-2.25
-2.2
-2.19
-2.165
-2.13
-2.095
-2.06
-2.03
-2.005
-1.92
-1.87
-1.81
-1.745
-1.685
-1.625
-1.55
-1.51
-1.45
-1.42
-1.365
-1.345
-1.31
-1.3
-1.255
-1.235
-1.21
-1.19
-1.205
-1.205
-1.185
-1.19
-1.2
-1.205
-1.2
-1.195
-1.185
-1.185
-1.18
-1.165
-1.155
-1.17
-1.185
-1.185
-1.17
-1.175
-1.175
-1.18
-1.17
-1.17
-1.14
-1.135
-1.135
-1.15
-1.15
-1.165
-1.165
-1.16
-1.165
-1.16
-1.16
-1.14
-1.135
-1.125
-1.12
-1.135
-1.13
-1.125
-1.145
-1.13
-1.135
-1.13
-1.115
-1.13
-1.095
-1.095
-1.095
-1.1
-1.095
-1.095
-1.115
-1.125
-1.13
-1.125
-1.115
-1.1
-1.095
-1.095
-1.075
-1.09
-1.09
-1.095
-1.115
-1.115
-1.115
-1.12
-1.1
-1.09
-1.085
-1.09
-1.09
-1.085
-1.09
-1.09
-1.095
-1.095
-1.115
-1.105
-1.095
-1.08
-1.07
-1.065
-1.075
-1.08
-1.075
-1.075
-1.09
-1.085
-1.085
-1.09
-1.075
-1.07
-1.07
-1.055
-1.06
-1.055
-1.06
-1.06
-1.055
-1.075
-1.07
-1.075
-1.055
-1.045
-1.04
-1.04
-1.03
-1.02
-1.03
-1.035
-1.045
-1.045
-1.045
-1.06
-1.04
-1.03
-1.04
-1.015
-1.01
-1.02
-1.025
-1.03
-1.055
-1.045
-1.04
-1.065
-1.045
-1.045
-1.03
-1.02
-1.02
-1.025
-1.04
-1.02
-1.025
-1.03
-1.04
-1.045
-1.03
-1.01
-1.01
-1.0
-0.99
-1.005
-0.995
-1.01
-1.01
-1.015
-1.03
-1.03
-1.025
-1.025
-1.01
-1.0
-1.0
-1.01
-1.025
-1.015
-1.015
-1.03
-1.015
-1.015
-1.005
-0.99
-1.0
-0.985
-0.98
-0.995
-1.0
-1.0
-1.005
-1.025
-1.01
-1.01
-1.005
-0.99
-0.985
-0.97
-0.98
-0.985
-0.995
-0.99
-0.995
-1.0
-0.995
-1.025
-1.03
-1.0
-0.995
-0.985
-0.975
-0.98
-0.985
-1.005
-1.005
-1.01
-1.005
-1.0
-1.015
-1.0
-1.005
-0.985
-0.965
-0.97
-0.975
-0.975
-0.98
-1.0
-1.005
-1.01
-0.995
-0.98
-0.985
-0.96
-0.96
-0.955
-0.95
-0.965
-0.97
-0.97
-0.995
-0.995
-0.99
-0.98
-0.97
-0.955
-0.97
-0.955
-0.965
-0.97
-0.995
-1.005
-1.0
-0.995
-0.995
-0.98
-0.995
-0.97
-0.955
-0.975
-0.955
-0.965
-0.97
-0.98
-0.98
-0.98
-0.965
-0.96
-0.945
-0.945
-0.96
-0.95
-0.955
-0.94
-0.95
-0.96
-0.96
-0.96
-0.96
-0.955
-0.935
-0.925
-0.935
-0.935
-0.935
-0.95
-0.95
-0.955
-0.95
-0.955
-0.95
-0.93
-0.925
-0.925
-0.91
-0.925
-0.92
-0.895
-0.895
-0.88
-0.865
-0.85
-0.825
-0.815
-0.81
-0.775
-0.755
-0.735
-0.7
-0.675
-0.62
-0.61
-0.61
-0.615
-0.635
-0.635
-0.635
-0.625
-0.62
-0.64
-0.675
-0.725
-0.775
-0.835
-0.885
-0.93
-0.95
-0.97
-0.96
-0.965
-0.945
-0.935
-0.95
-0.95
-0.97
-0.97
-0.995
-0.99
-0.995
-0.98
-0.98
-0.965
-0.965
-0.98
-0.97
-0.975
-0.98
-1.0
-1.025
-1.03
-1.075
-1.08
-1.055
-0.995
-0.905
-0.76
-0.56
-0.295
0.03
0.385
0.705
0.955
1.11
1.14
1.105
0.945
0.665
0.23
-0.275
-0.755
-1.04
-1.14
-1.075
-0.93
-0.79
-0.735
-0.735
-0.76
-0.815
-0.885
-0.945
-0.98
-1.01
-1.02
-1.02
-1.0
-0.98
-0.995
-0.985
-0.995
-0.985
-0.995
-0.99
-1.01
-1.025
-1.025
-1.01
-1.025
-1.02
-1.02
-1.005
-1.0
-0.995
-0.995
-1.015
-1.01
-1.02
-1.03
-1.035
-1.035
-1.045
-1.04
-1.025
-1.015
-1.015
-1.01
-1.0
-1.015
-1.01
-1.025
-1.035
-1.04
-1.02
-1.015
-1.025
-0.995
-0.985
-0.985
-1.005
-1.005
-1.01
-1.01
-1.02
-1.0
-0.99
-0.96
-0.95
-0.945
-0.94
-0.945
-0.955
-0.96
-0.955
-0.945
-0.925
-0.92
-0.915
-0.89
-0.88
-0.865
-0.845
-0.835
-0.83
-0.83
-0.82
-0.805
-0.795
-0.78
-0.77
-0.755
-0.74
-0.715
-0.7
-0.69
-0.67
-0.675
-0.66
-0.66
-0.66
-0.64
-0.625
-0.605
-0.6
-0.585
-0.555
-0.555
-0.555
-0.545
-0.54
-0.545
-0.53
-0.535
-0.52
-0.51
-0.495
-0.48
-0.46
-0.485
-0.49
-0.505
-0.52
-0.54
-0.56
-0.585
-0.59
-0.61
-0.625
-0.64
-0.665
-0.685
-0.685
-0.73
-0.745
-0.765
-0.765
-0.795
-0.81
-0.805
-0.81
-0.83
-0.825
-0.845
-0.855
-0.875
-0.875
-0.885
-0.89
-0.89
-0.87
-0.875
-0.86
-0.845
-0.835
-0.84
-0.855
-0.875
-0.875
-0.89
-0.865
-0.87
-0.865
-0.85
-0.845
-0.835
-0.82
-0.83
-0.84
-0.86
-0.845
-0.845
-0.855
-0.855
-0.85
-0.85
-0.845
-0.83
-0.825
-0.82
-0.825
-0.84
-0.855
-0.855
-0.85
-0.87
-0.875
-0.85
-0.86
-0.845
-0.83
-0.845
-0.855
-0.86
-0.865
-0.88
-0.88
-0.895
-0.895
-0.9
-0.89
-0.89
-0.865
-0.875
-0.89
-0.885
-0.88
-0.895
-0.89
-0.885
-0.9
-0.9
-0.89
-0.9
-0.9
-0.9
-0.91
-0.915
-0.92
-0.925
-0.925
-0.93
-0.935
-0.92
-0.925
-0.93
-0.915
-0.92
-0.935
-0.92
-0.94
-0.94
-0.95
-0.955
-0.945
-0.935
-0.92
-0.915
-0.905
-0.92
-0.945
-0.915
-0.92
-0.935
-0.925
-0.95
-0.94
-0.93
-0.92
-0.91
-0.895
-0.89
-0.91
-0.895
-0.885
-0.895
-0.87
-0.855
-0.82
-0.81
-0.79
-0.78
-0.75
-0.745
-0.71
-0.68
-0.655
-0.615
-0.625
-0.625
-0.63
-0.64
-0.64
-0.63
-0.62
-0.63
-0.665
-0.695
-0.73
-0.78
-0.825
-0.895
-0.925
-0.94
-0.97
-0.96
-0.945
-0.96
-0.96
-0.96
-0.97
-0.97
-0.975
-0.985
-0.985
-0.98
-0.965
-0.965
-0.96
-0.96
-0.965
-0.975
-0.98
-1.005
-1.015
-1.01
-1.01
-0.995
-0.96
-0.955
-0.95
-0.97
-1.01
-1.025
-1.035
-1.02
-0.955
-0.83
-0.65
-0.345
-0.015
0.36
0.71
0.975
1.12
1.165
1.09
0.9
0.555
0.075
-0.435
-0.87
-1.085
-1.11
-1.005
-0.875
-0.785
-0.72
-0.75
-0.815
-0.885
-0.94
-0.99
-0.985
-0.985
-0.965
-0.94
-0.955
-0.96
-0.97
-0.99
-0.995
-1.01
-1.02
-1.025
-1.01
-0.995
-0.98
-0.97
-0.975
-0.985
-1.01
-1.01
-0.995
-0.995
-1.02
-1.02
-0.99
-0.98
-0.98
-0.96
-0.965
-0.975
-0.98
-1.005
-0.995
-0.995
-1.0
-0.99
-0.975
-0.965
-0.96
-0.94
-0.955
-0.945
-0.95
-0.96
-0.955
-0.95
-0.95
-0.945
-0.945
-0.92
-0.89
-0.875
-0.88
-0.87
-0.875
-0.88
-0.88
-0.855
-0.86
-0.835
-0.84
-0.805
-0.79
-0.75
-0.755
-0.735
-0.73
-0.725
-0.72
-0.68
-0.685
-0.675
-0.62
-0.61
-0.585
-0.555
-0.54
-0.54
-0.52
-0.525
-0.51
-0.515
-0.505
-0.49
-0.475
-0.46
-0.435
-0.445
-0.43
-0.43
-0.435
-0.455
-0.465
-0.48
-0.5
-0.51
-0.525
-0.53
-0.545
-0.575
-0.595
-0.615
-0.655
-0.7
-0.74
-0.76
-0.8
-0.81
-0.825
-0.83
-0.855
-0.86
-0.875
-0.875
-0.89
-0.915
