Lead II
-0.905
-0.895
-0.895
-0.89
-0.91
-0.925
-0.975
-1.01
-1.055
-1.085
-1.115
-1.11
-1.12
-1.105
-1.11
-1.12
-1.11
-1.115
-1.125
-1.12
-1.145
-1.15
-1.135
-1.115
-1.095
-1.075
-1.08
-1.1
-1.105
-1.1
-1.1
-1.055
-0.975
-0.83
-0.61
-0.32
0.02
0.44
0.865
1.32
1.765
2.145
2.42
2.595
2.63
2.59
2.415
2.065
1.46
0.82
0.18
-0.46
-1.1
-1.555
-1.36
-1.08
-0.865
-0.755
-0.78
-0.845
-0.96
-1.035
-1.105
-1.11
-1.12
-1.11
-1.11
-1.1
-1.13
-1.115
-1.135
-1.105
-1.09
-1.08
-1.07
-1.065
-1.06
-1.065
-1.06
-1.06
-1.05
-1.06
-1.055
-1.055
-1.025
-1.01
-1.0
-0.99
-0.99
-0.995
-0.985
-0.985
-0.995
-0.995
-0.985
-0.97
-0.96
-0.925
-0.905
-0.875
-0.855
-0.855
-0.85
-0.835
-0.835
-0.8
-0.77
-0.73
-0.71
-0.665
-0.645
-0.635
-0.625
-0.615
-0.585
-0.56
-0.545
-0.52
-0.495
-0.45
-0.435
-0.39
-0.36
-0.365
-0.355
-0.36
-0.36
-0.37
-0.375
-0.36
-0.355
-0.35
-0.345
-0.34
-0.36
-0.36
-0.395
-0.43
-0.48
-0.53
-0.575
-0.62
-0.67
-0.71
-0.745
-0.77
-0.795
-0.815
-0.845
-0.87
-0.89
-0.925
-0.965
-0.99
-0.995
-0.995
-0.995
-0.99
-1.0
-1.005
-1.01
-1.03
-1.07
-1.085
-1.07
-1.075
-1.07
-1.055
-1.055
-1.04
-1.03
-1.02
-1.015
-1.005
-1.005
-1.025
-1.03
-1.045
-1.055
-1.04
-1.035
-1.025
-1.0
-0.995
-0.98
-0.985
-0.99
-1.005
-1.005
-1.015
-0.995
-0.995
-0.99
-0.99
-1.0
-1.0
-1.025
-1.02
-1.025
-1.04
-1.035
-1.05
-1.05
-1.04
-1.035
-1.03
-1.015
-1.035
-1.06
-1.06
-1.07
-1.085
-1.095
-1.105
-1.085
-1.085
-1.08
-1.07
-1.06
-1.05
-1.065
-1.065
-1.08
-1.08
-1.095
-1.095
-1.09
-1.075
-1.075
-1.065
-1.06
-1.055
-1.045
-1.065
-1.08
-1.095
-1.1
-1.1
-1.105
-1.105
-1.095
-1.065
-1.03
-1.015
-1.01
-1.005
-1.005
-0.985
-1.02
-1.015
-1.02
-1.035
-1.01
-0.995
-0.99
-0.975
-0.97
-0.97
-0.97
-0.98
-0.975
-0.985
-0.98
-0.985
-0.985
-0.98
-0.98
-0.995
-1.0
-1.02
-1.01
-1.04
-1.06
-1.09
-1.105
-1.115
-1.135
-1.125
-1.145
-1.17
-1.175
-1.19
-1.185
-1.19
-1.185
-1.175
-1.16
-1.155
-1.14
-1.125
-1.135
-1.15
-1.17
-1.185
-1.205
-1.185
-1.15
-1.08
-0.95
-0.72
-0.435
-0.045
0.43
0.95
1.495
1.98
2.355
2.55
2.565
2.385
1.935
1.295
0.655
0.015
-0.625
-1.265
-1.615
-1.335
-1.025
-0.82
-0.75
-0.805
-0.91
-1.015
-1.12
-1.155
-1.17
-1.165
-1.145
-1.15
-1.17
-1.175
-1.185
-1.175
-1.175
-1.155
-1.16
-1.155
-1.125
-1.115
-1.11
-1.125
-1.12
-1.13
-1.135
-1.135
-1.13
-1.105
-1.1
-1.065
-1.055
-1.05
-1.04
-1.06
-1.055
-1.065
-1.05
-1.045
-1.04
-1.025
-1.015
-0.99
-0.97
-0.955
-0.945
-0.935
-0.92
-0.905
-0.9
-0.87
-0.855
-0.815
-0.81
-0.755
-0.735
-0.71
-0.68
-0.65
-0.63
-0.625
-0.625
-0.6
-0.575
-0.555
-0.525
-0.48
-0.445
-0.425
-0.415
-0.41
-0.41
-0.425
-0.43
-0.43
-0.43
-0.435
-0.44
-0.46
-0.495
-0.535
-0.6
-0.67
-0.74
-0.785
-0.82
-0.845
-0.87
-0.91
-0.92
-0.955
-1.0
-1.025
-1.08
-1.095
-1.14
-1.165
-1.17
-1.195
-1.21
-1.2
-1.2
-1.195
-1.18
-1.18
-1.185
-1.205
-1.215
-1.23
-1.23
-1.25
-1.24
-1.21
-1.21
-1.19
-1.185
-1.19
-1.19
-1.185
-1.195
-1.21
-1.215
-1.195
-1.21
-1.2
-1.19
-1.175
-1.15
-1.15
-1.15
-1.17
-1.175
-1.175
-1.185
-1.2
-1.19
-1.175
-1.18
-1.175
-1.165
-1.17
-1.185
-1.195
-1.205
-1.21
-1.225
-1.24
-1.23
-1.23
-1.225
-1.205
-1.19
-1.195
-1.2
-1.23
-1.24
-1.24
-1.255
-1.26
-1.265
-1.255
-1.255
-1.24
-1.235
-1.24
-1.23
-1.245
-1.245
-1.26
-1.25
-1.26
-1.25
-1.245
-1.245
-1.245
-1.25
-1.245
-1.25
-1.265
-1.26
-1.255
-1.265
-1.265
-1.245
-1.225
-1.205
-1.17
-1.125
-1.13
-1.155
-1.175
-1.14
-1.165
-1.18
-1.175
-1.18
-1.155
-1.13
-1.105
-1.07
-1.05
-1.045
-1.045
-1.055
-1.08
-1.09
-1.12
-1.135
-1.125
-1.12
-1.125
-1.115
-1.11
-1.12
-1.145
-1.17
-1.2
-1.23
-1.26
-1.3
-1.295
-1.31
-1.3
-1.31
-1.305
-1.275
-1.275
-1.26
-1.255
-1.295
-1.285
-1.28
-1.28
-1.26
-1.245
-1.225
-1.215
-1.215
-1.18
-1.115
-0.98
-0.785
-0.515
-0.175
0.235
0.68
1.18
1.66
2.07
2.37
2.545
2.565
2.47
2.18
1.68
1.04
0.4
-0.24
-0.88
-1.52
-1.685
-1.49
-1.235
-1.035
-0.935
-0.965
-1.04
-1.12
-1.195
-1.25
-1.24
-1.245
-1.245
-1.225
-1.22
-1.23
-1.235
-1.24
-1.24
-1.245
-1.225
-1.205
-1.19
-1.165
-1.16
-1.155
-1.15
-1.165
-1.16
-1.16
-1.18
-1.155
-1.135
-1.115
-1.115
-1.1
-1.075
-1.075
-1.075
-1.075
-1.065
-1.075
-1.055
-1.045
-1.02
-0.995
-0.975
-0.95
-0.94
-0.925
-0.91
-0.885
-0.875
-0.845
-0.82
-0.795
-0.755
-0.735
-0.705
-0.685
-0.675
-0.66
-0.63
-0.635
-0.6
-0.575
-0.555
-0.515
-0.495
-0.475
-0.46
-0.45
-0.455
-0.45
-0.45
-0.46
-0.475
-0.49
-0.515
-0.53
-0.535
-0.54
-0.56
-0.575
-0.595
-0.635
-0.69
-0.72
-0.78
-0.815
-0.86
-0.9
-0.92
-0.94
-0.95
-0.975
-0.99
-1.0
-1.025
-1.045
-1.07
-1.065
-1.06
-1.05
-1.055
-1.05
-1.04
-1.03
-1.04
-1.055
-1.06
-1.075
-1.075
-1.075
-1.08
-1.09
-1.08
-1.06
-1.05
-1.025
-1.015
-1.025
-1.02
-1.035
-1.045
-1.05
-1.045
-1.05
-1.035
-1.03
-1.025
-1.02
-1.025
-1.035
-1.035
-1.04
-1.04
-1.04
-1.04
-1.04
-1.035
-1.035
-1.035
-1.03
-1.035
-1.07
-1.07
-1.075
-1.06
-1.055
-1.045
-1.04
-1.045
-1.045
-1.05
-1.045
-1.06
-1.07
-1.09
-1.11
-1.11
-1.1
-1.12
-1.105
-1.095
-1.08
-1.07
-1.055
-1.065
-1.075
-1.065
-1.095
-1.105
-1.1
-1.11
-1.125
-1.125
-1.125
-1.1
-1.09
-1.095
-1.095
-1.09
-1.105
-1.12
-1.13
-1.13
-1.13
-1.115
-1.115
-1.09
-1.1
-1.1
-1.09
-1.085
-1.075
-1.07
-1.045
-1.03
-1.01
-1.005
-1.0
-0.985
-0.96
-0.965
-0.97
-0.975
-0.98
-0.98
-0.985
-0.965
-0.955
-0.93
-0.92
-0.92
-0.91
-0.9
-0.91
-0.935
-0.925
-0.955
-0.97
-0.975
-0.99
-0.99
-0.995
-1.02
-1.04
-1.065
-1.08
-1.105
-1.12
-1.14
-1.155
-1.155
-1.165
-1.15
-1.145
-1.13
-1.11
-1.095
-1.11
-1.11
-1.115
-1.14
-1.145
-1.155
-1.155
-1.15
-1.13
-1.095
-1.04
-0.96
-0.835
-0.65
-0.415
-0.1
0.285
0.71
1.2
1.685
2.105
2.435
2.61
2.645
2.505
2.165
1.585
0.945
0.305
-0.335
-0.975
-1.615
-1.605
-1.31
-0.995
-0.78
-0.7
-0.745
-0.845
-0.98
-1.065
-1.135
-1.155
-1.135
-1.11
-1.085
-1.085
-1.08
-1.085
-1.065
-1.08
-1.09
-1.09
-1.1
-1.095
-1.095
-1.08
-1.07
-1.055
-1.06
-1.065
-1.05
-1.055
-1.04
-1.04
-1.03
-1.035
-1.03
-1.025
-1.015
-1.01
-0.995
-0.99
-1.005
-0.99
-1.0
-0.975
-0.975
-0.945
-0.945
-0.9
-0.87
-0.845
-0.84
-0.805
-0.8
-0.8
-0.78
-0.745
-0.75
-0.715
-0.675
-0.64
-0.605
-0.565
-0.53
-0.485
-0.48
-0.45
-0.435
-0.43
-0.43
-0.415
-0.375
-0.35
-0.34
-0.33
-0.335
-0.34
-0.355
-0.355
-0.37
-0.39
-0.42
-0.42
-0.435
-0.46
-0.49
-0.53
-0.57
-0.62
-0.675
-0.735
-0.775
-0.81
-0.825
-0.855
-0.87
-0.89
-0.905
-0.905
-0.935
-0.975
-1.0
-1.025
-1.035
-1.045
-1.045
-1.065
-1.045
-1.04
-1.03
-1.03
-1.03
-1.025
-1.03
-1.04
-1.045
-1.04
-1.05
-1.065
-1.03
-1.03
-1.025
-1.005
-1.0
-1.005
-1.015
-1.0
-1.01
-1.015
-1.015
-1.025
-0.985
-0.985
-0.985
-0.975
-0.98
-0.99
-1.0
-1.035
-1.05
-1.045
-1.06
-1.05
-1.04
-1.04
-1.025
-1.025
-1.01
-1.025
-1.04
-1.06
-1.075
-1.09
-1.095
-1.085
-1.085
-1.085
-1.075
-1.075
-1.09
-1.085
-1.11
-1.105
-1.135
-1.14
-1.13
-1.12
-1.105
-1.115
-1.125
-1.125
-1.12
-1.135
-1.155
-1.17
-1.175
-1.18
-1.155
-1.17
-1.165
-1.145
-1.135
-1.125
-1.125
-1.14
-1.155
-1.155
-1.165
-1.17
-1.16
-1.15
-1.13
-1.095
-1.06
-1.03
-1.03
-1.045
-1.05
-1.065
-1.08
-1.085
-1.09
-1.06
-1.025
-1.0
-0.98
-0.965
-0.955
-0.97
-0.98
-0.995
-1.015
-1.03
-1.035
-1.05
-1.045
-1.035
-1.04
-1.04
-1.055
-1.105
-1.115
-1.13
-1.165
-1.175
-1.2
-1.225
-1.235
-1.235
-1.255
-1.235
-1.225
-1.22
-1.23
-1.24
-1.225
-1.23
-1.23
-1.235
-1.225
-1.235
-1.205
-1.2
-1.195
-1.18
-1.135
-1.055
-0.935
-0.71
-0.41
-0.04
0.415
0.89
1.41
1.88
2.275
2.52
2.595
2.515
2.26
1.775
1.135
0.495
-0.145
-0.785
-1.425
-1.75
-1.515
-1.23
-1.005
-0.89
-0.91
-0.985
-1.105
-1.17
-1.22
-1.25
-1.22
-1.205
-1.18
-1.175
-1.18
-1.21
-1.215
-1.23
-1.245
-1.255
-1.235
-1.21
-1.19
-1.17
-1.15
-1.145
-1.155
-1.18
-1.185
-1.15
-1.16
-1.16
-1.15
-1.14
-1.145
-1.115
-1.105
-1.095
-1.09
-1.085
-1.08
-1.075
-1.06
-1.045
-1.04
-1.005
-0.99
-0.965
-0.955
-0.945
-0.93
-0.915
-0.9
-0.905
-0.89
-0.89
-0.83
-0.805
-0.775
-0.735
-0.705
-0.685
-0.66
-0.635
-0.62
-0.595
-0.59
-0.575
-0.555
-0.525
-0.51
-0.495
-0.485
-0.495
-0.5
-0.51
-0.53
-0.555
-0.585
-0.62
-0.655
-0.68
-0.73
-0.775
-0.81
-0.85
-0.875
-0.92
-0.95
-0.985
-1.01
-1.04
-1.05
-1.07
-1.08
-1.1
-1.13
-1.14
-1.175
-1.19
-1.2
-1.215
-1.205
-1.215
-1.205
-1.215
-1.19
-1.18
-1.19
-1.185
-1.185
-1.195
-1.21
-1.22
-1.23
-1.22
-1.225
-1.205
-1.2
-1.175
-1.165
-1.16
-1.17
-1.165
-1.175
-1.195
-1.18
-1.175
-1.16
-1.16
-1.15
-1.15
-1.145
-1.16
-1.165
-1.16
-1.17
-1.175
-1.185
-1.185
-1.175
-1.16
-1.16
-1.135
-1.14
-1.155
-1.15
-1.17
-1.18
-1.19
-1.195
-1.195
-1.205
-1.185
-1.21
-1.185
-1.175
-1.18
-1.185
-1.185
-1.195
-1.195
-1.2
-1.21
-1.225
-1.215
-1.22
-1.195
-1.195
-1.205
-1.185
-1.19
-1.205
-1.21
-1.22
-1.205
-1.21
-1.205
-1.195
-1.185
-1.175
-1.19
-1.195
-1.2
-1.2
-1.2
-1.195
-1.185
-1.185
-1.15
-1.14
-1.11
-1.095
-1.085
-1.07
-1.08
-1.085
-1.075
-1.085
-1.09
-1.075
-1.06
-1.045
-1.02
-1.01
-0.985
-0.975
-0.955
-0.955
-0.97
-0.975
-0.99
-0.99
-0.99
-1.0
-0.995
-0.99
-1.005
-1.005
-1.04
-1.075
-1.095
-1.115
-1.145
-1.16
-1.155
-1.175
-1.16
-1.16
-1.15
-1.165
-1.17
-1.17
-1.175
-1.18
-1.18
-1.155
-1.125
-1.125
-1.115
-1.13
-1.125
-1.14
-1.1
-1.04
-0.93
-0.765
-0.555
-0.26
0.055
0.415
0.835
1.28
1.735
2.125
2.365
2.42
2.24
1.725
1.085
0.445
-0.195
-0.835
-1.475
-1.495
-1.2
-0.93
-0.77
-0.735
-0.775
-0.885
-1.005
-1.085
-1.105
-1.115
-1.09
-1.08
-1.065
-1.09
-1.08
-1.08
-1.08
-1.09
-1.09
-1.085
-1.065
-1.045
-1.03
-1.02
-1.03
-1.04
-1.03
-1.055
-1.045
-1.035
-1.03
-1.0
-0.98
-0.975
-0.97
-0.955
-0.95
-0.945
-0.92
-0.92
-0.925
-0.91
-0.9
-0.885
-0.87
-0.85
-0.83
-0.815
-0.81
-0.795
-0.785
-0.79
-0.76
-0.745
-0.725
-0.685
-0.645
-0.615
-0.575
-0.555
-0.545
-0.525
-0.52
-0.51
-0.49
-0.475
-0.455
-0.43
-0.41
-0.365
-0.335
-0.32
-0.3
-0.305
-0.305
-0.315
-0.315
-0.35
-0.36
-0.375
-0.38
-0.4
-0.405
-0.425
-0.46
-0.49
-0.54
-0.595
-0.63
-0.7
-0.73
-0.77
-0.795
-0.82
-0.85
-0.865
-0.89
-0.92
-0.945
-0.965
-0.975
-0.995
-1.0
-1.0
-0.995
-0.975
-0.96
-0.985
-0.99
-1.005
-1.02
-1.04
-1.035
-1.035
-1.035
-1.005
-0.995
-0.985
-0.985
-0.985
-0.99
-0.985
-0.98
-0.99
-0.99
-0.995
-0.995
-0.975
-0.975
-0.975
-0.965
-0.94
-0.945
-0.935
-0.915
-0.905
-0.885
-0.87
-0.835
-0.775
-0.72
-0.66
-0.595
-0.555
-0.505
-0.45
-0.395
-0.315
-0.24
-0.16
-0.075
0.035
0.175
0.315
0.49
0.635
0.805
0.945
1.13
1.32
1.5
1.67
1.84
2.01
2.16
2.31
2.46
2.57
2.65
2.69
2.715
2.735
2.72
2.71
2.675
2.655
2.62
2.535
2.345
1.935
1.295
0.655
0.015
-0.625
-0.945
-1.05
-1.08
-1.12
-1.155
-1.23
-1.335
-1.43
-1.525
-1.59
-1.64
-1.635
-1.625
-1.61
-1.58
-1.55
-1.53
-1.55
-1.595
-1.615
-1.645
-1.685
-1.69
-1.715
-1.745
-1.76
-1.775
-1.79
-1.8
-1.81
-1.8
-1.805
-1.835
-1.855
-1.88
-1.895
-1.91
-1.92
-1.93
-1.955
-1.975
-2.0
-2.015
-2.04
-2.06
-2.065
-2.09
-2.115
-2.15
-2.18
-2.215
-2.23
-2.24
-2.26
-2.26
-2.255
-2.285
-2.305
-2.33
-2.345
-2.355
-2.375
-2.37
-2.355
-2.33
-2.305
-2.285
-2.235
-2.21
-2.18
-2.15
-2.115
-2.065
-2.01
-1.955
-1.885
-1.815
-1.745
-1.67
-1.62
-1.565
-1.525
-1.49
-1.44
-1.4
-1.355
-1.32
-1.27
-1.235
-1.225
-1.2
-1.185
-1.19
-1.205
-1.195
-1.19
-1.21
-1.2
-1.21
-1.225
-1.19
-1.19
-1.17
-1.165
-1.18
-1.185
-1.2
-1.205
-1.21
-1.21
-1.225
-1.2
-1.215
-1.2
-1.19
-1.18
-1.185
-1.18
-1.195
-1.205
-1.215
-1.22
-1.245
-1.245
-1.25
-1.235
-1.225
-1.22
-1.21
-1.23
-1.23
-1.23
-1.23
-1.23
-1.24
-1.25
-1.25
-1.245
-1.235
-1.23
-1.23
-1.235
-1.245
-1.25
-1.265
-1.265
-1.26
-1.255
-1.26
-1.255
-1.245
-1.235
-1.24
-1.235
-1.26
-1.27
-1.265
-1.27
-1.27
-1.265
-1.25
-1.26
-1.255
-1.27
-1.26
-1.27
-1.26
-1.26
-1.26
-1.26
-1.265
-1.27
-1.255
-1.265
-1.235
-1.24
-1.255
-1.275
-1.285
-1.28
-1.28
-1.29
-1.285
-1.28
-1.27
-1.265
-1.24
-1.245
-1.255
-1.265
-1.265
-1.28
-1.27
-1.29
-1.295
-1.285
-1.285
-1.265
-1.265
-1.245
-1.26
-1.275
-1.27
-1.275
-1.29
-1.28
-1.3
-1.295
-1.285
-1.285
-1.26
-1.235
-1.245
-1.24
-1.25
-1.265
-1.285
-1.295
-1.3
-1.3
-1.295
-1.28
-1.27
-1.265
-1.27
-1.27
-1.275
-1.275
-1.285
-1.285
-1.275
-1.27
-1.245
-1.25
-1.235
-1.23
-1.24
-1.25
-1.265
-1.28
-1.295
-1.31
-1.305
-1.285
-1.27
-1.26
-1.255
-1.26
-1.25
-1.24
-1.23
-1.245
-1.25
-1.265
-1.275
-1.265
-1.25
-1.255
-1.245
-1.24
-1.235
-1.24
-1.26
-1.25
-1.26
-1.26
-1.25
-1.265
-1.235
-1.235
-1.22
-1.235
-1.23
-1.24
-1.245
-1.255
-1.255
-1.245
-1.25
-1.23
-1.225
-1.19
-1.16
-1.145
-1.145
-1.145
-1.16
-1.155
-1.165
-1.175
-1.175
-1.175
-1.155
-1.12
-1.085
-1.065
-1.045
-1.035
-1.035
-1.045
-1.05
-1.085
-1.1
-1.11
-1.12
-1.13
-1.095
-1.085
-1.085
-1.085
-1.1
-1.135
-1.155
-1.17
-1.205
-1.225
-1.245
-1.255
-1.255
-1.27
-1.27
-1.25
-1.25
-1.26
-1.25
-1.26
-1.25
-1.24
-1.215
-1.2
-1.2
-1.18
-1.17
-1.13
-1.06
-0.995
-0.885
-0.72
-0.485
-0.19
0.165
0.57
0.995
1.44
1.845
2.17
2.335
2.355
2.13
1.625
0.985
0.345
-0.295
-0.935
-1.575
-1.835
-1.595
-1.31
-1.08
-0.96
-0.95
-1.015
-1.09
-1.16
-1.195
-1.205
-1.22
-1.215
-1.19
-1.18
-1.18
-1.17
-1.18
-1.175
-1.185
-1.205
-1.17
-1.16
-1.15
-1.12
-1.115
-1.115
-1.115
-1.13
-1.125
-1.13
-1.115
-1.105
-1.07
-1.045
-1.02
-1.005
-0.995
-0.995
-0.995
-0.98
-0.97
-0.965
-0.96
-0.955
-0.915
-0.92
-0.88
-0.85
-0.85
-0.82
-0.8
-0.79
-0.785
-0.76
-0.74
-0.74
-0.68
-0.665
-0.615
-0.585
-0.565
-0.54
-0.525
-0.505
-0.475
-0.445
-0.41
-0.365
-0.335
-0.305
-0.285
-0.26
-0.24
-0.235
-0.245
-0.24
-0.235
-0.23
-0.215
-0.19
-0.165
-0.16
-0.16
-0.18
-0.19
-0.215
-0.25
-0.3
-0.345
-0.405
-0.445
-0.465
-0.5
-0.535
-0.555
-0.585
-0.62
-0.63
-0.67
-0.71
-0.755
-0.785
-0.8
-0.81
-0.81
-0.825
-0.81
-0.82
-0.835
-0.845
-0.86
-0.84
-0.855
-0.86
-0.87
-0.86
-0.855
-0.84
-0.845
-0.83
-0.835
-0.835
-0.855
-0.865
-0.87
-0.865
-0.865
-0.85
-0.835
-0.82
-0.82
-0.805
-0.815
-0.82
-0.835
-0.855
-0.875
-0.885
-0.905
-0.9
-0.88
-0.87
-0.875
-0.87
-0.875
-0.88
-0.89
-0.915
-0.935
-0.94
-0.955
-0.965
-0.95
-0.965
-0.96
-0.935
-0.925
-0.955
-0.97
-0.985
-0.995
-1.0
-1.005
-1.015
-0.995
-0.99
-0.985
-0.98
-0.98
-0.98
-1.0
-1.01
-1.0
-1.0
-1.005
-1.01
-1.02
-1.02
-1.02
-1.025
-1.025
-1.035
-1.035
-1.02
-1.025
-1.01
-1.0
-0.995
-0.965
-0.955
-0.925
-0.905
-0.91
-0.91
-0.925
-0.925
-0.94
-0.96
-0.95
-0.92
-0.895
-0.84
-0.815
-0.795
-0.805
-0.82
-0.835
-0.85
-0.87
-0.875
-0.9
-0.905
-0.91
-0.935
-0.93
-0.925
-0.95
-0.98
-1.02
-1.07
-1.115
-1.135
-1.145
-1.145
-1.135
-1.12
-1.09
-1.075
-1.075
-1.08
-1.08
-1.09
-1.085
-1.095
-1.125
-1.105
-1.105
-1.11
-1.075
-1.045
-0.97
-0.845
-0.66
-0.43
-0.11
0.235
0.6
0.95
1.33
1.71
2.045
2.325
2.48
2.49
2.355
1.94
1.3
0.66
0.02
-0.62
-1.26
-1.645
-1.395
-1.085
-0.83
-0.71
-0.735
-0.805
-0.925
-1.025
-1.085
-1.11
-1.105
-1.09
-1.07
-1.08
-1.07
-1.085
-1.09
-1.085
-1.09
-1.075
-1.07
-1.065
-1.05
-1.03
-1.025
-1.02
-1.03
-1.02
-1.02
-1.02
-1.015
-1.015
-1.015
-1.0
-0.995
-0.97
-0.96
-0.945
-0.93
-0.92
-0.91
-0.905
-0.92
-0.91
-0.905
-0.885
-0.865
-0.84
-0.82
-0.79
-0.775
-0.77
-0.745
-0.735
-0.725
-0.72
-0.695
-0.66
-0.655
-0.615
-0.58
-0.54
-0.515
-0.52
-0.5
-0.495
-0.48
-0.475
-0.445
-0.42
-0.405
-0.38
-0.365
-0.355
-0.345
-0.355
-0.39
-0.405
-0.43
-0.46
-0.45
-0.47
-0.485
-0.515
-0.525
-0.55
-0.58
-0.61
-0.65
-0.695
-0.72
-0.755
-0.79
-0.82
-0.85
-0.88
-0.895
-0.91
-0.95
-0.965
-0.975
-1.01
-1.03
-1.05
-1.055
-1.055
-1.045
-1.035
-1.035
-1.025
-1.04
-1.065
-1.075
-1.09
-1.09
-1.105
-1.095
-1.1
-1.095
-1.105
-1.085
-1.075
-1.075
-1.07
-1.08
-1.08
-1.08
-1.075
-1.08
-1.1
-1.095
-1.105
-1.1
-1.095
-1.09
-1.075
-1.085
-1.085
-1.095
-1.1
-1.11
-1.13
-1.13
-1.13
-1.135
-1.09
-1.1
-1.09
-1.105
-1.135
-1.145
-1.14
-1.14
-1.15
-1.145
-1.13
-1.13
-1.125
-1.14
-1.135
-1.145
-1.16
-1.17
-1.18
-1.19
-1.17
-1.15
-1.155
-1.135
-1.14
-1.135
-1.16
-1.195
-1.2
-1.22
-1.215
-1.215
-1.215
-1.205
-1.19
-1.18
-1.185
-1.195
-1.18
-1.195
-1.2
-1.215
-1.22
-1.235
-1.23
-1.22
-1.225
-1.195
-1.145
-1.125
-1.095
-1.1
-1.095
-1.115
-1.13
-1.145
-1.135
-1.14
-1.115
-1.105
-1.085
-1.06
-1.035
-1.025
-1.02
-1.02
-1.06
-1.075
-1.09
-1.07
-1.065
-1.07
-1.065
-1.09
-1.105
-1.13
-1.14
-1.155
-1.18
-1.205
-1.22
-1.235
-1.245
-1.26
-1.26
-1.27
-1.28
-1.29
-1.285
-1.3
-1.3
-1.31
-1.305
-1.305
-1.295
-1.27
-1.265
-1.27
-1.275
-1.28
-1.245
-1.2
-1.135
-1.01
-0.81
-0.525
-0.135
0.31
0.82
1.34
1.82
2.19
2.385
2.375
2.125
1.575
0.935
0.295
-0.345
-0.985
-1.625
-1.91
-1.61
-1.295
-1.07
-0.96
-0.985
-1.085
-1.185
-1.265
-1.3
-1.3
-1.27
-1.265
-1.255
-1.26
-1.26
-1.27
-1.26
-1.27
-1.26
-1.25
-1.235
-1.23
-1.205
-1.205
-1.19
-1.19
-1.205
-1.205
-1.21
-1.22
-1.19
-1.175
-1.16
-1.135
-1.11
-1.085
-1.095
-1.11
-1.115
-1.11
-1.105
-1.11
-1.11
-1.09
-1.065
-1.02
-0.975
-0.94
-0.92
-0.915
-0.905
-0.89
-0.875
-0.86
-0.84
-0.815
-0.785
-0.755
-0.715
-0.685
-0.65
-0.65
-0.64
-0.605
-0.595
-0.595
-0.565
-0.575
-0.545
-0.545
-0.545
-0.53
-0.545
-0.555
-0.565
-0.58
-0.59
-0.605
-0.62
-0.62
-0.645
-0.68
-0.72
-0.755
-0.81
-0.875
-0.935
-0.965
-1.0
-1.03
-1.055
-1.095
-1.135
-1.145
-1.15
-1.145
-1.155
-1.175
-1.195
-1.22
-1.24
-1.25
-1.28
-1.28
-1.275
-1.26
-1.25
-1.24
-1.24
-1.25
-1.265
-1.255
-1.255
-1.26
-1.26
-1.255
-1.255
-1.23
-1.215
-1.235
-1.23
-1.23
-1.23
-1.245
-1.235
-1.23
-1.22
-1.21
-1.21
-1.195
-1.185
-1.19
-1.185
-1.195
-1.185
-1.19
-1.18
-1.185
-1.195
-1.19
-1.19
-1.175
-1.175
-1.17
-1.165
-1.16
-1.185
-1.195
-1.2
-1.215
-1.2
-1.19
-1.18
-1.165
-1.175
-1.185
-1.185
-1.19
-1.19
-1.21
-1.21
-1.205
-1.21
-1.19
-1.18
-1.17
-1.15
-1.17
-1.16
-1.18
-1.19
-1.195
-1.185
-1.195
-1.205
-1.19
-1.18
-1.17
-1.145
-1.16
-1.16
-1.16
-1.165
-1.17
-1.175
-1.175
-1.165
-1.15
-1.15
-1.12
-1.085
-1.075
-1.055
-1.015
-1.01
-1.03
-1.025
-1.025
-1.015
-1.015
-1.0
-0.985
-0.97
-0.955
-0.935
-0.915
-0.905
-0.905
-0.915
-0.935
-0.925
-0.925
-0.92
-0.905
-0.9
-0.91
-0.92
-0.94
-0.975
-0.995
-1.045
-1.065
-1.06
-1.08
-1.1
-1.11
-1.1
-1.1
-1.11
-1.115
-1.11
-1.11
-1.125
-1.115
-1.105
-1.095
-1.095
-1.075
-1.055
-1.06
-1.06
-1.055
-1.055
-1.005
-0.93
-0.795
-0.59
-0.3
0.045
0.455
0.89
1.33
1.735
2.07
2.285
2.37
2.335
2.12
1.645
1.005
0.365
-0.275
-0.915
-1.555
-1.545
-1.315
-1.025
-0.835
-0.775
-0.8
-0.89
-0.96
-1.025
-1.065
-1.055
-1.055
-1.055
-1.04
-1.025
-1.03
-1.04
-1.05
-1.06
-1.045
-1.025
-1.02
-1.01
-0.995
-0.99
-0.99
-0.99
-0.995
-0.995
-1.01
-1.0
-1.0
-0.99
-0.96
-0.945
-0.95
-0.925
-0.93
-0.925
-0.925
-0.93
-0.92
-0.91
-0.895
-0.87
-0.855
-0.83
-0.815
-0.8
-0.805
-0.79
-0.775
-0.765
-0.76
-0.745
-0.715
-0.69
-0.645
-0.605
-0.59
-0.58
-0.555
-0.565
-0.54
-0.505
-0.48
-0.455
-0.435
-0.395
-0.37
-0.345
-0.345
-0.335
-0.345
-0.35
-0.365
-0.365
-0.385
-0.4
-0.4
-0.4
-0.425
-0.43
-0.475
-0.51
-0.565
-0.61
-0.655
-0.695
-0.74
-0.77
-0.79
-0.805
-0.82
-0.85
-0.87
-0.88
-0.915
-0.95
-0.97
-1.0
-0.995
-1.01
-1.0
-0.995
-0.99
-0.995
-1.015
-1.005
-1.015
-1.025
-1.035
-1.04
-1.04
-1.045
-1.045
-1.05
-1.015
-1.01
-1.0
-1.005
-1.005
-1.005
-1.015
-1.015
-1.015
-1.02
-1.015
-0.995
-0.985
-0.965
-0.98
-0.985
-1.0
-0.995
-0.985
-0.995
-1.005
-1.0
-1.0
-1.01
-1.01
-0.995
-0.99
-0.99
-1.005
-1.02
-1.05
-1.03
-1.02
-1.02
-1.01
-1.01
-1.01
-1.005
-1.015
-1.025
-1.05
-1.055
-1.06
-1.06
-1.065
-1.06
-1.045
-1.035
-1.025
-1.03
-1.02
-1.035
-1.045
-1.055
-1.07
-1.065
-1.07
-1.065
-1.055
-1.055
-1.05
-1.045
-1.055
-1.05
-1.085
-1.095
-1.095
-1.095
-1.105
-1.11
-1.085
-1.08
-1.045
-1.02
-1.0
-0.98
-0.995
-0.98
-0.965
-0.975
-0.98
-0.97
-0.975
-0.955
-0.935
-0.935
-0.935
-0.925
-0.91
-0.89
-0.88
-0.89
-0.885
-0.9
-0.9
-0.89
-0.895
-0.88
-0.885
-0.9
-0.92
-0.945
-0.985
-1.005
-1.055
-1.1
-1.1
-1.12
-1.13
-1.13
-1.145
-1.14
-1.125
-1.135
-1.11
-1.12
-1.13
-1.135
-1.14
-1.115
-1.12
-1.115
-1.11
-1.115
-1.105
-1.09
-1.06
-0.965
-0.85
-0.635
-0.355
-0.035
0.29
0.635
0.97
1.335
1.665
1.955
2.185
2.31
2.315
2.155
1.76
1.12
0.48
-0.16
-0.8
-1.44
-1.575
-1.355
-1.08
-0.88
-0.82
-0.845
-0.93
-1.01
-1.085
-1.09
-1.105
-1.13
-1.105
-1.115
-1.135
-1.145
-1.13
-1.135
-1.13
-1.1
-1.1
-1.1
-1.085
-1.08
-1.095
-1.09
-1.1
-1.1
-1.105
-1.11
-1.095
-1.075
-1.06
-1.04
-1.04
-1.03
-1.04
-1.045
-1.03
-1.035
-1.04
-1.02
-1.005
-0.975
-0.975
-0.945
-0.93
-0.93
-0.915
-0.915
-0.935
-0.93
-0.9
-0.865
-0.84
-0.815
-0.785
-0.75
-0.735
-0.73
-0.705
-0.68
-0.665
-0.625
-0.625
-0.58
-0.555
-0.53
-0.495
-0.47
-0.465
-0.465
-0.48
-0.46
-0.46
-0.465
-0.455
-0.465
-0.465
-0.455
-0.455
-0.46
-0.49
-0.54
-0.575
-0.625
-0.695
-0.715
-0.77
-0.795
-0.84
-0.87
-0.89
-0.925
-0.935
-0.96
-0.985
-1.04
-1.065
-1.095
-1.125
-1.14
-1.145
-1.16
-1.155
-1.145
-1.155
-1.155
-1.19
-1.21
-1.215
-1.215
-1.225
-1.23
-1.215
-1.21
-1.225
-1.21
-1.22
-1.23
-1.215
-1.21
-1.235
-1.23
-1.235
-1.24
-1.24
-1.215
-1.205
-1.19
-1.21
-1.215
-1.22
-1.22
-1.22
-1.195
-1.2
-1.21
-1.2
-1.2
-1.195
-1.19
-1.19
-1.195
-1.2
-1.205
-1.22
-1.215
-1.24
-1.245
-1.23
-1.215
-1.21
-1.2
-1.205
-1.215
-1.245
-1.25
-1.275
-1.28
-1.275
-1.285
-1.28
-1.275
-1.26
-1.255
-1.245
-1.24
-1.235
-1.255
-1.265
-1.285
-1.285
-1.285
-1.275
-1.27
-1.27
-1.26
-1.26
-1.265
-1.27
-1.285
-1.28
-1.3
-1.305
-1.305
-1.31
-1.275
-1.27
-1.24
-1.23
-1.205
-1.2
-1.2
-1.2
-1.205
-1.205
-1.23
-1.22
-1.205
-1.21
-1.195
-1.185
-1.175
-1.15
-1.14
-1.13
-1.125
-1.13
-1.15
-1.16
-1.17
-1.165
-1.17
-1.165
-1.145
-1.16
-1.17
-1.185
-1.21
-1.25
-1.275
-1.295
-1.31
-1.335
-1.335
-1.335
-1.35
-1.345
-1.36
-1.355
-1.35
-1.355
-1.35
-1.34
-1.35
-1.345
-1.315
-1.31
-1.325
-1.33
-1.32
-1.295
-1.275
-1.18
-1.005
-0.78
-0.46
-0.06
0.375
0.86
1.32
1.74
2.04
2.195
2.18
1.865
1.28
0.64
0.0
-0.64
-1.28
-1.92
-1.76
-1.48
-1.225
-1.085
-1.055
-1.125
-1.225
-1.3
-1.345
-1.375
-1.35
-1.325
-1.32
-1.31
-1.32
-1.33
-1.345
-1.35
-1.365
-1.365
-1.34
-1.335
-1.3
-1.29
-1.285
-1.275
-1.3
-1.3
-1.285
-1.265
-1.27
-1.265
-1.255
-1.24
-1.21
-1.21
-1.205
-1.2
-1.215
-1.21
-1.215
-1.21
-1.2
-1.19
-1.15
-1.13
-1.095
-1.08
-1.06
-1.055
-1.065
-1.05
-1.035
-1.02
-1.01
-0.98
-0.965
-0.93
-0.88
-0.85
-0.835
-0.815
-0.81
-0.79
-0.785
-0.775
-0.755
-0.72
-0.695
-0.67
-0.635
-0.64
-0.635
-0.65
-0.665
-0.685
-0.695
-0.71
-0.715
-0.725
-0.73
-0.76
-0.785
-0.81
-0.875
-0.915
-0.965
-1.01
-1.075
-1.12
-1.135
-1.15
-1.15
-1.16
-1.155
-1.185
-1.185
-1.19
-1.22
-1.235
-1.25
-1.27
-1.285
-1.29
-1.285
-1.27
-1.265
-1.255
-1.26
-1.265
-1.27
-1.275
-1.29
-1.29
-1.3
-1.28
-1.27
-1.24
-1.2
-1.21
-1.23
-1.225
-1.26
-1.265
-1.265
-1.265
-1.26
-1.24
-1.225
-1.215
-1.205
-1.2
-1.205
-1.175
-1.18
-1.195
-1.19
-1.205
-1.205
-1.19
-1.185
-1.185
-1.2
-1.18
-1.185
-1.19
-1.19
-1.195
-1.2
-1.2
-1.195
-1.195
-1.19
-1.2
-1.19
-1.175
-1.175
-1.175
-1.195
-1.195
-1.205
-1.205
-1.185
-1.175
-1.17
-1.165
-1.15
-1.165
-1.165
-1.155
-1.165
-1.17
-1.19
-1.19
-1.19
-1.185
-1.195
-1.165
-1.15
-1.14
-1.14
-1.15
-1.175
-1.145
-1.145
-1.15
-1.15
-1.14
-1.12
-1.1
-1.04
-1.025
-1.03
-1.02
-1.02
-1.005
-1.03
-1.025
-1.03
-1.02
-1.015
-0.995
-0.96
-0.935
-0.915
-0.905
-0.9
-0.91
-0.945
-0.955
-0.97
-0.98
-0.98
-0.98
-0.96
-0.97
-0.97
-0.985
-1.005
-1.04
-1.075
-1.085
-1.13
-1.145
-1.145
-1.15
-1.145
-1.14
-1.135
-1.135
-1.15
-1.145
-1.14
-1.155
-1.165
-1.165
-1.14
-1.12
-1.105
-1.09
-1.09
-1.085
-1.055
-0.995
-0.855
-0.66
-0.365
-0.025
0.375
0.8
1.26
1.685
2.04
2.28
2.39
2.345
2.145
1.73
1.1
0.46
-0.18
-0.82
-1.46
-1.645
-1.505
-1.245
-1.015
-0.87
-0.81
-0.87
-0.965
-1.04
-1.09
-1.11
-1.11
-1.085
-1.065
-1.075
-1.065
-1.08
-1.1
-1.115
-1.115
-1.115
-1.1
-1.085
-1.05
-1.055
-1.035
-1.025
-1.03
-1.035
-1.035
-1.035
-1.02
-1.015
-1.005
-1.0
-0.985
-0.975
-0.96
-0.96
-0.95
-0.94
-0.93
-0.91
-0.91
-0.89
-0.86
-0.85
-0.83
-0.81
-0.795
-0.78
-0.76
-0.74
-0.725
-0.71
-0.685
-0.66
-0.63
-0.6
-0.57
-0.535
-0.49
-0.49
-0.45
-0.45
-0.445
-0.425
-0.42
-0.405
-0.395
-0.37
-0.34
-0.33
-0.335
-0.345
-0.365
-0.375
-0.42
-0.44
-0.48
-0.495
-0.5
-0.525
-0.585
-0.6
-0.63
-0.68
-0.73
-0.775
-0.82
-0.86
-0.88
