Lead II
-0.095
-0.085
-0.09
-0.09
-0.085
-0.09
-0.1
-0.12
-0.135
-0.135
-0.13
-0.125
-0.125
-0.14
-0.15
-0.15
-0.155
-0.14
-0.125
-0.145
-0.15
-0.145
-0.14
-0.12
-0.115
-0.13
-0.14
-0.135
-0.14
-0.135
-0.14
-0.16
-0.175
-0.16
-0.13
-0.055
0.03
0.125
0.225
0.33
0.43
0.535
0.625
0.725
0.815
0.91
0.98
0.995
0.92
0.805
0.675
0.51
0.265
-0.03
-0.28
-0.435
-0.5
-0.49
-0.45
-0.38
-0.32
-0.28
-0.27
-0.265
-0.26
-0.25
-0.26
-0.27
-0.28
-0.3
-0.305
-0.28
-0.27
-0.275
-0.27
-0.26
-0.25
-0.235
-0.22
-0.225
-0.23
-0.24
-0.23
-0.235
-0.235
-0.24
-0.235
-0.235
-0.225
-0.22
-0.215
-0.195
-0.19
-0.215
-0.225
-0.21
-0.22
-0.2
-0.21
-0.2
-0.195
-0.195
-0.2
-0.195
-0.18
-0.195
-0.185
-0.185
-0.185
-0.17
-0.185
-0.195
-0.19
-0.185
-0.165
-0.16
-0.18
-0.18
-0.17
-0.17
-0.18
-0.165
-0.165
-0.175
-0.18
-0.16
-0.16
-0.155
-0.145
-0.155
-0.145
-0.13
-0.115
-0.12
-0.12
-0.12
-0.11
-0.095
-0.1
-0.1
-0.1
-0.085
-0.08
-0.08
-0.07
-0.065
-0.07
-0.07
-0.07
-0.06
-0.05
-0.05
-0.065
-0.055
-0.055
-0.05
-0.06
-0.055
-0.065
-0.055
-0.04
-0.045
-0.045
-0.06
-0.055
-0.065
-0.06
-0.05
-0.05
-0.045
-0.065
-0.09
-0.085
-0.075
-0.075
-0.07
-0.08
-0.095
-0.095
-0.09
-0.095
-0.095
-0.115
-0.12
-0.125
-0.105
-0.105
-0.12
-0.135
-0.14
-0.125
-0.13
-0.125
-0.135
-0.14
-0.145
-0.14
-0.14
-0.15
-0.145
-0.14
-0.125
-0.1
-0.07
-0.05
-0.045
-0.04
-0.015
0.015
0.06
0.08
0.1
0.1
0.06
0.03
0.015
0.015
-0.005
-0.085
-0.255
-0.44
-0.72
-1.07
-1.43
-1.735
-1.985
-2.135
-2.185
-2.2
-2.19
-2.2
-2.185
-2.135
-2.055
-1.97
-1.87
-1.775
-1.665
-1.515
-1.355
-1.215
-1.115
-1.03
-0.96
-0.9
-0.825
-0.78
-0.73
-0.685
-0.645
-0.6
-0.55
-0.51
-0.46
-0.41
-0.36
-0.295
-0.235
-0.17
-0.09
-0.02
0.055
0.135
0.2
0.23
0.25
0.265
0.29
0.335
0.365
0.37
0.375
0.365
0.385
0.415
0.44
0.455
0.465
0.465
0.48
0.505
0.535
0.55
0.545
0.55
0.535
0.555
0.605
0.62
0.63
0.62
0.625
0.625
0.64
0.645
0.66
0.66
0.67
0.69
0.715
0.72
0.72
0.73
0.72
0.73
0.74
0.76
0.755
0.755
0.765
0.77
0.78
0.775
0.77
0.755
0.715
0.71
0.695
0.695
0.675
0.66
0.625
0.6
0.595
0.565
0.56
0.525
0.49
0.475
0.455
0.44
0.405
0.37
0.345
0.31
0.3
0.265
0.25
0.24
0.24
0.225
0.2
0.175
0.16
0.145
0.14
0.125
0.115
0.085
0.07
0.055
0.05
0.06
0.06
0.045
0.025
0.005
0.005
0.0
-0.005
-0.005
-0.02
-0.01
-0.01
-0.01
-0.015
-0.03
-0.055
-0.055
-0.045
-0.04
-0.04
-0.035
-0.035
-0.04
-0.06
-0.05
-0.05
-0.05
-0.065
-0.065
-0.06
-0.05
-0.035
-0.045
-0.065
-0.075
-0.08
-0.075
-0.065
-0.07
-0.08
-0.09
-0.09
-0.08
-0.085
-0.095
-0.09
-0.095
-0.11
-0.12
-0.105
-0.115
-0.105
-0.12
-0.13
-0.11
-0.105
-0.115
-0.125
-0.13
-0.12
-0.105
-0.105
-0.115
-0.13
-0.14
-0.15
-0.15
-0.13
-0.12
-0.125
-0.12
-0.135
-0.12
-0.12
-0.115
-0.115
-0.13
-0.14
-0.135
-0.12
-0.11
-0.105
-0.115
-0.11
-0.08
-0.065
-0.075
-0.095
-0.105
-0.095
-0.085
-0.065
-0.07
-0.05
-0.055
-0.055
-0.08
-0.095
-0.12
-0.15
-0.155
-0.15
-0.145
-0.135
-0.125
-0.125
-0.125
-0.135
-0.16
-0.155
-0.145
-0.115
-0.125
-0.135
-0.125
-0.12
-0.12
-0.13
-0.15
-0.165
-0.18
-0.155
-0.145
-0.155
-0.155
-0.15
-0.145
-0.145
-0.16
-0.17
-0.17
-0.17
-0.15
-0.125
-0.12
-0.12
-0.125
-0.135
-0.135
-0.14
-0.145
-0.135
-0.08
0.015
0.125
0.255
0.365
0.445
0.52
0.625
0.76
0.915
1.01
0.995
0.87
0.73
0.545
0.28
-0.085
-0.41
-0.565
-0.595
-0.53
-0.475
-0.45
-0.42
-0.41
-0.39
-0.35
-0.305
-0.275
-0.275
-0.285
-0.295
-0.31
-0.29
-0.28
-0.26
-0.275
-0.28
-0.255
-0.22
-0.215
-0.23
-0.25
-0.255
-0.235
-0.215
-0.22
-0.24
-0.235
-0.235
-0.22
-0.19
-0.18
-0.205
-0.24
-0.24
-0.225
-0.21
-0.21
-0.22
-0.22
-0.19
-0.175
-0.16
-0.175
-0.2
-0.205
-0.2
-0.195
-0.185
-0.18
-0.19
-0.19
-0.185
-0.175
-0.18
-0.185
-0.17
-0.175
-0.165
-0.15
-0.145
-0.155
-0.165
-0.18
-0.18
-0.16
-0.145
-0.135
-0.145
-0.165
-0.175
-0.155
-0.135
-0.135
-0.145
-0.135
-0.125
-0.105
-0.095
-0.095
-0.09
-0.105
-0.095
-0.085
-0.07
-0.06
-0.07
-0.065
-0.06
-0.045
-0.025
-0.03
-0.05
-0.065
-0.065
-0.06
-0.06
-0.065
-0.085
-0.085
-0.08
-0.07
-0.06
-0.075
-0.075
-0.08
-0.08
-0.07
-0.08
-0.1
-0.105
-0.115
-0.105
-0.1
-0.07
-0.08
-0.075
-0.105
-0.11
-0.1
-0.08
-0.06
-0.06
-0.06
-0.065
-0.075
-0.085
-0.085
-0.09
-0.085
-0.09
-0.085
-0.085
-0.095
-0.095
-0.1
-0.09
-0.09
-0.09
-0.105
-0.115
-0.125
-0.12
-0.095
-0.065
-0.05
-0.045
-0.055
-0.055
-0.045
-0.02
0.005
0.025
0.065
0.15
0.245
0.3
0.285
0.265
0.25
0.235
0.155
-0.055
-0.435
-0.89
-1.28
-1.55
-1.725
-1.83
-1.92
-1.96
-1.955
-1.92
-1.865
-1.795
-1.705
-1.58
-1.435
-1.315
-1.215
-1.13
-1.05
-0.965
-0.895
-0.865
-0.825
-0.77
-0.725
-0.695
-0.64
-0.59
-0.55
-0.5
-0.465
-0.43
-0.365
-0.29
-0.195
-0.1
-0.045
0.005
0.03
0.09
0.135
0.165
0.175
0.17
0.16
0.19
0.205
0.24
0.255
0.26
0.27
0.285
0.315
0.335
0.34
0.34
0.335
0.35
0.38
0.41
0.415
0.41
0.41
0.415
0.45
0.485
0.505
0.505
0.52
0.535
0.55
0.565
0.575
0.57
0.575
0.58
0.59
0.62
0.625
0.615
0.6
0.625
0.655
0.665
0.65
0.63
0.615
0.605
0.615
0.61
0.6
0.58
0.56
0.555
0.545
0.535
0.515
0.48
0.45
0.42
0.405
0.39
0.385
0.37
0.34
0.315
0.305
0.28
0.265
0.24
0.2
0.185
0.17
0.155
0.12
0.105
0.095
0.075
0.04
0.04
0.035
0.025
-0.005
-0.025
-0.03
-0.03
-0.035
-0.04
-0.065
-0.075
-0.07
-0.07
-0.08
-0.085
-0.095
-0.09
-0.095
-0.09
-0.09
-0.09
-0.11
-0.105
-0.115
-0.105
-0.115
-0.125
-0.13
-0.13
-0.13
-0.12
-0.12
-0.13
-0.12
-0.1
-0.1
-0.09
-0.09
-0.1
-0.105
-0.1
-0.105
-0.085
-0.09
-0.1
-0.125
-0.115
-0.095
-0.08
-0.1
-0.105
-0.11
-0.115
-0.105
-0.1
-0.1
-0.105
-0.105
-0.12
-0.11
-0.095
-0.09
-0.095
-0.105
-0.105
-0.09
-0.075
-0.08
-0.085
-0.085
-0.085
-0.065
-0.06
-0.045
-0.025
-0.04
-0.025
-0.03
-0.03
-0.025
-0.015
-0.025
-0.03
-0.02
-0.04
-0.045
-0.05
-0.05
-0.045
-0.055
-0.045
-0.045
-0.055
-0.055
-0.035
-0.04
-0.06
-0.085
-0.105
-0.12
-0.12
-0.11
-0.1
-0.12
-0.12
-0.12
-0.12
-0.11
-0.12
-0.12
-0.135
-0.13
-0.13
-0.125
-0.125
-0.12
-0.12
-0.125
-0.115
-0.11
-0.105
-0.1
-0.11
-0.115
-0.115
-0.105
-0.09
-0.1
-0.115
-0.14
-0.145
-0.14
-0.12
-0.08
-0.025
0.05
0.135
0.245
0.355
0.455
0.54
0.61
0.71
0.82
0.94
1.045
1.115
1.125
1.085
0.975
0.86
0.71
0.485
0.2
-0.095
-0.29
-0.39
-0.44
-0.46
-0.455
-0.405
-0.35
-0.295
-0.27
-0.26
-0.275
-0.265
-0.265
-0.275
-0.275
-0.285
-0.295
-0.29
-0.275
-0.255
-0.255
-0.255
-0.275
-0.26
-0.24
-0.22
-0.215
-0.215
-0.225
-0.235
-0.225
-0.235
-0.225
-0.23
-0.23
-0.235
-0.225
-0.23
-0.225
-0.23
-0.245
-0.25
-0.235
-0.21
-0.215
-0.23
-0.23
-0.225
-0.215
-0.2
-0.22
-0.225
-0.24
-0.25
-0.25
-0.235
-0.23
-0.235
-0.235
-0.23
-0.225
-0.21
-0.215
-0.225
-0.235
-0.24
-0.22
-0.215
-0.2
-0.2
-0.205
-0.215
-0.205
-0.19
-0.175
-0.18
-0.18
-0.18
-0.17
-0.165
-0.155
-0.16
-0.165
-0.15
-0.145
-0.125
-0.125
-0.125
-0.145
-0.14
-0.13
-0.115
-0.115
-0.115
-0.125
-0.115
-0.1
-0.085
-0.09
-0.095
-0.09
-0.09
-0.08
-0.06
-0.055
-0.06
-0.055
-0.055
-0.05
-0.04
-0.04
-0.05
-0.06
-0.065
-0.065
-0.055
-0.045
-0.04
-0.06
-0.06
-0.055
-0.055
-0.06
-0.06
-0.075
-0.065
-0.05
-0.045
-0.065
-0.06
-0.095
-0.095
-0.09
-0.095
-0.09
-0.085
-0.095
-0.09
-0.075
-0.065
-0.075
-0.085
-0.085
-0.095
-0.08
-0.085
-0.1
-0.095
-0.105
-0.11
-0.105
-0.085
-0.085
-0.105
-0.125
-0.12
-0.12
-0.12
-0.11
-0.105
-0.13
-0.14
-0.135
-0.12
-0.135
-0.145
-0.155
-0.16
-0.155
-0.155
-0.165
-0.17
-0.175
-0.165
-0.17
-0.17
-0.175
-0.18
-0.19
-0.185
-0.18
-0.17
-0.17
-0.165
-0.165
-0.135
-0.115
-0.095
-0.09
-0.085
-0.09
-0.065
-0.035
-0.025
-0.01
0.015
0.025
0.04
0.06
0.055
0.045
0.045
0.03
0.055
0.085
0.085
0.04
-0.045
-0.185
-0.41
-0.69
-0.99
-1.265
-1.54
-1.8
-1.97
-2.035
-2.04
-2.055
-2.065
-2.065
-2.01
-1.935
-1.86
-1.775
-1.7
-1.635
-1.55
-1.465
-1.34
-1.23
-1.12
-1.045
-0.97
-0.915
-0.875
-0.82
-0.78
-0.73
-0.67
-0.625
-0.58
-0.545
-0.485
-0.44
-0.385
-0.335
-0.295
-0.25
-0.2
-0.15
-0.09
-0.045
0.015
0.08
0.13
0.155
0.19
0.22
0.245
0.27
0.285
0.29
0.3
0.305
0.33
0.34
0.35
0.34
0.355
0.37
0.395
0.395
0.405
0.405
0.425
0.45
0.47
0.48
0.48
0.475
0.495
0.505
0.53
0.545
0.575
0.585
0.595
0.6
0.61
0.62
0.635
0.645
0.66
0.68
0.685
0.71
0.715
0.715
0.73
0.745
0.755
0.75
0.74
0.73
0.74
0.755
0.775
0.775
0.785
0.755
0.75
0.75
0.73
0.735
0.705
0.68
0.67
0.655
0.645
0.62
0.605
0.57
0.54
0.52
0.505
0.475
0.45
0.415
0.39
0.385
0.355
0.33
0.3
0.265
0.24
0.24
0.215
0.19
0.175
0.145
0.145
0.115
0.095
0.08
0.065
0.05
0.04
0.03
0.025
0.015
0.0
-0.015
-0.02
-0.035
-0.045
-0.045
-0.06
-0.075
-0.075
-0.07
-0.07
-0.075
-0.09
-0.11
-0.11
-0.11
-0.1
-0.105
-0.105
-0.115
-0.115
-0.095
-0.085
-0.09
-0.11
-0.13
-0.12
-0.115
-0.11
-0.11
-0.125
-0.12
-0.12
-0.115
-0.105
-0.115
-0.115
-0.13
-0.13
-0.125
-0.12
-0.125
-0.14
-0.155
-0.165
-0.16
-0.16
-0.155
-0.16
-0.175
-0.18
-0.185
-0.17
-0.175
-0.18
-0.2
-0.2
-0.185
-0.18
-0.185
-0.195
-0.21
-0.21
-0.205
-0.205
-0.215
-0.215
-0.22
-0.205
-0.21
-0.225
-0.22
-0.225
-0.225
-0.22
-0.215
-0.2
-0.195
-0.21
-0.225
-0.215
-0.205
-0.18
-0.19
-0.205
-0.21
-0.205
-0.19
-0.185
-0.185
-0.2
-0.21
-0.21
-0.215
-0.195
-0.19
-0.195
-0.2
-0.19
-0.19
-0.19
-0.23
-0.2
-0.205
-0.21
-0.2
-0.19
-0.18
-0.19
-0.195
-0.195
-0.2
-0.185
-0.185
-0.19
-0.205
-0.205
-0.185
-0.175
-0.18
-0.19
-0.205
-0.19
-0.185
-0.175
-0.17
-0.17
-0.18
-0.165
-0.155
-0.14
-0.145
-0.155
-0.16
-0.155
-0.14
-0.125
-0.135
-0.135
-0.145
-0.145
-0.14
-0.15
-0.15
-0.16
-0.18
-0.18
-0.18
-0.18
-0.185
-0.205
-0.22
-0.22
-0.21
-0.195
-0.185
-0.205
-0.215
-0.225
-0.22
-0.215
-0.215
-0.22
-0.23
-0.205
-0.21
-0.19
-0.185
-0.2
-0.205
-0.2
-0.185
-0.175
-0.16
-0.185
-0.2
-0.205
-0.195
-0.205
-0.205
-0.235
-0.245
-0.235
-0.225
-0.215
-0.23
-0.235
-0.245
-0.235
-0.22
-0.225
-0.22
-0.225
-0.24
-0.22
-0.21
-0.2
-0.205
-0.205
-0.245
-0.21
-0.2
-0.195
-0.195
-0.205
-0.22
-0.225
-0.235
-0.24
-0.245
-0.25
-0.235
-0.185
-0.135
-0.055
-0.005
0.06
0.12
0.205
0.28
0.36
0.43
0.51
0.595
0.685
0.77
0.855
0.915
0.95
0.95
0.915
0.84
0.745
0.625
0.47
0.235
-0.005
-0.225
-0.365
-0.45
-0.53
-0.575
-0.58
-0.545
-0.5
-0.435
-0.405
-0.395
-0.375
-0.375
-0.35
-0.35
-0.35
-0.365
-0.365
-0.36
-0.36
-0.36
-0.37
-0.375
-0.37
-0.355
-0.35
-0.355
-0.35
-0.345
-0.335
-0.32
-0.315
-0.305
-0.315
-0.32
-0.32
-0.33
-0.32
-0.315
-0.32
-0.325
-0.315
-0.305
-0.305
-0.3
-0.3
-0.3
-0.295
-0.3
-0.29
-0.295
-0.29
-0.305
-0.31
-0.305
-0.3
-0.29
-0.29
-0.31
-0.31
-0.29
-0.275
-0.28
-0.28
-0.3
-0.275
-0.28
-0.275
-0.27
-0.27
-0.27
-0.265
-0.255
-0.27
-0.27
-0.275
-0.27
-0.27
-0.25
-0.245
-0.255
-0.26
-0.25
-0.25
-0.24
-0.21
-0.235
-0.235
-0.24
-0.235
-0.23
-0.215
-0.205
-0.205
-0.21
-0.215
-0.2
-0.185
-0.185
-0.195
-0.195
-0.185
-0.185
-0.18
-0.175
-0.18
-0.18
-0.165
-0.16
-0.145
-0.145
-0.145
-0.145
-0.13
-0.12
-0.105
-0.105
-0.115
-0.11
-0.105
-0.095
-0.09
-0.075
-0.075
-0.085
-0.085
-0.08
-0.08
-0.085
-0.095
-0.11
-0.1
-0.085
-0.075
-0.075
-0.085
-0.11
-0.12
-0.115
-0.12
-0.105
-0.12
-0.125
-0.11
-0.115
-0.115
-0.12
-0.125
-0.14
-0.145
-0.15
-0.135
-0.145
-0.145
-0.15
-0.145
-0.15
-0.15
-0.155
-0.155
-0.175
-0.155
-0.145
-0.14
-0.155
-0.175
-0.19
-0.195
-0.185
-0.175
-0.185
-0.185
-0.18
-0.175
-0.16
-0.155
-0.16
-0.15
-0.125
-0.085
-0.055
-0.03
-0.005
-0.005
0.005
0.035
0.055
0.045
0.025
0.005
0.015
0.025
-0.05
-0.2
-0.405
-0.71
-1.1
-1.48
-1.77
-1.975
-2.105
-2.18
-2.185
-2.18
-2.165
-2.135
-2.095
-2.05
-1.98
-1.905
-1.82
-1.685
-1.535
-1.375
-1.225
-1.105
-1.03
-0.955
-0.905
-0.865
-0.82
-0.765
-0.7
-0.64
-0.59
-0.56
-0.52
-0.46
-0.405
-0.33
-0.245
-0.16
-0.095
-0.01
0.05
0.12
0.17
0.21
0.23
0.265
0.31
0.335
0.345
0.34
0.345
0.36
0.39
0.415
0.43
0.43
0.425
0.445
0.48
0.5
0.53
0.53
0.53
0.545
0.57
0.605
0.61
0.615
0.62
0.63
0.645
0.675
0.7
0.695
0.69
0.715
0.725
0.735
0.75
0.75
0.745
0.755
0.775
0.805
0.81
0.805
0.795
0.805
0.815
0.81
0.8
0.79
0.78
0.76
0.76
0.745
0.74
0.71
0.685
0.66
0.645
0.64
0.62
0.585
0.545
0.505
0.475
0.48
0.455
0.43
0.4
0.37
0.35
0.32
0.275
0.25
0.24
0.235
0.225
0.21
0.185
0.145
0.105
0.085
0.07
0.07
0.08
0.06
0.055
0.04
0.035
0.02
0.015
0.005
-0.01
-0.015
-0.01
-0.025
-0.03
-0.04
-0.065
-0.065
-0.055
-0.05
-0.06
-0.06
-0.07
-0.055
-0.04
-0.025
-0.065
-0.08
-0.1
-0.1
-0.1
-0.07
-0.075
-0.1
-0.12
-0.115
-0.1
-0.085
-0.09
-0.105
-0.13
-0.13
-0.12
-0.105
-0.095
-0.1
-0.115
-0.095
-0.085
-0.095
-0.105
-0.13
-0.14
-0.135
-0.125
-0.11
-0.13
-0.145
-0.17
-0.165
-0.165
-0.155
-0.145
-0.135
-0.14
-0.16
-0.155
-0.145
-0.13
-0.12
-0.115
-0.12
-0.115
-0.125
-0.15
-0.175
-0.17
-0.175
-0.155
-0.14
-0.15
-0.16
-0.165
-0.155
-0.145
-0.145
-0.155
-0.165
-0.175
-0.17
-0.15
-0.14
-0.14
-0.135
-0.135
-0.125
-0.11
-0.11
-0.13
-0.145
-0.155
-0.145
-0.105
-0.08
-0.07
-0.09
-0.11
-0.105
-0.105
-0.08
-0.075
-0.075
-0.085
-0.105
-0.115
-0.125
-0.14
-0.13
-0.15
-0.15
-0.145
-0.145
-0.15
-0.15
-0.15
-0.165
-0.175
-0.155
-0.15
-0.135
-0.145
-0.17
-0.16
-0.16
-0.145
-0.14
-0.145
-0.15
-0.17
-0.165
-0.165
-0.17
-0.17
-0.165
-0.17
-0.175
-0.17
-0.175
-0.18
-0.165
-0.175
-0.175
-0.18
-0.17
-0.18
-0.16
-0.15
-0.155
-0.155
-0.165
-0.19
-0.2
-0.195
-0.17
-0.12
-0.045
0.025
0.12
0.235
0.345
0.455
0.55
0.625
0.745
0.855
0.965
1.025
0.99
0.86
0.7
0.495
0.21
-0.135
-0.375
-0.53
-0.59
-0.595
-0.545
-0.485
-0.46
-0.445
-0.44
-0.4
-0.35
-0.315
-0.315
-0.34
-0.35
-0.345
-0.325
-0.31
-0.32
-0.335
-0.32
-0.295
-0.285
-0.265
-0.26
-0.275
-0.275
-0.265
-0.255
-0.275
-0.295
-0.295
-0.28
-0.26
-0.255
-0.245
-0.255
-0.265
-0.285
-0.28
-0.25
-0.24
-0.245
-0.28
-0.28
-0.26
-0.24
-0.23
-0.245
-0.265
-0.265
-0.255
-0.24
-0.25
-0.235
-0.245
-0.24
-0.235
-0.23
-0.22
-0.22
-0.24
-0.25
-0.245
-0.225
-0.205
-0.215
-0.225
-0.23
-0.22
-0.215
-0.21
-0.215
-0.22
-0.23
-0.225
-0.215
-0.215
-0.21
-0.21
-0.195
-0.195
-0.185
-0.175
-0.16
-0.165
-0.165
-0.155
-0.145
-0.15
-0.165
-0.16
-0.13
-0.12
-0.12
-0.12
-0.12
-0.125
-0.125
-0.13
-0.135
-0.135
-0.135
-0.145
-0.13
-0.13
-0.115
-0.12
-0.145
-0.16
-0.155
-0.15
-0.145
-0.145
-0.14
-0.15
-0.16
-0.155
-0.155
-0.15
-0.16
-0.17
-0.175
-0.16
-0.155
-0.165
-0.175
-0.185
-0.185
-0.175
-0.17
-0.175
-0.19
-0.2
-0.205
-0.205
-0.195
-0.185
-0.195
-0.215
-0.22
-0.225
-0.21
-0.205
-0.21
-0.225
-0.22
-0.225
-0.215
-0.21
-0.215
-0.225
-0.215
-0.215
-0.21
-0.205
-0.21
-0.205
-0.19
-0.17
-0.14
-0.125
-0.13
-0.12
-0.11
-0.085
-0.06
-0.035
-0.01
0.0
0.01
0.03
0.055
0.08
0.11
0.17
0.245
0.29
0.285
0.265
0.27
0.235
0.195
0.08
-0.15
-0.495
-0.915
-1.31
-1.6
-1.79
-1.87
-1.905
-1.91
-1.895
-1.86
-1.835
-1.8
-1.735
-1.63
-1.51
-1.42
-1.335
-1.265
-1.21
-1.165
-1.09
-0.995
-0.915
-0.855
-0.82
-0.78
-0.735
-0.695
-0.64
-0.595
-0.565
-0.545
-0.55
-0.52
-0.49
-0.46
-0.41
-0.37
-0.325
-0.265
-0.2
-0.16
-0.12
-0.075
-0.035
0.005
0.05
0.095
0.105
0.115
0.125
0.15
0.165
0.17
0.185
0.205
0.2
0.225
0.24
0.265
0.275
0.29
0.295
0.32
0.345
0.365
0.385
0.39
0.415
0.44
0.465
0.485
0.495
0.48
0.49
0.515
0.53
0.555
0.555
0.57
0.57
0.58
0.605
0.61
0.605
0.605
0.595
0.605
0.62
0.625
0.625
0.61
0.6
0.595
0.58
0.57
0.555
0.54
0.505
0.48
0.47
0.465
0.445
0.415
0.38
0.355
0.325
0.31
0.275
0.24
0.2
0.185
0.18
0.155
0.13
0.09
0.055
0.045
0.035
0.02
0.005
-0.02
-0.055
-0.055
-0.07
-0.07
-0.09
-0.11
-0.14
-0.13
-0.13
-0.125
-0.13
-0.145
-0.16
-0.155
-0.16
-0.155
-0.17
-0.18
-0.18
-0.185
-0.185
-0.175
-0.185
-0.185
-0.18
-0.175
-0.175
-0.18
-0.2
-0.205
-0.215
-0.205
-0.205
-0.185
-0.18
-0.185
-0.2
-0.195
-0.2
-0.2
-0.19
-0.205
-0.215
-0.22
-0.225
-0.22
-0.225
-0.22
-0.23
-0.235
-0.23
-0.215
-0.225
-0.225
-0.245
-0.23
-0.22
-0.215
-0.22
-0.24
-0.255
-0.265
-0.24
-0.235
-0.245
-0.26
-0.255
-0.26
-0.245
-0.22
-0.21
-0.215
-0.23
-0.215
-0.215
-0.205
-0.195
-0.195
-0.19
-0.17
-0.15
-0.145
-0.145
-0.16
-0.18
-0.185
-0.18
-0.175
-0.175
-0.18
-0.185
-0.185
-0.165
-0.175
-0.17
-0.185
-0.21
-0.22
-0.22
-0.225
-0.23
-0.24
-0.25
-0.255
-0.235
-0.24
-0.235
-0.255
-0.25
-0.245
-0.24
-0.225
-0.245
-0.24
-0.24
-0.235
-0.235
-0.255
-0.255
-0.265
-0.255
-0.245
-0.22
-0.215
-0.225
-0.24
-0.245
-0.26
-0.26
-0.245
-0.21
-0.16
-0.08
0.015
0.13
0.25
0.355
0.45
0.535
0.665
0.8
0.905
0.98
0.995
0.945
0.84
0.69
0.47
0.145
-0.21
-0.455
-0.56
-0.595
-0.58
-0.54
-0.48
-0.44
-0.39
-0.355
-0.35
-0.35
-0.38
-0.39
-0.4
-0.405
-0.395
-0.385
-0.405
-0.4
-0.38
-0.365
-0.35
-0.33
-0.32
-0.325
-0.325
-0.33
-0.33
-0.31
-0.33
-0.34
-0.34
-0.335
-0.32
-0.295
-0.31
-0.31
-0.305
-0.3
-0.29
-0.295
-0.305
-0.32
-0.31
-0.315
-0.31
-0.305
-0.295
-0.3
-0.295
-0.285
-0.275
-0.285
-0.285
-0.29
-0.285
-0.285
-0.28
-0.285
-0.28
-0.285
-0.29
-0.28
-0.27
-0.26
-0.26
-0.26
-0.245
-0.23
-0.23
-0.23
-0.245
-0.26
-0.26
-0.245
-0.245
-0.225
-0.23
-0.235
-0.225
-0.215
-0.2
-0.2
-0.205
-0.205
-0.195
-0.185
-0.17
-0.165
-0.18
-0.17
-0.155
-0.15
-0.14
-0.14
-0.15
-0.15
-0.135
-0.12
-0.11
-0.105
-0.125
-0.135
-0.135
-0.115
-0.095
-0.09
-0.09
-0.115
-0.115
-0.11
-0.095
-0.1
-0.115
-0.125
-0.115
-0.1
-0.095
-0.1
-0.11
-0.115
-0.105
-0.11
-0.1
-0.12
-0.135
-0.145
-0.145
-0.12
-0.11
-0.12
-0.13
-0.135
-0.125
-0.115
-0.12
-0.13
-0.14
-0.15
-0.14
-0.14
-0.15
-0.145
-0.155
-0.165
-0.16
-0.165
-0.155
-0.165
-0.18
-0.195
-0.195
-0.19
-0.175
-0.18
-0.175
-0.17
-0.165
-0.15
-0.135
-0.125
-0.115
-0.115
-0.095
-0.075
-0.04
-0.015
-0.005
0.015
0.025
0.04
0.015
0.0
-0.045
-0.08
-0.065
-0.055
-0.085
-0.19
-0.375
-0.68
-1.035
-1.36
-1.63
-1.85
-1.975
-2.02
-2.005
-2.005
-1.985
-1.93
-1.865
-1.78
-1.68
-1.605
-1.51
-1.405
-1.27
-1.15
-1.04
-0.945
-0.87
-0.805
-0.755
-0.71
-0.67
-0.615
-0.57
-0.535
-0.515
-0.46
-0.405
-0.335
-0.28
-0.215
-0.155
-0.085
-0.01
0.065
0.13
0.175
0.195
0.225
0.25
0.29
0.295
0.295
0.305
0.31
0.335
0.365
0.395
0.415
0.415
0.425
0.445
0.475
0.495
0.53
0.55
0.555
0.555
0.57
0.58
0.61
0.605
0.63
0.655
0.685
0.7
0.71
0.72
0.73
0.75
0.76
0.77
0.78
0.765
0.76
0.785
0.805
0.815
0.8
0.795
0.78
0.785
0.805
0.805
0.785
0.755
0.74
0.73
0.72
0.7
0.675
0.64
0.615
0.595
0.585
0.555
0.52
0.495
0.475
0.465
0.435
0.415
0.395
0.365
0.325
0.29
0.27
0.25
0.235
0.205
0.185
0.18
0.175
0.16
0.135
0.115
0.085
0.07
0.065
0.065
0.06
0.05
0.025
0.025
0.005
0.01
0.0
-0.01
-0.02
-0.025
-0.005
-0.015
-0.015
-0.03
-0.03
-0.025
-0.025
-0.02
-0.03
-0.025
-0.025
-0.025
-0.01
0.01
-0.01
-0.02
-0.04
-0.045
-0.055
-0.055
-0.05
-0.065
-0.045
-0.05
-0.05
-0.055
-0.055
-0.06
-0.06
-0.06
-0.075
-0.06
-0.055
-0.05
-0.055
-0.07
-0.065
-0.07
-0.07
-0.06
-0.055
-0.07
-0.08
-0.095
-0.1
-0.1
-0.095
-0.085
-0.1
-0.08
-0.075
-0.095
-0.1
-0.11
-0.095
-0.09
-0.09
-0.095
-0.095
-0.095
-0.095
-0.085
-0.08
-0.1
-0.115
-0.105
-0.1
-0.095
-0.1
-0.12
-0.13
-0.105
-0.095
-0.105
-0.1
-0.105
-0.11
-0.105
-0.09
-0.1
-0.1
-0.115
-0.115
-0.09
-0.085
-0.07
-0.08
-0.08
-0.075
-0.06
-0.06
-0.06
-0.06
-0.065
-0.07
-0.065
-0.065
-0.065
-0.06
-0.055
-0.065
-0.06
-0.065
-0.06
-0.07
-0.095
-0.11
-0.11
-0.095
-0.09
-0.095
-0.09
-0.105
-0.095
-0.095
-0.085
-0.095
-0.105
-0.11
-0.1
-0.09
-0.09
-0.095
-0.1
-0.095
-0.09
-0.08
-0.065
-0.075
-0.09
-0.105
-0.11
-0.11
-0.095
-0.095
-0.105
-0.1
-0.1
-0.09
-0.08
-0.09
-0.105
-0.14
-0.13
-0.115
-0.1
-0.095
-0.11
-0.125
-0.12
-0.11
-0.1
-0.105
-0.115
-0.135
-0.15
-0.145
-0.13
-0.075
0.01
0.095
0.17
0.265
0.365
0.455
0.51
0.575
0.69
0.825
0.955
1.055
1.105
1.085
1.015
0.905
0.765
0.605
0.36
0.06
-0.195
-0.355
-0.445
-0.5
-0.505
-0.46
-0.4
-0.345
-0.33
-0.34
-0.335
-0.33
-0.295
-0.26
-0.26
-0.26
-0.265
-0.28
-0.265
-0.24
-0.23
-0.235
-0.22
-0.22
-0.2
-0.165
-0.17
-0.17
-0.195
-0.205
-0.21
-0.205
-0.19
-0.175
-0.165
-0.165
-0.17
-0.16
-0.155
-0.17
-0.19
-0.195
-0.195
-0.195
-0.18
-0.165
-0.175
-0.185
-0.17
-0.16
-0.14
-0.135
-0.135
-0.14
-0.145
-0.155
-0.16
-0.16
-0.15
-0.16
-0.145
-0.125
-0.1
-0.095
-0.125
-0.15
-0.16
-0.15
-0.1
-0.07
-0.05
-0.045
-0.065
-0.09
-0.12
-0.145
-0.135
-0.105
-0.095
-0.07
-0.09
-0.09
-0.08
-0.075
-0.07
-0.07
-0.085
-0.085
-0.09
-0.095
-0.075
-0.06
-0.05
-0.055
-0.05
-0.05
-0.025
-0.015
-0.03
-0.035
-0.03
-0.02
0.015
0.005
0.01
-0.005
-0.015
-0.015
-0.02
-0.035
-0.035
-0.04
-0.02
-0.015
-0.01
-0.005
0.0
-0.005
-0.005
0.005
0.02
0.005
-0.03
-0.075
-0.11
-0.11
-0.105
-0.09
-0.08
-0.08
-0.09
-0.095
-0.085
-0.085
-0.075
-0.09
-0.08
-0.095
-0.08
-0.085
-0.08
-0.09
-0.095
-0.09
-0.09
-0.095
-0.085
-0.095
-0.09
-0.1
-0.085
-0.085
-0.085
-0.085
-0.07
-0.075
-0.05
-0.02
0.0
0.0
0.015
0.045
0.065
0.07
0.06
0.065
0.075
0.095
0.105
0.095
0.14
0.175
0.185
0.115
0.0
-0.16
-0.435
-0.8
-1.185
-1.515
-1.74
-1.84
-1.855
-1.87
-1.895
-1.88
-1.825
-1.725
-1.6
-1.5
-1.43
-1.335
-1.205
-1.06
-0.92
-0.82
-0.77
-0.735
-0.715
-0.67
-0.64
-0.6
-0.55
-0.52
-0.46
-0.415
-0.365
-0.32
-0.285
-0.26
-0.215
-0.16
-0.105
-0.04
0.015
0.075
0.135
0.175
0.21
0.24
0.245
0.265
0.285
0.325
0.33
0.345
0.345
0.35
0.375
0.395
0.415
0.445
0.445
0.455
0.49
0.505
0.52
0.525
0.515
0.535
0.57
0.605
0.63
0.64
0.65
0.645
0.665
0.685
0.705
0.715
0.715
0.72
0.735
0.745
0.775
0.78
0.77
0.76
0.775
0.79
0.79
0.795
0.79
0.79
0.785
0.78
0.79
0.785
0.785
0.77
0.755
0.735
0.725
0.71
0.685
0.665
0.64
0.625
0.595
0.565
0.535
0.505
0.48
0.455
0.44
0.41
0.385
0.365
0.335
0.32
0.3
0.29
0.265
0.235
0.215
0.215
0.205
0.18
0.15
0.135
0.125
0.13
0.115
0.095
0.075
0.06
0.06
0.065
0.065
0.065
0.04
0.025
0.015
0.01
0.005
0.01
0.01
0.005
0.005
0.015
0.025
0.015
0.0
0.005
0.005
0.0
0.0
0.01
-0.015
-0.015
-0.01
-0.015
-0.015
-0.015
-0.02
-0.03
-0.01
-0.005
-0.005
-0.01
-0.02
-0.035
-0.02
-0.025
-0.03
-0.035
-0.035
-0.02
-0.02
-0.02
-0.04
-0.045
-0.06
-0.06
-0.055
-0.035
-0.03
-0.035
-0.045
-0.04
-0.045
-0.04
-0.035
-0.04
-0.05
-0.06
-0.05
-0.055
-0.05
-0.065
-0.06
-0.075
-0.07
-0.06
-0.055
-0.045
-0.065
-0.06
-0.065
-0.065
-0.06
-0.065
-0.065
-0.07
-0.075
-0.05
-0.065
-0.06
-0.085
-0.09
-0.075
-0.065
-0.07
-0.08
-0.075
-0.07
-0.055
-0.06
-0.055
-0.055
-0.07
-0.085
-0.085
-0.07
-0.065
-0.055
-0.06
-0.06
-0.065
-0.04
-0.03
-0.03
-0.03
-0.02
-0.005
0.005
0.005
0.0
-0.005
-0.015
-0.015
-0.025
-0.03
-0.05
-0.06
-0.075
-0.065
-0.07
-0.065
-0.07
-0.08
-0.075
-0.07
-0.065
-0.09
-0.09
-0.105
-0.095
-0.09
-0.08
-0.075
-0.055
-0.045
-0.045
-0.025
-0.035
-0.02
-0.025
-0.045
-0.085
-0.09
-0.085
-0.085
-0.08
-0.085
-0.095
-0.1
-0.105
-0.125
-0.11
-0.095
-0.09
-0.085
-0.08
-0.085
-0.09
-0.085
-0.08
-0.075
-0.08
-0.075
-0.095
-0.11
-0.125
-0.13
-0.115
-0.095
-0.025
0.045
0.13
0.225
0.335
0.435
0.525
0.61
0.705
0.835
0.965
1.07
1.14
1.155
1.105
1.03
0.885
0.645
0.26
-0.11
-0.34
-0.43
-0.44
-0.435
-0.41
-0.365
-0.325
-0.285
-0.255
-0.255
-0.235
-0.235
-0.26
-0.26
-0.255
-0.26
-0.26
-0.26
-0.275
-0.255
-0.245
-0.23
-0.22
-0.22
-0.22
-0.21
-0.19
-0.185
-0.175
-0.175
-0.185
-0.18
-0.185
-0.185
-0.2
-0.205
-0.2
-0.2
-0.18
-0.16
-0.155
-0.16
-0.17
-0.175
-0.165
-0.16
-0.16
-0.175
-0.185
-0.175
-0.155
-0.155
-0.175
-0.19
-0.18
-0.165
-0.16
-0.155
-0.16
-0.15
-0.155
-0.145
-0.13
-0.135
-0.13
-0.14
-0.15
-0.135
-0.135
-0.125
-0.115
-0.12
-0.13
-0.115
-0.105
-0.1
-0.095
-0.1
-0.125
-0.12
-0.105
-0.1
-0.09
-0.095
-0.08
-0.07
-0.045
-0.035
-0.035
-0.06
-0.065
-0.05
-0.035
-0.015
-0.005
-0.02
-0.03
-0.015
-0.005
0.015
0.015
0.025
0.015
0.0
0.005
0.015
0.02
0.01
-0.005
-0.005
0.0
0.0
