Lead II
-1.695
-1.695
-1.705
-1.71
-1.73
-1.725
-1.74
-1.75
-1.74
-1.74
-1.745
-1.715
-1.72
-1.72
-1.725
-1.72
-1.735
-1.755
-1.765
-1.78
-1.775
-1.755
-1.76
-1.74
-1.725
-1.755
-1.75
-1.765
-1.74
-1.735
-1.725
-1.705
-1.68
-1.65
-1.615
-1.585
-1.575
-1.615
-1.635
-1.655
-1.645
-1.64
-1.635
-1.595
-1.57
-1.545
-1.53
-1.525
-1.54
-1.565
-1.595
-1.615
-1.63
-1.61
-1.61
-1.615
-1.605
-1.63
-1.635
-1.655
-1.67
-1.695
-1.735
-1.775
-1.805
-1.815
-1.81
-1.815
-1.8
-1.8
-1.805
-1.77
-1.76
-1.77
-1.76
-1.76
-1.77
-1.77
-1.785
-1.785
-1.795
-1.78
-1.75
-1.71
-1.655
-1.59
-1.52
-1.385
-1.195
-0.97
-0.715
-0.41
-0.085
0.205
0.45
0.62
0.66
0.57
0.295
-0.15
-0.72
-1.35
-1.9
-2.295
-2.46
-2.39
-2.205
-1.95
-1.75
-1.62
-1.56
-1.565
-1.61
-1.645
-1.7
-1.7
-1.69
-1.67
-1.66
-1.65
-1.655
-1.66
-1.665
-1.675
-1.665
-1.665
-1.69
-1.69
-1.67
-1.64
-1.605
-1.575
-1.56
-1.56
-1.54
-1.555
-1.55
-1.56
-1.565
-1.56
-1.585
-1.585
-1.585
-1.55
-1.52
-1.49
-1.49
-1.49
-1.485
-1.495
-1.49
-1.505
-1.47
-1.455
-1.44
-1.43
-1.42
-1.425
-1.435
-1.425
-1.41
-1.39
-1.36
-1.345
-1.335
-1.32
-1.32
-1.32
-1.315
-1.305
-1.29
-1.28
-1.28
-1.305
-1.32
-1.315
-1.285
-1.28
-1.285
-1.265
-1.27
-1.28
-1.27
-1.27
-1.3
-1.305
-1.335
-1.325
-1.325
-1.31
-1.31
-1.3
-1.305
-1.31
-1.32
-1.325
-1.34
-1.365
-1.365
-1.37
-1.365
-1.37
-1.355
-1.365
-1.375
-1.385
-1.39
-1.38
-1.4
-1.42
-1.44
-1.445
-1.44
-1.455
-1.455
-1.44
-1.415
-1.405
-1.405
-1.405
-1.395
-1.405
-1.395
-1.395
-1.415
-1.42
-1.435
-1.44
-1.455
-1.445
-1.435
-1.435
-1.44
-1.44
-1.435
-1.43
-1.415
-1.405
-1.41
-1.39
-1.4
-1.41
-1.42
-1.45
-1.455
-1.435
-1.4
-1.395
-1.41
-1.43
-1.445
-1.455
-1.465
-1.47
-1.45
-1.45
-1.45
-1.465
-1.485
-1.52
-1.52
-1.505
-1.49
-1.455
-1.45
-1.44
-1.45
-1.445
-1.46
-1.47
-1.455
-1.455
-1.455
-1.455
-1.49
-1.495
-1.515
-1.515
-1.505
-1.51
-1.5
-1.475
-1.47
-1.47
-1.47
-1.475
-1.46
-1.455
-1.445
-1.45
-1.43
-1.435
-1.43
-1.42
-1.415
-1.38
-1.36
-1.345
-1.325
-1.315
-1.3
-1.295
-1.3
-1.31
-1.3
-1.29
-1.28
-1.28
-1.27
-1.27
-1.27
-1.27
-1.275
-1.29
-1.305
-1.325
-1.35
-1.345
-1.36
-1.38
-1.385
-1.405
-1.43
-1.435
-1.445
-1.465
-1.48
-1.505
-1.515
-1.515
-1.53
-1.52
-1.51
-1.495
-1.48
-1.465
-1.47
-1.47
-1.485
-1.49
-1.5
-1.505
-1.49
-1.48
-1.44
-1.375
-1.28
-1.12
-0.96
-0.755
-0.535
-0.275
-0.02
0.24
0.46
0.58
0.56
0.345
-0.105
-0.7
-1.33
-1.84
-2.105
-2.135
-2.01
-1.785
-1.565
-1.405
-1.345
-1.33
-1.355
-1.395
-1.425
-1.415
-1.42
-1.41
-1.415
-1.405
-1.425
-1.42
-1.45
-1.45
-1.44
-1.41
-1.38
-1.395
-1.405
-1.42
-1.405
-1.405
-1.4
-1.385
-1.375
-1.37
-1.37
-1.355
-1.35
-1.345
-1.335
-1.36
-1.335
-1.32
-1.32
-1.315
-1.3
-1.28
-1.26
-1.25
-1.25
-1.25
-1.255
-1.255
-1.265
-1.265
-1.26
-1.25
-1.235
-1.195
-1.185
-1.165
-1.165
-1.17
-1.155
-1.16
-1.155
-1.14
-1.15
-1.15
-1.14
-1.145
-1.13
-1.125
-1.125
-1.125
-1.115
-1.115
-1.145
-1.15
-1.16
-1.145
-1.155
-1.165
-1.18
-1.175
-1.19
-1.2
-1.215
-1.215
-1.195
-1.195
-1.21
-1.24
-1.265
-1.27
-1.29
-1.28
-1.265
-1.28
-1.285
-1.305
-1.315
-1.345
-1.34
-1.345
-1.34
-1.345
-1.325
-1.33
-1.32
-1.305
-1.295
-1.275
-1.285
-1.31
-1.325
-1.35
-1.355
-1.345
-1.355
-1.325
-1.33
-1.32
-1.32
-1.33
-1.31
-1.335
-1.345
-1.365
-1.365
-1.355
-1.35
-1.335
-1.33
-1.32
-1.335
-1.335
-1.35
-1.365
-1.36
-1.365
-1.38
-1.365
-1.38
-1.355
-1.345
-1.35
-1.36
-1.38
-1.41
-1.42
-1.435
-1.41
-1.405
-1.39
-1.38
-1.38
-1.375
-1.385
-1.39
-1.405
-1.4
-1.41
-1.42
-1.425
-1.43
-1.41
-1.39
-1.395
-1.375
-1.38
-1.39
-1.41
-1.42
-1.42
-1.43
-1.45
-1.455
-1.46
-1.43
-1.425
-1.39
-1.37
-1.375
-1.37
-1.38
-1.365
-1.355
-1.335
-1.33
-1.315
-1.295
-1.295
-1.285
-1.275
-1.26
-1.265
-1.28
-1.275
-1.27
-1.235
-1.215
-1.2
-1.19
-1.215
-1.24
-1.26
-1.28
-1.3
-1.315
-1.335
-1.34
-1.35
-1.34
-1.36
-1.375
-1.395
-1.425
-1.455
-1.495
-1.51
-1.52
-1.52
-1.51
-1.51
-1.525
-1.515
-1.515
-1.51
-1.48
-1.435
-1.425
-1.435
-1.445
-1.475
-1.5
-1.5
-1.485
-1.425
-1.345
-1.21
-1.045
-0.835
-0.605
-0.385
-0.165
0.05
0.205
0.255
0.165
-0.135
-0.615
-1.195
-1.705
-2.07
-2.22
-2.21
-2.045
-1.83
-1.64
-1.475
-1.395
-1.36
-1.375
-1.405
-1.435
-1.45
-1.45
-1.46
-1.45
-1.475
-1.47
-1.46
-1.45
-1.43
-1.415
-1.405
-1.39
-1.38
-1.385
-1.395
-1.41
-1.42
-1.42
-1.425
-1.42
-1.4
-1.39
-1.38
-1.36
-1.33
-1.325
-1.31
-1.315
-1.3
-1.3
-1.3
-1.285
-1.28
-1.275
-1.27
-1.255
-1.26
-1.255
-1.265
-1.24
-1.24
-1.225
-1.23
-1.2
-1.21
-1.2
-1.2
-1.2
-1.185
-1.165
-1.17
-1.155
-1.15
-1.15
-1.155
-1.13
-1.14
-1.13
-1.12
-1.115
-1.11
-1.12
-1.14
-1.13
-1.14
-1.125
-1.145
-1.155
-1.135
-1.15
-1.15
-1.135
-1.15
-1.155
-1.17
-1.18
-1.2
-1.225
-1.24
-1.235
-1.255
-1.24
-1.22
-1.215
-1.21
-1.21
-1.21
-1.235
-1.275
-1.29
-1.305
-1.295
-1.265
-1.25
-1.24
-1.23
-1.235
-1.245
-1.265
-1.265
-1.275
-1.28
-1.26
-1.27
-1.255
-1.245
-1.225
-1.22
-1.23
-1.22
-1.24
-1.27
-1.28
-1.285
-1.29
-1.285
-1.275
-1.255
-1.24
-1.21
-1.215
-1.22
-1.255
-1.28
-1.29
-1.32
-1.335
-1.32
-1.305
-1.295
-1.275
-1.265
-1.26
-1.27
-1.28
-1.31
-1.325
-1.32
-1.33
-1.32
-1.295
-1.29
-1.305
-1.305
-1.32
-1.3
-1.31
-1.31
-1.32
-1.315
-1.33
-1.325
-1.325
-1.31
-1.29
-1.27
-1.27
-1.27
-1.285
-1.3
-1.305
-1.3
-1.3
-1.28
-1.26
-1.255
-1.235
-1.22
-1.19
-1.2
-1.175
-1.175
-1.175
-1.15
-1.145
-1.135
-1.13
-1.12
-1.115
-1.1
-1.085
-1.07
-1.055
-1.03
-1.03
-1.06
-1.075
-1.085
-1.11
-1.12
-1.11
-1.11
-1.1
-1.14
-1.165
-1.175
-1.18
-1.18
-1.2
-1.255
-1.28
-1.29
-1.315
-1.335
-1.32
-1.325
-1.31
-1.295
-1.295
-1.295
-1.3
-1.31
-1.31
-1.3
-1.315
-1.31
-1.305
-1.29
-1.27
-1.275
-1.275
-1.29
-1.25
-1.23
-1.15
-1.03
-0.86
-0.665
-0.465
-0.255
-0.06
0.13
0.275
0.375
0.36
0.185
-0.175
-0.7
-1.23
-1.71
-1.985
-2.055
-1.945
-1.735
-1.515
-1.345
-1.24
-1.215
-1.23
-1.265
-1.3
-1.29
-1.295
-1.29
-1.285
-1.285
-1.28
-1.295
-1.31
-1.31
-1.28
-1.255
-1.235
-1.215
-1.22
-1.215
-1.22
-1.22
-1.225
-1.22
-1.215
-1.2
-1.195
-1.205
-1.195
-1.195
-1.205
-1.205
-1.205
-1.2
-1.175
-1.17
-1.185
-1.18
-1.175
-1.15
-1.145
-1.15
-1.12
-1.12
-1.105
-1.125
-1.14
-1.14
-1.14
-1.13
-1.11
-1.085
-1.075
-1.075
-1.09
-1.085
-1.09
-1.095
-1.07
-1.075
-1.04
-1.045
-1.015
-1.01
-1.015
-1.0
-0.99
-0.995
-1.02
-1.05
-1.045
-1.065
-1.06
-1.055
-1.065
-1.075
-1.07
-1.08
-1.065
-1.06
-1.03
-1.03
-1.065
-1.075
-1.115
-1.165
-1.18
-1.17
-1.155
-1.14
-1.13
-1.13
-1.13
-1.16
-1.19
-1.225
-1.23
-1.245
-1.24
-1.23
-1.2
-1.185
-1.18
-1.18
-1.185
-1.2
-1.205
-1.23
-1.225
-1.23
-1.215
-1.22
-1.215
-1.215
-1.215
-1.22
-1.225
-1.23
-1.245
-1.245
-1.25
-1.265
-1.245
-1.23
-1.23
-1.225
-1.23
-1.245
-1.235
-1.265
-1.295
-1.32
-1.335
-1.34
-1.29
-1.275
-1.25
-1.265
-1.27
-1.285
-1.315
-1.335
-1.35
-1.35
-1.35
-1.35
-1.33
-1.33
-1.325
-1.315
-1.305
-1.31
-1.34
-1.345
-1.36
-1.355
-1.365
-1.365
-1.355
-1.345
-1.335
-1.34
-1.355
-1.365
-1.365
-1.375
-1.38
-1.38
-1.395
-1.385
-1.375
-1.365
-1.33
-1.3
-1.3
-1.265
-1.255
-1.26
-1.255
-1.26
-1.275
-1.285
-1.28
-1.27
-1.25
-1.215
-1.205
-1.2
-1.18
-1.18
-1.18
-1.195
-1.22
-1.24
-1.245
-1.27
-1.265
-1.27
-1.28
-1.29
-1.29
-1.285
-1.3
-1.315
-1.34
-1.35
-1.36
-1.375
-1.395
-1.415
-1.45
-1.46
-1.475
-1.475
-1.475
-1.475
-1.465
-1.46
-1.445
-1.435
-1.42
-1.41
-1.43
-1.43
-1.445
-1.46
-1.46
-1.425
-1.385
-1.3
-1.18
-1.04
-0.855
-0.65
-0.43
-0.215
0.01
0.175
0.27
0.27
0.115
-0.205
-0.69
-1.245
-1.725
-2.06
-2.195
-2.145
-1.975
-1.79
-1.625
-1.51
-1.445
-1.43
-1.42
-1.44
-1.45
-1.45
-1.46
-1.46
-1.48
-1.495
-1.49
-1.465
-1.465
-1.45
-1.44
-1.45
-1.435
-1.425
-1.425
-1.43
-1.44
-1.445
-1.455
-1.435
-1.415
-1.405
-1.405
-1.405
-1.38
-1.37
-1.37
-1.375
-1.38
-1.37
-1.38
-1.375
-1.355
-1.36
-1.35
-1.35
-1.345
-1.345
-1.33
-1.315
-1.295
-1.285
-1.28
-1.275
-1.28
-1.285
-1.28
-1.265
-1.25
-1.24
-1.225
-1.22
-1.21
-1.205
-1.205
-1.205
-1.225
-1.225
-1.215
-1.22
-1.205
-1.185
-1.19
-1.205
-1.22
-1.23
-1.25
-1.245
-1.26
-1.265
-1.255
-1.255
-1.255
-1.245
-1.245
-1.25
-1.255
-1.265
-1.29
-1.325
-1.35
-1.365
-1.37
-1.36
-1.36
-1.35
-1.36
-1.365
-1.37
-1.37
-1.39
-1.42
-1.435
-1.445
-1.425
-1.43
-1.425
-1.395
-1.405
-1.415
-1.43
-1.435
-1.455
-1.46
-1.46
-1.445
-1.43
-1.41
-1.42
-1.41
-1.385
-1.415
-1.415
-1.425
-1.42
-1.43
-1.435
-1.44
-1.43
-1.425
-1.425
-1.4
-1.415
-1.425
-1.435
-1.43
-1.42
-1.425
-1.435
-1.45
-1.465
-1.46
-1.455
-1.43
-1.43
-1.445
-1.445
-1.46
-1.47
-1.485
-1.495
-1.49
-1.48
-1.47
-1.455
-1.45
-1.47
-1.46
-1.475
-1.485
-1.495
-1.5
-1.475
-1.485
-1.495
-1.47
-1.48
-1.46
-1.475
-1.49
-1.485
-1.49
-1.49
-1.495
-1.495
-1.48
-1.47
-1.45
-1.445
-1.41
-1.39
-1.37
-1.365
-1.38
-1.38
-1.38
-1.39
-1.395
-1.375
-1.36
-1.33
-1.295
-1.27
-1.27
-1.265
-1.29
-1.315
-1.335
-1.365
-1.37
-1.38
-1.375
-1.38
-1.37
-1.36
-1.38
-1.385
-1.41
-1.42
-1.445
-1.46
-1.49
-1.515
-1.525
-1.54
-1.515
-1.5
-1.505
-1.5
-1.53
-1.52
-1.52
-1.52
-1.515
-1.52
-1.5
-1.495
-1.495
-1.495
-1.48
-1.455
-1.4
-1.345
-1.23
-1.105
-0.94
-0.79
-0.625
-0.495
-0.33
-0.215
-0.12
-0.05
-0.08
-0.215
-0.515
-0.98
-1.495
-1.915
-2.19
-2.225
-2.105
-1.91
-1.72
-1.55
-1.47
-1.43
-1.44
-1.455
-1.49
-1.49
-1.505
-1.485
-1.455
-1.47
-1.455
-1.46
-1.465
-1.47
-1.47
-1.47
-1.46
-1.445
-1.425
-1.42
-1.39
-1.375
-1.385
-1.355
-1.355
-1.385
-1.375
-1.37
-1.37
-1.35
-1.335
-1.325
-1.28
-1.285
-1.285
-1.265
-1.285
-1.285
-1.28
-1.27
-1.26
-1.22
-1.205
-1.185
-1.18
-1.175
-1.165
-1.165
-1.165
-1.165
-1.155
-1.165
-1.165
-1.14
-1.095
-1.08
-1.055
-1.04
-1.035
-1.035
-1.03
-1.035
-1.035
-1.04
-1.05
-1.025
-1.025
-1.02
-1.02
-1.035
-1.035
-1.06
-1.05
-1.06
-1.075
-1.08
-1.095
-1.09
-1.085
-1.075
-1.06
-1.055
-1.075
-1.08
-1.105
-1.13
-1.14
-1.16
-1.17
-1.19
-1.195
-1.205
-1.21
-1.18
-1.175
-1.175
-1.19
-1.215
-1.21
-1.21
-1.23
-1.22
-1.22
-1.21
-1.2
-1.185
-1.205
-1.205
-1.225
-1.235
-1.225
-1.225
-1.225
-1.195
-1.185
-1.17
-1.165
-1.165
-1.175
-1.165
-1.175
-1.185
-1.18
-1.175
-1.2
-1.19
-1.175
-1.17
-1.16
-1.17
-1.155
-1.14
-1.165
-1.195
-1.2
-1.21
-1.21
-1.195
-1.18
-1.17
-1.16
-1.17
-1.17
-1.175
-1.195
-1.185
-1.17
-1.195
-1.2
-1.195
-1.2
-1.21
-1.195
-1.185
-1.195
-1.185
-1.19
-1.175
-1.175
-1.185
-1.195
-1.19
-1.195
-1.19
-1.17
-1.19
-1.175
-1.18
-1.195
-1.225
-1.2
-1.2
-1.185
-1.165
-1.135
-1.125
-1.105
-1.08
-1.055
-1.05
-1.04
-1.035
-1.03
-1.035
-1.035
-1.035
-1.02
-1.0
-0.975
-0.98
-0.96
-0.95
-0.945
-0.945
-0.96
-1.0
-0.995
-1.0
-0.98
-0.99
-0.985
-0.99
-0.995
-1.005
-1.03
-1.035
-1.07
-1.08
-1.1
-1.1
-1.13
-1.135
-1.15
-1.16
-1.165
-1.17
-1.165
-1.15
-1.14
-1.16
-1.15
-1.145
-1.13
-1.12
-1.115
-1.125
-1.135
-1.145
-1.135
-1.14
-1.105
-1.05
-0.98
-0.875
-0.715
-0.545
-0.36
-0.17
0.01
0.205
0.345
0.42
0.415
0.305
0.06
-0.32
-0.825
-1.31
-1.63
-1.8
-1.78
-1.645
-1.44
-1.26
-1.11
-1.055
-1.03
-1.065
-1.09
-1.085
-1.065
-1.065
-1.065
-1.07
-1.09
-1.095
-1.085
-1.09
-1.095
-1.095
-1.075
-1.07
-1.055
-1.045
-1.055
-1.055
-1.04
-1.05
-1.045
-1.035
-0.99
-0.99
-0.985
-0.98
-0.97
-0.955
-0.95
-0.95
-0.955
-0.965
-0.965
-0.965
-0.965
-0.97
-0.935
-0.915
-0.895
-0.885
-0.87
-0.88
-0.88
-0.875
-0.875
-0.865
-0.865
-0.855
-0.83
-0.82
-0.815
-0.79
-0.775
-0.76
-0.76
-0.775
-0.76
-0.745
-0.745
-0.745
-0.725
-0.72
-0.705
-0.71
-0.725
-0.725
-0.73
-0.73
-0.74
-0.75
-0.755
-0.765
-0.75
-0.76
-0.745
-0.75
-0.745
-0.76
-0.765
-0.775
-0.795
-0.805
-0.795
-0.805
-0.795
-0.795
-0.8
-0.795
-0.795
-0.82
-0.855
-0.875
-0.905
-0.9
-0.9
-0.895
-0.875
-0.86
-0.86
-0.87
-0.855
-0.87
-0.88
-0.89
-0.89
-0.905
-0.915
-0.885
-0.885
-0.87
-0.865
-0.875
-0.87
-0.88
-0.88
-0.88
-0.86
-0.865
-0.875
-0.86
-0.845
-0.85
-0.835
-0.825
-0.825
-0.83
-0.83
-0.855
-0.855
-0.855
-0.87
-0.87
-0.87
-0.86
-0.85
-0.85
-0.875
-0.87
-0.88
-0.89
-0.87
-0.865
-0.89
-0.905
-0.895
-0.905
-0.905
-0.9
-0.91
-0.91
-0.91
-0.915
-0.9
-0.91
-0.91
-0.925
-0.915
-0.915
-0.885
-0.87
-0.875
-0.885
-0.905
-0.92
-0.92
-0.935
-0.925
-0.925
-0.905
-0.885
-0.875
-0.88
-0.865
-0.875
-0.855
-0.85
-0.83
-0.845
-0.83
-0.805
-0.795
-0.765
-0.745
-0.74
-0.75
-0.755
-0.78
-0.785
-0.78
-0.775
-0.75
-0.735
-0.73
-0.745
-0.755
-0.755
-0.8
-0.795
-0.82
-0.805
-0.825
-0.81
-0.83
-0.84
-0.84
-0.86
-0.86
-0.885
-0.915
-0.95
-0.98
-1.005
-1.0
-1.005
-0.99
-0.98
-0.975
-0.975
-0.98
-0.975
-0.965
-0.965
-0.975
-0.98
-0.98
-0.995
-0.98
-0.98
-0.95
-0.91
-0.835
-0.75
-0.62
-0.45
-0.275
-0.085
0.13
0.315
0.48
0.58
0.6
0.47
0.16
-0.325
-0.88
-1.355
-1.62
-1.675
-1.545
-1.32
-1.105
-0.945
-0.87
-0.85
-0.885
-0.92
-0.97
-1.0
-0.995
-1.01
-1.005
-0.99
-0.99
-0.98
-0.965
-0.95
-0.955
-0.955
-0.935
-0.915
-0.93
-0.95
-0.955
-0.955
-0.945
-0.945
-0.925
-0.92
-0.91
-0.9
-0.89
-0.89
-0.895
-0.895
-0.9
-0.9
-0.895
-0.895
-0.87
-0.875
-0.855
-0.84
-0.84
-0.83
-0.85
-0.845
-0.84
-0.835
-0.84
-0.845
-0.83
-0.815
-0.785
-0.755
-0.75
-0.745
-0.76
-0.775
-0.775
-0.775
-0.755
-0.75
-0.74
-0.72
-0.695
-0.695
-0.715
-0.73
-0.765
-0.775
-0.775
-0.79
-0.79
-0.775
-0.775
-0.78
-0.775
-0.765
-0.77
-0.785
-0.805
-0.82
-0.83
-0.845
-0.845
-0.84
-0.855
-0.85
-0.85
-0.865
-0.875
-0.88
-0.895
-0.91
-0.94
-0.945
-0.955
-0.945
-0.915
-0.915
-0.9
-0.885
-0.915
-0.935
-0.92
-0.92
-0.93
-0.93
-0.935
-0.945
-0.94
-0.95
-0.945
-0.92
-0.92
-0.915
-0.915
-0.92
-0.91
-0.925
-0.93
-0.935
-0.925
-0.925
-0.92
-0.915
-0.94
-0.935
-0.935
-0.935
-0.945
-0.94
-0.935
-0.945
-0.93
-0.93
-0.915
-0.915
-0.925
-0.945
-0.95
-0.97
-0.99
-1.005
-1.01
-1.015
-0.995
-0.995
-0.995
-0.975
-0.965
-0.96
-0.965
-0.97
-0.99
-1.01
-1.0
-1.0
-0.995
-0.975
-0.97
-0.945
-0.96
-0.955
-0.96
-0.97
-0.99
-1.02
-1.03
-1.03
-1.015
-0.985
-0.955
-0.93
-0.905
-0.9
-0.91
-0.91
-0.925
-0.92
-0.92
-0.895
-0.88
-0.85
-0.855
-0.83
-0.815
-0.815
-0.81
-0.82
-0.84
-0.845
-0.855
-0.87
-0.865
-0.86
-0.845
-0.845
-0.875
-0.875
-0.895
-0.9
-0.915
-0.94
-0.965
-1.0
-1.02
-1.015
-1.035
-1.025
-1.04
-1.045
-1.065
-1.065
-1.06
-1.065
-1.055
-1.055
-1.05
-1.025
-1.02
-1.0
-1.0
-1.02
-1.025
-1.02
-1.03
-1.0
-0.94
-0.83
-0.68
-0.53
-0.315
-0.085
0.145
0.325
0.455
0.51
0.445
0.175
-0.25
-0.745
-1.24
-1.595
-1.795
-1.79
-1.67
-1.475
-1.305
-1.175
-1.085
-1.04
-1.01
-1.015
-1.0
-1.035
-1.02
-1.015
-1.03
-1.025
-1.03
-1.015
-1.02
-1.02
-1.02
-1.01
-1.0
-0.985
-0.98
-0.955
-0.945
-0.955
-0.96
-0.955
-0.975
-0.965
-0.975
-0.95
-0.93
-0.915
-0.895
-0.885
-0.855
-0.855
-0.865
-0.875
-0.89
-0.875
-0.88
-0.865
-0.855
-0.84
-0.835
-0.78
-0.765
-0.76
-0.75
-0.745
-0.75
-0.76
-0.76
-0.75
-0.725
-0.715
-0.69
-0.675
-0.665
-0.64
-0.635
-0.65
-0.65
-0.64
-0.65
-0.63
-0.63
-0.62
-0.615
-0.6
-0.61
-0.625
-0.63
-0.65
-0.64
-0.66
-0.665
-0.68
-0.67
-0.68
-0.685
-0.685
-0.69
-0.695
-0.705
-0.73
-0.745
-0.775
-0.775
-0.79
-0.79
-0.78
-0.785
-0.775
-0.785
-0.78
-0.8
-0.81
-0.845
-0.865
-0.86
-0.845
-0.84
-0.845
-0.825
-0.825
-0.81
-0.825
-0.83
-0.85
-0.845
-0.84
-0.85
-0.825
-0.815
-0.82
-0.8
-0.8
-0.81
-0.845
-0.855
-0.855
-0.87
-0.865
-0.865
-0.855
-0.845
-0.835
-0.83
-0.81
-0.81
-0.83
-0.82
-0.825
-0.835
-0.855
-0.86
-0.895
-0.885
-0.865
-0.855
-0.855
-0.845
-0.855
-0.885
-0.895
-0.905
-0.92
-0.92
-0.905
-0.905
-0.88
-0.865
-0.88
-0.885
-0.875
-0.875
-0.885
-0.9
-0.905
-0.91
-0.92
-0.91
-0.895
-0.885
-0.87
-0.865
-0.86
-0.885
-0.905
-0.935
-0.925
-0.905
-0.905
-0.895
-0.885
-0.865
-0.85
-0.845
-0.835
-0.825
-0.82
-0.805
-0.805
-0.795
-0.795
-0.785
-0.77
-0.75
-0.74
-0.745
-0.75
-0.76
-0.745
-0.725
-0.705
-0.685
-0.67
-0.645
-0.625
-0.63
-0.65
-0.68
-0.7
-0.735
-0.745
-0.765
-0.77
-0.78
-0.77
-0.76
-0.775
-0.805
-0.83
-0.84
-0.865
-0.885
-0.905
-0.9
-0.905
-0.91
-0.905
-0.915
-0.905
-0.9
-0.885
-0.885
-0.875
-0.88
-0.885
-0.895
-0.875
-0.88
-0.875
-0.855
-0.825
-0.785
-0.715
-0.61
-0.495
-0.345
-0.17
-0.02
0.155
0.32
0.475
0.605
0.625
0.535
0.235
-0.21
-0.75
-1.25
-1.565
-1.68
-1.615
-1.445
-1.235
-1.045
-0.915
-0.835
-0.79
-0.795
-0.82
-0.85
-0.865
-0.885
-0.89
-0.89
-0.895
-0.88
-0.88
-0.865
-0.84
-0.82
-0.815
-0.815
-0.825
-0.845
-0.85
-0.845
-0.835
-0.83
-0.815
-0.79
-0.765
-0.76
-0.77
-0.775
-0.81
-0.805
-0.805
-0.795
-0.765
-0.745
-0.72
-0.705
-0.69
-0.705
-0.705
-0.715
-0.715
-0.71
-0.715
-0.705
-0.71
-0.71
-0.685
-0.685
-0.645
-0.63
-0.625
-0.615
-0.61
-0.615
-0.615
-0.59
-0.57
-0.565
-0.56
-0.56
-0.53
-0.54
-0.525
-0.55
-0.545
-0.545
-0.545
-0.55
-0.56
-0.55
-0.555
-0.55
-0.525
-0.53
-0.54
-0.57
-0.6
-0.62
-0.645
-0.64
-0.645
-0.65
-0.65
-0.665
-0.66
-0.67
-0.695
-0.705
-0.735
-0.77
-0.79
-0.79
-0.795
-0.785
-0.77
-0.775
-0.775
-0.775
-0.78
-0.8
-0.805
-0.82
-0.82
-0.835
-0.815
-0.79
-0.795
-0.775
-0.765
-0.775
-0.78
-0.81
-0.825
-0.815
-0.81
-0.81
-0.81
-0.795
-0.79
-0.79
-0.765
-0.775
-0.77
-0.785
-0.795
-0.805
-0.79
-0.795
-0.8
-0.795
-0.775
-0.795
-0.785
-0.79
-0.79
-0.81
-0.805
-0.825
-0.84
-0.855
-0.855
-0.835
-0.82
-0.82
-0.81
-0.835
-0.82
-0.82
-0.825
-0.84
-0.835
-0.86
-0.85
-0.85
-0.845
-0.85
-0.85
-0.87
-0.855
-0.85
-0.86
-0.87
-0.865
-0.885
-0.875
-0.855
-0.83
-0.82
-0.82
-0.815
-0.82
-0.825
-0.835
-0.84
-0.82
-0.8
-0.765
-0.74
-0.72
-0.71
-0.695
-0.695
-0.705
-0.695
-0.685
-0.68
-0.66
-0.655
-0.655
-0.65
-0.635
-0.63
-0.615
-0.625
-0.655
-0.665
-0.705
-0.71
-0.705
-0.72
-0.73
-0.72
-0.73
-0.75
-0.75
-0.795
-0.8
-0.81
-0.84
-0.865
-0.89
-0.885
-0.895
-0.88
-0.875
-0.86
-0.855
-0.84
-0.84
-0.845
-0.85
-0.875
-0.88
-0.87
-0.875
-0.855
-0.815
-0.785
-0.71
-0.625
-0.5
-0.35
-0.215
-0.035
0.15
0.365
0.54
0.655
0.67
0.545
0.23
-0.245
-0.79
-1.26
-1.53
-1.61
-1.515
-1.34
-1.135
-0.95
-0.83
-0.78
-0.77
-0.795
-0.825
-0.84
-0.845
-0.855
-0.84
-0.855
-0.84
-0.825
-0.81
-0.8
-0.805
-0.8
-0.795
-0.8
-0.805
-0.815
-0.815
-0.815
-0.8
-0.795
-0.78
-0.78
-0.755
-0.76
-0.75
-0.755
-0.75
-0.755
-0.755
-0.765
-0.775
-0.74
-0.715
-0.7
-0.68
-0.67
-0.67
-0.675
-0.695
-0.685
-0.69
-0.68
-0.69
-0.67
-0.645
-0.65
-0.63
-0.605
-0.585
-0.6
-0.595
-0.59
-0.575
-0.585
-0.57
-0.555
-0.545
-0.535
-0.535
-0.52
-0.505
-0.52
-0.525
-0.54
-0.545
-0.555
-0.555
-0.54
-0.535
-0.515
-0.53
-0.525
-0.53
-0.535
-0.55
-0.555
-0.56
-0.575
-0.595
-0.59
-0.59
-0.6
-0.57
-0.585
-0.59
-0.62
-0.645
-0.665
-0.675
-0.695
-0.7
-0.7
-0.69
-0.69
-0.685
-0.68
-0.68
-0.69
-0.695
-0.71
-0.735
-0.74
-0.745
-0.72
-0.695
-0.68
-0.65
-0.66
-0.67
-0.69
-0.725
-0.74
-0.725
-0.715
-0.71
-0.68
-0.67
-0.66
-0.645
-0.655
-0.675
-0.69
-0.695
-0.695
-0.7
-0.715
-0.725
-0.715
-0.71
-0.69
-0.685
-0.675
-0.685
-0.695
-0.705
-0.72
-0.73
-0.755
-0.755
-0.745
-0.72
-0.72
-0.695
-0.705
-0.71
-0.705
-0.72
-0.725
-0.74
-0.745
-0.745
-0.735
-0.725
-0.71
-0.71
-0.72
-0.74
-0.75
-0.78
-0.78
-0.765
-0.76
-0.755
-0.765
-0.765
-0.735
-0.725
-0.715
-0.715
-0.725
-0.74
-0.755
-0.755
-0.73
-0.7
-0.68
-0.64
-0.635
-0.62
-0.62
-0.595
-0.615
-0.635
-0.625
-0.625
-0.64
-0.63
-0.605
-0.565
-0.55
-0.525
-0.545
-0.55
-0.565
-0.615
-0.635
-0.66
-0.675
-0.7
-0.695
-0.69
-0.695
-0.705
-0.72
-0.74
-0.765
-0.81
-0.835
-0.85
-0.88
-0.885
-0.865
-0.835
-0.835
-0.82
-0.82
-0.845
-0.855
-0.87
-0.865
-0.855
-0.86
-0.855
-0.84
-0.815
-0.79
-0.73
-0.6
-0.45
-0.275
-0.09
0.13
0.36
0.535
0.675
0.755
0.67
0.37
-0.09
-0.645
-1.15
-1.5
-1.62
-1.555
-1.36
-1.14
-0.955
-0.84
-0.795
-0.795
-0.845
-0.875
-0.895
-0.92
-0.915
-0.92
-0.905
-0.925
-0.915
-0.89
-0.875
-0.86
-0.86
-0.85
-0.855
-0.86
-0.855
-0.865
-0.86
-0.86
-0.865
-0.87
-0.85
-0.835
-0.825
-0.81
-0.815
-0.805
-0.815
-0.82
-0.815
-0.815
-0.82
-0.81
-0.795
-0.785
-0.775
-0.77
-0.765
-0.76
-0.78
-0.78
-0.775
-0.775
-0.765
-0.765
-0.74
-0.73
-0.7
-0.68
-0.695
-0.69
-0.69
-0.69
-0.68
-0.69
-0.695
-0.7
-0.67
-0.675
-0.665
-0.67
-0.665
-0.685
-0.69
-0.705
-0.73
-0.725
-0.735
-0.75
-0.75
-0.755
-0.74
-0.735
-0.735
-0.74
-0.765
-0.78
-0.805
-0.825
-0.85
-0.835
-0.855
-0.85
-0.865
-0.87
-0.87
-0.875
-0.885
-0.895
-0.915
-0.925
-0.93
-0.94
-0.915
-0.915
-0.885
-0.89
-0.89
-0.9
-0.92
-0.94
-0.94
-0.94
-0.93
-0.905
-0.9
-0.905
-0.885
-0.875
-0.87
-0.875
-0.9
-0.91
-0.905
-0.935
-0.92
-0.91
-0.9
-0.91
-0.89
-0.885
-0.895
-0.915
-0.905
-0.93
-0.92
-0.925
-0.94
-0.93
-0.925
-0.91
-0.91
-0.92
-0.945
-0.95
-0.96
-0.955
-0.965
-0.97
-0.995
-0.98
-0.975
-0.97
-0.965
-0.955
-0.97
-0.985
-0.98
-0.985
-0.98
-0.98
-0.985
-1.0
-0.98
-0.985
-0.975
-0.98
-0.985
-0.995
-1.015
-1.045
-1.01
-1.015
-1.025
-1.015
-1.0
-0.995
-0.97
-0.95
-0.925
-0.925
-0.925
-0.92
-0.915
-0.92
-0.92
-0.92
-0.925
-0.89
-0.875
-0.86
-0.845
-0.84
-0.865
-0.85
-0.845
-0.82
-0.855
-0.88
-0.86
-0.865
-0.87
-0.88
-0.875
-0.905
-0.915
-0.925
-0.93
-0.95
-0.965
-0.98
-0.995
-0.99
-1.0
-1.02
-1.05
-1.06
-1.08
-1.1
-1.105
-1.1
-1.095
-1.08
-1.065
-1.07
-1.05
-1.05
-1.045
-1.055
-1.06
-1.055
-1.09
-1.07
-1.06
-1.03
-0.95
-0.875
-0.75
-0.605
-0.46
-0.325
-0.17
-0.015
0.165
0.325
0.445
0.47
0.365
0.035
-0.465
-0.99
-1.46
-1.74
-1.805
-1.705
-1.505
-1.31
-1.155
-1.06
-1.015
-1.01
-1.015
-1.04
-1.055
-1.075
-1.075
-1.085
-1.09
-1.075
-1.085
-1.055
-1.04
-1.05
-1.04
-1.035
-1.025
-1.01
-1.015
-1.035
-1.04
-1.04
-1.03
-1.02
-1.0
-0.99
-0.975
-0.97
-0.965
-0.97
-0.965
-0.97
-0.98
-0.98
-0.99
-0.965
-0.925
-0.915
-0.9
-0.89
-0.89
-0.89
-0.89
-0.895
-0.9
-0.87
-0.87
-0.845
-0.825
-0.815
-0.79
-0.765
-0.745
-0.75
-0.735
-0.74
-0.73
-0.725
-0.72
-0.715
-0.71
-0.67
-0.665
-0.67
-0.67
-0.695
-0.715
-0.735
-0.735
-0.745
-0.755
-0.75
-0.74
-0.745
-0.72
-0.73
-0.715
-0.72
-0.75
-0.77
-0.785
-0.81
-0.83
-0.83
-0.82
-0.83
-0.84
-0.835
-0.835
-0.85
-0.84
-0.85
-0.87
-0.875
-0.88
-0.9
-0.885
-0.88
-0.855
-0.835
-0.84
-0.84
-0.85
-0.86
-0.87
-0.88
-0.88
-0.885
-0.865
-0.86
-0.84
-0.83
-0.84
-0.84
-0.87
-0.875
-0.86
-0.865
-0.865
-0.86
-0.855
-0.85
-0.835
-0.83
-0.825
-0.835
-0.84
-0.855
-0.85
-0.88
-0.87
-0.875
-0.86
-0.85
-0.845
-0.83
-0.845
-0.865
-0.875
-0.875
-0.89
-0.89
-0.89
-0.875
-0.875
-0.865
-0.865
-0.855
-0.865
-0.865
-0.88
-0.885
-0.895
-0.91
-0.905
-0.905
-0.89
-0.885
-0.865
-0.855
-0.855
-0.875
-0.88
-0.89
-0.885
-0.9
-0.88
-0.885
-0.88
-0.89
-0.875
-0.855
-0.855
-0.85
-0.845
-0.84
-0.81
-0.79
-0.775
-0.765
-0.745
-0.755
-0.75
-0.725
-0.705
-0.705
-0.71
-0.715
-0.715
-0.7
-0.695
-0.66
-0.655
-0.66
-0.65
-0.66
-0.69
-0.72
-0.725
-0.74
-0.75
-0.76
-0.775
-0.795
-0.815
-0.82
-0.82
-0.835
-0.86
-0.88
-0.89
-0.91
-0.905
-0.9
-0.895
-0.89
-0.88
-0.89
-0.88
-0.87
-0.86
-0.86
-0.865
-0.885
-0.91
-0.905
-0.885
-0.835
-0.775
-0.675
-0.555
-0.41
-0.27
-0.13
0.025
0.19
0.36
0.525
0.615
0.605
0.43
0.035
-0.475
-0.995
-1.39
-1.585
-1.56
-1.385
-1.155
-0.955
-0.81
-0.75
-0.75
-0.77
-0.795
-0.825
-0.84
-0.845
-0.865
-0.835
-0.83
-0.835
-0.85
-0.84
-0.84
-0.85
-0.83
-0.805
-0.79
-0.78
-0.79
-0.8
-0.83
-0.825
-0.82
-0.815
-0.775
-0.77
-0.76
-0.725
-0.72
-0.73
-0.73
-0.745
-0.75
-0.74
-0.74
-0.735
-0.705
-0.695
-0.685
-0.675
-0.675
-0.675
-0.665
-0.675
-0.68
-0.68
-0.665
-0.66
-0.635
-0.62
-0.595
-0.605
-0.605
-0.605
-0.6
-0.59
-0.59
-0.58
-0.57
-0.56
-0.555
-0.54
-0.555
-0.545
-0.565
-0.56
-0.565
-0.57
-0.58
-0.58
-0.585
-0.59
-0.59
-0.58
-0.595
-0.585
-0.595
-0.62
-0.63
-0.64
-0.66
-0.655
-0.68
-0.67
-0.685
-0.695
-0.705
-0.72
-0.73
-0.74
-0.745
-0.75
-0.765
-0.75
-0.77
-0.77
-0.775
-0.765
-0.745
-0.73
-0.75
-0.755
-0.76
-0.765
-0.77
-0.77
-0.765
-0.755
-0.75
-0.745
-0.73
-0.73
-0.735
-0.745
-0.75
-0.76
-0.76
-0.76
-0.78
-0.775
-0.76
-0.75
-0.745
-0.73
-0.74
-0.745
-0.755
-0.77
-0.78
-0.785
-0.795
-0.815
-0.78
-0.78
-0.77
-0.755
-0.75
-0.75
-0.775
-0.785
-0.815
-0.83
-0.84
-0.83
-0.82
-0.8
-0.795
-0.79
-0.79
-0.82
-0.825
-0.82
-0.835
-0.86
-0.855
-0.845
-0.84
-0.825
-0.84
-0.835
-0.825
-0.84
-0.855
-0.85
-0.86
-0.85
-0.85
-0.87
-0.86
-0.85
-0.84
-0.82
-0.82
-0.825
-0.835
-0.825
-0.815
-0.795
-0.77
-0.745
-0.725
-0.695
-0.7
-0.685
-0.68
-0.69
-0.705
-0.73
-0.71
-0.7
-0.69
-0.655
-0.635
-0.615
-0.615
-0.61
-0.625
-0.66
-0.68
-0.69
-0.72
-0.705
-0.71
-0.715
-0.7
