Lead II
-1.225
-1.23
-1.23
-1.21
-1.21
-1.185
-1.19
-1.18
-1.175
-1.17
-1.135
-1.075
-0.97
-0.825
-0.6
-0.305
0.075
0.515
1.025
1.535
1.99
2.295
2.4
2.22
1.71
1.07
0.43
-0.21
-0.85
-1.49
-1.68
-1.385
-1.085
-0.885
-0.81
-0.86
-0.975
-1.075
-1.145
-1.185
-1.19
-1.16
-1.15
-1.14
-1.13
-1.12
-1.11
-1.12
-1.13
-1.13
-1.135
-1.13
-1.125
-1.085
-1.09
-1.085
-1.07
-1.08
-1.065
-1.075
-1.08
-1.075
-1.065
-1.07
-1.06
-1.04
-1.035
-1.0
-0.985
-0.975
-0.965
-0.96
-0.955
-0.945
-0.93
-0.935
-0.925
-0.905
-0.88
-0.865
-0.835
-0.815
-0.785
-0.79
-0.765
-0.76
-0.74
-0.72
-0.685
-0.655
-0.625
-0.585
-0.575
-0.555
-0.55
-0.52
-0.52
-0.505
-0.49
-0.465
-0.445
-0.425
-0.41
-0.37
-0.38
-0.38
-0.385
-0.4
-0.43
-0.46
-0.46
-0.505
-0.525
-0.54
-0.55
-0.57
-0.6
-0.63
-0.665
-0.72
-0.78
-0.81
-0.86
-0.895
-0.93
-0.935
-0.96
-0.96
-0.985
-1.0
-0.995
-1.0
-1.025
-1.025
-1.05
-1.05
-1.06
-1.05
-1.04
-1.04
-1.03
-1.035
-1.04
-1.045
-1.05
-1.04
-1.035
-1.035
-1.015
-1.01
-0.995
-0.98
-0.975
-0.975
-0.98
-0.995
-0.99
-1.005
-0.99
-0.99
-0.995
-0.985
-0.98
-0.97
-0.96
-0.96
-0.98
-0.985
-0.97
-0.995
-0.99
-0.995
-0.995
-0.995
-0.99
-0.995
-0.985
-0.985
-0.98
-1.005
-1.015
-1.02
-1.04
-1.05
-1.05
-1.03
-1.035
-1.03
-1.015
-1.02
-1.02
-1.035
-1.05
-1.06
-1.075
-1.05
-1.05
-1.045
-1.04
-1.055
-1.04
-1.05
-1.04
-1.06
-1.06
-1.095
-1.085
-1.065
-1.06
-1.05
-1.04
-1.045
-1.03
-1.03
-1.05
-1.065
-1.08
-1.075
-1.08
-1.085
-1.08
-1.07
-1.065
-1.06
-1.045
-1.045
-1.06
-1.07
-1.075
-1.09
-1.085
-1.08
-1.075
-1.06
-1.05
-1.03
-1.0
-0.985
-0.97
-0.98
-0.98
-0.965
-0.965
-0.96
-0.955
-0.945
-0.935
-0.935
-0.91
-0.905
-0.885
-0.895
-0.88
-0.87
-0.86
-0.875
-0.875
-0.88
-0.885
-0.895
-0.88
-0.89
-0.9
-0.915
-0.92
-0.94
-0.96
-0.985
-1.0
-1.015
-1.03
-1.045
-1.045
-1.07
-1.08
-1.115
-1.145
-1.16
-1.145
-1.125
-1.11
-1.11
-1.095
-1.09
-1.075
-1.07
-1.075
-1.095
-1.105
-1.12
-1.13
-1.13
-1.135
-1.13
-1.095
-1.07
-1.03
-0.965
-0.85
-0.68
-0.455
-0.145
0.23
0.64
1.085
1.54
1.94
2.255
2.435
2.465
2.3
1.92
1.28
0.64
0.0
-0.64
-1.28
-1.76
-1.575
-1.265
-0.955
-0.765
-0.725
-0.78
-0.885
-1.0
-1.07
-1.115
-1.115
-1.11
-1.08
-1.065
-1.05
-1.045
-1.05
-1.065
-1.065
-1.105
-1.095
-1.1
-1.08
-1.08
-1.05
-1.035
-1.02
-1.015
-1.01
-1.03
-1.03
-1.03
-1.03
-1.02
-1.015
-1.01
-0.99
-0.985
-0.975
-0.955
-0.965
-0.97
-0.955
-0.945
-0.94
-0.92
-0.92
-0.885
-0.885
-0.865
-0.845
-0.84
-0.835
-0.805
-0.795
-0.795
-0.77
-0.76
-0.745
-0.715
-0.69
-0.65
-0.635
-0.585
-0.565
-0.555
-0.53
-0.51
-0.495
-0.485
-0.48
-0.455
-0.405
-0.39
-0.375
-0.37
-0.38
-0.375
-0.375
-0.39
-0.385
-0.385
-0.415
-0.4
-0.415
-0.435
-0.445
-0.48
-0.525
-0.575
-0.61
-0.66
-0.685
-0.725
-0.75
-0.775
-0.8
-0.835
-0.835
-0.86
-0.9
-0.925
-0.945
-0.97
-1.005
-1.01
-1.01
-1.03
-1.01
-1.01
-1.015
-1.025
-1.025
-1.025
-1.05
-1.04
-1.055
-1.055
-1.06
-1.04
-1.05
-1.04
-1.045
-1.015
-1.01
-1.02
-1.03
-1.025
-1.025
-1.02
-1.01
-1.005
-1.005
-0.99
-0.985
-1.005
-0.99
-0.995
-1.01
-1.015
-1.02
-1.03
-1.035
-1.025
-1.015
-1.02
-0.995
-1.0
-1.01
-1.025
-1.035
-1.045
-1.055
-1.065
-1.06
-1.055
-1.04
-1.035
-1.035
-1.025
-1.035
-1.04
-1.06
-1.07
-1.075
-1.08
-1.085
-1.07
-1.085
-1.09
-1.055
-1.06
-1.07
-1.095
-1.095
-1.12
-1.115
-1.125
-1.11
-1.1
-1.105
-1.1
-1.1
-1.105
-1.1
-1.11
-1.125
-1.14
-1.15
-1.155
-1.135
-1.13
-1.12
-1.1
-1.095
-1.115
-1.12
-1.125
-1.14
-1.155
-1.14
-1.15
-1.16
-1.15
-1.13
-1.125
-1.105
-1.11
-1.105
-1.1
-1.1
-1.09
-1.07
-1.065
-1.05
-1.04
-1.025
-1.025
-1.015
-1.025
-1.01
-1.015
-1.01
-1.01
-0.99
-0.965
-0.95
-0.935
-0.94
-0.945
-0.935
-0.955
-0.96
-0.985
-1.0
-1.02
-1.04
-1.045
-1.045
-1.05
-1.03
-1.075
-1.1
-1.105
-1.145
-1.18
-1.205
-1.22
-1.24
-1.24
-1.21
-1.215
-1.195
-1.2
-1.18
-1.18
-1.17
-1.185
-1.185
-1.185
-1.21
-1.215
-1.215
-1.215
-1.195
-1.18
-1.13
-1.055
-0.925
-0.76
-0.545
-0.25
0.11
0.525
0.98
1.465
1.88
2.19
2.365
2.355
2.125
1.63
0.99
0.35
-0.29
-0.93
-1.57
-1.755
-1.495
-1.195
-0.94
-0.845
-0.86
-0.95
-1.08
-1.17
-1.22
-1.24
-1.24
-1.2
-1.19
-1.16
-1.16
-1.145
-1.18
-1.185
-1.195
-1.2
-1.195
-1.185
-1.18
-1.175
-1.155
-1.135
-1.14
-1.135
-1.115
-1.12
-1.125
-1.14
-1.14
-1.15
-1.145
-1.13
-1.115
-1.085
-1.075
-1.055
-1.065
-1.06
-1.065
-1.075
-1.05
-1.045
-1.025
-1.02
-1.0
-0.985
-0.95
-0.95
-0.92
-0.92
-0.895
-0.87
-0.855
-0.845
-0.795
-0.775
-0.74
-0.71
-0.68
-0.655
-0.65
-0.64
-0.63
-0.61
-0.595
-0.56
-0.575
-0.55
-0.505
-0.485
-0.475
-0.47
-0.465
-0.49
-0.495
-0.525
-0.55
-0.56
-0.565
-0.58
-0.61
-0.61
-0.635
-0.67
-0.715
-0.76
-0.81
-0.845
-0.895
-0.95
-0.975
-0.98
-1.0
-1.025
-1.03
-1.05
-1.08
-1.105
-1.115
-1.13
-1.135
-1.145
-1.16
-1.16
-1.175
-1.145
-1.145
-1.15
-1.15
-1.155
-1.16
-1.155
-1.16
-1.165
-1.16
-1.16
-1.14
-1.125
-1.1
-1.12
-1.115
-1.105
-1.12
-1.115
-1.125
-1.125
-1.125
-1.115
-1.12
-1.12
-1.1
-1.1
-1.11
-1.105
-1.115
-1.14
-1.155
-1.155
-1.155
-1.13
-1.145
-1.12
-1.115
-1.125
-1.15
-1.145
-1.165
-1.17
-1.16
-1.17
-1.165
-1.185
-1.17
-1.17
-1.155
-1.155
-1.145
-1.165
-1.19
-1.19
-1.205
-1.235
-1.21
-1.205
-1.205
-1.21
-1.19
-1.18
-1.18
-1.205
-1.195
-1.23
-1.23
-1.235
-1.255
-1.245
-1.21
-1.22
-1.195
-1.205
-1.21
-1.23
-1.225
-1.235
-1.245
-1.25
-1.235
-1.22
-1.225
-1.21
-1.195
-1.205
-1.21
-1.215
-1.22
-1.23
-1.22
-1.22
-1.215
-1.185
-1.15
-1.125
-1.105
-1.09
-1.095
-1.1
-1.115
-1.12
-1.12
-1.115
-1.12
-1.085
-1.065
-1.04
-1.02
-1.01
-1.01
-1.03
-1.04
-1.055
-1.075
-1.085
-1.115
-1.115
-1.12
-1.09
-1.1
-1.105
-1.11
-1.135
-1.165
-1.2
-1.215
-1.23
-1.265
-1.27
-1.265
-1.255
-1.255
-1.25
-1.255
-1.25
-1.26
-1.265
-1.255
-1.255
-1.235
-1.24
-1.225
-1.225
-1.205
-1.215
-1.19
-1.12
-1.005
-0.82
-0.545
-0.195
0.225
0.72
1.225
1.7
2.095
2.36
2.46
2.43
2.21
1.805
1.165
0.525
-0.115
-0.755
-1.395
-1.695
-1.49
-1.23
-1.025
-0.925
-0.945
-1.015
-1.125
-1.195
-1.25
-1.255
-1.235
-1.205
-1.19
-1.185
-1.19
-1.195
-1.2
-1.21
-1.195
-1.185
-1.18
-1.165
-1.145
-1.135
-1.125
-1.14
-1.135
-1.125
-1.15
-1.145
-1.145
-1.14
-1.145
-1.11
-1.095
-1.065
-1.06
-1.055
-1.045
-1.05
-1.045
-1.035
-1.02
-1.02
-1.01
-0.985
-0.96
-0.95
-0.91
-0.9
-0.89
-0.875
-0.865
-0.845
-0.83
-0.825
-0.79
-0.78
-0.745
-0.7
-0.68
-0.66
-0.635
-0.63
-0.605
-0.595
-0.58
-0.565
-0.555
-0.545
-0.515
-0.505
-0.485
-0.47
-0.495
-0.505
-0.515
-0.54
-0.545
-0.555
-0.565
-0.585
-0.61
-0.64
-0.645
-0.675
-0.695
-0.745
-0.79
-0.815
-0.85
-0.9
-0.93
-0.945
-0.965
-1.0
-1.015
-1.035
-1.045
-1.065
-1.09
-1.12
-1.135
-1.135
-1.145
-1.145
-1.145
-1.13
-1.125
-1.115
-1.13
-1.135
-1.145
-1.15
-1.15
-1.16
-1.13
-1.13
-1.11
-1.1
-1.1
-1.085
-1.09
-1.09
-1.095
-1.12
-1.125
-1.115
-1.12
-1.12
-1.085
-1.08
-1.07
-1.075
-1.075
-1.085
-1.09
-1.12
-1.13
-1.12
-1.11
-1.105
-1.09
-1.085
-1.085
-1.07
-1.085
-1.09
-1.085
-1.09
-1.115
-1.125
-1.115
-1.12
-1.11
-1.11
-1.12
-1.12
-1.105
-1.125
-1.13
-1.155
-1.145
-1.15
-1.16
-1.145
-1.125
-1.12
-1.105
-1.12
-1.125
-1.135
-1.145
-1.15
-1.15
-1.175
-1.165
-1.17
-1.15
-1.145
-1.125
-1.13
-1.14
-1.145
-1.17
-1.165
-1.175
-1.19
-1.165
-1.165
-1.145
-1.15
-1.135
-1.13
-1.13
-1.14
-1.14
-1.14
-1.15
-1.17
-1.165
-1.16
-1.145
-1.14
-1.14
-1.13
-1.115
-1.15
-1.13
-1.135
-1.14
-1.12
-1.12
-1.08
-1.065
-1.04
-1.03
-1.02
-1.03
-1.025
-1.035
-1.045
-1.055
-1.05
-1.05
-1.03
-0.99
-0.95
-0.92
-0.935
-0.925
-0.94
-0.97
-0.975
-0.99
-1.015
-1.04
-1.015
-1.01
-1.025
-1.01
-1.035
-1.045
-1.085
-1.125
-1.15
-1.15
-1.19
-1.205
-1.225
-1.22
-1.185
-1.15
-1.15
-1.15
-1.165
-1.17
-1.185
-1.18
-1.19
-1.19
-1.19
-1.18
-1.175
-1.155
-1.14
-1.135
-1.115
-1.045
-0.935
-0.77
-0.52
-0.195
0.21
0.685
1.16
1.635
2.035
2.3
2.405
2.31
1.97
1.365
0.725
0.085
-0.555
-1.195
-1.82
-1.64
-1.34
-1.06
-0.865
-0.795
-0.845
-0.95
-1.06
-1.14
-1.185
-1.19
-1.16
-1.115
-1.105
-1.12
-1.12
-1.14
-1.16
-1.175
-1.17
-1.165
-1.135
-1.115
-1.095
-1.085
-1.08
-1.07
-1.08
-1.08
-1.09
-1.1
-1.1
-1.1
-1.095
-1.09
-1.06
-1.03
-1.01
-1.0
-1.0
-1.005
-1.01
-1.005
-1.0
-1.0
-0.975
-0.95
-0.93
-0.895
-0.875
-0.86
-0.84
-0.85
-0.84
-0.815
-0.805
-0.785
-0.76
-0.735
-0.715
-0.695
-0.665
-0.64
-0.615
-0.595
-0.56
-0.55
-0.525
-0.505
-0.48
-0.455
-0.425
-0.42
-0.41
-0.425
-0.42
-0.44
-0.445
-0.455
-0.47
-0.48
-0.495
-0.5
-0.49
-0.515
-0.53
-0.57
-0.61
-0.67
-0.71
-0.76
-0.79
-0.835
-0.86
-0.885
-0.91
-0.915
-0.935
-0.955
-0.98
-1.005
-1.03
-1.05
-1.05
-1.06
-1.065
-1.07
-1.08
-1.06
-1.065
-1.085
-1.095
-1.1
-1.105
-1.105
-1.11
-1.11
-1.1
-1.105
-1.1
-1.07
-1.05
-1.055
-1.065
-1.06
-1.065
-1.065
-1.085
-1.075
-1.065
-1.065
-1.055
-1.035
-1.035
-1.045
-1.03
-1.025
-1.05
-1.05
-1.055
-1.065
-1.065
-1.055
-1.055
-1.06
-1.035
-1.05
-1.06
-1.07
-1.08
-1.09
-1.085
-1.09
-1.1
-1.085
-1.085
-1.06
-1.055
-1.075
-1.09
-1.12
-1.115
-1.135
-1.135
-1.135
-1.14
-1.12
-1.12
-1.11
-1.115
-1.11
-1.125
-1.135
-1.145
-1.155
-1.16
-1.18
-1.16
-1.16
-1.155
-1.16
-1.15
-1.15
-1.14
-1.15
-1.155
-1.165
-1.18
-1.17
-1.18
-1.17
-1.165
-1.155
-1.145
-1.155
-1.155
-1.15
-1.165
-1.18
-1.19
-1.19
-1.17
-1.155
-1.155
-1.15
-1.145
-1.15
-1.16
-1.155
-1.155
-1.15
-1.115
-1.1
-1.09
-1.055
-1.035
-1.04
-1.03
-1.025
-1.04
-1.07
-1.075
-1.07
-1.06
-1.04
-1.02
-0.995
-0.97
-0.945
-0.95
-0.96
-0.98
-0.99
-0.995
-1.0
-1.025
-1.05
-1.055
-1.045
-1.06
-1.055
-1.065
-1.09
-1.11
-1.145
-1.18
-1.205
-1.23
-1.255
-1.25
-1.25
-1.235
-1.21
-1.2
-1.2
-1.205
-1.22
-1.22
-1.225
-1.225
-1.215
-1.23
-1.23
-1.21
-1.215
-1.185
-1.155
-1.075
-0.94
-0.7
-0.42
-0.045
0.345
0.765
1.195
1.59
1.965
2.22
2.365
2.36
2.155
1.69
1.05
0.41
-0.23
-0.87
-1.51
-1.59
-1.335
-1.075
-0.89
-0.85
-0.915
-1.015
-1.12
-1.21
-1.23
-1.26
-1.245
-1.215
-1.215
-1.205
-1.205
-1.225
-1.23
-1.225
-1.23
-1.24
-1.23
-1.215
-1.22
-1.2
-1.195
-1.195
-1.175
-1.17
-1.18
-1.18
-1.18
-1.18
-1.185
-1.17
-1.16
-1.14
-1.115
-1.125
-1.115
-1.105
-1.11
-1.11
-1.1
-1.11
-1.105
-1.095
-1.085
-1.055
-1.015
-0.985
-0.965
-0.95
-0.935
-0.92
-0.915
-0.9
-0.885
-0.865
-0.835
-0.79
-0.765
-0.735
-0.705
-0.695
-0.675
-0.655
-0.635
-0.625
-0.61
-0.595
-0.575
-0.56
-0.535
-0.53
-0.54
-0.535
-0.54
-0.555
-0.57
-0.59
-0.6
-0.61
-0.64
-0.66
-0.675
-0.695
-0.735
-0.785
-0.83
-0.885
-0.935
-0.98
-1.015
-1.06
-1.09
-1.09
-1.095
-1.11
-1.135
-1.16
-1.17
-1.2
-1.2
-1.23
-1.24
-1.245
-1.245
-1.235
-1.23
-1.24
-1.245
-1.245
-1.25
-1.26
-1.255
-1.25
-1.26
-1.24
-1.23
-1.235
-1.215
-1.19
-1.215
-1.225
-1.22
-1.23
-1.24
-1.235
-1.235
-1.235
-1.225
-1.21
-1.2
-1.2
-1.185
-1.175
-1.195
-1.205
-1.215
-1.22
-1.225
-1.225
-1.22
-1.22
-1.215
-1.225
-1.23
-1.23
-1.235
-1.265
-1.265
-1.26
-1.275
-1.26
-1.25
-1.25
-1.245
-1.25
-1.25
-1.265
-1.28
-1.295
-1.295
-1.32
-1.32
-1.325
-1.315
-1.315
-1.275
-1.275
-1.27
-1.27
-1.285
-1.295
-1.315
-1.32
-1.325
-1.325
-1.325
-1.31
-1.285
-1.28
-1.28
-1.295
-1.3
-1.31
-1.325
-1.325
-1.335
-1.32
-1.32
-1.31
-1.305
-1.31
-1.32
-1.31
-1.31
-1.31
-1.315
-1.32
-1.335
-1.33
-1.305
-1.29
-1.27
-1.22
-1.23
-1.215
-1.22
-1.215
-1.24
-1.22
-1.25
-1.23
-1.215
-1.2
-1.185
-1.17
-1.165
-1.16
-1.145
-1.14
-1.145
-1.155
-1.15
-1.165
-1.165
-1.16
-1.17
-1.165
-1.175
-1.18
-1.205
-1.22
-1.225
-1.23
-1.245
-1.27
-1.3
-1.305
-1.295
-1.325
-1.34
-1.36
-1.375
-1.375
-1.37
-1.365
-1.36
-1.365
-1.355
-1.34
-1.35
-1.345
-1.35
-1.35
-1.365
-1.355
-1.355
-1.345
-1.335
-1.31
-1.24
-1.13
-0.93
-0.665
-0.355
0.03
0.42
0.86
1.275
1.685
2.025
2.24
2.345
2.315
2.145
1.79
1.17
0.53
-0.11
-0.75
-1.39
-1.775
-1.64
-1.41
-1.205
-1.07
-1.01
-1.05
-1.12
-1.205
-1.285
-1.305
-1.32
-1.32
-1.31
-1.305
-1.305
-1.3
-1.29
-1.285
-1.28
-1.285
-1.3
-1.31
-1.32
-1.3
-1.29
-1.285
-1.27
-1.255
-1.265
-1.24
-1.22
-1.215
-1.23
-1.235
-1.235
-1.23
-1.225
-1.215
-1.215
-1.185
-1.17
-1.15
-1.15
-1.135
-1.145
-1.145
-1.135
-1.13
-1.11
-1.11
-1.095
-1.065
-1.035
-1.0
-0.98
-0.98
-0.96
-0.945
-0.925
-0.925
-0.905
-0.875
-0.84
-0.815
-0.775
-0.73
-0.715
-0.715
-0.695
-0.69
-0.685
-0.665
-0.66
-0.64
-0.615
-0.61
-0.585
-0.575
-0.59
-0.59
-0.6
-0.605
-0.63
-0.655
-0.685
-0.71
-0.735
-0.75
-0.775
-0.785
-0.82
-0.86
-0.905
-0.95
-0.995
-1.035
-1.075
-1.105
-1.115
-1.13
-1.15
-1.14
-1.165
-1.175
-1.2
-1.2
-1.215
-1.245
-1.245
-1.235
-1.23
-1.23
-1.225
-1.22
-1.225
-1.245
-1.265
-1.265
-1.24
-1.24
-1.245
-1.235
-1.205
-1.205
-1.19
-1.175
-1.175
-1.175
-1.18
-1.17
-1.185
-1.185
-1.18
-1.175
-1.165
-1.165
-1.16
-1.15
-1.155
-1.17
-1.165
-1.165
-1.18
-1.17
-1.18
-1.19
-1.175
-1.17
-1.155
-1.18
-1.175
-1.17
-1.175
-1.19
-1.2
-1.2
-1.22
-1.215
-1.205
-1.2
-1.185
-1.185
-1.185
-1.19
-1.195
-1.205
-1.225
-1.235
-1.22
-1.225
-1.225
-1.21
-1.195
-1.195
-1.175
-1.195
-1.205
-1.22
-1.215
-1.225
-1.23
-1.215
-1.23
-1.215
-1.2
-1.185
-1.19
-1.2
-1.2
-1.21
-1.21
-1.195
-1.2
-1.195
-1.19
-1.195
-1.18
-1.165
-1.175
-1.18
-1.185
-1.195
-1.21
-1.195
-1.2
-1.185
-1.16
-1.12
-1.105
-1.095
-1.085
-1.08
-1.1
-1.085
-1.1
-1.09
-1.095
-1.085
-1.065
-1.035
-1.005
-0.985
-0.97
-0.965
-0.975
-0.98
-1.015
-1.03
-1.045
-1.085
-1.06
-1.075
-1.065
-1.035
-1.03
-1.05
-1.06
-1.09
-1.125
-1.15
-1.175
-1.21
-1.2
-1.205
-1.21
-1.195
-1.205
-1.205
-1.205
-1.205
-1.22
-1.215
-1.235
-1.22
-1.22
-1.2
-1.2
-1.185
-1.185
-1.195
-1.2
-1.195
-1.155
-1.08
-0.965
-0.8
-0.555
-0.225
0.16
0.59
1.075
1.555
1.965
2.245
2.345
2.25
1.905
1.265
0.625
-0.015
-0.655
-1.295
-1.695
-1.495
-1.215
-0.98
-0.855
-0.865
-0.925
-1.04
-1.12
-1.17
-1.2
-1.19
-1.17
-1.165
-1.155
-1.155
-1.175
-1.2
-1.185
-1.195
-1.16
-1.16
-1.13
-1.125
-1.115
-1.105
-1.115
-1.13
-1.14
-1.135
-1.14
-1.125
-1.11
-1.1
-1.09
-1.06
-1.055
-1.05
-1.04
-1.04
-1.03
-1.03
-1.025
-1.025
-1.0
-0.98
-0.955
-0.93
-0.92
-0.905
-0.91
-0.905
-0.87
-0.86
-0.835
-0.81
-0.78
-0.76
-0.725
-0.695
-0.685
-0.665
-0.645
-0.635
-0.615
-0.585
-0.575
-0.55
-0.53
-0.49
-0.46
-0.445
-0.42
-0.435
-0.44
-0.45
-0.45
-0.455
-0.46
-0.465
-0.455
-0.45
-0.48
-0.47
-0.49
-0.52
-0.555
-0.605
-0.645
-0.695
-0.75
-0.8
-0.835
-0.845
-0.865
-0.875
-0.9
-0.93
-0.96
-0.98
-1.015
-1.03
-1.05
-1.05
-1.045
-1.05
-1.06
-1.055
-1.065
-1.08
-1.085
-1.1
-1.1
-1.13
-1.13
-1.11
-1.095
-1.085
-1.065
-1.06
-1.055
-1.055
-1.06
-1.06
-1.07
-1.07
-1.085
-1.075
-1.065
-1.06
-1.045
-1.035
-1.03
-1.03
-1.03
-1.045
-1.045
-1.06
-1.06
-1.07
-1.05
-1.04
-1.03
-1.03
-1.03
-1.045
-1.055
-1.06
-1.07
-1.075
-1.09
-1.085
-1.08
-1.09
-1.09
-1.08
-1.075
-1.09
-1.095
-1.105
-1.125
-1.13
-1.14
-1.14
-1.13
-1.11
-1.12
-1.115
-1.11
-1.115
-1.125
-1.14
-1.125
-1.145
-1.155
-1.155
-1.155
-1.14
-1.135
-1.12
-1.145
-1.14
-1.145
-1.155
-1.16
-1.16
-1.16
-1.155
-1.16
-1.15
-1.14
-1.14
-1.155
-1.155
-1.165
-1.175
-1.17
-1.17
-1.18
-1.165
-1.155
-1.15
-1.14
-1.13
-1.13
-1.14
-1.125
-1.125
-1.105
-1.085
-1.075
-1.065
-1.055
-1.045
-1.03
-1.03
-1.02
-1.025
-1.035
-1.035
-1.03
-1.015
-1.0
-0.985
-0.97
-0.965
-0.955
-0.96
-0.965
-0.985
-1.01
-1.035
-1.03
-1.035
-1.055
-1.06
-1.07
-1.075
-1.09
-1.11
-1.14
-1.155
-1.18
-1.21
-1.225
-1.23
-1.245
-1.245
-1.23
-1.235
-1.225
-1.22
-1.22
-1.21
-1.21
-1.215
-1.235
-1.23
-1.24
-1.255
-1.23
-1.24
-1.19
-1.13
-1.025
-0.86
-0.6
-0.28
0.095
0.53
0.985
1.455
1.87
2.185
2.345
2.35
2.15
1.725
1.085
0.445
-0.195
-0.835
-1.475
-1.735
-1.55
-1.26
-1.02
-0.885
-0.9
-0.975
-1.085
-1.185
-1.25
-1.26
-1.26
-1.25
-1.235
-1.225
-1.215
-1.21
-1.215
-1.225
-1.22
-1.235
-1.25
-1.235
-1.235
-1.235
-1.215
-1.195
-1.19
-1.18
-1.175
-1.18
-1.185
-1.2
-1.2
-1.2
-1.205
-1.195
-1.175
-1.16
-1.14
-1.125
-1.115
-1.125
-1.115
-1.105
-1.11
-1.095
-1.1
-1.09
-1.07
-1.055
-1.025
-1.0
-0.98
-0.97
-0.96
-0.94
-0.935
-0.9
-0.9
-0.875
-0.85
-0.82
-0.785
-0.76
-0.745
-0.715
-0.7
-0.68
-0.675
-0.645
-0.645
-0.625
-0.605
-0.585
-0.575
-0.555
-0.545
-0.565
-0.575
-0.565
-0.6
-0.62
-0.61
-0.635
-0.635
-0.655
-0.675
-0.715
-0.755
-0.78
-0.83
-0.88
-0.94
-0.975
-1.025
-1.06
-1.08
-1.085
-1.105
-1.1
-1.13
-1.145
-1.17
-1.195
-1.215
-1.225
-1.24
-1.255
-1.275
-1.245
-1.25
-1.245
-1.255
-1.255
-1.275
-1.275
-1.29
-1.295
-1.285
-1.29
-1.26
-1.245
-1.235
-1.23
-1.22
-1.23
-1.225
-1.25
-1.255
-1.255
-1.255
-1.26
-1.24
-1.23
-1.225
-1.22
-1.215
-1.21
-1.22
-1.235
-1.23
-1.25
-1.25
-1.255
-1.255
-1.24
-1.24
-1.235
-1.24
-1.245
-1.265
-1.26
-1.275
-1.28
-1.285
-1.29
-1.295
-1.29
-1.275
-1.275
-1.285
-1.27
-1.285
-1.295
-1.295
-1.31
-1.315
-1.33
-1.33
-1.3
-1.29
-1.29
-1.295
-1.315
-1.325
-1.335
-1.33
-1.335
-1.335
-1.345
-1.36
-1.355
-1.335
-1.32
-1.315
-1.315
-1.32
-1.315
-1.325
-1.325
-1.34
-1.34
-1.335
-1.335
-1.325
-1.315
-1.315
-1.325
-1.325
-1.345
-1.35
-1.34
-1.36
-1.355
-1.34
-1.32
-1.315
-1.3
-1.275
-1.265
-1.255
-1.245
-1.24
-1.245
-1.255
-1.255
-1.245
-1.245
-1.225
-1.205
-1.21
-1.2
-1.175
-1.165
-1.15
-1.165
-1.155
-1.155
-1.165
-1.175
-1.18
-1.18
-1.18
-1.195
-1.205
-1.22
-1.23
-1.22
-1.255
-1.27
-1.275
-1.285
-1.31
-1.335
-1.345
-1.355
-1.365
-1.385
-1.385
-1.38
-1.385
-1.375
-1.37
-1.355
-1.355
-1.34
-1.345
-1.335
-1.35
-1.365
-1.375
-1.38
-1.38
-1.34
-1.265
-1.165
-1.0
-0.8
-0.565
-0.275
0.05
0.41
0.825
1.25
1.65
1.925
2.08
1.975
1.58
0.94
0.3
-0.34
-0.98
-1.62
-1.78
-1.58
-1.345
-1.155
-1.08
-1.09
-1.15
-1.24
-1.315
-1.37
-1.38
-1.405
-1.39
-1.37
-1.365
-1.365
-1.375
-1.345
-1.34
-1.335
-1.31
-1.315
-1.315
-1.31
-1.325
-1.34
-1.34
-1.34
-1.33
-1.29
-1.275
-1.26
-1.255
-1.255
-1.25
-1.255
-1.265
-1.25
-1.265
-1.26
-1.23
-1.205
-1.19
-1.17
-1.15
-1.14
-1.14
-1.135
-1.125
-1.115
-1.095
-1.105
-1.065
-1.045
-1.01
-1.0
-0.98
-0.945
-0.925
-0.92
-0.89
-0.875
-0.85
-0.83
-0.79
-0.765
-0.745
-0.71
-0.695
-0.69
-0.68
-0.68
-0.675
-0.67
-0.675
-0.685
-0.68
-0.675
-0.675
-0.675
-0.695
-0.71
-0.745
-0.775
-0.815
-0.85
-0.88
-0.925
-0.95
-0.98
-1.005
-1.01
-1.05
-1.065
-1.09
-1.115
-1.155
-1.18
-1.18
-1.205
-1.205
-1.2
-1.195
-1.2
-1.195
-1.195
-1.205
-1.22
-1.235
-1.235
-1.24
-1.235
-1.245
-1.245
-1.225
-1.225
-1.205
-1.195
-1.2
-1.19
-1.205
-1.21
-1.205
-1.205
-1.215
-1.19
-1.18
-1.175
-1.155
-1.155
-1.17
-1.18
-1.18
-1.185
-1.18
-1.18
-1.17
-1.16
-1.16
-1.145
-1.14
-1.14
-1.15
-1.16
-1.175
-1.19
-1.185
-1.2
-1.195
-1.18
-1.19
-1.16
-1.165
-1.16
-1.17
-1.185
-1.2
-1.205
-1.21
-1.215
-1.215
-1.205
-1.2
-1.18
-1.185
-1.19
-1.195
-1.2
-1.21
-1.205
-1.21
-1.21
-1.2
-1.19
-1.185
-1.185
-1.195
-1.19
-1.19
-1.21
-1.205
-1.225
-1.215
-1.205
-1.21
-1.2
-1.2
-1.19
-1.18
-1.175
-1.19
-1.205
-1.21
-1.225
-1.22
-1.225
-1.215
-1.19
-1.18
-1.165
-1.16
-1.17
-1.17
-1.18
-1.175
-1.165
-1.16
-1.155
-1.14
-1.12
-1.1
-1.095
-1.085
-1.07
-1.05
-1.065
-1.06
-1.065
-1.065
-1.05
-1.035
-1.015
-0.97
-0.955
-0.965
-0.97
-0.985
-0.985
-1.015
-1.015
-1.04
-1.03
-1.02
-1.02
-1.03
-1.03
-1.065
-1.075
-1.105
-1.135
-1.16
-1.19
-1.215
-1.215
-1.23
-1.235
-1.205
-1.185
-1.175
-1.16
-1.165
-1.19
-1.205
-1.21
-1.215
-1.215
-1.18
-1.185
-1.195
-1.185
-1.185
-1.165
-1.145
-1.11
-1.015
-0.9
-0.715
-0.475
-0.185
0.155
0.525
0.89
1.305
1.69
2.01
2.19
2.205
2.015
1.53
0.89
0.25
-0.39
-1.03
-1.67
-1.56
-1.3
-1.03
-0.86
-0.835
-0.885
-0.975
-1.08
-1.145
-1.175
-1.165
-1.155
-1.135
-1.13
-1.14
-1.15
-1.165
-1.16
-1.155
-1.165
-1.15
-1.14
-1.13
-1.125
-1.115
-1.115
-1.12
-1.12
-1.115
-1.135
-1.115
-1.105
-1.095
-1.075
-1.055
-1.04
-1.045
-1.03
-1.04
-1.04
-1.035
-1.03
-1.03
-1.02
-1.0
-0.975
-0.965
-0.94
-0.92
-0.91
-0.89
-0.885
-0.87
-0.845
-0.85
-0.815
-0.8
-0.76
-0.73
-0.695
-0.66
-0.65
-0.63
-0.615
-0.605
-0.585
-0.575
-0.555
-0.535
-0.515
-0.5
-0.47
-0.45
-0.45
-0.44
-0.45
-0.47
-0.485
-0.485
-0.515
-0.52
-0.545
-0.565
-0.585
-0.635
-0.675
-0.7
-0.755
-0.79
-0.83
-0.86
-0.89
-0.92
-0.96
-0.975
-0.975
-0.995
-1.025
-1.045
-1.05
-1.08
-1.095
-1.085
-1.11
-1.115
-1.09
-1.085
-1.07
-1.065
-1.075
-1.085
-1.075
-1.09
-1.11
-1.105
-1.105
-1.1
-1.08
-1.075
-1.055
-1.03
-1.035
-1.03
-1.045
-1.045
-1.06
-1.055
-1.08
-1.08
-1.07
-1.065
-1.045
-1.03
-1.02
-1.045
-1.05
-1.05
-1.055
-1.06
-1.085
-1.09
-1.085
-1.085
-1.07
-1.06
-1.08
-1.075
-1.085
-1.11
-1.105
-1.105
-1.1
-1.1
-1.1
-1.1
-1.085
-1.085
-1.08
-1.09
-1.1
-1.1
-1.12
-1.125
-1.12
-1.115
-1.105
-1.125
-1.115
-1.115
-1.085
-1.095
-1.095
-1.11
-1.12
-1.12
-1.15
-1.125
-1.125
-1.12
-1.115
-1.125
-1.11
-1.125
-1.12
-1.135
-1.145
-1.145
-1.145
-1.15
-1.135
-1.125
-1.115
-1.115
-1.1
-1.1
-1.1
-1.1
-1.1
-1.08
-1.075
-1.045
-1.035
-1.015
-1.005
-0.985
-0.99
-1.005
-1.025
-1.03
-1.03
-1.03
-1.015
-0.99
-0.955
-0.935
-0.92
-0.925
-0.95
-0.97
-0.995
-1.01
-1.035
-1.015
-1.04
-1.045
-1.03
-1.04
-1.055
-1.06
-1.085
-1.11
-1.155
-1.18
-1.205
-1.215
-1.23
-1.215
-1.215
-1.195
-1.2
-1.185
-1.18
-1.175
-1.175
-1.185
-1.19
-1.195
-1.195
-1.195
-1.19
-1.185
-1.18
-1.16
-1.125
-1.045
-0.935
-0.75
-0.5
-0.175
0.185
0.56
0.965
1.37
1.785
2.105
2.295
2.355
2.25
1.955
1.4
0.76
0.12
-0.52
-1.16
-1.66
-1.53
-1.285
-1.04
-0.9
-0.865
-0.93
-1.035
-1.13
-1.195
-1.23
-1.225
-1.215
-1.19
-1.17
-1.175
-1.18
-1.205
-1.215
-1.215
-1.22
-1.215
-1.21
-1.185
-1.19
-1.17
-1.17
-1.165
-1.16
-1.165
-1.175
-1.18
-1.17
-1.175
-1.155
-1.155
-1.14
-1.12
-1.11
-1.105
-1.1
-1.11
-1.11
-1.12
-1.105
-1.105
-1.095
-1.07
-1.045
-1.015
-0.99
-0.985
-0.98
-0.97
-0.975
-0.975
-0.96
-0.95
-0.94
-0.92
-0.895
-0.865
-0.835
-0.805
-0.77
-0.755
-0.735
-0.72
-0.71
-0.7
-0.675
-0.64
-0.625
-0.6
-0.575
-0.57
-0.56
-0.56
-0.56
-0.575
-0.59
-0.585
-0.595
-0.605
-0.6
-0.61
-0.62
-0.645
-0.665
-0.695
-0.75
-0.79
-0.84
-0.875
-0.905
-0.925
-0.95
-0.96
-0.98
-1.01
-1.045
-1.09
-1.11
-1.15
-1.175
-1.2
-1.21
-1.21
-1.2
-1.195
-1.19
-1.19
-1.2
-1.195
-1.205
-1.205
-1.225
-1.225
-1.225
-1.24
-1.23
-1.21
-1.195
-1.185
-1.185
-1.19
-1.195
-1.19
-1.195
-1.195
-1.2
-1.19
-1.195
-1.2
-1.205
-1.18
-1.17
-1.2
-1.21
-1.21
-1.225
-1.21
-1.21
-1.2
-1.19
-1.19
-1.18
-1.185
-1.19
-1.205
-1.215
-1.235
-1.235
-1.245
-1.26
-1.245
-1.225
-1.215
-1.215
-1.21
-1.22
-1.23
-1.25
-1.27
-1.285
-1.295
-1.295
-1.27
-1.27
-1.265
-1.255
-1.26
-1.265
-1.27
-1.26
-1.285
-1.3
-1.29
-1.285
-1.29
-1.27
-1.265
-1.26
-1.26
-1.26
-1.27
-1.28
-1.29
-1.305
-1.3
-1.305
-1.29
-1.28
-1.285
-1.265
-1.27
-1.265
-1.265
-1.275
-1.295
-1.295
-1.3
-1.295
-1.255
-1.23
-1.205
-1.18
-1.185
-1.185
-1.205
-1.2
-1.205
-1.2
-1.195
-1.185
-1.17
-1.15
-1.145
-1.125
-1.115
-1.11
-1.115
-1.14
-1.15
-1.16
-1.165
-1.19
-1.18
-1.175
-1.165
-1.165
-1.19
-1.23
-1.255
-1.265
-1.32
-1.335
-1.355
-1.36
-1.37
-1.355
-1.33
-1.315
-1.325
-1.335
-1.32
-1.325
-1.325
-1.33
-1.33
-1.345
-1.335
-1.335
-1.305
-1.285
-1.255
-1.21
-1.125
-0.99
-0.795
-0.51
-0.17
0.235
0.695
1.165
1.585
1.91
2.07
1.975
1.59
0.955
0.315
-0.325
-0.965
-1.605
-1.92
-1.765
-1.495
-1.225
-1.065
-1.02
-1.045
-1.12
-1.235
-1.295
-1.345
-1.34
-1.305
-1.3
-1.265
-1.255
-1.25
-1.27
-1.275
-1.3
-1.295
-1.29
-1.285
-1.28
-1.27
-1.26
-1.245
-1.225
-1.225
-1.215
-1.215
-1.21
-1.205
-1.21
-1.2
-1.185
-1.185
-1.16
-1.145
-1.125
-1.125
-1.125
-1.125
-1.135
-1.115
-1.095
-1.085
-1.08
-1.065
-1.03
-0.995
-0.97
-0.96
-0.965
-0.94
-0.925
-0.93
-0.92
-0.925
-0.875
-0.84
-0.805
-0.77
-0.735
-0.715
-0.7
-0.69
-0.67
-0.67
-0.65
-0.655
-0.665
-0.64
-0.64
-0.635
-0.605
-0.625
-0.63
-0.63
-0.64
-0.645
-0.655
-0.67
-0.695
-0.705
-0.74
-0.755
-0.79
-0.815
-0.855
-0.895
-0.935
-0.99
-1.01
-1.035
-1.04
-1.06
-1.065
-1.07
-1.07
-1.085
-1.085
-1.105
-1.13
-1.14
-1.145
-1.15
-1.155
-1.145
-1.135
-1.115
-1.11
-1.11
-1.11
-1.115
-1.13
-1.13
-1.14
-1.155
-1.145
-1.13
-1.12
-1.095
-1.09
-1.09
-1.1
-1.095
-1.105
-1.115
-1.11
-1.13
-1.13
-1.12
-1.105
-1.1
-1.085
-1.09
-1.095
-1.105
-1.105
-1.12
-1.125
-1.125
-1.13
-1.13
-1.12
-1.115
-1.13
-1.115
-1.135
-1.15
-1.165
-1.175
-1.175
-1.165
-1.17
-1.155
-1.15
-1.135
-1.13
-1.14
-1.14
-1.165
-1.165
-1.205
-1.19
-1.19
-1.2
-1.2
-1.175
-1.17
-1.16
-1.165
