Lead II
-0.24
-0.24
-0.23
-0.23
-0.22
-0.225
-0.23
-0.25
-0.235
-0.245
-0.225
-0.23
-0.23
-0.24
-0.23
-0.235
-0.225
-0.215
-0.225
-0.24
-0.22
-0.225
-0.22
-0.225
-0.235
-0.255
-0.25
-0.25
-0.24
-0.25
-0.26
-0.27
-0.265
-0.26
-0.25
-0.27
-0.28
-0.275
-0.26
-0.26
-0.265
-0.265
-0.29
-0.3
-0.285
-0.265
-0.25
-0.25
-0.27
-0.28
-0.28
-0.275
-0.265
-0.275
-0.295
-0.31
-0.3
-0.295
-0.29
-0.285
-0.28
-0.295
-0.295
-0.295
-0.295
-0.305
-0.3
-0.29
-0.29
-0.285
-0.29
-0.295
-0.295
-0.305
-0.29
-0.28
-0.27
-0.285
-0.29
-0.3
-0.29
-0.28
-0.28
-0.28
-0.3
-0.305
-0.295
-0.275
-0.28
-0.29
-0.295
-0.295
-0.305
-0.285
-0.265
-0.27
-0.275
-0.275
-0.255
-0.235
-0.235
-0.225
-0.225
-0.235
-0.215
-0.21
-0.22
-0.2
-0.21
-0.2
-0.195
-0.185
-0.175
-0.195
-0.185
-0.17
-0.165
-0.165
-0.165
-0.175
-0.175
-0.19
-0.17
-0.17
-0.17
-0.17
-0.165
-0.165
-0.145
-0.16
-0.18
-0.22
-0.235
-0.26
-0.27
-0.275
-0.285
-0.305
-0.315
-0.32
-0.31
-0.295
-0.29
-0.295
-0.295
-0.315
-0.31
-0.31
-0.315
-0.315
-0.325
-0.34
-0.33
-0.325
-0.32
-0.32
-0.33
-0.34
-0.345
-0.32
-0.335
-0.355
-0.405
-0.455
-0.465
-0.49
-0.52
-0.535
-0.495
-0.435
-0.31
-0.22
-0.135
-0.045
0.085
0.285
0.53
0.775
0.935
1.025
0.985
0.745
0.345
-0.035
-0.32
-0.45
-0.485
-0.46
-0.405
-0.38
-0.37
-0.37
-0.38
-0.375
-0.36
-0.36
-0.36
-0.365
-0.38
-0.38
-0.35
-0.355
-0.37
-0.365
-0.385
-0.38
-0.375
-0.365
-0.37
-0.36
-0.39
-0.4
-0.38
-0.375
-0.375
-0.375
-0.395
-0.395
-0.4
-0.385
-0.375
-0.375
-0.375
-0.385
-0.365
-0.37
-0.37
-0.365
-0.37
-0.37
-0.37
-0.37
-0.37
-0.37
-0.385
-0.375
-0.39
-0.375
-0.365
-0.375
-0.38
-0.375
-0.37
-0.375
-0.37
-0.365
-0.375
-0.375
-0.37
-0.355
-0.35
-0.365
-0.375
-0.38
-0.365
-0.37
-0.36
-0.385
-0.385
-0.395
-0.395
-0.38
-0.385
-0.39
-0.4
-0.41
-0.405
-0.41
-0.41
-0.41
-0.425
-0.425
-0.42
-0.42
-0.415
-0.41
-0.415
-0.41
-0.385
-0.38
-0.365
-0.355
-0.36
-0.35
-0.335
-0.325
-0.315
-0.305
-0.315
-0.315
-0.285
-0.275
-0.26
-0.275
-0.275
-0.265
-0.25
-0.24
-0.23
-0.225
-0.235
-0.24
-0.235
-0.225
-0.215
-0.205
-0.205
-0.225
-0.22
-0.2
-0.19
-0.205
-0.205
-0.22
-0.205
-0.21
-0.21
-0.21
-0.225
-0.245
-0.215
-0.215
-0.205
-0.21
-0.215
-0.215
-0.21
-0.21
-0.21
-0.205
-0.215
-0.225
-0.215
-0.22
-0.225
-0.215
-0.235
-0.255
-0.245
-0.235
-0.23
-0.23
-0.245
-0.25
-0.25
-0.245
-0.245
-0.24
-0.245
-0.255
-0.25
-0.245
-0.23
-0.24
-0.24
-0.255
-0.235
-0.24
-0.23
-0.24
-0.245
-0.25
-0.245
-0.235
-0.225
-0.235
-0.255
-0.255
-0.26
-0.245
-0.24
-0.255
-0.26
-0.26
-0.24
-0.24
-0.23
-0.23
-0.235
-0.24
-0.245
-0.24
-0.235
-0.23
-0.24
-0.245
-0.255
-0.225
-0.215
-0.22
-0.205
-0.2
-0.19
-0.17
-0.16
-0.145
-0.155
-0.15
-0.15
-0.14
-0.125
-0.12
-0.13
-0.13
-0.105
-0.095
-0.1
-0.095
-0.105
-0.125
-0.12
-0.125
-0.11
-0.105
-0.115
-0.115
-0.105
-0.095
-0.065
-0.065
-0.09
-0.125
-0.16
-0.155
-0.165
-0.19
-0.205
-0.22
-0.235
-0.245
-0.235
-0.235
-0.24
-0.255
-0.25
-0.245
-0.245
-0.25
-0.26
-0.27
-0.265
-0.27
-0.255
-0.255
-0.285
-0.27
-0.27
-0.255
-0.245
-0.255
-0.26
-0.27
-0.28
-0.295
-0.33
-0.37
-0.4
-0.425
-0.455
-0.48
-0.46
-0.39
-0.31
-0.205
-0.105
-0.015
0.12
0.3
0.51
0.74
0.93
1.05
1.125
1.12
1.015
0.71
0.27
-0.12
-0.345
-0.41
-0.39
-0.335
-0.31
-0.295
-0.315
-0.305
-0.31
-0.31
-0.305
-0.315
-0.315
-0.32
-0.325
-0.325
-0.315
-0.325
-0.31
-0.32
-0.32
-0.33
-0.325
-0.305
-0.305
-0.3
-0.305
-0.32
-0.32
-0.305
-0.305
-0.315
-0.315
-0.32
-0.325
-0.315
-0.315
-0.325
-0.32
-0.33
-0.325
-0.32
-0.32
-0.32
-0.325
-0.325
-0.325
-0.315
-0.31
-0.315
-0.315
-0.335
-0.315
-0.31
-0.3
-0.305
-0.31
-0.325
-0.295
-0.295
-0.29
-0.295
-0.31
-0.32
-0.315
-0.31
-0.305
-0.32
-0.31
-0.315
-0.31
-0.31
-0.305
-0.305
-0.32
-0.325
-0.33
-0.325
-0.315
-0.31
-0.315
-0.33
-0.32
-0.325
-0.305
-0.3
-0.31
-0.32
-0.305
-0.3
-0.295
-0.305
-0.305
-0.31
-0.31
-0.305
-0.29
-0.285
-0.27
-0.265
-0.26
-0.24
-0.235
-0.225
-0.22
-0.22
-0.21
-0.2
-0.195
-0.195
-0.2
-0.205
-0.19
-0.18
-0.18
-0.175
-0.185
-0.205
-0.185
-0.18
-0.185
-0.19
-0.195
-0.215
-0.195
-0.18
-0.175
-0.175
-0.19
-0.195
-0.19
-0.195
-0.195
-0.2
-0.205
-0.2
-0.21
-0.205
-0.2
-0.195
-0.205
-0.215
-0.205
-0.2
-0.195
-0.205
-0.215
-0.22
-0.21
-0.21
-0.21
-0.215
-0.21
-0.22
-0.225
-0.215
-0.22
-0.215
-0.225
-0.235
-0.23
-0.24
-0.22
-0.24
-0.245
-0.25
-0.245
-0.235
-0.235
-0.24
-0.255
-0.265
-0.255
-0.245
-0.24
-0.245
-0.25
-0.25
-0.245
-0.23
-0.225
-0.25
-0.23
-0.245
-0.23
-0.23
-0.225
-0.235
-0.235
-0.25
-0.245
-0.24
-0.23
-0.245
-0.24
-0.24
-0.245
-0.235
-0.22
-0.235
-0.225
-0.245
-0.225
-0.215
-0.205
-0.195
-0.185
-0.19
-0.18
-0.17
-0.16
-0.16
-0.17
-0.16
-0.16
-0.155
-0.13
-0.12
-0.11
-0.115
-0.105
-0.09
-0.09
-0.105
-0.11
-0.13
-0.125
-0.105
-0.11
-0.105
-0.12
-0.13
-0.115
-0.09
-0.065
-0.07
-0.1
-0.15
-0.17
-0.17
-0.185
-0.195
-0.215
-0.24
-0.245
-0.25
-0.25
-0.25
-0.255
-0.265
-0.25
-0.245
-0.255
-0.25
-0.27
-0.27
-0.27
-0.26
-0.265
-0.265
-0.27
-0.285
-0.28
-0.275
-0.26
-0.27
-0.285
-0.3
-0.315
-0.35
-0.385
-0.385
-0.43
-0.47
-0.49
-0.435
-0.325
-0.175
-0.05
0.15
0.425
0.715
0.935
1.04
1.03
0.88
0.575
0.22
-0.105
-0.32
-0.445
-0.51
-0.475
-0.41
-0.355
-0.335
-0.34
-0.345
-0.335
-0.32
-0.305
-0.32
-0.335
-0.35
-0.325
-0.325
-0.32
-0.33
-0.325
-0.34
-0.34
-0.335
-0.32
-0.33
-0.33
-0.34
-0.33
-0.325
-0.325
-0.33
-0.34
-0.35
-0.34
-0.32
-0.325
-0.32
-0.33
-0.34
-0.325
-0.305
-0.305
-0.31
-0.315
-0.33
-0.325
-0.32
-0.325
-0.32
-0.335
-0.34
-0.335
-0.325
-0.32
-0.325
-0.335
-0.33
-0.33
-0.32
-0.325
-0.32
-0.335
-0.33
-0.325
-0.315
-0.32
-0.31
-0.315
-0.33
-0.31
-0.32
-0.315
-0.315
-0.32
-0.345
-0.335
-0.34
-0.325
-0.34
-0.345
-0.35
-0.345
-0.34
-0.335
-0.34
-0.345
-0.34
-0.34
-0.325
-0.31
-0.32
-0.315
-0.325
-0.305
-0.295
-0.27
-0.275
-0.275
-0.27
-0.27
-0.255
-0.23
-0.235
-0.24
-0.24
-0.235
-0.215
-0.215
-0.21
-0.225
-0.22
-0.23
-0.205
-0.2
-0.205
-0.2
-0.215
-0.21
-0.19
-0.205
-0.195
-0.205
-0.215
-0.215
-0.2
-0.2
-0.215
-0.21
-0.225
-0.225
-0.215
-0.21
-0.215
-0.23
-0.24
-0.24
-0.245
-0.235
-0.23
-0.235
-0.245
-0.24
-0.23
-0.225
-0.22
-0.22
-0.235
-0.23
-0.23
-0.23
-0.23
-0.235
-0.265
-0.25
-0.245
-0.245
-0.245
-0.25
-0.265
-0.255
-0.26
-0.255
-0.245
-0.255
-0.27
-0.27
-0.26
-0.255
-0.24
-0.255
-0.265
-0.265
-0.255
-0.255
-0.255
-0.26
-0.255
-0.26
-0.26
-0.265
-0.27
-0.265
-0.285
-0.275
-0.27
-0.26
-0.255
-0.27
-0.28
-0.265
-0.275
-0.27
-0.265
-0.265
-0.275
-0.26
-0.255
-0.25
-0.245
-0.25
-0.26
-0.25
-0.24
-0.225
-0.205
-0.2
-0.225
-0.205
-0.195
-0.175
-0.175
-0.175
-0.195
-0.18
-0.165
-0.15
-0.165
-0.17
-0.155
-0.135
-0.12
-0.115
-0.12
-0.13
-0.155
-0.155
-0.15
-0.13
-0.145
-0.135
-0.145
-0.13
-0.12
-0.095
-0.095
-0.145
-0.18
-0.21
-0.2
-0.21
-0.23
-0.245
-0.255
-0.29
-0.28
-0.27
-0.265
-0.275
-0.28
-0.29
-0.275
-0.275
-0.285
-0.285
-0.3
-0.295
-0.295
-0.28
-0.29
-0.29
-0.305
-0.3
-0.3
-0.29
-0.29
-0.29
-0.32
-0.325
-0.355
-0.37
-0.41
-0.43
-0.455
-0.485
-0.505
-0.465
-0.34
-0.205
-0.05
0.19
0.485
0.755
0.925
0.965
0.795
0.445
0.045
-0.27
-0.43
-0.47
-0.43
-0.38
-0.355
-0.35
-0.36
-0.365
-0.35
-0.34
-0.34
-0.34
-0.34
-0.34
-0.365
-0.365
-0.335
-0.335
-0.34
-0.35
-0.355
-0.365
-0.345
-0.355
-0.345
-0.365
-0.38
-0.35
-0.335
-0.32
-0.32
-0.345
-0.35
-0.36
-0.35
-0.335
-0.335
-0.345
-0.355
-0.35
-0.345
-0.35
-0.345
-0.355
-0.365
-0.365
-0.355
-0.355
-0.35
-0.36
-0.355
-0.365
-0.35
-0.34
-0.34
-0.34
-0.355
-0.345
-0.345
-0.345
-0.355
-0.365
-0.36
-0.355
-0.35
-0.345
-0.35
-0.36
-0.36
-0.36
-0.365
-0.35
-0.355
-0.365
-0.38
-0.385
-0.38
-0.375
-0.38
-0.375
-0.39
-0.395
-0.38
-0.385
-0.385
-0.4
-0.405
-0.375
-0.355
-0.355
-0.35
-0.34
-0.35
-0.345
-0.305
-0.295
-0.285
-0.28
-0.27
-0.235
-0.225
-0.225
-0.215
-0.23
-0.245
-0.225
-0.22
-0.215
-0.22
-0.22
-0.22
-0.215
-0.215
-0.205
-0.21
-0.22
-0.23
-0.23
-0.225
-0.215
-0.225
-0.23
-0.25
-0.235
-0.22
-0.21
-0.21
-0.235
-0.24
-0.235
-0.225
-0.225
-0.22
-0.235
-0.25
-0.25
-0.245
-0.225
-0.23
-0.245
-0.245
-0.245
-0.23
-0.23
-0.225
-0.26
-0.28
-0.26
-0.255
-0.26
-0.26
-0.265
-0.275
-0.27
-0.265
-0.25
-0.255
-0.27
-0.285
-0.28
-0.285
-0.265
-0.275
-0.28
-0.305
-0.29
-0.28
-0.28
-0.265
-0.285
-0.285
-0.265
-0.26
-0.27
-0.28
-0.285
-0.28
-0.275
-0.275
-0.27
-0.26
-0.28
-0.285
-0.285
-0.27
-0.27
-0.28
-0.295
-0.295
-0.295
-0.28
-0.27
-0.265
-0.26
-0.29
-0.27
-0.275
-0.265
-0.255
-0.265
-0.255
-0.23
-0.23
-0.22
-0.215
-0.205
-0.215
-0.2
-0.195
-0.185
-0.185
-0.19
-0.19
-0.19
-0.18
-0.175
-0.17
-0.17
-0.175
-0.17
-0.155
-0.155
-0.16
-0.17
-0.18
-0.175
-0.15
-0.15
-0.145
-0.155
-0.165
-0.14
-0.13
-0.155
-0.2
-0.215
-0.24
-0.245
-0.245
-0.275
-0.29
-0.295
-0.295
-0.3
-0.275
-0.28
-0.28
-0.285
-0.3
-0.3
-0.285
-0.285
-0.29
-0.3
-0.32
-0.315
-0.295
-0.295
-0.29
-0.3
-0.32
-0.295
-0.295
-0.29
-0.31
-0.36
-0.405
-0.435
-0.44
-0.465
-0.49
-0.46
-0.355
-0.2
-0.025
0.205
0.49
0.775
0.97
1.04
0.915
0.53
0.055
-0.31
-0.46
-0.46
-0.405
-0.355
-0.345
-0.355
-0.36
-0.35
-0.34
-0.335
-0.335
-0.345
-0.355
-0.345
-0.33
-0.33
-0.33
-0.335
-0.35
-0.345
-0.34
-0.34
-0.34
-0.335
-0.36
-0.35
-0.35
-0.355
-0.345
-0.365
-0.37
-0.345
-0.355
-0.34
-0.345
-0.34
-0.36
-0.35
-0.335
-0.335
-0.335
-0.345
-0.345
-0.35
-0.35
-0.34
-0.345
-0.355
-0.36
-0.36
-0.345
-0.345
-0.35
-0.36
-0.36
-0.35
-0.345
-0.345
-0.35
-0.34
-0.355
-0.35
-0.335
-0.325
-0.34
-0.335
-0.36
-0.35
-0.35
-0.355
-0.36
-0.37
-0.39
-0.39
-0.38
-0.38
-0.38
-0.385
-0.39
-0.39
-0.375
-0.375
-0.375
-0.39
-0.395
-0.395
-0.375
-0.365
-0.365
-0.365
-0.36
-0.345
-0.335
-0.31
-0.31
-0.29
-0.29
-0.275
-0.25
-0.25
-0.23
-0.22
-0.24
-0.23
-0.21
-0.205
-0.195
-0.21
-0.205
-0.19
-0.18
-0.175
-0.17
-0.18
-0.18
-0.175
-0.175
-0.175
-0.175
-0.185
-0.2
-0.19
-0.195
-0.19
-0.19
-0.2
-0.215
-0.2
-0.205
-0.19
-0.185
-0.215
-0.215
-0.19
-0.195
-0.18
-0.205
-0.205
-0.215
-0.195
-0.2
-0.21
-0.21
-0.23
-0.235
-0.23
-0.22
-0.215
-0.205
-0.22
-0.225
-0.225
-0.225
-0.215
-0.225
-0.225
-0.235
-0.24
-0.23
-0.225
-0.235
-0.235
-0.24
-0.235
-0.225
-0.21
-0.225
-0.225
-0.23
-0.23
-0.21
-0.22
-0.21
-0.23
-0.24
-0.225
-0.225
-0.215
-0.215
-0.23
-0.25
-0.225
-0.22
-0.225
-0.225
-0.225
-0.23
-0.23
-0.22
-0.215
-0.205
-0.21
-0.21
-0.19
-0.175
-0.17
-0.155
-0.17
-0.16
-0.155
-0.14
-0.125
-0.135
-0.13
-0.135
-0.125
-0.11
-0.09
-0.09
-0.075
-0.1
-0.1
-0.11
-0.11
-0.12
-0.12
-0.14
-0.115
-0.1
-0.1
-0.09
-0.085
-0.075
-0.065
-0.085
-0.115
-0.15
-0.155
-0.19
-0.19
-0.205
-0.215
-0.215
-0.24
-0.245
-0.235
-0.235
-0.225
-0.225
-0.245
-0.245
-0.26
-0.25
-0.245
-0.24
-0.255
-0.265
-0.26
-0.24
-0.245
-0.24
-0.245
-0.26
-0.25
-0.245
-0.235
-0.25
-0.235
-0.26
-0.265
-0.28
-0.32
-0.35
-0.38
-0.42
-0.455
-0.45
-0.375
-0.235
-0.09
0.09
0.355
0.66
0.91
1.04
1.025
0.815
0.42
0.0
-0.28
-0.4
-0.415
-0.37
-0.31
-0.285
-0.285
-0.29
-0.305
-0.3
-0.31
-0.295
-0.285
-0.29
-0.305
-0.305
-0.31
-0.29
-0.28
-0.29
-0.295
-0.295
-0.3
-0.28
-0.28
-0.29
-0.305
-0.295
-0.3
-0.305
-0.29
-0.3
-0.3
-0.3
-0.3
-0.285
-0.29
-0.285
-0.295
-0.305
-0.295
-0.295
-0.285
-0.3
-0.295
-0.3
-0.295
-0.29
-0.29
-0.29
-0.3
-0.3
-0.31
-0.29
-0.29
-0.3
-0.305
-0.295
-0.3
-0.28
-0.27
-0.27
-0.28
-0.29
-0.285
-0.27
-0.265
-0.275
-0.285
-0.285
-0.285
-0.28
-0.27
-0.27
-0.285
-0.29
-0.285
-0.285
-0.285
-0.285
-0.29
-0.3
-0.3
-0.29
-0.28
-0.275
-0.285
-0.305
-0.29
-0.28
-0.27
-0.265
-0.28
-0.285
-0.275
-0.25
-0.245
-0.225
-0.23
-0.235
-0.22
-0.21
-0.2
-0.195
-0.185
-0.19
-0.175
-0.155
-0.165
-0.155
-0.17
-0.18
-0.18
-0.175
-0.17
-0.165
-0.175
-0.185
-0.18
-0.185
-0.17
-0.17
-0.185
-0.19
-0.195
-0.18
-0.175
-0.18
-0.185
-0.205
-0.205
-0.175
-0.175
-0.19
-0.175
-0.205
-0.2
-0.195
-0.195
-0.19
-0.19
-0.205
-0.205
-0.185
-0.19
-0.195
-0.205
-0.215
-0.21
-0.205
-0.2
-0.205
-0.215
-0.225
-0.225
-0.22
-0.21
-0.21
-0.21
-0.23
-0.23
-0.23
-0.22
-0.225
-0.215
-0.225
-0.23
-0.225
-0.22
-0.225
-0.23
-0.24
-0.23
-0.235
-0.215
-0.23
-0.245
-0.25
-0.245
-0.245
-0.23
-0.215
-0.235
-0.235
-0.24
-0.235
-0.23
-0.23
-0.24
-0.245
-0.235
-0.235
-0.23
-0.225
-0.24
-0.245
-0.245
-0.235
-0.22
-0.225
-0.235
-0.25
-0.24
-0.23
-0.22
-0.215
-0.22
-0.22
-0.2
-0.185
-0.17
-0.17
-0.17
-0.17
-0.145
-0.14
-0.14
-0.14
-0.145
-0.155
-0.14
-0.125
-0.13
-0.12
-0.115
-0.14
-0.14
-0.115
-0.115
-0.12
-0.12
-0.135
-0.135
-0.135
-0.12
-0.125
-0.11
-0.135
-0.125
-0.105
-0.08
-0.065
-0.1
-0.14
-0.155
-0.165
-0.18
-0.19
-0.22
-0.235
-0.245
-0.26
-0.25
-0.25
-0.255
-0.265
-0.265
-0.26
-0.255
-0.26
-0.27
-0.28
-0.285
-0.265
-0.26
-0.265
-0.275
-0.28
-0.285
-0.265
-0.26
-0.265
-0.275
-0.295
-0.295
-0.295
-0.315
-0.355
-0.39
-0.425
-0.435
-0.465
-0.495
-0.485
-0.42
-0.33
-0.2
-0.045
0.15
0.41
0.645
0.83
0.945
0.94
0.78
0.455
0.07
-0.26
-0.445
-0.495
-0.45
-0.39
-0.365
-0.36
-0.365
-0.35
-0.345
-0.35
-0.355
-0.36
-0.35
-0.365
-0.355
-0.35
-0.35
-0.37
-0.36
-0.355
-0.345
-0.34
-0.35
-0.355
-0.35
-0.345
-0.34
-0.34
-0.345
-0.355
-0.35
-0.35
-0.345
-0.36
-0.355
-0.37
-0.38
-0.37
-0.36
-0.35
-0.365
-0.37
-0.365
-0.36
-0.345
-0.36
-0.38
-0.37
-0.37
-0.36
-0.345
-0.35
-0.35
-0.37
-0.36
-0.34
-0.34
-0.35
-0.36
-0.37
-0.375
-0.365
-0.345
-0.36
-0.355
-0.36
-0.36
-0.36
-0.35
-0.35
-0.355
-0.355
-0.36
-0.35
-0.345
-0.345
-0.36
-0.375
-0.37
-0.365
-0.36
-0.355
-0.365
-0.365
-0.36
-0.345
-0.355
-0.35
-0.365
-0.375
-0.38
-0.375
-0.38
-0.365
-0.37
-0.375
-0.38
-0.365
-0.355
-0.36
-0.36
-0.37
-0.37
-0.345
-0.325
-0.315
-0.31
-0.3
-0.305
-0.28
-0.275
-0.265
-0.255
-0.265
-0.25
-0.245
-0.235
-0.235
-0.245
-0.25
-0.255
-0.245
-0.235
-0.235
-0.24
-0.245
-0.245
-0.24
-0.23
-0.245
-0.255
-0.26
-0.255
-0.235
-0.225
-0.23
-0.245
-0.265
-0.25
-0.26
-0.255
-0.25
-0.26
-0.26
-0.27
-0.26
-0.255
-0.245
-0.265
-0.28
-0.27
-0.275
-0.265
-0.255
-0.29
-0.29
-0.29
-0.28
-0.28
-0.285
-0.28
-0.295
-0.295
-0.285
-0.28
-0.275
-0.28
-0.285
-0.285
-0.31
-0.285
-0.295
-0.31
-0.315
-0.295
-0.295
-0.295
-0.29
-0.3
-0.315
-0.315
-0.305
-0.31
-0.315
-0.32
-0.325
-0.32
-0.315
-0.31
-0.305
-0.32
-0.33
-0.33
-0.32
-0.31
-0.305
-0.31
-0.315
-0.32
-0.31
-0.305
-0.305
-0.31
-0.325
-0.315
-0.31
-0.305
-0.315
-0.31
-0.33
-0.32
-0.315
-0.315
-0.32
-0.34
-0.33
-0.32
-0.32
-0.3
-0.32
-0.33
-0.33
-0.32
-0.31
-0.295
-0.305
-0.3
-0.295
-0.28
-0.27
-0.26
-0.26
-0.255
-0.255
-0.26
-0.24
-0.235
-0.235
-0.235
-0.24
-0.225
-0.205
-0.185
-0.18
-0.19
-0.19
-0.205
-0.215
-0.2
-0.21
-0.215
-0.21
-0.21
-0.2
-0.2
-0.2
-0.205
-0.195
-0.2
-0.21
-0.23
-0.25
-0.275
-0.31
-0.315
-0.32
-0.31
-0.315
-0.325
-0.34
-0.345
-0.335
-0.335
-0.355
-0.365
-0.365
-0.375
-0.38
-0.365
-0.36
-0.37
-0.38
-0.375
-0.365
-0.365
-0.38
-0.38
-0.395
-0.375
-0.365
-0.355
-0.35
-0.365
-0.38
-0.38
-0.385
-0.415
-0.46
-0.495
-0.51
-0.51
-0.54
-0.57
-0.595
-0.575
-0.49
-0.36
-0.215
-0.065
0.17
0.42
0.65
0.82
0.88
0.775
0.47
0.09
-0.24
-0.455
-0.54
-0.54
-0.505
-0.47
-0.465
-0.46
-0.455
-0.445
-0.44
-0.445
-0.46
-0.445
-0.43
-0.43
-0.415
-0.415
-0.42
-0.43
-0.42
-0.405
-0.42
-0.425
-0.445
-0.455
-0.45
-0.44
-0.445
-0.455
-0.47
-0.455
-0.45
-0.44
-0.445
-0.45
-0.465
-0.455
-0.44
-0.43
-0.43
-0.445
-0.455
-0.45
-0.43
-0.425
-0.43
-0.44
-0.455
-0.455
-0.445
-0.44
-0.43
-0.445
-0.45
-0.45
-0.445
-0.44
-0.455
-0.475
-0.47
-0.465
-0.445
-0.435
-0.435
-0.435
-0.445
-0.455
-0.44
-0.44
-0.44
-0.45
-0.47
-0.455
-0.47
-0.44
-0.45
-0.45
-0.455
-0.45
-0.46
-0.45
-0.455
-0.475
-0.48
-0.485
-0.485
-0.48
-0.485
-0.495
-0.5
-0.505
-0.5
-0.475
-0.495
-0.495
-0.505
-0.495
-0.475
-0.465
-0.455
-0.445
-0.45
-0.435
-0.43
-0.4
-0.395
-0.395
-0.395
-0.4
-0.38
-0.375
-0.365
-0.37
-0.37
-0.335
-0.34
-0.325
-0.335
-0.34
-0.345
-0.34
-0.32
-0.31
-0.315
-0.33
-0.34
-0.335
-0.31
-0.31
-0.31
-0.325
-0.33
-0.33
-0.325
-0.33
-0.325
-0.325
-0.34
-0.345
-0.34
-0.33
-0.335
-0.34
-0.345
-0.35
-0.34
-0.325
-0.33
-0.34
-0.35
-0.35
-0.34
-0.34
-0.335
-0.345
-0.345
-0.345
-0.34
-0.335
-0.33
-0.35
-0.36
-0.355
-0.345
-0.345
-0.35
-0.365
-0.37
-0.365
-0.37
-0.36
-0.355
-0.365
-0.38
-0.38
-0.37
-0.37
-0.37
-0.375
-0.375
-0.37
-0.37
-0.355
-0.345
-0.355
-0.365
-0.365
-0.36
-0.345
-0.36
-0.36
-0.36
-0.365
-0.355
-0.34
-0.355
-0.37
-0.385
-0.38
-0.365
-0.355
-0.355
-0.355
-0.365
-0.37
-0.36
-0.35
-0.355
-0.36
-0.375
-0.36
-0.355
-0.355
-0.355
-0.35
-0.355
-0.345
-0.34
-0.335
-0.33
-0.34
-0.345
-0.33
-0.32
-0.305
-0.295
-0.3
-0.295
-0.29
-0.275
-0.26
-0.26
-0.26
-0.255
-0.25
-0.23
-0.22
-0.23
-0.225
-0.235
-0.235
-0.23
-0.23
-0.23
-0.23
-0.24
-0.24
-0.23
-0.2
-0.195
-0.21
-0.225
-0.25
-0.28
-0.28
-0.285
-0.295
-0.3
-0.31
-0.3
-0.305
-0.32
-0.335
-0.365
-0.36
-0.375
-0.365
-0.355
-0.375
-0.375
-0.375
-0.375
-0.365
-0.38
-0.375
-0.38
-0.38
-0.365
-0.365
-0.36
-0.37
-0.39
-0.39
-0.39
-0.375
-0.38
-0.39
-0.4
-0.425
-0.46
-0.48
-0.5
-0.52
-0.565
-0.6
-0.58
-0.49
-0.36
-0.225
-0.085
0.145
0.445
0.705
0.88
0.925
0.815
0.53
0.165
-0.18
-0.44
-0.565
-0.6
-0.58
-0.52
-0.465
-0.435
-0.435
-0.455
-0.45
-0.425
-0.43
-0.425
-0.42
-0.43
-0.435
-0.43
-0.415
-0.42
-0.425
-0.44
-0.435
-0.43
-0.43
-0.42
-0.425
-0.435
-0.43
-0.42
-0.41
-0.41
-0.425
-0.435
-0.435
-0.415
-0.405
-0.405
-0.41
-0.425
-0.43
-0.42
-0.405
-0.41
-0.425
-0.43
-0.43
-0.42
-0.41
-0.415
-0.415
-0.43
-0.425
-0.42
-0.41
-0.415
-0.42
-0.425
-0.425
-0.415
-0.41
-0.41
-0.415
-0.425
-0.43
-0.415
-0.405
-0.405
-0.41
-0.425
-0.4
-0.405
-0.39
-0.395
-0.405
-0.415
-0.415
-0.415
-0.405
-0.405
-0.43
-0.43
-0.425
-0.43
-0.415
-0.425
-0.42
-0.43
-0.44
-0.435
-0.425
-0.43
-0.435
-0.445
-0.435
-0.425
-0.41
-0.405
-0.405
-0.405
-0.4
-0.385
-0.375
-0.36
-0.355
-0.36
-0.345
-0.33
-0.32
-0.315
-0.315
-0.32
-0.31
-0.3
-0.29
-0.305
-0.3
-0.305
-0.285
-0.285
-0.28
-0.285
-0.275
-0.305
-0.3
-0.29
-0.27
-0.27
-0.285
-0.29
-0.29
-0.29
-0.285
-0.295
-0.29
-0.3
-0.3
-0.295
-0.285
-0.29
-0.3
-0.31
-0.31
-0.3
-0.295
-0.305
-0.31
-0.315
-0.315
-0.305
-0.295
-0.305
-0.305
-0.305
-0.315
-0.305
-0.305
-0.3
-0.31
-0.315
-0.315
-0.31
-0.315
-0.315
-0.33
-0.33
-0.345
-0.325
-0.315
-0.315
-0.33
-0.34
-0.34
-0.335
-0.34
-0.32
-0.345
-0.34
-0.35
-0.34
-0.32
-0.33
-0.335
-0.35
-0.34
-0.335
-0.325
-0.325
-0.34
-0.335
-0.34
-0.335
-0.33
-0.33
-0.335
-0.34
-0.345
-0.335
-0.325
-0.32
-0.315
-0.33
-0.33
-0.325
-0.315
-0.32
-0.315
-0.32
-0.315
-0.3
-0.285
-0.275
-0.275
-0.265
-0.265
-0.25
-0.24
-0.245
-0.245
-0.245
-0.23
-0.21
-0.2
-0.195
-0.2
-0.21
-0.22
-0.21
-0.215
-0.21
-0.215
-0.23
-0.225
-0.215
-0.19
-0.18
-0.165
-0.19
-0.21
-0.25
-0.255
-0.265
-0.285
-0.315
-0.325
-0.33
-0.32
-0.335
-0.345
-0.36
-0.36
-0.375
-0.365
-0.37
-0.375
-0.38
-0.38
-0.38
-0.365
-0.365
-0.375
-0.39
-0.39
-0.385
-0.365
-0.385
-0.4
-0.41
-0.42
-0.44
-0.46
-0.485
-0.485
-0.495
-0.535
-0.565
-0.605
-0.595
-0.55
-0.47
-0.35
-0.185
0.015
0.31
0.6
0.785
0.845
0.73
0.415
-0.015
-0.375
-0.55
-0.565
-0.5
-0.44
-0.42
-0.415
-0.425
-0.415
-0.405
-0.395
-0.4
-0.4
-0.425
-0.415
-0.41
-0.405
-0.405
-0.415
-0.425
-0.41
-0.405
-0.405
-0.41
-0.425
-0.425
-0.425
-0.41
-0.41
-0.405
-0.42
-0.43
-0.435
-0.415
-0.4
-0.405
-0.415
-0.42
-0.41
-0.4
-0.395
-0.4
-0.42
-0.435
-0.425
-0.425
-0.41
-0.41
-0.415
-0.42
-0.42
-0.41
-0.41
-0.415
-0.42
-0.43
-0.43
-0.41
-0.41
-0.4
-0.42
-0.42
-0.405
-0.405
-0.395
-0.385
-0.395
-0.405
-0.4
-0.405
-0.395
-0.4
-0.42
-0.43
-0.42
-0.42
-0.395
-0.4
-0.41
-0.42
-0.425
-0.425
-0.415
-0.42
-0.42
-0.44
-0.44
-0.41
-0.405
-0.405
-0.41
-0.42
-0.415
-0.4
-0.385
-0.38
-0.38
-0.375
-0.37
-0.36
-0.33
-0.33
-0.325
-0.33
-0.33
-0.32
-0.3
-0.31
-0.31
-0.31
-0.305
-0.29
-0.28
-0.285
-0.285
-0.285
-0.28
-0.27
-0.265
-0.27
-0.275
-0.295
-0.305
-0.285
-0.28
-0.305
-0.3
-0.315
-0.3
-0.305
-0.295
-0.31
-0.315
-0.315
-0.32
-0.32
-0.32
-0.31
-0.315
-0.325
-0.32
-0.31
-0.3
-0.305
-0.31
-0.32
-0.32
-0.31
-0.305
-0.31
-0.32
-0.33
-0.325
-0.32
-0.32
-0.315
-0.325
-0.335
-0.335
-0.325
-0.32
-0.32
-0.33
-0.34
-0.34
-0.33
-0.315
-0.335
-0.335
-0.34
-0.34
-0.325
-0.33
-0.325
-0.325
-0.335
-0.345
-0.335
-0.32
-0.33
-0.33
-0.35
-0.35
-0.34
-0.335
-0.335
-0.34
-0.345
-0.345
-0.34
-0.325
-0.325
-0.325
-0.345
-0.33
-0.33
-0.31
-0.315
-0.33
-0.335
-0.345
-0.325
-0.31
-0.31
-0.31
-0.34
-0.335
-0.325
-0.3
-0.295
-0.29
-0.28
-0.27
-0.25
-0.23
-0.24
-0.24
-0.245
-0.24
-0.22
-0.195
-0.2
-0.215
-0.22
-0.225
-0.215
-0.23
-0.225
-0.23
-0.235
-0.24
-0.22
-0.22
-0.205
-0.2
-0.225
-0.235
-0.255
-0.27
-0.285
-0.305
-0.32
-0.33
-0.345
-0.33
-0.34
-0.36
-0.365
-0.375
-0.36
-0.345
-0.355
-0.36
-0.375
-0.37
-0.385
-0.37
-0.38
-0.395
-0.395
-0.385
-0.39
-0.37
-0.375
-0.38
-0.38
-0.38
-0.375
-0.37
-0.405
-0.435
-0.475
-0.495
-0.5
-0.49
-0.555
-0.595
-0.58
-0.495
-0.365
-0.2
-0.02
0.24
0.515
0.745
0.855
0.81
0.555
0.145
-0.24
-0.48
-0.57
-0.55
-0.495
-0.45
-0.43
-0.44
-0.43
-0.42
-0.41
-0.44
-0.43
-0.44
-0.455
-0.45
-0.445
-0.425
-0.44
-0.445
-0.44
-0.45
-0.445
-0.455
-0.455
-0.465
-0.445
-0.435
-0.45
-0.455
-0.455
-0.445
-0.425
-0.42
-0.425
-0.43
-0.435
-0.45
-0.44
-0.435
-0.44
-0.45
-0.47
-0.455
-0.445
-0.435
-0.44
-0.45
-0.45
-0.45
-0.44
-0.435
-0.435
-0.445
-0.465
-0.46
-0.45
-0.435
-0.44
-0.44
-0.445
-0.45
-0.43
-0.425
-0.43
-0.425
-0.435
-0.445
-0.43
-0.435
-0.45
-0.45
-0.45
-0.455
-0.44
-0.44
-0.45
-0.46
-0.46
-0.465
-0.465
-0.45
-0.46
-0.465
-0.485
-0.48
-0.465
-0.465
-0.465
-0.48
-0.485
-0.49
-0.48
-0.46
-0.445
-0.45
-0.46
-0.46
-0.435
-0.425
-0.425
-0.415
-0.405
-0.39
-0.365
-0.355
-0.355
-0.345
-0.335
-0.335
-0.33
-0.315
-0.305
-0.295
-0.315
-0.32
-0.32
-0.305
-0.31
-0.315
-0.315
-0.325
-0.305
-0.305
-0.305
-0.305
-0.315
-0.32
-0.32
-0.295
-0.3
-0.31
-0.32
-0.315
-0.325
-0.3
-0.305
-0.315
-0.32
-0.33
-0.335
-0.31
-0.32
-0.325
-0.325
-0.34
-0.33
-0.32
-0.335
-0.34
-0.34
-0.35
-0.34
-0.32
-0.325
-0.34
-0.35
-0.345
-0.35
-0.335
-0.345
-0.345
-0.37
-0.37
-0.365
-0.34
-0.355
-0.345
-0.35
-0.35
-0.345
-0.335
-0.35
-0.355
-0.365
-0.365
-0.36
-0.345
-0.355
-0.355
-0.355
-0.36
-0.355
-0.34
-0.35
-0.355
-0.365
-0.36
-0.345
-0.345
-0.345
-0.35
-0.36
-0.36
-0.35
-0.34
-0.34
-0.355
-0.37
-0.375
-0.355
-0.35
-0.345
-0.36
-0.355
-0.36
-0.35
-0.32
-0.31
-0.31
-0.315
-0.315
-0.295
-0.275
-0.295
-0.295
-0.29
-0.3
-0.275
-0.255
-0.24
-0.24
-0.24
-0.245
-0.23
-0.23
-0.235
-0.25
-0.26
-0.265
-0.255
-0.26
-0.28
-0.285
-0.26
-0.25
-0.255
-0.27
-0.305
-0.33
-0.345
-0.36
-0.365
-0.35
-0.355
-0.355
-0.365
-0.38
-0.365
-0.37
-0.38
-0.38
-0.395
-0.395
-0.38
-0.37
-0.385
-0.375
-0.385
-0.4
-0.385
-0.365
-0.37
-0.385
-0.385
-0.405
-0.44
-0.465
-0.49
-0.52
-0.56
-0.62
-0.635
-0.595
-0.54
-0.455
-0.38
-0.32
-0.25
-0.135
0.015
0.245
0.51
0.745
0.89
0.9
0.67
0.265
-0.165
-0.45
-0.55
-0.535
-0.47
-0.435
-0.415
-0.435
-0.43
-0.41
-0.415
-0.41
-0.42
-0.43
-0.415
-0.405
-0.41
-0.415
-0.425
-0.41
-0.4
-0.4
-0.4
-0.415
-0.42
-0.425
-0.42
-0.41
-0.415
-0.425
-0.425
-0.435
-0.42
-0.42
-0.42
-0.425
-0.435
-0.435
-0.43
-0.41
-0.415
-0.42
-0.43
-0.435
-0.415
-0.41
-0.415
-0.42
-0.425
-0.435
-0.42
-0.425
-0.435
-0.43
-0.43
-0.44
-0.42
-0.41
-0.425
-0.425
-0.435
-0.43
-0.425
-0.415
-0.41
-0.425
-0.42
-0.425
-0.415
-0.395
-0.405
-0.415
-0.43
-0.425
-0.42
-0.41
-0.42
-0.43
-0.445
-0.455
-0.445
-0.44
-0.45
-0.455
-0.45
-0.45
-0.43
-0.43
-0.44
-0.45
-0.455
-0.45
-0.425
-0.405
-0.4
-0.395
-0.38
-0.375
-0.35
-0.33
-0.33
-0.33
-0.34
-0.325
-0.32
-0.315
-0.295
-0.3
-0.305
-0.305
-0.29
-0.285
-0.29
-0.295
-0.31
-0.3
-0.29
-0.29
-0.29
-0.31
-0.3
-0.295
-0.28
-0.28
-0.285
-0.275
-0.295
-0.3
-0.285
-0.29
-0.295
-0.295
-0.31
-0.31
-0.3
-0.29
-0.295
-0.3
-0.305
-0.31
-0.305
-0.29
-0.3
-0.31
-0.315
-0.325
-0.325
-0.3
-0.295
-0.305
-0.305
-0.31
-0.3
-0.295
-0.3
-0.31
-0.32
-0.32
-0.31
-0.3
-0.31
-0.32
-0.32
-0.32
-0.315
-0.315
-0.32
-0.325
-0.335
-0.34
-0.325
-0.33
-0.325
-0.32
-0.335
-0.325
-0.32
-0.305
-0.32
-0.325
-0.325
-0.33
-0.315
-0.31
-0.305
-0.32
-0.33
-0.32
-0.325
-0.31
-0.32
