Lead II
-0.345
-0.3
-0.27
-0.245
-0.225
-0.195
-0.155
-0.105
-0.055
-0.015
0.03
0.05
0.07
0.095
0.13
0.155
0.195
0.24
0.265
0.29
0.3
0.3
0.31
0.31
0.305
0.31
0.32
0.31
0.305
0.295
0.28
0.27
0.26
0.245
0.235
0.22
0.185
0.14
0.1
0.07
0.035
0.035
0.035
0.02
-0.01
-0.05
-0.075
-0.105
-0.13
-0.155
-0.17
-0.2
-0.225
-0.235
-0.25
-0.26
-0.27
-0.295
-0.32
-0.345
-0.38
-0.42
-0.455
-0.475
-0.485
-0.49
-0.48
-0.485
-0.47
-0.47
-0.465
-0.465
-0.48
-0.45
-0.44
-0.415
-0.395
-0.365
-0.33
-0.29
-0.255
-0.225
-0.185
-0.16
-0.15
-0.14
-0.14
-0.135
-0.125
-0.12
-0.125
-0.145
-0.195
-0.25
-0.325
-0.4
-0.445
-0.48
-0.51
-0.515
-0.53
-0.52
-0.515
-0.52
-0.53
-0.5
-0.5
-0.485
-0.51
-0.53
-0.525
-0.54
-0.53
-0.52
-0.51
-0.505
-0.5
-0.5
-0.51
-0.51
-0.525
-0.54
-0.57
-0.57
-0.545
-0.46
-0.265
-0.015
0.285
0.65
1.05
1.455
1.78
1.96
1.91
1.655
1.24
0.74
0.21
-0.25
-0.605
-0.895
-1.125
-1.275
-1.325
-1.3
-1.195
-1.07
-0.945
-0.855
-0.81
-0.805
-0.82
-0.85
-0.885
-0.91
-0.93
-0.94
-0.93
-0.925
-0.925
-0.93
-0.935
-0.95
-0.955
-0.96
-0.95
-0.94
-0.95
-0.935
-0.96
-0.975
-0.985
-0.99
-0.98
-0.96
-0.94
-0.925
-0.93
-0.91
-0.89
-0.865
-0.855
-0.835
-0.825
-0.815
-0.785
-0.755
-0.705
-0.66
-0.63
-0.6
-0.575
-0.555
-0.52
-0.48
-0.445
-0.39
-0.34
-0.305
-0.265
-0.235
-0.19
-0.145
-0.105
-0.065
-0.03
0.0
0.03
0.055
0.095
0.135
0.17
0.195
0.215
0.21
0.205
0.205
0.2
0.21
0.215
0.22
0.21
0.18
0.17
0.155
0.135
0.135
0.115
0.09
0.055
0.02
-0.025
-0.045
-0.07
-0.075
-0.07
-0.085
-0.12
-0.165
-0.205
-0.245
-0.26
-0.275
-0.31
-0.325
-0.34
-0.36
-0.38
-0.39
-0.395
-0.395
-0.405
-0.42
-0.435
-0.455
-0.46
-0.45
-0.44
-0.44
-0.435
-0.415
-0.41
-0.385
-0.355
-0.315
-0.275
-0.24
-0.225
-0.195
-0.18
-0.17
-0.15
-0.135
-0.11
-0.095
-0.1
-0.13
-0.19
-0.25
-0.315
-0.375
-0.43
-0.465
-0.49
-0.51
-0.525
-0.535
-0.545
-0.555
-0.54
-0.55
-0.545
-0.55
-0.555
-0.56
-0.555
-0.555
-0.55
-0.55
-0.545
-0.545
-0.565
-0.56
-0.565
-0.565
-0.54
-0.54
-0.54
-0.56
-0.57
-0.59
-0.585
-0.5
-0.35
-0.11
0.185
0.54
0.95
1.36
1.74
1.995
2.06
1.92
1.61
1.21
0.765
0.31
-0.125
-0.515
-0.825
-1.09
-1.235
-1.285
-1.235
-1.125
-0.995
-0.87
-0.8
-0.775
-0.78
-0.835
-0.885
-0.92
-0.945
-0.93
-0.91
-0.895
-0.895
-0.9
-0.93
-0.965
-0.98
-0.985
-0.97
-0.97
-0.945
-0.96
-0.97
-0.975
-0.99
-1.0
-0.995
-1.0
-0.995
-0.985
-0.99
-0.99
-0.965
-0.97
-0.94
-0.925
-0.895
-0.895
-0.885
-0.875
-0.865
-0.83
-0.795
-0.76
-0.715
-0.68
-0.655
-0.615
-0.605
-0.58
-0.545
-0.5
-0.455
-0.405
-0.37
-0.325
-0.28
-0.235
-0.195
-0.135
-0.11
-0.065
-0.025
0.0
0.015
0.055
0.105
0.135
0.185
0.215
0.235
0.25
0.25
0.25
0.255
0.265
0.275
0.28
0.27
0.265
0.25
0.25
0.245
0.24
0.235
0.21
0.18
0.145
0.11
0.085
0.055
0.045
0.04
0.025
0.0
-0.04
-0.07
-0.105
-0.135
-0.155
-0.175
-0.2
-0.21
-0.21
-0.25
-0.28
-0.31
-0.33
-0.345
-0.34
-0.355
-0.37
-0.385
-0.41
-0.42
-0.41
-0.4
-0.39
-0.395
-0.4
-0.395
-0.405
-0.39
-0.37
-0.33
-0.275
-0.225
-0.19
-0.15
-0.125
-0.11
-0.09
-0.08
-0.085
-0.085
-0.1
-0.14
-0.16
-0.19
-0.225
-0.3
-0.385
-0.445
-0.51
-0.54
-0.55
-0.54
-0.53
-0.515
-0.515
-0.515
-0.52
-0.53
-0.54
-0.54
-0.53
-0.515
-0.51
-0.52
-0.52
-0.525
-0.51
-0.5
-0.5
-0.485
-0.485
-0.51
-0.52
-0.535
-0.5
-0.415
-0.255
-0.03
0.235
0.545
0.88
1.24
1.6
1.87
1.965
1.83
1.505
1.065
0.555
0.055
-0.36
-0.695
-0.94
-1.105
-1.2
-1.215
-1.18
-1.085
-0.96
-0.85
-0.77
-0.74
-0.755
-0.78
-0.795
-0.815
-0.82
-0.82
-0.82
-0.835
-0.85
-0.87
-0.885
-0.905
-0.89
-0.885
-0.87
-0.875
-0.885
-0.9
-0.91
-0.92
-0.915
-0.91
-0.905
-0.91
-0.905
-0.91
-0.915
-0.895
-0.875
-0.835
-0.815
-0.78
-0.765
-0.765
-0.755
-0.755
-0.73
-0.69
-0.655
-0.615
-0.585
-0.565
-0.535
-0.495
-0.46
-0.41
-0.38
-0.34
-0.305
-0.29
-0.25
-0.21
-0.155
-0.105
-0.055
-0.015
0.015
0.045
0.06
0.09
0.125
0.17
0.2
0.235
0.255
0.27
0.265
0.26
0.26
0.27
0.28
0.285
0.285
0.275
0.26
0.245
0.245
0.23
0.235
0.225
0.2
0.165
0.14
0.105
0.065
0.065
0.04
0.03
-0.01
-0.04
-0.07
-0.09
-0.11
-0.13
-0.155
-0.185
-0.215
-0.25
-0.3
-0.315
-0.32
-0.33
-0.34
-0.365
-0.39
-0.42
-0.45
-0.48
-0.495
-0.485
-0.485
-0.48
-0.47
-0.47
-0.48
-0.495
-0.5
-0.5
-0.485
-0.475
-0.45
-0.41
-0.39
-0.36
-0.32
-0.29
-0.25
-0.23
-0.22
-0.2
-0.19
-0.18
-0.165
-0.165
-0.15
-0.155
-0.165
-0.21
-0.265
-0.335
-0.405
-0.455
-0.48
-0.505
-0.51
-0.52
-0.53
-0.54
-0.54
-0.53
-0.525
-0.535
-0.53
-0.535
-0.565
-0.555
-0.555
-0.555
-0.535
-0.525
-0.505
-0.49
-0.49
-0.51
-0.53
-0.55
-0.56
-0.575
-0.59
-0.605
-0.605
-0.57
-0.48
-0.31
-0.055
0.24
0.57
0.91
1.255
1.58
1.84
1.975
1.93
1.74
1.405
0.99
0.515
0.06
-0.36
-0.735
-1.025
-1.24
-1.36
-1.355
-1.27
-1.135
-1.005
-0.91
-0.85
-0.82
-0.825
-0.855
-0.875
-0.915
-0.935
-0.955
-0.96
-0.945
-0.93
-0.925
-0.93
-0.955
-0.965
-0.975
-0.98
-0.985
-0.98
-0.965
-0.965
-0.965
-0.965
-0.98
-0.98
-0.99
-0.98
-0.965
-0.955
-0.945
-0.94
-0.93
-0.93
-0.925
-0.895
-0.88
-0.835
-0.82
-0.8
-0.79
-0.775
-0.765
-0.745
-0.71
-0.67
-0.63
-0.585
-0.545
-0.525
-0.485
-0.45
-0.435
-0.405
-0.38
-0.345
-0.3
-0.27
-0.225
-0.17
-0.125
-0.075
-0.04
-0.015
-0.005
0.015
0.02
0.06
0.095
0.135
0.16
0.175
0.16
0.155
0.155
0.155
0.15
0.155
0.16
0.145
0.13
0.11
0.09
0.085
0.065
0.06
0.04
0.025
-0.01
-0.05
-0.095
-0.115
-0.135
-0.145
-0.16
-0.175
-0.205
-0.23
-0.28
-0.315
-0.34
-0.36
-0.385
-0.41
-0.425
-0.445
-0.465
-0.455
-0.455
-0.45
-0.465
-0.46
-0.48
-0.505
-0.505
-0.51
-0.5
-0.49
-0.46
-0.445
-0.415
-0.39
-0.36
-0.33
-0.29
-0.26
-0.24
-0.225
-0.21
-0.18
-0.15
-0.13
-0.125
-0.14
-0.18
-0.25
-0.32
-0.395
-0.46
-0.5
-0.53
-0.545
-0.57
-0.575
-0.595
-0.6
-0.585
-0.585
-0.575
-0.59
-0.6
-0.61
-0.61
-0.61
-0.6
-0.58
-0.57
-0.575
-0.58
-0.595
-0.61
-0.605
-0.6
-0.615
-0.635
-0.66
-0.675
-0.665
-0.585
-0.45
-0.215
0.08
0.425
0.82
1.245
1.625
1.885
1.94
1.775
1.46
1.05
0.6
0.15
-0.225
-0.57
-0.865
-1.115
-1.285
-1.365
-1.33
-1.225
-1.08
-0.96
-0.86
-0.83
-0.845
-0.89
-0.935
-0.985
-1.015
-1.01
-1.005
-1.0
-0.98
-0.98
-0.985
-1.01
-1.035
-1.045
-1.05
-1.045
-1.06
-1.065
-1.06
-1.065
-1.075
-1.07
-1.07
-1.065
-1.065
-1.065
-1.075
-1.075
-1.075
-1.06
-1.04
-1.02
-0.99
-0.97
-0.955
-0.945
-0.94
-0.93
-0.9
-0.865
-0.84
-0.8
-0.775
-0.755
-0.72
-0.69
-0.65
-0.61
-0.575
-0.525
-0.5
-0.465
-0.425
-0.375
-0.32
-0.27
-0.21
-0.17
-0.145
-0.125
-0.1
-0.07
-0.045
-0.005
0.03
0.06
0.075
0.085
0.11
0.13
0.135
0.15
0.145
0.145
0.13
0.105
0.09
0.085
0.09
0.09
0.085
0.06
0.045
0.015
-0.03
-0.055
-0.07
-0.095
-0.115
-0.13
-0.145
-0.175
-0.2
-0.215
-0.235
-0.255
-0.28
-0.305
-0.34
-0.355
-0.385
-0.405
-0.435
-0.435
-0.42
-0.425
-0.43
-0.435
-0.46
-0.485
-0.505
-0.51
-0.515
-0.515
-0.51
-0.51
-0.48
-0.475
-0.45
-0.41
-0.39
-0.36
-0.32
-0.305
-0.305
-0.295
-0.28
-0.26
-0.22
-0.2
-0.19
-0.22
-0.24
-0.3
-0.36
-0.425
-0.485
-0.52
-0.55
-0.575
-0.605
-0.62
-0.63
-0.64
-0.64
-0.625
-0.625
-0.64
-0.645
-0.65
-0.645
-0.63
-0.6
-0.59
-0.595
-0.59
-0.6
-0.605
-0.615
-0.62
-0.615
-0.625
-0.62
-0.645
-0.65
-0.68
-0.675
-0.625
-0.505
-0.325
-0.085
0.175
0.51
0.89
1.305
1.675
1.92
1.99
1.84
1.53
1.11
0.645
0.19
-0.215
-0.55
-0.83
-1.045
-1.19
-1.255
-1.235
-1.145
-1.03
-0.91
-0.825
-0.795
-0.815
-0.86
-0.9
-0.935
-0.955
-0.945
-0.935
-0.92
-0.925
-0.945
-0.97
-0.995
-1.02
-1.03
-1.02
-1.0
-1.0
-1.01
-1.02
-1.02
-1.035
-1.04
-1.04
-1.04
-1.05
-1.055
-1.065
-1.06
-1.06
-1.03
-1.01
-0.995
-0.975
-0.97
-0.97
-0.975
-0.95
-0.92
-0.89
-0.85
-0.81
-0.78
-0.745
-0.715
-0.685
-0.65
-0.61
-0.575
-0.525
-0.485
-0.445
-0.4
-0.345
-0.295
-0.245
-0.19
-0.145
-0.105
-0.085
-0.055
-0.045
-0.015
0.025
0.07
0.1
0.14
0.17
0.185
0.19
0.215
0.23
0.235
0.24
0.23
0.225
0.195
0.18
0.19
0.185
0.195
0.175
0.165
0.135
0.09
0.06
0.035
0.035
0.015
0.015
-0.025
-0.05
-0.065
-0.1
-0.125
-0.155
-0.18
-0.21
-0.24
-0.26
-0.285
-0.295
-0.3
-0.31
-0.31
-0.325
-0.365
-0.385
-0.415
-0.43
-0.44
-0.435
-0.43
-0.425
-0.43
-0.435
-0.415
-0.395
-0.36
-0.335
-0.31
-0.295
-0.27
-0.255
-0.24
-0.225
-0.19
-0.165
-0.135
-0.12
-0.145
-0.16
-0.21
-0.25
-0.305
-0.34
-0.4
-0.445
-0.48
-0.53
-0.555
-0.565
-0.575
-0.565
-0.565
-0.565
-0.57
-0.575
-0.58
-0.58
-0.575
-0.57
-0.55
-0.545
-0.56
-0.56
-0.575
-0.58
-0.58
-0.57
-0.555
-0.54
-0.535
-0.535
-0.56
-0.595
-0.61
-0.63
-0.6
-0.525
-0.38
-0.16
0.095
0.43
0.805
1.2
1.58
1.88
2.04
2.03
1.85
1.51
1.135
0.745
0.35
-0.04
-0.375
-0.69
-0.945
-1.135
-1.21
-1.19
-1.085
-0.94
-0.825
-0.75
-0.74
-0.77
-0.815
-0.83
-0.865
-0.87
-0.865
-0.865
-0.87
-0.885
-0.915
-0.925
-0.935
-0.93
-0.935
-0.91
-0.92
-0.935
-0.96
-0.97
-0.995
-1.0
-1.005
-1.005
-0.995
-0.975
-0.97
-0.97
-0.97
-0.985
-0.98
-0.98
-0.965
-0.96
-0.95
-0.94
-0.915
-0.895
-0.855
-0.82
-0.79
-0.76
-0.755
-0.725
-0.705
-0.675
-0.64
-0.59
-0.54
-0.5
-0.445
-0.42
-0.37
-0.32
-0.27
-0.23
-0.18
-0.135
-0.11
-0.07
-0.035
0.0
0.05
0.095
0.155
0.2
0.22
0.255
0.24
0.245
0.26
0.275
0.295
0.3
0.34
0.345
0.35
0.34
0.32
0.315
0.29
0.285
0.26
0.245
0.24
0.22
0.2
0.185
0.16
0.14
0.125
0.095
0.055
0.03
0.0
-0.01
0.0
-0.005
-0.005
-0.02
-0.05
-0.08
-0.125
-0.165
-0.205
-0.235
-0.235
-0.25
-0.27
-0.305
-0.32
-0.35
-0.365
-0.38
-0.38
-0.37
-0.365
-0.365
-0.38
-0.4
-0.41
-0.425
-0.405
-0.37
-0.34
-0.305
-0.275
-0.255
-0.225
-0.2
-0.165
-0.13
-0.1
-0.08
-0.06
-0.06
-0.065
-0.075
-0.09
-0.105
-0.155
-0.205
-0.27
-0.325
-0.385
-0.425
-0.445
-0.445
-0.45
-0.45
-0.455
-0.46
-0.48
-0.49
-0.495
-0.5
-0.47
-0.465
-0.455
-0.455
-0.46
-0.46
-0.465
-0.47
-0.465
-0.46
-0.465
-0.45
-0.45
-0.45
-0.47
-0.47
-0.465
-0.465
-0.475
-0.445
-0.345
-0.165
0.06
0.375
0.76
1.155
1.555
1.88
2.06
2.025
1.775
1.39
0.965
0.51
0.07
-0.31
-0.65
-0.915
-1.125
-1.245
-1.27
-1.205
-1.11
-0.965
-0.845
-0.765
-0.74
-0.745
-0.76
-0.785
-0.79
-0.79
-0.79
-0.805
-0.815
-0.84
-0.86
-0.875
-0.89
-0.88
-0.865
-0.865
-0.86
-0.87
-0.875
-0.885
-0.88
-0.88
-0.87
-0.87
-0.885
-0.87
-0.875
-0.865
-0.845
-0.83
-0.82
-0.815
-0.8
-0.805
-0.775
-0.75
-0.73
-0.705
-0.66
-0.635
-0.61
-0.585
-0.56
-0.515
-0.495
-0.46
-0.435
-0.405
-0.39
-0.345
-0.325
-0.265
-0.22
-0.175
-0.125
-0.09
-0.055
-0.025
-0.005
0.035
0.055
0.08
0.105
0.13
0.165
0.2
0.215
0.245
0.25
0.285
0.285
0.28
0.27
0.265
0.255
0.255
0.255
0.245
0.24
0.22
0.165
0.135
0.11
0.095
0.09
0.09
0.08
0.05
0.02
-0.015
-0.03
-0.065
-0.08
-0.105
-0.13
-0.16
-0.2
-0.24
-0.285
-0.29
-0.3
-0.3
-0.315
-0.335
-0.355
-0.39
-0.405
-0.41
-0.42
-0.435
-0.43
-0.43
-0.43
-0.435
-0.43
-0.425
-0.415
-0.42
-0.43
-0.435
-0.455
-0.44
-0.415
-0.38
-0.335
-0.285
-0.26
-0.23
-0.21
-0.195
-0.155
-0.125
-0.1
-0.09
-0.085
-0.09
-0.11
-0.135
-0.17
-0.225
-0.29
-0.36
-0.41
-0.455
-0.485
-0.49
-0.49
-0.48
-0.455
-0.47
-0.485
-0.495
-0.49
-0.505
-0.51
-0.5
-0.49
-0.495
-0.485
-0.495
-0.5
-0.495
-0.495
-0.49
-0.47
-0.46
-0.46
-0.49
-0.515
-0.57
-0.59
-0.585
-0.515
-0.385
-0.2
0.04
0.325
0.64
0.985
1.365
1.705
1.945
2.005
1.845
1.525
1.075
0.59
0.105
-0.315
-0.66
-0.96
-1.205
-1.35
-1.39
-1.32
-1.205
-1.065
-0.925
-0.83
-0.795
-0.805
-0.83
-0.86
-0.89
-0.895
-0.91
-0.9
-0.885
-0.895
-0.905
-0.91
-0.915
-0.925
-0.945
-0.945
-0.95
-0.97
-0.97
-0.985
-0.98
-0.965
-0.96
-0.95
-0.945
-0.955
-0.955
-0.97
-0.965
-0.96
-0.945
-0.935
-0.925
-0.91
-0.895
-0.89
-0.86
-0.84
-0.815
-0.78
-0.77
-0.765
-0.745
-0.72
-0.685
-0.655
-0.615
-0.565
-0.545
-0.54
-0.505
-0.5
-0.475
-0.435
-0.39
-0.34
-0.295
-0.26
-0.23
-0.195
-0.15
-0.115
-0.075
-0.04
-0.01
0.01
0.025
0.055
0.085
0.1
0.125
0.155
0.165
0.17
0.165
0.14
0.14
0.13
0.12
0.125
0.12
0.11
0.09
0.075
0.045
0.025
0.0
-0.035
-0.065
-0.09
-0.115
-0.15
-0.175
-0.19
-0.2
-0.205
-0.225
-0.24
-0.275
-0.33
-0.365
-0.37
-0.39
-0.395
-0.415
-0.42
-0.435
-0.455
-0.465
-0.485
-0.48
-0.47
-0.485
-0.485
-0.495
-0.515
-0.505
-0.485
-0.455
-0.41
-0.375
-0.34
-0.32
-0.305
-0.28
-0.285
-0.255
-0.215
-0.18
-0.15
-0.15
-0.16
-0.17
-0.215
-0.245
-0.29
-0.345
-0.42
-0.48
-0.525
-0.56
-0.585
-0.585
-0.6
-0.575
-0.58
-0.585
-0.61
-0.63
-0.635
-0.635
-0.625
-0.615
-0.595
-0.59
-0.6
-0.615
-0.615
-0.625
-0.61
-0.6
-0.59
-0.595
-0.6
-0.605
-0.62
-0.63
-0.635
-0.625
-0.6
-0.52
-0.37
-0.145
0.17
0.565
0.985
1.42
1.785
2.035
2.11
1.995
1.715
1.34
0.895
0.43
-0.01
-0.405
-0.745
-1.03
-1.235
-1.32
-1.28
-1.175
-1.025
-0.895
-0.82
-0.815
-0.835
-0.89
-0.92
-0.94
-0.94
-0.925
-0.92
-0.93
-0.94
-0.965
-0.99
-1.0
-1.015
-1.025
-1.045
-1.045
-1.05
-1.03
-1.03
-1.03
-1.04
-1.04
-1.065
-1.065
-1.08
-1.07
-1.06
-1.035
-1.015
-1.01
-1.0
-0.99
-0.99
-0.96
-0.94
-0.92
-0.9
-0.88
-0.855
-0.835
-0.775
-0.74
-0.69
-0.65
-0.61
-0.585
-0.55
-0.51
-0.465
-0.42
-0.36
-0.32
-0.275
-0.24
-0.195
-0.15
-0.1
-0.065
-0.02
0.0
0.035
0.075
0.095
0.125
0.16
0.185
0.205
0.205
0.19
0.18
0.16
0.155
0.16
0.175
0.17
0.16
0.15
0.125
0.115
0.1
0.075
0.06
0.04
0.01
-0.02
-0.06
-0.075
-0.09
-0.1
-0.1
-0.105
-0.13
-0.155
-0.195
-0.24
-0.265
-0.285
-0.295
-0.305
-0.325
-0.345
-0.36
-0.37
-0.38
-0.395
-0.405
-0.415
-0.425
-0.435
-0.445
-0.45
-0.44
-0.425
-0.39
-0.35
-0.33
-0.31
-0.28
-0.26
-0.235
-0.215
-0.2
-0.185
-0.17
-0.155
-0.15
-0.15
-0.16
-0.175
-0.215
-0.28
-0.365
-0.445
-0.515
-0.545
-0.56
-0.575
-0.58
-0.58
-0.595
-0.6
-0.615
-0.615
-0.605
-0.6
-0.6
-0.6
-0.595
-0.595
-0.58
-0.565
-0.55
-0.535
-0.55
-0.56
-0.58
-0.61
-0.635
-0.64
-0.65
-0.655
-0.635
-0.59
-0.495
-0.325
-0.07
0.24
0.63
1.08
1.52
1.845
1.98
1.88
1.605
1.205
0.715
0.22
-0.225
-0.58
-0.845
-1.05
-1.17
-1.2
-1.15
-1.035
-0.905
-0.79
-0.74
-0.725
-0.76
-0.785
-0.83
-0.84
-0.85
-0.865
-0.85
-0.84
-0.845
-0.825
-0.825
-0.825
-0.83
-0.85
-0.87
-0.885
-0.89
-0.89
-0.88
-0.87
-0.87
-0.875
-0.875
-0.88
-0.88
-0.86
-0.845
-0.84
-0.84
-0.83
-0.82
-0.805
-0.765
-0.735
-0.7
-0.68
-0.66
-0.64
-0.625
-0.595
-0.56
-0.51
-0.465
-0.425
-0.39
-0.375
-0.365
-0.335
-0.31
-0.26
-0.2
-0.15
-0.105
-0.055
0.01
0.05
0.105
0.14
0.18
0.185
0.21
0.2
0.21
0.225
0.265
0.275
0.285
0.305
0.315
0.305
0.3
0.31
0.3
0.28
0.255
0.24
0.205
0.175
0.165
0.16
0.16
0.155
0.15
0.13
0.09
0.045
0.02
-0.025
-0.035
-0.04
-0.065
-0.085
-0.105
-0.14
-0.175
-0.2
-0.22
-0.235
-0.255
-0.285
-0.32
-0.355
-0.38
-0.405
-0.41
-0.405
-0.405
-0.41
-0.42
-0.44
-0.445
-0.455
-0.455
-0.475
-0.47
-0.475
-0.455
-0.445
-0.42
-0.38
-0.355
-0.325
-0.3
-0.285
-0.26
-0.225
-0.18
-0.14
-0.115
-0.085
-0.08
-0.07
-0.105
-0.13
-0.18
-0.22
-0.285
-0.34
-0.385
-0.42
-0.46
-0.48
-0.505
-0.51
-0.51
-0.515
-0.505
-0.515
-0.515
-0.515
-0.515
-0.51
-0.505
-0.5
-0.475
-0.465
-0.465
-0.47
-0.48
-0.49
-0.49
-0.485
-0.48
-0.48
-0.475
-0.49
-0.51
-0.54
-0.555
-0.54
-0.455
-0.29
-0.035
0.255
0.6
0.99
1.38
1.725
1.96
2.005
1.83
1.5
1.11
0.715
0.33
-0.02
-0.3
-0.55
-0.785
-1.005
-1.21
-1.3
-1.28
-1.19
-1.055
-0.93
-0.835
-0.775
-0.775
-0.795
-0.835
-0.855
-0.865
-0.86
-0.85
-0.845
-0.86
-0.885
-0.905
-0.92
-0.92
-0.93
-0.91
-0.915
-0.91
-0.915
-0.92
-0.92
-0.92
-0.93
-0.925
-0.915
-0.92
-0.905
-0.885
-0.865
-0.835
-0.805
-0.79
-0.775
-0.79
-0.795
-0.785
-0.78
-0.735
-0.7
-0.645
-0.61
-0.58
-0.57
-0.565
-0.525
-0.515
-0.48
-0.45
-0.405
-0.375
-0.355
-0.325
-0.305
-0.255
-0.22
-0.175
-0.15
-0.095
-0.075
-0.05
-0.025
0.01
0.06
0.1
0.14
0.17
0.17
0.175
0.18
0.19
0.195
0.205
0.22
0.235
0.215
0.22
0.195
0.185
0.165
0.145
0.13
0.115
0.095
0.065
0.04
0.03
0.01
-0.005
-0.03
-0.045
-0.09
-0.13
-0.165
-0.195
-0.21
-0.225
-0.23
-0.24
-0.265
-0.295
-0.315
-0.34
-0.37
-0.395
-0.415
-0.42
-0.435
-0.445
-0.45
-0.45
-0.45
-0.445
-0.43
-0.42
-0.425
-0.445
-0.46
-0.475
-0.48
-0.475
-0.45
-0.41
-0.365
-0.32
-0.275
-0.245
-0.225
-0.2
-0.18
-0.17
-0.15
-0.145
-0.14
-0.15
-0.14
-0.13
-0.145
-0.165
-0.215
-0.285
-0.355
-0.43
-0.475
-0.52
-0.53
-0.53
-0.515
-0.515
-0.515
-0.52
-0.53
-0.55
-0.55
-0.54
-0.54
-0.54
-0.535
-0.54
-0.555
-0.545
-0.545
-0.53
-0.515
-0.525
-0.535
-0.55
-0.575
-0.585
-0.59
-0.6
-0.61
-0.595
-0.545
-0.445
-0.28
-0.075
0.17
0.425
0.69
0.995
1.31
1.625
1.86
1.935
1.8
1.51
1.1
0.625
0.15
-0.28
-0.655
-0.965
-1.2
-1.34
-1.355
-1.27
-1.125
-0.99
-0.895
-0.835
-0.82
-0.85
-0.865
-0.915
-0.945
-0.945
-0.95
-0.94
-0.945
-0.94
-0.95
-0.955
-0.975
-0.975
-1.01
-1.01
-1.025
-1.01
-1.005
-1.0
-0.98
-0.985
-0.995
-1.01
-1.025
-1.025
-1.03
-1.02
-1.005
-0.98
-0.975
-0.965
-0.965
-0.94
-0.915
-0.89
-0.865
-0.855
-0.85
-0.84
-0.81
-0.78
-0.75
-0.705
-0.675
-0.64
-0.615
-0.595
-0.58
-0.565
-0.525
-0.485
-0.425
-0.385
-0.335
-0.3
-0.265
-0.235
-0.2
-0.16
-0.115
-0.08
-0.055
-0.025
0.0
0.025
0.055
0.085
0.11
0.14
0.155
0.16
0.16
0.16
0.165
0.16
0.155
0.17
0.175
0.175
0.16
0.145
0.13
0.09
0.065
0.045
0.025
0.0
-0.02
-0.05
-0.075
-0.075
-0.095
-0.11
-0.125
-0.145
-0.165
-0.205
-0.245
-0.285
-0.305
-0.32
-0.33
-0.34
-0.35
-0.375
-0.395
-0.43
-0.465
-0.475
-0.46
-0.47
-0.47
-0.47
-0.475
-0.485
-0.495
-0.48
-0.48
-0.475
-0.455
-0.445
-0.43
-0.41
-0.38
-0.35
-0.31
-0.27
-0.235
-0.205
-0.175
-0.19
-0.185
-0.19
-0.18
-0.185
-0.185
-0.19
-0.21
-0.245
-0.3
-0.355
-0.41
-0.475
-0.515
-0.55
-0.575
-0.595
-0.615
-0.625
-0.615
-0.61
-0.595
-0.585
-0.575
-0.575
-0.595
-0.61
-0.615
-0.615
-0.605
-0.59
-0.575
-0.56
-0.54
-0.555
-0.59
-0.605
-0.625
-0.65
-0.645
-0.66
-0.65
-0.615
-0.52
-0.35
-0.1
0.225
0.615
1.025
1.45
1.815
2.065
2.15
2.075
1.825
1.455
1.005
0.525
0.045
-0.39
-0.775
-1.065
-1.25
-1.305
-1.245
-1.125
-0.975
-0.87
-0.8
-0.775
-0.795
-0.84
-0.875
-0.905
-0.935
-0.945
-0.965
-0.97
-0.94
-0.945
-0.935
-0.955
-0.96
-0.965
-0.985
-0.995
-1.005
-1.015
-1.02
-1.01
-1.015
-1.02
-1.02
-1.02
-1.03
-1.025
-1.025
-1.02
-1.025
-1.025
-1.04
-1.025
-0.99
-0.96
-0.93
-0.915
-0.89
-0.875
-0.87
-0.87
-0.835
-0.8
-0.765
-0.72
-0.665
-0.64
-0.6
-0.55
-0.495
-0.465
-0.425
-0.385
-0.36
-0.33
-0.3
-0.245
-0.19
-0.13
-0.075
-0.025
0.015
0.055
0.07
0.095
0.125
0.145
0.165
0.175
0.19
0.195
0.205
0.22
0.23
0.23
0.225
0.21
0.18
0.16
0.13
0.115
0.1
0.095
0.065
0.05
0.035
0.01
-0.005
-0.035
-0.05
-0.075
-0.095
-0.115
-0.13
-0.155
-0.165
-0.18
-0.2
-0.23
-0.24
-0.27
-0.31
-0.345
-0.37
-0.375
-0.375
-0.37
-0.36
-0.355
-0.36
-0.39
-0.41
-0.44
-0.455
-0.455
-0.445
-0.43
-0.4
-0.375
-0.33
-0.28
-0.23
-0.2
-0.17
-0.15
-0.145
-0.145
-0.145
-0.135
-0.12
-0.12
-0.12
-0.155
-0.21
-0.27
-0.345
-0.405
-0.45
-0.495
-0.53
-0.55
-0.565
-0.57
-0.56
-0.55
-0.53
-0.54
-0.54
-0.545
-0.565
-0.56
-0.57
-0.565
-0.545
-0.535
-0.545
-0.54
-0.56
-0.575
-0.585
-0.585
-0.59
-0.595
-0.605
-0.62
-0.625
-0.605
-0.53
-0.385
-0.165
0.115
0.445
0.8
1.19
1.545
1.79
1.815
1.625
1.275
0.82
0.33
-0.155
-0.555
-0.87
-1.09
-1.25
-1.34
-1.335
-1.28
-1.18
-1.06
-0.945
-0.865
-0.81
-0.815
-0.84
-0.87
-0.915
-0.945
-0.96
-0.95
-0.945
-0.925
-0.93
-0.92
-0.92
-0.94
-0.975
-0.985
-1.0
-0.98
-0.98
-1.01
-0.99
-0.995
-0.99
-0.975
-0.955
-0.94
-0.92
-0.915
-0.905
-0.91
-0.9
-0.885
-0.855
-0.83
-0.805
-0.785
-0.77
-0.75
-0.745
-0.71
-0.69
-0.67
-0.625
-0.595
-0.565
-0.53
-0.485
-0.445
-0.4
-0.365
-0.34
-0.32
-0.315
-0.28
-0.255
-0.205
-0.15
-0.11
-0.06
-0.02
0.005
0.025
0.045
0.065
0.085
0.12
0.14
0.165
0.18
0.195
0.21
0.21
0.2
0.2
0.19
0.17
0.145
0.125
0.105
0.085
0.065
0.055
0.045
0.025
-0.01
-0.035
-0.07
-0.09
-0.105
-0.11
-0.135
-0.16
-0.175
-0.21
-0.235
-0.25
-0.275
-0.28
-0.3
-0.33
-0.355
-0.39
-0.435
-0.47
-0.485
-0.495
-0.49
-0.505
-0.5
-0.51
-0.54
-0.555
-0.565
-0.55
-0.54
-0.535
-0.54
-0.555
-0.565
-0.565
-0.56
-0.53
-0.5
-0.465
-0.43
-0.405
-0.38
-0.355
-0.315
-0.28
-0.24
-0.205
-0.19
-0.19
-0.2
-0.21
-0.215
-0.255
-0.265
-0.295
-0.355
-0.41
-0.48
-0.53
-0.555
-0.575
-0.565
-0.565
-0.575
-0.575
-0.6
-0.595
-0.6
-0.6
-0.585
-0.57
-0.57
-0.565
-0.58
-0.58
-0.58
-0.58
-0.58
-0.575
-0.565
-0.565
-0.58
-0.59
-0.6
-0.61
-0.615
-0.61
-0.57
-0.46
-0.275
-0.025
0.3
0.675
1.085
1.5
1.815
2.015
2.025
1.83
1.48
1.045
0.565
0.075
-0.34
-0.715
-1.015
-1.24
-1.36
-1.36
-1.28
-1.175
-1.05
-0.955
-0.89
-0.865
-0.875
-0.905
-0.92
-0.905
-0.92
-0.93
-0.945
-0.965
-0.98
-0.995
-1.01
-0.995
-0.995
-1.0
-1.005
-1.005
-1.025
-1.02
-1.025
-1.025
-1.035
-1.06
-1.06
-1.04
-1.02
-0.995
-0.975
-0.97
-0.965
-0.95
-0.945
-0.94
-0.925
-0.905
-0.885
-0.865
-0.83
-0.8
-0.77
-0.75
-0.71
-0.665
-0.63
-0.6
-0.58
-0.565
-0.545
-0.495
-0.445
-0.405
-0.36
-0.32
-0.28
-0.27
-0.21
-0.16
-0.13
-0.08
-0.055
-0.025
0.005
0.01
0.04
0.065
0.09
0.105
0.11
0.115
0.1
0.1
0.09
0.1
0.09
0.085
0.075
0.06
0.035
0.01
-0.005
-0.03
-0.04
-0.06
-0.08
-0.115
-0.145
-0.175
-0.195
-0.205
-0.225
-0.24
-0.265
-0.32
-0.36
-0.385
-0.415
-0.43
-0.435
-0.44
-0.455
-0.475
-0.49
-0.51
-0.51
-0.52
-0.52
-0.52
-0.525
-0.54
-0.54
-0.54
-0.53
-0.495
-0.455
-0.42
-0.39
-0.36
-0.34
-0.315
-0.3
-0.29
-0.25
-0.22
-0.215
-0.22
-0.225
-0.225
-0.24
-0.265
-0.305
-0.365
-0.435
-0.505
-0.56
-0.6
-0.63
-0.635
-0.64
-0.625
-0.63
-0.635
-0.66
-0.675
-0.67
-0.665
-0.65
-0.655
-0.66
-0.66
-0.65
-0.645
-0.64
-0.65
-0.66
-0.675
-0.685
-0.69
-0.715
-0.725
-0.71
-0.71
-0.67
-0.6
-0.465
-0.265
-0.005
0.275
0.605
1.01
1.415
1.745
1.885
1.795
1.495
1.065
0.53
-0.005
-0.475
-0.87
-1.17
-1.35
-1.41
-1.36
-1.225
-1.065
-0.95
-0.89
-0.86
-0.885
-0.93
-0.955
-0.99
-1.0
-1.005
-1.01
-1.01
-1.01
-1.01
-1.02
-1.04
-1.03
-1.045
-1.07
-1.08
-1.085
-1.09
-1.075
-1.06
-1.04
-1.04
-1.04
-1.06
-1.09
-1.105
-1.105
-1.1
-1.085
-1.08
-1.05
-1.05
-1.035
-1.035
-1.02
-1.005
-0.985
-0.95
-0.95
-0.93
-0.91
-0.89
-0.86
-0.825
-0.78
-0.75
-0.7
-0.66
-0.64
-0.615
-0.59
-0.56
-0.51
-0.47
-0.41
-0.35
-0.315
-0.275
-0.26
-0.225
-0.185
-0.155
-0.125
-0.085
-0.04
-0.01
0.01
0.06
0.085
0.105
0.14
0.14
0.14
0.14
0.13
0.115
0.105
0.11
0.115
0.13
0.11
0.09
0.07
0.045
0.005
-0.015
-0.025
-0.06
-0.075
-0.11
-0.135
-0.155
-0.19
-0.19
-0.2
-0.215
-0.245
-0.27
-0.295
-0.335
-0.365
-0.39
-0.395
-0.425
-0.435
-0.465
-0.495
-0.505
-0.52
-0.535
-0.53
-0.54
-0.525
-0.525
-0.545
-0.55
-0.555
-0.57
-0.55
-0.55
-0.545
-0.525
-0.5
-0.475
-0.435
-0.395
-0.36
-0.32
-0.285
-0.27
-0.25
-0.255
-0.265
-0.285
-0.295
-0.335
-0.375
-0.44
-0.48
-0.535
-0.57
-0.605
-0.64
-0.66
-0.675
-0.68
-0.685
-0.68
-0.68
-0.67
-0.665
-0.675
-0.68
-0.68
-0.69
-0.685
-0.675
-0.665
-0.655
-0.65
-0.66
-0.665
-0.68
-0.67
-0.655
-0.645
-0.66
-0.635
-0.6
-0.49
-0.305
-0.03
0.305
0.69
1.095
1.475
1.76
1.905
1.855
1.6
1.195
0.72
0.195
-0.275
-0.675
-0.97
-1.16
-1.255
-1.27
-1.18
-1.06
-0.93
-0.84
-0.805
-0.795
-0.805
-0.83
-0.86
-0.88
-0.905
-0.915
-0.925
-0.905
-0.91
-0.915
-0.925
-0.94
-0.99
-1.015
-1.02
-1.005
-0.995
-0.98
-0.97
-0.965
-0.965
-0.97
-0.97
-0.98
-0.975
-0.965
-0.96
-0.95
-0.935
-0.91
-0.88
-0.85
-0.83
-0.795
-0.78
-0.755
-0.74
-0.71
-0.675
-0.615
-0.585
-0.53
-0.5
-0.48
-0.44
-0.415
-0.375
-0.34
-0.305
-0.28
-0.24
-0.21
-0.16
-0.115
-0.07
-0.015
0.015
0.045
0.06
0.075
0.09
0.12
0.145
0.16
0.18
0.2
0.195
0.19
0.19
0.19
0.19
0.165
0.14
0.11
0.08
0.045
0.035
0.035
0.02
0.0
-0.005
-0.035
-0.07
-0.115
-0.13
-0.16
-0.17
-0.17
-0.205
-0.23
-0.25
-0.28
-0.3
-0.33
-0.35
-0.36
-0.39
-0.42
-0.45
-0.47
-0.49
-0.495
-0.515
-0.51
-0.51
-0.53
-0.56
-0.58
-0.6
-0.595
-0.595
-0.565
-0.565
-0.56
-0.555
-0.55
-0.54
-0.51
-0.495
-0.435
-0.41
-0.37
-0.345
-0.32
-0.295
-0.275
