Lead II
-0.56
-0.565
-0.56
-0.58
-0.59
-0.595
-0.605
-0.595
-0.605
-0.61
-0.61
-0.615
-0.615
-0.6
-0.61
-0.62
-0.625
-0.615
-0.62
-0.63
-0.625
-0.63
-0.625
-0.625
-0.62
-0.61
-0.62
-0.625
-0.62
-0.64
-0.65
-0.655
-0.655
-0.66
-0.655
-0.66
-0.655
-0.66
-0.665
-0.655
-0.67
-0.67
-0.675
-0.665
-0.665
-0.665
-0.66
-0.67
-0.675
-0.675
-0.665
-0.675
-0.68
-0.675
-0.685
-0.68
-0.675
-0.665
-0.655
-0.65
-0.65
-0.64
-0.645
-0.63
-0.635
-0.635
-0.64
-0.63
-0.625
-0.605
-0.605
-0.595
-0.585
-0.565
-0.555
-0.565
-0.555
-0.545
-0.535
-0.53
-0.525
-0.52
-0.515
-0.5
-0.51
-0.505
-0.52
-0.52
-0.54
-0.545
-0.56
-0.585
-0.59
-0.6
-0.61
-0.605
-0.6
-0.6
-0.605
-0.61
-0.635
-0.655
-0.675
-0.69
-0.695
-0.69
-0.69
-0.68
-0.665
-0.66
-0.67
-0.665
-0.67
-0.685
-0.69
-0.69
-0.685
-0.67
-0.67
-0.655
-0.64
-0.615
-0.62
-0.605
-0.59
-0.57
-0.545
-0.505
-0.45
-0.395
-0.335
-0.255
-0.185
-0.08
0.015
0.09
0.13
0.165
0.2
0.225
0.28
0.335
0.35
0.295
0.17
-0.03
-0.265
-0.48
-0.68
-0.815
-0.875
-0.895
-0.87
-0.855
-0.82
-0.785
-0.76
-0.735
-0.72
-0.71
-0.72
-0.715
-0.735
-0.72
-0.725
-0.72
-0.72
-0.72
-0.71
-0.705
-0.705
-0.715
-0.705
-0.71
-0.725
-0.72
-0.71
-0.715
-0.71
-0.715
-0.705
-0.695
-0.705
-0.71
-0.71
-0.7
-0.71
-0.715
-0.72
-0.715
-0.705
-0.7
-0.695
-0.69
-0.7
-0.705
-0.71
-0.72
-0.72
-0.735
-0.73
-0.73
-0.72
-0.72
-0.72
-0.73
-0.735
-0.73
-0.74
-0.755
-0.76
-0.75
-0.75
-0.735
-0.73
-0.72
-0.72
-0.715
-0.705
-0.7
-0.705
-0.695
-0.695
-0.695
-0.7
-0.685
-0.68
-0.665
-0.66
-0.645
-0.625
-0.62
-0.615
-0.605
-0.605
-0.595
-0.585
-0.575
-0.555
-0.555
-0.535
-0.525
-0.515
-0.525
-0.52
-0.52
-0.525
-0.54
-0.565
-0.535
-0.54
-0.545
-0.52
-0.52
-0.525
-0.525
-0.54
-0.54
-0.55
-0.575
-0.58
-0.575
-0.575
-0.565
-0.565
-0.58
-0.585
-0.575
-0.59
-0.59
-0.6
-0.6
-0.6
-0.595
-0.605
-0.6
-0.59
-0.59
-0.595
-0.595
-0.59
-0.595
-0.61
-0.61
-0.625
-0.615
-0.62
-0.635
-0.625
-0.62
-0.62
-0.615
-0.62
-0.63
-0.63
-0.645
-0.645
-0.645
-0.645
-0.65
-0.64
-0.625
-0.62
-0.62
-0.635
-0.63
-0.635
-0.635
-0.64
-0.625
-0.635
-0.615
-0.625
-0.605
-0.61
-0.595
-0.605
-0.59
-0.59
-0.595
-0.59
-0.575
-0.57
-0.56
-0.56
-0.55
-0.555
-0.55
-0.55
-0.545
-0.545
-0.545
-0.53
-0.52
-0.51
-0.495
-0.49
-0.46
-0.465
-0.475
-0.475
-0.485
-0.5
-0.52
-0.53
-0.55
-0.54
-0.535
-0.545
-0.55
-0.565
-0.575
-0.59
-0.615
-0.63
-0.64
-0.65
-0.65
-0.65
-0.65
-0.64
-0.63
-0.625
-0.62
-0.625
-0.635
-0.655
-0.67
-0.66
-0.645
-0.66
-0.645
-0.625
-0.62
-0.62
-0.595
-0.59
-0.555
-0.545
-0.52
-0.485
-0.43
-0.355
-0.285
-0.22
-0.125
-0.035
0.055
0.13
0.17
0.19
0.2
0.19
0.215
0.265
0.325
0.345
0.3
0.175
-0.025
-0.26
-0.495
-0.695
-0.835
-0.905
-0.92
-0.9
-0.865
-0.835
-0.805
-0.79
-0.78
-0.76
-0.755
-0.74
-0.74
-0.735
-0.725
-0.71
-0.715
-0.71
-0.71
-0.725
-0.73
-0.74
-0.735
-0.735
-0.75
-0.745
-0.74
-0.735
-0.735
-0.73
-0.715
-0.715
-0.72
-0.73
-0.74
-0.74
-0.75
-0.75
-0.75
-0.735
-0.735
-0.735
-0.73
-0.74
-0.745
-0.75
-0.755
-0.77
-0.775
-0.785
-0.79
-0.765
-0.775
-0.76
-0.755
-0.755
-0.75
-0.76
-0.765
-0.77
-0.77
-0.785
-0.795
-0.795
-0.775
-0.765
-0.765
-0.755
-0.755
-0.765
-0.78
-0.77
-0.77
-0.775
-0.765
-0.745
-0.74
-0.73
-0.715
-0.705
-0.705
-0.69
-0.705
-0.695
-0.69
-0.695
-0.685
-0.67
-0.645
-0.65
-0.61
-0.605
-0.605
-0.58
-0.59
-0.595
-0.595
-0.58
-0.58
-0.58
-0.58
-0.58
-0.57
-0.58
-0.58
-0.595
-0.595
-0.595
-0.605
-0.625
-0.625
-0.63
-0.625
-0.62
-0.615
-0.62
-0.625
-0.645
-0.64
-0.635
-0.645
-0.65
-0.675
-0.65
-0.65
-0.64
-0.65
-0.66
-0.65
-0.66
-0.665
-0.675
-0.665
-0.68
-0.675
-0.685
-0.675
-0.68
-0.67
-0.665
-0.665
-0.68
-0.69
-0.7
-0.715
-0.71
-0.71
-0.72
-0.705
-0.705
-0.685
-0.69
-0.69
-0.7
-0.7
-0.705
-0.71
-0.71
-0.71
-0.71
-0.7
-0.7
-0.685
-0.69
-0.68
-0.685
-0.68
-0.675
-0.68
-0.68
-0.66
-0.65
-0.63
-0.635
-0.64
-0.635
-0.62
-0.605
-0.605
-0.595
-0.605
-0.595
-0.58
-0.57
-0.55
-0.53
-0.52
-0.525
-0.52
-0.52
-0.54
-0.555
-0.56
-0.575
-0.585
-0.59
-0.6
-0.615
-0.6
-0.61
-0.62
-0.63
-0.635
-0.65
-0.68
-0.69
-0.695
-0.69
-0.705
-0.695
-0.69
-0.69
-0.695
-0.69
-0.685
-0.685
-0.7
-0.705
-0.675
-0.685
-0.67
-0.655
-0.64
-0.63
-0.63
-0.62
-0.615
-0.595
-0.565
-0.525
-0.465
-0.4
-0.32
-0.24
-0.145
-0.045
0.06
0.13
0.18
0.215
0.245
0.3
0.35
0.34
0.23
0.01
-0.28
-0.57
-0.805
-0.935
-0.98
-0.955
-0.9
-0.835
-0.79
-0.74
-0.72
-0.715
-0.715
-0.735
-0.735
-0.74
-0.75
-0.745
-0.76
-0.755
-0.75
-0.74
-0.74
-0.735
-0.725
-0.725
-0.725
-0.73
-0.73
-0.735
-0.735
-0.73
-0.745
-0.745
-0.73
-0.745
-0.735
-0.74
-0.74
-0.74
-0.73
-0.74
-0.74
-0.745
-0.77
-0.76
-0.755
-0.745
-0.75
-0.745
-0.75
-0.755
-0.755
-0.755
-0.755
-0.76
-0.775
-0.77
-0.765
-0.765
-0.755
-0.75
-0.765
-0.78
-0.78
-0.79
-0.795
-0.78
-0.78
-0.77
-0.76
-0.745
-0.745
-0.745
-0.745
-0.73
-0.735
-0.735
-0.715
-0.71
-0.705
-0.69
-0.675
-0.655
-0.64
-0.625
-0.635
-0.625
-0.615
-0.6
-0.6
-0.595
-0.59
-0.57
-0.565
-0.56
-0.54
-0.545
-0.555
-0.56
-0.56
-0.565
-0.59
-0.6
-0.59
-0.58
-0.58
-0.58
-0.58
-0.58
-0.585
-0.595
-0.605
-0.615
-0.615
-0.625
-0.625
-0.625
-0.625
-0.62
-0.615
-0.62
-0.62
-0.62
-0.63
-0.635
-0.64
-0.66
-0.655
-0.645
-0.655
-0.64
-0.63
-0.635
-0.64
-0.64
-0.645
-0.655
-0.67
-0.675
-0.695
-0.68
-0.67
-0.675
-0.65
-0.66
-0.665
-0.675
-0.68
-0.69
-0.7
-0.71
-0.705
-0.705
-0.695
-0.685
-0.68
-0.665
-0.66
-0.66
-0.675
-0.675
-0.68
-0.69
-0.685
-0.68
-0.675
-0.665
-0.645
-0.65
-0.635
-0.625
-0.64
-0.645
-0.64
-0.63
-0.62
-0.615
-0.6
-0.605
-0.575
-0.57
-0.57
-0.56
-0.55
-0.55
-0.53
-0.535
-0.54
-0.535
-0.525
-0.515
-0.52
-0.53
-0.54
-0.56
-0.565
-0.585
-0.605
-0.615
-0.64
-0.635
-0.64
-0.645
-0.64
-0.65
-0.665
-0.68
-0.7
-0.7
-0.7
-0.705
-0.71
-0.7
-0.69
-0.69
-0.68
-0.675
-0.66
-0.675
-0.675
-0.655
-0.64
-0.635
-0.6
-0.565
-0.515
-0.46
-0.38
-0.305
-0.225
-0.145
-0.055
0.035
0.095
0.155
0.165
0.215
0.285
0.335
0.36
0.315
0.15
-0.095
-0.36
-0.6
-0.79
-0.905
-0.945
-0.925
-0.88
-0.83
-0.795
-0.78
-0.76
-0.75
-0.755
-0.755
-0.77
-0.775
-0.775
-0.77
-0.75
-0.745
-0.75
-0.74
-0.73
-0.725
-0.745
-0.755
-0.765
-0.765
-0.77
-0.76
-0.74
-0.75
-0.73
-0.73
-0.735
-0.74
-0.765
-0.755
-0.755
-0.765
-0.765
-0.755
-0.755
-0.755
-0.74
-0.745
-0.75
-0.75
-0.77
-0.77
-0.775
-0.785
-0.785
-0.785
-0.78
-0.785
-0.77
-0.775
-0.775
-0.78
-0.79
-0.775
-0.785
-0.795
-0.785
-0.8
-0.795
-0.775
-0.765
-0.765
-0.76
-0.76
-0.76
-0.765
-0.77
-0.775
-0.765
-0.74
-0.74
-0.73
-0.71
-0.695
-0.7
-0.68
-0.68
-0.685
-0.675
-0.665
-0.655
-0.65
-0.64
-0.62
-0.615
-0.605
-0.595
-0.6
-0.605
-0.605
-0.585
-0.59
-0.59
-0.59
-0.605
-0.595
-0.605
-0.605
-0.605
-0.61
-0.615
-0.625
-0.63
-0.625
-0.645
-0.64
-0.635
-0.63
-0.625
-0.625
-0.64
-0.63
-0.63
-0.635
-0.645
-0.645
-0.66
-0.66
-0.65
-0.665
-0.645
-0.655
-0.665
-0.66
-0.66
-0.67
-0.665
-0.685
-0.68
-0.675
-0.675
-0.655
-0.65
-0.655
-0.66
-0.67
-0.685
-0.69
-0.705
-0.705
-0.7
-0.7
-0.69
-0.69
-0.695
-0.69
-0.675
-0.68
-0.69
-0.695
-0.71
-0.725
-0.71
-0.705
-0.69
-0.675
-0.665
-0.66
-0.67
-0.66
-0.665
-0.67
-0.67
-0.66
-0.65
-0.655
-0.635
-0.615
-0.61
-0.59
-0.585
-0.58
-0.59
-0.595
-0.58
-0.57
-0.555
-0.555
-0.55
-0.52
-0.505
-0.505
-0.515
-0.53
-0.545
-0.555
-0.565
-0.575
-0.6
-0.61
-0.625
-0.625
-0.63
-0.63
-0.635
-0.645
-0.65
-0.66
-0.68
-0.695
-0.69
-0.695
-0.69
-0.69
-0.695
-0.685
-0.69
-0.695
-0.705
-0.71
-0.71
-0.695
-0.685
-0.685
-0.67
-0.655
-0.655
-0.635
-0.605
-0.6
-0.57
-0.525
-0.5
-0.435
-0.38
-0.33
-0.27
-0.195
-0.105
-0.02
0.05
0.11
0.13
0.155
0.19
0.23
0.29
0.31
0.265
0.125
-0.1
-0.36
-0.61
-0.805
-0.915
-0.945
-0.93
-0.875
-0.835
-0.775
-0.74
-0.72
-0.695
-0.69
-0.705
-0.71
-0.735
-0.73
-0.735
-0.735
-0.73
-0.72
-0.715
-0.72
-0.705
-0.705
-0.705
-0.7
-0.71
-0.705
-0.725
-0.735
-0.73
-0.73
-0.73
-0.705
-0.71
-0.7
-0.71
-0.71
-0.71
-0.73
-0.735
-0.74
-0.735
-0.735
-0.735
-0.745
-0.73
-0.72
-0.725
-0.715
-0.73
-0.725
-0.735
-0.735
-0.74
-0.765
-0.75
-0.74
-0.735
-0.73
-0.735
-0.73
-0.75
-0.745
-0.765
-0.76
-0.755
-0.75
-0.735
-0.73
-0.72
-0.73
-0.72
-0.715
-0.71
-0.71
-0.71
-0.705
-0.705
-0.685
-0.66
-0.66
-0.66
-0.65
-0.63
-0.615
-0.605
-0.6
-0.61
-0.6
-0.585
-0.57
-0.565
-0.55
-0.535
-0.54
-0.55
-0.535
-0.545
-0.55
-0.555
-0.58
-0.575
-0.585
-0.57
-0.585
-0.58
-0.565
-0.575
-0.6
-0.585
-0.585
-0.59
-0.605
-0.61
-0.6
-0.605
-0.595
-0.6
-0.595
-0.585
-0.6
-0.615
-0.625
-0.615
-0.625
-0.625
-0.63
-0.615
-0.615
-0.615
-0.61
-0.615
-0.62
-0.625
-0.64
-0.65
-0.65
-0.66
-0.645
-0.635
-0.635
-0.62
-0.62
-0.63
-0.645
-0.655
-0.65
-0.675
-0.66
-0.64
-0.645
-0.645
-0.64
-0.65
-0.63
-0.645
-0.635
-0.64
-0.64
-0.64
-0.64
-0.63
-0.635
-0.62
-0.61
-0.59
-0.58
-0.58
-0.59
-0.595
-0.585
-0.595
-0.605
-0.59
-0.58
-0.565
-0.56
-0.545
-0.535
-0.535
-0.535
-0.535
-0.53
-0.515
-0.505
-0.5
-0.49
-0.47
-0.46
-0.45
-0.45
-0.45
-0.45
-0.47
-0.48
-0.5
-0.51
-0.525
-0.535
-0.54
-0.545
-0.57
-0.565
-0.565
-0.565
-0.58
-0.595
-0.615
-0.625
-0.635
-0.64
-0.65
-0.625
-0.62
-0.615
-0.62
-0.615
-0.62
-0.625
-0.635
-0.63
-0.635
-0.625
-0.62
-0.615
-0.595
-0.575
-0.57
-0.58
-0.575
-0.565
-0.555
-0.525
-0.48
-0.415
-0.35
-0.27
-0.19
-0.105
-0.03
0.05
0.125
0.18
0.205
0.215
0.24
0.3
0.36
0.415
0.405
0.31
0.135
-0.08
-0.325
-0.545
-0.72
-0.82
-0.845
-0.85
-0.815
-0.78
-0.74
-0.72
-0.7
-0.69
-0.68
-0.67
-0.67
-0.66
-0.65
-0.645
-0.645
-0.64
-0.635
-0.63
-0.63
-0.64
-0.64
-0.65
-0.655
-0.645
-0.665
-0.665
-0.64
-0.64
-0.635
-0.645
-0.655
-0.64
-0.64
-0.64
-0.635
-0.645
-0.64
-0.63
-0.64
-0.64
-0.635
-0.635
-0.645
-0.64
-0.65
-0.66
-0.675
-0.665
-0.67
-0.67
-0.67
-0.67
-0.65
-0.655
-0.655
-0.66
-0.665
-0.66
-0.675
-0.69
-0.685
-0.68
-0.67
-0.66
-0.665
-0.66
-0.66
-0.66
-0.675
-0.67
-0.67
-0.67
-0.665
-0.66
-0.645
-0.64
-0.63
-0.615
-0.61
-0.605
-0.61
-0.6
-0.6
-0.59
-0.575
-0.56
-0.56
-0.545
-0.545
-0.525
-0.515
-0.51
-0.485
-0.485
-0.485
-0.49
-0.475
-0.475
-0.475
-0.465
-0.465
-0.475
-0.49
-0.48
-0.49
-0.49
-0.5
-0.52
-0.52
-0.51
-0.515
-0.515
-0.52
-0.515
-0.515
-0.515
-0.515
-0.525
-0.55
-0.55
-0.555
-0.55
-0.56
-0.545
-0.535
-0.54
-0.545
-0.54
-0.55
-0.57
-0.575
-0.58
-0.585
-0.565
-0.575
-0.57
-0.585
-0.575
-0.585
-0.59
-0.6
-0.6
-0.615
-0.595
-0.595
-0.605
-0.595
-0.6
-0.59
-0.605
-0.61
-0.615
-0.62
-0.62
-0.61
-0.61
-0.615
-0.61
-0.595
-0.59
-0.58
-0.57
-0.57
-0.565
-0.575
-0.56
-0.56
-0.58
-0.56
-0.56
-0.54
-0.54
-0.545
-0.525
-0.52
-0.52
-0.51
-0.515
-0.495
-0.485
-0.48
-0.485
-0.475
-0.46
-0.44
-0.435
-0.44
-0.445
-0.455
-0.475
-0.48
-0.495
-0.515
-0.535
-0.54
-0.54
-0.55
-0.575
-0.58
-0.575
-0.6
-0.61
-0.615
-0.635
-0.63
-0.635
-0.635
-0.645
-0.625
-0.625
-0.62
-0.61
-0.62
-0.615
-0.635
-0.625
-0.62
-0.62
-0.62
-0.59
-0.57
-0.54
-0.52
-0.495
-0.455
-0.41
-0.35
-0.285
-0.205
-0.115
-0.02
0.085
0.17
0.215
0.255
0.25
0.255
0.3
0.34
0.36
0.33
0.19
-0.01
-0.25
-0.5
-0.69
-0.82
-0.875
-0.895
-0.855
-0.835
-0.805
-0.78
-0.75
-0.735
-0.705
-0.685
-0.68
-0.675
-0.68
-0.695
-0.705
-0.71
-0.715
-0.72
-0.71
-0.7
-0.695
-0.695
-0.69
-0.7
-0.695
-0.705
-0.705
-0.725
-0.715
-0.715
-0.715
-0.7
-0.7
-0.7
-0.69
-0.695
-0.7
-0.705
-0.71
-0.725
-0.73
-0.73
-0.735
-0.73
-0.73
-0.73
-0.705
-0.715
-0.72
-0.72
-0.73
-0.735
-0.745
-0.75
-0.755
-0.74
-0.745
-0.74
-0.74
-0.725
-0.735
-0.745
-0.75
-0.75
-0.75
-0.755
-0.755
-0.74
-0.73
-0.705
-0.685
-0.685
-0.685
-0.67
-0.68
-0.67
-0.675
-0.66
-0.655
-0.64
-0.625
-0.605
-0.58
-0.575
-0.565
-0.565
-0.56
-0.57
-0.565
-0.55
-0.545
-0.52
-0.51
-0.505
-0.5
-0.5
-0.51
-0.51
-0.515
-0.52
-0.545
-0.545
-0.54
-0.54
-0.535
-0.53
-0.535
-0.535
-0.54
-0.55
-0.555
-0.565
-0.565
-0.575
-0.575
-0.585
-0.575
-0.57
-0.57
-0.58
-0.585
-0.595
-0.585
-0.57
-0.59
-0.58
-0.585
-0.585
-0.59
-0.59
-0.59
-0.59
-0.58
-0.59
-0.595
-0.605
-0.6
-0.615
-0.62
-0.625
-0.6
-0.6
-0.59
-0.59
-0.59
-0.58
-0.59
-0.61
-0.625
-0.615
-0.61
-0.61
-0.61
-0.59
-0.59
-0.59
-0.585
-0.58
-0.585
-0.59
-0.59
-0.58
-0.575
-0.565
-0.56
-0.545
-0.535
-0.525
-0.515
-0.51
-0.52
-0.51
-0.505
-0.5
-0.495
-0.475
-0.46
-0.44
-0.41
-0.405
-0.405
-0.41
-0.41
-0.43
-0.445
-0.44
-0.44
-0.455
-0.455
-0.46
-0.47
-0.47
-0.48
-0.5
-0.515
-0.52
-0.555
-0.57
-0.565
-0.57
-0.59
-0.57
-0.56
-0.555
-0.57
-0.56
-0.575
-0.56
-0.565
-0.56
-0.545
-0.54
-0.53
-0.525
-0.51
-0.505
-0.51
-0.485
-0.48
-0.455
-0.425
-0.39
-0.335
-0.265
-0.175
-0.075
0.01
0.095
0.21
0.285
0.32
0.345
0.355
0.4
0.47
0.49
0.46
0.315
0.075
-0.21
-0.485
-0.685
-0.805
-0.835
-0.805
-0.74
-0.69
-0.63
-0.59
-0.57
-0.56
-0.565
-0.585
-0.6
-0.605
-0.615
-0.615
-0.6
-0.605
-0.595
-0.585
-0.575
-0.57
-0.575
-0.58
-0.585
-0.585
-0.6
-0.6
-0.61
-0.605
-0.61
-0.59
-0.58
-0.585
-0.58
-0.575
-0.595
-0.615
-0.625
-0.625
-0.625
-0.625
-0.625
-0.61
-0.615
-0.61
-0.625
-0.63
-0.63
-0.63
-0.625
-0.635
-0.64
-0.64
-0.63
-0.635
-0.63
-0.625
-0.625
-0.625
-0.63
-0.63
-0.65
-0.655
-0.655
-0.655
-0.63
-0.62
-0.61
-0.595
-0.595
-0.59
-0.585
-0.58
-0.585
-0.58
-0.565
-0.565
-0.545
-0.525
-0.515
-0.495
-0.47
-0.47
-0.47
-0.48
-0.475
-0.46
-0.47
-0.455
-0.44
-0.445
-0.435
-0.425
-0.425
-0.425
-0.435
-0.44
-0.445
-0.45
-0.45
-0.46
-0.455
-0.455
-0.46
-0.455
-0.46
-0.455
-0.475
-0.475
-0.49
-0.505
-0.515
-0.51
-0.525
-0.505
-0.495
-0.5
-0.51
-0.515
-0.52
-0.525
-0.535
-0.54
-0.525
-0.53
-0.525
-0.53
-0.525
-0.52
-0.52
-0.53
-0.545
-0.545
-0.56
-0.56
-0.56
-0.535
-0.545
-0.535
-0.54
-0.555
-0.57
-0.56
-0.585
-0.585
-0.59
-0.575
-0.595
-0.585
-0.575
-0.565
-0.57
-0.57
-0.57
-0.57
-0.57
-0.58
-0.58
-0.58
-0.58
-0.56
-0.55
-0.545
-0.535
-0.525
-0.51
-0.515
-0.53
-0.52
-0.515
-0.52
-0.535
-0.5
-0.515
-0.5
-0.48
-0.465
-0.445
-0.44
-0.425
-0.425
-0.425
-0.43
-0.44
-0.425
-0.415
-0.43
-0.43
-0.42
-0.44
-0.465
-0.475
-0.49
-0.51
-0.525
-0.525
-0.545
-0.555
-0.555
-0.555
-0.555
-0.585
-0.585
-0.605
-0.59
-0.595
-0.605
-0.6
-0.59
-0.59
-0.57
-0.57
-0.555
-0.565
-0.565
-0.56
-0.565
-0.56
-0.555
-0.535
-0.52
-0.47
-0.415
-0.36
-0.275
-0.19
-0.11
-0.015
0.075
0.15
0.23
0.26
0.29
0.335
0.39
0.455
0.48
0.405
0.24
0.025
-0.225
-0.475
-0.67
-0.795
-0.84
-0.83
-0.78
-0.75
-0.705
-0.675
-0.66
-0.655
-0.66
-0.67
-0.67
-0.67
-0.67
-0.66
-0.655
-0.655
-0.645
-0.655
-0.64
-0.65
-0.655
-0.665
-0.66
-0.67
-0.68
-0.65
-0.65
-0.645
-0.63
-0.63
-0.64
-0.645
-0.655
-0.665
-0.675
-0.665
-0.67
-0.665
-0.66
-0.66
-0.645
-0.64
-0.65
-0.65
-0.665
-0.67
-0.675
-0.68
-0.67
-0.675
-0.67
-0.665
-0.665
-0.66
-0.675
-0.69
-0.685
-0.695
-0.7
-0.7
-0.69
-0.69
-0.67
-0.67
-0.655
-0.645
-0.64
-0.645
-0.645
-0.655
-0.655
-0.655
-0.66
-0.645
-0.63
-0.62
-0.59
-0.585
-0.575
-0.57
-0.565
-0.56
-0.575
-0.56
-0.55
-0.525
-0.505
-0.5
-0.49
-0.485
-0.49
-0.495
-0.505
-0.505
-0.51
-0.505
-0.51
-0.515
-0.51
-0.515
-0.495
-0.495
-0.495
-0.5
-0.51
-0.52
-0.53
-0.545
-0.54
-0.545
-0.55
-0.54
-0.545
-0.55
-0.545
-0.55
-0.555
-0.555
-0.58
-0.57
-0.575
-0.575
-0.57
-0.565
-0.55
-0.555
-0.56
-0.565
-0.585
-0.6
-0.595
-0.61
-0.595
-0.585
-0.585
-0.59
-0.575
-0.585
-0.575
-0.57
-0.6
-0.615
-0.595
-0.605
-0.605
-0.6
-0.595
-0.595
-0.59
-0.59
-0.595
-0.605
-0.6
-0.6
-0.61
-0.605
-0.6
-0.6
-0.585
-0.585
-0.575
-0.585
-0.59
-0.575
-0.57
-0.565
-0.575
-0.57
-0.57
-0.555
-0.54
-0.54
-0.54
-0.535
-0.535
-0.54
-0.535
-0.54
-0.535
-0.525
-0.525
-0.49
-0.48
-0.45
-0.435
-0.445
-0.43
-0.435
-0.44
-0.47
-0.47
-0.47
-0.495
-0.5
-0.5
-0.515
-0.525
-0.525
-0.545
-0.555
-0.585
-0.585
-0.6
-0.61
-0.625
-0.615
-0.635
-0.63
-0.615
-0.62
-0.615
-0.625
-0.63
-0.635
-0.63
-0.63
-0.625
-0.625
-0.6
-0.605
-0.595
-0.58
-0.575
-0.585
-0.58
-0.56
-0.545
-0.52
-0.47
-0.415
-0.345
-0.275
-0.205
-0.14
-0.055
0.0
0.075
0.135
0.165
0.18
0.21
0.255
0.32
0.375
0.375
0.28
0.125
-0.085
-0.325
-0.53
-0.71
-0.82
-0.875
-0.86
-0.83
-0.79
-0.75
-0.73
-0.7
-0.675
-0.665
-0.66
-0.66
-0.675
-0.69
-0.685
-0.695
-0.695
-0.69
-0.685
-0.675
-0.69
-0.69
-0.69
-0.695
-0.69
-0.69
-0.665
-0.655
-0.66
-0.65
-0.665
-0.675
-0.675
-0.685
-0.7
-0.705
-0.71
-0.71
-0.695
-0.685
-0.69
-0.68
-0.69
-0.69
-0.695
-0.7
-0.71
-0.72
-0.715
-0.72
-0.725
-0.715
-0.71
-0.695
-0.705
-0.7
-0.71
-0.71
-0.715
-0.735
-0.73
-0.725
-0.725
-0.715
-0.705
-0.68
-0.685
-0.675
-0.68
-0.67
-0.68
-0.675
-0.655
-0.665
-0.645
-0.625
-0.625
-0.595
-0.58
-0.57
-0.56
-0.555
-0.555
-0.56
-0.555
-0.555
-0.535
-0.53
-0.525
-0.52
-0.505
-0.52
-0.53
-0.535
-0.555
-0.56
-0.565
-0.575
-0.565
-0.565
-0.56
-0.555
-0.545
-0.55
-0.56
-0.565
-0.575
-0.575
-0.59
-0.59
-0.59
-0.59
-0.59
-0.585
-0.585
-0.6
-0.605
-0.6
-0.62
-0.62
-0.63
-0.62
-0.615
-0.615
-0.6
-0.6
-0.6
-0.615
-0.62
-0.64
-0.65
-0.645
-0.635
-0.63
-0.62
-0.62
-0.61
-0.615
-0.605
-0.615
-0.625
-0.635
-0.64
-0.66
-0.66
-0.655
-0.65
-0.64
-0.635
-0.625
-0.64
-0.63
-0.63
-0.635
-0.635
-0.645
-0.635
-0.62
-0.64
-0.61
-0.6
-0.585
-0.575
-0.57
-0.58
-0.6
-0.595
-0.59
-0.59
-0.58
-0.565
-0.555
-0.54
-0.525
-0.51
-0.505
-0.5
-0.49
-0.48
-0.485
-0.475
-0.47
-0.48
-0.475
-0.47
-0.47
-0.475
-0.48
-0.49
-0.505
-0.52
-0.53
-0.555
-0.555
-0.58
-0.56
-0.575
-0.575
-0.595
-0.62
-0.62
-0.64
-0.64
-0.65
-0.64
-0.65
-0.65
-0.645
-0.635
-0.63
-0.635
-0.635
-0.635
-0.63
-0.64
-0.64
-0.64
-0.635
-0.615
-0.61
-0.595
-0.585
-0.575
-0.555
-0.54
-0.495
-0.45
-0.38
-0.315
-0.255
-0.18
-0.09
-0.01
0.075
0.145
0.18
0.195
0.235
0.28
0.325
0.32
0.23
0.065
-0.165
-0.385
-0.605
-0.76
-0.84
-0.855
-0.84
-0.81
-0.785
-0.76
-0.735
-0.735
-0.705
-0.69
-0.675
-0.655
-0.665
-0.68
-0.685
-0.685
-0.685
-0.69
-0.685
-0.695
-0.675
-0.68
-0.66
-0.655
-0.66
-0.66
-0.665
-0.675
-0.68
-0.69
-0.69
-0.69
-0.69
-0.68
-0.66
-0.655
-0.655
-0.655
-0.67
-0.665
-0.68
-0.68
-0.675
-0.685
-0.68
-0.675
-0.66
-0.66
-0.655
-0.67
-0.675
-0.695
-0.695
-0.7
-0.69
-0.695
-0.7
-0.685
-0.685
-0.67
-0.685
-0.68
-0.69
-0.7
-0.705
-0.705
-0.7
-0.7
-0.68
-0.68
-0.655
-0.65
-0.64
-0.65
-0.655
-0.645
-0.655
-0.645
-0.645
-0.63
-0.6
-0.6
-0.585
-0.58
-0.56
-0.55
-0.545
-0.54
-0.535
-0.53
-0.52
-0.51
-0.495
-0.48
-0.485
-0.485
-0.49
-0.49
-0.5
-0.51
-0.51
-0.515
-0.515
-0.52
-0.515
-0.525
-0.525
-0.515
-0.535
-0.52
-0.525
-0.54
-0.56
-0.56
-0.555
-0.55
-0.545
-0.55
-0.545
-0.555
-0.56
-0.555
-0.555
-0.565
-0.575
-0.575
-0.585
-0.57
-0.565
-0.55
-0.54
-0.565
-0.57
-0.57
-0.57
-0.575
-0.575
-0.6
-0.61
-0.61
-0.615
-0.595
-0.58
-0.58
-0.59
-0.585
-0.6
-0.605
-0.61
-0.625
-0.615
-0.615
-0.595
-0.595
-0.585
-0.58
-0.58
-0.58
-0.59
-0.6
-0.615
-0.61
-0.61
-0.58
-0.57
-0.565
-0.555
-0.545
-0.535
-0.54
-0.54
-0.545
-0.545
-0.55
-0.545
-0.555
-0.54
-0.53
-0.52
-0.515
-0.5
-0.49
-0.49
-0.48
-0.47
-0.455
-0.46
-0.445
-0.445
-0.43
-0.42
-0.415
-0.43
-0.435
-0.45
-0.47
-0.495
-0.505
-0.495
-0.5
-0.5
-0.515
-0.52
-0.54
-0.55
-0.56
-0.575
-0.59
-0.6
-0.605
-0.615
-0.62
-0.62
-0.59
-0.59
-0.575
-0.58
-0.585
-0.585
-0.59
-0.595
-0.59
-0.59
-0.585
-0.56
-0.55
-0.525
-0.51
-0.485
-0.465
-0.435
-0.395
-0.345
-0.28
-0.215
-0.14
-0.04
0.055
0.135
0.205
0.24
0.26
0.265
0.285
0.335
0.39
0.415
0.365
0.255
0.07
-0.17
-0.4
-0.615
-0.755
-0.83
-0.86
-0.84
-0.8
-0.785
-0.755
-0.72
-0.715
-0.675
-0.67
-0.645
-0.645
-0.645
-0.645
-0.66
-0.665
-0.675
-0.665
-0.665
-0.665
-0.645
-0.635
-0.64
-0.64
-0.645
-0.65
-0.655
-0.67
-0.66
-0.665
-0.65
-0.65
-0.64
-0.64
-0.635
-0.64
-0.65
-0.655
-0.665
-0.67
-0.68
-0.68
-0.66
-0.66
-0.65
-0.65
-0.66
-0.645
-0.66
-0.67
-0.69
-0.685
-0.69
-0.69
-0.685
-0.68
-0.675
-0.67
-0.685
-0.69
-0.68
-0.69
-0.69
-0.69
-0.69
-0.69
-0.685
-0.665
-0.65
-0.655
-0.64
-0.645
-0.645
-0.655
-0.655
-0.655
-0.645
-0.63
-0.61
-0.59
-0.57
-0.57
-0.555
-0.56
-0.555
-0.56
-0.565
-0.56
-0.535
-0.515
-0.505
-0.485
-0.47
-0.45
-0.46
-0.47
-0.475
-0.485
-0.485
-0.495
-0.495
-0.51
-0.505
-0.505
-0.5
-0.485
-0.49
-0.505
-0.51
-0.52
-0.525
-0.535
-0.555
-0.55
-0.54
-0.53
-0.52
-0.51
-0.51
-0.52
-0.52
-0.53
-0.545
-0.555
-0.56
-0.565
-0.565
-0.555
-0.55
-0.555
-0.56
-0.545
-0.56
-0.565
-0.585
-0.58
-0.58
-0.565
-0.565
-0.56
-0.545
-0.535
-0.535
-0.545
-0.545
-0.56
-0.575
-0.58
-0.59
-0.59
-0.58
-0.57
-0.555
-0.545
-0.55
-0.565
-0.57
-0.57
-0.56
-0.56
-0.565
-0.55
-0.555
-0.525
-0.525
-0.52
-0.52
-0.51
-0.515
-0.505
-0.505
-0.495
-0.495
-0.5
-0.48
-0.465
-0.46
-0.46
-0.455
-0.435
-0.43
-0.43
-0.42
-0.41
-0.405
-0.39
-0.38
-0.37
-0.36
-0.36
-0.37
-0.38
-0.395
-0.41
-0.42
-0.435
-0.46
-0.465
-0.465
-0.47
-0.475
-0.48
-0.49
-0.505
-0.525
-0.52
-0.535
-0.55
-0.56
-0.55
-0.55
-0.54
-0.515
-0.51
-0.52
-0.525
-0.53
-0.53
-0.53
-0.525
-0.515
-0.505
-0.495
-0.49
-0.48
-0.465
-0.45
-0.42
-0.395
-0.36
-0.3
-0.24
-0.175
-0.11
-0.02
0.08
0.185
0.27
0.32
0.35
0.375
0.41
0.46
0.485
0.42
0.27
0.05
-0.22
-0.48
-0.66
-0.785
-0.805
-0.765
-0.72
-0.67
-0.64
-0.61
-0.59
-0.57
-0.555
-0.56
-0.56
-0.565
-0.56
-0.58
-0.59
-0.59
-0.59
-0.585
-0.585
-0.585
-0.585
-0.565
-0.565
-0.56
-0.57
-0.56
-0.57
-0.575
-0.57
-0.575
-0.58
-0.585
-0.575
-0.57
-0.56
-0.565
-0.565
-0.56
-0.57
-0.59
-0.595
-0.6
-0.595
-0.59
-0.58
-0.575
-0.57
-0.565
-0.57
-0.59
-0.59
-0.605
-0.6
-0.6
-0.6
-0.605
-0.595
-0.595
-0.575
-0.57
-0.575
-0.575
-0.585
-0.59
-0.6
-0.59
-0.59
-0.59
-0.575
-0.57
-0.56
-0.555
-0.54
-0.54
-0.525
-0.525
-0.53
-0.52
-0.51
-0.495
-0.49
-0.465
-0.455
-0.455
-0.44
-0.445
-0.43
-0.415
-0.42
-0.435
-0.42
-0.41
-0.39
-0.385
-0.39
-0.4
-0.405
-0.415
-0.425
-0.445
-0.435
-0.435
-0.455
-0.45
-0.435
-0.425
-0.415
-0.42
-0.43
-0.43
-0.45
-0.47
-0.475
-0.48
-0.475
-0.47
-0.46
-0.46
-0.465
-0.48
-0.48
-0.485
-0.485
-0.5
-0.5
-0.5
-0.515
-0.515
-0.505
-0.51
-0.5
-0.5
-0.495
-0.505
-0.52
-0.525
-0.545
-0.54
-0.535
-0.52
-0.53
-0.525
-0.515
-0.545
-0.545
-0.565
-0.555
-0.555
-0.555
-0.55
-0.555
-0.55
-0.555
-0.55
-0.55
-0.545
-0.545
-0.535
-0.535
-0.55
-0.545
-0.545
-0.54
-0.55
-0.54
-0.55
-0.555
-0.54
-0.525
-0.53
-0.52
-0.525
-0.52
-0.5
-0.5
-0.49
-0.49
-0.475
-0.475
-0.47
-0.46
-0.465
-0.455
-0.45
-0.445
-0.43
-0.435
-0.415
-0.385
-0.39
-0.385
-0.39
-0.405
-0.435
-0.44
-0.47
-0.485
-0.49
-0.485
-0.49
-0.495
-0.5
-0.495
-0.525
-0.52
-0.53
-0.55
-0.58
-0.59
-0.6
-0.6
-0.595
-0.585
-0.565
-0.555
-0.565
-0.56
-0.565
-0.555
-0.56
-0.565
-0.555
-0.56
-0.55
-0.545
-0.53
-0.49
-0.44
-0.395
-0.345
-0.28
-0.22
-0.145
-0.08
0.005
0.095
0.165
0.215
0.24
0.28
0.315
0.385
0.4
0.335
0.195
-0.015
-0.285
-0.515
-0.695
-0.785
-0.81
-0.8
-0.76
-0.72
-0.69
-0.67
-0.675
-0.655
-0.655
-0.65
-0.635
-0.63
-0.625
-0.61
-0.615
-0.625
-0.63
-0.63
-0.63
-0.635
-0.62
-0.625
-0.63
-0.61
-0.615
-0.62
-0.625
-0.635
-0.635
-0.645
-0.65
-0.645
-0.63
-0.63
-0.64
-0.64
-0.645
-0.655
-0.645
-0.65
-0.655
-0.665
-0.655
-0.66
-0.655
-0.65
-0.645
-0.635
-0.63
-0.635
-0.645
-0.66
-0.665
-0.67
-0.67
-0.665
-0.665
-0.67
-0.67
-0.665
-0.66
-0.675
-0.67
-0.665
-0.665
-0.65
-0.655
-0.645
-0.65
-0.635
-0.635
-0.605
-0.6
-0.59
-0.585
-0.585
-0.575
-0.57
-0.56
-0.555
-0.54
-0.53
-0.52
-0.5
-0.49
-0.485
-0.49
-0.495
-0.48
-0.48
-0.475
-0.475
-0.47
-0.465
-0.475
-0.48
-0.47
-0.475
-0.485
-0.5
-0.505
-0.52
-0.525
-0.52
-0.52
-0.515
-0.505
-0.495
-0.505
-0.51
-0.52
-0.535
-0.545
-0.54
-0.535
-0.535
-0.525
-0.525
-0.52
-0.53
-0.535
-0.54
-0.55
-0.565
-0.565
-0.565
-0.56
-0.565
-0.565
-0.56
-0.555
-0.555
-0.555
-0.565
-0.555
-0.565
-0.57
-0.57
-0.565
-0.575
-0.57
-0.57
-0.56
-0.555
-0.55
-0.55
-0.555
-0.56
-0.565
-0.565
-0.58
-0.58
-0.585
-0.565
-0.565
-0.56
-0.555
-0.555
-0.56
-0.57
-0.58
-0.575
-0.57
-0.555
-0.56
-0.54
-0.53
-0.52
-0.505
-0.505
-0.5
-0.51
-0.51
-0.52
-0.51
-0.51
-0.5
-0.465
-0.45
-0.43
-0.415
-0.395
-0.4
-0.41
-0.395
-0.405
-0.42
-0.425
-0.44
-0.44
-0.465
-0.46
-0.45
-0.47
-0.49
-0.505
-0.54
-0.55
-0.545
-0.55
-0.55
-0.55
-0.56
-0.56
-0.55
-0.56
-0.555
-0.575
-0.565
-0.575
-0.57
-0.565
-0.565
