Lead II
-0.225
-0.24
-0.22
-0.22
-0.205
-0.205
-0.16
-0.05
0.075
0.2
0.32
0.415
0.515
0.655
0.79
0.89
0.915
0.88
0.815
0.74
0.64
0.495
0.27
0.04
-0.105
-0.18
-0.205
-0.245
-0.29
-0.3
-0.32
-0.335
-0.335
-0.345
-0.355
-0.37
-0.38
-0.395
-0.395
-0.375
-0.385
-0.4
-0.425
-0.43
-0.415
-0.415
-0.41
-0.425
-0.435
-0.44
-0.435
-0.42
-0.42
-0.42
-0.425
-0.425
-0.405
-0.385
-0.39
-0.4
-0.415
-0.415
-0.4
-0.39
-0.39
-0.4
-0.415
-0.42
-0.42
-0.41
-0.4
-0.405
-0.405
-0.415
-0.405
-0.39
-0.395
-0.395
-0.405
-0.4
-0.405
-0.4
-0.38
-0.38
-0.395
-0.4
-0.38
-0.37
-0.365
-0.375
-0.385
-0.39
-0.385
-0.365
-0.355
-0.345
-0.355
-0.355
-0.335
-0.33
-0.325
-0.325
-0.335
-0.31
-0.3
-0.275
-0.26
-0.265
-0.26
-0.26
-0.245
-0.235
-0.215
-0.22
-0.23
-0.245
-0.22
-0.21
-0.205
-0.22
-0.235
-0.24
-0.225
-0.225
-0.225
-0.23
-0.24
-0.245
-0.24
-0.24
-0.23
-0.245
-0.255
-0.25
-0.245
-0.245
-0.23
-0.24
-0.25
-0.255
-0.245
-0.24
-0.235
-0.24
-0.24
-0.25
-0.235
-0.23
-0.215
-0.225
-0.23
-0.23
-0.21
-0.215
-0.195
-0.21
-0.21
-0.205
-0.19
-0.18
-0.185
-0.195
-0.205
-0.22
-0.2
-0.2
-0.21
-0.225
-0.23
-0.245
-0.25
-0.235
-0.235
-0.245
-0.255
-0.25
-0.255
-0.245
-0.23
-0.265
-0.26
-0.265
-0.26
-0.265
-0.265
-0.27
-0.275
-0.26
-0.24
-0.235
-0.215
-0.22
-0.23
-0.235
-0.215
-0.2
-0.21
-0.21
-0.215
-0.215
-0.2
-0.2
-0.205
-0.21
-0.215
-0.21
-0.19
-0.195
-0.195
-0.185
-0.195
-0.2
-0.2
-0.195
-0.185
-0.2
-0.205
-0.205
-0.205
-0.205
-0.21
-0.205
-0.215
-0.22
-0.21
-0.21
-0.205
-0.215
-0.235
-0.225
-0.205
-0.15
-0.05
0.055
0.17
0.3
0.43
0.57
0.7
0.81
0.89
0.905
0.87
0.815
0.725
0.56
0.36
0.12
-0.03
-0.105
-0.155
-0.21
-0.255
-0.29
-0.285
-0.28
-0.29
-0.305
-0.325
-0.33
-0.32
-0.325
-0.325
-0.335
-0.365
-0.365
-0.36
-0.35
-0.36
-0.37
-0.375
-0.385
-0.375
-0.37
-0.38
-0.38
-0.4
-0.42
-0.405
-0.405
-0.39
-0.385
-0.41
-0.4
-0.42
-0.4
-0.41
-0.42
-0.435
-0.43
-0.415
-0.405
-0.4
-0.41
-0.415
-0.405
-0.405
-0.385
-0.38
-0.385
-0.385
-0.39
-0.38
-0.375
-0.375
-0.365
-0.37
-0.365
-0.355
-0.335
-0.33
-0.33
-0.34
-0.34
-0.32
-0.305
-0.29
-0.3
-0.31
-0.295
-0.275
-0.265
-0.265
-0.26
-0.26
-0.265
-0.25
-0.225
-0.225
-0.225
-0.22
-0.22
-0.215
-0.21
-0.205
-0.215
-0.215
-0.215
-0.22
-0.205
-0.215
-0.225
-0.23
-0.245
-0.235
-0.23
-0.22
-0.23
-0.235
-0.235
-0.235
-0.225
-0.21
-0.225
-0.225
-0.225
-0.22
-0.21
-0.22
-0.225
-0.235
-0.24
-0.215
-0.2
-0.2
-0.2
-0.205
-0.215
-0.195
-0.18
-0.175
-0.185
-0.2
-0.195
-0.19
-0.19
-0.185
-0.205
-0.22
-0.215
-0.215
-0.2
-0.205
-0.225
-0.235
-0.22
-0.225
-0.215
-0.21
-0.215
-0.23
-0.22
-0.225
-0.22
-0.22
-0.22
-0.23
-0.245
-0.245
-0.22
-0.21
-0.215
-0.235
-0.24
-0.22
-0.21
-0.215
-0.22
-0.225
-0.23
-0.215
-0.205
-0.205
-0.215
-0.225
-0.215
-0.215
-0.21
-0.195
-0.205
-0.2
-0.2
-0.18
-0.175
-0.185
-0.185
-0.2
-0.2
-0.18
-0.18
-0.175
-0.19
-0.21
-0.21
-0.205
-0.19
-0.195
-0.21
-0.23
-0.235
-0.225
-0.215
-0.205
-0.22
-0.245
-0.245
-0.235
-0.215
-0.225
-0.24
-0.25
-0.245
-0.255
-0.24
-0.235
-0.25
-0.25
-0.26
-0.25
-0.24
-0.22
-0.24
-0.235
-0.24
-0.23
-0.2
-0.205
-0.2
-0.22
-0.2
-0.18
-0.165
-0.16
-0.17
-0.18
-0.18
-0.18
-0.17
-0.165
-0.14
-0.08
0.01
0.115
0.255
0.355
0.455
0.54
0.665
0.79
0.89
0.96
0.96
0.915
0.855
0.8
0.73
0.615
0.425
0.205
0.01
-0.09
-0.13
-0.175
-0.23
-0.285
-0.325
-0.315
-0.305
-0.325
-0.35
-0.375
-0.375
-0.385
-0.375
-0.375
-0.39
-0.405
-0.405
-0.395
-0.38
-0.38
-0.385
-0.39
-0.4
-0.385
-0.38
-0.38
-0.385
-0.4
-0.405
-0.39
-0.38
-0.38
-0.375
-0.39
-0.375
-0.37
-0.36
-0.365
-0.365
-0.395
-0.4
-0.37
-0.375
-0.38
-0.38
-0.38
-0.395
-0.385
-0.38
-0.375
-0.385
-0.395
-0.41
-0.39
-0.375
-0.37
-0.38
-0.385
-0.39
-0.38
-0.36
-0.365
-0.36
-0.375
-0.385
-0.375
-0.365
-0.37
-0.38
-0.385
-0.405
-0.385
-0.385
-0.37
-0.365
-0.37
-0.365
-0.35
-0.32
-0.32
-0.32
-0.315
-0.305
-0.305
-0.275
-0.265
-0.27
-0.28
-0.265
-0.245
-0.23
-0.21
-0.21
-0.215
-0.205
-0.2
-0.185
-0.185
-0.19
-0.21
-0.215
-0.2
-0.185
-0.185
-0.2
-0.205
-0.21
-0.2
-0.195
-0.195
-0.205
-0.21
-0.205
-0.2
-0.19
-0.21
-0.215
-0.22
-0.22
-0.205
-0.2
-0.205
-0.22
-0.225
-0.23
-0.23
-0.22
-0.22
-0.225
-0.245
-0.245
-0.245
-0.245
-0.225
-0.225
-0.235
-0.235
-0.22
-0.215
-0.21
-0.22
-0.22
-0.23
-0.215
-0.205
-0.195
-0.205
-0.205
-0.195
-0.185
-0.175
-0.175
-0.18
-0.19
-0.185
-0.17
-0.17
-0.16
-0.17
-0.18
-0.185
-0.17
-0.165
-0.175
-0.17
-0.175
-0.18
-0.18
-0.18
-0.175
-0.19
-0.2
-0.21
-0.2
-0.19
-0.18
-0.195
-0.2
-0.2
-0.205
-0.2
-0.2
-0.205
-0.215
-0.225
-0.22
-0.215
-0.205
-0.215
-0.215
-0.215
-0.205
-0.21
-0.195
-0.195
-0.205
-0.2
-0.19
-0.185
-0.19
-0.185
-0.21
-0.205
-0.205
-0.205
-0.19
-0.21
-0.22
-0.225
-0.21
-0.205
-0.205
-0.215
-0.21
-0.2
-0.19
-0.185
-0.175
-0.185
-0.195
-0.195
-0.195
-0.19
-0.195
-0.21
-0.2
-0.195
-0.19
-0.185
-0.175
-0.195
-0.215
-0.23
-0.215
-0.205
-0.22
-0.215
-0.25
-0.22
-0.215
-0.22
-0.21
-0.21
-0.235
-0.235
-0.215
-0.205
-0.205
-0.22
-0.235
-0.235
-0.225
-0.215
-0.215
-0.225
-0.225
-0.24
-0.225
-0.205
-0.2
-0.2
-0.22
-0.205
-0.2
-0.185
-0.175
-0.175
-0.18
-0.2
-0.18
-0.165
-0.155
-0.155
-0.155
-0.15
-0.16
-0.15
-0.145
-0.16
-0.185
-0.175
-0.155
-0.08
0.0
0.105
0.21
0.315
0.43
0.53
0.64
0.755
0.86
0.915
0.95
0.92
0.86
0.795
0.715
0.545
0.35
0.13
-0.03
-0.105
-0.15
-0.2
-0.24
-0.275
-0.285
-0.295
-0.315
-0.33
-0.33
-0.335
-0.335
-0.355
-0.36
-0.355
-0.36
-0.345
-0.34
-0.345
-0.35
-0.365
-0.355
-0.34
-0.345
-0.35
-0.345
-0.355
-0.33
-0.33
-0.33
-0.34
-0.36
-0.36
-0.345
-0.35
-0.345
-0.355
-0.365
-0.365
-0.38
-0.375
-0.365
-0.375
-0.39
-0.4
-0.385
-0.375
-0.365
-0.38
-0.39
-0.4
-0.39
-0.37
-0.36
-0.36
-0.365
-0.365
-0.355
-0.365
-0.365
-0.36
-0.365
-0.37
-0.365
-0.36
-0.345
-0.355
-0.35
-0.345
-0.34
-0.325
-0.32
-0.335
-0.335
-0.32
-0.31
-0.295
-0.28
-0.28
-0.28
-0.27
-0.25
-0.235
-0.225
-0.225
-0.225
-0.23
-0.205
-0.195
-0.195
-0.19
-0.2
-0.21
-0.205
-0.18
-0.18
-0.195
-0.21
-0.205
-0.205
-0.19
-0.19
-0.205
-0.205
-0.21
-0.2
-0.19
-0.19
-0.19
-0.21
-0.21
-0.205
-0.205
-0.21
-0.22
-0.235
-0.24
-0.23
-0.23
-0.23
-0.24
-0.235
-0.24
-0.225
-0.21
-0.205
-0.21
-0.245
-0.23
-0.23
-0.22
-0.225
-0.225
-0.235
-0.235
-0.215
-0.2
-0.2
-0.2
-0.2
-0.215
-0.185
-0.175
-0.17
-0.175
-0.195
-0.185
-0.175
-0.165
-0.165
-0.19
-0.205
-0.215
-0.21
-0.19
-0.195
-0.205
-0.205
-0.21
-0.205
-0.19
-0.19
-0.205
-0.205
-0.22
-0.21
-0.205
-0.195
-0.2
-0.225
-0.22
-0.225
-0.22
-0.22
-0.23
-0.25
-0.27
-0.255
-0.235
-0.225
-0.23
-0.235
-0.245
-0.235
-0.225
-0.23
-0.23
-0.24
-0.24
-0.24
-0.22
-0.215
-0.22
-0.225
-0.23
-0.22
-0.2
-0.185
-0.195
-0.21
-0.195
-0.18
-0.165
-0.175
-0.185
-0.185
-0.185
-0.185
-0.175
-0.165
-0.175
-0.19
-0.195
-0.195
-0.195
-0.19
-0.19
-0.205
-0.205
-0.205
-0.185
-0.185
-0.19
-0.195
-0.215
-0.205
-0.21
-0.21
-0.19
-0.19
-0.12
-0.035
0.08
0.2
0.305
0.405
0.51
0.625
0.775
0.88
0.945
0.955
0.92
0.87
0.815
0.735
0.61
0.405
0.195
0.01
-0.1
-0.135
-0.16
-0.21
-0.265
-0.28
-0.29
-0.275
-0.27
-0.305
-0.315
-0.31
-0.3
-0.3
-0.325
-0.325
-0.345
-0.33
-0.34
-0.33
-0.345
-0.36
-0.375
-0.375
-0.37
-0.37
-0.38
-0.39
-0.395
-0.39
-0.385
-0.4
-0.395
-0.415
-0.415
-0.405
-0.395
-0.41
-0.41
-0.44
-0.445
-0.43
-0.42
-0.405
-0.43
-0.435
-0.445
-0.435
-0.415
-0.425
-0.41
-0.425
-0.425
-0.41
-0.4
-0.395
-0.395
-0.405
-0.41
-0.4
-0.37
-0.355
-0.375
-0.375
-0.365
-0.35
-0.335
-0.325
-0.33
-0.335
-0.335
-0.325
-0.315
-0.31
-0.31
-0.315
-0.325
-0.305
-0.3
-0.285
-0.285
-0.29
-0.285
-0.28
-0.24
-0.235
-0.255
-0.25
-0.25
-0.24
-0.22
-0.22
-0.225
-0.24
-0.25
-0.245
-0.23
-0.23
-0.235
-0.255
-0.26
-0.245
-0.225
-0.23
-0.23
-0.255
-0.255
-0.23
-0.235
-0.22
-0.245
-0.24
-0.245
-0.24
-0.225
-0.22
-0.225
-0.235
-0.23
-0.225
-0.205
-0.21
-0.21
-0.22
-0.22
-0.215
-0.22
-0.205
-0.215
-0.24
-0.25
-0.245
-0.235
-0.22
-0.23
-0.23
-0.24
-0.24
-0.23
-0.225
-0.23
-0.235
-0.25
-0.25
-0.235
-0.24
-0.24
-0.26
-0.255
-0.25
-0.245
-0.22
-0.23
-0.235
-0.25
-0.235
-0.245
-0.23
-0.245
-0.25
-0.265
-0.245
-0.235
-0.23
-0.23
-0.235
-0.23
-0.215
-0.21
-0.2
-0.21
-0.225
-0.22
-0.205
-0.185
-0.17
-0.19
-0.21
-0.22
-0.215
-0.205
-0.21
-0.225
-0.245
-0.255
-0.24
-0.23
-0.24
-0.245
-0.25
-0.255
-0.255
-0.25
-0.245
-0.25
-0.255
-0.26
-0.25
-0.24
-0.235
-0.245
-0.265
-0.28
-0.25
-0.225
-0.23
-0.23
-0.24
-0.245
-0.24
-0.225
-0.22
-0.22
-0.24
-0.24
-0.225
-0.215
-0.205
-0.215
-0.225
-0.23
-0.215
-0.205
-0.215
-0.215
-0.235
-0.23
-0.235
-0.225
-0.21
-0.215
-0.24
-0.225
-0.225
-0.205
-0.2
-0.205
-0.22
-0.23
-0.225
-0.215
-0.215
-0.21
-0.235
-0.23
-0.235
-0.215
-0.225
-0.24
-0.24
-0.255
-0.26
-0.235
-0.23
-0.24
-0.245
-0.25
-0.23
-0.225
-0.215
-0.235
-0.235
-0.235
-0.23
-0.215
-0.215
-0.225
-0.235
-0.23
-0.225
-0.215
-0.215
-0.205
-0.215
-0.21
-0.215
-0.195
-0.2
-0.215
-0.22
-0.225
-0.225
-0.215
-0.205
-0.215
-0.225
-0.23
-0.225
-0.205
-0.205
-0.215
-0.22
-0.215
-0.205
-0.19
-0.195
-0.195
-0.225
-0.22
-0.215
-0.2
-0.205
-0.215
-0.23
-0.23
-0.235
-0.225
-0.235
-0.22
-0.24
-0.245
-0.23
-0.205
-0.21
-0.215
-0.225
-0.23
-0.22
-0.205
-0.19
-0.2
-0.215
-0.215
-0.195
-0.13
-0.045
0.055
0.175
0.285
0.365
0.48
0.605
0.73
0.82
0.87
0.86
0.83
0.78
0.69
0.565
0.345
0.105
-0.065
-0.135
-0.18
-0.215
-0.255
-0.29
-0.3
-0.3
-0.3
-0.33
-0.335
-0.35
-0.35
-0.355
-0.36
-0.37
-0.375
-0.385
-0.38
-0.375
-0.38
-0.385
-0.39
-0.385
-0.39
-0.375
-0.38
-0.385
-0.405
-0.4
-0.385
-0.38
-0.385
-0.39
-0.395
-0.38
-0.365
-0.35
-0.355
-0.365
-0.365
-0.365
-0.345
-0.335
-0.345
-0.355
-0.37
-0.37
-0.345
-0.33
-0.335
-0.34
-0.35
-0.35
-0.33
-0.32
-0.325
-0.335
-0.34
-0.33
-0.32
-0.315
-0.32
-0.345
-0.34
-0.335
-0.325
-0.325
-0.345
-0.345
-0.335
-0.33
-0.32
-0.31
-0.315
-0.31
-0.31
-0.3
-0.275
-0.27
-0.275
-0.27
-0.275
-0.26
-0.24
-0.24
-0.23
-0.23
-0.215
-0.21
-0.195
-0.185
-0.205
-0.215
-0.215
-0.215
-0.21
-0.2
-0.205
-0.215
-0.215
-0.215
-0.21
-0.2
-0.21
-0.225
-0.225
-0.22
-0.2
-0.205
-0.215
-0.22
-0.225
-0.22
-0.21
-0.215
-0.235
-0.235
-0.25
-0.245
-0.23
-0.24
-0.235
-0.235
-0.245
-0.235
-0.21
-0.205
-0.21
-0.215
-0.215
-0.21
-0.2
-0.205
-0.2
-0.215
-0.205
-0.205
-0.2
-0.2
-0.195
-0.195
-0.21
-0.195
-0.195
-0.2
-0.205
-0.22
-0.225
-0.22
-0.21
-0.215
-0.215
-0.25
-0.23
-0.23
-0.22
-0.22
-0.205
-0.22
-0.23
-0.21
-0.2
-0.205
-0.23
-0.225
-0.23
-0.22
-0.215
-0.22
-0.225
-0.23
-0.24
-0.245
-0.235
-0.225
-0.22
-0.24
-0.24
-0.235
-0.225
-0.22
-0.22
-0.24
-0.24
-0.23
-0.23
-0.225
-0.23
-0.23
-0.235
-0.23
-0.205
-0.2
-0.195
-0.21
-0.22
-0.215
-0.21
-0.205
-0.23
-0.24
-0.255
-0.25
-0.25
-0.235
-0.235
-0.255
-0.265
-0.25
-0.24
-0.24
-0.25
-0.255
-0.255
-0.245
-0.23
-0.22
-0.235
-0.25
-0.245
-0.245
-0.24
-0.22
-0.24
-0.255
-0.26
-0.26
-0.255
-0.24
-0.245
-0.255
-0.27
-0.25
-0.245
-0.23
-0.24
-0.255
-0.25
-0.25
-0.23
-0.22
-0.24
-0.24
-0.235
-0.23
-0.225
-0.215
-0.205
-0.215
-0.225
-0.205
-0.2
-0.2
-0.2
-0.225
-0.25
-0.245
-0.225
-0.225
-0.245
-0.27
-0.26
-0.245
-0.235
-0.24
-0.235
-0.24
-0.245
-0.25
-0.23
-0.23
-0.225
-0.24
-0.245
-0.255
-0.24
-0.24
-0.25
-0.255
-0.27
-0.255
-0.25
-0.24
-0.255
-0.25
-0.245
-0.255
-0.23
-0.23
-0.235
-0.245
-0.26
-0.24
-0.23
-0.215
-0.215
-0.225
-0.235
-0.215
-0.205
-0.195
-0.2
-0.21
-0.205
-0.21
-0.215
-0.205
-0.23
-0.235
-0.25
-0.26
-0.25
-0.245
-0.255
-0.265
-0.265
-0.255
-0.235
-0.225
-0.25
-0.235
-0.24
-0.24
-0.225
-0.225
-0.23
-0.25
-0.265
-0.265
-0.245
-0.23
-0.235
-0.24
-0.255
-0.245
-0.235
-0.235
-0.24
-0.255
-0.255
-0.245
-0.24
-0.21
-0.215
-0.225
-0.23
-0.23
-0.21
-0.195
-0.2
-0.21
-0.215
-0.215
-0.2
-0.19
-0.21
-0.22
-0.225
-0.22
-0.215
-0.22
-0.235
-0.25
-0.25
-0.25
-0.245
-0.225
-0.22
-0.23
-0.225
-0.23
-0.21
-0.195
-0.215
-0.225
-0.22
-0.215
-0.21
-0.205
-0.2
-0.215
-0.22
-0.22
-0.15
-0.065
0.04
0.135
0.235
0.32
0.435
0.555
0.68
0.76
0.8
0.81
0.78
0.745
0.685
0.55
0.355
0.105
-0.065
-0.15
-0.175
-0.215
-0.26
-0.28
-0.285
-0.285
-0.305
-0.32
-0.35
-0.35
-0.355
-0.35
-0.37
-0.395
-0.39
-0.4
-0.385
-0.375
-0.385
-0.39
-0.4
-0.395
-0.39
-0.39
-0.39
-0.41
-0.415
-0.415
-0.405
-0.41
-0.415
-0.425
-0.43
-0.42
-0.41
-0.41
-0.415
-0.42
-0.43
-0.41
-0.395
-0.4
-0.4
-0.42
-0.415
-0.41
-0.385
-0.365
-0.37
-0.37
-0.37
-0.37
-0.355
-0.34
-0.34
-0.35
-0.37
-0.35
-0.335
-0.34
-0.335
-0.345
-0.355
-0.35
-0.36
-0.35
-0.35
-0.355
-0.365
-0.365
-0.345
-0.335
-0.33
-0.35
-0.335
-0.325
-0.32
-0.315
-0.325
-0.335
-0.33
-0.325
-0.31
-0.305
-0.3
-0.295
-0.31
-0.29
-0.28
-0.265
-0.255
-0.265
-0.265
-0.26
-0.25
-0.23
-0.24
-0.255
-0.26
-0.24
-0.23
-0.225
-0.225
-0.23
-0.235
-0.235
-0.215
-0.22
-0.215
-0.24
-0.24
-0.24
-0.225
-0.22
-0.23
-0.24
-0.26
-0.265
-0.27
-0.26
-0.26
-0.27
-0.275
-0.27
-0.26
-0.25
-0.255
-0.265
-0.27
-0.285
-0.265
-0.27
-0.27
-0.27
-0.28
-0.27
-0.255
-0.245
-0.24
-0.26
-0.255
-0.25
-0.23
-0.22
-0.23
-0.245
-0.25
-0.25
-0.24
-0.245
-0.24
-0.245
-0.245
-0.245
-0.235
-0.225
-0.22
-0.235
-0.23
-0.225
-0.215
-0.215
-0.21
-0.22
-0.24
-0.245
-0.235
-0.235
-0.255
-0.265
-0.28
-0.28
-0.26
-0.24
-0.245
-0.255
-0.275
-0.27
-0.26
-0.245
-0.245
-0.255
-0.265
-0.27
-0.255
-0.245
-0.25
-0.25
-0.25
-0.255
-0.245
-0.235
-0.22
-0.24
-0.24
-0.235
-0.225
-0.225
-0.23
-0.23
-0.235
-0.235
-0.23
-0.21
-0.215
-0.21
-0.22
-0.21
-0.205
-0.2
-0.205
-0.23
-0.23
-0.225
-0.21
-0.2
-0.225
-0.225
-0.24
-0.245
-0.245
-0.245
-0.26
-0.255
-0.26
-0.245
-0.25
-0.225
-0.235
-0.26
-0.25
-0.23
-0.14
-0.025
0.085
0.2
0.31
0.42
0.54
0.7
0.815
0.895
0.94
0.94
0.89
0.83
0.735
0.595
0.38
0.15
-0.03
-0.105
-0.15
-0.205
-0.265
-0.28
-0.275
-0.27
-0.295
-0.305
-0.315
-0.315
-0.32
-0.315
-0.32
-0.345
-0.36
-0.365
-0.35
-0.34
-0.365
-0.375
-0.395
-0.395
-0.395
-0.38
-0.39
-0.41
-0.4
-0.4
-0.4
-0.395
-0.385
-0.41
-0.395
-0.405
-0.41
-0.4
-0.4
-0.415
-0.42
-0.41
-0.405
-0.39
-0.39
-0.415
-0.41
-0.41
-0.405
-0.39
-0.39
-0.415
-0.4
-0.41
-0.395
-0.38
-0.39
-0.395
-0.4
-0.38
-0.365
-0.35
-0.345
-0.34
-0.345
-0.325
-0.32
-0.31
-0.32
-0.325
-0.33
-0.335
-0.32
-0.295
-0.3
-0.3
-0.315
-0.31
-0.31
-0.29
-0.275
-0.29
-0.28
-0.27
-0.25
-0.255
-0.25
-0.24
-0.25
-0.24
-0.24
-0.225
-0.23
-0.25
-0.25
-0.24
-0.24
-0.235
-0.225
-0.24
-0.245
-0.24
-0.23
-0.22
-0.23
-0.235
-0.235
-0.235
-0.23
-0.22
-0.22
-0.22
-0.23
-0.235
-0.22
-0.21
-0.215
-0.22
-0.22
-0.215
-0.2
-0.215
-0.215
-0.21
-0.215
-0.225
-0.22
-0.21
-0.21
-0.23
-0.24
-0.25
-0.235
-0.245
-0.24
-0.24
-0.255
-0.25
-0.235
-0.22
-0.23
-0.235
-0.235
-0.24
-0.225
-0.225
-0.225
-0.255
-0.25
-0.25
-0.235
-0.23
-0.235
-0.245
-0.26
-0.25
-0.235
-0.235
-0.22
-0.23
-0.245
-0.24
-0.24
-0.22
-0.235
-0.245
-0.245
-0.245
-0.23
-0.23
-0.22
-0.225
-0.225
-0.23
-0.21
-0.21
-0.215
-0.225
-0.225
-0.215
-0.22
-0.215
-0.22
-0.23
-0.235
-0.235
-0.23
-0.235
-0.245
-0.26
-0.265
-0.28
-0.27
-0.265
-0.275
-0.28
-0.285
-0.285
-0.275
-0.26
-0.25
-0.27
-0.28
-0.275
-0.255
-0.245
-0.26
-0.265
-0.27
-0.265
-0.25
-0.235
-0.23
-0.235
-0.245
-0.245
-0.235
-0.22
-0.22
-0.23
-0.24
-0.24
-0.22
-0.225
-0.22
-0.22
-0.225
-0.215
-0.2
-0.205
-0.195
-0.21
-0.205
-0.215
-0.205
-0.19
-0.195
-0.195
-0.205
-0.2
-0.21
-0.19
-0.205
-0.22
-0.23
-0.24
-0.22
-0.215
-0.235
-0.25
-0.215
-0.135
0.005
0.145
0.295
0.43
0.555
0.735
0.87
0.915
0.85
0.74
0.565
0.295
-0.01
-0.18
-0.23
-0.27
-0.315
-0.32
-0.305
-0.3
-0.32
-0.33
-0.34
-0.335
-0.345
-0.34
-0.35
-0.355
-0.365
-0.36
-0.365
-0.36
-0.37
-0.38
-0.385
-0.4
-0.385
-0.385
-0.385
-0.385
-0.39
-0.405
-0.41
-0.39
-0.395
-0.415
-0.425
-0.42
-0.43
-0.425
-0.42
-0.43
-0.44
-0.44
-0.43
-0.41
-0.41
-0.41
-0.415
-0.42
-0.405
-0.39
-0.39
-0.385
-0.385
-0.375
-0.375
-0.355
-0.365
-0.355
-0.355
-0.355
-0.34
-0.325
-0.315
-0.32
-0.335
-0.315
-0.305
-0.295
-0.28
-0.295
-0.295
-0.295
-0.28
-0.265
-0.28
-0.27
-0.275
-0.27
-0.26
-0.23
-0.23
-0.24
-0.24
-0.255
-0.235
-0.23
-0.23
-0.24
-0.245
-0.255
-0.255
-0.235
-0.24
-0.25
-0.26
-0.26
-0.255
-0.26
-0.25
-0.26
-0.26
-0.26
-0.245
-0.24
-0.24
-0.255
-0.255
-0.24
-0.235
-0.23
-0.22
-0.21
-0.215
-0.215
-0.2
-0.19
-0.185
-0.185
-0.195
-0.19
-0.18
-0.17
-0.17
-0.18
-0.195
-0.19
-0.175
-0.17
-0.18
-0.2
-0.22
-0.22
-0.22
-0.205
-0.205
-0.215
-0.225
-0.225
-0.225
-0.22
-0.215
-0.235
-0.235
-0.24
-0.245
-0.225
-0.235
-0.245
-0.25
-0.265
-0.245
-0.235
-0.23
-0.245
-0.25
-0.235
-0.24
-0.235
-0.26
-0.255
-0.27
-0.26
-0.26
-0.255
-0.255
-0.26
-0.255
-0.255
-0.24
-0.225
-0.225
-0.225
-0.225
-0.225
-0.205
-0.195
-0.19
-0.2
-0.195
-0.19
-0.19
-0.175
-0.185
-0.185
-0.205
-0.215
-0.22
-0.205
-0.22
-0.22
-0.235
-0.23
-0.23
-0.21
-0.225
-0.25
-0.245
-0.25
-0.235
-0.235
-0.23
-0.265
-0.26
-0.255
-0.25
-0.245
-0.24
-0.25
-0.26
-0.27
-0.25
-0.235
-0.245
-0.265
-0.275
-0.25
-0.255
-0.24
-0.245
-0.26
-0.27
-0.265
-0.255
-0.235
-0.23
-0.24
-0.24
-0.22
-0.22
-0.2
-0.205
-0.21
-0.225
-0.225
-0.2
-0.2
-0.19
-0.2
-0.205
-0.2
-0.18
-0.18
-0.185
-0.2
-0.215
-0.21
-0.17
-0.11
-0.02
0.08
0.19
0.315
0.44
0.545
0.675
0.79
0.895
0.945
0.945
0.91
0.845
0.76
0.635
0.44
0.195
-0.005
-0.125
-0.17
-0.21
-0.265
-0.3
-0.31
-0.32
-0.335
-0.355
-0.355
-0.35
-0.35
-0.355
-0.36
-0.375
-0.365
-0.36
-0.35
-0.355
-0.355
-0.38
-0.365
-0.355
-0.35
-0.355
-0.365
-0.36
-0.36
-0.345
-0.34
-0.345
-0.36
-0.375
-0.385
-0.385
-0.38
-0.37
-0.375
-0.38
-0.38
-0.38
-0.39
-0.37
-0.385
-0.38
-0.38
-0.375
-0.365
-0.385
-0.4
-0.385
-0.39
-0.395
-0.37
-0.37
-0.375
-0.39
-0.375
-0.36
-0.355
-0.355
-0.36
-0.365
-0.35
-0.345
-0.33
-0.34
-0.345
-0.34
-0.345
-0.33
-0.315
-0.31
-0.3
-0.305
-0.29
-0.28
-0.25
-0.235
-0.24
-0.25
-0.245
-0.225
-0.22
-0.225
-0.225
-0.25
-0.235
-0.215
-0.205
-0.205
-0.2
-0.21
-0.215
-0.22
-0.2
-0.2
-0.215
-0.225
-0.215
-0.215
-0.21
-0.21
-0.225
-0.24
-0.24
-0.24
-0.225
-0.235
-0.245
-0.23
-0.23
-0.215
-0.21
-0.205
-0.22
-0.23
-0.225
-0.21
-0.195
-0.205
-0.2
-0.205
-0.205
-0.175
-0.165
-0.16
-0.165
-0.18
-0.17
-0.16
-0.15
-0.155
-0.16
-0.175
-0.17
-0.185
-0.175
-0.185
-0.195
-0.2
-0.21
-0.205
-0.2
-0.195
-0.21
-0.23
-0.23
-0.215
-0.205
-0.22
-0.24
-0.255
-0.265
-0.27
-0.25
-0.255
-0.26
-0.265
-0.265
-0.255
-0.24
-0.24
-0.24
-0.25
-0.265
-0.235
-0.235
-0.22
-0.235
-0.235
-0.23
-0.21
-0.195
-0.195
-0.205
-0.19
-0.185
-0.165
-0.165
-0.18
-0.18
-0.185
-0.19
-0.18
-0.17
-0.165
-0.19
-0.19
-0.205
-0.2
-0.19
-0.195
-0.205
-0.22
-0.21
-0.2
-0.195
-0.21
-0.205
-0.225
-0.23
-0.2
-0.205
-0.215
-0.21
-0.22
-0.235
-0.24
-0.21
-0.22
-0.245
-0.245
-0.24
-0.155
-0.035
0.075
0.21
0.32
0.435
0.56
0.695
0.81
0.89
0.94
0.945
0.94
0.895
0.84
0.76
0.64
0.465
0.25
0.065
-0.055
-0.115
-0.145
-0.2
-0.225
-0.25
-0.255
-0.27
-0.28
-0.3
-0.295
-0.29
-0.305
-0.32
-0.34
-0.345
-0.34
-0.35
-0.36
-0.37
-0.39
-0.385
-0.37
-0.37
-0.375
-0.395
-0.41
-0.425
-0.41
-0.395
-0.405
-0.415
-0.43
-0.445
-0.425
-0.43
-0.42
-0.43
-0.445
-0.455
-0.445
-0.425
-0.415
-0.425
-0.425
-0.42
-0.41
-0.395
-0.4
-0.415
-0.42
-0.405
-0.405
-0.38
-0.39
-0.38
-0.395
-0.38
-0.365
-0.345
-0.35
-0.355
-0.35
-0.345
-0.325
-0.325
-0.33
-0.335
-0.33
-0.33
-0.325
-0.31
-0.31
-0.33
-0.345
-0.355
-0.34
-0.33
-0.335
-0.33
-0.33
-0.32
-0.32
-0.305
-0.305
-0.3
-0.305
-0.285
-0.275
-0.26
-0.265
-0.28
-0.265
-0.26
-0.265
-0.25
-0.255
-0.27
-0.28
-0.25
-0.23
-0.23
-0.22
-0.24
-0.25
-0.24
-0.225
-0.205
-0.21
-0.22
-0.215
-0.225
-0.205
-0.19
-0.185
-0.205
-0.205
-0.195
-0.18
-0.165
-0.18
-0.185
-0.2
-0.19
-0.18
-0.175
-0.18
-0.19
-0.21
-0.205
-0.21
-0.21
-0.21
-0.22
-0.24
-0.26
-0.23
-0.205
-0.24
-0.225
-0.24
-0.24
-0.225
-0.195
-0.2
-0.22
-0.215
-0.23
-0.21
-0.22
-0.205
-0.225
-0.24
-0.235
-0.22
-0.21
-0.205
-0.21
-0.21
-0.205
-0.195
-0.185
-0.19
-0.2
-0.205
-0.2
-0.185
-0.19
-0.2
-0.2
-0.22
-0.215
-0.2
-0.19
-0.185
-0.185
-0.195
-0.195
-0.18
-0.165
-0.175
-0.19
-0.2
-0.195
-0.18
-0.175
-0.175
-0.2
-0.21
-0.22
-0.22
-0.21
-0.23
-0.245
-0.25
-0.255
-0.245
-0.235
-0.245
-0.26
-0.25
-0.245
-0.23
-0.225
-0.22
-0.245
-0.255
-0.265
-0.235
-0.245
-0.23
-0.25
-0.255
-0.245
-0.225
-0.225
-0.22
-0.23
-0.235
-0.235
-0.225
-0.215
-0.21
-0.225
-0.23
-0.23
-0.215
-0.21
-0.205
-0.215
-0.22
-0.23
-0.2
-0.19
-0.19
-0.205
-0.2
-0.205
-0.185
-0.175
-0.18
-0.19
-0.21
-0.195
-0.185
-0.165
-0.18
-0.19
-0.2
-0.205
-0.205
-0.19
-0.195
-0.205
-0.23
-0.23
-0.215
-0.22
-0.23
-0.235
-0.23
-0.24
-0.235
-0.21
-0.21
-0.215
-0.22
-0.23
-0.22
-0.22
-0.22
-0.23
-0.235
-0.225
-0.21
-0.205
-0.21
-0.215
-0.215
-0.225
-0.21
-0.16
-0.1
-0.02
0.07
0.18
0.31
0.425
0.515
0.62
0.74
0.86
0.955
0.99
0.985
0.92
0.87
0.8
0.715
0.555
0.335
0.095
-0.04
-0.085
-0.11
-0.145
-0.2
-0.255
-0.265
-0.28
-0.28
-0.29
-0.3
-0.315
-0.33
-0.345
-0.325
-0.32
-0.33
-0.355
-0.355
-0.365
-0.345
-0.34
-0.345
-0.35
-0.37
-0.375
-0.375
-0.37
-0.38
-0.38
-0.39
-0.395
-0.385
-0.385
-0.405
-0.4
-0.405
-0.39
-0.395
-0.38
-0.385
-0.395
-0.41
-0.405
-0.37
-0.375
-0.365
-0.38
-0.395
-0.39
-0.375
-0.36
-0.36
-0.365
-0.365
-0.365
-0.34
-0.33
-0.34
-0.34
-0.34
-0.345
-0.325
-0.315
-0.32
-0.325
-0.335
-0.325
-0.31
-0.305
-0.305
-0.315
-0.325
-0.32
-0.31
-0.31
-0.31
-0.315
-0.31
-0.3
-0.285
-0.28
-0.275
-0.29
-0.3
-0.3
-0.29
-0.28
-0.28
-0.285
-0.3
-0.285
-0.275
-0.27
-0.265
-0.27
-0.27
-0.25
-0.255
-0.22
-0.21
-0.22
-0.225
-0.22
-0.2
-0.185
-0.195
-0.2
-0.21
-0.205
-0.2
-0.175
-0.175
-0.2
-0.2
-0.195
-0.18
-0.17
-0.18
-0.19
-0.19
-0.18
-0.17
-0.17
-0.17
-0.185
-0.185
-0.175
-0.175
-0.155
-0.17
-0.175
-0.185
-0.185
-0.17
-0.155
-0.165
-0.175
-0.19
-0.195
-0.175
-0.165
-0.165
-0.175
-0.185
-0.19
-0.195
-0.185
-0.19
-0.205
-0.21
-0.22
-0.21
-0.205
-0.215
-0.2
-0.205
-0.2
-0.195
-0.185
-0.19
-0.195
-0.205
-0.2
-0.195
-0.19
-0.185
-0.185
-0.19
-0.19
-0.195
-0.18
-0.17
-0.185
-0.195
-0.195
-0.185
-0.195
-0.17
-0.17
-0.19
-0.2
-0.185
-0.165
-0.175
-0.175
-0.195
-0.195
-0.185
-0.19
-0.175
-0.175
-0.19
-0.195
-0.185
-0.18
-0.17
-0.19
-0.195
-0.19
-0.21
-0.195
-0.2
-0.21
-0.22
-0.23
-0.22
-0.2
-0.2
-0.215
-0.215
-0.215
-0.2
-0.19
-0.19
-0.2
-0.215
-0.21
-0.215
-0.2
-0.2
-0.205
-0.225
-0.225
-0.21
-0.19
-0.195
-0.205
-0.225
-0.215
-0.19
-0.18
-0.17
-0.195
-0.19
-0.185
-0.16
-0.145
-0.16
-0.18
-0.185
-0.18
-0.13
-0.07
0.06
0.185
0.305
0.42
0.55
0.68
0.8
0.91
0.98
0.995
0.965
0.91
0.825
0.71
0.53
0.285
0.065
-0.065
-0.13
-0.165
-0.21
-0.26
-0.28
-0.28
-0.28
-0.305
-0.315
-0.325
-0.335
-0.325
-0.35
-0.36
-0.375
-0.375
-0.35
-0.35
-0.345
-0.355
-0.365
-0.355
-0.335
-0.335
-0.33
-0.335
-0.345
-0.345
-0.335
-0.34
-0.335
-0.35
-0.36
-0.37
-0.355
-0.345
-0.355
-0.38
-0.37
-0.365
-0.355
-0.335
-0.35
-0.345
-0.36
-0.355
-0.35
-0.34
-0.35
-0.375
-0.37
-0.375
-0.365
-0.36
-0.36
-0.385
-0.38
-0.38
-0.365
-0.35
-0.35
-0.36
-0.365
-0.37
-0.36
-0.345
-0.355
-0.35
-0.365
-0.345
-0.315
-0.3
-0.295
-0.31
-0.3
-0.29
-0.265
-0.25
-0.255
-0.26
-0.245
-0.235
-0.215
-0.2
-0.195
-0.2
-0.215
-0.215
-0.2
-0.2
-0.185
-0.2
-0.21
-0.205
-0.19
-0.18
-0.185
-0.195
-0.195
-0.205
-0.195
-0.185
-0.19
-0.21
-0.235
-0.23
-0.225
-0.225
-0.23
-0.235
-0.265
-0.255
-0.24
-0.23
-0.22
-0.23
-0.245
-0.235
-0.225
-0.195
-0.185
-0.2
-0.205
-0.205
-0.195
-0.175
-0.17
-0.18
-0.18
-0.185
-0.165
-0.15
-0.16
-0.165
-0.165
-0.175
-0.17
-0.145
-0.14
-0.155
-0.165
-0.17
-0.165
-0.155
-0.17
-0.185
-0.2
-0.185
-0.19
-0.185
-0.195
-0.215
-0.21
-0.205
-0.2
-0.19
-0.195
-0.2
-0.215
-0.215
-0.225
-0.205
-0.21
-0.23
-0.235
-0.235
-0.22
-0.195
-0.2
-0.2
-0.21
-0.225
-0.21
-0.185
-0.18
-0.195
-0.2
-0.215
-0.195
-0.18
-0.185
-0.18
-0.18
-0.18
-0.18
-0.16
-0.165
-0.18
-0.18
-0.18
-0.175
-0.155
-0.155
-0.165
-0.175
-0.195
-0.17
-0.17
-0.175
-0.2
-0.205
-0.21
-0.195
-0.19
-0.195
-0.2
-0.215
-0.22
-0.21
-0.19
-0.195
-0.19
-0.205
-0.21
-0.225
-0.215
-0.185
-0.13
-0.04
0.095
0.255
0.4
0.53
