Lead II
-1.04
-1.035
-1.03
-1.04
-1.0
-0.995
-1.0
-1.01
-1.03
-1.04
-1.02
-1.025
-1.03
-1.035
-1.04
-1.03
-1.0
-1.0
-1.005
-1.01
-1.04
-1.04
-1.03
-1.025
-1.025
-1.03
-1.025
-1.0
-0.98
-0.965
-0.98
-1.01
-1.015
-1.005
-0.99
-0.995
-0.995
-1.02
-1.0
-0.985
-0.965
-0.935
-0.94
-0.945
-0.955
-0.98
-0.975
-0.97
-0.96
-0.965
-0.96
-0.95
-0.92
-0.905
-0.9
-0.92
-0.935
-0.96
-0.945
-0.925
-0.93
-0.93
-0.92
-0.915
-0.895
-0.905
-0.91
-0.93
-0.945
-0.96
-0.93
-0.915
-0.9
-0.91
-0.91
-0.92
-0.925
-0.935
-0.945
-0.965
-0.97
-0.97
-0.955
-0.945
-0.93
-0.93
-0.93
-0.94
-0.9
-0.89
-0.9
-0.91
-0.955
-0.975
-0.985
-0.99
-0.98
-0.965
-0.97
-0.95
-0.93
-0.94
-0.925
-0.945
-0.975
-1.015
-0.99
-0.985
-0.975
-0.97
-0.985
-0.99
-0.95
-0.955
-0.955
-0.98
-0.985
-1.01
-1.0
-0.98
-0.96
-0.965
-0.98
-0.96
-0.95
-0.945
-0.945
-0.965
-0.95
-0.945
-0.94
-0.93
-0.91
-0.915
-0.91
-0.9
-0.87
-0.86
-0.85
-0.85
-0.825
-0.795
-0.755
-0.755
-0.745
-0.75
-0.76
-0.745
-0.725
-0.71
-0.71
-0.73
-0.73
-0.755
-0.75
-0.76
-0.78
-0.79
-0.78
-0.77
-0.75
-0.76
-0.8
-0.84
-0.875
-0.875
-0.87
-0.885
-0.905
-0.915
-0.91
-0.905
-0.89
-0.91
-0.955
-0.975
-1.005
-0.995
-0.965
-0.97
-0.975
-1.0
-0.98
-0.97
-0.93
-0.96
-0.975
-1.04
-1.085
-1.14
-1.185
-1.175
-1.16
-1.1
-1.025
-0.905
-0.695
-0.49
-0.305
-0.13
0.025
0.18
0.34
0.47
0.55
0.59
0.61
0.605
0.595
0.55
0.435
0.265
0.0
-0.31
-0.595
-0.825
-0.935
-0.985
-0.965
-0.905
-0.835
-0.805
-0.785
-0.84
-0.915
-0.95
-1.005
-1.015
-1.025
-1.055
-1.06
-1.045
-1.03
-1.025
-1.02
-1.06
-1.045
-1.065
-1.045
-1.055
-1.03
-1.02
-1.02
-1.01
-1.0
-0.99
-0.99
-0.995
-1.02
-1.015
-1.02
-1.01
-0.985
-1.0
-1.0
-1.005
-1.0
-1.0
-0.995
-1.0
-1.01
-1.03
-1.03
-1.04
-1.0
-0.985
-0.99
-0.985
-0.99
-0.99
-0.985
-0.96
-0.965
-0.975
-1.0
-0.995
-1.005
-0.985
-0.97
-0.96
-0.96
-0.965
-0.96
-0.955
-0.96
-1.0
-1.005
-1.01
-0.985
-0.965
-0.935
-0.93
-0.925
-0.935
-0.94
-0.935
-0.92
-0.93
-0.935
-0.95
-0.94
-0.92
-0.93
-0.93
-0.94
-0.94
-0.935
-0.93
-0.93
-0.945
-0.96
-0.98
-0.975
-0.945
-0.945
-0.94
-0.945
-0.94
-0.965
-0.965
-0.95
-0.945
-0.97
-0.99
-0.995
-0.965
-0.96
-0.93
-0.94
-0.95
-0.95
-0.96
-0.97
-0.945
-0.975
-0.99
-0.99
-0.995
-0.985
-0.975
-0.955
-0.97
-0.985
-1.015
-1.015
-1.005
-0.99
-1.015
-1.02
-1.02
-1.01
-0.995
-0.985
-0.99
-1.005
-1.04
-1.065
-1.055
-1.025
-1.04
-1.03
-1.025
-1.015
-0.99
-0.98
-0.97
-0.975
-0.99
-1.03
-1.035
-1.04
-1.035
-1.025
-1.02
-1.025
-1.005
-0.98
-0.98
-0.97
-0.975
-0.97
-0.985
-0.99
-0.97
-0.965
-0.96
-0.955
-0.955
-0.925
-0.9
-0.87
-0.85
-0.875
-0.88
-0.88
-0.865
-0.835
-0.8
-0.795
-0.775
-0.77
-0.775
-0.775
-0.765
-0.78
-0.81
-0.845
-0.86
-0.855
-0.85
-0.825
-0.825
-0.83
-0.835
-0.85
-0.855
-0.88
-0.905
-0.94
-0.97
-0.985
-0.975
-0.96
-0.95
-0.965
-1.005
-1.005
-1.015
-1.02
-1.02
-1.03
-1.04
-1.045
-1.03
-1.0
-0.985
-0.99
-1.01
-1.04
-1.065
-1.085
-1.095
-1.135
-1.18
-1.23
-1.225
-1.17
-1.075
-0.945
-0.765
-0.57
-0.36
-0.145
0.04
0.205
0.35
0.475
0.555
0.605
0.625
0.6
0.555
0.49
0.4
0.245
0.05
-0.23
-0.55
-0.795
-0.96
-1.03
-1.015
-0.95
-0.88
-0.85
-0.85
-0.865
-0.9
-0.95
-1.01
-1.055
-1.1
-1.095
-1.055
-1.05
-1.035
-1.06
-1.075
-1.08
-1.065
-1.055
-1.05
-1.04
-1.025
-1.02
-1.005
-1.0
-0.995
-1.04
-1.055
-1.07
-1.075
-1.06
-1.065
-1.055
-1.07
-1.065
-1.05
-1.03
-1.025
-1.035
-1.06
-1.075
-1.065
-1.045
-1.04
-1.025
-1.04
-1.06
-1.04
-1.045
-1.04
-1.04
-1.025
-1.04
-1.025
-1.02
-1.01
-1.005
-1.02
-1.01
-0.99
-0.965
-0.945
-0.965
-0.97
-0.98
-0.97
-0.96
-0.955
-0.945
-0.95
-0.95
-0.945
-0.925
-0.905
-0.9
-0.92
-0.95
-0.955
-0.945
-0.925
-0.91
-0.93
-0.92
-0.92
-0.9
-0.895
-0.88
-0.905
-0.935
-0.95
-0.945
-0.95
-0.935
-0.94
-0.95
-0.955
-0.95
-0.93
-0.94
-0.95
-0.975
-0.99
-0.98
-0.97
-0.955
-0.95
-0.965
-0.96
-0.975
-0.98
-0.96
-0.97
-0.98
-1.005
-1.005
-0.99
-0.985
-0.955
-0.965
-0.965
-0.97
-0.965
-0.95
-0.955
-0.985
-0.99
-1.0
-0.995
-1.01
-1.02
-1.035
-1.02
-1.005
-1.005
-1.01
-1.01
-1.04
-1.035
-1.02
-1.02
-1.025
-1.025
-1.015
-1.005
-0.985
-0.97
-0.975
-0.985
-1.01
-1.0
-1.005
-1.01
-1.01
-1.015
-1.005
-0.97
-0.955
-0.96
-0.95
-0.94
-0.925
-0.93
-0.915
-0.93
-0.94
-0.94
-0.915
-0.875
-0.855
-0.83
-0.83
-0.825
-0.83
-0.795
-0.78
-0.805
-0.815
-0.815
-0.8
-0.785
-0.755
-0.76
-0.785
-0.82
-0.815
-0.825
-0.845
-0.84
-0.84
-0.85
-0.86
-0.85
-0.86
-0.875
-0.915
-0.955
-0.98
-1.0
-1.01
-1.025
-1.025
-1.03
-1.015
-1.0
-1.01
-1.005
-1.02
-1.025
-1.025
-1.035
-1.03
-1.035
-1.06
-1.09
-1.095
-1.13
-1.175
-1.225
-1.25
-1.21
-1.14
-0.98
-0.81
-0.61
-0.41
-0.215
0.005
0.2
0.345
0.48
0.57
0.605
0.615
0.58
0.56
0.485
0.4
0.285
0.1
-0.17
-0.48
-0.755
-0.965
-1.05
-1.055
-1.02
-0.965
-0.935
-0.945
-0.975
-0.985
-1.02
-1.055
-1.12
-1.12
-1.125
-1.115
-1.11
-1.11
-1.125
-1.14
-1.14
-1.12
-1.095
-1.085
-1.075
-1.085
-1.09
-1.09
-1.08
-1.105
-1.095
-1.1
-1.11
-1.095
-1.08
-1.075
-1.08
-1.105
-1.09
-1.095
-1.09
-1.115
-1.12
-1.12
-1.095
-1.08
-1.065
-1.055
-1.065
-1.09
-1.065
-1.07
-1.08
-1.09
-1.11
-1.11
-1.095
-1.085
-1.045
-1.035
-1.045
-1.055
-1.03
-1.035
-1.035
-1.035
-1.06
-1.06
-1.05
-1.035
-1.0
-1.0
-1.0
-1.025
-1.02
-1.01
-1.005
-1.01
-1.025
-1.04
-1.01
-1.005
-0.98
-0.975
-0.955
-0.985
-0.99
-1.0
-1.02
-1.005
-0.99
-1.01
-1.005
-1.0
-0.995
-0.985
-0.975
-0.995
-0.995
-1.01
-1.01
-1.01
-1.015
-1.045
-1.035
-1.03
-1.03
-1.0
-0.995
-1.01
-1.035
-1.04
-1.035
-1.035
-1.045
-1.065
-1.06
-1.04
-1.025
-1.015
-1.01
-1.025
-1.06
-1.06
-1.055
-1.06
-1.065
-1.08
-1.09
-1.11
-1.08
-1.065
-1.05
-1.08
-1.1
-1.125
-1.125
-1.1
-1.1
-1.12
-1.125
-1.125
-1.1
-1.085
-1.07
-1.085
-1.12
-1.135
-1.13
-1.125
-1.11
-1.125
-1.13
-1.12
-1.115
-1.085
-1.07
-1.05
-1.075
-1.085
-1.08
-1.07
-1.06
-1.07
-1.06
-1.07
-1.07
-1.03
-1.0
-0.97
-0.955
-0.955
-0.93
-0.92
-0.915
-0.885
-0.905
-0.91
-0.91
-0.915
-0.875
-0.865
-0.87
-0.875
-0.89
-0.895
-0.92
-0.94
-0.965
-0.98
-0.97
-0.98
-0.985
-0.995
-1.045
-1.06
-1.085
-1.08
-1.09
-1.11
-1.145
-1.155
-1.145
-1.12
-1.095
-1.12
-1.125
-1.145
-1.13
-1.13
-1.11
-1.12
-1.145
-1.15
-1.15
-1.15
-1.145
-1.17
-1.23
-1.275
-1.35
-1.38
-1.345
-1.3
-1.175
-1.025
-0.82
-0.615
-0.39
-0.19
-0.01
0.14
0.275
0.42
0.52
0.585
0.605
0.59
0.55
0.5
0.435
0.33
0.15
-0.105
-0.44
-0.73
-0.965
-1.08
-1.115
-1.1
-1.045
-1.01
-0.97
-0.985
-1.005
-1.06
-1.14
-1.195
-1.21
-1.205
-1.2
-1.205
-1.195
-1.2
-1.165
-1.17
-1.16
-1.17
-1.18
-1.2
-1.19
-1.19
-1.18
-1.175
-1.18
-1.175
-1.16
-1.155
-1.15
-1.175
-1.19
-1.21
-1.205
-1.195
-1.18
-1.175
-1.165
-1.18
-1.16
-1.145
-1.14
-1.165
-1.165
-1.17
-1.155
-1.15
-1.15
-1.16
-1.165
-1.165
-1.145
-1.125
-1.115
-1.125
-1.16
-1.175
-1.2
-1.165
-1.155
-1.145
-1.13
-1.13
-1.11
-1.09
-1.085
-1.095
-1.13
-1.14
-1.14
-1.135
-1.1
-1.095
-1.1
-1.095
-1.07
-1.05
-1.075
-1.095
-1.12
-1.105
-1.08
-1.06
-1.055
-1.065
-1.065
-1.055
-1.04
-1.045
-1.055
-1.08
-1.085
-1.07
-1.08
-1.08
-1.1
-1.11
-1.1
-1.085
-1.045
-1.035
-1.07
-1.095
-1.08
-1.09
-1.07
-1.085
-1.105
-1.12
-1.105
-1.08
-1.055
-1.08
-1.095
-1.11
-1.125
-1.095
-1.085
-1.11
-1.115
-1.11
-1.1
-1.085
-1.06
-1.075
-1.11
-1.115
-1.135
-1.145
-1.15
-1.165
-1.155
-1.155
-1.125
-1.12
-1.09
-1.115
-1.13
-1.13
-1.12
-1.095
-1.085
-1.105
-1.11
-1.115
-1.085
-1.055
-1.04
-1.035
-1.045
-1.02
-1.005
-0.96
-0.94
-0.915
-0.915
-0.895
-0.885
-0.885
-0.88
-0.89
-0.875
-0.865
-0.87
-0.875
-0.89
-0.935
-0.935
-0.93
-0.915
-0.905
-0.905
-0.92
-0.935
-0.935
-0.96
-0.99
-1.02
-1.05
-1.07
-1.06
-1.05
-1.015
-1.015
-1.005
-1.04
-1.065
-1.095
-1.135
-1.16
-1.17
-1.15
-1.11
-1.065
-1.04
-1.025
-1.055
-1.085
-1.125
-1.185
-1.25
-1.305
-1.315
-1.265
-1.13
-0.96
-0.805
-0.62
-0.43
-0.26
-0.05
0.135
0.3
0.405
0.455
0.495
0.48
0.435
0.335
0.205
-0.015
-0.285
-0.61
-0.89
-1.075
-1.145
-1.115
-1.03
-0.945
-0.905
-0.925
-0.955
-1.01
-1.07
-1.115
-1.165
-1.18
-1.14
-1.12
-1.08
-1.085
-1.1
-1.1
-1.07
-1.05
-1.03
-1.035
-1.07
-1.065
-1.09
-1.095
-1.095
-1.105
-1.1
-1.09
-1.06
-1.035
-1.015
-1.04
-1.04
-1.065
-1.055
-1.045
-1.05
-1.075
-1.07
-1.065
-1.035
-1.005
-1.0
-1.02
-1.05
-1.05
-1.05
-1.02
-1.015
-1.0
-1.01
-1.0
-0.995
-0.97
-0.96
-0.975
-0.995
-1.01
-1.01
-0.985
-0.985
-0.975
-0.96
-0.96
-0.955
-0.915
-0.915
-0.95
-0.975
-1.0
-1.0
-0.995
-0.985
-0.995
-0.98
-0.955
-0.925
-0.905
-0.895
-0.91
-0.945
-0.975
-0.985
-0.99
-0.955
-0.955
-0.925
-0.945
-0.955
-0.945
-0.955
-0.97
-0.97
-0.985
-1.01
-1.015
-1.035
-1.015
-1.005
-0.985
-0.98
-0.975
-0.96
-0.955
-0.955
-0.985
-1.02
-1.02
-1.015
-0.99
-0.965
-0.96
-0.96
-0.97
-0.965
-0.97
-1.01
-1.015
-1.04
-1.035
-1.0
-0.975
-0.95
-0.97
-0.99
-1.005
-1.0
-1.0
-1.0
-1.0
-1.015
-1.035
-1.02
-1.015
-0.98
-0.975
-0.985
-0.995
-1.01
-0.995
-1.015
-1.015
-1.04
-1.055
-1.03
-1.0
-0.97
-0.95
-0.95
-0.96
-0.965
-0.965
-0.965
-0.96
-0.97
-0.965
-0.95
-0.93
-0.895
-0.89
-0.865
-0.88
-0.88
-0.86
-0.845
-0.83
-0.83
-0.815
-0.805
-0.79
-0.77
-0.765
-0.765
-0.785
-0.8
-0.78
-0.795
-0.78
-0.795
-0.835
-0.855
-0.875
-0.875
-0.86
-0.845
-0.82
-0.845
-0.875
-0.88
-0.895
-0.915
-0.945
-0.98
-1.01
-0.99
-0.97
-0.96
-0.96
-0.985
-1.02
-1.035
-1.015
-1.015
-1.02
-1.01
-1.005
-0.995
-1.005
-0.98
-0.985
-1.01
-1.075
-1.135
-1.18
-1.2
-1.205
-1.165
-1.075
-0.94
-0.775
-0.535
-0.325
-0.16
-0.005
0.14
0.25
0.37
0.445
0.48
0.45
0.42
0.395
0.375
0.32
0.2
0.0
-0.24
-0.535
-0.805
-0.99
-1.075
-1.095
-1.035
-0.95
-0.89
-0.86
-0.91
-0.96
-1.05
-1.06
-1.09
-1.09
-1.11
-1.105
-1.105
-1.1
-1.08
-1.075
-1.07
-1.08
-1.1
-1.1
-1.09
-1.06
-1.065
-1.085
-1.1
-1.085
-1.08
-1.06
-1.055
-1.07
-1.08
-1.09
-1.085
-1.09
-1.09
-1.085
-1.075
-1.045
-1.045
-1.04
-1.055
-1.075
-1.1
-1.09
-1.09
-1.075
-1.075
-1.06
-1.06
-1.04
-1.02
-1.025
-1.035
-1.06
-1.06
-1.065
-1.055
-1.07
-1.05
-1.055
-1.025
-1.005
-0.99
-0.99
-1.01
-1.04
-1.04
-1.035
-1.02
-1.03
-1.035
-1.03
-1.015
-1.0
-0.975
-0.99
-0.99
-1.0
-1.01
-0.98
-0.98
-1.005
-1.0
-1.01
-1.0
-0.99
-1.0
-1.01
-1.02
-1.025
-1.035
-1.03
-1.02
-1.045
-1.05
-1.05
-1.05
-1.03
-1.01
-1.005
-1.01
-1.02
-1.055
-1.05
-1.045
-1.035
-1.05
-1.055
-1.05
-1.035
-1.02
-1.015
-1.035
-1.065
-1.055
-1.06
-1.055
-1.07
-1.085
-1.085
-1.07
-1.065
-1.065
-1.08
-1.08
-1.09
-1.1
-1.1
-1.115
-1.115
-1.14
-1.11
-1.085
-1.085
-1.085
-1.11
-1.11
-1.1
-1.11
-1.1
-1.115
-1.12
-1.125
-1.085
-1.08
-1.07
-1.08
-1.07
-1.08
-1.08
-1.065
-1.09
-1.095
-1.1
-1.08
-1.055
-1.045
-1.03
-1.02
-1.02
-1.015
-1.015
-0.995
-1.02
-1.015
-1.01
-0.995
-0.955
-0.9
-0.885
-0.885
-0.87
-0.87
-0.855
-0.865
-0.88
-0.895
-0.91
-0.885
-0.865
-0.885
-0.885
-0.9
-0.915
-0.935
-0.915
-0.925
-0.97
-1.0
-1.025
-1.04
-1.06
-1.065
-1.085
-1.085
-1.09
-1.075
-1.09
-1.125
-1.135
-1.14
-1.14
-1.115
-1.11
-1.11
-1.105
-1.115
-1.1
-1.095
-1.105
-1.125
-1.175
-1.235
-1.28
-1.31
-1.285
-1.245
-1.14
-1.005
-0.845
-0.635
-0.43
-0.245
-0.08
0.085
0.225
0.375
0.455
0.495
0.5
0.465
0.45
0.395
0.325
0.225
0.03
-0.24
-0.545
-0.83
-1.03
-1.125
-1.155
-1.13
-1.045
-0.995
-0.98
-1.02
-1.075
-1.125
-1.15
-1.16
-1.16
-1.15
-1.16
-1.165
-1.155
-1.165
-1.145
-1.165
-1.175
-1.19
-1.175
-1.155
-1.14
-1.14
-1.14
-1.14
-1.115
-1.125
-1.125
-1.14
-1.155
-1.15
-1.155
-1.15
-1.145
-1.135
-1.13
-1.13
-1.11
-1.115
-1.105
-1.12
-1.14
-1.14
-1.13
-1.12
-1.095
-1.095
-1.11
-1.11
-1.075
-1.075
-1.09
-1.1
-1.11
-1.1
-1.1
-1.07
-1.055
-1.075
-1.075
-1.075
-1.065
-1.05
-1.03
-1.04
-1.055
-1.065
-1.085
-1.065
-1.04
-1.045
-1.055
-1.055
-1.035
-1.025
-1.01
-1.015
-1.025
-1.045
-1.045
-1.03
-1.035
-1.025
-1.04
-1.04
-1.025
-1.03
-1.01
-1.03
-1.065
-1.08
-1.085
-1.08
-1.07
-1.065
-1.07
-1.055
-1.05
-1.035
-1.03
-1.06
-1.07
-1.075
-1.075
-1.065
-1.055
-1.055
-1.06
-1.05
-1.05
-1.045
-1.045
-1.07
-1.095
-1.095
-1.085
-1.075
-1.075
-1.08
-1.105
-1.11
-1.1
-1.095
-1.095
-1.11
-1.11
-1.12
-1.105
-1.115
-1.12
-1.135
-1.155
-1.16
-1.16
-1.15
-1.115
-1.14
-1.135
-1.14
-1.145
-1.145
-1.11
-1.09
-1.08
-1.08
-1.065
-1.055
-1.05
-1.065
-1.07
-1.08
-1.055
-1.04
-1.02
-1.015
-0.995
-0.995
-1.01
-0.975
-0.945
-0.91
-0.915
-0.91
-0.9
-0.875
-0.845
-0.83
-0.835
-0.855
-0.87
-0.86
-0.85
-0.86
-0.91
-0.93
-0.935
-0.92
-0.885
-0.9
-0.915
-0.935
-0.94
-0.96
-0.99
-0.975
-1.005
-1.03
-1.04
-1.055
-1.035
-1.025
-1.04
-1.05
-1.05
-1.07
-1.07
-1.055
-1.06
-1.075
-1.08
-1.085
-1.08
-1.065
-1.085
-1.085
-1.125
-1.155
-1.185
-1.225
-1.25
-1.26
-1.235
-1.17
-1.03
-0.84
-0.63
-0.435
-0.225
-0.07
0.105
0.265
0.405
0.505
0.57
0.595
0.59
0.575
0.54
0.44
0.305
0.105
-0.19
-0.495
-0.76
-0.97
-1.06
-1.1
-1.025
-0.95
-0.895
-0.9
-0.92
-0.96
-1.0
-1.045
-1.12
-1.165
-1.17
-1.185
-1.145
-1.09
-1.075
-1.065
-1.065
-1.055
-1.05
-1.06
-1.085
-1.115
-1.13
-1.12
-1.09
-1.06
-1.065
-1.075
-1.07
-1.075
-1.08
-1.065
-1.08
-1.11
-1.115
-1.105
-1.075
-1.07
-1.065
-1.07
-1.085
-1.065
-1.065
-1.055
-1.05
-1.085
-1.1
-1.095
-1.065
-1.025
-1.015
-1.01
-1.01
-1.025
-1.025
-1.02
-1.025
-1.065
-1.06
-1.05
-1.02
-1.025
-1.015
-1.035
-1.025
-1.025
-1.0
-0.98
-0.98
-0.985
-1.01
-1.01
-1.0
-0.975
-0.97
-0.96
-0.965
-0.955
-0.96
-0.94
-0.97
-0.985
-0.995
-0.995
-0.99
-0.99
-0.975
-1.0
-0.99
-0.97
-0.96
-0.955
-0.965
-0.97
-1.005
-1.025
-1.03
-0.995
-0.98
-1.0
-1.0
-0.99
-0.98
-0.975
-0.97
-1.0
-1.015
-1.025
-1.02
-0.99
-0.97
-0.985
-0.99
-1.015
-1.03
-1.015
-1.0
-1.005
-1.02
-1.045
-1.055
-1.02
-1.0
-1.015
-1.025
-1.035
-1.04
-1.02
-1.015
-1.03
-1.06
-1.105
-1.1
-1.085
-1.06
-1.05
-1.04
-1.03
-1.015
-0.975
-0.975
-1.01
-1.04
-1.07
-1.055
-1.02
-0.99
-0.985
-1.0
-0.98
-0.98
-0.975
-0.995
-0.995
-0.99
-0.96
-0.9
-0.88
-0.86
-0.855
-0.865
-0.835
-0.825
-0.82
-0.82
-0.835
-0.85
-0.84
-0.815
-0.78
-0.77
-0.805
-0.825
-0.84
-0.85
-0.84
-0.84
-0.85
-0.86
-0.875
-0.89
-0.91
-0.92
-0.955
-0.96
-0.96
-0.955
-0.965
-0.99
-1.025
-1.055
-1.06
-1.04
-1.015
-0.985
-0.995
-1.02
-1.04
-1.045
-1.04
-1.035
-1.06
-1.045
-1.075
-1.075
-1.09
-1.095
-1.14
-1.19
-1.225
-1.205
-1.15
-1.04
-0.85
-0.655
-0.455
-0.255
-0.055
0.11
0.25
0.36
0.45
0.5
0.51
0.495
0.445
0.34
0.23
0.065
-0.175
-0.48
-0.76
-0.96
-1.04
-1.05
-1.005
-0.95
-0.905
-0.89
-0.92
-0.94
-0.97
-0.995
-1.05
-1.09
-1.08
-1.075
-1.04
-1.05
-1.055
-1.075
-1.085
-1.05
-1.03
-1.03
-1.05
-1.04
-1.035
-1.025
-1.025
-1.045
-1.065
-1.105
-1.09
-1.07
-1.05
-1.035
-1.035
-1.035
-1.04
-1.035
-1.015
-1.03
-1.04
-1.05
-1.05
-1.04
-1.015
-1.015
-1.01
-1.015
-1.01
-0.995
-0.98
-1.005
-1.04
-1.035
-1.045
-1.035
-0.99
-0.965
-0.99
-0.985
-0.985
-0.965
-0.98
-0.975
-0.995
-1.0
-0.97
-0.96
-0.935
-0.955
-0.945
-0.945
-0.95
-0.945
-0.935
-0.94
-0.975
-0.98
-0.965
-0.97
-0.94
-0.94
-0.95
-0.95
-0.955
-0.935
-0.94
-0.945
-0.97
-0.98
-0.985
-0.97
-0.96
-0.965
-0.975
-0.995
-1.0
-0.99
-0.98
-0.97
-0.995
-1.02
-1.04
-1.035
-1.015
-1.0
-0.995
-0.99
-0.99
-0.98
-0.98
-0.985
-1.0
-1.015
-1.03
-1.025
-1.005
-1.005
-1.01
-1.03
-1.06
-1.055
-1.055
-1.035
-1.025
-1.045
-1.075
-1.08
-1.07
-1.055
-1.03
-1.035
-1.06
-1.04
-1.045
-1.035
-1.04
-1.065
-1.095
-1.075
-1.07
-1.065
-1.065
-1.06
-1.06
-1.035
-1.035
-1.015
-1.035
-1.06
-1.1
-1.08
-1.07
-1.015
-1.005
-0.98
-0.97
-0.97
-0.975
-0.98
-0.98
-0.995
-0.975
-0.965
-0.92
-0.87
-0.86
-0.84
-0.87
-0.865
-0.865
-0.845
-0.85
-0.845
-0.87
-0.87
-0.855
-0.845
-0.85
-0.855
-0.875
-0.89
-0.885
-0.87
-0.875
-0.875
-0.92
-0.955
-0.975
-0.985
-0.98
-0.98
-1.01
-1.035
-1.025
-1.03
-1.035
-1.035
-1.08
-1.105
-1.095
-1.07
-1.065
-1.065
-1.065
-1.08
-1.055
-1.08
-1.065
-1.115
-1.15
-1.19
-1.24
-1.255
-1.25
-1.245
-1.18
-1.085
-0.9
-0.705
-0.49
-0.31
-0.145
-0.005
0.15
0.29
0.405
0.49
0.495
0.455
0.43
0.4
0.36
0.27
0.16
-0.035
-0.32
-0.615
-0.86
-1.04
-1.13
-1.155
-1.085
-1.02
-0.97
-0.94
-0.965
-1.03
-1.085
-1.11
-1.12
-1.11
-1.115
-1.14
-1.155
-1.175
-1.165
-1.16
-1.165
-1.165
-1.19
-1.165
-1.12
-1.095
-1.105
-1.105
-1.115
-1.13
-1.135
-1.14
-1.135
-1.135
-1.155
-1.145
-1.155
-1.125
-1.115
-1.11
-1.12
-1.16
-1.145
-1.14
-1.13
-1.13
-1.13
-1.115
-1.115
-1.105
-1.075
-1.1
-1.115
-1.125
-1.125
-1.11
-1.11
-1.125
-1.13
-1.12
-1.12
-1.09
-1.065
-1.095
-1.105
-1.105
-1.105
-1.095
-1.105
-1.095
-1.1
-1.08
-1.065
-1.04
-1.04
-1.07
-1.07
-1.065
-1.085
-1.09
-1.07
-1.08
-1.095
-1.085
-1.065
-1.045
-1.03
-1.06
-1.07
-1.085
-1.105
-1.09
-1.085
-1.105
-1.105
-1.115
-1.115
-1.075
-1.06
-1.08
-1.11
-1.135
-1.135
-1.135
-1.125
-1.115
-1.14
-1.145
-1.125
-1.1
-1.1
-1.105
-1.13
-1.14
-1.155
-1.165
-1.15
-1.16
-1.165
-1.155
-1.145
-1.145
-1.135
-1.17
-1.185
-1.19
-1.19
-1.195
-1.205
-1.22
-1.225
-1.21
-1.2
-1.185
-1.2
-1.23
-1.235
-1.235
-1.235
-1.245
-1.235
-1.23
-1.235
-1.205
-1.185
-1.18
-1.185
-1.2
-1.215
-1.205
-1.2
-1.21
-1.24
-1.24
-1.235
-1.205
-1.19
-1.18
-1.185
-1.195
-1.19
-1.175
-1.165
-1.165
-1.185
-1.165
-1.165
-1.13
-1.12
-1.12
-1.11
-1.1
-1.08
-1.055
-1.03
-1.01
-1.025
-1.015
-0.995
-0.975
-0.96
-0.95
-0.97
-0.975
-0.995
-1.0
-0.99
-1.0
-1.01
-1.04
-1.04
-1.03
-1.025
-1.035
-1.05
-1.085
-1.11
-1.13
-1.155
-1.185
-1.215
-1.22
-1.22
-1.195
-1.2
-1.195
-1.21
-1.22
-1.215
-1.22
-1.205
-1.245
-1.255
-1.25
-1.225
-1.225
-1.22
-1.245
-1.27
-1.31
-1.355
-1.405
-1.38
-1.35
-1.29
-1.125
-0.915
-0.69
-0.465
-0.285
-0.115
0.02
0.205
0.345
0.415
0.43
0.42
0.38
0.34
0.275
0.21
0.085
-0.15
-0.445
-0.77
-1.03
-1.205
-1.28
-1.28
-1.21
-1.145
-1.09
-1.09
-1.1
-1.155
-1.21
-1.225
-1.265
-1.295
-1.305
-1.31
-1.29
-1.285
-1.27
-1.26
-1.27
-1.26
-1.235
-1.235
-1.245
-1.25
-1.255
-1.25
-1.245
-1.24
-1.235
-1.255
-1.215
-1.225
-1.215
-1.21
-1.23
-1.25
-1.24
-1.245
-1.23
-1.24
-1.24
-1.24
-1.215
-1.195
-1.195
-1.19
-1.21
-1.215
-1.225
-1.205
-1.19
-1.175
-1.17
-1.17
-1.16
-1.155
-1.145
-1.13
-1.145
-1.16
-1.17
-1.165
-1.15
-1.14
-1.135
-1.125
-1.13
-1.115
-1.09
-1.095
-1.125
-1.125
-1.13
-1.12
-1.115
-1.11
-1.105
-1.095
-1.095
-1.09
-1.085
-1.075
-1.1
-1.1
-1.11
-1.11
-1.1
-1.115
-1.125
-1.11
-1.12
-1.095
-1.09
-1.1
-1.125
-1.16
-1.145
-1.145
-1.165
-1.165
-1.17
-1.145
-1.13
-1.12
-1.12
-1.115
-1.125
-1.15
-1.145
-1.13
-1.125
-1.135
-1.14
-1.15
-1.15
-1.155
-1.14
-1.135
-1.16
-1.195
-1.19
-1.18
-1.175
-1.175
-1.195
-1.2
-1.205
-1.195
-1.185
-1.19
-1.205
-1.23
-1.205
-1.225
-1.205
-1.21
-1.215
-1.225
-1.21
-1.205
-1.18
-1.195
-1.19
-1.225
-1.205
-1.21
-1.19
-1.165
-1.175
-1.185
-1.18
-1.155
-1.145
-1.13
-1.13
-1.155
-1.155
-1.14
-1.13
-1.12
-1.11
-1.105
-1.085
-1.055
-1.015
-1.0
-0.985
-0.995
-0.98
-0.985
-0.95
-0.955
-0.955
-0.96
-0.955
-0.955
-0.95
-0.95
-0.97
-0.99
-1.01
-1.025
-1.03
-1.02
-1.005
-1.025
-1.045
-1.06
-1.07
-1.095
-1.13
-1.15
-1.185
-1.2
-1.19
-1.18
-1.18
-1.185
-1.205
-1.205
-1.195
-1.18
-1.185
-1.2
-1.205
-1.225
-1.22
-1.21
-1.195
-1.19
-1.205
-1.23
-1.255
-1.29
-1.33
-1.36
-1.39
-1.36
-1.27
-1.105
-0.915
-0.71
-0.525
-0.36
-0.2
-0.045
0.1
0.25
0.35
0.405
0.425
0.43
0.405
0.345
0.265
0.165
-0.01
-0.29
-0.62
-0.925
-1.17
-1.27
-1.27
-1.2
-1.11
-1.065
-1.06
-1.095
-1.15
-1.175
-1.22
-1.26
-1.29
-1.285
-1.265
-1.26
-1.245
-1.25
-1.26
-1.255
-1.255
-1.23
-1.235
-1.255
-1.26
-1.25
-1.24
-1.24
-1.225
-1.22
-1.235
-1.23
-1.235
-1.22
-1.22
-1.225
-1.245
-1.235
-1.225
-1.21
-1.205
-1.21
-1.215
-1.22
-1.19
-1.185
-1.185
-1.2
-1.21
-1.22
-1.215
-1.195
-1.17
-1.165
-1.17
-1.17
-1.135
-1.125
-1.125
-1.135
-1.15
-1.15
-1.135
-1.13
-1.115
-1.135
-1.135
-1.12
-1.12
-1.095
-1.125
-1.135
-1.155
-1.14
-1.12
-1.105
-1.1
-1.08
-1.09
-1.09
-1.095
-1.095
-1.11
-1.13
-1.125
-1.135
-1.12
-1.125
-1.12
-1.14
-1.14
-1.135
-1.135
-1.125
-1.14
-1.16
-1.185
-1.185
-1.18
-1.16
-1.14
-1.14
-1.14
-1.135
-1.13
-1.125
-1.115
-1.135
-1.165
-1.195
-1.18
-1.17
-1.16
-1.16
-1.185
-1.18
-1.18
-1.165
-1.155
-1.17
-1.185
-1.205
-1.2
-1.195
-1.19
-1.19
-1.2
-1.195
-1.21
-1.195
-1.195
-1.23
-1.24
-1.255
-1.275
-1.26
-1.265
-1.27
-1.275
-1.26
-1.255
-1.24
-1.23
-1.24
-1.25
-1.245
-1.225
-1.215
-1.22
-1.24
-1.24
-1.205
-1.205
-1.19
-1.2
-1.21
-1.2
-1.185
-1.17
-1.16
-1.155
-1.16
-1.155
-1.13
-1.095
-1.08
-1.095
-1.085
-1.065
-1.03
-1.01
-0.995
-0.99
-0.98
-0.98
-0.96
-0.96
-0.965
-0.98
-0.995
-1.005
-0.99
-0.99
-1.01
-1.015
-1.025
-1.02
-1.03
-1.065
-1.105
-1.13
-1.165
-1.17
-1.185
-1.185
-1.18
-1.2
-1.205
-1.195
-1.185
-1.17
-1.185
-1.195
-1.21
-1.19
-1.195
-1.19
-1.19
-1.2
-1.205
-1.22
-1.205
-1.225
-1.275
-1.36
-1.41
-1.42
-1.38
-1.295
-1.145
-0.98
-0.745
-0.525
-0.305
-0.12
0.055
0.24
0.36
0.485
0.56
0.56
0.54
0.495
0.44
0.35
0.235
-0.005
-0.325
-0.645
-0.945
-1.11
-1.185
-1.18
-1.145
-1.075
-1.03
-1.0
-1.015
-1.08
-1.15
-1.21
-1.27
-1.275
-1.275
-1.27
-1.28
-1.3
-1.285
-1.245
-1.22
-1.21
-1.21
-1.225
-1.225
-1.215
-1.215
-1.22
-1.215
-1.225
-1.22
-1.205
-1.21
-1.225
-1.235
-1.235
-1.23
-1.215
-1.21
-1.215
-1.235
-1.24
-1.235
-1.21
-1.195
-1.195
-1.195
-1.21
-1.2
-1.2
-1.18
-1.195
-1.2
-1.2
-1.19
-1.17
-1.145
-1.15
-1.16
-1.17
-1.155
-1.15
-1.15
-1.17
-1.165
-1.145
-1.12
-1.105
-1.1
-1.12
-1.15
-1.14
-1.14
-1.11
-1.095
-1.115
-1.11
-1.11
-1.1
-1.08
-1.075
-1.08
-1.095
-1.105
-1.09
-1.075
-1.055
-1.075
-1.085
-1.11
-1.1
-1.065
-1.05
-1.035
-1.06
-1.065
-1.07
-1.06
-1.06
-1.075
-1.105
-1.115
-1.125
-1.105
-1.07
-1.065
-1.08
-1.075
-1.09
-1.09
-1.09
-1.095
-1.115
-1.12
-1.125
-1.075
-1.07
-1.085
-1.105
-1.105
-1.105
-1.105
-1.11
-1.115
-1.15
-1.15
-1.135
-1.105
-1.095
-1.09
-1.12
-1.12
-1.11
-1.105
-1.14
-1.16
-1.175
-1.18
-1.145
-1.125
-1.095
-1.095
-1.13
-1.14
-1.165
-1.155
-1.115
-1.105
-1.105
-1.095
-1.08
-1.055
-1.04
-1.025
-1.035
-1.045
-1.045
-1.04
-1.02
-1.005
-0.99
-0.975
-0.93
-0.905
-0.875
-0.845
-0.84
-0.855
-0.885
-0.91
-0.895
-0.91
-0.895
-0.91
-0.9
-0.905
-0.9
-0.895
-0.905
-0.915
-0.925
-0.915
-0.915
-0.93
-0.95
-0.995
-1.045
-1.07
-1.07
-1.06
-1.045
-1.045
-1.065
-1.075
-1.09
-1.085
-1.075
-1.075
-1.09
-1.12
-1.1
-1.09
-1.07
-1.06
-1.06
-1.1
-1.12
-1.135
-1.14
-1.19
-1.255
-1.275
-1.27
-1.235
-1.14
-1.025
-0.89
-0.72
-0.585
-0.435
-0.26
-0.08
0.085
0.22
0.335
0.415
0.46
0.49
0.49
0.48
0.425
0.35
0.235
0.07
-0.16
-0.475
-0.755
-0.97
-1.1
-1.12
-1.05
-0.995
-0.935
-0.92
-0.93
-0.96
-0.965
-1.0
-1.025
-1.085
-1.115
-1.125
-1.12
-1.11
-1.115
-1.125
-1.125
-1.11
-1.11
-1.075
-1.045
-1.05
-1.07
-1.09
-1.08
-1.09
-1.08
-1.1
-1.115
-1.1
-1.075
-1.06
-1.01
-1.035
-1.055
-1.07
-1.065
-1.055
-1.04
-1.055
-1.06
-1.07
-1.045
-1.025
-1.02
-1.01
-1.025
-1.035
-1.04
-1.02
-1.005
-1.0
-1.005
-1.02
-1.015
-0.995
-0.965
-0.96
-0.98
-1.0
-1.015
-1.01
-1.01
-0.99
-0.985
-0.995
-0.97
-0.96
-0.93
-0.94
-0.93
-0.95
-0.98
-0.99
-0.975
-0.955
-0.95
-0.95
-0.955
-0.955
-0.925
-0.92
-0.92
-0.935
-0.955
-0.96
-0.965
-0.94
-0.945
-0.96
-0.96
-0.955
-0.94
-0.94
-0.925
-0.95
-0.965
-0.985
-0.995
-0.985
-0.965
-0.985
-0.975
-0.98
-0.97
-0.95
-0.94
-0.955
-0.985
-1.0
-0.99
-0.98
-0.985
-0.98
-0.985
-0.98
-0.97
-0.975
-0.97
-0.995
-1.0
-1.0
-0.99
-0.99
-0.99
-0.985
-1.005
-1.0
-0.99
-0.98
-0.975
-0.99
-1.025
-1.025
-1.025
-1.01
-1.02
-1.03
-1.025
-1.01
-0.98
-0.965
-0.97
-0.99
-1.02
-0.995
-0.99
-0.98
-0.98
-0.98
-0.98
-0.985
-0.95
-0.94
-0.915
-0.945
-0.96
-0.97
-0.965
-0.955
-0.955
-0.955
-0.96
-0.935
-0.915
-0.9
-0.9
-0.895
-0.905
-0.92
-0.91
-0.895
-0.885
-0.885
-0.88
-0.83
-0.785
-0.755
-0.74
-0.745
-0.73
-0.735
-0.735
-0.715
-0.72
-0.73
-0.73
-0.71
-0.695
-0.735
-0.755
-0.785
-0.78
-0.77
-0.765
-0.76
-0.785
-0.815
-0.84
-0.87
-0.885
-0.87
-0.905
-0.905
-0.955
-0.945
-0.93
-0.945
-0.95
-0.975
-0.975
-0.965
-0.94
-0.945
-0.94
-0.945
-0.97
-0.96
-0.96
-0.975
-1.01
-1.035
-1.08
-1.105
-1.115
-1.095
-1.075
-1.0
-0.875
-0.71
-0.515
-0.29
-0.095
0.09
0.245
0.38
0.515
0.615
0.67
0.645
0.615
0.55
0.505
0.47
0.37
0.22
-0.03
-0.33
-0.63
-0.855
-0.975
-1.035
-1.01
