Lead II
-0.07
-0.045
-0.055
-0.035
-0.055
-0.065
-0.07
-0.06
-0.055
-0.03
-0.04
-0.055
-0.07
-0.075
-0.055
-0.035
-0.04
-0.05
-0.07
-0.065
-0.045
-0.035
-0.05
-0.06
-0.075
-0.085
-0.06
-0.035
-0.06
-0.065
-0.08
-0.08
-0.07
-0.065
-0.065
-0.08
-0.085
-0.085
-0.06
-0.045
-0.06
-0.08
-0.08
-0.08
-0.075
-0.05
-0.06
-0.07
-0.065
-0.06
-0.05
-0.06
-0.055
-0.07
-0.075
-0.07
-0.055
-0.045
-0.055
-0.06
-0.07
-0.075
-0.06
-0.055
-0.05
-0.06
-0.075
-0.07
-0.055
-0.04
-0.05
-0.065
-0.065
-0.07
-0.06
-0.045
-0.05
-0.055
-0.065
-0.06
-0.04
-0.04
-0.04
-0.045
-0.045
-0.03
-0.03
0.005
0.0
-0.015
-0.02
-0.015
-0.005
0.02
0.01
-0.01
-0.02
-0.02
-0.01
0.0
-0.01
-0.02
-0.04
-0.025
-0.015
0.0
-0.01
-0.015
-0.025
-0.005
0.01
0.015
0.01
-0.01
-0.02
-0.025
-0.02
-0.03
-0.04
-0.05
-0.06
-0.05
-0.035
-0.025
-0.04
-0.065
-0.065
-0.05
-0.055
-0.03
-0.035
-0.06
-0.07
-0.065
-0.05
-0.03
-0.03
-0.055
-0.075
-0.06
-0.04
-0.03
-0.03
-0.05
-0.055
-0.045
-0.025
-0.02
-0.015
-0.03
-0.045
-0.015
0.01
0.035
0.05
0.06
0.12
0.18
0.25
0.315
0.385
0.485
0.635
0.79
0.955
1.12
1.265
1.42
1.575
1.79
1.99
2.09
2.045
1.83
1.42
0.92
0.49
0.21
0.04
-0.045
-0.08
-0.06
-0.045
-0.035
-0.045
-0.06
-0.09
-0.095
-0.095
-0.105
-0.125
-0.13
-0.16
-0.155
-0.145
-0.145
-0.145
-0.155
-0.165
-0.17
-0.15
-0.15
-0.155
-0.17
-0.175
-0.17
-0.175
-0.17
-0.175
-0.185
-0.195
-0.19
-0.19
-0.165
-0.19
-0.185
-0.21
-0.21
-0.2
-0.195
-0.19
-0.2
-0.21
-0.21
-0.2
-0.205
-0.195
-0.21
-0.22
-0.215
-0.205
-0.185
-0.2
-0.21
-0.23
-0.22
-0.21
-0.185
-0.185
-0.2
-0.22
-0.205
-0.2
-0.19
-0.185
-0.195
-0.21
-0.205
-0.19
-0.16
-0.19
-0.185
-0.19
-0.175
-0.17
-0.135
-0.13
-0.14
-0.15
-0.135
-0.11
-0.085
-0.075
-0.08
-0.07
-0.08
-0.03
0.01
0.01
0.025
0.03
0.055
0.08
0.11
0.125
0.115
0.125
0.135
0.14
0.15
0.135
0.13
0.12
0.105
0.115
0.11
0.09
0.085
0.045
0.05
0.04
0.05
0.03
0.01
0.005
0.005
0.005
0.01
0.015
-0.005
-0.025
-0.03
-0.01
-0.01
-0.005
-0.02
-0.025
-0.03
-0.025
-0.015
-0.025
-0.04
-0.035
-0.045
-0.04
-0.035
-0.04
-0.055
-0.045
-0.05
-0.04
-0.04
-0.05
-0.055
-0.06
-0.065
-0.05
-0.03
-0.045
-0.06
-0.07
-0.06
-0.055
-0.045
-0.06
-0.055
-0.065
-0.065
-0.045
-0.025
-0.035
-0.055
-0.055
-0.06
-0.035
-0.025
-0.035
-0.05
-0.06
-0.05
-0.035
-0.02
-0.035
-0.05
-0.07
-0.055
-0.05
-0.03
-0.04
-0.05
-0.065
-0.06
-0.045
-0.04
-0.055
-0.07
-0.08
-0.065
-0.06
-0.045
-0.06
-0.07
-0.07
-0.075
-0.055
-0.05
-0.06
-0.07
-0.075
-0.07
-0.065
-0.055
-0.06
-0.07
-0.075
-0.075
-0.065
-0.065
-0.055
-0.075
-0.09
-0.08
-0.065
-0.055
-0.045
-0.065
-0.08
-0.08
-0.06
-0.055
-0.065
-0.065
-0.07
-0.08
-0.07
-0.06
-0.055
-0.065
-0.08
-0.075
-0.07
-0.06
-0.06
-0.065
-0.085
-0.08
-0.065
-0.05
-0.06
-0.06
-0.075
-0.08
-0.065
-0.05
-0.055
-0.065
-0.07
-0.07
-0.055
-0.05
-0.065
-0.07
-0.09
-0.075
-0.06
-0.055
-0.055
-0.065
-0.07
-0.075
-0.065
-0.055
-0.05
-0.06
-0.07
-0.065
-0.055
-0.035
-0.05
-0.04
-0.05
-0.03
-0.02
0.0
0.0
-0.015
-0.02
-0.01
0.0
0.015
0.015
0.0
0.0
0.005
0.01
0.01
0.0
-0.015
-0.03
-0.02
-0.03
-0.005
-0.01
-0.005
-0.02
-0.015
-0.005
0.01
0.005
-0.01
-0.005
-0.005
0.0
0.005
-0.015
-0.05
-0.055
-0.045
-0.045
-0.035
-0.04
-0.045
-0.055
-0.065
-0.05
-0.035
-0.04
-0.05
-0.06
-0.055
-0.055
-0.04
-0.05
-0.06
-0.065
-0.07
-0.05
-0.04
-0.04
-0.055
-0.065
-0.07
-0.045
-0.04
-0.035
-0.05
-0.06
-0.055
-0.04
-0.015
-0.025
-0.01
-0.015
0.02
0.055
0.11
0.155
0.205
0.24
0.33
0.435
0.575
0.715
0.865
1.01
1.175
1.33
1.48
1.65
1.85
2.015
2.105
2.09
1.92
1.54
1.07
0.62
0.3
0.115
0.0
-0.05
-0.065
-0.07
-0.065
-0.05
-0.05
-0.06
-0.075
-0.1
-0.11
-0.125
-0.12
-0.135
-0.155
-0.155
-0.165
-0.15
-0.135
-0.15
-0.165
-0.185
-0.185
-0.16
-0.15
-0.16
-0.18
-0.185
-0.18
-0.175
-0.17
-0.175
-0.185
-0.2
-0.205
-0.195
-0.18
-0.19
-0.215
-0.23
-0.21
-0.215
-0.195
-0.185
-0.21
-0.23
-0.235
-0.22
-0.21
-0.215
-0.225
-0.225
-0.225
-0.205
-0.205
-0.21
-0.22
-0.23
-0.215
-0.215
-0.2
-0.21
-0.215
-0.215
-0.215
-0.2
-0.19
-0.195
-0.195
-0.195
-0.195
-0.19
-0.18
-0.185
-0.2
-0.205
-0.185
-0.175
-0.155
-0.165
-0.175
-0.165
-0.165
-0.15
-0.135
-0.12
-0.12
-0.125
-0.105
-0.085
-0.05
-0.05
-0.055
-0.045
-0.03
-0.005
0.025
0.035
0.05
0.05
0.06
0.08
0.115
0.125
0.125
0.14
0.145
0.175
0.185
0.185
0.18
0.155
0.165
0.18
0.18
0.16
0.135
0.12
0.115
0.105
0.12
0.09
0.075
0.055
0.055
0.05
0.045
0.02
0.01
-0.005
-0.015
-0.005
0.0
-0.005
-0.015
-0.025
-0.025
-0.015
-0.005
-0.015
-0.035
-0.035
-0.03
-0.025
0.0
-0.015
-0.025
-0.045
-0.045
-0.045
-0.025
-0.025
-0.045
-0.05
-0.05
-0.05
-0.035
-0.04
-0.07
-0.07
-0.065
-0.055
-0.055
-0.05
-0.06
-0.08
-0.075
-0.08
-0.07
-0.07
-0.085
-0.095
-0.09
-0.075
-0.075
-0.075
-0.09
-0.09
-0.09
-0.08
-0.065
-0.07
-0.08
-0.105
-0.1
-0.08
-0.065
-0.08
-0.08
-0.08
-0.075
-0.07
-0.045
-0.06
-0.07
-0.065
-0.075
-0.05
-0.04
-0.05
-0.065
-0.065
-0.06
-0.05
-0.04
-0.04
-0.05
-0.075
-0.07
-0.06
-0.045
-0.045
-0.07
-0.085
-0.065
-0.06
-0.035
-0.055
-0.065
-0.075
-0.07
-0.07
-0.055
-0.045
-0.055
-0.085
-0.07
-0.06
-0.06
-0.055
-0.065
-0.09
-0.08
-0.07
-0.05
-0.065
-0.08
-0.09
-0.085
-0.065
-0.06
-0.055
-0.07
-0.095
-0.085
-0.085
-0.065
-0.09
-0.09
-0.09
-0.1
-0.075
-0.065
-0.075
-0.09
-0.1
-0.095
-0.08
-0.07
-0.065
-0.095
-0.11
-0.095
-0.085
-0.06
-0.07
-0.08
-0.09
-0.09
-0.08
-0.08
-0.095
-0.1
-0.105
-0.09
-0.075
-0.07
-0.085
-0.08
-0.11
-0.105
-0.08
-0.075
-0.08
-0.105
-0.105
-0.09
-0.08
-0.08
-0.09
-0.105
-0.11
-0.1
-0.085
-0.085
-0.095
-0.105
-0.115
-0.11
-0.085
-0.07
-0.075
-0.095
-0.11
-0.095
-0.08
-0.035
-0.04
-0.04
-0.055
-0.045
-0.04
-0.03
-0.04
-0.035
-0.04
-0.03
-0.015
-0.005
-0.015
-0.035
-0.06
-0.06
-0.045
-0.03
-0.04
-0.05
-0.055
-0.04
-0.04
-0.03
-0.03
-0.03
-0.04
-0.03
-0.02
-0.01
-0.025
-0.035
-0.08
-0.075
-0.075
-0.07
-0.065
-0.065
-0.09
-0.075
-0.07
-0.055
-0.075
-0.075
-0.095
-0.08
-0.07
-0.05
-0.06
-0.07
-0.08
-0.08
-0.065
-0.065
-0.065
-0.065
-0.085
-0.08
-0.07
-0.065
-0.075
-0.065
-0.085
-0.065
-0.06
-0.05
-0.065
-0.06
-0.07
-0.06
-0.025
-0.005
0.01
0.02
0.05
0.1
0.175
0.235
0.28
0.345
0.435
0.575
0.755
0.9
1.035
1.15
1.27
1.435
1.635
1.82
1.925
1.93
1.795
1.49
1.07
0.625
0.295
0.05
-0.075
-0.125
-0.13
-0.105
-0.085
-0.08
-0.1
-0.09
-0.09
-0.085
-0.115
-0.135
-0.16
-0.165
-0.14
-0.13
-0.145
-0.16
-0.175
-0.17
-0.165
-0.155
-0.155
-0.175
-0.185
-0.16
-0.165
-0.15
-0.16
-0.185
-0.19
-0.19
-0.18
-0.155
-0.165
-0.165
-0.19
-0.19
-0.18
-0.165
-0.185
-0.195
-0.21
-0.205
-0.19
-0.165
-0.185
-0.195
-0.215
-0.21
-0.19
-0.18
-0.185
-0.2
-0.21
-0.205
-0.195
-0.19
-0.195
-0.185
-0.195
-0.185
-0.18
-0.17
-0.18
-0.195
-0.195
-0.2
-0.17
-0.17
-0.175
-0.195
-0.185
-0.185
-0.175
-0.16
-0.16
-0.165
-0.19
-0.17
-0.145
-0.14
-0.15
-0.15
-0.145
-0.14
-0.105
-0.1
-0.095
-0.095
-0.09
-0.085
-0.06
-0.03
-0.025
-0.02
-0.03
0.005
0.035
0.055
0.06
0.075
0.075
0.095
0.125
0.15
0.15
0.145
0.135
0.15
0.165
0.17
0.17
0.15
0.13
0.13
0.125
0.125
0.125
0.09
0.075
0.08
0.06
0.06
0.045
0.025
0.005
0.0
0.015
0.025
0.0
-0.005
-0.03
-0.02
-0.015
-0.005
-0.005
-0.025
-0.025
-0.015
-0.015
-0.005
-0.015
-0.035
-0.04
-0.035
-0.01
-0.02
-0.025
-0.04
-0.05
-0.05
-0.055
-0.035
-0.045
-0.06
-0.075
-0.075
-0.065
-0.055
-0.075
-0.085
-0.1
-0.085
-0.07
-0.07
-0.06
-0.09
-0.1
-0.1
-0.075
-0.07
-0.075
-0.09
-0.085
-0.09
-0.075
-0.07
-0.07
-0.07
-0.085
-0.075
-0.065
-0.065
-0.065
-0.08
-0.09
-0.075
-0.05
-0.05
-0.055
-0.065
-0.09
-0.075
-0.06
-0.05
-0.055
-0.07
-0.08
-0.08
-0.07
-0.05
-0.06
-0.075
-0.09
-0.08
-0.07
-0.065
-0.07
-0.095
-0.105
-0.095
-0.075
-0.06
-0.075
-0.08
-0.105
-0.095
-0.085
-0.075
-0.075
-0.1
-0.105
-0.105
-0.1
-0.075
-0.085
-0.095
-0.1
-0.1
-0.09
-0.08
-0.095
-0.105
-0.115
-0.115
-0.09
-0.08
-0.09
-0.105
-0.11
-0.11
-0.1
-0.085
-0.1
-0.11
-0.125
-0.12
-0.105
-0.09
-0.095
-0.12
-0.11
-0.11
-0.1
-0.095
-0.095
-0.11
-0.125
-0.12
-0.1
-0.085
-0.105
-0.105
-0.11
-0.11
-0.105
-0.1
-0.1
-0.125
-0.13
-0.125
-0.11
-0.085
-0.1
-0.12
-0.125
-0.12
-0.105
-0.09
-0.1
-0.115
-0.12
-0.115
-0.095
-0.09
-0.1
-0.105
-0.105
-0.095
-0.08
-0.07
-0.08
-0.085
-0.085
-0.07
-0.055
-0.045
-0.055
-0.055
-0.06
-0.05
-0.04
-0.025
-0.03
-0.045
-0.05
-0.06
-0.05
-0.06
-0.06
-0.075
-0.09
-0.065
-0.055
-0.045
-0.045
-0.065
-0.065
-0.07
-0.045
-0.025
-0.035
-0.04
-0.06
-0.065
-0.085
-0.06
-0.09
-0.11
-0.115
-0.09
-0.08
-0.075
-0.09
-0.1
-0.115
-0.1
-0.1
-0.085
-0.085
-0.115
-0.115
-0.12
-0.105
-0.09
-0.1
-0.105
-0.115
-0.115
-0.09
-0.09
-0.105
-0.11
-0.115
-0.105
-0.1
-0.08
-0.085
-0.1
-0.105
-0.095
-0.07
-0.05
-0.055
-0.055
-0.025
0.005
0.05
0.13
0.17
0.21
0.245
0.345
0.48
0.625
0.765
0.875
0.995
1.15
1.295
1.47
1.655
1.83
1.925
1.93
1.78
1.485
1.03
0.585
0.255
0.05
-0.06
-0.115
-0.11
-0.12
-0.12
-0.11
-0.105
-0.105
-0.105
-0.135
-0.165
-0.17
-0.175
-0.16
-0.165
-0.185
-0.19
-0.19
-0.165
-0.17
-0.175
-0.195
-0.2
-0.19
-0.175
-0.18
-0.18
-0.2
-0.22
-0.2
-0.19
-0.19
-0.2
-0.205
-0.205
-0.205
-0.205
-0.19
-0.21
-0.215
-0.225
-0.21
-0.205
-0.185
-0.205
-0.215
-0.235
-0.225
-0.205
-0.185
-0.2
-0.215
-0.215
-0.21
-0.205
-0.195
-0.2
-0.21
-0.205
-0.205
-0.185
-0.185
-0.175
-0.195
-0.195
-0.19
-0.17
-0.165
-0.165
-0.185
-0.185
-0.18
-0.155
-0.155
-0.15
-0.17
-0.17
-0.16
-0.145
-0.13
-0.135
-0.13
-0.125
-0.11
-0.09
-0.075
-0.065
-0.08
-0.07
-0.055
-0.025
-0.005
0.01
0.015
0.015
0.04
0.065
0.095
0.1
0.1
0.1
0.135
0.16
0.175
0.155
0.15
0.14
0.145
0.16
0.155
0.15
0.13
0.1
0.11
0.1
0.1
0.09
0.075
0.055
0.045
0.05
0.045
0.035
0.02
-0.005
0.01
0.025
0.03
0.01
-0.005
-0.015
-0.005
-0.005
0.01
0.005
-0.005
-0.035
-0.025
-0.025
-0.005
-0.015
-0.035
-0.045
-0.04
-0.03
-0.03
-0.035
-0.05
-0.065
-0.055
-0.04
-0.02
-0.04
-0.06
-0.07
-0.055
-0.05
-0.03
-0.04
-0.065
-0.065
-0.06
-0.05
-0.025
-0.04
-0.045
-0.06
-0.055
-0.03
-0.02
-0.025
-0.03
-0.055
-0.045
-0.02
-0.02
-0.025
-0.04
-0.055
-0.045
-0.025
-0.02
-0.02
-0.035
-0.05
-0.035
-0.035
-0.025
-0.03
-0.04
-0.045
-0.035
-0.03
-0.015
-0.035
-0.04
-0.05
-0.04
-0.035
-0.025
-0.035
-0.045
-0.07
-0.065
-0.055
-0.035
-0.035
-0.06
-0.075
-0.055
-0.055
-0.045
-0.05
-0.075
-0.075
-0.06
-0.055
-0.045
-0.05
-0.075
-0.075
-0.07
-0.07
-0.05
-0.065
-0.075
-0.08
-0.07
-0.07
-0.055
-0.07
-0.085
-0.08
-0.085
-0.075
-0.06
-0.065
-0.07
-0.085
-0.07
-0.065
-0.055
-0.06
-0.065
-0.08
-0.075
-0.055
-0.06
-0.06
-0.085
-0.08
-0.075
-0.055
-0.035
-0.06
-0.07
-0.08
-0.07
-0.065
-0.055
-0.05
-0.075
-0.095
-0.07
-0.065
-0.055
-0.06
-0.075
-0.075
-0.075
-0.06
-0.05
-0.05
-0.065
-0.08
-0.08
-0.06
-0.05
-0.06
-0.07
-0.085
-0.075
-0.06
-0.055
-0.055
-0.08
-0.075
-0.075
-0.055
-0.05
-0.05
-0.07
-0.075
-0.075
-0.05
-0.02
-0.03
-0.035
-0.045
-0.015
-0.015
0.005
-0.01
-0.01
-0.015
0.005
0.015
0.025
0.01
0.015
-0.005
0.005
0.005
0.01
-0.02
-0.025
-0.015
-0.02
-0.02
0.0
-0.01
-0.005
-0.03
-0.015
0.0
0.01
0.0
-0.025
-0.02
-0.03
-0.02
-0.025
-0.055
-0.06
-0.065
-0.065
-0.05
-0.035
-0.045
-0.06
-0.065
-0.065
-0.055
-0.035
-0.035
-0.055
-0.065
-0.065
-0.035
-0.03
-0.03
-0.055
-0.05
-0.04
-0.04
-0.03
-0.04
-0.04
-0.05
-0.05
-0.035
-0.025
-0.035
-0.04
-0.045
-0.02
0.005
0.02
0.02
0.06
0.065
0.14
0.225
0.275
0.32
0.4
0.5
0.655
0.835
1.01
1.155
1.305
1.435
1.63
1.85
2.045
2.14
2.08
1.86
1.47
0.99
0.575
0.235
0.035
-0.05
-0.06
-0.04
-0.015
-0.03
-0.06
-0.07
-0.075
-0.09
-0.09
-0.11
-0.135
-0.135
-0.145
-0.13
-0.125
-0.135
-0.155
-0.165
-0.16
-0.14
-0.135
-0.15
-0.17
-0.17
-0.17
-0.16
-0.155
-0.15
-0.17
-0.195
-0.195
-0.175
-0.17
-0.18
-0.19
-0.2
-0.18
-0.17
-0.175
-0.17
-0.19
-0.2
-0.185
-0.175
-0.175
-0.175
-0.2
-0.19
-0.185
-0.18
-0.17
-0.17
-0.19
-0.185
-0.18
-0.17
-0.17
-0.165
-0.19
-0.2
-0.175
-0.155
-0.145
-0.155
-0.17
-0.17
-0.175
-0.145
-0.135
-0.145
-0.16
-0.155
-0.14
-0.135
-0.12
-0.12
-0.13
-0.125
-0.105
-0.085
-0.07
-0.08
-0.08
-0.085
-0.055
-0.035
-0.015
0.005
0.0
0.005
0.035
0.075
0.075
0.095
0.105
0.105
0.13
0.16
0.18
0.185
0.18
0.185
0.195
0.22
0.235
0.21
0.195
0.185
0.19
0.185
0.19
0.165
0.13
0.125
0.12
0.11
0.11
0.095
0.065
0.06
0.055
0.055
0.07
0.055
0.04
0.025
0.025
0.04
0.045
0.035
0.03
0.02
0.03
0.035
0.04
0.025
0.015
0.015
0.02
0.03
0.03
0.01
0.0
-0.015
0.005
0.02
0.025
0.02
0.0
-0.02
-0.01
0.0
0.02
0.01
0.0
-0.02
-0.005
0.005
0.01
0.0
-0.015
-0.03
-0.015
-0.01
0.005
-0.015
-0.015
-0.02
-0.01
0.0
0.01
0.015
0.005
-0.01
-0.005
0.01
0.015
0.01
0.0
-0.005
0.01
0.02
0.025
0.015
0.0
0.005
0.01
0.035
0.025
0.01
0.005
0.0
0.0
0.03
0.025
0.015
0.005
0.005
0.015
0.015
0.03
0.01
0.0
0.0
0.01
0.015
0.015
0.0
-0.01
-0.02
-0.01
0.005
0.015
0.0
-0.01
-0.025
-0.02
0.0
0.01
-0.005
-0.015
-0.03
-0.03
-0.01
0.005
0.0
0.0
-0.025
-0.01
0.0
0.005
-0.005
-0.025
-0.025
-0.005
0.0
0.0
-0.01
-0.04
-0.03
-0.03
-0.01
0.01
-0.005
-0.015
-0.025
-0.03
-0.01
-0.005
-0.01
-0.01
-0.025
-0.015
-0.01
0.0
-0.015
-0.02
-0.025
-0.015
-0.005
-0.005
0.0
-0.01
-0.025
-0.015
-0.005
0.015
0.0
-0.01
-0.02
-0.02
-0.02
0.0
-0.005
-0.015
-0.02
-0.005
0.005
0.02
0.005
0.0
0.01
0.02
0.03
0.045
0.035
0.03
0.03
0.04
0.055
0.07
0.06
0.05
0.03
0.04
0.04
0.035
0.035
0.01
0.005
0.02
0.04
0.05
0.05
0.035
0.035
0.04
0.05
0.045
0.04
0.02
-0.005
0.005
0.005
0.01
0.0
-0.01
-0.02
-0.025
0.0
0.0
-0.005
-0.02
-0.005
-0.005
-0.005
0.005
0.0
-0.025
-0.015
-0.015
0.005
-0.005
-0.01
-0.01
-0.015
-0.015
-0.005
0.015
-0.005
-0.01
-0.015
-0.005
0.005
0.02
0.035
0.03
0.06
0.1
0.14
0.205
0.26
0.305
0.38
0.475
0.625
0.78
0.935
1.065
1.205
1.365
1.53
1.75
1.935
2.015
1.97
1.755
1.345
0.85
0.42
0.15
0.01
-0.035
-0.035
-0.025
-0.005
-0.02
-0.035
-0.03
-0.035
-0.05
-0.07
-0.115
-0.125
-0.11
-0.11
-0.1
-0.115
-0.125
-0.14
-0.135
-0.13
-0.13
-0.125
-0.14
-0.14
-0.135
-0.125
-0.135
-0.125
-0.145
-0.16
-0.15
-0.14
-0.135
-0.13
-0.16
-0.165
-0.155
-0.14
-0.14
-0.155
-0.17
-0.18
-0.18
-0.165
-0.15
-0.16
-0.17
-0.165
-0.16
-0.155
-0.15
-0.165
-0.175
-0.175
-0.17
-0.155
-0.15
-0.16
-0.17
-0.18
-0.17
-0.16
-0.15
-0.145
-0.16
-0.165
-0.17
-0.155
-0.155
-0.16
-0.16
-0.16
-0.145
-0.14
-0.12
-0.135
-0.145
-0.14
-0.14
-0.11
-0.09
-0.09
-0.095
-0.095
-0.075
-0.055
-0.025
-0.015
-0.035
-0.03
0.0
0.03
0.045
0.06
0.075
0.085
0.11
0.13
0.155
0.15
0.14
0.135
0.125
0.155
0.165
0.15
0.125
0.115
0.115
0.12
0.115
0.1
0.075
0.06
0.06
0.05
0.05
0.045
0.005
0.0
0.0
0.02
0.015
0.01
-0.015
-0.02
-0.005
0.01
-0.005
-0.005
-0.02
-0.03
-0.015
0.01
-0.01
-0.01
-0.035
-0.04
-0.025
-0.03
-0.02
-0.03
-0.05
-0.05
-0.05
-0.04
-0.035
-0.04
-0.06
-0.06
-0.05
-0.04
-0.045
-0.045
-0.065
-0.06
-0.06
-0.05
-0.05
-0.055
-0.06
-0.06
-0.055
-0.045
-0.045
-0.06
-0.05
-0.065
-0.045
-0.04
-0.035
-0.05
-0.06
-0.075
-0.055
-0.035
-0.03
-0.04
-0.05
-0.065
-0.055
-0.045
-0.045
-0.05
-0.06
-0.065
-0.06
-0.05
-0.035
-0.055
-0.07
-0.07
-0.06
-0.045
-0.05
-0.07
-0.075
-0.09
-0.065
-0.055
-0.055
-0.065
-0.08
-0.095
-0.08
-0.07
-0.06
-0.065
-0.095
-0.095
-0.075
-0.06
-0.06
-0.075
-0.09
-0.1
-0.095
-0.07
-0.06
-0.06
-0.08
-0.095
-0.09
-0.08
-0.075
-0.08
-0.09
-0.09
-0.085
-0.075
-0.075
-0.08
-0.09
-0.085
-0.085
-0.075
-0.085
-0.09
-0.11
-0.105
-0.085
-0.08
-0.075
-0.08
-0.09
-0.08
-0.075
-0.07
-0.065
-0.08
-0.08
-0.095
-0.09
-0.075
-0.07
-0.075
-0.095
-0.09
-0.09
-0.08
-0.07
-0.075
-0.095
-0.095
-0.08
-0.08
-0.065
-0.08
-0.095
-0.09
-0.075
-0.065
-0.07
-0.08
-0.085
-0.08
-0.075
-0.055
-0.05
-0.06
-0.065
-0.075
-0.07
-0.035
-0.025
-0.025
-0.035
-0.04
-0.05
-0.025
0.005
-0.005
-0.02
-0.025
-0.025
-0.01
0.0
-0.025
-0.04
-0.06
-0.05
-0.025
-0.035
-0.04
-0.045
-0.05
-0.045
-0.02
-0.02
-0.02
-0.035
-0.035
-0.035
-0.025
-0.045
-0.05
-0.065
-0.085
-0.07
-0.06
-0.065
-0.065
-0.075
-0.075
-0.07
-0.065
-0.065
-0.055
-0.055
-0.085
-0.075
-0.06
-0.065
-0.05
-0.07
-0.08
-0.08
-0.055
-0.05
-0.07
-0.07
-0.08
-0.065
-0.04
-0.035
-0.05
-0.06
-0.055
-0.04
-0.005
0.015
0.035
0.075
0.13
0.215
0.3
0.41
0.565
0.765
0.98
1.21
1.455
1.735
2.025
2.125
1.865
1.265
0.625
0.175
-0.03
-0.095
-0.085
-0.055
-0.045
-0.045
-0.065
-0.11
-0.13
-0.135
-0.125
-0.14
-0.145
-0.16
-0.165
-0.165
-0.145
-0.125
-0.155
-0.17
-0.17
-0.175
-0.16
-0.155
-0.165
-0.18
-0.185
-0.175
-0.175
-0.175
-0.18
-0.19
-0.2
-0.195
-0.19
-0.185
-0.19
-0.215
-0.21
-0.21
-0.18
-0.18
-0.19
-0.21
-0.21
-0.195
-0.17
-0.17
-0.18
-0.195
-0.195
-0.185
-0.17
-0.165
-0.17
-0.175
-0.175
-0.165
-0.16
-0.15
-0.165
-0.165
-0.175
-0.155
-0.145
-0.135
-0.135
-0.145
-0.145
-0.135
-0.11
-0.1
-0.085
-0.085
-0.095
-0.06
-0.06
-0.04
-0.035
-0.03
-0.005
0.03
0.04
0.065
0.075
0.085
0.08
0.115
0.15
0.17
0.165
0.16
0.175
0.175
0.195
0.205
0.19
0.16
0.17
0.16
0.175
0.165
0.15
0.115
0.105
0.105
0.115
0.105
0.08
0.06
0.04
0.055
0.055
0.055
0.03
0.025
0.02
0.015
0.025
0.02
0.015
0.0
0.0
0.005
0.03
0.04
0.01
0.0
-0.005
-0.005
0.01
0.015
0.0
-0.01
-0.02
0.0
0.0
0.0
-0.015
-0.015
-0.035
-0.015
-0.01
-0.01
-0.01
-0.035
-0.04
-0.025
-0.015
-0.01
-0.015
-0.035
-0.03
-0.03
-0.025
-0.01
-0.03
-0.04
-0.045
-0.04
-0.03
-0.025
-0.03
-0.04
-0.035
-0.025
-0.01
-0.005
-0.01
-0.015
-0.015
-0.01
0.0
0.0
-0.01
-0.025
-0.02
-0.015
0.0
0.02
-0.01
-0.015
-0.01
-0.01
0.01
0.005
0.0
-0.005
-0.01
0.0
0.02
0.015
0.005
-0.015
-0.015
-0.005
0.01
0.015
0.01
-0.005
-0.01
-0.01
0.005
0.01
0.0
-0.01
-0.015
-0.015
0.005
0.0
0.005
-0.01
-0.03
-0.01
-0.01
-0.005
-0.015
-0.03
-0.03
-0.015
-0.015
-0.01
-0.005
-0.03
-0.025
-0.015
-0.005
-0.005
-0.015
-0.03
-0.03
-0.03
-0.015
-0.02
-0.02
-0.025
-0.035
-0.03
-0.02
-0.01
-0.025
-0.04
-0.03
-0.025
-0.015
-0.02
-0.015
-0.04
-0.04
-0.035
-0.015
-0.015
-0.015
-0.025
-0.04
-0.03
-0.015
-0.005
-0.02
-0.035
-0.04
-0.03
-0.01
0.0
-0.02
-0.035
-0.035
-0.01
0.005
-0.005
0.01
-0.01
-0.015
-0.01
-0.005
-0.005
-0.01
-0.025
-0.02
-0.015
0.01
0.0
-0.02
-0.02
-0.02
-0.01
0.0
0.01
-0.005
-0.01
-0.005
0.005
0.015
0.02
0.015
0.015
0.015
0.035
0.04
0.045
0.035
0.03
0.02
0.04
0.07
0.065
0.055
0.035
0.035
0.045
0.055
0.065
0.045
0.015
0.005
0.01
0.03
0.035
0.025
0.02
0.005
0.025
0.045
0.045
0.04
0.035
0.025
0.03
0.04
0.04
0.015
-0.005
-0.01
-0.01
0.0
0.005
-0.005
-0.015
-0.015
-0.005
0.005
0.01
0.0
-0.01
-0.025
-0.015
0.005
0.0
-0.005
-0.015
-0.035
-0.035
-0.005
-0.015
-0.01
-0.02
-0.02
-0.015
0.015
0.005
0.0
-0.005
-0.02
0.0
0.01
0.02
0.015
0.0
0.005
0.03
0.06
0.085
0.11
0.135
0.2
0.265
0.33
0.38
0.445
0.56
0.705
0.875
1.04
1.2
1.345
1.475
1.655
1.86
2.05
2.105
2.05
1.875
1.55
1.145
0.74
0.4
0.155
0.01
-0.055
-0.065
-0.05
-0.01
-0.02
-0.05
-0.04
-0.04
-0.05
-0.05
-0.07
-0.09
-0.095
-0.1
-0.08
-0.085
-0.105
-0.12
-0.12
-0.1
-0.095
-0.1
-0.1
-0.115
-0.125
-0.11
-0.11
-0.1
-0.1
-0.105
-0.12
-0.11
-0.11
-0.1
-0.12
-0.135
-0.14
-0.13
-0.105
-0.11
-0.115
-0.12
-0.135
-0.135
-0.11
-0.105
-0.115
-0.12
-0.125
-0.115
-0.12
-0.12
-0.125
-0.14
-0.145
-0.12
-0.115
-0.1
-0.11
-0.135
-0.125
-0.12
-0.105
-0.115
-0.11
-0.125
-0.125
-0.115
-0.105
-0.105
-0.115
-0.125
-0.125
-0.11
-0.085
-0.09
-0.09
-0.095
-0.105
-0.105
-0.08
-0.08
-0.085
-0.075
-0.07
-0.06
-0.055
-0.045
-0.04
-0.045
-0.04
-0.01
-0.005
0.03
0.02
0.03
0.03
0.055
0.085
0.095
0.095
0.1
0.12
0.15
0.17
0.185
0.2
0.205
0.21
0.215
0.245
0.255
0.23
0.225
0.215
0.215
0.205
0.205
0.195
0.17
0.15
0.14
0.145
0.125
0.11
0.095
0.07
0.08
0.065
0.07
0.065
0.055
0.035
0.045
0.05
0.03
0.02
0.025
0.03
0.035
0.035
0.025
0.02
0.005
-0.01
0.02
0.01
0.02
0.0
-0.015
-0.01
-0.01
0.005
0.005
-0.005
-0.02
-0.02
-0.01
-0.01
-0.005
-0.035
-0.045
-0.03
-0.035
-0.025
-0.02
-0.03
-0.05
-0.04
-0.035
-0.03
-0.02
-0.025
-0.05
-0.05
-0.04
-0.03
-0.025
-0.04
-0.035
-0.035
-0.025
-0.015
-0.005
-0.01
-0.03
-0.025
-0.02
0.0
-0.005
0.0
-0.01
-0.025
-0.02
0.005
0.0
-0.025
-0.015
-0.02
-0.005
0.0
-0.005
-0.01
-0.015
-0.025
-0.015
-0.01
-0.01
-0.02
-0.05
-0.04
-0.035
-0.015
-0.015
-0.02
-0.025
-0.03
-0.03
-0.02
-0.01
-0.02
-0.03
-0.025
-0.02
-0.02
-0.03
-0.03
-0.045
-0.04
-0.02
-0.015
-0.025
-0.045
-0.05
-0.045
-0.03
-0.02
-0.02
-0.03
-0.055
-0.06
-0.055
-0.03
-0.03
-0.035
-0.04
-0.05
-0.025
-0.03
-0.015
-0.025
-0.05
-0.045
-0.05
-0.02
-0.03
-0.045
-0.05
-0.05
-0.035
-0.03
-0.045
-0.05
-0.05
-0.05
-0.035
-0.045
-0.04
-0.05
-0.055
-0.055
-0.045
-0.03
-0.035
-0.04
-0.06
-0.07
-0.05
-0.035
-0.035
-0.03
-0.065
-0.06
-0.04
-0.04
-0.035
-0.04
-0.05
-0.045
-0.035
-0.03
-0.025
-0.03
-0.05
-0.045
-0.045
-0.015
-0.02
-0.025
-0.03
-0.03
-0.02
0.005
0.0
-0.005
-0.005
-0.005
0.025
0.035
0.02
0.02
0.0
0.01
0.015
0.01
0.0
-0.01
-0.035
-0.02
-0.015
0.0
-0.005
-0.005
-0.005
-0.005
0.005
0.01
0.01
0.015
-0.005
0.015
0.02
0.025
0.01
-0.005
-0.045
-0.055
-0.02
-0.015
-0.015
-0.02
-0.03
-0.03
-0.035
-0.015
-0.02
-0.025
-0.045
-0.055
-0.03
-0.015
-0.01
-0.025
-0.055
-0.04
-0.04
-0.035
-0.025
-0.025
-0.02
-0.03
-0.02
-0.01
-0.015
-0.015
-0.03
-0.02
-0.02
-0.005
0.0
0.0
0.0
0.005
0.035
0.085
0.125
0.175
0.205
0.255
0.305
0.405
0.49
0.61
0.735
0.88
1.02
1.175
1.3
1.445
1.605
1.805
1.985
2.06
1.965
1.695
1.225
0.745
0.34
0.115
-0.005
-0.04
-0.05
-0.03
-0.03
-0.015
-0.02
-0.04
-0.065
-0.075
-0.09
-0.09
-0.1
-0.11
-0.115
-0.12
-0.12
-0.11
-0.11
-0.115
-0.14
-0.135
-0.12
-0.115
-0.12
-0.125
-0.145
-0.14
-0.13
-0.125
-0.125
-0.135
-0.15
-0.155
-0.145
-0.135
-0.135
-0.15
-0.16
-0.16
-0.16
-0.145
-0.145
-0.15
-0.165
-0.175
-0.165
-0.155
-0.155
-0.16
-0.175
-0.175
-0.155
-0.145
-0.145
-0.145
-0.175
-0.175
-0.165
-0.15
-0.16
-0.155
-0.17
-0.16
-0.15
-0.14
-0.14
-0.145
-0.16
-0.155
-0.15
-0.14
-0.135
-0.14
-0.145
-0.145
-0.13
-0.115
-0.11
-0.11
-0.11
-0.11
-0.1
-0.08
-0.07
-0.07
-0.065
-0.055
-0.05
-0.025
-0.015
0.0
-0.01
0.005
0.035
0.07
0.075
0.085
0.085
0.09
0.12
0.15
0.15
0.175
0.16
0.165
0.17
0.185
0.185
0.16
0.15
0.145
0.14
0.15
0.12
0.12
0.085
0.075
0.09
0.1
0.09
0.075
0.055
0.045
0.04
0.065
0.055
0.025
0.03
0.02
0.025
0.05
0.04
0.015
0.0
0.0
0.02
0.045
0.035
0.025
0.01
0.01
0.015
0.02
0.01
0.005
-0.025
0.0
0.0
0.005
0.005
-0.015
-0.025
-0.025
-0.015
0.015
0.01
0.0
-0.015
-0.02
-0.015
0.0
0.005
-0.015
-0.02
-0.02
-0.01
-0.005
0.005
0.0
-0.03
-0.015
0.0
0.005
0.01
-0.005
-0.015
-0.015
-0.01
0.005
0.005
-0.005
-0.02
-0.01
-0.005
0.01
0.01
-0.01
-0.01
-0.02
-0.015
0.015
-0.005
-0.015
-0.025
-0.02
-0.02
-0.005
-0.005
-0.02
-0.035
-0.045
-0.025
-0.005
-0.01
-0.03
-0.03
-0.03
-0.02
-0.01
-0.01
-0.025
-0.045
-0.035
-0.015
-0.02
-0.01
-0.02
-0.04
-0.05
-0.025
-0.015
-0.03
-0.02
-0.04
-0.045
-0.025
-0.015
-0.015
-0.03
-0.04
-0.04
-0.025
-0.04
-0.015
-0.025
-0.04
-0.05
-0.025
-0.025
-0.025
-0.035
-0.04
-0.045
-0.03
-0.02
-0.025
-0.035
-0.04
-0.035
-0.03
-0.01
-0.02
-0.045
-0.04
-0.035
-0.03
-0.015
-0.02
-0.03
-0.05
-0.045
-0.025
-0.02
-0.02
-0.025
-0.045
-0.035
-0.03
-0.01
-0.015
-0.025
-0.035
-0.03
-0.035
-0.01
-0.015
-0.025
-0.03
-0.04
-0.025
-0.005
-0.015
-0.01
-0.02
-0.025
-0.005
0.01
-0.005
-0.025
-0.015
-0.015
0.0
0.02
0.01
0.015
0.0
0.015
0.035
0.04
0.065
0.05
0.035
0.03
0.05
0.085
0.06
0.065
0.06
0.055
0.05
0.045
0.035
0.02
0.015
0.0
0.03
0.035
0.04
0.025
0.015
