Lead II
-0.2
-0.195
-0.19
-0.185
-0.205
-0.235
-0.23
-0.225
-0.205
-0.215
-0.21
-0.22
-0.24
-0.245
-0.21
-0.21
-0.22
-0.205
-0.21
-0.205
-0.205
-0.195
-0.215
-0.225
-0.19
-0.19
-0.18
-0.165
-0.175
-0.18
-0.185
-0.17
-0.16
-0.15
-0.165
-0.185
-0.165
-0.155
-0.155
-0.145
-0.15
-0.17
-0.16
-0.165
-0.16
-0.15
-0.16
-0.185
-0.18
-0.175
-0.17
-0.16
-0.18
-0.19
-0.195
-0.205
-0.18
-0.195
-0.21
-0.225
-0.22
-0.205
-0.19
-0.19
-0.19
-0.21
-0.2
-0.19
-0.175
-0.175
-0.18
-0.19
-0.2
-0.17
-0.17
-0.175
-0.17
-0.17
-0.175
-0.165
-0.16
-0.155
-0.175
-0.185
-0.185
-0.16
-0.145
-0.145
-0.15
-0.17
-0.17
-0.175
-0.16
-0.15
-0.145
-0.165
-0.165
-0.16
-0.15
-0.16
-0.16
-0.175
-0.16
-0.17
-0.16
-0.165
-0.165
-0.195
-0.2
-0.185
-0.18
-0.18
-0.18
-0.19
-0.21
-0.2
-0.185
-0.195
-0.2
-0.205
-0.225
-0.21
-0.195
-0.19
-0.195
-0.195
-0.195
-0.19
-0.185
-0.185
-0.195
-0.2
-0.195
-0.17
-0.16
-0.17
-0.18
-0.19
-0.175
-0.17
-0.155
-0.16
-0.155
-0.155
-0.16
-0.16
-0.135
-0.13
-0.135
-0.14
-0.14
-0.145
-0.125
-0.125
-0.115
-0.125
-0.14
-0.115
-0.11
-0.12
-0.135
-0.145
-0.145
-0.11
-0.04
0.045
0.155
0.265
0.37
0.46
0.58
0.71
0.82
0.895
0.97
1.0
1.005
0.955
0.89
0.805
0.68
0.535
0.325
0.13
-0.015
-0.095
-0.15
-0.18
-0.235
-0.235
-0.26
-0.275
-0.29
-0.29
-0.295
-0.3
-0.315
-0.345
-0.345
-0.33
-0.32
-0.32
-0.31
-0.325
-0.325
-0.305
-0.3
-0.31
-0.32
-0.32
-0.32
-0.33
-0.295
-0.305
-0.33
-0.33
-0.335
-0.33
-0.33
-0.33
-0.345
-0.33
-0.345
-0.335
-0.33
-0.325
-0.34
-0.365
-0.365
-0.37
-0.365
-0.365
-0.39
-0.375
-0.395
-0.37
-0.37
-0.365
-0.37
-0.36
-0.365
-0.34
-0.345
-0.335
-0.345
-0.35
-0.345
-0.32
-0.31
-0.295
-0.31
-0.305
-0.3
-0.285
-0.255
-0.24
-0.235
-0.24
-0.24
-0.225
-0.22
-0.2
-0.205
-0.205
-0.2
-0.195
-0.185
-0.16
-0.17
-0.18
-0.17
-0.17
-0.155
-0.15
-0.155
-0.175
-0.16
-0.145
-0.15
-0.15
-0.15
-0.165
-0.185
-0.18
-0.17
-0.175
-0.185
-0.195
-0.21
-0.21
-0.2
-0.19
-0.19
-0.2
-0.19
-0.185
-0.19
-0.185
-0.18
-0.175
-0.175
-0.16
-0.16
-0.15
-0.17
-0.18
-0.195
-0.185
-0.165
-0.15
-0.155
-0.155
-0.16
-0.16
-0.145
-0.135
-0.135
-0.135
-0.145
-0.13
-0.115
-0.125
-0.115
-0.135
-0.12
-0.11
-0.115
-0.125
-0.125
-0.135
-0.15
-0.14
-0.135
-0.14
-0.165
-0.18
-0.175
-0.17
-0.165
-0.16
-0.185
-0.195
-0.185
-0.18
-0.185
-0.18
-0.185
-0.185
-0.195
-0.195
-0.175
-0.165
-0.16
-0.165
-0.18
-0.18
-0.155
-0.155
-0.155
-0.17
-0.16
-0.15
-0.15
-0.135
-0.145
-0.165
-0.16
-0.15
-0.135
-0.125
-0.13
-0.145
-0.14
-0.135
-0.125
-0.11
-0.115
-0.13
-0.14
-0.13
-0.13
-0.11
-0.115
-0.125
-0.145
-0.14
-0.135
-0.13
-0.13
-0.155
-0.165
-0.165
-0.155
-0.145
-0.155
-0.16
-0.16
-0.155
-0.145
-0.15
-0.165
-0.17
-0.18
-0.175
-0.16
-0.16
-0.17
-0.18
-0.175
-0.175
-0.16
-0.145
-0.16
-0.165
-0.18
-0.185
-0.155
-0.165
-0.14
-0.16
-0.155
-0.15
-0.14
-0.14
-0.135
-0.16
-0.18
-0.16
-0.12
-0.075
-0.005
0.08
0.18
0.28
0.42
0.525
0.66
0.795
0.93
1.035
1.125
1.145
1.12
1.065
0.995
0.91
0.805
0.64
0.43
0.225
0.08
0.015
-0.03
-0.095
-0.145
-0.2
-0.225
-0.235
-0.225
-0.235
-0.265
-0.295
-0.31
-0.325
-0.32
-0.325
-0.33
-0.34
-0.35
-0.345
-0.34
-0.335
-0.355
-0.38
-0.385
-0.37
-0.365
-0.355
-0.36
-0.37
-0.37
-0.385
-0.375
-0.355
-0.355
-0.365
-0.37
-0.375
-0.355
-0.35
-0.33
-0.355
-0.35
-0.355
-0.34
-0.33
-0.33
-0.335
-0.35
-0.335
-0.315
-0.325
-0.31
-0.33
-0.32
-0.305
-0.3
-0.295
-0.29
-0.305
-0.31
-0.3
-0.29
-0.295
-0.295
-0.3
-0.315
-0.32
-0.305
-0.305
-0.32
-0.325
-0.33
-0.325
-0.31
-0.3
-0.305
-0.305
-0.305
-0.29
-0.27
-0.265
-0.265
-0.255
-0.25
-0.24
-0.235
-0.225
-0.215
-0.215
-0.21
-0.205
-0.18
-0.155
-0.16
-0.17
-0.18
-0.17
-0.15
-0.15
-0.15
-0.16
-0.175
-0.155
-0.155
-0.145
-0.15
-0.155
-0.16
-0.155
-0.155
-0.16
-0.15
-0.165
-0.18
-0.18
-0.165
-0.165
-0.175
-0.2
-0.2
-0.2
-0.18
-0.18
-0.185
-0.205
-0.195
-0.19
-0.175
-0.17
-0.175
-0.19
-0.195
-0.185
-0.165
-0.16
-0.16
-0.165
-0.185
-0.185
-0.155
-0.14
-0.15
-0.15
-0.16
-0.145
-0.15
-0.13
-0.125
-0.135
-0.15
-0.155
-0.145
-0.125
-0.125
-0.145
-0.135
-0.14
-0.125
-0.135
-0.14
-0.15
-0.15
-0.15
-0.14
-0.125
-0.14
-0.16
-0.175
-0.185
-0.165
-0.165
-0.175
-0.17
-0.175
-0.18
-0.17
-0.15
-0.155
-0.175
-0.185
-0.175
-0.17
-0.15
-0.165
-0.175
-0.18
-0.17
-0.165
-0.155
-0.165
-0.17
-0.17
-0.165
-0.15
-0.13
-0.13
-0.13
-0.135
-0.14
-0.13
-0.12
-0.135
-0.13
-0.14
-0.13
-0.115
-0.11
-0.115
-0.12
-0.13
-0.125
-0.115
-0.125
-0.12
-0.135
-0.15
-0.14
-0.13
-0.125
-0.13
-0.145
-0.175
-0.17
-0.145
-0.14
-0.14
-0.175
-0.2
-0.185
-0.15
-0.08
0.005
0.105
0.215
0.35
0.495
0.645
0.8
0.945
1.055
1.125
1.14
1.11
1.035
0.915
0.75
0.54
0.315
0.145
0.045
-0.045
-0.12
-0.17
-0.185
-0.19
-0.215
-0.235
-0.26
-0.25
-0.26
-0.26
-0.265
-0.28
-0.295
-0.31
-0.29
-0.3
-0.3
-0.32
-0.325
-0.33
-0.325
-0.335
-0.34
-0.36
-0.37
-0.38
-0.38
-0.385
-0.38
-0.385
-0.39
-0.4
-0.37
-0.375
-0.375
-0.385
-0.39
-0.385
-0.36
-0.35
-0.36
-0.375
-0.39
-0.38
-0.36
-0.35
-0.35
-0.37
-0.37
-0.355
-0.335
-0.315
-0.305
-0.32
-0.315
-0.33
-0.305
-0.305
-0.305
-0.31
-0.31
-0.3
-0.285
-0.275
-0.29
-0.29
-0.305
-0.285
-0.275
-0.265
-0.265
-0.265
-0.285
-0.28
-0.255
-0.24
-0.24
-0.26
-0.275
-0.255
-0.24
-0.225
-0.225
-0.225
-0.24
-0.225
-0.21
-0.2
-0.205
-0.235
-0.23
-0.21
-0.195
-0.19
-0.18
-0.19
-0.19
-0.2
-0.175
-0.165
-0.17
-0.175
-0.175
-0.17
-0.17
-0.145
-0.135
-0.16
-0.17
-0.16
-0.155
-0.14
-0.125
-0.14
-0.145
-0.14
-0.145
-0.135
-0.135
-0.145
-0.155
-0.17
-0.145
-0.15
-0.155
-0.165
-0.18
-0.19
-0.195
-0.185
-0.19
-0.205
-0.21
-0.21
-0.195
-0.19
-0.19
-0.195
-0.19
-0.185
-0.175
-0.175
-0.165
-0.18
-0.185
-0.175
-0.165
-0.15
-0.165
-0.18
-0.18
-0.18
-0.165
-0.155
-0.16
-0.16
-0.18
-0.175
-0.145
-0.145
-0.15
-0.155
-0.155
-0.145
-0.145
-0.135
-0.14
-0.145
-0.15
-0.15
-0.145
-0.14
-0.145
-0.17
-0.185
-0.175
-0.17
-0.155
-0.155
-0.175
-0.18
-0.185
-0.18
-0.16
-0.17
-0.175
-0.17
-0.17
-0.155
-0.145
-0.145
-0.155
-0.165
-0.135
-0.04
0.1
0.22
0.35
0.465
0.625
0.81
0.98
1.095
1.16
1.18
1.16
1.08
0.965
0.775
0.535
0.27
0.09
-0.015
-0.055
-0.135
-0.195
-0.215
-0.225
-0.235
-0.24
-0.28
-0.28
-0.305
-0.31
-0.3
-0.315
-0.325
-0.345
-0.36
-0.36
-0.365
-0.365
-0.37
-0.385
-0.4
-0.4
-0.39
-0.38
-0.37
-0.38
-0.39
-0.395
-0.385
-0.375
-0.365
-0.375
-0.37
-0.38
-0.365
-0.345
-0.355
-0.365
-0.365
-0.36
-0.35
-0.335
-0.345
-0.35
-0.35
-0.345
-0.335
-0.32
-0.325
-0.32
-0.33
-0.33
-0.32
-0.32
-0.325
-0.33
-0.33
-0.335
-0.34
-0.335
-0.34
-0.35
-0.36
-0.34
-0.315
-0.305
-0.295
-0.315
-0.325
-0.325
-0.285
-0.28
-0.265
-0.28
-0.28
-0.27
-0.245
-0.22
-0.205
-0.22
-0.23
-0.225
-0.205
-0.19
-0.185
-0.175
-0.19
-0.19
-0.185
-0.175
-0.165
-0.18
-0.18
-0.175
-0.15
-0.15
-0.155
-0.15
-0.17
-0.17
-0.155
-0.155
-0.165
-0.17
-0.18
-0.19
-0.17
-0.15
-0.155
-0.16
-0.185
-0.19
-0.175
-0.155
-0.18
-0.185
-0.19
-0.195
-0.175
-0.18
-0.185
-0.205
-0.225
-0.22
-0.215
-0.215
-0.215
-0.21
-0.23
-0.225
-0.205
-0.195
-0.2
-0.21
-0.2
-0.2
-0.19
-0.175
-0.185
-0.2
-0.215
-0.21
-0.19
-0.18
-0.175
-0.185
-0.185
-0.19
-0.165
-0.155
-0.165
-0.17
-0.17
-0.16
-0.14
-0.13
-0.13
-0.145
-0.15
-0.14
-0.13
-0.125
-0.125
-0.145
-0.17
-0.16
-0.155
-0.155
-0.17
-0.18
-0.19
-0.205
-0.195
-0.21
-0.19
-0.2
-0.205
-0.215
-0.2
-0.195
-0.19
-0.2
-0.2
-0.2
-0.185
-0.19
-0.195
-0.195
-0.165
-0.08
0.045
0.18
0.3
0.415
0.555
0.735
0.92
1.045
1.125
1.145
1.13
1.065
0.965
0.84
0.68
0.44
0.195
0.035
-0.05
-0.115
-0.17
-0.205
-0.24
-0.25
-0.245
-0.26
-0.275
-0.305
-0.315
-0.33
-0.345
-0.335
-0.355
-0.37
-0.385
-0.39
-0.4
-0.385
-0.405
-0.425
-0.415
-0.415
-0.415
-0.41
-0.415
-0.43
-0.445
-0.435
-0.425
-0.405
-0.405
-0.425
-0.44
-0.435
-0.425
-0.415
-0.405
-0.41
-0.415
-0.4
-0.395
-0.38
-0.385
-0.385
-0.39
-0.38
-0.37
-0.365
-0.355
-0.37
-0.355
-0.345
-0.335
-0.33
-0.335
-0.345
-0.35
-0.34
-0.335
-0.32
-0.325
-0.345
-0.345
-0.34
-0.34
-0.325
-0.335
-0.36
-0.355
-0.355
-0.35
-0.335
-0.33
-0.33
-0.33
-0.33
-0.32
-0.29
-0.29
-0.29
-0.295
-0.275
-0.265
-0.24
-0.24
-0.24
-0.245
-0.24
-0.225
-0.22
-0.225
-0.23
-0.225
-0.215
-0.21
-0.2
-0.215
-0.22
-0.23
-0.21
-0.2
-0.2
-0.195
-0.195
-0.21
-0.215
-0.205
-0.19
-0.185
-0.205
-0.21
-0.21
-0.205
-0.185
-0.19
-0.2
-0.2
-0.22
-0.215
-0.23
-0.235
-0.245
-0.25
-0.255
-0.25
-0.235
-0.235
-0.25
-0.24
-0.23
-0.225
-0.225
-0.23
-0.235
-0.245
-0.225
-0.215
-0.2
-0.205
-0.235
-0.22
-0.235
-0.215
-0.2
-0.2
-0.205
-0.21
-0.215
-0.215
-0.185
-0.195
-0.195
-0.2
-0.195
-0.19
-0.175
-0.175
-0.175
-0.195
-0.18
-0.185
-0.175
-0.175
-0.185
-0.185
-0.2
-0.19
-0.175
-0.2
-0.205
-0.215
-0.23
-0.215
-0.21
-0.215
-0.23
-0.255
-0.25
-0.235
-0.235
-0.215
-0.22
-0.21
-0.215
-0.215
-0.185
-0.19
-0.19
-0.2
-0.195
-0.195
-0.18
-0.19
-0.19
-0.2
-0.175
-0.1
0.015
0.11
0.24
0.355
0.48
0.64
0.81
0.93
1.04
1.09
1.125
1.115
1.055
0.945
0.795
0.6
0.37
0.165
0.015
-0.06
-0.14
-0.215
-0.27
-0.275
-0.275
-0.3
-0.32
-0.34
-0.385
-0.37
-0.375
-0.385
-0.4
-0.425
-0.425
-0.4
-0.41
-0.42
-0.415
-0.435
-0.44
-0.42
-0.4
-0.41
-0.42
-0.42
-0.42
-0.42
-0.395
-0.4
-0.41
-0.425
-0.42
-0.405
-0.39
-0.38
-0.38
-0.39
-0.39
-0.385
-0.37
-0.37
-0.37
-0.39
-0.38
-0.37
-0.38
-0.375
-0.38
-0.39
-0.38
-0.37
-0.355
-0.37
-0.385
-0.39
-0.39
-0.38
-0.365
-0.385
-0.395
-0.405
-0.4
-0.37
-0.385
-0.39
-0.38
-0.385
-0.39
-0.38
-0.355
-0.35
-0.36
-0.35
-0.35
-0.33
-0.31
-0.295
-0.285
-0.275
-0.275
-0.255
-0.235
-0.225
-0.23
-0.225
-0.22
-0.205
-0.18
-0.19
-0.195
-0.205
-0.21
-0.19
-0.17
-0.2
-0.2
-0.215
-0.215
-0.195
-0.185
-0.185
-0.195
-0.195
-0.235
-0.215
-0.2
-0.205
-0.22
-0.23
-0.235
-0.235
-0.235
-0.235
-0.25
-0.265
-0.265
-0.275
-0.26
-0.27
-0.27
-0.275
-0.28
-0.26
-0.235
-0.24
-0.25
-0.245
-0.24
-0.225
-0.225
-0.21
-0.215
-0.22
-0.215
-0.205
-0.185
-0.185
-0.195
-0.195
-0.2
-0.18
-0.165
-0.17
-0.18
-0.19
-0.195
-0.185
-0.165
-0.165
-0.195
-0.205
-0.195
-0.2
-0.175
-0.18
-0.185
-0.195
-0.21
-0.22
-0.2
-0.205
-0.21
-0.22
-0.235
-0.235
-0.225
-0.22
-0.235
-0.235
-0.25
-0.245
-0.21
-0.18
-0.1
-0.01
0.12
0.255
0.405
0.545
0.72
0.87
1.01
1.105
1.16
1.145
1.08
0.955
0.805
0.575
0.325
0.11
-0.05
-0.125
-0.18
-0.22
-0.24
-0.235
-0.265
-0.29
-0.3
-0.315
-0.305
-0.305
-0.32
-0.35
-0.365
-0.365
-0.35
-0.35
-0.36
-0.39
-0.4
-0.405
-0.425
-0.415
-0.435
-0.44
-0.455
-0.465
-0.445
-0.445
-0.445
-0.45
-0.455
-0.46
-0.455
-0.455
-0.445
-0.445
-0.45
-0.445
-0.435
-0.445
-0.455
-0.46
-0.47
-0.45
-0.425
-0.43
-0.435
-0.445
-0.435
-0.42
-0.395
-0.39
-0.395
-0.41
-0.395
-0.385
-0.365
-0.36
-0.365
-0.365
-0.36
-0.355
-0.335
-0.335
-0.33
-0.32
-0.335
-0.32
-0.3
-0.285
-0.295
-0.28
-0.28
-0.29
-0.265
-0.27
-0.28
-0.28
-0.295
-0.27
-0.25
-0.26
-0.26
-0.285
-0.27
-0.25
-0.235
-0.23
-0.23
-0.245
-0.24
-0.24
-0.22
-0.22
-0.23
-0.24
-0.24
-0.225
-0.2
-0.19
-0.195
-0.205
-0.205
-0.2
-0.185
-0.19
-0.19
-0.195
-0.2
-0.19
-0.175
-0.195
-0.19
-0.2
-0.205
-0.19
-0.19
-0.205
-0.21
-0.225
-0.225
-0.215
-0.2
-0.2
-0.22
-0.245
-0.25
-0.245
-0.24
-0.235
-0.245
-0.26
-0.25
-0.235
-0.235
-0.225
-0.23
-0.245
-0.25
-0.23
-0.215
-0.215
-0.215
-0.22
-0.225
-0.215
-0.205
-0.215
-0.225
-0.23
-0.225
-0.205
-0.19
-0.19
-0.195
-0.205
-0.21
-0.195
-0.195
-0.19
-0.19
-0.205
-0.205
-0.19
-0.18
-0.18
-0.195
-0.195
-0.2
-0.195
-0.2
-0.2
-0.21
-0.23
-0.265
-0.25
-0.235
-0.235
-0.245
-0.245
-0.24
-0.23
-0.215
-0.21
-0.235
-0.245
-0.25
-0.24
-0.225
-0.215
-0.2
-0.215
-0.22
-0.195
-0.19
-0.185
-0.18
-0.19
-0.2
-0.18
-0.16
-0.17
-0.18
-0.185
-0.165
-0.1
0.005
0.135
0.265
0.38
0.51
0.665
0.825
0.95
1.025
1.025
0.99
0.935
0.835
0.705
0.49
0.245
0.035
-0.09
-0.155
-0.21
-0.275
-0.32
-0.335
-0.335
-0.325
-0.33
-0.355
-0.37
-0.395
-0.385
-0.39
-0.38
-0.395
-0.4
-0.405
-0.4
-0.4
-0.385
-0.39
-0.42
-0.425
-0.4
-0.385
-0.375
-0.395
-0.4
-0.41
-0.39
-0.375
-0.38
-0.385
-0.385
-0.395
-0.395
-0.38
-0.38
-0.38
-0.39
-0.395
-0.395
-0.385
-0.38
-0.4
-0.405
-0.405
-0.41
-0.4
-0.4
-0.42
-0.415
-0.425
-0.42
-0.405
-0.41
-0.395
-0.395
-0.405
-0.395
-0.36
-0.35
-0.36
-0.355
-0.34
-0.33
-0.33
-0.315
-0.32
-0.305
-0.31
-0.29
-0.255
-0.25
-0.245
-0.255
-0.255
-0.25
-0.225
-0.21
-0.225
-0.215
-0.22
-0.215
-0.205
-0.195
-0.2
-0.22
-0.22
-0.215
-0.21
-0.22
-0.23
-0.235
-0.245
-0.25
-0.24
-0.245
-0.26
-0.27
-0.275
-0.275
-0.265
-0.265
-0.275
-0.275
-0.28
-0.265
-0.25
-0.25
-0.26
-0.26
-0.255
-0.235
-0.225
-0.23
-0.235
-0.245
-0.25
-0.235
-0.22
-0.215
-0.215
-0.23
-0.23
-0.215
-0.205
-0.195
-0.195
-0.2
-0.21
-0.21
-0.19
-0.185
-0.19
-0.2
-0.21
-0.21
-0.2
-0.195
-0.21
-0.22
-0.22
-0.22
-0.2
-0.2
-0.21
-0.235
-0.245
-0.24
-0.235
-0.24
-0.26
-0.275
-0.275
-0.275
-0.27
-0.26
-0.265
-0.275
-0.28
-0.26
-0.24
-0.24
-0.235
-0.26
-0.255
-0.245
-0.24
-0.235
-0.245
-0.245
-0.24
-0.235
-0.23
-0.225
-0.235
-0.22
-0.23
-0.23
-0.21
-0.195
-0.205
-0.21
-0.215
-0.22
-0.2
-0.195
-0.205
-0.215
-0.22
-0.23
-0.215
-0.195
-0.195
-0.21
-0.2
-0.215
-0.2
-0.2
-0.2
-0.22
-0.23
-0.23
-0.22
-0.225
-0.235
-0.265
-0.26
-0.26
-0.255
-0.25
-0.265
-0.27
-0.265
-0.255
-0.24
-0.24
-0.245
-0.255
-0.26
-0.25
-0.235
-0.225
-0.235
-0.25
-0.27
-0.25
-0.26
-0.245
-0.245
-0.245
-0.255
-0.25
-0.235
-0.23
-0.225
-0.235
-0.24
-0.235
-0.23
-0.21
-0.215
-0.23
-0.235
-0.22
-0.205
-0.2
-0.21
-0.22
-0.23
-0.215
-0.2
-0.205
-0.21
-0.225
-0.23
-0.235
-0.23
-0.25
-0.25
-0.265
-0.265
-0.265
-0.26
-0.25
-0.27
-0.245
-0.235
-0.235
-0.235
-0.23
-0.24
-0.235
-0.215
-0.12
-0.01
0.115
0.245
0.365
0.495
0.65
0.83
0.98
1.08
1.11
1.1
1.06
0.985
0.835
0.615
0.335
0.1
-0.045
-0.105
-0.15
-0.225
-0.265
-0.295
-0.295
-0.305
-0.31
-0.33
-0.345
-0.35
-0.36
-0.35
-0.36
-0.365
-0.385
-0.4
-0.405
-0.405
-0.41
-0.415
-0.44
-0.43
-0.44
-0.44
-0.43
-0.43
-0.44
-0.445
-0.435
-0.425
-0.415
-0.425
-0.43
-0.435
-0.435
-0.42
-0.415
-0.42
-0.43
-0.435
-0.425
-0.425
-0.4
-0.405
-0.4
-0.405
-0.405
-0.385
-0.385
-0.38
-0.38
-0.38
-0.37
-0.36
-0.35
-0.345
-0.35
-0.36
-0.345
-0.33
-0.33
-0.335
-0.365
-0.355
-0.34
-0.34
-0.335
-0.335
-0.36
-0.37
-0.365
-0.36
-0.35
-0.36
-0.38
-0.375
-0.365
-0.35
-0.345
-0.335
-0.34
-0.32
-0.31
-0.305
-0.285
-0.285
-0.285
-0.285
-0.275
-0.26
-0.245
-0.25
-0.27
-0.265
-0.26
-0.255
-0.23
-0.235
-0.245
-0.235
-0.22
-0.22
-0.21
-0.225
-0.23
-0.23
-0.215
-0.215
-0.205
-0.195
-0.21
-0.21
-0.21
-0.21
-0.2
-0.205
-0.225
-0.23
-0.225
-0.215
-0.205
-0.215
-0.22
-0.245
-0.245
-0.23
-0.23
-0.245
-0.245
-0.255
-0.275
-0.26
-0.25
-0.25
-0.26
-0.26
-0.255
-0.245
-0.25
-0.235
-0.24
-0.26
-0.245
-0.23
-0.215
-0.23
-0.235
-0.245
-0.255
-0.225
-0.225
-0.215
-0.235
-0.24
-0.225
-0.215
-0.205
-0.205
-0.21
-0.225
-0.22
-0.21
-0.195
-0.2
-0.21
-0.2
-0.205
-0.19
-0.185
-0.18
-0.195
-0.195
-0.205
-0.19
-0.185
-0.195
-0.2
-0.22
-0.205
-0.205
-0.2
-0.2
-0.22
-0.22
-0.255
-0.23
-0.24
-0.25
-0.255
-0.26
-0.26
-0.23
-0.25
-0.245
-0.255
-0.245
-0.24
-0.235
-0.22
-0.23
-0.24
-0.235
-0.235
-0.22
-0.205
-0.2
-0.21
-0.22
-0.215
-0.205
-0.2
-0.205
-0.205
-0.21
-0.205
-0.19
-0.19
-0.19
-0.195
-0.205
-0.18
-0.17
-0.16
-0.16
-0.17
-0.19
-0.19
-0.175
-0.16
-0.17
-0.18
-0.19
-0.19
-0.18
-0.17
-0.175
-0.185
-0.2
-0.205
-0.2
-0.19
-0.19
-0.205
-0.215
-0.23
-0.225
-0.23
-0.225
-0.195
-0.145
-0.035
0.09
0.23
0.36
0.505
0.67
0.855
1.01
1.12
1.135
1.095
1.015
0.905
0.73
0.515
0.25
0.045
-0.075
-0.135
-0.185
-0.245
-0.26
-0.28
-0.295
-0.29
-0.295
-0.315
-0.32
-0.34
-0.35
-0.35
-0.35
-0.345
-0.345
-0.36
-0.375
-0.39
-0.38
-0.365
-0.38
-0.385
-0.395
-0.4
-0.405
-0.39
-0.4
-0.415
-0.415
-0.42
-0.4
-0.39
-0.41
-0.405
-0.41
-0.41
-0.38
-0.38
-0.385
-0.385
-0.39
-0.39
-0.385
-0.38
-0.385
-0.385
-0.395
-0.38
-0.365
-0.345
-0.345
-0.36
-0.38
-0.37
-0.355
-0.34
-0.34
-0.35
-0.365
-0.355
-0.35
-0.33
-0.33
-0.335
-0.34
-0.35
-0.33
-0.32
-0.31
-0.32
-0.325
-0.32
-0.295
-0.28
-0.29
-0.29
-0.29
-0.31
-0.305
-0.275
-0.26
-0.275
-0.3
-0.275
-0.27
-0.24
-0.255
-0.255
-0.27
-0.25
-0.24
-0.23
-0.225
-0.22
-0.24
-0.22
-0.21
-0.23
-0.2
-0.215
-0.225
-0.22
-0.2
-0.185
-0.185
-0.195
-0.205
-0.19
-0.18
-0.17
-0.175
-0.185
-0.19
-0.185
-0.175
-0.16
-0.175
-0.18
-0.185
-0.18
-0.19
-0.18
-0.175
-0.19
-0.185
-0.195
-0.2
-0.195
-0.195
-0.21
-0.235
-0.255
-0.225
-0.24
-0.23
-0.25
-0.26
-0.25
-0.23
-0.235
-0.21
-0.23
-0.245
-0.23
-0.22
-0.2
-0.2
-0.2
-0.2
-0.205
-0.2
-0.19
-0.195
-0.205
-0.215
-0.205
-0.19
-0.185
-0.175
-0.18
-0.185
-0.195
-0.175
-0.17
-0.18
-0.19
-0.19
-0.165
-0.16
-0.15
-0.15
-0.17
-0.17
-0.165
-0.16
-0.155
-0.16
-0.165
-0.175
-0.185
-0.17
-0.17
-0.18
-0.195
-0.205
-0.2
-0.195
-0.185
-0.205
-0.215
-0.23
-0.23
-0.215
-0.2
-0.21
-0.215
-0.215
-0.215
-0.2
-0.19
-0.19
-0.19
-0.195
-0.19
-0.19
-0.18
-0.18
-0.185
-0.195
-0.2
-0.175
-0.18
-0.18
-0.175
-0.175
-0.16
-0.145
-0.135
-0.14
-0.165
-0.16
-0.155
-0.15
-0.14
-0.145
-0.145
-0.16
-0.155
-0.145
-0.155
-0.14
-0.15
-0.155
-0.155
-0.165
-0.15
-0.155
-0.165
-0.17
-0.165
-0.155
-0.155
-0.18
-0.185
-0.205
-0.2
-0.19
-0.19
-0.19
-0.19
-0.195
-0.185
-0.185
-0.165
-0.16
-0.17
-0.18
-0.16
-0.16
-0.135
-0.145
-0.155
-0.14
-0.1
-0.02
0.09
0.2
0.305
0.41
0.54
0.73
0.9
1.04
1.12
1.155
1.165
1.12
1.05
0.895
0.68
0.42
0.155
0.015
-0.04
-0.1
-0.18
-0.23
-0.25
-0.235
-0.245
-0.27
-0.28
-0.315
-0.32
-0.31
-0.305
-0.32
-0.33
-0.345
-0.35
-0.345
-0.345
-0.355
-0.365
-0.385
-0.37
-0.355
-0.345
-0.355
-0.365
-0.38
-0.38
-0.36
-0.35
-0.365
-0.38
-0.385
-0.355
-0.36
-0.355
-0.345
-0.355
-0.36
-0.365
-0.36
-0.34
-0.34
-0.345
-0.365
-0.355
-0.35
-0.34
-0.34
-0.345
-0.35
-0.36
-0.34
-0.325
-0.32
-0.325
-0.335
-0.325
-0.31
-0.295
-0.295
-0.3
-0.32
-0.325
-0.32
-0.3
-0.295
-0.31
-0.335
-0.33
-0.325
-0.3
-0.31
-0.31
-0.32
-0.31
-0.3
-0.28
-0.255
-0.26
-0.275
-0.265
-0.25
-0.22
-0.215
-0.22
-0.225
-0.215
-0.215
-0.195
-0.2
-0.215
-0.21
-0.2
-0.19
-0.175
-0.17
-0.18
-0.19
-0.19
-0.175
-0.16
-0.145
-0.15
-0.16
-0.15
-0.16
-0.145
-0.15
-0.17
-0.165
-0.17
-0.175
-0.17
-0.17
-0.185
-0.19
-0.19
-0.18
-0.16
-0.17
-0.19
-0.2
-0.215
-0.22
-0.21
-0.21
-0.22
-0.245
-0.23
-0.215
-0.205
-0.19
-0.2
-0.225
-0.21
-0.19
-0.175
-0.175
-0.17
-0.17
-0.18
-0.165
-0.155
-0.16
-0.165
-0.165
-0.155
-0.14
-0.14
-0.145
-0.155
-0.155
-0.165
-0.16
-0.135
-0.14
-0.15
-0.15
-0.165
-0.15
-0.135
-0.135
-0.16
-0.15
-0.15
-0.14
-0.145
-0.16
-0.175
-0.175
-0.18
-0.16
-0.16
-0.175
-0.185
-0.19
-0.195
-0.19
-0.195
-0.19
-0.195
-0.205
-0.23
-0.215
-0.19
-0.175
-0.19
-0.2
-0.21
-0.19
-0.18
-0.175
-0.17
-0.17
-0.165
-0.16
-0.145
-0.15
-0.16
-0.16
-0.165
-0.145
-0.115
-0.13
-0.14
-0.145
-0.145
-0.135
-0.12
-0.13
-0.14
-0.145
-0.155
-0.125
-0.115
-0.115
-0.115
-0.13
-0.145
-0.13
-0.12
-0.12
-0.12
-0.13
-0.15
-0.145
-0.15
-0.155
-0.15
-0.155
-0.175
-0.155
-0.17
-0.165
-0.18
-0.19
-0.185
-0.175
-0.16
-0.16
-0.16
-0.18
-0.175
-0.155
-0.145
-0.155
-0.16
-0.16
-0.155
-0.145
-0.13
-0.14
-0.15
-0.145
-0.14
-0.125
-0.115
-0.12
-0.135
-0.115
-0.125
-0.115
-0.095
-0.095
-0.115
-0.11
-0.12
-0.11
-0.105
-0.11
-0.115
-0.125
-0.145
-0.135
-0.13
-0.12
-0.135
-0.145
-0.145
-0.135
-0.115
-0.13
-0.13
-0.14
-0.15
-0.155
-0.14
-0.14
-0.16
-0.16
-0.16
-0.155
-0.155
-0.135
-0.15
-0.15
-0.145
-0.145
-0.13
-0.135
-0.11
-0.055
0.075
0.225
0.375
0.49
0.6
0.755
0.92
1.065
1.16
1.195
1.15
1.08
0.98
0.81
0.57
0.31
0.105
-0.005
-0.06
-0.105
-0.135
-0.175
-0.195
-0.205
-0.215
-0.25
-0.24
-0.245
-0.25
-0.265
-0.28
-0.28
-0.28
-0.28
-0.295
-0.325
-0.33
-0.33
-0.33
-0.325
-0.355
-0.36
-0.375
-0.365
-0.34
-0.35
-0.345
-0.37
-0.36
-0.34
-0.325
-0.335
-0.345
-0.345
-0.36
-0.36
-0.345
-0.335
-0.355
-0.345
-0.355
-0.34
-0.325
-0.305
-0.305
-0.3
-0.32
-0.31
-0.285
-0.265
-0.285
-0.29
-0.285
-0.29
-0.275
-0.26
-0.27
-0.265
-0.265
-0.255
-0.25
-0.235
-0.26
-0.265
-0.265
-0.265
-0.255
-0.265
-0.275
-0.285
-0.285
-0.275
-0.255
-0.235
-0.255
-0.245
-0.245
-0.24
-0.22
-0.2
-0.195
-0.205
-0.185
-0.18
-0.16
-0.16
-0.155
-0.165
-0.165
-0.155
-0.125
-0.13
-0.135
-0.135
-0.13
-0.12
-0.11
-0.1
-0.11
-0.115
-0.115
-0.105
-0.085
-0.085
-0.115
-0.12
-0.135
-0.125
-0.105
-0.1
-0.11
-0.135
-0.14
-0.115
-0.12
-0.125
-0.15
-0.16
-0.17
-0.17
-0.17
-0.155
-0.18
-0.185
-0.19
-0.19
-0.175
-0.17
-0.19
-0.19
-0.2
-0.185
-0.16
-0.145
-0.145
-0.15
-0.14
-0.12
-0.12
-0.115
-0.11
-0.12
-0.125
-0.12
-0.1
-0.08
-0.095
-0.1
-0.105
-0.09
-0.075
-0.07
-0.075
-0.085
-0.095
-0.08
-0.075
-0.08
-0.08
-0.095
-0.105
-0.095
-0.085
-0.095
-0.1
-0.11
-0.115
-0.105
-0.11
-0.1
-0.11
-0.135
-0.13
-0.13
-0.14
-0.145
-0.16
-0.17
-0.18
-0.18
-0.155
-0.135
-0.15
-0.16
-0.15
-0.13
-0.11
-0.115
-0.12
-0.13
-0.13
-0.115
-0.105
-0.08
-0.09
-0.1
-0.095
-0.08
-0.065
-0.06
-0.07
-0.085
-0.085
-0.075
-0.035
0.035
0.13
0.235
0.36
0.49
0.64
0.78
0.93
1.06
1.155
1.21
1.235
1.2
1.105
1.005
0.85
0.665
0.44
0.235
0.075
-0.01
-0.075
-0.125
-0.175
-0.2
-0.22
-0.235
-0.25
-0.24
-0.245
-0.245
-0.265
-0.28
-0.275
-0.275
-0.265
-0.27
-0.285
-0.295
-0.29
-0.285
-0.275
-0.275
-0.295
-0.29
-0.295
-0.275
-0.27
-0.25
-0.265
-0.27
-0.285
-0.275
-0.265
-0.245
-0.255
-0.265
-0.26
-0.265
-0.24
-0.24
-0.255
-0.26
-0.255
-0.26
-0.25
-0.245
-0.255
-0.26
-0.26
-0.26
-0.25
-0.265
-0.29
-0.305
-0.31
-0.295
-0.285
-0.28
-0.285
-0.3
-0.285
-0.26
-0.24
-0.24
-0.255
-0.26
-0.265
-0.24
-0.215
-0.195
-0.185
-0.2
-0.195
-0.175
-0.155
-0.14
-0.135
-0.125
-0.135
-0.13
-0.11
-0.095
-0.095
-0.095
-0.095
-0.08
-0.07
-0.065
-0.08
-0.075
-0.085
-0.075
-0.065
-0.065
-0.075
-0.09
-0.09
-0.085
-0.09
-0.1
-0.125
-0.145
-0.15
-0.155
-0.155
-0.155
-0.165
-0.185
-0.175
-0.15
-0.135
-0.13
-0.125
-0.15
-0.135
-0.115
-0.1
-0.095
-0.095
-0.1
-0.11
-0.105
-0.095
-0.075
-0.08
-0.1
-0.105
-0.095
-0.07
-0.065
-0.075
-0.075
-0.085
-0.065
-0.055
-0.045
-0.06
-0.055
-0.06
-0.06
-0.055
-0.065
-0.08
-0.07
-0.08
-0.08
-0.07
-0.065
-0.085
-0.095
-0.105
-0.12
-0.12
-0.115
-0.12
-0.135
-0.135
-0.115
-0.1
-0.095
-0.09
-0.095
-0.105
-0.095
-0.085
-0.08
-0.08
-0.085
-0.09
-0.08
-0.07
-0.065
-0.075
-0.085
-0.08
-0.055
-0.05
-0.04
-0.06
-0.08
-0.075
-0.055
-0.055
-0.05
-0.055
-0.06
-0.07
-0.07
-0.05
-0.035
-0.055
-0.075
-0.085
-0.065
-0.015
0.065
0.19
0.295
0.43
0.56
0.72
0.875
1.0
1.07
1.105
1.1
1.04
0.95
0.82
0.645
0.42
0.225
0.08
0.0
-0.06
-0.125
-0.16
-0.155
-0.135
-0.135
-0.17
-0.165
-0.19
-0.19
-0.175
-0.175
-0.19
-0.2
-0.215
-0.21
-0.2
-0.205
-0.22
-0.235
-0.255
-0.23
-0.23
-0.22
-0.225
-0.24
-0.25
-0.25
-0.25
-0.255
-0.255
-0.27
-0.28
-0.265
-0.265
-0.275
-0.285
-0.29
-0.295
-0.305
-0.3
-0.29
-0.315
-0.31
-0.32
-0.315
-0.295
-0.28
-0.285
-0.3
-0.295
-0.285
-0.26
-0.24
-0.235
-0.25
-0.245
-0.23
-0.21
-0.215
-0.195
-0.21
-0.205
-0.195
-0.18
-0.17
-0.155
-0.17
-0.175
-0.145
-0.13
-0.125
-0.115
-0.1
-0.11
-0.095
-0.085
-0.075
-0.075
-0.08
-0.085
-0.085
-0.06
-0.065
-0.085
-0.08
-0.08
-0.08
-0.09
-0.075
-0.1
-0.105
-0.12
-0.11
-0.12
-0.115
-0.12
-0.13
-0.13
-0.115
-0.095
-0.09
-0.095
-0.105
-0.115
-0.095
-0.085
-0.075
-0.08
-0.095
-0.1
-0.085
-0.065
-0.05
-0.035
-0.035
-0.035
-0.035
-0.025
-0.01
0.0
-0.01
-0.02
0.0
0.005
0.01
-0.015
-0.025
-0.025
-0.025
-0.025
-0.025
-0.03
-0.035
-0.04
-0.035
-0.04
-0.035
-0.06
-0.075
-0.085
-0.09
-0.075
-0.075
-0.095
-0.11
-0.125
-0.125
-0.105
-0.09
-0.095
-0.1
-0.125
-0.11
-0.085
-0.09
-0.08
-0.105
-0.1
-0.1
-0.08
-0.08
-0.08
-0.09
-0.095
-0.095
-0.08
-0.075
-0.075
-0.075
-0.075
-0.06
-0.05
-0.05
-0.065
-0.07
-0.075
-0.07
-0.045
-0.05
-0.05
-0.065
-0.07
-0.06
-0.04
-0.04
-0.035
-0.05
-0.055
-0.055
-0.045
-0.05
-0.065
-0.08
-0.11
-0.095
-0.1
-0.095
-0.11
-0.11
-0.125
-0.11
-0.105
-0.09
-0.1
-0.11
-0.105
-0.1
-0.09
-0.075
-0.08
-0.105
-0.095
-0.085
-0.085
-0.09
-0.085
-0.07
-0.02
0.1
0.24
0.365
0.475
0.575
0.71
0.875
1.015
1.115
