Lead II
1.285
1.445
1.485
1.38
1.155
0.84
0.52
0.205
-0.03
-0.205
-0.3
-0.35
-0.335
-0.295
-0.275
-0.27
-0.295
-0.315
-0.345
-0.37
-0.365
-0.375
-0.36
-0.36
-0.345
-0.34
-0.35
-0.37
-0.375
-0.375
-0.375
-0.375
-0.36
-0.365
-0.36
-0.365
-0.355
-0.345
-0.345
-0.35
-0.365
-0.375
-0.37
-0.365
-0.36
-0.34
-0.33
-0.32
-0.315
-0.305
-0.31
-0.305
-0.315
-0.32
-0.325
-0.32
-0.32
-0.3
-0.285
-0.27
-0.27
-0.26
-0.28
-0.285
-0.295
-0.3
-0.295
-0.29
-0.29
-0.275
-0.265
-0.265
-0.25
-0.235
-0.24
-0.24
-0.235
-0.255
-0.255
-0.26
-0.255
-0.26
-0.245
-0.245
-0.235
-0.205
-0.2
-0.205
-0.21
-0.22
-0.225
-0.225
-0.23
-0.235
-0.225
-0.21
-0.175
-0.165
-0.155
-0.15
-0.15
-0.16
-0.165
-0.17
-0.18
-0.175
-0.16
-0.17
-0.165
-0.175
-0.18
-0.175
-0.18
-0.18
-0.18
-0.195
-0.205
-0.215
-0.22
-0.2
-0.2
-0.185
-0.19
-0.18
-0.18
-0.175
-0.19
-0.18
-0.195
-0.2
-0.215
-0.205
-0.215
-0.2
-0.2
-0.17
-0.16
-0.155
-0.15
-0.17
-0.175
-0.19
-0.195
-0.19
-0.185
-0.19
-0.18
-0.18
-0.165
-0.16
-0.165
-0.17
-0.185
-0.195
-0.18
-0.15
-0.145
-0.145
-0.17
-0.18
-0.195
-0.19
-0.19
-0.185
-0.19
-0.185
-0.18
-0.165
-0.155
-0.15
-0.16
-0.155
-0.155
-0.16
-0.16
-0.165
-0.15
-0.135
-0.105
-0.085
-0.065
-0.055
-0.05
-0.055
-0.045
-0.045
-0.025
-0.025
0.0
-0.005
-0.005
-0.015
-0.025
-0.03
-0.03
-0.035
-0.045
-0.055
-0.1
-0.135
-0.16
-0.17
-0.175
-0.175
-0.18
-0.18
-0.21
-0.215
-0.225
-0.245
-0.26
-0.28
-0.3
-0.285
-0.285
-0.265
-0.245
-0.24
-0.24
-0.23
-0.225
-0.225
-0.245
-0.27
-0.295
-0.33
-0.34
-0.31
-0.22
-0.12
0.025
0.22
0.44
0.685
0.955
1.195
1.375
1.465
1.44
1.29
1.04
0.74
0.42
0.125
-0.095
-0.25
-0.34
-0.35
-0.33
-0.31
-0.255
-0.245
-0.255
-0.27
-0.3
-0.31
-0.315
-0.335
-0.325
-0.34
-0.345
-0.345
-0.35
-0.335
-0.32
-0.32
-0.33
-0.325
-0.355
-0.36
-0.365
-0.355
-0.35
-0.335
-0.325
-0.315
-0.315
-0.32
-0.32
-0.315
-0.305
-0.3
-0.305
-0.32
-0.32
-0.335
-0.33
-0.31
-0.3
-0.29
-0.29
-0.28
-0.295
-0.3
-0.31
-0.31
-0.315
-0.29
-0.275
-0.265
-0.255
-0.245
-0.245
-0.235
-0.225
-0.23
-0.23
-0.255
-0.25
-0.25
-0.26
-0.235
-0.24
-0.21
-0.205
-0.19
-0.18
-0.185
-0.2
-0.225
-0.245
-0.25
-0.23
-0.215
-0.19
-0.19
-0.185
-0.19
-0.19
-0.195
-0.195
-0.205
-0.2
-0.18
-0.175
-0.15
-0.135
-0.135
-0.13
-0.125
-0.125
-0.125
-0.115
-0.14
-0.135
-0.16
-0.17
-0.165
-0.16
-0.16
-0.15
-0.165
-0.165
-0.17
-0.175
-0.185
-0.19
-0.2
-0.195
-0.175
-0.165
-0.155
-0.15
-0.165
-0.165
-0.17
-0.17
-0.175
-0.19
-0.21
-0.205
-0.2
-0.185
-0.16
-0.155
-0.16
-0.175
-0.19
-0.195
-0.18
-0.18
-0.185
-0.18
-0.165
-0.155
-0.135
-0.135
-0.15
-0.165
-0.175
-0.17
-0.17
-0.18
-0.18
-0.17
-0.16
-0.145
-0.135
-0.125
-0.14
-0.155
-0.17
-0.185
-0.2
-0.2
-0.18
-0.17
-0.155
-0.14
-0.125
-0.14
-0.15
-0.155
-0.16
-0.165
-0.15
-0.145
-0.125
-0.115
-0.105
-0.09
-0.08
-0.06
-0.06
-0.065
-0.065
-0.05
-0.03
0.0
0.01
0.0
-0.015
-0.025
-0.025
-0.005
0.005
0.0
-0.015
-0.025
-0.045
-0.06
-0.075
-0.1
-0.14
-0.15
-0.16
-0.16
-0.16
-0.165
-0.185
-0.22
-0.25
-0.25
-0.26
-0.245
-0.24
-0.24
-0.23
-0.225
-0.235
-0.235
-0.255
-0.275
-0.285
-0.29
-0.275
-0.26
-0.25
-0.26
-0.26
-0.29
-0.255
-0.2
-0.12
-0.015
0.125
0.305
0.54
0.81
1.085
1.33
1.495
1.545
1.455
1.285
1.01
0.715
0.4
0.14
-0.07
-0.195
-0.255
-0.275
-0.245
-0.22
-0.2
-0.2
-0.245
-0.275
-0.3
-0.325
-0.34
-0.325
-0.325
-0.31
-0.305
-0.31
-0.33
-0.33
-0.335
-0.33
-0.325
-0.325
-0.33
-0.345
-0.345
-0.35
-0.34
-0.325
-0.32
-0.31
-0.32
-0.325
-0.315
-0.31
-0.305
-0.31
-0.31
-0.315
-0.31
-0.3
-0.3
-0.305
-0.305
-0.305
-0.3
-0.28
-0.285
-0.28
-0.285
-0.28
-0.265
-0.245
-0.24
-0.25
-0.255
-0.265
-0.275
-0.28
-0.28
-0.28
-0.28
-0.26
-0.245
-0.23
-0.21
-0.21
-0.22
-0.225
-0.24
-0.25
-0.25
-0.235
-0.225
-0.2
-0.195
-0.19
-0.185
-0.195
-0.195
-0.2
-0.2
-0.195
-0.19
-0.205
-0.21
-0.205
-0.19
-0.175
-0.17
-0.16
-0.18
-0.17
-0.165
-0.16
-0.155
-0.165
-0.16
-0.135
-0.13
-0.13
-0.135
-0.14
-0.145
-0.155
-0.15
-0.16
-0.165
-0.165
-0.17
-0.165
-0.175
-0.16
-0.16
-0.15
-0.165
-0.18
-0.19
-0.195
-0.195
-0.195
-0.19
-0.18
-0.17
-0.145
-0.145
-0.15
-0.175
-0.175
-0.185
-0.19
-0.18
-0.185
-0.17
-0.165
-0.15
-0.15
-0.155
-0.16
-0.165
-0.165
-0.16
-0.155
-0.165
-0.18
-0.165
-0.155
-0.14
-0.15
-0.16
-0.165
-0.165
-0.175
-0.17
-0.15
-0.13
-0.145
-0.15
-0.155
-0.155
-0.165
-0.185
-0.18
-0.18
-0.175
-0.16
-0.15
-0.16
-0.14
-0.14
-0.135
-0.125
-0.11
-0.09
-0.08
-0.07
-0.065
-0.075
-0.055
-0.045
-0.03
-0.01
0.02
0.025
0.005
-0.005
-0.025
-0.03
-0.035
-0.04
-0.045
-0.05
-0.07
-0.08
-0.095
-0.105
-0.13
-0.135
-0.165
-0.18
-0.205
-0.22
-0.235
-0.24
-0.235
-0.23
-0.22
-0.205
-0.21
-0.225
-0.24
-0.245
-0.245
-0.245
-0.25
-0.26
-0.265
-0.27
-0.255
-0.26
-0.245
-0.2
-0.145
-0.035
0.12
0.325
0.58
0.855
1.14
1.375
1.525
1.555
1.43
1.165
0.82
0.455
0.14
-0.11
-0.27
-0.345
-0.355
-0.325
-0.265
-0.225
-0.22
-0.235
-0.26
-0.285
-0.3
-0.32
-0.32
-0.33
-0.325
-0.335
-0.325
-0.31
-0.31
-0.32
-0.31
-0.32
-0.32
-0.31
-0.325
-0.315
-0.305
-0.3
-0.285
-0.285
-0.3
-0.305
-0.32
-0.32
-0.315
-0.31
-0.305
-0.305
-0.3
-0.28
-0.27
-0.255
-0.265
-0.285
-0.295
-0.295
-0.29
-0.285
-0.265
-0.265
-0.265
-0.25
-0.24
-0.23
-0.235
-0.225
-0.24
-0.235
-0.24
-0.235
-0.22
-0.215
-0.215
-0.225
-0.225
-0.22
-0.225
-0.225
-0.225
-0.21
-0.205
-0.18
-0.19
-0.21
-0.205
-0.19
-0.185
-0.16
-0.155
-0.155
-0.175
-0.185
-0.19
-0.195
-0.205
-0.175
-0.175
-0.16
-0.155
-0.13
-0.12
-0.125
-0.115
-0.13
-0.125
-0.12
-0.115
-0.1
-0.095
-0.09
-0.08
-0.07
-0.06
-0.055
-0.07
-0.105
-0.14
-0.165
-0.165
-0.165
-0.15
-0.135
-0.135
-0.13
-0.12
-0.11
-0.11
-0.13
-0.135
-0.15
-0.135
-0.14
-0.125
-0.115
-0.12
-0.105
-0.11
-0.1
-0.11
-0.13
-0.135
-0.13
-0.135
-0.125
-0.115
-0.105
-0.09
-0.07
-0.07
-0.055
-0.065
-0.085
-0.105
-0.115
-0.125
-0.105
-0.1
-0.095
-0.095
-0.09
-0.09
-0.07
-0.07
-0.08
-0.085
-0.1
-0.11
-0.115
-0.115
-0.115
-0.11
-0.1
-0.07
-0.075
-0.075
-0.08
-0.105
-0.1
-0.1
-0.095
-0.07
-0.06
-0.05
-0.035
-0.01
-0.005
0.015
0.01
0.0
-0.01
-0.005
-0.005
0.03
0.065
0.085
0.095
0.095
0.075
0.075
0.05
0.045
0.04
0.035
0.02
-0.005
-0.03
-0.06
-0.085
-0.09
-0.095
-0.085
-0.105
-0.1
-0.13
-0.15
-0.155
-0.17
-0.17
-0.165
-0.165
-0.155
-0.155
-0.16
-0.185
-0.19
-0.2
-0.205
-0.19
-0.19
-0.205
-0.225
-0.225
-0.195
-0.14
-0.05
0.075
0.23
0.44
0.705
0.985
1.26
1.505
1.635
1.66
1.54
1.295
0.965
0.595
0.285
0.03
-0.13
-0.22
-0.24
-0.24
-0.205
-0.175
-0.155
-0.155
-0.18
-0.21
-0.24
-0.26
-0.255
-0.26
-0.25
-0.255
-0.245
-0.235
-0.23
-0.235
-0.245
-0.275
-0.265
-0.25
-0.255
-0.255
-0.265
-0.26
-0.245
-0.225
-0.225
-0.225
-0.22
-0.23
-0.245
-0.25
-0.26
-0.255
-0.235
-0.215
-0.21
-0.19
-0.19
-0.18
-0.185
-0.19
-0.195
-0.195
-0.2
-0.23
-0.205
-0.19
-0.175
-0.165
-0.155
-0.155
-0.155
-0.15
-0.145
-0.15
-0.16
-0.17
-0.165
-0.145
-0.125
-0.12
-0.115
-0.105
-0.11
-0.11
-0.105
-0.105
-0.12
-0.11
-0.1
-0.105
-0.115
-0.12
-0.11
-0.11
-0.095
-0.09
-0.075
-0.075
-0.085
-0.09
-0.1
-0.075
-0.05
-0.045
-0.06
-0.045
-0.06
-0.055
-0.07
-0.07
-0.07
-0.07
-0.085
-0.08
-0.085
-0.075
-0.085
-0.07
-0.065
-0.065
-0.065
-0.09
-0.1
-0.11
-0.095
-0.085
-0.08
-0.075
-0.095
-0.12
-0.115
-0.115
-0.095
-0.09
-0.1
-0.095
-0.11
-0.09
-0.09
-0.09
-0.095
-0.085
-0.09
-0.09
-0.085
-0.06
-0.075
-0.075
-0.07
-0.065
-0.055
-0.045
-0.05
-0.075
-0.08
-0.09
-0.09
-0.07
-0.06
-0.05
-0.045
-0.05
-0.04
-0.035
-0.055
-0.055
-0.065
-0.07
-0.085
-0.075
-0.07
-0.07
-0.05
-0.04
-0.02
-0.03
-0.06
-0.08
-0.09
-0.09
-0.06
-0.055
-0.045
-0.03
-0.015
0.0
0.02
0.02
0.035
0.035
0.025
0.06
0.07
0.07
0.065
0.06
0.05
0.05
0.065
0.085
0.09
0.08
0.065
0.04
0.01
-0.03
-0.065
-0.09
-0.11
-0.105
-0.12
-0.115
-0.135
-0.15
-0.165
-0.185
-0.175
-0.175
-0.18
-0.195
-0.19
-0.18
-0.185
-0.17
-0.16
-0.17
-0.185
-0.19
-0.205
-0.22
-0.215
-0.18
-0.11
0.01
0.165
0.375
0.615
0.865
1.135
1.39
1.58
1.65
1.555
1.345
1.03
0.675
0.34
0.06
-0.11
-0.21
-0.23
-0.215
-0.175
-0.165
-0.17
-0.195
-0.225
-0.25
-0.26
-0.27
-0.27
-0.275
-0.275
-0.28
-0.285
-0.31
-0.305
-0.295
-0.29
-0.285
-0.275
-0.28
-0.275
-0.275
-0.29
-0.3
-0.295
-0.3
-0.315
-0.31
-0.29
-0.275
-0.275
-0.27
-0.27
-0.265
-0.26
-0.26
-0.26
-0.265
-0.26
-0.265
-0.255
-0.245
-0.24
-0.23
-0.235
-0.245
-0.255
-0.27
-0.27
-0.275
-0.26
-0.24
-0.24
-0.225
-0.21
-0.205
-0.21
-0.205
-0.21
-0.21
-0.215
-0.21
-0.21
-0.2
-0.19
-0.185
-0.175
-0.165
-0.16
-0.15
-0.145
-0.17
-0.17
-0.175
-0.17
-0.175
-0.17
-0.16
-0.165
-0.16
-0.16
-0.16
-0.165
-0.175
-0.18
-0.185
-0.175
-0.16
-0.16
-0.15
-0.15
-0.15
-0.15
-0.15
-0.15
-0.165
-0.175
-0.19
-0.175
-0.18
-0.175
-0.185
-0.205
-0.185
-0.185
-0.17
-0.16
-0.18
-0.19
-0.19
-0.2
-0.2
-0.19
-0.18
-0.18
-0.19
-0.18
-0.16
-0.15
-0.155
-0.175
-0.2
-0.21
-0.21
-0.2
-0.18
-0.17
-0.16
-0.165
-0.155
-0.15
-0.155
-0.18
-0.195
-0.195
-0.18
-0.17
-0.16
-0.15
-0.15
-0.155
-0.15
-0.15
-0.155
-0.16
-0.175
-0.17
-0.17
-0.165
-0.16
-0.155
-0.16
-0.15
-0.155
-0.145
-0.145
-0.165
-0.17
-0.205
-0.2
-0.18
-0.15
-0.135
-0.105
-0.125
-0.125
-0.13
-0.135
-0.135
-0.13
-0.125
-0.12
-0.105
-0.085
-0.07
-0.04
-0.025
-0.015
-0.005
-0.01
-0.01
-0.025
-0.04
-0.06
-0.055
-0.045
-0.035
-0.04
-0.065
-0.105
-0.135
-0.165
-0.175
-0.175
-0.195
-0.215
-0.225
-0.23
-0.24
-0.24
-0.255
-0.265
-0.27
-0.29
-0.29
-0.31
-0.3
-0.305
-0.305
-0.31
-0.295
-0.285
-0.295
-0.305
-0.325
-0.34
-0.355
-0.34
-0.315
-0.25
-0.145
-0.01
0.16
0.385
0.62
0.875
1.1
1.305
1.43
1.44
1.335
1.115
0.83
0.52
0.225
-0.005
-0.175
-0.28
-0.335
-0.33
-0.31
-0.305
-0.295
-0.305
-0.335
-0.355
-0.365
-0.36
-0.365
-0.37
-0.39
-0.415
-0.42
-0.425
-0.415
-0.435
-0.43
-0.43
-0.405
-0.39
-0.38
-0.385
-0.395
-0.4
-0.42
-0.42
-0.415
-0.415
-0.415
-0.405
-0.4
-0.39
-0.38
-0.38
-0.38
-0.38
-0.385
-0.385
-0.39
-0.395
-0.385
-0.37
-0.355
-0.34
-0.33
-0.34
-0.35
-0.355
-0.34
-0.34
-0.335
-0.345
-0.34
-0.33
-0.315
-0.31
-0.31
-0.3
-0.305
-0.295
-0.295
-0.285
-0.3
-0.3
-0.275
-0.255
-0.265
-0.255
-0.27
-0.255
-0.26
-0.26
-0.27
-0.265
-0.27
-0.27
-0.25
-0.245
-0.25
-0.245
-0.24
-0.22
-0.21
-0.21
-0.22
-0.235
-0.245
-0.225
-0.21
-0.2
-0.2
-0.2
-0.2
-0.21
-0.215
-0.225
-0.23
-0.245
-0.24
-0.24
-0.215
-0.22
-0.23
-0.225
-0.225
-0.22
-0.23
-0.245
-0.255
-0.255
-0.24
-0.255
-0.23
-0.235
-0.25
-0.245
-0.24
-0.245
-0.245
-0.245
-0.245
-0.235
-0.24
-0.24
-0.24
-0.24
-0.245
-0.235
-0.225
-0.22
-0.215
-0.225
-0.23
-0.23
-0.225
-0.245
-0.23
-0.24
-0.235
-0.23
-0.22
-0.205
-0.205
-0.22
-0.215
-0.215
-0.21
-0.21
-0.21
-0.22
-0.225
-0.22
-0.225
-0.22
-0.235
-0.23
-0.235
-0.225
-0.205
-0.18
-0.18
-0.16
-0.155
-0.145
-0.13
-0.12
-0.125
-0.125
-0.125
-0.105
-0.08
-0.06
-0.045
-0.045
-0.04
-0.05
-0.05
-0.065
-0.075
-0.1
-0.1
-0.11
-0.125
-0.17
-0.18
-0.185
-0.215
-0.225
-0.215
-0.225
-0.255
-0.285
-0.3
-0.315
-0.315
-0.31
-0.315
-0.305
-0.305
-0.285
-0.285
-0.29
-0.29
-0.295
-0.315
-0.32
-0.32
-0.32
-0.335
-0.35
-0.36
-0.37
-0.335
-0.285
-0.205
-0.11
-0.005
0.135
0.345
0.575
0.85
1.095
1.305
1.435
1.435
1.33
1.13
0.86
0.57
0.28
0.04
-0.15
-0.265
-0.3
-0.31
-0.305
-0.275
-0.28
-0.29
-0.31
-0.345
-0.375
-0.39
-0.4
-0.4
-0.385
-0.385
-0.375
-0.38
-0.385
-0.39
-0.385
-0.38
-0.375
-0.395
-0.405
-0.425
-0.41
-0.39
-0.365
-0.365
-0.37
-0.375
-0.385
-0.39
-0.38
-0.39
-0.39
-0.385
-0.365
-0.36
-0.35
-0.35
-0.36
-0.37
-0.365
-0.35
-0.355
-0.365
-0.375
-0.36
-0.345
-0.33
-0.32
-0.31
-0.315
-0.325
-0.34
-0.33
-0.315
-0.315
-0.315
-0.32
-0.3
-0.28
-0.265
-0.275
-0.29
-0.315
-0.325
-0.325
-0.3
-0.29
-0.29
-0.285
-0.28
-0.27
-0.26
-0.25
-0.25
-0.255
-0.27
-0.295
-0.295
-0.27
-0.28
-0.28
-0.275
-0.26
-0.23
-0.225
-0.225
-0.23
-0.23
-0.225
-0.22
-0.215
-0.22
-0.22
-0.215
-0.195
-0.195
-0.185
-0.19
-0.195
-0.215
-0.215
-0.22
-0.215
-0.23
-0.245
-0.245
-0.235
-0.215
-0.21
-0.21
-0.23
-0.245
-0.25
-0.255
-0.25
-0.245
-0.245
-0.245
-0.24
-0.235
-0.22
-0.215
-0.225
-0.24
-0.245
-0.245
-0.24
-0.235
-0.24
-0.235
-0.23
-0.215
-0.21
-0.215
-0.225
-0.24
-0.25
-0.25
-0.235
-0.23
-0.23
-0.23
-0.2
-0.205
-0.2
-0.205
-0.205
-0.22
-0.24
-0.23
-0.23
-0.225
-0.23
-0.24
-0.23
-0.21
-0.215
-0.215
-0.23
-0.25
-0.265
-0.265
-0.24
-0.24
-0.23
-0.22
-0.21
-0.19
-0.17
-0.165
-0.175
-0.185
-0.175
-0.165
-0.16
-0.15
-0.13
-0.105
-0.1
-0.045
-0.055
-0.045
-0.065
-0.085
-0.105
-0.1
-0.1
-0.1
-0.115
-0.135
-0.16
-0.2
-0.215
-0.215
-0.23
-0.24
-0.265
-0.275
-0.295
-0.295
-0.3
-0.315
-0.33
-0.33
-0.33
-0.325
-0.32
-0.34
-0.36
-0.365
-0.365
-0.355
-0.33
-0.325
-0.34
-0.335
-0.345
-0.36
-0.375
-0.38
-0.35
-0.29
-0.2
-0.055
0.12
0.34
0.585
0.845
1.1
1.305
1.425
1.4
1.26
1.005
0.705
0.375
0.11
-0.115
-0.27
-0.365
-0.39
-0.38
-0.355
-0.32
-0.31
-0.325
-0.36
-0.4
-0.4
-0.405
-0.41
-0.41
-0.425
-0.415
-0.41
-0.41
-0.415
-0.42
-0.425
-0.425
-0.43
-0.425
-0.41
-0.405
-0.415
-0.43
-0.435
-0.43
-0.415
-0.405
-0.42
-0.41
-0.42
-0.405
-0.405
-0.395
-0.38
-0.385
-0.39
-0.395
-0.4
-0.395
-0.4
-0.415
-0.4
-0.395
-0.37
-0.355
-0.355
-0.35
-0.355
-0.365
-0.365
-0.365
-0.36
-0.345
-0.335
-0.335
-0.335
-0.325
-0.32
-0.31
-0.31
-0.33
-0.34
-0.34
-0.335
-0.31
-0.3
-0.305
-0.3
-0.285
-0.28
-0.275
-0.275
-0.28
-0.29
-0.305
-0.315
-0.31
-0.29
-0.295
-0.28
-0.28
-0.275
-0.28
-0.27
-0.275
-0.28
-0.275
-0.27
-0.26
-0.255
-0.24
-0.235
-0.215
-0.205
-0.205
-0.195
-0.205
-0.21
-0.24
-0.245
-0.23
-0.235
-0.225
-0.235
-0.23
-0.225
-0.235
-0.225
-0.235
-0.235
-0.255
-0.275
-0.27
-0.245
-0.24
-0.235
-0.225
-0.23
-0.23
-0.24
-0.24
-0.25
-0.255
-0.26
-0.255
-0.24
-0.24
-0.235
-0.225
-0.235
-0.235
-0.24
-0.235
-0.245
-0.245
-0.245
-0.245
-0.235
-0.215
-0.21
-0.225
-0.24
-0.235
-0.24
-0.235
-0.245
-0.25
-0.255
-0.26
-0.25
-0.225
-0.22
-0.22
-0.215
-0.225
-0.225
-0.235
-0.23
-0.235
-0.24
-0.25
-0.245
-0.23
-0.235
-0.235
-0.22
-0.225
-0.21
-0.2
-0.205
-0.205
-0.21
-0.185
-0.18
-0.16
-0.145
-0.135
-0.125
-0.1
-0.07
-0.065
-0.075
-0.085
-0.09
-0.08
-0.075
-0.075
-0.09
-0.08
-0.085
-0.095
-0.1
-0.14
-0.185
-0.215
-0.235
-0.225
-0.235
-0.24
-0.265
-0.275
-0.285
-0.29
-0.295
-0.295
-0.3
-0.305
-0.305
-0.315
-0.295
-0.3
-0.32
-0.315
-0.31
-0.29
-0.295
-0.305
-0.33
-0.34
-0.325
-0.275
-0.2
-0.08
0.09
0.31
0.58
0.87
1.15
1.345
1.41
1.35
1.155
0.855
0.49
0.165
-0.09
-0.25
-0.355
-0.365
-0.37
-0.34
-0.32
-0.295
-0.305
-0.325
-0.36
-0.385
-0.38
-0.375
-0.37
-0.385
-0.39
-0.385
-0.39
-0.38
-0.385
-0.385
-0.38
-0.395
-0.375
-0.36
-0.355
-0.36
-0.375
-0.39
-0.375
-0.38
-0.38
-0.39
-0.375
-0.365
-0.355
-0.34
-0.34
-0.35
-0.34
-0.34
-0.345
-0.33
-0.345
-0.36
-0.37
-0.35
-0.33
-0.32
-0.32
-0.32
-0.325
-0.345
-0.355
-0.345
-0.335
-0.315
-0.31
-0.3
-0.3
-0.29
-0.29
-0.275
-0.285
-0.28
-0.28
-0.28
-0.27
-0.275
-0.265
-0.265
-0.255
-0.25
-0.245
-0.24
-0.245
-0.26
-0.26
-0.25
-0.235
-0.245
-0.25
-0.255
-0.245
-0.22
-0.21
-0.215
-0.205
-0.21
-0.21
-0.2
-0.19
-0.17
-0.175
-0.17
-0.17
-0.17
-0.175
-0.18
-0.185
-0.185
-0.195
-0.205
-0.205
-0.205
-0.22
-0.205
-0.2
-0.2
-0.19
-0.185
-0.195
-0.21
-0.235
-0.235
-0.225
-0.22
-0.21
-0.205
-0.215
-0.21
-0.205
-0.195
-0.185
-0.2
-0.21
-0.2
-0.215
-0.195
-0.195
-0.19
-0.195
-0.195
-0.19
-0.18
-0.185
-0.19
-0.2
-0.21
-0.215
-0.21
-0.2
-0.195
-0.195
-0.195
-0.19
-0.175
-0.165
-0.17
-0.18
-0.195
-0.205
-0.2
-0.19
-0.185
-0.18
-0.175
-0.17
-0.175
-0.175
-0.185
-0.195
-0.205
-0.2
-0.2
-0.18
-0.17
-0.165
-0.16
-0.155
-0.14
-0.135
-0.115
-0.12
-0.13
-0.13
-0.115
-0.115
-0.095
-0.065
-0.035
-0.02
-0.01
0.01
0.0
-0.02
-0.03
-0.045
-0.05
-0.04
-0.05
-0.055
-0.08
-0.105
-0.12
-0.12
-0.145
-0.165
-0.19
-0.21
-0.22
-0.225
-0.22
-0.235
-0.245
-0.245
-0.245
-0.245
-0.245
-0.235
-0.25
-0.255
-0.26
-0.245
-0.245
-0.24
-0.24
-0.26
-0.27
-0.275
-0.29
-0.285
-0.245
-0.19
-0.07
0.09
0.315
0.555
0.845
1.12
1.355
1.47
1.47
1.33
1.065
0.73
0.39
0.115
-0.09
-0.225
-0.3
-0.3
-0.28
-0.235
-0.225
-0.215
-0.245
-0.27
-0.29
-0.295
-0.295
-0.31
-0.31
-0.295
-0.29
-0.285
-0.285
-0.3
-0.315
-0.32
-0.32
-0.325
-0.315
-0.305
-0.3
-0.28
-0.275
-0.265
-0.27
-0.285
-0.29
-0.285
-0.285
-0.28
-0.275
-0.275
-0.26
-0.25
-0.245
-0.24
-0.26
-0.27
-0.27
-0.26
-0.265
-0.255
-0.26
-0.245
-0.23
-0.205
-0.2
-0.2
-0.215
-0.22
-0.22
-0.205
-0.215
-0.205
-0.195
-0.195
-0.185
-0.175
-0.175
-0.165
-0.165
-0.16
-0.18
-0.185
-0.185
-0.185
-0.18
-0.17
-0.145
-0.14
-0.155
-0.17
-0.18
-0.17
-0.155
-0.15
-0.165
-0.15
-0.145
-0.12
-0.09
-0.08
-0.07
-0.085
-0.08
-0.085
-0.075
-0.06
-0.06
-0.065
-0.065
-0.06
-0.07
-0.08
-0.075
-0.085
-0.09
-0.095
-0.075
-0.07
-0.07
-0.075
-0.07
-0.065
-0.055
-0.06
-0.06
-0.07
-0.085
-0.08
-0.07
-0.06
-0.075
-0.08
-0.07
-0.075
-0.055
-0.045
-0.035
-0.045
-0.055
-0.07
-0.065
-0.07
-0.06
-0.04
-0.04
-0.015
0.0
0.0
-0.005
-0.01
-0.025
-0.025
-0.025
-0.025
-0.035
-0.045
-0.03
-0.02
-0.02
-0.005
0.005
-0.015
-0.015
-0.005
0.0
-0.01
-0.01
-0.015
-0.015
-0.005
0.015
0.02
0.01
0.02
0.005
0.01
0.005
0.015
0.015
0.025
0.04
0.065
0.09
0.09
0.105
0.115
0.13
0.16
0.175
0.175
0.18
0.165
0.175
0.175
0.17
0.17
0.165
0.165
0.16
0.14
0.105
0.06
0.04
0.03
0.02
0.03
0.02
0.005
-0.015
-0.025
-0.02
-0.02
-0.035
-0.04
-0.05
-0.045
-0.03
-0.015
-0.015
-0.03
-0.035
-0.03
-0.03
-0.045
-0.055
-0.085
-0.1
-0.09
-0.045
0.055
0.165
0.32
0.47
0.68
0.91
1.16
1.405
1.62
1.74
1.75
1.66
1.45
1.175
0.83
0.5
0.235
0.045
-0.035
-0.06
-0.06
-0.025
0.0
0.025
0.045
0.045
0.025
-0.01
-0.04
-0.065
-0.065
-0.075
-0.075
-0.08
-0.09
-0.085
-0.08
-0.065
-0.045
-0.045
-0.04
-0.04
-0.05
-0.045
-0.05
-0.045
-0.055
-0.06
-0.045
-0.03
-0.02
-0.025
-0.015
-0.035
-0.05
-0.05
-0.045
-0.02
-0.025
-0.005
0.015
0.04
0.05
0.03
0.01
0.005
-0.005
-0.005
0.005
0.005
0.015
0.025
0.04
0.055
0.065
0.06
0.035
0.02
0.01
0.02
0.035
0.055
0.08
0.09
0.115
0.12
0.125
0.12
0.1
0.09
0.075
0.065
0.075
0.075
0.08
0.085
0.1
0.105
0.085
0.095
0.08
0.08
0.07
0.085
0.085
0.11
0.135
0.15
0.17
0.185
0.185
0.18
0.175
0.155
0.125
0.12
0.125
0.145
0.145
0.16
0.175
0.18
0.2
0.215
0.21
0.195
0.175
0.15
0.14
0.135
0.14
0.14
0.15
0.175
0.18
0.195
0.19
0.15
0.145
0.125
0.115
0.13
0.135
0.15
0.145
0.16
0.175
0.195
0.205
0.2
0.19
0.18
0.175
0.17
0.165
0.18
0.165
0.16
0.16
0.17
0.19
0.2
0.195
0.19
0.18
0.185
0.2
0.205
0.205
0.195
0.185
0.185
0.18
0.19
0.19
0.195
0.175
0.18
0.18
0.185
0.195
0.195
0.19
0.19
0.195
0.2
0.185
0.185
0.165
0.16
0.17
0.19
0.22
0.26
0.25
0.235
0.245
0.245
0.265
0.27
0.27
0.295
0.295
0.315
0.32
0.325
0.32
0.295
0.29
0.29
0.28
0.285
0.28
0.275
0.25
0.25
0.22
0.21
0.205
0.18
0.15
0.125
0.11
0.095
0.09
0.085
0.065
0.06
0.06
0.065
0.065
0.07
0.075
0.06
0.04
0.01
0.01
0.015
0.025
0.01
0.02
0.015
0.005
0.01
0.025
0.07
0.135
0.215
0.33
0.505
0.72
0.955
1.215
1.435
1.63
1.735
1.69
1.52
1.26
0.935
0.595
0.315
0.115
-0.005
-0.065
-0.07
-0.035
-0.02
0.005
0.015
-0.005
-0.04
-0.075
-0.115
-0.12
-0.115
-0.1
-0.1
-0.09
-0.085
-0.1
-0.095
-0.095
-0.105
-0.13
-0.13
-0.16
-0.155
-0.145
-0.14
-0.14
-0.14
-0.15
-0.145
-0.14
-0.14
-0.145
-0.15
-0.145
-0.145
-0.13
-0.125
-0.11
-0.13
-0.145
-0.16
-0.16
-0.15
-0.15
-0.145
-0.145
-0.135
-0.125
-0.115
-0.115
-0.125
-0.135
-0.145
-0.15
-0.145
-0.15
-0.15
-0.145
-0.155
-0.15
-0.125
-0.12
-0.115
-0.11
-0.13
-0.135
-0.14
-0.13
-0.115
-0.13
-0.13
-0.125
-0.105
-0.1
-0.09
-0.095
-0.11
-0.12
-0.125
-0.125
-0.11
-0.115
-0.115
-0.11
-0.12
-0.11
-0.105
-0.11
-0.11
-0.125
-0.12
-0.12
-0.105
-0.09
-0.08
-0.085
-0.07
-0.085
-0.075
-0.075
-0.09
-0.1
-0.11
-0.125
-0.12
-0.11
-0.11
-0.12
-0.12
-0.12
-0.12
-0.115
-0.115
-0.13
-0.14
-0.165
-0.155
-0.155
-0.155
-0.135
-0.14
-0.14
-0.15
-0.145
-0.14
-0.15
-0.16
-0.16
-0.165
-0.155
-0.15
-0.13
-0.12
-0.135
-0.12
-0.13
-0.135
-0.15
-0.165
-0.18
-0.175
-0.16
-0.13
-0.13
-0.115
-0.13
-0.14
-0.145
-0.14
-0.145
-0.145
-0.16
-0.16
-0.165
-0.15
-0.135
-0.14
-0.15
-0.155
-0.15
-0.16
-0.165
-0.18
-0.185
-0.18
-0.175
-0.165
-0.16
-0.16
-0.16
-0.135
-0.125
-0.125
-0.13
-0.145
-0.135
-0.13
-0.11
-0.1
-0.105
-0.075
-0.065
-0.045
-0.025
-0.015
-0.015
-0.035
-0.045
-0.05
-0.05
-0.04
-0.055
-0.05
-0.06
-0.08
-0.09
-0.11
-0.15
-0.165
-0.185
-0.195
-0.19
-0.21
-0.225
-0.235
-0.245
-0.25
-0.255
-0.265
-0.27
-0.27
-0.29
-0.285
-0.29
-0.28
-0.3
-0.285
-0.305
-0.31
-0.31
-0.32
-0.34
-0.37
-0.375
-0.335
-0.275
-0.165
-0.03
0.145
0.35
0.6
0.85
1.105
1.295
1.39
1.365
1.205
0.94
0.61
0.28
0.015
-0.195
-0.305
-0.35
-0.355
-0.34
-0.335
-0.33
-0.33
-0.345
-0.375
-0.4
-0.425
-0.425
-0.41
-0.41
-0.42
-0.425
-0.44
-0.46
-0.455
-0.445
-0.44
-0.435
-0.435
-0.43
-0.435
-0.435
-0.45
-0.455
-0.445
-0.445
-0.45
-0.44
-0.445
-0.445
-0.43
-0.43
-0.42
-0.42
-0.425
-0.44
-0.44
-0.435
-0.43
-0.42
-0.415
-0.415
-0.42
-0.415
-0.4
-0.385
-0.395
-0.4
-0.425
-0.425
-0.405
-0.39
-0.37
-0.385
-0.38
-0.385
-0.38
-0.365
-0.365
-0.36
-0.365
-0.365
-0.355
-0.37
-0.36
-0.35
-0.36
-0.345
-0.34
-0.325
-0.34
-0.345
-0.36
-0.355
-0.335
-0.35
-0.345
-0.345
-0.355
-0.345
-0.315
-0.32
-0.31
-0.31
-0.31
-0.31
-0.305
-0.3
-0.315
-0.29
-0.285
-0.3
-0.29
-0.305
-0.305
-0.3
-0.305
-0.325
-0.31
-0.315
-0.31
-0.305
-0.3
-0.295
-0.32
-0.305
-0.315
-0.32
-0.33
-0.345
-0.335
-0.335
-0.325
-0.315
-0.32
-0.325
-0.33
-0.34
-0.35
-0.34
-0.345
-0.355
-0.355
-0.355
-0.345
-0.33
-0.32
-0.32
-0.315
-0.315
-0.325
-0.325
-0.33
-0.335
-0.34
-0.34
-0.33
-0.31
-0.305
-0.29
-0.31
-0.33
-0.325
-0.325
-0.325
-0.33
-0.335
-0.33
-0.325
-0.31
-0.305
-0.285
-0.32
-0.3
-0.305
-0.305
-0.325
-0.32
-0.315
-0.325
-0.315
-0.315
-0.31
-0.3
-0.3
-0.305
-0.285
-0.28
-0.275
-0.255
-0.245
-0.26
-0.255
-0.245
-0.235
-0.22
-0.21
-0.195
-0.19
-0.18
-0.17
-0.165
-0.175
-0.185
-0.185
-0.19
-0.175
-0.18
-0.195
-0.215
-0.23
-0.265
-0.285
-0.315
-0.335
-0.34
-0.345
-0.35
-0.35
-0.35
-0.36
-0.375
-0.39
-0.395
-0.395
-0.405
-0.41
-0.415
-0.4
-0.41
-0.385
-0.39
-0.4
-0.4
-0.42
-0.435
-0.445
-0.44
-0.435
-0.385
-0.295
-0.165
0.01
0.23
0.465
0.71
0.95
1.14
1.205
1.175
1.0
0.73
0.425
0.12
-0.12
-0.29
-0.41
-0.44
-0.43
-0.4
-0.38
-0.38
-0.4
-0.435
-0.455
-0.475
-0.48
-0.48
-0.5
-0.5
-0.51
-0.49
-0.495
-0.495
-0.5
-0.505
-0.5
-0.485
-0.485
-0.505
-0.505
-0.505
-0.505
-0.495
-0.495
-0.5
-0.505
-0.5
-0.5
-0.485
-0.47
-0.465
-0.465
-0.46
-0.465
-0.45
-0.465
-0.465
-0.47
-0.46
-0.45
-0.44
-0.43
-0.425
-0.43
-0.425
-0.435
-0.445
-0.44
-0.435
-0.44
-0.42
-0.39
-0.395
-0.39
-0.38
-0.375
-0.375
-0.385
-0.405
-0.41
-0.41
-0.4
-0.385
-0.375
-0.38
-0.375
-0.36
-0.355
-0.355
-0.36
-0.37
-0.375
-0.375
-0.37
-0.36
-0.365
-0.36
-0.33
-0.305
-0.315
-0.31
-0.34
-0.315
-0.33
-0.33
-0.325
-0.32
-0.315
-0.305
-0.29
-0.29
-0.285
-0.295
-0.3
-0.32
-0.34
-0.34
-0.33
-0.32
-0.315
-0.325
-0.31
-0.315
-0.315
-0.31
-0.325
-0.33
-0.325
-0.305
-0.31
-0.295
-0.31
-0.295
-0.285
-0.285
-0.305
-0.305
-0.315
-0.32
-0.31
-0.31
-0.315
-0.295
-0.305
-0.315
-0.29
-0.295
-0.29
-0.295
-0.305
-0.295
-0.3
-0.305
-0.315
-0.32
-0.325
-0.31
-0.295
-0.27
-0.265
-0.265
-0.27
-0.285
-0.305
-0.3
-0.3
-0.305
-0.315
-0.3
-0.285
-0.27
-0.265
-0.28
-0.29
-0.31
-0.31
-0.3
-0.29
-0.265
-0.25
-0.24
-0.21
-0.2
-0.195
-0.19
-0.185
-0.18
-0.175
-0.165
-0.145
-0.115
-0.115
-0.12
-0.105
-0.095
-0.1
-0.115
-0.12
-0.145
-0.145
-0.165
-0.17
-0.185
-0.205
-0.225
-0.235
-0.245
-0.265
-0.265
-0.29
-0.305
-0.32
-0.32
-0.32
-0.325
-0.33
-0.32
-0.32
-0.315
-0.3
-0.31
-0.32
-0.335
-0.355
-0.36
-0.35
-0.335
-0.34
-0.35
-0.36
-0.35
-0.33
-0.26
-0.155
-0.03
0.17
0.37
0.61
0.86
1.07
1.215
1.28
1.215
1.03
0.77
0.44
0.145
-0.12
-0.285
-0.375
-0.41
-0.385
