Lead II
-0.67
-0.665
-0.655
-0.665
-0.67
-0.665
-0.65
-0.635
-0.63
-0.665
-0.65
-0.65
-0.625
-0.62
-0.645
-0.645
-0.62
-0.605
-0.58
-0.575
-0.585
-0.585
-0.585
-0.545
-0.525
-0.505
-0.505
-0.495
-0.49
-0.47
-0.44
-0.42
-0.42
-0.425
-0.405
-0.39
-0.37
-0.345
-0.34
-0.335
-0.32
-0.315
-0.295
-0.28
-0.3
-0.31
-0.315
-0.315
-0.295
-0.28
-0.27
-0.295
-0.305
-0.295
-0.28
-0.285
-0.295
-0.33
-0.32
-0.32
-0.31
-0.32
-0.34
-0.33
-0.35
-0.345
-0.33
-0.34
-0.365
-0.385
-0.375
-0.37
-0.36
-0.37
-0.38
-0.39
-0.405
-0.38
-0.37
-0.36
-0.365
-0.38
-0.38
-0.375
-0.36
-0.34
-0.35
-0.37
-0.355
-0.355
-0.335
-0.335
-0.35
-0.365
-0.375
-0.37
-0.345
-0.35
-0.365
-0.37
-0.36
-0.35
-0.35
-0.335
-0.34
-0.335
-0.35
-0.345
-0.315
-0.305
-0.3
-0.32
-0.315
-0.295
-0.285
-0.275
-0.305
-0.325
-0.33
-0.31
-0.305
-0.3
-0.3
-0.305
-0.305
-0.31
-0.29
-0.285
-0.305
-0.315
-0.32
-0.31
-0.285
-0.285
-0.285
-0.305
-0.3
-0.305
-0.285
-0.28
-0.295
-0.31
-0.32
-0.31
-0.28
-0.29
-0.315
-0.315
-0.31
-0.315
-0.3
-0.31
-0.31
-0.315
-0.325
-0.325
-0.305
-0.305
-0.315
-0.325
-0.335
-0.335
-0.325
-0.32
-0.315
-0.34
-0.345
-0.33
-0.3
-0.3
-0.335
-0.36
-0.365
-0.35
-0.32
-0.33
-0.355
-0.365
-0.355
-0.335
-0.32
-0.32
-0.34
-0.355
-0.355
-0.34
-0.325
-0.32
-0.325
-0.325
-0.335
-0.32
-0.305
-0.295
-0.29
-0.31
-0.32
-0.305
-0.285
-0.28
-0.29
-0.305
-0.315
-0.28
-0.26
-0.27
-0.265
-0.28
-0.26
-0.255
-0.235
-0.245
-0.26
-0.26
-0.26
-0.27
-0.26
-0.225
-0.205
-0.215
-0.19
-0.175
-0.125
-0.07
-0.03
0.025
0.085
0.155
0.24
0.305
0.425
0.545
0.69
0.835
0.905
0.985
1.065
1.14
1.19
1.205
1.225
1.195
1.085
0.975
0.85
0.72
0.565
0.335
0.125
-0.045
-0.18
-0.3
-0.35
-0.36
-0.39
-0.435
-0.47
-0.485
-0.47
-0.48
-0.515
-0.535
-0.545
-0.55
-0.54
-0.56
-0.56
-0.57
-0.58
-0.585
-0.57
-0.565
-0.58
-0.595
-0.595
-0.595
-0.58
-0.57
-0.61
-0.615
-0.635
-0.62
-0.605
-0.62
-0.62
-0.625
-0.63
-0.63
-0.605
-0.58
-0.575
-0.6
-0.595
-0.56
-0.52
-0.515
-0.51
-0.515
-0.495
-0.48
-0.46
-0.455
-0.44
-0.445
-0.435
-0.41
-0.4
-0.365
-0.37
-0.36
-0.325
-0.305
-0.265
-0.255
-0.24
-0.23
-0.23
-0.22
-0.2
-0.175
-0.16
-0.185
-0.19
-0.185
-0.16
-0.16
-0.195
-0.215
-0.2
-0.185
-0.17
-0.19
-0.195
-0.205
-0.22
-0.23
-0.215
-0.195
-0.205
-0.235
-0.235
-0.24
-0.215
-0.225
-0.25
-0.25
-0.245
-0.225
-0.215
-0.21
-0.215
-0.22
-0.235
-0.22
-0.205
-0.19
-0.2
-0.225
-0.245
-0.23
-0.225
-0.22
-0.23
-0.245
-0.26
-0.24
-0.22
-0.23
-0.25
-0.265
-0.28
-0.28
-0.25
-0.28
-0.28
-0.285
-0.295
-0.28
-0.27
-0.275
-0.275
-0.29
-0.3
-0.295
-0.28
-0.265
-0.28
-0.3
-0.31
-0.3
-0.26
-0.275
-0.28
-0.3
-0.31
-0.29
-0.28
-0.28
-0.3
-0.32
-0.32
-0.295
-0.285
-0.275
-0.285
-0.285
-0.285
-0.29
-0.26
-0.245
-0.25
-0.27
-0.265
-0.255
-0.235
-0.235
-0.235
-0.255
-0.25
-0.23
-0.225
-0.235
-0.23
-0.235
-0.25
-0.25
-0.25
-0.24
-0.24
-0.27
-0.285
-0.265
-0.255
-0.255
-0.285
-0.285
-0.275
-0.27
-0.265
-0.275
-0.275
-0.275
-0.28
-0.285
-0.25
-0.245
-0.265
-0.28
-0.285
-0.26
-0.255
-0.26
-0.28
-0.295
-0.315
-0.29
-0.285
-0.265
-0.255
-0.26
-0.27
-0.245
-0.22
-0.22
-0.23
-0.255
-0.255
-0.24
-0.22
-0.21
-0.2
-0.205
-0.22
-0.215
-0.19
-0.18
-0.19
-0.2
-0.21
-0.16
-0.095
-0.065
-0.06
-0.06
-0.025
0.065
0.135
0.175
0.21
0.28
0.385
0.56
0.765
0.985
1.145
1.215
1.28
1.365
1.425
1.43
1.41
1.355
1.26
1.135
1.015
0.85
0.67
0.47
0.255
0.1
-0.045
-0.17
-0.285
-0.345
-0.38
-0.375
-0.38
-0.44
-0.46
-0.495
-0.495
-0.5
-0.515
-0.51
-0.525
-0.53
-0.545
-0.565
-0.545
-0.53
-0.54
-0.565
-0.57
-0.555
-0.545
-0.545
-0.545
-0.575
-0.575
-0.555
-0.555
-0.545
-0.535
-0.55
-0.54
-0.53
-0.51
-0.53
-0.515
-0.54
-0.54
-0.505
-0.485
-0.475
-0.495
-0.5
-0.495
-0.475
-0.465
-0.48
-0.475
-0.48
-0.485
-0.445
-0.415
-0.385
-0.385
-0.39
-0.375
-0.35
-0.315
-0.29
-0.295
-0.27
-0.275
-0.25
-0.215
-0.18
-0.17
-0.17
-0.17
-0.145
-0.115
-0.09
-0.095
-0.115
-0.115
-0.09
-0.095
-0.1
-0.12
-0.13
-0.125
-0.13
-0.135
-0.145
-0.16
-0.145
-0.17
-0.175
-0.165
-0.165
-0.19
-0.21
-0.215
-0.215
-0.2
-0.21
-0.225
-0.25
-0.24
-0.24
-0.235
-0.23
-0.23
-0.245
-0.26
-0.28
-0.275
-0.295
-0.32
-0.33
-0.35
-0.35
-0.31
-0.305
-0.325
-0.345
-0.335
-0.335
-0.325
-0.32
-0.325
-0.335
-0.32
-0.32
-0.315
-0.3
-0.295
-0.295
-0.29
-0.285
-0.26
-0.245
-0.27
-0.28
-0.29
-0.275
-0.26
-0.25
-0.24
-0.26
-0.25
-0.265
-0.245
-0.23
-0.25
-0.275
-0.27
-0.265
-0.245
-0.25
-0.28
-0.29
-0.275
-0.275
-0.275
-0.275
-0.28
-0.295
-0.3
-0.305
-0.28
-0.265
-0.28
-0.295
-0.28
-0.275
-0.27
-0.28
-0.305
-0.315
-0.32
-0.32
-0.3
-0.285
-0.3
-0.305
-0.32
-0.3
-0.285
-0.305
-0.31
-0.32
-0.31
-0.305
-0.285
-0.265
-0.27
-0.31
-0.315
-0.285
-0.26
-0.27
-0.29
-0.28
-0.27
-0.255
-0.24
-0.24
-0.24
-0.255
-0.255
-0.25
-0.245
-0.24
-0.25
-0.275
-0.285
-0.255
-0.255
-0.27
-0.265
-0.29
-0.295
-0.295
-0.28
-0.27
-0.275
-0.305
-0.32
-0.32
-0.3
-0.31
-0.335
-0.35
-0.345
-0.34
-0.335
-0.325
-0.32
-0.35
-0.345
-0.35
-0.325
-0.33
-0.34
-0.375
-0.37
-0.355
-0.345
-0.355
-0.35
-0.355
-0.35
-0.355
-0.33
-0.32
-0.305
-0.32
-0.32
-0.305
-0.275
-0.26
-0.285
-0.3
-0.29
-0.27
-0.26
-0.27
-0.275
-0.275
-0.275
-0.255
-0.235
-0.225
-0.215
-0.23
-0.235
-0.21
-0.2
-0.195
-0.205
-0.225
-0.22
-0.205
-0.2
-0.21
-0.25
-0.26
-0.25
-0.235
-0.23
-0.23
-0.215
-0.22
-0.225
-0.245
-0.205
-0.215
-0.225
-0.25
-0.265
-0.25
-0.25
-0.26
-0.28
-0.29
-0.295
-0.29
-0.265
-0.265
-0.265
-0.29
-0.295
-0.27
-0.245
-0.235
-0.245
-0.265
-0.265
-0.27
-0.24
-0.195
-0.135
-0.115
-0.08
-0.02
0.065
0.14
0.18
0.23
0.29
0.355
0.415
0.505
0.655
0.77
0.86
0.93
0.995
1.09
1.115
1.12
1.075
0.985
0.85
0.705
0.555
0.37
0.17
-0.01
-0.13
-0.255
-0.365
-0.425
-0.44
-0.45
-0.465
-0.5
-0.52
-0.55
-0.565
-0.565
-0.555
-0.57
-0.605
-0.61
-0.605
-0.585
-0.6
-0.625
-0.615
-0.625
-0.625
-0.61
-0.595
-0.58
-0.585
-0.59
-0.58
-0.565
-0.545
-0.535
-0.545
-0.54
-0.54
-0.525
-0.51
-0.49
-0.49
-0.5
-0.5
-0.475
-0.46
-0.465
-0.45
-0.45
-0.44
-0.42
-0.395
-0.39
-0.4
-0.42
-0.395
-0.36
-0.34
-0.335
-0.34
-0.33
-0.315
-0.28
-0.26
-0.24
-0.23
-0.235
-0.22
-0.205
-0.175
-0.175
-0.195
-0.2
-0.185
-0.19
-0.19
-0.2
-0.205
-0.205
-0.22
-0.2
-0.19
-0.195
-0.225
-0.235
-0.245
-0.24
-0.235
-0.24
-0.255
-0.25
-0.24
-0.25
-0.235
-0.235
-0.235
-0.25
-0.255
-0.235
-0.205
-0.21
-0.235
-0.25
-0.245
-0.225
-0.215
-0.245
-0.26
-0.25
-0.27
-0.26
-0.245
-0.235
-0.24
-0.285
-0.28
-0.255
-0.235
-0.245
-0.26
-0.275
-0.265
-0.26
-0.255
-0.24
-0.25
-0.25
-0.255
-0.235
-0.215
-0.195
-0.225
-0.235
-0.23
-0.205
-0.205
-0.22
-0.205
-0.215
-0.23
-0.235
-0.225
-0.21
-0.24
-0.265
-0.28
-0.27
-0.245
-0.255
-0.265
-0.27
-0.285
-0.26
-0.26
-0.26
-0.285
-0.295
-0.305
-0.305
-0.275
-0.27
-0.295
-0.315
-0.315
-0.32
-0.305
-0.32
-0.335
-0.33
-0.345
-0.335
-0.315
-0.305
-0.32
-0.335
-0.335
-0.32
-0.33
-0.31
-0.32
-0.325
-0.34
-0.335
-0.33
-0.33
-0.335
-0.355
-0.355
-0.345
-0.34
-0.325
-0.335
-0.34
-0.34
-0.34
-0.34
-0.31
-0.305
-0.325
-0.315
-0.285
-0.265
-0.27
-0.285
-0.29
-0.3
-0.29
-0.285
-0.275
-0.275
-0.29
-0.3
-0.285
-0.285
-0.285
-0.295
-0.315
-0.325
-0.33
-0.325
-0.315
-0.325
-0.35
-0.35
-0.35
-0.34
-0.335
-0.34
-0.355
-0.36
-0.35
-0.33
-0.335
-0.345
-0.355
-0.36
-0.375
-0.355
-0.365
-0.365
-0.4
-0.39
-0.385
-0.365
-0.37
-0.375
-0.395
-0.395
-0.39
-0.33
-0.28
-0.26
-0.24
-0.175
-0.085
-0.01
0.065
0.11
0.185
0.285
0.43
0.57
0.685
0.775
0.835
0.87
0.96
1.065
1.12
1.125
1.09
1.035
0.93
0.825
0.695
0.53
0.29
0.08
-0.09
-0.215
-0.355
-0.48
-0.53
-0.54
-0.555
-0.575
-0.6
-0.625
-0.645
-0.675
-0.675
-0.675
-0.68
-0.71
-0.75
-0.77
-0.76
-0.765
-0.78
-0.795
-0.815
-0.82
-0.805
-0.795
-0.795
-0.815
-0.83
-0.835
-0.815
-0.79
-0.785
-0.8
-0.81
-0.79
-0.765
-0.75
-0.73
-0.72
-0.735
-0.71
-0.675
-0.665
-0.645
-0.64
-0.645
-0.625
-0.605
-0.575
-0.565
-0.545
-0.55
-0.56
-0.55
-0.52
-0.505
-0.52
-0.505
-0.49
-0.46
-0.455
-0.425
-0.405
-0.405
-0.405
-0.39
-0.38
-0.37
-0.39
-0.41
-0.415
-0.42
-0.425
-0.445
-0.45
-0.47
-0.485
-0.48
-0.48
-0.49
-0.49
-0.525
-0.52
-0.52
-0.54
-0.535
-0.53
-0.54
-0.545
-0.545
-0.515
-0.515
-0.52
-0.52
-0.52
-0.505
-0.505
-0.505
-0.535
-0.55
-0.555
-0.525
-0.53
-0.53
-0.56
-0.57
-0.58
-0.585
-0.57
-0.57
-0.6
-0.615
-0.64
-0.635
-0.625
-0.64
-0.625
-0.635
-0.64
-0.63
-0.635
-0.625
-0.625
-0.64
-0.645
-0.625
-0.595
-0.605
-0.615
-0.62
-0.635
-0.625
-0.61
-0.615
-0.625
-0.635
-0.62
-0.61
-0.59
-0.59
-0.59
-0.61
-0.61
-0.62
-0.605
-0.59
-0.595
-0.615
-0.6
-0.58
-0.54
-0.53
-0.52
-0.525
-0.54
-0.53
-0.515
-0.515
-0.53
-0.55
-0.545
-0.535
-0.525
-0.53
-0.555
-0.575
-0.575
-0.58
-0.555
-0.56
-0.56
-0.57
-0.575
-0.56
-0.54
-0.535
-0.55
-0.56
-0.55
-0.53
-0.52
-0.525
-0.535
-0.54
-0.54
-0.54
-0.53
-0.52
-0.525
-0.54
-0.54
-0.54
-0.52
-0.52
-0.54
-0.54
-0.54
-0.535
-0.535
-0.55
-0.54
-0.535
-0.54
-0.545
-0.53
-0.52
-0.52
-0.515
-0.525
-0.51
-0.475
-0.465
-0.475
-0.48
-0.445
-0.43
-0.405
-0.395
-0.41
-0.445
-0.455
-0.44
-0.425
-0.415
-0.45
-0.47
-0.47
-0.47
-0.465
-0.465
-0.45
-0.45
-0.45
-0.435
-0.42
-0.42
-0.425
-0.44
-0.44
-0.385
-0.34
-0.33
-0.325
-0.29
-0.215
-0.15
-0.065
0.02
0.13
0.28
0.5
0.745
0.93
1.025
1.07
1.145
1.205
1.23
1.19
1.12
0.995
0.85
0.695
0.52
0.29
0.04
-0.175
-0.335
-0.46
-0.515
-0.545
-0.53
-0.555
-0.59
-0.625
-0.625
-0.62
-0.625
-0.655
-0.695
-0.715
-0.72
-0.715
-0.72
-0.735
-0.735
-0.75
-0.745
-0.745
-0.73
-0.755
-0.76
-0.75
-0.73
-0.72
-0.725
-0.73
-0.725
-0.725
-0.72
-0.695
-0.7
-0.7
-0.7
-0.69
-0.665
-0.635
-0.64
-0.64
-0.65
-0.65
-0.635
-0.605
-0.585
-0.585
-0.58
-0.565
-0.535
-0.51
-0.5
-0.465
-0.45
-0.445
-0.42
-0.36
-0.34
-0.32
-0.33
-0.31
-0.29
-0.25
-0.265
-0.3
-0.315
-0.325
-0.325
-0.315
-0.305
-0.31
-0.33
-0.35
-0.36
-0.335
-0.33
-0.36
-0.385
-0.39
-0.365
-0.35
-0.365
-0.39
-0.395
-0.395
-0.375
-0.39
-0.38
-0.385
-0.395
-0.405
-0.385
-0.375
-0.37
-0.38
-0.385
-0.39
-0.385
-0.36
-0.365
-0.375
-0.38
-0.385
-0.36
-0.345
-0.36
-0.375
-0.385
-0.39
-0.38
-0.365
-0.365
-0.365
-0.38
-0.39
-0.39
-0.37
-0.365
-0.38
-0.4
-0.39
-0.385
-0.38
-0.395
-0.405
-0.43
-0.445
-0.425
-0.395
-0.385
-0.395
-0.41
-0.405
-0.395
-0.355
-0.36
-0.37
-0.385
-0.4
-0.37
-0.345
-0.32
-0.335
-0.34
-0.325
-0.315
-0.295
-0.3
-0.315
-0.315
-0.265
-0.21
-0.16
-0.125
-0.085
0.01
0.1
0.195
0.315
0.45
0.645
0.89
1.13
1.28
1.35
1.38
1.43
1.455
1.44
1.385
1.28
1.12
0.94
0.755
0.515
0.235
0.005
-0.23
-0.385
-0.49
-0.525
-0.53
-0.545
-0.57
-0.61
-0.615
-0.635
-0.645
-0.625
-0.63
-0.66
-0.665
-0.665
-0.665
-0.635
-0.645
-0.65
-0.66
-0.675
-0.665
-0.655
-0.65
-0.67
-0.67
-0.65
-0.63
-0.61
-0.6
-0.61
-0.61
-0.61
-0.59
-0.58
-0.575
-0.565
-0.57
-0.565
-0.55
-0.52
-0.52
-0.505
-0.505
-0.515
-0.475
-0.445
-0.44
-0.435
-0.46
-0.435
-0.42
-0.385
-0.39
-0.4
-0.405
-0.415
-0.405
-0.38
-0.375
-0.4
-0.415
-0.395
-0.375
-0.36
-0.37
-0.38
-0.41
-0.43
-0.43
-0.415
-0.42
-0.43
-0.45
-0.465
-0.455
-0.455
-0.46
-0.46
-0.48
-0.475
-0.475
-0.48
-0.475
-0.475
-0.5
-0.51
-0.5
-0.49
-0.48
-0.5
-0.52
-0.52
-0.505
-0.5
-0.535
-0.55
-0.555
-0.57
-0.56
-0.555
-0.55
-0.56
-0.575
-0.6
-0.585
-0.585
-0.585
-0.615
-0.645
-0.645
-0.65
-0.63
-0.635
-0.665
-0.655
-0.645
-0.65
-0.64
-0.63
-0.625
-0.635
-0.635
-0.615
-0.605
-0.595
-0.61
-0.625
-0.6
-0.585
-0.56
-0.56
-0.56
-0.565
-0.57
-0.57
-0.565
-0.565
-0.585
-0.6
-0.59
-0.575
-0.565
-0.575
-0.585
-0.6
-0.59
-0.6
-0.585
-0.585
-0.595
-0.615
-0.61
-0.605
-0.61
-0.625
-0.63
-0.665
-0.66
-0.64
-0.635
-0.635
-0.65
-0.67
-0.695
-0.695
-0.675
-0.67
-0.675
-0.695
-0.705
-0.675
-0.67
-0.67
-0.685
-0.68
-0.665
-0.67
-0.655
-0.64
-0.645
-0.67
-0.68
-0.65
-0.63
-0.64
-0.645
-0.645
-0.63
-0.62
-0.6
-0.57
-0.575
-0.615
-0.62
-0.595
-0.575
-0.585
-0.605
-0.6
-0.595
-0.595
-0.585
-0.595
-0.595
-0.61
-0.605
-0.605
-0.58
-0.58
-0.595
-0.625
-0.62
-0.61
-0.58
-0.535
-0.485
-0.47
-0.435
-0.39
-0.31
-0.27
-0.255
-0.25
-0.245
-0.195
-0.105
-0.01
0.065
0.14
0.205
0.285
0.39
0.47
0.51
0.52
0.455
0.35
0.245
0.12
-0.035
-0.22
-0.395
-0.505
-0.58
-0.635
-0.685
-0.695
-0.71
-0.715
-0.705
-0.715
-0.72
-0.755
-0.765
-0.775
-0.755
-0.78
-0.815
-0.83
-0.825
-0.81
-0.785
-0.8
-0.83
-0.84
-0.835
-0.82
-0.82
-0.825
-0.845
-0.85
-0.84
-0.84
-0.84
-0.84
-0.845
-0.85
-0.845
-0.84
-0.825
-0.82
-0.825
-0.84
-0.845
-0.845
-0.825
-0.81
-0.825
-0.835
-0.83
-0.815
-0.805
-0.795
-0.8
-0.79
-0.79
-0.765
-0.75
-0.745
-0.73
-0.725
-0.705
-0.68
-0.65
-0.61
-0.6
-0.585
-0.55
-0.515
-0.485
-0.465
-0.47
-0.445
-0.435
-0.415
-0.38
-0.38
-0.37
-0.395
-0.39
-0.38
-0.365
-0.36
-0.375
-0.4
-0.41
-0.395
-0.395
-0.405
-0.42
-0.425
-0.425
-0.43
-0.415
-0.415
-0.425
-0.44
-0.44
-0.44
-0.42
-0.43
-0.47
-0.5
-0.49
-0.5
-0.49
-0.49
-0.485
-0.495
-0.49
-0.475
-0.455
-0.475
-0.48
-0.48
-0.485
-0.47
-0.43
-0.415
-0.43
-0.435
-0.425
-0.415
-0.375
-0.36
-0.365
-0.385
-0.375
-0.355
-0.335
-0.32
-0.345
-0.355
-0.34
-0.335
-0.305
-0.305
-0.355
-0.34
-0.325
-0.32
-0.305
-0.305
-0.31
-0.315
-0.315
-0.305
-0.29
-0.28
-0.305
-0.305
-0.305
-0.295
-0.285
-0.315
-0.315
-0.32
-0.32
-0.325
-0.345
-0.35
-0.375
-0.38
-0.38
-0.355
-0.32
-0.325
-0.335
-0.325
-0.31
-0.31
-0.295
-0.27
-0.27
-0.275
-0.28
-0.29
-0.255
-0.255
-0.28
-0.295
-0.28
-0.255
-0.245
-0.245
-0.265
-0.25
-0.265
-0.255
-0.245
-0.225
-0.24
-0.24
-0.245
-0.22
-0.2
-0.205
-0.215
-0.21
-0.215
-0.205
-0.185
-0.19
-0.18
-0.2
-0.215
-0.18
-0.17
-0.155
-0.175
-0.205
-0.21
-0.18
-0.17
-0.155
-0.185
-0.19
-0.19
-0.155
-0.125
-0.11
-0.1
-0.105
-0.07
-0.01
0.055
0.12
0.17
0.225
0.29
0.37
0.48
0.62
0.745
0.825
0.92
1.03
1.12
1.215
1.275
1.315
1.335
1.36
1.345
1.255
1.145
1.0
0.905
0.78
0.61
0.39
0.21
0.06
-0.07
-0.175
-0.22
-0.22
-0.245
-0.27
-0.3
-0.305
-0.305
-0.305
-0.33
-0.365
-0.365
-0.355
-0.345
-0.375
-0.4
-0.395
-0.4
-0.39
-0.365
-0.375
-0.39
-0.4
-0.4
-0.405
-0.39
-0.385
-0.385
-0.4
-0.405
-0.4
-0.405
-0.415
-0.425
-0.415
-0.405
-0.37
-0.36
-0.36
-0.345
-0.345
-0.345
-0.31
-0.26
-0.25
-0.255
-0.235
-0.22
-0.195
-0.16
-0.17
-0.16
-0.15
-0.13
-0.115
-0.09
-0.07
-0.06
-0.055
-0.045
-0.03
0.01
0.02
0.035
0.035
0.055
0.1
0.105
0.11
0.105
0.105
0.1
0.085
0.095
0.1
0.07
0.07
0.05
0.065
0.08
0.075
0.045
0.035
0.025
0.04
0.035
0.03
0.01
-0.015
-0.025
-0.02
-0.015
-0.005
-0.03
-0.05
-0.065
-0.045
-0.005
-0.025
-0.03
-0.025
0.0
0.01
0.03
0.035
0.03
0.015
0.025
0.04
0.055
0.07
0.055
0.035
0.045
0.04
0.07
0.06
0.055
0.06
0.04
0.045
0.065
0.07
0.055
0.05
0.04
0.06
0.07
0.065
0.05
0.02
0.025
0.025
0.055
0.06
0.075
0.075
0.08
0.11
0.15
0.185
0.19
0.17
0.205
0.28
0.4
0.595
0.76
0.91
1.055
1.175
1.31
1.43
1.515
1.535
1.54
1.53
1.475
1.395
1.315
1.22
1.115
0.975
0.77
0.6
0.445
0.28
0.105
-0.01
-0.06
-0.055
-0.06
-0.09
-0.125
-0.135
-0.125
-0.125
-0.16
-0.19
-0.19
-0.17
-0.17
-0.165
-0.19
-0.195
-0.21
-0.195
-0.195
-0.2
-0.215
-0.2
-0.205
-0.205
-0.205
-0.215
-0.205
-0.21
-0.225
-0.225
-0.215
-0.185
-0.19
-0.195
-0.2
-0.19
-0.14
-0.135
-0.15
-0.165
-0.16
-0.15
-0.145
-0.155
-0.16
-0.135
-0.105
-0.09
-0.06
-0.03
-0.015
-0.015
-0.01
0.005
0.015
0.03
0.045
0.04
0.06
0.1
0.125
0.13
0.155
0.16
0.19
0.22
0.245
0.245
0.265
0.255
0.255
0.265
0.275
0.28
0.27
0.245
0.23
0.245
0.26
0.25
0.215
0.19
0.19
0.2
0.215
0.2
0.205
0.165
0.145
0.17
0.185
0.185
0.165
0.15
0.15
0.145
0.155
0.155
0.15
0.14
0.11
0.115
0.12
0.135
0.12
0.095
0.12
0.145
0.145
0.135
0.105
0.13
0.125
0.125
0.145
0.135
0.125
0.105
0.1
0.105
0.13
0.12
0.09
0.085
0.085
0.105
0.13
0.13
0.135
0.12
0.1
0.12
0.12
0.135
0.14
0.12
0.12
0.145
0.165
0.15
0.145
0.14
0.125
0.145
0.145
0.165
0.15
0.12
0.115
0.135
0.145
0.13
0.115
0.11
0.12
0.115
0.115
0.1
0.075
0.06
0.055
0.075
0.095
0.11
0.1
0.085
0.115
0.12
0.125
0.125
0.125
0.12
0.11
0.115
0.13
0.13
0.125
0.12
0.11
0.135
0.16
0.18
0.17
0.17
0.175
0.2
0.215
0.21
0.205
0.19
0.215
0.21
0.22
0.225
0.21
0.2
0.21
0.24
0.24
0.22
0.21
0.235
0.21
0.215
0.22
0.21
0.22
0.205
0.21
0.195
0.22
0.225
0.245
0.255
0.285
0.335
0.37
0.385
0.395
0.43
0.495
0.54
0.605
0.65
0.74
0.875
1.07
1.25
1.41
1.48
1.52
1.55
1.595
1.625
1.625
1.595
1.485
1.34
1.22
1.09
0.955
0.74
0.515
0.33
0.175
0.03
-0.025
-0.045
-0.07
-0.09
-0.12
-0.12
-0.125
-0.145
-0.175
-0.19
-0.195
-0.175
-0.17
-0.19
-0.195
-0.195
-0.215
-0.205
-0.205
-0.215
-0.245
-0.23
-0.24
-0.22
-0.21
-0.205
-0.215
-0.23
-0.24
-0.23
-0.21
-0.21
-0.22
-0.23
-0.26
-0.26
-0.245
-0.245
-0.25
-0.24
-0.24
-0.225
-0.2
-0.205
-0.215
-0.235
-0.23
-0.22
-0.205
-0.205
-0.205
-0.215
-0.205
-0.2
-0.16
-0.135
-0.125
-0.135
-0.125
-0.085
-0.035
-0.015
-0.01
0.01
0.045
0.08
0.11
0.12
0.135
0.125
0.11
0.125
0.155
0.16
0.135
0.135
0.14
0.145
0.145
0.14
0.125
0.13
0.125
0.13
0.14
0.135
0.13
0.135
0.125
0.145
0.165
0.17
0.15
0.135
0.115
0.12
0.12
0.115
0.095
0.075
0.095
0.09
0.115
0.1
0.09
0.06
0.045
0.05
0.05
0.03
0.02
0.0
0.0
0.015
0.035
0.03
0.015
0.01
0.015
0.03
0.045
0.045
0.03
0.01
0.01
0.035
0.04
0.035
0.03
0.01
0.01
0.015
0.03
0.04
0.025
0.0
-0.015
0.005
0.015
0.0
-0.005
-0.035
-0.02
-0.02
-0.02
-0.025
-0.03
-0.025
-0.005
0.0
-0.005
-0.02
-0.015
-0.01
-0.015
-0.005
0.005
0.0
-0.01
-0.04
-0.045
-0.03
0.0
0.0
-0.03
-0.03
-0.025
0.0
0.0
-0.01
-0.025
-0.045
-0.055
-0.055
-0.055
-0.065
-0.08
-0.075
-0.09
-0.085
-0.065
-0.06
-0.075
-0.09
-0.11
-0.09
-0.065
-0.06
-0.1
-0.125
-0.105
-0.09
-0.095
-0.11
-0.15
-0.14
-0.14
-0.13
-0.145
-0.155
-0.155
-0.155
-0.17
-0.155
-0.14
-0.145
-0.16
-0.185
-0.18
-0.185
-0.16
-0.17
-0.175
-0.19
-0.2
-0.195
-0.19
-0.18
-0.19
-0.195
-0.21
-0.21
-0.19
-0.225
-0.23
-0.23
-0.24
-0.205
-0.19
-0.2
-0.195
-0.195
-0.19
-0.195
-0.17
-0.16
-0.155
-0.155
-0.14
-0.095
-0.08
-0.09
-0.08
-0.075
-0.03
0.005
0.08
0.125
0.145
0.165
0.22
0.275
0.33
0.345
0.39
0.435
0.52
0.67
0.815
0.94
1.02
1.06
1.11
1.17
1.22
1.215
1.175
1.105
0.97
0.865
0.75
0.6
0.405
0.185
0.005
-0.12
-0.235
-0.35
-0.395
-0.42
-0.455
-0.465
-0.485
-0.505
-0.54
-0.575
-0.58
-0.555
-0.58
-0.6
-0.63
-0.65
-0.66
-0.67
-0.665
-0.685
-0.69
-0.7
-0.7
-0.68
-0.655
-0.655
-0.675
-0.68
-0.675
-0.65
-0.635
-0.615
-0.615
-0.62
-0.625
-0.605
-0.57
-0.565
-0.56
-0.555
-0.515
-0.495
-0.47
-0.45
-0.435
-0.425
-0.4
-0.395
-0.395
-0.355
-0.355
-0.365
-0.38
-0.375
-0.35
-0.335
-0.335
-0.335
-0.33
-0.305
-0.27
-0.25
-0.265
-0.27
-0.27
-0.245
-0.195
-0.205
-0.23
-0.22
-0.21
-0.205
-0.18
-0.185
-0.185
-0.21
-0.23
-0.245
-0.225
-0.245
-0.26
-0.285
-0.315
-0.325
-0.31
-0.355
-0.37
-0.415
-0.4
-0.4
-0.385
-0.395
-0.395
-0.39
-0.4
-0.395
-0.39
-0.385
-0.405
-0.43
-0.425
-0.415
-0.4
-0.41
-0.41
-0.405
-0.39
-0.38
-0.37
-0.365
-0.355
-0.37
-0.36
-0.345
-0.32
-0.32
-0.345
-0.355
-0.345
-0.315
-0.305
-0.32
-0.325
-0.32
-0.335
-0.325
-0.305
-0.3
-0.32
-0.335
-0.325
-0.31
-0.29
-0.3
-0.285
-0.24
-0.185
-0.15
-0.125
-0.11
-0.08
-0.095
-0.125
-0.145
-0.14
-0.065
0.07
0.235
0.375
0.455
0.58
0.7
0.77
0.805
0.77
0.705
0.615
0.47
0.34
0.165
-0.02
-0.175
-0.285
-0.41
-0.51
-0.555
-0.55
-0.555
-0.535
-0.565
-0.59
-0.63
-0.64
-0.64
-0.63
-0.635
-0.645
-0.655
-0.67
-0.66
-0.64
-0.665
-0.675
-0.685
-0.68
-0.665
-0.67
-0.67
-0.67
-0.685
-0.68
-0.67
-0.655
-0.645
-0.65
-0.67
-0.65
-0.62
-0.595
-0.6
-0.62
-0.62
-0.62
-0.605
-0.595
-0.58
-0.585
-0.595
-0.6
-0.59
-0.575
-0.565
-0.555
-0.545
-0.52
-0.505
-0.475
-0.45
-0.42
-0.405
-0.385
-0.37
-0.34
-0.32
-0.34
-0.35
-0.325
-0.3
-0.28
-0.31
-0.315
-0.335
-0.325
-0.325
-0.31
-0.3
-0.33
-0.36
-0.355
-0.35
-0.35
-0.36
-0.38
-0.41
-0.405
-0.405
-0.39
-0.405
-0.415
-0.45
-0.46
-0.445
-0.405
-0.41
-0.445
-0.455
-0.47
-0.45
-0.435
-0.455
-0.47
-0.485
-0.475
-0.425
-0.395
-0.38
-0.39
-0.405
-0.415
-0.42
-0.46
-0.515
-0.56
-0.575
-0.53
-0.385
-0.185
-0.065
0.005
0.13
0.31
0.485
0.59
0.65
0.685
0.68
0.65
0.57
0.48
0.385
0.195
-0.015
-0.21
-0.35
-0.45
-0.525
-0.565
-0.575
-0.58
-0.595
-0.61
-0.635
-0.65
-0.685
-0.7
-0.69
-0.695
-0.705
-0.73
-0.76
-0.76
-0.735
-0.725
-0.76
-0.77
-0.78
-0.78
-0.765
-0.745
-0.745
-0.76
-0.79
-0.8
-0.765
-0.765
-0.79
-0.81
-0.795
-0.795
-0.79
-0.785
-0.77
-0.795
-0.775
-0.765
-0.725
-0.685
-0.67
-0.66
-0.64
-0.61
-0.585
-0.555
-0.54
-0.535
-0.525
-0.505
-0.475
-0.44
-0.415
-0.405
-0.39
-0.37
-0.345
-0.34
-0.33
-0.32
-0.33
-0.35
-0.35
-0.335
-0.34
-0.375
-0.385
-0.395
-0.38
-0.36
-0.385
-0.405
-0.43
-0.435
-0.425
-0.39
-0.39
-0.425
-0.45
-0.445
-0.43
-0.43
-0.45
-0.47
-0.475
-0.49
-0.485
-0.465
-0.46
-0.46
-0.47
-0.475
-0.455
-0.44
-0.45
-0.465
-0.48
-0.465
-0.46
-0.45
-0.465
-0.47
-0.485
-0.485
-0.475
-0.455
-0.465
-0.49
-0.505
-0.495
-0.475
-0.47
-0.475
-0.48
-0.475
-0.445
-0.43
-0.405
-0.405
-0.415
-0.415
-0.44
-0.445
-0.43
-0.405
-0.42
-0.445
-0.46
-0.45
-0.42
-0.43
-0.455
-0.46
-0.46
-0.44
-0.425
-0.44
-0.455
-0.45
-0.45
-0.46
-0.44
-0.43
-0.435
-0.48
-0.5
-0.495
-0.49
-0.5
-0.53
-0.52
-0.495
-0.485
-0.465
-0.485
-0.485
-0.48
-0.485
-0.475
-0.46
-0.455
-0.45
-0.465
-0.475
-0.445
-0.44
-0.45
-0.48
-0.5
-0.485
-0.47
-0.47
-0.485
-0.5
-0.5
-0.505
-0.485
-0.485
-0.47
-0.49
-0.515
-0.515
-0.48
-0.46
-0.47
-0.49
-0.51
-0.485
-0.475
-0.455
-0.455
-0.465
-0.48
-0.475
-0.46
-0.42
-0.41
-0.41
-0.415
-0.39
-0.35
-0.305
-0.29
-0.285
-0.27
-0.2
-0.135
-0.055
0.015
0.09
0.16
0.32
0.53
0.73
0.855
0.94
1.0
1.11
1.19
1.225
1.18
1.085
0.92
0.76
0.64
0.46
0.17
-0.085
-0.28
-0.435
-0.56
-0.615
-0.63
-0.65
-0.69
-0.735
-0.755
-0.75
-0.775
-0.8
-0.82
-0.825
-0.83
-0.825
-0.83
-0.84
-0.845
-0.85
-0.845
-0.8
-0.785
-0.795
-0.825
-0.815
-0.795
-0.785
-0.795
-0.79
-0.81
-0.805
-0.8
-0.79
-0.78
-0.815
-0.85
-0.875
-0.865
-0.855
-0.85
-0.855
-0.85
-0.83
-0.79
-0.81
-0.8
-0.79
-0.8
-0.795
-0.78
-0.74
-0.745
-0.76
-0.75
-0.72
-0.695
-0.685
-0.665
-0.65
-0.635
-0.63
-0.58
-0.55
-0.54
-0.535
-0.52
-0.51
-0.47
-0.45
-0.44
-0.44
-0.445
-0.43
-0.41
-0.385
-0.38
-0.375
-0.38
-0.375
-0.36
-0.335
-0.33
-0.36
-0.375
-0.355
-0.335
-0.33
-0.335
-0.35
-0.36
-0.35
-0.365
-0.37
-0.4
-0.425
-0.43
-0.435
-0.42
-0.4
-0.4
-0.41
-0.43
-0.435
-0.4
-0.395
-0.4
-0.42
-0.41
-0.405
-0.415
-0.42
-0.44
-0.44
-0.44
-0.445
-0.435
-0.43
-0.44
-0.47
-0.5
-0.495
-0.48
-0.465
-0.475
-0.505
-0.5
-0.485
-0.47
-0.465
-0.465
-0.465
-0.475
-0.45
-0.44
-0.415
-0.42
-0.435
-0.455
-0.43
-0.425
-0.42
-0.435
-0.43
-0.43
-0.43
-0.44
-0.415
-0.405
-0.43
-0.45
-0.45
-0.435
-0.44
-0.465
-0.49
-0.5
-0.49
-0.485
-0.485
-0.475
-0.48
-0.505
-0.5
-0.48
-0.465
-0.47
-0.495
-0.5
-0.505
-0.48
-0.495
-0.505
-0.51
-0.515
-0.535
-0.52
-0.49
-0.495
-0.53
-0.55
-0.545
-0.54
-0.54
-0.545
-0.56
-0.545
-0.535
-0.535
-0.52
-0.51
-0.53
-0.53
-0.535
-0.515
-0.5
-0.5
-0.51
-0.53
-0.505
-0.485
-0.475
-0.475
-0.485
-0.495
-0.495
-0.475
-0.475
-0.485
-0.505
-0.505
-0.49
-0.505
-0.505
-0.525
-0.54
-0.575
-0.58
-0.545
-0.53
-0.52
-0.535
-0.535
-0.515
-0.52
-0.535
-0.53
-0.54
-0.54
-0.53
-0.53
-0.505
-0.515
-0.535
-0.56
-0.555
-0.54
-0.545
-0.55
-0.56
-0.555
-0.555
-0.565
-0.555
-0.55
-0.535
-0.54
-0.54
-0.525
-0.5
-0.495
-0.515
-0.5
-0.485
-0.475
-0.475
-0.475
-0.475
-0.485
-0.49
-0.485
-0.475
-0.475
-0.5
-0.52
-0.515
-0.505
-0.485
-0.49
-0.52
-0.515
-0.495
-0.49
-0.48
-0.49
-0.485
-0.51
-0.525
-0.53
-0.51
-0.505
-0.515
-0.55
-0.545
-0.52
-0.51
-0.495
-0.495
-0.46
-0.39
-0.355
-0.335
-0.305
-0.245
-0.18
-0.11
-0.05
0.045
0.15
0.3
0.52
0.76
0.94
1.03
1.065
1.105
1.185
1.24
1.235
1.215
1.125
0.98
0.815
0.65
0.455
