Lead II
-0.46
-0.465
-0.475
-0.47
-0.465
-0.47
-0.445
-0.435
-0.425
-0.415
-0.405
-0.395
-0.4
-0.405
-0.4
-0.415
-0.405
-0.4
-0.39
-0.37
-0.375
-0.38
-0.36
-0.355
-0.355
-0.36
-0.37
-0.37
-0.375
-0.37
-0.37
-0.365
-0.35
-0.35
-0.355
-0.34
-0.345
-0.345
-0.345
-0.345
-0.335
-0.33
-0.32
-0.315
-0.315
-0.33
-0.315
-0.33
-0.32
-0.335
-0.335
-0.35
-0.335
-0.335
-0.34
-0.34
-0.36
-0.37
-0.365
-0.37
-0.37
-0.37
-0.375
-0.385
-0.385
-0.375
-0.375
-0.365
-0.355
-0.375
-0.37
-0.38
-0.365
-0.375
-0.37
-0.38
-0.385
-0.355
-0.35
-0.335
-0.34
-0.36
-0.365
-0.37
-0.375
-0.385
-0.375
-0.375
-0.355
-0.345
-0.34
-0.345
-0.335
-0.345
-0.345
-0.36
-0.37
-0.38
-0.38
-0.375
-0.37
-0.355
-0.35
-0.345
-0.35
-0.355
-0.345
-0.345
-0.355
-0.37
-0.385
-0.38
-0.375
-0.37
-0.36
-0.36
-0.35
-0.35
-0.345
-0.355
-0.36
-0.37
-0.39
-0.355
-0.35
-0.33
-0.315
-0.31
-0.275
-0.27
-0.265
-0.25
-0.25
-0.235
-0.22
-0.19
-0.175
-0.175
-0.195
-0.19
-0.2
-0.205
-0.195
-0.21
-0.235
-0.26
-0.275
-0.295
-0.31
-0.335
-0.37
-0.39
-0.395
-0.4
-0.39
-0.41
-0.415
-0.42
-0.43
-0.415
-0.415
-0.42
-0.43
-0.44
-0.435
-0.44
-0.445
-0.44
-0.44
-0.445
-0.45
-0.455
-0.455
-0.435
-0.42
-0.355
-0.26
-0.125
0.055
0.27
0.53
0.805
1.075
1.305
1.435
1.42
1.26
0.975
0.645
0.275
-0.03
-0.265
-0.425
-0.5
-0.52
-0.475
-0.435
-0.4
-0.39
-0.39
-0.415
-0.455
-0.47
-0.5
-0.515
-0.525
-0.525
-0.525
-0.52
-0.51
-0.51
-0.495
-0.495
-0.495
-0.495
-0.49
-0.49
-0.51
-0.515
-0.515
-0.525
-0.51
-0.505
-0.495
-0.495
-0.5
-0.495
-0.495
-0.495
-0.5
-0.5
-0.5
-0.5
-0.495
-0.49
-0.475
-0.465
-0.46
-0.455
-0.46
-0.46
-0.455
-0.445
-0.455
-0.445
-0.44
-0.43
-0.415
-0.41
-0.435
-0.42
-0.425
-0.42
-0.41
-0.415
-0.41
-0.4
-0.395
-0.385
-0.365
-0.365
-0.365
-0.365
-0.38
-0.37
-0.36
-0.365
-0.35
-0.35
-0.335
-0.335
-0.35
-0.33
-0.345
-0.35
-0.37
-0.375
-0.365
-0.36
-0.355
-0.345
-0.34
-0.33
-0.315
-0.295
-0.28
-0.295
-0.29
-0.31
-0.32
-0.305
-0.295
-0.31
-0.31
-0.31
-0.295
-0.29
-0.31
-0.315
-0.33
-0.345
-0.37
-0.36
-0.365
-0.36
-0.355
-0.345
-0.34
-0.315
-0.315
-0.32
-0.34
-0.35
-0.365
-0.36
-0.36
-0.375
-0.365
-0.36
-0.335
-0.315
-0.305
-0.3
-0.31
-0.32
-0.335
-0.34
-0.345
-0.34
-0.355
-0.33
-0.315
-0.31
-0.305
-0.3
-0.32
-0.32
-0.315
-0.32
-0.325
-0.33
-0.335
-0.33
-0.32
-0.315
-0.31
-0.305
-0.305
-0.31
-0.3
-0.305
-0.31
-0.325
-0.32
-0.325
-0.325
-0.315
-0.32
-0.325
-0.33
-0.32
-0.335
-0.335
-0.32
-0.33
-0.325
-0.325
-0.315
-0.295
-0.275
-0.275
-0.265
-0.255
-0.25
-0.25
-0.23
-0.23
-0.215
-0.195
-0.165
-0.145
-0.13
-0.12
-0.13
-0.135
-0.145
-0.155
-0.16
-0.16
-0.175
-0.16
-0.175
-0.185
-0.215
-0.245
-0.265
-0.305
-0.33
-0.345
-0.35
-0.355
-0.35
-0.34
-0.345
-0.34
-0.365
-0.38
-0.38
-0.38
-0.38
-0.39
-0.395
-0.395
-0.39
-0.38
-0.37
-0.375
-0.365
-0.3
-0.19
-0.02
0.225
0.51
0.84
1.16
1.435
1.58
1.56
1.39
1.06
0.655
0.265
-0.07
-0.3
-0.415
-0.445
-0.425
-0.37
-0.32
-0.315
-0.32
-0.345
-0.375
-0.415
-0.44
-0.44
-0.435
-0.425
-0.42
-0.41
-0.405
-0.395
-0.39
-0.39
-0.4
-0.425
-0.425
-0.425
-0.425
-0.4
-0.4
-0.395
-0.39
-0.38
-0.375
-0.375
-0.385
-0.385
-0.405
-0.395
-0.4
-0.4
-0.395
-0.37
-0.36
-0.355
-0.345
-0.35
-0.35
-0.355
-0.345
-0.355
-0.36
-0.35
-0.345
-0.34
-0.325
-0.31
-0.285
-0.265
-0.26
-0.275
-0.275
-0.29
-0.3
-0.3
-0.3
-0.3
-0.295
-0.28
-0.26
-0.24
-0.235
-0.23
-0.24
-0.24
-0.245
-0.24
-0.245
-0.25
-0.25
-0.235
-0.225
-0.23
-0.23
-0.245
-0.255
-0.25
-0.255
-0.235
-0.22
-0.22
-0.21
-0.19
-0.175
-0.18
-0.175
-0.175
-0.19
-0.205
-0.215
-0.21
-0.22
-0.21
-0.21
-0.21
-0.2
-0.195
-0.2
-0.2
-0.215
-0.225
-0.235
-0.23
-0.235
-0.24
-0.235
-0.23
-0.215
-0.22
-0.23
-0.225
-0.23
-0.23
-0.235
-0.23
-0.225
-0.22
-0.22
-0.215
-0.195
-0.195
-0.195
-0.2
-0.205
-0.225
-0.23
-0.225
-0.225
-0.21
-0.2
-0.19
-0.185
-0.165
-0.17
-0.17
-0.175
-0.2
-0.205
-0.215
-0.205
-0.21
-0.2
-0.195
-0.195
-0.185
-0.18
-0.175
-0.195
-0.195
-0.215
-0.21
-0.22
-0.21
-0.22
-0.225
-0.22
-0.21
-0.2
-0.2
-0.21
-0.215
-0.225
-0.215
-0.195
-0.175
-0.18
-0.155
-0.14
-0.13
-0.125
-0.115
-0.12
-0.115
-0.11
-0.08
-0.06
-0.045
-0.025
0.0
0.005
-0.025
-0.04
-0.045
-0.05
-0.04
-0.05
-0.055
-0.065
-0.085
-0.105
-0.125
-0.15
-0.165
-0.195
-0.23
-0.245
-0.25
-0.265
-0.265
-0.26
-0.27
-0.27
-0.255
-0.255
-0.265
-0.275
-0.285
-0.29
-0.29
-0.285
-0.285
-0.285
-0.285
-0.275
-0.24
-0.19
-0.105
0.03
0.205
0.435
0.725
1.04
1.35
1.575
1.7
1.665
1.475
1.16
0.765
0.37
0.03
-0.205
-0.34
-0.375
-0.35
-0.31
-0.26
-0.22
-0.21
-0.22
-0.26
-0.285
-0.315
-0.335
-0.355
-0.37
-0.37
-0.36
-0.335
-0.33
-0.32
-0.31
-0.31
-0.31
-0.325
-0.335
-0.355
-0.355
-0.37
-0.37
-0.355
-0.32
-0.31
-0.305
-0.295
-0.295
-0.29
-0.31
-0.33
-0.34
-0.335
-0.32
-0.295
-0.285
-0.28
-0.27
-0.275
-0.275
-0.27
-0.27
-0.28
-0.285
-0.29
-0.28
-0.275
-0.265
-0.235
-0.24
-0.22
-0.22
-0.225
-0.22
-0.205
-0.225
-0.225
-0.21
-0.205
-0.19
-0.19
-0.17
-0.175
-0.175
-0.175
-0.165
-0.175
-0.185
-0.17
-0.185
-0.175
-0.17
-0.17
-0.17
-0.18
-0.18
-0.185
-0.18
-0.165
-0.165
-0.16
-0.15
-0.14
-0.135
-0.125
-0.12
-0.125
-0.14
-0.135
-0.135
-0.145
-0.145
-0.15
-0.145
-0.14
-0.13
-0.135
-0.125
-0.15
-0.16
-0.185
-0.185
-0.185
-0.19
-0.2
-0.185
-0.185
-0.19
-0.17
-0.155
-0.16
-0.17
-0.17
-0.18
-0.18
-0.18
-0.19
-0.175
-0.16
-0.155
-0.145
-0.135
-0.135
-0.145
-0.15
-0.165
-0.165
-0.17
-0.175
-0.175
-0.165
-0.15
-0.15
-0.13
-0.13
-0.13
-0.14
-0.15
-0.16
-0.165
-0.16
-0.16
-0.15
-0.15
-0.145
-0.14
-0.125
-0.12
-0.135
-0.15
-0.145
-0.15
-0.16
-0.16
-0.155
-0.165
-0.16
-0.14
-0.125
-0.13
-0.135
-0.15
-0.15
-0.165
-0.175
-0.155
-0.16
-0.155
-0.15
-0.125
-0.11
-0.1
-0.105
-0.115
-0.1
-0.08
-0.07
-0.065
-0.045
-0.04
-0.015
0.005
0.04
0.04
0.035
0.015
0.0
-0.01
-0.005
0.0
0.01
0.0
-0.01
-0.025
-0.055
-0.095
-0.115
-0.15
-0.17
-0.19
-0.205
-0.185
-0.2
-0.22
-0.205
-0.2
-0.215
-0.225
-0.235
-0.245
-0.245
-0.255
-0.235
-0.23
-0.22
-0.225
-0.225
-0.23
-0.235
-0.24
-0.21
-0.155
-0.035
0.13
0.355
0.635
0.935
1.255
1.52
1.65
1.62
1.43
1.11
0.74
0.365
0.045
-0.15
-0.28
-0.29
-0.28
-0.22
-0.18
-0.185
-0.19
-0.235
-0.27
-0.315
-0.325
-0.335
-0.33
-0.32
-0.31
-0.3
-0.295
-0.3
-0.305
-0.305
-0.325
-0.335
-0.35
-0.34
-0.34
-0.315
-0.3
-0.3
-0.285
-0.285
-0.29
-0.29
-0.295
-0.315
-0.33
-0.325
-0.305
-0.29
-0.28
-0.275
-0.265
-0.265
-0.255
-0.255
-0.265
-0.275
-0.28
-0.275
-0.28
-0.26
-0.26
-0.235
-0.23
-0.21
-0.21
-0.21
-0.22
-0.235
-0.24
-0.235
-0.215
-0.22
-0.195
-0.18
-0.165
-0.165
-0.145
-0.15
-0.165
-0.185
-0.185
-0.185
-0.185
-0.185
-0.185
-0.17
-0.165
-0.165
-0.155
-0.165
-0.165
-0.185
-0.17
-0.17
-0.15
-0.155
-0.145
-0.13
-0.12
-0.12
-0.125
-0.12
-0.145
-0.155
-0.16
-0.17
-0.175
-0.17
-0.18
-0.17
-0.17
-0.16
-0.155
-0.17
-0.175
-0.18
-0.185
-0.19
-0.175
-0.195
-0.19
-0.175
-0.175
-0.175
-0.165
-0.17
-0.18
-0.18
-0.19
-0.18
-0.175
-0.185
-0.18
-0.175
-0.17
-0.165
-0.165
-0.17
-0.175
-0.18
-0.18
-0.19
-0.19
-0.19
-0.19
-0.185
-0.175
-0.165
-0.17
-0.175
-0.18
-0.18
-0.18
-0.175
-0.17
-0.17
-0.165
-0.16
-0.165
-0.16
-0.165
-0.18
-0.19
-0.2
-0.215
-0.2
-0.19
-0.185
-0.175
-0.18
-0.175
-0.185
-0.175
-0.18
-0.19
-0.205
-0.21
-0.2
-0.19
-0.175
-0.16
-0.15
-0.125
-0.125
-0.105
-0.105
-0.095
-0.09
-0.085
-0.08
-0.065
-0.045
-0.03
-0.015
-0.005
-0.015
-0.015
-0.02
-0.035
-0.04
-0.04
-0.035
-0.045
-0.055
-0.055
-0.065
-0.095
-0.15
-0.165
-0.195
-0.205
-0.23
-0.225
-0.235
-0.24
-0.245
-0.235
-0.225
-0.225
-0.235
-0.245
-0.255
-0.275
-0.265
-0.28
-0.285
-0.275
-0.27
-0.255
-0.26
-0.275
-0.3
-0.265
-0.22
-0.125
0.01
0.195
0.45
0.73
1.025
1.295
1.5
1.585
1.525
1.32
1.025
0.67
0.345
0.065
-0.13
-0.23
-0.27
-0.275
-0.245
-0.225
-0.21
-0.225
-0.245
-0.29
-0.315
-0.35
-0.37
-0.38
-0.365
-0.35
-0.33
-0.335
-0.33
-0.345
-0.34
-0.345
-0.36
-0.37
-0.37
-0.375
-0.37
-0.355
-0.345
-0.335
-0.34
-0.345
-0.35
-0.34
-0.33
-0.345
-0.36
-0.35
-0.36
-0.345
-0.335
-0.315
-0.32
-0.305
-0.31
-0.31
-0.315
-0.31
-0.325
-0.33
-0.315
-0.315
-0.3
-0.29
-0.295
-0.28
-0.285
-0.29
-0.275
-0.275
-0.285
-0.28
-0.28
-0.255
-0.255
-0.24
-0.24
-0.235
-0.22
-0.225
-0.22
-0.23
-0.245
-0.24
-0.225
-0.215
-0.2
-0.205
-0.22
-0.23
-0.225
-0.24
-0.23
-0.235
-0.23
-0.24
-0.215
-0.2
-0.19
-0.185
-0.19
-0.185
-0.185
-0.18
-0.165
-0.16
-0.175
-0.175
-0.17
-0.175
-0.16
-0.155
-0.18
-0.185
-0.2
-0.215
-0.23
-0.245
-0.235
-0.245
-0.23
-0.215
-0.215
-0.21
-0.215
-0.215
-0.23
-0.23
-0.235
-0.24
-0.24
-0.24
-0.23
-0.225
-0.21
-0.21
-0.205
-0.225
-0.215
-0.22
-0.245
-0.245
-0.24
-0.24
-0.225
-0.215
-0.225
-0.21
-0.21
-0.22
-0.225
-0.235
-0.22
-0.235
-0.23
-0.24
-0.24
-0.23
-0.22
-0.24
-0.245
-0.235
-0.24
-0.235
-0.245
-0.24
-0.245
-0.245
-0.235
-0.235
-0.235
-0.225
-0.215
-0.215
-0.22
-0.23
-0.235
-0.245
-0.245
-0.25
-0.26
-0.25
-0.26
-0.235
-0.225
-0.22
-0.205
-0.19
-0.2
-0.185
-0.18
-0.19
-0.185
-0.165
-0.145
-0.125
-0.1
-0.09
-0.075
-0.07
-0.08
-0.09
-0.095
-0.09
-0.075
-0.085
-0.09
-0.09
-0.1
-0.105
-0.135
-0.175
-0.21
-0.225
-0.235
-0.25
-0.245
-0.25
-0.25
-0.26
-0.275
-0.28
-0.29
-0.315
-0.335
-0.345
-0.34
-0.34
-0.325
-0.31
-0.32
-0.31
-0.315
-0.315
-0.315
-0.325
-0.34
-0.37
-0.36
-0.325
-0.245
-0.125
0.025
0.23
0.465
0.75
1.01
1.27
1.465
1.53
1.47
1.28
0.995
0.67
0.355
0.08
-0.135
-0.275
-0.355
-0.37
-0.355
-0.345
-0.32
-0.32
-0.33
-0.34
-0.36
-0.37
-0.395
-0.41
-0.41
-0.42
-0.405
-0.405
-0.41
-0.415
-0.4
-0.4
-0.41
-0.39
-0.41
-0.42
-0.41
-0.415
-0.405
-0.415
-0.405
-0.415
-0.415
-0.4
-0.395
-0.395
-0.4
-0.405
-0.42
-0.415
-0.4
-0.395
-0.39
-0.385
-0.39
-0.38
-0.37
-0.365
-0.385
-0.38
-0.385
-0.39
-0.375
-0.375
-0.365
-0.375
-0.36
-0.355
-0.34
-0.32
-0.33
-0.33
-0.335
-0.34
-0.35
-0.34
-0.325
-0.325
-0.325
-0.31
-0.295
-0.27
-0.255
-0.26
-0.28
-0.28
-0.28
-0.29
-0.3
-0.3
-0.305
-0.3
-0.295
-0.28
-0.275
-0.28
-0.28
-0.29
-0.285
-0.295
-0.285
-0.285
-0.27
-0.25
-0.235
-0.22
-0.225
-0.25
-0.26
-0.265
-0.275
-0.285
-0.3
-0.295
-0.295
-0.285
-0.28
-0.275
-0.275
-0.285
-0.29
-0.3
-0.31
-0.32
-0.32
-0.315
-0.305
-0.3
-0.285
-0.28
-0.285
-0.285
-0.295
-0.285
-0.29
-0.3
-0.3
-0.315
-0.315
-0.315
-0.295
-0.29
-0.29
-0.295
-0.275
-0.285
-0.285
-0.3
-0.305
-0.3
-0.29
-0.295
-0.29
-0.29
-0.29
-0.28
-0.28
-0.285
-0.285
-0.305
-0.295
-0.295
-0.29
-0.295
-0.3
-0.295
-0.29
-0.285
-0.29
-0.29
-0.305
-0.305
-0.295
-0.3
-0.3
-0.305
-0.305
-0.295
-0.3
-0.285
-0.275
-0.27
-0.27
-0.26
-0.255
-0.245
-0.235
-0.235
-0.215
-0.205
-0.185
-0.165
-0.14
-0.12
-0.105
-0.105
-0.11
-0.12
-0.125
-0.115
-0.125
-0.12
-0.12
-0.135
-0.155
-0.185
-0.21
-0.24
-0.26
-0.275
-0.29
-0.295
-0.31
-0.31
-0.315
-0.325
-0.33
-0.345
-0.35
-0.36
-0.36
-0.36
-0.37
-0.375
-0.36
-0.365
-0.36
-0.375
-0.38
-0.39
-0.415
-0.405
-0.375
-0.32
-0.205
-0.06
0.14
0.4
0.68
0.975
1.235
1.425
1.51
1.455
1.265
0.975
0.64
0.295
0.02
-0.17
-0.295
-0.355
-0.38
-0.365
-0.36
-0.345
-0.345
-0.355
-0.38
-0.4
-0.41
-0.42
-0.415
-0.42
-0.42
-0.425
-0.43
-0.45
-0.455
-0.445
-0.435
-0.43
-0.415
-0.405
-0.405
-0.4
-0.42
-0.42
-0.425
-0.43
-0.44
-0.43
-0.43
-0.42
-0.405
-0.405
-0.395
-0.385
-0.385
-0.385
-0.395
-0.4
-0.395
-0.395
-0.39
-0.37
-0.385
-0.385
-0.385
-0.38
-0.365
-0.36
-0.355
-0.365
-0.365
-0.365
-0.355
-0.34
-0.33
-0.335
-0.33
-0.325
-0.325
-0.32
-0.31
-0.315
-0.305
-0.31
-0.305
-0.295
-0.27
-0.255
-0.265
-0.265
-0.265
-0.295
-0.275
-0.275
-0.285
-0.295
-0.28
-0.27
-0.245
-0.255
-0.255
-0.255
-0.26
-0.255
-0.26
-0.265
-0.26
-0.245
-0.23
-0.21
-0.19
-0.195
-0.2
-0.205
-0.215
-0.23
-0.24
-0.235
-0.245
-0.255
-0.265
-0.24
-0.235
-0.22
-0.23
-0.245
-0.235
-0.26
-0.27
-0.27
-0.285
-0.29
-0.265
-0.25
-0.255
-0.245
-0.25
-0.25
-0.24
-0.24
-0.24
-0.255
-0.265
-0.27
-0.28
-0.27
-0.255
-0.235
-0.235
-0.23
-0.225
-0.24
-0.25
-0.235
-0.24
-0.255
-0.255
-0.24
-0.23
-0.225
-0.215
-0.225
-0.23
-0.225
-0.235
-0.23
-0.235
-0.24
-0.24
-0.235
-0.225
-0.22
-0.225
-0.23
-0.23
-0.225
-0.225
-0.23
-0.24
-0.24
-0.245
-0.24
-0.235
-0.23
-0.235
-0.24
-0.23
-0.235
-0.22
-0.22
-0.215
-0.205
-0.195
-0.18
-0.17
-0.16
-0.165
-0.16
-0.14
-0.115
-0.105
-0.09
-0.075
-0.055
-0.05
-0.035
-0.05
-0.055
-0.055
-0.075
-0.075
-0.085
-0.1
-0.12
-0.155
-0.16
-0.175
-0.175
-0.19
-0.195
-0.225
-0.245
-0.26
-0.275
-0.29
-0.305
-0.315
-0.3
-0.3
-0.29
-0.275
-0.28
-0.285
-0.295
-0.295
-0.305
-0.32
-0.34
-0.35
-0.335
-0.295
-0.23
-0.125
0.035
0.255
0.525
0.84
1.15
1.42
1.55
1.535
1.375
1.085
0.75
0.385
0.085
-0.14
-0.26
-0.325
-0.335
-0.315
-0.29
-0.275
-0.28
-0.295
-0.32
-0.34
-0.345
-0.36
-0.36
-0.37
-0.385
-0.385
-0.395
-0.4
-0.395
-0.39
-0.375
-0.375
-0.36
-0.355
-0.355
-0.36
-0.37
-0.385
-0.37
-0.39
-0.385
-0.38
-0.375
-0.345
-0.335
-0.335
-0.325
-0.34
-0.35
-0.36
-0.37
-0.37
-0.36
-0.355
-0.345
-0.325
-0.295
-0.295
-0.3
-0.31
-0.315
-0.32
-0.325
-0.345
-0.335
-0.33
-0.31
-0.295
-0.27
-0.26
-0.275
-0.28
-0.28
-0.27
-0.27
-0.285
-0.26
-0.255
-0.27
-0.26
-0.23
-0.215
-0.23
-0.23
-0.235
-0.235
-0.245
-0.245
-0.25
-0.255
-0.245
-0.245
-0.22
-0.215
-0.22
-0.23
-0.21
-0.205
-0.2
-0.21
-0.21
-0.2
-0.2
-0.19
-0.2
-0.19
-0.195
-0.2
-0.205
-0.2
-0.205
-0.21
-0.22
-0.22
-0.235
-0.225
-0.235
-0.23
-0.23
-0.235
-0.235
-0.24
-0.235
-0.245
-0.235
-0.235
-0.225
-0.215
-0.215
-0.22
-0.235
-0.23
-0.235
-0.235
-0.225
-0.23
-0.235
-0.22
-0.225
-0.21
-0.215
-0.225
-0.225
-0.21
-0.225
-0.225
-0.24
-0.235
-0.23
-0.23
-0.22
-0.21
-0.205
-0.215
-0.23
-0.23
-0.24
-0.25
-0.245
-0.245
-0.24
-0.235
-0.215
-0.23
-0.225
-0.23
-0.225
-0.22
-0.25
-0.25
-0.255
-0.26
-0.255
-0.24
-0.24
-0.215
-0.205
-0.21
-0.205
-0.195
-0.185
-0.185
-0.19
-0.19
-0.185
-0.16
-0.145
-0.12
-0.09
-0.08
-0.05
-0.035
-0.045
-0.055
-0.085
-0.1
-0.11
-0.105
-0.09
-0.07
-0.065
-0.075
-0.11
-0.14
-0.16
-0.19
-0.205
-0.245
-0.265
-0.275
-0.28
-0.27
-0.27
-0.28
-0.285
-0.29
-0.285
-0.285
-0.305
-0.325
-0.325
-0.33
-0.32
-0.295
-0.295
-0.3
-0.315
-0.315
-0.33
-0.34
-0.305
-0.25
-0.165
-0.035
0.155
0.39
0.66
0.93
1.17
1.38
1.48
1.445
1.28
1.02
0.705
0.39
0.125
-0.08
-0.21
-0.29
-0.32
-0.335
-0.315
-0.29
-0.285
-0.295
-0.3
-0.34
-0.345
-0.365
-0.37
-0.37
-0.38
-0.38
-0.395
-0.395
-0.39
-0.395
-0.4
-0.385
-0.385
-0.375
-0.36
-0.355
-0.365
-0.375
-0.39
-0.395
-0.395
-0.39
-0.385
-0.375
-0.375
-0.36
-0.355
-0.35
-0.355
-0.36
-0.37
-0.375
-0.375
-0.385
-0.365
-0.37
-0.36
-0.35
-0.335
-0.325
-0.325
-0.33
-0.34
-0.35
-0.35
-0.36
-0.355
-0.345
-0.33
-0.325
-0.305
-0.295
-0.29
-0.28
-0.28
-0.29
-0.3
-0.305
-0.3
-0.29
-0.29
-0.285
-0.255
-0.26
-0.26
-0.245
-0.25
-0.265
-0.265
-0.275
-0.27
-0.285
-0.285
-0.295
-0.27
-0.275
-0.27
-0.25
-0.265
-0.26
-0.26
-0.26
-0.25
-0.23
-0.225
-0.22
-0.225
-0.22
-0.22
-0.22
-0.22
-0.225
-0.24
-0.245
-0.25
-0.245
-0.245
-0.25
-0.25
-0.265
-0.27
-0.275
-0.28
-0.275
-0.275
-0.27
-0.265
-0.25
-0.24
-0.235
-0.235
-0.245
-0.275
-0.27
-0.28
-0.3
-0.295
-0.285
-0.275
-0.27
-0.25
-0.25
-0.225
-0.24
-0.24
-0.24
-0.245
-0.255
-0.265
-0.29
-0.275
-0.265
-0.25
-0.24
-0.23
-0.24
-0.25
-0.26
-0.25
-0.26
-0.255
-0.26
-0.265
-0.265
-0.265
-0.255
-0.235
-0.25
-0.25
-0.25
-0.26
-0.27
-0.27
-0.27
-0.275
-0.275
-0.275
-0.27
-0.265
-0.255
-0.255
-0.26
-0.265
-0.27
-0.26
-0.265
-0.26
-0.25
-0.265
-0.245
-0.22
-0.21
-0.2
-0.19
-0.2
-0.185
-0.16
-0.165
-0.15
-0.125
-0.11
-0.095
-0.095
-0.105
-0.11
-0.11
-0.125
-0.12
-0.105
-0.1
-0.1
-0.1
-0.115
-0.15
-0.17
-0.195
-0.21
-0.235
-0.265
-0.285
-0.31
-0.32
-0.31
-0.32
-0.315
-0.325
-0.305
-0.305
-0.325
-0.31
-0.33
-0.345
-0.355
-0.35
-0.335
-0.335
-0.32
-0.33
-0.33
-0.335
-0.34
-0.31
-0.26
-0.18
-0.065
0.11
0.34
0.615
0.905
1.19
1.42
1.545
1.525
1.365
1.085
0.74
0.38
0.06
-0.175
-0.31
-0.395
-0.4
-0.365
-0.33
-0.305
-0.295
-0.3
-0.335
-0.37
-0.41
-0.435
-0.435
-0.41
-0.405
-0.39
-0.39
-0.38
-0.38
-0.38
-0.4
-0.415
-0.41
-0.415
-0.415
-0.425
-0.425
-0.42
-0.415
-0.41
-0.405
-0.4
-0.39
-0.385
-0.39
-0.395
-0.385
-0.37
-0.37
-0.365
-0.385
-0.375
-0.37
-0.37
-0.365
-0.37
-0.355
-0.365
-0.36
-0.355
-0.35
-0.34
-0.36
-0.35
-0.345
-0.335
-0.345
-0.34
-0.345
-0.34
-0.32
-0.3
-0.285
-0.275
-0.29
-0.285
-0.305
-0.305
-0.305
-0.31
-0.29
-0.285
-0.28
-0.255
-0.245
-0.24
-0.245
-0.265
-0.275
-0.285
-0.29
-0.295
-0.305
-0.29
-0.28
-0.255
-0.26
-0.245
-0.235
-0.25
-0.235
-0.245
-0.24
-0.25
-0.255
-0.255
-0.235
-0.24
-0.23
-0.225
-0.23
-0.245
-0.255
-0.265
-0.275
-0.285
-0.3
-0.295
-0.29
-0.29
-0.28
-0.275
-0.27
-0.26
-0.26
-0.275
-0.29
-0.3
-0.31
-0.305
-0.295
-0.285
-0.275
-0.27
-0.26
-0.255
-0.26
-0.27
-0.28
-0.29
-0.305
-0.295
-0.285
-0.27
-0.265
-0.245
-0.24
-0.23
-0.235
-0.245
-0.25
-0.26
-0.275
-0.28
-0.27
-0.27
-0.27
-0.255
-0.265
-0.26
-0.245
-0.255
-0.255
-0.265
-0.27
-0.28
-0.29
-0.28
-0.28
-0.265
-0.265
-0.27
-0.26
-0.26
-0.27
-0.29
-0.295
-0.28
-0.265
-0.28
-0.265
-0.245
-0.23
-0.22
-0.21
-0.215
-0.21
-0.2
-0.185
-0.17
-0.15
-0.135
-0.12
-0.105
-0.095
-0.1
-0.1
-0.125
-0.125
-0.135
-0.135
-0.14
-0.155
-0.16
-0.185
-0.195
-0.225
-0.255
-0.27
-0.285
-0.315
-0.32
-0.325
-0.32
-0.315
-0.335
-0.34
-0.335
-0.335
-0.34
-0.345
-0.36
-0.365
-0.38
-0.37
-0.36
-0.35
-0.365
-0.355
-0.375
-0.375
-0.37
-0.335
-0.275
-0.16
0.02
0.245
0.535
0.845
1.135
1.36
1.505
1.5
1.345
1.075
0.72
0.365
0.05
-0.185
-0.325
-0.385
-0.395
-0.37
-0.33
-0.295
-0.3
-0.31
-0.34
-0.385
-0.41
-0.43
-0.44
-0.435
-0.435
-0.42
-0.42
-0.405
-0.405
-0.405
-0.41
-0.43
-0.445
-0.445
-0.45
-0.44
-0.445
-0.435
-0.405
-0.415
-0.395
-0.4
-0.41
-0.41
-0.425
-0.42
-0.43
-0.425
-0.415
-0.42
-0.395
-0.39
-0.38
-0.38
-0.385
-0.39
-0.4
-0.41
-0.4
-0.395
-0.385
-0.38
-0.37
-0.37
-0.37
-0.365
-0.365
-0.35
-0.36
-0.355
-0.36
-0.34
-0.335
-0.325
-0.31
-0.31
-0.32
-0.305
-0.3
-0.3
-0.295
-0.3
-0.29
-0.285
-0.28
-0.255
-0.255
-0.255
-0.28
-0.285
-0.285
-0.295
-0.305
-0.31
-0.305
-0.295
-0.28
-0.27
-0.255
-0.255
-0.265
-0.26
-0.265
-0.265
-0.255
-0.255
-0.255
-0.245
-0.235
-0.235
-0.21
-0.22
-0.225
-0.24
-0.25
-0.26
-0.27
-0.275
-0.28
-0.285
-0.285
-0.265
-0.265
-0.26
-0.26
-0.26
-0.285
-0.285
-0.29
-0.3
-0.31
-0.305
-0.29
-0.285
-0.27
-0.28
-0.265
-0.27
-0.27
-0.27
-0.28
-0.29
-0.3
-0.305
-0.305
-0.28
-0.26
-0.255
-0.26
-0.255
-0.27
-0.275
-0.265
-0.28
-0.29
-0.295
-0.29
-0.27
-0.265
-0.26
-0.26
-0.255
-0.255
-0.27
-0.27
-0.29
-0.31
-0.295
-0.29
-0.285
-0.285
-0.285
-0.275
-0.27
-0.275
-0.285
-0.295
-0.315
-0.31
-0.3
-0.305
-0.29
-0.275
-0.26
-0.26
-0.235
-0.23
-0.23
-0.235
-0.245
-0.235
-0.215
-0.18
-0.15
-0.13
-0.12
-0.1
-0.105
-0.13
-0.145
-0.165
-0.16
-0.155
-0.165
-0.17
-0.18
-0.2
-0.23
-0.26
-0.27
-0.31
-0.32
-0.34
-0.355
-0.36
-0.365
-0.375
-0.385
-0.385
-0.38
-0.385
-0.38
-0.395
-0.395
-0.41
-0.4
-0.4
-0.415
-0.4
-0.425
-0.42
-0.41
-0.33
-0.24
-0.105
0.09
0.34
0.63
0.93
1.21
1.39
1.435
1.33
1.07
0.73
0.375
0.06
-0.195
-0.365
-0.425
-0.45
-0.415
-0.38
-0.355
-0.345
-0.37
-0.4
-0.445
-0.48
-0.48
-0.475
-0.47
-0.465
-0.47
-0.455
-0.46
-0.44
-0.445
-0.455
-0.475
-0.49
-0.48
-0.49
-0.485
-0.485
-0.48
-0.47
-0.455
-0.435
-0.435
-0.44
-0.45
-0.465
-0.47
-0.465
-0.47
-0.46
-0.455
-0.445
-0.42
-0.42
-0.415
-0.415
-0.41
-0.415
-0.415
-0.415
-0.42
-0.415
-0.425
-0.41
-0.405
-0.385
-0.385
-0.37
-0.37
-0.37
-0.38
-0.38
-0.375
-0.37
-0.37
-0.375
-0.365
-0.365
-0.35
-0.35
-0.34
-0.34
-0.33
-0.335
-0.335
-0.315
-0.33
-0.325
-0.33
-0.32
-0.32
-0.32
-0.32
-0.32
-0.325
-0.33
-0.335
-0.32
-0.32
-0.32
-0.3
-0.28
-0.285
-0.275
-0.28
-0.285
-0.28
-0.29
-0.285
-0.28
-0.265
-0.285
-0.28
-0.28
-0.275
-0.29
-0.3
-0.315
-0.325
-0.335
-0.335
-0.325
-0.31
-0.31
-0.315
-0.31
-0.305
-0.305
-0.315
-0.315
-0.33
-0.335
-0.325
-0.33
-0.315
-0.31
-0.3
-0.305
-0.3
-0.3
-0.3
-0.305
-0.32
-0.33
-0.34
-0.345
-0.335
-0.325
-0.305
-0.3
-0.31
-0.305
-0.305
-0.31
-0.29
-0.295
-0.3
-0.305
-0.31
-0.315
-0.305
-0.315
-0.31
-0.305
-0.295
-0.3
-0.295
-0.3
-0.3
-0.295
-0.31
-0.3
-0.3
-0.295
-0.31
-0.305
-0.3
-0.315
-0.31
-0.315
-0.31
-0.305
-0.31
-0.3
-0.28
-0.265
-0.27
-0.265
-0.24
-0.235
-0.235
-0.23
-0.225
-0.2
-0.18
-0.155
-0.14
-0.13
-0.13
-0.13
-0.15
-0.16
-0.16
-0.17
-0.175
-0.18
-0.195
-0.22
-0.25
-0.265
-0.28
-0.29
-0.315
-0.33
-0.35
-0.36
-0.37
-0.37
-0.365
-0.375
-0.38
-0.37
-0.385
-0.385
-0.38
-0.395
-0.39
-0.39
-0.375
-0.385
-0.395
-0.42
-0.41
-0.375
-0.305
-0.205
-0.055
0.135
0.395
0.685
0.975
1.235
1.395
1.44
1.355
1.13
0.825
0.48
0.14
-0.13
-0.315
-0.405
-0.44
-0.435
-0.41
-0.38
-0.355
-0.365
-0.37
-0.385
-0.405
-0.435
-0.455
-0.47
-0.47
-0.47
-0.47
-0.475
-0.465
-0.44
-0.43
-0.435
-0.445
-0.455
-0.455
-0.46
-0.465
-0.47
-0.475
-0.47
-0.46
-0.455
-0.44
-0.45
-0.435
-0.435
-0.45
-0.45
-0.455
-0.455
-0.45
-0.445
-0.445
-0.43
-0.425
-0.415
-0.41
-0.415
-0.43
-0.43
-0.445
-0.415
-0.415
-0.415
-0.4
-0.41
-0.405
-0.395
-0.38
-0.385
-0.385
-0.39
-0.385
-0.37
-0.36
-0.355
-0.355
-0.355
-0.34
-0.35
-0.355
-0.34
-0.355
-0.335
-0.34
-0.34
-0.33
-0.33
-0.325
-0.33
-0.325
-0.32
-0.325
-0.325
-0.34
-0.35
-0.34
-0.335
-0.31
-0.3
-0.29
-0.28
-0.285
-0.29
-0.28
-0.285
-0.29
-0.305
-0.3
-0.285
-0.28
-0.28
-0.275
-0.28
-0.28
-0.295
-0.295
-0.3
-0.315
-0.325
-0.345
-0.35
-0.335
-0.335
-0.32
-0.3
-0.3
-0.31
-0.315
-0.315
-0.32
-0.335
-0.335
-0.345
-0.34
-0.34
-0.315
-0.305
-0.32
-0.31
-0.3
-0.3
-0.31
-0.32
-0.32
-0.325
-0.33
-0.325
-0.31
-0.295
-0.3
-0.3
-0.295
-0.3
-0.305
-0.3
-0.315
-0.305
-0.305
-0.305
-0.295
-0.285
-0.295
-0.3
-0.305
-0.3
-0.305
-0.3
-0.3
-0.295
-0.3
-0.295
-0.305
-0.29
-0.295
-0.295
-0.295
-0.3
-0.31
-0.315
-0.295
-0.315
-0.315
-0.295
-0.295
-0.295
-0.29
-0.285
-0.285
-0.275
-0.265
-0.26
-0.245
-0.24
-0.24
-0.22
-0.195
-0.165
-0.16
-0.135
-0.115
-0.13
-0.145
-0.145
-0.15
-0.15
-0.15
-0.14
-0.14
-0.145
-0.155
-0.195
-0.24
-0.28
-0.3
-0.315
-0.34
-0.34
-0.34
-0.335
-0.33
-0.335
-0.34
-0.355
-0.365
-0.38
-0.39
-0.405
-0.405
-0.39
-0.395
-0.39
-0.385
-0.385
-0.39
-0.395
-0.385
-0.325
-0.215
-0.05
0.185
0.495
0.815
1.135
1.37
1.495
1.43
1.175
0.82
0.4
0.02
-0.27
-0.45
-0.515
-0.525
-0.47
-0.425
-0.375
-0.355
-0.375
-0.4
-0.435
-0.475
-0.48
-0.48
-0.475
-0.455
-0.46
-0.45
-0.45
-0.445
-0.445
-0.45
-0.47
-0.48
-0.485
-0.485
-0.49
-0.485
-0.485
-0.48
-0.46
-0.46
-0.46
-0.455
-0.465
-0.475
-0.48
-0.485
-0.475
-0.475
-0.47
-0.445
-0.435
-0.43
-0.455
-0.445
-0.455
-0.445
-0.45
-0.46
-0.455
-0.445
-0.435
-0.42
-0.405
-0.4
-0.4
-0.37
-0.38
-0.385
-0.395
-0.39
-0.395
-0.395
-0.39
-0.385
-0.375
-0.375
-0.36
-0.345
-0.35
-0.35
-0.355
-0.37
-0.365
-0.375
-0.37
-0.37
-0.36
-0.355
-0.36
-0.34
-0.35
-0.355
-0.355
-0.355
-0.355
-0.355
-0.335
-0.325
-0.32
-0.305
-0.305
-0.295
-0.315
-0.31
-0.32
-0.33
-0.335
-0.335
-0.33
-0.345
-0.365
-0.365
-0.375
-0.395
-0.385
-0.38
-0.375
-0.38
-0.365
-0.37
-0.36
-0.36
-0.365
-0.375
-0.37
-0.36
-0.375
-0.375
-0.38
-0.375
-0.365
-0.365
-0.36
-0.35
-0.35
-0.34
-0.35
-0.355
-0.36
-0.365
-0.38
-0.385
-0.37
-0.365
-0.355
-0.345
-0.34
-0.335
-0.33
-0.325
-0.335
-0.35
-0.36
-0.36
-0.365
-0.37
-0.355
-0.335
-0.33
-0.33
-0.33
-0.33
-0.34
-0.345
-0.375
-0.375
-0.37
-0.375
-0.355
-0.345
-0.34
-0.335
-0.345
-0.34
-0.35
-0.355
-0.38
-0.365
-0.37
-0.365
-0.345
-0.325
-0.31
-0.3
-0.3
-0.295
-0.295
-0.285
-0.28
-0.27
-0.26
-0.235
-0.205
-0.18
-0.165
-0.16
-0.18
-0.195
-0.185
-0.19
-0.2
-0.2
-0.195
-0.22
-0.21
-0.23
-0.245
-0.275
-0.31
-0.335
-0.355
-0.37
-0.385
-0.39
-0.39
-0.39
-0.395
-0.405
-0.39
-0.39
-0.405
-0.41
-0.435
-0.44
-0.44
-0.435
-0.425
-0.435
-0.42
-0.425
-0.425
-0.425
-0.44
-0.405
-0.345
-0.24
-0.08
0.12
0.365
0.635
0.925
1.195
1.395
1.485
1.41
1.205
0.9
0.565
0.235
-0.04
-0.255
-0.385
-0.455
-0.465
-0.45
-0.43
-0.395
-0.395
-0.41
-0.44
-0.47
-0.5
-0.51
-0.515
-0.52
-0.51
-0.49
-0.49
-0.48
-0.49
-0.505
-0.51
-0.52
-0.53
-0.52
-0.52
-0.51
-0.515
-0.5
-0.49
-0.475
-0.49
