Lead II
-0.23
-0.245
-0.25
-0.245
-0.235
-0.225
-0.225
-0.235
-0.25
-0.25
-0.23
-0.225
-0.215
-0.235
-0.235
-0.23
-0.22
-0.205
-0.205
-0.235
-0.24
-0.225
-0.23
-0.225
-0.235
-0.225
-0.22
-0.185
-0.18
-0.17
-0.165
-0.18
-0.18
-0.165
-0.145
-0.14
-0.14
-0.17
-0.19
-0.19
-0.2
-0.19
-0.195
-0.22
-0.225
-0.215
-0.2
-0.205
-0.205
-0.22
-0.225
-0.21
-0.2
-0.195
-0.195
-0.21
-0.205
-0.205
-0.195
-0.18
-0.19
-0.205
-0.19
-0.175
-0.165
-0.145
-0.145
-0.13
-0.11
-0.085
-0.04
-0.005
0.025
0.1
0.2
0.32
0.455
0.58
0.7
0.8
0.9
1.02
1.135
1.175
1.08
0.95
0.76
0.58
0.43
0.285
0.125
0.005
-0.06
-0.08
-0.075
-0.07
-0.075
-0.1
-0.14
-0.145
-0.145
-0.155
-0.195
-0.22
-0.21
-0.215
-0.2
-0.22
-0.22
-0.24
-0.245
-0.245
-0.24
-0.235
-0.245
-0.25
-0.27
-0.26
-0.245
-0.235
-0.24
-0.26
-0.27
-0.255
-0.245
-0.235
-0.255
-0.255
-0.265
-0.255
-0.25
-0.225
-0.23
-0.24
-0.255
-0.24
-0.225
-0.21
-0.225
-0.23
-0.22
-0.215
-0.195
-0.19
-0.185
-0.2
-0.195
-0.17
-0.155
-0.15
-0.15
-0.145
-0.155
-0.125
-0.115
-0.095
-0.095
-0.09
-0.095
-0.055
-0.04
-0.015
-0.02
-0.035
-0.02
0.0
0.045
0.05
0.065
0.06
0.065
0.07
0.09
0.11
0.105
0.115
0.1
0.13
0.13
0.16
0.14
0.135
0.13
0.12
0.125
0.11
0.08
0.05
0.025
0.01
0.0
-0.015
-0.05
-0.065
-0.09
-0.105
-0.115
-0.125
-0.145
-0.165
-0.2
-0.195
-0.175
-0.18
-0.2
-0.22
-0.22
-0.245
-0.22
-0.215
-0.23
-0.235
-0.245
-0.245
-0.23
-0.22
-0.24
-0.25
-0.26
-0.245
-0.245
-0.235
-0.235
-0.24
-0.25
-0.235
-0.235
-0.215
-0.225
-0.24
-0.24
-0.25
-0.22
-0.22
-0.225
-0.235
-0.245
-0.24
-0.225
-0.225
-0.235
-0.25
-0.25
-0.245
-0.235
-0.225
-0.235
-0.255
-0.255
-0.25
-0.235
-0.22
-0.23
-0.245
-0.245
-0.235
-0.23
-0.23
-0.225
-0.24
-0.235
-0.23
-0.22
-0.225
-0.22
-0.24
-0.25
-0.23
-0.215
-0.21
-0.225
-0.24
-0.245
-0.24
-0.215
-0.23
-0.225
-0.24
-0.235
-0.235
-0.22
-0.225
-0.235
-0.235
-0.245
-0.24
-0.22
-0.21
-0.215
-0.23
-0.235
-0.245
-0.22
-0.21
-0.22
-0.245
-0.25
-0.235
-0.22
-0.23
-0.225
-0.23
-0.24
-0.245
-0.22
-0.225
-0.23
-0.245
-0.255
-0.245
-0.235
-0.235
-0.23
-0.25
-0.26
-0.25
-0.23
-0.235
-0.24
-0.26
-0.265
-0.255
-0.25
-0.245
-0.245
-0.26
-0.265
-0.265
-0.25
-0.25
-0.24
-0.265
-0.275
-0.27
-0.26
-0.255
-0.25
-0.265
-0.27
-0.25
-0.245
-0.235
-0.245
-0.26
-0.265
-0.255
-0.245
-0.235
-0.24
-0.255
-0.255
-0.25
-0.235
-0.245
-0.25
-0.25
-0.26
-0.25
-0.225
-0.225
-0.235
-0.245
-0.255
-0.24
-0.22
-0.22
-0.235
-0.255
-0.245
-0.24
-0.225
-0.21
-0.22
-0.235
-0.24
-0.23
-0.205
-0.2
-0.205
-0.205
-0.22
-0.205
-0.195
-0.2
-0.205
-0.21
-0.21
-0.215
-0.2
-0.195
-0.2
-0.21
-0.23
-0.215
-0.205
-0.19
-0.2
-0.22
-0.22
-0.215
-0.2
-0.195
-0.195
-0.205
-0.215
-0.215
-0.185
-0.18
-0.185
-0.205
-0.2
-0.215
-0.18
-0.18
-0.195
-0.205
-0.2
-0.2
-0.19
-0.19
-0.19
-0.2
-0.2
-0.195
-0.15
-0.125
-0.15
-0.15
-0.165
-0.14
-0.13
-0.11
-0.14
-0.145
-0.15
-0.14
-0.13
-0.145
-0.15
-0.175
-0.195
-0.19
-0.175
-0.165
-0.17
-0.19
-0.19
-0.18
-0.165
-0.16
-0.16
-0.18
-0.185
-0.175
-0.165
-0.15
-0.155
-0.155
-0.155
-0.14
-0.13
-0.11
-0.115
-0.12
-0.105
-0.065
-0.035
-0.01
0.015
0.05
0.14
0.255
0.39
0.495
0.615
0.715
0.82
0.955
1.08
1.18
1.185
1.12
0.98
0.815
0.65
0.48
0.315
0.19
0.07
-0.005
-0.025
-0.01
-0.035
-0.055
-0.08
-0.1
-0.09
-0.095
-0.125
-0.15
-0.16
-0.175
-0.175
-0.17
-0.175
-0.19
-0.21
-0.195
-0.19
-0.185
-0.195
-0.2
-0.22
-0.215
-0.2
-0.185
-0.19
-0.205
-0.215
-0.205
-0.195
-0.18
-0.19
-0.19
-0.205
-0.19
-0.175
-0.165
-0.17
-0.19
-0.185
-0.175
-0.16
-0.145
-0.16
-0.185
-0.18
-0.165
-0.135
-0.13
-0.135
-0.14
-0.135
-0.125
-0.105
-0.09
-0.095
-0.1
-0.135
-0.105
-0.075
-0.07
-0.05
-0.065
-0.055
-0.05
-0.025
-0.005
-0.005
-0.01
-0.01
0.015
0.035
0.07
0.06
0.055
0.065
0.075
0.105
0.12
0.115
0.115
0.11
0.115
0.15
0.16
0.16
0.145
0.155
0.16
0.155
0.165
0.15
0.12
0.105
0.1
0.095
0.08
0.055
0.03
0.005
-0.015
-0.015
-0.03
-0.05
-0.085
-0.105
-0.1
-0.12
-0.115
-0.14
-0.175
-0.2
-0.185
-0.175
-0.18
-0.18
-0.195
-0.21
-0.205
-0.195
-0.21
-0.21
-0.215
-0.23
-0.21
-0.21
-0.195
-0.2
-0.21
-0.225
-0.215
-0.2
-0.195
-0.195
-0.21
-0.225
-0.215
-0.195
-0.195
-0.195
-0.205
-0.215
-0.2
-0.19
-0.18
-0.185
-0.2
-0.205
-0.21
-0.2
-0.185
-0.21
-0.215
-0.21
-0.195
-0.18
-0.18
-0.175
-0.205
-0.2
-0.2
-0.185
-0.18
-0.185
-0.215
-0.205
-0.22
-0.19
-0.18
-0.185
-0.205
-0.21
-0.205
-0.19
-0.18
-0.195
-0.205
-0.215
-0.205
-0.19
-0.195
-0.2
-0.225
-0.22
-0.225
-0.2
-0.205
-0.205
-0.21
-0.23
-0.205
-0.195
-0.185
-0.19
-0.215
-0.215
-0.205
-0.19
-0.185
-0.2
-0.215
-0.225
-0.22
-0.195
-0.195
-0.19
-0.22
-0.22
-0.215
-0.2
-0.205
-0.215
-0.22
-0.23
-0.225
-0.21
-0.205
-0.21
-0.22
-0.225
-0.225
-0.21
-0.205
-0.21
-0.235
-0.23
-0.225
-0.22
-0.205
-0.21
-0.215
-0.225
-0.23
-0.205
-0.2
-0.215
-0.225
-0.23
-0.225
-0.205
-0.21
-0.205
-0.23
-0.23
-0.225
-0.21
-0.205
-0.215
-0.215
-0.23
-0.21
-0.195
-0.19
-0.205
-0.21
-0.225
-0.21
-0.2
-0.19
-0.2
-0.215
-0.225
-0.205
-0.19
-0.185
-0.2
-0.2
-0.215
-0.21
-0.21
-0.19
-0.2
-0.21
-0.225
-0.21
-0.2
-0.2
-0.195
-0.21
-0.215
-0.205
-0.185
-0.185
-0.185
-0.21
-0.2
-0.195
-0.185
-0.17
-0.175
-0.2
-0.185
-0.18
-0.175
-0.165
-0.17
-0.185
-0.18
-0.18
-0.155
-0.16
-0.165
-0.165
-0.185
-0.165
-0.14
-0.145
-0.155
-0.155
-0.18
-0.16
-0.155
-0.155
-0.155
-0.155
-0.155
-0.145
-0.135
-0.145
-0.145
-0.16
-0.17
-0.145
-0.14
-0.14
-0.125
-0.145
-0.145
-0.145
-0.12
-0.115
-0.13
-0.14
-0.14
-0.15
-0.145
-0.14
-0.13
-0.155
-0.145
-0.12
-0.095
-0.095
-0.09
-0.115
-0.1
-0.085
-0.065
-0.06
-0.06
-0.07
-0.095
-0.105
-0.08
-0.08
-0.1
-0.12
-0.13
-0.12
-0.12
-0.11
-0.12
-0.13
-0.15
-0.13
-0.115
-0.1
-0.11
-0.12
-0.14
-0.125
-0.105
-0.09
-0.1
-0.1
-0.105
-0.09
-0.075
-0.065
-0.085
-0.09
-0.075
-0.06
-0.03
0.005
0.015
0.015
0.03
0.095
0.165
0.255
0.34
0.425
0.515
0.66
0.77
0.875
0.97
1.055
1.14
1.175
1.135
1.04
0.895
0.725
0.555
0.405
0.285
0.2
0.1
0.025
0.01
0.02
0.04
0.03
0.005
-0.03
-0.055
-0.07
-0.07
-0.08
-0.1
-0.11
-0.125
-0.115
-0.105
-0.11
-0.125
-0.135
-0.14
-0.145
-0.12
-0.115
-0.145
-0.15
-0.15
-0.155
-0.13
-0.13
-0.14
-0.15
-0.15
-0.14
-0.125
-0.125
-0.135
-0.14
-0.15
-0.13
-0.115
-0.11
-0.12
-0.135
-0.135
-0.13
-0.12
-0.1
-0.11
-0.13
-0.12
-0.12
-0.09
-0.085
-0.09
-0.1
-0.09
-0.075
-0.07
-0.055
-0.05
-0.055
-0.065
-0.05
-0.02
-0.025
-0.025
-0.035
-0.03
-0.01
0.01
0.03
0.02
0.025
0.03
0.055
0.065
0.08
0.09
0.085
0.095
0.105
0.13
0.14
0.15
0.145
0.135
0.155
0.185
0.19
0.185
0.19
0.175
0.205
0.215
0.23
0.225
0.2
0.205
0.215
0.225
0.215
0.2
0.18
0.155
0.16
0.15
0.15
0.12
0.085
0.065
0.05
0.055
0.03
0.01
-0.03
-0.035
-0.05
-0.045
-0.06
-0.075
-0.095
-0.115
-0.12
-0.105
-0.11
-0.13
-0.14
-0.155
-0.145
-0.145
-0.155
-0.16
-0.175
-0.165
-0.175
-0.165
-0.15
-0.16
-0.17
-0.18
-0.175
-0.165
-0.155
-0.175
-0.17
-0.18
-0.18
-0.16
-0.16
-0.17
-0.175
-0.18
-0.18
-0.16
-0.16
-0.17
-0.185
-0.18
-0.175
-0.17
-0.165
-0.17
-0.18
-0.18
-0.175
-0.16
-0.16
-0.175
-0.195
-0.185
-0.195
-0.165
-0.155
-0.16
-0.18
-0.18
-0.175
-0.17
-0.16
-0.175
-0.185
-0.185
-0.175
-0.16
-0.16
-0.175
-0.185
-0.19
-0.195
-0.19
-0.16
-0.17
-0.18
-0.2
-0.175
-0.18
-0.17
-0.17
-0.185
-0.19
-0.18
-0.165
-0.165
-0.165
-0.185
-0.185
-0.175
-0.17
-0.155
-0.18
-0.18
-0.185
-0.175
-0.165
-0.165
-0.17
-0.18
-0.185
-0.17
-0.155
-0.155
-0.16
-0.175
-0.19
-0.185
-0.155
-0.155
-0.17
-0.165
-0.175
-0.16
-0.145
-0.15
-0.145
-0.165
-0.175
-0.155
-0.145
-0.135
-0.155
-0.165
-0.16
-0.15
-0.145
-0.145
-0.155
-0.17
-0.185
-0.17
-0.145
-0.145
-0.15
-0.165
-0.175
-0.155
-0.15
-0.145
-0.155
-0.16
-0.17
-0.16
-0.14
-0.14
-0.15
-0.16
-0.17
-0.165
-0.15
-0.145
-0.155
-0.155
-0.165
-0.16
-0.145
-0.125
-0.13
-0.155
-0.16
-0.155
-0.14
-0.125
-0.145
-0.155
-0.16
-0.155
-0.135
-0.14
-0.14
-0.15
-0.165
-0.155
-0.135
-0.135
-0.145
-0.15
-0.165
-0.15
-0.145
-0.13
-0.135
-0.16
-0.16
-0.155
-0.145
-0.135
-0.14
-0.145
-0.16
-0.15
-0.165
-0.15
-0.15
-0.16
-0.165
-0.165
-0.14
-0.14
-0.14
-0.155
-0.16
-0.15
-0.145
-0.145
-0.145
-0.16
-0.165
-0.155
-0.145
-0.135
-0.135
-0.15
-0.165
-0.15
-0.14
-0.125
-0.13
-0.155
-0.175
-0.135
-0.135
-0.125
-0.14
-0.145
-0.17
-0.145
-0.12
-0.115
-0.12
-0.135
-0.14
-0.13
-0.12
-0.115
-0.115
-0.135
-0.14
-0.125
-0.11
-0.11
-0.11
-0.14
-0.15
-0.155
-0.125
-0.12
-0.12
-0.12
-0.14
-0.105
-0.07
-0.05
-0.07
-0.08
-0.09
-0.075
-0.06
-0.05
-0.06
-0.09
-0.11
-0.09
-0.075
-0.085
-0.09
-0.11
-0.125
-0.12
-0.11
-0.13
-0.13
-0.145
-0.15
-0.145
-0.12
-0.11
-0.115
-0.12
-0.135
-0.125
-0.12
-0.115
-0.11
-0.125
-0.12
-0.115
-0.105
-0.09
-0.1
-0.115
-0.11
-0.08
-0.045
-0.025
-0.015
-0.025
-0.005
0.03
0.11
0.175
0.265
0.35
0.43
0.55
0.67
0.775
0.865
0.955
1.055
1.105
1.09
0.99
0.84
0.65
0.465
0.345
0.23
0.115
0.005
-0.055
-0.07
-0.045
-0.025
-0.03
-0.06
-0.08
-0.105
-0.11
-0.105
-0.11
-0.13
-0.145
-0.16
-0.16
-0.15
-0.155
-0.16
-0.175
-0.185
-0.185
-0.165
-0.175
-0.19
-0.19
-0.2
-0.195
-0.19
-0.185
-0.185
-0.195
-0.205
-0.185
-0.185
-0.17
-0.19
-0.2
-0.215
-0.185
-0.175
-0.15
-0.165
-0.18
-0.185
-0.175
-0.18
-0.16
-0.165
-0.175
-0.175
-0.15
-0.13
-0.125
-0.13
-0.135
-0.155
-0.135
-0.115
-0.1
-0.11
-0.115
-0.135
-0.1
-0.075
-0.065
-0.07
-0.075
-0.075
-0.075
-0.04
-0.04
-0.03
-0.035
-0.03
-0.01
0.02
0.035
0.035
0.04
0.025
0.05
0.085
0.09
0.095
0.095
0.095
0.115
0.13
0.145
0.155
0.155
0.15
0.16
0.18
0.19
0.18
0.165
0.145
0.155
0.17
0.14
0.115
0.105
0.09
0.075
0.08
0.055
0.045
0.015
-0.01
-0.025
-0.03
-0.05
-0.065
-0.09
-0.115
-0.12
-0.11
-0.12
-0.135
-0.15
-0.165
-0.15
-0.145
-0.15
-0.15
-0.18
-0.175
-0.175
-0.16
-0.155
-0.17
-0.18
-0.18
-0.165
-0.16
-0.14
-0.155
-0.18
-0.175
-0.18
-0.15
-0.15
-0.155
-0.165
-0.175
-0.17
-0.15
-0.145
-0.16
-0.175
-0.175
-0.18
-0.155
-0.16
-0.16
-0.17
-0.18
-0.175
-0.165
-0.16
-0.16
-0.165
-0.18
-0.18
-0.155
-0.16
-0.155
-0.17
-0.18
-0.165
-0.155
-0.14
-0.155
-0.165
-0.185
-0.175
-0.15
-0.145
-0.16
-0.175
-0.18
-0.16
-0.155
-0.145
-0.165
-0.175
-0.195
-0.175
-0.175
-0.18
-0.17
-0.19
-0.19
-0.19
-0.185
-0.185
-0.19
-0.205
-0.215
-0.205
-0.18
-0.185
-0.18
-0.205
-0.205
-0.2
-0.2
-0.195
-0.185
-0.2
-0.215
-0.215
-0.19
-0.185
-0.19
-0.21
-0.21
-0.195
-0.185
-0.175
-0.195
-0.195
-0.205
-0.2
-0.19
-0.175
-0.195
-0.21
-0.21
-0.205
-0.185
-0.185
-0.195
-0.195
-0.225
-0.205
-0.195
-0.175
-0.2
-0.195
-0.22
-0.195
-0.185
-0.175
-0.18
-0.2
-0.205
-0.21
-0.2
-0.17
-0.175
-0.2
-0.19
-0.185
-0.17
-0.16
-0.17
-0.2
-0.215
-0.19
-0.175
-0.17
-0.175
-0.19
-0.195
-0.18
-0.165
-0.165
-0.175
-0.18
-0.185
-0.185
-0.165
-0.17
-0.175
-0.175
-0.185
-0.195
-0.165
-0.16
-0.165
-0.175
-0.18
-0.175
-0.17
-0.16
-0.155
-0.185
-0.185
-0.185
-0.175
-0.145
-0.18
-0.175
-0.19
-0.16
-0.17
-0.16
-0.16
-0.185
-0.195
-0.18
-0.155
-0.16
-0.16
-0.185
-0.185
-0.17
-0.16
-0.15
-0.17
-0.18
-0.18
-0.175
-0.16
-0.155
-0.17
-0.185
-0.175
-0.18
-0.17
-0.145
-0.155
-0.16
-0.17
-0.16
-0.15
-0.155
-0.16
-0.185
-0.18
-0.16
-0.145
-0.15
-0.155
-0.175
-0.17
-0.155
-0.15
-0.135
-0.135
-0.16
-0.15
-0.14
-0.14
-0.13
-0.145
-0.155
-0.165
-0.155
-0.14
-0.14
-0.15
-0.14
-0.14
-0.12
-0.095
-0.085
-0.08
-0.085
-0.105
-0.095
-0.085
-0.07
-0.095
-0.125
-0.105
-0.105
-0.105
-0.11
-0.115
-0.15
-0.14
-0.14
-0.12
-0.115
-0.12
-0.155
-0.16
-0.155
-0.135
-0.135
-0.145
-0.155
-0.145
-0.135
-0.13
-0.125
-0.12
-0.135
-0.145
-0.135
-0.12
-0.115
-0.11
-0.12
-0.105
-0.06
-0.025
-0.015
-0.005
0.015
0.08
0.185
0.3
0.415
0.525
0.635
0.735
0.865
0.995
1.12
1.17
1.17
1.075
0.95
0.81
0.61
0.43
0.265
0.11
0.01
-0.045
-0.05
-0.04
-0.05
-0.065
-0.065
-0.085
-0.1
-0.115
-0.135
-0.16
-0.14
-0.145
-0.135
-0.155
-0.185
-0.175
-0.165
-0.17
-0.16
-0.165
-0.205
-0.195
-0.195
-0.17
-0.16
-0.18
-0.185
-0.195
-0.185
-0.17
-0.165
-0.17
-0.185
-0.18
-0.175
-0.155
-0.155
-0.155
-0.18
-0.18
-0.17
-0.15
-0.15
-0.15
-0.16
-0.16
-0.145
-0.13
-0.125
-0.12
-0.135
-0.145
-0.135
-0.105
-0.095
-0.105
-0.105
-0.095
-0.085
-0.065
-0.055
-0.06
-0.06
-0.07
-0.04
-0.03
-0.03
-0.03
-0.025
-0.02
-0.015
0.03
0.045
0.055
0.045
0.05
0.045
0.085
0.095
0.1
0.09
0.09
0.115
0.13
0.15
0.14
0.15
0.145
0.165
0.18
0.18
0.17
0.16
0.15
0.145
0.155
0.14
0.115
0.085
0.06
0.05
0.045
0.025
0.005
-0.02
-0.045
-0.05
-0.06
-0.065
-0.105
-0.125
-0.135
-0.13
-0.13
-0.13
-0.145
-0.17
-0.18
-0.19
-0.195
-0.185
-0.19
-0.205
-0.22
-0.21
-0.18
-0.185
-0.185
-0.205
-0.205
-0.21
-0.185
-0.18
-0.19
-0.2
-0.22
-0.195
-0.185
-0.185
-0.19
-0.2
-0.205
-0.19
-0.185
-0.18
-0.19
-0.2
-0.205
-0.205
-0.19
-0.185
-0.19
-0.205
-0.2
-0.195
-0.185
-0.175
-0.19
-0.21
-0.205
-0.21
-0.2
-0.185
-0.225
-0.22
-0.235
-0.205
-0.19
-0.19
-0.215
-0.215
-0.225
-0.23
-0.21
-0.215
-0.23
-0.25
-0.25
-0.235
-0.22
-0.205
-0.22
-0.22
-0.245
-0.215
-0.2
-0.195
-0.205
-0.215
-0.225
-0.225
-0.195
-0.19
-0.2
-0.215
-0.23
-0.215
-0.2
-0.18
-0.19
-0.21
-0.205
-0.21
-0.195
-0.18
-0.19
-0.21
-0.215
-0.2
-0.195
-0.18
-0.19
-0.195
-0.195
-0.19
-0.17
-0.165
-0.175
-0.19
-0.195
-0.185
-0.165
-0.16
-0.18
-0.185
-0.2
-0.195
-0.165
-0.16
-0.17
-0.195
-0.205
-0.2
-0.18
-0.165
-0.175
-0.195
-0.205
-0.195
-0.175
-0.175
-0.175
-0.195
-0.21
-0.2
-0.175
-0.175
-0.185
-0.215
-0.215
-0.205
-0.18
-0.185
-0.18
-0.195
-0.21
-0.195
-0.185
-0.185
-0.185
-0.2
-0.205
-0.205
-0.195
-0.18
-0.19
-0.205
-0.215
-0.21
-0.21
-0.175
-0.19
-0.205
-0.21
-0.2
-0.19
-0.185
-0.185
-0.195
-0.2
-0.19
-0.195
-0.175
-0.19
-0.195
-0.195
-0.185
-0.175
-0.175
-0.195
-0.2
-0.21
-0.2
-0.18
-0.165
-0.17
-0.185
-0.19
-0.175
-0.155
-0.16
-0.17
-0.18
-0.185
-0.17
-0.17
-0.16
-0.155
-0.165
-0.17
-0.165
-0.14
-0.135
-0.145
-0.16
-0.165
-0.15
-0.155
-0.145
-0.15
-0.145
-0.16
-0.145
-0.13
-0.13
-0.145
-0.15
-0.165
-0.15
-0.145
-0.14
-0.145
-0.16
-0.18
-0.145
-0.125
-0.105
-0.095
-0.1
-0.11
-0.105
-0.085
-0.08
-0.1
-0.115
-0.115
-0.105
-0.11
-0.105
-0.115
-0.145
-0.155
-0.145
-0.16
-0.145
-0.15
-0.15
-0.155
-0.15
-0.145
-0.135
-0.155
-0.16
-0.165
-0.145
-0.14
-0.13
-0.15
-0.155
-0.155
-0.145
-0.115
-0.095
-0.085
-0.09
-0.075
-0.045
-0.01
0.035
0.06
0.12
0.215
0.325
0.455
0.56
0.67
0.76
0.875
0.99
1.095
1.115
1.03
0.895
0.7
0.53
0.385
0.245
0.12
0.02
-0.035
-0.03
-0.015
-0.015
-0.04
-0.075
-0.095
-0.085
-0.11
-0.115
-0.14
-0.155
-0.17
-0.17
-0.155
-0.16
-0.17
-0.18
-0.19
-0.185
-0.175
-0.155
-0.17
-0.185
-0.185
-0.185
-0.165
-0.155
-0.165
-0.185
-0.19
-0.185
-0.17
-0.165
-0.17
-0.175
-0.19
-0.18
-0.16
-0.155
-0.155
-0.165
-0.17
-0.16
-0.14
-0.14
-0.14
-0.16
-0.16
-0.14
-0.14
-0.115
-0.115
-0.125
-0.13
-0.1
-0.09
-0.075
-0.08
-0.09
-0.09
-0.08
-0.05
-0.04
-0.035
-0.045
-0.035
-0.015
0.0
0.01
0.01
0.01
0.015
0.02
0.075
0.075
0.075
0.06
0.075
0.095
0.095
0.12
0.12
0.115
0.12
0.135
0.145
0.14
0.135
0.125
0.115
0.105
0.115
0.105
0.08
0.045
0.04
0.02
0.03
-0.01
-0.03
-0.055
-0.085
-0.09
-0.09
-0.095
-0.13
-0.145
-0.18
-0.165
-0.16
-0.165
-0.175
-0.2
-0.21
-0.21
-0.21
-0.205
-0.215
-0.245
-0.255
-0.25
-0.23
-0.215
-0.225
-0.25
-0.255
-0.25
-0.23
-0.23
-0.235
-0.255
-0.265
-0.25
-0.235
-0.225
-0.235
-0.23
-0.265
-0.25
-0.225
-0.22
-0.23
-0.25
-0.255
-0.255
-0.23
-0.225
-0.235
-0.255
-0.255
-0.245
-0.235
-0.235
-0.24
-0.26
-0.25
-0.25
-0.225
-0.225
-0.245
-0.25
-0.26
-0.245
-0.23
-0.235
-0.25
-0.25
-0.25
-0.26
-0.24
-0.235
-0.23
-0.25
-0.26
-0.265
-0.235
-0.225
-0.235
-0.265
-0.26
-0.25
-0.25
-0.23
-0.245
-0.265
-0.26
-0.255
-0.25
-0.24
-0.25
-0.255
-0.265
-0.28
-0.24
-0.245
-0.255
-0.285
-0.28
-0.275
-0.27
-0.255
-0.255
-0.26
-0.27
-0.265
-0.255
-0.255
-0.285
-0.275
-0.275
-0.285
-0.255
-0.26
-0.275
-0.31
-0.28
-0.275
-0.255
-0.26
-0.275
-0.295
-0.285
-0.27
-0.27
-0.27
-0.265
-0.285
-0.295
-0.285
-0.285
-0.265
-0.285
-0.29
-0.3
-0.29
-0.275
-0.265
-0.275
-0.295
-0.295
-0.28
-0.26
-0.26
-0.255
-0.28
-0.27
-0.265
-0.26
-0.245
-0.25
-0.275
-0.27
-0.265
-0.245
-0.245
-0.255
-0.27
-0.265
-0.27
-0.25
-0.25
-0.26
-0.255
-0.25
-0.255
-0.235
-0.22
-0.25
-0.26
-0.26
-0.245
-0.22
-0.215
-0.23
-0.255
-0.26
-0.235
-0.225
-0.22
-0.225
-0.245
-0.245
-0.245
-0.225
-0.225
-0.235
-0.25
-0.26
-0.25
-0.225
-0.23
-0.23
-0.24
-0.25
-0.235
-0.21
-0.21
-0.225
-0.235
-0.245
-0.23
-0.215
-0.23
-0.215
-0.24
-0.25
-0.24
-0.215
-0.21
-0.225
-0.235
-0.245
-0.22
-0.21
-0.205
-0.22
-0.23
-0.235
-0.215
-0.205
-0.21
-0.22
-0.235
-0.24
-0.235
-0.215
-0.215
-0.225
-0.24
-0.245
-0.23
-0.2
-0.195
-0.165
-0.175
-0.165
-0.165
-0.15
-0.14
-0.155
-0.17
-0.175
-0.195
-0.175
-0.18
-0.195
-0.2
-0.21
-0.21
-0.205
-0.2
-0.21
-0.23
-0.23
-0.23
-0.22
-0.225
-0.225
-0.245
-0.23
-0.215
-0.215
-0.215
-0.23
-0.22
-0.225
-0.215
-0.2
-0.2
-0.195
-0.21
-0.195
-0.17
-0.14
-0.11
-0.09
-0.085
-0.05
0.03
0.13
0.245
0.355
0.455
0.58
0.715
0.835
0.96
1.065
1.09
1.035
0.91
0.745
0.57
0.38
0.22
0.08
-0.035
-0.125
-0.14
-0.14
-0.155
-0.155
-0.17
-0.16
-0.165
-0.19
-0.235
-0.24
-0.25
-0.225
-0.22
-0.24
-0.26
-0.265
-0.275
-0.255
-0.265
-0.285
-0.275
-0.28
-0.27
-0.26
-0.25
-0.265
-0.27
-0.28
-0.285
-0.25
-0.255
-0.25
-0.285
-0.28
-0.28
-0.25
-0.25
-0.25
-0.265
-0.255
-0.245
-0.235
-0.23
-0.245
-0.25
-0.235
-0.235
-0.215
-0.21
-0.215
-0.205
-0.215
-0.205
-0.185
-0.16
-0.16
-0.175
-0.18
-0.16
-0.14
-0.145
-0.135
-0.135
-0.135
-0.135
-0.115
-0.095
-0.09
-0.095
-0.09
-0.07
-0.04
-0.035
-0.02
-0.04
-0.015
0.0
0.02
0.03
0.035
0.01
0.03
0.055
0.075
0.095
0.085
0.07
0.095
0.1
0.115
0.12
0.1
0.095
0.09
0.09
0.09
0.075
0.05
0.025
-0.01
-0.015
-0.025
-0.035
-0.065
-0.09
-0.12
-0.125
-0.135
-0.14
-0.165
-0.185
-0.2
-0.195
-0.195
-0.19
-0.21
-0.23
-0.235
-0.24
-0.23
-0.225
-0.23
-0.255
-0.255
-0.26
-0.24
-0.24
-0.245
-0.25
-0.25
-0.255
-0.23
-0.245
-0.235
-0.25
-0.26
-0.235
-0.23
-0.23
-0.24
-0.26
-0.255
-0.245
-0.225
-0.22
-0.23
-0.25
-0.265
-0.245
-0.215
-0.225
-0.22
-0.24
-0.255
-0.24
-0.22
-0.22
-0.23
-0.25
-0.245
-0.24
-0.235
-0.23
-0.25
-0.255
-0.245
-0.24
-0.23
-0.245
-0.245
-0.26
-0.255
-0.245
-0.245
-0.24
-0.25
-0.26
-0.26
-0.25
-0.245
-0.255
-0.255
-0.275
-0.28
-0.28
-0.26
-0.26
-0.27
-0.28
-0.275
-0.265
-0.26
-0.255
-0.26
-0.29
-0.28
-0.28
-0.27
-0.25
-0.26
-0.275
-0.28
-0.265
-0.26
-0.26
-0.255
-0.29
-0.26
-0.265
-0.26
-0.255
-0.25
-0.27
-0.27
-0.27
-0.245
-0.24
-0.24
-0.265
-0.285
-0.27
-0.255
-0.245
-0.25
-0.26
-0.265
-0.27
-0.245
-0.24
-0.245
-0.255
-0.27
-0.255
-0.235
-0.235
-0.25
-0.255
-0.265
-0.26
-0.245
-0.235
-0.245
-0.26
-0.265
-0.255
-0.235
-0.235
-0.24
-0.25
-0.26
-0.245
-0.24
-0.245
-0.235
-0.255
-0.25
-0.235
-0.23
-0.24
-0.245
-0.25
-0.245
-0.235
-0.215
-0.21
-0.23
-0.24
-0.245
-0.225
-0.215
-0.23
-0.245
-0.235
-0.25
-0.225
-0.22
-0.21
-0.22
-0.23
-0.24
-0.265
-0.225
-0.215
-0.215
-0.235
-0.235
-0.22
-0.22
-0.225
-0.23
-0.235
-0.24
-0.235
-0.215
-0.22
-0.23
-0.225
-0.22
-0.215
-0.22
-0.21
-0.225
-0.22
-0.23
-0.22
-0.205
-0.2
-0.2
-0.24
-0.235
-0.225
-0.215
-0.205
-0.21
-0.235
-0.225
-0.21
-0.2
-0.19
-0.205
-0.21
-0.21
-0.205
-0.185
-0.18
-0.195
-0.215
-0.205
-0.195
-0.185
-0.175
-0.195
-0.2
-0.215
-0.21
-0.195
-0.19
-0.195
-0.225
-0.205
-0.16
-0.145
-0.13
-0.14
-0.15
-0.16
-0.15
-0.13
-0.13
-0.145
-0.16
-0.16
-0.165
-0.155
-0.155
-0.17
-0.185
-0.2
-0.2
-0.19
-0.18
-0.18
-0.205
-0.215
-0.185
-0.175
-0.175
-0.18
-0.19
-0.2
-0.205
-0.18
-0.18
-0.18
-0.185
-0.195
-0.18
-0.15
-0.15
-0.14
-0.155
-0.155
-0.135
-0.1
-0.075
-0.06
-0.05
-0.02
0.045
0.135
0.245
0.335
0.425
0.525
0.665
0.76
0.87
0.98
1.075
1.12
1.095
0.995
0.84
0.645
0.46
0.295
0.155
0.045
-0.035
-0.1
-0.12
-0.125
-0.095
-0.09
-0.1
-0.125
-0.165
-0.185
-0.165
-0.15
-0.16
-0.175
-0.195
-0.215
-0.195
-0.185
-0.18
-0.2
-0.22
-0.225
-0.225
-0.21
-0.195
-0.21
-0.235
-0.225
-0.215
-0.195
-0.205
-0.205
-0.22
-0.225
-0.225
-0.215
-0.205
-0.21
-0.23
-0.205
-0.2
-0.185
-0.2
-0.21
-0.225
-0.225
-0.2
-0.175
-0.155
-0.185
-0.195
-0.185
-0.18
-0.175
-0.165
-0.16
-0.16
-0.16
-0.145
-0.13
-0.12
-0.13
-0.135
-0.13
-0.12
-0.11
-0.095
-0.095
-0.1
-0.1
-0.085
-0.05
-0.03
-0.035
-0.04
-0.04
-0.03
0.0
0.01
0.01
0.005
0.02
0.02
0.05
0.065
0.05
0.05
0.06
0.07
0.1
0.115
0.11
0.09
0.095
0.1
0.13
0.135
0.125
0.115
0.105
0.105
0.085
0.08
0.07
0.04
0.015
-0.005
-0.015
-0.025
-0.06
-0.065
-0.095
-0.105
-0.105
-0.12
-0.15
-0.17
-0.195
-0.195
-0.175
-0.18
-0.185
-0.205
-0.225
-0.225
-0.215
-0.215
-0.23
-0.235
-0.245
-0.235
-0.24
-0.24
-0.24
-0.25
-0.26
-0.24
-0.225
-0.215
-0.225
-0.235
-0.235
-0.235
-0.21
-0.21
-0.21
-0.23
-0.23
-0.235
-0.225
-0.21
-0.21
-0.235
-0.235
-0.235
-0.205
-0.2
-0.215
-0.22
-0.225
-0.21
-0.205
-0.195
-0.195
-0.22
-0.215
-0.205
-0.2
-0.195
-0.215
-0.245
-0.24
-0.235
-0.21
-0.2
-0.21
-0.22
-0.225
-0.24
-0.2
-0.205
-0.2
-0.225
-0.235
-0.225
-0.21
-0.215
-0.21
-0.22
-0.225
-0.235
-0.215
-0.215
-0.23
-0.255
-0.24
-0.22
-0.22
-0.21
-0.22
-0.23
-0.25
-0.24
-0.21
-0.215
-0.215
-0.235
-0.24
-0.23
-0.22
-0.215
-0.23
-0.25
-0.245
-0.225
-0.225
-0.205
-0.205
-0.235
-0.24
-0.225
-0.215
-0.23
-0.23
-0.25
-0.23
-0.225
-0.22
-0.225
-0.23
-0.235
-0.24
-0.23
-0.225
-0.215
-0.225
-0.23
-0.25
-0.235
-0.225
-0.225
-0.24
-0.24
-0.245
-0.23
-0.215
-0.225
-0.24
-0.23
-0.245
-0.225
-0.23
-0.215
-0.24
-0.255
-0.255
-0.235
-0.21
-0.21
-0.215
-0.235
-0.245
-0.235
-0.22
-0.22
-0.23
-0.24
-0.245
-0.23
-0.21
-0.22
-0.21
-0.24
-0.235
-0.225
-0.22
-0.21
-0.225
-0.235
-0.235
-0.22
-0.21
-0.205
-0.21
-0.23
-0.24
-0.225
-0.22
-0.2
-0.205
-0.225
-0.225
-0.215
-0.215
-0.21
-0.225
-0.23
-0.225
-0.22
-0.195
-0.2
-0.225
-0.245
-0.22
-0.225
-0.21
-0.205
-0.205
-0.22
-0.22
-0.2
-0.19
-0.195
-0.195
-0.215
-0.215
-0.21
-0.185
-0.185
-0.19
-0.2
-0.185
-0.185
-0.175
-0.17
-0.18
-0.19
-0.2
-0.18
-0.17
-0.18
-0.18
-0.195
-0.2
-0.195
-0.18
-0.17
-0.18
-0.19
-0.205
-0.195
-0.175
-0.17
-0.17
-0.185
-0.19
-0.18
-0.175
-0.175
-0.185
-0.19
-0.195
-0.2
-0.18
-0.165
-0.155
-0.15
-0.14
-0.145
-0.12
-0.115
-0.12
-0.135
-0.12
-0.125
-0.11
-0.115
-0.125
-0.15
-0.155
-0.15
-0.145
-0.145
-0.165
-0.18
-0.2
-0.185
-0.175
-0.16
-0.185
-0.2
-0.195
-0.175
-0.16
-0.145
-0.16
-0.17
-0.165
-0.17
-0.16
-0.155
-0.145
-0.16
-0.14
-0.13
-0.115
-0.1
-0.11
-0.11
-0.095
-0.06
-0.015
0.005
0.03
0.085
0.15
0.27
0.39
0.515
0.62
0.73
0.82
0.955
1.075
1.19
1.215
1.17
1.05
0.885
0.725
0.56
0.405
0.235
0.11
0.015
-0.04
-0.05
-0.05
-0.055
-0.07
-0.065
-0.075
-0.085
-0.12
-0.14
-0.155
-0.155
-0.135
-0.15
-0.155
-0.17
-0.175
-0.175
-0.155
-0.155
-0.16
-0.185
-0.185
-0.175
-0.17
-0.175
-0.185
-0.185
-0.19
-0.195
-0.17
-0.16
-0.16
-0.185
-0.18
-0.16
-0.16
-0.15
-0.155
-0.16
-0.175
-0.175
-0.145
-0.13
-0.14
-0.145
-0.16
-0.155
-0.155
-0.135
-0.125
-0.135
-0.125
-0.12
-0.105
-0.09
-0.08
-0.095
-0.1
-0.08
-0.07
-0.05
-0.065
-0.06
-0.065
-0.06
-0.035
-0.015
-0.015
-0.015
-0.015
-0.01
0.02
0.025
0.03
0.015
0.03
0.035
0.06
0.07
0.095
0.075
0.075
0.11
0.135
0.135
0.16
0.14
0.145
0.165
0.185
0.19
0.18
0.18
0.18
0.18
0.2
0.195
0.18
0.155
0.135
0.125
0.14
0.12
0.075
0.07
0.035
0.03
0.03
0.005
-0.02
-0.055
-0.075
-0.075
-0.08
-0.08
-0.11
-0.135
-0.145
-0.15
-0.17
-0.165
-0.175
-0.19
-0.19
-0.195
-0.18
-0.18
-0.19
-0.2
-0.205
-0.2
-0.185
-0.185
-0.19
-0.21
-0.215
-0.2
-0.21
-0.21
-0.19
-0.21
-0.215
-0.205
-0.195
-0.19
-0.2
-0.205
-0.215
-0.195
-0.19
-0.185
-0.205
-0.205
-0.215
-0.21
-0.2
-0.18
-0.18
-0.2
-0.2
-0.2
-0.185
-0.195
-0.19
-0.195
-0.2
-0.185
-0.175
-0.17
-0.185
-0.195
-0.2
-0.19
-0.19
-0.185
-0.19
-0.2
-0.21
-0.2
-0.185
-0.185
-0.19
-0.205
-0.215
-0.21
-0.19
-0.195
-0.2
-0.205
-0.215
-0.205
-0.2
-0.195
-0.2
-0.2
-0.21
-0.205
-0.185
-0.19
-0.195
-0.215
-0.225
-0.205
-0.205
-0.19
