Lead II
-0.13
-0.11
-0.1
-0.085
-0.065
-0.065
-0.075
-0.08
-0.06
-0.03
-0.025
-0.02
-0.03
-0.015
0.0
0.035
0.055
0.055
0.055
0.05
0.085
0.105
0.115
0.135
0.135
0.155
0.2
0.21
0.25
0.265
0.275
0.295
0.33
0.36
0.39
0.41
0.43
0.45
0.475
0.505
0.54
0.55
0.56
0.58
0.615
0.665
0.685
0.69
0.695
0.73
0.74
0.75
0.75
0.745
0.71
0.675
0.655
0.63
0.58
0.51
0.44
0.375
0.33
0.285
0.205
0.135
0.075
0.04
-0.01
-0.04
-0.065
-0.13
-0.18
-0.2
-0.225
-0.235
-0.245
-0.275
-0.3
-0.32
-0.33
-0.335
-0.34
-0.34
-0.36
-0.375
-0.365
-0.36
-0.36
-0.375
-0.385
-0.395
-0.4
-0.39
-0.38
-0.395
-0.405
-0.4
-0.405
-0.385
-0.395
-0.39
-0.41
-0.42
-0.405
-0.39
-0.375
-0.39
-0.4
-0.405
-0.395
-0.38
-0.37
-0.38
-0.395
-0.395
-0.385
-0.37
-0.365
-0.37
-0.39
-0.395
-0.385
-0.36
-0.355
-0.36
-0.37
-0.375
-0.36
-0.345
-0.345
-0.365
-0.37
-0.38
-0.38
-0.36
-0.355
-0.37
-0.385
-0.405
-0.4
-0.375
-0.37
-0.385
-0.395
-0.405
-0.395
-0.39
-0.375
-0.375
-0.39
-0.395
-0.385
-0.385
-0.38
-0.385
-0.4
-0.4
-0.395
-0.385
-0.375
-0.375
-0.41
-0.405
-0.395
-0.375
-0.385
-0.375
-0.41
-0.41
-0.4
-0.375
-0.375
-0.385
-0.4
-0.395
-0.39
-0.385
-0.37
-0.39
-0.4
-0.4
-0.395
-0.39
-0.385
-0.38
-0.4
-0.4
-0.385
-0.39
-0.375
-0.39
-0.4
-0.395
-0.39
-0.38
-0.385
-0.375
-0.395
-0.395
-0.385
-0.38
-0.38
-0.375
-0.39
-0.395
-0.37
-0.375
-0.365
-0.375
-0.385
-0.39
-0.385
-0.375
-0.37
-0.375
-0.385
-0.39
-0.38
-0.36
-0.365
-0.375
-0.38
-0.37
-0.375
-0.36
-0.35
-0.365
-0.375
-0.375
-0.385
-0.36
-0.375
-0.375
-0.39
-0.385
-0.37
-0.375
-0.365
-0.375
-0.37
-0.375
-0.36
-0.345
-0.345
-0.36
-0.37
-0.365
-0.365
-0.355
-0.345
-0.345
-0.365
-0.37
-0.35
-0.31
-0.3
-0.31
-0.305
-0.305
-0.295
-0.28
-0.27
-0.275
-0.28
-0.275
-0.27
-0.275
-0.265
-0.27
-0.29
-0.295
-0.285
-0.295
-0.3
-0.325
-0.355
-0.355
-0.345
-0.335
-0.34
-0.345
-0.35
-0.355
-0.345
-0.325
-0.33
-0.35
-0.345
-0.35
-0.34
-0.34
-0.31
-0.325
-0.33
-0.325
-0.32
-0.3
-0.305
-0.315
-0.315
-0.35
-0.37
-0.395
-0.42
-0.44
-0.435
-0.365
-0.18
0.145
0.6
1.085
1.505
1.82
1.965
1.93
1.59
0.95
0.31
-0.33
-0.685
-0.57
-0.46
-0.445
-0.495
-0.485
-0.45
-0.42
-0.38
-0.33
-0.305
-0.28
-0.26
-0.25
-0.255
-0.26
-0.265
-0.26
-0.245
-0.24
-0.23
-0.245
-0.255
-0.255
-0.23
-0.225
-0.22
-0.22
-0.25
-0.235
-0.215
-0.205
-0.195
-0.215
-0.23
-0.215
-0.205
-0.2
-0.18
-0.195
-0.21
-0.205
-0.21
-0.18
-0.185
-0.185
-0.195
-0.185
-0.175
-0.175
-0.165
-0.17
-0.18
-0.18
-0.16
-0.145
-0.14
-0.155
-0.165
-0.16
-0.14
-0.13
-0.115
-0.11
-0.125
-0.115
-0.1
-0.075
-0.045
-0.06
-0.05
-0.06
-0.035
-0.005
0.015
0.025
0.015
0.025
0.045
0.08
0.1
0.105
0.115
0.12
0.155
0.19
0.2
0.205
0.23
0.26
0.29
0.325
0.365
0.395
0.405
0.425
0.465
0.5
0.53
0.54
0.55
0.57
0.61
0.645
0.66
0.675
0.67
0.68
0.68
0.69
0.655
0.6
0.555
0.505
0.455
0.41
0.35
0.28
0.185
0.135
0.065
0.025
-0.03
-0.09
-0.15
-0.19
-0.235
-0.245
-0.27
-0.315
-0.34
-0.365
-0.365
-0.38
-0.39
-0.435
-0.455
-0.45
-0.455
-0.43
-0.44
-0.435
-0.47
-0.47
-0.47
-0.455
-0.45
-0.475
-0.47
-0.475
-0.47
-0.47
-0.47
-0.475
-0.485
-0.49
-0.49
-0.475
-0.455
-0.47
-0.5
-0.495
-0.48
-0.485
-0.48
-0.47
-0.505
-0.51
-0.51
-0.475
-0.46
-0.48
-0.48
-0.495
-0.475
-0.47
-0.47
-0.48
-0.49
-0.495
-0.505
-0.49
-0.465
-0.49
-0.515
-0.51
-0.51
-0.485
-0.49
-0.51
-0.515
-0.525
-0.515
-0.505
-0.51
-0.535
-0.55
-0.53
-0.535
-0.53
-0.525
-0.53
-0.55
-0.555
-0.545
-0.53
-0.52
-0.535
-0.555
-0.575
-0.55
-0.545
-0.535
-0.555
-0.57
-0.58
-0.575
-0.55
-0.545
-0.555
-0.565
-0.56
-0.56
-0.545
-0.55
-0.57
-0.58
-0.57
-0.565
-0.56
-0.55
-0.56
-0.575
-0.57
-0.565
-0.55
-0.56
-0.57
-0.58
-0.58
-0.58
-0.56
-0.57
-0.58
-0.585
-0.585
-0.57
-0.56
-0.565
-0.57
-0.585
-0.58
-0.575
-0.555
-0.585
-0.57
-0.59
-0.6
-0.585
-0.575
-0.565
-0.57
-0.59
-0.585
-0.575
-0.555
-0.56
-0.57
-0.585
-0.59
-0.57
-0.565
-0.56
-0.565
-0.58
-0.575
-0.555
-0.55
-0.555
-0.575
-0.585
-0.58
-0.585
-0.555
-0.555
-0.56
-0.575
-0.565
-0.555
-0.55
-0.555
-0.545
-0.575
-0.565
-0.555
-0.545
-0.53
-0.55
-0.57
-0.55
-0.55
-0.535
-0.53
-0.54
-0.545
-0.55
-0.53
-0.515
-0.5
-0.49
-0.51
-0.5
-0.49
-0.48
-0.475
-0.47
-0.465
-0.47
-0.48
-0.465
-0.46
-0.46
-0.485
-0.47
-0.465
-0.48
-0.485
-0.5
-0.52
-0.535
-0.53
-0.53
-0.52
-0.525
-0.54
-0.55
-0.53
-0.515
-0.515
-0.515
-0.53
-0.53
-0.53
-0.52
-0.51
-0.505
-0.525
-0.51
-0.495
-0.475
-0.47
-0.48
-0.51
-0.54
-0.565
-0.59
-0.595
-0.59
-0.525
-0.36
-0.03
0.43
0.96
1.4
1.685
1.8
1.72
1.335
0.695
0.055
-0.585
-0.87
-0.745
-0.64
-0.625
-0.645
-0.675
-0.65
-0.605
-0.565
-0.515
-0.475
-0.46
-0.455
-0.43
-0.435
-0.425
-0.45
-0.445
-0.44
-0.425
-0.415
-0.42
-0.405
-0.415
-0.415
-0.41
-0.39
-0.39
-0.4
-0.405
-0.405
-0.39
-0.375
-0.38
-0.375
-0.4
-0.395
-0.375
-0.36
-0.355
-0.36
-0.37
-0.37
-0.36
-0.335
-0.34
-0.35
-0.37
-0.35
-0.34
-0.32
-0.315
-0.32
-0.345
-0.335
-0.315
-0.31
-0.275
-0.295
-0.305
-0.285
-0.27
-0.24
-0.24
-0.255
-0.255
-0.235
-0.215
-0.19
-0.185
-0.18
-0.185
-0.165
-0.145
-0.11
-0.1
-0.1
-0.1
-0.08
-0.05
-0.015
0.0
0.01
0.02
0.045
0.065
0.11
0.145
0.155
0.165
0.195
0.235
0.27
0.31
0.31
0.34
0.365
0.395
0.435
0.45
0.48
0.48
0.515
0.55
0.575
0.595
0.58
0.575
0.55
0.54
0.515
0.48
0.425
0.35
0.29
0.24
0.195
0.135
0.065
0.0
-0.055
-0.105
-0.135
-0.19
-0.24
-0.29
-0.335
-0.345
-0.37
-0.385
-0.42
-0.435
-0.46
-0.475
-0.47
-0.465
-0.485
-0.505
-0.515
-0.505
-0.51
-0.5
-0.515
-0.535
-0.54
-0.535
-0.52
-0.52
-0.525
-0.545
-0.55
-0.53
-0.52
-0.52
-0.54
-0.55
-0.55
-0.545
-0.53
-0.52
-0.53
-0.54
-0.55
-0.52
-0.505
-0.495
-0.51
-0.52
-0.52
-0.51
-0.505
-0.52
-0.515
-0.515
-0.52
-0.5
-0.5
-0.5
-0.505
-0.51
-0.51
-0.505
-0.5
-0.505
-0.51
-0.52
-0.52
-0.51
-0.485
-0.48
-0.5
-0.515
-0.51
-0.5
-0.49
-0.49
-0.515
-0.525
-0.515
-0.51
-0.5
-0.49
-0.505
-0.51
-0.515
-0.51
-0.495
-0.49
-0.51
-0.52
-0.525
-0.515
-0.49
-0.495
-0.5
-0.51
-0.515
-0.505
-0.495
-0.495
-0.495
-0.505
-0.52
-0.505
-0.48
-0.485
-0.485
-0.505
-0.5
-0.505
-0.49
-0.495
-0.515
-0.525
-0.505
-0.5
-0.49
-0.49
-0.495
-0.505
-0.51
-0.505
-0.485
-0.48
-0.485
-0.49
-0.49
-0.475
-0.46
-0.46
-0.47
-0.485
-0.49
-0.475
-0.46
-0.475
-0.475
-0.5
-0.5
-0.475
-0.455
-0.45
-0.47
-0.485
-0.48
-0.465
-0.46
-0.455
-0.47
-0.47
-0.455
-0.45
-0.41
-0.39
-0.415
-0.435
-0.415
-0.395
-0.355
-0.365
-0.39
-0.4
-0.415
-0.4
-0.385
-0.4
-0.425
-0.445
-0.45
-0.45
-0.44
-0.435
-0.445
-0.465
-0.445
-0.45
-0.435
-0.445
-0.445
-0.45
-0.445
-0.43
-0.435
-0.435
-0.42
-0.42
-0.43
-0.4
-0.39
-0.4
-0.455
-0.5
-0.52
-0.54
-0.505
-0.435
-0.24
0.065
0.555
1.065
1.505
1.785
1.85
1.695
1.265
0.625
-0.015
-0.655
-0.74
-0.625
-0.555
-0.55
-0.565
-0.56
-0.545
-0.52
-0.46
-0.395
-0.355
-0.325
-0.335
-0.355
-0.35
-0.335
-0.32
-0.31
-0.335
-0.325
-0.325
-0.31
-0.29
-0.29
-0.295
-0.305
-0.31
-0.295
-0.265
-0.275
-0.28
-0.29
-0.29
-0.275
-0.255
-0.27
-0.26
-0.26
-0.27
-0.255
-0.24
-0.24
-0.245
-0.255
-0.25
-0.235
-0.215
-0.215
-0.215
-0.22
-0.215
-0.21
-0.19
-0.185
-0.195
-0.195
-0.19
-0.19
-0.17
-0.15
-0.17
-0.165
-0.155
-0.14
-0.105
-0.095
-0.095
-0.09
-0.09
-0.065
-0.04
-0.035
-0.055
-0.05
-0.04
0.0
0.025
0.04
0.05
0.05
0.075
0.1
0.14
0.15
0.15
0.18
0.195
0.215
0.26
0.27
0.315
0.325
0.355
0.385
0.425
0.455
0.47
0.485
0.5
0.545
0.59
0.61
0.625
0.615
0.64
0.665
0.71
0.715
0.71
0.7
0.7
0.7
0.7
0.69
0.655
0.62
0.57
0.54
0.51
0.44
0.38
0.32
0.25
0.215
0.175
0.115
0.045
0.0
-0.055
-0.085
-0.115
-0.145
-0.185
-0.24
-0.26
-0.26
-0.275
-0.3
-0.325
-0.35
-0.36
-0.36
-0.355
-0.35
-0.365
-0.395
-0.4
-0.385
-0.38
-0.375
-0.385
-0.405
-0.405
-0.39
-0.385
-0.4
-0.405
-0.42
-0.42
-0.415
-0.39
-0.39
-0.395
-0.405
-0.41
-0.395
-0.38
-0.39
-0.4
-0.41
-0.395
-0.395
-0.395
-0.395
-0.4
-0.395
-0.395
-0.395
-0.37
-0.375
-0.385
-0.38
-0.39
-0.38
-0.365
-0.37
-0.375
-0.39
-0.39
-0.38
-0.36
-0.365
-0.355
-0.375
-0.385
-0.38
-0.35
-0.36
-0.37
-0.38
-0.39
-0.36
-0.36
-0.365
-0.37
-0.385
-0.39
-0.38
-0.36
-0.38
-0.405
-0.39
-0.38
-0.375
-0.37
-0.375
-0.385
-0.39
-0.39
-0.385
-0.36
-0.36
-0.38
-0.39
-0.385
-0.39
-0.36
-0.375
-0.38
-0.38
-0.39
-0.38
-0.365
-0.375
-0.385
-0.39
-0.395
-0.37
-0.355
-0.37
-0.385
-0.39
-0.39
-0.38
-0.36
-0.375
-0.38
-0.405
-0.4
-0.38
-0.375
-0.36
-0.36
-0.375
-0.375
-0.355
-0.345
-0.34
-0.345
-0.335
-0.335
-0.305
-0.295
-0.305
-0.315
-0.315
-0.295
-0.275
-0.265
-0.255
-0.25
-0.26
-0.26
-0.255
-0.25
-0.265
-0.29
-0.31
-0.325
-0.305
-0.295
-0.31
-0.335
-0.365
-0.365
-0.355
-0.345
-0.355
-0.36
-0.37
-0.375
-0.375
-0.34
-0.355
-0.355
-0.37
-0.37
-0.35
-0.335
-0.345
-0.355
-0.365
-0.35
-0.335
-0.315
-0.31
-0.325
-0.335
-0.35
-0.38
-0.385
-0.43
-0.46
-0.495
-0.44
-0.305
-0.075
0.295
0.72
1.15
1.53
1.775
1.865
1.71
1.275
0.635
-0.005
-0.575
-0.64
-0.55
-0.485
-0.49
-0.515
-0.5
-0.485
-0.49
-0.48
-0.455
-0.42
-0.355
-0.305
-0.27
-0.28
-0.275
-0.28
-0.255
-0.24
-0.245
-0.25
-0.27
-0.26
-0.245
-0.22
-0.245
-0.235
-0.25
-0.235
-0.22
-0.205
-0.205
-0.21
-0.22
-0.225
-0.21
-0.185
-0.18
-0.205
-0.21
-0.195
-0.2
-0.175
-0.175
-0.19
-0.2
-0.175
-0.17
-0.15
-0.165
-0.165
-0.185
-0.165
-0.155
-0.135
-0.135
-0.135
-0.155
-0.145
-0.13
-0.105
-0.1
-0.11
-0.12
-0.115
-0.1
-0.08
-0.07
-0.07
-0.075
-0.065
-0.055
-0.025
-0.025
-0.015
-0.035
-0.03
-0.005
0.02
0.01
0.005
0.005
0.025
0.055
0.09
0.09
0.085
0.085
0.11
0.135
0.155
0.18
0.19
0.185
0.215
0.24
0.27
0.285
0.285
0.305
0.33
0.36
0.42
0.44
0.445
0.445
0.48
0.52
0.545
0.58
0.585
0.605
0.615
0.665
0.69
0.715
0.715
0.72
0.745
0.765
0.79
0.785
0.77
0.755
0.745
0.73
0.715
0.665
0.61
0.565
0.505
0.455
0.41
0.36
0.3
0.24
0.19
0.13
0.105
0.05
0.005
-0.045
-0.085
-0.115
-0.13
-0.16
-0.205
-0.235
-0.255
-0.255
-0.245
-0.27
-0.28
-0.305
-0.315
-0.31
-0.31
-0.31
-0.335
-0.35
-0.35
-0.35
-0.325
-0.335
-0.355
-0.38
-0.365
-0.355
-0.34
-0.35
-0.375
-0.375
-0.38
-0.365
-0.34
-0.35
-0.355
-0.37
-0.385
-0.365
-0.34
-0.33
-0.355
-0.365
-0.365
-0.335
-0.325
-0.335
-0.355
-0.355
-0.355
-0.335
-0.325
-0.33
-0.34
-0.35
-0.345
-0.335
-0.315
-0.315
-0.345
-0.345
-0.34
-0.32
-0.315
-0.32
-0.335
-0.335
-0.34
-0.31
-0.3
-0.315
-0.315
-0.33
-0.345
-0.33
-0.315
-0.33
-0.345
-0.35
-0.35
-0.34
-0.325
-0.32
-0.345
-0.35
-0.35
-0.335
-0.32
-0.325
-0.34
-0.35
-0.36
-0.35
-0.33
-0.34
-0.35
-0.355
-0.36
-0.335
-0.335
-0.345
-0.355
-0.365
-0.365
-0.34
-0.33
-0.345
-0.35
-0.365
-0.355
-0.35
-0.315
-0.335
-0.34
-0.34
-0.325
-0.29
-0.265
-0.27
-0.285
-0.285
-0.285
-0.275
-0.245
-0.235
-0.235
-0.245
-0.225
-0.22
-0.205
-0.195
-0.23
-0.24
-0.265
-0.275
-0.265
-0.27
-0.285
-0.305
-0.31
-0.32
-0.32
-0.33
-0.355
-0.37
-0.365
-0.36
-0.34
-0.34
-0.355
-0.36
-0.36
-0.355
-0.335
-0.34
-0.345
-0.36
-0.35
-0.35
-0.35
-0.325
-0.345
-0.36
-0.345
-0.34
-0.305
-0.315
-0.33
-0.355
-0.375
-0.4
-0.43
-0.435
-0.455
-0.405
-0.26
0.0
0.385
0.835
1.28
1.615
1.85
1.925
1.825
1.46
0.83
0.19
-0.45
-0.66
-0.56
-0.485
-0.475
-0.49
-0.5
-0.465
-0.44
-0.39
-0.37
-0.325
-0.28
-0.27
-0.235
-0.26
-0.26
-0.265
-0.26
-0.245
-0.235
-0.22
-0.24
-0.26
-0.255
-0.23
-0.21
-0.225
-0.225
-0.235
-0.23
-0.21
-0.195
-0.2
-0.21
-0.22
-0.22
-0.2
-0.19
-0.195
-0.195
-0.21
-0.205
-0.175
-0.165
-0.17
-0.17
-0.19
-0.19
-0.16
-0.145
-0.145
-0.15
-0.165
-0.145
-0.135
-0.115
-0.115
-0.125
-0.135
-0.13
-0.1
-0.08
-0.08
-0.075
-0.08
-0.08
-0.05
-0.03
-0.04
-0.03
-0.03
-0.02
0.0
0.03
0.05
0.04
0.045
0.07
0.095
0.115
0.135
0.145
0.15
0.175
0.205
0.24
0.255
0.26
0.27
0.29
0.335
0.37
0.4
0.42
0.44
0.465
0.51
0.53
0.56
0.565
0.595
0.62
0.665
0.7
0.715
0.71
0.715
0.735
0.775
0.77
0.755
0.725
0.695
0.665
0.61
0.59
0.52
0.455
0.39
0.325
0.27
0.21
0.17
0.085
0.03
-0.02
-0.05
-0.07
-0.12
-0.155
-0.2
-0.225
-0.205
-0.23
-0.245
-0.27
-0.3
-0.3
-0.29
-0.29
-0.305
-0.32
-0.34
-0.345
-0.33
-0.32
-0.33
-0.355
-0.35
-0.36
-0.34
-0.33
-0.335
-0.35
-0.365
-0.365
-0.345
-0.335
-0.33
-0.355
-0.355
-0.345
-0.345
-0.335
-0.34
-0.35
-0.36
-0.35
-0.345
-0.34
-0.335
-0.355
-0.35
-0.35
-0.335
-0.325
-0.325
-0.335
-0.35
-0.36
-0.335
-0.33
-0.325
-0.34
-0.35
-0.345
-0.335
-0.33
-0.325
-0.34
-0.365
-0.345
-0.33
-0.305
-0.345
-0.36
-0.35
-0.35
-0.34
-0.325
-0.335
-0.345
-0.35
-0.36
-0.34
-0.355
-0.345
-0.36
-0.36
-0.365
-0.36
-0.325
-0.34
-0.365
-0.365
-0.36
-0.345
-0.33
-0.345
-0.36
-0.37
-0.36
-0.37
-0.34
-0.355
-0.355
-0.365
-0.37
-0.365
-0.345
-0.345
-0.365
-0.365
-0.375
-0.355
-0.35
-0.35
-0.375
-0.37
-0.37
-0.355
-0.345
-0.35
-0.355
-0.35
-0.35
-0.325
-0.315
-0.305
-0.305
-0.3
-0.305
-0.285
-0.28
-0.285
-0.275
-0.27
-0.26
-0.245
-0.235
-0.225
-0.25
-0.235
-0.255
-0.265
-0.265
-0.275
-0.3
-0.325
-0.325
-0.32
-0.32
-0.33
-0.36
-0.365
-0.37
-0.36
-0.35
-0.345
-0.355
-0.365
-0.36
-0.36
-0.345
-0.345
-0.36
-0.355
-0.355
-0.365
-0.355
-0.35
-0.345
-0.36
-0.36
-0.35
-0.33
-0.335
-0.335
-0.34
-0.345
-0.365
-0.385
-0.445
-0.47
-0.48
-0.45
-0.34
-0.15
0.155
0.605
1.085
1.535
1.84
1.94
1.8
1.36
0.72
0.08
-0.56
-0.68
-0.55
-0.48
-0.48
-0.49
-0.48
-0.445
-0.4
-0.37
-0.325
-0.29
-0.275
-0.27
-0.28
-0.28
-0.285
-0.285
-0.26
-0.255
-0.255
-0.265
-0.27
-0.275
-0.26
-0.24
-0.235
-0.24
-0.255
-0.245
-0.225
-0.215
-0.23
-0.225
-0.245
-0.23
-0.205
-0.2
-0.195
-0.21
-0.22
-0.21
-0.185
-0.19
-0.19
-0.205
-0.2
-0.195
-0.19
-0.165
-0.17
-0.17
-0.17
-0.16
-0.15
-0.125
-0.125
-0.135
-0.145
-0.14
-0.11
-0.1
-0.085
-0.09
-0.1
-0.085
-0.04
-0.025
-0.03
-0.025
-0.035
-0.02
0.015
0.04
0.055
0.055
0.06
0.08
0.125
0.155
0.175
0.185
0.2
0.245
0.28
0.31
0.33
0.35
0.37
0.395
0.44
0.475
0.48
0.52
0.535
0.56
0.6
0.64
0.66
0.68
0.685
0.7
0.74
0.745
0.72
0.685
0.64
0.59
0.56
0.495
0.435
0.355
0.28
0.205
0.145
0.085
0.005
-0.06
-0.115
-0.15
-0.19
-0.21
-0.25
-0.29
-0.335
-0.325
-0.32
-0.32
-0.335
-0.355
-0.37
-0.38
-0.365
-0.365
-0.385
-0.39
-0.395
-0.385
-0.385
-0.375
-0.385
-0.395
-0.4
-0.405
-0.385
-0.38
-0.39
-0.385
-0.395
-0.39
-0.395
-0.375
-0.385
-0.395
-0.405
-0.415
-0.4
-0.38
-0.39
-0.405
-0.41
-0.4
-0.395
-0.385
-0.385
-0.4
-0.405
-0.41
-0.395
-0.395
-0.4
-0.42
-0.415
-0.42
-0.405
-0.395
-0.4
-0.405
-0.415
-0.44
-0.415
-0.39
-0.4
-0.425
-0.425
-0.43
-0.41
-0.4
-0.405
-0.425
-0.445
-0.445
-0.43
-0.41
-0.42
-0.43
-0.44
-0.425
-0.42
-0.425
-0.425
-0.43
-0.46
-0.455
-0.44
-0.43
-0.43
-0.435
-0.45
-0.455
-0.435
-0.43
-0.43
-0.455
-0.45
-0.44
-0.44
-0.425
-0.44
-0.455
-0.45
-0.455
-0.44
-0.44
-0.46
-0.46
-0.45
-0.445
-0.45
-0.44
-0.445
-0.445
-0.45
-0.445
-0.435
-0.425
-0.44
-0.46
-0.44
-0.425
-0.385
-0.38
-0.365
-0.38
-0.38
-0.38
-0.345
-0.33
-0.32
-0.325
-0.33
-0.32
-0.305
-0.305
-0.335
-0.36
-0.37
-0.38
-0.37
-0.36
-0.385
-0.405
-0.445
-0.43
-0.435
-0.425
-0.455
-0.46
-0.475
-0.46
-0.425
-0.42
-0.45
-0.45
-0.455
-0.445
-0.425
-0.41
-0.42
-0.43
-0.44
-0.425
-0.41
-0.4
-0.4
-0.405
-0.42
-0.405
-0.39
-0.395
-0.43
-0.475
-0.52
-0.535
-0.53
-0.485
-0.4
-0.205
0.145
0.635
1.115
1.525
1.75
1.835
1.75
1.45
0.885
0.245
-0.395
-0.73
-0.7
-0.585
-0.545
-0.55
-0.56
-0.545
-0.54
-0.5
-0.445
-0.4
-0.36
-0.34
-0.355
-0.35
-0.35
-0.325
-0.32
-0.33
-0.335
-0.34
-0.325
-0.32
-0.305
-0.32
-0.325
-0.32
-0.295
-0.295
-0.295
-0.31
-0.31
-0.3
-0.29
-0.27
-0.28
-0.285
-0.3
-0.275
-0.265
-0.24
-0.25
-0.27
-0.275
-0.26
-0.25
-0.235
-0.24
-0.255
-0.24
-0.245
-0.22
-0.205
-0.215
-0.215
-0.215
-0.21
-0.2
-0.185
-0.18
-0.185
-0.19
-0.185
-0.145
-0.14
-0.14
-0.14
-0.14
-0.13
-0.095
-0.085
-0.085
-0.085
-0.095
-0.07
-0.045
-0.02
-0.005
-0.01
-0.005
0.015
0.035
0.065
0.07
0.085
0.1
0.135
0.155
0.185
0.195
0.21
0.225
0.27
0.315
0.335
0.37
0.375
0.38
0.42
0.455
0.505
0.53
0.54
0.55
0.575
0.625
0.655
0.665
0.665
0.675
0.695
0.705
0.715
0.695
0.67
0.615
0.595
0.565
0.53
0.455
0.39
0.325
0.27
0.21
0.17
0.105
0.03
-0.005
-0.055
-0.085
-0.12
-0.16
-0.195
-0.24
-0.245
-0.255
-0.265
-0.3
-0.31
-0.32
-0.325
-0.31
-0.295
-0.315
-0.335
-0.34
-0.345
-0.34
-0.325
-0.34
-0.35
-0.355
-0.355
-0.345
-0.345
-0.36
-0.36
-0.37
-0.375
-0.36
-0.34
-0.35
-0.365
-0.37
-0.35
-0.34
-0.33
-0.345
-0.36
-0.355
-0.35
-0.35
-0.33
-0.33
-0.345
-0.34
-0.34
-0.325
-0.315
-0.335
-0.34
-0.345
-0.345
-0.32
-0.31
-0.305
-0.315
-0.335
-0.335
-0.31
-0.305
-0.31
-0.325
-0.335
-0.32
-0.3
-0.3
-0.31
-0.34
-0.33
-0.32
-0.305
-0.29
-0.305
-0.33
-0.345
-0.325
-0.325
-0.315
-0.32
-0.33
-0.345
-0.33
-0.32
-0.31
-0.305
-0.315
-0.33
-0.32
-0.31
-0.3
-0.3
-0.3
-0.305
-0.275
-0.25
-0.235
-0.245
-0.245
-0.265
-0.245
-0.22
-0.195
-0.205
-0.215
-0.21
-0.205
-0.185
-0.18
-0.2
-0.22
-0.24
-0.235
-0.23
-0.24
-0.26
-0.28
-0.305
-0.31
-0.295
-0.3
-0.315
-0.305
-0.315
-0.325
-0.31
-0.295
-0.31
-0.315
-0.295
-0.305
-0.29
-0.28
-0.275
-0.3
-0.31
-0.305
-0.28
-0.275
-0.29
-0.28
-0.285
-0.265
-0.25
-0.255
-0.26
-0.29
-0.345
-0.375
-0.375
-0.385
-0.38
-0.305
-0.095
0.25
0.7
1.15
1.52
1.745
1.835
1.715
1.305
0.665
0.025
-0.595
-0.65
-0.505
-0.4
-0.4
-0.44
-0.45
-0.425
-0.395
-0.355
-0.3
-0.27
-0.23
-0.21
-0.19
-0.175
-0.17
-0.175
-0.185
-0.2
-0.18
-0.16
-0.15
-0.145
-0.175
-0.17
-0.16
-0.145
-0.14
-0.135
-0.145
-0.155
-0.155
-0.13
-0.11
-0.12
-0.125
-0.125
-0.125
-0.105
-0.095
-0.09
-0.105
-0.125
-0.115
-0.08
-0.085
-0.075
-0.08
-0.1
-0.085
-0.06
-0.045
-0.05
-0.07
-0.06
-0.045
-0.02
-0.005
-0.015
-0.015
-0.03
-0.01
0.01
0.035
0.035
0.035
0.025
0.05
0.075
0.1
0.1
0.1
0.1
0.13
0.155
0.18
0.195
0.19
0.21
0.225
0.26
0.29
0.295
0.315
0.33
0.355
0.39
0.42
0.445
0.46
0.48
0.515
0.565
0.6
0.62
0.62
0.65
0.68
0.725
0.745
0.77
0.77
0.78
0.795
0.81
0.81
0.77
0.715
0.68
0.635
0.585
0.53
0.465
0.385
0.32
0.265
0.215
0.165
0.11
0.065
0.01
-0.025
-0.055
-0.075
-0.1
-0.16
-0.185
-0.185
-0.185
-0.19
-0.195
-0.225
-0.235
-0.23
-0.23
-0.22
-0.235
-0.26
-0.265
-0.27
-0.255
-0.24
-0.255
-0.265
-0.28
-0.28
-0.255
-0.255
-0.265
-0.275
-0.255
-0.25
-0.235
-0.23
-0.235
-0.245
-0.25
-0.24
-0.23
-0.22
-0.22
-0.24
-0.235
-0.225
-0.225
-0.205
-0.215
-0.225
-0.23
-0.225
-0.2
-0.19
-0.205
-0.215
-0.225
-0.215
-0.205
-0.205
-0.205
-0.23
-0.235
-0.22
-0.2
-0.2
-0.22
-0.225
-0.235
-0.225
-0.22
-0.225
-0.23
-0.24
-0.25
-0.225
-0.215
-0.2
-0.225
-0.23
-0.225
-0.21
-0.175
-0.16
-0.17
-0.19
-0.19
-0.185
-0.15
-0.135
-0.13
-0.14
-0.145
-0.125
-0.11
-0.12
-0.135
-0.17
-0.185
-0.175
-0.175
-0.185
-0.195
-0.225
-0.245
-0.24
-0.255
-0.245
-0.255
-0.27
-0.285
-0.27
-0.27
-0.25
-0.275
-0.285
-0.3
-0.285
-0.265
-0.255
-0.27
-0.275
-0.285
-0.275
-0.255
-0.26
-0.25
-0.25
-0.255
-0.245
-0.225
-0.23
-0.27
-0.31
-0.355
-0.39
-0.385
-0.345
-0.245
-0.055
0.28
0.73
1.155
1.515
1.76
1.85
1.83
1.59
1.09
0.45
-0.19
-0.63
-0.605
-0.465
-0.4
-0.39
-0.405
-0.42
-0.395
-0.35
-0.3
-0.235
-0.195
-0.19
-0.2
-0.19
-0.175
-0.175
-0.17
-0.185
-0.19
-0.18
-0.165
-0.155
-0.165
-0.18
-0.175
-0.155
-0.145
-0.13
-0.14
-0.15
-0.155
-0.145
-0.12
-0.12
-0.125
-0.145
-0.15
-0.125
-0.11
-0.105
-0.11
-0.12
-0.115
-0.105
-0.1
-0.09
-0.095
-0.105
-0.1
-0.095
-0.075
-0.065
-0.08
-0.085
-0.085
-0.065
-0.04
-0.03
-0.03
-0.045
-0.055
-0.035
-0.005
0.01
0.015
-0.005
0.005
0.025
0.045
0.06
0.055
0.055
0.055
0.09
0.125
0.14
0.145
0.145
0.165
0.2
0.25
0.245
0.265
0.275
0.315
0.35
0.39
0.415
0.43
0.45
0.475
0.515
0.555
0.59
0.61
0.625
0.65
0.69
0.72
0.745
0.765
0.765
0.765
0.775
0.78
0.78
0.75
0.68
0.63
0.575
0.53
0.475
0.395
0.335
0.255
0.2
0.155
0.105
0.05
0.0
-0.045
-0.08
-0.1
-0.115
-0.155
-0.185
-0.215
-0.25
-0.235
-0.25
-0.26
-0.285
-0.295
-0.285
-0.29
-0.275
-0.28
-0.315
-0.305
-0.3
-0.3
-0.3
-0.31
-0.345
-0.335
-0.32
-0.315
-0.305
-0.315
-0.33
-0.34
-0.33
-0.305
-0.31
-0.34
-0.325
-0.34
-0.32
-0.32
-0.31
-0.32
-0.325
-0.325
-0.31
-0.3
-0.295
-0.305
-0.32
-0.325
-0.31
-0.3
-0.295
-0.305
-0.32
-0.315
-0.31
-0.315
-0.305
-0.325
-0.32
-0.315
-0.32
-0.31
-0.305
-0.335
-0.36
-0.36
-0.335
-0.32
-0.31
-0.31
-0.345
-0.335
-0.32
-0.31
-0.3
-0.305
-0.305
-0.29
-0.28
-0.25
-0.25
-0.26
-0.285
-0.27
-0.245
-0.215
-0.205
-0.215
-0.24
-0.24
-0.245
-0.24
-0.255
-0.27
-0.3
-0.315
-0.325
-0.335
-0.355
-0.375
-0.385
-0.385
-0.375
-0.36
-0.375
-0.38
-0.395
-0.385
-0.38
-0.375
-0.38
-0.385
-0.385
-0.385
-0.37
-0.335
-0.335
-0.365
-0.41
-0.47
-0.515
-0.5
-0.395
-0.165
0.305
0.91
1.485
1.825
1.87
1.525
0.885
0.245
-0.395
-0.77
-0.565
-0.48
-0.5
-0.52
-0.49
-0.395
-0.335
-0.305
-0.305
-0.315
-0.305
-0.305
-0.29
-0.29
-0.325
-0.33
-0.33
-0.31
-0.295
-0.3
-0.305
-0.315
-0.3
-0.3
-0.295
-0.285
-0.29
-0.305
-0.29
-0.3
-0.275
-0.275
-0.29
-0.295
-0.29
-0.28
-0.275
-0.275
-0.28
-0.275
-0.275
-0.245
-0.245
-0.245
-0.255
-0.26
-0.24
-0.23
-0.22
-0.215
-0.24
-0.23
-0.21
-0.195
-0.195
-0.205
-0.205
-0.215
-0.175
-0.175
-0.16
-0.155
-0.16
-0.16
-0.135
-0.115
-0.1
-0.105
-0.105
-0.09
-0.065
-0.04
-0.025
-0.02
-0.02
-0.015
0.025
0.045
0.065
0.085
0.09
0.1
0.145
0.18
0.21
0.225
0.24
0.27
0.3
0.33
0.37
0.38
0.4
0.425
0.45
0.48
0.52
0.535
0.545
0.55
0.575
0.6
0.595
0.595
0.565
0.53
0.52
0.475
0.425
0.35
0.275
0.21
0.17
0.11
0.045
-0.015
-0.085
-0.14
-0.175
-0.195
-0.245
-0.285
-0.325
-0.355
-0.375
-0.375
-0.395
-0.415
-0.43
-0.45
-0.45
-0.445
-0.45
-0.455
-0.47
-0.49
-0.48
-0.49
-0.5
-0.485
-0.515
-0.51
-0.505
-0.5
-0.495
-0.5
-0.52
-0.52
-0.51
-0.505
-0.5
-0.51
-0.54
-0.52
-0.525
-0.495
-0.495
-0.505
-0.53
-0.53
-0.51
-0.51
-0.515
-0.515
-0.54
-0.55
-0.515
-0.49
-0.495
-0.505
-0.52
-0.5
-0.5
-0.49
-0.49
-0.51
-0.515
-0.525
-0.53
-0.51
-0.505
-0.515
-0.525
-0.53
-0.5
-0.51
-0.515
-0.505
-0.53
-0.525
-0.515
-0.505
-0.515
-0.525
-0.525
-0.525
-0.525
-0.51
-0.505
-0.51
-0.535
-0.55
-0.525
-0.52
-0.505
-0.53
-0.55
-0.55
-0.54
-0.505
-0.515
-0.525
-0.55
-0.545
-0.545
-0.515
-0.53
-0.525
-0.55
-0.54
-0.515
-0.495
-0.495
-0.48
-0.485
-0.485
-0.475
-0.45
-0.445
-0.455
-0.455
-0.43
-0.41
-0.4
-0.4
-0.42
-0.425
-0.435
-0.43
-0.43
-0.43
-0.46
-0.48
-0.485
-0.47
-0.475
-0.485
-0.515
-0.54
-0.555
-0.55
-0.53
-0.53
-0.535
-0.555
-0.555
-0.545
-0.525
-0.525
-0.525
-0.545
-0.54
-0.54
-0.53
-0.515
-0.525
-0.54
-0.53
-0.53
-0.51
-0.505
-0.515
-0.525
-0.51
-0.51
-0.5
-0.52
-0.555
-0.6
-0.625
-0.645
-0.64
-0.63
-0.58
-0.475
-0.25
0.09
0.52
0.94
1.31
1.55
1.7
1.73
1.56
1.08
0.44
-0.2
-0.825
-0.835
-0.715
-0.65
-0.655
-0.68
-0.665
-0.63
-0.61
-0.59
-0.545
-0.51
-0.485
-0.46
-0.445
-0.455
-0.46
-0.47
-0.47
-0.47
-0.45
-0.445
-0.445
-0.465
-0.455
-0.45
-0.43
-0.425
-0.435
-0.435
-0.43
-0.435
-0.42
-0.41
-0.42
-0.425
-0.42
-0.41
-0.395
-0.405
-0.415
-0.415
-0.405
-0.405
-0.39
-0.39
-0.39
-0.405
-0.405
-0.385
-0.365
-0.365
-0.385
-0.39
-0.38
-0.37
-0.355
-0.345
-0.35
-0.365
-0.375
-0.355
-0.335
-0.335
-0.33
-0.345
-0.34
-0.32
-0.31
-0.32
-0.31
-0.325
-0.28
-0.27
-0.27
-0.26
-0.245
-0.25
-0.245
-0.225
-0.21
-0.19
-0.19
-0.19
-0.18
-0.16
-0.125
-0.11
-0.115
-0.12
-0.105
-0.065
-0.03
-0.015
-0.005
0.01
0.03
0.065
0.09
0.105
0.115
0.115
0.17
0.2
0.24
0.265
0.285
0.295
0.32
0.34
0.37
0.415
0.43
0.435
0.455
0.49
0.51
0.52
0.51
0.475
0.465
0.445
0.43
0.385
0.33
0.27
0.22
0.19
0.135
0.085
0.02
-0.05
-0.09
-0.13
-0.165
-0.215
-0.28
-0.33
-0.345
-0.36
-0.38
-0.4
-0.425
-0.465
-0.48
-0.48
-0.475
-0.485
-0.505
-0.52
-0.53
-0.525
-0.52
-0.54
-0.535
-0.555
-0.575
-0.565
-0.545
-0.545
-0.565
-0.59
-0.585
-0.59
-0.56
-0.55
-0.555
-0.575
-0.56
-0.57
-0.54
-0.54
-0.55
-0.57
-0.575
-0.56
-0.55
-0.55
-0.57
-0.59
