Lead II
0.63
0.365
0.225
0.16
0.075
-0.045
-0.175
-0.23
-0.255
-0.28
-0.31
-0.345
-0.355
-0.395
-0.415
-0.425
-0.4
-0.405
-0.415
-0.425
-0.435
-0.425
-0.41
-0.43
-0.425
-0.435
-0.45
-0.43
-0.43
-0.42
-0.435
-0.44
-0.46
-0.45
-0.44
-0.425
-0.42
-0.425
-0.435
-0.435
-0.42
-0.42
-0.42
-0.43
-0.43
-0.435
-0.425
-0.43
-0.415
-0.425
-0.445
-0.445
-0.425
-0.43
-0.425
-0.435
-0.445
-0.435
-0.425
-0.415
-0.42
-0.42
-0.435
-0.42
-0.42
-0.42
-0.41
-0.4
-0.4
-0.4
-0.38
-0.37
-0.375
-0.38
-0.39
-0.37
-0.355
-0.34
-0.34
-0.35
-0.345
-0.32
-0.3
-0.29
-0.29
-0.285
-0.275
-0.25
-0.24
-0.215
-0.22
-0.22
-0.21
-0.19
-0.175
-0.145
-0.14
-0.15
-0.145
-0.13
-0.12
-0.11
-0.095
-0.095
-0.105
-0.11
-0.105
-0.095
-0.095
-0.115
-0.125
-0.12
-0.13
-0.135
-0.155
-0.18
-0.195
-0.185
-0.2
-0.21
-0.23
-0.245
-0.27
-0.275
-0.27
-0.275
-0.285
-0.32
-0.33
-0.325
-0.33
-0.335
-0.335
-0.345
-0.36
-0.355
-0.36
-0.35
-0.355
-0.375
-0.37
-0.37
-0.38
-0.365
-0.375
-0.38
-0.39
-0.39
-0.395
-0.38
-0.38
-0.38
-0.39
-0.39
-0.385
-0.395
-0.39
-0.385
-0.39
-0.385
-0.39
-0.385
-0.38
-0.38
-0.395
-0.385
-0.385
-0.375
-0.385
-0.39
-0.385
-0.375
-0.37
-0.37
-0.365
-0.37
-0.38
-0.37
-0.365
-0.36
-0.36
-0.37
-0.38
-0.37
-0.365
-0.365
-0.36
-0.37
-0.385
-0.38
-0.385
-0.37
-0.365
-0.37
-0.375
-0.38
-0.38
-0.37
-0.365
-0.375
-0.39
-0.39
-0.375
-0.38
-0.375
-0.385
-0.405
-0.405
-0.38
-0.365
-0.385
-0.395
-0.4
-0.4
-0.39
-0.375
-0.38
-0.385
-0.405
-0.395
-0.39
-0.38
-0.38
-0.39
-0.395
-0.4
-0.39
-0.38
-0.38
-0.39
-0.41
-0.395
-0.395
-0.395
-0.385
-0.4
-0.4
-0.405
-0.395
-0.39
-0.385
-0.385
-0.4
-0.395
-0.395
-0.39
-0.385
-0.4
-0.405
-0.41
-0.39
-0.39
-0.4
-0.405
-0.4
-0.4
-0.405
-0.395
-0.41
-0.4
-0.415
-0.395
-0.4
-0.39
-0.395
-0.385
-0.4
-0.39
-0.385
-0.375
-0.38
-0.38
-0.38
-0.37
-0.355
-0.34
-0.33
-0.345
-0.36
-0.34
-0.34
-0.325
-0.32
-0.33
-0.325
-0.31
-0.285
-0.25
-0.235
-0.25
-0.26
-0.28
-0.27
-0.275
-0.275
-0.295
-0.295
-0.3
-0.305
-0.295
-0.31
-0.32
-0.335
-0.34
-0.35
-0.35
-0.37
-0.39
-0.41
-0.41
-0.4
-0.4
-0.4
-0.405
-0.41
-0.405
-0.405
-0.405
-0.42
-0.415
-0.415
-0.42
-0.4
-0.405
-0.41
-0.425
-0.425
-0.425
-0.42
-0.405
-0.415
-0.45
-0.51
-0.53
-0.515
-0.465
-0.315
-0.075
0.22
0.615
0.985
1.295
1.36
1.155
0.795
0.44
0.235
0.165
0.115
0.015
-0.1
-0.165
-0.205
-0.25
-0.31
-0.355
-0.395
-0.415
-0.44
-0.435
-0.455
-0.455
-0.465
-0.465
-0.455
-0.465
-0.475
-0.485
-0.485
-0.49
-0.475
-0.47
-0.47
-0.48
-0.485
-0.485
-0.48
-0.47
-0.465
-0.48
-0.485
-0.485
-0.485
-0.48
-0.48
-0.5
-0.495
-0.485
-0.475
-0.485
-0.49
-0.49
-0.5
-0.49
-0.485
-0.49
-0.475
-0.49
-0.5
-0.505
-0.485
-0.475
-0.475
-0.49
-0.495
-0.485
-0.475
-0.455
-0.465
-0.465
-0.475
-0.48
-0.455
-0.445
-0.45
-0.445
-0.45
-0.445
-0.425
-0.415
-0.41
-0.4
-0.41
-0.4
-0.385
-0.37
-0.365
-0.345
-0.34
-0.33
-0.315
-0.3
-0.29
-0.275
-0.265
-0.255
-0.24
-0.22
-0.195
-0.205
-0.205
-0.185
-0.165
-0.155
-0.155
-0.165
-0.17
-0.16
-0.165
-0.14
-0.145
-0.16
-0.18
-0.185
-0.2
-0.195
-0.215
-0.24
-0.265
-0.265
-0.27
-0.285
-0.29
-0.32
-0.34
-0.35
-0.355
-0.365
-0.365
-0.385
-0.4
-0.405
-0.41
-0.39
-0.41
-0.415
-0.43
-0.43
-0.425
-0.425
-0.41
-0.435
-0.445
-0.445
-0.44
-0.44
-0.445
-0.465
-0.46
-0.46
-0.435
-0.43
-0.445
-0.445
-0.46
-0.455
-0.455
-0.455
-0.445
-0.455
-0.465
-0.465
-0.46
-0.455
-0.445
-0.445
-0.46
-0.45
-0.45
-0.455
-0.45
-0.455
-0.475
-0.455
-0.44
-0.435
-0.43
-0.44
-0.45
-0.44
-0.435
-0.42
-0.425
-0.44
-0.44
-0.43
-0.435
-0.425
-0.435
-0.445
-0.44
-0.44
-0.43
-0.42
-0.43
-0.44
-0.45
-0.47
-0.45
-0.46
-0.46
-0.46
-0.47
-0.46
-0.435
-0.435
-0.435
-0.435
-0.44
-0.44
-0.425
-0.415
-0.43
-0.44
-0.445
-0.435
-0.425
-0.43
-0.435
-0.445
-0.445
-0.44
-0.45
-0.44
-0.445
-0.455
-0.455
-0.46
-0.45
-0.44
-0.445
-0.44
-0.455
-0.45
-0.45
-0.455
-0.455
-0.46
-0.475
-0.465
-0.46
-0.455
-0.47
-0.465
-0.47
-0.465
-0.46
-0.465
-0.46
-0.46
-0.465
-0.46
-0.455
-0.445
-0.445
-0.46
-0.475
-0.465
-0.46
-0.455
-0.46
-0.475
-0.48
-0.47
-0.445
-0.445
-0.45
-0.45
-0.47
-0.47
-0.455
-0.435
-0.43
-0.42
-0.42
-0.405
-0.385
-0.39
-0.405
-0.4
-0.41
-0.4
-0.385
-0.38
-0.365
-0.35
-0.335
-0.31
-0.295
-0.315
-0.325
-0.335
-0.34
-0.345
-0.34
-0.325
-0.34
-0.35
-0.38
-0.37
-0.375
-0.365
-0.38
-0.395
-0.435
-0.45
-0.455
-0.45
-0.455
-0.46
-0.47
-0.49
-0.48
-0.47
-0.485
-0.49
-0.5
-0.51
-0.515
-0.485
-0.49
-0.495
-0.505
-0.495
-0.495
-0.48
-0.48
-0.485
-0.51
-0.515
-0.5
-0.495
-0.5
-0.555
-0.61
-0.605
-0.585
-0.495
-0.32
-0.085
0.2
0.565
0.94
1.225
1.315
1.18
0.845
0.485
0.23
0.095
0.05
-0.03
-0.14
-0.23
-0.285
-0.315
-0.355
-0.42
-0.465
-0.49
-0.505
-0.52
-0.535
-0.54
-0.545
-0.54
-0.55
-0.55
-0.555
-0.555
-0.575
-0.585
-0.575
-0.55
-0.545
-0.555
-0.56
-0.55
-0.555
-0.545
-0.56
-0.565
-0.59
-0.565
-0.565
-0.57
-0.57
-0.585
-0.58
-0.57
-0.575
-0.575
-0.585
-0.58
-0.575
-0.57
-0.555
-0.55
-0.56
-0.575
-0.585
-0.575
-0.57
-0.56
-0.57
-0.59
-0.61
-0.61
-0.605
-0.57
-0.555
-0.55
-0.56
-0.55
-0.55
-0.555
-0.555
-0.565
-0.585
-0.58
-0.56
-0.56
-0.545
-0.535
-0.53
-0.54
-0.515
-0.49
-0.49
-0.49
-0.495
-0.48
-0.465
-0.455
-0.45
-0.45
-0.45
-0.44
-0.395
-0.37
-0.34
-0.35
-0.365
-0.355
-0.32
-0.305
-0.29
-0.285
-0.285
-0.27
-0.26
-0.255
-0.255
-0.27
-0.26
-0.255
-0.24
-0.23
-0.23
-0.235
-0.245
-0.245
-0.24
-0.245
-0.265
-0.275
-0.28
-0.305
-0.3
-0.32
-0.34
-0.355
-0.36
-0.38
-0.38
-0.385
-0.4
-0.415
-0.43
-0.44
-0.435
-0.455
-0.46
-0.465
-0.475
-0.465
-0.46
-0.465
-0.475
-0.485
-0.485
-0.485
-0.485
-0.475
-0.485
-0.49
-0.51
-0.505
-0.49
-0.48
-0.49
-0.505
-0.515
-0.52
-0.5
-0.49
-0.495
-0.495
-0.52
-0.515
-0.505
-0.5
-0.495
-0.495
-0.515
-0.52
-0.505
-0.5
-0.495
-0.505
-0.51
-0.5
-0.49
-0.48
-0.475
-0.465
-0.48
-0.49
-0.485
-0.475
-0.485
-0.48
-0.475
-0.47
-0.465
-0.46
-0.46
-0.465
-0.475
-0.475
-0.455
-0.47
-0.455
-0.465
-0.47
-0.48
-0.465
-0.445
-0.45
-0.465
-0.475
-0.48
-0.47
-0.45
-0.45
-0.455
-0.455
-0.45
-0.44
-0.43
-0.445
-0.455
-0.475
-0.465
-0.445
-0.455
-0.445
-0.445
-0.45
-0.45
-0.455
-0.45
-0.435
-0.45
-0.45
-0.445
-0.445
-0.44
-0.44
-0.43
-0.435
-0.44
-0.44
-0.45
-0.46
-0.475
-0.47
-0.485
-0.465
-0.44
-0.445
-0.45
-0.45
-0.45
-0.455
-0.445
-0.46
-0.45
-0.47
-0.445
-0.44
-0.44
-0.435
-0.445
-0.46
-0.445
-0.435
-0.435
-0.44
-0.46
-0.46
-0.46
-0.435
-0.44
-0.44
-0.44
-0.45
-0.45
-0.43
-0.435
-0.43
-0.435
-0.445
-0.435
-0.425
-0.41
-0.415
-0.405
-0.405
-0.395
-0.39
-0.385
-0.38
-0.385
-0.395
-0.39
-0.38
-0.37
-0.365
-0.365
-0.365
-0.34
-0.31
-0.29
-0.285
-0.285
-0.3
-0.315
-0.32
-0.325
-0.34
-0.345
-0.36
-0.34
-0.34
-0.335
-0.355
-0.37
-0.385
-0.375
-0.36
-0.355
-0.37
-0.41
-0.445
-0.44
-0.44
-0.445
-0.445
-0.44
-0.45
-0.445
-0.435
-0.425
-0.435
-0.44
-0.45
-0.455
-0.455
-0.44
-0.44
-0.44
-0.44
-0.445
-0.435
-0.445
-0.445
-0.45
-0.455
-0.455
-0.465
-0.485
-0.52
-0.555
-0.55
-0.485
-0.33
-0.085
0.215
0.55
0.915
1.2
1.295
1.105
0.755
0.42
0.21
0.135
0.08
-0.025
-0.155
-0.27
-0.32
-0.305
-0.33
-0.365
-0.39
-0.425
-0.465
-0.475
-0.475
-0.465
-0.47
-0.485
-0.51
-0.52
-0.51
-0.495
-0.495
-0.505
-0.51
-0.51
-0.505
-0.5
-0.51
-0.5
-0.51
-0.515
-0.51
-0.5
-0.52
-0.515
-0.515
-0.515
-0.51
-0.52
-0.51
-0.52
-0.535
-0.505
-0.505
-0.515
-0.51
-0.525
-0.53
-0.515
-0.515
-0.505
-0.505
-0.52
-0.54
-0.525
-0.51
-0.495
-0.505
-0.515
-0.515
-0.51
-0.5
-0.5
-0.51
-0.52
-0.535
-0.515
-0.5
-0.495
-0.485
-0.49
-0.49
-0.485
-0.47
-0.46
-0.465
-0.47
-0.47
-0.46
-0.455
-0.43
-0.43
-0.425
-0.43
-0.405
-0.39
-0.37
-0.37
-0.365
-0.36
-0.35
-0.33
-0.31
-0.305
-0.31
-0.3
-0.285
-0.255
-0.23
-0.235
-0.24
-0.235
-0.23
-0.22
-0.205
-0.19
-0.2
-0.205
-0.195
-0.18
-0.195
-0.19
-0.2
-0.225
-0.23
-0.23
-0.235
-0.25
-0.27
-0.28
-0.295
-0.295
-0.31
-0.325
-0.35
-0.365
-0.365
-0.37
-0.375
-0.39
-0.42
-0.435
-0.435
-0.43
-0.425
-0.43
-0.45
-0.46
-0.45
-0.445
-0.45
-0.445
-0.46
-0.47
-0.475
-0.48
-0.47
-0.465
-0.48
-0.485
-0.48
-0.47
-0.465
-0.47
-0.48
-0.495
-0.48
-0.475
-0.465
-0.47
-0.48
-0.485
-0.485
-0.475
-0.475
-0.485
-0.47
-0.485
-0.485
-0.47
-0.46
-0.45
-0.47
-0.475
-0.47
-0.46
-0.455
-0.45
-0.455
-0.47
-0.46
-0.455
-0.44
-0.445
-0.46
-0.465
-0.455
-0.445
-0.44
-0.445
-0.455
-0.45
-0.455
-0.44
-0.43
-0.44
-0.445
-0.46
-0.455
-0.455
-0.43
-0.43
-0.445
-0.445
-0.44
-0.44
-0.43
-0.43
-0.46
-0.46
-0.46
-0.455
-0.435
-0.425
-0.435
-0.445
-0.445
-0.44
-0.435
-0.45
-0.435
-0.445
-0.46
-0.445
-0.435
-0.425
-0.445
-0.435
-0.435
-0.435
-0.435
-0.425
-0.435
-0.445
-0.445
-0.435
-0.43
-0.42
-0.445
-0.45
-0.435
-0.415
-0.41
-0.415
-0.43
-0.445
-0.44
-0.43
-0.42
-0.415
-0.435
-0.45
-0.44
-0.435
-0.425
-0.425
-0.43
-0.445
-0.445
-0.445
-0.435
-0.44
-0.44
-0.435
-0.435
-0.425
-0.415
-0.42
-0.44
-0.425
-0.43
-0.415
-0.43
-0.425
-0.435
-0.435
-0.425
-0.42
-0.395
-0.405
-0.405
-0.405
-0.395
-0.375
-0.365
-0.365
-0.38
-0.385
-0.375
-0.375
-0.365
-0.35
-0.355
-0.345
-0.33
-0.3
-0.275
-0.255
-0.28
-0.295
-0.295
-0.3
-0.3
-0.31
-0.31
-0.325
-0.32
-0.31
-0.315
-0.33
-0.335
-0.345
-0.335
-0.335
-0.345
-0.37
-0.405
-0.42
-0.43
-0.425
-0.43
-0.425
-0.425
-0.44
-0.44
-0.43
-0.425
-0.43
-0.44
-0.455
-0.445
-0.43
-0.425
-0.435
-0.445
-0.445
-0.44
-0.43
-0.425
-0.43
-0.42
-0.44
-0.44
-0.455
-0.485
-0.5
-0.53
-0.535
-0.505
-0.43
-0.28
-0.065
0.18
0.46
0.83
1.16
1.335
1.32
1.095
0.775
0.48
0.3
0.2
0.165
0.065
-0.055
-0.155
-0.185
-0.21
-0.26
-0.315
-0.37
-0.39
-0.4
-0.425
-0.44
-0.455
-0.46
-0.46
-0.46
-0.46
-0.465
-0.48
-0.495
-0.47
-0.475
-0.47
-0.48
-0.49
-0.495
-0.485
-0.48
-0.47
-0.475
-0.48
-0.495
-0.495
-0.485
-0.475
-0.48
-0.485
-0.49
-0.495
-0.485
-0.47
-0.475
-0.48
-0.475
-0.475
-0.485
-0.48
-0.465
-0.47
-0.49
-0.49
-0.495
-0.475
-0.47
-0.485
-0.495
-0.475
-0.47
-0.455
-0.485
-0.475
-0.485
-0.475
-0.465
-0.46
-0.465
-0.465
-0.455
-0.455
-0.44
-0.435
-0.43
-0.435
-0.44
-0.425
-0.405
-0.385
-0.38
-0.38
-0.38
-0.365
-0.345
-0.33
-0.325
-0.32
-0.31
-0.295
-0.27
-0.255
-0.245
-0.245
-0.25
-0.24
-0.22
-0.2
-0.175
-0.19
-0.18
-0.18
-0.155
-0.15
-0.145
-0.13
-0.145
-0.12
-0.12
-0.115
-0.12
-0.13
-0.14
-0.14
-0.145
-0.14
-0.16
-0.195
-0.205
-0.21
-0.22
-0.235
-0.255
-0.275
-0.3
-0.295
-0.3
-0.3
-0.315
-0.345
-0.365
-0.365
-0.355
-0.36
-0.36
-0.375
-0.39
-0.385
-0.375
-0.375
-0.375
-0.395
-0.405
-0.41
-0.41
-0.385
-0.395
-0.4
-0.415
-0.41
-0.41
-0.405
-0.4
-0.41
-0.42
-0.42
-0.41
-0.4
-0.405
-0.41
-0.42
-0.42
-0.41
-0.405
-0.41
-0.405
-0.42
-0.415
-0.41
-0.41
-0.405
-0.405
-0.41
-0.41
-0.39
-0.385
-0.39
-0.395
-0.41
-0.4
-0.39
-0.385
-0.395
-0.39
-0.395
-0.385
-0.38
-0.385
-0.385
-0.38
-0.385
-0.385
-0.38
-0.375
-0.38
-0.385
-0.4
-0.39
-0.37
-0.37
-0.37
-0.38
-0.39
-0.395
-0.38
-0.375
-0.375
-0.385
-0.385
-0.385
-0.37
-0.36
-0.375
-0.37
-0.385
-0.385
-0.37
-0.365
-0.36
-0.36
-0.375
-0.365
-0.38
-0.37
-0.355
-0.36
-0.365
-0.365
-0.365
-0.36
-0.365
-0.37
-0.385
-0.37
-0.365
-0.35
-0.36
-0.375
-0.365
-0.37
-0.36
-0.355
-0.355
-0.37
-0.375
-0.365
-0.36
-0.355
-0.355
-0.365
-0.365
-0.36
-0.36
-0.34
-0.35
-0.365
-0.365
-0.36
-0.37
-0.355
-0.355
-0.365
-0.37
-0.375
-0.37
-0.355
-0.355
-0.365
-0.365
-0.36
-0.355
-0.355
-0.345
-0.355
-0.365
-0.355
-0.34
-0.34
-0.345
-0.36
-0.37
-0.35
-0.35
-0.325
-0.335
-0.34
-0.35
-0.35
-0.325
-0.32
-0.32
-0.32
-0.325
-0.305
-0.295
-0.3
-0.295
-0.305
-0.31
-0.295
-0.285
-0.28
-0.26
-0.25
-0.245
-0.215
-0.2
-0.195
-0.21
-0.235
-0.245
-0.24
-0.23
-0.235
-0.245
-0.25
-0.255
-0.26
-0.255
-0.265
-0.265
-0.275
-0.305
-0.315
-0.32
-0.325
-0.34
-0.355
-0.365
-0.36
-0.35
-0.35
-0.345
-0.36
-0.365
-0.355
-0.35
-0.35
-0.35
-0.365
-0.375
-0.385
-0.365
-0.355
-0.365
-0.36
-0.37
-0.355
-0.36
-0.36
-0.375
-0.42
-0.46
-0.465
-0.445
-0.375
-0.205
0.025
0.3
0.64
0.995
1.29
1.425
1.35
1.08
0.75
0.505
0.34
0.265
0.225
0.13
0.005
-0.07
-0.1
-0.13
-0.2
-0.27
-0.28
-0.305
-0.325
-0.36
-0.395
-0.385
-0.385
-0.38
-0.385
-0.395
-0.4
-0.425
-0.42
-0.42
-0.41
-0.41
-0.41
-0.42
-0.42
-0.42
-0.41
-0.415
-0.41
-0.42
-0.415
-0.405
-0.41
-0.405
-0.42
-0.425
-0.42
-0.41
-0.405
-0.415
-0.425
-0.425
-0.415
-0.41
-0.41
-0.4
-0.415
-0.415
-0.42
-0.405
-0.4
-0.41
-0.415
-0.425
-0.42
-0.41
-0.41
-0.41
-0.415
-0.43
-0.415
-0.395
-0.395
-0.39
-0.395
-0.41
-0.395
-0.39
-0.37
-0.37
-0.37
-0.365
-0.36
-0.355
-0.34
-0.33
-0.33
-0.33
-0.32
-0.3
-0.29
-0.285
-0.28
-0.275
-0.26
-0.245
-0.23
-0.22
-0.22
-0.22
-0.2
-0.18
-0.16
-0.15
-0.145
-0.145
-0.135
-0.11
-0.11
-0.095
-0.105
-0.095
-0.09
-0.08
-0.065
-0.055
-0.07
-0.08
-0.075
-0.07
-0.06
-0.07
-0.085
-0.095
-0.115
-0.12
-0.125
-0.135
-0.15
-0.185
-0.195
-0.205
-0.205
-0.23
-0.245
-0.27
-0.275
-0.285
-0.285
-0.29
-0.31
-0.315
-0.31
-0.3
-0.3
-0.315
-0.325
-0.34
-0.335
-0.325
-0.33
-0.335
-0.345
-0.36
-0.35
-0.355
-0.35
-0.34
-0.35
-0.355
-0.345
-0.35
-0.335
-0.35
-0.365
-0.38
-0.365
-0.35
-0.36
-0.37
-0.36
-0.375
-0.37
-0.355
-0.355
-0.36
-0.355
-0.37
-0.365
-0.365
-0.355
-0.36
-0.37
-0.375
-0.36
-0.355
-0.335
-0.345
-0.345
-0.36
-0.355
-0.345
-0.345
-0.34
-0.34
-0.345
-0.335
-0.33
-0.325
-0.335
-0.335
-0.345
-0.34
-0.325
-0.34
-0.33
-0.34
-0.345
-0.34
-0.335
-0.33
-0.335
-0.335
-0.345
-0.335
-0.32
-0.33
-0.325
-0.34
-0.345
-0.33
-0.325
-0.32
-0.325
-0.335
-0.345
-0.335
-0.335
-0.335
-0.33
-0.34
-0.345
-0.335
-0.33
-0.33
-0.335
-0.345
-0.355
-0.35
-0.325
-0.34
-0.335
-0.335
-0.35
-0.345
-0.325
-0.32
-0.33
-0.335
-0.34
-0.35
-0.345
-0.325
-0.345
-0.345
-0.35
-0.345
-0.33
-0.33
-0.33
-0.345
-0.345
-0.34
-0.33
-0.325
-0.335
-0.34
-0.345
-0.345
-0.33
-0.325
-0.335
-0.345
-0.35
-0.34
-0.325
-0.335
-0.335
-0.345
-0.345
-0.34
-0.33
-0.33
-0.325
-0.33
-0.35
-0.345
-0.33
-0.325
-0.33
-0.34
-0.33
-0.33
-0.315
-0.29
-0.285
-0.295
-0.31
-0.315
-0.305
-0.295
-0.29
-0.29
-0.295
-0.27
-0.25
-0.23
-0.21
-0.195
-0.205
-0.205
-0.225
-0.235
-0.235
-0.235
-0.25
-0.25
-0.245
-0.25
-0.265
-0.275
-0.295
-0.285
-0.28
-0.285
-0.305
-0.33
-0.35
-0.35
-0.355
-0.35
-0.355
-0.37
-0.37
-0.37
-0.35
-0.34
-0.35
-0.37
-0.385
-0.375
-0.355
-0.34
-0.355
-0.38
-0.385
-0.375
-0.36
-0.345
-0.355
-0.38
-0.425
-0.44
-0.445
-0.43
-0.365
-0.215
0.005
0.31
0.645
0.98
1.245
1.28
1.065
0.725
0.435
0.265
0.195
0.14
0.035
-0.095
-0.165
-0.195
-0.225
-0.285
-0.345
-0.355
-0.375
-0.385
-0.39
-0.385
-0.39
-0.405
-0.41
-0.42
-0.415
-0.435
-0.435
-0.435
-0.42
-0.425
-0.435
-0.435
-0.435
-0.445
-0.435
-0.435
-0.43
-0.435
-0.425
-0.42
-0.415
-0.415
-0.425
-0.435
-0.43
-0.43
-0.42
-0.42
-0.42
-0.43
-0.435
-0.43
-0.42
-0.425
-0.42
-0.43
-0.445
-0.44
-0.425
-0.415
-0.42
-0.425
-0.43
-0.42
-0.415
-0.395
-0.4
-0.41
-0.43
-0.415
-0.415
-0.41
-0.42
-0.415
-0.42
-0.4
-0.38
-0.38
-0.375
-0.39
-0.395
-0.39
-0.36
-0.34
-0.33
-0.335
-0.345
-0.33
-0.295
-0.28
-0.28
-0.27
-0.27
-0.26
-0.23
-0.215
-0.215
-0.205
-0.205
-0.185
-0.17
-0.16
-0.15
-0.155
-0.155
-0.145
-0.13
-0.12
-0.12
-0.11
-0.11
-0.125
-0.125
-0.115
-0.12
-0.14
-0.155
-0.145
-0.15
-0.155
-0.165
-0.185
-0.215
-0.215
-0.23
-0.225
-0.255
-0.285
-0.305
-0.305
-0.29
-0.285
-0.29
-0.315
-0.33
-0.33
-0.33
-0.33
-0.34
-0.34
-0.36
-0.36
-0.35
-0.34
-0.345
-0.365
-0.375
-0.375
-0.355
-0.36
-0.355
-0.355
-0.37
-0.375
-0.36
-0.37
-0.375
-0.375
-0.38
-0.375
-0.37
-0.375
-0.38
-0.38
-0.39
-0.375
-0.36
-0.36
-0.37
-0.365
-0.37
-0.36
-0.36
-0.36
-0.35
-0.36
-0.37
-0.355
-0.345
-0.34
-0.345
-0.355
-0.36
-0.355
-0.345
-0.335
-0.345
-0.34
-0.345
-0.34
-0.325
-0.33
-0.335
-0.335
-0.335
-0.345
-0.345
-0.34
-0.33
-0.33
-0.355
-0.335
-0.335
-0.325
-0.33
-0.345
-0.35
-0.35
-0.35
-0.325
-0.33
-0.345
-0.36
-0.35
-0.34
-0.335
-0.345
-0.345
-0.355
-0.355
-0.355
-0.35
-0.34
-0.345
-0.35
-0.34
-0.335
-0.345
-0.34
-0.345
-0.36
-0.345
-0.34
-0.355
-0.34
-0.345
-0.37
-0.35
-0.355
-0.35
-0.34
-0.345
-0.345
-0.345
-0.35
-0.355
-0.355
-0.355
-0.375
-0.375
-0.355
-0.34
-0.35
-0.365
-0.38
-0.36
-0.355
-0.355
-0.36
-0.37
-0.37
-0.37
-0.365
-0.36
-0.36
-0.36
-0.37
-0.36
-0.35
-0.33
-0.34
-0.35
-0.335
-0.335
-0.305
-0.295
-0.31
-0.32
-0.345
-0.32
-0.305
-0.285
-0.275
-0.27
-0.26
-0.235
-0.23
-0.23
-0.25
-0.26
-0.29
-0.27
-0.28
-0.28
-0.29
-0.3
-0.305
-0.31
-0.305
-0.31
-0.315
-0.325
-0.35
-0.355
-0.37
-0.38
-0.385
-0.4
-0.405
-0.42
-0.41
-0.41
-0.405
-0.41
-0.435
-0.43
-0.415
-0.415
-0.41
-0.425
-0.43
-0.42
-0.41
-0.41
-0.41
-0.425
-0.43
-0.43
-0.425
-0.43
-0.465
-0.49
-0.52
-0.52
-0.47
-0.335
-0.12
0.15
0.46
0.835
1.175
1.365
1.295
1.0
0.62
0.33
0.195
0.16
0.08
-0.06
-0.18
-0.225
-0.25
-0.29
-0.34
-0.38
-0.425
-0.44
-0.46
-0.46
-0.46
-0.47
-0.485
-0.48
-0.48
-0.475
-0.485
-0.495
-0.51
-0.51
-0.485
-0.485
-0.49
-0.49
-0.495
-0.49
-0.495
-0.495
-0.5
-0.495
-0.51
-0.5
-0.49
-0.485
-0.49
-0.505
-0.51
-0.51
-0.505
-0.49
-0.495
-0.505
-0.515
-0.51
-0.5
-0.5
-0.51
-0.515
-0.525
-0.515
-0.505
-0.495
-0.5
-0.5
-0.515
-0.505
-0.5
-0.49
-0.5
-0.51
-0.51
-0.495
-0.5
-0.49
-0.475
-0.48
-0.495
-0.48
-0.475
-0.47
-0.465
-0.475
-0.475
-0.46
-0.45
-0.44
-0.445
-0.435
-0.435
-0.415
-0.4
-0.375
-0.37
-0.365
-0.355
-0.355
-0.34
-0.315
-0.315
-0.3
-0.305
-0.285
-0.265
-0.255
-0.25
-0.25
-0.25
-0.23
-0.215
-0.195
-0.2
-0.205
-0.2
-0.185
-0.195
-0.17
-0.185
-0.2
-0.195
-0.2
-0.205
-0.21
-0.22
-0.235
-0.26
-0.27
-0.275
-0.29
-0.3
-0.335
-0.36
-0.37
-0.375
-0.375
-0.39
-0.415
-0.425
-0.43
-0.43
-0.43
-0.44
-0.445
-0.465
-0.455
-0.445
-0.44
-0.455
-0.46
-0.475
-0.48
-0.465
-0.465
-0.46
-0.48
-0.495
-0.495
-0.5
-0.48
-0.475
-0.485
-0.505
-0.495
-0.485
-0.485
-0.48
-0.5
-0.505
-0.505
-0.495
-0.495
-0.49
-0.505
-0.505
-0.5
-0.49
-0.485
-0.49
-0.5
-0.51
-0.505
-0.495
-0.485
-0.495
-0.495
-0.495
-0.495
-0.485
-0.465
-0.475
-0.485
-0.505
-0.485
-0.475
-0.47
-0.475
-0.485
-0.5
-0.48
-0.475
-0.47
-0.475
-0.485
-0.5
-0.48
-0.475
-0.47
-0.465
-0.465
-0.485
-0.48
-0.47
-0.465
-0.47
-0.48
-0.48
-0.475
-0.465
-0.465
-0.475
-0.485
-0.49
-0.485
-0.48
-0.47
-0.465
-0.485
-0.485
-0.49
-0.485
-0.475
-0.47
-0.47
-0.485
-0.475
-0.47
-0.485
-0.475
-0.49
-0.485
-0.475
-0.475
-0.475
-0.475
-0.48
-0.495
-0.49
-0.47
-0.485
-0.48
-0.475
-0.495
-0.48
-0.485
-0.48
-0.475
-0.49
-0.495
-0.485
-0.48
-0.485
-0.48
-0.485
-0.49
-0.49
-0.475
-0.47
-0.475
-0.475
-0.495
-0.485
-0.48
-0.47
-0.475
-0.485
-0.49
-0.48
-0.455
-0.465
-0.465
-0.475
-0.475
-0.465
-0.465
-0.45
-0.455
-0.44
-0.45
-0.43
-0.425
-0.41
-0.405
-0.425
-0.42
-0.415
-0.4
-0.38
-0.38
-0.36
-0.35
-0.335
-0.315
-0.34
-0.345
-0.35
-0.36
-0.37
-0.36
-0.37
-0.365
-0.37
-0.385
-0.4
-0.39
-0.405
-0.42
-0.43
-0.46
-0.455
-0.465
-0.47
-0.475
-0.485
-0.495
-0.485
-0.47
-0.475
-0.47
-0.49
-0.5
-0.49
-0.48
-0.48
-0.485
-0.495
-0.505
-0.495
-0.49
-0.48
-0.485
-0.485
-0.49
-0.5
-0.485
-0.505
-0.53
-0.575
-0.605
-0.555
-0.435
-0.225
0.055
0.375
0.735
1.11
1.325
1.29
1.01
0.63
0.32
0.165
0.125
0.09
-0.01
-0.135
-0.205
-0.245
-0.3
-0.345
-0.39
-0.43
-0.48
-0.48
-0.495
-0.48
-0.49
-0.5
-0.515
-0.505
-0.505
-0.505
-0.51
-0.52
-0.52
-0.52
-0.505
-0.51
-0.51
-0.505
-0.525
-0.525
-0.515
-0.51
-0.525
-0.525
-0.535
-0.53
-0.52
-0.525
-0.52
-0.53
-0.545
-0.535
-0.535
-0.52
-0.52
-0.525
-0.55
-0.525
-0.515
-0.525
-0.52
-0.525
-0.53
-0.515
-0.52
-0.515
-0.51
-0.52
-0.52
-0.515
-0.505
-0.5
-0.5
-0.5
-0.51
-0.5
-0.485
-0.48
-0.475
-0.485
-0.48
-0.47
-0.455
-0.445
-0.44
-0.435
-0.44
-0.43
-0.42
-0.405
-0.4
-0.395
-0.395
-0.365
-0.35
-0.34
-0.34
-0.325
-0.325
-0.3
-0.28
-0.255
-0.255
-0.24
-0.235
-0.22
-0.205
-0.185
-0.175
-0.165
-0.185
-0.17
-0.155
-0.145
-0.15
-0.155
-0.16
-0.155
-0.155
-0.155
-0.165
-0.175
-0.2
-0.21
-0.21
-0.22
-0.24
-0.27
-0.295
-0.29
-0.295
-0.32
-0.325
-0.355
-0.385
-0.39
-0.375
-0.38
-0.395
-0.41
-0.42
-0.42
-0.42
-0.42
-0.415
-0.425
-0.44
-0.42
-0.425
-0.42
-0.435
-0.44
-0.45
-0.44
-0.435
-0.435
-0.44
-0.435
-0.45
-0.45
-0.445
-0.435
-0.45
-0.46
-0.46
-0.445
-0.435
-0.435
-0.445
-0.445
-0.445
-0.45
-0.43
-0.435
-0.44
-0.45
-0.465
-0.46
-0.445
-0.45
-0.43
-0.445
-0.45
-0.45
-0.435
-0.435
-0.435
-0.43
-0.445
-0.435
-0.425
-0.415
-0.425
-0.44
-0.425
-0.42
-0.41
-0.415
-0.42
-0.435
-0.43
-0.42
-0.42
-0.405
-0.405
-0.405
-0.42
-0.43
-0.41
-0.4
-0.425
-0.42
-0.425
-0.42
-0.415
-0.41
-0.405
-0.42
-0.425
-0.425
-0.415
-0.405
-0.415
-0.415
-0.43
-0.425
-0.415
-0.415
-0.42
-0.41
-0.425
-0.425
-0.41
-0.405
-0.405
-0.42
-0.4
-0.415
-0.405
-0.395
-0.4
-0.405
-0.42
-0.415
-0.395
-0.395
-0.4
-0.405
-0.405
-0.405
-0.405
-0.4
-0.4
-0.415
-0.415
-0.4
-0.4
-0.385
-0.395
-0.4
-0.405
-0.4
-0.405
-0.395
-0.395
-0.4
-0.41
-0.4
-0.395
-0.4
-0.405
-0.4
-0.41
-0.405
-0.395
-0.39
-0.41
-0.405
-0.41
-0.4
-0.395
-0.385
-0.395
-0.405
-0.415
-0.41
-0.395
-0.405
-0.4
-0.395
-0.39
-0.375
-0.375
-0.355
-0.37
-0.36
-0.35
-0.35
-0.335
-0.33
-0.335
-0.345
-0.36
-0.355
-0.325
-0.31
-0.28
-0.285
-0.265
-0.245
-0.24
-0.235
-0.25
-0.275
-0.285
-0.28
-0.28
-0.275
-0.29
-0.3
-0.305
-0.295
-0.295
-0.29
-0.305
-0.33
-0.36
-0.365
-0.365
-0.36
-0.365
-0.385
-0.395
-0.39
-0.38
-0.375
-0.38
-0.39
-0.405
-0.39
-0.385
-0.39
-0.395
-0.41
-0.41
-0.4
-0.385
-0.38
-0.395
-0.39
-0.39
-0.385
-0.385
-0.395
-0.41
-0.435
-0.47
-0.47
-0.45
-0.365
-0.19
0.035
0.305
0.63
0.99
1.28
1.38
1.22
0.89
0.565
0.34
0.22
0.17
0.115
-0.005
-0.11
-0.175
-0.215
-0.26
-0.32
-0.365
-0.385
-0.415
-0.41
-0.425
-0.42
-0.43
-0.42
-0.42
-0.435
-0.435
-0.435
-0.44
-0.44
-0.43
-0.425
-0.435
-0.44
-0.445
-0.44
-0.435
-0.425
-0.435
-0.445
-0.45
-0.445
-0.43
-0.425
-0.435
-0.445
-0.445
-0.45
-0.445
-0.43
-0.44
-0.445
-0.445
-0.45
-0.425
-0.425
-0.43
-0.43
-0.435
-0.435
-0.425
-0.42
-0.425
-0.44
-0.445
-0.45
-0.425
-0.42
-0.43
-0.435
-0.435
-0.43
-0.415
-0.42
-0.41
-0.425
-0.415
-0.415
-0.405
-0.395
-0.39
-0.39
-0.4
-0.385
-0.38
-0.355
-0.35
-0.355
-0.355
-0.33
-0.32
-0.315
-0.305
-0.305
-0.315
-0.29
-0.28
-0.26
-0.25
-0.24
-0.24
-0.225
-0.21
-0.19
-0.18
-0.17
-0.18
-0.155
-0.145
-0.13
-0.12
-0.11
-0.11
-0.095
-0.09
-0.075
-0.09
-0.08
-0.095
-0.09
-0.09
-0.09
-0.105
-0.115
-0.14
-0.14
-0.145
-0.16
-0.17
-0.175
-0.2
-0.205
-0.22
-0.21
-0.22
-0.255
-0.28
-0.285
-0.275
-0.28
-0.285
-0.29
-0.3
-0.305
-0.305
-0.3
-0.305
-0.305
-0.31
-0.315
-0.315
-0.31
-0.32
-0.33
-0.335
-0.33
-0.32
-0.32
-0.33
-0.34
-0.35
-0.34
-0.325
-0.335
-0.325
-0.34
-0.35
-0.335
-0.335
-0.32
-0.34
-0.345
-0.35
-0.345
-0.335
-0.335
-0.335
-0.345
-0.35
-0.33
-0.325
-0.31
-0.325
-0.325
-0.32
-0.31
-0.31
-0.315
-0.32
-0.315
-0.315
-0.32
-0.3
-0.3
-0.31
-0.305
-0.31
-0.3
-0.295
-0.295
-0.3
-0.29
-0.3
-0.3
-0.285
-0.265
-0.28
-0.29
-0.295
-0.305
-0.295
-0.29
-0.28
-0.285
-0.31
-0.305
-0.285
-0.275
-0.29
-0.29
-0.295
-0.28
-0.28
-0.275
-0.29
-0.305
-0.305
-0.3
-0.295
-0.28
-0.275
-0.285
-0.305
-0.29
-0.285
-0.28
-0.275
-0.295
-0.29
-0.29
-0.285
-0.285
-0.275
-0.28
-0.29
-0.29
-0.27
-0.27
-0.285
-0.295
-0.3
-0.285
-0.28
-0.28
-0.285
-0.29
-0.285
-0.275
-0.265
-0.26
-0.27
-0.28
-0.295
-0.29
-0.285
-0.27
-0.275
-0.285
-0.3
-0.29
-0.28
-0.275
-0.27
-0.28
-0.29
-0.28
-0.27
-0.265
-0.27
-0.28
-0.29
-0.29
-0.275
-0.275
-0.26
-0.27
-0.28
-0.275
-0.28
-0.25
-0.25
-0.26
-0.27
-0.255
-0.245
-0.23
-0.225
-0.22
-0.225
-0.22
-0.225
-0.225
-0.215
-0.22
-0.22
-0.195
-0.19
-0.155
-0.135
-0.13
-0.13
-0.13
-0.125
-0.14
-0.15
-0.17
-0.185
-0.19
-0.185
-0.165
-0.18
-0.195
-0.205
-0.205
-0.21
-0.2
-0.205
-0.215
-0.225
-0.23
-0.245
-0.25
-0.265
-0.285
-0.295
-0.3
-0.285
-0.285
-0.29
-0.29
-0.3
-0.305
-0.31
-0.305
-0.3
-0.29
-0.3
-0.31
-0.295
-0.285
-0.295
-0.305
-0.31
-0.295
-0.285
-0.275
-0.295
-0.315
-0.34
-0.39
-0.395
-0.39
-0.35
-0.265
-0.11
0.13
0.405
0.715
1.045
1.315
1.485
1.475
1.285
0.98
0.66
0.45
0.325
0.265
0.215
0.12
-0.005
-0.095
-0.125
-0.15
-0.185
-0.245
-0.275
-0.295
-0.315
-0.33
-0.34
-0.335
-0.325
-0.34
-0.37
-0.365
-0.36
-0.35
-0.36
-0.355
-0.37
-0.36
-0.355
-0.365
-0.37
-0.385
-0.385
-0.38
-0.375
-0.37
-0.38
-0.39
-0.39
-0.385
-0.38
-0.375
