Lead II
-0.25
-0.235
-0.23
-0.245
-0.26
-0.28
-0.305
-0.295
-0.285
-0.285
-0.285
-0.295
-0.31
-0.3
-0.3
-0.305
-0.325
-0.32
-0.325
-0.325
-0.315
-0.315
-0.335
-0.33
-0.325
-0.31
-0.305
-0.305
-0.315
-0.33
-0.325
-0.325
-0.33
-0.325
-0.33
-0.325
-0.33
-0.33
-0.32
-0.315
-0.315
-0.33
-0.33
-0.32
-0.305
-0.315
-0.325
-0.335
-0.34
-0.34
-0.32
-0.32
-0.325
-0.34
-0.355
-0.355
-0.34
-0.34
-0.345
-0.355
-0.365
-0.365
-0.35
-0.345
-0.34
-0.34
-0.34
-0.34
-0.33
-0.325
-0.33
-0.34
-0.355
-0.345
-0.335
-0.34
-0.355
-0.355
-0.355
-0.34
-0.33
-0.33
-0.325
-0.33
-0.3
-0.265
-0.23
-0.23
-0.245
-0.28
-0.285
-0.28
-0.235
-0.18
-0.17
-0.17
-0.16
-0.135
-0.12
-0.105
-0.09
-0.105
-0.125
-0.135
-0.145
-0.155
-0.18
-0.225
-0.27
-0.32
-0.35
-0.38
-0.4
-0.415
-0.425
-0.41
-0.395
-0.4
-0.405
-0.42
-0.435
-0.415
-0.39
-0.38
-0.37
-0.375
-0.375
-0.365
-0.355
-0.355
-0.36
-0.365
-0.365
-0.35
-0.34
-0.325
-0.33
-0.34
-0.34
-0.34
-0.32
-0.275
-0.19
-0.055
0.135
0.33
0.51
0.695
0.86
0.98
1.06
1.125
1.125
1.01
0.765
0.48
0.3
0.24
0.195
0.075
-0.07
-0.165
-0.19
-0.245
-0.305
-0.35
-0.395
-0.43
-0.47
-0.48
-0.495
-0.51
-0.52
-0.52
-0.53
-0.525
-0.515
-0.5
-0.51
-0.52
-0.52
-0.51
-0.49
-0.475
-0.485
-0.49
-0.5
-0.485
-0.49
-0.465
-0.465
-0.475
-0.48
-0.455
-0.45
-0.44
-0.455
-0.47
-0.47
-0.465
-0.46
-0.455
-0.455
-0.45
-0.455
-0.445
-0.44
-0.45
-0.465
-0.48
-0.485
-0.46
-0.45
-0.45
-0.455
-0.455
-0.47
-0.47
-0.455
-0.445
-0.44
-0.43
-0.435
-0.405
-0.41
-0.415
-0.415
-0.42
-0.385
-0.36
-0.35
-0.335
-0.34
-0.345
-0.33
-0.3
-0.27
-0.25
-0.25
-0.25
-0.24
-0.21
-0.19
-0.175
-0.175
-0.195
-0.19
-0.195
-0.19
-0.19
-0.195
-0.225
-0.24
-0.235
-0.225
-0.225
-0.235
-0.245
-0.27
-0.25
-0.265
-0.255
-0.27
-0.285
-0.285
-0.285
-0.28
-0.29
-0.3
-0.3
-0.295
-0.265
-0.255
-0.27
-0.275
-0.305
-0.29
-0.285
-0.275
-0.265
-0.28
-0.28
-0.285
-0.285
-0.26
-0.265
-0.295
-0.295
-0.305
-0.29
-0.265
-0.27
-0.275
-0.295
-0.295
-0.29
-0.28
-0.28
-0.285
-0.295
-0.305
-0.31
-0.285
-0.295
-0.29
-0.295
-0.31
-0.31
-0.305
-0.305
-0.305
-0.31
-0.305
-0.3
-0.305
-0.29
-0.29
-0.305
-0.315
-0.3
-0.29
-0.295
-0.31
-0.31
-0.315
-0.3
-0.3
-0.29
-0.285
-0.3
-0.305
-0.27
-0.24
-0.21
-0.205
-0.2
-0.235
-0.235
-0.21
-0.185
-0.175
-0.165
-0.145
-0.12
-0.1
-0.08
-0.075
-0.085
-0.105
-0.11
-0.105
-0.125
-0.135
-0.175
-0.225
-0.285
-0.33
-0.365
-0.375
-0.375
-0.385
-0.375
-0.38
-0.385
-0.39
-0.385
-0.375
-0.37
-0.365
-0.37
-0.37
-0.38
-0.38
-0.36
-0.35
-0.35
-0.35
-0.35
-0.355
-0.34
-0.33
-0.325
-0.325
-0.33
-0.335
-0.34
-0.32
-0.3
-0.245
-0.15
0.015
0.225
0.455
0.66
0.855
1.0
1.095
1.125
1.07
0.865
0.585
0.365
0.295
0.295
0.25
0.115
-0.035
-0.12
-0.17
-0.215
-0.265
-0.315
-0.355
-0.385
-0.435
-0.475
-0.495
-0.5
-0.505
-0.52
-0.515
-0.51
-0.515
-0.51
-0.51
-0.52
-0.51
-0.5
-0.47
-0.47
-0.465
-0.475
-0.485
-0.48
-0.46
-0.45
-0.455
-0.46
-0.475
-0.465
-0.455
-0.45
-0.45
-0.465
-0.465
-0.46
-0.455
-0.455
-0.45
-0.45
-0.45
-0.425
-0.415
-0.42
-0.425
-0.445
-0.435
-0.415
-0.41
-0.42
-0.445
-0.45
-0.455
-0.445
-0.425
-0.425
-0.42
-0.435
-0.45
-0.435
-0.415
-0.39
-0.39
-0.385
-0.385
-0.37
-0.36
-0.35
-0.34
-0.335
-0.31
-0.3
-0.285
-0.265
-0.245
-0.23
-0.23
-0.2
-0.2
-0.195
-0.195
-0.2
-0.2
-0.18
-0.16
-0.175
-0.19
-0.18
-0.19
-0.2
-0.21
-0.215
-0.245
-0.26
-0.285
-0.29
-0.29
-0.3
-0.305
-0.325
-0.32
-0.31
-0.29
-0.3
-0.3
-0.31
-0.32
-0.31
-0.305
-0.305
-0.325
-0.325
-0.33
-0.335
-0.335
-0.335
-0.35
-0.36
-0.365
-0.345
-0.325
-0.34
-0.355
-0.375
-0.37
-0.345
-0.325
-0.31
-0.32
-0.33
-0.35
-0.335
-0.32
-0.31
-0.31
-0.31
-0.315
-0.295
-0.29
-0.29
-0.305
-0.31
-0.31
-0.305
-0.31
-0.3
-0.31
-0.31
-0.305
-0.28
-0.26
-0.285
-0.31
-0.31
-0.3
-0.295
-0.305
-0.305
-0.295
-0.305
-0.31
-0.295
-0.285
-0.29
-0.29
-0.27
-0.265
-0.25
-0.26
-0.255
-0.245
-0.23
-0.205
-0.18
-0.185
-0.205
-0.195
-0.19
-0.175
-0.15
-0.115
-0.09
-0.075
-0.055
-0.05
-0.055
-0.055
-0.065
-0.08
-0.105
-0.125
-0.165
-0.195
-0.265
-0.32
-0.355
-0.365
-0.355
-0.335
-0.345
-0.36
-0.355
-0.36
-0.35
-0.35
-0.345
-0.35
-0.36
-0.355
-0.335
-0.34
-0.35
-0.35
-0.365
-0.37
-0.35
-0.335
-0.34
-0.335
-0.345
-0.345
-0.35
-0.35
-0.345
-0.355
-0.32
-0.235
-0.06
0.145
0.365
0.565
0.77
0.95
1.06
1.11
1.115
1.03
0.8
0.52
0.32
0.25
0.195
0.09
-0.04
-0.135
-0.195
-0.245
-0.31
-0.39
-0.445
-0.49
-0.515
-0.53
-0.555
-0.56
-0.56
-0.555
-0.57
-0.565
-0.585
-0.61
-0.615
-0.605
-0.59
-0.57
-0.565
-0.59
-0.6
-0.6
-0.59
-0.6
-0.585
-0.59
-0.585
-0.585
-0.58
-0.58
-0.59
-0.58
-0.57
-0.585
-0.585
-0.585
-0.59
-0.585
-0.6
-0.605
-0.595
-0.585
-0.59
-0.6
-0.605
-0.6
-0.585
-0.585
-0.595
-0.615
-0.61
-0.6
-0.58
-0.58
-0.6
-0.59
-0.6
-0.585
-0.58
-0.565
-0.555
-0.56
-0.555
-0.555
-0.525
-0.505
-0.495
-0.505
-0.52
-0.51
-0.485
-0.45
-0.44
-0.44
-0.43
-0.44
-0.405
-0.39
-0.36
-0.345
-0.335
-0.325
-0.31
-0.295
-0.3
-0.315
-0.32
-0.31
-0.295
-0.29
-0.305
-0.31
-0.33
-0.32
-0.31
-0.315
-0.325
-0.35
-0.35
-0.36
-0.34
-0.33
-0.325
-0.335
-0.345
-0.35
-0.345
-0.355
-0.37
-0.365
-0.355
-0.365
-0.38
-0.395
-0.395
-0.39
-0.385
-0.385
-0.385
-0.365
-0.345
-0.345
-0.335
-0.325
-0.33
-0.345
-0.355
-0.38
-0.385
-0.395
-0.365
-0.355
-0.34
-0.37
-0.37
-0.35
-0.32
-0.31
-0.315
-0.32
-0.345
-0.38
-0.4
-0.405
-0.41
-0.415
-0.385
-0.375
-0.345
-0.355
-0.365
-0.36
-0.39
-0.4
-0.375
-0.38
-0.405
-0.45
-0.47
-0.445
-0.4
-0.37
-0.375
-0.405
-0.45
-0.435
-0.43
-0.45
-0.465
-0.465
-0.445
-0.425
-0.42
-0.415
-0.41
-0.405
-0.415
-0.395
-0.345
-0.31
-0.28
-0.295
-0.345
-0.375
-0.35
-0.315
-0.285
-0.275
-0.245
-0.235
-0.215
-0.19
-0.17
-0.18
-0.215
-0.24
-0.245
-0.22
-0.21
-0.24
-0.3
-0.36
-0.395
-0.43
-0.46
-0.48
-0.495
-0.505
-0.515
-0.515
-0.505
-0.49
-0.495
-0.5
-0.49
-0.505
-0.54
-0.555
-0.54
-0.535
-0.53
-0.535
-0.53
-0.535
-0.51
-0.52
-0.495
-0.455
-0.435
-0.415
-0.435
-0.485
-0.53
-0.555
-0.545
-0.505
-0.45
-0.395
-0.31
-0.16
0.01
0.2
0.39
0.595
0.83
0.98
1.02
1.045
1.04
0.96
0.75
0.52
0.365
0.3
0.255
0.19
0.06
-0.075
-0.175
-0.235
-0.29
-0.38
-0.415
-0.445
-0.485
-0.525
-0.59
-0.64
-0.645
-0.635
-0.635
-0.625
-0.65
-0.665
-0.665
-0.63
-0.61
-0.6
-0.64
-0.675
-0.68
-0.63
-0.585
-0.57
-0.6
-0.61
-0.595
-0.585
-0.61
-0.64
-0.66
-0.67
-0.615
-0.575
-0.565
-0.575
-0.595
-0.61
-0.63
-0.615
-0.6
-0.58
-0.57
-0.56
-0.565
-0.57
-0.585
-0.605
-0.605
-0.625
-0.645
-0.635
-0.595
-0.55
-0.555
-0.615
-0.665
-0.66
-0.625
-0.575
-0.55
-0.555
-0.585
-0.605
-0.625
-0.605
-0.575
-0.545
-0.53
-0.54
-0.585
-0.58
-0.56
-0.535
-0.505
-0.5
-0.49
-0.46
-0.445
-0.43
-0.435
-0.435
-0.43
-0.41
-0.385
-0.35
-0.31
-0.305
-0.34
-0.385
-0.395
-0.39
-0.35
-0.32
-0.32
-0.31
-0.315
-0.35
-0.37
-0.385
-0.385
-0.385
-0.39
-0.41
-0.4
-0.385
-0.38
-0.38
-0.39
-0.385
-0.39
-0.395
-0.405
-0.43
-0.435
-0.45
-0.465
-0.49
-0.48
-0.475
-0.45
-0.42
-0.41
-0.41
-0.42
-0.45
-0.47
-0.47
-0.47
-0.455
-0.445
-0.44
-0.46
-0.455
-0.465
-0.435
-0.445
-0.435
-0.46
-0.46
-0.46
-0.42
-0.43
-0.45
-0.455
-0.45
-0.425
-0.42
-0.445
-0.445
-0.45
-0.425
-0.39
-0.4
-0.44
-0.505
-0.51
-0.485
-0.43
-0.41
-0.435
-0.48
-0.505
-0.515
-0.505
-0.48
-0.465
-0.445
-0.455
-0.46
-0.445
-0.43
-0.425
-0.455
-0.515
-0.525
-0.49
-0.465
-0.455
-0.45
-0.445
-0.44
-0.455
-0.465
-0.48
-0.465
-0.455
-0.43
-0.44
-0.405
-0.38
-0.34
-0.345
-0.355
-0.375
-0.375
-0.36
-0.325
-0.305
-0.31
-0.33
-0.325
-0.285
-0.235
-0.22
-0.265
-0.29
-0.295
-0.275
-0.265
-0.26
-0.265
-0.305
-0.37
-0.43
-0.495
-0.54
-0.565
-0.54
-0.515
-0.505
-0.515
-0.525
-0.545
-0.54
-0.525
-0.515
-0.49
-0.485
-0.485
-0.49
-0.49
-0.485
-0.495
-0.5
-0.5
-0.47
-0.46
-0.465
-0.5
-0.52
-0.52
-0.49
-0.455
-0.46
-0.465
-0.47
-0.465
-0.46
-0.425
-0.37
-0.275
-0.155
0.01
0.2
0.425
0.615
0.81
0.945
1.03
1.075
1.01
0.81
0.555
0.41
0.31
0.265
0.18
0.055
-0.08
-0.185
-0.215
-0.25
-0.29
-0.34
-0.405
-0.465
-0.5
-0.51
-0.52
-0.565
-0.62
-0.67
-0.69
-0.7
-0.685
-0.66
-0.65
-0.66
-0.68
-0.7
-0.705
-0.67
-0.655
-0.645
-0.67
-0.66
-0.66
-0.655
-0.655
-0.645
-0.635
-0.63
-0.625
-0.64
-0.64
-0.63
-0.605
-0.61
-0.635
-0.63
-0.62
-0.625
-0.615
-0.615
-0.635
-0.645
-0.65
-0.635
-0.605
-0.595
-0.605
-0.605
-0.61
-0.615
-0.62
-0.585
-0.55
-0.545
-0.56
-0.61
-0.64
-0.635
-0.64
-0.625
-0.6
-0.585
-0.585
-0.565
-0.545
-0.545
-0.555
-0.55
-0.53
-0.52
-0.495
-0.495
-0.49
-0.48
-0.445
-0.41
-0.4
-0.4
-0.395
-0.405
-0.4
-0.385
-0.35
-0.335
-0.335
-0.325
-0.32
-0.295
-0.28
-0.28
-0.29
-0.32
-0.36
-0.35
-0.32
-0.3
-0.29
-0.31
-0.34
-0.345
-0.39
-0.425
-0.44
-0.425
-0.405
-0.385
-0.38
-0.385
-0.4
-0.43
-0.46
-0.445
-0.415
-0.405
-0.405
-0.42
-0.385
-0.38
-0.38
-0.41
-0.445
-0.455
-0.425
-0.39
-0.385
-0.395
-0.425
-0.425
-0.41
-0.4
-0.43
-0.455
-0.445
-0.425
-0.42
-0.415
-0.41
-0.41
-0.4
-0.395
-0.41
-0.425
-0.41
-0.395
-0.38
-0.405
-0.445
-0.455
-0.435
-0.405
-0.4
-0.395
-0.4
-0.395
-0.39
-0.405
-0.425
-0.42
-0.425
-0.41
-0.425
-0.43
-0.42
-0.405
-0.395
-0.395
-0.39
-0.395
-0.4
-0.395
-0.395
-0.395
-0.405
-0.435
-0.46
-0.45
-0.415
-0.37
-0.32
-0.33
-0.345
-0.375
-0.36
-0.32
-0.325
-0.35
-0.36
-0.335
-0.3
-0.26
-0.25
-0.23
-0.225
-0.195
-0.17
-0.135
-0.12
-0.125
-0.16
-0.235
-0.275
-0.275
-0.265
-0.29
-0.34
-0.4
-0.445
-0.45
-0.445
-0.46
-0.485
-0.515
-0.52
-0.48
-0.445
-0.445
-0.46
-0.465
-0.48
-0.455
-0.43
-0.43
-0.425
-0.465
-0.47
-0.445
-0.425
-0.43
-0.435
-0.42
-0.425
-0.4
-0.39
-0.4
-0.41
-0.425
-0.405
-0.38
-0.35
-0.31
-0.28
-0.185
-0.005
0.23
0.43
0.58
0.73
0.875
1.02
1.11
1.12
1.03
0.83
0.59
0.425
0.34
0.295
0.2
0.05
-0.08
-0.17
-0.22
-0.26
-0.31
-0.38
-0.44
-0.455
-0.485
-0.51
-0.565
-0.61
-0.615
-0.6
-0.57
-0.555
-0.565
-0.585
-0.59
-0.62
-0.63
-0.615
-0.57
-0.535
-0.535
-0.555
-0.575
-0.58
-0.58
-0.58
-0.585
-0.6
-0.605
-0.56
-0.535
-0.525
-0.54
-0.555
-0.56
-0.545
-0.55
-0.575
-0.57
-0.55
-0.545
-0.52
-0.52
-0.535
-0.54
-0.54
-0.525
-0.515
-0.515
-0.52
-0.52
-0.53
-0.53
-0.54
-0.555
-0.555
-0.515
-0.495
-0.495
-0.49
-0.485
-0.5
-0.52
-0.525
-0.515
-0.515
-0.51
-0.515
-0.515
-0.495
-0.465
-0.455
-0.445
-0.445
-0.44
-0.45
-0.43
-0.4
-0.36
-0.355
-0.35
-0.345
-0.33
-0.315
-0.3
-0.29
-0.285
-0.29
-0.275
-0.235
-0.19
-0.185
-0.225
-0.265
-0.275
-0.27
-0.245
-0.23
-0.235
-0.27
-0.295
-0.31
-0.33
-0.32
-0.31
-0.315
-0.295
-0.28
-0.295
-0.305
-0.305
-0.325
-0.33
-0.335
-0.355
-0.365
-0.365
-0.335
-0.31
-0.3
-0.335
-0.36
-0.37
-0.345
-0.31
-0.295
-0.32
-0.34
-0.36
-0.36
-0.33
-0.315
-0.315
-0.325
-0.34
-0.34
-0.315
-0.31
-0.345
-0.37
-0.33
-0.285
-0.27
-0.305
-0.375
-0.425
-0.39
-0.335
-0.34
-0.325
-0.34
-0.345
-0.355
-0.35
-0.34
-0.32
-0.315
-0.3
-0.32
-0.33
-0.32
-0.315
-0.355
-0.38
-0.39
-0.375
-0.325
-0.295
-0.285
-0.295
-0.32
-0.375
-0.41
-0.405
-0.36
-0.335
-0.325
-0.345
-0.33
-0.31
-0.285
-0.29
-0.285
-0.3
-0.275
-0.26
-0.26
-0.26
-0.23
-0.21
-0.185
-0.165
-0.18
-0.205
-0.22
-0.185
-0.14
-0.11
-0.11
-0.12
-0.11
-0.115
-0.135
-0.155
-0.21
-0.26
-0.295
-0.315
-0.33
-0.34
-0.37
-0.39
-0.4
-0.4
-0.405
-0.4
-0.405
-0.395
-0.375
-0.365
-0.35
-0.36
-0.365
-0.365
-0.37
-0.4
-0.415
-0.4
-0.365
-0.35
-0.365
-0.365
-0.34
-0.325
-0.315
-0.325
-0.34
-0.33
-0.3
-0.23
-0.1
0.055
0.23
0.39
0.59
0.78
0.955
1.09
1.165
1.165
1.105
0.94
0.655
0.4
0.295
0.28
0.235
0.095
-0.08
-0.17
-0.205
-0.28
-0.33
-0.37
-0.38
-0.415
-0.45
-0.47
-0.465
-0.43
-0.43
-0.47
-0.525
-0.545
-0.52
-0.47
-0.445
-0.475
-0.53
-0.53
-0.495
-0.445
-0.455
-0.445
-0.465
-0.465
-0.46
-0.45
-0.455
-0.44
-0.425
-0.42
-0.435
-0.44
-0.425
-0.445
-0.48
-0.5
-0.48
-0.46
-0.435
-0.435
-0.435
-0.445
-0.445
-0.45
-0.45
-0.445
-0.455
-0.47
-0.47
-0.46
-0.46
-0.465
-0.45
-0.42
-0.41
-0.38
-0.38
-0.4
-0.405
-0.43
-0.435
-0.4
-0.365
-0.36
-0.385
-0.4
-0.38
-0.345
-0.34
-0.34
-0.345
-0.345
-0.29
-0.26
-0.245
-0.255
-0.24
-0.215
-0.175
-0.145
-0.15
-0.155
-0.18
-0.19
-0.19
-0.165
-0.15
-0.175
-0.195
-0.2
-0.195
-0.185
-0.21
-0.22
-0.22
-0.235
-0.245
-0.255
-0.26
-0.26
-0.27
-0.245
-0.23
-0.22
-0.24
-0.295
-0.3
-0.29
-0.26
-0.245
-0.24
-0.24
-0.23
-0.235
-0.25
-0.26
-0.265
-0.265
-0.27
-0.285
-0.275
-0.275
-0.28
-0.28
-0.255
-0.245
-0.235
-0.24
-0.235
-0.225
-0.23
-0.275
-0.315
-0.295
-0.265
-0.24
-0.215
-0.225
-0.245
-0.26
-0.265
-0.27
-0.295
-0.31
-0.28
-0.225
-0.24
-0.28
-0.305
-0.285
-0.245
-0.23
-0.265
-0.295
-0.285
-0.26
-0.24
-0.23
-0.24
-0.285
-0.32
-0.33
-0.29
-0.24
-0.245
-0.285
-0.295
-0.29
-0.29
-0.32
-0.33
-0.3
-0.27
-0.235
-0.195
-0.165
-0.16
-0.17
-0.21
-0.245
-0.225
-0.175
-0.15
-0.15
-0.155
-0.13
-0.08
-0.05
-0.055
-0.055
-0.085
-0.12
-0.135
-0.125
-0.135
-0.19
-0.255
-0.305
-0.3
-0.29
-0.3
-0.345
-0.395
-0.41
-0.395
-0.37
-0.35
-0.345
-0.345
-0.36
-0.35
-0.365
-0.385
-0.375
-0.36
-0.335
-0.32
-0.32
-0.325
-0.315
-0.32
-0.335
-0.33
-0.32
-0.33
-0.33
-0.325
-0.3
-0.24
-0.15
-0.035
0.105
0.26
0.425
0.595
0.775
0.925
1.005
1.075
1.045
0.94
0.68
0.37
0.19
0.12
0.08
-0.01
-0.095
-0.16
-0.185
-0.225
-0.265
-0.285
-0.33
-0.42
-0.475
-0.495
-0.495
-0.48
-0.465
-0.47
-0.495
-0.495
-0.48
-0.465
-0.48
-0.495
-0.49
-0.465
-0.46
-0.47
-0.48
-0.5
-0.515
-0.505
-0.505
-0.485
-0.465
-0.47
-0.47
-0.475
-0.455
-0.445
-0.435
-0.455
-0.455
-0.45
-0.435
-0.41
-0.405
-0.44
-0.48
-0.485
-0.475
-0.445
-0.43
-0.44
-0.45
-0.455
-0.425
-0.405
-0.385
-0.42
-0.445
-0.48
-0.475
-0.44
-0.405
-0.405
-0.43
-0.475
-0.48
-0.43
-0.385
-0.38
-0.39
-0.38
-0.35
-0.345
-0.32
-0.325
-0.33
-0.325
-0.295
-0.24
-0.22
-0.23
-0.245
-0.245
-0.23
-0.2
-0.175
-0.18
-0.185
-0.19
-0.21
-0.195
-0.19
-0.2
-0.21
-0.2
-0.205
-0.21
-0.24
-0.265
-0.285
-0.285
-0.29
-0.27
-0.26
-0.245
-0.26
-0.295
-0.315
-0.32
-0.295
-0.27
-0.26
-0.265
-0.27
-0.27
-0.25
-0.26
-0.265
-0.26
-0.275
-0.27
-0.255
-0.23
-0.245
-0.245
-0.27
-0.28
-0.275
-0.275
-0.25
-0.245
-0.26
-0.255
-0.26
-0.275
-0.285
-0.275
-0.25
-0.215
-0.215
-0.26
-0.305
-0.325
-0.315
-0.285
-0.27
-0.26
-0.255
-0.265
-0.285
-0.285
-0.26
-0.26
-0.27
-0.305
-0.34
-0.35
-0.335
-0.31
-0.295
-0.275
-0.28
-0.265
-0.265
-0.285
-0.295
-0.29
-0.305
-0.3
-0.3
-0.295
-0.285
-0.275
-0.27
-0.265
-0.24
-0.23
-0.225
-0.225
-0.225
-0.2
-0.215
-0.22
-0.205
-0.17
-0.14
-0.125
-0.11
-0.09
-0.075
-0.06
-0.085
-0.08
-0.065
-0.055
-0.06
-0.08
-0.125
-0.185
-0.235
-0.265
-0.28
-0.295
-0.32
-0.325
-0.355
-0.375
-0.38
-0.385
-0.385
-0.36
-0.355
-0.35
-0.375
-0.37
-0.37
-0.355
-0.33
-0.31
-0.33
-0.355
-0.36
-0.345
-0.325
-0.32
-0.315
-0.34
-0.33
-0.32
-0.295
-0.3
-0.305
-0.31
-0.29
-0.255
-0.165
-0.04
0.155
0.365
0.615
0.84
1.03
1.155
1.21
1.195
1.05
0.785
0.54
0.42
0.36
0.295
0.18
0.055
-0.03
-0.075
-0.115
-0.19
-0.28
-0.36
-0.39
-0.425
-0.45
-0.485
-0.505
-0.485
-0.48
-0.5
-0.52
-0.53
-0.515
-0.505
-0.505
-0.525
-0.52
-0.535
-0.52
-0.49
-0.48
-0.475
-0.46
-0.475
-0.485
-0.5
-0.48
-0.46
-0.44
-0.48
-0.53
-0.54
-0.505
-0.475
-0.47
-0.49
-0.515
-0.515
-0.505
-0.495
-0.495
-0.475
-0.48
-0.465
-0.45
-0.46
-0.485
-0.485
-0.505
-0.495
-0.5
-0.5
-0.49
-0.52
-0.515
-0.49
-0.47
-0.465
-0.46
-0.45
-0.425
-0.395
-0.375
-0.375
-0.385
-0.405
-0.405
-0.37
-0.325
-0.31
-0.285
-0.285
-0.28
-0.255
-0.225
-0.205
-0.215
-0.23
-0.215
-0.2
-0.2
-0.2
-0.21
-0.215
-0.215
-0.23
-0.225
-0.24
-0.265
-0.295
-0.29
-0.28
-0.28
-0.28
-0.29
-0.3
-0.325
-0.315
-0.3
-0.27
-0.29
-0.32
-0.345
-0.32
-0.32
-0.31
-0.32
-0.32
-0.325
-0.32
-0.315
-0.315
-0.32
-0.305
-0.32
-0.315
-0.32
-0.31
-0.305
-0.325
-0.34
-0.34
-0.32
-0.31
-0.305
-0.305
-0.31
-0.3
-0.27
-0.29
-0.32
-0.33
-0.35
-0.32
-0.285
-0.275
-0.27
-0.275
-0.3
-0.315
-0.33
-0.34
-0.34
-0.315
-0.295
-0.29
-0.3
-0.315
-0.33
-0.33
-0.33
-0.305
-0.31
-0.3
-0.29
-0.3
-0.28
-0.275
-0.295
-0.335
-0.335
-0.345
-0.33
-0.31
-0.315
-0.305
-0.28
-0.23
-0.205
-0.2
-0.215
-0.235
-0.24
-0.21
-0.185
-0.155
-0.14
-0.145
-0.145
-0.14
-0.135
-0.1
-0.08
-0.085
-0.1
-0.11
-0.125
-0.15
-0.15
-0.19
-0.235
-0.275
-0.33
-0.36
-0.37
-0.375
-0.395
-0.41
-0.42
-0.39
-0.36
-0.365
-0.39
-0.435
-0.46
-0.45
-0.44
-0.43
-0.42
-0.405
-0.39
-0.385
-0.41
-0.45
-0.445
-0.41
-0.375
-0.36
-0.365
-0.395
-0.42
-0.4
-0.395
-0.38
-0.355
-0.325
-0.23
-0.085
0.08
0.25
0.435
0.64
0.85
1.03
1.115
1.175
1.185
1.11
0.925
0.675
0.48
0.375
0.295
0.14
-0.05
-0.145
-0.17
-0.185
-0.21
-0.28
-0.35
-0.4
-0.46
-0.485
-0.51
-0.545
-0.565
-0.575
-0.57
-0.575
-0.57
-0.57
-0.585
-0.59
-0.6
-0.585
-0.575
-0.575
-0.57
-0.54
-0.515
-0.5
-0.52
-0.58
-0.61
-0.615
-0.605
-0.57
-0.53
-0.515
-0.555
-0.61
-0.61
-0.59
-0.555
-0.545
-0.545
-0.54
-0.545
-0.545
-0.545
-0.555
-0.55
-0.545
-0.57
-0.58
-0.57
-0.565
-0.555
-0.575
-0.585
-0.565
-0.565
-0.56
-0.555
-0.57
-0.555
-0.535
-0.52
-0.525
-0.525
-0.515
-0.5
-0.5
-0.49
-0.48
-0.47
-0.465
-0.445
-0.44
-0.415
-0.41
-0.395
-0.39
-0.39
-0.385
-0.355
-0.33
-0.32
-0.31
-0.295
-0.275
-0.25
-0.245
-0.26
-0.27
-0.275
-0.285
-0.275
-0.29
-0.285
-0.285
-0.3
-0.295
-0.295
-0.305
-0.305
-0.305
-0.315
-0.32
-0.33
-0.335
-0.32
-0.33
-0.345
-0.33
-0.33
-0.345
-0.345
-0.35
-0.35
-0.34
-0.34
-0.34
-0.34
-0.34
-0.36
-0.33
-0.32
-0.34
-0.345
-0.35
-0.345
-0.325
-0.315
-0.325
-0.33
-0.345
-0.35
-0.325
-0.32
-0.32
-0.34
-0.34
-0.36
-0.355
-0.34
-0.345
-0.345
-0.355
-0.35
-0.345
-0.345
-0.345
-0.35
-0.355
-0.365
-0.37
-0.38
-0.37
-0.36
-0.375
-0.375
-0.375
-0.365
-0.37
-0.39
-0.39
-0.4
-0.385
-0.37
-0.375
-0.365
-0.37
-0.375
-0.355
-0.35
-0.355
-0.36
-0.365
-0.365
-0.32
-0.31
-0.305
-0.29
-0.275
-0.27
-0.255
-0.26
-0.26
-0.26
-0.24
-0.235
-0.21
-0.18
-0.17
-0.155
-0.15
-0.13
-0.125
-0.13
-0.155
-0.175
-0.2
-0.23
-0.26
-0.295
-0.36
-0.42
-0.47
-0.485
-0.475
-0.48
-0.5
-0.505
-0.52
-0.515
-0.485
-0.47
-0.475
-0.49
-0.5
-0.49
-0.485
-0.475
-0.48
-0.48
-0.48
-0.48
-0.465
-0.455
-0.465
-0.475
-0.47
-0.475
-0.45
-0.435
-0.445
-0.44
-0.45
-0.445
-0.4
-0.32
-0.215
-0.07
0.105
0.31
0.54
0.77
0.935
1.04
1.07
1.025
0.845
0.575
0.345
0.24
0.195
0.13
0.005
-0.08
-0.15
-0.195
-0.24
-0.31
-0.385
-0.425
-0.46
-0.485
-0.515
-0.555
-0.575
-0.6
-0.61
-0.625
-0.635
-0.625
-0.63
-0.615
-0.625
-0.63
-0.635
-0.635
-0.605
-0.585
-0.59
-0.59
-0.6
-0.59
-0.585
-0.57
-0.56
-0.575
-0.565
-0.545
-0.52
-0.515
-0.525
-0.52
-0.52
-0.535
-0.525
-0.5
-0.5
-0.505
-0.505
-0.525
-0.515
-0.51
-0.51
-0.53
-0.525
-0.515
-0.51
-0.505
-0.51
-0.535
-0.525
-0.525
-0.51
-0.495
-0.5
-0.505
-0.51
-0.5
-0.48
-0.48
-0.485
-0.49
-0.485
-0.48
-0.445
-0.41
-0.42
-0.42
-0.42
-0.41
-0.38
-0.35
-0.335
-0.33
-0.325
-0.31
-0.295
-0.265
-0.255
-0.24
-0.24
-0.24
-0.235
-0.225
-0.215
-0.215
-0.205
-0.225
-0.23
-0.225
-0.225
-0.245
-0.265
-0.27
-0.265
-0.27
-0.285
-0.285
-0.29
-0.3
-0.29
-0.285
-0.305
-0.32
-0.315
-0.32
-0.32
-0.305
-0.3
-0.31
-0.315
-0.32
-0.315
-0.305
-0.3
-0.31
-0.305
-0.33
-0.315
-0.3
-0.31
-0.32
-0.325
-0.33
-0.32
-0.315
-0.31
-0.305
-0.315
-0.315
-0.325
-0.315
-0.33
-0.34
-0.345
-0.35
-0.34
-0.335
-0.345
-0.355
-0.36
-0.36
-0.35
-0.34
-0.345
-0.365
-0.355
-0.35
-0.355
-0.325
-0.33
-0.35
-0.355
-0.37
-0.37
-0.345
-0.345
-0.35
-0.365
-0.36
-0.345
-0.35
-0.355
-0.35
-0.37
-0.37
-0.36
-0.345
-0.35
-0.34
-0.35
-0.36
-0.36
-0.325
-0.31
-0.285
-0.27
-0.255
-0.235
-0.225
-0.25
-0.25
-0.235
-0.21
-0.2
-0.19
-0.175
-0.155
-0.135
-0.115
-0.09
-0.09
-0.11
-0.14
-0.175
-0.215
-0.235
-0.265
-0.31
-0.37
-0.415
-0.44
-0.43
-0.415
-0.415
-0.41
-0.425
-0.425
-0.42
-0.395
-0.395
-0.395
-0.395
-0.395
-0.39
-0.385
-0.385
-0.39
-0.385
-0.39
-0.37
-0.345
-0.345
-0.345
-0.35
-0.345
-0.345
-0.315
-0.32
-0.31
-0.285
-0.22
-0.075
0.095
0.28
0.47
0.675
0.88
1.045
1.15
1.19
1.175
1.05
0.825
0.575
0.41
0.36
0.32
0.225
0.06
-0.04
-0.09
-0.13
-0.21
-0.295
-0.355
-0.385
-0.415
-0.47
-0.5
-0.52
-0.51
-0.51
-0.52
-0.525
-0.525
-0.54
-0.53
-0.51
-0.515
-0.525
-0.525
-0.54
-0.535
-0.52
-0.505
-0.51
-0.52
-0.52
-0.515
-0.515
-0.495
-0.495
-0.505
-0.515
-0.52
-0.515
-0.515
-0.51
-0.5
-0.505
-0.51
-0.505
-0.495
-0.51
-0.51
-0.515
-0.515
-0.515
-0.5
-0.505
-0.5
-0.51
-0.505
-0.49
-0.485
-0.49
-0.515
-0.525
-0.51
-0.485
-0.47
-0.46
-0.465
-0.47
-0.48
-0.45
-0.44
-0.435
-0.43
-0.43
-0.425
-0.41
-0.395
-0.38
-0.37
-0.36
-0.345
-0.34
-0.33
-0.31
-0.29
-0.275
-0.26
-0.24
-0.225
-0.21
-0.23
-0.225
-0.225
-0.225
-0.205
-0.22
-0.21
-0.22
-0.24
-0.23
-0.225
-0.24
-0.26
-0.28
-0.295
-0.305
-0.305
-0.3
-0.3
-0.31
-0.315
-0.305
-0.31
-0.32
-0.33
-0.335
-0.33
-0.315
-0.31
-0.32
-0.34
-0.325
-0.315
-0.31
-0.285
-0.3
-0.325
-0.34
-0.34
-0.335
-0.315
-0.34
-0.345
-0.36
-0.34
-0.335
-0.34
-0.33
-0.335
-0.35
-0.36
-0.355
-0.355
-0.35
-0.36
-0.38
-0.37
-0.37
-0.355
-0.365
-0.375
-0.38
-0.37
-0.35
-0.355
-0.37
-0.405
-0.4
-0.41
-0.395
-0.395
-0.395
-0.385
-0.39
-0.375
-0.37
-0.365
-0.36
-0.395
-0.415
-0.39
-0.37
-0.35
-0.355
-0.36
-0.37
-0.355
-0.335
-0.325
-0.35
-0.355
-0.37
-0.37
-0.365
-0.345
-0.35
-0.345
-0.36
-0.35
-0.3
-0.26
-0.27
-0.28
-0.29
-0.3
-0.295
-0.275
-0.245
-0.23
-0.21
-0.205
-0.2
-0.175
-0.16
-0.135
-0.135
-0.15
-0.15
-0.165
-0.19
-0.195
-0.25
-0.31
-0.345
-0.385
-0.425
-0.45
-0.465
-0.46
-0.465
-0.47
-0.47
-0.48
-0.49
-0.475
-0.465
-0.46
-0.475
-0.475
-0.485
-0.49
-0.475
-0.455
-0.45
-0.465
-0.48
-0.485
-0.455
-0.44
-0.445
-0.45
-0.43
-0.43
-0.42
-0.43
-0.43
-0.425
-0.415
-0.395
-0.295
-0.145
0.035
0.235
0.43
0.645
0.835
0.965
1.035
1.065
1.035
0.92
0.695
0.445
0.29
0.23
0.155
0.03
-0.1
-0.185
-0.235
-0.285
-0.355
-0.415
-0.46
-0.48
-0.525
-0.555
-0.57
-0.58
-0.56
-0.565
-0.59
-0.59
-0.605
-0.605
-0.59
-0.59
-0.585
-0.585
-0.58
-0.575
-0.56
-0.555
-0.555
-0.56
-0.575
-0.575
-0.57
-0.555
-0.57
-0.565
-0.58
-0.565
-0.55
-0.53
-0.535
-0.545
-0.56
-0.57
-0.56
-0.545
-0.54
-0.54
-0.545
-0.555
-0.555
-0.57
-0.56
-0.545
-0.565
-0.55
-0.55
-0.535
-0.515
-0.5
-0.52
-0.535
-0.52
-0.52
-0.515
-0.51
-0.51
-0.515
-0.495
-0.485
-0.475
-0.475
-0.485
-0.47
-0.45
-0.42
-0.42
-0.425
-0.43
-0.415
-0.39
-0.35
-0.34
-0.345
-0.34
-0.33
-0.31
-0.295
-0.29
-0.28
-0.28
-0.28
-0.265
-0.25
-0.25
-0.25
-0.26
-0.265
-0.27
-0.275
-0.285
-0.305
-0.32
-0.325
-0.32
-0.32
-0.32
-0.335
-0.34
-0.345
-0.345
-0.34
-0.355
-0.37
-0.36
-0.355
-0.35
-0.335
-0.34
-0.35
-0.36
-0.365
-0.36
-0.345
-0.355
-0.36
-0.375
-0.375
-0.36
-0.34
-0.34
-0.34
-0.355
-0.36
-0.355
-0.36
-0.375
-0.375
-0.36
-0.35
-0.355
-0.335
-0.33
-0.345
-0.355
-0.36
-0.35
-0.34
-0.345
-0.36
-0.37
-0.365
-0.375
-0.365
-0.365
-0.36
-0.35
-0.365
-0.365
-0.36
-0.365
-0.375
-0.38
-0.36
-0.345
-0.35
-0.36
-0.365
-0.365
-0.36
-0.355
-0.34
-0.355
-0.36
-0.37
-0.36
-0.35
-0.345
-0.35
-0.36
-0.375
-0.385
-0.36
-0.35
-0.34
-0.345
-0.315
-0.295
-0.265
-0.25
-0.26
-0.285
-0.29
-0.28
-0.255
-0.22
-0.205
-0.195
-0.19
-0.185
-0.16
-0.14
-0.15
-0.15
-0.18
-0.185
-0.195
-0.195
-0.22
-0.265
-0.325
-0.355
-0.39
-0.4
-0.425
-0.44
-0.455
-0.475
-0.465
-0.45
-0.465
-0.47
-0.48
-0.475
-0.465
-0.45
-0.46
-0.45
-0.465
-0.475
-0.475
-0.45
-0.455
-0.45
-0.44
-0.43
-0.43
-0.435
-0.435
-0.42
-0.415
-0.425
-0.425
-0.415
-0.415
-0.385
-0.31
-0.195
-0.02
0.165
0.325
0.49
0.66
0.815
0.93
1.02
1.045
0.975
0.78
0.5
0.28
0.2
0.17
0.115
-0.005
-0.14
-0.205
-0.23
-0.275
-0.325
-0.395
-0.435
-0.455
-0.485
-0.52
-0.54
-0.57
-0.575
-0.58
-0.57
-0.585
-0.6
-0.625
-0.625
-0.595
-0.58
-0.59
-0.6
-0.605
-0.61
-0.595
-0.575
-0.585
-0.6
-0.6
-0.59
-0.565
-0.565
-0.585
-0.575
-0.575
-0.58
-0.575
-0.555
-0.56
-0.57
-0.575
-0.58
-0.56
-0.55
-0.555
-0.565
-0.575
-0.575
-0.565
-0.55
-0.57
-0.57
-0.59
-0.575
-0.555
-0.525
-0.52
-0.535
-0.545
-0.55
-0.545
-0.53
-0.53
-0.535
-0.525
-0.53
-0.51
-0.495
-0.49
-0.495
-0.51
-0.5
-0.48
-0.46
-0.455
-0.45
-0.45
-0.43
-0.4
-0.39
-0.37
-0.37
-0.365
-0.36
-0.335
-0.31
-0.3
-0.3
-0.295
-0.285
-0.275
-0.27
-0.265
-0.275
-0.275
