Lead II
-0.4
-0.36
-0.395
-0.52
-0.72
-0.955
-1.175
-1.44
-1.6
-1.72
-1.735
-1.665
-1.56
-1.44
-1.35
-1.27
-1.23
-1.195
-1.14
-1.11
-1.065
-1.035
-1.025
-1.005
-0.98
-0.99
-0.985
-0.98
-0.985
-0.995
-0.97
-0.97
-1.0
-0.985
-0.97
-0.95
-0.94
-0.93
-0.935
-0.935
-0.935
-0.94
-0.94
-0.945
-0.95
-0.95
-0.925
-0.925
-0.915
-0.91
-0.905
-0.91
-0.915
-0.915
-0.91
-0.92
-0.91
-0.9
-0.895
-0.88
-0.88
-0.865
-0.865
-0.85
-0.855
-0.86
-0.875
-0.865
-0.865
-0.875
-0.85
-0.845
-0.835
-0.815
-0.805
-0.8
-0.795
-0.81
-0.795
-0.79
-0.78
-0.775
-0.765
-0.735
-0.715
-0.69
-0.685
-0.665
-0.645
-0.65
-0.645
-0.635
-0.63
-0.62
-0.595
-0.57
-0.56
-0.525
-0.51
-0.495
-0.48
-0.49
-0.475
-0.49
-0.485
-0.48
-0.475
-0.445
-0.44
-0.44
-0.43
-0.44
-0.45
-0.465
-0.475
-0.51
-0.53
-0.525
-0.55
-0.565
-0.57
-0.575
-0.6
-0.605
-0.65
-0.675
-0.68
-0.725
-0.75
-0.77
-0.78
-0.8
-0.825
-0.83
-0.845
-0.86
-0.875
-0.89
-0.91
-0.925
-0.93
-0.935
-0.945
-0.935
-0.935
-0.925
-0.915
-0.93
-0.95
-0.96
-0.965
-0.975
-0.975
-0.98
-0.975
-0.97
-0.955
-0.965
-0.95
-0.945
-0.955
-0.955
-0.96
-0.97
-0.975
-0.97
-0.965
-0.96
-0.955
-0.945
-0.945
-0.94
-0.94
-0.945
-0.955
-0.96
-0.975
-0.965
-0.955
-0.96
-0.97
-0.955
-0.94
-0.935
-0.95
-0.96
-0.97
-0.98
-0.985
-0.985
-0.97
-0.98
-0.975
-0.98
-0.965
-0.96
-0.98
-0.99
-0.995
-1.01
-1.025
-1.015
-1.0
-0.99
-0.99
-0.995
-0.985
-0.99
-1.0
-1.015
-1.025
-1.03
-1.02
-1.04
-1.025
-1.02
-1.01
-1.0
-0.995
-1.0
-0.995
-1.005
-1.025
-1.05
-1.045
-1.05
-1.03
-1.01
-1.02
-1.0
-1.0
-0.995
-1.005
-1.02
-1.015
-1.03
-1.04
-1.035
-1.03
-1.015
-1.02
-1.0
-1.0
-0.995
-1.0
-1.01
-1.025
-1.03
-1.04
-1.045
-1.04
-1.015
-1.03
-1.015
-1.015
-1.015
-1.005
-1.015
-1.03
-1.04
-1.045
-1.025
-1.015
-1.025
-1.01
-1.01
-1.0
-1.01
-0.995
-1.02
-1.03
-1.03
-1.045
-1.04
-1.03
-1.035
-1.03
-1.015
-1.015
-1.025
-1.02
-1.025
-1.02
-1.035
-1.035
-1.035
-1.025
-1.02
-1.005
-1.005
-0.995
-1.01
-1.0
-1.015
-1.03
-1.045
-1.065
-1.045
-1.03
-1.02
-1.015
-1.005
-0.995
-1.0
-1.01
-1.01
-1.015
-1.025
-1.025
-1.025
-1.025
-1.02
-1.01
-0.99
-0.99
-1.0
-0.99
-1.0
-1.0
-1.02
-1.025
-1.015
-1.01
-1.0
-0.995
-0.985
-0.98
-0.995
-1.01
-1.015
-1.02
-1.05
-1.045
-1.035
-1.03
-1.005
-0.995
-0.985
-0.99
-0.995
-1.0
-0.99
-0.995
-1.005
-1.015
-1.015
-1.025
-1.005
-0.995
-0.99
-0.98
-0.955
-0.955
-0.94
-0.94
-0.945
-0.94
-0.965
-0.93
-0.9
-0.895
-0.865
-0.85
-0.835
-0.85
-0.845
-0.845
-0.855
-0.865
-0.88
-0.895
-0.915
-0.9
-0.885
-0.89
-0.9
-0.905
-0.925
-0.945
-0.96
-1.005
-1.015
-1.005
-1.015
-1.005
-0.995
-1.01
-1.015
-1.01
-1.01
-1.025
-1.03
-1.055
-1.06
-1.06
-1.06
-1.04
-1.005
-1.005
-1.0
-1.01
-1.015
-1.04
-1.02
-1.035
-1.045
-1.015
-1.02
-0.99
-0.99
-0.995
-0.975
-0.94
-0.885
-0.805
-0.725
-0.605
-0.45
-0.285
-0.14
-0.05
-0.02
-0.085
-0.24
-0.455
-0.71
-0.99
-1.255
-1.455
-1.55
-1.52
-1.435
-1.33
-1.22
-1.135
-1.085
-1.05
-1.03
-1.01
-1.01
-1.01
-1.0
-0.995
-0.99
-0.99
-0.985
-0.98
-0.99
-0.98
-0.98
-0.975
-0.99
-1.0
-0.985
-0.99
-0.975
-0.955
-0.95
-0.96
-0.945
-0.95
-0.945
-0.95
-0.955
-0.95
-0.96
-0.96
-0.93
-0.915
-0.92
-0.9
-0.91
-0.905
-0.91
-0.91
-0.93
-0.94
-0.93
-0.905
-0.895
-0.885
-0.875
-0.87
-0.88
-0.85
-0.865
-0.865
-0.885
-0.9
-0.87
-0.865
-0.85
-0.835
-0.825
-0.81
-0.8
-0.795
-0.79
-0.795
-0.795
-0.79
-0.785
-0.78
-0.765
-0.745
-0.72
-0.695
-0.69
-0.67
-0.665
-0.655
-0.66
-0.63
-0.625
-0.6
-0.59
-0.57
-0.545
-0.535
-0.535
-0.52
-0.535
-0.52
-0.515
-0.52
-0.505
-0.5
-0.5
-0.49
-0.49
-0.465
-0.47
-0.46
-0.46
-0.48
-0.485
-0.51
-0.53
-0.545
-0.56
-0.575
-0.58
-0.61
-0.655
-0.665
-0.695
-0.74
-0.775
-0.825
-0.835
-0.845
-0.855
-0.875
-0.89
-0.9
-0.91
-0.925
-0.94
-0.97
-1.0
-1.005
-1.01
-1.01
-1.02
-1.005
-1.005
-1.01
-1.015
-1.01
-1.015
-1.02
-1.025
-1.03
-1.03
-1.04
-1.02
-1.02
-1.01
-1.015
-1.01
-1.01
-1.025
-1.02
-1.035
-1.04
-1.04
-1.04
-1.015
-1.03
-1.02
-1.01
-1.01
-1.015
-1.03
-1.015
-1.035
-1.04
-1.045
-1.05
-1.045
-1.035
-1.0
-1.015
-1.005
-1.005
-1.02
-1.025
-1.04
-1.045
-1.025
-1.06
-1.04
-1.03
-1.05
-1.05
-1.045
-1.03
-1.05
-1.05
-1.065
-1.065
-1.065
-1.055
-1.045
-1.055
-1.055
-1.04
-1.04
-1.035
-1.05
-1.06
-1.065
-1.08
-1.085
-1.085
-1.07
-1.06
-1.065
-1.06
-1.06
-1.065
-1.08
-1.075
-1.105
-1.095
-1.095
-1.085
-1.075
-1.09
-1.09
-1.06
-1.075
-1.08
-1.075
-1.1
-1.095
-1.1
-1.11
-1.1
-1.095
-1.095
-1.09
-1.065
-1.08
-1.06
-1.075
-1.08
-1.09
-1.095
-1.095
-1.1
-1.095
-1.075
-1.085
-1.09
-1.085
-1.065
-1.09
-1.085
-1.085
-1.085
-1.1
-1.09
-1.075
-1.09
-1.075
-1.065
-1.06
-1.05
-1.065
-1.085
-1.085
-1.1
-1.105
-1.095
-1.08
-1.09
-1.08
-1.07
-1.07
-1.07
-1.085
-1.085
-1.09
-1.08
-1.085
-1.075
-1.065
-1.055
-1.055
-1.05
-1.06
-1.07
-1.07
-1.07
-1.075
-1.09
-1.09
-1.09
-1.07
-1.065
-1.055
-1.055
-1.055
-1.07
-1.075
-1.08
-1.09
-1.085
-1.08
-1.07
-1.07
-1.065
-1.055
-1.035
-1.045
-1.055
-1.07
-1.075
-1.075
-1.08
-1.09
-1.095
-1.08
-1.06
-1.055
-1.045
-1.06
-1.06
-1.055
-1.07
-1.07
-1.07
-1.085
-1.075
-1.07
-1.065
-1.05
-1.045
-1.045
-1.04
-1.05
-1.06
-1.075
-1.1
-1.095
-1.07
-1.07
-1.06
-1.055
-1.035
-1.04
-1.03
-1.04
-1.035
-1.04
-1.025
-1.025
-1.025
-0.99
-0.985
-0.965
-0.965
-0.95
-0.925
-0.915
-0.905
-0.915
-0.92
-0.9
-0.91
-0.905
-0.905
-0.925
-0.92
-0.935
-0.935
-0.97
-0.97
-0.98
-1.005
-1.02
-1.025
-1.025
-1.03
-1.025
-1.045
-1.04
-1.03
-1.055
-1.06
-1.07
-1.07
-1.07
-1.08
-1.075
-1.075
-1.07
-1.055
-1.055
-1.055
-1.08
-1.075
-1.085
-1.1
-1.09
-1.08
-1.075
-1.065
-1.045
-1.04
-1.065
-1.05
-1.055
-1.055
-1.05
-1.03
-0.97
-0.895
-0.795
-0.67
-0.535
-0.42
-0.335
-0.295
-0.335
-0.45
-0.63
-0.855
-1.105
-1.305
-1.48
-1.555
-1.58
-1.52
-1.42
-1.33
-1.27
-1.215
-1.185
-1.15
-1.115
-1.07
-1.035
-1.015
-0.985
-0.98
-0.995
-1.0
-1.01
-1.0
-1.015
-1.005
-0.99
-0.985
-0.975
-0.96
-0.96
-0.96
-0.945
-0.955
-0.96
-0.98
-0.98
-0.97
-0.97
-0.975
-0.945
-0.935
-0.94
-0.93
-0.945
-0.93
-0.93
-0.93
-0.935
-0.925
-0.955
-0.915
-0.905
-0.89
-0.885
-0.87
-0.87
-0.865
-0.88
-0.88
-0.885
-0.88
-0.87
-0.86
-0.86
-0.83
-0.82
-0.815
-0.8
-0.785
-0.8
-0.795
-0.785
-0.775
-0.76
-0.76
-0.74
-0.715
-0.7
-0.675
-0.68
-0.675
-0.67
-0.65
-0.65
-0.63
-0.625
-0.6
-0.575
-0.56
-0.54
-0.505
-0.5
-0.485
-0.485
-0.48
-0.475
-0.475
-0.455
-0.435
-0.42
-0.41
-0.385
-0.37
-0.37
-0.35
-0.36
-0.365
-0.38
-0.38
-0.4
-0.395
-0.385
-0.4
-0.41
-0.42
-0.445
-0.465
-0.5
-0.555
-0.585
-0.62
-0.64
-0.64
-0.67
-0.685
-0.7
-0.74
-0.76
-0.77
-0.795
-0.825
-0.86
-0.85
-0.88
-0.865
-0.875
-0.875
-0.87
-0.885
-0.87
-0.88
-0.9
-0.905
-0.89
-0.915
-0.905
-0.9
-0.9
-0.895
-0.895
-0.88
-0.875
-0.88
-0.9
-0.91
-0.925
-0.925
-0.93
-0.905
-0.9
-0.895
-0.895
-0.87
-0.87
-0.87
-0.885
-0.89
-0.9
-0.9
-0.895
-0.895
-0.89
-0.895
-0.88
-0.86
-0.875
-0.875
-0.89
-0.885
-0.885
-0.9
-0.9
-0.89
-0.89
-0.875
-0.885
-0.88
-0.875
-0.875
-0.885
-0.89
-0.91
-0.935
-0.925
-0.905
-0.91
-0.91
-0.905
-0.915
-0.91
-0.91
-0.905
-0.93
-0.945
-0.93
-0.94
-0.935
-0.93
-0.91
-0.9
-0.885
-0.895
-0.91
-0.905
-0.915
-0.93
-0.925
-0.925
-0.925
-0.92
-0.915
-0.91
-0.915
-0.905
-0.9
-0.915
-0.92
-0.935
-0.95
-0.935
-0.95
-0.935
-0.925
-0.91
-0.91
-0.9
-0.9
-0.925
-0.92
-0.915
-0.935
-0.93
-0.945
-0.92
-0.915
-0.915
-0.9
-0.91
-0.91
-0.91
-0.92
-0.935
-0.935
-0.945
-0.935
-0.925
-0.92
-0.92
-0.9
-0.9
-0.91
-0.93
-0.94
-0.935
-0.94
-0.94
-0.935
-0.925
-0.92
-0.915
-0.915
-0.915
-0.91
-0.925
-0.92
-0.95
-0.945
-0.935
-0.925
-0.935
-0.92
-0.925
-0.92
-0.905
-0.925
-0.925
-0.925
-0.935
-0.935
-0.935
-0.925
-0.9
-0.905
-0.885
-0.905
-0.9
-0.89
-0.905
-0.905
-0.92
-0.94
-0.93
-0.94
-0.92
-0.91
-0.905
-0.905
-0.915
-0.92
-0.92
-0.925
-0.94
-0.945
-0.935
-0.95
-0.94
-0.935
-0.92
-0.9
-0.905
-0.91
-0.91
-0.925
-0.925
-0.925
-0.925
-0.93
-0.93
-0.91
-0.915
-0.895
-0.905
-0.905
-0.905
-0.91
-0.91
-0.915
-0.915
-0.905
-0.89
-0.89
-0.87
-0.865
-0.88
-0.87
-0.87
-0.87
-0.855
-0.84
-0.83
-0.83
-0.795
-0.765
-0.76
-0.755
-0.76
-0.765
-0.78
-0.805
-0.81
-0.825
-0.84
-0.85
-0.86
-0.88
-0.87
-0.885
-0.87
-0.88
-0.895
-0.92
-0.93
-0.94
-0.95
-0.95
-0.955
-0.945
-0.93
-0.935
-0.935
-0.94
-0.96
-0.955
-0.955
-0.965
-0.965
-0.97
-0.965
-0.96
-0.945
-0.945
-0.945
-0.955
-0.96
-0.965
-0.96
-0.975
-0.965
-0.96
-0.935
-0.9
-0.845
-0.77
-0.68
-0.57
-0.46
-0.35
-0.245
-0.155
-0.125
-0.16
-0.245
-0.375
-0.57
-0.78
-1.03
-1.245
-1.425
-1.525
-1.53
-1.45
-1.345
-1.265
-1.17
-1.11
-1.055
-1.02
-0.99
-0.96
-0.93
-0.935
-0.945
-0.94
-0.96
-0.965
-0.955
-0.935
-0.925
-0.91
-0.895
-0.9
-0.9
-0.91
-0.92
-0.92
-0.925
-0.905
-0.9
-0.895
-0.895
-0.865
-0.88
-0.88
-0.87
-0.89
-0.88
-0.885
-0.9
-0.9
-0.87
-0.865
-0.855
-0.85
-0.84
-0.835
-0.835
-0.84
-0.845
-0.835
-0.835
-0.83
-0.83
-0.815
-0.795
-0.79
-0.795
-0.785
-0.785
-0.785
-0.79
-0.785
-0.78
-0.78
-0.775
-0.755
-0.74
-0.735
-0.715
-0.71
-0.695
-0.695
-0.685
-0.69
-0.69
-0.665
-0.64
-0.63
-0.585
-0.56
-0.57
-0.56
-0.55
-0.55
-0.535
-0.53
-0.525
-0.505
-0.495
-0.475
-0.465
-0.435
-0.43
-0.43
-0.435
-0.43
-0.435
-0.44
-0.44
-0.455
-0.45
-0.445
-0.43
-0.415
-0.435
-0.465
-0.485
-0.52
-0.54
-0.565
-0.59
-0.62
-0.64
-0.675
-0.67
-0.69
-0.715
-0.75
-0.77
-0.8
-0.83
-0.845
-0.87
-0.875
-0.885
-0.89
-0.9
-0.915
-0.92
-0.93
-0.935
-0.96
-0.965
-0.975
-0.975
-0.97
-0.975
-0.97
-0.945
-0.94
-0.97
-0.975
-0.98
-0.98
-0.995
-0.995
-1.005
-0.99
-0.97
-0.97
-0.96
-0.945
-0.945
-0.96
-0.96
-0.955
-0.97
-0.98
-0.995
-0.99
-0.98
-0.96
-0.955
-0.94
-0.935
-0.94
-0.955
-0.955
-0.995
-0.995
-1.0
-0.98
-0.96
-0.955
-0.955
-0.945
-0.945
-0.945
-0.96
-0.98
-0.98
-1.01
-1.015
-1.015
-1.0
-0.995
-0.99
-0.975
-0.97
-0.97
-0.965
-1.005
-0.99
-1.0
-1.0
-1.015
-1.02
-1.015
-1.005
-0.99
-0.99
-1.0
-0.99
-0.99
-1.015
-1.015
-1.015
-1.02
-1.025
-1.015
-0.985
-0.985
-0.995
-0.98
-0.99
-1.005
-1.0
-1.025
-1.02
-1.01
-1.01
-1.01
-0.99
-0.97
-0.97
-0.97
-0.99
-0.995
-1.0
-1.01
-1.02
-1.015
-1.0
-0.995
-0.995
-0.985
-0.975
-0.985
-1.005
-1.005
-1.005
-1.01
-1.01
-1.015
-1.025
-1.01
-0.98
-0.965
-0.99
-0.98
-0.985
-1.005
-0.995
-1.01
-1.005
-1.005
-0.995
-0.985
-0.975
-0.955
-0.96
-0.98
-0.96
-0.97
-0.98
-0.985
-0.995
-0.995
-0.985
-0.985
-0.97
-0.96
-0.965
-0.96
-0.965
-0.97
-0.975
-0.97
-0.975
-0.97
-0.975
-0.965
-0.96
-0.945
-0.945
-0.95
-0.94
-0.955
-0.96
-0.96
-0.96
-0.97
-0.965
-0.95
-0.94
-0.935
-0.94
-0.94
-0.945
-0.97
-0.955
-0.965
-0.975
-0.97
-0.97
-0.965
-0.96
-0.915
-0.93
-0.94
-0.955
-0.94
-0.945
-0.965
-0.955
-0.965
-0.95
-0.93
-0.935
-0.93
-0.925
-0.91
-0.925
-0.93
-0.935
-0.92
-0.93
-0.93
-0.91
-0.91
-0.885
-0.865
-0.865
-0.855
-0.85
-0.865
-0.87
-0.865
-0.875
-0.86
-0.85
-0.83
-0.82
-0.8
-0.775
-0.76
-0.75
-0.75
-0.775
-0.785
-0.78
-0.795
-0.785
-0.8
-0.775
-0.79
-0.795
-0.81
-0.815
-0.85
-0.88
-0.885
-0.89
-0.905
-0.905
-0.895
-0.9
-0.885
-0.895
-0.905
-0.91
-0.92
-0.92
-0.925
-0.94
-0.955
-0.92
-0.95
-0.935
-0.93
-0.93
-0.925
-0.915
-0.925
-0.92
-0.935
-0.93
-0.93
-0.915
-0.92
-0.895
-0.9
-0.895
-0.915
-0.915
-0.89
-0.825
-0.765
-0.665
-0.545
-0.4
-0.245
-0.13
-0.03
0.02
-0.005
-0.125
-0.3
-0.535
-0.77
-1.015
-1.225
-1.345
-1.375
-1.315
-1.225
-1.145
-1.065
-1.025
-1.005
-0.97
-0.94
-0.92
-0.895
-0.88
-0.855
-0.85
-0.85
-0.85
-0.85
-0.845
-0.85
-0.86
-0.875
-0.865
-0.86
-0.845
-0.84
-0.84
-0.81
-0.815
-0.82
-0.82
-0.825
-0.815
-0.825
-0.83
-0.83
-0.815
-0.81
-0.79
-0.77
-0.77
-0.785
-0.78
-0.785
-0.79
-0.77
-0.775
-0.785
-0.765
-0.755
-0.745
-0.74
-0.74
-0.745
-0.755
-0.755
-0.735
-0.73
-0.745
-0.725
-0.725
-0.705
-0.69
-0.67
-0.66
-0.675
-0.67
-0.665
-0.665
-0.67
-0.675
-0.665
-0.64
-0.615
-0.595
-0.575
-0.57
-0.565
-0.56
-0.555
-0.55
-0.55
-0.535
-0.525
-0.51
-0.485
-0.475
-0.45
-0.43
-0.42
-0.4
-0.39
-0.39
-0.375
-0.4
-0.39
-0.355
-0.345
-0.325
-0.29
-0.285
-0.29
-0.28
-0.28
-0.29
-0.3
-0.31
-0.315
-0.315
-0.305
-0.31
-0.325
-0.315
-0.355
-0.385
-0.415
-0.43
-0.465
-0.505
-0.525
-0.54
-0.56
-0.575
-0.605
-0.62
-0.64
-0.66
-0.685
-0.72
-0.725
-0.76
-0.765
-0.76
-0.76
-0.755
-0.75
-0.77
-0.785
-0.775
-0.795
-0.785
-0.805
-0.805
-0.815
-0.81
-0.815
-0.805
-0.785
-0.795
-0.78
-0.795
-0.81
-0.82
-0.845
-0.82
-0.82
-0.82
-0.805
-0.785
-0.785
-0.765
-0.775
-0.78
-0.79
-0.81
-0.805
-0.815
-0.82
-0.805
-0.795
-0.775
-0.765
-0.765
-0.775
-0.795
-0.795
-0.795
-0.8
-0.815
-0.795
-0.815
-0.8
-0.79
-0.785
-0.78
-0.78
-0.79
-0.795
-0.81
-0.83
-0.825
-0.835
-0.825
-0.815
-0.815
-0.81
-0.805
-0.825
-0.815
-0.835
-0.84
-0.84
-0.84
-0.85
-0.835
-0.83
-0.815
-0.81
-0.835
-0.835
-0.835
-0.845
-0.85
-0.85
-0.87
-0.87
-0.845
-0.865
-0.83
-0.815
-0.825
-0.835
-0.845
-0.84
-0.845
-0.85
-0.86
-0.86
-0.855
-0.85
-0.835
-0.82
-0.815
-0.82
-0.83
-0.82
-0.825
-0.855
-0.87
-0.87
-0.85
-0.845
-0.845
-0.825
-0.82
-0.83
-0.845
-0.84
-0.85
-0.86
-0.87
-0.855
-0.845
-0.845
-0.82
-0.81
-0.815
-0.825
-0.83
-0.845
-0.845
-0.85
-0.875
-0.875
-0.85
-0.83
-0.83
-0.825
-0.83
-0.83
-0.835
-0.86
-0.855
-0.855
-0.855
-0.855
-0.865
-0.835
-0.825
-0.81
-0.83
-0.83
-0.825
-0.835
-0.83
-0.85
-0.855
-0.865
-0.845
-0.84
-0.835
-0.81
-0.815
-0.81
-0.81
-0.83
-0.835
-0.86
-0.885
-0.855
-0.86
-0.825
-0.82
-0.82
-0.79
-0.825
-0.82
-0.82
-0.83
-0.84
-0.845
-0.845
-0.84
-0.825
-0.815
-0.8
-0.8
-0.8
-0.805
-0.82
-0.82
-0.835
-0.84
-0.845
-0.83
-0.82
-0.825
-0.8
-0.795
-0.795
-0.79
-0.795
-0.785
-0.785
-0.785
-0.775
-0.77
-0.765
-0.745
-0.72
-0.7
-0.68
-0.665
-0.665
-0.655
-0.66
-0.675
-0.69
-0.695
-0.7
-0.705
-0.71
-0.705
-0.715
-0.74
-0.75
-0.765
-0.805
-0.805
-0.815
-0.825
-0.82
-0.815
-0.81
-0.805
-0.825
-0.825
-0.815
-0.835
-0.86
-0.86
-0.87
-0.875
-0.86
-0.85
-0.84
-0.835
-0.83
-0.825
-0.845
-0.845
-0.845
-0.86
-0.855
-0.845
-0.845
-0.825
-0.81
-0.795
-0.815
-0.815
-0.795
-0.725
-0.66
-0.575
-0.475
-0.355
-0.245
-0.17
-0.14
-0.18
-0.32
-0.5
-0.68
-0.9
-1.11
-1.32
-1.475
-1.525
-1.49
-1.395
-1.255
-1.165
-1.09
-1.035
-0.985
-0.935
-0.9
-0.865
-0.85
-0.815
-0.815
-0.8
-0.795
-0.8
-0.795
-0.8
-0.805
-0.79
-0.8
-0.81
-0.805
-0.79
-0.77
-0.765
-0.76
-0.74
-0.745
-0.745
-0.76
-0.755
-0.77
-0.785
-0.785
-0.77
-0.755
-0.74
-0.745
-0.73
-0.73
-0.73
-0.735
-0.735
-0.73
-0.75
-0.75
-0.745
-0.715
-0.7
-0.685
-0.675
-0.685
-0.69
-0.69
-0.7
-0.685
-0.695
-0.69
-0.685
-0.67
-0.64
-0.63
-0.625
-0.625
-0.63
-0.62
-0.63
-0.625
-0.61
-0.61
-0.585
-0.58
-0.56
-0.525
-0.515
-0.51
-0.5
-0.48
-0.49
-0.47
-0.475
-0.455
-0.435
-0.415
-0.39
-0.375
-0.37
-0.36
-0.35
-0.345
-0.335
-0.34
-0.345
-0.345
-0.325
-0.295
-0.28
-0.27
-0.28
-0.28
-0.27
-0.28
-0.27
-0.285
-0.305
-0.32
-0.325
-0.34
-0.34
-0.345
-0.37
-0.385
-0.41
-0.435
-0.47
-0.495
-0.52
-0.54
-0.565
-0.57
-0.58
-0.59
-0.615
-0.635
-0.66
-0.69
-0.715
-0.75
-0.77
-0.775
-0.765
-0.775
-0.775
-0.77
-0.77
-0.77
-0.78
-0.79
-0.795
-0.815
-0.835
-0.84
-0.825
-0.815
-0.805
-0.795
-0.8
-0.79
-0.8
-0.805
-0.815
-0.835
-0.83
-0.83
-0.805
-0.8
-0.8
-0.79
-0.79
-0.79
-0.805
-0.81
-0.81
-0.825
-0.82
-0.835
-0.835
-0.815
-0.795
-0.795
-0.79
-0.795
-0.815
-0.815
-0.835
-0.84
-0.845
-0.85
-0.85
-0.845
-0.83
-0.82
-0.84
-0.825
-0.835
-0.86
-0.865
-0.875
-0.885
-0.885
-0.885
-0.875
-0.88
-0.865
-0.855
-0.865
-0.88
-0.9
-0.91
-0.905
-0.905
-0.915
-0.92
-0.905
-0.91
-0.9
-0.9
-0.905
-0.905
-0.915
-0.925
-0.935
-0.94
-0.945
-0.925
-0.925
-0.925
-0.915
-0.925
-0.915
-0.905
-0.935
-0.93
-0.94
-0.95
-0.945
-0.945
-0.935
-0.92
-0.92
-0.94
-0.94
-0.945
-0.95
-0.95
-0.95
-0.975
-0.97
-0.96
-0.95
-0.955
-0.955
-0.95
-0.935
-0.955
-0.945
-0.955
-0.965
-0.97
-0.97
-0.96
-0.975
-0.97
-0.955
-0.945
-0.95
-0.97
-0.975
-0.965
-0.975
-0.975
-0.995
-0.99
-0.98
-0.975
-0.965
-0.975
-0.97
-0.98
-0.98
-0.995
-1.005
-1.0
-0.995
-1.0
-0.985
-0.975
-0.97
-0.97
-0.965
-0.965
-0.98
-0.99
-1.005
-1.01
-1.01
-1.005
-0.995
-0.98
-0.99
-0.98
-0.98
-0.99
-1.005
-1.01
-1.025
-1.035
-1.02
-1.03
-1.015
-1.01
-1.005
-1.0
-1.015
-0.995
-1.0
-1.02
-1.035
-1.04
-1.035
-1.025
-1.005
-1.01
-1.01
-0.995
-0.995
-1.01
-1.015
-1.01
-1.025
-1.035
-1.03
-1.02
-1.03
-1.015
-1.0
-1.0
-1.02
-1.025
-1.025
-1.03
-1.035
-1.04
-1.035
-1.02
-1.015
-1.005
-0.995
-0.995
-0.97
-0.965
-0.97
-0.98
-0.975
-0.97
-0.97
-0.955
-0.935
-0.91
-0.9
-0.885
-0.875
-0.87
-0.875
-0.885
-0.92
-0.945
-0.95
-0.955
-0.95
-0.935
-0.945
-0.945
-0.955
-0.985
-1.0
-1.015
-1.025
-1.075
-1.07
-1.06
-1.055
-1.06
-1.05
-1.06
-1.065
-1.07
-1.075
-1.095
-1.095
-1.11
-1.1
-1.12
-1.105
-1.095
-1.075
-1.075
-1.075
-1.09
-1.085
-1.085
-1.09
-1.11
-1.095
-1.09
-1.08
-1.08
-1.045
-1.035
-1.005
-0.955
-0.88
-0.79
-0.7
-0.56
-0.41
-0.265
-0.155
-0.105
-0.13
-0.225
-0.4
-0.595
-0.85
-1.095
-1.335
-1.5
-1.575
-1.565
-1.47
-1.36
-1.265
-1.2
-1.155
-1.13
-1.105
-1.1
-1.085
-1.07
-1.05
-1.06
-1.05
-1.04
-1.035
-1.04
-1.035
-1.03
-1.045
-1.03
-1.05
-1.035
-1.04
-1.03
-1.025
-1.005
-0.995
-0.99
-1.015
-1.02
-1.0
-1.005
-1.02
-1.025
-1.015
-1.015
-1.01
-0.985
-0.965
-0.97
-0.975
-0.975
-0.97
-0.985
-0.985
-0.995
-0.99
-1.0
-0.98
-0.955
-0.935
-0.93
-0.93
-0.92
-0.93
-0.935
-0.945
-0.945
-0.94
-0.91
-0.9
-0.9
-0.87
-0.855
-0.87
-0.865
-0.86
-0.87
-0.86
-0.855
-0.855
-0.84
-0.81
-0.8
-0.8
-0.77
-0.765
-0.755
-0.755
-0.755
-0.755
-0.74
-0.715
-0.695
-0.68
-0.645
-0.63
-0.62
-0.605
-0.595
-0.58
-0.58
-0.575
-0.58
-0.57
-0.55
-0.535
-0.54
-0.515
-0.5
-0.5
-0.495
-0.505
-0.52
-0.525
-0.54
-0.55
-0.555
-0.565
-0.565
-0.565
-0.58
-0.6
-0.645
-0.675
-0.69
-0.72
-0.745
-0.78
-0.795
-0.82
-0.835
-0.835
-0.88
-0.89
-0.905
-0.935
-0.95
-0.965
-0.97
-1.0
-1.015
-1.015
-1.0
-1.015
-1.01
-1.01
-1.025
-1.035
-1.04
-1.055
-1.065
-1.07
-1.06
-1.05
-1.05
-1.065
-1.05
-1.05
-1.06
-1.075
-1.075
-1.075
-1.075
-1.07
-1.06
-1.05
-1.045
-1.025
-1.025
-1.03
-1.03
-1.035
-1.045
-1.055
-1.065
-1.05
-1.05
-1.055
-1.05
-1.035
-1.035
-1.03
-1.035
-1.035
-1.045
-1.055
-1.06
-1.06
-1.07
-1.055
-1.05
-1.04
-1.03
-1.04
-1.04
-1.05
-1.065
-1.07
-1.075
-1.065
-1.08
-1.055
-1.065
-1.06
-1.05
-1.055
-1.06
-1.07
-1.07
-1.085
-1.09
-1.095
-1.095
-1.095
-1.075
-1.08
-1.08
-1.08
-1.095
-1.09
-1.095
-1.11
-1.12
-1.115
-1.12
-1.105
-1.095
-1.095
-1.085
-1.09
-1.085
-1.1
-1.09
-1.115
-1.12
-1.115
-1.12
-1.11
-1.095
-1.085
-1.085
-1.095
-1.09
-1.1
-1.095
-1.1
-1.12
-1.11
-1.11
-1.1
-1.08
-1.075
-1.085
-1.09
-1.095
-1.11
-1.09
-1.095
-1.115
-1.12
-1.125
-1.105
-1.095
-1.1
-1.09
-1.085
-1.09
-1.095
-1.08
-1.095
-1.1
-1.09
-1.095
-1.1
-1.08
-1.06
-1.07
-1.08
-1.075
-1.075
-1.095
-1.1
-1.105
-1.11
-1.09
-1.09
-1.085
-1.06
-1.05
-1.06
-1.07
-1.08
-1.085
-1.11
-1.12
-1.125
-1.095
-1.085
-1.075
-1.085
-1.075
-1.075
-1.085
-1.085
-1.1
-1.085
-1.095
-1.095
-1.095
-1.085
-1.075
-1.065
-1.065
-1.05
-1.06
-1.08
-1.095
-1.09
-1.1
-1.11
-1.085
-1.085
-1.075
-1.07
-1.065
-1.06
-1.06
-1.075
-1.08
-1.085
-1.085
-1.08
-1.085
-1.08
-1.075
-1.045
-1.045
-1.045
-1.035
-1.045
-1.055
-1.065
-1.075
-1.075
-1.07
-1.065
-1.05
-1.04
-1.025
-1.045
-1.045
-1.045
-1.04
-1.03
-1.025
-1.015
-1.015
-1.005
-1.0
-1.0
-0.98
-0.96
-0.965
-0.95
-0.93
-0.925
-0.925
-0.905
-0.9
-0.9
-0.885
-0.89
-0.895
-0.92
-0.93
-0.925
-0.94
-0.96
-0.99
-0.995
-1.02
-1.015
-1.01
-1.015
-1.01
-1.015
-1.02
-1.02
-1.03
-1.06
-1.075
-1.08
-1.065
-1.055
-1.065
-1.05
-1.035
-1.035
-1.05
-1.065
-1.075
-1.065
-1.075
-1.075
-1.085
-1.065
-1.045
-1.045
-1.03
-1.025
-1.04
-1.025
-1.035
-1.02
-0.985
-0.915
-0.83
-0.72
-0.605
-0.485
-0.365
-0.305
-0.31
-0.375
-0.52
-0.725
-0.95
-1.17
-1.385
-1.55
-1.665
-1.69
-1.645
-1.56
-1.45
-1.375
-1.33
-1.29
-1.26
-1.23
-1.15
-1.11
-1.05
-1.0
-0.985
-0.98
-0.99
-1.01
-1.01
-1.02
-1.03
-1.025
-1.01
-0.99
-0.985
-0.975
-0.965
-0.97
-0.965
-0.97
-0.97
-0.97
-0.97
-0.975
-0.955
-0.955
-0.93
-0.94
-0.93
-0.93
-0.935
-0.955
-0.95
-0.94
-0.955
-0.93
-0.92
-0.905
-0.895
-0.875
-0.88
-0.88
-0.875
-0.895
-0.895
-0.895
-0.9
-0.9
-0.885
-0.855
-0.85
-0.83
-0.81
-0.81
-0.79
-0.805
-0.8
-0.805
-0.815
-0.805
-0.79
-0.775
-0.74
-0.71
-0.71
-0.685
-0.685
-0.68
-0.67
-0.665
-0.65
-0.635
-0.61
-0.59
-0.56
-0.555
-0.545
-0.52
-0.5
-0.49
-0.49
-0.475
-0.465
-0.47
-0.43
-0.435
-0.43
-0.415
-0.39
-0.39
-0.395
-0.39
-0.39
-0.405
-0.42
-0.405
-0.42
-0.43
-0.445
-0.45
-0.47
-0.495
-0.53
-0.56
-0.61
-0.625
-0.66
-0.695
-0.715
-0.735
-0.74
-0.77
-0.775
-0.8
-0.825
-0.85
-0.875
-0.89
-0.91
-0.915
-0.925
-0.92
-0.925
-0.915
-0.925
-0.925
-0.93
-0.945
-0.96
-0.975
-0.98
-0.99
-0.99
-0.965
-0.95
-0.955
-0.96
-0.94
-0.945
-0.965
-0.99
-0.975
-0.995
-0.985
-0.98
-0.985
-0.975
-0.96
-0.97
-0.97
-0.96
-0.97
-0.97
-0.995
-0.995
-0.995
-0.99
-0.985
-0.965
-0.965
-0.965
-0.965
-0.965
-0.985
-0.985
-0.985
-0.995
-1.0
-1.0
-0.985
-0.98
-0.97
-0.985
-0.98
-0.975
-1.005
-1.005
-1.025
-1.02
-1.02
-1.02
-1.015
-1.005
-1.01
-1.005
-1.015
-1.015
-1.035
-1.04
-1.04
-1.035
-1.055
-1.045
-1.04
-1.03
-1.035
-1.03
-1.035
-1.02
-1.04
-1.045
-1.06
-1.07
-1.065
-1.06
-1.055
-1.045
-1.05
-1.04
-1.035
-1.045
-1.06
-1.07
-1.06
-1.085
-1.065
-1.06
-1.06
-1.05
-1.055
-1.045
-1.05
-1.055
-1.055
-1.06
-1.08
-1.105
-1.09
-1.075
-1.055
-1.05
-1.045
-1.045
-1.06
-1.06
-1.08
-1.075
-1.085
-1.085
-1.09
-1.07
-1.085
-1.065
-1.045
-1.05
-1.05
-1.075
-1.08
-1.085
-1.085
-1.075
-1.105
-1.085
-1.07
-1.07
-1.055
-1.05
-1.05
-1.06
-1.055
-1.055
-1.075
-1.085
-1.075
-1.07
-1.07
-1.05
-1.05
-1.06
-1.055
-1.06
-1.065
-1.075
-1.085
-1.1
-1.09
-1.09
-1.07
-1.09
-1.075
-1.05
-1.055
-1.075
-1.07
-1.075
-1.1
-1.085
-1.095
-1.09
-1.07
-1.065
-1.06
-1.05
-1.055
-1.08
-1.075
-1.08
-1.085
-1.09
-1.1
-1.09
-1.085
-1.07
-1.05
-1.045
-1.055
-1.055
-1.05
-1.065
-1.075
-1.08
-1.07
-1.075
-1.08
-1.07
-1.06
-1.05
-1.04
-1.045
-1.06
-1.065
-1.07
-1.065
-1.06
-1.035
-1.025
-1.005
-0.99
-0.975
-0.975
-0.965
-0.97
-0.99
-0.97
-0.965
-0.95
-0.93
-0.905
-0.905
-0.91
-0.9
-0.93
-0.925
-0.95
-0.975
-0.955
-0.98
-0.99
-0.99
-0.99
-1.015
-1.01
-1.025
-1.015
-1.04
-1.045
-1.065
-1.085
-1.09
-1.095
-1.09
-1.095
-1.085
-1.08
-1.09
-1.085
-1.09
-1.095
-1.095
-1.11
-1.115
-1.125
-1.105
-1.095
-1.1
-1.07
-1.075
-1.07
-1.07
-1.08
-1.085
-1.1
-1.1
-1.095
-1.065
-1.02
-0.88
-0.775
-0.62
-0.455
-0.29
-0.17
-0.11
-0.135
-0.25
-0.45
-0.73
-1.02
-1.295
-1.51
-1.625
-1.61
-1.54
-1.45
-1.345
-1.265
-1.195
-1.175
-1.13
-1.085
-1.065
-1.05
-1.045
-1.025
-1.055
-1.045
-1.055
-1.075
-1.07
-1.05
-1.065
-1.05
-1.03
-1.04
-1.02
-1.015
-1.02
-1.015
-1.03
-1.04
-1.03
-1.025
-1.04
-1.015
-1.015
-1.0
-0.99
-1.0
-1.005
-1.02
-1.01
-1.01
-1.01
-1.01
-0.995
-0.98
-0.97
-0.975
-0.96
-0.965
-0.95
-0.945
-0.95
-0.96
-0.96
-0.955
-0.94
-0.94
-0.91
-0.895
-0.885
-0.885
-0.885
-0.875
-0.89
-0.895
-0.88
-0.875
-0.86
-0.845
-0.83
-0.815
-0.795
-0.795
-0.775
-0.79
-0.775
-0.775
-0.76
-0.745
-0.725
-0.715
-0.695
-0.67
-0.65
-0.635
-0.63
-0.625
-0.62
-0.62
-0.6
-0.595
-0.575
-0.545
-0.535
-0.515
-0.5
-0.485
-0.49
-0.48
-0.485
-0.495
-0.515
-0.505
-0.505
-0.495
-0.485
-0.485
-0.48
-0.505
-0.515
-0.535
-0.57
-0.59
-0.625
-0.645
-0.655
-0.675
-0.7
-0.725
-0.745
-0.775
-0.795
-0.835
-0.87
-0.885
-0.925
-0.95
-0.955
-0.97
-0.98
-0.975
-0.985
-1.0
-1.015
-1.03
-1.04
-1.055
-1.075
-1.08
-1.08
-1.085
-1.07
-1.065
-1.05
-1.05
-1.05
-1.06
-1.065
-1.07
-1.075
-1.075
-1.07
-1.075
-1.075
-1.06
-1.07
-1.065
-1.06
-1.045
-1.055
-1.08
-1.095
-1.085
-1.09
-1.065
-1.055
-1.05
-1.04
-1.04
-1.035
-1.035
-1.055
-1.065
-1.06
-1.06
-1.07
-1.065
-1.05
-1.05
-1.045
-1.035
-1.055
-1.035
-1.05
-1.06
-1.085
-1.09
-1.085
-1.08
-1.08
-1.055
-1.07
-1.07
-1.065
-1.085
-1.085
-1.1
-1.1
-1.095
-1.115
-1.09
-1.09
-1.085
-1.09
-1.085
-1.09
-1.105
-1.1
-1.11
-1.11
-1.12
-1.125
-1.105
-1.105
-1.11
-1.095
-1.095
-1.095
-1.095
-1.1
-1.13
-1.13
-1.13
-1.125
-1.125
-1.12
-1.12
-1.11
-1.105
-1.105
-1.1
-1.125
-1.125
-1.135
-1.135
-1.14
-1.13
-1.125
-1.105
-1.095
-1.1
-1.115
-1.12
-1.13
-1.135
-1.145
-1.13
-1.13
-1.115
-1.12
-1.1
-1.1
-1.095
-1.095
-1.105
-1.115
-1.125
-1.125
-1.13
-1.145
