Lead II
-0.41
-0.42
-0.415
-0.425
-0.425
-0.43
-0.435
-0.43
-0.43
-0.42
-0.415
-0.41
-0.41
-0.41
-0.42
-0.43
-0.44
-0.44
-0.415
-0.415
-0.405
-0.395
-0.385
-0.39
-0.4
-0.4
-0.405
-0.405
-0.415
-0.405
-0.405
-0.4
-0.405
-0.395
-0.39
-0.39
-0.4
-0.42
-0.42
-0.435
-0.44
-0.445
-0.445
-0.435
-0.43
-0.43
-0.43
-0.425
-0.44
-0.45
-0.46
-0.49
-0.49
-0.505
-0.525
-0.545
-0.535
-0.485
-0.37
-0.22
-0.01
0.225
0.48
0.78
1.05
1.3
1.475
1.59
1.625
1.58
1.505
1.335
1.075
0.695
0.24
-0.15
-0.415
-0.54
-0.56
-0.545
-0.495
-0.465
-0.415
-0.425
-0.43
-0.445
-0.48
-0.505
-0.49
-0.505
-0.505
-0.515
-0.52
-0.525
-0.525
-0.54
-0.55
-0.565
-0.575
-0.585
-0.605
-0.61
-0.61
-0.605
-0.6
-0.61
-0.62
-0.62
-0.635
-0.65
-0.66
-0.675
-0.68
-0.685
-0.69
-0.69
-0.68
-0.675
-0.675
-0.675
-0.69
-0.7
-0.71
-0.735
-0.745
-0.765
-0.77
-0.78
-0.785
-0.785
-0.77
-0.775
-0.775
-0.785
-0.775
-0.765
-0.785
-0.8
-0.785
-0.79
-0.79
-0.8
-0.8
-0.805
-0.82
-0.835
-0.85
-0.86
-0.88
-0.9
-0.91
-0.91
-0.93
-0.94
-0.935
-0.95
-0.975
-0.99
-1.0
-1.02
-1.04
-1.04
-1.04
-1.035
-1.025
-1.0
-0.985
-0.975
-0.94
-0.91
-0.885
-0.865
-0.84
-0.8
-0.76
-0.73
-0.705
-0.69
-0.645
-0.625
-0.61
-0.605
-0.59
-0.59
-0.57
-0.555
-0.55
-0.545
-0.52
-0.515
-0.505
-0.51
-0.505
-0.51
-0.505
-0.495
-0.495
-0.49
-0.475
-0.47
-0.475
-0.475
-0.46
-0.445
-0.455
-0.455
-0.455
-0.46
-0.475
-0.48
-0.49
-0.495
-0.485
-0.48
-0.475
-0.475
-0.49
-0.5
-0.505
-0.505
-0.505
-0.52
-0.52
-0.525
-0.53
-0.53
-0.515
-0.52
-0.52
-0.525
-0.54
-0.54
-0.545
-0.53
-0.535
-0.525
-0.51
-0.495
-0.485
-0.49
-0.47
-0.48
-0.485
-0.48
-0.495
-0.5
-0.495
-0.5
-0.495
-0.49
-0.495
-0.495
-0.49
-0.5
-0.49
-0.48
-0.475
-0.465
-0.47
-0.45
-0.45
-0.445
-0.44
-0.44
-0.44
-0.445
-0.45
-0.46
-0.475
-0.48
-0.47
-0.465
-0.455
-0.455
-0.45
-0.435
-0.45
-0.47
-0.475
-0.5
-0.525
-0.54
-0.5
-0.41
-0.28
-0.095
0.115
0.33
0.575
0.83
1.07
1.265
1.415
1.485
1.495
1.445
1.365
1.18
0.92
0.52
0.065
-0.315
-0.57
-0.675
-0.67
-0.615
-0.57
-0.525
-0.515
-0.525
-0.535
-0.56
-0.59
-0.61
-0.62
-0.62
-0.625
-0.62
-0.62
-0.605
-0.605
-0.6
-0.59
-0.59
-0.585
-0.585
-0.59
-0.605
-0.615
-0.62
-0.625
-0.63
-0.62
-0.615
-0.61
-0.61
-0.605
-0.625
-0.64
-0.65
-0.655
-0.675
-0.685
-0.675
-0.67
-0.67
-0.675
-0.665
-0.69
-0.695
-0.71
-0.73
-0.74
-0.74
-0.75
-0.765
-0.75
-0.74
-0.73
-0.745
-0.735
-0.74
-0.765
-0.77
-0.775
-0.785
-0.805
-0.805
-0.81
-0.83
-0.85
-0.86
-0.885
-0.92
-0.925
-0.95
-0.965
-0.995
-1.01
-1.02
-1.015
-1.01
-1.005
-1.015
-1.005
-1.0
-1.015
-1.02
-1.025
-1.02
-1.005
-0.995
-0.965
-0.945
-0.92
-0.915
-0.905
-0.885
-0.865
-0.835
-0.82
-0.785
-0.75
-0.74
-0.71
-0.695
-0.675
-0.66
-0.655
-0.64
-0.645
-0.64
-0.625
-0.605
-0.6
-0.585
-0.575
-0.555
-0.55
-0.56
-0.555
-0.565
-0.575
-0.58
-0.58
-0.59
-0.58
-0.575
-0.59
-0.575
-0.575
-0.575
-0.57
-0.59
-0.6
-0.595
-0.61
-0.605
-0.605
-0.595
-0.59
-0.585
-0.56
-0.56
-0.565
-0.565
-0.57
-0.56
-0.565
-0.55
-0.545
-0.53
-0.515
-0.52
-0.51
-0.5
-0.5
-0.5
-0.51
-0.525
-0.525
-0.53
-0.53
-0.525
-0.52
-0.51
-0.505
-0.505
-0.51
-0.52
-0.53
-0.53
-0.535
-0.555
-0.55
-0.545
-0.55
-0.535
-0.53
-0.515
-0.535
-0.535
-0.555
-0.55
-0.55
-0.555
-0.56
-0.55
-0.555
-0.555
-0.555
-0.545
-0.555
-0.56
-0.575
-0.575
-0.59
-0.6
-0.6
-0.59
-0.58
-0.58
-0.585
-0.585
-0.585
-0.575
-0.575
-0.585
-0.585
-0.58
-0.57
-0.57
-0.54
-0.54
-0.525
-0.51
-0.51
-0.5
-0.505
-0.495
-0.505
-0.5
-0.51
-0.51
-0.495
-0.49
-0.485
-0.49
-0.485
-0.485
-0.515
-0.515
-0.525
-0.535
-0.53
-0.525
-0.53
-0.545
-0.55
-0.55
-0.565
-0.565
-0.585
-0.59
-0.6
-0.595
-0.59
-0.59
-0.59
-0.59
-0.575
-0.565
-0.56
-0.565
-0.575
-0.575
-0.575
-0.585
-0.585
-0.58
-0.58
-0.565
-0.555
-0.56
-0.555
-0.535
-0.545
-0.54
-0.54
-0.54
-0.525
-0.525
-0.51
-0.51
-0.5
-0.495
-0.49
-0.485
-0.48
-0.485
-0.485
-0.49
-0.475
-0.47
-0.465
-0.46
-0.445
-0.45
-0.435
-0.445
-0.445
-0.445
-0.465
-0.465
-0.475
-0.465
-0.475
-0.495
-0.51
-0.515
-0.505
-0.445
-0.34
-0.18
0.015
0.26
0.51
0.785
1.06
1.29
1.47
1.57
1.6
1.57
1.485
1.32
1.04
0.655
0.19
-0.25
-0.565
-0.715
-0.715
-0.68
-0.62
-0.565
-0.56
-0.565
-0.59
-0.615
-0.63
-0.66
-0.665
-0.66
-0.645
-0.64
-0.645
-0.645
-0.66
-0.665
-0.66
-0.67
-0.665
-0.68
-0.665
-0.645
-0.635
-0.635
-0.64
-0.635
-0.65
-0.655
-0.66
-0.67
-0.675
-0.68
-0.69
-0.695
-0.695
-0.705
-0.715
-0.735
-0.74
-0.765
-0.775
-0.78
-0.79
-0.805
-0.81
-0.81
-0.805
-0.815
-0.82
-0.83
-0.85
-0.86
-0.87
-0.88
-0.87
-0.88
-0.875
-0.885
-0.895
-0.905
-0.91
-0.91
-0.92
-0.905
-0.925
-0.925
-0.925
-0.92
-0.92
-0.925
-0.92
-0.95
-0.96
-0.985
-1.0
-1.035
-1.03
-1.035
-1.045
-1.05
-1.06
-1.05
-1.04
-1.05
-1.05
-1.06
-1.075
-1.085
-1.1
-1.1
-1.095
-1.09
-1.06
-1.05
-1.02
-1.0
-0.975
-0.95
-0.925
-0.9
-0.865
-0.85
-0.815
-0.77
-0.745
-0.72
-0.695
-0.67
-0.66
-0.645
-0.62
-0.6
-0.6
-0.615
-0.605
-0.59
-0.58
-0.57
-0.56
-0.555
-0.555
-0.555
-0.565
-0.55
-0.545
-0.55
-0.535
-0.535
-0.53
-0.515
-0.515
-0.51
-0.51
-0.505
-0.525
-0.515
-0.535
-0.54
-0.53
-0.515
-0.505
-0.49
-0.47
-0.435
-0.43
-0.435
-0.44
-0.455
-0.465
-0.46
-0.46
-0.455
-0.45
-0.44
-0.425
-0.435
-0.425
-0.43
-0.425
-0.43
-0.445
-0.455
-0.46
-0.45
-0.445
-0.43
-0.435
-0.43
-0.435
-0.44
-0.45
-0.46
-0.47
-0.48
-0.47
-0.47
-0.465
-0.465
-0.47
-0.465
-0.495
-0.495
-0.495
-0.505
-0.505
-0.495
-0.5
-0.5
-0.485
-0.495
-0.485
-0.475
-0.48
-0.475
-0.47
-0.475
-0.485
-0.475
-0.485
-0.475
-0.465
-0.455
-0.445
-0.44
-0.44
-0.44
-0.46
-0.45
-0.47
-0.465
-0.445
-0.455
-0.445
-0.435
-0.435
-0.42
-0.425
-0.44
-0.445
-0.45
-0.445
-0.465
-0.46
-0.455
-0.45
-0.45
-0.44
-0.44
-0.435
-0.45
-0.455
-0.47
-0.47
-0.495
-0.505
-0.51
-0.515
-0.52
-0.53
-0.515
-0.52
-0.52
-0.53
-0.52
-0.53
-0.53
-0.525
-0.515
-0.51
-0.495
-0.485
-0.485
-0.49
-0.485
-0.48
-0.49
-0.505
-0.505
-0.495
-0.49
-0.485
-0.465
-0.46
-0.455
-0.45
-0.45
-0.455
-0.465
-0.475
-0.47
-0.48
-0.47
-0.465
-0.455
-0.455
-0.455
-0.455
-0.465
-0.48
-0.495
-0.5
-0.505
-0.5
-0.495
-0.49
-0.49
-0.495
-0.48
-0.485
-0.475
-0.475
-0.48
-0.5
-0.5
-0.49
-0.49
-0.485
-0.485
-0.48
-0.465
-0.47
-0.46
-0.455
-0.465
-0.465
-0.46
-0.455
-0.455
-0.44
-0.43
-0.42
-0.405
-0.415
-0.415
-0.415
-0.42
-0.42
-0.435
-0.425
-0.435
-0.425
-0.425
-0.425
-0.43
-0.44
-0.435
-0.45
-0.455
-0.475
-0.49
-0.495
-0.49
-0.48
-0.49
-0.495
-0.485
-0.49
-0.49
-0.515
-0.53
-0.545
-0.54
-0.535
-0.545
-0.535
-0.505
-0.49
-0.49
-0.49
-0.475
-0.475
-0.475
-0.475
-0.48
-0.475
-0.48
-0.48
-0.475
-0.5
-0.515
-0.53
-0.525
-0.475
-0.36
-0.21
-0.015
0.215
0.49
0.795
1.075
1.345
1.535
1.635
1.675
1.645
1.575
1.455
1.23
0.885
0.435
-0.015
-0.355
-0.535
-0.6
-0.59
-0.545
-0.5
-0.465
-0.48
-0.52
-0.54
-0.575
-0.585
-0.59
-0.575
-0.595
-0.61
-0.595
-0.625
-0.63
-0.645
-0.67
-0.67
-0.665
-0.675
-0.675
-0.67
-0.68
-0.675
-0.675
-0.68
-0.68
-0.69
-0.695
-0.69
-0.7
-0.67
-0.675
-0.67
-0.66
-0.67
-0.685
-0.7
-0.725
-0.735
-0.745
-0.735
-0.735
-0.725
-0.725
-0.74
-0.725
-0.74
-0.76
-0.755
-0.785
-0.79
-0.805
-0.805
-0.815
-0.825
-0.825
-0.845
-0.85
-0.88
-0.875
-0.895
-0.915
-0.925
-0.94
-0.945
-0.955
-0.965
-0.985
-0.99
-1.01
-1.03
-1.055
-1.07
-1.1
-1.105
-1.12
-1.135
-1.135
-1.14
-1.145
-1.135
-1.14
-1.14
-1.145
-1.145
-1.145
-1.145
-1.13
-1.11
-1.085
-1.045
-1.0
-0.955
-0.915
-0.885
-0.85
-0.81
-0.8
-0.765
-0.755
-0.735
-0.715
-0.69
-0.685
-0.66
-0.635
-0.63
-0.62
-0.615
-0.605
-0.595
-0.595
-0.595
-0.59
-0.585
-0.57
-0.57
-0.56
-0.545
-0.535
-0.535
-0.54
-0.535
-0.535
-0.525
-0.52
-0.515
-0.51
-0.495
-0.485
-0.495
-0.495
-0.49
-0.505
-0.5
-0.49
-0.51
-0.51
-0.5
-0.51
-0.5
-0.49
-0.5
-0.5
-0.51
-0.515
-0.515
-0.515
-0.52
-0.51
-0.5
-0.49
-0.485
-0.48
-0.48
-0.48
-0.485
-0.495
-0.52
-0.5
-0.51
-0.515
-0.505
-0.5
-0.495
-0.495
-0.5
-0.5
-0.515
-0.52
-0.55
-0.54
-0.53
-0.525
-0.53
-0.51
-0.505
-0.5
-0.5
-0.5
-0.5
-0.505
-0.51
-0.515
-0.51
-0.505
-0.515
-0.505
-0.51
-0.495
-0.495
-0.5
-0.51
-0.505
-0.515
-0.52
-0.52
-0.54
-0.535
-0.53
-0.55
-0.53
-0.535
-0.555
-0.555
-0.555
-0.56
-0.56
-0.55
-0.54
-0.545
-0.535
-0.53
-0.52
-0.52
-0.53
-0.525
-0.545
-0.555
-0.565
-0.55
-0.55
-0.545
-0.525
-0.525
-0.51
-0.53
-0.52
-0.505
-0.52
-0.515
-0.52
-0.52
-0.52
-0.51
-0.505
-0.49
-0.49
-0.49
-0.48
-0.475
-0.48
-0.505
-0.51
-0.52
-0.535
-0.52
-0.47
-0.375
-0.215
-0.02
0.215
0.46
0.745
1.025
1.275
1.47
1.595
1.645
1.63
1.555
1.405
1.11
0.71
0.235
-0.235
-0.55
-0.72
-0.75
-0.7
-0.62
-0.57
-0.55
-0.545
-0.565
-0.59
-0.62
-0.645
-0.655
-0.665
-0.67
-0.67
-0.67
-0.665
-0.66
-0.67
-0.67
-0.675
-0.68
-0.695
-0.705
-0.71
-0.72
-0.725
-0.735
-0.725
-0.71
-0.72
-0.725
-0.72
-0.74
-0.735
-0.75
-0.76
-0.745
-0.75
-0.745
-0.75
-0.75
-0.765
-0.77
-0.78
-0.78
-0.79
-0.795
-0.795
-0.81
-0.8
-0.8
-0.8
-0.78
-0.785
-0.795
-0.81
-0.825
-0.84
-0.855
-0.87
-0.87
-0.88
-0.88
-0.9
-0.915
-0.94
-0.955
-0.98
-1.0
-1.025
-1.03
-1.04
-1.04
-1.05
-1.045
-1.055
-1.065
-1.075
-1.1
-1.11
-1.12
-1.14
-1.155
-1.165
-1.165
-1.165
-1.16
-1.135
-1.115
-1.09
-1.075
-1.06
-1.04
-1.015
-0.99
-0.97
-0.925
-0.91
-0.87
-0.855
-0.82
-0.795
-0.77
-0.755
-0.75
-0.72
-0.705
-0.7
-0.675
-0.655
-0.64
-0.62
-0.62
-0.605
-0.59
-0.57
-0.565
-0.565
-0.565
-0.565
-0.56
-0.545
-0.54
-0.53
-0.52
-0.52
-0.52
-0.53
-0.54
-0.535
-0.555
-0.56
-0.555
-0.55
-0.545
-0.54
-0.52
-0.525
-0.525
-0.525
-0.53
-0.535
-0.545
-0.57
-0.56
-0.56
-0.56
-0.57
-0.56
-0.56
-0.575
-0.57
-0.595
-0.6
-0.61
-0.625
-0.625
-0.62
-0.61
-0.6
-0.595
-0.595
-0.585
-0.59
-0.6
-0.605
-0.6
-0.6
-0.6
-0.585
-0.585
-0.575
-0.565
-0.555
-0.555
-0.565
-0.565
-0.585
-0.58
-0.58
-0.585
-0.575
-0.58
-0.57
-0.57
-0.575
-0.57
-0.56
-0.565
-0.575
-0.57
-0.565
-0.565
-0.57
-0.555
-0.57
-0.555
-0.545
-0.55
-0.545
-0.57
-0.55
-0.565
-0.555
-0.555
-0.54
-0.54
-0.53
-0.53
-0.525
-0.53
-0.525
-0.535
-0.555
-0.57
-0.6
-0.595
-0.605
-0.58
-0.57
-0.56
-0.55
-0.55
-0.555
-0.545
-0.55
-0.565
-0.58
-0.595
-0.6
-0.59
-0.505
-0.38
-0.205
0.01
0.27
0.555
0.845
1.12
1.34
1.49
1.56
1.55
1.505
1.385
1.165
0.81
0.365
-0.115
-0.495
-0.705
-0.76
-0.755
-0.68
-0.62
-0.58
-0.57
-0.58
-0.62
-0.655
-0.665
-0.69
-0.695
-0.7
-0.71
-0.7
-0.705
-0.705
-0.7
-0.695
-0.7
-0.705
-0.71
-0.715
-0.73
-0.73
-0.73
-0.735
-0.725
-0.72
-0.72
-0.715
-0.72
-0.695
-0.7
-0.705
-0.72
-0.74
-0.735
-0.75
-0.74
-0.75
-0.75
-0.755
-0.775
-0.795
-0.805
-0.81
-0.82
-0.825
-0.825
-0.825
-0.82
-0.82
-0.83
-0.835
-0.835
-0.84
-0.855
-0.87
-0.875
-0.885
-0.9
-0.905
-0.905
-0.915
-0.91
-0.92
-0.925
-0.95
-0.97
-0.985
-1.01
-1.05
-1.065
-1.07
-1.08
-1.085
-1.1
-1.1
-1.125
-1.115
-1.13
-1.15
-1.17
-1.185
-1.185
-1.185
-1.175
-1.155
-1.13
-1.095
-1.075
-1.055
-1.03
-1.005
-0.98
-0.945
-0.905
-0.875
-0.845
-0.81
-0.79
-0.76
-0.74
-0.725
-0.715
-0.69
-0.685
-0.675
-0.655
-0.655
-0.635
-0.64
-0.63
-0.625
-0.64
-0.635
-0.63
-0.635
-0.63
-0.635
-0.62
-0.615
-0.605
-0.6
-0.59
-0.58
-0.58
-0.595
-0.6
-0.6
-0.605
-0.605
-0.61
-0.585
-0.575
-0.565
-0.555
-0.545
-0.535
-0.535
-0.545
-0.555
-0.565
-0.56
-0.56
-0.56
-0.56
-0.55
-0.545
-0.54
-0.55
-0.57
-0.585
-0.585
-0.61
-0.61
-0.625
-0.615
-0.62
-0.605
-0.6
-0.59
-0.595
-0.59
-0.59
-0.6
-0.61
-0.615
-0.62
-0.61
-0.605
-0.61
-0.605
-0.595
-0.59
-0.6
-0.6
-0.61
-0.605
-0.62
-0.615
-0.61
-0.605
-0.595
-0.585
-0.59
-0.6
-0.605
-0.62
-0.61
-0.61
-0.605
-0.59
-0.57
-0.55
-0.54
-0.53
-0.515
-0.53
-0.525
-0.545
-0.545
-0.555
-0.57
-0.565
-0.545
-0.54
-0.535
-0.525
-0.515
-0.52
-0.535
-0.55
-0.57
-0.58
-0.605
-0.595
-0.6
-0.605
-0.6
-0.6
-0.59
-0.605
-0.605
-0.62
-0.63
-0.64
-0.63
-0.645
-0.625
-0.625
-0.64
-0.61
-0.61
-0.605
-0.6
-0.615
-0.61
-0.625
-0.62
-0.635
-0.625
-0.615
-0.62
-0.6
-0.61
-0.6
-0.6
-0.605
-0.61
-0.615
-0.62
-0.61
-0.605
-0.59
-0.585
-0.575
-0.57
-0.545
-0.535
-0.525
-0.53
-0.53
-0.53
-0.52
-0.525
-0.505
-0.495
-0.48
-0.465
-0.475
-0.485
-0.48
-0.49
-0.505
-0.52
-0.535
-0.555
-0.565
-0.535
-0.475
-0.355
-0.205
-0.005
0.22
0.49
0.77
1.055
1.315
1.495
1.615
1.645
1.615
1.52
1.34
1.035
0.605
0.085
-0.37
-0.67
-0.81
-0.82
-0.76
-0.695
-0.65
-0.615
-0.625
-0.67
-0.705
-0.74
-0.77
-0.765
-0.765
-0.76
-0.745
-0.75
-0.725
-0.725
-0.73
-0.73
-0.73
-0.735
-0.735
-0.74
-0.73
-0.73
-0.75
-0.73
-0.735
-0.73
-0.72
-0.735
-0.74
-0.75
-0.755
-0.77
-0.77
-0.775
-0.785
-0.795
-0.79
-0.78
-0.8
-0.805
-0.81
-0.83
-0.83
-0.85
-0.86
-0.87
-0.855
-0.86
-0.865
-0.88
-0.9
-0.915
-0.94
-0.955
-0.97
-0.98
-1.0
-1.0
-1.005
-1.01
-1.015
-1.01
-1.025
-1.04
-1.055
-1.07
-1.075
-1.085
-1.095
-1.1
-1.105
-1.11
-1.095
-1.1
-1.105
-1.11
-1.14
-1.14
-1.15
-1.165
-1.17
-1.17
-1.17
-1.17
-1.165
-1.145
-1.125
-1.115
-1.1
-1.075
-1.06
-1.045
-1.01
-0.98
-0.93
-0.905
-0.865
-0.83
-0.81
-0.775
-0.78
-0.75
-0.76
-0.76
-0.745
-0.715
-0.715
-0.7
-0.71
-0.7
-0.685
-0.7
-0.705
-0.725
-0.72
-0.725
-0.73
-0.725
-0.715
-0.715
-0.705
-0.695
-0.71
-0.705
-0.69
-0.7
-0.695
-0.695
-0.68
-0.68
-0.66
-0.625
-0.61
-0.6
-0.57
-0.565
-0.565
-0.575
-0.58
-0.59
-0.565
-0.575
-0.56
-0.555
-0.545
-0.545
-0.54
-0.55
-0.545
-0.555
-0.55
-0.555
-0.55
-0.54
-0.55
-0.55
-0.54
-0.535
-0.55
-0.55
-0.565
-0.58
-0.59
-0.6
-0.61
-0.62
-0.62
-0.625
-0.615
-0.615
-0.625
-0.625
-0.625
-0.61
-0.62
-0.625
-0.61
-0.61
-0.595
-0.595
-0.585
-0.575
-0.59
-0.59
-0.59
-0.6
-0.595
-0.615
-0.62
-0.59
-0.59
-0.575
-0.575
-0.565
-0.58
-0.58
-0.59
-0.595
-0.59
-0.585
-0.585
-0.585
-0.57
-0.56
-0.555
-0.55
-0.54
-0.55
-0.575
-0.585
-0.595
-0.61
-0.625
-0.615
-0.61
-0.6
-0.58
-0.59
-0.6
-0.595
-0.605
-0.615
-0.635
-0.645
-0.665
-0.65
-0.65
-0.645
-0.65
-0.64
-0.645
-0.64
-0.64
-0.635
-0.645
-0.64
-0.64
-0.635
-0.635
-0.625
-0.61
-0.605
-0.6
-0.6
-0.595
-0.605
-0.605
-0.615
-0.6
-0.595
-0.58
-0.575
-0.57
-0.57
-0.585
-0.59
-0.615
-0.64
-0.655
-0.64
-0.57
-0.435
-0.265
-0.04
0.21
0.475
0.76
1.035
1.265
1.435
1.53
1.56
1.54
1.47
1.365
1.155
0.865
0.42
-0.075
-0.475
-0.735
-0.825
-0.81
-0.77
-0.72
-0.69
-0.68
-0.69
-0.7
-0.715
-0.73
-0.74
-0.745
-0.745
-0.765
-0.765
-0.78
-0.775
-0.77
-0.765
-0.765
-0.76
-0.75
-0.755
-0.755
-0.77
-0.795
-0.795
-0.79
-0.785
-0.785
-0.785
-0.78
-0.775
-0.785
-0.79
-0.785
-0.8
-0.805
-0.815
-0.83
-0.84
-0.84
-0.84
-0.84
-0.825
-0.835
-0.84
-0.855
-0.86
-0.895
-0.9
-0.905
-0.91
-0.915
-0.915
-0.91
-0.905
-0.915
-0.925
-0.945
-0.955
-0.965
-0.98
-0.99
-1.0
-1.01
-1.01
-1.01
-1.02
-1.035
-1.035
-1.06
-1.08
-1.1
-1.11
-1.125
-1.14
-1.145
-1.15
-1.17
-1.175
-1.185
-1.195
-1.21
-1.225
-1.23
-1.255
-1.255
-1.24
-1.235
-1.21
-1.205
-1.19
-1.175
-1.15
-1.14
-1.105
-1.095
-1.065
-1.03
-0.995
-0.95
-0.915
-0.89
-0.855
-0.83
-0.81
-0.805
-0.78
-0.775
-0.77
-0.755
-0.75
-0.725
-0.715
-0.69
-0.68
-0.68
-0.66
-0.665
-0.67
-0.67
-0.675
-0.67
-0.67
-0.66
-0.655
-0.655
-0.665
-0.66
-0.66
-0.67
-0.675
-0.68
-0.69
-0.675
-0.67
-0.68
-0.67
-0.665
-0.65
-0.635
-0.635
-0.645
-0.645
-0.65
-0.65
-0.645
-0.645
-0.635
-0.62
-0.615
-0.625
-0.61
-0.62
-0.63
-0.635
-0.635
-0.645
-0.655
-0.655
-0.63
-0.625
-0.615
-0.6
-0.605
-0.6
-0.61
-0.61
-0.615
-0.61
-0.605
-0.6
-0.595
-0.585
-0.575
-0.56
-0.565
-0.55
-0.56
-0.57
-0.605
-0.625
-0.6
-0.505
-0.34
-0.13
0.105
0.37
0.66
0.94
1.22
1.42
1.545
1.58
1.535
1.46
1.28
0.985
0.565
0.075
-0.36
-0.635
-0.765
-0.77
-0.72
-0.67
-0.64
-0.625
-0.615
-0.64
-0.655
-0.675
-0.69
-0.685
-0.715
-0.725
-0.735
-0.76
-0.775
-0.78
-0.785
-0.79
-0.8
-0.78
-0.785
-0.795
-0.8
-0.815
-0.83
-0.83
-0.845
-0.85
-0.85
-0.835
-0.84
-0.825
-0.815
-0.815
-0.815
-0.82
-0.835
-0.845
-0.85
-0.85
-0.855
-0.865
-0.85
-0.855
-0.855
-0.86
-0.875
-0.885
-0.895
-0.91
-0.925
-0.925
-0.925
-0.92
-0.91
-0.92
-0.92
-0.94
-0.955
-0.975
-0.98
-0.99
-1.0
-1.025
-1.025
-1.025
-1.035
-1.045
-1.06
-1.08
-1.08
-1.105
-1.115
-1.135
-1.135
-1.14
-1.14
-1.16
-1.155
-1.145
-1.155
-1.165
-1.165
-1.16
-1.15
-1.135
-1.11
-1.08
-1.05
-1.01
-0.97
-0.935
-0.915
-0.89
-0.865
-0.845
-0.83
-0.825
-0.81
-0.795
-0.785
-0.765
-0.745
-0.745
-0.735
-0.725
-0.705
-0.715
-0.715
-0.705
-0.695
-0.695
-0.7
-0.695
-0.685
-0.675
-0.665
-0.665
-0.685
-0.68
-0.695
-0.68
-0.69
-0.68
-0.675
-0.66
-0.645
-0.645
-0.645
-0.645
-0.65
-0.66
-0.67
-0.68
-0.68
-0.68
-0.685
-0.685
-0.68
-0.675
-0.685
-0.68
-0.69
-0.695
-0.695
-0.695
-0.685
-0.675
-0.67
-0.66
-0.65
-0.63
-0.625
-0.625
-0.615
-0.63
-0.63
-0.64
-0.635
-0.65
-0.645
-0.64
-0.64
-0.635
-0.635
-0.63
-0.635
-0.635
-0.635
-0.63
-0.64
-0.635
-0.625
-0.64
-0.64
-0.635
-0.625
-0.64
-0.63
-0.635
-0.65
-0.655
-0.645
-0.665
-0.66
-0.645
-0.65
-0.645
-0.66
-0.68
-0.69
-0.7
-0.72
-0.74
-0.75
-0.77
-0.745
-0.75
-0.75
-0.73
-0.745
-0.725
-0.74
-0.75
-0.735
-0.74
-0.74
-0.74
-0.73
-0.71
-0.685
-0.67
-0.675
-0.68
-0.68
-0.68
-0.685
-0.69
-0.685
-0.675
-0.66
-0.65
-0.64
-0.63
-0.62
-0.625
-0.63
-0.64
-0.635
-0.655
-0.645
-0.64
-0.635
-0.63
-0.63
-0.625
-0.63
-0.63
-0.625
-0.635
-0.64
-0.64
-0.635
-0.645
-0.64
-0.635
-0.63
-0.63
-0.64
-0.65
-0.67
-0.67
-0.695
-0.695
-0.695
-0.705
-0.695
-0.695
-0.685
-0.67
-0.675
-0.66
-0.665
-0.675
-0.68
-0.685
-0.68
-0.695
-0.69
-0.68
-0.68
-0.675
-0.67
-0.68
-0.68
-0.7
-0.685
-0.685
-0.69
-0.705
-0.695
-0.68
-0.665
-0.655
-0.655
-0.64
-0.645
-0.65
-0.64
-0.645
-0.65
-0.645
-0.635
-0.63
-0.615
-0.6
-0.6
-0.6
-0.59
-0.605
-0.615
-0.62
-0.63
-0.615
-0.625
-0.625
-0.64
-0.655
-0.67
-0.67
-0.63
-0.54
-0.395
-0.2
0.05
0.35
0.67
0.99
1.27
1.48
1.59
1.615
1.54
1.4
1.16
0.78
0.26
-0.215
-0.595
-0.8
-0.855
-0.805
-0.74
-0.685
-0.65
-0.665
-0.695
-0.75
-0.79
-0.785
-0.785
-0.775
-0.78
-0.765
-0.77
-0.785
-0.81
-0.82
-0.84
-0.84
-0.85
-0.855
-0.86
-0.85
-0.87
-0.855
-0.855
-0.86
-0.87
-0.875
-0.88
-0.885
-0.9
-0.9
-0.895
-0.885
-0.885
-0.875
-0.875
-0.89
-0.9
-0.915
-0.935
-0.94
-0.95
-0.95
-0.97
-0.97
-0.97
-0.96
-0.965
-0.97
-0.98
-0.98
-0.995
-0.995
-0.995
-0.995
-1.0
-1.0
-1.01
-1.0
-1.02
-1.015
-1.025
-1.04
-1.055
-1.065
-1.075
-1.095
-1.11
-1.12
-1.125
-1.145
-1.155
-1.165
-1.18
-1.195
-1.21
-1.215
-1.24
-1.25
-1.26
-1.25
-1.25
-1.245
-1.245
-1.225
-1.205
-1.195
-1.185
-1.165
-1.13
-1.095
-1.055
-1.02
-0.985
-0.945
-0.92
-0.89
-0.875
-0.85
-0.84
-0.82
-0.8
-0.775
-0.75
-0.72
-0.69
-0.675
-0.655
-0.645
-0.64
-0.65
-0.645
-0.66
-0.655
-0.655
-0.645
-0.64
-0.625
-0.62
-0.62
-0.63
-0.625
-0.63
-0.63
-0.62
-0.625
-0.61
-0.61
-0.61
-0.6
-0.585
-0.58
-0.595
-0.58
-0.585
-0.59
-0.59
-0.58
-0.58
-0.56
-0.545
-0.525
-0.52
-0.52
-0.52
-0.52
-0.52
-0.52
-0.515
-0.515
-0.52
-0.525
-0.525
-0.53
-0.51
-0.535
-0.54
-0.545
-0.565
-0.565
-0.565
-0.555
-0.56
-0.55
-0.55
-0.54
-0.53
-0.535
-0.53
-0.545
-0.555
-0.57
-0.585
-0.6
-0.605
-0.61
-0.595
-0.605
-0.59
-0.59
-0.59
-0.59
-0.605
-0.6
-0.61
-0.62
-0.62
-0.6
-0.59
-0.595
-0.58
-0.585
-0.58
-0.59
-0.58
-0.575
-0.57
-0.565
-0.555
-0.56
-0.56
-0.56
-0.55
-0.555
-0.565
-0.575
-0.575
-0.56
-0.56
-0.56
-0.555
-0.545
-0.535
-0.53
-0.53
-0.515
-0.535
-0.54
-0.55
-0.555
-0.56
-0.565
-0.555
-0.55
-0.55
-0.54
-0.54
-0.54
-0.54
-0.545
-0.55
-0.555
-0.565
-0.565
-0.56
-0.55
-0.525
-0.515
-0.505
-0.5
-0.485
-0.49
-0.505
-0.52
-0.54
-0.55
-0.555
-0.515
-0.405
-0.265
-0.06
0.18
0.46
0.755
1.035
1.285
1.46
1.55
1.58
1.555
1.47
1.295
1.025
0.62
0.135
-0.315
-0.615
-0.76
-0.76
-0.715
-0.645
-0.595
-0.555
-0.56
-0.575
-0.595
-0.63
-0.655
-0.665
-0.67
-0.7
-0.705
-0.715
-0.725
-0.725
-0.73
-0.71
-0.72
-0.73
-0.735
-0.75
-0.75
-0.75
-0.745
-0.75
-0.735
-0.73
-0.74
-0.735
-0.735
-0.74
-0.745
-0.775
-0.765
-0.765
-0.765
-0.75
-0.75
-0.73
-0.735
-0.72
-0.73
-0.73
-0.735
-0.755
-0.755
-0.755
-0.765
-0.785
-0.785
-0.78
-0.785
-0.785
-0.79
-0.805
-0.81
-0.83
-0.84
-0.84
-0.855
-0.855
-0.87
-0.87
-0.875
-0.885
-0.895
-0.91
-0.93
-0.94
-0.955
-0.985
-0.995
-1.005
-1.01
-1.02
-1.02
-1.025
-1.04
-1.045
-1.065
-1.09
-1.1
-1.115
-1.13
-1.125
-1.115
-1.12
-1.105
-1.09
-1.085
-1.075
-1.07
-1.055
-1.045
-1.015
-0.985
-0.95
-0.915
-0.86
-0.82
-0.78
-0.75
-0.71
-0.705
-0.67
-0.66
-0.64
-0.625
-0.61
-0.585
-0.57
-0.55
-0.545
-0.535
-0.515
-0.515
-0.515
-0.51
-0.525
-0.52
-0.525
-0.515
-0.51
-0.505
-0.5
-0.505
-0.51
-0.505
-0.515
-0.515
-0.52
-0.525
-0.52
-0.53
-0.51
-0.51
-0.5
-0.515
-0.515
-0.52
-0.535
-0.54
-0.55
-0.535
-0.535
-0.525
-0.51
-0.505
-0.495
-0.49
-0.5
-0.5
-0.505
-0.51
-0.51
-0.505
-0.5
-0.49
-0.485
-0.475
-0.47
-0.465
-0.47
-0.465
-0.465
-0.485
-0.46
-0.47
-0.465
-0.45
-0.45
-0.43
-0.435
-0.435
-0.45
-0.46
-0.465
-0.465
-0.45
-0.455
-0.455
-0.455
-0.435
-0.425
-0.42
-0.42
-0.425
-0.435
-0.45
-0.465
-0.475
-0.47
-0.485
-0.485
-0.485
-0.485
-0.465
-0.455
-0.465
-0.465
-0.475
-0.475
-0.485
-0.495
-0.49
-0.485
-0.475
-0.47
-0.46
-0.47
-0.47
-0.47
-0.47
-0.485
-0.485
-0.48
-0.475
-0.48
-0.47
-0.47
-0.455
-0.465
-0.455
-0.46
-0.47
-0.49
-0.495
-0.505
-0.505
-0.505
-0.51
-0.525
-0.525
-0.51
-0.465
-0.33
-0.18
0.03
0.26
0.525
0.815
1.1
1.355
1.52
1.64
1.655
1.61
1.525
1.365
1.09
0.705
0.245
-0.17
-0.46
-0.585
-0.61
-0.57
-0.525
-0.475
-0.465
-0.48
-0.51
-0.535
-0.55
-0.565
-0.565
-0.55
-0.55
-0.545
-0.56
-0.565
-0.575
-0.59
-0.59
-0.6
-0.61
-0.64
-0.625
-0.635
-0.61
-0.62
-0.63
-0.65
-0.675
-0.69
-0.705
-0.72
-0.72
-0.715
-0.715
-0.71
-0.71
-0.72
-0.715
-0.72
-0.73
-0.745
-0.745
-0.755
-0.76
-0.76
-0.76
-0.755
-0.755
-0.735
-0.755
-0.755
-0.76
-0.77
-0.775
-0.785
-0.795
-0.805
-0.82
-0.825
-0.83
-0.83
-0.845
-0.85
-0.865
-0.875
-0.89
-0.9
-0.91
-0.92
-0.935
-0.94
-0.955
-0.96
-0.97
-0.985
-1.01
-1.035
-1.065
-1.075
-1.085
-1.09
-1.08
-1.08
-1.07
-1.065
-1.045
-1.04
-1.015
-1.005
-0.985
-0.96
-0.925
-0.885
-0.85
-0.815
-0.785
-0.735
-0.715
-0.7
-0.685
-0.67
-0.665
-0.64
-0.63
-0.6
-0.59
-0.555
-0.53
-0.51
-0.51
-0.49
-0.49
-0.485
-0.495
-0.49
-0.48
-0.48
-0.48
-0.47
-0.46
-0.45
-0.44
-0.445
-0.455
-0.46
-0.48
-0.485
-0.5
-0.5
-0.5
-0.51
-0.505
-0.49
-0.5
-0.49
-0.505
-0.49
-0.52
-0.525
-0.525
-0.525
-0.525
-0.51
-0.51
-0.505
-0.49
-0.495
-0.48
-0.48
-0.49
-0.495
-0.485
-0.485
-0.495
-0.495
-0.495
-0.49
-0.495
-0.495
-0.485
-0.47
-0.475
-0.47
-0.45
-0.445
-0.435
-0.42
-0.42
-0.41
-0.415
-0.415
-0.425
-0.435
-0.44
-0.445
-0.455
-0.445
-0.445
-0.44
-0.425
-0.41
-0.4
-0.4
-0.415
-0.415
-0.425
-0.44
-0.445
-0.45
-0.455
-0.45
-0.455
-0.45
-0.445
-0.455
-0.465
-0.47
-0.475
-0.49
-0.49
-0.5
-0.505
-0.49
-0.485
-0.48
-0.485
-0.495
-0.49
-0.5
-0.5
-0.5
-0.5
-0.49
-0.485
-0.505
-0.5
-0.49
-0.475
-0.49
-0.495
-0.495
-0.505
-0.515
-0.51
-0.515
-0.51
-0.5
-0.495
-0.475
-0.475
-0.485
-0.475
-0.485
-0.495
-0.49
-0.48
-0.475
-0.47
-0.45
-0.43
-0.43
-0.43
-0.43
-0.44
-0.44
-0.435
-0.445
-0.45
-0.44
-0.445
-0.435
-0.43
-0.415
-0.42
-0.425
-0.435
-0.445
-0.445
-0.445
-0.45
-0.45
-0.45
-0.44
-0.425
-0.43
-0.43
-0.425
-0.415
-0.425
-0.42
-0.415
-0.43
-0.44
-0.44
-0.44
-0.43
-0.44
-0.465
-0.47
-0.485
-0.52
-0.54
-0.575
-0.56
-0.51
-0.385
-0.22
0.005
0.27
0.545
0.845
1.14
1.385
1.57
1.65
1.65
1.58
1.41
1.155
0.76
0.275
-0.18
-0.495
-0.635
-0.67
-0.61
-0.54
-0.485
-0.445
-0.45
-0.485
-0.495
-0.505
-0.53
-0.52
-0.525
-0.525
-0.54
-0.565
-0.58
-0.59
-0.6
-0.595
-0.59
-0.59
-0.595
-0.595
-0.615
-0.635
-0.655
-0.665
-0.68
-0.675
-0.69
-0.685
-0.69
-0.695
-0.695
-0.705
-0.7
-0.705
-0.71
-0.725
-0.725
-0.715
-0.725
-0.73
-0.71
-0.72
-0.71
-0.715
-0.725
-0.735
-0.745
-0.745
-0.76
-0.765
-0.775
-0.78
-0.79
-0.785
-0.785
-0.775
-0.78
-0.775
-0.8
-0.79
-0.79
-0.795
-0.795
-0.82
-0.825
-0.835
-0.85
-0.87
-0.885
-0.91
-0.94
-0.96
-0.985
-1.0
-1.01
-1.025
-1.02
-1.03
-1.04
-1.05
-1.055
-1.065
-1.06
-1.05
-1.045
-1.02
-0.995
-0.955
-0.915
-0.88
-0.83
-0.8
-0.785
-0.775
-0.74
-0.705
-0.675
-0.665
-0.62
-0.6
-0.575
-0.545
-0.52
-0.51
-0.495
-0.49
-0.485
-0.49
-0.48
-0.465
-0.46
-0.44
-0.425
-0.405
