Lead II
-0.19
-0.18
-0.185
-0.185
-0.19
-0.19
-0.205
-0.21
-0.215
-0.225
-0.215
-0.21
-0.2
-0.205
-0.23
-0.235
-0.245
-0.25
-0.27
-0.265
-0.255
-0.245
-0.23
-0.23
-0.235
-0.245
-0.265
-0.275
-0.285
-0.305
-0.3
-0.295
-0.29
-0.305
-0.29
-0.295
-0.295
-0.315
-0.315
-0.335
-0.335
-0.35
-0.345
-0.345
-0.33
-0.32
-0.31
-0.305
-0.295
-0.28
-0.275
-0.27
-0.265
-0.255
-0.25
-0.24
-0.22
-0.215
-0.2
-0.175
-0.165
-0.17
-0.155
-0.18
-0.185
-0.185
-0.185
-0.18
-0.185
-0.185
-0.18
-0.18
-0.185
-0.2
-0.22
-0.24
-0.245
-0.24
-0.245
-0.235
-0.235
-0.24
-0.25
-0.265
-0.27
-0.26
-0.28
-0.295
-0.31
-0.3
-0.295
-0.285
-0.28
-0.285
-0.275
-0.27
-0.26
-0.265
-0.26
-0.25
-0.235
-0.23
-0.21
-0.19
-0.165
-0.135
-0.1
-0.065
-0.025
0.035
0.07
0.125
0.175
0.25
0.345
0.465
0.62
0.805
0.995
1.215
1.425
1.615
1.775
1.865
1.865
1.77
1.52
1.17
0.69
0.15
-0.395
-0.83
-1.135
-1.23
-1.16
-0.99
-0.785
-0.62
-0.485
-0.385
-0.345
-0.33
-0.36
-0.365
-0.395
-0.395
-0.405
-0.405
-0.41
-0.41
-0.425
-0.415
-0.41
-0.405
-0.4
-0.385
-0.4
-0.385
-0.39
-0.39
-0.4
-0.395
-0.4
-0.4
-0.38
-0.37
-0.375
-0.36
-0.365
-0.36
-0.365
-0.38
-0.38
-0.385
-0.38
-0.36
-0.34
-0.335
-0.35
-0.34
-0.335
-0.335
-0.34
-0.325
-0.33
-0.33
-0.32
-0.32
-0.305
-0.295
-0.29
-0.275
-0.265
-0.27
-0.275
-0.27
-0.27
-0.26
-0.26
-0.26
-0.26
-0.255
-0.245
-0.245
-0.24
-0.24
-0.235
-0.23
-0.245
-0.25
-0.255
-0.25
-0.24
-0.23
-0.22
-0.21
-0.205
-0.21
-0.21
-0.215
-0.22
-0.225
-0.23
-0.23
-0.235
-0.23
-0.225
-0.23
-0.23
-0.235
-0.24
-0.255
-0.275
-0.275
-0.285
-0.28
-0.265
-0.265
-0.265
-0.255
-0.255
-0.27
-0.265
-0.275
-0.285
-0.285
-0.26
-0.265
-0.26
-0.26
-0.24
-0.235
-0.24
-0.22
-0.215
-0.235
-0.23
-0.23
-0.23
-0.24
-0.23
-0.215
-0.21
-0.205
-0.195
-0.195
-0.195
-0.205
-0.205
-0.225
-0.23
-0.225
-0.22
-0.23
-0.2
-0.195
-0.195
-0.195
-0.215
-0.215
-0.23
-0.23
-0.235
-0.225
-0.235
-0.225
-0.245
-0.255
-0.26
-0.26
-0.255
-0.255
-0.265
-0.275
-0.26
-0.255
-0.25
-0.25
-0.24
-0.235
-0.24
-0.24
-0.25
-0.255
-0.24
-0.24
-0.23
-0.21
-0.19
-0.175
-0.145
-0.14
-0.135
-0.11
-0.11
-0.1
-0.095
-0.09
-0.095
-0.09
-0.085
-0.07
-0.065
-0.06
-0.075
-0.065
-0.07
-0.085
-0.115
-0.125
-0.14
-0.145
-0.145
-0.15
-0.15
-0.175
-0.17
-0.18
-0.205
-0.21
-0.23
-0.24
-0.255
-0.26
-0.27
-0.275
-0.28
-0.28
-0.29
-0.29
-0.3
-0.305
-0.3
-0.29
-0.285
-0.265
-0.25
-0.24
-0.22
-0.2
-0.185
-0.19
-0.2
-0.21
-0.23
-0.23
-0.23
-0.23
-0.22
-0.2
-0.19
-0.17
-0.16
-0.14
-0.12
-0.095
-0.055
-0.01
0.045
0.145
0.265
0.425
0.63
0.865
1.13
1.4
1.66
1.835
1.955
1.94
1.77
1.46
1.015
0.47
-0.12
-0.65
-1.015
-1.185
-1.15
-0.98
-0.775
-0.57
-0.41
-0.31
-0.255
-0.255
-0.27
-0.3
-0.315
-0.33
-0.355
-0.36
-0.36
-0.365
-0.35
-0.335
-0.325
-0.33
-0.32
-0.32
-0.33
-0.33
-0.33
-0.345
-0.34
-0.345
-0.35
-0.345
-0.34
-0.345
-0.335
-0.335
-0.34
-0.33
-0.315
-0.33
-0.32
-0.32
-0.335
-0.335
-0.345
-0.34
-0.33
-0.325
-0.31
-0.3
-0.305
-0.295
-0.29
-0.28
-0.28
-0.27
-0.27
-0.245
-0.235
-0.23
-0.22
-0.2
-0.195
-0.19
-0.205
-0.205
-0.215
-0.205
-0.22
-0.21
-0.185
-0.18
-0.185
-0.19
-0.22
-0.22
-0.24
-0.245
-0.25
-0.24
-0.215
-0.205
-0.185
-0.175
-0.175
-0.185
-0.19
-0.165
-0.18
-0.195
-0.195
-0.195
-0.205
-0.21
-0.2
-0.205
-0.21
-0.215
-0.215
-0.22
-0.23
-0.225
-0.235
-0.235
-0.22
-0.225
-0.205
-0.205
-0.195
-0.19
-0.2
-0.2
-0.21
-0.22
-0.205
-0.205
-0.195
-0.19
-0.195
-0.18
-0.19
-0.18
-0.205
-0.22
-0.24
-0.26
-0.275
-0.265
-0.25
-0.24
-0.225
-0.225
-0.215
-0.215
-0.225
-0.21
-0.235
-0.22
-0.225
-0.225
-0.22
-0.215
-0.23
-0.255
-0.255
-0.275
-0.275
-0.285
-0.29
-0.285
-0.28
-0.285
-0.285
-0.29
-0.28
-0.29
-0.29
-0.295
-0.295
-0.29
-0.29
-0.29
-0.3
-0.29
-0.29
-0.295
-0.28
-0.275
-0.255
-0.26
-0.275
-0.29
-0.315
-0.33
-0.335
-0.335
-0.305
-0.295
-0.285
-0.29
-0.285
-0.32
-0.33
-0.325
-0.33
-0.34
-0.35
-0.32
-0.31
-0.28
-0.26
-0.245
-0.24
-0.24
-0.245
-0.225
-0.23
-0.23
-0.235
-0.24
-0.22
-0.21
-0.205
-0.17
-0.145
-0.11
-0.11
-0.08
-0.09
-0.09
-0.11
-0.12
-0.13
-0.13
-0.135
-0.125
-0.135
-0.13
-0.15
-0.155
-0.17
-0.205
-0.225
-0.225
-0.24
-0.245
-0.25
-0.24
-0.25
-0.265
-0.3
-0.32
-0.34
-0.34
-0.34
-0.325
-0.32
-0.31
-0.295
-0.3
-0.295
-0.29
-0.29
-0.295
-0.295
-0.27
-0.255
-0.24
-0.21
-0.195
-0.16
-0.13
-0.105
-0.085
-0.05
-0.02
0.015
0.06
0.095
0.15
0.21
0.29
0.385
0.52
0.69
0.895
1.12
1.345
1.555
1.695
1.77
1.745
1.61
1.32
0.89
0.37
-0.21
-0.72
-1.075
-1.225
-1.185
-1.005
-0.775
-0.565
-0.375
-0.27
-0.23
-0.23
-0.265
-0.295
-0.33
-0.35
-0.345
-0.34
-0.34
-0.325
-0.315
-0.32
-0.31
-0.315
-0.32
-0.33
-0.34
-0.345
-0.355
-0.365
-0.365
-0.36
-0.37
-0.36
-0.35
-0.335
-0.33
-0.32
-0.325
-0.32
-0.34
-0.35
-0.36
-0.35
-0.345
-0.32
-0.315
-0.315
-0.3
-0.3
-0.3
-0.295
-0.285
-0.315
-0.305
-0.305
-0.305
-0.305
-0.305
-0.295
-0.3
-0.29
-0.29
-0.29
-0.29
-0.295
-0.27
-0.25
-0.225
-0.205
-0.195
-0.185
-0.18
-0.18
-0.17
-0.16
-0.145
-0.125
-0.115
-0.105
-0.1
-0.1
-0.095
-0.09
-0.105
-0.135
-0.16
-0.195
-0.23
-0.26
-0.275
-0.3
-0.29
-0.29
-0.275
-0.265
-0.26
-0.265
-0.28
-0.27
-0.265
-0.265
-0.26
-0.265
-0.27
-0.285
-0.285
-0.29
-0.29
-0.29
-0.29
-0.29
-0.3
-0.295
-0.265
-0.255
-0.235
-0.23
-0.205
-0.205
-0.205
-0.2
-0.2
-0.185
-0.185
-0.17
-0.175
-0.175
-0.17
-0.17
-0.165
-0.165
-0.165
-0.17
-0.17
-0.155
-0.17
-0.165
-0.175
-0.17
-0.155
-0.155
-0.15
-0.14
-0.14
-0.145
-0.16
-0.175
-0.185
-0.185
-0.195
-0.205
-0.205
-0.21
-0.205
-0.205
-0.225
-0.235
-0.225
-0.23
-0.24
-0.24
-0.245
-0.25
-0.245
-0.235
-0.225
-0.205
-0.2
-0.19
-0.2
-0.195
-0.195
-0.195
-0.185
-0.19
-0.185
-0.18
-0.18
-0.175
-0.17
-0.15
-0.15
-0.145
-0.145
-0.12
-0.11
-0.115
-0.11
-0.12
-0.125
-0.15
-0.175
-0.19
-0.205
-0.21
-0.205
-0.215
-0.225
-0.235
-0.245
-0.25
-0.245
-0.25
-0.25
-0.255
-0.265
-0.28
-0.29
-0.3
-0.305
-0.305
-0.295
-0.29
-0.285
-0.265
-0.245
-0.235
-0.225
-0.23
-0.235
-0.22
-0.215
-0.205
-0.185
-0.175
-0.155
-0.125
-0.115
-0.09
-0.08
-0.075
-0.055
-0.045
-0.01
0.025
0.065
0.105
0.15
0.215
0.305
0.415
0.55
0.72
0.905
1.105
1.305
1.535
1.715
1.83
1.83
1.69
1.405
0.985
0.46
-0.1
-0.615
-1.01
-1.195
-1.22
-1.09
-0.915
-0.725
-0.575
-0.455
-0.385
-0.35
-0.355
-0.37
-0.39
-0.41
-0.415
-0.42
-0.415
-0.4
-0.385
-0.39
-0.395
-0.415
-0.42
-0.41
-0.43
-0.425
-0.425
-0.43
-0.425
-0.425
-0.405
-0.41
-0.405
-0.415
-0.425
-0.44
-0.44
-0.445
-0.435
-0.415
-0.4
-0.385
-0.385
-0.385
-0.395
-0.39
-0.4
-0.4
-0.385
-0.375
-0.37
-0.37
-0.37
-0.365
-0.365
-0.36
-0.345
-0.34
-0.32
-0.315
-0.315
-0.315
-0.3
-0.295
-0.28
-0.275
-0.255
-0.25
-0.255
-0.245
-0.255
-0.26
-0.245
-0.265
-0.26
-0.255
-0.25
-0.25
-0.25
-0.24
-0.245
-0.25
-0.25
-0.265
-0.25
-0.26
-0.255
-0.245
-0.25
-0.25
-0.26
-0.265
-0.275
-0.305
-0.3
-0.305
-0.305
-0.315
-0.32
-0.32
-0.32
-0.325
-0.31
-0.31
-0.3
-0.3
-0.31
-0.31
-0.325
-0.335
-0.325
-0.32
-0.305
-0.3
-0.275
-0.27
-0.275
-0.28
-0.3
-0.305
-0.31
-0.305
-0.31
-0.315
-0.315
-0.305
-0.3
-0.285
-0.285
-0.305
-0.315
-0.32
-0.32
-0.315
-0.32
-0.31
-0.31
-0.305
-0.29
-0.295
-0.295
-0.305
-0.305
-0.315
-0.315
-0.325
-0.335
-0.33
-0.335
-0.33
-0.325
-0.31
-0.315
-0.32
-0.325
-0.345
-0.35
-0.365
-0.375
-0.365
-0.355
-0.355
-0.355
-0.34
-0.335
-0.335
-0.34
-0.345
-0.34
-0.335
-0.33
-0.32
-0.305
-0.275
-0.26
-0.25
-0.245
-0.25
-0.26
-0.265
-0.255
-0.255
-0.235
-0.21
-0.215
-0.2
-0.19
-0.195
-0.2
-0.215
-0.23
-0.245
-0.255
-0.26
-0.285
-0.29
-0.31
-0.315
-0.325
-0.33
-0.32
-0.325
-0.345
-0.36
-0.39
-0.415
-0.425
-0.435
-0.415
-0.405
-0.385
-0.38
-0.37
-0.365
-0.365
-0.36
-0.355
-0.355
-0.345
-0.32
-0.3
-0.275
-0.245
-0.23
-0.22
-0.21
-0.205
-0.185
-0.16
-0.125
-0.1
-0.05
0.0
0.035
0.085
0.125
0.195
0.285
0.41
0.565
0.76
0.995
1.235
1.48
1.7
1.845
1.9
1.795
1.53
1.105
0.545
-0.075
-0.64
-1.05
-1.25
-1.235
-1.09
-0.89
-0.67
-0.52
-0.415
-0.37
-0.375
-0.4
-0.425
-0.435
-0.435
-0.425
-0.415
-0.41
-0.4
-0.405
-0.395
-0.4
-0.4
-0.4
-0.41
-0.405
-0.42
-0.41
-0.405
-0.405
-0.395
-0.41
-0.405
-0.4
-0.405
-0.405
-0.405
-0.41
-0.42
-0.415
-0.42
-0.415
-0.4
-0.405
-0.395
-0.4
-0.415
-0.42
-0.42
-0.42
-0.405
-0.395
-0.39
-0.365
-0.36
-0.37
-0.385
-0.385
-0.395
-0.4
-0.38
-0.365
-0.35
-0.33
-0.32
-0.325
-0.32
-0.33
-0.295
-0.305
-0.285
-0.27
-0.255
-0.24
-0.235
-0.23
-0.23
-0.22
-0.21
-0.195
-0.16
-0.14
-0.135
-0.14
-0.145
-0.155
-0.15
-0.145
-0.15
-0.175
-0.18
-0.19
-0.22
-0.23
-0.245
-0.24
-0.24
-0.24
-0.25
-0.25
-0.245
-0.22
-0.21
-0.21
-0.18
-0.18
-0.17
-0.175
-0.17
-0.16
-0.17
-0.155
-0.16
-0.15
-0.145
-0.145
-0.14
-0.15
-0.16
-0.175
-0.195
-0.205
-0.2
-0.205
-0.19
-0.18
-0.175
-0.18
-0.175
-0.185
-0.195
-0.22
-0.22
-0.2
-0.195
-0.185
-0.16
-0.16
-0.155
-0.155
-0.15
-0.15
-0.155
-0.16
-0.165
-0.19
-0.18
-0.19
-0.2
-0.19
-0.195
-0.195
-0.185
-0.19
-0.2
-0.2
-0.22
-0.235
-0.235
-0.23
-0.22
-0.225
-0.21
-0.2
-0.195
-0.185
-0.195
-0.2
-0.2
-0.185
-0.185
-0.175
-0.155
-0.15
-0.14
-0.15
-0.145
-0.145
-0.15
-0.145
-0.13
-0.13
-0.115
-0.12
-0.125
-0.11
-0.125
-0.12
-0.14
-0.15
-0.16
-0.185
-0.18
-0.2
-0.23
-0.235
-0.23
-0.235
-0.23
-0.255
-0.26
-0.26
-0.275
-0.28
-0.3
-0.32
-0.32
-0.32
-0.315
-0.305
-0.285
-0.28
-0.275
-0.265
-0.265
-0.265
-0.265
-0.255
-0.24
-0.235
-0.21
-0.19
-0.17
-0.155
-0.145
-0.125
-0.12
-0.07
-0.05
-0.01
0.02
0.055
0.09
0.15
0.22
0.325
0.46
0.615
0.8
1.005
1.215
1.43
1.6
1.745
1.79
1.755
1.595
1.305
0.905
0.385
-0.17
-0.69
-1.055
-1.21
-1.17
-0.995
-0.785
-0.575
-0.405
-0.315
-0.27
-0.285
-0.325
-0.38
-0.4
-0.41
-0.415
-0.405
-0.39
-0.375
-0.365
-0.36
-0.35
-0.355
-0.355
-0.355
-0.37
-0.385
-0.37
-0.37
-0.375
-0.37
-0.365
-0.37
-0.365
-0.37
-0.37
-0.385
-0.395
-0.4
-0.415
-0.42
-0.425
-0.41
-0.4
-0.385
-0.375
-0.365
-0.345
-0.335
-0.34
-0.35
-0.355
-0.35
-0.34
-0.335
-0.325
-0.28
-0.27
-0.26
-0.25
-0.245
-0.255
-0.24
-0.235
-0.215
-0.21
-0.2
-0.2
-0.195
-0.195
-0.195
-0.2
-0.21
-0.22
-0.22
-0.23
-0.23
-0.23
-0.23
-0.21
-0.215
-0.215
-0.22
-0.235
-0.24
-0.245
-0.245
-0.24
-0.255
-0.25
-0.26
-0.255
-0.265
-0.245
-0.255
-0.27
-0.27
-0.285
-0.28
-0.285
-0.28
-0.28
-0.28
-0.28
-0.275
-0.295
-0.305
-0.32
-0.33
-0.35
-0.365
-0.365
-0.375
-0.365
-0.37
-0.355
-0.345
-0.335
-0.34
-0.345
-0.355
-0.355
-0.355
-0.33
-0.31
-0.295
-0.285
-0.265
-0.25
-0.235
-0.25
-0.24
-0.24
-0.235
-0.235
-0.24
-0.235
-0.22
-0.215
-0.21
-0.2
-0.195
-0.195
-0.2
-0.19
-0.19
-0.19
-0.205
-0.2
-0.195
-0.195
-0.19
-0.185
-0.19
-0.195
-0.21
-0.22
-0.23
-0.235
-0.23
-0.23
-0.235
-0.25
-0.265
-0.275
-0.285
-0.295
-0.31
-0.31
-0.315
-0.33
-0.34
-0.325
-0.325
-0.305
-0.305
-0.295
-0.285
-0.28
-0.28
-0.275
-0.27
-0.26
-0.245
-0.22
-0.215
-0.195
-0.195
-0.19
-0.18
-0.175
-0.18
-0.18
-0.175
-0.185
-0.205
-0.195
-0.195
-0.21
-0.22
-0.235
-0.22
-0.22
-0.24
-0.265
-0.29
-0.32
-0.33
-0.335
-0.335
-0.36
-0.37
-0.395
-0.39
-0.405
-0.395
-0.39
-0.385
-0.375
-0.375
-0.365
-0.345
-0.325
-0.31
-0.285
-0.265
-0.245
-0.22
-0.225
-0.22
-0.22
-0.22
-0.205
-0.19
-0.15
-0.11
-0.075
-0.025
-0.005
0.02
0.09
0.125
0.185
0.245
0.34
0.46
0.605
0.78
0.98
1.19
1.39
1.545
1.67
1.695
1.655
1.505
1.265
0.915
0.485
0.005
-0.495
-0.92
-1.175
-1.235
-1.115
-0.885
-0.65
-0.45
-0.295
-0.23
-0.2
-0.225
-0.25
-0.28
-0.295
-0.305
-0.29
-0.295
-0.29
-0.28
-0.285
-0.275
-0.27
-0.255
-0.265
-0.25
-0.24
-0.255
-0.295
-0.32
-0.33
-0.365
-0.365
-0.36
-0.345
-0.345
-0.335
-0.325
-0.325
-0.335
-0.345
-0.345
-0.345
-0.34
-0.33
-0.32
-0.305
-0.29
-0.29
-0.285
-0.26
-0.28
-0.28
-0.295
-0.3
-0.3
-0.285
-0.27
-0.26
-0.23
-0.225
-0.22
-0.235
-0.25
-0.25
-0.255
-0.24
-0.235
-0.22
-0.205
-0.195
-0.195
-0.19
-0.19
-0.195
-0.19
-0.185
-0.19
-0.18
-0.18
-0.16
-0.15
-0.16
-0.15
-0.15
-0.155
-0.15
-0.16
-0.17
-0.2
-0.205
-0.23
-0.24
-0.245
-0.255
-0.245
-0.25
-0.25
-0.265
-0.27
-0.28
-0.3
-0.3
-0.305
-0.305
-0.285
-0.3
-0.285
-0.29
-0.285
-0.305
-0.3
-0.315
-0.32
-0.315
-0.295
-0.285
-0.265
-0.255
-0.25
-0.235
-0.255
-0.27
-0.275
-0.285
-0.295
-0.3
-0.3
-0.295
-0.29
-0.275
-0.265
-0.28
-0.28
-0.27
-0.28
-0.285
-0.3
-0.31
-0.31
-0.305
-0.3
-0.295
-0.285
-0.285
-0.29
-0.285
-0.29
-0.295
-0.29
-0.295
-0.305
-0.315
-0.31
-0.32
-0.31
-0.295
-0.295
-0.295
-0.305
-0.32
-0.33
-0.345
-0.36
-0.35
-0.345
-0.345
-0.325
-0.32
-0.315
-0.33
-0.33
-0.35
-0.36
-0.37
-0.385
-0.37
-0.355
-0.35
-0.35
-0.345
-0.36
-0.36
-0.365
-0.375
-0.38
-0.375
-0.385
-0.365
-0.345
-0.34
-0.31
-0.31
-0.285
-0.265
-0.27
-0.265
-0.265
-0.26
-0.26
-0.25
-0.235
-0.22
-0.21
-0.19
-0.19
-0.205
-0.205
-0.22
-0.255
-0.265
-0.285
-0.28
-0.28
-0.275
-0.265
-0.26
-0.27
-0.29
-0.305
-0.335
-0.36
-0.37
-0.385
-0.385
-0.395
-0.395
-0.4
-0.395
-0.4
-0.41
-0.415
-0.415
-0.425
-0.415
-0.41
-0.405
-0.405
-0.395
-0.395
-0.385
-0.37
-0.38
-0.39
-0.39
-0.39
-0.385
-0.38
-0.375
-0.37
-0.365
-0.34
-0.34
-0.325
-0.305
-0.29
-0.23
-0.145
-0.01
0.15
0.335
0.57
0.79
1.01
1.15
1.225
1.205
1.075
0.82
0.465
0.03
-0.475
-0.96
-1.35
-1.545
-1.525
-1.33
-1.06
-0.775
-0.555
-0.39
-0.3
-0.27
-0.28
-0.3
-0.3
-0.305
-0.3
-0.29
-0.27
-0.265
-0.265
-0.25
-0.255
-0.245
-0.245
-0.24
-0.245
-0.23
-0.235
-0.22
-0.235
-0.215
-0.215
-0.225
-0.21
-0.215
-0.21
-0.21
-0.2
-0.19
-0.175
-0.15
-0.14
-0.135
-0.13
-0.13
-0.135
-0.115
-0.115
-0.095
-0.08
-0.05
-0.035
-0.025
-0.02
-0.01
-0.01
0.01
0.0
0.02
0.03
0.045
0.05
0.075
0.095
0.105
0.12
0.12
0.12
0.115
0.105
0.105
0.1
0.1
0.095
0.105
0.11
0.1
0.1
0.085
0.06
0.06
0.07
0.07
0.06
0.055
0.03
0.03
0.02
0.015
0.005
-0.005
-0.025
-0.05
-0.08
-0.105
-0.13
-0.15
-0.16
-0.175
-0.17
-0.19
-0.2
-0.205
-0.215
-0.215
-0.235
-0.23
-0.23
-0.23
-0.23
-0.22
-0.225
-0.215
-0.205
-0.22
-0.22
-0.225
-0.225
-0.225
-0.24
-0.24
-0.22
-0.225
-0.225
-0.22
-0.215
-0.225
-0.22
-0.235
-0.24
-0.235
-0.25
-0.255
-0.26
-0.29
-0.29
-0.265
-0.265
-0.28
-0.28
-0.28
-0.29
-0.295
-0.3
-0.29
-0.3
-0.295
-0.285
-0.29
-0.305
-0.315
-0.33
-0.335
-0.345
-0.35
-0.335
-0.325
-0.345
-0.335
-0.345
-0.34
-0.34
-0.34
-0.335
-0.34
-0.34
-0.345
-0.35
-0.35
-0.35
-0.345
-0.335
-0.335
-0.335
-0.325
-0.34
-0.34
-0.365
-0.37
-0.36
-0.365
-0.35
-0.345
-0.335
-0.32
-0.32
-0.32
-0.325
-0.325
-0.34
-0.33
-0.335
-0.32
-0.305
-0.28
-0.26
-0.25
-0.245
-0.235
-0.23
-0.22
-0.22
-0.215
-0.225
-0.215
-0.195
-0.195
-0.19
-0.185
-0.19
-0.205
-0.225
-0.235
-0.245
-0.25
-0.26
-0.28
-0.29
-0.305
-0.32
-0.32
-0.325
-0.32
-0.345
-0.37
-0.4
-0.42
-0.44
-0.435
-0.44
-0.43
-0.425
-0.43
-0.415
-0.42
-0.42
-0.43
-0.435
-0.43
-0.42
-0.42
-0.425
-0.405
-0.395
-0.395
-0.39
-0.395
-0.395
-0.405
-0.395
-0.395
-0.39
-0.375
-0.37
-0.345
-0.31
-0.225
-0.12
0.03
0.215
0.43
0.645
0.885
1.06
1.175
1.185
1.065
0.8
0.4
-0.11
-0.675
-1.205
-1.605
-1.755
-1.695
-1.455
-1.15
-0.855
-0.615
-0.435
-0.335
-0.295
-0.29
-0.315
-0.34
-0.36
-0.36
-0.355
-0.335
-0.32
-0.31
-0.3
-0.295
-0.28
-0.295
-0.29
-0.285
-0.3
-0.29
-0.29
-0.28
-0.27
-0.275
-0.26
-0.26
-0.25
-0.24
-0.24
-0.25
-0.25
-0.24
-0.23
-0.2
-0.2
-0.185
-0.165
-0.155
-0.14
-0.125
-0.11
-0.11
-0.095
-0.08
-0.07
-0.055
-0.04
-0.025
-0.005
0.025
0.035
0.05
0.06
0.065
0.05
0.05
0.055
0.055
0.09
0.105
0.11
0.12
0.12
0.12
0.105
0.09
0.07
0.065
0.055
0.055
0.06
0.06
0.06
0.055
0.035
0.03
0.03
0.005
-0.015
-0.02
-0.035
-0.02
-0.05
-0.065
-0.085
-0.115
-0.135
-0.155
-0.185
-0.195
-0.235
-0.235
-0.255
-0.265
-0.28
-0.285
-0.295
-0.29
-0.295
-0.295
-0.3
-0.305
-0.315
-0.315
-0.32
-0.32
-0.31
-0.295
-0.28
-0.28
-0.295
-0.275
-0.295
-0.31
-0.3
-0.315
-0.315
-0.32
-0.3
-0.295
-0.29
-0.295
-0.29
-0.295
-0.295
-0.3
-0.32
-0.32
-0.335
-0.325
-0.33
-0.345
-0.335
-0.33
-0.335
-0.32
-0.335
-0.345
-0.345
-0.355
-0.365
-0.365
-0.37
-0.37
-0.375
-0.365
-0.355
-0.35
-0.365
-0.38
-0.385
-0.39
-0.405
-0.405
-0.405
-0.4
-0.38
-0.385
-0.38
-0.365
-0.38
-0.4
-0.41
-0.43
-0.42
-0.415
-0.405
-0.395
-0.39
-0.38
-0.37
-0.38
-0.37
-0.365
-0.365
-0.35
-0.35
-0.34
-0.325
-0.32
-0.31
-0.295
-0.295
-0.275
-0.265
-0.265
-0.27
-0.27
-0.27
-0.285
-0.285
-0.295
-0.3
-0.3
-0.295
-0.305
-0.305
-0.34
-0.36
-0.38
-0.39
-0.405
-0.405
-0.42
-0.415
-0.42
-0.44
-0.45
-0.465
-0.48
-0.49
-0.49
-0.485
-0.475
-0.47
-0.465
-0.46
-0.465
-0.465
-0.465
-0.455
-0.46
-0.46
-0.465
-0.46
-0.47
-0.455
-0.45
-0.44
-0.435
-0.425
-0.415
-0.405
-0.4
-0.39
-0.375
-0.295
-0.205
-0.055
0.12
0.33
0.575
0.805
0.99
1.14
1.195
1.1
0.86
0.505
0.01
-0.53
-1.07
-1.5
-1.695
-1.705
-1.515
-1.23
-0.955
-0.71
-0.52
-0.41
-0.35
-0.345
-0.34
-0.345
-0.35
-0.36
-0.365
-0.355
-0.345
-0.33
-0.31
-0.31
-0.31
-0.305
-0.3
-0.3
-0.295
-0.28
-0.275
-0.275
-0.28
-0.275
-0.265
-0.28
-0.27
-0.265
-0.235
-0.22
-0.205
-0.195
-0.19
-0.18
-0.175
-0.18
-0.17
-0.165
-0.14
-0.125
-0.12
-0.095
-0.075
-0.06
-0.045
-0.04
-0.025
-0.005
0.01
0.02
0.03
0.05
0.045
0.065
0.08
0.08
0.085
0.1
0.09
0.075
0.075
0.065
0.06
0.045
0.05
0.04
0.05
0.055
0.03
0.02
0.01
-0.005
-0.02
-0.02
-0.03
-0.005
-0.01
-0.025
-0.025
-0.05
-0.07
-0.095
-0.13
-0.165
-0.185
-0.2
-0.22
-0.225
-0.235
-0.25
-0.25
-0.25
-0.255
-0.275
-0.27
-0.28
-0.29
-0.29
-0.29
-0.285
-0.285
-0.28
-0.28
-0.265
-0.245
-0.25
-0.255
-0.255
-0.26
-0.27
-0.27
-0.27
-0.25
-0.24
-0.23
-0.23
-0.235
-0.245
-0.26
-0.27
-0.275
-0.295
-0.275
-0.28
-0.27
-0.275
-0.27
-0.27
-0.27
-0.285
-0.295
-0.3
-0.305
-0.305
-0.315
-0.315
-0.315
-0.32
-0.315
-0.33
-0.32
-0.32
-0.33
-0.335
-0.355
-0.35
-0.365
-0.355
-0.36
-0.37
-0.36
-0.35
-0.355
-0.355
-0.36
-0.365
-0.365
-0.37
-0.38
-0.375
-0.365
-0.36
-0.35
-0.335
-0.315
-0.32
-0.325
-0.31
-0.31
-0.305
-0.3
-0.28
-0.26
-0.26
-0.255
-0.25
-0.25
-0.245
-0.25
-0.245
-0.225
-0.22
-0.22
-0.235
-0.24
-0.245
-0.255
-0.27
-0.275
-0.28
-0.285
-0.305
-0.32
-0.34
-0.36
-0.365
-0.37
-0.38
-0.38
-0.395
-0.405
-0.42
-0.44
-0.445
-0.455
-0.46
-0.46
-0.46
-0.47
-0.455
-0.445
-0.45
-0.44
-0.435
-0.45
-0.455
-0.45
-0.46
-0.47
-0.45
-0.445
-0.42
-0.42
-0.415
-0.41
-0.42
-0.415
-0.415
-0.405
-0.38
-0.345
-0.255
-0.11
0.07
0.29
0.515
0.765
0.975
1.135
1.19
1.11
0.9
0.575
0.125
-0.41
-0.99
-1.475
-1.79
-1.885
-1.73
-1.41
-1.085
-0.78
-0.56
-0.42
-0.35
-0.335
-0.33
-0.34
-0.36
-0.365
-0.36
-0.365
-0.365
-0.35
-0.36
-0.345
-0.33
-0.32
-0.315
-0.295
-0.305
-0.295
-0.295
-0.295
-0.3
-0.31
-0.315
-0.31
-0.295
-0.275
-0.27
-0.27
-0.25
-0.245
-0.225
-0.225
-0.225
-0.215
-0.205
-0.195
-0.185
-0.17
-0.16
-0.145
-0.14
-0.12
-0.11
-0.095
-0.085
-0.075
-0.08
-0.075
-0.06
-0.025
-0.005
0.01
0.015
0.03
0.04
0.04
0.03
0.03
0.015
0.015
0.015
0.02
0.035
0.02
0.015
0.015
-0.01
-0.02
-0.035
-0.04
-0.035
-0.035
-0.055
-0.045
-0.04
-0.035
-0.05
-0.065
-0.07
-0.09
-0.105
-0.12
-0.16
-0.185
-0.19
-0.195
-0.215
-0.22
-0.235
-0.25
-0.255
-0.27
-0.28
-0.29
-0.305
-0.3
-0.305
-0.295
-0.295
-0.285
-0.275
-0.27
-0.29
-0.3
-0.3
-0.31
-0.31
-0.33
-0.31
-0.29
-0.285
-0.27
-0.27
-0.29
-0.285
-0.305
-0.31
-0.305
-0.315
-0.315
-0.31
-0.305
-0.31
-0.305
-0.31
-0.315
-0.31
-0.325
-0.315
-0.315
-0.33
-0.33
-0.33
-0.335
-0.335
-0.34
-0.35
-0.345
-0.33
-0.335
-0.34
-0.355
-0.38
-0.375
-0.375
-0.385
-0.385
-0.375
-0.37
-0.37
-0.375
-0.39
-0.395
-0.4
-0.4
-0.405
-0.395
-0.395
-0.385
-0.385
-0.39
-0.385
-0.39
-0.41
-0.405
-0.415
-0.4
-0.385
-0.37
-0.35
-0.33
-0.305
-0.305
-0.295
-0.295
-0.29
-0.29
-0.305
-0.285
-0.275
-0.265
-0.25
-0.225
-0.23
-0.24
-0.245
-0.25
-0.275
-0.29
-0.3
-0.31
-0.33
-0.335
-0.36
-0.37
-0.38
-0.395
-0.39
-0.395
-0.42
-0.455
-0.455
-0.48
-0.495
-0.5
-0.475
-0.47
-0.455
-0.44
-0.445
-0.46
-0.46
-0.47
-0.465
-0.455
-0.45
-0.435
-0.425
-0.43
-0.445
-0.455
-0.47
-0.475
-0.475
-0.47
-0.465
-0.46
-0.465
-0.46
-0.445
-0.425
-0.4
-0.36
-0.29
-0.19
-0.045
0.125
0.33
0.54
0.745
0.935
1.07
1.125
1.08
0.905
0.65
0.26
-0.175
-0.66
-1.13
-1.52
-1.76
-1.765
-1.57
-1.245
-0.94
-0.665
-0.465
-0.345
-0.305
-0.315
-0.335
-0.365
-0.385
-0.37
-0.345
-0.335
-0.315
-0.3
-0.29
-0.3
-0.315
-0.295
-0.305
-0.3
-0.29
-0.275
-0.265
-0.265
-0.24
-0.24
-0.23
-0.22
-0.23
-0.22
-0.225
-0.225
-0.225
-0.215
-0.2
-0.195
-0.165
-0.16
-0.14
-0.14
-0.13
-0.135
-0.155
-0.13
-0.115
-0.11
-0.09
-0.055
-0.04
-0.04
-0.03
-0.04
-0.06
-0.055
-0.045
-0.035
-0.02
-0.005
0.01
0.02
0.025
0.035
0.04
0.03
0.025
0.03
0.0
0.005
0.0
-0.005
-0.005
0.005
0.005
-0.005
-0.005
-0.01
-0.005
-0.005
-0.01
-0.01
-0.005
-0.02
-0.02
-0.04
-0.05
-0.06
-0.07
-0.09
-0.115
-0.16
-0.185
-0.22
-0.235
-0.26
-0.265
-0.25
-0.25
-0.24
-0.245
-0.24
-0.25
-0.26
-0.27
-0.275
-0.285
-0.285
-0.29
-0.29
-0.28
-0.28
-0.265
-0.265
-0.275
-0.275
-0.285
-0.275
-0.265
-0.255
-0.255
-0.245
-0.23
-0.24
-0.24
-0.25
-0.255
-0.27
-0.275
-0.26
-0.265
-0.25
-0.25
-0.25
-0.255
-0.255
-0.26
-0.27
-0.285
-0.3
-0.305
-0.3
-0.33
-0.31
-0.315
-0.32
-0.3
-0.3
-0.29
-0.295
-0.29
-0.3
-0.32
-0.32
-0.335
-0.335
-0.335
-0.34
-0.33
-0.33
-0.325
-0.315
-0.32
-0.335
-0.35
-0.36
-0.365
-0.355
-0.35
-0.345
-0.34
-0.34
-0.335
-0.335
-0.34
-0.335
-0.335
-0.32
-0.295
-0.26
-0.25
-0.22
-0.215
-0.22
-0.23
-0.21
-0.21
-0.21
-0.205
-0.2
-0.2
-0.205
-0.205
-0.205
-0.21
-0.225
-0.23
-0.235
-0.225
-0.205
-0.2
-0.21
-0.24
-0.3
-0.355
-0.405
-0.44
-0.47
-0.465
-0.475
-0.465
-0.47
-0.475
-0.49
-0.505
-0.5
-0.5
-0.485
-0.47
-0.47
-0.445
-0.44
-0.445
-0.445
-0.45
-0.44
-0.45
-0.43
-0.41
-0.395
-0.38
-0.365
-0.345
-0.35
-0.34
-0.34
-0.335
-0.31
-0.27
-0.18
-0.04
0.14
0.37
0.605
0.84
1.015
1.115
1.1
0.97
0.72
0.35
-0.105
-0.61
-1.11
-1.56
-1.765
-1.735
-1.495
-1.165
-0.83
-0.56
-0.365
-0.265
-0.22
-0.24
-0.305
-0.375
-0.42
-0.415
-0.4
-0.375
-0.345
-0.335
-0.315
-0.295
-0.295
-0.31
-0.3
-0.28
-0.26
-0.26
-0.245
-0.24
-0.225
-0.225
-0.23
-0.215
-0.215
-0.2
-0.185
-0.165
-0.145
-0.14
-0.135
-0.14
-0.15
-0.13
-0.12
-0.115
-0.1
-0.09
-0.08
-0.04
-0.025
-0.02
-0.005
-0.005
0.0
0.01
0.015
0.03
0.06
0.07
0.085
0.105
0.12
0.135
0.16
0.155
0.15
0.125
0.125
0.115
0.12
0.12
0.1
0.085
0.055
0.025
0.01
0.01
0.005
-0.005
0.0
0.0
0.015
0.03
0.02
0.035
0.04
0.03
0.02
0.0
-0.03
-0.055
-0.075
-0.1
-0.115
-0.125
-0.14
-0.125
-0.135
-0.145
-0.17
-0.185
-0.185
-0.19
-0.2
-0.2
-0.185
-0.175
-0.175
-0.165
-0.18
-0.165
-0.16
-0.16
-0.17
-0.19
-0.21
-0.23
-0.22
-0.225
-0.225
-0.235
-0.235
-0.235
-0.235
-0.245
-0.235
-0.23
-0.24
-0.24
-0.25
-0.24
-0.24
-0.235
-0.235
-0.225
-0.235
-0.235
-0.25
-0.25
-0.255
-0.275
-0.29
-0.29
-0.285
-0.285
-0.28
-0.27
-0.275
-0.275
-0.295
-0.285
-0.29
-0.295
-0.295
-0.3
-0.305
-0.295
-0.305
-0.3
-0.3
-0.305
-0.31
-0.3
-0.315
-0.325
-0.32
-0.325
-0.32
-0.32
-0.315
-0.295
-0.29
-0.3
-0.305
-0.325
-0.32
-0.32
-0.32
-0.32
-0.31
-0.315
-0.315
-0.31
-0.305
-0.295
-0.3
-0.29
-0.295
-0.275
-0.26
-0.24
-0.23
-0.205
-0.195
-0.18
-0.18
-0.175
-0.16
-0.16
-0.155
-0.155
-0.155
-0.155
-0.17
-0.165
-0.185
-0.19
-0.205
-0.215
-0.235
-0.255
-0.27
-0.3
-0.305
-0.325
-0.32
-0.335
-0.33
-0.36
-0.375
-0.4
-0.42
-0.45
-0.44
-0.45
-0.44
-0.43
-0.425
-0.415
-0.42
-0.425
-0.425
-0.435
-0.43
-0.415
-0.435
-0.425
-0.42
-0.41
-0.41
-0.39
-0.4
-0.415
-0.39
-0.39
-0.38
-0.385
-0.365
-0.36
-0.37
-0.35
-0.31
-0.23
-0.11
0.025
0.21
0.415
0.62
0.82
0.98
1.065
1.055
0.925
0.675
0.315
-0.135
-0.64
-1.145
-1.555
-1.77
-1.735
-1.51
-1.175
-0.87
-0.6
-0.41
-0.295
-0.26
-0.27
-0.3
-0.325
-0.345
-0.345
-0.345
-0.33
-0.31
-0.3
-0.3
-0.29
-0.275
-0.265
-0.265
-0.275
-0.265
-0.28
-0.29
-0.275
-0.27
-0.275
-0.28
-0.245
-0.23
-0.205
-0.21
-0.215
-0.21
-0.205
-0.23
-0.215
-0.215
-0.205
-0.205
-0.18
-0.16
-0.145
-0.13
-0.115
-0.12
-0.1
-0.09
-0.09
-0.075
-0.075
-0.04
-0.03
-0.015
-0.005
-0.005
-0.01
-0.025
-0.04
-0.035
-0.025
-0.025
-0.015
-0.015
