Lead II
-1.1
-1.11
-1.12
-1.095
-1.085
-1.085
-1.09
-1.07
-1.075
-1.075
-1.065
-1.08
-1.06
-1.075
-1.065
-1.06
-1.035
-1.005
-1.0
-0.99
-1.0
-0.975
-0.98
-0.965
-0.97
-0.95
-0.95
-0.95
-0.945
-0.945
-0.945
-0.95
-0.95
-0.955
-0.96
-0.98
-1.005
-1.03
-1.04
-1.05
-1.055
-1.05
-1.055
-1.045
-1.06
-1.065
-1.08
-1.07
-1.11
-1.115
-1.11
-1.12
-1.105
-1.1
-1.11
-1.1
-1.105
-1.1
-1.115
-1.12
-1.12
-1.145
-1.12
-1.125
-1.13
-1.11
-1.105
-1.105
-1.105
-1.11
-1.085
-1.09
-1.1
-1.075
-1.01
-0.93
-0.805
-0.68
-0.535
-0.37
-0.26
-0.18
-0.18
-0.27
-0.415
-0.61
-0.875
-1.125
-1.375
-1.565
-1.63
-1.6
-1.515
-1.42
-1.35
-1.28
-1.25
-1.21
-1.19
-1.155
-1.135
-1.095
-1.075
-1.085
-1.09
-1.1
-1.085
-1.105
-1.105
-1.11
-1.11
-1.085
-1.07
-1.075
-1.06
-1.045
-1.055
-1.055
-1.06
-1.05
-1.065
-1.06
-1.065
-1.05
-1.045
-1.04
-1.03
-1.02
-1.015
-1.01
-1.03
-1.03
-1.03
-1.03
-1.035
-1.05
-1.045
-1.01
-1.005
-0.98
-0.955
-0.97
-0.975
-0.985
-0.985
-0.99
-0.99
-0.975
-0.975
-0.94
-0.935
-0.91
-0.915
-0.9
-0.89
-0.895
-0.885
-0.885
-0.885
-0.87
-0.855
-0.845
-0.835
-0.795
-0.78
-0.76
-0.755
-0.75
-0.75
-0.73
-0.73
-0.72
-0.68
-0.66
-0.645
-0.615
-0.615
-0.6
-0.6
-0.595
-0.59
-0.595
-0.59
-0.59
-0.6
-0.575
-0.555
-0.54
-0.54
-0.53
-0.55
-0.565
-0.565
-0.585
-0.6
-0.61
-0.64
-0.63
-0.64
-0.66
-0.685
-0.735
-0.77
-0.77
-0.8
-0.84
-0.865
-0.9
-0.905
-0.93
-0.94
-0.975
-0.99
-0.985
-1.01
-1.035
-1.04
-1.06
-1.065
-1.08
-1.085
-1.08
-1.085
-1.095
-1.09
-1.105
-1.1
-1.1
-1.11
-1.115
-1.12
-1.115
-1.11
-1.095
-1.1
-1.08
-1.075
-1.085
-1.075
-1.08
-1.09
-1.115
-1.105
-1.11
-1.115
-1.09
-1.075
-1.075
-1.065
-1.07
-1.075
-1.085
-1.08
-1.085
-1.095
-1.09
-1.085
-1.09
-1.065
-1.05
-1.05
-1.065
-1.07
-1.095
-1.1
-1.1
-1.1
-1.11
-1.105
-1.085
-1.08
-1.08
-1.085
-1.08
-1.09
-1.095
-1.105
-1.105
-1.115
-1.115
-1.11
-1.105
-1.09
-1.085
-1.095
-1.115
-1.11
-1.11
-1.135
-1.15
-1.145
-1.145
-1.15
-1.15
-1.12
-1.11
-1.135
-1.13
-1.14
-1.14
-1.135
-1.16
-1.16
-1.14
-1.145
-1.14
-1.12
-1.11
-1.12
-1.135
-1.13
-1.14
-1.15
-1.145
-1.165
-1.165
-1.155
-1.145
-1.145
-1.125
-1.13
-1.135
-1.13
-1.135
-1.15
-1.145
-1.14
-1.155
-1.145
-1.135
-1.135
-1.125
-1.125
-1.13
-1.135
-1.14
-1.14
-1.145
-1.145
-1.15
-1.14
-1.13
-1.12
-1.115
-1.12
-1.125
-1.12
-1.135
-1.145
-1.14
-1.145
-1.135
-1.14
-1.14
-1.14
-1.12
-1.135
-1.13
-1.155
-1.155
-1.155
-1.17
-1.165
-1.165
-1.15
-1.14
-1.13
-1.135
-1.14
-1.135
-1.13
-1.145
-1.14
-1.155
-1.155
-1.155
-1.155
-1.15
-1.15
-1.12
-1.14
-1.125
-1.13
-1.145
-1.15
-1.15
-1.16
-1.155
-1.145
-1.14
-1.125
-1.125
-1.135
-1.135
-1.14
-1.14
-1.13
-1.135
-1.15
-1.155
-1.14
-1.145
-1.13
-1.09
-1.11
-1.12
-1.13
-1.13
-1.145
-1.14
-1.16
-1.155
-1.15
-1.14
-1.125
-1.1
-1.115
-1.11
-1.11
-1.13
-1.14
-1.14
-1.16
-1.135
-1.125
-1.115
-1.1
-1.09
-1.09
-1.11
-1.12
-1.13
-1.12
-1.12
-1.13
-1.13
-1.14
-1.135
-1.125
-1.09
-1.08
-1.08
-1.06
-1.06
-1.055
-1.05
-1.055
-1.045
-1.025
-1.02
-1.01
-1.0
-0.98
-0.975
-0.96
-0.945
-0.95
-0.96
-0.985
-1.01
-1.005
-1.0
-0.985
-0.97
-0.99
-1.01
-1.025
-1.045
-1.055
-1.065
-1.105
-1.115
-1.105
-1.1
-1.1
-1.105
-1.105
-1.12
-1.11
-1.13
-1.14
-1.15
-1.18
-1.165
-1.14
-1.14
-1.13
-1.115
-1.115
-1.12
-1.125
-1.135
-1.14
-1.14
-1.145
-1.145
-1.145
-1.13
-1.12
-1.105
-1.115
-1.11
-1.11
-1.09
-1.08
-1.01
-0.945
-0.84
-0.695
-0.555
-0.41
-0.31
-0.3
-0.355
-0.525
-0.71
-0.955
-1.195
-1.425
-1.595
-1.67
-1.64
-1.56
-1.46
-1.38
-1.295
-1.245
-1.205
-1.18
-1.16
-1.145
-1.13
-1.115
-1.11
-1.095
-1.095
-1.1
-1.095
-1.105
-1.095
-1.085
-1.09
-1.095
-1.09
-1.08
-1.075
-1.065
-1.045
-1.065
-1.06
-1.04
-1.065
-1.09
-1.07
-1.09
-1.075
-1.075
-1.055
-1.035
-1.025
-1.035
-1.04
-1.05
-1.045
-1.05
-1.05
-1.055
-1.035
-1.03
-1.025
-1.01
-0.985
-0.985
-0.995
-0.98
-0.995
-1.0
-1.02
-1.0
-0.985
-0.98
-0.965
-0.955
-0.935
-0.945
-0.935
-0.92
-0.925
-0.92
-0.92
-0.905
-0.885
-0.865
-0.845
-0.85
-0.82
-0.8
-0.8
-0.785
-0.77
-0.775
-0.76
-0.76
-0.75
-0.69
-0.67
-0.64
-0.615
-0.605
-0.615
-0.6
-0.59
-0.57
-0.565
-0.575
-0.555
-0.54
-0.54
-0.525
-0.52
-0.505
-0.515
-0.525
-0.535
-0.545
-0.57
-0.595
-0.61
-0.62
-0.62
-0.625
-0.64
-0.68
-0.695
-0.735
-0.765
-0.795
-0.83
-0.86
-0.895
-0.9
-0.93
-0.94
-0.935
-0.965
-0.98
-1.0
-1.03
-1.05
-1.065
-1.08
-1.085
-1.085
-1.08
-1.065
-1.075
-1.07
-1.085
-1.09
-1.1
-1.105
-1.12
-1.12
-1.115
-1.115
-1.1
-1.095
-1.1
-1.1
-1.09
-1.1
-1.105
-1.1
-1.11
-1.11
-1.12
-1.1
-1.105
-1.08
-1.075
-1.09
-1.085
-1.08
-1.095
-1.115
-1.11
-1.125
-1.115
-1.11
-1.095
-1.08
-1.085
-1.09
-1.105
-1.11
-1.115
-1.13
-1.125
-1.13
-1.125
-1.115
-1.105
-1.1
-1.085
-1.1
-1.085
-1.105
-1.115
-1.12
-1.12
-1.14
-1.14
-1.15
-1.135
-1.12
-1.12
-1.115
-1.12
-1.115
-1.115
-1.13
-1.135
-1.145
-1.15
-1.145
-1.14
-1.13
-1.125
-1.12
-1.12
-1.13
-1.135
-1.155
-1.16
-1.17
-1.17
-1.15
-1.155
-1.15
-1.13
-1.155
-1.13
-1.14
-1.16
-1.155
-1.16
-1.17
-1.165
-1.16
-1.15
-1.135
-1.135
-1.13
-1.135
-1.155
-1.19
-1.18
-1.175
-1.185
-1.18
-1.175
-1.175
-1.16
-1.135
-1.145
-1.145
-1.14
-1.16
-1.175
-1.17
-1.18
-1.17
-1.175
-1.155
-1.145
-1.13
-1.13
-1.13
-1.135
-1.16
-1.16
-1.17
-1.18
-1.145
-1.14
-1.16
-1.155
-1.125
-1.16
-1.14
-1.135
-1.14
-1.155
-1.17
-1.17
-1.16
-1.155
-1.155
-1.135
-1.145
-1.155
-1.16
-1.135
-1.145
-1.15
-1.16
-1.17
-1.17
-1.165
-1.16
-1.15
-1.135
-1.145
-1.15
-1.135
-1.15
-1.175
-1.175
-1.18
-1.19
-1.17
-1.165
-1.16
-1.155
-1.155
-1.16
-1.165
-1.15
-1.165
-1.165
-1.17
-1.155
-1.165
-1.165
-1.165
-1.16
-1.15
-1.15
-1.14
-1.145
-1.145
-1.19
-1.19
-1.205
-1.185
-1.175
-1.155
-1.14
-1.13
-1.15
-1.145
-1.155
-1.15
-1.155
-1.165
-1.16
-1.135
-1.12
-1.1
-1.08
-1.08
-1.065
-1.065
-1.07
-1.075
-1.07
-1.065
-1.045
-1.025
-0.995
-0.98
-0.975
-0.965
-0.995
-1.0
-1.025
-1.05
-1.065
-1.06
-1.075
-1.075
-1.085
-1.085
-1.095
-1.105
-1.1
-1.13
-1.135
-1.14
-1.15
-1.16
-1.155
-1.165
-1.16
-1.165
-1.15
-1.15
-1.145
-1.155
-1.175
-1.18
-1.19
-1.19
-1.175
-1.17
-1.16
-1.15
-1.14
-1.14
-1.135
-1.14
-1.145
-1.15
-1.155
-1.165
-1.165
-1.15
-1.115
-1.045
-0.965
-0.875
-0.77
-0.655
-0.535
-0.43
-0.36
-0.33
-0.34
-0.43
-0.565
-0.76
-0.95
-1.185
-1.41
-1.59
-1.705
-1.71
-1.67
-1.575
-1.475
-1.385
-1.33
-1.285
-1.235
-1.19
-1.15
-1.125
-1.12
-1.12
-1.11
-1.135
-1.135
-1.125
-1.125
-1.1
-1.085
-1.07
-1.07
-1.08
-1.09
-1.075
-1.085
-1.08
-1.09
-1.065
-1.065
-1.045
-1.035
-1.03
-1.02
-1.025
-1.04
-1.06
-1.05
-1.065
-1.05
-1.035
-1.015
-1.01
-0.99
-0.99
-0.985
-0.99
-1.005
-0.99
-1.005
-1.0
-0.99
-0.975
-0.965
-0.965
-0.955
-0.95
-0.945
-0.945
-0.95
-0.93
-0.945
-0.955
-0.935
-0.905
-0.9
-0.88
-0.85
-0.85
-0.845
-0.84
-0.845
-0.835
-0.835
-0.815
-0.805
-0.79
-0.775
-0.745
-0.715
-0.705
-0.69
-0.67
-0.69
-0.67
-0.635
-0.63
-0.64
-0.61
-0.615
-0.575
-0.555
-0.545
-0.54
-0.53
-0.55
-0.525
-0.545
-0.545
-0.545
-0.545
-0.54
-0.545
-0.545
-0.54
-0.56
-0.57
-0.61
-0.645
-0.675
-0.695
-0.73
-0.745
-0.765
-0.78
-0.8
-0.835
-0.855
-0.875
-0.905
-0.94
-0.945
-0.97
-0.99
-1.015
-1.005
-1.015
-1.005
-1.025
-1.025
-1.025
-1.045
-1.065
-1.08
-1.075
-1.065
-1.065
-1.065
-1.055
-1.055
-1.055
-1.055
-1.065
-1.085
-1.08
-1.08
-1.105
-1.1
-1.08
-1.09
-1.08
-1.055
-1.045
-1.055
-1.05
-1.07
-1.065
-1.08
-1.09
-1.095
-1.075
-1.075
-1.055
-1.04
-1.035
-1.035
-1.04
-1.05
-1.065
-1.07
-1.085
-1.08
-1.07
-1.065
-1.075
-1.07
-1.05
-1.055
-1.05
-1.065
-1.065
-1.08
-1.085
-1.105
-1.09
-1.08
-1.06
-1.075
-1.08
-1.065
-1.075
-1.09
-1.1
-1.105
-1.12
-1.105
-1.11
-1.1
-1.1
-1.085
-1.085
-1.095
-1.1
-1.085
-1.1
-1.115
-1.14
-1.135
-1.135
-1.115
-1.1
-1.1
-1.1
-1.1
-1.09
-1.11
-1.125
-1.12
-1.145
-1.14
-1.13
-1.13
-1.13
-1.115
-1.1
-1.11
-1.1
-1.11
-1.12
-1.145
-1.135
-1.125
-1.125
-1.11
-1.115
-1.1
-1.085
-1.095
-1.11
-1.11
-1.125
-1.15
-1.145
-1.135
-1.14
-1.12
-1.115
-1.105
-1.115
-1.1
-1.11
-1.115
-1.115
-1.125
-1.135
-1.13
-1.12
-1.11
-1.085
-1.075
-1.09
-1.1
-1.105
-1.12
-1.13
-1.115
-1.135
-1.12
-1.115
-1.11
-1.105
-1.085
-1.08
-1.09
-1.095
-1.105
-1.12
-1.125
-1.12
-1.12
-1.105
-1.1
-1.1
-1.085
-1.08
-1.07
-1.095
-1.095
-1.11
-1.11
-1.11
-1.13
-1.11
-1.115
-1.09
-1.08
-1.08
-1.075
-1.09
-1.09
-1.105
-1.105
-1.11
-1.11
-1.105
-1.105
-1.11
-1.105
-1.085
-1.09
-1.095
-1.11
-1.12
-1.12
-1.11
-1.115
-1.115
-1.095
-1.085
-1.075
-1.075
-1.08
-1.075
-1.09
-1.105
-1.105
-1.11
-1.095
-1.09
-1.1
-1.09
-1.085
-1.065
-1.075
-1.075
-1.09
-1.105
-1.105
-1.095
-1.09
-1.08
-1.07
-1.08
-1.065
-1.055
-1.06
-1.04
-1.055
-1.04
-1.035
-1.05
-1.05
-1.03
-1.015
-1.005
-0.97
-0.95
-0.94
-0.915
-0.925
-0.92
-0.935
-0.94
-0.945
-0.935
-0.95
-0.955
-0.945
-0.945
-0.955
-0.97
-0.98
-1.005
-1.025
-1.035
-1.04
-1.045
-1.03
-1.05
-1.045
-1.045
-1.05
-1.075
-1.085
-1.07
-1.105
-1.1
-1.12
-1.13
-1.115
-1.12
-1.12
-1.11
-1.1
-1.105
-1.115
-1.115
-1.11
-1.115
-1.125
-1.11
-1.09
-1.08
-1.06
-1.075
-1.06
-1.07
-1.075
-1.06
-1.035
-0.995
-0.895
-0.79
-0.655
-0.53
-0.39
-0.255
-0.175
-0.15
-0.18
-0.28
-0.435
-0.63
-0.845
-1.075
-1.285
-1.45
-1.525
-1.525
-1.47
-1.395
-1.31
-1.27
-1.22
-1.205
-1.17
-1.135
-1.1
-1.065
-1.035
-1.03
-1.01
-1.03
-1.04
-1.055
-1.07
-1.065
-1.045
-1.045
-1.03
-1.02
-1.005
-1.0
-1.0
-1.01
-1.005
-1.0
-1.01
-1.015
-1.045
-1.02
-1.005
-0.98
-0.97
-0.965
-0.965
-0.955
-0.99
-0.97
-0.98
-0.97
-0.97
-0.95
-0.945
-0.935
-0.925
-0.93
-0.945
-0.93
-0.94
-0.93
-0.935
-0.935
-0.935
-0.92
-0.915
-0.9
-0.89
-0.895
-0.875
-0.875
-0.88
-0.88
-0.88
-0.875
-0.875
-0.85
-0.825
-0.82
-0.79
-0.785
-0.78
-0.8
-0.77
-0.77
-0.765
-0.775
-0.76
-0.74
-0.7
-0.68
-0.645
-0.635
-0.635
-0.615
-0.61
-0.59
-0.585
-0.575
-0.565
-0.55
-0.535
-0.51
-0.495
-0.49
-0.475
-0.485
-0.49
-0.49
-0.5
-0.51
-0.49
-0.49
-0.475
-0.515
-0.505
-0.505
-0.51
-0.53
-0.57
-0.615
-0.64
-0.665
-0.695
-0.715
-0.72
-0.745
-0.765
-0.79
-0.81
-0.86
-0.86
-0.89
-0.91
-0.93
-0.945
-0.95
-0.96
-0.955
-0.96
-0.945
-0.96
-0.965
-0.98
-0.995
-0.99
-1.005
-1.005
-1.0
-1.0
-0.99
-0.985
-0.98
-0.995
-0.985
-0.99
-0.995
-1.015
-1.01
-0.995
-1.005
-0.995
-0.985
-0.965
-0.97
-0.975
-0.96
-0.975
-0.98
-0.985
-0.985
-0.985
-0.985
-0.97
-0.97
-0.955
-0.955
-0.95
-0.955
-0.96
-0.985
-0.985
-0.985
-0.985
-0.99
-0.985
-0.98
-0.955
-0.95
-0.96
-0.97
-0.985
-0.99
-1.0
-1.005
-1.01
-0.995
-0.99
-0.995
-0.975
-0.985
-0.975
-0.995
-1.0
-1.02
-1.02
-1.025
-1.04
-1.025
-1.01
-1.0
-1.0
-0.995
-1.01
-1.0
-1.02
-1.015
-1.035
-1.025
-1.045
-1.035
-1.035
-1.02
-1.01
-1.01
-1.0
-1.01
-1.015
-1.035
-1.03
-1.035
-1.045
-1.02
-1.02
-1.02
-1.005
-1.015
-1.0
-1.01
-1.015
-1.01
-1.03
-1.03
-1.03
-1.035
-1.03
-1.025
-1.01
-1.005
-0.995
-1.005
-1.015
-1.025
-1.025
-1.04
-1.035
-1.03
-0.995
-0.995
-1.005
-0.995
-1.01
-1.01
-1.015
-1.015
-1.025
-1.025
-1.01
-1.015
-1.01
-1.0
-0.985
-0.99
-0.99
-0.99
-1.0
-1.005
-1.0
-1.01
-1.03
-1.025
-1.025
-1.01
-0.995
-1.01
-1.01
-1.015
-1.03
-1.01
-1.025
-1.03
-1.03
-1.02
-1.02
-1.02
-1.0
-0.99
-0.985
-0.985
-1.0
-1.015
-1.005
-1.015
-1.03
-1.025
-1.015
-1.0
-0.995
-0.995
-1.0
-0.99
-0.995
-1.01
-1.0
-1.015
-1.015
-1.035
-1.015
-1.015
-0.985
-0.98
-0.98
-0.99
-0.99
-1.0
-1.02
-1.02
-1.005
-1.015
-0.995
-0.99
-0.99
-0.99
-0.995
-1.0
-1.01
-1.015
-1.04
-1.03
-1.01
-1.015
-0.995
-0.99
-0.98
-0.955
-0.96
-0.955
-0.945
-0.945
-0.94
-0.955
-0.95
-0.93
-0.92
-0.93
-0.895
-0.875
-0.88
-0.86
-0.85
-0.85
-0.85
-0.875
-0.87
-0.885
-0.875
-0.875
-0.86
-0.86
-0.865
-0.895
-0.92
-0.94
-0.98
-0.99
-0.98
-0.995
-0.99
-0.995
-0.99
-0.975
-1.0
-1.0
-1.01
-1.015
-1.025
-1.04
-1.05
-1.05
-1.05
-1.07
-1.03
-1.04
-1.03
-1.035
-1.025
-1.035
-1.055
-1.045
-1.04
-1.03
-1.02
-1.025
-1.015
-0.99
-0.995
-0.985
-0.96
-0.91
-0.83
-0.73
-0.625
-0.505
-0.415
-0.315
-0.305
-0.375
-0.515
-0.735
-0.96
-1.205
-1.435
-1.6
-1.7
-1.695
-1.61
-1.495
-1.395
-1.32
-1.265
-1.225
-1.195
-1.14
-1.125
-1.085
-1.04
-1.0
-0.995
-0.985
-0.985
-0.995
-1.0
-0.995
-0.99
-0.99
-0.985
-0.995
-0.995
-0.99
-0.985
-0.97
-0.97
-0.95
-0.945
-0.945
-0.95
-0.95
-0.965
-0.97
-0.955
-0.965
-0.95
-0.96
-0.925
-0.915
-0.915
-0.935
-0.92
-0.93
-0.95
-0.95
-0.96
-0.955
-0.935
-0.93
-0.915
-0.905
-0.905
-0.895
-0.895
-0.885
-0.9
-0.89
-0.875
-0.87
-0.875
-0.84
-0.82
-0.815
-0.815
-0.815
-0.835
-0.835
-0.815
-0.815
-0.81
-0.795
-0.76
-0.75
-0.75
-0.715
-0.7
-0.695
-0.695
-0.675
-0.685
-0.685
-0.655
-0.625
-0.605
-0.59
-0.58
-0.55
-0.55
-0.54
-0.52
-0.52
-0.53
-0.525
-0.515
-0.51
-0.49
-0.47
-0.46
-0.46
-0.465
-0.465
-0.485
-0.495
-0.51
-0.515
-0.54
-0.535
-0.57
-0.54
-0.565
-0.58
-0.605
-0.63
-0.67
-0.695
-0.725
-0.745
-0.785
-0.815
-0.825
-0.845
-0.865
-0.875
-0.895
-0.92
-0.935
-0.955
-0.98
-1.005
-1.005
-1.005
-1.03
-1.015
-1.025
-1.015
-1.015
-1.025
-1.025
-1.045
-1.045
-1.055
-1.06
-1.065
-1.055
-1.05
-1.04
-1.035
-1.045
-1.035
-1.05
-1.065
-1.075
-1.075
-1.09
-1.065
-1.075
-1.05
-1.055
-1.06
-1.055
-1.06
-1.08
-1.08
-1.08
-1.075
-1.08
-1.08
-1.075
-1.06
-1.035
-1.035
-1.02
-1.03
-1.05
-1.045
-1.055
-1.06
-1.07
-1.07
-1.07
-1.055
-1.05
-1.04
-1.06
-1.065
-1.07
-1.075
-1.095
-1.095
-1.09
-1.095
-1.075
-1.075
-1.06
-1.05
-1.055
-1.075
-1.085
-1.085
-1.11
-1.12
-1.12
-1.115
-1.105
-1.09
-1.105
-1.1
-1.11
-1.105
-1.11
-1.105
-1.11
-1.13
-1.125
-1.14
-1.13
-1.1
-1.105
-1.09
-1.105
-1.1
-1.12
-1.135
-1.13
-1.13
-1.145
-1.14
-1.125
-1.12
-1.12
-1.11
-1.12
-1.12
-1.12
-1.13
-1.16
-1.15
-1.145
-1.145
-1.145
-1.12
-1.115
-1.105
-1.12
-1.125
-1.145
-1.15
-1.15
-1.16
-1.15
-1.14
-1.125
-1.11
-1.115
-1.115
-1.135
-1.115
-1.12
-1.125
-1.135
-1.14
-1.155
-1.135
-1.145
-1.13
-1.105
-1.11
-1.1
-1.11
-1.12
-1.115
-1.13
-1.145
-1.145
-1.135
-1.135
-1.13
-1.11
-1.11
-1.105
-1.115
-1.115
-1.13
-1.135
-1.155
-1.155
-1.155
-1.135
-1.12
-1.105
-1.1
-1.095
-1.09
-1.11
-1.125
-1.14
-1.14
-1.14
-1.14
-1.13
-1.125
-1.11
-1.11
-1.095
-1.1
-1.11
-1.12
-1.135
-1.135
-1.145
-1.135
-1.13
-1.125
-1.125
-1.105
-1.105
-1.11
-1.13
-1.125
-1.14
-1.145
-1.145
-1.14
-1.145
-1.125
-1.13
-1.105
-1.105
-1.105
-1.11
-1.115
-1.135
-1.14
-1.12
-1.12
-1.11
-1.11
-1.105
-1.1
-1.085
-1.1
-1.095
-1.1
-1.1
-1.1
-1.085
-1.075
-1.06
-1.045
-1.02
-1.015
-1.025
-1.005
-1.02
-1.03
-1.025
-1.0
-0.985
-0.955
-0.965
-0.95
-0.955
-0.96
-0.965
-0.98
-1.01
-1.015
-1.025
-1.02
-1.045
-1.06
-1.06
-1.065
-1.06
-1.07
-1.06
-1.075
-1.09
-1.105
-1.11
-1.115
-1.125
-1.125
-1.13
-1.14
-1.135
-1.13
-1.125
-1.14
-1.15
-1.145
-1.135
-1.16
-1.15
-1.14
-1.145
-1.14
-1.11
-1.09
-1.095
-1.105
-1.11
-1.12
-1.12
-1.13
-1.125
-1.135
-1.11
-1.085
-1.005
-0.93
-0.86
-0.74
-0.605
-0.475
-0.345
-0.235
-0.195
-0.215
-0.31
-0.48
-0.705
-0.97
-1.215
-1.46
-1.595
-1.62
-1.575
-1.48
-1.395
-1.315
-1.26
-1.215
-1.18
-1.14
-1.1
-1.08
-1.06
-1.075
-1.085
-1.09
-1.09
-1.09
-1.1
-1.075
-1.08
-1.06
-1.06
-1.075
-1.08
-1.05
-1.055
-1.05
-1.06
-1.06
-1.04
-1.03
-1.02
-1.015
-1.02
-1.02
-1.015
-1.02
-1.02
-1.02
-1.02
-1.01
-1.01
-1.0
-0.985
-0.975
-0.97
-0.975
-0.99
-1.005
-0.995
-0.995
-0.995
-0.985
-0.98
-0.975
-0.95
-0.95
-0.935
-0.925
-0.94
-0.945
-0.95
-0.945
-0.94
-0.925
-0.9
-0.89
-0.88
-0.87
-0.87
-0.865
-0.865
-0.855
-0.865
-0.87
-0.86
-0.845
-0.83
-0.81
-0.79
-0.775
-0.765
-0.755
-0.755
-0.74
-0.73
-0.745
-0.725
-0.7
-0.675
-0.68
-0.65
-0.63
-0.615
-0.595
-0.58
-0.57
-0.58
-0.585
-0.545
-0.545
-0.54
-0.515
-0.515
-0.515
-0.505
-0.505
-0.505
-0.51
-0.53
-0.545
-0.55
-0.555
-0.55
-0.55
-0.555
-0.575
-0.615
-0.625
-0.665
-0.7
-0.725
-0.76
-0.78
-0.805
-0.82
-0.84
-0.85
-0.85
-0.875
-0.89
-0.91
-0.94
-0.955
-0.995
-0.995
-1.0
-0.99
-0.98
-0.985
-0.985
-0.995
-1.0
-1.005
-1.025
-1.025
-1.03
-1.035
-1.035
-1.035
-1.02
-1.005
-0.995
-1.01
-1.005
-1.025
-1.02
-1.035
-1.03
-1.025
-1.025
-1.02
-1.01
-1.0
-1.0
-1.02
-1.01
-1.015
-1.02
-1.015
-1.02
-1.025
-1.04
-1.015
-1.005
-1.0
-0.985
-0.985
-0.99
-1.0
-1.0
-1.015
-1.015
-1.02
-1.015
-1.005
-1.0
-0.99
-1.0
-0.985
-1.0
-1.005
-1.015
-1.015
-1.035
-1.03
-1.025
-1.035
-1.02
-1.01
-1.005
-1.005
-1.01
-1.025
-1.035
-1.025
-1.045
-1.05
-1.045
-1.035
-1.03
-1.03
-1.035
-1.035
-1.02
-1.025
-1.035
-1.035
-1.04
-1.05
-1.045
-1.04
-1.045
-1.03
-1.01
-1.035
-1.045
-1.035
-1.045
-1.045
-1.045
-1.045
-1.045
-1.05
-1.04
-1.025
-1.015
-1.015
-1.015
-1.035
-1.03
-1.045
-1.04
-1.045
-1.045
-1.035
-1.025
-1.025
-1.015
-1.015
-1.02
-1.03
-1.03
-1.045
-1.06
-1.06
-1.06
-1.04
-1.05
-1.015
-1.015
-1.015
-1.035
-1.03
-1.035
-1.035
-1.045
-1.05
-1.05
-1.055
-1.04
-1.04
-1.02
-1.025
-1.015
-1.025
-1.03
-1.035
-1.03
-1.025
-1.01
-1.005
-0.995
-1.01
-1.0
-1.01
-1.01
-1.015
-1.04
-1.025
-1.025
-1.02
-1.01
-1.015
-1.01
-1.0
-1.005
-0.995
-1.005
-0.99
-1.005
-1.01
-1.03
-1.025
-1.01
-1.005
-1.0
-0.995
-0.99
-0.985
-0.99
-0.995
-1.005
-1.01
-1.025
-1.02
-1.02
-1.025
-1.01
-0.99
-1.005
-0.99
-0.995
-1.015
-1.015
-1.015
-1.005
-1.005
-1.015
-1.0
-0.985
-0.975
-0.965
-0.98
-0.98
-0.985
-1.0
-1.0
-1.005
-1.005
-1.0
-0.995
-0.99
-0.975
-0.98
-0.985
-0.975
-0.975
-0.98
-0.985
-0.99
-0.995
-0.97
-0.965
-0.95
-0.93
-0.915
-0.92
-0.905
-0.91
-0.915
-0.925
-0.925
-0.895
-0.88
-0.86
-0.83
-0.8
-0.79
-0.8
-0.81
-0.83
-0.855
-0.86
-0.87
-0.87
-0.88
-0.885
-0.885
-0.9
-0.9
-0.925
-0.93
-0.94
-0.97
-0.985
-0.995
-1.015
-1.0
-1.0
-0.99
-0.97
-0.98
-0.98
-0.975
-1.0
-1.0
-1.005
-1.005
-1.01
-1.005
-1.0
-0.99
-0.98
-0.98
-0.98
-0.985
-0.98
-0.985
-0.99
-0.995
-0.99
-0.985
-0.975
-0.96
-0.925
-0.885
-0.82
-0.75
-0.66
-0.55
-0.44
-0.34
-0.27
-0.265
-0.335
-0.455
-0.65
-0.875
-1.125
-1.345
-1.515
-1.605
-1.58
-1.505
-1.4
-1.305
-1.22
-1.15
-1.1
-1.035
-1.005
-0.96
-0.97
-0.96
-0.96
-0.96
-0.98
-0.96
-0.965
-0.955
-0.945
-0.93
-0.92
-0.925
-0.92
-0.92
-0.93
-0.93
-0.93
-0.94
-0.915
-0.905
-0.905
-0.88
-0.88
-0.885
-0.89
-0.9
-0.895
-0.905
-0.89
-0.9
-0.885
-0.865
-0.87
-0.86
-0.865
-0.865
-0.87
-0.865
-0.88
-0.86
-0.87
-0.86
-0.85
-0.835
-0.82
-0.825
-0.825
-0.815
-0.815
-0.81
-0.82
-0.81
-0.82
-0.8
-0.77
-0.77
-0.75
-0.73
-0.715
-0.715
-0.7
-0.715
-0.71
-0.7
-0.685
-0.68
-0.65
-0.62
-0.615
-0.62
-0.605
-0.595
-0.59
-0.57
-0.56
-0.54
-0.54
-0.525
-0.5
-0.47
-0.445
-0.425
-0.43
-0.425
-0.41
-0.41
-0.42
-0.41
-0.41
-0.41
-0.39
-0.375
-0.365
-0.355
-0.36
-0.375
-0.405
-0.415
-0.425
-0.44
-0.46
-0.47
-0.485
-0.505
-0.5
-0.515
-0.535
-0.575
-0.605
-0.635
-0.67
-0.705
-0.73
-0.75
-0.765
-0.775
-0.78
-0.795
-0.805
-0.82
-0.85
-0.865
-0.885
-0.895
-0.905
-0.9
-0.905
-0.905
-0.91
-0.905
-0.91
-0.905
-0.91
-0.915
-0.925
-0.935
-0.94
-0.935
-0.935
-0.91
-0.915
-0.9
-0.925
-0.92
-0.91
-0.925
-0.955
-0.94
-0.94
-0.955
-0.94
-0.93
-0.915
-0.91
-0.91
-0.925
-0.935
-0.935
-0.94
-0.95
-0.955
-0.95
-0.955
-0.945
-0.935
-0.935
-0.93
-0.935
-0.94
-0.95
-0.965
-0.98
-0.975
-0.985
-0.985
-0.96
-0.96
-0.945
-0.945
-0.945
-0.96
-0.985
-0.985
-1.0
-1.01
-1.005
-1.005
-0.975
-0.98
-0.985
-0.98
-0.97
-0.98
-1.0
-1.0
-1.0
-1.025
-1.01
-1.005
-0.99
-0.985
-0.99
-0.995
-1.0
-1.0
-1.01
-1.02
-1.02
-1.035
-1.035
-1.035
-1.015
-1.0
-0.99
-1.0
-0.995
-1.01
-1.005
-1.015
-1.02
-1.02
-1.04
-1.03
-1.01
-1.02
-1.02
-1.025
-1.025
-1.03
-1.045
-1.025
-1.02
-1.04
-1.025
-1.01
-1.02
-1.015
-0.995
-1.0
-1.0
-1.0
-1.005
-1.005
-1.02
-1.03
-1.03
-1.02
-1.02
-1.02
-1.005
-1.005
-1.03
-1.025
-1.02
-1.025
-1.025
-1.045
-1.04
-1.045
-1.05
-1.04
-1.04
-1.03
-1.015
-1.025
-1.03
-1.035
-1.035
-1.035
-1.045
-1.03
-1.025
-1.01
-1.01
-1.02
-1.01
-1.025
-1.015
-1.03
-1.05
-1.04
-1.04
-1.03
-1.03
-1.01
-0.99
-1.02
-1.0
-1.005
-1.025
-1.04
-1.03
-1.03
-1.025
-1.025
-1.02
-1.025
-1.0
-1.01
-1.005
-1.015
-1.015
-1.02
-1.025
-1.035
-1.03
-1.02
-1.02
-1.0
-1.0
-1.015
-1.01
-1.025
-1.005
-1.025
-1.015
-1.03
-1.03
-1.015
-1.005
-0.995
-1.0
-1.01
-0.99
-1.0
-1.01
-1.015
-1.025
-1.02
-1.005
-0.985
-0.97
-0.955
-0.93
-0.93
-0.93
-0.94
-0.93
-0.93
-0.935
-0.915
-0.905
-0.88
-0.86
-0.85
-0.835
-0.85
-0.865
-0.88
-0.915
-0.935
-0.95
-0.945
-0.95
-0.97
-0.965
-0.985
-0.965
-0.995
-1.005
-1.015
-1.02
-1.025
-1.03
-1.055
-1.05
-1.04
-1.035
-1.025
-1.035
-1.03
-1.02
-1.02
-1.04
-1.05
-1.045
-1.06
-1.055
-1.035
-1.03
-1.015
-1.02
-1.02
-1.02
-1.03
-1.03
-1.04
-1.035
-1.03
-1.0
-0.955
-0.87
-0.765
-0.635
-0.51
-0.38
-0.25
-0.185
-0.15
-0.195
-0.32
-0.525
-0.775
-1.0
-1.255
-1.425
-1.515
-1.51
-1.445
-1.335
-1.245
-1.17
-1.135
-1.095
-1.06
-1.03
-0.985
-0.96
-0.97
-0.98
-0.985
-0.995
-1.025
-1.015
-1.015
-1.02
-0.985
-0.965
-0.98
-0.955
-0.95
-0.94
-0.96
-0.97
-0.965
-0.955
-0.975
-0.975
-0.965
-0.955
-0.94
-0.945
-0.94
-0.94
-0.92
-0.94
-0.945
-0.935
-0.94
-0.93
-0.925
-0.91
-0.915
-0.905
-0.89
-0.885
-0.885
-0.895
-0.915
-0.905
-0.9
-0.9
-0.89
-0.875
-0.865
-0.85
-0.84
-0.845
-0.84
-0.85
-0.85
-0.835
-0.84
-0.835
-0.825
-0.81
-0.795
-0.785
-0.76
-0.755
-0.755
-0.74
-0.745
-0.745
-0.73
-0.725
-0.695
-0.67
-0.66
-0.64
-0.62
-0.605
-0.6
-0.595
-0.59
-0.58
-0.58
-0.57
-0.54
-0.53
-0.5
-0.49
-0.485
-0.475
-0.485
-0.465
-0.46
-0.465
-0.48
-0.49
-0.475
-0.46
-0.455
-0.445
-0.465
-0.475
-0.495
-0.51
-0.54
-0.555
-0.6
-0.605
-0.625
-0.65
-0.675
-0.69
-0.705
-0.735
-0.775
-0.8
-0.825
-0.845
-0.87
-0.885
-0.89
-0.905
-0.91
-0.89
-0.915
-0.93
-0.955
-0.975
-0.99
-1.0
-1.01
-1.01
-1.0
-1.01
-1.0
-0.99
-1.01
-1.005
-1.0
-1.005
-1.02
-1.02
-1.015
-1.015
-1.005
-1.01
-1.01
-0.99
-0.985
-0.995
-0.985
-1.0
-1.01
-1.015
-1.01
-1.0
-1.0
-0.99
-0.985
-0.965
-0.965
-0.965
-0.975
-0.98
-0.995
-0.99
-1.005
-1.01
-1.01
-0.99
-0.98
-0.96
-0.98
-0.985
-0.985
-0.99
-1.005
-1.0
-1.005
-1.0
-0.985
-0.985
-0.975
-0.975
-0.99
-1.01
-0.995
-1.015
-1.015
-1.015
-1.025
-1.035
-1.045
-1.025
-1.015
-1.035
-1.01
-1.025
-1.035
-1.04
-1.04
-1.04
-1.075
-1.07
-1.05
-1.055
-1.045
-1.03
-1.045
-1.035
-1.035
-1.07
-1.07
-1.075
-1.075
-1.07
-1.065
-1.06
-1.055
-1.05
-1.05
-1.055
-1.055
-1.06
-1.055
-1.065
-1.095
-1.095
-1.065
-1.055
-1.04
-1.03
-1.025
-1.035
-1.055
-1.05
-1.05
-1.045
-1.055
-1.07
-1.05
-1.055
-1.045
-1.04
-1.04
-1.04
-1.045
-1.055
-1.05
-1.065
-1.075
-1.08
-1.065
-1.05
-1.035
-1.03
-1.02
-1.04
-1.03
-1.045
-1.07
-1.07
-1.07
-1.06
-1.05
-1.065
-1.045
-1.045
-1.055
-1.035
-1.035
-1.05
-1.065
-1.075
-1.055
-1.055
-1.04
-1.04
-1.025
-1.015
-1.015
-1.025
-1.035
-1.045
-1.045
-1.06
-1.06
-1.075
-1.065
-1.055
-1.05
-1.04
-1.055
-1.06
-1.04
-1.065
-1.08
-1.075
-1.075
-1.075
-1.055
-1.045
-1.04
-1.03
-1.045
-1.03
-1.04
-1.03
-1.05
-1.075
-1.08
-1.08
-1.055
-1.045
-1.04
-1.03
-1.03
-1.025
-1.04
-1.02
-1.035
-1.045
-1.055
-1.05
-1.05
-1.05
-1.045
-1.02
-1.02
-1.025
-1.025
-1.04
-1.045
-1.055
-1.06
-1.075
-1.045
-1.04
-1.02
-1.01
-1.01
-0.99
-1.0
-1.01
-0.995
-0.99
-0.995
-0.99
-0.985
-0.96
-0.95
-0.925
-0.915
-0.905
-0.88
-0.885
-0.88
-0.87
-0.885
-0.89
-0.895
-0.905
-0.92
-0.91
-0.915
-0.925
-0.94
-0.97
-0.975
-0.995
-1.015
-1.045
-1.04
-1.015
-1.025
-1.015
-1.01
-1.035
-1.05
-1.055
-1.065
-1.055
-1.07
-1.08
-1.075
-1.07
-1.065
-1.055
-1.04
-1.045
-1.055
-1.065
-1.07
-1.08
-1.075
-1.075
-1.055
-1.04
-1.035
-1.005
-1.025
-1.025
-1.01
-1.005
-0.965
-0.9
-0.82
-0.715
-0.6
-0.465
-0.32
-0.23
-0.17
-0.195
-0.295
-0.455
-0.68
-0.915
-1.155
-1.375
-1.495
-1.525
-1.475
-1.375
-1.285
-1.205
-1.15
-1.12
-1.08
-1.055
-1.055
-1.005
-0.995
-0.99
-0.985
-0.98
-0.99
-0.985
-1.0
-0.99
-0.99
-1.01
-0.99
-0.995
-0.965
-0.955
-0.955
-0.93
-0.935
-0.935
-0.95
-0.955
-0.95
-0.94
-0.945
-0.94
-0.93
-0.92
-0.915
-0.895
-0.9
-0.905
-0.905
-0.915
-0.94
-0.92
-0.925
-0.92
-0.91
-0.895
-0.88
-0.87
-0.87
-0.865
-0.87
-0.875
-0.885
-0.865
-0.87
-0.875
-0.85
-0.85
-0.835
-0.82
-0.815
-0.805
-0.805
-0.795
-0.79
-0.79
-0.785
-0.79
-0.76
-0.75
-0.72
-0.71
-0.695
-0.68
-0.68
-0.665
-0.66
-0.66
-0.67
-0.635
-0.625
-0.59
-0.57
-0.54
-0.525
-0.52
-0.52
-0.515
-0.51
-0.49
-0.51
-0.49
-0.48
-0.47
-0.45
-0.42
-0.41
-0.41
-0.405
-0.405
-0.44
-0.435
-0.445
-0.47
-0.47
-0.485
-0.495
-0.515
-0.53
-0.565
-0.595
