Lead II
0.025
0.025
0.015
0.02
0.005
0.015
0.03
0.025
0.015
0.005
0.01
0.01
0.035
0.02
0.01
0.015
0.0
0.03
0.035
0.025
0.015
-0.005
-0.005
0.01
0.03
0.03
0.02
0.01
0.02
0.025
0.025
0.035
0.02
0.0
0.02
0.025
0.035
0.015
0.015
-0.015
-0.005
0.02
0.035
0.035
0.015
0.0
0.005
0.005
0.025
0.03
0.02
0.015
0.025
0.035
0.045
0.045
0.045
0.04
0.055
0.06
0.08
0.085
0.085
0.07
0.07
0.085
0.09
0.08
0.06
0.04
0.05
0.055
0.065
0.06
0.055
0.04
0.05
0.075
0.075
0.08
0.07
0.06
0.06
0.065
0.07
0.055
0.025
0.025
0.025
0.03
0.045
0.045
0.04
0.01
0.01
0.035
0.05
0.025
0.025
0.005
0.005
0.02
0.035
0.03
0.02
0.0
0.015
0.02
0.025
0.02
0.015
0.0
0.01
0.015
0.04
0.04
0.035
0.02
0.035
0.055
0.085
0.1
0.12
0.135
0.185
0.24
0.32
0.375
0.435
0.505
0.65
0.81
0.965
1.115
1.255
1.39
1.55
1.76
1.96
2.08
2.055
1.875
1.51
1.035
0.6
0.295
0.13
0.025
0.01
0.04
0.06
0.05
0.04
0.015
0.015
0.015
0.0
-0.005
-0.02
-0.045
-0.04
-0.045
-0.035
-0.035
-0.05
-0.07
-0.07
-0.055
-0.06
-0.045
-0.07
-0.09
-0.09
-0.075
-0.065
-0.07
-0.09
-0.1
-0.095
-0.075
-0.06
-0.075
-0.09
-0.115
-0.105
-0.1
-0.08
-0.08
-0.09
-0.115
-0.12
-0.12
-0.09
-0.08
-0.1
-0.11
-0.095
-0.085
-0.09
-0.095
-0.105
-0.12
-0.105
-0.1
-0.07
-0.075
-0.095
-0.115
-0.105
-0.085
-0.07
-0.075
-0.085
-0.09
-0.095
-0.065
-0.06
-0.055
-0.07
-0.085
-0.065
-0.065
-0.04
-0.045
-0.045
-0.065
-0.05
-0.02
0.0
-0.005
0.005
0.0
0.005
0.025
0.035
0.05
0.045
0.045
0.06
0.09
0.125
0.15
0.14
0.145
0.16
0.18
0.21
0.225
0.225
0.22
0.225
0.25
0.26
0.26
0.26
0.245
0.245
0.235
0.25
0.23
0.215
0.195
0.195
0.19
0.195
0.175
0.16
0.11
0.12
0.125
0.11
0.105
0.1
0.09
0.075
0.075
0.085
0.08
0.055
0.04
0.035
0.055
0.065
0.055
0.055
0.05
0.055
0.05
0.065
0.065
0.05
0.045
0.03
0.045
0.045
0.055
0.04
0.02
0.02
0.03
0.035
0.04
0.02
0.01
0.005
0.02
0.02
0.015
0.025
0.005
0.0
0.005
0.005
-0.005
-0.005
-0.01
-0.01
-0.005
0.01
-0.01
-0.02
-0.045
-0.02
-0.015
0.0
-0.015
-0.03
-0.035
-0.045
-0.02
-0.005
-0.005
-0.02
-0.025
-0.02
-0.01
0.0
-0.005
-0.025
-0.045
-0.035
-0.03
-0.005
-0.005
-0.015
-0.025
-0.015
-0.02
-0.005
-0.02
-0.025
-0.02
-0.03
-0.01
-0.01
-0.015
-0.025
-0.035
-0.025
-0.025
-0.01
-0.01
-0.02
-0.04
-0.04
-0.01
0.0
-0.01
-0.03
-0.045
-0.04
-0.035
-0.02
-0.04
-0.035
-0.055
-0.055
-0.04
-0.015
-0.02
-0.04
-0.05
-0.04
-0.045
-0.03
-0.035
-0.045
-0.055
-0.05
-0.035
-0.04
-0.05
-0.055
-0.05
-0.065
-0.04
-0.03
-0.025
-0.045
-0.06
-0.06
-0.05
-0.025
-0.025
-0.04
-0.05
-0.05
-0.04
-0.04
-0.045
-0.06
-0.075
-0.06
-0.05
-0.04
-0.045
-0.06
-0.07
-0.07
-0.06
-0.045
-0.045
-0.055
-0.06
-0.06
-0.05
-0.04
-0.045
-0.06
-0.075
-0.07
-0.05
-0.04
-0.035
-0.045
-0.055
-0.035
-0.025
-0.015
-0.005
-0.015
-0.03
-0.01
-0.005
0.015
0.025
0.0
-0.01
-0.01
0.0
0.01
0.005
-0.005
-0.03
-0.025
-0.035
-0.01
-0.02
-0.02
-0.02
-0.005
0.01
0.005
0.005
0.005
0.0
-0.005
-0.005
0.015
-0.005
-0.02
-0.055
-0.055
-0.045
-0.025
-0.03
-0.045
-0.055
-0.05
-0.045
-0.04
-0.035
-0.06
-0.055
-0.07
-0.04
-0.02
-0.025
-0.04
-0.065
-0.055
-0.045
-0.035
-0.04
-0.06
-0.06
-0.05
-0.045
-0.015
-0.025
-0.04
-0.05
-0.05
-0.04
-0.03
-0.025
-0.025
-0.03
-0.01
0.01
0.055
0.07
0.09
0.145
0.195
0.25
0.295
0.36
0.425
0.515
0.635
0.76
0.895
1.015
1.125
1.25
1.395
1.575
1.77
1.92
1.97
1.915
1.74
1.415
1.025
0.61
0.29
0.1
-0.015
-0.05
-0.04
-0.035
-0.045
-0.06
-0.055
-0.045
-0.055
-0.07
-0.105
-0.12
-0.13
-0.12
-0.105
-0.13
-0.135
-0.155
-0.165
-0.15
-0.135
-0.14
-0.145
-0.165
-0.165
-0.16
-0.15
-0.16
-0.16
-0.19
-0.17
-0.175
-0.155
-0.14
-0.18
-0.195
-0.17
-0.17
-0.165
-0.175
-0.195
-0.195
-0.185
-0.18
-0.185
-0.19
-0.205
-0.205
-0.205
-0.195
-0.19
-0.2
-0.205
-0.215
-0.21
-0.2
-0.19
-0.19
-0.21
-0.205
-0.215
-0.19
-0.18
-0.17
-0.19
-0.2
-0.2
-0.18
-0.18
-0.18
-0.195
-0.195
-0.195
-0.175
-0.155
-0.165
-0.155
-0.17
-0.155
-0.14
-0.12
-0.125
-0.125
-0.12
-0.1
-0.08
-0.065
-0.055
-0.06
-0.045
-0.025
0.005
0.03
0.035
0.04
0.03
0.065
0.105
0.135
0.145
0.14
0.14
0.145
0.165
0.19
0.19
0.18
0.17
0.175
0.175
0.19
0.175
0.155
0.135
0.13
0.125
0.13
0.115
0.08
0.055
0.06
0.05
0.065
0.04
0.03
0.01
0.01
0.015
0.025
0.02
0.01
-0.005
0.005
0.01
0.02
0.01
0.0
-0.005
0.005
0.01
0.015
0.005
-0.005
-0.015
-0.005
0.005
0.015
0.0
-0.025
-0.035
-0.04
-0.025
-0.01
-0.025
-0.025
-0.02
-0.03
-0.01
0.0
-0.015
-0.025
-0.035
-0.04
-0.02
-0.015
-0.03
-0.03
-0.04
-0.04
-0.01
-0.005
-0.02
-0.015
-0.035
-0.025
-0.025
0.0
-0.015
-0.02
-0.02
-0.02
-0.005
0.0
-0.005
-0.01
-0.03
-0.01
-0.005
0.0
-0.005
-0.015
-0.03
-0.025
-0.005
0.01
0.02
-0.005
-0.02
-0.02
-0.015
0.0
0.0
-0.01
-0.025
-0.025
-0.02
-0.005
-0.01
-0.025
-0.025
-0.015
-0.01
-0.005
-0.015
-0.015
-0.035
-0.02
-0.02
0.01
-0.015
-0.025
-0.03
-0.025
-0.02
-0.015
-0.005
-0.02
-0.045
-0.02
-0.02
0.0
-0.01
-0.02
-0.025
-0.02
0.0
0.005
-0.005
-0.025
-0.03
-0.025
-0.015
-0.005
-0.01
-0.02
-0.035
-0.025
-0.025
-0.015
-0.01
-0.015
-0.015
-0.015
-0.005
0.005
-0.015
-0.015
-0.03
-0.025
-0.01
0.0
-0.01
0.005
-0.03
-0.025
-0.01
0.005
0.005
-0.005
-0.02
-0.02
0.0
0.015
-0.005
-0.005
-0.005
-0.005
0.005
0.025
0.025
0.02
0.02
0.02
0.045
0.06
0.06
0.045
0.055
0.055
0.075
0.07
0.065
0.06
0.045
0.035
0.045
0.055
0.04
0.02
0.02
0.015
0.025
0.055
0.05
0.045
0.035
0.035
0.055
0.055
0.05
0.055
0.03
0.015
0.015
0.015
0.01
0.0
-0.005
0.005
0.01
0.02
0.01
0.0
-0.01
-0.005
0.005
0.025
0.01
0.01
-0.01
0.0
0.0
0.015
0.02
0.0
0.0
-0.005
0.005
0.02
0.005
0.0
-0.015
0.01
0.025
0.035
0.015
0.025
0.015
0.035
0.08
0.125
0.155
0.205
0.26
0.31
0.395
0.49
0.63
0.77
0.92
1.085
1.25
1.4
1.555
1.74
1.965
2.11
2.15
2.02
1.7
1.24
0.78
0.43
0.21
0.095
0.02
0.0
0.0
0.01
0.015
0.02
0.0
-0.03
-0.05
-0.065
-0.075
-0.06
-0.07
-0.105
-0.105
-0.12
-0.11
-0.085
-0.09
-0.1
-0.125
-0.11
-0.115
-0.095
-0.115
-0.12
-0.125
-0.135
-0.12
-0.105
-0.125
-0.13
-0.145
-0.135
-0.125
-0.125
-0.135
-0.15
-0.165
-0.16
-0.135
-0.125
-0.135
-0.15
-0.145
-0.155
-0.135
-0.135
-0.14
-0.14
-0.15
-0.14
-0.135
-0.13
-0.13
-0.13
-0.16
-0.15
-0.115
-0.095
-0.105
-0.13
-0.125
-0.125
-0.105
-0.095
-0.09
-0.1
-0.095
-0.105
-0.085
-0.065
-0.05
-0.055
-0.055
-0.035
-0.02
-0.01
-0.01
-0.005
0.0
0.01
0.045
0.065
0.08
0.085
0.085
0.11
0.145
0.185
0.185
0.205
0.22
0.235
0.255
0.285
0.265
0.27
0.27
0.28
0.295
0.3
0.275
0.25
0.22
0.225
0.225
0.23
0.215
0.185
0.155
0.145
0.16
0.145
0.13
0.12
0.105
0.095
0.1
0.115
0.115
0.08
0.075
0.07
0.09
0.09
0.095
0.085
0.07
0.08
0.095
0.105
0.095
0.075
0.06
0.06
0.08
0.085
0.075
0.065
0.05
0.055
0.07
0.08
0.065
0.06
0.055
0.05
0.07
0.08
0.07
0.055
0.045
0.03
0.05
0.06
0.055
0.05
0.04
0.045
0.055
0.06
0.06
0.04
0.035
0.045
0.06
0.06
0.07
0.05
0.035
0.04
0.07
0.09
0.085
0.06
0.065
0.06
0.07
0.085
0.08
0.075
0.065
0.06
0.08
0.085
0.085
0.075
0.06
0.065
0.085
0.105
0.09
0.08
0.065
0.07
0.085
0.085
0.09
0.075
0.07
0.075
0.075
0.085
0.08
0.07
0.07
0.075
0.09
0.1
0.095
0.065
0.05
0.055
0.075
0.07
0.075
0.065
0.06
0.06
0.07
0.07
0.08
0.06
0.06
0.065
0.06
0.075
0.065
0.055
0.05
0.06
0.07
0.08
0.075
0.06
0.055
0.045
0.07
0.085
0.07
0.06
0.055
0.055
0.065
0.08
0.065
0.055
0.045
0.065
0.065
0.08
0.07
0.06
0.06
0.06
0.075
0.08
0.07
0.055
0.055
0.075
0.075
0.095
0.08
0.06
0.055
0.07
0.08
0.09
0.09
0.085
0.075
0.09
0.105
0.125
0.105
0.11
0.1
0.11
0.12
0.145
0.15
0.13
0.12
0.135
0.14
0.14
0.11
0.105
0.09
0.1
0.1
0.115
0.11
0.11
0.1
0.105
0.125
0.14
0.125
0.105
0.085
0.085
0.095
0.11
0.09
0.075
0.06
0.065
0.07
0.085
0.08
0.055
0.05
0.075
0.065
0.08
0.07
0.06
0.055
0.065
0.085
0.095
0.08
0.06
0.06
0.065
0.08
0.085
0.075
0.06
0.06
0.065
0.08
0.09
0.105
0.095
0.1
0.1
0.155
0.19
0.22
0.275
0.315
0.39
0.46
0.555
0.66
0.805
0.94
1.105
1.255
1.395
1.535
1.705
1.875
2.03
2.08
2.01
1.745
1.315
0.86
0.5
0.28
0.165
0.1
0.055
0.05
0.06
0.08
0.095
0.065
0.045
0.01
0.01
0.005
0.0
-0.005
-0.025
-0.035
-0.035
-0.02
-0.015
-0.015
-0.03
-0.03
-0.035
-0.015
-0.015
-0.035
-0.04
-0.05
-0.04
-0.03
-0.02
-0.035
-0.055
-0.045
-0.06
-0.045
-0.03
-0.045
-0.055
-0.075
-0.07
-0.055
-0.05
-0.06
-0.065
-0.07
-0.07
-0.055
-0.055
-0.06
-0.07
-0.08
-0.075
-0.065
-0.05
-0.055
-0.08
-0.075
-0.07
-0.06
-0.055
-0.055
-0.055
-0.065
-0.065
-0.05
-0.05
-0.05
-0.065
-0.06
-0.06
-0.03
-0.025
-0.03
-0.035
-0.05
-0.03
-0.02
0.0
0.01
-0.005
0.0
0.01
0.03
0.05
0.07
0.07
0.065
0.1
0.115
0.13
0.155
0.145
0.165
0.19
0.215
0.24
0.255
0.26
0.255
0.29
0.31
0.32
0.305
0.29
0.285
0.3
0.295
0.31
0.285
0.265
0.245
0.235
0.235
0.235
0.22
0.185
0.155
0.165
0.145
0.17
0.145
0.12
0.115
0.12
0.13
0.13
0.125
0.115
0.105
0.125
0.12
0.125
0.125
0.11
0.105
0.11
0.12
0.12
0.1
0.09
0.09
0.09
0.105
0.115
0.1
0.08
0.07
0.07
0.085
0.085
0.065
0.06
0.05
0.055
0.075
0.065
0.07
0.045
0.04
0.05
0.065
0.065
0.065
0.035
0.03
0.05
0.055
0.075
0.065
0.05
0.045
0.045
0.06
0.065
0.06
0.05
0.05
0.05
0.06
0.075
0.065
0.05
0.045
0.055
0.075
0.08
0.065
0.035
0.04
0.04
0.06
0.08
0.065
0.04
0.035
0.03
0.065
0.07
0.05
0.035
0.025
0.04
0.045
0.055
0.045
0.025
0.01
0.025
0.05
0.05
0.05
0.015
0.02
0.03
0.035
0.035
0.04
0.025
0.01
0.015
0.02
0.045
0.02
0.015
0.01
0.02
0.025
0.04
0.02
0.01
0.0
0.005
0.03
0.035
0.025
0.005
0.005
0.015
0.03
0.05
0.035
0.015
0.015
0.02
0.035
0.03
0.035
0.02
0.01
0.02
0.035
0.045
0.03
0.025
0.015
0.015
0.04
0.055
0.04
0.02
0.02
0.025
0.045
0.06
0.05
0.04
0.02
0.04
0.05
0.055
0.06
0.045
0.04
0.04
0.08
0.085
0.085
0.065
0.055
0.075
0.095
0.115
0.1
0.09
0.095
0.09
0.1
0.115
0.1
0.08
0.065
0.07
0.075
0.08
0.08
0.075
0.07
0.09
0.095
0.11
0.11
0.105
0.09
0.09
0.105
0.11
0.105
0.07
0.045
0.055
0.055
0.07
0.07
0.055
0.055
0.065
0.075
0.07
0.07
0.05
0.045
0.05
0.07
0.07
0.075
0.055
0.05
0.05
0.07
0.08
0.065
0.04
0.04
0.055
0.075
0.08
0.08
0.065
0.065
0.055
0.085
0.095
0.1
0.11
0.115
0.16
0.2
0.27
0.325
0.36
0.42
0.51
0.64
0.795
0.955
1.1
1.255
1.41
1.59
1.79
1.985
2.15
2.205
2.145
1.9
1.535
1.085
0.69
0.395
0.215
0.125
0.1
0.09
0.08
0.075
0.065
0.07
0.055
0.04
0.015
-0.015
-0.01
-0.015
0.0
-0.015
-0.045
-0.05
-0.045
-0.035
-0.03
-0.05
-0.05
-0.065
-0.05
-0.05
-0.05
-0.065
-0.065
-0.08
-0.065
-0.06
-0.065
-0.07
-0.085
-0.095
-0.095
-0.08
-0.075
-0.08
-0.1
-0.105
-0.1
-0.085
-0.08
-0.085
-0.1
-0.105
-0.095
-0.09
-0.08
-0.095
-0.1
-0.09
-0.08
-0.075
-0.07
-0.06
-0.085
-0.095
-0.08
-0.055
-0.05
-0.065
-0.08
-0.06
-0.055
-0.04
-0.025
-0.03
-0.05
-0.045
-0.03
-0.005
0.02
0.03
0.025
0.03
0.05
0.08
0.125
0.145
0.14
0.155
0.185
0.22
0.255
0.275
0.275
0.285
0.305
0.33
0.34
0.335
0.315
0.31
0.305
0.3
0.29
0.28
0.245
0.22
0.215
0.215
0.195
0.185
0.155
0.15
0.14
0.155
0.155
0.13
0.12
0.11
0.12
0.13
0.135
0.135
0.11
0.105
0.105
0.12
0.135
0.125
0.11
0.105
0.1
0.105
0.12
0.115
0.105
0.085
0.09
0.105
0.1
0.095
0.08
0.08
0.07
0.095
0.1
0.09
0.075
0.07
0.065
0.085
0.09
0.075
0.06
0.065
0.07
0.07
0.08
0.08
0.075
0.06
0.08
0.075
0.08
0.075
0.065
0.05
0.065
0.08
0.08
0.075
0.07
0.075
0.075
0.095
0.105
0.09
0.065
0.06
0.08
0.075
0.095
0.09
0.065
0.07
0.07
0.095
0.095
0.095
0.075
0.06
0.08
0.09
0.095
0.095
0.08
0.065
0.07
0.085
0.085
0.075
0.06
0.06
0.07
0.08
0.095
0.085
0.06
0.06
0.065
0.075
0.08
0.065
0.055
0.055
0.05
0.07
0.075
0.07
0.06
0.035
0.055
0.07
0.07
0.07
0.055
0.04
0.05
0.055
0.06
0.07
0.04
0.045
0.06
0.075
0.07
0.075
0.055
0.045
0.045
0.07
0.075
0.07
0.045
0.04
0.055
0.06
0.07
0.06
0.06
0.045
0.05
0.07
0.08
0.065
0.06
0.045
0.055
0.065
0.07
0.08
0.055
0.05
0.06
0.07
0.07
0.07
0.05
0.05
0.06
0.08
0.075
0.065
0.06
0.05
0.055
0.07
0.085
0.08
0.06
0.06
0.085
0.105
0.105
0.105
0.09
0.09
0.09
0.125
0.12
0.12
0.115
0.105
0.105
0.13
0.13
0.12
0.11
0.09
0.09
0.1
0.11
0.105
0.08
0.07
0.08
0.095
0.115
0.11
0.085
0.09
0.11
0.105
0.12
0.115
0.105
0.1
0.1
0.105
0.105
0.085
0.055
0.05
0.065
0.08
0.09
0.085
0.065
0.05
0.06
0.08
0.065
0.075
0.07
0.06
0.06
0.075
0.075
0.07
0.055
0.045
0.065
0.075
0.075
0.07
0.055
0.055
0.06
0.07
0.08
0.085
0.07
0.065
0.075
0.095
0.115
0.12
0.135
0.165
0.235
0.29
0.36
0.405
0.465
0.54
0.685
0.835
1.0
1.13
1.28
1.415
1.57
1.745
1.94
2.105
2.16
2.09
1.84
1.445
0.99
0.6
0.32
0.155
0.1
0.085
0.09
0.095
0.08
0.07
0.06
0.06
0.06
0.04
0.01
-0.005
0.0
0.005
0.015
-0.005
-0.005
-0.025
-0.005
0.005
0.005
-0.005
-0.03
-0.025
-0.01
0.0
0.005
0.0
-0.02
-0.03
-0.03
-0.035
-0.015
-0.03
-0.04
-0.05
-0.03
-0.02
-0.035
-0.045
-0.045
-0.055
-0.055
-0.045
-0.04
-0.05
-0.055
-0.07
-0.045
-0.045
-0.04
-0.05
-0.065
-0.065
-0.065
-0.04
-0.04
-0.04
-0.045
-0.05
-0.03
-0.035
-0.02
-0.03
-0.04
-0.05
-0.04
-0.025
-0.01
-0.025
-0.03
-0.025
-0.02
-0.01
0.0
0.005
-0.01
0.0
0.01
0.035
0.045
0.05
0.04
0.045
0.08
0.09
0.105
0.115
0.11
0.13
0.155
0.18
0.21
0.21
0.22
0.235
0.25
0.29
0.315
0.315
0.31
0.31
0.32
0.35
0.345
0.335
0.315
0.31
0.32
0.325
0.31
0.3
0.265
0.26
0.25
0.25
0.245
0.22
0.19
0.175
0.175
0.18
0.18
0.145
0.14
0.13
0.145
0.145
0.14
0.125
0.105
0.1
0.115
0.125
0.12
0.11
0.075
0.08
0.09
0.1
0.11
0.11
0.085
0.07
0.08
0.085
0.095
0.09
0.075
0.06
0.07
0.085
0.08
0.075
0.05
0.055
0.055
0.065
0.065
0.055
0.05
0.035
0.035
0.055
0.065
0.04
0.02
0.02
0.015
0.035
0.035
0.015
0.005
-0.005
0.015
0.015
0.01
0.025
0.005
0.0
0.005
0.015
0.02
0.015
0.005
0.01
0.01
0.03
0.035
0.025
0.015
0.01
0.0
0.02
0.03
0.025
-0.005
0.005
0.01
0.03
0.025
0.02
0.015
0.0
0.02
0.025
0.035
0.01
0.01
0.0
-0.005
0.005
0.01
0.0
0.0
-0.005
0.01
0.015
0.015
0.005
-0.005
-0.005
-0.005
0.01
0.02
0.0
-0.01
-0.015
-0.015
0.005
0.02
0.005
-0.01
-0.02
-0.005
-0.005
0.005
0.0
-0.01
-0.025
-0.01
-0.01
0.01
-0.005
-0.03
-0.02
-0.015
-0.005
-0.01
-0.02
-0.025
-0.04
-0.05
-0.03
-0.01
-0.015
-0.03
-0.03
-0.035
-0.01
-0.03
-0.04
-0.04
-0.045
-0.04
-0.035
-0.03
-0.05
-0.055
-0.065
-0.045
-0.04
-0.025
-0.04
-0.06
-0.06
-0.05
-0.04
-0.03
-0.035
-0.055
-0.055
-0.03
-0.035
-0.03
-0.035
-0.05
-0.05
-0.04
-0.025
-0.01
-0.015
-0.025
-0.02
-0.005
0.02
0.015
0.015
0.005
-0.005
0.025
0.03
0.035
0.01
-0.015
-0.015
-0.01
0.0
0.005
-0.015
-0.025
-0.035
-0.015
0.01
0.01
0.015
0.015
0.0
0.015
0.02
0.025
0.025
-0.01
-0.025
-0.025
-0.015
-0.02
-0.03
-0.04
-0.04
-0.03
-0.025
-0.02
-0.025
-0.04
-0.045
-0.035
-0.02
-0.015
-0.02
-0.04
-0.05
-0.04
-0.02
-0.015
-0.02
-0.025
-0.035
-0.025
-0.025
-0.01
-0.01
-0.025
-0.03
-0.01
-0.01
0.0
0.0
0.01
0.04
0.075
0.125
0.19
0.24
0.28
0.325
0.415
0.54
0.675
0.81
0.95
1.07
1.235
1.385
1.56
1.755
1.93
2.01
1.995
1.82
1.445
0.985
0.585
0.285
0.12
0.025
-0.015
-0.03
-0.04
-0.03
-0.025
-0.03
-0.025
-0.05
-0.085
-0.105
-0.1
-0.095
-0.1
-0.105
-0.125
-0.125
-0.115
-0.115
-0.12
-0.125
-0.135
-0.14
-0.13
-0.115
-0.11
-0.135
-0.155
-0.16
-0.14
-0.125
-0.13
-0.145
-0.155
-0.165
-0.165
-0.14
-0.145
-0.15
-0.17
-0.17
-0.17
-0.155
-0.15
-0.175
-0.175
-0.19
-0.175
-0.155
-0.155
-0.16
-0.175
-0.195
-0.17
-0.17
-0.165
-0.16
-0.18
-0.18
-0.17
-0.165
-0.175
-0.17
-0.185
-0.18
-0.15
-0.14
-0.135
-0.15
-0.155
-0.155
-0.155
-0.13
-0.12
-0.13
-0.14
-0.14
-0.12
-0.1
-0.1
-0.095
-0.105
-0.095
-0.08
-0.05
-0.05
-0.03
-0.035
-0.03
-0.01
0.02
0.03
0.05
0.055
0.055
0.08
0.105
0.115
0.14
0.125
0.155
0.17
0.2
0.205
0.21
0.205
0.205
0.21
0.225
0.22
0.205
0.19
0.17
0.175
0.175
0.175
0.14
0.12
0.11
0.1
0.115
0.11
0.085
0.06
0.05
0.07
0.07
0.075
0.055
0.035
0.03
0.035
0.055
0.05
0.045
0.025
0.015
0.04
0.045
0.035
0.035
0.03
0.015
0.035
0.04
0.035
0.025
0.005
-0.005
0.005
0.025
0.02
0.01
0.0
-0.005
0.0
0.005
0.01
0.005
-0.005
-0.015
-0.01
-0.005
-0.005
-0.015
-0.025
-0.035
-0.02
-0.015
-0.005
-0.01
-0.03
-0.03
-0.02
-0.02
-0.005
-0.01
-0.03
-0.045
-0.015
-0.01
0.01
-0.015
-0.03
-0.03
-0.015
0.0
-0.005
-0.005
-0.04
-0.04
-0.02
0.0
0.005
-0.005
-0.01
-0.01
-0.02
0.005
-0.01
-0.02
-0.02
-0.02
-0.015
0.0
-0.015
-0.01
-0.03
-0.03
-0.015
0.0
0.0
-0.015
-0.03
-0.025
-0.035
-0.01
0.0
-0.02
-0.035
-0.04
-0.03
-0.015
-0.02
-0.025
-0.04
-0.045
-0.035
-0.02
-0.025
-0.02
-0.04
-0.05
-0.045
-0.02
-0.02
-0.03
-0.06
-0.05
-0.03
-0.015
-0.02
-0.025
-0.04
-0.04
-0.03
-0.03
-0.015
-0.025
-0.03
-0.04
-0.03
-0.015
-0.01
-0.03
-0.035
-0.04
-0.045
-0.02
-0.02
-0.035
-0.05
-0.045
-0.03
-0.02
-0.02
-0.015
-0.035
-0.04
-0.03
-0.02
-0.015
-0.025
-0.03
-0.03
-0.025
-0.015
-0.005
-0.035
-0.03
-0.03
-0.015
-0.005
0.005
0.0
-0.015
-0.025
-0.005
-0.005
0.015
-0.01
-0.01
-0.01
0.01
0.03
0.03
0.03
0.01
0.01
0.04
0.06
0.065
0.055
0.035
0.04
0.06
0.065
0.05
0.05
0.025
0.02
0.02
0.03
0.045
0.035
0.01
0.01
0.03
0.045
0.05
0.045
0.025
0.03
0.045
0.05
0.05
0.045
0.03
0.025
0.015
0.015
0.01
0.0
0.005
-0.005
0.01
0.025
0.02
0.02
0.0
-0.005
0.01
0.03
0.01
0.025
0.005
0.01
0.0
0.02
0.03
0.01
0.005
0.0
0.0
0.03
0.04
0.02
0.015
0.015
0.02
0.04
0.04
0.035
0.035
0.035
0.055
0.08
0.105
0.125
0.155
0.2
0.275
0.345
0.4
0.46
0.535
0.68
0.82
0.99
1.135
1.28
1.405
1.535
1.705
1.92
2.095
2.195
2.17
2.07
1.82
1.46
1.065
0.68
0.395
0.21
0.095
0.065
0.07
0.045
0.035
0.025
0.05
0.035
0.025
-0.01
-0.04
-0.04
-0.055
-0.05
-0.04
-0.06
-0.07
-0.065
-0.065
-0.06
-0.065
-0.06
-0.08
-0.085
-0.09
-0.08
-0.075
-0.085
-0.105
-0.105
-0.09
-0.085
-0.085
-0.105
-0.11
-0.115
-0.105
-0.095
-0.1
-0.105
-0.125
-0.125
-0.12
-0.105
-0.11
-0.12
-0.125
-0.14
-0.11
-0.115
-0.115
-0.13
-0.13
-0.135
-0.125
-0.11
-0.105
-0.11
-0.13
-0.12
-0.12
-0.1
-0.095
-0.11
-0.11
-0.11
-0.095
-0.09
-0.08
-0.095
-0.095
-0.085
-0.07
-0.065
-0.055
-0.065
-0.075
-0.065
-0.035
-0.01
0.005
-0.005
0.005
0.005
0.04
0.085
0.09
0.1
0.1
0.135
0.16
0.195
0.22
0.23
0.245
0.265
0.285
0.315
0.315
0.295
0.275
0.265
0.275
0.27
0.26
0.23
0.2
0.185
0.185
0.18
0.17
0.155
0.145
0.12
0.135
0.125
0.125
0.11
0.09
0.075
0.1
0.11
0.095
0.1
0.085
0.085
0.09
0.095
0.095
0.085
0.075
0.085
0.09
0.1
0.1
0.08
0.075
0.075
0.09
0.1
0.095
0.085
0.07
0.065
0.07
0.075
0.075
0.075
0.065
0.055
0.06
0.07
0.075
0.055
0.04
0.035
0.045
0.055
0.065
0.065
0.035
0.04
0.05
0.065
0.08
0.05
0.055
0.05
0.055
0.065
0.065
0.05
0.05
0.05
0.055
0.07
0.065
0.06
0.06
0.05
0.06
0.08
0.075
0.07
0.065
0.075
0.08
0.085
0.09
0.075
0.065
0.065
0.08
0.08
0.095
0.07
0.06
0.055
0.07
0.085
0.08
0.065
0.055
0.05
0.075
0.07
0.07
0.055
0.045
0.06
0.05
0.075
0.07
0.05
0.05
0.045
0.05
0.065
0.06
0.055
0.05
0.05
0.05
0.055
0.06
0.045
0.025
0.025
0.035
0.05
0.035
0.045
0.04
0.04
0.035
0.045
0.055
0.04
0.02
0.03
0.04
0.04
0.05
0.045
0.03
0.03
0.035
0.055
0.045
0.035
0.02
0.02
0.035
0.055
0.05
0.04
0.025
0.035
0.045
0.06
0.055
0.045
0.03
0.015
0.03
0.05
0.045
0.04
0.035
0.025
0.04
0.05
0.055
0.045
0.03
0.03
0.05
0.065
0.065
0.05
0.055
0.055
0.07
0.075
0.08
0.075
0.075
0.09
0.105
0.105
0.1
0.08
0.065
0.075
0.075
0.085
0.07
0.06
0.05
0.045
0.045
0.06
0.07
0.065
0.065
0.06
0.08
0.095
0.09
0.085
0.07
0.055
0.06
0.065
0.055
0.04
0.01
0.01
0.025
0.035
0.045
0.04
0.02
0.015
0.015
0.035
0.04
0.035
0.02
0.02
0.03
0.055
0.035
0.03
0.015
0.02
0.03
0.045
0.04
0.025
0.015
0.025
0.03
0.05
0.04
0.055
0.045
0.055
0.075
0.115
0.12
0.145
0.175
0.24
0.305
0.39
0.44
0.53
0.635
0.77
0.94
1.095
1.245
1.375
1.525
1.7
1.92
2.06
2.065
1.885
1.535
1.08
0.675
0.39
0.205
0.1
0.05
0.05
0.055
0.065
0.06
0.04
0.005
-0.01
-0.02
-0.03
-0.02
-0.045
-0.055
-0.06
-0.05
-0.045
-0.045
-0.05
-0.065
-0.065
-0.06
-0.045
-0.055
-0.055
-0.075
-0.085
-0.075
-0.055
-0.07
-0.08
-0.1
-0.085
-0.075
-0.07
-0.075
-0.085
-0.1
-0.1
-0.085
-0.095
-0.095
-0.105
-0.11
-0.095
-0.085
-0.075
-0.08
-0.1
-0.1
-0.1
-0.085
-0.08
-0.09
-0.105
-0.11
-0.115
-0.105
-0.075
-0.085
-0.085
-0.105
-0.105
-0.085
-0.075
-0.085
-0.085
-0.09
-0.09
-0.075
-0.055
-0.06
-0.065
-0.07
-0.065
-0.03
-0.015
0.01
-0.015
-0.02
-0.01
0.03
0.06
0.065
0.085
0.08
0.105
0.135
0.165
0.18
0.2
0.19
0.215
0.24
0.26
0.275
0.265
0.255
0.255
0.25
0.28
0.275
0.24
0.21
0.195
0.2
0.195
0.18
0.165
0.13
0.14
0.13
0.14
0.13
0.105
0.095
0.085
0.085
0.095
0.1
0.09
0.08
0.075
0.09
0.095
0.1
0.085
0.06
0.06
0.07
0.07
0.075
0.055
0.055
0.05
0.065
0.07
0.07
0.07
0.05
0.045
0.045
0.055
0.045
0.035
0.035
0.03
0.035
0.045
0.03
0.025
0.01
0.01
0.015
0.03
0.03
0.02
0.015
0.01
0.01
0.025
0.03
0.02
0.01
0.015
0.025
0.03
0.035
0.02
0.015
0.01
0.02
0.035
0.025
0.015
0.015
0.01
0.025
0.03
0.03
0.02
0.005
0.005
0.02
0.025
0.025
0.015
0.015
0.01
0.02
0.025
0.025
0.02
0.005
0.01
0.025
0.025
0.03
0.02
0.01
0.01
0.03
0.03
0.02
0.02
0.005
0.0
0.015
0.03
0.025
0.025
0.01
0.015
0.0
0.025
0.025
0.01
0.0
0.005
0.02
0.03
0.025
0.01
-0.01
-0.01
0.005
0.03
0.02
0.025
0.0
0.005
0.005
0.025
0.015
0.015
-0.005
0.005
0.015
0.02
0.015
0.015
-0.01
0.0
0.02
0.035
0.02
0.01
0.005
0.01
0.025
0.025
0.03
0.02
0.01
0.005
0.02
0.03
0.025
0.015
0.015
0.01
0.015
0.04
0.045
0.03
0.015
0.02
0.05
0.065
0.075
0.045
0.045
0.05
0.075
0.095
0.095
0.085
0.07
0.07
0.08
0.095
0.085
0.065
0.035
0.04
0.045
0.065
0.06
0.045
0.035
0.05
0.065
0.08
0.075
0.065
0.065
0.06
0.075
0.08
0.065
0.045
0.025
0.015
0.025
0.045
0.055
0.035
0.025
0.03
0.04
0.055
0.04
0.03
0.02
0.025
0.035
0.055
0.05
0.035
0.02
0.02
0.02
0.045
0.035
0.04
0.02
0.03
0.04
0.035
0.05
0.055
0.05
0.06
0.115
0.135
0.185
0.21
0.245
0.315
0.37
0.45
0.55
0.675
0.815
0.975
1.145
1.31
1.455
1.6
1.78
1.995
2.165
2.225
2.09
1.775
1.35
0.91
0.58
0.355
0.185
0.095
0.065
0.07
0.075
0.085
0.07
0.055
0.025
-0.005
-0.015
-0.01
-0.01
-0.035
-0.045
-0.05
-0.04
-0.025
-0.04
-0.055
-0.06
-0.06
-0.055
-0.045
-0.065
-0.065
-0.075
-0.075
-0.065
-0.055
-0.07
-0.075
-0.09
-0.095
-0.09
-0.085
-0.09
-0.09
-0.095
-0.1
-0.09
-0.09
-0.075
-0.095
-0.095
-0.1
-0.095
-0.075
-0.075
-0.085
-0.1
-0.105
-0.085
-0.075
-0.075
-0.085
-0.095
-0.085
-0.075
-0.065
