Lead II
-0.33
-0.325
-0.305
-0.315
-0.33
-0.325
-0.33
-0.33
-0.32
-0.32
-0.325
-0.335
-0.32
-0.325
-0.32
-0.32
-0.335
-0.35
-0.325
-0.325
-0.315
-0.33
-0.345
-0.36
-0.35
-0.335
-0.335
-0.35
-0.36
-0.365
-0.36
-0.36
-0.355
-0.36
-0.37
-0.385
-0.395
-0.385
-0.37
-0.38
-0.385
-0.405
-0.4
-0.39
-0.39
-0.395
-0.405
-0.415
-0.41
-0.405
-0.4
-0.4
-0.41
-0.42
-0.43
-0.425
-0.415
-0.41
-0.42
-0.435
-0.43
-0.42
-0.42
-0.415
-0.425
-0.42
-0.415
-0.4
-0.39
-0.375
-0.375
-0.36
-0.355
-0.345
-0.34
-0.34
-0.335
-0.345
-0.335
-0.335
-0.33
-0.325
-0.32
-0.315
-0.31
-0.31
-0.31
-0.325
-0.345
-0.365
-0.38
-0.375
-0.36
-0.35
-0.345
-0.355
-0.36
-0.375
-0.375
-0.405
-0.42
-0.42
-0.435
-0.435
-0.445
-0.44
-0.455
-0.48
-0.495
-0.475
-0.47
-0.48
-0.485
-0.495
-0.5
-0.495
-0.485
-0.495
-0.495
-0.515
-0.5
-0.485
-0.485
-0.49
-0.495
-0.51
-0.49
-0.495
-0.505
-0.525
-0.6
-0.68
-0.72
-0.68
-0.615
-0.52
-0.365
-0.09
0.29
0.725
1.11
1.445
1.66
1.735
1.64
1.36
0.835
0.225
-0.3
-0.585
-0.655
-0.635
-0.58
-0.49
-0.41
-0.385
-0.415
-0.435
-0.455
-0.465
-0.465
-0.485
-0.5
-0.51
-0.5
-0.51
-0.535
-0.545
-0.54
-0.54
-0.53
-0.535
-0.545
-0.555
-0.545
-0.55
-0.535
-0.54
-0.545
-0.555
-0.555
-0.545
-0.535
-0.53
-0.545
-0.56
-0.55
-0.54
-0.535
-0.53
-0.535
-0.53
-0.525
-0.525
-0.51
-0.505
-0.51
-0.515
-0.5
-0.49
-0.47
-0.465
-0.465
-0.47
-0.455
-0.45
-0.42
-0.41
-0.42
-0.41
-0.385
-0.355
-0.345
-0.345
-0.335
-0.32
-0.3
-0.275
-0.265
-0.24
-0.235
-0.215
-0.19
-0.17
-0.155
-0.145
-0.135
-0.13
-0.1
-0.09
-0.075
-0.07
-0.075
-0.085
-0.055
-0.04
-0.03
-0.03
-0.035
-0.035
-0.04
-0.045
-0.05
-0.055
-0.09
-0.105
-0.11
-0.115
-0.12
-0.145
-0.18
-0.21
-0.23
-0.24
-0.27
-0.285
-0.31
-0.34
-0.34
-0.34
-0.34
-0.35
-0.385
-0.39
-0.385
-0.39
-0.395
-0.385
-0.4
-0.405
-0.4
-0.39
-0.395
-0.395
-0.4
-0.41
-0.41
-0.395
-0.39
-0.4
-0.395
-0.41
-0.4
-0.385
-0.385
-0.38
-0.39
-0.39
-0.385
-0.38
-0.36
-0.355
-0.375
-0.39
-0.37
-0.36
-0.36
-0.36
-0.375
-0.375
-0.375
-0.365
-0.365
-0.365
-0.365
-0.37
-0.37
-0.36
-0.345
-0.365
-0.37
-0.365
-0.375
-0.37
-0.36
-0.37
-0.365
-0.39
-0.385
-0.375
-0.37
-0.375
-0.375
-0.4
-0.395
-0.385
-0.38
-0.38
-0.385
-0.4
-0.405
-0.39
-0.385
-0.405
-0.425
-0.415
-0.425
-0.415
-0.415
-0.415
-0.435
-0.43
-0.425
-0.415
-0.42
-0.42
-0.445
-0.45
-0.44
-0.445
-0.435
-0.435
-0.44
-0.45
-0.435
-0.44
-0.435
-0.435
-0.445
-0.465
-0.45
-0.46
-0.455
-0.45
-0.46
-0.465
-0.475
-0.46
-0.45
-0.445
-0.44
-0.445
-0.435
-0.41
-0.39
-0.38
-0.385
-0.4
-0.385
-0.38
-0.36
-0.355
-0.355
-0.365
-0.36
-0.36
-0.355
-0.345
-0.35
-0.37
-0.36
-0.37
-0.375
-0.395
-0.425
-0.42
-0.4
-0.38
-0.365
-0.39
-0.395
-0.44
-0.435
-0.44
-0.44
-0.465
-0.475
-0.495
-0.5
-0.49
-0.49
-0.485
-0.51
-0.52
-0.505
-0.5
-0.495
-0.505
-0.505
-0.515
-0.525
-0.505
-0.5
-0.5
-0.505
-0.505
-0.505
-0.495
-0.5
-0.51
-0.52
-0.535
-0.575
-0.615
-0.67
-0.675
-0.65
-0.6
-0.505
-0.335
-0.04
0.33
0.705
1.025
1.335
1.555
1.665
1.605
1.32
0.8
0.21
-0.29
-0.57
-0.67
-0.675
-0.64
-0.52
-0.445
-0.41
-0.445
-0.48
-0.495
-0.495
-0.49
-0.485
-0.505
-0.53
-0.555
-0.545
-0.535
-0.535
-0.545
-0.555
-0.57
-0.555
-0.55
-0.55
-0.555
-0.55
-0.57
-0.565
-0.555
-0.545
-0.55
-0.56
-0.55
-0.545
-0.545
-0.53
-0.535
-0.535
-0.545
-0.54
-0.53
-0.535
-0.52
-0.52
-0.525
-0.515
-0.505
-0.49
-0.485
-0.495
-0.495
-0.48
-0.465
-0.46
-0.44
-0.44
-0.44
-0.42
-0.405
-0.385
-0.375
-0.355
-0.36
-0.335
-0.31
-0.285
-0.28
-0.265
-0.26
-0.21
-0.21
-0.175
-0.165
-0.155
-0.15
-0.13
-0.12
-0.095
-0.095
-0.09
-0.09
-0.075
-0.08
-0.055
-0.06
-0.05
-0.06
-0.07
-0.06
-0.06
-0.055
-0.085
-0.1
-0.125
-0.13
-0.13
-0.16
-0.185
-0.21
-0.23
-0.245
-0.255
-0.275
-0.3
-0.335
-0.345
-0.355
-0.365
-0.365
-0.38
-0.41
-0.405
-0.415
-0.405
-0.4
-0.415
-0.425
-0.42
-0.415
-0.415
-0.41
-0.43
-0.435
-0.435
-0.415
-0.41
-0.405
-0.405
-0.425
-0.425
-0.4
-0.4
-0.395
-0.395
-0.41
-0.405
-0.4
-0.375
-0.38
-0.395
-0.4
-0.395
-0.38
-0.375
-0.375
-0.37
-0.39
-0.375
-0.365
-0.36
-0.365
-0.37
-0.375
-0.38
-0.355
-0.355
-0.355
-0.375
-0.38
-0.385
-0.365
-0.365
-0.37
-0.375
-0.39
-0.385
-0.38
-0.365
-0.385
-0.385
-0.395
-0.395
-0.39
-0.385
-0.385
-0.395
-0.41
-0.42
-0.42
-0.405
-0.405
-0.42
-0.43
-0.435
-0.425
-0.42
-0.43
-0.44
-0.455
-0.455
-0.45
-0.445
-0.445
-0.44
-0.455
-0.465
-0.45
-0.45
-0.46
-0.46
-0.47
-0.48
-0.46
-0.445
-0.455
-0.47
-0.485
-0.485
-0.475
-0.46
-0.47
-0.47
-0.475
-0.47
-0.475
-0.465
-0.475
-0.475
-0.475
-0.455
-0.455
-0.445
-0.43
-0.425
-0.425
-0.4
-0.4
-0.385
-0.39
-0.385
-0.39
-0.385
-0.36
-0.35
-0.36
-0.365
-0.37
-0.36
-0.345
-0.34
-0.345
-0.36
-0.395
-0.41
-0.4
-0.405
-0.405
-0.395
-0.395
-0.395
-0.405
-0.41
-0.43
-0.44
-0.47
-0.46
-0.46
-0.475
-0.475
-0.49
-0.51
-0.51
-0.515
-0.505
-0.515
-0.525
-0.53
-0.52
-0.52
-0.505
-0.525
-0.535
-0.54
-0.55
-0.53
-0.52
-0.525
-0.54
-0.545
-0.525
-0.525
-0.515
-0.52
-0.535
-0.575
-0.61
-0.67
-0.705
-0.705
-0.655
-0.595
-0.455
-0.205
0.17
0.595
0.985
1.33
1.585
1.705
1.63
1.28
0.695
0.06
-0.42
-0.635
-0.67
-0.63
-0.58
-0.51
-0.445
-0.425
-0.46
-0.48
-0.5
-0.515
-0.51
-0.51
-0.52
-0.54
-0.55
-0.565
-0.57
-0.565
-0.555
-0.57
-0.575
-0.575
-0.57
-0.57
-0.56
-0.565
-0.575
-0.585
-0.57
-0.565
-0.56
-0.56
-0.56
-0.565
-0.575
-0.565
-0.565
-0.57
-0.565
-0.565
-0.56
-0.545
-0.54
-0.545
-0.54
-0.55
-0.535
-0.52
-0.51
-0.5
-0.495
-0.505
-0.495
-0.485
-0.47
-0.455
-0.445
-0.44
-0.435
-0.4
-0.39
-0.365
-0.36
-0.355
-0.335
-0.305
-0.295
-0.265
-0.255
-0.245
-0.235
-0.21
-0.185
-0.175
-0.175
-0.17
-0.15
-0.14
-0.11
-0.095
-0.095
-0.095
-0.075
-0.07
-0.05
-0.04
-0.045
-0.05
-0.05
-0.055
-0.055
-0.065
-0.075
-0.095
-0.115
-0.115
-0.12
-0.145
-0.17
-0.2
-0.22
-0.235
-0.25
-0.275
-0.285
-0.315
-0.335
-0.34
-0.35
-0.365
-0.385
-0.405
-0.415
-0.405
-0.395
-0.405
-0.41
-0.435
-0.425
-0.425
-0.42
-0.42
-0.425
-0.445
-0.435
-0.42
-0.405
-0.415
-0.415
-0.425
-0.42
-0.41
-0.395
-0.4
-0.41
-0.415
-0.41
-0.405
-0.395
-0.39
-0.4
-0.4
-0.395
-0.385
-0.365
-0.37
-0.365
-0.38
-0.37
-0.365
-0.365
-0.36
-0.36
-0.37
-0.36
-0.36
-0.345
-0.355
-0.365
-0.38
-0.37
-0.37
-0.36
-0.37
-0.365
-0.38
-0.38
-0.37
-0.365
-0.375
-0.38
-0.4
-0.395
-0.39
-0.385
-0.39
-0.41
-0.415
-0.42
-0.405
-0.4
-0.405
-0.42
-0.42
-0.435
-0.425
-0.42
-0.425
-0.425
-0.435
-0.44
-0.445
-0.43
-0.43
-0.44
-0.45
-0.45
-0.45
-0.45
-0.46
-0.455
-0.465
-0.455
-0.455
-0.455
-0.45
-0.46
-0.47
-0.465
-0.455
-0.45
-0.45
-0.465
-0.46
-0.455
-0.455
-0.46
-0.465
-0.475
-0.47
-0.47
-0.45
-0.45
-0.44
-0.45
-0.455
-0.45
-0.425
-0.395
-0.4
-0.395
-0.4
-0.395
-0.375
-0.375
-0.36
-0.36
-0.37
-0.36
-0.36
-0.355
-0.35
-0.355
-0.36
-0.37
-0.37
-0.375
-0.395
-0.41
-0.43
-0.41
-0.385
-0.38
-0.38
-0.39
-0.41
-0.425
-0.435
-0.435
-0.45
-0.455
-0.475
-0.47
-0.47
-0.475
-0.48
-0.505
-0.52
-0.515
-0.52
-0.5
-0.505
-0.52
-0.535
-0.51
-0.505
-0.5
-0.5
-0.5
-0.51
-0.505
-0.495
-0.49
-0.485
-0.495
-0.505
-0.5
-0.5
-0.49
-0.51
-0.535
-0.6
-0.66
-0.68
-0.64
-0.59
-0.52
-0.405
-0.155
0.195
0.58
0.94
1.265
1.515
1.66
1.67
1.47
1.02
0.435
-0.09
-0.435
-0.58
-0.615
-0.6
-0.55
-0.47
-0.4
-0.38
-0.4
-0.425
-0.45
-0.47
-0.465
-0.46
-0.445
-0.46
-0.475
-0.505
-0.51
-0.505
-0.505
-0.51
-0.525
-0.53
-0.515
-0.52
-0.505
-0.51
-0.52
-0.515
-0.52
-0.52
-0.515
-0.505
-0.51
-0.52
-0.515
-0.495
-0.485
-0.495
-0.505
-0.515
-0.505
-0.485
-0.49
-0.475
-0.49
-0.5
-0.49
-0.465
-0.465
-0.465
-0.46
-0.455
-0.455
-0.435
-0.43
-0.42
-0.415
-0.425
-0.405
-0.395
-0.38
-0.365
-0.36
-0.37
-0.35
-0.32
-0.29
-0.29
-0.285
-0.28
-0.245
-0.225
-0.21
-0.195
-0.175
-0.175
-0.165
-0.145
-0.13
-0.12
-0.115
-0.115
-0.095
-0.07
-0.055
-0.05
-0.04
-0.05
-0.04
-0.015
-0.005
0.01
0.0
-0.02
0.0
0.005
0.01
0.01
-0.01
-0.03
-0.03
-0.035
-0.035
-0.05
-0.075
-0.105
-0.13
-0.125
-0.135
-0.155
-0.185
-0.21
-0.215
-0.235
-0.245
-0.26
-0.275
-0.295
-0.295
-0.305
-0.29
-0.295
-0.305
-0.325
-0.32
-0.32
-0.32
-0.315
-0.33
-0.34
-0.335
-0.335
-0.32
-0.31
-0.32
-0.335
-0.325
-0.32
-0.305
-0.315
-0.31
-0.325
-0.315
-0.305
-0.305
-0.305
-0.32
-0.315
-0.315
-0.295
-0.285
-0.28
-0.29
-0.295
-0.285
-0.285
-0.29
-0.28
-0.275
-0.28
-0.275
-0.275
-0.26
-0.255
-0.255
-0.27
-0.28
-0.265
-0.265
-0.26
-0.26
-0.275
-0.28
-0.27
-0.26
-0.265
-0.265
-0.27
-0.275
-0.27
-0.265
-0.265
-0.29
-0.3
-0.3
-0.29
-0.29
-0.285
-0.3
-0.315
-0.305
-0.305
-0.295
-0.3
-0.32
-0.33
-0.33
-0.325
-0.325
-0.32
-0.325
-0.33
-0.33
-0.325
-0.31
-0.33
-0.335
-0.345
-0.345
-0.335
-0.33
-0.345
-0.345
-0.36
-0.365
-0.345
-0.345
-0.34
-0.355
-0.36
-0.355
-0.345
-0.335
-0.35
-0.345
-0.36
-0.355
-0.355
-0.35
-0.35
-0.345
-0.36
-0.365
-0.345
-0.325
-0.32
-0.305
-0.305
-0.29
-0.275
-0.265
-0.26
-0.275
-0.275
-0.265
-0.24
-0.235
-0.23
-0.24
-0.25
-0.245
-0.24
-0.235
-0.235
-0.255
-0.265
-0.275
-0.285
-0.29
-0.285
-0.295
-0.285
-0.27
-0.26
-0.265
-0.285
-0.3
-0.335
-0.325
-0.335
-0.335
-0.335
-0.35
-0.365
-0.37
-0.36
-0.365
-0.38
-0.39
-0.4
-0.4
-0.385
-0.385
-0.38
-0.385
-0.405
-0.405
-0.39
-0.39
-0.385
-0.385
-0.39
-0.4
-0.39
-0.39
-0.38
-0.39
-0.41
-0.415
-0.44
-0.475
-0.55
-0.585
-0.565
-0.485
-0.41
-0.285
-0.065
0.255
0.615
0.98
1.315
1.6
1.78
1.82
1.745
1.515
1.08
0.565
0.075
-0.275
-0.475
-0.515
-0.515
-0.47
-0.395
-0.315
-0.29
-0.32
-0.33
-0.345
-0.36
-0.355
-0.375
-0.37
-0.385
-0.395
-0.405
-0.425
-0.43
-0.43
-0.42
-0.425
-0.425
-0.43
-0.44
-0.45
-0.435
-0.43
-0.42
-0.44
-0.455
-0.445
-0.44
-0.42
-0.43
-0.425
-0.445
-0.44
-0.425
-0.415
-0.42
-0.41
-0.43
-0.43
-0.41
-0.405
-0.405
-0.41
-0.4
-0.42
-0.39
-0.385
-0.39
-0.39
-0.4
-0.38
-0.365
-0.36
-0.345
-0.355
-0.35
-0.35
-0.32
-0.305
-0.305
-0.295
-0.305
-0.285
-0.26
-0.23
-0.23
-0.225
-0.225
-0.19
-0.175
-0.15
-0.14
-0.13
-0.125
-0.115
-0.08
-0.06
-0.05
-0.035
-0.04
-0.02
-0.015
0.005
0.02
0.025
0.03
0.045
0.05
0.075
0.075
0.085
0.065
0.065
0.08
0.085
0.08
0.07
0.035
0.045
0.035
0.02
-0.005
-0.025
-0.055
-0.065
-0.075
-0.08
-0.11
-0.135
-0.165
-0.18
-0.2
-0.21
-0.215
-0.225
-0.255
-0.27
-0.26
-0.26
-0.27
-0.285
-0.31
-0.305
-0.3
-0.295
-0.305
-0.3
-0.315
-0.315
-0.305
-0.3
-0.3
-0.31
-0.32
-0.31
-0.305
-0.295
-0.295
-0.305
-0.31
-0.305
-0.295
-0.29
-0.29
-0.295
-0.3
-0.29
-0.28
-0.265
-0.27
-0.28
-0.28
-0.28
-0.275
-0.26
-0.265
-0.265
-0.27
-0.265
-0.27
-0.255
-0.27
-0.255
-0.26
-0.255
-0.255
-0.25
-0.25
-0.255
-0.27
-0.275
-0.265
-0.26
-0.265
-0.265
-0.275
-0.285
-0.285
-0.28
-0.28
-0.29
-0.295
-0.3
-0.295
-0.29
-0.29
-0.295
-0.325
-0.315
-0.325
-0.305
-0.315
-0.325
-0.34
-0.34
-0.335
-0.325
-0.33
-0.35
-0.36
-0.355
-0.35
-0.345
-0.345
-0.35
-0.365
-0.36
-0.365
-0.355
-0.36
-0.37
-0.375
-0.37
-0.37
-0.355
-0.36
-0.365
-0.38
-0.385
-0.375
-0.38
-0.37
-0.375
-0.39
-0.385
-0.375
-0.37
-0.37
-0.38
-0.4
-0.385
-0.375
-0.375
-0.37
-0.375
-0.37
-0.35
-0.345
-0.325
-0.31
-0.315
-0.305
-0.315
-0.295
-0.275
-0.27
-0.275
-0.28
-0.28
-0.275
-0.275
-0.27
-0.265
-0.28
-0.285
-0.295
-0.295
-0.31
-0.32
-0.335
-0.33
-0.3
-0.29
-0.3
-0.32
-0.335
-0.345
-0.365
-0.36
-0.355
-0.375
-0.395
-0.395
-0.41
-0.395
-0.405
-0.425
-0.44
-0.44
-0.435
-0.435
-0.44
-0.45
-0.455
-0.45
-0.44
-0.435
-0.44
-0.445
-0.46
-0.45
-0.445
-0.44
-0.435
-0.44
-0.465
-0.46
-0.455
-0.44
-0.435
-0.455
-0.495
-0.5
-0.555
-0.605
-0.655
-0.62
-0.565
-0.5
-0.385
-0.175
0.12
0.475
0.795
1.12
1.41
1.655
1.79
1.8
1.645
1.265
0.72
0.185
-0.235
-0.47
-0.57
-0.575
-0.55
-0.48
-0.405
-0.345
-0.365
-0.385
-0.41
-0.41
-0.41
-0.42
-0.44
-0.445
-0.455
-0.45
-0.47
-0.49
-0.495
-0.495
-0.49
-0.49
-0.5
-0.505
-0.505
-0.51
-0.495
-0.495
-0.505
-0.505
-0.515
-0.52
-0.495
-0.495
-0.49
-0.49
-0.52
-0.51
-0.505
-0.495
-0.48
-0.49
-0.5
-0.49
-0.48
-0.47
-0.465
-0.475
-0.475
-0.465
-0.465
-0.455
-0.44
-0.44
-0.455
-0.45
-0.42
-0.41
-0.405
-0.415
-0.42
-0.41
-0.395
-0.37
-0.36
-0.35
-0.35
-0.33
-0.31
-0.285
-0.27
-0.27
-0.25
-0.245
-0.205
-0.19
-0.175
-0.155
-0.15
-0.13
-0.115
-0.095
-0.08
-0.075
-0.075
-0.05
-0.04
-0.015
-0.02
-0.015
-0.02
0.0
0.005
0.03
0.03
0.035
0.015
0.005
0.02
0.005
0.01
-0.01
-0.04
-0.04
-0.06
-0.075
-0.1
-0.135
-0.17
-0.18
-0.185
-0.19
-0.215
-0.25
-0.27
-0.285
-0.29
-0.305
-0.315
-0.335
-0.355
-0.345
-0.36
-0.35
-0.36
-0.375
-0.39
-0.395
-0.39
-0.385
-0.365
-0.365
-0.385
-0.385
-0.37
-0.355
-0.365
-0.37
-0.38
-0.365
-0.355
-0.345
-0.35
-0.345
-0.365
-0.355
-0.35
-0.34
-0.34
-0.335
-0.34
-0.34
-0.33
-0.33
-0.315
-0.335
-0.34
-0.345
-0.33
-0.31
-0.32
-0.33
-0.345
-0.34
-0.34
-0.325
-0.33
-0.335
-0.345
-0.345
-0.335
-0.33
-0.34
-0.345
-0.355
-0.36
-0.35
-0.35
-0.36
-0.37
-0.375
-0.38
-0.38
-0.36
-0.37
-0.385
-0.395
-0.4
-0.39
-0.39
-0.4
-0.415
-0.41
-0.41
-0.405
-0.4
-0.405
-0.415
-0.425
-0.42
-0.425
-0.415
-0.415
-0.43
-0.43
-0.435
-0.43
-0.425
-0.415
-0.43
-0.44
-0.44
-0.435
-0.42
-0.415
-0.43
-0.45
-0.435
-0.435
-0.415
-0.425
-0.43
-0.445
-0.445
-0.435
-0.44
-0.43
-0.435
-0.45
-0.435
-0.41
-0.4
-0.38
-0.375
-0.375
-0.36
-0.35
-0.335
-0.335
-0.355
-0.35
-0.33
-0.335
-0.325
-0.335
-0.34
-0.34
-0.33
-0.33
-0.325
-0.35
-0.385
-0.4
-0.405
-0.375
-0.35
-0.35
-0.35
-0.375
-0.385
-0.39
-0.4
-0.405
-0.43
-0.44
-0.435
-0.44
-0.45
-0.46
-0.47
-0.485
-0.49
-0.485
-0.49
-0.475
-0.5
-0.5
-0.5
-0.495
-0.48
-0.48
-0.485
-0.5
-0.505
-0.485
-0.49
-0.5
-0.495
-0.51
-0.495
-0.49
-0.48
-0.5
-0.5
-0.52
-0.56
-0.625
-0.66
-0.63
-0.57
-0.505
-0.35
-0.07
0.295
0.67
1.03
1.335
1.575
1.69
1.66
1.38
0.875
0.275
-0.225
-0.525
-0.635
-0.65
-0.62
-0.545
-0.465
-0.405
-0.415
-0.45
-0.48
-0.48
-0.48
-0.46
-0.47
-0.475
-0.505
-0.52
-0.515
-0.525
-0.52
-0.53
-0.55
-0.545
-0.54
-0.535
-0.52
-0.525
-0.53
-0.545
-0.55
-0.535
-0.52
-0.525
-0.52
-0.54
-0.54
-0.54
-0.52
-0.52
-0.525
-0.525
-0.525
-0.505
-0.495
-0.495
-0.515
-0.515
-0.515
-0.5
-0.49
-0.475
-0.485
-0.48
-0.475
-0.46
-0.44
-0.445
-0.43
-0.425
-0.41
-0.39
-0.36
-0.345
-0.345
-0.355
-0.335
-0.305
-0.275
-0.27
-0.25
-0.255
-0.24
-0.22
-0.185
-0.175
-0.17
-0.16
-0.15
-0.15
-0.105
-0.105
-0.11
-0.105
-0.095
-0.065
-0.06
-0.05
-0.045
-0.06
-0.05
-0.045
-0.045
-0.045
-0.055
-0.08
-0.08
-0.075
-0.085
-0.11
-0.14
-0.175
-0.185
-0.2
-0.22
-0.24
-0.265
-0.3
-0.315
-0.315
-0.33
-0.33
-0.345
-0.365
-0.365
-0.37
-0.375
-0.365
-0.385
-0.385
-0.4
-0.38
-0.36
-0.385
-0.385
-0.395
-0.395
-0.38
-0.375
-0.38
-0.395
-0.4
-0.395
-0.38
-0.375
-0.36
-0.375
-0.38
-0.38
-0.365
-0.35
-0.35
-0.355
-0.35
-0.355
-0.345
-0.35
-0.325
-0.35
-0.345
-0.355
-0.325
-0.32
-0.335
-0.33
-0.345
-0.335
-0.32
-0.325
-0.325
-0.34
-0.35
-0.345
-0.345
-0.33
-0.335
-0.36
-0.36
-0.365
-0.355
-0.355
-0.36
-0.38
-0.38
-0.375
-0.385
-0.37
-0.385
-0.395
-0.405
-0.405
-0.405
-0.39
-0.395
-0.41
-0.425
-0.415
-0.415
-0.415
-0.415
-0.435
-0.425
-0.435
-0.415
-0.415
-0.425
-0.425
-0.445
-0.435
-0.435
-0.42
-0.43
-0.42
-0.44
-0.445
-0.425
-0.425
-0.42
-0.43
-0.45
-0.44
-0.435
-0.42
-0.425
-0.44
-0.45
-0.445
-0.425
-0.405
-0.395
-0.395
-0.4
-0.37
-0.355
-0.345
-0.35
-0.355
-0.36
-0.34
-0.33
-0.32
-0.31
-0.335
-0.34
-0.33
-0.325
-0.32
-0.32
-0.35
-0.37
-0.375
-0.375
-0.365
-0.36
-0.35
-0.355
-0.345
-0.355
-0.365
-0.385
-0.405
-0.43
-0.425
-0.435
-0.44
-0.425
-0.455
-0.47
-0.46
-0.455
-0.46
-0.465
-0.47
-0.48
-0.475
-0.475
-0.47
-0.475
-0.485
-0.49
-0.485
-0.47
-0.46
-0.45
-0.46
-0.47
-0.47
-0.47
-0.465
-0.47
-0.5
-0.555
-0.625
-0.64
-0.615
-0.545
-0.475
-0.345
-0.045
0.335
0.775
1.17
1.49
1.705
1.755
1.605
1.18
0.575
-0.025
-0.43
-0.605
-0.615
-0.555
-0.485
-0.41
-0.37
-0.37
-0.4
-0.415
-0.415
-0.435
-0.45
-0.45
-0.45
-0.46
-0.47
-0.475
-0.495
-0.495
-0.495
-0.495
-0.495
-0.49
-0.51
-0.505
-0.505
-0.495
-0.49
-0.485
-0.505
-0.49
-0.49
-0.48
-0.485
-0.495
-0.49
-0.49
-0.485
-0.475
-0.465
-0.465
-0.48
-0.47
-0.46
-0.44
-0.445
-0.45
-0.45
-0.45
-0.425
-0.415
-0.405
-0.4
-0.405
-0.395
-0.375
-0.36
-0.355
-0.35
-0.37
-0.335
-0.31
-0.295
-0.275
-0.27
-0.25
-0.25
-0.215
-0.19
-0.175
-0.165
-0.16
-0.13
-0.11
-0.085
-0.075
-0.075
-0.065
-0.055
-0.035
-0.015
0.0
-0.01
0.0
0.005
0.02
0.03
0.04
0.04
0.025
0.03
0.045
0.03
0.03
0.01
-0.02
-0.035
-0.035
-0.04
-0.07
-0.1
-0.13
-0.155
-0.155
-0.175
-0.19
-0.215
-0.255
-0.26
-0.27
-0.265
-0.28
-0.3
-0.32
-0.32
-0.31
-0.3
-0.305
-0.32
-0.34
-0.345
-0.32
-0.32
-0.315
-0.33
-0.345
-0.33
-0.32
-0.31
-0.315
-0.32
-0.33
-0.335
-0.325
-0.305
-0.31
-0.31
-0.32
-0.31
-0.3
-0.29
-0.295
-0.3
-0.3
-0.3
-0.285
-0.275
-0.285
-0.285
-0.295
-0.29
-0.28
-0.28
-0.27
-0.285
-0.3
-0.29
-0.275
-0.265
-0.275
-0.285
-0.295
-0.295
-0.29
-0.285
-0.28
-0.295
-0.305
-0.315
-0.3
-0.305
-0.295
-0.31
-0.315
-0.32
-0.315
-0.295
-0.32
-0.32
-0.325
-0.325
-0.325
-0.32
-0.32
-0.32
-0.34
-0.34
-0.35
-0.34
-0.34
-0.35
-0.36
-0.355
-0.345
-0.35
-0.355
-0.375
-0.385
-0.38
-0.365
-0.365
-0.37
-0.385
-0.4
-0.39
-0.385
-0.385
-0.38
-0.395
-0.4
-0.395
-0.38
-0.375
-0.385
-0.385
-0.39
-0.4
-0.385
-0.385
-0.385
-0.39
-0.405
-0.395
-0.395
-0.375
-0.38
-0.375
-0.37
-0.35
-0.325
-0.31
-0.31
-0.315
-0.325
-0.32
-0.315
-0.295
-0.295
-0.305
-0.305
-0.3
-0.285
-0.28
-0.275
-0.29
-0.305
-0.305
-0.305
-0.315
-0.325
-0.34
-0.345
-0.325
-0.32
-0.315
-0.325
-0.345
-0.365
-0.36
-0.37
-0.375
-0.39
-0.4
-0.425
-0.43
-0.425
-0.42
-0.425
-0.445
-0.45
-0.445
-0.445
-0.435
-0.435
-0.44
-0.465
-0.465
-0.455
-0.445
-0.445
-0.455
-0.46
-0.46
-0.45
-0.435
-0.455
-0.45
-0.465
-0.465
-0.475
-0.515
-0.595
-0.64
-0.65
-0.585
-0.52
-0.4
-0.215
0.085
0.435
0.79
1.14
1.43
1.65
1.755
1.71
1.54
1.15
0.625
0.08
-0.325
-0.545
-0.61
-0.6
-0.57
-0.51
-0.42
-0.375
-0.37
-0.41
-0.425
-0.43
-0.435
-0.44
-0.445
-0.445
-0.445
-0.46
-0.475
-0.49
-0.495
-0.495
-0.485
-0.49
-0.485
-0.5
-0.51
-0.5
-0.5
-0.49
-0.505
-0.52
-0.515
-0.515
-0.5
-0.51
-0.505
-0.515
-0.515
-0.51
-0.5
-0.505
-0.5
-0.505
-0.495
-0.495
-0.475
-0.48
-0.48
-0.485
-0.475
-0.465
-0.46
-0.445
-0.445
-0.455
-0.435
-0.435
-0.42
-0.41
-0.415
-0.41
-0.4
-0.37
-0.36
-0.34
-0.34
-0.325
-0.31
-0.285
-0.26
-0.245
-0.235
-0.24
-0.205
-0.19
-0.17
-0.16
-0.145
-0.135
-0.11
-0.1
-0.08
-0.065
-0.065
-0.075
-0.06
-0.03
-0.01
-0.01
-0.005
-0.015
-0.005
0.0
-0.005
-0.005
-0.015
-0.04
-0.055
-0.06
-0.075
-0.1
-0.12
-0.155
-0.18
-0.19
-0.215
-0.23
-0.265
-0.295
-0.31
-0.31
-0.31
-0.33
-0.34
-0.345
-0.345
-0.35
-0.34
-0.35
-0.36
-0.37
-0.375
-0.36
-0.355
-0.36
-0.36
-0.38
-0.39
-0.375
-0.355
-0.36
-0.355
-0.375
-0.36
-0.35
-0.35
-0.35
-0.345
-0.37
-0.35
-0.34
-0.33
-0.325
-0.33
-0.35
-0.34
-0.33
-0.315
-0.32
-0.31
-0.34
-0.325
-0.32
-0.32
-0.325
-0.34
-0.34
-0.325
-0.32
-0.315
-0.325
-0.33
-0.345
-0.335
-0.335
-0.32
-0.325
-0.33
-0.345
-0.345
-0.34
-0.335
-0.36
-0.36
-0.365
-0.365
-0.37
-0.36
-0.35
-0.36
-0.375
-0.385
-0.37
-0.375
-0.375
-0.375
-0.385
-0.385
-0.385
-0.385
-0.39
-0.405
-0.405
-0.415
-0.4
-0.395
-0.395
-0.415
-0.42
-0.42
-0.42
-0.415
-0.405
-0.42
-0.435
-0.435
-0.42
-0.425
-0.425
-0.43
-0.44
-0.43
-0.425
-0.425
-0.42
-0.425
-0.43
-0.44
-0.43
-0.425
-0.42
-0.415
-0.435
-0.43
-0.43
-0.4
-0.41
-0.405
-0.4
-0.39
-0.37
-0.345
-0.34
-0.35
-0.355
-0.345
-0.335
-0.315
-0.315
-0.33
-0.335
-0.33
-0.325
-0.32
-0.32
-0.34
-0.355
-0.37
-0.37
-0.38
-0.375
-0.38
-0.375
-0.37
-0.355
-0.36
-0.37
-0.39
-0.405
-0.42
-0.42
-0.42
-0.415
-0.44
-0.455
-0.455
-0.445
-0.44
-0.46
-0.47
-0.485
-0.485
-0.48
-0.475
-0.47
-0.48
-0.495
-0.49
-0.485
-0.485
-0.48
-0.48
-0.485
-0.495
-0.485
-0.47
-0.47
-0.475
-0.495
-0.495
-0.505
-0.535
-0.585
-0.635
-0.63
-0.59
-0.525
-0.43
-0.29
-0.05
0.25
0.59
0.93
1.225
1.475
1.6
1.61
1.44
1.065
0.565
0.085
-0.29
-0.525
-0.645
-0.67
-0.635
-0.555
-0.46
-0.405
-0.395
-0.43
-0.455
-0.465
-0.465
-0.48
-0.475
-0.47
-0.49
-0.505
-0.515
-0.52
-0.525
-0.515
-0.505
-0.515
-0.515
-0.53
-0.53
-0.52
-0.515
-0.52
-0.53
-0.53
-0.535
-0.515
-0.495
-0.5
-0.52
-0.515
-0.525
-0.51
-0.51
-0.505
-0.505
-0.515
-0.505
-0.505
-0.485
-0.485
-0.485
-0.5
-0.495
-0.48
-0.46
-0.465
-0.465
-0.475
-0.465
-0.45
-0.425
-0.43
-0.43
-0.43
-0.405
-0.385
-0.37
-0.36
-0.355
-0.35
-0.335
-0.31
-0.27
-0.26
-0.255
-0.25
-0.22
-0.19
-0.175
-0.17
-0.155
-0.145
-0.125
-0.115
-0.09
-0.07
-0.08
-0.08
-0.06
-0.04
-0.025
-0.03
-0.02
-0.035
-0.02
-0.01
-0.01
-0.02
-0.04
-0.055
-0.06
-0.06
-0.075
-0.09
-0.105
-0.14
-0.16
-0.175
-0.185
-0.215
-0.235
-0.265
-0.28
-0.29
-0.3
-0.31
-0.325
-0.33
-0.34
-0.34
-0.34
-0.345
-0.365
-0.355
-0.375
-0.375
-0.38
-0.36
-0.365
-0.365
-0.365
-0.36
-0.345
-0.37
-0.365
-0.375
-0.37
-0.35
-0.34
-0.345
-0.35
-0.355
-0.345
-0.34
-0.32
-0.32
-0.32
-0.335
-0.335
-0.315
-0.305
-0.315
-0.315
-0.32
-0.33
-0.305
-0.3
-0.295
-0.305
-0.32
-0.31
-0.295
-0.295
-0.29
-0.3
-0.31
-0.305
-0.31
-0.295
-0.305
-0.31
-0.34
-0.325
-0.32
-0.325
-0.32
-0.34
-0.35
-0.35
-0.345
-0.345
-0.34
-0.345
-0.35
-0.355
-0.35
-0.34
-0.35
-0.365
-0.385
-0.38
-0.37
-0.37
-0.37
-0.385
-0.39
-0.385
-0.39
-0.375
-0.375
-0.39
-0.395
-0.395
-0.4
-0.395
-0.395
-0.405
-0.415
-0.41
-0.395
-0.39
-0.395
-0.405
-0.42
-0.41
-0.4
-0.395
-0.4
-0.41
-0.42
-0.42
-0.405
-0.405
-0.405
-0.415
-0.42
-0.415
-0.405
-0.39
-0.405
-0.41
-0.395
-0.4
-0.385
-0.365
-0.35
-0.35
-0.35
-0.34
-0.32
-0.32
-0.315
-0.32
-0.315
-0.315
-0.31
-0.31
-0.31
-0.305
-0.315
-0.3
-0.31
-0.31
-0.305
-0.33
-0.36
-0.36
-0.355
-0.335
-0.325
-0.325
-0.325
-0.33
-0.345
-0.35
-0.365
-0.37
-0.4
-0.395
-0.4
-0.395
-0.41
-0.42
-0.43
-0.45
-0.445
-0.44
-0.45
-0.47
-0.475
-0.465
-0.465
-0.45
-0.445
-0.455
-0.47
-0.475
-0.465
-0.455
-0.465
-0.46
-0.465
-0.46
-0.465
-0.465
-0.465
-0.47
-0.475
-0.48
-0.51
-0.56
-0.625
-0.65
-0.64
-0.57
-0.505
-0.365
-0.12
0.23
0.61
0.995
1.35
1.62
1.78
1.775
1.595
1.165
0.585
0.035
-0.37
-0.58
-0.63
-0.605
-0.53
-0.435
-0.365
-0.365
-0.4
-0.425
-0.425
-0.43
-0.43
-0.445
-0.48
-0.485
-0.485
-0.49
-0.485
-0.495
-0.51
-0.515
-0.515
-0.505
-0.51
-0.515
-0.53
-0.515
-0.51
-0.5
-0.505
-0.515
-0.53
-0.525
-0.525
-0.5
-0.495
-0.505
-0.515
-0.505
-0.5
-0.495
-0.48
-0.485
-0.48
-0.485
-0.47
-0.465
-0.455
-0.45
-0.45
-0.45
-0.44
-0.425
-0.415
-0.41
-0.42
-0.41
-0.4
-0.39
-0.375
-0.36
-0.355
-0.33
-0.315
-0.29
-0.265
-0.265
-0.26
-0.245
-0.225
-0.21
-0.17
-0.16
-0.155
-0.13
-0.105
-0.08
-0.08
-0.075
-0.07
-0.045
-0.025
-0.005
0.0
0.01
0.005
0.005
0.025
0.04
0.035
0.035
0.03
0.025
0.035
0.035
0.025
-0.005
-0.01
-0.02
-0.025
-0.04
-0.05
-0.065
-0.105
-0.13
-0.145
-0.16
-0.19
-0.21
-0.23
-0.245
-0.26
-0.26
-0.275
-0.29
-0.31
-0.32
-0.305
-0.305
-0.315
-0.32
-0.33
-0.34
-0.33
-0.335
-0.335
-0.345
-0.36
-0.35
-0.34
-0.32
-0.33
-0.325
-0.335
-0.34
-0.335
-0.32
-0.33
-0.33
-0.34
-0.325
-0.32
-0.31
-0.3
-0.305
-0.315
-0.31
-0.305
-0.285
-0.295
-0.295
-0.3
-0.3
-0.295
-0.28
-0.275
-0.29
-0.29
-0.28
-0.275
-0.265
-0.265
-0.27
-0.285
-0.28
-0.275
-0.265
-0.26
-0.28
-0.29
-0.285
-0.285
-0.28
-0.285
-0.28
-0.295
-0.3
-0.29
-0.295
-0.295
-0.295
-0.305
-0.305
-0.32
-0.31
-0.32
-0.32
-0.34
-0.34
-0.33
-0.33
-0.325
-0.33
-0.345
-0.345
-0.34
-0.34
-0.34
-0.35
-0.36
-0.36
-0.35
-0.345
-0.35
-0.36
-0.375
-0.365
-0.365
-0.35
-0.36
-0.36
-0.37
-0.38
-0.37
-0.365
-0.365
-0.375
-0.385
-0.385
-0.38
-0.365
-0.37
-0.36
-0.395
-0.385
-0.375
-0.365
-0.37
-0.37
-0.375
-0.375
-0.365
-0.34
-0.335
-0.32
-0.325
-0.32
-0.315
-0.29
-0.29
-0.29
-0.31
-0.3
-0.27
-0.26
-0.255
-0.255
-0.26
-0.275
-0.26
-0.245
-0.235
-0.255
-0.265
-0.265
-0.26
-0.275
-0.285
-0.3
-0.33
-0.3
-0.285
-0.27
-0.28
-0.285
-0.315
-0.315
-0.33
-0.32
-0.345
-0.355
-0.365
-0.37
-0.365
-0.37
-0.365
-0.385
-0.405
-0.395
-0.395
-0.39
-0.395
-0.405
-0.41
-0.41
-0.405
-0.385
-0.39
-0.4
-0.405
-0.39
-0.395
-0.38
-0.4
-0.4
-0.425
-0.405
-0.415
-0.425
-0.485
-0.56
-0.595
-0.565
-0.495
-0.405
-0.255
-0.005
0.345
0.735
1.1
1.41
1.65
1.76
1.725
1.48
1.03
0.46
-0.04
-0.385
-0.525
-0.535
-0.505
-0.415
-0.31
-0.275
-0.3
