Lead II
-0.935
-0.925
-0.93
-0.95
-0.95
-0.985
-1.01
-1.015
-1.01
-1.02
-1.035
-1.03
-1.035
-1.035
-1.05
-1.055
-1.075
-1.08
-1.1
-1.13
-1.12
-1.14
-1.15
-1.135
-1.13
-1.11
-1.11
-1.095
-1.12
-1.125
-1.13
-1.145
-1.145
-1.15
-1.145
-1.13
-1.13
-1.115
-1.105
-1.095
-1.1
-1.11
-1.12
-1.125
-1.135
-1.125
-1.135
-1.12
-1.065
-1.035
-0.935
-0.84
-0.705
-0.56
-0.405
-0.255
-0.14
-0.08
-0.095
-0.22
-0.43
-0.695
-0.99
-1.295
-1.53
-1.645
-1.635
-1.55
-1.44
-1.325
-1.23
-1.175
-1.135
-1.095
-1.065
-1.075
-1.075
-1.065
-1.07
-1.085
-1.09
-1.1
-1.09
-1.075
-1.075
-1.045
-1.07
-1.055
-1.05
-1.055
-1.05
-1.055
-1.08
-1.08
-1.055
-1.045
-1.055
-1.03
-1.015
-1.025
-1.02
-1.02
-1.02
-1.045
-1.05
-1.045
-1.035
-1.025
-1.0
-0.99
-0.975
-0.975
-0.975
-0.98
-1.0
-1.0
-1.0
-1.0
-0.975
-0.96
-0.945
-0.94
-0.925
-0.91
-0.91
-0.91
-0.93
-0.93
-0.915
-0.935
-0.92
-0.9
-0.88
-0.865
-0.85
-0.865
-0.855
-0.84
-0.84
-0.85
-0.825
-0.82
-0.8
-0.78
-0.745
-0.745
-0.715
-0.69
-0.68
-0.67
-0.66
-0.67
-0.64
-0.62
-0.605
-0.585
-0.57
-0.555
-0.52
-0.525
-0.505
-0.525
-0.505
-0.51
-0.51
-0.525
-0.5
-0.49
-0.475
-0.475
-0.485
-0.48
-0.475
-0.49
-0.51
-0.545
-0.575
-0.58
-0.61
-0.635
-0.65
-0.675
-0.695
-0.71
-0.74
-0.77
-0.8
-0.835
-0.87
-0.89
-0.915
-0.92
-0.945
-0.95
-0.975
-0.995
-1.01
-1.02
-1.05
-1.065
-1.07
-1.07
-1.085
-1.07
-1.065
-1.065
-1.07
-1.065
-1.06
-1.065
-1.075
-1.09
-1.105
-1.11
-1.1
-1.115
-1.085
-1.095
-1.08
-1.085
-1.09
-1.095
-1.095
-1.105
-1.105
-1.105
-1.095
-1.095
-1.085
-1.06
-1.05
-1.045
-1.06
-1.075
-1.085
-1.095
-1.1
-1.1
-1.09
-1.08
-1.075
-1.065
-1.065
-1.05
-1.045
-1.055
-1.07
-1.07
-1.095
-1.095
-1.095
-1.095
-1.095
-1.06
-1.055
-1.06
-1.075
-1.08
-1.075
-1.1
-1.1
-1.1
-1.1
-1.085
-1.08
-1.08
-1.08
-1.085
-1.1
-1.1
-1.105
-1.125
-1.12
-1.13
-1.13
-1.115
-1.135
-1.11
-1.115
-1.115
-1.12
-1.135
-1.13
-1.125
-1.13
-1.14
-1.14
-1.125
-1.105
-1.1
-1.1
-1.11
-1.105
-1.13
-1.125
-1.13
-1.13
-1.13
-1.12
-1.13
-1.11
-1.105
-1.095
-1.115
-1.13
-1.115
-1.125
-1.14
-1.145
-1.15
-1.15
-1.145
-1.125
-1.13
-1.095
-1.095
-1.115
-1.11
-1.11
-1.13
-1.125
-1.125
-1.125
-1.12
-1.105
-1.115
-1.105
-1.1
-1.115
-1.11
-1.13
-1.13
-1.13
-1.14
-1.14
-1.13
-1.135
-1.125
-1.115
-1.1
-1.11
-1.12
-1.125
-1.13
-1.13
-1.13
-1.13
-1.12
-1.115
-1.1
-1.085
-1.1
-1.095
-1.11
-1.115
-1.125
-1.15
-1.14
-1.125
-1.115
-1.105
-1.105
-1.09
-1.095
-1.11
-1.12
-1.12
-1.14
-1.125
-1.125
-1.13
-1.12
-1.11
-1.105
-1.085
-1.085
-1.11
-1.105
-1.115
-1.13
-1.135
-1.13
-1.115
-1.11
-1.095
-1.085
-1.075
-1.075
-1.085
-1.08
-1.095
-1.115
-1.12
-1.11
-1.1
-1.11
-1.095
-1.085
-1.075
-1.065
-1.075
-1.075
-1.1
-1.1
-1.09
-1.115
-1.115
-1.1
-1.085
-1.09
-1.06
-1.045
-1.035
-1.035
-1.04
-1.03
-1.045
-1.04
-1.025
-1.025
-0.99
-0.965
-0.955
-0.935
-0.915
-0.92
-0.92
-0.93
-0.96
-0.975
-0.995
-0.98
-0.97
-0.97
-0.97
-0.985
-1.015
-1.02
-1.04
-1.065
-1.075
-1.08
-1.09
-1.09
-1.1
-1.1
-1.085
-1.09
-1.1
-1.105
-1.125
-1.125
-1.135
-1.135
-1.145
-1.12
-1.11
-1.085
-1.075
-1.08
-1.08
-1.09
-1.085
-1.095
-1.095
-1.095
-1.1
-1.075
-1.065
-1.04
-0.975
-0.93
-0.855
-0.745
-0.63
-0.545
-0.47
-0.38
-0.375
-0.445
-0.55
-0.735
-0.95
-1.18
-1.42
-1.605
-1.745
-1.75
-1.695
-1.585
-1.475
-1.38
-1.3
-1.235
-1.17
-1.12
-1.08
-1.055
-1.04
-1.045
-1.065
-1.045
-1.045
-1.04
-1.03
-1.025
-0.995
-0.995
-0.995
-0.995
-0.995
-1.0
-1.01
-1.025
-1.0
-0.995
-0.99
-0.97
-0.96
-0.97
-0.965
-0.97
-0.965
-0.97
-0.97
-0.975
-0.955
-0.955
-0.95
-0.94
-0.935
-0.925
-0.925
-0.92
-0.94
-0.93
-0.93
-0.935
-0.93
-0.91
-0.9
-0.89
-0.865
-0.865
-0.865
-0.87
-0.86
-0.875
-0.875
-0.865
-0.86
-0.84
-0.815
-0.795
-0.77
-0.785
-0.765
-0.765
-0.76
-0.75
-0.735
-0.72
-0.695
-0.67
-0.655
-0.625
-0.6
-0.58
-0.57
-0.555
-0.53
-0.53
-0.515
-0.53
-0.485
-0.465
-0.445
-0.43
-0.4
-0.395
-0.37
-0.39
-0.39
-0.385
-0.375
-0.375
-0.385
-0.375
-0.365
-0.385
-0.385
-0.395
-0.42
-0.45
-0.47
-0.51
-0.53
-0.58
-0.625
-0.655
-0.67
-0.685
-0.695
-0.72
-0.755
-0.785
-0.825
-0.85
-0.88
-0.89
-0.915
-0.92
-0.925
-0.92
-0.93
-0.94
-0.965
-0.975
-0.975
-0.995
-0.995
-1.0
-1.02
-1.015
-1.015
-1.0
-0.985
-1.01
-1.0
-1.0
-1.015
-1.03
-1.03
-1.035
-1.035
-1.03
-1.015
-1.005
-1.01
-1.015
-1.015
-1.02
-1.025
-1.035
-1.04
-1.035
-1.06
-1.04
-1.03
-1.015
-1.015
-1.015
-1.015
-1.025
-1.055
-1.055
-1.05
-1.065
-1.06
-1.07
-1.07
-1.055
-1.025
-1.035
-1.03
-1.055
-1.05
-1.075
-1.08
-1.09
-1.085
-1.075
-1.075
-1.08
-1.06
-1.065
-1.09
-1.08
-1.095
-1.1
-1.09
-1.115
-1.11
-1.1
-1.1
-1.085
-1.075
-1.08
-1.095
-1.105
-1.095
-1.125
-1.12
-1.13
-1.135
-1.125
-1.125
-1.11
-1.105
-1.1
-1.115
-1.12
-1.125
-1.13
-1.125
-1.15
-1.15
-1.13
-1.13
-1.13
-1.095
-1.105
-1.1
-1.105
-1.12
-1.125
-1.13
-1.14
-1.145
-1.14
-1.135
-1.12
-1.1
-1.125
-1.115
-1.115
-1.115
-1.13
-1.14
-1.145
-1.14
-1.15
-1.12
-1.12
-1.11
-1.11
-1.105
-1.115
-1.12
-1.125
-1.12
-1.15
-1.145
-1.15
-1.13
-1.11
-1.105
-1.105
-1.105
-1.115
-1.12
-1.135
-1.145
-1.145
-1.135
-1.14
-1.115
-1.125
-1.115
-1.12
-1.115
-1.11
-1.135
-1.145
-1.13
-1.15
-1.135
-1.125
-1.13
-1.13
-1.125
-1.135
-1.14
-1.14
-1.145
-1.145
-1.155
-1.17
-1.155
-1.155
-1.135
-1.12
-1.105
-1.12
-1.12
-1.135
-1.155
-1.16
-1.16
-1.17
-1.16
-1.155
-1.14
-1.135
-1.125
-1.135
-1.14
-1.145
-1.15
-1.165
-1.175
-1.18
-1.18
-1.155
-1.135
-1.13
-1.14
-1.12
-1.13
-1.145
-1.15
-1.155
-1.155
-1.16
-1.165
-1.15
-1.13
-1.115
-1.095
-1.07
-1.075
-1.085
-1.08
-1.095
-1.085
-1.085
-1.055
-1.04
-1.03
-1.01
-0.98
-0.985
-0.995
-1.0
-1.03
-1.045
-1.06
-1.065
-1.055
-1.065
-1.06
-1.075
-1.075
-1.095
-1.105
-1.135
-1.135
-1.15
-1.17
-1.175
-1.18
-1.165
-1.15
-1.16
-1.16
-1.165
-1.165
-1.175
-1.18
-1.19
-1.205
-1.21
-1.21
-1.2
-1.185
-1.195
-1.17
-1.165
-1.18
-1.175
-1.18
-1.185
-1.205
-1.205
-1.21
-1.18
-1.155
-1.125
-1.06
-1.0
-0.89
-0.75
-0.595
-0.43
-0.275
-0.185
-0.145
-0.165
-0.295
-0.49
-0.765
-1.065
-1.355
-1.605
-1.755
-1.78
-1.71
-1.6
-1.505
-1.405
-1.325
-1.28
-1.245
-1.22
-1.19
-1.165
-1.165
-1.155
-1.165
-1.165
-1.18
-1.18
-1.155
-1.135
-1.135
-1.125
-1.125
-1.115
-1.135
-1.145
-1.145
-1.15
-1.145
-1.14
-1.12
-1.105
-1.095
-1.1
-1.085
-1.085
-1.1
-1.105
-1.115
-1.11
-1.105
-1.1
-1.075
-1.07
-1.06
-1.06
-1.065
-1.065
-1.07
-1.075
-1.07
-1.06
-1.055
-1.035
-1.03
-1.0
-1.0
-0.975
-0.99
-0.99
-0.985
-0.98
-0.97
-0.98
-0.98
-0.945
-0.925
-0.915
-0.895
-0.885
-0.885
-0.875
-0.86
-0.855
-0.845
-0.85
-0.845
-0.82
-0.79
-0.755
-0.735
-0.72
-0.72
-0.71
-0.685
-0.67
-0.66
-0.64
-0.625
-0.605
-0.59
-0.57
-0.545
-0.53
-0.53
-0.53
-0.545
-0.535
-0.54
-0.525
-0.525
-0.51
-0.49
-0.5
-0.485
-0.49
-0.51
-0.52
-0.55
-0.585
-0.62
-0.645
-0.66
-0.685
-0.72
-0.74
-0.76
-0.79
-0.84
-0.865
-0.895
-0.93
-0.95
-0.975
-1.0
-1.015
-1.02
-1.02
-1.045
-1.04
-1.055
-1.065
-1.085
-1.1
-1.125
-1.135
-1.115
-1.115
-1.12
-1.12
-1.1
-1.11
-1.11
-1.12
-1.125
-1.125
-1.13
-1.135
-1.14
-1.125
-1.135
-1.14
-1.13
-1.105
-1.12
-1.105
-1.105
-1.12
-1.105
-1.13
-1.115
-1.105
-1.1
-1.095
-1.085
-1.085
-1.1
-1.085
-1.1
-1.105
-1.1
-1.105
-1.115
-1.1
-1.085
-1.09
-1.1
-1.08
-1.095
-1.105
-1.12
-1.105
-1.11
-1.105
-1.1
-1.115
-1.09
-1.075
-1.075
-1.075
-1.095
-1.095
-1.11
-1.12
-1.115
-1.125
-1.15
-1.15
-1.115
-1.125
-1.105
-1.105
-1.115
-1.125
-1.135
-1.135
-1.14
-1.145
-1.155
-1.155
-1.14
-1.145
-1.13
-1.135
-1.135
-1.15
-1.155
-1.15
-1.16
-1.14
-1.155
-1.145
-1.14
-1.125
-1.13
-1.125
-1.125
-1.135
-1.13
-1.145
-1.15
-1.16
-1.165
-1.16
-1.15
-1.13
-1.12
-1.125
-1.11
-1.125
-1.135
-1.15
-1.145
-1.15
-1.14
-1.145
-1.115
-1.12
-1.115
-1.115
-1.12
-1.12
-1.135
-1.14
-1.15
-1.15
-1.135
-1.12
-1.115
-1.11
-1.095
-1.1
-1.105
-1.125
-1.12
-1.145
-1.125
-1.125
-1.135
-1.12
-1.12
-1.105
-1.1
-1.095
-1.105
-1.12
-1.11
-1.115
-1.13
-1.135
-1.14
-1.13
-1.115
-1.115
-1.105
-1.1
-1.1
-1.11
-1.12
-1.12
-1.13
-1.12
-1.135
-1.125
-1.1
-1.09
-1.085
-1.1
-1.09
-1.085
-1.11
-1.115
-1.12
-1.125
-1.135
-1.125
-1.09
-1.1
-1.09
-1.095
-1.09
-1.11
-1.11
-1.1
-1.1
-1.12
-1.12
-1.105
-1.115
-1.085
-1.085
-1.075
-1.08
-1.08
-1.105
-1.11
-1.11
-1.11
-1.09
-1.095
-1.075
-1.085
-1.075
-1.075
-1.06
-1.07
-1.075
-1.08
-1.095
-1.105
-1.105
-1.085
-1.075
-1.055
-1.05
-1.04
-1.045
-1.04
-1.05
-1.06
-1.065
-1.06
-1.06
-1.05
-1.03
-1.01
-1.0
-0.995
-0.985
-0.99
-0.99
-1.0
-1.0
-0.995
-0.99
-0.955
-0.93
-0.91
-0.875
-0.885
-0.885
-0.89
-0.895
-0.92
-0.94
-0.96
-0.96
-0.95
-0.94
-0.95
-0.945
-0.975
-0.98
-0.99
-1.01
-1.015
-1.015
-1.045
-1.055
-1.06
-1.045
-1.035
-1.025
-1.05
-1.045
-1.055
-1.065
-1.07
-1.08
-1.095
-1.09
-1.075
-1.065
-1.055
-1.07
-1.055
-1.065
-1.065
-1.08
-1.08
-1.065
-1.075
-1.075
-1.055
-1.065
-1.045
-1.045
-1.035
-1.035
-1.01
-0.955
-0.875
-0.775
-0.62
-0.48
-0.33
-0.2
-0.145
-0.145
-0.25
-0.44
-0.665
-0.925
-1.185
-1.415
-1.565
-1.63
-1.59
-1.5
-1.4
-1.285
-1.235
-1.18
-1.115
-1.09
-1.06
-1.04
-1.01
-1.015
-1.01
-1.0
-0.995
-0.985
-0.98
-0.99
-1.0
-0.99
-0.975
-0.985
-0.985
-0.975
-0.97
-0.95
-0.935
-0.935
-0.93
-0.93
-0.945
-0.94
-0.935
-0.955
-0.95
-0.945
-0.95
-0.93
-0.91
-0.9
-0.885
-0.89
-0.895
-0.905
-0.9
-0.9
-0.895
-0.89
-0.89
-0.875
-0.85
-0.835
-0.835
-0.83
-0.845
-0.84
-0.855
-0.84
-0.835
-0.82
-0.815
-0.79
-0.79
-0.765
-0.745
-0.75
-0.75
-0.74
-0.735
-0.72
-0.715
-0.7
-0.67
-0.65
-0.615
-0.605
-0.585
-0.58
-0.565
-0.54
-0.545
-0.53
-0.515
-0.505
-0.48
-0.45
-0.435
-0.415
-0.395
-0.38
-0.365
-0.36
-0.35
-0.35
-0.355
-0.34
-0.33
-0.325
-0.3
-0.29
-0.295
-0.29
-0.31
-0.315
-0.345
-0.36
-0.41
-0.41
-0.44
-0.45
-0.46
-0.49
-0.52
-0.55
-0.575
-0.61
-0.655
-0.68
-0.715
-0.74
-0.75
-0.775
-0.785
-0.8
-0.815
-0.84
-0.86
-0.88
-0.89
-0.91
-0.915
-0.93
-0.93
-0.935
-0.91
-0.915
-0.915
-0.915
-0.925
-0.94
-0.935
-0.955
-0.955
-0.95
-0.96
-0.945
-0.93
-0.92
-0.905
-0.925
-0.935
-0.925
-0.93
-0.93
-0.945
-0.95
-0.94
-0.935
-0.93
-0.915
-0.93
-0.915
-0.92
-0.92
-0.925
-0.92
-0.92
-0.93
-0.93
-0.915
-0.915
-0.905
-0.9
-0.9
-0.92
-0.945
-0.945
-0.965
-0.97
-0.965
-0.95
-0.945
-0.93
-0.91
-0.925
-0.935
-0.94
-0.935
-0.94
-0.955
-0.965
-0.965
-0.97
-0.97
-0.955
-0.94
-0.935
-0.94
-0.94
-0.97
-0.965
-0.98
-0.985
-0.99
-0.975
-0.955
-0.965
-0.96
-0.945
-0.96
-0.965
-0.97
-0.99
-0.985
-0.97
-0.98
-0.97
-0.97
-0.97
-0.955
-0.965
-0.97
-0.97
-1.0
-0.99
-0.99
-0.98
-0.99
-0.985
-0.98
-0.975
-0.965
-0.97
-0.975
-0.97
-0.985
-0.98
-0.98
-1.0
-0.99
-0.975
-0.97
-0.97
-0.955
-0.965
-0.965
-0.97
-0.975
-0.99
-0.995
-0.995
-1.005
-0.99
-0.97
-0.985
-0.965
-0.965
-0.97
-0.975
-0.975
-1.005
-1.015
-0.995
-1.02
-1.01
-0.995
-0.98
-0.975
-0.965
-0.97
-0.965
-0.955
-0.975
-0.99
-0.995
-0.99
-0.99
-0.985
-0.99
-0.975
-0.98
-0.97
-0.975
-0.97
-0.975
-0.995
-1.005
-0.995
-0.98
-0.985
-0.96
-0.95
-0.955
-0.97
-0.97
-0.99
-0.99
-1.005
-1.005
-1.005
-1.005
-0.99
-0.985
-0.98
-0.975
-0.965
-0.97
-0.985
-1.005
-0.995
-1.005
-0.995
-0.995
-0.98
-0.98
-0.975
-0.975
-0.975
-0.975
-0.995
-0.99
-1.0
-1.01
-1.01
-1.0
-1.005
-0.98
-0.99
-0.985
-0.975
-0.99
-0.99
-0.99
-0.99
-1.01
-0.995
-0.97
-0.945
-0.925
-0.895
-0.9
-0.895
-0.915
-0.915
-0.92
-0.915
-0.9
-0.89
-0.87
-0.83
-0.82
-0.805
-0.8
-0.8
-0.825
-0.855
-0.86
-0.875
-0.895
-0.905
-0.9
-0.915
-0.92
-0.935
-0.925
-0.94
-0.97
-0.975
-0.985
-0.99
-1.01
-1.0
-1.015
-1.005
-1.01
-0.995
-1.005
-0.995
-0.995
-1.02
-1.035
-1.03
-1.025
-1.03
-1.025
-1.025
-1.01
-1.005
-1.005
-1.0
-1.015
-1.01
-1.02
-1.03
-1.015
-1.015
-1.005
-0.99
-0.985
-0.95
-0.915
-0.85
-0.75
-0.65
-0.515
-0.375
-0.255
-0.14
-0.08
-0.085
-0.165
-0.33
-0.59
-0.86
-1.15
-1.415
-1.595
-1.65
-1.61
-1.51
-1.375
-1.265
-1.165
-1.1
-1.06
-1.01
-0.985
-0.975
-0.975
-0.97
-0.985
-0.99
-0.985
-0.965
-0.955
-0.945
-0.945
-0.945
-0.945
-0.95
-0.955
-0.965
-0.965
-0.955
-0.95
-0.945
-0.935
-0.92
-0.915
-0.92
-0.925
-0.92
-0.92
-0.93
-0.935
-0.935
-0.92
-0.93
-0.895
-0.88
-0.885
-0.885
-0.89
-0.905
-0.905
-0.895
-0.895
-0.905
-0.905
-0.9
-0.885
-0.88
-0.855
-0.835
-0.84
-0.835
-0.85
-0.845
-0.835
-0.84
-0.83
-0.8
-0.78
-0.775
-0.775
-0.77
-0.77
-0.75
-0.75
-0.745
-0.75
-0.735
-0.7
-0.68
-0.665
-0.635
-0.64
-0.615
-0.61
-0.59
-0.59
-0.565
-0.56
-0.53
-0.52
-0.49
-0.48
-0.45
-0.445
-0.43
-0.425
-0.44
-0.42
-0.43
-0.425
-0.415
-0.41
-0.39
-0.385
-0.365
-0.355
-0.375
-0.38
-0.39
-0.415
-0.43
-0.455
-0.465
-0.48
-0.5
-0.52
-0.54
-0.56
-0.59
-0.62
-0.655
-0.69
-0.735
-0.765
-0.805
-0.815
-0.825
-0.86
-0.875
-0.865
-0.89
-0.9
-0.925
-0.955
-0.985
-0.995
-1.015
-0.995
-1.01
-1.0
-0.985
-1.0
-1.0
-1.0
-1.01
-1.03
-1.04
-1.045
-1.025
-1.03
-1.025
-1.03
-1.025
-1.02
-1.0
-1.01
-1.01
-1.005
-1.025
-1.02
-1.01
-1.005
-1.005
-1.005
-0.99
-0.99
-0.975
-0.98
-0.99
-1.005
-1.005
-1.015
-1.03
-1.02
-1.005
-1.005
-0.98
-0.98
-0.99
-0.985
-1.01
-1.0
-1.025
-1.015
-1.03
-1.035
-1.02
-1.015
-1.01
-1.015
-1.01
-1.025
-1.04
-1.05
-1.065
-1.055
-1.07
-1.05
-1.06
-1.075
-1.055
-1.05
-1.055
-1.065
-1.06
-1.075
-1.075
-1.1
-1.115
-1.09
-1.07
-1.075
-1.05
-1.05
-1.05
-1.055
-1.08
-1.09
-1.105
-1.09
-1.09
-1.08
-1.09
-1.075
-1.065
-1.06
-1.07
-1.065
-1.075
-1.085
-1.09
-1.1
-1.095
-1.1
-1.105
-1.085
-1.07
-1.075
-1.08
-1.085
-1.075
-1.09
-1.11
-1.11
-1.105
-1.11
-1.1
-1.095
-1.085
-1.075
-1.085
-1.075
-1.08
-1.1
-1.105
-1.105
-1.1
-1.095
-1.095
-1.085
-1.07
-1.075
-1.08
-1.08
-1.1
-1.09
-1.1
-1.115
-1.105
-1.095
-1.09
-1.095
-1.07
-1.075
-1.07
-1.08
-1.09
-1.08
-1.11
-1.105
-1.105
-1.1
-1.095
-1.08
-1.07
-1.08
-1.075
-1.075
-1.09
-1.09
-1.105
-1.095
-1.095
-1.085
-1.095
-1.08
-1.075
-1.055
-1.06
-1.07
-1.08
-1.075
-1.08
-1.085
-1.085
-1.08
-1.08
-1.085
-1.07
-1.06
-1.065
-1.07
-1.08
-1.085
-1.09
-1.1
-1.1
-1.085
-1.085
-1.1
-1.075
-1.09
-1.075
-1.075
-1.085
-1.09
-1.1
-1.09
-1.105
-1.1
-1.085
-1.075
-1.065
-1.065
-1.065
-1.075
-1.095
-1.09
-1.12
-1.1
-1.095
-1.11
-1.105
-1.085
-1.06
-1.055
-1.06
-1.07
-1.07
-1.08
-1.075
-1.1
-1.1
-1.09
-1.07
-1.05
-1.065
-1.045
-1.01
-1.02
-1.01
-1.01
-1.02
-1.03
-1.02
-1.01
-0.99
-0.95
-0.92
-0.91
-0.885
-0.88
-0.9
-0.9
-0.92
-0.945
-0.96
-0.965
-0.97
-0.975
-0.965
-0.965
-0.98
-0.995
-1.025
-1.04
-1.055
-1.075
-1.07
-1.065
-1.075
-1.065
-1.055
-1.05
-1.06
-1.06
-1.06
-1.075
-1.095
-1.095
-1.11
-1.11
-1.105
-1.09
-1.08
-1.08
-1.07
-1.065
-1.07
-1.09
-1.095
-1.085
-1.095
-1.075
-1.085
-1.075
-1.065
-1.045
-1.035
-1.055
-1.045
-1.035
-0.99
-0.915
-0.815
-0.675
-0.54
-0.375
-0.225
-0.115
-0.065
-0.055
-0.165
-0.345
-0.575
-0.83
-1.095
-1.325
-1.515
-1.59
-1.56
-1.495
-1.375
-1.28
-1.21
-1.16
-1.13
-1.09
-1.07
-1.045
-1.03
-1.01
-1.0
-1.0
-1.01
-1.015
-1.025
-1.02
-1.03
-1.035
-1.04
-1.025
-1.03
-1.025
-1.0
-0.98
-0.975
-0.955
-0.975
-0.99
-1.01
-0.985
-1.0
-0.985
-0.97
-0.97
-0.955
-0.945
-0.95
-0.95
-0.955
-0.96
-0.965
-0.965
-0.95
-0.96
-0.95
-0.94
-0.925
-0.91
-0.92
-0.91
-0.895
-0.905
-0.9
-0.905
-0.895
-0.9
-0.875
-0.885
-0.855
-0.845
-0.86
-0.855
-0.855
-0.845
-0.845
-0.84
-0.815
-0.8
-0.78
-0.78
-0.765
-0.73
-0.71
-0.705
-0.695
-0.685
-0.68
-0.67
-0.665
-0.645
-0.615
-0.585
-0.56
-0.535
-0.525
-0.49
-0.495
-0.49
-0.495
-0.485
-0.465
-0.46
-0.43
-0.41
-0.395
-0.385
-0.37
-0.38
-0.37
-0.38
-0.385
-0.385
-0.38
-0.4
-0.415
-0.425
-0.42
-0.44
-0.45
-0.485
-0.505
-0.545
-0.57
-0.62
-0.655
-0.67
-0.7
-0.715
-0.73
-0.755
-0.785
-0.79
-0.83
-0.84
-0.875
-0.9
-0.915
-0.935
-0.925
-0.93
-0.935
-0.945
-0.93
-0.94
-0.965
-0.97
-0.985
-0.99
-1.0
-0.99
-0.98
-0.98
-0.985
-0.965
-0.98
-0.98
-0.985
-0.99
-1.0
-1.0
-1.0
-0.985
-0.97
-0.97
-0.965
-0.95
-0.95
-0.945
-0.955
-0.965
-0.975
-0.985
-0.98
-0.985
-0.975
-0.965
-0.95
-0.955
-0.945
-0.945
-0.945
-0.965
-0.955
-0.96
-0.97
-0.975
-0.96
-0.95
-0.935
-0.93
-0.935
-0.95
-0.945
-0.965
-0.975
-0.985
-0.98
-0.97
-0.97
-0.95
-0.965
-0.95
-0.965
-0.955
-0.98
-0.98
-0.995
-1.005
-1.015
-1.015
-1.005
-0.98
-0.985
-0.97
-0.975
-1.0
-0.995
-1.0
-0.99
-1.01
-1.01
-1.005
-0.995
-0.995
-0.985
-0.985
-0.975
-0.99
-0.99
-1.0
-1.01
-1.01
-1.01
-1.0
-1.01
-0.99
-0.985
-0.98
-0.985
-0.975
-0.99
-1.0
-1.01
-1.03
-1.015
-1.02
-1.005
-1.0
-1.015
-1.0
-0.99
-0.995
-1.025
-1.03
-1.03
-1.02
-1.02
-1.005
-0.995
-0.985
-0.98
-0.995
-0.995
-0.97
-1.0
-1.0
-1.015
-1.01
-1.02
-1.015
-1.02
-0.99
-0.985
-0.96
-0.965
-0.97
-0.975
-0.98
-0.995
-1.005
-1.0
-0.99
-0.99
-0.965
-0.96
-0.965
-0.955
-0.97
-0.98
-0.985
-0.99
-1.005
-1.01
-1.005
-1.0
-1.005
-0.965
-0.965
-0.97
-0.965
-0.965
-0.98
-0.985
-1.005
-0.995
-0.98
-0.975
-0.965
-0.975
-0.97
-0.98
-1.0
-0.99
-0.99
-1.015
-1.01
-1.0
-0.975
-0.98
-0.96
-0.955
-0.945
-0.955
-0.965
-0.97
-0.98
-0.99
-1.0
-1.005
-0.985
-0.98
-0.975
-0.96
-0.95
-0.95
-0.945
-0.955
-0.97
-0.975
-0.99
-0.98
-0.97
-0.97
-0.955
-0.95
-0.945
-0.95
-0.925
-0.94
-0.92
-0.93
-0.915
-0.91
-0.92
-0.91
-0.895
-0.885
-0.86
-0.84
-0.825
-0.83
-0.825
-0.825
-0.815
-0.83
-0.82
-0.815
-0.82
-0.82
-0.815
-0.835
-0.845
-0.875
-0.885
-0.93
-0.945
-0.96
-0.955
-0.955
-0.955
-0.955
-0.945
-0.955
-0.95
-0.965
-0.98
-0.98
-0.985
-1.0
-1.0
-1.0
-0.975
-0.985
-0.965
-0.97
-0.98
-0.975
-0.99
-1.005
-1.0
-0.99
-0.99
-1.0
-0.99
-0.965
-0.955
-0.96
-0.965
-0.97
-0.96
-0.95
-0.92
-0.875
-0.78
-0.68
-0.555
-0.415
-0.31
-0.23
-0.2
-0.26
-0.37
-0.55
-0.805
-1.055
-1.295
-1.495
-1.63
-1.66
-1.585
-1.49
-1.375
-1.29
-1.22
-1.175
-1.13
-1.075
-1.045
-0.995
-0.945
-0.935
-0.92
-0.93
-0.925
-0.93
-0.94
-0.945
-0.94
-0.935
-0.92
-0.91
-0.895
-0.89
-0.89
-0.88
-0.88
-0.875
-0.89
-0.895
-0.89
-0.895
-0.905
-0.88
-0.875
-0.86
-0.855
-0.86
-0.87
-0.875
-0.865
-0.87
-0.86
-0.855
-0.835
-0.835
-0.825
-0.8
-0.8
-0.805
-0.795
-0.795
-0.83
-0.81
-0.835
-0.815
-0.805
-0.785
-0.76
-0.75
-0.745
-0.73
-0.735
-0.74
-0.72
-0.72
-0.72
-0.71
-0.705
-0.69
-0.685
-0.645
-0.63
-0.61
-0.605
-0.61
-0.595
-0.595
-0.615
-0.585
-0.57
-0.53
-0.495
-0.485
-0.45
-0.435
-0.44
-0.41
-0.41
-0.41
-0.4
-0.39
-0.375
-0.365
-0.36
-0.34
-0.325
-0.33
-0.335
-0.35
-0.355
-0.345
-0.355
-0.365
-0.365
-0.37
-0.395
-0.38
-0.4
-0.435
-0.45
-0.47
-0.49
-0.535
-0.565
-0.6
-0.615
-0.63
-0.64
-0.665
-0.68
-0.705
-0.735
-0.755
-0.785
-0.815
-0.84
-0.865
-0.87
-0.885
-0.885
-0.88
-0.875
-0.88
-0.9
-0.905
-0.925
-0.915
-0.945
-0.95
-0.945
-0.95
-0.945
-0.935
-0.95
-0.945
-0.955
-0.96
-0.955
-0.965
-0.975
-0.965
-0.955
-0.965
-0.945
-0.945
-0.93
-0.935
-0.93
-0.95
-0.96
-0.96
-0.965
-0.955
-0.945
-0.945
-0.945
-0.925
-0.93
-0.925
-0.925
-0.935
-0.935
-0.945
-0.95
-0.945
-0.945
-0.94
-0.93
-0.93
-0.92
-0.925
-0.93
-0.94
-0.95
-0.955
-0.965
-0.97
-0.94
-0.945
-0.935
-0.945
-0.93
-0.955
-0.96
-0.99
-0.98
-0.985
-0.985
-0.98
-0.995
-1.005
-0.985
-0.97
-0.97
-0.975
-0.985
-1.01
-1.03
-1.02
-1.01
-1.015
-0.995
-1.01
-1.0
-1.0
-0.99
-1.0
-1.005
-1.005
-1.025
-1.02
-1.035
-1.04
-1.035
-1.02
-1.025
-1.035
-1.025
-1.015
-1.0
-1.025
-1.03
-1.04
-1.04
-1.05
-1.05
-1.035
-1.025
-0.995
-1.01
-1.005
-1.01
-1.01
-1.015
-1.03
-1.04
-1.045
-1.025
-1.03
-1.015
-1.0
-1.01
-0.995
-1.01
-1.015
-1.025
-1.035
-1.055
-1.05
-1.025
-1.03
-1.02
-1.02
-1.03
-1.015
-1.03
-1.03
-1.015
-1.03
-1.035
-1.04
-1.035
-1.025
-1.015
-1.0
-0.995
-0.99
-1.005
-1.015
-1.02
-1.025
-1.045
-1.05
-1.03
-1.015
-1.01
-1.015
-0.995
-0.995
-0.99
-1.005
-1.02
-1.025
-1.025
-1.03
-1.035
-1.025
-1.01
-1.015
-1.015
-0.99
-1.0
-1.005
-1.03
-1.02
-1.03
-1.035
-1.035
-1.015
-1.005
-1.02
-1.015
-1.005
-1.005
-1.015
-1.015
-1.02
-1.025
-1.02
-1.02
-1.035
-1.035
-1.02
-1.005
-1.01
-1.01
-0.995
-1.01
-1.01
-1.02
-1.025
-1.015
-1.01
-1.0
-0.985
-0.98
-0.97
-0.98
-0.995
-0.995
-1.005
-1.02
-1.015
-1.015
-1.005
-0.99
-0.995
-0.995
-0.995
-0.975
-0.985
-0.985
-1.005
-1.01
-1.015
-0.995
-0.975
-0.975
-0.96
-0.94
-0.93
-0.925
-0.92
-0.925
-0.935
-0.945
-0.925
-0.92
-0.905
-0.875
-0.84
-0.825
-0.825
-0.815
-0.835
-0.84
-0.86
-0.88
-0.89
-0.89
-0.895
-0.885
-0.88
-0.89
-0.91
-0.94
-0.955
-0.965
-0.975
-0.99
-1.0
-0.995
-1.01
-1.01
-0.995
-0.985
-0.99
-1.015
-1.005
-1.015
-1.025
-1.045
-1.045
-1.04
-1.045
-1.04
-1.02
-1.01
-1.02
-1.025
-1.03
-1.04
-1.045
-1.03
-1.04
-1.03
-1.03
-1.005
-0.99
-0.995
-0.99
-0.985
-0.93
-0.905
-0.82
-0.73
-0.585
-0.425
-0.265
-0.125
-0.02
0.03
-0.005
-0.115
-0.325
-0.575
-0.86
-1.135
-1.39
-1.53
-1.55
-1.49
-1.38
-1.27
-1.2
-1.12
-1.085
-1.06
-1.035
-1.02
-1.01
-0.995
-0.985
-0.96
-0.965
-0.96
-0.96
-0.96
-0.965
-0.975
-0.985
-0.985
-0.98
-0.965
-0.965
-0.96
-0.96
-0.935
-0.93
-0.93
-0.94
-0.95
-0.955
-0.95
-0.93
-0.935
-0.915
-0.915
-0.915
-0.89
-0.895
-0.895
-0.89
-0.915
-0.91
-0.915
-0.915
-0.905
-0.88
-0.875
-0.865
-0.855
-0.85
-0.87
-0.875
-0.88
-0.88
-0.87
-0.88
-0.87
-0.835
-0.825
-0.805
-0.795
-0.8
-0.795
-0.78
-0.79
-0.79
-0.785
-0.785
-0.755
-0.745
-0.725
-0.705
-0.685
-0.675
-0.665
-0.67
-0.675
-0.66
-0.65
-0.65
-0.615
-0.585
-0.555
-0.535
-0.51
-0.51
-0.5
-0.465
-0.48
-0.475
-0.49
-0.465
-0.435
-0.425
-0.39
-0.39
-0.37
-0.385
-0.37
-0.365
-0.365
-0.375
-0.38
-0.38
-0.385
-0.39
-0.38
-0.39
-0.39
-0.42
-0.45
-0.48
-0.495
-0.535
-0.565
-0.61
-0.62
-0.64
-0.655
-0.66
-0.685
-0.71
-0.735
-0.78
-0.81
-0.84
-0.875
-0.885
-0.885
-0.9
-0.9
-0.905
-0.915
-0.905
-0.92
-0.945
-0.95
-0.985
-0.98
-0.99
-0.995
-0.99
-0.975
-0.985
-0.97
-0.985
-0.98
-0.99
-0.995
-0.995
-1.02
-1.01
-0.995
-0.98
-0.99
-0.965
-0.95
-0.96
-0.965
-0.96
-0.97
-0.97
-0.975
-0.975
-0.97
-0.98
-0.95
-0.95
-0.945
-0.94
-0.945
-0.95
-0.945
-0.975
-0.975
-0.975
-0.98
-0.97
-0.965
-0.96
-0.945
-0.94
-0.935
-0.955
-0.98
-0.995
-0.99
-0.99
-1.0
-1.0
-0.975
-0.975
-0.97
-0.955
-0.97
-0.975
-0.99
-0.995
-1.025
-1.015
-1.015
-1.005
-0.995
-0.975
-0.985
-0.995
-0.995
-1.0
-1.015
-1.01
-1.015
-1.015
-1.015
-1.015
-1.01
-1.0
-0.985
-0.995
-0.995
-1.005
-1.005
-1.015
-1.015
-1.035
-1.015
-1.03
-1.025
-1.0
-0.99
-1.0
-1.01
-1.0
-1.025
-1.025
-1.035
-1.06
-1.055
-1.035
-1.02
-1.01
-0.995
-1.0
-1.0
-1.0
-1.02
-1.025
-1.02
-1.02
-1.02
-1.015
-1.005
-1.01
-0.99
-0.99
-0.995
-1.005
-1.01
-1.025
-1.035
-1.02
-1.02
-1.015
-1.01
-1.005
-1.0
-0.99
-1.005
-1.005
-1.01
-1.015
-1.025
-1.02
-1.035
-1.02
-1.025
-1.01
-1.015
-1.015
-1.005
-1.01
-1.025
-1.035
-1.015
-1.025
-1.015
-1.005
-0.99
-0.995
-0.98
-0.995
-0.99
-1.0
-1.005
-1.0
-1.02
-1.02
-1.005
-0.99
-0.99
-0.985
-0.98
-0.975
-0.97
-0.995
-1.015
-1.02
-1.0
-1.0
-1.0
-0.995
-0.99
-0.99
-0.97
-0.98
-0.99
-0.975
-0.985
-0.995
-1.0
-0.995
-1.01
-0.995
-0.975
-0.985
-0.98
-0.97
-0.975
-0.975
-0.98
-0.985
-0.995
-0.995
-0.99
-0.985
-0.97
-0.955
-0.955
-0.955
-0.955
-0.97
-0.97
-0.97
-0.985
-0.985
-0.98
-0.98
-0.97
-0.965
-0.955
-0.955
-0.95
-0.965
-0.965
-0.975
-0.975
-0.98
-0.98
-0.96
-0.96
-0.955
-0.92
-0.915
-0.9
-0.91
-0.9
-0.915
-0.905
-0.895
-0.885
-0.865
-0.825
-0.81
-0.815
-0.79
-0.78
-0.805
-0.83
-0.845
-0.87
-0.875
-0.875
-0.87
-0.89
-0.89
-0.9
-0.925
-0.935
-0.93
-0.965
-0.97
-0.98
-0.985
-0.99
-0.97
-0.98
-0.98
-0.965
-0.965
-0.98
-0.99
-0.995
-1.005
-1.0
-1.015
-1.015
-1.0
-0.99
-1.005
-0.97
-0.975
-0.975
-0.99
-0.99
-1.005
-1.005
-0.99
-0.98
-0.965
-0.965
-0.955
-0.925
-0.895
-0.84
-0.76
-0.69
-0.615
-0.495
-0.39
-0.305
-0.24
-0.265
-0.365
-0.495
-0.715
-0.96
-1.175
-1.405
-1.555
-1.65
-1.65
-1.57
-1.46
-1.35
-1.265
-1.19
-1.16
-1.115
-1.07
-1.03
-0.98
-0.965
-0.945
-0.94
-0.925
-0.93
-0.92
-0.905
-0.91
-0.905
-0.905
-0.915
-0.915
-0.895
-0.89
-0.895
-0.905
-0.915
-0.89
-0.895
-0.88
-0.89
-0.89
-0.895
-0.875
-0.88
-0.87
-0.875
-0.865
-0.865
-0.845
-0.83
-0.83
-0.84
-0.835
-0.84
-0.84
-0.845
-0.855
-0.84
-0.83
-0.83
-0.805
-0.795
-0.8
-0.795
-0.805
-0.79
-0.775
-0.8
-0.785
-0.785
-0.77
-0.765
-0.75
-0.73
-0.74
-0.71
-0.715
-0.7
-0.7
-0.705
-0.67
-0.66
-0.64
-0.625
-0.605
-0.58
-0.57
-0.565
-0.54
-0.53
-0.52
-0.51
-0.495
-0.475
-0.46
-0.425
-0.425
-0.37
-0.36
-0.35
-0.34
-0.33
-0.335
-0.335
-0.34
-0.33
-0.315
-0.305
-0.295
-0.3
-0.315
-0.315
-0.3
-0.315
-0.335
-0.355
-0.36
-0.39
