Lead II
-0.355
-0.355
-0.35
-0.34
-0.345
-0.35
-0.355
-0.34
-0.335
-0.34
-0.355
-0.355
-0.365
-0.355
-0.35
-0.34
-0.34
-0.345
-0.335
-0.325
-0.3
-0.28
-0.27
-0.27
-0.285
-0.275
-0.255
-0.26
-0.25
-0.245
-0.25
-0.25
-0.225
-0.215
-0.22
-0.235
-0.25
-0.25
-0.265
-0.285
-0.29
-0.295
-0.285
-0.27
-0.245
-0.26
-0.275
-0.3
-0.32
-0.315
-0.325
-0.315
-0.34
-0.36
-0.37
-0.37
-0.355
-0.385
-0.385
-0.405
-0.41
-0.39
-0.38
-0.39
-0.385
-0.41
-0.405
-0.395
-0.39
-0.38
-0.38
-0.39
-0.41
-0.4
-0.385
-0.375
-0.385
-0.38
-0.38
-0.385
-0.395
-0.41
-0.465
-0.55
-0.555
-0.5
-0.415
-0.335
-0.205
0.025
0.375
0.745
1.105
1.41
1.655
1.795
1.81
1.66
1.26
0.71
0.185
-0.215
-0.43
-0.505
-0.525
-0.5
-0.42
-0.355
-0.33
-0.335
-0.36
-0.37
-0.39
-0.38
-0.385
-0.385
-0.39
-0.405
-0.41
-0.41
-0.425
-0.43
-0.425
-0.415
-0.42
-0.425
-0.425
-0.42
-0.42
-0.435
-0.43
-0.43
-0.435
-0.43
-0.425
-0.41
-0.425
-0.43
-0.43
-0.42
-0.4
-0.41
-0.41
-0.41
-0.405
-0.41
-0.4
-0.41
-0.405
-0.415
-0.4
-0.385
-0.38
-0.365
-0.355
-0.355
-0.36
-0.345
-0.33
-0.325
-0.315
-0.315
-0.31
-0.285
-0.265
-0.24
-0.22
-0.215
-0.2
-0.175
-0.15
-0.125
-0.11
-0.09
-0.085
-0.05
-0.04
-0.02
-0.02
0.0
0.02
0.035
0.06
0.075
0.075
0.075
0.085
0.1
0.105
0.12
0.115
0.12
0.105
0.115
0.13
0.125
0.12
0.09
0.07
0.055
0.04
0.02
0.005
-0.02
-0.04
-0.06
-0.075
-0.105
-0.13
-0.15
-0.185
-0.205
-0.215
-0.205
-0.215
-0.23
-0.255
-0.25
-0.26
-0.265
-0.27
-0.285
-0.295
-0.285
-0.285
-0.275
-0.285
-0.295
-0.3
-0.29
-0.29
-0.295
-0.295
-0.295
-0.31
-0.295
-0.295
-0.28
-0.285
-0.295
-0.3
-0.295
-0.29
-0.29
-0.28
-0.28
-0.295
-0.275
-0.27
-0.265
-0.28
-0.285
-0.28
-0.265
-0.26
-0.265
-0.245
-0.26
-0.26
-0.26
-0.26
-0.24
-0.235
-0.25
-0.26
-0.25
-0.235
-0.235
-0.23
-0.25
-0.255
-0.24
-0.235
-0.24
-0.245
-0.255
-0.26
-0.255
-0.255
-0.265
-0.265
-0.275
-0.28
-0.275
-0.275
-0.28
-0.29
-0.29
-0.305
-0.285
-0.285
-0.3
-0.305
-0.325
-0.325
-0.31
-0.31
-0.305
-0.32
-0.34
-0.335
-0.33
-0.325
-0.33
-0.335
-0.345
-0.34
-0.335
-0.32
-0.325
-0.34
-0.35
-0.345
-0.335
-0.335
-0.33
-0.335
-0.34
-0.345
-0.345
-0.34
-0.34
-0.335
-0.345
-0.34
-0.34
-0.335
-0.33
-0.345
-0.34
-0.355
-0.345
-0.34
-0.335
-0.345
-0.355
-0.35
-0.345
-0.34
-0.335
-0.335
-0.35
-0.345
-0.34
-0.32
-0.325
-0.325
-0.325
-0.315
-0.305
-0.275
-0.255
-0.26
-0.27
-0.26
-0.26
-0.27
-0.245
-0.245
-0.245
-0.24
-0.235
-0.22
-0.225
-0.22
-0.235
-0.26
-0.26
-0.255
-0.275
-0.3
-0.295
-0.3
-0.28
-0.27
-0.27
-0.275
-0.295
-0.325
-0.34
-0.34
-0.345
-0.36
-0.375
-0.375
-0.375
-0.37
-0.38
-0.4
-0.405
-0.395
-0.4
-0.395
-0.395
-0.39
-0.4
-0.405
-0.39
-0.4
-0.395
-0.4
-0.395
-0.4
-0.39
-0.4
-0.385
-0.395
-0.41
-0.425
-0.46
-0.49
-0.51
-0.475
-0.415
-0.33
-0.17
0.085
0.425
0.76
1.055
1.32
1.54
1.665
1.62
1.35
0.895
0.4
-0.04
-0.33
-0.505
-0.585
-0.555
-0.49
-0.37
-0.325
-0.35
-0.37
-0.395
-0.4
-0.38
-0.375
-0.395
-0.415
-0.425
-0.435
-0.43
-0.425
-0.43
-0.435
-0.44
-0.445
-0.445
-0.44
-0.44
-0.445
-0.45
-0.45
-0.445
-0.43
-0.44
-0.44
-0.445
-0.445
-0.445
-0.44
-0.44
-0.435
-0.445
-0.445
-0.43
-0.43
-0.42
-0.42
-0.435
-0.43
-0.41
-0.395
-0.395
-0.39
-0.39
-0.405
-0.37
-0.355
-0.34
-0.35
-0.35
-0.335
-0.315
-0.285
-0.27
-0.26
-0.255
-0.255
-0.22
-0.195
-0.175
-0.165
-0.145
-0.125
-0.11
-0.075
-0.065
-0.05
-0.045
-0.03
0.0
0.015
0.04
0.045
0.05
0.05
0.075
0.08
0.09
0.085
0.09
0.085
0.095
0.09
0.08
0.075
0.045
0.04
0.03
0.02
0.0
-0.025
-0.055
-0.09
-0.095
-0.12
-0.14
-0.165
-0.19
-0.2
-0.225
-0.23
-0.245
-0.25
-0.27
-0.285
-0.29
-0.29
-0.29
-0.3
-0.315
-0.315
-0.31
-0.305
-0.32
-0.32
-0.33
-0.34
-0.32
-0.31
-0.32
-0.325
-0.335
-0.335
-0.32
-0.325
-0.325
-0.315
-0.32
-0.325
-0.32
-0.305
-0.3
-0.305
-0.305
-0.31
-0.3
-0.28
-0.285
-0.29
-0.29
-0.295
-0.275
-0.27
-0.27
-0.265
-0.275
-0.275
-0.27
-0.255
-0.26
-0.26
-0.265
-0.28
-0.26
-0.245
-0.25
-0.265
-0.265
-0.28
-0.275
-0.27
-0.285
-0.29
-0.295
-0.3
-0.28
-0.27
-0.275
-0.29
-0.3
-0.31
-0.295
-0.3
-0.305
-0.305
-0.325
-0.335
-0.33
-0.315
-0.315
-0.325
-0.33
-0.345
-0.34
-0.335
-0.33
-0.35
-0.34
-0.355
-0.36
-0.34
-0.35
-0.36
-0.365
-0.37
-0.355
-0.355
-0.36
-0.365
-0.36
-0.37
-0.365
-0.355
-0.355
-0.385
-0.38
-0.365
-0.36
-0.35
-0.36
-0.37
-0.38
-0.375
-0.37
-0.355
-0.355
-0.37
-0.37
-0.38
-0.38
-0.365
-0.36
-0.365
-0.37
-0.37
-0.37
-0.365
-0.365
-0.36
-0.38
-0.37
-0.36
-0.34
-0.335
-0.335
-0.32
-0.305
-0.295
-0.285
-0.28
-0.28
-0.295
-0.28
-0.26
-0.235
-0.24
-0.245
-0.25
-0.255
-0.24
-0.235
-0.24
-0.255
-0.275
-0.305
-0.325
-0.295
-0.28
-0.27
-0.275
-0.285
-0.295
-0.305
-0.325
-0.355
-0.37
-0.38
-0.38
-0.37
-0.375
-0.385
-0.405
-0.42
-0.42
-0.405
-0.405
-0.41
-0.425
-0.43
-0.42
-0.415
-0.42
-0.41
-0.42
-0.425
-0.41
-0.4
-0.415
-0.41
-0.405
-0.415
-0.43
-0.43
-0.455
-0.525
-0.585
-0.585
-0.525
-0.44
-0.35
-0.2
0.095
0.47
0.89
1.265
1.585
1.81
1.91
1.805
1.47
0.935
0.35
-0.135
-0.42
-0.525
-0.535
-0.515
-0.435
-0.355
-0.325
-0.335
-0.355
-0.375
-0.38
-0.39
-0.395
-0.405
-0.405
-0.415
-0.435
-0.45
-0.455
-0.46
-0.455
-0.445
-0.45
-0.46
-0.47
-0.485
-0.47
-0.46
-0.46
-0.465
-0.47
-0.475
-0.46
-0.46
-0.45
-0.47
-0.465
-0.47
-0.445
-0.435
-0.435
-0.45
-0.45
-0.445
-0.435
-0.425
-0.43
-0.43
-0.425
-0.425
-0.41
-0.405
-0.395
-0.405
-0.405
-0.395
-0.38
-0.365
-0.355
-0.35
-0.345
-0.35
-0.325
-0.31
-0.3
-0.285
-0.27
-0.255
-0.225
-0.2
-0.18
-0.165
-0.18
-0.16
-0.105
-0.075
-0.05
-0.04
-0.025
-0.01
0.015
0.035
0.04
0.05
0.065
0.08
0.095
0.12
0.14
0.14
0.135
0.135
0.15
0.165
0.16
0.145
0.135
0.125
0.115
0.11
0.085
0.055
0.025
-0.005
-0.02
-0.03
-0.05
-0.08
-0.105
-0.14
-0.16
-0.16
-0.185
-0.215
-0.23
-0.255
-0.25
-0.255
-0.265
-0.285
-0.31
-0.32
-0.315
-0.305
-0.315
-0.31
-0.325
-0.33
-0.325
-0.315
-0.31
-0.31
-0.32
-0.325
-0.315
-0.31
-0.31
-0.315
-0.315
-0.325
-0.315
-0.305
-0.3
-0.31
-0.315
-0.32
-0.31
-0.305
-0.3
-0.295
-0.3
-0.305
-0.295
-0.28
-0.285
-0.275
-0.29
-0.295
-0.29
-0.275
-0.28
-0.29
-0.29
-0.295
-0.28
-0.27
-0.27
-0.285
-0.275
-0.29
-0.275
-0.27
-0.265
-0.27
-0.27
-0.28
-0.275
-0.28
-0.28
-0.295
-0.305
-0.31
-0.29
-0.275
-0.275
-0.28
-0.29
-0.295
-0.305
-0.305
-0.295
-0.295
-0.31
-0.33
-0.325
-0.325
-0.33
-0.325
-0.34
-0.34
-0.35
-0.325
-0.33
-0.335
-0.335
-0.35
-0.355
-0.335
-0.345
-0.355
-0.365
-0.36
-0.36
-0.345
-0.355
-0.355
-0.37
-0.365
-0.37
-0.365
-0.355
-0.37
-0.37
-0.385
-0.38
-0.37
-0.36
-0.38
-0.37
-0.385
-0.375
-0.36
-0.36
-0.36
-0.375
-0.38
-0.38
-0.36
-0.37
-0.375
-0.375
-0.385
-0.37
-0.355
-0.36
-0.375
-0.38
-0.39
-0.38
-0.375
-0.36
-0.38
-0.385
-0.39
-0.385
-0.375
-0.38
-0.375
-0.375
-0.38
-0.365
-0.35
-0.345
-0.33
-0.32
-0.32
-0.31
-0.295
-0.3
-0.3
-0.305
-0.29
-0.27
-0.25
-0.25
-0.27
-0.27
-0.275
-0.26
-0.25
-0.245
-0.265
-0.285
-0.305
-0.315
-0.32
-0.325
-0.315
-0.315
-0.31
-0.305
-0.3
-0.31
-0.335
-0.34
-0.355
-0.365
-0.36
-0.37
-0.385
-0.395
-0.415
-0.41
-0.41
-0.42
-0.425
-0.43
-0.44
-0.43
-0.425
-0.43
-0.435
-0.44
-0.445
-0.435
-0.43
-0.435
-0.425
-0.445
-0.455
-0.43
-0.435
-0.425
-0.425
-0.44
-0.455
-0.435
-0.42
-0.425
-0.46
-0.505
-0.555
-0.6
-0.59
-0.555
-0.485
-0.415
-0.295
-0.055
0.265
0.615
0.97
1.275
1.57
1.8
1.91
1.885
1.68
1.27
0.725
0.205
-0.175
-0.4
-0.51
-0.555
-0.565
-0.515
-0.425
-0.34
-0.34
-0.38
-0.41
-0.415
-0.405
-0.41
-0.41
-0.44
-0.455
-0.46
-0.455
-0.465
-0.465
-0.475
-0.49
-0.48
-0.48
-0.47
-0.485
-0.5
-0.495
-0.485
-0.475
-0.48
-0.48
-0.49
-0.485
-0.475
-0.47
-0.475
-0.48
-0.485
-0.485
-0.485
-0.47
-0.46
-0.465
-0.47
-0.48
-0.465
-0.46
-0.45
-0.46
-0.455
-0.46
-0.445
-0.435
-0.42
-0.42
-0.42
-0.425
-0.405
-0.395
-0.385
-0.375
-0.365
-0.365
-0.35
-0.325
-0.31
-0.31
-0.31
-0.285
-0.25
-0.225
-0.21
-0.185
-0.17
-0.165
-0.135
-0.1
-0.08
-0.07
-0.065
-0.04
-0.02
0.0
0.02
0.03
0.025
0.04
0.05
0.075
0.085
0.075
0.08
0.08
0.105
0.11
0.115
0.11
0.085
0.075
0.075
0.065
0.06
0.045
0.015
-0.01
-0.035
-0.055
-0.075
-0.115
-0.145
-0.17
-0.185
-0.21
-0.22
-0.24
-0.25
-0.275
-0.29
-0.29
-0.295
-0.3
-0.325
-0.32
-0.32
-0.325
-0.33
-0.345
-0.35
-0.355
-0.34
-0.355
-0.345
-0.345
-0.36
-0.36
-0.355
-0.345
-0.34
-0.34
-0.35
-0.355
-0.345
-0.335
-0.33
-0.335
-0.345
-0.34
-0.33
-0.33
-0.325
-0.335
-0.34
-0.335
-0.335
-0.31
-0.305
-0.31
-0.315
-0.315
-0.32
-0.31
-0.305
-0.305
-0.31
-0.325
-0.31
-0.3
-0.295
-0.295
-0.31
-0.315
-0.305
-0.29
-0.295
-0.305
-0.315
-0.32
-0.325
-0.31
-0.31
-0.315
-0.315
-0.335
-0.325
-0.315
-0.315
-0.33
-0.34
-0.36
-0.355
-0.35
-0.34
-0.34
-0.34
-0.355
-0.35
-0.36
-0.355
-0.36
-0.37
-0.385
-0.375
-0.37
-0.37
-0.375
-0.375
-0.38
-0.385
-0.375
-0.375
-0.375
-0.395
-0.39
-0.39
-0.38
-0.38
-0.39
-0.39
-0.41
-0.395
-0.385
-0.39
-0.395
-0.4
-0.405
-0.395
-0.39
-0.39
-0.39
-0.39
-0.395
-0.39
-0.39
-0.38
-0.38
-0.4
-0.41
-0.395
-0.375
-0.38
-0.385
-0.395
-0.395
-0.39
-0.375
-0.385
-0.39
-0.4
-0.39
-0.385
-0.365
-0.355
-0.355
-0.355
-0.36
-0.34
-0.315
-0.315
-0.31
-0.305
-0.31
-0.295
-0.275
-0.275
-0.28
-0.285
-0.295
-0.285
-0.27
-0.26
-0.26
-0.275
-0.3
-0.305
-0.305
-0.315
-0.325
-0.335
-0.335
-0.31
-0.305
-0.295
-0.305
-0.335
-0.36
-0.365
-0.365
-0.365
-0.36
-0.39
-0.405
-0.4
-0.39
-0.39
-0.4
-0.415
-0.43
-0.435
-0.43
-0.43
-0.435
-0.44
-0.455
-0.44
-0.43
-0.43
-0.415
-0.435
-0.435
-0.44
-0.415
-0.425
-0.42
-0.435
-0.445
-0.43
-0.425
-0.445
-0.495
-0.535
-0.55
-0.515
-0.47
-0.4
-0.285
-0.08
0.215
0.565
0.88
1.175
1.43
1.605
1.65
1.56
1.275
0.815
0.315
-0.105
-0.385
-0.54
-0.59
-0.595
-0.525
-0.425
-0.375
-0.37
-0.39
-0.41
-0.405
-0.41
-0.425
-0.4
-0.42
-0.425
-0.435
-0.44
-0.455
-0.455
-0.44
-0.45
-0.455
-0.465
-0.465
-0.47
-0.45
-0.45
-0.465
-0.465
-0.475
-0.465
-0.465
-0.455
-0.455
-0.455
-0.465
-0.455
-0.445
-0.455
-0.45
-0.455
-0.455
-0.445
-0.44
-0.445
-0.435
-0.43
-0.44
-0.435
-0.41
-0.415
-0.415
-0.42
-0.42
-0.395
-0.39
-0.375
-0.38
-0.375
-0.37
-0.35
-0.33
-0.325
-0.315
-0.305
-0.285
-0.275
-0.25
-0.23
-0.22
-0.205
-0.185
-0.17
-0.145
-0.13
-0.1
-0.09
-0.08
-0.05
-0.04
-0.015
-0.01
0.01
0.015
0.03
0.05
0.055
0.065
0.05
0.06
0.075
0.08
0.08
0.085
0.06
0.045
0.035
0.02
0.0
-0.005
-0.02
-0.055
-0.075
-0.085
-0.115
-0.12
-0.165
-0.19
-0.195
-0.2
-0.205
-0.23
-0.255
-0.275
-0.285
-0.28
-0.28
-0.295
-0.31
-0.305
-0.305
-0.29
-0.305
-0.315
-0.335
-0.345
-0.33
-0.315
-0.305
-0.315
-0.32
-0.32
-0.31
-0.305
-0.305
-0.315
-0.32
-0.335
-0.31
-0.3
-0.29
-0.295
-0.295
-0.305
-0.31
-0.28
-0.265
-0.28
-0.29
-0.29
-0.285
-0.26
-0.265
-0.265
-0.275
-0.275
-0.26
-0.255
-0.26
-0.255
-0.265
-0.265
-0.26
-0.255
-0.245
-0.265
-0.265
-0.28
-0.275
-0.28
-0.26
-0.27
-0.265
-0.275
-0.29
-0.28
-0.28
-0.29
-0.3
-0.31
-0.295
-0.295
-0.29
-0.3
-0.31
-0.32
-0.32
-0.325
-0.31
-0.32
-0.33
-0.33
-0.33
-0.33
-0.34
-0.335
-0.355
-0.365
-0.345
-0.355
-0.34
-0.355
-0.36
-0.355
-0.355
-0.345
-0.36
-0.365
-0.37
-0.39
-0.375
-0.37
-0.375
-0.375
-0.38
-0.4
-0.37
-0.37
-0.36
-0.365
-0.38
-0.37
-0.375
-0.38
-0.355
-0.365
-0.38
-0.38
-0.37
-0.36
-0.37
-0.355
-0.37
-0.39
-0.365
-0.36
-0.37
-0.365
-0.365
-0.375
-0.35
-0.35
-0.33
-0.315
-0.31
-0.31
-0.295
-0.29
-0.285
-0.28
-0.285
-0.285
-0.275
-0.255
-0.235
-0.255
-0.26
-0.26
-0.245
-0.24
-0.24
-0.25
-0.27
-0.3
-0.295
-0.305
-0.32
-0.305
-0.295
-0.285
-0.285
-0.275
-0.295
-0.32
-0.34
-0.36
-0.355
-0.365
-0.375
-0.38
-0.39
-0.39
-0.395
-0.4
-0.4
-0.395
-0.405
-0.415
-0.405
-0.395
-0.4
-0.405
-0.42
-0.42
-0.41
-0.41
-0.405
-0.4
-0.4
-0.41
-0.405
-0.395
-0.39
-0.4
-0.44
-0.5
-0.535
-0.535
-0.485
-0.43
-0.345
-0.205
0.09
0.45
0.815
1.15
1.435
1.625
1.735
1.69
1.45
0.965
0.43
-0.065
-0.385
-0.525
-0.57
-0.54
-0.465
-0.37
-0.315
-0.315
-0.34
-0.365
-0.375
-0.38
-0.375
-0.375
-0.395
-0.41
-0.435
-0.44
-0.43
-0.42
-0.425
-0.435
-0.435
-0.445
-0.435
-0.43
-0.44
-0.43
-0.435
-0.44
-0.44
-0.425
-0.42
-0.435
-0.445
-0.44
-0.435
-0.42
-0.41
-0.44
-0.435
-0.435
-0.425
-0.405
-0.415
-0.405
-0.41
-0.415
-0.395
-0.38
-0.385
-0.38
-0.38
-0.385
-0.355
-0.35
-0.34
-0.325
-0.33
-0.32
-0.31
-0.28
-0.265
-0.255
-0.245
-0.23
-0.215
-0.185
-0.16
-0.155
-0.145
-0.135
-0.1
-0.085
-0.06
-0.06
-0.035
-0.025
-0.01
0.015
0.04
0.045
0.05
0.055
0.075
0.095
0.095
0.095
0.1
0.1
0.095
0.11
0.095
0.095
0.07
0.05
0.04
0.025
0.01
-0.005
-0.05
-0.065
-0.085
-0.09
-0.11
-0.14
-0.165
-0.195
-0.2
-0.21
-0.22
-0.235
-0.255
-0.28
-0.275
-0.27
-0.275
-0.29
-0.3
-0.29
-0.29
-0.29
-0.295
-0.31
-0.315
-0.32
-0.31
-0.295
-0.31
-0.31
-0.31
-0.31
-0.31
-0.305
-0.3
-0.3
-0.31
-0.31
-0.3
-0.29
-0.295
-0.31
-0.305
-0.3
-0.295
-0.285
-0.28
-0.28
-0.285
-0.29
-0.275
-0.265
-0.265
-0.27
-0.28
-0.27
-0.265
-0.26
-0.26
-0.27
-0.265
-0.275
-0.27
-0.265
-0.25
-0.265
-0.265
-0.27
-0.265
-0.245
-0.245
-0.26
-0.27
-0.285
-0.285
-0.27
-0.265
-0.265
-0.285
-0.295
-0.29
-0.29
-0.295
-0.305
-0.315
-0.325
-0.305
-0.31
-0.31
-0.32
-0.335
-0.345
-0.335
-0.34
-0.33
-0.34
-0.335
-0.345
-0.34
-0.335
-0.335
-0.34
-0.345
-0.355
-0.345
-0.33
-0.34
-0.335
-0.36
-0.37
-0.365
-0.36
-0.35
-0.365
-0.375
-0.385
-0.36
-0.37
-0.36
-0.36
-0.375
-0.385
-0.375
-0.375
-0.355
-0.36
-0.365
-0.375
-0.375
-0.365
-0.355
-0.36
-0.365
-0.375
-0.36
-0.36
-0.345
-0.345
-0.345
-0.35
-0.33
-0.3
-0.28
-0.28
-0.285
-0.285
-0.285
-0.27
-0.265
-0.245
-0.25
-0.27
-0.25
-0.24
-0.24
-0.235
-0.255
-0.275
-0.28
-0.29
-0.285
-0.3
-0.295
-0.29
-0.285
-0.285
-0.285
-0.3
-0.33
-0.35
-0.355
-0.35
-0.365
-0.37
-0.4
-0.4
-0.4
-0.4
-0.4
-0.41
-0.415
-0.42
-0.42
-0.405
-0.41
-0.41
-0.41
-0.425
-0.425
-0.41
-0.4
-0.415
-0.415
-0.42
-0.415
-0.425
-0.47
-0.54
-0.575
-0.565
-0.5
-0.415
-0.29
-0.07
0.26
0.625
1.025
1.375
1.65
1.81
1.815
1.605
1.18
0.595
0.065
-0.315
-0.495
-0.55
-0.52
-0.445
-0.365
-0.31
-0.325
-0.37
-0.385
-0.375
-0.38
-0.38
-0.405
-0.44
-0.435
-0.435
-0.445
-0.46
-0.465
-0.47
-0.46
-0.47
-0.46
-0.465
-0.47
-0.485
-0.475
-0.455
-0.445
-0.455
-0.47
-0.47
-0.46
-0.46
-0.46
-0.46
-0.47
-0.46
-0.445
-0.425
-0.435
-0.425
-0.435
-0.445
-0.42
-0.425
-0.425
-0.415
-0.4
-0.405
-0.4
-0.385
-0.375
-0.365
-0.355
-0.345
-0.34
-0.305
-0.29
-0.285
-0.275
-0.26
-0.245
-0.21
-0.2
-0.175
-0.16
-0.15
-0.125
-0.095
-0.085
-0.065
-0.05
-0.035
-0.01
-0.005
0.02
0.025
0.04
0.04
0.06
0.065
0.075
0.075
0.09
0.085
0.095
0.1
0.11
0.1
0.085
0.07
0.06
0.045
0.045
0.02
-0.01
-0.04
-0.055
-0.07
-0.095
-0.11
-0.155
-0.18
-0.185
-0.2
-0.225
-0.24
-0.26
-0.28
-0.275
-0.285
-0.295
-0.3
-0.305
-0.315
-0.32
-0.31
-0.31
-0.31
-0.33
-0.325
-0.33
-0.325
-0.32
-0.32
-0.325
-0.335
-0.33
-0.31
-0.315
-0.305
-0.325
-0.325
-0.315
-0.305
-0.3
-0.31
-0.31
-0.31
-0.305
-0.29
-0.295
-0.285
-0.3
-0.305
-0.29
-0.295
-0.275
-0.28
-0.285
-0.29
-0.28
-0.275
-0.275
-0.285
-0.28
-0.295
-0.275
-0.28
-0.27
-0.28
-0.29
-0.305
-0.295
-0.28
-0.285
-0.285
-0.295
-0.305
-0.3
-0.29
-0.29
-0.295
-0.3
-0.325
-0.305
-0.3
-0.295
-0.315
-0.32
-0.34
-0.34
-0.32
-0.34
-0.325
-0.355
-0.345
-0.34
-0.345
-0.345
-0.345
-0.35
-0.38
-0.355
-0.355
-0.355
-0.37
-0.375
-0.38
-0.37
-0.355
-0.355
-0.37
-0.38
-0.385
-0.375
-0.38
-0.375
-0.38
-0.385
-0.385
-0.38
-0.375
-0.37
-0.38
-0.385
-0.4
-0.385
-0.365
-0.38
-0.37
-0.375
-0.385
-0.385
-0.375
-0.365
-0.385
-0.39
-0.395
-0.38
-0.37
-0.36
-0.36
-0.36
-0.375
-0.365
-0.34
-0.32
-0.31
-0.325
-0.305
-0.305
-0.285
-0.27
-0.275
-0.265
-0.29
-0.27
-0.265
-0.255
-0.26
-0.265
-0.285
-0.275
-0.295
-0.3
-0.32
-0.32
-0.325
-0.32
-0.31
-0.31
-0.31
-0.325
-0.345
-0.345
-0.345
-0.35
-0.35
-0.38
-0.4
-0.4
-0.38
-0.395
-0.41
-0.425
-0.43
-0.42
-0.42
-0.425
-0.43
-0.435
-0.435
-0.425
-0.435
-0.43
-0.425
-0.43
-0.435
-0.44
-0.425
-0.42
-0.42
-0.43
-0.44
-0.47
-0.52
-0.57
-0.58
-0.55
-0.485
-0.37
-0.205
0.08
0.425
0.785
1.11
1.41
1.65
1.755
1.73
1.52
1.095
0.54
0.045
-0.315
-0.495
-0.57
-0.565
-0.53
-0.445
-0.37
-0.355
-0.375
-0.415
-0.415
-0.395
-0.39
-0.395
-0.425
-0.435
-0.445
-0.45
-0.45
-0.465
-0.48
-0.475
-0.475
-0.455
-0.465
-0.465
-0.47
-0.485
-0.48
-0.475
-0.465
-0.465
-0.475
-0.485
-0.47
-0.46
-0.46
-0.465
-0.47
-0.48
-0.47
-0.455
-0.44
-0.44
-0.435
-0.455
-0.445
-0.435
-0.435
-0.435
-0.435
-0.44
-0.415
-0.415
-0.395
-0.395
-0.395
-0.405
-0.395
-0.38
-0.365
-0.345
-0.35
-0.345
-0.32
-0.3
-0.285
-0.27
-0.27
-0.255
-0.225
-0.205
-0.185
-0.18
-0.16
-0.15
-0.135
-0.115
-0.105
-0.095
-0.085
-0.07
-0.045
-0.025
-0.015
-0.015
-0.005
-0.005
0.03
0.045
0.055
0.065
0.055
0.055
0.075
0.075
0.075
0.06
0.035
0.015
0.015
0.015
0.0
-0.02
-0.05
-0.08
-0.09
-0.105
-0.125
-0.16
-0.19
-0.2
-0.215
-0.22
-0.235
-0.25
-0.26
-0.275
-0.285
-0.285
-0.295
-0.31
-0.315
-0.325
-0.335
-0.315
-0.315
-0.325
-0.325
-0.335
-0.325
-0.32
-0.315
-0.32
-0.32
-0.325
-0.315
-0.3
-0.31
-0.31
-0.315
-0.315
-0.305
-0.3
-0.29
-0.305
-0.3
-0.305
-0.295
-0.29
-0.295
-0.295
-0.295
-0.31
-0.295
-0.285
-0.275
-0.285
-0.29
-0.295
-0.29
-0.275
-0.285
-0.29
-0.28
-0.285
-0.29
-0.28
-0.28
-0.29
-0.29
-0.3
-0.285
-0.28
-0.27
-0.29
-0.305
-0.315
-0.31
-0.29
-0.3
-0.31
-0.315
-0.325
-0.315
-0.32
-0.32
-0.33
-0.33
-0.34
-0.36
-0.36
-0.345
-0.355
-0.355
-0.36
-0.355
-0.355
-0.355
-0.365
-0.38
-0.385
-0.38
-0.375
-0.37
-0.365
-0.38
-0.385
-0.38
-0.37
-0.355
-0.375
-0.385
-0.4
-0.385
-0.38
-0.37
-0.38
-0.395
-0.395
-0.4
-0.385
-0.38
-0.39
-0.395
-0.39
-0.4
-0.38
-0.365
-0.38
-0.385
-0.39
-0.385
-0.38
-0.38
-0.385
-0.375
-0.38
-0.36
-0.34
-0.32
-0.32
-0.32
-0.315
-0.3
-0.295
-0.285
-0.28
-0.285
-0.305
-0.29
-0.285
-0.28
-0.265
-0.275
-0.295
-0.295
-0.305
-0.32
-0.33
-0.34
-0.345
-0.335
-0.305
-0.305
-0.32
-0.335
-0.36
-0.38
-0.36
-0.37
-0.385
-0.385
-0.395
-0.405
-0.395
-0.405
-0.425
-0.44
-0.435
-0.43
-0.425
-0.425
-0.43
-0.43
-0.435
-0.435
-0.43
-0.41
-0.415
-0.415
-0.43
-0.42
-0.41
-0.41
-0.43
-0.46
-0.52
-0.555
-0.54
-0.495
-0.445
-0.365
-0.2
0.085
0.435
0.785
1.095
1.37
1.555
1.665
1.635
1.385
0.935
0.425
-0.03
-0.345
-0.505
-0.565
-0.59
-0.52
-0.43
-0.36
-0.36
-0.375
-0.39
-0.4
-0.415
-0.405
-0.395
-0.41
-0.44
-0.46
-0.465
-0.46
-0.445
-0.445
-0.45
-0.46
-0.47
-0.465
-0.46
-0.455
-0.46
-0.465
-0.47
-0.465
-0.455
-0.455
-0.46
-0.47
-0.47
-0.465
-0.44
-0.445
-0.45
-0.455
-0.455
-0.435
-0.42
-0.425
-0.42
-0.435
-0.425
-0.43
-0.415
-0.42
-0.415
-0.425
-0.43
-0.41
-0.395
-0.37
-0.38
-0.375
-0.375
-0.36
-0.34
-0.34
-0.325
-0.32
-0.3
-0.275
-0.275
-0.24
-0.235
-0.22
-0.21
-0.185
-0.15
-0.13
-0.13
-0.12
-0.115
-0.1
-0.07
-0.055
-0.04
-0.035
-0.035
-0.015
-0.005
0.015
0.015
0.01
0.015
0.04
0.045
0.04
0.03
0.025
0.02
0.005
0.025
0.02
-0.005
-0.03
-0.045
-0.055
-0.08
-0.09
-0.115
-0.14
-0.175
-0.19
-0.19
-0.2
-0.21
-0.235
-0.26
-0.255
-0.25
-0.275
-0.285
-0.295
-0.31
-0.285
-0.285
-0.3
-0.3
-0.305
-0.33
-0.325
-0.31
-0.305
-0.305
-0.31
-0.32
-0.31
-0.3
-0.29
-0.3
-0.305
-0.32
-0.305
-0.285
-0.29
-0.28
-0.285
-0.29
-0.29
-0.275
-0.28
-0.27
-0.285
-0.27
-0.275
-0.265
-0.265
-0.265
-0.265
-0.255
-0.26
-0.235
-0.25
-0.25
-0.245
-0.265
-0.26
-0.235
-0.24
-0.245
-0.25
-0.245
-0.25
-0.25
-0.25
-0.255
-0.26
-0.26
-0.26
-0.255
-0.275
-0.27
-0.28
-0.29
-0.28
-0.295
-0.285
-0.29
-0.305
-0.31
-0.3
-0.3
-0.31
-0.315
-0.325
-0.325
-0.315
-0.31
-0.31
-0.32
-0.34
-0.335
-0.33
-0.32
-0.32
-0.315
-0.33
-0.345
-0.335
-0.34
-0.33
-0.34
-0.345
-0.35
-0.335
-0.34
-0.335
-0.34
-0.355
-0.365
-0.35
-0.325
-0.33
-0.335
-0.34
-0.345
-0.345
-0.335
-0.33
-0.35
-0.345
-0.35
-0.335
-0.325
-0.32
-0.325
-0.33
-0.32
-0.31
-0.285
-0.26
-0.26
-0.255
-0.255
-0.255
-0.235
-0.235
-0.23
-0.23
-0.24
-0.23
-0.22
-0.215
-0.205
-0.22
-0.235
-0.23
-0.25
-0.26
-0.27
-0.275
-0.27
-0.255
-0.245
-0.25
-0.27
-0.28
-0.31
-0.31
-0.305
-0.305
-0.335
-0.345
-0.355
-0.36
-0.365
-0.355
-0.355
-0.37
-0.375
-0.37
-0.35
-0.355
-0.38
-0.38
-0.385
-0.375
-0.355
-0.365
-0.37
-0.38
-0.375
-0.365
-0.365
-0.38
-0.375
-0.395
-0.44
-0.505
-0.515
-0.5
-0.445
-0.38
-0.28
-0.03
0.295
0.665
1.02
1.34
1.605
1.775
1.82
1.695
1.325
0.81
0.28
-0.125
-0.385
-0.515
-0.53
-0.49
-0.405
-0.32
-0.275
-0.29
-0.325
-0.355
-0.36
-0.345
-0.35
-0.36
-0.395
-0.4
-0.415
-0.415
-0.41
-0.41
-0.42
-0.43
-0.445
-0.435
-0.42
-0.415
-0.42
-0.43
-0.43
-0.425
-0.42
-0.42
-0.435
-0.44
-0.435
-0.43
-0.42
-0.41
-0.415
-0.43
-0.425
-0.42
-0.405
-0.39
-0.395
-0.39
-0.395
-0.39
-0.375
-0.37
-0.37
-0.385
-0.38
-0.365
-0.36
-0.34
-0.335
-0.34
-0.345
-0.32
-0.3
-0.29
-0.285
-0.265
-0.255
-0.25
-0.22
-0.21
-0.2
-0.19
-0.175
-0.145
-0.12
-0.1
-0.095
-0.1
-0.075
-0.05
-0.035
-0.015
0.0
0.01
0.015
0.035
0.06
0.065
0.07
0.06
0.065
0.08
0.095
0.1
0.095
0.1
0.095
0.09
0.095
0.085
0.065
0.055
0.04
0.02
0.01
-0.01
-0.04
-0.06
-0.09
-0.105
-0.115
-0.145
-0.16
-0.195
-0.215
-0.22
-0.24
-0.245
-0.26
-0.27
-0.29
-0.285
-0.27
-0.28
-0.295
-0.3
-0.32
-0.315
-0.29
-0.295
-0.305
-0.305
-0.31
-0.305
-0.295
-0.295
-0.29
-0.305
-0.315
-0.305
-0.3
-0.29
-0.295
-0.295
-0.305
-0.295
-0.28
-0.29
-0.275
-0.29
-0.29
-0.28
-0.275
-0.27
-0.27
-0.27
-0.28
-0.28
-0.275
-0.275
-0.26
-0.28
-0.285
-0.27
-0.26
-0.255
-0.26
-0.265
-0.275
-0.265
-0.25
-0.255
-0.255
-0.265
-0.285
-0.265
-0.26
-0.255
-0.27
-0.29
-0.28
-0.27
-0.27
-0.26
-0.27
-0.285
-0.3
-0.285
-0.29
-0.295
-0.305
-0.305
-0.31
-0.295
-0.295
-0.29
-0.315
-0.32
-0.345
-0.325
-0.315
-0.32
-0.325
-0.33
-0.34
-0.325
-0.325
-0.325
-0.34
-0.35
-0.35
-0.345
-0.345
-0.34
-0.35
-0.35
-0.355
-0.345
-0.34
-0.34
-0.345
-0.36
-0.37
-0.36
-0.355
-0.365
-0.355
-0.375
-0.375
-0.37
-0.36
-0.35
-0.36
-0.375
-0.375
-0.37
-0.365
-0.36
-0.365
-0.38
-0.375
-0.36
-0.36
-0.365
-0.375
-0.365
-0.37
-0.35
-0.35
-0.335
-0.32
-0.32
-0.305
-0.285
-0.27
-0.275
-0.28
-0.275
-0.285
-0.265
-0.24
-0.235
-0.255
-0.245
-0.255
-0.25
-0.235
-0.235
-0.24
-0.25
-0.26
-0.28
-0.275
-0.285
-0.3
-0.305
-0.305
-0.285
-0.28
-0.275
-0.295
-0.31
-0.325
-0.325
-0.32
-0.345
-0.335
-0.36
-0.37
-0.375
-0.375
-0.375
-0.385
-0.41
-0.41
-0.41
-0.405
-0.405
-0.41
-0.415
-0.43
-0.415
-0.415
-0.405
-0.415
-0.41
-0.42
-0.405
-0.4
-0.405
-0.395
-0.405
-0.41
-0.4
-0.4
-0.41
-0.45
-0.525
-0.585
-0.585
-0.545
-0.485
-0.435
-0.355
-0.185
0.105
0.46
0.81
1.145
1.43
1.675
1.83
1.875
1.77
1.465
0.975
0.415
-0.05
-0.355
-0.48
-0.515
-0.525
-0.485
-0.405
-0.32
-0.295
-0.325
-0.365
-0.385
-0.36
-0.36
-0.365
-0.37
-0.39
-0.41
-0.42
-0.415
-0.41
-0.43
-0.44
-0.45
-0.435
-0.435
-0.445
-0.44
-0.44
-0.455
-0.445
-0.44
-0.435
-0.435
-0.45
-0.455
-0.455
-0.44
-0.435
-0.435
-0.435
-0.445
-0.43
-0.43
-0.415
-0.435
-0.43
-0.43
-0.425
-0.415
-0.405
-0.41
-0.415
-0.415
-0.4
-0.385
-0.38
-0.375
-0.38
-0.375
-0.365
-0.355
-0.35
-0.34
-0.35
-0.345
-0.32
-0.305
-0.3
-0.275
-0.285
-0.265
-0.235
-0.215
-0.21
-0.185
-0.175
-0.16
-0.15
-0.12
-0.11
-0.09
-0.08
-0.07
-0.045
-0.025
0.0
0.0
0.01
0.025
0.035
0.055
0.065
0.065
0.08
0.075
0.085
0.105
0.1
0.105
0.1
0.09
0.09
0.09
0.095
0.075
0.065
0.04
0.025
0.02
0.0
-0.03
-0.055
-0.075
-0.085
-0.09
-0.115
-0.145
-0.165
-0.195
-0.205
-0.205
-0.225
-0.23
-0.255
-0.275
-0.255
-0.26
-0.265
-0.28
-0.285
-0.3
-0.295
-0.29
-0.285
-0.285
-0.305
-0.3
-0.295
-0.295
-0.285
-0.29
-0.295
-0.3
-0.305
-0.275
-0.275
-0.28
-0.275
-0.29
-0.285
-0.255
-0.265
-0.26
-0.27
-0.27
-0.26
-0.245
-0.24
-0.255
-0.26
-0.255
-0.25
-0.24
-0.23
-0.24
-0.245
-0.245
-0.235
-0.235
-0.23
-0.235
-0.245
-0.245
-0.245
-0.235
-0.24
-0.245
-0.26
-0.25
-0.255
-0.235
-0.245
-0.245
-0.265
-0.265
-0.27
-0.255
-0.255
-0.265
-0.265
-0.285
-0.275
-0.265
-0.27
-0.275
-0.29
-0.31
-0.295
-0.305
-0.285
-0.295
-0.3
-0.32
-0.315
-0.295
-0.3
-0.305
-0.32
-0.33
-0.32
-0.325
-0.315
-0.33
-0.345
-0.34
-0.345
-0.32
-0.335
-0.335
-0.335
-0.355
-0.345
-0.33
-0.35
-0.34
-0.355
-0.37
-0.355
-0.345
-0.345
-0.35
-0.34
-0.36
-0.365
-0.34
-0.345
-0.345
-0.36
