Lead II
-0.37
-0.385
-0.395
-0.385
-0.375
-0.385
-0.37
-0.395
-0.39
-0.38
-0.365
-0.37
-0.38
-0.39
-0.385
-0.37
-0.35
-0.345
-0.355
-0.36
-0.355
-0.35
-0.34
-0.315
-0.33
-0.345
-0.35
-0.345
-0.315
-0.32
-0.315
-0.32
-0.33
-0.31
-0.295
-0.28
-0.285
-0.28
-0.275
-0.26
-0.24
-0.235
-0.225
-0.235
-0.245
-0.205
-0.19
-0.155
-0.165
-0.165
-0.165
-0.14
-0.11
-0.085
-0.08
-0.08
-0.07
-0.06
-0.03
-0.03
-0.035
-0.02
-0.015
-0.005
0.01
0.02
0.015
0.0
-0.02
-0.03
-0.035
-0.045
-0.06
-0.11
-0.135
-0.14
-0.145
-0.17
-0.205
-0.235
-0.26
-0.295
-0.29
-0.28
-0.295
-0.34
-0.35
-0.345
-0.345
-0.355
-0.375
-0.385
-0.4
-0.38
-0.37
-0.38
-0.39
-0.4
-0.4
-0.375
-0.37
-0.365
-0.375
-0.385
-0.4
-0.385
-0.39
-0.36
-0.365
-0.38
-0.405
-0.36
-0.355
-0.38
-0.375
-0.39
-0.38
-0.37
-0.355
-0.36
-0.365
-0.385
-0.4
-0.39
-0.38
-0.37
-0.37
-0.375
-0.38
-0.385
-0.36
-0.365
-0.36
-0.37
-0.38
-0.365
-0.34
-0.345
-0.345
-0.37
-0.375
-0.365
-0.365
-0.355
-0.355
-0.365
-0.37
-0.355
-0.36
-0.345
-0.34
-0.355
-0.365
-0.35
-0.335
-0.35
-0.38
-0.38
-0.385
-0.38
-0.355
-0.37
-0.345
-0.365
-0.37
-0.36
-0.35
-0.35
-0.355
-0.37
-0.37
-0.355
-0.36
-0.345
-0.355
-0.37
-0.38
-0.375
-0.36
-0.36
-0.345
-0.375
-0.375
-0.36
-0.345
-0.33
-0.345
-0.345
-0.375
-0.365
-0.355
-0.36
-0.39
-0.37
-0.37
-0.37
-0.35
-0.34
-0.345
-0.36
-0.355
-0.355
-0.34
-0.33
-0.335
-0.35
-0.36
-0.365
-0.35
-0.335
-0.35
-0.375
-0.36
-0.36
-0.35
-0.335
-0.345
-0.37
-0.36
-0.345
-0.35
-0.345
-0.34
-0.355
-0.37
-0.355
-0.335
-0.325
-0.34
-0.345
-0.365
-0.34
-0.33
-0.325
-0.335
-0.335
-0.34
-0.335
-0.325
-0.32
-0.32
-0.335
-0.35
-0.335
-0.315
-0.305
-0.315
-0.34
-0.335
-0.32
-0.325
-0.32
-0.32
-0.33
-0.33
-0.32
-0.305
-0.3
-0.325
-0.345
-0.35
-0.33
-0.315
-0.315
-0.33
-0.335
-0.335
-0.315
-0.315
-0.31
-0.315
-0.33
-0.34
-0.325
-0.32
-0.3
-0.315
-0.33
-0.325
-0.33
-0.315
-0.305
-0.31
-0.32
-0.32
-0.305
-0.3
-0.29
-0.305
-0.315
-0.32
-0.305
-0.3
-0.28
-0.29
-0.3
-0.315
-0.285
-0.27
-0.27
-0.275
-0.31
-0.325
-0.32
-0.295
-0.29
-0.27
-0.265
-0.255
-0.24
-0.22
-0.225
-0.23
-0.23
-0.23
-0.22
-0.225
-0.225
-0.245
-0.26
-0.275
-0.285
-0.27
-0.265
-0.305
-0.31
-0.31
-0.295
-0.29
-0.28
-0.295
-0.29
-0.3
-0.305
-0.285
-0.28
-0.28
-0.28
-0.285
-0.275
-0.26
-0.255
-0.265
-0.255
-0.275
-0.255
-0.23
-0.18
-0.16
-0.15
-0.13
-0.09
0.0
0.11
0.235
0.355
0.515
0.685
0.82
0.945
1.08
1.2
1.23
1.15
0.995
0.765
0.51
0.275
0.055
-0.1
-0.21
-0.25
-0.23
-0.225
-0.21
-0.23
-0.23
-0.25
-0.28
-0.315
-0.315
-0.31
-0.295
-0.3
-0.31
-0.335
-0.35
-0.335
-0.32
-0.29
-0.32
-0.34
-0.36
-0.355
-0.33
-0.315
-0.32
-0.33
-0.335
-0.32
-0.325
-0.3
-0.305
-0.335
-0.345
-0.33
-0.315
-0.3
-0.29
-0.31
-0.32
-0.3
-0.29
-0.29
-0.29
-0.315
-0.3
-0.295
-0.28
-0.26
-0.255
-0.275
-0.275
-0.275
-0.255
-0.225
-0.225
-0.235
-0.215
-0.2
-0.185
-0.18
-0.17
-0.17
-0.16
-0.135
-0.115
-0.085
-0.085
-0.09
-0.07
-0.06
-0.035
-0.01
-0.015
-0.01
-0.005
0.025
0.06
0.065
0.07
0.06
0.06
0.08
0.085
0.075
0.06
0.035
0.02
0.01
0.01
-0.005
-0.025
-0.055
-0.095
-0.105
-0.125
-0.145
-0.185
-0.195
-0.21
-0.225
-0.23
-0.235
-0.25
-0.28
-0.29
-0.285
-0.275
-0.28
-0.295
-0.31
-0.32
-0.32
-0.315
-0.315
-0.325
-0.33
-0.34
-0.325
-0.305
-0.315
-0.31
-0.325
-0.335
-0.325
-0.32
-0.3
-0.31
-0.32
-0.325
-0.305
-0.295
-0.29
-0.31
-0.31
-0.31
-0.305
-0.295
-0.295
-0.305
-0.305
-0.3
-0.28
-0.265
-0.26
-0.27
-0.275
-0.285
-0.285
-0.285
-0.28
-0.28
-0.3
-0.28
-0.28
-0.28
-0.26
-0.265
-0.28
-0.295
-0.28
-0.275
-0.26
-0.26
-0.27
-0.285
-0.275
-0.27
-0.26
-0.265
-0.265
-0.275
-0.295
-0.27
-0.265
-0.265
-0.275
-0.28
-0.275
-0.26
-0.255
-0.265
-0.28
-0.285
-0.27
-0.255
-0.26
-0.275
-0.28
-0.29
-0.28
-0.265
-0.265
-0.27
-0.285
-0.285
-0.295
-0.265
-0.265
-0.275
-0.29
-0.3
-0.3
-0.275
-0.275
-0.28
-0.285
-0.29
-0.285
-0.28
-0.295
-0.29
-0.305
-0.3
-0.295
-0.285
-0.28
-0.27
-0.29
-0.295
-0.29
-0.28
-0.27
-0.265
-0.28
-0.28
-0.275
-0.285
-0.265
-0.285
-0.285
-0.3
-0.28
-0.28
-0.27
-0.265
-0.29
-0.31
-0.3
-0.28
-0.265
-0.265
-0.285
-0.29
-0.29
-0.275
-0.27
-0.28
-0.3
-0.3
-0.295
-0.27
-0.285
-0.285
-0.3
-0.305
-0.3
-0.275
-0.27
-0.27
-0.295
-0.3
-0.285
-0.275
-0.285
-0.27
-0.275
-0.29
-0.275
-0.28
-0.265
-0.265
-0.29
-0.285
-0.275
-0.27
-0.265
-0.27
-0.295
-0.305
-0.3
-0.27
-0.28
-0.28
-0.29
-0.3
-0.28
-0.255
-0.25
-0.25
-0.27
-0.27
-0.28
-0.25
-0.245
-0.255
-0.275
-0.275
-0.27
-0.25
-0.25
-0.27
-0.265
-0.265
-0.27
-0.24
-0.235
-0.25
-0.26
-0.26
-0.255
-0.24
-0.235
-0.255
-0.26
-0.26
-0.275
-0.235
-0.25
-0.245
-0.26
-0.27
-0.265
-0.25
-0.235
-0.24
-0.235
-0.23
-0.19
-0.175
-0.175
-0.175
-0.2
-0.19
-0.19
-0.185
-0.16
-0.175
-0.19
-0.19
-0.195
-0.195
-0.195
-0.215
-0.24
-0.24
-0.23
-0.23
-0.225
-0.23
-0.24
-0.245
-0.24
-0.225
-0.22
-0.21
-0.225
-0.24
-0.225
-0.215
-0.2
-0.205
-0.22
-0.22
-0.225
-0.2
-0.18
-0.175
-0.165
-0.16
-0.135
-0.095
-0.065
-0.05
0.0
0.085
0.215
0.335
0.475
0.605
0.73
0.855
0.99
1.105
1.22
1.27
1.22
1.11
0.945
0.745
0.55
0.355
0.18
0.045
-0.04
-0.09
-0.11
-0.115
-0.13
-0.145
-0.16
-0.175
-0.195
-0.21
-0.23
-0.255
-0.25
-0.24
-0.24
-0.26
-0.27
-0.27
-0.27
-0.26
-0.26
-0.27
-0.27
-0.295
-0.28
-0.255
-0.245
-0.26
-0.265
-0.27
-0.26
-0.245
-0.24
-0.25
-0.27
-0.265
-0.26
-0.225
-0.225
-0.24
-0.25
-0.255
-0.24
-0.225
-0.225
-0.225
-0.24
-0.25
-0.225
-0.21
-0.2
-0.2
-0.215
-0.215
-0.2
-0.185
-0.16
-0.165
-0.165
-0.175
-0.165
-0.15
-0.14
-0.135
-0.155
-0.13
-0.105
-0.085
-0.07
-0.07
-0.08
-0.075
-0.05
-0.025
-0.01
-0.005
-0.005
0.0
0.02
0.04
0.06
0.06
0.065
0.065
0.085
0.12
0.135
0.13
0.115
0.12
0.125
0.14
0.135
0.125
0.095
0.06
0.055
0.045
0.025
-0.005
-0.03
-0.05
-0.06
-0.065
-0.105
-0.115
-0.14
-0.175
-0.17
-0.165
-0.175
-0.19
-0.22
-0.225
-0.245
-0.25
-0.24
-0.25
-0.25
-0.26
-0.255
-0.24
-0.235
-0.235
-0.255
-0.275
-0.26
-0.255
-0.24
-0.25
-0.27
-0.275
-0.25
-0.235
-0.235
-0.24
-0.255
-0.26
-0.255
-0.25
-0.245
-0.26
-0.26
-0.265
-0.25
-0.235
-0.225
-0.24
-0.25
-0.26
-0.26
-0.24
-0.235
-0.255
-0.265
-0.285
-0.275
-0.245
-0.245
-0.245
-0.25
-0.255
-0.25
-0.23
-0.225
-0.225
-0.245
-0.25
-0.235
-0.235
-0.24
-0.24
-0.265
-0.265
-0.24
-0.23
-0.225
-0.23
-0.255
-0.26
-0.235
-0.23
-0.23
-0.245
-0.25
-0.255
-0.235
-0.235
-0.23
-0.235
-0.255
-0.255
-0.255
-0.245
-0.23
-0.235
-0.25
-0.25
-0.245
-0.235
-0.225
-0.23
-0.24
-0.25
-0.24
-0.25
-0.235
-0.225
-0.25
-0.24
-0.24
-0.23
-0.24
-0.24
-0.25
-0.265
-0.25
-0.24
-0.225
-0.235
-0.265
-0.24
-0.23
-0.215
-0.22
-0.225
-0.25
-0.255
-0.25
-0.235
-0.225
-0.225
-0.24
-0.25
-0.245
-0.225
-0.21
-0.23
-0.235
-0.255
-0.245
-0.22
-0.21
-0.215
-0.24
-0.24
-0.23
-0.225
-0.215
-0.215
-0.24
-0.245
-0.245
-0.21
-0.225
-0.215
-0.24
-0.24
-0.225
-0.215
-0.215
-0.22
-0.22
-0.235
-0.225
-0.205
-0.205
-0.215
-0.23
-0.24
-0.225
-0.21
-0.205
-0.205
-0.225
-0.235
-0.23
-0.205
-0.205
-0.21
-0.225
-0.225
-0.205
-0.2
-0.2
-0.215
-0.225
-0.235
-0.225
-0.215
-0.205
-0.205
-0.225
-0.225
-0.215
-0.2
-0.205
-0.205
-0.23
-0.22
-0.21
-0.215
-0.205
-0.215
-0.23
-0.225
-0.22
-0.2
-0.205
-0.205
-0.215
-0.225
-0.205
-0.2
-0.205
-0.205
-0.21
-0.24
-0.22
-0.205
-0.19
-0.2
-0.215
-0.2
-0.2
-0.2
-0.18
-0.21
-0.215
-0.215
-0.22
-0.19
-0.18
-0.185
-0.205
-0.205
-0.195
-0.185
-0.19
-0.185
-0.19
-0.195
-0.18
-0.175
-0.165
-0.18
-0.2
-0.19
-0.19
-0.185
-0.18
-0.195
-0.2
-0.2
-0.19
-0.16
-0.14
-0.135
-0.145
-0.14
-0.12
-0.11
-0.1
-0.11
-0.13
-0.13
-0.14
-0.13
-0.12
-0.145
-0.165
-0.17
-0.175
-0.16
-0.17
-0.165
-0.19
-0.19
-0.18
-0.16
-0.16
-0.17
-0.19
-0.2
-0.18
-0.165
-0.165
-0.165
-0.17
-0.18
-0.165
-0.145
-0.135
-0.13
-0.145
-0.135
-0.11
-0.08
-0.06
-0.04
-0.03
-0.01
0.03
0.125
0.225
0.315
0.41
0.52
0.655
0.785
0.895
0.99
1.065
1.13
1.15
1.095
0.99
0.83
0.65
0.47
0.315
0.18
0.085
0.005
-0.025
-0.045
-0.05
-0.05
-0.055
-0.09
-0.115
-0.15
-0.15
-0.15
-0.145
-0.155
-0.165
-0.195
-0.19
-0.18
-0.175
-0.185
-0.2
-0.22
-0.205
-0.195
-0.19
-0.2
-0.21
-0.22
-0.215
-0.195
-0.2
-0.195
-0.205
-0.205
-0.215
-0.185
-0.18
-0.19
-0.205
-0.195
-0.2
-0.17
-0.17
-0.18
-0.185
-0.205
-0.18
-0.165
-0.15
-0.16
-0.16
-0.17
-0.16
-0.135
-0.135
-0.13
-0.155
-0.145
-0.125
-0.115
-0.1
-0.12
-0.11
-0.095
-0.08
-0.05
-0.04
-0.045
-0.04
-0.045
-0.025
-0.005
0.01
0.01
0.015
0.025
0.045
0.06
0.07
0.08
0.08
0.085
0.115
0.13
0.15
0.14
0.135
0.145
0.16
0.185
0.2
0.195
0.19
0.185
0.165
0.18
0.17
0.16
0.105
0.11
0.095
0.08
0.07
0.045
0.005
-0.015
-0.025
-0.035
-0.04
-0.055
-0.09
-0.11
-0.1
-0.11
-0.115
-0.125
-0.15
-0.175
-0.165
-0.165
-0.155
-0.17
-0.195
-0.2
-0.18
-0.175
-0.165
-0.18
-0.185
-0.19
-0.185
-0.17
-0.165
-0.18
-0.2
-0.19
-0.18
-0.18
-0.16
-0.19
-0.19
-0.215
-0.205
-0.185
-0.185
-0.195
-0.195
-0.185
-0.18
-0.185
-0.18
-0.18
-0.195
-0.195
-0.195
-0.175
-0.165
-0.175
-0.18
-0.19
-0.175
-0.165
-0.17
-0.19
-0.185
-0.19
-0.185
-0.16
-0.16
-0.165
-0.185
-0.18
-0.175
-0.155
-0.16
-0.17
-0.175
-0.185
-0.18
-0.16
-0.16
-0.17
-0.185
-0.185
-0.195
-0.17
-0.165
-0.165
-0.18
-0.17
-0.175
-0.185
-0.165
-0.18
-0.195
-0.185
-0.175
-0.18
-0.16
-0.17
-0.19
-0.185
-0.18
-0.17
-0.175
-0.17
-0.185
-0.195
-0.195
-0.185
-0.18
-0.195
-0.195
-0.18
-0.17
-0.175
-0.16
-0.175
-0.19
-0.2
-0.18
-0.185
-0.17
-0.175
-0.195
-0.185
-0.18
-0.16
-0.16
-0.165
-0.185
-0.18
-0.175
-0.16
-0.165
-0.17
-0.18
-0.195
-0.18
-0.16
-0.155
-0.16
-0.195
-0.19
-0.175
-0.165
-0.155
-0.155
-0.175
-0.19
-0.19
-0.175
-0.165
-0.18
-0.185
-0.185
-0.165
-0.18
-0.155
-0.155
-0.17
-0.175
-0.175
-0.16
-0.165
-0.17
-0.18
-0.185
-0.165
-0.16
-0.16
-0.17
-0.19
-0.195
-0.18
-0.165
-0.16
-0.15
-0.18
-0.18
-0.16
-0.15
-0.15
-0.16
-0.17
-0.19
-0.16
-0.15
-0.155
-0.165
-0.165
-0.17
-0.155
-0.145
-0.14
-0.155
-0.175
-0.17
-0.175
-0.155
-0.155
-0.155
-0.185
-0.18
-0.165
-0.155
-0.165
-0.18
-0.175
-0.18
-0.175
-0.145
-0.14
-0.165
-0.17
-0.175
-0.17
-0.155
-0.15
-0.155
-0.17
-0.17
-0.165
-0.145
-0.15
-0.16
-0.18
-0.18
-0.15
-0.155
-0.15
-0.16
-0.17
-0.18
-0.175
-0.155
-0.15
-0.155
-0.165
-0.18
-0.165
-0.16
-0.15
-0.16
-0.175
-0.175
-0.155
-0.15
-0.15
-0.145
-0.155
-0.165
-0.16
-0.155
-0.145
-0.165
-0.16
-0.135
-0.115
-0.09
-0.075
-0.095
-0.115
-0.12
-0.105
-0.095
-0.08
-0.1
-0.11
-0.12
-0.115
-0.105
-0.115
-0.135
-0.145
-0.15
-0.165
-0.135
-0.13
-0.14
-0.145
-0.145
-0.135
-0.125
-0.14
-0.14
-0.14
-0.15
-0.14
-0.125
-0.145
-0.15
-0.165
-0.15
-0.145
-0.105
-0.095
-0.095
-0.11
-0.105
-0.065
-0.05
0.005
0.02
0.055
0.125
0.225
0.345
0.47
0.61
0.735
0.875
0.985
1.13
1.26
1.35
1.345
1.245
1.1
0.92
0.725
0.515
0.33
0.14
0.03
-0.035
-0.04
-0.04
-0.04
-0.05
-0.055
-0.06
-0.085
-0.09
-0.14
-0.155
-0.145
-0.145
-0.14
-0.15
-0.18
-0.18
-0.18
-0.165
-0.18
-0.175
-0.185
-0.195
-0.175
-0.16
-0.155
-0.185
-0.19
-0.195
-0.19
-0.17
-0.165
-0.17
-0.19
-0.19
-0.18
-0.165
-0.175
-0.185
-0.19
-0.18
-0.165
-0.16
-0.15
-0.145
-0.155
-0.155
-0.14
-0.135
-0.13
-0.13
-0.14
-0.145
-0.13
-0.115
-0.09
-0.095
-0.095
-0.105
-0.08
-0.065
-0.065
-0.07
-0.07
-0.07
-0.05
-0.03
-0.015
-0.01
-0.015
-0.01
-0.005
0.015
0.03
0.035
0.04
0.04
0.065
0.09
0.095
0.105
0.11
0.11
0.135
0.15
0.155
0.175
0.165
0.17
0.175
0.185
0.195
0.18
0.165
0.165
0.165
0.165
0.155
0.13
0.095
0.07
0.07
0.055
0.045
0.02
-0.015
-0.035
-0.05
-0.04
-0.045
-0.09
-0.11
-0.12
-0.13
-0.13
-0.145
-0.14
-0.165
-0.175
-0.175
-0.15
-0.165
-0.19
-0.19
-0.19
-0.185
-0.185
-0.195
-0.21
-0.215
-0.21
-0.205
-0.19
-0.19
-0.195
-0.2
-0.21
-0.2
-0.18
-0.185
-0.185
-0.205
-0.215
-0.19
-0.185
-0.165
-0.19
-0.19
-0.21
-0.215
-0.185
-0.18
-0.19
-0.215
-0.215
-0.185
-0.175
-0.175
-0.185
-0.19
-0.195
-0.185
-0.17
-0.17
-0.175
-0.2
-0.205
-0.215
-0.19
-0.165
-0.19
-0.195
-0.195
-0.175
-0.17
-0.165
-0.18
-0.205
-0.19
-0.185
-0.18
-0.165
-0.19
-0.2
-0.22
-0.22
-0.2
-0.19
-0.195
-0.215
-0.22
-0.2
-0.19
-0.19
-0.19
-0.21
-0.22
-0.195
-0.185
-0.185
-0.205
-0.22
-0.23
-0.23
-0.2
-0.2
-0.205
-0.22
-0.22
-0.215
-0.19
-0.19
-0.19
-0.215
-0.22
-0.22
-0.205
-0.195
-0.205
-0.205
-0.21
-0.21
-0.2
-0.185
-0.195
-0.205
-0.22
-0.205
-0.19
-0.18
-0.195
-0.215
-0.22
-0.205
-0.205
-0.185
-0.2
-0.205
-0.21
-0.19
-0.195
-0.19
-0.185
-0.21
-0.22
-0.205
-0.2
-0.18
-0.2
-0.205
-0.21
-0.195
-0.185
-0.185
-0.195
-0.2
-0.22
-0.205
-0.185
-0.19
-0.2
-0.21
-0.2
-0.185
-0.175
-0.185
-0.18
-0.195
-0.2
-0.18
-0.175
-0.175
-0.18
-0.2
-0.2
-0.19
-0.185
-0.18
-0.18
-0.195
-0.2
-0.185
-0.17
-0.175
-0.19
-0.195
-0.205
-0.18
-0.17
-0.16
-0.18
-0.21
-0.21
-0.195
-0.18
-0.17
-0.175
-0.19
-0.19
-0.185
-0.17
-0.175
-0.19
-0.195
-0.19
-0.185
-0.165
-0.16
-0.17
-0.195
-0.19
-0.18
-0.17
-0.155
-0.16
-0.17
-0.175
-0.165
-0.165
-0.145
-0.16
-0.17
-0.18
-0.17
-0.155
-0.145
-0.145
-0.165
-0.165
-0.17
-0.14
-0.145
-0.15
-0.155
-0.155
-0.16
-0.15
-0.14
-0.135
-0.155
-0.16
-0.15
-0.14
-0.135
-0.125
-0.145
-0.16
-0.17
-0.15
-0.135
-0.145
-0.145
-0.135
-0.115
-0.085
-0.08
-0.085
-0.085
-0.105
-0.09
-0.075
-0.08
-0.085
-0.09
-0.11
-0.1
-0.095
-0.11
-0.125
-0.145
-0.16
-0.145
-0.14
-0.135
-0.135
-0.15
-0.15
-0.14
-0.125
-0.125
-0.14
-0.145
-0.145
-0.135
-0.125
-0.135
-0.12
-0.125
-0.135
-0.11
-0.095
-0.08
-0.08
-0.095
-0.055
-0.015
0.03
0.055
0.115
0.175
0.295
0.43
0.565
0.7
0.83
0.945
1.07
1.2
1.315
1.33
1.25
1.085
0.905
0.7
0.515
0.36
0.195
0.05
-0.03
-0.045
-0.02
-0.03
-0.04
-0.055
-0.1
-0.1
-0.11
-0.105
-0.135
-0.155
-0.175
-0.175
-0.165
-0.16
-0.17
-0.195
-0.2
-0.19
-0.17
-0.17
-0.165
-0.18
-0.215
-0.205
-0.185
-0.155
-0.17
-0.185
-0.17
-0.175
-0.16
-0.145
-0.17
-0.18
-0.185
-0.165
-0.145
-0.135
-0.145
-0.155
-0.175
-0.16
-0.135
-0.13
-0.135
-0.155
-0.145
-0.13
-0.11
-0.125
-0.11
-0.11
-0.105
-0.08
-0.07
-0.055
-0.075
-0.085
-0.065
-0.05
-0.025
-0.01
-0.01
-0.005
0.005
0.02
0.045
0.06
0.06
0.055
0.065
0.085
0.115
0.12
0.12
0.125
0.13
0.14
0.17
0.185
0.175
0.165
0.16
0.165
0.175
0.17
0.155
0.12
0.1
0.085
0.075
0.06
0.02
0.0
-0.035
-0.05
-0.05
-0.08
-0.09
-0.12
-0.13
-0.145
-0.135
-0.145
-0.155
-0.205
-0.21
-0.195
-0.19
-0.185
-0.195
-0.21
-0.215
-0.225
-0.205
-0.2
-0.215
-0.22
-0.215
-0.225
-0.21
-0.21
-0.22
-0.225
-0.23
-0.215
-0.2
-0.195
-0.215
-0.23
-0.215
-0.22
-0.195
-0.2
-0.205
-0.22
-0.225
-0.21
-0.195
-0.19
-0.205
-0.225
-0.225
-0.215
-0.2
-0.185
-0.2
-0.215
-0.215
-0.21
-0.2
-0.195
-0.22
-0.22
-0.23
-0.205
-0.19
-0.175
-0.2
-0.205
-0.22
-0.24
-0.205
-0.205
-0.205
-0.22
-0.22
-0.205
-0.2
-0.185
-0.185
-0.21
-0.225
-0.22
-0.205
-0.195
-0.215
-0.225
-0.23
-0.225
-0.195
-0.19
-0.195
-0.225
-0.23
-0.2
-0.2
-0.19
-0.21
-0.21
-0.22
-0.225
-0.21
-0.195
-0.22
-0.22
-0.23
-0.225
-0.205
-0.195
-0.205
-0.22
-0.22
-0.21
-0.185
-0.19
-0.19
-0.22
-0.215
-0.205
-0.215
-0.2
-0.205
-0.22
-0.23
-0.215
-0.205
-0.21
-0.215
-0.225
-0.225
-0.215
-0.215
-0.2
-0.205
-0.225
-0.215
-0.22
-0.2
-0.2
-0.21
-0.215
-0.215
-0.21
-0.195
-0.185
-0.195
-0.215
-0.22
-0.205
-0.195
-0.18
-0.175
-0.19
-0.2
-0.19
-0.175
-0.18
-0.19
-0.205
-0.205
-0.195
-0.185
-0.18
-0.165
-0.195
-0.2
-0.195
-0.18
-0.195
-0.21
-0.21
-0.21
-0.21
-0.175
-0.175
-0.185
-0.195
-0.175
-0.18
-0.16
-0.165
-0.19
-0.195
-0.19
-0.195
-0.17
-0.18
-0.175
-0.19
-0.185
-0.18
-0.165
-0.16
-0.17
-0.185
-0.2
-0.19
-0.165
-0.16
-0.18
-0.195
-0.19
-0.17
-0.16
-0.155
-0.165
-0.18
-0.19
-0.175
-0.145
-0.155
-0.165
-0.17
-0.175
-0.165
-0.145
-0.15
-0.165
-0.165
-0.175
-0.17
-0.16
-0.145
-0.155
-0.15
-0.15
-0.13
-0.115
-0.12
-0.135
-0.15
-0.15
-0.155
-0.145
-0.125
-0.12
-0.125
-0.11
-0.115
-0.09
-0.06
-0.08
-0.11
-0.12
-0.09
-0.07
-0.075
-0.09
-0.125
-0.11
-0.145
-0.11
-0.13
-0.14
-0.155
-0.155
-0.145
-0.14
-0.13
-0.13
-0.16
-0.16
-0.145
-0.14
-0.13
-0.14
-0.145
-0.15
-0.125
-0.115
-0.115
-0.13
-0.125
-0.125
-0.1
-0.08
-0.06
-0.04
-0.03
-0.025
0.045
0.145
0.27
0.395
0.535
0.7
0.845
0.97
1.11
1.25
1.345
1.365
1.27
1.08
0.82
0.54
0.335
0.15
0.0
-0.075
-0.09
-0.065
-0.065
-0.085
-0.07
-0.085
-0.1
-0.12
-0.15
-0.165
-0.16
-0.155
-0.15
-0.16
-0.175
-0.18
-0.17
-0.165
-0.165
-0.175
-0.19
-0.21
-0.195
-0.18
-0.175
-0.19
-0.19
-0.18
-0.175
-0.155
-0.16
-0.175
-0.17
-0.185
-0.195
-0.155
-0.15
-0.145
-0.15
-0.16
-0.145
-0.135
-0.12
-0.12
-0.13
-0.125
-0.125
-0.105
-0.085
-0.095
-0.1
-0.105
-0.1
-0.06
-0.05
-0.05
-0.045
-0.045
-0.035
-0.005
0.0
0.01
0.005
0.015
0.03
0.035
0.055
0.07
0.07
0.05
0.095
0.11
0.125
0.125
0.125
0.14
0.155
0.18
0.185
0.185
0.17
0.165
0.195
0.21
0.205
0.2
0.185
0.165
0.16
0.16
0.14
0.12
0.1
0.075
0.075
0.06
0.03
0.0
-0.03
-0.055
-0.07
-0.065
-0.075
-0.095
-0.12
-0.145
-0.145
-0.135
-0.12
-0.15
-0.175
-0.185
-0.19
-0.19
-0.165
-0.185
-0.2
-0.2
-0.19
-0.165
-0.185
-0.19
-0.2
-0.2
-0.205
-0.19
-0.175
-0.195
-0.195
-0.195
-0.195
-0.17
-0.16
-0.175
-0.165
-0.18
-0.16
-0.15
-0.155
-0.155
-0.17
-0.17
-0.175
-0.15
-0.145
-0.15
-0.16
-0.155
-0.155
-0.135
-0.14
-0.16
-0.16
-0.175
-0.155
-0.15
-0.135
-0.15
-0.165
-0.165
-0.155
-0.14
-0.135
-0.15
-0.15
-0.15
-0.16
-0.145
-0.135
-0.145
-0.165
-0.175
-0.16
-0.15
-0.16
-0.16
-0.165
-0.175
-0.155
-0.14
-0.14
-0.145
-0.165
-0.175
-0.17
-0.155
-0.14
-0.16
-0.17
-0.17
-0.155
-0.145
-0.155
-0.165
-0.18
-0.175
-0.17
-0.155
-0.175
-0.165
-0.185
-0.17
-0.165
-0.15
-0.15
-0.17
-0.17
-0.17
-0.15
-0.145
-0.155
-0.165
-0.165
-0.17
-0.155
-0.15
-0.145
-0.16
-0.18
-0.2
-0.175
-0.16
-0.16
-0.155
-0.18
-0.165
-0.17
-0.165
-0.145
-0.165
-0.175
-0.175
-0.16
-0.15
-0.145
-0.145
-0.18
-0.175
-0.175
-0.155
-0.15
-0.15
-0.175
-0.185
-0.175
-0.16
-0.145
-0.155
-0.18
-0.18
-0.18
-0.155
-0.16
-0.17
-0.175
-0.185
-0.17
-0.15
-0.145
-0.155
-0.185
-0.18
-0.165
-0.145
-0.165
-0.15
-0.165
-0.17
-0.16
-0.135
-0.145
-0.165
-0.18
-0.175
-0.16
-0.15
-0.15
-0.16
-0.175
-0.175
-0.165
-0.15
-0.14
-0.15
-0.165
-0.155
-0.145
-0.145
-0.14
-0.155
-0.165
-0.16
-0.145
-0.145
-0.14
-0.135
-0.14
-0.155
-0.13
-0.13
-0.135
-0.125
-0.14
-0.15
-0.135
-0.125
-0.11
-0.125
-0.135
-0.145
-0.12
-0.115
-0.11
-0.12
-0.135
-0.135
-0.125
-0.1
-0.1
-0.11
-0.105
-0.115
-0.105
-0.095
-0.1
-0.125
-0.125
-0.135
-0.13
-0.105
-0.085
-0.06
-0.06
-0.065
-0.05
-0.03
-0.03
-0.05
-0.045
-0.055
-0.04
-0.04
-0.05
-0.075
-0.09
-0.1
-0.105
-0.095
-0.095
-0.11
-0.135
-0.13
-0.11
-0.085
-0.09
-0.115
-0.12
-0.11
-0.09
-0.08
-0.08
-0.085
-0.105
-0.095
-0.07
-0.065
-0.05
-0.065
-0.065
-0.06
-0.045
-0.015
0.015
0.035
0.05
0.09
0.16
0.27
0.395
0.5
0.615
0.745
0.89
1.01
1.12
1.245
1.335
1.37
1.31
1.205
1.01
0.81
0.585
0.385
0.23
0.135
0.07
0.035
0.015
0.02
0.02
0.02
-0.01
-0.045
-0.07
-0.1
-0.095
-0.085
-0.08
-0.085
-0.105
-0.12
-0.12
-0.105
-0.105
-0.115
-0.135
-0.145
-0.135
-0.125
-0.125
-0.125
-0.145
-0.15
-0.14
-0.115
-0.11
-0.135
-0.135
-0.135
-0.145
-0.13
-0.12
-0.12
-0.125
-0.125
-0.11
-0.1
-0.1
-0.115
-0.12
-0.125
-0.105
-0.09
-0.09
-0.115
-0.1
-0.1
-0.075
-0.065
-0.06
-0.06
-0.07
-0.08
-0.055
-0.04
-0.025
-0.04
-0.04
-0.04
-0.005
0.005
0.01
0.025
0.015
0.025
0.035
0.065
0.08
0.085
0.09
0.105
0.115
0.135
0.155
0.15
0.155
0.165
0.185
0.195
0.21
0.205
0.195
0.21
0.215
0.23
0.245
0.235
0.21
0.18
0.205
0.21
0.185
0.155
0.135
0.105
0.085
0.085
0.06
0.02
-0.01
-0.045
-0.035
-0.05
-0.055
-0.06
-0.09
-0.11
-0.115
-0.11
-0.12
-0.145
-0.165
-0.16
-0.15
-0.15
-0.145
-0.16
-0.175
-0.17
-0.185
-0.155
-0.15
-0.15
-0.16
-0.17
-0.165
-0.155
-0.145
-0.16
-0.19
-0.205
-0.18
-0.155
-0.155
-0.16
-0.165
-0.175
-0.17
-0.175
-0.165
-0.175
-0.16
-0.165
-0.165
-0.145
-0.14
-0.15
-0.16
-0.17
-0.155
-0.14
-0.14
-0.15
-0.155
-0.165
-0.18
-0.16
-0.145
-0.14
-0.17
-0.16
-0.145
-0.135
-0.12
-0.145
-0.165
-0.18
-0.185
-0.15
-0.155
-0.16
-0.175
-0.17
-0.165
-0.145
-0.155
-0.175
-0.185
-0.185
-0.19
-0.18
-0.16
-0.17
-0.18
-0.175
-0.17
-0.16
-0.165
-0.19
-0.18
-0.18
-0.165
-0.155
-0.165
-0.16
-0.18
-0.175
-0.175
-0.165
-0.155
-0.155
-0.165
-0.175
-0.185
-0.17
-0.17
-0.175
-0.19
-0.185
-0.165
-0.165
-0.165
-0.165
-0.185
-0.18
-0.18
-0.17
-0.18
-0.165
-0.175
-0.18
-0.16
-0.15
-0.16
-0.175
-0.17
-0.175
-0.16
-0.15
-0.155
-0.155
-0.175
-0.175
-0.16
-0.15
-0.15
-0.155
-0.165
-0.18
-0.18
-0.18
-0.16
-0.18
-0.195
-0.175
-0.17
-0.17
-0.17
-0.17
-0.17
-0.175
-0.175
-0.17
-0.165
-0.175
-0.19
-0.195
-0.175
-0.175
-0.165
-0.17
-0.18
-0.19
-0.18
-0.16
-0.175
-0.175
-0.19
-0.2
-0.175
-0.16
-0.16
-0.17
-0.175
-0.19
-0.17
-0.16
-0.15
-0.17
-0.175
-0.175
-0.175
-0.15
-0.15
-0.165
-0.17
-0.18
-0.17
-0.15
-0.15
-0.155
-0.17
-0.185
-0.155
-0.16
-0.15
-0.165
-0.17
-0.175
-0.165
-0.16
-0.145
-0.165
-0.16
-0.185
-0.17
-0.15
-0.155
-0.145
-0.165
-0.16
-0.16
-0.125
-0.145
-0.15
-0.16
-0.16
-0.15
-0.135
-0.135
-0.14
-0.15
-0.155
-0.14
-0.14
-0.135
-0.145
-0.16
-0.16
-0.175
-0.15
-0.145
-0.145
-0.15
-0.15
-0.15
-0.145
-0.14
-0.145
-0.155
-0.155
-0.155
-0.12
-0.125
-0.125
-0.15
-0.17
-0.16
-0.15
-0.145
-0.17
-0.165
-0.16
-0.115
-0.1
-0.08
-0.095
-0.1
-0.11
-0.1
-0.075
-0.075
-0.085
-0.1
-0.095
-0.105
-0.095
-0.11
-0.12
-0.15
-0.16
-0.15
-0.155
-0.15
-0.15
-0.175
-0.18
-0.15
-0.15
-0.145
-0.145
-0.155
-0.175
-0.17
-0.155
-0.15
-0.145
-0.165
-0.16
-0.14
-0.115
-0.11
-0.125
-0.135
-0.14
-0.115
-0.095
-0.075
-0.045
-0.05
-0.03
0.015
0.065
0.145
0.255
0.34
0.445
0.595
0.735
0.865
0.99
1.11
1.235
1.355
1.42
1.385
1.255
1.045
0.835
0.65
0.47
0.315
0.15
0.01
-0.07
-0.065
-0.04
-0.02
-0.045
-0.065
-0.1
-0.12
-0.105
-0.115
-0.14
-0.17
-0.17
-0.17
-0.155
-0.16
-0.175
-0.19
-0.2
-0.195
-0.185
-0.185
-0.21
-0.225
-0.21
-0.205
-0.175
-0.18
-0.185
-0.195
-0.18
-0.18
-0.17
-0.175
-0.19
-0.18
-0.185
-0.19
-0.17
-0.155
-0.16
-0.185
-0.185
-0.17
-0.16
-0.15
-0.145
-0.155
-0.165
-0.15
-0.125
-0.125
-0.12
-0.135
-0.135
-0.115
-0.11
-0.095
-0.1
-0.12
-0.11
-0.08
-0.05
-0.03
-0.045
-0.065
-0.055
-0.035
-0.005
0.0
-0.005
-0.01
0.0
0.015
0.03
0.045
0.06
0.07
0.07
0.085
0.11
0.115
0.12
0.12
0.125
0.155
0.18
0.19
0.195
0.205
0.205
0.21
0.22
0.23
0.22
0.195
0.175
0.18
0.175
0.165
0.145
0.12
0.095
0.09
0.08
0.065
0.025
-0.01
-0.005
-0.025
-0.02
-0.05
-0.065
-0.105
-0.12
-0.13
-0.125
-0.13
-0.145
-0.155
-0.16
-0.16
-0.145
-0.155
-0.165
-0.18
-0.195
-0.18
-0.17
-0.18
-0.19
-0.21
-0.205
-0.18
-0.16
-0.16
-0.165
-0.185
-0.18
-0.175
-0.165
-0.155
-0.16
-0.175
-0.19
-0.185
-0.17
-0.16
-0.165
-0.18
-0.18
-0.175
-0.16
-0.165
-0.15
-0.155
-0.16
-0.16
-0.14
-0.125
-0.14
-0.16
-0.18
-0.17
-0.155
-0.135
-0.15
-0.165
-0.185
-0.18
-0.165
-0.155
-0.16
-0.18
-0.165
-0.145
-0.145
-0.135
-0.15
-0.165
-0.18
-0.16
-0.16
-0.135
-0.145
-0.165
-0.155
-0.145
-0.12
-0.145
-0.13
-0.16
-0.155
-0.155
-0.145
-0.155
-0.15
-0.16
-0.15
-0.145
-0.145
-0.155
-0.16
-0.165
-0.16
-0.15
-0.14
-0.135
-0.155
-0.19
-0.17
-0.16
-0.135
-0.145
-0.145
-0.175
-0.18
-0.185
-0.155
-0.14
-0.135
-0.145
-0.13
-0.13
-0.13
-0.14
-0.155
-0.165
-0.175
-0.17
-0.15
-0.155
-0.165
-0.17
-0.16
-0.16
-0.155
-0.15
-0.155
-0.165
-0.165
-0.15
-0.14
-0.145
-0.15
-0.155
-0.165
-0.155
-0.135
-0.12
-0.135
-0.145
-0.145
-0.13
-0.125
-0.13
-0.135
-0.16
-0.16
-0.155
-0.14
-0.125
-0.125
-0.125
-0.135
-0.135
-0.125
-0.125
-0.115
-0.14
-0.14
-0.135
-0.12
-0.125
-0.13
-0.145
-0.145
-0.15
-0.135
-0.11
-0.12
-0.13
-0.135
-0.135
-0.125
-0.13
-0.135
-0.155
-0.135
-0.13
-0.115
-0.115
-0.11
-0.135
-0.14
-0.13
-0.1
-0.09
-0.125
-0.115
-0.12
-0.115
-0.095
-0.09
-0.12
-0.125
-0.125
-0.105
-0.085
-0.09
-0.1
-0.125
-0.115
-0.11
-0.1
-0.095
-0.1
-0.115
-0.125
-0.13
-0.12
-0.11
-0.085
-0.095
-0.095
-0.1
-0.085
-0.09
-0.105
-0.12
-0.11
-0.105
-0.08
-0.075
-0.08
-0.085
-0.1
-0.075
-0.06
-0.06
-0.065
-0.085
-0.085
-0.075
-0.05
-0.055
-0.055
-0.07
-0.09
-0.08
-0.07
-0.08
