Lead II
-0.25
-0.245
-0.225
-0.23
-0.23
-0.23
-0.22
-0.21
-0.195
-0.19
-0.195
-0.19
-0.18
-0.15
-0.115
-0.095
-0.09
-0.095
-0.07
-0.06
-0.025
-0.02
-0.015
-0.005
0.0
0.0
0.02
0.02
0.015
0.015
0.015
0.025
0.04
0.035
0.015
0.01
0.005
0.005
0.0
-0.015
-0.04
-0.065
-0.085
-0.07
-0.08
-0.1
-0.13
-0.15
-0.185
-0.185
-0.185
-0.2
-0.215
-0.245
-0.25
-0.24
-0.23
-0.24
-0.255
-0.255
-0.25
-0.25
-0.255
-0.27
-0.28
-0.28
-0.27
-0.28
-0.265
-0.26
-0.27
-0.275
-0.285
-0.265
-0.26
-0.27
-0.275
-0.28
-0.285
-0.265
-0.245
-0.27
-0.275
-0.29
-0.275
-0.26
-0.24
-0.25
-0.25
-0.255
-0.26
-0.235
-0.235
-0.255
-0.26
-0.265
-0.255
-0.255
-0.245
-0.245
-0.255
-0.255
-0.245
-0.23
-0.22
-0.24
-0.24
-0.245
-0.25
-0.24
-0.235
-0.265
-0.265
-0.26
-0.255
-0.235
-0.21
-0.2
-0.2
-0.205
-0.21
-0.215
-0.23
-0.205
-0.215
-0.21
-0.23
-0.215
-0.21
-0.21
-0.195
-0.195
-0.195
-0.19
-0.185
-0.195
-0.2
-0.23
-0.235
-0.24
-0.24
-0.245
-0.245
-0.265
-0.245
-0.23
-0.205
-0.21
-0.225
-0.235
-0.25
-0.255
-0.25
-0.285
-0.295
-0.29
-0.29
-0.295
-0.3
-0.31
-0.29
-0.305
-0.305
-0.3
-0.29
-0.295
-0.305
-0.31
-0.305
-0.32
-0.295
-0.3
-0.29
-0.3
-0.3
-0.3
-0.32
-0.35
-0.36
-0.345
-0.32
-0.26
-0.16
-0.04
0.115
0.31
0.54
0.765
0.93
0.955
0.79
0.52
0.16
-0.215
-0.585
-0.81
-0.83
-0.755
-0.64
-0.53
-0.46
-0.41
-0.4
-0.37
-0.335
-0.315
-0.31
-0.325
-0.325
-0.31
-0.32
-0.295
-0.305
-0.31
-0.3
-0.295
-0.285
-0.285
-0.27
-0.26
-0.27
-0.265
-0.27
-0.255
-0.255
-0.25
-0.255
-0.27
-0.255
-0.235
-0.235
-0.235
-0.26
-0.255
-0.25
-0.23
-0.21
-0.225
-0.22
-0.215
-0.205
-0.18
-0.14
-0.135
-0.145
-0.14
-0.135
-0.11
-0.085
-0.08
-0.085
-0.08
-0.06
-0.04
-0.025
0.005
-0.01
-0.01
0.015
0.03
0.045
0.035
0.035
0.035
0.03
0.05
0.065
0.055
0.05
0.035
0.02
0.03
0.025
0.01
-0.015
-0.02
-0.04
-0.045
-0.05
-0.08
-0.11
-0.14
-0.14
-0.145
-0.16
-0.17
-0.2
-0.21
-0.225
-0.225
-0.22
-0.225
-0.235
-0.235
-0.24
-0.24
-0.245
-0.24
-0.245
-0.26
-0.27
-0.255
-0.25
-0.265
-0.275
-0.28
-0.275
-0.28
-0.255
-0.27
-0.275
-0.295
-0.28
-0.27
-0.26
-0.26
-0.27
-0.285
-0.285
-0.275
-0.255
-0.265
-0.26
-0.265
-0.265
-0.26
-0.255
-0.265
-0.27
-0.285
-0.275
-0.27
-0.255
-0.28
-0.295
-0.295
-0.29
-0.28
-0.27
-0.245
-0.26
-0.275
-0.265
-0.265
-0.25
-0.255
-0.26
-0.265
-0.25
-0.235
-0.225
-0.205
-0.21
-0.2
-0.205
-0.185
-0.165
-0.185
-0.185
-0.18
-0.195
-0.185
-0.195
-0.195
-0.215
-0.22
-0.225
-0.22
-0.205
-0.225
-0.225
-0.24
-0.245
-0.24
-0.235
-0.255
-0.25
-0.255
-0.255
-0.23
-0.22
-0.245
-0.26
-0.28
-0.295
-0.305
-0.305
-0.315
-0.305
-0.31
-0.32
-0.32
-0.31
-0.315
-0.33
-0.325
-0.33
-0.3
-0.285
-0.285
-0.3
-0.305
-0.31
-0.32
-0.315
-0.3
-0.345
-0.38
-0.375
-0.335
-0.27
-0.195
-0.08
0.07
0.295
0.55
0.79
0.92
0.86
0.655
0.325
-0.05
-0.44
-0.77
-0.89
-0.825
-0.72
-0.615
-0.51
-0.445
-0.4
-0.375
-0.34
-0.32
-0.31
-0.33
-0.325
-0.335
-0.34
-0.33
-0.32
-0.325
-0.335
-0.33
-0.335
-0.32
-0.315
-0.315
-0.31
-0.3
-0.305
-0.29
-0.295
-0.295
-0.285
-0.285
-0.275
-0.27
-0.255
-0.25
-0.25
-0.225
-0.22
-0.21
-0.205
-0.195
-0.205
-0.21
-0.195
-0.18
-0.155
-0.15
-0.15
-0.145
-0.14
-0.11
-0.1
-0.095
-0.095
-0.085
-0.05
-0.04
-0.035
-0.015
-0.025
-0.01
0.0
0.025
0.025
0.03
0.025
0.04
0.04
0.045
0.05
0.045
0.035
0.02
0.005
0.0
-0.01
-0.025
-0.06
-0.08
-0.105
-0.095
-0.1
-0.125
-0.16
-0.185
-0.18
-0.185
-0.19
-0.21
-0.225
-0.25
-0.265
-0.26
-0.235
-0.235
-0.245
-0.255
-0.265
-0.25
-0.245
-0.255
-0.27
-0.285
-0.27
-0.26
-0.27
-0.265
-0.285
-0.28
-0.275
-0.265
-0.255
-0.27
-0.285
-0.305
-0.28
-0.27
-0.255
-0.275
-0.27
-0.275
-0.265
-0.25
-0.255
-0.255
-0.275
-0.29
-0.285
-0.265
-0.255
-0.26
-0.27
-0.285
-0.295
-0.275
-0.265
-0.28
-0.3
-0.305
-0.31
-0.3
-0.275
-0.265
-0.29
-0.305
-0.295
-0.28
-0.265
-0.275
-0.295
-0.285
-0.28
-0.26
-0.265
-0.265
-0.255
-0.235
-0.205
-0.185
-0.18
-0.19
-0.18
-0.185
-0.17
-0.165
-0.155
-0.17
-0.19
-0.215
-0.215
-0.2
-0.185
-0.18
-0.2
-0.215
-0.225
-0.23
-0.235
-0.245
-0.26
-0.265
-0.25
-0.245
-0.24
-0.24
-0.26
-0.245
-0.26
-0.27
-0.265
-0.275
-0.285
-0.3
-0.3
-0.3
-0.285
-0.295
-0.305
-0.305
-0.315
-0.32
-0.305
-0.31
-0.32
-0.33
-0.32
-0.31
-0.305
-0.325
-0.335
-0.34
-0.345
-0.33
-0.33
-0.335
-0.355
-0.385
-0.385
-0.335
-0.235
-0.12
0.025
0.195
0.435
0.66
0.835
0.865
0.74
0.48
0.16
-0.24
-0.6
-0.795
-0.805
-0.755
-0.7
-0.61
-0.51
-0.45
-0.415
-0.405
-0.395
-0.36
-0.335
-0.325
-0.33
-0.33
-0.325
-0.31
-0.29
-0.305
-0.315
-0.335
-0.33
-0.33
-0.325
-0.305
-0.32
-0.33
-0.335
-0.32
-0.3
-0.3
-0.3
-0.31
-0.3
-0.295
-0.28
-0.245
-0.245
-0.245
-0.225
-0.225
-0.195
-0.19
-0.21
-0.21
-0.195
-0.18
-0.145
-0.13
-0.11
-0.12
-0.115
-0.1
-0.08
-0.075
-0.06
-0.055
-0.04
-0.025
0.025
0.04
0.035
0.045
0.035
0.035
0.06
0.05
0.025
0.015
0.03
0.05
0.07
0.06
0.025
-0.025
-0.025
-0.02
-0.01
-0.03
-0.06
-0.1
-0.115
-0.11
-0.105
-0.115
-0.12
-0.135
-0.145
-0.16
-0.18
-0.2
-0.22
-0.235
-0.235
-0.22
-0.23
-0.235
-0.25
-0.27
-0.27
-0.265
-0.25
-0.25
-0.265
-0.28
-0.27
-0.26
-0.245
-0.235
-0.255
-0.26
-0.255
-0.23
-0.215
-0.225
-0.22
-0.22
-0.245
-0.26
-0.25
-0.25
-0.26
-0.26
-0.235
-0.215
-0.195
-0.185
-0.19
-0.205
-0.225
-0.205
-0.185
-0.195
-0.22
-0.235
-0.23
-0.225
-0.215
-0.215
-0.22
-0.23
-0.24
-0.22
-0.22
-0.225
-0.215
-0.225
-0.225
-0.2
-0.18
-0.17
-0.18
-0.2
-0.195
-0.17
-0.165
-0.16
-0.165
-0.175
-0.14
-0.135
-0.115
-0.11
-0.125
-0.14
-0.155
-0.16
-0.15
-0.15
-0.16
-0.165
-0.15
-0.135
-0.14
-0.16
-0.195
-0.185
-0.19
-0.18
-0.17
-0.17
-0.165
-0.175
-0.175
-0.18
-0.19
-0.21
-0.25
-0.265
-0.26
-0.23
-0.225
-0.235
-0.255
-0.255
-0.23
-0.23
-0.22
-0.23
-0.225
-0.245
-0.255
-0.235
-0.23
-0.23
-0.25
-0.275
-0.285
-0.285
-0.3
-0.31
-0.315
-0.28
-0.2
-0.06
0.11
0.315
0.545
0.75
0.895
0.925
0.82
0.58
0.265
-0.13
-0.52
-0.725
-0.725
-0.66
-0.61
-0.52
-0.425
-0.335
-0.315
-0.305
-0.32
-0.31
-0.275
-0.27
-0.245
-0.27
-0.27
-0.28
-0.285
-0.255
-0.255
-0.245
-0.25
-0.24
-0.27
-0.245
-0.22
-0.21
-0.225
-0.225
-0.22
-0.205
-0.195
-0.2
-0.205
-0.205
-0.185
-0.18
-0.17
-0.155
-0.155
-0.145
-0.15
-0.135
-0.105
-0.1
-0.09
-0.095
-0.08
-0.08
-0.05
-0.035
-0.03
-0.025
-0.01
0.015
0.035
0.035
0.035
0.025
0.035
0.07
0.09
0.085
0.07
0.065
0.075
0.085
0.085
0.075
0.06
0.035
0.01
0.025
0.02
0.005
-0.015
-0.035
-0.065
-0.065
-0.065
-0.085
-0.12
-0.135
-0.165
-0.155
-0.16
-0.165
-0.185
-0.21
-0.215
-0.205
-0.18
-0.175
-0.195
-0.195
-0.2
-0.19
-0.2
-0.195
-0.21
-0.23
-0.23
-0.225
-0.22
-0.225
-0.24
-0.215
-0.22
-0.205
-0.215
-0.21
-0.23
-0.235
-0.23
-0.21
-0.215
-0.215
-0.235
-0.235
-0.225
-0.215
-0.205
-0.2
-0.19
-0.205
-0.205
-0.195
-0.195
-0.2
-0.2
-0.215
-0.21
-0.2
-0.185
-0.175
-0.17
-0.175
-0.175
-0.17
-0.175
-0.165
-0.155
-0.17
-0.19
-0.185
-0.17
-0.165
-0.17
-0.18
-0.175
-0.16
-0.145
-0.14
-0.13
-0.14
-0.15
-0.14
-0.115
-0.105
-0.11
-0.125
-0.14
-0.135
-0.125
-0.13
-0.13
-0.15
-0.145
-0.12
-0.11
-0.135
-0.15
-0.16
-0.155
-0.145
-0.13
-0.13
-0.135
-0.145
-0.145
-0.13
-0.11
-0.115
-0.15
-0.165
-0.185
-0.2
-0.205
-0.205
-0.215
-0.215
-0.235
-0.23
-0.22
-0.225
-0.225
-0.245
-0.25
-0.225
-0.21
-0.205
-0.225
-0.245
-0.255
-0.285
-0.315
-0.3
-0.21
-0.045
0.205
0.51
0.825
1.04
1.06
0.825
0.41
-0.06
-0.51
-0.765
-0.78
-0.66
-0.535
-0.415
-0.325
-0.285
-0.28
-0.25
-0.22
-0.205
-0.19
-0.2
-0.22
-0.225
-0.215
-0.215
-0.195
-0.195
-0.21
-0.2
-0.205
-0.2
-0.2
-0.185
-0.2
-0.195
-0.185
-0.17
-0.14
-0.15
-0.16
-0.15
-0.165
-0.16
-0.145
-0.14
-0.14
-0.14
-0.13
-0.12
-0.125
-0.095
-0.1
-0.09
-0.085
-0.065
-0.045
-0.04
-0.025
-0.02
-0.015
-0.005
0.025
0.035
0.04
0.055
0.075
0.105
0.13
0.13
0.12
0.105
0.1
0.14
0.165
0.18
0.175
0.165
0.155
0.16
0.16
0.17
0.17
0.145
0.14
0.14
0.135
0.12
0.105
0.08
0.065
0.06
0.055
0.04
0.01
-0.015
-0.045
-0.045
-0.05
-0.06
-0.09
-0.1
-0.115
-0.115
-0.11
-0.125
-0.135
-0.15
-0.16
-0.13
-0.12
-0.13
-0.13
-0.145
-0.15
-0.135
-0.13
-0.15
-0.16
-0.165
-0.18
-0.17
-0.16
-0.17
-0.175
-0.185
-0.175
-0.175
-0.16
-0.16
-0.17
-0.185
-0.18
-0.175
-0.175
-0.17
-0.18
-0.195
-0.19
-0.18
-0.175
-0.175
-0.19
-0.19
-0.185
-0.17
-0.175
-0.17
-0.17
-0.18
-0.18
-0.175
-0.17
-0.17
-0.175
-0.195
-0.19
-0.15
-0.145
-0.135
-0.145
-0.17
-0.16
-0.145
-0.13
-0.105
-0.11
-0.1
-0.115
-0.1
-0.09
-0.1
-0.09
-0.1
-0.095
-0.09
-0.065
-0.075
-0.1
-0.105
-0.115
-0.105
-0.1
-0.1
-0.105
-0.13
-0.13
-0.12
-0.125
-0.125
-0.145
-0.155
-0.17
-0.16
-0.135
-0.135
-0.13
-0.13
-0.145
-0.14
-0.145
-0.165
-0.17
-0.2
-0.22
-0.22
-0.215
-0.215
-0.21
-0.22
-0.23
-0.235
-0.22
-0.21
-0.225
-0.23
-0.24
-0.23
-0.22
-0.22
-0.23
-0.25
-0.26
-0.245
-0.255
-0.25
-0.255
-0.29
-0.32
-0.315
-0.285
-0.245
-0.22
-0.12
-0.02
0.155
0.375
0.59
0.79
0.97
1.06
0.995
0.805
0.49
0.105
-0.305
-0.665
-0.82
-0.79
-0.68
-0.6
-0.53
-0.445
-0.375
-0.325
-0.305
-0.29
-0.285
-0.27
-0.255
-0.24
-0.255
-0.265
-0.27
-0.28
-0.265
-0.235
-0.23
-0.24
-0.255
-0.26
-0.255
-0.245
-0.25
-0.245
-0.245
-0.235
-0.23
-0.21
-0.21
-0.2
-0.2
-0.19
-0.185
-0.175
-0.175
-0.18
-0.185
-0.18
-0.17
-0.15
-0.15
-0.15
-0.14
-0.14
-0.125
-0.105
-0.08
-0.085
-0.08
-0.07
-0.055
-0.045
-0.04
-0.025
-0.005
-0.005
0.015
0.045
0.04
0.045
0.06
0.065
0.085
0.095
0.1
0.085
0.09
0.09
0.105
0.12
0.11
0.115
0.1
0.1
0.1
0.11
0.095
0.08
0.06
0.045
0.05
0.04
0.03
0.01
-0.02
-0.035
-0.045
-0.045
-0.06
-0.075
-0.1
-0.115
-0.12
-0.105
-0.13
-0.155
-0.155
-0.165
-0.165
-0.17
-0.175
-0.185
-0.2
-0.215
-0.195
-0.18
-0.175
-0.185
-0.19
-0.21
-0.2
-0.195
-0.19
-0.2
-0.205
-0.2
-0.19
-0.19
-0.19
-0.205
-0.195
-0.2
-0.185
-0.18
-0.18
-0.195
-0.195
-0.195
-0.195
-0.19
-0.18
-0.21
-0.205
-0.225
-0.21
-0.195
-0.2
-0.22
-0.215
-0.23
-0.22
-0.195
-0.2
-0.22
-0.215
-0.225
-0.22
-0.205
-0.2
-0.21
-0.225
-0.225
-0.23
-0.215
-0.215
-0.23
-0.225
-0.225
-0.21
-0.185
-0.2
-0.21
-0.225
-0.21
-0.2
-0.165
-0.15
-0.14
-0.155
-0.18
-0.17
-0.15
-0.14
-0.15
-0.145
-0.16
-0.155
-0.14
-0.145
-0.145
-0.165
-0.165
-0.145
-0.145
-0.14
-0.16
-0.185
-0.21
-0.21
-0.21
-0.195
-0.21
-0.215
-0.22
-0.205
-0.19
-0.195
-0.21
-0.22
-0.24
-0.225
-0.24
-0.255
-0.285
-0.3
-0.305
-0.285
-0.27
-0.285
-0.29
-0.29
-0.315
-0.29
-0.28
-0.28
-0.295
-0.305
-0.315
-0.31
-0.305
-0.3
-0.305
-0.32
-0.33
-0.345
-0.335
-0.365
-0.385
-0.42
-0.425
-0.395
-0.345
-0.25
-0.105
0.055
0.26
0.505
0.755
0.915
0.92
0.805
0.57
0.26
-0.105
-0.51
-0.785
-0.86
-0.815
-0.725
-0.63
-0.555
-0.485
-0.45
-0.41
-0.38
-0.36
-0.335
-0.35
-0.36
-0.355
-0.345
-0.33
-0.32
-0.335
-0.335
-0.34
-0.31
-0.295
-0.29
-0.31
-0.295
-0.3
-0.285
-0.28
-0.27
-0.29
-0.305
-0.295
-0.3
-0.285
-0.27
-0.275
-0.26
-0.24
-0.23
-0.215
-0.205
-0.2
-0.21
-0.22
-0.21
-0.19
-0.195
-0.19
-0.185
-0.18
-0.16
-0.145
-0.115
-0.105
-0.09
-0.075
-0.06
-0.025
-0.005
0.0
-0.005
-0.005
0.015
0.035
0.04
0.035
0.04
0.07
0.085
0.1
0.095
0.08
0.08
0.075
0.08
0.075
0.065
0.03
0.005
-0.025
-0.02
-0.015
-0.03
-0.035
-0.045
-0.05
-0.045
-0.065
-0.105
-0.14
-0.165
-0.18
-0.17
-0.17
-0.185
-0.18
-0.2
-0.2
-0.195
-0.21
-0.22
-0.255
-0.27
-0.255
-0.24
-0.235
-0.225
-0.27
-0.265
-0.27
-0.275
-0.26
-0.26
-0.28
-0.295
-0.29
-0.265
-0.255
-0.26
-0.29
-0.3
-0.305
-0.3
-0.295
-0.295
-0.29
-0.305
-0.305
-0.285
-0.305
-0.29
-0.29
-0.295
-0.295
-0.285
-0.265
-0.245
-0.265
-0.26
-0.265
-0.25
-0.23
-0.235
-0.23
-0.245
-0.245
-0.24
-0.225
-0.23
-0.235
-0.24
-0.265
-0.24
-0.22
-0.21
-0.225
-0.225
-0.225
-0.21
-0.195
-0.2
-0.22
-0.25
-0.23
-0.235
-0.22
-0.225
-0.215
-0.22
-0.225
-0.21
-0.2
-0.19
-0.19
-0.2
-0.195
-0.18
-0.18
-0.185
-0.21
-0.215
-0.215
-0.205
-0.21
-0.2
-0.205
-0.21
-0.245
-0.235
-0.235
-0.23
-0.235
-0.245
-0.22
-0.2
-0.205
-0.22
-0.235
-0.245
-0.245
-0.23
-0.22
-0.225
-0.25
-0.28
-0.295
-0.305
-0.33
-0.325
-0.35
-0.35
-0.35
-0.34
-0.335
-0.345
-0.365
-0.37
-0.385
-0.37
-0.325
-0.315
-0.34
-0.36
-0.365
-0.335
-0.32
-0.365
-0.41
-0.42
-0.42
-0.39
-0.325
-0.24
-0.13
0.035
0.245
0.505
0.74
0.875
0.88
0.75
0.56
0.305
-0.02
-0.395
-0.72
-0.86
-0.845
-0.795
-0.74
-0.685
-0.61
-0.535
-0.475
-0.425
-0.415
-0.4
-0.38
-0.365
-0.365
-0.38
-0.37
-0.355
-0.34
-0.35
-0.34
-0.34
-0.305
-0.31
-0.32
-0.335
-0.335
-0.315
-0.29
-0.285
-0.29
-0.3
-0.29
-0.285
-0.255
-0.24
-0.235
-0.255
-0.255
-0.24
-0.235
-0.215
-0.225
-0.23
-0.215
-0.195
-0.17
-0.16
-0.165
-0.18
-0.18
-0.145
-0.14
-0.125
-0.11
-0.105
-0.08
-0.06
-0.06
-0.025
-0.025
-0.02
0.005
0.01
0.025
0.03
0.02
0.04
0.03
0.035
0.03
0.025
0.025
0.015
0.02
0.005
0.015
0.01
0.005
0.02
0.005
0.005
-0.01
-0.03
-0.06
-0.09
-0.1
-0.095
-0.105
-0.13
-0.16
-0.185
-0.185
-0.195
-0.205
-0.215
-0.24
-0.255
-0.25
-0.245
-0.235
-0.23
-0.25
-0.27
-0.28
-0.285
-0.28
-0.28
-0.285
-0.29
-0.29
-0.28
-0.26
-0.255
-0.265
-0.28
-0.3
-0.29
-0.275
-0.265
-0.285
-0.285
-0.275
-0.265
-0.27
-0.26
-0.265
-0.28
-0.285
-0.265
-0.26
-0.26
-0.27
-0.28
-0.285
-0.285
-0.26
-0.255
-0.255
-0.265
-0.275
-0.265
-0.265
-0.25
-0.255
-0.275
-0.275
-0.27
-0.265
-0.265
-0.26
-0.275
-0.29
-0.26
-0.235
-0.23
-0.25
-0.255
-0.245
-0.235
-0.225
-0.23
-0.23
-0.24
-0.23
-0.21
-0.17
-0.18
-0.215
-0.225
-0.225
-0.22
-0.2
-0.205
-0.22
-0.225
-0.24
-0.23
-0.23
-0.24
-0.265
-0.275
-0.27
-0.26
-0.255
-0.255
-0.25
-0.26
-0.26
-0.26
-0.255
-0.285
-0.31
-0.335
-0.345
-0.36
-0.345
-0.35
-0.355
-0.365
-0.365
-0.355
-0.355
-0.35
-0.35
-0.36
-0.36
-0.355
-0.36
-0.355
-0.345
-0.35
-0.335
-0.33
-0.35
-0.385
-0.405
-0.39
-0.345
-0.255
-0.115
0.055
0.26
0.48
0.705
0.915
0.99
0.89
0.62
0.275
-0.115
-0.55
-0.85
-0.935
-0.885
-0.805
-0.705
-0.605
-0.515
-0.445
-0.43
-0.415
-0.385
-0.345
-0.34
-0.35
-0.35
-0.355
-0.365
-0.355
-0.36
-0.355
-0.355
-0.36
-0.34
-0.31
-0.295
-0.305
-0.32
-0.34
-0.34
-0.32
-0.305
-0.3
-0.285
-0.285
-0.28
-0.265
-0.25
-0.255
-0.27
-0.255
-0.26
-0.23
-0.21
-0.21
-0.215
-0.2
-0.195
-0.175
-0.16
-0.15
-0.15
-0.145
-0.13
-0.11
-0.095
-0.065
-0.065
-0.065
-0.06
-0.03
0.0
0.015
0.005
0.0
0.02
0.055
0.05
0.06
0.055
0.06
0.05
0.06
0.08
0.075
0.065
0.055
0.05
0.05
0.035
0.03
0.0
-0.01
-0.04
-0.04
-0.035
-0.055
-0.09
-0.11
-0.125
-0.145
-0.155
-0.16
-0.18
-0.19
-0.215
-0.215
-0.215
-0.22
-0.225
-0.23
-0.23
-0.22
-0.22
-0.23
-0.235
-0.265
-0.27
-0.255
-0.23
-0.23
-0.22
-0.225
-0.23
-0.22
-0.215
-0.225
-0.24
-0.235
-0.24
-0.23
-0.22
-0.215
-0.22
-0.235
-0.24
-0.235
-0.22
-0.22
-0.23
-0.25
-0.245
-0.245
-0.235
-0.24
-0.25
-0.26
-0.27
-0.255
-0.25
-0.25
-0.245
-0.255
-0.25
-0.25
-0.245
-0.24
-0.24
-0.235
-0.25
-0.24
-0.235
-0.235
-0.235
-0.245
-0.245
-0.23
-0.2
-0.19
-0.19
-0.205
-0.205
-0.2
-0.175
-0.17
-0.18
-0.19
-0.185
-0.18
-0.17
-0.175
-0.18
-0.185
-0.2
-0.195
-0.195
-0.195
-0.205
-0.225
-0.25
-0.245
-0.23
-0.23
-0.23
-0.245
-0.26
-0.25
-0.255
-0.255
-0.26
-0.26
-0.27
-0.275
-0.275
-0.275
-0.285
-0.3
-0.3
-0.31
-0.305
-0.285
-0.305
-0.315
-0.325
-0.31
-0.305
-0.295
-0.305
-0.31
-0.315
-0.305
-0.295
-0.31
-0.34
-0.375
-0.385
-0.335
-0.245
-0.12
0.005
0.195
0.415
0.665
0.895
0.995
0.91
0.655
0.31
-0.1
-0.53
-0.855
-0.955
-0.895
-0.78
-0.665
-0.56
-0.465
-0.425
-0.4
-0.37
-0.34
-0.32
-0.33
-0.345
-0.335
-0.325
-0.315
-0.31
-0.31
-0.32
-0.32
-0.315
-0.31
-0.305
-0.3
-0.3
-0.295
-0.295
-0.3
-0.285
-0.285
-0.29
-0.295
-0.285
-0.26
-0.255
-0.265
-0.26
-0.245
-0.25
-0.24
-0.24
-0.23
-0.23
-0.22
-0.205
-0.2
-0.165
-0.165
-0.155
-0.15
-0.15
-0.135
-0.105
-0.075
-0.07
-0.05
-0.06
-0.045
-0.015
0.0
0.005
-0.005
-0.015
0.01
0.035
0.035
0.03
0.03
0.02
0.04
0.035
0.04
0.035
0.025
0.02
0.035
0.035
0.02
0.0
-0.04
-0.05
-0.055
-0.04
-0.055
-0.08
-0.105
-0.13
-0.15
-0.15
-0.155
-0.18
-0.2
-0.225
-0.215
-0.215
-0.21
-0.23
-0.23
-0.245
-0.255
-0.25
-0.245
-0.255
-0.27
-0.275
-0.26
-0.245
-0.25
-0.26
-0.275
-0.27
-0.26
-0.25
-0.255
-0.265
-0.28
-0.285
-0.275
-0.275
-0.26
-0.275
-0.295
-0.295
-0.275
-0.25
-0.235
-0.255
-0.265
-0.285
-0.27
-0.25
-0.26
-0.25
-0.255
-0.26
-0.25
-0.235
-0.245
-0.245
-0.26
-0.27
-0.26
-0.24
-0.255
-0.255
-0.27
-0.265
-0.26
-0.25
-0.26
-0.265
-0.285
-0.28
-0.265
-0.245
-0.265
-0.265
-0.255
-0.245
-0.23
-0.21
-0.23
-0.23
-0.235
-0.23
-0.21
-0.195
-0.195
-0.205
-0.22
-0.22
-0.215
-0.2
-0.205
-0.205
-0.22
-0.23
-0.235
-0.225
-0.255
-0.26
-0.275
-0.28
-0.25
-0.255
-0.25
-0.245
-0.255
-0.255
-0.27
-0.265
-0.27
-0.285
-0.3
-0.32
-0.325
-0.325
-0.335
-0.345
-0.335
-0.355
-0.345
-0.335
-0.335
-0.355
-0.365
-0.365
-0.355
-0.345
-0.34
-0.345
-0.365
-0.355
-0.345
-0.335
-0.34
-0.38
-0.42
-0.44
-0.44
-0.395
-0.325
-0.215
-0.105
0.065
0.28
0.54
0.745
0.87
0.85
0.69
0.405
0.06
-0.345
-0.75
-0.96
-0.96
-0.855
-0.74
-0.645
-0.565
-0.495
-0.48
-0.465
-0.44
-0.395
-0.395
-0.41
-0.405
-0.385
-0.37
-0.37
-0.365
-0.37
-0.385
-0.37
-0.36
-0.36
-0.38
-0.395
-0.39
-0.385
-0.35
-0.335
-0.34
-0.35
-0.355
-0.365
-0.33
-0.325
-0.315
-0.325
-0.335
-0.315
-0.29
-0.275
-0.27
-0.265
-0.245
-0.235
-0.215
-0.2
-0.19
-0.19
-0.18
-0.175
-0.17
-0.17
-0.165
-0.145
-0.135
-0.11
-0.095
-0.095
-0.095
-0.105
-0.085
-0.05
-0.045
-0.035
-0.015
-0.02
-0.02
-0.02
-0.01
-0.015
-0.015
-0.02
-0.025
-0.045
-0.05
-0.045
-0.065
-0.09
-0.12
-0.13
-0.11
-0.14
-0.155
-0.18
-0.2
-0.225
-0.245
-0.24
-0.255
-0.275
-0.3
-0.315
-0.315
-0.33
-0.335
-0.34
-0.355
-0.35
-0.33
-0.325
-0.33
-0.325
-0.33
-0.325
-0.33
-0.33
-0.34
-0.345
-0.355
-0.35
-0.345
-0.325
-0.325
-0.335
-0.335
-0.325
-0.315
-0.315
-0.325
-0.34
-0.345
-0.35
-0.335
-0.33
-0.33
-0.36
-0.36
-0.335
-0.32
-0.325
-0.345
-0.35
-0.32
-0.315
-0.3
-0.295
-0.325
-0.325
-0.33
-0.315
-0.305
-0.3
-0.315
-0.315
-0.315
-0.305
-0.3
-0.305
-0.32
-0.305
-0.285
-0.265
-0.26
-0.27
-0.285
-0.29
-0.29
-0.265
-0.25
-0.255
-0.27
-0.3
-0.285
-0.27
-0.26
-0.235
-0.24
-0.265
-0.28
-0.28
-0.275
-0.295
-0.3
-0.33
-0.335
-0.345
-0.33
-0.33
-0.305
-0.3
-0.31
-0.305
-0.3
-0.3
-0.33
-0.36
-0.36
-0.34
-0.345
-0.355
-0.355
-0.36
-0.365
-0.355
-0.35
-0.35
-0.38
-0.4
-0.395
-0.385
-0.38
-0.375
-0.39
-0.4
-0.41
-0.4
-0.41
-0.445
-0.475
-0.47
-0.42
-0.32
-0.185
0.015
0.265
0.535
0.76
0.875
0.81
0.605
0.28
-0.135
-0.59
-0.87
-0.89
-0.82
-0.765
-0.71
-0.635
-0.545
-0.46
-0.45
-0.47
-0.48
-0.465
-0.415
-0.36
-0.35
-0.35
-0.365
-0.385
-0.395
-0.38
-0.355
-0.365
-0.385
-0.4
-0.405
-0.395
-0.38
-0.375
-0.38
-0.37
-0.36
-0.33
-0.33
-0.325
-0.34
-0.34
-0.335
-0.325
-0.31
-0.31
-0.3
-0.305
-0.285
-0.25
-0.24
-0.24
-0.23
-0.24
-0.22
-0.19
-0.175
-0.175
-0.18
-0.17
-0.14
-0.12
-0.11
-0.11
-0.115
-0.1
-0.075
-0.08
-0.065
-0.05
-0.05
-0.05
-0.04
-0.04
-0.035
-0.045
-0.055
-0.045
-0.05
-0.03
-0.035
-0.035
-0.075
-0.08
-0.095
-0.085
-0.09
-0.11
-0.135
-0.16
-0.16
-0.16
-0.175
-0.205
-0.24
-0.26
-0.255
-0.27
-0.3
-0.33
-0.33
-0.325
-0.32
-0.32
-0.32
-0.33
-0.34
-0.36
-0.355
-0.36
-0.345
-0.34
-0.35
-0.355
-0.36
-0.355
-0.34
-0.335
-0.335
-0.36
-0.33
-0.35
-0.345
-0.34
-0.36
-0.375
-0.365
-0.34
-0.32
-0.335
-0.35
-0.36
-0.355
-0.345
-0.345
-0.365
-0.36
-0.355
-0.34
-0.33
-0.325
-0.34
-0.365
-0.36
-0.35
-0.315
-0.305
-0.31
-0.33
-0.335
-0.33
-0.33
-0.325
-0.32
-0.32
-0.32
-0.3
-0.29
-0.27
-0.27
-0.285
-0.28
-0.27
-0.255
-0.245
-0.27
-0.275
-0.27
-0.25
-0.245
-0.235
-0.245
-0.245
-0.255
-0.255
-0.235
-0.235
-0.245
-0.265
-0.28
-0.28
-0.28
-0.295
-0.29
-0.31
-0.295
-0.28
-0.28
-0.28
-0.295
-0.3
-0.315
-0.315
-0.32
-0.36
-0.37
-0.385
-0.38
-0.38
-0.365
-0.36
-0.365
-0.38
-0.38
-0.375
-0.385
-0.385
-0.385
-0.385
-0.36
-0.36
-0.34
-0.36
-0.355
-0.38
-0.415
-0.435
-0.43
-0.42
-0.375
-0.29
-0.17
0.015
0.25
0.515
0.76
0.92
0.93
0.78
0.505
0.135
-0.305
-0.695
-0.865
-0.855
-0.78
-0.725
-0.66
-0.58
-0.505
-0.46
-0.435
-0.435
-0.445
-0.44
-0.405
-0.385
-0.385
-0.38
-0.385
-0.39
-0.39
-0.4
-0.375
-0.36
-0.365
-0.38
-0.38
-0.38
-0.37
-0.355
-0.345
-0.36
-0.36
-0.35
-0.34
-0.315
-0.325
-0.34
-0.355
-0.33
-0.31
-0.29
-0.28
-0.29
-0.29
-0.285
-0.255
-0.23
-0.235
-0.245
-0.245
-0.24
-0.185
-0.16
-0.145
-0.145
-0.16
-0.11
-0.08
-0.07
-0.05
-0.06
-0.065
-0.065
-0.03
-0.005
0.0
-0.01
-0.015
0.005
0.0
-0.01
-0.01
-0.015
-0.02
-0.02
-0.015
-0.035
-0.05
-0.075
-0.09
-0.1
-0.105
-0.105
-0.13
-0.155
-0.19
-0.19
-0.185
-0.195
-0.22
-0.26
-0.25
-0.25
-0.26
-0.265
-0.275
-0.3
-0.315
-0.305
-0.3
-0.29
-0.285
-0.295
-0.305
-0.305
-0.31
-0.295
-0.3
-0.3
-0.305
-0.315
-0.31
-0.305
-0.31
-0.315
-0.315
-0.325
-0.295
-0.295
-0.3
-0.32
-0.31
-0.305
-0.3
-0.295
-0.29
-0.29
-0.295
-0.29
-0.28
-0.28
-0.28
-0.275
-0.275
-0.275
-0.265
-0.25
-0.26
-0.27
-0.27
-0.265
-0.26
-0.265
-0.26
-0.27
-0.27
-0.26
-0.235
-0.225
-0.235
-0.25
-0.245
-0.245
-0.225
-0.21
-0.205
-0.205
-0.21
-0.215
-0.205
-0.195
-0.185
-0.19
-0.195
-0.185
-0.18
-0.195
-0.2
-0.21
-0.215
-0.215
-0.23
-0.21
-0.215
-0.225
-0.23
-0.24
-0.24
-0.24
-0.25
-0.245
-0.245
-0.24
-0.22
-0.215
-0.24
-0.235
-0.265
-0.28
-0.275
-0.265
-0.265
-0.275
-0.295
-0.3
-0.29
-0.275
-0.28
-0.295
-0.31
-0.3
-0.295
-0.29
-0.3
-0.305
-0.31
-0.31
-0.295
-0.295
-0.3
-0.32
-0.34
-0.35
-0.365
-0.39
-0.36
-0.33
-0.255
-0.135
0.035
0.225
0.45
0.68
0.9
1.05
1.05
0.85
0.515
0.055
-0.4
-0.77
-0.885
-0.805
-0.685
-0.58
-0.51
-0.435
-0.395
-0.38
-0.35
-0.33
-0.33
-0.325
-0.325
-0.325
-0.33
-0.34
-0.315
-0.305
-0.3
-0.295
-0.29
-0.31
-0.315
-0.32
-0.285
-0.275
-0.285
-0.285
-0.275
-0.25
-0.245
-0.245
-0.23
-0.235
-0.23
-0.23
-0.23
-0.205
-0.2
-0.2
-0.205
-0.2
-0.16
-0.135
-0.125
-0.12
-0.11
-0.085
-0.065
-0.04
-0.03
-0.03
-0.02
-0.005
0.025
0.03
0.035
0.045
0.045
0.055
0.055
0.07
0.06
0.04
0.05
0.045
0.06
0.055
0.05
0.045
0.025
0.01
-0.005
-0.02
-0.025
-0.045
-0.08
-0.09
-0.095
-0.095
-0.125
-0.145
-0.17
-0.175
-0.17
-0.175
-0.195
-0.22
-0.24
-0.235
-0.22
-0.215
-0.21
-0.215
-0.23
-0.23
-0.23
-0.21
-0.215
-0.22
-0.24
-0.24
-0.25
-0.245
-0.24
-0.24
-0.26
-0.255
-0.235
-0.23
-0.235
-0.26
-0.28
-0.275
-0.26
-0.245
-0.255
-0.265
-0.27
-0.28
-0.255
-0.235
-0.24
-0.25
-0.27
-0.255
-0.245
-0.235
-0.24
-0.265
-0.26
-0.275
-0.25
-0.235
-0.255
-0.265
-0.27
-0.255
-0.245
-0.25
-0.245
-0.235
-0.235
-0.24
-0.22
-0.21
-0.205
-0.2
-0.205
-0.2
-0.185
-0.165
-0.175
-0.17
-0.17
-0.16
-0.175
-0.175
-0.185
-0.175
-0.18
-0.17
-0.16
-0.175
-0.185
-0.19
-0.2
-0.225
-0.22
-0.21
-0.21
-0.225
-0.235
-0.25
-0.235
-0.215
-0.205
-0.225
-0.255
-0.275
-0.27
-0.265
-0.295
-0.31
-0.305
-0.315
-0.305
-0.3
-0.295
-0.305
-0.33
-0.335
-0.33
-0.31
-0.31
-0.3
-0.31
-0.285
-0.28
-0.285
-0.3
-0.33
-0.365
-0.385
-0.385
-0.355
-0.29
-0.185
-0.05
0.135
0.365
0.595
0.815
0.99
0.985
0.8
0.49
0.09
-0.385
-0.795
-0.945
-0.865
-0.74
-0.615
-0.53
-0.475
-0.445
-0.41
-0.365
-0.345
-0.315
-0.325
-0.34
-0.33
-0.325
-0.33
-0.315
-0.34
-0.335
-0.335
-0.32
-0.315
-0.295
-0.31
-0.305
-0.3
-0.3
-0.285
-0.285
-0.29
-0.305
-0.295
-0.29
-0.28
-0.27
-0.28
-0.275
-0.27
-0.26
-0.235
-0.22
-0.22
-0.23
-0.22
-0.21
-0.19
-0.185
-0.16
-0.15
-0.145
-0.125
-0.1
-0.09
-0.09
-0.09
-0.075
-0.04
-0.005
-0.005
0.005
0.005
0.045
0.07
0.055
0.06
0.05
0.05
0.05
0.075
0.09
0.07
0.06
0.04
0.045
0.035
0.025
0.015
-0.02
-0.05
-0.03
-0.05
-0.05
-0.065
-0.09
-0.11
-0.13
-0.15
-0.14
-0.155
-0.175
-0.195
-0.2
-0.19
-0.21
-0.215
-0.25
-0.26
-0.25
-0.245
-0.245
-0.265
-0.26
-0.265
-0.265
-0.255
-0.245
-0.26
-0.255
-0.285
-0.265
-0.26
-0.265
-0.27
-0.27
-0.27
-0.25
-0.24
-0.24
-0.25
-0.26
-0.265
-0.245
-0.245
-0.245
-0.245
-0.26
-0.255
-0.26
-0.25
-0.245
-0.24
-0.26
-0.275
-0.275
-0.265
-0.26
-0.265
-0.265
-0.265
-0.27
-0.265
-0.25
-0.25
-0.26
-0.27
-0.26
-0.245
-0.25
-0.27
-0.27
-0.285
-0.275
-0.27
-0.28
-0.285
-0.295
-0.27
-0.245
-0.23
-0.215
-0.215
-0.185
-0.175
-0.18
-0.175
-0.17
-0.17
-0.17
