Lead II
-0.295
-0.3
-0.3
-0.295
-0.3
-0.305
-0.3
-0.3
-0.29
-0.285
-0.275
-0.27
-0.27
-0.265
-0.265
-0.275
-0.285
-0.295
-0.305
-0.315
-0.32
-0.33
-0.335
-0.335
-0.35
-0.37
-0.39
-0.41
-0.43
-0.455
-0.48
-0.485
-0.51
-0.535
-0.535
-0.545
-0.56
-0.555
-0.575
-0.585
-0.61
-0.615
-0.625
-0.625
-0.63
-0.635
-0.625
-0.62
-0.635
-0.63
-0.635
-0.64
-0.65
-0.66
-0.655
-0.67
-0.645
-0.65
-0.635
-0.63
-0.62
-0.63
-0.635
-0.635
-0.655
-0.655
-0.64
-0.625
-0.615
-0.615
-0.605
-0.6
-0.585
-0.6
-0.585
-0.59
-0.6
-0.595
-0.6
-0.59
-0.585
-0.585
-0.59
-0.58
-0.57
-0.575
-0.58
-0.575
-0.58
-0.585
-0.595
-0.585
-0.58
-0.575
-0.57
-0.56
-0.565
-0.57
-0.575
-0.58
-0.585
-0.59
-0.585
-0.595
-0.595
-0.585
-0.585
-0.585
-0.595
-0.6
-0.605
-0.615
-0.625
-0.63
-0.63
-0.625
-0.625
-0.63
-0.61
-0.605
-0.595
-0.605
-0.615
-0.62
-0.63
-0.635
-0.64
-0.625
-0.63
-0.635
-0.64
-0.63
-0.62
-0.62
-0.62
-0.64
-0.65
-0.645
-0.64
-0.63
-0.635
-0.62
-0.605
-0.6
-0.6
-0.58
-0.58
-0.585
-0.585
-0.58
-0.58
-0.545
-0.555
-0.53
-0.52
-0.495
-0.485
-0.47
-0.465
-0.47
-0.48
-0.485
-0.5
-0.515
-0.495
-0.48
-0.47
-0.47
-0.48
-0.475
-0.475
-0.495
-0.525
-0.535
-0.55
-0.565
-0.58
-0.6
-0.61
-0.615
-0.62
-0.625
-0.63
-0.645
-0.645
-0.66
-0.66
-0.66
-0.66
-0.665
-0.655
-0.64
-0.65
-0.65
-0.655
-0.665
-0.68
-0.675
-0.68
-0.67
-0.67
-0.655
-0.645
-0.65
-0.64
-0.64
-0.63
-0.63
-0.635
-0.64
-0.63
-0.62
-0.615
-0.58
-0.545
-0.5
-0.385
-0.255
-0.03
0.26
0.63
1.01
1.35
1.59
1.62
1.405
0.94
0.3
-0.34
-0.975
-1.36
-1.49
-1.38
-1.175
-0.925
-0.72
-0.565
-0.485
-0.47
-0.47
-0.5
-0.525
-0.56
-0.565
-0.575
-0.595
-0.585
-0.575
-0.575
-0.565
-0.56
-0.555
-0.56
-0.56
-0.545
-0.555
-0.555
-0.565
-0.565
-0.565
-0.56
-0.56
-0.545
-0.535
-0.545
-0.535
-0.545
-0.54
-0.545
-0.555
-0.555
-0.55
-0.56
-0.55
-0.545
-0.53
-0.54
-0.555
-0.55
-0.54
-0.555
-0.565
-0.565
-0.555
-0.56
-0.545
-0.53
-0.525
-0.52
-0.52
-0.525
-0.525
-0.53
-0.535
-0.535
-0.54
-0.53
-0.54
-0.53
-0.52
-0.515
-0.515
-0.525
-0.53
-0.525
-0.525
-0.535
-0.53
-0.52
-0.515
-0.515
-0.5
-0.5
-0.495
-0.485
-0.485
-0.485
-0.495
-0.505
-0.49
-0.485
-0.47
-0.46
-0.445
-0.44
-0.445
-0.445
-0.435
-0.44
-0.455
-0.425
-0.42
-0.415
-0.405
-0.395
-0.39
-0.38
-0.39
-0.395
-0.395
-0.395
-0.395
-0.4
-0.385
-0.385
-0.375
-0.375
-0.365
-0.365
-0.365
-0.375
-0.385
-0.39
-0.4
-0.405
-0.41
-0.425
-0.42
-0.43
-0.43
-0.455
-0.47
-0.485
-0.505
-0.515
-0.55
-0.57
-0.6
-0.61
-0.63
-0.625
-0.625
-0.63
-0.64
-0.66
-0.67
-0.685
-0.71
-0.705
-0.7
-0.695
-0.7
-0.705
-0.695
-0.71
-0.705
-0.715
-0.72
-0.74
-0.74
-0.74
-0.75
-0.74
-0.725
-0.73
-0.72
-0.715
-0.715
-0.725
-0.735
-0.735
-0.73
-0.715
-0.73
-0.72
-0.72
-0.705
-0.71
-0.7
-0.695
-0.69
-0.695
-0.7
-0.705
-0.715
-0.695
-0.7
-0.69
-0.68
-0.67
-0.665
-0.675
-0.685
-0.69
-0.7
-0.705
-0.705
-0.705
-0.695
-0.695
-0.69
-0.68
-0.68
-0.685
-0.685
-0.69
-0.7
-0.71
-0.715
-0.71
-0.715
-0.715
-0.72
-0.715
-0.71
-0.71
-0.72
-0.715
-0.73
-0.74
-0.75
-0.74
-0.745
-0.74
-0.74
-0.735
-0.72
-0.725
-0.735
-0.745
-0.755
-0.765
-0.765
-0.76
-0.75
-0.75
-0.74
-0.735
-0.735
-0.74
-0.75
-0.755
-0.755
-0.76
-0.745
-0.75
-0.735
-0.715
-0.71
-0.69
-0.675
-0.66
-0.655
-0.655
-0.64
-0.645
-0.62
-0.6
-0.595
-0.595
-0.6
-0.595
-0.6
-0.61
-0.605
-0.62
-0.625
-0.64
-0.66
-0.67
-0.675
-0.69
-0.72
-0.72
-0.745
-0.755
-0.77
-0.79
-0.795
-0.79
-0.79
-0.79
-0.785
-0.78
-0.78
-0.77
-0.785
-0.785
-0.795
-0.81
-0.835
-0.84
-0.84
-0.845
-0.825
-0.82
-0.81
-0.815
-0.8
-0.805
-0.81
-0.805
-0.815
-0.825
-0.83
-0.82
-0.8
-0.8
-0.78
-0.76
-0.76
-0.76
-0.76
-0.76
-0.75
-0.745
-0.745
-0.695
-0.625
-0.495
-0.29
-0.015
0.355
0.755
1.155
1.445
1.54
1.375
0.95
0.315
-0.325
-0.965
-1.5
-1.67
-1.58
-1.33
-1.07
-0.835
-0.685
-0.63
-0.63
-0.665
-0.705
-0.725
-0.755
-0.75
-0.755
-0.755
-0.74
-0.745
-0.74
-0.745
-0.74
-0.75
-0.74
-0.735
-0.725
-0.715
-0.72
-0.705
-0.71
-0.72
-0.725
-0.745
-0.74
-0.74
-0.745
-0.73
-0.725
-0.71
-0.715
-0.725
-0.715
-0.72
-0.72
-0.72
-0.73
-0.72
-0.725
-0.71
-0.705
-0.7
-0.705
-0.7
-0.72
-0.73
-0.735
-0.74
-0.745
-0.735
-0.74
-0.73
-0.715
-0.715
-0.7
-0.715
-0.71
-0.72
-0.74
-0.735
-0.725
-0.725
-0.72
-0.695
-0.705
-0.69
-0.69
-0.7
-0.685
-0.7
-0.695
-0.715
-0.7
-0.705
-0.705
-0.69
-0.675
-0.665
-0.655
-0.67
-0.655
-0.665
-0.665
-0.67
-0.655
-0.655
-0.66
-0.645
-0.64
-0.625
-0.615
-0.605
-0.605
-0.6
-0.61
-0.625
-0.64
-0.62
-0.615
-0.6
-0.59
-0.59
-0.59
-0.59
-0.595
-0.595
-0.605
-0.615
-0.625
-0.615
-0.605
-0.59
-0.59
-0.575
-0.57
-0.575
-0.58
-0.595
-0.605
-0.615
-0.64
-0.645
-0.67
-0.68
-0.69
-0.695
-0.71
-0.715
-0.745
-0.76
-0.79
-0.815
-0.84
-0.855
-0.86
-0.86
-0.87
-0.875
-0.88
-0.89
-0.91
-0.905
-0.915
-0.925
-0.925
-0.94
-0.93
-0.92
-0.925
-0.91
-0.915
-0.91
-0.92
-0.925
-0.93
-0.94
-0.935
-0.935
-0.93
-0.935
-0.925
-0.915
-0.91
-0.905
-0.915
-0.93
-0.935
-0.94
-0.925
-0.935
-0.93
-0.915
-0.9
-0.905
-0.895
-0.9
-0.895
-0.905
-0.91
-0.91
-0.905
-0.9
-0.9
-0.89
-0.885
-0.885
-0.895
-0.905
-0.91
-0.9
-0.915
-0.92
-0.93
-0.93
-0.935
-0.92
-0.915
-0.915
-0.9
-0.905
-0.915
-0.93
-0.935
-0.945
-0.945
-0.945
-0.955
-0.945
-0.94
-0.935
-0.93
-0.925
-0.92
-0.94
-0.94
-0.93
-0.93
-0.925
-0.905
-0.875
-0.875
-0.855
-0.85
-0.835
-0.82
-0.815
-0.805
-0.815
-0.815
-0.82
-0.84
-0.835
-0.84
-0.825
-0.82
-0.805
-0.805
-0.81
-0.82
-0.84
-0.86
-0.89
-0.905
-0.91
-0.94
-0.94
-0.96
-0.97
-0.975
-0.985
-0.98
-0.99
-0.99
-0.995
-0.995
-1.0
-0.995
-1.0
-0.98
-0.98
-1.0
-0.995
-1.0
-1.01
-1.015
-1.015
-1.02
-1.02
-1.025
-1.025
-1.005
-1.01
-1.0
-1.005
-1.005
-0.995
-1.01
-1.0
-0.99
-0.97
-0.965
-0.94
-0.92
-0.91
-0.9
-0.855
-0.765
-0.625
-0.385
-0.065
0.35
0.8
1.205
1.44
1.42
1.09
0.485
-0.155
-0.795
-1.435
-1.845
-1.83
-1.6
-1.315
-1.07
-0.875
-0.795
-0.775
-0.795
-0.84
-0.89
-0.93
-0.95
-0.945
-0.925
-0.92
-0.905
-0.895
-0.89
-0.9
-0.91
-0.9
-0.915
-0.92
-0.915
-0.92
-0.9
-0.91
-0.9
-0.885
-0.885
-0.88
-0.895
-0.91
-0.91
-0.91
-0.905
-0.905
-0.91
-0.905
-0.905
-0.89
-0.885
-0.885
-0.875
-0.89
-0.89
-0.895
-0.895
-0.89
-0.89
-0.89
-0.88
-0.87
-0.875
-0.86
-0.865
-0.875
-0.89
-0.895
-0.9
-0.895
-0.89
-0.89
-0.865
-0.87
-0.845
-0.85
-0.845
-0.85
-0.86
-0.865
-0.855
-0.855
-0.845
-0.84
-0.835
-0.82
-0.81
-0.815
-0.815
-0.825
-0.81
-0.825
-0.81
-0.825
-0.82
-0.815
-0.81
-0.79
-0.765
-0.76
-0.75
-0.755
-0.75
-0.755
-0.755
-0.75
-0.74
-0.73
-0.72
-0.71
-0.705
-0.69
-0.685
-0.68
-0.68
-0.7
-0.69
-0.69
-0.675
-0.68
-0.675
-0.67
-0.66
-0.65
-0.65
-0.655
-0.655
-0.68
-0.675
-0.67
-0.69
-0.695
-0.705
-0.71
-0.73
-0.75
-0.775
-0.805
-0.825
-0.835
-0.87
-0.885
-0.905
-0.9
-0.915
-0.925
-0.945
-0.95
-0.95
-0.975
-0.995
-1.0
-1.005
-1.01
-1.015
-1.015
-1.01
-1.005
-1.005
-1.01
-1.015
-1.03
-1.04
-1.045
-1.05
-1.035
-1.04
-1.03
-1.03
-1.02
-1.01
-1.005
-1.0
-1.01
-1.025
-1.04
-1.02
-1.03
-1.02
-1.015
-1.005
-0.99
-0.98
-0.98
-0.975
-0.98
-0.97
-0.975
-0.975
-0.97
-0.975
-0.965
-0.96
-0.945
-0.935
-0.935
-0.945
-0.96
-0.955
-0.96
-0.96
-0.96
-0.965
-0.97
-0.955
-0.95
-0.94
-0.945
-0.95
-0.97
-0.96
-0.97
-0.985
-0.975
-0.97
-0.965
-0.965
-0.96
-0.95
-0.955
-0.965
-0.96
-0.975
-0.975
-0.985
-0.98
-0.99
-0.985
-0.98
-0.975
-0.97
-0.965
-0.965
-0.965
-0.975
-0.975
-0.985
-0.985
-0.985
-0.985
-0.98
-0.975
-0.955
-0.965
-0.975
-0.975
-0.98
-0.98
-0.98
-0.975
-0.97
-0.95
-0.935
-0.92
-0.905
-0.89
-0.885
-0.895
-0.88
-0.875
-0.87
-0.865
-0.845
-0.83
-0.81
-0.795
-0.785
-0.795
-0.8
-0.815
-0.82
-0.825
-0.825
-0.83
-0.82
-0.815
-0.82
-0.82
-0.82
-0.835
-0.855
-0.88
-0.905
-0.935
-0.95
-0.96
-0.97
-0.97
-0.965
-0.96
-0.97
-0.97
-0.965
-0.975
-0.975
-0.98
-0.98
-0.995
-0.985
-0.98
-0.98
-0.975
-0.955
-0.945
-0.95
-0.95
-0.96
-0.965
-0.98
-0.98
-0.965
-0.96
-0.945
-0.935
-0.93
-0.92
-0.915
-0.92
-0.905
-0.905
-0.905
-0.89
-0.855
-0.8
-0.69
-0.535
-0.305
0.0
0.37
0.775
1.16
1.44
1.54
1.385
0.995
0.38
-0.26
-0.9
-1.51
-1.73
-1.685
-1.475
-1.19
-0.945
-0.78
-0.7
-0.7
-0.73
-0.79
-0.84
-0.86
-0.865
-0.85
-0.855
-0.84
-0.86
-0.845
-0.84
-0.84
-0.84
-0.835
-0.83
-0.825
-0.815
-0.825
-0.825
-0.83
-0.835
-0.84
-0.85
-0.84
-0.84
-0.835
-0.82
-0.805
-0.8
-0.81
-0.81
-0.82
-0.82
-0.83
-0.84
-0.82
-0.83
-0.815
-0.805
-0.8
-0.795
-0.8
-0.805
-0.805
-0.81
-0.81
-0.81
-0.82
-0.81
-0.8
-0.795
-0.79
-0.79
-0.78
-0.785
-0.79
-0.805
-0.795
-0.8
-0.805
-0.795
-0.79
-0.77
-0.755
-0.745
-0.75
-0.75
-0.76
-0.765
-0.775
-0.76
-0.755
-0.75
-0.74
-0.73
-0.715
-0.71
-0.715
-0.71
-0.7
-0.705
-0.695
-0.705
-0.7
-0.685
-0.67
-0.665
-0.65
-0.64
-0.64
-0.64
-0.635
-0.64
-0.64
-0.635
-0.62
-0.61
-0.61
-0.61
-0.59
-0.59
-0.595
-0.595
-0.605
-0.6
-0.595
-0.605
-0.605
-0.6
-0.605
-0.605
-0.61
-0.61
-0.635
-0.65
-0.67
-0.695
-0.72
-0.74
-0.78
-0.775
-0.775
-0.81
-0.79
-0.805
-0.805
-0.835
-0.85
-0.865
-0.88
-0.89
-0.91
-0.905
-0.905
-0.9
-0.895
-0.89
-0.895
-0.905
-0.91
-0.93
-0.93
-0.945
-0.945
-0.935
-0.92
-0.92
-0.91
-0.91
-0.895
-0.91
-0.91
-0.92
-0.925
-0.935
-0.925
-0.92
-0.92
-0.905
-0.89
-0.885
-0.88
-0.885
-0.9
-0.885
-0.875
-0.885
-0.875
-0.875
-0.865
-0.86
-0.84
-0.845
-0.84
-0.845
-0.85
-0.855
-0.86
-0.865
-0.85
-0.855
-0.85
-0.84
-0.835
-0.835
-0.835
-0.845
-0.855
-0.86
-0.865
-0.865
-0.875
-0.86
-0.86
-0.85
-0.845
-0.85
-0.865
-0.865
-0.87
-0.88
-0.885
-0.89
-0.885
-0.875
-0.88
-0.875
-0.855
-0.865
-0.86
-0.875
-0.87
-0.87
-0.88
-0.89
-0.89
-0.885
-0.88
-0.87
-0.865
-0.865
-0.86
-0.87
-0.88
-0.875
-0.89
-0.895
-0.895
-0.885
-0.885
-0.88
-0.86
-0.86
-0.865
-0.87
-0.88
-0.88
-0.885
-0.885
-0.885
-0.88
-0.855
-0.865
-0.865
-0.865
-0.855
-0.84
-0.84
-0.84
-0.835
-0.83
-0.825
-0.79
-0.775
-0.755
-0.74
-0.735
-0.73
-0.72
-0.71
-0.7
-0.71
-0.715
-0.735
-0.725
-0.72
-0.71
-0.71
-0.7
-0.71
-0.72
-0.72
-0.735
-0.74
-0.75
-0.755
-0.765
-0.77
-0.785
-0.79
-0.81
-0.815
-0.84
-0.845
-0.84
-0.855
-0.85
-0.845
-0.855
-0.85
-0.84
-0.84
-0.845
-0.845
-0.855
-0.865
-0.885
-0.885
-0.895
-0.875
-0.885
-0.87
-0.86
-0.85
-0.86
-0.86
-0.85
-0.85
-0.855
-0.86
-0.86
-0.855
-0.85
-0.85
-0.835
-0.82
-0.82
-0.8
-0.795
-0.8
-0.79
-0.785
-0.76
-0.71
-0.62
-0.485
-0.305
-0.06
0.275
0.655
1.03
1.36
1.585
1.6
1.385
0.96
0.355
-0.285
-0.925
-1.395
-1.615
-1.61
-1.44
-1.22
-0.98
-0.815
-0.72
-0.68
-0.675
-0.68
-0.705
-0.71
-0.715
-0.73
-0.74
-0.75
-0.75
-0.735
-0.745
-0.745
-0.73
-0.735
-0.73
-0.715
-0.72
-0.72
-0.73
-0.72
-0.725
-0.73
-0.725
-0.735
-0.725
-0.72
-0.71
-0.705
-0.705
-0.71
-0.72
-0.725
-0.72
-0.725
-0.72
-0.715
-0.715
-0.71
-0.695
-0.685
-0.685
-0.685
-0.685
-0.695
-0.705
-0.7
-0.705
-0.71
-0.715
-0.7
-0.695
-0.695
-0.675
-0.675
-0.675
-0.685
-0.675
-0.68
-0.69
-0.685
-0.68
-0.67
-0.66
-0.65
-0.655
-0.65
-0.66
-0.66
-0.655
-0.665
-0.65
-0.66
-0.64
-0.64
-0.63
-0.62
-0.62
-0.605
-0.615
-0.615
-0.615
-0.625
-0.62
-0.62
-0.61
-0.625
-0.6
-0.585
-0.585
-0.58
-0.565
-0.565
-0.57
-0.57
-0.565
-0.565
-0.555
-0.535
-0.535
-0.515
-0.515
-0.505
-0.5
-0.505
-0.515
-0.54
-0.52
-0.525
-0.51
-0.505
-0.495
-0.485
-0.47
-0.475
-0.485
-0.485
-0.49
-0.5
-0.51
-0.505
-0.515
-0.525
-0.525
-0.535
-0.555
-0.575
-0.585
-0.595
-0.62
-0.645
-0.66
-0.68
-0.69
-0.705
-0.71
-0.705
-0.715
-0.72
-0.735
-0.74
-0.76
-0.77
-0.775
-0.775
-0.78
-0.78
-0.77
-0.77
-0.77
-0.775
-0.78
-0.785
-0.78
-0.795
-0.79
-0.795
-0.79
-0.79
-0.78
-0.77
-0.76
-0.765
-0.76
-0.765
-0.765
-0.765
-0.77
-0.77
-0.765
-0.755
-0.75
-0.735
-0.725
-0.735
-0.73
-0.74
-0.735
-0.74
-0.74
-0.735
-0.735
-0.715
-0.72
-0.71
-0.71
-0.71
-0.71
-0.725
-0.71
-0.725
-0.72
-0.715
-0.72
-0.71
-0.71
-0.7
-0.705
-0.695
-0.705
-0.715
-0.72
-0.72
-0.73
-0.725
-0.725
-0.72
-0.73
-0.725
-0.715
-0.725
-0.725
-0.73
-0.73
-0.75
-0.745
-0.745
-0.75
-0.735
-0.735
-0.73
-0.725
-0.72
-0.73
-0.73
-0.735
-0.76
-0.76
-0.755
-0.75
-0.735
-0.725
-0.72
-0.715
-0.715
-0.71
-0.72
-0.72
-0.72
-0.71
-0.715
-0.695
-0.68
-0.66
-0.65
-0.645
-0.63
-0.62
-0.61
-0.605
-0.605
-0.58
-0.58
-0.575
-0.565
-0.575
-0.58
-0.58
-0.58
-0.585
-0.58
-0.58
-0.585
-0.6
-0.605
-0.615
-0.62
-0.635
-0.645
-0.65
-0.67
-0.69
-0.715
-0.72
-0.725
-0.715
-0.725
-0.715
-0.72
-0.715
-0.71
-0.71
-0.72
-0.725
-0.725
-0.74
-0.74
-0.75
-0.745
-0.75
-0.745
-0.75
-0.735
-0.725
-0.73
-0.725
-0.725
-0.73
-0.75
-0.735
-0.73
-0.71
-0.71
-0.7
-0.68
-0.68
-0.675
-0.68
-0.67
-0.655
-0.665
-0.665
-0.65
-0.635
-0.595
-0.535
-0.435
-0.255
-0.03
0.275
0.655
1.055
1.405
1.62
1.645
1.385
0.86
0.22
-0.42
-1.06
-1.45
-1.5
-1.33
-1.07
-0.82
-0.63
-0.53
-0.5
-0.505
-0.545
-0.575
-0.58
-0.595
-0.6
-0.6
-0.595
-0.605
-0.61
-0.595
-0.585
-0.585
-0.585
-0.56
-0.545
-0.55
-0.555
-0.57
-0.565
-0.57
-0.57
-0.575
-0.575
-0.565
-0.57
-0.57
-0.555
-0.545
-0.55
-0.545
-0.54
-0.555
-0.55
-0.55
-0.545
-0.55
-0.545
-0.545
-0.52
-0.535
-0.535
-0.55
-0.56
-0.56
-0.555
-0.555
-0.55
-0.535
-0.53
-0.54
-0.52
-0.52
-0.53
-0.525
-0.535
-0.52
-0.54
-0.535
-0.535
-0.53
-0.525
-0.5
-0.5
-0.5
-0.485
-0.495
-0.5
-0.5
-0.51
-0.5
-0.495
-0.495
-0.47
-0.465
-0.45
-0.45
-0.45
-0.46
-0.46
-0.465
-0.46
-0.46
-0.445
-0.44
-0.435
-0.42
-0.41
-0.41
-0.41
-0.405
-0.41
-0.42
-0.42
-0.405
-0.415
-0.41
-0.405
-0.385
-0.375
-0.38
-0.38
-0.385
-0.38
-0.385
-0.395
-0.39
-0.385
-0.385
-0.39
-0.39
-0.385
-0.385
-0.38
-0.38
-0.395
-0.4
-0.415
-0.44
-0.455
-0.47
-0.465
-0.48
-0.485
-0.51
-0.52
-0.555
-0.565
-0.595
-0.61
-0.62
-0.625
-0.63
-0.635
-0.645
-0.645
-0.645
-0.655
-0.675
-0.685
-0.69
-0.7
-0.695
-0.695
-0.685
-0.68
-0.675
-0.665
-0.68
-0.675
-0.685
-0.695
-0.695
-0.705
-0.695
-0.695
-0.68
-0.665
-0.665
-0.645
-0.66
-0.655
-0.665
-0.665
-0.665
-0.67
-0.675
-0.67
-0.645
-0.645
-0.645
-0.635
-0.62
-0.62
-0.625
-0.625
-0.63
-0.65
-0.645
-0.655
-0.64
-0.62
-0.62
-0.615
-0.615
-0.62
-0.63
-0.645
-0.645
-0.66
-0.66
-0.665
-0.66
-0.65
-0.65
-0.65
-0.645
-0.65
-0.665
-0.665
-0.68
-0.685
-0.675
-0.69
-0.685
-0.675
-0.67
-0.67
-0.67
-0.665
-0.665
-0.665
-0.665
-0.655
-0.655
-0.65
-0.635
-0.62
-0.61
-0.59
-0.59
-0.58
-0.575
-0.57
-0.55
-0.54
-0.54
-0.54
-0.545
-0.545
-0.56
-0.56
-0.545
-0.545
-0.555
-0.56
-0.555
-0.57
-0.58
-0.6
-0.615
-0.625
-0.645
-0.645
-0.665
-0.685
-0.695
-0.71
-0.72
-0.735
-0.73
-0.725
-0.72
-0.715
-0.71
-0.715
-0.715
-0.735
-0.74
-0.74
-0.74
-0.755
-0.755
-0.75
-0.76
-0.745
-0.735
-0.74
-0.73
-0.75
-0.735
-0.74
-0.74
-0.75
-0.735
-0.745
-0.715
-0.7
-0.675
-0.67
-0.66
-0.66
-0.65
-0.63
-0.585
-0.5
-0.355
-0.14
0.17
0.555
0.99
1.41
1.695
1.79
1.645
1.205
0.565
-0.075
-0.715
-1.355
-1.55
-1.48
-1.235
-0.955
-0.725
-0.565
-0.495
-0.49
-0.555
-0.62
-0.655
-0.675
-0.675
-0.665
-0.645
-0.615
-0.605
-0.61
-0.61
-0.615
-0.63
-0.63
-0.63
-0.63
-0.625
-0.625
-0.61
-0.6
-0.6
-0.605
-0.615
-0.625
-0.625
-0.63
-0.635
-0.63
-0.62
-0.62
-0.615
-0.61
-0.595
-0.59
-0.595
-0.605
-0.615
-0.61
-0.615
-0.62
-0.605
-0.6
-0.595
-0.585
-0.57
-0.565
-0.575
-0.575
-0.58
-0.585
-0.585
-0.59
-0.575
-0.57
-0.56
-0.56
-0.55
-0.55
-0.56
-0.545
-0.56
-0.55
-0.555
-0.55
-0.54
-0.535
-0.52
-0.505
-0.505
-0.5
-0.505
-0.505
-0.505
-0.5
-0.51
-0.5
-0.485
-0.47
-0.46
-0.435
-0.445
-0.44
-0.44
-0.43
-0.425
-0.425
-0.425
-0.41
-0.41
-0.405
-0.385
-0.385
-0.385
-0.375
-0.375
-0.385
-0.4
-0.395
-0.405
-0.395
-0.385
-0.385
-0.39
-0.38
-0.375
-0.385
-0.39
-0.405
-0.43
-0.445
-0.475
-0.495
-0.52
-0.525
-0.535
-0.555
-0.58
-0.6
-0.62
-0.63
-0.66
-0.68
-0.69
-0.705
-0.695
-0.7
-0.71
-0.7
-0.7
-0.705
-0.71
-0.73
-0.735
-0.755
-0.76
-0.76
-0.755
-0.755
-0.745
-0.74
-0.74
-0.735
-0.745
-0.745
-0.755
-0.755
-0.76
-0.755
-0.745
-0.735
-0.735
-0.72
-0.715
-0.705
-0.71
-0.705
-0.715
-0.715
-0.72
-0.71
-0.705
-0.69
-0.68
-0.675
-0.675
-0.665
-0.66
-0.675
-0.68
-0.685
-0.675
-0.68
-0.675
-0.66
-0.66
-0.65
-0.65
-0.655
-0.66
-0.665
-0.675
-0.67
-0.685
-0.685
-0.685
-0.675
-0.685
-0.665
-0.665
-0.67
-0.685
-0.69
-0.705
-0.7
-0.71
-0.71
-0.71
-0.695
-0.705
-0.695
-0.7
-0.72
-0.72
-0.725
-0.715
-0.715
-0.715
-0.71
-0.715
-0.715
-0.71
-0.7
-0.705
-0.7
-0.71
-0.72
-0.72
-0.735
-0.735
-0.73
-0.73
-0.715
-0.7
-0.7
-0.685
-0.695
-0.69
-0.67
-0.67
-0.65
-0.645
-0.65
-0.63
-0.605
-0.595
-0.59
-0.575
-0.565
-0.56
-0.56
-0.555
-0.575
-0.58
-0.59
-0.58
-0.575
-0.565
-0.565
-0.56
-0.565
-0.57
-0.585
-0.605
-0.62
-0.65
-0.665
-0.685
-0.685
-0.71
-0.7
-0.7
-0.705
-0.71
-0.7
-0.72
-0.725
-0.745
-0.735
-0.735
-0.72
-0.73
-0.725
-0.72
-0.715
-0.735
-0.735
-0.735
-0.745
-0.75
-0.74
-0.74
-0.735
-0.725
-0.72
-0.705
-0.705
-0.71
-0.705
-0.7
-0.7
-0.695
-0.69
-0.695
-0.67
-0.65
-0.635
-0.59
-0.53
-0.42
-0.26
-0.04
0.25
0.605
0.995
1.355
1.66
1.765
1.675
1.36
0.82
0.18
-0.46
-1.1
-1.445
-1.505
-1.375
-1.125
-0.865
-0.655
-0.52
-0.47
-0.485
-0.53
-0.585
-0.64
-0.665
-0.67
-0.66
-0.65
-0.61
-0.61
-0.61
-0.595
-0.585
-0.595
-0.605
-0.61
-0.615
-0.615
-0.63
-0.62
-0.605
-0.6
-0.59
-0.59
-0.595
-0.59
-0.6
-0.605
-0.595
-0.61
-0.605
-0.605
-0.61
-0.595
-0.595
-0.6
-0.585
-0.585
-0.59
-0.605
-0.59
-0.595
-0.605
-0.6
-0.59
-0.59
-0.58
-0.58
-0.58
-0.59
-0.595
-0.59
-0.585
-0.585
-0.59
-0.595
-0.585
-0.575
-0.57
-0.56
-0.555
-0.555
-0.565
-0.565
-0.575
-0.575
-0.57
-0.565
-0.56
-0.555
-0.54
-0.53
-0.535
-0.53
-0.535
-0.53
-0.525
-0.525
-0.515
-0.51
-0.5
-0.485
-0.475
-0.47
-0.465
-0.47
-0.47
-0.47
-0.475
-0.465
-0.455
-0.455
-0.435
-0.42
-0.42
-0.415
-0.41
-0.4
-0.4
-0.415
-0.405
-0.405
-0.41
-0.405
-0.395
-0.375
-0.37
-0.365
-0.365
-0.375
-0.385
-0.39
-0.41
-0.415
-0.41
-0.43
-0.425
-0.44
-0.45
-0.465
-0.48
-0.505
-0.525
-0.545
-0.57
-0.585
-0.6
-0.6
-0.615
-0.625
-0.625
-0.63
-0.635
-0.665
-0.675
-0.69
-0.705
-0.71
-0.71
-0.705
-0.705
-0.705
-0.705
-0.71
-0.7
-0.71
-0.725
-0.74
-0.74
-0.75
-0.75
-0.74
-0.74
-0.74
-0.735
-0.72
-0.72
-0.715
-0.73
-0.725
-0.725
-0.74
-0.73
-0.73
-0.725
-0.71
-0.72
-0.695
-0.685
-0.705
-0.705
-0.71
-0.7
-0.7
-0.7
-0.69
-0.685
-0.685
-0.665
-0.66
-0.66
-0.66
-0.675
-0.675
-0.685
-0.69
-0.69
-0.685
-0.68
-0.68
-0.675
-0.675
-0.685
-0.67
-0.69
-0.695
-0.71
-0.71
-0.715
-0.715
-0.7
-0.695
-0.695
-0.7
-0.695
-0.705
-0.71
-0.72
-0.73
-0.74
-0.73
-0.73
-0.725
-0.725
-0.71
-0.7
-0.715
-0.715
-0.715
-0.725
-0.73
-0.73
-0.73
-0.73
-0.725
-0.73
-0.725
-0.71
-0.725
-0.725
-0.72
-0.73
-0.735
-0.73
-0.715
-0.7
-0.685
-0.67
-0.645
-0.64
-0.635
-0.625
-0.61
-0.605
-0.585
-0.585
-0.6
-0.595
-0.59
-0.595
-0.59
-0.57
-0.58
-0.58
-0.59
-0.605
-0.605
-0.625
-0.63
-0.65
-0.64
-0.655
-0.685
-0.69
-0.715
-0.715
-0.73
-0.74
-0.74
-0.75
-0.74
-0.75
-0.74
-0.735
-0.735
-0.725
-0.74
-0.745
-0.76
-0.755
-0.765
-0.765
-0.77
-0.785
-0.765
-0.765
-0.755
-0.745
-0.75
-0.745
-0.755
-0.76
-0.755
-0.74
-0.745
-0.73
-0.71
-0.705
-0.69
-0.69
-0.675
-0.675
-0.665
-0.645
-0.58
-0.485
-0.305
-0.065
0.275
0.685
1.115
1.49
1.685
1.65
1.3
0.695
0.055
-0.585
-1.225
-1.58
-1.57
-1.375
-1.085
-0.835
-0.65
-0.55
-0.52
-0.53
-0.575
-0.615
-0.655
-0.665
-0.655
-0.64
-0.625
-0.62
-0.61
-0.61
-0.62
-0.615
-0.63
-0.63
-0.625
-0.63
-0.62
-0.615
-0.61
-0.595
-0.6
-0.6
-0.62
-0.62
-0.615
-0.625
-0.62
-0.615
-0.61
-0.6
-0.605
-0.585
-0.58
-0.595
-0.59
-0.59
-0.6
-0.61
-0.61
-0.615
-0.605
-0.595
-0.585
-0.565
-0.58
-0.57
-0.57
-0.575
-0.57
-0.595
-0.575
-0.58
-0.565
-0.565
-0.56
-0.55
-0.555
-0.545
-0.55
-0.56
-0.56
-0.555
-0.56
-0.565
-0.555
-0.535
-0.515
-0.515
-0.515
-0.51
-0.515
-0.52
-0.525
-0.525
-0.525
-0.53
-0.52
-0.5
-0.485
-0.49
-0.495
-0.48
-0.475
-0.475
-0.48
-0.48
-0.48
-0.485
-0.465
-0.465
-0.445
-0.435
-0.44
-0.425
-0.43
-0.425
-0.43
-0.43
-0.43
-0.425
-0.42
-0.405
-0.4
-0.385
-0.395
-0.39
-0.38
-0.385
-0.395
-0.395
-0.395
-0.385
-0.375
-0.38
-0.37
-0.355
-0.36
-0.375
-0.38
-0.4
-0.41
-0.435
-0.455
-0.46
-0.475
-0.485
-0.5
-0.515
-0.525
-0.54
-0.56
-0.585
-0.61
-0.63
-0.635
-0.64
-0.65
-0.66
-0.655
-0.645
-0.65
-0.655
-0.66
-0.665
-0.67
-0.68
-0.685
-0.685
-0.69
-0.675
-0.67
-0.67
-0.665
-0.665
-0.665
-0.675
-0.665
-0.68
-0.675
-0.665
-0.655
-0.655
-0.655
-0.655
-0.645
-0.64
-0.635
-0.64
-0.64
-0.64
-0.63
-0.63
-0.62
-0.62
-0.615
-0.6
-0.615
-0.615
-0.605
-0.61
-0.61
-0.615
-0.615
-0.6
-0.61
-0.605
-0.595
-0.585
-0.595
-0.615
-0.6
-0.605
-0.615
-0.62
-0.62
-0.615
-0.61
-0.615
-0.595
-0.59
-0.595
-0.595
-0.6
-0.605
-0.615
-0.625
-0.62
-0.62
-0.62
-0.615
-0.615
-0.615
-0.605
-0.615
-0.62
-0.62
-0.625
-0.63
-0.635
-0.63
-0.62
-0.6
-0.595
-0.575
-0.57
-0.57
-0.565
-0.565
-0.555
-0.555
-0.54
-0.535
-0.505
-0.5
-0.48
-0.45
-0.43
-0.425
-0.43
-0.435
-0.455
-0.46
-0.465
-0.47
-0.45
-0.435
-0.425
-0.425
-0.43
-0.435
-0.455
-0.48
-0.505
-0.535
-0.55
-0.57
-0.585
-0.58
-0.58
-0.575
-0.58
-0.575
-0.58
-0.585
-0.595
-0.595
-0.61
-0.605
-0.605
-0.595
-0.59
-0.58
-0.585
-0.6
-0.585
-0.59
-0.59
-0.6
-0.59
-0.59
-0.575
-0.57
-0.565
-0.555
-0.56
-0.555
-0.54
-0.535
-0.54
-0.535
-0.53
-0.52
-0.505
-0.49
-0.48
-0.465
-0.43
-0.37
-0.27
-0.125
0.1
0.395
0.765
1.17
1.55
1.815
1.92
1.8
1.435
0.88
0.24
-0.4
-1.02
-1.32
-1.365
-1.205
-0.955
-0.69
-0.495
-0.385
-0.345
-0.33
-0.355
-0.385
-0.415
-0.41
-0.415
-0.41
-0.41
-0.405
-0.4
-0.39
-0.38
-0.385
-0.38
-0.375
-0.375
-0.385
-0.39
-0.39
-0.39
-0.375
-0.36
-0.355
-0.36
-0.35
-0.34
-0.34
-0.35
-0.35
-0.36
-0.345
-0.35
-0.345
-0.34
-0.325
-0.315
-0.31
-0.32
-0.33
-0.33
-0.345
-0.335
-0.335
-0.325
-0.315
-0.32
-0.305
-0.31
-0.305
-0.305
-0.31
-0.32
-0.315
-0.315
-0.32
-0.305
-0.3
-0.31
-0.285
-0.285
-0.285
-0.285
-0.28
-0.285
-0.29
-0.27
-0.275
-0.26
-0.25
-0.25
-0.24
-0.255
-0.25
-0.225
-0.235
-0.235
-0.245
-0.245
-0.25
-0.245
-0.23
-0.225
-0.215
-0.205
-0.19
-0.205
-0.2
-0.2
-0.19
-0.19
-0.195
-0.185
-0.18
-0.155
-0.165
-0.14
-0.145
-0.14
-0.145
-0.145
-0.145
-0.155
-0.16
-0.15
-0.145
-0.15
-0.14
-0.14
-0.145
-0.14
-0.15
-0.145
-0.15
-0.155
-0.15
-0.155
-0.155
-0.15
-0.155
-0.17
-0.175
-0.2
-0.215
-0.235
-0.26
-0.275
-0.3
-0.31
-0.32
-0.335
-0.34
-0.345
-0.365
-0.38
-0.39
-0.42
-0.42
-0.425
-0.43
-0.43
-0.425
-0.43
-0.435
-0.425
-0.425
-0.445
-0.455
-0.445
-0.44
-0.455
-0.465
-0.455
-0.45
-0.445
-0.435
-0.425
-0.425
-0.445
-0.435
-0.46
-0.46
-0.45
-0.45
-0.445
-0.43
-0.42
-0.42
-0.41
-0.41
-0.405
-0.41
-0.41
-0.41
-0.415
-0.41
-0.41
-0.395
-0.4
-0.385
-0.39
-0.38
-0.385
-0.39
-0.4
-0.395
-0.41
-0.42
-0.395
-0.4
-0.4
-0.4
-0.395
-0.41
-0.415
-0.42
-0.435
-0.435
-0.43
-0.43
-0.44
-0.43
-0.42
-0.435
-0.44
-0.44
-0.45
-0.465
-0.47
-0.48
-0.465
-0.455
-0.46
-0.46
-0.445
-0.44
-0.445
-0.445
-0.425
-0.43
-0.43
-0.43
-0.41
-0.405
-0.39
-0.375
-0.365
-0.35
-0.345
-0.33
-0.315
-0.31
-0.305
-0.32
-0.325
-0.33
-0.335
-0.325
-0.335
-0.32
-0.32
-0.315
-0.32
-0.325
-0.345
-0.36
-0.385
-0.4
-0.415
-0.445
-0.46
-0.455
-0.46
-0.47
-0.48
-0.49
-0.495
-0.5
-0.51
-0.52
-0.52
-0.525
-0.515
-0.505
-0.51
-0.515
-0.515
-0.525
-0.53
-0.55
-0.54
-0.545
-0.53
-0.525
-0.525
-0.51
-0.5
-0.53
-0.52
-0.52
-0.515
-0.515
-0.505
-0.505
-0.5
-0.485
-0.475
-0.455
-0.455
-0.44
-0.425
-0.385
-0.325
-0.2
-0.015
0.25
0.595
0.98
1.39
1.735
1.915
1.83
1.49
0.895
0.255
-0.385
-1.025
-1.335
-1.32
-1.1
-0.81
-0.54
-0.36
-0.265
-0.255
-0.285
-0.32
-0.385
-0.42
-0.43
-0.435
-0.41
-0.4
-0.38
-0.375
-0.38
-0.38
-0.395
-0.41
-0.4
-0.405
-0.41
-0.39
-0.4
-0.39
-0.38
-0.375
-0.37
-0.37
-0.385
-0.375
-0.38
-0.39
-0.395
-0.385
-0.38
-0.375
-0.375
-0.36
-0.37
-0.36
-0.365
-0.36
-0.37
-0.375
-0.375
-0.38
-0.36
-0.355
-0.35
-0.35
-0.365
-0.365
-0.37
-0.37
-0.37
-0.37
-0.36
-0.365
-0.355
-0.345
-0.34
-0.335
-0.34
-0.34
-0.34
-0.335
-0.34
-0.345
-0.35
-0.335
-0.33
-0.31
-0.305
-0.315
-0.315
-0.305
-0.295
-0.3
-0.3
-0.295
-0.29
-0.28
-0.275
-0.265
-0.255
-0.245
-0.23
-0.24
-0.235
-0.23
-0.24
-0.23
-0.22
-0.22
-0.195
-0.185
-0.175
-0.17
-0.17
-0.165
-0.175
-0.18
-0.175
-0.18
-0.185
-0.185
-0.175
-0.17
-0.155
-0.15
-0.16
-0.165
-0.185
-0.2
-0.21
-0.225
-0.24
-0.26
