Lead II
-0.125
-0.115
-0.12
-0.11
-0.095
-0.09
-0.07
-0.065
-0.065
-0.08
-0.09
-0.11
-0.11
-0.12
-0.12
-0.105
-0.1
-0.105
-0.105
-0.125
-0.135
-0.14
-0.145
-0.13
-0.11
-0.095
-0.1
-0.105
-0.105
-0.13
-0.135
-0.13
-0.135
-0.13
-0.115
-0.115
-0.11
-0.095
-0.09
-0.11
-0.105
-0.11
-0.11
-0.105
-0.11
-0.12
-0.13
-0.13
-0.13
-0.135
-0.14
-0.14
-0.12
-0.12
-0.115
-0.115
-0.12
-0.135
-0.135
-0.135
-0.13
-0.125
-0.12
-0.125
-0.125
-0.12
-0.105
-0.09
-0.1
-0.095
-0.105
-0.095
-0.085
-0.08
-0.07
-0.06
-0.05
-0.05
-0.045
-0.025
-0.02
0.005
0.025
0.04
0.05
0.05
0.035
0.03
0.025
0.01
0.015
0.01
0.005
-0.02
-0.035
-0.065
-0.105
-0.145
-0.165
-0.18
-0.185
-0.185
-0.17
-0.17
-0.185
-0.19
-0.2
-0.23
-0.23
-0.235
-0.235
-0.235
-0.235
-0.23
-0.23
-0.23
-0.255
-0.265
-0.275
-0.29
-0.265
-0.22
-0.145
-0.03
0.12
0.325
0.54
0.78
1.035
1.275
1.45
1.485
1.395
1.18
0.88
0.56
0.245
0.02
-0.135
-0.225
-0.265
-0.25
-0.235
-0.22
-0.22
-0.225
-0.235
-0.255
-0.275
-0.285
-0.31
-0.33
-0.33
-0.33
-0.335
-0.325
-0.31
-0.305
-0.305
-0.32
-0.32
-0.32
-0.315
-0.315
-0.32
-0.32
-0.325
-0.335
-0.335
-0.325
-0.315
-0.305
-0.275
-0.265
-0.26
-0.275
-0.29
-0.315
-0.31
-0.315
-0.32
-0.3
-0.285
-0.26
-0.24
-0.23
-0.24
-0.255
-0.27
-0.285
-0.285
-0.28
-0.265
-0.245
-0.235
-0.225
-0.22
-0.21
-0.215
-0.24
-0.235
-0.225
-0.225
-0.22
-0.225
-0.225
-0.215
-0.205
-0.2
-0.195
-0.195
-0.19
-0.195
-0.205
-0.19
-0.2
-0.21
-0.205
-0.205
-0.19
-0.16
-0.155
-0.175
-0.185
-0.2
-0.2
-0.195
-0.18
-0.155
-0.135
-0.135
-0.125
-0.115
-0.115
-0.115
-0.135
-0.14
-0.155
-0.16
-0.16
-0.165
-0.17
-0.175
-0.145
-0.135
-0.135
-0.135
-0.13
-0.14
-0.14
-0.145
-0.145
-0.18
-0.19
-0.2
-0.17
-0.15
-0.135
-0.105
-0.11
-0.135
-0.15
-0.16
-0.17
-0.155
-0.145
-0.14
-0.13
-0.135
-0.125
-0.115
-0.135
-0.135
-0.145
-0.15
-0.155
-0.15
-0.135
-0.13
-0.125
-0.125
-0.105
-0.11
-0.105
-0.13
-0.13
-0.145
-0.15
-0.17
-0.16
-0.14
-0.13
-0.105
-0.1
-0.085
-0.095
-0.105
-0.125
-0.145
-0.165
-0.17
-0.145
-0.12
-0.095
-0.06
-0.065
-0.05
-0.03
-0.035
-0.03
-0.045
-0.04
-0.03
-0.02
0.015
0.02
0.04
0.05
0.04
0.02
0.015
-0.005
-0.02
-0.03
-0.025
-0.02
-0.02
-0.04
-0.075
-0.115
-0.15
-0.155
-0.17
-0.18
-0.195
-0.2
-0.225
-0.23
-0.23
-0.24
-0.24
-0.25
-0.25
-0.265
-0.29
-0.29
-0.3
-0.3
-0.295
-0.295
-0.295
-0.295
-0.305
-0.315
-0.295
-0.265
-0.22
-0.13
0.0
0.185
0.425
0.715
1.015
1.265
1.435
1.47
1.35
1.125
0.805
0.455
0.125
-0.14
-0.3
-0.365
-0.365
-0.335
-0.275
-0.25
-0.27
-0.3
-0.33
-0.365
-0.395
-0.405
-0.395
-0.375
-0.37
-0.365
-0.36
-0.375
-0.365
-0.38
-0.38
-0.395
-0.4
-0.405
-0.4
-0.385
-0.375
-0.375
-0.365
-0.36
-0.355
-0.37
-0.365
-0.38
-0.39
-0.39
-0.395
-0.39
-0.38
-0.365
-0.345
-0.34
-0.345
-0.34
-0.355
-0.365
-0.375
-0.37
-0.375
-0.36
-0.35
-0.335
-0.32
-0.32
-0.33
-0.33
-0.335
-0.345
-0.34
-0.355
-0.36
-0.345
-0.325
-0.305
-0.29
-0.295
-0.3
-0.32
-0.345
-0.34
-0.34
-0.345
-0.33
-0.32
-0.32
-0.32
-0.33
-0.34
-0.34
-0.34
-0.325
-0.3
-0.295
-0.295
-0.28
-0.28
-0.27
-0.27
-0.27
-0.275
-0.265
-0.255
-0.25
-0.24
-0.255
-0.265
-0.265
-0.275
-0.275
-0.275
-0.28
-0.29
-0.29
-0.29
-0.28
-0.275
-0.28
-0.28
-0.285
-0.28
-0.275
-0.28
-0.285
-0.285
-0.3
-0.305
-0.305
-0.3
-0.3
-0.295
-0.295
-0.285
-0.27
-0.27
-0.275
-0.27
-0.275
-0.285
-0.28
-0.295
-0.305
-0.3
-0.3
-0.29
-0.295
-0.285
-0.29
-0.295
-0.285
-0.295
-0.31
-0.315
-0.305
-0.305
-0.295
-0.29
-0.305
-0.3
-0.305
-0.3
-0.285
-0.295
-0.295
-0.295
-0.305
-0.295
-0.28
-0.26
-0.25
-0.25
-0.23
-0.225
-0.23
-0.22
-0.22
-0.215
-0.215
-0.2
-0.2
-0.16
-0.14
-0.13
-0.13
-0.145
-0.135
-0.16
-0.16
-0.18
-0.22
-0.245
-0.25
-0.255
-0.28
-0.295
-0.305
-0.32
-0.34
-0.345
-0.36
-0.38
-0.405
-0.4
-0.41
-0.41
-0.405
-0.42
-0.405
-0.43
-0.44
-0.445
-0.44
-0.44
-0.445
-0.45
-0.465
-0.475
-0.475
-0.465
-0.455
-0.44
-0.41
-0.345
-0.255
-0.115
0.065
0.295
0.545
0.795
1.03
1.205
1.295
1.25
1.075
0.8
0.485
0.21
-0.05
-0.24
-0.385
-0.455
-0.495
-0.505
-0.485
-0.46
-0.44
-0.445
-0.46
-0.49
-0.51
-0.52
-0.54
-0.545
-0.54
-0.535
-0.525
-0.505
-0.51
-0.51
-0.53
-0.54
-0.545
-0.545
-0.55
-0.545
-0.53
-0.525
-0.52
-0.515
-0.515
-0.52
-0.55
-0.54
-0.55
-0.55
-0.555
-0.555
-0.55
-0.545
-0.53
-0.52
-0.51
-0.5
-0.5
-0.51
-0.505
-0.495
-0.5
-0.505
-0.505
-0.495
-0.49
-0.49
-0.48
-0.47
-0.47
-0.46
-0.47
-0.475
-0.48
-0.465
-0.46
-0.45
-0.44
-0.435
-0.435
-0.435
-0.44
-0.445
-0.445
-0.45
-0.455
-0.435
-0.42
-0.42
-0.42
-0.44
-0.455
-0.46
-0.47
-0.47
-0.445
-0.44
-0.43
-0.42
-0.405
-0.38
-0.365
-0.355
-0.35
-0.355
-0.36
-0.355
-0.345
-0.32
-0.315
-0.305
-0.295
-0.295
-0.29
-0.315
-0.33
-0.35
-0.365
-0.36
-0.365
-0.35
-0.345
-0.34
-0.34
-0.335
-0.33
-0.345
-0.34
-0.34
-0.355
-0.345
-0.335
-0.315
-0.315
-0.32
-0.335
-0.34
-0.33
-0.34
-0.33
-0.305
-0.305
-0.305
-0.315
-0.325
-0.34
-0.34
-0.34
-0.32
-0.29
-0.265
-0.26
-0.26
-0.275
-0.31
-0.32
-0.335
-0.315
-0.305
-0.31
-0.3
-0.295
-0.29
-0.29
-0.27
-0.28
-0.275
-0.305
-0.3
-0.31
-0.3
-0.29
-0.29
-0.275
-0.26
-0.265
-0.27
-0.27
-0.255
-0.255
-0.24
-0.225
-0.21
-0.21
-0.21
-0.19
-0.18
-0.175
-0.145
-0.125
-0.1
-0.085
-0.08
-0.075
-0.07
-0.075
-0.085
-0.075
-0.08
-0.095
-0.1
-0.145
-0.16
-0.19
-0.195
-0.225
-0.245
-0.27
-0.29
-0.31
-0.315
-0.315
-0.315
-0.325
-0.33
-0.335
-0.33
-0.31
-0.31
-0.315
-0.325
-0.32
-0.31
-0.31
-0.31
-0.32
-0.335
-0.355
-0.35
-0.325
-0.265
-0.195
-0.12
-0.005
0.17
0.395
0.635
0.895
1.135
1.32
1.42
1.43
1.32
1.09
0.81
0.485
0.185
-0.08
-0.245
-0.345
-0.385
-0.395
-0.38
-0.345
-0.33
-0.33
-0.32
-0.345
-0.37
-0.38
-0.37
-0.37
-0.355
-0.37
-0.395
-0.405
-0.415
-0.4
-0.4
-0.385
-0.385
-0.38
-0.375
-0.375
-0.375
-0.38
-0.4
-0.415
-0.405
-0.395
-0.385
-0.365
-0.36
-0.36
-0.35
-0.345
-0.36
-0.35
-0.37
-0.38
-0.38
-0.365
-0.34
-0.32
-0.32
-0.32
-0.33
-0.335
-0.335
-0.335
-0.35
-0.345
-0.33
-0.32
-0.295
-0.275
-0.27
-0.28
-0.27
-0.285
-0.285
-0.29
-0.305
-0.31
-0.3
-0.29
-0.26
-0.225
-0.23
-0.225
-0.25
-0.265
-0.275
-0.295
-0.28
-0.285
-0.29
-0.285
-0.275
-0.255
-0.255
-0.255
-0.26
-0.27
-0.275
-0.29
-0.3
-0.3
-0.295
-0.285
-0.26
-0.22
-0.205
-0.185
-0.155
-0.145
-0.145
-0.135
-0.14
-0.14
-0.16
-0.155
-0.165
-0.16
-0.16
-0.17
-0.19
-0.2
-0.21
-0.2
-0.175
-0.165
-0.165
-0.185
-0.18
-0.17
-0.145
-0.15
-0.15
-0.16
-0.185
-0.205
-0.22
-0.21
-0.19
-0.185
-0.17
-0.15
-0.135
-0.125
-0.135
-0.14
-0.165
-0.185
-0.18
-0.185
-0.175
-0.16
-0.145
-0.135
-0.11
-0.095
-0.065
-0.085
-0.115
-0.13
-0.15
-0.15
-0.145
-0.135
-0.115
-0.09
-0.08
-0.09
-0.095
-0.11
-0.12
-0.115
-0.11
-0.11
-0.105
-0.12
-0.125
-0.12
-0.115
-0.105
-0.1
-0.09
-0.075
-0.06
-0.065
-0.08
-0.08
-0.055
-0.015
0.04
0.055
0.05
0.05
0.015
0.01
-0.015
-0.02
-0.01
-0.005
0.02
0.01
0.005
-0.03
-0.06
-0.095
-0.115
-0.145
-0.165
-0.17
-0.175
-0.185
-0.19
-0.195
-0.185
-0.18
-0.17
-0.155
-0.175
-0.195
-0.23
-0.255
-0.255
-0.255
-0.23
-0.235
-0.225
-0.195
-0.135
-0.04
0.07
0.22
0.385
0.605
0.85
1.105
1.34
1.5
1.565
1.5
1.29
0.975
0.6
0.245
-0.045
-0.225
-0.315
-0.32
-0.285
-0.24
-0.195
-0.2
-0.205
-0.205
-0.24
-0.255
-0.28
-0.29
-0.285
-0.26
-0.255
-0.25
-0.245
-0.255
-0.27
-0.28
-0.29
-0.305
-0.3
-0.295
-0.28
-0.28
-0.28
-0.265
-0.25
-0.245
-0.225
-0.23
-0.25
-0.275
-0.3
-0.31
-0.32
-0.305
-0.29
-0.29
-0.28
-0.28
-0.285
-0.28
-0.285
-0.295
-0.295
-0.29
-0.28
-0.255
-0.25
-0.255
-0.26
-0.26
-0.27
-0.25
-0.26
-0.275
-0.285
-0.305
-0.295
-0.275
-0.275
-0.245
-0.235
-0.225
-0.22
-0.23
-0.235
-0.26
-0.28
-0.28
-0.26
-0.255
-0.255
-0.28
-0.285
-0.295
-0.29
-0.29
-0.285
-0.275
-0.28
-0.275
-0.265
-0.24
-0.215
-0.2
-0.19
-0.19
-0.19
-0.17
-0.19
-0.195
-0.205
-0.205
-0.2
-0.19
-0.19
-0.18
-0.19
-0.205
-0.215
-0.21
-0.2
-0.205
-0.22
-0.22
-0.22
-0.215
-0.205
-0.21
-0.24
-0.25
-0.25
-0.255
-0.26
-0.27
-0.28
-0.28
-0.275
-0.265
-0.25
-0.235
-0.235
-0.235
-0.25
-0.25
-0.255
-0.245
-0.25
-0.26
-0.27
-0.26
-0.25
-0.225
-0.215
-0.205
-0.205
-0.205
-0.23
-0.24
-0.25
-0.265
-0.265
-0.28
-0.255
-0.23
-0.21
-0.205
-0.225
-0.235
-0.24
-0.25
-0.26
-0.3
-0.3
-0.295
-0.265
-0.245
-0.245
-0.24
-0.25
-0.25
-0.25
-0.23
-0.225
-0.22
-0.205
-0.19
-0.165
-0.145
-0.13
-0.13
-0.125
-0.12
-0.11
-0.09
-0.105
-0.105
-0.11
-0.115
-0.115
-0.11
-0.105
-0.11
-0.115
-0.125
-0.135
-0.16
-0.19
-0.215
-0.24
-0.265
-0.29
-0.315
-0.325
-0.34
-0.355
-0.355
-0.36
-0.37
-0.37
-0.38
-0.37
-0.37
-0.37
-0.365
-0.37
-0.38
-0.39
-0.395
-0.4
-0.4
-0.415
-0.415
-0.39
-0.335
-0.215
-0.08
0.1
0.315
0.545
0.8
1.04
1.25
1.355
1.34
1.18
0.935
0.6
0.245
-0.045
-0.29
-0.445
-0.51
-0.535
-0.505
-0.47
-0.445
-0.435
-0.435
-0.45
-0.455
-0.465
-0.48
-0.485
-0.5
-0.525
-0.53
-0.525
-0.525
-0.515
-0.515
-0.525
-0.535
-0.55
-0.555
-0.545
-0.545
-0.52
-0.505
-0.52
-0.525
-0.535
-0.535
-0.545
-0.545
-0.545
-0.54
-0.54
-0.53
-0.54
-0.55
-0.565
-0.56
-0.555
-0.55
-0.525
-0.51
-0.505
-0.505
-0.51
-0.51
-0.53
-0.545
-0.54
-0.54
-0.54
-0.54
-0.53
-0.52
-0.495
-0.49
-0.475
-0.465
-0.47
-0.47
-0.495
-0.5
-0.49
-0.485
-0.49
-0.495
-0.5
-0.505
-0.49
-0.5
-0.5
-0.5
-0.51
-0.495
-0.49
-0.5
-0.505
-0.51
-0.505
-0.475
-0.46
-0.44
-0.425
-0.415
-0.41
-0.4
-0.395
-0.395
-0.39
-0.385
-0.39
-0.405
-0.415
-0.42
-0.415
-0.41
-0.41
-0.415
-0.42
-0.41
-0.42
-0.415
-0.425
-0.42
-0.425
-0.45
-0.435
-0.435
-0.43
-0.43
-0.435
-0.445
-0.43
-0.435
-0.43
-0.415
-0.42
-0.42
-0.42
-0.425
-0.43
-0.445
-0.445
-0.44
-0.42
-0.4
-0.385
-0.385
-0.405
-0.41
-0.425
-0.425
-0.42
-0.42
-0.43
-0.42
-0.395
-0.39
-0.375
-0.38
-0.395
-0.415
-0.42
-0.415
-0.41
-0.42
-0.42
-0.425
-0.425
-0.405
-0.395
-0.4
-0.395
-0.41
-0.41
-0.425
-0.43
-0.415
-0.405
-0.385
-0.35
-0.32
-0.305
-0.3
-0.285
-0.28
-0.27
-0.265
-0.265
-0.265
-0.265
-0.255
-0.24
-0.235
-0.255
-0.26
-0.285
-0.315
-0.325
-0.345
-0.37
-0.395
-0.415
-0.425
-0.42
-0.41
-0.425
-0.455
-0.49
-0.51
-0.53
-0.55
-0.55
-0.55
-0.545
-0.55
-0.525
-0.53
-0.53
-0.535
-0.545
-0.54
-0.545
-0.55
-0.55
-0.535
-0.485
-0.39
-0.26
-0.065
0.155
0.39
0.645
0.885
1.085
1.205
1.205
1.065
0.825
0.53
0.205
-0.1
-0.325
-0.5
-0.585
-0.615
-0.58
-0.545
-0.525
-0.53
-0.545
-0.565
-0.6
-0.615
-0.615
-0.63
-0.63
-0.635
-0.625
-0.63
-0.63
-0.65
-0.645
-0.65
-0.64
-0.625
-0.605
-0.62
-0.64
-0.645
-0.64
-0.66
-0.645
-0.65
-0.655
-0.655
-0.645
-0.64
-0.625
-0.63
-0.63
-0.645
-0.655
-0.635
-0.625
-0.625
-0.63
-0.625
-0.635
-0.625
-0.615
-0.6
-0.61
-0.625
-0.635
-0.635
-0.645
-0.65
-0.635
-0.635
-0.62
-0.605
-0.595
-0.585
-0.585
-0.595
-0.57
-0.575
-0.585
-0.585
-0.6
-0.6
-0.59
-0.58
-0.56
-0.55
-0.555
-0.56
-0.555
-0.545
-0.555
-0.55
-0.56
-0.55
-0.56
-0.555
-0.555
-0.56
-0.545
-0.54
-0.53
-0.525
-0.52
-0.52
-0.52
-0.53
-0.52
-0.51
-0.5
-0.495
-0.495
-0.485
-0.475
-0.485
-0.485
-0.485
-0.485
-0.485
-0.485
-0.49
-0.475
-0.475
-0.48
-0.48
-0.51
-0.51
-0.53
-0.52
-0.52
-0.515
-0.495
-0.485
-0.475
-0.48
-0.515
-0.51
-0.535
-0.53
-0.525
-0.53
-0.51
-0.505
-0.5
-0.495
-0.485
-0.505
-0.51
-0.515
-0.525
-0.53
-0.525
-0.515
-0.505
-0.51
-0.5
-0.515
-0.515
-0.505
-0.495
-0.495
-0.48
-0.485
-0.5
-0.51
-0.515
-0.51
-0.52
-0.51
-0.52
-0.525
-0.52
-0.525
-0.525
-0.54
-0.53
-0.545
-0.54
-0.54
-0.525
-0.53
-0.525
-0.54
-0.515
-0.505
-0.49
-0.48
-0.465
-0.465
-0.475
-0.47
-0.45
-0.455
-0.445
-0.43
-0.4
-0.39
-0.38
-0.38
-0.39
-0.4
-0.4
-0.405
-0.395
-0.39
-0.39
-0.415
-0.445
-0.475
-0.495
-0.515
-0.54
-0.545
-0.56
-0.565
-0.57
-0.575
-0.585
-0.615
-0.625
-0.635
-0.64
-0.65
-0.655
-0.665
-0.67
-0.665
-0.68
-0.66
-0.655
-0.665
-0.675
-0.685
-0.71
-0.725
-0.755
-0.76
-0.74
-0.7
-0.605
-0.5
-0.345
-0.155
0.055
0.29
0.53
0.75
0.905
0.975
0.945
0.79
0.565
0.285
0.005
-0.26
-0.465
-0.62
-0.705
-0.745
-0.74
-0.725
-0.71
-0.69
-0.695
-0.7
-0.72
-0.74
-0.755
-0.775
-0.78
-0.79
-0.785
-0.78
-0.765
-0.775
-0.77
-0.775
-0.785
-0.775
-0.785
-0.785
-0.795
-0.8
-0.805
-0.81
-0.795
-0.785
-0.78
-0.76
-0.755
-0.76
-0.76
-0.76
-0.77
-0.785
-0.805
-0.815
-0.805
-0.775
-0.765
-0.74
-0.74
-0.74
-0.76
-0.755
-0.77
-0.795
-0.795
-0.795
-0.78
-0.755
-0.74
-0.735
-0.72
-0.725
-0.72
-0.725
-0.705
-0.72
-0.745
-0.74
-0.73
-0.73
-0.73
-0.72
-0.715
-0.705
-0.695
-0.69
-0.69
-0.69
-0.705
-0.69
-0.695
-0.71
-0.71
-0.7
-0.69
-0.695
-0.69
-0.68
-0.68
-0.67
-0.675
-0.675
-0.69
-0.7
-0.695
-0.71
-0.695
-0.66
-0.65
-0.625
-0.6
-0.595
-0.615
-0.595
-0.605
-0.595
-0.58
-0.57
-0.56
-0.57
-0.575
-0.59
-0.61
-0.63
-0.625
-0.64
-0.64
-0.635
-0.63
-0.605
-0.585
-0.595
-0.6
-0.615
-0.63
-0.625
-0.625
-0.615
-0.615
-0.6
-0.605
-0.605
-0.605
-0.605
-0.605
-0.61
-0.61
-0.615
-0.605
-0.595
-0.61
-0.595
-0.59
-0.575
-0.57
-0.565
-0.57
-0.585
-0.59
-0.585
-0.59
-0.58
-0.58
-0.585
-0.585
-0.57
-0.565
-0.555
-0.555
-0.57
-0.575
-0.575
-0.555
-0.56
-0.565
-0.575
-0.585
-0.59
-0.585
-0.565
-0.575
-0.565
-0.565
-0.565
-0.57
-0.555
-0.55
-0.53
-0.52
-0.495
-0.47
-0.455
-0.47
-0.445
-0.45
-0.445
-0.42
-0.415
-0.41
-0.415
-0.4
-0.395
-0.395
-0.395
-0.41
-0.43
-0.44
-0.46
-0.48
-0.51
-0.53
-0.54
-0.56
-0.57
-0.585
-0.59
-0.595
-0.58
-0.585
-0.595
-0.615
-0.635
-0.63
-0.625
-0.63
-0.615
-0.61
-0.605
-0.61
-0.62
-0.645
-0.665
-0.665
-0.655
-0.61
-0.53
-0.41
-0.24
-0.02
0.225
0.495
0.76
0.995
1.13
1.14
1.025
0.795
0.48
0.14
-0.175
-0.42
-0.58
-0.65
-0.66
-0.63
-0.605
-0.59
-0.585
-0.59
-0.605
-0.62
-0.645
-0.655
-0.67
-0.665
-0.65
-0.655
-0.66
-0.66
-0.675
-0.67
-0.675
-0.665
-0.67
-0.68
-0.68
-0.67
-0.65
-0.655
-0.66
-0.68
-0.69
-0.685
-0.685
-0.66
-0.66
-0.64
-0.645
-0.64
-0.635
-0.63
-0.64
-0.65
-0.65
-0.655
-0.64
-0.64
-0.625
-0.615
-0.625
-0.635
-0.62
-0.61
-0.61
-0.615
-0.615
-0.615
-0.61
-0.58
-0.59
-0.585
-0.59
-0.61
-0.61
-0.605
-0.605
-0.615
-0.61
-0.61
-0.58
-0.575
-0.56
-0.555
-0.56
-0.555
-0.55
-0.555
-0.565
-0.575
-0.585
-0.59
-0.58
-0.565
-0.56
-0.545
-0.545
-0.565
-0.56
-0.555
-0.545
-0.52
-0.5
-0.485
-0.47
-0.455
-0.445
-0.44
-0.45
-0.455
-0.48
-0.475
-0.465
-0.455
-0.455
-0.455
-0.445
-0.445
-0.445
-0.445
-0.445
-0.445
-0.445
-0.435
-0.45
-0.45
-0.465
-0.455
-0.44
-0.405
-0.39
-0.375
-0.38
-0.39
-0.41
-0.42
-0.44
-0.455
-0.46
-0.46
-0.46
-0.44
-0.42
-0.4
-0.39
-0.39
-0.38
-0.37
-0.38
-0.38
-0.39
-0.405
-0.42
-0.415
-0.4
-0.365
-0.355
-0.355
-0.36
-0.37
-0.39
-0.395
-0.39
-0.4
-0.385
-0.38
-0.37
-0.375
-0.37
-0.375
-0.37
-0.365
-0.37
-0.375
-0.4
-0.405
-0.415
-0.4
-0.395
-0.37
-0.34
-0.33
-0.315
-0.31
-0.33
-0.33
-0.315
-0.325
-0.285
-0.285
-0.24
-0.195
-0.16
-0.155
-0.17
-0.2
-0.205
-0.225
-0.225
-0.235
-0.225
-0.235
-0.22
-0.21
-0.225
-0.235
-0.26
-0.3
-0.345
-0.36
-0.375
-0.37
-0.385
-0.39
-0.39
-0.385
-0.375
-0.39
-0.41
-0.42
-0.435
-0.445
-0.445
-0.44
-0.43
-0.42
-0.415
-0.41
-0.415
-0.43
-0.445
-0.455
-0.47
-0.44
-0.385
-0.29
-0.165
0.015
0.235
0.5
0.78
1.045
1.265
1.375
1.325
1.16
0.875
0.545
0.185
-0.115
-0.335
-0.45
-0.49
-0.465
-0.44
-0.38
-0.365
-0.36
-0.395
-0.44
-0.495
-0.52
-0.53
-0.51
-0.49
-0.485
-0.47
-0.465
-0.465
-0.465
-0.47
-0.5
-0.515
-0.51
-0.51
-0.485
-0.475
-0.47
-0.475
-0.475
-0.49
-0.485
-0.485
-0.485
-0.475
-0.465
-0.455
-0.455
-0.465
-0.46
-0.46
-0.46
-0.46
-0.47
-0.47
-0.47
-0.48
-0.47
-0.455
-0.445
-0.45
-0.44
-0.44
-0.44
-0.425
-0.425
-0.425
-0.415
-0.42
-0.415
-0.405
-0.415
-0.425
-0.435
-0.43
-0.42
-0.41
-0.395
-0.41
-0.41
-0.4
-0.4
-0.395
-0.405
-0.41
-0.415
-0.395
-0.4
-0.415
-0.425
-0.43
-0.415
-0.405
-0.365
-0.345
-0.335
-0.34
-0.32
-0.32
-0.315
-0.305
-0.3
-0.285
-0.28
-0.275
-0.27
-0.285
-0.29
-0.28
-0.285
-0.305
-0.31
-0.33
-0.32
-0.32
-0.3
-0.3
-0.3
-0.31
-0.3
-0.305
-0.305
-0.31
-0.31
-0.315
-0.325
-0.325
-0.315
-0.31
-0.295
-0.29
-0.28
-0.27
-0.265
-0.28
-0.295
-0.33
-0.34
-0.34
-0.325
-0.3
-0.305
-0.295
-0.29
-0.285
-0.285
-0.28
-0.295
-0.295
-0.325
-0.32
-0.32
-0.32
-0.315
-0.305
-0.27
-0.27
-0.265
-0.275
-0.28
-0.295
-0.295
-0.3
-0.305
-0.3
-0.3
-0.3
-0.285
-0.285
-0.285
-0.285
-0.265
-0.265
-0.26
-0.25
-0.25
-0.26
-0.24
-0.225
-0.21
-0.175
-0.165
-0.16
-0.15
-0.13
-0.12
-0.105
-0.1
-0.11
-0.115
-0.115
-0.12
-0.105
-0.105
-0.115
-0.135
-0.165
-0.19
-0.195
-0.215
-0.22
-0.24
-0.26
-0.27
-0.295
-0.32
-0.335
-0.335
-0.345
-0.35
-0.335
-0.33
-0.32
-0.335
-0.345
-0.36
-0.37
-0.36
-0.33
-0.325
-0.335
-0.365
-0.4
-0.415
-0.425
-0.38
-0.32
-0.22
-0.105
0.06
0.265
0.49
0.755
1.015
1.245
1.4
1.43
1.31
1.075
0.76
0.425
0.1
-0.135
-0.295
-0.39
-0.42
-0.41
-0.38
-0.35
-0.345
-0.34
-0.365
-0.38
-0.395
-0.405
-0.415
-0.435
-0.455
-0.475
-0.47
-0.465
-0.435
-0.445
-0.44
-0.44
-0.445
-0.435
-0.46
-0.46
-0.48
-0.48
-0.46
-0.44
-0.445
-0.45
-0.465
-0.455
-0.47
-0.46
-0.45
-0.46
-0.47
-0.455
-0.46
-0.455
-0.445
-0.455
-0.455
-0.45
-0.44
-0.435
-0.445
-0.45
-0.455
-0.455
-0.445
-0.435
-0.425
-0.41
-0.4
-0.4
-0.405
-0.4
-0.405
-0.41
-0.4
-0.415
-0.4
-0.405
-0.39
-0.395
-0.385
-0.38
-0.38
-0.385
-0.4
-0.41
-0.415
-0.415
-0.41
-0.415
-0.405
-0.375
-0.365
-0.37
-0.38
-0.405
-0.405
-0.41
-0.375
-0.36
-0.335
-0.32
-0.305
-0.29
-0.27
-0.28
-0.295
-0.3
-0.305
-0.31
-0.32
-0.325
-0.325
-0.325
-0.325
-0.32
-0.305
-0.3
-0.32
-0.33
-0.33
-0.335
-0.34
-0.335
-0.335
-0.345
-0.34
-0.345
-0.325
-0.3
-0.305
-0.3
-0.305
-0.315
-0.31
-0.32
-0.315
-0.315
-0.315
-0.3
-0.29
-0.28
-0.29
-0.29
-0.295
-0.305
-0.3
-0.31
-0.305
-0.285
-0.285
-0.27
-0.27
-0.26
-0.27
-0.27
-0.305
-0.325
-0.32
-0.325
-0.305
-0.315
-0.31
-0.305
-0.3
-0.295
-0.295
-0.29
-0.3
-0.295
-0.31
-0.315
-0.32
-0.31
-0.31
-0.305
-0.29
-0.275
-0.255
-0.25
-0.25
-0.275
-0.285
-0.29
-0.285
-0.255
-0.235
-0.22
-0.21
-0.195
-0.185
-0.16
-0.14
-0.15
-0.15
-0.155
-0.16
-0.155
-0.16
-0.16
-0.155
-0.16
-0.17
-0.185
-0.185
-0.205
-0.23
-0.25
-0.29
-0.32
-0.345
-0.365
-0.395
-0.41
-0.41
-0.405
-0.415
-0.41
-0.43
-0.455
-0.455
-0.44
-0.44
-0.41
-0.42
-0.43
-0.44
-0.44
-0.465
-0.475
-0.495
-0.485
-0.475
-0.42
-0.325
-0.215
-0.065
0.115
0.335
0.585
0.84
1.07
1.215
1.245
1.18
1.005
0.75
0.445
0.125
-0.14
-0.355
-0.47
-0.495
-0.49
-0.48
-0.47
-0.45
-0.45
-0.47
-0.485
-0.51
-0.53
-0.545
-0.545
-0.555
-0.55
-0.555
-0.565
-0.57
-0.59
-0.585
-0.565
-0.56
-0.545
-0.545
-0.555
-0.56
-0.575
-0.58
-0.59
-0.59
-0.6
-0.6
-0.57
-0.565
-0.565
-0.57
-0.565
-0.575
-0.575
-0.58
-0.58
-0.58
-0.58
-0.585
-0.57
-0.555
-0.55
-0.555
-0.555
-0.565
-0.565
-0.57
-0.56
-0.565
-0.575
-0.56
-0.565
-0.555
-0.565
-0.55
-0.55
-0.55
-0.565
-0.56
-0.565
-0.56
-0.565
-0.55
-0.545
-0.52
-0.515
-0.52
-0.53
-0.54
-0.545
-0.565
-0.57
-0.57
-0.565
-0.55
-0.545
-0.535
-0.54
-0.545
-0.545
-0.545
-0.53
-0.535
-0.525
-0.53
-0.52
-0.49
-0.465
-0.445
-0.43
-0.435
-0.43
-0.435
-0.44
-0.45
-0.455
-0.46
-0.455
-0.47
-0.455
-0.455
-0.46
-0.455
-0.465
-0.455
-0.465
-0.46
-0.465
-0.47
-0.475
-0.475
-0.485
-0.49
-0.48
-0.48
-0.47
-0.47
-0.465
-0.475
-0.485
-0.47
-0.46
-0.46
-0.445
-0.455
-0.45
-0.445
-0.45
-0.455
-0.46
-0.495
-0.485
-0.485
-0.46
-0.45
-0.455
-0.445
-0.44
-0.435
-0.445
-0.445
-0.445
-0.46
-0.455
-0.46
-0.465
-0.48
-0.49
-0.48
-0.46
-0.465
-0.44
-0.445
-0.445
-0.45
-0.445
-0.435
-0.43
-0.43
-0.43
-0.42
-0.405
-0.4
-0.395
-0.4
-0.4
-0.4
-0.395
-0.375
-0.335
-0.315
-0.305
-0.29
-0.27
-0.26
-0.26
-0.265
-0.275
-0.275
-0.285
-0.28
-0.27
-0.285
-0.285
-0.305
-0.3
-0.325
-0.35
-0.405
-0.425
-0.445
-0.465
-0.47
-0.46
-0.47
-0.47
-0.46
-0.46
-0.45
-0.465
-0.475
-0.49
-0.5
-0.505
-0.5
-0.5
-0.49
-0.495
-0.49
-0.5
-0.52
-0.53
-0.525
-0.5
-0.45
-0.375
-0.26
-0.095
0.1
0.335
0.59
0.83
1.03
1.15
1.15
1.03
0.795
0.5
0.18
-0.095
-0.315
-0.46
-0.51
-0.51
-0.485
-0.47
-0.45
-0.48
-0.5
-0.52
-0.54
-0.55
-0.54
-0.535
-0.535
-0.525
-0.52
-0.535
-0.535
-0.565
-0.57
-0.59
-0.59
-0.575
-0.555
-0.555
-0.545
-0.54
-0.55
-0.55
-0.56
-0.565
-0.56
-0.56
-0.545
-0.535
-0.52
-0.535
-0.535
-0.535
-0.545
-0.53
-0.525
-0.52
-0.52
-0.535
-0.525
-0.53
-0.525
-0.515
-0.495
-0.505
-0.485
-0.475
-0.485
-0.49
-0.5
-0.525
-0.525
-0.525
-0.5
-0.49
-0.47
-0.465
-0.465
-0.465
-0.47
-0.48
-0.485
-0.505
-0.525
-0.52
-0.505
-0.465
-0.435
-0.425
-0.44
-0.44
-0.455
-0.465
-0.485
-0.49
-0.495
-0.5
-0.495
-0.48
-0.46
-0.45
-0.445
-0.45
-0.44
-0.45
-0.435
-0.43
-0.415
-0.395
-0.365
-0.345
-0.335
-0.32
-0.32
-0.32
-0.33
-0.335
-0.32
-0.32
-0.325
-0.33
-0.33
-0.34
-0.325
-0.33
-0.335
-0.335
-0.375
-0.385
-0.38
-0.35
-0.35
-0.33
-0.32
-0.32
-0.33
-0.33
-0.345
-0.35
-0.345
-0.35
-0.365
-0.365
-0.37
-0.36
-0.355
-0.35
-0.345
-0.335
-0.325
-0.32
-0.325
-0.335
-0.345
-0.34
-0.345
-0.345
-0.35
-0.35
-0.345
-0.34
-0.32
-0.32
-0.305
-0.32
-0.34
-0.34
-0.35
-0.34
-0.335
-0.325
-0.315
-0.305
-0.3
-0.305
-0.315
-0.34
-0.345
-0.35
-0.35
-0.335
-0.32
-0.325
-0.305
-0.29
-0.295
-0.285
-0.295
-0.32
-0.325
-0.325
-0.305
-0.265
-0.245
-0.225
-0.21
-0.175
-0.165
-0.16
-0.17
-0.17
-0.15
-0.15
-0.145
-0.145
-0.125
-0.12
-0.1
-0.095
-0.125
-0.145
-0.185
-0.235
-0.25
-0.275
-0.285
-0.275
-0.295
-0.3
-0.31
-0.305
-0.315
-0.3
-0.32
-0.33
-0.355
-0.36
-0.37
-0.37
-0.37
-0.37
-0.355
-0.35
-0.34
-0.34
-0.35
-0.36
-0.385
-0.395
-0.385
-0.345
-0.28
-0.18
-0.045
0.13
0.335
0.59
0.835
1.075
1.245
1.335
1.315
1.19
0.965
0.69
0.385
0.11
-0.12
-0.26
-0.345
-0.375
-0.375
-0.365
-0.335
-0.325
-0.32
-0.365
-0.38
-0.385
-0.405
-0.42
-0.43
-0.42
-0.44
-0.44
-0.45
-0.44
-0.445
-0.44
-0.42
-0.42
-0.415
-0.41
-0.425
-0.435
-0.435
-0.45
-0.45
-0.45
-0.435
-0.425
-0.425
-0.41
-0.43
-0.425
-0.425
-0.425
-0.415
-0.415
-0.4
-0.41
-0.41
-0.405
-0.395
-0.41
-0.41
-0.395
-0.415
-0.41
-0.405
-0.39
-0.395
-0.385
-0.385
-0.38
-0.375
-0.37
-0.365
-0.375
-0.4
-0.41
-0.415
-0.405
-0.38
-0.36
-0.345
-0.35
-0.34
-0.34
-0.35
-0.35
-0.365
-0.37
-0.365
-0.37
-0.365
-0.365
-0.365
-0.365
-0.36
-0.355
-0.36
-0.365
-0.37
-0.37
-0.35
-0.345
-0.32
-0.325
-0.31
-0.305
-0.29
-0.26
-0.24
-0.225
-0.22
-0.22
-0.22
-0.225
-0.235
-0.235
-0.22
-0.23
-0.23
-0.235
-0.23
-0.23
-0.24
-0.235
-0.245
-0.245
-0.255
-0.25
-0.26
-0.275
-0.285
-0.295
-0.29
-0.265
-0.26
-0.245
-0.255
-0.265
-0.27
-0.27
-0.25
-0.265
-0.23
-0.235
-0.235
-0.235
-0.24
-0.26
-0.27
-0.285
-0.3
-0.295
-0.285
-0.265
-0.245
-0.245
-0.265
-0.265
-0.27
-0.27
-0.255
-0.255
-0.255
-0.26
-0.26
-0.245
-0.22
-0.225
-0.24
-0.23
-0.24
-0.25
-0.265
-0.27
-0.275
-0.28
-0.27
-0.25
-0.225
-0.22
-0.225
-0.23
-0.235
-0.255
-0.245
-0.24
-0.255
-0.26
-0.275
-0.25
-0.23
-0.205
-0.2
-0.19
-0.195
-0.19
-0.185
-0.165
-0.15
-0.13
-0.135
-0.125
-0.1
-0.075
-0.07
-0.055
-0.06
-0.085
-0.08
-0.085
-0.085
-0.08
-0.085
-0.095
-0.105
-0.105
-0.13
-0.16
-0.19
-0.22
-0.25
-0.28
-0.275
-0.285
-0.285
-0.285
-0.29
-0.285
-0.315
-0.31
-0.32
-0.32
-0.33
-0.325
-0.32
-0.325
-0.33
-0.345
-0.325
-0.32
-0.335
-0.335
-0.33
-0.305
-0.24
-0.135
0.015
0.21
0.45
0.715
0.99
1.225
1.375
1.4
1.28
1.045
0.75
0.425
0.125
-0.12
-0.28
-0.35
-0.355
-0.335
-0.3
-0.285
-0.295
-0.315
-0.345
-0.385
-0.415
-0.425
-0.42
-0.41
-0.395
-0.405
-0.41
-0.4
-0.41
-0.415
-0.425
-0.42
-0.43
-0.435
-0.425
-0.415
-0.415
-0.4
-0.395
-0.4
-0.405
-0.405
-0.4
-0.41
-0.41
-0.42
-0.415
-0.41
-0.395
-0.39
-0.39
-0.395
-0.4
-0.405
-0.395
-0.41
-0.4
-0.4
-0.4
-0.4
-0.39
-0.395
-0.39
-0.38
-0.38
-0.38
-0.385
-0.395
-0.41
-0.395
-0.385
-0.355
-0.345
-0.35
-0.36
-0.355
-0.38
-0.39
-0.385
-0.39
-0.37
-0.375
-0.365
-0.365
-0.36
-0.36
-0.375
-0.38
-0.375
-0.37
-0.37
-0.375
-0.38
-0.385
-0.37
-0.34
-0.315
-0.295
-0.28
-0.275
-0.28
-0.275
-0.27
-0.28
-0.275
-0.255
-0.235
-0.22
-0.21
-0.215
-0.245
-0.255
-0.28
-0.285
-0.29
-0.315
-0.295
-0.29
-0.285
-0.285
-0.265
-0.27
-0.265
-0.275
-0.275
-0.27
-0.275
-0.285
-0.3
-0.295
-0.295
-0.285
-0.26
-0.255
-0.27
-0.275
-0.285
-0.285
-0.3
-0.28
-0.275
-0.28
-0.285
-0.27
-0.25
-0.245
-0.25
-0.255
-0.265
-0.27
-0.275
-0.28
-0.29
-0.285
-0.265
-0.26
-0.255
-0.265
-0.25
-0.25
-0.25
-0.25
-0.27
-0.275
