Lead II
0.88
1.115
1.18
1.07
0.75
0.245
-0.355
-0.955
-1.44
-1.715
-1.765
-1.68
-1.48
-1.27
-1.13
-1.065
-1.045
-1.035
-1.045
-1.01
-0.97
-0.955
-0.945
-0.91
-0.92
-0.915
-0.92
-0.925
-0.925
-0.94
-0.935
-0.935
-0.93
-0.92
-0.9
-0.895
-0.905
-0.925
-0.94
-0.945
-0.94
-0.95
-0.935
-0.93
-0.93
-0.915
-0.91
-0.895
-0.9
-0.9
-0.895
-0.9
-0.915
-0.915
-0.92
-0.93
-0.935
-0.94
-0.91
-0.89
-0.89
-0.885
-0.89
-0.91
-0.91
-0.91
-0.905
-0.91
-0.895
-0.89
-0.87
-0.85
-0.855
-0.855
-0.84
-0.85
-0.85
-0.85
-0.85
-0.85
-0.845
-0.81
-0.79
-0.785
-0.78
-0.76
-0.76
-0.76
-0.755
-0.745
-0.75
-0.735
-0.715
-0.695
-0.68
-0.655
-0.625
-0.61
-0.6
-0.61
-0.585
-0.59
-0.585
-0.555
-0.545
-0.525
-0.505
-0.455
-0.445
-0.445
-0.435
-0.44
-0.445
-0.46
-0.46
-0.475
-0.48
-0.48
-0.505
-0.505
-0.52
-0.545
-0.56
-0.59
-0.61
-0.63
-0.675
-0.705
-0.72
-0.715
-0.735
-0.71
-0.725
-0.75
-0.75
-0.78
-0.805
-0.805
-0.81
-0.83
-0.825
-0.815
-0.815
-0.815
-0.81
-0.82
-0.815
-0.835
-0.855
-0.855
-0.865
-0.88
-0.875
-0.86
-0.87
-0.85
-0.845
-0.855
-0.835
-0.85
-0.855
-0.865
-0.875
-0.87
-0.87
-0.845
-0.835
-0.83
-0.82
-0.825
-0.825
-0.83
-0.84
-0.835
-0.845
-0.86
-0.855
-0.85
-0.835
-0.815
-0.82
-0.82
-0.8
-0.815
-0.825
-0.85
-0.85
-0.85
-0.845
-0.81
-0.815
-0.805
-0.81
-0.81
-0.825
-0.84
-0.845
-0.86
-0.85
-0.865
-0.845
-0.835
-0.835
-0.825
-0.825
-0.82
-0.82
-0.845
-0.85
-0.87
-0.88
-0.885
-0.89
-0.86
-0.865
-0.845
-0.85
-0.865
-0.865
-0.865
-0.87
-0.88
-0.88
-0.9
-0.885
-0.875
-0.875
-0.865
-0.875
-0.87
-0.87
-0.88
-0.885
-0.885
-0.895
-0.915
-0.905
-0.905
-0.89
-0.89
-0.885
-0.885
-0.905
-0.91
-0.91
-0.91
-0.915
-0.915
-0.915
-0.9
-0.91
-0.895
-0.895
-0.895
-0.88
-0.905
-0.915
-0.925
-0.925
-0.945
-0.935
-0.925
-0.895
-0.885
-0.88
-0.885
-0.895
-0.905
-0.915
-0.93
-0.94
-0.945
-0.925
-0.92
-0.91
-0.895
-0.895
-0.9
-0.9
-0.91
-0.925
-0.92
-0.945
-0.93
-0.925
-0.915
-0.93
-0.925
-0.91
-0.9
-0.89
-0.905
-0.915
-0.925
-0.93
-0.91
-0.925
-0.91
-0.9
-0.88
-0.885
-0.885
-0.895
-0.91
-0.92
-0.915
-0.92
-0.93
-0.915
-0.905
-0.91
-0.9
-0.89
-0.91
-0.92
-0.91
-0.91
-0.93
-0.925
-0.93
-0.925
-0.915
-0.91
-0.89
-0.88
-0.885
-0.875
-0.9
-0.9
-0.915
-0.915
-0.925
-0.915
-0.905
-0.9
-0.885
-0.9
-0.895
-0.9
-0.915
-0.915
-0.91
-0.915
-0.915
-0.905
-0.915
-0.905
-0.9
-0.895
-0.885
-0.9
-0.9
-0.915
-0.925
-0.935
-0.92
-0.915
-0.92
-0.9
-0.885
-0.87
-0.88
-0.87
-0.89
-0.885
-0.9
-0.875
-0.875
-0.845
-0.815
-0.81
-0.765
-0.75
-0.75
-0.755
-0.745
-0.76
-0.745
-0.74
-0.74
-0.735
-0.73
-0.725
-0.75
-0.745
-0.76
-0.765
-0.795
-0.78
-0.8
-0.8
-0.805
-0.805
-0.82
-0.825
-0.82
-0.84
-0.86
-0.885
-0.9
-0.945
-0.955
-0.97
-0.96
-0.985
-0.96
-0.965
-0.96
-0.96
-0.955
-0.96
-0.965
-0.98
-0.97
-0.985
-0.985
-0.98
-0.965
-0.965
-0.94
-0.94
-0.945
-0.95
-0.94
-0.95
-0.96
-0.96
-0.965
-0.95
-0.96
-0.94
-0.925
-0.9
-0.9
-0.91
-0.89
-0.915
-0.895
-0.9
-0.885
-0.865
-0.85
-0.815
-0.755
-0.65
-0.47
-0.285
-0.03
0.19
0.43
0.69
0.945
1.12
1.17
1.05
0.745
0.29
-0.27
-0.825
-1.29
-1.6
-1.715
-1.65
-1.465
-1.26
-1.12
-1.035
-0.99
-0.97
-0.985
-0.98
-0.96
-0.935
-0.92
-0.905
-0.91
-0.905
-0.91
-0.905
-0.905
-0.9
-0.895
-0.895
-0.905
-0.92
-0.915
-0.92
-0.945
-0.925
-0.92
-0.905
-0.895
-0.89
-0.905
-0.89
-0.9
-0.91
-0.915
-0.94
-0.935
-0.92
-0.915
-0.91
-0.885
-0.89
-0.88
-0.885
-0.895
-0.89
-0.895
-0.895
-0.895
-0.9
-0.91
-0.885
-0.88
-0.86
-0.87
-0.855
-0.875
-0.875
-0.88
-0.89
-0.89
-0.885
-0.87
-0.855
-0.835
-0.84
-0.83
-0.835
-0.85
-0.83
-0.82
-0.835
-0.825
-0.815
-0.8
-0.785
-0.755
-0.735
-0.73
-0.72
-0.71
-0.725
-0.72
-0.705
-0.71
-0.68
-0.655
-0.635
-0.61
-0.58
-0.575
-0.55
-0.56
-0.55
-0.555
-0.55
-0.525
-0.515
-0.49
-0.485
-0.46
-0.445
-0.435
-0.425
-0.42
-0.44
-0.45
-0.45
-0.455
-0.475
-0.475
-0.48
-0.495
-0.5
-0.51
-0.545
-0.56
-0.6
-0.635
-0.655
-0.675
-0.7
-0.715
-0.715
-0.725
-0.725
-0.74
-0.75
-0.77
-0.785
-0.8
-0.825
-0.82
-0.83
-0.84
-0.84
-0.835
-0.835
-0.84
-0.855
-0.855
-0.855
-0.87
-0.865
-0.875
-0.89
-0.865
-0.855
-0.84
-0.85
-0.835
-0.84
-0.85
-0.865
-0.875
-0.87
-0.875
-0.88
-0.865
-0.865
-0.845
-0.845
-0.845
-0.835
-0.84
-0.85
-0.865
-0.865
-0.85
-0.855
-0.855
-0.835
-0.825
-0.815
-0.81
-0.81
-0.81
-0.825
-0.84
-0.84
-0.85
-0.855
-0.835
-0.845
-0.82
-0.82
-0.82
-0.84
-0.86
-0.86
-0.865
-0.865
-0.865
-0.87
-0.865
-0.87
-0.875
-0.88
-0.865
-0.85
-0.86
-0.86
-0.88
-0.88
-0.905
-0.895
-0.885
-0.88
-0.875
-0.86
-0.875
-0.875
-0.875
-0.895
-0.895
-0.885
-0.9
-0.9
-0.905
-0.91
-0.9
-0.89
-0.885
-0.88
-0.895
-0.895
-0.91
-0.915
-0.935
-0.93
-0.93
-0.91
-0.91
-0.91
-0.9
-0.925
-0.92
-0.955
-0.935
-0.93
-0.94
-0.935
-0.93
-0.925
-0.91
-0.915
-0.91
-0.915
-0.915
-0.935
-0.925
-0.955
-0.94
-0.935
-0.93
-0.925
-0.93
-0.91
-0.92
-0.92
-0.925
-0.94
-0.935
-0.95
-0.93
-0.945
-0.935
-0.925
-0.92
-0.92
-0.9
-0.92
-0.925
-0.935
-0.95
-0.95
-0.95
-0.95
-0.945
-0.925
-0.915
-0.915
-0.92
-0.91
-0.915
-0.93
-0.935
-0.93
-0.94
-0.935
-0.93
-0.925
-0.905
-0.905
-0.925
-0.915
-0.915
-0.93
-0.94
-0.945
-0.945
-0.935
-0.93
-0.925
-0.925
-0.915
-0.92
-0.93
-0.94
-0.93
-0.94
-0.945
-0.96
-0.945
-0.945
-0.94
-0.925
-0.92
-0.925
-0.91
-0.915
-0.955
-0.965
-0.955
-0.975
-0.95
-0.95
-0.93
-0.915
-0.91
-0.905
-0.925
-0.93
-0.94
-0.95
-0.96
-0.955
-0.95
-0.945
-0.925
-0.92
-0.905
-0.915
-0.89
-0.865
-0.855
-0.855
-0.845
-0.835
-0.83
-0.82
-0.8
-0.8
-0.775
-0.775
-0.75
-0.735
-0.76
-0.755
-0.775
-0.785
-0.815
-0.81
-0.82
-0.825
-0.795
-0.79
-0.77
-0.77
-0.795
-0.825
-0.87
-0.93
-0.955
-0.96
-0.96
-0.945
-0.945
-0.945
-0.95
-0.965
-0.99
-1.0
-1.01
-1.01
-1.015
-1.02
-1.005
-1.0
-1.01
-1.01
-0.99
-0.985
-1.0
-1.005
-1.015
-1.025
-1.035
-1.04
-1.02
-0.99
-0.97
-0.99
-0.98
-0.96
-0.975
-0.985
-0.995
-0.99
-0.985
-0.98
-0.96
-0.95
-0.93
-0.925
-0.91
-0.91
-0.92
-0.94
-0.94
-0.91
-0.805
-0.665
-0.43
-0.16
0.1
0.405
0.7
0.975
1.145
1.12
0.885
0.465
-0.095
-0.685
-1.225
-1.605
-1.79
-1.805
-1.685
-1.54
-1.395
-1.28
-1.22
-1.165
-1.13
-1.085
-1.045
-1.005
-0.97
-0.955
-0.965
-0.965
-0.98
-1.005
-1.02
-1.0
-1.0
-0.985
-0.96
-0.95
-0.95
-0.945
-0.95
-0.96
-0.975
-0.98
-1.0
-1.0
-1.0
-0.99
-0.965
-0.97
-0.98
-0.975
-0.97
-0.975
-0.98
-0.975
-0.98
-0.98
-0.98
-0.975
-0.97
-0.965
-0.96
-0.955
-0.96
-0.975
-0.975
-0.98
-0.98
-0.995
-0.98
-0.98
-0.96
-0.95
-0.955
-0.94
-0.915
-0.93
-0.94
-0.95
-0.95
-0.955
-0.945
-0.935
-0.92
-0.93
-0.9
-0.9
-0.895
-0.895
-0.9
-0.91
-0.915
-0.91
-0.9
-0.875
-0.865
-0.835
-0.82
-0.805
-0.81
-0.805
-0.81
-0.805
-0.805
-0.795
-0.775
-0.75
-0.715
-0.7
-0.69
-0.68
-0.67
-0.68
-0.68
-0.67
-0.65
-0.645
-0.625
-0.61
-0.595
-0.585
-0.595
-0.595
-0.605
-0.59
-0.62
-0.63
-0.635
-0.655
-0.65
-0.655
-0.69
-0.69
-0.71
-0.705
-0.715
-0.755
-0.78
-0.8
-0.81
-0.835
-0.84
-0.84
-0.84
-0.85
-0.845
-0.855
-0.865
-0.87
-0.885
-0.91
-0.915
-0.925
-0.93
-0.93
-0.92
-0.92
-0.9
-0.91
-0.915
-0.92
-0.93
-0.925
-0.935
-0.94
-0.93
-0.93
-0.925
-0.91
-0.91
-0.92
-0.93
-0.93
-0.935
-0.94
-0.935
-0.945
-0.935
-0.94
-0.95
-0.935
-0.91
-0.905
-0.91
-0.895
-0.895
-0.885
-0.895
-0.905
-0.9
-0.89
-0.87
-0.87
-0.855
-0.86
-0.855
-0.86
-0.875
-0.89
-0.895
-0.885
-0.885
-0.88
-0.88
-0.87
-0.855
-0.865
-0.865
-0.865
-0.905
-0.925
-0.905
-0.9
-0.905
-0.89
-0.88
-0.885
-0.88
-0.9
-0.885
-0.89
-0.92
-0.92
-0.93
-0.925
-0.925
-0.92
-0.9
-0.915
-0.9
-0.895
-0.885
-0.895
-0.915
-0.915
-0.925
-0.93
-0.945
-0.935
-0.905
-0.9
-0.89
-0.895
-0.9
-0.9
-0.93
-0.945
-0.95
-0.94
-0.945
-0.95
-0.93
-0.945
-0.915
-0.915
-0.915
-0.91
-0.915
-0.925
-0.94
-0.94
-0.945
-0.945
-0.94
-0.915
-0.925
-0.92
-0.92
-0.925
-0.935
-0.94
-0.955
-0.955
-0.965
-0.94
-0.93
-0.92
-0.935
-0.92
-0.9
-0.91
-0.92
-0.925
-0.93
-0.935
-0.95
-0.95
-0.94
-0.94
-0.93
-0.93
-0.92
-0.915
-0.92
-0.935
-0.935
-0.96
-0.94
-0.935
-0.925
-0.925
-0.91
-0.92
-0.92
-0.935
-0.92
-0.94
-0.96
-0.955
-0.95
-0.94
-0.945
-0.925
-0.91
-0.905
-0.92
-0.925
-0.91
-0.915
-0.905
-0.895
-0.89
-0.855
-0.84
-0.82
-0.795
-0.805
-0.8
-0.805
-0.8
-0.805
-0.785
-0.765
-0.745
-0.75
-0.75
-0.755
-0.78
-0.77
-0.79
-0.8
-0.8
-0.82
-0.825
-0.815
-0.825
-0.84
-0.84
-0.87
-0.905
-0.925
-0.94
-0.955
-0.97
-0.98
-0.99
-1.005
-1.005
-1.02
-1.01
-0.995
-0.99
-0.975
-0.975
-0.98
-0.995
-0.995
-1.01
-1.01
-1.01
-1.01
-0.995
-0.985
-1.005
-1.0
-0.99
-0.975
-0.98
-0.99
-1.01
-1.005
-1.005
-0.99
-0.995
-0.965
-0.955
-0.95
-0.95
-0.945
-0.955
-0.955
-0.935
-0.94
-0.92
-0.9
-0.86
-0.83
-0.78
-0.68
-0.52
-0.285
-0.035
0.21
0.485
0.745
1.005
1.195
1.27
1.18
0.91
0.505
-0.02
-0.595
-1.135
-1.555
-1.8
-1.855
-1.765
-1.6
-1.44
-1.29
-1.205
-1.155
-1.135
-1.11
-1.07
-1.05
-1.0
-0.97
-0.96
-0.94
-0.94
-0.935
-0.93
-0.945
-0.94
-0.94
-0.94
-0.95
-0.95
-0.965
-0.95
-0.935
-0.915
-0.91
-0.91
-0.91
-0.915
-0.91
-0.925
-0.925
-0.94
-0.945
-0.955
-0.945
-0.94
-0.93
-0.91
-0.93
-0.92
-0.93
-0.935
-0.95
-0.955
-0.955
-0.95
-0.94
-0.93
-0.925
-0.915
-0.915
-0.92
-0.925
-0.945
-0.94
-0.935
-0.94
-0.925
-0.925
-0.905
-0.9
-0.875
-0.885
-0.865
-0.885
-0.89
-0.87
-0.885
-0.87
-0.87
-0.86
-0.85
-0.815
-0.815
-0.8
-0.8
-0.78
-0.77
-0.79
-0.78
-0.785
-0.76
-0.75
-0.71
-0.69
-0.68
-0.67
-0.66
-0.65
-0.635
-0.64
-0.64
-0.63
-0.605
-0.59
-0.565
-0.55
-0.52
-0.52
-0.52
-0.5
-0.485
-0.485
-0.475
-0.475
-0.485
-0.465
-0.455
-0.435
-0.44
-0.455
-0.465
-0.47
-0.5
-0.52
-0.555
-0.565
-0.585
-0.605
-0.63
-0.64
-0.65
-0.675
-0.695
-0.73
-0.75
-0.78
-0.795
-0.805
-0.82
-0.84
-0.83
-0.825
-0.825
-0.825
-0.83
-0.835
-0.85
-0.885
-0.9
-0.92
-0.895
-0.88
-0.885
-0.87
-0.87
-0.86
-0.86
-0.85
-0.87
-0.875
-0.885
-0.88
-0.895
-0.905
-0.88
-0.885
-0.86
-0.86
-0.85
-0.86
-0.88
-0.88
-0.885
-0.885
-0.875
-0.875
-0.84
-0.845
-0.835
-0.835
-0.85
-0.83
-0.845
-0.845
-0.83
-0.86
-0.855
-0.845
-0.835
-0.835
-0.81
-0.805
-0.815
-0.815
-0.83
-0.83
-0.83
-0.835
-0.84
-0.84
-0.82
-0.82
-0.82
-0.82
-0.835
-0.83
-0.835
-0.84
-0.86
-0.87
-0.87
-0.855
-0.86
-0.85
-0.845
-0.835
-0.84
-0.85
-0.865
-0.895
-0.9
-0.89
-0.885
-0.87
-0.87
-0.86
-0.865
-0.865
-0.86
-0.87
-0.88
-0.89
-0.875
-0.89
-0.9
-0.895
-0.885
-0.885
-0.875
-0.885
-0.875
-0.885
-0.89
-0.91
-0.9
-0.925
-0.91
-0.915
-0.9
-0.895
-0.885
-0.9
-0.915
-0.92
-0.9
-0.915
-0.915
-0.92
-0.93
-0.92
-0.91
-0.91
-0.885
-0.885
-0.89
-0.89
-0.885
-0.915
-0.925
-0.925
-0.91
-0.91
-0.91
-0.9
-0.88
-0.9
-0.89
-0.885
-0.905
-0.91
-0.915
-0.92
-0.925
-0.905
-0.91
-0.925
-0.915
-0.9
-0.89
-0.895
-0.9
-0.915
-0.915
-0.93
-0.92
-0.93
-0.925
-0.92
-0.9
-0.9
-0.89
-0.9
-0.905
-0.915
-0.915
-0.915
-0.93
-0.935
-0.92
-0.92
-0.89
-0.89
-0.905
-0.895
-0.9
-0.9
-0.91
-0.925
-0.935
-0.925
-0.915
-0.91
-0.895
-0.905
-0.895
-0.925
-0.92
-0.925
-0.92
-0.92
-0.92
-0.925
-0.905
-0.895
-0.9
-0.905
-0.9
-0.905
-0.91
-0.91
-0.93
-0.93
-0.93
-0.925
-0.925
-0.905
-0.89
-0.885
-0.885
-0.9
-0.885
-0.9
-0.9
-0.91
-0.9
-0.905
-0.895
-0.89
-0.88
-0.885
-0.88
-0.875
-0.885
-0.9
-0.915
-0.91
-0.91
-0.905
-0.885
-0.87
-0.875
-0.87
-0.87
-0.865
-0.845
-0.85
-0.84
-0.83
-0.815
-0.795
-0.775
-0.745
-0.725
-0.725
-0.74
-0.735
-0.735
-0.73
-0.73
-0.725
-0.73
-0.735
-0.75
-0.75
-0.74
-0.75
-0.745
-0.775
-0.785
-0.785
-0.79
-0.785
-0.8
-0.805
-0.815
-0.83
-0.845
-0.855
-0.885
-0.91
-0.915
-0.935
-0.95
-0.96
-0.985
-0.975
-0.96
-0.96
-0.96
-0.955
-0.95
-0.965
-0.96
-0.985
-0.97
-0.98
-0.98
-0.98
-0.955
-0.945
-0.95
-0.935
-0.93
-0.935
-0.935
-0.925
-0.935
-0.96
-0.96
-0.94
-0.925
-0.925
-0.915
-0.89
-0.875
-0.88
-0.88
-0.885
-0.88
-0.845
-0.81
-0.78
-0.69
-0.53
-0.31
-0.055
0.2
0.455
0.725
1.0
1.21
1.285
1.185
0.875
0.375
-0.23
-0.85
-1.375
-1.675
-1.74
-1.615
-1.41
-1.2
-1.06
-0.985
-0.97
-0.975
-0.985
-0.965
-0.95
-0.925
-0.905
-0.895
-0.9
-0.905
-0.915
-0.925
-0.915
-0.91
-0.895
-0.9
-0.89
-0.885
-0.895
-0.9
-0.91
-0.9
-0.915
-0.93
-0.92
-0.925
-0.91
-0.9
-0.885
-0.885
-0.895
-0.905
-0.925
-0.915
-0.92
-0.925
-0.905
-0.905
-0.895
-0.87
-0.88
-0.875
-0.87
-0.875
-0.9
-0.89
-0.895
-0.895
-0.9
-0.875
-0.87
-0.865
-0.845
-0.845
-0.845
-0.86
-0.86
-0.865
-0.865
-0.855
-0.85
-0.815
-0.815
-0.815
-0.79
-0.795
-0.795
-0.815
-0.795
-0.785
-0.78
-0.775
-0.755
-0.75
-0.725
-0.71
-0.69
-0.68
-0.66
-0.66
-0.65
-0.64
-0.625
-0.625
-0.59
-0.565
-0.545
-0.52
-0.53
-0.5
-0.485
-0.475
-0.475
-0.465
-0.455
-0.445
-0.43
-0.42
-0.42
-0.4
-0.375
-0.37
-0.38
-0.38
-0.405
-0.43
-0.425
-0.445
-0.46
-0.485
-0.485
-0.495
-0.5
-0.54
-0.55
-0.575
-0.615
-0.63
-0.645
-0.66
-0.675
-0.68
-0.705
-0.705
-0.715
-0.74
-0.73
-0.755
-0.77
-0.775
-0.805
-0.805
-0.81
-0.8
-0.805
-0.81
-0.785
-0.79
-0.805
-0.815
-0.815
-0.825
-0.83
-0.83
-0.83
-0.825
-0.82
-0.805
-0.805
-0.805
-0.8
-0.805
-0.82
-0.825
-0.835
-0.835
-0.82
-0.805
-0.81
-0.785
-0.78
-0.785
-0.79
-0.795
-0.8
-0.815
-0.815
-0.815
-0.815
-0.82
-0.8
-0.79
-0.79
-0.81
-0.805
-0.815
-0.82
-0.815
-0.825
-0.83
-0.845
-0.825
-0.81
-0.795
-0.795
-0.8
-0.815
-0.82
-0.83
-0.83
-0.845
-0.84
-0.84
-0.85
-0.84
-0.835
-0.825
-0.835
-0.84
-0.845
-0.865
-0.865
-0.88
-0.88
-0.885
-0.875
-0.875
-0.865
-0.86
-0.865
-0.875
-0.89
-0.895
-0.9
-0.92
-0.915
-0.925
-0.92
-0.89
-0.895
-0.905
-0.885
-0.895
-0.91
-0.94
-0.945
-0.95
-0.945
-0.945
-0.925
-0.915
-0.895
-0.895
-0.9
-0.91
-0.9
-0.925
-0.93
-0.95
-0.955
-0.94
-0.925
-0.915
-0.915
-0.92
-0.915
-0.92
-0.91
-0.93
-0.935
-0.94
-0.935
-0.94
-0.93
-0.925
-0.905
-0.91
-0.91
-0.915
-0.92
-0.935
-0.945
-0.945
-0.94
-0.935
-0.93
-0.935
-0.92
-0.92
-0.92
-0.92
-0.935
-0.925
-0.935
-0.94
-0.955
-0.94
-0.93
-0.925
-0.92
-0.92
-0.925
-0.93
-0.945
-0.93
-0.94
-0.93
-0.94
-0.94
-0.935
-0.93
-0.915
-0.91
-0.915
-0.925
-0.95
-0.935
-0.935
-0.95
-0.94
-0.935
-0.93
-0.915
-0.92
-0.905
-0.915
-0.92
-0.92
-0.935
-0.945
-0.94
-0.94
-0.945
-0.935
-0.93
-0.92
-0.915
-0.93
-0.92
-0.94
-0.925
-0.93
-0.925
-0.93
-0.93
-0.925
-0.93
-0.905
-0.905
-0.9
-0.905
-0.92
-0.935
-0.96
-0.94
-0.94
-0.945
-0.94
-0.91
-0.915
-0.905
-0.905
-0.91
-0.905
-0.925
-0.935
-0.935
-0.925
-0.925
-0.905
-0.89
-0.89
-0.89
-0.86
-0.845
-0.835
-0.82
-0.815
-0.82
-0.815
-0.82
-0.805
-0.785
-0.76
-0.75
-0.725
-0.71
-0.705
-0.7
-0.72
-0.75
-0.77
-0.765
-0.765
-0.77
-0.78
-0.76
-0.77
-0.785
-0.795
-0.815
-0.845
-0.865
-0.895
-0.905
-0.935
-0.93
-0.935
-0.935
-0.96
-0.96
-0.965
-0.975
-0.995
-1.015
-1.025
-1.025
-1.0
-0.99
-0.975
-0.965
-0.96
-0.975
-0.98
-0.99
-0.995
-1.005
-0.99
-0.99
-0.985
-0.965
-0.96
-0.97
-0.975
-0.98
-1.005
-0.985
-0.99
-1.005
-1.0
-0.98
-0.985
-0.955
-0.95
-0.925
-0.93
-0.925
-0.925
-0.925
-0.915
-0.915
-0.885
-0.83
-0.725
-0.555
-0.325
-0.075
0.185
0.42
0.69
0.94
1.145
1.22
1.125
0.835
0.41
-0.1
-0.65
-1.155
-1.545
-1.76
-1.805
-1.745
-1.6
-1.475
-1.335
-1.275
-1.215
-1.17
-1.145
-1.09
-1.04
-1.01
-0.975
-0.97
-0.96
-0.965
-0.97
-0.995
-1.0
-0.98
-0.98
-0.95
-0.945
-0.945
-0.975
-0.985
-0.995
-0.99
-0.99
-0.98
-0.945
-0.935
-0.93
-0.93
-0.945
-0.94
-0.93
-0.95
-0.98
-0.97
-0.96
-0.965
-0.96
-0.945
-0.935
-0.925
-0.93
-0.935
-0.95
-0.945
-0.96
-0.965
-0.96
-0.955
-0.955
-0.925
-0.93
-0.925
-0.935
-0.94
-0.94
-0.945
-0.935
-0.94
-0.93
-0.945
-0.925
-0.915
-0.91
-0.905
-0.9
-0.885
-0.895
-0.9
-0.9
-0.905
-0.89
-0.865
-0.855
-0.83
-0.825
-0.81
-0.82
-0.795
-0.795
-0.785
-0.8
-0.8
-0.78
-0.765
-0.745
-0.73
-0.72
-0.695
-0.685
-0.675
-0.66
-0.66
-0.67
-0.65
-0.635
-0.625
-0.605
-0.6
-0.595
-0.585
-0.555
-0.545
-0.54
-0.535
-0.535
-0.54
-0.545
-0.535
-0.535
-0.525
-0.525
-0.53
-0.54
-0.555
-0.58
-0.59
-0.61
-0.635
-0.655
-0.67
-0.695
-0.69
-0.71
-0.745
-0.765
-0.775
-0.785
-0.81
-0.815
-0.835
-0.845
-0.85
-0.85
-0.855
-0.86
-0.83
-0.85
-0.86
-0.88
-0.885
-0.895
-0.905
-0.915
-0.89
-0.89
-0.89
-0.88
-0.87
-0.88
-0.88
-0.89
-0.9
-0.9
-0.9
-0.92
-0.895
-0.9
-0.88
-0.875
-0.87
-0.875
-0.865
-0.875
-0.895
-0.89
-0.895
-0.895
-0.885
-0.865
-0.86
-0.875
-0.855
-0.855
-0.87
-0.88
-0.87
-0.87
-0.87
-0.87
-0.87
-0.865
-0.865
-0.85
-0.835
-0.85
-0.84
-0.855
-0.855
-0.865
-0.885
-0.875
-0.9
-0.91
-0.885
-0.89
-0.87
-0.885
-0.875
-0.885
-0.88
-0.88
-0.89
-0.9
-0.895
-0.9
-0.91
-0.91
-0.89
-0.895
-0.905
-0.9
-0.915
-0.93
-0.93
-0.95
-0.94
-0.93
-0.93
-0.915
-0.91
-0.915
-0.915
-0.925
-0.93
-0.94
-0.955
-0.965
-0.96
-0.96
-0.945
-0.94
-0.945
-0.935
-0.94
-0.935
-0.95
-0.97
-0.97
-0.975
-0.98
-0.975
-0.98
-0.98
-0.975
-0.97
-0.96
-0.965
-0.97
-0.99
-0.995
-1.005
-0.995
-0.995
-0.975
-0.955
-0.955
-0.955
-0.965
-0.97
-0.995
-1.01
-1.02
-1.01
-0.985
-0.985
-0.96
-0.945
-0.965
-0.96
-0.95
-0.96
-0.97
-0.98
-0.985
-0.98
-0.975
-0.99
-0.98
-0.965
-0.965
-0.96
-0.95
-0.96
-0.97
-0.975
-0.995
-0.995
-0.99
-0.98
-0.975
-0.965
-0.96
-0.965
-0.965
-0.965
-0.98
-1.0
-0.985
-1.015
-1.005
-0.985
-0.985
-0.975
-0.945
-0.955
-0.955
-0.95
-0.97
-0.995
-0.97
-0.985
-0.985
-0.96
-0.945
-0.945
-0.92
-0.89
-0.88
-0.865
-0.865
-0.85
-0.84
-0.835
-0.83
-0.825
-0.8
-0.775
-0.76
-0.745
-0.735
-0.76
-0.775
-0.83
-0.815
-0.835
-0.85
-0.845
-0.835
-0.825
-0.82
-0.83
-0.835
-0.85
-0.9
-0.935
-0.965
-0.995
-1.0
-1.0
-0.995
-0.99
-0.985
-1.0
-1.0
-1.01
-1.02
-1.04
-1.055
-1.06
-1.045
-1.03
-1.025
-1.02
-1.01
-1.02
-1.01
-1.01
-1.01
-1.03
-1.035
-1.03
-1.035
-1.03
-1.01
-1.005
-1.0
-0.99
-0.995
-0.99
-1.005
-1.01
-1.015
-1.0
-1.005
-0.995
-0.98
-0.96
-0.945
-0.925
-0.915
-0.905
-0.9
-0.88
-0.81
-0.665
-0.46
-0.215
0.065
0.34
0.64
0.91
1.19
1.305
1.27
1.025
0.6
0.035
-0.595
-1.18
-1.62
-1.86
-1.87
-1.745
-1.56
-1.36
-1.24
-1.17
-1.145
-1.13
-1.12
-1.075
-1.035
-1.0
-0.97
-0.95
-0.96
-0.96
-0.975
-1.0
-1.01
-1.01
-1.01
-1.0
-0.985
-0.995
-0.985
-0.97
-0.99
-0.995
-0.99
-0.995
-0.99
-0.99
-0.985
-0.985
-0.98
-0.98
-0.96
-0.955
-0.945
-0.94
-0.98
-0.98
-0.985
-1.0
-0.98
-0.965
-0.97
-0.965
-0.945
-0.95
-0.955
-0.955
-0.96
-0.97
-0.975
-0.975
-0.975
-0.97
-0.955
-0.94
-0.93
-0.935
-0.925
-0.935
-0.93
-0.935
-0.935
-0.925
-0.92
-0.925
-0.895
-0.87
-0.87
-0.865
-0.86
-0.855
-0.85
-0.845
-0.835
-0.835
-0.82
-0.805
-0.785
-0.765
-0.755
-0.735
-0.72
-0.715
-0.715
-0.71
-0.705
-0.695
-0.69
-0.665
-0.63
-0.605
-0.59
-0.565
-0.55
-0.545
-0.535
-0.525
-0.525
-0.515
-0.515
-0.49
-0.485
-0.465
-0.45
-0.455
-0.44
-0.46
-0.465
-0.505
-0.515
-0.535
-0.545
-0.575
-0.585
-0.595
-0.615
-0.645
-0.67
-0.7
-0.72
-0.74
-0.78
-0.8
-0.81
-0.82
-0.825
-0.835
-0.835
-0.85
-0.845
-0.865
-0.89
-0.9
-0.915
-0.915
-0.905
-0.91
-0.905
-0.915
-0.905
-0.895
-0.895
-0.89
-0.9
-0.905
-0.925
-0.925
-0.93
-0.95
-0.93
-0.915
-0.905
-0.9
-0.89
-0.895
-0.905
-0.91
-0.92
-0.925
-0.925
-0.915
-0.91
-0.9
-0.88
-0.885
-0.9
-0.905
-0.895
-0.9
-0.905
-0.9
-0.89
-0.89
-0.885
-0.87
-0.86
-0.86
-0.865
-0.85
-0.86
-0.87
-0.895
-0.905
-0.89
-0.875
-0.875
-0.875
-0.85
-0.84
-0.855
-0.86
-0.86
-0.88
-0.89
-0.905
-0.905
-0.905
-0.89
-0.9
-0.895
-0.88
-0.89
-0.885
-0.9
-0.915
-0.93
-0.93
-0.92
-0.935
-0.92
-0.91
-0.9
-0.905
-0.9
-0.925
-0.935
-0.925
-0.94
-0.955
-0.95
-0.945
-0.94
-0.93
-0.925
-0.915
-0.91
-0.92
-0.945
-0.945
-0.955
-0.96
-0.96
-0.955
-0.95
-0.94
-0.95
-0.945
-0.94
-0.94
-0.95
-0.95
-0.96
-0.965
-0.965
-0.96
-0.95
-0.95
-0.925
-0.94
-0.945
-0.96
-0.965
-0.955
-0.98
-0.965
-0.97
-0.97
-0.95
-0.945
-0.94
-0.92
-0.95
-0.94
-0.955
-0.965
-0.965
-0.955
-0.965
-0.97
-0.96
-0.945
-0.915
-0.94
-0.935
-0.945
-0.95
-0.945
-0.96
-0.975
-0.97
-0.96
-0.97
-0.96
-0.94
-0.935
-0.945
-0.945
-0.965
-0.955
-0.975
-0.965
-0.96
-0.965
-0.955
-0.97
-0.935
-0.94
-0.935
-0.965
-0.945
-0.96
-0.965
-0.97
-0.97
-0.96
-0.95
-0.94
-0.935
-0.935
-0.925
-0.935
-0.96
-0.97
-0.965
-0.98
-0.965
-0.97
-0.95
-0.955
-0.95
-0.945
-0.94
-0.94
-0.945
-0.965
-0.96
-0.97
-0.97
-0.96
-0.965
-0.925
-0.92
-0.93
-0.93
-0.935
-0.94
-0.955
-0.945
-0.94
-0.945
-0.945
-0.93
-0.92
-0.905
-0.905
-0.905
-0.895
-0.905
-0.91
-0.895
-0.885
-0.875
-0.86
-0.825
-0.8
-0.77
-0.78
-0.775
-0.775
-0.78
-0.78
-0.785
-0.775
-0.755
-0.76
-0.755
-0.755
-0.775
-0.78
-0.79
-0.795
-0.815
-0.82
-0.83
-0.84
-0.85
-0.86
-0.865
-0.89
-0.895
-0.915
-0.925
-0.95
-0.98
-0.985
-0.985
-1.0
-1.005
-1.01
-1.01
-1.005
-1.015
-0.99
-0.99
-0.995
-0.995
-1.005
-1.01
-1.01
-1.015
-1.0
-0.995
-0.995
-0.98
-0.985
-0.99
-1.01
-0.995
-1.0
-1.005
-1.0
-1.0
-0.985
-0.985
-0.965
-0.955
-0.94
-0.935
-0.93
-0.935
-0.94
-0.935
-0.93
-0.92
-0.89
-0.855
-0.795
-0.69
-0.545
-0.335
-0.08
0.175
0.44
0.72
1.0
1.2
1.27
1.15
0.84
0.38
-0.21
-0.815
-1.325
-1.655
-1.79
-1.725
-1.56
-1.375
-1.205
-1.11
-1.055
-1.055
-1.055
-1.035
-1.025
-1.005
-0.98
-0.975
-0.965
-0.96
-0.96
-0.95
-0.95
-0.945
-0.935
-0.93
-0.935
-0.93
-0.935
-0.96
-0.97
-0.965
-0.955
-0.94
-0.94
-0.92
-0.92
-0.925
-0.925
-0.945
-0.97
-0.96
-0.95
-0.955
-0.945
-0.93
-0.93
-0.92
-0.925
-0.93
-0.94
-0.955
-0.96
-0.95
-0.955
-0.95
-0.945
-0.93
-0.92
-0.915
-0.91
-0.905
-0.905
-0.905
-0.92
-0.93
-0.93
-0.915
-0.905
-0.885
-0.885
-0.865
-0.855
-0.86
-0.855
-0.85
-0.87
-0.855
-0.86
-0.855
-0.835
-0.825
-0.795
-0.78
-0.775
-0.765
-0.755
-0.745
-0.75
-0.73
-0.735
-0.71
-0.695
-0.68
-0.655
-0.63
-0.62
-0.595
-0.6
-0.575
-0.575
-0.56
-0.565
-0.55
-0.53
-0.495
-0.485
-0.455
-0.445
-0.43
-0.425
-0.425
-0.43
-0.425
-0.425
-0.42
-0.415
-0.415
-0.415
-0.42
-0.425
-0.435
-0.46
-0.47
-0.495
-0.535
-0.56
-0.585
-0.63
-0.635
-0.635
-0.65
-0.655
-0.7
-0.71
-0.73
-0.76
-0.77
-0.795
-0.825
-0.83
-0.835
-0.85
-0.835
-0.83
-0.835
-0.845
-0.85
-0.86
-0.86
-0.87
-0.875
-0.87
-0.865
-0.855
-0.85
-0.855
-0.84
-0.85
-0.865
-0.88
-0.89
-0.9
-0.895
-0.9
-0.9
-0.895
-0.88
-0.865
-0.875
-0.86
-0.86
-0.875
-0.875
-0.895
-0.88
-0.88
-0.875
-0.865
-0.845
-0.84
-0.845
-0.845
-0.845
-0.855
-0.87
-0.88
-0.87
-0.875
-0.875
-0.875
-0.83
-0.83
-0.835
-0.82
-0.835
-0.855
-0.855
-0.855
-0.87
-0.86
-0.87
-0.865
-0.87
-0.855
-0.875
-0.86
-0.9
-0.9
-0.91
-0.895
-0.92
-0.91
-0.91
-0.9
-0.895
-0.87
-0.895
-0.89
-0.91
-0.92
-0.925
-0.945
-0.945
-0.95
-0.93
-0.93
-0.91
-0.915
-0.91
-0.91
-0.915
-0.935
-0.93
-0.935
-0.945
-0.94
-0.94
-0.95
-0.935
-0.94
-0.91
-0.93
-0.94
-0.945
-0.95
-0.97
-0.96
-0.96
-0.95
-0.935
-0.925
-0.92
-0.935
-0.95
-0.945
-0.97
-0.97
-0.98
-0.975
-0.965
-0.96
-0.955
-0.925
-0.935
-0.95
-0.96
-0.965
-0.945
-0.945
-0.96
-0.985
-0.97
-0.955
-0.945
-0.935
-0.925
-0.925
-0.93
-0.945
-0.955
-0.965
-0.975
-0.96
-0.955
-0.95
-0.945
-0.94
-0.935
-0.94
-0.945
-0.96
-0.945
-0.975
-0.975
-0.975
-0.96
-0.965
-0.955
-0.945
-0.945
-0.945
-0.945
-0.955
-0.975
-0.98
-0.97
-0.97
-0.97
-0.96
-0.95
-0.945
-0.945
-0.945
-0.95
-0.955
-0.96
-0.965
-0.955
-0.965
-0.975
-0.96
-0.96
-0.95
-0.945
-0.945
-0.945
-0.955
-0.96
-0.97
-0.985
-0.985
-0.99
-0.965
-0.96
-0.95
-0.935
-0.94
-0.945
-0.96
-0.97
-0.975
-0.98
-0.98
-0.98
-0.975
-0.955
-0.95
-0.945
-0.95
-0.93
-0.945
-0.96
-0.97
-0.97
-0.975
-0.975
-0.96
-0.95
-0.95
-0.925
-0.92
-0.915
-0.925
-0.91
-0.91
-0.89
-0.89
-0.87
-0.855
-0.825
-0.805
-0.805
-0.8
-0.805
-0.765
-0.76
-0.76
-0.77
-0.795
-0.805
-0.81
-0.83
-0.82
-0.815
-0.825
-0.825
-0.825
-0.835
-0.865
-0.885
-0.925
-0.955
-0.975
-0.98
-0.995
-1.005
-0.99
-1.0
-1.005
-1.04
-1.04
-1.065
-1.06
-1.06
-1.055
-1.05
-1.035
-1.03
-1.025
-1.025
-1.035
-1.04
-1.065
-1.065
-1.06
-1.055
-1.055
-1.045
-1.02
-1.02
-1.01
-1.02
-1.025
-1.03
-1.03
-1.03
-1.02
-1.025
-1.0
-0.995
-0.97
-0.96
-0.955
-0.945
-0.95
-0.945
-0.945
-0.925
-0.83
-0.685
-0.455
-0.19
0.1
0.41
0.745
1.055
1.26
1.255
1.04
0.605
0.025
-0.615
-1.21
-1.645
-1.865
-1.89
-1.78
-1.615
-1.435
-1.32
-1.255
-1.215
-1.17
-1.14
-1.085
-1.04
-1.005
-0.98
-0.99
-0.995
-1.005
-1.015
-1.035
-1.035
-1.03
-1.015
-1.03
-1.02
-1.02
-1.0
-1.01
-0.995
-0.985
-1.005
-1.015
-1.01
-1.02
-1.01
-1.0
-0.985
-0.985
-0.99
-1.005
-0.995
-1.005
-1.005
-1.025
-1.015
-1.02
-1.01
-1.02
-1.015
-1.01
-0.985
-0.98
-0.985
-0.975
-1.0
-1.015
-1.01
-1.015
-1.005
-1.0
