Lead II
-1.04
-1.04
-1.03
-1.015
-1.0
-0.985
-0.96
-0.93
-0.935
-0.92
-0.91
-0.905
-0.89
-0.855
-0.82
-0.805
-0.775
-0.75
-0.73
-0.72
-0.715
-0.71
-0.715
-0.735
-0.73
-0.72
-0.73
-0.73
-0.715
-0.7
-0.695
-0.685
-0.715
-0.725
-0.725
-0.725
-0.735
-0.735
-0.74
-0.74
-0.725
-0.715
-0.715
-0.715
-0.725
-0.73
-0.73
-0.74
-0.755
-0.76
-0.76
-0.74
-0.735
-0.74
-0.74
-0.735
-0.74
-0.745
-0.75
-0.755
-0.76
-0.785
-0.78
-0.79
-0.79
-0.78
-0.78
-0.775
-0.78
-0.775
-0.78
-0.795
-0.805
-0.8
-0.805
-0.805
-0.795
-0.805
-0.8
-0.8
-0.79
-0.785
-0.79
-0.8
-0.805
-0.8
-0.8
-0.79
-0.79
-0.78
-0.765
-0.75
-0.745
-0.745
-0.735
-0.715
-0.72
-0.715
-0.71
-0.705
-0.68
-0.675
-0.67
-0.67
-0.66
-0.66
-0.655
-0.64
-0.625
-0.61
-0.6
-0.595
-0.585
-0.575
-0.57
-0.56
-0.545
-0.55
-0.565
-0.57
-0.595
-0.59
-0.605
-0.62
-0.61
-0.625
-0.625
-0.625
-0.63
-0.645
-0.655
-0.665
-0.695
-0.71
-0.71
-0.715
-0.715
-0.715
-0.705
-0.7
-0.7
-0.69
-0.685
-0.69
-0.71
-0.7
-0.69
-0.695
-0.68
-0.66
-0.665
-0.655
-0.645
-0.64
-0.64
-0.63
-0.615
-0.6
-0.585
-0.54
-0.485
-0.415
-0.31
-0.22
-0.12
0.015
0.16
0.325
0.545
0.755
0.94
1.09
1.215
1.32
1.435
1.525
1.525
1.345
1.01
0.58
0.1
-0.345
-0.695
-0.895
-0.98
-0.985
-0.935
-0.885
-0.845
-0.815
-0.81
-0.8
-0.8
-0.79
-0.785
-0.78
-0.775
-0.78
-0.78
-0.77
-0.79
-0.805
-0.815
-0.825
-0.82
-0.82
-0.81
-0.81
-0.81
-0.81
-0.8
-0.81
-0.81
-0.81
-0.815
-0.83
-0.845
-0.85
-0.84
-0.85
-0.83
-0.85
-0.85
-0.825
-0.855
-0.85
-0.86
-0.865
-0.875
-0.87
-0.88
-0.875
-0.88
-0.86
-0.87
-0.86
-0.87
-0.87
-0.875
-0.905
-0.9
-0.915
-0.915
-0.915
-0.925
-0.925
-0.91
-0.915
-0.92
-0.92
-0.925
-0.91
-0.92
-0.915
-0.905
-0.9
-0.875
-0.865
-0.835
-0.825
-0.815
-0.805
-0.79
-0.775
-0.775
-0.745
-0.725
-0.71
-0.675
-0.655
-0.635
-0.605
-0.6
-0.565
-0.555
-0.565
-0.56
-0.57
-0.565
-0.555
-0.545
-0.555
-0.535
-0.53
-0.54
-0.53
-0.54
-0.545
-0.555
-0.57
-0.57
-0.565
-0.56
-0.555
-0.545
-0.555
-0.555
-0.555
-0.56
-0.555
-0.57
-0.585
-0.58
-0.585
-0.59
-0.58
-0.575
-0.575
-0.59
-0.585
-0.59
-0.605
-0.605
-0.615
-0.61
-0.615
-0.61
-0.605
-0.605
-0.595
-0.595
-0.615
-0.625
-0.62
-0.635
-0.63
-0.63
-0.63
-0.62
-0.615
-0.595
-0.59
-0.6
-0.59
-0.6
-0.595
-0.605
-0.61
-0.615
-0.605
-0.595
-0.59
-0.57
-0.565
-0.565
-0.565
-0.565
-0.55
-0.56
-0.565
-0.575
-0.57
-0.57
-0.57
-0.54
-0.535
-0.535
-0.52
-0.535
-0.53
-0.54
-0.54
-0.535
-0.535
-0.53
-0.52
-0.52
-0.525
-0.53
-0.56
-0.57
-0.585
-0.625
-0.645
-0.655
-0.68
-0.69
-0.705
-0.71
-0.73
-0.75
-0.78
-0.825
-0.865
-0.89
-0.895
-0.905
-0.905
-0.915
-0.93
-0.915
-0.925
-0.945
-0.955
-0.97
-0.965
-0.98
-0.99
-0.99
-0.995
-1.0
-0.995
-0.985
-0.95
-0.94
-0.905
-0.86
-0.815
-0.79
-0.74
-0.7
-0.59
-0.455
-0.285
-0.105
0.05
0.2
0.305
0.425
0.54
0.62
0.62
0.49
0.2
-0.2
-0.67
-1.115
-1.495
-1.76
-1.895
-1.95
-1.94
-1.915
-1.875
-1.85
-1.85
-1.85
-1.845
-1.845
-1.83
-1.825
-1.835
-1.835
-1.86
-1.865
-1.865
-1.88
-1.88
-1.875
-1.865
-1.86
-1.86
-1.87
-1.875
-1.875
-1.89
-1.9
-1.91
-1.9
-1.9
-1.9
-1.895
-1.89
-1.89
-1.885
-1.89
-1.89
-1.91
-1.92
-1.94
-1.94
-1.93
-1.935
-1.925
-1.915
-1.91
-1.92
-1.94
-1.945
-1.955
-1.98
-1.99
-1.99
-1.98
-1.985
-1.975
-1.965
-1.96
-1.97
-1.98
-1.975
-1.99
-1.995
-2.0
-2.005
-1.995
-1.985
-1.965
-1.97
-1.96
-1.955
-1.95
-1.95
-1.945
-1.945
-1.96
-1.95
-1.935
-1.91
-1.885
-1.865
-1.845
-1.825
-1.82
-1.805
-1.795
-1.795
-1.79
-1.765
-1.745
-1.73
-1.705
-1.695
-1.685
-1.69
-1.67
-1.675
-1.675
-1.685
-1.675
-1.7
-1.66
-1.66
-1.67
-1.665
-1.65
-1.64
-1.65
-1.655
-1.645
-1.665
-1.665
-1.67
-1.68
-1.67
-1.67
-1.665
-1.66
-1.66
-1.665
-1.665
-1.68
-1.7
-1.695
-1.695
-1.695
-1.695
-1.69
-1.685
-1.685
-1.685
-1.685
-1.705
-1.7
-1.71
-1.71
-1.71
-1.715
-1.715
-1.715
-1.72
-1.71
-1.705
-1.725
-1.71
-1.73
-1.75
-1.73
-1.73
-1.735
-1.725
-1.725
-1.72
-1.72
-1.715
-1.71
-1.715
-1.715
-1.71
-1.705
-1.695
-1.69
-1.68
-1.665
-1.655
-1.65
-1.635
-1.625
-1.62
-1.635
-1.64
-1.63
-1.62
-1.605
-1.585
-1.56
-1.54
-1.515
-1.495
-1.49
-1.485
-1.51
-1.49
-1.515
-1.52
-1.535
-1.54
-1.55
-1.565
-1.56
-1.57
-1.57
-1.6
-1.615
-1.625
-1.645
-1.645
-1.655
-1.64
-1.635
-1.615
-1.6
-1.6
-1.6
-1.605
-1.61
-1.6
-1.605
-1.6
-1.59
-1.575
-1.585
-1.56
-1.53
-1.515
-1.49
-1.47
-1.44
-1.395
-1.34
-1.255
-1.16
-1.05
-0.905
-0.745
-0.55
-0.355
-0.18
-0.015
0.125
0.245
0.34
0.445
0.555
0.565
0.42
0.125
-0.3
-0.795
-1.265
-1.61
-1.82
-1.895
-1.865
-1.78
-1.715
-1.64
-1.61
-1.59
-1.59
-1.61
-1.62
-1.635
-1.65
-1.655
-1.655
-1.655
-1.655
-1.65
-1.645
-1.645
-1.645
-1.645
-1.66
-1.64
-1.645
-1.655
-1.645
-1.66
-1.655
-1.655
-1.65
-1.645
-1.64
-1.64
-1.64
-1.65
-1.66
-1.675
-1.67
-1.67
-1.675
-1.665
-1.65
-1.64
-1.645
-1.645
-1.65
-1.645
-1.665
-1.665
-1.68
-1.68
-1.675
-1.675
-1.675
-1.68
-1.675
-1.675
-1.675
-1.67
-1.67
-1.665
-1.68
-1.665
-1.665
-1.66
-1.64
-1.645
-1.635
-1.635
-1.63
-1.625
-1.62
-1.615
-1.605
-1.6
-1.585
-1.57
-1.545
-1.515
-1.5
-1.485
-1.465
-1.46
-1.45
-1.44
-1.42
-1.41
-1.375
-1.34
-1.32
-1.295
-1.275
-1.275
-1.27
-1.275
-1.265
-1.26
-1.265
-1.255
-1.255
-1.245
-1.245
-1.24
-1.225
-1.23
-1.23
-1.23
-1.23
-1.235
-1.235
-1.245
-1.24
-1.235
-1.23
-1.22
-1.22
-1.215
-1.215
-1.225
-1.23
-1.235
-1.255
-1.25
-1.235
-1.24
-1.23
-1.225
-1.225
-1.225
-1.245
-1.235
-1.245
-1.265
-1.265
-1.255
-1.25
-1.245
-1.26
-1.245
-1.25
-1.25
-1.245
-1.265
-1.275
-1.275
-1.27
-1.27
-1.265
-1.255
-1.245
-1.245
-1.235
-1.245
-1.235
-1.25
-1.26
-1.245
-1.245
-1.24
-1.23
-1.21
-1.2
-1.19
-1.16
-1.16
-1.15
-1.145
-1.145
-1.14
-1.145
-1.135
-1.12
-1.115
-1.095
-1.085
-1.08
-1.06
-1.055
-1.05
-1.045
-1.025
-1.03
-1.0
-1.005
-0.995
-0.98
-0.98
-0.975
-0.995
-1.015
-1.01
-1.025
-1.025
-1.04
-1.06
-1.08
-1.065
-1.08
-1.07
-1.065
-1.075
-1.08
-1.095
-1.105
-1.115
-1.125
-1.13
-1.13
-1.115
-1.105
-1.105
-1.09
-1.085
-1.09
-1.085
-1.075
-1.09
-1.09
-1.075
-1.07
-1.035
-1.03
-1.0
-0.99
-0.975
-0.96
-0.935
-0.905
-0.825
-0.745
-0.65
-0.5
-0.33
-0.13
0.12
0.38
0.61
0.805
0.965
1.075
1.185
1.3
1.38
1.36
1.165
0.835
0.385
-0.08
-0.55
-0.89
-1.125
-1.24
-1.255
-1.23
-1.185
-1.145
-1.125
-1.1
-1.085
-1.07
-1.085
-1.08
-1.08
-1.085
-1.09
-1.095
-1.11
-1.115
-1.11
-1.085
-1.1
-1.075
-1.08
-1.075
-1.075
-1.07
-1.08
-1.09
-1.065
-1.055
-1.045
-1.025
-0.985
-0.94
-0.885
-0.795
-0.69
-0.575
-0.475
-0.43
-0.415
-0.405
-0.405
-0.395
-0.395
-0.37
-0.36
-0.35
-0.34
-0.335
-0.35
-0.35
-0.35
-0.355
-0.35
-0.33
-0.32
-0.295
-0.3
-0.295
-0.295
-0.305
-0.3
-0.31
-0.32
-0.31
-0.295
-0.28
-0.285
-0.265
-0.265
-0.275
-0.285
-0.27
-0.255
-0.245
-0.245
-0.23
-0.22
-0.185
-0.18
-0.155
-0.145
-0.14
-0.13
-0.11
-0.095
-0.095
-0.085
-0.04
-0.015
0.01
0.02
0.045
0.075
0.085
0.09
0.095
0.105
0.105
0.105
0.105
0.12
0.12
0.135
0.145
0.145
0.135
0.14
0.12
0.11
0.115
0.115
0.11
0.115
0.13
0.13
0.135
0.15
0.14
0.13
0.105
0.09
0.095
0.1
0.095
0.09
0.115
0.11
0.115
0.115
0.115
0.11
0.1
0.085
0.085
0.075
0.07
0.07
0.08
0.07
0.09
0.085
0.075
0.065
0.06
0.045
0.04
0.04
0.045
0.03
0.035
0.045
0.045
0.045
0.04
0.05
0.035
0.025
0.015
0.015
0.01
0.045
0.06
0.065
0.075
0.08
0.09
0.085
0.095
0.095
0.08
0.075
0.11
0.105
0.115
0.12
0.13
0.135
0.14
0.145
0.14
0.145
0.155
0.155
0.17
0.19
0.205
0.22
0.235
0.25
0.25
0.255
0.24
0.23
0.205
0.195
0.18
0.18
0.165
0.155
0.15
0.135
0.125
0.12
0.085
0.07
0.04
0.04
0.045
0.04
0.05
0.05
0.055
0.07
0.065
0.07
0.055
0.065
0.045
0.035
0.045
0.035
0.055
0.07
0.08
0.09
0.095
0.11
0.11
0.12
0.16
0.185
0.245
0.31
0.385
0.49
0.615
0.755
0.925
1.13
1.325
1.52
1.685
1.805
1.915
2.01
2.115
2.2
2.24
2.19
1.995
1.66
1.225
0.77
0.36
0.04
-0.13
-0.21
-0.215
-0.19
-0.15
-0.125
-0.11
-0.11
-0.115
-0.115
-0.12
-0.13
-0.145
-0.15
-0.155
-0.165
-0.16
-0.16
-0.175
-0.18
-0.175
-0.185
-0.19
-0.2
-0.215
-0.21
-0.21
-0.21
-0.195
-0.215
-0.215
-0.22
-0.225
-0.225
-0.24
-0.25
-0.25
-0.245
-0.25
-0.24
-0.235
-0.245
-0.26
-0.255
-0.27
-0.28
-0.29
-0.3
-0.315
-0.31
-0.325
-0.325
-0.315
-0.325
-0.34
-0.34
-0.35
-0.355
-0.365
-0.375
-0.385
-0.395
-0.385
-0.395
-0.39
-0.395
-0.405
-0.415
-0.415
-0.43
-0.435
-0.435
-0.425
-0.425
-0.41
-0.395
-0.385
-0.375
-0.365
-0.37
-0.37
-0.35
-0.355
-0.33
-0.325
-0.305
-0.28
-0.265
-0.235
-0.215
-0.205
-0.19
-0.18
-0.17
-0.175
-0.175
-0.17
-0.17
-0.16
-0.14
-0.125
-0.13
-0.13
-0.145
-0.14
-0.16
-0.15
-0.16
-0.165
-0.165
-0.16
-0.16
-0.155
-0.17
-0.165
-0.18
-0.19
-0.195
-0.195
-0.195
-0.205
-0.19
-0.21
-0.205
-0.205
-0.2
-0.195
-0.205
-0.225
-0.23
-0.235
-0.25
-0.25
-0.255
-0.255
-0.255
-0.25
-0.255
-0.26
-0.27
-0.28
-0.28
-0.29
-0.3
-0.315
-0.305
-0.3
-0.29
-0.29
-0.29
-0.29
-0.305
-0.3
-0.315
-0.32
-0.32
-0.305
-0.305
-0.29
-0.28
-0.285
-0.255
-0.255
-0.265
-0.265
-0.265
-0.265
-0.27
-0.26
-0.265
-0.255
-0.235
-0.22
-0.2
-0.195
-0.195
-0.2
-0.18
-0.175
-0.17
-0.16
-0.145
-0.145
-0.16
-0.14
-0.155
-0.165
-0.18
-0.19
-0.215
-0.23
-0.25
-0.265
-0.27
-0.285
-0.28
-0.295
-0.285
-0.31
-0.32
-0.335
-0.355
-0.365
-0.37
-0.36
-0.36
-0.355
-0.345
-0.335
-0.325
-0.335
-0.34
-0.34
-0.345
-0.345
-0.35
-0.34
-0.33
-0.32
-0.29
-0.27
-0.24
-0.215
-0.165
-0.095
-0.01
0.08
0.21
0.37
0.56
0.765
0.965
1.15
1.32
1.48
1.615
1.745
1.79
1.695
1.435
0.99
0.47
-0.025
-0.395
-0.615
-0.695
-0.665
-0.605
-0.55
-0.51
-0.485
-0.5
-0.505
-0.52
-0.535
-0.52
-0.52
-0.52
-0.535
-0.54
-0.55
-0.555
-0.57
-0.575
-0.58
-0.59
-0.585
-0.58
-0.575
-0.58
-0.585
-0.595
-0.6
-0.6
-0.625
-0.63
-0.63
-0.635
-0.63
-0.63
-0.625
-0.62
-0.63
-0.63
-0.635
-0.65
-0.68
-0.665
-0.685
-0.68
-0.675
-0.675
-0.68
-0.67
-0.675
-0.675
-0.69
-0.705
-0.71
-0.73
-0.73
-0.735
-0.74
-0.735
-0.745
-0.74
-0.745
-0.765
-0.775
-0.775
-0.79
-0.785
-0.8
-0.8
-0.79
-0.795
-0.77
-0.77
-0.77
-0.76
-0.745
-0.74
-0.745
-0.745
-0.725
-0.71
-0.69
-0.67
-0.64
-0.62
-0.605
-0.6
-0.58
-0.57
-0.565
-0.55
-0.55
-0.545
-0.525
-0.505
-0.5
-0.5
-0.485
-0.495
-0.5
-0.505
-0.515
-0.515
-0.52
-0.53
-0.515
-0.5
-0.505
-0.5
-0.51
-0.505
-0.53
-0.52
-0.53
-0.535
-0.535
-0.545
-0.535
-0.52
-0.53
-0.54
-0.53
-0.54
-0.545
-0.555
-0.56
-0.575
-0.58
-0.565
-0.57
-0.57
-0.555
-0.56
-0.56
-0.57
-0.58
-0.59
-0.605
-0.6
-0.61
-0.615
-0.605
-0.605
-0.6
-0.59
-0.585
-0.59
-0.6
-0.61
-0.605
-0.61
-0.61
-0.61
-0.6
-0.59
-0.59
-0.575
-0.575
-0.56
-0.575
-0.555
-0.57
-0.58
-0.56
-0.545
-0.555
-0.525
-0.5
-0.49
-0.49
-0.475
-0.48
-0.465
-0.455
-0.46
-0.45
-0.43
-0.435
-0.415
-0.425
-0.43
-0.44
-0.455
-0.47
-0.505
-0.51
-0.53
-0.545
-0.545
-0.535
-0.55
-0.56
-0.56
-0.58
-0.585
-0.6
-0.615
-0.62
-0.62
-0.61
-0.61
-0.6
-0.6
-0.59
-0.59
-0.595
-0.595
-0.585
-0.58
-0.565
-0.55
-0.53
-0.485
-0.435
-0.35
-0.245
-0.105
0.035
0.22
0.43
0.635
0.83
1.0
1.15
1.28
1.43
1.56
1.595
1.485
1.185
0.735
0.225
-0.255
-0.6
-0.81
-0.88
-0.87
-0.815
-0.75
-0.7
-0.68
-0.665
-0.665
-0.68
-0.695
-0.715
-0.72
-0.725
-0.715
-0.715
-0.72
-0.695
-0.7
-0.71
-0.705
-0.72
-0.73
-0.735
-0.75
-0.745
-0.745
-0.745
-0.74
-0.745
-0.73
-0.73
-0.745
-0.75
-0.75
-0.765
-0.77
-0.785
-0.77
-0.765
-0.76
-0.76
-0.76
-0.765
-0.775
-0.785
-0.795
-0.8
-0.81
-0.815
-0.82
-0.825
-0.83
-0.82
-0.82
-0.825
-0.84
-0.85
-0.86
-0.87
-0.87
-0.88
-0.88
-0.88
-0.86
-0.85
-0.845
-0.85
-0.84
-0.85
-0.86
-0.855
-0.86
-0.85
-0.84
-0.815
-0.805
-0.78
-0.77
-0.755
-0.735
-0.74
-0.72
-0.715
-0.705
-0.685
-0.665
-0.635
-0.62
-0.6
-0.575
-0.56
-0.56
-0.555
-0.53
-0.53
-0.525
-0.52
-0.515
-0.505
-0.5
-0.48
-0.485
-0.49
-0.485
-0.495
-0.495
-0.51
-0.505
-0.505
-0.505
-0.5
-0.495
-0.495
-0.48
-0.49
-0.495
-0.51
-0.515
-0.53
-0.535
-0.525
-0.515
-0.525
-0.52
-0.505
-0.505
-0.505
-0.515
-0.52
-0.53
-0.54
-0.55
-0.565
-0.55
-0.55
-0.535
-0.53
-0.545
-0.55
-0.55
-0.565
-0.575
-0.58
-0.585
-0.575
-0.575
-0.575
-0.575
-0.565
-0.55
-0.55
-0.56
-0.57
-0.575
-0.58
-0.575
-0.585
-0.58
-0.57
-0.555
-0.54
-0.535
-0.525
-0.53
-0.54
-0.52
-0.51
-0.515
-0.51
-0.5
-0.495
-0.505
-0.485
-0.46
-0.465
-0.46
-0.46
-0.455
-0.45
-0.44
-0.44
-0.41
-0.405
-0.385
-0.375
-0.365
-0.36
-0.36
-0.365
-0.375
-0.375
-0.395
-0.405
-0.41
-0.42
-0.43
-0.445
-0.45
-0.47
-0.48
-0.495
-0.515
-0.525
-0.54
-0.54
-0.52
-0.52
-0.52
-0.5
-0.495
-0.495
-0.495
-0.505
-0.5
-0.49
-0.5
-0.49
-0.485
-0.47
-0.465
-0.425
-0.4
-0.365
-0.305
-0.25
-0.16
-0.06
0.065
0.21
0.4
0.61
0.845
1.06
1.235
1.365
1.48
1.595
1.69
1.73
1.64
1.41
1.03
0.56
0.1
-0.295
-0.575
-0.735
-0.785
-0.755
-0.725
-0.69
-0.66
-0.64
-0.63
-0.61
-0.605
-0.6
-0.595
-0.595
-0.61
-0.62
-0.635
-0.645
-0.645
-0.64
-0.645
-0.64
-0.645
-0.625
-0.625
-0.64
-0.655
-0.665
-0.685
-0.675
-0.685
-0.68
-0.685
-0.675
-0.675
-0.68
-0.665
-0.67
-0.67
-0.68
-0.685
-0.7
-0.7
-0.705
-0.72
-0.72
-0.71
-0.705
-0.705
-0.72
-0.73
-0.74
-0.755
-0.765
-0.77
-0.79
-0.775
-0.78
-0.775
-0.77
-0.77
-0.78
-0.795
-0.79
-0.78
-0.795
-0.79
-0.775
-0.77
-0.755
-0.75
-0.725
-0.715
-0.71
-0.705
-0.71
-0.7
-0.695
-0.69
-0.67
-0.65
-0.625
-0.6
-0.585
-0.555
-0.52
-0.515
-0.495
-0.48
-0.47
-0.46
-0.445
-0.44
-0.425
-0.415
-0.405
-0.4
-0.4
-0.405
-0.405
-0.41
-0.43
-0.415
-0.415
-0.42
-0.425
-0.425
-0.425
-0.415
-0.415
-0.41
-0.415
-0.42
-0.43
-0.44
-0.44
-0.445
-0.435
-0.43
-0.43
-0.43
-0.44
-0.435
-0.445
-0.455
-0.455
-0.465
-0.47
-0.47
-0.475
-0.465
-0.475
-0.455
-0.465
-0.465
-0.475
-0.485
-0.49
-0.505
-0.495
-0.495
-0.495
-0.495
-0.495
-0.49
-0.485
-0.5
-0.505
-0.505
-0.525
-0.515
-0.52
-0.52
-0.51
-0.515
-0.495
-0.49
-0.495
-0.495
-0.49
-0.5
-0.5
-0.5
-0.475
-0.465
-0.465
-0.44
-0.43
-0.425
-0.415
-0.415
-0.41
-0.41
-0.405
-0.4
-0.385
-0.375
-0.36
-0.34
-0.32
-0.31
-0.3
-0.285
-0.285
-0.29
-0.29
-0.305
-0.32
-0.32
-0.32
-0.325
-0.325
-0.325
-0.34
-0.35
-0.365
-0.38
-0.385
-0.41
-0.415
-0.425
-0.43
-0.44
-0.44
-0.44
-0.435
-0.435
-0.44
-0.455
-0.45
-0.455
-0.445
-0.445
-0.43
-0.42
-0.405
-0.395
-0.395
-0.39
-0.39
-0.38
-0.38
-0.35
-0.335
-0.3
-0.235
-0.175
-0.075
0.045
0.18
0.35
0.575
0.82
1.065
1.265
1.445
1.615
1.76
1.855
1.835
1.635
1.235
0.69
0.145
-0.33
-0.64
-0.79
-0.8
-0.73
-0.635
-0.56
-0.495
-0.465
-0.475
-0.485
-0.53
-0.56
-0.57
-0.59
-0.595
-0.58
-0.59
-0.565
-0.575
-0.575
-0.575
-0.58
-0.59
-0.595
-0.605
-0.615
-0.615
-0.62
-0.615
-0.615
-0.6
-0.595
-0.61
-0.61
-0.615
-0.635
-0.64
-0.66
-0.66
-0.66
-0.65
-0.655
-0.64
-0.645
-0.66
-0.665
-0.67
-0.665
-0.69
-0.695
-0.715
-0.71
-0.715
-0.715
-0.715
-0.715
-0.725
-0.74
-0.755
-0.77
-0.765
-0.78
-0.78
-0.78
-0.775
-0.77
-0.755
-0.755
-0.755
-0.745
-0.74
-0.75
-0.74
-0.73
-0.72
-0.705
-0.685
-0.665
-0.65
-0.62
-0.605
-0.585
-0.565
-0.56
-0.55
-0.54
-0.525
-0.52
-0.505
-0.48
-0.475
-0.46
-0.445
-0.45
-0.455
-0.455
-0.475
-0.47
-0.465
-0.465
-0.46
-0.46
-0.455
-0.445
-0.435
-0.45
-0.445
-0.455
-0.46
-0.475
-0.475
-0.485
-0.48
-0.475
-0.485
-0.465
-0.47
-0.485
-0.495
-0.495
-0.49
-0.5
-0.51
-0.505
-0.51
-0.505
-0.495
-0.5
-0.5
-0.495
-0.515
-0.525
-0.545
-0.545
-0.56
-0.57
-0.55
-0.55
-0.565
-0.565
-0.55
-0.555
-0.565
-0.57
-0.57
-0.58
-0.575
-0.595
-0.57
-0.565
-0.565
-0.55
-0.555
-0.545
-0.56
-0.56
-0.555
-0.555
-0.56
-0.55
-0.54
-0.515
-0.51
-0.515
-0.5
-0.485
-0.495
-0.49
-0.495
-0.495
-0.495
-0.49
-0.475
-0.465
-0.445
-0.42
-0.42
-0.39
-0.39
-0.385
-0.385
-0.4
-0.405
-0.39
-0.39
-0.395
-0.4
-0.385
-0.395
-0.395
-0.41
-0.435
-0.455
-0.47
-0.485
-0.485
-0.485
-0.5
-0.495
-0.51
-0.535
-0.535
-0.545
-0.565
-0.57
-0.565
-0.57
-0.565
-0.555
-0.55
-0.54
-0.525
-0.53
-0.525
-0.525
-0.53
-0.535
-0.535
-0.53
-0.51
-0.485
-0.45
-0.4
-0.32
-0.235
-0.125
-0.025
0.115
0.28
0.48
0.68
0.895
1.08
1.24
1.375
1.525
1.665
1.76
1.765
1.61
1.285
0.815
0.28
-0.19
-0.55
-0.75
-0.83
-0.81
-0.755
-0.7
-0.67
-0.65
-0.645
-0.655
-0.68
-0.695
-0.685
-0.7
-0.7
-0.69
-0.7
-0.7
-0.71
-0.72
-0.73
-0.73
-0.74
-0.74
-0.75
-0.735
-0.73
-0.73
-0.73
-0.735
-0.745
-0.76
-0.77
-0.77
-0.775
-0.775
-0.775
-0.78
-0.77
-0.78
-0.785
-0.785
-0.79
-0.81
-0.83
-0.84
-0.835
-0.845
-0.85
-0.855
-0.86
-0.855
-0.865
-0.885
-0.89
-0.895
-0.915
-0.92
-0.92
-0.915
-0.92
-0.905
-0.905
-0.895
-0.895
-0.885
-0.89
-0.895
-0.885
-0.87
-0.86
-0.86
-0.845
-0.835
-0.795
-0.77
-0.77
-0.745
-0.73
-0.705
-0.7
-0.685
-0.675
-0.65
-0.64
-0.61
-0.59
-0.585
-0.565
-0.57
-0.57
-0.575
-0.58
-0.58
-0.575
-0.58
-0.565
-0.56
-0.55
-0.55
-0.55
-0.55
-0.55
-0.565
-0.565
-0.57
-0.575
-0.58
-0.575
-0.565
-0.57
-0.55
-0.565
-0.57
-0.585
-0.585
-0.595
-0.585
-0.59
-0.6
-0.595
-0.595
-0.585
-0.595
-0.59
-0.595
-0.605
-0.61
-0.61
-0.62
-0.625
-0.63
-0.62
-0.62
-0.61
-0.61
-0.61
-0.61
-0.635
-0.635
-0.64
-0.645
-0.64
-0.65
-0.645
-0.645
-0.635
-0.625
-0.625
-0.625
-0.625
-0.63
-0.63
-0.63
-0.63
-0.62
-0.595
-0.6
-0.59
-0.56
-0.56
-0.565
-0.56
-0.565
-0.57
-0.57
-0.57
-0.565
-0.56
-0.535
-0.525
-0.515
-0.5
-0.495
-0.49
-0.465
-0.46
-0.455
-0.455
-0.44
-0.425
-0.415
-0.415
-0.41
-0.41
-0.435
-0.445
-0.465
-0.49
-0.505
-0.525
-0.535
-0.54
-0.545
-0.54
-0.545
-0.56
-0.56
-0.595
-0.605
-0.6
-0.605
-0.61
-0.605
-0.59
-0.585
-0.58
-0.57
-0.57
-0.585
-0.57
-0.575
-0.575
-0.56
-0.565
-0.545
-0.535
-0.52
-0.485
-0.46
-0.42
-0.385
-0.325
-0.225
-0.145
-0.035
0.1
0.28
0.455
0.655
0.86
1.025
1.17
1.285
1.42
1.555
1.67
1.685
1.54
1.25
0.805
0.345
-0.1
-0.445
-0.66
-0.755
-0.76
-0.74
-0.715
-0.69
-0.665
-0.665
-0.665
-0.66
-0.645
-0.66
-0.665
-0.66
-0.68
-0.68
-0.69
-0.7
-0.705
-0.72
-0.705
-0.705
-0.715
-0.705
-0.7
-0.7
-0.705
-0.725
-0.72
-0.735
-0.735
-0.74
-0.74
-0.73
-0.73
-0.725
-0.72
-0.725
-0.735
-0.735
-0.75
-0.765
-0.755
-0.76
-0.785
-0.77
-0.76
-0.76
-0.765
-0.765
-0.775
-0.775
-0.79
-0.81
-0.815
-0.82
-0.83
-0.825
-0.825
-0.83
-0.84
-0.825
-0.82
-0.83
-0.835
-0.84
-0.845
-0.845
-0.845
-0.83
-0.825
-0.83
-0.83
-0.815
-0.79
-0.795
-0.79
-0.78
-0.78
-0.765
-0.76
-0.74
-0.725
-0.685
-0.665
-0.645
-0.625
-0.61
-0.59
-0.565
-0.555
-0.53
-0.515
-0.51
-0.49
-0.485
-0.475
-0.48
-0.485
-0.475
-0.495
-0.495
-0.48
-0.5
-0.49
-0.49
-0.47
-0.465
-0.46
-0.465
-0.47
-0.475
-0.475
-0.48
-0.485
-0.485
-0.495
-0.485
-0.475
-0.47
-0.48
-0.495
-0.495
-0.495
-0.5
-0.52
-0.5
-0.51
-0.51
-0.515
-0.52
-0.51
-0.515
-0.505
-0.525
-0.53
-0.545
-0.55
-0.545
-0.53
-0.53
-0.54
-0.53
-0.52
-0.52
-0.52
-0.53
-0.52
-0.525
-0.525
-0.525
-0.525
-0.52
-0.505
-0.5
-0.48
-0.47
-0.465
-0.46
-0.465
-0.47
-0.465
-0.47
-0.45
-0.44
-0.435
-0.415
-0.395
-0.385
-0.38
-0.365
-0.37
-0.35
-0.35
-0.34
-0.335
-0.335
-0.33
-0.315
-0.31
-0.32
-0.33
-0.345
-0.35
-0.375
-0.385
-0.4
-0.41
-0.415
-0.41
-0.43
-0.44
-0.455
-0.47
-0.47
-0.485
-0.48
-0.485
-0.485
-0.48
-0.47
-0.46
-0.455
-0.46
-0.44
-0.45
-0.44
-0.43
-0.445
-0.46
-0.445
-0.435
-0.415
-0.38
-0.36
-0.32
-0.28
-0.22
-0.16
-0.075
0.01
0.125
0.26
0.425
0.63
0.85
1.05
1.21
1.355
1.49
1.605
1.735
1.79
1.69
1.405
0.98
0.445
-0.06
-0.45
-0.68
-0.775
-0.76
-0.7
-0.64
-0.58
-0.545
-0.525
-0.53
-0.54
-0.535
-0.56
-0.555
-0.565
-0.56
-0.585
-0.59
-0.585
-0.58
-0.585
-0.595
-0.58
-0.585
-0.585
-0.575
-0.565
-0.575
-0.585
-0.59
-0.585
-0.605
-0.605
-0.61
-0.595
-0.595
-0.585
-0.6
-0.595
-0.605
-0.61
-0.615
-0.625
-0.625
-0.63
-0.645
-0.65
-0.65
-0.65
-0.64
-0.645
-0.66
-0.65
-0.67
-0.67
-0.695
-0.705
-0.705
-0.705
-0.705
-0.71
-0.7
-0.705
-0.71
-0.705
-0.71
-0.72
-0.745
-0.73
-0.74
-0.71
-0.705
-0.7
-0.68
-0.66
-0.66
-0.65
-0.655
-0.65
-0.635
-0.63
-0.595
-0.565
-0.54
-0.525
-0.51
-0.49
-0.47
-0.445
-0.44
-0.435
-0.42
-0.405
-0.39
-0.375
-0.355
-0.345
-0.33
-0.33
-0.335
-0.33
-0.35
-0.345
-0.355
-0.36
-0.37
-0.375
-0.37
-0.35
-0.35
-0.335
-0.34
-0.335
-0.35
-0.37
-0.37
-0.365
-0.39
-0.395
-0.385
-0.385
-0.38
-0.385
-0.39
-0.385
-0.39
-0.41
-0.41
-0.42
-0.415
-0.415
-0.405
-0.405
-0.41
-0.4
-0.405
-0.405
-0.425
-0.44
-0.425
-0.435
-0.44
-0.43
-0.43
-0.425
-0.425
-0.43
-0.435
-0.445
-0.45
-0.45
-0.45
-0.46
-0.445
-0.445
-0.43
-0.43
-0.405
-0.395
-0.395
-0.395
-0.39
-0.385
-0.38
-0.385
-0.37
-0.36
-0.35
-0.345
-0.32
-0.315
-0.31
-0.31
-0.3
-0.285
-0.28
-0.27
-0.255
-0.25
-0.235
-0.235
-0.225
-0.23
-0.235
-0.255
-0.265
-0.29
-0.3
-0.32
-0.335
-0.335
-0.33
-0.34
-0.345
-0.365
-0.365
-0.38
-0.385
-0.4
-0.4
-0.405
-0.395
-0.38
-0.37
-0.365
-0.36
-0.355
-0.355
-0.365
-0.37
-0.36
-0.355
-0.34
-0.315
-0.3
-0.27
-0.215
-0.145
-0.055
0.07
0.22
0.405
0.62
0.86
1.1
1.305
1.495
1.625
1.785
1.905
1.9
1.705
1.345
0.84
0.295
-0.185
-0.515
-0.675
-0.69
-0.655
-0.585
-0.505
-0.445
-0.435
-0.435
-0.465
-0.485
-0.495
-0.51
-0.51
-0.5
-0.495
-0.475
-0.48
-0.49
-0.49
-0.505
-0.51
-0.52
-0.515
-0.51
-0.51
-0.52
-0.525
-0.5
-0.5
-0.515
-0.515
-0.525
-0.525
-0.525
-0.54
-0.545
-0.545
-0.56
-0.555
-0.555
-0.55
-0.54
-0.55
-0.55
-0.58
-0.59
-0.595
-0.605
-0.6
-0.61
-0.6
-0.605
-0.62
-0.615
-0.62
-0.625
-0.635
-0.635
-0.65
-0.66
-0.655
-0.65
-0.66
-0.64
-0.635
-0.635
-0.645
-0.635
-0.62
-0.61
-0.61
-0.59
-0.595
-0.58
-0.555
-0.545
-0.525
-0.505
-0.5
-0.48
-0.475
-0.455
-0.43
-0.425
-0.4
-0.385
-0.36
-0.355
-0.32
-0.315
-0.305
-0.31
-0.31
-0.32
-0.32
-0.32
-0.32
-0.32
-0.31
-0.325
-0.3
-0.295
-0.31
-0.31
-0.325
-0.33
-0.34
-0.335
-0.335
-0.325
-0.325
-0.325
-0.305
-0.31
-0.32
-0.325
-0.335
-0.345
-0.365
-0.365
-0.37
-0.365
-0.37
-0.375
-0.365
-0.37
-0.36
-0.375
-0.375
-0.395
-0.4
-0.415
-0.415
-0.415
-0.41
-0.405
-0.4
-0.405
-0.41
-0.425
-0.425
-0.435
-0.445
-0.45
-0.45
-0.445
-0.455
-0.445
-0.425
-0.425
-0.415
-0.425
-0.42
-0.43
-0.43
-0.42
-0.415
-0.4
-0.385
-0.385
-0.375
-0.37
-0.365
-0.35
-0.375
-0.355
-0.35
-0.35
-0.335
-0.33
-0.31
-0.3
-0.28
-0.255
-0.26
-0.245
-0.26
-0.25
-0.265
-0.265
-0.245
-0.25
-0.25
-0.255
-0.255
-0.255
-0.275
-0.295
-0.3
-0.315
-0.335
-0.35
-0.37
-0.375
-0.375
-0.39
-0.405
-0.41
-0.43
-0.43
-0.445
-0.43
-0.43
-0.435
-0.415
-0.43
-0.415
-0.405
-0.39
-0.39
-0.38
-0.38
-0.385
-0.375
-0.365
-0.345
-0.33
-0.27
-0.22
-0.135
-0.035
0.075
0.2
0.355
0.53
0.74
0.92
1.115
1.295
1.435
1.595
1.745
1.87
1.885
1.76
1.45
0.99
0.495
0.02
-0.335
-0.55
-0.655
-0.65
-0.61
-0.565
-0.53
-0.51
-0.51
-0.53
-0.53
-0.54
-0.545
-0.55
-0.555
-0.56
-0.55
-0.55
-0.555
-0.575
-0.575
-0.59
-0.6
-0.6
-0.61
-0.61
-0.61
-0.6
-0.6
-0.61
-0.6
-0.605
-0.61
-0.625
-0.64
-0.64
-0.64
-0.645
-0.65
-0.655
-0.645
-0.65
-0.655
-0.66
-0.655
-0.675
-0.68
-0.7
-0.705
-0.705
-0.705
-0.7
-0.71
-0.71
-0.715
-0.715
-0.735
-0.75
-0.75
-0.755
-0.77
-0.785
-0.785
-0.78
-0.77
-0.765
-0.765
-0.775
-0.775
-0.78
-0.78
-0.775
-0.775
-0.775
-0.77
-0.755
-0.745
-0.73
-0.725
-0.705
-0.7
-0.7
-0.7
-0.695
-0.685
-0.655
-0.645
-0.62
-0.6
-0.575
-0.555
-0.535
-0.525
-0.515
-0.515
-0.505
-0.49
-0.47
-0.47
-0.465
-0.465
-0.43
-0.425
-0.44
-0.435
-0.44
-0.445
-0.45
-0.455
-0.45
-0.455
-0.445
-0.45
-0.445
-0.43
-0.445
-0.455
-0.465
-0.465
-0.475
-0.48
-0.485
-0.485
-0.475
-0.48
-0.475
-0.465
-0.48
-0.485
-0.495
-0.495
-0.51
-0.51
-0.51
-0.505
-0.5
-0.51
-0.505
-0.495
-0.52
-0.525
-0.535
-0.53
-0.53
-0.545
-0.545
-0.54
-0.545
-0.545
-0.55
-0.54
-0.54
-0.535
-0.545
-0.545
-0.545
-0.555
-0.545
-0.545
-0.535
-0.525
-0.51
-0.495
-0.495
-0.49
-0.485
-0.49
-0.49
-0.49
-0.485
-0.485
-0.475
-0.45
-0.445
-0.43
-0.42
-0.41
-0.42
-0.41
-0.39
-0.385
-0.37
-0.35
-0.34
-0.325
-0.32
-0.32
-0.32
-0.335
-0.34
-0.37
-0.385
-0.41
-0.425
-0.44
-0.44
-0.45
-0.445
-0.435
-0.46
-0.47
-0.49
-0.505
-0.525
-0.545
-0.53
-0.52
-0.52
-0.515
-0.505
-0.5
-0.5
-0.49
-0.5
-0.5
-0.495
-0.5
-0.49
-0.485
-0.49
-0.48
-0.47
-0.44
-0.43
-0.41
-0.4
-0.365
-0.335
-0.275
-0.195
-0.095
0.015
0.14
0.28
0.475
0.635
0.835
0.985
1.13
1.235
1.365
1.5
1.63
1.75
1.74
1.6
1.295
0.875
0.41
