Lead II
-0.965
-0.955
-0.985
-1.0
-1.0
-0.98
-0.975
-0.99
-0.98
-0.98
-0.96
-0.985
-0.99
-1.0
-1.035
-1.07
-1.12
-1.17
-1.19
-1.175
-1.115
-1.04
-0.9
-0.725
-0.48
-0.25
-0.055
0.12
0.29
0.44
0.585
0.67
0.72
0.725
0.725
0.68
0.61
0.555
0.455
0.28
0.03
-0.275
-0.565
-0.785
-0.905
-0.955
-0.94
-0.875
-0.84
-0.795
-0.825
-0.855
-0.91
-0.96
-1.015
-1.045
-1.035
-1.045
-1.04
-1.05
-1.045
-1.05
-1.045
-1.045
-1.055
-1.065
-1.08
-1.06
-1.045
-1.03
-1.04
-1.05
-1.05
-1.055
-1.06
-1.06
-1.06
-1.095
-1.09
-1.075
-1.065
-1.045
-1.045
-1.05
-1.065
-1.09
-1.1
-1.095
-1.085
-1.075
-1.08
-1.095
-1.08
-1.055
-1.055
-1.06
-1.065
-1.07
-1.085
-1.085
-1.08
-1.085
-1.095
-1.08
-1.065
-1.055
-1.045
-1.06
-1.06
-1.065
-1.065
-1.065
-1.05
-1.06
-1.06
-1.055
-1.035
-1.015
-1.0
-1.02
-1.035
-1.04
-1.02
-1.015
-1.005
-1.0
-1.01
-0.995
-0.99
-0.96
-0.935
-0.935
-0.95
-0.945
-0.94
-0.94
-0.925
-0.945
-0.935
-0.945
-0.93
-0.915
-0.91
-0.905
-0.93
-0.92
-0.94
-0.935
-0.94
-0.945
-0.935
-0.925
-0.93
-0.93
-0.925
-0.93
-0.925
-0.94
-0.945
-0.95
-0.95
-0.965
-0.975
-0.985
-0.955
-0.955
-0.94
-0.945
-0.96
-0.985
-1.0
-0.99
-0.995
-1.005
-1.01
-1.015
-1.02
-0.985
-0.975
-0.995
-1.01
-1.01
-1.015
-1.03
-1.035
-1.045
-1.04
-1.055
-1.035
-1.005
-0.995
-1.005
-1.02
-1.035
-1.055
-1.05
-1.05
-1.05
-1.05
-1.02
-1.005
-0.99
-0.985
-1.0
-0.995
-1.0
-1.01
-0.99
-0.985
-1.005
-1.015
-1.0
-0.995
-0.96
-0.95
-0.94
-0.945
-0.94
-0.94
-0.935
-0.935
-0.935
-0.92
-0.885
-0.855
-0.815
-0.785
-0.79
-0.78
-0.77
-0.765
-0.76
-0.76
-0.77
-0.78
-0.77
-0.755
-0.765
-0.76
-0.785
-0.81
-0.825
-0.825
-0.84
-0.865
-0.895
-0.905
-0.935
-0.935
-0.945
-0.965
-0.97
-0.98
-0.985
-1.005
-1.025
-1.035
-1.04
-1.025
-1.015
-1.0
-1.01
-1.0
-1.005
-1.005
-0.995
-1.02
-1.03
-1.065
-1.1
-1.11
-1.18
-1.215
-1.225
-1.195
-1.13
-1.01
-0.855
-0.66
-0.455
-0.275
-0.09
0.1
0.29
0.455
0.58
0.7
0.73
0.74
0.72
0.655
0.58
0.49
0.325
0.115
-0.2
-0.525
-0.795
-0.935
-1.02
-0.99
-0.945
-0.91
-0.895
-0.92
-0.94
-0.98
-1.02
-1.045
-1.08
-1.095
-1.115
-1.115
-1.1
-1.11
-1.115
-1.115
-1.135
-1.125
-1.125
-1.105
-1.09
-1.085
-1.08
-1.08
-1.105
-1.095
-1.115
-1.145
-1.12
-1.11
-1.11
-1.095
-1.09
-1.085
-1.105
-1.09
-1.085
-1.095
-1.11
-1.125
-1.125
-1.115
-1.105
-1.095
-1.1
-1.1
-1.085
-1.08
-1.08
-1.105
-1.115
-1.11
-1.1
-1.095
-1.085
-1.07
-1.1
-1.075
-1.07
-1.075
-1.07
-1.08
-1.085
-1.09
-1.1
-1.08
-1.055
-1.04
-1.035
-1.025
-1.02
-1.02
-1.02
-1.01
-1.015
-1.025
-1.015
-1.005
-0.99
-0.975
-0.955
-0.965
-0.95
-0.955
-0.95
-0.95
-0.945
-0.95
-0.955
-0.94
-0.93
-0.955
-0.935
-0.935
-0.93
-0.925
-0.915
-0.94
-0.95
-0.97
-0.97
-0.945
-0.935
-0.935
-0.95
-0.945
-0.93
-0.935
-0.93
-0.945
-0.955
-0.97
-0.975
-0.985
-0.965
-0.965
-0.98
-0.965
-0.98
-0.985
-0.98
-0.995
-1.01
-1.03
-1.04
-1.025
-1.01
-1.005
-1.015
-1.015
-1.015
-1.035
-1.03
-1.04
-1.03
-1.055
-1.065
-1.065
-1.06
-1.045
-1.035
-1.04
-1.04
-1.04
-1.035
-1.045
-1.03
-1.045
-1.045
-1.04
-1.03
-1.01
-1.015
-1.0
-1.005
-1.025
-1.025
-1.025
-1.02
-1.025
-1.04
-1.045
-1.04
-1.02
-1.005
-0.985
-0.985
-0.98
-0.98
-0.965
-0.965
-0.96
-0.95
-0.945
-0.9
-0.865
-0.845
-0.82
-0.82
-0.815
-0.795
-0.79
-0.775
-0.785
-0.81
-0.8
-0.775
-0.765
-0.77
-0.78
-0.805
-0.82
-0.825
-0.825
-0.84
-0.86
-0.875
-0.895
-0.905
-0.91
-0.93
-0.94
-0.96
-1.0
-1.0
-1.01
-1.01
-1.02
-1.045
-1.05
-1.05
-1.045
-1.03
-1.035
-1.03
-1.04
-1.045
-1.04
-1.04
-1.04
-1.045
-1.055
-1.055
-1.06
-1.055
-1.095
-1.16
-1.21
-1.255
-1.245
-1.205
-1.135
-1.01
-0.86
-0.665
-0.44
-0.215
-0.03
0.15
0.36
0.52
0.655
0.73
0.75
0.715
0.64
0.58
0.505
0.365
0.145
-0.165
-0.5
-0.755
-0.92
-0.99
-1.0
-0.975
-0.925
-0.88
-0.875
-0.87
-0.915
-0.99
-1.05
-1.1
-1.13
-1.16
-1.16
-1.15
-1.125
-1.14
-1.13
-1.115
-1.115
-1.125
-1.125
-1.12
-1.125
-1.12
-1.125
-1.11
-1.12
-1.105
-1.105
-1.105
-1.105
-1.095
-1.1
-1.105
-1.12
-1.13
-1.14
-1.13
-1.11
-1.125
-1.11
-1.11
-1.095
-1.105
-1.11
-1.125
-1.115
-1.135
-1.125
-1.12
-1.115
-1.115
-1.105
-1.105
-1.105
-1.09
-1.09
-1.095
-1.105
-1.11
-1.1
-1.1
-1.1
-1.11
-1.09
-1.07
-1.075
-1.07
-1.07
-1.08
-1.08
-1.065
-1.06
-1.045
-1.055
-1.045
-1.025
-1.01
-0.985
-0.99
-0.985
-0.985
-0.975
-0.965
-0.965
-0.965
-0.97
-0.955
-0.935
-0.945
-0.935
-0.95
-0.94
-0.94
-0.945
-0.94
-0.955
-0.96
-0.965
-0.97
-0.955
-0.95
-0.95
-0.95
-0.96
-0.975
-0.98
-0.985
-0.98
-0.985
-0.99
-0.99
-0.99
-0.965
-0.95
-0.95
-0.98
-1.005
-1.01
-1.02
-1.025
-1.02
-1.025
-1.025
-1.03
-1.025
-1.025
-1.045
-1.03
-1.045
-1.055
-1.06
-1.07
-1.065
-1.06
-1.065
-1.03
-1.035
-1.05
-1.04
-1.045
-1.035
-1.035
-1.055
-1.05
-1.065
-1.075
-1.065
-1.05
-1.035
-1.035
-1.035
-1.04
-1.045
-1.05
-1.04
-1.04
-1.045
-1.04
-1.015
-1.01
-0.99
-0.995
-1.005
-0.99
-0.985
-0.97
-0.975
-0.995
-1.0
-1.0
-0.975
-0.955
-0.945
-0.935
-0.925
-0.89
-0.865
-0.85
-0.84
-0.83
-0.82
-0.81
-0.785
-0.78
-0.77
-0.78
-0.795
-0.805
-0.795
-0.8
-0.81
-0.845
-0.845
-0.87
-0.855
-0.84
-0.85
-0.88
-0.905
-0.94
-0.96
-0.99
-1.0
-1.03
-1.045
-1.04
-1.04
-1.045
-1.04
-1.045
-1.04
-1.04
-1.05
-1.05
-1.065
-1.06
-1.055
-1.05
-1.055
-1.055
-1.09
-1.105
-1.145
-1.195
-1.235
-1.265
-1.21
-1.12
-1.005
-0.81
-0.62
-0.4
-0.205
-0.035
0.16
0.32
0.485
0.595
0.685
0.72
0.735
0.725
0.685
0.62
0.5
0.335
0.045
-0.28
-0.595
-0.835
-0.975
-1.01
-0.975
-0.91
-0.88
-0.86
-0.9
-0.95
-0.975
-1.025
-1.085
-1.13
-1.15
-1.16
-1.16
-1.135
-1.135
-1.125
-1.13
-1.11
-1.1
-1.105
-1.12
-1.135
-1.14
-1.13
-1.145
-1.165
-1.16
-1.135
-1.125
-1.11
-1.105
-1.105
-1.12
-1.125
-1.125
-1.11
-1.12
-1.13
-1.135
-1.135
-1.15
-1.12
-1.11
-1.11
-1.13
-1.145
-1.16
-1.155
-1.155
-1.15
-1.14
-1.135
-1.12
-1.1
-1.095
-1.09
-1.11
-1.125
-1.11
-1.14
-1.13
-1.115
-1.105
-1.095
-1.075
-1.08
-1.055
-1.055
-1.055
-1.075
-1.09
-1.075
-1.07
-1.065
-1.055
-1.05
-1.04
-1.03
-1.005
-0.975
-0.98
-0.995
-0.985
-0.995
-0.98
-0.985
-0.97
-0.965
-0.96
-0.955
-0.93
-0.94
-0.945
-0.95
-0.94
-0.94
-0.935
-0.93
-0.945
-0.945
-0.945
-0.95
-0.945
-0.94
-0.95
-0.96
-0.975
-1.0
-0.985
-0.985
-0.97
-0.965
-0.97
-0.985
-0.965
-0.965
-0.965
-0.995
-1.01
-1.015
-1.005
-1.0
-0.995
-0.975
-0.985
-0.995
-0.995
-1.0
-0.995
-1.005
-1.025
-1.04
-1.05
-1.07
-1.065
-1.055
-1.055
-1.055
-1.05
-1.03
-1.04
-1.05
-1.04
-1.055
-1.08
-1.07
-1.06
-1.055
-1.045
-1.055
-1.05
-1.035
-1.035
-1.025
-1.035
-1.055
-1.035
-1.035
-1.025
-1.005
-1.01
-1.03
-1.01
-1.02
-1.005
-0.995
-0.995
-1.01
-1.02
-1.015
-0.985
-0.975
-0.955
-0.955
-0.965
-0.955
-0.95
-0.95
-0.93
-0.92
-0.89
-0.875
-0.84
-0.81
-0.805
-0.77
-0.765
-0.76
-0.755
-0.76
-0.77
-0.785
-0.8
-0.805
-0.8
-0.79
-0.795
-0.805
-0.825
-0.84
-0.82
-0.825
-0.855
-0.86
-0.905
-0.93
-0.945
-0.955
-0.945
-0.945
-0.955
-0.98
-0.985
-1.01
-1.02
-1.005
-1.015
-1.03
-1.015
-1.0
-0.985
-0.99
-1.0
-1.01
-1.01
-1.01
-0.995
-1.005
-1.03
-1.045
-1.065
-1.11
-1.165
-1.195
-1.235
-1.23
-1.185
-1.11
-0.96
-0.76
-0.545
-0.325
-0.105
0.09
0.295
0.465
0.61
0.7
0.745
0.77
0.755
0.72
0.655
0.57
0.445
0.22
-0.06
-0.365
-0.64
-0.845
-0.955
-0.97
-0.925
-0.875
-0.825
-0.835
-0.875
-0.915
-0.97
-1.005
-1.035
-1.07
-1.1
-1.105
-1.085
-1.09
-1.105
-1.105
-1.12
-1.1
-1.1
-1.075
-1.07
-1.07
-1.075
-1.09
-1.09
-1.085
-1.085
-1.095
-1.09
-1.12
-1.08
-1.065
-1.06
-1.06
-1.085
-1.085
-1.11
-1.115
-1.125
-1.13
-1.125
-1.105
-1.1
-1.09
-1.08
-1.095
-1.105
-1.115
-1.105
-1.11
-1.115
-1.115
-1.12
-1.105
-1.095
-1.075
-1.075
-1.075
-1.065
-1.05
-1.06
-1.075
-1.095
-1.095
-1.095
-1.07
-1.06
-1.04
-1.03
-1.035
-1.03
-1.035
-1.03
-1.035
-1.045
-1.055
-1.01
-0.985
-0.95
-0.945
-0.95
-0.945
-0.95
-0.94
-0.935
-0.92
-0.935
-0.955
-0.93
-0.92
-0.905
-0.9
-0.895
-0.905
-0.92
-0.92
-0.925
-0.92
-0.94
-0.955
-0.96
-0.935
-0.915
-0.9
-0.905
-0.91
-0.93
-0.93
-0.93
-0.94
-0.95
-0.96
-0.965
-0.96
-0.945
-0.935
-0.94
-0.96
-0.96
-0.97
-0.995
-1.005
-1.0
-1.025
-1.01
-0.98
-0.99
-0.96
-0.98
-0.99
-1.0
-1.0
-1.01
-1.025
-1.025
-1.035
-1.03
-1.01
-1.005
-1.005
-0.99
-1.0
-1.0
-1.0
-1.01
-1.015
-1.01
-1.01
-0.995
-0.985
-0.98
-0.99
-0.975
-0.98
-0.975
-0.985
-0.995
-0.99
-0.995
-0.99
-0.98
-0.975
-0.965
-0.965
-0.95
-0.95
-0.925
-0.92
-0.95
-0.95
-0.955
-0.955
-0.94
-0.905
-0.885
-0.865
-0.84
-0.82
-0.805
-0.78
-0.77
-0.755
-0.77
-0.76
-0.75
-0.73
-0.715
-0.725
-0.735
-0.735
-0.74
-0.75
-0.775
-0.795
-0.82
-0.815
-0.84
-0.835
-0.84
-0.86
-0.895
-0.91
-0.92
-0.94
-0.96
-0.97
-0.98
-1.0
-1.0
-1.0
-0.965
-0.975
-0.965
-0.985
-0.985
-0.985
-0.995
-1.0
-1.01
-1.005
-1.015
-1.0
-0.995
-0.99
-1.0
-1.035
-1.075
-1.125
-1.17
-1.225
-1.255
-1.23
-1.155
-1.03
-0.83
-0.615
-0.4
-0.21
-0.03
0.13
0.295
0.45
0.59
0.69
0.745
0.785
0.795
0.77
0.7
0.59
0.425
0.17
-0.135
-0.455
-0.735
-0.915
-0.995
-0.985
-0.91
-0.85
-0.825
-0.835
-0.865
-0.94
-0.995
-1.05
-1.085
-1.115
-1.115
-1.105
-1.1
-1.08
-1.085
-1.08
-1.07
-1.08
-1.08
-1.095
-1.095
-1.095
-1.09
-1.085
-1.06
-1.07
-1.08
-1.09
-1.09
-1.09
-1.08
-1.095
-1.11
-1.105
-1.1
-1.09
-1.085
-1.075
-1.085
-1.1
-1.095
-1.09
-1.105
-1.085
-1.115
-1.115
-1.12
-1.11
-1.1
-1.08
-1.1
-1.09
-1.09
-1.095
-1.1
-1.105
-1.115
-1.135
-1.12
-1.115
-1.09
-1.075
-1.085
-1.08
-1.075
-1.07
-1.06
-1.065
-1.06
-1.08
-1.085
-1.08
-1.05
-1.025
-1.015
-1.0
-1.0
-1.005
-1.0
-1.005
-1.0
-1.0
-0.995
-0.985
-0.945
-0.93
-0.935
-0.945
-0.935
-0.94
-0.935
-0.945
-0.945
-0.965
-0.96
-0.955
-0.935
-0.935
-0.915
-0.93
-0.945
-0.945
-0.945
-0.935
-0.95
-0.955
-0.955
-0.955
-0.95
-0.945
-0.935
-0.94
-0.955
-0.955
-0.97
-0.975
-0.975
-0.985
-1.0
-0.995
-0.995
-0.985
-0.975
-0.985
-1.0
-1.015
-1.025
-1.015
-1.01
-1.03
-1.035
-1.03
-1.02
-1.015
-1.02
-1.01
-1.025
-1.045
-1.055
-1.05
-1.04
-1.07
-1.035
-1.035
-1.04
-1.025
-1.02
-1.025
-1.03
-1.045
-1.025
-1.035
-1.025
-1.015
-1.02
-1.01
-1.005
-1.015
-0.985
-0.98
-1.0
-1.005
-1.03
-1.025
-1.02
-1.015
-1.025
-1.025
-1.01
-0.99
-0.97
-0.985
-0.98
-0.99
-0.985
-0.985
-0.96
-0.97
-0.96
-0.955
-0.935
-0.925
-0.885
-0.88
-0.88
-0.875
-0.865
-0.84
-0.82
-0.82
-0.81
-0.795
-0.795
-0.785
-0.76
-0.76
-0.765
-0.79
-0.81
-0.84
-0.85
-0.86
-0.855
-0.865
-0.86
-0.865
-0.86
-0.87
-0.895
-0.965
-0.985
-1.0
-1.005
-1.005
-1.04
-1.03
-1.04
-1.02
-1.015
-1.03
-1.025
-1.05
-1.06
-1.075
-1.085
-1.065
-1.07
-1.08
-1.065
-1.065
-1.055
-1.055
-1.075
-1.095
-1.155
-1.205
-1.245
-1.28
-1.285
-1.225
-1.115
-0.955
-0.75
-0.54
-0.345
-0.165
0.01
0.155
0.33
0.48
0.595
0.675
0.71
0.7
0.685
0.61
0.52
0.395
0.16
-0.125
-0.445
-0.74
-0.96
-1.085
-1.085
-1.04
-0.935
-0.895
-0.895
-0.955
-1.005
-1.08
-1.115
-1.14
-1.165
-1.165
-1.17
-1.165
-1.15
-1.155
-1.16
-1.17
-1.165
-1.18
-1.17
-1.165
-1.145
-1.16
-1.15
-1.145
-1.15
-1.145
-1.13
-1.14
-1.17
-1.175
-1.19
-1.175
-1.18
-1.17
-1.16
-1.15
-1.135
-1.15
-1.15
-1.17
-1.175
-1.19
-1.17
-1.175
-1.165
-1.165
-1.175
-1.155
-1.14
-1.15
-1.15
-1.14
-1.165
-1.155
-1.145
-1.155
-1.16
-1.14
-1.145
-1.15
-1.115
-1.11
-1.11
-1.12
-1.14
-1.155
-1.145
-1.125
-1.12
-1.1
-1.1
-1.08
-1.09
-1.07
-1.07
-1.08
-1.09
-1.08
-1.07
-1.065
-1.06
-1.025
-1.025
-1.015
-0.99
-0.985
-0.995
-0.99
-1.0
-1.005
-0.995
-0.985
-0.99
-0.975
-0.99
-0.995
-0.975
-0.98
-0.98
-0.975
-1.005
-1.005
-1.005
-1.01
-1.005
-1.005
-1.0
-0.995
-1.0
-1.01
-1.0
-1.015
-1.03
-1.03
-1.045
-1.045
-1.04
-1.04
-1.04
-1.045
-1.04
-1.04
-1.065
-1.085
-1.095
-1.105
-1.095
-1.09
-1.095
-1.09
-1.095
-1.09
-1.08
-1.085
-1.095
-1.11
-1.12
-1.11
-1.12
-1.105
-1.105
-1.1
-1.095
-1.08
-1.065
-1.065
-1.085
-1.11
-1.125
-1.13
-1.1
-1.105
-1.085
-1.075
-1.09
-1.095
-1.075
-1.06
-1.065
-1.07
-1.115
-1.105
-1.105
-1.09
-1.07
-1.07
-1.07
-1.065
-1.05
-1.04
-1.05
-1.05
-1.06
-1.06
-1.065
-1.04
-1.035
-1.03
-1.005
-1.015
-1.005
-1.0
-0.965
-0.96
-0.955
-0.94
-0.935
-0.885
-0.88
-0.865
-0.845
-0.845
-0.825
-0.81
-0.82
-0.84
-0.875
-0.885
-0.86
-0.875
-0.885
-0.89
-0.895
-0.885
-0.875
-0.875
-0.9
-0.935
-0.985
-1.005
-1.02
-1.02
-1.035
-1.045
-1.05
-1.05
-1.065
-1.055
-1.065
-1.08
-1.1
-1.12
-1.13
-1.115
-1.115
-1.08
-1.08
-1.08
-1.07
-1.095
-1.09
-1.085
-1.105
-1.125
-1.17
-1.2
-1.245
-1.29
-1.305
-1.29
-1.225
-1.15
-1.0
-0.835
-0.655
-0.47
-0.3
-0.12
0.08
0.265
0.445
0.585
0.68
0.72
0.695
0.695
0.61
0.52
0.4
0.205
-0.06
-0.39
-0.695
-0.93
-1.04
-1.07
-1.04
-0.965
-0.935
-0.945
-0.99
-1.04
-1.1
-1.125
-1.13
-1.165
-1.18
-1.175
-1.175
-1.17
-1.175
-1.195
-1.19
-1.21
-1.205
-1.185
-1.145
-1.16
-1.15
-1.16
-1.18
-1.16
-1.155
-1.175
-1.195
-1.185
-1.185
-1.165
-1.165
-1.16
-1.165
-1.155
-1.165
-1.165
-1.165
-1.18
-1.19
-1.205
-1.22
-1.175
-1.17
-1.17
-1.18
-1.165
-1.17
-1.175
-1.16
-1.165
-1.165
-1.19
-1.19
-1.17
-1.145
-1.135
-1.135
-1.14
-1.155
-1.145
-1.16
-1.16
-1.17
-1.18
-1.16
-1.155
-1.155
-1.14
-1.12
-1.125
-1.125
-1.1
-1.12
-1.115
-1.125
-1.135
-1.1
-1.07
-1.04
-1.045
-1.03
-1.035
-1.04
-1.02
-1.015
-1.025
-1.01
-1.045
-1.03
-1.0
-0.995
-0.995
-0.995
-0.985
-0.99
-0.98
-0.995
-1.005
-1.02
-1.025
-1.02
-1.0
-1.0
-0.995
-0.99
-0.99
-0.99
-0.995
-1.01
-1.03
-1.025
-1.04
-1.045
-1.04
-1.02
-1.0
-1.0
-1.025
-1.045
-1.04
-1.05
-1.06
-1.065
-1.09
-1.09
-1.08
-1.075
-1.065
-1.075
-1.09
-1.125
-1.125
-1.11
-1.11
-1.115
-1.12
-1.13
-1.13
-1.105
-1.105
-1.1
-1.105
-1.1
-1.11
-1.11
-1.11
-1.1
-1.11
-1.12
-1.115
-1.125
-1.095
-1.07
-1.065
-1.085
-1.105
-1.115
-1.1
-1.1
-1.095
-1.105
-1.075
-1.07
-1.07
-1.055
-1.055
-1.065
-1.08
-1.08
-1.085
-1.075
-1.09
-1.075
-1.08
-1.075
-1.055
-1.035
-1.035
-1.025
-1.035
-1.05
-1.045
-1.015
-1.005
-1.0
-1.0
-1.0
-0.985
-0.975
-0.95
-0.925
-0.91
-0.905
-0.895
-0.875
-0.85
-0.83
-0.825
-0.82
-0.82
-0.81
-0.81
-0.81
-0.82
-0.85
-0.855
-0.875
-0.88
-0.885
-0.89
-0.885
-0.91
-0.92
-0.93
-0.965
-1.005
-1.045
-1.065
-1.07
-1.085
-1.09
-1.09
-1.09
-1.085
-1.07
-1.09
-1.09
-1.12
-1.115
-1.09
-1.105
-1.105
-1.1
-1.105
-1.09
-1.085
-1.07
-1.095
-1.125
-1.185
-1.255
-1.31
-1.315
-1.3
-1.265
-1.145
-0.99
-0.8
-0.57
-0.37
-0.2
-0.045
0.11
0.27
0.425
0.56
0.67
0.735
0.755
0.755
0.71
0.635
0.525
0.355
0.09
-0.235
-0.545
-0.805
-0.94
-1.005
-1.005
-0.955
-0.9
-0.895
-0.91
-0.95
-1.025
-1.07
-1.14
-1.165
-1.16
-1.16
-1.17
-1.18
-1.17
-1.175
-1.155
-1.16
-1.165
-1.16
-1.15
-1.16
-1.16
-1.18
-1.16
-1.155
-1.155
-1.16
-1.17
-1.16
-1.155
-1.15
-1.155
-1.16
-1.185
-1.2
-1.195
-1.185
-1.17
-1.175
-1.185
-1.19
-1.205
-1.2
-1.19
-1.195
-1.21
-1.205
-1.185
-1.18
-1.16
-1.16
-1.175
-1.165
-1.185
-1.18
-1.175
-1.175
-1.175
-1.18
-1.165
-1.155
-1.125
-1.125
-1.125
-1.15
-1.145
-1.145
-1.135
-1.13
-1.13
-1.135
-1.12
-1.12
-1.095
-1.065
-1.055
-1.055
-1.055
-1.05
-1.04
-1.035
-1.03
-1.025
-1.025
-1.01
-1.0
-1.0
-0.985
-0.985
-0.995
-0.99
-0.98
-0.985
-0.985
-0.985
-0.97
-0.97
-0.96
-0.955
-0.97
-0.975
-0.985
-0.99
-0.98
-0.995
-1.005
-1.005
-0.985
-0.985
-0.975
-0.985
-0.995
-1.01
-1.02
-1.015
-1.02
-1.02
-1.03
-1.03
-1.015
-1.005
-1.005
-1.02
-1.025
-1.04
-1.05
-1.065
-1.07
-1.085
-1.085
-1.08
-1.06
-1.06
-1.065
-1.075
-1.085
-1.08
-1.09
-1.085
-1.065
-1.085
-1.095
-1.09
-1.075
-1.06
-1.05
-1.04
-1.05
-1.055
-1.065
-1.075
-1.07
-1.075
-1.065
-1.06
-1.06
-1.035
-1.025
-1.015
-1.03
-1.045
-1.05
-1.04
-1.04
-1.05
-1.065
-1.065
-1.035
-1.03
-1.01
-1.0
-1.01
-1.01
-1.015
-1.0
-1.01
-1.015
-1.025
-1.02
-1.015
-1.01
-0.96
-0.96
-0.955
-0.945
-0.945
-0.94
-0.945
-0.95
-0.95
-0.935
-0.91
-0.875
-0.85
-0.835
-0.825
-0.795
-0.78
-0.77
-0.79
-0.78
-0.795
-0.795
-0.785
-0.77
-0.765
-0.765
-0.79
-0.81
-0.845
-0.83
-0.845
-0.84
-0.865
-0.87
-0.895
-0.895
-0.895
-0.915
-0.94
-0.97
-1.0
-1.015
-1.04
-1.04
-1.04
-1.045
-1.045
-1.045
-1.02
-0.995
-1.015
-1.02
-1.025
-1.025
-1.05
-1.045
-1.03
-1.035
-1.03
-1.03
-1.05
-1.095
-1.15
-1.2
-1.24
-1.275
-1.255
-1.19
-1.085
-0.935
-0.735
-0.53
-0.32
-0.12
0.05
0.205
0.365
0.52
0.645
0.72
0.77
0.77
0.75
0.72
0.65
0.545
0.35
0.07
-0.285
-0.585
-0.805
-0.925
-0.96
-0.95
-0.9
-0.855
-0.835
-0.825
-0.87
-0.93
-0.995
-1.04
-1.085
-1.095
-1.105
-1.1
-1.105
-1.09
-1.085
-1.085
-1.08
-1.075
-1.085
-1.11
-1.12
-1.125
-1.105
-1.11
-1.1
-1.11
-1.1
-1.1
-1.085
-1.105
-1.115
-1.12
-1.14
-1.15
-1.135
-1.125
-1.11
-1.1
-1.08
-1.095
-1.095
-1.09
-1.115
-1.12
-1.125
-1.12
-1.13
-1.13
-1.115
-1.1
-1.105
-1.09
-1.08
-1.09
-1.105
-1.11
-1.105
-1.1
-1.09
-1.085
-1.07
-1.075
-1.05
-1.045
-1.045
-1.05
-1.065
-1.065
-1.07
-1.055
-1.04
-1.045
-1.025
-1.045
-1.015
-0.995
-0.985
-0.97
-1.005
-1.005
-0.995
-0.99
-0.985
-0.955
-0.955
-0.96
-0.94
-0.92
-0.92
-0.9
-0.925
-0.92
-0.94
-0.93
-0.91
-0.91
-0.9
-0.91
-0.905
-0.905
-0.915
-0.895
-0.915
-0.92
-0.94
-0.92
-0.925
-0.93
-0.935
-0.925
-0.935
-0.925
-0.92
-0.96
-0.96
-0.97
-0.96
-0.955
-0.97
-0.96
-0.96
-0.97
-0.965
-0.95
-0.965
-0.96
-0.98
-0.985
-1.005
-1.005
-1.01
-1.02
-1.015
-1.01
-1.025
-0.99
-1.01
-1.01
-1.015
-1.025
-1.03
-1.02
-1.02
-1.01
-1.015
-1.005
-0.985
-0.965
-0.975
-0.975
-0.985
-0.99
-0.995
-1.0
-1.0
-0.995
-0.985
-0.985
-0.98
-0.96
-0.955
-0.975
-0.98
-0.975
-0.99
-0.98
-0.985
-0.975
-0.975
-0.97
-0.945
-0.945
-0.94
-0.945
-0.97
-0.97
-0.98
-0.98
-0.97
-0.955
-0.945
-0.95
-0.94
-0.93
-0.935
-0.925
-0.945
-0.945
-0.94
-0.935
-0.94
-0.915
-0.92
-0.915
-0.91
-0.89
-0.855
-0.845
-0.84
-0.81
-0.8
-0.785
-0.765
-0.75
-0.735
-0.73
-0.73
-0.725
-0.725
-0.73
-0.735
-0.75
-0.76
-0.76
-0.77
-0.785
-0.785
-0.78
-0.78
-0.78
-0.795
-0.84
-0.87
-0.895
-0.925
-0.94
-0.945
-0.94
-0.95
-0.945
-0.96
-0.94
-0.945
-0.955
-0.98
-0.995
-0.99
-0.99
-0.99
-0.995
-0.98
-0.98
-0.97
-0.96
-0.975
-0.99
-1.03
-1.085
-1.125
-1.18
-1.22
-1.185
-1.11
-0.97
-0.765
-0.52
-0.29
-0.08
0.095
0.295
0.445
0.575
0.68
0.74
0.75
0.75
0.73
0.675
0.58
0.435
0.19
-0.125
-0.445
-0.72
-0.895
-0.98
-0.97
-0.885
-0.835
-0.81
-0.835
-0.87
-0.94
-0.995
-1.04
-1.06
-1.07
-1.09
-1.1
-1.085
-1.065
-1.055
-1.055
-1.07
-1.07
-1.08
-1.065
-1.075
-1.08
-1.08
-1.075
-1.06
-1.07
-1.06
-1.06
-1.085
-1.09
-1.08
-1.07
-1.075
-1.09
-1.105
-1.1
-1.075
-1.055
-1.055
-1.065
-1.085
-1.09
-1.095
-1.095
-1.1
-1.095
-1.1
-1.08
-1.095
-1.08
-1.085
-1.085
-1.085
-1.085
-1.08
-1.085
-1.1
-1.1
-1.08
-1.075
-1.045
-1.05
-1.04
-1.055
-1.06
-1.05
-1.045
-1.05
-1.045
-1.04
-1.06
-1.045
-1.005
-0.98
-0.985
-0.99
-1.0
-0.99
-1.015
-0.985
-0.985
-0.98
-0.97
-0.955
-0.93
-0.915
-0.905
-0.91
-0.92
-0.915
-0.92
-0.91
-0.905
-0.93
-0.935
-0.915
-0.9
-0.89
-0.885
-0.9
-0.91
-0.92
-0.925
-0.925
-0.925
-0.925
-0.93
-0.92
-0.91
-0.905
-0.91
-0.92
-0.93
-0.93
-0.94
-0.95
-0.96
-0.975
-0.97
-0.955
-0.94
-0.945
-0.945
-0.965
-0.975
-0.975
-0.995
-0.99
-1.035
-1.035
-1.01
-0.995
-0.99
-0.985
-0.97
-0.99
-1.0
-1.0
-1.015
-1.015
-1.025
-1.025
-1.01
-1.0
-0.995
-0.985
-0.985
-1.0
-1.03
-1.02
-1.005
-1.005
-1.005
-1.015
-1.01
-1.005
-0.99
-0.975
-0.97
-0.985
-0.995
-1.01
-1.01
-1.0
-0.995
-1.015
-1.0
-1.01
-1.0
-0.975
-0.965
-0.955
-0.985
-0.985
-0.99
-0.985
-0.975
-0.98
-0.98
-0.97
-0.965
-0.955
-0.95
-0.965
-0.97
-0.995
-1.0
-1.0
-0.99
-0.99
-0.975
-0.97
-0.95
-0.96
-0.93
-0.91
-0.91
-0.945
-0.93
-0.915
-0.915
-0.905
-0.87
-0.845
-0.82
-0.8
-0.78
-0.75
-0.765
-0.76
-0.765
-0.77
-0.755
-0.74
-0.75
-0.74
-0.755
-0.755
-0.75
-0.765
-0.8
-0.805
-0.81
-0.815
-0.82
-0.825
-0.845
-0.865
-0.89
-0.915
-0.92
-0.93
-0.925
-0.955
-0.98
-0.99
-0.985
-0.99
-0.995
-0.995
-1.015
-1.01
-1.0
-1.005
-1.0
-1.0
-1.01
-1.025
-1.025
-1.015
-0.995
-0.975
-0.995
-1.005
-1.02
-1.055
-1.085
-1.13
-1.195
-1.23
-1.235
-1.18
-1.06
-0.92
-0.705
-0.505
-0.305
-0.09
0.095
0.3
0.45
0.565
0.67
0.735
0.765
0.745
0.695
0.64
0.565
0.48
0.325
0.055
-0.245
-0.53
-0.775
-0.91
-0.955
-0.94
-0.885
-0.835
-0.81
-0.84
-0.89
-0.95
-1.0
-1.05
-1.075
-1.11
-1.115
-1.105
-1.1
-1.08
-1.08
-1.105
-1.1
-1.11
-1.115
-1.1
-1.105
-1.1
-1.11
-1.09
-1.085
-1.085
-1.08
-1.08
-1.09
-1.085
-1.1
-1.105
-1.085
-1.1
-1.105
-1.105
-1.09
-1.065
-1.065
-1.06
-1.085
-1.08
-1.095
-1.09
-1.09
-1.09
-1.095
-1.1
-1.1
-1.085
-1.065
-1.075
-1.075
-1.085
-1.105
-1.1
-1.085
-1.1
-1.09
-1.08
-1.07
-1.055
-1.06
-1.06
-1.075
-1.075
-1.065
-1.055
-1.06
-1.06
-1.06
-1.045
-1.04
-1.01
-0.995
-1.015
-1.0
-1.015
-1.025
-1.015
-1.0
-1.0
-0.99
-0.98
-0.955
-0.94
-0.925
-0.91
-0.925
-0.935
-0.94
-0.96
-0.94
-0.925
-0.915
-0.92
-0.905
-0.91
-0.895
-0.9
-0.915
-0.93
-0.935
-0.93
-0.93
-0.925
-0.93
-0.925
-0.93
-0.92
-0.895
-0.905
-0.91
-0.935
-0.935
-0.96
-0.95
-0.95
-0.95
-0.955
-0.955
-0.96
-0.945
-0.955
-0.96
-0.965
-0.99
-1.0
-1.0
-0.99
-0.995
-1.01
-1.0
-0.995
-0.985
-0.985
-1.005
-1.02
-1.03
-1.05
-1.03
-1.045
-1.03
-1.045
-1.03
-1.02
-1.015
-1.005
-1.025
-1.035
-1.045
-1.025
-1.025
-1.035
-1.03
-1.02
-1.005
-1.0
-0.98
-0.995
-1.005
-1.025
-1.005
-0.995
-0.99
-0.995
-1.005
-0.98
-0.995
-0.995
-0.965
-0.975
-0.975
-0.99
-0.995
-1.0
-1.0
-0.985
-0.99
-0.985
-0.98
-0.98
-0.96
-0.97
-0.985
-0.985
-1.0
-1.0
-0.985
-0.995
-0.99
-1.005
-0.985
-0.96
-0.94
-0.935
-0.935
-0.955
-0.95
-0.94
-0.93
-0.935
-0.93
-0.925
-0.92
-0.88
-0.84
-0.825
-0.825
-0.82
-0.795
-0.775
-0.77
-0.765
-0.765
-0.775
-0.76
-0.745
-0.725
-0.735
-0.765
-0.785
-0.8
-0.815
-0.815
-0.825
-0.825
-0.835
-0.83
-0.845
-0.865
-0.91
-0.925
-0.965
-0.97
-0.97
-0.965
-0.98
-0.995
-0.995
-1.005
-1.02
-0.985
-0.98
-0.995
-1.005
-1.025
-1.02
-1.015
-1.025
-1.02
-1.015
-1.01
-1.01
-1.0
-1.02
-1.065
-1.115
-1.17
-1.215
-1.235
-1.205
-1.135
-1.02
-0.855
-0.665
-0.435
-0.245
-0.07
0.1
0.295
0.46
0.62
0.705
0.75
0.77
0.745
0.665
0.565
0.385
0.11
-0.235
-0.555
-0.81
-0.94
-1.0
-0.985
-0.9
-0.84
-0.815
-0.85
-0.915
-0.98
-1.035
-1.07
-1.095
-1.105
-1.12
-1.12
-1.11
-1.095
-1.095
-1.065
-1.085
-1.1
-1.095
-1.095
-1.09
-1.1
-1.095
-1.105
-1.095
-1.1
-1.065
-1.07
-1.065
-1.095
-1.105
-1.1
-1.11
-1.115
-1.115
-1.11
-1.125
-1.1
-1.095
-1.07
-1.09
-1.085
-1.105
-1.12
-1.11
-1.095
-1.095
-1.095
-1.08
-1.085
-1.08
-1.065
-1.06
-1.07
-1.085
-1.105
-1.115
-1.11
-1.11
-1.095
-1.08
-1.075
-1.085
-1.07
-1.075
-1.08
-1.08
-1.08
-1.075
-1.065
-1.055
-1.055
-1.045
-1.055
-1.05
-1.025
-1.01
-1.01
-1.01
-1.02
-1.0
-1.005
-0.975
-0.955
-0.96
-0.95
-0.945
-0.93
-0.925
-0.93
-0.92
-0.92
-0.93
-0.92
-0.905
-0.895
-0.905
-0.91
-0.905
-0.88
-0.89
-0.88
-0.895
-0.9
-0.915
-0.92
-0.915
-0.92
-0.92
-0.915
-0.925
-0.93
-0.915
-0.89
-0.905
-0.93
-0.93
-0.935
-0.955
-0.95
-0.955
-0.955
-0.94
-0.935
-0.93
-0.94
-0.945
-0.96
-0.98
-0.97
-0.975
-0.97
-0.96
-0.965
-0.97
-0.96
-0.97
-1.0
-1.005
-1.01
-1.0
-0.985
-0.995
-1.0
-0.995
-1.0
-0.995
-0.97
-0.97
-0.965
-0.97
-0.995
-0.995
-0.985
-0.98
-0.965
-0.965
-0.95
-0.95
-0.935
-0.945
-0.935
-0.96
-0.97
-0.965
-0.965
-0.965
-0.96
-0.975
-0.975
-0.955
-0.94
-0.94
-0.91
-0.92
-0.935
-0.95
-0.955
-0.945
-0.935
-0.925
-0.925
-0.925
-0.925
-0.92
-0.925
-0.915
-0.925
-0.92
-0.93
-0.94
-0.945
-0.935
-0.925
-0.925
-0.925
-0.92
-0.91
-0.915
-0.925
-0.93
-0.945
-0.94
-0.905
-0.905
-0.905
-0.895
-0.895
-0.9
-0.885
-0.885
-0.9
-0.91
-0.9
-0.88
-0.885
-0.845
-0.835
-0.815
-0.78
-0.76
-0.74
-0.73
-0.75
-0.715
-0.715
-0.71
-0.695
-0.69
-0.695
-0.7
-0.69
-0.705
-0.72
-0.72
-0.755
-0.765
-0.775
-0.77
-0.77
-0.765
-0.79
-0.82
-0.835
-0.845
-0.85
-0.86
-0.885
-0.915
-0.925
-0.92
-0.92
-0.915
-0.915
-0.92
-0.92
-0.93
-0.925
-0.93
-0.93
-0.94
-0.955
-0.955
-0.93
-0.925
-0.915
-0.925
-0.925
-0.955
-0.95
-0.99
-1.07
-1.155
-1.185
-1.2
-1.15
-1.045
-0.925
-0.74
-0.515
-0.29
-0.075
0.115
0.305
0.485
0.66
0.78
0.865
0.89
0.87
0.82
0.715
0.57
0.35
0.045
-0.29
-0.57
-0.76
-0.845
-0.855
-0.83
-0.785
-0.74
-0.745
-0.765
-0.795
-0.865
-0.92
-0.965
-1.0
-1.025
-1.02
-1.02
-1.02
-1.01
-1.01
-1.005
-1.005
-1.01
-1.02
-1.02
-1.02
-1.02
-1.02
-1.005
-1.01
-1.02
-1.005
-1.005
-1.005
-1.03
-1.02
-1.03
-1.04
-1.025
-1.0
-1.01
-1.01
-1.015
