Lead II
-0.365
-0.385
-0.39
-0.395
-0.39
-0.395
-0.405
-0.47
-0.52
-0.53
-0.505
-0.435
-0.355
-0.25
-0.06
0.24
0.58
0.89
1.175
1.45
1.635
1.715
1.7
1.49
1.075
0.545
0.055
-0.285
-0.465
-0.515
-0.525
-0.49
-0.415
-0.345
-0.315
-0.32
-0.335
-0.35
-0.36
-0.375
-0.375
-0.37
-0.37
-0.39
-0.4
-0.42
-0.415
-0.41
-0.42
-0.41
-0.415
-0.42
-0.425
-0.4
-0.395
-0.405
-0.42
-0.43
-0.43
-0.415
-0.41
-0.415
-0.425
-0.425
-0.43
-0.425
-0.415
-0.405
-0.415
-0.415
-0.425
-0.42
-0.405
-0.4
-0.4
-0.415
-0.405
-0.39
-0.39
-0.4
-0.395
-0.395
-0.39
-0.365
-0.36
-0.345
-0.365
-0.365
-0.345
-0.345
-0.34
-0.335
-0.335
-0.33
-0.305
-0.29
-0.275
-0.265
-0.27
-0.27
-0.25
-0.225
-0.2
-0.195
-0.18
-0.185
-0.14
-0.12
-0.11
-0.11
-0.105
-0.1
-0.08
-0.05
-0.03
-0.005
-0.005
0.0
-0.005
0.025
0.035
0.05
0.055
0.05
0.06
0.075
0.09
0.085
0.075
0.065
0.06
0.07
0.08
0.065
0.06
0.02
0.015
0.01
-0.005
-0.02
-0.055
-0.075
-0.1
-0.095
-0.1
-0.115
-0.145
-0.16
-0.175
-0.195
-0.2
-0.205
-0.215
-0.235
-0.235
-0.235
-0.235
-0.235
-0.25
-0.27
-0.26
-0.26
-0.245
-0.245
-0.255
-0.27
-0.27
-0.27
-0.25
-0.265
-0.275
-0.275
-0.265
-0.255
-0.25
-0.25
-0.26
-0.27
-0.255
-0.24
-0.23
-0.24
-0.235
-0.25
-0.23
-0.23
-0.22
-0.225
-0.23
-0.235
-0.23
-0.215
-0.22
-0.22
-0.22
-0.23
-0.23
-0.22
-0.22
-0.21
-0.215
-0.23
-0.235
-0.225
-0.215
-0.23
-0.245
-0.25
-0.24
-0.225
-0.23
-0.24
-0.25
-0.265
-0.26
-0.255
-0.24
-0.25
-0.26
-0.27
-0.275
-0.265
-0.27
-0.265
-0.275
-0.29
-0.3
-0.28
-0.28
-0.29
-0.3
-0.315
-0.32
-0.31
-0.3
-0.295
-0.3
-0.32
-0.305
-0.31
-0.31
-0.31
-0.32
-0.33
-0.31
-0.31
-0.32
-0.3
-0.32
-0.33
-0.325
-0.335
-0.325
-0.33
-0.32
-0.325
-0.32
-0.33
-0.315
-0.33
-0.33
-0.33
-0.34
-0.325
-0.32
-0.31
-0.33
-0.335
-0.33
-0.32
-0.315
-0.305
-0.29
-0.295
-0.28
-0.245
-0.235
-0.225
-0.25
-0.26
-0.26
-0.235
-0.2
-0.205
-0.21
-0.23
-0.22
-0.205
-0.2
-0.205
-0.22
-0.225
-0.24
-0.24
-0.245
-0.26
-0.26
-0.26
-0.235
-0.235
-0.24
-0.24
-0.26
-0.27
-0.275
-0.29
-0.295
-0.3
-0.315
-0.35
-0.335
-0.335
-0.33
-0.335
-0.35
-0.38
-0.37
-0.37
-0.36
-0.355
-0.37
-0.385
-0.365
-0.365
-0.355
-0.365
-0.37
-0.37
-0.36
-0.365
-0.355
-0.345
-0.35
-0.36
-0.37
-0.345
-0.36
-0.39
-0.43
-0.505
-0.51
-0.485
-0.415
-0.34
-0.225
-0.005
0.35
0.755
1.105
1.42
1.67
1.815
1.855
1.74
1.39
0.835
0.265
-0.19
-0.435
-0.495
-0.49
-0.45
-0.38
-0.32
-0.27
-0.28
-0.3
-0.32
-0.33
-0.33
-0.33
-0.335
-0.335
-0.355
-0.375
-0.4
-0.39
-0.4
-0.38
-0.39
-0.395
-0.4
-0.405
-0.405
-0.385
-0.385
-0.395
-0.4
-0.39
-0.395
-0.38
-0.39
-0.395
-0.41
-0.405
-0.4
-0.39
-0.39
-0.39
-0.385
-0.385
-0.385
-0.37
-0.385
-0.38
-0.385
-0.375
-0.365
-0.355
-0.355
-0.365
-0.355
-0.35
-0.335
-0.32
-0.315
-0.305
-0.31
-0.3
-0.285
-0.275
-0.265
-0.245
-0.23
-0.235
-0.21
-0.18
-0.165
-0.155
-0.15
-0.135
-0.11
-0.1
-0.075
-0.05
-0.05
-0.015
-0.01
0.0
0.02
0.025
0.035
0.06
0.075
0.09
0.095
0.095
0.095
0.11
0.12
0.14
0.15
0.145
0.135
0.14
0.135
0.125
0.09
0.075
0.065
0.06
0.045
0.02
0.01
-0.025
-0.065
-0.09
-0.1
-0.1
-0.12
-0.135
-0.165
-0.18
-0.19
-0.19
-0.2
-0.215
-0.225
-0.24
-0.23
-0.225
-0.24
-0.245
-0.26
-0.26
-0.25
-0.255
-0.24
-0.25
-0.26
-0.25
-0.245
-0.24
-0.25
-0.245
-0.27
-0.255
-0.24
-0.225
-0.23
-0.235
-0.25
-0.24
-0.225
-0.22
-0.215
-0.23
-0.23
-0.235
-0.21
-0.205
-0.215
-0.22
-0.21
-0.215
-0.215
-0.2
-0.21
-0.22
-0.22
-0.215
-0.215
-0.215
-0.215
-0.22
-0.235
-0.22
-0.225
-0.21
-0.23
-0.23
-0.25
-0.245
-0.235
-0.23
-0.24
-0.26
-0.26
-0.26
-0.245
-0.245
-0.26
-0.28
-0.28
-0.275
-0.285
-0.275
-0.285
-0.28
-0.295
-0.295
-0.295
-0.3
-0.29
-0.295
-0.305
-0.305
-0.31
-0.31
-0.315
-0.33
-0.33
-0.33
-0.315
-0.305
-0.31
-0.325
-0.33
-0.34
-0.32
-0.32
-0.31
-0.325
-0.325
-0.325
-0.315
-0.315
-0.32
-0.33
-0.33
-0.315
-0.3
-0.285
-0.285
-0.275
-0.28
-0.255
-0.235
-0.235
-0.225
-0.235
-0.235
-0.22
-0.2
-0.21
-0.21
-0.225
-0.22
-0.205
-0.2
-0.205
-0.22
-0.24
-0.265
-0.275
-0.27
-0.265
-0.24
-0.23
-0.24
-0.24
-0.26
-0.28
-0.285
-0.31
-0.315
-0.315
-0.32
-0.33
-0.33
-0.34
-0.36
-0.37
-0.375
-0.36
-0.36
-0.37
-0.375
-0.385
-0.385
-0.375
-0.37
-0.38
-0.39
-0.365
-0.36
-0.36
-0.36
-0.385
-0.395
-0.39
-0.385
-0.37
-0.39
-0.44
-0.51
-0.57
-0.565
-0.505
-0.435
-0.34
-0.145
0.195
0.61
1.03
1.37
1.695
1.895
1.95
1.875
1.575
1.01
0.395
-0.12
-0.41
-0.505
-0.495
-0.48
-0.43
-0.355
-0.285
-0.27
-0.285
-0.315
-0.335
-0.365
-0.35
-0.345
-0.355
-0.365
-0.39
-0.405
-0.4
-0.405
-0.41
-0.415
-0.42
-0.425
-0.43
-0.415
-0.405
-0.4
-0.41
-0.41
-0.425
-0.415
-0.405
-0.4
-0.415
-0.425
-0.42
-0.405
-0.385
-0.395
-0.405
-0.395
-0.385
-0.375
-0.37
-0.37
-0.385
-0.375
-0.355
-0.335
-0.33
-0.335
-0.33
-0.325
-0.32
-0.3
-0.285
-0.27
-0.265
-0.265
-0.245
-0.22
-0.205
-0.195
-0.185
-0.175
-0.145
-0.11
-0.085
-0.08
-0.07
-0.06
-0.03
-0.005
0.02
0.035
0.045
0.06
0.075
0.09
0.11
0.11
0.12
0.13
0.135
0.155
0.17
0.165
0.17
0.14
0.15
0.155
0.145
0.13
0.095
0.065
0.05
0.025
0.03
-0.005
-0.035
-0.07
-0.085
-0.085
-0.11
-0.13
-0.155
-0.18
-0.19
-0.175
-0.18
-0.185
-0.21
-0.22
-0.215
-0.22
-0.215
-0.225
-0.23
-0.23
-0.215
-0.22
-0.205
-0.21
-0.22
-0.225
-0.215
-0.21
-0.2
-0.205
-0.21
-0.215
-0.205
-0.205
-0.2
-0.195
-0.195
-0.2
-0.195
-0.18
-0.19
-0.175
-0.17
-0.185
-0.18
-0.165
-0.165
-0.175
-0.17
-0.175
-0.17
-0.165
-0.165
-0.17
-0.16
-0.175
-0.18
-0.17
-0.185
-0.18
-0.19
-0.195
-0.195
-0.17
-0.175
-0.18
-0.19
-0.195
-0.205
-0.195
-0.175
-0.19
-0.205
-0.215
-0.2
-0.195
-0.19
-0.21
-0.21
-0.23
-0.235
-0.22
-0.225
-0.24
-0.24
-0.245
-0.24
-0.245
-0.235
-0.235
-0.26
-0.255
-0.255
-0.265
-0.245
-0.255
-0.255
-0.26
-0.265
-0.25
-0.245
-0.25
-0.25
-0.255
-0.26
-0.255
-0.265
-0.27
-0.27
-0.27
-0.275
-0.275
-0.255
-0.26
-0.27
-0.285
-0.28
-0.26
-0.235
-0.225
-0.225
-0.225
-0.205
-0.195
-0.18
-0.175
-0.185
-0.185
-0.17
-0.155
-0.155
-0.15
-0.16
-0.165
-0.165
-0.15
-0.145
-0.155
-0.175
-0.195
-0.215
-0.2
-0.21
-0.19
-0.19
-0.2
-0.205
-0.195
-0.2
-0.215
-0.245
-0.255
-0.26
-0.26
-0.275
-0.285
-0.295
-0.305
-0.31
-0.315
-0.295
-0.31
-0.32
-0.335
-0.32
-0.315
-0.31
-0.305
-0.315
-0.325
-0.32
-0.295
-0.295
-0.305
-0.3
-0.315
-0.31
-0.31
-0.295
-0.32
-0.365
-0.43
-0.495
-0.48
-0.425
-0.37
-0.275
-0.08
0.265
0.675
1.055
1.4
1.685
1.84
1.89
1.74
1.34
0.725
0.155
-0.235
-0.415
-0.44
-0.425
-0.36
-0.27
-0.22
-0.215
-0.23
-0.26
-0.26
-0.27
-0.27
-0.28
-0.295
-0.305
-0.325
-0.33
-0.345
-0.335
-0.34
-0.335
-0.335
-0.335
-0.35
-0.345
-0.33
-0.325
-0.335
-0.355
-0.35
-0.335
-0.33
-0.33
-0.32
-0.325
-0.345
-0.335
-0.33
-0.325
-0.31
-0.305
-0.315
-0.315
-0.305
-0.3
-0.29
-0.3
-0.305
-0.3
-0.275
-0.255
-0.25
-0.255
-0.255
-0.24
-0.22
-0.21
-0.2
-0.185
-0.17
-0.155
-0.125
-0.115
-0.095
-0.09
-0.07
-0.05
-0.01
0.005
0.01
0.015
0.015
0.05
0.075
0.08
0.095
0.1
0.105
0.13
0.15
0.155
0.165
0.17
0.17
0.18
0.195
0.205
0.19
0.165
0.155
0.14
0.15
0.14
0.125
0.1
0.075
0.06
0.045
0.025
-0.005
-0.025
-0.045
-0.065
-0.065
-0.075
-0.085
-0.125
-0.135
-0.15
-0.14
-0.125
-0.145
-0.14
-0.155
-0.165
-0.17
-0.16
-0.165
-0.17
-0.175
-0.18
-0.165
-0.15
-0.155
-0.175
-0.17
-0.165
-0.145
-0.135
-0.14
-0.14
-0.155
-0.155
-0.145
-0.14
-0.135
-0.14
-0.145
-0.15
-0.135
-0.135
-0.13
-0.145
-0.15
-0.125
-0.13
-0.12
-0.11
-0.135
-0.145
-0.14
-0.13
-0.125
-0.135
-0.125
-0.14
-0.125
-0.12
-0.12
-0.13
-0.145
-0.16
-0.16
-0.15
-0.14
-0.125
-0.165
-0.16
-0.165
-0.165
-0.145
-0.16
-0.175
-0.175
-0.175
-0.16
-0.175
-0.18
-0.205
-0.22
-0.215
-0.205
-0.185
-0.19
-0.195
-0.22
-0.205
-0.19
-0.195
-0.22
-0.23
-0.235
-0.23
-0.21
-0.205
-0.205
-0.23
-0.24
-0.235
-0.23
-0.225
-0.235
-0.215
-0.24
-0.24
-0.235
-0.22
-0.225
-0.24
-0.245
-0.24
-0.235
-0.23
-0.225
-0.225
-0.24
-0.24
-0.235
-0.245
-0.235
-0.225
-0.225
-0.21
-0.19
-0.19
-0.165
-0.165
-0.175
-0.17
-0.155
-0.145
-0.14
-0.13
-0.14
-0.14
-0.135
-0.135
-0.135
-0.15
-0.15
-0.14
-0.14
-0.145
-0.16
-0.18
-0.22
-0.22
-0.205
-0.19
-0.16
-0.155
-0.18
-0.2
-0.215
-0.21
-0.23
-0.235
-0.25
-0.255
-0.265
-0.255
-0.255
-0.28
-0.295
-0.31
-0.295
-0.31
-0.295
-0.305
-0.3
-0.305
-0.31
-0.305
-0.31
-0.32
-0.335
-0.325
-0.305
-0.3
-0.295
-0.31
-0.32
-0.325
-0.325
-0.345
-0.405
-0.455
-0.49
-0.455
-0.395
-0.31
-0.19
0.045
0.355
0.72
1.05
1.365
1.625
1.76
1.75
1.515
1.065
0.505
0.025
-0.305
-0.45
-0.48
-0.415
-0.315
-0.225
-0.21
-0.25
-0.275
-0.29
-0.275
-0.28
-0.295
-0.315
-0.325
-0.33
-0.325
-0.33
-0.34
-0.36
-0.355
-0.345
-0.35
-0.355
-0.35
-0.365
-0.36
-0.35
-0.35
-0.36
-0.36
-0.365
-0.37
-0.365
-0.35
-0.335
-0.335
-0.36
-0.345
-0.355
-0.345
-0.37
-0.365
-0.345
-0.345
-0.335
-0.325
-0.315
-0.33
-0.33
-0.315
-0.315
-0.31
-0.32
-0.31
-0.295
-0.29
-0.275
-0.26
-0.255
-0.25
-0.235
-0.215
-0.19
-0.175
-0.165
-0.17
-0.155
-0.135
-0.12
-0.095
-0.085
-0.065
-0.065
-0.04
-0.02
-0.005
0.01
0.005
0.01
0.035
0.07
0.08
0.095
0.09
0.09
0.1
0.115
0.12
0.13
0.13
0.125
0.14
0.15
0.145
0.12
0.115
0.1
0.095
0.09
0.08
0.06
0.035
0.01
-0.01
-0.015
-0.035
-0.075
-0.095
-0.12
-0.12
-0.125
-0.135
-0.145
-0.15
-0.19
-0.185
-0.185
-0.18
-0.195
-0.195
-0.21
-0.205
-0.22
-0.2
-0.21
-0.235
-0.235
-0.225
-0.215
-0.21
-0.215
-0.22
-0.245
-0.235
-0.23
-0.215
-0.22
-0.22
-0.24
-0.225
-0.22
-0.2
-0.215
-0.21
-0.215
-0.205
-0.185
-0.18
-0.19
-0.19
-0.2
-0.19
-0.185
-0.19
-0.19
-0.195
-0.195
-0.185
-0.175
-0.16
-0.18
-0.195
-0.22
-0.205
-0.195
-0.19
-0.185
-0.185
-0.205
-0.205
-0.2
-0.195
-0.205
-0.215
-0.22
-0.215
-0.195
-0.195
-0.205
-0.205
-0.235
-0.235
-0.225
-0.215
-0.225
-0.225
-0.25
-0.255
-0.23
-0.235
-0.235
-0.25
-0.265
-0.27
-0.255
-0.245
-0.255
-0.27
-0.28
-0.275
-0.285
-0.27
-0.28
-0.295
-0.28
-0.29
-0.285
-0.28
-0.285
-0.295
-0.31
-0.3
-0.295
-0.285
-0.28
-0.29
-0.29
-0.295
-0.28
-0.27
-0.265
-0.27
-0.255
-0.235
-0.22
-0.205
-0.205
-0.22
-0.225
-0.225
-0.215
-0.195
-0.19
-0.19
-0.2
-0.2
-0.19
-0.19
-0.185
-0.205
-0.215
-0.235
-0.215
-0.23
-0.24
-0.245
-0.255
-0.245
-0.24
-0.225
-0.24
-0.265
-0.27
-0.29
-0.29
-0.305
-0.33
-0.33
-0.345
-0.35
-0.345
-0.345
-0.355
-0.36
-0.38
-0.38
-0.37
-0.365
-0.37
-0.385
-0.39
-0.385
-0.37
-0.365
-0.375
-0.37
-0.395
-0.385
-0.38
-0.375
-0.385
-0.385
-0.405
-0.445
-0.51
-0.55
-0.545
-0.51
-0.445
-0.31
-0.09
0.235
0.625
0.995
1.32
1.61
1.76
1.78
1.595
1.185
0.625
0.09
-0.28
-0.48
-0.55
-0.535
-0.465
-0.355
-0.28
-0.29
-0.33
-0.37
-0.39
-0.385
-0.385
-0.385
-0.41
-0.425
-0.45
-0.445
-0.45
-0.44
-0.45
-0.455
-0.465
-0.465
-0.46
-0.45
-0.46
-0.465
-0.475
-0.47
-0.46
-0.455
-0.455
-0.465
-0.475
-0.48
-0.46
-0.455
-0.46
-0.45
-0.46
-0.45
-0.45
-0.45
-0.45
-0.44
-0.44
-0.435
-0.42
-0.41
-0.415
-0.41
-0.425
-0.41
-0.39
-0.39
-0.375
-0.37
-0.37
-0.35
-0.33
-0.305
-0.31
-0.295
-0.29
-0.265
-0.235
-0.215
-0.21
-0.19
-0.185
-0.17
-0.14
-0.12
-0.12
-0.09
-0.085
-0.06
-0.035
-0.02
-0.015
-0.005
-0.005
0.0
0.035
0.045
0.05
0.04
0.03
0.04
0.025
0.04
0.025
0.015
0.005
-0.005
-0.03
-0.04
-0.06
-0.09
-0.11
-0.125
-0.135
-0.155
-0.175
-0.21
-0.24
-0.25
-0.26
-0.255
-0.275
-0.29
-0.31
-0.32
-0.31
-0.325
-0.315
-0.34
-0.35
-0.35
-0.335
-0.34
-0.34
-0.35
-0.365
-0.355
-0.345
-0.355
-0.365
-0.365
-0.36
-0.36
-0.34
-0.34
-0.35
-0.35
-0.35
-0.34
-0.34
-0.345
-0.34
-0.34
-0.355
-0.335
-0.325
-0.335
-0.34
-0.325
-0.34
-0.325
-0.32
-0.315
-0.32
-0.33
-0.33
-0.325
-0.315
-0.32
-0.32
-0.325
-0.34
-0.33
-0.325
-0.315
-0.325
-0.34
-0.355
-0.34
-0.335
-0.325
-0.33
-0.33
-0.335
-0.33
-0.325
-0.33
-0.34
-0.355
-0.365
-0.355
-0.35
-0.36
-0.365
-0.365
-0.375
-0.38
-0.38
-0.37
-0.375
-0.375
-0.395
-0.395
-0.38
-0.385
-0.385
-0.405
-0.41
-0.4
-0.395
-0.39
-0.39
-0.4
-0.42
-0.405
-0.405
-0.4
-0.405
-0.43
-0.425
-0.41
-0.4
-0.405
-0.41
-0.41
-0.41
-0.395
-0.365
-0.34
-0.345
-0.345
-0.35
-0.345
-0.33
-0.325
-0.325
-0.325
-0.325
-0.32
-0.305
-0.3
-0.305
-0.305
-0.3
-0.305
-0.3
-0.3
-0.32
-0.345
-0.37
-0.37
-0.35
-0.335
-0.345
-0.35
-0.36
-0.375
-0.385
-0.38
-0.4
-0.41
-0.43
-0.43
-0.44
-0.43
-0.445
-0.465
-0.47
-0.47
-0.47
-0.465
-0.475
-0.49
-0.495
-0.49
-0.485
-0.465
-0.475
-0.48
-0.495
-0.485
-0.485
-0.475
-0.48
-0.485
-0.495
-0.495
-0.51
-0.555
-0.63
-0.7
-0.695
-0.63
-0.53
-0.345
-0.035
0.37
0.8
1.21
1.555
1.785
1.855
1.775
1.465
0.92
0.29
-0.235
-0.545
-0.65
-0.65
-0.595
-0.5
-0.4
-0.36
-0.38
-0.43
-0.45
-0.455
-0.455
-0.45
-0.47
-0.49
-0.495
-0.505
-0.505
-0.515
-0.525
-0.54
-0.53
-0.53
-0.525
-0.53
-0.54
-0.545
-0.54
-0.53
-0.535
-0.54
-0.545
-0.545
-0.54
-0.53
-0.54
-0.53
-0.535
-0.545
-0.53
-0.51
-0.515
-0.505
-0.51
-0.525
-0.51
-0.51
-0.495
-0.495
-0.505
-0.5
-0.485
-0.48
-0.465
-0.465
-0.46
-0.46
-0.45
-0.445
-0.435
-0.42
-0.405
-0.41
-0.39
-0.375
-0.355
-0.345
-0.33
-0.325
-0.305
-0.265
-0.25
-0.245
-0.23
-0.205
-0.19
-0.175
-0.14
-0.13
-0.115
-0.105
-0.08
-0.065
-0.045
-0.045
-0.04
-0.035
-0.01
0.015
0.015
0.02
0.015
0.01
0.02
0.03
0.03
0.03
0.015
-0.005
-0.01
-0.02
-0.035
-0.055
-0.095
-0.12
-0.14
-0.14
-0.165
-0.19
-0.215
-0.24
-0.26
-0.275
-0.29
-0.31
-0.32
-0.34
-0.345
-0.345
-0.35
-0.365
-0.37
-0.37
-0.375
-0.375
-0.365
-0.37
-0.385
-0.39
-0.395
-0.375
-0.375
-0.37
-0.365
-0.375
-0.365
-0.36
-0.355
-0.35
-0.365
-0.375
-0.365
-0.36
-0.35
-0.35
-0.35
-0.355
-0.35
-0.34
-0.335
-0.34
-0.345
-0.37
-0.35
-0.335
-0.335
-0.34
-0.35
-0.345
-0.35
-0.34
-0.33
-0.335
-0.35
-0.355
-0.35
-0.33
-0.33
-0.335
-0.35
-0.375
-0.35
-0.345
-0.335
-0.34
-0.36
-0.37
-0.37
-0.355
-0.35
-0.37
-0.37
-0.375
-0.37
-0.355
-0.36
-0.375
-0.39
-0.41
-0.4
-0.385
-0.38
-0.38
-0.39
-0.41
-0.41
-0.405
-0.4
-0.395
-0.415
-0.42
-0.415
-0.4
-0.395
-0.405
-0.4
-0.415
-0.415
-0.41
-0.41
-0.4
-0.425
-0.425
-0.42
-0.405
-0.4
-0.39
-0.375
-0.365
-0.35
-0.345
-0.335
-0.34
-0.335
-0.345
-0.325
-0.315
-0.305
-0.305
-0.315
-0.315
-0.305
-0.295
-0.29
-0.305
-0.32
-0.34
-0.35
-0.365
-0.365
-0.355
-0.365
-0.355
-0.34
-0.345
-0.345
-0.365
-0.39
-0.41
-0.415
-0.405
-0.415
-0.43
-0.44
-0.45
-0.46
-0.465
-0.47
-0.49
-0.49
-0.5
-0.485
-0.48
-0.485
-0.48
-0.49
-0.505
-0.5
-0.5
-0.485
-0.485
-0.485
-0.49
-0.495
-0.48
-0.475
-0.485
-0.51
-0.55
-0.61
-0.665
-0.685
-0.66
-0.62
-0.545
-0.41
-0.16
0.165
0.535
0.885
1.225
1.56
1.775
1.85
1.775
1.505
1.015
0.425
-0.09
-0.43
-0.61
-0.645
-0.63
-0.585
-0.495
-0.405
-0.37
-0.395
-0.44
-0.465
-0.46
-0.46
-0.46
-0.47
-0.505
-0.51
-0.515
-0.515
-0.53
-0.53
-0.55
-0.535
-0.535
-0.54
-0.54
-0.555
-0.555
-0.56
-0.535
-0.55
-0.54
-0.555
-0.565
-0.565
-0.55
-0.535
-0.535
-0.54
-0.54
-0.535
-0.525
-0.52
-0.525
-0.545
-0.54
-0.53
-0.52
-0.515
-0.51
-0.51
-0.525
-0.525
-0.5
-0.495
-0.5
-0.5
-0.505
-0.485
-0.47
-0.46
-0.44
-0.455
-0.445
-0.45
-0.43
-0.415
-0.405
-0.39
-0.385
-0.365
-0.35
-0.33
-0.31
-0.3
-0.3
-0.275
-0.26
-0.23
-0.215
-0.205
-0.19
-0.17
-0.155
-0.135
-0.14
-0.115
-0.115
-0.075
-0.06
-0.055
-0.05
-0.045
-0.04
-0.035
-0.02
-0.005
0.015
0.02
0.005
0.0
0.015
0.005
-0.005
-0.02
-0.045
-0.04
-0.055
-0.055
-0.075
-0.11
-0.14
-0.155
-0.175
-0.185
-0.21
-0.235
-0.255
-0.28
-0.28
-0.295
-0.31
-0.335
-0.345
-0.36
-0.35
-0.35
-0.365
-0.375
-0.39
-0.395
-0.38
-0.375
-0.39
-0.4
-0.415
-0.4
-0.39
-0.38
-0.39
-0.385
-0.405
-0.405
-0.395
-0.39
-0.38
-0.39
-0.39
-0.375
-0.375
-0.36
-0.36
-0.37
-0.375
-0.36
-0.355
-0.355
-0.35
-0.355
-0.365
-0.365
-0.35
-0.35
-0.345
-0.35
-0.365
-0.35
-0.34
-0.34
-0.34
-0.375
-0.38
-0.38
-0.365
-0.35
-0.345
-0.36
-0.375
-0.37
-0.365
-0.365
-0.375
-0.375
-0.385
-0.385
-0.375
-0.375
-0.38
-0.385
-0.405
-0.395
-0.385
-0.385
-0.395
-0.4
-0.42
-0.415
-0.405
-0.4
-0.41
-0.41
-0.43
-0.425
-0.42
-0.41
-0.415
-0.435
-0.435
-0.43
-0.44
-0.43
-0.44
-0.435
-0.455
-0.445
-0.45
-0.435
-0.425
-0.445
-0.445
-0.43
-0.425
-0.42
-0.415
-0.405
-0.395
-0.385
-0.375
-0.37
-0.375
-0.375
-0.375
-0.37
-0.35
-0.345
-0.335
-0.35
-0.35
-0.335
-0.315
-0.33
-0.325
-0.345
-0.375
-0.37
-0.385
-0.39
-0.39
-0.41
-0.405
-0.395
-0.375
-0.385
-0.385
-0.4
-0.425
-0.43
-0.435
-0.445
-0.46
-0.465
-0.495
-0.49
-0.49
-0.475
-0.49
-0.515
-0.52
-0.525
-0.52
-0.52
-0.52
-0.52
-0.525
-0.53
-0.505
-0.505
-0.51
-0.51
-0.535
-0.525
-0.52
-0.515
-0.51
-0.525
-0.54
-0.585
-0.635
-0.675
-0.695
-0.66
-0.615
-0.52
-0.345
-0.045
0.345
0.735
1.095
1.445
1.665
1.75
1.655
1.285
0.715
0.115
-0.32
-0.565
-0.655
-0.68
-0.65
-0.55
-0.44
-0.395
-0.415
-0.47
-0.49
-0.485
-0.48
-0.48
-0.475
-0.49
-0.51
-0.51
-0.52
-0.515
-0.53
-0.54
-0.55
-0.545
-0.53
-0.535
-0.52
-0.55
-0.55
-0.54
-0.54
-0.53
-0.535
-0.54
-0.57
-0.555
-0.54
-0.525
-0.53
-0.53
-0.545
-0.535
-0.52
-0.505
-0.515
-0.525
-0.535
-0.515
-0.5
-0.51
-0.5
-0.495
-0.505
-0.485
-0.475
-0.47
-0.47
-0.47
-0.47
-0.45
-0.43
-0.415
-0.405
-0.405
-0.405
-0.39
-0.365
-0.345
-0.32
-0.31
-0.305
-0.285
-0.265
-0.23
-0.21
-0.225
-0.215
-0.185
-0.145
-0.135
-0.125
-0.115
-0.115
-0.095
-0.075
-0.055
-0.055
-0.055
-0.05
-0.035
-0.025
-0.025
-0.03
-0.035
-0.04
-0.04
-0.04
-0.055
-0.075
-0.105
-0.14
-0.155
-0.155
-0.165
-0.195
-0.225
-0.265
-0.275
-0.28
-0.295
-0.32
-0.325
-0.345
-0.345
-0.345
-0.34
-0.345
-0.35
-0.36
-0.365
-0.375
-0.355
-0.365
-0.375
-0.4
-0.38
-0.375
-0.37
-0.375
-0.375
-0.375
-0.375
-0.36
-0.355
-0.35
-0.355
-0.365
-0.355
-0.36
-0.35
-0.33
-0.345
-0.345
-0.345
-0.335
-0.33
-0.35
-0.34
-0.345
-0.325
-0.32
-0.32
-0.33
-0.325
-0.33
-0.33
-0.325
-0.31
-0.32
-0.325
-0.34
-0.345
-0.34
-0.34
-0.35
-0.35
-0.365
-0.345
-0.335
-0.34
-0.35
-0.365
-0.365
-0.36
-0.37
-0.35
-0.355
-0.365
-0.38
-0.395
-0.37
-0.37
-0.365
-0.39
-0.4
-0.395
-0.39
-0.39
-0.39
-0.4
-0.4
-0.4
-0.405
-0.405
-0.4
-0.42
-0.425
-0.41
-0.41
-0.395
-0.405
-0.415
-0.435
-0.435
-0.415
-0.425
-0.415
-0.405
-0.42
-0.41
-0.405
-0.405
-0.39
-0.39
-0.375
-0.36
-0.34
-0.34
-0.34
-0.345
-0.355
-0.34
-0.33
-0.31
-0.32
-0.33
-0.33
-0.325
-0.31
-0.31
-0.31
-0.335
-0.35
-0.36
-0.36
-0.37
-0.365
-0.375
-0.37
-0.36
-0.36
-0.35
-0.37
-0.385
-0.415
-0.42
-0.42
-0.43
-0.44
-0.45
-0.465
-0.45
-0.455
-0.46
-0.47
-0.475
-0.49
-0.49
-0.485
-0.48
-0.48
-0.48
-0.485
-0.48
-0.48
-0.475
-0.475
-0.48
-0.485
-0.485
-0.465
-0.46
-0.47
-0.49
-0.535
-0.595
-0.615
-0.595
-0.545
-0.485
-0.355
-0.075
0.28
0.655
1.01
1.34
1.54
1.615
1.475
1.045
0.48
-0.06
-0.45
-0.62
-0.655
-0.62
-0.515
-0.425
-0.405
-0.43
-0.46
-0.47
-0.475
-0.47
-0.475
-0.48
-0.495
-0.515
-0.515
-0.525
-0.535
-0.52
-0.52
-0.51
-0.525
-0.54
-0.54
-0.54
-0.535
-0.535
-0.53
-0.53
-0.54
-0.53
-0.53
-0.53
-0.53
-0.54
-0.545
-0.525
-0.53
-0.515
-0.52
-0.525
-0.525
-0.515
-0.505
-0.5
-0.5
-0.49
-0.495
-0.495
-0.475
-0.47
-0.465
-0.475
-0.475
-0.455
-0.42
-0.41
-0.4
-0.395
-0.395
-0.37
-0.35
-0.325
-0.305
-0.295
-0.285
-0.25
-0.23
-0.205
-0.185
-0.18
-0.165
-0.14
-0.125
-0.11
-0.1
-0.095
-0.105
-0.07
-0.045
-0.035
-0.02
-0.025
-0.03
-0.03
-0.03
-0.02
-0.025
-0.04
-0.065
-0.065
-0.085
-0.095
-0.13
-0.14
-0.18
-0.195
-0.205
-0.22
-0.24
-0.27
-0.285
-0.295
-0.295
-0.295
-0.315
-0.335
-0.34
-0.35
-0.345
-0.34
-0.345
-0.355
-0.365
-0.36
-0.36
-0.355
-0.36
-0.375
-0.365
-0.36
-0.345
-0.35
-0.35
-0.36
-0.37
-0.35
-0.35
-0.33
-0.325
-0.33
-0.335
-0.335
-0.325
-0.32
-0.33
-0.335
-0.335
-0.315
-0.305
-0.305
-0.3
-0.32
-0.33
-0.325
-0.31
-0.31
-0.31
-0.31
-0.315
-0.32
-0.3
-0.295
-0.31
-0.32
-0.33
-0.32
-0.315
-0.3
-0.31
-0.315
-0.335
-0.32
-0.33
-0.33
-0.325
-0.34
-0.335
-0.335
-0.335
-0.335
-0.35
-0.36
-0.365
-0.36
-0.355
-0.345
-0.35
-0.37
-0.38
-0.375
-0.36
-0.365
-0.37
-0.385
-0.375
-0.38
-0.38
-0.38
-0.385
-0.4
-0.4
-0.395
-0.39
-0.39
-0.385
-0.405
-0.405
-0.405
-0.395
-0.39
-0.395
-0.4
-0.4
-0.39
-0.37
-0.355
-0.35
-0.335
-0.335
-0.32
-0.31
-0.3
-0.31
-0.315
-0.31
-0.295
-0.285
-0.3
-0.3
-0.29
-0.285
-0.295
-0.285
-0.305
-0.325
-0.335
-0.36
-0.355
-0.34
-0.315
-0.31
-0.315
-0.34
-0.36
-0.37
-0.38
-0.38
-0.395
-0.43
-0.42
-0.43
-0.425
-0.43
-0.45
-0.465
-0.46
-0.45
-0.45
-0.45
-0.455
-0.475
-0.47
-0.46
-0.45
-0.455
-0.465
-0.475
-0.465
-0.455
-0.455
-0.46
-0.465
-0.47
-0.46
-0.46
-0.48
-0.545
-0.625
-0.665
-0.625
-0.54
-0.425
-0.215
0.13
0.565
1.005
1.41
1.715
1.86
1.81
1.48
0.88
0.24
-0.325
-0.59
-0.64
-0.61
-0.53
-0.42
-0.35
-0.375
-0.415
-0.445
-0.445
-0.45
-0.435
-0.44
-0.48
-0.49
-0.495
-0.49
-0.495
-0.505
-0.515
-0.52
-0.51
-0.505
-0.5
-0.5
-0.515
-0.51
-0.51
-0.5
-0.5
-0.48
-0.505
-0.51
-0.515
-0.49
-0.485
-0.49
-0.495
-0.495
-0.49
-0.48
-0.47
-0.465
-0.475
-0.48
-0.47
-0.45
-0.45
-0.44
-0.455
-0.44
-0.435
-0.42
-0.4
-0.4
-0.395
-0.38
-0.365
-0.35
-0.34
-0.325
-0.31
-0.3
-0.275
-0.245
-0.225
-0.21
-0.185
-0.185
-0.16
-0.135
-0.11
-0.1
-0.085
-0.08
-0.06
-0.03
-0.015
-0.015
-0.01
0.005
0.025
0.04
0.045
0.06
0.045
0.045
0.05
0.06
0.05
0.045
0.03
0.01
0.0
-0.02
-0.035
-0.06
-0.085
-0.105
-0.13
-0.135
-0.16
-0.18
-0.22
-0.245
-0.25
-0.255
-0.27
-0.285
-0.305
-0.32
-0.315
-0.315
-0.31
-0.33
-0.335
-0.355
-0.35
-0.355
-0.345
-0.355
-0.35
-0.35
-0.355
-0.35
-0.355
-0.35
-0.35
-0.36
-0.35
-0.34
-0.34
-0.345
-0.345
-0.345
-0.345
-0.335
-0.325
-0.325
-0.335
-0.335
-0.325
-0.315
-0.31
-0.31
-0.32
-0.32
-0.315
-0.295
-0.305
-0.31
-0.32
-0.31
-0.32
-0.305
-0.31
-0.3
-0.31
-0.31
-0.305
-0.295
-0.295
-0.305
-0.31
-0.32
-0.31
-0.305
-0.3
-0.305
-0.31
-0.32
-0.315
-0.3
-0.305
-0.305
-0.305
-0.32
-0.315
-0.32
-0.31
-0.33
-0.33
-0.34
-0.335
-0.335
-0.34
-0.33
-0.34
-0.355
-0.35
-0.355
-0.34
-0.35
-0.35
-0.365
-0.35
-0.355
-0.35
-0.375
-0.37
-0.38
-0.37
-0.37
-0.365
-0.365
-0.37
-0.375
-0.375
-0.375
-0.37
-0.365
-0.37
-0.375
-0.38
-0.36
-0.36
-0.355
-0.365
-0.355
-0.335
-0.305
-0.295
-0.285
-0.3
-0.31
-0.295
-0.28
-0.26
-0.25
-0.265
-0.28
-0.26
-0.255
-0.245
-0.26
-0.28
-0.29
-0.295
-0.31
-0.31
-0.3
-0.31
-0.305
-0.305
-0.305
-0.325
-0.345
-0.355
-0.365
-0.385
-0.385
-0.385
-0.395
-0.41
-0.425
-0.425
-0.425
-0.42
-0.425
-0.43
-0.435
-0.43
-0.415
-0.42
-0.425
-0.43
-0.445
-0.445
-0.425
-0.42
-0.42
-0.43
-0.425
-0.425
-0.425
-0.43
-0.475
-0.55
-0.605
-0.585
-0.51
-0.43
-0.305
-0.04
0.345
0.78
1.205
1.58
1.84
1.94
1.835
1.45
0.815
0.175
-0.305
-0.54
-0.575
-0.54
-0.475
-0.39
-0.33
-0.34
-0.365
-0.395
-0.4
-0.4
-0.39
-0.415
-0.43
-0.45
-0.445
-0.445
-0.445
-0.46
-0.46
-0.46
-0.45
-0.445
-0.475
-0.475
-0.475
-0.455
-0.44
-0.44
-0.465
-0.455
-0.455
-0.46
-0.445
-0.44
-0.43
-0.445
-0.45
-0.44
-0.43
-0.43
-0.425
-0.435
-0.435
-0.42
-0.405
-0.39
-0.405
-0.41
-0.42
-0.4
-0.38
-0.37
-0.36
-0.355
-0.37
-0.35
-0.335
-0.315
-0.305
-0.305
-0.28
-0.26
-0.235
-0.225
-0.205
-0.2
-0.19
-0.17
-0.14
-0.125
-0.095
-0.08
-0.085
-0.05
-0.03
-0.015
0.005
0.005
0.015
0.035
0.05
0.07
0.07
0.085
0.085
0.095
0.095
0.115
0.11
0.11
0.1
0.105
0.1
0.1
0.07
0.05
0.03
0.02
0.0
-0.015
-0.045
-0.065
-0.105
-0.13
-0.13
-0.15
-0.19
-0.2
-0.215
-0.22
-0.235
-0.23
-0.25
-0.27
-0.28
-0.275
-0.265
-0.265
-0.285
-0.295
-0.295
-0.295
-0.29
-0.295
-0.3
-0.3
-0.295
-0.295
-0.29
-0.285
-0.295
-0.3
-0.31
-0.295
-0.29
-0.28
-0.28
-0.28
-0.29
-0.29
-0.285
-0.275
-0.275
-0.275
-0.28
-0.28
-0.26
-0.26
-0.25
-0.26
-0.27
-0.265
-0.26
-0.25
-0.25
-0.26
-0.265
-0.255
-0.25
-0.255
-0.245
-0.26
-0.26
-0.255
-0.235
-0.25
-0.245
-0.26
-0.265
-0.255
-0.245
-0.255
-0.265
-0.26
-0.27
-0.265
-0.26
-0.265
-0.26
-0.265
-0.29
-0.28
-0.275
-0.275
-0.275
-0.28
-0.3
-0.285
-0.285
-0.295
-0.29
-0.3
-0.315
-0.305
-0.31
-0.305
-0.305
-0.315
-0.335
-0.32
-0.32
-0.31
-0.315
-0.34
-0.335
-0.335
-0.335
-0.33
-0.33
-0.33
-0.335
-0.34
-0.325
-0.325
-0.32
-0.34
-0.35
-0.33
-0.32
-0.32
-0.31
-0.325
-0.33
-0.325
-0.325
-0.325
-0.305
-0.3
-0.305
-0.27
-0.245
-0.245
-0.25
-0.25
-0.26
-0.24
-0.23
-0.21
-0.21
-0.225
-0.225
-0.215
-0.22
-0.21
-0.215
-0.24
-0.25
-0.265
-0.26
-0.275
-0.25
-0.26
-0.26
-0.255
-0.25
