Lead II
-0.3
-0.3
-0.31
-0.33
-0.31
-0.305
-0.305
-0.305
-0.3
-0.295
-0.31
-0.305
-0.305
-0.31
-0.315
-0.31
-0.315
-0.31
-0.29
-0.285
-0.275
-0.27
-0.26
-0.275
-0.275
-0.28
-0.29
-0.285
-0.27
-0.255
-0.25
-0.245
-0.24
-0.24
-0.22
-0.215
-0.22
-0.225
-0.21
-0.21
-0.205
-0.205
-0.205
-0.2
-0.195
-0.185
-0.175
-0.175
-0.18
-0.185
-0.185
-0.18
-0.185
-0.17
-0.165
-0.145
-0.135
-0.15
-0.15
-0.155
-0.15
-0.16
-0.175
-0.18
-0.19
-0.195
-0.205
-0.2
-0.195
-0.215
-0.215
-0.225
-0.23
-0.245
-0.26
-0.265
-0.26
-0.275
-0.27
-0.26
-0.26
-0.26
-0.26
-0.27
-0.28
-0.28
-0.29
-0.295
-0.285
-0.285
-0.275
-0.275
-0.275
-0.255
-0.26
-0.27
-0.275
-0.28
-0.305
-0.305
-0.3
-0.305
-0.28
-0.28
-0.27
-0.26
-0.265
-0.25
-0.265
-0.26
-0.27
-0.275
-0.27
-0.26
-0.25
-0.245
-0.23
-0.215
-0.225
-0.22
-0.225
-0.24
-0.245
-0.255
-0.26
-0.265
-0.25
-0.23
-0.225
-0.22
-0.22
-0.225
-0.235
-0.24
-0.23
-0.235
-0.23
-0.23
-0.235
-0.235
-0.235
-0.235
-0.235
-0.225
-0.235
-0.245
-0.26
-0.26
-0.27
-0.27
-0.265
-0.26
-0.265
-0.26
-0.265
-0.26
-0.27
-0.265
-0.265
-0.27
-0.275
-0.27
-0.27
-0.27
-0.275
-0.285
-0.275
-0.275
-0.28
-0.285
-0.285
-0.285
-0.275
-0.275
-0.275
-0.285
-0.275
-0.265
-0.26
-0.265
-0.255
-0.275
-0.275
-0.28
-0.26
-0.26
-0.26
-0.27
-0.265
-0.275
-0.275
-0.285
-0.28
-0.28
-0.295
-0.295
-0.275
-0.27
-0.26
-0.26
-0.26
-0.25
-0.265
-0.265
-0.27
-0.275
-0.28
-0.27
-0.275
-0.27
-0.265
-0.27
-0.26
-0.24
-0.25
-0.26
-0.255
-0.255
-0.28
-0.27
-0.27
-0.275
-0.27
-0.265
-0.26
-0.24
-0.245
-0.25
-0.25
-0.255
-0.265
-0.28
-0.28
-0.27
-0.255
-0.25
-0.27
-0.26
-0.26
-0.265
-0.265
-0.265
-0.27
-0.27
-0.265
-0.245
-0.24
-0.24
-0.245
-0.245
-0.23
-0.21
-0.21
-0.21
-0.205
-0.18
-0.185
-0.165
-0.155
-0.135
-0.125
-0.11
-0.105
-0.105
-0.12
-0.145
-0.14
-0.155
-0.16
-0.175
-0.16
-0.155
-0.165
-0.165
-0.18
-0.185
-0.21
-0.21
-0.22
-0.23
-0.23
-0.24
-0.24
-0.255
-0.255
-0.26
-0.265
-0.265
-0.265
-0.255
-0.255
-0.255
-0.245
-0.24
-0.23
-0.205
-0.19
-0.165
-0.155
-0.145
-0.135
-0.13
-0.11
-0.11
-0.09
-0.06
-0.03
0.01
0.045
0.09
0.14
0.18
0.22
0.255
0.275
0.305
0.33
0.37
0.435
0.525
0.665
0.8
0.96
1.12
1.29
1.375
1.415
1.35
1.21
0.995
0.69
0.345
-0.03
-0.42
-0.73
-0.915
-0.955
-0.88
-0.76
-0.61
-0.47
-0.365
-0.29
-0.265
-0.265
-0.285
-0.305
-0.325
-0.34
-0.33
-0.33
-0.32
-0.325
-0.32
-0.315
-0.305
-0.29
-0.285
-0.305
-0.305
-0.295
-0.315
-0.315
-0.32
-0.32
-0.32
-0.31
-0.3
-0.305
-0.3
-0.29
-0.295
-0.32
-0.32
-0.315
-0.315
-0.31
-0.305
-0.31
-0.285
-0.28
-0.28
-0.29
-0.29
-0.305
-0.29
-0.29
-0.3
-0.295
-0.285
-0.285
-0.275
-0.255
-0.245
-0.24
-0.25
-0.245
-0.245
-0.25
-0.24
-0.235
-0.23
-0.235
-0.225
-0.215
-0.23
-0.205
-0.2
-0.2
-0.205
-0.205
-0.2
-0.205
-0.2
-0.205
-0.195
-0.175
-0.17
-0.175
-0.155
-0.16
-0.16
-0.16
-0.17
-0.165
-0.17
-0.16
-0.165
-0.165
-0.175
-0.18
-0.19
-0.21
-0.21
-0.23
-0.235
-0.24
-0.23
-0.225
-0.225
-0.225
-0.235
-0.245
-0.265
-0.27
-0.265
-0.275
-0.28
-0.275
-0.265
-0.265
-0.255
-0.255
-0.255
-0.26
-0.265
-0.275
-0.285
-0.275
-0.275
-0.275
-0.275
-0.27
-0.26
-0.25
-0.25
-0.26
-0.26
-0.25
-0.26
-0.245
-0.245
-0.255
-0.24
-0.24
-0.225
-0.215
-0.22
-0.21
-0.215
-0.215
-0.225
-0.23
-0.23
-0.225
-0.23
-0.22
-0.215
-0.21
-0.21
-0.2
-0.215
-0.225
-0.235
-0.245
-0.245
-0.235
-0.235
-0.225
-0.22
-0.22
-0.21
-0.215
-0.22
-0.23
-0.24
-0.245
-0.245
-0.245
-0.24
-0.24
-0.24
-0.25
-0.23
-0.235
-0.25
-0.24
-0.255
-0.27
-0.265
-0.27
-0.27
-0.26
-0.265
-0.27
-0.275
-0.255
-0.265
-0.265
-0.29
-0.275
-0.28
-0.275
-0.265
-0.275
-0.275
-0.26
-0.25
-0.255
-0.255
-0.265
-0.26
-0.26
-0.265
-0.285
-0.285
-0.275
-0.27
-0.265
-0.255
-0.25
-0.255
-0.25
-0.26
-0.27
-0.26
-0.265
-0.26
-0.25
-0.24
-0.24
-0.25
-0.235
-0.245
-0.25
-0.25
-0.24
-0.25
-0.25
-0.25
-0.255
-0.25
-0.24
-0.24
-0.245
-0.255
-0.26
-0.25
-0.25
-0.255
-0.26
-0.25
-0.24
-0.235
-0.23
-0.24
-0.24
-0.25
-0.25
-0.255
-0.255
-0.25
-0.245
-0.25
-0.25
-0.245
-0.235
-0.24
-0.23
-0.22
-0.23
-0.235
-0.25
-0.245
-0.25
-0.23
-0.23
-0.22
-0.215
-0.2
-0.215
-0.21
-0.22
-0.225
-0.22
-0.22
-0.205
-0.2
-0.18
-0.16
-0.145
-0.135
-0.135
-0.135
-0.125
-0.125
-0.12
-0.105
-0.09
-0.095
-0.09
-0.1
-0.095
-0.095
-0.11
-0.115
-0.13
-0.15
-0.155
-0.17
-0.18
-0.19
-0.19
-0.19
-0.185
-0.19
-0.195
-0.195
-0.21
-0.245
-0.255
-0.27
-0.275
-0.275
-0.255
-0.26
-0.245
-0.23
-0.23
-0.225
-0.22
-0.21
-0.2
-0.18
-0.175
-0.15
-0.13
-0.105
-0.075
-0.055
-0.03
-0.015
0.005
0.03
0.07
0.1
0.135
0.19
0.24
0.285
0.305
0.33
0.345
0.375
0.415
0.5
0.6
0.72
0.86
1.04
1.225
1.405
1.54
1.615
1.585
1.455
1.205
0.855
0.44
-0.02
-0.455
-0.755
-0.925
-0.945
-0.86
-0.72
-0.575
-0.435
-0.325
-0.27
-0.225
-0.235
-0.245
-0.25
-0.275
-0.27
-0.27
-0.27
-0.265
-0.26
-0.25
-0.245
-0.245
-0.24
-0.25
-0.255
-0.245
-0.235
-0.225
-0.225
-0.215
-0.225
-0.225
-0.25
-0.25
-0.245
-0.245
-0.25
-0.25
-0.25
-0.235
-0.245
-0.23
-0.24
-0.24
-0.25
-0.26
-0.27
-0.275
-0.27
-0.26
-0.24
-0.245
-0.235
-0.225
-0.225
-0.23
-0.235
-0.235
-0.24
-0.24
-0.23
-0.225
-0.21
-0.205
-0.2
-0.19
-0.205
-0.21
-0.205
-0.225
-0.215
-0.22
-0.21
-0.205
-0.2
-0.19
-0.195
-0.195
-0.21
-0.2
-0.2
-0.195
-0.18
-0.175
-0.175
-0.165
-0.165
-0.145
-0.14
-0.13
-0.125
-0.135
-0.135
-0.135
-0.14
-0.15
-0.15
-0.135
-0.14
-0.145
-0.14
-0.155
-0.16
-0.17
-0.175
-0.205
-0.215
-0.2
-0.2
-0.2
-0.205
-0.195
-0.2
-0.205
-0.215
-0.22
-0.225
-0.225
-0.225
-0.235
-0.245
-0.225
-0.23
-0.215
-0.215
-0.21
-0.205
-0.225
-0.225
-0.215
-0.22
-0.22
-0.21
-0.205
-0.195
-0.19
-0.2
-0.195
-0.19
-0.2
-0.2
-0.205
-0.2
-0.195
-0.185
-0.185
-0.18
-0.17
-0.165
-0.16
-0.16
-0.175
-0.18
-0.19
-0.205
-0.195
-0.185
-0.175
-0.165
-0.17
-0.17
-0.175
-0.185
-0.195
-0.2
-0.195
-0.2
-0.195
-0.2
-0.19
-0.19
-0.185
-0.18
-0.195
-0.19
-0.2
-0.215
-0.205
-0.22
-0.23
-0.23
-0.22
-0.225
-0.215
-0.21
-0.205
-0.2
-0.21
-0.215
-0.225
-0.225
-0.235
-0.235
-0.215
-0.225
-0.215
-0.215
-0.21
-0.22
-0.225
-0.235
-0.24
-0.23
-0.24
-0.23
-0.235
-0.235
-0.23
-0.23
-0.225
-0.22
-0.22
-0.24
-0.24
-0.25
-0.25
-0.245
-0.245
-0.23
-0.22
-0.235
-0.23
-0.24
-0.235
-0.245
-0.245
-0.245
-0.255
-0.24
-0.235
-0.235
-0.225
-0.225
-0.235
-0.22
-0.235
-0.235
-0.24
-0.235
-0.25
-0.235
-0.225
-0.22
-0.21
-0.21
-0.205
-0.2
-0.215
-0.215
-0.23
-0.225
-0.225
-0.215
-0.22
-0.21
-0.205
-0.19
-0.18
-0.17
-0.17
-0.165
-0.17
-0.16
-0.145
-0.135
-0.105
-0.09
-0.065
-0.065
-0.055
-0.055
-0.075
-0.09
-0.1
-0.1
-0.12
-0.11
-0.115
-0.12
-0.115
-0.125
-0.135
-0.145
-0.155
-0.185
-0.18
-0.205
-0.21
-0.19
-0.195
-0.21
-0.21
-0.215
-0.225
-0.255
-0.255
-0.265
-0.27
-0.265
-0.275
-0.27
-0.26
-0.245
-0.24
-0.235
-0.235
-0.23
-0.23
-0.24
-0.245
-0.25
-0.245
-0.255
-0.24
-0.235
-0.225
-0.21
-0.195
-0.19
-0.195
-0.19
-0.185
-0.19
-0.19
-0.16
-0.14
-0.07
0.02
0.13
0.26
0.43
0.61
0.795
0.99
1.185
1.315
1.38
1.32
1.13
0.845
0.48
0.06
-0.405
-0.825
-1.12
-1.25
-1.21
-1.065
-0.865
-0.66
-0.48
-0.34
-0.245
-0.165
-0.155
-0.155
-0.155
-0.18
-0.195
-0.205
-0.185
-0.185
-0.17
-0.15
-0.145
-0.135
-0.13
-0.155
-0.14
-0.14
-0.15
-0.155
-0.145
-0.145
-0.13
-0.135
-0.13
-0.115
-0.115
-0.115
-0.105
-0.115
-0.115
-0.125
-0.12
-0.105
-0.1
-0.085
-0.07
-0.075
-0.075
-0.065
-0.065
-0.06
-0.06
-0.055
-0.035
-0.02
0.0
0.015
0.03
0.045
0.04
0.045
0.06
0.06
0.075
0.075
0.085
0.1
0.12
0.135
0.155
0.16
0.17
0.185
0.175
0.18
0.17
0.175
0.175
0.18
0.185
0.18
0.185
0.185
0.17
0.16
0.155
0.145
0.135
0.125
0.13
0.125
0.12
0.12
0.105
0.11
0.09
0.07
0.04
0.015
-0.005
-0.015
-0.035
-0.045
-0.055
-0.07
-0.075
-0.1
-0.115
-0.13
-0.16
-0.18
-0.185
-0.21
-0.195
-0.205
-0.205
-0.21
-0.21
-0.2
-0.205
-0.23
-0.23
-0.22
-0.22
-0.22
-0.22
-0.205
-0.21
-0.19
-0.2
-0.19
-0.195
-0.195
-0.195
-0.205
-0.2
-0.2
-0.19
-0.175
-0.17
-0.155
-0.155
-0.16
-0.165
-0.18
-0.175
-0.195
-0.185
-0.195
-0.185
-0.175
-0.175
-0.17
-0.165
-0.16
-0.17
-0.175
-0.17
-0.185
-0.195
-0.2
-0.195
-0.195
-0.195
-0.185
-0.18
-0.18
-0.19
-0.19
-0.2
-0.21
-0.22
-0.23
-0.23
-0.225
-0.22
-0.215
-0.21
-0.22
-0.215
-0.22
-0.225
-0.24
-0.245
-0.26
-0.26
-0.245
-0.255
-0.245
-0.245
-0.24
-0.24
-0.245
-0.255
-0.275
-0.28
-0.285
-0.27
-0.265
-0.27
-0.26
-0.255
-0.245
-0.255
-0.265
-0.265
-0.26
-0.265
-0.275
-0.275
-0.275
-0.27
-0.265
-0.265
-0.255
-0.255
-0.265
-0.28
-0.275
-0.29
-0.285
-0.275
-0.27
-0.265
-0.255
-0.26
-0.25
-0.255
-0.245
-0.26
-0.26
-0.26
-0.285
-0.285
-0.27
-0.28
-0.27
-0.27
-0.285
-0.285
-0.27
-0.285
-0.28
-0.275
-0.275
-0.27
-0.265
-0.265
-0.265
-0.25
-0.255
-0.245
-0.245
-0.24
-0.235
-0.23
-0.22
-0.21
-0.2
-0.195
-0.185
-0.165
-0.155
-0.135
-0.135
-0.135
-0.14
-0.15
-0.155
-0.16
-0.155
-0.15
-0.155
-0.16
-0.18
-0.185
-0.2
-0.215
-0.225
-0.255
-0.235
-0.235
-0.25
-0.255
-0.26
-0.27
-0.275
-0.29
-0.3
-0.305
-0.31
-0.31
-0.3
-0.29
-0.285
-0.28
-0.265
-0.245
-0.225
-0.21
-0.205
-0.19
-0.185
-0.165
-0.15
-0.125
-0.115
-0.075
-0.055
-0.02
0.02
0.05
0.1
0.125
0.16
0.19
0.205
0.235
0.27
0.315
0.36
0.45
0.57
0.725
0.89
1.085
1.275
1.43
1.535
1.545
1.44
1.205
0.855
0.415
-0.07
-0.55
-0.915
-1.12
-1.14
-1.03
-0.85
-0.64
-0.47
-0.35
-0.275
-0.27
-0.27
-0.305
-0.335
-0.35
-0.35
-0.355
-0.355
-0.345
-0.325
-0.315
-0.31
-0.3
-0.31
-0.31
-0.315
-0.32
-0.315
-0.32
-0.315
-0.32
-0.31
-0.31
-0.31
-0.31
-0.31
-0.295
-0.305
-0.295
-0.3
-0.3
-0.3
-0.3
-0.295
-0.28
-0.29
-0.29
-0.295
-0.3
-0.295
-0.305
-0.31
-0.3
-0.305
-0.305
-0.29
-0.275
-0.27
-0.26
-0.255
-0.265
-0.26
-0.25
-0.245
-0.24
-0.24
-0.235
-0.235
-0.22
-0.21
-0.215
-0.21
-0.215
-0.215
-0.215
-0.235
-0.225
-0.24
-0.225
-0.21
-0.205
-0.195
-0.195
-0.195
-0.18
-0.18
-0.18
-0.17
-0.19
-0.18
-0.185
-0.2
-0.195
-0.195
-0.19
-0.19
-0.205
-0.22
-0.22
-0.24
-0.24
-0.25
-0.26
-0.27
-0.265
-0.27
-0.27
-0.275
-0.285
-0.285
-0.3
-0.3
-0.315
-0.305
-0.305
-0.3
-0.3
-0.29
-0.295
-0.295
-0.3
-0.305
-0.3
-0.31
-0.3
-0.305
-0.31
-0.305
-0.3
-0.295
-0.295
-0.28
-0.295
-0.29
-0.3
-0.315
-0.305
-0.31
-0.3
-0.29
-0.29
-0.27
-0.265
-0.275
-0.265
-0.275
-0.265
-0.275
-0.285
-0.29
-0.28
-0.275
-0.275
-0.275
-0.27
-0.26
-0.265
-0.27
-0.265
-0.275
-0.27
-0.285
-0.28
-0.295
-0.29
-0.29
-0.285
-0.28
-0.265
-0.27
-0.28
-0.295
-0.295
-0.295
-0.29
-0.29
-0.28
-0.28
-0.29
-0.28
-0.285
-0.295
-0.305
-0.31
-0.32
-0.325
-0.32
-0.315
-0.315
-0.305
-0.3
-0.295
-0.3
-0.305
-0.31
-0.32
-0.33
-0.33
-0.335
-0.33
-0.32
-0.315
-0.305
-0.31
-0.305
-0.315
-0.315
-0.325
-0.33
-0.33
-0.32
-0.32
-0.315
-0.315
-0.315
-0.31
-0.32
-0.32
-0.335
-0.345
-0.34
-0.33
-0.335
-0.33
-0.31
-0.295
-0.3
-0.29
-0.3
-0.31
-0.32
-0.32
-0.32
-0.325
-0.32
-0.33
-0.325
-0.315
-0.315
-0.32
-0.315
-0.325
-0.32
-0.325
-0.33
-0.34
-0.33
-0.325
-0.335
-0.325
-0.315
-0.31
-0.315
-0.32
-0.3
-0.315
-0.315
-0.32
-0.32
-0.33
-0.32
-0.31
-0.305
-0.305
-0.305
-0.295
-0.305
-0.295
-0.28
-0.285
-0.275
-0.255
-0.23
-0.23
-0.225
-0.225
-0.195
-0.205
-0.195
-0.19
-0.185
-0.18
-0.17
-0.165
-0.175
-0.185
-0.2
-0.205
-0.21
-0.22
-0.225
-0.25
-0.25
-0.27
-0.275
-0.28
-0.27
-0.275
-0.275
-0.285
-0.305
-0.32
-0.32
-0.34
-0.34
-0.345
-0.35
-0.325
-0.305
-0.285
-0.27
-0.26
-0.25
-0.24
-0.24
-0.23
-0.215
-0.205
-0.18
-0.16
-0.135
-0.105
-0.075
-0.055
-0.035
-0.005
0.025
0.055
0.09
0.135
0.17
0.2
0.245
0.275
0.305
0.355
0.41
0.495
0.6
0.75
0.915
1.07
1.235
1.345
1.38
1.31
1.145
0.885
0.525
0.115
-0.3
-0.68
-0.915
-1.025
-0.99
-0.86
-0.685
-0.525
-0.4
-0.315
-0.28
-0.28
-0.3
-0.335
-0.36
-0.375
-0.37
-0.36
-0.36
-0.335
-0.32
-0.315
-0.325
-0.32
-0.325
-0.33
-0.33
-0.335
-0.335
-0.33
-0.33
-0.32
-0.315
-0.315
-0.335
-0.34
-0.36
-0.345
-0.345
-0.345
-0.345
-0.335
-0.33
-0.335
-0.325
-0.33
-0.33
-0.33
-0.33
-0.325
-0.325
-0.325
-0.325
-0.325
-0.315
-0.315
-0.3
-0.315
-0.305
-0.29
-0.285
-0.285
-0.3
-0.305
-0.285
-0.275
-0.27
-0.255
-0.24
-0.24
-0.24
-0.25
-0.25
-0.255
-0.255
-0.25
-0.25
-0.245
-0.245
-0.225
-0.21
-0.205
-0.21
-0.22
-0.22
-0.22
-0.215
-0.2
-0.205
-0.195
-0.19
-0.19
-0.185
-0.19
-0.195
-0.21
-0.23
-0.24
-0.25
-0.26
-0.265
-0.27
-0.26
-0.28
-0.28
-0.285
-0.29
-0.305
-0.3
-0.3
-0.3
-0.305
-0.3
-0.305
-0.295
-0.29
-0.28
-0.29
-0.29
-0.29
-0.295
-0.305
-0.3
-0.31
-0.305
-0.295
-0.295
-0.295
-0.295
-0.29
-0.29
-0.29
-0.285
-0.29
-0.29
-0.29
-0.295
-0.28
-0.28
-0.265
-0.26
-0.25
-0.24
-0.25
-0.265
-0.265
-0.275
-0.285
-0.295
-0.29
-0.275
-0.275
-0.26
-0.26
-0.25
-0.25
-0.26
-0.265
-0.27
-0.275
-0.27
-0.265
-0.265
-0.265
-0.255
-0.285
-0.285
-0.3
-0.295
-0.285
-0.28
-0.3
-0.3
-0.3
-0.305
-0.295
-0.29
-0.285
-0.275
-0.29
-0.3
-0.305
-0.315
-0.315
-0.33
-0.325
-0.32
-0.325
-0.31
-0.31
-0.295
-0.315
-0.315
-0.315
-0.33
-0.33
-0.335
-0.32
-0.32
-0.315
-0.305
-0.3
-0.3
-0.305
-0.315
-0.305
-0.32
-0.32
-0.32
-0.32
-0.315
-0.305
-0.3
-0.31
-0.305
-0.31
-0.31
-0.33
-0.33
-0.335
-0.33
-0.335
-0.32
-0.305
-0.305
-0.305
-0.3
-0.305
-0.325
-0.31
-0.325
-0.33
-0.325
-0.34
-0.33
-0.31
-0.3
-0.295
-0.29
-0.31
-0.295
-0.3
-0.31
-0.315
-0.315
-0.305
-0.3
-0.3
-0.305
-0.29
-0.29
-0.3
-0.3
-0.31
-0.3
-0.3
-0.295
-0.28
-0.28
-0.255
-0.245
-0.23
-0.215
-0.22
-0.205
-0.205
-0.205
-0.2
-0.195
-0.185
-0.155
-0.155
-0.15
-0.145
-0.14
-0.15
-0.16
-0.175
-0.19
-0.205
-0.22
-0.22
-0.225
-0.235
-0.225
-0.24
-0.23
-0.245
-0.25
-0.26
-0.28
-0.29
-0.3
-0.315
-0.31
-0.31
-0.29
-0.29
-0.275
-0.285
-0.275
-0.275
-0.27
-0.265
-0.25
-0.235
-0.225
-0.21
-0.19
-0.165
-0.15
-0.14
-0.115
-0.1
-0.07
-0.065
-0.04
0.0
0.055
0.1
0.145
0.185
0.225
0.26
0.275
0.305
0.345
0.4
0.485
0.61
0.765
0.93
1.11
1.295
1.445
1.575
1.61
1.565
1.415
1.19
0.855
0.475
0.08
-0.32
-0.615
-0.795
-0.85
-0.82
-0.75
-0.64
-0.545
-0.47
-0.405
-0.355
-0.33
-0.315
-0.32
-0.31
-0.33
-0.33
-0.32
-0.33
-0.33
-0.335
-0.34
-0.32
-0.315
-0.295
-0.29
-0.29
-0.295
-0.3
-0.315
-0.32
-0.33
-0.325
-0.33
-0.32
-0.315
-0.32
-0.31
-0.305
-0.3
-0.3
-0.305
-0.315
-0.315
-0.33
-0.33
-0.32
-0.32
-0.32
-0.315
-0.335
-0.33
-0.34
-0.345
-0.33
-0.335
-0.34
-0.33
-0.33
-0.305
-0.315
-0.3
-0.29
-0.285
-0.305
-0.29
-0.3
-0.3
-0.305
-0.3
-0.285
-0.305
-0.285
-0.27
-0.265
-0.26
-0.255
-0.26
-0.265
-0.265
-0.26
-0.26
-0.255
-0.235
-0.23
-0.205
-0.2
-0.195
-0.2
-0.19
-0.2
-0.21
-0.22
-0.215
-0.205
-0.21
-0.215
-0.215
-0.215
-0.22
-0.225
-0.235
-0.24
-0.255
-0.265
-0.275
-0.28
-0.275
-0.29
-0.28
-0.28
-0.265
-0.27
-0.28
-0.29
-0.295
-0.29
-0.3
-0.295
-0.29
-0.29
-0.275
-0.275
-0.27
-0.27
-0.28
-0.29
-0.285
-0.29
-0.285
-0.28
-0.275
-0.26
-0.255
-0.25
-0.245
-0.245
-0.255
-0.255
-0.25
-0.255
-0.26
-0.245
-0.245
-0.235
-0.235
-0.225
-0.225
-0.22
-0.23
-0.24
-0.255
-0.26
-0.255
-0.25
-0.25
-0.235
-0.225
-0.22
-0.22
-0.235
-0.235
-0.24
-0.26
-0.245
-0.255
-0.245
-0.24
-0.24
-0.23
-0.24
-0.245
-0.235
-0.24
-0.255
-0.26
-0.26
-0.27
-0.26
-0.26
-0.255
-0.26
-0.255
-0.245
-0.255
-0.25
-0.26
-0.265
-0.275
-0.28
-0.28
-0.27
-0.26
-0.255
-0.255
-0.255
-0.26
-0.275
-0.275
-0.28
-0.29
-0.29
-0.285
-0.285
-0.285
-0.275
-0.275
-0.265
-0.275
-0.28
-0.285
-0.29
-0.29
-0.29
-0.275
-0.285
-0.275
-0.265
-0.265
-0.265
-0.275
-0.275
-0.285
-0.285
-0.295
-0.29
-0.285
-0.275
-0.275
-0.265
-0.275
-0.265
-0.28
-0.28
-0.285
-0.29
-0.29
-0.3
-0.29
-0.29
-0.28
-0.28
-0.275
-0.275
-0.265
-0.28
-0.29
-0.29
-0.31
-0.3
-0.3
-0.29
-0.29
-0.275
-0.26
-0.27
-0.25
-0.25
-0.245
-0.24
-0.245
-0.245
-0.24
-0.225
-0.21
-0.195
-0.18
-0.165
-0.165
-0.16
-0.16
-0.17
-0.18
-0.185
-0.18
-0.185
-0.18
-0.185
-0.185
-0.195
-0.195
-0.22
-0.23
-0.26
-0.26
-0.265
-0.265
-0.265
-0.26
-0.26
-0.25
-0.26
-0.27
-0.285
-0.3
-0.32
-0.32
-0.315
-0.305
-0.295
-0.28
-0.265
-0.26
-0.245
-0.245
-0.23
-0.22
-0.215
-0.2
-0.19
-0.185
-0.15
-0.125
-0.1
-0.07
-0.045
-0.03
-0.01
0.015
0.04
0.065
0.095
0.14
0.18
0.21
0.24
0.275
0.305
0.345
0.41
0.47
0.57
0.69
0.825
0.99
1.15
1.295
1.42
1.47
1.455
1.345
1.155
0.89
0.555
0.185
-0.185
-0.515
-0.74
-0.855
-0.83
-0.765
-0.645
-0.54
-0.44
-0.37
-0.33
-0.31
-0.315
-0.33
-0.325
-0.33
-0.33
-0.325
-0.33
-0.32
-0.325
-0.325
-0.325
-0.33
-0.33
-0.33
-0.31
-0.31
-0.3
-0.305
-0.295
-0.3
-0.305
-0.305
-0.325
-0.315
-0.32
-0.32
-0.315
-0.305
-0.295
-0.295
-0.285
-0.3
-0.3
-0.3
-0.31
-0.31
-0.31
-0.305
-0.29
-0.285
-0.275
-0.29
-0.285
-0.275
-0.275
-0.28
-0.275
-0.27
-0.27
-0.26
-0.26
-0.255
-0.24
-0.24
-0.235
-0.24
-0.23
-0.23
-0.23
-0.23
-0.23
-0.21
-0.205
-0.205
-0.195
-0.19
-0.18
-0.18
-0.18
-0.195
-0.185
-0.195
-0.19
-0.175
-0.175
-0.175
-0.16
-0.145
-0.145
-0.15
-0.145
-0.15
-0.155
-0.165
-0.155
-0.17
-0.165
-0.17
-0.165
-0.175
-0.19
-0.2
-0.205
-0.22
-0.235
-0.235
-0.24
-0.24
-0.23
-0.24
-0.235
-0.24
-0.235
-0.245
-0.255
-0.255
-0.27
-0.28
-0.28
-0.27
-0.265
-0.275
-0.265
-0.26
-0.265
-0.265
-0.265
-0.275
-0.28
-0.285
-0.28
-0.275
-0.285
-0.26
-0.26
-0.255
-0.26
-0.27
-0.25
-0.25
-0.255
-0.27
-0.28
-0.27
-0.26
-0.24
-0.235
-0.23
-0.22
-0.23
-0.225
-0.22
-0.235
-0.23
-0.245
-0.245
-0.245
-0.24
-0.235
-0.22
-0.225
-0.22
-0.235
-0.245
-0.25
-0.245
-0.245
-0.245
-0.23
-0.225
-0.225
-0.225
-0.225
-0.23
-0.24
-0.24
-0.255
-0.255
-0.255
-0.265
-0.255
-0.27
-0.275
-0.26
-0.255
-0.265
-0.275
-0.265
-0.27
-0.275
-0.28
-0.285
-0.275
-0.27
-0.265
-0.275
-0.26
-0.26
-0.27
-0.265
-0.28
-0.29
-0.285
-0.295
-0.28
-0.285
-0.275
-0.275
-0.27
-0.275
-0.275
-0.29
-0.3
-0.29
-0.3
-0.295
-0.29
-0.275
-0.27
-0.27
-0.265
-0.285
-0.28
-0.285
-0.285
-0.3
-0.295
-0.3
-0.29
-0.29
-0.285
-0.28
-0.275
-0.28
-0.27
-0.28
-0.295
-0.305
-0.305
-0.295
-0.285
-0.29
-0.285
-0.28
-0.28
-0.275
-0.295
-0.295
-0.3
-0.31
-0.3
-0.305
-0.3
-0.295
-0.27
-0.275
-0.265
-0.28
-0.275
-0.285
-0.28
-0.28
-0.27
-0.265
-0.255
-0.235
-0.225
-0.21
-0.205
-0.185
-0.185
-0.18
-0.17
-0.17
-0.16
-0.15
-0.145
-0.135
-0.15
-0.14
-0.145
-0.165
-0.17
-0.18
-0.195
-0.21
-0.22
-0.225
-0.23
-0.235
-0.235
-0.235
-0.235
-0.245
-0.25
-0.265
-0.275
-0.285
-0.3
-0.295
-0.3
-0.29
-0.28
-0.265
-0.25
-0.245
-0.235
-0.225
-0.215
-0.21
-0.195
-0.175
-0.155
-0.14
-0.1
-0.075
-0.05
-0.035
-0.02
-0.005
0.01
0.055
0.08
0.125
0.17
0.215
0.26
0.295
0.325
0.35
0.41
0.47
0.575
0.7
0.85
1.01
1.175
1.325
1.405
1.405
1.315
1.135
0.87
0.53
0.13
-0.26
-0.625
-0.885
-0.975
-0.93
-0.815
-0.655
-0.495
-0.37
-0.295
-0.265
-0.275
-0.29
-0.32
-0.35
-0.345
-0.335
-0.315
-0.305
-0.295
-0.29
-0.29
-0.3
-0.305
-0.325
-0.32
-0.32
-0.325
-0.315
-0.305
-0.3
-0.3
-0.3
-0.3
-0.3
-0.32
-0.315
-0.32
-0.315
-0.305
-0.3
-0.295
-0.29
-0.285
-0.295
-0.305
-0.31
-0.32
-0.33
-0.33
-0.32
-0.315
-0.31
-0.3
-0.29
-0.285
-0.28
-0.285
-0.275
-0.27
-0.265
-0.25
-0.245
-0.235
-0.225
-0.23
-0.22
-0.22
-0.215
-0.21
-0.21
-0.21
-0.225
-0.21
-0.2
-0.195
-0.2
-0.19
-0.18
-0.19
-0.185
-0.185
-0.175
-0.17
-0.175
-0.18
-0.18
-0.17
-0.165
-0.15
-0.15
-0.145
-0.145
-0.16
-0.16
-0.185
-0.2
-0.21
-0.23
-0.225
-0.22
-0.22
-0.215
-0.21
-0.22
-0.225
-0.245
-0.255
-0.27
-0.285
-0.28
-0.27
-0.27
-0.265
-0.26
-0.26
-0.275
-0.29
-0.29
-0.295
-0.295
-0.28
-0.275
-0.275
-0.265
-0.25
-0.255
-0.255
-0.26
-0.26
-0.27
-0.275
-0.275
-0.285
-0.275
-0.275
-0.265
-0.26
-0.27
-0.255
-0.245
-0.255
-0.26
-0.265
-0.26
-0.255
-0.25
-0.245
-0.245
-0.235
-0.225
-0.225
-0.225
-0.23
-0.24
-0.24
-0.25
-0.26
-0.26
-0.255
-0.26
-0.25
-0.25
-0.245
-0.235
-0.26
-0.255
-0.25
-0.26
-0.265
-0.265
-0.26
-0.255
-0.25
-0.25
-0.25
-0.255
-0.26
-0.27
-0.275
-0.275
-0.28
-0.275
-0.275
-0.27
-0.27
-0.265
-0.27
-0.27
-0.27
-0.275
-0.275
-0.285
-0.285
-0.29
-0.28
-0.27
-0.275
-0.27
-0.275
-0.27
-0.28
-0.295
-0.285
-0.3
-0.315
-0.3
-0.31
-0.305
-0.3
-0.295
-0.28
-0.285
-0.295
-0.295
-0.305
-0.31
-0.315
-0.315
-0.31
-0.29
-0.295
-0.28
-0.285
-0.28
-0.28
-0.29
-0.295
-0.295
-0.31
-0.305
-0.305
-0.285
-0.29
-0.27
-0.275
-0.27
-0.27
-0.285
-0.295
-0.3
-0.305
-0.31
-0.31
-0.3
-0.28
-0.275
-0.265
-0.29
-0.285
-0.295
-0.295
-0.295
-0.3
-0.3
-0.29
-0.29
-0.29
-0.27
-0.27
-0.25
-0.25
-0.24
-0.235
-0.21
-0.215
-0.22
-0.205
-0.19
-0.175
-0.17
-0.15
-0.14
-0.135
-0.135
-0.14
-0.15
-0.165
-0.175
-0.18
-0.185
-0.18
-0.185
-0.205
-0.19
-0.21
-0.24
-0.24
-0.245
-0.27
-0.275
-0.27
-0.275
-0.28
-0.29
-0.305
-0.295
-0.31
-0.305
-0.29
-0.275
-0.265
-0.265
-0.25
-0.25
-0.245
-0.21
-0.2
-0.175
-0.16
-0.14
-0.13
-0.11
-0.085
-0.075
-0.04
-0.015
0.03
0.085
0.135
0.18
0.215
0.245
0.275
0.29
0.325
0.375
0.46
0.585
0.72
0.9
1.085
1.28
1.445
1.545
1.555
1.47
1.26
0.95
0.55
0.085
-0.36
-0.715
-0.93
-0.995
-0.925
-0.815
-0.645
-0.515
-0.405
-0.335
-0.29
-0.29
-0.29
-0.305
-0.325
-0.325
-0.33
-0.335
-0.315
-0.315
-0.305
-0.305
-0.305
-0.3
-0.305
-0.3
-0.29
-0.295
-0.3
-0.29
-0.295
-0.295
-0.3
-0.31
-0.315
-0.31
-0.3
-0.29
-0.29
-0.275
-0.27
-0.275
-0.285
-0.29
-0.305
-0.31
-0.3
-0.295
-0.285
-0.275
-0.27
-0.265
-0.265
-0.28
-0.28
-0.285
-0.295
-0.275
-0.26
-0.265
-0.26
-0.235
-0.23
-0.215
-0.21
-0.215
-0.22
-0.215
-0.22
-0.225
-0.21
-0.195
-0.19
-0.19
-0.18
-0.18
-0.185
-0.18
-0.18
-0.18
-0.185
-0.175
-0.18
-0.175
-0.155
-0.155
-0.135
-0.125
-0.12
-0.12
-0.135
-0.155
-0.165
-0.165
-0.16
-0.16
-0.175
-0.155
-0.16
-0.17
-0.195
-0.195
-0.21
-0.215
-0.225
-0.235
-0.225
-0.235
-0.23
-0.23
-0.23
-0.24
-0.245
-0.25
-0.255
-0.255
-0.275
-0.255
-0.26
-0.26
-0.25
-0.23
-0.24
-0.24
-0.24
-0.235
-0.245
-0.245
-0.255
-0.255
-0.25
-0.255
-0.25
-0.235
-0.24
-0.23
-0.235
-0.245
-0.24
-0.235
-0.23
-0.245
-0.23
-0.235
-0.225
-0.22
-0.215
-0.21
-0.21
-0.23
-0.23
-0.235
-0.235
-0.245
-0.24
-0.23
-0.23
-0.215
-0.22
-0.205
-0.2
-0.21
-0.225
-0.225
-0.235
-0.245
-0.245
-0.245
-0.235
-0.235
-0.23
-0.23
-0.225
-0.235
-0.25
-0.255
-0.27
-0.275
-0.26
-0.26
-0.26
-0.25
-0.245
-0.24
-0.245
-0.265
-0.26
-0.27
-0.28
-0.275
-0.28
-0.265
-0.275
-0.27
-0.27
-0.265
-0.27
-0.275
-0.28
-0.28
-0.285
-0.28
-0.28
-0.275
-0.275
-0.265
-0.255
-0.255
-0.27
-0.27
-0.275
-0.285
-0.305
-0.31
-0.3
-0.29
-0.28
-0.285
-0.275
-0.26
-0.265
-0.275
-0.28
-0.295
-0.285
-0.28
-0.295
-0.28
-0.275
-0.26
-0.265
-0.265
-0.26
-0.275
-0.29
-0.295
-0.295
-0.305
-0.3
-0.29
-0.275
-0.27
-0.265
-0.27
-0.27
-0.275
-0.285
-0.285
-0.29
-0.28
-0.275
-0.28
-0.285
-0.275
-0.275
-0.275
-0.27
-0.275
-0.28
-0.28
-0.295
-0.29
-0.295
-0.295
-0.27
-0.265
-0.27
-0.265
-0.27
-0.275
-0.275
-0.275
-0.275
-0.28
-0.265
-0.25
-0.235
-0.21
-0.2
-0.19
-0.185
-0.175
-0.175
-0.17
-0.165
-0.16
-0.14
-0.125
-0.12
-0.125
-0.14
-0.15
-0.165
-0.185
-0.195
-0.21
-0.22
-0.23
-0.23
-0.235
-0.235
-0.24
-0.245
-0.245
-0.26
-0.27
-0.285
-0.295
-0.305
-0.315
-0.315
-0.3
-0.3
-0.285
-0.27
-0.255
-0.26
-0.245
-0.24
-0.24
-0.215
-0.2
-0.18
-0.16
-0.14
-0.11
-0.085
-0.06
-0.03
-0.005
0.015
0.055
0.09
0.14
0.175
0.225
0.255
0.305
0.325
0.36
0.41
0.475
0.595
0.72
0.88
1.05
1.225
1.38
1.47
1.51
1.47
1.35
1.09
0.76
0.36
-0.08
-0.535
-0.865
-1.04
-1.055
-0.95
-0.76
-0.565
-0.405
-0.29
-0.255
-0.245
-0.27
-0.295
-0.335
-0.355
-0.365
-0.34
-0.315
-0.315
-0.305
-0.305
-0.305
-0.305
-0.325
-0.315
-0.33
-0.325
-0.32
-0.31
-0.315
-0.295
-0.3
-0.3
-0.305
-0.305
-0.32
-0.33
-0.34
-0.335
-0.325
-0.32
-0.305
-0.305
-0.295
-0.305
-0.305
-0.32
-0.34
-0.34
-0.34
-0.335
-0.325
-0.31
-0.3
-0.305
-0.29
-0.285
-0.285
-0.285
-0.305
-0.29
-0.28
-0.265
-0.25
-0.245
-0.23
-0.22
-0.215
-0.215
-0.22
-0.215
-0.215
-0.22
-0.22
-0.215
-0.22
-0.215
-0.205
-0.195
-0.185
-0.185
-0.18
-0.19
-0.195
-0.21
-0.21
-0.205
-0.215
-0.195
-0.19
-0.19
-0.185
-0.17
-0.195
-0.205
-0.215
-0.22
-0.24
-0.25
-0.24
-0.235
-0.235
-0.23
-0.235
-0.245
-0.26
-0.27
-0.285
-0.29
-0.29
-0.3
-0.295
-0.29
-0.275
-0.275
-0.27
-0.28
-0.28
-0.29
-0.295
-0.295
-0.31
-0.29
-0.28
-0.275
-0.27
-0.265
-0.255
-0.26
-0.275
-0.265
-0.27
-0.27
-0.28
-0.275
-0.27
-0.275
-0.265
-0.255
