Lead II
-0.55
-0.55
-0.56
-0.55
-0.55
-0.555
-0.545
-0.555
-0.56
-0.565
-0.585
-0.59
-0.59
-0.585
-0.585
-0.58
-0.585
-0.565
-0.575
-0.57
-0.57
-0.57
-0.585
-0.575
-0.575
-0.555
-0.55
-0.54
-0.525
-0.525
-0.53
-0.54
-0.54
-0.54
-0.53
-0.52
-0.51
-0.495
-0.49
-0.475
-0.445
-0.435
-0.405
-0.35
-0.265
-0.13
0.06
0.335
0.655
1.02
1.355
1.61
1.675
1.5
1.09
0.48
-0.16
-0.78
-1.155
-1.26
-1.17
-0.95
-0.715
-0.51
-0.38
-0.335
-0.34
-0.385
-0.42
-0.455
-0.485
-0.49
-0.48
-0.46
-0.45
-0.435
-0.42
-0.425
-0.43
-0.445
-0.45
-0.455
-0.455
-0.445
-0.44
-0.44
-0.44
-0.435
-0.425
-0.435
-0.415
-0.435
-0.44
-0.435
-0.43
-0.435
-0.44
-0.43
-0.42
-0.41
-0.41
-0.415
-0.41
-0.42
-0.425
-0.425
-0.425
-0.425
-0.425
-0.415
-0.415
-0.41
-0.4
-0.415
-0.405
-0.405
-0.4
-0.41
-0.415
-0.41
-0.405
-0.4
-0.4
-0.38
-0.375
-0.38
-0.37
-0.385
-0.39
-0.395
-0.39
-0.395
-0.39
-0.385
-0.37
-0.36
-0.355
-0.35
-0.35
-0.35
-0.35
-0.36
-0.36
-0.355
-0.365
-0.345
-0.35
-0.335
-0.315
-0.32
-0.315
-0.31
-0.31
-0.31
-0.315
-0.305
-0.315
-0.295
-0.295
-0.295
-0.275
-0.265
-0.26
-0.265
-0.26
-0.265
-0.275
-0.27
-0.26
-0.26
-0.26
-0.245
-0.25
-0.24
-0.235
-0.24
-0.255
-0.255
-0.265
-0.265
-0.265
-0.25
-0.245
-0.235
-0.235
-0.24
-0.245
-0.26
-0.275
-0.29
-0.32
-0.335
-0.33
-0.345
-0.355
-0.355
-0.365
-0.385
-0.405
-0.415
-0.44
-0.45
-0.47
-0.485
-0.485
-0.49
-0.495
-0.495
-0.5
-0.505
-0.5
-0.51
-0.515
-0.525
-0.54
-0.54
-0.53
-0.525
-0.52
-0.515
-0.51
-0.51
-0.51
-0.51
-0.52
-0.53
-0.535
-0.52
-0.51
-0.52
-0.505
-0.495
-0.495
-0.49
-0.47
-0.465
-0.47
-0.475
-0.48
-0.47
-0.465
-0.465
-0.465
-0.455
-0.455
-0.445
-0.445
-0.455
-0.45
-0.46
-0.46
-0.465
-0.465
-0.46
-0.46
-0.45
-0.45
-0.45
-0.455
-0.46
-0.465
-0.475
-0.475
-0.48
-0.495
-0.485
-0.48
-0.48
-0.47
-0.475
-0.485
-0.48
-0.49
-0.49
-0.505
-0.495
-0.495
-0.485
-0.49
-0.48
-0.485
-0.485
-0.485
-0.505
-0.495
-0.5
-0.515
-0.52
-0.52
-0.51
-0.505
-0.495
-0.48
-0.485
-0.48
-0.485
-0.485
-0.485
-0.5
-0.515
-0.505
-0.505
-0.485
-0.48
-0.475
-0.47
-0.475
-0.485
-0.5
-0.5
-0.505
-0.5
-0.49
-0.49
-0.485
-0.48
-0.47
-0.46
-0.45
-0.45
-0.44
-0.435
-0.435
-0.425
-0.41
-0.405
-0.39
-0.37
-0.35
-0.345
-0.34
-0.335
-0.34
-0.34
-0.365
-0.37
-0.37
-0.365
-0.375
-0.36
-0.355
-0.365
-0.365
-0.37
-0.39
-0.42
-0.435
-0.45
-0.465
-0.485
-0.48
-0.475
-0.47
-0.47
-0.48
-0.475
-0.485
-0.495
-0.505
-0.515
-0.5
-0.5
-0.495
-0.495
-0.48
-0.485
-0.495
-0.49
-0.495
-0.515
-0.51
-0.515
-0.51
-0.495
-0.49
-0.47
-0.455
-0.455
-0.455
-0.45
-0.455
-0.46
-0.45
-0.44
-0.435
-0.41
-0.395
-0.38
-0.34
-0.295
-0.21
-0.08
0.105
0.345
0.64
0.975
1.305
1.57
1.71
1.665
1.405
0.945
0.355
-0.25
-0.755
-1.075
-1.165
-1.09
-0.905
-0.68
-0.5
-0.375
-0.31
-0.305
-0.31
-0.355
-0.39
-0.41
-0.4
-0.41
-0.41
-0.4
-0.395
-0.385
-0.36
-0.37
-0.365
-0.37
-0.37
-0.37
-0.385
-0.385
-0.38
-0.37
-0.375
-0.36
-0.345
-0.36
-0.355
-0.345
-0.355
-0.36
-0.38
-0.39
-0.37
-0.38
-0.365
-0.355
-0.345
-0.34
-0.345
-0.35
-0.35
-0.355
-0.355
-0.36
-0.365
-0.36
-0.36
-0.355
-0.345
-0.335
-0.345
-0.345
-0.355
-0.35
-0.355
-0.35
-0.355
-0.355
-0.34
-0.33
-0.33
-0.33
-0.32
-0.32
-0.335
-0.335
-0.335
-0.335
-0.325
-0.325
-0.32
-0.31
-0.295
-0.295
-0.29
-0.29
-0.3
-0.3
-0.3
-0.3
-0.295
-0.28
-0.28
-0.285
-0.27
-0.27
-0.265
-0.26
-0.26
-0.27
-0.275
-0.255
-0.255
-0.25
-0.25
-0.245
-0.22
-0.22
-0.225
-0.225
-0.235
-0.245
-0.25
-0.24
-0.24
-0.235
-0.235
-0.225
-0.22
-0.21
-0.225
-0.22
-0.22
-0.225
-0.23
-0.24
-0.235
-0.225
-0.225
-0.215
-0.21
-0.22
-0.23
-0.24
-0.245
-0.27
-0.29
-0.3
-0.32
-0.33
-0.345
-0.335
-0.34
-0.355
-0.375
-0.39
-0.39
-0.41
-0.425
-0.435
-0.425
-0.435
-0.43
-0.43
-0.425
-0.425
-0.435
-0.43
-0.455
-0.455
-0.455
-0.455
-0.455
-0.435
-0.44
-0.435
-0.43
-0.425
-0.43
-0.43
-0.43
-0.44
-0.43
-0.44
-0.43
-0.43
-0.415
-0.41
-0.4
-0.39
-0.4
-0.41
-0.4
-0.405
-0.41
-0.42
-0.415
-0.415
-0.4
-0.4
-0.39
-0.395
-0.39
-0.395
-0.395
-0.41
-0.415
-0.405
-0.41
-0.405
-0.405
-0.405
-0.41
-0.405
-0.415
-0.415
-0.42
-0.43
-0.445
-0.44
-0.435
-0.435
-0.425
-0.415
-0.41
-0.41
-0.425
-0.425
-0.43
-0.435
-0.44
-0.455
-0.45
-0.435
-0.44
-0.43
-0.425
-0.425
-0.435
-0.435
-0.44
-0.445
-0.45
-0.45
-0.455
-0.455
-0.45
-0.455
-0.435
-0.445
-0.445
-0.45
-0.46
-0.46
-0.455
-0.465
-0.465
-0.465
-0.46
-0.455
-0.44
-0.445
-0.445
-0.44
-0.445
-0.46
-0.47
-0.46
-0.465
-0.47
-0.465
-0.435
-0.44
-0.43
-0.43
-0.425
-0.425
-0.42
-0.425
-0.42
-0.405
-0.385
-0.37
-0.36
-0.35
-0.345
-0.315
-0.31
-0.305
-0.3
-0.31
-0.315
-0.32
-0.33
-0.32
-0.325
-0.32
-0.31
-0.32
-0.32
-0.33
-0.33
-0.355
-0.365
-0.38
-0.395
-0.395
-0.425
-0.425
-0.43
-0.435
-0.435
-0.445
-0.455
-0.465
-0.465
-0.465
-0.47
-0.465
-0.455
-0.45
-0.445
-0.45
-0.465
-0.46
-0.46
-0.47
-0.465
-0.47
-0.465
-0.44
-0.45
-0.435
-0.435
-0.425
-0.425
-0.42
-0.415
-0.42
-0.415
-0.415
-0.405
-0.385
-0.37
-0.34
-0.285
-0.215
-0.1
0.055
0.285
0.58
0.92
1.265
1.545
1.66
1.54
1.2
0.645
0.005
-0.595
-1.0
-1.155
-1.085
-0.9
-0.69
-0.495
-0.36
-0.295
-0.28
-0.3
-0.325
-0.35
-0.375
-0.385
-0.4
-0.4
-0.375
-0.365
-0.355
-0.355
-0.345
-0.34
-0.35
-0.36
-0.365
-0.36
-0.35
-0.36
-0.36
-0.36
-0.345
-0.345
-0.335
-0.33
-0.34
-0.345
-0.345
-0.345
-0.365
-0.375
-0.365
-0.36
-0.35
-0.345
-0.335
-0.32
-0.325
-0.345
-0.34
-0.35
-0.355
-0.35
-0.35
-0.34
-0.325
-0.335
-0.33
-0.32
-0.34
-0.33
-0.34
-0.335
-0.34
-0.34
-0.335
-0.325
-0.32
-0.315
-0.305
-0.3
-0.315
-0.315
-0.32
-0.315
-0.33
-0.32
-0.32
-0.31
-0.31
-0.305
-0.305
-0.295
-0.28
-0.285
-0.29
-0.29
-0.295
-0.305
-0.295
-0.285
-0.285
-0.27
-0.265
-0.26
-0.26
-0.265
-0.265
-0.265
-0.27
-0.265
-0.27
-0.26
-0.245
-0.235
-0.235
-0.23
-0.225
-0.23
-0.245
-0.24
-0.25
-0.26
-0.27
-0.27
-0.265
-0.275
-0.275
-0.26
-0.26
-0.27
-0.265
-0.265
-0.27
-0.275
-0.265
-0.26
-0.255
-0.25
-0.25
-0.245
-0.26
-0.27
-0.285
-0.3
-0.31
-0.32
-0.335
-0.35
-0.37
-0.375
-0.38
-0.39
-0.4
-0.425
-0.435
-0.44
-0.45
-0.455
-0.45
-0.47
-0.46
-0.44
-0.45
-0.435
-0.445
-0.455
-0.455
-0.465
-0.475
-0.475
-0.475
-0.475
-0.465
-0.47
-0.465
-0.45
-0.44
-0.445
-0.445
-0.45
-0.45
-0.47
-0.46
-0.47
-0.45
-0.44
-0.43
-0.425
-0.42
-0.415
-0.435
-0.435
-0.445
-0.435
-0.43
-0.435
-0.425
-0.43
-0.42
-0.41
-0.405
-0.415
-0.42
-0.45
-0.46
-0.45
-0.45
-0.455
-0.445
-0.435
-0.445
-0.43
-0.445
-0.45
-0.46
-0.465
-0.465
-0.465
-0.465
-0.46
-0.465
-0.465
-0.47
-0.46
-0.46
-0.46
-0.47
-0.485
-0.485
-0.495
-0.495
-0.49
-0.485
-0.475
-0.465
-0.47
-0.465
-0.47
-0.485
-0.485
-0.5
-0.505
-0.5
-0.505
-0.505
-0.49
-0.47
-0.445
-0.455
-0.43
-0.43
-0.43
-0.43
-0.435
-0.42
-0.405
-0.38
-0.375
-0.35
-0.34
-0.33
-0.325
-0.35
-0.355
-0.38
-0.39
-0.38
-0.365
-0.36
-0.355
-0.34
-0.345
-0.365
-0.375
-0.395
-0.41
-0.44
-0.47
-0.47
-0.49
-0.495
-0.485
-0.48
-0.485
-0.48
-0.475
-0.495
-0.495
-0.505
-0.515
-0.525
-0.53
-0.51
-0.5
-0.5
-0.495
-0.5
-0.505
-0.51
-0.51
-0.525
-0.525
-0.525
-0.53
-0.52
-0.5
-0.51
-0.495
-0.49
-0.495
-0.485
-0.48
-0.49
-0.48
-0.475
-0.445
-0.435
-0.42
-0.405
-0.38
-0.365
-0.335
-0.275
-0.16
-0.005
0.205
0.51
0.845
1.21
1.51
1.68
1.685
1.44
0.96
0.345
-0.295
-0.855
-1.14
-1.18
-1.04
-0.805
-0.59
-0.425
-0.33
-0.31
-0.325
-0.36
-0.4
-0.43
-0.45
-0.45
-0.445
-0.42
-0.42
-0.4
-0.395
-0.4
-0.385
-0.405
-0.41
-0.405
-0.42
-0.41
-0.4
-0.395
-0.4
-0.39
-0.395
-0.395
-0.395
-0.405
-0.385
-0.405
-0.415
-0.41
-0.405
-0.395
-0.385
-0.39
-0.38
-0.38
-0.38
-0.385
-0.39
-0.395
-0.405
-0.395
-0.39
-0.39
-0.39
-0.38
-0.365
-0.38
-0.375
-0.375
-0.39
-0.395
-0.4
-0.395
-0.39
-0.39
-0.38
-0.375
-0.36
-0.365
-0.36
-0.365
-0.365
-0.365
-0.37
-0.365
-0.36
-0.345
-0.34
-0.335
-0.34
-0.33
-0.325
-0.32
-0.32
-0.335
-0.335
-0.335
-0.32
-0.315
-0.3
-0.295
-0.29
-0.295
-0.305
-0.29
-0.29
-0.29
-0.3
-0.29
-0.285
-0.27
-0.26
-0.25
-0.24
-0.235
-0.235
-0.24
-0.26
-0.255
-0.255
-0.26
-0.26
-0.265
-0.24
-0.235
-0.215
-0.235
-0.225
-0.235
-0.235
-0.25
-0.255
-0.25
-0.245
-0.245
-0.245
-0.24
-0.23
-0.24
-0.235
-0.255
-0.26
-0.28
-0.3
-0.305
-0.32
-0.33
-0.33
-0.33
-0.345
-0.36
-0.38
-0.405
-0.42
-0.44
-0.43
-0.45
-0.44
-0.45
-0.445
-0.44
-0.44
-0.44
-0.46
-0.45
-0.47
-0.465
-0.48
-0.475
-0.475
-0.465
-0.46
-0.455
-0.455
-0.45
-0.445
-0.435
-0.445
-0.445
-0.45
-0.44
-0.43
-0.425
-0.415
-0.41
-0.4
-0.395
-0.39
-0.395
-0.4
-0.4
-0.395
-0.395
-0.395
-0.38
-0.375
-0.365
-0.35
-0.35
-0.36
-0.36
-0.355
-0.36
-0.37
-0.37
-0.37
-0.36
-0.355
-0.365
-0.345
-0.345
-0.345
-0.35
-0.36
-0.375
-0.39
-0.385
-0.365
-0.375
-0.375
-0.365
-0.36
-0.36
-0.345
-0.35
-0.35
-0.37
-0.365
-0.37
-0.365
-0.36
-0.35
-0.345
-0.34
-0.345
-0.345
-0.34
-0.345
-0.35
-0.36
-0.36
-0.36
-0.34
-0.33
-0.325
-0.31
-0.31
-0.31
-0.315
-0.32
-0.325
-0.32
-0.33
-0.325
-0.315
-0.305
-0.3
-0.305
-0.295
-0.29
-0.295
-0.29
-0.28
-0.28
-0.275
-0.275
-0.27
-0.245
-0.215
-0.19
-0.185
-0.17
-0.155
-0.15
-0.135
-0.135
-0.135
-0.13
-0.135
-0.13
-0.125
-0.115
-0.11
-0.105
-0.11
-0.11
-0.115
-0.135
-0.15
-0.155
-0.15
-0.17
-0.18
-0.18
-0.195
-0.205
-0.22
-0.23
-0.24
-0.24
-0.25
-0.25
-0.245
-0.235
-0.225
-0.22
-0.22
-0.22
-0.21
-0.225
-0.225
-0.23
-0.235
-0.23
-0.225
-0.22
-0.215
-0.195
-0.19
-0.185
-0.195
-0.195
-0.205
-0.2
-0.195
-0.19
-0.16
-0.145
-0.125
-0.105
-0.09
-0.095
-0.075
-0.065
-0.055
-0.02
0.055
0.19
0.37
0.635
0.965
1.3
1.63
1.865
1.94
1.78
1.435
0.895
0.275
-0.275
-0.645
-0.77
-0.695
-0.5
-0.275
-0.105
0.03
0.075
0.09
0.075
0.04
0.015
-0.005
-0.005
-0.005
0.01
0.03
0.025
0.025
0.02
0.015
0.015
0.01
0.01
0.02
0.03
0.035
0.05
0.06
0.06
0.065
0.06
0.055
0.06
0.04
0.05
0.055
0.065
0.06
0.09
0.1
0.085
0.085
0.08
0.08
0.075
0.07
0.075
0.08
0.095
0.105
0.115
0.095
0.095
0.105
0.095
0.1
0.09
0.09
0.1
0.1
0.12
0.12
0.13
0.125
0.125
0.135
0.13
0.13
0.125
0.125
0.13
0.125
0.145
0.15
0.16
0.165
0.175
0.165
0.165
0.165
0.145
0.155
0.17
0.175
0.165
0.2
0.2
0.2
0.2
0.21
0.205
0.205
0.205
0.21
0.215
0.225
0.22
0.23
0.245
0.255
0.26
0.265
0.255
0.25
0.25
0.25
0.265
0.27
0.275
0.285
0.3
0.3
0.305
0.3
0.29
0.29
0.29
0.295
0.3
0.3
0.305
0.325
0.325
0.325
0.325
0.32
0.3
0.3
0.295
0.275
0.27
0.255
0.24
0.245
0.245
0.23
0.22
0.205
0.185
0.165
0.15
0.135
0.12
0.105
0.105
0.115
0.1
0.115
0.115
0.1
0.1
0.09
0.075
0.075
0.075
0.085
0.08
0.09
0.1
0.1
0.1
0.095
0.09
0.08
0.085
0.085
0.09
0.085
0.095
0.1
0.11
0.11
0.115
0.12
0.105
0.105
0.095
0.095
0.095
0.115
0.125
0.13
0.12
0.13
0.135
0.135
0.13
0.135
0.13
0.12
0.125
0.125
0.125
0.12
0.14
0.15
0.135
0.14
0.15
0.13
0.12
0.12
0.12
0.12
0.12
0.125
0.135
0.135
0.125
0.105
0.115
0.105
0.095
0.09
0.085
0.095
0.095
0.105
0.105
0.1
0.1
0.1
0.095
0.1
0.085
0.075
0.075
0.085
0.09
0.09
0.1
0.105
0.1
0.095
0.095
0.085
0.075
0.075
0.075
0.085
0.085
0.095
0.09
0.11
0.1
0.1
0.095
0.085
0.07
0.055
0.07
0.07
0.08
0.095
0.09
0.1
0.105
0.1
0.095
0.1
0.095
0.1
0.11
0.125
0.135
0.155
0.17
0.175
0.195
0.195
0.2
0.205
0.21
0.205
0.205
0.215
0.22
0.21
0.2
0.205
0.215
0.21
0.2
0.19
0.18
0.175
0.155
0.155
0.13
0.12
0.105
0.11
0.085
0.065
0.065
0.065
0.06
0.06
0.065
0.06
0.07
0.07
0.07
0.075
0.07
0.075
0.045
0.05
0.06
0.04
0.045
0.045
0.06
0.045
0.05
0.04
0.055
0.055
0.055
0.05
0.04
0.04
0.05
0.06
0.065
0.075
0.095
0.095
0.12
0.12
0.11
0.12
0.12
0.145
0.195
0.295
0.465
0.665
0.94
1.25
1.55
1.81
1.975
1.995
1.855
1.53
1.07
0.535
0.01
-0.385
-0.595
-0.61
-0.47
-0.275
-0.09
0.065
0.145
0.175
0.19
0.175
0.155
0.13
0.12
0.125
0.115
0.125
0.125
0.13
0.13
0.12
0.12
0.125
0.14
0.135
0.15
0.145
0.14
0.135
0.145
0.125
0.115
0.125
0.12
0.12
0.125
0.13
0.135
0.13
0.14
0.13
0.135
0.12
0.115
0.105
0.11
0.095
0.12
0.125
0.12
0.135
0.11
0.115
0.12
0.11
0.115
0.11
0.11
0.115
0.125
0.125
0.13
0.135
0.14
0.125
0.135
0.12
0.125
0.12
0.11
0.1
0.125
0.115
0.14
0.14
0.145
0.145
0.135
0.145
0.135
0.13
0.135
0.135
0.14
0.145
0.155
0.165
0.145
0.15
0.15
0.14
0.13
0.135
0.135
0.14
0.16
0.155
0.16
0.18
0.18
0.175
0.17
0.16
0.165
0.15
0.155
0.165
0.17
0.185
0.18
0.195
0.185
0.19
0.18
0.175
0.17
0.16
0.16
0.155
0.17
0.16
0.175
0.185
0.175
0.175
0.185
0.19
0.18
0.175
0.16
0.16
0.155
0.145
0.145
0.135
0.12
0.105
0.085
0.08
0.05
0.035
0.015
0.01
0.01
0.0
-0.005
-0.01
-0.02
-0.03
-0.035
-0.05
-0.065
-0.075
-0.07
-0.08
-0.08
-0.07
-0.065
-0.055
-0.055
-0.055
-0.07
-0.065
-0.075
-0.095
-0.09
-0.09
-0.085
-0.065
-0.075
-0.07
-0.065
-0.065
-0.06
-0.07
-0.065
-0.08
-0.075
-0.075
-0.06
-0.07
-0.055
-0.045
-0.055
-0.065
-0.06
-0.07
-0.08
-0.085
-0.08
-0.08
-0.085
-0.07
-0.06
-0.045
-0.055
-0.06
-0.075
-0.095
-0.1
-0.11
-0.095
-0.095
-0.105
-0.095
-0.1
-0.09
-0.09
-0.095
-0.1
-0.11
-0.13
-0.125
-0.125
-0.14
-0.12
-0.12
-0.12
-0.11
-0.125
-0.12
-0.14
-0.15
-0.145
-0.155
-0.155
-0.145
-0.13
-0.145
-0.125
-0.115
-0.14
-0.135
-0.155
-0.15
-0.165
-0.16
-0.165
-0.165
-0.16
-0.16
-0.155
-0.15
-0.145
-0.15
-0.155
-0.185
-0.18
-0.17
-0.185
-0.19
-0.18
-0.18
-0.18
-0.16
-0.17
-0.165
-0.16
-0.175
-0.17
-0.155
-0.15
-0.14
-0.125
-0.125
-0.1
-0.085
-0.08
-0.09
-0.075
-0.06
-0.075
-0.07
-0.07
-0.07
-0.08
-0.08
-0.065
-0.055
-0.06
-0.075
-0.09
-0.1
-0.12
-0.125
-0.145
-0.165
-0.18
-0.2
-0.195
-0.195
-0.205
-0.205
-0.21
-0.23
-0.245
-0.24
-0.25
-0.255
-0.255
-0.255
-0.255
-0.225
-0.24
-0.245
-0.255
-0.265
-0.27
-0.275
-0.285
-0.27
-0.265
-0.275
-0.27
-0.245
-0.25
-0.25
-0.255
-0.275
-0.28
-0.29
-0.27
-0.265
-0.26
-0.255
-0.245
-0.24
-0.23
-0.23
-0.23
-0.22
-0.225
-0.225
-0.21
-0.155
-0.095
0.025
0.2
0.43
0.715
1.03
1.33
1.57
1.69
1.64
1.37
0.905
0.31
-0.295
-0.765
-0.975
-0.965
-0.81
-0.56
-0.365
-0.215
-0.145
-0.12
-0.15
-0.185
-0.195
-0.22
-0.225
-0.23
-0.22
-0.215
-0.215
-0.225
-0.225
-0.23
-0.22
-0.22
-0.21
-0.205
-0.2
-0.22
-0.215
-0.215
-0.225
-0.23
-0.235
-0.23
-0.225
-0.225
-0.23
-0.22
-0.21
-0.2
-0.21
-0.23
-0.22
-0.235
-0.235
-0.23
-0.235
-0.23
-0.215
-0.215
-0.21
-0.22
-0.225
-0.22
-0.23
-0.24
-0.25
-0.245
-0.245
-0.245
-0.24
-0.22
-0.215
-0.215
-0.23
-0.24
-0.235
-0.25
-0.245
-0.235
-0.23
-0.235
-0.23
-0.23
-0.225
-0.235
-0.23
-0.23
-0.225
-0.225
-0.23
-0.225
-0.23
-0.215
-0.22
-0.21
-0.205
-0.21
-0.21
-0.205
-0.215
-0.215
-0.22
-0.22
-0.22
-0.205
-0.215
-0.19
-0.19
-0.19
-0.2
-0.195
-0.21
-0.205
-0.22
-0.22
-0.22
-0.215
-0.215
-0.205
-0.19
-0.2
-0.205
-0.215
-0.225
-0.24
-0.235
-0.24
-0.24
-0.225
-0.235
-0.22
-0.205
-0.23
-0.235
-0.25
-0.26
-0.28
-0.29
-0.31
-0.325
-0.33
-0.355
-0.365
-0.36
-0.38
-0.39
-0.42
-0.415
-0.43
-0.45
-0.455
-0.455
-0.455
-0.46
-0.46
-0.44
-0.455
-0.455
-0.455
-0.46
-0.48
-0.48
-0.485
-0.49
-0.48
-0.47
-0.47
-0.465
-0.46
-0.47
-0.455
-0.48
-0.48
-0.485
-0.485
-0.48
-0.48
-0.465
-0.46
-0.44
-0.455
-0.45
-0.455
-0.46
-0.465
-0.465
-0.47
-0.47
-0.47
-0.46
-0.445
-0.44
-0.445
-0.45
-0.45
-0.45
-0.475
-0.485
-0.49
-0.5
-0.485
-0.475
-0.475
-0.48
-0.475
-0.475
-0.48
-0.485
-0.49
-0.5
-0.505
-0.505
-0.505
-0.505
-0.515
-0.51
-0.505
-0.505
-0.505
-0.525
-0.525
-0.54
-0.54
-0.54
-0.535
-0.535
-0.535
-0.535
-0.53
-0.545
-0.545
-0.55
-0.545
-0.545
-0.565
-0.555
-0.545
-0.525
-0.515
-0.49
-0.49
-0.48
-0.485
-0.485
-0.49
-0.495
-0.48
-0.47
-0.45
-0.44
-0.415
-0.42
-0.41
-0.425
-0.45
-0.465
-0.465
-0.475
-0.465
-0.46
-0.455
-0.455
-0.46
-0.445
-0.46
-0.48
-0.5
-0.515
-0.55
-0.56
-0.59
-0.595
-0.6
-0.605
-0.595
-0.585
-0.59
-0.6
-0.605
-0.61
-0.625
-0.63
-0.645
-0.645
-0.635
-0.64
-0.635
-0.625
-0.625
-0.625
-0.63
-0.645
-0.665
-0.65
-0.66
-0.66
-0.645
-0.645
-0.65
-0.625
-0.635
-0.62
-0.625
-0.625
-0.625
-0.615
-0.61
-0.61
-0.595
-0.585
-0.57
-0.55
-0.52
-0.47
-0.4
-0.26
-0.105
0.125
0.41
0.725
1.05
1.29
1.42
1.355
1.07
0.59
-0.025
-0.635
-1.085
-1.34
-1.34
-1.17
-0.95
-0.745
-0.595
-0.5
-0.475
-0.485
-0.51
-0.55
-0.58
-0.6
-0.605
-0.605
-0.595
-0.595
-0.58
-0.565
-0.565
-0.575
-0.565
-0.58
-0.585
-0.585
-0.59
-0.595
-0.595
-0.59
-0.585
-0.565
-0.565
-0.565
-0.575
-0.57
-0.58
-0.59
-0.595
-0.595
-0.59
-0.585
-0.565
-0.565
-0.56
-0.575
-0.59
-0.59
-0.595
-0.6
-0.61
-0.6
-0.595
-0.575
-0.57
-0.57
-0.585
-0.575
-0.585
-0.575
-0.58
-0.59
-0.59
-0.58
-0.585
-0.575
-0.565
-0.56
-0.555
-0.555
-0.56
-0.565
-0.565
-0.575
-0.58
-0.58
-0.575
-0.565
-0.555
-0.54
-0.545
-0.535
-0.55
-0.545
-0.545
-0.545
-0.555
-0.535
-0.535
-0.535
-0.53
-0.51
-0.52
-0.515
-0.525
-0.525
-0.53
-0.53
-0.52
-0.52
-0.52
-0.505
-0.49
-0.48
-0.475
-0.475
-0.48
-0.48
-0.485
-0.495
-0.51
-0.51
-0.505
-0.515
-0.5
-0.495
-0.485
-0.485
-0.48
-0.485
-0.495
-0.505
-0.51
-0.51
-0.51
-0.515
-0.535
-0.53
-0.525
-0.55
-0.565
-0.585
-0.595
-0.625
-0.635
-0.65
-0.66
-0.665
-0.675
-0.69
-0.69
-0.72
-0.72
-0.745
-0.755
-0.765
-0.775
-0.78
-0.785
-0.78
-0.775
-0.77
-0.77
-0.78
-0.785
-0.78
-0.8
-0.81
-0.805
-0.795
-0.795
-0.785
-0.785
-0.77
-0.775
-0.785
-0.785
-0.775
-0.795
-0.79
-0.79
-0.785
-0.785
-0.765
-0.77
-0.765
-0.745
-0.75
-0.75
-0.75
-0.755
-0.75
-0.76
-0.75
-0.755
-0.755
-0.745
-0.725
-0.735
-0.73
-0.74
-0.75
-0.76
-0.75
-0.76
-0.765
-0.76
-0.755
-0.755
-0.745
-0.735
-0.745
-0.745
-0.765
-0.77
-0.78
-0.78
-0.78
-0.78
-0.78
-0.77
-0.77
-0.775
-0.775
-0.78
-0.785
-0.79
-0.8
-0.805
-0.8
-0.8
-0.81
-0.785
-0.78
-0.77
-0.79
-0.795
-0.79
-0.8
-0.81
-0.805
-0.805
-0.805
-0.795
-0.805
-0.8
-0.79
-0.8
-0.8
-0.81
-0.83
-0.825
-0.845
-0.84
-0.825
-0.82
-0.815
-0.81
-0.81
-0.81
-0.815
-0.815
-0.83
-0.825
-0.83
-0.835
-0.825
-0.81
-0.815
-0.805
-0.8
-0.8
-0.81
-0.81
-0.815
-0.83
-0.835
-0.835
-0.825
-0.825
-0.805
-0.805
-0.805
-0.8
-0.795
-0.815
-0.82
-0.81
-0.81
-0.81
-0.795
-0.775
-0.76
-0.745
-0.725
-0.735
-0.725
-0.73
-0.715
-0.71
-0.715
-0.71
-0.69
-0.68
-0.675
-0.675
-0.675
-0.685
-0.68
-0.705
-0.705
-0.7
-0.7
-0.715
-0.71
-0.71
-0.71
-0.715
-0.715
-0.735
-0.745
-0.765
-0.775
-0.8
-0.825
-0.815
-0.815
-0.815
-0.815
-0.81
-0.805
-0.81
-0.82
-0.83
-0.835
-0.845
-0.855
-0.85
-0.84
-0.835
-0.84
-0.825
-0.84
-0.845
-0.83
-0.825
-0.85
-0.855
-0.85
-0.84
-0.84
-0.815
-0.815
-0.81
-0.8
-0.785
-0.785
-0.78
-0.775
-0.775
-0.775
-0.76
-0.755
-0.73
-0.67
-0.59
-0.475
-0.3
-0.075
0.195
0.515
0.83
1.09
1.245
1.205
0.95
0.49
-0.085
-0.685
-1.175
-1.445
-1.49
-1.375
-1.195
-0.985
-0.815
-0.695
-0.645
-0.64
-0.67
-0.695
-0.73
-0.75
-0.76
-0.77
-0.77
-0.77
-0.76
-0.76
-0.76
-0.745
-0.735
-0.735
-0.735
-0.725
-0.735
-0.74
-0.745
-0.745
-0.75
-0.735
-0.74
-0.73
-0.725
-0.72
-0.74
-0.73
-0.74
-0.73
-0.745
-0.755
-0.745
-0.74
-0.73
-0.725
-0.71
-0.715
-0.71
-0.71
-0.725
-0.73
-0.74
-0.74
-0.735
-0.725
-0.725
-0.725
-0.73
-0.715
-0.72
-0.72
-0.72
-0.72
-0.72
-0.72
-0.74
-0.72
-0.71
-0.705
-0.7
-0.69
-0.675
-0.675
-0.69
-0.69
-0.695
-0.7
-0.7
-0.69
-0.68
-0.675
-0.665
-0.65
-0.65
-0.66
-0.66
-0.665
-0.66
-0.665
-0.65
-0.655
-0.63
-0.63
-0.62
-0.61
-0.605
-0.61
-0.615
-0.605
-0.615
-0.615
-0.615
-0.61
-0.6
-0.6
-0.59
-0.58
-0.585
-0.59
-0.59
-0.61
-0.6
-0.6
-0.61
-0.605
-0.6
-0.58
-0.58
-0.575
-0.58
-0.575
-0.58
-0.585
-0.615
-0.625
-0.64
-0.655
-0.65
-0.655
-0.675
-0.685
-0.7
-0.725
-0.745
-0.745
-0.77
-0.8
-0.82
-0.805
-0.81
-0.8
-0.81
-0.815
-0.835
-0.84
-0.835
-0.845
-0.845
-0.865
-0.85
-0.865
-0.85
-0.85
-0.85
-0.84
-0.84
-0.84
-0.855
-0.86
-0.875
-0.885
-0.88
-0.875
-0.87
-0.855
-0.845
-0.84
-0.85
-0.845
-0.845
-0.85
-0.85
-0.85
-0.85
-0.845
-0.84
-0.835
-0.825
-0.825
-0.815
-0.825
-0.825
-0.825
-0.85
-0.845
-0.83
-0.83
-0.815
-0.815
-0.83
-0.825
-0.82
-0.82
-0.825
-0.845
-0.845
-0.85
-0.86
-0.87
-0.855
-0.85
-0.845
-0.835
-0.845
-0.845
-0.85
-0.855
-0.86
-0.87
-0.875
-0.87
-0.87
-0.855
-0.865
-0.86
-0.86
-0.87
-0.875
-0.885
-0.88
-0.895
-0.885
-0.88
-0.87
-0.88
-0.865
-0.865
-0.875
-0.865
-0.88
-0.885
-0.89
-0.89
-0.895
-0.895
-0.89
-0.885
-0.885
-0.865
-0.87
-0.865
-0.89
-0.9
-0.885
-0.895
-0.895
-0.895
-0.9
-0.885
-0.87
-0.865
-0.86
-0.87
-0.88
-0.88
-0.87
-0.87
-0.88
-0.885
-0.87
-0.85
-0.84
-0.815
-0.805
-0.79
-0.795
-0.785
-0.79
-0.775
-0.775
-0.755
-0.745
-0.745
-0.74
-0.725
-0.74
-0.745
-0.74
-0.75
-0.755
-0.77
-0.76
-0.77
-0.78
-0.785
-0.78
-0.805
-0.81
-0.84
-0.855
-0.875
-0.875
-0.885
-0.89
-0.885
-0.88
-0.885
-0.87
-0.87
-0.87
-0.88
-0.88
-0.89
-0.89
-0.9
-0.895
-0.905
-0.895
-0.905
-0.895
-0.89
-0.885
-0.89
-0.895
-0.895
-0.89
-0.9
-0.9
-0.88
-0.865
-0.86
-0.835
-0.835
-0.83
-0.82
-0.815
-0.825
-0.825
-0.82
-0.805
-0.755
-0.66
-0.525
-0.31
-0.02
0.34
0.735
1.05
1.25
1.195
0.875
0.33
-0.31
-0.95
-1.395
-1.555
-1.485
-1.28
-1.05
-0.86
-0.74
-0.685
-0.705
-0.725
-0.77
-0.805
-0.81
-0.8
-0.79
-0.78
-0.78
-0.775
-0.77
-0.78
-0.78
-0.79
-0.78
-0.77
-0.76
-0.74
-0.74
-0.75
-0.745
-0.755
-0.75
-0.76
-0.77
-0.77
-0.76
-0.765
-0.755
-0.755
-0.725
-0.74
-0.73
-0.735
-0.745
-0.745
-0.755
-0.75
-0.75
-0.745
-0.75
-0.735
-0.735
-0.735
-0.73
-0.73
-0.735
-0.75
-0.75
-0.76
-0.74
-0.74
-0.75
-0.74
-0.735
-0.74
-0.735
-0.74
-0.73
-0.735
-0.74
-0.735
-0.73
-0.725
-0.72
-0.71
-0.7
-0.695
-0.705
-0.69
-0.7
-0.705
-0.71
-0.71
-0.7
-0.695
-0.69
-0.675
-0.66
-0.655
-0.675
-0.655
-0.68
-0.67
-0.68
-0.675
-0.665
-0.67
-0.65
-0.65
-0.645
-0.63
-0.635
-0.635
-0.645
-0.645
-0.645
-0.66
-0.66
-0.64
-0.635
-0.63
-0.625
-0.62
-0.63
-0.635
-0.635
-0.65
-0.665
-0.66
-0.655
-0.655
-0.65
-0.64
-0.635
-0.64
-0.645
-0.66
-0.69
-0.695
-0.715
-0.735
-0.745
-0.755
-0.765
-0.775
-0.77
-0.785
-0.795
-0.81
-0.83
-0.84
-0.865
-0.86
-0.87
-0.86
-0.865
-0.86
-0.855
-0.845
-0.865
-0.87
-0.88
-0.88
-0.895
-0.905
-0.89
-0.885
-0.875
-0.87
-0.865
-0.87
-0.875
-0.875
-0.875
-0.875
-0.885
-0.885
-0.885
-0.87
-0.865
-0.85
-0.84
-0.84
-0.845
-0.84
-0.835
-0.85
-0.85
-0.855
-0.855
-0.845
-0.835
-0.825
-0.815
-0.825
-0.82
-0.82
-0.835
-0.83
-0.855
-0.85
-0.855
-0.855
-0.845
-0.84
-0.845
-0.83
-0.845
-0.855
-0.86
-0.86
-0.865
-0.875
-0.89
-0.875
-0.87
-0.86
-0.86
-0.86
-0.865
-0.885
-0.89
-0.89
-0.905
-0.915
-0.895
-0.89
-0.885
-0.885
-0.865
-0.87
-0.875
-0.875
-0.885
-0.875
-0.885
-0.89
-0.89
-0.88
-0.885
-0.87
-0.87
-0.885
-0.87
-0.865
-0.87
-0.865
-0.86
-0.855
-0.845
-0.82
-0.815
-0.8
-0.785
-0.77
-0.775
-0.76
-0.755
-0.735
-0.735
-0.735
-0.75
-0.745
-0.75
-0.735
-0.725
-0.735
-0.73
-0.72
-0.725
-0.74
-0.74
-0.755
-0.77
-0.775
-0.785
-0.81
-0.82
-0.84
-0.855
-0.875
-0.88
-0.89
-0.895
-0.89
-0.895
-0.895
-0.89
-0.895
-0.89
-0.895
-0.89
-0.89
-0.895
-0.9
-0.9
-0.9
-0.895
-0.895
-0.895
-0.885
-0.875
-0.865
-0.88
-0.89
-0.885
-0.895
-0.885
-0.89
-0.87
-0.855
-0.85
-0.83
-0.815
-0.805
-0.8
-0.795
-0.8
-0.79
-0.76
-0.72
-0.64
-0.51
-0.315
-0.05
0.26
0.59
0.905
1.155
1.275
1.195
0.94
0.5
-0.07
-0.64
-1.115
-1.405
-1.505
-1.41
-1.23
-1.055
-0.9
-0.78
-0.73
-0.71
-0.725
-0.75
-0.76
-0.775
-0.78
-0.77
-0.775
-0.77
-0.775
-0.785
-0.785
-0.775
-0.77
-0.78
-0.765
-0.755
-0.76
-0.75
-0.75
-0.75
-0.76
-0.765
-0.765
-0.77
-0.765
-0.765
-0.76
-0.75
-0.74
-0.74
-0.745
-0.755
-0.755
-0.76
-0.755
-0.755
-0.76
-0.765
-0.75
-0.765
-0.75
-0.735
-0.74
-0.745
-0.75
-0.745
-0.745
-0.75
-0.75
-0.75
-0.735
-0.735
-0.72
-0.725
-0.73
-0.73
-0.74
-0.735
-0.76
-0.755
-0.745
-0.74
-0.725
-0.715
-0.7
-0.705
-0.705
-0.715
-0.71
-0.72
-0.715
-0.715
-0.71
-0.72
-0.695
-0.69
-0.685
-0.675
-0.68
-0.66
-0.675
-0.665
-0.67
-0.67
-0.66
-0.655
-0.645
-0.635
-0.64
-0.635
-0.635
-0.62
-0.615
-0.625
-0.62
-0.625
-0.615
-0.6
-0.59
-0.61
-0.585
-0.58
-0.58
-0.59
-0.595
-0.595
-0.595
-0.605
-0.59
-0.595
-0.59
-0.59
-0.585
-0.575
-0.575
-0.58
-0.575
