Lead II
-0.755
-0.765
-0.775
-0.78
-0.79
-0.785
-0.785
-0.78
-0.775
-0.76
-0.765
-0.775
-0.78
-0.795
-0.785
-0.785
-0.815
-0.805
-0.805
-0.785
-0.795
-0.785
-0.795
-0.78
-0.8
-0.8
-0.83
-0.82
-0.83
-0.825
-0.82
-0.81
-0.805
-0.795
-0.805
-0.815
-0.82
-0.835
-0.84
-0.845
-0.845
-0.86
-0.845
-0.845
-0.825
-0.825
-0.82
-0.825
-0.83
-0.845
-0.85
-0.85
-0.845
-0.86
-0.845
-0.83
-0.825
-0.82
-0.83
-0.825
-0.82
-0.845
-0.84
-0.855
-0.86
-0.865
-0.855
-0.845
-0.84
-0.83
-0.845
-0.835
-0.86
-0.87
-0.875
-0.87
-0.86
-0.865
-0.86
-0.855
-0.835
-0.83
-0.82
-0.845
-0.84
-0.85
-0.865
-0.87
-0.87
-0.875
-0.865
-0.85
-0.835
-0.835
-0.835
-0.845
-0.85
-0.855
-0.85
-0.87
-0.865
-0.86
-0.855
-0.86
-0.84
-0.84
-0.82
-0.835
-0.86
-0.855
-0.87
-0.865
-0.875
-0.88
-0.875
-0.865
-0.85
-0.83
-0.845
-0.845
-0.845
-0.86
-0.86
-0.875
-0.86
-0.87
-0.875
-0.86
-0.845
-0.845
-0.845
-0.845
-0.855
-0.855
-0.865
-0.855
-0.87
-0.865
-0.86
-0.85
-0.84
-0.825
-0.835
-0.83
-0.835
-0.85
-0.875
-0.87
-0.875
-0.86
-0.85
-0.84
-0.835
-0.84
-0.84
-0.84
-0.855
-0.855
-0.86
-0.87
-0.88
-0.87
-0.86
-0.85
-0.835
-0.83
-0.835
-0.835
-0.84
-0.85
-0.855
-0.85
-0.865
-0.855
-0.845
-0.835
-0.82
-0.81
-0.8
-0.8
-0.81
-0.81
-0.82
-0.81
-0.81
-0.785
-0.775
-0.745
-0.725
-0.72
-0.695
-0.7
-0.705
-0.72
-0.71
-0.715
-0.7
-0.69
-0.695
-0.69
-0.71
-0.71
-0.73
-0.725
-0.735
-0.745
-0.75
-0.765
-0.765
-0.77
-0.76
-0.755
-0.765
-0.765
-0.79
-0.805
-0.82
-0.85
-0.885
-0.91
-0.91
-0.905
-0.895
-0.885
-0.88
-0.88
-0.885
-0.885
-0.885
-0.91
-0.915
-0.92
-0.915
-0.915
-0.91
-0.905
-0.895
-0.88
-0.885
-0.885
-0.895
-0.905
-0.91
-0.905
-0.91
-0.905
-0.905
-0.89
-0.875
-0.86
-0.87
-0.85
-0.86
-0.865
-0.865
-0.87
-0.89
-0.865
-0.845
-0.815
-0.79
-0.76
-0.735
-0.675
-0.56
-0.385
-0.18
0.055
0.305
0.55
0.825
1.03
1.11
1.02
0.735
0.295
-0.25
-0.82
-1.295
-1.59
-1.66
-1.555
-1.35
-1.155
-1.02
-0.925
-0.9
-0.905
-0.93
-0.93
-0.925
-0.91
-0.895
-0.865
-0.865
-0.86
-0.865
-0.84
-0.87
-0.85
-0.85
-0.855
-0.865
-0.86
-0.87
-0.88
-0.87
-0.875
-0.85
-0.855
-0.86
-0.855
-0.855
-0.87
-0.885
-0.885
-0.895
-0.895
-0.895
-0.875
-0.875
-0.85
-0.865
-0.86
-0.86
-0.88
-0.885
-0.885
-0.89
-0.89
-0.88
-0.87
-0.86
-0.835
-0.85
-0.83
-0.84
-0.86
-0.85
-0.86
-0.865
-0.865
-0.85
-0.83
-0.82
-0.82
-0.795
-0.82
-0.805
-0.815
-0.82
-0.82
-0.815
-0.81
-0.8
-0.78
-0.77
-0.75
-0.75
-0.735
-0.735
-0.73
-0.715
-0.725
-0.72
-0.7
-0.685
-0.675
-0.64
-0.62
-0.605
-0.59
-0.57
-0.575
-0.575
-0.56
-0.56
-0.55
-0.54
-0.505
-0.495
-0.465
-0.455
-0.44
-0.445
-0.445
-0.45
-0.45
-0.43
-0.42
-0.425
-0.425
-0.43
-0.43
-0.44
-0.455
-0.48
-0.5
-0.53
-0.55
-0.585
-0.615
-0.635
-0.64
-0.64
-0.67
-0.67
-0.68
-0.7
-0.73
-0.755
-0.755
-0.76
-0.775
-0.775
-0.77
-0.77
-0.775
-0.77
-0.78
-0.78
-0.795
-0.79
-0.815
-0.825
-0.825
-0.83
-0.81
-0.8
-0.785
-0.79
-0.805
-0.81
-0.805
-0.815
-0.825
-0.83
-0.82
-0.815
-0.805
-0.805
-0.795
-0.805
-0.805
-0.81
-0.81
-0.81
-0.825
-0.82
-0.83
-0.82
-0.81
-0.8
-0.79
-0.795
-0.79
-0.795
-0.8
-0.81
-0.81
-0.815
-0.805
-0.805
-0.79
-0.795
-0.785
-0.78
-0.79
-0.8
-0.81
-0.82
-0.82
-0.83
-0.85
-0.84
-0.825
-0.825
-0.825
-0.83
-0.84
-0.86
-0.86
-0.85
-0.875
-0.885
-0.86
-0.855
-0.85
-0.84
-0.84
-0.84
-0.85
-0.855
-0.87
-0.865
-0.88
-0.875
-0.875
-0.885
-0.875
-0.875
-0.855
-0.87
-0.87
-0.875
-0.9
-0.915
-0.9
-0.91
-0.915
-0.91
-0.905
-0.895
-0.88
-0.89
-0.88
-0.89
-0.9
-0.895
-0.91
-0.905
-0.92
-0.92
-0.91
-0.895
-0.88
-0.88
-0.88
-0.89
-0.89
-0.91
-0.925
-0.93
-0.915
-0.91
-0.91
-0.91
-0.89
-0.9
-0.9
-0.89
-0.92
-0.94
-0.935
-0.93
-0.93
-0.925
-0.925
-0.92
-0.915
-0.91
-0.915
-0.92
-0.93
-0.93
-0.955
-0.95
-0.955
-0.945
-0.93
-0.915
-0.91
-0.915
-0.91
-0.94
-0.925
-0.94
-0.945
-0.945
-0.945
-0.93
-0.925
-0.91
-0.9
-0.91
-0.9
-0.92
-0.92
-0.915
-0.935
-0.94
-0.935
-0.935
-0.945
-0.92
-0.925
-0.935
-0.925
-0.945
-0.92
-0.945
-0.95
-0.95
-0.95
-0.95
-0.93
-0.925
-0.91
-0.915
-0.925
-0.93
-0.94
-0.95
-0.96
-0.955
-0.95
-0.955
-0.935
-0.92
-0.915
-0.915
-0.91
-0.92
-0.925
-0.94
-0.94
-0.94
-0.945
-0.95
-0.935
-0.925
-0.915
-0.92
-0.92
-0.915
-0.945
-0.945
-0.95
-0.95
-0.94
-0.935
-0.935
-0.93
-0.91
-0.93
-0.935
-0.935
-0.94
-0.935
-0.935
-0.935
-0.94
-0.925
-0.935
-0.925
-0.9
-0.915
-0.91
-0.915
-0.905
-0.925
-0.935
-0.94
-0.935
-0.94
-0.915
-0.885
-0.875
-0.86
-0.855
-0.835
-0.84
-0.84
-0.825
-0.84
-0.84
-0.835
-0.83
-0.8
-0.765
-0.755
-0.745
-0.72
-0.73
-0.745
-0.775
-0.795
-0.815
-0.82
-0.805
-0.805
-0.79
-0.78
-0.795
-0.805
-0.83
-0.855
-0.89
-0.905
-0.94
-0.94
-0.94
-0.935
-0.915
-0.92
-0.93
-0.945
-0.97
-0.97
-0.975
-0.99
-0.985
-0.98
-0.975
-0.965
-0.955
-0.96
-0.955
-0.965
-0.98
-0.985
-0.985
-1.0
-0.99
-0.98
-0.97
-0.95
-0.93
-0.93
-0.935
-0.955
-0.955
-0.97
-0.96
-0.96
-0.965
-0.955
-0.935
-0.925
-0.91
-0.89
-0.88
-0.88
-0.885
-0.88
-0.885
-0.865
-0.795
-0.655
-0.475
-0.25
-0.03
0.205
0.455
0.7
0.895
0.98
0.9
0.625
0.195
-0.295
-0.81
-1.245
-1.56
-1.705
-1.68
-1.57
-1.405
-1.28
-1.19
-1.14
-1.125
-1.08
-1.055
-1.005
-0.97
-0.94
-0.91
-0.905
-0.925
-0.935
-0.955
-0.97
-0.975
-0.965
-0.93
-0.93
-0.915
-0.9
-0.895
-0.905
-0.905
-0.95
-0.95
-0.945
-0.945
-0.93
-0.93
-0.93
-0.915
-0.915
-0.91
-0.925
-0.94
-0.95
-0.955
-0.96
-0.955
-0.95
-0.94
-0.93
-0.91
-0.9
-0.9
-0.92
-0.91
-0.915
-0.93
-0.945
-0.95
-0.94
-0.925
-0.915
-0.885
-0.905
-0.89
-0.88
-0.885
-0.895
-0.89
-0.885
-0.885
-0.88
-0.865
-0.85
-0.85
-0.845
-0.825
-0.845
-0.84
-0.835
-0.84
-0.845
-0.835
-0.825
-0.815
-0.79
-0.775
-0.76
-0.745
-0.76
-0.735
-0.74
-0.72
-0.725
-0.73
-0.715
-0.695
-0.645
-0.64
-0.62
-0.625
-0.615
-0.61
-0.61
-0.605
-0.59
-0.585
-0.575
-0.57
-0.56
-0.55
-0.54
-0.545
-0.56
-0.58
-0.595
-0.615
-0.625
-0.645
-0.65
-0.65
-0.65
-0.66
-0.68
-0.695
-0.705
-0.745
-0.765
-0.795
-0.825
-0.83
-0.83
-0.83
-0.83
-0.815
-0.825
-0.835
-0.84
-0.855
-0.88
-0.895
-0.88
-0.885
-0.875
-0.86
-0.865
-0.855
-0.85
-0.86
-0.86
-0.875
-0.865
-0.87
-0.88
-0.875
-0.88
-0.885
-0.865
-0.88
-0.87
-0.85
-0.86
-0.86
-0.87
-0.885
-0.885
-0.88
-0.875
-0.865
-0.85
-0.85
-0.82
-0.825
-0.825
-0.835
-0.84
-0.86
-0.86
-0.86
-0.855
-0.835
-0.85
-0.825
-0.835
-0.835
-0.82
-0.83
-0.85
-0.84
-0.87
-0.865
-0.85
-0.84
-0.83
-0.825
-0.83
-0.825
-0.85
-0.845
-0.87
-0.875
-0.865
-0.91
-0.895
-0.885
-0.865
-0.865
-0.88
-0.885
-0.895
-0.88
-0.895
-0.895
-0.905
-0.9
-0.89
-0.875
-0.87
-0.86
-0.86
-0.865
-0.865
-0.86
-0.88
-0.89
-0.905
-0.91
-0.905
-0.895
-0.9
-0.875
-0.88
-0.87
-0.885
-0.885
-0.9
-0.895
-0.915
-0.91
-0.895
-0.9
-0.905
-0.88
-0.885
-0.9
-0.895
-0.9
-0.895
-0.915
-0.915
-0.91
-0.91
-0.89
-0.895
-0.9
-0.895
-0.9
-0.895
-0.915
-0.91
-0.905
-0.915
-0.92
-0.91
-0.89
-0.89
-0.88
-0.885
-0.88
-0.885
-0.905
-0.91
-0.915
-0.93
-0.925
-0.91
-0.92
-0.915
-0.905
-0.89
-0.895
-0.89
-0.91
-0.92
-0.915
-0.935
-0.935
-0.91
-0.91
-0.895
-0.885
-0.875
-0.875
-0.89
-0.89
-0.91
-0.9
-0.885
-0.885
-0.875
-0.86
-0.835
-0.815
-0.8
-0.785
-0.77
-0.775
-0.78
-0.79
-0.79
-0.79
-0.765
-0.745
-0.725
-0.705
-0.705
-0.725
-0.735
-0.765
-0.775
-0.79
-0.795
-0.795
-0.785
-0.775
-0.785
-0.79
-0.805
-0.815
-0.845
-0.88
-0.905
-0.92
-0.935
-0.94
-0.93
-0.915
-0.925
-0.92
-0.905
-0.93
-0.93
-0.93
-0.935
-0.955
-0.95
-0.955
-0.955
-0.945
-0.93
-0.945
-0.945
-0.93
-0.935
-0.945
-0.95
-0.965
-0.965
-0.945
-0.955
-0.94
-0.93
-0.91
-0.915
-0.91
-0.91
-0.93
-0.94
-0.935
-0.93
-0.92
-0.905
-0.885
-0.885
-0.87
-0.85
-0.835
-0.82
-0.805
-0.765
-0.695
-0.555
-0.35
-0.11
0.11
0.36
0.64
0.905
1.09
1.145
1.025
0.725
0.27
-0.25
-0.82
-1.275
-1.585
-1.7
-1.64
-1.495
-1.31
-1.16
-1.075
-1.04
-1.02
-1.03
-1.015
-0.98
-0.925
-0.895
-0.865
-0.87
-0.875
-0.89
-0.9
-0.905
-0.92
-0.925
-0.91
-0.905
-0.885
-0.88
-0.875
-0.86
-0.87
-0.87
-0.87
-0.88
-0.885
-0.88
-0.88
-0.895
-0.88
-0.87
-0.86
-0.86
-0.86
-0.88
-0.88
-0.88
-0.895
-0.895
-0.89
-0.9
-0.895
-0.885
-0.865
-0.855
-0.86
-0.87
-0.88
-0.875
-0.885
-0.89
-0.895
-0.88
-0.87
-0.855
-0.845
-0.84
-0.83
-0.85
-0.835
-0.85
-0.85
-0.85
-0.835
-0.835
-0.825
-0.815
-0.805
-0.785
-0.765
-0.765
-0.765
-0.77
-0.77
-0.78
-0.765
-0.75
-0.74
-0.725
-0.685
-0.685
-0.675
-0.655
-0.655
-0.66
-0.66
-0.645
-0.65
-0.61
-0.605
-0.595
-0.575
-0.555
-0.535
-0.535
-0.53
-0.525
-0.52
-0.515
-0.5
-0.495
-0.48
-0.49
-0.47
-0.455
-0.455
-0.455
-0.475
-0.5
-0.525
-0.54
-0.56
-0.58
-0.585
-0.6
-0.61
-0.625
-0.645
-0.66
-0.675
-0.71
-0.73
-0.765
-0.775
-0.79
-0.795
-0.785
-0.775
-0.775
-0.79
-0.8
-0.815
-0.82
-0.845
-0.85
-0.86
-0.86
-0.85
-0.84
-0.835
-0.84
-0.83
-0.825
-0.835
-0.85
-0.86
-0.865
-0.87
-0.85
-0.865
-0.85
-0.825
-0.84
-0.82
-0.825
-0.83
-0.845
-0.855
-0.865
-0.875
-0.87
-0.845
-0.845
-0.835
-0.825
-0.82
-0.82
-0.82
-0.84
-0.84
-0.85
-0.855
-0.855
-0.84
-0.815
-0.81
-0.8
-0.805
-0.815
-0.805
-0.815
-0.83
-0.83
-0.84
-0.82
-0.83
-0.815
-0.815
-0.8
-0.805
-0.81
-0.82
-0.825
-0.84
-0.845
-0.855
-0.845
-0.85
-0.84
-0.84
-0.83
-0.83
-0.835
-0.845
-0.86
-0.87
-0.865
-0.89
-0.875
-0.875
-0.88
-0.865
-0.86
-0.85
-0.865
-0.855
-0.88
-0.88
-0.885
-0.88
-0.88
-0.885
-0.875
-0.865
-0.875
-0.875
-0.865
-0.87
-0.895
-0.895
-0.895
-0.9
-0.895
-0.885
-0.86
-0.885
-0.87
-0.87
-0.865
-0.895
-0.885
-0.905
-0.91
-0.915
-0.91
-0.89
-0.88
-0.885
-0.885
-0.885
-0.88
-0.885
-0.905
-0.9
-0.9
-0.9
-0.9
-0.91
-0.895
-0.885
-0.87
-0.875
-0.88
-0.895
-0.885
-0.9
-0.905
-0.9
-0.9
-0.895
-0.885
-0.89
-0.89
-0.88
-0.885
-0.89
-0.9
-0.905
-0.925
-0.925
-0.89
-0.895
-0.88
-0.88
-0.875
-0.87
-0.875
-0.88
-0.89
-0.895
-0.9
-0.9
-0.89
-0.905
-0.9
-0.87
-0.87
-0.86
-0.87
-0.88
-0.9
-0.91
-0.905
-0.895
-0.88
-0.89
-0.875
-0.86
-0.865
-0.855
-0.865
-0.87
-0.88
-0.88
-0.89
-0.875
-0.875
-0.865
-0.84
-0.82
-0.8
-0.78
-0.775
-0.76
-0.76
-0.755
-0.77
-0.765
-0.755
-0.745
-0.72
-0.705
-0.705
-0.72
-0.745
-0.76
-0.775
-0.79
-0.82
-0.805
-0.81
-0.795
-0.785
-0.78
-0.775
-0.785
-0.815
-0.835
-0.855
-0.88
-0.9
-0.915
-0.945
-0.945
-0.92
-0.92
-0.925
-0.935
-0.94
-0.935
-0.945
-0.955
-0.96
-0.95
-0.96
-0.975
-0.95
-0.955
-0.96
-0.935
-0.935
-0.945
-0.96
-0.96
-0.965
-0.965
-0.965
-0.96
-0.94
-0.925
-0.92
-0.915
-0.915
-0.91
-0.91
-0.925
-0.925
-0.925
-0.925
-0.895
-0.87
-0.855
-0.825
-0.81
-0.78
-0.68
-0.56
-0.365
-0.14
0.095
0.34
0.61
0.865
1.03
1.05
0.89
0.555
0.065
-0.485
-0.995
-1.405
-1.64
-1.675
-1.55
-1.355
-1.165
-1.04
-0.98
-0.97
-0.975
-1.0
-0.995
-0.97
-0.945
-0.925
-0.905
-0.89
-0.885
-0.895
-0.9
-0.915
-0.91
-0.915
-0.92
-0.925
-0.92
-0.925
-0.91
-0.9
-0.895
-0.895
-0.89
-0.885
-0.89
-0.92
-0.93
-0.935
-0.94
-0.925
-0.915
-0.905
-0.895
-0.9
-0.885
-0.89
-0.895
-0.91
-0.915
-0.92
-0.905
-0.91
-0.91
-0.89
-0.9
-0.865
-0.88
-0.87
-0.875
-0.885
-0.89
-0.9
-0.885
-0.89
-0.885
-0.88
-0.845
-0.835
-0.835
-0.855
-0.86
-0.855
-0.875
-0.865
-0.865
-0.865
-0.84
-0.815
-0.825
-0.8
-0.775
-0.78
-0.765
-0.775
-0.78
-0.77
-0.765
-0.745
-0.73
-0.715
-0.7
-0.69
-0.66
-0.64
-0.64
-0.64
-0.635
-0.64
-0.615
-0.615
-0.6
-0.565
-0.555
-0.525
-0.525
-0.51
-0.5
-0.5
-0.505
-0.505
-0.505
-0.5
-0.485
-0.475
-0.48
-0.48
-0.47
-0.505
-0.515
-0.54
-0.545
-0.565
-0.585
-0.61
-0.615
-0.63
-0.63
-0.66
-0.675
-0.695
-0.705
-0.735
-0.765
-0.77
-0.79
-0.8
-0.81
-0.805
-0.8
-0.805
-0.82
-0.84
-0.845
-0.85
-0.855
-0.865
-0.865
-0.875
-0.865
-0.855
-0.85
-0.84
-0.845
-0.845
-0.85
-0.85
-0.855
-0.885
-0.865
-0.875
-0.87
-0.865
-0.855
-0.845
-0.845
-0.85
-0.845
-0.86
-0.85
-0.865
-0.87
-0.865
-0.88
-0.875
-0.86
-0.84
-0.845
-0.84
-0.855
-0.865
-0.855
-0.86
-0.87
-0.865
-0.855
-0.85
-0.845
-0.83
-0.84
-0.84
-0.845
-0.855
-0.87
-0.885
-0.875
-0.88
-0.88
-0.865
-0.875
-0.87
-0.875
-0.875
-0.88
-0.875
-0.86
-0.89
-0.9
-0.91
-0.905
-0.9
-0.89
-0.88
-0.885
-0.88
-0.885
-0.9
-0.9
-0.91
-0.91
-0.91
-0.91
-0.925
-0.915
-0.9
-0.895
-0.9
-0.895
-0.91
-0.925
-0.925
-0.925
-0.925
-0.91
-0.905
-0.905
-0.915
-0.925
-0.925
-0.93
-0.945
-0.935
-0.94
-0.945
-0.945
-0.945
-0.945
-0.95
-0.92
-0.945
-0.93
-0.945
-0.95
-0.95
-0.965
-0.975
-0.97
-0.975
-0.945
-0.955
-0.93
-0.945
-0.925
-0.94
-0.94
-0.96
-0.955
-0.96
-0.955
-0.96
-0.945
-0.945
-0.945
-0.93
-0.945
-0.925
-0.935
-0.955
-0.95
-0.98
-0.985
-0.97
-0.955
-0.95
-0.95
-0.94
-0.935
-0.93
-0.94
-0.945
-0.955
-0.96
-0.95
-0.955
-0.96
-0.94
-0.95
-0.94
-0.925
-0.935
-0.945
-0.955
-0.965
-0.96
-0.96
-0.955
-0.94
-0.94
-0.915
-0.925
-0.92
-0.94
-0.94
-0.95
-0.96
-0.945
-0.955
-0.955
-0.935
-0.95
-0.94
-0.935
-0.93
-0.945
-0.94
-0.945
-0.94
-0.93
-0.9
-0.885
-0.845
-0.82
-0.805
-0.81
-0.815
-0.835
-0.845
-0.835
-0.82
-0.81
-0.795
-0.775
-0.765
-0.765
-0.79
-0.795
-0.815
-0.835
-0.825
-0.84
-0.835
-0.85
-0.845
-0.82
-0.825
-0.84
-0.855
-0.88
-0.93
-0.95
-0.975
-0.975
-0.97
-0.985
-0.99
-1.0
-1.005
-0.99
-0.99
-0.985
-0.975
-0.975
-0.985
-1.0
-1.01
-1.02
-1.02
-1.02
-1.01
-1.0
-0.98
-0.97
-0.985
-0.97
-0.98
-0.995
-1.0
-1.015
-1.01
-1.005
-1.0
-0.985
-0.955
-0.945
-0.94
-0.955
-0.95
-0.95
-0.965
-0.955
-0.935
-0.935
-0.945
-0.895
-0.855
-0.745
-0.57
-0.365
-0.135
0.09
0.325
0.595
0.835
0.995
0.975
0.775
0.41
-0.085
-0.615
-1.11
-1.505
-1.705
-1.755
-1.685
-1.55
-1.415
-1.3
-1.23
-1.16
-1.14
-1.095
-1.065
-1.03
-0.99
-0.98
-0.975
-0.99
-1.0
-1.0
-0.99
-0.99
-0.975
-0.985
-0.975
-0.97
-0.975
-0.99
-1.015
-1.01
-1.005
-0.985
-0.98
-0.955
-0.955
-0.95
-0.95
-0.965
-0.975
-0.98
-0.985
-0.98
-0.98
-0.965
-0.965
-0.97
-0.975
-0.975
-0.97
-0.97
-0.975
-0.985
-0.985
-0.985
-0.975
-0.96
-0.95
-0.955
-0.93
-0.94
-0.955
-0.96
-0.965
-0.97
-0.975
-0.985
-0.98
-0.96
-0.955
-0.945
-0.945
-0.945
-0.95
-0.94
-0.965
-0.96
-0.965
-0.95
-0.95
-0.925
-0.91
-0.905
-0.885
-0.885
-0.865
-0.885
-0.89
-0.885
-0.88
-0.88
-0.86
-0.855
-0.825
-0.805
-0.81
-0.785
-0.775
-0.795
-0.795
-0.8
-0.78
-0.765
-0.75
-0.735
-0.705
-0.67
-0.685
-0.665
-0.655
-0.67
-0.675
-0.695
-0.68
-0.665
-0.645
-0.63
-0.61
-0.605
-0.61
-0.61
-0.625
-0.645
-0.665
-0.67
-0.675
-0.7
-0.715
-0.71
-0.72
-0.725
-0.74
-0.76
-0.79
-0.8
-0.825
-0.85
-0.855
-0.89
-0.88
-0.87
-0.87
-0.86
-0.89
-0.885
-0.9
-0.9
-0.915
-0.925
-0.915
-0.93
-0.925
-0.92
-0.925
-0.91
-0.915
-0.92
-0.925
-0.925
-0.955
-0.95
-0.96
-0.955
-0.955
-0.935
-0.935
-0.925
-0.915
-0.905
-0.915
-0.93
-0.925
-0.95
-0.935
-0.935
-0.94
-0.92
-0.905
-0.89
-0.885
-0.89
-0.89
-0.905
-0.94
-0.91
-0.9
-0.9
-0.885
-0.885
-0.875
-0.87
-0.865
-0.865
-0.88
-0.865
-0.88
-0.9
-0.91
-0.905
-0.9
-0.905
-0.895
-0.875
-0.885
-0.88
-0.895
-0.895
-0.905
-0.92
-0.93
-0.92
-0.925
-0.925
-0.905
-0.895
-0.9
-0.91
-0.905
-0.93
-0.925
-0.94
-0.945
-0.95
-0.94
-0.94
-0.925
-0.9
-0.9
-0.91
-0.91
-0.945
-0.96
-0.935
-0.955
-0.96
-0.955
-0.95
-0.93
-0.93
-0.935
-0.94
-0.955
-0.95
-0.965
-0.955
-0.965
-0.97
-0.975
-0.955
-0.945
-0.935
-0.94
-0.925
-0.94
-0.96
-0.955
-0.96
-0.97
-0.965
-0.96
-0.955
-0.955
-0.935
-0.935
-0.94
-0.95
-0.945
-0.945
-0.96
-0.97
-0.97
-0.97
-0.945
-0.95
-0.94
-0.945
-0.94
-0.95
-0.965
-0.97
-0.97
-0.98
-0.96
-0.97
-0.955
-0.96
-0.96
-0.955
-0.94
-0.945
-0.95
-0.95
-0.955
-0.96
-0.965
-0.96
-0.955
-0.935
-0.915
-0.91
-0.895
-0.875
-0.865
-0.845
-0.85
-0.845
-0.855
-0.84
-0.815
-0.795
-0.785
-0.77
-0.755
-0.76
-0.77
-0.79
-0.81
-0.84
-0.85
-0.85
-0.85
-0.835
-0.815
-0.81
-0.83
-0.835
-0.87
-0.9
-0.93
-0.955
-0.975
-0.995
-0.97
-0.965
-0.975
-0.985
-0.98
-0.99
-0.995
-1.0
-1.015
-1.01
-1.01
-1.01
-1.0
-0.985
-0.975
-0.99
-0.98
-0.985
-0.985
-1.01
-1.015
-1.015
-1.01
-1.01
-0.995
-0.975
-0.975
-0.965
-0.99
-0.96
-0.98
-1.005
-1.005
-1.0
-0.975
-0.97
-0.96
-0.94
-0.92
-0.91
-0.9
-0.885
-0.88
-0.85
-0.81
-0.665
-0.485
-0.26
-0.01
0.24
0.505
0.775
1.01
1.115
1.05
0.845
0.46
-0.025
-0.565
-1.065
-1.455
-1.67
-1.71
-1.62
-1.465
-1.295
-1.18
-1.12
-1.09
-1.085
-1.065
-1.045
-0.995
-0.965
-0.935
-0.93
-0.93
-0.945
-0.95
-0.955
-0.98
-0.955
-0.975
-0.955
-0.95
-0.945
-0.915
-0.92
-0.935
-0.94
-0.935
-0.945
-0.95
-0.955
-0.965
-0.955
-0.94
-0.915
-0.915
-0.92
-0.925
-0.915
-0.925
-0.93
-0.935
-0.935
-0.95
-0.95
-0.93
-0.915
-0.91
-0.905
-0.905
-0.91
-0.915
-0.935
-0.935
-0.935
-0.935
-0.915
-0.925
-0.91
-0.89
-0.89
-0.9
-0.89
-0.89
-0.88
-0.875
-0.885
-0.895
-0.875
-0.87
-0.84
-0.83
-0.83
-0.82
-0.805
-0.805
-0.81
-0.81
-0.785
-0.78
-0.76
-0.74
-0.725
-0.695
-0.69
-0.69
-0.675
-0.66
-0.65
-0.65
-0.655
-0.65
-0.63
-0.62
-0.59
-0.56
-0.55
-0.535
-0.53
-0.53
-0.52
-0.545
-0.545
-0.53
-0.51
-0.495
-0.49
-0.48
-0.49
-0.495
-0.51
-0.525
-0.555
-0.555
-0.585
-0.615
-0.64
-0.64
-0.64
-0.655
-0.675
-0.68
-0.72
-0.74
-0.755
-0.79
-0.825
-0.84
-0.835
-0.825
-0.825
-0.825
-0.815
-0.83
-0.84
-0.855
-0.865
-0.875
-0.88
-0.89
-0.9
-0.88
-0.875
-0.855
-0.865
-0.865
-0.87
-0.885
-0.9
-0.905
-0.89
-0.905
-0.9
-0.885
-0.875
-0.86
-0.855
-0.86
-0.87
-0.86
-0.865
-0.875
-0.885
-0.875
-0.87
-0.865
-0.855
-0.84
-0.835
-0.845
-0.865
-0.86
-0.865
-0.87
-0.875
-0.885
-0.87
-0.875
-0.84
-0.83
-0.82
-0.835
-0.84
-0.825
-0.85
-0.865
-0.855
-0.87
-0.855
-0.855
-0.845
-0.835
-0.83
-0.84
-0.845
-0.86
-0.855
-0.885
-0.885
-0.895
-0.89
-0.865
-0.86
-0.845
-0.875
-0.88
-0.885
-0.875
-0.885
-0.895
-0.89
-0.9
-0.91
-0.895
-0.89
-0.875
-0.87
-0.88
-0.89
-0.9
-0.905
-0.925
-0.93
-0.935
-0.92
-0.925
-0.885
-0.885
-0.865
-0.885
-0.9
-0.895
-0.915
-0.905
-0.91
-0.92
-0.895
-0.9
-0.915
-0.885
-0.875
-0.88
-0.885
-0.9
-0.895
-0.91
-0.94
-0.925
-0.92
-0.91
-0.915
-0.905
-0.89
-0.895
-0.9
-0.9
-0.91
-0.93
-0.935
-0.93
-0.925
-0.925
-0.92
-0.91
-0.91
-0.9
-0.905
-0.93
-0.93
-0.935
-0.93
-0.95
-0.92
-0.93
-0.905
-0.9
-0.9
-0.9
-0.89
-0.91
-0.91
-0.92
-0.92
-0.915
-0.92
-0.915
-0.915
-0.895
-0.895
-0.895
-0.895
-0.91
-0.915
-0.925
-0.94
-0.945
-0.94
-0.925
-0.925
-0.905
-0.905
-0.905
-0.93
-0.94
-0.935
-0.955
-0.95
-0.945
-0.94
-0.92
-0.91
-0.9
-0.9
-0.89
-0.89
-0.885
-0.88
-0.87
-0.845
-0.845
-0.815
-0.8
-0.79
-0.77
-0.765
-0.77
-0.77
-0.765
-0.77
-0.77
-0.795
-0.81
-0.82
-0.82
-0.805
-0.815
-0.815
-0.8
-0.83
-0.835
-0.85
-0.86
-0.87
-0.88
-0.885
-0.895
-0.9
-0.915
-0.93
-0.95
-0.96
-0.98
-0.975
-0.98
-0.995
-1.01
-1.01
-0.995
-0.985
-0.985
-0.96
-0.98
-0.975
-0.99
-1.0
-1.0
-0.995
-0.995
-0.99
-0.985
-0.985
-0.97
-0.97
-0.97
-0.975
-0.965
-0.97
-0.98
-0.995
-0.98
-0.97
-0.965
-0.955
-0.94
-0.94
-0.935
-0.93
-0.93
-0.915
-0.925
-0.92
-0.89
-0.865
-0.795
-0.67
-0.525
-0.29
-0.06
0.18
0.42
0.67
0.91
1.05
1.025
0.805
0.425
-0.07
-0.635
-1.145
-1.51
-1.68
-1.66
-1.505
-1.33
-1.18
-1.065
-1.035
-1.015
-0.99
-0.985
-0.98
-0.96
-0.94
-0.925
-0.925
-0.945
-0.95
-0.965
-0.97
-0.965
-0.94
-0.935
-0.92
-0.915
-0.925
-0.93
-0.94
-0.93
-0.965
-0.955
-0.945
-0.94
-0.915
-0.92
-0.91
-0.92
-0.92
-0.92
-0.93
-0.935
-0.94
-0.955
-0.935
-0.94
-0.945
-0.935
-0.915
-0.9
-0.91
-0.925
-0.935
-0.945
-0.93
-0.935
-0.93
-0.915
-0.915
-0.895
-0.875
-0.875
-0.885
-0.885
-0.9
-0.9
-0.895
-0.89
-0.88
-0.875
-0.865
-0.845
-0.825
-0.83
-0.825
-0.825
-0.83
-0.835
-0.83
-0.83
-0.805
-0.79
-0.78
-0.76
-0.755
-0.73
-0.725
-0.72
-0.72
-0.705
-0.7
-0.685
-0.67
-0.645
-0.635
-0.62
-0.59
-0.585
-0.555
-0.575
-0.59
-0.575
-0.555
-0.545
-0.54
-0.52
-0.505
-0.485
-0.465
-0.46
-0.46
-0.455
-0.48
-0.49
-0.51
-0.52
-0.53
-0.54
-0.555
-0.555
-0.575
-0.59
-0.62
-0.635
-0.67
-0.715
-0.74
-0.755
-0.77
-0.775
-0.785
-0.775
-0.79
-0.81
-0.81
-0.83
-0.845
-0.865
-0.89
-0.875
-0.885
-0.88
-0.865
-0.855
-0.86
-0.87
-0.875
-0.875
-0.885
-0.895
-0.905
-0.885
-0.9
-0.905
-0.88
-0.87
-0.875
-0.865
-0.855
-0.865
-0.885
-0.88
-0.89
-0.89
-0.885
-0.91
-0.865
-0.855
-0.86
-0.865
-0.865
-0.875
-0.885
-0.89
-0.89
-0.89
-0.89
-0.895
-0.88
-0.86
-0.865
-0.88
-0.855
-0.865
-0.885
-0.895
-0.905
-0.905
-0.9
-0.88
-0.89
-0.88
-0.875
-0.87
-0.865
-0.875
-0.885
-0.895
-0.905
-0.905
-0.905
-0.91
-0.89
-0.895
-0.895
-0.905
-0.92
-0.92
-0.92
-0.925
-0.93
-0.93
-0.93
-0.93
-0.93
-0.93
-0.915
-0.935
-0.925
-0.93
-0.95
-0.96
-0.97
-0.96
-0.955
-0.955
-0.94
-0.945
-0.94
-0.94
-0.93
-0.935
-0.945
-0.955
-0.96
-0.97
-0.96
-0.945
-0.955
-0.95
-0.945
-0.955
-0.94
-0.95
-0.96
-0.975
-0.995
-0.985
-0.975
-0.965
-0.965
-0.945
-0.935
-0.94
-0.94
-0.96
-0.965
-0.97
-0.985
-0.995
-0.985
-0.98
-0.975
-0.98
-0.945
-0.945
-0.965
-0.985
-0.98
-0.98
-0.985
-0.98
-0.975
-0.965
-0.955
-0.96
-0.95
-0.94
-0.955
-0.96
-0.95
-0.95
-0.96
-0.965
-0.965
-0.965
-0.945
-0.965
-0.935
-0.945
-0.945
-0.95
-0.975
-0.97
-0.98
-0.99
-0.99
-0.98
-0.96
-0.96
-0.95
-0.955
-0.945
-0.97
-0.97
-0.975
-0.99
-1.0
-0.98
-0.99
-0.975
-0.955
-0.945
-0.95
-0.94
-0.955
-0.95
-0.975
-0.975
-0.965
-0.96
-0.965
-0.96
-0.95
-0.93
-0.915
-0.935
-0.955
-0.96
-0.965
-0.97
-0.955
-0.945
-0.945
-0.92
-0.89
-0.885
-0.85
-0.85
-0.865
-0.845
-0.865
-0.875
-0.855
-0.835
-0.8
-0.775
-0.76
-0.765
-0.775
-0.8
-0.84
-0.845
-0.865
-0.865
-0.86
-0.865
-0.86
-0.87
-0.87
-0.88
-0.905
-0.925
-0.955
-0.995
-0.995
-1.01
-1.04
-1.03
-1.01
-1.03
-1.025
-1.005
-1.01
-1.0
-1.015
-1.02
-1.035
-1.035
-1.035
-1.03
-1.025
-1.015
-1.005
-1.015
-0.995
-0.995
-1.005
-1.02
-1.02
-1.02
-1.025
-1.02
-1.015
-1.005
-0.985
-0.985
-0.97
-0.955
-0.965
-0.985
-0.975
-0.975
-0.97
-0.965
-0.94
-0.92
-0.91
-0.89
-0.84
-0.745
-0.6
-0.4
-0.17
0.075
0.335
0.605
0.885
1.05
1.06
0.88
0.475
-0.03
-0.605
-1.15
-1.54
-1.76
-1.79
-1.715
-1.56
-1.41
-1.3
-1.22
-1.17
-1.115
-1.08
-1.065
-1.04
-1.01
-0.975
-0.975
-0.975
-0.98
-0.995
-0.985
-0.99
-1.0
-0.995
-1.01
-1.01
-0.995
-0.99
-0.985
-0.995
-1.005
-0.975
-0.975
-0.975
-0.975
-0.995
-0.995
-1.015
-1.01
-1.015
-1.025
-1.0
-0.985
-0.98
-0.97
-0.98
-0.98
-0.97
-0.99
-0.995
-0.98
-0.985
-1.0
-1.005
-0.99
-0.975
-0.965
-0.96
-0.965
-0.97
-0.975
-0.97
-0.99
-0.975
-0.975
-0.975
-0.955
-0.935
-0.935
-0.925
-0.925
-0.92
-0.93
-0.945
-0.935
-0.94
-0.92
-0.9
-0.89
-0.865
-0.86
-0.845
-0.83
-0.84
-0.835
-0.84
-0.83
-0.83
-0.81
-0.805
-0.785
-0.775
-0.755
-0.74
-0.735
-0.735
-0.715
-0.71
-0.71
-0.72
-0.705
-0.685
-0.665
-0.645
-0.63
-0.625
-0.61
-0.615
-0.62
-0.62
-0.635
-0.635
-0.64
-0.63
-0.645
-0.65
-0.635
-0.665
-0.68
-0.705
-0.73
-0.755
-0.765
-0.77
-0.795
-0.795
-0.815
-0.81
-0.815
-0.825
-0.84
-0.845
-0.865
-0.89
-0.915
-0.92
-0.925
-0.915
-0.925
-0.895
-0.895
-0.91
-0.915
-0.905
-0.925
-0.935
-0.945
-0.95
-0.955
-0.96
-0.95
-0.915
-0.915
-0.925
-0.93
-0.94
-0.95
-0.95
-0.965
-0.965
-0.965
-0.955
-0.94
-0.915
-0.905
-0.895
-0.9
-0.915
-0.925
-0.915
-0.92
-0.935
-0.92
-0.92
-0.905
-0.885
-0.885
-0.87
-0.87
-0.88
-0.895
-0.905
-0.9
-0.895
-0.9
-0.885
-0.89
-0.86
-0.875
-0.875
-0.89
-0.89
-0.88
-0.885
-0.895
-0.91
-0.905
-0.925
-0.91
-0.885
-0.9
-0.915
-0.91
-0.905
-0.92
-0.925
-0.935
-0.945
-0.94
-0.935
-0.925
-0.92
-0.915
-0.92
-0.91
-0.9
-0.925
-0.94
-0.945
-0.95
-0.935
-0.95
-0.94
-0.925
-0.925
-0.935
-0.93
-0.935
-0.945
-0.95
-0.955
-0.95
-0.965
-0.95
-0.935
-0.935
-0.925
-0.915
-0.93
-0.93
-0.945
-0.95
-0.95
-0.955
-0.97
-0.955
-0.955
-0.95
-0.95
-0.935
-0.955
-0.955
-0.965
-0.97
-0.965
-0.97
-0.96
-0.955
-0.945
-0.94
-0.915
-0.935
-0.93
-0.94
-0.955
-0.965
-0.965
-0.975
-0.975
-0.975
-0.95
-0.94
-0.945
-0.935
-0.935
-0.94
-0.96
-0.96
-0.965
-0.97
-0.975
-0.97
-0.955
-0.945
-0.94
-0.935
-0.93
-0.94
-0.945
-0.95
-0.945
-0.96
-0.955
-0.945
-0.94
-0.935
-0.925
-0.93
-0.915
-0.915
-0.925
-0.93
-0.945
-0.945
-0.945
-0.93
-0.925
-0.9
-0.885
-0.85
-0.84
-0.835
-0.85
-0.85
-0.845
-0.86
-0.845
-0.825
-0.815
-0.785
-0.755
-0.745
-0.745
-0.745
-0.765
-0.795
-0.825
-0.835
-0.84
-0.845
-0.81
-0.81
-0.815
-0.815
-0.815
-0.84
-0.87
-0.9
-0.93
-0.955
-0.98
-0.965
-0.965
-0.95
-0.95
-0.965
-0.965
-0.985
-1.0
-1.01
-1.005
-1.01
-1.015
-0.995
-0.99
-0.99
-0.97
-0.975
-0.965
-0.975
-0.97
-0.985
-0.99
-0.985
-0.99
-0.985
-0.985
-0.97
-0.98
-0.95
-0.97
-0.96
-0.96
-0.96
-0.955
-0.955
-0.96
-0.955
-0.925
-0.91
-0.88
-0.865
-0.88
-0.875
-0.86
-0.845
-0.795
-0.7
-0.495
-0.25
0.02
0.31
0.615
