Lead II
-1.08
-1.07
-1.095
-1.095
-1.115
-1.11
-1.125
-1.12
-1.11
-1.12
-1.11
-1.09
-1.09
-1.1
-1.105
-1.12
-1.12
-1.13
-1.135
-1.13
-1.145
-1.13
-1.115
-1.105
-1.11
-1.115
-1.125
-1.13
-1.135
-1.145
-1.145
-1.145
-1.14
-1.12
-1.115
-1.12
-1.115
-1.12
-1.12
-1.125
-1.13
-1.145
-1.135
-1.13
-1.145
-1.12
-1.115
-1.1
-1.09
-1.11
-1.095
-1.095
-1.105
-1.09
-1.065
-1.055
-1.02
-0.985
-0.97
-0.955
-0.935
-0.93
-0.925
-0.91
-0.87
-0.835
-0.8
-0.78
-0.765
-0.785
-0.775
-0.785
-0.77
-0.77
-0.79
-0.8
-0.84
-0.885
-0.935
-0.995
-1.06
-1.085
-1.125
-1.13
-1.135
-1.15
-1.14
-1.15
-1.155
-1.16
-1.165
-1.17
-1.175
-1.175
-1.155
-1.17
-1.16
-1.16
-1.165
-1.175
-1.195
-1.185
-1.175
-1.185
-1.18
-1.165
-1.17
-1.145
-1.14
-1.17
-1.145
-1.165
-1.19
-1.22
-1.225
-1.2
-1.135
-0.995
-0.785
-0.485
-0.115
0.265
0.63
0.89
1.035
1.07
1.005
0.815
0.475
0.05
-0.475
-0.93
-1.225
-1.31
-1.23
-1.095
-0.99
-0.935
-0.955
-0.99
-1.05
-1.125
-1.145
-1.16
-1.16
-1.165
-1.165
-1.16
-1.175
-1.17
-1.18
-1.19
-1.195
-1.19
-1.175
-1.195
-1.185
-1.175
-1.18
-1.185
-1.195
-1.215
-1.21
-1.225
-1.215
-1.22
-1.215
-1.19
-1.18
-1.185
-1.175
-1.19
-1.2
-1.21
-1.22
-1.215
-1.215
-1.215
-1.18
-1.18
-1.175
-1.175
-1.17
-1.175
-1.19
-1.185
-1.18
-1.19
-1.185
-1.165
-1.145
-1.14
-1.115
-1.125
-1.115
-1.115
-1.115
-1.115
-1.105
-1.105
-1.095
-1.065
-1.05
-1.035
-1.005
-1.015
-1.005
-0.99
-0.975
-0.965
-0.95
-0.94
-0.915
-0.9
-0.855
-0.83
-0.815
-0.78
-0.78
-0.76
-0.75
-0.755
-0.735
-0.705
-0.695
-0.66
-0.645
-0.61
-0.6
-0.605
-0.605
-0.58
-0.58
-0.59
-0.575
-0.6
-0.585
-0.61
-0.615
-0.605
-0.615
-0.635
-0.67
-0.71
-0.75
-0.79
-0.795
-0.84
-0.87
-0.9
-0.91
-0.93
-0.955
-1.0
-0.995
-1.025
-1.04
-1.065
-1.075
-1.085
-1.1
-1.1
-1.105
-1.1
-1.115
-1.12
-1.12
-1.14
-1.14
-1.14
-1.15
-1.16
-1.17
-1.175
-1.145
-1.14
-1.13
-1.125
-1.135
-1.135
-1.125
-1.135
-1.15
-1.135
-1.145
-1.14
-1.135
-1.125
-1.11
-1.125
-1.125
-1.13
-1.12
-1.13
-1.15
-1.145
-1.13
-1.105
-1.105
-1.1
-1.095
-1.11
-1.105
-1.1
-1.1
-1.115
-1.12
-1.13
-1.13
-1.125
-1.115
-1.115
-1.11
-1.12
-1.11
-1.12
-1.115
-1.155
-1.15
-1.17
-1.16
-1.145
-1.135
-1.13
-1.12
-1.115
-1.13
-1.145
-1.15
-1.15
-1.17
-1.16
-1.165
-1.165
-1.155
-1.15
-1.14
-1.155
-1.16
-1.16
-1.18
-1.185
-1.19
-1.195
-1.18
-1.195
-1.165
-1.155
-1.155
-1.145
-1.145
-1.155
-1.16
-1.17
-1.18
-1.18
-1.185
-1.18
-1.175
-1.165
-1.145
-1.16
-1.145
-1.155
-1.155
-1.17
-1.155
-1.15
-1.125
-1.09
-1.07
-1.045
-1.025
-1.025
-1.015
-1.02
-1.005
-0.98
-0.94
-0.91
-0.855
-0.815
-0.795
-0.805
-0.815
-0.83
-0.845
-0.87
-0.88
-0.885
-0.89
-0.925
-0.985
-1.03
-1.07
-1.115
-1.135
-1.175
-1.205
-1.215
-1.215
-1.225
-1.235
-1.25
-1.24
-1.235
-1.21
-1.21
-1.195
-1.19
-1.195
-1.205
-1.215
-1.22
-1.22
-1.235
-1.245
-1.235
-1.225
-1.215
-1.22
-1.215
-1.22
-1.21
-1.22
-1.21
-1.225
-1.24
-1.27
-1.29
-1.29
-1.29
-1.23
-1.11
-0.95
-0.735
-0.445
-0.11
0.26
0.59
0.83
0.955
1.01
0.93
0.745
0.375
-0.14
-0.69
-1.15
-1.425
-1.44
-1.345
-1.16
-1.025
-0.97
-0.965
-1.015
-1.055
-1.125
-1.185
-1.205
-1.205
-1.215
-1.215
-1.225
-1.215
-1.21
-1.21
-1.2
-1.22
-1.21
-1.22
-1.245
-1.235
-1.25
-1.245
-1.245
-1.225
-1.235
-1.22
-1.23
-1.235
-1.215
-1.24
-1.24
-1.23
-1.235
-1.23
-1.235
-1.235
-1.235
-1.215
-1.205
-1.195
-1.205
-1.215
-1.23
-1.23
-1.245
-1.255
-1.23
-1.24
-1.2
-1.19
-1.18
-1.175
-1.185
-1.175
-1.185
-1.185
-1.19
-1.175
-1.17
-1.155
-1.13
-1.14
-1.135
-1.12
-1.12
-1.125
-1.1
-1.11
-1.105
-1.09
-1.08
-1.065
-1.05
-1.025
-1.01
-0.98
-0.98
-0.965
-0.94
-0.945
-0.93
-0.93
-0.905
-0.89
-0.86
-0.825
-0.805
-0.805
-0.775
-0.77
-0.76
-0.78
-0.765
-0.745
-0.725
-0.69
-0.685
-0.67
-0.67
-0.66
-0.64
-0.64
-0.65
-0.66
-0.675
-0.675
-0.685
-0.68
-0.705
-0.72
-0.735
-0.755
-0.78
-0.825
-0.865
-0.91
-0.94
-0.965
-1.01
-1.005
-1.025
-1.035
-1.05
-1.07
-1.085
-1.115
-1.145
-1.145
-1.165
-1.185
-1.18
-1.18
-1.185
-1.17
-1.16
-1.18
-1.18
-1.19
-1.205
-1.21
-1.225
-1.225
-1.23
-1.22
-1.205
-1.21
-1.195
-1.205
-1.2
-1.195
-1.205
-1.21
-1.205
-1.21
-1.195
-1.185
-1.175
-1.155
-1.135
-1.145
-1.16
-1.15
-1.155
-1.16
-1.17
-1.175
-1.17
-1.175
-1.155
-1.15
-1.145
-1.15
-1.15
-1.15
-1.155
-1.165
-1.175
-1.185
-1.185
-1.17
-1.18
-1.18
-1.17
-1.16
-1.15
-1.165
-1.17
-1.17
-1.18
-1.19
-1.17
-1.175
-1.18
-1.18
-1.17
-1.175
-1.18
-1.195
-1.195
-1.195
-1.19
-1.215
-1.215
-1.22
-1.195
-1.19
-1.185
-1.19
-1.19
-1.205
-1.21
-1.21
-1.215
-1.22
-1.215
-1.225
-1.225
-1.195
-1.19
-1.19
-1.21
-1.225
-1.24
-1.235
-1.23
-1.23
-1.235
-1.235
-1.21
-1.205
-1.21
-1.185
-1.215
-1.23
-1.24
-1.245
-1.24
-1.225
-1.19
-1.185
-1.15
-1.125
-1.09
-1.08
-1.065
-1.07
-1.06
-1.045
-1.025
-0.99
-0.95
-0.895
-0.865
-0.845
-0.845
-0.865
-0.885
-0.885
-0.9
-0.91
-0.92
-0.95
-0.99
-1.04
-1.075
-1.115
-1.145
-1.185
-1.215
-1.23
-1.245
-1.25
-1.275
-1.265
-1.265
-1.27
-1.27
-1.265
-1.26
-1.275
-1.28
-1.3
-1.315
-1.32
-1.33
-1.33
-1.31
-1.285
-1.275
-1.28
-1.285
-1.285
-1.295
-1.295
-1.26
-1.265
-1.29
-1.29
-1.295
-1.31
-1.325
-1.335
-1.305
-1.27
-1.13
-0.945
-0.675
-0.33
0.065
0.445
0.765
0.96
1.035
0.995
0.825
0.515
0.03
-0.54
-1.045
-1.39
-1.485
-1.385
-1.24
-1.095
-1.015
-1.035
-1.075
-1.125
-1.2
-1.25
-1.255
-1.29
-1.295
-1.295
-1.275
-1.27
-1.285
-1.28
-1.26
-1.265
-1.26
-1.275
-1.275
-1.295
-1.31
-1.3
-1.315
-1.3
-1.285
-1.28
-1.275
-1.275
-1.285
-1.285
-1.305
-1.31
-1.305
-1.29
-1.295
-1.295
-1.285
-1.275
-1.255
-1.26
-1.26
-1.26
-1.27
-1.27
-1.265
-1.26
-1.26
-1.26
-1.225
-1.23
-1.2
-1.19
-1.185
-1.19
-1.2
-1.19
-1.19
-1.195
-1.17
-1.165
-1.15
-1.125
-1.115
-1.09
-1.09
-1.07
-1.08
-1.09
-1.06
-1.04
-1.02
-1.005
-0.97
-0.94
-0.92
-0.89
-0.88
-0.87
-0.86
-0.83
-0.82
-0.81
-0.78
-0.75
-0.735
-0.715
-0.69
-0.685
-0.68
-0.65
-0.645
-0.635
-0.65
-0.635
-0.625
-0.615
-0.61
-0.61
-0.61
-0.63
-0.65
-0.7
-0.745
-0.745
-0.775
-0.815
-0.85
-0.855
-0.88
-0.915
-0.93
-0.96
-0.99
-1.01
-1.025
-1.06
-1.085
-1.095
-1.11
-1.095
-1.1
-1.1
-1.1
-1.1
-1.125
-1.105
-1.13
-1.135
-1.14
-1.15
-1.145
-1.135
-1.135
-1.12
-1.115
-1.11
-1.12
-1.135
-1.14
-1.155
-1.15
-1.15
-1.145
-1.135
-1.135
-1.105
-1.105
-1.09
-1.11
-1.11
-1.12
-1.115
-1.125
-1.125
-1.13
-1.11
-1.105
-1.08
-1.065
-1.085
-1.08
-1.09
-1.09
-1.1
-1.115
-1.12
-1.105
-1.1
-1.09
-1.085
-1.075
-1.07
-1.09
-1.09
-1.1
-1.11
-1.13
-1.12
-1.12
-1.11
-1.105
-1.1
-1.085
-1.085
-1.095
-1.1
-1.11
-1.125
-1.125
-1.125
-1.125
-1.12
-1.125
-1.11
-1.1
-1.1
-1.1
-1.105
-1.135
-1.15
-1.16
-1.145
-1.13
-1.125
-1.12
-1.125
-1.115
-1.12
-1.11
-1.11
-1.14
-1.125
-1.135
-1.15
-1.135
-1.125
-1.12
-1.11
-1.11
-1.115
-1.095
-1.11
-1.125
-1.14
-1.145
-1.14
-1.135
-1.125
-1.12
-1.11
-1.115
-1.09
-1.08
-1.085
-1.085
-1.08
-1.06
-1.06
-1.04
-1.025
-0.985
-0.97
-0.97
-0.95
-0.935
-0.925
-0.895
-0.885
-0.84
-0.82
-0.775
-0.765
-0.76
-0.76
-0.765
-0.775
-0.775
-0.775
-0.795
-0.825
-0.865
-0.91
-0.975
-1.025
-1.06
-1.105
-1.105
-1.105
-1.115
-1.11
-1.13
-1.135
-1.155
-1.15
-1.145
-1.17
-1.17
-1.145
-1.145
-1.135
-1.135
-1.14
-1.15
-1.16
-1.15
-1.16
-1.16
-1.155
-1.145
-1.14
-1.13
-1.12
-1.135
-1.135
-1.145
-1.145
-1.165
-1.185
-1.205
-1.22
-1.18
-1.1
-0.945
-0.72
-0.45
-0.09
0.285
0.635
0.9
1.055
1.08
1.025
0.855
0.535
0.1
-0.43
-0.905
-1.2
-1.29
-1.23
-1.095
-0.97
-0.92
-0.915
-0.935
-1.01
-1.045
-1.1
-1.13
-1.125
-1.145
-1.155
-1.145
-1.16
-1.165
-1.15
-1.155
-1.15
-1.16
-1.16
-1.155
-1.165
-1.185
-1.18
-1.19
-1.195
-1.19
-1.185
-1.18
-1.185
-1.175
-1.17
-1.18
-1.18
-1.18
-1.215
-1.205
-1.21
-1.215
-1.195
-1.175
-1.175
-1.185
-1.165
-1.17
-1.165
-1.175
-1.195
-1.18
-1.2
-1.175
-1.18
-1.165
-1.145
-1.145
-1.145
-1.14
-1.15
-1.15
-1.14
-1.13
-1.135
-1.105
-1.09
-1.075
-1.07
-1.055
-1.04
-1.035
-1.04
-1.02
-1.03
-1.015
-1.015
-0.995
-0.95
-0.935
-0.905
-0.88
-0.85
-0.835
-0.82
-0.815
-0.81
-0.8
-0.775
-0.76
-0.73
-0.71
-0.69
-0.655
-0.635
-0.63
-0.625
-0.615
-0.61
-0.605
-0.605
-0.595
-0.585
-0.57
-0.6
-0.605
-0.6
-0.615
-0.645
-0.68
-0.705
-0.735
-0.78
-0.8
-0.855
-0.86
-0.875
-0.89
-0.91
-0.93
-0.965
-0.99
-1.02
-1.03
-1.055
-1.07
-1.085
-1.09
-1.09
-1.095
-1.09
-1.105
-1.125
-1.125
-1.125
-1.145
-1.13
-1.155
-1.15
-1.15
-1.14
-1.14
-1.135
-1.135
-1.135
-1.135
-1.16
-1.15
-1.145
-1.14
-1.14
-1.13
-1.12
-1.125
-1.105
-1.105
-1.11
-1.105
-1.115
-1.115
-1.115
-1.125
-1.12
-1.115
-1.1
-1.11
-1.095
-1.1
-1.115
-1.12
-1.115
-1.13
-1.125
-1.13
-1.115
-1.11
-1.115
-1.115
-1.105
-1.105
-1.12
-1.115
-1.135
-1.15
-1.165
-1.17
-1.16
-1.14
-1.12
-1.115
-1.115
-1.125
-1.135
-1.135
-1.145
-1.16
-1.15
-1.14
-1.145
-1.15
-1.14
-1.135
-1.14
-1.155
-1.155
-1.17
-1.17
-1.18
-1.185
-1.195
-1.185
-1.165
-1.175
-1.15
-1.155
-1.16
-1.155
-1.165
-1.18
-1.175
-1.165
-1.165
-1.17
-1.145
-1.14
-1.125
-1.14
-1.125
-1.095
-1.09
-1.08
-1.065
-1.065
-1.045
-1.04
-1.01
-0.985
-0.96
-0.93
-0.9
-0.865
-0.845
-0.83
-0.83
-0.83
-0.845
-0.86
-0.845
-0.83
-0.825
-0.83
-0.86
-0.905
-0.955
-1.02
-1.075
-1.13
-1.185
-1.19
-1.175
-1.19
-1.18
-1.2
-1.2
-1.175
-1.195
-1.205
-1.215
-1.23
-1.225
-1.21
-1.22
-1.21
-1.195
-1.185
-1.18
-1.185
-1.195
-1.215
-1.215
-1.21
-1.22
-1.205
-1.19
-1.185
-1.17
-1.175
-1.195
-1.21
-1.25
-1.29
-1.295
-1.255
-1.175
-1.03
-0.825
-0.545
-0.25
0.1
0.44
0.72
0.92
1.015
0.995
0.89
0.67
0.305
-0.175
-0.695
-1.13
-1.345
-1.375
-1.265
-1.13
-1.005
-0.95
-0.975
-1.015
-1.085
-1.14
-1.16
-1.19
-1.185
-1.19
-1.2
-1.205
-1.21
-1.22
-1.225
-1.225
-1.22
-1.215
-1.215
-1.19
-1.195
-1.185
-1.19
-1.22
-1.225
-1.235
-1.23
-1.225
-1.225
-1.22
-1.22
-1.205
-1.21
-1.205
-1.205
-1.205
-1.205
-1.225
-1.24
-1.23
-1.235
-1.205
-1.205
-1.2
-1.175
-1.19
-1.185
-1.195
-1.195
-1.205
-1.21
-1.21
-1.2
-1.175
-1.17
-1.15
-1.13
-1.12
-1.125
-1.13
-1.125
-1.12
-1.13
-1.13
-1.11
-1.105
-1.105
-1.075
-1.06
-1.05
-1.045
-1.035
-1.025
-1.015
-1.035
-1.015
-1.01
-0.97
-0.945
-0.92
-0.905
-0.9
-0.88
-0.855
-0.85
-0.835
-0.825
-0.82
-0.8
-0.77
-0.735
-0.72
-0.715
-0.705
-0.675
-0.675
-0.685
-0.665
-0.67
-0.66
-0.65
-0.64
-0.63
-0.615
-0.62
-0.65
-0.665
-0.7
-0.725
-0.745
-0.78
-0.81
-0.84
-0.855
-0.89
-0.905
-0.935
-0.95
-0.975
-0.985
-1.015
-1.045
-1.065
-1.08
-1.085
-1.09
-1.1
-1.095
-1.115
-1.12
-1.13
-1.145
-1.155
-1.16
-1.165
-1.16
-1.16
-1.165
-1.15
-1.15
-1.155
-1.14
-1.135
-1.145
-1.16
-1.155
-1.155
-1.155
-1.135
-1.125
-1.125
-1.135
-1.115
-1.12
-1.12
-1.125
-1.15
-1.14
-1.14
-1.145
-1.14
-1.135
-1.125
-1.1
-1.1
-1.1
-1.09
-1.115
-1.115
-1.125
-1.14
-1.135
-1.135
-1.11
-1.09
-1.095
-1.1
-1.1
-1.11
-1.12
-1.12
-1.115
-1.105
-1.125
-1.125
-1.125
-1.12
-1.105
-1.11
-1.105
-1.115
-1.13
-1.145
-1.155
-1.15
-1.155
-1.145
-1.155
-1.15
-1.14
-1.135
-1.125
-1.145
-1.17
-1.175
-1.175
-1.165
-1.185
-1.2
-1.185
-1.175
-1.165
-1.155
-1.145
-1.155
-1.16
-1.16
-1.195
-1.195
-1.195
-1.175
-1.16
-1.165
-1.155
-1.15
-1.155
-1.155
-1.155
-1.175
-1.185
-1.195
-1.165
-1.16
-1.16
-1.13
-1.115
-1.09
-1.08
-1.08
-1.065
-1.065
-1.055
-1.04
-1.055
-1.01
-0.98
-0.945
-0.895
-0.835
-0.83
-0.815
-0.83
-0.845
-0.86
-0.87
-0.875
-0.87
-0.88
-0.895
-0.925
-0.96
-1.025
-1.085
-1.14
-1.19
-1.215
-1.245
-1.225
-1.24
-1.225
-1.22
-1.22
-1.19
-1.215
-1.22
-1.23
-1.225
-1.24
-1.245
-1.24
-1.225
-1.23
-1.22
-1.21
-1.205
-1.205
-1.21
-1.225
-1.235
-1.235
-1.245
-1.235
-1.23
-1.23
-1.24
-1.245
-1.235
-1.26
-1.27
-1.22
-1.125
-0.93
-0.685
-0.34
0.065
0.465
0.79
1.015
1.095
1.03
0.845
0.54
0.08
-0.465
-0.955
-1.275
-1.375
-1.31
-1.18
-1.035
-0.945
-0.94
-0.995
-1.08
-1.145
-1.18
-1.225
-1.225
-1.22
-1.215
-1.2
-1.19
-1.18
-1.205
-1.21
-1.225
-1.23
-1.255
-1.25
-1.265
-1.255
-1.255
-1.245
-1.22
-1.23
-1.225
-1.235
-1.23
-1.26
-1.26
-1.25
-1.27
-1.265
-1.245
-1.235
-1.225
-1.205
-1.21
-1.22
-1.215
-1.23
-1.235
-1.235
-1.24
-1.23
-1.21
-1.195
-1.19
-1.17
-1.165
-1.17
-1.175
-1.185
-1.165
-1.175
-1.175
-1.175
-1.14
-1.12
-1.095
-1.075
-1.08
-1.085
-1.08
-1.085
-1.075
-1.07
-1.055
-1.05
-1.03
-0.995
-0.985
-0.955
-0.94
-0.93
-0.905
-0.905
-0.875
-0.855
-0.85
-0.82
-0.795
-0.765
-0.73
-0.695
-0.7
-0.68
-0.67
-0.665
-0.66
-0.655
-0.635
-0.63
-0.615
-0.61
-0.59
-0.59
-0.595
-0.6
-0.61
-0.625
-0.655
-0.69
-0.71
-0.73
-0.755
-0.79
-0.795
-0.82
-0.84
-0.865
-0.9
-0.925
-0.96
-0.985
-1.005
-1.02
-1.035
-1.04
-1.05
-1.055
-1.065
-1.09
-1.085
-1.11
-1.135
-1.135
-1.14
-1.135
-1.125
-1.1
-1.115
-1.1
-1.105
-1.11
-1.11
-1.11
-1.11
-1.14
-1.125
-1.115
-1.105
-1.09
-1.085
-1.075
-1.085
-1.08
-1.095
-1.085
-1.1
-1.11
-1.11
-1.1
-1.085
-1.085
-1.075
-1.06
-1.075
-1.065
-1.08
-1.085
-1.08
-1.085
-1.09
-1.1
-1.08
-1.06
-1.07
-1.07
-1.06
-1.06
-1.075
-1.08
-1.085
-1.09
-1.105
-1.09
-1.09
-1.07
-1.085
-1.075
-1.075
-1.08
-1.105
-1.09
-1.105
-1.12
-1.11
-1.105
-1.1
-1.085
-1.085
-1.08
-1.075
-1.08
-1.105
-1.1
-1.1
-1.105
-1.115
-1.11
-1.11
-1.1
-1.09
-1.085
-1.085
-1.095
-1.1
-1.1
-1.11
-1.125
-1.135
-1.12
-1.12
-1.12
-1.12
-1.12
-1.125
-1.105
-1.1
-1.11
-1.12
-1.13
-1.15
-1.135
-1.115
-1.105
-1.105
-1.075
-1.12
-1.095
-1.115
-1.11
-1.11
-1.105
-1.115
-1.11
-1.095
-1.08
-1.06
-1.045
-1.03
-1.015
-1.02
-1.005
-0.98
-0.97
-0.97
-0.95
-0.945
-0.93
-0.91
-0.85
-0.805
-0.78
-0.75
-0.75
-0.75
-0.775
-0.79
-0.815
-0.795
-0.78
-0.77
-0.77
-0.805
-0.84
-0.905
-0.97
-1.04
-1.085
-1.12
-1.15
-1.145
-1.125
-1.12
-1.12
-1.125
-1.14
-1.13
-1.145
-1.155
-1.145
-1.16
-1.17
-1.15
-1.14
-1.13
-1.12
-1.125
-1.135
-1.13
-1.15
-1.165
-1.17
-1.17
-1.185
-1.16
-1.14
-1.135
-1.115
-1.13
-1.125
-1.155
-1.195
-1.225
-1.21
-1.15
-1.03
-0.84
-0.545
-0.18
0.23
0.61
0.89
1.05
1.08
1.02
0.84
0.505
0.055
-0.475
-0.93
-1.21
-1.275
-1.2
-1.07
-0.94
-0.895
-0.915
-0.96
-1.05
-1.095
-1.14
-1.16
-1.165
-1.145
-1.145
-1.135
-1.155
-1.16
-1.16
-1.175
-1.18
-1.19
-1.19
-1.17
-1.16
-1.155
-1.175
-1.18
-1.18
-1.18
-1.21
-1.21
-1.225
-1.21
-1.195
-1.18
-1.185
-1.175
-1.18
-1.17
-1.175
-1.185
-1.19
-1.185
-1.19
-1.185
-1.18
-1.175
-1.165
-1.16
-1.155
-1.15
-1.16
-1.165
-1.145
-1.155
-1.15
-1.145
-1.145
-1.12
-1.115
-1.1
-1.105
-1.095
-1.095
-1.12
-1.12
-1.115
-1.095
-1.075
-1.07
-1.045
-1.03
-1.0
-1.0
-0.985
-0.97
-0.955
-0.96
-0.96
-0.94
-0.935
-0.9
-0.865
-0.84
-0.815
-0.8
-0.785
-0.765
-0.765
-0.755
-0.755
-0.745
-0.72
-0.69
-0.68
-0.665
-0.64
-0.62
-0.61
-0.6
-0.59
-0.59
-0.59
-0.61
-0.6
-0.585
-0.575
-0.57
-0.58
-0.595
-0.615
-0.64
-0.67
-0.695
-0.73
-0.765
-0.8
-0.825
-0.845
-0.87
-0.87
-0.905
-0.94
-0.955
-0.99
-1.005
-1.045
-1.06
-1.06
-1.07
-1.075
-1.095
-1.07
-1.085
-1.095
-1.1
-1.115
-1.12
-1.13
-1.14
-1.135
-1.13
-1.105
-1.125
-1.125
-1.12
-1.11
-1.095
-1.11
-1.11
-1.11
-1.115
-1.125
-1.11
-1.105
-1.095
-1.085
-1.095
-1.085
-1.08
-1.09
-1.105
-1.11
-1.105
-1.115
-1.12
-1.09
-1.075
-1.065
-1.08
-1.06
-1.075
-1.09
-1.1
-1.105
-1.12
-1.12
-1.105
-1.08
-1.08
-1.07
-1.065
-1.095
-1.115
-1.115
-1.125
-1.11
-1.125
-1.12
-1.115
-1.115
-1.1
-1.105
-1.115
-1.105
-1.125
-1.13
-1.13
-1.14
-1.14
-1.135
-1.13
-1.13
-1.125
-1.12
-1.13
-1.12
-1.135
-1.14
-1.15
-1.15
-1.165
-1.165
-1.15
-1.135
-1.15
-1.14
-1.14
-1.145
-1.14
-1.16
-1.155
-1.165
-1.155
-1.165
-1.16
-1.155
-1.15
-1.125
-1.11
-1.13
-1.12
-1.125
-1.13
-1.145
-1.14
-1.135
-1.125
-1.095
-1.07
-1.05
-1.015
-1.005
-1.01
-1.0
-0.995
-0.985
-0.965
-0.92
-0.875
-0.825
-0.795
-0.78
-0.765
-0.795
-0.815
-0.845
-0.855
-0.825
-0.83
-0.835
-0.86
-0.895
-0.925
-0.97
-1.02
-1.075
-1.115
-1.14
-1.165
-1.18
-1.2
-1.195
-1.17
-1.16
-1.185
-1.175
-1.175
-1.205
-1.195
-1.21
-1.21
-1.205
-1.22
-1.21
-1.2
-1.18
-1.16
-1.165
-1.165
-1.155
-1.16
-1.175
-1.17
-1.185
-1.19
-1.195
-1.185
-1.19
-1.19
-1.215
-1.22
-1.245
-1.21
-1.165
-1.075
-0.92
-0.715
-0.44
-0.11
0.25
0.575
0.825
0.98
1.025
0.96
0.795
0.49
0.055
-0.465
-0.96
-1.275
-1.355
-1.3
-1.145
-1.01
-0.93
-0.93
-0.985
-1.04
-1.15
-1.17
-1.185
-1.18
-1.18
-1.165
-1.165
-1.16
-1.145
-1.165
-1.17
-1.185
-1.205
-1.215
-1.22
-1.205
-1.195
-1.205
-1.2
-1.175
-1.185
-1.2
-1.195
-1.195
-1.2
-1.21
-1.195
-1.195
-1.18
-1.165
-1.16
-1.16
-1.165
-1.17
-1.18
-1.185
-1.195
-1.19
-1.19
-1.185
-1.17
-1.17
-1.155
-1.16
-1.15
-1.145
-1.15
-1.135
-1.145
-1.145
-1.145
-1.115
-1.115
-1.105
-1.085
-1.07
-1.09
-1.065
-1.07
-1.07
-1.065
-1.08
-1.055
-1.045
-1.02
-1.005
-0.975
-0.96
-0.955
-0.94
-0.945
-0.945
-0.935
-0.93
-0.905
-0.885
-0.9
-0.835
-0.815
-0.79
-0.77
-0.765
-0.765
-0.75
-0.735
-0.735
-0.71
-0.685
-0.67
-0.65
-0.625
-0.615
-0.615
-0.61
-0.63
-0.625
-0.62
-0.63
-0.645
-0.635
-0.64
-0.65
-0.665
-0.68
-0.7
-0.73
-0.77
-0.805
-0.83
-0.875
-0.895
-0.925
-0.94
-0.95
-0.97
-0.99
-1.0
-1.025
-1.055
-1.075
-1.095
-1.1
-1.11
-1.09
-1.09
-1.085
-1.095
-1.1
-1.105
-1.125
-1.125
-1.14
-1.14
-1.15
-1.14
-1.12
-1.115
-1.095
-1.105
-1.09
-1.1
-1.12
-1.12
-1.115
-1.135
-1.12
-1.1
-1.1
-1.095
-1.085
-1.06
-1.07
-1.06
-1.07
-1.085
-1.09
-1.09
-1.11
-1.105
-1.09
-1.055
-1.045
-1.045
-1.04
-1.055
-1.065
-1.085
-1.09
-1.09
-1.095
-1.1
-1.085
-1.075
-1.075
-1.055
-1.055
-1.055
-1.055
-1.075
-1.075
-1.105
-1.11
-1.11
-1.105
-1.095
-1.08
-1.085
-1.07
-1.09
-1.085
-1.1
-1.1
-1.105
-1.11
-1.125
-1.115
-1.12
-1.115
-1.1
-1.1
-1.11
-1.105
-1.125
-1.13
-1.14
-1.13
-1.14
-1.13
-1.12
-1.11
-1.1
-1.105
-1.095
-1.095
-1.13
-1.12
-1.125
-1.135
-1.13
-1.135
-1.12
-1.115
-1.105
-1.12
-1.115
-1.105
-1.095
-1.08
-1.075
-1.055
-1.045
-1.025
-1.0
-0.98
-0.965
-0.95
-0.925
-0.905
-0.88
-0.83
-0.825
-0.8
-0.825
-0.825
-0.825
-0.815
-0.8
-0.815
-0.82
-0.845
-0.89
-0.965
-1.035
-1.09
-1.145
-1.175
-1.175
-1.16
-1.175
-1.16
-1.165
-1.175
-1.165
-1.2
-1.2
-1.215
-1.2
-1.185
-1.17
-1.165
-1.175
-1.165
-1.17
-1.165
-1.175
-1.185
-1.195
-1.2
-1.185
-1.17
-1.16
-1.16
-1.17
-1.16
-1.165
-1.2
-1.22
-1.205
-1.17
-1.035
-0.835
-0.545
-0.175
0.225
0.595
0.88
1.025
1.045
0.95
0.72
0.305
-0.215
-0.755
-1.125
-1.31
-1.305
-1.175
-1.035
-0.945
-0.91
-0.94
-1.01
-1.075
-1.14
-1.175
-1.18
-1.175
-1.175
-1.155
-1.15
-1.16
-1.165
-1.19
-1.19
-1.21
-1.23
-1.225
-1.22
-1.225
-1.19
-1.175
-1.18
-1.185
-1.195
-1.2
-1.21
-1.21
-1.205
-1.21
-1.205
-1.195
-1.18
-1.19
-1.195
-1.195
-1.195
-1.2
-1.205
-1.22
-1.22
-1.195
-1.195
-1.185
-1.165
-1.165
-1.175
-1.18
-1.175
-1.18
-1.17
-1.185
-1.18
-1.185
-1.16
-1.15
-1.125
-1.11
-1.105
-1.11
-1.1
-1.095
-1.07
-1.085
-1.085
-1.07
-1.065
-1.03
-1.005
-0.995
-0.955
-0.95
-0.935
-0.93
-0.925
-0.92
-0.905
-0.875
-0.845
-0.82
-0.795
-0.765
-0.74
-0.725
-0.7
-0.705
-0.695
-0.695
-0.68
-0.68
-0.65
-0.61
-0.595
-0.57
-0.575
-0.57
-0.555
-0.57
-0.58
-0.585
-0.61
-0.63
-0.64
-0.66
-0.68
-0.695
-0.715
-0.735
-0.765
-0.805
-0.835
-0.88
-0.895
-0.925
-0.945
-0.965
-0.975
-1.0
-1.01
-1.02
-1.045
-1.07
-1.08
-1.08
-1.08
-1.1
-1.1
-1.095
-1.105
-1.095
-1.09
-1.105
-1.105
-1.11
-1.115
-1.135
-1.125
-1.14
-1.12
-1.13
-1.12
-1.09
-1.085
-1.105
-1.105
-1.12
-1.125
-1.125
-1.115
-1.1
-1.105
-1.085
-1.08
-1.06
-1.055
-1.06
-1.07
-1.07
-1.08
-1.07
-1.085
-1.085
-1.07
-1.075
-1.06
-1.05
-1.04
-1.05
-1.07
-1.075
-1.09
-1.09
-1.07
-1.09
-1.08
-1.07
-1.08
-1.075
-1.065
-1.06
-1.09
-1.075
-1.09
-1.095
-1.09
-1.095
-1.115
-1.075
-1.075
-1.07
-1.07
-1.08
-1.085
-1.1
-1.095
-1.115
-1.125
-1.115
-1.105
-1.105
-1.09
-1.105
-1.085
-1.1
-1.095
-1.11
-1.115
-1.11
-1.13
-1.125
-1.11
-1.105
-1.11
-1.1
-1.09
-1.09
-1.09
-1.105
-1.105
-1.115
-1.105
-1.115
-1.115
-1.11
-1.11
-1.1
-1.09
-1.105
-1.105
-1.115
-1.135
-1.125
-1.115
-1.125
-1.12
-1.1
-1.1
-1.085
-1.075
-1.06
-1.05
-1.045
-1.025
-1.015
-1.0
-0.99
-0.97
-0.94
-0.935
-0.915
-0.87
-0.835
-0.805
-0.77
-0.765
-0.77
-0.78
-0.77
-0.775
-0.77
-0.76
-0.755
-0.745
-0.775
-0.815
-0.875
-0.94
-1.01
-1.07
-1.11
-1.12
-1.135
-1.135
-1.135
-1.13
-1.125
-1.115
-1.13
-1.145
-1.16
-1.16
-1.15
-1.15
-1.15
-1.13
-1.135
-1.12
-1.135
-1.14
-1.15
-1.155
-1.15
-1.16
-1.165
-1.165
-1.14
-1.125
-1.13
-1.13
-1.155
-1.19
-1.21
-1.205
-1.15
-1.01
-0.815
-0.545
-0.195
0.21
0.585
0.885
1.055
1.125
1.095
0.935
0.68
0.255
-0.25
-0.76
-1.13
-1.29
-1.26
-1.12
-0.975
-0.895
-0.855
-0.905
-0.995
-1.06
-1.105
-1.15
-1.15
-1.13
-1.12
-1.115
-1.1
-1.11
-1.125
-1.14
-1.155
-1.165
-1.17
-1.16
-1.16
-1.145
-1.15
-1.14
-1.15
-1.15
-1.17
-1.165
-1.18
-1.18
-1.195
-1.18
-1.18
-1.17
-1.15
-1.145
-1.16
-1.155
-1.165
-1.155
-1.15
-1.175
-1.155
-1.15
-1.135
-1.125
-1.125
-1.115
-1.115
-1.12
-1.125
-1.13
-1.12
-1.115
-1.115
-1.1
-1.09
-1.07
-1.065
-1.05
-1.05
-1.05
-1.04
-1.04
-1.02
-1.02
-1.035
-1.015
-0.985
-0.96
-0.945
-0.925
-0.91
-0.905
-0.89
-0.9
-0.885
-0.855
-0.865
-0.835
-0.8
-0.78
-0.75
-0.725
-0.715
-0.715
-0.705
-0.7
-0.66
-0.655
-0.625
-0.615
-0.6
-0.57
-0.55
-0.54
-0.54
-0.54
-0.545
-0.535
-0.55
-0.56
-0.57
-0.57
-0.58
-0.605
-0.615
-0.62
-0.66
-0.695
-0.75
-0.78
-0.82
-0.85
-0.875
-0.9
-0.92
-0.925
-0.925
-0.93
-0.955
-0.98
-0.995
-1.01
-1.05
-1.05
-1.07
-1.075
-1.065
-1.055
-1.045
-1.045
-1.06
-1.055
-1.06
-1.075
-1.07
-1.065
-1.075
-1.09
-1.08
-1.065
-1.07
-1.065
-1.06
-1.055
-1.065
-1.065
-1.065
-1.055
-1.05
-1.05
-1.045
-1.05
-1.04
-1.025
-1.03
-1.03
-1.045
-1.05
-1.05
-1.035
-1.055
-1.05
-1.055
-1.045
-1.045
-1.025
-1.02
-1.02
-1.015
-1.02
-1.03
-1.04
-1.04
-1.045
-1.03
-1.02
-1.02
-1.02
-1.03
-1.035
-1.055
-1.06
-1.075
-1.075
-1.08
-1.085
-1.075
-1.065
-1.055
-1.055
-1.05
-1.055
-1.07
-1.075
-1.085
-1.1
-1.11
-1.105
-1.09
-1.09
-1.08
-1.06
-1.065
-1.09
-1.08
-1.085
-1.095
-1.115
-1.115
-1.12
-1.1
-1.095
-1.08
-1.08
-1.08
-1.1
-1.095
-1.09
-1.115
-1.125
-1.13
-1.145
-1.105
-1.1
-1.09
-1.085
-1.09
-1.09
-1.08
-1.095
-1.105
-1.105
-1.11
-1.12
-1.105
-1.075
-1.065
-1.035
-1.015
-1.015
-1.0
-0.995
-0.99
-0.975
-0.955
-0.945
-0.93
-0.905
-0.88
-0.84
-0.82
-0.795
-0.765
-0.76
-0.745
-0.76
-0.775
-0.78
-0.77
-0.755
-0.76
-0.76
-0.785
-0.825
-0.875
-0.93
-1.015
-1.055
-1.105
-1.135
-1.115
-1.105
-1.1
-1.11
-1.105
-1.11
-1.13
-1.145
-1.145
-1.155
-1.165
-1.17
-1.16
-1.15
-1.14
-1.115
-1.125
-1.135
-1.145
-1.155
-1.16
-1.165
-1.16
-1.145
-1.135
-1.125
-1.13
-1.12
-1.13
-1.125
-1.135
-1.16
-1.185
-1.245
-1.245
-1.215
-1.14
-1.005
-0.8
-0.55
-0.235
0.135
0.51
0.81
1.01
1.11
1.065
0.95
0.725
0.32
-0.205
-0.71
-1.125
-1.305
-1.285
-1.175
-1.025
-0.925
-0.905
-0.93
-0.98
-1.035
-1.1
-1.11
-1.125
-1.13
-1.125
-1.14
-1.135
-1.135
-1.155
-1.155
-1.145
-1.145
-1.14
-1.135
-1.145
-1.155
-1.16
-1.165
-1.165
-1.175
-1.18
-1.17
-1.165
-1.145
-1.155
-1.14
-1.14
-1.135
-1.145
-1.165
-1.185
-1.18
-1.19
-1.18
-1.165
-1.16
-1.165
-1.155
-1.14
-1.145
-1.14
-1.145
-1.145
-1.15
-1.155
-1.14
-1.145
-1.125
-1.12
-1.11
-1.11
-1.09
-1.085
-1.095
-1.09
-1.08
-1.07
-1.06
-1.04
-1.025
-1.015
-1.0
-0.98
-0.995
-0.985
-0.96
-0.95
-0.95
-0.945
-0.91
-0.885
-0.855
-0.835
-0.815
-0.805
-0.78
-0.77
-0.77
-0.74
-0.74
-0.725
-0.705
-0.695
-0.655
-0.645
-0.63
-0.625
-0.61
-0.62
-0.62
-0.62
-0.61
-0.61
-0.58
-0.585
-0.585
-0.605
-0.62
-0.655
-0.67
-0.715
-0.75
-0.775
-0.815
-0.845
-0.85
-0.865
-0.885
-0.895
-0.92
-0.945
-0.975
-1.0
-1.005
-1.035
-1.06
-1.085
-1.09
-1.085
-1.1
-1.105
-1.09
-1.09
-1.1
-1.105
-1.11
-1.135
-1.13
-1.15
-1.155
-1.14
-1.12
-1.105
-1.085
-1.095
-1.1
-1.115
-1.12
-1.125
-1.125
-1.15
-1.14
-1.105
-1.09
-1.09
-1.075
-1.075
-1.07
-1.075
-1.09
-1.095
-1.1
-1.1
-1.11
-1.095
-1.09
-1.07
-1.07
-1.075
-1.065
-1.07
-1.07
-1.065
-1.075
-1.09
-1.095
-1.075
-1.075
-1.075
-1.085
-1.085
-1.085
-1.095
-1.105
-1.115
-1.13
-1.13
-1.125
-1.105
-1.1
-1.09
-1.09
-1.085
-1.115
-1.09
-1.115
-1.125
-1.13
-1.12
-1.12
-1.12
-1.125
-1.115
-1.105
-1.115
-1.105
-1.11
-1.125
-1.125
-1.135
-1.14
-1.135
-1.125
-1.12
-1.125
-1.115
-1.11
-1.13
-1.14
-1.13
-1.12
-1.115
-1.095
-1.085
-1.055
-1.035
-1.01
-0.99
-0.975
-0.97
-0.955
-0.96
-0.935
-0.905
-0.85
-0.82
-0.795
-0.77
-0.76
-0.77
-0.775
-0.78
-0.805
-0.815
-0.815
-0.85
-0.885
-0.94
-0.985
-1.035
-1.06
-1.1
-1.13
-1.125
-1.165
-1.18
-1.16
-1.165
-1.18
-1.175
-1.18
