Lead II
-0.41
-0.395
-0.405
-0.45
-0.515
-0.585
-0.6
-0.575
-0.5
-0.43
-0.31
-0.065
0.285
0.685
1.045
1.35
1.64
1.815
1.835
1.705
1.34
0.81
0.26
-0.17
-0.42
-0.525
-0.515
-0.48
-0.405
-0.325
-0.29
-0.3
-0.32
-0.34
-0.36
-0.37
-0.38
-0.375
-0.38
-0.4
-0.43
-0.44
-0.435
-0.425
-0.41
-0.42
-0.435
-0.445
-0.445
-0.45
-0.425
-0.435
-0.445
-0.47
-0.465
-0.455
-0.445
-0.445
-0.45
-0.46
-0.46
-0.455
-0.43
-0.43
-0.445
-0.45
-0.45
-0.435
-0.41
-0.425
-0.43
-0.435
-0.43
-0.425
-0.4
-0.41
-0.41
-0.41
-0.425
-0.405
-0.37
-0.365
-0.355
-0.36
-0.36
-0.34
-0.325
-0.315
-0.315
-0.305
-0.295
-0.265
-0.26
-0.24
-0.235
-0.23
-0.205
-0.185
-0.155
-0.145
-0.135
-0.12
-0.11
-0.105
-0.07
-0.055
-0.045
-0.045
-0.03
-0.015
0.005
0.02
0.03
0.03
0.045
0.06
0.07
0.075
0.085
0.07
0.065
0.065
0.075
0.07
0.065
0.045
0.03
0.025
0.025
-0.01
-0.04
-0.065
-0.08
-0.1
-0.095
-0.115
-0.15
-0.175
-0.18
-0.2
-0.215
-0.22
-0.245
-0.25
-0.245
-0.25
-0.235
-0.245
-0.265
-0.29
-0.29
-0.28
-0.27
-0.28
-0.295
-0.285
-0.285
-0.275
-0.27
-0.27
-0.265
-0.28
-0.285
-0.27
-0.265
-0.255
-0.265
-0.265
-0.275
-0.26
-0.25
-0.25
-0.25
-0.26
-0.26
-0.26
-0.24
-0.24
-0.24
-0.23
-0.245
-0.24
-0.23
-0.235
-0.23
-0.235
-0.24
-0.235
-0.23
-0.24
-0.24
-0.245
-0.235
-0.24
-0.23
-0.225
-0.24
-0.245
-0.255
-0.255
-0.25
-0.26
-0.245
-0.26
-0.255
-0.25
-0.255
-0.255
-0.26
-0.29
-0.29
-0.27
-0.265
-0.275
-0.28
-0.28
-0.28
-0.285
-0.275
-0.28
-0.285
-0.3
-0.29
-0.29
-0.285
-0.305
-0.295
-0.3
-0.295
-0.295
-0.275
-0.275
-0.3
-0.315
-0.325
-0.305
-0.295
-0.3
-0.3
-0.3
-0.315
-0.285
-0.265
-0.25
-0.245
-0.23
-0.23
-0.22
-0.21
-0.21
-0.2
-0.205
-0.205
-0.19
-0.185
-0.195
-0.205
-0.2
-0.185
-0.175
-0.18
-0.19
-0.215
-0.225
-0.25
-0.26
-0.235
-0.235
-0.225
-0.235
-0.23
-0.235
-0.235
-0.26
-0.285
-0.29
-0.305
-0.3
-0.305
-0.32
-0.315
-0.33
-0.34
-0.34
-0.345
-0.34
-0.345
-0.35
-0.35
-0.35
-0.345
-0.35
-0.35
-0.35
-0.34
-0.325
-0.315
-0.315
-0.33
-0.335
-0.33
-0.345
-0.345
-0.39
-0.45
-0.5
-0.5
-0.45
-0.38
-0.265
-0.095
0.165
0.515
0.84
1.165
1.445
1.645
1.755
1.73
1.515
1.135
0.665
0.225
-0.11
-0.35
-0.465
-0.48
-0.45
-0.35
-0.26
-0.23
-0.245
-0.275
-0.29
-0.315
-0.315
-0.32
-0.315
-0.315
-0.34
-0.365
-0.37
-0.38
-0.39
-0.385
-0.385
-0.385
-0.395
-0.395
-0.395
-0.38
-0.39
-0.395
-0.395
-0.405
-0.39
-0.37
-0.38
-0.395
-0.415
-0.4
-0.4
-0.385
-0.39
-0.39
-0.4
-0.395
-0.39
-0.37
-0.39
-0.4
-0.405
-0.4
-0.375
-0.355
-0.345
-0.355
-0.365
-0.36
-0.355
-0.335
-0.34
-0.325
-0.33
-0.315
-0.305
-0.285
-0.285
-0.28
-0.28
-0.265
-0.25
-0.23
-0.21
-0.19
-0.19
-0.17
-0.155
-0.135
-0.11
-0.11
-0.105
-0.085
-0.06
-0.035
-0.02
-0.01
0.0
0.005
0.025
0.04
0.05
0.05
0.06
0.07
0.085
0.105
0.11
0.11
0.095
0.1
0.1
0.105
0.1
0.095
0.09
0.07
0.07
0.065
0.045
0.015
-0.005
-0.015
-0.03
-0.04
-0.07
-0.095
-0.13
-0.145
-0.135
-0.14
-0.155
-0.18
-0.19
-0.19
-0.195
-0.18
-0.2
-0.21
-0.215
-0.23
-0.225
-0.225
-0.215
-0.225
-0.235
-0.24
-0.23
-0.225
-0.22
-0.225
-0.23
-0.225
-0.22
-0.21
-0.215
-0.21
-0.225
-0.21
-0.205
-0.205
-0.195
-0.185
-0.19
-0.2
-0.195
-0.185
-0.185
-0.195
-0.2
-0.185
-0.18
-0.18
-0.175
-0.18
-0.175
-0.195
-0.18
-0.18
-0.18
-0.195
-0.205
-0.2
-0.185
-0.185
-0.205
-0.21
-0.21
-0.205
-0.2
-0.205
-0.2
-0.21
-0.225
-0.235
-0.215
-0.225
-0.225
-0.23
-0.245
-0.25
-0.25
-0.235
-0.245
-0.27
-0.27
-0.27
-0.27
-0.265
-0.265
-0.275
-0.29
-0.3
-0.31
-0.295
-0.29
-0.285
-0.305
-0.305
-0.31
-0.29
-0.3
-0.305
-0.31
-0.31
-0.295
-0.27
-0.265
-0.255
-0.26
-0.25
-0.245
-0.225
-0.225
-0.215
-0.235
-0.215
-0.21
-0.205
-0.21
-0.205
-0.2
-0.185
-0.195
-0.195
-0.2
-0.235
-0.26
-0.27
-0.265
-0.245
-0.245
-0.235
-0.24
-0.25
-0.26
-0.26
-0.28
-0.3
-0.315
-0.33
-0.335
-0.335
-0.34
-0.35
-0.365
-0.375
-0.385
-0.38
-0.38
-0.39
-0.405
-0.405
-0.395
-0.385
-0.375
-0.385
-0.395
-0.395
-0.385
-0.385
-0.38
-0.4
-0.405
-0.435
-0.505
-0.54
-0.555
-0.53
-0.485
-0.385
-0.2
0.085
0.455
0.805
1.15
1.465
1.71
1.845
1.83
1.64
1.255
0.705
0.18
-0.215
-0.46
-0.575
-0.59
-0.545
-0.43
-0.335
-0.29
-0.32
-0.355
-0.365
-0.375
-0.365
-0.375
-0.39
-0.41
-0.425
-0.435
-0.43
-0.43
-0.445
-0.465
-0.465
-0.45
-0.44
-0.45
-0.45
-0.46
-0.48
-0.455
-0.45
-0.45
-0.455
-0.46
-0.455
-0.445
-0.43
-0.43
-0.43
-0.44
-0.43
-0.42
-0.41
-0.42
-0.41
-0.425
-0.42
-0.41
-0.405
-0.4
-0.41
-0.4
-0.395
-0.385
-0.365
-0.365
-0.365
-0.365
-0.365
-0.35
-0.325
-0.32
-0.32
-0.31
-0.3
-0.28
-0.265
-0.25
-0.25
-0.24
-0.22
-0.19
-0.16
-0.155
-0.15
-0.125
-0.11
-0.085
-0.055
-0.05
-0.025
-0.025
-0.015
0.0
0.025
0.04
0.04
0.035
0.05
0.055
0.075
0.085
0.085
0.09
0.08
0.09
0.085
0.09
0.075
0.065
0.045
0.04
0.035
0.015
-0.015
-0.04
-0.07
-0.08
-0.1
-0.13
-0.15
-0.17
-0.2
-0.19
-0.2
-0.225
-0.23
-0.25
-0.26
-0.27
-0.255
-0.27
-0.275
-0.29
-0.305
-0.295
-0.28
-0.28
-0.28
-0.3
-0.305
-0.29
-0.285
-0.29
-0.29
-0.285
-0.29
-0.285
-0.27
-0.28
-0.275
-0.285
-0.28
-0.27
-0.265
-0.265
-0.275
-0.265
-0.27
-0.26
-0.245
-0.255
-0.255
-0.275
-0.265
-0.25
-0.23
-0.235
-0.24
-0.245
-0.25
-0.24
-0.225
-0.23
-0.245
-0.245
-0.25
-0.235
-0.235
-0.24
-0.245
-0.255
-0.255
-0.25
-0.245
-0.24
-0.255
-0.27
-0.29
-0.27
-0.255
-0.26
-0.265
-0.28
-0.29
-0.27
-0.27
-0.28
-0.285
-0.29
-0.295
-0.295
-0.29
-0.295
-0.305
-0.315
-0.32
-0.31
-0.295
-0.315
-0.305
-0.305
-0.3
-0.285
-0.255
-0.245
-0.25
-0.26
-0.27
-0.255
-0.235
-0.23
-0.235
-0.215
-0.235
-0.215
-0.215
-0.215
-0.22
-0.225
-0.23
-0.225
-0.225
-0.25
-0.265
-0.29
-0.28
-0.27
-0.265
-0.25
-0.265
-0.285
-0.3
-0.305
-0.3
-0.32
-0.335
-0.355
-0.37
-0.37
-0.36
-0.37
-0.385
-0.405
-0.405
-0.415
-0.4
-0.41
-0.405
-0.41
-0.42
-0.41
-0.415
-0.405
-0.415
-0.415
-0.425
-0.42
-0.4
-0.395
-0.405
-0.425
-0.445
-0.49
-0.55
-0.62
-0.605
-0.555
-0.495
-0.375
-0.135
0.19
0.575
0.98
1.335
1.665
1.865
1.905
1.8
1.48
0.975
0.395
-0.07
-0.395
-0.545
-0.58
-0.57
-0.52
-0.42
-0.33
-0.305
-0.335
-0.375
-0.38
-0.385
-0.385
-0.395
-0.43
-0.425
-0.435
-0.44
-0.455
-0.455
-0.475
-0.485
-0.485
-0.47
-0.465
-0.48
-0.485
-0.485
-0.485
-0.48
-0.475
-0.49
-0.49
-0.49
-0.475
-0.455
-0.465
-0.47
-0.47
-0.47
-0.47
-0.46
-0.455
-0.46
-0.465
-0.445
-0.43
-0.425
-0.42
-0.425
-0.43
-0.43
-0.41
-0.4
-0.395
-0.39
-0.4
-0.4
-0.38
-0.355
-0.36
-0.355
-0.34
-0.34
-0.33
-0.305
-0.295
-0.28
-0.28
-0.26
-0.24
-0.21
-0.195
-0.18
-0.18
-0.155
-0.13
-0.095
-0.09
-0.09
-0.065
-0.045
-0.03
0.0
0.005
0.025
0.015
0.03
0.04
0.075
0.065
0.08
0.075
0.08
0.09
0.095
0.09
0.08
0.07
0.055
0.055
0.055
0.035
0.02
-0.01
-0.035
-0.055
-0.065
-0.09
-0.105
-0.14
-0.17
-0.18
-0.185
-0.205
-0.23
-0.26
-0.28
-0.275
-0.27
-0.28
-0.29
-0.305
-0.305
-0.3
-0.295
-0.305
-0.32
-0.315
-0.31
-0.31
-0.305
-0.3
-0.305
-0.315
-0.31
-0.305
-0.295
-0.285
-0.29
-0.31
-0.305
-0.285
-0.28
-0.295
-0.295
-0.295
-0.285
-0.255
-0.26
-0.265
-0.265
-0.275
-0.27
-0.245
-0.25
-0.25
-0.275
-0.275
-0.285
-0.265
-0.255
-0.26
-0.25
-0.265
-0.275
-0.26
-0.255
-0.265
-0.275
-0.28
-0.275
-0.27
-0.28
-0.265
-0.285
-0.29
-0.29
-0.29
-0.29
-0.29
-0.31
-0.32
-0.31
-0.305
-0.31
-0.31
-0.335
-0.325
-0.34
-0.335
-0.32
-0.32
-0.315
-0.325
-0.335
-0.33
-0.305
-0.315
-0.31
-0.29
-0.29
-0.275
-0.26
-0.275
-0.28
-0.28
-0.285
-0.25
-0.245
-0.24
-0.26
-0.26
-0.26
-0.245
-0.23
-0.23
-0.25
-0.27
-0.285
-0.29
-0.295
-0.305
-0.305
-0.3
-0.305
-0.3
-0.29
-0.31
-0.325
-0.35
-0.355
-0.36
-0.365
-0.375
-0.385
-0.4
-0.41
-0.41
-0.405
-0.41
-0.42
-0.43
-0.44
-0.425
-0.415
-0.42
-0.42
-0.44
-0.435
-0.425
-0.415
-0.415
-0.42
-0.425
-0.44
-0.43
-0.44
-0.505
-0.57
-0.625
-0.59
-0.545
-0.46
-0.33
-0.095
0.24
0.625
1.0
1.345
1.645
1.815
1.835
1.655
1.215
0.62
0.04
-0.355
-0.525
-0.575
-0.55
-0.49
-0.395
-0.33
-0.325
-0.35
-0.38
-0.385
-0.395
-0.415
-0.42
-0.41
-0.43
-0.445
-0.445
-0.455
-0.475
-0.49
-0.47
-0.465
-0.47
-0.47
-0.475
-0.485
-0.48
-0.47
-0.48
-0.475
-0.49
-0.49
-0.475
-0.46
-0.475
-0.475
-0.485
-0.48
-0.475
-0.465
-0.465
-0.465
-0.465
-0.475
-0.445
-0.435
-0.44
-0.44
-0.425
-0.445
-0.43
-0.415
-0.415
-0.415
-0.41
-0.405
-0.39
-0.38
-0.38
-0.37
-0.36
-0.37
-0.35
-0.31
-0.305
-0.3
-0.29
-0.275
-0.26
-0.235
-0.22
-0.195
-0.185
-0.16
-0.125
-0.11
-0.105
-0.09
-0.08
-0.075
-0.05
-0.03
-0.02
-0.015
-0.01
-0.005
0.02
0.035
0.035
0.045
0.055
0.035
0.045
0.055
0.05
0.03
0.02
0.005
-0.005
-0.01
-0.03
-0.045
-0.075
-0.105
-0.115
-0.13
-0.16
-0.19
-0.215
-0.235
-0.24
-0.23
-0.25
-0.25
-0.27
-0.295
-0.3
-0.29
-0.3
-0.315
-0.315
-0.32
-0.32
-0.31
-0.31
-0.32
-0.325
-0.325
-0.33
-0.295
-0.315
-0.295
-0.305
-0.32
-0.305
-0.305
-0.28
-0.3
-0.31
-0.3
-0.285
-0.285
-0.285
-0.295
-0.295
-0.29
-0.285
-0.265
-0.275
-0.28
-0.3
-0.295
-0.285
-0.27
-0.265
-0.27
-0.275
-0.27
-0.27
-0.265
-0.265
-0.275
-0.285
-0.295
-0.29
-0.275
-0.28
-0.275
-0.28
-0.28
-0.285
-0.29
-0.29
-0.3
-0.305
-0.305
-0.3
-0.3
-0.31
-0.315
-0.32
-0.33
-0.32
-0.305
-0.315
-0.32
-0.335
-0.35
-0.335
-0.33
-0.35
-0.34
-0.355
-0.355
-0.35
-0.33
-0.33
-0.335
-0.355
-0.345
-0.335
-0.31
-0.305
-0.295
-0.305
-0.29
-0.275
-0.265
-0.275
-0.265
-0.265
-0.26
-0.26
-0.235
-0.245
-0.265
-0.27
-0.255
-0.23
-0.225
-0.23
-0.25
-0.28
-0.31
-0.325
-0.31
-0.3
-0.295
-0.275
-0.285
-0.295
-0.3
-0.33
-0.35
-0.365
-0.38
-0.37
-0.355
-0.375
-0.395
-0.405
-0.41
-0.41
-0.4
-0.415
-0.41
-0.42
-0.43
-0.42
-0.415
-0.415
-0.425
-0.435
-0.435
-0.425
-0.41
-0.4
-0.405
-0.425
-0.425
-0.43
-0.44
-0.475
-0.525
-0.58
-0.605
-0.535
-0.475
-0.4
-0.235
0.02
0.355
0.715
1.06
1.37
1.585
1.7
1.67
1.45
1.02
0.525
0.07
-0.27
-0.475
-0.565
-0.56
-0.495
-0.4
-0.33
-0.325
-0.365
-0.385
-0.395
-0.405
-0.4
-0.405
-0.415
-0.415
-0.44
-0.455
-0.47
-0.475
-0.465
-0.46
-0.465
-0.475
-0.49
-0.495
-0.49
-0.475
-0.47
-0.48
-0.475
-0.475
-0.48
-0.48
-0.48
-0.48
-0.475
-0.48
-0.49
-0.47
-0.47
-0.465
-0.465
-0.47
-0.465
-0.46
-0.45
-0.465
-0.465
-0.45
-0.44
-0.435
-0.43
-0.435
-0.435
-0.425
-0.42
-0.395
-0.385
-0.39
-0.36
-0.345
-0.335
-0.315
-0.305
-0.305
-0.285
-0.285
-0.25
-0.225
-0.2
-0.18
-0.18
-0.17
-0.145
-0.12
-0.1
-0.09
-0.085
-0.065
-0.05
-0.035
-0.035
-0.025
-0.02
-0.01
0.015
0.025
0.015
0.015
0.02
0.005
0.015
0.01
0.01
-0.015
-0.035
-0.055
-0.08
-0.08
-0.105
-0.13
-0.15
-0.175
-0.19
-0.2
-0.21
-0.245
-0.26
-0.265
-0.285
-0.28
-0.29
-0.3
-0.315
-0.32
-0.315
-0.32
-0.315
-0.32
-0.325
-0.34
-0.335
-0.315
-0.325
-0.325
-0.33
-0.34
-0.335
-0.31
-0.315
-0.32
-0.315
-0.32
-0.315
-0.31
-0.31
-0.31
-0.31
-0.305
-0.295
-0.285
-0.285
-0.295
-0.295
-0.3
-0.285
-0.28
-0.27
-0.285
-0.285
-0.285
-0.275
-0.27
-0.255
-0.265
-0.28
-0.28
-0.275
-0.265
-0.265
-0.275
-0.28
-0.29
-0.295
-0.265
-0.275
-0.295
-0.3
-0.315
-0.3
-0.3
-0.29
-0.305
-0.31
-0.315
-0.31
-0.3
-0.315
-0.32
-0.33
-0.335
-0.325
-0.33
-0.32
-0.34
-0.335
-0.345
-0.335
-0.33
-0.33
-0.34
-0.355
-0.355
-0.355
-0.34
-0.345
-0.35
-0.35
-0.355
-0.335
-0.325
-0.32
-0.31
-0.305
-0.295
-0.285
-0.26
-0.26
-0.27
-0.28
-0.27
-0.26
-0.25
-0.245
-0.255
-0.255
-0.245
-0.24
-0.24
-0.255
-0.27
-0.285
-0.32
-0.31
-0.285
-0.275
-0.27
-0.28
-0.3
-0.3
-0.295
-0.315
-0.335
-0.355
-0.36
-0.37
-0.365
-0.375
-0.38
-0.38
-0.4
-0.405
-0.4
-0.405
-0.41
-0.425
-0.42
-0.41
-0.405
-0.395
-0.41
-0.41
-0.41
-0.405
-0.405
-0.4
-0.405
-0.42
-0.43
-0.43
-0.43
-0.48
-0.56
-0.59
-0.575
-0.5
-0.41
-0.265
0.0
0.35
0.735
1.1
1.44
1.685
1.81
1.795
1.56
1.11
0.58
0.065
-0.305
-0.505
-0.565
-0.54
-0.455
-0.355
-0.315
-0.32
-0.355
-0.385
-0.38
-0.39
-0.415
-0.425
-0.445
-0.44
-0.45
-0.45
-0.46
-0.47
-0.48
-0.48
-0.47
-0.475
-0.48
-0.485
-0.485
-0.475
-0.46
-0.465
-0.48
-0.49
-0.495
-0.485
-0.465
-0.47
-0.48
-0.485
-0.485
-0.47
-0.47
-0.46
-0.47
-0.465
-0.465
-0.45
-0.44
-0.435
-0.43
-0.45
-0.435
-0.42
-0.415
-0.4
-0.395
-0.395
-0.385
-0.365
-0.345
-0.345
-0.325
-0.315
-0.31
-0.285
-0.27
-0.255
-0.24
-0.225
-0.21
-0.19
-0.165
-0.14
-0.145
-0.11
-0.095
-0.065
-0.04
-0.035
-0.03
-0.01
-0.005
0.015
0.045
0.045
0.035
0.045
0.045
0.06
0.07
0.07
0.07
0.045
0.03
0.04
0.02
0.005
-0.02
-0.045
-0.065
-0.085
-0.11
-0.13
-0.155
-0.19
-0.225
-0.23
-0.245
-0.255
-0.27
-0.3
-0.31
-0.305
-0.305
-0.33
-0.345
-0.335
-0.35
-0.335
-0.34
-0.34
-0.35
-0.375
-0.365
-0.355
-0.345
-0.335
-0.345
-0.355
-0.365
-0.355
-0.34
-0.34
-0.345
-0.355
-0.355
-0.34
-0.32
-0.335
-0.325
-0.335
-0.34
-0.325
-0.31
-0.31
-0.31
-0.315
-0.33
-0.315
-0.31
-0.315
-0.315
-0.315
-0.315
-0.305
-0.305
-0.3
-0.31
-0.32
-0.32
-0.31
-0.305
-0.31
-0.32
-0.32
-0.325
-0.315
-0.305
-0.31
-0.315
-0.335
-0.34
-0.34
-0.325
-0.34
-0.34
-0.345
-0.355
-0.35
-0.34
-0.35
-0.36
-0.37
-0.37
-0.37
-0.35
-0.355
-0.355
-0.37
-0.38
-0.375
-0.365
-0.375
-0.375
-0.38
-0.39
-0.38
-0.375
-0.37
-0.385
-0.385
-0.39
-0.39
-0.39
-0.38
-0.39
-0.385
-0.395
-0.375
-0.38
-0.385
-0.39
-0.385
-0.39
-0.37
-0.36
-0.35
-0.345
-0.335
-0.325
-0.31
-0.305
-0.315
-0.305
-0.31
-0.3
-0.29
-0.28
-0.26
-0.28
-0.29
-0.28
-0.27
-0.255
-0.27
-0.29
-0.31
-0.33
-0.335
-0.325
-0.32
-0.315
-0.315
-0.305
-0.305
-0.305
-0.335
-0.35
-0.37
-0.375
-0.38
-0.385
-0.385
-0.4
-0.42
-0.43
-0.435
-0.43
-0.425
-0.44
-0.445
-0.455
-0.44
-0.435
-0.435
-0.44
-0.45
-0.45
-0.44
-0.43
-0.425
-0.44
-0.445
-0.445
-0.43
-0.44
-0.44
-0.46
-0.505
-0.57
-0.62
-0.625
-0.585
-0.52
-0.44
-0.265
0.08
0.48
0.895
1.265
1.58
1.815
1.91
1.83
1.495
0.94
0.325
-0.185
-0.46
-0.54
-0.53
-0.48
-0.405
-0.335
-0.33
-0.355
-0.375
-0.39
-0.41
-0.415
-0.42
-0.425
-0.455
-0.465
-0.48
-0.505
-0.48
-0.48
-0.49
-0.49
-0.495
-0.505
-0.49
-0.49
-0.48
-0.495
-0.49
-0.5
-0.495
-0.485
-0.485
-0.49
-0.49
-0.49
-0.485
-0.47
-0.48
-0.47
-0.475
-0.495
-0.475
-0.45
-0.445
-0.445
-0.445
-0.46
-0.45
-0.43
-0.425
-0.405
-0.405
-0.415
-0.39
-0.38
-0.37
-0.35
-0.35
-0.345
-0.315
-0.305
-0.285
-0.265
-0.265
-0.255
-0.225
-0.19
-0.165
-0.15
-0.135
-0.13
-0.095
-0.065
-0.055
-0.04
-0.03
-0.03
-0.015
0.02
0.03
0.04
0.045
0.045
0.065
0.085
0.095
0.09
0.09
0.09
0.09
0.095
0.09
0.075
0.055
0.02
0.015
-0.005
-0.015
-0.045
-0.08
-0.12
-0.12
-0.16
-0.175
-0.2
-0.235
-0.245
-0.25
-0.265
-0.27
-0.29
-0.31
-0.325
-0.335
-0.325
-0.325
-0.335
-0.345
-0.36
-0.345
-0.34
-0.34
-0.34
-0.355
-0.36
-0.355
-0.35
-0.345
-0.345
-0.345
-0.365
-0.355
-0.335
-0.335
-0.335
-0.34
-0.34
-0.335
-0.32
-0.32
-0.315
-0.335
-0.33
-0.33
-0.32
-0.315
-0.31
-0.325
-0.325
-0.315
-0.315
-0.315
-0.305
-0.315
-0.32
-0.315
-0.29
-0.3
-0.31
-0.315
-0.32
-0.305
-0.305
-0.305
-0.305
-0.31
-0.315
-0.31
-0.3
-0.3
-0.305
-0.31
-0.33
-0.31
-0.305
-0.3
-0.315
-0.32
-0.335
-0.33
-0.315
-0.32
-0.315
-0.33
-0.34
-0.33
-0.33
-0.335
-0.34
-0.35
-0.36
-0.35
-0.345
-0.34
-0.35
-0.37
-0.36
-0.355
-0.345
-0.36
-0.365
-0.37
-0.375
-0.38
-0.36
-0.355
-0.37
-0.375
-0.38
-0.37
-0.365
-0.365
-0.375
-0.375
-0.385
-0.38
-0.37
-0.37
-0.39
-0.39
-0.38
-0.38
-0.37
-0.39
-0.385
-0.39
-0.385
-0.385
-0.38
-0.37
-0.375
-0.385
-0.395
-0.375
-0.365
-0.375
-0.375
-0.37
-0.365
-0.355
-0.335
-0.31
-0.31
-0.31
-0.31
-0.3
-0.3
-0.28
-0.29
-0.28
-0.29
-0.275
-0.28
-0.26
-0.26
-0.26
-0.255
-0.27
-0.255
-0.27
-0.29
-0.3
-0.32
-0.32
-0.32
-0.31
-0.3
-0.31
-0.315
-0.325
-0.32
-0.34
-0.35
-0.355
-0.375
-0.375
-0.365
-0.39
-0.4
-0.405
-0.42
-0.415
-0.41
-0.41
-0.42
-0.43
-0.43
-0.435
-0.42
-0.415
-0.43
-0.435
-0.43
-0.425
-0.4
-0.415
-0.42
-0.43
-0.425
-0.425
-0.405
-0.415
-0.42
-0.425
-0.445
-0.465
-0.505
-0.57
-0.61
-0.59
-0.555
-0.48
-0.395
-0.255
0.005
0.345
0.705
1.075
1.415
1.69
1.835
1.865
1.72
1.36
0.84
0.315
-0.125
-0.385
-0.51
-0.535
-0.52
-0.465
-0.38
-0.32
-0.335
-0.375
-0.38
-0.4
-0.405
-0.415
-0.42
-0.42
-0.425
-0.43
-0.455
-0.46
-0.47
-0.465
-0.46
-0.455
-0.46
-0.47
-0.485
-0.47
-0.465
-0.475
-0.47
-0.49
-0.495
-0.485
-0.47
-0.46
-0.47
-0.47
-0.485
-0.47
-0.46
-0.46
-0.47
-0.47
-0.465
-0.45
-0.445
-0.445
-0.435
-0.45
-0.455
-0.45
-0.435
-0.415
-0.42
-0.43
-0.43
-0.41
-0.385
-0.38
-0.385
-0.39
-0.385
-0.375
-0.345
-0.32
-0.31
-0.305
-0.31
-0.29
-0.265
-0.25
-0.245
-0.23
-0.2
-0.19
-0.155
-0.14
-0.125
-0.115
-0.1
-0.08
-0.05
-0.03
-0.025
-0.015
-0.005
0.0
0.035
0.04
0.06
0.06
0.065
0.08
0.085
0.09
0.095
0.08
0.075
0.075
0.07
0.07
0.06
0.05
0.03
0.0
0.0
-0.025
-0.06
-0.085
-0.13
-0.14
-0.145
-0.17
-0.205
-0.225
-0.24
-0.255
-0.265
-0.265
-0.285
-0.29
-0.3
-0.305
-0.295
-0.31
-0.305
-0.335
-0.335
-0.33
-0.315
-0.31
-0.315
-0.325
-0.335
-0.325
-0.32
-0.335
-0.325
-0.325
-0.33
-0.31
-0.305
-0.31
-0.32
-0.335
-0.34
-0.315
-0.305
-0.295
-0.3
-0.315
-0.315
-0.305
-0.28
-0.285
-0.295
-0.305
-0.31
-0.3
-0.285
-0.29
-0.3
-0.295
-0.3
-0.295
-0.29
-0.28
-0.29
-0.295
-0.3
-0.285
-0.285
-0.285
-0.285
-0.285
-0.295
-0.285
-0.285
-0.28
-0.28
-0.295
-0.3
-0.305
-0.3
-0.295
-0.305
-0.31
-0.31
-0.31
-0.295
-0.3
-0.305
-0.31
-0.315
-0.315
-0.315
-0.31
-0.325
-0.335
-0.335
-0.325
-0.325
-0.325
-0.34
-0.34
-0.335
-0.335
-0.33
-0.33
-0.345
-0.355
-0.365
-0.345
-0.345
-0.34
-0.35
-0.36
-0.35
-0.34
-0.34
-0.33
-0.345
-0.355
-0.355
-0.345
-0.33
-0.345
-0.34
-0.355
-0.365
-0.35
-0.345
-0.335
-0.345
-0.355
-0.365
-0.35
-0.35
-0.36
-0.355
-0.37
-0.365
-0.35
-0.35
-0.36
-0.35
-0.355
-0.355
-0.355
-0.34
-0.325
-0.33
-0.335
-0.34
-0.31
-0.305
-0.28
-0.29
-0.285
-0.28
-0.265
-0.255
-0.25
-0.245
-0.245
-0.25
-0.255
-0.23
-0.24
-0.25
-0.25
-0.24
-0.245
-0.25
-0.265
-0.285
-0.305
-0.31
-0.295
-0.27
-0.255
-0.265
-0.27
-0.3
-0.305
-0.31
-0.325
-0.325
-0.34
-0.365
-0.36
-0.36
-0.36
-0.36
-0.38
-0.385
-0.39
-0.39
-0.4
-0.39
-0.395
-0.4
-0.4
-0.395
-0.39
-0.39
-0.405
-0.41
-0.395
-0.39
-0.38
-0.38
-0.39
-0.385
-0.38
-0.38
-0.385
-0.39
-0.39
-0.395
-0.395
-0.43
-0.47
-0.51
-0.515
-0.465
-0.41
-0.355
-0.24
-0.05
0.24
0.56
0.845
1.14
1.4
1.605
1.7
1.69
1.535
1.18
0.74
0.315
-0.03
-0.305
-0.455
-0.525
-0.545
-0.48
-0.4
-0.33
-0.305
-0.315
-0.34
-0.355
-0.355
-0.36
-0.36
-0.365
-0.375
-0.39
-0.4
-0.415
-0.41
-0.405
-0.41
-0.41
-0.425
-0.425
-0.42
-0.43
-0.42
-0.41
-0.415
-0.415
-0.405
-0.405
-0.39
-0.415
-0.42
-0.425
-0.42
-0.395
-0.395
-0.4
-0.41
-0.415
-0.405
-0.4
-0.4
-0.41
-0.395
-0.405
-0.39
-0.38
-0.38
-0.375
-0.39
-0.385
-0.36
-0.355
-0.35
-0.345
-0.345
-0.34
-0.315
-0.3
-0.29
-0.28
-0.275
-0.26
-0.245
-0.225
-0.22
-0.2
-0.19
-0.185
-0.16
-0.14
-0.12
-0.095
-0.1
-0.075
-0.05
-0.035
-0.02
-0.01
0.01
0.015
0.04
0.06
0.075
0.075
0.075
0.075
0.08
0.09
0.095
0.1
0.065
0.07
0.065
0.06
0.055
0.015
-0.005
-0.035
-0.06
-0.065
-0.09
-0.115
-0.14
-0.17
-0.18
-0.19
-0.195
-0.21
-0.23
-0.245
-0.245
-0.245
-0.245
-0.265
-0.28
-0.28
-0.275
-0.275
-0.265
-0.27
-0.285
-0.3
-0.3
-0.305
-0.295
-0.295
-0.295
-0.315
-0.3
-0.29
-0.28
-0.29
-0.29
-0.295
-0.29
-0.27
-0.28
-0.28
-0.29
-0.29
-0.285
-0.265
-0.265
-0.265
-0.28
-0.275
-0.255
-0.255
-0.255
-0.265
-0.265
-0.26
-0.255
-0.24
-0.23
-0.235
-0.255
-0.255
-0.245
-0.24
-0.23
-0.24
-0.255
-0.255
-0.245
-0.24
-0.25
-0.26
-0.265
-0.27
-0.255
-0.245
-0.245
-0.25
-0.26
-0.27
-0.265
-0.275
-0.255
-0.275
-0.285
-0.285
-0.28
-0.27
-0.275
-0.285
-0.305
-0.305
-0.29
-0.285
-0.29
-0.3
-0.31
-0.31
-0.315
-0.31
-0.315
-0.315
-0.33
-0.33
-0.33
-0.325
-0.31
-0.32
-0.325
-0.335
-0.33
-0.31
-0.325
-0.33
-0.33
-0.33
-0.32
-0.315
-0.315
-0.335
-0.335
-0.325
-0.32
-0.315
-0.31
-0.315
-0.33
-0.335
-0.335
-0.31
-0.305
-0.32
-0.325
-0.33
-0.315
-0.305
-0.31
-0.315
-0.33
-0.33
-0.32
-0.305
-0.3
-0.3
-0.295
-0.3
-0.275
-0.25
-0.245
-0.25
-0.25
-0.255
-0.245
-0.22
-0.215
-0.21
-0.22
-0.22
-0.21
-0.205
-0.21
-0.195
-0.205
-0.21
-0.205
-0.215
-0.22
-0.24
-0.255
-0.27
-0.265
-0.25
-0.235
-0.225
-0.235
-0.25
-0.255
-0.27
-0.275
-0.295
-0.3
-0.31
-0.31
-0.315
-0.32
-0.34
-0.345
-0.345
-0.355
-0.345
-0.345
-0.35
-0.36
-0.355
-0.36
-0.345
-0.37
-0.365
-0.38
-0.38
-0.36
-0.355
-0.345
-0.355
-0.35
-0.36
-0.36
-0.35
-0.35
-0.355
-0.38
-0.405
-0.45
-0.485
-0.485
-0.445
-0.395
-0.295
-0.105
0.205
0.56
0.92
1.24
1.53
1.735
1.82
1.725
1.405
0.91
0.385
-0.065
-0.335
-0.475
-0.51
-0.49
-0.4
-0.305
-0.255
-0.29
-0.315
-0.34
-0.355
-0.34
-0.335
-0.345
-0.37
-0.385
-0.405
-0.4
-0.395
-0.395
-0.405
-0.41
-0.415
-0.4
-0.405
-0.395
-0.41
-0.41
-0.415
-0.405
-0.4
-0.395
-0.405
-0.415
-0.42
-0.41
-0.395
-0.39
-0.4
-0.41
-0.415
-0.395
-0.39
-0.38
-0.38
-0.39
-0.395
-0.375
-0.37
-0.365
-0.35
-0.37
-0.35
-0.335
-0.315
-0.31
-0.29
-0.305
-0.295
-0.285
-0.26
-0.245
-0.23
-0.225
-0.21
-0.19
-0.16
-0.13
-0.115
-0.105
-0.085
-0.06
-0.025
-0.015
0.0
-0.005
0.005
0.045
0.075
0.085
0.085
0.095
0.105
0.12
0.14
0.14
0.135
0.145
0.13
0.155
0.155
0.145
0.13
0.115
0.095
0.075
0.075
0.055
0.04
0.0
-0.035
-0.045
-0.05
-0.08
-0.11
-0.13
-0.165
-0.165
-0.185
-0.205
-0.205
-0.225
-0.24
-0.24
-0.25
-0.24
-0.26
-0.27
-0.28
-0.27
-0.265
-0.275
-0.28
-0.285
-0.29
-0.29
-0.28
-0.265
-0.28
-0.285
-0.295
-0.285
-0.275
-0.275
-0.285
-0.285
-0.3
-0.285
-0.28
-0.275
-0.295
-0.295
-0.29
-0.28
-0.275
-0.265
-0.26
-0.28
-0.285
-0.27
-0.255
-0.26
-0.26
-0.27
-0.265
-0.255
-0.245
-0.25
-0.25
-0.25
-0.255
-0.25
-0.25
-0.255
-0.245
-0.245
-0.26
-0.25
-0.24
-0.245
-0.25
-0.26
-0.275
-0.265
-0.25
-0.245
-0.255
-0.27
-0.275
-0.265
-0.25
-0.26
-0.27
-0.28
-0.285
-0.28
-0.28
-0.28
-0.285
-0.295
-0.305
-0.295
-0.295
-0.295
-0.31
-0.32
-0.315
-0.32
-0.315
-0.31
-0.32
-0.33
-0.325
-0.33
-0.315
-0.315
-0.32
-0.345
-0.35
-0.345
-0.345
-0.335
-0.335
-0.345
-0.35
-0.35
-0.34
-0.34
-0.345
-0.335
-0.355
-0.355
-0.33
-0.34
-0.345
-0.35
-0.37
-0.35
-0.355
-0.345
-0.355
-0.35
-0.36
-0.35
-0.355
-0.35
-0.36
-0.36
-0.36
-0.36
-0.345
-0.35
-0.36
-0.36
-0.365
-0.35
-0.35
-0.34
-0.355
-0.35
-0.35
-0.345
-0.33
-0.31
-0.3
-0.3
-0.29
-0.28
-0.265
-0.275
-0.27
-0.28
-0.265
-0.25
-0.235
-0.245
-0.245
-0.24
-0.245
-0.235
-0.24
-0.245
-0.26
-0.285
-0.295
-0.3
-0.29
-0.275
-0.265
-0.275
-0.29
-0.3
-0.3
-0.32
-0.35
-0.35
-0.365
-0.365
-0.375
-0.365
-0.38
-0.41
-0.42
-0.41
-0.4
-0.395
-0.405
-0.415
-0.425
-0.41
-0.41
-0.41
-0.395
-0.405
-0.41
-0.4
-0.39
-0.4
-0.4
-0.41
-0.405
-0.4
-0.42
-0.475
-0.535
-0.57
-0.53
-0.445
-0.34
-0.135
0.19
0.6
0.995
1.38
1.685
1.88
1.9
1.685
1.175
0.55
0.01
-0.325
-0.485
-0.515
-0.49
-0.4
-0.32
-0.29
-0.335
-0.37
-0.395
-0.39
-0.37
-0.38
-0.4
-0.415
-0.435
-0.425
-0.42
-0.43
-0.44
-0.455
-0.445
-0.45
-0.425
-0.44
-0.45
-0.45
-0.455
-0.45
-0.445
-0.445
-0.45
-0.47
-0.445
-0.44
-0.43
-0.435
-0.435
-0.44
-0.445
-0.42
-0.41
-0.41
-0.41
-0.415
-0.42
-0.405
-0.39
-0.39
-0.37
-0.385
-0.385
-0.365
-0.345
-0.335
-0.34
-0.34
-0.315
-0.305
-0.28
-0.27
-0.24
-0.235
-0.235
-0.215
-0.18
-0.165
-0.155
-0.125
-0.11
-0.095
-0.05
-0.04
-0.02
-0.02
0.01
0.02
0.045
0.07
0.075
0.09
0.105
0.13
0.14
0.15
0.145
0.15
0.15
0.16
0.165
0.17
0.155
0.135
0.1
0.11
0.1
0.08
0.055
0.025
0.005
-0.02
-0.04
-0.065
-0.09
-0.13
-0.15
-0.165
-0.17
-0.19
-0.215
-0.24
-0.26
-0.265
-0.24
-0.26
-0.28
-0.28
-0.3
-0.29
-0.29
-0.285
-0.29
-0.3
-0.31
-0.31
-0.31
-0.305
-0.31
-0.315
-0.325
-0.315
-0.305
-0.3
-0.305
-0.32
-0.315
-0.305
-0.305
-0.305
-0.305
-0.31
-0.315
-0.3
-0.28
-0.285
-0.285
-0.295
-0.285
-0.275
-0.27
-0.27
-0.275
-0.275
-0.275
-0.265
-0.255
-0.265
-0.265
-0.275
-0.275
-0.265
-0.26
-0.255
-0.265
-0.265
-0.265
-0.27
-0.255
-0.25
-0.265
-0.27
-0.29
-0.28
-0.275
-0.265
-0.28
-0.275
-0.29
-0.29
-0.285
-0.295
-0.3
-0.305
-0.3
-0.29
-0.28
-0.295
-0.295
-0.31
-0.32
-0.31
-0.305
-0.315
-0.32
-0.325
-0.33
-0.335
-0.33
-0.33
-0.335
-0.34
-0.335
-0.335
-0.325
-0.325
-0.335
-0.33
-0.34
-0.335
-0.335
-0.335
-0.34
-0.35
-0.365
-0.365
-0.34
-0.345
-0.345
-0.35
-0.355
-0.34
-0.345
-0.36
-0.365
-0.37
-0.355
-0.355
-0.345
-0.345
-0.34
-0.365
