Lead II
-0.975
-0.99
-1.015
-1.04
-1.055
-1.075
-1.055
-1.07
-1.06
-1.06
-1.06
-1.055
-1.055
-1.04
-1.02
-1.02
-1.03
-1.045
-1.055
-1.065
-1.07
-1.08
-1.065
-1.05
-1.06
-1.05
-1.06
-1.055
-1.06
-1.07
-1.09
-1.05
-1.05
-1.075
-1.07
-1.055
-1.06
-1.045
-1.06
-1.055
-1.035
-1.045
-1.055
-1.055
-1.08
-1.07
-1.06
-1.03
-1.02
-1.005
-1.0
-0.975
-0.97
-0.96
-0.965
-0.95
-0.945
-0.965
-0.94
-0.925
-0.935
-0.925
-0.935
-0.93
-0.915
-0.89
-0.895
-0.88
-0.85
-0.87
-0.88
-0.875
-0.87
-0.855
-0.86
-0.88
-0.895
-0.92
-0.94
-0.955
-0.99
-1.005
-1.035
-1.035
-1.06
-1.07
-1.085
-1.095
-1.13
-1.13
-1.14
-1.14
-1.14
-1.15
-1.125
-1.125
-1.115
-1.085
-1.105
-1.085
-1.095
-1.11
-1.1
-1.125
-1.13
-1.13
-1.115
-1.06
-0.985
-0.87
-0.69
-0.465
-0.175
0.155
0.505
0.9
1.29
1.65
1.93
2.1
2.075
1.855
1.38
0.74
0.1
-0.54
-1.18
-1.82
-1.79
-1.575
-1.285
-1.045
-0.89
-0.865
-0.9
-0.97
-1.04
-1.08
-1.115
-1.125
-1.115
-1.105
-1.085
-1.105
-1.075
-1.075
-1.07
-1.075
-1.095
-1.1
-1.12
-1.105
-1.11
-1.09
-1.065
-1.05
-1.035
-1.005
-0.995
-0.995
-1.0
-1.015
-1.015
-1.02
-1.025
-1.025
-1.01
-0.995
-0.995
-0.95
-0.935
-0.93
-0.935
-0.935
-0.94
-0.925
-0.925
-0.92
-0.9
-0.875
-0.85
-0.82
-0.815
-0.8
-0.795
-0.77
-0.765
-0.76
-0.75
-0.745
-0.71
-0.695
-0.67
-0.64
-0.625
-0.615
-0.61
-0.62
-0.63
-0.615
-0.62
-0.61
-0.61
-0.595
-0.58
-0.58
-0.595
-0.615
-0.615
-0.645
-0.67
-0.68
-0.715
-0.73
-0.755
-0.75
-0.76
-0.78
-0.815
-0.85
-0.88
-0.92
-0.94
-0.965
-0.995
-1.01
-1.015
-1.005
-1.01
-1.015
-1.02
-1.045
-1.035
-1.045
-1.055
-1.075
-1.075
-1.07
-1.065
-1.065
-1.045
-1.045
-1.04
-1.04
-1.045
-1.04
-1.04
-1.06
-1.07
-1.06
-1.065
-1.06
-1.06
-1.03
-1.035
-1.045
-1.045
-1.055
-1.07
-1.065
-1.08
-1.085
-1.08
-1.06
-1.07
-1.065
-1.065
-1.07
-1.07
-1.075
-1.09
-1.09
-1.105
-1.12
-1.125
-1.13
-1.135
-1.125
-1.115
-1.115
-1.11
-1.115
-1.13
-1.145
-1.16
-1.165
-1.15
-1.16
-1.145
-1.14
-1.135
-1.12
-1.13
-1.14
-1.165
-1.165
-1.17
-1.18
-1.17
-1.145
-1.15
-1.14
-1.145
-1.145
-1.155
-1.145
-1.17
-1.175
-1.185
-1.175
-1.16
-1.15
-1.125
-1.12
-1.115
-1.125
-1.145
-1.15
-1.155
-1.145
-1.135
-1.13
-1.105
-1.09
-1.07
-1.045
-1.035
-1.035
-1.05
-1.055
-1.075
-1.065
-1.055
-1.065
-1.02
-1.015
-1.005
-0.96
-0.955
-0.95
-0.95
-0.97
-0.98
-0.995
-1.0
-1.02
-1.025
-1.025
-1.03
-1.015
-1.03
-1.035
-1.055
-1.07
-1.095
-1.125
-1.155
-1.16
-1.185
-1.185
-1.2
-1.195
-1.2
-1.18
-1.175
-1.18
-1.17
-1.18
-1.195
-1.2
-1.19
-1.2
-1.18
-1.165
-1.16
-1.145
-1.15
-1.155
-1.125
-1.07
-0.965
-0.795
-0.575
-0.275
0.06
0.43
0.83
1.2
1.545
1.785
1.85
1.705
1.29
0.65
0.01
-0.63
-1.27
-1.81
-1.83
-1.675
-1.425
-1.21
-1.07
-1.015
-1.01
-1.06
-1.09
-1.145
-1.16
-1.15
-1.14
-1.14
-1.14
-1.145
-1.125
-1.13
-1.145
-1.15
-1.15
-1.135
-1.12
-1.095
-1.07
-1.07
-1.075
-1.06
-1.06
-1.065
-1.07
-1.09
-1.07
-1.055
-1.04
-1.0
-1.0
-0.995
-1.015
-1.01
-1.01
-1.01
-1.0
-0.99
-0.98
-0.965
-0.93
-0.915
-0.905
-0.89
-0.88
-0.87
-0.87
-0.87
-0.865
-0.86
-0.82
-0.79
-0.77
-0.725
-0.71
-0.71
-0.7
-0.695
-0.685
-0.685
-0.67
-0.66
-0.635
-0.635
-0.63
-0.605
-0.6
-0.585
-0.555
-0.575
-0.6
-0.605
-0.64
-0.655
-0.665
-0.66
-0.665
-0.65
-0.67
-0.715
-0.745
-0.77
-0.795
-0.795
-0.82
-0.825
-0.83
-0.845
-0.865
-0.89
-0.915
-0.925
-0.945
-0.955
-0.98
-0.975
-1.005
-1.03
-1.025
-1.015
-1.0
-0.98
-0.975
-0.965
-0.965
-0.995
-1.0
-1.01
-1.0
-0.995
-0.98
-0.96
-0.98
-0.985
-0.98
-0.97
-0.97
-0.97
-0.99
-0.975
-0.985
-0.99
-0.955
-0.955
-0.95
-0.94
-0.935
-0.94
-0.935
-0.95
-0.945
-0.955
-0.945
-0.945
-0.945
-0.96
-0.955
-0.94
-0.925
-0.935
-0.945
-0.965
-0.985
-0.985
-0.985
-0.975
-0.995
-0.98
-0.965
-0.955
-0.955
-0.96
-0.96
-0.98
-0.99
-1.0
-1.01
-1.005
-1.0
-1.005
-1.01
-0.99
-0.975
-0.97
-0.985
-0.975
-0.98
-0.99
-0.995
-1.01
-1.025
-0.995
-0.975
-0.97
-0.955
-0.965
-0.965
-0.975
-0.995
-1.005
-1.025
-0.99
-0.985
-0.96
-0.945
-0.94
-0.925
-0.925
-0.92
-0.91
-0.895
-0.89
-0.875
-0.87
-0.85
-0.855
-0.84
-0.83
-0.83
-0.825
-0.805
-0.8
-0.79
-0.775
-0.775
-0.77
-0.775
-0.79
-0.77
-0.77
-0.785
-0.795
-0.81
-0.83
-0.83
-0.845
-0.85
-0.87
-0.89
-0.91
-0.945
-0.955
-0.96
-0.96
-0.965
-0.97
-0.98
-1.015
-1.03
-1.045
-1.035
-1.02
-1.01
-1.0
-1.0
-0.995
-0.985
-1.005
-1.01
-1.02
-1.02
-1.01
-0.99
-0.89
-0.755
-0.54
-0.305
-0.02
0.29
0.61
0.965
1.32
1.62
1.865
1.99
1.98
1.785
1.36
0.72
0.08
-0.56
-1.2
-1.64
-1.58
-1.345
-1.085
-0.875
-0.775
-0.765
-0.825
-0.895
-0.955
-1.005
-1.01
-1.005
-0.995
-0.995
-0.99
-1.0
-0.98
-0.965
-0.965
-0.955
-0.94
-0.96
-0.955
-0.965
-0.975
-0.98
-0.97
-0.96
-0.945
-0.93
-0.91
-0.895
-0.895
-0.89
-0.89
-0.88
-0.89
-0.885
-0.895
-0.88
-0.87
-0.865
-0.85
-0.835
-0.83
-0.82
-0.805
-0.8
-0.795
-0.785
-0.765
-0.755
-0.73
-0.715
-0.7
-0.68
-0.68
-0.69
-0.67
-0.665
-0.64
-0.62
-0.61
-0.59
-0.565
-0.54
-0.505
-0.495
-0.48
-0.49
-0.495
-0.5
-0.515
-0.51
-0.51
-0.49
-0.465
-0.465
-0.455
-0.43
-0.445
-0.455
-0.475
-0.49
-0.515
-0.51
-0.515
-0.53
-0.565
-0.605
-0.63
-0.645
-0.675
-0.685
-0.71
-0.735
-0.75
-0.79
-0.79
-0.81
-0.82
-0.82
-0.825
-0.83
-0.83
-0.845
-0.86
-0.885
-0.89
-0.875
-0.88
-0.87
-0.865
-0.855
-0.85
-0.845
-0.855
-0.85
-0.865
-0.87
-0.87
-0.88
-0.875
-0.88
-0.845
-0.855
-0.85
-0.825
-0.84
-0.85
-0.85
-0.865
-0.86
-0.855
-0.875
-0.865
-0.855
-0.85
-0.845
-0.83
-0.84
-0.86
-0.865
-0.87
-0.88
-0.875
-0.885
-0.875
-0.865
-0.855
-0.845
-0.875
-0.86
-0.875
-0.895
-0.9
-0.91
-0.9
-0.92
-0.91
-0.905
-0.895
-0.885
-0.885
-0.89
-0.905
-0.925
-0.935
-0.935
-0.945
-0.935
-0.94
-0.93
-0.92
-0.905
-0.905
-0.9
-0.91
-0.925
-0.92
-0.94
-0.95
-0.95
-0.95
-0.935
-0.925
-0.905
-0.895
-0.89
-0.885
-0.885
-0.9
-0.905
-0.92
-0.925
-0.935
-0.925
-0.91
-0.89
-0.865
-0.84
-0.83
-0.815
-0.815
-0.815
-0.805
-0.81
-0.805
-0.79
-0.795
-0.79
-0.775
-0.765
-0.745
-0.74
-0.725
-0.72
-0.715
-0.73
-0.74
-0.75
-0.74
-0.76
-0.75
-0.745
-0.78
-0.795
-0.805
-0.845
-0.87
-0.91
-0.93
-0.94
-0.955
-0.95
-0.965
-0.96
-0.955
-0.945
-0.96
-0.965
-0.97
-0.985
-0.965
-0.945
-0.96
-0.925
-0.925
-0.925
-0.93
-0.93
-0.935
-0.925
-0.9
-0.815
-0.675
-0.48
-0.24
0.06
0.39
0.755
1.135
1.5
1.835
2.045
2.145
2.045
1.7
1.125
0.485
-0.155
-0.795
-1.435
-1.61
-1.425
-1.15
-0.885
-0.73
-0.695
-0.725
-0.805
-0.875
-0.92
-0.93
-0.93
-0.91
-0.91
-0.9
-0.92
-0.915
-0.93
-0.93
-0.93
-0.92
-0.905
-0.895
-0.895
-0.89
-0.895
-0.885
-0.875
-0.89
-0.865
-0.865
-0.85
-0.845
-0.84
-0.815
-0.815
-0.815
-0.835
-0.825
-0.835
-0.81
-0.805
-0.79
-0.765
-0.745
-0.73
-0.715
-0.71
-0.71
-0.71
-0.71
-0.695
-0.68
-0.665
-0.64
-0.645
-0.62
-0.585
-0.555
-0.56
-0.555
-0.55
-0.54
-0.545
-0.52
-0.51
-0.49
-0.47
-0.445
-0.43
-0.405
-0.405
-0.405
-0.405
-0.405
-0.425
-0.43
-0.445
-0.44
-0.43
-0.44
-0.44
-0.45
-0.48
-0.495
-0.54
-0.58
-0.6
-0.625
-0.64
-0.67
-0.67
-0.685
-0.71
-0.715
-0.73
-0.76
-0.785
-0.815
-0.835
-0.845
-0.84
-0.85
-0.835
-0.84
-0.83
-0.81
-0.815
-0.83
-0.84
-0.845
-0.855
-0.86
-0.875
-0.89
-0.88
-0.85
-0.84
-0.82
-0.81
-0.83
-0.82
-0.83
-0.845
-0.83
-0.84
-0.84
-0.83
-0.845
-0.835
-0.85
-0.885
-0.885
-0.885
-0.885
-0.865
-0.86
-0.87
-0.865
-0.875
-0.87
-0.87
-0.87
-0.865
-0.885
-0.885
-0.89
-0.91
-0.915
-0.925
-0.945
-0.925
-0.93
-0.92
-0.91
-0.91
-0.91
-0.94
-0.945
-0.955
-0.97
-0.965
-0.97
-0.955
-0.955
-0.935
-0.935
-0.93
-0.94
-0.94
-0.96
-0.98
-0.975
-0.955
-0.955
-0.94
-0.94
-0.92
-0.925
-0.94
-0.95
-0.935
-0.945
-0.95
-0.965
-0.96
-0.95
-0.94
-0.94
-0.935
-0.93
-0.93
-0.925
-0.915
-0.905
-0.925
-0.915
-0.895
-0.885
-0.87
-0.845
-0.82
-0.805
-0.795
-0.8
-0.805
-0.825
-0.83
-0.83
-0.825
-0.815
-0.805
-0.79
-0.75
-0.71
-0.705
-0.715
-0.74
-0.765
-0.775
-0.785
-0.81
-0.82
-0.82
-0.81
-0.83
-0.855
-0.87
-0.895
-0.915
-0.935
-0.97
-0.985
-1.01
-1.035
-1.035
-1.01
-1.0
-0.985
-0.97
-0.965
-0.985
-0.975
-0.995
-1.005
-1.015
-1.0
-1.015
-0.995
-0.98
-0.965
-0.945
-0.87
-0.785
-0.625
-0.415
-0.12
0.205
0.565
0.96
1.355
1.705
2.02
2.195
2.21
1.945
1.39
0.75
0.11
-0.53
-1.17
-1.745
-1.655
-1.375
-1.05
-0.835
-0.725
-0.7
-0.77
-0.855
-0.925
-1.0
-1.005
-0.99
-1.0
-0.96
-0.94
-0.945
-0.94
-0.955
-0.965
-0.97
-0.955
-0.96
-0.96
-0.94
-0.945
-0.91
-0.905
-0.895
-0.88
-0.91
-0.91
-0.91
-0.91
-0.91
-0.89
-0.885
-0.875
-0.86
-0.845
-0.845
-0.84
-0.84
-0.855
-0.84
-0.86
-0.84
-0.82
-0.8
-0.775
-0.75
-0.72
-0.715
-0.71
-0.705
-0.705
-0.685
-0.68
-0.67
-0.635
-0.615
-0.58
-0.565
-0.54
-0.51
-0.495
-0.5
-0.495
-0.485
-0.49
-0.485
-0.465
-0.445
-0.435
-0.425
-0.415
-0.435
-0.425
-0.44
-0.46
-0.475
-0.485
-0.495
-0.51
-0.51
-0.51
-0.515
-0.53
-0.555
-0.61
-0.65
-0.695
-0.735
-0.765
-0.79
-0.815
-0.81
-0.84
-0.85
-0.865
-0.885
-0.9
-0.935
-0.945
-0.94
-0.955
-0.98
-0.975
-0.98
-0.985
-0.98
-0.965
-0.96
-0.955
-0.96
-0.96
-0.98
-0.965
-0.98
-0.96
-0.98
-0.965
-0.96
-0.95
-0.945
-0.935
-0.935
-0.935
-0.955
-0.965
-0.99
-0.98
-0.96
-0.95
-0.935
-0.915
-0.935
-0.96
-0.975
-0.99
-0.995
-0.985
-0.975
-0.965
-0.955
-0.965
-0.965
-0.955
-0.97
-0.98
-0.965
-0.97
-0.98
-0.99
-1.015
-1.005
-1.025
-1.015
-1.02
-1.025
-1.02
-1.03
-1.015
-1.01
-1.025
-1.02
-1.03
-1.03
-1.04
-1.025
-1.01
-0.99
-1.0
-0.98
-0.99
-1.0
-1.005
-1.0
-1.0
-1.0
-1.0
-0.985
-0.985
-0.98
-0.98
-0.985
-0.975
-0.985
-0.985
-0.98
-0.98
-0.985
-0.98
-0.965
-0.955
-0.945
-0.93
-0.925
-0.935
-0.935
-0.915
-0.92
-0.9
-0.895
-0.86
-0.845
-0.85
-0.835
-0.84
-0.84
-0.86
-0.845
-0.835
-0.805
-0.79
-0.79
-0.78
-0.78
-0.79
-0.8
-0.81
-0.81
-0.85
-0.845
-0.835
-0.855
-0.865
-0.88
-0.885
-0.91
-0.915
-0.915
-0.94
-0.985
-1.0
-1.025
-1.04
-1.05
-1.065
-1.045
-1.03
-1.015
-1.015
-1.005
-1.015
-1.0
-0.985
-0.99
-1.0
-1.0
-1.01
-1.015
-1.015
-0.985
-0.905
-0.785
-0.645
-0.455
-0.22
0.035
0.3
0.59
0.91
1.27
1.62
1.89
2.06
2.045
1.725
1.13
0.49
-0.15
-0.79
-1.43
-1.675
-1.5
-1.22
-0.97
-0.795
-0.725
-0.76
-0.815
-0.895
-0.96
-1.005
-1.01
-1.01
-1.015
-0.99
-0.99
-0.99
-0.98
-0.98
-0.975
-0.97
-0.965
-0.97
-0.97
-0.975
-0.97
-0.935
-0.935
-0.92
-0.9
-0.895
-0.91
-0.925
-0.92
-0.915
-0.925
-0.925
-0.92
-0.915
-0.89
-0.865
-0.855
-0.855
-0.845
-0.85
-0.845
-0.835
-0.825
-0.81
-0.8
-0.78
-0.76
-0.74
-0.715
-0.72
-0.7
-0.69
-0.69
-0.68
-0.67
-0.65
-0.64
-0.635
-0.605
-0.57
-0.555
-0.535
-0.525
-0.505
-0.515
-0.51
-0.5
-0.505
-0.505
-0.51
-0.495
-0.48
-0.485
-0.51
-0.505
-0.51
-0.51
-0.53
-0.535
-0.55
-0.56
-0.59
-0.6
-0.62
-0.635
-0.67
-0.685
-0.73
-0.76
-0.795
-0.84
-0.865
-0.87
-0.87
-0.87
-0.875
-0.885
-0.9
-0.93
-0.935
-0.96
-0.975
-0.975
-0.99
-0.995
-0.995
-1.005
-0.995
-0.975
-0.97
-0.97
-0.965
-0.98
-1.005
-1.005
-1.015
-1.005
-1.005
-0.99
-0.985
-0.975
-0.985
-0.97
-0.98
-0.995
-1.005
-0.985
-0.985
-0.975
-0.97
-0.97
-0.97
-0.96
-0.98
-0.99
-0.98
-0.995
-1.005
-1.015
-1.02
-1.025
-1.02
-1.03
-1.02
-1.01
-1.005
-1.01
-1.02
-1.03
-1.05
-1.05
-1.07
-1.07
-1.055
-1.045
-1.035
-1.02
-1.035
-1.025
-1.05
-1.06
-1.075
-1.085
-1.095
-1.115
-1.11
-1.095
-1.08
-1.07
-1.06
-1.055
-1.055
-1.065
-1.075
-1.08
-1.1
-1.125
-1.105
-1.105
-1.1
-1.085
-1.075
-1.09
-1.1
-1.095
-1.115
-1.115
-1.085
-1.075
-1.05
-1.025
-1.005
-0.99
-0.99
-1.0
-0.995
-0.99
-1.0
-1.0
-0.98
-0.98
-0.965
-0.945
-0.925
-0.885
-0.89
-0.925
-0.935
-0.925
-0.94
-0.94
-0.94
-0.945
-0.94
-0.955
-0.955
-0.975
-1.01
-1.03
-1.06
-1.09
-1.095
-1.11
-1.12
-1.12
-1.1
-1.115
-1.09
-1.075
-1.095
-1.1
-1.115
-1.115
-1.125
-1.11
-1.115
-1.11
-1.105
-1.115
-1.085
-1.06
-1.025
-0.98
-0.905
-0.81
-0.645
-0.435
-0.165
0.16
0.505
0.88
1.25
1.56
1.745
1.735
1.425
0.825
0.185
-0.455
-1.095
-1.735
-1.805
-1.59
-1.285
-1.04
-0.88
-0.84
-0.88
-0.965
-1.04
-1.06
-1.085
-1.08
-1.09
-1.055
-1.045
-1.025
-1.02
-1.035
-1.03
-1.035
-1.045
-1.035
-1.02
-1.03
-1.02
-1.005
-1.005
-0.985
-0.985
-0.975
-0.985
-0.995
-0.995
-0.98
-0.975
-0.97
-0.935
-0.915
-0.915
-0.9
-0.895
-0.89
-0.885
-0.885
-0.88
-0.885
-0.88
-0.865
-0.85
-0.825
-0.805
-0.775
-0.765
-0.76
-0.745
-0.745
-0.75
-0.735
-0.73
-0.7
-0.67
-0.635
-0.615
-0.59
-0.575
-0.575
-0.56
-0.565
-0.56
-0.56
-0.55
-0.555
-0.53
-0.515
-0.52
-0.495
-0.5
-0.52
-0.535
-0.565
-0.58
-0.595
-0.605
-0.62
-0.62
-0.62
-0.645
-0.66
-0.675
-0.72
-0.74
-0.765
-0.8
-0.815
-0.835
-0.855
-0.865
-0.87
-0.885
-0.9
-0.895
-0.885
-0.895
-0.915
-0.925
-0.925
-0.945
-0.925
-0.92
-0.905
-0.895
-0.89
-0.9
-0.9
-0.915
-0.94
-0.94
-0.945
-0.935
-0.935
-0.94
-0.925
-0.92
-0.915
-0.91
-0.9
-0.9
-0.915
-0.93
-0.95
-0.955
-0.95
-0.94
-0.935
-0.92
-0.9
-0.905
-0.915
-0.925
-0.935
-0.935
-0.95
-0.945
-0.96
-0.945
-0.95
-0.935
-0.95
-0.945
-0.965
-0.965
-0.97
-0.985
-0.97
-1.0
-1.0
-0.985
-0.98
-0.98
-1.0
-0.99
-0.99
-0.975
-0.995
-0.985
-0.995
-1.005
-1.005
-0.995
-0.99
-0.975
-0.97
-0.97
-0.975
-0.99
-1.025
-1.02
-1.03
-1.03
-1.01
-1.03
-1.02
-1.01
-0.99
-0.985
-0.99
-0.99
-1.0
-1.01
-1.005
-1.015
-1.015
-1.015
-1.0
-0.99
-0.965
-0.94
-0.92
-0.91
-0.905
-0.91
-0.91
-0.925
-0.94
-0.955
-0.935
-0.925
-0.895
-0.88
-0.855
-0.85
-0.86
-0.85
-0.85
-0.865
-0.88
-0.875
-0.87
-0.875
-0.865
-0.885
-0.89
-0.91
-0.945
-0.98
-1.01
-1.045
-1.065
-1.07
-1.08
-1.08
-1.085
-1.075
-1.08
-1.07
-1.07
-1.075
-1.08
-1.085
-1.105
-1.105
-1.09
-1.075
-1.06
-1.07
-1.085
-1.09
-1.1
-1.08
-1.02
-0.95
-0.815
-0.655
-0.45
-0.2
0.06
0.375
0.725
1.11
1.475
1.755
1.925
1.855
1.5
0.86
0.22
-0.42
-1.06
-1.7
-1.67
-1.435
-1.155
-0.96
-0.845
-0.845
-0.915
-1.0
-1.05
-1.08
-1.095
-1.07
-1.085
-1.065
-1.09
-1.095
-1.1
-1.11
-1.11
-1.12
-1.1
-1.07
-1.055
-1.03
-1.03
-1.025
-1.045
-1.04
-1.045
-1.04
-1.045
-1.04
-1.025
-1.02
-1.005
-1.0
-1.005
-0.995
-1.0
-0.98
-0.98
-0.975
-0.965
-0.95
-0.935
-0.895
-0.9
-0.88
-0.885
-0.875
-0.865
-0.845
-0.845
-0.84
-0.83
-0.805
-0.77
-0.745
-0.735
-0.705
-0.695
-0.68
-0.67
-0.67
-0.655
-0.64
-0.605
-0.615
-0.585
-0.58
-0.565
-0.575
-0.54
-0.56
-0.545
-0.54
-0.565
-0.565
-0.555
-0.56
-0.57
-0.565
-0.565
-0.575
-0.6
-0.615
-0.65
-0.68
-0.705
-0.72
-0.75
-0.77
-0.765
-0.79
-0.81
-0.815
-0.835
-0.845
-0.86
-0.885
-0.905
-0.945
-0.955
-0.95
-0.95
-0.94
-0.93
-0.93
-0.95
-0.945
-0.955
-0.955
-0.965
-0.975
-0.98
-0.975
-0.965
-0.955
-0.94
-0.945
-0.945
-0.955
-0.97
-0.98
-0.975
-0.965
-0.975
-0.955
-0.95
-0.95
-0.945
-0.93
-0.965
-0.965
-0.955
-0.965
-0.97
-0.975
-0.975
-0.985
-0.965
-0.96
-0.96
-0.96
-0.945
-0.95
-0.975
-0.98
-0.995
-1.01
-1.015
-1.0
-0.985
-0.975
-0.975
-0.975
-0.99
-1.0
-1.005
-1.025
-1.025
-1.035
-1.03
-1.04
-1.05
-1.04
-1.015
-1.025
-1.025
-1.035
-1.045
-1.045
-1.05
-1.05
-1.045
-1.06
-1.05
-1.045
-1.045
-1.015
-1.015
-1.03
-1.045
-1.065
-1.07
-1.07
-1.07
-1.065
-1.06
-1.05
-1.04
-1.03
-1.035
-1.045
-1.055
-1.075
-1.09
-1.075
-1.07
-1.065
-1.04
-1.04
-1.02
-1.0
-0.995
-0.975
-0.95
-0.965
-0.97
-0.96
-0.955
-0.96
-0.955
-0.955
-0.93
-0.91
-0.9
-0.875
-0.86
-0.86
-0.87
-0.895
-0.905
-0.9
-0.905
-0.935
-0.935
-0.93
-0.925
-0.93
-0.955
-0.965
-1.015
-1.04
-1.06
-1.085
-1.1
-1.13
-1.135
-1.145
-1.135
-1.155
-1.145
-1.155
-1.15
-1.135
-1.145
-1.13
-1.115
-1.11
-1.105
-1.13
-1.12
-1.125
-1.14
-1.16
-1.16
-1.15
-1.095
-1.025
-0.895
-0.69
-0.41
-0.115
0.205
0.525
0.86
1.175
1.49
1.75
1.93
2.015
1.905
1.505
0.865
0.225
-0.415
-1.055
-1.695
-1.7
-1.44
-1.17
-0.955
-0.88
-0.895
-0.965
-1.05
-1.145
-1.145
-1.16
-1.16
-1.16
-1.15
-1.17
-1.16
-1.17
-1.16
-1.15
-1.155
-1.125
-1.12
-1.13
-1.14
-1.165
-1.14
-1.13
-1.125
-1.105
-1.105
-1.09
-1.07
-1.05
-1.06
-1.055
-1.06
-1.06
-1.05
-1.06
-1.05
-1.035
-1.03
-1.015
-0.995
-0.965
-0.95
-0.935
-0.925
-0.92
-0.925
-0.92
-0.92
-0.905
-0.865
-0.835
-0.79
-0.76
-0.74
-0.735
-0.7
-0.69
-0.695
-0.67
-0.65
-0.64
-0.635
-0.62
-0.605
-0.585
-0.565
-0.56
-0.575
-0.585
-0.59
-0.6
-0.59
-0.595
-0.595
-0.58
-0.59
-0.6
-0.625
-0.655
-0.7
-0.715
-0.75
-0.78
-0.8
-0.825
-0.84
-0.865
-0.87
-0.885
-0.89
-0.915
-0.94
-0.96
-0.975
-0.985
-0.995
-1.0
-1.005
-1.025
-1.03
-1.005
-0.995
-1.0
-1.005
-1.005
-1.015
-1.01
-1.01
-1.015
-1.0
-1.005
-0.99
-0.99
-0.99
-0.99
-0.99
-1.005
-1.01
-1.015
-1.015
-1.02
-1.0
-0.995
-0.98
-0.975
-0.975
-0.985
-1.005
-1.0
-1.015
-1.025
-1.04
-1.05
-1.03
-1.04
-1.03
-1.02
-1.03
-1.035
-1.045
-1.05
-1.06
-1.075
-1.085
-1.085
-1.09
-1.07
-1.06
-1.05
-1.045
-1.035
-1.05
-1.065
-1.06
-1.065
-1.07
-1.065
-1.08
-1.065
-1.07
-1.05
-1.06
-1.085
-1.095
-1.1
-1.115
-1.12
-1.12
-1.105
-1.09
-1.105
-1.095
-1.08
-1.085
-1.1
-1.1
-1.1
-1.115
-1.12
-1.13
-1.11
-1.12
-1.13
-1.13
-1.11
-1.11
-1.115
-1.105
-1.105
-1.1
-1.085
-1.06
-1.04
-1.02
-1.0
-0.99
-1.0
-1.0
-1.005
-1.01
-1.03
-1.03
-1.025
-1.01
-0.98
-0.945
-0.95
-0.925
-0.925
-0.94
-0.955
-0.98
-0.99
-1.01
-1.025
-1.045
-1.05
-1.035
-1.035
-1.035
-1.055
-1.07
-1.1
-1.125
-1.14
-1.175
-1.195
-1.205
-1.205
-1.195
-1.185
-1.165
-1.145
-1.13
-1.13
-1.145
-1.15
-1.16
-1.165
-1.175
-1.15
-1.15
-1.14
-1.135
-1.13
-1.08
-1.045
-0.96
-0.82
-0.6
-0.3
0.055
0.455
0.865
1.295
1.685
1.995
2.18
2.195
1.995
1.56
0.92
0.28
-0.36
-1.0
-1.64
-1.665
-1.46
-1.19
-0.97
-0.84
-0.85
-0.91
-1.015
-1.1
-1.145
-1.17
-1.15
-1.155
-1.125
-1.105
-1.105
-1.11
-1.105
-1.125
-1.135
-1.135
-1.13
-1.125
-1.11
-1.09
-1.085
-1.07
-1.095
-1.105
-1.105
-1.105
-1.095
-1.085
-1.075
-1.065
-1.055
-1.045
-1.035
-1.015
-1.015
-1.015
-1.035
-1.035
-1.04
-1.035
-1.025
-1.01
-0.985
-0.965
-0.925
-0.89
-0.895
-0.89
-0.885
-0.88
-0.88
-0.85
-0.835
-0.81
-0.795
-0.765
-0.75
-0.73
-0.73
-0.71
-0.7
-0.69
-0.69
-0.665
-0.655
-0.635
-0.64
-0.61
-0.615
-0.6
-0.615
-0.62
-0.64
-0.66
-0.665
-0.69
-0.68
-0.695
-0.71
-0.73
-0.755
-0.79
-0.81
-0.84
-0.9
-0.935
-0.975
-1.0
-1.035
-1.05
-1.05
-1.07
-1.075
-1.065
-1.075
-1.075
-1.1
-1.115
-1.125
-1.13
-1.14
-1.135
-1.125
-1.115
-1.1
-1.105
-1.115
-1.12
-1.11
-1.125
-1.12
-1.125
-1.12
-1.115
-1.095
-1.125
-1.12
-1.11
-1.12
-1.135
-1.155
-1.165
-1.18
-1.195
-1.205
-1.2
-1.195
-1.195
-1.185
-1.175
-1.2
-1.215
-1.23
-1.24
-1.24
-1.245
-1.255
-1.265
-1.265
-1.27
-1.25
-1.24
-1.25
-1.255
-1.28
-1.29
-1.305
-1.29
-1.31
-1.295
-1.29
-1.275
-1.26
-1.245
-1.235
-1.26
-1.265
-1.28
-1.29
-1.295
-1.305
-1.285
-1.29
-1.265
-1.27
-1.235
-1.255
-1.22
-1.24
-1.255
-1.255
-1.265
-1.275
-1.27
-1.255
-1.245
-1.225
-1.22
-1.22
-1.22
-1.215
-1.22
-1.22
-1.22
-1.205
-1.165
-1.165
-1.14
-1.135
-1.125
-1.14
-1.145
-1.135
-1.125
-1.115
-1.105
-1.1
-1.08
-1.065
-1.075
-1.075
-1.1
-1.105
-1.115
-1.115
-1.125
-1.13
-1.14
-1.16
-1.19
-1.19
-1.205
-1.24
-1.245
-1.255
-1.29
-1.305
-1.31
-1.325
-1.305
-1.295
-1.29
-1.275
-1.28
-1.285
-1.28
-1.265
-1.265
-1.275
-1.28
-1.29
-1.295
-1.3
-1.26
-1.19
-1.1
-0.98
-0.785
-0.555
-0.31
-0.02
0.305
0.665
1.05
1.375
1.66
1.775
1.665
1.265
0.625
-0.015
-0.655
-1.295
-1.915
-1.875
-1.645
-1.385
-1.185
-1.075
-1.045
-1.08
-1.125
-1.205
-1.235
-1.27
-1.28
-1.26
-1.255
-1.255
-1.26
-1.25
-1.27
-1.24
-1.24
-1.225
-1.215
-1.22
-1.225
-1.21
-1.225
-1.23
-1.22
-1.22
-1.2
-1.175
-1.165
-1.155
-1.16
-1.14
-1.135
-1.13
-1.13
-1.135
-1.125
-1.105
-1.095
-1.08
-1.05
-1.045
-1.045
-1.03
-1.035
-1.02
-1.01
-1.02
-1.0
-0.985
-0.985
-0.96
-0.94
-0.915
-0.895
-0.89
-0.88
-0.87
-0.84
-0.825
-0.83
-0.795
-0.765
-0.735
-0.71
-0.705
-0.695
-0.7
-0.7
-0.715
-0.705
-0.695
-0.695
-0.69
-0.68
-0.665
-0.66
-0.665
-0.66
-0.685
-0.695
-0.7
-0.7
-0.72
-0.73
-0.745
-0.75
-0.77
-0.77
-0.8
-0.81
-0.84
-0.85
-0.875
-0.905
-0.92
-0.93
-0.94
-0.96
-0.965
-0.97
-1.0
-1.015
-1.02
-1.04
-1.04
-1.05
-1.065
-1.075
-1.055
-1.04
-1.025
-0.995
-0.995
-1.0
-1.0
-1.03
-1.055
-1.03
-1.035
-1.045
-1.02
-1.02
-1.005
-0.99
-0.985
-0.985
-0.995
-1.0
-1.01
-1.02
-1.025
-1.005
-1.015
-1.01
-1.01
-1.005
-1.02
-1.01
-0.995
-0.985
-1.005
-1.01
-1.04
-1.025
-1.02
-1.035
-1.04
-1.015
-1.015
-1.025
-1.04
-1.045
-1.05
-1.06
-1.075
-1.07
-1.085
-1.075
-1.07
-1.075
-1.07
-1.06
-1.07
-1.075
-1.075
-1.08
-1.075
-1.105
-1.09
-1.095
-1.085
-1.07
-1.08
-1.095
-1.1
-1.095
-1.1
-1.11
-1.105
-1.11
-1.09
-1.095
-1.095
-1.085
-1.09
-1.09
-1.1
-1.1
-1.1
-1.09
-1.095
-1.09
-1.1
-1.085
-1.085
-1.065
-1.07
-1.045
-1.025
-1.015
-0.985
-0.98
-0.98
-0.98
-0.965
-0.965
-0.965
-0.965
-0.955
-0.945
-0.92
-0.905
-0.885
-0.89
-0.91
-0.925
-0.935
-0.945
-0.94
-0.935
-0.95
-0.945
-0.955
-0.965
-0.98
-0.995
-1.025
-1.06
-1.075
-1.09
-1.105
-1.115
-1.14
-1.15
-1.155
-1.155
-1.15
-1.145
-1.145
-1.15
-1.15
-1.145
-1.14
-1.125
-1.115
-1.12
-1.14
-1.17
-1.18
-1.165
-1.15
-1.05
-0.925
-0.76
-0.53
-0.26
0.045
0.38
0.74
1.12
1.485
1.77
1.945
1.88
1.535
0.895
0.255
-0.385
-1.025
-1.665
-1.75
-1.51
-1.215
-0.985
-0.865
-0.85
-0.91
-0.99
-1.06
-1.115
-1.125
-1.125
-1.1
-1.105
-1.1
-1.115
-1.135
-1.13
-1.125
-1.125
-1.12
-1.095
-1.085
-1.075
-1.07
-1.085
-1.095
-1.105
-1.105
-1.095
-1.075
-1.06
-1.055
-1.04
-1.02
-1.01
-1.005
-1.0
-1.01
-1.005
-1.005
-1.005
-1.0
-0.975
-0.955
-0.935
-0.935
-0.92
-0.925
-0.92
-0.91
-0.89
-0.895
-0.87
-0.845
-0.83
-0.795
-0.77
-0.745
-0.735
-0.715
-0.705
-0.695
-0.7
-0.67
-0.66
-0.63
-0.605
-0.59
-0.575
-0.575
-0.575
-0.585
-0.605
-0.605
-0.585
-0.59
-0.585
-0.59
-0.59
-0.58
-0.565
-0.58
-0.62
-0.66
-0.71
-0.755
-0.77
-0.8
-0.81
-0.815
-0.845
-0.855
-0.865
-0.89
-0.89
-0.915
-0.95
-0.99
-1.015
-1.035
-1.04
-1.045
-1.03
-1.03
-1.01
-1.015
-1.015
-1.015
-1.02
-1.05
-1.06
-1.055
-1.06
-1.055
-1.035
-1.03
-1.01
-1.02
-1.025
-1.02
-1.03
-1.045
-1.04
-1.045
-1.045
-1.045
-1.035
-1.015
-1.015
-1.005
-1.0
-1.01
-1.02
-1.025
-1.035
-1.06
-1.05
-1.05
-1.05
-1.045
-1.035
-1.045
-1.045
-1.06
-1.06
-1.06
-1.06
-1.065
-1.085
-1.095
-1.085
-1.075
-1.06
-1.065
-1.055
-1.09
-1.09
-1.115
-1.12
-1.125
-1.125
-1.11
-1.085
-1.085
-1.065
-1.075
-1.09
-1.085
-1.105
-1.12
-1.115
-1.13
-1.13
-1.135
-1.125
-1.115
-1.11
-1.095
-1.1
-1.09
-1.095
-1.12
-1.11
-1.125
-1.125
-1.12
-1.11
-1.1
-1.09
-1.095
-1.1
-1.1
-1.09
-1.08
-1.065
-1.045
-1.035
-1.035
-1.015
-1.005
-1.01
-0.995
-0.975
-0.98
-0.985
-0.99
-0.975
-0.97
-0.94
-0.92
-0.925
-0.93
-0.935
-0.935
-0.935
-0.955
-0.975
-1.0
-1.0
-1.025
-1.03
-1.04
-1.045
-1.07
-1.085
-1.125
-1.13
-1.155
-1.155
-1.175
-1.18
-1.2
-1.195
-1.175
-1.17
-1.17
-1.15
-1.15
-1.155
-1.155
-1.165
-1.175
-1.175
-1.185
-1.19
-1.18
-1.175
-1.145
-1.11
-1.04
-0.92
-0.75
-0.515
-0.205
0.155
0.55
0.99
1.41
1.79
2.045
2.135
1.95
1.46
0.82
0.18
-0.46
-1.1
-1.74
-1.77
-1.48
-1.16
-0.935
-0.835
-0.86
-0.945
-1.055
-1.135
-1.185
-1.2
-1.215
-1.195
-1.165
-1.165
-1.14
-1.125
-1.13
-1.15
-1.135
-1.135
-1.145
-1.14
-1.15
-1.145
-1.125
-1.115
-1.125
-1.12
-1.095
-1.085
-1.085
-1.08
-1.1
-1.11
-1.105
-1.09
-1.085
-1.07
-1.06
-1.04
-1.03
-1.025
-1.005
-1.0
-0.995
-0.985
-0.985
-0.98
-0.965
-0.95
-0.925
-0.885
-0.875
-0.86
-0.835
-0.825
-0.81
-0.81
-0.8
-0.78
-0.77
-0.74
-0.725
-0.69
-0.65
-0.635
-0.62
-0.63
-0.63
-0.62
-0.62
-0.625
-0.61
-0.615
-0.61
-0.6
-0.6
-0.605
-0.615
-0.63
-0.65
-0.66
-0.67
-0.69
-0.71
-0.715
-0.75
-0.765
-0.795
-0.81
-0.845
-0.865
-0.895
-0.925
-0.955
-0.97
-0.985
-1.0
-1.0
-1.025
-1.055
-1.055
-1.06
-1.06
-1.05
-1.065
-1.07
-1.085
-1.095
-1.08
-1.08
-1.075
-1.065
-1.07
-1.07
-1.085
-1.09
-1.09
-1.095
-1.1
-1.085
-1.08
-1.09
-1.08
-1.09
-1.1
-1.09
-1.1
-1.11
-1.095
-1.125
-1.155
-1.165
-1.125
-1.115
-1.1
-1.095
-1.095
-1.115
-1.105
-1.14
-1.13
-1.145
-1.145
-1.145
-1.15
-1.155
-1.155
-1.155
-1.17
-1.145
-1.165
-1.175
-1.165
-1.18
-1.195
-1.185
-1.18
-1.175
-1.16
-1.165
-1.17
-1.18
-1.225
-1.225
-1.22
-1.225
-1.225
-1.23
-1.21
-1.195
-1.195
-1.19
-1.195
-1.19
-1.195
-1.215
-1.22
-1.22
-1.225
-1.215
-1.21
-1.195
-1.195
-1.19
-1.205
-1.195
-1.21
-1.22
-1.22
-1.23
-1.24
-1.24
-1.205
-1.205
-1.185
-1.17
-1.155
-1.15
-1.14
-1.14
-1.12
-1.11
-1.11
-1.1
-1.105
-1.085
-1.09
-1.08
-1.09
-1.075
-1.075
-1.06
-1.045
-1.035
-1.015
-1.03
-1.025
-1.035
-1.035
-1.045
-1.055
-1.07
-1.085
-1.1
-1.095
-1.115
-1.14
