Lead II
-0.19
-0.21
-0.21
-0.19
-0.18
-0.175
-0.18
-0.175
-0.165
-0.165
-0.165
-0.17
-0.185
-0.19
-0.2
-0.21
-0.21
-0.22
-0.215
-0.21
-0.205
-0.18
-0.16
-0.165
-0.165
-0.185
-0.17
-0.13
-0.085
-0.055
-0.07
-0.09
-0.11
-0.1
-0.09
-0.105
-0.125
-0.135
-0.135
-0.135
-0.13
-0.15
-0.17
-0.18
-0.185
-0.18
-0.155
-0.15
-0.145
-0.175
-0.185
-0.18
-0.16
-0.155
-0.17
-0.2
-0.2
-0.185
-0.17
-0.16
-0.175
-0.19
-0.195
-0.18
-0.16
-0.16
-0.17
-0.195
-0.2
-0.21
-0.185
-0.195
-0.21
-0.22
-0.215
-0.205
-0.19
-0.185
-0.195
-0.205
-0.195
-0.19
-0.16
-0.155
-0.185
-0.195
-0.22
-0.2
-0.16
-0.09
0.03
0.16
0.295
0.45
0.6
0.695
0.73
0.71
0.605
0.465
0.235
-0.13
-0.51
-0.805
-0.885
-0.79
-0.635
-0.535
-0.45
-0.38
-0.305
-0.245
-0.205
-0.195
-0.2
-0.195
-0.18
-0.175
-0.16
-0.165
-0.18
-0.185
-0.16
-0.15
-0.14
-0.125
-0.12
-0.105
-0.095
-0.08
-0.07
-0.05
-0.045
-0.04
-0.035
-0.005
0.015
0.03
0.05
0.04
0.035
0.05
0.07
0.08
0.095
0.11
0.14
0.17
0.205
0.235
0.245
0.25
0.225
0.24
0.215
0.22
0.225
0.225
0.22
0.225
0.24
0.22
0.21
0.18
0.17
0.185
0.175
0.16
0.13
0.1
0.09
0.075
0.075
0.05
-0.005
-0.065
-0.13
-0.125
-0.105
-0.12
-0.13
-0.145
-0.155
-0.155
-0.15
-0.15
-0.145
-0.16
-0.19
-0.2
-0.2
-0.19
-0.195
-0.2
-0.205
-0.2
-0.2
-0.215
-0.225
-0.23
-0.21
-0.2
-0.205
-0.22
-0.23
-0.225
-0.225
-0.205
-0.17
-0.17
-0.175
-0.175
-0.18
-0.16
-0.14
-0.14
-0.145
-0.15
-0.125
-0.095
-0.08
-0.1
-0.145
-0.185
-0.195
-0.18
-0.17
-0.17
-0.19
-0.2
-0.22
-0.2
-0.18
-0.195
-0.205
-0.225
-0.235
-0.24
-0.225
-0.215
-0.23
-0.245
-0.25
-0.24
-0.21
-0.19
-0.19
-0.2
-0.235
-0.23
-0.195
-0.19
-0.215
-0.255
-0.265
-0.255
-0.215
-0.19
-0.205
-0.24
-0.265
-0.265
-0.25
-0.235
-0.225
-0.21
-0.2
-0.205
-0.205
-0.22
-0.24
-0.235
-0.215
-0.17
-0.095
-0.01
0.125
0.28
0.435
0.58
0.73
0.82
0.845
0.815
0.735
0.62
0.49
0.23
-0.11
-0.425
-0.655
-0.785
-0.785
-0.735
-0.68
-0.635
-0.57
-0.49
-0.4
-0.345
-0.305
-0.265
-0.225
-0.185
-0.14
-0.16
-0.215
-0.265
-0.28
-0.26
-0.21
-0.195
-0.21
-0.215
-0.215
-0.215
-0.195
-0.16
-0.14
-0.12
-0.115
-0.095
-0.085
-0.09
-0.085
-0.08
-0.07
-0.045
-0.03
-0.04
-0.05
-0.035
0.005
0.05
0.075
0.065
0.06
0.065
0.085
0.12
0.155
0.175
0.17
0.17
0.16
0.165
0.175
0.185
0.19
0.19
0.185
0.21
0.25
0.255
0.24
0.205
0.165
0.14
0.135
0.095
0.05
0.005
0.005
0.025
0.015
-0.005
-0.03
-0.05
-0.065
-0.075
-0.08
-0.08
-0.07
-0.085
-0.12
-0.18
-0.235
-0.3
-0.335
-0.32
-0.285
-0.245
-0.225
-0.195
-0.165
-0.2
-0.23
-0.245
-0.24
-0.245
-0.27
-0.28
-0.305
-0.285
-0.275
-0.25
-0.25
-0.295
-0.305
-0.275
-0.22
-0.2
-0.22
-0.25
-0.26
-0.215
-0.16
-0.14
-0.165
-0.225
-0.275
-0.265
-0.23
-0.2
-0.2
-0.225
-0.24
-0.225
-0.205
-0.195
-0.22
-0.235
-0.255
-0.265
-0.265
-0.27
-0.245
-0.23
-0.23
-0.245
-0.265
-0.29
-0.315
-0.33
-0.335
-0.32
-0.29
-0.28
-0.305
-0.32
-0.335
-0.33
-0.29
-0.255
-0.26
-0.27
-0.28
-0.275
-0.26
-0.27
-0.295
-0.32
-0.325
-0.315
-0.295
-0.305
-0.31
-0.305
-0.27
-0.25
-0.245
-0.25
-0.235
-0.25
-0.25
-0.255
-0.24
-0.26
-0.275
-0.29
-0.27
-0.135
0.07
0.305
0.51
0.64
0.73
0.81
0.87
0.845
0.68
0.485
0.285
0.04
-0.25
-0.56
-0.8
-0.915
-0.875
-0.75
-0.64
-0.555
-0.495
-0.455
-0.41
-0.34
-0.285
-0.265
-0.255
-0.27
-0.265
-0.245
-0.25
-0.26
-0.275
-0.255
-0.235
-0.2
-0.185
-0.205
-0.245
-0.265
-0.245
-0.195
-0.145
-0.14
-0.145
-0.16
-0.135
-0.095
-0.085
-0.115
-0.165
-0.175
-0.135
-0.085
-0.055
-0.035
-0.06
-0.055
-0.015
0.035
0.085
0.1
0.12
0.145
0.18
0.19
0.185
0.15
0.145
0.12
0.145
0.195
0.22
0.215
0.155
0.13
0.115
0.12
0.11
0.07
0.035
0.015
0.0
0.02
0.035
0.02
-0.02
-0.07
-0.105
-0.105
-0.105
-0.14
-0.16
-0.185
-0.17
-0.17
-0.215
-0.29
-0.325
-0.325
-0.285
-0.21
-0.19
-0.225
-0.28
-0.305
-0.28
-0.22
-0.225
-0.31
-0.365
-0.395
-0.35
-0.275
-0.24
-0.29
-0.36
-0.395
-0.35
-0.275
-0.235
-0.255
-0.275
-0.26
-0.22
-0.18
-0.185
-0.235
-0.27
-0.275
-0.245
-0.21
-0.21
-0.25
-0.285
-0.29
-0.28
-0.275
-0.27
-0.285
-0.31
-0.34
-0.365
-0.31
-0.29
-0.305
-0.365
-0.395
-0.38
-0.345
-0.305
-0.29
-0.305
-0.315
-0.34
-0.34
-0.32
-0.3
-0.315
-0.345
-0.355
-0.335
-0.325
-0.335
-0.34
-0.335
-0.325
-0.335
-0.385
-0.42
-0.425
-0.41
-0.375
-0.345
-0.295
-0.295
-0.34
-0.355
-0.37
-0.355
-0.31
-0.305
-0.305
-0.325
-0.315
-0.29
-0.23
-0.18
-0.085
0.055
0.21
0.385
0.545
0.69
0.77
0.79
0.7
0.545
0.39
0.23
-0.045
-0.375
-0.69
-0.89
-0.945
-0.885
-0.78
-0.695
-0.635
-0.57
-0.515
-0.465
-0.42
-0.375
-0.33
-0.31
-0.31
-0.3
-0.32
-0.36
-0.36
-0.325
-0.275
-0.26
-0.275
-0.295
-0.305
-0.29
-0.25
-0.235
-0.23
-0.215
-0.165
-0.14
-0.095
-0.095
-0.115
-0.11
-0.095
-0.085
-0.09
-0.11
-0.15
-0.16
-0.13
-0.08
-0.03
-0.005
-0.005
0.005
0.035
0.09
0.13
0.16
0.16
0.165
0.15
0.125
0.11
0.1
0.08
0.095
0.09
0.095
0.095
0.13
0.155
0.195
0.205
0.19
0.14
0.08
0.035
-0.02
-0.065
-0.07
-0.075
-0.075
-0.08
-0.105
-0.135
-0.165
-0.17
-0.18
-0.215
-0.255
-0.28
-0.27
-0.27
-0.28
-0.29
-0.295
-0.29
-0.275
-0.235
-0.245
-0.295
-0.33
-0.35
-0.3
-0.265
-0.255
-0.265
-0.29
-0.285
-0.3
-0.325
-0.34
-0.38
-0.4
-0.4
-0.375
-0.34
-0.3
-0.28
-0.305
-0.32
-0.3
-0.25
-0.225
-0.195
-0.175
-0.195
-0.245
-0.285
-0.32
-0.315
-0.3
-0.27
-0.235
-0.215
-0.23
-0.265
-0.295
-0.29
-0.25
-0.205
-0.245
-0.3
-0.325
-0.32
-0.28
-0.255
-0.275
-0.315
-0.34
-0.34
-0.32
-0.335
-0.385
-0.41
-0.39
-0.335
-0.29
-0.285
-0.325
-0.385
-0.385
-0.355
-0.31
-0.295
-0.32
-0.355
-0.35
-0.32
-0.28
-0.27
-0.3
-0.33
-0.375
-0.395
-0.37
-0.33
-0.305
-0.265
-0.26
-0.255
-0.245
-0.27
-0.31
-0.345
-0.37
-0.365
-0.345
-0.33
-0.295
-0.22
-0.11
0.05
0.235
0.4
0.535
0.615
0.64
0.645
0.6
0.5
0.325
0.125
-0.18
-0.535
-0.805
-0.97
-0.975
-0.875
-0.765
-0.67
-0.585
-0.495
-0.43
-0.395
-0.385
-0.35
-0.3
-0.26
-0.25
-0.265
-0.275
-0.27
-0.24
-0.225
-0.255
-0.26
-0.27
-0.26
-0.225
-0.18
-0.145
-0.16
-0.175
-0.18
-0.16
-0.13
-0.09
-0.075
-0.1
-0.115
-0.135
-0.12
-0.08
-0.025
-0.005
0.02
0.025
0.03
0.05
0.065
0.09
0.1
0.135
0.18
0.24
0.26
0.23
0.175
0.14
0.135
0.13
0.135
0.135
0.16
0.21
0.235
0.24
0.215
0.195
0.185
0.18
0.165
0.09
0.01
-0.05
-0.055
-0.04
-0.025
-0.035
-0.07
-0.11
-0.13
-0.13
-0.105
-0.095
-0.105
-0.14
-0.185
-0.195
-0.21
-0.215
-0.245
-0.27
-0.275
-0.26
-0.235
-0.2
-0.19
-0.18
-0.185
-0.205
-0.2
-0.225
-0.265
-0.3
-0.285
-0.24
-0.2
-0.21
-0.265
-0.31
-0.32
-0.305
-0.265
-0.25
-0.245
-0.235
-0.205
-0.17
-0.14
-0.135
-0.14
-0.15
-0.16
-0.16
-0.15
-0.135
-0.15
-0.175
-0.185
-0.17
-0.17
-0.19
-0.21
-0.225
-0.24
-0.235
-0.23
-0.24
-0.24
-0.265
-0.245
-0.21
-0.155
-0.17
-0.195
-0.255
-0.29
-0.31
-0.265
-0.25
-0.26
-0.275
-0.285
-0.265
-0.235
-0.23
-0.23
-0.225
-0.245
-0.245
-0.25
-0.285
-0.3
-0.29
-0.285
-0.285
-0.285
-0.285
-0.26
-0.25
-0.255
-0.28
-0.29
-0.305
-0.28
-0.225
-0.205
-0.225
-0.255
-0.285
-0.32
-0.31
-0.295
-0.28
-0.26
-0.255
-0.26
-0.24
-0.17
-0.04
0.095
0.19
0.28
0.41
0.55
0.66
0.715
0.725
0.685
0.555
0.4
0.225
-0.025
-0.3
-0.56
-0.765
-0.855
-0.84
-0.72
-0.64
-0.58
-0.545
-0.48
-0.395
-0.33
-0.305
-0.32
-0.3
-0.27
-0.25
-0.25
-0.26
-0.265
-0.26
-0.255
-0.23
-0.21
-0.195
-0.185
-0.17
-0.16
-0.135
-0.12
-0.11
-0.115
-0.12
-0.13
-0.12
-0.095
-0.08
-0.09
-0.095
-0.09
-0.075
-0.035
-0.025
0.01
0.02
0.05
0.075
0.115
0.12
0.14
0.13
0.125
0.125
0.15
0.165
0.175
0.16
0.16
0.17
0.205
0.225
0.215
0.22
0.23
0.275
0.29
0.28
0.215
0.17
0.17
0.195
0.22
0.21
0.17
0.145
0.14
0.15
0.16
0.125
0.075
0.025
-0.005
-0.045
-0.065
-0.1
-0.12
-0.135
-0.135
-0.14
-0.135
-0.155
-0.175
-0.19
-0.185
-0.16
-0.155
-0.175
-0.2
-0.24
-0.21
-0.185
-0.16
-0.19
-0.21
-0.22
-0.195
-0.175
-0.175
-0.21
-0.235
-0.24
-0.225
-0.195
-0.17
-0.19
-0.19
-0.18
-0.19
-0.18
-0.18
-0.15
-0.145
-0.145
-0.155
-0.13
-0.115
-0.125
-0.125
-0.12
-0.125
-0.125
-0.12
-0.145
-0.165
-0.205
-0.18
-0.16
-0.11
-0.105
-0.14
-0.17
-0.21
-0.225
-0.225
-0.24
-0.245
-0.255
-0.25
-0.235
-0.205
-0.2
-0.22
-0.22
-0.205
-0.19
-0.19
-0.21
-0.22
-0.21
-0.19
-0.165
-0.18
-0.19
-0.215
-0.22
-0.23
-0.27
-0.27
-0.24
-0.23
-0.235
-0.235
-0.235
-0.225
-0.215
-0.205
-0.225
-0.235
-0.24
-0.21
-0.205
-0.195
-0.18
-0.17
-0.165
-0.175
-0.17
-0.105
-0.005
0.125
0.25
0.405
0.56
0.645
0.665
0.64
0.54
0.395
0.11
-0.26
-0.61
-0.825
-0.885
-0.78
-0.64
-0.555
-0.485
-0.4
-0.3
-0.245
-0.235
-0.23
-0.22
-0.2
-0.16
-0.11
-0.115
-0.16
-0.245
-0.295
-0.28
-0.21
-0.175
-0.17
-0.17
-0.16
-0.135
-0.11
-0.085
-0.055
-0.07
-0.07
-0.045
-0.01
0.005
0.03
0.035
0.015
-0.005
0.005
0.035
0.065
0.06
0.085
0.095
0.135
0.155
0.15
0.13
0.165
0.19
0.21
0.195
0.205
0.21
0.22
0.265
0.285
0.27
0.255
0.24
0.24
0.235
0.23
0.19
0.18
0.18
0.17
0.135
0.09
0.03
0.005
-0.03
-0.045
-0.03
-0.005
-0.02
-0.05
-0.08
-0.085
-0.06
-0.025
-0.05
-0.13
-0.19
-0.185
-0.12
-0.08
-0.165
-0.24
-0.305
-0.315
-0.26
-0.22
-0.2
-0.205
-0.21
-0.21
-0.2
-0.19
-0.185
-0.19
-0.215
-0.21
-0.18
-0.165
-0.16
-0.17
-0.19
-0.175
-0.16
-0.15
-0.15
-0.155
-0.16
-0.14
-0.14
-0.13
-0.115
-0.095
-0.08
-0.085
-0.095
-0.13
-0.165
-0.175
-0.15
-0.15
-0.17
-0.195
-0.22
-0.22
-0.205
-0.19
-0.16
-0.155
-0.215
-0.275
-0.28
-0.24
-0.175
-0.15
-0.19
-0.24
-0.285
-0.275
-0.25
-0.26
-0.27
-0.27
-0.26
-0.245
-0.235
-0.225
-0.24
-0.21
-0.195
-0.17
-0.205
-0.245
-0.275
-0.265
-0.27
-0.25
-0.245
-0.225
-0.225
-0.215
-0.22
-0.205
-0.18
-0.16
-0.195
-0.235
-0.295
-0.31
-0.24
-0.155
-0.02
0.145
0.32
0.495
0.635
0.74
0.775
0.81
0.825
0.775
0.65
0.48
0.225
-0.095
-0.395
-0.665
-0.83
-0.885
-0.83
-0.745
-0.655
-0.54
-0.445
-0.36
-0.285
-0.225
-0.185
-0.165
-0.17
-0.195
-0.22
-0.23
-0.205
-0.185
-0.175
-0.17
-0.16
-0.165
-0.18
-0.205
-0.16
-0.135
-0.11
-0.145
-0.17
-0.185
-0.135
-0.09
-0.065
-0.05
-0.055
-0.05
-0.015
0.025
0.035
0.03
0.025
0.055
0.085
0.125
0.115
0.12
0.15
0.205
0.225
0.215
0.195
0.185
0.18
0.19
0.22
0.25
0.275
0.27
0.27
0.3
0.32
0.365
0.29
0.16
0.04
-0.005
0.015
0.06
0.07
0.045
0.0
-0.02
-0.005
0.0
-0.015
-0.06
-0.095
-0.105
-0.115
-0.11
-0.115
-0.145
-0.17
-0.185
-0.165
-0.14
-0.115
-0.1
-0.115
-0.175
-0.23
-0.285
-0.305
-0.305
-0.295
-0.255
-0.22
-0.21
-0.25
-0.275
-0.28
-0.24
-0.19
-0.175
-0.205
-0.24
-0.25
-0.24
-0.19
-0.16
-0.16
-0.155
-0.13
-0.105
-0.075
-0.08
-0.095
-0.125
-0.18
-0.21
-0.205
-0.185
-0.19
-0.21
-0.2
-0.205
-0.195
-0.185
-0.22
-0.295
-0.335
-0.32
-0.285
-0.265
-0.26
-0.275
-0.295
-0.305
-0.28
-0.235
-0.185
-0.18
-0.195
-0.23
-0.27
-0.29
-0.285
-0.285
-0.265
-0.265
-0.29
-0.285
-0.275
-0.265
-0.275
-0.275
-0.275
-0.235
-0.24
-0.23
-0.22
-0.23
-0.235
-0.235
-0.225
-0.22
-0.19
-0.18
-0.2
-0.175
-0.04
0.165
0.355
0.54
0.695
0.81
0.91
0.88
0.69
0.475
0.195
-0.115
-0.435
-0.755
-0.91
-0.9
-0.765
-0.635
-0.56
-0.505
-0.465
-0.42
-0.35
-0.285
-0.245
-0.24
-0.275
-0.305
-0.29
-0.28
-0.255
-0.23
-0.22
-0.215
-0.22
-0.2
-0.195
-0.2
-0.185
-0.17
-0.145
-0.155
-0.145
-0.145
-0.14
-0.125
-0.09
-0.06
-0.025
-0.015
-0.01
-0.01
0.02
0.09
0.135
0.115
0.075
0.035
0.04
0.085
0.11
0.13
0.16
0.19
0.22
0.225
0.215
0.195
0.16
0.15
0.18
0.225
0.215
0.165
0.105
0.09
0.1
0.105
0.08
0.045
0.02
-0.005
-0.03
-0.08
-0.105
-0.075
-0.04
-0.035
-0.095
-0.165
-0.245
-0.265
-0.27
-0.26
-0.21
-0.18
-0.2
-0.245
-0.275
-0.23
-0.19
-0.205
-0.23
-0.255
-0.25
-0.275
-0.34
-0.335
-0.33
-0.3
-0.265
-0.23
-0.225
-0.255
-0.28
-0.3
-0.305
-0.275
-0.225
-0.175
-0.165
-0.195
-0.23
-0.21
-0.16
-0.115
-0.115
-0.15
-0.18
-0.21
-0.225
-0.225
-0.21
-0.205
-0.22
-0.24
-0.26
-0.29
-0.295
-0.29
-0.255
-0.27
-0.28
-0.285
-0.29
-0.295
-0.3
-0.285
-0.285
-0.28
-0.28
-0.285
-0.315
-0.305
-0.275
-0.24
-0.26
-0.33
-0.37
-0.345
-0.305
-0.285
-0.285
-0.32
-0.335
-0.325
-0.285
-0.25
-0.22
-0.22
-0.24
-0.26
-0.285
-0.275
-0.31
-0.3
-0.255
-0.23
-0.235
-0.24
-0.255
-0.25
-0.21
-0.085
0.075
0.24
0.39
0.54
0.69
0.8
0.865
0.815
0.65
0.44
0.19
-0.135
-0.455
-0.725
-0.91
-0.935
-0.835
-0.695
-0.575
-0.485
-0.435
-0.415
-0.37
-0.305
-0.23
-0.21
-0.225
-0.23
-0.265
-0.28
-0.255
-0.23
-0.245
-0.27
-0.29
-0.25
-0.215
-0.19
-0.2
-0.225
-0.215
-0.16
-0.12
-0.105
-0.13
-0.135
-0.15
-0.145
-0.12
-0.095
-0.07
-0.06
-0.05
-0.01
0.035
0.06
0.07
0.095
0.14
0.21
0.21
0.15
0.085
0.09
0.125
0.16
0.175
0.175
0.18
0.185
0.205
0.22
0.215
0.155
0.065
0.04
0.05
0.065
0.065
0.04
0.01
-0.005
-0.02
-0.02
-0.02
-0.055
-0.11
-0.16
-0.18
-0.195
-0.18
-0.18
-0.18
-0.205
-0.235
-0.21
-0.185
-0.165
-0.19
-0.215
-0.275
-0.315
-0.31
-0.28
-0.27
-0.275
-0.285
-0.295
-0.28
-0.27
-0.305
-0.335
-0.32
-0.28
-0.24
-0.22
-0.2
-0.2
-0.21
-0.21
-0.21
-0.21
-0.205
-0.21
-0.205
-0.17
-0.15
-0.165
-0.2
-0.205
-0.235
-0.185
-0.165
-0.175
-0.2
-0.25
-0.3
-0.325
-0.33
-0.305
-0.285
-0.28
-0.32
-0.36
-0.35
-0.285
-0.255
-0.245
-0.245
-0.235
-0.255
-0.28
-0.285
-0.29
-0.32
-0.315
-0.32
-0.31
-0.295
-0.275
-0.25
-0.26
-0.275
-0.285
-0.285
-0.295
-0.3
-0.295
-0.28
-0.285
-0.285
-0.3
-0.295
-0.3
-0.295
-0.275
-0.255
-0.265
-0.28
-0.185
-0.005
0.2
0.385
0.545
0.67
0.73
0.685
0.52
0.34
0.075
-0.33
-0.725
-0.95
-0.96
-0.805
-0.65
-0.585
-0.555
-0.52
-0.44
-0.365
-0.325
-0.35
-0.365
-0.34
-0.3
-0.275
-0.26
-0.235
-0.22
-0.21
-0.205
-0.205
-0.195
-0.175
-0.165
-0.16
-0.165
-0.195
-0.205
-0.205
-0.16
-0.1
-0.085
-0.065
-0.085
-0.095
-0.09
-0.045
0.0
0.025
0.0
-0.03
-0.025
0.03
0.09
0.13
0.165
0.18
0.17
0.13
0.115
0.085
0.1
0.11
0.15
0.185
0.21
0.19
0.175
0.15
0.155
0.16
0.145
0.095
0.03
-0.015
-0.01
-0.01
-0.035
-0.06
-0.1
-0.1
-0.105
-0.11
-0.12
-0.145
-0.185
-0.21
-0.19
-0.16
-0.13
-0.155
-0.18
-0.235
-0.255
-0.235
-0.21
-0.195
-0.225
-0.3
-0.34
-0.335
-0.31
-0.285
-0.29
-0.29
-0.285
-0.245
-0.21
-0.185
-0.18
-0.165
-0.18
-0.185
-0.17
-0.15
-0.145
-0.18
-0.195
-0.17
-0.15
-0.2
-0.27
-0.295
-0.25
-0.16
-0.085
-0.11
-0.21
-0.285
-0.305
-0.285
-0.245
-0.23
-0.235
-0.235
-0.23
-0.215
-0.215
-0.23
-0.24
-0.255
-0.255
-0.255
-0.24
-0.24
-0.26
-0.29
-0.3
-0.28
-0.26
-0.27
-0.26
-0.26
-0.22
-0.19
-0.205
-0.255
-0.31
-0.33
-0.33
-0.31
-0.295
-0.34
-0.36
-0.35
-0.31
-0.29
-0.255
-0.255
-0.285
-0.305
-0.315
-0.285
-0.265
-0.26
-0.285
-0.295
-0.285
-0.25
-0.23
-0.25
-0.245
-0.2
-0.09
0.04
0.19
0.33
0.48
0.62
0.71
0.71
0.58
0.42
0.215
-0.05
-0.38
-0.655
-0.845
-0.905
-0.85
-0.75
-0.665
-0.595
-0.49
-0.38
-0.285
-0.225
-0.2
-0.2
-0.23
-0.285
-0.325
-0.325
-0.29
-0.29
-0.27
-0.26
-0.245
-0.25
-0.22
-0.185
-0.165
-0.18
-0.185
-0.18
-0.17
-0.14
-0.12
-0.115
-0.115
-0.13
-0.1
-0.075
-0.04
-0.02
0.01
0.065
0.12
0.115
0.065
-0.015
-0.05
-0.005
0.045
0.095
0.11
0.12
0.135
0.155
0.175
0.19
0.185
0.17
0.18
0.185
0.205
0.23
0.225
0.24
0.2
0.165
0.12
0.13
0.135
0.13
0.125
0.115
0.085
0.015
-0.07
-0.125
-0.125
-0.12
-0.1
-0.08
-0.085
-0.095
-0.145
-0.21
-0.245
-0.25
-0.225
-0.22
-0.23
-0.24
-0.24
-0.225
-0.205
-0.195
-0.225
-0.245
-0.25
-0.245
-0.255
-0.275
-0.285
-0.265
-0.25
-0.245
-0.235
-0.25
-0.265
-0.28
-0.225
-0.185
-0.165
-0.205
-0.24
-0.23
-0.21
-0.175
-0.16
-0.155
-0.15
-0.125
-0.105
-0.125
-0.18
-0.225
-0.245
-0.205
-0.175
-0.175
-0.205
-0.265
-0.295
-0.305
-0.27
-0.245
-0.24
-0.27
-0.28
-0.28
-0.26
-0.245
-0.225
-0.25
-0.255
-0.265
-0.265
-0.23
-0.235
-0.24
-0.245
-0.225
-0.165
-0.065
-0.035
-0.11
-0.24
-0.38
-0.41
-0.355
-0.305
-0.33
-0.345
-0.33
-0.275
-0.255
-0.275
-0.29
-0.3
-0.295
-0.285
-0.275
-0.27
-0.27
-0.265
-0.23
-0.16
-0.045
0.065
0.185
0.315
0.435
0.55
0.66
0.73
0.68
0.51
0.27
-0.035
-0.35
-0.63
-0.855
-0.905
-0.805
-0.64
-0.52
-0.465
-0.475
-0.495
-0.445
-0.36
-0.275
-0.245
-0.245
-0.285
-0.3
-0.265
-0.23
-0.215
-0.23
-0.255
-0.245
-0.22
-0.195
-0.17
-0.17
-0.16
-0.17
-0.16
-0.14
-0.1
-0.07
-0.08
-0.11
-0.095
-0.065
-0.065
-0.085
-0.075
-0.045
-0.005
0.02
0.065
0.12
0.16
0.185
0.19
0.175
0.13
0.115
0.135
0.16
0.165
0.135
0.14
0.17
0.21
0.205
0.18
0.15
0.165
0.15
0.095
0.04
0.035
0.05
0.06
0.025
-0.005
-0.015
-0.04
-0.075
-0.115
-0.135
-0.125
-0.11
-0.12
-0.15
-0.16
-0.17
-0.185
-0.2
-0.205
-0.2
-0.22
-0.265
-0.29
-0.305
-0.29
-0.255
-0.255
-0.26
-0.27
-0.27
-0.235
-0.2
-0.19
-0.22
-0.24
-0.245
-0.26
-0.225
-0.2
-0.2
-0.23
-0.265
-0.275
-0.245
-0.2
-0.19
-0.195
-0.175
-0.12
-0.06
-0.055
-0.08
-0.15
-0.195
-0.24
-0.27
-0.285
-0.275
-0.26
-0.235
-0.2
-0.205
-0.2
-0.205
-0.18
-0.185
-0.22
-0.28
-0.33
-0.35
-0.34
-0.315
-0.3
-0.285
-0.265
-0.245
-0.235
-0.25
-0.24
-0.215
-0.21
-0.255
-0.3
-0.335
-0.295
-0.245
-0.25
-0.29
-0.325
-0.32
-0.27
-0.23
-0.225
-0.255
-0.3
-0.285
-0.245
-0.21
-0.195
-0.225
-0.255
-0.27
-0.26
-0.27
-0.27
-0.265
-0.28
-0.3
-0.28
-0.205
-0.1
0.04
0.2
0.345
0.515
0.67
0.805
0.87
0.895
0.79
0.63
0.445
0.23
-0.045
-0.335
-0.58
-0.76
-0.8
-0.745
-0.675
-0.645
-0.635
-0.59
-0.5
-0.4
-0.305
-0.265
-0.26
-0.27
-0.265
-0.25
-0.245
-0.25
-0.27
-0.26
-0.215
-0.16
-0.15
-0.165
-0.19
-0.19
-0.2
-0.21
-0.2
-0.195
-0.175
-0.145
-0.1
-0.075
-0.065
-0.045
-0.005
0.01
-0.01
-0.075
-0.085
-0.09
-0.05
0.0
0.06
0.11
0.135
0.13
0.135
0.16
0.2
0.24
0.245
0.23
0.22
0.2
0.155
0.13
0.145
0.19
0.22
0.225
0.205
0.17
0.145
0.13
0.125
0.125
0.135
0.105
0.08
0.055
0.03
0.02
0.02
-0.005
-0.04
-0.095
-0.13
-0.12
-0.105
-0.125
-0.155
-0.165
-0.185
-0.19
-0.19
-0.195
-0.19
-0.205
-0.2
-0.18
-0.16
-0.165
-0.22
-0.285
-0.33
-0.33
-0.3
-0.3
-0.3
-0.285
-0.29
-0.26
-0.255
-0.22
-0.2
-0.235
-0.25
-0.25
-0.21
-0.18
-0.155
-0.155
-0.15
-0.14
-0.145
-0.175
-0.205
-0.205
-0.21
-0.21
-0.205
-0.195
-0.205
-0.205
-0.205
-0.195
-0.175
-0.18
-0.215
-0.275
-0.305
-0.295
-0.285
-0.275
-0.275
-0.275
-0.29
-0.285
-0.295
-0.285
-0.215
-0.16
-0.155
-0.2
-0.265
-0.31
-0.36
-0.385
-0.39
-0.335
-0.275
-0.25
-0.25
-0.27
-0.245
-0.245
-0.265
-0.29
-0.31
-0.295
-0.235
-0.245
-0.305
-0.34
-0.335
-0.3
-0.265
-0.275
-0.265
-0.27
-0.275
-0.295
-0.32
-0.32
-0.295
-0.29
-0.265
-0.235
-0.17
-0.035
0.115
0.265
0.405
0.555
0.7
0.815
0.89
0.895
0.815
0.65
0.48
0.3
0.06
-0.25
-0.535
-0.73
-0.795
-0.78
-0.745
-0.715
-0.67
-0.605
-0.495
-0.365
-0.29
-0.27
-0.315
-0.36
-0.345
-0.295
-0.25
-0.225
-0.235
-0.24
-0.235
-0.235
-0.22
-0.215
-0.21
-0.205
-0.205
-0.195
-0.17
-0.175
-0.205
-0.22
-0.175
-0.105
-0.07
-0.095
-0.13
-0.12
-0.07
-0.015
-0.005
-0.05
-0.07
-0.045
0.0
0.07
0.08
0.085
0.105
0.095
0.075
0.04
0.025
0.035
0.055
0.09
0.145
0.165
0.175
0.175
0.175
0.17
0.175
0.17
0.185
0.195
0.205
0.19
0.185
0.185
0.215
0.21
0.205
0.19
0.165
0.13
0.075
0.04
0.005
-0.03
-0.03
-0.015
0.02
0.0
-0.12
-0.25
-0.34
-0.34
-0.275
-0.23
-0.205
-0.225
-0.23
-0.215
-0.195
-0.165
-0.17
-0.18
-0.19
-0.165
-0.2
-0.225
-0.27
-0.3
-0.335
-0.35
-0.335
-0.3
-0.305
-0.295
-0.29
-0.295
-0.26
-0.235
-0.24
-0.255
-0.28
-0.275
-0.265
-0.27
-0.265
-0.25
-0.23
-0.18
-0.15
-0.125
-0.115
-0.1
-0.095
-0.105
-0.13
-0.17
-0.185
-0.215
-0.27
-0.32
-0.35
-0.345
-0.34
-0.315
-0.315
-0.29
-0.285
-0.28
-0.285
-0.285
-0.285
-0.26
-0.23
-0.225
-0.24
-0.285
-0.33
-0.34
-0.31
-0.285
-0.285
-0.31
-0.335
-0.34
-0.325
-0.31
-0.295
-0.305
-0.305
-0.295
-0.285
-0.29
-0.285
-0.295
-0.29
-0.28
-0.24
-0.225
-0.255
-0.3
-0.325
-0.315
-0.285
-0.285
-0.3
-0.32
-0.32
-0.3
-0.275
-0.27
-0.275
-0.28
-0.28
-0.29
-0.285
-0.295
-0.3
-0.315
-0.29
-0.22
-0.1
0.05
0.22
0.355
0.495
0.625
0.735
0.83
0.87
0.83
0.685
0.54
0.41
0.26
-0.01
-0.32
-0.615
-0.815
-0.915
-0.9
-0.86
-0.785
-0.72
-0.6
-0.485
-0.405
-0.36
-0.32
-0.28
-0.275
-0.235
-0.22
-0.235
-0.22
-0.195
-0.195
-0.225
-0.255
-0.305
-0.325
-0.325
-0.3
-0.255
-0.22
-0.23
-0.255
-0.275
-0.265
-0.235
-0.21
-0.21
-0.21
-0.195
-0.165
-0.135
-0.11
-0.12
-0.095
-0.05
-0.025
0.0
-0.02
-0.045
-0.06
-0.05
-0.005
0.02
0.025
0.01
-0.01
0.015
0.065
0.115
0.155
0.16
0.15
0.14
0.135
0.145
0.14
0.13
0.13
0.13
0.135
0.17
0.15
0.15
0.155
0.165
0.215
0.235
0.215
0.18
0.135
0.115
0.115
0.11
0.1
0.065
0.05
0.04
0.04
0.035
-0.005
-0.04
-0.07
-0.075
-0.1
-0.12
-0.17
-0.22
-0.205
-0.18
-0.17
-0.2
-0.26
-0.29
-0.305
-0.3
-0.275
-0.265
-0.27
-0.305
-0.285
-0.245
-0.195
-0.19
-0.215
-0.265
-0.305
-0.3
-0.265
-0.255
-0.265
-0.245
-0.2
-0.185
-0.195
-0.24
-0.285
-0.315
-0.315
-0.295
-0.24
-0.205
-0.19
-0.195
-0.18
-0.155
-0.115
-0.105
-0.125
-0.155
-0.2
-0.205
-0.21
-0.205
-0.215
-0.23
-0.235
-0.26
-0.265
-0.25
-0.245
-0.255
-0.255
-0.26
-0.245
-0.25
-0.29
-0.32
-0.32
-0.315
-0.295
-0.29
-0.305
-0.33
-0.345
-0.33
-0.28
-0.23
-0.23
-0.235
-0.24
-0.27
-0.285
-0.285
-0.285
-0.295
-0.295
-0.3
-0.29
-0.275
-0.26
-0.26
-0.28
-0.305
-0.305
-0.29
-0.285
-0.28
-0.25
-0.25
-0.26
-0.27
-0.265
-0.28
-0.28
-0.305
-0.325
-0.33
-0.28
-0.17
-0.025
0.12
0.245
0.37
0.52
0.655
0.735
0.775
0.77
0.69
0.55
0.41
0.25
0.0
-0.275
-0.53
-0.75
-0.89
-0.9
-0.83
-0.74
-0.615
-0.5
-0.4
-0.34
-0.32
-0.34
-0.37
-0.35
-0.33
-0.29
-0.245
-0.215
-0.215
-0.24
-0.265
-0.28
-0.26
-0.22
-0.2
-0.205
-0.18
-0.16
-0.145
-0.135
-0.15
-0.175
-0.21
-0.205
-0.185
-0.13
-0.11
-0.125
-0.135
-0.125
-0.1
-0.065
-0.04
-0.01
0.055
0.075
0.055
0.03
0.03
0.05
0.08
0.095
0.105
0.095
0.1
0.1
0.105
0.095
0.13
0.18
0.23
0.255
0.245
0.19
0.14
0.115
0.15
0.17
0.19
0.185
0.14
0.085
0.055
0.065
0.09
0.075
0.05
-0.005
-0.04
-0.065
-0.095
-0.1
-0.105
-0.12
-0.14
-0.18
-0.215
-0.225
-0.235
-0.265
-0.265
-0.25
-0.23
-0.245
-0.27
-0.3
-0.285
-0.26
-0.235
-0.235
-0.23
-0.235
-0.24
-0.28
-0.315
-0.305
-0.295
-0.275
-0.24
-0.225
-0.225
-0.23
-0.235
-0.2
-0.175
-0.175
-0.25
-0.33
-0.335
-0.28
-0.245
-0.265
-0.285
-0.255
-0.195
-0.135
-0.1
-0.125
-0.17
-0.2
-0.215
-0.215
-0.185
-0.165
-0.205
-0.26
-0.27
-0.26
-0.25
-0.245
-0.27
-0.28
-0.29
-0.29
-0.255
-0.21
-0.21
-0.245
-0.31
-0.345
-0.33
-0.29
-0.255
-0.27
-0.27
-0.26
-0.255
-0.27
-0.325
-0.365
-0.375
-0.35
-0.325
-0.31
-0.305
-0.28
-0.27
-0.255
-0.25
-0.26
-0.275
-0.32
-0.32
-0.305
-0.265
-0.27
-0.29
-0.29
-0.275
-0.27
-0.28
-0.28
-0.295
-0.295
-0.28
-0.285
-0.285
-0.27
-0.305
-0.32
-0.315
-0.3
-0.275
-0.27
-0.235
-0.16
-0.02
0.14
0.285
0.42
0.58
0.69
0.745
0.725
0.595
0.405
0.19
-0.085
-0.35
-0.575
-0.73
-0.825
-0.82
-0.74
-0.65
-0.59
-0.56
-0.51
-0.465
-0.415
-0.355
-0.305
-0.265
-0.265
-0.28
-0.285
-0.285
-0.275
-0.24
-0.23
-0.195
-0.17
-0.16
-0.195
-0.215
-0.24
-0.255
-0.235
-0.21
-0.19
-0.15
-0.11
-0.1
-0.135
-0.125
-0.11
-0.04
0.005
0.015
-0.015
-0.055
-0.09
-0.07
-0.04
0.0
0.01
-0.005
0.0
0.045
0.075
0.085
0.065
0.09
0.12
0.16
0.175
0.155
0.13
0.15
0.175
0.185
0.155
0.145
0.175
0.225
0.255
0.24
0.17
0.135
0.095
0.08
0.085
0.065
0.05
-0.02
-0.07
-0.12
-0.11
-0.09
-0.085
-0.095
-0.13
-0.19
-0.225
-0.21
-0.215
-0.21
-0.2
-0.195
-0.205
-0.21
-0.215
-0.23
-0.22
-0.235
-0.24
-0.24
-0.245
-0.275
-0.295
-0.285
-0.265
-0.24
-0.24
-0.22
-0.225
-0.235
-0.225
-0.2
-0.205
-0.22
-0.235
-0.25
-0.225
-0.195
-0.17
-0.19
-0.205
-0.2
-0.175
-0.16
-0.15
-0.165
-0.195
-0.2
-0.195
-0.14
-0.1
-0.105
-0.145
-0.215
-0.26
-0.27
-0.27
-0.28
-0.295
-0.275
-0.225
-0.185
-0.18
-0.195
-0.225
-0.24
-0.225
-0.21
-0.235
-0.285
-0.33
-0.34
-0.315
-0.28
-0.29
-0.295
-0.295
-0.29
-0.27
-0.245
-0.23
-0.23
-0.25
-0.275
-0.29
-0.29
-0.26
-0.23
-0.215
-0.235
-0.235
-0.25
-0.285
-0.325
-0.335
-0.315
-0.28
-0.255
-0.24
-0.245
-0.255
-0.245
-0.24
-0.22
-0.205
-0.13
-0.005
0.14
0.29
0.435
0.58
0.66
0.665
0.61
0.505
0.37
0.135
-0.16
