Lead II
-0.775
-0.795
-0.825
-0.845
-0.875
-0.89
-0.91
-0.885
-0.87
-0.87
-0.855
-0.855
-0.865
-0.885
-0.915
-0.91
-0.905
-0.91
-0.915
-0.895
-0.9
-0.885
-0.875
-0.875
-0.885
-0.895
-0.89
-0.89
-0.9
-0.915
-0.915
-0.895
-0.885
-0.87
-0.865
-0.855
-0.865
-0.865
-0.87
-0.885
-0.88
-0.89
-0.885
-0.875
-0.87
-0.88
-0.86
-0.84
-0.84
-0.84
-0.845
-0.85
-0.865
-0.865
-0.87
-0.865
-0.83
-0.83
-0.82
-0.83
-0.82
-0.825
-0.835
-0.86
-0.84
-0.85
-0.855
-0.85
-0.85
-0.84
-0.83
-0.835
-0.83
-0.835
-0.865
-0.88
-0.895
-0.9
-0.895
-0.885
-0.86
-0.865
-0.86
-0.855
-0.845
-0.87
-0.875
-0.89
-0.905
-0.91
-0.91
-0.895
-0.89
-0.885
-0.88
-0.885
-0.865
-0.9
-0.9
-0.895
-0.9
-0.925
-0.93
-0.905
-0.915
-0.91
-0.905
-0.895
-0.89
-0.89
-0.895
-0.93
-0.92
-0.93
-0.92
-0.93
-0.925
-0.915
-0.91
-0.91
-0.91
-0.915
-0.91
-0.92
-0.92
-0.935
-0.935
-0.925
-0.91
-0.905
-0.885
-0.895
-0.885
-0.905
-0.92
-0.93
-0.935
-0.93
-0.96
-0.935
-0.91
-0.915
-0.92
-0.9
-0.89
-0.895
-0.905
-0.915
-0.93
-0.935
-0.95
-0.925
-0.92
-0.905
-0.91
-0.905
-0.89
-0.9
-0.905
-0.935
-0.93
-0.93
-0.925
-0.925
-0.935
-0.92
-0.91
-0.905
-0.905
-0.89
-0.905
-0.915
-0.925
-0.92
-0.92
-0.905
-0.895
-0.9
-0.885
-0.86
-0.825
-0.815
-0.815
-0.805
-0.8
-0.8
-0.8
-0.785
-0.765
-0.74
-0.7
-0.695
-0.68
-0.7
-0.72
-0.745
-0.78
-0.785
-0.795
-0.795
-0.795
-0.78
-0.755
-0.755
-0.76
-0.785
-0.83
-0.86
-0.9
-0.92
-0.95
-0.95
-0.94
-0.94
-0.93
-0.93
-0.93
-0.96
-0.97
-0.98
-0.98
-0.985
-0.985
-0.98
-0.965
-0.945
-0.94
-0.94
-0.935
-0.94
-0.95
-0.945
-0.965
-0.965
-0.975
-0.96
-0.945
-0.945
-0.93
-0.915
-0.895
-0.89
-0.905
-0.92
-0.92
-0.92
-0.915
-0.9
-0.9
-0.875
-0.855
-0.845
-0.835
-0.825
-0.83
-0.85
-0.8
-0.74
-0.605
-0.4
-0.135
0.16
0.47
0.785
1.105
1.375
1.525
1.48
1.21
0.74
0.13
-0.51
-1.135
-1.525
-1.685
-1.665
-1.495
-1.315
-1.155
-1.06
-1.03
-1.01
-0.995
-0.975
-0.925
-0.89
-0.86
-0.83
-0.825
-0.84
-0.855
-0.875
-0.88
-0.88
-0.875
-0.88
-0.865
-0.85
-0.84
-0.825
-0.84
-0.845
-0.84
-0.865
-0.895
-0.905
-0.885
-0.87
-0.875
-0.87
-0.87
-0.855
-0.84
-0.83
-0.835
-0.85
-0.85
-0.865
-0.865
-0.85
-0.86
-0.845
-0.83
-0.83
-0.82
-0.835
-0.82
-0.84
-0.84
-0.845
-0.845
-0.84
-0.815
-0.8
-0.795
-0.775
-0.765
-0.765
-0.765
-0.78
-0.775
-0.775
-0.785
-0.765
-0.75
-0.715
-0.705
-0.68
-0.66
-0.65
-0.65
-0.645
-0.65
-0.625
-0.6
-0.57
-0.555
-0.535
-0.525
-0.505
-0.48
-0.465
-0.46
-0.43
-0.44
-0.435
-0.415
-0.39
-0.37
-0.36
-0.32
-0.3
-0.3
-0.29
-0.3
-0.305
-0.305
-0.32
-0.335
-0.345
-0.35
-0.37
-0.39
-0.41
-0.435
-0.455
-0.485
-0.535
-0.555
-0.585
-0.615
-0.64
-0.655
-0.675
-0.67
-0.685
-0.695
-0.715
-0.735
-0.75
-0.765
-0.77
-0.785
-0.775
-0.78
-0.785
-0.775
-0.78
-0.775
-0.77
-0.795
-0.81
-0.815
-0.825
-0.83
-0.82
-0.825
-0.815
-0.805
-0.785
-0.78
-0.795
-0.805
-0.805
-0.805
-0.825
-0.825
-0.815
-0.815
-0.795
-0.785
-0.775
-0.78
-0.78
-0.79
-0.785
-0.79
-0.795
-0.805
-0.81
-0.81
-0.79
-0.78
-0.77
-0.765
-0.775
-0.785
-0.775
-0.775
-0.785
-0.785
-0.79
-0.775
-0.775
-0.775
-0.75
-0.77
-0.775
-0.76
-0.775
-0.795
-0.8
-0.805
-0.785
-0.785
-0.785
-0.79
-0.77
-0.76
-0.77
-0.8
-0.785
-0.805
-0.83
-0.845
-0.84
-0.81
-0.805
-0.825
-0.805
-0.795
-0.79
-0.795
-0.81
-0.82
-0.825
-0.835
-0.84
-0.835
-0.83
-0.83
-0.815
-0.825
-0.815
-0.82
-0.83
-0.84
-0.84
-0.845
-0.85
-0.845
-0.835
-0.82
-0.83
-0.835
-0.83
-0.84
-0.85
-0.85
-0.865
-0.865
-0.87
-0.86
-0.845
-0.84
-0.82
-0.83
-0.835
-0.83
-0.855
-0.855
-0.865
-0.875
-0.86
-0.85
-0.855
-0.86
-0.84
-0.84
-0.85
-0.86
-0.87
-0.89
-0.885
-0.905
-0.875
-0.88
-0.84
-0.865
-0.845
-0.845
-0.84
-0.86
-0.87
-0.885
-0.895
-0.9
-0.9
-0.91
-0.865
-0.855
-0.845
-0.855
-0.855
-0.875
-0.865
-0.875
-0.89
-0.875
-0.875
-0.865
-0.86
-0.85
-0.86
-0.87
-0.87
-0.875
-0.87
-0.875
-0.885
-0.87
-0.87
-0.875
-0.865
-0.86
-0.85
-0.84
-0.86
-0.855
-0.865
-0.875
-0.875
-0.89
-0.885
-0.895
-0.88
-0.86
-0.845
-0.87
-0.865
-0.87
-0.875
-0.89
-0.91
-0.91
-0.895
-0.885
-0.87
-0.86
-0.855
-0.865
-0.865
-0.87
-0.885
-0.89
-0.89
-0.89
-0.89
-0.875
-0.87
-0.85
-0.845
-0.84
-0.845
-0.845
-0.86
-0.885
-0.895
-0.895
-0.885
-0.86
-0.855
-0.85
-0.835
-0.845
-0.835
-0.845
-0.84
-0.86
-0.845
-0.825
-0.81
-0.78
-0.76
-0.725
-0.715
-0.7
-0.685
-0.71
-0.705
-0.715
-0.71
-0.7
-0.685
-0.675
-0.675
-0.685
-0.68
-0.695
-0.71
-0.715
-0.73
-0.75
-0.755
-0.755
-0.76
-0.755
-0.755
-0.765
-0.78
-0.805
-0.82
-0.86
-0.895
-0.9
-0.905
-0.93
-0.93
-0.915
-0.915
-0.905
-0.895
-0.915
-0.925
-0.92
-0.925
-0.94
-0.955
-0.94
-0.95
-0.935
-0.92
-0.905
-0.89
-0.9
-0.895
-0.9
-0.905
-0.91
-0.91
-0.915
-0.93
-0.895
-0.89
-0.865
-0.855
-0.855
-0.85
-0.855
-0.855
-0.86
-0.855
-0.855
-0.82
-0.79
-0.725
-0.645
-0.47
-0.23
0.04
0.32
0.59
0.87
1.145
1.345
1.39
1.255
0.91
0.365
-0.275
-0.915
-1.385
-1.61
-1.595
-1.445
-1.25
-1.065
-0.945
-0.93
-0.91
-0.925
-0.915
-0.91
-0.895
-0.88
-0.87
-0.88
-0.89
-0.9
-0.9
-0.89
-0.885
-0.865
-0.86
-0.84
-0.85
-0.845
-0.865
-0.87
-0.885
-0.885
-0.89
-0.87
-0.87
-0.865
-0.855
-0.86
-0.86
-0.875
-0.885
-0.875
-0.88
-0.885
-0.87
-0.88
-0.865
-0.855
-0.85
-0.835
-0.84
-0.845
-0.865
-0.86
-0.87
-0.865
-0.875
-0.86
-0.835
-0.825
-0.81
-0.815
-0.815
-0.815
-0.84
-0.835
-0.835
-0.84
-0.84
-0.82
-0.795
-0.785
-0.76
-0.765
-0.755
-0.75
-0.735
-0.745
-0.735
-0.73
-0.715
-0.7
-0.69
-0.645
-0.625
-0.61
-0.59
-0.575
-0.57
-0.57
-0.55
-0.54
-0.515
-0.5
-0.485
-0.46
-0.415
-0.405
-0.385
-0.385
-0.375
-0.37
-0.355
-0.36
-0.35
-0.325
-0.305
-0.295
-0.28
-0.29
-0.295
-0.325
-0.33
-0.36
-0.39
-0.415
-0.445
-0.45
-0.465
-0.47
-0.48
-0.525
-0.535
-0.575
-0.61
-0.64
-0.66
-0.695
-0.69
-0.705
-0.71
-0.705
-0.715
-0.73
-0.74
-0.755
-0.77
-0.78
-0.795
-0.795
-0.805
-0.8
-0.78
-0.785
-0.78
-0.775
-0.775
-0.785
-0.8
-0.805
-0.82
-0.815
-0.84
-0.815
-0.805
-0.795
-0.795
-0.795
-0.79
-0.8
-0.805
-0.805
-0.82
-0.825
-0.825
-0.825
-0.81
-0.79
-0.795
-0.785
-0.79
-0.795
-0.8
-0.82
-0.81
-0.825
-0.81
-0.815
-0.81
-0.795
-0.79
-0.795
-0.785
-0.805
-0.81
-0.825
-0.83
-0.84
-0.83
-0.83
-0.82
-0.805
-0.805
-0.83
-0.825
-0.82
-0.825
-0.84
-0.845
-0.845
-0.85
-0.845
-0.825
-0.825
-0.825
-0.83
-0.835
-0.83
-0.855
-0.86
-0.885
-0.885
-0.89
-0.885
-0.87
-0.86
-0.855
-0.85
-0.855
-0.865
-0.865
-0.88
-0.88
-0.885
-0.9
-0.89
-0.87
-0.885
-0.875
-0.865
-0.885
-0.88
-0.88
-0.885
-0.9
-0.915
-0.915
-0.92
-0.9
-0.89
-0.895
-0.885
-0.89
-0.9
-0.91
-0.94
-0.945
-0.93
-0.93
-0.91
-0.915
-0.92
-0.915
-0.91
-0.9
-0.9
-0.9
-0.925
-0.93
-0.94
-0.935
-0.93
-0.92
-0.9
-0.91
-0.895
-0.905
-0.92
-0.93
-0.93
-0.935
-0.93
-0.935
-0.925
-0.925
-0.91
-0.91
-0.905
-0.91
-0.905
-0.92
-0.915
-0.92
-0.925
-0.94
-0.93
-0.915
-0.905
-0.9
-0.9
-0.9
-0.905
-0.935
-0.925
-0.93
-0.935
-0.95
-0.94
-0.92
-0.915
-0.91
-0.915
-0.91
-0.92
-0.92
-0.93
-0.93
-0.95
-0.95
-0.94
-0.93
-0.92
-0.89
-0.885
-0.895
-0.91
-0.935
-0.945
-0.935
-0.935
-0.95
-0.92
-0.92
-0.92
-0.905
-0.91
-0.915
-0.92
-0.925
-0.925
-0.94
-0.93
-0.935
-0.93
-0.92
-0.91
-0.895
-0.9
-0.895
-0.89
-0.905
-0.905
-0.915
-0.915
-0.895
-0.88
-0.87
-0.84
-0.84
-0.81
-0.795
-0.8
-0.795
-0.795
-0.795
-0.795
-0.785
-0.76
-0.745
-0.705
-0.69
-0.695
-0.71
-0.74
-0.755
-0.77
-0.79
-0.79
-0.795
-0.785
-0.775
-0.75
-0.765
-0.79
-0.795
-0.83
-0.87
-0.905
-0.93
-0.94
-0.94
-0.94
-0.915
-0.925
-0.935
-0.945
-0.945
-0.96
-0.965
-0.965
-0.97
-0.975
-0.97
-0.955
-0.95
-0.945
-0.945
-0.95
-0.945
-0.945
-0.96
-0.965
-0.96
-0.965
-0.96
-0.935
-0.935
-0.91
-0.9
-0.91
-0.9
-0.905
-0.92
-0.925
-0.91
-0.9
-0.895
-0.885
-0.875
-0.85
-0.835
-0.81
-0.795
-0.74
-0.63
-0.445
-0.205
0.065
0.355
0.655
0.975
1.235
1.365
1.27
0.965
0.46
-0.15
-0.78
-1.31
-1.645
-1.76
-1.685
-1.52
-1.33
-1.21
-1.115
-1.07
-1.055
-1.03
-1.02
-0.975
-0.94
-0.915
-0.905
-0.895
-0.885
-0.88
-0.88
-0.875
-0.895
-0.895
-0.9
-0.895
-0.9
-0.905
-0.905
-0.905
-0.91
-0.88
-0.875
-0.87
-0.875
-0.88
-0.885
-0.895
-0.895
-0.905
-0.885
-0.89
-0.88
-0.855
-0.85
-0.86
-0.85
-0.875
-0.89
-0.875
-0.9
-0.895
-0.89
-0.875
-0.87
-0.835
-0.845
-0.855
-0.855
-0.865
-0.88
-0.91
-0.895
-0.895
-0.865
-0.85
-0.845
-0.825
-0.815
-0.83
-0.815
-0.82
-0.82
-0.835
-0.84
-0.83
-0.825
-0.8
-0.785
-0.76
-0.755
-0.735
-0.73
-0.72
-0.725
-0.715
-0.705
-0.68
-0.655
-0.625
-0.605
-0.585
-0.56
-0.55
-0.535
-0.535
-0.51
-0.5
-0.5
-0.49
-0.46
-0.425
-0.41
-0.395
-0.385
-0.37
-0.37
-0.385
-0.375
-0.385
-0.375
-0.38
-0.385
-0.38
-0.375
-0.385
-0.395
-0.425
-0.47
-0.5
-0.535
-0.55
-0.575
-0.6
-0.625
-0.635
-0.65
-0.66
-0.675
-0.695
-0.7
-0.725
-0.73
-0.75
-0.765
-0.79
-0.785
-0.785
-0.765
-0.76
-0.77
-0.79
-0.8
-0.79
-0.82
-0.82
-0.825
-0.84
-0.82
-0.8
-0.8
-0.785
-0.79
-0.8
-0.79
-0.81
-0.815
-0.81
-0.815
-0.82
-0.815
-0.81
-0.805
-0.79
-0.785
-0.785
-0.785
-0.805
-0.81
-0.82
-0.8
-0.795
-0.775
-0.775
-0.755
-0.76
-0.75
-0.76
-0.77
-0.755
-0.765
-0.77
-0.78
-0.775
-0.78
-0.76
-0.745
-0.72
-0.73
-0.71
-0.73
-0.74
-0.76
-0.75
-0.78
-0.78
-0.77
-0.76
-0.755
-0.725
-0.735
-0.735
-0.735
-0.755
-0.76
-0.765
-0.765
-0.76
-0.765
-0.78
-0.765
-0.765
-0.755
-0.745
-0.75
-0.755
-0.785
-0.775
-0.775
-0.785
-0.79
-0.79
-0.765
-0.75
-0.745
-0.76
-0.76
-0.765
-0.78
-0.77
-0.78
-0.765
-0.78
-0.78
-0.77
-0.765
-0.755
-0.755
-0.76
-0.775
-0.775
-0.785
-0.8
-0.785
-0.795
-0.78
-0.765
-0.77
-0.75
-0.75
-0.76
-0.77
-0.785
-0.805
-0.785
-0.785
-0.795
-0.79
-0.775
-0.775
-0.745
-0.74
-0.74
-0.77
-0.785
-0.79
-0.795
-0.795
-0.81
-0.795
-0.8
-0.77
-0.76
-0.755
-0.765
-0.775
-0.78
-0.785
-0.795
-0.79
-0.78
-0.775
-0.775
-0.76
-0.77
-0.75
-0.76
-0.76
-0.765
-0.78
-0.795
-0.805
-0.79
-0.775
-0.765
-0.745
-0.75
-0.75
-0.745
-0.745
-0.745
-0.73
-0.72
-0.715
-0.68
-0.65
-0.63
-0.625
-0.62
-0.615
-0.6
-0.61
-0.605
-0.605
-0.59
-0.595
-0.595
-0.59
-0.575
-0.59
-0.585
-0.59
-0.615
-0.625
-0.635
-0.645
-0.63
-0.655
-0.64
-0.65
-0.68
-0.695
-0.7
-0.73
-0.75
-0.76
-0.77
-0.785
-0.795
-0.8
-0.8
-0.805
-0.785
-0.78
-0.775
-0.77
-0.775
-0.785
-0.815
-0.815
-0.815
-0.805
-0.8
-0.795
-0.79
-0.78
-0.795
-0.8
-0.79
-0.775
-0.795
-0.805
-0.79
-0.795
-0.78
-0.775
-0.755
-0.755
-0.74
-0.75
-0.755
-0.76
-0.765
-0.765
-0.755
-0.735
-0.715
-0.7
-0.675
-0.655
-0.625
-0.59
-0.485
-0.33
-0.12
0.13
0.385
0.69
0.995
1.29
1.51
1.62
1.535
1.25
0.78
0.19
-0.425
-0.99
-1.39
-1.575
-1.58
-1.44
-1.265
-1.11
-0.995
-0.935
-0.905
-0.9
-0.865
-0.835
-0.79
-0.765
-0.745
-0.735
-0.725
-0.705
-0.725
-0.74
-0.735
-0.74
-0.74
-0.745
-0.755
-0.75
-0.735
-0.72
-0.7
-0.71
-0.71
-0.705
-0.715
-0.725
-0.745
-0.745
-0.76
-0.765
-0.76
-0.74
-0.71
-0.725
-0.71
-0.71
-0.715
-0.725
-0.74
-0.735
-0.75
-0.75
-0.74
-0.73
-0.72
-0.705
-0.705
-0.7
-0.71
-0.73
-0.74
-0.75
-0.755
-0.765
-0.72
-0.725
-0.715
-0.69
-0.685
-0.685
-0.685
-0.685
-0.69
-0.68
-0.68
-0.68
-0.65
-0.635
-0.615
-0.595
-0.585
-0.57
-0.57
-0.575
-0.58
-0.565
-0.555
-0.55
-0.52
-0.49
-0.465
-0.455
-0.43
-0.41
-0.4
-0.39
-0.375
-0.375
-0.355
-0.34
-0.315
-0.295
-0.27
-0.245
-0.22
-0.215
-0.2
-0.2
-0.2
-0.215
-0.22
-0.245
-0.24
-0.24
-0.24
-0.26
-0.27
-0.3
-0.32
-0.37
-0.395
-0.45
-0.47
-0.48
-0.51
-0.52
-0.525
-0.55
-0.55
-0.575
-0.59
-0.625
-0.66
-0.67
-0.69
-0.705
-0.71
-0.695
-0.7
-0.705
-0.695
-0.695
-0.685
-0.7
-0.73
-0.735
-0.735
-0.74
-0.75
-0.745
-0.75
-0.74
-0.72
-0.715
-0.725
-0.725
-0.76
-0.765
-0.765
-0.77
-0.765
-0.765
-0.74
-0.725
-0.73
-0.72
-0.725
-0.725
-0.74
-0.745
-0.735
-0.77
-0.75
-0.74
-0.73
-0.72
-0.71
-0.705
-0.715
-0.72
-0.72
-0.735
-0.745
-0.75
-0.745
-0.735
-0.715
-0.715
-0.71
-0.71
-0.71
-0.71
-0.725
-0.725
-0.725
-0.715
-0.725
-0.71
-0.715
-0.72
-0.715
-0.715
-0.72
-0.725
-0.74
-0.745
-0.76
-0.76
-0.755
-0.755
-0.745
-0.735
-0.735
-0.74
-0.74
-0.755
-0.79
-0.8
-0.8
-0.805
-0.8
-0.795
-0.785
-0.775
-0.775
-0.77
-0.76
-0.78
-0.79
-0.805
-0.815
-0.805
-0.8
-0.79
-0.79
-0.79
-0.78
-0.785
-0.78
-0.79
-0.805
-0.815
-0.815
-0.815
-0.8
-0.81
-0.795
-0.795
-0.78
-0.785
-0.785
-0.8
-0.81
-0.815
-0.81
-0.83
-0.81
-0.795
-0.795
-0.795
-0.79
-0.79
-0.795
-0.8
-0.815
-0.815
-0.805
-0.82
-0.82
-0.815
-0.82
-0.81
-0.805
-0.79
-0.795
-0.8
-0.825
-0.82
-0.82
-0.815
-0.81
-0.81
-0.785
-0.77
-0.755
-0.75
-0.73
-0.715
-0.725
-0.72
-0.72
-0.705
-0.69
-0.685
-0.68
-0.635
-0.61
-0.605
-0.6
-0.615
-0.64
-0.645
-0.675
-0.685
-0.69
-0.69
-0.69
-0.695
-0.67
-0.675
-0.685
-0.705
-0.735
-0.765
-0.795
-0.83
-0.855
-0.855
-0.85
-0.845
-0.845
-0.85
-0.87
-0.895
-0.905
-0.895
-0.895
-0.885
-0.855
-0.835
-0.85
-0.855
-0.875
-0.895
-0.905
-0.9
-0.915
-0.905
-0.895
-0.9
-0.885
-0.88
-0.87
-0.86
-0.84
-0.835
-0.84
-0.84
-0.86
-0.855
-0.835
-0.82
-0.8
-0.805
-0.81
-0.81
-0.79
-0.765
-0.745
-0.7
-0.64
-0.49
-0.305
-0.055
0.23
0.505
0.795
1.09
1.33
1.455
1.405
1.16
0.75
0.22
-0.37
-0.905
-1.335
-1.57
-1.625
-1.52
-1.36
-1.2
-1.07
-1.015
-1.005
-0.99
-0.965
-0.935
-0.885
-0.805
-0.77
-0.78
-0.815
-0.81
-0.84
-0.85
-0.88
-0.89
-0.885
-0.885
-0.875
-0.885
-0.85
-0.84
-0.835
-0.825
-0.825
-0.83
-0.835
-0.835
-0.86
-0.84
-0.835
-0.825
-0.82
-0.825
-0.83
-0.835
-0.835
-0.825
-0.825
-0.82
-0.835
-0.815
-0.815
-0.805
-0.815
-0.815
-0.85
-0.865
-0.855
-0.835
-0.845
-0.84
-0.85
-0.84
-0.825
-0.81
-0.815
-0.79
-0.775
-0.76
-0.75
-0.745
-0.75
-0.745
-0.75
-0.76
-0.77
-0.775
-0.77
-0.765
-0.72
-0.695
-0.66
-0.65
-0.64
-0.64
-0.655
-0.64
-0.635
-0.635
-0.585
-0.555
-0.51
-0.495
-0.48
-0.48
-0.465
-0.465
-0.46
-0.45
-0.42
-0.38
-0.34
-0.31
-0.29
-0.275
-0.27
-0.27
-0.26
-0.285
-0.3
-0.295
-0.3
-0.3
-0.3
-0.305
-0.325
-0.345
-0.375
-0.405
-0.455
-0.485
-0.51
-0.54
-0.57
-0.565
-0.59
-0.615
-0.625
-0.655
-0.67
-0.705
-0.72
-0.75
-0.76
-0.765
-0.775
-0.77
-0.765
-0.765
-0.785
-0.785
-0.805
-0.825
-0.83
-0.83
-0.83
-0.83
-0.825
-0.825
-0.81
-0.81
-0.815
-0.82
-0.83
-0.825
-0.84
-0.85
-0.87
-0.88
-0.885
-0.89
-0.875
-0.88
-0.885
-0.88
-0.86
-0.865
-0.88
-0.895
-0.905
-0.895
-0.915
-0.885
-0.895
-0.86
-0.86
-0.84
-0.82
-0.83
-0.835
-0.835
-0.85
-0.855
-0.845
-0.84
-0.835
-0.84
-0.83
-0.825
-0.83
-0.83
-0.84
-0.87
-0.855
-0.86
-0.86
-0.87
-0.855
-0.84
-0.84
-0.835
-0.835
-0.84
-0.86
-0.865
-0.88
-0.875
-0.88
-0.885
-0.88
-0.87
-0.85
-0.855
-0.855
-0.89
-0.885
-0.895
-0.905
-0.905
-0.91
-0.9
-0.89
-0.885
-0.88
-0.885
-0.89
-0.905
-0.935
-0.93
-0.925
-0.91
-0.91
-0.895
-0.88
-0.885
-0.875
-0.885
-0.89
-0.9
-0.91
-0.89
-0.9
-0.9
-0.915
-0.915
-0.925
-0.92
-0.92
-0.915
-0.92
-0.93
-0.95
-0.96
-0.96
-0.95
-0.925
-0.885
-0.87
-0.855
-0.865
-0.89
-0.89
-0.875
-0.88
-0.855
-0.855
-0.86
-0.87
-0.84
-0.85
-0.845
-0.825
-0.79
-0.805
-0.795
-0.78
-0.765
-0.735
-0.695
-0.675
-0.64
-0.65
-0.665
-0.705
-0.735
-0.75
-0.76
-0.785
-0.8
-0.805
-0.8
-0.79
-0.79
-0.795
-0.82
-0.835
-0.865
-0.895
-0.915
-0.955
-0.965
-0.985
-0.955
-0.955
-0.945
-0.95
-0.955
-0.955
-0.97
-0.96
-0.96
-0.965
-0.99
-0.985
-0.995
-1.0
-0.985
-0.965
-0.935
-0.915
-0.925
-0.93
-0.955
-0.975
-0.985
-0.99
-0.99
-0.98
-0.965
-0.93
-0.915
-0.895
-0.875
-0.875
-0.885
-0.89
-0.91
-0.91
-0.91
-0.91
-0.89
-0.85
-0.805
-0.71
-0.525
-0.3
-0.05
0.2
0.485
0.775
1.09
1.33
1.42
1.28
0.925
0.39
-0.25
-0.89
-1.44
-1.745
-1.835
-1.75
-1.56
-1.35
-1.2
-1.12
-1.125
-1.12
-1.105
-1.055
-0.985
-0.905
-0.865
-0.835
-0.85
-0.87
-0.885
-0.87
-0.88
-0.9
-0.915
-0.925
-0.925
-0.905
-0.9
-0.895
-0.895
-0.9
-0.88
-0.875
-0.865
-0.86
-0.85
-0.87
-0.88
-0.9
-0.925
-0.935
-0.92
-0.885
-0.85
-0.815
-0.79
-0.81
-0.83
-0.86
-0.885
-0.905
-0.895
-0.91
-0.9
-0.895
-0.875
-0.86
-0.87
-0.855
-0.86
-0.86
-0.87
-0.875
-0.895
-0.89
-0.9
-0.885
-0.875
-0.87
-0.835
-0.84
-0.835
-0.83
-0.83
-0.835
-0.845
-0.85
-0.85
-0.85
-0.82
-0.805
-0.79
-0.77
-0.755
-0.745
-0.76
-0.755
-0.745
-0.735
-0.73
-0.73
-0.69
-0.655
-0.615
-0.595
-0.605
-0.59
-0.585
-0.585
-0.59
-0.58
-0.585
-0.545
-0.515
-0.505
-0.475
-0.465
-0.465
-0.465
-0.445
-0.415
-0.41
-0.415
-0.43
-0.455
-0.455
-0.47
-0.475
-0.485
-0.515
-0.535
-0.575
-0.59
-0.625
-0.655
-0.67
-0.695
-0.73
-0.725
-0.75
-0.755
-0.775
-0.785
-0.785
-0.815
-0.845
-0.88
-0.905
-0.92
-0.895
-0.895
-0.875
-0.875
-0.88
-0.89
-0.9
-0.91
-0.9
-0.91
-0.925
-0.935
-0.965
-0.955
-0.94
-0.95
-0.925
-0.915
-0.915
-0.91
-0.925
-0.94
-0.95
-0.955
-0.96
-0.94
-0.92
-0.91
-0.9
-0.91
-0.9
-0.91
-0.935
-0.95
-0.955
-0.94
-0.93
-0.915
-0.91
-0.905
-0.895
-0.89
-0.915
-0.91
-0.905
-0.915
-0.925
-0.93
-0.925
-0.91
-0.885
-0.885
-0.875
-0.87
-0.865
-0.89
-0.905
-0.905
-0.91
-0.915
-0.925
-0.945
-0.915
-0.9
-0.89
-0.885
-0.88
-0.91
-0.92
-0.925
-0.935
-0.945
-0.94
-0.945
-0.94
-0.915
-0.925
-0.925
-0.95
-0.955
-0.965
-0.98
-0.97
-0.955
-0.955
-0.95
-0.955
-0.94
-0.945
-0.945
-0.94
-0.975
-0.975
-0.99
-0.99
-1.0
-0.995
-0.99
-0.98
-0.965
-0.96
-0.98
-0.975
-0.99
-1.0
-1.005
-1.03
-1.035
-1.035
-1.01
-1.01
-1.0
-1.005
-1.01
-1.01
-1.02
-1.025
-1.035
-1.035
-1.045
-1.02
-1.03
-1.015
-1.005
-1.01
-1.015
-1.005
-1.02
-1.025
-1.04
-1.03
-1.03
-1.015
-1.015
-0.995
-0.995
-0.975
-0.955
-0.94
-0.935
-0.935
-0.935
-0.925
-0.91
-0.915
-0.885
-0.855
-0.84
-0.835
-0.845
-0.83
-0.835
-0.87
-0.895
-0.91
-0.915
-0.92
-0.915
-0.93
-0.925
-0.905
-0.91
-0.92
-0.94
-0.97
-0.995
-1.04
-1.055
-1.075
-1.07
-1.065
-1.06
-1.065
-1.08
-1.09
-1.1
-1.12
-1.12
-1.13
-1.135
-1.13
-1.115
-1.105
-1.105
-1.09
-1.09
-1.085
-1.1
-1.115
-1.12
-1.125
-1.12
-1.105
-1.095
-1.085
-1.07
-1.06
-1.07
-1.055
-1.07
-1.08
-1.075
-1.085
-1.075
-1.045
-1.035
-1.02
-1.0
-0.98
-0.98
-0.95
-0.91
-0.83
-0.67
-0.42
-0.125
0.18
0.515
0.87
1.14
1.265
1.15
0.775
0.215
-0.425
-1.065
-1.635
-1.895
-1.9
-1.735
-1.5
-1.31
-1.195
-1.15
-1.145
-1.15
-1.16
-1.135
-1.12
-1.09
-1.065
-1.05
-1.045
-1.055
-1.05
-1.06
-1.075
-1.08
-1.08
-1.07
-1.085
-1.09
-1.065
-1.075
-1.065
-1.04
-1.035
-1.035
-1.03
-1.055
-1.06
-1.07
-1.08
-1.085
-1.075
-1.065
-1.065
-1.06
-1.065
-1.05
-1.06
-1.07
-1.08
-1.09
-1.1
-1.085
-1.085
-1.07
-1.05
-1.04
-1.04
-1.025
-1.03
-1.05
-1.055
-1.07
-1.055
-1.065
-1.05
-1.04
-1.025
-1.0
-1.005
-0.99
-0.985
-0.985
-0.98
-0.98
-0.97
-0.955
-0.945
-0.915
-0.915
-0.895
-0.875
-0.85
-0.85
-0.845
-0.845
-0.815
-0.785
-0.775
-0.745
-0.71
-0.675
-0.66
-0.645
-0.62
-0.6
-0.6
-0.585
-0.555
-0.55
-0.53
-0.52
-0.495
-0.48
-0.47
-0.46
-0.465
-0.46
-0.47
-0.48
-0.495
-0.51
-0.525
-0.55
-0.56
-0.565
-0.6
-0.62
-0.66
-0.675
-0.705
-0.735
-0.75
-0.775
-0.81
-0.815
-0.84
-0.845
-0.86
-0.89
-0.88
-0.89
-0.885
-0.9
-0.92
-0.935
-0.95
-0.96
-0.975
-0.97
-0.955
-0.95
-0.945
-0.94
-0.965
-0.965
-0.97
-0.99
-0.985
-0.97
-0.955
-0.965
-0.97
-0.96
-0.965
-0.975
-0.99
-1.0
-1.0
-1.0
-1.0
-0.995
-0.995
-0.985
-0.96
-0.965
-0.975
-0.955
-0.97
-0.97
-0.985
-0.985
-0.99
-0.995
-1.0
-0.975
-0.975
-0.95
-0.955
-0.95
-0.96
-0.97
-0.99
-1.005
-0.99
-0.98
-0.99
-0.99
-0.98
-0.97
-0.97
-0.985
-0.995
-0.985
-0.985
-0.98
-0.99
-0.975
-0.975
-0.965
-0.955
-0.96
-0.945
-0.95
-0.965
-0.985
-0.995
-0.98
-1.0
-0.99
-0.985
-0.98
-0.97
-0.97
-0.96
-0.99
-1.0
-1.01
-1.01
-1.04
-1.035
-1.015
-1.01
-1.015
-1.01
-1.0
-1.0
-0.99
-0.99
-1.015
-1.015
-1.035
-1.04
-1.035
-1.02
-1.01
-0.99
-0.995
-1.0
-1.01
-1.025
-1.03
-1.03
-1.04
-1.035
-1.035
-1.03
-1.035
-1.02
-1.005
-1.015
-1.005
-1.025
-1.025
-1.035
-1.04
-1.04
-1.04
-1.045
-1.03
-1.015
-1.01
-1.015
-0.985
-0.99
-1.015
-1.025
-1.045
-1.035
-1.01
-0.995
-0.97
-0.94
-0.915
-0.9
-0.9
-0.895
-0.89
-0.9
-0.9
-0.885
-0.885
-0.825
-0.815
-0.79
-0.8
-0.82
-0.84
-0.87
-0.87
-0.905
-0.93
-0.925
-0.945
-0.93
-0.92
-0.92
-0.915
-0.93
-0.945
-0.975
-1.005
-1.03
-1.05
-1.045
-1.04
-1.055
-1.06
-1.065
-1.045
-1.065
-1.055
-1.065
-1.08
-1.075
-1.08
-1.085
-1.08
-1.07
-1.055
-1.055
-1.04
-1.04
-1.035
-1.03
-1.05
-1.055
-1.07
-1.045
-1.035
-1.015
-1.005
-1.01
-0.995
-0.995
-1.015
-1.015
-1.01
-1.02
-1.005
-0.99
-0.975
-0.97
-0.95
-0.945
-0.93
-0.94
-0.885
-0.825
-0.705
-0.51
-0.275
-0.02
0.25
0.53
0.87
1.165
1.32
1.29
1.04
0.61
0.03
-0.61
-1.19
-1.625
-1.835
-1.845
-1.695
-1.515
-1.345
-1.265
-1.195
-1.15
-1.125
-1.11
-1.06
-1.03
-0.99
-0.98
-0.975
-0.97
-0.965
-0.98
-0.975
-0.97
-0.98
-0.975
-0.985
-0.975
-0.975
-0.975
-0.96
-0.95
-0.95
-0.97
-0.955
-0.95
-0.96
-0.955
-0.96
-0.965
-0.95
-0.935
-0.915
-0.92
-0.93
-0.93
-0.93
-0.94
-0.95
-0.96
-0.96
-0.96
-0.94
-0.92
-0.915
-0.92
-0.905
-0.91
-0.915
-0.92
-0.94
-0.945
-0.93
-0.92
-0.905
-0.885
-0.875
-0.865
-0.85
-0.845
-0.84
-0.835
-0.84
-0.84
-0.84
-0.845
-0.83
-0.815
-0.8
-0.755
-0.735
-0.72
-0.7
-0.685
-0.67
-0.665
-0.65
-0.63
-0.615
-0.58
-0.555
-0.53
-0.505
-0.505
-0.505
-0.485
-0.48
-0.465
-0.45
-0.435
-0.43
-0.395
-0.385
-0.37
-0.355
-0.36
-0.365
-0.39
-0.41
-0.42
-0.435
-0.455
-0.475
-0.48
-0.525
-0.545
-0.555
-0.58
-0.605
-0.635
-0.695
-0.705
-0.74
-0.765
-0.805
-0.79
-0.79
-0.795
-0.8
-0.795
-0.8
-0.82
-0.825
-0.845
-0.845
-0.875
-0.89
-0.875
-0.865
-0.86
-0.85
-0.84
-0.835
-0.83
-0.84
-0.86
-0.875
-0.885
-0.89
-0.87
-0.86
-0.845
-0.84
-0.85
-0.84
-0.85
-0.855
-0.865
-0.87
-0.885
-0.88
-0.885
-0.86
-0.86
-0.85
-0.835
-0.835
-0.83
-0.82
-0.83
-0.83
-0.82
-0.83
-0.83
-0.815
-0.815
-0.79
-0.78
-0.78
-0.775
-0.785
-0.785
-0.81
-0.82
-0.815
-0.83
-0.815
-0.775
-0.77
-0.765
-0.76
-0.77
-0.79
-0.81
-0.83
-0.81
-0.815
-0.795
-0.795
-0.765
-0.785
-0.785
-0.785
-0.785
-0.795
-0.805
-0.805
-0.805
-0.825
-0.83
-0.815
-0.8
-0.795
-0.79
-0.795
-0.81
-0.805
-0.84
-0.845
-0.855
-0.86
-0.855
-0.835
-0.825
-0.83
-0.825
-0.82
-0.825
-0.845
-0.84
-0.86
-0.855
-0.87
-0.855
-0.85
-0.835
-0.83
-0.825
-0.825
-0.82
-0.845
-0.845
-0.85
-0.86
-0.845
-0.84
-0.83
-0.82
-0.805
-0.79
-0.765
-0.755
-0.755
-0.74
-0.74
-0.75
-0.74
-0.745
-0.695
-0.675
-0.66
-0.66
-0.67
-0.67
-0.68
-0.72
-0.74
-0.75
-0.745
-0.755
-0.74
-0.75
-0.735
-0.735
-0.75
-0.775
-0.795
-0.82
-0.86
-0.88
-0.9
-0.915
-0.935
-0.92
-0.91
-0.9
-0.905
-0.92
-0.945
-0.95
-0.965
-0.975
-0.955
-0.955
-0.945
-0.96
-0.95
-0.965
-0.96
-0.94
-0.955
-0.96
-0.95
-0.965
-0.965
-0.95
-0.96
-0.945
-0.935
-0.93
-0.93
-0.935
-0.95
-0.945
-0.945
-0.945
-0.955
-0.92
-0.91
-0.895
-0.885
-0.88
-0.865
-0.87
-0.88
-0.875
-0.845
-0.78
-0.65
-0.42
-0.165
0.085
0.385
0.675
0.96
1.24
1.42
1.425
1.275
0.935
0.46
-0.15
-0.78
-1.305
-1.645
-1.765
-1.735
-1.58
-1.4
-1.27
-1.175
-1.14
-1.11
-1.1
-1.045
-1.02
-0.965
-0.94
-0.92
-0.92
-0.93
-0.94
-0.965
-0.98
-0.975
-0.955
-0.94
-0.945
-0.94
-0.93
-0.955
-0.94
-0.945
-0.955
-0.955
-0.96
-0.955
-0.965
-0.955
-0.93
-0.92
-0.915
-0.925
-0.935
-0.95
-0.96
-0.955
-0.965
-0.96
-0.95
-0.955
-0.945
-0.935
-0.915
-0.94
-0.945
-0.945
-0.955
-0.93
-0.95
-0.955
-0.94
-0.94
-0.925
-0.92
-0.9
-0.9
-0.905
-0.91
-0.91
-0.91
-0.915
-0.9
-0.885
-0.87
-0.865
-0.84
-0.84
-0.84
-0.84
-0.835
-0.835
-0.825
-0.82
-0.815
-0.79
-0.765
-0.75
-0.725
-0.715
-0.695
-0.675
-0.67
-0.655
-0.655
-0.635
-0.62
-0.6
-0.565
-0.525
-0.515
-0.485
-0.46
-0.465
-0.46
-0.455
-0.445
-0.425
-0.43
-0.425
-0.425
-0.385
-0.385
-0.395
-0.425
-0.445
-0.465
-0.49
-0.52
-0.555
-0.58
-0.605
-0.615
-0.635
-0.655
-0.67
-0.705
-0.73
-0.75
-0.785
-0.825
-0.825
-0.845
-0.85
-0.845
-0.85
-0.845
-0.85
-0.865
-0.875
-0.895
-0.905
-0.915
-0.93
-0.93
-0.92
-0.91
-0.9
-0.89
-0.885
-0.9
-0.9
-0.91
-0.93
-0.935
-0.935
-0.945
-0.94
-0.935
-0.925
-0.905
-0.9
-0.91
-0.915
-0.925
-0.935
-0.945
-0.955
-0.94
-0.92
-0.935
-0.905
-0.89
-0.885
-0.885
-0.89
-0.91
-0.905
-0.905
-0.9
-0.895
-0.895
-0.88
-0.88
-0.86
-0.87
-0.875
-0.885
-0.87
-0.895
-0.905
-0.915
-0.91
-0.895
-0.885
-0.875
-0.86
-0.865
-0.865
-0.885
-0.89
-0.89
-0.915
-0.905
-0.905
-0.905
-0.9
-0.9
-0.885
-0.89
-0.88
-0.885
-0.91
-0.93
-0.92
-0.93
-0.925
-0.945
-0.92
-0.9
-0.89
-0.91
-0.92
-0.92
-0.93
-0.935
-0.94
-0.935
-0.925
-0.935
-0.925
-0.935
-0.915
-0.92
-0.915
-0.915
-0.92
-0.935
-0.95
-0.95
-0.97
-0.97
-0.94
-0.925
-0.915
-0.905
-0.905
-0.92
-0.93
-0.935
-0.94
-0.95
-0.945
-0.935
-0.935
