Lead II
-0.33
-0.315
-0.33
-0.35
-0.35
-0.345
-0.335
-0.31
-0.33
-0.335
-0.34
-0.32
-0.3
-0.28
-0.3
-0.3
-0.305
-0.3
-0.29
-0.3
-0.275
-0.28
-0.285
-0.28
-0.26
-0.25
-0.25
-0.25
-0.26
-0.24
-0.235
-0.225
-0.235
-0.245
-0.25
-0.235
-0.22
-0.215
-0.22
-0.235
-0.24
-0.25
-0.235
-0.23
-0.24
-0.255
-0.255
-0.255
-0.24
-0.24
-0.26
-0.27
-0.285
-0.28
-0.255
-0.26
-0.28
-0.285
-0.285
-0.295
-0.285
-0.29
-0.285
-0.31
-0.32
-0.32
-0.3
-0.3
-0.31
-0.335
-0.335
-0.325
-0.32
-0.315
-0.315
-0.33
-0.33
-0.33
-0.32
-0.32
-0.35
-0.35
-0.355
-0.35
-0.33
-0.335
-0.34
-0.36
-0.37
-0.355
-0.335
-0.34
-0.34
-0.37
-0.375
-0.355
-0.34
-0.34
-0.35
-0.365
-0.385
-0.365
-0.355
-0.355
-0.36
-0.38
-0.39
-0.385
-0.36
-0.37
-0.38
-0.385
-0.39
-0.37
-0.36
-0.355
-0.365
-0.38
-0.39
-0.385
-0.37
-0.365
-0.385
-0.405
-0.395
-0.38
-0.37
-0.375
-0.37
-0.375
-0.39
-0.38
-0.37
-0.36
-0.35
-0.36
-0.375
-0.39
-0.39
-0.38
-0.385
-0.385
-0.395
-0.385
-0.37
-0.365
-0.37
-0.385
-0.39
-0.375
-0.365
-0.36
-0.385
-0.375
-0.385
-0.37
-0.35
-0.34
-0.355
-0.36
-0.365
-0.34
-0.33
-0.305
-0.315
-0.325
-0.325
-0.295
-0.245
-0.22
-0.2
-0.22
-0.205
-0.17
-0.115
-0.07
-0.035
-0.05
-0.065
-0.085
-0.135
-0.135
-0.15
-0.165
-0.21
-0.21
-0.205
-0.21
-0.25
-0.275
-0.305
-0.31
-0.31
-0.335
-0.355
-0.37
-0.385
-0.38
-0.365
-0.355
-0.37
-0.385
-0.385
-0.38
-0.37
-0.375
-0.425
-0.475
-0.565
-0.66
-0.715
-0.64
-0.435
-0.035
0.52
1.125
1.61
1.925
2.035
2.075
2.035
1.975
1.85
1.545
0.905
0.265
-0.375
-0.68
-0.505
-0.39
-0.405
-0.47
-0.48
-0.46
-0.43
-0.46
-0.475
-0.51
-0.535
-0.535
-0.525
-0.505
-0.515
-0.53
-0.535
-0.54
-0.52
-0.515
-0.525
-0.535
-0.54
-0.53
-0.52
-0.515
-0.525
-0.545
-0.535
-0.52
-0.51
-0.51
-0.51
-0.515
-0.53
-0.525
-0.5
-0.485
-0.495
-0.485
-0.505
-0.5
-0.485
-0.475
-0.47
-0.47
-0.48
-0.475
-0.46
-0.45
-0.455
-0.45
-0.46
-0.45
-0.435
-0.43
-0.42
-0.44
-0.43
-0.425
-0.395
-0.375
-0.37
-0.38
-0.375
-0.35
-0.33
-0.315
-0.3
-0.29
-0.28
-0.255
-0.23
-0.205
-0.195
-0.185
-0.16
-0.125
-0.08
-0.055
-0.055
-0.025
0.0
0.04
0.075
0.105
0.125
0.16
0.19
0.21
0.235
0.255
0.27
0.28
0.28
0.315
0.325
0.35
0.33
0.325
0.31
0.3
0.295
0.295
0.275
0.245
0.22
0.195
0.18
0.15
0.1
0.065
0.025
0.005
-0.01
-0.05
-0.075
-0.12
-0.16
-0.17
-0.195
-0.2
-0.23
-0.265
-0.28
-0.305
-0.305
-0.33
-0.34
-0.36
-0.385
-0.385
-0.385
-0.405
-0.42
-0.455
-0.445
-0.465
-0.46
-0.465
-0.49
-0.495
-0.505
-0.5
-0.49
-0.49
-0.5
-0.52
-0.53
-0.525
-0.54
-0.535
-0.535
-0.525
-0.55
-0.545
-0.53
-0.54
-0.54
-0.55
-0.545
-0.545
-0.54
-0.525
-0.545
-0.55
-0.56
-0.53
-0.525
-0.515
-0.525
-0.525
-0.52
-0.515
-0.5
-0.48
-0.495
-0.5
-0.505
-0.485
-0.47
-0.46
-0.455
-0.47
-0.495
-0.475
-0.435
-0.44
-0.44
-0.455
-0.47
-0.46
-0.46
-0.44
-0.455
-0.455
-0.475
-0.47
-0.455
-0.435
-0.45
-0.455
-0.48
-0.46
-0.455
-0.445
-0.455
-0.475
-0.49
-0.48
-0.47
-0.455
-0.465
-0.485
-0.495
-0.495
-0.47
-0.445
-0.445
-0.47
-0.48
-0.475
-0.47
-0.47
-0.465
-0.48
-0.495
-0.49
-0.475
-0.48
-0.49
-0.49
-0.505
-0.495
-0.495
-0.48
-0.485
-0.495
-0.525
-0.51
-0.485
-0.47
-0.485
-0.505
-0.51
-0.495
-0.485
-0.48
-0.475
-0.49
-0.49
-0.49
-0.47
-0.47
-0.48
-0.48
-0.51
-0.49
-0.475
-0.47
-0.465
-0.495
-0.49
-0.49
-0.465
-0.465
-0.475
-0.495
-0.485
-0.485
-0.47
-0.46
-0.475
-0.48
-0.49
-0.48
-0.475
-0.46
-0.47
-0.48
-0.485
-0.49
-0.475
-0.445
-0.465
-0.47
-0.465
-0.47
-0.445
-0.44
-0.445
-0.47
-0.455
-0.455
-0.44
-0.445
-0.44
-0.445
-0.445
-0.445
-0.435
-0.4
-0.41
-0.405
-0.4
-0.385
-0.355
-0.325
-0.305
-0.295
-0.305
-0.285
-0.225
-0.15
-0.095
-0.09
-0.12
-0.135
-0.165
-0.185
-0.2
-0.235
-0.245
-0.235
-0.27
-0.285
-0.32
-0.345
-0.38
-0.385
-0.385
-0.405
-0.425
-0.435
-0.45
-0.445
-0.435
-0.425
-0.43
-0.445
-0.45
-0.44
-0.435
-0.455
-0.515
-0.6
-0.71
-0.755
-0.695
-0.465
-0.04
0.515
1.09
1.565
1.9
2.05
2.065
2.025
1.93
1.71
1.235
0.595
-0.045
-0.685
-0.635
-0.455
-0.415
-0.45
-0.475
-0.5
-0.5
-0.49
-0.505
-0.515
-0.54
-0.555
-0.57
-0.575
-0.56
-0.575
-0.58
-0.595
-0.6
-0.585
-0.58
-0.56
-0.575
-0.59
-0.59
-0.59
-0.57
-0.56
-0.57
-0.585
-0.585
-0.575
-0.555
-0.545
-0.545
-0.555
-0.555
-0.54
-0.525
-0.535
-0.525
-0.535
-0.54
-0.535
-0.51
-0.515
-0.51
-0.52
-0.51
-0.51
-0.5
-0.465
-0.46
-0.48
-0.475
-0.46
-0.425
-0.42
-0.415
-0.425
-0.41
-0.395
-0.38
-0.35
-0.34
-0.34
-0.325
-0.31
-0.28
-0.27
-0.25
-0.26
-0.225
-0.195
-0.15
-0.12
-0.09
-0.09
-0.055
-0.015
0.035
0.09
0.115
0.13
0.145
0.19
0.24
0.265
0.285
0.305
0.3
0.32
0.345
0.365
0.36
0.35
0.335
0.34
0.335
0.33
0.295
0.26
0.23
0.21
0.19
0.155
0.125
0.08
0.035
0.01
-0.005
-0.025
-0.07
-0.105
-0.145
-0.165
-0.17
-0.195
-0.22
-0.255
-0.275
-0.275
-0.285
-0.295
-0.33
-0.34
-0.37
-0.37
-0.375
-0.38
-0.385
-0.405
-0.425
-0.44
-0.455
-0.425
-0.445
-0.48
-0.49
-0.475
-0.47
-0.465
-0.48
-0.5
-0.505
-0.495
-0.49
-0.48
-0.485
-0.52
-0.53
-0.52
-0.51
-0.49
-0.51
-0.505
-0.525
-0.515
-0.505
-0.5
-0.505
-0.535
-0.53
-0.52
-0.495
-0.49
-0.485
-0.5
-0.505
-0.49
-0.47
-0.475
-0.465
-0.47
-0.475
-0.47
-0.45
-0.445
-0.44
-0.455
-0.46
-0.45
-0.44
-0.42
-0.425
-0.45
-0.455
-0.445
-0.435
-0.425
-0.445
-0.46
-0.46
-0.455
-0.445
-0.435
-0.435
-0.45
-0.455
-0.445
-0.43
-0.435
-0.455
-0.48
-0.48
-0.475
-0.465
-0.455
-0.47
-0.48
-0.495
-0.49
-0.475
-0.455
-0.46
-0.47
-0.485
-0.5
-0.47
-0.465
-0.48
-0.49
-0.49
-0.495
-0.495
-0.47
-0.475
-0.475
-0.485
-0.495
-0.47
-0.465
-0.49
-0.485
-0.48
-0.475
-0.475
-0.46
-0.45
-0.47
-0.495
-0.48
-0.46
-0.455
-0.455
-0.485
-0.475
-0.475
-0.465
-0.44
-0.455
-0.47
-0.475
-0.47
-0.47
-0.46
-0.47
-0.475
-0.49
-0.48
-0.46
-0.44
-0.45
-0.45
-0.465
-0.465
-0.45
-0.445
-0.445
-0.455
-0.455
-0.44
-0.425
-0.42
-0.435
-0.43
-0.455
-0.44
-0.435
-0.425
-0.415
-0.43
-0.43
-0.425
-0.425
-0.4
-0.425
-0.42
-0.425
-0.415
-0.41
-0.39
-0.405
-0.405
-0.4
-0.38
-0.37
-0.33
-0.32
-0.3
-0.28
-0.27
-0.24
-0.205
-0.15
-0.095
-0.075
-0.065
-0.08
-0.11
-0.15
-0.195
-0.2
-0.2
-0.19
-0.21
-0.265
-0.315
-0.335
-0.34
-0.345
-0.35
-0.385
-0.4
-0.41
-0.4
-0.39
-0.375
-0.375
-0.385
-0.4
-0.41
-0.39
-0.4
-0.4
-0.445
-0.52
-0.61
-0.655
-0.605
-0.425
-0.115
0.355
0.925
1.435
1.81
2.02
2.085
2.065
2.005
1.825
1.38
0.74
0.1
-0.54
-0.725
-0.5
-0.435
-0.485
-0.525
-0.495
-0.475
-0.47
-0.465
-0.48
-0.505
-0.5
-0.495
-0.49
-0.495
-0.495
-0.52
-0.54
-0.52
-0.52
-0.49
-0.505
-0.515
-0.53
-0.5
-0.49
-0.475
-0.49
-0.49
-0.51
-0.5
-0.46
-0.455
-0.46
-0.47
-0.48
-0.465
-0.45
-0.44
-0.455
-0.455
-0.46
-0.435
-0.42
-0.415
-0.405
-0.42
-0.435
-0.405
-0.38
-0.36
-0.36
-0.36
-0.365
-0.37
-0.33
-0.3
-0.3
-0.31
-0.315
-0.29
-0.255
-0.23
-0.22
-0.23
-0.22
-0.2
-0.16
-0.15
-0.14
-0.115
-0.105
-0.065
-0.035
0.01
0.03
0.045
0.065
0.11
0.13
0.2
0.235
0.25
0.28
0.315
0.36
0.39
0.4
0.415
0.44
0.45
0.455
0.48
0.47
0.475
0.455
0.45
0.445
0.435
0.395
0.37
0.35
0.315
0.29
0.27
0.225
0.18
0.145
0.115
0.075
0.05
0.035
-0.02
-0.04
-0.075
-0.085
-0.095
-0.125
-0.145
-0.18
-0.2
-0.205
-0.21
-0.25
-0.27
-0.28
-0.295
-0.28
-0.285
-0.31
-0.34
-0.365
-0.36
-0.35
-0.36
-0.37
-0.385
-0.39
-0.385
-0.37
-0.365
-0.39
-0.395
-0.41
-0.395
-0.39
-0.375
-0.395
-0.38
-0.395
-0.385
-0.375
-0.355
-0.375
-0.36
-0.375
-0.36
-0.345
-0.335
-0.345
-0.345
-0.35
-0.34
-0.32
-0.305
-0.3
-0.315
-0.325
-0.325
-0.33
-0.295
-0.315
-0.305
-0.32
-0.3
-0.295
-0.295
-0.31
-0.295
-0.31
-0.305
-0.295
-0.3
-0.315
-0.33
-0.34
-0.345
-0.335
-0.325
-0.345
-0.35
-0.36
-0.36
-0.34
-0.335
-0.345
-0.38
-0.39
-0.375
-0.38
-0.38
-0.375
-0.38
-0.39
-0.39
-0.38
-0.37
-0.375
-0.395
-0.4
-0.405
-0.4
-0.385
-0.4
-0.42
-0.42
-0.405
-0.395
-0.39
-0.4
-0.415
-0.425
-0.415
-0.4
-0.4
-0.41
-0.42
-0.435
-0.435
-0.42
-0.4
-0.405
-0.43
-0.42
-0.435
-0.42
-0.41
-0.42
-0.43
-0.44
-0.44
-0.415
-0.4
-0.42
-0.425
-0.425
-0.43
-0.43
-0.42
-0.42
-0.43
-0.44
-0.435
-0.42
-0.4
-0.405
-0.43
-0.44
-0.425
-0.41
-0.405
-0.42
-0.415
-0.435
-0.43
-0.41
-0.39
-0.4
-0.415
-0.42
-0.385
-0.355
-0.345
-0.335
-0.335
-0.32
-0.285
-0.265
-0.245
-0.24
-0.23
-0.18
-0.135
-0.085
-0.07
-0.105
-0.135
-0.16
-0.175
-0.18
-0.18
-0.22
-0.265
-0.305
-0.325
-0.33
-0.345
-0.355
-0.4
-0.425
-0.445
-0.43
-0.43
-0.415
-0.42
-0.44
-0.42
-0.42
-0.41
-0.415
-0.435
-0.465
-0.505
-0.56
-0.66
-0.74
-0.71
-0.51
-0.12
0.425
1.045
1.535
1.84
1.955
1.995
2.0
1.955
1.745
1.3
0.66
0.02
-0.62
-0.68
-0.495
-0.47
-0.515
-0.525
-0.5
-0.48
-0.475
-0.505
-0.54
-0.555
-0.55
-0.54
-0.555
-0.565
-0.565
-0.57
-0.55
-0.545
-0.545
-0.555
-0.56
-0.555
-0.57
-0.545
-0.545
-0.555
-0.555
-0.56
-0.545
-0.53
-0.535
-0.54
-0.545
-0.535
-0.52
-0.51
-0.52
-0.52
-0.525
-0.51
-0.505
-0.485
-0.49
-0.5
-0.51
-0.49
-0.475
-0.47
-0.47
-0.47
-0.475
-0.455
-0.445
-0.435
-0.43
-0.43
-0.425
-0.415
-0.395
-0.38
-0.365
-0.37
-0.355
-0.355
-0.32
-0.305
-0.28
-0.285
-0.285
-0.245
-0.225
-0.185
-0.17
-0.145
-0.125
-0.1
-0.08
-0.02
0.01
0.035
0.05
0.095
0.14
0.185
0.21
0.23
0.26
0.29
0.32
0.35
0.365
0.345
0.345
0.335
0.36
0.36
0.345
0.31
0.29
0.275
0.26
0.24
0.19
0.15
0.105
0.075
0.035
0.025
0.0
-0.055
-0.09
-0.12
-0.135
-0.145
-0.18
-0.22
-0.245
-0.26
-0.27
-0.27
-0.305
-0.335
-0.34
-0.35
-0.355
-0.365
-0.385
-0.405
-0.43
-0.445
-0.445
-0.43
-0.44
-0.46
-0.48
-0.48
-0.475
-0.46
-0.48
-0.5
-0.505
-0.505
-0.495
-0.485
-0.5
-0.52
-0.52
-0.515
-0.51
-0.51
-0.505
-0.515
-0.53
-0.515
-0.505
-0.5
-0.495
-0.505
-0.51
-0.505
-0.5
-0.485
-0.47
-0.485
-0.49
-0.48
-0.47
-0.445
-0.46
-0.46
-0.465
-0.47
-0.445
-0.43
-0.435
-0.445
-0.46
-0.445
-0.435
-0.425
-0.435
-0.435
-0.45
-0.445
-0.445
-0.425
-0.435
-0.44
-0.46
-0.45
-0.445
-0.425
-0.43
-0.45
-0.455
-0.455
-0.455
-0.44
-0.47
-0.48
-0.475
-0.47
-0.47
-0.465
-0.465
-0.485
-0.495
-0.485
-0.465
-0.465
-0.47
-0.495
-0.49
-0.485
-0.485
-0.48
-0.48
-0.5
-0.505
-0.51
-0.48
-0.485
-0.49
-0.495
-0.5
-0.505
-0.5
-0.495
-0.49
-0.5
-0.5
-0.51
-0.495
-0.48
-0.49
-0.485
-0.51
-0.51
-0.5
-0.48
-0.49
-0.5
-0.52
-0.505
-0.49
-0.48
-0.485
-0.5
-0.52
-0.51
-0.5
-0.485
-0.505
-0.5
-0.505
-0.5
-0.49
-0.475
-0.475
-0.49
-0.5
-0.495
-0.485
-0.48
-0.48
-0.49
-0.505
-0.495
-0.48
-0.465
-0.465
-0.48
-0.5
-0.495
-0.48
-0.465
-0.475
-0.485
-0.49
-0.5
-0.48
-0.465
-0.465
-0.485
-0.49
-0.49
-0.475
-0.465
-0.485
-0.495
-0.485
-0.5
-0.465
-0.445
-0.45
-0.445
-0.445
-0.425
-0.405
-0.395
-0.37
-0.355
-0.355
-0.345
-0.32
-0.3
-0.285
-0.255
-0.205
-0.16
-0.13
-0.145
-0.155
-0.205
-0.23
-0.25
-0.23
-0.235
-0.29
-0.32
-0.355
-0.375
-0.37
-0.38
-0.405
-0.43
-0.455
-0.47
-0.47
-0.46
-0.46
-0.46
-0.475
-0.485
-0.48
-0.465
-0.47
-0.49
-0.49
-0.51
-0.56
-0.61
-0.705
-0.805
-0.82
-0.7
-0.445
-0.035
0.5
1.015
1.455
1.795
1.965
2.015
1.98
1.925
1.75
1.4
0.78
0.14
-0.5
-0.765
-0.61
-0.495
-0.49
-0.51
-0.54
-0.535
-0.54
-0.55
-0.56
-0.58
-0.585
-0.615
-0.625
-0.61
-0.615
-0.62
-0.625
-0.64
-0.665
-0.635
-0.62
-0.61
-0.61
-0.625
-0.64
-0.64
-0.615
-0.61
-0.615
-0.625
-0.63
-0.615
-0.605
-0.6
-0.605
-0.625
-0.62
-0.61
-0.595
-0.585
-0.58
-0.595
-0.61
-0.6
-0.58
-0.565
-0.57
-0.57
-0.575
-0.57
-0.555
-0.535
-0.54
-0.545
-0.555
-0.54
-0.53
-0.52
-0.5
-0.51
-0.515
-0.51
-0.485
-0.465
-0.44
-0.445
-0.425
-0.425
-0.39
-0.355
-0.355
-0.355
-0.35
-0.315
-0.285
-0.25
-0.235
-0.225
-0.195
-0.17
-0.145
-0.09
-0.07
-0.04
-0.015
0.01
0.065
0.1
0.12
0.135
0.16
0.185
0.215
0.25
0.255
0.255
0.24
0.265
0.29
0.29
0.275
0.25
0.23
0.205
0.19
0.175
0.14
0.105
0.06
0.035
0.015
0.0
-0.04
-0.09
-0.125
-0.16
-0.175
-0.195
-0.22
-0.27
-0.29
-0.3
-0.31
-0.32
-0.35
-0.38
-0.4
-0.4
-0.41
-0.405
-0.41
-0.445
-0.46
-0.47
-0.475
-0.48
-0.485
-0.505
-0.525
-0.53
-0.52
-0.52
-0.53
-0.55
-0.565
-0.57
-0.555
-0.55
-0.565
-0.58
-0.575
-0.59
-0.58
-0.555
-0.565
-0.585
-0.6
-0.6
-0.58
-0.58
-0.575
-0.58
-0.61
-0.58
-0.565
-0.545
-0.57
-0.57
-0.565
-0.56
-0.55
-0.54
-0.54
-0.55
-0.565
-0.545
-0.53
-0.505
-0.51
-0.515
-0.535
-0.515
-0.5
-0.49
-0.495
-0.51
-0.525
-0.52
-0.505
-0.495
-0.505
-0.51
-0.52
-0.525
-0.515
-0.495
-0.52
-0.5
-0.515
-0.52
-0.51
-0.5
-0.505
-0.525
-0.525
-0.51
-0.51
-0.495
-0.515
-0.525
-0.54
-0.525
-0.515
-0.505
-0.51
-0.525
-0.545
-0.54
-0.535
-0.52
-0.51
-0.525
-0.54
-0.545
-0.525
-0.51
-0.51
-0.535
-0.545
-0.555
-0.54
-0.515
-0.52
-0.535
-0.55
-0.555
-0.55
-0.535
-0.52
-0.545
-0.555
-0.565
-0.535
-0.525
-0.53
-0.555
-0.55
-0.55
-0.535
-0.52
-0.53
-0.545
-0.535
-0.54
-0.53
-0.51
-0.535
-0.545
-0.56
-0.545
-0.525
-0.52
-0.54
-0.535
-0.54
-0.55
-0.555
-0.52
-0.52
-0.535
-0.545
-0.54
-0.52
-0.515
-0.52
-0.525
-0.535
-0.54
-0.52
-0.52
-0.515
-0.535
-0.53
-0.515
-0.5
-0.495
-0.505
-0.52
-0.535
-0.525
-0.51
-0.485
-0.495
-0.51
-0.525
-0.515
-0.495
-0.475
-0.5
-0.515
-0.51
-0.49
-0.5
-0.485
-0.485
-0.5
-0.505
-0.505
-0.505
-0.485
-0.485
-0.485
-0.505
-0.5
-0.5
-0.47
-0.48
-0.48
-0.49
-0.495
-0.47
-0.475
-0.475
-0.485
-0.49
-0.495
-0.47
-0.455
-0.475
-0.465
-0.475
-0.45
-0.435
-0.395
-0.395
-0.4
-0.385
-0.355
-0.33
-0.315
-0.29
-0.265
-0.23
-0.165
-0.12
-0.105
-0.13
-0.16
-0.2
-0.22
-0.225
-0.205
-0.225
-0.25
-0.285
-0.31
-0.32
-0.335
-0.35
-0.375
-0.395
-0.41
-0.42
-0.415
-0.425
-0.44
-0.455
-0.445
-0.415
-0.41
-0.425
-0.435
-0.465
-0.46
-0.44
-0.45
-0.455
-0.52
-0.595
-0.68
-0.735
-0.7
-0.56
-0.285
0.2
0.79
1.33
1.73
1.985
2.085
2.09
2.05
1.96
1.7
1.11
0.47
-0.17
-0.74
-0.64
-0.47
-0.465
-0.535
-0.555
-0.525
-0.5
-0.485
-0.5
-0.525
-0.555
-0.545
-0.54
-0.54
-0.56
-0.57
-0.575
-0.575
-0.56
-0.545
-0.545
-0.565
-0.57
-0.57
-0.565
-0.545
-0.58
-0.585
-0.59
-0.575
-0.555
-0.545
-0.535
-0.545
-0.55
-0.535
-0.53
-0.515
-0.505
-0.505
-0.52
-0.51
-0.495
-0.48
-0.485
-0.495
-0.505
-0.505
-0.49
-0.475
-0.465
-0.46
-0.475
-0.48
-0.445
-0.44
-0.43
-0.44
-0.44
-0.42
-0.39
-0.375
-0.385
-0.385
-0.385
-0.38
-0.345
-0.31
-0.31
-0.3
-0.305
-0.28
-0.255
-0.23
-0.21
-0.205
-0.19
-0.17
-0.14
-0.1
-0.075
-0.055
-0.035
-0.005
0.035
0.08
0.095
0.125
0.14
0.175
0.21
0.255
0.29
0.295
0.3
0.34
0.37
0.39
0.41
0.395
0.395
0.41
0.425
0.42
0.405
0.385
0.37
0.365
0.35
0.345
0.315
0.29
0.255
0.225
0.205
0.205
0.16
0.105
0.045
0.04
0.02
0.005
-0.015
-0.05
-0.085
-0.105
-0.115
-0.125
-0.15
-0.19
-0.21
-0.22
-0.225
-0.225
-0.235
-0.265
-0.3
-0.31
-0.315
-0.3
-0.32
-0.34
-0.375
-0.38
-0.375
-0.365
-0.39
-0.4
-0.41
-0.42
-0.415
-0.4
-0.41
-0.42
-0.43
-0.43
-0.43
-0.405
-0.415
-0.425
-0.435
-0.445
-0.425
-0.4
-0.41
-0.425
-0.435
-0.425
-0.405
-0.385
-0.385
-0.385
-0.4
-0.4
-0.385
-0.39
-0.375
-0.38
-0.385
-0.39
-0.365
-0.345
-0.355
-0.355
-0.36
-0.35
-0.33
-0.33
-0.33
-0.345
-0.35
-0.355
-0.32
-0.335
-0.33
-0.34
-0.34
-0.35
-0.34
-0.325
-0.335
-0.355
-0.375
-0.35
-0.33
-0.325
-0.325
-0.365
-0.355
-0.365
-0.355
-0.35
-0.355
-0.38
-0.39
-0.39
-0.385
-0.36
-0.37
-0.385
-0.39
-0.385
-0.39
-0.36
-0.37
-0.38
-0.395
-0.39
-0.38
-0.375
-0.375
-0.395
-0.395
-0.4
-0.38
-0.375
-0.375
-0.385
-0.415
-0.41
-0.395
-0.375
-0.38
-0.395
-0.41
-0.415
-0.385
-0.375
-0.385
-0.39
-0.4
-0.405
-0.39
-0.39
-0.395
-0.405
-0.405
-0.41
-0.385
-0.375
-0.38
-0.395
-0.41
-0.405
-0.385
-0.365
-0.375
-0.39
-0.395
-0.39
-0.38
-0.37
-0.395
-0.4
-0.4
-0.4
-0.39
-0.38
-0.385
-0.39
-0.395
-0.38
-0.385
-0.36
-0.375
-0.38
-0.395
-0.385
-0.38
-0.36
-0.365
-0.375
-0.375
-0.375
-0.37
-0.35
-0.355
-0.365
-0.375
-0.36
-0.345
-0.34
-0.345
-0.36
-0.36
-0.355
-0.355
-0.355
-0.345
-0.365
-0.35
-0.34
-0.33
-0.31
-0.31
-0.315
-0.325
-0.3
-0.245
-0.23
-0.215
-0.215
-0.205
-0.19
-0.145
-0.085
-0.04
-0.005
-0.04
-0.04
-0.06
-0.085
-0.105
-0.12
-0.135
-0.145
-0.15
-0.165
-0.195
-0.245
-0.27
-0.275
-0.275
-0.285
-0.31
-0.34
-0.365
-0.355
-0.335
-0.32
-0.335
-0.33
-0.355
-0.345
-0.335
-0.33
-0.335
-0.36
-0.42
-0.445
-0.51
-0.585
-0.64
-0.625
-0.455
-0.14
0.34
0.92
1.445
1.825
2.045
2.165
2.19
2.185
2.065
1.815
1.295
0.655
0.015
-0.625
-0.62
-0.455
-0.42
-0.45
-0.455
-0.43
-0.425
-0.44
-0.43
-0.425
-0.435
-0.43
-0.45
-0.455
-0.48
-0.485
-0.47
-0.455
-0.465
-0.47
-0.48
-0.48
-0.465
-0.47
-0.475
-0.48
-0.48
-0.47
-0.46
-0.445
-0.445
-0.455
-0.465
-0.455
-0.45
-0.43
-0.425
-0.44
-0.44
-0.445
-0.425
-0.405
-0.405
-0.42
-0.425
-0.405
-0.405
-0.38
-0.365
-0.38
-0.395
-0.37
-0.36
-0.34
-0.335
-0.345
-0.335
-0.33
-0.315
-0.3
-0.29
-0.29
-0.305
-0.285
-0.245
-0.215
-0.215
-0.235
-0.225
-0.21
-0.17
-0.15
-0.125
-0.13
-0.11
-0.085
-0.045
-0.015
-0.005
0.015
0.035
0.055
0.095
0.14
0.175
0.185
0.205
0.25
0.29
0.33
0.355
0.38
0.395
0.41
0.435
0.455
0.475
0.47
0.45
0.445
0.44
0.445
0.42
0.385
0.345
0.32
0.295
0.27
0.235
0.18
0.145
0.12
0.095
0.075
0.045
-0.01
-0.045
-0.07
-0.085
-0.1
-0.115
-0.165
-0.19
-0.2
-0.215
-0.21
-0.23
-0.25
-0.29
-0.305
-0.305
-0.295
-0.3
-0.34
-0.355
-0.37
-0.37
-0.365
-0.365
-0.395
-0.41
-0.415
-0.405
-0.4
-0.405
-0.42
-0.43
-0.43
-0.425
-0.415
-0.42
-0.43
-0.43
-0.42
-0.405
-0.4
-0.4
-0.405
-0.405
-0.42
-0.385
-0.365
-0.36
-0.38
-0.395
-0.365
-0.36
-0.335
-0.33
-0.335
-0.35
-0.345
-0.335
-0.305
-0.315
-0.32
-0.325
-0.325
-0.325
-0.3
-0.315
-0.315
-0.325
-0.32
-0.31
-0.32
-0.325
-0.335
-0.345
-0.34
-0.35
-0.33
-0.34
-0.35
-0.36
-0.365
-0.35
-0.34
-0.345
-0.35
-0.365
-0.37
-0.375
-0.345
-0.365
-0.37
-0.385
-0.395
-0.385
-0.365
-0.365
-0.38
-0.4
-0.39
-0.385
-0.37
-0.37
-0.395
-0.405
-0.4
-0.395
-0.38
-0.385
-0.41
-0.415
-0.41
-0.395
-0.385
-0.39
-0.395
-0.415
-0.405
-0.385
-0.375
-0.375
-0.395
-0.42
-0.42
-0.405
-0.395
-0.39
-0.405
-0.41
-0.395
-0.395
-0.38
-0.39
-0.395
-0.405
-0.415
-0.395
-0.39
-0.38
-0.405
-0.405
-0.41
-0.385
-0.38
-0.395
-0.4
-0.415
-0.41
-0.385
-0.385
-0.385
-0.4
-0.405
-0.4
-0.395
-0.38
-0.38
-0.395
-0.405
-0.39
-0.39
-0.39
-0.36
-0.375
-0.395
-0.39
-0.375
-0.355
-0.355
-0.365
-0.385
-0.385
-0.375
-0.36
-0.35
-0.37
-0.37
-0.39
-0.37
-0.355
-0.355
-0.37
-0.375
-0.365
-0.355
-0.345
-0.34
-0.36
-0.37
-0.365
-0.34
-0.325
-0.345
-0.325
-0.325
-0.31
-0.295
-0.28
-0.24
-0.225
-0.225
-0.2
-0.18
-0.14
-0.105
-0.07
-0.035
0.0
-0.005
-0.025
-0.055
-0.1
-0.135
-0.12
-0.115
-0.115
-0.145
-0.19
-0.235
-0.245
-0.26
-0.26
-0.285
-0.31
-0.32
-0.335
-0.32
-0.32
-0.335
-0.345
-0.345
-0.345
-0.34
-0.33
-0.345
-0.385
-0.43
-0.51
-0.605
-0.665
-0.635
-0.465
-0.125
0.415
1.035
1.62
2.01
2.17
2.22
2.2
2.15
1.995
1.585
0.945
0.305
-0.335
-0.61
-0.395
-0.315
-0.36
-0.405
-0.405
-0.395
-0.4
-0.415
-0.46
-0.475
-0.49
-0.485
-0.48
-0.495
-0.505
-0.52
-0.5
-0.5
-0.47
-0.475
-0.495
-0.5
-0.505
-0.495
-0.48
-0.47
-0.48
-0.49
-0.49
-0.485
-0.465
-0.465
-0.47
-0.47
-0.465
-0.46
-0.445
-0.44
-0.445
-0.455
-0.435
-0.42
-0.415
-0.42
-0.415
-0.42
-0.425
-0.415
-0.385
-0.375
-0.365
-0.385
-0.37
-0.335
-0.31
-0.31
-0.32
-0.33
-0.32
-0.27
-0.25
-0.24
-0.235
-0.235
-0.21
-0.17
-0.15
-0.125
-0.115
-0.1
-0.06
-0.025
0.015
0.055
0.065
0.09
0.12
0.165
0.21
0.235
0.255
0.29
0.335
0.365
0.415
0.455
0.46
0.465
0.515
0.515
0.54
0.525
0.535
0.52
0.515
0.525
0.515
0.49
0.45
0.42
0.39
0.38
0.355
0.32
0.27
0.22
0.175
0.165
0.145
0.09
0.07
0.035
0.005
-0.015
-0.03
-0.05
-0.07
-0.105
-0.125
-0.135
-0.125
-0.15
-0.175
-0.195
-0.22
-0.21
-0.2
-0.225
-0.25
-0.285
-0.27
-0.275
-0.27
-0.29
-0.3
-0.32
-0.325
-0.33
-0.32
-0.33
-0.355
-0.365
-0.365
-0.35
-0.345
-0.355
-0.355
-0.37
-0.37
-0.355
-0.345
-0.34
-0.355
-0.355
-0.36
-0.34
-0.32
-0.305
-0.32
-0.33
-0.32
-0.31
-0.28
-0.29
-0.305
-0.305
-0.295
-0.28
-0.255
-0.255
-0.27
-0.285
-0.27
-0.255
-0.245
-0.26
-0.26
-0.275
-0.275
-0.26
-0.25
-0.26
-0.27
-0.28
-0.28
-0.275
-0.27
-0.265
-0.3
-0.285
-0.285
-0.285
-0.265
-0.265
-0.29
-0.3
-0.305
-0.295
-0.285
-0.27
-0.295
-0.315
-0.32
-0.295
-0.3
-0.3
-0.31
-0.33
-0.33
-0.335
-0.31
-0.33
-0.32
-0.34
-0.35
-0.32
-0.305
-0.3
-0.325
-0.345
-0.34
-0.32
-0.305
-0.315
-0.33
-0.34
-0.345
-0.335
-0.325
-0.32
-0.33
-0.35
-0.335
-0.335
-0.32
-0.325
-0.35
-0.34
-0.34
-0.335
-0.32
-0.33
-0.34
-0.35
-0.33
-0.325
-0.31
-0.315
-0.345
-0.345
-0.345
-0.345
-0.325
-0.315
-0.33
-0.35
-0.34
-0.325
-0.325
-0.32
-0.335
-0.335
-0.325
-0.325
-0.3
-0.31
-0.315
-0.33
-0.345
-0.34
-0.3
-0.32
-0.33
-0.35
-0.325
-0.29
-0.27
-0.27
-0.265
-0.265
-0.235
-0.21
-0.185
-0.17
-0.165
-0.155
-0.12
-0.06
-0.005
0.005
-0.015
-0.05
-0.08
-0.095
-0.08
-0.1
-0.1
-0.125
-0.16
-0.17
-0.18
-0.215
-0.24
-0.265
-0.27
-0.275
-0.265
-0.29
-0.305
-0.325
-0.325
-0.305
-0.29
-0.3
-0.305
-0.325
-0.33
-0.31
-0.34
-0.39
-0.51
-0.595
-0.635
-0.56
-0.27
0.18
0.735
1.31
1.78
2.085
2.21
2.23
2.205
2.095
1.865
1.365
0.725
0.085
-0.555
-0.605
-0.435
-0.37
-0.395
-0.415
-0.415
-0.415
-0.4
-0.405
-0.43
-0.435
-0.45
-0.48
-0.475
-0.48
-0.47
-0.47
-0.48
-0.485
-0.485
-0.48
-0.485
-0.48
-0.49
-0.485
-0.48
-0.48
-0.46
-0.465
-0.47
-0.48
-0.475
-0.46
-0.45
-0.44
-0.45
-0.46
-0.45
-0.465
-0.435
-0.435
-0.44
-0.445
-0.44
-0.42
-0.4
-0.405
-0.395
-0.405
-0.42
-0.395
-0.385
-0.38
-0.39
-0.395
-0.395
-0.35
-0.34
-0.33
-0.335
-0.335
-0.315
-0.29
-0.25
-0.235
-0.235
-0.245
-0.235
-0.205
-0.175
-0.155
-0.145
-0.13
-0.09
-0.055
-0.01
0.005
0.015
0.025
0.08
0.135
0.165
0.2
0.24
0.265
0.31
0.35
0.39
0.415
0.415
0.41
0.425
0.42
0.445
0.445
0.42
0.41
0.4
0.4
0.39
0.365
0.335
0.265
0.23
0.21
0.19
0.15
0.11
0.075
0.04
0.02
-0.015
-0.05
-0.07
-0.11
-0.125
-0.145
-0.145
-0.165
-0.19
-0.22
-0.245
-0.245
-0.245
-0.26
-0.29
-0.33
-0.32
-0.32
-0.32
-0.335
-0.36
-0.38
-0.375
-0.375
-0.37
-0.365
-0.39
-0.405
-0.425
-0.395
-0.395
-0.4
-0.415
-0.43
-0.425
-0.42
-0.4
-0.41
-0.43
-0.44
-0.435
-0.435
-0.42
-0.425
-0.42
-0.435
-0.43
-0.425
-0.4
-0.405
-0.405
-0.41
-0.405
-0.395
-0.375
-0.38
-0.38
-0.39
-0.395
-0.385
-0.375
-0.37
-0.395
-0.39
-0.395
-0.38
-0.36
-0.365
-0.38
-0.395
-0.4
-0.38
-0.365
-0.38
-0.39
-0.405
-0.4
-0.38
-0.355
-0.375
-0.405
-0.405
-0.395
-0.39
-0.385
-0.395
-0.395
-0.42
-0.415
-0.425
-0.39
-0.395
-0.41
-0.43
-0.415
-0.415
-0.4
-0.405
-0.41
-0.44
-0.42
-0.41
-0.405
-0.415
-0.425
-0.45
-0.43
-0.425
-0.415
-0.42
-0.415
-0.44
-0.435
-0.435
-0.415
-0.43
-0.44
-0.45
-0.44
-0.43
-0.42
-0.435
-0.43
-0.455
-0.455
-0.44
-0.415
-0.425
-0.425
-0.445
-0.45
-0.43
-0.42
-0.425
-0.42
-0.44
-0.435
-0.44
-0.425
-0.415
-0.44
-0.45
-0.435
-0.41
-0.415
-0.42
-0.44
-0.445
-0.44
-0.425
-0.41
-0.415
-0.43
-0.435
-0.435
-0.425
-0.395
-0.41
-0.415
-0.425
-0.415
-0.405
-0.395
-0.395
-0.4
-0.42
-0.42
-0.41
-0.39
-0.385
-0.405
-0.41
-0.405
-0.39
-0.375
-0.375
-0.39
-0.395
-0.39
-0.365
-0.355
-0.35
-0.345
-0.345
-0.335
-0.3
-0.265
-0.245
-0.24
-0.235
-0.22
-0.18
-0.125
-0.08
-0.045
-0.05
-0.08
-0.105
-0.13
-0.16
-0.17
-0.185
-0.195
-0.19
-0.21
-0.25
-0.285
-0.315
-0.325
-0.33
-0.32
-0.35
-0.38
-0.385
-0.385
-0.37
-0.355
-0.37
-0.375
-0.39
-0.39
-0.39
-0.375
-0.39
-0.42
-0.48
-0.54
-0.6
-0.665
-0.66
-0.52
-0.18
0.35
0.96
1.515
1.91
2.105
2.14
2.125
2.075
1.91
1.475
0.835
0.195
-0.445
-0.59
-0.415
-0.355
-0.405
-0.455
-0.445
-0.415
-0.415
-0.44
-0.46
-0.49
-0.495
-0.49
-0.48
-0.49
-0.495
-0.515
-0.515
-0.5
-0.49
-0.495
-0.515
-0.53
-0.515
-0.505
-0.485
-0.48
-0.505
-0.51
-0.495
-0.48
-0.465
-0.47
-0.485
-0.485
-0.485
-0.455
-0.445
-0.44
-0.455
-0.465
-0.46
-0.445
-0.43
-0.425
-0.435
-0.435
-0.44
-0.415
-0.39
-0.385
-0.395
-0.4
-0.4
-0.36
-0.345
-0.34
-0.34
-0.345
-0.34
-0.31
-0.285
-0.27
-0.285
-0.275
-0.26
-0.245
-0.2
-0.185
-0.17
-0.16
-0.14
-0.11
-0.085
-0.06
-0.03
-0.02
-0.005
0.05
0.095
0.125
0.145
0.165
0.195
0.245
0.285
0.305
0.33
0.35
0.37
0.41
0.435
0.44
0.44
0.425
0.44
0.45
0.435
0.425
0.4
0.37
0.345
0.33
0.32
0.285
0.25
0.19
0.16
0.14
0.12
0.095
0.045
0.0
-0.03
