Lead II
-0.34
-0.34
-0.35
-0.36
-0.365
-0.37
-0.37
-0.365
-0.36
-0.365
-0.355
-0.36
-0.35
-0.355
-0.365
-0.37
-0.385
-0.385
-0.385
-0.385
-0.375
-0.37
-0.365
-0.365
-0.36
-0.365
-0.375
-0.38
-0.375
-0.385
-0.385
-0.395
-0.38
-0.375
-0.38
-0.375
-0.375
-0.38
-0.395
-0.38
-0.4
-0.4
-0.395
-0.405
-0.4
-0.385
-0.39
-0.38
-0.385
-0.385
-0.385
-0.395
-0.395
-0.395
-0.39
-0.385
-0.36
-0.355
-0.34
-0.33
-0.33
-0.33
-0.33
-0.345
-0.345
-0.33
-0.315
-0.295
-0.29
-0.3
-0.305
-0.335
-0.345
-0.355
-0.36
-0.355
-0.36
-0.375
-0.39
-0.38
-0.385
-0.385
-0.385
-0.385
-0.395
-0.39
-0.405
-0.415
-0.42
-0.42
-0.42
-0.415
-0.41
-0.41
-0.41
-0.4
-0.4
-0.395
-0.41
-0.415
-0.42
-0.42
-0.41
-0.41
-0.415
-0.43
-0.45
-0.45
-0.42
-0.35
-0.245
-0.11
0.07
0.285
0.525
0.73
0.86
0.83
0.635
0.32
-0.015
-0.305
-0.485
-0.54
-0.5
-0.425
-0.36
-0.325
-0.3
-0.305
-0.305
-0.315
-0.34
-0.35
-0.365
-0.37
-0.38
-0.385
-0.385
-0.39
-0.385
-0.375
-0.365
-0.375
-0.37
-0.37
-0.375
-0.375
-0.39
-0.385
-0.39
-0.385
-0.37
-0.37
-0.37
-0.365
-0.365
-0.365
-0.375
-0.375
-0.375
-0.375
-0.375
-0.37
-0.37
-0.36
-0.34
-0.345
-0.335
-0.33
-0.335
-0.35
-0.355
-0.36
-0.36
-0.355
-0.355
-0.345
-0.335
-0.335
-0.34
-0.33
-0.335
-0.335
-0.35
-0.34
-0.34
-0.34
-0.33
-0.325
-0.325
-0.31
-0.31
-0.31
-0.32
-0.325
-0.33
-0.33
-0.325
-0.325
-0.32
-0.31
-0.3
-0.29
-0.29
-0.29
-0.295
-0.295
-0.3
-0.295
-0.295
-0.29
-0.275
-0.265
-0.25
-0.24
-0.24
-0.23
-0.235
-0.235
-0.23
-0.25
-0.24
-0.25
-0.25
-0.245
-0.24
-0.25
-0.25
-0.26
-0.26
-0.28
-0.29
-0.31
-0.32
-0.33
-0.325
-0.33
-0.33
-0.33
-0.335
-0.34
-0.345
-0.355
-0.36
-0.365
-0.37
-0.365
-0.365
-0.36
-0.36
-0.36
-0.355
-0.355
-0.355
-0.375
-0.38
-0.38
-0.39
-0.39
-0.385
-0.38
-0.37
-0.375
-0.37
-0.37
-0.395
-0.395
-0.4
-0.4
-0.39
-0.4
-0.4
-0.39
-0.385
-0.38
-0.38
-0.39
-0.395
-0.405
-0.41
-0.415
-0.41
-0.415
-0.41
-0.4
-0.41
-0.405
-0.405
-0.41
-0.4
-0.41
-0.41
-0.41
-0.42
-0.415
-0.405
-0.41
-0.4
-0.395
-0.395
-0.4
-0.4
-0.415
-0.415
-0.415
-0.42
-0.41
-0.41
-0.405
-0.4
-0.395
-0.395
-0.385
-0.385
-0.39
-0.385
-0.375
-0.365
-0.37
-0.36
-0.345
-0.34
-0.345
-0.335
-0.335
-0.32
-0.32
-0.315
-0.315
-0.32
-0.34
-0.34
-0.35
-0.34
-0.345
-0.345
-0.35
-0.345
-0.36
-0.37
-0.37
-0.39
-0.375
-0.385
-0.385
-0.385
-0.395
-0.4
-0.415
-0.42
-0.42
-0.425
-0.43
-0.43
-0.42
-0.42
-0.415
-0.42
-0.415
-0.405
-0.4
-0.405
-0.405
-0.42
-0.435
-0.445
-0.47
-0.495
-0.48
-0.46
-0.4
-0.305
-0.17
-0.005
0.17
0.385
0.595
0.775
0.865
0.82
0.61
0.315
-0.02
-0.31
-0.49
-0.55
-0.52
-0.455
-0.385
-0.345
-0.325
-0.325
-0.33
-0.33
-0.34
-0.365
-0.365
-0.375
-0.385
-0.39
-0.4
-0.4
-0.405
-0.4
-0.4
-0.395
-0.39
-0.39
-0.375
-0.385
-0.385
-0.385
-0.395
-0.39
-0.39
-0.39
-0.38
-0.365
-0.365
-0.365
-0.36
-0.37
-0.37
-0.375
-0.38
-0.375
-0.365
-0.375
-0.37
-0.355
-0.35
-0.355
-0.35
-0.35
-0.355
-0.355
-0.36
-0.36
-0.37
-0.355
-0.35
-0.34
-0.335
-0.335
-0.33
-0.34
-0.34
-0.35
-0.34
-0.35
-0.35
-0.345
-0.335
-0.33
-0.33
-0.335
-0.34
-0.33
-0.34
-0.345
-0.35
-0.345
-0.33
-0.33
-0.32
-0.31
-0.31
-0.3
-0.305
-0.305
-0.31
-0.31
-0.31
-0.31
-0.3
-0.295
-0.28
-0.27
-0.255
-0.25
-0.245
-0.25
-0.255
-0.26
-0.27
-0.26
-0.26
-0.255
-0.255
-0.255
-0.255
-0.255
-0.275
-0.28
-0.29
-0.305
-0.32
-0.32
-0.33
-0.33
-0.32
-0.325
-0.33
-0.33
-0.335
-0.34
-0.345
-0.36
-0.37
-0.375
-0.37
-0.355
-0.36
-0.35
-0.36
-0.36
-0.36
-0.365
-0.365
-0.37
-0.385
-0.38
-0.385
-0.375
-0.37
-0.36
-0.37
-0.355
-0.37
-0.37
-0.37
-0.385
-0.385
-0.39
-0.39
-0.385
-0.38
-0.37
-0.37
-0.375
-0.37
-0.38
-0.385
-0.395
-0.39
-0.395
-0.39
-0.39
-0.38
-0.375
-0.375
-0.375
-0.37
-0.37
-0.38
-0.39
-0.385
-0.4
-0.395
-0.395
-0.385
-0.385
-0.38
-0.37
-0.375
-0.375
-0.385
-0.39
-0.385
-0.4
-0.395
-0.39
-0.38
-0.375
-0.37
-0.375
-0.38
-0.375
-0.38
-0.38
-0.39
-0.38
-0.375
-0.37
-0.355
-0.33
-0.32
-0.31
-0.315
-0.32
-0.325
-0.33
-0.32
-0.325
-0.32
-0.29
-0.295
-0.29
-0.285
-0.295
-0.315
-0.335
-0.345
-0.34
-0.335
-0.35
-0.345
-0.34
-0.34
-0.34
-0.335
-0.345
-0.345
-0.37
-0.38
-0.395
-0.395
-0.4
-0.405
-0.4
-0.385
-0.38
-0.38
-0.37
-0.365
-0.385
-0.38
-0.39
-0.385
-0.39
-0.39
-0.385
-0.38
-0.385
-0.4
-0.425
-0.435
-0.405
-0.34
-0.24
-0.11
0.06
0.29
0.51
0.72
0.87
0.885
0.725
0.45
0.1
-0.205
-0.43
-0.52
-0.5
-0.425
-0.34
-0.265
-0.24
-0.245
-0.25
-0.255
-0.285
-0.305
-0.325
-0.33
-0.345
-0.335
-0.33
-0.325
-0.33
-0.325
-0.325
-0.33
-0.325
-0.34
-0.34
-0.345
-0.345
-0.345
-0.335
-0.335
-0.325
-0.32
-0.315
-0.315
-0.32
-0.32
-0.335
-0.33
-0.34
-0.335
-0.33
-0.31
-0.315
-0.315
-0.315
-0.31
-0.315
-0.32
-0.32
-0.32
-0.32
-0.315
-0.315
-0.315
-0.295
-0.285
-0.285
-0.28
-0.285
-0.28
-0.29
-0.28
-0.275
-0.285
-0.285
-0.275
-0.28
-0.26
-0.265
-0.275
-0.275
-0.285
-0.28
-0.285
-0.285
-0.28
-0.27
-0.265
-0.245
-0.245
-0.25
-0.245
-0.245
-0.25
-0.255
-0.255
-0.26
-0.255
-0.255
-0.24
-0.23
-0.225
-0.22
-0.21
-0.21
-0.205
-0.215
-0.21
-0.205
-0.19
-0.185
-0.175
-0.155
-0.155
-0.155
-0.155
-0.165
-0.175
-0.18
-0.18
-0.185
-0.185
-0.19
-0.2
-0.2
-0.195
-0.215
-0.21
-0.215
-0.245
-0.255
-0.255
-0.265
-0.28
-0.265
-0.265
-0.255
-0.26
-0.26
-0.255
-0.28
-0.29
-0.3
-0.305
-0.305
-0.305
-0.29
-0.29
-0.285
-0.28
-0.285
-0.295
-0.29
-0.3
-0.315
-0.31
-0.315
-0.31
-0.315
-0.315
-0.305
-0.305
-0.305
-0.305
-0.315
-0.315
-0.335
-0.34
-0.345
-0.34
-0.33
-0.33
-0.325
-0.315
-0.32
-0.32
-0.32
-0.335
-0.335
-0.34
-0.345
-0.345
-0.34
-0.345
-0.325
-0.32
-0.32
-0.33
-0.32
-0.335
-0.34
-0.345
-0.345
-0.345
-0.345
-0.34
-0.325
-0.33
-0.325
-0.325
-0.33
-0.335
-0.335
-0.32
-0.315
-0.305
-0.295
-0.29
-0.275
-0.265
-0.265
-0.265
-0.265
-0.255
-0.245
-0.235
-0.235
-0.25
-0.25
-0.26
-0.265
-0.275
-0.275
-0.27
-0.28
-0.29
-0.295
-0.31
-0.315
-0.315
-0.315
-0.315
-0.32
-0.325
-0.32
-0.335
-0.35
-0.355
-0.36
-0.355
-0.355
-0.355
-0.35
-0.355
-0.34
-0.33
-0.325
-0.33
-0.33
-0.325
-0.34
-0.34
-0.34
-0.355
-0.365
-0.38
-0.39
-0.36
-0.3
-0.205
-0.07
0.09
0.285
0.505
0.715
0.865
0.905
0.78
0.51
0.19
-0.125
-0.35
-0.45
-0.45
-0.38
-0.295
-0.25
-0.225
-0.21
-0.215
-0.235
-0.25
-0.265
-0.275
-0.29
-0.3
-0.295
-0.295
-0.305
-0.3
-0.295
-0.285
-0.28
-0.28
-0.28
-0.28
-0.28
-0.295
-0.295
-0.295
-0.285
-0.3
-0.295
-0.28
-0.275
-0.265
-0.265
-0.265
-0.265
-0.28
-0.285
-0.29
-0.285
-0.285
-0.28
-0.27
-0.26
-0.255
-0.255
-0.245
-0.25
-0.255
-0.255
-0.26
-0.265
-0.255
-0.24
-0.235
-0.23
-0.225
-0.225
-0.225
-0.23
-0.23
-0.24
-0.24
-0.245
-0.25
-0.24
-0.23
-0.23
-0.215
-0.22
-0.215
-0.22
-0.22
-0.225
-0.22
-0.22
-0.23
-0.225
-0.215
-0.2
-0.19
-0.185
-0.195
-0.195
-0.205
-0.2
-0.2
-0.215
-0.205
-0.195
-0.19
-0.185
-0.17
-0.155
-0.15
-0.145
-0.14
-0.145
-0.15
-0.155
-0.145
-0.14
-0.135
-0.13
-0.115
-0.12
-0.125
-0.125
-0.135
-0.145
-0.16
-0.175
-0.185
-0.19
-0.195
-0.195
-0.185
-0.19
-0.19
-0.195
-0.205
-0.215
-0.235
-0.235
-0.235
-0.24
-0.235
-0.23
-0.225
-0.22
-0.22
-0.23
-0.245
-0.245
-0.25
-0.26
-0.255
-0.25
-0.245
-0.245
-0.235
-0.235
-0.24
-0.24
-0.255
-0.265
-0.265
-0.265
-0.27
-0.275
-0.265
-0.255
-0.255
-0.255
-0.245
-0.255
-0.265
-0.265
-0.28
-0.285
-0.29
-0.285
-0.28
-0.275
-0.275
-0.27
-0.27
-0.275
-0.28
-0.29
-0.295
-0.3
-0.3
-0.29
-0.285
-0.275
-0.27
-0.27
-0.275
-0.285
-0.295
-0.3
-0.295
-0.305
-0.305
-0.3
-0.29
-0.295
-0.28
-0.285
-0.285
-0.285
-0.29
-0.285
-0.29
-0.29
-0.285
-0.27
-0.25
-0.25
-0.235
-0.23
-0.225
-0.225
-0.23
-0.225
-0.215
-0.2
-0.2
-0.195
-0.195
-0.21
-0.22
-0.23
-0.23
-0.23
-0.25
-0.255
-0.265
-0.265
-0.275
-0.275
-0.265
-0.27
-0.275
-0.28
-0.29
-0.305
-0.305
-0.31
-0.325
-0.325
-0.32
-0.315
-0.31
-0.3
-0.31
-0.3
-0.29
-0.295
-0.305
-0.305
-0.32
-0.335
-0.36
-0.36
-0.355
-0.33
-0.265
-0.155
-0.02
0.165
0.36
0.57
0.765
0.905
0.915
0.775
0.505
0.185
-0.1
-0.325
-0.41
-0.4
-0.33
-0.255
-0.205
-0.185
-0.19
-0.195
-0.215
-0.235
-0.235
-0.245
-0.26
-0.255
-0.26
-0.265
-0.265
-0.28
-0.285
-0.285
-0.275
-0.265
-0.255
-0.26
-0.255
-0.255
-0.26
-0.265
-0.275
-0.27
-0.27
-0.265
-0.255
-0.245
-0.23
-0.24
-0.24
-0.24
-0.245
-0.245
-0.25
-0.25
-0.25
-0.245
-0.24
-0.235
-0.22
-0.215
-0.21
-0.225
-0.24
-0.235
-0.25
-0.25
-0.245
-0.235
-0.22
-0.215
-0.205
-0.21
-0.195
-0.195
-0.205
-0.21
-0.205
-0.22
-0.22
-0.215
-0.2
-0.2
-0.185
-0.185
-0.175
-0.18
-0.185
-0.19
-0.2
-0.2
-0.205
-0.21
-0.185
-0.18
-0.17
-0.18
-0.16
-0.175
-0.18
-0.18
-0.18
-0.17
-0.165
-0.145
-0.15
-0.13
-0.125
-0.12
-0.1
-0.1
-0.11
-0.125
-0.13
-0.125
-0.145
-0.135
-0.135
-0.14
-0.135
-0.14
-0.14
-0.15
-0.17
-0.175
-0.185
-0.2
-0.2
-0.205
-0.21
-0.2
-0.2
-0.215
-0.215
-0.225
-0.23
-0.25
-0.235
-0.24
-0.235
-0.24
-0.235
-0.23
-0.23
-0.22
-0.23
-0.24
-0.24
-0.25
-0.25
-0.255
-0.265
-0.26
-0.255
-0.24
-0.24
-0.245
-0.25
-0.235
-0.255
-0.265
-0.275
-0.275
-0.28
-0.275
-0.275
-0.27
-0.255
-0.255
-0.255
-0.26
-0.26
-0.27
-0.27
-0.275
-0.28
-0.28
-0.275
-0.275
-0.265
-0.26
-0.265
-0.27
-0.27
-0.28
-0.285
-0.28
-0.28
-0.28
-0.28
-0.275
-0.265
-0.26
-0.255
-0.265
-0.265
-0.28
-0.285
-0.295
-0.3
-0.295
-0.285
-0.275
-0.255
-0.245
-0.235
-0.225
-0.235
-0.23
-0.24
-0.235
-0.25
-0.235
-0.23
-0.2
-0.185
-0.175
-0.165
-0.18
-0.2
-0.22
-0.235
-0.245
-0.24
-0.24
-0.235
-0.23
-0.235
-0.235
-0.235
-0.25
-0.265
-0.27
-0.285
-0.29
-0.3
-0.3
-0.305
-0.295
-0.285
-0.285
-0.285
-0.29
-0.28
-0.3
-0.31
-0.315
-0.31
-0.31
-0.3
-0.295
-0.285
-0.285
-0.285
-0.31
-0.33
-0.36
-0.385
-0.36
-0.31
-0.225
-0.105
0.05
0.23
0.445
0.66
0.845
0.965
0.97
0.81
0.535
0.205
-0.085
-0.31
-0.405
-0.4
-0.335
-0.245
-0.2
-0.185
-0.185
-0.2
-0.22
-0.225
-0.24
-0.255
-0.255
-0.245
-0.25
-0.245
-0.255
-0.265
-0.275
-0.27
-0.27
-0.27
-0.27
-0.265
-0.265
-0.26
-0.265
-0.26
-0.27
-0.255
-0.28
-0.275
-0.275
-0.285
-0.275
-0.27
-0.26
-0.25
-0.245
-0.245
-0.24
-0.255
-0.245
-0.25
-0.25
-0.255
-0.255
-0.25
-0.24
-0.235
-0.235
-0.24
-0.245
-0.24
-0.25
-0.245
-0.245
-0.245
-0.235
-0.225
-0.215
-0.215
-0.205
-0.21
-0.225
-0.235
-0.23
-0.24
-0.24
-0.235
-0.235
-0.23
-0.215
-0.21
-0.2
-0.2
-0.2
-0.2
-0.2
-0.205
-0.215
-0.21
-0.21
-0.2
-0.195
-0.18
-0.18
-0.18
-0.18
-0.19
-0.18
-0.185
-0.19
-0.185
-0.17
-0.155
-0.135
-0.13
-0.125
-0.115
-0.115
-0.13
-0.13
-0.14
-0.14
-0.145
-0.135
-0.135
-0.14
-0.145
-0.13
-0.145
-0.155
-0.165
-0.185
-0.205
-0.215
-0.225
-0.215
-0.215
-0.225
-0.215
-0.215
-0.215
-0.225
-0.24
-0.245
-0.265
-0.265
-0.265
-0.255
-0.255
-0.245
-0.245
-0.245
-0.24
-0.25
-0.255
-0.275
-0.275
-0.28
-0.28
-0.275
-0.265
-0.265
-0.255
-0.255
-0.245
-0.255
-0.275
-0.275
-0.29
-0.295
-0.305
-0.29
-0.28
-0.275
-0.275
-0.275
-0.27
-0.27
-0.285
-0.285
-0.295
-0.285
-0.295
-0.3
-0.295
-0.285
-0.275
-0.27
-0.28
-0.275
-0.28
-0.29
-0.295
-0.305
-0.315
-0.3
-0.29
-0.28
-0.265
-0.27
-0.27
-0.27
-0.275
-0.29
-0.295
-0.295
-0.3
-0.295
-0.29
-0.285
-0.28
-0.275
-0.27
-0.27
-0.275
-0.27
-0.27
-0.255
-0.255
-0.25
-0.23
-0.23
-0.225
-0.235
-0.225
-0.2
-0.19
-0.195
-0.195
-0.2
-0.215
-0.225
-0.24
-0.245
-0.24
-0.235
-0.235
-0.225
-0.245
-0.245
-0.255
-0.26
-0.28
-0.275
-0.28
-0.29
-0.29
-0.295
-0.285
-0.295
-0.3
-0.31
-0.32
-0.325
-0.33
-0.315
-0.31
-0.305
-0.29
-0.295
-0.295
-0.295
-0.305
-0.305
-0.31
-0.32
-0.34
-0.355
-0.375
-0.355
-0.3
-0.195
-0.06
0.105
0.3
0.515
0.71
0.87
0.945
0.87
0.66
0.365
0.04
-0.22
-0.38
-0.435
-0.395
-0.32
-0.255
-0.225
-0.21
-0.21
-0.215
-0.215
-0.22
-0.235
-0.25
-0.26
-0.26
-0.255
-0.265
-0.28
-0.275
-0.285
-0.28
-0.27
-0.265
-0.26
-0.255
-0.25
-0.25
-0.255
-0.26
-0.27
-0.275
-0.27
-0.265
-0.245
-0.25
-0.245
-0.24
-0.255
-0.245
-0.255
-0.25
-0.26
-0.26
-0.25
-0.255
-0.25
-0.235
-0.23
-0.23
-0.225
-0.235
-0.23
-0.24
-0.23
-0.235
-0.225
-0.215
-0.215
-0.215
-0.215
-0.195
-0.2
-0.2
-0.21
-0.22
-0.215
-0.205
-0.2
-0.2
-0.195
-0.195
-0.19
-0.18
-0.185
-0.195
-0.2
-0.2
-0.205
-0.195
-0.195
-0.19
-0.18
-0.17
-0.18
-0.17
-0.165
-0.17
-0.175
-0.175
-0.18
-0.17
-0.165
-0.15
-0.14
-0.13
-0.11
-0.105
-0.115
-0.125
-0.115
-0.12
-0.115
-0.115
-0.125
-0.125
-0.12
-0.12
-0.125
-0.13
-0.145
-0.155
-0.17
-0.185
-0.19
-0.2
-0.2
-0.2
-0.2
-0.2
-0.2
-0.205
-0.21
-0.225
-0.225
-0.23
-0.245
-0.245
-0.235
-0.24
-0.23
-0.22
-0.225
-0.225
-0.22
-0.225
-0.23
-0.24
-0.24
-0.245
-0.245
-0.235
-0.235
-0.23
-0.225
-0.22
-0.225
-0.23
-0.25
-0.25
-0.255
-0.255
-0.255
-0.255
-0.245
-0.24
-0.235
-0.235
-0.235
-0.245
-0.25
-0.26
-0.255
-0.265
-0.265
-0.26
-0.255
-0.255
-0.25
-0.255
-0.245
-0.25
-0.26
-0.265
-0.265
-0.27
-0.27
-0.255
-0.26
-0.245
-0.245
-0.245
-0.245
-0.255
-0.255
-0.26
-0.265
-0.27
-0.26
-0.26
-0.255
-0.245
-0.23
-0.22
-0.205
-0.21
-0.2
-0.215
-0.215
-0.2
-0.215
-0.2
-0.175
-0.155
-0.14
-0.135
-0.13
-0.155
-0.165
-0.19
-0.2
-0.2
-0.21
-0.195
-0.195
-0.19
-0.195
-0.205
-0.205
-0.22
-0.22
-0.24
-0.25
-0.265
-0.27
-0.27
-0.28
-0.265
-0.26
-0.26
-0.26
-0.27
-0.275
-0.27
-0.27
-0.275
-0.27
-0.265
-0.26
-0.265
-0.25
-0.25
-0.27
-0.3
-0.325
-0.33
-0.3
-0.225
-0.115
0.03
0.225
0.44
0.655
0.845
0.97
0.97
0.81
0.52
0.195
-0.095
-0.32
-0.4
-0.38
-0.305
-0.22
-0.165
-0.135
-0.145
-0.155
-0.175
-0.19
-0.205
-0.215
-0.22
-0.215
-0.22
-0.2
-0.205
-0.215
-0.22
-0.225
-0.23
-0.24
-0.235
-0.225
-0.23
-0.225
-0.215
-0.205
-0.205
-0.21
-0.205
-0.215
-0.22
-0.225
-0.23
-0.22
-0.225
-0.225
-0.22
-0.21
-0.205
-0.2
-0.21
-0.2
-0.225
-0.23
-0.22
-0.22
-0.21
-0.205
-0.18
-0.185
-0.19
-0.185
-0.18
-0.19
-0.195
-0.2
-0.2
-0.2
-0.19
-0.185
-0.175
-0.165
-0.165
-0.165
-0.165
-0.17
-0.18
-0.18
-0.18
-0.185
-0.18
-0.175
-0.16
-0.155
-0.15
-0.15
-0.155
-0.16
-0.17
-0.16
-0.165
-0.16
-0.16
-0.155
-0.14
-0.14
-0.135
-0.13
-0.125
-0.135
-0.13
-0.13
-0.125
-0.115
-0.1
-0.09
-0.08
-0.07
-0.065
-0.07
-0.065
-0.085
-0.09
-0.095
-0.095
-0.095
-0.1
-0.095
-0.09
-0.1
-0.105
-0.11
-0.125
-0.135
-0.15
-0.155
-0.165
-0.165
-0.17
-0.17
-0.165
-0.165
-0.165
-0.17
-0.17
-0.18
-0.205
-0.195
-0.195
-0.19
-0.19
-0.185
-0.185
-0.185
-0.185
-0.185
-0.19
-0.19
-0.205
-0.205
-0.215
-0.21
-0.215
-0.205
-0.205
-0.2
-0.195
-0.19
-0.205
-0.215
-0.215
-0.22
-0.225
-0.225
-0.21
-0.2
-0.205
-0.195
-0.2
-0.195
-0.205
-0.21
-0.22
-0.22
-0.225
-0.23
-0.225
-0.21
-0.21
-0.205
-0.21
-0.215
-0.22
-0.235
-0.22
-0.225
-0.23
-0.225
-0.225
-0.22
-0.21
-0.21
-0.2
-0.2
-0.215
-0.21
-0.22
-0.205
-0.2
-0.195
-0.18
-0.17
-0.155
-0.155
-0.15
-0.15
-0.14
-0.135
-0.12
-0.125
-0.14
-0.155
-0.16
-0.175
-0.175
-0.165
-0.17
-0.175
-0.18
-0.195
-0.205
-0.23
-0.235
-0.23
-0.235
-0.25
-0.245
-0.245
-0.235
-0.23
-0.23
-0.25
-0.255
-0.255
-0.255
-0.255
-0.245
-0.245
-0.23
-0.22
-0.225
-0.23
-0.23
-0.25
-0.28
-0.3
-0.315
-0.285
-0.22
-0.11
0.025
0.205
0.415
0.63
0.83
0.965
0.97
0.825
0.525
0.175
-0.15
-0.335
-0.395
-0.33
-0.245
-0.16
-0.115
-0.1
-0.12
-0.14
-0.17
-0.195
-0.2
-0.215
-0.205
-0.19
-0.19
-0.175
-0.18
-0.195
-0.215
-0.205
-0.215
-0.215
-0.21
-0.2
-0.195
-0.185
-0.19
-0.195
-0.2
-0.2
-0.2
-0.21
-0.215
-0.21
-0.205
-0.185
-0.185
-0.18
-0.18
-0.185
-0.17
-0.17
-0.175
-0.18
-0.175
-0.18
-0.17
-0.16
-0.16
-0.15
-0.15
-0.145
-0.15
-0.165
-0.16
-0.16
-0.165
-0.16
-0.155
-0.15
-0.14
-0.135
-0.135
-0.14
-0.135
-0.145
-0.145
-0.15
-0.15
-0.15
-0.15
-0.135
-0.13
-0.12
-0.125
-0.12
-0.13
-0.135
-0.14
-0.14
-0.145
-0.145
-0.135
-0.13
-0.11
-0.105
-0.105
-0.11
-0.105
-0.115
-0.115
-0.105
-0.11
-0.095
-0.075
-0.065
-0.06
-0.045
-0.04
-0.045
-0.04
-0.04
-0.055
-0.06
-0.065
-0.07
-0.07
-0.075
-0.06
-0.075
-0.07
-0.08
-0.09
-0.105
-0.115
-0.125
-0.14
-0.145
-0.135
-0.14
-0.135
-0.145
-0.15
-0.145
-0.15
-0.155
-0.17
-0.175
-0.18
-0.175
-0.175
-0.17
-0.165
-0.16
-0.165
-0.165
-0.165
-0.17
-0.185
-0.195
-0.2
-0.2
-0.19
-0.205
-0.195
-0.19
-0.185
-0.18
-0.185
-0.2
-0.2
-0.205
-0.21
-0.21
-0.215
-0.21
-0.21
-0.21
-0.21
-0.2
-0.215
-0.21
-0.23
-0.22
-0.22
-0.225
-0.235
-0.23
-0.22
-0.215
-0.215
-0.215
-0.215
-0.225
-0.23
-0.235
-0.245
-0.235
-0.225
-0.22
-0.23
-0.225
-0.215
-0.22
-0.225
-0.23
-0.24
-0.235
-0.24
-0.24
-0.23
-0.225
-0.205
-0.19
-0.185
-0.165
-0.17
-0.175
-0.18
-0.17
-0.18
-0.18
-0.15
-0.13
-0.125
-0.11
-0.125
-0.135
-0.16
-0.18
-0.19
-0.19
-0.195
-0.2
-0.205
-0.2
-0.2
-0.205
-0.205
-0.2
-0.22
-0.235
-0.25
-0.265
-0.275
-0.265
-0.26
-0.25
-0.25
-0.235
-0.24
-0.24
-0.245
-0.245
-0.25
-0.25
-0.26
-0.265
-0.26
-0.26
-0.265
-0.29
-0.305
-0.29
-0.235
-0.15
-0.03
0.135
0.33
0.55
0.775
0.945
0.985
0.875
0.615
0.275
-0.05
-0.29
-0.39
-0.39
-0.315
-0.24
-0.175
-0.15
-0.145
-0.16
-0.17
-0.185
-0.21
-0.225
-0.24
-0.24
-0.24
-0.245
-0.245
-0.235
-0.225
-0.225
-0.23
-0.23
-0.235
-0.245
-0.26
-0.26
-0.265
-0.265
-0.255
-0.245
-0.235
-0.23
-0.225
-0.22
-0.21
-0.23
-0.225
-0.22
-0.24
-0.23
-0.22
-0.22
-0.21
-0.205
-0.195
-0.185
-0.2
-0.2
-0.21
-0.21
-0.21
-0.215
-0.205
-0.195
-0.185
-0.18
-0.185
-0.185
-0.18
-0.19
-0.195
-0.195
-0.195
-0.2
-0.19
-0.19
-0.175
-0.175
-0.175
-0.155
-0.16
-0.165
-0.175
-0.17
-0.17
-0.175
-0.165
-0.165
-0.165
-0.155
-0.15
-0.15
-0.145
-0.16
-0.17
-0.165
-0.165
-0.17
-0.155
-0.145
-0.135
-0.125
-0.115
-0.105
-0.105
-0.095
-0.1
-0.095
-0.095
-0.09
-0.085
-0.09
-0.075
-0.075
-0.07
-0.08
-0.08
-0.095
-0.11
-0.12
-0.13
-0.145
-0.145
-0.145
-0.15
-0.15
-0.15
-0.165
-0.17
-0.175
-0.19
-0.195
-0.2
-0.205
-0.205
-0.205
-0.2
-0.195
-0.19
-0.19
-0.2
-0.21
-0.215
-0.215
-0.22
-0.23
-0.225
-0.22
-0.215
-0.21
-0.21
-0.21
-0.215
-0.225
-0.225
-0.235
-0.235
-0.24
-0.245
-0.235
-0.23
-0.235
-0.225
-0.22
-0.245
-0.25
-0.25
-0.26
-0.27
-0.275
-0.255
-0.25
-0.25
-0.245
-0.245
-0.24
-0.245
-0.245
-0.26
-0.255
-0.265
-0.27
-0.26
-0.255
-0.245
-0.25
-0.25
-0.245
-0.255
-0.27
-0.265
-0.27
-0.27
-0.28
-0.27
-0.265
-0.265
-0.26
-0.26
-0.26
-0.265
-0.27
-0.27
-0.275
-0.275
-0.265
-0.25
-0.24
-0.225
-0.215
-0.21
-0.205
-0.205
-0.21
-0.215
-0.19
-0.18
-0.185
-0.185
-0.185
-0.195
-0.22
-0.22
-0.23
-0.235
-0.225
-0.24
-0.255
-0.255
-0.265
-0.27
-0.27
-0.265
-0.27
-0.28
-0.275
-0.29
-0.295
-0.295
-0.3
-0.305
-0.295
-0.29
-0.29
-0.29
-0.285
-0.275
-0.27
-0.275
-0.27
-0.285
-0.29
-0.32
-0.335
-0.355
-0.345
-0.305
-0.22
-0.1
0.055
0.24
0.44
0.66
0.845
0.945
0.915
0.715
0.415
0.075
-0.18
-0.355
-0.395
-0.35
-0.27
-0.21
-0.175
-0.17
-0.18
-0.185
-0.2
-0.215
-0.23
-0.235
-0.235
-0.235
-0.25
-0.255
-0.26
-0.27
-0.28
-0.265
-0.26
-0.25
-0.245
-0.245
-0.24
-0.245
-0.25
-0.26
-0.265
-0.27
-0.27
-0.26
-0.245
-0.23
-0.24
-0.23
-0.225
-0.23
-0.235
-0.245
-0.245
-0.24
-0.24
-0.24
-0.225
-0.23
-0.22
-0.21
-0.21
-0.21
-0.23
-0.225
-0.23
-0.22
-0.225
-0.225
-0.21
-0.205
-0.2
-0.195
-0.19
-0.185
-0.2
-0.215
-0.225
-0.215
-0.22
-0.215
-0.195
-0.185
-0.175
-0.17
-0.175
-0.18
-0.185
-0.205
-0.195
-0.2
-0.195
-0.2
-0.19
-0.18
-0.17
-0.16
-0.16
-0.16
-0.16
-0.16
-0.17
-0.16
-0.155
-0.14
-0.135
-0.12
-0.11
-0.105
-0.105
-0.1
-0.105
-0.105
-0.115
-0.12
-0.13
-0.135
-0.135
-0.135
-0.135
-0.135
-0.135
-0.16
-0.17
-0.175
-0.2
-0.2
-0.21
-0.215
-0.205
-0.215
-0.205
-0.2
-0.21
-0.22
-0.23
-0.24
-0.245
-0.255
-0.265
-0.255
-0.26
-0.25
-0.255
-0.25
-0.245
-0.245
-0.245
-0.255
-0.25
-0.265
-0.265
-0.26
-0.27
-0.255
-0.25
-0.255
-0.255
-0.255
-0.265
-0.26
-0.275
-0.295
-0.29
-0.285
-0.275
-0.265
-0.27
-0.265
-0.26
-0.27
-0.28
-0.28
-0.285
-0.285
-0.29
-0.285
-0.29
-0.275
-0.27
-0.27
-0.27
-0.27
-0.275
-0.275
-0.285
-0.29
-0.295
-0.29
-0.28
-0.28
-0.28
-0.28
-0.28
-0.28
-0.28
-0.285
-0.295
-0.29
-0.295
-0.29
-0.285
-0.275
-0.275
-0.27
-0.265
-0.26
-0.25
-0.245
-0.245
-0.245
-0.245
-0.25
-0.235
-0.235
-0.22
-0.2
-0.185
-0.18
-0.18
-0.19
-0.215
-0.225
-0.235
-0.245
-0.245
-0.235
-0.23
-0.235
-0.24
-0.25
-0.255
-0.265
-0.27
-0.28
-0.29
-0.29
-0.295
-0.295
-0.3
-0.285
-0.285
-0.285
-0.29
-0.3
-0.305
-0.315
-0.32
-0.3
-0.305
-0.295
-0.285
-0.275
-0.275
-0.27
-0.3
-0.32
-0.35
-0.365
-0.355
-0.31
-0.215
-0.09
0.075
0.275
0.51
0.73
0.91
0.96
0.85
0.59
0.245
-0.075
-0.325
-0.44
-0.44
-0.365
-0.285
-0.22
-0.185
-0.2
-0.2
-0.21
-0.225
-0.25
-0.255
-0.265
-0.255
-0.25
-0.245
-0.255
-0.245
-0.26
-0.26
-0.27
-0.28
-0.265
-0.265
-0.26
-0.245
-0.255
-0.25
-0.255
-0.26
-0.26
-0.27
-0.26
-0.265
-0.26
-0.27
-0.245
-0.235
-0.235
-0.22
-0.235
-0.23
-0.23
-0.24
-0.245
-0.24
-0.24
-0.225
-0.22
-0.205
-0.205
-0.225
-0.23
-0.215
-0.235
-0.245
-0.23
-0.225
-0.225
-0.21
-0.205
-0.195
-0.19
-0.195
-0.195
-0.2
-0.185
-0.195
-0.215
-0.215
-0.215
-0.2
-0.19
-0.185
-0.185
-0.185
-0.18
-0.185
-0.195
-0.2
-0.19
-0.195
-0.195
-0.18
-0.17
-0.165
-0.165
-0.16
-0.165
-0.165
-0.16
-0.15
-0.15
-0.14
-0.135
-0.12
-0.115
-0.11
-0.1
-0.1
-0.095
-0.1
-0.115
-0.125
-0.13
-0.14
-0.15
-0.15
-0.155
-0.15
-0.155
-0.16
-0.165
-0.18
-0.18
-0.19
-0.2
-0.205
-0.225
-0.21
-0.205
-0.2
-0.2
-0.2
-0.2
-0.2
-0.215
-0.23
-0.25
-0.25
-0.24
-0.24
-0.23
-0.23
-0.225
-0.225
-0.225
-0.24
-0.235
-0.25
-0.24
-0.25
-0.24
-0.245
-0.24
-0.235
-0.235
-0.245
-0.245
-0.25
-0.265
-0.265
-0.27
-0.28
-0.28
-0.27
-0.265
-0.255
-0.255
-0.25
-0.25
-0.26
-0.27
-0.275
-0.285
-0.28
-0.28
-0.265
-0.265
-0.26
-0.26
-0.26
-0.26
-0.26
-0.28
-0.285
-0.295
-0.295
-0.295
-0.285
-0.28
-0.27
-0.27
-0.27
-0.27
-0.275
-0.275
-0.29
-0.285
-0.29
-0.285
-0.28
-0.255
-0.25
-0.235
-0.215
-0.21
-0.22
-0.22
-0.23
-0.23
-0.23
-0.22
-0.195
-0.175
-0.17
-0.165
-0.175
-0.18
-0.195
-0.22
-0.235
-0.23
-0.235
-0.235
-0.23
-0.225
-0.225
-0.235
-0.23
-0.235
-0.25
-0.26
-0.27
-0.285
-0.305
-0.315
-0.31
-0.305
-0.3
-0.285
-0.285
-0.29
-0.285
-0.29
-0.285
-0.3
-0.3
-0.29
-0.285
-0.29
-0.285
-0.275
-0.28
-0.3
-0.32
-0.35
-0.36
-0.335
-0.27
-0.175
-0.035
0.15
0.355
0.59
0.81
0.965
1.0
0.865
0.585
0.235
-0.1
-0.33
-0.425
-0.42
-0.335
-0.26
-0.195
-0.17
-0.175
-0.19
-0.205
-0.22
-0.23
-0.24
-0.245
-0.245
-0.235
-0.235
-0.235
-0.225
-0.245
-0.25
-0.26
-0.255
-0.255
-0.255
-0.25
-0.245
-0.24
-0.225
-0.225
-0.245
-0.235
-0.245
-0.255
-0.26
-0.26
-0.25
-0.24
-0.23
-0.225
-0.225
-0.22
-0.22
-0.22
-0.235
-0.24
-0.23
-0.225
-0.225
-0.21
-0.21
-0.21
-0.205
-0.195
-0.195
-0.195
-0.2
-0.205
-0.22
-0.225
-0.23
-0.22
-0.205
-0.195
-0.18
-0.18
-0.185
-0.185
-0.185
-0.19
-0.19
-0.2
-0.19
-0.185
-0.18
-0.175
-0.175
-0.165
-0.17
-0.18
-0.18
-0.18
-0.19
-0.195
-0.19
-0.185
-0.175
-0.17
-0.165
-0.155
-0.155
-0.16
-0.16
-0.165
-0.16
-0.155
-0.14
-0.13
-0.125
-0.105
-0.09
-0.095
-0.09
-0.085
-0.09
-0.09
-0.105
-0.115
-0.115
-0.11
-0.115
-0.11
-0.105
-0.11
-0.12
-0.145
-0.15
-0.17
-0.17
-0.185
-0.195
-0.19
-0.19
-0.175
-0.175
-0.18
-0.18
-0.185
-0.2
-0.2
-0.21
-0.21
-0.21
-0.205
-0.2
-0.19
-0.195
-0.19
-0.19
-0.2
-0.21
-0.215
-0.22
-0.23
-0.225
-0.225
-0.22
-0.22
-0.215
-0.21
-0.215
-0.22
-0.23
-0.23
-0.24
-0.24
-0.245
-0.235
-0.235
-0.23
-0.23
-0.23
-0.235
-0.23
-0.24
-0.255
-0.27
-0.275
-0.27
-0.265
-0.255
-0.255
-0.255
-0.245
-0.245
-0.26
-0.26
-0.265
-0.26
-0.265
-0.27
-0.265
-0.26
-0.26
-0.25
-0.255
-0.255
-0.26
-0.26
-0.275
-0.275
-0.28
-0.255
-0.245
-0.235
-0.215
-0.215
-0.195
-0.195
-0.205
-0.21
-0.215
-0.205
-0.195
-0.185
-0.155
-0.16
-0.155
-0.17
-0.195
-0.2
-0.215
-0.205
-0.22
-0.23
-0.245
-0.245
-0.25
-0.24
-0.245
-0.245
-0.24
-0.25
-0.27
-0.285
-0.29
-0.3
-0.295
-0.295
-0.29
-0.27
-0.27
-0.265
-0.26
-0.27
-0.265
-0.28
-0.275
-0.275
-0.285
-0.28
-0.29
-0.305
-0.32
-0.335
-0.32
-0.285
-0.205
-0.085
0.065
0.245
0.455
0.68
0.87
0.99
0.96
0.765
0.47
0.125
-0.175
-0.365
-0.43
-0.39
-0.315
-0.235
-0.195
-0.17
-0.155
-0.17
-0.195
-0.205
-0.215
-0.235
-0.25
-0.255
-0.25
-0.255
-0.25
-0.25
-0.235
-0.24
-0.235
-0.24
-0.25
-0.255
-0.25
-0.255
-0.26
-0.265
-0.26
-0.245
-0.24
-0.23
-0.235
-0.225
-0.245
-0.255
-0.25
-0.255
-0.265
-0.265
-0.245
-0.24
-0.235
-0.215
-0.225
-0.215
-0.225
-0.225
-0.24
-0.23
-0.24
-0.235
-0.23
-0.22
-0.215
-0.205
-0.215
-0.215
-0.215
-0.225
-0.21
-0.225
-0.23
-0.23
-0.22
-0.215
-0.205
-0.195
-0.195
-0.195
-0.2
-0.2
-0.215
-0.22
-0.215
-0.2
-0.2
-0.19
