Lead II
-0.765
-0.75
-0.73
-0.73
-0.72
-0.72
-0.72
-0.735
-0.725
-0.725
-0.72
-0.72
-0.71
-0.705
-0.7
-0.695
-0.68
-0.68
-0.68
-0.69
-0.7
-0.695
-0.695
-0.69
-0.69
-0.7
-0.72
-0.725
-0.745
-0.76
-0.775
-0.8
-0.82
-0.825
-0.835
-0.845
-0.845
-0.84
-0.84
-0.84
-0.835
-0.835
-0.855
-0.85
-0.855
-0.875
-0.875
-0.875
-0.87
-0.86
-0.86
-0.84
-0.83
-0.825
-0.835
-0.835
-0.84
-0.845
-0.85
-0.845
-0.815
-0.79
-0.76
-0.69
-0.63
-0.545
-0.445
-0.32
-0.21
-0.14
-0.105
-0.14
-0.23
-0.37
-0.505
-0.64
-0.79
-0.965
-1.14
-1.265
-1.34
-1.355
-1.325
-1.26
-1.21
-1.155
-1.11
-1.055
-1.035
-1.025
-1.0
-0.995
-0.975
-0.97
-0.97
-0.96
-0.955
-0.96
-0.955
-0.95
-0.955
-0.96
-0.97
-0.97
-0.96
-0.975
-0.975
-0.98
-0.975
-0.98
-0.975
-0.975
-0.975
-0.975
-0.985
-0.995
-0.995
-0.995
-1.01
-1.005
-1.005
-0.99
-0.985
-0.975
-0.98
-0.985
-0.995
-1.01
-1.015
-1.03
-1.02
-1.025
-1.015
-1.015
-1.005
-0.995
-1.005
-1.005
-1.025
-1.04
-1.025
-1.04
-1.055
-1.06
-1.055
-1.045
-1.045
-1.04
-1.05
-1.055
-1.07
-1.08
-1.07
-1.07
-1.065
-1.06
-1.045
-1.045
-1.045
-1.03
-1.015
-1.02
-1.015
-1.015
-1.005
-1.005
-1.005
-0.985
-0.975
-0.95
-0.925
-0.9
-0.885
-0.86
-0.845
-0.825
-0.8
-0.79
-0.775
-0.76
-0.73
-0.715
-0.705
-0.68
-0.68
-0.675
-0.67
-0.685
-0.695
-0.7
-0.715
-0.7
-0.705
-0.685
-0.695
-0.69
-0.69
-0.695
-0.705
-0.715
-0.73
-0.73
-0.73
-0.73
-0.725
-0.725
-0.725
-0.72
-0.725
-0.73
-0.735
-0.745
-0.735
-0.755
-0.77
-0.765
-0.775
-0.75
-0.75
-0.745
-0.735
-0.745
-0.74
-0.75
-0.75
-0.77
-0.77
-0.765
-0.765
-0.765
-0.755
-0.745
-0.75
-0.75
-0.75
-0.75
-0.76
-0.77
-0.78
-0.78
-0.775
-0.765
-0.75
-0.75
-0.74
-0.745
-0.735
-0.745
-0.74
-0.73
-0.73
-0.72
-0.705
-0.69
-0.685
-0.68
-0.665
-0.67
-0.67
-0.675
-0.67
-0.685
-0.68
-0.66
-0.65
-0.65
-0.65
-0.64
-0.64
-0.64
-0.66
-0.69
-0.695
-0.715
-0.72
-0.745
-0.755
-0.76
-0.775
-0.77
-0.79
-0.805
-0.81
-0.81
-0.825
-0.835
-0.835
-0.835
-0.835
-0.825
-0.815
-0.81
-0.805
-0.805
-0.805
-0.8
-0.82
-0.815
-0.82
-0.81
-0.82
-0.82
-0.825
-0.79
-0.79
-0.79
-0.79
-0.775
-0.745
-0.68
-0.605
-0.495
-0.365
-0.23
-0.125
-0.06
-0.075
-0.18
-0.345
-0.51
-0.67
-0.86
-1.04
-1.2
-1.305
-1.335
-1.305
-1.27
-1.205
-1.155
-1.105
-1.07
-1.03
-1.015
-1.0
-0.98
-0.95
-0.935
-0.915
-0.91
-0.92
-0.915
-0.925
-0.94
-0.945
-0.955
-0.97
-0.96
-0.96
-0.95
-0.945
-0.935
-0.93
-0.93
-0.93
-0.935
-0.95
-0.96
-0.96
-0.965
-0.965
-0.945
-0.95
-0.945
-0.935
-0.935
-0.945
-0.955
-0.965
-0.975
-0.98
-0.975
-0.985
-0.98
-0.97
-0.96
-0.965
-0.965
-0.975
-0.985
-1.005
-1.0
-1.005
-1.01
-1.005
-1.0
-1.005
-1.01
-1.015
-1.01
-1.025
-1.03
-1.035
-1.03
-1.04
-1.02
-1.025
-1.015
-1.005
-1.01
-1.015
-1.02
-1.02
-1.035
-1.025
-1.025
-1.025
-1.02
-1.01
-0.995
-0.995
-0.975
-0.965
-0.965
-0.945
-0.945
-0.935
-0.93
-0.91
-0.9
-0.88
-0.845
-0.825
-0.8
-0.78
-0.755
-0.74
-0.745
-0.73
-0.725
-0.7
-0.685
-0.68
-0.67
-0.65
-0.65
-0.645
-0.64
-0.645
-0.65
-0.65
-0.665
-0.67
-0.67
-0.67
-0.67
-0.665
-0.665
-0.67
-0.685
-0.695
-0.695
-0.705
-0.725
-0.74
-0.73
-0.73
-0.725
-0.725
-0.725
-0.715
-0.72
-0.73
-0.74
-0.745
-0.745
-0.74
-0.75
-0.74
-0.73
-0.73
-0.725
-0.725
-0.74
-0.75
-0.76
-0.77
-0.78
-0.77
-0.77
-0.75
-0.76
-0.76
-0.745
-0.75
-0.735
-0.74
-0.75
-0.76
-0.76
-0.765
-0.76
-0.76
-0.75
-0.755
-0.735
-0.735
-0.745
-0.735
-0.73
-0.725
-0.73
-0.72
-0.715
-0.705
-0.675
-0.675
-0.66
-0.65
-0.645
-0.65
-0.655
-0.645
-0.655
-0.65
-0.65
-0.645
-0.635
-0.625
-0.64
-0.64
-0.645
-0.665
-0.675
-0.69
-0.68
-0.69
-0.69
-0.7
-0.705
-0.71
-0.72
-0.72
-0.74
-0.75
-0.775
-0.795
-0.815
-0.81
-0.805
-0.825
-0.81
-0.805
-0.8
-0.79
-0.795
-0.805
-0.805
-0.815
-0.82
-0.815
-0.8
-0.795
-0.79
-0.79
-0.78
-0.785
-0.77
-0.775
-0.775
-0.765
-0.74
-0.68
-0.61
-0.51
-0.385
-0.255
-0.145
-0.05
-0.025
-0.075
-0.185
-0.33
-0.485
-0.63
-0.77
-0.925
-1.09
-1.22
-1.3
-1.29
-1.26
-1.215
-1.17
-1.13
-1.09
-1.055
-1.015
-0.985
-0.96
-0.935
-0.92
-0.9
-0.89
-0.905
-0.92
-0.935
-0.935
-0.93
-0.935
-0.93
-0.92
-0.925
-0.905
-0.905
-0.925
-0.93
-0.92
-0.925
-0.93
-0.935
-0.93
-0.93
-0.93
-0.935
-0.94
-0.93
-0.93
-0.935
-0.94
-0.95
-0.97
-0.985
-0.98
-0.975
-0.98
-0.97
-0.965
-0.965
-0.965
-0.97
-0.965
-0.975
-0.975
-0.985
-0.99
-0.995
-0.985
-0.99
-0.985
-0.97
-0.99
-1.0
-1.0
-1.025
-1.02
-1.025
-1.02
-1.025
-1.01
-1.005
-1.0
-1.0
-1.0
-1.005
-1.015
-1.01
-1.015
-1.01
-1.005
-0.995
-0.99
-0.98
-0.965
-0.95
-0.95
-0.955
-0.935
-0.94
-0.945
-0.925
-0.895
-0.86
-0.84
-0.815
-0.795
-0.78
-0.77
-0.75
-0.73
-0.725
-0.715
-0.695
-0.675
-0.665
-0.65
-0.64
-0.64
-0.63
-0.645
-0.65
-0.665
-0.68
-0.68
-0.69
-0.69
-0.7
-0.695
-0.695
-0.685
-0.68
-0.69
-0.685
-0.7
-0.71
-0.73
-0.74
-0.74
-0.745
-0.725
-0.715
-0.71
-0.715
-0.725
-0.73
-0.725
-0.745
-0.755
-0.755
-0.765
-0.76
-0.76
-0.745
-0.735
-0.74
-0.755
-0.755
-0.755
-0.76
-0.765
-0.765
-0.78
-0.765
-0.76
-0.75
-0.75
-0.745
-0.745
-0.74
-0.745
-0.755
-0.745
-0.755
-0.765
-0.765
-0.77
-0.75
-0.745
-0.745
-0.74
-0.74
-0.745
-0.75
-0.75
-0.74
-0.73
-0.72
-0.705
-0.705
-0.685
-0.675
-0.665
-0.66
-0.675
-0.68
-0.69
-0.69
-0.685
-0.665
-0.66
-0.645
-0.645
-0.645
-0.665
-0.675
-0.68
-0.695
-0.715
-0.725
-0.725
-0.735
-0.74
-0.745
-0.77
-0.77
-0.78
-0.795
-0.805
-0.815
-0.82
-0.835
-0.835
-0.84
-0.83
-0.835
-0.825
-0.82
-0.825
-0.835
-0.835
-0.84
-0.845
-0.845
-0.84
-0.825
-0.835
-0.8
-0.795
-0.79
-0.785
-0.795
-0.795
-0.77
-0.755
-0.705
-0.625
-0.52
-0.38
-0.25
-0.14
-0.075
-0.1
-0.22
-0.39
-0.565
-0.76
-0.97
-1.155
-1.285
-1.335
-1.335
-1.28
-1.205
-1.125
-1.07
-1.025
-1.005
-0.995
-0.99
-0.98
-0.97
-0.96
-0.94
-0.94
-0.93
-0.935
-0.935
-0.945
-0.955
-0.955
-0.955
-0.955
-0.955
-0.95
-0.955
-0.955
-0.955
-0.96
-0.97
-0.96
-0.97
-0.975
-0.965
-0.97
-0.985
-0.98
-0.965
-0.965
-0.95
-0.96
-0.97
-0.975
-0.99
-0.99
-0.995
-0.99
-0.99
-0.985
-0.98
-0.98
-0.98
-0.98
-0.98
-1.0
-1.005
-1.025
-1.035
-1.03
-1.025
-1.015
-1.025
-1.015
-1.01
-1.01
-1.025
-1.045
-1.055
-1.07
-1.075
-1.075
-1.07
-1.07
-1.05
-1.035
-1.035
-1.03
-1.025
-1.03
-1.035
-1.035
-1.035
-1.04
-1.015
-1.01
-1.005
-0.98
-0.97
-0.96
-0.955
-0.93
-0.925
-0.925
-0.905
-0.88
-0.87
-0.845
-0.82
-0.79
-0.76
-0.76
-0.74
-0.725
-0.715
-0.72
-0.7
-0.7
-0.695
-0.69
-0.675
-0.655
-0.665
-0.665
-0.68
-0.705
-0.725
-0.72
-0.735
-0.72
-0.725
-0.725
-0.72
-0.715
-0.72
-0.725
-0.73
-0.73
-0.75
-0.745
-0.745
-0.75
-0.77
-0.765
-0.755
-0.765
-0.765
-0.77
-0.77
-0.78
-0.79
-0.805
-0.81
-0.81
-0.805
-0.8
-0.795
-0.795
-0.775
-0.77
-0.775
-0.78
-0.79
-0.785
-0.79
-0.795
-0.8
-0.79
-0.79
-0.775
-0.77
-0.79
-0.795
-0.81
-0.8
-0.8
-0.8
-0.795
-0.795
-0.785
-0.775
-0.765
-0.76
-0.775
-0.775
-0.785
-0.785
-0.785
-0.78
-0.77
-0.75
-0.74
-0.705
-0.705
-0.695
-0.7
-0.7
-0.71
-0.705
-0.71
-0.7
-0.7
-0.695
-0.69
-0.7
-0.69
-0.685
-0.705
-0.72
-0.725
-0.745
-0.755
-0.765
-0.775
-0.785
-0.785
-0.79
-0.795
-0.79
-0.81
-0.81
-0.825
-0.85
-0.85
-0.87
-0.87
-0.86
-0.86
-0.865
-0.86
-0.845
-0.845
-0.86
-0.86
-0.865
-0.865
-0.865
-0.875
-0.865
-0.855
-0.855
-0.84
-0.825
-0.825
-0.82
-0.78
-0.73
-0.665
-0.585
-0.475
-0.355
-0.23
-0.135
-0.105
-0.145
-0.24
-0.37
-0.535
-0.675
-0.81
-0.965
-1.12
-1.265
-1.34
-1.35
-1.315
-1.27
-1.23
-1.17
-1.14
-1.095
-1.065
-1.06
-1.045
-1.005
-0.99
-0.98
-0.96
-0.96
-0.965
-0.975
-0.98
-0.99
-1.0
-1.005
-1.0
-1.0
-0.995
-0.985
-0.985
-0.98
-0.975
-0.98
-0.985
-0.995
-1.0
-1.005
-1.01
-1.005
-1.005
-0.995
-1.0
-0.995
-1.005
-1.0
-1.025
-1.025
-1.04
-1.045
-1.055
-1.05
-1.04
-1.04
-1.04
-1.035
-1.045
-1.05
-1.05
-1.06
-1.055
-1.065
-1.08
-1.08
-1.07
-1.065
-1.055
-1.05
-1.065
-1.07
-1.075
-1.095
-1.105
-1.095
-1.1
-1.1
-1.085
-1.09
-1.08
-1.075
-1.07
-1.085
-1.08
-1.085
-1.085
-1.08
-1.075
-1.055
-1.06
-1.05
-1.035
-1.025
-1.01
-1.005
-1.0
-0.985
-0.98
-0.97
-0.945
-0.935
-0.915
-0.895
-0.87
-0.835
-0.82
-0.8
-0.795
-0.775
-0.775
-0.75
-0.755
-0.74
-0.735
-0.73
-0.73
-0.71
-0.71
-0.725
-0.73
-0.735
-0.755
-0.755
-0.77
-0.77
-0.775
-0.79
-0.785
-0.76
-0.765
-0.775
-0.79
-0.795
-0.8
-0.8
-0.8
-0.815
-0.81
-0.8
-0.805
-0.79
-0.79
-0.795
-0.81
-0.815
-0.82
-0.825
-0.835
-0.83
-0.825
-0.83
-0.815
-0.81
-0.8
-0.82
-0.81
-0.82
-0.83
-0.845
-0.845
-0.86
-0.865
-0.85
-0.855
-0.835
-0.825
-0.83
-0.82
-0.84
-0.835
-0.845
-0.84
-0.84
-0.815
-0.82
-0.81
-0.8
-0.805
-0.8
-0.805
-0.805
-0.81
-0.81
-0.8
-0.78
-0.775
-0.75
-0.75
-0.725
-0.73
-0.73
-0.74
-0.735
-0.745
-0.745
-0.745
-0.735
-0.73
-0.725
-0.735
-0.735
-0.73
-0.755
-0.75
-0.765
-0.775
-0.78
-0.795
-0.8
-0.8
-0.81
-0.815
-0.805
-0.825
-0.84
-0.855
-0.865
-0.87
-0.885
-0.905
-0.905
-0.905
-0.9
-0.905
-0.895
-0.895
-0.9
-0.9
-0.9
-0.91
-0.92
-0.92
-0.92
-0.905
-0.895
-0.905
-0.905
-0.9
-0.905
-0.895
-0.895
-0.88
-0.87
-0.83
-0.78
-0.7
-0.61
-0.5
-0.39
-0.27
-0.2
-0.155
-0.16
-0.245
-0.365
-0.5
-0.625
-0.76
-0.905
-1.055
-1.2
-1.305
-1.345
-1.335
-1.31
-1.295
-1.25
-1.21
-1.165
-1.105
-1.075
-1.04
-1.02
-1.02
-1.02
-1.025
-1.035
-1.035
-1.04
-1.04
-1.035
-1.025
-1.015
-1.015
-1.005
-1.02
-1.025
-1.015
-1.035
-1.045
-1.04
-1.05
-1.05
-1.05
-1.04
-1.04
-1.04
-1.05
-1.06
-1.07
-1.07
-1.07
-1.065
-1.07
-1.065
-1.06
-1.065
-1.06
-1.07
-1.06
-1.065
-1.075
-1.085
-1.095
-1.095
-1.11
-1.115
-1.1
-1.1
-1.085
-1.085
-1.085
-1.09
-1.095
-1.095
-1.11
-1.12
-1.125
-1.125
-1.135
-1.12
-1.125
-1.12
-1.125
-1.13
-1.125
-1.125
-1.135
-1.125
-1.135
-1.145
-1.13
-1.125
-1.125
-1.09
-1.085
-1.095
-1.07
-1.06
-1.06
-1.045
-1.04
-1.025
-1.01
-0.985
-0.975
-0.935
-0.93
-0.915
-0.9
-0.9
-0.875
-0.875
-0.855
-0.85
-0.815
-0.8
-0.785
-0.775
-0.775
-0.775
-0.78
-0.785
-0.79
-0.79
-0.785
-0.79
-0.795
-0.785
-0.78
-0.77
-0.8
-0.79
-0.81
-0.83
-0.835
-0.835
-0.84
-0.83
-0.835
-0.815
-0.81
-0.805
-0.81
-0.835
-0.82
-0.835
-0.84
-0.86
-0.87
-0.86
-0.87
-0.86
-0.85
-0.85
-0.855
-0.87
-0.88
-0.875
-0.885
-0.89
-0.895
-0.905
-0.885
-0.89
-0.875
-0.86
-0.87
-0.875
-0.89
-0.895
-0.905
-0.9
-0.9
-0.9
-0.89
-0.88
-0.88
-0.86
-0.855
-0.86
-0.855
-0.855
-0.865
-0.87
-0.875
-0.875
-0.865
-0.85
-0.83
-0.825
-0.825
-0.815
-0.815
-0.825
-0.81
-0.83
-0.825
-0.825
-0.815
-0.8
-0.795
-0.78
-0.765
-0.76
-0.75
-0.765
-0.78
-0.795
-0.795
-0.8
-0.8
-0.805
-0.82
-0.825
-0.84
-0.85
-0.87
-0.89
-0.91
-0.91
-0.92
-0.94
-0.92
-0.925
-0.935
-0.925
-0.935
-0.95
-0.96
-0.965
-0.97
-0.97
-0.96
-0.955
-0.955
-0.96
-0.95
-0.945
-0.94
-0.95
-0.95
-0.945
-0.955
-0.955
-0.94
-0.92
-0.86
-0.785
-0.705
-0.605
-0.485
-0.36
-0.265
-0.18
-0.175
-0.21
-0.32
-0.475
-0.61
-0.765
-0.92
-1.095
-1.26
-1.375
-1.38
-1.35
-1.3
-1.26
-1.25
-1.25
-1.23
-1.21
-1.17
-1.125
-1.1
-1.075
-1.075
-1.06
-1.07
-1.08
-1.075
-1.08
-1.07
-1.07
-1.065
-1.07
-1.075
-1.08
-1.085
-1.09
-1.095
-1.095
-1.1
-1.105
-1.09
-1.095
-1.085
-1.09
-1.075
-1.085
-1.09
-1.1
-1.1
-1.105
-1.11
-1.1
-1.105
-1.105
-1.08
-1.09
-1.09
-1.105
-1.115
-1.125
-1.13
-1.12
-1.135
-1.13
-1.135
-1.145
-1.14
-1.13
-1.13
-1.135
-1.125
-1.13
-1.135
-1.145
-1.165
-1.165
-1.17
-1.17
-1.165
-1.175
-1.175
-1.16
-1.15
-1.165
-1.15
-1.16
-1.155
-1.155
-1.145
-1.135
-1.125
-1.11
-1.115
-1.115
-1.115
-1.115
-1.115
-1.12
-1.11
-1.095
-1.08
-1.06
-1.035
-1.005
-0.995
-0.98
-0.965
-0.955
-0.95
-0.935
-0.925
-0.905
-0.885
-0.87
-0.85
-0.82
-0.81
-0.83
-0.83
-0.83
-0.84
-0.85
-0.85
-0.855
-0.845
-0.83
-0.825
-0.82
-0.83
-0.825
-0.84
-0.855
-0.88
-0.885
-0.89
-0.91
-0.9
-0.895
-0.885
-0.87
-0.875
-0.895
-0.9
-0.91
-0.925
-0.915
-0.915
-0.91
-0.9
-0.895
-0.885
-0.87
-0.885
-0.88
-0.875
-0.89
-0.89
-0.9
-0.905
-0.91
-0.9
-0.9
-0.895
-0.885
-0.895
-0.895
-0.91
-0.91
-0.92
-0.92
-0.92
-0.91
-0.91
-0.895
-0.9
-0.91
-0.905
-0.905
-0.89
-0.895
-0.895
-0.895
-0.88
-0.87
-0.845
-0.845
-0.84
-0.84
-0.83
-0.835
-0.835
-0.835
-0.85
-0.85
-0.835
-0.835
-0.82
-0.795
-0.785
-0.775
-0.765
-0.785
-0.785
-0.815
-0.835
-0.855
-0.875
-0.89
-0.89
-0.9
-0.92
-0.92
-0.93
-0.925
-0.93
-0.94
-0.94
-0.95
-0.955
-0.965
-0.965
-0.955
-0.965
-0.955
-0.95
-0.94
-0.945
-0.945
-0.94
-0.955
-0.955
-0.965
-0.96
-0.945
-0.955
-0.935
-0.925
-0.915
-0.905
-0.88
-0.84
-0.77
-0.68
-0.575
-0.47
-0.335
-0.215
-0.125
-0.09
-0.11
-0.2
-0.34
-0.5
-0.675
-0.8
-0.93
-1.09
-1.235
-1.36
-1.425
-1.41
-1.36
-1.3
-1.27
-1.27
-1.265
-1.26
-1.21
-1.17
-1.12
-1.08
-1.055
-1.05
-1.05
-1.05
-1.06
-1.06
-1.07
-1.065
-1.065
-1.055
-1.055
-1.045
-1.045
-1.035
-1.045
-1.04
-1.045
-1.06
-1.05
-1.06
-1.06
-1.06
-1.055
-1.065
-1.055
-1.065
-1.065
-1.07
-1.08
-1.07
-1.065
-1.085
-1.075
-1.07
-1.08
-1.085
-1.085
-1.085
-1.085
-1.08
-1.08
-1.09
-1.1
-1.1
-1.1
-1.095
-1.105
-1.09
-1.08
-1.085
-1.08
-1.09
-1.085
-1.11
-1.115
-1.13
-1.135
-1.13
-1.12
-1.105
-1.095
-1.1
-1.1
-1.1
-1.105
-1.12
-1.11
-1.12
-1.11
-1.105
-1.09
-1.075
-1.055
-1.045
-1.04
-1.03
-1.015
-1.015
-0.99
-0.95
-0.93
-0.9
-0.875
-0.86
-0.845
-0.835
-0.805
-0.815
-0.795
-0.8
-0.79
-0.775
-0.75
-0.745
-0.735
-0.73
-0.725
-0.72
-0.72
-0.73
-0.735
-0.735
-0.745
-0.745
-0.75
-0.755
-0.755
-0.745
-0.74
-0.735
-0.735
-0.755
-0.765
-0.775
-0.775
-0.775
-0.775
-0.765
-0.755
-0.75
-0.745
-0.76
-0.76
-0.755
-0.76
-0.765
-0.775
-0.78
-0.775
-0.77
-0.77
-0.77
-0.765
-0.765
-0.77
-0.775
-0.78
-0.795
-0.795
-0.79
-0.795
-0.785
-0.765
-0.765
-0.75
-0.75
-0.745
-0.75
-0.76
-0.77
-0.78
-0.785
-0.755
-0.755
-0.745
-0.745
-0.735
-0.72
-0.73
-0.73
-0.72
-0.725
-0.72
-0.71
-0.7
-0.685
-0.67
-0.67
-0.665
-0.66
-0.655
-0.655
-0.665
-0.665
-0.665
-0.66
-0.65
-0.625
-0.625
-0.63
-0.63
-0.63
-0.65
-0.655
-0.665
-0.68
-0.69
-0.705
-0.715
-0.72
-0.725
-0.735
-0.73
-0.73
-0.745
-0.755
-0.765
-0.765
-0.795
-0.79
-0.795
-0.79
-0.79
-0.775
-0.76
-0.76
-0.775
-0.79
-0.795
-0.79
-0.8
-0.8
-0.8
-0.795
-0.78
-0.78
-0.76
-0.765
-0.76
-0.745
-0.73
-0.705
-0.635
-0.55
-0.45
-0.295
-0.155
-0.04
0.05
0.075
0.02
-0.105
-0.26
-0.42
-0.56
-0.69
-0.845
-0.99
-1.12
-1.185
-1.185
-1.15
-1.11
-1.05
-1.005
-0.96
-0.93
-0.91
-0.895
-0.895
-0.89
-0.875
-0.89
-0.87
-0.86
-0.86
-0.875
-0.885
-0.89
-0.885
-0.905
-0.9
-0.895
-0.875
-0.885
-0.88
-0.88
-0.88
-0.88
-0.89
-0.91
-0.91
-0.895
-0.9
-0.9
-0.905
-0.89
-0.895
-0.905
-0.92
-0.92
-0.915
-0.925
-0.92
-0.93
-0.93
-0.925
-0.915
-0.905
-0.915
-0.92
-0.915
-0.93
-0.92
-0.94
-0.95
-0.945
-0.955
-0.96
-0.96
-0.96
-0.955
-0.955
-0.97
-0.985
-1.0
-1.01
-1.02
-1.015
-1.015
-1.005
-1.0
-0.99
-0.985
-0.99
-0.995
-1.0
-0.99
-1.005
-1.0
-1.005
-0.99
-0.97
-0.965
-0.96
-0.955
-0.945
-0.955
-0.95
-0.93
-0.94
-0.93
-0.92
-0.91
-0.895
-0.87
-0.86
-0.835
-0.815
-0.8
-0.79
-0.765
-0.755
-0.73
-0.71
-0.685
-0.675
-0.655
-0.635
-0.62
-0.62
-0.62
-0.625
-0.62
-0.63
-0.63
-0.615
-0.605
-0.6
-0.595
-0.605
-0.6
-0.605
-0.62
-0.63
-0.64
-0.64
-0.645
-0.645
-0.64
-0.64
-0.655
-0.645
-0.645
-0.65
-0.655
-0.66
-0.675
-0.68
-0.67
-0.675
-0.67
-0.675
-0.67
-0.675
-0.67
-0.665
-0.68
-0.685
-0.69
-0.695
-0.685
-0.68
-0.685
-0.68
-0.68
-0.67
-0.67
-0.68
-0.685
-0.695
-0.685
-0.695
-0.7
-0.7
-0.695
-0.695
-0.685
-0.68
-0.675
-0.675
-0.68
-0.685
-0.69
-0.695
-0.695
-0.69
-0.675
-0.665
-0.65
-0.64
-0.64
-0.63
-0.625
-0.625
-0.62
-0.62
-0.625
-0.62
-0.62
-0.61
-0.605
-0.59
-0.58
-0.575
-0.575
-0.57
-0.585
-0.605
-0.61
-0.62
-0.63
-0.635
-0.64
-0.645
-0.645
-0.655
-0.68
-0.715
-0.73
-0.755
-0.765
-0.77
-0.785
-0.785
-0.77
-0.77
-0.765
-0.765
-0.77
-0.775
-0.77
-0.775
-0.775
-0.775
-0.77
-0.775
-0.76
-0.76
-0.755
-0.75
-0.75
-0.75
-0.755
-0.755
-0.765
-0.76
-0.745
-0.705
-0.64
-0.58
-0.505
-0.41
-0.295
-0.185
-0.06
0.01
0.035
0.02
-0.08
-0.23
-0.375
-0.52
-0.665
-0.83
-1.01
-1.16
-1.245
-1.255
-1.215
-1.16
-1.085
-1.005
-0.95
-0.91
-0.89
-0.895
-0.91
-0.905
-0.895
-0.91
-0.9
-0.89
-0.885
-0.875
-0.87
-0.875
-0.88
-0.885
-0.89
-0.895
-0.915
-0.92
-0.92
-0.92
-0.915
-0.9
-0.895
-0.885
-0.89
-0.9
-0.89
-0.905
-0.9
-0.92
-0.92
-0.915
-0.91
-0.91
-0.91
-0.91
-0.915
-0.91
-0.92
-0.94
-0.95
-0.945
-0.965
-0.965
-0.975
-0.965
-0.96
-0.96
-0.97
-0.98
-0.99
-0.985
-1.005
-1.02
-1.015
-1.01
-1.0
-0.995
-0.99
-0.99
-0.985
-1.0
-1.0
-1.015
-1.03
-1.035
-1.035
-1.025
-1.025
-1.025
-1.025
-1.005
-0.995
-0.99
-0.99
-0.995
-0.995
-1.0
-0.995
-1.005
-0.985
-0.965
-0.955
-0.94
-0.91
-0.895
-0.88
-0.86
-0.84
-0.835
-0.815
-0.78
-0.755
-0.73
-0.72
-0.685
-0.655
-0.65
-0.64
-0.635
-0.64
-0.645
-0.65
-0.645
-0.64
-0.64
-0.64
-0.635
-0.645
-0.66
-0.65
-0.67
-0.675
-0.685
-0.695
-0.69
-0.69
-0.675
-0.67
-0.665
-0.67
-0.665
-0.675
-0.67
-0.685
-0.705
-0.7
-0.695
-0.71
-0.7
-0.69
-0.68
-0.675
-0.685
-0.7
-0.705
-0.715
-0.71
-0.715
-0.73
-0.725
-0.71
-0.71
-0.72
-0.71
-0.715
-0.735
-0.74
-0.74
-0.755
-0.75
-0.75
-0.74
-0.735
-0.725
-0.72
-0.705
-0.71
-0.715
-0.725
-0.725
-0.735
-0.725
-0.73
-0.72
-0.71
-0.695
-0.675
-0.66
-0.665
-0.64
-0.65
-0.665
-0.655
-0.655
-0.645
-0.645
-0.635
-0.63
-0.615
-0.605
-0.61
-0.605
-0.61
-0.625
-0.635
-0.65
-0.655
-0.675
-0.685
-0.69
-0.685
-0.695
-0.7
-0.71
-0.73
-0.76
-0.75
-0.76
-0.78
-0.775
-0.78
-0.78
-0.78
-0.785
-0.785
-0.785
-0.8
-0.805
-0.815
-0.815
-0.805
-0.805
-0.8
-0.795
-0.795
-0.795
-0.79
-0.79
-0.79
-0.8
-0.795
-0.8
-0.795
-0.805
-0.795
-0.8
-0.76
-0.725
-0.665
-0.59
-0.495
-0.365
-0.23
-0.09
-0.01
-0.005
-0.08
-0.215
-0.38
-0.555
-0.75
-0.95
-1.135
-1.26
-1.315
-1.305
-1.265
-1.21
-1.14
-1.08
-1.02
-0.995
-0.97
-0.955
-0.95
-0.935
-0.93
-0.92
-0.925
-0.915
-0.91
-0.905
-0.895
-0.89
-0.9
-0.9
-0.895
-0.91
-0.915
-0.925
-0.93
-0.925
-0.91
-0.905
-0.91
-0.895
-0.895
-0.9
-0.915
-0.93
-0.925
-0.94
-0.94
-0.935
-0.935
-0.93
-0.935
-0.925
-0.94
-0.94
-0.95
-0.95
-0.955
-0.965
-0.98
-0.975
-0.965
-0.96
-0.955
-0.955
-0.95
-0.955
-0.97
-0.975
-0.99
-0.985
-1.0
-0.995
-1.0
-0.99
-0.99
-0.99
-1.01
-1.01
-1.015
-1.015
-1.02
-1.025
-1.02
-1.025
-1.025
-1.02
-1.005
-1.01
-1.01
-1.01
-1.01
-1.01
-1.005
-0.995
-0.98
-0.965
-0.94
-0.93
-0.92
-0.9
-0.88
-0.87
-0.85
-0.84
-0.82
-0.81
-0.785
-0.775
-0.76
-0.745
-0.72
-0.69
-0.69
-0.675
-0.67
-0.66
-0.66
-0.655
-0.65
-0.65
-0.65
-0.645
-0.645
-0.635
-0.635
-0.635
-0.64
-0.655
-0.67
-0.675
-0.675
-0.665
-0.675
-0.67
-0.675
-0.67
-0.695
-0.69
-0.69
-0.695
-0.71
-0.71
-0.715
-0.715
-0.705
-0.705
-0.7
-0.69
-0.695
-0.7
-0.715
-0.73
-0.735
-0.735
-0.745
-0.72
-0.74
-0.725
-0.72
-0.715
-0.71
-0.7
-0.72
-0.725
-0.72
-0.725
-0.735
-0.72
-0.72
-0.7
-0.705
-0.69
-0.7
-0.715
-0.72
-0.74
-0.75
-0.73
-0.74
-0.74
-0.72
-0.71
-0.705
-0.695
-0.69
-0.695
-0.695
-0.68
-0.68
-0.675
-0.67
-0.675
-0.65
-0.635
-0.635
-0.62
-0.625
-0.625
-0.615
-0.61
-0.62
-0.64
-0.63
-0.63
-0.62
-0.625
-0.635
-0.635
-0.645
-0.665
-0.685
-0.69
-0.72
-0.73
-0.765
-0.79
-0.79
-0.8
-0.805
-0.78
-0.8
-0.795
-0.8
-0.81
-0.81
-0.83
-0.825
-0.82
-0.815
-0.815
-0.79
-0.795
-0.79
-0.79
-0.78
-0.79
-0.785
-0.785
-0.775
-0.75
-0.71
-0.655
-0.59
-0.51
-0.41
-0.295
-0.18
-0.095
-0.04
-0.03
-0.115
-0.24
-0.385
-0.525
-0.67
-0.8
-0.97
-1.13
-1.22
-1.26
-1.245
-1.215
-1.185
-1.115
-1.07
-1.015
-0.98
-0.935
-0.93
-0.92
-0.92
-0.91
-0.905
-0.915
-0.915
-0.915
-0.905
-0.89
-0.87
-0.875
-0.88
-0.895
-0.905
-0.92
-0.935
-0.94
-0.95
-0.94
-0.935
-0.91
-0.915
-0.905
-0.91
-0.91
-0.915
-0.93
-0.93
-0.95
-0.945
-0.94
-0.945
-0.935
-0.93
-0.91
-0.92
-0.93
-0.935
-0.955
-0.95
-0.955
-0.965
-0.965
-0.97
-0.965
-0.95
-0.945
-0.955
-0.955
-0.965
-0.97
-0.975
-0.995
-1.01
-1.015
-1.015
-1.015
-1.0
-0.995
-0.985
-0.985
-0.99
-0.995
-0.995
-1.0
-1.0
-1.015
-0.995
-0.985
-0.97
-0.97
-0.97
-0.975
-0.95
-0.955
-0.955
-0.955
-0.945
-0.92
-0.875
-0.865
-0.85
-0.815
-0.795
-0.81
-0.795
-0.79
-0.76
-0.745
-0.73
-0.695
-0.68
-0.65
-0.63
-0.615
-0.62
-0.615
-0.635
-0.635
-0.64
-0.655
-0.655
-0.66
-0.66
-0.655
-0.655
-0.645
-0.65
-0.655
-0.675
-0.675
-0.68
-0.69
-0.695
-0.695
-0.68
-0.705
-0.71
-0.695
-0.68
-0.7
-0.705
-0.715
-0.71
-0.735
-0.735
-0.74
-0.735
-0.72
-0.72
-0.72
-0.72
-0.72
-0.725
-0.72
-0.725
-0.725
-0.72
-0.725
-0.72
-0.725
-0.715
-0.7
-0.7
-0.7
-0.715
-0.72
-0.735
-0.745
-0.75
-0.755
-0.74
-0.73
-0.725
-0.715
-0.73
-0.725
-0.745
-0.745
-0.745
-0.745
-0.745
-0.75
-0.745
-0.725
-0.71
-0.7
-0.695
-0.705
-0.685
-0.68
-0.675
-0.655
-0.655
-0.655
-0.645
-0.645
-0.635
-0.625
-0.63
-0.635
-0.64
-0.64
-0.64
-0.645
-0.65
-0.655
-0.65
-0.655
-0.655
-0.655
-0.665
-0.68
-0.71
-0.72
-0.745
-0.755
-0.755
-0.765
-0.74
-0.745
-0.755
-0.755
-0.77
-0.77
-0.775
-0.79
-0.8
-0.8
-0.8
-0.81
-0.79
-0.795
-0.8
-0.785
-0.785
-0.79
-0.785
-0.79
-0.805
-0.8
-0.795
-0.8
-0.8
-0.795
-0.785
-0.785
-0.765
-0.75
-0.725
-0.695
-0.65
-0.585
-0.48
-0.355
-0.205
-0.08
-0.03
-0.05
-0.165
-0.31
-0.48
-0.645
-0.825
-0.995
-1.135
-1.21
-1.2
-1.17
-1.14
-1.105
-1.1
-1.065
-1.035
-1.015
-0.99
-0.96
-0.94
-0.92
-0.895
-0.88
-0.885
-0.88
-0.885
-0.895
-0.91
-0.92
-0.935
-0.955
-0.945
-0.94
-0.915
-0.895
-0.9
-0.89
-0.88
-0.885
-0.89
-0.905
-0.91
-0.905
-0.905
-0.895
-0.9
-0.9
-0.91
-0.895
-0.895
-0.9
-0.905
-0.92
-0.925
-0.945
-0.94
-0.95
-0.955
-0.94
-0.95
-0.93
-0.925
-0.93
-0.94
-0.94
-0.955
-0.96
-0.96
-0.98
-0.98
-0.97
-0.975
-0.965
-0.965
-0.965
-0.965
-0.97
-0.97
-0.96
-0.97
-0.97
-0.97
-0.96
-0.955
-0.94
-0.91
-0.9
-0.875
-0.855
-0.875
-0.88
-0.93
-0.98
-0.995
-1.0
-1.0
-0.985
-0.97
-0.94
-0.925
-0.905
-0.885
-0.87
-0.855
-0.835
-0.8
-0.77
-0.74
-0.735
-0.73
-0.705
-0.68
-0.67
-0.675
-0.675
-0.675
-0.67
-0.67
-0.65
-0.65
-0.63
-0.63
-0.63
-0.64
-0.66
-0.675
-0.675
-0.675
-0.67
-0.66
-0.65
-0.645
-0.655
-0.66
-0.7
-0.705
-0.71
-0.71
-0.71
-0.71
-0.7
-0.7
-0.705
-0.73
-0.73
-0.745
-0.755
-0.755
-0.735
-0.715
-0.71
-0.71
-0.715
-0.735
-0.76
-0.77
-0.755
-0.74
-0.735
-0.715
-0.695
-0.685
-0.71
-0.725
-0.745
-0.765
-0.765
-0.76
-0.74
-0.715
-0.69
-0.68
-0.705
-0.735
-0.76
-0.765
-0.77
-0.75
-0.715
-0.68
-0.64
-0.605
-0.6
-0.605
-0.62
-0.635
-0.645
-0.675
-0.7
-0.715
-0.73
-0.72
-0.7
-0.65
-0.6
-0.605
-0.59
-0.62
-0.645
-0.675
-0.675
-0.67
-0.655
-0.645
-0.625
-0.605
-0.61
-0.63
-0.67
-0.685
-0.69
-0.7
-0.69
-0.675
-0.675
-0.67
-0.65
-0.665
-0.675
-0.705
-0.735
-0.78
-0.805
-0.81
-0.805
-0.79
-0.76
-0.735
-0.72
-0.725
-0.7
-0.695
-0.715
-0.735
-0.785
-0.825
-0.85
-0.875
-0.875
-0.84
-0.81
-0.765
-0.74
-0.725
-0.71
-0.695
-0.665
-0.6
-0.505
-0.385
-0.235
-0.085
0.04
0.105
0.08
-0.03
-0.19
-0.365
-0.535
-0.685
-0.85
-1.01
-1.155
-1.22
-1.21
-1.155
-1.095
-1.09
-1.115
-1.14
-1.165
-1.145
-1.075
-0.99
-0.91
-0.855
-0.83
-0.845
-0.87
-0.9
-0.925
-0.945
-0.935
-0.93
-0.895
-0.865
-0.855
-0.86
-0.875
-0.905
-0.935
-0.93
-0.92
-0.885
-0.865
-0.86
-0.875
-0.905
-0.915
-0.925
-0.905
-0.88
-0.845
-0.835
-0.855
-0.9
-0.95
-0.99
-1.04
-1.025
-1.005
-0.995
-0.98
-0.985
-0.975
-0.99
-0.995
-1.0
-1.01
-1.005
-0.99
-0.98
-0.97
-0.96
-0.95
-0.94
-0.95
-0.96
-0.985
-0.995
-1.0
-0.985
-0.975
-0.955
-0.935
-0.92
-0.885
-0.88
-0.905
-0.935
-0.97
-1.015
-1.06
-1.11
-1.105
-1.09
-1.07
-1.045
-1.005
-0.99
-1.0
-0.995
-0.985
-0.97
-0.95
-0.925
-0.9
-0.875
-0.86
-0.85
-0.83
-0.805
-0.785
-0.765
-0.73
-0.715
-0.685
-0.68
-0.675
-0.67
-0.655
-0.66
-0.65
-0.625
-0.6
-0.575
-0.57
-0.59
-0.65
-0.68
-0.725
-0.705
-0.715
-0.72
-0.73
-0.745
-0.745
-0.74
-0.735
-0.735
-0.735
-0.745
-0.76
-0.755
-0.745
-0.725
-0.7
-0.69
-0.705
-0.73
-0.755
-0.785
-0.785
-0.795
-0.76
-0.765
-0.735
-0.715
-0.715
-0.735
-0.725
-0.755
-0.76
-0.79
-0.77
-0.765
-0.765
-0.745
-0.735
-0.73
-0.715
-0.69
-0.645
-0.625
-0.62
-0.64
-0.71
-0.765
-0.8
-0.815
-0.79
-0.765
-0.745
-0.755
-0.77
-0.795
-0.795
-0.8
-0.805
-0.79
-0.76
-0.71
-0.68
-0.65
-0.62
-0.605
-0.6
-0.61
-0.635
-0.665
-0.695
-0.705
-0.73
-0.73
-0.715
-0.7
-0.675
-0.67
-0.67
-0.67
-0.675
-0.665
-0.66
-0.67
-0.67
-0.69
-0.705
-0.725
-0.735
-0.745
-0.745
-0.755
-0.765
-0.78
-0.79
-0.805
-0.81
-0.8
-0.795
-0.78
-0.78
-0.775
-0.78
-0.775
-0.78
-0.79
-0.8
-0.83
-0.84
-0.84
-0.835
-0.81
-0.77
-0.745
-0.73
-0.735
-0.75
-0.78
-0.795
