Lead II
-0.815
-0.79
-0.755
-0.735
-0.705
-0.67
-0.63
-0.615
-0.585
-0.56
-0.545
-0.535
-0.525
-0.52
-0.515
-0.525
-0.525
-0.515
-0.505
-0.495
-0.5
-0.485
-0.5
-0.49
-0.5
-0.505
-0.51
-0.52
-0.51
-0.53
-0.53
-0.515
-0.52
-0.525
-0.52
-0.52
-0.51
-0.51
-0.52
-0.525
-0.51
-0.515
-0.505
-0.5
-0.49
-0.475
-0.485
-0.475
-0.475
-0.47
-0.475
-0.475
-0.475
-0.47
-0.48
-0.48
-0.47
-0.46
-0.475
-0.455
-0.465
-0.485
-0.475
-0.485
-0.485
-0.485
-0.475
-0.455
-0.45
-0.45
-0.455
-0.44
-0.45
-0.46
-0.46
-0.47
-0.46
-0.465
-0.46
-0.46
-0.46
-0.45
-0.455
-0.46
-0.475
-0.495
-0.5
-0.505
-0.495
-0.505
-0.51
-0.5
-0.495
-0.485
-0.485
-0.485
-0.485
-0.495
-0.505
-0.51
-0.51
-0.515
-0.505
-0.505
-0.495
-0.485
-0.485
-0.49
-0.49
-0.495
-0.495
-0.51
-0.51
-0.5
-0.48
-0.47
-0.46
-0.455
-0.465
-0.475
-0.485
-0.495
-0.495
-0.495
-0.495
-0.495
-0.485
-0.5
-0.485
-0.465
-0.475
-0.48
-0.48
-0.48
-0.485
-0.485
-0.475
-0.47
-0.45
-0.44
-0.42
-0.425
-0.42
-0.415
-0.415
-0.42
-0.44
-0.435
-0.445
-0.475
-0.475
-0.5
-0.535
-0.515
-0.445
-0.33
-0.145
0.075
0.355
0.68
1.035
1.4
1.74
1.965
2.09
2.09
2.02
1.825
1.47
0.97
0.36
-0.195
-0.57
-0.745
-0.75
-0.665
-0.58
-0.465
-0.425
-0.425
-0.45
-0.485
-0.52
-0.55
-0.545
-0.54
-0.54
-0.53
-0.505
-0.505
-0.52
-0.535
-0.55
-0.565
-0.575
-0.58
-0.575
-0.56
-0.535
-0.525
-0.52
-0.5
-0.505
-0.5
-0.485
-0.5
-0.51
-0.51
-0.515
-0.515
-0.515
-0.515
-0.525
-0.525
-0.53
-0.545
-0.54
-0.55
-0.555
-0.575
-0.56
-0.56
-0.545
-0.55
-0.545
-0.565
-0.56
-0.575
-0.585
-0.595
-0.59
-0.6
-0.605
-0.6
-0.595
-0.605
-0.6
-0.61
-0.63
-0.635
-0.64
-0.66
-0.685
-0.695
-0.705
-0.715
-0.71
-0.71
-0.71
-0.715
-0.725
-0.745
-0.76
-0.785
-0.805
-0.815
-0.84
-0.855
-0.855
-0.87
-0.87
-0.87
-0.875
-0.89
-0.885
-0.895
-0.9
-0.895
-0.89
-0.875
-0.86
-0.84
-0.81
-0.785
-0.75
-0.725
-0.69
-0.66
-0.635
-0.605
-0.565
-0.54
-0.495
-0.465
-0.43
-0.385
-0.37
-0.345
-0.325
-0.305
-0.295
-0.29
-0.29
-0.285
-0.265
-0.255
-0.24
-0.22
-0.21
-0.205
-0.21
-0.205
-0.21
-0.215
-0.22
-0.225
-0.21
-0.2
-0.19
-0.185
-0.165
-0.17
-0.17
-0.165
-0.165
-0.165
-0.165
-0.155
-0.135
-0.125
-0.115
-0.12
-0.115
-0.11
-0.12
-0.135
-0.125
-0.125
-0.115
-0.1
-0.085
-0.08
-0.075
-0.06
-0.045
-0.04
-0.03
-0.045
-0.045
-0.04
-0.035
-0.03
-0.045
-0.03
-0.02
-0.015
-0.01
-0.015
-0.025
-0.04
-0.065
-0.065
-0.065
-0.065
-0.065
-0.05
-0.045
-0.04
-0.04
-0.03
-0.04
-0.055
-0.07
-0.065
-0.075
-0.075
-0.06
-0.05
-0.04
-0.025
-0.025
-0.025
-0.025
-0.02
-0.02
-0.035
-0.025
-0.01
-0.01
-0.01
-0.005
0.0
-0.01
-0.01
-0.02
-0.015
-0.015
-0.01
0.0
0.01
0.025
0.03
0.04
0.04
0.035
0.055
0.05
0.045
0.045
0.05
0.05
0.05
0.06
0.085
0.1
0.1
0.095
0.095
0.07
0.06
0.05
0.035
0.035
0.03
0.035
0.04
0.045
0.04
0.04
0.035
0.015
-0.01
-0.035
-0.08
-0.11
-0.11
-0.045
0.095
0.285
0.525
0.805
1.125
1.455
1.745
1.965
2.095
2.17
2.14
2.085
1.99
1.805
1.465
1.01
0.505
0.095
-0.14
-0.215
-0.185
-0.12
-0.035
0.005
0.045
0.03
0.005
-0.03
-0.03
-0.05
-0.04
-0.05
-0.055
-0.05
-0.05
-0.05
-0.045
-0.025
-0.015
-0.01
-0.02
-0.02
-0.04
-0.05
-0.07
-0.085
-0.085
-0.075
-0.085
-0.07
-0.07
-0.075
-0.075
-0.085
-0.095
-0.115
-0.125
-0.12
-0.125
-0.13
-0.125
-0.13
-0.13
-0.135
-0.15
-0.15
-0.17
-0.195
-0.2
-0.215
-0.215
-0.21
-0.21
-0.205
-0.2
-0.21
-0.205
-0.24
-0.245
-0.265
-0.275
-0.275
-0.275
-0.285
-0.285
-0.29
-0.3
-0.315
-0.33
-0.35
-0.38
-0.395
-0.415
-0.425
-0.425
-0.445
-0.46
-0.47
-0.48
-0.495
-0.51
-0.53
-0.54
-0.56
-0.575
-0.575
-0.595
-0.6
-0.605
-0.595
-0.595
-0.585
-0.59
-0.58
-0.56
-0.54
-0.515
-0.475
-0.44
-0.41
-0.37
-0.33
-0.295
-0.26
-0.225
-0.21
-0.185
-0.16
-0.15
-0.135
-0.115
-0.085
-0.07
-0.055
-0.03
-0.03
-0.025
-0.03
-0.025
-0.015
-0.02
-0.015
-0.01
-0.015
-0.01
0.0
0.005
0.005
0.01
0.0
0.0
-0.005
-0.015
-0.025
-0.02
-0.02
-0.015
0.0
-0.015
-0.005
-0.005
-0.015
-0.025
-0.02
-0.03
-0.02
-0.025
-0.03
-0.01
-0.005
0.015
0.02
0.01
0.025
0.01
0.005
-0.01
-0.025
-0.02
-0.02
-0.005
0.01
0.02
0.005
0.015
0.005
-0.005
-0.02
-0.01
-0.005
-0.005
0.005
0.0
0.015
0.015
0.01
-0.005
-0.015
-0.02
-0.025
-0.03
-0.03
-0.035
-0.03
-0.01
-0.01
0.0
0.0
-0.005
-0.005
-0.035
-0.045
-0.035
-0.035
-0.04
-0.04
-0.03
-0.02
-0.03
-0.03
-0.03
-0.045
-0.045
-0.055
-0.065
-0.08
-0.075
-0.075
-0.07
-0.065
-0.07
-0.065
-0.06
-0.055
-0.05
-0.055
-0.06
-0.065
-0.07
-0.075
-0.07
-0.07
-0.065
-0.08
-0.09
-0.095
-0.12
-0.125
-0.13
-0.125
-0.13
-0.13
-0.115
-0.115
-0.095
-0.105
-0.095
-0.1
-0.11
-0.13
-0.145
-0.15
-0.165
-0.155
-0.155
-0.14
-0.125
-0.12
-0.125
-0.125
-0.125
-0.12
-0.13
-0.135
-0.135
-0.135
-0.14
-0.14
-0.135
-0.14
-0.14
-0.145
-0.145
-0.155
-0.15
-0.165
-0.185
-0.175
-0.185
-0.18
-0.18
-0.165
-0.165
-0.165
-0.16
-0.165
-0.175
-0.17
-0.14
-0.13
-0.115
-0.11
-0.1
-0.115
-0.12
-0.13
-0.14
-0.155
-0.185
-0.215
-0.25
-0.27
-0.255
-0.195
-0.1
0.06
0.255
0.485
0.73
1.0
1.285
1.53
1.73
1.87
1.935
1.955
1.92
1.83
1.675
1.395
0.96
0.46
-0.01
-0.33
-0.465
-0.47
-0.415
-0.34
-0.275
-0.24
-0.265
-0.285
-0.33
-0.37
-0.395
-0.405
-0.395
-0.385
-0.39
-0.39
-0.39
-0.41
-0.43
-0.455
-0.46
-0.485
-0.49
-0.5
-0.485
-0.48
-0.465
-0.45
-0.435
-0.43
-0.435
-0.46
-0.48
-0.485
-0.495
-0.5
-0.5
-0.485
-0.5
-0.505
-0.51
-0.51
-0.52
-0.525
-0.54
-0.55
-0.565
-0.57
-0.565
-0.575
-0.57
-0.57
-0.56
-0.565
-0.58
-0.58
-0.6
-0.61
-0.62
-0.63
-0.63
-0.635
-0.645
-0.645
-0.645
-0.66
-0.665
-0.675
-0.695
-0.72
-0.735
-0.745
-0.77
-0.775
-0.795
-0.795
-0.8
-0.825
-0.845
-0.87
-0.91
-0.93
-0.96
-1.005
-1.01
-1.04
-1.05
-1.075
-1.075
-1.085
-1.09
-1.09
-1.105
-1.1
-1.11
-1.11
-1.1
-1.085
-1.07
-1.055
-1.03
-1.01
-0.995
-0.975
-0.96
-0.925
-0.9
-0.86
-0.825
-0.78
-0.74
-0.71
-0.67
-0.645
-0.635
-0.615
-0.605
-0.595
-0.58
-0.55
-0.535
-0.505
-0.495
-0.485
-0.47
-0.46
-0.47
-0.465
-0.485
-0.49
-0.495
-0.495
-0.485
-0.47
-0.46
-0.465
-0.45
-0.45
-0.44
-0.45
-0.46
-0.465
-0.47
-0.48
-0.485
-0.485
-0.49
-0.49
-0.5
-0.495
-0.5
-0.51
-0.515
-0.51
-0.51
-0.505
-0.485
-0.485
-0.47
-0.465
-0.445
-0.435
-0.45
-0.455
-0.47
-0.475
-0.475
-0.48
-0.485
-0.48
-0.47
-0.47
-0.465
-0.475
-0.475
-0.49
-0.495
-0.505
-0.51
-0.515
-0.52
-0.52
-0.51
-0.51
-0.51
-0.51
-0.51
-0.53
-0.54
-0.555
-0.57
-0.555
-0.555
-0.545
-0.545
-0.54
-0.525
-0.52
-0.525
-0.525
-0.535
-0.545
-0.54
-0.55
-0.55
-0.555
-0.545
-0.54
-0.545
-0.545
-0.56
-0.56
-0.58
-0.585
-0.6
-0.615
-0.625
-0.64
-0.625
-0.565
-0.44
-0.25
-0.025
0.25
0.56
0.89
1.205
1.455
1.64
1.72
1.705
1.63
1.46
1.13
0.645
0.075
-0.435
-0.76
-0.905
-0.905
-0.82
-0.73
-0.66
-0.63
-0.64
-0.65
-0.705
-0.735
-0.745
-0.75
-0.76
-0.76
-0.76
-0.75
-0.765
-0.77
-0.77
-0.775
-0.78
-0.785
-0.785
-0.8
-0.8
-0.805
-0.82
-0.82
-0.815
-0.805
-0.8
-0.805
-0.815
-0.825
-0.83
-0.845
-0.845
-0.86
-0.87
-0.865
-0.875
-0.885
-0.89
-0.885
-0.89
-0.895
-0.895
-0.9
-0.89
-0.885
-0.875
-0.865
-0.86
-0.855
-0.84
-0.85
-0.86
-0.875
-0.875
-0.9
-0.91
-0.92
-0.925
-0.935
-0.95
-0.96
-0.965
-0.975
-0.995
-1.015
-1.04
-1.055
-1.07
-1.1
-1.1
-1.125
-1.135
-1.155
-1.175
-1.185
-1.19
-1.215
-1.23
-1.245
-1.255
-1.26
-1.275
-1.275
-1.265
-1.275
-1.245
-1.22
-1.21
-1.19
-1.175
-1.165
-1.145
-1.12
-1.09
-1.055
-1.035
-1.0
-0.975
-0.955
-0.945
-0.93
-0.92
-0.895
-0.885
-0.86
-0.845
-0.83
-0.805
-0.79
-0.78
-0.755
-0.755
-0.745
-0.745
-0.75
-0.76
-0.77
-0.775
-0.77
-0.765
-0.765
-0.75
-0.755
-0.76
-0.765
-0.785
-0.785
-0.8
-0.795
-0.79
-0.795
-0.79
-0.78
-0.77
-0.765
-0.765
-0.79
-0.79
-0.795
-0.8
-0.8
-0.795
-0.775
-0.77
-0.755
-0.75
-0.76
-0.745
-0.75
-0.75
-0.75
-0.75
-0.755
-0.77
-0.765
-0.78
-0.775
-0.78
-0.775
-0.785
-0.79
-0.795
-0.795
-0.795
-0.795
-0.79
-0.795
-0.785
-0.77
-0.765
-0.76
-0.75
-0.75
-0.75
-0.76
-0.765
-0.775
-0.76
-0.77
-0.765
-0.77
-0.76
-0.76
-0.77
-0.775
-0.775
-0.795
-0.8
-0.81
-0.805
-0.815
-0.81
-0.805
-0.79
-0.8
-0.795
-0.8
-0.82
-0.83
-0.84
-0.86
-0.85
-0.85
-0.835
-0.83
-0.825
-0.82
-0.81
-0.815
-0.81
-0.815
-0.83
-0.83
-0.82
-0.825
-0.815
-0.82
-0.815
-0.82
-0.835
-0.825
-0.825
-0.825
-0.825
-0.82
-0.82
-0.805
-0.805
-0.795
-0.795
-0.77
-0.775
-0.775
-0.77
-0.77
-0.775
-0.77
-0.765
-0.775
-0.78
-0.76
-0.76
-0.75
-0.765
-0.78
-0.79
-0.81
-0.845
-0.89
-0.92
-0.91
-0.855
-0.735
-0.53
-0.29
0.0
0.335
0.69
1.045
1.335
1.545
1.655
1.665
1.585
1.41
1.09
0.59
-0.005
-0.575
-0.96
-1.145
-1.165
-1.105
-1.0
-0.93
-0.89
-0.875
-0.895
-0.93
-0.955
-0.96
-0.975
-0.975
-0.99
-0.99
-0.995
-1.0
-1.005
-1.015
-1.005
-1.01
-1.02
-1.015
-1.025
-1.035
-1.025
-1.02
-1.005
-0.995
-1.0
-0.99
-0.985
-0.985
-0.99
-1.0
-1.025
-1.04
-1.045
-1.06
-1.055
-1.08
-1.075
-1.05
-1.04
-1.045
-1.05
-1.065
-1.075
-1.09
-1.11
-1.125
-1.125
-1.12
-1.125
-1.125
-1.135
-1.12
-1.155
-1.16
-1.175
-1.185
-1.22
-1.22
-1.225
-1.25
-1.26
-1.275
-1.27
-1.29
-1.295
-1.31
-1.32
-1.345
-1.37
-1.39
-1.405
-1.425
-1.44
-1.455
-1.465
-1.51
-1.53
-1.54
-1.55
-1.555
-1.55
-1.54
-1.54
-1.525
-1.52
-1.51
-1.49
-1.475
-1.45
-1.43
-1.4
-1.39
-1.34
-1.315
-1.27
-1.23
-1.19
-1.16
-1.115
-1.085
-1.055
-1.04
-1.025
-1.015
-1.005
-0.995
-0.97
-0.955
-0.93
-0.93
-0.92
-0.9
-0.89
-0.89
-0.885
-0.875
-0.89
-0.875
-0.87
-0.865
-0.86
-0.87
-0.87
-0.875
-0.87
-0.875
-0.885
-0.89
-0.91
-0.905
-0.9
-0.92
-0.93
-0.925
-0.95
-0.95
-0.975
-0.975
-0.985
-0.965
-0.965
-0.955
-0.955
-0.925
-0.915
-0.905
-0.89
-0.86
-0.84
-0.835
-0.835
-0.835
-0.84
-0.845
-0.85
-0.84
-0.825
-0.82
-0.81
-0.8
-0.795
-0.8
-0.805
-0.82
-0.82
-0.835
-0.84
-0.83
-0.83
-0.82
-0.825
-0.82
-0.805
-0.82
-0.82
-0.825
-0.835
-0.845
-0.845
-0.855
-0.845
-0.825
-0.82
-0.81
-0.815
-0.82
-0.83
-0.83
-0.84
-0.845
-0.84
-0.835
-0.835
-0.82
-0.825
-0.825
-0.835
-0.85
-0.85
-0.865
-0.875
-0.88
-0.88
-0.89
-0.89
-0.895
-0.875
-0.865
-0.85
-0.85
-0.85
-0.865
-0.88
-0.885
-0.87
-0.86
-0.84
-0.82
-0.81
-0.805
-0.8
-0.8
-0.8
-0.81
-0.81
-0.81
-0.805
-0.795
-0.795
-0.78
-0.79
-0.78
-0.775
-0.785
-0.8
-0.79
-0.785
-0.8
-0.795
-0.795
-0.79
-0.775
-0.77
-0.765
-0.765
-0.765
-0.77
-0.775
-0.775
-0.785
-0.775
-0.77
-0.765
-0.765
-0.76
-0.76
-0.76
-0.77
-0.78
-0.78
-0.78
-0.78
-0.775
-0.765
-0.775
-0.765
-0.745
-0.75
-0.75
-0.76
-0.76
-0.775
-0.78
-0.79
-0.785
-0.78
-0.765
-0.76
-0.74
-0.715
-0.705
-0.7
-0.7
-0.71
-0.74
-0.78
-0.78
-0.75
-0.67
-0.525
-0.33
-0.07
0.22
0.57
0.91
1.24
1.52
1.68
1.755
1.745
1.67
1.535
1.265
0.85
0.3
-0.24
-0.635
-0.845
-0.885
-0.84
-0.77
-0.7
-0.64
-0.625
-0.62
-0.64
-0.675
-0.705
-0.72
-0.715
-0.72
-0.74
-0.745
-0.755
-0.76
-0.75
-0.755
-0.76
-0.75
-0.75
-0.765
-0.775
-0.78
-0.78
-0.775
-0.785
-0.79
-0.795
-0.805
-0.805
-0.805
-0.81
-0.815
-0.82
-0.83
-0.825
-0.82
-0.805
-0.785
-0.77
-0.76
-0.735
-0.74
-0.74
-0.735
-0.76
-0.775
-0.785
-0.77
-0.775
-0.77
-0.76
-0.765
-0.75
-0.755
-0.755
-0.76
-0.78
-0.785
-0.79
-0.79
-0.795
-0.795
-0.795
-0.785
-0.785
-0.795
-0.81
-0.825
-0.83
-0.84
-0.86
-0.86
-0.875
-0.88
-0.895
-0.9
-0.91
-0.935
-0.955
-0.97
-1.0
-1.015
-1.03
-1.035
-1.07
-1.06
-1.065
-1.09
-1.08
-1.105
-1.12
-1.12
-1.115
-1.115
-1.115
-1.1
-1.08
-1.065
-1.02
-0.975
-0.925
-0.88
-0.83
-0.795
-0.745
-0.705
-0.67
-0.625
-0.58
-0.555
-0.525
-0.505
-0.475
-0.465
-0.46
-0.44
-0.43
-0.425
-0.41
-0.39
-0.38
-0.365
-0.35
-0.345
-0.345
-0.355
-0.345
-0.35
-0.335
-0.335
-0.34
-0.325
-0.315
-0.305
-0.32
-0.31
-0.31
-0.315
-0.295
-0.3
-0.315
-0.325
-0.31
-0.305
-0.31
-0.29
-0.285
-0.27
-0.26
-0.255
-0.245
-0.245
-0.245
-0.26
-0.27
-0.255
-0.26
-0.25
-0.235
-0.22
-0.21
-0.205
-0.195
-0.19
-0.2
-0.21
-0.21
-0.22
-0.22
-0.22
-0.23
-0.21
-0.19
-0.185
-0.18
-0.17
-0.16
-0.155
-0.16
-0.13
-0.135
-0.125
-0.12
-0.11
-0.115
-0.125
-0.12
-0.14
-0.15
-0.155
-0.16
-0.155
-0.155
-0.145
-0.15
-0.14
-0.13
-0.135
-0.13
-0.14
-0.14
-0.155
-0.15
-0.155
-0.145
-0.135
-0.145
-0.135
-0.135
-0.13
-0.14
-0.145
-0.145
-0.16
-0.165
-0.165
-0.17
-0.165
-0.17
-0.16
-0.145
-0.13
-0.14
-0.145
-0.16
-0.16
-0.155
-0.145
-0.15
-0.14
-0.125
-0.115
-0.11
-0.1
-0.095
-0.085
-0.085
-0.1
-0.115
-0.12
-0.135
-0.13
-0.14
-0.135
-0.125
-0.145
-0.15
-0.17
-0.18
-0.15
-0.085
0.06
0.24
0.47
0.735
1.015
1.295
1.54
1.735
1.855
1.9
1.875
1.825
1.76
1.6
1.34
0.95
0.485
0.085
-0.155
-0.255
-0.28
-0.255
-0.2
-0.155
-0.125
-0.12
-0.13
-0.16
-0.18
-0.2
-0.195
-0.2
-0.2
-0.225
-0.235
-0.255
-0.265
-0.255
-0.26
-0.265
-0.255
-0.26
-0.26
-0.265
-0.27
-0.275
-0.275
-0.29
-0.305
-0.295
-0.3
-0.29
-0.295
-0.285
-0.315
-0.3
-0.295
-0.315
-0.32
-0.325
-0.32
-0.325
-0.33
-0.34
-0.32
-0.315
-0.32
-0.315
-0.33
-0.31
-0.32
-0.32
-0.325
-0.32
-0.31
-0.32
-0.32
-0.32
-0.315
-0.34
-0.355
-0.365
-0.385
-0.405
-0.41
-0.415
-0.41
-0.425
-0.425
-0.425
-0.445
-0.45
-0.48
-0.5
-0.53
-0.55
-0.56
-0.57
-0.58
-0.595
-0.61
-0.635
-0.65
-0.675
-0.69
-0.705
-0.715
-0.725
-0.725
-0.73
-0.735
-0.715
-0.705
-0.695
-0.67
-0.64
-0.615
-0.58
-0.545
-0.51
-0.47
-0.43
-0.395
-0.375
-0.345
-0.33
-0.32
-0.305
-0.31
-0.275
-0.245
-0.24
-0.215
-0.21
-0.2
-0.2
-0.19
-0.17
-0.165
-0.165
-0.175
-0.185
-0.195
-0.205
-0.205
-0.205
-0.195
-0.19
-0.185
-0.165
-0.165
-0.165
-0.17
-0.16
-0.17
-0.185
-0.18
-0.18
-0.185
-0.185
-0.175
-0.175
-0.18
-0.18
-0.19
-0.2
-0.21
-0.235
-0.215
-0.22
-0.205
-0.19
-0.195
-0.18
-0.18
-0.18
-0.185
-0.205
-0.205
-0.21
-0.205
-0.21
-0.21
-0.2
-0.195
-0.2
-0.2
-0.205
-0.205
-0.205
-0.2
-0.21
-0.205
-0.205
-0.195
-0.19
-0.19
-0.18
-0.16
-0.17
-0.165
-0.165
-0.19
-0.185
-0.195
-0.215
-0.2
-0.2
-0.215
-0.205
-0.215
-0.21
-0.215
-0.24
-0.25
-0.245
-0.245
-0.25
-0.24
-0.24
-0.23
-0.23
-0.225
-0.23
-0.245
-0.25
-0.255
-0.27
-0.265
-0.29
-0.305
-0.28
-0.275
-0.275
-0.265
-0.275
-0.29
-0.3
-0.28
-0.285
-0.29
-0.3
-0.305
-0.315
-0.34
-0.365
-0.37
-0.34
-0.25
-0.1
0.07
0.28
0.54
0.825
1.125
1.39
1.6
1.725
1.775
1.775
1.7
1.62
1.45
1.165
0.73
0.24
-0.175
-0.42
-0.5
-0.475
-0.42
-0.335
-0.295
-0.29
-0.3
-0.33
-0.36
-0.38
-0.39
-0.39
-0.38
-0.385
-0.365
-0.385
-0.4
-0.42
-0.425
-0.455
-0.455
-0.45
-0.45
-0.445
-0.435
-0.44
-0.445
-0.45
-0.485
-0.49
-0.505
-0.52
-0.54
-0.545
-0.55
-0.545
-0.54
-0.54
-0.555
-0.545
-0.56
-0.57
-0.57
-0.58
-0.585
-0.59
-0.59
-0.6
-0.6
-0.605
-0.61
-0.625
-0.645
-0.665
-0.68
-0.695
-0.71
-0.72
-0.745
-0.755
-0.74
-0.745
-0.75
-0.76
-0.765
-0.785
-0.78
-0.79
-0.8
-0.805
-0.81
-0.805
-0.815
-0.83
-0.835
-0.875
-0.885
-0.92
-0.93
-0.95
-0.98
-0.99
-1.0
-1.01
-1.02
-1.025
-1.035
-1.055
-1.065
-1.08
-1.09
-1.095
-1.1
-1.09
-1.08
-1.055
-1.045
-1.01
-0.97
-0.95
-0.905
-0.88
-0.855
-0.835
-0.8
-0.77
-0.73
-0.695
-0.65
-0.63
-0.605
-0.595
-0.575
-0.58
-0.58
-0.58
-0.575
-0.565
-0.555
-0.545
-0.535
-0.535
-0.535
-0.535
-0.525
-0.525
-0.52
-0.53
-0.52
-0.52
-0.52
-0.51
-0.51
-0.495
-0.505
-0.5
-0.505
-0.52
-0.53
-0.535
-0.535
-0.535
-0.54
-0.54
-0.535
-0.525
-0.525
-0.52
-0.535
-0.54
-0.54
-0.555
-0.565
-0.56
-0.555
-0.565
-0.57
-0.57
-0.575
-0.585
-0.59
-0.595
-0.615
-0.62
-0.625
-0.64
-0.63
-0.625
-0.63
-0.625
-0.62
-0.63
-0.64
-0.66
-0.67
-0.67
-0.675
-0.66
-0.65
-0.655
-0.66
-0.63
-0.64
-0.63
-0.64
-0.635
-0.635
-0.64
-0.645
-0.64
-0.63
-0.615
-0.615
-0.595
-0.6
-0.595
-0.605
-0.61
-0.615
-0.64
-0.64
-0.635
-0.62
-0.615
-0.615
-0.615
-0.62
-0.625
-0.64
-0.65
-0.66
-0.66
-0.655
-0.665
-0.65
-0.655
-0.65
-0.66
-0.67
-0.69
-0.705
-0.715
-0.74
-0.76
-0.765
-0.77
-0.76
-0.765
-0.77
-0.765
-0.765
-0.78
-0.79
-0.785
-0.78
-0.785
-0.77
-0.76
-0.765
-0.75
-0.745
-0.74
-0.74
-0.745
-0.76
-0.755
-0.77
-0.765
-0.77
-0.755
-0.745
-0.74
-0.74
-0.72
-0.72
-0.715
-0.725
-0.725
-0.72
-0.73
-0.725
-0.74
-0.725
-0.74
-0.735
-0.765
-0.805
-0.82
-0.825
-0.79
-0.66
-0.475
-0.235
0.06
0.385
0.745
1.065
1.35
1.52
1.605
1.605
1.55
1.43
1.24
0.895
0.4
-0.16
-0.665
-0.975
-1.095
-1.09
-1.025
-0.96
-0.89
-0.89
-0.91
-0.925
-0.955
-0.965
-0.97
-0.975
-0.95
-0.935
-0.93
-0.94
-0.96
-0.975
-1.0
-1.01
-1.025
-1.02
-1.015
-0.995
-0.985
-0.98
-0.98
-0.99
-1.0
-1.01
-1.025
-1.03
-1.04
-1.04
-1.035
-1.05
-1.045
-1.065
-1.075
-1.085
-1.1
-1.105
-1.105
-1.11
-1.12
-1.13
-1.125
-1.115
-1.125
-1.13
-1.135
-1.15
-1.175
-1.185
-1.19
-1.205
-1.2
-1.195
-1.185
-1.19
-1.195
-1.215
-1.22
-1.25
-1.27
-1.295
-1.305
-1.33
-1.34
-1.355
-1.37
-1.38
-1.37
-1.37
-1.38
-1.395
-1.425
-1.45
-1.465
-1.47
-1.48
-1.48
-1.485
-1.495
-1.505
-1.535
-1.56
-1.575
-1.57
-1.595
-1.605
-1.615
-1.605
-1.6
-1.59
-1.57
-1.55
-1.54
-1.52
-1.495
-1.475
-1.45
-1.415
-1.375
-1.335
-1.28
-1.245
-1.195
-1.165
-1.135
-1.11
-1.1
-1.095
-1.11
-1.08
-1.07
-1.055
-1.025
-1.005
-0.985
-0.95
-0.95
-0.95
-0.955
-0.985
-1.0
-1.01
-1.015
-1.03
-1.02
-1.035
-1.025
-1.035
-1.015
-1.015
-0.99
-0.97
-0.97
-0.96
-0.955
-0.95
-0.94
-0.93
-0.92
-0.92
-0.915
-0.925
-0.93
-0.925
-0.93
-0.925
-0.92
-0.905
-0.9
-0.895
-0.895
-0.89
-0.9
-0.905
-0.92
-0.92
-0.925
-0.935
-0.935
-0.94
-0.93
-0.92
-0.905
-0.905
-0.9
-0.905
-0.91
-0.93
-0.93
-0.945
-0.96
-0.955
-0.965
-0.98
-0.95
-0.94
-0.95
-0.955
-0.95
-0.96
-0.97
-0.97
-0.975
-0.98
-0.99
-0.98
-0.98
-0.99
-1.005
-1.025
-1.035
-1.065
-1.06
-1.065
-1.065
-1.065
-1.04
-1.025
-1.015
-0.99
-0.99
-0.985
-0.975
-0.98
-0.995
-1.005
-1.0
-1.0
-1.02
-1.01
-1.01
-0.99
-1.0
-0.985
-0.985
-0.995
-1.0
-1.005
-1.015
-1.01
-1.015
-1.01
-1.0
-1.0
-1.0
-1.005
-1.01
-1.015
-1.04
-1.04
-1.05
-1.04
-1.035
-1.02
-1.02
-1.02
-1.02
-1.015
-1.035
-1.04
-1.045
-1.07
-1.07
-1.065
-1.055
-1.06
-1.045
-1.04
-1.045
-1.045
-1.06
-1.07
-1.085
-1.1
-1.1
-1.105
-1.105
-1.085
-1.075
-1.075
-1.07
-1.08
-1.085
-1.09
-1.095
-1.09
-1.085
-1.08
-1.075
-1.06
-1.045
-1.035
-1.035
-1.04
-1.055
-1.05
-1.065
-1.055
-1.05
-1.045
-1.035
-1.02
-1.02
-1.01
-1.01
-1.005
-1.0
-0.995
-1.0
-1.01
-1.03
-1.05
-1.07
-1.095
-1.12
-1.09
-1.02
-0.885
-0.67
-0.42
-0.12
0.23
0.58
0.92
1.19
1.37
1.445
1.455
1.365
1.2
0.89
0.44
-0.115
-0.66
-1.055
-1.26
-1.32
-1.28
-1.215
-1.14
-1.1
-1.095
-1.11
-1.155
-1.18
-1.205
-1.235
-1.235
-1.225
-1.225
-1.215
-1.23
-1.245
-1.265
-1.28
-1.285
-1.28
-1.285
-1.295
-1.295
-1.28
-1.28
-1.27
-1.285
-1.295
-1.305
-1.315
-1.335
-1.36
-1.37
-1.38
-1.385
-1.38
-1.37
-1.37
-1.36
-1.355
-1.36
-1.365
-1.37
-1.36
-1.365
-1.365
-1.365
-1.355
-1.37
-1.365
-1.365
-1.365
-1.375
-1.38
-1.39
-1.4
-1.415
-1.43
-1.43
-1.43
-1.43
-1.435
-1.43
-1.45
-1.455
-1.46
-1.485
-1.5
-1.52
-1.535
-1.555
-1.565
-1.57
-1.58
-1.6
-1.61
-1.64
-1.665
-1.675
-1.705
-1.725
-1.75
-1.76
-1.765
-1.775
-1.79
-1.795
-1.8
-1.815
-1.83
-1.85
-1.855
-1.85
-1.835
-1.81
-1.78
-1.745
-1.705
-1.665
-1.615
-1.58
-1.545
-1.51
-1.485
-1.455
-1.415
-1.385
-1.355
-1.33
-1.315
-1.28
-1.275
-1.27
-1.265
-1.26
-1.28
-1.27
-1.275
-1.26
-1.255
-1.25
-1.235
-1.235
-1.225
-1.225
-1.235
-1.24
-1.245
-1.265
-1.265
-1.265
-1.265
-1.25
-1.245
-1.23
-1.23
-1.245
-1.245
-1.255
-1.25
-1.245
-1.245
-1.24
-1.225
-1.21
-1.195
-1.2
-1.19
-1.195
-1.185
-1.21
-1.215
-1.215
-1.215
-1.21
-1.22
-1.21
-1.195
-1.19
-1.19
-1.17
-1.17
-1.18
-1.19
-1.185
-1.175
-1.18
-1.175
-1.155
-1.15
-1.14
-1.125
-1.135
-1.135
-1.15
-1.175
-1.185
-1.17
-1.19
-1.18
-1.19
-1.2
-1.21
-1.245
-1.275
-1.295
-1.275
-1.185
-1.015
-0.8
-0.525
-0.21
0.125
0.48
0.815
1.1
1.28
1.37
1.375
1.31
1.17
0.91
0.485
-0.065
-0.635
-1.09
-1.33
-1.43
-1.42
-1.375
-1.335
-1.32
-1.315
-1.34
-1.36
-1.37
-1.39
-1.39
-1.395
-1.41
-1.41
-1.43
-1.425
-1.42
-1.425
-1.42
-1.425
-1.415
-1.415
-1.41
-1.405
-1.405
-1.39
-1.395
-1.4
-1.41
-1.395
-1.395
-1.405
-1.38
-1.385
-1.38
-1.38
-1.385
-1.4
-1.405
-1.42
-1.435
-1.445
-1.445
-1.46
-1.46
-1.455
-1.46
-1.46
-1.455
-1.465
-1.475
-1.49
-1.51
-1.51
-1.535
-1.545
-1.55
-1.545
-1.55
-1.545
-1.56
-1.56
-1.57
-1.6
-1.605
-1.62
-1.64
-1.65
-1.66
-1.65
-1.65
-1.67
-1.68
-1.685
-1.7
-1.72
-1.74
-1.755
-1.775
-1.785
-1.78
-1.795
-1.795
-1.815
-1.815
-1.82
-1.845
-1.85
-1.86
-1.87
-1.865
-1.85
-1.83
-1.805
-1.785
-1.755
-1.74
-1.705
-1.68
-1.65
-1.62
-1.6
-1.585
-1.545
-1.515
-1.495
-1.48
-1.45
-1.425
-1.415
-1.405
-1.405
-1.39
-1.395
-1.38
-1.37
-1.365
-1.34
-1.34
-1.33
-1.33
-1.34
-1.335
-1.35
-1.35
-1.36
-1.38
-1.37
-1.365
-1.355
-1.355
-1.355
-1.36
-1.365
-1.36
-1.365
-1.37
-1.36
-1.37
-1.36
-1.36
-1.345
-1.345
-1.345
-1.335
-1.335
-1.35
-1.36
-1.375
-1.38
-1.395
-1.38
-1.38
-1.39
-1.37
-1.365
-1.35
-1.37
-1.35
-1.365
-1.345
-1.345
-1.355
-1.35
-1.345
-1.33
-1.325
-1.315
-1.305
-1.31
-1.305
-1.315
-1.32
-1.325
-1.35
-1.33
-1.32
-1.305
-1.31
-1.3
-1.31
-1.305
-1.31
-1.32
-1.32
-1.33
-1.335
-1.345
-1.35
-1.34
-1.34
-1.34
-1.335
-1.355
-1.355
-1.365
-1.37
-1.375
-1.385
-1.405
-1.39
-1.375
-1.365
-1.355
-1.345
-1.36
-1.35
-1.36
-1.375
-1.39
-1.405
-1.415
-1.42
-1.425
-1.42
-1.41
-1.405
-1.405
-1.4
-1.4
-1.405
-1.405
-1.405
-1.41
-1.41
-1.405
-1.4
-1.375
-1.35
-1.345
-1.34
-1.345
-1.335
-1.345
-1.36
-1.34
-1.335
-1.325
-1.31
-1.31
-1.3
-1.315
-1.315
-1.33
-1.335
-1.35
-1.345
-1.345
-1.345
-1.34
-1.33
-1.325
-1.325
-1.325
-1.33
-1.345
-1.345
-1.36
-1.36
-1.355
-1.35
-1.335
-1.35
-1.33
-1.325
-1.33
-1.335
-1.345
-1.355
-1.37
-1.385
-1.42
-1.43
-1.41
-1.34
-1.21
-1.02
-0.79
-0.505
-0.195
0.17
0.515
0.855
1.11
1.275
1.33
1.3
1.185
0.91
0.48
-0.1
-0.735
-1.255
-1.585
-1.69
-1.675
-1.58
-1.46
-1.395
-1.36
-1.37
-1.41
-1.44
-1.485
-1.475
-1.5
-1.49
-1.48
-1.48
-1.485
-1.48
-1.49
-1.495
-1.495
-1.505
-1.52
-1.52
-1.525
-1.53
-1.53
-1.52
-1.525
-1.535
-1.54
-1.545
-1.55
-1.555
-1.575
-1.59
-1.6
-1.6
-1.6
-1.59
-1.6
-1.59
-1.585
-1.58
-1.57
-1.585
-1.59
-1.615
-1.615
-1.64
-1.645
-1.65
-1.645
-1.64
-1.625
-1.625
-1.61
-1.61
-1.635
-1.64
-1.655
-1.665
-1.68
-1.69
-1.705
-1.7
-1.71
-1.705
-1.715
-1.735
-1.76
-1.775
-1.79
-1.81
-1.815
-1.82
-1.83
-1.84
-1.845
-1.86
-1.87
-1.895
-1.915
-1.925
-1.955
-1.97
-1.965
-1.99
-1.985
-1.995
-2.01
-2.015
-2.035
-2.05
-2.075
-2.07
-2.075
-2.06
-2.05
-2.03
-1.995
-1.955
-1.915
-1.87
-1.845
-1.81
-1.795
-1.755
-1.735
-1.7
-1.675
-1.635
-1.59
-1.58
-1.545
-1.515
-1.49
-1.475
-1.46
-1.45
-1.44
-1.43
-1.39
-1.375
-1.36
-1.325
-1.305
-1.3
-1.305
-1.3
-1.295
-1.305
-1.32
-1.32
-1.31
-1.32
-1.305
-1.3
-1.295
-1.29
-1.305
-1.305
-1.32
-1.32
-1.34
-1.335
-1.32
-1.31
-1.32
-1.315
-1.3
-1.285
-1.285
-1.295
-1.31
-1.31
-1.315
-1.31
-1.31
-1.31
-1.305
-1.305
-1.295
-1.3
-1.305
-1.3
-1.3
-1.305
-1.315
-1.31
-1.315
-1.3
-1.29
-1.29
-1.29
-1.28
-1.285
-1.3
-1.3
-1.305
-1.31
-1.325
-1.33
-1.31
-1.29
-1.275
-1.26
-1.23
-1.23
-1.235
-1.23
-1.23
-1.235
-1.24
-1.235
-1.24
-1.24
-1.235
-1.23
-1.22
-1.215
-1.225
-1.225
-1.23
-1.235
-1.245
-1.25
-1.245
-1.235
-1.225
-1.21
-1.21
-1.205
-1.205
-1.215
-1.235
-1.23
-1.235
-1.24
-1.25
-1.24
-1.245
-1.24
-1.23
-1.24
-1.24
-1.25
-1.255
-1.265
-1.265
-1.26
-1.265
-1.25
-1.25
-1.235
-1.235
-1.23
-1.23
-1.235
-1.235
-1.235
-1.24
-1.23
-1.225
-1.23
-1.225
-1.225
-1.22
-1.225
-1.225
-1.235
-1.235
-1.235
-1.25
-1.245
-1.235
-1.22
-1.21
-1.19
-1.165
-1.18
-1.185
-1.195
-1.23
-1.245
-1.25
-1.195
-1.105
-0.92
-0.695
-0.415
-0.085
0.28
0.655
1.015
1.28
1.43
1.495
1.46
1.315
1.05
0.605
0.03
-0.575
-1.05
-1.31
-1.41
-1.375
-1.305
-1.215
-1.175
-1.16
-1.16
-1.18
-1.21
-1.235
-1.25
-1.255
-1.26
-1.26
-1.265
-1.27
-1.28
-1.29
-1.29
-1.3
-1.3
-1.285
-1.29
-1.31
-1.305
-1.315
-1.335
-1.335
-1.335
-1.33
-1.335
-1.335
-1.33
-1.33
-1.34
-1.345
-1.345
-1.37
-1.375
-1.39
-1.385
-1.375
-1.365
-1.37
-1.37
-1.36
-1.355
-1.36
-1.36
-1.375
-1.39
-1.385
-1.385
-1.395
-1.385
-1.395
-1.385
-1.38
-1.4
-1.41
-1.42
-1.43
-1.45
-1.465
-1.46
-1.465
-1.485
-1.49
-1.49
-1.49
-1.5
-1.515
-1.54
-1.555
-1.57
-1.595
-1.61
-1.615
-1.62
-1.62
-1.625
-1.62
-1.64
-1.655
-1.665
-1.685
-1.715
-1.72
-1.725
-1.725
-1.725
-1.71
-1.7
-1.69
