Lead II
-0.575
-0.62
-0.645
-0.645
-0.65
-0.66
-0.67
-0.69
-0.71
-0.73
-0.745
-0.75
-0.745
-0.745
-0.735
-0.735
-0.73
-0.725
-0.7
-0.695
-0.665
-0.65
-0.655
-0.67
-0.69
-0.69
-0.7
-0.675
-0.65
-0.595
-0.56
-0.525
-0.49
-0.47
-0.46
-0.435
-0.415
-0.38
-0.38
-0.37
-0.35
-0.375
-0.385
-0.39
-0.415
-0.44
-0.495
-0.56
-0.615
-0.67
-0.72
-0.74
-0.75
-0.745
-0.72
-0.715
-0.71
-0.725
-0.73
-0.745
-0.745
-0.73
-0.72
-0.715
-0.72
-0.72
-0.73
-0.74
-0.735
-0.72
-0.7
-0.7
-0.72
-0.74
-0.775
-0.805
-0.82
-0.835
-0.8
-0.71
-0.53
-0.295
0.015
0.365
0.75
1.15
1.52
1.82
2.01
2.035
1.88
1.59
1.185
0.725
0.24
-0.2
-0.61
-0.97
-1.27
-1.46
-1.52
-1.485
-1.36
-1.215
-1.075
-1.0
-0.97
-1.005
-1.05
-1.105
-1.13
-1.14
-1.15
-1.12
-1.105
-1.11
-1.12
-1.135
-1.145
-1.16
-1.175
-1.19
-1.18
-1.185
-1.195
-1.205
-1.22
-1.205
-1.205
-1.205
-1.19
-1.195
-1.205
-1.21
-1.215
-1.215
-1.2
-1.2
-1.18
-1.16
-1.155
-1.155
-1.14
-1.14
-1.145
-1.125
-1.105
-1.07
-1.04
-1.02
-1.01
-0.985
-0.95
-0.93
-0.9
-0.87
-0.85
-0.825
-0.81
-0.785
-0.74
-0.71
-0.67
-0.62
-0.57
-0.545
-0.535
-0.505
-0.49
-0.45
-0.42
-0.38
-0.34
-0.31
-0.285
-0.255
-0.23
-0.215
-0.195
-0.165
-0.155
-0.14
-0.14
-0.135
-0.13
-0.125
-0.115
-0.105
-0.095
-0.105
-0.115
-0.15
-0.175
-0.185
-0.21
-0.23
-0.215
-0.23
-0.245
-0.26
-0.29
-0.33
-0.375
-0.4
-0.425
-0.44
-0.47
-0.485
-0.515
-0.53
-0.555
-0.57
-0.575
-0.6
-0.615
-0.625
-0.64
-0.665
-0.685
-0.69
-0.675
-0.68
-0.66
-0.645
-0.635
-0.635
-0.65
-0.655
-0.68
-0.67
-0.66
-0.63
-0.605
-0.565
-0.54
-0.505
-0.51
-0.49
-0.475
-0.46
-0.44
-0.43
-0.42
-0.415
-0.415
-0.42
-0.41
-0.43
-0.45
-0.49
-0.545
-0.6
-0.675
-0.725
-0.76
-0.78
-0.8
-0.785
-0.785
-0.785
-0.785
-0.785
-0.79
-0.8
-0.795
-0.795
-0.805
-0.805
-0.805
-0.805
-0.8
-0.79
-0.785
-0.76
-0.76
-0.775
-0.795
-0.815
-0.835
-0.85
-0.86
-0.875
-0.825
-0.78
-0.665
-0.48
-0.215
0.125
0.54
1.02
1.47
1.835
2.02
1.965
1.725
1.335
0.865
0.395
-0.06
-0.48
-0.845
-1.13
-1.285
-1.305
-1.22
-1.1
-0.99
-0.895
-0.885
-0.905
-0.97
-1.015
-1.045
-1.065
-1.06
-1.055
-1.055
-1.06
-1.08
-1.065
-1.075
-1.075
-1.08
-1.11
-1.135
-1.155
-1.165
-1.15
-1.145
-1.14
-1.125
-1.12
-1.12
-1.14
-1.15
-1.155
-1.15
-1.15
-1.14
-1.13
-1.125
-1.115
-1.11
-1.075
-1.035
-1.02
-1.0
-0.99
-0.99
-0.975
-0.95
-0.9
-0.87
-0.82
-0.785
-0.75
-0.715
-0.675
-0.635
-0.605
-0.56
-0.525
-0.5
-0.455
-0.425
-0.38
-0.325
-0.265
-0.205
-0.17
-0.135
-0.12
-0.11
-0.095
-0.08
-0.045
-0.02
0.01
0.035
0.045
0.045
0.045
0.05
0.055
0.045
0.05
0.025
0.01
-0.005
-0.025
-0.02
-0.025
-0.025
-0.04
-0.06
-0.105
-0.13
-0.145
-0.185
-0.195
-0.19
-0.21
-0.23
-0.26
-0.29
-0.33
-0.35
-0.38
-0.385
-0.42
-0.455
-0.48
-0.505
-0.51
-0.51
-0.51
-0.5
-0.5
-0.525
-0.53
-0.55
-0.565
-0.575
-0.55
-0.555
-0.535
-0.52
-0.51
-0.5
-0.475
-0.455
-0.425
-0.4
-0.375
-0.365
-0.36
-0.36
-0.335
-0.32
-0.28
-0.255
-0.24
-0.245
-0.265
-0.32
-0.37
-0.415
-0.45
-0.49
-0.535
-0.555
-0.585
-0.605
-0.625
-0.62
-0.62
-0.63
-0.61
-0.61
-0.61
-0.62
-0.61
-0.61
-0.595
-0.585
-0.575
-0.575
-0.58
-0.595
-0.6
-0.61
-0.595
-0.59
-0.59
-0.57
-0.575
-0.605
-0.625
-0.64
-0.595
-0.485
-0.28
0.01
0.38
0.815
1.275
1.695
2.04
2.25
2.275
2.13
1.835
1.47
1.04
0.605
0.2
-0.155
-0.47
-0.74
-0.935
-1.02
-1.0
-0.925
-0.815
-0.72
-0.68
-0.68
-0.7
-0.745
-0.785
-0.81
-0.825
-0.825
-0.815
-0.82
-0.82
-0.825
-0.84
-0.86
-0.875
-0.895
-0.895
-0.895
-0.9
-0.885
-0.88
-0.9
-0.915
-0.94
-0.96
-0.945
-0.94
-0.925
-0.925
-0.925
-0.935
-0.92
-0.92
-0.91
-0.91
-0.9
-0.89
-0.885
-0.89
-0.865
-0.855
-0.825
-0.795
-0.755
-0.74
-0.72
-0.685
-0.67
-0.645
-0.625
-0.58
-0.545
-0.505
-0.45
-0.42
-0.375
-0.35
-0.31
-0.29
-0.25
-0.2
-0.16
-0.11
-0.07
-0.04
-0.02
0.005
0.045
0.075
0.1
0.145
0.175
0.195
0.205
0.225
0.255
0.28
0.305
0.31
0.32
0.32
0.315
0.305
0.285
0.295
0.305
0.295
0.305
0.31
0.305
0.295
0.26
0.235
0.195
0.175
0.15
0.135
0.12
0.11
0.085
0.07
0.045
0.025
0.005
-0.005
-0.04
-0.07
-0.115
-0.17
-0.2
-0.22
-0.245
-0.245
-0.255
-0.27
-0.295
-0.32
-0.35
-0.38
-0.39
-0.395
-0.395
-0.395
-0.405
-0.43
-0.43
-0.42
-0.42
-0.4
-0.395
-0.395
-0.395
-0.375
-0.37
-0.355
-0.32
-0.28
-0.23
-0.205
-0.185
-0.16
-0.14
-0.145
-0.115
-0.1
-0.105
-0.09
-0.095
-0.115
-0.145
-0.2
-0.265
-0.305
-0.34
-0.375
-0.405
-0.42
-0.445
-0.465
-0.47
-0.475
-0.46
-0.455
-0.435
-0.44
-0.455
-0.46
-0.475
-0.465
-0.465
-0.455
-0.45
-0.44
-0.435
-0.44
-0.43
-0.43
-0.415
-0.425
-0.43
-0.445
-0.455
-0.445
-0.36
-0.205
0.03
0.365
0.745
1.165
1.58
1.94
2.15
2.12
1.89
1.515
1.065
0.615
0.22
-0.12
-0.405
-0.635
-0.82
-0.965
-1.045
-1.075
-1.035
-0.94
-0.83
-0.74
-0.665
-0.635
-0.65
-0.675
-0.705
-0.745
-0.77
-0.765
-0.77
-0.76
-0.76
-0.755
-0.78
-0.78
-0.8
-0.815
-0.82
-0.83
-0.825
-0.82
-0.845
-0.845
-0.83
-0.805
-0.785
-0.77
-0.76
-0.75
-0.76
-0.755
-0.76
-0.76
-0.76
-0.735
-0.69
-0.665
-0.635
-0.61
-0.585
-0.595
-0.565
-0.545
-0.505
-0.465
-0.44
-0.425
-0.395
-0.375
-0.34
-0.32
-0.285
-0.23
-0.205
-0.18
-0.15
-0.13
-0.105
-0.075
-0.065
-0.03
-0.01
0.03
0.055
0.09
0.115
0.14
0.185
0.205
0.225
0.245
0.25
0.27
0.27
0.28
0.28
0.285
0.275
0.26
0.235
0.21
0.18
0.17
0.18
0.175
0.16
0.165
0.145
0.115
0.08
0.05
0.03
0.005
-0.01
-0.02
-0.04
-0.07
-0.1
-0.12
-0.15
-0.16
-0.195
-0.215
-0.23
-0.285
-0.33
-0.365
-0.405
-0.42
-0.42
-0.415
-0.43
-0.44
-0.47
-0.51
-0.535
-0.56
-0.57
-0.56
-0.54
-0.55
-0.55
-0.54
-0.55
-0.545
-0.535
-0.525
-0.53
-0.53
-0.545
-0.55
-0.54
-0.53
-0.51
-0.48
-0.47
-0.44
-0.415
-0.415
-0.41
-0.405
-0.38
-0.34
-0.285
-0.255
-0.21
-0.18
-0.18
-0.165
-0.18
-0.2
-0.22
-0.25
-0.3
-0.365
-0.425
-0.47
-0.51
-0.535
-0.545
-0.55
-0.555
-0.565
-0.565
-0.575
-0.58
-0.565
-0.565
-0.55
-0.55
-0.535
-0.54
-0.55
-0.565
-0.555
-0.55
-0.535
-0.525
-0.525
-0.525
-0.535
-0.545
-0.56
-0.58
-0.59
-0.595
-0.595
-0.545
-0.42
-0.23
0.05
0.405
0.815
1.285
1.715
2.07
2.285
2.285
2.115
1.805
1.455
1.055
0.67
0.265
-0.09
-0.445
-0.755
-1.035
-1.23
-1.31
-1.28
-1.17
-1.035
-0.915
-0.835
-0.79
-0.78
-0.805
-0.825
-0.845
-0.85
-0.87
-0.89
-0.895
-0.895
-0.905
-0.92
-0.92
-0.895
-0.89
-0.89
-0.88
-0.895
-0.91
-0.905
-0.91
-0.91
-0.905
-0.89
-0.91
-0.905
-0.895
-0.88
-0.865
-0.86
-0.83
-0.83
-0.825
-0.82
-0.825
-0.82
-0.815
-0.795
-0.78
-0.74
-0.73
-0.715
-0.685
-0.68
-0.67
-0.66
-0.63
-0.605
-0.56
-0.535
-0.51
-0.475
-0.46
-0.43
-0.395
-0.36
-0.325
-0.305
-0.285
-0.275
-0.25
-0.23
-0.2
-0.155
-0.135
-0.11
-0.06
-0.045
-0.03
-0.025
-0.015
0.005
0.03
0.07
0.085
0.1
0.1
0.095
0.08
0.065
0.06
0.06
0.065
0.05
0.04
0.025
0.015
0.015
0.0
-0.015
-0.035
-0.06
-0.1
-0.14
-0.18
-0.215
-0.24
-0.24
-0.265
-0.28
-0.305
-0.345
-0.37
-0.395
-0.415
-0.445
-0.465
-0.47
-0.475
-0.485
-0.5
-0.505
-0.515
-0.52
-0.52
-0.525
-0.54
-0.56
-0.555
-0.555
-0.545
-0.52
-0.515
-0.49
-0.48
-0.495
-0.505
-0.5
-0.485
-0.465
-0.46
-0.415
-0.38
-0.35
-0.325
-0.32
-0.3
-0.27
-0.25
-0.235
-0.215
-0.225
-0.235
-0.265
-0.28
-0.305
-0.35
-0.395
-0.43
-0.485
-0.535
-0.585
-0.615
-0.635
-0.63
-0.615
-0.605
-0.595
-0.6
-0.61
-0.61
-0.615
-0.605
-0.62
-0.615
-0.615
-0.62
-0.63
-0.635
-0.615
-0.605
-0.59
-0.59
-0.59
-0.6
-0.63
-0.655
-0.67
-0.69
-0.67
-0.605
-0.47
-0.28
0.005
0.365
0.795
1.275
1.72
2.05
2.17
2.06
1.75
1.305
0.795
0.305
-0.125
-0.475
-0.805
-1.05
-1.19
-1.21
-1.12
-0.98
-0.865
-0.775
-0.76
-0.79
-0.82
-0.87
-0.89
-0.905
-0.905
-0.89
-0.905
-0.91
-0.93
-0.94
-0.94
-0.935
-0.93
-0.925
-0.925
-0.935
-0.96
-0.975
-0.985
-0.99
-0.99
-0.975
-0.965
-0.97
-0.96
-0.975
-0.965
-0.96
-0.945
-0.925
-0.91
-0.905
-0.9
-0.9
-0.885
-0.855
-0.825
-0.815
-0.775
-0.76
-0.745
-0.735
-0.725
-0.705
-0.67
-0.63
-0.585
-0.55
-0.52
-0.49
-0.455
-0.425
-0.395
-0.355
-0.32
-0.295
-0.26
-0.245
-0.225
-0.165
-0.12
-0.075
-0.03
0.0
0.035
0.05
0.065
0.075
0.085
0.115
0.145
0.175
0.18
0.205
0.19
0.2
0.19
0.19
0.19
0.19
0.175
0.16
0.145
0.135
0.115
0.115
0.09
0.07
0.055
0.02
-0.01
-0.035
-0.06
-0.065
-0.07
-0.085
-0.095
-0.12
-0.145
-0.175
-0.21
-0.23
-0.235
-0.26
-0.285
-0.285
-0.305
-0.315
-0.325
-0.315
-0.305
-0.3
-0.3
-0.315
-0.335
-0.34
-0.35
-0.34
-0.315
-0.3
-0.27
-0.24
-0.23
-0.225
-0.2
-0.18
-0.155
-0.15
-0.135
-0.12
-0.095
-0.085
-0.075
-0.07
-0.08
-0.105
-0.155
-0.22
-0.285
-0.335
-0.375
-0.4
-0.405
-0.425
-0.43
-0.425
-0.43
-0.435
-0.44
-0.455
-0.47
-0.455
-0.46
-0.46
-0.455
-0.445
-0.445
-0.455
-0.44
-0.44
-0.435
-0.435
-0.425
-0.44
-0.445
-0.455
-0.455
-0.47
-0.465
-0.47
-0.48
-0.455
-0.38
-0.235
-0.005
0.305
0.695
1.17
1.635
2.015
2.265
2.305
2.16
1.845
1.465
1.04
0.605
0.195
-0.16
-0.485
-0.745
-0.895
-0.935
-0.875
-0.77
-0.655
-0.585
-0.545
-0.555
-0.6
-0.635
-0.66
-0.67
-0.69
-0.68
-0.685
-0.695
-0.695
-0.71
-0.71
-0.725
-0.735
-0.75
-0.755
-0.765
-0.77
-0.77
-0.76
-0.735
-0.745
-0.75
-0.765
-0.785
-0.795
-0.805
-0.795
-0.78
-0.77
-0.76
-0.745
-0.745
-0.735
-0.73
-0.71
-0.695
-0.685
-0.67
-0.66
-0.64
-0.625
-0.605
-0.57
-0.53
-0.495
-0.465
-0.44
-0.425
-0.405
-0.37
-0.32
-0.265
-0.22
-0.17
-0.13
-0.09
-0.065
-0.035
-0.01
0.025
0.075
0.11
0.135
0.16
0.19
0.195
0.24
0.29
0.33
0.36
0.385
0.38
0.39
0.385
0.4
0.415
0.44
0.45
0.46
0.44
0.425
0.405
0.385
0.37
0.35
0.33
0.315
0.29
0.275
0.255
0.255
0.24
0.22
0.185
0.15
0.11
0.075
0.03
0.02
0.015
-0.015
-0.035
-0.05
-0.085
-0.11
-0.125
-0.13
-0.15
-0.16
-0.175
-0.19
-0.195
-0.205
-0.19
-0.19
-0.185
-0.185
-0.175
-0.175
-0.17
-0.145
-0.12
-0.09
-0.055
-0.035
-0.01
0.01
0.04
0.07
0.1
0.13
0.12
0.125
0.105
0.08
0.045
-0.01
-0.045
-0.095
-0.145
-0.19
-0.235
-0.255
-0.27
-0.265
-0.255
-0.245
-0.245
-0.24
-0.255
-0.26
-0.27
-0.27
-0.26
-0.25
-0.25
-0.265
-0.28
-0.275
-0.27
-0.26
-0.245
-0.25
-0.235
-0.25
-0.265
-0.28
-0.285
-0.25
-0.14
0.03
0.265
0.54
0.84
1.195
1.58
1.955
2.245
2.4
2.34
2.085
1.705
1.255
0.78
0.35
-0.02
-0.32
-0.56
-0.71
-0.79
-0.765
-0.69
-0.57
-0.46
-0.39
-0.38
-0.405
-0.445
-0.49
-0.515
-0.525
-0.525
-0.51
-0.515
-0.51
-0.52
-0.52
-0.54
-0.55
-0.555
-0.545
-0.555
-0.57
-0.57
-0.58
-0.59
-0.6
-0.585
-0.575
-0.57
-0.565
-0.55
-0.555
-0.555
-0.525
-0.51
-0.485
-0.475
-0.45
-0.455
-0.44
-0.42
-0.395
-0.35
-0.315
-0.27
-0.25
-0.225
-0.205
-0.18
-0.145
-0.1
-0.055
-0.015
0.03
0.055
0.095
0.095
0.105
0.145
0.18
0.2
0.235
0.27
0.295
0.32
0.35
0.385
0.415
0.425
0.455
0.46
0.465
0.47
0.48
0.49
0.49
0.495
0.485
0.485
0.49
0.485
0.475
0.46
0.445
0.39
0.37
0.345
0.305
0.285
0.265
0.26
0.245
0.225
0.2
0.165
0.14
0.105
0.085
0.06
0.045
0.03
-0.01
-0.055
-0.09
-0.135
-0.17
-0.175
-0.18
-0.195
-0.225
-0.265
-0.305
-0.33
-0.35
-0.345
-0.345
-0.345
-0.35
-0.345
-0.35
-0.35
-0.355
-0.335
-0.325
-0.31
-0.295
-0.29
-0.295
-0.285
-0.285
-0.285
-0.28
-0.27
-0.27
-0.27
-0.25
-0.215
-0.17
-0.13
-0.075
-0.03
-0.005
0.005
0.0
0.0
-0.005
0.005
0.01
0.0
-0.025
-0.045
-0.085
-0.14
-0.205
-0.26
-0.295
-0.345
-0.365
-0.375
-0.365
-0.36
-0.355
-0.34
-0.34
-0.325
-0.32
-0.36
-0.37
-0.385
-0.39
-0.385
-0.375
-0.345
-0.33
-0.305
-0.305
-0.325
-0.355
-0.385
-0.4
-0.405
-0.415
-0.435
-0.415
-0.345
-0.195
0.055
0.375
0.795
1.245
1.695
2.055
2.29
2.305
2.135
1.8
1.36
0.88
0.415
0.025
-0.29
-0.57
-0.825
-1.03
-1.16
-1.155
-1.095
-0.97
-0.84
-0.74
-0.68
-0.66
-0.67
-0.665
-0.68
-0.715
-0.73
-0.755
-0.765
-0.75
-0.74
-0.705
-0.7
-0.705
-0.72
-0.74
-0.755
-0.76
-0.78
-0.76
-0.745
-0.72
-0.72
-0.72
-0.73
-0.735
-0.735
-0.725
-0.715
-0.68
-0.685
-0.68
-0.67
-0.655
-0.645
-0.615
-0.585
-0.565
-0.55
-0.535
-0.535
-0.53
-0.515
-0.505
-0.47
-0.455
-0.425
-0.405
-0.385
-0.36
-0.345
-0.305
-0.27
-0.235
-0.205
-0.19
-0.175
-0.155
-0.12
-0.095
-0.055
-0.02
0.02
0.05
0.075
0.09
0.105
0.135
0.165
0.175
0.21
0.225
0.235
0.25
0.265
0.275
0.28
0.285
0.29
0.275
0.25
0.235
0.21
0.195
0.19
0.18
0.165
0.155
0.12
0.085
0.04
0.0
-0.025
-0.04
-0.05
-0.06
-0.075
-0.115
-0.155
-0.18
-0.205
-0.215
-0.23
-0.255
-0.27
-0.3
-0.325
-0.335
-0.335
-0.345
-0.345
-0.355
-0.37
-0.38
-0.38
-0.385
-0.38
-0.36
-0.35
-0.325
-0.31
-0.32
-0.31
-0.325
-0.325
-0.32
-0.32
-0.325
-0.315
-0.3
-0.295
-0.28
-0.245
-0.205
-0.17
-0.135
-0.105
-0.085
-0.08
-0.07
-0.075
-0.065
-0.045
-0.035
-0.02
-0.01
-0.04
-0.095
-0.15
-0.205
-0.27
-0.315
-0.345
-0.36
-0.385
-0.4
-0.405
-0.41
-0.415
-0.405
-0.395
-0.395
-0.405
-0.405
-0.405
-0.415
-0.41
-0.415
-0.405
-0.38
-0.37
-0.365
-0.375
-0.385
-0.4
-0.4
-0.41
-0.41
-0.415
-0.42
-0.435
-0.445
-0.44
-0.34
-0.19
0.06
0.385
0.76
1.195
1.655
2.055
2.36
2.51
2.485
2.275
1.97
1.59
1.145
0.675
0.215
-0.21
-0.56
-0.85
-1.035
-1.1
-1.05
-0.955
-0.81
-0.715
-0.655
-0.635
-0.64
-0.64
-0.68
-0.695
-0.71
-0.715
-0.715
-0.72
-0.725
-0.72
-0.72
-0.715
-0.745
-0.745
-0.76
-0.77
-0.775
-0.765
-0.755
-0.745
-0.735
-0.755
-0.765
-0.775
-0.78
-0.77
-0.765
-0.745
-0.73
-0.725
-0.72
-0.705
-0.705
-0.69
-0.685
-0.665
-0.665
-0.67
-0.64
-0.625
-0.62
-0.6
-0.58
-0.545
-0.495
-0.47
-0.45
-0.445
-0.43
-0.43
-0.395
-0.345
-0.295
-0.255
-0.225
-0.2
-0.19
-0.165
-0.145
-0.105
-0.07
-0.03
0.01
0.04
0.065
0.095
0.12
0.155
0.185
0.205
0.235
0.26
0.27
0.275
0.27
0.285
0.31
0.33
0.36
0.365
0.37
0.36
0.33
0.31
0.295
0.285
0.285
0.28
0.255
0.245
0.22
0.195
0.155
0.125
0.11
0.09
0.07
0.035
0.005
-0.005
-0.04
-0.065
-0.06
-0.08
-0.09
-0.1
-0.13
-0.155
-0.185
-0.205
-0.2
-0.215
-0.205
-0.185
-0.18
-0.175
-0.18
-0.19
-0.205
-0.2
-0.205
-0.2
-0.19
-0.175
-0.155
-0.14
-0.12
-0.095
-0.07
-0.04
0.0
0.025
0.025
0.03
0.035
0.05
0.07
0.11
0.13
0.145
0.13
0.09
0.045
-0.02
-0.09
-0.13
-0.175
-0.205
-0.245
-0.255
-0.265
-0.28
-0.265
-0.27
-0.27
-0.275
-0.255
-0.255
-0.275
-0.285
-0.28
-0.295
-0.305
-0.28
-0.29
-0.29
-0.27
-0.285
-0.285
-0.3
-0.3
-0.3
-0.285
-0.285
-0.305
-0.325
-0.36
-0.375
-0.35
-0.285
-0.125
0.095
0.39
0.72
1.095
1.495
1.9
2.225
2.415
2.43
2.29
1.985
1.615
1.185
0.765
0.375
0.025
-0.295
-0.555
-0.73
-0.825
-0.815
-0.735
-0.605
-0.505
-0.445
-0.425
-0.44
-0.465
-0.5
-0.54
-0.565
-0.57
-0.585
-0.58
-0.56
-0.565
-0.585
-0.595
-0.61
-0.62
-0.62
-0.61
-0.6
-0.615
-0.625
-0.635
-0.64
-0.64
-0.645
-0.63
-0.64
-0.635
-0.615
-0.61
-0.6
-0.585
-0.575
-0.56
-0.545
-0.54
-0.535
-0.525
-0.515
-0.49
-0.435
-0.405
-0.365
-0.355
-0.35
-0.34
-0.34
-0.305
-0.26
-0.21
-0.155
-0.1
-0.06
-0.03
-0.01
0.045
0.08
0.125
0.17
0.21
0.235
0.275
0.305
0.355
0.39
0.415
0.45
0.47
0.49
0.49
0.505
0.5
0.525
0.535
0.555
0.56
0.565
0.555
0.53
0.53
0.52
0.51
0.505
0.47
0.435
0.425
0.395
0.38
0.375
0.395
0.385
0.37
0.345
0.32
0.28
0.24
0.22
0.205
0.195
0.165
0.145
0.12
0.095
0.085
0.07
0.06
0.05
0.035
0.02
-0.005
-0.015
-0.02
-0.02
0.0
0.02
0.03
0.02
0.005
-0.005
-0.005
-0.005
0.0
0.035
0.075
0.115
0.155
0.17
0.18
0.205
0.215
0.24
0.25
0.275
0.29
0.31
0.305
0.325
0.3
0.3
0.27
0.235
0.17
0.105
0.035
-0.015
-0.045
-0.06
-0.05
-0.045
-0.045
-0.055
-0.05
-0.055
-0.06
-0.055
-0.05
-0.055
-0.055
-0.06
-0.065
-0.065
-0.065
-0.05
-0.05
-0.065
-0.075
-0.095
-0.115
-0.15
-0.16
-0.15
-0.12
-0.035
0.115
0.355
0.68
1.075
1.52
1.96
2.315
2.545
2.56
2.4
2.1
1.71
1.285
0.865
0.48
0.115
-0.205
-0.45
-0.605
-0.655
-0.57
-0.46
-0.32
-0.22
-0.18
-0.195
-0.25
-0.295
-0.345
-0.35
-0.365
-0.36
-0.36
-0.38
-0.395
-0.405
-0.4
-0.39
-0.39
-0.39
-0.41
-0.43
-0.44
-0.45
-0.445
-0.44
-0.425
-0.425
-0.425
-0.425
-0.435
-0.44
-0.465
-0.44
-0.44
-0.43
-0.405
-0.39
-0.39
-0.38
-0.37
-0.35
-0.34
-0.315
-0.29
-0.255
-0.235
-0.21
-0.19
-0.14
-0.1
-0.03
0.025
0.085
0.14
0.17
0.2
0.22
0.25
0.285
0.315
0.36
0.395
0.43
0.48
0.53
0.585
0.63
0.67
0.705
0.725
0.745
0.765
0.78
0.795
0.805
0.835
0.83
0.85
0.85
0.85
0.84
0.83
0.835
0.825
0.83
0.825
0.815
0.805
0.795
0.78
0.775
0.76
0.74
0.715
0.68
0.64
0.615
0.605
0.605
0.605
0.595
0.57
0.535
0.47
0.425
0.385
0.345
0.315
0.315
0.295
0.27
0.235
0.21
0.19
0.185
0.165
0.17
0.16
0.14
0.135
0.12
0.11
0.12
0.125
0.15
0.17
0.185
0.18
0.17
0.16
0.17
0.185
0.215
0.245
0.27
0.3
0.335
0.35
0.38
0.395
0.425
0.43
0.445
0.45
0.45
0.455
0.45
0.455
0.435
0.405
0.36
0.295
0.22
0.16
0.105
0.075
0.065
0.065
0.07
0.07
0.08
0.08
0.04
0.02
0.0
0.01
0.015
0.03
0.055
0.045
0.035
0.025
0.015
0.01
0.03
0.04
0.045
0.035
0.015
0.0
-0.01
-0.02
-0.02
0.025
0.115
0.25
0.495
0.81
1.18
1.6
2.03
2.375
2.55
2.485
2.215
1.86
1.455
1.05
0.645
0.29
-0.04
-0.335
-0.58
-0.74
-0.8
-0.745
-0.615
-0.46
-0.345
-0.275
-0.255
-0.285
-0.325
-0.355
-0.385
-0.385
-0.385
-0.39
-0.4
-0.41
-0.43
-0.43
-0.43
-0.43
-0.435
-0.435
-0.45
-0.47
-0.485
-0.475
-0.455
-0.435
-0.405
-0.395
-0.4
-0.41
-0.435
-0.43
-0.425
-0.435
-0.4
-0.375
-0.375
-0.335
-0.325
-0.32
-0.31
-0.305
-0.265
-0.24
-0.22
-0.19
-0.175
-0.145
-0.12
-0.105
-0.075
-0.04
-0.02
0.0
0.01
0.045
0.08
0.12
0.15
0.19
0.225
0.27
0.31
0.35
0.39
0.41
0.43
0.435
0.435
0.44
0.455
0.485
0.505
0.545
0.56
0.575
0.565
0.54
0.525
0.515
0.505
0.505
0.505
0.49
0.46
0.44
0.42
0.405
0.405
0.38
0.365
0.325
0.305
0.25
0.215
0.19
0.16
0.165
0.155
0.15
0.105
0.075
0.025
-0.015
-0.035
-0.05
-0.055
-0.07
-0.095
-0.11
-0.155
-0.18
-0.2
-0.215
-0.21
-0.205
-0.21
-0.21
-0.205
-0.21
-0.205
-0.2
-0.18
-0.175
-0.175
-0.18
-0.18
-0.175
-0.17
-0.17
-0.155
-0.145
-0.14
-0.105
-0.095
-0.075
-0.04
-0.01
0.02
0.04
0.035
0.055
0.09
0.12
0.145
0.14
0.15
0.115
0.065
0.0
-0.045
-0.095
-0.145
-0.175
-0.21
-0.225
-0.235
-0.23
-0.235
-0.225
-0.22
-0.23
-0.235
-0.245
-0.26
-0.26
-0.25
-0.24
-0.225
-0.21
-0.2
-0.21
-0.215
-0.23
-0.23
-0.235
-0.26
-0.275
-0.305
-0.315
-0.3
-0.2
-0.015
0.28
0.62
1.02
1.43
1.83
2.17
2.415
2.49
2.39
2.125
1.73
1.25
0.735
0.25
-0.18
-0.53
-0.81
-0.975
-1.025
-0.965
-0.86
-0.73
-0.615
-0.53
-0.48
-0.47
-0.485
-0.515
-0.55
-0.58
-0.6
-0.6
-0.605
-0.58
-0.575
-0.575
-0.575
-0.6
-0.62
-0.635
-0.645
-0.65
-0.655
-0.63
-0.625
-0.64
-0.64
-0.62
-0.62
-0.61
-0.6
-0.605
-0.605
-0.605
-0.615
-0.6
-0.585
-0.56
-0.525
-0.51
-0.495
-0.5
-0.5
-0.515
-0.5
-0.485
-0.455
-0.42
-0.39
-0.38
-0.345
-0.32
-0.295
-0.27
-0.245
-0.21
-0.2
-0.165
-0.145
-0.135
-0.12
-0.085
-0.05
-0.01
0.045
0.075
0.1
0.11
0.13
0.15
0.18
0.23
0.275
0.305
0.32
0.33
0.345
0.35
0.355
0.38
0.385
0.395
0.4
0.395
0.385
0.385
0.38
0.385
0.37
0.37
0.36
0.335
0.295
0.27
0.24
0.215
0.21
0.205
0.185
0.18
0.155
0.12
0.07
0.04
0.015
-0.01
-0.02
-0.025
-0.05
-0.07
-0.08
-0.085
-0.095
-0.1
-0.11
-0.105
-0.125
-0.14
-0.15
-0.15
-0.13
-0.115
-0.085
-0.075
-0.08
-0.07
-0.1
-0.095
-0.095
-0.085
-0.055
-0.015
0.03
0.07
0.105
0.14
0.155
0.165
0.18
0.195
0.205
0.205
0.205
0.21
0.225
0.225
0.2
0.155
0.1
0.04
-0.045
-0.1
-0.14
-0.17
-0.185
-0.18
-0.18
-0.17
-0.15
-0.15
-0.14
-0.145
-0.15
-0.155
-0.165
-0.19
-0.2
-0.185
-0.19
-0.16
-0.145
-0.14
-0.14
-0.16
-0.175
-0.2
-0.215
-0.23
-0.215
-0.16
-0.03
0.195
0.48
0.84
1.255
1.69
2.095
2.405
2.565
2.53
2.35
2.045
1.665
1.25
0.84
0.44
0.045
-0.315
-0.585
-0.755
-0.78
-0.715
-0.575
-0.425
-0.325
-0.305
-0.315
-0.36
-0.395
-0.425
-0.445
-0.45
-0.465
-0.465
-0.475
-0.48
-0.465
-0.475
-0.47
-0.48
-0.49
-0.505
-0.51
-0.52
-0.54
-0.54
-0.53
-0.525
-0.52
-0.53
-0.53
-0.535
-0.53
-0.525
-0.52
-0.515
-0.52
-0.51
-0.52
-0.52
-0.5
-0.485
-0.44
-0.425
-0.42
-0.405
-0.4
-0.385
-0.385
-0.35
-0.32
-0.29
-0.25
-0.23
-0.195
-0.165
-0.125
-0.1
-0.045
0.0
0.025
0.06
0.085
0.13
0.17
0.205
0.26
0.315
0.35
0.37
0.38
0.4
0.42
0.455
0.48
0.525
0.555
0.575
0.59
0.6
0.605
0.615
0.625
0.625
0.63
0.62
0.6
0.6
0.59
0.575
0.585
0.59
0.59
0.565
0.53
0.51
0.485
0.455
0.435
0.425
0.415
0.41
0.41
0.38
0.355
0.315
0.285
0.26
0.24
0.22
0.195
0.18
0.175
0.15
0.14
0.14
0.14
0.14
0.135
0.135
0.105
0.095
0.09
0.095
0.105
0.135
0.15
0.165
0.18
0.19
0.2
0.225
0.245
0.275
0.3
0.31
0.325
0.335
0.36
0.37
0.395
0.41
0.42
0.4
0.375
0.31
0.255
0.18
0.135
0.1
0.08
0.065
0.075
0.055
0.04
0.03
0.025
0.025
0.035
0.045
0.055
0.055
0.045
0.045
0.035
0.03
0.03
0.045
0.03
0.025
0.01
-0.01
0.0
0.0
0.02
0.025
0.015
-0.005
-0.025
-0.02
0.03
0.16
0.37
0.665
1.02
1.415
1.8
2.165
2.45
2.58
2.555
2.395
2.14
1.86
1.545
1.22
0.885
0.575
0.255
-0.035
-0.27
-0.4
-0.425
-0.36
-0.27
-0.19
-0.14
-0.12
-0.14
-0.165
-0.185
-0.215
-0.24
-0.26
-0.29
-0.285
-0.285
-0.28
-0.265
-0.265
-0.275
-0.275
-0.295
-0.295
-0.28
-0.285
-0.28
-0.275
-0.295
-0.295
-0.31
-0.29
-0.275
-0.25
-0.22
-0.195
-0.19
-0.18
-0.175
-0.155
-0.135
-0.115
-0.085
-0.065
-0.045
-0.02
0.025
0.05
0.09
0.13
0.165
0.18
0.21
0.25
0.28
0.325
0.395
0.455
0.505
0.54
0.585
0.605
0.64
0.675
0.705
0.725
0.765
0.79
0.835
0.855
0.88
0.925
0.955
0.98
1.005
1.0
1.0
0.985
0.97
0.975
0.985
1.0
1.01
1.035
1.035
1.02
0.985
0.96
0.93
0.925
0.91
0.9
0.88
0.855
0.84
0.815
0.795
0.775
0.75
0.715
0.69
0.645
0.61
0.6
0.585
0.57
0.56
0.525
0.465
0.4
0.36
0.31
0.295
0.265
0.245
0.26
0.235
0.215
0.205
0.205
0.2
0.205
0.2
0.19
0.17
0.165
0.17
0.175
0.185
0.2
0.215
0.23
0.235
0.26
0.29
0.33
0.375
0.4
0.42
0.43
0.44
0.45
0.455
0.46
0.475
0.47
0.445
0.405
0.335
0.27
0.205
0.165
0.12
0.1
0.08
0.06
0.05
0.05
0.04
0.04
0.04
0.035
0.025
0.02
0.015
0.025
0.045
0.05
0.05
0.05
0.035
0.045
0.025
0.02
0.015
0.005
-0.005
-0.02
-0.035
-0.05
-0.015
0.075
0.245
0.495
0.81
1.19
1.595
1.975
2.31
2.505
2.515
2.335
2.025
1.63
1.205
0.795
0.41
0.085
-0.2
-0.46
-0.655
-0.785
-0.785
-0.71
-0.57
-0.455
-0.36
-0.31
-0.305
-0.325
-0.36
-0.385
-0.41
-0.405
-0.41
-0.41
-0.415
-0.415
-0.425
-0.44
-0.46
-0.48
-0.495
-0.485
-0.48
-0.475
-0.47
-0.465
-0.465
-0.47
-0.47
-0.475
-0.47
-0.445
-0.44
-0.44
-0.43
-0.425
-0.415
-0.4
-0.375
-0.35
-0.345
-0.33
-0.33
-0.32
-0.305
-0.29
-0.25
-0.22
-0.17
-0.145
-0.125
-0.11
-0.105
-0.095
-0.07
-0.025
0.0
0.025
0.065
0.075
0.1
0.13
0.165
0.205
0.24
0.285
0.295
0.315
0.36
0.38
0.41
0.445
0.47
0.495
0.505
0.5
0.495
0.495
0.505
0.52
0.52
0.535
0.54
0.54
0.535
0.53
0.51
0.505
0.485
0.46
0.44
0.41
0.355
0.335
0.315
0.29
0.28
0.275
0.265
0.245
0.22
0.19
0.14
0.11
0.075
0.045
0.03
0.025
0.01
0.0
-0.01
-0.05
-0.065
-0.09
-0.11
-0.125
-0.145
-0.165
-0.16
-0.16
-0.16
-0.155
-0.155
-0.15
-0.145
-0.155
-0.15
-0.165
-0.165
-0.155
-0.145
-0.125
-0.105
-0.09
-0.085
-0.09
-0.1
-0.11
-0.095
-0.075
-0.025
0.0
0.04
0.075
0.1
0.115
0.13
0.135
0.165
0.175
0.195
0.18
0.165
0.145
0.13
0.12
0.075
0.025
-0.04
-0.1
-0.14
-0.175
-0.2
-0.2
-0.205
-0.19
-0.18
-0.165
-0.17
-0.19
-0.18
-0.185
-0.19
-0.185
-0.19
-0.185
-0.205
-0.205
-0.21
-0.195
-0.185
-0.185
-0.155
-0.165
-0.155
-0.175
-0.21
-0.24
-0.28
-0.27
-0.22
-0.095
0.12
0.385
0.725
1.07
1.43
1.8
2.095
2.33
2.44
2.42
2.25
1.97
1.62
1.205
0.765
0.345
-0.015
-0.365
-0.655
-0.87
-0.975
-0.955
-0.85
-0.72
-0.58
-0.46
-0.405
-0.38
-0.395
-0.445
-0.49
-0.525
-0.535
-0.53
-0.52
-0.51
-0.51
-0.505
-0.525
-0.535
-0.545
-0.555
-0.56
-0.555
-0.55
-0.56
-0.57
-0.575
-0.565
-0.55
-0.545
-0.535
