Lead II
-0.865
-0.865
-0.85
-0.83
-0.82
-0.825
-0.84
-0.855
-0.86
-0.845
-0.82
-0.825
-0.835
-0.845
-0.845
-0.84
-0.805
-0.795
-0.82
-0.81
-0.825
-0.83
-0.81
-0.82
-0.815
-0.815
-0.84
-0.82
-0.81
-0.8
-0.805
-0.81
-0.805
-0.805
-0.795
-0.81
-0.81
-0.785
-0.765
-0.735
-0.715
-0.725
-0.73
-0.72
-0.705
-0.66
-0.63
-0.635
-0.64
-0.62
-0.61
-0.585
-0.55
-0.57
-0.59
-0.61
-0.6
-0.59
-0.6
-0.605
-0.65
-0.67
-0.66
-0.645
-0.62
-0.63
-0.66
-0.695
-0.735
-0.755
-0.735
-0.76
-0.78
-0.805
-0.805
-0.795
-0.78
-0.815
-0.835
-0.855
-0.86
-0.835
-0.825
-0.83
-0.85
-0.85
-0.835
-0.82
-0.795
-0.81
-0.825
-0.865
-0.875
-0.865
-0.87
-0.9
-0.95
-1.03
-1.07
-1.08
-1.035
-0.97
-0.855
-0.72
-0.525
-0.31
-0.075
0.12
0.295
0.475
0.665
0.8
0.9
0.94
0.93
0.905
0.825
0.76
0.665
0.505
0.265
-0.035
-0.345
-0.59
-0.715
-0.775
-0.765
-0.745
-0.705
-0.695
-0.7
-0.735
-0.795
-0.845
-0.89
-0.92
-0.925
-0.91
-0.915
-0.94
-0.96
-0.99
-0.985
-0.965
-0.955
-0.94
-0.94
-0.955
-0.945
-0.92
-0.925
-0.935
-0.955
-0.99
-0.99
-0.985
-0.96
-0.97
-0.96
-0.955
-0.955
-0.955
-0.955
-0.945
-0.975
-0.99
-1.005
-1.0
-0.99
-0.96
-0.975
-0.98
-0.985
-0.985
-0.96
-0.97
-0.975
-1.005
-1.025
-1.015
-1.015
-0.985
-0.975
-0.975
-0.97
-0.96
-0.97
-0.97
-0.995
-0.99
-0.98
-0.98
-0.965
-0.95
-0.965
-0.95
-0.94
-0.93
-0.91
-0.91
-0.91
-0.925
-0.925
-0.91
-0.895
-0.89
-0.89
-0.89
-0.885
-0.87
-0.855
-0.84
-0.86
-0.88
-0.89
-0.885
-0.86
-0.855
-0.825
-0.835
-0.835
-0.84
-0.81
-0.82
-0.835
-0.865
-0.88
-0.9
-0.87
-0.85
-0.835
-0.82
-0.835
-0.85
-0.86
-0.85
-0.85
-0.865
-0.89
-0.885
-0.885
-0.865
-0.855
-0.85
-0.855
-0.87
-0.87
-0.865
-0.86
-0.875
-0.9
-0.905
-0.915
-0.9
-0.875
-0.9
-0.895
-0.905
-0.905
-0.905
-0.92
-0.94
-0.975
-0.965
-0.96
-0.955
-0.95
-0.945
-0.94
-0.945
-0.925
-0.94
-0.945
-0.96
-0.965
-0.97
-0.96
-0.94
-0.935
-0.94
-0.935
-0.925
-0.9
-0.91
-0.925
-0.92
-0.95
-0.96
-0.93
-0.925
-0.91
-0.92
-0.91
-0.915
-0.89
-0.89
-0.91
-0.92
-0.935
-0.93
-0.905
-0.895
-0.89
-0.905
-0.905
-0.915
-0.9
-0.875
-0.895
-0.905
-0.925
-0.92
-0.92
-0.91
-0.89
-0.895
-0.9
-0.885
-0.875
-0.865
-0.87
-0.875
-0.89
-0.885
-0.84
-0.815
-0.78
-0.76
-0.74
-0.705
-0.69
-0.685
-0.69
-0.7
-0.705
-0.705
-0.68
-0.69
-0.715
-0.735
-0.73
-0.745
-0.745
-0.75
-0.755
-0.78
-0.79
-0.815
-0.81
-0.85
-0.875
-0.895
-0.915
-0.9
-0.92
-0.925
-0.945
-0.965
-0.97
-0.97
-0.955
-0.975
-0.965
-0.985
-0.995
-0.97
-0.955
-0.95
-0.965
-0.99
-1.0
-0.98
-0.985
-1.005
-1.035
-1.095
-1.125
-1.17
-1.145
-1.115
-1.045
-0.905
-0.72
-0.49
-0.265
-0.065
0.105
0.3
0.48
0.645
0.755
0.8
0.81
0.81
0.75
0.665
0.495
0.245
-0.065
-0.405
-0.68
-0.89
-0.98
-0.975
-0.935
-0.89
-0.855
-0.895
-0.955
-0.985
-1.01
-1.035
-1.055
-1.075
-1.085
-1.09
-1.09
-1.075
-1.075
-1.08
-1.07
-1.07
-1.055
-1.035
-1.045
-1.05
-1.07
-1.06
-1.065
-1.065
-1.075
-1.085
-1.07
-1.085
-1.065
-1.06
-1.07
-1.065
-1.09
-1.07
-1.06
-1.07
-1.085
-1.125
-1.115
-1.075
-1.055
-1.07
-1.055
-1.065
-1.075
-1.06
-1.075
-1.055
-1.07
-1.085
-1.065
-1.075
-1.045
-1.035
-1.04
-1.05
-1.05
-1.04
-1.055
-1.045
-1.05
-1.045
-1.035
-1.015
-1.01
-1.0
-1.005
-0.99
-0.98
-0.975
-0.985
-0.995
-1.01
-0.98
-0.975
-0.95
-0.95
-0.955
-0.94
-0.92
-0.905
-0.905
-0.93
-0.94
-0.96
-0.94
-0.94
-0.935
-0.92
-0.94
-0.93
-0.895
-0.905
-0.9
-0.925
-0.945
-0.955
-0.95
-0.92
-0.925
-0.945
-0.955
-0.95
-0.945
-0.925
-0.94
-0.94
-0.965
-0.985
-0.975
-0.94
-0.94
-0.945
-0.96
-0.97
-0.96
-0.945
-0.95
-0.97
-0.985
-1.01
-1.015
-1.0
-0.995
-0.985
-1.0
-1.005
-1.005
-1.005
-1.0
-1.015
-1.04
-1.05
-1.05
-1.045
-1.025
-1.025
-1.035
-1.04
-1.0
-1.005
-0.995
-1.015
-1.05
-1.04
-1.03
-1.035
-1.0
-0.995
-0.99
-1.0
-0.995
-0.98
-0.975
-0.985
-1.02
-1.03
-1.015
-0.995
-0.98
-0.965
-0.97
-1.005
-0.975
-0.97
-0.945
-0.94
-0.965
-0.995
-1.0
-1.01
-0.975
-0.955
-0.96
-0.955
-0.95
-0.97
-0.955
-0.955
-0.95
-0.95
-0.98
-0.96
-0.925
-0.895
-0.895
-0.895
-0.9
-0.905
-0.88
-0.845
-0.82
-0.83
-0.845
-0.83
-0.8
-0.77
-0.735
-0.72
-0.735
-0.745
-0.74
-0.73
-0.735
-0.745
-0.76
-0.795
-0.805
-0.785
-0.785
-0.78
-0.79
-0.8
-0.815
-0.825
-0.86
-0.91
-0.955
-0.94
-0.93
-0.92
-0.91
-0.915
-0.92
-0.95
-0.96
-0.95
-0.945
-0.955
-0.985
-1.005
-0.995
-0.985
-0.955
-0.965
-0.96
-0.98
-0.99
-0.975
-0.985
-1.03
-1.08
-1.13
-1.175
-1.185
-1.18
-1.135
-1.055
-0.955
-0.8
-0.625
-0.4
-0.215
-0.06
0.105
0.29
0.465
0.63
0.75
0.81
0.835
0.825
0.79
0.755
0.71
0.615
0.47
0.265
-0.01
-0.315
-0.57
-0.76
-0.87
-0.91
-0.9
-0.85
-0.8
-0.795
-0.82
-0.885
-0.955
-0.995
-1.025
-1.05
-1.065
-1.08
-1.095
-1.095
-1.08
-1.09
-1.07
-1.075
-1.065
-1.05
-1.035
-1.01
-1.01
-1.03
-1.065
-1.06
-1.075
-1.06
-1.045
-1.06
-1.085
-1.075
-1.065
-1.045
-1.035
-1.045
-1.065
-1.095
-1.105
-1.085
-1.055
-1.05
-1.065
-1.06
-1.065
-1.055
-1.05
-1.05
-1.075
-1.09
-1.08
-1.075
-1.055
-1.035
-1.055
-1.055
-1.08
-1.055
-1.04
-1.01
-1.025
-1.065
-1.09
-1.1
-1.085
-1.05
-1.015
-1.01
-1.005
-1.01
-0.995
-0.99
-0.995
-1.0
-1.025
-1.015
-1.0
-0.96
-0.94
-0.94
-0.935
-0.945
-0.9
-0.895
-0.91
-0.925
-0.935
-0.92
-0.905
-0.89
-0.875
-0.865
-0.87
-0.86
-0.855
-0.855
-0.875
-0.89
-0.905
-0.9
-0.905
-0.885
-0.87
-0.87
-0.875
-0.89
-0.875
-0.885
-0.88
-0.905
-0.925
-0.92
-0.895
-0.88
-0.88
-0.885
-0.895
-0.88
-0.86
-0.85
-0.85
-0.885
-0.905
-0.915
-0.91
-0.89
-0.885
-0.91
-0.925
-0.935
-0.91
-0.9
-0.9
-0.915
-0.94
-0.96
-0.96
-0.935
-0.925
-0.93
-0.94
-0.96
-0.93
-0.925
-0.92
-0.94
-0.965
-0.98
-0.965
-0.94
-0.925
-0.92
-0.91
-0.915
-0.915
-0.905
-0.915
-0.925
-0.935
-0.94
-0.925
-0.925
-0.905
-0.925
-0.915
-0.875
-0.87
-0.86
-0.865
-0.89
-0.905
-0.91
-0.91
-0.875
-0.875
-0.875
-0.885
-0.86
-0.87
-0.875
-0.895
-0.89
-0.885
-0.88
-0.855
-0.86
-0.845
-0.84
-0.8
-0.785
-0.765
-0.79
-0.835
-0.845
-0.85
-0.82
-0.78
-0.76
-0.725
-0.72
-0.695
-0.645
-0.625
-0.605
-0.615
-0.64
-0.645
-0.65
-0.655
-0.625
-0.65
-0.655
-0.66
-0.67
-0.675
-0.675
-0.68
-0.71
-0.705
-0.725
-0.74
-0.765
-0.79
-0.825
-0.835
-0.835
-0.83
-0.84
-0.855
-0.875
-0.89
-0.865
-0.875
-0.88
-0.905
-0.89
-0.87
-0.87
-0.865
-0.895
-0.9
-0.915
-0.885
-0.89
-0.885
-0.925
-0.975
-1.02
-1.05
-1.06
-1.06
-1.015
-0.95
-0.785
-0.575
-0.335
-0.105
0.075
0.235
0.41
0.59
0.75
0.855
0.915
0.95
0.955
0.94
0.9
0.795
0.635
0.405
0.115
-0.175
-0.47
-0.655
-0.78
-0.83
-0.82
-0.76
-0.695
-0.685
-0.7
-0.76
-0.825
-0.875
-0.895
-0.9
-0.93
-0.95
-0.965
-0.97
-0.97
-0.95
-0.955
-0.96
-0.965
-0.94
-0.925
-0.905
-0.92
-0.95
-0.945
-0.96
-0.95
-0.955
-0.965
-0.945
-0.935
-0.925
-0.9
-0.915
-0.945
-0.96
-0.955
-0.93
-0.935
-0.945
-0.95
-0.955
-0.93
-0.91
-0.92
-0.93
-0.945
-0.965
-0.96
-0.95
-0.945
-0.96
-0.95
-0.95
-0.92
-0.915
-0.895
-0.92
-0.935
-0.94
-0.945
-0.905
-0.89
-0.895
-0.905
-0.91
-0.895
-0.875
-0.825
-0.85
-0.865
-0.87
-0.885
-0.875
-0.875
-0.86
-0.86
-0.845
-0.82
-0.78
-0.75
-0.755
-0.78
-0.8
-0.795
-0.8
-0.795
-0.775
-0.775
-0.795
-0.775
-0.74
-0.735
-0.755
-0.79
-0.79
-0.785
-0.77
-0.755
-0.76
-0.77
-0.79
-0.75
-0.74
-0.735
-0.76
-0.78
-0.81
-0.79
-0.785
-0.77
-0.785
-0.795
-0.79
-0.795
-0.785
-0.765
-0.755
-0.765
-0.79
-0.8
-0.815
-0.815
-0.83
-0.835
-0.835
-0.815
-0.805
-0.79
-0.79
-0.8
-0.845
-0.895
-0.86
-0.855
-0.845
-0.845
-0.855
-0.87
-0.87
-0.83
-0.83
-0.84
-0.855
-0.875
-0.865
-0.84
-0.84
-0.84
-0.855
-0.845
-0.84
-0.82
-0.79
-0.81
-0.83
-0.855
-0.85
-0.845
-0.82
-0.83
-0.83
-0.84
-0.815
-0.79
-0.79
-0.8
-0.82
-0.83
-0.84
-0.84
-0.825
-0.835
-0.825
-0.79
-0.78
-0.75
-0.775
-0.78
-0.78
-0.785
-0.77
-0.74
-0.755
-0.77
-0.765
-0.74
-0.69
-0.635
-0.625
-0.645
-0.635
-0.63
-0.6
-0.58
-0.585
-0.6
-0.595
-0.575
-0.56
-0.55
-0.56
-0.59
-0.62
-0.63
-0.625
-0.635
-0.65
-0.68
-0.67
-0.675
-0.68
-0.69
-0.725
-0.76
-0.785
-0.795
-0.795
-0.795
-0.825
-0.835
-0.84
-0.83
-0.805
-0.785
-0.8
-0.84
-0.83
-0.825
-0.82
-0.83
-0.835
-0.85
-0.85
-0.84
-0.84
-0.875
-0.935
-1.01
-1.05
-1.07
-1.03
-0.945
-0.805
-0.595
-0.355
-0.1
0.115
0.29
0.47
0.63
0.78
0.87
0.915
0.92
0.895
0.87
0.84
0.755
0.6
0.355
0.04
-0.27
-0.54
-0.705
-0.805
-0.815
-0.79
-0.73
-0.685
-0.68
-0.72
-0.78
-0.845
-0.88
-0.9
-0.935
-0.945
-0.955
-0.955
-0.965
-0.935
-0.92
-0.915
-0.93
-0.935
-0.93
-0.93
-0.915
-0.915
-0.925
-0.98
-0.965
-0.93
-0.925
-0.905
-0.905
-0.925
-0.935
-0.935
-0.945
-0.93
-0.94
-0.96
-0.965
-0.94
-0.92
-0.93
-0.92
-0.94
-0.945
-0.93
-0.935
-0.955
-0.975
-0.97
-0.955
-0.935
-0.92
-0.93
-0.935
-0.94
-0.93
-0.92
-0.925
-0.93
-0.93
-0.935
-0.915
-0.89
-0.88
-0.875
-0.885
-0.89
-0.88
-0.865
-0.86
-0.88
-0.885
-0.9
-0.865
-0.84
-0.815
-0.82
-0.83
-0.845
-0.825
-0.8
-0.795
-0.805
-0.81
-0.825
-0.825
-0.79
-0.775
-0.765
-0.76
-0.785
-0.79
-0.79
-0.79
-0.785
-0.82
-0.83
-0.81
-0.785
-0.77
-0.78
-0.79
-0.815
-0.81
-0.79
-0.775
-0.805
-0.83
-0.855
-0.845
-0.835
-0.81
-0.79
-0.795
-0.845
-0.825
-0.83
-0.83
-0.855
-0.87
-0.87
-0.88
-0.85
-0.845
-0.855
-0.865
-0.855
-0.845
-0.85
-0.89
-0.91
-0.92
-0.925
-0.9
-0.88
-0.9
-0.925
-0.91
-0.9
-0.89
-0.895
-0.91
-0.92
-0.925
-0.91
-0.915
-0.89
-0.89
-0.92
-0.895
-0.89
-0.885
-0.89
-0.9
-0.93
-0.91
-0.905
-0.89
-0.88
-0.875
-0.895
-0.905
-0.89
-0.885
-0.87
-0.88
-0.905
-0.895
-0.885
-0.87
-0.875
-0.875
-0.88
-0.875
-0.87
-0.86
-0.86
-0.865
-0.885
-0.885
-0.895
-0.87
-0.84
-0.825
-0.845
-0.835
-0.825
-0.805
-0.78
-0.785
-0.78
-0.77
-0.765
-0.73
-0.69
-0.685
-0.675
-0.665
-0.65
-0.63
-0.645
-0.67
-0.695
-0.715
-0.725
-0.73
-0.715
-0.735
-0.75
-0.755
-0.765
-0.75
-0.75
-0.805
-0.845
-0.9
-0.925
-0.92
-0.91
-0.905
-0.92
-0.93
-0.95
-0.96
-0.95
-0.95
-0.98
-0.985
-0.985
-0.98
-0.955
-0.975
-0.965
-0.955
-0.96
-0.965
-0.955
-0.965
-0.995
-1.045
-1.1
-1.155
-1.17
-1.175
-1.175
-1.115
-1.005
-0.845
-0.655
-0.46
-0.27
-0.105
0.07
0.27
0.445
0.62
0.735
0.81
0.83
0.85
0.785
0.695
0.605
0.47
0.235
-0.04
-0.345
-0.65
-0.865
-0.96
-0.965
-0.92
-0.88
-0.855
-0.89
-0.925
-0.97
-1.005
-1.02
-1.04
-1.085
-1.06
-1.07
-1.045
-1.055
-1.07
-1.09
-1.095
-1.12
-1.1
-1.06
-1.04
-1.065
-1.07
-1.07
-1.07
-1.065
-1.07
-1.095
-1.115
-1.11
-1.105
-1.08
-1.06
-1.055
-1.075
-1.08
-1.085
-1.08
-1.065
-1.065
-1.09
-1.1
-1.1
-1.08
-1.065
-1.05
-1.05
-1.055
-1.085
-1.085
-1.07
-1.06
-1.06
-1.085
-1.1
-1.085
-1.065
-1.045
-1.045
-1.055
-1.065
-1.07
-1.06
-1.04
-1.055
-1.05
-1.075
-1.055
-1.035
-1.025
-1.015
-1.005
-1.01
-1.01
-1.01
-0.995
-0.99
-1.015
-0.995
-1.0
-0.97
-0.955
-0.95
-0.95
-0.965
-0.95
-0.945
-0.93
-0.93
-0.94
-0.95
-0.95
-0.925
-0.905
-0.9
-0.9
-0.91
-0.92
-0.935
-0.9
-0.93
-0.945
-0.97
-0.965
-0.95
-0.925
-0.895
-0.905
-0.925
-0.945
-0.965
-0.95
-0.935
-0.93
-0.95
-0.97
-0.955
-0.945
-0.93
-0.93
-0.945
-0.965
-0.975
-0.975
-0.975
-0.965
-0.99
-1.005
-1.005
-1.0
-0.98
-0.965
-0.96
-0.995
-1.025
-1.045
-1.04
-1.035
-1.025
-1.02
-1.05
-1.03
-1.025
-1.02
-1.01
-1.04
-1.045
-1.055
-1.05
-1.025
-1.03
-1.045
-1.07
-1.06
-1.025
-1.01
-1.01
-1.02
-1.04
-1.055
-1.045
-1.025
-1.0
-1.01
-1.01
-1.015
-1.015
-0.995
-0.975
-0.97
-1.005
-1.03
-1.04
-1.03
-1.015
-1.01
-1.01
-1.015
-1.005
-0.995
-0.985
-0.98
-1.0
-1.015
-1.025
-1.03
-1.015
-0.98
-0.945
-0.94
-0.945
-0.94
-0.935
-0.94
-0.93
-0.92
-0.915
-0.95
-0.93
-0.885
-0.825
-0.815
-0.805
-0.8
-0.79
-0.76
-0.755
-0.765
-0.765
-0.79
-0.79
-0.775
-0.765
-0.775
-0.79
-0.81
-0.825
-0.82
-0.81
-0.845
-0.86
-0.895
-0.92
-0.93
-0.935
-0.96
-0.99
-1.025
-1.01
-1.005
-1.005
-1.01
-1.06
-1.055
-1.06
-1.03
-1.02
-1.01
-1.015
-1.02
-1.025
-0.995
-1.0
-1.015
-1.04
-1.055
-1.06
-1.07
-1.09
-1.15
-1.195
-1.23
-1.235
-1.165
-1.05
-0.92
-0.77
-0.59
-0.4
-0.18
0.015
0.2
0.36
0.515
0.635
0.735
0.78
0.78
0.745
0.665
0.6
0.53
0.395
0.17
-0.11
-0.465
-0.73
-0.895
-0.965
-0.975
-0.935
-0.91
-0.875
-0.885
-0.89
-0.92
-0.965
-1.025
-1.085
-1.095
-1.125
-1.11
-1.105
-1.14
-1.135
-1.125
-1.12
-1.105
-1.095
-1.12
-1.12
-1.105
-1.1
-1.105
-1.12
-1.15
-1.165
-1.13
-1.115
-1.105
-1.12
-1.12
-1.14
-1.125
-1.12
-1.125
-1.125
-1.125
-1.14
-1.125
-1.1
-1.09
-1.09
-1.11
-1.125
-1.125
-1.135
-1.1
-1.1
-1.115
-1.13
-1.135
-1.135
-1.1
-1.075
-1.08
-1.095
-1.11
-1.125
-1.11
-1.115
-1.1
-1.115
-1.105
-1.09
-1.07
-1.045
-1.075
-1.075
-1.085
-1.085
-1.06
-1.045
-1.06
-1.07
-1.09
-1.05
-1.02
-1.015
-0.985
-1.015
-1.02
-1.01
-1.005
-0.99
-1.015
-0.995
-0.985
-0.96
-0.945
-0.97
-0.97
-0.97
-0.96
-0.95
-0.975
-0.995
-1.0
-1.005
-0.98
-0.96
-0.955
-0.97
-0.975
-1.005
-0.985
-0.985
-0.98
-1.01
-1.0
-1.01
-0.99
-0.98
-0.98
-0.985
-0.995
-1.005
-0.99
-0.995
-1.005
-1.015
-1.05
-1.05
-1.03
-1.015
-0.995
-1.015
-1.02
-1.035
-1.03
-1.05
-1.05
-1.07
-1.08
-1.1
-1.085
-1.075
-1.045
-1.055
-1.065
-1.08
-1.065
-1.06
-1.06
-1.07
-1.085
-1.09
-1.07
-1.06
-1.03
-1.035
-1.04
-1.055
-1.055
-1.05
-1.065
-1.07
-1.075
-1.065
-1.04
-1.04
-1.025
-1.03
-1.015
-1.01
-1.01
-1.025
-1.04
-1.065
-1.065
-1.02
-1.0
-1.01
-1.035
-1.03
-1.015
-0.99
-0.99
-1.0
-1.015
-1.015
-1.005
-0.975
-0.975
-0.95
-0.945
-0.93
-0.91
-0.88
-0.86
-0.85
-0.86
-0.85
-0.84
-0.81
-0.775
-0.785
-0.795
-0.795
-0.795
-0.775
-0.77
-0.79
-0.83
-0.855
-0.865
-0.855
-0.835
-0.85
-0.865
-0.89
-0.89
-0.9
-0.915
-0.945
-0.985
-1.015
-1.035
-1.025
-1.015
-1.0
-1.02
-1.03
-1.03
-1.045
-1.045
-1.045
-1.045
-1.07
-1.065
-1.05
-1.035
-1.04
-1.05
-1.08
-1.065
-1.075
-1.095
-1.15
-1.215
-1.28
-1.29
-1.265
-1.19
-1.11
-0.965
-0.795
-0.58
-0.365
-0.16
-0.005
0.16
0.315
0.45
0.595
0.715
0.765
0.78
0.75
0.7
0.615
0.47
0.24
-0.05
-0.37
-0.655
-0.85
-0.955
-0.985
-0.965
-0.91
-0.865
-0.84
-0.865
-0.92
-0.99
-1.065
-1.115
-1.14
-1.135
-1.15
-1.155
-1.145
-1.145
-1.115
-1.12
-1.125
-1.135
-1.155
-1.17
-1.16
-1.13
-1.115
-1.105
-1.1
-1.125
-1.11
-1.105
-1.11
-1.14
-1.165
-1.17
-1.16
-1.14
-1.145
-1.155
-1.14
-1.125
-1.12
-1.12
-1.13
-1.14
-1.15
-1.125
-1.105
-1.1
-1.135
-1.12
-1.115
-1.095
-1.095
-1.1
-1.12
-1.14
-1.15
-1.145
-1.11
-1.105
-1.1
-1.095
-1.085
-1.065
-1.055
-1.055
-1.08
-1.09
-1.065
-1.055
-1.04
-1.025
-1.055
-1.065
-1.04
-1.02
-1.005
-0.995
-0.995
-1.035
-1.03
-1.025
-1.0
-0.99
-0.965
-0.945
-0.955
-0.935
-0.935
-0.935
-0.945
-0.97
-0.985
-0.97
-0.945
-0.91
-0.9
-0.925
-0.92
-0.925
-0.91
-0.915
-0.95
-0.96
-0.99
-0.975
-0.965
-0.955
-0.97
-0.94
-0.945
-0.92
-0.91
-0.93
-0.965
-0.96
-0.965
-0.98
-0.96
-0.98
-1.005
-0.995
-0.965
-0.945
-0.945
-0.965
-0.99
-1.025
-1.02
-1.005
-1.0
-0.995
-1.0
-1.015
-1.0
-0.99
-1.0
-1.025
-1.035
-1.055
-1.035
-1.015
-1.02
-1.025
-1.03
-1.025
-1.01
-1.005
-0.985
-0.98
-1.015
-1.02
-1.01
-0.985
-0.97
-0.98
-0.995
-1.015
-1.0
-0.99
-0.965
-0.98
-0.99
-0.995
-0.995
-0.975
-0.96
-0.96
-0.97
-0.965
-0.945
-0.92
-0.94
-0.95
-0.945
-0.965
-0.98
-0.965
-0.92
-0.925
-0.93
-0.905
-0.89
-0.87
-0.855
-0.855
-0.85
-0.82
-0.795
-0.77
-0.77
-0.77
-0.74
-0.725
-0.685
-0.685
-0.695
-0.71
-0.715
-0.74
-0.745
-0.75
-0.765
-0.79
-0.775
-0.78
-0.755
-0.755
-0.775
-0.82
-0.855
-0.88
-0.89
-0.9
-0.91
-0.935
-0.95
-0.95
-0.915
-0.91
-0.925
-0.96
-0.965
-0.975
-0.97
-0.96
-0.955
-0.95
-0.95
-0.94
-0.94
-0.905
-0.915
-0.935
-0.98
-1.015
-1.045
-1.08
-1.135
-1.205
-1.205
-1.185
-1.075
-0.93
-0.755
-0.565
-0.36
-0.155
0.05
0.245
0.42
0.595
0.725
0.835
0.885
0.91
0.85
0.74
0.57
0.31
-0.035
-0.365
-0.67
-0.865
-0.92
-0.895
-0.835
-0.77
-0.74
-0.775
-0.81
-0.89
-0.935
-0.985
-1.02
-1.055
-1.07
-1.045
-1.015
-1.01
-1.03
-1.03
-1.03
-1.025
-1.03
-1.03
-1.04
-1.04
-1.02
-1.0
-0.99
-0.99
-1.015
-1.015
-1.03
-1.005
-1.03
-1.04
-1.06
-1.06
-1.03
-1.0
-0.98
-1.01
-1.025
-1.04
-1.04
-1.04
-1.05
-1.04
-1.055
-1.055
-1.05
-1.01
-0.995
-1.005
-1.03
-1.045
-1.035
-1.025
-1.01
-1.04
-1.03
-1.015
-1.0
-0.975
-0.965
-0.985
-0.99
-1.005
-0.97
-0.97
-0.96
-0.985
-1.0
-1.0
-0.96
-0.915
-0.905
-0.91
-0.925
-0.915
-0.905
-0.88
-0.865
-0.885
-0.91
-0.9
-0.89
-0.87
-0.855
-0.845
-0.865
-0.85
-0.84
-0.81
-0.815
-0.84
-0.845
-0.865
-0.835
-0.815
-0.805
-0.795
-0.83
-0.835
-0.855
-0.84
-0.825
-0.84
-0.865
-0.875
-0.865
-0.845
-0.83
-0.83
-0.835
-0.855
-0.86
-0.855
-0.845
-0.855
-0.855
-0.875
-0.855
-0.835
-0.825
-0.835
-0.87
-0.885
-0.885
-0.885
-0.875
-0.88
-0.89
-0.885
-0.885
-0.885
-0.89
-0.895
-0.9
-0.895
-0.9
-0.915
-0.925
-0.95
-0.955
-0.93
-0.895
-0.88
-0.895
-0.9
-0.92
-0.89
-0.885
-0.885
-0.905
-0.92
-0.93
-0.91
-0.87
-0.845
-0.845
-0.855
-0.865
-0.875
-0.865
-0.875
-0.87
-0.89
-0.88
-0.885
-0.845
-0.82
-0.825
-0.83
-0.835
-0.81
-0.795
-0.78
-0.79
-0.82
-0.82
-0.815
-0.78
-0.735
-0.715
-0.71
-0.7
-0.7
-0.67
-0.66
-0.635
-0.645
-0.655
-0.665
-0.65
-0.615
-0.605
-0.59
-0.62
-0.64
-0.625
-0.63
-0.62
-0.65
-0.675
-0.7
-0.695
-0.67
-0.685
-0.695
-0.74
-0.78
-0.79
-0.8
-0.795
-0.815
-0.85
-0.86
-0.855
-0.835
-0.84
-0.835
-0.86
-0.87
-0.89
-0.895
-0.88
-0.87
-0.87
-0.895
-0.915
-0.89
-0.86
-0.855
-0.845
-0.89
-0.935
-0.985
-1.035
-1.055
-1.09
-1.095
-1.055
-0.95
-0.82
-0.64
-0.43
-0.24
-0.095
0.055
0.215
0.385
0.53
0.67
0.77
0.83
0.86
0.89
0.88
0.825
0.725
0.565
0.355
0.095
-0.215
-0.48
-0.705
-0.81
-0.865
-0.83
-0.755
-0.695
-0.65
-0.685
-0.735
-0.83
-0.885
-0.885
-0.91
-0.91
-0.945
-0.945
-0.945
-0.93
-0.94
-0.95
-0.98
-0.985
-0.96
-0.93
-0.915
-0.915
-0.93
-0.955
-0.93
-0.915
-0.92
-0.94
-0.945
-0.96
-0.975
-0.955
-0.95
-0.93
-0.93
-0.935
-0.965
-0.965
-0.955
-0.95
-0.95
-0.975
-0.975
-0.96
-0.96
-0.94
-0.915
-0.925
-0.945
-0.95
-0.955
-0.935
-0.945
-0.965
-0.985
-0.99
-0.955
-0.925
-0.92
-0.915
-0.925
-0.945
-0.94
-0.92
-0.915
-0.915
-0.93
-0.935
-0.905
-0.905
-0.885
-0.88
-0.88
-0.9
-0.905
-0.89
-0.875
-0.885
-0.885
-0.885
-0.89
-0.86
-0.835
-0.825
-0.83
-0.84
-0.84
-0.825
-0.81
-0.805
-0.815
-0.835
-0.805
-0.785
-0.77
-0.775
-0.785
-0.79
-0.82
-0.805
-0.8
-0.805
-0.83
-0.835
-0.815
-0.79
-0.77
-0.77
-0.785
-0.805
-0.835
-0.83
-0.81
-0.805
-0.815
-0.84
-0.845
-0.83
-0.815
-0.79
-0.82
-0.84
-0.85
-0.855
-0.845
-0.84
-0.855
-0.87
-0.88
-0.88
-0.845
-0.83
-0.835
-0.86
-0.865
-0.885
-0.885
-0.885
-0.88
-0.895
-0.915
-0.895
-0.895
-0.86
-0.855
-0.875
-0.895
-0.92
-0.91
-0.89
-0.88
-0.905
-0.89
-0.9
-0.88
-0.855
-0.84
-0.84
-0.865
-0.895
-0.905
-0.9
-0.88
-0.88
-0.88
-0.89
-0.87
-0.86
-0.865
-0.86
-0.88
-0.885
-0.9
-0.88
-0.88
-0.87
-0.875
-0.88
-0.875
-0.845
-0.835
-0.835
-0.875
-0.875
-0.875
-0.84
-0.835
-0.815
-0.84
-0.835
-0.83
-0.815
-0.78
-0.74
-0.725
-0.735
-0.735
-0.71
-0.685
-0.68
-0.665
-0.655
-0.655
-0.65
-0.64
-0.645
-0.655
-0.67
-0.7
-0.72
-0.71
-0.715
-0.715
-0.725
-0.735
-0.73
-0.745
-0.755
-0.8
-0.855
-0.88
-0.895
-0.895
-0.895
-0.905
-0.915
-0.925
-0.915
-0.945
-0.93
-0.93
-0.945
-0.955
-0.95
-0.93
-0.935
-0.93
-0.945
-0.945
-0.93
-0.925
-0.96
-1.04
-1.1
-1.145
-1.15
-1.14
-1.075
-0.95
-0.76
-0.53
-0.285
-0.075
0.11
0.27
0.42
0.57
0.69
0.775
0.815
0.81
0.795
0.755
0.705
0.585
0.41
0.13
-0.21
-0.49
-0.72
-0.875
-0.95
-0.93
-0.88
-0.83
-0.785
-0.805
-0.855
-0.93
-0.975
-1.035
-1.055
-1.06
-1.095
-1.1
-1.085
-1.06
-1.045
-1.035
-1.045
-1.075
-1.07
-1.06
-1.035
-1.04
-1.045
-1.055
-1.05
-1.035
-1.04
-1.04
-1.04
-1.065
-1.07
-1.08
-1.075
-1.07
-1.06
-1.055
-1.06
-1.03
-1.04
-1.04
-1.05
-1.055
-1.06
-1.05
-1.07
-1.075
-1.08
-1.06
-1.045
-1.035
-1.025
-1.055
-1.055
-1.04
-1.03
-1.025
-1.045
-1.055
-1.05
-1.035
-1.03
-1.0
-1.005
-1.015
-1.005
-1.0
-0.995
-0.99
-1.005
-1.015
-1.02
-0.985
-0.955
-0.975
-0.95
-0.98
-0.98
-0.965
-0.95
-0.93
-0.955
-0.955
-0.965
-0.945
-0.925
-0.905
-0.9
-0.91
-0.915
-0.92
-0.895
-0.915
-0.905
-0.92
-0.93
-0.92
-0.905
-0.895
-0.88
-0.905
-0.935
-0.935
-0.925
-0.9
-0.915
-0.94
-0.96
-0.96
-0.935
-0.945
-0.935
-0.95
-0.965
-0.95
-0.94
-0.98
-0.975
-1.005
-0.995
-0.975
-0.97
-0.97
-0.98
-1.0
-1.005
-0.98
-0.98
-0.995
-1.02
-1.035
-1.045
-1.03
-1.015
-1.01
-1.025
-1.015
-1.02
-1.045
-1.035
-1.04
-1.05
-1.06
-1.065
-1.045
-1.02
-1.005
-1.005
-1.03
-1.03
-1.035
-1.04
-1.02
-1.02
-1.03
-1.045
-1.03
-0.995
-0.975
-0.97
-0.985
-0.995
-1.01
-1.0
-0.99
-0.99
-0.995
-0.995
-1.005
-1.0
-0.965
-0.955
-0.965
-0.98
-1.0
-0.975
-0.965
-0.96
-0.98
-0.985
-0.965
-0.95
-0.93
-0.91
-0.915
-0.915
-0.89
-0.87
-0.85
-0.845
-0.835
-0.82
-0.79
-0.775
-0.75
-0.76
-0.755
-0.765
-0.76
-0.755
-0.76
-0.795
-0.825
-0.835
-0.825
-0.815
-0.79
-0.805
-0.835
-0.865
-0.885
-0.9
-0.915
-0.955
-0.985
-0.995
-0.99
-0.98
-0.955
-0.985
-0.99
-1.02
-1.02
-1.025
-1.03
-1.01
-1.03
-1.045
-1.035
-1.03
-1.0
-0.99
-1.015
-1.025
-1.05
-1.06
-1.055
-1.085
-1.13
-1.205
-1.25
-1.26
-1.225
-1.145
-1.04
-0.92
-0.755
-0.57
-0.375
-0.195
-0.025
0.12
0.265
0.41
0.575
0.715
0.785
0.815
0.78
0.725
0.645
0.54
0.37
0.105
-0.235
-0.55
-0.79
-0.915
-0.96
-0.95
-0.915
-0.905
-0.885
-0.895
-0.91
-0.965
-1.025
-1.07
-1.095
-1.105
-1.105
-1.115
-1.12
-1.125
-1.125
-1.115
-1.11
-1.12
-1.115
-1.125
-1.11
-1.105
-1.085
-1.09
-1.11
-1.125
-1.145
-1.14
-1.12
-1.115
-1.12
-1.115
-1.125
-1.105
-1.095
-1.08
-1.1
-1.11
-1.12
-1.125
-1.105
-1.115
-1.105
-1.105
-1.105
-1.1
-1.075
-1.07
-1.07
-1.11
-1.13
-1.11
-1.095
-1.085
-1.08
-1.095
-1.09
-1.09
-1.065
-1.075
-1.085
-1.085
-1.1
-1.075
-1.075
-1.08
-1.07
-1.065
-1.05
-1.02
-1.005
-1.02
-1.035
-1.045
-1.035
-1.02
-1.015
-1.02
-1.02
-1.025
-1.0
-0.96
-0.945
-0.945
-0.955
-0.97
-0.97
-0.955
-0.945
-0.975
-0.96
-0.96
-0.945
-0.93
-0.915
-0.915
-0.945
-0.97
-0.975
-0.96
-0.975
-0.955
-0.945
-0.955
-0.965
-0.95
-0.93
-0.925
-0.935
-0.955
-0.985
-0.975
-0.96
-0.96
-0.955
-0.965
-0.97
-0.975
-0.965
-0.955
-0.96
-1.005
-1.005
-1.01
-1.005
-0.99
-1.01
-1.0
-1.005
-1.015
-1.0
-0.98
-0.99
-1.015
-1.04
-1.07
-1.06
-1.045
-1.035
-1.05
-1.05
-1.025
-1.015
-1.025
-1.025
-1.065
-1.055
-1.05
-1.02
-1.02
-1.035
-1.05
-1.03
-1.02
-1.0
-1.0
-1.035
-1.04
-1.03
-1.01
-1.005
-1.005
-1.02
-1.0
-1.005
-0.98
-0.955
-0.96
-0.96
-0.99
-0.975
-0.98
-0.97
-0.955
-0.955
-0.965
-0.97
-0.955
-0.945
-0.925
-0.945
-0.96
-0.975
-0.96
-0.945
-0.905
-0.905
-0.915
-0.94
-0.94
-0.91
-0.88
-0.88
-0.86
-0.855
-0.85
-0.795
-0.76
-0.735
-0.735
-0.745
-0.735
-0.74
-0.715
-0.725
-0.735
-0.765
-0.77
-0.77
-0.77
-0.785
-0.82
-0.815
-0.77
-0.79
-0.835
-0.86
-0.905
-0.93
-0.92
-0.955
-0.965
-0.965
-0.955
-0.95
-0.935
-0.935
-0.94
-0.97
-0.98
-0.975
-0.97
-0.98
-0.985
-1.005
-0.975
-0.96
-0.955
-0.945
-0.98
-1.025
-1.06
-1.115
-1.16
-1.19
-1.21
-1.155
-1.055
-0.89
-0.71
-0.505
-0.305
-0.12
0.08
0.26
0.44
0.595
0.725
0.81
0.87
0.885
0.895
0.835
0.73
0.61
0.43
0.165
-0.155
-0.45
-0.705
-0.86
-0.91
-0.88
-0.805
-0.75
-0.76
-0.81
-0.86
-0.93
-0.995
-1.045
-1.065
-1.075
-1.05
-1.04
-1.03
-1.06
-1.045
-1.04
-1.02
-1.02
-1.04
-1.07
-1.055
-1.045
-1.02
-1.03
-1.035
-1.04
-1.045
-1.035
-1.025
-1.05
-1.065
-1.08
-1.065
-1.03
-1.02
-1.02
-1.04
-1.05
-1.045
-1.03
-1.03
-1.045
-1.05
-1.07
-1.055
-1.045
-1.025
-1.01
-1.025
-1.035
-1.035
-1.025
-1.02
-1.025
-1.045
-1.05
-1.04
-1.015
-1.0
-0.98
-0.995
-1.0
-1.005
-0.99
-0.975
-0.97
-0.995
-1.0
-1.005
-1.0
-0.955
-0.945
-0.93
-0.93
-0.925
-0.915
-0.89
-0.89
-0.91
-0.92
-0.9
-0.87
-0.865
-0.87
-0.875
-0.875
-0.875
-0.85
-0.85
-0.865
-0.88
-0.905
-0.905
-0.865
-0.845
-0.835
-0.85
-0.865
-0.88
-0.865
-0.865
-0.875
-0.875
-0.895
-0.895
-0.875
-0.865
-0.855
-0.885
-0.885
-0.89
-0.88
-0.875
-0.875
-0.895
-0.91
-0.93
-0.925
-0.905
-0.865
-0.88
-0.885
-0.895
-0.91
-0.91
-0.905
-0.91
-0.94
-0.945
-0.94
-0.93
-0.91
-0.92
-0.935
-0.95
-0.975
-0.965
-0.95
-0.96
-0.965
-0.995
-0.985
-0.965
-0.955
-0.93
-0.92
-0.945
-0.97
-0.965
-0.945
-0.94
-0.95
-0.955
-0.955
-0.96
-0.93
-0.915
-0.915
-0.935
-0.935
-0.925
-0.93
-0.91
-0.93
-0.925
-0.935
-0.93
-0.93
-0.895
-0.89
-0.91
-0.925
-0.93
-0.925
-0.91
-0.925
-0.92
-0.915
-0.92
-0.9
-0.875
-0.86
-0.875
-0.865
-0.87
-0.865
-0.865
-0.86
-0.865
-0.865
-0.855
-0.825
-0.775
-0.75
-0.745
-0.75
-0.755
-0.735
-0.715
-0.69
-0.68
-0.68
-0.705
-0.69
-0.68
-0.665
-0.64
-0.66
-0.71
-0.74
