Lead II
-0.105
-0.09
-0.085
-0.08
-0.1
-0.125
-0.18
-0.215
-0.28
-0.33
-0.37
-0.395
-0.415
-0.44
-0.465
-0.49
-0.52
-0.535
-0.545
-0.54
-0.525
-0.525
-0.515
-0.515
-0.515
-0.52
-0.515
-0.51
-0.51
-0.52
-0.545
-0.565
-0.56
-0.56
-0.56
-0.55
-0.54
-0.55
-0.59
-0.61
-0.625
-0.58
-0.49
-0.285
-0.04
0.27
0.57
0.895
1.21
1.52
1.775
1.915
1.89
1.71
1.405
1.005
0.575
0.135
-0.27
-0.655
-0.975
-1.205
-1.335
-1.35
-1.29
-1.165
-1.055
-0.945
-0.885
-0.85
-0.855
-0.88
-0.905
-0.93
-0.965
-0.98
-0.98
-0.99
-0.98
-0.985
-1.0
-1.005
-1.025
-1.025
-1.055
-1.03
-1.04
-1.04
-1.04
-1.06
-1.08
-1.09
-1.105
-1.1
-1.08
-1.075
-1.06
-1.06
-1.07
-1.07
-1.075
-1.075
-1.055
-1.045
-1.03
-1.0
-0.985
-0.965
-0.945
-0.94
-0.92
-0.895
-0.875
-0.85
-0.825
-0.81
-0.78
-0.74
-0.695
-0.65
-0.61
-0.575
-0.545
-0.52
-0.495
-0.46
-0.415
-0.365
-0.32
-0.275
-0.245
-0.205
-0.175
-0.145
-0.115
-0.085
-0.06
-0.04
-0.035
-0.02
-0.015
0.005
0.025
0.04
0.055
0.07
0.05
0.04
0.02
0.01
-0.005
-0.015
-0.02
-0.02
-0.03
-0.045
-0.065
-0.08
-0.1
-0.125
-0.155
-0.175
-0.22
-0.245
-0.28
-0.295
-0.315
-0.32
-0.325
-0.345
-0.375
-0.41
-0.435
-0.465
-0.48
-0.495
-0.495
-0.48
-0.485
-0.485
-0.495
-0.505
-0.52
-0.535
-0.54
-0.535
-0.52
-0.5
-0.485
-0.46
-0.44
-0.405
-0.37
-0.345
-0.325
-0.31
-0.315
-0.31
-0.315
-0.32
-0.305
-0.285
-0.28
-0.275
-0.295
-0.34
-0.4
-0.47
-0.535
-0.59
-0.615
-0.64
-0.645
-0.645
-0.645
-0.65
-0.655
-0.65
-0.66
-0.655
-0.66
-0.665
-0.66
-0.685
-0.675
-0.67
-0.675
-0.65
-0.635
-0.625
-0.62
-0.63
-0.635
-0.645
-0.66
-0.67
-0.665
-0.675
-0.675
-0.675
-0.63
-0.525
-0.345
-0.095
0.225
0.585
0.99
1.37
1.68
1.885
1.94
1.83
1.58
1.21
0.79
0.38
-0.03
-0.41
-0.74
-1.005
-1.155
-1.21
-1.17
-1.055
-0.92
-0.815
-0.765
-0.76
-0.785
-0.835
-0.865
-0.905
-0.92
-0.925
-0.91
-0.915
-0.915
-0.92
-0.92
-0.935
-0.95
-0.98
-1.005
-1.03
-1.025
-1.015
-1.005
-1.0
-1.005
-1.01
-1.03
-1.035
-1.035
-1.03
-1.025
-1.025
-1.02
-1.0
-0.995
-0.985
-0.97
-0.965
-0.96
-0.945
-0.93
-0.925
-0.91
-0.9
-0.885
-0.85
-0.815
-0.77
-0.725
-0.69
-0.66
-0.63
-0.61
-0.59
-0.55
-0.51
-0.47
-0.415
-0.365
-0.335
-0.29
-0.255
-0.215
-0.17
-0.12
-0.08
-0.045
-0.04
0.005
0.035
0.065
0.105
0.135
0.15
0.155
0.15
0.145
0.145
0.15
0.14
0.18
0.18
0.18
0.165
0.145
0.145
0.125
0.11
0.09
0.07
0.045
0.025
-0.01
-0.03
-0.05
-0.075
-0.075
-0.07
-0.085
-0.11
-0.14
-0.195
-0.225
-0.245
-0.265
-0.285
-0.3
-0.33
-0.37
-0.395
-0.4
-0.42
-0.41
-0.42
-0.43
-0.45
-0.455
-0.49
-0.48
-0.475
-0.47
-0.465
-0.45
-0.44
-0.435
-0.44
-0.4
-0.36
-0.325
-0.285
-0.275
-0.265
-0.235
-0.235
-0.22
-0.2
-0.195
-0.195
-0.23
-0.275
-0.33
-0.385
-0.45
-0.485
-0.52
-0.555
-0.565
-0.595
-0.605
-0.615
-0.62
-0.61
-0.59
-0.58
-0.585
-0.585
-0.59
-0.61
-0.61
-0.615
-0.59
-0.6
-0.595
-0.605
-0.6
-0.59
-0.585
-0.565
-0.57
-0.57
-0.585
-0.615
-0.61
-0.575
-0.415
-0.185
0.14
0.52
0.935
1.35
1.7
1.905
1.91
1.72
1.38
0.96
0.5
0.085
-0.23
-0.485
-0.69
-0.875
-1.03
-1.125
-1.145
-1.095
-0.99
-0.87
-0.79
-0.755
-0.75
-0.76
-0.795
-0.825
-0.84
-0.845
-0.825
-0.82
-0.81
-0.815
-0.825
-0.84
-0.865
-0.875
-0.89
-0.885
-0.875
-0.87
-0.87
-0.87
-0.87
-0.87
-0.86
-0.85
-0.855
-0.845
-0.845
-0.82
-0.815
-0.805
-0.78
-0.765
-0.745
-0.72
-0.705
-0.695
-0.665
-0.655
-0.595
-0.545
-0.505
-0.465
-0.45
-0.425
-0.41
-0.39
-0.35
-0.315
-0.255
-0.21
-0.17
-0.12
-0.075
-0.06
-0.015
0.0
0.045
0.075
0.105
0.11
0.14
0.165
0.2
0.24
0.275
0.31
0.32
0.32
0.325
0.31
0.315
0.32
0.315
0.33
0.33
0.31
0.3
0.27
0.245
0.225
0.21
0.185
0.165
0.145
0.11
0.11
0.085
0.06
0.05
0.035
0.005
-0.025
-0.045
-0.08
-0.12
-0.14
-0.145
-0.16
-0.18
-0.21
-0.25
-0.3
-0.33
-0.36
-0.375
-0.39
-0.42
-0.435
-0.435
-0.45
-0.45
-0.445
-0.435
-0.44
-0.435
-0.455
-0.465
-0.465
-0.48
-0.445
-0.42
-0.37
-0.325
-0.285
-0.25
-0.22
-0.19
-0.165
-0.135
-0.12
-0.105
-0.11
-0.105
-0.13
-0.14
-0.145
-0.16
-0.2
-0.255
-0.33
-0.39
-0.45
-0.5
-0.515
-0.515
-0.485
-0.48
-0.475
-0.475
-0.485
-0.49
-0.49
-0.5
-0.485
-0.485
-0.465
-0.475
-0.475
-0.475
-0.46
-0.455
-0.46
-0.45
-0.485
-0.48
-0.505
-0.53
-0.545
-0.545
-0.53
-0.475
-0.37
-0.21
0.025
0.31
0.64
1.015
1.385
1.705
1.87
1.865
1.68
1.35
0.93
0.48
0.04
-0.34
-0.625
-0.835
-1.005
-1.15
-1.235
-1.225
-1.155
-1.055
-0.92
-0.825
-0.75
-0.74
-0.73
-0.77
-0.78
-0.805
-0.82
-0.835
-0.835
-0.835
-0.84
-0.82
-0.815
-0.8
-0.805
-0.82
-0.84
-0.855
-0.885
-0.89
-0.87
-0.875
-0.855
-0.83
-0.815
-0.82
-0.83
-0.835
-0.82
-0.81
-0.8
-0.76
-0.73
-0.7
-0.685
-0.655
-0.625
-0.6
-0.58
-0.565
-0.55
-0.535
-0.495
-0.455
-0.395
-0.365
-0.33
-0.305
-0.285
-0.275
-0.24
-0.225
-0.18
-0.14
-0.115
-0.08
-0.06
-0.02
0.04
0.09
0.14
0.175
0.185
0.19
0.2
0.195
0.2
0.225
0.245
0.26
0.27
0.26
0.265
0.26
0.235
0.22
0.215
0.19
0.165
0.14
0.12
0.11
0.1
0.11
0.1
0.08
0.02
-0.015
-0.075
-0.105
-0.13
-0.15
-0.15
-0.17
-0.21
-0.225
-0.245
-0.27
-0.295
-0.31
-0.34
-0.365
-0.395
-0.415
-0.445
-0.445
-0.445
-0.45
-0.45
-0.445
-0.46
-0.46
-0.465
-0.465
-0.465
-0.455
-0.445
-0.44
-0.435
-0.41
-0.395
-0.365
-0.325
-0.295
-0.25
-0.21
-0.195
-0.175
-0.155
-0.135
-0.11
-0.1
-0.105
-0.14
-0.185
-0.24
-0.295
-0.35
-0.41
-0.44
-0.485
-0.495
-0.51
-0.515
-0.51
-0.5
-0.505
-0.515
-0.535
-0.555
-0.55
-0.55
-0.535
-0.525
-0.515
-0.495
-0.51
-0.52
-0.53
-0.55
-0.545
-0.565
-0.575
-0.58
-0.605
-0.625
-0.6
-0.515
-0.365
-0.145
0.13
0.455
0.815
1.215
1.57
1.79
1.81
1.615
1.255
0.775
0.24
-0.25
-0.69
-1.035
-1.295
-1.43
-1.445
-1.37
-1.25
-1.105
-0.995
-0.895
-0.855
-0.86
-0.9
-0.945
-0.98
-1.01
-1.02
-1.005
-1.0
-0.995
-1.0
-0.995
-1.01
-1.02
-1.035
-1.04
-1.045
-1.065
-1.07
-1.08
-1.095
-1.115
-1.085
-1.07
-1.055
-1.055
-1.065
-1.08
-1.09
-1.08
-1.06
-1.055
-1.03
-1.005
-0.985
-0.985
-0.97
-0.955
-0.935
-0.91
-0.88
-0.845
-0.83
-0.815
-0.775
-0.75
-0.71
-0.66
-0.625
-0.595
-0.57
-0.555
-0.55
-0.52
-0.495
-0.445
-0.4
-0.345
-0.29
-0.255
-0.225
-0.2
-0.17
-0.135
-0.12
-0.08
-0.06
-0.035
-0.035
-0.015
-0.02
-0.005
0.005
0.02
0.025
0.025
0.0
-0.01
-0.02
-0.035
-0.035
-0.045
-0.06
-0.075
-0.105
-0.135
-0.16
-0.185
-0.21
-0.235
-0.255
-0.28
-0.305
-0.33
-0.355
-0.38
-0.4
-0.42
-0.44
-0.475
-0.5
-0.535
-0.565
-0.575
-0.575
-0.585
-0.58
-0.58
-0.59
-0.6
-0.61
-0.635
-0.645
-0.645
-0.65
-0.64
-0.62
-0.605
-0.595
-0.545
-0.515
-0.45
-0.42
-0.39
-0.38
-0.38
-0.365
-0.36
-0.335
-0.315
-0.295
-0.3
-0.32
-0.37
-0.42
-0.5
-0.545
-0.6
-0.64
-0.675
-0.695
-0.705
-0.695
-0.69
-0.67
-0.65
-0.655
-0.645
-0.66
-0.7
-0.705
-0.715
-0.735
-0.705
-0.69
-0.67
-0.655
-0.67
-0.67
-0.675
-0.685
-0.68
-0.68
-0.675
-0.675
-0.69
-0.705
-0.71
-0.705
-0.645
-0.505
-0.285
0.0
0.335
0.725
1.14
1.51
1.765
1.84
1.685
1.385
0.975
0.52
0.065
-0.315
-0.645
-0.92
-1.125
-1.27
-1.345
-1.32
-1.23
-1.105
-0.975
-0.895
-0.865
-0.875
-0.925
-0.965
-1.0
-1.015
-1.01
-1.005
-0.985
-0.99
-0.99
-1.01
-1.035
-1.075
-1.075
-1.08
-1.07
-1.07
-1.07
-1.07
-1.075
-1.075
-1.07
-1.065
-1.065
-1.075
-1.07
-1.075
-1.065
-1.045
-1.025
-0.995
-0.965
-0.945
-0.93
-0.915
-0.895
-0.875
-0.84
-0.81
-0.785
-0.75
-0.72
-0.695
-0.67
-0.62
-0.585
-0.535
-0.5
-0.47
-0.445
-0.42
-0.375
-0.32
-0.27
-0.23
-0.175
-0.135
-0.105
-0.09
-0.065
-0.04
-0.01
0.015
0.045
0.065
0.065
0.07
0.08
0.08
0.1
0.095
0.095
0.085
0.055
0.035
0.015
0.015
0.0
0.0
-0.02
-0.04
-0.075
-0.11
-0.15
-0.17
-0.19
-0.215
-0.24
-0.255
-0.27
-0.3
-0.305
-0.33
-0.355
-0.375
-0.41
-0.44
-0.48
-0.51
-0.525
-0.53
-0.53
-0.535
-0.54
-0.55
-0.565
-0.58
-0.59
-0.595
-0.59
-0.6
-0.61
-0.615
-0.61
-0.59
-0.55
-0.505
-0.46
-0.405
-0.39
-0.385
-0.37
-0.35
-0.34
-0.315
-0.29
-0.26
-0.255
-0.275
-0.31
-0.345
-0.4
-0.455
-0.5
-0.55
-0.585
-0.615
-0.645
-0.665
-0.66
-0.65
-0.63
-0.63
-0.64
-0.645
-0.64
-0.65
-0.64
-0.63
-0.615
-0.6
-0.605
-0.6
-0.6
-0.605
-0.605
-0.605
-0.605
-0.605
-0.605
-0.6
-0.63
-0.64
-0.645
-0.605
-0.535
-0.405
-0.22
0.01
0.255
0.51
0.79
1.12
1.455
1.71
1.775
1.645
1.325
0.9
0.4
-0.07
-0.48
-0.79
-1.02
-1.175
-1.265
-1.28
-1.23
-1.16
-1.055
-0.965
-0.885
-0.835
-0.82
-0.825
-0.85
-0.885
-0.905
-0.895
-0.895
-0.885
-0.89
-0.9
-0.915
-0.935
-0.94
-0.935
-0.94
-0.93
-0.91
-0.91
-0.925
-0.93
-0.94
-0.94
-0.945
-0.935
-0.925
-0.92
-0.905
-0.91
-0.9
-0.89
-0.865
-0.83
-0.805
-0.785
-0.79
-0.79
-0.795
-0.78
-0.755
-0.715
-0.675
-0.64
-0.605
-0.585
-0.575
-0.555
-0.535
-0.51
-0.45
-0.415
-0.385
-0.355
-0.315
-0.31
-0.275
-0.235
-0.19
-0.14
-0.11
-0.085
-0.07
-0.055
-0.03
0.02
0.065
0.105
0.145
0.17
0.18
0.18
0.18
0.175
0.17
0.18
0.2
0.205
0.205
0.195
0.185
0.165
0.16
0.15
0.135
0.11
0.075
0.045
-0.005
-0.02
-0.03
-0.04
-0.035
-0.045
-0.06
-0.09
-0.125
-0.175
-0.205
-0.225
-0.23
-0.24
-0.265
-0.285
-0.305
-0.34
-0.38
-0.4
-0.41
-0.445
-0.455
-0.485
-0.51
-0.545
-0.555
-0.56
-0.545
-0.545
-0.535
-0.545
-0.55
-0.58
-0.59
-0.59
-0.58
-0.56
-0.525
-0.49
-0.46
-0.42
-0.385
-0.355
-0.34
-0.31
-0.29
-0.27
-0.26
-0.245
-0.24
-0.23
-0.245
-0.25
-0.26
-0.305
-0.36
-0.425
-0.475
-0.52
-0.56
-0.55
-0.55
-0.55
-0.56
-0.55
-0.565
-0.57
-0.575
-0.575
-0.575
-0.575
-0.565
-0.57
-0.57
-0.565
-0.555
-0.54
-0.525
-0.525
-0.525
-0.54
-0.55
-0.58
-0.585
-0.6
-0.59
-0.565
-0.49
-0.33
-0.09
0.22
0.6
1.02
1.42
1.775
2.0
2.02
1.85
1.515
1.07
0.55
0.03
-0.42
-0.805
-1.1
-1.29
-1.355
-1.31
-1.185
-1.045
-0.925
-0.84
-0.8
-0.785
-0.81
-0.845
-0.88
-0.915
-0.92
-0.935
-0.935
-0.945
-0.94
-0.93
-0.93
-0.935
-0.96
-0.975
-0.98
-0.98
-0.98
-0.98
-0.975
-0.975
-0.985
-0.98
-0.975
-0.965
-0.955
-0.96
-0.955
-0.945
-0.94
-0.93
-0.915
-0.89
-0.87
-0.83
-0.81
-0.8
-0.785
-0.78
-0.77
-0.75
-0.72
-0.685
-0.65
-0.61
-0.59
-0.565
-0.535
-0.485
-0.46
-0.425
-0.4
-0.37
-0.365
-0.345
-0.31
-0.26
-0.21
-0.165
-0.12
-0.1
-0.08
-0.075
-0.045
-0.01
0.005
0.025
0.04
0.045
0.045
0.045
0.035
0.035
0.035
0.045
0.04
0.02
-0.005
-0.025
-0.05
-0.055
-0.07
-0.08
-0.1
-0.15
-0.205
-0.24
-0.265
-0.28
-0.29
-0.305
-0.315
-0.34
-0.375
-0.415
-0.445
-0.47
-0.475
-0.495
-0.525
-0.545
-0.565
-0.585
-0.595
-0.605
-0.58
-0.56
-0.58
-0.585
-0.585
-0.61
-0.625
-0.62
-0.615
-0.595
-0.565
-0.535
-0.495
-0.44
-0.41
-0.375
-0.355
-0.335
-0.325
-0.325
-0.33
-0.33
-0.32
-0.31
-0.305
-0.305
-0.335
-0.39
-0.455
-0.54
-0.6
-0.65
-0.68
-0.695
-0.7
-0.7
-0.695
-0.7
-0.705
-0.715
-0.705
-0.725
-0.715
-0.705
-0.72
-0.725
-0.725
-0.72
-0.705
-0.685
-0.68
-0.665
-0.67
-0.675
-0.68
-0.705
-0.715
-0.725
-0.735
-0.74
-0.73
-0.685
-0.625
-0.45
-0.23
0.065
0.415
0.805
1.225
1.6
1.875
1.98
1.915
1.66
1.305
0.86
0.405
-0.03
-0.415
-0.765
-1.05
-1.255
-1.355
-1.355
-1.27
-1.125
-0.995
-0.915
-0.875
-0.875
-0.91
-0.95
-0.985
-1.015
-1.025
-1.035
-1.03
-1.03
-1.015
-1.01
-1.025
-1.035
-1.06
-1.08
-1.1
-1.11
-1.1
-1.08
-1.08
-1.07
-1.08
-1.11
-1.115
-1.135
-1.13
-1.12
-1.105
-1.105
-1.095
-1.08
-1.085
-1.055
-1.035
-1.015
-0.975
-0.96
-0.965
-0.97
-0.96
-0.955
-0.93
-0.895
-0.845
-0.8
-0.775
-0.74
-0.715
-0.69
-0.665
-0.63
-0.595
-0.55
-0.5
-0.46
-0.435
-0.4
-0.37
-0.35
-0.305
-0.255
-0.22
-0.185
-0.18
-0.13
-0.095
-0.07
-0.01
0.025
0.055
0.07
0.075
0.08
0.06
0.045
0.04
0.055
0.055
0.07
0.065
0.05
0.03
0.015
-0.005
-0.015
-0.035
-0.055
-0.085
-0.13
-0.15
-0.18
-0.19
-0.205
-0.2
-0.21
-0.24
-0.28
-0.31
-0.335
-0.375
-0.4
-0.405
-0.42
-0.42
-0.44
-0.485
-0.49
-0.515
-0.53
-0.535
-0.55
-0.555
-0.57
-0.585
-0.595
-0.615
-0.615
-0.615
-0.595
-0.58
-0.565
-0.555
-0.53
-0.505
-0.475
-0.435
-0.4
-0.37
-0.34
-0.32
-0.305
-0.29
-0.275
-0.28
-0.285
-0.285
-0.315
-0.345
-0.39
-0.44
-0.475
-0.51
-0.55
-0.585
-0.615
-0.655
-0.68
-0.685
-0.69
-0.665
-0.64
-0.625
-0.625
-0.625
-0.635
-0.65
-0.665
-0.66
-0.635
-0.635
-0.635
-0.635
-0.63
-0.625
-0.62
-0.61
-0.6
-0.595
-0.615
-0.63
-0.645
-0.62
-0.505
-0.315
-0.04
0.275
0.655
1.065
1.465
1.795
1.98
1.98
1.775
1.42
0.995
0.53
0.075
-0.32
-0.625
-0.875
-1.05
-1.18
-1.225
-1.225
-1.165
-1.06
-0.95
-0.85
-0.79
-0.765
-0.775
-0.8
-0.83
-0.85
-0.89
-0.9
-0.91
-0.92
-0.9
-0.9
-0.9
-0.905
-0.92
-0.91
-0.91
-0.915
-0.915
-0.915
-0.92
-0.94
-0.95
-0.935
-0.925
-0.905
-0.88
-0.865
-0.865
-0.86
-0.875
-0.855
-0.83
-0.805
-0.775
-0.745
-0.72
-0.69
-0.685
-0.67
-0.655
-0.625
-0.595
-0.58
-0.555
-0.53
-0.5
-0.47
-0.43
-0.385
-0.33
-0.285
-0.255
-0.25
-0.23
-0.2
-0.175
-0.14
-0.095
-0.04
0.01
0.03
0.035
0.055
0.09
0.11
0.135
0.155
0.175
0.18
0.19
0.175
0.18
0.195
0.195
0.21
0.21
0.21
0.165
0.135
0.1
0.085
0.07
0.06
0.06
0.05
0.035
0.02
-0.005
-0.035
-0.065
-0.09
-0.13
-0.15
-0.175
-0.21
-0.22
-0.235
-0.24
-0.255
-0.275
-0.295
-0.335
-0.375
-0.385
-0.425
-0.45
-0.465
-0.49
-0.505
-0.495
-0.5
-0.525
-0.545
-0.555
-0.555
-0.56
-0.565
-0.565
-0.58
-0.575
-0.585
-0.585
-0.575
-0.545
-0.51
-0.47
-0.435
-0.405
-0.39
-0.375
-0.345
-0.31
-0.285
-0.26
-0.235
-0.225
-0.225
-0.235
-0.23
-0.26
-0.27
-0.29
-0.31
-0.33
-0.39
-0.455
-0.5
-0.535
-0.58
-0.595
-0.59
-0.585
-0.58
-0.595
-0.6
-0.6
-0.58
-0.585
-0.57
-0.565
-0.57
-0.575
-0.585
-0.595
-0.595
-0.59
-0.57
-0.565
-0.555
-0.555
-0.56
-0.57
-0.585
-0.595
-0.61
-0.61
-0.58
-0.5
-0.34
-0.12
0.13
0.405
0.75
1.115
1.475
1.775
1.935
1.895
1.66
1.27
0.83
0.37
-0.055
-0.435
-0.77
-1.065
-1.275
-1.385
-1.41
-1.345
-1.225
-1.09
-0.965
-0.89
-0.86
-0.855
-0.87
-0.9
-0.905
-0.9
-0.92
-0.925
-0.945
-0.96
-0.935
-0.925
-0.92
-0.915
-0.915
-0.925
-0.96
-0.97
-0.97
-0.965
-0.95
-0.95
-0.93
-0.93
-0.93
-0.93
-0.925
-0.92
-0.905
-0.9
-0.89
-0.875
-0.875
-0.875
-0.865
-0.85
-0.82
-0.8
-0.77
-0.745
-0.715
-0.71
-0.71
-0.69
-0.655
-0.63
-0.585
-0.545
-0.52
-0.49
-0.46
-0.44
-0.405
-0.39
-0.375
-0.345
-0.31
-0.29
-0.255
-0.21
-0.17
-0.125
-0.075
-0.05
-0.03
-0.01
0.005
0.015
0.04
0.06
0.075
0.075
0.085
0.08
0.075
0.07
0.08
0.065
0.06
0.035
0.015
-0.015
-0.045
-0.055
-0.075
-0.085
-0.085
-0.115
-0.14
-0.175
-0.215
-0.25
-0.265
-0.285
-0.32
-0.35
-0.36
-0.395
-0.415
-0.435
-0.45
-0.475
-0.5
-0.53
-0.57
-0.595
-0.595
-0.59
-0.58
-0.585
-0.585
-0.6
-0.605
-0.62
-0.63
-0.63
-0.615
-0.61
-0.575
-0.545
-0.515
-0.48
-0.435
-0.395
-0.39
-0.36
-0.35
-0.355
-0.35
-0.345
-0.345
-0.335
-0.32
-0.33
-0.36
-0.415
-0.49
-0.555
-0.605
-0.645
-0.685
-0.7
-0.715
-0.72
-0.715
-0.705
-0.7
-0.69
-0.685
-0.685
-0.7
-0.705
-0.73
-0.75
-0.745
-0.745
-0.725
-0.7
-0.7
-0.69
-0.695
-0.715
-0.73
-0.735
-0.76
-0.78
-0.805
-0.8
-0.765
-0.665
-0.495
-0.235
0.095
0.46
0.87
1.27
1.61
1.81
1.805
1.63
1.295
0.86
0.38
-0.1
-0.56
-0.925
-1.19
-1.375
-1.445
-1.425
-1.295
-1.145
-1.03
-0.945
-0.915
-0.91
-0.935
-0.975
-1.015
-1.05
-1.07
-1.065
-1.06
-1.04
-1.035
-1.04
-1.045
-1.065
-1.07
-1.095
-1.12
-1.125
-1.13
-1.13
-1.115
-1.11
-1.115
-1.12
-1.115
-1.125
-1.115
-1.115
-1.095
-1.105
-1.11
-1.1
-1.09
-1.08
-1.045
-1.025
-0.995
-0.97
-0.955
-0.945
-0.915
-0.895
-0.87
-0.84
-0.81
-0.77
-0.74
-0.71
-0.675
-0.635
-0.595
-0.56
-0.535
-0.5
-0.485
-0.445
-0.405
-0.34
-0.29
-0.245
-0.2
-0.175
-0.145
-0.12
-0.085
-0.075
-0.05
-0.03
-0.01
0.015
0.01
0.015
0.025
0.05
0.065
0.045
0.025
0.0
-0.015
-0.025
-0.03
-0.03
-0.03
-0.035
-0.065
-0.085
-0.105
-0.14
-0.165
-0.185
-0.21
-0.22
-0.235
-0.245
-0.28
-0.295
-0.335
-0.35
-0.355
-0.385
-0.41
-0.435
-0.465
-0.49
-0.5
-0.515
-0.49
-0.495
-0.495
-0.5
-0.525
-0.53
-0.545
-0.55
-0.54
-0.53
-0.51
-0.485
-0.465
-0.425
-0.405
-0.365
-0.35
-0.33
-0.305
-0.31
-0.295
-0.295
-0.285
-0.27
-0.26
-0.26
-0.27
-0.29
-0.36
-0.435
-0.5
-0.555
-0.585
-0.615
-0.64
-0.625
-0.625
-0.64
-0.645
-0.63
-0.62
-0.62
-0.63
-0.645
-0.65
-0.665
-0.68
-0.655
-0.65
-0.63
-0.615
-0.61
-0.61
-0.63
-0.64
-0.65
-0.655
-0.655
-0.64
-0.645
-0.64
-0.635
-0.58
-0.465
-0.265
0.005
0.345
0.74
1.175
1.575
1.88
2.005
1.935
1.7
1.355
0.955
0.53
0.155
-0.175
-0.475
-0.74
-0.955
-1.11
-1.155
-1.11
-1.0
-0.88
-0.81
-0.765
-0.775
-0.805
-0.865
-0.89
-0.925
-0.93
-0.935
-0.94
-0.93
-0.925
-0.915
-0.935
-0.955
-0.975
-0.995
-1.015
-1.035
-1.005
-1.01
-1.0
-0.995
-0.995
-1.0
-1.005
-1.0
-1.005
-1.0
-1.005
-1.015
-0.995
-0.995
-0.98
-0.965
-0.93
-0.9
-0.89
-0.875
-0.865
-0.845
-0.83
-0.8
-0.755
-0.725
-0.685
-0.655
-0.65
-0.615
-0.575
-0.545
-0.51
-0.455
-0.41
-0.385
-0.345
-0.305
-0.24
-0.195
-0.14
-0.105
-0.07
-0.055
-0.065
-0.025
0.015
0.05
0.085
0.115
0.14
0.155
0.165
0.17
0.155
0.16
0.16
0.155
0.155
0.135
0.13
0.125
0.12
0.11
0.105
0.09
0.05
0.025
-0.005
-0.04
-0.045
-0.055
-0.075
-0.1
-0.12
-0.14
-0.15
-0.17
-0.19
-0.22
-0.245
-0.27
-0.31
-0.34
-0.355
-0.38
-0.38
-0.38
-0.385
-0.4
-0.43
-0.44
-0.47
-0.475
-0.475
-0.48
-0.45
-0.445
-0.435
-0.415
-0.385
-0.35
-0.32
-0.275
-0.245
-0.235
-0.22
-0.22
-0.205
-0.18
-0.165
-0.125
-0.105
-0.1
-0.125
-0.165
-0.215
-0.275
-0.33
-0.375
-0.415
-0.455
-0.48
-0.495
-0.5
-0.495
-0.49
-0.485
-0.49
-0.49
-0.495
-0.545
-0.525
-0.55
-0.52
-0.505
-0.495
-0.485
-0.5
-0.515
-0.515
-0.51
-0.505
-0.5
-0.5
-0.51
-0.53
-0.545
-0.53
-0.45
-0.3
-0.075
0.235
0.635
1.065
1.51
1.905
2.16
2.25
2.125
1.81
1.395
0.92
0.445
-0.015
-0.41
-0.715
-0.94
-1.06
-1.07
-0.985
-0.86
-0.74
-0.645
-0.61
-0.625
-0.665
-0.725
-0.765
-0.785
-0.79
-0.78
-0.78
-0.765
-0.77
-0.79
-0.805
-0.825
-0.85
-0.86
-0.87
-0.855
-0.855
-0.855
-0.87
-0.86
-0.855
-0.86
-0.85
-0.855
-0.845
-0.86
-0.855
-0.85
-0.845
-0.805
-0.78
-0.75
-0.735
-0.715
-0.7
-0.68
-0.66
-0.63
-0.585
-0.56
-0.515
-0.48
-0.46
-0.41
-0.37
-0.335
-0.29
-0.245
-0.195
-0.16
-0.135
-0.1
-0.05
-0.01
0.035
0.06
0.105
0.14
0.18
0.21
0.235
0.27
0.29
0.305
0.32
0.34
0.355
0.37
0.375
0.385
0.4
0.37
0.335
0.325
0.32
0.305
0.3
0.285
0.28
0.27
0.24
0.21
0.18
0.15
0.135
0.13
0.13
0.09
0.075
0.045
0.01
-0.02
-0.045
-0.065
-0.065
-0.09
-0.12
-0.16
-0.205
-0.24
-0.25
-0.28
-0.285
-0.265
-0.285
-0.315
-0.335
-0.37
-0.39
-0.39
-0.375
-0.38
-0.375
-0.37
-0.375
-0.365
-0.36
-0.34
-0.31
-0.285
-0.25
-0.235
-0.22
-0.205
-0.18
-0.145
-0.1
-0.055
-0.04
-0.015
0.0
0.0
-0.02
-0.04
-0.075
-0.145
-0.205
-0.265
-0.325
-0.365
-0.385
-0.38
-0.385
-0.375
-0.39
-0.4
-0.415
-0.43
-0.425
-0.415
-0.4
-0.39
-0.365
-0.37
-0.38
-0.39
-0.415
-0.415
-0.41
-0.395
-0.39
-0.37
-0.375
-0.38
-0.38
-0.38
-0.405
-0.415
-0.41
-0.355
-0.22
-0.01
0.265
0.615
1.01
1.42
1.785
2.055
2.18
2.07
1.79
1.415
1.0
0.605
0.195
-0.16
-0.47
-0.74
-0.96
-1.09
-1.105
-1.045
-0.945
-0.83
-0.73
-0.67
-0.65
-0.655
-0.66
-0.675
-0.69
-0.685
-0.69
-0.705
-0.735
-0.75
-0.775
-0.785
-0.785
-0.78
-0.785
-0.775
-0.77
-0.76
-0.75
-0.75
-0.75
-0.765
-0.755
-0.76
-0.76
-0.755
-0.745
-0.73
-0.72
-0.705
-0.695
-0.69
-0.675
-0.67
-0.65
-0.625
-0.6
-0.585
-0.555
-0.545
-0.52
-0.5
-0.485
-0.45
-0.42
-0.385
-0.355
-0.34
-0.315
-0.285
-0.245
-0.21
-0.16
-0.115
-0.085
-0.06
-0.05
-0.035
-0.015
0.005
0.06
0.1
0.145
0.175
0.2
0.225
0.245
0.26
0.275
0.29
0.305
0.315
0.32
0.31
0.3
0.31
0.325
0.33
0.325
0.3
0.27
0.235
0.215
0.19
0.165
0.155
0.16
0.15
0.115
0.08
0.055
0.025
0.005
-0.015
-0.04
-0.055
-0.08
-0.105
-0.13
-0.15
-0.16
-0.18
-0.2
-0.23
-0.25
-0.28
-0.31
-0.33
-0.34
-0.355
-0.345
-0.34
-0.345
-0.36
-0.375
-0.4
-0.41
-0.42
-0.41
-0.405
-0.38
-0.375
-0.365
-0.38
-0.36
-0.36
-0.35
-0.325
-0.305
-0.28
-0.245
-0.225
-0.195
-0.16
-0.135
-0.1
-0.07
-0.045
-0.04
-0.05
-0.055
-0.085
-0.09
-0.1
-0.11
-0.155
-0.215
-0.265
-0.315
-0.36
-0.385
-0.385
-0.395
-0.39
-0.4
-0.41
-0.435
-0.445
-0.435
-0.44
-0.43
-0.405
-0.405
-0.42
-0.43
-0.435
-0.435
-0.445
-0.425
-0.4
-0.4
-0.4
-0.4
-0.415
-0.43
-0.445
-0.455
-0.445
-0.395
-0.275
-0.07
0.21
0.55
0.945
1.35
1.75
2.06
2.23
2.255
2.065
1.745
1.325
0.88
0.42
-0.005
-0.375
-0.695
-0.96
-1.14
-1.205
-1.18
-1.065
-0.94
-0.83
-0.745
-0.7
-0.685
-0.71
-0.725
-0.755
-0.78
-0.8
-0.805
-0.815
-0.825
-0.84
-0.83
-0.83
-0.83
-0.825
-0.825
-0.835
-0.85
-0.85
-0.855
-0.855
-0.855
-0.875
-0.88
-0.87
-0.855
-0.855
-0.84
-0.825
-0.825
-0.805
-0.795
-0.805
-0.785
-0.78
-0.765
-0.74
-0.705
-0.69
-0.67
-0.645
-0.64
-0.61
-0.59
-0.565
-0.54
-0.505
-0.485
-0.47
-0.44
-0.42
-0.385
-0.35
-0.305
-0.27
-0.23
-0.205
-0.18
-0.17
-0.145
-0.11
-0.055
-0.005
0.025
0.055
0.08
0.09
0.12
0.135
0.165
0.18
0.225
0.23
0.25
0.245
0.24
0.255
0.24
0.235
0.24
0.225
0.19
0.165
0.155
0.135
0.13
0.12
0.115
0.1
0.055
0.025
-0.005
-0.055
-0.08
-0.095
-0.115
-0.135
-0.155
-0.165
-0.19
-0.225
-0.24
-0.265
-0.27
-0.295
-0.325
-0.35
-0.37
-0.385
-0.38
-0.37
-0.345
-0.33
-0.335
-0.34
-0.36
-0.385
-0.38
-0.375
-0.345
-0.315
-0.285
-0.25
-0.225
-0.2
-0.15
-0.115
-0.09
-0.09
-0.07
-0.06
-0.055
-0.045
-0.04
-0.03
-0.025
-0.03
-0.045
-0.09
-0.155
-0.235
-0.305
-0.35
-0.39
-0.41
-0.42
-0.415
-0.435
-0.415
-0.43
-0.435
-0.44
-0.44
-0.435
-0.44
-0.45
-0.46
-0.455
-0.45
-0.45
-0.425
-0.425
-0.43
-0.445
-0.45
-0.465
-0.465
-0.465
-0.46
-0.47
-0.475
-0.47
-0.435
-0.32
-0.155
0.09
0.385
0.725
1.1
1.465
1.785
2.045
2.15
2.08
1.835
1.475
1.045
0.58
0.12
-0.29
-0.65
-0.945
-1.11
-1.16
-1.105
-0.985
-0.835
-0.715
-0.65
-0.62
-0.65
-0.68
-0.725
-0.765
-0.775
-0.795
-0.785
-0.78
-0.77
-0.755
-0.765
-0.78
-0.8
-0.835
-0.86
-0.86
-0.86
-0.85
-0.83
-0.825
-0.82
-0.835
-0.845
-0.85
-0.85
-0.855
-0.845
-0.83
-0.835
-0.815
-0.81
-0.8
-0.78
-0.745
-0.72
-0.705
-0.69
-0.685
-0.69
-0.675
-0.645
-0.6
-0.56
-0.51
-0.475
-0.44
-0.415
-0.4
-0.38
-0.35
-0.31
-0.285
-0.25
-0.205
-0.175
-0.13
-0.09
-0.04
0.0
0.035
0.07
0.11
0.125
0.16
0.195
0.24
0.28
0.305
0.335
0.36
0.36
0.355
0.35
0.34
0.335
0.35
0.35
0.355
0.35
0.335
0.325
0.285
0.265
0.27
0.255
0.23
0.2
0.165
0.13
0.115
0.085
0.065
0.055
0.035
0.005
-0.015
-0.05
-0.08
-0.125
-0.14
-0.165
-0.195
-0.22
-0.245
-0.245
-0.25
-0.255
-0.255
-0.265
-0.275
-0.31
-0.34
-0.335
-0.325
-0.335
-0.34
-0.34
-0.325
-0.31
-0.29
-0.255
-0.215
-0.18
-0.13
-0.1
-0.06
-0.05
-0.03
-0.01
0.005
0.025
0.0
-0.01
-0.05
-0.08
-0.145
-0.19
-0.235
-0.285
-0.31
-0.34
-0.365
-0.36
-0.365
-0.355
-0.36
-0.365
-0.36
-0.375
-0.375
-0.385
-0.38
-0.37
-0.36
-0.34
-0.35
-0.35
-0.355
-0.365
-0.365
-0.355
-0.36
-0.355
-0.355
-0.36
-0.37
-0.365
-0.32
-0.195
0.0
0.255
0.6
0.995
1.405
1.795
2.09
2.235
2.175
1.89
1.515
1.055
0.585
0.12
-0.27
-0.545
-0.775
-0.94
-1.025
-1.035
-0.985
-0.85
-0.72
-0.615
-0.555
-0.535
-0.575
-0.62
-0.665
-0.69
-0.695
-0.685
-0.675
-0.69
-0.69
-0.705
-0.705
-0.735
-0.745
-0.74
-0.73
-0.71
-0.695
-0.69
-0.69
-0.705
-0.71
-0.71
-0.705
-0.7
-0.7
-0.705
-0.69
-0.675
-0.66
-0.63
-0.59
-0.57
-0.545
-0.535
-0.52
-0.52
-0.495
-0.455
-0.41
-0.365
-0.345
-0.31
-0.305
-0.28
-0.26
-0.225
-0.185
-0.16
-0.12
-0.08
-0.04
-0.015
0.01
0.06
0.105
0.145
0.175
0.195
0.22
0.24
0.27
0.315
0.345
0.37
0.405
0.415
0.415
0.425
0.42
0.43
0.44
0.435
0.425
0.425
0.395
0.375
0.37
0.375
0.375
0.36
0.335
0.295
0.27
0.25
0.215
0.205
0.185
0.17
0.16
0.12
0.08
0.05
0.01
0.0
-0.01
-0.025
-0.05
-0.05
-0.06
-0.105
-0.14
-0.17
-0.185
-0.195
-0.2
-0.21
-0.235
-0.265
-0.29
-0.29
-0.295
-0.285
-0.265
-0.25
-0.245
-0.26
-0.275
-0.285
-0.295
-0.3
-0.295
-0.275
-0.265
-0.225
-0.2
-0.175
-0.125
-0.07
-0.035
-0.025
-0.015
-0.005
-0.005
0.01
0.035
0.055
0.055
0.065
0.045
-0.01
-0.07
-0.12
-0.18
-0.235
-0.28
-0.3
-0.3
-0.31
-0.305
-0.295
-0.305
-0.3
-0.31
-0.31
-0.32
-0.35
-0.35
-0.35
-0.345
-0.325
-0.3
-0.3
-0.295
-0.31
-0.32
-0.33
-0.335
-0.335
-0.335
-0.335
-0.34
-0.355
-0.35
-0.33
-0.245
-0.09
0.165
0.46
0.81
1.195
1.6
1.935
2.2
