Lead II
-0.45
-0.435
-0.42
-0.415
-0.43
-0.435
-0.445
-0.43
-0.425
-0.435
-0.435
-0.435
-0.44
-0.435
-0.425
-0.425
-0.42
-0.435
-0.44
-0.43
-0.42
-0.425
-0.45
-0.505
-0.535
-0.555
-0.57
-0.605
-0.64
-0.605
-0.51
-0.355
-0.19
0.0
0.235
0.49
0.74
0.915
0.985
0.885
0.585
0.15
-0.27
-0.51
-0.555
-0.54
-0.5
-0.475
-0.465
-0.455
-0.445
-0.445
-0.445
-0.455
-0.455
-0.445
-0.43
-0.435
-0.445
-0.46
-0.47
-0.46
-0.44
-0.45
-0.46
-0.46
-0.47
-0.455
-0.445
-0.45
-0.455
-0.475
-0.475
-0.46
-0.465
-0.455
-0.46
-0.465
-0.48
-0.465
-0.46
-0.455
-0.455
-0.47
-0.465
-0.465
-0.46
-0.45
-0.465
-0.47
-0.47
-0.455
-0.445
-0.45
-0.455
-0.46
-0.46
-0.455
-0.45
-0.445
-0.455
-0.46
-0.465
-0.46
-0.45
-0.45
-0.46
-0.455
-0.47
-0.455
-0.455
-0.445
-0.445
-0.45
-0.465
-0.435
-0.44
-0.445
-0.45
-0.47
-0.47
-0.465
-0.45
-0.455
-0.46
-0.47
-0.475
-0.475
-0.47
-0.475
-0.49
-0.505
-0.505
-0.49
-0.48
-0.5
-0.515
-0.5
-0.505
-0.495
-0.49
-0.49
-0.485
-0.49
-0.495
-0.465
-0.46
-0.435
-0.43
-0.435
-0.42
-0.395
-0.38
-0.38
-0.375
-0.38
-0.37
-0.355
-0.335
-0.33
-0.34
-0.335
-0.325
-0.33
-0.32
-0.315
-0.325
-0.33
-0.335
-0.32
-0.31
-0.31
-0.315
-0.33
-0.33
-0.32
-0.305
-0.305
-0.31
-0.31
-0.325
-0.315
-0.31
-0.305
-0.315
-0.325
-0.335
-0.32
-0.315
-0.31
-0.325
-0.33
-0.325
-0.325
-0.315
-0.315
-0.31
-0.33
-0.335
-0.335
-0.315
-0.32
-0.33
-0.335
-0.335
-0.33
-0.325
-0.32
-0.33
-0.34
-0.34
-0.34
-0.335
-0.335
-0.34
-0.345
-0.355
-0.34
-0.33
-0.355
-0.34
-0.355
-0.355
-0.34
-0.335
-0.345
-0.345
-0.355
-0.365
-0.35
-0.345
-0.335
-0.345
-0.355
-0.355
-0.35
-0.335
-0.335
-0.345
-0.35
-0.35
-0.345
-0.34
-0.335
-0.345
-0.35
-0.36
-0.345
-0.34
-0.33
-0.34
-0.355
-0.35
-0.34
-0.33
-0.33
-0.34
-0.345
-0.345
-0.335
-0.325
-0.32
-0.325
-0.34
-0.335
-0.31
-0.295
-0.27
-0.265
-0.27
-0.275
-0.265
-0.255
-0.255
-0.26
-0.265
-0.25
-0.235
-0.235
-0.22
-0.235
-0.23
-0.235
-0.235
-0.225
-0.22
-0.24
-0.245
-0.265
-0.25
-0.24
-0.235
-0.245
-0.26
-0.27
-0.25
-0.225
-0.21
-0.215
-0.245
-0.285
-0.29
-0.305
-0.305
-0.33
-0.34
-0.36
-0.35
-0.35
-0.355
-0.355
-0.375
-0.375
-0.375
-0.36
-0.35
-0.365
-0.36
-0.37
-0.365
-0.35
-0.355
-0.36
-0.365
-0.375
-0.36
-0.365
-0.36
-0.365
-0.365
-0.395
-0.4
-0.44
-0.475
-0.505
-0.525
-0.565
-0.56
-0.505
-0.395
-0.25
-0.09
0.07
0.295
0.53
0.765
0.965
1.075
1.135
1.115
0.94
0.575
0.13
-0.22
-0.415
-0.445
-0.415
-0.375
-0.36
-0.385
-0.39
-0.385
-0.38
-0.38
-0.4
-0.415
-0.42
-0.42
-0.41
-0.415
-0.42
-0.43
-0.425
-0.42
-0.415
-0.41
-0.42
-0.425
-0.435
-0.425
-0.41
-0.415
-0.42
-0.425
-0.435
-0.425
-0.41
-0.415
-0.42
-0.435
-0.44
-0.415
-0.415
-0.415
-0.43
-0.435
-0.43
-0.43
-0.42
-0.42
-0.43
-0.435
-0.435
-0.43
-0.415
-0.42
-0.425
-0.43
-0.43
-0.425
-0.42
-0.415
-0.42
-0.425
-0.435
-0.435
-0.425
-0.425
-0.43
-0.435
-0.44
-0.435
-0.41
-0.41
-0.415
-0.425
-0.43
-0.425
-0.43
-0.435
-0.43
-0.43
-0.445
-0.435
-0.43
-0.435
-0.445
-0.44
-0.445
-0.45
-0.44
-0.445
-0.455
-0.465
-0.465
-0.46
-0.445
-0.44
-0.45
-0.46
-0.46
-0.445
-0.45
-0.435
-0.43
-0.435
-0.445
-0.43
-0.41
-0.39
-0.395
-0.395
-0.39
-0.37
-0.35
-0.35
-0.345
-0.345
-0.34
-0.33
-0.32
-0.305
-0.31
-0.32
-0.315
-0.3
-0.295
-0.29
-0.295
-0.305
-0.31
-0.305
-0.3
-0.305
-0.3
-0.305
-0.31
-0.305
-0.3
-0.3
-0.305
-0.315
-0.315
-0.31
-0.315
-0.305
-0.31
-0.315
-0.325
-0.325
-0.315
-0.315
-0.325
-0.33
-0.335
-0.325
-0.32
-0.315
-0.32
-0.335
-0.34
-0.33
-0.33
-0.345
-0.34
-0.34
-0.365
-0.35
-0.34
-0.345
-0.34
-0.35
-0.36
-0.36
-0.34
-0.345
-0.36
-0.37
-0.375
-0.355
-0.35
-0.355
-0.365
-0.37
-0.37
-0.355
-0.35
-0.345
-0.355
-0.355
-0.365
-0.36
-0.355
-0.35
-0.355
-0.37
-0.36
-0.365
-0.345
-0.365
-0.35
-0.36
-0.365
-0.355
-0.34
-0.345
-0.34
-0.36
-0.36
-0.345
-0.35
-0.35
-0.35
-0.35
-0.355
-0.345
-0.335
-0.345
-0.35
-0.355
-0.355
-0.34
-0.315
-0.325
-0.33
-0.335
-0.32
-0.305
-0.29
-0.275
-0.28
-0.27
-0.29
-0.27
-0.25
-0.24
-0.235
-0.24
-0.25
-0.235
-0.23
-0.24
-0.245
-0.265
-0.275
-0.27
-0.255
-0.27
-0.28
-0.275
-0.25
-0.225
-0.23
-0.26
-0.285
-0.31
-0.335
-0.325
-0.325
-0.335
-0.345
-0.36
-0.39
-0.365
-0.355
-0.345
-0.37
-0.385
-0.37
-0.37
-0.375
-0.375
-0.39
-0.39
-0.39
-0.385
-0.365
-0.375
-0.37
-0.37
-0.37
-0.375
-0.375
-0.37
-0.375
-0.385
-0.415
-0.455
-0.485
-0.505
-0.53
-0.575
-0.63
-0.605
-0.49
-0.32
-0.135
0.065
0.33
0.66
0.915
1.04
0.995
0.715
0.23
-0.225
-0.47
-0.51
-0.455
-0.405
-0.405
-0.41
-0.405
-0.4
-0.41
-0.44
-0.44
-0.43
-0.415
-0.425
-0.425
-0.435
-0.435
-0.435
-0.43
-0.43
-0.44
-0.435
-0.445
-0.435
-0.425
-0.425
-0.42
-0.435
-0.445
-0.445
-0.42
-0.42
-0.435
-0.44
-0.45
-0.445
-0.43
-0.42
-0.43
-0.44
-0.45
-0.445
-0.435
-0.435
-0.43
-0.435
-0.45
-0.425
-0.415
-0.43
-0.44
-0.435
-0.445
-0.435
-0.425
-0.435
-0.43
-0.44
-0.445
-0.435
-0.415
-0.425
-0.43
-0.435
-0.44
-0.43
-0.42
-0.435
-0.43
-0.44
-0.44
-0.435
-0.43
-0.425
-0.435
-0.455
-0.45
-0.44
-0.445
-0.445
-0.44
-0.455
-0.45
-0.455
-0.445
-0.455
-0.455
-0.47
-0.485
-0.47
-0.45
-0.445
-0.46
-0.465
-0.455
-0.445
-0.445
-0.42
-0.425
-0.43
-0.425
-0.39
-0.395
-0.38
-0.37
-0.365
-0.36
-0.34
-0.33
-0.32
-0.325
-0.33
-0.33
-0.315
-0.305
-0.3
-0.315
-0.315
-0.315
-0.305
-0.3
-0.295
-0.295
-0.31
-0.32
-0.315
-0.31
-0.31
-0.32
-0.32
-0.33
-0.32
-0.32
-0.325
-0.33
-0.335
-0.345
-0.335
-0.335
-0.32
-0.335
-0.35
-0.355
-0.35
-0.365
-0.355
-0.365
-0.36
-0.365
-0.36
-0.365
-0.37
-0.365
-0.375
-0.385
-0.375
-0.37
-0.365
-0.36
-0.375
-0.375
-0.37
-0.36
-0.375
-0.375
-0.39
-0.4
-0.375
-0.375
-0.37
-0.38
-0.39
-0.4
-0.39
-0.385
-0.375
-0.385
-0.405
-0.405
-0.39
-0.37
-0.365
-0.375
-0.39
-0.38
-0.37
-0.375
-0.375
-0.38
-0.385
-0.39
-0.38
-0.385
-0.38
-0.395
-0.385
-0.395
-0.38
-0.355
-0.36
-0.36
-0.38
-0.385
-0.375
-0.36
-0.355
-0.37
-0.375
-0.37
-0.355
-0.325
-0.305
-0.315
-0.315
-0.315
-0.305
-0.295
-0.27
-0.26
-0.265
-0.265
-0.255
-0.265
-0.275
-0.29
-0.3
-0.305
-0.295
-0.27
-0.28
-0.295
-0.315
-0.305
-0.27
-0.265
-0.29
-0.32
-0.345
-0.36
-0.385
-0.385
-0.38
-0.39
-0.4
-0.405
-0.39
-0.39
-0.38
-0.405
-0.4
-0.4
-0.41
-0.405
-0.4
-0.405
-0.415
-0.42
-0.415
-0.41
-0.405
-0.41
-0.435
-0.435
-0.425
-0.41
-0.415
-0.445
-0.49
-0.54
-0.545
-0.585
-0.635
-0.635
-0.59
-0.45
-0.275
-0.07
0.19
0.5
0.73
0.865
0.865
0.65
0.25
-0.185
-0.46
-0.575
-0.565
-0.5
-0.455
-0.445
-0.47
-0.475
-0.445
-0.44
-0.455
-0.455
-0.455
-0.46
-0.45
-0.445
-0.44
-0.455
-0.475
-0.465
-0.475
-0.455
-0.455
-0.46
-0.465
-0.47
-0.47
-0.465
-0.46
-0.455
-0.47
-0.49
-0.48
-0.455
-0.47
-0.46
-0.46
-0.465
-0.485
-0.475
-0.475
-0.465
-0.475
-0.48
-0.48
-0.485
-0.48
-0.485
-0.49
-0.485
-0.48
-0.47
-0.47
-0.48
-0.485
-0.5
-0.485
-0.47
-0.475
-0.48
-0.485
-0.495
-0.5
-0.48
-0.48
-0.485
-0.5
-0.505
-0.495
-0.485
-0.485
-0.485
-0.49
-0.49
-0.495
-0.495
-0.5
-0.51
-0.53
-0.54
-0.53
-0.525
-0.52
-0.52
-0.53
-0.54
-0.545
-0.54
-0.545
-0.55
-0.56
-0.565
-0.545
-0.535
-0.52
-0.52
-0.505
-0.495
-0.5
-0.485
-0.46
-0.45
-0.455
-0.45
-0.415
-0.405
-0.385
-0.395
-0.4
-0.405
-0.395
-0.385
-0.37
-0.375
-0.38
-0.4
-0.385
-0.375
-0.375
-0.39
-0.395
-0.41
-0.395
-0.365
-0.38
-0.385
-0.385
-0.395
-0.385
-0.375
-0.365
-0.36
-0.38
-0.385
-0.39
-0.39
-0.405
-0.4
-0.4
-0.4
-0.39
-0.39
-0.4
-0.415
-0.425
-0.44
-0.43
-0.415
-0.41
-0.4
-0.415
-0.43
-0.41
-0.41
-0.425
-0.425
-0.435
-0.435
-0.42
-0.425
-0.44
-0.44
-0.44
-0.445
-0.435
-0.425
-0.42
-0.415
-0.415
-0.425
-0.415
-0.415
-0.415
-0.435
-0.44
-0.445
-0.445
-0.435
-0.43
-0.425
-0.43
-0.42
-0.43
-0.43
-0.435
-0.44
-0.43
-0.435
-0.43
-0.42
-0.415
-0.415
-0.43
-0.435
-0.43
-0.44
-0.445
-0.425
-0.415
-0.42
-0.405
-0.405
-0.385
-0.365
-0.36
-0.365
-0.375
-0.365
-0.36
-0.355
-0.355
-0.34
-0.315
-0.305
-0.31
-0.305
-0.325
-0.33
-0.325
-0.32
-0.34
-0.335
-0.345
-0.34
-0.34
-0.335
-0.35
-0.345
-0.345
-0.335
-0.315
-0.345
-0.365
-0.38
-0.425
-0.445
-0.445
-0.44
-0.44
-0.45
-0.465
-0.47
-0.45
-0.44
-0.435
-0.44
-0.45
-0.455
-0.45
-0.435
-0.435
-0.445
-0.46
-0.465
-0.445
-0.435
-0.445
-0.45
-0.455
-0.46
-0.47
-0.46
-0.475
-0.525
-0.565
-0.595
-0.61
-0.635
-0.59
-0.485
-0.335
-0.14
0.11
0.375
0.665
0.855
0.94
0.84
0.51
0.055
-0.34
-0.535
-0.58
-0.56
-0.495
-0.465
-0.46
-0.475
-0.475
-0.475
-0.47
-0.46
-0.46
-0.465
-0.485
-0.48
-0.475
-0.465
-0.47
-0.475
-0.485
-0.48
-0.47
-0.465
-0.47
-0.475
-0.475
-0.475
-0.475
-0.455
-0.465
-0.47
-0.475
-0.485
-0.475
-0.46
-0.475
-0.475
-0.475
-0.48
-0.48
-0.47
-0.465
-0.475
-0.475
-0.47
-0.475
-0.46
-0.46
-0.46
-0.47
-0.475
-0.465
-0.46
-0.46
-0.47
-0.475
-0.48
-0.475
-0.45
-0.46
-0.475
-0.49
-0.49
-0.48
-0.465
-0.465
-0.465
-0.49
-0.485
-0.48
-0.47
-0.48
-0.485
-0.485
-0.495
-0.49
-0.495
-0.495
-0.495
-0.51
-0.52
-0.52
-0.51
-0.515
-0.525
-0.535
-0.545
-0.54
-0.52
-0.525
-0.53
-0.545
-0.54
-0.515
-0.5
-0.495
-0.49
-0.505
-0.49
-0.455
-0.415
-0.41
-0.41
-0.4
-0.4
-0.38
-0.365
-0.365
-0.36
-0.365
-0.365
-0.345
-0.33
-0.335
-0.345
-0.355
-0.345
-0.34
-0.325
-0.32
-0.345
-0.34
-0.34
-0.34
-0.33
-0.315
-0.325
-0.335
-0.345
-0.33
-0.325
-0.325
-0.325
-0.335
-0.34
-0.34
-0.33
-0.325
-0.35
-0.355
-0.355
-0.345
-0.33
-0.335
-0.34
-0.34
-0.35
-0.34
-0.335
-0.33
-0.335
-0.345
-0.35
-0.34
-0.34
-0.34
-0.35
-0.355
-0.36
-0.36
-0.345
-0.35
-0.345
-0.345
-0.36
-0.355
-0.345
-0.355
-0.355
-0.355
-0.36
-0.36
-0.355
-0.345
-0.345
-0.355
-0.355
-0.35
-0.34
-0.335
-0.36
-0.365
-0.36
-0.355
-0.345
-0.345
-0.355
-0.355
-0.37
-0.36
-0.345
-0.35
-0.355
-0.375
-0.375
-0.36
-0.345
-0.345
-0.355
-0.35
-0.365
-0.355
-0.34
-0.345
-0.34
-0.345
-0.35
-0.34
-0.315
-0.315
-0.315
-0.3
-0.295
-0.285
-0.265
-0.26
-0.265
-0.27
-0.27
-0.255
-0.23
-0.225
-0.23
-0.225
-0.245
-0.235
-0.235
-0.245
-0.25
-0.25
-0.25
-0.255
-0.255
-0.245
-0.24
-0.215
-0.225
-0.235
-0.27
-0.295
-0.31
-0.325
-0.345
-0.34
-0.345
-0.355
-0.355
-0.355
-0.365
-0.355
-0.35
-0.35
-0.355
-0.37
-0.375
-0.36
-0.365
-0.355
-0.37
-0.37
-0.375
-0.38
-0.365
-0.365
-0.37
-0.38
-0.385
-0.38
-0.395
-0.425
-0.47
-0.51
-0.525
-0.555
-0.575
-0.525
-0.415
-0.23
-0.03
0.21
0.51
0.785
0.995
1.13
1.2
1.195
0.995
0.545
0.005
-0.355
-0.5
-0.46
-0.395
-0.355
-0.365
-0.39
-0.395
-0.4
-0.385
-0.39
-0.395
-0.415
-0.42
-0.415
-0.415
-0.41
-0.42
-0.42
-0.425
-0.41
-0.41
-0.415
-0.415
-0.425
-0.425
-0.43
-0.42
-0.42
-0.42
-0.43
-0.44
-0.43
-0.42
-0.415
-0.42
-0.43
-0.425
-0.41
-0.415
-0.405
-0.41
-0.41
-0.42
-0.42
-0.41
-0.405
-0.415
-0.42
-0.44
-0.43
-0.42
-0.42
-0.425
-0.43
-0.435
-0.435
-0.435
-0.425
-0.43
-0.445
-0.45
-0.44
-0.43
-0.425
-0.43
-0.435
-0.445
-0.425
-0.425
-0.43
-0.425
-0.445
-0.45
-0.45
-0.44
-0.45
-0.46
-0.455
-0.47
-0.455
-0.445
-0.46
-0.46
-0.475
-0.465
-0.46
-0.465
-0.455
-0.46
-0.47
-0.475
-0.46
-0.445
-0.44
-0.415
-0.42
-0.41
-0.4
-0.385
-0.365
-0.365
-0.345
-0.365
-0.355
-0.34
-0.325
-0.33
-0.335
-0.345
-0.33
-0.33
-0.325
-0.32
-0.325
-0.325
-0.32
-0.32
-0.315
-0.32
-0.33
-0.335
-0.335
-0.31
-0.32
-0.325
-0.33
-0.34
-0.33
-0.325
-0.315
-0.32
-0.33
-0.345
-0.335
-0.33
-0.335
-0.34
-0.35
-0.36
-0.355
-0.34
-0.345
-0.345
-0.355
-0.36
-0.355
-0.345
-0.345
-0.36
-0.365
-0.375
-0.37
-0.36
-0.36
-0.36
-0.37
-0.385
-0.375
-0.365
-0.36
-0.37
-0.395
-0.4
-0.39
-0.375
-0.375
-0.375
-0.38
-0.385
-0.37
-0.385
-0.37
-0.38
-0.38
-0.385
-0.385
-0.37
-0.385
-0.385
-0.385
-0.395
-0.39
-0.385
-0.38
-0.375
-0.385
-0.395
-0.39
-0.375
-0.37
-0.38
-0.38
-0.375
-0.38
-0.365
-0.355
-0.37
-0.37
-0.385
-0.36
-0.37
-0.365
-0.365
-0.36
-0.37
-0.355
-0.355
-0.36
-0.35
-0.34
-0.34
-0.31
-0.3
-0.295
-0.295
-0.295
-0.305
-0.29
-0.27
-0.27
-0.26
-0.255
-0.26
-0.26
-0.25
-0.26
-0.265
-0.28
-0.29
-0.29
-0.265
-0.275
-0.285
-0.295
-0.285
-0.26
-0.24
-0.25
-0.285
-0.31
-0.325
-0.325
-0.34
-0.355
-0.355
-0.375
-0.405
-0.38
-0.39
-0.375
-0.375
-0.395
-0.395
-0.39
-0.395
-0.395
-0.395
-0.405
-0.41
-0.41
-0.395
-0.395
-0.395
-0.405
-0.42
-0.4
-0.405
-0.375
-0.395
-0.41
-0.41
-0.415
-0.42
-0.44
-0.495
-0.54
-0.56
-0.59
-0.62
-0.615
-0.55
-0.415
-0.245
-0.05
0.185
0.47
0.755
0.95
1.015
0.935
0.635
0.175
-0.275
-0.53
-0.55
-0.485
-0.425
-0.41
-0.425
-0.44
-0.45
-0.445
-0.435
-0.43
-0.44
-0.45
-0.455
-0.465
-0.455
-0.45
-0.445
-0.455
-0.47
-0.455
-0.45
-0.45
-0.45
-0.46
-0.455
-0.455
-0.455
-0.445
-0.445
-0.455
-0.455
-0.455
-0.45
-0.44
-0.455
-0.45
-0.46
-0.465
-0.445
-0.44
-0.45
-0.45
-0.465
-0.465
-0.455
-0.455
-0.445
-0.445
-0.455
-0.46
-0.435
-0.44
-0.44
-0.45
-0.46
-0.45
-0.44
-0.43
-0.44
-0.45
-0.455
-0.445
-0.435
-0.44
-0.44
-0.44
-0.455
-0.45
-0.455
-0.44
-0.445
-0.45
-0.455
-0.45
-0.44
-0.445
-0.445
-0.445
-0.46
-0.455
-0.465
-0.44
-0.455
-0.48
-0.485
-0.475
-0.46
-0.455
-0.465
-0.475
-0.465
-0.47
-0.46
-0.465
-0.455
-0.47
-0.47
-0.465
-0.44
-0.435
-0.43
-0.43
-0.43
-0.42
-0.4
-0.385
-0.375
-0.37
-0.375
-0.36
-0.35
-0.335
-0.335
-0.34
-0.345
-0.34
-0.325
-0.31
-0.325
-0.335
-0.34
-0.32
-0.32
-0.315
-0.315
-0.33
-0.33
-0.33
-0.33
-0.32
-0.325
-0.325
-0.335
-0.33
-0.32
-0.315
-0.325
-0.325
-0.34
-0.335
-0.315
-0.325
-0.325
-0.34
-0.345
-0.34
-0.335
-0.33
-0.335
-0.34
-0.36
-0.345
-0.345
-0.34
-0.33
-0.345
-0.36
-0.35
-0.355
-0.345
-0.345
-0.355
-0.36
-0.365
-0.35
-0.345
-0.345
-0.345
-0.375
-0.37
-0.36
-0.355
-0.365
-0.375
-0.38
-0.375
-0.365
-0.37
-0.37
-0.38
-0.385
-0.38
-0.36
-0.36
-0.365
-0.37
-0.385
-0.375
-0.36
-0.36
-0.36
-0.365
-0.375
-0.365
-0.365
-0.365
-0.355
-0.365
-0.365
-0.365
-0.35
-0.345
-0.37
-0.36
-0.36
-0.355
-0.35
-0.345
-0.345
-0.35
-0.355
-0.36
-0.355
-0.335
-0.34
-0.345
-0.35
-0.345
-0.35
-0.335
-0.33
-0.33
-0.32
-0.3
-0.285
-0.27
-0.28
-0.285
-0.28
-0.27
-0.26
-0.245
-0.235
-0.24
-0.235
-0.235
-0.23
-0.225
-0.225
-0.24
-0.255
-0.25
-0.25
-0.245
-0.25
-0.26
-0.285
-0.265
-0.255
-0.23
-0.21
-0.23
-0.255
-0.275
-0.285
-0.3
-0.315
-0.335
-0.355
-0.355
-0.35
-0.35
-0.355
-0.36
-0.365
-0.37
-0.37
-0.355
-0.36
-0.375
-0.385
-0.375
-0.365
-0.375
-0.37
-0.38
-0.385
-0.37
-0.375
-0.365
-0.36
-0.375
-0.39
-0.385
-0.38
-0.375
-0.4
-0.44
-0.485
-0.505
-0.54
-0.58
-0.605
-0.58
-0.49
-0.325
-0.175
0.015
0.265
0.53
0.745
0.885
0.925
0.8
0.495
0.09
-0.26
-0.47
-0.525
-0.5
-0.46
-0.425
-0.415
-0.42
-0.405
-0.41
-0.42
-0.425
-0.43
-0.415
-0.41
-0.4
-0.4
-0.42
-0.42
-0.415
-0.415
-0.41
-0.41
-0.42
-0.43
-0.42
-0.405
-0.405
-0.4
-0.415
-0.43
-0.425
-0.435
-0.425
-0.43
-0.435
-0.425
-0.425
-0.41
-0.405
-0.41
-0.415
-0.425
-0.42
-0.415
-0.405
-0.405
-0.42
-0.425
-0.43
-0.42
-0.42
-0.425
-0.43
-0.435
-0.435
-0.42
-0.41
-0.41
-0.42
-0.43
-0.425
-0.42
-0.41
-0.41
-0.42
-0.425
-0.43
-0.44
-0.415
-0.41
-0.415
-0.415
-0.42
-0.415
-0.41
-0.43
-0.425
-0.435
-0.43
-0.435
-0.425
-0.43
-0.435
-0.45
-0.45
-0.445
-0.44
-0.45
-0.465
-0.465
-0.48
-0.46
-0.455
-0.47
-0.475
-0.485
-0.48
-0.46
-0.455
-0.455
-0.46
-0.455
-0.44
-0.415
-0.4
-0.395
-0.405
-0.395
-0.37
-0.355
-0.335
-0.34
-0.335
-0.355
-0.355
-0.345
-0.335
-0.35
-0.35
-0.34
-0.34
-0.325
-0.325
-0.33
-0.32
-0.335
-0.335
-0.33
-0.33
-0.34
-0.35
-0.36
-0.35
-0.335
-0.335
-0.33
-0.335
-0.345
-0.325
-0.325
-0.33
-0.335
-0.345
-0.345
-0.345
-0.345
-0.36
-0.36
-0.365
-0.37
-0.355
-0.355
-0.35
-0.36
-0.37
-0.39
-0.37
-0.37
-0.355
-0.355
-0.37
-0.38
-0.375
-0.37
-0.38
-0.38
-0.38
-0.38
-0.38
-0.37
-0.37
-0.385
-0.385
-0.4
-0.375
-0.375
-0.37
-0.385
-0.38
-0.39
-0.37
-0.36
-0.37
-0.375
-0.385
-0.395
-0.38
-0.36
-0.375
-0.385
-0.37
-0.38
-0.37
-0.38
-0.385
-0.38
-0.38
-0.385
-0.38
-0.375
-0.355
-0.37
-0.375
-0.395
-0.385
-0.375
-0.365
-0.355
-0.37
-0.37
-0.365
-0.355
-0.325
-0.335
-0.335
-0.32
-0.33
-0.315
-0.305
-0.31
-0.305
-0.285
-0.27
-0.255
-0.255
-0.275
-0.285
-0.285
-0.295
-0.285
-0.28
-0.28
-0.29
-0.315
-0.33
-0.34
-0.32
-0.29
-0.26
-0.25
-0.245
-0.245
-0.285
-0.31
-0.345
-0.38
-0.385
-0.385
-0.385
-0.39
-0.4
-0.41
-0.41
-0.405
-0.395
-0.405
-0.42
-0.42
-0.405
-0.4
-0.385
-0.41
-0.4
-0.41
-0.41
-0.41
-0.415
-0.405
-0.425
-0.44
-0.435
-0.42
-0.425
-0.46
-0.485
-0.525
-0.54
-0.56
-0.59
-0.63
-0.61
-0.545
-0.425
-0.32
-0.245
-0.16
-0.035
0.105
0.32
0.555
0.755
0.89
0.965
0.915
0.705
0.32
-0.07
-0.38
-0.525
-0.56
-0.525
-0.475
-0.445
-0.445
-0.46
-0.47
-0.465
-0.44
-0.435
-0.45
-0.46
-0.46
-0.47
-0.455
-0.455
-0.455
-0.465
-0.475
-0.46
-0.455
-0.44
-0.45
-0.45
-0.47
-0.455
-0.455
-0.455
-0.46
-0.48
-0.475
-0.475
-0.46
-0.46
-0.46
-0.47
-0.475
-0.47
-0.45
-0.455
-0.455
-0.455
-0.465
-0.455
-0.465
-0.47
-0.48
-0.485
-0.47
-0.46
-0.465
-0.46
-0.46
-0.47
-0.48
-0.465
-0.465
-0.46
-0.465
-0.48
-0.48
-0.475
-0.465
-0.46
-0.465
-0.475
-0.485
-0.49
-0.475
-0.465
-0.475
-0.48
-0.49
-0.48
-0.475
-0.485
-0.475
-0.485
-0.51
-0.515
-0.505
-0.5
-0.51
-0.53
-0.54
-0.545
-0.54
-0.525
-0.53
-0.53
-0.55
-0.555
-0.535
-0.53
-0.525
-0.53
-0.535
-0.52
-0.505
-0.47
-0.47
-0.46
-0.455
-0.43
-0.415
-0.4
-0.395
-0.395
-0.39
-0.375
-0.365
-0.355
-0.35
-0.37
-0.365
-0.365
-0.35
-0.34
-0.34
-0.35
-0.36
-0.355
-0.345
-0.33
-0.33
-0.34
-0.35
-0.345
-0.34
-0.325
-0.33
-0.34
-0.35
-0.355
-0.35
-0.335
-0.335
-0.345
-0.365
-0.35
-0.34
-0.34
-0.34
-0.35
-0.36
-0.37
-0.355
-0.345
-0.345
-0.36
-0.39
-0.37
-0.37
-0.355
-0.355
-0.365
-0.37
-0.37
-0.37
-0.365
-0.365
-0.37
-0.375
-0.38
-0.36
-0.355
-0.36
-0.37
-0.38
-0.385
-0.37
-0.365
-0.37
-0.37
-0.38
-0.37
-0.365
-0.36
-0.37
-0.375
-0.38
-0.37
-0.365
-0.355
-0.355
-0.36
-0.37
-0.36
-0.355
-0.35
-0.36
-0.365
-0.365
-0.36
-0.35
-0.36
-0.355
-0.36
-0.37
-0.37
-0.36
-0.35
-0.36
-0.36
-0.37
-0.37
-0.36
-0.35
-0.34
-0.345
-0.35
-0.345
-0.31
-0.29
-0.285
-0.285
-0.29
-0.29
-0.29
-0.27
-0.26
-0.255
-0.255
-0.25
-0.235
-0.24
-0.25
-0.265
-0.27
-0.275
-0.265
-0.26
-0.265
-0.29
-0.29
-0.28
-0.26
-0.225
-0.225
-0.265
-0.305
-0.31
-0.31
-0.315
-0.33
-0.345
-0.355
-0.365
-0.365
-0.365
-0.375
-0.37
-0.385
-0.39
-0.38
-0.375
-0.375
-0.385
-0.4
-0.4
-0.385
-0.385
-0.375
-0.385
-0.4
-0.39
-0.38
-0.375
-0.38
-0.405
-0.41
-0.435
-0.47
-0.505
-0.525
-0.555
-0.605
-0.625
-0.565
-0.44
-0.245
-0.06
0.145
0.43
0.725
0.97
1.115
1.13
0.93
0.525
0.05
-0.32
-0.495
-0.525
-0.48
-0.435
-0.39
-0.38
-0.385
-0.4
-0.42
-0.43
-0.42
-0.42
-0.415
-0.435
-0.44
-0.44
-0.435
-0.43
-0.43
-0.44
-0.44
-0.445
-0.435
-0.445
-0.435
-0.445
-0.445
-0.435
-0.43
-0.43
-0.43
-0.45
-0.455
-0.45
-0.435
-0.425
-0.44
-0.44
-0.44
-0.445
-0.425
-0.425
-0.425
-0.435
-0.44
-0.45
-0.42
-0.42
-0.425
-0.43
-0.435
-0.445
-0.43
-0.425
-0.425
-0.43
-0.44
-0.435
-0.425
-0.42
-0.415
-0.425
-0.445
-0.435
-0.43
-0.41
-0.43
-0.425
-0.44
-0.445
-0.435
-0.43
-0.43
-0.44
-0.445
-0.445
-0.435
-0.44
-0.44
-0.45
-0.46
-0.465
-0.46
-0.45
-0.465
-0.47
-0.47
-0.465
-0.465
-0.455
-0.455
-0.465
-0.475
-0.475
-0.47
-0.455
-0.455
-0.455
-0.455
-0.445
-0.425
-0.415
-0.41
-0.405
-0.41
-0.385
-0.375
-0.375
-0.375
-0.36
-0.37
-0.36
-0.345
-0.325
-0.335
-0.325
-0.33
-0.32
-0.31
-0.3
-0.3
-0.3
-0.315
-0.325
-0.315
-0.31
-0.31
-0.325
-0.32
-0.31
-0.3
-0.295
-0.305
-0.31
-0.325
-0.31
-0.315
-0.305
-0.305
-0.305
-0.32
-0.325
-0.315
-0.315
-0.32
-0.325
-0.34
-0.335
-0.33
-0.325
-0.32
-0.33
-0.35
-0.34
-0.34
-0.325
-0.32
-0.325
-0.35
-0.35
-0.345
-0.335
-0.34
-0.36
-0.36
-0.36
-0.36
-0.355
-0.355
-0.355
-0.37
-0.36
-0.35
-0.35
-0.35
-0.355
-0.385
-0.365
-0.36
-0.355
-0.355
-0.365
-0.37
-0.37
-0.365
-0.36
-0.36
-0.355
-0.36
-0.36
-0.345
-0.35
-0.34
-0.35
-0.36
-0.35
-0.345
-0.34
-0.325
-0.35
-0.355
-0.345
-0.345
-0.33
-0.335
-0.34
-0.345
-0.34
-0.335
-0.33
-0.325
-0.33
-0.34
-0.335
-0.31
-0.295
-0.28
-0.285
-0.285
-0.27
-0.265
-0.245
-0.235
-0.245
-0.245
-0.225
-0.22
-0.2
-0.215
-0.22
-0.24
-0.24
-0.25
-0.24
-0.255
-0.265
-0.27
-0.265
-0.255
-0.225
-0.2
-0.195
-0.235
-0.265
-0.28
-0.285
-0.295
-0.325
-0.335
-0.335
-0.335
-0.34
-0.345
-0.345
-0.355
-0.35
-0.355
-0.35
-0.35
-0.365
-0.365
-0.37
-0.365
-0.36
-0.36
-0.36
-0.375
-0.365
-0.365
-0.37
-0.35
-0.375
-0.375
-0.37
-0.365
-0.385
-0.43
-0.485
-0.505
-0.52
-0.54
-0.58
-0.595
-0.545
-0.425
-0.255
-0.07
0.13
0.4
0.69
0.91
1.045
1.06
0.875
0.495
0.01
-0.355
-0.495
-0.47
-0.41
-0.365
-0.375
-0.385
-0.385
-0.375
-0.365
-0.375
-0.385
-0.405
-0.395
-0.39
-0.39
-0.39
-0.39
-0.405
-0.4
-0.385
-0.395
-0.39
-0.39
-0.395
-0.4
-0.395
-0.38
-0.39
-0.39
-0.415
-0.395
-0.39
-0.39
-0.385
-0.4
-0.41
-0.41
-0.395
-0.395
-0.385
-0.39
-0.395
-0.39
-0.38
-0.385
-0.38
-0.4
-0.41
-0.39
-0.38
-0.385
-0.38
-0.375
-0.38
-0.395
-0.38
-0.38
-0.375
-0.385
-0.4
-0.395
-0.385
-0.375
-0.375
-0.385
-0.395
-0.385
-0.385
-0.37
-0.38
-0.385
-0.395
-0.395
-0.39
-0.375
-0.38
-0.39
-0.405
-0.405
-0.41
-0.4
-0.4
-0.405
-0.42
-0.41
-0.405
-0.395
-0.39
-0.4
-0.41
-0.4
-0.405
-0.4
-0.395
-0.385
-0.395
-0.39
-0.385
-0.38
-0.365
-0.37
-0.385
-0.37
-0.355
-0.34
-0.33
-0.33
-0.335
-0.33
-0.295
-0.29
-0.285
-0.305
-0.31
-0.3
-0.275
-0.27
-0.265
-0.28
-0.285
-0.275
-0.275
-0.265
-0.27
-0.285
-0.3
-0.3
-0.285
-0.275
-0.285
-0.285
-0.31
-0.3
-0.29
-0.285
-0.295
-0.29
-0.305
-0.31
-0.3
-0.3
-0.295
-0.295
-0.315
-0.31
-0.305
-0.305
-0.295
-0.31
-0.315
-0.32
-0.32
-0.305
-0.305
-0.315
-0.33
-0.32
-0.32
-0.315
-0.33
-0.335
-0.34
-0.335
-0.33
-0.325
-0.33
-0.335
-0.35
-0.345
-0.34
-0.34
-0.345
-0.35
-0.355
-0.355
-0.34
-0.335
-0.32
-0.325
-0.335
-0.335
-0.34
-0.325
-0.33
-0.335
-0.34
-0.35
-0.335
-0.33
-0.335
-0.335
-0.355
-0.35
-0.33
-0.335
-0.335
-0.34
-0.345
-0.335
-0.325
-0.32
-0.31
-0.32
-0.325
-0.31
-0.28
-0.26
-0.255
-0.26
-0.265
-0.255
-0.245
-0.235
-0.235
-0.225
-0.24
-0.215
-0.195
-0.205
-0.21
-0.22
-0.245
-0.245
-0.23
-0.225
-0.22
-0.245
-0.255
-0.24
-0.195
-0.18
-0.21
-0.255
-0.285
-0.3
-0.3
-0.29
-0.32
-0.325
-0.34
-0.345
-0.355
-0.335
-0.33
-0.335
-0.36
-0.36
-0.365
-0.355
-0.355
-0.36
-0.37
-0.36
-0.35
-0.34
-0.35
-0.355
-0.355
-0.34
-0.34
-0.335
-0.345
-0.355
-0.37
-0.365
-0.395
-0.415
-0.465
-0.495
-0.555
-0.595
-0.605
-0.53
-0.385
-0.23
-0.065
0.175
0.485
0.75
0.925
0.965
0.82
0.45
0.01
-0.325
-0.485
-0.5
-0.45
-0.405
-0.395
-0.405
-0.415
-0.41
-0.415
-0.41
-0.415
-0.4
-0.405
-0.405
-0.42
-0.405
-0.4
-0.39
-0.4
-0.41
-0.415
-0.415
-0.415
-0.41
-0.415
-0.415
-0.405
-0.415
-0.42
-0.415
-0.41
-0.41
-0.425
-0.415
-0.405
-0.405
-0.4
-0.405
-0.41
-0.415
-0.4
-0.39
-0.39
-0.405
-0.42
-0.415
-0.405
-0.39
-0.41
-0.425
-0.425
-0.425
-0.405
-0.4
-0.395
-0.4
-0.42
-0.42
-0.42
-0.41
-0.415
-0.42
-0.425
-0.415
-0.41
-0.41
-0.425
-0.415
-0.43
-0.43
-0.415
-0.425
-0.425
-0.42
-0.445
-0.435
-0.44
-0.43
-0.43
-0.445
-0.455
-0.45
-0.44
-0.435
-0.43
-0.455
-0.45
-0.45
-0.44
-0.43
-0.435
-0.455
-0.47
-0.46
-0.44
-0.425
-0.425
-0.43
-0.43
-0.43
-0.395
-0.38
-0.37
-0.365
-0.37
-0.355
-0.345
-0.33
-0.325
-0.31
-0.34
-0.33
-0.32
-0.305
-0.3
-0.295
-0.315
-0.315
-0.31
-0.305
-0.3
-0.31
-0.325
-0.33
-0.315
-0.31
-0.335
-0.33
-0.345
-0.34
-0.335
-0.32
-0.32
-0.33
-0.335
-0.335
-0.325
-0.325
-0.345
-0.35
-0.35
-0.34
-0.355
-0.35
-0.35
-0.35
-0.36
-0.355
-0.36
-0.35
-0.355
-0.355
-0.37
-0.365
-0.365
-0.37
-0.37
-0.375
-0.38
-0.38
-0.385
-0.375
-0.375
-0.38
-0.395
-0.385
-0.37
-0.375
-0.37
-0.39
-0.39
-0.385
-0.375
-0.38
-0.36
-0.375
-0.375
-0.37
-0.365
-0.355
-0.35
-0.365
-0.38
-0.375
-0.365
-0.355
-0.36
-0.36
-0.365
-0.37
-0.365
-0.355
-0.37
-0.375
-0.39
-0.395
-0.39
-0.36
-0.345
-0.335
-0.325
-0.33
-0.33
-0.315
-0.31
-0.305
-0.31
-0.29
-0.28
-0.265
-0.255
-0.255
-0.28
-0.27
-0.275
-0.285
-0.285
-0.275
-0.285
-0.285
-0.295
-0.3
-0.285
-0.27
-0.27
-0.295
-0.315
-0.325
-0.34
-0.36
-0.39
-0.415
-0.41
-0.4
-0.39
-0.395
-0.415
-0.405
-0.405
-0.38
-0.39
-0.41
-0.415
-0.425
-0.41
-0.405
-0.395
-0.4
-0.4
-0.4
-0.39
-0.385
-0.395
-0.4
-0.415
-0.425
-0.43
-0.455
-0.495
-0.525
-0.545
-0.585
-0.63
-0.615
-0.515
-0.36
-0.175
0.055
0.35
0.65
0.86
0.95
0.83
0.48
0.02
-0.33
-0.5
-0.54
-0.51
-0.465
-0.435
-0.45
-0.45
-0.46
-0.455
-0.445
-0.435
-0.43
-0.445
-0.45
-0.47
-0.46
-0.44
-0.425
-0.42
-0.435
-0.455
-0.455
-0.44
-0.43
-0.435
-0.435
-0.445
-0.44
-0.435
-0.435
-0.435
-0.445
-0.455
-0.455
-0.445
-0.44
-0.445
-0.445
