Lead II
-0.22
-0.225
-0.225
-0.23
-0.215
-0.195
-0.18
-0.185
-0.18
-0.18
-0.16
-0.15
-0.145
-0.145
-0.145
-0.135
-0.125
-0.11
-0.105
-0.095
-0.09
-0.1
-0.085
-0.08
-0.065
-0.075
-0.085
-0.085
-0.085
-0.085
-0.085
-0.08
-0.1
-0.12
-0.125
-0.13
-0.13
-0.145
-0.155
-0.175
-0.17
-0.18
-0.18
-0.185
-0.195
-0.215
-0.215
-0.22
-0.215
-0.23
-0.24
-0.25
-0.255
-0.255
-0.255
-0.25
-0.26
-0.27
-0.27
-0.27
-0.265
-0.27
-0.28
-0.28
-0.27
-0.26
-0.26
-0.26
-0.265
-0.27
-0.265
-0.255
-0.26
-0.255
-0.265
-0.28
-0.275
-0.265
-0.25
-0.24
-0.25
-0.255
-0.235
-0.22
-0.215
-0.195
-0.205
-0.22
-0.22
-0.215
-0.215
-0.22
-0.225
-0.235
-0.225
-0.225
-0.225
-0.195
-0.205
-0.205
-0.21
-0.2
-0.2
-0.195
-0.205
-0.215
-0.21
-0.2
-0.2
-0.21
-0.22
-0.235
-0.235
-0.24
-0.225
-0.235
-0.245
-0.255
-0.25
-0.245
-0.245
-0.245
-0.25
-0.265
-0.27
-0.27
-0.255
-0.265
-0.27
-0.29
-0.29
-0.28
-0.275
-0.28
-0.285
-0.275
-0.265
-0.26
-0.26
-0.265
-0.265
-0.28
-0.26
-0.25
-0.255
-0.26
-0.25
-0.255
-0.245
-0.23
-0.22
-0.22
-0.22
-0.23
-0.24
-0.23
-0.24
-0.25
-0.255
-0.255
-0.245
-0.245
-0.245
-0.24
-0.255
-0.25
-0.245
-0.245
-0.23
-0.23
-0.245
-0.24
-0.245
-0.225
-0.225
-0.23
-0.235
-0.24
-0.23
-0.21
-0.2
-0.18
-0.175
-0.165
-0.135
-0.08
-0.005
0.075
0.16
0.235
0.34
0.455
0.57
0.65
0.725
0.8
0.85
0.825
0.725
0.545
0.325
0.13
-0.025
-0.11
-0.17
-0.215
-0.235
-0.225
-0.215
-0.18
-0.165
-0.185
-0.21
-0.225
-0.23
-0.235
-0.235
-0.24
-0.25
-0.265
-0.265
-0.245
-0.245
-0.25
-0.255
-0.28
-0.26
-0.265
-0.255
-0.265
-0.275
-0.285
-0.275
-0.265
-0.26
-0.255
-0.265
-0.28
-0.27
-0.265
-0.25
-0.245
-0.26
-0.25
-0.24
-0.225
-0.21
-0.215
-0.225
-0.255
-0.235
-0.215
-0.205
-0.205
-0.2
-0.22
-0.22
-0.205
-0.185
-0.19
-0.195
-0.19
-0.19
-0.18
-0.17
-0.175
-0.18
-0.19
-0.18
-0.18
-0.17
-0.17
-0.17
-0.185
-0.175
-0.16
-0.16
-0.155
-0.15
-0.17
-0.16
-0.145
-0.14
-0.145
-0.155
-0.16
-0.145
-0.14
-0.135
-0.135
-0.145
-0.155
-0.155
-0.15
-0.145
-0.155
-0.17
-0.175
-0.17
-0.18
-0.17
-0.185
-0.19
-0.2
-0.19
-0.19
-0.19
-0.19
-0.19
-0.195
-0.18
-0.165
-0.16
-0.17
-0.18
-0.2
-0.19
-0.19
-0.18
-0.175
-0.185
-0.18
-0.19
-0.18
-0.19
-0.195
-0.2
-0.215
-0.21
-0.215
-0.205
-0.215
-0.22
-0.225
-0.22
-0.21
-0.2
-0.205
-0.22
-0.23
-0.21
-0.205
-0.21
-0.205
-0.205
-0.215
-0.215
-0.205
-0.21
-0.21
-0.22
-0.225
-0.225
-0.22
-0.21
-0.22
-0.225
-0.23
-0.23
-0.235
-0.215
-0.215
-0.22
-0.225
-0.22
-0.22
-0.225
-0.225
-0.24
-0.235
-0.23
-0.225
-0.225
-0.225
-0.22
-0.225
-0.21
-0.18
-0.18
-0.19
-0.22
-0.225
-0.22
-0.215
-0.205
-0.22
-0.215
-0.24
-0.24
-0.235
-0.23
-0.24
-0.26
-0.255
-0.255
-0.25
-0.24
-0.245
-0.24
-0.255
-0.25
-0.24
-0.245
-0.245
-0.245
-0.24
-0.235
-0.235
-0.225
-0.23
-0.235
-0.23
-0.22
-0.205
-0.19
-0.17
-0.16
-0.145
-0.09
-0.015
0.07
0.15
0.23
0.315
0.44
0.57
0.655
0.71
0.76
0.775
0.76
0.66
0.535
0.38
0.185
0.03
-0.075
-0.12
-0.145
-0.165
-0.18
-0.185
-0.18
-0.175
-0.185
-0.2
-0.215
-0.235
-0.23
-0.22
-0.23
-0.23
-0.235
-0.24
-0.24
-0.235
-0.23
-0.235
-0.24
-0.25
-0.24
-0.24
-0.23
-0.235
-0.235
-0.24
-0.24
-0.235
-0.235
-0.25
-0.25
-0.26
-0.245
-0.235
-0.225
-0.23
-0.225
-0.23
-0.215
-0.205
-0.2
-0.215
-0.225
-0.225
-0.22
-0.22
-0.21
-0.205
-0.21
-0.22
-0.205
-0.21
-0.195
-0.2
-0.21
-0.215
-0.19
-0.195
-0.175
-0.16
-0.16
-0.155
-0.155
-0.145
-0.14
-0.13
-0.14
-0.135
-0.13
-0.125
-0.115
-0.12
-0.12
-0.12
-0.12
-0.11
-0.1
-0.11
-0.125
-0.14
-0.14
-0.14
-0.13
-0.135
-0.145
-0.155
-0.17
-0.175
-0.18
-0.185
-0.195
-0.21
-0.195
-0.205
-0.21
-0.215
-0.24
-0.255
-0.26
-0.26
-0.255
-0.265
-0.27
-0.28
-0.28
-0.25
-0.25
-0.24
-0.24
-0.255
-0.255
-0.25
-0.24
-0.235
-0.255
-0.26
-0.25
-0.245
-0.24
-0.25
-0.255
-0.265
-0.265
-0.255
-0.255
-0.265
-0.26
-0.265
-0.26
-0.25
-0.245
-0.24
-0.255
-0.255
-0.255
-0.24
-0.23
-0.23
-0.23
-0.24
-0.23
-0.21
-0.215
-0.22
-0.23
-0.24
-0.24
-0.235
-0.24
-0.25
-0.265
-0.27
-0.25
-0.25
-0.245
-0.245
-0.245
-0.245
-0.23
-0.22
-0.225
-0.23
-0.24
-0.24
-0.24
-0.245
-0.245
-0.23
-0.25
-0.255
-0.25
-0.25
-0.245
-0.25
-0.245
-0.26
-0.235
-0.245
-0.235
-0.23
-0.245
-0.255
-0.245
-0.24
-0.23
-0.225
-0.225
-0.24
-0.24
-0.235
-0.235
-0.235
-0.23
-0.24
-0.235
-0.225
-0.22
-0.225
-0.24
-0.245
-0.245
-0.235
-0.23
-0.22
-0.23
-0.225
-0.21
-0.195
-0.15
-0.08
0.0
0.065
0.17
0.27
0.375
0.475
0.55
0.62
0.685
0.735
0.715
0.615
0.48
0.31
0.145
-0.005
-0.095
-0.155
-0.195
-0.21
-0.21
-0.185
-0.155
-0.155
-0.17
-0.205
-0.215
-0.225
-0.23
-0.235
-0.24
-0.25
-0.25
-0.25
-0.25
-0.25
-0.265
-0.28
-0.285
-0.275
-0.27
-0.28
-0.285
-0.295
-0.295
-0.295
-0.295
-0.31
-0.315
-0.32
-0.315
-0.31
-0.31
-0.32
-0.315
-0.32
-0.31
-0.315
-0.305
-0.305
-0.305
-0.32
-0.3
-0.3
-0.3
-0.3
-0.3
-0.29
-0.285
-0.275
-0.26
-0.265
-0.265
-0.255
-0.245
-0.23
-0.21
-0.205
-0.19
-0.195
-0.175
-0.155
-0.135
-0.135
-0.135
-0.135
-0.13
-0.12
-0.11
-0.105
-0.11
-0.12
-0.115
-0.105
-0.1
-0.11
-0.115
-0.12
-0.115
-0.105
-0.105
-0.11
-0.115
-0.125
-0.105
-0.105
-0.1
-0.105
-0.125
-0.135
-0.14
-0.14
-0.145
-0.17
-0.19
-0.215
-0.22
-0.225
-0.22
-0.235
-0.265
-0.285
-0.285
-0.285
-0.29
-0.305
-0.33
-0.33
-0.325
-0.315
-0.3
-0.29
-0.28
-0.28
-0.27
-0.26
-0.245
-0.245
-0.26
-0.27
-0.26
-0.245
-0.25
-0.245
-0.245
-0.25
-0.245
-0.225
-0.235
-0.235
-0.24
-0.245
-0.24
-0.23
-0.225
-0.235
-0.23
-0.23
-0.23
-0.22
-0.215
-0.215
-0.23
-0.23
-0.235
-0.225
-0.21
-0.225
-0.23
-0.235
-0.25
-0.25
-0.26
-0.265
-0.27
-0.27
-0.265
-0.265
-0.27
-0.27
-0.28
-0.29
-0.27
-0.28
-0.275
-0.29
-0.29
-0.29
-0.275
-0.26
-0.255
-0.245
-0.245
-0.245
-0.23
-0.22
-0.215
-0.22
-0.225
-0.25
-0.235
-0.225
-0.225
-0.22
-0.225
-0.23
-0.22
-0.19
-0.17
-0.15
-0.135
-0.13
-0.12
-0.08
0.0
0.065
0.145
0.225
0.33
0.435
0.535
0.62
0.695
0.75
0.805
0.815
0.745
0.615
0.445
0.26
0.065
-0.09
-0.18
-0.265
-0.325
-0.355
-0.34
-0.285
-0.255
-0.255
-0.27
-0.295
-0.305
-0.3
-0.29
-0.305
-0.3
-0.3
-0.3
-0.285
-0.275
-0.285
-0.29
-0.305
-0.315
-0.295
-0.3
-0.31
-0.3
-0.32
-0.315
-0.3
-0.29
-0.295
-0.295
-0.295
-0.28
-0.285
-0.28
-0.28
-0.285
-0.285
-0.275
-0.27
-0.26
-0.255
-0.27
-0.265
-0.265
-0.25
-0.245
-0.24
-0.25
-0.25
-0.235
-0.225
-0.225
-0.22
-0.24
-0.24
-0.23
-0.2
-0.195
-0.215
-0.22
-0.22
-0.205
-0.2
-0.185
-0.185
-0.185
-0.18
-0.17
-0.165
-0.16
-0.155
-0.17
-0.17
-0.15
-0.145
-0.135
-0.145
-0.15
-0.155
-0.155
-0.14
-0.145
-0.145
-0.155
-0.175
-0.16
-0.165
-0.165
-0.17
-0.19
-0.21
-0.195
-0.195
-0.185
-0.19
-0.2
-0.215
-0.215
-0.215
-0.21
-0.225
-0.225
-0.235
-0.235
-0.235
-0.225
-0.245
-0.245
-0.26
-0.25
-0.245
-0.24
-0.245
-0.255
-0.255
-0.255
-0.245
-0.24
-0.23
-0.23
-0.245
-0.25
-0.235
-0.245
-0.245
-0.26
-0.255
-0.245
-0.245
-0.245
-0.255
-0.265
-0.28
-0.28
-0.27
-0.27
-0.27
-0.27
-0.27
-0.265
-0.26
-0.26
-0.27
-0.275
-0.28
-0.27
-0.275
-0.27
-0.265
-0.27
-0.28
-0.265
-0.255
-0.265
-0.245
-0.245
-0.25
-0.24
-0.24
-0.24
-0.245
-0.255
-0.26
-0.255
-0.255
-0.24
-0.245
-0.27
-0.265
-0.26
-0.255
-0.25
-0.245
-0.245
-0.255
-0.245
-0.25
-0.255
-0.26
-0.265
-0.275
-0.275
-0.265
-0.255
-0.26
-0.265
-0.27
-0.275
-0.285
-0.275
-0.28
-0.29
-0.285
-0.29
-0.275
-0.27
-0.275
-0.285
-0.285
-0.28
-0.27
-0.265
-0.27
-0.27
-0.285
-0.265
-0.265
-0.255
-0.255
-0.27
-0.25
-0.245
-0.24
-0.225
-0.225
-0.215
-0.2
-0.17
-0.15
-0.135
-0.11
-0.075
0.015
0.12
0.225
0.34
0.475
0.58
0.665
0.77
0.84
0.825
0.73
0.56
0.365
0.155
-0.02
-0.13
-0.205
-0.245
-0.245
-0.23
-0.205
-0.205
-0.21
-0.225
-0.24
-0.255
-0.26
-0.245
-0.265
-0.26
-0.265
-0.26
-0.265
-0.265
-0.275
-0.275
-0.285
-0.295
-0.285
-0.285
-0.3
-0.3
-0.3
-0.3
-0.28
-0.285
-0.275
-0.285
-0.285
-0.265
-0.255
-0.25
-0.245
-0.25
-0.245
-0.245
-0.24
-0.24
-0.225
-0.225
-0.225
-0.21
-0.205
-0.2
-0.19
-0.185
-0.185
-0.165
-0.16
-0.145
-0.14
-0.145
-0.155
-0.145
-0.135
-0.13
-0.135
-0.145
-0.18
-0.18
-0.17
-0.165
-0.155
-0.16
-0.175
-0.165
-0.15
-0.135
-0.145
-0.145
-0.15
-0.16
-0.15
-0.145
-0.145
-0.16
-0.17
-0.165
-0.17
-0.165
-0.17
-0.175
-0.18
-0.18
-0.17
-0.155
-0.17
-0.175
-0.175
-0.17
-0.165
-0.165
-0.175
-0.19
-0.195
-0.19
-0.185
-0.185
-0.19
-0.195
-0.2
-0.185
-0.18
-0.165
-0.165
-0.17
-0.175
-0.16
-0.17
-0.175
-0.18
-0.18
-0.19
-0.18
-0.18
-0.175
-0.185
-0.19
-0.2
-0.19
-0.185
-0.185
-0.18
-0.185
-0.175
-0.175
-0.155
-0.14
-0.13
-0.11
-0.065
0.05
0.17
0.31
0.405
0.5
0.605
0.71
0.78
0.8
0.76
0.675
0.535
0.38
0.21
0.055
-0.055
-0.08
-0.085
-0.09
-0.125
-0.145
-0.145
-0.165
-0.185
-0.185
-0.185
-0.185
-0.19
-0.2
-0.225
-0.22
-0.225
-0.225
-0.23
-0.245
-0.26
-0.255
-0.255
-0.24
-0.25
-0.265
-0.27
-0.27
-0.275
-0.27
-0.275
-0.29
-0.295
-0.295
-0.285
-0.27
-0.275
-0.285
-0.3
-0.29
-0.27
-0.275
-0.28
-0.285
-0.28
-0.275
-0.25
-0.24
-0.245
-0.24
-0.245
-0.235
-0.215
-0.21
-0.2
-0.21
-0.21
-0.21
-0.195
-0.185
-0.18
-0.18
-0.175
-0.16
-0.14
-0.15
-0.15
-0.15
-0.165
-0.15
-0.145
-0.145
-0.145
-0.145
-0.145
-0.145
-0.12
-0.13
-0.13
-0.13
-0.14
-0.135
-0.135
-0.15
-0.15
-0.175
-0.19
-0.195
-0.19
-0.19
-0.195
-0.2
-0.21
-0.21
-0.205
-0.205
-0.21
-0.22
-0.23
-0.225
-0.22
-0.23
-0.22
-0.23
-0.24
-0.225
-0.225
-0.22
-0.22
-0.23
-0.23
-0.23
-0.215
-0.22
-0.225
-0.225
-0.23
-0.23
-0.22
-0.22
-0.21
-0.215
-0.225
-0.22
-0.22
-0.225
-0.235
-0.24
-0.255
-0.25
-0.24
-0.23
-0.235
-0.245
-0.245
-0.235
-0.24
-0.23
-0.25
-0.25
-0.26
-0.26
-0.255
-0.24
-0.24
-0.24
-0.255
-0.245
-0.245
-0.245
-0.255
-0.26
-0.26
-0.265
-0.265
-0.265
-0.26
-0.275
-0.275
-0.27
-0.26
-0.25
-0.255
-0.255
-0.245
-0.25
-0.24
-0.235
-0.23
-0.245
-0.25
-0.245
-0.235
-0.23
-0.24
-0.25
-0.265
-0.255
-0.25
-0.25
-0.245
-0.255
-0.255
-0.24
-0.245
-0.245
-0.25
-0.255
-0.26
-0.245
-0.235
-0.24
-0.235
-0.245
-0.25
-0.255
-0.25
-0.25
-0.255
-0.26
-0.26
-0.25
-0.25
-0.245
-0.25
-0.26
-0.27
-0.28
-0.27
-0.275
-0.265
-0.28
-0.275
-0.265
-0.245
-0.215
-0.195
-0.18
-0.16
-0.145
-0.11
-0.035
0.055
0.155
0.26
0.36
0.515
0.61
0.69
0.755
0.775
0.73
0.63
0.48
0.28
0.085
-0.06
-0.115
-0.14
-0.155
-0.165
-0.17
-0.17
-0.18
-0.19
-0.205
-0.225
-0.235
-0.25
-0.255
-0.24
-0.235
-0.235
-0.24
-0.24
-0.245
-0.23
-0.235
-0.235
-0.23
-0.245
-0.24
-0.25
-0.25
-0.255
-0.25
-0.26
-0.245
-0.24
-0.235
-0.22
-0.23
-0.22
-0.205
-0.2
-0.19
-0.19
-0.2
-0.215
-0.21
-0.2
-0.205
-0.21
-0.215
-0.22
-0.225
-0.215
-0.215
-0.215
-0.22
-0.225
-0.215
-0.205
-0.215
-0.215
-0.215
-0.215
-0.2
-0.19
-0.185
-0.18
-0.18
-0.175
-0.165
-0.165
-0.145
-0.145
-0.145
-0.15
-0.13
-0.13
-0.125
-0.13
-0.14
-0.125
-0.115
-0.11
-0.1
-0.09
-0.1
-0.105
-0.11
-0.105
-0.105
-0.12
-0.12
-0.135
-0.145
-0.145
-0.15
-0.17
-0.185
-0.195
-0.2
-0.205
-0.205
-0.21
-0.225
-0.225
-0.215
-0.21
-0.2
-0.195
-0.21
-0.22
-0.2
-0.2
-0.195
-0.2
-0.2
-0.205
-0.195
-0.18
-0.19
-0.18
-0.195
-0.195
-0.2
-0.19
-0.175
-0.18
-0.185
-0.185
-0.18
-0.175
-0.175
-0.185
-0.195
-0.21
-0.205
-0.2
-0.195
-0.195
-0.215
-0.215
-0.215
-0.23
-0.22
-0.225
-0.245
-0.25
-0.245
-0.255
-0.26
-0.24
-0.255
-0.255
-0.255
-0.245
-0.24
-0.25
-0.25
-0.245
-0.23
-0.225
-0.21
-0.215
-0.215
-0.225
-0.215
-0.205
-0.21
-0.2
-0.205
-0.205
-0.185
-0.18
-0.17
-0.18
-0.19
-0.195
-0.19
-0.185
-0.17
-0.175
-0.185
-0.21
-0.225
-0.22
-0.22
-0.235
-0.245
-0.265
-0.26
-0.255
-0.255
-0.255
-0.265
-0.27
-0.26
-0.255
-0.26
-0.27
-0.27
-0.27
-0.255
-0.235
-0.215
-0.205
-0.195
-0.18
-0.09
0.01
0.15
0.265
0.38
0.49
0.625
0.725
0.81
0.87
0.84
0.74
0.565
0.36
0.15
-0.035
-0.16
-0.22
-0.24
-0.22
-0.18
-0.155
-0.17
-0.195
-0.195
-0.205
-0.2
-0.215
-0.23
-0.245
-0.23
-0.225
-0.225
-0.23
-0.24
-0.265
-0.265
-0.26
-0.255
-0.27
-0.275
-0.285
-0.28
-0.275
-0.275
-0.275
-0.285
-0.285
-0.28
-0.265
-0.255
-0.26
-0.265
-0.26
-0.255
-0.245
-0.23
-0.22
-0.23
-0.215
-0.19
-0.185
-0.18
-0.18
-0.185
-0.185
-0.185
-0.175
-0.16
-0.165
-0.18
-0.185
-0.175
-0.16
-0.145
-0.15
-0.15
-0.16
-0.145
-0.125
-0.115
-0.11
-0.13
-0.115
-0.115
-0.105
-0.1
-0.115
-0.12
-0.14
-0.14
-0.14
-0.13
-0.145
-0.165
-0.185
-0.175
-0.195
-0.19
-0.195
-0.215
-0.235
-0.23
-0.24
-0.245
-0.23
-0.24
-0.25
-0.25
-0.24
-0.24
-0.245
-0.245
-0.25
-0.25
-0.235
-0.225
-0.23
-0.235
-0.24
-0.235
-0.225
-0.21
-0.215
-0.215
-0.22
-0.2
-0.195
-0.19
-0.185
-0.195
-0.19
-0.195
-0.19
-0.19
-0.195
-0.21
-0.22
-0.22
-0.215
-0.215
-0.22
-0.235
-0.25
-0.235
-0.235
-0.22
-0.22
-0.225
-0.225
-0.225
-0.22
-0.21
-0.215
-0.23
-0.24
-0.24
-0.24
-0.23
-0.235
-0.25
-0.255
-0.24
-0.24
-0.24
-0.235
-0.235
-0.25
-0.25
-0.24
-0.24
-0.24
-0.255
-0.265
-0.255
-0.25
-0.23
-0.235
-0.235
-0.225
-0.22
-0.195
-0.19
-0.19
-0.185
-0.21
-0.195
-0.19
-0.185
-0.2
-0.215
-0.21
-0.215
-0.185
-0.175
-0.175
-0.185
-0.195
-0.195
-0.19
-0.19
-0.2
-0.21
-0.21
-0.21
-0.195
-0.195
-0.2
-0.215
-0.23
-0.23
-0.225
-0.215
-0.235
-0.24
-0.25
-0.25
-0.245
-0.24
-0.25
-0.26
-0.26
-0.255
-0.235
-0.23
-0.24
-0.245
-0.26
-0.25
-0.24
-0.23
-0.22
-0.235
-0.22
-0.205
-0.185
-0.185
-0.165
-0.155
-0.155
-0.13
-0.105
-0.08
-0.05
0.025
0.1
0.21
0.32
0.44
0.555
0.65
0.725
0.815
0.875
0.865
0.755
0.61
0.43
0.24
0.07
-0.05
-0.15
-0.22
-0.25
-0.24
-0.2
-0.185
-0.18
-0.205
-0.23
-0.23
-0.235
-0.24
-0.235
-0.255
-0.255
-0.245
-0.23
-0.235
-0.245
-0.255
-0.26
-0.26
-0.25
-0.25
-0.245
-0.25
-0.26
-0.235
-0.21
-0.2
-0.215
-0.205
-0.21
-0.205
-0.195
-0.195
-0.2
-0.205
-0.205
-0.19
-0.185
-0.19
-0.195
-0.19
-0.205
-0.19
-0.185
-0.19
-0.185
-0.19
-0.195
-0.19
-0.18
-0.185
-0.185
-0.19
-0.19
-0.19
-0.19
-0.18
-0.17
-0.17
-0.18
-0.175
-0.16
-0.175
-0.17
-0.15
-0.15
-0.135
-0.13
-0.125
-0.11
-0.115
-0.11
-0.095
-0.08
-0.075
-0.085
-0.09
-0.105
-0.1
-0.11
-0.11
-0.125
-0.14
-0.155
-0.15
-0.15
-0.16
-0.16
-0.18
-0.185
-0.185
-0.175
-0.175
-0.185
-0.195
-0.2
-0.2
-0.195
-0.2
-0.22
-0.22
-0.235
-0.235
-0.215
-0.215
-0.21
-0.22
-0.22
-0.205
-0.2
-0.195
-0.21
-0.205
-0.215
-0.195
-0.19
-0.18
-0.18
-0.18
-0.185
-0.17
-0.16
-0.165
-0.17
-0.185
-0.185
-0.18
-0.175
-0.165
-0.165
-0.165
-0.18
-0.175
-0.175
-0.175
-0.17
-0.18
-0.195
-0.185
-0.195
-0.195
-0.2
-0.215
-0.225
-0.23
-0.225
-0.225
-0.23
-0.245
-0.255
-0.24
-0.225
-0.215
-0.22
-0.205
-0.19
-0.155
-0.13
-0.1
-0.04
0.03
0.105
0.195
0.275
0.375
0.475
0.55
0.6
0.64
0.665
0.64
0.55
0.425
0.245
0.075
-0.035
-0.085
-0.11
-0.14
-0.16
-0.175
-0.175
-0.175
-0.17
-0.185
-0.205
-0.21
-0.205
-0.205
-0.215
-0.235
-0.245
-0.24
-0.235
-0.24
-0.235
-0.265
-0.26
-0.26
-0.255
-0.26
-0.265
-0.285
-0.295
-0.285
-0.285
-0.285
-0.29
-0.28
-0.29
-0.285
-0.275
-0.275
-0.265
-0.27
-0.27
-0.28
-0.26
-0.25
-0.255
-0.255
-0.26
-0.255
-0.255
-0.235
-0.235
-0.23
-0.23
-0.215
-0.21
-0.2
-0.205
-0.2
-0.225
-0.21
-0.19
-0.175
-0.18
-0.18
-0.17
-0.165
-0.16
-0.15
-0.13
-0.14
-0.135
-0.13
-0.125
-0.135
-0.135
-0.145
-0.155
-0.15
-0.135
-0.135
-0.14
-0.155
-0.17
-0.165
-0.17
-0.165
-0.185
-0.2
-0.21
-0.22
-0.215
-0.22
-0.23
-0.235
-0.25
-0.255
-0.245
-0.24
-0.245
-0.24
-0.245
-0.24
-0.235
-0.23
-0.235
-0.24
-0.235
-0.235
-0.24
-0.225
-0.225
-0.24
-0.25
-0.23
-0.225
-0.22
-0.22
-0.23
-0.225
-0.23
-0.225
-0.215
-0.215
-0.23
-0.23
-0.21
-0.2
-0.2
-0.2
-0.215
-0.23
-0.23
-0.225
-0.22
-0.23
-0.245
-0.255
-0.25
-0.25
-0.24
-0.26
-0.265
-0.265
-0.26
-0.25
-0.25
-0.265
-0.28
-0.285
-0.28
-0.28
-0.275
-0.275
-0.28
-0.29
-0.27
-0.255
-0.245
-0.255
-0.27
-0.265
-0.255
-0.25
-0.25
-0.25
-0.25
-0.25
-0.235
-0.225
-0.225
-0.24
-0.245
-0.25
-0.235
-0.24
-0.23
-0.24
-0.24
-0.25
-0.255
-0.25
-0.255
-0.255
-0.265
-0.275
-0.265
-0.255
-0.25
-0.245
-0.26
-0.28
-0.285
-0.275
-0.27
-0.265
-0.28
-0.285
-0.29
-0.285
-0.295
-0.3
-0.305
-0.325
-0.325
-0.31
-0.315
-0.32
-0.32
-0.34
-0.305
-0.29
-0.275
-0.26
-0.275
-0.275
-0.26
-0.245
-0.245
-0.235
-0.245
-0.235
-0.22
-0.225
-0.21
-0.205
-0.22
-0.215
-0.205
-0.205
-0.19
-0.2
-0.2
-0.205
-0.2
-0.19
-0.19
-0.195
-0.205
-0.215
-0.21
-0.195
-0.195
-0.2
-0.2
-0.205
-0.2
-0.205
-0.2
-0.195
-0.19
-0.19
-0.17
-0.15
-0.14
-0.115
-0.075
-0.01
0.085
0.18
0.275
0.385
0.485
0.555
0.625
0.69
0.675
0.595
0.445
0.26
0.065
-0.08
-0.18
-0.235
-0.27
-0.295
-0.285
-0.25
-0.23
-0.22
-0.23
-0.25
-0.25
-0.24
-0.24
-0.25
-0.26
-0.27
-0.27
-0.265
-0.27
-0.28
-0.28
-0.285
-0.285
-0.265
-0.265
-0.265
-0.265
-0.27
-0.27
-0.255
-0.255
-0.255
-0.26
-0.27
-0.265
-0.265
-0.26
-0.26
-0.265
-0.275
-0.27
-0.26
-0.265
-0.26
-0.27
-0.27
-0.27
-0.27
-0.265
-0.265
-0.28
-0.285
-0.275
-0.275
-0.29
-0.275
-0.285
-0.28
-0.26
-0.26
-0.255
-0.26
-0.26
-0.255
-0.235
-0.22
-0.205
-0.195
-0.2
-0.195
-0.19
-0.19
-0.18
-0.185
-0.175
-0.175
-0.155
-0.155
-0.135
-0.14
-0.14
-0.14
-0.115
-0.105
-0.1
-0.09
-0.1
-0.11
-0.095
-0.085
-0.075
-0.09
-0.11
-0.125
-0.125
-0.13
-0.15
-0.15
-0.17
-0.185
-0.185
-0.185
-0.19
-0.205
-0.215
-0.235
-0.24
-0.23
-0.24
-0.235
-0.25
-0.26
-0.255
-0.255
-0.245
-0.265
-0.275
-0.285
-0.28
-0.275
-0.26
-0.265
-0.265
-0.27
-0.26
-0.245
-0.245
-0.245
-0.25
-0.26
-0.26
-0.26
-0.26
-0.265
-0.27
-0.275
-0.275
-0.275
-0.275
-0.275
-0.275
-0.285
-0.29
-0.275
-0.285
-0.27
-0.26
-0.255
-0.23
-0.205
-0.195
-0.195
-0.185
-0.19
-0.18
-0.17
-0.17
-0.185
-0.195
-0.205
-0.2
-0.185
-0.2
-0.2
-0.22
-0.22
-0.21
-0.21
-0.21
-0.215
-0.24
-0.23
-0.23
-0.23
-0.22
-0.225
-0.23
-0.24
-0.23
-0.225
-0.22
-0.215
-0.235
-0.23
-0.225
-0.215
-0.2
-0.2
-0.205
-0.195
-0.185
-0.15
-0.14
-0.13
-0.115
-0.055
0.025
0.1
0.175
0.24
0.3
0.385
0.475
0.55
0.61
0.655
0.68
0.63
0.545
0.43
0.28
0.105
-0.06
-0.18
-0.25
-0.275
-0.3
-0.32
-0.305
-0.285
-0.25
-0.235
-0.24
-0.25
-0.26
-0.26
-0.25
-0.24
-0.24
-0.25
-0.26
-0.27
-0.26
-0.27
-0.275
-0.27
-0.29
-0.29
-0.285
-0.285
-0.285
-0.3
-0.31
-0.31
-0.305
-0.29
-0.29
-0.28
-0.285
-0.29
-0.275
-0.265
-0.28
-0.29
-0.295
-0.295
-0.285
-0.28
-0.28
-0.275
-0.275
-0.28
-0.26
-0.265
-0.25
-0.25
-0.255
-0.245
-0.25
-0.23
-0.22
-0.225
-0.225
-0.22
-0.205
-0.2
-0.18
-0.17
-0.17
-0.17
-0.17
-0.165
-0.16
-0.165
-0.16
-0.155
-0.15
-0.145
-0.13
-0.135
-0.135
-0.14
-0.12
-0.115
-0.13
-0.14
-0.145
-0.16
-0.16
-0.16
-0.165
-0.18
-0.185
-0.205
-0.205
-0.215
-0.22
-0.225
-0.23
-0.235
-0.24
-0.23
-0.245
-0.255
-0.265
-0.265
-0.255
-0.26
-0.275
-0.285
-0.28
-0.295
-0.275
-0.27
-0.275
-0.285
-0.285
-0.29
-0.28
-0.275
-0.28
-0.28
-0.27
-0.265
-0.255
-0.25
-0.24
-0.245
-0.25
-0.245
-0.245
-0.23
-0.23
-0.215
-0.22
-0.225
-0.23
-0.225
-0.23
-0.23
-0.26
-0.25
-0.245
-0.25
-0.25
-0.26
-0.26
-0.26
-0.25
-0.25
-0.25
-0.255
-0.255
-0.26
-0.255
-0.23
-0.23
-0.235
-0.245
-0.235
-0.23
-0.22
-0.22
-0.23
-0.24
-0.25
-0.24
-0.23
-0.24
-0.23
-0.255
-0.26
-0.255
-0.245
-0.245
-0.24
-0.265
-0.25
-0.245
-0.245
-0.245
-0.245
-0.245
-0.25
-0.245
-0.235
-0.23
-0.24
-0.23
-0.23
-0.225
-0.215
-0.215
-0.215
-0.225
-0.225
-0.205
-0.21
-0.21
-0.215
-0.225
-0.245
-0.24
-0.23
-0.235
-0.245
-0.26
-0.265
-0.27
-0.27
-0.28
-0.27
-0.275
-0.265
-0.255
-0.24
-0.22
-0.235
-0.24
-0.245
-0.255
-0.245
-0.245
-0.255
-0.27
-0.28
-0.27
-0.255
-0.25
-0.26
-0.265
-0.25
-0.24
-0.225
-0.215
-0.205
-0.19
-0.175
-0.14
-0.12
-0.07
-0.005
0.07
0.16
0.275
0.385
0.505
0.62
0.705
0.78
0.865
0.9
0.84
0.7
0.53
0.35
0.16
0.015
-0.08
-0.145
-0.19
-0.21
-0.21
-0.175
-0.165
-0.155
-0.175
-0.2
-0.2
-0.21
-0.2
-0.215
-0.23
-0.235
-0.235
-0.225
-0.225
-0.22
-0.235
-0.245
-0.235
-0.24
-0.24
-0.255
-0.26
-0.26
-0.26
-0.255
-0.255
-0.255
-0.255
-0.26
-0.255
-0.24
-0.235
-0.23
-0.24
-0.235
-0.23
-0.225
-0.225
-0.22
-0.23
-0.23
-0.235
-0.22
-0.225
-0.225
-0.225
-0.23
-0.225
-0.205
-0.21
-0.2
-0.21
-0.22
-0.2
-0.185
-0.175
-0.165
-0.165
-0.165
-0.16
-0.15
-0.155
-0.15
-0.15
-0.155
-0.165
-0.15
-0.145
-0.155
-0.16
-0.16
-0.145
-0.125
-0.115
-0.11
-0.105
-0.105
-0.1
-0.095
-0.1
-0.1
-0.115
-0.115
-0.105
-0.085
-0.095
-0.105
-0.11
-0.125
-0.115
-0.12
-0.12
-0.145
-0.165
-0.175
-0.165
-0.17
-0.17
-0.19
-0.2
-0.2
-0.2
-0.195
-0.2
-0.195
-0.215
-0.22
-0.215
-0.2
-0.2
-0.2
-0.21
-0.205
-0.175
-0.165
-0.165
-0.165
-0.165
-0.17
-0.165
-0.155
-0.15
-0.15
-0.145
-0.15
-0.15
-0.13
-0.13
-0.13
-0.135
-0.135
-0.125
-0.13
-0.135
-0.15
-0.15
-0.165
-0.16
-0.16
-0.16
-0.165
-0.165
-0.18
-0.175
-0.175
-0.17
-0.185
-0.2
-0.195
-0.195
-0.19
-0.18
-0.19
-0.195
-0.2
-0.195
-0.19
-0.195
-0.2
-0.215
-0.23
-0.215
-0.215
-0.21
-0.215
-0.225
-0.23
-0.215
-0.21
-0.21
-0.2
-0.215
-0.205
-0.2
-0.2
-0.195
-0.195
-0.195
-0.2
-0.185
-0.17
-0.165
-0.165
-0.17
-0.16
-0.155
-0.155
-0.155
-0.16
-0.17
-0.18
-0.17
-0.16
-0.16
-0.17
-0.165
-0.17
-0.14
-0.12
-0.1
-0.095
-0.075
0.0
0.1
0.19
0.275
0.385
0.485
0.59
0.67
0.735
0.78
0.78
0.705
0.585
0.46
0.31
0.155
0.015
-0.065
-0.115
-0.145
-0.155
-0.15
-0.135
-0.16
-0.18
-0.185
-0.18
-0.19
-0.205
-0.22
-0.225
-0.215
-0.195
-0.195
-0.185
-0.195
-0.2
-0.18
-0.175
-0.175
-0.175
-0.18
-0.185
-0.185
-0.175
-0.18
-0.18
-0.185
-0.2
-0.19
-0.19
-0.195
-0.2
-0.21
-0.215
-0.205
-0.195
-0.195
-0.2
-0.21
-0.205
-0.195
-0.205
-0.195
-0.2
-0.2
-0.21
-0.2
-0.195
-0.195
-0.195
-0.2
-0.195
-0.18
-0.165
-0.165
-0.16
-0.15
-0.145
-0.125
-0.12
-0.11
-0.1
-0.115
-0.12
-0.09
-0.075
-0.08
-0.085
-0.08
-0.075
-0.065
-0.055
-0.055
-0.06
-0.075
-0.08
-0.07
-0.065
-0.085
-0.09
-0.11
-0.115
-0.115
-0.115
-0.13
-0.14
-0.155
-0.16
-0.165
-0.175
-0.18
-0.18
-0.2
-0.2
-0.195
-0.195
-0.2
-0.205
-0.235
-0.23
-0.225
-0.215
-0.22
-0.22
-0.23
-0.235
-0.22
-0.22
-0.22
-0.225
-0.23
-0.24
-0.235
-0.22
-0.21
-0.185
-0.18
-0.165
-0.145
-0.135
-0.135
-0.145
-0.15
-0.155
-0.15
-0.15
-0.145
-0.155
-0.16
-0.155
-0.155
-0.15
-0.15
-0.16
-0.17
-0.17
-0.175
-0.185
-0.18
-0.175
-0.17
-0.175
-0.18
-0.17
-0.17
-0.185
-0.185
-0.195
-0.18
-0.19
-0.195
-0.2
-0.205
-0.215
-0.205
-0.21
-0.215
-0.215
-0.225
-0.225
-0.225
-0.225
-0.225
-0.22
-0.22
-0.225
-0.215
-0.205
-0.195
-0.2
-0.21
-0.215
-0.22
-0.215
-0.22
-0.22
-0.24
-0.255
-0.245
-0.235
-0.205
-0.2
-0.19
-0.19
-0.16
-0.15
-0.135
-0.12
-0.11
-0.11
-0.085
-0.075
-0.04
0.015
0.085
0.17
0.265
0.37
0.5
0.6
0.675
0.73
0.78
0.78
0.7
0.57
0.4
0.23
0.075
-0.04
-0.075
-0.11
-0.145
-0.155
-0.15
-0.13
-0.125
-0.14
-0.16
-0.19
-0.18
-0.175
-0.17
-0.18
-0.19
-0.185
-0.175
-0.17
-0.155
-0.17
-0.185
-0.195
-0.185
-0.175
-0.175
-0.19
-0.19
-0.19
-0.19
-0.19
-0.195
-0.205
-0.215
-0.22
-0.23
-0.22
-0.23
-0.245
-0.245
-0.25
-0.245
-0.235
-0.23
-0.23
-0.22
-0.21
-0.195
-0.175
-0.18
-0.17
-0.165
-0.165
-0.155
-0.15
-0.125
-0.13
-0.13
-0.125
-0.12
-0.12
-0.11
-0.11
-0.11
-0.095
-0.07
-0.055
-0.055
-0.06
-0.065
-0.065
-0.06
-0.04
-0.035
-0.04
-0.04
-0.04
-0.03
-0.03
-0.03
-0.04
-0.05
-0.065
-0.075
-0.065
-0.07
-0.09
-0.1
-0.12
-0.125
-0.125
-0.135
-0.15
-0.17
-0.18
-0.185
-0.19
-0.21
-0.21
-0.23
-0.245
-0.22
-0.22
-0.22
-0.23
-0.23
-0.23
-0.225
-0.215
-0.205
-0.205
-0.215
-0.195
-0.18
-0.165
-0.16
-0.15
-0.165
-0.15
-0.14
-0.135
-0.13
-0.145
-0.145
-0.15
-0.135
-0.13
-0.13
-0.135
-0.15
-0.155
-0.15
-0.14
-0.14
-0.16
-0.165
-0.17
-0.16
-0.15
-0.16
-0.17
-0.175
-0.165
-0.17
-0.155
-0.145
-0.14
-0.135
-0.115
-0.08
-0.035
0.025
0.09
0.185
0.28
0.38
0.465
0.56
0.655
0.755
0.815
0.855
0.85
0.755
0.59
0.395
0.2
0.015
-0.105
-0.15
-0.165
-0.185
-0.165
-0.145
-0.125
-0.115
-0.13
-0.155
-0.17
-0.185
-0.185
-0.19
-0.205
-0.215
-0.225
-0.22
-0.22
-0.23
-0.235
-0.24
-0.245
-0.245
-0.25
-0.255
-0.275
-0.285
-0.28
-0.28
-0.275
-0.28
-0.27
-0.29
-0.285
-0.285
-0.28
-0.29
-0.29
-0.29
-0.295
-0.275
-0.275
-0.26
-0.255
-0.255
-0.255
-0.25
-0.23
-0.23
-0.22
-0.22
-0.205
-0.2
-0.18
-0.17
-0.175
-0.175
-0.175
-0.16
-0.15
-0.15
-0.145
-0.145
-0.14
-0.135
-0.13
-0.125
-0.125
-0.13
-0.115
-0.095
-0.08
-0.08
-0.08
-0.08
-0.085
-0.075
-0.075
-0.08
-0.09
-0.105
-0.115
-0.12
-0.125
-0.13
-0.15
-0.165
-0.175
-0.18
-0.18
-0.185
-0.21
-0.215
-0.215
-0.215
-0.2
-0.205
-0.23
-0.24
-0.24
-0.225
-0.225
