Lead II
-0.31
-0.3
-0.31
-0.31
-0.33
-0.325
-0.31
-0.32
-0.32
-0.335
-0.33
-0.32
-0.32
-0.32
-0.32
-0.34
-0.345
-0.33
-0.315
-0.315
-0.32
-0.35
-0.35
-0.325
-0.325
-0.33
-0.335
-0.345
-0.34
-0.345
-0.33
-0.33
-0.345
-0.36
-0.345
-0.335
-0.325
-0.33
-0.345
-0.35
-0.355
-0.34
-0.335
-0.325
-0.33
-0.35
-0.355
-0.335
-0.325
-0.34
-0.34
-0.35
-0.35
-0.345
-0.34
-0.34
-0.345
-0.36
-0.36
-0.34
-0.34
-0.335
-0.34
-0.36
-0.355
-0.34
-0.34
-0.345
-0.355
-0.37
-0.365
-0.345
-0.34
-0.355
-0.355
-0.365
-0.365
-0.36
-0.345
-0.34
-0.34
-0.36
-0.36
-0.345
-0.335
-0.33
-0.34
-0.34
-0.335
-0.305
-0.29
-0.295
-0.315
-0.315
-0.305
-0.295
-0.285
-0.28
-0.27
-0.275
-0.245
-0.22
-0.195
-0.18
-0.19
-0.215
-0.23
-0.245
-0.23
-0.245
-0.25
-0.275
-0.265
-0.26
-0.26
-0.26
-0.28
-0.29
-0.305
-0.315
-0.315
-0.33
-0.36
-0.38
-0.38
-0.39
-0.38
-0.395
-0.38
-0.395
-0.395
-0.39
-0.385
-0.39
-0.395
-0.405
-0.4
-0.39
-0.38
-0.395
-0.38
-0.405
-0.39
-0.39
-0.39
-0.41
-0.455
-0.49
-0.495
-0.47
-0.365
-0.165
0.11
0.42
0.79
1.17
1.42
1.465
1.275
0.93
0.585
0.355
0.24
0.18
0.085
-0.025
-0.13
-0.175
-0.2
-0.25
-0.3
-0.345
-0.375
-0.405
-0.42
-0.42
-0.42
-0.44
-0.435
-0.435
-0.435
-0.435
-0.445
-0.455
-0.455
-0.44
-0.45
-0.435
-0.465
-0.465
-0.455
-0.445
-0.435
-0.455
-0.465
-0.47
-0.465
-0.445
-0.44
-0.45
-0.45
-0.455
-0.455
-0.455
-0.445
-0.445
-0.455
-0.455
-0.45
-0.455
-0.45
-0.455
-0.455
-0.46
-0.465
-0.465
-0.455
-0.455
-0.46
-0.48
-0.46
-0.45
-0.44
-0.45
-0.46
-0.465
-0.455
-0.455
-0.435
-0.435
-0.44
-0.44
-0.435
-0.42
-0.415
-0.4
-0.405
-0.415
-0.405
-0.395
-0.385
-0.37
-0.365
-0.355
-0.355
-0.34
-0.32
-0.325
-0.325
-0.335
-0.315
-0.27
-0.26
-0.235
-0.24
-0.24
-0.22
-0.205
-0.17
-0.165
-0.165
-0.16
-0.16
-0.145
-0.13
-0.12
-0.115
-0.13
-0.12
-0.11
-0.105
-0.105
-0.1
-0.12
-0.12
-0.125
-0.12
-0.145
-0.155
-0.19
-0.19
-0.195
-0.2
-0.225
-0.25
-0.265
-0.28
-0.275
-0.285
-0.305
-0.315
-0.34
-0.35
-0.34
-0.34
-0.35
-0.36
-0.375
-0.38
-0.38
-0.375
-0.38
-0.39
-0.415
-0.4
-0.39
-0.38
-0.39
-0.41
-0.42
-0.4
-0.4
-0.405
-0.405
-0.415
-0.425
-0.42
-0.405
-0.4
-0.41
-0.42
-0.43
-0.435
-0.43
-0.41
-0.41
-0.425
-0.415
-0.415
-0.415
-0.415
-0.405
-0.42
-0.43
-0.42
-0.405
-0.395
-0.395
-0.405
-0.42
-0.415
-0.4
-0.39
-0.39
-0.4
-0.405
-0.4
-0.385
-0.385
-0.39
-0.39
-0.385
-0.405
-0.38
-0.37
-0.385
-0.38
-0.385
-0.39
-0.38
-0.385
-0.375
-0.385
-0.39
-0.39
-0.395
-0.395
-0.38
-0.385
-0.395
-0.4
-0.38
-0.38
-0.38
-0.395
-0.415
-0.405
-0.39
-0.38
-0.38
-0.385
-0.4
-0.39
-0.395
-0.375
-0.38
-0.385
-0.41
-0.4
-0.395
-0.39
-0.38
-0.4
-0.4
-0.4
-0.39
-0.385
-0.38
-0.395
-0.395
-0.4
-0.39
-0.375
-0.385
-0.39
-0.41
-0.395
-0.39
-0.385
-0.39
-0.405
-0.4
-0.395
-0.38
-0.375
-0.38
-0.4
-0.415
-0.41
-0.395
-0.385
-0.39
-0.39
-0.41
-0.405
-0.4
-0.385
-0.39
-0.395
-0.405
-0.405
-0.39
-0.385
-0.39
-0.395
-0.4
-0.4
-0.39
-0.38
-0.385
-0.395
-0.405
-0.395
-0.395
-0.375
-0.375
-0.375
-0.41
-0.395
-0.385
-0.38
-0.38
-0.395
-0.395
-0.41
-0.395
-0.375
-0.365
-0.38
-0.39
-0.38
-0.365
-0.355
-0.355
-0.34
-0.34
-0.33
-0.32
-0.33
-0.32
-0.325
-0.335
-0.33
-0.32
-0.31
-0.285
-0.28
-0.28
-0.235
-0.21
-0.215
-0.215
-0.24
-0.27
-0.28
-0.265
-0.265
-0.265
-0.275
-0.28
-0.29
-0.29
-0.285
-0.29
-0.305
-0.315
-0.32
-0.33
-0.34
-0.36
-0.38
-0.4
-0.4
-0.4
-0.395
-0.4
-0.415
-0.42
-0.415
-0.415
-0.395
-0.4
-0.415
-0.425
-0.42
-0.415
-0.405
-0.41
-0.42
-0.425
-0.425
-0.41
-0.4
-0.4
-0.41
-0.43
-0.44
-0.465
-0.485
-0.515
-0.5
-0.455
-0.31
-0.085
0.185
0.515
0.855
1.18
1.405
1.46
1.28
0.97
0.64
0.395
0.24
0.19
0.145
0.05
-0.065
-0.145
-0.195
-0.235
-0.275
-0.31
-0.35
-0.405
-0.43
-0.44
-0.43
-0.43
-0.44
-0.455
-0.46
-0.45
-0.455
-0.46
-0.46
-0.475
-0.465
-0.46
-0.46
-0.46
-0.47
-0.465
-0.465
-0.47
-0.455
-0.45
-0.465
-0.47
-0.47
-0.46
-0.46
-0.46
-0.46
-0.475
-0.475
-0.465
-0.465
-0.455
-0.465
-0.475
-0.475
-0.47
-0.46
-0.455
-0.47
-0.485
-0.47
-0.465
-0.46
-0.46
-0.47
-0.475
-0.47
-0.46
-0.45
-0.445
-0.47
-0.48
-0.465
-0.46
-0.445
-0.44
-0.45
-0.455
-0.45
-0.45
-0.435
-0.44
-0.43
-0.445
-0.435
-0.42
-0.4
-0.41
-0.415
-0.405
-0.395
-0.385
-0.37
-0.35
-0.355
-0.365
-0.355
-0.325
-0.31
-0.305
-0.305
-0.3
-0.29
-0.255
-0.245
-0.245
-0.225
-0.22
-0.205
-0.185
-0.17
-0.16
-0.165
-0.165
-0.155
-0.135
-0.12
-0.11
-0.105
-0.115
-0.11
-0.1
-0.095
-0.085
-0.09
-0.105
-0.105
-0.105
-0.105
-0.13
-0.135
-0.16
-0.165
-0.17
-0.18
-0.2
-0.22
-0.24
-0.25
-0.255
-0.265
-0.285
-0.31
-0.32
-0.33
-0.32
-0.325
-0.335
-0.36
-0.37
-0.37
-0.365
-0.355
-0.36
-0.38
-0.385
-0.38
-0.375
-0.375
-0.375
-0.39
-0.4
-0.4
-0.385
-0.38
-0.385
-0.385
-0.39
-0.395
-0.4
-0.4
-0.4
-0.405
-0.405
-0.41
-0.395
-0.395
-0.4
-0.415
-0.41
-0.41
-0.395
-0.385
-0.39
-0.39
-0.4
-0.395
-0.395
-0.375
-0.38
-0.385
-0.395
-0.385
-0.38
-0.375
-0.38
-0.39
-0.385
-0.39
-0.385
-0.375
-0.375
-0.37
-0.385
-0.375
-0.38
-0.38
-0.375
-0.375
-0.38
-0.38
-0.37
-0.365
-0.365
-0.375
-0.38
-0.4
-0.38
-0.365
-0.365
-0.37
-0.37
-0.37
-0.37
-0.36
-0.365
-0.38
-0.385
-0.38
-0.375
-0.36
-0.36
-0.375
-0.38
-0.385
-0.385
-0.375
-0.375
-0.385
-0.39
-0.395
-0.38
-0.36
-0.38
-0.385
-0.385
-0.37
-0.365
-0.365
-0.36
-0.38
-0.385
-0.38
-0.375
-0.36
-0.365
-0.385
-0.385
-0.38
-0.37
-0.365
-0.37
-0.38
-0.39
-0.38
-0.375
-0.365
-0.37
-0.37
-0.385
-0.37
-0.37
-0.36
-0.375
-0.375
-0.375
-0.38
-0.37
-0.365
-0.375
-0.38
-0.39
-0.38
-0.365
-0.37
-0.37
-0.37
-0.4
-0.39
-0.385
-0.38
-0.37
-0.37
-0.385
-0.39
-0.37
-0.37
-0.37
-0.375
-0.385
-0.38
-0.36
-0.36
-0.36
-0.37
-0.385
-0.38
-0.365
-0.36
-0.365
-0.365
-0.37
-0.35
-0.34
-0.34
-0.34
-0.345
-0.345
-0.335
-0.31
-0.295
-0.29
-0.31
-0.335
-0.305
-0.305
-0.28
-0.255
-0.245
-0.235
-0.21
-0.195
-0.185
-0.2
-0.235
-0.245
-0.245
-0.245
-0.25
-0.255
-0.255
-0.265
-0.255
-0.255
-0.27
-0.275
-0.275
-0.295
-0.3
-0.295
-0.305
-0.345
-0.375
-0.39
-0.37
-0.37
-0.365
-0.375
-0.375
-0.385
-0.395
-0.375
-0.37
-0.375
-0.37
-0.385
-0.395
-0.39
-0.38
-0.365
-0.385
-0.385
-0.395
-0.37
-0.355
-0.36
-0.38
-0.41
-0.43
-0.455
-0.455
-0.425
-0.31
-0.135
0.14
0.475
0.82
1.17
1.39
1.405
1.18
0.835
0.505
0.265
0.165
0.12
0.04
-0.08
-0.165
-0.21
-0.255
-0.3
-0.335
-0.355
-0.385
-0.41
-0.41
-0.425
-0.41
-0.41
-0.41
-0.415
-0.43
-0.435
-0.435
-0.43
-0.42
-0.42
-0.42
-0.435
-0.435
-0.425
-0.41
-0.42
-0.435
-0.44
-0.435
-0.44
-0.43
-0.42
-0.43
-0.435
-0.44
-0.43
-0.425
-0.415
-0.435
-0.44
-0.435
-0.43
-0.41
-0.435
-0.445
-0.445
-0.44
-0.425
-0.425
-0.42
-0.425
-0.435
-0.43
-0.42
-0.425
-0.42
-0.43
-0.435
-0.43
-0.42
-0.41
-0.41
-0.41
-0.425
-0.425
-0.415
-0.395
-0.385
-0.39
-0.405
-0.39
-0.385
-0.39
-0.365
-0.37
-0.37
-0.36
-0.36
-0.34
-0.33
-0.32
-0.325
-0.32
-0.3
-0.275
-0.275
-0.28
-0.27
-0.25
-0.24
-0.23
-0.21
-0.205
-0.195
-0.175
-0.16
-0.145
-0.14
-0.15
-0.145
-0.13
-0.105
-0.085
-0.085
-0.08
-0.09
-0.085
-0.09
-0.07
-0.08
-0.08
-0.07
-0.075
-0.075
-0.085
-0.095
-0.11
-0.125
-0.13
-0.145
-0.15
-0.155
-0.18
-0.195
-0.21
-0.2
-0.205
-0.22
-0.23
-0.255
-0.26
-0.26
-0.255
-0.275
-0.285
-0.3
-0.31
-0.295
-0.305
-0.3
-0.31
-0.325
-0.33
-0.32
-0.31
-0.3
-0.325
-0.345
-0.33
-0.315
-0.32
-0.315
-0.315
-0.34
-0.335
-0.32
-0.325
-0.345
-0.345
-0.34
-0.335
-0.32
-0.32
-0.325
-0.345
-0.35
-0.34
-0.33
-0.33
-0.32
-0.32
-0.33
-0.335
-0.33
-0.315
-0.3
-0.31
-0.32
-0.31
-0.3
-0.295
-0.285
-0.295
-0.3
-0.305
-0.285
-0.28
-0.28
-0.3
-0.31
-0.295
-0.285
-0.285
-0.285
-0.28
-0.29
-0.285
-0.29
-0.275
-0.275
-0.295
-0.295
-0.305
-0.285
-0.28
-0.275
-0.295
-0.305
-0.305
-0.29
-0.285
-0.28
-0.3
-0.295
-0.3
-0.29
-0.285
-0.285
-0.3
-0.3
-0.305
-0.28
-0.275
-0.28
-0.295
-0.3
-0.29
-0.285
-0.285
-0.285
-0.3
-0.295
-0.295
-0.265
-0.265
-0.275
-0.285
-0.31
-0.295
-0.29
-0.28
-0.285
-0.295
-0.3
-0.295
-0.29
-0.28
-0.28
-0.285
-0.29
-0.295
-0.28
-0.275
-0.275
-0.29
-0.3
-0.295
-0.285
-0.28
-0.285
-0.29
-0.295
-0.3
-0.285
-0.275
-0.28
-0.285
-0.3
-0.3
-0.285
-0.285
-0.29
-0.295
-0.3
-0.285
-0.28
-0.27
-0.275
-0.275
-0.29
-0.285
-0.26
-0.245
-0.235
-0.255
-0.25
-0.245
-0.23
-0.225
-0.225
-0.22
-0.22
-0.21
-0.175
-0.155
-0.14
-0.12
-0.12
-0.125
-0.15
-0.15
-0.155
-0.17
-0.18
-0.185
-0.19
-0.17
-0.175
-0.2
-0.215
-0.215
-0.205
-0.21
-0.23
-0.25
-0.28
-0.29
-0.29
-0.29
-0.305
-0.32
-0.32
-0.32
-0.32
-0.315
-0.31
-0.32
-0.325
-0.335
-0.32
-0.325
-0.335
-0.33
-0.345
-0.34
-0.33
-0.325
-0.32
-0.325
-0.35
-0.365
-0.385
-0.42
-0.45
-0.435
-0.37
-0.175
0.105
0.44
0.835
1.22
1.485
1.53
1.34
0.985
0.6
0.35
0.235
0.185
0.105
-0.025
-0.115
-0.175
-0.21
-0.25
-0.285
-0.305
-0.345
-0.375
-0.385
-0.375
-0.37
-0.36
-0.36
-0.385
-0.385
-0.39
-0.38
-0.38
-0.38
-0.39
-0.405
-0.415
-0.4
-0.395
-0.395
-0.39
-0.405
-0.415
-0.395
-0.385
-0.385
-0.395
-0.405
-0.39
-0.39
-0.385
-0.385
-0.4
-0.42
-0.405
-0.4
-0.395
-0.395
-0.405
-0.405
-0.41
-0.4
-0.39
-0.395
-0.41
-0.415
-0.4
-0.4
-0.39
-0.405
-0.4
-0.4
-0.4
-0.41
-0.405
-0.395
-0.385
-0.385
-0.39
-0.38
-0.365
-0.36
-0.38
-0.375
-0.38
-0.355
-0.34
-0.345
-0.34
-0.35
-0.33
-0.33
-0.32
-0.3
-0.3
-0.29
-0.275
-0.255
-0.245
-0.225
-0.22
-0.225
-0.215
-0.18
-0.17
-0.155
-0.15
-0.15
-0.14
-0.12
-0.105
-0.085
-0.095
-0.08
-0.07
-0.06
-0.055
-0.055
-0.06
-0.08
-0.075
-0.065
-0.06
-0.075
-0.1
-0.115
-0.12
-0.125
-0.13
-0.15
-0.17
-0.19
-0.225
-0.235
-0.24
-0.245
-0.27
-0.29
-0.29
-0.295
-0.285
-0.305
-0.305
-0.325
-0.335
-0.33
-0.33
-0.325
-0.335
-0.355
-0.35
-0.355
-0.35
-0.35
-0.35
-0.37
-0.365
-0.355
-0.345
-0.36
-0.375
-0.38
-0.38
-0.365
-0.365
-0.365
-0.38
-0.4
-0.4
-0.38
-0.37
-0.385
-0.38
-0.39
-0.385
-0.37
-0.37
-0.37
-0.38
-0.38
-0.38
-0.365
-0.345
-0.35
-0.365
-0.36
-0.36
-0.35
-0.35
-0.35
-0.36
-0.365
-0.37
-0.36
-0.345
-0.355
-0.36
-0.36
-0.355
-0.35
-0.345
-0.345
-0.355
-0.36
-0.355
-0.34
-0.34
-0.355
-0.355
-0.365
-0.355
-0.345
-0.34
-0.345
-0.36
-0.375
-0.37
-0.36
-0.345
-0.345
-0.36
-0.36
-0.37
-0.36
-0.355
-0.365
-0.375
-0.37
-0.365
-0.36
-0.35
-0.35
-0.345
-0.37
-0.37
-0.365
-0.345
-0.35
-0.35
-0.355
-0.365
-0.355
-0.345
-0.355
-0.365
-0.37
-0.365
-0.36
-0.36
-0.365
-0.35
-0.365
-0.365
-0.355
-0.345
-0.34
-0.365
-0.375
-0.36
-0.365
-0.345
-0.335
-0.35
-0.36
-0.365
-0.34
-0.355
-0.345
-0.36
-0.37
-0.36
-0.345
-0.335
-0.34
-0.35
-0.36
-0.36
-0.355
-0.345
-0.355
-0.36
-0.365
-0.37
-0.35
-0.345
-0.345
-0.36
-0.36
-0.37
-0.355
-0.355
-0.35
-0.36
-0.365
-0.36
-0.335
-0.32
-0.31
-0.31
-0.31
-0.305
-0.3
-0.285
-0.31
-0.315
-0.31
-0.295
-0.275
-0.255
-0.235
-0.225
-0.215
-0.205
-0.205
-0.215
-0.235
-0.235
-0.245
-0.255
-0.255
-0.25
-0.25
-0.26
-0.27
-0.275
-0.275
-0.265
-0.27
-0.295
-0.305
-0.335
-0.33
-0.34
-0.355
-0.365
-0.375
-0.385
-0.375
-0.36
-0.37
-0.375
-0.4
-0.38
-0.37
-0.375
-0.38
-0.385
-0.39
-0.395
-0.385
-0.38
-0.37
-0.385
-0.39
-0.4
-0.41
-0.415
-0.45
-0.485
-0.51
-0.48
-0.39
-0.21
0.055
0.365
0.71
1.1
1.405
1.52
1.38
1.065
0.725
0.44
0.295
0.24
0.195
0.085
-0.03
-0.1
-0.14
-0.17
-0.25
-0.295
-0.34
-0.365
-0.395
-0.38
-0.395
-0.395
-0.405
-0.41
-0.41
-0.405
-0.415
-0.42
-0.435
-0.435
-0.43
-0.425
-0.425
-0.435
-0.445
-0.445
-0.44
-0.425
-0.425
-0.43
-0.435
-0.44
-0.445
-0.425
-0.435
-0.445
-0.435
-0.445
-0.44
-0.425
-0.435
-0.44
-0.435
-0.44
-0.435
-0.43
-0.43
-0.44
-0.44
-0.435
-0.445
-0.435
-0.43
-0.425
-0.43
-0.43
-0.435
-0.415
-0.42
-0.425
-0.43
-0.425
-0.415
-0.395
-0.395
-0.395
-0.41
-0.41
-0.385
-0.37
-0.37
-0.365
-0.385
-0.36
-0.36
-0.335
-0.345
-0.34
-0.33
-0.315
-0.305
-0.28
-0.28
-0.275
-0.27
-0.26
-0.225
-0.22
-0.2
-0.2
-0.19
-0.16
-0.16
-0.14
-0.145
-0.135
-0.13
-0.115
-0.09
-0.075
-0.07
-0.075
-0.07
-0.09
-0.07
-0.05
-0.065
-0.065
-0.08
-0.095
-0.095
-0.095
-0.105
-0.12
-0.14
-0.16
-0.165
-0.165
-0.185
-0.215
-0.235
-0.245
-0.25
-0.26
-0.28
-0.275
-0.285
-0.295
-0.3
-0.295
-0.31
-0.335
-0.34
-0.34
-0.33
-0.33
-0.34
-0.34
-0.345
-0.355
-0.335
-0.335
-0.335
-0.35
-0.355
-0.365
-0.355
-0.35
-0.365
-0.36
-0.36
-0.365
-0.365
-0.355
-0.36
-0.355
-0.37
-0.355
-0.355
-0.345
-0.355
-0.365
-0.37
-0.37
-0.36
-0.345
-0.345
-0.35
-0.36
-0.36
-0.345
-0.335
-0.35
-0.355
-0.365
-0.36
-0.345
-0.335
-0.33
-0.34
-0.34
-0.355
-0.33
-0.33
-0.335
-0.335
-0.335
-0.33
-0.32
-0.325
-0.345
-0.345
-0.34
-0.34
-0.335
-0.325
-0.325
-0.335
-0.345
-0.345
-0.345
-0.32
-0.33
-0.33
-0.33
-0.34
-0.335
-0.315
-0.325
-0.325
-0.33
-0.33
-0.32
-0.315
-0.315
-0.315
-0.335
-0.33
-0.325
-0.315
-0.315
-0.32
-0.325
-0.33
-0.32
-0.315
-0.32
-0.32
-0.325
-0.335
-0.335
-0.315
-0.32
-0.32
-0.33
-0.32
-0.31
-0.31
-0.31
-0.315
-0.32
-0.335
-0.325
-0.3
-0.31
-0.315
-0.32
-0.315
-0.315
-0.3
-0.3
-0.305
-0.31
-0.3
-0.305
-0.285
-0.285
-0.295
-0.31
-0.305
-0.305
-0.305
-0.28
-0.305
-0.315
-0.315
-0.3
-0.29
-0.275
-0.285
-0.295
-0.295
-0.285
-0.265
-0.275
-0.27
-0.285
-0.275
-0.255
-0.24
-0.235
-0.24
-0.245
-0.245
-0.235
-0.215
-0.23
-0.22
-0.215
-0.21
-0.19
-0.16
-0.14
-0.12
-0.115
-0.13
-0.145
-0.14
-0.15
-0.17
-0.185
-0.195
-0.19
-0.175
-0.185
-0.205
-0.21
-0.23
-0.22
-0.23
-0.24
-0.265
-0.285
-0.28
-0.28
-0.28
-0.305
-0.31
-0.295
-0.305
-0.305
-0.285
-0.31
-0.31
-0.315
-0.315
-0.31
-0.305
-0.315
-0.315
-0.32
-0.325
-0.31
-0.305
-0.315
-0.33
-0.365
-0.405
-0.415
-0.4
-0.35
-0.215
0.005
0.29
0.63
1.01
1.335
1.485
1.41
1.125
0.76
0.48
0.27
0.2
0.15
0.055
-0.06
-0.145
-0.18
-0.22
-0.25
-0.295
-0.31
-0.31
-0.32
-0.345
-0.345
-0.35
-0.34
-0.335
-0.355
-0.36
-0.37
-0.37
-0.36
-0.345
-0.355
-0.35
-0.365
-0.37
-0.375
-0.355
-0.365
-0.375
-0.375
-0.385
-0.38
-0.36
-0.36
-0.365
-0.38
-0.395
-0.385
-0.375
-0.375
-0.38
-0.375
-0.385
-0.38
-0.365
-0.36
-0.37
-0.385
-0.385
-0.385
-0.365
-0.375
-0.37
-0.38
-0.37
-0.37
-0.37
-0.385
-0.395
-0.38
-0.37
-0.365
-0.35
-0.355
-0.365
-0.37
-0.37
-0.35
-0.34
-0.345
-0.335
-0.34
-0.34
-0.32
-0.31
-0.3
-0.295
-0.295
-0.29
-0.27
-0.26
-0.255
-0.25
-0.25
-0.25
-0.225
-0.2
-0.195
-0.19
-0.18
-0.17
-0.135
-0.12
-0.135
-0.12
-0.11
-0.115
-0.085
-0.07
-0.075
-0.075
-0.06
-0.065
-0.04
-0.025
-0.04
-0.035
-0.045
-0.045
-0.05
-0.045
-0.065
-0.07
-0.09
-0.1
-0.1
-0.115
-0.13
-0.155
-0.17
-0.185
-0.195
-0.19
-0.2
-0.205
-0.23
-0.245
-0.245
-0.25
-0.26
-0.27
-0.29
-0.3
-0.285
-0.275
-0.285
-0.29
-0.29
-0.305
-0.285
-0.28
-0.28
-0.3
-0.3
-0.3
-0.3
-0.3
-0.32
-0.305
-0.31
-0.32
-0.31
-0.305
-0.31
-0.33
-0.325
-0.325
-0.32
-0.315
-0.305
-0.325
-0.33
-0.32
-0.33
-0.305
-0.31
-0.325
-0.32
-0.305
-0.31
-0.3
-0.305
-0.32
-0.31
-0.295
-0.3
-0.295
-0.285
-0.3
-0.31
-0.305
-0.3
-0.285
-0.285
-0.305
-0.3
-0.295
-0.28
-0.285
-0.285
-0.3
-0.31
-0.31
-0.29
-0.29
-0.29
-0.305
-0.295
-0.3
-0.29
-0.28
-0.29
-0.295
-0.31
-0.305
-0.305
-0.3
-0.295
-0.295
-0.295
-0.305
-0.295
-0.28
-0.29
-0.315
-0.315
-0.325
-0.305
-0.295
-0.285
-0.295
-0.3
-0.32
-0.315
-0.3
-0.29
-0.3
-0.305
-0.31
-0.3
-0.295
-0.29
-0.3
-0.305
-0.32
-0.295
-0.285
-0.285
-0.295
-0.31
-0.33
-0.305
-0.295
-0.295
-0.305
-0.31
-0.315
-0.295
-0.295
-0.3
-0.315
-0.305
-0.305
-0.3
-0.29
-0.3
-0.305
-0.305
-0.315
-0.3
-0.29
-0.295
-0.295
-0.305
-0.315
-0.305
-0.29
-0.295
-0.295
-0.3
-0.29
-0.275
-0.255
-0.255
-0.255
-0.26
-0.265
-0.255
-0.24
-0.22
-0.245
-0.23
-0.235
-0.19
-0.155
-0.14
-0.13
-0.14
-0.155
-0.17
-0.16
-0.17
-0.195
-0.205
-0.2
-0.2
-0.195
-0.205
-0.205
-0.225
-0.235
-0.23
-0.24
-0.255
-0.275
-0.295
-0.305
-0.3
-0.3
-0.31
-0.32
-0.33
-0.34
-0.325
-0.32
-0.31
-0.315
-0.345
-0.345
-0.33
-0.32
-0.335
-0.335
-0.34
-0.335
-0.33
-0.32
-0.335
-0.345
-0.375
-0.42
-0.435
-0.445
-0.42
-0.295
-0.085
0.21
0.575
0.97
1.325
1.5
1.445
1.16
0.815
0.51
0.34
0.26
0.185
0.055
-0.045
-0.105
-0.145
-0.2
-0.25
-0.29
-0.31
-0.32
-0.345
-0.355
-0.37
-0.38
-0.365
-0.37
-0.37
-0.385
-0.4
-0.39
-0.375
-0.37
-0.37
-0.385
-0.395
-0.4
-0.39
-0.37
-0.38
-0.38
-0.38
-0.385
-0.39
-0.375
-0.385
-0.39
-0.4
-0.4
-0.39
-0.39
-0.39
-0.405
-0.405
-0.395
-0.39
-0.375
-0.39
-0.395
-0.405
-0.405
-0.405
-0.385
-0.385
-0.39
-0.395
-0.4
-0.39
-0.385
-0.39
-0.39
-0.395
-0.39
-0.375
-0.37
-0.37
-0.37
-0.365
-0.375
-0.36
-0.365
-0.35
-0.37
-0.36
-0.36
-0.345
-0.32
-0.325
-0.325
-0.315
-0.33
-0.305
-0.285
-0.285
-0.285
-0.27
-0.26
-0.25
-0.235
-0.22
-0.215
-0.2
-0.185
-0.165
-0.14
-0.135
-0.13
-0.14
-0.125
-0.11
-0.085
-0.07
-0.065
-0.075
-0.065
-0.045
-0.035
-0.035
-0.025
-0.03
-0.04
-0.03
-0.01
-0.025
-0.05
-0.055
-0.055
-0.065
-0.07
-0.085
-0.11
-0.13
-0.155
-0.16
-0.16
-0.185
-0.205
-0.225
-0.24
-0.25
-0.24
-0.26
-0.28
-0.305
-0.315
-0.305
-0.295
-0.31
-0.32
-0.32
-0.33
-0.32
-0.315
-0.335
-0.33
-0.355
-0.35
-0.34
-0.335
-0.33
-0.345
-0.345
-0.365
-0.345
-0.345
-0.35
-0.355
-0.36
-0.36
-0.355
-0.355
-0.36
-0.355
-0.37
-0.37
-0.36
-0.35
-0.355
-0.36
-0.365
-0.375
-0.365
-0.345
-0.34
-0.34
-0.35
-0.36
-0.34
-0.34
-0.335
-0.34
-0.355
-0.355
-0.335
-0.325
-0.335
-0.34
-0.345
-0.35
-0.34
-0.335
-0.33
-0.33
-0.345
-0.335
-0.33
-0.325
-0.335
-0.335
-0.335
-0.345
-0.335
-0.325
-0.34
-0.34
-0.345
-0.355
-0.335
-0.32
-0.33
-0.335
-0.34
-0.355
-0.35
-0.33
-0.335
-0.345
-0.345
-0.35
-0.345
-0.345
-0.335
-0.355
-0.365
-0.37
-0.355
-0.32
-0.335
-0.34
-0.35
-0.36
-0.36
-0.34
-0.335
-0.355
-0.345
-0.35
-0.34
-0.33
-0.33
-0.355
-0.35
-0.35
-0.34
-0.335
-0.35
-0.35
-0.35
-0.355
-0.335
-0.33
-0.33
-0.35
-0.345
-0.35
-0.335
-0.33
-0.33
-0.34
-0.34
-0.345
-0.335
-0.34
-0.325
-0.335
-0.355
-0.35
-0.335
-0.325
-0.33
-0.345
-0.34
-0.355
-0.335
-0.325
-0.33
-0.335
-0.335
-0.345
-0.325
-0.32
-0.32
-0.33
-0.33
-0.34
-0.335
-0.325
-0.325
-0.335
-0.33
-0.32
-0.305
-0.3
-0.285
-0.28
-0.275
-0.275
-0.28
-0.265
-0.255
-0.26
-0.265
-0.27
-0.26
-0.245
-0.22
-0.21
-0.215
-0.19
-0.175
-0.155
-0.17
-0.2
-0.215
-0.215
-0.21
-0.2
-0.21
-0.22
-0.22
-0.225
-0.215
-0.22
-0.23
-0.235
-0.25
-0.265
-0.27
-0.27
-0.285
-0.315
-0.325
-0.335
-0.335
-0.33
-0.34
-0.335
-0.35
-0.35
-0.345
-0.34
-0.34
-0.36
-0.37
-0.37
-0.36
-0.355
-0.345
-0.36
-0.36
-0.37
-0.36
-0.36
-0.355
-0.36
-0.375
-0.405
-0.435
-0.455
-0.465
-0.455
-0.365
-0.185
0.075
0.365
0.695
1.045
1.335
1.465
1.4
1.17
0.835
0.55
0.355
0.26
0.23
0.16
0.06
-0.05
-0.11
-0.165
-0.195
-0.24
-0.275
-0.32
-0.37
-0.395
-0.39
-0.385
-0.38
-0.39
-0.4
-0.405
-0.405
-0.4
-0.415
-0.42
-0.43
-0.42
-0.41
-0.4
-0.41
-0.42
-0.42
-0.415
-0.405
-0.415
-0.41
-0.42
-0.425
-0.425
-0.415
-0.41
-0.42
-0.43
-0.425
-0.435
-0.43
-0.41
-0.41
-0.425
-0.425
-0.425
-0.425
-0.415
-0.425
-0.425
-0.43
-0.43
-0.425
-0.42
-0.43
-0.425
-0.425
-0.43
-0.42
-0.415
-0.42
-0.41
-0.415
-0.415
-0.405
-0.41
-0.4
-0.41
-0.415
-0.405
-0.395
-0.39
-0.375
-0.38
-0.38
-0.38
-0.365
-0.345
-0.335
-0.345
-0.345
-0.35
-0.335
-0.31
-0.295
-0.295
-0.295
-0.285
-0.26
-0.25
-0.24
-0.225
-0.21
-0.22
-0.19
-0.18
-0.165
-0.17
-0.165
-0.16
-0.14
-0.11
-0.1
-0.105
-0.105
-0.095
-0.075
-0.06
-0.065
-0.07
-0.06
-0.06
-0.065
-0.055
-0.075
-0.08
-0.09
-0.095
-0.09
-0.095
-0.11
-0.145
-0.16
-0.18
-0.185
-0.195
-0.2
-0.22
-0.245
-0.25
-0.255
-0.265
-0.275
-0.29
-0.3
-0.31
-0.305
-0.31
-0.31
-0.335
-0.34
-0.34
-0.335
-0.32
-0.325
-0.33
-0.335
-0.355
-0.345
-0.335
-0.345
-0.35
-0.37
-0.37
-0.365
-0.345
-0.345
-0.36
-0.365
-0.37
-0.36
-0.36
-0.36
-0.375
-0.37
-0.38
-0.38
-0.365
-0.375
-0.385
-0.39
-0.39
-0.365
-0.355
-0.37
-0.37
-0.38
-0.39
-0.385
-0.375
-0.365
-0.375
-0.37
-0.375
-0.37
-0.37
-0.355
-0.365
-0.36
-0.365
-0.35
-0.355
-0.355
-0.355
-0.36
-0.355
-0.345
-0.345
-0.35
-0.345
-0.355
-0.365
-0.365
-0.35
-0.35
-0.35
-0.355
-0.36
-0.35
-0.345
-0.35
-0.36
-0.36
-0.365
-0.37
-0.35
-0.345
-0.345
-0.36
-0.37
-0.365
-0.35
-0.35
-0.365
-0.365
-0.375
-0.355
-0.345
-0.36
-0.37
-0.365
-0.365
-0.35
-0.345
-0.36
-0.35
-0.365
-0.37
-0.37
-0.345
-0.35
-0.345
-0.36
-0.37
-0.36
-0.355
-0.36
-0.36
-0.365
-0.37
-0.355
-0.345
-0.35
-0.345
-0.35
-0.355
-0.355
-0.34
-0.335
-0.335
-0.36
-0.36
-0.355
-0.335
-0.35
-0.36
-0.36
-0.355
-0.34
-0.33
-0.34
-0.345
-0.355
-0.355
-0.345
-0.335
-0.335
-0.345
-0.35
-0.355
-0.35
-0.335
-0.345
-0.345
-0.345
-0.355
-0.345
-0.335
-0.34
-0.345
-0.355
-0.345
-0.335
-0.325
-0.325
-0.315
-0.31
-0.305
-0.29
-0.28
-0.28
-0.285
-0.305
-0.3
-0.29
-0.29
-0.285
-0.28
-0.275
-0.25
-0.22
-0.19
-0.19
-0.18
-0.19
-0.21
-0.215
-0.215
-0.22
-0.235
-0.25
-0.255
-0.25
-0.235
-0.235
-0.25
-0.265
-0.27
-0.255
-0.265
-0.28
-0.29
-0.31
-0.33
-0.34
-0.335
-0.345
-0.355
-0.375
-0.38
-0.37
-0.365
-0.365
-0.375
-0.385
-0.38
-0.375
-0.375
-0.37
-0.39
-0.39
-0.4
-0.39
-0.385
-0.385
-0.39
-0.395
-0.405
-0.405
-0.405
-0.44
-0.47
-0.495
-0.495
-0.455
-0.36
-0.175
0.065
0.315
0.61
0.945
1.215
1.355
1.31
1.075
0.755
0.47
0.275
0.17
0.12
0.06
-0.055
-0.16
-0.22
-0.245
-0.285
-0.34
-0.37
-0.385
-0.405
-0.415
-0.435
-0.43
-0.43
-0.42
-0.425
-0.435
-0.45
-0.455
-0.46
-0.45
-0.455
-0.445
-0.47
-0.475
-0.47
-0.465
-0.465
-0.46
-0.46
-0.465
-0.465
-0.45
-0.455
-0.46
-0.465
-0.485
-0.47
-0.465
-0.445
-0.47
-0.455
-0.475
-0.475
-0.47
-0.455
-0.465
-0.47
-0.475
-0.48
-0.455
-0.445
-0.455
-0.48
-0.475
-0.47
-0.47
-0.465
-0.465
-0.485
-0.48
-0.475
-0.46
-0.46
-0.455
-0.47
-0.47
-0.465
-0.46
-0.445
-0.455
-0.45
-0.46
-0.46
-0.45
-0.44
-0.435
-0.425
-0.43
-0.43
-0.42
-0.41
-0.39
-0.405
-0.395
-0.395
-0.37
-0.355
-0.345
-0.34
-0.345
-0.335
-0.305
-0.285
-0.28
-0.27
-0.27
-0.265
-0.25
-0.235
-0.225
-0.215
-0.215
-0.21
-0.18
-0.165
-0.165
-0.175
-0.17
-0.17
-0.165
-0.15
-0.14
-0.145
-0.155
-0.16
-0.16
-0.16
-0.155
-0.18
-0.18
-0.21
-0.21
-0.22
-0.22
-0.245
-0.27
-0.285
-0.28
-0.28
-0.29
-0.3
-0.33
-0.34
-0.335
-0.335
-0.345
-0.365
-0.37
-0.38
-0.365
-0.365
-0.375
-0.375
-0.395
-0.4
-0.395
-0.375
-0.375
-0.385
-0.395
-0.41
-0.405
-0.4
-0.405
-0.405
-0.415
-0.41
-0.4
-0.4
-0.395
-0.4
-0.415
-0.42
-0.405
-0.395
-0.39
-0.4
-0.415
-0.42
-0.405
-0.395
-0.395
-0.405
-0.415
-0.42
-0.405
-0.405
-0.405
-0.405
-0.415
-0.41
-0.395
-0.385
-0.385
-0.395
-0.4
-0.395
-0.38
-0.38
-0.375
-0.39
-0.39
-0.38
-0.38
-0.38
-0.39
-0.38
-0.38
-0.385
-0.37
-0.375
-0.375
-0.385
-0.385
-0.39
-0.38
-0.37
-0.37
-0.38
-0.39
-0.39
-0.39
-0.38
-0.375
-0.38
-0.38
-0.4
-0.395
-0.375
-0.37
-0.37
-0.385
-0.405
-0.385
-0.385
-0.38
-0.39
-0.385
-0.39
-0.385
-0.39
-0.385
-0.38
-0.395
-0.385
-0.39
-0.385
-0.385
-0.395
-0.395
-0.38
-0.38
-0.38
-0.39
-0.395
-0.395
-0.405
-0.385
-0.375
-0.37
-0.375
-0.39
-0.4
-0.395
-0.385
-0.385
-0.385
-0.4
-0.405
-0.385
-0.385
-0.395
-0.39
-0.4
-0.405
-0.405
-0.385
-0.395
-0.4
-0.41
-0.405
-0.39
-0.375
-0.385
-0.385
-0.39
-0.385
-0.395
-0.39
-0.385
-0.39
-0.395
-0.4
-0.38
-0.365
-0.36
-0.35
-0.365
-0.37
-0.355
-0.335
-0.34
-0.345
-0.35
-0.355
-0.345
-0.325
-0.325
-0.3
-0.3
-0.275
-0.245
-0.225
-0.215
-0.25
-0.26
-0.275
-0.265
-0.27
-0.29
-0.3
-0.315
-0.325
-0.31
-0.305
-0.31
-0.325
-0.32
-0.325
-0.35
-0.35
-0.365
-0.39
-0.4
-0.425
-0.43
-0.425
-0.425
-0.425
-0.44
-0.44
-0.435
-0.425
-0.435
-0.435
-0.445
-0.445
-0.43
-0.42
-0.43
-0.435
-0.44
-0.45
-0.44
-0.43
-0.425
-0.44
-0.445
-0.475
-0.49
-0.505
-0.53
-0.53
-0.48
-0.315
-0.065
0.24
0.58
0.945
1.26
1.4
1.3
1.01
0.665
0.345
0.16
0.095
0.05
-0.035
-0.175
-0.275
-0.315
-0.36
-0.375
-0.395
-0.425
-0.445
-0.475
-0.49
-0.48
-0.47
-0.46
-0.49
-0.495
-0.5
-0.49
-0.485
-0.485
-0.495
-0.505
-0.51
-0.5
-0.49
-0.485
-0.495
-0.5
-0.505
-0.51
-0.49
-0.485
-0.5
-0.515
-0.51
-0.51
-0.505
-0.495
-0.515
-0.52
-0.525
-0.525
-0.51
-0.51
-0.51
-0.51
-0.52
-0.52
-0.51
-0.505
-0.51
-0.515
-0.525
-0.505
-0.505
-0.51
-0.51
-0.51
-0.52
-0.49
-0.485
-0.49
-0.505
-0.495
-0.51
-0.49
-0.485
-0.485
-0.47
-0.475
-0.475
-0.47
-0.46
-0.45
-0.45
-0.45
-0.43
-0.42
-0.405
-0.405
-0.4
-0.41
-0.38
-0.355
-0.34
-0.34
-0.335
-0.33
-0.31
-0.29
-0.265
-0.265
-0.265
-0.255
-0.24
-0.215
-0.2
-0.21
-0.195
-0.195
-0.2
-0.185
-0.16
-0.165
-0.17
-0.17
-0.17
-0.165
-0.17
-0.175
-0.18
-0.2
-0.22
-0.22
