Lead II
-0.98
-0.965
-0.98
-0.975
-0.97
-0.98
-0.985
-0.985
-0.995
-1.005
-0.99
-0.99
-0.98
-0.975
-0.98
-0.975
-0.985
-0.995
-1.005
-1.0
-1.0
-1.01
-0.985
-0.975
-0.97
-0.96
-0.98
-0.995
-0.975
-0.985
-1.01
-1.005
-0.99
-0.955
-0.905
-0.885
-0.865
-0.845
-0.845
-0.855
-0.86
-0.885
-0.88
-0.885
-0.88
-0.88
-0.855
-0.82
-0.785
-0.745
-0.745
-0.755
-0.78
-0.805
-0.83
-0.835
-0.845
-0.845
-0.855
-0.85
-0.84
-0.845
-0.865
-0.895
-0.92
-0.965
-0.995
-1.02
-1.045
-1.04
-1.05
-1.05
-1.045
-1.03
-1.025
-1.03
-1.03
-1.05
-1.045
-1.055
-1.055
-1.045
-1.045
-1.065
-1.06
-1.035
-1.02
-1.015
-0.97
-0.92
-0.83
-0.685
-0.485
-0.19
0.14
0.5
0.9
1.315
1.67
1.955
2.06
1.96
1.56
0.92
0.28
-0.36
-1.0
-1.605
-1.5
-1.235
-0.965
-0.75
-0.69
-0.715
-0.805
-0.91
-0.98
-1.02
-1.025
-1.015
-0.99
-0.96
-0.975
-0.975
-1.005
-1.01
-1.015
-1.005
-1.015
-1.0
-0.99
-0.98
-0.97
-0.955
-0.95
-0.95
-0.965
-0.945
-0.955
-0.96
-0.96
-0.95
-0.935
-0.93
-0.905
-0.895
-0.905
-0.895
-0.91
-0.9
-0.9
-0.89
-0.875
-0.865
-0.855
-0.835
-0.825
-0.81
-0.8
-0.78
-0.785
-0.775
-0.765
-0.74
-0.725
-0.71
-0.69
-0.66
-0.63
-0.61
-0.595
-0.59
-0.58
-0.59
-0.595
-0.595
-0.585
-0.58
-0.565
-0.565
-0.545
-0.54
-0.545
-0.55
-0.57
-0.595
-0.605
-0.62
-0.63
-0.645
-0.635
-0.64
-0.66
-0.675
-0.71
-0.72
-0.76
-0.785
-0.815
-0.83
-0.85
-0.865
-0.88
-0.895
-0.895
-0.89
-0.92
-0.93
-0.925
-0.955
-0.96
-0.97
-0.995
-0.99
-0.99
-0.985
-0.985
-0.955
-0.96
-0.97
-0.97
-0.985
-1.015
-1.015
-1.015
-0.99
-0.995
-0.98
-0.965
-0.96
-0.965
-0.985
-0.995
-1.015
-1.01
-1.0
-1.0
-1.0
-0.99
-0.985
-0.975
-0.97
-0.98
-0.99
-0.995
-1.015
-1.03
-1.035
-1.035
-1.04
-1.035
-1.045
-1.04
-1.03
-1.02
-1.045
-1.055
-1.06
-1.075
-1.065
-1.075
-1.08
-1.07
-1.065
-1.06
-1.055
-1.055
-1.06
-1.07
-1.085
-1.085
-1.08
-1.1
-1.1
-1.085
-1.075
-1.095
-1.075
-1.085
-1.085
-1.095
-1.1
-1.115
-1.115
-1.115
-1.12
-1.115
-1.1
-1.09
-1.08
-1.09
-1.1
-1.115
-1.145
-1.13
-1.115
-1.105
-1.085
-1.07
-1.045
-1.025
-1.0
-1.0
-1.01
-1.025
-1.04
-1.05
-1.05
-1.035
-1.005
-0.99
-0.95
-0.93
-0.91
-0.895
-0.91
-0.93
-0.95
-0.99
-1.01
-1.015
-1.005
-1.025
-1.005
-1.02
-1.01
-1.01
-1.03
-1.06
-1.085
-1.125
-1.14
-1.165
-1.205
-1.175
-1.175
-1.15
-1.135
-1.14
-1.145
-1.16
-1.19
-1.2
-1.19
-1.185
-1.19
-1.175
-1.16
-1.17
-1.165
-1.155
-1.115
-1.07
-0.99
-0.84
-0.63
-0.375
-0.09
0.22
0.58
0.96
1.36
1.685
1.93
1.995
1.755
1.22
0.58
-0.06
-0.7
-1.34
-1.74
-1.57
-1.3
-1.045
-0.92
-0.885
-0.92
-1.015
-1.11
-1.16
-1.18
-1.18
-1.155
-1.14
-1.125
-1.135
-1.15
-1.155
-1.17
-1.17
-1.165
-1.165
-1.17
-1.13
-1.13
-1.11
-1.105
-1.09
-1.105
-1.085
-1.1
-1.11
-1.105
-1.115
-1.105
-1.095
-1.075
-1.06
-1.055
-1.045
-1.04
-1.045
-1.03
-1.015
-1.01
-1.015
-1.02
-1.0
-1.005
-0.985
-0.965
-0.95
-0.925
-0.92
-0.91
-0.905
-0.895
-0.905
-0.865
-0.845
-0.81
-0.79
-0.755
-0.735
-0.725
-0.74
-0.73
-0.74
-0.745
-0.745
-0.745
-0.715
-0.705
-0.68
-0.675
-0.68
-0.67
-0.685
-0.715
-0.73
-0.75
-0.765
-0.775
-0.77
-0.775
-0.79
-0.795
-0.82
-0.84
-0.865
-0.895
-0.925
-0.945
-0.975
-1.005
-1.02
-1.025
-1.035
-1.025
-1.04
-1.06
-1.075
-1.095
-1.105
-1.1
-1.105
-1.11
-1.125
-1.105
-1.085
-1.065
-1.08
-1.09
-1.09
-1.105
-1.11
-1.11
-1.11
-1.1
-1.085
-1.075
-1.07
-1.06
-1.065
-1.06
-1.065
-1.075
-1.075
-1.09
-1.085
-1.09
-1.085
-1.08
-1.075
-1.07
-1.06
-1.07
-1.055
-1.07
-1.08
-1.09
-1.095
-1.085
-1.09
-1.085
-1.08
-1.06
-1.065
-1.065
-1.075
-1.095
-1.1
-1.11
-1.11
-1.12
-1.11
-1.095
-1.085
-1.065
-1.07
-1.07
-1.08
-1.085
-1.105
-1.105
-1.11
-1.11
-1.095
-1.1
-1.095
-1.065
-1.07
-1.08
-1.06
-1.06
-1.06
-1.06
-1.085
-1.09
-1.095
-1.08
-1.075
-1.055
-1.05
-1.045
-1.07
-1.07
-1.065
-1.085
-1.07
-1.06
-1.04
-1.01
-0.98
-0.95
-0.935
-0.945
-0.93
-0.93
-0.94
-0.95
-0.955
-0.955
-0.94
-0.935
-0.915
-0.895
-0.87
-0.87
-0.84
-0.83
-0.83
-0.84
-0.865
-0.88
-0.87
-0.87
-0.88
-0.865
-0.86
-0.865
-0.87
-0.88
-0.89
-0.905
-0.93
-0.95
-0.965
-0.965
-0.985
-1.005
-1.02
-1.04
-1.045
-1.045
-1.05
-1.05
-1.035
-1.035
-1.02
-1.0
-1.0
-0.985
-0.985
-0.99
-1.01
-1.005
-1.015
-0.995
-0.965
-0.9
-0.765
-0.58
-0.345
-0.05
0.285
0.605
0.96
1.325
1.61
1.855
1.98
1.99
1.81
1.375
0.735
0.095
-0.545
-1.185
-1.495
-1.425
-1.195
-0.95
-0.79
-0.745
-0.745
-0.805
-0.87
-0.915
-0.935
-0.94
-0.95
-0.955
-0.96
-0.97
-0.98
-0.97
-0.955
-0.94
-0.935
-0.93
-0.93
-0.915
-0.925
-0.905
-0.915
-0.92
-0.915
-0.91
-0.92
-0.91
-0.88
-0.865
-0.855
-0.845
-0.85
-0.84
-0.85
-0.855
-0.86
-0.845
-0.83
-0.815
-0.785
-0.775
-0.765
-0.76
-0.75
-0.745
-0.735
-0.725
-0.715
-0.705
-0.675
-0.655
-0.64
-0.625
-0.605
-0.59
-0.58
-0.58
-0.565
-0.545
-0.53
-0.525
-0.505
-0.49
-0.48
-0.435
-0.445
-0.44
-0.445
-0.455
-0.475
-0.475
-0.49
-0.5
-0.485
-0.49
-0.485
-0.5
-0.495
-0.525
-0.555
-0.6
-0.61
-0.64
-0.67
-0.69
-0.7
-0.71
-0.72
-0.705
-0.735
-0.765
-0.77
-0.785
-0.8
-0.81
-0.82
-0.815
-0.84
-0.82
-0.815
-0.82
-0.82
-0.82
-0.825
-0.84
-0.845
-0.845
-0.845
-0.84
-0.84
-0.82
-0.82
-0.79
-0.81
-0.795
-0.805
-0.83
-0.835
-0.835
-0.83
-0.84
-0.83
-0.82
-0.81
-0.805
-0.81
-0.795
-0.825
-0.82
-0.84
-0.855
-0.87
-0.865
-0.86
-0.86
-0.845
-0.835
-0.845
-0.85
-0.86
-0.855
-0.865
-0.875
-0.885
-0.885
-0.895
-0.89
-0.895
-0.875
-0.875
-0.87
-0.865
-0.875
-0.875
-0.885
-0.895
-0.92
-0.91
-0.88
-0.9
-0.875
-0.875
-0.885
-0.9
-0.905
-0.915
-0.905
-0.91
-0.91
-0.905
-0.905
-0.89
-0.865
-0.88
-0.895
-0.885
-0.9
-0.905
-0.91
-0.905
-0.905
-0.885
-0.86
-0.82
-0.8
-0.775
-0.76
-0.78
-0.78
-0.79
-0.8
-0.82
-0.805
-0.795
-0.78
-0.74
-0.705
-0.7
-0.695
-0.7
-0.725
-0.75
-0.76
-0.795
-0.79
-0.78
-0.79
-0.79
-0.795
-0.805
-0.845
-0.865
-0.88
-0.905
-0.935
-0.955
-0.975
-0.97
-0.975
-0.965
-0.95
-0.96
-0.945
-0.955
-0.97
-0.975
-0.985
-0.97
-0.975
-0.98
-0.975
-0.975
-0.965
-0.94
-0.92
-0.865
-0.78
-0.635
-0.43
-0.17
0.125
0.47
0.85
1.245
1.63
1.94
2.135
2.19
2.02
1.575
0.935
0.295
-0.345
-0.985
-1.625
-1.53
-1.235
-0.935
-0.73
-0.65
-0.685
-0.79
-0.91
-0.97
-1.015
-1.01
-0.97
-0.955
-0.935
-0.93
-0.94
-0.96
-0.965
-0.97
-0.98
-0.995
-0.995
-0.975
-0.96
-0.935
-0.92
-0.92
-0.915
-0.92
-0.945
-0.955
-0.945
-0.93
-0.925
-0.91
-0.895
-0.88
-0.87
-0.85
-0.85
-0.84
-0.86
-0.855
-0.845
-0.855
-0.86
-0.855
-0.82
-0.8
-0.775
-0.75
-0.755
-0.735
-0.725
-0.715
-0.705
-0.7
-0.675
-0.65
-0.615
-0.605
-0.585
-0.57
-0.575
-0.57
-0.57
-0.575
-0.565
-0.565
-0.555
-0.56
-0.545
-0.545
-0.535
-0.535
-0.545
-0.56
-0.59
-0.6
-0.605
-0.625
-0.645
-0.66
-0.67
-0.69
-0.69
-0.71
-0.74
-0.765
-0.785
-0.815
-0.855
-0.885
-0.895
-0.905
-0.92
-0.93
-0.925
-0.94
-0.94
-0.94
-0.975
-0.965
-0.98
-0.985
-1.01
-1.0
-0.985
-0.98
-0.96
-0.965
-0.98
-0.98
-0.995
-1.0
-1.005
-1.01
-1.01
-1.0
-0.99
-0.99
-0.98
-0.99
-0.995
-0.98
-0.985
-1.0
-1.015
-1.035
-1.03
-1.035
-1.035
-1.01
-1.01
-0.995
-1.01
-1.01
-1.04
-1.035
-1.055
-1.06
-1.055
-1.065
-1.065
-1.055
-1.05
-1.07
-1.065
-1.06
-1.08
-1.085
-1.095
-1.095
-1.11
-1.105
-1.09
-1.08
-1.065
-1.065
-1.07
-1.075
-1.1
-1.105
-1.105
-1.11
-1.11
-1.105
-1.1
-1.085
-1.07
-1.08
-1.095
-1.1
-1.12
-1.125
-1.13
-1.14
-1.135
-1.13
-1.115
-1.095
-1.08
-1.07
-1.08
-1.065
-1.06
-1.04
-1.04
-1.045
-1.035
-1.025
-1.03
-1.035
-1.005
-1.015
-1.005
-0.985
-0.98
-0.96
-0.955
-0.95
-0.95
-0.94
-0.945
-0.96
-0.965
-0.975
-0.98
-0.995
-1.005
-1.015
-1.055
-1.055
-1.075
-1.095
-1.09
-1.105
-1.105
-1.135
-1.145
-1.165
-1.175
-1.195
-1.195
-1.2
-1.185
-1.17
-1.17
-1.15
-1.135
-1.16
-1.175
-1.16
-1.18
-1.19
-1.195
-1.19
-1.18
-1.14
-1.09
-1.0
-0.845
-0.65
-0.395
-0.065
0.305
0.7
1.125
1.515
1.825
1.99
1.985
1.695
1.115
0.475
-0.165
-0.805
-1.445
-1.86
-1.705
-1.46
-1.205
-1.035
-0.93
-0.935
-0.98
-1.045
-1.1
-1.13
-1.15
-1.17
-1.16
-1.165
-1.16
-1.165
-1.155
-1.16
-1.165
-1.125
-1.13
-1.13
-1.135
-1.15
-1.14
-1.145
-1.155
-1.15
-1.12
-1.115
-1.105
-1.08
-1.08
-1.085
-1.095
-1.105
-1.105
-1.12
-1.09
-1.07
-1.055
-1.035
-1.015
-1.0
-1.01
-1.01
-1.01
-0.995
-0.995
-0.98
-0.965
-0.955
-0.93
-0.91
-0.905
-0.9
-0.865
-0.85
-0.85
-0.835
-0.85
-0.83
-0.815
-0.81
-0.775
-0.745
-0.725
-0.7
-0.705
-0.7
-0.72
-0.73
-0.72
-0.705
-0.715
-0.7
-0.7
-0.705
-0.705
-0.7
-0.725
-0.725
-0.745
-0.76
-0.795
-0.82
-0.835
-0.85
-0.85
-0.865
-0.865
-0.885
-0.91
-0.945
-0.965
-1.01
-1.025
-1.05
-1.065
-1.075
-1.065
-1.065
-1.075
-1.07
-1.08
-1.09
-1.105
-1.1
-1.12
-1.115
-1.135
-1.145
-1.12
-1.115
-1.09
-1.095
-1.105
-1.105
-1.11
-1.12
-1.13
-1.13
-1.12
-1.115
-1.105
-1.105
-1.095
-1.105
-1.12
-1.13
-1.125
-1.12
-1.12
-1.13
-1.14
-1.14
-1.125
-1.105
-1.095
-1.075
-1.075
-1.095
-1.11
-1.11
-1.135
-1.14
-1.135
-1.125
-1.125
-1.12
-1.125
-1.135
-1.135
-1.14
-1.155
-1.15
-1.155
-1.15
-1.155
-1.15
-1.14
-1.14
-1.13
-1.125
-1.12
-1.125
-1.145
-1.15
-1.165
-1.185
-1.19
-1.185
-1.18
-1.16
-1.15
-1.145
-1.16
-1.15
-1.155
-1.18
-1.18
-1.185
-1.175
-1.175
-1.165
-1.16
-1.155
-1.15
-1.155
-1.18
-1.175
-1.175
-1.17
-1.175
-1.135
-1.115
-1.095
-1.08
-1.07
-1.055
-1.05
-1.065
-1.08
-1.08
-1.09
-1.08
-1.06
-1.02
-0.98
-0.97
-0.96
-0.95
-0.955
-0.98
-1.005
-1.015
-1.045
-1.05
-1.06
-1.06
-1.04
-1.04
-1.04
-1.045
-1.055
-1.085
-1.11
-1.135
-1.175
-1.195
-1.22
-1.21
-1.19
-1.185
-1.165
-1.15
-1.155
-1.16
-1.165
-1.18
-1.17
-1.17
-1.165
-1.155
-1.15
-1.155
-1.145
-1.105
-1.05
-0.93
-0.79
-0.61
-0.405
-0.175
0.075
0.325
0.63
0.965
1.26
1.5
1.565
1.395
0.94
0.3
-0.34
-0.98
-1.585
-1.66
-1.525
-1.275
-1.04
-0.885
-0.85
-0.875
-0.975
-1.045
-1.1
-1.105
-1.12
-1.115
-1.1
-1.08
-1.06
-1.04
-1.035
-1.04
-1.065
-1.05
-1.04
-1.03
-1.03
-1.02
-1.0
-1.0
-0.98
-0.97
-0.965
-0.975
-0.965
-0.965
-0.975
-0.99
-0.98
-0.96
-0.95
-0.905
-0.885
-0.88
-0.87
-0.865
-0.86
-0.87
-0.865
-0.87
-0.835
-0.82
-0.805
-0.79
-0.77
-0.74
-0.74
-0.725
-0.725
-0.72
-0.715
-0.715
-0.685
-0.66
-0.63
-0.62
-0.615
-0.59
-0.595
-0.605
-0.6
-0.6
-0.59
-0.6
-0.59
-0.61
-0.605
-0.595
-0.605
-0.59
-0.61
-0.62
-0.65
-0.685
-0.715
-0.72
-0.72
-0.75
-0.75
-0.755
-0.745
-0.74
-0.76
-0.77
-0.79
-0.805
-0.835
-0.84
-0.855
-0.86
-0.855
-0.86
-0.87
-0.855
-0.88
-0.875
-0.88
-0.885
-0.89
-0.9
-0.9
-0.885
-0.87
-0.86
-0.85
-0.85
-0.855
-0.855
-0.855
-0.85
-0.875
-0.86
-0.875
-0.875
-0.86
-0.86
-0.85
-0.83
-0.84
-0.835
-0.855
-0.865
-0.875
-0.87
-0.88
-0.885
-0.885
-0.885
-0.89
-0.89
-0.885
-0.89
-0.895
-0.89
-0.905
-0.89
-0.91
-0.91
-0.9
-0.895
-0.89
-0.88
-0.9
-0.92
-0.925
-0.915
-0.92
-0.945
-0.93
-0.93
-0.92
-0.925
-0.915
-0.9
-0.93
-0.93
-0.935
-0.945
-0.965
-0.95
-0.96
-0.955
-0.945
-0.93
-0.93
-0.92
-0.92
-0.93
-0.925
-0.945
-0.955
-0.98
-0.975
-0.995
-0.975
-0.96
-0.94
-0.915
-0.905
-0.9
-0.885
-0.865
-0.87
-0.86
-0.855
-0.845
-0.83
-0.83
-0.815
-0.81
-0.825
-0.84
-0.825
-0.82
-0.81
-0.79
-0.775
-0.75
-0.745
-0.73
-0.745
-0.755
-0.765
-0.785
-0.8
-0.815
-0.825
-0.825
-0.845
-0.86
-0.85
-0.875
-0.9
-0.915
-0.93
-0.97
-0.995
-1.015
-1.03
-1.035
-1.035
-1.03
-1.02
-1.0
-0.99
-0.98
-0.96
-0.96
-0.965
-0.98
-0.995
-0.995
-1.02
-1.0
-0.98
-0.915
-0.805
-0.65
-0.425
-0.16
0.135
0.48
0.83
1.195
1.52
1.79
1.96
2.02
1.905
1.605
1.075
0.435
-0.205
-0.845
-1.43
-1.55
-1.44
-1.195
-0.955
-0.795
-0.73
-0.76
-0.825
-0.905
-0.97
-1.0
-1.005
-1.01
-0.98
-0.98
-0.965
-0.965
-0.96
-0.97
-0.96
-0.965
-0.97
-0.97
-0.97
-0.965
-0.97
-0.965
-0.93
-0.925
-0.95
-0.94
-0.935
-0.925
-0.92
-0.92
-0.915
-0.925
-0.915
-0.915
-0.915
-0.89
-0.875
-0.85
-0.835
-0.85
-0.845
-0.84
-0.84
-0.82
-0.82
-0.805
-0.79
-0.785
-0.77
-0.745
-0.755
-0.71
-0.705
-0.705
-0.705
-0.695
-0.685
-0.67
-0.615
-0.605
-0.58
-0.555
-0.55
-0.545
-0.55
-0.575
-0.57
-0.575
-0.58
-0.565
-0.56
-0.555
-0.555
-0.56
-0.56
-0.575
-0.59
-0.6
-0.64
-0.64
-0.66
-0.695
-0.705
-0.695
-0.705
-0.7
-0.715
-0.745
-0.775
-0.8
-0.845
-0.845
-0.865
-0.88
-0.88
-0.885
-0.89
-0.88
-0.89
-0.905
-0.905
-0.91
-0.93
-0.93
-0.925
-0.915
-0.91
-0.905
-0.9
-0.89
-0.885
-0.9
-0.905
-0.91
-0.915
-0.91
-0.9
-0.9
-0.895
-0.895
-0.885
-0.895
-0.89
-0.89
-0.9
-0.915
-0.935
-0.935
-0.945
-0.95
-0.94
-0.94
-0.935
-0.925
-0.925
-0.92
-0.935
-0.955
-0.965
-0.975
-0.98
-0.985
-0.98
-0.97
-0.97
-0.965
-0.96
-0.955
-0.965
-0.97
-0.98
-0.995
-0.995
-0.995
-1.0
-0.98
-0.985
-0.97
-0.97
-0.98
-0.99
-0.99
-0.985
-1.015
-1.01
-1.005
-1.0
-1.01
-0.98
-0.99
-0.99
-0.99
-1.0
-1.0
-0.995
-1.0
-1.0
-0.985
-0.99
-0.97
-0.96
-0.915
-0.915
-0.885
-0.895
-0.88
-0.9
-0.89
-0.915
-0.92
-0.9
-0.89
-0.86
-0.815
-0.81
-0.785
-0.785
-0.79
-0.805
-0.83
-0.84
-0.86
-0.865
-0.86
-0.86
-0.84
-0.845
-0.87
-0.9
-0.92
-0.95
-0.975
-1.01
-1.035
-1.035
-1.055
-1.05
-1.04
-1.05
-1.045
-1.055
-1.07
-1.06
-1.075
-1.095
-1.08
-1.07
-1.04
-1.04
-1.035
-1.02
-1.025
-1.025
-0.995
-0.93
-0.795
-0.605
-0.355
-0.055
0.24
0.54
0.845
1.15
1.435
1.68
1.87
1.935
1.825
1.45
0.83
0.19
-0.45
-1.09
-1.565
-1.535
-1.33
-1.065
-0.87
-0.785
-0.815
-0.875
-0.94
-1.015
-1.055
-1.06
-1.045
-1.02
-1.02
-1.03
-1.045
-1.05
-1.07
-1.06
-1.07
-1.05
-1.03
-1.005
-1.005
-1.0
-1.005
-1.02
-1.02
-1.03
-1.025
-1.015
-1.01
-1.015
-1.01
-1.0
-0.98
-0.97
-0.98
-0.97
-0.975
-0.97
-0.97
-0.965
-0.96
-0.935
-0.93
-0.92
-0.88
-0.885
-0.88
-0.885
-0.88
-0.885
-0.885
-0.875
-0.87
-0.835
-0.82
-0.795
-0.785
-0.77
-0.76
-0.735
-0.72
-0.725
-0.705
-0.705
-0.685
-0.675
-0.65
-0.62
-0.62
-0.61
-0.62
-0.635
-0.64
-0.65
-0.66
-0.66
-0.665
-0.655
-0.645
-0.64
-0.65
-0.66
-0.69
-0.705
-0.71
-0.745
-0.75
-0.775
-0.785
-0.785
-0.805
-0.805
-0.81
-0.835
-0.87
-0.875
-0.91
-0.925
-0.935
-0.945
-0.945
-0.94
-0.95
-0.945
-0.95
-0.94
-0.95
-0.955
-0.97
-0.975
-0.985
-0.99
-0.99
-0.99
-0.98
-0.97
-0.95
-0.945
-0.945
-0.945
-0.965
-0.965
-0.975
-0.99
-0.98
-0.97
-0.95
-0.96
-0.95
-0.97
-0.97
-0.985
-0.99
-0.995
-0.995
-0.995
-1.025
-1.01
-0.99
-0.97
-0.965
-0.985
-0.985
-0.99
-1.015
-1.025
-1.025
-1.045
-1.045
-1.04
-1.035
-1.03
-0.995
-1.015
-1.02
-1.025
-1.045
-1.065
-1.05
-1.07
-1.07
-1.06
-1.065
-1.035
-1.03
-1.035
-1.035
-1.04
-1.055
-1.065
-1.065
-1.065
-1.07
-1.085
-1.08
-1.06
-1.055
-1.055
-1.055
-1.055
-1.07
-1.075
-1.085
-1.085
-1.07
-1.075
-1.05
-1.04
-1.035
-1.025
-1.025
-1.03
-1.02
-0.99
-0.995
-0.955
-0.965
-0.955
-0.945
-0.935
-0.925
-0.925
-0.915
-0.895
-0.885
-0.87
-0.865
-0.865
-0.87
-0.885
-0.89
-0.89
-0.895
-0.91
-0.92
-0.92
-0.935
-0.94
-0.975
-0.98
-1.025
-1.045
-1.06
-1.085
-1.085
-1.11
-1.125
-1.12
-1.12
-1.12
-1.115
-1.12
-1.13
-1.125
-1.105
-1.105
-1.09
-1.1
-1.125
-1.125
-1.14
-1.155
-1.14
-1.125
-1.06
-0.97
-0.845
-0.67
-0.415
-0.2
0.035
0.27
0.54
0.825
1.17
1.495
1.775
1.91
1.785
1.335
0.695
0.055
-0.585
-1.225
-1.705
-1.525
-1.245
-1.005
-0.875
-0.85
-0.915
-0.99
-1.06
-1.085
-1.125
-1.11
-1.105
-1.095
-1.1
-1.105
-1.115
-1.115
-1.11
-1.11
-1.09
-1.08
-1.085
-1.09
-1.085
-1.08
-1.08
-1.09
-1.085
-1.075
-1.07
-1.06
-1.045
-1.03
-1.035
-1.05
-1.05
-1.055
-1.055
-1.06
-1.05
-1.025
-1.015
-0.995
-0.98
-0.945
-0.94
-0.945
-0.94
-0.94
-0.935
-0.935
-0.935
-0.93
-0.89
-0.87
-0.85
-0.835
-0.81
-0.815
-0.795
-0.79
-0.775
-0.77
-0.765
-0.74
-0.705
-0.71
-0.685
-0.685
-0.69
-0.69
-0.73
-0.715
-0.7
-0.715
-0.72
-0.705
-0.685
-0.7
-0.69
-0.7
-0.715
-0.735
-0.775
-0.785
-0.825
-0.855
-0.88
-0.895
-0.89
-0.9
-0.895
-0.9
-0.925
-0.935
-0.96
-0.985
-1.0
-1.02
-1.01
-1.025
-1.04
-1.02
-1.025
-1.015
-1.025
-1.02
-1.02
-1.02
-1.035
-1.05
-1.055
-1.04
-1.03
-1.01
-0.995
-1.015
-1.015
-1.02
-1.035
-1.04
-1.04
-1.045
-1.05
-1.045
-1.035
-1.03
-1.015
-1.025
-1.03
-1.03
-1.045
-1.06
-1.065
-1.075
-1.09
-1.06
-1.055
-1.05
-1.04
-1.045
-1.055
-1.08
-1.08
-1.09
-1.115
-1.115
-1.13
-1.11
-1.12
-1.105
-1.09
-1.105
-1.11
-1.115
-1.12
-1.125
-1.13
-1.125
-1.13
-1.12
-1.115
-1.115
-1.105
-1.105
-1.115
-1.125
-1.125
-1.14
-1.125
-1.14
-1.145
-1.13
-1.12
-1.12
-1.11
-1.11
-1.12
-1.13
-1.135
-1.14
-1.145
-1.15
-1.145
-1.135
-1.13
-1.125
-1.085
-1.06
-1.05
-1.035
-1.025
-1.02
-1.02
-1.03
-1.03
-1.045
-1.03
-1.02
-0.985
-0.965
-0.95
-0.93
-0.92
-0.93
-0.94
-0.96
-0.99
-1.0
-0.995
-1.015
-1.005
-1.0
-1.015
-1.03
-1.05
-1.105
-1.13
-1.155
-1.175
-1.18
-1.205
-1.2
-1.185
-1.19
-1.195
-1.2
-1.22
-1.23
-1.235
-1.25
-1.225
-1.215
-1.205
-1.195
-1.18
-1.195
-1.2
-1.215
-1.22
-1.21
-1.175
-1.09
-0.95
-0.77
-0.565
-0.33
-0.065
0.2
0.48
0.81
1.155
1.485
1.755
1.89
1.845
1.525
0.91
0.27
-0.37
-1.01
-1.65
-1.765
-1.535
-1.25
-1.035
-0.915
-0.915
-1.0
-1.07
-1.135
-1.17
-1.18
-1.165
-1.165
-1.16
-1.185
-1.19
-1.2
-1.205
-1.205
-1.185
-1.165
-1.155
-1.14
-1.135
-1.14
-1.14
-1.15
-1.155
-1.155
-1.15
-1.155
-1.14
-1.125
-1.115
-1.09
-1.105
-1.09
-1.1
-1.11
-1.1
-1.09
-1.11
-1.08
-1.065
-1.06
-1.02
-1.025
-1.01
-1.015
-1.015
-1.02
-1.015
-1.005
-0.985
-0.95
-0.935
-0.91
-0.885
-0.865
-0.85
-0.855
-0.85
-0.84
-0.845
-0.84
-0.83
-0.81
-0.785
-0.78
-0.75
-0.745
-0.735
-0.75
-0.76
-0.79
-0.78
-0.77
-0.78
-0.78
-0.775
-0.785
-0.785
-0.805
-0.83
-0.84
-0.86
-0.885
-0.915
-0.935
-0.965
-0.97
-0.96
-0.98
-0.98
-0.995
-1.01
-1.025
-1.04
-1.06
-1.08
-1.095
-1.11
-1.105
-1.09
-1.09
-1.075
-1.08
-1.085
-1.09
-1.1
-1.11
-1.12
-1.125
-1.13
-1.12
-1.095
-1.095
-1.09
-1.085
-1.085
-1.085
-1.095
-1.105
-1.11
-1.11
-1.105
-1.1
-1.105
-1.1
-1.105
-1.095
-1.115
-1.115
-1.12
-1.14
-1.125
-1.135
-1.13
-1.125
-1.13
-1.13
-1.125
-1.14
-1.145
-1.15
-1.165
-1.18
-1.185
-1.2
-1.19
-1.21
-1.195
-1.21
-1.18
-1.16
-1.17
-1.175
-1.205
-1.195
-1.19
-1.19
-1.185
-1.195
-1.2
-1.2
-1.2
-1.205
-1.185
-1.19
-1.19
-1.205
-1.205
-1.205
-1.21
-1.205
-1.2
-1.21
-1.19
-1.195
-1.2
-1.195
-1.2
-1.2
-1.2
-1.23
-1.22
-1.24
-1.21
-1.2
-1.19
-1.17
-1.16
-1.15
-1.14
-1.135
-1.105
-1.095
-1.085
-1.085
-1.085
-1.09
-1.08
-1.07
-1.07
-1.065
-1.06
-1.045
-1.035
-1.02
-1.02
-0.995
-0.99
-1.015
-1.02
-1.025
-1.045
-1.05
-1.075
-1.07
-1.08
-1.105
-1.125
-1.145
-1.165
-1.18
-1.18
-1.19
-1.21
-1.215
-1.24
-1.28
-1.29
-1.295
-1.28
-1.28
-1.27
-1.255
-1.25
-1.23
-1.225
-1.24
-1.25
-1.27
-1.26
-1.27
-1.285
-1.26
-1.24
-1.2
-1.12
-1.005
-0.845
-0.64
-0.39
-0.095
0.235
0.6
0.99
1.385
1.7
1.92
1.95
1.73
1.24
0.6
-0.04
-0.68
-1.32
-1.92
-1.815
-1.54
-1.245
-1.04
-0.94
-0.955
-1.025
-1.11
-1.19
-1.245
-1.255
-1.26
-1.255
-1.25
-1.225
-1.22
-1.215
-1.225
-1.22
-1.225
-1.225
-1.235
-1.24
-1.245
-1.25
-1.255
-1.225
-1.215
-1.2
-1.175
-1.155
-1.16
-1.17
-1.17
-1.18
-1.185
-1.175
-1.17
-1.16
-1.14
-1.12
-1.115
-1.11
-1.095
-1.1
-1.09
-1.115
-1.095
-1.085
-1.085
-1.05
-1.03
-1.03
-1.01
-0.995
-0.98
-0.97
-0.965
-0.95
-0.94
-0.91
-0.91
-0.865
-0.85
-0.835
-0.805
-0.805
-0.79
-0.8
-0.795
-0.79
-0.8
-0.79
-0.785
-0.78
-0.77
-0.765
-0.755
-0.765
-0.765
-0.765
-0.78
-0.775
-0.805
-0.81
-0.83
-0.825
-0.85
-0.86
-0.855
-0.865
-0.885
-0.91
-0.92
-0.95
-0.975
-0.985
-1.005
-1.015
-1.02
-1.015
-1.03
-1.04
-1.05
-1.075
-1.085
-1.09
-1.11
-1.11
-1.09
-1.1
-1.085
-1.07
-1.07
-1.06
-1.06
-1.065
-1.08
-1.09
-1.1
-1.11
-1.1
-1.1
-1.085
-1.075
-1.065
-1.06
-1.065
-1.075
-1.075
-1.095
-1.1
-1.1
-1.095
-1.09
-1.11
-1.105
-1.095
-1.095
-1.095
-1.115
-1.125
-1.12
-1.13
-1.125
-1.14
-1.155
-1.135
-1.135
-1.13
-1.14
-1.16
-1.16
-1.16
-1.165
-1.175
-1.17
-1.18
-1.165
-1.16
-1.155
-1.145
-1.165
-1.16
-1.18
-1.18
-1.185
-1.185
-1.2
-1.185
-1.185
-1.17
-1.15
-1.145
-1.165
-1.16
-1.145
-1.16
-1.175
-1.175
-1.19
-1.19
-1.175
-1.16
-1.16
-1.15
-1.165
-1.15
-1.15
-1.17
-1.185
-1.17
-1.155
-1.16
-1.125
-1.115
-1.1
-1.06
-1.055
-1.04
-1.055
-1.05
-1.075
-1.07
-1.075
-1.07
-1.045
-1.015
-0.99
-0.95
-0.925
-0.925
-0.94
-0.975
-1.025
-1.045
-1.055
-1.055
-1.05
-1.055
-1.035
-1.03
-1.025
-1.045
-1.09
-1.13
-1.165
-1.21
-1.23
-1.255
-1.255
-1.255
-1.235
-1.225
-1.215
-1.205
-1.215
-1.22
-1.23
-1.215
-1.215
-1.22
-1.205
-1.215
-1.215
-1.22
-1.22
-1.22
-1.19
-1.145
-1.055
-0.88
-0.635
-0.32
0.035
0.425
0.85
1.275
1.66
1.96
2.13
2.185
2.045
1.715
1.135
0.495
-0.145
-0.785
-1.425
-1.795
-1.65
-1.385
-1.11
-0.96
-0.92
-0.975
-1.06
-1.16
-1.22
-1.24
-1.235
-1.225
-1.215
-1.19
-1.195
-1.2
-1.205
-1.225
-1.235
-1.215
-1.21
-1.2
-1.185
-1.185
-1.17
-1.165
-1.16
-1.17
-1.175
-1.17
-1.185
-1.175
-1.16
-1.155
-1.125
-1.11
-1.125
-1.12
-1.125
-1.125
-1.13
-1.12
-1.11
-1.105
-1.08
-1.09
-1.075
-1.05
-1.035
-1.02
-1.005
-1.005
-1.005
-1.005
-0.99
-0.965
-0.95
-0.925
-0.91
-0.88
-0.87
-0.875
-0.87
-0.865
-0.86
-0.835
-0.835
-0.815
-0.8
-0.775
-0.765
-0.76
-0.76
-0.755
-0.775
-0.775
-0.795
-0.805
-0.81
-0.815
-0.81
-0.805
-0.815
-0.81
-0.825
-0.84
-0.87
-0.915
-0.945
-0.96
-0.995
-1.025
-1.035
-1.06
-1.08
-1.075
-1.1
-1.105
-1.11
-1.135
-1.14
-1.155
-1.17
-1.175
-1.165
-1.15
-1.145
-1.14
-1.145
-1.15
-1.165
-1.17
-1.18
-1.19
-1.19
-1.18
-1.175
-1.165
-1.165
-1.135
-1.145
-1.15
-1.15
-1.165
-1.175
-1.195
-1.2
-1.21
-1.195
-1.19
-1.19
-1.195
-1.195
-1.2
-1.205
-1.215
-1.235
-1.25
-1.26
-1.275
-1.26
-1.245
-1.235
-1.22
-1.22
-1.23
-1.235
-1.245
-1.265
-1.265
-1.275
-1.28
-1.27
-1.265
-1.26
-1.25
-1.26
-1.26
-1.265
-1.27
-1.275
-1.285
-1.3
-1.295
-1.28
-1.28
-1.28
-1.27
-1.265
-1.26
-1.28
-1.285
-1.31
-1.305
-1.31
-1.305
-1.295
-1.295
-1.275
-1.26
-1.28
-1.265
-1.275
-1.28
-1.29
-1.295
-1.3
-1.3
-1.285
-1.255
-1.25
-1.22
-1.195
-1.195
-1.17
-1.17
-1.175
-1.185
-1.185
-1.18
-1.18
-1.165
-1.14
-1.11
-1.09
-1.07
-1.065
-1.065
-1.085
-1.095
-1.105
-1.12
-1.13
-1.14
-1.145
-1.14
-1.145
-1.155
-1.17
-1.195
-1.22
-1.255
-1.285
-1.305
-1.33
-1.33
-1.33
-1.32
-1.3
-1.305
-1.3
-1.315
-1.34
-1.33
-1.345
-1.35
-1.315
-1.31
-1.3
-1.28
-1.28
-1.27
-1.235
-1.15
-1.035
-0.84
-0.565
-0.24
0.11
0.49
0.875
1.23
1.56
1.82
1.955
1.92
1.68
1.14
0.5
-0.14
-0.78
-1.42
-1.86
-1.715
-1.45
-1.22
-1.07
-1.045
-1.08
-1.16
-1.255
-1.305
-1.33
-1.325
-1.3
-1.28
-1.275
-1.27
-1.29
-1.295
-1.3
-1.29
-1.285
-1.275
-1.26
-1.255
-1.24
-1.23
-1.24
-1.23
-1.23
-1.245
-1.245
-1.23
-1.23
-1.24
-1.21
-1.22
-1.195
-1.165
-1.15
-1.155
-1.15
-1.16
-1.16
-1.16
-1.15
-1.14
-1.115
-1.09
-1.065
-1.045
-1.025
-1.015
-1.02
-1.025
-1.01
-1.015
-0.985
-0.98
-0.945
-0.925
-0.915
-0.885
-0.885
-0.885
-0.865
-0.885
-0.885
-0.87
-0.86
-0.85
-0.82
-0.835
-0.84
-0.825
-0.825
-0.82
-0.83
-0.85
-0.86
-0.875
-0.9
-0.885
-0.89
-0.89
-0.895
-0.92
-0.94
-0.955
-1.0
-1.015
-1.055
-1.07
-1.085
-1.11
-1.1
-1.115
-1.12
-1.12
-1.125
-1.125
-1.145
-1.16
-1.185
-1.19
-1.205
-1.21
-1.215
-1.185
-1.195
-1.165
-1.17
-1.175
-1.185
-1.2
-1.21
-1.19
-1.195
-1.185
-1.175
-1.17
-1.155
-1.16
-1.16
-1.17
-1.185
-1.185
-1.195
-1.205
-1.215
-1.205
-1.205
-1.19
-1.17
-1.165
-1.17
-1.185
-1.18
-1.2
-1.195
-1.21
-1.215
-1.21
-1.21
-1.205
-1.2
-1.205
-1.21
-1.21
-1.215
-1.225
-1.23
-1.23
-1.23
-1.24
-1.245
-1.235
-1.23
-1.22
-1.225
-1.235
-1.245
-1.245
-1.245
-1.24
-1.245
-1.245
-1.245
-1.245
-1.235
-1.22
-1.24
-1.23
-1.225
-1.235
-1.255
-1.255
-1.27
-1.265
-1.255
-1.245
-1.235
-1.225
-1.235
-1.23
-1.23
-1.235
-1.24
-1.255
-1.24
-1.24
-1.235
-1.22
-1.2
-1.175
-1.175
-1.15
-1.135
-1.13
-1.12
-1.13
-1.125
-1.12
-1.11
-1.1
-1.08
-1.08
-1.06
-1.045
-1.04
-1.03
-1.01
-0.995
-1.01
-1.02
-1.03
-1.025
-1.04
-1.03
-1.025
-1.03
-1.04
-1.06
-1.065
-1.095
-1.105
-1.13
-1.145
-1.14
-1.14
-1.14
-1.165
-1.18
-1.195
-1.215
-1.24
-1.245
-1.225
-1.235
-1.205
-1.205
-1.2
-1.19
-1.2
-1.195
-1.195
-1.22
-1.23
-1.23
-1.245
-1.24
-1.22
-1.175
-1.14
-1.08
-0.98
-0.84
-0.65
-0.425
-0.145
0.21
0.58
0.98
1.36
1.655
1.83
1.795
1.51
0.925
0.285
-0.355
-0.995
-1.635
-1.88
-1.72
-1.465
-1.195
-1.015
-0.93
-0.94
-1.005
-1.08
-1.13
-1.17
-1.195
-1.19
-1.195
-1.165
-1.155
-1.15
-1.14
-1.155
-1.14
-1.12
-1.125
-1.13
-1.12
-1.13
-1.14
-1.135
-1.115
-1.125
-1.1
-1.095
-1.105
-1.095
-1.09
-1.09
-1.09
-1.09
-1.08
-1.08
-1.055
-1.06
-1.02
-1.01
-1.015
-1.025
-1.005
-1.01
-1.02
-1.015
-0.995
