Lead II
-0.925
-0.925
-0.905
-0.9
-0.89
-0.89
-0.88
-0.895
-0.905
-0.905
-0.925
-0.935
-0.91
-0.93
-0.92
-0.93
-0.92
-0.91
-0.895
-0.91
-0.925
-0.925
-0.93
-0.94
-0.94
-0.945
-0.915
-0.905
-0.89
-0.9
-0.9
-0.915
-0.92
-0.925
-0.935
-0.94
-0.94
-0.93
-0.925
-0.92
-0.915
-0.91
-0.91
-0.915
-0.92
-0.93
-0.96
-0.955
-0.96
-0.97
-0.955
-0.925
-0.93
-0.93
-0.925
-0.925
-0.95
-0.95
-0.945
-0.955
-0.955
-0.95
-0.945
-0.94
-0.925
-0.92
-0.915
-0.91
-0.925
-0.94
-0.945
-0.945
-0.945
-0.95
-0.935
-0.935
-0.915
-0.91
-0.925
-0.92
-0.95
-0.955
-0.96
-0.95
-0.955
-0.945
-0.945
-0.94
-0.93
-0.93
-0.935
-0.93
-0.93
-0.935
-0.935
-0.965
-0.955
-0.95
-0.935
-0.94
-0.915
-0.925
-0.935
-0.94
-0.95
-0.95
-0.945
-0.95
-0.96
-0.945
-0.945
-0.94
-0.915
-0.93
-0.925
-0.93
-0.93
-0.945
-0.965
-0.965
-0.955
-0.975
-0.97
-0.925
-0.93
-0.93
-0.925
-0.935
-0.94
-0.95
-0.95
-0.955
-0.955
-0.955
-0.95
-0.945
-0.925
-0.92
-0.92
-0.92
-0.945
-0.955
-0.965
-0.965
-0.97
-0.96
-0.945
-0.95
-0.95
-0.93
-0.935
-0.93
-0.94
-0.96
-0.97
-0.96
-0.97
-0.95
-0.94
-0.935
-0.93
-0.925
-0.925
-0.925
-0.94
-0.945
-0.95
-0.955
-0.955
-0.94
-0.93
-0.945
-0.94
-0.93
-0.935
-0.925
-0.935
-0.955
-0.94
-0.955
-0.95
-0.965
-0.95
-0.935
-0.91
-0.91
-0.915
-0.92
-0.93
-0.935
-0.935
-0.925
-0.915
-0.885
-0.87
-0.845
-0.805
-0.805
-0.775
-0.79
-0.79
-0.8
-0.8
-0.79
-0.79
-0.76
-0.745
-0.765
-0.76
-0.785
-0.785
-0.815
-0.83
-0.845
-0.855
-0.855
-0.855
-0.85
-0.86
-0.855
-0.885
-0.905
-0.935
-0.96
-0.96
-0.98
-1.005
-1.0
-1.025
-1.01
-1.005
-1.01
-1.0
-1.005
-1.0
-0.995
-0.99
-1.0
-1.015
-1.04
-1.035
-1.03
-1.01
-0.995
-0.99
-0.99
-0.995
-1.03
-1.015
-1.015
-1.035
-1.045
-1.02
-1.02
-1.005
-1.005
-0.995
-0.99
-0.985
-0.99
-1.0
-0.985
-0.985
-0.98
-0.975
-0.98
-0.945
-0.93
-0.895
-0.855
-0.795
-0.67
-0.51
-0.285
-0.05
0.215
0.465
0.745
0.955
1.02
0.895
0.575
0.115
-0.4
-0.935
-1.37
-1.65
-1.755
-1.71
-1.585
-1.43
-1.295
-1.235
-1.18
-1.15
-1.15
-1.115
-1.08
-1.055
-1.025
-1.01
-1.0
-0.98
-0.98
-0.975
-0.975
-0.98
-0.975
-0.98
-0.99
-0.995
-1.005
-0.99
-0.99
-0.97
-0.965
-0.96
-0.975
-0.985
-1.0
-0.985
-1.005
-0.99
-0.995
-1.005
-1.0
-0.98
-0.99
-0.985
-0.98
-0.97
-0.97
-0.995
-0.99
-0.995
-1.005
-0.995
-1.0
-0.995
-0.97
-0.955
-0.955
-0.945
-0.955
-0.98
-0.975
-0.97
-0.985
-0.98
-0.97
-0.955
-0.945
-0.94
-0.94
-0.935
-0.94
-0.95
-0.945
-0.955
-0.95
-0.95
-0.95
-0.92
-0.91
-0.905
-0.895
-0.885
-0.865
-0.875
-0.87
-0.88
-0.875
-0.87
-0.85
-0.84
-0.82
-0.8
-0.78
-0.775
-0.77
-0.775
-0.765
-0.77
-0.755
-0.755
-0.735
-0.71
-0.685
-0.665
-0.66
-0.65
-0.655
-0.65
-0.655
-0.64
-0.64
-0.64
-0.655
-0.645
-0.625
-0.625
-0.625
-0.61
-0.645
-0.645
-0.66
-0.69
-0.71
-0.725
-0.74
-0.74
-0.74
-0.76
-0.775
-0.81
-0.81
-0.84
-0.855
-0.855
-0.875
-0.9
-0.91
-0.905
-0.91
-0.885
-0.895
-0.9
-0.905
-0.92
-0.93
-0.94
-0.94
-0.94
-0.94
-0.95
-0.945
-0.925
-0.9
-0.91
-0.935
-0.935
-0.935
-0.94
-0.945
-0.945
-0.94
-0.945
-0.925
-0.925
-0.9
-0.915
-0.91
-0.925
-0.925
-0.925
-0.93
-0.93
-0.92
-0.91
-0.9
-0.895
-0.89
-0.9
-0.9
-0.905
-0.93
-0.92
-0.91
-0.92
-0.91
-0.9
-0.895
-0.89
-0.88
-0.895
-0.885
-0.895
-0.915
-0.925
-0.91
-0.92
-0.92
-0.92
-0.92
-0.915
-0.905
-0.9
-0.91
-0.92
-0.925
-0.92
-0.935
-0.935
-0.93
-0.92
-0.93
-0.925
-0.92
-0.93
-0.945
-0.94
-0.95
-0.965
-0.95
-0.955
-0.955
-0.95
-0.925
-0.925
-0.925
-0.935
-0.94
-0.945
-0.95
-0.955
-0.965
-0.965
-0.96
-0.95
-0.94
-0.935
-0.93
-0.925
-0.935
-0.945
-0.945
-0.945
-0.955
-0.985
-0.975
-0.95
-0.945
-0.945
-0.935
-0.94
-0.94
-0.945
-0.96
-0.965
-0.97
-0.96
-0.95
-0.95
-0.94
-0.93
-0.925
-0.925
-0.93
-0.955
-0.96
-0.955
-0.955
-0.955
-0.965
-0.94
-0.935
-0.925
-0.92
-0.925
-0.92
-0.93
-0.945
-0.95
-0.95
-0.97
-0.95
-0.94
-0.955
-0.94
-0.935
-0.92
-0.935
-0.94
-0.94
-0.945
-0.945
-0.945
-0.94
-0.925
-0.925
-0.925
-0.915
-0.91
-0.9
-0.935
-0.94
-0.95
-0.935
-0.95
-0.945
-0.93
-0.92
-0.915
-0.91
-0.9
-0.905
-0.92
-0.935
-0.935
-0.95
-0.95
-0.94
-0.93
-0.92
-0.925
-0.915
-0.92
-0.925
-0.925
-0.925
-0.935
-0.93
-0.925
-0.935
-0.925
-0.91
-0.91
-0.895
-0.91
-0.89
-0.885
-0.905
-0.92
-0.92
-0.91
-0.905
-0.895
-0.905
-0.89
-0.885
-0.88
-0.895
-0.9
-0.91
-0.92
-0.92
-0.925
-0.925
-0.93
-0.92
-0.91
-0.89
-0.895
-0.91
-0.905
-0.895
-0.9
-0.905
-0.88
-0.87
-0.835
-0.81
-0.785
-0.765
-0.77
-0.77
-0.77
-0.775
-0.77
-0.76
-0.74
-0.725
-0.71
-0.7
-0.7
-0.715
-0.725
-0.755
-0.775
-0.79
-0.805
-0.805
-0.805
-0.8
-0.795
-0.795
-0.805
-0.83
-0.845
-0.87
-0.885
-0.91
-0.92
-0.93
-0.925
-0.935
-0.945
-0.94
-0.935
-0.94
-0.915
-0.925
-0.935
-0.94
-0.955
-0.96
-0.97
-0.97
-0.965
-0.94
-0.935
-0.915
-0.92
-0.94
-0.93
-0.95
-0.945
-0.95
-0.94
-0.93
-0.92
-0.9
-0.905
-0.89
-0.885
-0.88
-0.89
-0.88
-0.885
-0.88
-0.875
-0.865
-0.85
-0.81
-0.77
-0.695
-0.57
-0.385
-0.19
0.005
0.215
0.44
0.69
0.94
1.08
1.115
0.96
0.63
0.14
-0.41
-0.94
-1.37
-1.635
-1.71
-1.625
-1.46
-1.275
-1.125
-1.05
-0.995
-0.975
-0.965
-0.945
-0.93
-0.9
-0.885
-0.875
-0.875
-0.865
-0.865
-0.88
-0.86
-0.86
-0.855
-0.865
-0.875
-0.88
-0.885
-0.86
-0.87
-0.88
-0.86
-0.86
-0.83
-0.845
-0.84
-0.855
-0.86
-0.87
-0.87
-0.855
-0.865
-0.855
-0.845
-0.84
-0.825
-0.83
-0.83
-0.84
-0.85
-0.87
-0.87
-0.88
-0.87
-0.85
-0.835
-0.83
-0.81
-0.82
-0.835
-0.825
-0.84
-0.855
-0.865
-0.845
-0.84
-0.835
-0.805
-0.8
-0.785
-0.785
-0.775
-0.77
-0.77
-0.78
-0.77
-0.76
-0.75
-0.755
-0.745
-0.715
-0.705
-0.69
-0.675
-0.67
-0.685
-0.685
-0.67
-0.67
-0.665
-0.64
-0.63
-0.615
-0.6
-0.58
-0.575
-0.585
-0.585
-0.57
-0.56
-0.55
-0.55
-0.535
-0.49
-0.485
-0.465
-0.45
-0.445
-0.455
-0.465
-0.47
-0.48
-0.475
-0.485
-0.505
-0.49
-0.495
-0.505
-0.535
-0.54
-0.565
-0.59
-0.61
-0.635
-0.66
-0.665
-0.675
-0.685
-0.695
-0.695
-0.71
-0.715
-0.73
-0.755
-0.785
-0.805
-0.81
-0.795
-0.79
-0.785
-0.775
-0.77
-0.775
-0.795
-0.795
-0.795
-0.8
-0.8
-0.8
-0.815
-0.795
-0.785
-0.77
-0.765
-0.765
-0.775
-0.775
-0.79
-0.8
-0.81
-0.81
-0.8
-0.795
-0.79
-0.79
-0.79
-0.78
-0.78
-0.765
-0.775
-0.78
-0.79
-0.79
-0.795
-0.79
-0.775
-0.765
-0.765
-0.76
-0.77
-0.775
-0.775
-0.775
-0.78
-0.795
-0.79
-0.78
-0.77
-0.77
-0.77
-0.775
-0.78
-0.775
-0.785
-0.81
-0.82
-0.81
-0.805
-0.815
-0.8
-0.785
-0.79
-0.8
-0.805
-0.805
-0.82
-0.83
-0.835
-0.845
-0.84
-0.835
-0.83
-0.82
-0.81
-0.815
-0.82
-0.835
-0.84
-0.84
-0.85
-0.855
-0.85
-0.875
-0.86
-0.835
-0.84
-0.835
-0.835
-0.86
-0.86
-0.875
-0.88
-0.87
-0.87
-0.87
-0.86
-0.86
-0.87
-0.865
-0.855
-0.87
-0.88
-0.885
-0.88
-0.89
-0.88
-0.88
-0.865
-0.85
-0.84
-0.83
-0.83
-0.85
-0.87
-0.87
-0.88
-0.88
-0.885
-0.87
-0.855
-0.86
-0.84
-0.845
-0.85
-0.865
-0.88
-0.87
-0.885
-0.875
-0.88
-0.88
-0.87
-0.855
-0.845
-0.845
-0.85
-0.85
-0.875
-0.88
-0.885
-0.89
-0.88
-0.88
-0.86
-0.85
-0.85
-0.855
-0.86
-0.86
-0.875
-0.875
-0.88
-0.875
-0.875
-0.865
-0.86
-0.85
-0.85
-0.84
-0.845
-0.865
-0.865
-0.89
-0.88
-0.895
-0.885
-0.88
-0.865
-0.875
-0.865
-0.855
-0.87
-0.88
-0.89
-0.905
-0.88
-0.885
-0.885
-0.895
-0.885
-0.86
-0.845
-0.86
-0.84
-0.86
-0.875
-0.88
-0.89
-0.895
-0.89
-0.87
-0.86
-0.865
-0.85
-0.85
-0.85
-0.87
-0.865
-0.88
-0.89
-0.87
-0.88
-0.885
-0.865
-0.855
-0.865
-0.855
-0.86
-0.85
-0.87
-0.87
-0.89
-0.895
-0.87
-0.885
-0.85
-0.84
-0.85
-0.85
-0.84
-0.84
-0.845
-0.855
-0.86
-0.865
-0.87
-0.86
-0.865
-0.845
-0.845
-0.84
-0.845
-0.84
-0.855
-0.88
-0.88
-0.87
-0.87
-0.87
-0.855
-0.855
-0.835
-0.84
-0.825
-0.835
-0.825
-0.815
-0.815
-0.79
-0.775
-0.765
-0.75
-0.735
-0.725
-0.72
-0.725
-0.71
-0.705
-0.68
-0.665
-0.66
-0.66
-0.65
-0.655
-0.665
-0.675
-0.685
-0.695
-0.715
-0.71
-0.73
-0.73
-0.77
-0.765
-0.795
-0.795
-0.815
-0.84
-0.865
-0.875
-0.885
-0.905
-0.925
-0.945
-0.94
-0.93
-0.935
-0.91
-0.915
-0.915
-0.91
-0.915
-0.925
-0.93
-0.94
-0.935
-0.94
-0.95
-0.94
-0.925
-0.92
-0.905
-0.92
-0.925
-0.91
-0.935
-0.945
-0.955
-0.955
-0.94
-0.935
-0.92
-0.905
-0.9
-0.9
-0.875
-0.9
-0.89
-0.9
-0.9
-0.89
-0.88
-0.85
-0.825
-0.81
-0.75
-0.675
-0.53
-0.345
-0.14
0.075
0.32
0.56
0.795
1.0
1.09
1.005
0.745
0.34
-0.17
-0.725
-1.175
-1.51
-1.65
-1.625
-1.495
-1.31
-1.16
-1.055
-1.01
-0.985
-0.975
-0.97
-0.95
-0.93
-0.915
-0.905
-0.895
-0.9
-0.89
-0.895
-0.885
-0.87
-0.88
-0.88
-0.885
-0.885
-0.895
-0.915
-0.91
-0.905
-0.88
-0.87
-0.86
-0.86
-0.855
-0.865
-0.875
-0.89
-0.9
-0.9
-0.895
-0.895
-0.88
-0.87
-0.855
-0.86
-0.855
-0.86
-0.865
-0.875
-0.88
-0.885
-0.86
-0.865
-0.85
-0.845
-0.835
-0.83
-0.83
-0.835
-0.84
-0.855
-0.855
-0.86
-0.86
-0.855
-0.84
-0.82
-0.82
-0.815
-0.805
-0.8
-0.81
-0.81
-0.81
-0.805
-0.805
-0.785
-0.785
-0.76
-0.745
-0.745
-0.735
-0.74
-0.74
-0.73
-0.735
-0.73
-0.71
-0.7
-0.69
-0.665
-0.655
-0.63
-0.61
-0.635
-0.635
-0.615
-0.62
-0.605
-0.59
-0.575
-0.56
-0.525
-0.525
-0.505
-0.5
-0.485
-0.5
-0.505
-0.51
-0.485
-0.48
-0.48
-0.455
-0.45
-0.455
-0.46
-0.465
-0.48
-0.525
-0.52
-0.545
-0.56
-0.575
-0.595
-0.595
-0.615
-0.595
-0.62
-0.625
-0.65
-0.685
-0.705
-0.735
-0.74
-0.745
-0.76
-0.76
-0.755
-0.765
-0.745
-0.76
-0.76
-0.785
-0.79
-0.815
-0.815
-0.805
-0.815
-0.81
-0.79
-0.78
-0.785
-0.785
-0.795
-0.795
-0.81
-0.81
-0.83
-0.83
-0.81
-0.8
-0.8
-0.78
-0.795
-0.8
-0.79
-0.795
-0.8
-0.795
-0.8
-0.825
-0.8
-0.79
-0.795
-0.775
-0.76
-0.76
-0.77
-0.785
-0.79
-0.795
-0.795
-0.8
-0.795
-0.775
-0.775
-0.76
-0.75
-0.755
-0.765
-0.77
-0.78
-0.795
-0.785
-0.79
-0.785
-0.785
-0.79
-0.765
-0.78
-0.775
-0.785
-0.795
-0.805
-0.835
-0.82
-0.825
-0.82
-0.815
-0.825
-0.805
-0.81
-0.8
-0.815
-0.845
-0.86
-0.85
-0.855
-0.855
-0.86
-0.86
-0.845
-0.835
-0.83
-0.84
-0.835
-0.845
-0.865
-0.86
-0.865
-0.88
-0.87
-0.845
-0.85
-0.845
-0.845
-0.87
-0.875
-0.875
-0.89
-0.88
-0.895
-0.89
-0.885
-0.89
-0.895
-0.88
-0.875
-0.88
-0.88
-0.89
-0.895
-0.895
-0.915
-0.91
-0.9
-0.89
-0.88
-0.875
-0.88
-0.885
-0.895
-0.915
-0.92
-0.91
-0.915
-0.915
-0.905
-0.9
-0.9
-0.885
-0.885
-0.905
-0.9
-0.9
-0.91
-0.92
-0.93
-0.915
-0.915
-0.91
-0.895
-0.89
-0.9
-0.905
-0.915
-0.915
-0.925
-0.94
-0.935
-0.935
-0.92
-0.92
-0.9
-0.895
-0.895
-0.895
-0.905
-0.9
-0.925
-0.92
-0.93
-0.915
-0.93
-0.93
-0.925
-0.9
-0.905
-0.9
-0.895
-0.91
-0.92
-0.93
-0.935
-0.94
-0.93
-0.925
-0.925
-0.915
-0.915
-0.92
-0.915
-0.92
-0.95
-0.925
-0.93
-0.935
-0.945
-0.93
-0.91
-0.895
-0.905
-0.915
-0.91
-0.91
-0.925
-0.94
-0.925
-0.935
-0.925
-0.925
-0.91
-0.895
-0.895
-0.9
-0.915
-0.935
-0.93
-0.935
-0.965
-0.97
-0.96
-0.95
-0.935
-0.92
-0.91
-0.91
-0.91
-0.94
-0.935
-0.94
-0.94
-0.935
-0.92
-0.91
-0.91
-0.895
-0.89
-0.87
-0.865
-0.85
-0.86
-0.865
-0.84
-0.83
-0.83
-0.82
-0.825
-0.795
-0.775
-0.75
-0.73
-0.735
-0.725
-0.73
-0.745
-0.77
-0.76
-0.76
-0.765
-0.755
-0.755
-0.77
-0.775
-0.805
-0.82
-0.84
-0.88
-0.915
-0.945
-0.95
-0.97
-0.965
-0.935
-0.96
-0.975
-0.99
-0.995
-0.985
-1.0
-1.01
-1.0
-0.99
-0.99
-0.985
-0.975
-0.975
-1.01
-1.0
-1.02
-1.015
-1.005
-1.03
-1.02
-0.995
-0.99
-0.97
-0.97
-0.97
-0.98
-0.99
-0.985
-0.995
-0.99
-0.985
-0.98
-0.98
-0.95
-0.94
-0.925
-0.92
-0.935
-0.915
-0.915
-0.9
-0.875
-0.805
-0.66
-0.47
-0.245
0.005
0.24
0.515
0.76
0.955
1.0
0.86
0.555
0.1
-0.415
-0.92
-1.335
-1.595
-1.72
-1.685
-1.575
-1.435
-1.31
-1.235
-1.195
-1.165
-1.115
-1.085
-1.025
-0.99
-0.955
-0.945
-0.955
-0.965
-0.985
-1.005
-1.025
-1.025
-1.02
-1.01
-0.975
-0.965
-0.95
-0.95
-0.955
-0.965
-0.98
-0.985
-0.995
-0.995
-0.985
-0.965
-0.965
-0.95
-0.95
-0.95
-0.955
-0.965
-0.975
-0.99
-0.975
-0.985
-0.97
-0.955
-0.95
-0.94
-0.94
-0.945
-0.945
-0.955
-0.965
-0.965
-0.965
-0.975
-0.97
-0.955
-0.95
-0.94
-0.93
-0.92
-0.925
-0.935
-0.935
-0.94
-0.945
-0.93
-0.92
-0.9
-0.885
-0.88
-0.875
-0.875
-0.87
-0.875
-0.875
-0.865
-0.87
-0.87
-0.85
-0.845
-0.83
-0.8
-0.785
-0.77
-0.78
-0.78
-0.775
-0.76
-0.77
-0.765
-0.74
-0.73
-0.71
-0.69
-0.67
-0.67
-0.66
-0.65
-0.66
-0.64
-0.645
-0.65
-0.635
-0.625
-0.605
-0.61
-0.605
-0.605
-0.605
-0.62
-0.65
-0.66
-0.675
-0.695
-0.695
-0.71
-0.72
-0.735
-0.745
-0.76
-0.77
-0.795
-0.82
-0.84
-0.865
-0.885
-0.885
-0.87
-0.87
-0.87
-0.855
-0.865
-0.885
-0.91
-0.93
-0.93
-0.93
-0.93
-0.92
-0.915
-0.915
-0.895
-0.885
-0.89
-0.91
-0.9
-0.92
-0.94
-0.935
-0.93
-0.94
-0.935
-0.925
-0.905
-0.91
-0.905
-0.915
-0.925
-0.93
-0.93
-0.94
-0.935
-0.925
-0.905
-0.9
-0.885
-0.895
-0.885
-0.895
-0.89
-0.905
-0.895
-0.905
-0.91
-0.9
-0.895
-0.895
-0.875
-0.87
-0.87
-0.865
-0.87
-0.885
-0.91
-0.915
-0.905
-0.915
-0.895
-0.89
-0.895
-0.88
-0.88
-0.89
-0.9
-0.915
-0.925
-0.91
-0.925
-0.925
-0.92
-0.905
-0.915
-0.905
-0.91
-0.9
-0.91
-0.925
-0.935
-0.945
-0.95
-0.94
-0.94
-0.93
-0.92
-0.92
-0.925
-0.935
-0.945
-0.945
-0.955
-0.96
-0.97
-0.965
-0.96
-0.935
-0.945
-0.93
-0.935
-0.945
-0.955
-0.96
-0.97
-0.98
-0.99
-1.0
-0.955
-0.94
-0.925
-0.94
-0.93
-0.945
-0.95
-0.965
-0.97
-0.985
-0.99
-0.975
-0.975
-0.96
-0.955
-0.955
-0.965
-0.945
-0.97
-0.975
-0.98
-0.985
-0.975
-0.985
-0.975
-0.97
-0.98
-0.95
-0.965
-0.97
-0.975
-0.965
-0.985
-0.985
-0.985
-0.975
-0.96
-0.955
-0.95
-0.95
-0.945
-0.945
-0.95
-0.955
-0.975
-0.98
-0.985
-0.97
-0.975
-0.95
-0.95
-0.96
-0.95
-0.945
-0.955
-0.97
-0.99
-0.985
-0.985
-0.995
-0.975
-0.97
-0.945
-0.945
-0.94
-0.945
-0.95
-0.96
-0.97
-0.965
-0.96
-0.965
-0.94
-0.94
-0.935
-0.925
-0.925
-0.915
-0.935
-0.94
-0.96
-0.96
-0.95
-0.965
-0.945
-0.935
-0.935
-0.925
-0.925
-0.93
-0.935
-0.945
-0.96
-0.965
-0.97
-0.955
-0.955
-0.92
-0.93
-0.905
-0.905
-0.915
-0.91
-0.925
-0.925
-0.93
-0.915
-0.91
-0.89
-0.87
-0.85
-0.82
-0.8
-0.805
-0.79
-0.795
-0.81
-0.81
-0.805
-0.78
-0.765
-0.74
-0.74
-0.725
-0.735
-0.755
-0.785
-0.8
-0.825
-0.83
-0.83
-0.835
-0.845
-0.835
-0.825
-0.805
-0.825
-0.845
-0.87
-0.905
-0.93
-0.945
-0.95
-0.975
-0.965
-0.96
-0.975
-0.97
-0.965
-0.965
-0.975
-0.985
-0.995
-1.0
-1.02
-1.005
-1.0
-1.01
-0.98
-0.975
-0.98
-0.98
-0.995
-1.005
-1.015
-1.015
-1.025
-1.01
-0.98
-0.975
-0.965
-0.955
-0.955
-0.97
-0.965
-0.955
-0.955
-0.96
-0.965
-0.955
-0.935
-0.925
-0.905
-0.895
-0.88
-0.865
-0.85
-0.825
-0.76
-0.62
-0.44
-0.2
0.03
0.28
0.535
0.785
0.99
1.07
0.995
0.735
0.345
-0.165
-0.7
-1.185
-1.54
-1.695
-1.68
-1.545
-1.375
-1.21
-1.115
-1.08
-1.065
-1.06
-1.04
-1.0
-0.975
-0.935
-0.905
-0.89
-0.895
-0.89
-0.905
-0.94
-0.95
-0.955
-0.95
-0.935
-0.925
-0.92
-0.915
-0.905
-0.905
-0.92
-0.91
-0.93
-0.935
-0.935
-0.94
-0.935
-0.925
-0.905
-0.915
-0.9
-0.905
-0.905
-0.905
-0.915
-0.92
-0.925
-0.935
-0.93
-0.91
-0.905
-0.895
-0.9
-0.89
-0.895
-0.895
-0.91
-0.915
-0.94
-0.92
-0.905
-0.895
-0.89
-0.87
-0.86
-0.865
-0.865
-0.88
-0.87
-0.88
-0.88
-0.885
-0.88
-0.86
-0.855
-0.835
-0.82
-0.825
-0.8
-0.81
-0.82
-0.82
-0.82
-0.81
-0.815
-0.79
-0.775
-0.755
-0.735
-0.71
-0.715
-0.71
-0.71
-0.71
-0.705
-0.685
-0.675
-0.66
-0.64
-0.61
-0.6
-0.6
-0.6
-0.585
-0.575
-0.575
-0.575
-0.565
-0.55
-0.52
-0.51
-0.49
-0.465
-0.465
-0.47
-0.48
-0.485
-0.49
-0.505
-0.54
-0.545
-0.535
-0.54
-0.545
-0.56
-0.57
-0.59
-0.61
-0.645
-0.665
-0.685
-0.715
-0.725
-0.74
-0.74
-0.755
-0.75
-0.765
-0.775
-0.775
-0.805
-0.825
-0.835
-0.845
-0.845
-0.84
-0.83
-0.83
-0.82
-0.82
-0.82
-0.84
-0.855
-0.86
-0.885
-0.885
-0.875
-0.86
-0.845
-0.855
-0.835
-0.83
-0.83
-0.845
-0.855
-0.855
-0.86
-0.86
-0.865
-0.875
-0.85
-0.84
-0.825
-0.815
-0.83
-0.825
-0.83
-0.84
-0.85
-0.86
-0.875
-0.85
-0.825
-0.835
-0.81
-0.815
-0.81
-0.83
-0.84
-0.82
-0.835
-0.835
-0.83
-0.825
-0.805
-0.805
-0.8
-0.8
-0.8
-0.8
-0.81
-0.825
-0.83
-0.83
-0.835
-0.84
-0.82
-0.82
-0.805
-0.83
-0.83
-0.845
-0.85
-0.865
-0.865
-0.865
-0.87
-0.86
-0.86
-0.845
-0.855
-0.85
-0.85
-0.85
-0.865
-0.875
-0.88
-0.88
-0.895
-0.87
-0.865
-0.86
-0.84
-0.86
-0.865
-0.86
-0.885
-0.89
-0.895
-0.905
-0.905
-0.91
-0.9
-0.915
-0.89
-0.89
-0.89
-0.89
-0.905
-0.915
-0.92
-0.915
-0.91
-0.9
-0.9
-0.89
-0.905
-0.9
-0.885
-0.91
-0.9
-0.915
-0.925
-0.925
-0.93
-0.92
-0.9
-0.895
-0.89
-0.9
-0.905
-0.905
-0.915
-0.92
-0.925
-0.93
-0.935
-0.93
-0.93
-0.91
-0.905
-0.89
-0.895
-0.9
-0.905
-0.905
-0.92
-0.92
-0.94
-0.925
-0.915
-0.895
-0.895
-0.89
-0.905
-0.895
-0.915
-0.925
-0.93
-0.925
-0.93
-0.93
-0.915
-0.91
-0.9
-0.9
-0.895
-0.905
-0.925
-0.915
-0.93
-0.94
-0.935
-0.93
-0.915
-0.915
-0.91
-0.905
-0.905
-0.905
-0.905
-0.94
-0.94
-0.935
-0.92
-0.915
-0.91
-0.905
-0.89
-0.895
-0.9
-0.915
-0.9
-0.91
-0.92
-0.925
-0.92
-0.915
-0.915
-0.89
-0.895
-0.89
-0.895
-0.89
-0.91
-0.91
-0.925
-0.935
-0.94
-0.94
-0.9
-0.905
-0.9
-0.905
-0.89
-0.9
-0.905
-0.91
-0.915
-0.92
-0.915
-0.915
-0.91
-0.91
-0.895
-0.885
-0.9
-0.9
-0.925
-0.925
-0.915
-0.91
-0.91
-0.9
-0.89
-0.885
-0.87
-0.865
-0.855
-0.86
-0.87
-0.87
-0.86
-0.84
-0.815
-0.8
-0.795
-0.775
-0.765
-0.78
-0.75
-0.735
-0.73
-0.725
-0.73
-0.735
-0.75
-0.75
-0.755
-0.755
-0.755
-0.76
-0.775
-0.785
-0.795
-0.805
-0.805
-0.82
-0.835
-0.85
-0.855
-0.875
-0.89
-0.885
-0.91
-0.94
-0.95
-0.96
-0.965
-0.97
-0.975
-0.98
-0.96
-0.955
-0.945
-0.945
-0.935
-0.945
-0.95
-0.975
-0.985
-0.985
-0.98
-0.98
-0.98
-0.96
-0.95
-0.945
-0.935
-0.935
-0.955
-0.95
-0.955
-0.96
-0.965
-0.95
-0.94
-0.925
-0.905
-0.915
-0.91
-0.9
-0.895
-0.9
-0.87
-0.875
-0.835
-0.755
-0.63
-0.445
-0.225
0.01
0.255
0.5
0.745
0.96
1.045
0.97
0.74
0.345
-0.14
-0.66
-1.095
-1.445
-1.64
-1.655
-1.565
-1.415
-1.27
-1.165
-1.095
-1.08
-1.055
-1.045
-1.005
-0.97
-0.935
-0.93
-0.92
-0.93
-0.94
-0.95
-0.955
-0.94
-0.935
-0.91
-0.905
-0.89
-0.9
-0.9
-0.905
-0.92
-0.92
-0.925
-0.935
-0.91
-0.92
-0.925
-0.905
-0.915
-0.89
-0.91
-0.89
-0.91
-0.915
-0.915
-0.93
-0.915
-0.91
-0.905
-0.875
-0.9
-0.905
-0.895
-0.91
-0.925
-0.925
-0.925
-0.925
-0.91
-0.9
-0.9
-0.875
-0.87
-0.855
-0.86
-0.875
-0.88
-0.88
-0.88
-0.895
-0.895
-0.86
-0.845
-0.835
-0.83
-0.82
-0.82
-0.825
-0.84
-0.825
-0.825
-0.81
-0.815
-0.785
-0.78
-0.77
-0.755
-0.73
-0.725
-0.73
-0.72
-0.705
-0.71
-0.7
-0.67
-0.66
-0.64
-0.615
-0.605
-0.585
-0.59
-0.58
-0.595
-0.59
-0.575
-0.575
-0.555
-0.54
-0.52
-0.5
-0.5
-0.505
-0.495
-0.525
-0.52
-0.535
-0.56
-0.575
-0.6
-0.575
-0.6
-0.605
-0.62
-0.64
-0.65
-0.685
-0.72
-0.745
-0.765
-0.765
-0.775
-0.77
-0.775
-0.77
-0.795
-0.8
-0.82
-0.835
-0.835
-0.845
-0.86
-0.87
-0.86
-0.855
-0.85
-0.845
-0.845
-0.845
-0.855
-0.865
-0.88
-0.9
-0.88
-0.89
-0.88
-0.875
-0.89
-0.86
-0.85
-0.85
-0.845
-0.865
-0.885
-0.875
-0.87
-0.87
-0.87
-0.88
-0.85
-0.845
-0.835
-0.845
-0.85
-0.855
-0.87
-0.865
-0.865
-0.865
-0.875
-0.86
-0.845
-0.835
-0.835
-0.835
-0.85
-0.855
-0.875
-0.87
-0.88
-0.875
-0.875
-0.865
-0.845
-0.84
-0.835
-0.83
-0.84
-0.87
-0.86
-0.88
-0.885
-0.885
-0.875
-0.86
-0.875
-0.855
-0.86
-0.87
-0.865
-0.885
-0.9
-0.895
-0.915
-0.915
-0.9
-0.905
-0.89
-0.885
-0.89
-0.885
-0.9
-0.9
-0.92
-0.935
-0.945
-0.945
-0.935
-0.925
-0.93
-0.91
-0.915
-0.925
-0.91
-0.92
-0.93
-0.935
-0.965
-0.965
-0.96
-0.94
-0.93
-0.93
-0.9
-0.905
-0.91
-0.93
-0.935
-0.95
-0.955
-0.96
-0.965
-0.95
-0.935
-0.91
-0.925
-0.925
-0.94
-0.94
-0.955
-0.965
-0.975
-0.98
-0.985
-0.965
-0.95
-0.935
-0.94
-0.92
-0.94
-0.945
-0.94
-0.975
-0.97
-0.965
-0.955
-0.945
-0.935
-0.925
-0.93
-0.92
-0.93
-0.93
-0.945
-0.955
-0.96
-0.955
-0.95
-0.94
-0.925
-0.925
-0.925
-0.93
-0.93
-0.96
-0.955
-0.965
-0.975
-0.97
-0.985
-0.95
-0.95
-0.925
-0.93
-0.94
-0.95
-0.965
-0.96
-0.965
-0.97
-0.965
-0.975
-0.945
-0.95
-0.935
-0.935
-0.925
-0.945
-0.945
-0.955
-0.965
-0.975
-0.99
-0.975
-0.965
-0.955
-0.95
-0.94
-0.96
-0.965
-0.98
-0.985
-0.985
-0.985
-0.97
-0.97
-0.96
-0.945
-0.935
-0.93
-0.935
-0.925
-0.94
-0.945
-0.94
-0.95
-0.94
-0.94
-0.91
-0.88
-0.86
-0.835
-0.83
-0.835
-0.84
-0.84
-0.825
-0.825
-0.81
-0.78
-0.765
-0.765
-0.755
-0.765
-0.785
-0.81
-0.83
-0.835
-0.86
-0.835
-0.85
-0.84
-0.83
-0.84
-0.865
-0.895
-0.915
-0.95
-0.96
-0.98
-0.98
-1.0
-1.01
-1.01
-1.0
-1.0
-1.0
-0.985
-0.99
-1.005
-1.005
-1.04
-1.015
-1.035
-1.03
-1.025
-1.015
-1.015
-1.005
-1.0
-1.005
-0.995
-0.995
-0.99
-1.005
-1.005
-0.99
-1.01
-0.995
-0.985
-0.97
-0.98
-0.965
-0.97
-0.975
-0.98
-0.965
-0.975
-0.965
-0.955
-0.94
-0.93
-0.91
-0.9
-0.905
-0.875
-0.83
-0.73
-0.57
-0.36
-0.13
0.095
0.355
0.62
0.88
1.04
1.02
0.795
0.41
-0.1
-0.655
-1.18
-1.55
-1.735
-1.76
-1.645
-1.47
-1.34
-1.23
-1.165
-1.125
-1.095
-1.065
-1.035
-1.0
-0.985
-0.965
-0.965
-0.95
-0.96
-0.97
-0.97
-0.995
-1.0
-0.995
-0.99
-0.98
-0.985
-0.97
-0.965
-0.97
-0.95
-0.945
-0.955
-0.955
-0.96
-0.955
-0.97
-0.98
-0.97
-0.97
-0.96
-0.95
-0.935
-0.93
-0.94
-0.94
-0.96
-0.97
-0.965
-0.97
-0.965
-0.95
-0.945
-0.94
-0.935
-0.94
-0.945
-0.955
-0.955
-0.955
-0.96
-0.965
-0.97
-0.955
-0.94
-0.945
-0.915
-0.92
-0.9
-0.92
-0.915
-0.915
-0.92
-0.92
-0.9
-0.895
-0.89
-0.885
-0.87
-0.87
-0.855
-0.875
-0.86
-0.85
-0.845
-0.83
-0.825
-0.805
-0.8
-0.78
-0.765
-0.76
-0.755
-0.75
-0.77
-0.76
-0.76
-0.75
-0.72
-0.715
-0.695
-0.67
-0.66
-0.645
-0.64
-0.65
-0.63
-0.635
-0.63
-0.625
-0.625
-0.61
-0.6
-0.595
-0.585
-0.6
-0.61
-0.625
-0.67
-0.68
-0.68
-0.695
-0.705
-0.71
-0.725
-0.73
-0.73
-0.76
-0.765
-0.795
-0.8
-0.83
-0.85
-0.86
-0.87
-0.87
-0.87
-0.86
-0.865
-0.87
-0.87
-0.885
-0.9
-0.91
-0.93
-0.925
-0.915
-0.9
-0.9
-0.905
-0.89
-0.895
-0.905
-0.915
-0.91
-0.92
-0.925
-0.925
-0.93
-0.935
-0.915
-0.9
-0.9
-0.895
-0.9
-0.915
-0.91
-0.94
-0.925
-0.93
-0.92
-0.92
-0.915
-0.89
-0.875
-0.885
-0.88
-0.885
-0.885
-0.9
-0.895
-0.905
-0.885
-0.885
-0.88
-0.855
-0.845
-0.855
-0.87
-0.855
-0.87
-0.885
-0.885
-0.885
-0.885
-0.875
-0.86
-0.86
-0.86
-0.855
-0.875
-0.88
-0.895
-0.885
-0.905
-0.905
-0.91
-0.9
-0.895
-0.885
-0.88
-0.875
-0.89
-0.875
-0.915
-0.925
-0.935
-0.935
-0.945
-0.925
-0.91
-0.92
-0.9
-0.895
-0.9
-0.905
-0.92
-0.92
-0.925
-0.93
-0.925
-0.935
-0.93
-0.925
-0.91
-0.925
-0.915
-0.93
-0.945
-0.945
-0.955
-0.95
-0.94
-0.925
-0.925
-0.915
-0.925
-0.9
-0.93
-0.92
-0.93
-0.935
-0.935
-0.94
-0.94
-0.935
-0.93
-0.925
-0.915
-0.92
-0.91
-0.915
-0.93
-0.94
-0.945
-0.95
-0.95
-0.94
-0.925
-0.935
-0.915
-0.91
-0.925
-0.94
-0.945
-0.94
-0.955
-0.945
-0.95
-0.93
-0.93
-0.915
-0.915
-0.91
-0.92
-0.92
-0.935
-0.945
-0.97
-0.97
-0.95
-0.95
-0.93
-0.92
-0.905
-0.905
-0.925
-0.92
-0.92
-0.935
-0.935
-0.935
-0.945
-0.93
-0.93
-0.92
-0.91
-0.93
-0.915
-0.925
-0.93
-0.94
-0.94
-0.945
-0.935
-0.93
-0.92
-0.905
-0.9
-0.9
-0.905
-0.915
-0.925
-0.925
-0.96
-0.93
-0.93
-0.92
-0.895
-0.885
-0.86
-0.865
-0.855
-0.835
-0.83
-0.835
-0.825
-0.83
-0.815
-0.805
-0.8
-0.785
-0.77
-0.74
-0.745
-0.755
-0.77
-0.79
-0.805
-0.815
-0.835
-0.825
-0.815
-0.805
-0.795
-0.795
-0.82
-0.835
-0.865
-0.885
-0.92
-0.95
-0.96
-0.965
-0.95
-0.955
-0.94
-0.955
-0.965
-0.965
-0.975
-0.995
-1.0
-1.005
-1.01
-0.985
-0.975
-0.975
-0.985
-0.98
-0.985
-0.98
-1.005
-1.0
-0.995
-0.995
-0.98
-0.98
-0.97
-0.94
-0.95
-0.955
-0.96
-0.95
-0.955
-0.955
-0.95
-0.95
-0.95
-0.94
-0.905
-0.905
-0.88
-0.87
-0.845
-0.825
-0.795
-0.71
-0.565
-0.36
-0.12
0.12
0.365
0.635
0.89
1.035
1.035
0.805
0.47
-0.03
-0.59
-1.115
-1.505
-1.695
-1.71
-1.57
-1.38
-1.2
-1.085
-1.04
-1.045
-1.04
-1.035
-1.02
-0.985
-0.95
-0.925
-0.91
-0.925
-0.91
-0.93
-0.935
-0.945
-0.955
-0.96
-0.945
-0.94
-0.94
-0.93
-0.94
-0.905
-0.91
-0.91
-0.91
-0.925
-0.93
-0.93
-0.955
-0.94
-0.93
-0.925
-0.91
-0.905
-0.905
-0.91
-0.915
-0.93
-0.93
-0.93
-0.925
-0.935
-0.925
-0.91
-0.915
-0.895
-0.91
-0.895
-0.91
-0.92
-0.925
-0.94
-0.92
-0.915
-0.905
-0.905
-0.875
-0.86
-0.86
-0.88
-0.885
-0.88
-0.885
-0.865
-0.875
-0.85
-0.835
-0.825
-0.815
-0.795
-0.78
-0.775
-0.77
-0.77
-0.77
-0.77
-0.765
-0.755
-0.73
-0.71
-0.695
-0.67
-0.675
-0.655
-0.645
-0.655
-0.655
-0.635
-0.63
-0.61
-0.59
-0.575
-0.555
-0.54
-0.535
-0.53
-0.515
-0.51
-0.525
-0.52
-0.525
-0.525
-0.52
-0.53
-0.535
-0.525
-0.525
-0.535
-0.57
-0.595
-0.625
-0.655
-0.66
-0.705
-0.715
-0.72
-0.71
-0.72
-0.76
-0.76
-0.785
-0.81
-0.825
-0.835
-0.845
-0.855
-0.855
-0.855
-0.845
-0.845
-0.86
-0.855
-0.865
-0.87
