Lead II
-0.405
-0.405
-0.4
-0.405
-0.39
-0.38
-0.36
-0.355
-0.355
-0.36
-0.37
-0.375
-0.385
-0.4
-0.405
-0.4
-0.4
-0.4
-0.385
-0.4
-0.4
-0.405
-0.415
-0.435
-0.44
-0.46
-0.465
-0.465
-0.465
-0.46
-0.445
-0.45
-0.45
-0.45
-0.455
-0.46
-0.465
-0.465
-0.465
-0.45
-0.455
-0.445
-0.43
-0.45
-0.455
-0.475
-0.495
-0.505
-0.495
-0.445
-0.365
-0.24
-0.085
0.1
0.295
0.495
0.65
0.685
0.6
0.39
0.095
-0.195
-0.415
-0.53
-0.56
-0.505
-0.44
-0.38
-0.365
-0.355
-0.355
-0.37
-0.385
-0.39
-0.405
-0.41
-0.41
-0.405
-0.4
-0.4
-0.4
-0.405
-0.425
-0.425
-0.425
-0.435
-0.43
-0.42
-0.43
-0.405
-0.39
-0.395
-0.405
-0.405
-0.405
-0.425
-0.415
-0.415
-0.405
-0.405
-0.395
-0.395
-0.39
-0.39
-0.39
-0.395
-0.395
-0.395
-0.4
-0.405
-0.405
-0.39
-0.385
-0.38
-0.375
-0.365
-0.36
-0.37
-0.375
-0.385
-0.37
-0.375
-0.39
-0.38
-0.37
-0.375
-0.355
-0.355
-0.36
-0.355
-0.365
-0.37
-0.37
-0.37
-0.37
-0.355
-0.35
-0.35
-0.345
-0.34
-0.345
-0.33
-0.35
-0.36
-0.355
-0.36
-0.36
-0.35
-0.34
-0.34
-0.325
-0.32
-0.315
-0.325
-0.315
-0.325
-0.325
-0.315
-0.3
-0.295
-0.295
-0.28
-0.275
-0.26
-0.26
-0.27
-0.275
-0.285
-0.285
-0.295
-0.3
-0.295
-0.3
-0.3
-0.305
-0.305
-0.315
-0.315
-0.335
-0.345
-0.355
-0.365
-0.36
-0.37
-0.365
-0.355
-0.36
-0.365
-0.365
-0.375
-0.38
-0.385
-0.385
-0.395
-0.4
-0.395
-0.395
-0.38
-0.375
-0.365
-0.37
-0.375
-0.38
-0.39
-0.395
-0.4
-0.395
-0.395
-0.395
-0.38
-0.39
-0.38
-0.38
-0.385
-0.395
-0.4
-0.405
-0.4
-0.4
-0.4
-0.395
-0.395
-0.39
-0.395
-0.395
-0.39
-0.4
-0.405
-0.42
-0.415
-0.415
-0.415
-0.405
-0.41
-0.415
-0.405
-0.405
-0.415
-0.41
-0.41
-0.405
-0.42
-0.42
-0.415
-0.415
-0.4
-0.405
-0.395
-0.395
-0.4
-0.41
-0.415
-0.42
-0.42
-0.415
-0.41
-0.39
-0.37
-0.355
-0.35
-0.355
-0.36
-0.365
-0.375
-0.37
-0.365
-0.36
-0.33
-0.325
-0.32
-0.325
-0.345
-0.35
-0.36
-0.37
-0.38
-0.385
-0.39
-0.395
-0.39
-0.385
-0.385
-0.39
-0.385
-0.4
-0.41
-0.425
-0.44
-0.45
-0.445
-0.445
-0.445
-0.43
-0.43
-0.415
-0.415
-0.41
-0.42
-0.42
-0.425
-0.42
-0.42
-0.43
-0.44
-0.445
-0.47
-0.48
-0.44
-0.375
-0.275
-0.14
0.025
0.205
0.41
0.585
0.7
0.68
0.515
0.25
-0.05
-0.305
-0.48
-0.525
-0.505
-0.43
-0.36
-0.33
-0.31
-0.315
-0.315
-0.325
-0.34
-0.355
-0.365
-0.37
-0.385
-0.385
-0.39
-0.395
-0.38
-0.39
-0.385
-0.37
-0.37
-0.365
-0.375
-0.375
-0.38
-0.385
-0.39
-0.395
-0.375
-0.375
-0.365
-0.36
-0.36
-0.35
-0.36
-0.36
-0.37
-0.37
-0.365
-0.37
-0.365
-0.355
-0.34
-0.34
-0.34
-0.34
-0.345
-0.345
-0.35
-0.36
-0.355
-0.36
-0.35
-0.345
-0.335
-0.325
-0.33
-0.32
-0.325
-0.33
-0.335
-0.325
-0.335
-0.34
-0.325
-0.32
-0.32
-0.31
-0.3
-0.3
-0.31
-0.31
-0.315
-0.31
-0.33
-0.335
-0.32
-0.32
-0.3
-0.305
-0.29
-0.29
-0.29
-0.285
-0.29
-0.295
-0.3
-0.285
-0.275
-0.265
-0.26
-0.24
-0.235
-0.225
-0.225
-0.22
-0.23
-0.235
-0.25
-0.245
-0.235
-0.24
-0.24
-0.23
-0.235
-0.245
-0.245
-0.26
-0.265
-0.285
-0.3
-0.305
-0.305
-0.3
-0.29
-0.29
-0.3
-0.295
-0.305
-0.32
-0.325
-0.335
-0.335
-0.345
-0.35
-0.345
-0.34
-0.345
-0.34
-0.34
-0.35
-0.355
-0.35
-0.365
-0.365
-0.37
-0.37
-0.37
-0.36
-0.36
-0.36
-0.355
-0.365
-0.38
-0.385
-0.39
-0.39
-0.395
-0.395
-0.385
-0.395
-0.375
-0.38
-0.38
-0.385
-0.39
-0.4
-0.42
-0.4
-0.41
-0.405
-0.4
-0.4
-0.395
-0.39
-0.385
-0.395
-0.4
-0.405
-0.42
-0.42
-0.415
-0.41
-0.41
-0.405
-0.395
-0.39
-0.385
-0.39
-0.41
-0.41
-0.405
-0.415
-0.405
-0.4
-0.38
-0.37
-0.355
-0.345
-0.335
-0.355
-0.36
-0.36
-0.36
-0.36
-0.355
-0.34
-0.34
-0.325
-0.315
-0.325
-0.33
-0.355
-0.36
-0.375
-0.385
-0.39
-0.38
-0.38
-0.385
-0.38
-0.38
-0.375
-0.38
-0.385
-0.41
-0.415
-0.43
-0.435
-0.44
-0.43
-0.42
-0.425
-0.395
-0.405
-0.4
-0.4
-0.415
-0.42
-0.425
-0.42
-0.425
-0.425
-0.41
-0.41
-0.42
-0.435
-0.43
-0.435
-0.41
-0.37
-0.275
-0.16
-0.015
0.155
0.33
0.5
0.62
0.655
0.59
0.39
0.13
-0.125
-0.32
-0.45
-0.495
-0.45
-0.385
-0.34
-0.3
-0.29
-0.29
-0.31
-0.335
-0.355
-0.37
-0.385
-0.39
-0.375
-0.375
-0.375
-0.37
-0.37
-0.37
-0.38
-0.38
-0.38
-0.39
-0.38
-0.385
-0.385
-0.38
-0.37
-0.36
-0.355
-0.355
-0.36
-0.36
-0.365
-0.37
-0.37
-0.37
-0.36
-0.345
-0.35
-0.34
-0.335
-0.33
-0.34
-0.345
-0.355
-0.345
-0.36
-0.35
-0.34
-0.35
-0.335
-0.325
-0.32
-0.33
-0.33
-0.33
-0.335
-0.335
-0.34
-0.345
-0.335
-0.33
-0.33
-0.315
-0.315
-0.31
-0.315
-0.32
-0.32
-0.325
-0.33
-0.325
-0.315
-0.31
-0.3
-0.31
-0.3
-0.3
-0.31
-0.3
-0.31
-0.32
-0.32
-0.32
-0.32
-0.31
-0.305
-0.29
-0.28
-0.275
-0.275
-0.27
-0.26
-0.26
-0.265
-0.26
-0.25
-0.24
-0.25
-0.25
-0.25
-0.24
-0.24
-0.26
-0.27
-0.285
-0.285
-0.3
-0.295
-0.305
-0.305
-0.3
-0.31
-0.31
-0.32
-0.33
-0.34
-0.345
-0.355
-0.365
-0.365
-0.35
-0.345
-0.35
-0.345
-0.34
-0.345
-0.365
-0.365
-0.375
-0.37
-0.375
-0.38
-0.37
-0.36
-0.36
-0.355
-0.36
-0.365
-0.365
-0.375
-0.39
-0.39
-0.395
-0.375
-0.385
-0.385
-0.37
-0.365
-0.37
-0.375
-0.385
-0.39
-0.4
-0.41
-0.415
-0.41
-0.395
-0.4
-0.39
-0.39
-0.39
-0.39
-0.4
-0.41
-0.41
-0.415
-0.435
-0.43
-0.42
-0.41
-0.41
-0.41
-0.395
-0.4
-0.41
-0.405
-0.41
-0.42
-0.415
-0.425
-0.405
-0.42
-0.39
-0.41
-0.395
-0.395
-0.4
-0.41
-0.41
-0.41
-0.415
-0.395
-0.38
-0.365
-0.355
-0.345
-0.345
-0.35
-0.36
-0.36
-0.345
-0.34
-0.33
-0.325
-0.325
-0.33
-0.34
-0.35
-0.355
-0.36
-0.365
-0.37
-0.39
-0.39
-0.4
-0.39
-0.395
-0.4
-0.395
-0.39
-0.395
-0.415
-0.42
-0.435
-0.44
-0.445
-0.445
-0.44
-0.43
-0.43
-0.41
-0.41
-0.415
-0.41
-0.415
-0.415
-0.425
-0.42
-0.415
-0.43
-0.435
-0.45
-0.455
-0.445
-0.42
-0.36
-0.275
-0.155
-0.015
0.16
0.34
0.52
0.665
0.695
0.595
0.37
0.1
-0.175
-0.385
-0.495
-0.505
-0.45
-0.38
-0.33
-0.305
-0.295
-0.3
-0.31
-0.325
-0.34
-0.36
-0.375
-0.38
-0.38
-0.385
-0.385
-0.39
-0.375
-0.365
-0.36
-0.365
-0.365
-0.37
-0.375
-0.385
-0.375
-0.385
-0.385
-0.38
-0.37
-0.365
-0.355
-0.36
-0.355
-0.35
-0.375
-0.37
-0.365
-0.375
-0.37
-0.355
-0.35
-0.355
-0.35
-0.34
-0.34
-0.35
-0.345
-0.34
-0.345
-0.345
-0.34
-0.335
-0.335
-0.32
-0.325
-0.31
-0.315
-0.315
-0.315
-0.33
-0.33
-0.33
-0.33
-0.33
-0.325
-0.315
-0.31
-0.305
-0.3
-0.315
-0.315
-0.31
-0.32
-0.32
-0.32
-0.3
-0.3
-0.28
-0.295
-0.28
-0.29
-0.29
-0.295
-0.295
-0.295
-0.3
-0.285
-0.28
-0.255
-0.255
-0.25
-0.23
-0.23
-0.23
-0.235
-0.235
-0.245
-0.235
-0.24
-0.235
-0.235
-0.225
-0.235
-0.245
-0.255
-0.265
-0.27
-0.29
-0.295
-0.305
-0.31
-0.315
-0.32
-0.32
-0.32
-0.32
-0.32
-0.325
-0.345
-0.35
-0.355
-0.365
-0.36
-0.36
-0.355
-0.35
-0.345
-0.35
-0.345
-0.355
-0.365
-0.37
-0.37
-0.375
-0.38
-0.375
-0.365
-0.355
-0.355
-0.36
-0.365
-0.37
-0.375
-0.38
-0.375
-0.385
-0.385
-0.375
-0.37
-0.37
-0.37
-0.36
-0.36
-0.375
-0.38
-0.385
-0.39
-0.385
-0.395
-0.39
-0.38
-0.38
-0.37
-0.37
-0.37
-0.37
-0.385
-0.39
-0.395
-0.395
-0.39
-0.38
-0.375
-0.375
-0.375
-0.37
-0.365
-0.375
-0.385
-0.38
-0.38
-0.39
-0.365
-0.365
-0.355
-0.34
-0.345
-0.335
-0.335
-0.335
-0.345
-0.335
-0.325
-0.315
-0.295
-0.3
-0.29
-0.295
-0.31
-0.32
-0.335
-0.33
-0.35
-0.36
-0.37
-0.36
-0.37
-0.355
-0.365
-0.36
-0.365
-0.375
-0.38
-0.395
-0.4
-0.405
-0.405
-0.405
-0.41
-0.41
-0.395
-0.385
-0.38
-0.39
-0.39
-0.4
-0.4
-0.41
-0.405
-0.4
-0.395
-0.4
-0.415
-0.41
-0.41
-0.39
-0.32
-0.225
-0.1
0.055
0.235
0.42
0.6
0.715
0.695
0.56
0.305
0.025
-0.23
-0.405
-0.475
-0.46
-0.41
-0.35
-0.315
-0.295
-0.29
-0.29
-0.305
-0.305
-0.32
-0.35
-0.35
-0.36
-0.365
-0.37
-0.365
-0.375
-0.365
-0.36
-0.35
-0.355
-0.37
-0.385
-0.385
-0.39
-0.39
-0.385
-0.38
-0.365
-0.36
-0.355
-0.355
-0.35
-0.34
-0.335
-0.345
-0.355
-0.36
-0.36
-0.355
-0.335
-0.345
-0.325
-0.32
-0.34
-0.32
-0.32
-0.335
-0.34
-0.345
-0.35
-0.35
-0.335
-0.33
-0.335
-0.325
-0.33
-0.325
-0.33
-0.32
-0.33
-0.33
-0.335
-0.34
-0.325
-0.325
-0.315
-0.305
-0.305
-0.3
-0.305
-0.315
-0.325
-0.315
-0.32
-0.31
-0.31
-0.3
-0.305
-0.295
-0.295
-0.285
-0.29
-0.305
-0.305
-0.3
-0.305
-0.305
-0.29
-0.285
-0.27
-0.255
-0.245
-0.245
-0.24
-0.245
-0.235
-0.245
-0.245
-0.24
-0.245
-0.245
-0.24
-0.23
-0.24
-0.245
-0.26
-0.275
-0.28
-0.285
-0.295
-0.3
-0.3
-0.295
-0.305
-0.3
-0.315
-0.32
-0.325
-0.34
-0.35
-0.36
-0.375
-0.36
-0.35
-0.345
-0.345
-0.335
-0.34
-0.34
-0.35
-0.365
-0.36
-0.37
-0.375
-0.37
-0.365
-0.36
-0.36
-0.355
-0.365
-0.365
-0.365
-0.375
-0.39
-0.39
-0.395
-0.385
-0.385
-0.39
-0.37
-0.375
-0.375
-0.375
-0.385
-0.395
-0.395
-0.405
-0.4
-0.4
-0.39
-0.39
-0.38
-0.395
-0.385
-0.375
-0.38
-0.39
-0.395
-0.405
-0.41
-0.4
-0.4
-0.4
-0.395
-0.39
-0.395
-0.395
-0.4
-0.4
-0.41
-0.425
-0.405
-0.41
-0.395
-0.39
-0.37
-0.355
-0.35
-0.34
-0.345
-0.355
-0.365
-0.355
-0.355
-0.34
-0.315
-0.305
-0.295
-0.295
-0.305
-0.325
-0.34
-0.34
-0.36
-0.355
-0.36
-0.365
-0.37
-0.37
-0.36
-0.36
-0.37
-0.38
-0.39
-0.405
-0.415
-0.42
-0.425
-0.41
-0.415
-0.41
-0.405
-0.395
-0.4
-0.4
-0.405
-0.415
-0.425
-0.42
-0.42
-0.41
-0.42
-0.42
-0.43
-0.44
-0.435
-0.39
-0.31
-0.195
-0.035
0.165
0.375
0.585
0.71
0.7
0.54
0.255
-0.06
-0.335
-0.5
-0.545
-0.515
-0.42
-0.365
-0.33
-0.315
-0.315
-0.33
-0.335
-0.355
-0.365
-0.375
-0.375
-0.385
-0.39
-0.39
-0.38
-0.37
-0.375
-0.365
-0.37
-0.365
-0.365
-0.375
-0.375
-0.385
-0.385
-0.39
-0.395
-0.38
-0.365
-0.365
-0.365
-0.365
-0.35
-0.36
-0.365
-0.365
-0.36
-0.37
-0.365
-0.355
-0.36
-0.345
-0.345
-0.335
-0.34
-0.34
-0.345
-0.35
-0.35
-0.36
-0.345
-0.34
-0.335
-0.33
-0.33
-0.315
-0.32
-0.325
-0.33
-0.33
-0.325
-0.33
-0.33
-0.315
-0.31
-0.3
-0.295
-0.3
-0.31
-0.315
-0.32
-0.325
-0.325
-0.33
-0.325
-0.31
-0.315
-0.31
-0.295
-0.295
-0.295
-0.3
-0.295
-0.3
-0.295
-0.295
-0.28
-0.275
-0.265
-0.25
-0.24
-0.235
-0.225
-0.245
-0.245
-0.26
-0.265
-0.28
-0.28
-0.285
-0.28
-0.285
-0.28
-0.28
-0.285
-0.295
-0.32
-0.33
-0.34
-0.345
-0.355
-0.35
-0.345
-0.345
-0.335
-0.345
-0.35
-0.35
-0.36
-0.365
-0.365
-0.385
-0.365
-0.37
-0.38
-0.37
-0.355
-0.355
-0.365
-0.37
-0.37
-0.38
-0.37
-0.385
-0.39
-0.375
-0.38
-0.375
-0.375
-0.375
-0.375
-0.38
-0.39
-0.39
-0.395
-0.395
-0.405
-0.39
-0.39
-0.385
-0.38
-0.38
-0.385
-0.385
-0.39
-0.4
-0.4
-0.4
-0.395
-0.4
-0.395
-0.39
-0.385
-0.38
-0.385
-0.385
-0.385
-0.41
-0.41
-0.41
-0.41
-0.4
-0.4
-0.39
-0.395
-0.405
-0.405
-0.41
-0.405
-0.41
-0.4
-0.395
-0.37
-0.36
-0.365
-0.355
-0.35
-0.345
-0.335
-0.33
-0.33
-0.31
-0.31
-0.325
-0.335
-0.34
-0.34
-0.34
-0.345
-0.345
-0.35
-0.35
-0.365
-0.375
-0.39
-0.395
-0.395
-0.395
-0.395
-0.41
-0.41
-0.41
-0.41
-0.41
-0.42
-0.435
-0.425
-0.43
-0.43
-0.425
-0.425
-0.42
-0.41
-0.39
-0.415
-0.4
-0.415
-0.415
-0.43
-0.45
-0.47
-0.48
-0.445
-0.4
-0.315
-0.195
-0.055
0.105
0.285
0.47
0.63
0.715
0.7
0.55
0.305
0.025
-0.225
-0.405
-0.48
-0.475
-0.43
-0.375
-0.335
-0.32
-0.3
-0.305
-0.305
-0.31
-0.335
-0.34
-0.345
-0.355
-0.355
-0.36
-0.37
-0.375
-0.37
-0.365
-0.365
-0.365
-0.35
-0.355
-0.35
-0.35
-0.365
-0.365
-0.355
-0.37
-0.37
-0.36
-0.355
-0.345
-0.345
-0.34
-0.335
-0.34
-0.34
-0.34
-0.35
-0.345
-0.35
-0.35
-0.34
-0.325
-0.315
-0.315
-0.325
-0.31
-0.32
-0.33
-0.325
-0.32
-0.32
-0.315
-0.305
-0.295
-0.295
-0.3
-0.295
-0.295
-0.31
-0.295
-0.305
-0.305
-0.295
-0.295
-0.29
-0.27
-0.275
-0.27
-0.275
-0.27
-0.28
-0.285
-0.29
-0.29
-0.29
-0.29
-0.28
-0.275
-0.265
-0.27
-0.27
-0.28
-0.275
-0.285
-0.28
-0.28
-0.28
-0.265
-0.255
-0.245
-0.23
-0.225
-0.22
-0.22
-0.225
-0.225
-0.225
-0.22
-0.215
-0.22
-0.21
-0.2
-0.205
-0.21
-0.21
-0.215
-0.235
-0.25
-0.255
-0.27
-0.26
-0.255
-0.255
-0.25
-0.26
-0.265
-0.27
-0.27
-0.29
-0.285
-0.31
-0.305
-0.305
-0.305
-0.305
-0.3
-0.3
-0.305
-0.3
-0.3
-0.305
-0.315
-0.32
-0.33
-0.325
-0.31
-0.315
-0.305
-0.305
-0.3
-0.305
-0.31
-0.32
-0.325
-0.33
-0.345
-0.34
-0.34
-0.34
-0.33
-0.32
-0.315
-0.32
-0.32
-0.335
-0.335
-0.335
-0.34
-0.35
-0.345
-0.345
-0.335
-0.325
-0.32
-0.32
-0.325
-0.345
-0.34
-0.345
-0.355
-0.355
-0.35
-0.35
-0.33
-0.335
-0.325
-0.34
-0.335
-0.345
-0.355
-0.355
-0.35
-0.355
-0.35
-0.35
-0.34
-0.33
-0.33
-0.32
-0.32
-0.32
-0.305
-0.31
-0.32
-0.325
-0.3
-0.3
-0.29
-0.28
-0.27
-0.265
-0.255
-0.26
-0.27
-0.28
-0.305
-0.315
-0.315
-0.31
-0.305
-0.305
-0.305
-0.31
-0.315
-0.325
-0.335
-0.33
-0.35
-0.35
-0.35
-0.355
-0.36
-0.355
-0.36
-0.355
-0.35
-0.365
-0.37
-0.37
-0.37
-0.37
-0.365
-0.37
-0.355
-0.345
-0.345
-0.35
-0.345
-0.36
-0.38
-0.395
-0.415
-0.42
-0.395
-0.345
-0.26
-0.15
-0.015
0.14
0.325
0.495
0.65
0.735
0.715
0.565
0.33
0.055
-0.185
-0.355
-0.425
-0.41
-0.365
-0.315
-0.265
-0.25
-0.26
-0.27
-0.27
-0.275
-0.28
-0.28
-0.285
-0.295
-0.3
-0.31
-0.31
-0.315
-0.315
-0.32
-0.32
-0.315
-0.305
-0.3
-0.3
-0.31
-0.305
-0.31
-0.31
-0.3
-0.325
-0.325
-0.315
-0.315
-0.305
-0.29
-0.29
-0.29
-0.29
-0.285
-0.29
-0.29
-0.295
-0.29
-0.285
-0.28
-0.27
-0.265
-0.26
-0.26
-0.265
-0.26
-0.265
-0.265
-0.275
-0.275
-0.265
-0.26
-0.25
-0.245
-0.255
-0.245
-0.235
-0.255
-0.25
-0.255
-0.26
-0.26
-0.24
-0.235
-0.235
-0.225
-0.23
-0.23
-0.23
-0.23
-0.24
-0.235
-0.25
-0.245
-0.24
-0.235
-0.23
-0.22
-0.215
-0.215
-0.22
-0.215
-0.22
-0.21
-0.21
-0.21
-0.2
-0.185
-0.175
-0.18
-0.165
-0.16
-0.165
-0.175
-0.175
-0.185
-0.19
-0.19
-0.195
-0.2
-0.195
-0.195
-0.21
-0.21
-0.225
-0.235
-0.255
-0.255
-0.265
-0.27
-0.27
-0.27
-0.265
-0.27
-0.275
-0.285
-0.28
-0.29
-0.3
-0.315
-0.31
-0.3
-0.305
-0.3
-0.3
-0.295
-0.29
-0.295
-0.31
-0.315
-0.32
-0.32
-0.325
-0.33
-0.32
-0.31
-0.305
-0.295
-0.31
-0.3
-0.305
-0.32
-0.33
-0.335
-0.34
-0.335
-0.345
-0.34
-0.335
-0.335
-0.33
-0.33
-0.335
-0.34
-0.35
-0.355
-0.36
-0.36
-0.365
-0.36
-0.34
-0.33
-0.33
-0.34
-0.335
-0.345
-0.345
-0.355
-0.355
-0.365
-0.355
-0.35
-0.34
-0.33
-0.325
-0.325
-0.335
-0.345
-0.345
-0.35
-0.335
-0.345
-0.325
-0.305
-0.295
-0.28
-0.285
-0.28
-0.29
-0.295
-0.295
-0.285
-0.285
-0.27
-0.265
-0.265
-0.265
-0.28
-0.28
-0.29
-0.3
-0.305
-0.315
-0.32
-0.325
-0.335
-0.345
-0.35
-0.34
-0.34
-0.345
-0.35
-0.36
-0.37
-0.385
-0.38
-0.375
-0.375
-0.365
-0.35
-0.36
-0.355
-0.355
-0.355
-0.355
-0.36
-0.37
-0.365
-0.375
-0.39
-0.395
-0.41
-0.41
-0.39
-0.35
-0.28
-0.185
-0.07
0.055
0.22
0.405
0.585
0.71
0.735
0.635
0.42
0.145
-0.12
-0.32
-0.445
-0.455
-0.415
-0.35
-0.295
-0.27
-0.255
-0.265
-0.265
-0.285
-0.29
-0.315
-0.315
-0.33
-0.33
-0.35
-0.345
-0.33
-0.335
-0.335
-0.33
-0.325
-0.325
-0.32
-0.325
-0.335
-0.335
-0.345
-0.34
-0.34
-0.335
-0.325
-0.32
-0.32
-0.315
-0.31
-0.32
-0.325
-0.335
-0.34
-0.34
-0.33
-0.32
-0.31
-0.295
-0.3
-0.295
-0.295
-0.31
-0.305
-0.31
-0.315
-0.31
-0.3
-0.3
-0.295
-0.28
-0.275
-0.28
-0.275
-0.28
-0.28
-0.295
-0.3
-0.3
-0.28
-0.285
-0.27
-0.26
-0.26
-0.25
-0.255
-0.27
-0.27
-0.28
-0.28
-0.28
-0.275
-0.275
-0.275
-0.255
-0.25
-0.25
-0.255
-0.26
-0.255
-0.26
-0.27
-0.27
-0.265
-0.26
-0.24
-0.23
-0.23
-0.23
-0.225
-0.22
-0.22
-0.21
-0.225
-0.23
-0.21
-0.205
-0.2
-0.19
-0.2
-0.195
-0.21
-0.225
-0.23
-0.24
-0.245
-0.26
-0.265
-0.265
-0.265
-0.265
-0.275
-0.28
-0.285
-0.3
-0.315
-0.31
-0.325
-0.335
-0.335
-0.33
-0.315
-0.325
-0.32
-0.325
-0.33
-0.345
-0.355
-0.355
-0.37
-0.375
-0.375
-0.36
-0.36
-0.35
-0.35
-0.35
-0.355
-0.37
-0.38
-0.385
-0.39
-0.39
-0.39
-0.38
-0.375
-0.365
-0.365
-0.37
-0.375
-0.385
-0.39
-0.395
-0.395
-0.395
-0.395
-0.39
-0.385
-0.38
-0.385
-0.375
-0.375
-0.38
-0.39
-0.4
-0.395
-0.4
-0.395
-0.4
-0.395
-0.38
-0.38
-0.375
-0.375
-0.39
-0.4
-0.4
-0.405
-0.4
-0.4
-0.385
-0.375
-0.36
-0.35
-0.335
-0.34
-0.35
-0.36
-0.365
-0.36
-0.365
-0.345
-0.33
-0.31
-0.3
-0.3
-0.31
-0.325
-0.345
-0.36
-0.365
-0.375
-0.37
-0.37
-0.365
-0.37
-0.365
-0.375
-0.375
-0.39
-0.4
-0.405
-0.42
-0.43
-0.44
-0.43
-0.43
-0.425
-0.415
-0.41
-0.415
-0.42
-0.42
-0.42
-0.425
-0.43
-0.43
-0.42
-0.405
-0.415
-0.42
-0.43
-0.44
-0.43
-0.39
-0.31
-0.195
-0.03
0.155
0.365
0.555
0.68
0.675
0.515
0.245
-0.06
-0.31
-0.475
-0.535
-0.5
-0.435
-0.36
-0.315
-0.315
-0.315
-0.32
-0.33
-0.355
-0.37
-0.385
-0.39
-0.39
-0.395
-0.39
-0.39
-0.385
-0.375
-0.37
-0.365
-0.365
-0.375
-0.385
-0.39
-0.39
-0.395
-0.385
-0.39
-0.385
-0.365
-0.365
-0.37
-0.365
-0.375
-0.375
-0.375
-0.37
-0.37
-0.37
-0.36
-0.36
-0.345
-0.345
-0.335
-0.335
-0.345
-0.355
-0.35
-0.35
-0.355
-0.355
-0.345
-0.34
-0.34
-0.33
-0.325
-0.32
-0.34
-0.33
-0.34
-0.34
-0.35
-0.34
-0.335
-0.325
-0.325
-0.32
-0.315
-0.32
-0.32
-0.325
-0.33
-0.335
-0.345
-0.335
-0.33
-0.315
-0.31
-0.31
-0.3
-0.305
-0.31
-0.32
-0.32
-0.32
-0.305
-0.3
-0.295
-0.29
-0.27
-0.255
-0.25
-0.25
-0.265
-0.26
-0.265
-0.27
-0.28
-0.27
-0.265
-0.27
-0.27
-0.27
-0.275
-0.29
-0.295
-0.305
-0.325
-0.325
-0.34
-0.335
-0.34
-0.34
-0.335
-0.34
-0.34
-0.35
-0.365
-0.365
-0.375
-0.385
-0.395
-0.395
-0.395
-0.39
-0.38
-0.38
-0.395
-0.385
-0.4
-0.41
-0.41
-0.405
-0.41
-0.42
-0.405
-0.4
-0.395
-0.395
-0.395
-0.405
-0.4
-0.415
-0.425
-0.425
-0.43
-0.43
-0.43
-0.43
-0.42
-0.41
-0.405
-0.41
-0.42
-0.43
-0.44
-0.445
-0.455
-0.44
-0.44
-0.43
-0.435
-0.44
-0.435
-0.435
-0.44
-0.44
-0.455
-0.465
-0.465
-0.46
-0.455
-0.45
-0.45
-0.435
-0.44
-0.445
-0.445
-0.445
-0.445
-0.46
-0.455
-0.455
-0.45
-0.445
-0.43
-0.425
-0.415
-0.41
-0.405
-0.41
-0.42
-0.42
-0.42
-0.41
-0.395
-0.38
-0.365
-0.35
-0.365
-0.365
-0.385
-0.405
-0.425
-0.43
-0.425
-0.435
-0.42
-0.42
-0.415
-0.415
-0.43
-0.435
-0.445
-0.455
-0.465
-0.48
-0.49
-0.49
-0.485
-0.465
-0.465
-0.46
-0.46
-0.46
-0.46
-0.48
-0.485
-0.475
-0.48
-0.475
-0.475
-0.47
-0.48
-0.495
-0.52
-0.525
-0.505
-0.45
-0.37
-0.22
-0.075
0.125
0.33
0.525
0.665
0.675
0.55
0.305
0.005
-0.275
-0.49
-0.575
-0.58
-0.525
-0.45
-0.4
-0.375
-0.36
-0.355
-0.385
-0.395
-0.42
-0.44
-0.455
-0.445
-0.445
-0.44
-0.44
-0.43
-0.43
-0.43
-0.425
-0.435
-0.44
-0.44
-0.45
-0.455
-0.445
-0.445
-0.435
-0.425
-0.42
-0.41
-0.415
-0.41
-0.415
-0.415
-0.43
-0.43
-0.425
-0.415
-0.395
-0.39
-0.385
-0.385
-0.39
-0.39
-0.4
-0.4
-0.41
-0.415
-0.405
-0.405
-0.4
-0.39
-0.385
-0.385
-0.38
-0.39
-0.385
-0.385
-0.39
-0.395
-0.385
-0.385
-0.38
-0.365
-0.37
-0.36
-0.37
-0.38
-0.375
-0.38
-0.37
-0.37
-0.375
-0.365
-0.355
-0.35
-0.35
-0.355
-0.355
-0.365
-0.36
-0.36
-0.365
-0.36
-0.355
-0.35
-0.345
-0.32
-0.325
-0.315
-0.315
-0.315
-0.305
-0.31
-0.31
-0.31
-0.3
-0.295
-0.29
-0.285
-0.295
-0.29
-0.3
-0.31
-0.315
-0.345
-0.35
-0.355
-0.35
-0.355
-0.36
-0.355
-0.365
-0.375
-0.385
-0.395
-0.4
-0.415
-0.415
-0.425
-0.435
-0.435
-0.42
-0.42
-0.425
-0.42
-0.415
-0.42
-0.44
-0.44
-0.445
-0.45
-0.44
-0.43
-0.43
-0.425
-0.415
-0.425
-0.425
-0.435
-0.435
-0.45
-0.455
-0.455
-0.45
-0.445
-0.44
-0.435
-0.43
-0.44
-0.425
-0.445
-0.445
-0.455
-0.46
-0.47
-0.46
-0.455
-0.45
-0.45
-0.445
-0.445
-0.455
-0.445
-0.455
-0.46
-0.46
-0.47
-0.465
-0.46
-0.45
-0.445
-0.445
-0.445
-0.45
-0.45
-0.465
-0.47
-0.47
-0.47
-0.465
-0.455
-0.45
-0.445
-0.445
-0.44
-0.44
-0.44
-0.44
-0.44
-0.425
-0.44
-0.435
-0.43
-0.425
-0.41
-0.405
-0.375
-0.375
-0.365
-0.365
-0.395
-0.4
-0.415
-0.41
-0.415
-0.415
-0.405
-0.4
-0.4
-0.42
-0.425
-0.435
-0.445
-0.445
-0.46
-0.47
-0.47
-0.47
-0.47
-0.455
-0.455
-0.465
-0.47
-0.475
-0.475
-0.48
-0.475
-0.48
-0.465
-0.46
-0.45
-0.455
-0.45
-0.46
-0.475
-0.505
-0.53
-0.53
-0.51
-0.435
-0.33
-0.195
-0.02
0.175
0.385
0.565
0.66
0.62
0.43
0.14
-0.185
-0.44
-0.58
-0.595
-0.54
-0.455
-0.39
-0.355
-0.35
-0.365
-0.38
-0.4
-0.415
-0.425
-0.425
-0.425
-0.405
-0.41
-0.41
-0.42
-0.415
-0.42
-0.43
-0.44
-0.425
-0.425
-0.42
-0.415
-0.4
-0.4
-0.4
-0.405
-0.4
-0.41
-0.41
-0.41
-0.405
-0.405
-0.4
-0.385
-0.385
-0.375
-0.37
-0.375
-0.385
-0.375
-0.39
-0.385
-0.395
-0.385
-0.37
-0.37
-0.355
-0.355
-0.35
-0.355
-0.355
-0.365
-0.37
-0.37
-0.37
-0.36
-0.36
-0.345
-0.345
-0.335
-0.33
-0.34
-0.345
-0.345
-0.345
-0.345
-0.345
-0.345
-0.35
-0.335
-0.33
-0.33
-0.325
-0.32
-0.315
-0.33
-0.34
-0.335
-0.34
-0.335
-0.32
-0.33
-0.31
-0.305
-0.305
-0.295
-0.285
-0.275
-0.285
-0.275
-0.28
-0.275
-0.26
-0.255
-0.25
-0.25
-0.25
-0.26
-0.27
-0.27
-0.29
-0.295
-0.3
-0.31
-0.305
-0.315
-0.32
-0.315
-0.32
-0.325
-0.335
-0.34
-0.355
-0.355
-0.36
-0.365
-0.365
-0.365
-0.355
-0.36
-0.345
-0.36
-0.36
-0.375
-0.38
-0.385
-0.38
-0.38
-0.38
-0.375
-0.365
-0.365
-0.36
-0.37
-0.375
-0.385
-0.385
-0.39
-0.4
-0.4
-0.39
-0.385
-0.39
-0.38
-0.375
-0.375
-0.385
-0.39
-0.4
-0.41
-0.41
-0.415
-0.405
-0.395
-0.395
-0.39
-0.385
-0.39
-0.39
-0.39
-0.41
-0.405
-0.41
-0.415
-0.405
-0.405
-0.4
-0.385
-0.39
-0.39
-0.395
-0.405
-0.405
-0.41
-0.41
-0.4
-0.4
-0.38
-0.385
-0.385
-0.375
-0.375
-0.38
-0.385
-0.395
-0.39
-0.38
-0.36
-0.355
-0.35
-0.345
-0.33
-0.33
-0.32
-0.315
-0.315
-0.315
-0.315
-0.32
-0.34
-0.34
-0.345
-0.345
-0.345
-0.34
-0.345
-0.355
-0.365
-0.37
-0.38
-0.385
-0.385
-0.39
-0.38
-0.385
-0.4
-0.4
-0.4
-0.41
-0.405
-0.405
-0.42
-0.42
-0.425
-0.415
-0.42
-0.41
-0.4
-0.405
-0.395
-0.4
-0.41
-0.41
-0.415
-0.415
-0.43
-0.445
-0.455
-0.465
-0.41
-0.355
-0.26
-0.14
0.0
0.175
0.345
0.53
0.65
0.685
0.58
0.385
0.105
-0.15
-0.355
-0.465
-0.48
-0.44
-0.375
-0.33
-0.295
-0.295
-0.3
-0.32
-0.32
-0.335
-0.335
-0.355
-0.37
-0.365
-0.375
-0.38
-0.375
-0.37
-0.365
-0.365
-0.36
-0.355
-0.36
-0.355
-0.36
-0.375
-0.38
-0.37
-0.37
-0.38
-0.365
-0.35
-0.35
-0.35
-0.35
-0.35
-0.355
-0.36
-0.355
-0.36
-0.355
-0.345
-0.34
-0.335
-0.33
-0.335
-0.315
-0.325
-0.33
-0.325
-0.335
-0.33
-0.335
-0.335
-0.32
-0.305
-0.31
-0.31
-0.31
-0.3
-0.31
-0.32
-0.32
-0.32
-0.31
-0.31
-0.295
-0.29
-0.275
-0.275
-0.275
-0.28
-0.28
-0.285
-0.295
-0.29
-0.28
-0.285
-0.285
-0.275
-0.265
-0.25
-0.26
-0.265
-0.275
-0.28
-0.285
-0.285
-0.28
-0.275
-0.265
-0.255
-0.23
-0.225
-0.225
-0.22
-0.22
-0.23
-0.23
-0.24
-0.22
-0.225
-0.225
-0.225
-0.23
-0.23
-0.235
-0.235
-0.255
-0.265
-0.275
-0.285
-0.285
-0.29
-0.29
-0.285
-0.29
-0.29
-0.295
-0.31
-0.32
-0.33
-0.335
-0.34
-0.34
-0.34
-0.335
-0.33
-0.32
-0.325
-0.32
-0.33
-0.34
-0.355
-0.35
-0.355
-0.36
-0.35
-0.355
-0.345
-0.335
-0.34
-0.34
-0.34
-0.35
-0.36
-0.37
-0.37
-0.375
-0.37
-0.36
-0.36
-0.365
-0.36
-0.355
-0.375
-0.375
-0.375
-0.375
-0.385
-0.38
-0.375
-0.365
-0.36
-0.365
-0.36
-0.37
-0.37
-0.38
-0.385
-0.405
-0.39
-0.395
-0.395
-0.385
-0.375
-0.375
-0.365
-0.37
-0.375
-0.385
-0.385
-0.39
-0.39
-0.39
-0.395
-0.39
-0.375
-0.37
-0.36
-0.355
-0.355
-0.355
-0.355
-0.35
-0.345
-0.345
-0.335
-0.335
-0.33
-0.325
-0.315
-0.3
-0.295
-0.29
-0.295
-0.305
-0.32
-0.33
-0.35
-0.35
-0.335
-0.33
-0.335
-0.34
-0.345
-0.355
-0.37
-0.385
-0.395
-0.39
-0.39
-0.39
-0.39
-0.385
-0.385
-0.39
-0.39
-0.395
-0.41
-0.41
-0.415
-0.405
-0.405
-0.395
-0.385
-0.375
-0.39
-0.375
-0.39
-0.39
-0.4
-0.415
-0.425
-0.455
-0.45
-0.44
-0.38
-0.285
-0.17
-0.025
0.145
0.34
0.52
0.655
0.715
0.635
0.435
0.175
-0.095
-0.305
-0.445
-0.475
-0.445
-0.38
-0.345
-0.305
-0.305
-0.305
-0.31
-0.315
-0.32
-0.33
-0.34
-0.35
-0.36
-0.36
-0.375
-0.375
-0.375
-0.385
-0.38
-0.36
-0.365
-0.35
-0.355
-0.35
-0.35
-0.345
-0.36
-0.365
-0.38
-0.385
-0.375
-0.37
-0.36
-0.35
-0.355
-0.355
-0.355
-0.365
-0.36
-0.36
-0.355
-0.355
-0.335
-0.335
-0.33
-0.325
-0.315
-0.32
-0.32
-0.325
-0.335
-0.34
-0.345
-0.34
-0.335
-0.32
-0.32
-0.31
-0.31
-0.305
-0.305
-0.315
-0.315
-0.32
-0.32
-0.315
-0.315
-0.31
-0.305
-0.29
-0.295
-0.29
-0.295
-0.3
-0.3
-0.295
-0.3
-0.3
-0.29
-0.29
-0.285
-0.28
-0.275
-0.265
-0.27
-0.28
-0.29
-0.285
-0.29
-0.285
-0.28
-0.27
-0.26
-0.24
-0.235
-0.235
-0.23
-0.235
-0.225
-0.225
-0.235
-0.235
-0.225
-0.22
-0.225
-0.22
-0.215
-0.23
-0.24
-0.255
-0.27
-0.275
-0.285
-0.29
-0.295
-0.29
-0.285
-0.3
-0.315
-0.31
-0.31
-0.32
-0.325
-0.34
-0.36
-0.365
-0.36
-0.35
-0.34
-0.34
-0.34
-0.35
-0.355
-0.35
-0.36
-0.365
-0.37
-0.37
-0.375
-0.375
-0.365
-0.36
-0.355
-0.36
-0.365
-0.375
-0.375
-0.395
-0.39
-0.39
-0.395
-0.39
-0.38
-0.375
-0.375
-0.375
-0.385
-0.39
-0.395
-0.405
-0.405
-0.405
-0.395
-0.39
-0.39
-0.38
-0.38
-0.375
-0.38
-0.39
-0.405
-0.41
-0.4
-0.41
-0.405
-0.4
-0.395
-0.39
-0.39
-0.395
-0.395
-0.4
-0.405
-0.405
-0.4
-0.395
-0.39
-0.39
-0.385
-0.375
-0.37
-0.36
-0.365
-0.345
-0.36
-0.36
-0.355
-0.36
-0.35
-0.34
-0.33
-0.315
-0.295
-0.295
-0.3
