Lead II
0.05
0.225
0.385
0.55
0.66
0.74
0.78
0.77
0.745
0.7
0.625
0.47
0.185
-0.135
-0.485
-0.75
-0.91
-0.96
-0.935
-0.88
-0.81
-0.775
-0.76
-0.785
-0.83
-0.92
-0.955
-0.99
-1.02
-1.04
-1.035
-1.02
-1.025
-1.0
-0.985
-0.98
-0.985
-1.005
-1.0
-1.005
-0.985
-1.0
-0.99
-0.975
-0.985
-0.97
-0.955
-0.965
-0.975
-1.0
-1.005
-1.005
-1.025
-1.0
-1.0
-0.99
-0.985
-0.965
-0.97
-0.985
-0.98
-1.02
-1.02
-1.0
-1.01
-1.005
-1.0
-0.975
-0.955
-0.98
-0.985
-0.995
-0.985
-1.0
-0.99
-0.98
-1.01
-0.99
-0.965
-0.955
-0.94
-0.935
-0.935
-0.925
-0.93
-0.91
-0.93
-0.925
-0.905
-0.9
-0.89
-0.865
-0.845
-0.835
-0.845
-0.835
-0.85
-0.85
-0.845
-0.835
-0.845
-0.83
-0.805
-0.8
-0.8
-0.805
-0.8
-0.81
-0.825
-0.83
-0.835
-0.85
-0.855
-0.85
-0.835
-0.84
-0.835
-0.84
-0.85
-0.835
-0.825
-0.845
-0.855
-0.865
-0.88
-0.885
-0.875
-0.865
-0.875
-0.865
-0.85
-0.865
-0.87
-0.895
-0.91
-0.92
-0.925
-0.905
-0.905
-0.9
-0.9
-0.905
-0.905
-0.91
-0.905
-0.92
-0.95
-0.945
-0.945
-0.93
-0.93
-0.945
-0.925
-0.895
-0.89
-0.88
-0.895
-0.91
-0.925
-0.93
-0.92
-0.925
-0.925
-0.895
-0.885
-0.875
-0.865
-0.86
-0.84
-0.855
-0.86
-0.88
-0.885
-0.855
-0.825
-0.795
-0.77
-0.755
-0.735
-0.73
-0.7
-0.685
-0.68
-0.68
-0.685
-0.685
-0.685
-0.685
-0.675
-0.685
-0.69
-0.695
-0.695
-0.715
-0.71
-0.745
-0.76
-0.76
-0.765
-0.79
-0.8
-0.84
-0.855
-0.87
-0.88
-0.9
-0.93
-0.95
-0.96
-0.955
-0.945
-0.95
-0.935
-0.94
-0.94
-0.94
-0.94
-0.935
-0.95
-0.96
-0.975
-1.0
-1.005
-1.035
-1.065
-1.105
-1.145
-1.14
-1.095
-1.0
-0.875
-0.72
-0.55
-0.34
-0.14
0.055
0.235
0.39
0.525
0.64
0.715
0.755
0.765
0.715
0.675
0.61
0.53
0.42
0.215
-0.085
-0.42
-0.735
-0.925
-0.985
-1.0
-0.955
-0.905
-0.845
-0.845
-0.845
-0.89
-0.915
-0.955
-1.01
-1.045
-1.07
-1.075
-1.07
-1.07
-1.075
-1.08
-1.07
-1.045
-1.04
-1.05
-1.045
-1.055
-1.045
-1.03
-1.035
-1.045
-1.06
-1.055
-1.055
-1.045
-1.03
-1.02
-1.035
-1.055
-1.045
-1.07
-1.065
-1.05
-1.06
-1.06
-1.055
-1.04
-1.03
-1.03
-1.02
-1.035
-1.05
-1.055
-1.055
-1.065
-1.065
-1.07
-1.07
-1.055
-1.035
-1.035
-1.035
-1.035
-1.05
-1.045
-1.055
-1.05
-1.04
-1.04
-1.025
-1.035
-1.005
-0.99
-0.985
-0.995
-1.015
-1.005
-1.005
-0.995
-0.985
-0.975
-0.96
-0.955
-0.935
-0.915
-0.9
-0.915
-0.915
-0.92
-0.91
-0.9
-0.89
-0.91
-0.905
-0.9
-0.875
-0.865
-0.875
-0.895
-0.91
-0.92
-0.92
-0.915
-0.92
-0.925
-0.93
-0.93
-0.915
-0.9
-0.905
-0.925
-0.93
-0.94
-0.945
-0.95
-0.94
-0.965
-0.955
-0.95
-0.94
-0.945
-0.94
-0.935
-0.97
-0.975
-0.98
-0.97
-0.98
-0.98
-1.005
-0.995
-0.995
-0.98
-0.97
-0.99
-1.005
-1.035
-1.04
-1.045
-1.025
-1.04
-1.035
-1.045
-1.03
-1.03
-1.025
-1.025
-1.05
-1.07
-1.065
-1.05
-1.035
-1.04
-1.035
-1.0
-1.005
-0.975
-0.975
-0.965
-0.985
-1.0
-1.0
-1.0
-0.97
-0.94
-0.915
-0.9
-0.88
-0.85
-0.83
-0.82
-0.815
-0.8
-0.815
-0.815
-0.81
-0.795
-0.81
-0.81
-0.805
-0.8
-0.805
-0.825
-0.86
-0.87
-0.88
-0.88
-0.92
-0.945
-0.965
-0.975
-0.985
-0.995
-0.99
-1.02
-1.025
-1.05
-1.06
-1.055
-1.07
-1.075
-1.08
-1.065
-1.06
-1.05
-1.05
-1.06
-1.055
-1.075
-1.105
-1.145
-1.18
-1.235
-1.26
-1.27
-1.22
-1.135
-1.02
-0.86
-0.67
-0.45
-0.25
-0.06
0.125
0.28
0.44
0.56
0.65
0.695
0.69
0.64
0.565
0.49
0.355
0.13
-0.2
-0.53
-0.805
-1.005
-1.065
-1.055
-1.0
-0.95
-0.93
-0.955
-0.995
-1.06
-1.115
-1.14
-1.15
-1.16
-1.135
-1.13
-1.12
-1.125
-1.11
-1.115
-1.13
-1.14
-1.14
-1.13
-1.125
-1.12
-1.12
-1.12
-1.11
-1.115
-1.12
-1.125
-1.145
-1.16
-1.145
-1.15
-1.12
-1.115
-1.115
-1.11
-1.105
-1.11
-1.11
-1.12
-1.13
-1.135
-1.145
-1.135
-1.11
-1.095
-1.115
-1.1
-1.1
-1.105
-1.11
-1.115
-1.11
-1.115
-1.115
-1.1
-1.09
-1.075
-1.06
-1.055
-1.06
-1.075
-1.075
-1.07
-1.07
-1.075
-1.075
-1.065
-1.05
-1.035
-1.02
-1.01
-1.01
-0.995
-0.98
-0.975
-0.975
-0.98
-0.97
-0.965
-0.95
-0.93
-0.945
-0.935
-0.925
-0.915
-0.935
-0.945
-0.96
-0.965
-0.98
-0.965
-0.965
-0.975
-0.955
-0.945
-0.935
-0.955
-0.96
-0.97
-0.98
-0.985
-0.97
-0.97
-0.975
-0.97
-0.98
-0.98
-0.98
-0.98
-0.98
-0.975
-1.01
-1.02
-1.03
-1.015
-1.015
-1.01
-1.01
-1.025
-1.025
-1.015
-1.045
-1.055
-1.09
-1.1
-1.095
-1.07
-1.06
-1.055
-1.045
-1.06
-1.055
-1.055
-1.045
-1.065
-1.075
-1.085
-1.08
-1.05
-1.05
-1.05
-1.04
-1.02
-1.01
-0.99
-0.98
-0.99
-1.01
-1.015
-0.995
-0.97
-0.935
-0.915
-0.89
-0.85
-0.83
-0.79
-0.79
-0.795
-0.815
-0.81
-0.795
-0.79
-0.795
-0.78
-0.775
-0.775
-0.785
-0.815
-0.825
-0.85
-0.86
-0.865
-0.875
-0.91
-0.91
-0.93
-0.95
-0.96
-0.98
-0.98
-1.0
-1.03
-1.055
-1.05
-1.03
-1.035
-1.04
-1.025
-1.03
-1.03
-1.015
-1.015
-1.015
-1.04
-1.035
-1.055
-1.065
-1.075
-1.115
-1.155
-1.2
-1.22
-1.215
-1.165
-1.085
-0.97
-0.835
-0.65
-0.43
-0.205
0.0
0.195
0.385
0.54
0.635
0.705
0.705
0.69
0.615
0.54
0.455
0.26
-0.03
-0.39
-0.705
-0.905
-1.01
-1.04
-1.01
-0.955
-0.91
-0.89
-0.92
-0.95
-1.015
-1.055
-1.085
-1.095
-1.09
-1.1
-1.105
-1.12
-1.125
-1.11
-1.115
-1.11
-1.125
-1.115
-1.085
-1.065
-1.055
-1.06
-1.08
-1.085
-1.095
-1.09
-1.09
-1.075
-1.06
-1.06
-1.07
-1.075
-1.085
-1.085
-1.09
-1.1
-1.1
-1.11
-1.095
-1.075
-1.075
-1.07
-1.065
-1.055
-1.065
-1.055
-1.065
-1.06
-1.085
-1.085
-1.09
-1.08
-1.075
-1.075
-1.08
-1.075
-1.085
-1.065
-1.06
-1.06
-1.065
-1.065
-1.06
-1.045
-1.03
-1.03
-1.02
-1.01
-1.0
-1.0
-1.005
-1.0
-1.01
-1.0
-0.985
-0.975
-0.96
-0.955
-0.95
-0.935
-0.92
-0.905
-0.905
-0.915
-0.925
-0.91
-0.915
-0.9
-0.9
-0.9
-0.91
-0.895
-0.9
-0.905
-0.905
-0.925
-0.93
-0.93
-0.95
-0.935
-0.925
-0.925
-0.91
-0.925
-0.915
-0.935
-0.93
-0.955
-0.96
-0.97
-0.965
-0.96
-0.965
-0.96
-0.975
-0.965
-0.96
-0.95
-0.96
-0.965
-0.975
-0.995
-1.01
-1.02
-1.015
-1.0
-1.02
-1.025
-1.015
-1.0
-1.03
-1.03
-1.06
-1.055
-1.06
-1.06
-1.045
-1.04
-1.025
-1.02
-1.015
-1.005
-1.005
-1.015
-1.02
-1.005
-0.995
-0.985
-0.985
-0.98
-0.975
-0.94
-0.945
-0.93
-0.91
-0.905
-0.905
-0.875
-0.84
-0.82
-0.78
-0.76
-0.745
-0.75
-0.755
-0.755
-0.765
-0.78
-0.78
-0.79
-0.795
-0.8
-0.78
-0.78
-0.78
-0.785
-0.79
-0.81
-0.82
-0.855
-0.905
-0.93
-0.93
-0.955
-0.97
-0.965
-0.95
-0.965
-0.98
-1.005
-1.005
-1.02
-1.035
-1.03
-1.02
-1.005
-0.99
-0.99
-0.975
-0.985
-1.025
-1.03
-1.075
-1.105
-1.175
-1.2
-1.225
-1.19
-1.125
-1.0
-0.825
-0.61
-0.395
-0.17
0.015
0.205
0.37
0.54
0.665
0.74
0.795
0.81
0.79
0.77
0.695
0.585
0.39
0.11
-0.225
-0.55
-0.805
-0.96
-0.985
-0.955
-0.92
-0.88
-0.835
-0.83
-0.88
-0.94
-0.995
-1.02
-1.065
-1.065
-1.07
-1.055
-1.06
-1.06
-1.07
-1.07
-1.055
-1.06
-1.07
-1.075
-1.08
-1.06
-1.06
-1.05
-1.05
-1.045
-1.04
-1.045
-1.015
-1.05
-1.055
-1.055
-1.06
-1.075
-1.06
-1.05
-1.035
-1.04
-1.05
-1.075
-1.06
-1.075
-1.075
-1.08
-1.075
-1.055
-1.04
-1.03
-1.04
-1.045
-1.045
-1.055
-1.055
-1.07
-1.08
-1.075
-1.07
-1.05
-1.025
-1.015
-1.025
-1.0
-1.0
-0.995
-0.99
-1.015
-1.02
-1.035
-1.03
-1.01
-0.99
-0.97
-0.975
-0.96
-0.945
-0.93
-0.92
-0.94
-0.945
-0.965
-0.965
-0.94
-0.92
-0.915
-0.885
-0.865
-0.9
-0.89
-0.875
-0.885
-0.88
-0.89
-0.895
-0.91
-0.89
-0.89
-0.895
-0.895
-0.89
-0.89
-0.89
-0.89
-0.91
-0.92
-0.92
-0.905
-0.91
-0.895
-0.89
-0.89
-0.895
-0.915
-0.91
-0.92
-0.925
-0.93
-0.94
-0.925
-0.91
-0.925
-0.925
-0.925
-0.93
-0.93
-0.96
-0.99
-0.99
-1.0
-0.99
-0.995
-0.965
-0.96
-0.965
-0.94
-0.935
-0.95
-0.96
-0.965
-0.98
-0.98
-0.975
-0.955
-0.94
-0.92
-0.92
-0.885
-0.885
-0.885
-0.88
-0.875
-0.875
-0.85
-0.83
-0.81
-0.79
-0.785
-0.755
-0.735
-0.73
-0.72
-0.705
-0.73
-0.735
-0.755
-0.735
-0.735
-0.725
-0.74
-0.76
-0.79
-0.785
-0.78
-0.77
-0.78
-0.775
-0.825
-0.855
-0.885
-0.875
-0.885
-0.9
-0.9
-0.915
-0.92
-0.925
-0.925
-0.93
-0.955
-0.965
-0.975
-0.955
-0.935
-0.935
-0.925
-0.95
-0.94
-0.955
-0.985
-1.01
-1.05
-1.12
-1.165
-1.16
-1.135
-1.08
-0.99
-0.86
-0.69
-0.49
-0.305
-0.125
0.03
0.16
0.315
0.48
0.615
0.7
0.76
0.77
0.745
0.705
0.605
0.49
0.3
0.005
-0.315
-0.63
-0.845
-0.95
-0.96
-0.93
-0.87
-0.82
-0.78
-0.795
-0.84
-0.895
-0.95
-0.99
-1.015
-1.015
-1.01
-1.015
-1.03
-1.04
-1.025
-1.04
-1.03
-1.03
-1.03
-1.02
-0.995
-0.97
-0.975
-0.99
-0.975
-1.0
-1.0
-0.985
-0.99
-0.985
-0.995
-0.99
-0.98
-0.985
-0.97
-0.95
-0.975
-0.98
-0.985
-0.985
-0.985
-0.99
-0.985
-0.975
-0.965
-0.96
-0.95
-0.945
-0.965
-0.98
-0.98
-0.96
-0.965
-0.965
-0.97
-0.98
-0.955
-0.965
-0.93
-0.915
-0.925
-0.935
-0.935
-0.92
-0.92
-0.935
-0.945
-0.91
-0.91
-0.895
-0.855
-0.87
-0.865
-0.875
-0.875
-0.87
-0.845
-0.84
-0.83
-0.81
-0.815
-0.79
-0.775
-0.775
-0.77
-0.78
-0.775
-0.775
-0.78
-0.77
-0.77
-0.765
-0.765
-0.77
-0.765
-0.745
-0.745
-0.765
-0.79
-0.795
-0.805
-0.8
-0.8
-0.805
-0.795
-0.775
-0.775
-0.78
-0.78
-0.79
-0.8
-0.805
-0.8
-0.805
-0.8
-0.8
-0.81
-0.8
-0.81
-0.81
-0.795
-0.81
-0.82
-0.85
-0.84
-0.845
-0.86
-0.85
-0.85
-0.85
-0.835
-0.84
-0.835
-0.83
-0.855
-0.875
-0.87
-0.88
-0.87
-0.85
-0.84
-0.835
-0.845
-0.83
-0.83
-0.82
-0.83
-0.855
-0.86
-0.855
-0.845
-0.84
-0.825
-0.81
-0.805
-0.815
-0.815
-0.81
-0.815
-0.81
-0.815
-0.805
-0.805
-0.785
-0.76
-0.735
-0.72
-0.7
-0.68
-0.665
-0.64
-0.625
-0.615
-0.615
-0.605
-0.59
-0.585
-0.585
-0.575
-0.595
-0.625
-0.62
-0.63
-0.655
-0.655
-0.66
-0.66
-0.655
-0.655
-0.675
-0.7
-0.73
-0.76
-0.77
-0.795
-0.815
-0.825
-0.845
-0.84
-0.835
-0.84
-0.87
-0.86
-0.855
-0.845
-0.85
-0.85
-0.85
-0.88
-0.88
-0.88
-0.905
-0.925
-0.94
-1.0
-1.045
-1.055
-1.025
-0.99
-0.9
-0.755
-0.605
-0.41
-0.21
0.005
0.185
0.37
0.525
0.655
0.77
0.815
0.815
0.805
0.75
0.705
0.645
0.54
0.325
0.025
-0.305
-0.58
-0.77
-0.86
-0.89
-0.845
-0.785
-0.735
-0.72
-0.74
-0.775
-0.83
-0.875
-0.915
-0.905
-0.915
-0.94
-0.96
-0.955
-0.935
-0.925
-0.935
-0.91
-0.915
-0.91
-0.91
-0.915
-0.935
-0.925
-0.94
-0.945
-0.94
-0.935
-0.95
-0.94
-0.935
-0.93
-0.93
-0.93
-0.945
-0.94
-0.96
-0.965
-0.94
-0.94
-0.925
-0.92
-0.92
-0.92
-0.905
-0.92
-0.935
-0.935
-0.945
-0.93
-0.92
-0.925
-0.935
-0.94
-0.91
-0.9
-0.895
-0.885
-0.905
-0.915
-0.92
-0.925
-0.89
-0.895
-0.89
-0.895
-0.875
-0.845
-0.85
-0.835
-0.845
-0.855
-0.855
-0.855
-0.84
-0.81
-0.8
-0.79
-0.79
-0.785
-0.785
-0.78
-0.77
-0.785
-0.795
-0.78
-0.78
-0.765
-0.76
-0.77
-0.745
-0.75
-0.77
-0.785
-0.785
-0.8
-0.795
-0.795
-0.8
-0.805
-0.785
-0.795
-0.795
-0.805
-0.795
-0.815
-0.825
-0.82
-0.825
-0.82
-0.84
-0.825
-0.825
-0.83
-0.835
-0.835
-0.87
-0.87
-0.89
-0.875
-0.88
-0.885
-0.905
-0.91
-0.91
-0.895
-0.88
-0.875
-0.9
-0.92
-0.93
-0.945
-0.94
-0.925
-0.925
-0.945
-0.94
-0.91
-0.895
-0.905
-0.905
-0.91
-0.92
-0.92
-0.91
-0.89
-0.88
-0.87
-0.86
-0.85
-0.84
-0.82
-0.83
-0.82
-0.825
-0.81
-0.795
-0.775
-0.745
-0.72
-0.685
-0.665
-0.635
-0.645
-0.645
-0.645
-0.64
-0.65
-0.665
-0.67
-0.69
-0.705
-0.725
-0.71
-0.69
-0.71
-0.715
-0.745
-0.775
-0.79
-0.815
-0.825
-0.845
-0.87
-0.87
-0.875
-0.865
-0.865
-0.905
-0.915
-0.91
-0.915
-0.925
-0.91
-0.925
-0.925
-0.895
-0.88
-0.88
-0.88
-0.915
-0.945
-0.98
-1.05
-1.1
-1.13
-1.135
-1.07
-0.99
-0.84
-0.665
-0.46
-0.27
-0.085
0.09
0.26
0.415
0.57
0.675
0.73
0.775
0.795
0.77
0.715
0.655
0.545
0.375
0.125
-0.17
-0.495
-0.765
-0.91
-0.955
-0.915
-0.85
-0.795
-0.8
-0.815
-0.87
-0.915
-0.97
-1.01
-1.025
-1.025
-1.01
-0.995
-0.99
-0.98
-0.985
-0.995
-0.985
-0.98
-0.995
-1.0
-0.99
-1.0
-0.985
-0.97
-0.975
-0.97
-0.965
-0.985
-0.99
-0.985
-0.985
-0.985
-1.0
-0.99
-0.99
-0.975
-0.97
-0.95
-0.955
-0.98
-0.985
-1.005
-1.0
-0.985
-0.985
-0.98
-0.985
-0.975
-0.96
-0.96
-0.98
-0.985
-1.0
-1.015
-1.01
-0.985
-0.98
-0.965
-0.96
-0.955
-0.965
-0.925
-0.905
-0.925
-0.93
-0.95
-0.95
-0.945
-0.925
-0.91
-0.92
-0.905
-0.89
-0.885
-0.87
-0.875
-0.875
-0.88
-0.875
-0.87
-0.865
-0.85
-0.84
-0.825
-0.805
-0.795
-0.795
-0.805
-0.825
-0.825
-0.825
-0.825
-0.825
-0.82
-0.82
-0.82
-0.825
-0.805
-0.8
-0.82
-0.83
-0.83
-0.85
-0.855
-0.845
-0.855
-0.84
-0.85
-0.815
-0.82
-0.815
-0.825
-0.845
-0.87
-0.895
-0.88
-0.875
-0.875
-0.885
-0.87
-0.87
-0.88
-0.89
-0.895
-0.925
-0.91
-0.95
-0.945
-0.94
-0.925
-0.925
-0.94
-0.925
-0.94
-0.935
-0.92
-0.93
-0.945
-0.96
-0.96
-0.945
-0.945
-0.93
-0.925
-0.915
-0.905
-0.895
-0.92
-0.92
-0.9
-0.905
-0.88
-0.88
-0.86
-0.85
-0.855
-0.83
-0.81
-0.81
-0.795
-0.795
-0.775
-0.77
-0.735
-0.72
-0.69
-0.69
-0.665
-0.66
-0.64
-0.66
-0.67
-0.68
-0.68
-0.695
-0.685
-0.685
-0.71
-0.725
-0.715
-0.7
-0.71
-0.715
-0.715
-0.74
-0.785
-0.83
-0.85
-0.845
-0.85
-0.86
-0.86
-0.87
-0.88
-0.89
-0.885
-0.905
-0.91
-0.93
-0.93
-0.935
-0.94
-0.915
-0.9
-0.905
-0.91
-0.905
-0.925
-0.955
-0.985
-1.035
-1.1
-1.125
-1.125
-1.085
-0.99
-0.855
-0.685
-0.47
-0.235
-0.005
0.195
0.385
0.56
0.69
0.785
0.82
0.82
0.77
0.725
0.645
0.58
0.425
0.155
-0.155
-0.48
-0.725
-0.855
-0.905
-0.895
-0.82
-0.78
-0.755
-0.775
-0.825
-0.9
-0.95
-0.985
-1.005
-1.01
-1.0
-0.99
-1.01
-0.975
-0.98
-0.995
-1.02
-1.015
-1.01
-1.0
-0.995
-0.985
-0.975
-1.0
-0.985
-0.965
-0.96
-0.96
-0.985
-1.015
-1.0
-1.005
-0.99
-0.985
-0.995
-1.01
-1.01
-1.0
-0.99
-1.0
-1.0
-0.99
-1.015
-1.005
-0.99
-0.99
-0.985
-0.985
-0.99
-0.97
-0.975
-1.0
-1.0
-1.01
-1.01
-1.005
-1.0
-1.0
-0.985
-0.96
-0.955
-0.93
-0.93
-0.93
-0.955
-0.96
-0.94
-0.93
-0.915
-0.91
-0.915
-0.915
-0.895
-0.89
-0.875
-0.87
-0.87
-0.875
-0.865
-0.86
-0.855
-0.845
-0.85
-0.85
-0.84
-0.835
-0.81
-0.82
-0.83
-0.835
-0.835
-0.83
-0.835
-0.835
-0.84
-0.835
-0.815
-0.82
-0.815
-0.83
-0.855
-0.865
-0.875
-0.88
-0.875
-0.86
-0.85
-0.845
-0.84
-0.845
-0.845
-0.83
-0.86
-0.885
-0.885
-0.89
-0.9
-0.915
-0.905
-0.915
-0.915
-0.905
-0.915
-0.945
-0.96
-0.97
-0.965
-0.975
-0.985
-0.98
-0.975
-0.965
-0.945
-0.94
-0.935
-0.935
-0.96
-0.95
-0.97
-0.935
-0.945
-0.955
-0.95
-0.945
-0.915
-0.915
-0.895
-0.905
-0.91
-0.91
-0.905
-0.905
-0.89
-0.895
-0.91
-0.885
-0.875
-0.84
-0.8
-0.775
-0.755
-0.76
-0.745
-0.725
-0.7
-0.7
-0.71
-0.695
-0.685
-0.675
-0.67
-0.675
-0.7
-0.71
-0.72
-0.745
-0.755
-0.74
-0.73
-0.735
-0.745
-0.745
-0.775
-0.805
-0.845
-0.885
-0.92
-0.91
-0.905
-0.905
-0.89
-0.885
-0.9
-0.895
-0.9
-0.905
-0.945
-0.975
-0.98
-0.97
-0.965
-0.955
-0.96
-0.975
-0.98
-0.975
-1.035
-1.095
-1.15
-1.2
-1.195
-1.155
-1.07
-0.945
-0.79
-0.595
-0.405
-0.215
-0.06
0.13
0.305
0.46
0.6
0.71
0.805
0.83
0.83
0.815
0.745
0.675
0.565
0.395
0.12
-0.19
-0.495
-0.765
-0.905
-0.945
-0.92
-0.86
-0.8
-0.78
-0.79
-0.835
-0.89
-0.94
-1.01
-1.055
-1.075
-1.075
-1.06
-1.03
-1.035
-1.055
-1.055
-1.06
-1.055
-1.065
-1.065
-1.06
-1.07
-1.06
-1.04
-1.035
-1.025
-1.015
-1.025
-1.05
-1.045
-1.04
-1.035
-1.065
-1.07
-1.065
-1.045
-1.025
-1.025
-1.04
-1.045
-1.06
-1.065
-1.07
-1.055
-1.055
-1.075
-1.065
-1.05
-1.035
-1.03
-1.01
-1.015
-1.03
-1.03
-1.03
-1.035
-1.065
-1.055
-1.055
-1.045
-1.025
-0.995
-0.985
-1.0
-1.02
-1.03
-1.01
-1.01
-1.0
-0.975
-0.96
-0.97
-0.95
-0.945
-0.93
-0.94
-0.94
-0.945
-0.945
-0.925
-0.925
-0.905
-0.9
-0.9
-0.89
-0.875
-0.855
-0.84
-0.84
-0.85
-0.865
-0.87
-0.865
-0.835
-0.845
-0.84
-0.855
-0.84
-0.855
-0.85
-0.84
-0.855
-0.885
-0.895
-0.9
-0.885
-0.89
-0.865
-0.87
-0.86
-0.84
-0.845
-0.865
-0.895
-0.9
-0.9
-0.885
-0.89
-0.9
-0.89
-0.885
-0.9
-0.88
-0.89
-0.905
-0.925
-0.92
-0.95
-0.985
-0.975
-0.955
-0.955
-0.945
-0.94
-0.94
-0.95
-0.945
-0.945
-0.95
-0.975
-0.99
-0.99
-0.975
-0.96
-0.96
-0.97
-0.955
-0.96
-0.955
-0.97
-0.965
-0.955
-0.96
-0.95
-0.94
-0.91
-0.895
-0.865
-0.865
-0.865
-0.86
-0.87
-0.88
-0.885
-0.89
-0.88
-0.855
-0.81
-0.775
-0.755
-0.745
-0.715
-0.7
-0.685
-0.675
-0.675
-0.685
-0.7
-0.7
-0.695
-0.68
-0.67
-0.685
-0.69
-0.7
-0.72
-0.73
-0.76
-0.775
-0.79
-0.81
-0.815
-0.82
-0.85
-0.86
-0.88
-0.89
-0.88
-0.905
-0.92
-0.935
-0.94
-0.94
-0.93
-0.91
-0.91
-0.915
-0.93
-0.935
-0.935
-0.935
-0.94
-0.945
-0.97
-0.985
-1.015
-1.045
-1.075
-1.1
-1.095
-1.06
-0.985
-0.82
-0.64
-0.455
-0.265
-0.06
0.145
0.325
0.52
0.665
0.77
0.82
0.835
0.815
0.745
0.675
0.555
0.32
0.025
-0.34
-0.625
-0.83
-0.915
-0.935
-0.895
-0.845
-0.8
-0.78
-0.82
-0.87
-0.925
-0.955
-0.985
-1.015
-1.025
-1.03
-1.02
-1.025
-1.025
-1.04
-1.04
-1.005
-1.005
-0.995
-0.98
-0.975
-0.98
-0.98
-0.99
-0.995
-1.015
-1.045
-1.04
-1.015
-0.995
-0.985
-0.97
-0.995
-1.0
-1.0
-0.995
-1.02
-1.02
-1.02
-1.035
-1.025
-1.02
-0.99
-0.96
-0.97
-0.985
-1.0
-1.015
-1.02
-1.015
-1.015
-1.02
-1.025
-1.02
-0.995
-0.975
-0.97
-0.99
-0.985
-0.995
-1.015
-1.02
-0.99
-0.98
-0.975
-0.965
-0.94
-0.93
-0.92
-0.915
-0.92
-0.92
-0.905
-0.895
-0.89
-0.895
-0.89
-0.88
-0.875
-0.84
-0.855
-0.83
-0.825
-0.825
-0.825
-0.845
-0.84
-0.84
-0.83
-0.81
-0.81
-0.815
-0.815
-0.81
-0.805
-0.825
-0.84
-0.845
-0.86
-0.855
-0.84
-0.83
-0.825
-0.82
-0.835
-0.84
-0.835
-0.86
-0.835
-0.87
-0.87
-0.89
-0.87
-0.865
-0.865
-0.845
-0.835
-0.87
-0.865
-0.87
-0.89
-0.9
-0.91
-0.91
-0.895
-0.9
-0.895
-0.88
-0.89
-0.89
-0.89
-0.915
-0.91
-0.915
-0.925
-0.925
-0.925
-0.905
-0.895
-0.885
-0.89
-0.89
-0.9
-0.89
-0.905
-0.9
-0.905
-0.915
-0.905
-0.86
-0.84
-0.845
-0.83
-0.82
-0.82
-0.83
-0.815
-0.815
-0.78
-0.77
-0.735
-0.715
-0.685
-0.65
-0.625
-0.63
-0.63
-0.63
-0.64
-0.665
-0.675
-0.67
-0.66
-0.665
-0.685
-0.69
-0.685
-0.695
-0.7
-0.725
-0.75
-0.775
-0.81
-0.83
-0.845
-0.825
-0.83
-0.84
-0.855
-0.875
-0.875
-0.885
-0.905
-0.9
-0.93
-0.945
-0.925
-0.925
-0.91
-0.915
-0.915
-0.895
-0.91
-0.92
-0.94
-0.965
-1.01
-1.065
-1.12
-1.14
-1.13
-1.07
-0.955
-0.83
-0.655
-0.445
-0.225
-0.045
0.12
0.275
0.41
0.555
0.695
0.78
0.835
0.82
0.785
0.735
0.655
0.515
0.265
-0.065
-0.415
-0.675
-0.86
-0.92
-0.905
-0.855
-0.79
-0.755
-0.745
-0.785
-0.855
-0.93
-0.955
-0.995
-0.99
-0.99
-0.985
-0.975
-0.985
-0.99
-0.98
-0.995
-0.985
-1.005
-0.99
-0.985
-0.965
-0.955
-0.955
-0.97
-1.005
-0.995
-0.995
-0.995
-0.985
-0.99
-1.005
-0.995
-0.98
-0.96
-0.94
-0.96
-0.96
-0.965
-0.975
-0.98
-0.975
-0.98
-0.98
-1.0
-0.995
-0.975
-0.945
-0.965
-0.985
-0.975
-1.0
-0.985
-0.975
-0.97
-0.98
-0.98
-0.975
-0.935
-0.92
-0.935
-0.945
-0.945
-0.96
-0.96
-0.94
-0.94
-0.935
-0.925
-0.905
-0.89
-0.875
-0.885
-0.89
-0.905
-0.89
-0.89
-0.865
-0.845
-0.88
-0.865
-0.835
-0.82
-0.805
-0.795
-0.785
-0.79
-0.81
-0.81
-0.8
-0.81
-0.79
-0.795
-0.785
-0.765
-0.765
-0.765
-0.755
-0.775
-0.805
-0.805
-0.815
-0.81
-0.815
-0.785
-0.795
-0.8
-0.78
-0.795
-0.805
-0.8
-0.82
-0.84
-0.84
-0.83
-0.825
-0.81
-0.825
-0.83
-0.84
-0.85
-0.84
-0.855
-0.865
-0.89
-0.88
-0.895
-0.895
-0.89
-0.89
-0.885
-0.885
-0.88
-0.885
-0.9
-0.915
-0.925
-0.93
-0.91
-0.915
-0.91
-0.905
-0.91
-0.88
-0.895
-0.895
-0.885
-0.905
-0.91
-0.915
-0.91
-0.895
-0.895
-0.88
-0.9
-0.88
-0.86
-0.875
-0.845
-0.85
-0.855
-0.84
-0.845
-0.845
-0.82
-0.81
-0.81
-0.785
-0.76
-0.73
-0.715
-0.725
-0.72
-0.71
-0.695
-0.675
-0.65
-0.645
-0.635
-0.645
-0.66
-0.66
-0.645
-0.665
-0.675
-0.7
-0.715
-0.72
-0.73
-0.71
-0.705
-0.705
-0.74
-0.765
-0.805
-0.845
-0.855
-0.875
-0.885
-0.9
-0.88
-0.89
-0.885
-0.89
-0.9
-0.9
-0.925
-0.92
-0.935
-0.935
-0.96
-0.95
-0.93
-0.93
-0.94
-0.965
-1.01
-1.065
-1.11
-1.115
-1.075
-0.97
-0.825
-0.6
-0.365
-0.15
0.055
0.23
0.415
0.565
0.69
0.77
0.82
0.835
0.795
0.755
0.695
0.595
0.46
0.21
-0.115
-0.445
-0.685
-0.855
-0.93
-0.935
-0.89
-0.835
-0.78
-0.795
-0.815
-0.865
-0.925
-0.965
-1.005
-1.04
-1.06
-1.06
-1.055
-1.06
-1.025
-1.005
-1.005
-1.0
-0.995
-1.005
-0.99
-1.02
-1.02
-1.025
-1.03
-1.01
-1.01
-1.005
-0.995
-1.005
-1.005
-0.995
-0.99
-1.025
-1.015
-1.02
-1.005
-1.015
-1.005
-1.0
-1.0
-1.005
-1.0
-0.99
-0.995
-1.01
-1.01
-1.0
-1.005
-0.995
-1.005
-1.0
-0.995
-0.985
-0.985
-0.995
-0.99
-1.0
-0.99
-0.99
-0.975
-0.98
-0.97
-0.965
-0.935
-0.93
-0.925
-0.915
-0.92
-0.95
-0.945
-0.92
-0.915
-0.905
-0.89
-0.885
-0.87
-0.85
-0.85
-0.85
-0.855
-0.86
-0.845
-0.84
-0.835
-0.835
-0.83
-0.83
-0.805
-0.795
-0.815
-0.82
-0.835
-0.845
-0.835
-0.845
-0.855
-0.85
-0.87
-0.86
-0.85
-0.825
-0.825
-0.83
-0.84
-0.86
-0.87
-0.875
-0.885
-0.895
-0.895
-0.89
-0.88
-0.885
-0.9
-0.9
-0.92
-0.925
-0.935
-0.95
-0.955
-0.945
-0.935
-0.945
-0.93
-0.945
-0.95
-0.945
-0.96
-0.935
-0.93
-0.97
-0.99
-0.97
-0.955
-0.925
-0.915
-0.925
-0.925
-0.935
-0.945
-0.925
-0.935
-0.95
-0.935
-0.935
-0.92
-0.895
-0.875
-0.87
-0.89
-0.875
-0.87
-0.865
-0.86
-0.87
-0.865
-0.85
-0.815
-0.78
-0.755
-0.725
-0.725
-0.7
-0.675
-0.685
-0.68
-0.705
-0.695
-0.7
-0.69
-0.685
-0.665
-0.69
-0.7
-0.715
-0.74
-0.75
-0.75
-0.755
-0.785
-0.825
-0.83
-0.84
-0.865
-0.875
-0.895
-0.885
-0.905
-0.905
-0.92
-0.935
-0.95
-0.93
-0.915
-0.915
-0.93
-0.93
-0.925
-0.915
-0.92
-0.945
-0.97
-0.995
-1.05
-1.085
-1.105
-1.12
-1.085
-1.04
-0.905
-0.755
-0.57
-0.395
-0.22
-0.06
0.115
0.29
0.455
0.615
0.725
0.8
0.84
0.825
0.78
0.7
0.61
0.465
0.225
-0.055
-0.37
-0.66
-0.825
-0.9
-0.895
-0.85
-0.785
-0.745
-0.76
-0.785
-0.855
-0.895
-0.925
-0.95
-0.965
-0.97
-0.975
-0.99
-0.975
-0.99
-0.995
-1.0
-1.01
-1.005
-0.99
-0.965
-0.97
-0.97
-0.975
-0.96
-0.985
-0.97
-0.995
-1.005
-1.015
-1.0
-0.98
-0.96
-0.955
-0.965
-0.975
-0.975
-0.98
-0.98
-0.985
-1.01
-1.015
-1.02
-1.0
-0.99
-0.99
-0.99
-0.985
-0.99
-0.99
-0.98
-0.98
-0.98
-0.985
-0.985
-0.975
-0.96
-0.945
-0.945
-0.96
-0.97
-0.965
-0.965
-0.955
-0.955
-0.96
-0.97
-0.965
-0.945
-0.935
-0.9
-0.915
-0.9
-0.91
-0.915
-0.915
-0.91
-0.895
-0.895
-0.875
-0.86
-0.86
-0.835
-0.825
-0.815
-0.825
-0.83
-0.825
-0.805
-0.82
-0.82
-0.81
-0.78
-0.775
-0.78
-0.785
-0.79
-0.8
-0.82
-0.815
-0.815
-0.805
-0.82
-0.835
-0.815
-0.8
-0.79
-0.785
-0.8
-0.81
-0.825
-0.83
-0.825
-0.835
-0.83
-0.825
-0.85
-0.845
-0.82
-0.82
-0.84
-0.85
-0.88
-0.9
-0.885
-0.9
-0.9
-0.905
-0.9
-0.885
-0.875
-0.88
-0.885
-0.905
-0.915
-0.925
-0.925
-0.92
-0.925
-0.93
-0.92
-0.925
-0.895
-0.875
-0.88
-0.885
-0.92
-0.905
-0.895
-0.895
-0.89
-0.875
-0.865
-0.865
-0.855
-0.86
-0.85
-0.86
-0.865
-0.855
-0.835
-0.825
-0.82
-0.83
-0.825
-0.805
-0.785
-0.76
-0.76
-0.74
-0.725
-0.71
-0.69
-0.675
-0.65
-0.66
-0.635
-0.625
-0.63
-0.6
-0.6
-0.615
-0.625
-0.65
-0.66
-0.67
-0.67
-0.67
-0.675
-0.68
-0.685
-0.705
-0.725
-0.755
-0.79
-0.835
-0.85
-0.86
-0.865
-0.86
-0.865
-0.87
-0.865
-0.835
-0.85
-0.84
-0.86
-0.875
-0.89
-0.905
-0.885
-0.875
-0.855
-0.865
-0.88
-0.89
-0.91
-0.955
-1.01
-1.075
-1.105
-1.09
-1.045
-0.92
-0.78
-0.61
-0.405
-0.185
0.03
0.23
0.405
0.565
0.695
0.805
0.865
0.87
0.855
0.785
0.69
0.54
0.275
-0.11
-0.455
-0.73
-0.875
-0.9
-0.875
-0.83
-0.76
-0.74
-0.75
-0.815
-0.845
-0.9
-0.94
-0.965
-0.98
-1.005
-0.98
-0.975
-0.97
-0.98
-0.96
-0.94
-0.96
-0.95
-0.965
-0.975
-0.965
-0.965
-0.965
-0.975
-0.97
-0.96
-0.945
-0.92
-0.925
-0.945
-0.955
-0.95
-0.96
-0.965
-0.955
-0.95
-0.955
-0.945
-0.925
-0.93
-0.94
-0.95
-0.945
-0.975
-0.955
-0.965
-0.955
-0.96
-0.935
-0.945
-0.96
-0.95
-0.945
-0.935
-0.945
-0.945
-0.96
-0.955
-0.945
-0.925
-0.93
-0.935
-0.92
-0.895
-0.895
-0.89
-0.9
-0.925
-0.9
-0.9
-0.89
-0.885
-0.86
-0.845
-0.825
-0.81
-0.815
-0.815
-0.815
-0.805
-0.805
-0.79
-0.78
-0.785
-0.8
-0.775
-0.76
-0.77
-0.765
-0.77
-0.79
-0.79
-0.775
-0.78
-0.795
-0.79
-0.79
-0.775
-0.77
-0.745
-0.76
-0.76
-0.78
-0.79
-0.8
-0.79
-0.805
-0.81
-0.8
-0.795
-0.79
-0.79
-0.79
-0.81
-0.825
-0.84
-0.84
-0.85
-0.86
-0.865
-0.85
-0.86
-0.85
-0.845
-0.84
-0.855
-0.88
-0.895
-0.89
-0.905
-0.9
-0.885
-0.905
-0.9
-0.88
-0.875
-0.87
-0.87
-0.89
-0.895
-0.905
-0.89
-0.865
-0.865
-0.85
-0.865
-0.835
-0.815
-0.825
-0.835
-0.855
-0.845
-0.84
-0.835
-0.825
-0.82
-0.8
-0.79
-0.775
-0.765
-0.75
-0.75
-0.755
-0.74
-0.73
-0.705
-0.675
-0.69
-0.655
-0.63
-0.605
-0.585
-0.58
-0.575
-0.585
-0.59
-0.6
-0.59
-0.61
-0.605
-0.615
-0.63
-0.625
-0.63
-0.63
-0.63
-0.665
-0.69
-0.73
-0.755
-0.775
-0.8
-0.8
-0.795
-0.8
-0.8
-0.8
-0.81
-0.83
-0.845
-0.87
-0.875
-0.865
-0.86
-0.845
-0.84
-0.86
-0.85
-0.845
-0.84
-0.875
-0.895
-0.95
-0.995
-1.055
-1.075
-1.09
-1.04
-0.935
-0.785
-0.615
-0.425
-0.22
-0.055
0.105
0.265
0.455
0.625
0.765
0.865
0.935
0.95
0.925
0.875
0.8
0.685
0.52
0.245
-0.075
-0.395
-0.63
-0.78
-0.825
