Lead II
-0.3
-0.315
-0.33
-0.32
-0.305
-0.305
-0.315
-0.32
-0.325
-0.34
-0.335
-0.32
-0.315
-0.325
-0.34
-0.35
-0.35
-0.34
-0.335
-0.36
-0.38
-0.365
-0.34
-0.33
-0.35
-0.37
-0.385
-0.365
-0.36
-0.35
-0.37
-0.385
-0.42
-0.425
-0.43
-0.415
-0.42
-0.43
-0.44
-0.44
-0.435
-0.46
-0.46
-0.47
-0.48
-0.475
-0.475
-0.47
-0.475
-0.49
-0.505
-0.515
-0.505
-0.52
-0.51
-0.495
-0.49
-0.495
-0.49
-0.47
-0.475
-0.47
-0.46
-0.445
-0.43
-0.38
-0.355
-0.335
-0.33
-0.305
-0.26
-0.225
-0.215
-0.19
-0.18
-0.15
-0.125
-0.1
-0.1
-0.07
-0.065
-0.055
-0.04
-0.02
-0.02
-0.025
-0.055
-0.06
-0.05
-0.035
-0.035
-0.025
-0.035
-0.04
-0.03
-0.02
-0.035
-0.05
-0.075
-0.075
-0.07
-0.065
-0.07
-0.085
-0.085
-0.095
-0.07
-0.07
-0.05
-0.07
-0.095
-0.095
-0.08
-0.08
-0.08
-0.09
-0.105
-0.09
-0.1
-0.085
-0.095
-0.1
-0.125
-0.12
-0.11
-0.1
-0.09
-0.11
-0.12
-0.11
-0.105
-0.09
-0.105
-0.12
-0.125
-0.11
-0.085
-0.09
-0.1
-0.12
-0.13
-0.1
-0.09
-0.085
-0.095
-0.095
-0.105
-0.095
-0.095
-0.09
-0.08
-0.075
-0.1
-0.105
-0.095
-0.06
-0.055
-0.055
-0.07
-0.075
-0.075
-0.065
-0.055
-0.06
-0.09
-0.1
-0.09
-0.06
-0.05
-0.055
-0.07
-0.09
-0.095
-0.06
-0.08
-0.08
-0.11
-0.1
-0.08
-0.075
-0.08
-0.08
-0.09
-0.095
-0.075
-0.07
-0.085
-0.1
-0.11
-0.105
-0.11
-0.08
-0.075
-0.085
-0.105
-0.095
-0.085
-0.08
-0.08
-0.09
-0.125
-0.125
-0.11
-0.075
-0.07
-0.075
-0.115
-0.13
-0.1
-0.085
-0.075
-0.085
-0.09
-0.085
-0.065
-0.04
-0.04
-0.04
-0.055
-0.065
-0.055
-0.03
-0.03
-0.025
-0.03
-0.03
-0.04
-0.025
-0.045
-0.05
-0.065
-0.06
-0.04
-0.04
-0.03
-0.015
0.005
0.015
-0.005
-0.005
-0.025
-0.05
-0.06
-0.06
-0.06
-0.045
-0.055
-0.065
-0.095
-0.095
-0.1
-0.075
-0.07
-0.075
-0.075
-0.06
-0.045
-0.06
-0.07
-0.09
-0.115
-0.1
-0.075
-0.07
-0.075
-0.09
-0.1
-0.085
-0.08
-0.06
-0.055
-0.05
-0.065
-0.065
-0.055
-0.045
-0.03
-0.01
0.02
0.09
0.17
0.26
0.325
0.43
0.56
0.755
0.97
1.165
1.33
1.475
1.595
1.725
1.88
2.055
2.21
2.335
2.365
2.325
2.155
1.835
1.37
0.915
0.595
0.385
0.21
0.095
0.01
-0.055
-0.095
-0.105
-0.095
-0.115
-0.17
-0.175
-0.205
-0.205
-0.22
-0.215
-0.225
-0.245
-0.275
-0.285
-0.265
-0.26
-0.245
-0.255
-0.3
-0.295
-0.295
-0.275
-0.27
-0.275
-0.295
-0.285
-0.3
-0.295
-0.305
-0.31
-0.315
-0.31
-0.295
-0.28
-0.295
-0.32
-0.335
-0.34
-0.33
-0.305
-0.305
-0.32
-0.35
-0.35
-0.345
-0.335
-0.345
-0.355
-0.375
-0.38
-0.37
-0.365
-0.36
-0.39
-0.405
-0.405
-0.415
-0.405
-0.405
-0.42
-0.44
-0.435
-0.43
-0.43
-0.44
-0.45
-0.47
-0.465
-0.465
-0.455
-0.465
-0.47
-0.49
-0.46
-0.445
-0.425
-0.43
-0.42
-0.42
-0.42
-0.4
-0.345
-0.32
-0.3
-0.285
-0.255
-0.195
-0.14
-0.13
-0.1
-0.105
-0.07
-0.04
0.005
0.025
0.03
0.015
0.035
0.055
0.06
0.08
0.065
0.04
0.025
0.035
0.08
0.07
0.05
0.03
0.02
0.035
0.055
0.035
0.03
0.025
0.035
0.03
0.035
0.015
0.005
-0.005
0.005
0.035
0.05
0.03
0.01
-0.015
-0.015
0.005
0.02
0.01
0.01
-0.01
-0.02
0.0
0.03
0.025
0.0
-0.03
-0.04
-0.025
-0.01
0.015
0.02
0.01
-0.005
0.01
0.01
0.015
-0.015
-0.04
-0.035
-0.005
0.01
-0.005
-0.01
-0.025
-0.01
0.01
0.01
-0.01
-0.02
-0.025
-0.005
0.02
0.04
0.015
0.0
-0.02
-0.01
0.01
0.03
0.02
0.005
-0.005
0.0
0.015
0.02
0.025
-0.005
0.0
0.025
0.03
0.035
0.025
0.005
-0.005
-0.025
-0.015
0.02
0.055
0.065
0.025
0.02
0.02
0.055
0.04
0.02
0.01
0.005
0.01
0.035
0.02
0.015
0.0
0.02
0.03
0.05
0.055
0.045
0.035
0.03
0.035
0.025
0.02
0.005
0.005
0.025
0.04
0.055
0.06
0.055
0.055
0.065
0.07
0.08
0.085
0.085
0.085
0.105
0.11
0.12
0.1
0.09
0.08
0.085
0.085
0.11
0.085
0.075
0.05
0.085
0.12
0.135
0.125
0.12
0.105
0.1
0.095
0.09
0.06
0.04
0.02
0.03
0.05
0.06
0.035
0.03
0.02
0.035
0.07
0.07
0.05
0.045
0.03
0.025
0.05
0.05
0.045
0.055
0.04
0.035
0.035
0.065
0.07
0.055
0.04
0.04
0.04
0.06
0.065
0.095
0.1
0.11
0.14
0.185
0.235
0.285
0.36
0.445
0.54
0.665
0.83
0.99
1.185
1.365
1.55
1.7
1.835
1.975
2.15
2.325
2.455
2.46
2.34
2.04
1.545
1.03
0.685
0.495
0.37
0.24
0.15
0.1
0.09
0.055
0.04
0.005
-0.02
-0.025
-0.03
-0.04
-0.065
-0.1
-0.115
-0.105
-0.08
-0.075
-0.09
-0.115
-0.115
-0.115
-0.095
-0.085
-0.11
-0.12
-0.13
-0.125
-0.12
-0.115
-0.13
-0.135
-0.135
-0.135
-0.13
-0.115
-0.13
-0.14
-0.165
-0.155
-0.16
-0.16
-0.17
-0.17
-0.19
-0.18
-0.175
-0.17
-0.19
-0.21
-0.235
-0.235
-0.2
-0.195
-0.22
-0.255
-0.27
-0.27
-0.27
-0.255
-0.26
-0.265
-0.295
-0.29
-0.29
-0.295
-0.3
-0.33
-0.345
-0.345
-0.345
-0.345
-0.345
-0.345
-0.345
-0.35
-0.335
-0.3
-0.315
-0.31
-0.31
-0.295
-0.265
-0.22
-0.2
-0.175
-0.17
-0.105
-0.055
-0.02
-0.005
0.02
0.025
0.05
0.07
0.1
0.1
0.105
0.095
0.095
0.115
0.14
0.15
0.125
0.095
0.085
0.105
0.125
0.12
0.11
0.07
0.065
0.07
0.09
0.095
0.085
0.075
0.08
0.075
0.075
0.075
0.06
0.04
0.045
0.05
0.075
0.075
0.06
0.04
0.045
0.07
0.06
0.055
0.035
0.035
0.035
0.045
0.06
0.075
0.045
0.04
0.045
0.055
0.065
0.05
0.04
0.035
0.05
0.06
0.08
0.07
0.04
0.04
0.035
0.045
0.07
0.06
0.06
0.055
0.045
0.055
0.08
0.065
0.055
0.045
0.035
0.05
0.065
0.06
0.045
0.04
0.03
0.035
0.055
0.06
0.045
0.03
0.035
0.04
0.05
0.05
0.04
0.03
0.04
0.045
0.055
0.045
0.02
0.015
0.01
0.015
0.035
0.025
0.015
-0.005
0.0
0.01
0.03
0.035
0.025
0.005
-0.01
0.015
0.05
0.04
0.02
0.0
-0.005
0.015
0.025
0.01
0.01
0.01
0.02
0.025
0.04
0.05
0.05
0.045
0.045
0.07
0.085
0.065
0.06
0.06
0.05
0.055
0.055
0.035
0.045
0.055
0.06
0.07
0.085
0.07
0.045
0.035
0.02
0.015
0.02
0.005
0.005
-0.005
-0.005
0.01
0.02
0.02
-0.005
0.0
-0.02
0.0
0.005
0.01
0.01
0.0
-0.015
-0.01
0.01
0.015
0.015
-0.005
0.0
0.0
0.025
0.03
0.03
0.055
0.085
0.14
0.215
0.32
0.395
0.48
0.615
0.82
1.035
1.215
1.37
1.51
1.69
1.905
2.115
2.225
2.185
1.945
1.495
0.975
0.61
0.42
0.275
0.135
0.055
0.02
0.02
-0.01
-0.04
-0.06
-0.07
-0.075
-0.085
-0.12
-0.135
-0.16
-0.16
-0.135
-0.145
-0.14
-0.15
-0.175
-0.175
-0.17
-0.17
-0.175
-0.165
-0.165
-0.18
-0.17
-0.175
-0.185
-0.195
-0.205
-0.2
-0.18
-0.175
-0.19
-0.21
-0.22
-0.215
-0.19
-0.195
-0.2
-0.22
-0.23
-0.235
-0.235
-0.23
-0.24
-0.265
-0.275
-0.265
-0.255
-0.255
-0.265
-0.29
-0.32
-0.3
-0.3
-0.285
-0.32
-0.34
-0.345
-0.355
-0.345
-0.325
-0.325
-0.365
-0.385
-0.375
-0.385
-0.365
-0.395
-0.4
-0.42
-0.41
-0.39
-0.37
-0.37
-0.39
-0.38
-0.36
-0.33
-0.315
-0.31
-0.295
-0.285
-0.255
-0.205
-0.175
-0.15
-0.155
-0.145
-0.09
-0.06
-0.03
-0.005
-0.005
-0.01
0.01
0.04
0.06
0.065
0.05
0.04
0.04
0.04
0.06
0.07
0.055
0.045
0.04
0.05
0.055
0.045
0.025
0.02
0.025
0.04
0.05
0.025
0.005
-0.015
-0.01
0.01
0.03
0.02
0.0
0.0
0.0
0.015
0.025
0.015
0.0
-0.015
-0.025
-0.01
0.015
0.025
0.015
0.005
0.0
0.01
0.02
0.03
0.0
-0.01
0.0
0.0
0.015
0.0
-0.02
-0.015
-0.01
0.015
0.045
0.05
0.025
0.02
0.025
0.04
0.03
0.025
0.015
0.02
0.025
0.035
0.04
0.03
0.015
0.005
0.005
0.02
0.015
0.005
0.0
-0.005
0.02
0.04
0.05
0.035
0.025
0.005
0.01
0.025
0.035
0.03
0.02
0.005
0.005
0.005
0.01
0.005
-0.005
0.0
0.0
0.01
0.01
0.005
0.01
0.015
0.02
0.025
0.02
0.01
-0.005
-0.015
-0.005
0.015
0.025
0.02
0.0
-0.02
-0.015
-0.01
0.015
0.02
-0.005
0.0
0.0
0.0
0.025
0.035
0.015
-0.005
-0.005
-0.005
0.0
0.0
0.005
0.0
0.0
0.015
0.015
0.005
-0.005
-0.01
0.0
0.02
0.03
0.035
0.025
0.01
0.015
0.045
0.055
0.055
0.03
0.035
0.035
0.05
0.05
0.035
0.02
0.01
0.025
0.035
0.045
0.04
0.025
0.005
0.03
0.025
0.04
0.045
0.025
0.01
0.0
0.0
0.005
-0.005
-0.05
-0.065
-0.045
-0.025
-0.005
-0.03
-0.04
-0.05
-0.04
-0.02
-0.025
-0.03
-0.04
-0.05
-0.045
-0.02
-0.02
-0.025
-0.04
-0.04
-0.03
-0.025
-0.025
-0.035
-0.055
-0.05
-0.045
-0.015
-0.01
-0.01
-0.035
-0.015
0.015
0.08
0.135
0.19
0.26
0.32
0.395
0.515
0.665
0.82
0.97
1.12
1.245
1.385
1.53
1.73
1.945
2.08
2.075
1.86
1.455
0.945
0.54
0.32
0.185
0.07
0.015
-0.025
-0.035
-0.075
-0.09
-0.09
-0.1
-0.11
-0.16
-0.18
-0.185
-0.195
-0.185
-0.18
-0.185
-0.205
-0.2
-0.215
-0.22
-0.22
-0.24
-0.235
-0.23
-0.21
-0.195
-0.205
-0.235
-0.265
-0.255
-0.235
-0.235
-0.26
-0.265
-0.275
-0.275
-0.255
-0.255
-0.27
-0.295
-0.31
-0.305
-0.305
-0.295
-0.29
-0.325
-0.325
-0.335
-0.31
-0.315
-0.315
-0.32
-0.33
-0.335
-0.335
-0.33
-0.335
-0.345
-0.36
-0.355
-0.355
-0.34
-0.35
-0.38
-0.395
-0.37
-0.35
-0.35
-0.37
-0.39
-0.415
-0.4
-0.405
-0.395
-0.405
-0.41
-0.41
-0.39
-0.38
-0.37
-0.38
-0.385
-0.39
-0.38
-0.36
-0.325
-0.325
-0.335
-0.32
-0.3
-0.275
-0.245
-0.24
-0.235
-0.225
-0.205
-0.15
-0.11
-0.11
-0.085
-0.085
-0.06
-0.03
-0.015
-0.02
-0.02
-0.025
-0.02
-0.015
0.0
-0.01
-0.03
-0.05
-0.05
-0.035
-0.025
-0.02
-0.05
-0.05
-0.05
-0.04
-0.04
-0.055
-0.08
-0.085
-0.055
-0.05
-0.05
-0.05
-0.055
-0.07
-0.065
-0.055
-0.06
-0.065
-0.095
-0.095
-0.09
-0.075
-0.065
-0.06
-0.08
-0.095
-0.09
-0.085
-0.065
-0.06
-0.08
-0.07
-0.08
-0.07
-0.07
-0.075
-0.075
-0.065
-0.055
-0.04
-0.035
-0.07
-0.09
-0.095
-0.1
-0.09
-0.06
-0.055
-0.06
-0.075
-0.07
-0.06
-0.06
-0.06
-0.075
-0.09
-0.065
-0.045
-0.03
-0.04
-0.05
-0.065
-0.065
-0.05
-0.035
-0.05
-0.065
-0.065
-0.06
-0.045
-0.04
-0.04
-0.055
-0.045
-0.045
-0.025
-0.035
-0.06
-0.06
-0.06
-0.055
-0.03
-0.01
-0.04
-0.055
-0.065
-0.05
-0.04
-0.04
-0.03
-0.035
-0.045
-0.045
-0.04
-0.03
-0.02
-0.025
-0.035
-0.04
-0.035
-0.02
-0.04
-0.05
-0.06
-0.04
-0.03
-0.015
-0.015
-0.035
-0.05
-0.04
-0.02
-0.01
-0.015
-0.05
-0.06
-0.05
-0.025
-0.02
-0.05
-0.04
-0.035
-0.015
0.015
0.005
0.0
-0.005
-0.01
0.005
0.02
0.035
0.045
0.035
0.025
0.02
0.035
0.04
0.03
0.02
0.01
0.0
0.015
0.015
0.0
-0.01
-0.005
0.02
0.04
0.06
0.05
0.025
0.015
0.01
0.01
-0.005
-0.025
-0.045
-0.045
-0.035
-0.01
-0.005
-0.03
-0.04
-0.05
-0.045
-0.035
-0.025
-0.01
-0.01
-0.03
-0.03
-0.03
-0.015
-0.02
-0.04
-0.045
-0.05
-0.03
-0.025
-0.015
-0.04
-0.045
-0.015
0.0
0.015
0.005
-0.025
-0.03
-0.01
0.02
0.075
0.09
0.115
0.17
0.235
0.31
0.38
0.465
0.585
0.73
0.9
1.04
1.19
1.305
1.41
1.54
1.75
1.94
2.105
2.145
2.065
1.795
1.39
0.925
0.565
0.34
0.19
0.1
0.05
0.025
0.035
0.04
0.02
0.005
0.005
-0.005
-0.005
-0.035
-0.065
-0.07
-0.065
-0.05
-0.06
-0.06
-0.065
-0.08
-0.07
-0.06
-0.045
-0.065
-0.065
-0.065
-0.055
-0.03
-0.035
-0.07
-0.1
-0.11
-0.095
-0.075
-0.055
-0.075
-0.085
-0.09
-0.075
-0.07
-0.06
-0.06
-0.075
-0.085
-0.08
-0.06
-0.06
-0.08
-0.095
-0.1
-0.095
-0.09
-0.075
-0.1
-0.1
-0.12
-0.11
-0.1
-0.085
-0.115
-0.12
-0.145
-0.125
-0.13
-0.12
-0.125
-0.155
-0.165
-0.165
-0.155
-0.155
-0.175
-0.195
-0.195
-0.18
-0.185
-0.175
-0.19
-0.175
-0.19
-0.195
-0.22
-0.215
-0.225
-0.23
-0.23
-0.215
-0.185
-0.17
-0.17
-0.18
-0.165
-0.145
-0.105
-0.07
-0.06
-0.045
-0.015
-0.005
0.035
0.05
0.075
0.09
0.105
0.15
0.165
0.165
0.175
0.165
0.16
0.165
0.175
0.19
0.185
0.17
0.165
0.17
0.18
0.18
0.175
0.165
0.175
0.18
0.17
0.175
0.185
0.17
0.15
0.155
0.185
0.2
0.195
0.175
0.16
0.175
0.18
0.185
0.18
0.17
0.155
0.18
0.19
0.205
0.195
0.18
0.165
0.18
0.195
0.185
0.17
0.165
0.16
0.17
0.195
0.2
0.2
0.175
0.18
0.18
0.195
0.2
0.2
0.2
0.19
0.21
0.225
0.24
0.22
0.22
0.215
0.22
0.235
0.23
0.24
0.235
0.23
0.26
0.265
0.265
0.235
0.205
0.18
0.17
0.175
0.2
0.2
0.21
0.19
0.205
0.205
0.22
0.21
0.215
0.215
0.205
0.215
0.23
0.215
0.205
0.2
0.2
0.21
0.22
0.21
0.205
0.205
0.2
0.21
0.225
0.21
0.2
0.18
0.175
0.185
0.21
0.22
0.23
0.205
0.19
0.195
0.205
0.195
0.17
0.155
0.175
0.205
0.21
0.21
0.215
0.21
0.235
0.25
0.255
0.24
0.225
0.225
0.235
0.255
0.27
0.275
0.27
0.245
0.245
0.25
0.26
0.25
0.23
0.225
0.23
0.25
0.27
0.275
0.255
0.255
0.275
0.265
0.285
0.275
0.255
0.215
0.21
0.2
0.215
0.23
0.225
0.2
0.215
0.22
0.235
0.23
0.21
0.195
0.205
0.21
0.205
0.2
0.165
0.19
0.2
0.215
0.22
0.225
0.225
0.225
0.235
0.235
0.245
0.215
0.195
0.205
0.24
0.255
0.27
0.285
0.3
0.32
0.375
0.44
0.52
0.58
0.645
0.74
0.885
1.025
1.155
1.27
1.355
1.465
1.58
1.73
1.91
2.06
2.125
2.1
1.9
1.525
1.045
0.675
0.48
0.37
0.285
0.215
0.2
0.2
0.19
0.18
0.15
0.16
0.16
0.14
0.115
0.105
0.115
0.12
0.11
0.105
0.09
0.07
0.095
0.105
0.12
0.095
0.085
0.07
0.08
0.095
0.105
0.1
0.08
0.05
0.055
0.075
0.085
0.09
0.075
0.065
0.05
0.065
0.055
0.04
0.04
0.045
0.05
0.04
0.045
0.03
0.02
0.015
0.03
0.03
0.04
0.025
0.0
-0.005
0.0
0.005
0.0
-0.005
-0.025
-0.035
-0.045
-0.03
-0.02
-0.04
-0.045
-0.05
-0.04
-0.045
-0.035
-0.045
-0.055
-0.045
-0.03
-0.02
-0.035
-0.055
-0.07
-0.06
-0.035
0.01
0.025
0.045
0.03
0.04
0.06
0.095
0.11
0.125
0.135
0.14
0.175
0.21
0.225
0.23
0.225
0.215
0.25
0.26
0.275
0.265
0.24
0.24
0.25
0.26
0.25
0.205
0.18
0.18
0.2
0.21
0.205
0.215
0.195
0.19
0.2
0.21
0.215
0.2
0.18
0.16
0.165
0.165
0.17
0.18
0.16
0.175
0.165
0.18
0.185
0.19
0.175
0.17
0.155
0.15
0.155
0.15
0.14
0.14
0.135
0.15
0.185
0.17
0.13
0.13
0.155
0.17
0.18
0.165
0.155
0.145
0.135
0.15
0.155
0.15
0.135
0.14
0.16
0.175
0.175
0.165
0.145
0.15
0.135
0.135
0.14
0.135
0.145
0.145
0.145
0.155
0.155
0.15
0.125
0.12
0.13
0.145
0.16
0.15
0.125
0.12
0.115
0.12
0.135
0.125
0.115
0.12
0.145
0.145
0.135
0.105
0.085
0.095
0.12
0.145
0.145
0.11
0.09
0.065
0.09
0.085
0.1
0.105
0.09
0.085
0.08
0.115
0.125
0.115
0.1
0.095
0.1
0.11
0.125
0.12
0.115
0.14
0.15
0.175
0.165
0.145
0.12
0.125
0.15
0.165
0.165
0.155
0.125
0.135
0.14
0.14
0.15
0.135
0.12
0.12
0.13
0.14
0.145
0.135
0.13
0.12
0.15
0.16
0.14
0.115
0.1
0.095
0.095
0.11
0.095
0.085
0.07
0.085
0.105
0.115
0.085
0.065
0.055
0.06
0.065
0.065
0.07
0.045
0.025
0.055
0.055
0.07
0.075
0.065
0.045
0.03
0.045
0.07
0.085
0.07
0.065
0.04
0.05
0.075
0.1
0.135
0.155
0.17
0.225
0.29
0.365
0.41
0.485
0.58
0.71
0.83
0.94
1.03
1.105
1.2
1.38
1.58
1.725
1.75
1.56
1.2
0.73
0.385
0.21
0.1
0.005
-0.05
-0.06
-0.02
0.0
0.0
-0.01
-0.02
-0.02
-0.035
-0.04
-0.06
-0.07
-0.08
-0.085
-0.07
-0.065
-0.075
-0.09
-0.095
-0.07
-0.07
-0.085
-0.1
-0.125
-0.11
-0.11
-0.1
-0.1
-0.105
-0.125
-0.13
-0.115
-0.11
-0.105
-0.11
-0.13
-0.14
-0.13
-0.125
-0.125
-0.14
-0.145
-0.145
-0.125
-0.11
-0.115
-0.13
-0.145
-0.155
-0.155
-0.14
-0.14
-0.145
-0.17
-0.19
-0.195
-0.185
-0.185
-0.185
-0.195
-0.185
-0.175
-0.17
-0.18
-0.185
-0.2
-0.185
-0.18
-0.175
-0.185
-0.185
-0.2
-0.2
-0.18
-0.17
-0.15
-0.16
-0.155
-0.15
-0.135
-0.115
-0.11
-0.11
-0.085
-0.095
-0.07
-0.04
-0.015
0.0
0.005
0.015
0.04
0.05
0.055
0.05
0.055
0.05
0.075
0.08
0.075
0.075
0.06
0.08
0.085
0.095
0.09
0.075
0.055
0.04
0.055
0.095
0.115
0.11
0.05
0.0
-0.035
-0.005
0.005
0.01
0.01
0.0
0.005
0.015
0.01
0.01
0.005
-0.005
0.01
0.025
0.025
0.01
0.01
-0.005
0.0
0.025
0.025
0.01
-0.005
0.0
0.025
0.03
0.025
-0.01
-0.035
-0.03
0.005
0.015
0.03
0.015
0.005
0.01
0.02
0.03
0.05
0.035
0.02
0.02
0.04
0.055
0.06
0.065
0.055
0.05
0.025
0.03
0.03
0.035
0.045
0.06
0.06
0.075
0.075
0.045
0.015
0.03
0.04
0.055
0.06
0.07
0.06
0.07
0.07
0.065
0.045
0.02
0.015
0.025
0.05
0.07
0.065
0.055
0.055
0.05
0.045
0.03
0.015
0.005
0.02
0.005
0.02
0.025
0.035
0.04
0.045
0.055
0.045
0.06
0.045
0.0
-0.01
-0.005
0.02
0.035
0.05
0.04
0.035
0.05
0.05
0.04
0.02
0.005
0.015
0.025
0.045
0.06
0.075
0.065
0.075
0.07
0.07
0.09
0.085
0.085
0.085
0.06
0.09
0.11
0.105
0.105
0.09
0.085
0.105
0.12
0.12
0.105
0.075
0.065
0.075
0.12
0.13
0.135
0.105
0.09
0.085
0.07
0.06
0.055
0.055
0.06
0.08
0.08
0.075
0.08
0.075
0.085
0.06
0.055
0.035
0.02
0.025
0.045
0.085
0.09
0.08
0.075
0.065
0.055
0.06
0.06
0.055
0.055
0.055
0.055
0.07
0.09
0.095
0.105
0.095
0.12
0.18
0.245
0.3
0.33
0.355
0.38
0.465
0.565
0.705
0.81
0.895
0.98
1.075
1.19
1.325
1.495
1.68
1.83
1.865
1.765
1.435
0.95
0.5
0.24
0.135
0.11
0.1
0.095
0.105
0.11
0.115
0.11
0.11
0.085
0.065
0.065
0.065
0.065
0.06
0.045
0.03
0.035
0.04
0.045
0.03
0.025
0.005
0.01
0.01
0.04
0.055
0.045
0.03
0.03
0.04
0.045
0.055
0.03
0.015
0.01
0.02
0.03
0.04
0.01
0.015
0.01
0.045
0.04
0.04
0.01
-0.02
-0.02
0.0
0.015
0.02
0.0
-0.005
-0.015
0.0
0.01
0.005
-0.015
-0.02
-0.02
0.0
-0.01
-0.015
-0.02
-0.04
-0.045
-0.03
-0.015
-0.015
-0.02
-0.05
-0.055
-0.045
-0.005
-0.01
-0.04
-0.07
-0.045
-0.03
-0.01
0.005
0.015
0.015
0.005
0.015
0.045
0.065
0.08
0.11
0.13
0.15
0.155
0.145
0.155
0.16
0.2
0.215
0.24
0.235
0.235
0.22
0.225
0.235
0.24
0.24
0.23
0.21
0.205
0.22
0.23
0.22
0.215
0.195
0.185
0.205
0.22
0.215
0.2
0.185
0.175
0.18
0.215
0.205
0.205
0.19
0.2
0.2
0.195
0.17
0.155
0.16
0.155
0.185
0.19
0.19
0.175
0.17
0.175
0.175
0.205
0.2
0.2
0.18
0.19
0.2
0.22
0.215
0.215
0.215
0.205
0.205
0.205
0.185
0.175
0.18
0.185
0.205
0.22
0.21
0.2
0.195
0.195
0.205
0.205
0.205
0.21
0.21
0.205
0.22
0.23
0.22
0.21
0.205
0.195
0.22
0.23
0.24
0.225
0.205
0.205
0.22
0.235
0.22
0.205
0.21
0.205
0.23
0.205
0.175
0.17
0.16
0.165
0.195
0.21
0.215
0.215
0.185
0.175
0.185
0.195
0.19
0.185
0.175
0.175
0.185
0.2
0.2
0.185
0.18
0.205
0.205
0.24
0.24
0.235
0.205
0.2
0.21
0.22
0.22
0.225
0.23
0.215
0.205
0.23
0.225
0.215
0.21
0.205
0.22
0.22
0.195
0.185
0.195
0.2
0.21
0.225
0.23
0.215
0.18
0.185
0.175
0.18
0.19
0.165
0.165
0.18
0.19
0.22
0.21
0.21
0.185
0.15
0.14
0.165
0.17
0.175
0.16
0.175
0.2
0.195
0.185
0.155
0.13
0.135
0.165
0.19
0.175
0.155
0.16
0.16
0.185
0.205
0.215
0.215
0.235
0.255
0.315
0.39
0.46
0.505
0.55
0.635
0.775
0.92
1.045
1.14
1.225
1.325
1.435
1.595
1.77
1.905
1.975
1.905
1.64
1.245
0.805
0.515
0.37
0.29
0.205
0.14
0.1
0.1
0.105
0.1
0.115
0.115
0.105
0.09
0.055
0.065
0.07
0.085
0.055
0.03
0.015
0.035
0.05
0.06
0.05
0.02
0.025
0.02
0.045
0.055
0.06
0.04
0.02
0.02
0.025
0.035
0.03
0.02
0.0
0.005
0.005
0.02
-0.005
-0.025
-0.02
-0.025
0.005
0.01
0.015
-0.005
-0.02
-0.01
-0.01
0.01
-0.015
-0.025
-0.04
-0.05
-0.03
-0.03
-0.03
-0.065
-0.07
-0.065
-0.055
-0.055
-0.07
-0.085
-0.095
-0.09
-0.085
-0.065
-0.075
-0.1
-0.115
-0.095
-0.085
-0.075
-0.065
-0.09
-0.095
-0.105
-0.085
-0.07
-0.055
-0.045
-0.035
-0.015
0.02
0.035
0.04
0.055
0.06
0.09
0.12
0.155
0.155
0.155
0.13
0.145
0.17
0.18
0.185
0.17
0.155
0.15
0.155
0.165
0.16
0.14
0.125
0.13
0.12
0.115
0.11
0.095
0.075
0.08
0.095
0.1
0.095
0.07
0.06
0.07
0.085
0.11
0.105
0.07
0.04
0.05
0.055
0.07
0.055
0.05
0.045
0.04
0.055
0.065
0.06
0.035
0.03
0.03
0.045
0.06
0.055
0.05
0.01
0.015
0.025
0.04
0.035
0.045
0.02
0.02
0.045
0.065
0.06
0.045
0.035
0.04
0.05
0.06
0.075
0.075
0.08
0.065
0.05
0.05
0.04
0.04
0.03
0.035
0.045
0.055
0.05
0.04
0.035
0.035
0.05
0.07
0.055
0.05
0.04
0.04
0.045
0.045
0.045
0.04
0.035
0.025
0.035
0.06
0.055
0.045
0.03
0.01
0.015
0.03
0.035
0.02
0.015
0.015
0.02
0.035
0.03
0.0
-0.005
-0.005
0.0
0.01
0.0
0.015
0.005
0.005
0.015
0.05
0.055
0.065
0.045
0.05
0.03
0.035
0.045
0.03
0.005
0.01
0.025
0.035
0.03
0.035
0.025
0.03
0.015
0.03
0.035
0.035
0.01
0.0
-0.005
0.005
0.0
-0.01
-0.02
-0.04
-0.03
-0.02
-0.025
-0.03
-0.03
-0.025
-0.01
-0.02
-0.015
-0.05
-0.06
-0.045
-0.02
-0.015
-0.015
-0.035
-0.055
-0.045
-0.055
-0.03
-0.035
-0.05
-0.055
-0.035
-0.01
0.015
0.03
0.03
0.01
0.01
0.05
0.1
0.16
0.2
0.245
0.3
0.375
0.485
0.605
0.73
0.825
0.92
1.015
1.115
1.23
1.38
1.535
1.67
1.705
1.565
1.305
0.895
0.49
0.2
0.035
-0.03
-0.075
-0.1
-0.09
-0.095
-0.1
-0.095
-0.1
-0.11
-0.135
-0.135
-0.16
-0.155
-0.16
-0.175
-0.195
-0.195
-0.18
-0.16
-0.18
-0.18
-0.2
-0.195
-0.185
-0.185
-0.185
-0.205
-0.225
-0.2
-0.205
-0.19
-0.205
-0.225
-0.22
-0.235
-0.215
-0.2
-0.2
-0.215
-0.23
-0.225
-0.21
-0.205
-0.21
-0.24
-0.25
-0.255
-0.24
-0.205
-0.215
-0.225
-0.255
-0.26
-0.27
-0.245
-0.235
-0.25
-0.255
-0.245
-0.23
-0.235
-0.23
-0.25
-0.265
-0.25
-0.235
-0.21
-0.22
-0.24
-0.255
-0.245
-0.24
-0.21
-0.205
-0.195
-0.205
-0.205
-0.19
-0.18
-0.18
-0.175
-0.175
-0.16
-0.135
-0.125
-0.105
-0.1
-0.095
-0.08
-0.05
-0.025
-0.03
-0.03
-0.04
-0.025
0.01
0.03
0.02
0.015
0.005
0.015
0.03
0.045
0.02
0.01
-0.015
-0.005
-0.015
-0.03
-0.03
-0.045
-0.055
-0.05
-0.03
-0.02
-0.03
-0.05
-0.075
-0.09
-0.085
-0.075
-0.075
-0.09
-0.09
-0.08
-0.075
-0.045
-0.065
-0.09
-0.105
-0.12
-0.095
-0.075
-0.08
-0.09
-0.1
-0.1
-0.09
-0.085
-0.09
-0.1
-0.1
-0.105
-0.105
-0.095
-0.08
-0.09
-0.095
-0.1
-0.115
-0.12
-0.13
-0.1
-0.085
-0.08
-0.055
-0.065
-0.08
-0.09
-0.105
-0.105
-0.115
-0.105
-0.095
-0.09
-0.09
-0.07
-0.065
-0.05
-0.06
-0.065
-0.09
-0.095
-0.07
-0.05
-0.04
-0.06
-0.075
-0.075
-0.055
-0.05
-0.06
-0.05
-0.05
-0.04
-0.03
-0.02
-0.03
-0.05
-0.07
-0.075
-0.07
-0.05
-0.035
-0.04
-0.05
-0.05
-0.04
-0.025
-0.025
-0.035
-0.055
-0.05
-0.04
-0.025
-0.025
-0.035
-0.045
-0.04
-0.015
0.0
0.0
-0.03
-0.055
-0.045
-0.035
-0.01
-0.015
-0.03
-0.03
-0.015
0.005
0.01
-0.005
-0.035
-0.025
-0.01
0.01
0.03
0.035
0.02
0.025
0.03
0.045
0.05
0.075
0.055
0.03
0.02
0.03
0.035
0.05
0.04
0.025
0.03
0.045
0.055
0.045
0.035
0.035
0.045
0.065
0.115
0.12
0.095
0.04
0.02
0.01
0.01
0.025
0.03
0.025
0.03
0.035
0.04
0.025
0.01
0.02
0.03
0.035
0.025
0.015
0.0
0.015
0.035
0.05
0.055
0.03
-0.02
-0.015
-0.02
0.005
0.02
0.005
-0.015
-0.005
0.025
0.03
0.035
0.03
0.015
0.035
0.045
0.06
0.085
0.08
0.1
0.11
0.175
0.255
0.33
0.375
0.43
0.5
0.64
0.795
0.93
1.025
1.11
1.19
1.285
1.415
1.595
1.77
1.875
1.895
1.78
1.465
1.02
0.58
0.27
0.135
0.055
0.015
0.015
0.005
0.005
-0.015
-0.025
-0.005
0.01
-0.015
-0.06
-0.085
-0.095
-0.07
-0.055
-0.06
-0.07
-0.075
-0.075
-0.055
-0.06
-0.065
-0.08
-0.095
-0.095
-0.08
-0.065
-0.06
-0.085
-0.095
-0.08
-0.08
-0.06
-0.065
-0.09
-0.105
-0.1
-0.07
-0.065
-0.1
-0.13
-0.14
-0.125
-0.105
-0.09
-0.09
-0.105
-0.1
-0.1
-0.095
-0.07
-0.105
-0.13
-0.15
-0.15
-0.12
-0.11
-0.11
-0.12
-0.145
-0.13
-0.13
-0.125
-0.145
-0.155
-0.16
-0.145
-0.135
-0.15
-0.15
-0.155
-0.17
-0.15
-0.135
-0.125
-0.115
-0.125
-0.13
-0.115
-0.08
-0.075
-0.055
-0.055
-0.05
-0.015
0.0
0.035
0.04
0.045
0.055
0.075
0.115
0.135
0.14
0.14
0.135
0.14
0.15
0.155
0.155
0.155
0.145
0.15
0.155
0.135
0.11
0.095
0.085
0.1
0.11
0.125
0.115
0.1
0.1
0.085
0.1
0.105
0.1
0.085
0.065
0.07
0.09
0.1
0.09
0.085
0.07
0.07
0.085
0.105
0.12
0.1
0.08
0.05
0.055
0.055
0.08
0.07
0.045
0.065
0.075
0.085
0.075
0.05
0.04
0.04
0.055
0.08
0.07
0.055
0.05
0.055
0.07
0.085
0.085
0.065
0.06
0.07
0.085
0.11
0.105
0.09
0.075
0.085
0.105
0.105
0.105
0.085
0.09
0.085
0.1
0.1
0.1
0.09
0.08
0.085
0.09
0.105
0.1
