Lead II
0.585
0.49
0.34
0.16
0.015
-0.04
-0.055
-0.085
-0.16
-0.215
-0.265
-0.31
-0.335
-0.36
-0.385
-0.405
-0.42
-0.43
-0.425
-0.43
-0.435
-0.42
-0.425
-0.4
-0.375
-0.375
-0.38
-0.39
-0.385
-0.38
-0.365
-0.37
-0.365
-0.385
-0.375
-0.36
-0.355
-0.33
-0.33
-0.34
-0.365
-0.355
-0.33
-0.31
-0.305
-0.315
-0.315
-0.305
-0.3
-0.29
-0.29
-0.3
-0.29
-0.295
-0.285
-0.285
-0.28
-0.28
-0.275
-0.265
-0.245
-0.24
-0.24
-0.25
-0.25
-0.22
-0.195
-0.185
-0.2
-0.205
-0.2
-0.195
-0.17
-0.165
-0.14
-0.135
-0.135
-0.13
-0.105
-0.08
-0.07
-0.06
-0.06
-0.045
-0.03
-0.02
-0.015
-0.005
0.005
0.025
0.035
0.055
0.045
0.05
0.04
0.055
0.075
0.09
0.085
0.065
0.04
0.04
0.05
0.05
0.04
0.015
0.0
0.0
0.005
-0.005
-0.01
-0.02
-0.035
-0.035
-0.04
-0.04
-0.06
-0.065
-0.07
-0.055
-0.05
-0.06
-0.06
-0.065
-0.08
-0.085
-0.07
-0.075
-0.08
-0.105
-0.1
-0.085
-0.07
-0.06
-0.065
-0.085
-0.1
-0.085
-0.075
-0.08
-0.075
-0.065
-0.07
-0.085
-0.08
-0.085
-0.08
-0.08
-0.085
-0.09
-0.08
-0.08
-0.08
-0.095
-0.09
-0.095
-0.1
-0.085
-0.095
-0.1
-0.11
-0.095
-0.085
-0.065
-0.07
-0.085
-0.1
-0.115
-0.1
-0.09
-0.1
-0.095
-0.105
-0.115
-0.12
-0.115
-0.11
-0.115
-0.13
-0.13
-0.13
-0.115
-0.105
-0.1
-0.11
-0.095
-0.08
-0.065
-0.055
-0.04
-0.015
-0.015
-0.025
-0.04
-0.04
-0.03
-0.01
0.02
0.045
0.07
0.08
0.09
0.1
0.125
0.14
0.135
0.125
0.09
0.09
0.085
0.09
0.075
0.03
-0.025
-0.075
-0.115
-0.12
-0.13
-0.14
-0.15
-0.16
-0.165
-0.145
-0.15
-0.165
-0.18
-0.175
-0.155
-0.14
-0.135
-0.135
-0.155
-0.17
-0.175
-0.15
-0.135
-0.13
-0.15
-0.14
-0.145
-0.13
-0.125
-0.13
-0.135
-0.16
-0.145
-0.125
-0.1
-0.035
0.07
0.2
0.375
0.57
0.78
0.945
1.115
1.245
1.35
1.425
1.43
1.32
1.11
0.875
0.735
0.645
0.54
0.39
0.215
0.11
0.09
0.06
0.0
-0.075
-0.135
-0.16
-0.185
-0.21
-0.255
-0.29
-0.31
-0.33
-0.32
-0.31
-0.31
-0.32
-0.31
-0.315
-0.305
-0.3
-0.29
-0.3
-0.31
-0.305
-0.295
-0.27
-0.26
-0.25
-0.27
-0.28
-0.265
-0.25
-0.24
-0.245
-0.25
-0.24
-0.24
-0.23
-0.24
-0.24
-0.235
-0.25
-0.235
-0.24
-0.225
-0.225
-0.235
-0.22
-0.205
-0.19
-0.195
-0.215
-0.225
-0.225
-0.22
-0.21
-0.2
-0.205
-0.235
-0.22
-0.2
-0.18
-0.175
-0.165
-0.175
-0.18
-0.175
-0.15
-0.13
-0.125
-0.125
-0.125
-0.105
-0.07
-0.05
-0.035
-0.04
-0.025
-0.03
-0.01
0.02
0.03
0.04
0.04
0.07
0.075
0.075
0.05
0.055
0.065
0.08
0.07
0.05
0.04
0.01
0.0
-0.01
-0.015
-0.015
-0.025
-0.05
-0.065
-0.055
-0.05
-0.04
-0.06
-0.07
-0.08
-0.09
-0.085
-0.095
-0.13
-0.145
-0.155
-0.125
-0.08
-0.065
-0.065
-0.07
-0.075
-0.055
-0.045
-0.045
-0.035
-0.04
-0.08
-0.1
-0.105
-0.095
-0.075
-0.095
-0.115
-0.135
-0.17
-0.17
-0.18
-0.185
-0.175
-0.15
-0.16
-0.185
-0.18
-0.18
-0.19
-0.19
-0.17
-0.175
-0.18
-0.18
-0.195
-0.19
-0.165
-0.165
-0.16
-0.175
-0.17
-0.17
-0.155
-0.145
-0.15
-0.145
-0.155
-0.16
-0.135
-0.14
-0.11
-0.1
-0.085
-0.055
-0.025
0.0
0.01
0.005
-0.015
0.005
0.045
0.07
0.075
0.07
0.07
0.105
0.11
0.11
0.115
0.095
0.075
0.07
0.08
0.075
0.07
0.035
-0.03
-0.065
-0.105
-0.095
-0.085
-0.11
-0.13
-0.15
-0.15
-0.14
-0.15
-0.145
-0.155
-0.155
-0.155
-0.165
-0.165
-0.175
-0.17
-0.16
-0.14
-0.14
-0.155
-0.15
-0.145
-0.13
-0.125
-0.115
-0.11
-0.115
-0.12
-0.095
-0.05
0.035
0.165
0.335
0.545
0.78
0.995
1.15
1.265
1.33
1.395
1.4
1.285
1.055
0.84
0.71
0.615
0.51
0.355
0.23
0.14
0.08
0.015
-0.065
-0.125
-0.15
-0.185
-0.235
-0.315
-0.315
-0.3
-0.31
-0.345
-0.38
-0.39
-0.36
-0.33
-0.305
-0.32
-0.34
-0.35
-0.33
-0.29
-0.285
-0.295
-0.31
-0.31
-0.305
-0.28
-0.275
-0.285
-0.285
-0.305
-0.295
-0.285
-0.28
-0.29
-0.295
-0.315
-0.305
-0.285
-0.265
-0.265
-0.275
-0.285
-0.27
-0.26
-0.26
-0.265
-0.27
-0.265
-0.265
-0.245
-0.25
-0.245
-0.25
-0.245
-0.25
-0.235
-0.215
-0.23
-0.225
-0.22
-0.2
-0.2
-0.185
-0.165
-0.155
-0.15
-0.135
-0.11
-0.105
-0.115
-0.11
-0.09
-0.07
-0.035
-0.015
-0.025
-0.015
-0.01
0.0
0.02
0.03
0.015
0.025
0.03
0.035
0.05
0.05
0.03
0.005
-0.005
0.0
-0.01
-0.015
-0.03
-0.055
-0.065
-0.05
-0.055
-0.055
-0.08
-0.105
-0.115
-0.105
-0.1
-0.11
-0.12
-0.125
-0.12
-0.11
-0.105
-0.105
-0.125
-0.15
-0.15
-0.13
-0.13
-0.13
-0.14
-0.14
-0.15
-0.125
-0.125
-0.13
-0.145
-0.15
-0.165
-0.15
-0.145
-0.145
-0.155
-0.165
-0.165
-0.165
-0.145
-0.14
-0.15
-0.155
-0.18
-0.16
-0.135
-0.125
-0.13
-0.145
-0.16
-0.16
-0.15
-0.145
-0.125
-0.13
-0.155
-0.15
-0.14
-0.125
-0.13
-0.145
-0.155
-0.155
-0.135
-0.135
-0.125
-0.135
-0.14
-0.135
-0.105
-0.085
-0.065
-0.07
-0.07
-0.055
-0.08
-0.08
-0.075
-0.065
-0.04
-0.015
-0.01
-0.015
-0.03
-0.04
-0.03
-0.035
-0.02
-0.025
-0.05
-0.07
-0.085
-0.095
-0.125
-0.17
-0.23
-0.26
-0.265
-0.26
-0.245
-0.225
-0.215
-0.23
-0.235
-0.215
-0.195
-0.19
-0.2
-0.205
-0.2
-0.185
-0.175
-0.175
-0.165
-0.16
-0.165
-0.16
-0.15
-0.14
-0.14
-0.13
-0.155
-0.155
-0.13
-0.09
0.0
0.13
0.28
0.48
0.695
0.915
1.105
1.26
1.37
1.43
1.345
1.1
0.87
0.705
0.605
0.48
0.325
0.175
0.09
0.05
0.01
-0.045
-0.11
-0.165
-0.21
-0.245
-0.26
-0.26
-0.29
-0.31
-0.35
-0.385
-0.44
-0.435
-0.39
-0.33
-0.285
-0.295
-0.315
-0.35
-0.355
-0.365
-0.39
-0.405
-0.42
-0.43
-0.44
-0.46
-0.495
-0.515
-0.525
-0.53
-0.525
-0.525
-0.54
-0.54
-0.535
-0.52
-0.495
-0.475
-0.47
-0.475
-0.495
-0.495
-0.495
-0.505
-0.53
-0.53
-0.53
-0.535
-0.535
-0.535
-0.515
-0.5
-0.485
-0.445
-0.42
-0.435
-0.46
-0.44
-0.44
-0.42
-0.4
-0.39
-0.36
-0.34
-0.31
-0.26
-0.22
-0.16
-0.12
-0.095
-0.095
-0.08
-0.075
-0.08
-0.045
-0.015
-0.035
-0.065
-0.085
-0.105
-0.105
-0.13
-0.125
-0.11
-0.085
-0.1
-0.095
-0.07
-0.045
-0.035
-0.05
-0.075
-0.125
-0.155
-0.165
-0.14
-0.095
-0.09
-0.1
-0.13
-0.12
-0.08
-0.045
0.01
0.065
0.09
0.105
0.075
0.04
-0.015
-0.055
-0.08
-0.115
-0.12
-0.155
-0.19
-0.235
-0.255
-0.26
-0.25
-0.26
-0.26
-0.275
-0.3
-0.32
-0.325
-0.345
-0.37
-0.41
-0.42
-0.445
-0.45
-0.46
-0.47
-0.515
-0.56
-0.595
-0.58
-0.58
-0.585
-0.605
-0.62
-0.635
-0.65
-0.635
-0.615
-0.605
-0.62
-0.605
-0.585
-0.57
-0.56
-0.525
-0.525
-0.515
-0.495
-0.47
-0.42
-0.39
-0.38
-0.355
-0.32
-0.265
-0.245
-0.24
-0.22
-0.2
-0.185
-0.15
-0.105
-0.08
-0.075
-0.06
-0.06
-0.06
-0.075
-0.085
-0.055
-0.015
0.0
-0.02
-0.07
-0.135
-0.145
-0.15
-0.135
-0.14
-0.155
-0.19
-0.205
-0.185
-0.14
-0.095
-0.045
-0.025
-0.035
-0.035
-0.03
-0.03
-0.02
0.005
0.05
0.08
0.11
0.12
0.11
0.085
0.045
0.025
0.03
0.02
0.025
0.01
0.0
0.045
0.19
0.365
0.57
0.795
1.055
1.26
1.415
1.53
1.61
1.555
1.39
1.155
1.025
0.94
0.85
0.67
0.47
0.345
0.35
0.37
0.29
0.17
0.045
-0.04
-0.125
-0.165
-0.165
-0.165
-0.17
-0.2
-0.225
-0.21
-0.18
-0.175
-0.175
-0.17
-0.18
-0.17
-0.17
-0.16
-0.15
-0.135
-0.12
-0.105
-0.08
-0.09
-0.095
-0.09
-0.085
-0.085
-0.085
-0.085
-0.08
-0.085
-0.105
-0.14
-0.17
-0.18
-0.16
-0.12
-0.085
-0.045
0.0
0.005
-0.055
-0.11
-0.12
-0.075
-0.05
-0.015
0.02
0.04
0.04
0.055
0.07
0.065
0.095
0.095
0.11
0.115
0.145
0.16
0.185
0.21
0.25
0.28
0.31
0.335
0.36
0.39
0.435
0.475
0.505
0.545
0.565
0.58
0.595
0.605
0.605
0.605
0.61
0.61
0.615
0.63
0.63
0.62
0.61
0.625
0.665
0.69
0.695
0.68
0.65
0.63
0.645
0.675
0.69
0.68
0.655
0.675
0.745
0.8
0.8
0.76
0.705
0.655
0.635
0.605
0.59
0.545
0.495
0.47
0.45
0.405
0.37
0.33
0.26
0.17
0.115
0.09
0.07
0.035
-0.045
-0.12
-0.13
-0.095
-0.1
-0.115
-0.115
-0.1
-0.055
-0.04
-0.055
-0.07
-0.1
-0.135
-0.195
-0.22
-0.25
-0.28
-0.33
-0.365
-0.39
-0.385
-0.38
-0.37
-0.385
-0.42
-0.465
-0.5
-0.54
-0.565
-0.575
-0.6
-0.635
-0.7
-0.76
-0.825
-0.855
-0.875
-0.865
-0.855
-0.87
-0.855
-0.83
-0.8
-0.75
-0.71
-0.69
-0.69
-0.73
-0.775
-0.81
-0.82
-0.805
-0.82
-0.845
-0.88
-0.875
-0.815
-0.71
-0.605
-0.53
-0.49
-0.455
-0.405
-0.345
-0.275
-0.22
-0.17
-0.08
0.005
0.06
0.045
0.03
0.015
0.055
0.05
0.045
0.035
0.03
0.03
0.03
0.015
-0.025
-0.08
-0.12
-0.185
-0.24
-0.3
-0.375
-0.44
-0.5
-0.52
-0.545
-0.56
-0.585
-0.535
-0.45
-0.32
-0.135
0.04
0.27
0.485
0.685
0.815
0.945
1.025
1.005
0.92
0.79
0.69
0.645
0.6
0.53
0.415
0.32
0.28
0.345
0.4
0.435
0.46
0.465
0.44
0.395
0.38
0.38
0.415
0.41
0.4
0.385
0.355
0.29
0.235
0.175
0.145
0.16
0.175
0.195
0.185
0.15
0.11
0.095
0.12
0.16
0.165
0.17
0.17
0.16
0.175
0.205
0.24
0.31
0.355
0.435
0.49
0.51
0.49
0.45
0.37
0.285
0.195
0.105
0.025
-0.03
-0.08
-0.095
-0.105
-0.145
-0.175
-0.225
-0.24
-0.25
-0.25
-0.265
-0.265
-0.245
-0.165
-0.085
-0.06
-0.135
-0.275
-0.44
-0.55
-0.565
-0.5
-0.385
-0.27
-0.195
-0.18
-0.235
-0.33
-0.425
-0.445
-0.405
-0.285
-0.13
-0.035
-0.055
-0.22
-0.445
-0.63
-0.685
-0.63
-0.5
-0.395
-0.34
-0.395
-0.5
-0.595
-0.655
-0.675
-0.65
-0.62
-0.575
-0.55
-0.56
-0.58
-0.575
-0.515
-0.445
-0.4
-0.415
-0.48
-0.535
-0.565
-0.6
-0.585
-0.515
-0.43
-0.41
-0.445
-0.47
-0.505
-0.555
-0.61
-0.66
-0.71
-0.73
-0.7
-0.67
-0.625
-0.6
-0.635
-0.695
-0.785
-0.845
-0.85
-0.8
-0.76
-0.755
-0.82
-0.89
-0.945
-0.97
-0.985
-1.025
-1.055
-1.08
-1.05
-0.92
-0.75
-0.64
-0.685
-0.78
-0.845
-0.85
-0.78
-0.68
-0.585
-0.515
-0.43
-0.275
-0.09
0.095
0.19
0.22
0.2
0.23
0.255
0.325
0.325
0.245
0.115
0.035
0.035
0.125
0.24
0.39
0.555
0.625
0.615
0.57
0.52
0.435
0.375
0.385
0.435
0.525
0.59
0.585
0.525
0.435
0.32
0.28
0.34
0.42
0.445
0.435
0.47
0.595
0.68
0.665
0.515
0.255
0.04
-0.04
0.035
0.245
0.465
0.58
0.485
0.3
0.15
0.12
0.19
0.26
0.32
0.41
0.485
0.465
0.365
0.245
0.17
0.295
0.525
0.725
0.805
0.725
0.585
0.46
0.46
0.65
0.975
1.335
1.61
1.755
1.795
1.79
1.72
1.535
1.26
0.975
0.76
0.65
0.635
0.66
0.625
0.49
0.265
0.03
-0.065
-0.03
0.1
0.195
0.15
-0.02
-0.285
-0.515
-0.655
-0.675
-0.56
-0.4
-0.255
-0.18
-0.155
-0.16
-0.215
-0.35
-0.47
-0.52
-0.51
-0.4
-0.27
-0.2
-0.23
-0.325
-0.39
-0.43
-0.455
-0.48
-0.515
-0.455
-0.31
-0.175
-0.15
-0.245
-0.375
-0.43
-0.445
-0.375
-0.295
-0.21
-0.135
-0.09
-0.085
-0.11
-0.155
-0.185
-0.185
-0.165
-0.085
0.0
0.065
0.09
0.055
-0.03
-0.12
-0.175
-0.155
-0.09
-0.01
0.085
0.175
0.23
0.215
0.145
0.085
0.055
0.09
0.125
0.14
0.125
0.145
0.205
0.27
0.355
0.415
0.455
0.46
0.48
0.505
0.54
0.59
0.625
0.655
0.69
0.715
0.705
0.66
0.595
0.545
0.53
0.535
0.55
0.575
0.555
0.53
0.51
0.51
0.515
0.49
0.445
0.42
0.42
0.415
0.39
0.34
0.265
0.195
0.155
0.145
0.14
0.115
0.055
-0.005
-0.05
-0.09
-0.13
-0.17
-0.195
-0.23
-0.25
-0.27
-0.285
-0.26
-0.24
-0.2
-0.15
-0.1
-0.065
-0.03
-0.03
-0.05
-0.06
-0.065
-0.04
-0.02
0.015
0.035
0.025
-0.02
-0.09
-0.2
-0.3
-0.375
-0.46
-0.545
-0.645
-0.72
-0.8
-0.895
-0.97
-1.05
-1.095
-1.145
-1.165
-1.175
-1.165
-1.17
-1.155
-1.17
-1.175
-1.22
-1.28
-1.295
-1.245
-1.195
-1.155
-1.145
-1.12
-1.085
-0.995
-0.865
-0.76
-0.69
-0.675
-0.675
-0.68
-0.675
-0.645
-0.63
-0.605
-0.575
-0.53
-0.51
-0.545
-0.605
-0.645
-0.675
-0.665
-0.65
-0.64
-0.675
-0.74
-0.79
-0.84
-0.86
-0.855
-0.84
-0.845
-0.855
-0.83
-0.775
-0.71
-0.665
-0.645
-0.64
-0.615
-0.545
-0.455
-0.385
-0.38
-0.41
-0.455
-0.5
-0.475
-0.435
-0.385
-0.34
-0.3
-0.265
-0.22
-0.19
-0.145
-0.13
-0.105
-0.105
-0.095
-0.08
-0.005
0.135
0.3
0.48
0.655
0.825
1.025
1.21
1.385
1.495
1.52
1.455
1.32
1.135
1.02
0.96
0.91
0.83
0.685
0.565
0.485
0.445
0.405
0.335
0.235
0.16
0.11
0.075
0.05
0.015
-0.01
-0.02
-0.005
0.02
0.05
0.075
0.11
0.145
0.185
0.215
0.235
0.24
0.23
0.2
0.18
0.14
0.105
0.085
0.08
0.095
0.11
0.105
0.085
0.055
0.025
0.015
0.005
0.0
-0.02
-0.035
-0.03
-0.05
-0.06
-0.055
-0.05
-0.045
-0.045
-0.055
-0.05
-0.025
-0.025
0.0
0.01
0.01
0.01
-0.005
-0.035
-0.075
-0.125
-0.165
-0.185
-0.225
-0.255
-0.275
-0.275
-0.29
-0.285
-0.275
-0.255
-0.25
-0.255
-0.275
-0.255
-0.255
-0.265
-0.285
-0.33
-0.33
-0.315
-0.28
-0.285
-0.315
-0.355
-0.385
-0.37
-0.345
-0.31
-0.295
-0.285
-0.26
-0.235
-0.21
-0.195
-0.2
-0.21
-0.21
-0.175
-0.135
-0.11
-0.1
-0.095
-0.075
-0.04
0.0
0.02
0.025
0.035
0.0
-0.045
-0.085
-0.095
-0.095
-0.03
0.065
0.15
0.17
0.155
0.13
0.145
0.19
0.21
0.195
0.15
0.13
0.095
0.04
-0.01
-0.05
-0.11
-0.155
-0.205
-0.245
-0.245
-0.24
-0.24
-0.23
-0.23
-0.255
-0.285
-0.325
-0.365
-0.39
-0.41
-0.445
-0.475
-0.51
-0.54
-0.58
-0.595
-0.615
-0.63
-0.61
-0.625
-0.63
-0.64
-0.65
-0.64
-0.595
-0.565
-0.56
-0.54
-0.53
-0.525
-0.495
-0.49
-0.48
-0.475
-0.49
-0.475
-0.465
-0.45
-0.445
-0.46
-0.445
-0.42
-0.4
-0.37
-0.345
-0.3
-0.275
-0.225
-0.2
-0.175
-0.15
-0.14
-0.13
-0.12
-0.09
-0.055
-0.03
-0.015
-0.015
-0.01
-0.02
-0.01
0.005
0.01
0.01
0.025
0.01
0.0
0.0
-0.035
-0.06
-0.08
-0.115
-0.145
-0.21
-0.25
-0.27
-0.265
-0.25
-0.25
-0.235
-0.225
-0.235
-0.235
-0.22
-0.205
-0.175
-0.175
-0.17
-0.15
-0.15
-0.19
-0.21
-0.235
-0.27
-0.295
-0.305
-0.285
-0.28
-0.295
-0.305
-0.305
-0.305
-0.305
-0.32
-0.35
-0.37
-0.365
-0.325
-0.24
-0.115
0.04
0.2
0.37
0.555
0.74
0.9
1.0
1.065
1.09
0.975
0.8
0.635
0.525
0.485
0.46
0.35
0.195
0.08
0.025
-0.015
-0.065
-0.125
-0.2
-0.29
-0.335
-0.375
-0.385
-0.37
-0.38
-0.385
-0.38
-0.395
-0.39
-0.39
-0.4
-0.415
-0.425
-0.42
-0.405
-0.365
-0.34
-0.32
-0.32
-0.32
-0.315
-0.32
-0.305
-0.29
-0.28
-0.265
-0.25
-0.26
-0.265
-0.29
-0.31
-0.345
-0.33
-0.32
-0.33
-0.33
-0.35
-0.365
-0.355
-0.345
-0.31
-0.305
-0.32
-0.325
-0.305
-0.305
-0.285
-0.285
-0.315
-0.34
-0.35
-0.34
-0.35
-0.355
-0.355
-0.335
-0.33
-0.3
-0.295
-0.295
-0.29
-0.275
-0.275
-0.255
-0.245
-0.24
-0.23
-0.205
-0.175
-0.16
-0.165
-0.18
-0.19
-0.185
-0.175
-0.15
-0.13
-0.12
-0.115
-0.125
-0.095
-0.08
-0.06
-0.04
-0.04
-0.045
-0.04
-0.025
-0.025
-0.045
-0.065
-0.06
-0.065
-0.05
-0.065
-0.07
-0.09
-0.09
-0.08
-0.065
-0.085
-0.115
-0.17
-0.19
-0.2
-0.2
-0.205
-0.195
-0.22
-0.225
-0.235
-0.235
-0.23
-0.235
-0.26
-0.28
-0.285
-0.275
-0.285
-0.29
-0.31
-0.325
-0.32
-0.32
-0.32
-0.31
-0.315
-0.325
-0.33
-0.32
-0.34
-0.335
-0.315
-0.32
-0.31
-0.305
-0.33
-0.345
-0.365
-0.365
-0.355
-0.355
-0.345
-0.36
-0.385
-0.4
-0.405
-0.41
-0.415
-0.425
-0.435
-0.445
-0.44
-0.44
-0.435
-0.435
-0.44
-0.46
-0.46
-0.45
-0.435
-0.425
-0.425
-0.44
-0.41
-0.38
-0.345
-0.32
-0.31
-0.28
-0.255
-0.23
-0.21
-0.195
-0.19
-0.195
-0.21
-0.215
-0.215
-0.23
-0.25
-0.265
-0.28
-0.29
-0.34
-0.395
-0.435
-0.455
-0.445
-0.435
-0.45
-0.445
-0.465
-0.46
-0.46
-0.435
-0.425
-0.435
-0.44
-0.465
-0.465
-0.465
-0.44
-0.435
-0.415
-0.38
-0.35
-0.34
-0.37
-0.395
-0.415
-0.42
-0.39
-0.37
-0.35
-0.35
-0.335
-0.32
-0.275
-0.18
-0.045
0.08
0.225
0.38
0.59
0.775
0.915
0.97
0.975
0.89
0.72
0.51
0.31
0.18
0.09
0.02
-0.07
-0.17
-0.23
-0.285
-0.36
-0.455
-0.52
-0.565
-0.585
-0.605
-0.63
-0.645
-0.64
-0.645
-0.66
-0.67
-0.69
-0.7
-0.7
-0.7
-0.705
-0.695
-0.69
-0.67
-0.665
-0.675
-0.71
-0.745
-0.75
-0.72
-0.68
-0.66
-0.68
-0.685
-0.69
-0.68
-0.66
-0.65
-0.63
-0.63
-0.63
-0.625
-0.62
-0.605
-0.58
-0.58
-0.57
-0.585
-0.565
-0.555
-0.545
-0.535
-0.525
-0.525
-0.495
-0.495
-0.485
-0.5
-0.5
-0.51
-0.515
-0.515
-0.545
-0.555
-0.545
-0.53
-0.51
-0.505
-0.54
-0.565
-0.575
-0.57
-0.54
-0.495
-0.47
-0.46
-0.465
-0.465
-0.44
-0.42
-0.425
-0.445
-0.445
-0.435
-0.385
-0.35
-0.325
-0.33
-0.32
-0.31
-0.29
-0.29
-0.28
-0.28
-0.285
-0.32
-0.34
-0.365
-0.34
-0.295
-0.27
-0.24
-0.26
-0.305
-0.35
-0.38
-0.395
-0.395
-0.365
-0.34
-0.33
-0.36
-0.415
-0.45
-0.465
-0.445
-0.445
-0.435
-0.445
-0.455
-0.46
-0.445
-0.405
-0.395
-0.41
-0.455
-0.475
-0.475
-0.485
-0.48
-0.485
-0.49
-0.49
-0.475
-0.485
-0.51
-0.535
-0.56
-0.56
-0.51
-0.45
-0.415
-0.43
-0.495
-0.525
-0.54
-0.55
-0.525
-0.485
-0.465
-0.44
-0.455
-0.475
-0.515
-0.535
-0.55
-0.555
-0.555
-0.555
-0.545
-0.54
-0.535
-0.535
-0.55
-0.595
-0.65
-0.655
-0.615
-0.575
-0.565
-0.54
-0.565
-0.58
-0.58
-0.54
-0.495
-0.47
-0.48
-0.475
-0.465
-0.45
-0.435
-0.395
-0.365
-0.335
-0.31
-0.27
-0.22
-0.21
-0.22
-0.27
-0.325
-0.33
-0.305
-0.3
-0.27
-0.27
-0.285
-0.325
-0.345
-0.375
-0.39
-0.39
-0.41
-0.405
-0.42
-0.425
-0.4
-0.365
-0.315
-0.295
-0.31
-0.345
-0.36
-0.36
-0.37
-0.37
-0.365
-0.36
-0.335
-0.3
-0.31
-0.32
-0.34
-0.34
-0.33
-0.33
-0.32
-0.31
-0.275
-0.24
-0.175
-0.06
0.12
0.36
0.585
0.805
1.04
1.21
1.31
1.33
1.285
1.145
0.935
0.7
0.58
0.49
0.395
0.24
0.095
0.01
-0.03
-0.085
-0.15
-0.22
-0.255
-0.295
-0.33
-0.37
-0.4
-0.42
-0.44
-0.505
-0.575
-0.585
-0.52
-0.45
-0.42
-0.435
-0.45
-0.455
-0.47
-0.515
-0.555
-0.57
-0.5
-0.365
-0.275
-0.285
-0.345
-0.405
-0.44
-0.445
-0.445
-0.465
-0.49
-0.465
-0.425
-0.38
-0.365
-0.37
-0.395
-0.435
-0.485
-0.54
-0.52
-0.475
-0.405
-0.375
-0.39
-0.43
-0.44
-0.435
-0.365
-0.32
-0.35
-0.44
-0.5
-0.5
-0.46
-0.4
-0.35
-0.32
-0.32
-0.34
-0.36
-0.385
-0.4
-0.39
-0.365
-0.335
-0.285
-0.27
-0.29
-0.31
-0.33
-0.31
-0.285
-0.245
-0.245
-0.23
-0.25
-0.26
-0.245
-0.23
-0.205
-0.19
-0.205
-0.265
-0.29
-0.305
-0.29
-0.28
-0.3
-0.33
-0.355
-0.335
-0.315
-0.28
-0.285
-0.305
-0.345
-0.37
-0.375
-0.31
-0.29
-0.295
-0.325
-0.365
-0.37
-0.315
-0.27
-0.265
-0.305
-0.34
-0.345
-0.33
-0.34
-0.35
-0.365
-0.345
-0.345
-0.355
-0.355
-0.36
-0.335
-0.295
-0.275
-0.28
-0.32
-0.345
-0.355
-0.345
-0.295
-0.26
-0.24
-0.245
-0.26
-0.245
-0.255
-0.255
-0.275
-0.305
-0.32
-0.305
-0.26
-0.185
-0.135
-0.125
-0.145
-0.165
-0.19
-0.22
-0.25
-0.27
-0.255
-0.24
-0.21
-0.2
-0.205
-0.215
-0.215
-0.21
-0.195
-0.2
-0.18
-0.185
-0.18
-0.205
-0.225
-0.225
-0.21
-0.18
-0.14
-0.13
-0.135
-0.145
-0.14
-0.14
-0.12
-0.135
-0.15
-0.165
-0.175
-0.17
-0.195
-0.22
-0.235
-0.26
-0.275
-0.32
-0.36
-0.405
-0.435
-0.435
-0.435
-0.44
-0.435
-0.45
-0.445
-0.445
-0.425
-0.42
-0.415
-0.405
-0.395
-0.355
-0.34
-0.34
-0.36
-0.37
-0.37
-0.35
-0.335
-0.33
-0.325
-0.305
-0.285
-0.265
-0.27
-0.245
-0.245
-0.215
-0.115
0.055
0.22
0.395
0.545
0.73
0.9
1.055
1.155
1.195
1.15
0.99
0.76
0.575
0.485
0.385
0.265
0.115
-0.02
-0.105
-0.175
-0.265
-0.345
-0.41
-0.44
-0.475
-0.505
-0.545
-0.58
-0.61
-0.605
-0.605
-0.6
-0.605
-0.605
-0.615
-0.635
-0.63
-0.59
-0.55
-0.51
-0.48
-0.48
-0.5
-0.505
-0.505
-0.525
-0.535
-0.535
-0.53
-0.525
-0.53
-0.525
-0.535
-0.53
-0.51
-0.51
-0.505
-0.52
-0.545
-0.555
-0.52
-0.5
-0.49
-0.52
-0.535
-0.53
-0.525
-0.51
-0.5
-0.51
-0.52
-0.52
-0.52
-0.515
-0.495
-0.465
-0.46
-0.46
-0.465
-0.465
-0.445
-0.42
-0.42
-0.415
-0.405
-0.385
-0.38
-0.375
-0.365
-0.345
-0.31
-0.305
-0.285
-0.285
-0.275
-0.26
-0.24
-0.22
-0.21
-0.205
-0.22
-0.215
-0.195
-0.17
-0.165
-0.18
-0.2
-0.24
-0.255
-0.28
-0.3
-0.28
-0.265
-0.255
-0.26
-0.25
-0.23
-0.23
-0.235
-0.21
-0.2
-0.215
-0.295
-0.385
-0.435
-0.42
-0.34
-0.29
-0.285
-0.335
-0.39
-0.42
-0.415
-0.415
-0.425
-0.425
-0.41
-0.44
-0.425
-0.44
-0.44
-0.45
-0.48
-0.48
-0.46
-0.39
-0.355
-0.36
-0.395
-0.445
-0.455
-0.445
-0.42
-0.4
-0.39
-0.385
-0.37
-0.365
-0.36
-0.36
-0.375
-0.365
-0.325
-0.3
-0.3
-0.28
-0.28
-0.305
-0.35
-0.38
-0.41
-0.41
-0.395
-0.365
-0.365
-0.38
-0.355
-0.31
-0.27
-0.24
-0.17
-0.13
-0.13
-0.175
-0.265
-0.33
-0.335
-0.29
-0.22
-0.16
-0.145
-0.105
-0.075
-0.1
-0.14
-0.195
-0.24
-0.235
-0.21
-0.2
-0.23
-0.27
-0.295
-0.295
-0.305
-0.32
-0.365
-0.405
-0.435
-0.45
-0.46
-0.425
-0.37
-0.345
-0.335
-0.36
-0.375
-0.415
-0.47
-0.495
-0.47
-0.425
-0.365
-0.295
-0.275
-0.28
-0.32
-0.335
-0.34
-0.35
-0.37
-0.385
-0.38
-0.36
-0.36
-0.325
-0.295
-0.24
-0.15
-0.02
0.14
0.325
0.54
0.75
0.92
1.025
1.085
1.1
1.025
0.855
0.65
0.485
0.415
0.38
0.3
0.15
-0.03
-0.135
-0.195
-0.25
-0.305
-0.34
-0.39
-0.425
-0.455
-0.49
-0.52
-0.555
-0.585
-0.62
-0.625
-0.655
-0.635
-0.62
-0.585
-0.555
-0.55
-0.525
-0.545
-0.575
-0.595
-0.6
-0.59
-0.59
-0.595
-0.585
-0.53
-0.475
-0.465
-0.48
-0.53
-0.565
-0.58
-0.56
-0.54
-0.525
-0.54
-0.56
-0.59
-0.59
-0.59
-0.62
-0.6
-0.565
-0.49
-0.455
-0.435
-0.455
-0.5
-0.54
-0.57
-0.575
-0.54
-0.52
-0.53
-0.54
-0.54
-0.485
-0.45
-0.43
-0.435
-0.405
-0.37
-0.38
-0.385
-0.4
-0.405
-0.39
-0.385
-0.35
-0.295
-0.24
-0.195
-0.18
-0.18
-0.19
-0.185
-0.185
-0.17
-0.18
-0.195
-0.245
-0.27
-0.26
-0.24
-0.23
-0.265
-0.29
-0.3
-0.325
-0.33
-0.35
-0.375
-0.405
-0.42
-0.445
-0.445
-0.45
-0.47
-0.515
-0.55
-0.55
-0.55
-0.565
-0.58
-0.575
-0.545
-0.54
-0.565
-0.6
-0.6
-0.605
-0.61
-0.605
-0.58
-0.56
-0.57
-0.585
-0.585
-0.585
-0.615
-0.68
-0.73
-0.745
-0.725
-0.705
-0.71
-0.7
-0.69
-0.675
-0.67
-0.705
-0.725
-0.745
-0.715
-0.7
-0.69
-0.705
-0.74
-0.77
-0.78
-0.775
-0.77
-0.76
-0.77
-0.755
-0.715
-0.69
-0.72
-0.77
-0.805
-0.825
-0.825
-0.825
-0.815
-0.795
-0.775
-0.78
-0.77
-0.765
-0.745
-0.74
-0.75
-0.78
-0.805
-0.79
-0.755
-0.715
-0.69
-0.655
-0.65
-0.665
-0.675
-0.66
-0.65
-0.66
-0.64
-0.645
-0.67
-0.67
-0.67
-0.69
-0.685
-0.695
-0.71
-0.755
-0.81
-0.83
-0.85
-0.88
-0.865
-0.84
-0.825
-0.82
-0.84
-0.86
-0.87
-0.88
-0.885
-0.905
-0.905
-0.885
-0.875
-0.88
-0.885
-0.91
-0.915
-0.88
-0.855
-0.83
-0.85
-0.88
-0.91
-0.895
-0.87
-0.795
-0.675
-0.525
-0.35
-0.185
-0.01
0.18
0.37
0.515
0.63
0.71
0.735
0.625
0.425
0.245
0.12
-0.005
-0.12
-0.27
-0.4
-0.47
-0.53
-0.61
-0.68
-0.74
-0.775
-0.825
-0.9
-0.975
-1.035
-1.06
-1.07
-1.08
-1.085
-1.1
-1.1
-1.11
-1.135
-1.14
-1.125
-1.105
-1.09
-1.11
-1.14
-1.135
-1.13
-1.135
-1.11
-1.11
-1.13
-1.14
-1.145
-1.145
-1.14
-1.13
-1.145
-1.135
-1.135
-1.135
-1.14
-1.14
-1.13
-1.115
-1.105
-1.09
-1.1
-1.075
-1.08
-1.08
-1.09
-1.085
-1.08
-1.075
-1.08
-1.07
-1.07
-1.07
-1.045
-1.045
-1.065
-1.09
-1.105
-1.09
-1.035
-1.0
-1.0
-0.995
-0.985
-0.955
-0.92
-0.92
-0.925
-0.94
-0.945
-0.93
-0.92
-0.885
-0.88
-0.895
-0.91
-0.905
-0.845
-0.795
-0.78
-0.79
-0.785
-0.79
-0.77
-0.775
-0.785
-0.78
-0.805
-0.825
-0.83
-0.835
-0.845
-0.84
-0.855
-0.885
-0.925
-0.94
-0.94
-0.915
-0.915
-0.925
-0.93
-0.92
-0.945
-0.965
-0.97
-0.955
-0.935
-0.925
-0.935
-0.945
-0.945
-0.95
-0.945
-0.935
-0.935
-0.94
-0.935
-0.96
-0.925
-0.9
-0.905
-0.92
-0.95
-0.97
-0.945
-0.92
-0.915
-0.92
-0.905
-0.9
-0.89
-0.87
-0.865
-0.85
-0.875
-0.9
-0.9
-0.895
-0.885
-0.88
-0.87
-0.865
-0.835
-0.825
-0.83
-0.85
-0.85
-0.845
-0.805
-0.805
-0.845
-0.885
-0.905
-0.885
-0.835
-0.785
-0.78
-0.8
-0.825
-0.835
-0.82
-0.79
-0.81
-0.83
-0.85
-0.845
-0.8
-0.755
-0.725
-0.725
-0.72
-0.715
-0.71
-0.71
-0.71
-0.7
-0.705
-0.725
-0.745
-0.74
-0.745
-0.77
-0.79
-0.795
-0.805
-0.82
-0.86
-0.9
-0.925
-0.94
-0.92
-0.895
-0.865
-0.86
-0.85
-0.865
-0.88
-0.895
-0.915
-0.91
-0.895
-0.885
-0.86
-0.85
-0.855
-0.89
-0.895
-0.905
-0.88
-0.84
-0.825
-0.84
-0.86
-0.885
-0.88
-0.835
-0.78
-0.675
-0.545
-0.375
-0.15
0.075
0.28
0.46
0.575
0.655
0.635
0.5
0.29
0.1
-0.015
-0.125
-0.23
-0.395
-0.53
-0.64
-0.705
-0.755
-0.815
-0.87
-0.925
-0.98
-1.0
-1.04
-1.025
-1.02
-1.03
-1.045
-1.075
-1.09
-1.085
-1.09
-1.07
-1.04
-1.0
-0.985
-0.98
-1.0
-1.02
-1.015
-1.03
-1.025
-1.015
-1.01
-0.995
-0.975
-0.995
-1.01
-0.995
-0.995
-1.02
-1.075
-1.07
-1.05
-1.01
-1.0
-0.995
-1.02
-1.06
-1.07
-1.055
-1.035
-1.015
-1.03
-1.05
-1.05
-1.015
-0.985
-0.975
-0.985
-1.01
-1.025
-1.005
-0.98
-0.975
-0.975
-0.98
-0.945
-0.91
-0.89
-0.885
-0.865
-0.855
-0.845
-0.83
-0.83
-0.83
-0.805
-0.785
-0.765
-0.745
-0.74
-0.72
-0.74
-0.78
-0.795
-0.78
-0.735
-0.725
-0.76
-0.775
-0.775
-0.75
-0.74
-0.765
-0.795
-0.825
-0.84
-0.815
-0.795
-0.81
-0.835
-0.85
-0.86
-0.85
-0.84
-0.82
-0.83
-0.86
-0.88
-0.87
-0.86
-0.835
-0.845
-0.86
-0.9
-0.905
-0.915
-0.895
-0.885
-0.87
-0.865
-0.86
-0.865
-0.875
-0.885
-0.875
-0.87
-0.85
-0.84
-0.85
-0.865
-0.875
-0.88
-0.875
-0.86
-0.88
-0.88
-0.9
-0.91
-0.905
-0.905
-0.9
-0.89
-0.895
-0.89
-0.88
-0.885
-0.91
-0.91
-0.91
-0.895
-0.87
-0.87
-0.875
-0.9
-0.915
-0.895
-0.875
-0.85
-0.835
-0.83
-0.845
-0.86
-0.86
-0.86
-0.87
-0.87
-0.875
-0.87
-0.85
