Lead II
-0.085
-0.07
-0.02
0.04
0.14
0.25
0.355
0.47
0.625
0.765
0.89
1.0
1.11
1.2
1.2
1.125
0.99
0.765
0.54
0.345
0.18
0.04
-0.07
-0.135
-0.175
-0.165
-0.16
-0.15
-0.15
-0.18
-0.21
-0.225
-0.22
-0.215
-0.245
-0.25
-0.26
-0.26
-0.27
-0.27
-0.265
-0.28
-0.295
-0.305
-0.305
-0.285
-0.285
-0.295
-0.305
-0.3
-0.295
-0.295
-0.275
-0.295
-0.29
-0.3
-0.295
-0.28
-0.275
-0.28
-0.295
-0.29
-0.295
-0.27
-0.265
-0.25
-0.275
-0.275
-0.265
-0.265
-0.245
-0.255
-0.265
-0.255
-0.245
-0.235
-0.21
-0.23
-0.25
-0.235
-0.225
-0.2
-0.195
-0.205
-0.2
-0.195
-0.18
-0.175
-0.16
-0.145
-0.155
-0.16
-0.135
-0.125
-0.09
-0.085
-0.11
-0.095
-0.075
-0.06
-0.035
-0.03
-0.025
-0.015
-0.005
0.01
0.03
0.03
0.03
0.035
0.065
0.09
0.105
0.105
0.095
0.095
0.095
0.13
0.135
0.12
0.1
0.085
0.07
0.075
0.055
0.04
0.01
-0.015
-0.02
-0.045
-0.065
-0.085
-0.105
-0.11
-0.125
-0.14
-0.14
-0.155
-0.195
-0.215
-0.225
-0.225
-0.22
-0.245
-0.25
-0.27
-0.265
-0.26
-0.265
-0.275
-0.275
-0.305
-0.28
-0.28
-0.27
-0.29
-0.3
-0.305
-0.305
-0.28
-0.27
-0.285
-0.295
-0.295
-0.29
-0.29
-0.27
-0.27
-0.28
-0.3
-0.285
-0.27
-0.265
-0.265
-0.275
-0.29
-0.275
-0.275
-0.26
-0.265
-0.28
-0.285
-0.285
-0.27
-0.255
-0.265
-0.295
-0.295
-0.285
-0.285
-0.255
-0.275
-0.28
-0.285
-0.275
-0.265
-0.265
-0.26
-0.285
-0.295
-0.29
-0.275
-0.26
-0.27
-0.28
-0.285
-0.285
-0.27
-0.275
-0.27
-0.295
-0.275
-0.285
-0.275
-0.27
-0.26
-0.28
-0.305
-0.275
-0.285
-0.275
-0.26
-0.28
-0.295
-0.28
-0.275
-0.26
-0.275
-0.305
-0.295
-0.29
-0.28
-0.27
-0.28
-0.31
-0.305
-0.315
-0.305
-0.295
-0.295
-0.3
-0.31
-0.295
-0.29
-0.285
-0.3
-0.305
-0.32
-0.3
-0.3
-0.285
-0.305
-0.32
-0.32
-0.305
-0.305
-0.29
-0.295
-0.305
-0.305
-0.3
-0.295
-0.285
-0.285
-0.31
-0.31
-0.29
-0.285
-0.29
-0.28
-0.31
-0.3
-0.295
-0.275
-0.275
-0.28
-0.29
-0.3
-0.295
-0.27
-0.275
-0.28
-0.29
-0.295
-0.295
-0.27
-0.26
-0.26
-0.275
-0.29
-0.275
-0.265
-0.245
-0.25
-0.275
-0.29
-0.28
-0.265
-0.26
-0.27
-0.28
-0.285
-0.285
-0.255
-0.25
-0.27
-0.285
-0.285
-0.265
-0.265
-0.26
-0.275
-0.28
-0.29
-0.285
-0.265
-0.265
-0.27
-0.28
-0.285
-0.275
-0.27
-0.26
-0.28
-0.3
-0.295
-0.28
-0.285
-0.27
-0.27
-0.285
-0.295
-0.3
-0.275
-0.255
-0.27
-0.285
-0.285
-0.27
-0.265
-0.28
-0.275
-0.29
-0.295
-0.285
-0.26
-0.25
-0.27
-0.275
-0.285
-0.295
-0.27
-0.25
-0.265
-0.28
-0.285
-0.265
-0.26
-0.265
-0.26
-0.275
-0.265
-0.27
-0.245
-0.245
-0.25
-0.255
-0.285
-0.275
-0.27
-0.26
-0.25
-0.265
-0.25
-0.24
-0.21
-0.195
-0.205
-0.195
-0.215
-0.2
-0.185
-0.18
-0.195
-0.21
-0.235
-0.23
-0.23
-0.235
-0.255
-0.265
-0.265
-0.27
-0.27
-0.245
-0.245
-0.27
-0.255
-0.265
-0.245
-0.23
-0.25
-0.25
-0.255
-0.245
-0.23
-0.23
-0.235
-0.24
-0.23
-0.22
-0.215
-0.2
-0.195
-0.185
-0.17
-0.135
-0.115
-0.07
-0.035
-0.005
0.075
0.19
0.315
0.44
0.56
0.655
0.77
0.87
1.0
1.1
1.18
1.155
1.07
0.955
0.82
0.64
0.445
0.27
0.115
0.015
-0.045
-0.085
-0.115
-0.12
-0.13
-0.145
-0.155
-0.165
-0.19
-0.23
-0.24
-0.24
-0.23
-0.245
-0.25
-0.29
-0.28
-0.29
-0.28
-0.275
-0.27
-0.285
-0.29
-0.275
-0.275
-0.28
-0.295
-0.305
-0.305
-0.29
-0.275
-0.265
-0.265
-0.285
-0.295
-0.28
-0.265
-0.25
-0.27
-0.275
-0.275
-0.26
-0.25
-0.25
-0.26
-0.28
-0.275
-0.275
-0.255
-0.255
-0.265
-0.27
-0.275
-0.25
-0.235
-0.235
-0.235
-0.245
-0.24
-0.23
-0.23
-0.2
-0.215
-0.215
-0.21
-0.2
-0.17
-0.165
-0.16
-0.16
-0.16
-0.155
-0.115
-0.105
-0.1
-0.115
-0.095
-0.08
-0.05
-0.04
-0.025
-0.045
-0.035
-0.015
-0.005
0.03
0.04
0.035
0.035
0.055
0.07
0.085
0.085
0.08
0.075
0.09
0.09
0.115
0.09
0.075
0.075
0.07
0.075
0.065
0.045
0.015
-0.015
-0.025
-0.03
-0.04
-0.075
-0.09
-0.12
-0.135
-0.135
-0.155
-0.19
-0.205
-0.225
-0.23
-0.235
-0.24
-0.255
-0.27
-0.285
-0.29
-0.28
-0.27
-0.28
-0.305
-0.305
-0.315
-0.3
-0.305
-0.305
-0.32
-0.325
-0.32
-0.31
-0.305
-0.3
-0.315
-0.325
-0.31
-0.31
-0.305
-0.315
-0.335
-0.33
-0.325
-0.315
-0.33
-0.33
-0.335
-0.345
-0.335
-0.325
-0.315
-0.34
-0.365
-0.37
-0.34
-0.33
-0.32
-0.335
-0.34
-0.355
-0.34
-0.33
-0.315
-0.33
-0.34
-0.35
-0.355
-0.33
-0.34
-0.35
-0.34
-0.34
-0.345
-0.32
-0.325
-0.325
-0.345
-0.345
-0.345
-0.33
-0.31
-0.315
-0.335
-0.34
-0.33
-0.305
-0.295
-0.315
-0.32
-0.335
-0.325
-0.325
-0.315
-0.315
-0.335
-0.345
-0.325
-0.31
-0.31
-0.3
-0.335
-0.33
-0.33
-0.305
-0.305
-0.315
-0.335
-0.34
-0.335
-0.315
-0.305
-0.32
-0.335
-0.34
-0.325
-0.315
-0.325
-0.325
-0.34
-0.35
-0.34
-0.345
-0.325
-0.315
-0.345
-0.345
-0.335
-0.33
-0.315
-0.33
-0.33
-0.34
-0.35
-0.335
-0.32
-0.305
-0.33
-0.325
-0.31
-0.315
-0.295
-0.3
-0.32
-0.315
-0.305
-0.31
-0.3
-0.31
-0.325
-0.315
-0.31
-0.3
-0.295
-0.295
-0.305
-0.33
-0.31
-0.305
-0.295
-0.3
-0.325
-0.33
-0.33
-0.3
-0.295
-0.305
-0.31
-0.335
-0.325
-0.315
-0.295
-0.295
-0.295
-0.305
-0.295
-0.295
-0.27
-0.28
-0.285
-0.305
-0.305
-0.285
-0.275
-0.285
-0.295
-0.3
-0.3
-0.29
-0.28
-0.285
-0.3
-0.31
-0.295
-0.29
-0.27
-0.285
-0.295
-0.3
-0.285
-0.285
-0.265
-0.275
-0.28
-0.295
-0.295
-0.27
-0.27
-0.28
-0.285
-0.3
-0.305
-0.28
-0.27
-0.27
-0.29
-0.31
-0.29
-0.27
-0.26
-0.27
-0.29
-0.3
-0.29
-0.28
-0.26
-0.27
-0.29
-0.29
-0.29
-0.27
-0.26
-0.275
-0.295
-0.3
-0.285
-0.275
-0.265
-0.27
-0.28
-0.295
-0.275
-0.265
-0.25
-0.26
-0.28
-0.285
-0.275
-0.26
-0.27
-0.27
-0.295
-0.295
-0.275
-0.255
-0.22
-0.22
-0.225
-0.235
-0.215
-0.185
-0.205
-0.205
-0.2
-0.21
-0.21
-0.2
-0.19
-0.22
-0.23
-0.24
-0.245
-0.245
-0.24
-0.255
-0.265
-0.27
-0.265
-0.25
-0.245
-0.275
-0.27
-0.265
-0.27
-0.235
-0.245
-0.25
-0.27
-0.275
-0.255
-0.24
-0.24
-0.25
-0.27
-0.27
-0.26
-0.225
-0.22
-0.205
-0.19
-0.19
-0.145
-0.105
-0.065
-0.01
0.06
0.165
0.3
0.445
0.575
0.705
0.795
0.905
1.045
1.15
1.18
1.115
0.98
0.81
0.61
0.42
0.24
0.09
-0.055
-0.155
-0.19
-0.175
-0.15
-0.155
-0.18
-0.21
-0.225
-0.22
-0.22
-0.245
-0.27
-0.29
-0.27
-0.265
-0.27
-0.28
-0.295
-0.305
-0.295
-0.285
-0.29
-0.275
-0.305
-0.315
-0.31
-0.305
-0.29
-0.29
-0.32
-0.31
-0.3
-0.295
-0.3
-0.285
-0.305
-0.31
-0.295
-0.275
-0.28
-0.285
-0.295
-0.29
-0.295
-0.265
-0.275
-0.27
-0.275
-0.29
-0.26
-0.25
-0.245
-0.245
-0.255
-0.27
-0.255
-0.225
-0.215
-0.225
-0.22
-0.23
-0.21
-0.21
-0.17
-0.19
-0.2
-0.205
-0.18
-0.14
-0.135
-0.13
-0.125
-0.115
-0.11
-0.08
-0.06
-0.055
-0.055
-0.045
-0.035
-0.015
0.01
0.015
0.01
0.02
0.035
0.06
0.065
0.055
0.06
0.065
0.095
0.105
0.105
0.12
0.09
0.08
0.09
0.1
0.085
0.065
0.055
0.04
0.01
0.015
-0.005
-0.03
-0.075
-0.095
-0.095
-0.115
-0.115
-0.15
-0.17
-0.2
-0.2
-0.185
-0.205
-0.225
-0.235
-0.255
-0.26
-0.22
-0.25
-0.26
-0.275
-0.295
-0.295
-0.275
-0.29
-0.285
-0.29
-0.305
-0.295
-0.285
-0.275
-0.295
-0.31
-0.315
-0.305
-0.285
-0.28
-0.29
-0.3
-0.32
-0.31
-0.3
-0.3
-0.29
-0.32
-0.31
-0.3
-0.285
-0.275
-0.29
-0.315
-0.315
-0.315
-0.285
-0.29
-0.29
-0.31
-0.3
-0.3
-0.275
-0.265
-0.275
-0.3
-0.285
-0.285
-0.285
-0.265
-0.26
-0.285
-0.285
-0.27
-0.295
-0.255
-0.265
-0.3
-0.29
-0.285
-0.255
-0.265
-0.275
-0.29
-0.285
-0.28
-0.265
-0.26
-0.27
-0.285
-0.29
-0.28
-0.28
-0.285
-0.28
-0.29
-0.295
-0.275
-0.265
-0.255
-0.27
-0.285
-0.295
-0.28
-0.27
-0.26
-0.27
-0.29
-0.3
-0.3
-0.275
-0.27
-0.27
-0.28
-0.29
-0.29
-0.27
-0.26
-0.265
-0.285
-0.285
-0.28
-0.28
-0.265
-0.275
-0.285
-0.3
-0.285
-0.265
-0.27
-0.265
-0.285
-0.285
-0.285
-0.27
-0.255
-0.265
-0.285
-0.285
-0.275
-0.26
-0.26
-0.275
-0.285
-0.29
-0.275
-0.28
-0.26
-0.275
-0.295
-0.295
-0.29
-0.27
-0.265
-0.27
-0.285
-0.3
-0.285
-0.265
-0.275
-0.275
-0.29
-0.295
-0.295
-0.28
-0.26
-0.275
-0.28
-0.295
-0.285
-0.26
-0.26
-0.265
-0.29
-0.305
-0.275
-0.26
-0.265
-0.285
-0.3
-0.29
-0.285
-0.275
-0.275
-0.28
-0.285
-0.295
-0.29
-0.27
-0.275
-0.285
-0.3
-0.295
-0.285
-0.28
-0.265
-0.28
-0.295
-0.28
-0.285
-0.27
-0.265
-0.275
-0.29
-0.29
-0.275
-0.255
-0.255
-0.265
-0.275
-0.28
-0.285
-0.265
-0.25
-0.255
-0.27
-0.27
-0.265
-0.245
-0.25
-0.265
-0.255
-0.265
-0.265
-0.245
-0.235
-0.25
-0.265
-0.255
-0.24
-0.245
-0.22
-0.22
-0.24
-0.24
-0.23
-0.22
-0.205
-0.24
-0.26
-0.265
-0.26
-0.225
-0.235
-0.255
-0.235
-0.22
-0.21
-0.185
-0.17
-0.18
-0.19
-0.175
-0.175
-0.16
-0.155
-0.175
-0.2
-0.215
-0.22
-0.2
-0.195
-0.215
-0.23
-0.245
-0.245
-0.225
-0.215
-0.225
-0.235
-0.25
-0.235
-0.21
-0.205
-0.225
-0.22
-0.23
-0.23
-0.225
-0.23
-0.21
-0.205
-0.215
-0.19
-0.185
-0.175
-0.165
-0.15
-0.12
-0.1
-0.05
-0.01
0.04
0.11
0.22
0.35
0.495
0.635
0.755
0.855
0.955
1.08
1.2
1.23
1.15
1.025
0.845
0.65
0.47
0.3
0.125
0.0
-0.09
-0.12
-0.105
-0.095
-0.12
-0.15
-0.175
-0.2
-0.19
-0.205
-0.23
-0.24
-0.245
-0.24
-0.235
-0.245
-0.25
-0.265
-0.275
-0.265
-0.26
-0.255
-0.26
-0.27
-0.265
-0.26
-0.245
-0.245
-0.25
-0.255
-0.26
-0.255
-0.235
-0.235
-0.245
-0.25
-0.255
-0.245
-0.225
-0.225
-0.225
-0.235
-0.245
-0.225
-0.205
-0.18
-0.19
-0.195
-0.2
-0.185
-0.17
-0.165
-0.17
-0.175
-0.18
-0.16
-0.14
-0.13
-0.135
-0.15
-0.125
-0.11
-0.1
-0.08
-0.09
-0.095
-0.08
-0.065
-0.04
-0.01
-0.03
-0.03
-0.01
-0.005
0.04
0.06
0.065
0.065
0.045
0.08
0.11
0.12
0.125
0.125
0.13
0.145
0.14
0.15
0.15
0.125
0.105
0.11
0.095
0.095
0.075
0.04
0.01
0.0
-0.005
-0.025
-0.055
-0.1
-0.115
-0.14
-0.14
-0.145
-0.185
-0.225
-0.22
-0.215
-0.22
-0.23
-0.245
-0.27
-0.275
-0.275
-0.27
-0.265
-0.27
-0.285
-0.3
-0.29
-0.27
-0.26
-0.28
-0.29
-0.3
-0.3
-0.275
-0.27
-0.27
-0.29
-0.3
-0.295
-0.27
-0.265
-0.27
-0.275
-0.28
-0.27
-0.27
-0.27
-0.27
-0.28
-0.285
-0.265
-0.255
-0.25
-0.25
-0.27
-0.265
-0.265
-0.255
-0.245
-0.255
-0.275
-0.275
-0.26
-0.25
-0.25
-0.25
-0.265
-0.27
-0.265
-0.25
-0.25
-0.26
-0.28
-0.29
-0.285
-0.265
-0.27
-0.27
-0.29
-0.295
-0.305
-0.28
-0.27
-0.275
-0.285
-0.295
-0.28
-0.275
-0.27
-0.28
-0.295
-0.3
-0.29
-0.285
-0.28
-0.285
-0.31
-0.31
-0.32
-0.3
-0.3
-0.3
-0.305
-0.305
-0.3
-0.3
-0.285
-0.285
-0.305
-0.315
-0.31
-0.305
-0.29
-0.295
-0.31
-0.315
-0.315
-0.3
-0.295
-0.29
-0.33
-0.32
-0.33
-0.3
-0.305
-0.31
-0.335
-0.325
-0.32
-0.31
-0.3
-0.305
-0.315
-0.315
-0.31
-0.31
-0.305
-0.305
-0.31
-0.32
-0.305
-0.29
-0.285
-0.28
-0.305
-0.305
-0.305
-0.285
-0.29
-0.28
-0.3
-0.31
-0.305
-0.295
-0.29
-0.29
-0.305
-0.315
-0.3
-0.285
-0.275
-0.28
-0.3
-0.305
-0.3
-0.285
-0.295
-0.285
-0.295
-0.295
-0.3
-0.285
-0.285
-0.285
-0.3
-0.305
-0.3
-0.29
-0.29
-0.3
-0.305
-0.315
-0.3
-0.285
-0.275
-0.295
-0.305
-0.31
-0.3
-0.285
-0.28
-0.29
-0.305
-0.3
-0.29
-0.28
-0.275
-0.295
-0.305
-0.31
-0.285
-0.285
-0.28
-0.28
-0.29
-0.29
-0.285
-0.275
-0.27
-0.28
-0.28
-0.285
-0.29
-0.275
-0.26
-0.26
-0.28
-0.28
-0.265
-0.265
-0.26
-0.25
-0.27
-0.275
-0.26
-0.24
-0.255
-0.265
-0.27
-0.275
-0.27
-0.27
-0.26
-0.285
-0.285
-0.29
-0.255
-0.235
-0.205
-0.205
-0.21
-0.21
-0.21
-0.2
-0.19
-0.185
-0.2
-0.22
-0.215
-0.215
-0.21
-0.245
-0.265
-0.25
-0.26
-0.24
-0.24
-0.235
-0.26
-0.28
-0.265
-0.255
-0.255
-0.24
-0.255
-0.255
-0.255
-0.23
-0.225
-0.22
-0.24
-0.245
-0.22
-0.195
-0.17
-0.175
-0.16
-0.13
-0.09
-0.05
0.015
0.105
0.2
0.32
0.47
0.625
0.77
0.865
0.97
1.085
1.15
1.13
1.005
0.815
0.595
0.39
0.22
0.08
-0.05
-0.14
-0.175
-0.18
-0.16
-0.145
-0.155
-0.19
-0.24
-0.255
-0.255
-0.25
-0.24
-0.26
-0.275
-0.285
-0.295
-0.275
-0.28
-0.29
-0.305
-0.32
-0.3
-0.28
-0.285
-0.31
-0.305
-0.305
-0.29
-0.285
-0.285
-0.29
-0.3
-0.31
-0.295
-0.275
-0.265
-0.29
-0.295
-0.29
-0.275
-0.27
-0.26
-0.265
-0.28
-0.275
-0.26
-0.255
-0.25
-0.235
-0.25
-0.25
-0.23
-0.21
-0.21
-0.215
-0.22
-0.215
-0.2
-0.175
-0.16
-0.155
-0.17
-0.155
-0.155
-0.125
-0.11
-0.105
-0.095
-0.105
-0.08
-0.055
-0.03
-0.035
-0.04
-0.02
-0.005
0.025
0.035
0.05
0.025
0.045
0.055
0.075
0.07
0.08
0.065
0.06
0.07
0.075
0.075
0.06
0.03
0.01
0.0
-0.01
-0.025
-0.04
-0.095
-0.125
-0.125
-0.11
-0.145
-0.175
-0.205
-0.22
-0.23
-0.225
-0.23
-0.265
-0.28
-0.3
-0.285
-0.285
-0.28
-0.31
-0.31
-0.325
-0.32
-0.3
-0.29
-0.305
-0.335
-0.325
-0.325
-0.315
-0.305
-0.31
-0.34
-0.345
-0.33
-0.31
-0.32
-0.335
-0.335
-0.33
-0.32
-0.305
-0.315
-0.325
-0.345
-0.33
-0.33
-0.325
-0.32
-0.32
-0.335
-0.345
-0.34
-0.33
-0.335
-0.345
-0.355
-0.36
-0.345
-0.335
-0.33
-0.345
-0.35
-0.37
-0.355
-0.345
-0.335
-0.345
-0.36
-0.37
-0.355
-0.34
-0.36
-0.365
-0.365
-0.35
-0.355
-0.34
-0.33
-0.345
-0.36
-0.385
-0.375
-0.345
-0.345
-0.345
-0.355
-0.365
-0.37
-0.36
-0.35
-0.35
-0.365
-0.375
-0.365
-0.36
-0.355
-0.365
-0.38
-0.37
-0.37
-0.355
-0.36
-0.355
-0.355
-0.365
-0.365
-0.35
-0.355
-0.37
-0.38
-0.38
-0.38
-0.35
-0.355
-0.36
-0.36
-0.385
-0.38
-0.355
-0.35
-0.345
-0.36
-0.375
-0.355
-0.35
-0.35
-0.36
-0.38
-0.375
-0.37
-0.35
-0.35
-0.355
-0.385
-0.375
-0.375
-0.355
-0.35
-0.355
-0.375
-0.38
-0.36
-0.34
-0.34
-0.34
-0.37
-0.39
-0.37
-0.35
-0.34
-0.35
-0.355
-0.365
-0.365
-0.365
-0.34
-0.35
-0.365
-0.375
-0.365
-0.365
-0.35
-0.355
-0.36
-0.37
-0.37
-0.345
-0.36
-0.37
-0.375
-0.385
-0.37
-0.345
-0.35
-0.35
-0.355
-0.37
-0.36
-0.345
-0.33
-0.35
-0.37
-0.355
-0.35
-0.345
-0.335
-0.33
-0.345
-0.34
-0.34
-0.33
-0.325
-0.33
-0.33
-0.35
-0.335
-0.325
-0.33
-0.315
-0.315
-0.345
-0.325
-0.315
-0.315
-0.33
-0.335
-0.35
-0.335
-0.31
-0.31
-0.325
-0.335
-0.33
-0.335
-0.33
-0.315
-0.325
-0.34
-0.34
-0.335
-0.325
-0.31
-0.305
-0.315
-0.32
-0.31
-0.305
-0.305
-0.3
-0.32
-0.325
-0.31
-0.305
-0.295
-0.315
-0.335
-0.335
-0.32
-0.29
-0.285
-0.27
-0.275
-0.275
-0.26
-0.24
-0.225
-0.24
-0.255
-0.275
-0.25
-0.24
-0.245
-0.26
-0.275
-0.295
-0.29
-0.27
-0.285
-0.295
-0.325
-0.305
-0.29
-0.28
-0.285
-0.295
-0.29
-0.3
-0.29
-0.285
-0.275
-0.28
-0.295
-0.28
-0.275
-0.25
-0.25
-0.255
-0.265
-0.26
-0.24
-0.205
-0.17
-0.15
-0.145
-0.11
-0.045
0.04
0.16
0.255
0.39
0.52
0.66
0.8
0.91
1.045
1.155
1.215
1.175
1.065
0.88
0.67
0.47
0.28
0.135
-0.005
-0.1
-0.175
-0.2
-0.195
-0.19
-0.185
-0.195
-0.22
-0.245
-0.27
-0.275
-0.27
-0.275
-0.285
-0.31
-0.32
-0.315
-0.3
-0.295
-0.32
-0.325
-0.32
-0.31
-0.315
-0.3
-0.31
-0.33
-0.345
-0.325
-0.315
-0.315
-0.315
-0.32
-0.33
-0.325
-0.32
-0.31
-0.31
-0.31
-0.32
-0.315
-0.295
-0.29
-0.295
-0.3
-0.31
-0.305
-0.265
-0.27
-0.265
-0.275
-0.27
-0.275
-0.25
-0.255
-0.255
-0.255
-0.245
-0.23
-0.215
-0.205
-0.21
-0.22
-0.22
-0.195
-0.17
-0.17
-0.18
-0.165
-0.17
-0.145
-0.135
-0.125
-0.115
-0.12
-0.105
-0.09
-0.065
-0.05
-0.04
-0.06
-0.055
-0.025
-0.005
0.0
0.005
0.0
0.01
0.03
0.055
0.065
0.06
0.05
0.06
0.075
0.08
0.08
0.07
0.055
0.04
0.045
0.05
0.03
0.01
-0.025
-0.045
-0.055
-0.07
-0.07
-0.105
-0.14
-0.155
-0.155
-0.16
-0.17
-0.205
-0.225
-0.245
-0.255
-0.235
-0.24
-0.265
-0.285
-0.31
-0.295
-0.295
-0.3
-0.305
-0.315
-0.325
-0.305
-0.3
-0.305
-0.315
-0.325
-0.34
-0.325
-0.305
-0.315
-0.315
-0.335
-0.34
-0.325
-0.33
-0.31
-0.32
-0.335
-0.335
-0.335
-0.31
-0.32
-0.325
-0.335
-0.345
-0.335
-0.31
-0.31
-0.32
-0.34
-0.345
-0.34
-0.315
-0.315
-0.33
-0.34
-0.35
-0.335
-0.315
-0.31
-0.32
-0.34
-0.345
-0.33
-0.33
-0.32
-0.325
-0.345
-0.345
-0.335
-0.31
-0.315
-0.325
-0.335
-0.34
-0.325
-0.32
-0.32
-0.32
-0.335
-0.335
-0.32
-0.32
-0.305
-0.315
-0.33
-0.34
-0.335
-0.315
-0.305
-0.325
-0.32
-0.335
-0.33
-0.315
-0.325
-0.325
-0.35
-0.355
-0.34
-0.32
-0.335
-0.35
-0.36
-0.35
-0.345
-0.325
-0.32
-0.325
-0.345
-0.335
-0.345
-0.32
-0.325
-0.33
-0.335
-0.33
-0.32
-0.31
-0.3
-0.32
-0.33
-0.33
-0.34
-0.32
-0.315
-0.305
-0.325
-0.325
-0.325
-0.3
-0.295
-0.32
-0.325
-0.335
-0.315
-0.305
-0.315
-0.31
-0.325
-0.33
-0.325
-0.32
-0.3
-0.31
-0.33
-0.33
-0.315
-0.305
-0.29
-0.29
-0.305
-0.315
-0.305
-0.3
-0.285
-0.295
-0.31
-0.325
-0.315
-0.295
-0.3
-0.31
-0.32
-0.315
-0.3
-0.315
-0.295
-0.3
-0.315
-0.32
-0.31
-0.305
-0.29
-0.3
-0.33
-0.315
-0.315
-0.295
-0.295
-0.3
-0.305
-0.32
-0.305
-0.295
-0.3
-0.315
-0.3
-0.305
-0.295
-0.3
-0.285
-0.29
-0.305
-0.31
-0.28
-0.27
-0.26
-0.285
-0.28
-0.305
-0.275
-0.26
-0.255
-0.275
-0.285
-0.285
-0.27
-0.26
-0.26
-0.27
-0.29
-0.285
-0.27
-0.255
-0.255
-0.275
-0.27
-0.29
-0.275
-0.26
-0.25
-0.265
-0.275
-0.28
-0.265
-0.255
-0.245
-0.27
-0.265
-0.295
-0.265
-0.26
-0.255
-0.265
-0.28
-0.28
-0.265
-0.265
-0.255
-0.255
-0.27
-0.28
-0.265
-0.26
-0.24
-0.235
-0.255
-0.255
-0.25
-0.24
-0.24
-0.255
-0.26
-0.265
-0.265
-0.255
-0.245
-0.24
-0.24
-0.245
-0.2
-0.175
-0.18
-0.185
-0.195
-0.195
-0.195
-0.19
-0.165
-0.19
-0.215
-0.225
-0.22
-0.215
-0.22
-0.23
-0.25
-0.26
-0.265
-0.25
-0.25
-0.26
-0.26
-0.25
-0.24
-0.245
-0.245
-0.245
-0.255
-0.255
-0.245
-0.225
-0.22
-0.22
-0.235
-0.225
-0.23
-0.215
-0.205
-0.205
-0.195
-0.185
-0.16
-0.12
-0.09
-0.065
-0.065
-0.025
0.055
0.175
0.31
0.42
0.535
0.66
0.785
0.91
1.03
1.155
1.215
1.21
1.12
0.975
0.805
0.585
0.395
0.245
0.115
0.0
-0.075
-0.125
-0.15
-0.14
-0.115
-0.105
-0.135
-0.16
-0.19
-0.205
-0.22
-0.21
-0.235
-0.24
-0.26
-0.275
-0.255
-0.25
-0.26
-0.27
-0.295
-0.295
-0.275
-0.265
-0.265
-0.275
-0.285
-0.3
-0.285
-0.275
-0.265
-0.265
-0.3
-0.3
-0.29
-0.255
-0.245
-0.255
-0.275
-0.28
-0.265
-0.245
-0.245
-0.26
-0.275
-0.285
-0.26
-0.235
-0.23
-0.235
-0.25
-0.245
-0.23
-0.215
-0.2
-0.21
-0.215
-0.21
-0.195
-0.18
-0.16
-0.17
-0.18
-0.19
-0.155
-0.15
-0.13
-0.135
-0.14
-0.135
-0.12
-0.09
-0.085
-0.095
-0.085
-0.08
-0.07
-0.04
-0.045
-0.035
-0.035
-0.025
0.0
0.025
0.04
0.05
0.04
0.05
0.075
0.09
0.105
0.1
0.105
0.105
0.115
0.13
0.12
0.11
0.085
0.09
0.085
0.095
0.075
0.06
0.03
-0.005
-0.015
-0.01
-0.03
-0.055
-0.09
-0.135
-0.125
-0.135
-0.14
-0.16
-0.18
-0.205
-0.225
-0.205
-0.22
-0.23
-0.255
-0.27
-0.27
-0.26
-0.26
-0.29
-0.32
-0.315
-0.315
-0.3
-0.305
-0.31
-0.325
-0.335
-0.33
-0.315
-0.305
-0.325
-0.335
-0.345
-0.34
-0.335
-0.305
-0.32
-0.335
-0.335
-0.325
-0.32
-0.315
-0.32
-0.335
-0.35
-0.33
-0.32
-0.315
-0.345
-0.335
-0.335
-0.33
-0.325
-0.32
-0.325
-0.35
-0.34
-0.335
-0.315
-0.305
-0.31
-0.335
-0.32
-0.315
-0.315
-0.32
-0.33
-0.365
-0.36
-0.34
-0.325
-0.325
-0.35
-0.365
-0.375
-0.35
-0.325
-0.325
-0.335
-0.355
-0.35
-0.345
-0.33
-0.345
-0.345
-0.365
-0.37
-0.33
-0.305
-0.325
-0.33
-0.345
-0.35
-0.345
-0.33
-0.33
-0.35
-0.37
-0.365
-0.37
-0.345
-0.355
-0.355
-0.375
-0.365
-0.375
-0.375
-0.365
-0.375
-0.39
-0.365
-0.365
-0.355
-0.36
-0.365
-0.39
-0.38
-0.375
-0.355
-0.355
-0.365
-0.365
-0.375
-0.365
-0.345
-0.335
-0.34
-0.36
-0.37
-0.35
-0.345
-0.35
-0.36
-0.375
-0.375
-0.355
-0.35
-0.345
-0.355
-0.375
-0.365
-0.35
-0.355
-0.36
-0.355
-0.36
-0.36
-0.35
-0.355
-0.345
-0.345
-0.37
-0.355
-0.37
-0.335
-0.34
-0.345
-0.355
-0.36
-0.35
-0.345
-0.34
-0.35
-0.36
-0.37
-0.365
-0.35
-0.345
-0.36
-0.36
-0.355
-0.36
-0.335
-0.34
-0.335
-0.36
-0.355
-0.355
-0.34
-0.325
-0.34
-0.35
-0.365
-0.365
-0.34
-0.335
-0.335
-0.345
-0.355
-0.335
-0.335
-0.32
-0.335
-0.35
-0.345
-0.34
-0.315
-0.32
-0.335
-0.34
-0.34
-0.33
-0.315
-0.32
-0.32
-0.335
-0.33
-0.32
-0.325
-0.295
-0.305
-0.325
-0.33
-0.32
-0.305
-0.32
-0.31
-0.325
-0.32
-0.315
-0.3
-0.305
-0.3
-0.315
-0.305
-0.31
-0.28
-0.285
-0.295
-0.31
-0.315
-0.295
-0.275
-0.27
-0.275
-0.285
-0.3
-0.295
-0.28
-0.265
-0.265
-0.29
-0.28
-0.275
-0.27
-0.255
-0.255
-0.275
-0.275
-0.275
-0.265
-0.245
-0.26
-0.275
-0.275
-0.275
-0.26
-0.255
-0.25
-0.25
-0.265
-0.24
-0.21
-0.215
-0.21
-0.22
-0.225
-0.21
-0.195
-0.205
-0.23
-0.245
-0.245
-0.265
-0.245
-0.245
-0.265
-0.28
-0.285
-0.28
-0.28
-0.25
-0.265
-0.275
-0.295
-0.26
-0.265
-0.245
-0.26
-0.275
-0.275
-0.265
-0.255
-0.25
-0.25
-0.265
-0.255
-0.245
-0.215
-0.21
-0.205
-0.19
-0.175
-0.125
-0.085
-0.04
0.025
0.13
0.265
0.395
0.545
0.7
0.835
0.955
1.1
1.235
1.33
1.315
1.21
1.015
0.805
0.585
0.4
0.225
0.05
-0.08
-0.16
-0.17
-0.15
-0.12
-0.135
-0.18
-0.19
-0.195
-0.195
-0.225
-0.225
-0.255
-0.255
-0.255
-0.25
-0.255
-0.26
-0.28
-0.295
-0.285
-0.29
-0.28
-0.29
-0.315
-0.305
-0.295
-0.28
-0.28
-0.295
-0.305
-0.295
-0.29
-0.285
-0.27
-0.29
-0.3
-0.315
-0.3
-0.29
-0.28
-0.29
-0.305
-0.295
-0.285
-0.265
-0.26
-0.275
-0.29
-0.275
-0.26
-0.255
-0.24
-0.26
-0.25
-0.25
-0.245
-0.215
-0.21
-0.22
-0.22
-0.23
-0.215
-0.19
-0.19
-0.18
-0.18
-0.19
-0.16
-0.14
-0.13
-0.135
-0.125
-0.125
-0.11
-0.085
-0.09
-0.075
-0.07
-0.065
-0.045
-0.02
-0.01
-0.015
-0.01
-0.01
0.005
0.035
0.055
0.05
0.035
0.045
0.065
0.09
0.085
0.075
0.065
0.06
0.055
0.075
0.07
0.035
0.005
-0.02
-0.03
-0.045
-0.05
-0.08
-0.11
-0.13
-0.135
-0.145
-0.15
-0.185
-0.21
-0.22
-0.225
-0.225
-0.225
-0.255
-0.26
-0.285
-0.285
-0.265
-0.27
-0.285
-0.32
-0.31
-0.285
-0.28
-0.29
-0.305
-0.32
-0.325
-0.305
-0.305
-0.305
-0.31
-0.33
-0.33
-0.33
-0.32
-0.32
-0.33
-0.35
-0.345
-0.335
-0.32
-0.315
-0.325
-0.34
-0.35
-0.34
-0.315
-0.32
-0.32
-0.335
-0.335
-0.335
-0.305
-0.32
-0.32
-0.35
-0.335
-0.33
-0.315
-0.3
-0.31
-0.33
-0.33
-0.325
-0.315
-0.305
-0.315
-0.335
-0.34
-0.32
-0.31
-0.315
-0.315
-0.335
-0.34
-0.32
-0.32
-0.315
-0.315
-0.33
-0.335
-0.32
-0.325
-0.325
-0.32
-0.34
-0.345
-0.335
-0.315
-0.32
-0.325
-0.36
-0.345
-0.355
-0.33
-0.325
-0.335
-0.34
-0.35
-0.34
-0.34
-0.325
-0.335
-0.36
-0.36
-0.34
-0.335
-0.33
-0.34
-0.335
-0.355
-0.34
-0.335
-0.325
-0.325
-0.35
-0.345
-0.335
-0.325
-0.33
-0.345
-0.345
-0.34
-0.335
-0.32
-0.31
-0.315
-0.335
-0.345
-0.34
-0.325
-0.31
-0.32
-0.335
-0.34
-0.325
-0.315
-0.315
-0.325
-0.335
-0.335
-0.335
-0.31
-0.315
-0.32
-0.34
-0.345
-0.325
-0.32
-0.31
-0.33
-0.32
-0.33
-0.325
-0.31
-0.3
-0.31
-0.325
-0.33
-0.31
-0.3
-0.3
-0.3
-0.32
-0.325
-0.305
-0.295
-0.29
-0.3
-0.325
-0.315
-0.285
-0.3
-0.3
-0.275
-0.29
-0.285
-0.28
-0.275
-0.27
-0.275
-0.285
-0.305
-0.29
-0.27
-0.27
-0.28
-0.29
-0.295
-0.285
-0.275
-0.26
-0.28
-0.29
-0.29
-0.285
-0.29
-0.27
-0.28
-0.285
-0.285
-0.28
-0.265
-0.26
-0.265
-0.28
-0.295
-0.27
-0.26
-0.255
-0.255
-0.265
-0.255
-0.27
-0.255
-0.255
-0.265
-0.275
-0.28
-0.275
-0.26
-0.265
-0.255
-0.29
-0.285
-0.275
-0.265
-0.26
-0.27
-0.27
-0.27
-0.26
-0.255
-0.245
-0.255
-0.27
-0.285
-0.26
-0.245
-0.235
-0.245
-0.27
-0.27
-0.26
-0.25
-0.25
-0.255
-0.265
-0.245
-0.225
-0.2
-0.195
-0.19
-0.19
-0.185
-0.17
-0.16
-0.165
-0.175
-0.19
-0.21
-0.205
-0.2
-0.205
-0.215
-0.24
-0.25
-0.255
-0.225
-0.245
-0.245
-0.26
-0.28
-0.26
-0.225
-0.235
-0.24
-0.255
-0.245
-0.235
-0.21
-0.22
-0.225
-0.235
-0.24
-0.225
-0.2
-0.195
-0.19
-0.185
-0.175
-0.15
-0.11
-0.07
-0.05
-0.02
0.04
0.14
0.265
0.4
0.525
0.635
0.765
0.885
0.99
1.09
1.17
1.17
1.1
0.965
0.79
0.6
0.4
0.22
0.075
-0.04
-0.075
-0.11
-0.13
-0.145
-0.165
-0.17
-0.165
-0.19
-0.215
-0.225
-0.24
-0.24
-0.245
-0.25
-0.255
-0.275
-0.3
-0.275
-0.275
-0.28
-0.285
-0.305
-0.295
-0.28
-0.265
-0.275
-0.28
-0.29
-0.29
-0.285
-0.27
-0.28
-0.285
-0.29
-0.29
-0.275
-0.26
-0.265
-0.265
-0.275
-0.275
-0.27
-0.24
-0.23
-0.24
-0.25
-0.255
-0.23
-0.215
-0.21
-0.21
-0.225
-0.215
-0.2
-0.19
-0.185
-0.18
-0.195
-0.205
-0.175
-0.145
-0.145
-0.145
-0.15
-0.15
-0.13
-0.12
-0.105
-0.09
-0.11
-0.09
-0.09
-0.05
-0.045
-0.05
-0.035
-0.025
-0.01
0.005
0.02
0.02
0.01
0.025
0.045
0.075
0.09
0.085
0.075
0.075
0.1
0.1
0.105
0.11
0.085
0.075
0.075
0.075
0.055
0.02
0.0
-0.03
-0.05
-0.055
-0.075
-0.1
-0.145
-0.155
-0.155
-0.175
-0.185
-0.22
-0.23
-0.235
-0.25
-0.245
-0.255
-0.275
-0.28
-0.285
-0.28
-0.265
-0.275
-0.295
-0.295
-0.31
-0.29
-0.305
-0.295
-0.29
-0.31
-0.305
-0.31
-0.285
-0.29
-0.3
-0.32
-0.325
-0.305
-0.285
-0.29
-0.305
-0.315
-0.335
-0.335
-0.305
-0.295
-0.305
-0.32
-0.32
-0.31
-0.31
-0.3
-0.315
-0.315
-0.335
-0.32
-0.31
-0.31
-0.325
-0.325
-0.315
-0.315
-0.295
-0.29
-0.305
-0.31
-0.315
-0.3
-0.3
-0.295
-0.295
-0.315
-0.32
-0.31
-0.29
-0.295
-0.3
-0.315
-0.33
-0.31
-0.295
-0.295
-0.305
-0.32
-0.32
-0.31
-0.29
-0.305
-0.31
-0.32
-0.32
-0.315
-0.31
-0.305
-0.315
-0.325
-0.355
-0.335
-0.31
-0.315
-0.315
-0.32
-0.335
-0.32
-0.315
-0.31
-0.31
-0.32
-0.32
-0.31
-0.31
-0.31
-0.31
-0.325
-0.325
-0.305
-0.305
-0.3
-0.315
-0.32
-0.34
-0.335
-0.315
-0.305
-0.31
