Lead II
0.09
0.085
0.095
0.09
0.1
0.105
0.105
0.115
0.125
0.145
0.19
0.245
0.31
0.375
0.435
0.505
0.6
0.735
0.92
1.09
1.26
1.41
1.57
1.72
1.845
1.995
2.15
2.3
2.37
2.34
2.14
1.74
1.23
0.795
0.505
0.36
0.265
0.2
0.14
0.12
0.105
0.085
0.06
0.045
0.0
-0.02
-0.015
-0.02
-0.035
-0.06
-0.085
-0.08
-0.075
-0.055
-0.07
-0.09
-0.1
-0.11
-0.115
-0.11
-0.11
-0.12
-0.11
-0.12
-0.14
-0.125
-0.15
-0.145
-0.14
-0.14
-0.13
-0.11
-0.13
-0.15
-0.17
-0.175
-0.17
-0.16
-0.155
-0.17
-0.17
-0.165
-0.145
-0.15
-0.16
-0.165
-0.185
-0.22
-0.195
-0.185
-0.195
-0.23
-0.225
-0.22
-0.215
-0.19
-0.185
-0.2
-0.22
-0.22
-0.215
-0.215
-0.22
-0.225
-0.255
-0.26
-0.245
-0.23
-0.22
-0.24
-0.245
-0.24
-0.22
-0.21
-0.19
-0.205
-0.215
-0.21
-0.195
-0.16
-0.13
-0.13
-0.115
-0.12
-0.075
-0.03
0.0
0.035
0.025
0.07
0.09
0.125
0.155
0.15
0.145
0.165
0.18
0.195
0.205
0.2
0.185
0.18
0.195
0.2
0.185
0.17
0.155
0.15
0.155
0.16
0.155
0.14
0.135
0.125
0.145
0.155
0.14
0.135
0.12
0.12
0.115
0.125
0.12
0.105
0.09
0.09
0.105
0.115
0.11
0.11
0.09
0.09
0.095
0.11
0.11
0.1
0.095
0.075
0.085
0.09
0.09
0.075
0.06
0.07
0.075
0.09
0.07
0.065
0.06
0.055
0.055
0.07
0.07
0.075
0.06
0.05
0.055
0.06
0.075
0.06
0.05
0.045
0.045
0.075
0.065
0.06
0.055
0.055
0.085
0.095
0.09
0.075
0.065
0.055
0.055
0.085
0.055
0.025
0.035
0.02
0.035
0.055
0.055
0.05
0.03
0.03
0.04
0.055
0.05
0.045
0.035
0.02
0.04
0.055
0.05
0.045
0.03
0.04
0.04
0.055
0.045
0.045
0.02
0.03
0.045
0.055
0.04
0.025
0.02
0.025
0.03
0.05
0.05
0.055
0.03
0.025
0.02
0.05
0.05
0.045
0.04
0.015
0.03
0.02
0.005
0.01
0.005
0.005
0.025
0.03
0.03
0.015
-0.01
-0.02
-0.015
0.02
0.02
0.015
0.015
0.015
0.015
0.025
0.02
0.03
0.025
0.03
0.04
0.035
0.005
-0.005
-0.025
0.0
0.025
0.045
0.05
0.035
0.025
0.035
0.04
0.07
0.07
0.08
0.055
0.075
0.09
0.105
0.095
0.065
0.05
0.05
0.065
0.085
0.085
0.075
0.075
0.065
0.09
0.085
0.11
0.095
0.075
0.055
0.05
0.065
0.055
0.05
0.03
0.03
0.04
0.045
0.055
0.035
0.025
0.04
0.055
0.06
0.045
0.04
0.015
0.02
0.055
0.045
0.055
0.035
0.025
0.02
0.045
0.045
0.05
0.05
0.045
0.045
0.055
0.065
0.055
0.07
0.07
0.09
0.135
0.19
0.24
0.295
0.375
0.485
0.625
0.8
0.985
1.18
1.355
1.555
1.75
1.925
2.085
2.28
2.44
2.505
2.47
2.255
1.815
1.26
0.795
0.515
0.36
0.275
0.235
0.17
0.14
0.09
0.095
0.09
0.065
0.025
-0.005
-0.025
-0.015
-0.015
-0.035
-0.055
-0.09
-0.1
-0.105
-0.09
-0.09
-0.095
-0.11
-0.105
-0.085
-0.08
-0.095
-0.1
-0.13
-0.14
-0.115
-0.105
-0.12
-0.14
-0.15
-0.14
-0.13
-0.12
-0.13
-0.135
-0.16
-0.165
-0.15
-0.15
-0.17
-0.17
-0.185
-0.185
-0.17
-0.155
-0.17
-0.17
-0.2
-0.19
-0.19
-0.175
-0.17
-0.18
-0.195
-0.19
-0.17
-0.15
-0.17
-0.175
-0.185
-0.185
-0.175
-0.155
-0.18
-0.185
-0.195
-0.2
-0.17
-0.155
-0.15
-0.165
-0.185
-0.165
-0.16
-0.125
-0.12
-0.1
-0.08
-0.08
-0.03
-0.005
-0.015
-0.02
-0.015
0.02
0.075
0.125
0.145
0.155
0.16
0.17
0.225
0.26
0.285
0.29
0.275
0.285
0.31
0.32
0.315
0.295
0.28
0.275
0.295
0.3
0.28
0.275
0.23
0.24
0.24
0.26
0.25
0.245
0.245
0.24
0.225
0.225
0.19
0.17
0.17
0.185
0.205
0.235
0.23
0.2
0.185
0.195
0.22
0.22
0.225
0.23
0.215
0.205
0.21
0.205
0.21
0.21
0.2
0.185
0.195
0.215
0.21
0.19
0.155
0.145
0.15
0.175
0.185
0.175
0.16
0.185
0.185
0.205
0.195
0.175
0.145
0.155
0.17
0.18
0.185
0.195
0.165
0.175
0.195
0.21
0.205
0.18
0.175
0.18
0.19
0.215
0.21
0.205
0.2
0.19
0.21
0.22
0.22
0.21
0.18
0.19
0.205
0.225
0.235
0.21
0.185
0.2
0.22
0.23
0.215
0.22
0.195
0.2
0.215
0.22
0.21
0.195
0.195
0.21
0.22
0.24
0.235
0.215
0.175
0.18
0.195
0.205
0.195
0.18
0.18
0.18
0.19
0.205
0.205
0.195
0.19
0.19
0.19
0.205
0.19
0.18
0.19
0.2
0.2
0.225
0.2
0.18
0.18
0.19
0.19
0.205
0.2
0.19
0.2
0.215
0.2
0.17
0.16
0.165
0.165
0.18
0.185
0.21
0.2
0.18
0.19
0.2
0.22
0.23
0.205
0.195
0.195
0.2
0.235
0.265
0.26
0.245
0.24
0.24
0.245
0.25
0.235
0.225
0.225
0.215
0.235
0.245
0.245
0.245
0.24
0.245
0.26
0.265
0.275
0.26
0.24
0.235
0.24
0.24
0.225
0.215
0.21
0.21
0.235
0.245
0.255
0.245
0.22
0.215
0.21
0.215
0.21
0.195
0.2
0.19
0.21
0.23
0.225
0.22
0.205
0.21
0.215
0.225
0.225
0.235
0.22
0.255
0.275
0.285
0.26
0.255
0.255
0.285
0.35
0.42
0.505
0.58
0.64
0.735
0.88
1.065
1.255
1.445
1.59
1.775
1.935
2.08
2.24
2.395
2.5
2.515
2.4
2.105
1.63
1.15
0.83
0.635
0.515
0.425
0.33
0.285
0.27
0.25
0.23
0.225
0.175
0.145
0.115
0.11
0.11
0.12
0.11
0.105
0.095
0.085
0.09
0.105
0.09
0.075
0.06
0.055
0.055
0.07
0.08
0.075
0.075
0.075
0.075
0.08
0.065
0.045
0.03
0.025
0.035
0.025
0.02
-0.005
0.005
0.01
0.015
0.0
-0.01
-0.02
-0.025
-0.025
-0.02
0.005
-0.005
-0.015
-0.045
-0.03
-0.01
-0.005
-0.015
-0.035
-0.045
-0.04
-0.025
-0.005
-0.025
-0.055
-0.075
-0.06
-0.045
-0.035
-0.035
-0.035
-0.04
-0.04
-0.035
-0.03
-0.06
-0.075
-0.09
-0.07
-0.045
-0.025
-0.035
-0.04
-0.035
-0.02
0.005
0.03
0.045
0.035
0.055
0.08
0.115
0.155
0.165
0.185
0.195
0.23
0.26
0.285
0.285
0.295
0.295
0.315
0.345
0.38
0.385
0.38
0.365
0.35
0.345
0.345
0.35
0.355
0.345
0.35
0.355
0.37
0.355
0.33
0.3
0.295
0.315
0.32
0.3
0.28
0.28
0.295
0.31
0.32
0.315
0.32
0.32
0.32
0.315
0.315
0.28
0.25
0.26
0.265
0.29
0.28
0.265
0.25
0.24
0.245
0.255
0.27
0.265
0.25
0.235
0.24
0.26
0.27
0.28
0.265
0.245
0.245
0.245
0.26
0.245
0.225
0.225
0.215
0.235
0.26
0.28
0.265
0.26
0.27
0.27
0.285
0.275
0.265
0.26
0.245
0.27
0.28
0.275
0.285
0.27
0.285
0.3
0.305
0.305
0.3
0.295
0.29
0.28
0.27
0.285
0.3
0.295
0.305
0.285
0.265
0.235
0.235
0.23
0.24
0.27
0.305
0.315
0.29
0.245
0.235
0.265
0.265
0.275
0.275
0.27
0.275
0.26
0.26
0.25
0.25
0.255
0.255
0.265
0.265
0.275
0.27
0.25
0.25
0.245
0.275
0.255
0.24
0.23
0.245
0.255
0.26
0.255
0.24
0.235
0.23
0.255
0.265
0.26
0.26
0.245
0.25
0.27
0.28
0.275
0.27
0.27
0.295
0.3
0.315
0.3
0.3
0.305
0.325
0.335
0.315
0.265
0.26
0.255
0.265
0.28
0.3
0.275
0.29
0.295
0.285
0.315
0.31
0.31
0.315
0.315
0.33
0.35
0.345
0.32
0.3
0.275
0.27
0.28
0.295
0.285
0.265
0.25
0.255
0.28
0.29
0.275
0.245
0.22
0.235
0.245
0.265
0.255
0.25
0.24
0.23
0.225
0.245
0.245
0.235
0.22
0.235
0.265
0.275
0.275
0.265
0.265
0.285
0.28
0.295
0.27
0.26
0.23
0.255
0.28
0.335
0.36
0.395
0.42
0.475
0.57
0.655
0.72
0.8
0.915
1.06
1.215
1.37
1.525
1.685
1.825
1.95
2.095
2.265
2.4
2.455
2.425
2.285
1.99
1.56
1.1
0.76
0.575
0.48
0.395
0.33
0.295
0.245
0.21
0.21
0.215
0.21
0.205
0.16
0.13
0.12
0.115
0.12
0.1
0.075
0.065
0.08
0.075
0.1
0.09
0.065
0.045
0.05
0.05
0.06
0.055
0.03
0.02
0.035
0.025
0.035
0.035
0.01
0.005
0.025
0.025
0.025
0.0
-0.015
-0.02
-0.025
-0.005
-0.005
-0.01
-0.03
-0.05
-0.045
-0.05
-0.04
-0.045
-0.06
-0.06
-0.06
-0.055
-0.045
-0.055
-0.08
-0.095
-0.1
-0.065
-0.05
-0.06
-0.065
-0.075
-0.07
-0.06
-0.045
-0.04
-0.07
-0.11
-0.105
-0.1
-0.075
-0.08
-0.09
-0.1
-0.09
-0.09
-0.065
-0.08
-0.085
-0.095
-0.085
-0.06
-0.025
-0.025
-0.035
-0.04
-0.005
0.03
0.06
0.075
0.05
0.055
0.085
0.12
0.155
0.17
0.185
0.21
0.24
0.275
0.29
0.3
0.28
0.26
0.27
0.295
0.305
0.315
0.295
0.28
0.275
0.28
0.3
0.29
0.27
0.23
0.22
0.24
0.255
0.26
0.25
0.24
0.23
0.23
0.235
0.23
0.22
0.2
0.21
0.215
0.24
0.235
0.21
0.185
0.19
0.19
0.2
0.195
0.185
0.18
0.2
0.21
0.235
0.22
0.21
0.2
0.18
0.18
0.18
0.175
0.155
0.14
0.145
0.165
0.175
0.17
0.165
0.145
0.155
0.18
0.19
0.215
0.195
0.18
0.19
0.19
0.19
0.16
0.13
0.125
0.145
0.18
0.195
0.185
0.185
0.18
0.185
0.195
0.185
0.175
0.155
0.155
0.16
0.185
0.18
0.175
0.17
0.16
0.165
0.17
0.18
0.175
0.175
0.165
0.16
0.165
0.165
0.165
0.15
0.135
0.15
0.17
0.185
0.17
0.14
0.13
0.125
0.14
0.15
0.145
0.155
0.165
0.165
0.18
0.185
0.16
0.11
0.095
0.105
0.14
0.165
0.175
0.175
0.155
0.15
0.145
0.145
0.14
0.115
0.125
0.135
0.145
0.16
0.135
0.145
0.14
0.15
0.175
0.185
0.165
0.145
0.135
0.145
0.155
0.15
0.13
0.105
0.105
0.13
0.165
0.18
0.175
0.15
0.135
0.14
0.165
0.17
0.16
0.135
0.13
0.13
0.13
0.145
0.15
0.165
0.16
0.17
0.175
0.175
0.17
0.155
0.135
0.125
0.13
0.15
0.18
0.18
0.175
0.185
0.2
0.21
0.205
0.195
0.19
0.19
0.185
0.205
0.195
0.18
0.175
0.17
0.185
0.195
0.19
0.17
0.185
0.19
0.2
0.215
0.205
0.21
0.17
0.17
0.18
0.185
0.185
0.18
0.165
0.155
0.135
0.14
0.125
0.13
0.135
0.155
0.165
0.17
0.16
0.145
0.14
0.135
0.135
0.13
0.1
0.09
0.085
0.105
0.14
0.15
0.15
0.13
0.13
0.14
0.145
0.155
0.155
0.135
0.15
0.17
0.195
0.21
0.23
0.235
0.275
0.335
0.41
0.485
0.55
0.635
0.74
0.91
1.075
1.225
1.375
1.54
1.705
1.89
2.085
2.275
2.39
2.405
2.235
1.885
1.395
0.925
0.595
0.41
0.285
0.21
0.175
0.15
0.14
0.115
0.095
0.09
0.08
0.06
0.03
-0.005
-0.015
-0.01
0.01
0.005
0.005
-0.015
-0.03
-0.045
-0.03
-0.02
-0.03
-0.03
-0.055
-0.07
-0.085
-0.085
-0.08
-0.07
-0.08
-0.09
-0.08
-0.075
-0.085
-0.09
-0.1
-0.09
-0.085
-0.09
-0.105
-0.12
-0.13
-0.13
-0.12
-0.12
-0.135
-0.145
-0.135
-0.13
-0.12
-0.115
-0.115
-0.135
-0.155
-0.16
-0.155
-0.15
-0.18
-0.18
-0.17
-0.165
-0.145
-0.14
-0.16
-0.155
-0.16
-0.16
-0.145
-0.16
-0.17
-0.175
-0.185
-0.175
-0.135
-0.125
-0.12
-0.145
-0.155
-0.165
-0.15
-0.135
-0.145
-0.165
-0.165
-0.13
-0.095
-0.06
-0.06
-0.04
-0.025
0.005
0.04
0.075
0.09
0.105
0.1
0.135
0.185
0.225
0.24
0.215
0.185
0.175
0.175
0.21
0.23
0.21
0.19
0.185
0.205
0.21
0.195
0.18
0.165
0.17
0.215
0.215
0.21
0.145
0.1
0.095
0.13
0.175
0.185
0.165
0.145
0.14
0.135
0.16
0.125
0.11
0.1
0.12
0.14
0.145
0.145
0.13
0.115
0.095
0.085
0.1
0.095
0.09
0.08
0.09
0.1
0.125
0.11
0.115
0.11
0.115
0.125
0.125
0.1
0.085
0.05
0.06
0.07
0.1
0.1
0.075
0.065
0.07
0.105
0.115
0.105
0.085
0.065
0.065
0.09
0.09
0.09
0.07
0.08
0.09
0.115
0.11
0.1
0.085
0.07
0.07
0.1
0.11
0.105
0.09
0.09
0.085
0.095
0.1
0.1
0.085
0.08
0.095
0.11
0.125
0.115
0.085
0.055
0.04
0.03
0.035
0.065
0.07
0.045
0.055
0.075
0.085
0.085
0.075
0.055
0.065
0.09
0.1
0.095
0.08
0.06
0.055
0.085
0.1
0.1
0.08
0.055
0.055
0.085
0.11
0.1
0.09
0.065
0.065
0.045
0.055
0.055
0.065
0.06
0.085
0.09
0.105
0.095
0.11
0.095
0.09
0.09
0.09
0.075
0.065
0.05
0.065
0.09
0.105
0.09
0.07
0.075
0.095
0.1
0.1
0.09
0.085
0.075
0.09
0.11
0.14
0.14
0.125
0.125
0.12
0.14
0.145
0.14
0.14
0.13
0.135
0.155
0.175
0.175
0.175
0.175
0.16
0.155
0.16
0.15
0.135
0.115
0.12
0.14
0.155
0.16
0.155
0.145
0.17
0.17
0.18
0.17
0.12
0.115
0.1
0.1
0.11
0.105
0.115
0.105
0.11
0.13
0.14
0.125
0.1
0.09
0.09
0.115
0.12
0.095
0.08
0.07
0.065
0.065
0.095
0.095
0.08
0.075
0.08
0.105
0.12
0.11
0.095
0.085
0.115
0.125
0.14
0.14
0.145
0.15
0.19
0.23
0.27
0.3
0.355
0.42
0.485
0.58
0.685
0.825
0.965
1.13
1.295
1.465
1.6
1.715
1.83
2.0
2.185
2.275
2.245
2.05
1.665
1.19
0.77
0.485
0.34
0.24
0.17
0.15
0.135
0.14
0.115
0.1
0.075
0.06
0.045
0.05
0.035
0.005
-0.02
-0.035
-0.035
-0.035
-0.025
-0.05
-0.06
-0.07
-0.07
-0.04
-0.035
-0.035
-0.055
-0.065
-0.05
-0.04
-0.035
-0.035
-0.03
-0.03
-0.045
-0.05
-0.06
-0.07
-0.07
-0.075
-0.065
-0.07
-0.08
-0.1
-0.115
-0.105
-0.095
-0.08
-0.075
-0.08
-0.09
-0.12
-0.115
-0.1
-0.09
-0.09
-0.1
-0.1
-0.11
-0.095
-0.11
-0.12
-0.12
-0.125
-0.12
-0.09
-0.07
-0.095
-0.115
-0.135
-0.12
-0.1
-0.1
-0.1
-0.11
-0.11
-0.11
-0.11
-0.115
-0.11
-0.125
-0.15
-0.16
-0.165
-0.145
-0.135
-0.12
-0.14
-0.125
-0.1
-0.1
-0.105
-0.095
-0.085
-0.09
-0.06
-0.055
-0.05
-0.04
-0.035
0.0
0.035
0.075
0.08
0.09
0.11
0.13
0.155
0.175
0.175
0.155
0.165
0.185
0.21
0.22
0.225
0.225
0.21
0.225
0.21
0.205
0.205
0.18
0.19
0.205
0.215
0.21
0.19
0.145
0.15
0.15
0.17
0.175
0.17
0.165
0.17
0.185
0.18
0.17
0.135
0.105
0.1
0.12
0.145
0.155
0.155
0.13
0.12
0.135
0.135
0.14
0.125
0.12
0.115
0.14
0.155
0.145
0.14
0.12
0.11
0.12
0.13
0.14
0.145
0.135
0.125
0.11
0.12
0.135
0.125
0.105
0.09
0.095
0.11
0.13
0.105
0.105
0.09
0.1
0.115
0.12
0.11
0.09
0.07
0.08
0.09
0.105
0.1
0.085
0.09
0.095
0.1
0.1
0.095
0.075
0.065
0.07
0.075
0.095
0.095
0.08
0.085
0.08
0.085
0.08
0.055
0.035
0.03
0.05
0.065
0.075
0.07
0.06
0.05
0.065
0.07
0.08
0.065
0.05
0.06
0.065
0.06
0.065
0.04
0.025
0.025
0.05
0.07
0.085
0.08
0.05
0.04
0.015
0.03
0.04
0.04
0.02
0.0
0.01
0.02
0.04
0.025
0.025
0.005
0.025
0.05
0.055
0.04
0.04
0.025
0.04
0.055
0.035
0.03
0.03
0.04
0.06
0.07
0.075
0.06
0.025
0.01
0.03
0.045
0.065
0.065
0.045
0.05
0.035
0.06
0.06
0.055
0.065
0.06
0.07
0.085
0.09
0.095
0.07
0.09
0.1
0.125
0.13
0.125
0.105
0.115
0.125
0.12
0.125
0.12
0.1
0.1
0.11
0.12
0.135
0.14
0.125
0.115
0.125
0.12
0.105
0.09
0.06
0.045
0.055
0.085
0.095
0.06
0.01
0.015
0.03
0.055
0.065
0.055
0.045
0.04
0.045
0.045
0.05
0.065
0.05
0.035
0.035
0.045
0.06
0.06
0.045
0.03
0.035
0.065
0.09
0.12
0.12
0.165
0.24
0.34
0.435
0.515
0.615
0.765
0.975
1.175
1.365
1.52
1.675
1.815
2.02
2.205
2.35
2.39
2.315
2.095
1.71
1.23
0.795
0.495
0.3
0.185
0.14
0.125
0.095
0.055
0.05
0.025
0.02
0.005
-0.035
-0.09
-0.125
-0.13
-0.11
-0.09
-0.085
-0.105
-0.115
-0.13
-0.115
-0.09
-0.095
-0.11
-0.13
-0.13
-0.13
-0.115
-0.115
-0.14
-0.145
-0.14
-0.135
-0.13
-0.125
-0.14
-0.18
-0.175
-0.185
-0.2
-0.19
-0.195
-0.2
-0.195
-0.195
-0.19
-0.195
-0.2
-0.215
-0.22
-0.195
-0.18
-0.19
-0.19
-0.2
-0.195
-0.2
-0.175
-0.18
-0.19
-0.21
-0.225
-0.21
-0.185
-0.18
-0.175
-0.19
-0.215
-0.225
-0.215
-0.23
-0.215
-0.215
-0.21
-0.2
-0.175
-0.18
-0.195
-0.23
-0.23
-0.22
-0.195
-0.185
-0.185
-0.185
-0.185
-0.165
-0.15
-0.13
-0.12
-0.11
-0.095
-0.07
-0.04
-0.015
-0.01
0.0
0.025
0.055
0.105
0.125
0.145
0.145
0.16
0.185
0.19
0.2
0.195
0.195
0.185
0.205
0.215
0.22
0.215
0.205
0.2
0.21
0.215
0.185
0.16
0.135
0.12
0.145
0.16
0.145
0.125
0.095
0.095
0.11
0.12
0.13
0.13
0.12
0.11
0.13
0.14
0.135
0.12
0.125
0.12
0.12
0.135
0.135
0.105
0.075
0.08
0.075
0.1
0.1
0.09
0.08
0.075
0.08
0.1
0.095
0.075
0.06
0.05
0.065
0.075
0.085
0.055
0.03
0.04
0.055
0.065
0.075
0.07
0.055
0.055
0.06
0.075
0.08
0.075
0.06
0.06
0.07
0.09
0.075
0.075
0.045
0.055
0.075
0.07
0.075
0.065
0.06
0.04
0.055
0.06
0.08
0.07
0.05
0.055
0.05
0.065
0.065
0.055
0.05
0.045
0.06
0.06
0.07
0.055
0.045
0.04
0.055
0.06
0.06
0.05
0.035
0.03
0.04
0.055
0.06
0.045
0.03
0.045
0.04
0.05
0.04
0.035
0.015
0.03
0.04
0.05
0.05
0.025
0.02
0.02
0.03
0.06
0.055
0.04
0.02
0.015
0.04
0.045
0.05
0.03
0.025
0.03
0.04
0.045
0.04
0.035
0.015
0.02
0.035
0.03
0.04
0.015
0.015
0.015
0.045
0.065
0.06
0.06
0.035
0.035
0.065
0.075
0.095
0.085
0.085
0.085
0.095
0.095
0.085
0.07
0.05
0.055
0.075
0.095
0.11
0.085
0.08
0.07
0.11
0.12
0.11
0.1
0.06
0.045
0.055
0.07
0.06
0.05
0.04
0.03
0.045
0.07
0.065
0.06
0.055
0.045
0.05
0.07
0.06
0.04
0.04
0.035
0.06
0.07
0.07
0.06
0.045
0.06
0.07
0.09
0.095
0.08
0.075
0.07
0.09
0.11
0.13
0.155
0.19
0.225
0.3
0.385
0.475
0.555
0.7
0.88
1.085
1.275
1.45
1.585
1.705
1.845
2.02
2.185
2.29
2.28
2.13
1.825
1.385
0.95
0.62
0.41
0.28
0.19
0.145
0.135
0.125
0.1
0.055
0.05
0.045
0.03
0.025
0.005
-0.025
-0.035
-0.03
-0.03
-0.03
-0.04
-0.055
-0.05
-0.035
-0.03
-0.035
-0.05
-0.075
-0.085
-0.075
-0.06
-0.06
-0.06
-0.065
-0.075
-0.065
-0.05
-0.055
-0.075
-0.09
-0.085
-0.09
-0.07
-0.09
-0.095
-0.11
-0.11
-0.09
-0.085
-0.095
-0.105
-0.115
-0.12
-0.11
-0.105
-0.11
-0.11
-0.125
-0.12
-0.105
-0.105
-0.095
-0.11
-0.11
-0.12
-0.105
-0.095
-0.105
-0.12
-0.12
-0.11
-0.095
-0.08
-0.1
-0.11
-0.14
-0.145
-0.14
-0.115
-0.105
-0.105
-0.105
-0.11
-0.1
-0.085
-0.075
-0.085
-0.075
-0.055
-0.035
-0.015
-0.005
0.005
0.02
0.04
0.075
0.135
0.14
0.15
0.15
0.16
0.2
0.235
0.245
0.25
0.235
0.235
0.24
0.255
0.235
0.23
0.225
0.235
0.24
0.235
0.215
0.205
0.19
0.175
0.2
0.215
0.215
0.18
0.16
0.16
0.175
0.195
0.205
0.185
0.17
0.18
0.175
0.185
0.17
0.165
0.16
0.165
0.175
0.175
0.17
0.145
0.13
0.125
0.125
0.155
0.155
0.14
0.135
0.13
0.155
0.165
0.165
0.145
0.12
0.14
0.16
0.17
0.16
0.15
0.155
0.17
0.175
0.18
0.175
0.15
0.14
0.125
0.125
0.15
0.15
0.155
0.13
0.145
0.17
0.185
0.18
0.16
0.145
0.145
0.155
0.165
0.16
0.15
0.145
0.14
0.15
0.165
0.17
0.145
0.14
0.13
0.13
0.16
0.15
0.14
0.125
0.13
0.135
0.145
0.15
0.13
0.12
0.115
0.14
0.155
0.165
0.15
0.14
0.135
0.125
0.14
0.125
0.12
0.105
0.11
0.12
0.14
0.15
0.155
0.13
0.12
0.1
0.115
0.115
0.135
0.12
0.13
0.125
0.135
0.135
0.125
0.12
0.115
0.12
0.135
0.12
0.125
0.115
0.11
0.115
0.125
0.13
0.12
0.115
0.11
0.12
0.12
0.115
0.12
0.11
0.105
0.12
0.135
0.14
0.145
0.115
0.115
0.1
0.14
0.15
0.16
0.16
0.175
0.18
0.18
0.185
0.18
0.175
0.175
0.185
0.185
0.15
0.135
0.125
0.145
0.165
0.17
0.175
0.175
0.18
0.19
0.19
0.185
0.155
0.125
0.105
0.09
0.115
0.13
0.125
0.125
0.125
0.125
0.13
0.14
0.125
0.1
0.095
0.09
0.085
0.095
0.095
0.11
0.11
0.125
0.13
0.13
0.145
0.13
0.095
0.09
0.095
0.115
0.125
0.135
0.13
0.125
0.155
0.185
0.205
0.225
0.24
0.31
0.41
0.515
0.6
0.71
0.885
1.08
1.3
1.51
1.695
1.855
2.0
2.2
2.365
2.455
2.42
2.225
1.83
1.315
0.875
0.585
0.395
0.3
0.225
0.18
0.165
0.125
0.105
0.085
0.05
0.045
0.04
0.03
0.03
-0.005
-0.015
-0.025
-0.01
-0.015
-0.02
-0.04
-0.07
-0.06
-0.04
-0.01
-0.03
-0.055
-0.065
-0.065
-0.04
-0.03
-0.025
-0.05
-0.08
-0.095
-0.075
-0.08
-0.075
-0.105
-0.13
-0.135
-0.105
-0.085
-0.08
-0.115
-0.155
-0.155
-0.16
-0.15
-0.14
-0.135
-0.145
-0.15
-0.155
-0.155
-0.155
-0.15
-0.165
-0.155
-0.15
-0.135
-0.12
-0.115
-0.145
-0.16
-0.15
-0.165
-0.195
-0.205
-0.205
-0.15
-0.135
-0.1
-0.115
-0.165
-0.225
-0.24
-0.185
-0.125
-0.115
-0.115
-0.125
-0.085
-0.04
-0.02
-0.015
-0.01
-0.01
0.005
0.04
0.07
0.09
0.11
0.125
0.16
0.18
0.225
0.205
0.2
0.21
0.235
0.26
0.265
0.23
0.21
0.2
0.205
0.2
0.21
0.185
0.18
0.165
0.19
0.2
0.205
0.205
0.195
0.145
0.115
0.115
0.14
0.145
0.14
0.145
0.16
0.175
0.2
0.21
0.185
0.135
0.115
0.14
0.15
0.135
0.1
0.085
0.105
0.11
0.135
0.14
0.125
0.105
0.085
0.105
0.12
0.13
0.12
0.095
0.095
0.085
0.095
0.085
0.09
0.085
0.11
0.125
0.13
0.11
0.09
0.075
0.065
0.09
0.11
0.105
0.12
0.13
0.15
0.16
0.18
0.15
0.105
0.075
0.06
0.075
0.085
0.08
0.065
0.065
0.075
0.105
0.13
0.115
0.09
0.075
0.085
0.1
0.12
0.095
0.07
0.05
0.06
0.07
0.095
0.1
0.085
0.065
0.07
0.09
0.1
0.08
0.07
0.06
0.055
0.055
0.06
0.06
0.07
0.06
0.04
0.07
0.07
0.085
0.07
0.075
0.07
0.085
0.095
0.095
0.095
0.06
0.035
0.03
0.05
0.09
0.09
0.06
0.05
0.06
0.075
0.07
0.065
0.06
0.065
0.075
0.085
0.075
0.055
0.055
0.07
0.095
0.105
0.09
0.065
0.035
0.025
0.04
0.07
0.095
0.11
0.095
0.105
0.095
0.1
0.105
0.115
0.115
0.11
0.115
0.115
0.105
0.12
0.095
0.115
0.105
0.115
0.12
0.095
0.07
0.08
0.095
0.095
0.085
0.075
0.055
0.06
0.06
0.055
0.045
0.05
0.04
0.055
0.055
0.045
0.035
0.025
0.015
0.035
0.04
0.035
0.025
0.02
0.01
0.015
0.045
0.07
0.07
0.07
0.045
0.06
0.085
0.14
0.175
0.235
0.3
0.36
0.45
0.58
0.725
0.92
1.095
1.29
1.475
1.63
1.805
2.01
2.17
2.245
2.185
1.935
1.485
1.005
0.645
0.455
0.31
0.19
0.12
0.075
0.08
0.085
0.075
0.07
0.055
0.03
0.005
-0.005
-0.01
-0.02
-0.025
-0.05
-0.075
-0.06
-0.05
-0.03
-0.05
-0.05
-0.065
-0.07
-0.07
-0.06
-0.07
-0.075
-0.075
-0.095
-0.095
-0.07
-0.075
-0.09
-0.105
-0.1
-0.09
-0.08
-0.085
-0.12
-0.14
-0.125
-0.115
-0.11
-0.105
-0.13
-0.15
-0.145
-0.125
-0.105
-0.105
-0.105
-0.13
-0.145
-0.15
-0.14
-0.15
-0.15
-0.16
-0.155
-0.145
-0.135
-0.145
-0.15
-0.16
-0.155
-0.15
-0.145
-0.15
-0.16
-0.17
-0.165
-0.17
-0.16
-0.165
-0.17
-0.17
-0.17
-0.15
-0.14
-0.14
-0.15
-0.16
-0.155
-0.145
-0.12
-0.13
-0.14
-0.135
-0.125
-0.105
-0.085
-0.09
-0.07
-0.05
-0.025
0.005
0.035
0.04
0.055
0.055
0.08
0.095
0.125
0.135
0.15
0.155
0.17
0.19
0.215
0.195
0.19
0.185
0.17
0.17
0.175
0.175
0.15
0.145
0.14
0.14
0.145
0.13
0.125
0.115
0.12
0.13
0.135
0.12
0.095
0.065
0.075
0.095
0.12
0.1
0.11
0.09
0.08
0.08
0.095
0.105
0.085
0.08
0.1
0.105
0.12
0.115
0.1
0.08
0.075
0.08
0.09
0.09
0.08
0.06
0.065
0.075
0.07
0.055
0.055
0.05
0.06
0.085
0.09
0.075
0.07
0.055
0.05
0.065
0.065
0.065
0.065
0.06
0.055
0.075
0.095
0.095
0.075
0.065
0.08
0.09
0.105
0.095
0.065
0.065
0.065
0.09
0.11
0.1
0.1
0.095
0.1
0.11
0.12
0.105
0.08
0.065
0.065
0.095
0.1
0.08
0.065
0.06
0.07
0.095
0.115
0.09
0.09
0.065
0.07
0.075
0.085
0.075
0.055
0.065
0.06
0.07
0.085
0.075
0.065
0.045
0.075
0.075
0.09
0.07
0.055
0.05
0.045
0.055
0.065
0.06
0.05
0.035
0.05
0.055
0.075
0.06
0.045
0.045
0.035
0.06
0.075
0.065
0.05
0.045
0.045
0.05
0.06
0.055
0.05
0.045
0.045
0.055
0.065
0.065
0.065
0.045
0.05
0.055
0.055
0.06
0.055
0.03
0.04
0.045
0.06
0.06
0.06
0.06
0.08
0.1
0.1
0.1
0.08
0.075
0.07
0.09
0.12
0.13
0.1
0.1
0.095
0.095
0.11
0.095
0.08
0.065
0.085
0.105
0.125
0.12
0.12
0.11
0.11
0.12
0.135
0.115
0.085
0.065
0.055
0.065
0.085
0.09
0.08
0.07
0.075
0.06
0.095
0.08
0.07
0.055
0.065
0.085
0.09
0.09
0.06
0.045
0.065
0.07
0.105
0.095
0.07
0.055
0.055
0.085
0.115
0.1
0.095
0.095
0.105
0.125
0.165
0.17
0.19
0.22
0.29
0.375
0.455
0.525
0.605
0.735
0.915
1.105
1.285
1.435
1.57
1.67
1.83
2.01
2.175
2.265
2.285
2.2
1.995
1.62
1.185
0.8
0.53
0.35
0.26
0.215
0.185
0.15
0.125
0.09
0.065
0.05
0.05
0.03
-0.01
-0.03
-0.045
-0.04
-0.03
-0.055
-0.065
-0.085
-0.09
-0.07
-0.07
-0.085
-0.09
-0.1
-0.105
-0.1
-0.095
-0.095
-0.105
-0.115
-0.12
-0.105
-0.09
-0.105
-0.12
-0.14
-0.13
-0.125
-0.12
-0.135
-0.155
-0.165
-0.16
-0.16
-0.14
-0.16
-0.18
-0.195
-0.195
-0.185
-0.18
-0.175
-0.205
-0.21
-0.215
-0.205
-0.175
-0.18
-0.2
-0.225
-0.24
-0.235
-0.225
-0.22
-0.23
-0.245
-0.25
-0.235
-0.225
-0.225
-0.24
-0.25
-0.26
-0.255
-0.25
-0.245
-0.26
-0.265
-0.26
-0.25
-0.245
-0.25
-0.26
-0.28
-0.275
-0.24
-0.23
-0.21
