Lead II
-1.43
-1.45
-1.46
-1.45
-1.445
-1.44
-1.425
-1.425
-1.41
-1.41
-1.405
-1.415
-1.43
-1.44
-1.455
-1.46
-1.47
-1.465
-1.45
-1.455
-1.435
-1.415
-1.42
-1.42
-1.44
-1.46
-1.465
-1.46
-1.45
-1.44
-1.425
-1.41
-1.375
-1.36
-1.36
-1.345
-1.345
-1.345
-1.345
-1.34
-1.33
-1.33
-1.31
-1.31
-1.275
-1.245
-1.22
-1.215
-1.24
-1.26
-1.275
-1.275
-1.29
-1.305
-1.285
-1.29
-1.285
-1.31
-1.33
-1.35
-1.39
-1.425
-1.455
-1.475
-1.49
-1.5
-1.505
-1.505
-1.485
-1.475
-1.485
-1.455
-1.46
-1.475
-1.51
-1.49
-1.515
-1.505
-1.5
-1.49
-1.485
-1.47
-1.45
-1.385
-1.32
-1.2
-1.025
-0.78
-0.465
-0.11
0.255
0.65
1.05
1.44
1.81
2.08
2.22
2.16
1.825
1.205
0.565
-0.075
-0.715
-1.355
-1.955
-1.75
-1.485
-1.265
-1.145
-1.145
-1.22
-1.32
-1.395
-1.445
-1.465
-1.455
-1.42
-1.415
-1.425
-1.44
-1.465
-1.465
-1.47
-1.46
-1.45
-1.455
-1.445
-1.44
-1.42
-1.405
-1.39
-1.385
-1.39
-1.375
-1.37
-1.365
-1.365
-1.37
-1.355
-1.36
-1.355
-1.33
-1.33
-1.35
-1.34
-1.32
-1.305
-1.3
-1.305
-1.275
-1.25
-1.23
-1.215
-1.195
-1.175
-1.16
-1.16
-1.165
-1.17
-1.14
-1.11
-1.085
-1.045
-1.035
-0.985
-0.95
-0.915
-0.915
-0.895
-0.87
-0.86
-0.82
-0.79
-0.745
-0.715
-0.685
-0.66
-0.645
-0.625
-0.61
-0.605
-0.61
-0.605
-0.605
-0.61
-0.605
-0.61
-0.59
-0.595
-0.6
-0.61
-0.66
-0.705
-0.765
-0.84
-0.905
-0.98
-1.035
-1.065
-1.095
-1.13
-1.145
-1.16
-1.195
-1.225
-1.255
-1.285
-1.295
-1.325
-1.345
-1.35
-1.365
-1.375
-1.365
-1.355
-1.37
-1.375
-1.405
-1.425
-1.425
-1.415
-1.415
-1.39
-1.37
-1.39
-1.39
-1.39
-1.405
-1.42
-1.435
-1.445
-1.45
-1.44
-1.43
-1.425
-1.41
-1.4
-1.4
-1.405
-1.415
-1.41
-1.405
-1.415
-1.43
-1.44
-1.425
-1.415
-1.39
-1.38
-1.375
-1.39
-1.4
-1.41
-1.445
-1.435
-1.445
-1.445
-1.435
-1.435
-1.415
-1.42
-1.405
-1.42
-1.43
-1.435
-1.44
-1.455
-1.455
-1.445
-1.445
-1.425
-1.43
-1.44
-1.435
-1.43
-1.435
-1.45
-1.48
-1.485
-1.49
-1.49
-1.475
-1.465
-1.44
-1.44
-1.44
-1.435
-1.43
-1.455
-1.46
-1.455
-1.465
-1.48
-1.49
-1.49
-1.475
-1.46
-1.44
-1.455
-1.445
-1.455
-1.475
-1.47
-1.475
-1.49
-1.48
-1.475
-1.45
-1.425
-1.38
-1.365
-1.35
-1.36
-1.37
-1.385
-1.405
-1.415
-1.415
-1.39
-1.365
-1.35
-1.33
-1.33
-1.31
-1.305
-1.3
-1.285
-1.31
-1.315
-1.315
-1.315
-1.325
-1.32
-1.34
-1.315
-1.32
-1.32
-1.33
-1.365
-1.4
-1.425
-1.45
-1.48
-1.52
-1.54
-1.545
-1.545
-1.53
-1.525
-1.54
-1.535
-1.535
-1.53
-1.525
-1.52
-1.515
-1.485
-1.475
-1.46
-1.455
-1.475
-1.46
-1.465
-1.425
-1.34
-1.18
-0.94
-0.62
-0.215
0.25
0.745
1.24
1.68
2.01
2.19
2.2
1.975
1.5
0.86
0.22
-0.42
-1.06
-1.7
-2.05
-1.895
-1.665
-1.45
-1.3
-1.265
-1.275
-1.325
-1.385
-1.425
-1.44
-1.445
-1.435
-1.435
-1.46
-1.475
-1.485
-1.49
-1.485
-1.465
-1.46
-1.425
-1.39
-1.405
-1.4
-1.405
-1.42
-1.43
-1.43
-1.42
-1.42
-1.395
-1.35
-1.34
-1.325
-1.315
-1.295
-1.29
-1.3
-1.315
-1.315
-1.32
-1.32
-1.3
-1.285
-1.245
-1.225
-1.2
-1.185
-1.175
-1.17
-1.17
-1.13
-1.135
-1.11
-1.075
-1.05
-1.035
-1.005
-0.985
-0.965
-0.945
-0.93
-0.925
-0.9
-0.86
-0.84
-0.795
-0.78
-0.76
-0.725
-0.715
-0.69
-0.68
-0.675
-0.665
-0.67
-0.675
-0.68
-0.69
-0.695
-0.695
-0.69
-0.72
-0.77
-0.805
-0.865
-0.915
-0.985
-1.03
-1.085
-1.125
-1.17
-1.2
-1.23
-1.245
-1.26
-1.285
-1.315
-1.335
-1.345
-1.36
-1.395
-1.38
-1.375
-1.385
-1.375
-1.4
-1.395
-1.41
-1.41
-1.415
-1.435
-1.43
-1.425
-1.43
-1.425
-1.425
-1.42
-1.4
-1.4
-1.385
-1.39
-1.41
-1.42
-1.42
-1.425
-1.42
-1.395
-1.385
-1.37
-1.36
-1.355
-1.36
-1.355
-1.36
-1.36
-1.36
-1.37
-1.35
-1.35
-1.37
-1.36
-1.355
-1.35
-1.36
-1.365
-1.38
-1.38
-1.38
-1.37
-1.37
-1.36
-1.335
-1.35
-1.355
-1.355
-1.38
-1.4
-1.4
-1.405
-1.405
-1.425
-1.405
-1.395
-1.365
-1.335
-1.34
-1.35
-1.38
-1.39
-1.415
-1.43
-1.435
-1.43
-1.425
-1.405
-1.395
-1.38
-1.38
-1.38
-1.375
-1.375
-1.38
-1.395
-1.42
-1.41
-1.415
-1.39
-1.375
-1.355
-1.345
-1.34
-1.37
-1.38
-1.385
-1.365
-1.355
-1.345
-1.305
-1.29
-1.295
-1.27
-1.245
-1.265
-1.26
-1.26
-1.255
-1.26
-1.26
-1.255
-1.27
-1.25
-1.21
-1.18
-1.175
-1.16
-1.175
-1.215
-1.215
-1.25
-1.26
-1.29
-1.265
-1.25
-1.24
-1.235
-1.24
-1.255
-1.285
-1.32
-1.35
-1.36
-1.38
-1.4
-1.415
-1.405
-1.39
-1.375
-1.37
-1.38
-1.395
-1.405
-1.39
-1.39
-1.385
-1.36
-1.35
-1.335
-1.32
-1.31
-1.305
-1.305
-1.25
-1.185
-1.09
-0.94
-0.72
-0.46
-0.12
0.27
0.68
1.075
1.405
1.615
1.615
1.315
0.745
0.105
-0.535
-1.175
-1.815
-2.045
-1.86
-1.575
-1.315
-1.145
-1.09
-1.105
-1.165
-1.23
-1.285
-1.315
-1.315
-1.28
-1.26
-1.24
-1.245
-1.245
-1.23
-1.235
-1.26
-1.24
-1.25
-1.235
-1.235
-1.215
-1.215
-1.185
-1.19
-1.185
-1.18
-1.18
-1.165
-1.155
-1.155
-1.15
-1.14
-1.12
-1.105
-1.08
-1.05
-1.04
-1.04
-1.025
-1.035
-1.025
-1.025
-1.005
-0.985
-0.965
-0.94
-0.885
-0.855
-0.85
-0.835
-0.835
-0.825
-0.79
-0.765
-0.74
-0.7
-0.665
-0.615
-0.615
-0.585
-0.565
-0.555
-0.545
-0.525
-0.51
-0.5
-0.505
-0.485
-0.47
-0.46
-0.44
-0.435
-0.435
-0.455
-0.485
-0.52
-0.55
-0.605
-0.63
-0.665
-0.685
-0.715
-0.74
-0.755
-0.795
-0.825
-0.885
-0.925
-0.96
-0.98
-1.005
-1.02
-1.01
-1.02
-1.035
-1.025
-1.065
-1.07
-1.07
-1.1
-1.125
-1.125
-1.11
-1.11
-1.1
-1.08
-1.075
-1.09
-1.08
-1.085
-1.09
-1.1
-1.095
-1.09
-1.085
-1.075
-1.07
-1.055
-1.045
-1.035
-1.015
-1.025
-1.035
-1.05
-1.045
-1.06
-1.045
-1.035
-1.035
-1.035
-1.04
-1.025
-1.015
-1.02
-1.02
-1.02
-1.04
-1.045
-1.06
-1.055
-1.035
-1.035
-1.01
-1.015
-1.025
-1.035
-1.055
-1.07
-1.055
-1.08
-1.08
-1.075
-1.05
-1.045
-1.025
-1.03
-1.035
-1.045
-1.055
-1.065
-1.07
-1.085
-1.09
-1.08
-1.055
-1.035
-1.02
-1.015
-1.025
-1.055
-1.07
-1.085
-1.085
-1.095
-1.095
-1.08
-1.09
-1.07
-1.05
-1.045
-1.05
-1.05
-1.055
-1.065
-1.07
-1.09
-1.07
-1.045
-1.03
-0.99
-0.96
-0.955
-0.955
-0.94
-0.95
-0.95
-0.96
-0.955
-0.965
-0.955
-0.93
-0.91
-0.875
-0.85
-0.86
-0.84
-0.85
-0.865
-0.88
-0.9
-0.915
-0.93
-0.91
-0.915
-0.89
-0.895
-0.895
-0.94
-0.975
-1.015
-1.055
-1.085
-1.085
-1.08
-1.085
-1.075
-1.06
-1.065
-1.055
-1.03
-1.04
-1.07
-1.07
-1.08
-1.105
-1.09
-1.08
-1.07
-1.045
-1.045
-1.055
-1.045
-1.04
-0.995
-0.925
-0.785
-0.59
-0.335
-0.05
0.245
0.53
0.815
1.13
1.475
1.81
2.085
2.28
2.295
2.145
1.695
1.055
0.415
-0.225
-0.865
-1.505
-1.435
-1.21
-0.94
-0.775
-0.715
-0.75
-0.83
-0.89
-0.95
-0.985
-1.005
-0.99
-0.985
-0.985
-1.02
-1.015
-1.03
-1.035
-1.03
-1.005
-0.99
-0.965
-0.96
-0.965
-0.975
-0.975
-0.985
-0.965
-0.955
-0.955
-0.955
-0.935
-0.94
-0.915
-0.92
-0.91
-0.9
-0.895
-0.895
-0.89
-0.89
-0.9
-0.875
-0.84
-0.78
-0.77
-0.75
-0.75
-0.74
-0.735
-0.745
-0.74
-0.72
-0.725
-0.705
-0.65
-0.635
-0.595
-0.57
-0.535
-0.505
-0.495
-0.46
-0.45
-0.435
-0.4
-0.375
-0.32
-0.28
-0.255
-0.245
-0.24
-0.235
-0.23
-0.225
-0.215
-0.205
-0.185
-0.175
-0.165
-0.165
-0.16
-0.18
-0.21
-0.26
-0.325
-0.375
-0.425
-0.495
-0.53
-0.57
-0.595
-0.63
-0.65
-0.675
-0.71
-0.76
-0.8
-0.825
-0.84
-0.855
-0.88
-0.875
-0.875
-0.89
-0.9
-0.92
-0.915
-0.925
-0.94
-0.925
-0.93
-0.94
-0.94
-0.935
-0.935
-0.94
-0.945
-0.94
-0.93
-0.92
-0.92
-0.935
-0.935
-0.94
-0.94
-0.945
-0.945
-0.935
-0.94
-0.965
-0.945
-0.94
-0.93
-0.925
-0.92
-0.92
-0.915
-0.91
-0.9
-0.89
-0.875
-0.875
-0.88
-0.89
-0.905
-0.935
-0.92
-0.93
-0.93
-0.93
-0.905
-0.91
-0.89
-0.895
-0.89
-0.89
-0.905
-0.905
-0.925
-0.945
-0.945
-0.935
-0.925
-0.92
-0.91
-0.91
-0.915
-0.95
-0.945
-0.96
-0.965
-0.96
-0.955
-0.945
-0.94
-0.925
-0.905
-0.89
-0.89
-0.91
-0.94
-0.96
-0.96
-0.97
-0.995
-0.97
-0.955
-0.95
-0.945
-0.925
-0.925
-0.935
-0.93
-0.94
-0.935
-0.95
-0.935
-0.92
-0.88
-0.855
-0.83
-0.8
-0.805
-0.8
-0.81
-0.83
-0.84
-0.84
-0.835
-0.795
-0.785
-0.755
-0.74
-0.725
-0.73
-0.73
-0.745
-0.74
-0.75
-0.755
-0.785
-0.79
-0.805
-0.8
-0.805
-0.81
-0.825
-0.845
-0.885
-0.915
-0.94
-0.98
-1.005
-1.025
-1.015
-1.0
-0.98
-0.97
-0.97
-0.95
-0.955
-0.96
-0.97
-0.975
-0.99
-0.985
-0.975
-0.97
-0.965
-0.93
-0.905
-0.84
-0.73
-0.545
-0.285
0.04
0.41
0.81
1.205
1.6
1.965
2.27
2.48
2.575
2.53
2.33
1.865
1.225
0.585
-0.055
-0.695
-1.335
-1.28
-1.055
-0.815
-0.65
-0.635
-0.68
-0.75
-0.845
-0.93
-0.98
-0.965
-0.955
-0.935
-0.92
-0.915
-0.935
-0.96
-0.965
-0.98
-0.995
-0.98
-0.97
-0.96
-0.95
-0.925
-0.925
-0.925
-0.895
-0.9
-0.905
-0.905
-0.9
-0.89
-0.885
-0.87
-0.875
-0.85
-0.855
-0.855
-0.845
-0.85
-0.84
-0.825
-0.82
-0.805
-0.79
-0.765
-0.74
-0.72
-0.695
-0.68
-0.66
-0.655
-0.635
-0.64
-0.63
-0.605
-0.59
-0.56
-0.515
-0.485
-0.445
-0.41
-0.37
-0.35
-0.32
-0.31
-0.295
-0.28
-0.25
-0.225
-0.215
-0.185
-0.17
-0.17
-0.19
-0.2
-0.225
-0.225
-0.24
-0.255
-0.27
-0.28
-0.3
-0.33
-0.375
-0.43
-0.495
-0.575
-0.61
-0.67
-0.72
-0.76
-0.79
-0.815
-0.84
-0.865
-0.86
-0.895
-0.905
-0.93
-0.98
-1.01
-1.0
-1.015
-1.0
-0.99
-0.985
-0.99
-0.98
-0.99
-0.99
-1.005
-1.01
-1.02
-1.035
-1.05
-1.04
-1.03
-1.02
-1.01
-1.005
-1.005
-1.01
-1.025
-1.025
-1.025
-1.025
-1.03
-1.025
-1.015
-1.01
-1.0
-0.98
-0.99
-0.99
-0.995
-0.995
-1.005
-1.025
-1.045
-1.035
-1.02
-1.015
-0.99
-1.01
-0.99
-1.0
-1.02
-1.025
-1.035
-1.02
-1.04
-1.025
-1.02
-1.015
-1.035
-1.02
-1.025
-1.025
-1.03
-1.065
-1.08
-1.08
-1.065
-1.04
-1.025
-1.025
-1.05
-1.05
-1.07
-1.06
-1.075
-1.08
-1.08
-1.08
-1.085
-1.095
-1.085
-1.075
-1.05
-1.055
-1.05
-1.055
-1.08
-1.085
-1.095
-1.095
-1.095
-1.11
-1.09
-1.075
-1.065
-1.045
-1.035
-1.03
-1.015
-1.015
-1.005
-0.995
-1.01
-1.0
-0.995
-0.98
-0.955
-0.965
-0.955
-0.96
-0.965
-0.955
-0.945
-0.92
-0.905
-0.915
-0.9
-0.91
-0.915
-0.925
-0.935
-0.945
-0.965
-0.97
-0.975
-1.0
-0.995
-1.01
-1.015
-1.03
-1.035
-1.07
-1.085
-1.115
-1.135
-1.155
-1.16
-1.15
-1.14
-1.15
-1.125
-1.105
-1.105
-1.095
-1.095
-1.09
-1.095
-1.125
-1.135
-1.165
-1.135
-1.1
-1.065
-1.0
-0.905
-0.75
-0.53
-0.23
0.115
0.525
0.965
1.385
1.785
2.09
2.26
2.225
1.93
1.33
0.69
0.05
-0.59
-1.23
-1.795
-1.675
-1.435
-1.16
-0.955
-0.865
-0.85
-0.9
-0.98
-1.04
-1.095
-1.135
-1.135
-1.13
-1.1
-1.095
-1.07
-1.07
-1.075
-1.07
-1.06
-1.07
-1.095
-1.09
-1.085
-1.085
-1.095
-1.08
-1.065
-1.055
-1.05
-1.03
-1.03
-1.035
-1.04
-1.035
-1.02
-1.015
-1.015
-1.005
-0.99
-0.975
-0.975
-0.945
-0.925
-0.905
-0.905
-0.88
-0.885
-0.88
-0.88
-0.87
-0.84
-0.82
-0.785
-0.765
-0.73
-0.7
-0.68
-0.665
-0.65
-0.63
-0.605
-0.57
-0.535
-0.52
-0.47
-0.445
-0.435
-0.43
-0.43
-0.43
-0.42
-0.395
-0.385
-0.355
-0.355
-0.335
-0.325
-0.315
-0.315
-0.355
-0.39
-0.42
-0.45
-0.505
-0.555
-0.595
-0.625
-0.635
-0.645
-0.655
-0.69
-0.73
-0.785
-0.83
-0.875
-0.915
-0.945
-0.97
-0.975
-0.99
-1.01
-1.015
-1.025
-1.03
-1.04
-1.055
-1.06
-1.06
-1.075
-1.07
-1.055
-1.055
-1.05
-1.05
-1.07
-1.075
-1.1
-1.085
-1.095
-1.095
-1.095
-1.08
-1.07
-1.065
-1.045
-1.035
-1.035
-1.03
-1.035
-1.03
-1.04
-1.025
-1.01
-1.02
-1.02
-1.01
-1.015
-1.025
-1.015
-0.985
-1.0
-0.99
-1.005
-1.03
-1.03
-1.045
-1.025
-1.015
-0.995
-0.98
-0.985
-0.995
-1.01
-1.02
-1.025
-1.015
-1.035
-1.035
-1.015
-1.01
-1.0
-0.99
-1.0
-1.01
-1.025
-1.045
-1.05
-1.07
-1.065
-1.06
-1.05
-1.03
-1.03
-1.03
-1.02
-1.005
-1.01
-1.025
-1.045
-1.06
-1.065
-1.05
-1.06
-1.05
-1.04
-1.015
-1.015
-1.03
-1.03
-1.04
-1.04
-1.035
-1.04
-1.06
-1.05
-1.045
-1.035
-1.03
-1.015
-1.0
-1.0
-0.985
-0.98
-0.955
-0.95
-0.94
-0.92
-0.91
-0.915
-0.915
-0.915
-0.9
-0.915
-0.915
-0.885
-0.885
-0.865
-0.83
-0.84
-0.825
-0.815
-0.81
-0.85
-0.845
-0.875
-0.88
-0.895
-0.9
-0.91
-0.92
-0.935
-0.95
-0.955
-0.96
-0.98
-1.015
-1.04
-1.07
-1.095
-1.1
-1.105
-1.105
-1.07
-1.06
-1.04
-1.05
-1.055
-1.06
-1.07
-1.07
-1.075
-1.075
-1.095
-1.095
-1.085
-1.09
-1.05
-0.995
-0.925
-0.8
-0.63
-0.405
-0.135
0.185
0.52
0.855
1.235
1.6
1.945
2.24
2.405
2.435
2.27
1.86
1.22
0.58
-0.06
-0.7
-1.34
-1.465
-1.235
-0.965
-0.77
-0.67
-0.685
-0.77
-0.87
-0.96
-1.0
-1.02
-1.02
-1.0
-0.985
-0.965
-0.975
-1.0
-1.01
-1.015
-1.02
-1.025
-1.015
-1.0
-0.99
-0.97
-0.97
-0.94
-0.94
-0.945
-0.95
-0.95
-0.94
-0.945
-0.94
-0.945
-0.935
-0.925
-0.905
-0.88
-0.87
-0.86
-0.86
-0.87
-0.845
-0.84
-0.815
-0.81
-0.795
-0.785
-0.75
-0.72
-0.7
-0.715
-0.71
-0.695
-0.695
-0.665
-0.65
-0.62
-0.585
-0.55
-0.5
-0.46
-0.44
-0.41
-0.39
-0.375
-0.355
-0.335
-0.325
-0.285
-0.265
-0.245
-0.245
-0.22
-0.21
-0.205
-0.19
-0.21
-0.225
-0.245
-0.28
-0.31
-0.34
-0.375
-0.41
-0.435
-0.49
-0.55
-0.595
-0.645
-0.7
-0.725
-0.775
-0.785
-0.805
-0.825
-0.83
-0.83
-0.86
-0.89
-0.92
-0.945
-0.965
-0.975
-0.98
-0.985
-0.975
-0.97
-0.975
-0.985
-0.965
-0.975
-0.97
-1.0
-1.025
-1.03
-1.035
-1.03
-1.015
-0.995
-0.97
-0.97
-0.96
-0.955
-0.97
-0.97
-0.985
-0.99
-1.005
-1.005
-0.98
-0.95
-0.93
-0.91
-0.92
-0.925
-0.93
-0.93
-0.95
-0.95
-0.96
-0.965
-0.96
-0.95
-0.94
-0.925
-0.925
-0.93
-0.94
-0.96
-0.97
-0.985
-0.98
-0.98
-0.955
-0.945
-0.93
-0.915
-0.93
-0.95
-0.94
-0.975
-0.98
-1.005
-1.01
-1.02
-1.015
-1.01
-1.005
-0.98
-0.965
-0.975
-0.975
-0.995
-1.01
-1.015
-1.035
-1.015
-0.985
-0.98
-0.965
-0.985
-0.975
-0.985
-0.995
-1.015
-1.0
-1.01
-1.02
-1.005
-1.0
-1.0
-0.995
-1.0
-1.0
-0.985
-0.985
-0.985
-0.985
-0.975
-0.965
-0.94
-0.92
-0.885
-0.87
-0.865
-0.86
-0.865
-0.88
-0.9
-0.895
-0.885
-0.875
-0.845
-0.82
-0.795
-0.8
-0.78
-0.81
-0.825
-0.84
-0.86
-0.85
-0.845
-0.87
-0.89
-0.895
-0.915
-0.92
-0.94
-0.98
-0.99
-1.01
-1.045
-1.065
-1.065
-1.075
-1.08
-1.07
-1.065
-1.045
-1.025
-1.03
-1.025
-1.03
-1.04
-1.05
-1.045
-1.055
-1.075
-1.055
-1.025
-0.995
-0.915
-0.79
-0.595
-0.32
0.0
0.38
0.765
1.18
1.585
1.97
2.27
2.455
2.53
2.445
2.15
1.565
0.925
0.285
-0.355
-0.995
-1.475
-1.255
-0.97
-0.745
-0.645
-0.67
-0.765
-0.89
-0.995
-1.065
-1.045
-1.03
-1.04
-1.015
-1.02
-1.04
-1.035
-1.04
-1.05
-1.055
-1.05
-1.05
-1.05
-1.04
-1.045
-1.025
-1.005
-0.995
-0.98
-0.985
-0.985
-1.0
-1.005
-1.0
-0.99
-0.985
-0.995
-0.985
-0.945
-0.925
-0.915
-0.915
-0.9
-0.9
-0.895
-0.9
-0.885
-0.885
-0.86
-0.84
-0.83
-0.83
-0.81
-0.795
-0.785
-0.755
-0.74
-0.72
-0.675
-0.675
-0.65
-0.61
-0.585
-0.57
-0.53
-0.49
-0.49
-0.47
-0.455
-0.42
-0.39
-0.37
-0.34
-0.34
-0.315
-0.3
-0.31
-0.29
-0.27
-0.28
-0.29
-0.305
-0.33
-0.365
-0.395
-0.43
-0.46
-0.485
-0.52
-0.585
-0.65
-0.71
-0.78
-0.83
-0.88
-0.92
-0.945
-0.95
-0.94
-0.955
-0.975
-0.985
-1.015
-1.03
-1.05
-1.05
-1.085
-1.1
-1.105
-1.09
-1.1
-1.1
-1.075
-1.07
-1.075
-1.08
-1.11
-1.115
-1.135
-1.15
-1.14
-1.12
-1.1
-1.095
-1.085
-1.08
-1.09
-1.11
-1.105
-1.12
-1.12
-1.12
-1.115
-1.1
-1.085
-1.085
-1.065
-1.075
-1.055
-1.07
-1.07
-1.085
-1.085
-1.105
-1.115
-1.105
-1.105
-1.1
-1.105
-1.09
-1.09
-1.11
-1.12
-1.13
-1.135
-1.13
-1.15
-1.14
-1.15
-1.135
-1.13
-1.115
-1.115
-1.115
-1.13
-1.165
-1.18
-1.19
-1.195
-1.17
-1.175
-1.18
-1.155
-1.155
-1.155
-1.155
-1.17
-1.18
-1.165
-1.155
-1.165
-1.16
-1.155
-1.15
-1.145
-1.15
-1.18
-1.19
-1.185
-1.21
-1.18
-1.16
-1.15
-1.145
-1.125
-1.1
-1.07
-1.065
-1.07
-1.065
-1.08
-1.085
-1.075
-1.09
-1.08
-1.09
-1.085
-1.065
-1.05
-1.02
-1.005
-0.985
-0.975
-0.975
-0.985
-0.995
-1.02
-1.025
-1.025
-1.02
-1.02
-1.025
-1.03
-1.04
-1.04
-1.07
-1.1
-1.125
-1.155
-1.175
-1.2
-1.23
-1.235
-1.245
-1.215
-1.215
-1.23
-1.23
-1.24
-1.23
-1.235
-1.225
-1.24
-1.245
-1.225
-1.215
-1.215
-1.21
-1.2
-1.2
-1.16
-1.125
-0.99
-0.81
-0.55
-0.225
0.19
0.62
1.075
1.53
1.905
2.175
2.36
2.4
2.345
2.15
1.76
1.135
0.495
-0.145
-0.785
-1.425
-1.69
-1.55
-1.29
-1.075
-0.95
-0.905
-0.93
-0.995
-1.06
-1.12
-1.145
-1.17
-1.205
-1.205
-1.2
-1.2
-1.2
-1.185
-1.185
-1.195
-1.16
-1.15
-1.16
-1.15
-1.16
-1.165
-1.145
-1.14
-1.16
-1.17
-1.145
-1.11
-1.095
-1.07
-1.075
-1.065
-1.085
-1.09
-1.085
-1.095
-1.1
-1.085
-1.08
-1.055
-1.01
-1.0
-0.995
-0.985
-0.97
-0.97
-0.96
-0.96
-0.945
-0.92
-0.915
-0.895
-0.855
-0.82
-0.795
-0.775
-0.77
-0.745
-0.755
-0.745
-0.735
-0.7
-0.68
-0.635
-0.58
-0.55
-0.52
-0.51
-0.485
-0.495
-0.47
-0.465
-0.465
-0.44
-0.435
-0.425
-0.42
-0.41
-0.43
-0.42
-0.445
-0.46
-0.46
-0.485
-0.51
-0.53
-0.565
-0.605
-0.64
-0.69
-0.74
-0.8
-0.85
-0.9
-0.935
-0.965
-1.0
-1.02
-1.03
-1.055
-1.05
-1.07
-1.08
-1.105
-1.115
-1.14
-1.155
-1.17
-1.19
-1.19
-1.19
-1.19
-1.19
-1.2
-1.21
-1.23
-1.25
-1.25
-1.25
-1.27
-1.265
-1.25
-1.24
-1.235
-1.215
-1.21
-1.205
-1.2
-1.21
-1.225
-1.22
-1.215
-1.22
-1.215
-1.205
-1.18
-1.165
-1.16
-1.175
-1.165
-1.17
-1.18
-1.185
-1.18
-1.165
-1.165
-1.155
-1.17
-1.155
-1.155
-1.155
-1.17
-1.185
-1.185
-1.185
-1.18
-1.185
-1.17
-1.165
-1.16
-1.175
-1.185
-1.19
-1.185
-1.185
-1.18
-1.185
-1.2
-1.205
-1.195
-1.205
-1.2
-1.19
-1.185
-1.185
-1.18
-1.19
-1.2
-1.215
-1.225
-1.245
-1.26
-1.23
-1.215
-1.195
-1.18
-1.17
-1.185
-1.2
-1.2
-1.205
-1.215
-1.23
-1.225
-1.205
-1.2
-1.185
-1.21
-1.185
-1.165
-1.165
-1.165
-1.16
-1.15
-1.115
-1.095
-1.065
-1.045
-1.04
-1.04
-1.03
-1.05
-1.07
-1.085
-1.09
-1.08
-1.05
-1.02
-0.985
-0.96
-0.94
-0.95
-0.95
-0.955
-0.985
-0.99
-1.0
-1.015
-1.01
-1.015
-1.005
-1.01
-1.005
-1.02
-1.065
-1.085
-1.135
-1.165
-1.205
-1.225
-1.23
-1.22
-1.205
-1.19
-1.17
-1.155
-1.17
-1.17
-1.17
-1.17
-1.175
-1.19
-1.19
-1.205
-1.195
-1.165
-1.14
-1.075
-0.975
-0.785
-0.52
-0.16
0.27
0.77
1.295
1.775
2.145
2.385
2.45
2.295
1.89
1.25
0.61
-0.03
-0.67
-1.31
-1.85
-1.63
-1.295
-0.99
-0.805
-0.77
-0.855
-0.96
-1.065
-1.14
-1.18
-1.175
-1.175
-1.155
-1.145
-1.135
-1.14
-1.14
-1.135
-1.11
-1.115
-1.135
-1.135
-1.13
-1.125
-1.11
-1.09
-1.09
-1.06
-1.055
-1.045
-1.05
-1.05
-1.07
-1.055
-1.055
-1.025
-1.02
-0.995
-1.0
-0.975
-0.975
-0.96
-0.945
-0.945
-0.945
-0.94
-0.945
-0.92
-0.9
-0.855
-0.835
-0.805
-0.79
-0.765
-0.755
-0.735
-0.715
-0.68
-0.655
-0.63
-0.6
-0.59
-0.565
-0.54
-0.5
-0.485
-0.46
-0.455
-0.425
-0.415
-0.395
-0.39
-0.38
-0.38
-0.37
-0.35
-0.35
-0.34
-0.33
-0.345
-0.37
-0.4
-0.425
-0.455
-0.475
-0.505
-0.55
-0.585
-0.63
-0.675
-0.73
-0.76
-0.82
-0.885
-0.915
-0.95
-0.965
-0.97
-0.98
-0.985
-1.01
-1.035
-1.06
-1.075
-1.085
-1.085
-1.09
-1.08
-1.085
-1.08
-1.08
-1.075
-1.07
-1.08
-1.095
-1.095
-1.125
-1.13
-1.145
-1.125
-1.125
-1.105
-1.095
-1.085
-1.06
-1.055
-1.06
-1.06
-1.06
-1.075
-1.09
-1.085
-1.075
-1.055
-1.05
-1.025
-1.02
-1.01
-1.03
-1.045
-1.035
-1.05
-1.075
-1.05
-1.05
-1.045
-1.05
-1.04
-1.05
-1.055
-1.055
-1.08
-1.09
-1.09
-1.09
-1.09
-1.085
-1.09
-1.105
-1.08
-1.075
-1.08
-1.085
-1.11
-1.1
-1.1
-1.11
-1.11
-1.105
-1.11
-1.105
-1.085
-1.085
-1.1
-1.105
-1.11
-1.135
-1.13
-1.125
-1.13
-1.15
-1.14
-1.125
-1.115
-1.115
-1.115
-1.115
-1.12
-1.115
-1.115
-1.12
-1.115
-1.105
-1.1
-1.095
-1.09
-1.1
-1.1
-1.1
-1.1
-1.08
-1.065
-1.04
-1.025
-1.025
-1.02
-1.03
-1.0
-1.005
-0.99
-1.01
-0.975
-0.985
-0.975
-0.975
-0.96
-0.945
-0.92
-0.92
-0.9
-0.91
-0.92
-0.93
-0.945
-0.955
-0.98
-0.98
-0.985
-0.985
-0.995
-1.005
-1.03
-1.06
-1.075
-1.11
-1.14
-1.165
-1.185
-1.18
-1.195
-1.185
-1.17
-1.165
-1.17
-1.16
-1.165
-1.165
-1.155
-1.16
-1.17
-1.18
-1.175
-1.19
-1.175
-1.185
-1.165
-1.12
-1.06
-0.95
-0.81
-0.59
-0.33
-0.01
0.35
0.75
1.175
1.625
2.02
2.295
2.4
2.34
2.02
1.41
0.77
0.13
-0.51
-1.15
-1.615
-1.38
-1.06
-0.835
-0.73
-0.745
-0.865
-0.965
-1.09
-1.14
-1.18
-1.16
-1.145
-1.13
-1.105
-1.115
-1.115
-1.125
-1.135
-1.135
-1.165
-1.165
-1.16
-1.14
-1.13
-1.105
-1.085
-1.06
-1.065
-1.07
-1.065
-1.07
-1.07
-1.075
-1.075
-1.065
-1.03
-1.005
-0.985
-0.97
-0.965
-0.96
-0.955
-0.965
-0.96
-0.95
-0.935
-0.935
-0.91
-0.88
-0.855
-0.815
-0.8
-0.785
-0.775
-0.755
-0.735
-0.71
-0.7
-0.67
-0.625
-0.605
-0.56
-0.515
-0.5
-0.48
-0.485
-0.475
-0.45
-0.445
-0.43
-0.41
-0.395
-0.4
-0.405
-0.395
-0.39
-0.395
-0.435
-0.475
-0.52
-0.565
-0.595
-0.65
-0.675
-0.715
-0.755
-0.78
-0.835
-0.875
-0.925
-0.97
-1.015
-1.045
-1.085
-1.09
-1.105
-1.12
-1.15
-1.155
-1.145
-1.16
-1.175
-1.185
-1.205
-1.2
-1.21
-1.215
-1.225
-1.225
-1.23
-1.23
-1.22
-1.215
-1.225
-1.215
-1.23
-1.255
-1.235
-1.235
-1.235
-1.22
-1.21
-1.215
-1.22
-1.215
-1.215
-1.22
-1.225
-1.215
-1.21
-1.22
-1.205
-1.205
-1.19
-1.185
-1.2
-1.195
-1.22
-1.215
-1.235
-1.24
-1.24
-1.245
-1.245
-1.23
-1.235
-1.245
-1.255
-1.26
-1.27
-1.26
-1.28
-1.28
-1.28
-1.295
-1.295
-1.29
-1.275
-1.265
-1.27
-1.285
-1.28
-1.295
-1.305
-1.31
-1.33
-1.335
-1.325
-1.295
-1.28
-1.275
-1.275
-1.28
-1.32
-1.32
-1.34
-1.33
-1.325
-1.32
-1.305
-1.3
-1.275
-1.27
-1.29
-1.3
-1.32
-1.31
-1.325
-1.32
-1.315
-1.3
-1.265
-1.23
-1.185
-1.175
-1.185
-1.19
-1.205
-1.21
-1.215
-1.21
-1.195
-1.215
-1.205
-1.19
-1.16
-1.13
-1.14
-1.135
-1.145
-1.115
-1.13
-1.155
-1.175
-1.205
-1.195
-1.19
-1.18
-1.155
-1.17
-1.185
-1.215
-1.235
-1.28
-1.3
-1.325
-1.34
-1.355
-1.37
-1.365
-1.36
-1.35
-1.33
-1.35
-1.35
-1.345
-1.345
-1.345
-1.36
-1.335
-1.315
-1.305
-1.31
-1.315
-1.335
-1.335
-1.325
-1.275
-1.205
-1.08
-0.87
-0.6
-0.265
0.135
0.57
1.005
1.455
1.825
2.12
2.285
2.325
2.225
1.995
1.565
0.96
0.32
-0.32
-0.96
-1.6
-1.82
-1.71
-1.48
-1.265
-1.105
-1.045
-1.06
-1.125
-1.18
-1.25
-1.29
-1.305
-1.32
-1.31
-1.32
-1.32
-1.335
-1.345
-1.345
-1.345
-1.315
-1.295
-1.285
-1.27
-1.265
-1.275
-1.27
-1.28
-1.28
-1.275
-1.255
-1.245
-1.205
-1.205
-1.195
-1.185
-1.2
-1.195
-1.19
-1.2
-1.195
-1.18
-1.175
-1.18
-1.155
-1.135
-1.115
-1.105
-1.085
-1.1
-1.085
-1.065
-1.045
-1.015
-0.995
-0.98
-0.945
-0.925
-0.915
-0.87
-0.86
-0.865
-0.85
-0.825
-0.8
-0.75
-0.72
-0.68
-0.655
-0.63
-0.61
-0.595
-0.58
-0.575
-0.57
-0.57
-0.555
-0.56
-0.55
-0.56
-0.555
-0.55
-0.57
-0.605
-0.65
-0.695
-0.74
-0.79
-0.825
-0.875
-0.91
-0.945
-0.98
-1.005
-1.045
-1.095
-1.135
-1.16
-1.2
-1.225
-1.25
-1.275
-1.26
-1.255
-1.235
-1.235
-1.235
-1.26
-1.285
-1.29
-1.315
-1.315
-1.325
-1.33
-1.315
-1.32
-1.305
-1.295
-1.3
-1.29
-1.285
-1.285
-1.28
-1.275
-1.29
-1.285
-1.265
-1.26
-1.265
-1.255
-1.245
-1.25
-1.255
-1.255
-1.26
-1.25
-1.255
-1.255
-1.23
-1.235
-1.225
-1.23
-1.235
-1.235
-1.235
-1.23
-1.245
-1.23
-1.24
-1.235
-1.225
-1.23
-1.24
-1.235
-1.245
-1.25
-1.26
-1.27
-1.285
-1.295
-1.305
-1.305
-1.295
-1.255
-1.255
-1.23
-1.23
-1.24
-1.27
-1.28
-1.285
-1.275
-1.28
-1.29
-1.285
-1.26
-1.26
-1.265
-1.28
-1.275
-1.265
-1.265
-1.28
-1.285
-1.3
-1.305
-1.3
-1.285
-1.265
-1.265
-1.25
-1.245
-1.255
-1.25
-1.26
-1.26
-1.265
-1.25
-1.225
-1.19
-1.155
-1.135
-1.13
-1.125
-1.13
-1.135
-1.14
-1.145
-1.15
-1.135
-1.145
-1.135
-1.1
-1.065
-1.055
-1.04
-1.045
-1.055
-1.085
-1.095
-1.12
-1.135
-1.125
-1.11
-1.095
-1.085
-1.1
-1.115
-1.15
-1.185
-1.21
-1.245
-1.265
-1.28
-1.285
-1.29
-1.285
-1.265
-1.265
-1.265
-1.26
-1.255
-1.265
-1.27
-1.27
-1.275
-1.255
-1.24
-1.25
-1.255
-1.25
-1.24
-1.21
-1.145
-1.05
-0.88
-0.645
-0.36
-0.02
0.3
0.645
1.025
1.43
1.815
2.105
2.28
2.28
2.08
1.585
0.945
0.305
-0.335
-0.975
-1.615
-1.63
-1.365
-1.085
-0.905
-0.85
-0.93
-1.025
-1.125
-1.21
-1.24
-1.24
-1.23
-1.205
-1.18
-1.18
-1.2
-1.205
-1.24
-1.24
-1.235
-1.22
-1.19
-1.19
-1.17
-1.155
-1.155
-1.145
-1.16
-1.175
-1.165
-1.16
-1.15
-1.115
-1.1
-1.1
-1.08
-1.08
-1.07
-1.07
-1.065
-1.07
-1.055
-1.06
-1.045
-1.01
-0.995
-0.98
-0.94
-0.92
-0.905
-0.875
-0.875
-0.87
-0.85
-0.83
-0.805
-0.75
-0.725
-0.685
-0.67
-0.655
-0.64
-0.6
-0.575
-0.555
-0.52
-0.515
-0.51
-0.49
-0.46
-0.43
-0.395
-0.375
-0.38
-0.38
-0.405
-0.42
-0.425
-0.45
-0.49
-0.51
-0.525
-0.575
-0.605
-0.655
-0.695
-0.755
-0.8
-0.85
-0.925
-0.965
-0.995
-1.03
-1.02
-1.02
-1.025
-1.055
-1.08
-1.095
-1.12
-1.13
-1.145
-1.15
-1.165
-1.17
-1.165
-1.165
-1.14
-1.14
-1.13
-1.13
-1.15
-1.145
-1.16
-1.16
-1.165
-1.16
-1.16
-1.135
-1.11
-1.125
-1.14
-1.135
-1.135
-1.135
-1.125
-1.125
-1.14
-1.13
-1.12
-1.12
-1.105
-1.095
-1.08
-1.085
-1.09
-1.1
-1.09
-1.105
-1.105
-1.105
-1.085
-1.08
-1.08
-1.07
-1.07
-1.1
-1.115
-1.13
-1.125
-1.125
-1.1
-1.11
-1.105
-1.115
-1.11
-1.11
-1.12
-1.12
-1.115
-1.16
-1.155
-1.15
-1.15
-1.13
-1.13
-1.13
-1.135
-1.13
-1.14
-1.155
-1.16
-1.18
-1.175
-1.185
-1.195
-1.2
-1.19
-1.17
-1.145
-1.135
-1.135
-1.135
-1.15
-1.17
-1.18
-1.195
-1.19
-1.19
-1.16
-1.15
-1.145
-1.14
-1.15
-1.155
-1.15
-1.145
-1.125
-1.095
-1.065
-1.055
-1.04
-1.04
-1.025
