Lead II
-0.02
-0.06
-0.085
-0.1
-0.115
-0.135
-0.155
-0.19
-0.21
-0.22
-0.215
-0.23
-0.25
-0.28
-0.315
-0.325
-0.31
-0.315
-0.335
-0.35
-0.37
-0.36
-0.365
-0.38
-0.37
-0.395
-0.41
-0.415
-0.395
-0.395
-0.41
-0.43
-0.445
-0.425
-0.425
-0.415
-0.41
-0.43
-0.45
-0.435
-0.425
-0.41
-0.425
-0.43
-0.435
-0.46
-0.45
-0.43
-0.43
-0.44
-0.445
-0.44
-0.415
-0.415
-0.405
-0.42
-0.4
-0.395
-0.39
-0.385
-0.38
-0.385
-0.375
-0.39
-0.375
-0.365
-0.365
-0.38
-0.39
-0.375
-0.37
-0.37
-0.365
-0.375
-0.38
-0.375
-0.355
-0.36
-0.365
-0.385
-0.41
-0.4
-0.385
-0.385
-0.38
-0.41
-0.405
-0.395
-0.375
-0.395
-0.405
-0.415
-0.39
-0.395
-0.385
-0.38
-0.395
-0.415
-0.42
-0.405
-0.385
-0.37
-0.4
-0.405
-0.42
-0.415
-0.395
-0.385
-0.38
-0.42
-0.415
-0.405
-0.395
-0.39
-0.395
-0.405
-0.415
-0.405
-0.395
-0.39
-0.39
-0.405
-0.405
-0.405
-0.395
-0.4
-0.39
-0.395
-0.4
-0.385
-0.385
-0.39
-0.39
-0.41
-0.425
-0.415
-0.4
-0.385
-0.4
-0.425
-0.42
-0.39
-0.385
-0.38
-0.385
-0.41
-0.405
-0.385
-0.375
-0.365
-0.37
-0.385
-0.4
-0.405
-0.385
-0.39
-0.375
-0.39
-0.39
-0.385
-0.365
-0.355
-0.365
-0.37
-0.38
-0.375
-0.365
-0.345
-0.355
-0.355
-0.355
-0.345
-0.325
-0.31
-0.315
-0.32
-0.31
-0.29
-0.255
-0.24
-0.235
-0.23
-0.195
-0.18
-0.14
-0.085
-0.03
0.0
-0.01
-0.005
-0.02
-0.04
-0.065
-0.1
-0.105
-0.12
-0.12
-0.145
-0.17
-0.215
-0.245
-0.255
-0.265
-0.285
-0.295
-0.32
-0.33
-0.32
-0.295
-0.29
-0.305
-0.315
-0.315
-0.295
-0.3
-0.28
-0.32
-0.385
-0.46
-0.5
-0.435
-0.25
0.085
0.525
1.055
1.545
1.875
2.06
2.125
2.105
2.005
1.805
1.38
0.74
0.1
-0.54
-0.635
-0.455
-0.375
-0.4
-0.44
-0.42
-0.39
-0.36
-0.34
-0.345
-0.365
-0.395
-0.4
-0.38
-0.37
-0.38
-0.37
-0.375
-0.385
-0.37
-0.355
-0.35
-0.36
-0.37
-0.375
-0.365
-0.335
-0.325
-0.315
-0.335
-0.335
-0.325
-0.32
-0.31
-0.31
-0.32
-0.315
-0.3
-0.275
-0.275
-0.27
-0.265
-0.275
-0.28
-0.27
-0.245
-0.24
-0.245
-0.245
-0.235
-0.19
-0.175
-0.175
-0.18
-0.175
-0.16
-0.13
-0.1
-0.115
-0.115
-0.105
-0.07
-0.02
0.005
0.01
0.025
0.035
0.075
0.1
0.13
0.16
0.165
0.195
0.235
0.295
0.33
0.36
0.375
0.37
0.41
0.46
0.505
0.535
0.55
0.565
0.595
0.63
0.67
0.69
0.685
0.67
0.68
0.695
0.7
0.68
0.655
0.625
0.62
0.61
0.59
0.56
0.51
0.48
0.46
0.425
0.415
0.385
0.335
0.295
0.275
0.26
0.23
0.215
0.17
0.135
0.11
0.1
0.09
0.065
0.03
-0.005
0.015
0.015
0.005
-0.02
-0.055
-0.085
-0.075
-0.08
-0.07
-0.08
-0.1
-0.105
-0.11
-0.095
-0.11
-0.14
-0.16
-0.145
-0.165
-0.135
-0.135
-0.145
-0.14
-0.16
-0.15
-0.13
-0.115
-0.125
-0.145
-0.16
-0.15
-0.13
-0.09
-0.105
-0.11
-0.105
-0.105
-0.09
-0.08
-0.09
-0.095
-0.095
-0.1
-0.065
-0.065
-0.07
-0.09
-0.085
-0.08
-0.06
-0.05
-0.06
-0.085
-0.105
-0.11
-0.115
-0.125
-0.115
-0.14
-0.145
-0.125
-0.12
-0.12
-0.135
-0.165
-0.165
-0.175
-0.155
-0.16
-0.175
-0.19
-0.19
-0.19
-0.19
-0.18
-0.175
-0.2
-0.215
-0.205
-0.195
-0.195
-0.195
-0.205
-0.215
-0.205
-0.185
-0.19
-0.21
-0.235
-0.255
-0.25
-0.235
-0.225
-0.225
-0.235
-0.255
-0.25
-0.24
-0.25
-0.24
-0.27
-0.265
-0.27
-0.265
-0.255
-0.25
-0.275
-0.28
-0.27
-0.25
-0.255
-0.25
-0.265
-0.265
-0.265
-0.265
-0.27
-0.28
-0.285
-0.3
-0.28
-0.265
-0.27
-0.265
-0.285
-0.29
-0.28
-0.26
-0.27
-0.27
-0.295
-0.3
-0.31
-0.3
-0.295
-0.295
-0.305
-0.31
-0.31
-0.285
-0.285
-0.28
-0.29
-0.3
-0.305
-0.285
-0.28
-0.295
-0.3
-0.28
-0.26
-0.25
-0.24
-0.215
-0.22
-0.225
-0.195
-0.16
-0.15
-0.15
-0.14
-0.11
-0.06
0.015
0.05
0.025
-0.02
-0.06
-0.075
-0.075
-0.075
-0.09
-0.135
-0.155
-0.165
-0.2
-0.22
-0.245
-0.27
-0.29
-0.31
-0.31
-0.315
-0.33
-0.35
-0.34
-0.34
-0.34
-0.325
-0.33
-0.35
-0.335
-0.33
-0.325
-0.35
-0.405
-0.495
-0.58
-0.59
-0.485
-0.23
0.175
0.69
1.18
1.605
1.89
2.02
2.04
2.015
1.905
1.7
1.22
0.58
-0.06
-0.7
-0.635
-0.45
-0.38
-0.415
-0.435
-0.46
-0.455
-0.44
-0.435
-0.445
-0.45
-0.475
-0.5
-0.49
-0.485
-0.485
-0.495
-0.5
-0.52
-0.505
-0.485
-0.49
-0.47
-0.49
-0.5
-0.505
-0.505
-0.495
-0.485
-0.51
-0.5
-0.505
-0.495
-0.485
-0.49
-0.51
-0.505
-0.485
-0.47
-0.45
-0.46
-0.47
-0.48
-0.47
-0.445
-0.435
-0.435
-0.445
-0.455
-0.425
-0.415
-0.39
-0.4
-0.41
-0.415
-0.385
-0.365
-0.355
-0.345
-0.34
-0.34
-0.335
-0.3
-0.28
-0.275
-0.28
-0.275
-0.24
-0.21
-0.19
-0.165
-0.145
-0.13
-0.1
-0.06
-0.035
-0.005
0.01
0.05
0.085
0.135
0.175
0.2
0.23
0.25
0.28
0.31
0.35
0.375
0.375
0.39
0.405
0.425
0.42
0.41
0.395
0.365
0.38
0.36
0.335
0.32
0.27
0.24
0.215
0.185
0.16
0.125
0.09
0.05
0.035
0.02
-0.01
-0.045
-0.09
-0.14
-0.15
-0.155
-0.175
-0.195
-0.235
-0.23
-0.26
-0.255
-0.27
-0.295
-0.32
-0.34
-0.345
-0.345
-0.34
-0.36
-0.385
-0.395
-0.39
-0.4
-0.39
-0.41
-0.43
-0.455
-0.46
-0.445
-0.45
-0.45
-0.46
-0.475
-0.465
-0.455
-0.45
-0.465
-0.49
-0.49
-0.47
-0.47
-0.46
-0.465
-0.48
-0.48
-0.475
-0.45
-0.445
-0.45
-0.465
-0.46
-0.455
-0.44
-0.43
-0.445
-0.46
-0.45
-0.425
-0.415
-0.4
-0.42
-0.415
-0.42
-0.425
-0.4
-0.395
-0.4
-0.415
-0.435
-0.425
-0.41
-0.395
-0.4
-0.41
-0.44
-0.425
-0.41
-0.405
-0.425
-0.43
-0.445
-0.43
-0.425
-0.415
-0.435
-0.45
-0.455
-0.455
-0.435
-0.42
-0.425
-0.45
-0.455
-0.44
-0.425
-0.425
-0.43
-0.445
-0.475
-0.475
-0.46
-0.44
-0.445
-0.47
-0.48
-0.46
-0.46
-0.445
-0.465
-0.47
-0.48
-0.46
-0.45
-0.445
-0.45
-0.465
-0.47
-0.46
-0.45
-0.44
-0.45
-0.46
-0.47
-0.455
-0.44
-0.47
-0.465
-0.48
-0.495
-0.5
-0.485
-0.485
-0.48
-0.495
-0.5
-0.495
-0.48
-0.47
-0.46
-0.47
-0.475
-0.475
-0.465
-0.455
-0.46
-0.47
-0.47
-0.48
-0.445
-0.43
-0.445
-0.455
-0.48
-0.45
-0.435
-0.44
-0.455
-0.47
-0.465
-0.455
-0.445
-0.435
-0.44
-0.44
-0.45
-0.45
-0.445
-0.445
-0.45
-0.465
-0.465
-0.46
-0.435
-0.425
-0.425
-0.435
-0.44
-0.425
-0.41
-0.4
-0.385
-0.395
-0.39
-0.375
-0.335
-0.305
-0.3
-0.285
-0.285
-0.24
-0.2
-0.135
-0.085
-0.075
-0.085
-0.09
-0.12
-0.145
-0.175
-0.19
-0.205
-0.205
-0.215
-0.25
-0.285
-0.33
-0.36
-0.355
-0.365
-0.375
-0.4
-0.425
-0.425
-0.425
-0.41
-0.395
-0.4
-0.42
-0.43
-0.42
-0.415
-0.415
-0.425
-0.455
-0.495
-0.555
-0.625
-0.69
-0.71
-0.6
-0.355
0.055
0.56
1.11
1.54
1.85
2.03
2.085
2.075
2.015
1.895
1.62
1.065
0.425
-0.215
-0.665
-0.595
-0.465
-0.415
-0.445
-0.455
-0.45
-0.46
-0.49
-0.535
-0.52
-0.525
-0.53
-0.54
-0.545
-0.56
-0.555
-0.545
-0.565
-0.57
-0.58
-0.575
-0.58
-0.565
-0.55
-0.555
-0.57
-0.57
-0.555
-0.545
-0.535
-0.545
-0.565
-0.55
-0.54
-0.52
-0.525
-0.535
-0.55
-0.545
-0.53
-0.5
-0.495
-0.52
-0.525
-0.525
-0.5
-0.485
-0.475
-0.475
-0.485
-0.48
-0.48
-0.45
-0.43
-0.435
-0.445
-0.45
-0.445
-0.43
-0.41
-0.41
-0.41
-0.41
-0.365
-0.34
-0.325
-0.32
-0.305
-0.3
-0.285
-0.26
-0.24
-0.245
-0.235
-0.205
-0.185
-0.145
-0.105
-0.08
-0.075
-0.04
-0.015
0.025
0.065
0.09
0.11
0.14
0.185
0.225
0.265
0.295
0.3
0.3
0.34
0.365
0.385
0.395
0.375
0.375
0.375
0.395
0.405
0.37
0.335
0.32
0.3
0.29
0.275
0.255
0.19
0.155
0.14
0.12
0.105
0.075
0.02
-0.01
-0.025
-0.05
-0.065
-0.095
-0.12
-0.155
-0.165
-0.185
-0.2
-0.21
-0.24
-0.265
-0.255
-0.255
-0.27
-0.31
-0.315
-0.34
-0.34
-0.325
-0.34
-0.36
-0.38
-0.39
-0.37
-0.37
-0.365
-0.375
-0.405
-0.415
-0.43
-0.42
-0.41
-0.42
-0.44
-0.445
-0.46
-0.44
-0.42
-0.45
-0.47
-0.47
-0.445
-0.44
-0.43
-0.45
-0.47
-0.47
-0.46
-0.455
-0.44
-0.445
-0.455
-0.47
-0.46
-0.44
-0.42
-0.425
-0.435
-0.45
-0.435
-0.42
-0.405
-0.405
-0.425
-0.43
-0.425
-0.4
-0.4
-0.395
-0.405
-0.42
-0.41
-0.395
-0.39
-0.4
-0.4
-0.41
-0.43
-0.4
-0.41
-0.41
-0.42
-0.41
-0.41
-0.4
-0.4
-0.405
-0.425
-0.45
-0.46
-0.435
-0.425
-0.415
-0.42
-0.425
-0.425
-0.42
-0.43
-0.425
-0.445
-0.47
-0.455
-0.455
-0.435
-0.455
-0.455
-0.46
-0.455
-0.45
-0.45
-0.46
-0.465
-0.465
-0.47
-0.45
-0.44
-0.445
-0.47
-0.49
-0.49
-0.47
-0.46
-0.46
-0.475
-0.465
-0.47
-0.465
-0.46
-0.475
-0.485
-0.485
-0.485
-0.47
-0.465
-0.465
-0.495
-0.485
-0.485
-0.48
-0.475
-0.48
-0.5
-0.5
-0.485
-0.47
-0.465
-0.465
-0.48
-0.48
-0.46
-0.47
-0.45
-0.465
-0.48
-0.485
-0.49
-0.46
-0.455
-0.45
-0.475
-0.48
-0.47
-0.455
-0.445
-0.465
-0.48
-0.48
-0.455
-0.45
-0.445
-0.455
-0.465
-0.47
-0.465
-0.455
-0.45
-0.44
-0.465
-0.465
-0.46
-0.445
-0.455
-0.445
-0.46
-0.475
-0.465
-0.455
-0.445
-0.44
-0.465
-0.455
-0.455
-0.445
-0.43
-0.435
-0.445
-0.445
-0.435
-0.42
-0.42
-0.435
-0.455
-0.445
-0.455
-0.43
-0.44
-0.43
-0.445
-0.455
-0.445
-0.42
-0.415
-0.42
-0.46
-0.46
-0.44
-0.41
-0.415
-0.425
-0.425
-0.43
-0.425
-0.41
-0.385
-0.4
-0.415
-0.395
-0.375
-0.35
-0.325
-0.325
-0.305
-0.3
-0.27
-0.245
-0.2
-0.18
-0.155
-0.115
-0.07
-0.055
-0.055
-0.095
-0.13
-0.16
-0.16
-0.17
-0.165
-0.18
-0.21
-0.23
-0.27
-0.295
-0.305
-0.335
-0.345
-0.37
-0.39
-0.375
-0.36
-0.355
-0.375
-0.39
-0.385
-0.37
-0.365
-0.37
-0.38
-0.4
-0.415
-0.43
-0.465
-0.53
-0.61
-0.625
-0.55
-0.34
0.01
0.49
0.995
1.465
1.835
2.035
2.105
2.105
2.055
1.93
1.69
1.22
0.58
-0.06
-0.68
-0.67
-0.5
-0.42
-0.435
-0.49
-0.485
-0.465
-0.45
-0.43
-0.42
-0.435
-0.475
-0.485
-0.475
-0.47
-0.46
-0.475
-0.485
-0.485
-0.475
-0.46
-0.435
-0.46
-0.475
-0.495
-0.495
-0.48
-0.465
-0.47
-0.47
-0.46
-0.465
-0.455
-0.44
-0.445
-0.455
-0.47
-0.46
-0.43
-0.415
-0.42
-0.43
-0.44
-0.44
-0.41
-0.395
-0.41
-0.395
-0.41
-0.39
-0.375
-0.365
-0.37
-0.37
-0.385
-0.36
-0.33
-0.33
-0.33
-0.34
-0.335
-0.315
-0.3
-0.28
-0.29
-0.285
-0.265
-0.24
-0.225
-0.2
-0.2
-0.19
-0.185
-0.165
-0.135
-0.105
-0.105
-0.1
-0.09
-0.045
0.0
0.035
0.04
0.045
0.075
0.115
0.15
0.2
0.215
0.215
0.225
0.285
0.325
0.36
0.385
0.385
0.405
0.42
0.44
0.47
0.48
0.48
0.47
0.48
0.495
0.49
0.49
0.455
0.425
0.42
0.4
0.38
0.345
0.305
0.265
0.23
0.205
0.195
0.15
0.105
0.08
0.045
0.015
0.0
-0.015
-0.045
-0.07
-0.09
-0.095
-0.115
-0.13
-0.17
-0.19
-0.195
-0.2
-0.205
-0.21
-0.24
-0.245
-0.255
-0.25
-0.255
-0.275
-0.295
-0.305
-0.315
-0.305
-0.3
-0.32
-0.355
-0.365
-0.35
-0.35
-0.33
-0.335
-0.35
-0.35
-0.32
-0.315
-0.31
-0.31
-0.32
-0.335
-0.345
-0.31
-0.295
-0.295
-0.305
-0.305
-0.285
-0.28
-0.28
-0.28
-0.29
-0.285
-0.265
-0.245
-0.25
-0.245
-0.245
-0.27
-0.27
-0.245
-0.23
-0.235
-0.245
-0.27
-0.255
-0.245
-0.235
-0.24
-0.24
-0.25
-0.27
-0.265
-0.26
-0.26
-0.285
-0.295
-0.295
-0.28
-0.285
-0.28
-0.305
-0.325
-0.315
-0.3
-0.29
-0.295
-0.315
-0.32
-0.325
-0.325
-0.31
-0.33
-0.345
-0.345
-0.34
-0.325
-0.335
-0.32
-0.355
-0.355
-0.34
-0.315
-0.325
-0.34
-0.345
-0.355
-0.345
-0.345
-0.34
-0.34
-0.355
-0.36
-0.345
-0.34
-0.32
-0.33
-0.34
-0.37
-0.37
-0.35
-0.34
-0.35
-0.36
-0.37
-0.355
-0.345
-0.335
-0.34
-0.35
-0.35
-0.34
-0.345
-0.325
-0.345
-0.355
-0.365
-0.36
-0.355
-0.345
-0.345
-0.36
-0.36
-0.355
-0.335
-0.325
-0.34
-0.34
-0.35
-0.35
-0.34
-0.34
-0.35
-0.355
-0.36
-0.36
-0.33
-0.335
-0.34
-0.345
-0.375
-0.355
-0.34
-0.335
-0.34
-0.36
-0.375
-0.37
-0.365
-0.355
-0.355
-0.365
-0.37
-0.38
-0.355
-0.325
-0.355
-0.355
-0.365
-0.34
-0.33
-0.32
-0.335
-0.345
-0.355
-0.365
-0.325
-0.31
-0.315
-0.33
-0.325
-0.29
-0.245
-0.205
-0.19
-0.19
-0.19
-0.19
-0.16
-0.125
-0.09
-0.05
-0.05
-0.05
-0.065
-0.08
-0.115
-0.135
-0.145
-0.15
-0.135
-0.145
-0.185
-0.21
-0.25
-0.255
-0.26
-0.26
-0.285
-0.325
-0.375
-0.385
-0.36
-0.345
-0.355
-0.375
-0.375
-0.38
-0.36
-0.35
-0.365
-0.385
-0.41
-0.42
-0.46
-0.53
-0.62
-0.67
-0.595
-0.375
-0.005
0.515
1.055
1.505
1.82
2.005
2.09
2.105
2.065
1.925
1.655
1.14
0.5
-0.14
-0.69
-0.645
-0.48
-0.44
-0.465
-0.47
-0.48
-0.48
-0.475
-0.47
-0.47
-0.48
-0.52
-0.54
-0.545
-0.54
-0.525
-0.52
-0.515
-0.545
-0.545
-0.55
-0.535
-0.525
-0.53
-0.54
-0.54
-0.54
-0.52
-0.52
-0.505
-0.52
-0.52
-0.525
-0.5
-0.495
-0.5
-0.505
-0.51
-0.505
-0.485
-0.48
-0.49
-0.5
-0.495
-0.49
-0.47
-0.455
-0.455
-0.465
-0.465
-0.455
-0.435
-0.44
-0.445
-0.45
-0.44
-0.435
-0.405
-0.39
-0.39
-0.4
-0.4
-0.39
-0.355
-0.34
-0.335
-0.355
-0.335
-0.3
-0.265
-0.24
-0.24
-0.24
-0.23
-0.205
-0.175
-0.14
-0.115
-0.13
-0.11
-0.08
-0.025
0.005
0.06
0.065
0.09
0.13
0.18
0.225
0.235
0.25
0.255
0.285
0.325
0.335
0.34
0.345
0.35
0.355
0.365
0.375
0.36
0.33
0.31
0.31
0.305
0.285
0.255
0.22
0.165
0.155
0.125
0.11
0.075
0.025
-0.015
-0.04
-0.07
-0.08
-0.11
-0.16
-0.185
-0.195
-0.2
-0.22
-0.245
-0.285
-0.32
-0.325
-0.32
-0.335
-0.35
-0.365
-0.39
-0.4
-0.4
-0.385
-0.41
-0.45
-0.46
-0.465
-0.445
-0.435
-0.445
-0.465
-0.48
-0.505
-0.485
-0.495
-0.49
-0.505
-0.515
-0.51
-0.495
-0.485
-0.5
-0.505
-0.515
-0.505
-0.5
-0.48
-0.49
-0.51
-0.505
-0.48
-0.47
-0.465
-0.465
-0.475
-0.465
-0.455
-0.44
-0.43
-0.425
-0.435
-0.44
-0.455
-0.415
-0.42
-0.435
-0.43
-0.44
-0.43
-0.41
-0.42
-0.41
-0.425
-0.43
-0.445
-0.425
-0.415
-0.425
-0.44
-0.445
-0.435
-0.43
-0.44
-0.44
-0.445
-0.46
-0.465
-0.45
-0.445
-0.455
-0.455
-0.48
-0.475
-0.465
-0.45
-0.45
-0.47
-0.475
-0.465
-0.45
-0.465
-0.475
-0.475
-0.465
-0.47
-0.465
-0.455
-0.46
-0.475
-0.485
-0.48
-0.465
-0.455
-0.465
-0.475
-0.485
-0.475
-0.47
-0.46
-0.485
-0.495
-0.495
-0.495
-0.48
-0.47
-0.48
-0.485
-0.51
-0.505
-0.485
-0.475
-0.48
-0.495
-0.5
-0.505
-0.48
-0.485
-0.495
-0.51
-0.51
-0.52
-0.485
-0.49
-0.505
-0.505
-0.515
-0.51
-0.49
-0.485
-0.5
-0.505
-0.525
-0.505
-0.495
-0.495
-0.49
-0.5
-0.505
-0.505
-0.49
-0.475
-0.49
-0.495
-0.51
-0.505
-0.48
-0.48
-0.485
-0.495
-0.51
-0.505
-0.475
-0.47
-0.49
-0.51
-0.5
-0.495
-0.48
-0.475
-0.475
-0.485
-0.485
-0.485
-0.47
-0.46
-0.475
-0.485
-0.49
-0.485
-0.47
-0.465
-0.47
-0.48
-0.47
-0.46
-0.45
-0.425
-0.43
-0.4
-0.39
-0.365
-0.34
-0.305
-0.3
-0.26
-0.225
-0.17
-0.145
-0.165
-0.185
-0.245
-0.265
-0.255
-0.245
-0.26
-0.3
-0.335
-0.365
-0.38
-0.39
-0.41
-0.415
-0.45
-0.475
-0.475
-0.46
-0.455
-0.455
-0.48
-0.485
-0.475
-0.45
-0.45
-0.455
-0.485
-0.51
-0.565
-0.625
-0.695
-0.72
-0.64
-0.395
0.06
0.66
1.25
1.705
1.95
2.035
2.05
2.02
1.905
1.615
1.055
0.415
-0.225
-0.755
-0.62
-0.48
-0.47
-0.52
-0.535
-0.53
-0.51
-0.52
-0.555
-0.575
-0.585
-0.565
-0.565
-0.575
-0.6
-0.62
-0.62
-0.6
-0.59
-0.6
-0.615
-0.615
-0.61
-0.6
-0.595
-0.585
-0.61
-0.605
-0.595
-0.595
-0.575
-0.575
-0.595
-0.59
-0.585
-0.565
-0.545
-0.56
-0.565
-0.56
-0.565
-0.545
-0.53
-0.54
-0.545
-0.54
-0.535
-0.51
-0.5
-0.495
-0.515
-0.53
-0.5
-0.475
-0.47
-0.47
-0.47
-0.465
-0.44
-0.41
-0.395
-0.395
-0.395
-0.4
-0.38
-0.345
-0.295
-0.295
-0.3
-0.29
-0.27
-0.21
-0.185
-0.165
-0.14
-0.125
-0.09
-0.045
0.005
0.02
0.035
0.075
0.105
0.15
0.18
0.205
0.22
0.245
0.28
0.315
0.335
0.32
0.325
0.325
0.335
0.345
0.34
0.325
0.28
0.245
0.23
0.225
0.205
0.17
0.135
0.085
0.045
0.035
0.005
-0.045
-0.1
-0.115
-0.135
-0.155
-0.165
-0.195
-0.24
-0.26
-0.285
-0.285
-0.295
-0.315
-0.335
-0.345
-0.37
-0.38
-0.385
-0.38
-0.405
-0.44
-0.445
-0.43
-0.425
-0.44
-0.465
-0.485
-0.475
-0.465
-0.465
-0.465
-0.5
-0.51
-0.51
-0.505
-0.5
-0.52
-0.53
-0.525
-0.525
-0.495
-0.515
-0.51
-0.52
-0.525
-0.525
-0.51
-0.5
-0.505
-0.51
-0.505
-0.51
-0.495
-0.485
-0.475
-0.485
-0.485
-0.475
-0.45
-0.44
-0.47
-0.475
-0.48
-0.48
-0.475
-0.46
-0.455
-0.475
-0.465
-0.465
-0.47
-0.465
-0.465
-0.465
-0.475
-0.49
-0.47
-0.47
-0.475
-0.505
-0.5
-0.485
-0.475
-0.465
-0.475
-0.49
-0.495
-0.5
-0.49
-0.485
-0.495
-0.505
-0.5
-0.5
-0.49
-0.49
-0.505
-0.515
-0.52
-0.515
-0.52
-0.495
-0.505
-0.52
-0.525
-0.52
-0.505
-0.51
-0.505
-0.535
-0.52
-0.52
-0.51
-0.505
-0.505
-0.52
-0.535
-0.515
-0.505
-0.5
-0.495
-0.515
-0.555
-0.535
-0.53
-0.505
-0.515
-0.53
-0.535
-0.525
-0.505
-0.505
-0.505
-0.525
-0.53
-0.53
-0.515
-0.515
-0.515
-0.53
-0.53
-0.525
-0.52
-0.505
-0.505
-0.53
-0.535
-0.535
-0.53
-0.52
-0.53
-0.545
-0.545
-0.53
-0.51
-0.51
-0.505
-0.525
-0.53
-0.52
-0.53
-0.51
-0.505
-0.51
-0.515
-0.505
-0.485
-0.48
-0.5
-0.51
-0.525
-0.52
-0.515
-0.5
-0.49
-0.51
-0.525
-0.515
-0.5
-0.49
-0.49
-0.52
-0.52
-0.52
-0.495
-0.485
-0.49
-0.505
-0.505
-0.485
-0.485
-0.48
-0.485
-0.5
-0.51
-0.505
-0.475
-0.47
-0.465
-0.49
-0.495
-0.48
-0.45
-0.435
-0.42
-0.44
-0.425
-0.39
-0.36
-0.335
-0.32
-0.33
-0.315
-0.255
-0.17
-0.125
-0.115
-0.145
-0.185
-0.205
-0.21
-0.23
-0.25
-0.27
-0.3
-0.325
-0.34
-0.355
-0.385
-0.42
-0.45
-0.46
-0.46
-0.465
-0.45
-0.465
-0.46
-0.445
-0.445
-0.44
-0.445
-0.45
-0.47
-0.485
-0.51
-0.57
-0.675
-0.73
-0.65
-0.415
0.005
0.56
1.175
1.66
1.97
2.1
2.14
2.105
1.96
1.63
0.99
0.35
-0.29
-0.805
-0.63
-0.515
-0.515
-0.56
-0.575
-0.54
-0.535
-0.555
-0.555
-0.55
-0.565
-0.565
-0.565
-0.575
-0.595
-0.58
-0.56
-0.565
-0.565
-0.58
-0.585
-0.575
-0.565
-0.555
-0.555
-0.56
-0.575
-0.565
-0.56
-0.54
-0.55
-0.575
-0.55
-0.555
-0.545
-0.53
-0.53
-0.53
-0.54
-0.53
-0.51
-0.505
-0.505
-0.495
-0.49
-0.49
-0.475
-0.475
-0.46
-0.46
-0.46
-0.465
-0.445
-0.43
-0.43
-0.42
-0.42
-0.395
-0.37
-0.36
-0.35
-0.355
-0.35
-0.335
-0.295
-0.26
-0.24
-0.26
-0.23
-0.19
-0.165
-0.115
-0.105
-0.1
-0.075
-0.045
-0.005
0.05
0.06
0.095
0.115
0.16
0.21
0.25
0.28
0.295
0.325
0.36
0.39
0.415
0.405
0.405
0.41
0.415
0.415
0.42
0.405
0.375
0.35
0.34
0.325
0.305
0.255
0.21
0.165
0.13
0.1
0.075
0.035
-0.02
-0.05
-0.07
-0.08
-0.1
-0.14
-0.16
-0.185
-0.215
-0.225
-0.22
-0.25
-0.28
-0.3
-0.325
-0.33
-0.325
-0.33
-0.35
-0.39
-0.4
-0.39
-0.385
-0.39
-0.41
-0.43
-0.415
-0.4
-0.4
-0.4
-0.42
-0.435
-0.43
-0.41
-0.38
-0.405
-0.42
-0.42
-0.415
-0.395
-0.375
-0.395
-0.405
-0.42
-0.405
-0.36
-0.35
-0.36
-0.36
-0.36
-0.375
-0.365
-0.345
-0.34
-0.34
-0.35
-0.345
-0.33
-0.315
-0.325
-0.325
-0.345
-0.335
-0.33
-0.32
-0.315
-0.335
-0.335
-0.325
-0.33
-0.33
-0.345
-0.35
-0.35
-0.355
-0.34
-0.35
-0.36
-0.375
-0.395
-0.375
-0.38
-0.38
-0.37
-0.39
-0.405
-0.39
-0.375
-0.37
-0.38
-0.41
-0.425
-0.415
-0.405
-0.395
-0.38
-0.4
-0.415
-0.415
-0.4
-0.4
-0.39
-0.4
-0.415
-0.42
-0.415
-0.4
-0.415
-0.41
-0.425
-0.425
-0.4
-0.4
-0.405
-0.405
-0.41
-0.405
-0.395
-0.385
-0.39
-0.4
-0.42
-0.39
-0.375
-0.365
-0.37
-0.405
-0.4
-0.405
-0.395
-0.4
-0.41
-0.415
-0.41
-0.41
-0.395
-0.39
-0.39
-0.395
-0.41
-0.4
-0.385
-0.38
-0.39
-0.4
-0.4
-0.4
-0.38
-0.38
-0.375
-0.39
-0.395
-0.385
-0.375
-0.35
-0.36
-0.375
-0.39
-0.38
-0.365
-0.365
-0.37
-0.375
-0.37
-0.365
-0.335
-0.315
-0.305
-0.315
-0.315
-0.28
-0.25
-0.225
-0.225
-0.225
-0.215
-0.175
-0.115
-0.05
-0.05
-0.07
-0.09
-0.11
-0.12
-0.12
-0.145
-0.185
-0.205
-0.23
-0.24
-0.265
-0.3
-0.34
-0.355
-0.38
-0.365
-0.36
-0.365
-0.38
-0.39
-0.39
-0.385
-0.365
-0.37
-0.38
-0.4
-0.405
-0.405
-0.43
-0.505
-0.615
-0.685
-0.65
-0.485
-0.165
0.295
0.815
1.325
1.745
2.025
2.155
2.175
2.13
2.015
1.77
1.26
0.62
-0.02
-0.66
-0.645
-0.49
-0.435
-0.465
-0.485
-0.48
-0.465
-0.46
-0.455
-0.47
-0.5
-0.495
-0.515
-0.52
-0.5
-0.495
-0.505
-0.515
-0.53
-0.545
-0.525
-0.5
-0.495
-0.51
-0.52
-0.53
-0.52
-0.525
-0.495
-0.515
-0.525
-0.525
-0.51
-0.5
-0.505
-0.505
-0.515
-0.495
-0.49
-0.47
-0.48
-0.505
-0.5
-0.485
-0.46
-0.455
-0.445
-0.45
-0.47
-0.46
-0.44
-0.415
-0.425
-0.45
-0.44
-0.42
-0.4
-0.38
-0.4
-0.39
-0.38
-0.37
-0.345
-0.34
-0.335
-0.32
-0.32
-0.28
-0.275
-0.25
-0.255
-0.25
-0.215
-0.19
-0.17
-0.145
-0.12
-0.12
-0.1
-0.05
-0.005
0.02
0.06
0.07
0.12
0.155
0.205
0.24
0.265
0.275
0.3
0.335
0.365
0.39
0.39
0.395
0.385
0.39
0.405
0.415
0.395
0.365
0.345
0.33
0.33
0.305
0.285
0.24
0.21
0.17
0.15
0.125
0.085
0.035
0.0
-0.03
-0.045
-0.065
-0.1
-0.14
-0.17
-0.185
-0.2
-0.2
-0.24
-0.255
-0.275
-0.29
-0.295
-0.3
-0.325
-0.355
-0.355
-0.35
-0.36
-0.365
-0.395
-0.44
-0.455
-0.44
-0.43
-0.425
-0.445
-0.475
-0.5
-0.49
-0.465
-0.455
-0.47
-0.48
-0.49
-0.48
-0.47
-0.455
-0.485
-0.485
-0.495
-0.475
-0.465
-0.45
-0.455
-0.475
-0.495
-0.47
-0.455
-0.44
-0.445
-0.465
-0.47
-0.455
-0.45
-0.435
-0.44
-0.445
-0.445
-0.425
-0.41
-0.4
-0.405
-0.42
-0.435
-0.42
-0.41
-0.405
-0.395
-0.42
-0.425
-0.42
-0.4
-0.4
-0.405
-0.405
-0.425
-0.425
-0.415
-0.41
-0.41
-0.435
-0.44
-0.44
-0.415
-0.41
-0.425
-0.45
-0.465
-0.45
-0.445
-0.42
-0.425
-0.455
-0.46
-0.475
-0.44
-0.425
-0.44
-0.455
-0.465
-0.46
-0.45
-0.43
-0.455
-0.46
-0.465
-0.46
-0.46
-0.445
-0.46
-0.445
-0.465
-0.485
-0.465
-0.455
-0.46
-0.465
-0.47
-0.485
-0.455
-0.45
-0.46
-0.47
-0.49
-0.47
-0.455
-0.44
-0.45
-0.47
-0.475
-0.475
-0.45
-0.44
-0.445
-0.465
-0.48
-0.485
-0.465
-0.46
-0.46
-0.475
-0.485
-0.48
-0.46
-0.465
-0.45
-0.46
-0.485
-0.47
-0.455
-0.435
-0.44
-0.47
-0.475
-0.47
-0.46
-0.435
-0.44
-0.45
-0.465
-0.45
-0.445
-0.45
-0.44
-0.455
-0.465
-0.465
-0.44
-0.415
-0.42
-0.44
-0.45
-0.445
-0.44
-0.435
-0.445
-0.45
-0.46
-0.455
-0.445
-0.43
-0.44
-0.44
-0.44
-0.445
-0.44
-0.42
-0.405
-0.405
-0.415
-0.39
-0.375
-0.355
-0.35
-0.34
-0.335
-0.305
-0.28
-0.27
-0.265
-0.26
-0.205
-0.14
-0.1
-0.075
-0.085
-0.115
-0.145
-0.155
-0.155
-0.155
-0.195
-0.21
-0.23
-0.26
-0.3
-0.305
-0.335
-0.36
-0.375
-0.375
-0.38
-0.375
-0.395
-0.425
-0.44
-0.43
-0.415
-0.395
-0.4
-0.42
-0.44
-0.435
-0.43
-0.45
-0.495
-0.57
-0.665
-0.72
-0.68
-0.525
-0.235
0.175
0.695
1.23
1.665
1.97
2.13
2.175
2.14
2.085
1.955
1.635
1.03
0.39
-0.25
-0.71
-0.59
-0.455
-0.445
-0.49
-0.51
-0.49
-0.48
-0.48
-0.495
-0.55
-0.57
-0.565
-0.55
-0.545
-0.565
-0.58
-0.595
-0.595
-0.59
-0.575
-0.58
-0.59
-0.59
-0.605
-0.6
-0.58
-0.575
-0.585
-0.585
-0.6
-0.565
-0.555
-0.55
-0.56
-0.575
-0.57
-0.555
-0.56
-0.55
-0.555
-0.56
-0.565
-0.535
-0.525
-0.51
-0.525
-0.54
-0.53
-0.51
-0.495
-0.485
-0.505
-0.515
-0.515
-0.505
-0.485
-0.485
-0.48
-0.48
-0.47
-0.455
-0.435
-0.425
-0.425
-0.42
-0.415
-0.375
-0.365
-0.345
-0.35
-0.35
-0.335
-0.315
-0.295
-0.27
-0.265
-0.26
-0.235
-0.2
-0.175
-0.15
-0.125
-0.1
-0.075
-0.025
0.005
0.01
0.03
0.05
0.095
0.145
0.175
0.195
0.23
0.245
0.265
0.295
0.325
0.34
0.345
0.34
0.355
0.365
0.365
0.36
0.33
0.3
0.29
0.275
0.27
0.245
0.18
0.14
0.11
0.085
0.07
0.02
-0.015
-0.05
-0.08
-0.1
-0.115
-0.165
-0.195
-0.22
-0.235
-0.23
-0.25
-0.26
-0.29
-0.32
-0.32
-0.33
-0.335
-0.355
-0.395
-0.405
-0.4
-0.39
-0.385
-0.41
-0.415
-0.44
-0.445
-0.445
-0.44
-0.46
-0.475
-0.485
-0.49
-0.48
-0.475
-0.485
-0.505
-0.505
-0.51
-0.505
-0.49
-0.51
-0.53
-0.535
-0.52
-0.505
-0.515
-0.505
-0.515
-0.52
-0.515
-0.505
-0.495
-0.49
-0.515
-0.52
-0.51
-0.49
-0.465
-0.475
-0.5
-0.51
-0.495
-0.475
-0.46
-0.45
-0.46
-0.475
-0.47
-0.455
-0.46
-0.455
-0.44
-0.475
-0.465
-0.47
-0.465
-0.47
-0.475
-0.47
-0.475
-0.46
-0.44
-0.45
-0.455
-0.47
-0.48
-0.455
-0.445
-0.465
-0.475
-0.485
-0.49
-0.465
-0.45
-0.455
-0.485
-0.515
-0.5
-0.49
-0.465
-0.46
-0.485
-0.49
-0.5
-0.47
-0.47
-0.47
-0.495
-0.495
-0.49
-0.47
-0.48
-0.5
-0.515
-0.52
-0.51
-0.495
-0.485
-0.49
-0.5
-0.505
-0.495
-0.495
-0.485
-0.485
-0.495
-0.5
-0.495
-0.495
-0.5
-0.49
-0.5
-0.52
-0.5
-0.49
-0.485
-0.5
-0.515
-0.515
-0.5
-0.505
-0.49
-0.48
-0.495
-0.505
-0.5
-0.49
-0.47
-0.475
-0.485
-0.51
-0.505
-0.485
-0.475
-0.485
-0.515
-0.525
-0.515
-0.495
-0.47
-0.495
-0.51
-0.515
-0.505
-0.5
-0.485
-0.49
-0.495
-0.5
-0.505
-0.495
-0.48
-0.495
-0.505
-0.51
-0.51
-0.495
-0.48
-0.49
-0.49
-0.505
-0.49
-0.48
-0.47
-0.475
-0.48
-0.495
-0.5
-0.47
-0.465
-0.47
-0.465
-0.48
-0.465
-0.465
-0.46
-0.475
-0.48
-0.485
-0.485
-0.49
-0.475
-0.45
-0.45
-0.465
-0.475
-0.475
-0.445
-0.445
-0.45
-0.46
-0.445
-0.41
-0.39
-0.395
-0.395
-0.39
-0.36
-0.32
-0.3
-0.29
-0.28
-0.27
-0.225
-0.175
-0.1
-0.08
-0.09
-0.115
-0.14
-0.17
-0.185
-0.195
-0.225
-0.24
-0.255
-0.275
-0.305
-0.335
-0.38
-0.41
-0.42
-0.415
-0.42
-0.43
-0.44
-0.445
-0.44
-0.445
-0.43
-0.435
-0.44
-0.44
-0.45
-0.45
-0.46
-0.525
-0.615
-0.72
-0.755
-0.665
-0.415
-0.02
0.515
1.085
1.59
1.92
2.105
2.175
2.175
2.115
1.975
1.705
1.16
0.52
-0.12
-0.705
-0.595
-0.44
-0.425
-0.47
-0.51
-0.515
-0.515
-0.505
-0.505
-0.54
-0.56
-0.575
-0.58
-0.565
-0.55
-0.56
-0.575
-0.585
-0.59
-0.585
-0.56
-0.575
-0.58
-0.59
-0.58
-0.585
-0.57
-0.575
-0.57
-0.57
-0.58
-0.56
-0.545
