Lead II
-0.385
-0.395
-0.41
-0.415
-0.425
-0.415
-0.41
-0.415
-0.41
-0.43
-0.42
-0.405
-0.4
-0.405
-0.42
-0.44
-0.43
-0.415
-0.415
-0.42
-0.41
-0.42
-0.42
-0.415
-0.42
-0.4
-0.415
-0.425
-0.42
-0.415
-0.4
-0.42
-0.415
-0.425
-0.42
-0.415
-0.4
-0.395
-0.41
-0.415
-0.415
-0.405
-0.4
-0.4
-0.42
-0.42
-0.43
-0.41
-0.41
-0.405
-0.41
-0.425
-0.42
-0.415
-0.4
-0.4
-0.405
-0.415
-0.415
-0.4
-0.395
-0.405
-0.42
-0.425
-0.425
-0.41
-0.41
-0.41
-0.425
-0.435
-0.43
-0.435
-0.43
-0.445
-0.445
-0.47
-0.455
-0.465
-0.45
-0.455
-0.445
-0.46
-0.455
-0.45
-0.43
-0.415
-0.415
-0.405
-0.395
-0.38
-0.355
-0.34
-0.355
-0.35
-0.345
-0.315
-0.3
-0.3
-0.3
-0.31
-0.305
-0.3
-0.275
-0.285
-0.3
-0.305
-0.305
-0.295
-0.285
-0.29
-0.3
-0.305
-0.31
-0.285
-0.275
-0.275
-0.3
-0.305
-0.285
-0.29
-0.29
-0.29
-0.295
-0.3
-0.31
-0.295
-0.29
-0.3
-0.315
-0.32
-0.32
-0.315
-0.31
-0.305
-0.315
-0.32
-0.315
-0.31
-0.3
-0.295
-0.315
-0.32
-0.325
-0.31
-0.315
-0.315
-0.315
-0.335
-0.325
-0.32
-0.31
-0.315
-0.32
-0.33
-0.33
-0.32
-0.32
-0.32
-0.335
-0.34
-0.34
-0.325
-0.315
-0.315
-0.325
-0.335
-0.325
-0.32
-0.31
-0.32
-0.31
-0.34
-0.32
-0.32
-0.315
-0.32
-0.32
-0.335
-0.32
-0.32
-0.305
-0.31
-0.31
-0.32
-0.33
-0.31
-0.295
-0.3
-0.3
-0.3
-0.285
-0.27
-0.255
-0.24
-0.255
-0.255
-0.245
-0.24
-0.235
-0.23
-0.23
-0.235
-0.225
-0.23
-0.19
-0.195
-0.21
-0.22
-0.22
-0.215
-0.215
-0.22
-0.23
-0.245
-0.24
-0.25
-0.25
-0.235
-0.23
-0.21
-0.225
-0.24
-0.26
-0.27
-0.285
-0.315
-0.335
-0.325
-0.33
-0.325
-0.34
-0.355
-0.355
-0.34
-0.335
-0.335
-0.345
-0.36
-0.36
-0.35
-0.345
-0.35
-0.36
-0.375
-0.36
-0.37
-0.355
-0.365
-0.37
-0.375
-0.375
-0.375
-0.405
-0.435
-0.46
-0.495
-0.485
-0.475
-0.51
-0.56
-0.605
-0.595
-0.54
-0.455
-0.35
-0.22
-0.095
0.095
0.365
0.655
0.86
0.935
0.875
0.585
0.15
-0.235
-0.45
-0.49
-0.47
-0.42
-0.38
-0.375
-0.385
-0.38
-0.4
-0.4
-0.395
-0.39
-0.39
-0.395
-0.395
-0.405
-0.405
-0.39
-0.39
-0.39
-0.405
-0.42
-0.41
-0.41
-0.415
-0.405
-0.405
-0.42
-0.415
-0.4
-0.4
-0.39
-0.405
-0.415
-0.41
-0.4
-0.39
-0.385
-0.395
-0.41
-0.41
-0.395
-0.4
-0.39
-0.4
-0.41
-0.405
-0.405
-0.4
-0.395
-0.405
-0.405
-0.405
-0.41
-0.4
-0.39
-0.395
-0.405
-0.41
-0.4
-0.385
-0.385
-0.405
-0.405
-0.405
-0.39
-0.385
-0.385
-0.39
-0.405
-0.4
-0.39
-0.385
-0.39
-0.39
-0.395
-0.4
-0.385
-0.385
-0.385
-0.39
-0.41
-0.41
-0.39
-0.385
-0.385
-0.4
-0.4
-0.405
-0.4
-0.38
-0.385
-0.39
-0.385
-0.39
-0.38
-0.375
-0.38
-0.38
-0.39
-0.395
-0.38
-0.37
-0.37
-0.355
-0.36
-0.35
-0.34
-0.315
-0.31
-0.31
-0.305
-0.3
-0.3
-0.29
-0.285
-0.29
-0.3
-0.3
-0.3
-0.29
-0.28
-0.29
-0.29
-0.305
-0.29
-0.28
-0.295
-0.3
-0.31
-0.3
-0.3
-0.3
-0.31
-0.305
-0.315
-0.315
-0.3
-0.285
-0.285
-0.295
-0.32
-0.315
-0.31
-0.3
-0.305
-0.315
-0.325
-0.325
-0.32
-0.32
-0.32
-0.33
-0.34
-0.355
-0.34
-0.33
-0.325
-0.335
-0.34
-0.35
-0.345
-0.32
-0.33
-0.345
-0.35
-0.35
-0.345
-0.335
-0.34
-0.35
-0.36
-0.35
-0.345
-0.355
-0.345
-0.355
-0.355
-0.35
-0.36
-0.35
-0.35
-0.35
-0.36
-0.365
-0.35
-0.335
-0.335
-0.34
-0.35
-0.355
-0.34
-0.33
-0.34
-0.33
-0.34
-0.355
-0.345
-0.335
-0.325
-0.335
-0.345
-0.335
-0.33
-0.31
-0.305
-0.295
-0.3
-0.29
-0.28
-0.26
-0.26
-0.26
-0.265
-0.255
-0.225
-0.215
-0.215
-0.22
-0.235
-0.245
-0.245
-0.235
-0.25
-0.255
-0.255
-0.255
-0.25
-0.255
-0.26
-0.24
-0.245
-0.225
-0.215
-0.215
-0.245
-0.265
-0.29
-0.31
-0.315
-0.315
-0.325
-0.34
-0.355
-0.345
-0.35
-0.34
-0.335
-0.35
-0.36
-0.36
-0.36
-0.35
-0.35
-0.36
-0.365
-0.365
-0.36
-0.365
-0.37
-0.355
-0.375
-0.375
-0.38
-0.36
-0.37
-0.38
-0.405
-0.44
-0.45
-0.475
-0.5
-0.525
-0.57
-0.56
-0.505
-0.39
-0.285
-0.16
-0.02
0.185
0.42
0.655
0.79
0.9
0.955
0.94
0.815
0.565
0.21
-0.13
-0.375
-0.485
-0.505
-0.46
-0.425
-0.405
-0.41
-0.42
-0.405
-0.39
-0.395
-0.42
-0.42
-0.415
-0.415
-0.395
-0.41
-0.42
-0.425
-0.425
-0.425
-0.41
-0.42
-0.42
-0.42
-0.415
-0.41
-0.4
-0.4
-0.405
-0.415
-0.405
-0.41
-0.4
-0.405
-0.405
-0.41
-0.42
-0.42
-0.405
-0.4
-0.405
-0.415
-0.42
-0.39
-0.385
-0.385
-0.405
-0.405
-0.4
-0.4
-0.4
-0.4
-0.39
-0.385
-0.395
-0.395
-0.375
-0.385
-0.395
-0.4
-0.4
-0.39
-0.385
-0.385
-0.4
-0.4
-0.405
-0.39
-0.385
-0.375
-0.39
-0.39
-0.4
-0.39
-0.38
-0.385
-0.39
-0.4
-0.395
-0.385
-0.39
-0.385
-0.385
-0.39
-0.39
-0.395
-0.385
-0.38
-0.4
-0.41
-0.415
-0.405
-0.39
-0.39
-0.4
-0.41
-0.415
-0.395
-0.385
-0.38
-0.385
-0.385
-0.38
-0.37
-0.35
-0.345
-0.35
-0.35
-0.345
-0.335
-0.325
-0.31
-0.32
-0.32
-0.325
-0.32
-0.3
-0.31
-0.315
-0.32
-0.33
-0.32
-0.315
-0.32
-0.325
-0.32
-0.33
-0.315
-0.305
-0.325
-0.315
-0.33
-0.32
-0.325
-0.31
-0.315
-0.32
-0.325
-0.335
-0.325
-0.325
-0.325
-0.34
-0.335
-0.335
-0.34
-0.335
-0.345
-0.355
-0.35
-0.36
-0.35
-0.335
-0.345
-0.355
-0.36
-0.37
-0.36
-0.355
-0.35
-0.355
-0.37
-0.38
-0.375
-0.36
-0.36
-0.37
-0.38
-0.38
-0.38
-0.375
-0.37
-0.37
-0.385
-0.395
-0.39
-0.38
-0.385
-0.395
-0.395
-0.395
-0.39
-0.38
-0.38
-0.385
-0.385
-0.395
-0.375
-0.365
-0.365
-0.365
-0.39
-0.39
-0.385
-0.38
-0.375
-0.39
-0.395
-0.4
-0.4
-0.39
-0.385
-0.38
-0.37
-0.385
-0.36
-0.34
-0.325
-0.325
-0.33
-0.335
-0.32
-0.305
-0.295
-0.31
-0.32
-0.305
-0.285
-0.265
-0.28
-0.28
-0.3
-0.31
-0.305
-0.29
-0.3
-0.32
-0.33
-0.335
-0.33
-0.32
-0.33
-0.325
-0.33
-0.31
-0.29
-0.285
-0.285
-0.315
-0.34
-0.365
-0.36
-0.365
-0.39
-0.395
-0.405
-0.42
-0.425
-0.41
-0.405
-0.415
-0.42
-0.42
-0.425
-0.42
-0.415
-0.425
-0.43
-0.435
-0.435
-0.435
-0.445
-0.445
-0.455
-0.45
-0.43
-0.42
-0.425
-0.425
-0.46
-0.485
-0.515
-0.525
-0.545
-0.575
-0.61
-0.64
-0.61
-0.52
-0.415
-0.285
-0.135
0.095
0.355
0.585
0.72
0.735
0.605
0.31
-0.03
-0.31
-0.475
-0.555
-0.575
-0.54
-0.49
-0.47
-0.47
-0.47
-0.48
-0.475
-0.475
-0.46
-0.475
-0.47
-0.48
-0.48
-0.48
-0.465
-0.47
-0.48
-0.485
-0.485
-0.48
-0.47
-0.475
-0.475
-0.485
-0.495
-0.485
-0.47
-0.465
-0.475
-0.49
-0.495
-0.48
-0.475
-0.47
-0.48
-0.49
-0.5
-0.485
-0.47
-0.475
-0.47
-0.485
-0.485
-0.49
-0.47
-0.47
-0.475
-0.475
-0.485
-0.46
-0.46
-0.48
-0.48
-0.5
-0.5
-0.49
-0.475
-0.475
-0.485
-0.49
-0.495
-0.475
-0.46
-0.465
-0.455
-0.47
-0.475
-0.475
-0.465
-0.465
-0.465
-0.475
-0.475
-0.47
-0.47
-0.465
-0.475
-0.495
-0.49
-0.49
-0.48
-0.475
-0.485
-0.505
-0.515
-0.505
-0.505
-0.52
-0.51
-0.515
-0.515
-0.515
-0.51
-0.52
-0.525
-0.525
-0.525
-0.515
-0.51
-0.495
-0.49
-0.495
-0.5
-0.485
-0.47
-0.46
-0.45
-0.435
-0.435
-0.425
-0.41
-0.4
-0.405
-0.415
-0.41
-0.395
-0.385
-0.385
-0.395
-0.4
-0.395
-0.395
-0.37
-0.375
-0.375
-0.38
-0.38
-0.36
-0.345
-0.365
-0.385
-0.395
-0.38
-0.38
-0.37
-0.375
-0.385
-0.39
-0.4
-0.395
-0.385
-0.385
-0.385
-0.4
-0.4
-0.38
-0.365
-0.37
-0.4
-0.405
-0.425
-0.415
-0.395
-0.395
-0.415
-0.42
-0.425
-0.415
-0.415
-0.405
-0.42
-0.425
-0.435
-0.42
-0.41
-0.415
-0.42
-0.43
-0.435
-0.42
-0.41
-0.42
-0.42
-0.435
-0.44
-0.43
-0.43
-0.415
-0.42
-0.425
-0.43
-0.42
-0.41
-0.4
-0.41
-0.425
-0.425
-0.43
-0.415
-0.405
-0.425
-0.43
-0.435
-0.43
-0.415
-0.42
-0.43
-0.43
-0.425
-0.41
-0.4
-0.39
-0.395
-0.385
-0.37
-0.36
-0.34
-0.34
-0.34
-0.34
-0.34
-0.335
-0.305
-0.31
-0.3
-0.32
-0.32
-0.315
-0.3
-0.305
-0.31
-0.32
-0.315
-0.305
-0.315
-0.325
-0.315
-0.305
-0.295
-0.295
-0.305
-0.33
-0.34
-0.35
-0.375
-0.375
-0.37
-0.38
-0.395
-0.4
-0.405
-0.42
-0.4
-0.41
-0.415
-0.415
-0.43
-0.42
-0.41
-0.415
-0.425
-0.425
-0.42
-0.415
-0.415
-0.415
-0.42
-0.43
-0.43
-0.42
-0.42
-0.415
-0.425
-0.43
-0.475
-0.485
-0.51
-0.535
-0.565
-0.605
-0.62
-0.585
-0.475
-0.37
-0.22
-0.06
0.16
0.44
0.675
0.82
0.84
0.715
0.415
0.035
-0.27
-0.465
-0.535
-0.54
-0.5
-0.45
-0.435
-0.445
-0.445
-0.445
-0.44
-0.44
-0.425
-0.435
-0.45
-0.465
-0.46
-0.45
-0.435
-0.425
-0.435
-0.455
-0.45
-0.44
-0.435
-0.43
-0.425
-0.445
-0.45
-0.44
-0.435
-0.435
-0.43
-0.44
-0.445
-0.44
-0.425
-0.45
-0.445
-0.45
-0.445
-0.44
-0.44
-0.44
-0.435
-0.435
-0.445
-0.43
-0.42
-0.43
-0.44
-0.435
-0.42
-0.42
-0.425
-0.425
-0.42
-0.435
-0.425
-0.425
-0.425
-0.415
-0.415
-0.43
-0.435
-0.42
-0.42
-0.405
-0.42
-0.43
-0.43
-0.41
-0.42
-0.41
-0.405
-0.425
-0.43
-0.42
-0.415
-0.395
-0.41
-0.415
-0.43
-0.415
-0.405
-0.41
-0.415
-0.425
-0.43
-0.44
-0.425
-0.435
-0.435
-0.445
-0.455
-0.44
-0.445
-0.445
-0.45
-0.46
-0.455
-0.45
-0.44
-0.43
-0.43
-0.43
-0.42
-0.41
-0.38
-0.38
-0.37
-0.37
-0.365
-0.35
-0.33
-0.32
-0.32
-0.325
-0.33
-0.31
-0.305
-0.305
-0.31
-0.32
-0.325
-0.32
-0.305
-0.29
-0.295
-0.31
-0.31
-0.295
-0.3
-0.305
-0.31
-0.3
-0.315
-0.305
-0.295
-0.3
-0.3
-0.31
-0.31
-0.3
-0.3
-0.3
-0.3
-0.315
-0.31
-0.305
-0.3
-0.29
-0.305
-0.31
-0.32
-0.315
-0.315
-0.32
-0.32
-0.32
-0.335
-0.31
-0.305
-0.32
-0.32
-0.325
-0.34
-0.315
-0.315
-0.315
-0.33
-0.355
-0.355
-0.35
-0.35
-0.35
-0.355
-0.36
-0.355
-0.365
-0.345
-0.345
-0.345
-0.355
-0.355
-0.355
-0.345
-0.335
-0.35
-0.35
-0.36
-0.355
-0.335
-0.34
-0.335
-0.335
-0.335
-0.335
-0.33
-0.325
-0.335
-0.345
-0.345
-0.34
-0.34
-0.335
-0.33
-0.33
-0.32
-0.31
-0.29
-0.275
-0.27
-0.27
-0.265
-0.255
-0.24
-0.25
-0.255
-0.25
-0.25
-0.22
-0.22
-0.22
-0.215
-0.22
-0.24
-0.24
-0.225
-0.235
-0.25
-0.25
-0.245
-0.245
-0.25
-0.24
-0.245
-0.23
-0.215
-0.205
-0.22
-0.25
-0.27
-0.295
-0.315
-0.31
-0.315
-0.33
-0.34
-0.36
-0.35
-0.345
-0.345
-0.355
-0.34
-0.355
-0.37
-0.345
-0.34
-0.335
-0.345
-0.36
-0.36
-0.35
-0.345
-0.345
-0.35
-0.365
-0.36
-0.365
-0.345
-0.345
-0.37
-0.38
-0.425
-0.445
-0.475
-0.48
-0.52
-0.55
-0.52
-0.415
-0.275
-0.12
0.055
0.275
0.535
0.775
0.925
0.96
0.815
0.54
0.13
-0.215
-0.425
-0.47
-0.46
-0.42
-0.39
-0.375
-0.365
-0.37
-0.385
-0.395
-0.39
-0.395
-0.385
-0.39
-0.39
-0.405
-0.405
-0.4
-0.385
-0.405
-0.41
-0.415
-0.395
-0.39
-0.375
-0.365
-0.385
-0.39
-0.39
-0.395
-0.375
-0.385
-0.385
-0.39
-0.39
-0.38
-0.38
-0.385
-0.375
-0.385
-0.39
-0.385
-0.38
-0.37
-0.38
-0.395
-0.385
-0.375
-0.37
-0.365
-0.375
-0.38
-0.385
-0.375
-0.36
-0.37
-0.37
-0.385
-0.385
-0.38
-0.37
-0.365
-0.37
-0.38
-0.38
-0.37
-0.37
-0.36
-0.37
-0.37
-0.385
-0.365
-0.36
-0.37
-0.37
-0.375
-0.37
-0.36
-0.35
-0.355
-0.35
-0.375
-0.375
-0.375
-0.365
-0.355
-0.365
-0.37
-0.37
-0.375
-0.365
-0.355
-0.365
-0.375
-0.365
-0.365
-0.365
-0.355
-0.345
-0.355
-0.335
-0.335
-0.315
-0.3
-0.3
-0.31
-0.31
-0.295
-0.29
-0.275
-0.285
-0.275
-0.285
-0.285
-0.265
-0.255
-0.27
-0.275
-0.275
-0.265
-0.245
-0.25
-0.265
-0.26
-0.27
-0.255
-0.245
-0.26
-0.255
-0.26
-0.275
-0.255
-0.25
-0.26
-0.26
-0.27
-0.27
-0.27
-0.255
-0.265
-0.27
-0.28
-0.285
-0.285
-0.275
-0.26
-0.275
-0.285
-0.285
-0.28
-0.275
-0.275
-0.275
-0.285
-0.3
-0.29
-0.295
-0.295
-0.295
-0.3
-0.32
-0.305
-0.28
-0.295
-0.29
-0.295
-0.305
-0.305
-0.295
-0.29
-0.285
-0.3
-0.3
-0.29
-0.28
-0.29
-0.285
-0.305
-0.315
-0.3
-0.3
-0.29
-0.295
-0.305
-0.305
-0.3
-0.295
-0.295
-0.31
-0.32
-0.32
-0.305
-0.31
-0.295
-0.295
-0.3
-0.29
-0.285
-0.285
-0.275
-0.275
-0.28
-0.265
-0.245
-0.225
-0.22
-0.225
-0.225
-0.235
-0.22
-0.2
-0.19
-0.2
-0.2
-0.195
-0.19
-0.185
-0.2
-0.195
-0.205
-0.215
-0.215
-0.205
-0.185
-0.2
-0.23
-0.23
-0.205
-0.175
-0.175
-0.195
-0.215
-0.265
-0.265
-0.29
-0.3
-0.31
-0.33
-0.335
-0.34
-0.335
-0.32
-0.33
-0.335
-0.335
-0.325
-0.32
-0.325
-0.33
-0.34
-0.335
-0.32
-0.32
-0.315
-0.325
-0.335
-0.345
-0.34
-0.33
-0.315
-0.335
-0.36
-0.375
-0.41
-0.445
-0.46
-0.49
-0.535
-0.565
-0.495
-0.395
-0.26
-0.115
0.11
0.385
0.67
0.835
0.87
0.73
0.415
0.0
-0.31
-0.44
-0.465
-0.435
-0.4
-0.385
-0.38
-0.375
-0.36
-0.37
-0.375
-0.39
-0.39
-0.38
-0.38
-0.385
-0.395
-0.395
-0.38
-0.365
-0.365
-0.375
-0.385
-0.39
-0.38
-0.365
-0.37
-0.37
-0.385
-0.385
-0.375
-0.365
-0.375
-0.37
-0.385
-0.39
-0.39
-0.38
-0.37
-0.385
-0.38
-0.395
-0.38
-0.375
-0.37
-0.38
-0.39
-0.4
-0.39
-0.385
-0.39
-0.38
-0.4
-0.4
-0.385
-0.365
-0.37
-0.375
-0.39
-0.385
-0.375
-0.37
-0.37
-0.375
-0.38
-0.395
-0.39
-0.385
-0.375
-0.38
-0.38
-0.39
-0.385
-0.37
-0.37
-0.38
-0.385
-0.385
-0.38
-0.36
-0.37
-0.375
-0.375
-0.395
-0.385
-0.375
-0.38
-0.39
-0.405
-0.415
-0.42
-0.395
-0.405
-0.405
-0.41
-0.415
-0.395
-0.385
-0.375
-0.385
-0.38
-0.375
-0.335
-0.325
-0.305
-0.31
-0.315
-0.315
-0.31
-0.285
-0.29
-0.305
-0.295
-0.305
-0.3
-0.285
-0.275
-0.29
-0.29
-0.3
-0.29
-0.285
-0.3
-0.3
-0.3
-0.305
-0.305
-0.285
-0.29
-0.305
-0.305
-0.325
-0.315
-0.3
-0.29
-0.295
-0.3
-0.305
-0.3
-0.305
-0.305
-0.315
-0.32
-0.33
-0.33
-0.315
-0.305
-0.315
-0.32
-0.32
-0.32
-0.3
-0.3
-0.305
-0.32
-0.345
-0.345
-0.34
-0.335
-0.34
-0.345
-0.345
-0.35
-0.33
-0.325
-0.33
-0.345
-0.365
-0.36
-0.345
-0.34
-0.345
-0.35
-0.355
-0.345
-0.35
-0.34
-0.345
-0.33
-0.345
-0.34
-0.34
-0.355
-0.36
-0.36
-0.365
-0.35
-0.345
-0.35
-0.345
-0.35
-0.355
-0.345
-0.335
-0.335
-0.35
-0.335
-0.33
-0.3
-0.28
-0.265
-0.28
-0.28
-0.29
-0.265
-0.25
-0.245
-0.255
-0.255
-0.255
-0.26
-0.255
-0.245
-0.25
-0.265
-0.26
-0.26
-0.245
-0.26
-0.27
-0.285
-0.29
-0.26
-0.23
-0.225
-0.24
-0.275
-0.295
-0.31
-0.325
-0.345
-0.375
-0.39
-0.375
-0.38
-0.365
-0.37
-0.37
-0.395
-0.4
-0.39
-0.38
-0.385
-0.385
-0.395
-0.395
-0.39
-0.385
-0.385
-0.39
-0.39
-0.41
-0.385
-0.39
-0.41
-0.455
-0.495
-0.515
-0.53
-0.555
-0.605
-0.625
-0.595
-0.56
-0.475
-0.38
-0.27
-0.16
-0.005
0.24
0.525
0.745
0.855
0.775
0.5
0.07
-0.28
-0.465
-0.52
-0.49
-0.46
-0.445
-0.435
-0.43
-0.415
-0.415
-0.435
-0.435
-0.43
-0.43
-0.42
-0.415
-0.425
-0.43
-0.415
-0.4
-0.4
-0.415
-0.415
-0.43
-0.42
-0.415
-0.42
-0.42
-0.425
-0.44
-0.42
-0.425
-0.4
-0.41
-0.425
-0.42
-0.425
-0.405
-0.405
-0.42
-0.415
-0.41
-0.43
-0.41
-0.405
-0.405
-0.425
-0.415
-0.415
-0.415
-0.41
-0.41
-0.42
-0.435
-0.425
-0.42
-0.415
-0.42
-0.425
-0.425
-0.41
-0.405
-0.405
-0.405
-0.42
-0.425
-0.42
-0.405
-0.4
-0.4
-0.42
-0.43
-0.42
-0.415
-0.425
-0.43
-0.45
-0.455
-0.46
-0.445
-0.45
-0.45
-0.46
-0.475
-0.455
-0.45
-0.445
-0.43
-0.445
-0.44
-0.43
-0.415
-0.4
-0.4
-0.4
-0.395
-0.375
-0.36
-0.355
-0.36
-0.365
-0.36
-0.345
-0.335
-0.325
-0.32
-0.325
-0.325
-0.325
-0.315
-0.305
-0.3
-0.305
-0.305
-0.295
-0.29
-0.29
-0.295
-0.295
-0.3
-0.3
-0.29
-0.29
-0.29
-0.295
-0.31
-0.31
-0.3
-0.295
-0.31
-0.325
-0.32
-0.31
-0.31
-0.3
-0.305
-0.31
-0.32
-0.31
-0.305
-0.3
-0.295
-0.315
-0.32
-0.31
-0.305
-0.31
-0.315
-0.325
-0.33
-0.335
-0.33
-0.315
-0.305
-0.32
-0.34
-0.325
-0.32
-0.32
-0.335
-0.325
-0.355
-0.33
-0.335
-0.33
-0.33
-0.32
-0.335
-0.335
-0.33
-0.32
-0.325
-0.325
-0.345
-0.33
-0.32
-0.315
-0.325
-0.33
-0.335
-0.33
-0.335
-0.32
-0.33
-0.335
-0.345
-0.345
-0.345
-0.325
-0.33
-0.33
-0.335
-0.33
-0.31
-0.305
-0.305
-0.315
-0.315
-0.29
-0.275
-0.26
-0.25
-0.255
-0.255
-0.245
-0.25
-0.225
-0.23
-0.22
-0.225
-0.215
-0.205
-0.195
-0.205
-0.215
-0.23
-0.23
-0.225
-0.225
-0.235
-0.245
-0.255
-0.24
-0.24
-0.245
-0.245
-0.225
-0.225
-0.195
-0.215
-0.235
-0.26
-0.285
-0.305
-0.31
-0.32
-0.33
-0.335
-0.345
-0.35
-0.34
-0.33
-0.33
-0.34
-0.35
-0.37
-0.365
-0.35
-0.35
-0.345
-0.36
-0.355
-0.37
-0.34
-0.35
-0.345
-0.355
-0.355
-0.345
-0.34
-0.355
-0.37
-0.405
-0.445
-0.455
-0.475
-0.495
-0.535
-0.555
-0.505
-0.385
-0.24
-0.065
0.135
0.41
0.675
0.885
0.95
0.865
0.57
0.175
-0.215
-0.43
-0.475
-0.445
-0.4
-0.375
-0.38
-0.38
-0.375
-0.37
-0.38
-0.385
-0.395
-0.395
-0.385
-0.38
-0.39
-0.405
-0.405
-0.405
-0.4
-0.395
-0.405
-0.4
-0.41
-0.405
-0.395
-0.385
-0.385
-0.41
-0.41
-0.39
-0.395
-0.385
-0.4
-0.395
-0.4
-0.4
-0.38
-0.39
-0.39
-0.405
-0.41
-0.41
-0.395
-0.39
-0.395
-0.395
-0.41
-0.4
-0.38
-0.39
-0.395
-0.395
-0.4
-0.405
-0.385
-0.38
-0.385
-0.395
-0.405
-0.4
-0.395
-0.395
-0.395
-0.385
-0.41
-0.4
-0.385
-0.385
-0.385
-0.385
-0.4
-0.395
-0.39
-0.385
-0.395
-0.39
-0.405
-0.405
-0.39
-0.39
-0.4
-0.395
-0.41
-0.395
-0.4
-0.395
-0.395
-0.39
-0.405
-0.4
-0.395
-0.39
-0.385
-0.4
-0.415
-0.405
-0.39
-0.38
-0.38
-0.385
-0.39
-0.375
-0.365
-0.345
-0.34
-0.33
-0.335
-0.33
-0.315
-0.305
-0.305
-0.305
-0.305
-0.3
-0.285
-0.285
-0.29
-0.295
-0.3
-0.295
-0.295
-0.28
-0.285
-0.3
-0.3
-0.295
-0.3
-0.28
-0.295
-0.31
-0.31
-0.295
-0.295
-0.29
-0.3
-0.3
-0.315
-0.31
-0.295
-0.29
-0.3
-0.315
-0.325
-0.315
-0.305
-0.3
-0.3
-0.31
-0.315
-0.315
-0.305
-0.3
-0.305
-0.33
-0.34
-0.33
-0.33
-0.315
-0.32
-0.33
-0.335
-0.34
-0.335
-0.33
-0.325
-0.34
-0.34
-0.33
-0.335
-0.33
-0.335
-0.345
-0.355
-0.355
-0.345
-0.335
-0.34
-0.34
-0.355
-0.345
-0.345
-0.34
-0.345
-0.365
-0.375
-0.365
-0.36
-0.34
-0.345
-0.35
-0.355
-0.355
-0.335
-0.335
-0.34
-0.34
-0.355
-0.36
-0.34
-0.325
-0.32
-0.325
-0.335
-0.325
-0.325
-0.32
-0.32
-0.335
-0.335
-0.325
-0.305
-0.285
-0.28
-0.28
-0.275
-0.27
-0.245
-0.26
-0.255
-0.25
-0.26
-0.235
-0.225
-0.215
-0.21
-0.215
-0.235
-0.225
-0.22
-0.215
-0.225
-0.225
-0.24
-0.24
-0.24
-0.235
-0.23
-0.25
-0.26
-0.265
-0.245
-0.225
-0.205
-0.225
-0.255
-0.29
-0.29
-0.3
-0.315
-0.325
-0.345
-0.34
-0.34
-0.355
-0.345
-0.35
-0.35
-0.345
-0.345
-0.34
-0.345
-0.365
-0.37
-0.36
-0.355
-0.34
-0.345
-0.36
-0.365
-0.355
-0.35
-0.35
-0.365
-0.37
-0.38
-0.4
-0.42
-0.445
-0.46
-0.485
-0.52
-0.565
-0.545
-0.47
-0.36
-0.23
-0.095
0.11
0.37
0.605
0.8
0.86
0.81
0.59
0.265
-0.095
-0.37
-0.495
-0.51
-0.46
-0.415
-0.385
-0.365
-0.375
-0.395
-0.39
-0.37
-0.37
-0.37
-0.38
-0.39
-0.395
-0.395
-0.375
-0.375
-0.395
-0.405
-0.395
-0.375
-0.375
-0.385
-0.4
-0.39
-0.385
-0.385
-0.39
-0.38
-0.385
-0.405
-0.39
-0.395
-0.38
-0.39
-0.395
-0.385
-0.39
-0.39
-0.385
-0.38
-0.385
-0.4
-0.395
-0.38
-0.365
-0.375
-0.385
-0.4
-0.385
-0.375
-0.375
-0.37
-0.385
-0.39
-0.39
-0.375
-0.38
-0.375
-0.385
-0.395
-0.385
-0.38
-0.375
-0.37
-0.38
-0.385
-0.385
-0.385
-0.365
-0.37
-0.38
-0.385
-0.375
-0.365
-0.365
-0.365
-0.36
-0.36
-0.365
-0.355
-0.35
-0.355
-0.37
-0.38
-0.37
-0.375
-0.375
-0.37
-0.375
-0.39
-0.375
-0.365
-0.37
-0.38
-0.38
-0.38
-0.365
-0.37
-0.365
-0.37
-0.365
-0.365
-0.345
-0.33
-0.32
-0.31
-0.32
-0.32
-0.31
-0.295
-0.3
-0.295
-0.3
-0.29
-0.28
-0.28
-0.275
-0.27
-0.285
-0.295
-0.295
-0.28
-0.285
-0.28
-0.29
-0.295
-0.275
-0.265
-0.26
-0.265
-0.275
-0.29
-0.28
-0.265
-0.27
-0.275
-0.285
-0.285
-0.28
-0.275
-0.285
-0.29
-0.3
-0.305
-0.295
-0.295
-0.285
-0.29
-0.295
-0.315
-0.31
-0.31
-0.295
-0.31
-0.305
-0.31
-0.305
-0.295
-0.285
-0.3
-0.315
-0.33
-0.33
-0.31
-0.3
-0.305
-0.315
-0.32
-0.33
-0.305
-0.32
-0.3
-0.325
-0.34
-0.345
-0.33
-0.335
-0.33
-0.335
-0.335
-0.34
-0.33
-0.315
-0.325
-0.325
-0.325
-0.32
-0.31
-0.305
-0.325
-0.33
-0.345
-0.34
-0.325
-0.32
-0.32
-0.33
-0.335
-0.345
-0.33
-0.33
-0.325
-0.33
-0.335
-0.32
-0.315
-0.3
-0.285
-0.29
-0.29
-0.275
-0.26
-0.255
-0.255
-0.255
-0.255
-0.24
-0.22
-0.195
-0.22
-0.22
-0.22
-0.22
-0.215
-0.215
-0.21
-0.215
-0.23
-0.225
-0.235
-0.225
-0.225
-0.24
-0.265
-0.27
-0.26
-0.225
-0.22
-0.225
-0.255
-0.27
-0.28
-0.29
-0.295
-0.31
-0.335
-0.335
-0.32
-0.335
-0.35
-0.34
-0.35
-0.34
-0.35
-0.335
-0.35
-0.355
-0.365
-0.36
-0.36
-0.355
-0.365
-0.385
-0.375
-0.37
-0.37
-0.36
-0.35
-0.355
-0.36
-0.35
-0.355
-0.37
-0.39
-0.425
-0.46
-0.445
-0.44
-0.465
-0.51
-0.565
-0.575
-0.515
-0.415
-0.29
-0.165
0.015
0.25
0.51
0.71
0.825
0.815
0.645
0.33
-0.025
-0.295
-0.45
-0.495
-0.48
-0.445
-0.405
-0.4
-0.39
-0.39
-0.395
-0.4
-0.4
-0.39
-0.385
-0.385
-0.41
-0.42
-0.41
-0.4
-0.38
-0.395
-0.4
-0.415
-0.4
-0.39
-0.385
-0.385
-0.405
-0.415
-0.41
-0.395
-0.39
-0.395
-0.405
-0.41
-0.395
-0.395
-0.39
-0.375
-0.385
-0.41
-0.4
-0.39
-0.385
-0.375
-0.4
-0.41
-0.39
-0.395
-0.375
-0.395
-0.415
-0.405
-0.405
-0.39
-0.395
-0.4
-0.4
-0.415
-0.39
-0.39
-0.395
-0.395
-0.4
-0.415
-0.4
-0.385
-0.37
-0.375
-0.385
-0.375
-0.385
-0.38
-0.365
-0.385
-0.385
-0.395
-0.38
-0.38
-0.375
-0.39
-0.4
-0.42
-0.415
-0.42
-0.43
-0.43
-0.44
-0.435
-0.425
-0.415
-0.43
-0.425
-0.43
-0.44
-0.435
-0.41
-0.415
-0.43
-0.435
-0.43
-0.43
-0.4
-0.39
-0.38
-0.385
-0.4
-0.375
-0.35
-0.33
-0.32
-0.335
-0.335
-0.32
-0.32
-0.32
-0.315
-0.315
-0.33
-0.3
-0.29
-0.28
-0.275
-0.28
-0.29
-0.285
-0.28
-0.27
-0.27
-0.28
-0.295
-0.295
-0.28
-0.275
-0.275
-0.295
-0.315
-0.305
-0.285
-0.275
-0.285
-0.29
-0.31
-0.315
-0.305
-0.285
-0.28
-0.305
-0.31
-0.315
-0.3
-0.29
-0.285
-0.295
-0.31
-0.3
-0.295
-0.295
-0.3
-0.305
-0.315
-0.315
-0.32
-0.3
-0.315
-0.315
-0.33
-0.325
-0.32
-0.32
-0.315
-0.315
-0.335
-0.33
-0.31
-0.305
-0.32
-0.325
-0.34
-0.325
-0.335
-0.315
-0.315
-0.32
-0.33
-0.315
-0.305
-0.31
-0.31
-0.32
-0.335
-0.325
-0.32
-0.315
-0.33
-0.33
-0.335
-0.32
-0.32
-0.305
-0.3
-0.31
-0.32
-0.305
-0.295
-0.29
-0.29
-0.3
-0.305
-0.3
-0.28
-0.26
-0.25
-0.255
-0.265
-0.255
-0.24
-0.235
-0.215
-0.22
-0.225
-0.215
-0.225
-0.205
-0.21
-0.21
-0.215
-0.21
-0.22
-0.205
-0.215
-0.22
-0.24
-0.245
-0.235
-0.21
-0.195
-0.215
-0.23
-0.245
-0.27
-0.275
-0.28
-0.32
-0.33
-0.325
-0.32
-0.305
-0.32
-0.325
-0.34
-0.33
-0.315
-0.315
-0.325
-0.32
-0.34
-0.34
-0.32
-0.32
-0.32
-0.33
-0.335
-0.34
-0.32
-0.31
-0.315
-0.33
-0.35
-0.345
-0.355
-0.39
-0.42
-0.445
-0.45
-0.46
-0.49
-0.54
-0.57
-0.57
-0.535
-0.495
-0.4
-0.295
-0.175
-0.03
0.165
0.425
0.69
0.88
0.96
0.9
0.645
0.255
-0.09
-0.31
-0.42
-0.43
-0.415
-0.375
-0.335
-0.33
-0.345
-0.34
-0.345
-0.34
-0.335
-0.32
-0.33
-0.33
-0.345
-0.34
-0.355
-0.34
-0.34
-0.345
-0.345
-0.34
-0.33
-0.325
-0.32
-0.32
-0.34
-0.325
-0.33
-0.32
-0.32
-0.34
-0.345
-0.35
-0.335
-0.335
-0.33
-0.32
-0.335
-0.33
-0.315
-0.315
-0.32
-0.325
-0.335
-0.32
-0.33
-0.33
-0.335
-0.33
-0.34
-0.335
-0.325
-0.305
-0.315
-0.325
-0.335
-0.34
-0.32
-0.325
-0.32
-0.325
-0.34
-0.34
-0.335
-0.33
-0.32
-0.34
-0.345
-0.325
-0.315
-0.31
-0.31
-0.325
-0.335
-0.325
-0.33
-0.325
-0.335
-0.335
-0.355
-0.345
-0.34
-0.335
-0.335
-0.355
-0.36
-0.355
-0.345
-0.34
-0.35
-0.35
-0.36
-0.35
-0.35
-0.33
-0.325
-0.33
-0.35
-0.32
-0.295
-0.29
-0.275
-0.28
-0.28
-0.265
-0.255
-0.245
-0.24
-0.25
-0.26
-0.245
-0.24
-0.235
-0.215
-0.23
-0.23
-0.225
-0.21
-0.21
-0.205
-0.215
-0.21
-0.21
-0.21
-0.2
-0.21
-0.22
-0.235
-0.22
-0.225
-0.215
-0.23
-0.235
-0.245
-0.235
-0.225
-0.21
-0.22
-0.215
-0.23
-0.225
-0.225
-0.22
-0.235
-0.23
-0.235
-0.23
-0.23
-0.22
-0.215
-0.235
-0.25
-0.235
-0.235
-0.23
-0.235
-0.235
-0.26
-0.245
-0.25
-0.245
-0.24
-0.245
-0.255
-0.25
-0.24
-0.235
-0.24
-0.245
-0.26
-0.255
-0.25
-0.235
-0.235
-0.255
-0.27
-0.27
-0.255
-0.24
-0.245
-0.25
-0.26
-0.25
-0.245
-0.235
-0.24
-0.245
-0.265
-0.26
-0.25
-0.24
-0.24
-0.245
-0.265
-0.25
-0.25
-0.235
-0.24
-0.25
-0.25
-0.255
-0.245
-0.23
-0.24
-0.24
-0.25
-0.255
-0.245
-0.23
-0.235
-0.235
-0.24
-0.215
-0.19
-0.185
-0.175
-0.175
-0.18
-0.17
-0.16
-0.15
-0.14
-0.145
-0.14
-0.13
-0.125
-0.125
-0.13
-0.145
-0.155
-0.165
-0.155
-0.15
-0.15
-0.165
-0.185
-0.17
-0.145
-0.115
-0.11
-0.135
-0.17
-0.19
-0.19
-0.185
-0.215
-0.235
-0.255
-0.24
-0.24
-0.245
-0.25
-0.24
-0.265
-0.255
-0.255
-0.245
-0.26
-0.265
-0.28
-0.28
-0.275
-0.26
-0.27
-0.265
-0.28
-0.275
-0.265
-0.265
-0.26
-0.275
-0.28
-0.275
-0.27
-0.265
-0.275
-0.33
-0.37
-0.405
-0.405
-0.44
-0.47
-0.455
-0.39
-0.255
-0.09
0.09
0.335
0.615
0.865
1.015
1.02
0.855
0.475
0.065
-0.26
-0.39
-0.395
-0.345
-0.305
-0.29
-0.315
-0.31
-0.32
-0.305
-0.31
-0.32
-0.34
-0.33
-0.315
-0.315
-0.305
-0.315
-0.325
-0.32
-0.31
-0.3
-0.3
-0.315
-0.325
-0.315
-0.305
-0.305
-0.31
-0.315
-0.32
-0.32
-0.31
-0.31
-0.31
-0.325
-0.325
-0.32
-0.32
-0.315
-0.315
-0.33
-0.34
-0.325
-0.325
-0.3
-0.305
-0.32
-0.335
-0.325
-0.315
-0.305
-0.305
-0.315
-0.31
-0.325
-0.31
-0.295
-0.31
-0.315
-0.325
-0.33
-0.3
-0.3
-0.305
-0.3
-0.31
-0.31
-0.31
-0.295
-0.29
-0.315
-0.32
-0.315
-0.305
-0.31
-0.31
-0.31
-0.325
-0.315
-0.305
-0.305
-0.31
-0.33
-0.32
-0.315
-0.32
-0.305
-0.305
-0.315
-0.32
-0.32
-0.315
-0.31
-0.315
-0.33
-0.335
-0.315
-0.3
-0.29
-0.285
-0.285
-0.275
-0.26
-0.255
-0.23
-0.235
-0.23
-0.235
-0.23
-0.22
-0.2
-0.205
-0.21
-0.215
-0.23
-0.225
-0.225
-0.195
-0.205
-0.225
-0.225
-0.205
-0.21
-0.2
-0.205
-0.215
-0.215
-0.205
-0.195
-0.2
-0.205
-0.22
-0.225
