Lead II
-1.055
-1.08
-1.07
-1.03
-0.94
-0.83
-0.66
-0.445
-0.23
-0.015
0.17
0.36
0.555
0.685
0.8
0.855
0.87
0.845
0.785
0.73
0.63
0.48
0.23
-0.08
-0.395
-0.64
-0.78
-0.86
-0.85
-0.795
-0.735
-0.71
-0.73
-0.775
-0.835
-0.905
-0.94
-0.965
-0.97
-0.97
-0.96
-0.97
-0.96
-0.96
-0.95
-0.965
-0.97
-0.975
-0.98
-0.95
-0.93
-0.95
-0.94
-0.935
-0.945
-0.95
-0.955
-0.965
-0.98
-0.98
-0.965
-0.98
-0.95
-0.965
-0.955
-0.955
-0.94
-0.95
-0.96
-0.985
-0.97
-0.97
-0.985
-0.955
-0.95
-0.96
-0.94
-0.94
-0.93
-0.955
-0.965
-0.975
-0.975
-0.965
-0.955
-0.945
-0.935
-0.935
-0.92
-0.92
-0.905
-0.91
-0.92
-0.935
-0.95
-0.93
-0.925
-0.905
-0.88
-0.87
-0.875
-0.86
-0.865
-0.86
-0.855
-0.86
-0.865
-0.86
-0.85
-0.835
-0.805
-0.795
-0.795
-0.79
-0.785
-0.785
-0.79
-0.8
-0.805
-0.81
-0.8
-0.79
-0.79
-0.78
-0.8
-0.78
-0.785
-0.8
-0.805
-0.815
-0.83
-0.83
-0.82
-0.825
-0.815
-0.82
-0.815
-0.815
-0.81
-0.82
-0.84
-0.86
-0.855
-0.85
-0.87
-0.865
-0.88
-0.895
-0.875
-0.875
-0.87
-0.87
-0.9
-0.915
-0.925
-0.925
-0.915
-0.92
-0.915
-0.94
-0.905
-0.905
-0.915
-0.925
-0.92
-0.935
-0.945
-0.935
-0.93
-0.935
-0.905
-0.9
-0.9
-0.905
-0.905
-0.895
-0.905
-0.915
-0.925
-0.92
-0.91
-0.9
-0.88
-0.87
-0.87
-0.875
-0.87
-0.865
-0.84
-0.835
-0.835
-0.85
-0.845
-0.84
-0.805
-0.77
-0.75
-0.74
-0.725
-0.72
-0.7
-0.685
-0.675
-0.69
-0.68
-0.66
-0.655
-0.64
-0.64
-0.675
-0.695
-0.7
-0.705
-0.705
-0.715
-0.73
-0.745
-0.75
-0.755
-0.755
-0.78
-0.81
-0.835
-0.86
-0.88
-0.885
-0.885
-0.9
-0.915
-0.93
-0.915
-0.9
-0.9
-0.915
-0.91
-0.905
-0.925
-0.925
-0.92
-0.92
-0.92
-0.93
-0.925
-0.915
-0.95
-0.985
-1.045
-1.09
-1.145
-1.14
-1.11
-1.035
-0.92
-0.775
-0.58
-0.37
-0.185
0.0
0.15
0.3
0.44
0.595
0.69
0.78
0.825
0.815
0.8
0.76
0.705
0.585
0.415
0.115
-0.2
-0.49
-0.735
-0.865
-0.89
-0.85
-0.785
-0.74
-0.725
-0.745
-0.81
-0.88
-0.935
-0.99
-1.015
-1.02
-1.005
-1.0
-0.995
-0.98
-1.0
-1.005
-0.98
-1.01
-1.01
-1.01
-1.01
-1.01
-1.0
-0.99
-1.0
-0.995
-0.985
-0.985
-0.985
-0.995
-0.995
-1.005
-1.015
-1.0
-1.02
-1.005
-1.015
-1.025
-1.0
-0.995
-1.0
-0.99
-1.0
-1.015
-1.015
-1.025
-1.02
-1.025
-1.005
-1.0
-1.005
-0.995
-0.98
-0.995
-1.025
-1.02
-1.015
-1.01
-1.005
-0.995
-0.975
-0.99
-0.97
-0.97
-0.98
-0.965
-0.955
-0.97
-0.975
-0.97
-0.965
-0.945
-0.925
-0.93
-0.92
-0.915
-0.895
-0.895
-0.875
-0.885
-0.88
-0.87
-0.855
-0.835
-0.825
-0.83
-0.84
-0.84
-0.81
-0.825
-0.835
-0.855
-0.86
-0.88
-0.85
-0.835
-0.825
-0.82
-0.855
-0.825
-0.825
-0.81
-0.815
-0.835
-0.85
-0.865
-0.855
-0.84
-0.835
-0.86
-0.85
-0.865
-0.845
-0.855
-0.87
-0.88
-0.89
-0.89
-0.89
-0.885
-0.865
-0.875
-0.88
-0.875
-0.88
-0.875
-0.885
-0.905
-0.9
-0.925
-0.945
-0.92
-0.915
-0.91
-0.9
-0.91
-0.925
-0.945
-0.935
-0.94
-0.955
-0.95
-0.93
-0.91
-0.905
-0.91
-0.915
-0.93
-0.925
-0.915
-0.94
-0.925
-0.94
-0.915
-0.89
-0.885
-0.89
-0.885
-0.88
-0.86
-0.84
-0.83
-0.835
-0.815
-0.795
-0.785
-0.745
-0.73
-0.695
-0.68
-0.67
-0.685
-0.675
-0.665
-0.68
-0.695
-0.715
-0.705
-0.695
-0.68
-0.675
-0.685
-0.69
-0.68
-0.685
-0.71
-0.735
-0.775
-0.82
-0.84
-0.85
-0.875
-0.865
-0.865
-0.885
-0.875
-0.875
-0.88
-0.91
-0.905
-0.915
-0.945
-0.93
-0.91
-0.9
-0.905
-0.91
-0.895
-0.89
-0.88
-0.905
-0.945
-0.99
-1.065
-1.1
-1.13
-1.135
-1.055
-0.935
-0.765
-0.525
-0.295
-0.09
0.12
0.295
0.48
0.63
0.75
0.83
0.86
0.865
0.86
0.825
0.755
0.605
0.405
0.115
-0.18
-0.48
-0.715
-0.85
-0.885
-0.855
-0.8
-0.755
-0.73
-0.75
-0.795
-0.87
-0.915
-0.96
-0.99
-0.985
-1.0
-0.995
-0.98
-0.97
-0.965
-0.98
-0.99
-0.98
-1.0
-1.0
-0.985
-0.97
-0.98
-0.98
-0.975
-0.96
-0.95
-0.96
-0.96
-0.97
-0.99
-0.99
-1.0
-0.98
-0.975
-0.98
-0.98
-1.0
-0.995
-0.985
-0.99
-0.98
-0.98
-0.96
-0.955
-0.955
-0.96
-0.96
-0.96
-0.96
-0.96
-0.98
-0.99
-1.0
-1.005
-0.99
-0.99
-0.985
-0.97
-0.97
-0.945
-0.93
-0.935
-0.935
-0.96
-0.945
-0.95
-0.955
-0.94
-0.925
-0.915
-0.895
-0.89
-0.875
-0.865
-0.865
-0.87
-0.88
-0.86
-0.86
-0.85
-0.84
-0.845
-0.825
-0.805
-0.815
-0.81
-0.82
-0.83
-0.83
-0.83
-0.835
-0.8
-0.8
-0.805
-0.81
-0.8
-0.815
-0.82
-0.825
-0.83
-0.845
-0.84
-0.82
-0.81
-0.825
-0.835
-0.83
-0.825
-0.835
-0.825
-0.845
-0.85
-0.86
-0.87
-0.87
-0.875
-0.88
-0.87
-0.85
-0.855
-0.865
-0.875
-0.9
-0.905
-0.895
-0.9
-0.91
-0.925
-0.93
-0.92
-0.895
-0.89
-0.88
-0.88
-0.895
-0.89
-0.91
-0.91
-0.915
-0.91
-0.92
-0.905
-0.89
-0.88
-0.885
-0.905
-0.89
-0.885
-0.87
-0.87
-0.865
-0.86
-0.845
-0.84
-0.815
-0.795
-0.8
-0.795
-0.8
-0.77
-0.78
-0.77
-0.735
-0.725
-0.705
-0.675
-0.665
-0.65
-0.65
-0.64
-0.67
-0.68
-0.68
-0.675
-0.69
-0.705
-0.72
-0.73
-0.715
-0.705
-0.72
-0.735
-0.77
-0.79
-0.815
-0.83
-0.845
-0.87
-0.865
-0.865
-0.86
-0.855
-0.87
-0.895
-0.895
-0.895
-0.9
-0.895
-0.885
-0.895
-0.89
-0.88
-0.875
-0.91
-0.92
-0.96
-0.995
-1.025
-1.08
-1.125
-1.11
-1.055
-0.965
-0.815
-0.625
-0.44
-0.245
-0.07
0.085
0.27
0.43
0.57
0.67
0.74
0.76
0.76
0.765
0.69
0.635
0.515
0.3
0.02
-0.29
-0.58
-0.8
-0.915
-0.935
-0.88
-0.8
-0.735
-0.725
-0.745
-0.815
-0.85
-0.915
-0.945
-0.965
-0.97
-0.97
-0.955
-0.94
-0.94
-0.95
-0.96
-0.97
-0.955
-0.96
-0.955
-0.945
-0.925
-0.955
-0.93
-0.935
-0.935
-0.93
-0.955
-0.965
-0.94
-0.965
-0.945
-0.97
-0.95
-0.955
-0.945
-0.935
-0.94
-0.935
-0.945
-0.96
-0.96
-0.945
-0.95
-0.95
-0.95
-0.97
-0.97
-0.945
-0.935
-0.95
-0.965
-0.945
-0.95
-0.94
-0.93
-0.94
-0.935
-0.925
-0.905
-0.88
-0.865
-0.885
-0.885
-0.895
-0.9
-0.89
-0.89
-0.87
-0.875
-0.865
-0.845
-0.825
-0.825
-0.83
-0.83
-0.845
-0.83
-0.825
-0.8
-0.81
-0.81
-0.79
-0.78
-0.765
-0.74
-0.74
-0.755
-0.77
-0.775
-0.785
-0.775
-0.79
-0.765
-0.755
-0.75
-0.74
-0.74
-0.745
-0.775
-0.765
-0.775
-0.79
-0.775
-0.8
-0.8
-0.78
-0.775
-0.765
-0.76
-0.77
-0.8
-0.8
-0.795
-0.805
-0.805
-0.8
-0.815
-0.8
-0.8
-0.79
-0.775
-0.795
-0.81
-0.815
-0.81
-0.83
-0.83
-0.84
-0.84
-0.83
-0.815
-0.81
-0.8
-0.8
-0.82
-0.835
-0.82
-0.81
-0.81
-0.815
-0.81
-0.815
-0.805
-0.78
-0.785
-0.77
-0.785
-0.79
-0.79
-0.795
-0.785
-0.795
-0.785
-0.795
-0.785
-0.755
-0.73
-0.71
-0.725
-0.75
-0.755
-0.755
-0.745
-0.725
-0.7
-0.675
-0.665
-0.63
-0.62
-0.595
-0.57
-0.58
-0.575
-0.58
-0.57
-0.575
-0.59
-0.555
-0.56
-0.57
-0.565
-0.58
-0.585
-0.6
-0.63
-0.625
-0.635
-0.63
-0.645
-0.67
-0.695
-0.705
-0.72
-0.725
-0.75
-0.765
-0.785
-0.815
-0.83
-0.815
-0.82
-0.81
-0.82
-0.815
-0.82
-0.81
-0.82
-0.83
-0.845
-0.855
-0.86
-0.845
-0.845
-0.84
-0.88
-0.92
-0.95
-0.99
-1.005
-0.985
-0.92
-0.8
-0.645
-0.43
-0.21
0.01
0.19
0.355
0.5
0.645
0.755
0.83
0.855
0.845
0.81
0.78
0.73
0.675
0.555
0.345
0.025
-0.28
-0.555
-0.765
-0.855
-0.865
-0.81
-0.745
-0.72
-0.71
-0.735
-0.79
-0.83
-0.865
-0.895
-0.915
-0.955
-0.965
-0.955
-0.925
-0.91
-0.92
-0.91
-0.915
-0.91
-0.91
-0.925
-0.925
-0.935
-0.94
-0.955
-0.94
-0.925
-0.915
-0.915
-0.92
-0.92
-0.93
-0.925
-0.92
-0.92
-0.94
-0.94
-0.945
-0.94
-0.92
-0.925
-0.92
-0.93
-0.925
-0.905
-0.91
-0.925
-0.945
-0.945
-0.945
-0.95
-0.915
-0.9
-0.91
-0.905
-0.9
-0.89
-0.89
-0.89
-0.92
-0.92
-0.915
-0.905
-0.905
-0.88
-0.875
-0.865
-0.86
-0.865
-0.86
-0.87
-0.87
-0.87
-0.845
-0.845
-0.825
-0.82
-0.815
-0.79
-0.78
-0.765
-0.77
-0.77
-0.785
-0.78
-0.775
-0.765
-0.775
-0.755
-0.755
-0.755
-0.765
-0.76
-0.75
-0.775
-0.775
-0.785
-0.79
-0.765
-0.765
-0.755
-0.755
-0.77
-0.775
-0.78
-0.765
-0.765
-0.79
-0.81
-0.81
-0.795
-0.76
-0.78
-0.765
-0.79
-0.78
-0.795
-0.795
-0.815
-0.81
-0.84
-0.845
-0.84
-0.835
-0.815
-0.83
-0.845
-0.835
-0.845
-0.855
-0.845
-0.855
-0.875
-0.87
-0.875
-0.875
-0.86
-0.855
-0.85
-0.86
-0.875
-0.88
-0.895
-0.895
-0.895
-0.905
-0.88
-0.88
-0.86
-0.85
-0.855
-0.845
-0.84
-0.85
-0.85
-0.855
-0.845
-0.845
-0.82
-0.79
-0.785
-0.78
-0.785
-0.78
-0.775
-0.775
-0.735
-0.735
-0.72
-0.705
-0.69
-0.65
-0.625
-0.6
-0.58
-0.59
-0.61
-0.62
-0.62
-0.615
-0.62
-0.665
-0.66
-0.67
-0.68
-0.66
-0.66
-0.67
-0.68
-0.695
-0.725
-0.75
-0.795
-0.815
-0.83
-0.825
-0.825
-0.825
-0.825
-0.845
-0.855
-0.86
-0.87
-0.86
-0.885
-0.89
-0.91
-0.905
-0.895
-0.855
-0.85
-0.86
-0.88
-0.89
-0.915
-0.93
-0.965
-1.02
-1.085
-1.095
-1.055
-0.99
-0.865
-0.705
-0.515
-0.32
-0.12
0.065
0.225
0.395
0.535
0.67
0.77
0.82
0.865
0.84
0.79
0.735
0.675
0.6
0.5
0.3
0.0
-0.315
-0.595
-0.765
-0.845
-0.84
-0.81
-0.75
-0.745
-0.76
-0.775
-0.82
-0.865
-0.915
-0.94
-0.94
-0.96
-0.955
-0.945
-0.965
-0.97
-0.985
-0.98
-0.96
-0.96
-0.945
-0.955
-0.945
-0.925
-0.92
-0.93
-0.93
-0.955
-0.975
-0.98
-0.97
-0.945
-0.925
-0.935
-0.945
-0.94
-0.925
-0.93
-0.935
-0.925
-0.955
-0.965
-0.95
-0.975
-0.96
-0.955
-0.965
-0.93
-0.945
-0.935
-0.935
-0.955
-0.96
-0.965
-0.95
-0.94
-0.925
-0.925
-0.925
-0.925
-0.925
-0.9
-0.925
-0.92
-0.93
-0.93
-0.935
-0.93
-0.91
-0.91
-0.885
-0.88
-0.88
-0.885
-0.88
-0.87
-0.875
-0.88
-0.88
-0.855
-0.825
-0.835
-0.805
-0.795
-0.81
-0.775
-0.79
-0.795
-0.805
-0.805
-0.805
-0.8
-0.78
-0.76
-0.755
-0.76
-0.765
-0.775
-0.765
-0.78
-0.8
-0.805
-0.8
-0.805
-0.795
-0.775
-0.775
-0.775
-0.79
-0.8
-0.795
-0.8
-0.815
-0.825
-0.84
-0.84
-0.81
-0.81
-0.82
-0.82
-0.83
-0.84
-0.86
-0.865
-0.865
-0.89
-0.87
-0.875
-0.875
-0.88
-0.88
-0.88
-0.88
-0.88
-0.89
-0.89
-0.905
-0.905
-0.935
-0.91
-0.905
-0.895
-0.895
-0.885
-0.9
-0.885
-0.89
-0.895
-0.895
-0.915
-0.92
-0.91
-0.88
-0.88
-0.88
-0.865
-0.85
-0.865
-0.85
-0.84
-0.84
-0.835
-0.84
-0.85
-0.83
-0.805
-0.795
-0.775
-0.76
-0.75
-0.725
-0.705
-0.695
-0.695
-0.68
-0.655
-0.645
-0.625
-0.625
-0.625
-0.63
-0.63
-0.635
-0.64
-0.67
-0.685
-0.7
-0.695
-0.7
-0.695
-0.705
-0.715
-0.755
-0.785
-0.805
-0.845
-0.87
-0.885
-0.9
-0.895
-0.9
-0.91
-0.905
-0.885
-0.875
-0.875
-0.905
-0.9
-0.905
-0.92
-0.915
-0.895
-0.9
-0.92
-0.945
-0.97
-0.995
-1.055
-1.11
-1.1
-1.065
-0.975
-0.83
-0.635
-0.445
-0.24
-0.055
0.155
0.305
0.465
0.61
0.715
0.775
0.81
0.805
0.775
0.725
0.67
0.565
0.425
0.165
-0.16
-0.47
-0.705
-0.86
-0.895
-0.86
-0.8
-0.765
-0.725
-0.75
-0.78
-0.835
-0.875
-0.915
-0.965
-0.985
-0.995
-0.995
-0.995
-0.965
-0.965
-0.98
-0.98
-0.945
-0.95
-0.95
-0.965
-0.96
-0.945
-0.96
-0.985
-0.975
-0.955
-0.98
-0.945
-0.94
-0.945
-0.955
-0.965
-0.96
-0.97
-0.97
-0.955
-0.955
-0.955
-0.945
-0.93
-0.945
-0.945
-0.96
-0.97
-0.98
-0.975
-0.97
-0.965
-0.975
-0.965
-0.955
-0.92
-0.92
-0.93
-0.94
-0.955
-0.955
-0.935
-0.935
-0.935
-0.925
-0.915
-0.91
-0.89
-0.89
-0.9
-0.895
-0.9
-0.9
-0.89
-0.885
-0.89
-0.865
-0.845
-0.83
-0.815
-0.795
-0.815
-0.82
-0.83
-0.825
-0.805
-0.81
-0.81
-0.805
-0.785
-0.775
-0.76
-0.775
-0.79
-0.795
-0.795
-0.81
-0.81
-0.82
-0.825
-0.815
-0.8
-0.8
-0.78
-0.795
-0.81
-0.8
-0.8
-0.8
-0.815
-0.84
-0.845
-0.835
-0.815
-0.815
-0.795
-0.83
-0.84
-0.84
-0.86
-0.865
-0.87
-0.89
-0.895
-0.89
-0.89
-0.89
-0.885
-0.895
-0.905
-0.9
-0.905
-0.9
-0.905
-0.92
-0.92
-0.905
-0.9
-0.89
-0.875
-0.905
-0.915
-0.92
-0.895
-0.895
-0.89
-0.915
-0.93
-0.915
-0.875
-0.875
-0.855
-0.865
-0.875
-0.885
-0.885
-0.875
-0.86
-0.855
-0.85
-0.84
-0.815
-0.8
-0.795
-0.785
-0.76
-0.75
-0.725
-0.7
-0.685
-0.68
-0.665
-0.635
-0.61
-0.595
-0.61
-0.625
-0.615
-0.63
-0.63
-0.625
-0.64
-0.665
-0.675
-0.685
-0.67
-0.67
-0.675
-0.705
-0.725
-0.77
-0.805
-0.825
-0.855
-0.87
-0.875
-0.88
-0.88
-0.865
-0.86
-0.87
-0.88
-0.905
-0.9
-0.895
-0.9
-0.91
-0.915
-0.91
-0.885
-0.87
-0.865
-0.885
-0.915
-0.935
-0.99
-1.035
-1.085
-1.11
-1.09
-1.025
-0.905
-0.725
-0.545
-0.355
-0.18
-0.025
0.145
0.315
0.495
0.64
0.75
0.815
0.87
0.86
0.83
0.77
0.65
0.47
0.205
-0.115
-0.44
-0.68
-0.83
-0.865
-0.83
-0.77
-0.72
-0.75
-0.77
-0.835
-0.885
-0.92
-0.975
-0.985
-0.99
-0.975
-0.965
-0.96
-0.955
-0.965
-0.98
-0.98
-0.975
-0.975
-0.97
-0.98
-0.985
-0.975
-0.95
-0.95
-0.965
-0.975
-0.99
-0.98
-0.975
-0.975
-0.995
-0.995
-1.0
-0.99
-0.96
-0.95
-0.935
-0.96
-0.95
-0.975
-0.98
-0.985
-0.98
-1.005
-1.005
-0.985
-0.96
-0.97
-0.965
-0.975
-0.975
-0.985
-0.99
-0.99
-0.985
-0.975
-0.975
-0.955
-0.95
-0.93
-0.925
-0.94
-0.945
-0.945
-0.945
-0.92
-0.915
-0.915
-0.905
-0.885
-0.875
-0.865
-0.855
-0.86
-0.845
-0.845
-0.84
-0.85
-0.85
-0.865
-0.86
-0.84
-0.815
-0.82
-0.795
-0.795
-0.785
-0.8
-0.785
-0.8
-0.815
-0.82
-0.84
-0.83
-0.8
-0.785
-0.785
-0.785
-0.79
-0.805
-0.815
-0.8
-0.84
-0.83
-0.84
-0.83
-0.83
-0.81
-0.8
-0.835
-0.84
-0.84
-0.835
-0.84
-0.845
-0.87
-0.86
-0.86
-0.84
-0.825
-0.835
-0.83
-0.86
-0.875
-0.89
-0.895
-0.89
-0.895
-0.915
-0.905
-0.885
-0.89
-0.875
-0.9
-0.91
-0.915
-0.925
-0.94
-0.945
-0.945
-0.945
-0.935
-0.91
-0.885
-0.89
-0.9
-0.89
-0.9
-0.88
-0.875
-0.89
-0.89
-0.885
-0.87
-0.86
-0.845
-0.845
-0.84
-0.83
-0.83
-0.82
-0.835
-0.835
-0.825
-0.82
-0.79
-0.75
-0.725
-0.715
-0.695
-0.675
-0.66
-0.64
-0.64
-0.64
-0.67
-0.665
-0.645
-0.63
-0.615
-0.61
-0.635
-0.645
-0.655
-0.68
-0.695
-0.72
-0.715
-0.71
-0.72
-0.74
-0.745
-0.78
-0.81
-0.83
-0.845
-0.865
-0.865
-0.875
-0.87
-0.865
-0.86
-0.845
-0.845
-0.87
-0.89
-0.895
-0.88
-0.89
-0.895
-0.885
-0.89
-0.89
-0.9
-0.89
-0.95
-1.01
-1.055
-1.1
-1.105
-1.045
-0.945
-0.75
-0.53
-0.31
-0.095
0.08
0.215
0.4
0.56
0.69
0.795
0.84
0.87
0.865
0.81
0.775
0.67
0.53
0.3
0.005
-0.315
-0.58
-0.74
-0.825
-0.86
-0.825
-0.76
-0.725
-0.72
-0.735
-0.8
-0.855
-0.9
-0.925
-0.94
-0.955
-0.97
-0.98
-0.985
-0.98
-0.98
-0.945
-0.94
-0.965
-0.955
-0.94
-0.945
-0.945
-0.94
-0.955
-0.97
-0.965
-0.945
-0.935
-0.94
-0.935
-0.945
-0.945
-0.945
-0.945
-0.95
-0.97
-0.98
-0.975
-0.975
-0.97
-0.97
-0.985
-0.96
-0.95
-0.97
-1.0
-1.0
-0.99
-0.99
-0.99
-0.995
-0.99
-0.99
-0.965
-0.945
-0.94
-0.935
-0.92
-0.95
-0.95
-0.96
-0.965
-0.95
-0.945
-0.935
-0.92
-0.915
-0.915
-0.91
-0.91
-0.915
-0.915
-0.9
-0.89
-0.875
-0.865
-0.84
-0.825
-0.83
-0.83
-0.825
-0.84
-0.855
-0.865
-0.83
-0.8
-0.78
-0.78
-0.8
-0.8
-0.805
-0.795
-0.8
-0.81
-0.815
-0.82
-0.83
-0.84
-0.815
-0.81
-0.825
-0.82
-0.83
-0.84
-0.855
-0.855
-0.865
-0.865
-0.86
-0.85
-0.835
-0.825
-0.84
-0.84
-0.86
-0.865
-0.865
-0.87
-0.89
-0.89
-0.9
-0.905
-0.89
-0.89
-0.885
-0.905
-0.905
-0.925
-0.935
-0.935
-0.955
-0.96
-0.955
-0.955
-0.935
-0.92
-0.925
-0.93
-0.935
-0.915
-0.915
-0.905
-0.92
-0.92
-0.94
-0.94
-0.94
-0.91
-0.915
-0.915
-0.925
-0.91
-0.905
-0.89
-0.895
-0.91
-0.92
-0.925
-0.89
-0.875
-0.865
-0.86
-0.85
-0.845
-0.845
-0.845
-0.85
-0.865
-0.85
-0.835
-0.78
-0.745
-0.715
-0.715
-0.715
-0.705
-0.68
-0.68
-0.685
-0.68
-0.695
-0.69
-0.67
-0.655
-0.665
-0.655
-0.685
-0.715
-0.7
-0.73
-0.745
-0.76
-0.805
-0.815
-0.83
-0.815
-0.835
-0.845
-0.875
-0.87
-0.87
-0.875
-0.875
-0.885
-0.91
-0.92
-0.925
-0.9
-0.905
-0.88
-0.88
-0.885
-0.9
-0.9
-0.9
-0.905
-0.94
-0.955
-0.96
-0.995
-1.025
-1.07
-1.105
-1.135
-1.11
-1.035
-0.925
-0.785
-0.595
-0.4
-0.225
-0.025
0.13
0.295
0.445
0.575
0.685
0.765
0.815
0.805
0.795
0.76
0.695
0.595
0.475
0.3
0.03
-0.29
-0.575
-0.79
-0.89
-0.925
-0.885
-0.815
-0.765
-0.74
-0.76
-0.8
-0.835
-0.89
-0.935
-0.965
-0.995
-1.0
-1.01
-1.005
-1.01
-1.005
-1.005
-0.975
-0.96
-0.945
-0.975
-0.98
-0.995
-0.98
-0.98
-0.985
-1.0
-1.0
-0.995
-0.98
-0.96
-0.965
-0.97
-0.995
-0.99
-1.005
-1.0
-1.0
-1.005
-1.0
-0.99
-0.985
-0.955
-0.975
-0.97
-0.99
-0.995
-0.995
-0.985
-0.98
-0.97
-0.975
-0.98
-0.975
-0.95
-0.945
-0.95
-0.965
-0.985
-0.995
-1.005
-0.96
-0.95
-0.95
-0.95
-0.935
-0.925
-0.93
-0.91
-0.92
-0.935
-0.935
-0.92
-0.915
-0.89
-0.9
-0.89
-0.885
-0.86
-0.845
-0.85
-0.855
-0.865
-0.85
-0.84
-0.835
-0.82
-0.84
-0.82
-0.81
-0.79
-0.805
-0.805
-0.82
-0.83
-0.835
-0.825
-0.83
-0.85
-0.83
-0.835
-0.825
-0.81
-0.81
-0.825
-0.855
-0.87
-0.86
-0.865
-0.875
-0.86
-0.875
-0.855
-0.855
-0.855
-0.85
-0.88
-0.88
-0.89
-0.895
-0.88
-0.895
-0.905
-0.89
-0.91
-0.9
-0.885
-0.895
-0.925
-0.93
-0.93
-0.94
-0.93
-0.92
-0.93
-0.93
-0.92
-0.89
-0.88
-0.895
-0.9
-0.905
-0.91
-0.915
-0.92
-0.905
-0.9
-0.895
-0.885
-0.875
-0.875
-0.88
-0.875
-0.895
-0.915
-0.915
-0.92
-0.895
-0.895
-0.885
-0.87
-0.85
-0.855
-0.855
-0.86
-0.855
-0.85
-0.835
-0.845
-0.835
-0.835
-0.81
-0.795
-0.745
-0.725
-0.725
-0.72
-0.71
-0.7
-0.69
-0.68
-0.66
-0.67
-0.65
-0.65
-0.625
-0.64
-0.67
-0.68
-0.7
-0.72
-0.715
-0.73
-0.735
-0.745
-0.74
-0.735
-0.745
-0.765
-0.8
-0.845
-0.865
-0.875
-0.89
-0.9
-0.92
-0.925
-0.92
-0.92
-0.915
-0.905
-0.92
-0.935
-0.95
-0.95
-0.92
-0.94
-0.93
-0.925
-0.925
-0.93
-0.925
-0.945
-0.985
-1.06
-1.11
-1.13
-1.105
-1.005
-0.87
-0.66
-0.41
-0.15
0.06
0.245
0.435
0.59
0.695
0.78
0.805
0.785
0.735
0.685
0.62
0.53
0.36
0.08
-0.26
-0.54
-0.78
-0.915
-0.945
-0.93
-0.89
-0.825
-0.805
-0.825
-0.885
-0.935
-0.975
-0.99
-1.005
-1.025
-1.025
-1.03
-1.035
-1.025
-1.01
-1.01
-1.0
-1.01
-1.02
-1.015
-1.015
-1.005
-1.01
-1.02
-1.035
-1.025
-1.03
-1.005
-1.0
-1.005
-1.01
-1.005
-1.015
-1.025
-1.025
-1.03
-1.035
-1.05
-1.015
-1.01
-1.005
-1.0
-1.02
-1.01
-1.01
-1.02
-1.02
-1.025
-1.03
-1.005
-0.995
-0.995
-0.985
-0.99
-1.0
-0.985
-0.99
-1.0
-1.01
-1.01
-1.0
-0.99
-0.975
-0.975
-0.96
-0.955
-0.975
-0.95
-0.955
-0.95
-0.95
-0.955
-0.96
-0.95
-0.935
-0.91
-0.885
-0.895
-0.88
-0.885
-0.865
-0.87
-0.87
-0.895
-0.88
-0.875
-0.855
-0.86
-0.84
-0.85
-0.845
-0.85
-0.865
-0.855
-0.875
-0.88
-0.885
-0.88
-0.85
-0.84
-0.855
-0.855
-0.865
-0.865
-0.87
-0.885
-0.895
-0.9
-0.905
-0.9
-0.89
-0.89
-0.885
-0.885
-0.89
-0.9
-0.92
-0.925
-0.92
-0.95
-0.95
-0.955
-0.955
-0.945
-0.95
-0.965
-0.965
-0.97
-0.98
-0.98
-1.01
-1.005
-1.025
-1.01
-0.99
-0.98
-0.975
-0.985
-0.985
-0.995
-0.99
-0.995
-0.995
-1.025
-1.015
-0.975
-0.99
-0.975
-0.97
-0.965
-0.955
-0.95
-0.965
-0.955
-0.96
-0.975
-0.97
-0.945
-0.945
-0.925
-0.91
-0.925
-0.92
-0.92
-0.905
-0.89
-0.905
-0.9
-0.905
-0.9
-0.88
-0.86
-0.845
-0.825
-0.83
-0.825
-0.79
-0.78
-0.76
-0.75
-0.74
-0.74
-0.72
-0.705
-0.71
-0.7
-0.705
-0.71
-0.73
-0.73
-0.735
-0.765
-0.78
-0.79
-0.79
-0.775
-0.79
-0.815
-0.84
-0.875
-0.89
-0.91
-0.93
-0.96
-0.97
-0.98
-0.96
-0.955
-0.935
-0.95
-0.955
-0.97
-0.99
-0.97
-0.99
-0.985
-0.985
-0.98
-0.98
-0.955
-0.95
-0.975
-0.99
-1.03
-1.075
-1.13
-1.175
-1.185
-1.185
-1.13
-1.035
-0.89
-0.72
-0.54
-0.35
-0.17
-0.015
0.155
0.31
0.49
0.625
0.71
0.76
0.76
0.725
0.69
0.615
0.515
0.34
0.095
-0.205
-0.505
-0.74
-0.87
-0.95
-0.93
-0.89
-0.81
-0.8
-0.82
-0.865
-0.93
-0.975
-1.01
-1.045
-1.04
-1.055
-1.065
-1.045
-1.05
-1.045
-1.055
-1.07
-1.05
-1.06
-1.045
-1.035
-1.06
-1.04
-1.055
-1.03
-1.02
-1.03
-1.045
-1.055
-1.055
-1.055
-1.055
-1.06
-1.055
-1.06
-1.055
-1.04
-1.02
-1.03
-1.04
-1.05
-1.055
-1.05
-1.035
-1.035
-1.035
-1.04
-1.04
-1.035
-1.02
-1.015
-1.03
-1.025
-1.05
-1.055
-1.03
-1.025
-1.01
-1.015
-1.005
-1.0
-0.995
-0.975
-0.99
-1.015
-1.015
-1.035
-1.01
-1.005
-0.97
-0.965
-0.965
-0.96
-0.95
-0.94
-0.93
-0.945
-0.935
-0.945
-0.935
-0.925
-0.9
-0.89
-0.885
-0.87
-0.865
-0.87
-0.875
-0.875
-0.885
-0.885
-0.875
-0.88
-0.885
-0.89
-0.88
-0.875
-0.86
-0.86
-0.87
-0.885
-0.9
-0.9
-0.895
-0.905
-0.9
-0.9
-0.91
-0.885
-0.875
-0.87
-0.905
-0.9
-0.93
-0.95
-0.96
-0.945
-0.955
-0.94
-0.93
-0.93
-0.945
-0.965
-0.955
-0.975
-0.975
-0.975
-0.99
-1.015
-1.015
-1.015
-1.0
-0.99
-0.965
-0.985
-0.99
-0.995
-1.0
-1.015
-1.0
-1.0
-0.995
-0.985
-0.98
-0.98
-0.965
-0.97
-0.975
-0.98
-0.96
-0.97
-0.97
-0.98
-0.975
-0.96
-0.945
-0.93
-0.935
-0.945
-0.945
-0.95
-0.95
-0.93
-0.935
-0.94
-0.92
-0.905
-0.88
-0.875
-0.88
-0.87
-0.845
-0.84
-0.825
-0.815
-0.815
-0.8
-0.755
-0.715
-0.705
-0.71
-0.71
-0.695
-0.685
-0.695
-0.715
-0.735
-0.76
-0.745
-0.755
-0.75
-0.74
-0.745
-0.755
-0.76
-0.78
-0.81
-0.835
-0.875
-0.895
-0.925
-0.93
-0.925
-0.925
-0.92
-0.93
-0.945
-0.96
-0.95
-0.975
-0.98
-0.99
-0.995
-0.985
-0.985
-0.945
-0.94
-0.945
-0.96
-0.955
-0.97
-1.0
-1.045
-1.11
-1.175
-1.2
-1.17
-1.125
-0.995
-0.82
-0.61
-0.37
-0.14
0.065
0.26
0.435
0.6
0.75
0.81
0.835
0.82
0.765
0.695
0.585
0.435
0.19
-0.135
-0.45
-0.72
-0.855
-0.945
-0.91
-0.885
-0.83
-0.8
-0.8
-0.86
-0.935
-0.985
-1.025
-1.04
-1.05
-1.045
-1.045
-1.05
-1.04
-1.03
-1.02
-1.05
-1.04
-1.04
-1.04
-1.03
-1.03
-1.025
-1.045
-1.035
-1.02
-1.015
-1.0
-1.02
-1.025
-1.04
-1.04
-1.035
-1.035
-1.02
-1.035
-1.03
-1.015
-1.01
-1.015
-1.02
-1.045
-1.05
-1.05
-1.035
-1.025
-1.025
-1.01
-1.015
-1.01
-1.015
-1.01
-1.01
-1.035
-1.045
-1.03
-1.02
-1.02
-1.03
-1.02
-0.99
-0.97
-0.975
-0.98
-0.995
-0.99
-0.985
-0.975
-0.975
-0.955
-0.95
-0.92
-0.92
-0.915
-0.89
-0.895
-0.925
-0.91
-0.91
-0.895
-0.89
-0.89
-0.885
-0.885
-0.875
-0.85
-0.85
-0.84
-0.855
-0.865
-0.87
-0.865
-0.86
-0.84
-0.83
-0.855
-0.865
-0.865
-0.855
-0.86
-0.865
-0.87
-0.905
-0.915
-0.895
-0.905
-0.905
-0.885
-0.905
-0.875
-0.875
-0.88
-0.88
-0.91
-0.915
-0.915
-0.92
-0.915
-0.9
-0.905
-0.92
-0.91
-0.92
-0.92
-0.945
-0.96
-0.98
-0.975
-0.99
-0.98
-0.97
-0.99
-0.985
-0.97
-0.975
-0.985
-0.96
-0.995
-0.98
-0.99
-0.97
-0.98
-0.975
-0.965
-0.965
-0.945
-0.94
-0.93
-0.945
-0.945
-0.955
-0.96
-0.955
-0.94
-0.945
-0.94
-0.93
-0.92
-0.91
-0.905
-0.91
-0.92
-0.93
-0.945
-0.935
-0.93
-0.9
-0.9
-0.905
-0.89
-0.895
-0.875
-0.885
-0.875
-0.895
-0.895
-0.895
-0.855
-0.81
-0.785
-0.765
-0.745
-0.735
-0.72
-0.705
-0.695
-0.695
-0.7
-0.705
-0.71
-0.69
-0.68
-0.695
-0.69
-0.715
-0.72
-0.73
-0.755
-0.75
-0.745
-0.765
-0.775
-0.785
-0.82
-0.855
-0.855
-0.87
-0.885
-0.89
-0.925
-0.95
-0.97
-0.97
-0.96
-0.94
-0.935
-0.94
-0.94
-0.93
-0.92
-0.925
-0.93
-0.925
-0.96
-0.97
-0.96
-0.96
-0.97
-1.025
-1.075
-1.12
-1.165
-1.145
-1.125
-1.065
-0.945
-0.785
-0.555
-0.32
-0.12
0.07
0.25
0.4
0.535
0.69
0.785
0.84
0.865
0.855
0.83
0.795
0.715
0.575
0.325
-0.005
-0.32
-0.595
-0.805
-0.9
-0.91
-0.86
-0.825
-0.75
-0.74
-0.76
-0.82
-0.89
-0.95
-1.01
-1.02
-1.03
-1.04
-1.03
-1.03
-1.01
-0.995
-0.98
-0.975
-0.975
-0.975
-0.965
-0.975
-1.005
-1.01
-1.03
-1.01
-1.005
-0.995
-1.005
-0.99
-1.02
-1.02
-1.005
-1.02
-1.01
-1.01
-1.025
-1.015
-1.0
-0.97
-0.975
-0.975
-0.97
-0.98
-0.985
-0.99
-0.995
-1.01
-1.015
-1.015
-1.0
-0.985
-0.985
-0.99
-0.995
-0.98
-0.98
-0.975
-0.985
-0.995
-0.995
-0.98
-0.965
-0.95
-0.925
-0.925
-0.935
-0.945
-0.935
-0.93
-0.925
-0.935
-0.945
-0.945
-0.92
-0.895
-0.89
-0.865
-0.84
-0.835
-0.825
-0.815
-0.83
-0.83
-0.835
-0.825
-0.815
-0.805
-0.795
-0.78
-0.785
-0.79
-0.805
-0.815
-0.83
-0.83
-0.83
-0.815
-0.805
-0.795
-0.815
-0.815
-0.815
-0.815
-0.815
-0.84
-0.85
-0.86
-0.85
-0.855
-0.825
-0.815
-0.82
-0.82
-0.82
-0.82
-0.825
-0.87
-0.87
-0.87
-0.88
-0.885
-0.885
-0.885
-0.885
-0.875
-0.9
-0.905
-0.905
-0.905
-0.9
-0.91
-0.92
-0.9
-0.89
-0.9
-0.895
-0.885
-0.885
-0.86
-0.87
-0.89
-0.905
-0.905
-0.91
-0.9
-0.895
-0.895
-0.885
-0.88
-0.865
-0.86
-0.835
-0.86
-0.875
-0.88
-0.875
-0.865
-0.865
-0.875
-0.845
-0.805
-0.8
-0.81
-0.815
-0.84
-0.84
-0.835
-0.825
-0.805
-0.785
-0.765
-0.755
-0.725
-0.695
-0.67
-0.685
-0.69
-0.68
-0.66
-0.63
-0.625
-0.625
-0.62
-0.63
-0.61
-0.62
-0.615
-0.63
-0.655
-0.675
-0.665
-0.68
-0.695
-0.68
-0.71
-0.725
-0.755
-0.785
-0.805
-0.82
-0.835
-0.86
-0.85
-0.855
-0.845
-0.85
-0.855
-0.85
-0.87
-0.87
-0.875
-0.885
-0.895
-0.89
-0.895
-0.915
-0.875
-0.865
-0.875
-0.885
-0.89
-0.93
-0.985
-1.035
-1.135
-1.115
-1.08
-0.99
-0.83
-0.595
-0.36
-0.115
0.095
0.295
0.47
0.61
0.735
0.83
0.885
0.9
0.875
0.835
0.775
0.675
0.52
0.28
-0.05
-0.38
-0.665
-0.805
-0.87
-0.855
-0.785
-0.72
-0.675
-0.675
-0.7
-0.755
-0.81
-0.885
-0.935
-0.955
-0.96
-0.955
-0.935
-0.925
-0.925
-0.94
-0.955
-0.95
-0.96
-0.94
-0.925
-0.94
-0.935
-0.945
-0.935
-0.925
-0.935
-0.94
-0.905
-0.915
-0.915
-0.92
-0.93
-0.93
-0.95
-0.955
-0.96
-0.935
-0.925
-0.935
-0.925
-0.92
-0.905
-0.91
-0.915
-0.94
-0.945
-0.95
-0.955
-0.95
-0.96
-0.94
-0.93
-0.93
-0.945
-0.94
-0.94
-0.95
-0.955
-0.945
-0.935
-0.915
-0.915
-0.9
-0.885
-0.885
-0.87
-0.875
-0.875
-0.885
-0.89
-0.895
-0.88
-0.865
-0.855
-0.84
-0.82
-0.81
-0.805
-0.815
-0.82
-0.835
