Lead II
-0.285
-0.235
-0.2
-0.18
-0.215
-0.22
-0.2
-0.195
-0.18
-0.175
-0.13
-0.115
-0.14
-0.16
-0.13
-0.07
-0.015
-0.01
-0.005
0.035
0.055
0.055
0.0
-0.055
-0.045
-0.015
-0.005
0.035
0.055
0.09
0.1
0.1
0.075
0.055
0.02
-0.02
-0.045
-0.075
-0.09
-0.085
-0.085
-0.12
-0.185
-0.23
-0.245
-0.235
-0.225
-0.26
-0.31
-0.345
-0.35
-0.345
-0.355
-0.345
-0.34
-0.33
-0.34
-0.36
-0.43
-0.455
-0.435
-0.4
-0.35
-0.33
-0.335
-0.36
-0.38
-0.38
-0.34
-0.325
-0.325
-0.36
-0.43
-0.445
-0.44
-0.415
-0.445
-0.485
-0.485
-0.415
-0.355
-0.36
-0.395
-0.405
-0.375
-0.305
-0.26
-0.245
-0.295
-0.345
-0.37
-0.365
-0.345
-0.345
-0.35
-0.335
-0.34
-0.335
-0.345
-0.355
-0.38
-0.405
-0.415
-0.445
-0.48
-0.465
-0.46
-0.44
-0.44
-0.425
-0.425
-0.42
-0.445
-0.465
-0.46
-0.45
-0.44
-0.435
-0.425
-0.425
-0.425
-0.425
-0.405
-0.365
-0.365
-0.39
-0.41
-0.415
-0.4
-0.4
-0.425
-0.435
-0.44
-0.43
-0.435
-0.415
-0.385
-0.375
-0.41
-0.455
-0.49
-0.47
-0.455
-0.455
-0.465
-0.455
-0.41
-0.34
-0.235
-0.07
0.1
0.32
0.525
0.665
0.68
0.625
0.505
0.335
0.185
0.0
-0.32
-0.665
-0.91
-0.995
-0.905
-0.78
-0.69
-0.695
-0.68
-0.635
-0.535
-0.49
-0.47
-0.495
-0.48
-0.43
-0.385
-0.355
-0.35
-0.335
-0.365
-0.38
-0.385
-0.36
-0.34
-0.29
-0.25
-0.23
-0.235
-0.27
-0.32
-0.325
-0.28
-0.24
-0.255
-0.26
-0.27
-0.245
-0.225
-0.205
-0.165
-0.12
-0.07
-0.06
-0.085
-0.125
-0.11
-0.075
-0.02
0.0
0.025
0.075
0.12
0.13
0.08
0.015
0.02
0.06
0.1
0.09
0.08
0.1
0.11
0.11
0.08
0.055
0.035
0.025
0.035
0.06
0.05
0.0
-0.1
-0.185
-0.21
-0.21
-0.205
-0.2
-0.215
-0.245
-0.27
-0.275
-0.265
-0.25
-0.27
-0.32
-0.37
-0.395
-0.365
-0.31
-0.3
-0.33
-0.37
-0.415
-0.44
-0.445
-0.41
-0.385
-0.38
-0.395
-0.405
-0.42
-0.435
-0.45
-0.48
-0.46
-0.44
-0.41
-0.415
-0.4
-0.4
-0.38
-0.345
-0.325
-0.33
-0.355
-0.38
-0.39
-0.39
-0.39
-0.4
-0.405
-0.42
-0.4
-0.36
-0.33
-0.29
-0.29
-0.29
-0.26
-0.24
-0.225
-0.24
-0.275
-0.305
-0.32
-0.33
-0.335
-0.35
-0.375
-0.4
-0.385
-0.37
-0.345
-0.33
-0.305
-0.315
-0.35
-0.45
-0.51
-0.52
-0.505
-0.485
-0.465
-0.43
-0.405
-0.4
-0.42
-0.44
-0.425
-0.395
-0.36
-0.365
-0.405
-0.425
-0.41
-0.395
-0.395
-0.42
-0.43
-0.43
-0.44
-0.415
-0.395
-0.405
-0.415
-0.435
-0.45
-0.45
-0.41
-0.41
-0.425
-0.43
-0.445
-0.435
-0.41
-0.4
-0.37
-0.285
-0.145
0.005
0.155
0.24
0.325
0.45
0.57
0.665
0.665
0.535
0.38
0.195
-0.07
-0.405
-0.735
-0.995
-1.105
-1.075
-0.935
-0.8
-0.68
-0.575
-0.49
-0.43
-0.39
-0.38
-0.39
-0.405
-0.39
-0.375
-0.345
-0.33
-0.34
-0.37
-0.385
-0.345
-0.33
-0.34
-0.35
-0.345
-0.345
-0.33
-0.33
-0.29
-0.25
-0.215
-0.19
-0.15
-0.125
-0.13
-0.14
-0.185
-0.195
-0.175
-0.115
-0.07
-0.07
-0.06
-0.035
-0.03
-0.02
-0.04
-0.035
0.0
0.015
0.025
0.055
0.095
0.135
0.165
0.15
0.11
0.08
0.075
0.09
0.08
0.065
0.065
0.08
0.07
0.03
-0.03
-0.065
-0.08
-0.045
-0.045
-0.055
-0.07
-0.1
-0.12
-0.13
-0.185
-0.215
-0.265
-0.33
-0.36
-0.345
-0.315
-0.285
-0.315
-0.33
-0.34
-0.34
-0.295
-0.28
-0.285
-0.335
-0.335
-0.33
-0.32
-0.34
-0.35
-0.36
-0.32
-0.3
-0.31
-0.35
-0.375
-0.395
-0.405
-0.38
-0.345
-0.285
-0.27
-0.31
-0.37
-0.355
-0.27
-0.21
-0.22
-0.275
-0.315
-0.33
-0.33
-0.33
-0.33
-0.32
-0.3
-0.28
-0.26
-0.255
-0.285
-0.3
-0.31
-0.31
-0.265
-0.275
-0.31
-0.355
-0.4
-0.385
-0.365
-0.35
-0.38
-0.375
-0.39
-0.38
-0.36
-0.355
-0.37
-0.385
-0.405
-0.42
-0.415
-0.395
-0.385
-0.37
-0.38
-0.395
-0.39
-0.375
-0.37
-0.385
-0.38
-0.4
-0.395
-0.37
-0.345
-0.33
-0.33
-0.365
-0.405
-0.405
-0.4
-0.41
-0.435
-0.42
-0.385
-0.355
-0.35
-0.38
-0.4
-0.405
-0.38
-0.35
-0.305
-0.265
-0.175
-0.005
0.185
0.365
0.505
0.57
0.59
0.645
0.64
0.55
0.39
0.135
-0.195
-0.55
-0.815
-0.98
-1.025
-0.975
-0.875
-0.76
-0.675
-0.595
-0.52
-0.48
-0.44
-0.395
-0.345
-0.295
-0.28
-0.325
-0.36
-0.355
-0.305
-0.285
-0.315
-0.35
-0.35
-0.34
-0.33
-0.295
-0.26
-0.265
-0.275
-0.28
-0.265
-0.215
-0.185
-0.19
-0.215
-0.21
-0.175
-0.11
-0.065
-0.07
-0.07
-0.11
-0.1
-0.07
-0.075
-0.1
-0.115
-0.07
0.005
0.05
0.05
0.035
0.03
0.075
0.08
0.1
0.075
0.065
0.09
0.12
0.145
0.16
0.155
0.115
0.085
0.095
0.12
0.125
0.095
0.005
-0.075
-0.115
-0.11
-0.095
-0.11
-0.155
-0.175
-0.17
-0.14
-0.13
-0.17
-0.22
-0.265
-0.275
-0.255
-0.235
-0.28
-0.305
-0.315
-0.31
-0.28
-0.275
-0.305
-0.355
-0.4
-0.37
-0.33
-0.315
-0.32
-0.36
-0.385
-0.415
-0.42
-0.395
-0.365
-0.31
-0.325
-0.36
-0.39
-0.415
-0.41
-0.4
-0.4
-0.375
-0.36
-0.305
-0.3
-0.29
-0.3
-0.305
-0.335
-0.31
-0.265
-0.21
-0.19
-0.24
-0.295
-0.305
-0.3
-0.315
-0.33
-0.325
-0.325
-0.325
-0.355
-0.375
-0.375
-0.36
-0.325
-0.305
-0.32
-0.34
-0.375
-0.395
-0.375
-0.32
-0.29
-0.31
-0.35
-0.37
-0.37
-0.365
-0.375
-0.405
-0.455
-0.455
-0.425
-0.395
-0.355
-0.355
-0.345
-0.325
-0.34
-0.37
-0.41
-0.4
-0.375
-0.36
-0.35
-0.35
-0.38
-0.405
-0.41
-0.38
-0.335
-0.325
-0.355
-0.375
-0.415
-0.42
-0.35
-0.21
0.0
0.185
0.345
0.51
0.645
0.725
0.74
0.615
0.405
0.12
-0.19
-0.535
-0.845
-1.035
-1.05
-0.925
-0.78
-0.665
-0.58
-0.515
-0.455
-0.41
-0.365
-0.35
-0.335
-0.315
-0.295
-0.28
-0.31
-0.34
-0.34
-0.33
-0.305
-0.245
-0.21
-0.2
-0.245
-0.315
-0.355
-0.315
-0.265
-0.25
-0.245
-0.23
-0.215
-0.175
-0.125
-0.08
-0.03
0.0
0.0
-0.005
0.0
0.015
0.01
0.01
-0.01
-0.015
-0.04
-0.005
0.045
0.065
0.095
0.12
0.135
0.16
0.15
0.115
0.11
0.08
0.06
0.06
0.07
0.06
0.035
0.02
0.015
0.0
-0.015
-0.05
-0.09
-0.1
-0.105
-0.145
-0.2
-0.285
-0.34
-0.315
-0.27
-0.245
-0.285
-0.34
-0.38
-0.36
-0.315
-0.295
-0.325
-0.34
-0.355
-0.36
-0.365
-0.375
-0.37
-0.365
-0.365
-0.38
-0.365
-0.36
-0.355
-0.39
-0.37
-0.345
-0.31
-0.32
-0.32
-0.35
-0.345
-0.34
-0.335
-0.34
-0.34
-0.32
-0.295
-0.27
-0.275
-0.265
-0.245
-0.235
-0.235
-0.255
-0.285
-0.295
-0.32
-0.34
-0.355
-0.37
-0.355
-0.34
-0.34
-0.36
-0.385
-0.41
-0.4
-0.385
-0.375
-0.375
-0.36
-0.345
-0.335
-0.345
-0.385
-0.44
-0.455
-0.43
-0.4
-0.39
-0.385
-0.355
-0.365
-0.38
-0.39
-0.39
-0.385
-0.41
-0.415
-0.4
-0.395
-0.38
-0.375
-0.37
-0.375
-0.39
-0.37
-0.36
-0.35
-0.365
-0.365
-0.355
-0.345
-0.32
-0.285
-0.205
-0.075
0.125
0.305
0.44
0.56
0.63
0.655
0.615
0.485
0.32
0.09
-0.225
-0.58
-0.865
-1.03
-1.0
-0.865
-0.76
-0.69
-0.61
-0.53
-0.455
-0.42
-0.42
-0.415
-0.385
-0.355
-0.32
-0.31
-0.33
-0.325
-0.275
-0.24
-0.2
-0.185
-0.225
-0.3
-0.33
-0.345
-0.33
-0.305
-0.29
-0.265
-0.235
-0.22
-0.195
-0.16
-0.155
-0.14
-0.11
-0.06
-0.035
-0.04
-0.065
-0.075
-0.06
-0.04
0.025
0.075
0.095
0.065
0.07
0.09
0.135
0.13
0.1
0.09
0.085
0.08
0.075
0.085
0.105
0.12
0.135
0.115
0.06
0.01
-0.04
-0.065
-0.065
-0.06
-0.075
-0.065
-0.075
-0.11
-0.16
-0.18
-0.19
-0.225
-0.25
-0.295
-0.285
-0.275
-0.28
-0.305
-0.335
-0.35
-0.355
-0.345
-0.345
-0.335
-0.37
-0.39
-0.395
-0.365
-0.345
-0.345
-0.365
-0.385
-0.4
-0.395
-0.365
-0.34
-0.33
-0.355
-0.39
-0.42
-0.415
-0.395
-0.365
-0.35
-0.315
-0.315
-0.32
-0.33
-0.305
-0.285
-0.295
-0.335
-0.32
-0.275
-0.23
-0.25
-0.3
-0.35
-0.355
-0.345
-0.355
-0.365
-0.375
-0.36
-0.31
-0.27
-0.255
-0.29
-0.355
-0.425
-0.465
-0.485
-0.49
-0.455
-0.42
-0.405
-0.395
-0.395
-0.405
-0.39
-0.365
-0.33
-0.315
-0.32
-0.355
-0.415
-0.46
-0.45
-0.42
-0.425
-0.445
-0.45
-0.445
-0.41
-0.385
-0.385
-0.395
-0.405
-0.39
-0.355
-0.34
-0.345
-0.375
-0.415
-0.43
-0.375
-0.26
-0.11
0.035
0.18
0.37
0.56
0.685
0.685
0.595
0.405
0.22
0.025
-0.31
-0.67
-0.955
-1.08
-1.04
-0.905
-0.765
-0.655
-0.605
-0.56
-0.51
-0.46
-0.415
-0.4
-0.365
-0.34
-0.32
-0.33
-0.3
-0.31
-0.335
-0.355
-0.395
-0.41
-0.375
-0.335
-0.31
-0.29
-0.27
-0.235
-0.215
-0.22
-0.25
-0.245
-0.235
-0.22
-0.19
-0.16
-0.125
-0.1
-0.085
-0.06
-0.06
-0.05
-0.04
-0.04
-0.035
-0.005
0.005
0.015
0.03
0.06
0.1
0.135
0.14
0.11
0.055
0.01
0.035
0.07
0.095
0.1
0.055
0.035
0.015
-0.005
0.0
-0.035
-0.06
-0.105
-0.12
-0.125
-0.12
-0.125
-0.165
-0.19
-0.205
-0.26
-0.31
-0.31
-0.32
-0.315
-0.32
-0.32
-0.315
-0.33
-0.355
-0.37
-0.36
-0.335
-0.335
-0.345
-0.365
-0.365
-0.375
-0.375
-0.37
-0.36
-0.38
-0.39
-0.395
-0.37
-0.34
-0.34
-0.345
-0.345
-0.33
-0.32
-0.305
-0.3
-0.33
-0.33
-0.315
-0.275
-0.235
-0.24
-0.245
-0.26
-0.26
-0.25
-0.27
-0.29
-0.275
-0.26
-0.295
-0.3
-0.315
-0.335
-0.345
-0.36
-0.35
-0.325
-0.295
-0.305
-0.335
-0.38
-0.405
-0.385
-0.37
-0.38
-0.405
-0.405
-0.4
-0.365
-0.375
-0.375
-0.39
-0.405
-0.39
-0.365
-0.33
-0.33
-0.34
-0.36
-0.385
-0.37
-0.365
-0.365
-0.39
-0.38
-0.355
-0.32
-0.335
-0.35
-0.37
-0.38
-0.36
-0.365
-0.375
-0.41
-0.42
-0.41
-0.38
-0.32
-0.235
-0.1
0.05
0.215
0.395
0.585
0.695
0.73
0.65
0.45
0.255
0.04
-0.26
-0.615
-0.91
-1.055
-1.02
-0.875
-0.735
-0.685
-0.66
-0.605
-0.515
-0.425
-0.375
-0.36
-0.365
-0.35
-0.32
-0.295
-0.305
-0.335
-0.335
-0.315
-0.275
-0.225
-0.225
-0.23
-0.26
-0.285
-0.285
-0.235
-0.205
-0.2
-0.225
-0.21
-0.155
-0.135
-0.13
-0.12
-0.11
-0.1
-0.085
-0.07
-0.075
-0.07
-0.045
-0.01
0.04
0.11
0.125
0.105
0.07
0.06
0.06
0.1
0.105
0.1
0.08
0.075
0.085
0.115
0.135
0.135
0.14
0.11
0.115
0.12
0.135
0.115
0.07
0.035
-0.005
-0.01
-0.035
-0.05
-0.085
-0.12
-0.16
-0.17
-0.155
-0.155
-0.165
-0.18
-0.215
-0.255
-0.295
-0.32
-0.305
-0.295
-0.295
-0.295
-0.285
-0.28
-0.29
-0.295
-0.285
-0.29
-0.305
-0.335
-0.34
-0.315
-0.305
-0.32
-0.33
-0.33
-0.335
-0.32
-0.305
-0.295
-0.285
-0.285
-0.3
-0.31
-0.305
-0.295
-0.3
-0.295
-0.3
-0.3
-0.3
-0.28
-0.255
-0.24
-0.25
-0.245
-0.22
-0.195
-0.195
-0.2
-0.235
-0.26
-0.265
-0.27
-0.25
-0.25
-0.255
-0.26
-0.275
-0.265
-0.275
-0.315
-0.365
-0.39
-0.39
-0.355
-0.34
-0.345
-0.355
-0.345
-0.335
-0.32
-0.3
-0.33
-0.345
-0.37
-0.355
-0.335
-0.29
-0.285
-0.305
-0.325
-0.335
-0.34
-0.33
-0.345
-0.345
-0.365
-0.365
-0.355
-0.34
-0.355
-0.365
-0.385
-0.355
-0.335
-0.34
-0.365
-0.365
-0.335
-0.24
-0.11
0.05
0.19
0.325
0.48
0.605
0.685
0.635
0.47
0.265
-0.015
-0.38
-0.725
-0.955
-1.025
-0.965
-0.86
-0.765
-0.675
-0.575
-0.475
-0.425
-0.41
-0.37
-0.355
-0.335
-0.335
-0.33
-0.32
-0.305
-0.285
-0.275
-0.275
-0.29
-0.305
-0.295
-0.275
-0.25
-0.245
-0.25
-0.24
-0.215
-0.195
-0.165
-0.16
-0.175
-0.17
-0.155
-0.125
-0.095
-0.09
-0.085
-0.065
-0.045
-0.01
0.025
0.04
0.035
0.02
0.02
0.055
0.08
0.095
0.085
0.105
0.12
0.14
0.13
0.125
0.12
0.135
0.16
0.16
0.105
0.045
0.015
0.005
0.025
0.035
0.01
-0.025
-0.06
-0.09
-0.1
-0.105
-0.11
-0.155
-0.195
-0.23
-0.23
-0.22
-0.21
-0.23
-0.265
-0.295
-0.3
-0.295
-0.28
-0.275
-0.295
-0.33
-0.34
-0.315
-0.25
-0.245
-0.29
-0.35
-0.37
-0.35
-0.315
-0.31
-0.31
-0.32
-0.32
-0.31
-0.32
-0.325
-0.325
-0.325
-0.305
-0.29
-0.275
-0.255
-0.29
-0.265
-0.265
-0.255
-0.25
-0.225
-0.235
-0.235
-0.21
-0.205
-0.205
-0.23
-0.25
-0.25
-0.255
-0.265
-0.285
-0.305
-0.33
-0.32
-0.3
-0.28
-0.29
-0.295
-0.32
-0.325
-0.32
-0.3
-0.295
-0.31
-0.335
-0.345
-0.35
-0.33
-0.325
-0.325
-0.33
-0.335
-0.32
-0.31
-0.32
-0.345
-0.375
-0.365
-0.355
-0.34
-0.335
-0.345
-0.36
-0.355
-0.335
-0.325
-0.32
-0.32
-0.32
-0.34
-0.33
-0.315
-0.31
-0.32
-0.35
-0.37
-0.365
-0.34
-0.275
-0.18
-0.07
0.05
0.17
0.34
0.495
0.595
0.65
0.66
0.575
0.44
0.25
-0.045
-0.4
-0.71
-0.92
-0.98
-0.89
-0.77
-0.675
-0.59
-0.475
-0.385
-0.365
-0.335
-0.345
-0.31
-0.285
-0.27
-0.26
-0.26
-0.28
-0.29
-0.28
-0.24
-0.225
-0.215
-0.21
-0.235
-0.25
-0.235
-0.235
-0.215
-0.205
-0.205
-0.175
-0.145
-0.12
-0.1
-0.095
-0.095
-0.09
-0.065
-0.05
-0.03
-0.02
-0.015
0.005
0.04
0.06
0.09
0.095
0.12
0.13
0.155
0.135
0.11
0.07
0.08
0.1
0.125
0.135
0.145
0.14
0.13
0.13
0.15
0.15
0.12
0.1
0.07
0.04
0.04
0.02
-0.01
-0.035
-0.06
-0.065
-0.075
-0.12
-0.15
-0.165
-0.19
-0.19
-0.215
-0.205
-0.22
-0.215
-0.26
-0.29
-0.32
-0.315
-0.31
-0.315
-0.33
-0.325
-0.31
-0.295
-0.295
-0.31
-0.32
-0.325
-0.315
-0.285
-0.3
-0.315
-0.34
-0.35
-0.315
-0.29
-0.3
-0.3
-0.32
-0.315
-0.3
-0.285
-0.28
-0.305
-0.32
-0.295
-0.25
-0.22
-0.22
-0.225
-0.225
-0.21
-0.2
-0.21
-0.22
-0.245
-0.265
-0.275
-0.275
-0.27
-0.27
-0.285
-0.285
-0.3
-0.29
-0.275
-0.285
-0.29
-0.295
-0.295
-0.295
-0.32
-0.335
-0.345
-0.35
-0.325
-0.33
-0.33
-0.33
-0.345
-0.345
-0.31
-0.295
-0.27
-0.28
-0.3
-0.315
-0.315
-0.305
-0.32
-0.34
-0.385
-0.385
-0.365
-0.335
-0.305
-0.32
-0.345
-0.355
-0.345
-0.31
-0.305
-0.305
-0.32
-0.34
-0.315
-0.27
-0.18
-0.075
0.045
0.19
0.345
0.51
0.65
0.715
0.7
0.625
0.49
0.335
0.11
-0.24
-0.59
-0.835
-0.945
-0.92
-0.815
-0.72
-0.66
-0.6
-0.515
-0.42
-0.355
-0.33
-0.335
-0.345
-0.33
-0.295
-0.265
-0.275
-0.265
-0.27
-0.27
-0.25
-0.255
-0.255
-0.25
-0.225
-0.195
-0.195
-0.2
-0.21
-0.215
-0.195
-0.15
-0.125
-0.11
-0.12
-0.125
-0.105
-0.085
-0.06
-0.035
-0.02
0.0
0.01
0.05
0.075
0.075
0.085
0.09
0.105
0.125
0.135
0.15
0.15
0.145
0.145
0.17
0.185
0.19
0.165
0.135
0.11
0.15
0.16
0.13
0.07
0.035
0.02
0.03
0.06
0.045
0.015
-0.035
-0.08
-0.095
-0.105
-0.12
-0.145
-0.195
-0.245
-0.26
-0.25
-0.22
-0.205
-0.225
-0.245
-0.26
-0.28
-0.295
-0.32
-0.345
-0.35
-0.31
-0.28
-0.27
-0.295
-0.34
-0.35
-0.335
-0.32
-0.315
-0.31
-0.335
-0.32
-0.33
-0.305
-0.28
-0.27
-0.28
-0.295
-0.31
-0.31
-0.3
-0.295
-0.29
-0.295
-0.27
-0.24
-0.215
-0.24
-0.25
-0.27
-0.265
-0.255
-0.24
-0.26
-0.27
-0.275
-0.255
-0.255
-0.285
-0.315
-0.335
-0.34
-0.28
-0.245
-0.23
-0.29
-0.34
-0.355
-0.34
-0.34
-0.335
-0.345
-0.355
-0.33
-0.32
-0.3
-0.315
-0.375
-0.4
-0.4
-0.375
-0.35
-0.35
-0.34
-0.345
-0.355
-0.35
-0.345
-0.32
-0.335
-0.335
-0.34
-0.315
-0.3
-0.315
-0.37
-0.405
-0.415
-0.37
-0.335
-0.345
-0.355
-0.375
-0.39
-0.345
-0.265
-0.145
-0.005
0.14
0.29
0.445
0.615
0.725
0.745
0.68
0.545
0.35
0.205
0.0
-0.305
-0.63
-0.86
-0.98
-0.975
-0.865
-0.775
-0.71
-0.615
-0.505
-0.435
-0.38
-0.365
-0.37
-0.375
-0.345
-0.315
-0.3
-0.285
-0.295
-0.295
-0.3
-0.31
-0.31
-0.315
-0.305
-0.29
-0.26
-0.215
-0.185
-0.185
-0.225
-0.24
-0.23
-0.2
-0.18
-0.175
-0.18
-0.185
-0.15
-0.09
-0.05
-0.055
-0.08
-0.125
-0.105
-0.06
-0.02
-0.02
-0.025
-0.01
0.035
0.075
0.08
0.075
0.055
0.05
0.04
0.07
0.095
0.105
0.095
0.085
0.08
0.105
0.12
0.135
0.11
0.09
0.07
0.05
0.055
0.04
0.01
0.02
0.005
-0.005
-0.04
-0.085
-0.16
-0.195
-0.195
-0.185
-0.175
-0.19
-0.2
-0.23
-0.235
-0.225
-0.22
-0.23
-0.26
-0.285
-0.31
-0.295
-0.275
-0.27
-0.295
-0.315
-0.33
-0.355
-0.345
-0.35
-0.35
-0.37
-0.38
-0.36
-0.345
-0.34
-0.365
-0.39
-0.4
-0.375
-0.34
-0.335
-0.37
-0.39
-0.37
-0.335
-0.295
-0.29
-0.31
-0.33
-0.33
-0.295
-0.28
-0.265
-0.265
-0.255
-0.26
-0.235
-0.21
-0.21
-0.225
-0.235
-0.24
-0.265
-0.285
-0.3
-0.32
-0.33
-0.335
-0.345
-0.35
-0.355
-0.35
-0.345
-0.32
-0.315
-0.34
-0.355
-0.37
-0.395
-0.4
-0.385
-0.375
-0.365
-0.365
-0.36
-0.355
-0.34
-0.34
-0.355
-0.37
-0.36
-0.365
-0.335
-0.31
-0.335
-0.37
-0.42
-0.435
-0.405
-0.355
-0.34
-0.345
-0.35
-0.335
-0.345
-0.34
-0.375
-0.38
-0.38
-0.37
-0.37
-0.36
-0.375
-0.39
-0.39
-0.395
-0.38
-0.36
-0.315
-0.23
-0.1
0.05
0.195
0.295
0.435
0.585
0.68
0.71
0.62
0.43
0.275
0.095
-0.185
-0.535
-0.83
-1.01
-1.025
-0.945
-0.815
-0.725
-0.655
-0.61
-0.555
-0.495
-0.455
-0.4
-0.35
-0.335
-0.36
-0.4
-0.4
-0.385
-0.325
-0.29
-0.285
-0.305
-0.31
-0.3
-0.275
-0.27
-0.285
-0.305
-0.315
-0.28
-0.26
-0.235
-0.225
-0.225
-0.22
-0.215
-0.18
-0.15
-0.125
-0.14
-0.135
-0.12
-0.075
-0.035
-0.025
-0.06
-0.08
-0.06
-0.035
-0.01
-0.005
-0.015
-0.025
-0.01
0.03
0.05
0.055
0.055
0.08
0.11
0.115
0.13
0.105
0.105
0.105
0.12
0.145
0.155
0.14
0.12
0.075
0.06
0.045
0.05
0.025
0.015
0.0
-0.015
-0.03
-0.08
-0.15
-0.19
-0.22
-0.205
-0.19
-0.175
-0.18
-0.215
-0.235
-0.27
-0.295
-0.315
-0.3
-0.295
-0.3
-0.3
-0.29
-0.285
-0.305
-0.315
-0.325
-0.31
-0.305
-0.325
-0.345
-0.34
-0.335
-0.305
-0.29
-0.285
-0.305
-0.325
-0.335
-0.335
-0.33
-0.34
-0.355
-0.355
-0.34
-0.315
-0.305
-0.315
-0.31
-0.31
-0.3
-0.27
-0.25
-0.225
-0.22
-0.24
-0.25
-0.255
-0.235
-0.225
-0.215
-0.205
-0.215
-0.225
-0.225
-0.22
-0.245
-0.28
-0.27
-0.28
-0.27
-0.265
-0.295
-0.325
-0.345
-0.325
-0.31
-0.29
-0.29
-0.305
-0.315
-0.27
-0.25
-0.26
-0.315
-0.375
-0.435
-0.435
-0.43
-0.39
-0.375
-0.365
-0.39
-0.375
-0.355
-0.325
-0.335
-0.335
-0.37
-0.34
-0.325
-0.3
-0.305
-0.34
-0.37
-0.38
-0.38
-0.365
-0.375
-0.37
-0.36
-0.37
-0.355
-0.335
-0.33
-0.335
-0.345
-0.355
-0.335
-0.31
-0.33
-0.36
-0.365
-0.355
-0.34
-0.3
-0.26
-0.2
-0.085
0.045
0.175
0.275
0.37
0.48
0.55
0.63
0.675
0.63
0.46
0.29
0.11
-0.145
-0.41
-0.65
-0.85
-0.975
-0.98
-0.875
-0.765
-0.705
-0.67
-0.615
-0.545
-0.46
-0.39
-0.335
-0.28
-0.25
-0.25
-0.275
-0.32
-0.365
-0.365
-0.35
-0.325
-0.305
-0.3
-0.3
-0.29
-0.285
-0.275
-0.26
-0.255
-0.23
-0.23
-0.245
-0.245
-0.215
-0.185
-0.155
-0.14
-0.17
-0.17
-0.18
-0.165
-0.13
-0.085
-0.07
-0.065
-0.055
-0.06
-0.055
-0.055
-0.055
-0.045
-0.03
-0.01
0.025
0.045
0.02
0.035
0.04
0.07
0.1
0.1
0.095
0.09
0.11
0.135
0.17
0.165
0.17
0.18
0.2
0.2
0.14
0.075
0.04
0.03
0.055
0.055
0.045
0.02
-0.025
-0.03
-0.05
-0.045
-0.05
-0.095
-0.115
-0.14
-0.145
-0.14
-0.145
-0.19
-0.22
-0.245
-0.26
-0.26
-0.245
-0.265
-0.295
-0.32
-0.335
-0.3
-0.265
-0.275
-0.28
-0.275
-0.265
-0.26
-0.265
-0.285
-0.32
-0.335
-0.335
-0.325
-0.3
-0.32
-0.355
-0.355
-0.355
-0.315
-0.295
-0.28
-0.295
-0.295
-0.29
-0.26
-0.265
-0.245
-0.245
-0.26
-0.275
-0.26
-0.245
-0.23
-0.21
-0.215
-0.2
-0.21
-0.2
-0.185
-0.17
-0.17
-0.185
-0.185
-0.215
-0.23
-0.245
-0.255
-0.245
-0.235
-0.24
-0.23
-0.225
-0.235
-0.23
-0.225
-0.26
-0.295
-0.315
-0.325
-0.295
-0.3
-0.315
-0.32
-0.33
-0.33
-0.295
-0.28
-0.275
-0.285
-0.315
-0.35
-0.34
-0.325
-0.295
-0.285
-0.285
-0.305
-0.32
-0.325
-0.29
-0.285
-0.32
-0.345
-0.355
-0.32
-0.3
-0.31
-0.34
-0.35
-0.35
-0.345
-0.325
-0.35
-0.36
-0.37
-0.33
-0.28
-0.165
-0.065
0.05
0.155
0.305
0.465
0.58
0.635
0.61
0.495
0.37
0.26
0.08
-0.23
-0.565
-0.835
-0.99
-0.975
-0.85
-0.735
-0.64
-0.575
-0.475
-0.385
-0.345
-0.32
-0.33
-0.335
-0.335
-0.315
-0.305
-0.31
-0.325
-0.325
-0.305
-0.28
-0.265
-0.265
-0.25
-0.255
-0.225
-0.195
-0.19
-0.19
-0.205
-0.2
-0.18
-0.15
-0.125
-0.115
-0.115
-0.1
-0.06
-0.045
-0.015
-0.015
0.0
0.0
0.04
0.08
0.11
0.12
0.09
0.07
0.075
0.1
0.12
0.125
0.105
0.11
0.12
0.14
0.16
0.155
0.15
0.15
0.14
0.14
0.135
0.12
0.095
0.08
0.075
0.065
0.055
0.02
-0.01
-0.045
-0.06
-0.065
-0.08
-0.115
-0.155
-0.195
-0.215
-0.21
-0.215
-0.225
-0.245
-0.26
-0.265
-0.25
-0.24
-0.24
-0.26
-0.285
-0.28
-0.275
-0.25
-0.255
-0.255
-0.275
-0.28
-0.31
-0.325
-0.315
-0.315
-0.31
-0.3
-0.31
-0.305
-0.325
-0.325
-0.31
-0.29
-0.26
-0.24
-0.26
-0.27
-0.27
-0.27
-0.24
-0.22
-0.21
-0.215
-0.215
-0.205
-0.185
-0.18
-0.18
-0.2
-0.225
-0.245
-0.235
-0.22
-0.24
-0.265
-0.3
-0.295
-0.285
-0.265
-0.26
-0.265
-0.255
-0.265
-0.27
-0.28
-0.305
-0.33
-0.33
-0.335
-0.31
-0.285
-0.295
-0.3
-0.31
-0.315
-0.315
-0.315
-0.305
-0.32
-0.325
-0.315
-0.295
-0.28
-0.285
-0.285
-0.3
-0.32
-0.315
-0.305
-0.305
-0.305
-0.285
-0.25
-0.245
-0.265
-0.315
-0.33
-0.32
-0.295
-0.295
-0.305
-0.32
-0.305
-0.225
-0.07
0.105
0.27
0.385
0.52
0.645
0.745
0.795
0.735
0.535
0.345
0.155
-0.115
-0.41
-0.685
-0.895
-0.95
-0.875
-0.755
-0.66
-0.58
-0.505
-0.44
-0.415
-0.365
-0.33
-0.3
-0.295
-0.28
-0.28
-0.265
-0.23
-0.225
-0.235
-0.225
-0.23
-0.225
-0.2
-0.19
-0.18
-0.175
-0.185
-0.185
-0.17
-0.145
-0.145
-0.16
-0.17
-0.135
-0.1
-0.065
-0.055
-0.06
-0.065
-0.045
0.0
0.03
0.04
0.06
0.06
0.08
0.115
0.135
0.145
0.14
0.16
0.165
0.17
0.175
0.155
0.15
0.15
0.165
0.18
0.2
0.195
0.175
0.165
0.145
0.115
0.09
0.075
0.035
0.01
-0.005
-0.03
-0.045
-0.05
-0.075
-0.11
-0.135
-0.165
-0.185
-0.195
-0.215
-0.225
-0.235
-0.235
-0.235
-0.24
-0.28
-0.295
-0.285
-0.255
-0.245
-0.25
-0.265
-0.275
-0.28
-0.265
-0.26
-0.3
-0.305
-0.31
-0.305
-0.275
-0.255
-0.255
-0.265
-0.29
-0.26
-0.235
-0.24
-0.24
-0.25
-0.255
-0.24
-0.21
-0.2
-0.2
-0.21
-0.2
-0.19
-0.185
-0.195
-0.22
-0.245
-0.25
-0.24
-0.23
-0.23
-0.25
-0.26
-0.26
-0.255
-0.255
-0.275
-0.3
-0.325
-0.325
-0.31
-0.3
-0.295
-0.29
-0.31
-0.32
-0.325
-0.305
-0.285
-0.295
-0.305
-0.31
-0.3
-0.305
-0.315
-0.31
-0.315
-0.315
-0.305
-0.295
-0.27
-0.285
-0.305
-0.305
-0.3
-0.28
-0.27
-0.295
-0.31
-0.315
-0.295
-0.275
-0.255
-0.23
-0.17
-0.03
0.145
0.355
0.57
0.71
0.76
0.68
0.485
0.29
0.09
-0.225
-0.575
-0.855
-0.985
-0.92
-0.78
-0.65
-0.575
-0.53
-0.47
-0.415
-0.36
-0.33
-0.305
-0.29
-0.265
-0.255
-0.245
-0.245
-0.26
-0.25
-0.235
-0.21
-0.2
-0.195
-0.21
-0.205
-0.19
-0.165
-0.145
-0.135
-0.14
-0.13
-0.12
-0.095
-0.08
-0.075
-0.065
-0.04
-0.01
0.01
0.045
0.07
0.08
0.08
0.11
0.125
0.125
0.14
0.125
0.13
0.155
0.185
0.18
0.165
0.155
0.165
0.18
0.19
0.19
0.18
0.14
0.1
0.075
0.065
0.055
0.02
-0.005
-0.04
-0.055
-0.07
-0.085
-0.105
-0.155
-0.195
-0.195
-0.185
-0.205
-0.235
-0.265
-0.275
-0.275
-0.255
-0.255
-0.265
-0.285
-0.3
-0.295
-0.275
-0.265
-0.285
-0.305
-0.315
-0.28
-0.26
-0.245
-0.25
-0.275
-0.3
-0.3
-0.28
-0.255
-0.265
-0.27
-0.25
-0.235
-0.215
-0.205
-0.225
-0.235
-0.235
-0.2
-0.165
-0.155
-0.145
-0.15
-0.155
-0.155
-0.17
-0.2
-0.24
-0.26
-0.265
-0.255
-0.25
-0.245
-0.245
-0.25
-0.25
-0.25
-0.25
-0.265
-0.3
-0.315
-0.315
-0.31
-0.3
-0.275
-0.29
-0.31
-0.31
-0.305
-0.295
-0.265
-0.275
-0.29
-0.31
-0.305
-0.285
-0.26
-0.27
-0.28
-0.3
-0.29
-0.255
-0.25
-0.265
-0.295
-0.315
-0.305
-0.28
-0.265
-0.265
-0.275
-0.28
-0.29
-0.285
-0.27
-0.25
-0.215
-0.13
0.03
0.21
0.375
0.535
0.67
0.745
0.77
0.69
0.5
0.295
0.055
-0.22
-0.545
-0.79
-0.925
-0.94
-0.84
-0.73
-0.625
-0.52
-0.43
-0.365
-0.335
-0.31
-0.285
-0.27
-0.265
-0.28
-0.295
-0.3
-0.275
-0.25
-0.225
-0.205
-0.21
-0.205
-0.195
-0.165
-0.14
-0.145
-0.165
-0.18
-0.16
-0.125
-0.095
-0.07
-0.075
-0.06
-0.045
-0.005
0.02
0.035
0.03
0.035
0.06
0.075
0.095
0.11
0.11
0.115
0.13
0.17
0.185
0.185
0.18
0.18
0.21
0.22
0.215
0.205
0.195
0.18
0.175
0.175
0.175
0.145
0.12
0.09
0.075
0.065
0.05
0.005
-0.045
-0.08
-0.105
-0.11
-0.13
-0.15
-0.165
-0.185
-0.195
-0.2
-0.195
-0.215
-0.24
-0.245
-0.24
-0.22
-0.22
-0.235
-0.24
-0.245
-0.23
-0.225
-0.215
-0.23
-0.255
-0.255
-0.24
-0.235
-0.23
-0.25
-0.26
-0.245
-0.22
-0.195
-0.18
-0.185
-0.2
-0.21
-0.205
-0.18
-0.155
-0.155
-0.16
-0.155
-0.155
-0.145
-0.135
-0.16
-0.175
-0.18
-0.21
-0.21
-0.225
-0.24
-0.26
-0.26
-0.245
-0.225
-0.21
-0.225
-0.25
-0.28
-0.275
-0.27
-0.275
-0.275
-0.29
-0.3
-0.305
-0.295
-0.28
-0.265
-0.28
-0.28
-0.27
-0.24
-0.255
-0.26
-0.275
-0.3
-0.29
-0.27
-0.25
-0.27
-0.295
-0.3
-0.275
-0.27
-0.25
-0.275
-0.27
-0.28
-0.28
-0.27
-0.295
-0.285
-0.275
-0.21
-0.085
0.05
0.205
0.37
0.51
0.635
0.695
0.65
0.5
0.32
0.12
-0.185
-0.515
-0.79
-0.915
-0.89
-0.77
-0.66
-0.575
-0.485
-0.395
-0.335
-0.31
-0.31
-0.285
-0.265
-0.235
-0.245
-0.23
-0.235
-0.215
-0.19
-0.17
-0.18
-0.2
-0.205
-0.2
-0.17
-0.155
-0.15
-0.145
-0.13
-0.095
-0.07
-0.055
-0.06
-0.05
-0.045
-0.035
0.005
0.025
0.03
0.045
0.075
0.09
0.11
0.14
0.135
0.135
0.14
0.165
0.195
0.2
0.21
0.205
0.2
0.225
0.235
0.245
0.225
0.22
0.215
0.225
0.235
0.235
0.21
0.16
0.125
0.105
0.095
0.08
0.075
0.03
-0.005
-0.035
-0.04
-0.06
-0.07
-0.12
-0.145
-0.165
-0.175
-0.155
-0.17
-0.19
-0.195
-0.2
-0.185
-0.18
-0.19
-0.215
-0.23
-0.24
-0.23
-0.205
-0.215
-0.22
-0.235
-0.24
-0.245
-0.225
-0.23
-0.23
-0.24
-0.225
-0.21
-0.21
-0.215
-0.215
-0.22
-0.22
-0.205
-0.185
-0.18
-0.18
-0.185
-0.15
-0.135
-0.12
-0.12
-0.135
-0.135
-0.145
-0.135
-0.16
-0.18
-0.205
-0.225
-0.215
-0.2
-0.21
-0.2
-0.21
-0.215
-0.205
-0.22
-0.225
-0.255
-0.275
-0.285
-0.26
-0.255
-0.245
-0.255
-0.27
-0.275
-0.26
-0.245
-0.255
-0.27
-0.275
-0.28
-0.27
-0.265
-0.275
-0.265
-0.275
