Lead II
-0.805
-0.835
-0.855
-0.87
-0.885
-0.92
-0.93
-0.95
-0.96
-0.965
-0.96
-0.96
-0.985
-0.985
-0.98
-0.99
-1.005
-1.02
-1.025
-1.025
-1.04
-1.015
-1.025
-1.005
-0.995
-1.005
-1.015
-1.02
-1.02
-1.02
-1.03
-1.055
-1.045
-1.035
-1.01
-1.005
-0.99
-0.99
-0.995
-0.995
-1.02
-1.03
-1.03
-1.04
-1.035
-1.025
-1.04
-1.025
-1.01
-1.005
-1.015
-1.02
-1.025
-1.025
-1.035
-1.04
-1.045
-1.02
-1.025
-1.025
-1.01
-1.025
-1.03
-1.045
-1.04
-1.065
-1.065
-1.07
-1.07
-1.07
-1.07
-1.06
-1.05
-1.045
-1.05
-1.05
-1.065
-1.06
-1.075
-1.085
-1.085
-1.09
-1.075
-1.075
-1.07
-1.05
-1.06
-1.05
-1.075
-1.075
-1.08
-1.085
-1.095
-1.105
-1.095
-1.095
-1.095
-1.095
-1.1
-1.085
-1.085
-1.1
-1.11
-1.12
-1.11
-1.115
-1.095
-1.085
-1.08
-1.07
-1.07
-1.07
-1.07
-1.085
-1.095
-1.11
-1.12
-1.105
-1.11
-1.095
-1.095
-1.07
-1.095
-1.11
-1.11
-1.115
-1.125
-1.12
-1.145
-1.14
-1.12
-1.115
-1.11
-1.09
-1.11
-1.095
-1.11
-1.115
-1.13
-1.13
-1.125
-1.125
-1.125
-1.115
-1.11
-1.11
-1.105
-1.1
-1.12
-1.125
-1.125
-1.125
-1.13
-1.125
-1.095
-1.115
-1.105
-1.105
-1.095
-1.105
-1.125
-1.135
-1.16
-1.155
-1.155
-1.14
-1.105
-1.105
-1.11
-1.095
-1.1
-1.105
-1.115
-1.115
-1.12
-1.13
-1.13
-1.14
-1.125
-1.13
-1.125
-1.095
-1.09
-1.105
-1.12
-1.125
-1.125
-1.13
-1.155
-1.14
-1.125
-1.125
-1.115
-1.105
-1.09
-1.095
-1.1
-1.115
-1.115
-1.125
-1.135
-1.13
-1.115
-1.11
-1.105
-1.1
-1.105
-1.1
-1.105
-1.1
-1.095
-1.095
-1.085
-1.07
-1.05
-1.045
-1.03
-1.025
-1.02
-1.005
-1.01
-1.0
-0.975
-0.975
-0.985
-0.975
-0.97
-0.965
-0.97
-0.975
-0.99
-0.995
-1.005
-1.01
-1.025
-1.055
-1.08
-1.1
-1.09
-1.095
-1.095
-1.095
-1.105
-1.125
-1.115
-1.12
-1.125
-1.13
-1.14
-1.155
-1.15
-1.14
-1.135
-1.13
-1.125
-1.125
-1.135
-1.15
-1.155
-1.145
-1.165
-1.155
-1.145
-1.14
-1.12
-1.115
-1.12
-1.12
-1.115
-1.115
-1.125
-1.105
-1.06
-0.985
-0.875
-0.755
-0.6
-0.445
-0.34
-0.28
-0.295
-0.375
-0.545
-0.76
-1.025
-1.265
-1.49
-1.65
-1.705
-1.66
-1.56
-1.475
-1.37
-1.32
-1.265
-1.225
-1.2
-1.165
-1.13
-1.105
-1.09
-1.055
-1.065
-1.07
-1.085
-1.085
-1.105
-1.09
-1.09
-1.095
-1.08
-1.07
-1.055
-1.045
-1.05
-1.035
-1.045
-1.05
-1.065
-1.055
-1.06
-1.055
-1.04
-1.02
-1.025
-1.02
-0.995
-1.01
-1.02
-1.01
-1.025
-1.04
-1.02
-1.01
-1.0
-0.985
-0.99
-0.955
-0.96
-0.965
-0.96
-0.98
-0.965
-0.975
-0.965
-0.98
-0.955
-0.945
-0.93
-0.93
-0.91
-0.91
-0.915
-0.915
-0.92
-0.92
-0.91
-0.9
-0.89
-0.87
-0.845
-0.83
-0.825
-0.82
-0.805
-0.795
-0.785
-0.78
-0.775
-0.76
-0.735
-0.715
-0.7
-0.66
-0.66
-0.645
-0.635
-0.635
-0.645
-0.625
-0.605
-0.6
-0.585
-0.57
-0.58
-0.545
-0.535
-0.54
-0.54
-0.54
-0.535
-0.555
-0.555
-0.575
-0.55
-0.53
-0.53
-0.535
-0.54
-0.555
-0.585
-0.62
-0.64
-0.675
-0.7
-0.7
-0.72
-0.725
-0.75
-0.77
-0.795
-0.83
-0.86
-0.895
-0.92
-0.945
-0.97
-0.965
-0.985
-0.995
-1.005
-0.99
-0.99
-1.005
-1.02
-1.02
-1.05
-1.06
-1.055
-1.07
-1.07
-1.07
-1.07
-1.06
-1.055
-1.045
-1.055
-1.08
-1.07
-1.095
-1.09
-1.085
-1.085
-1.08
-1.065
-1.045
-1.05
-1.055
-1.065
-1.07
-1.075
-1.07
-1.06
-1.075
-1.065
-1.065
-1.05
-1.035
-1.03
-1.04
-1.035
-1.05
-1.08
-1.07
-1.07
-1.07
-1.05
-1.05
-1.04
-1.015
-1.025
-1.025
-1.04
-1.055
-1.08
-1.065
-1.08
-1.08
-1.07
-1.08
-1.06
-1.04
-1.06
-1.065
-1.065
-1.075
-1.085
-1.095
-1.09
-1.1
-1.08
-1.095
-1.08
-1.08
-1.08
-1.07
-1.08
-1.085
-1.1
-1.1
-1.125
-1.12
-1.11
-1.105
-1.09
-1.08
-1.085
-1.095
-1.1
-1.11
-1.105
-1.115
-1.13
-1.13
-1.12
-1.11
-1.1
-1.085
-1.09
-1.095
-1.095
-1.105
-1.11
-1.105
-1.11
-1.13
-1.11
-1.11
-1.1
-1.11
-1.09
-1.1
-1.105
-1.11
-1.11
-1.105
-1.12
-1.135
-1.13
-1.125
-1.115
-1.1
-1.1
-1.1
-1.105
-1.11
-1.125
-1.135
-1.14
-1.13
-1.11
-1.105
-1.09
-1.085
-1.1
-1.09
-1.105
-1.105
-1.115
-1.12
-1.125
-1.13
-1.115
-1.11
-1.105
-1.09
-1.085
-1.105
-1.12
-1.115
-1.13
-1.12
-1.115
-1.135
-1.125
-1.115
-1.095
-1.085
-1.085
-1.09
-1.09
-1.105
-1.105
-1.11
-1.115
-1.11
-1.11
-1.1
-1.105
-1.095
-1.09
-1.085
-1.08
-1.095
-1.1
-1.105
-1.105
-1.105
-1.09
-1.085
-1.08
-1.07
-1.065
-1.085
-1.085
-1.095
-1.095
-1.11
-1.11
-1.105
-1.095
-1.09
-1.085
-1.075
-1.08
-1.095
-1.085
-1.09
-1.1
-1.125
-1.115
-1.125
-1.12
-1.095
-1.08
-1.085
-1.09
-1.09
-1.09
-1.085
-1.09
-1.08
-1.085
-1.085
-1.07
-1.06
-1.045
-1.02
-1.025
-1.01
-1.02
-1.035
-1.015
-1.015
-1.03
-1.005
-0.985
-0.955
-0.935
-0.915
-0.885
-0.905
-0.91
-0.94
-0.955
-0.98
-0.99
-0.985
-0.995
-1.005
-1.01
-0.985
-1.01
-1.025
-1.05
-1.08
-1.095
-1.095
-1.095
-1.11
-1.105
-1.1
-1.1
-1.08
-1.095
-1.095
-1.105
-1.1
-1.12
-1.145
-1.135
-1.135
-1.12
-1.115
-1.1
-1.085
-1.095
-1.1
-1.085
-1.11
-1.095
-1.095
-1.1
-1.105
-1.1
-1.095
-1.065
-1.01
-0.94
-0.86
-0.76
-0.635
-0.49
-0.355
-0.235
-0.16
-0.15
-0.23
-0.385
-0.605
-0.855
-1.11
-1.35
-1.54
-1.6
-1.58
-1.485
-1.395
-1.295
-1.22
-1.165
-1.13
-1.08
-1.065
-1.07
-1.065
-1.075
-1.085
-1.09
-1.1
-1.095
-1.07
-1.06
-1.05
-1.04
-1.055
-1.055
-1.05
-1.05
-1.065
-1.065
-1.085
-1.045
-1.045
-1.035
-1.015
-1.015
-1.01
-1.005
-1.01
-1.015
-1.01
-1.015
-1.02
-1.0
-1.005
-1.0
-0.97
-0.965
-0.965
-0.975
-0.985
-0.99
-0.98
-0.99
-0.98
-0.975
-0.96
-0.945
-0.935
-0.92
-0.93
-0.935
-0.92
-0.925
-0.93
-0.925
-0.92
-0.905
-0.895
-0.88
-0.855
-0.85
-0.845
-0.855
-0.845
-0.84
-0.83
-0.83
-0.825
-0.8
-0.785
-0.765
-0.74
-0.725
-0.715
-0.7
-0.7
-0.685
-0.68
-0.665
-0.665
-0.645
-0.615
-0.61
-0.575
-0.57
-0.56
-0.545
-0.555
-0.56
-0.555
-0.56
-0.555
-0.535
-0.53
-0.515
-0.49
-0.49
-0.505
-0.515
-0.525
-0.54
-0.575
-0.605
-0.615
-0.62
-0.64
-0.67
-0.675
-0.7
-0.725
-0.76
-0.795
-0.82
-0.855
-0.88
-0.9
-0.92
-0.935
-0.96
-0.94
-0.975
-0.965
-0.98
-1.0
-1.02
-1.03
-1.05
-1.055
-1.055
-1.045
-1.06
-1.035
-1.055
-1.055
-1.05
-1.065
-1.065
-1.07
-1.075
-1.085
-1.07
-1.06
-1.045
-1.055
-1.06
-1.06
-1.055
-1.06
-1.065
-1.065
-1.065
-1.07
-1.07
-1.055
-1.045
-1.045
-1.04
-1.03
-1.045
-1.045
-1.045
-1.06
-1.06
-1.07
-1.065
-1.045
-1.04
-1.025
-1.045
-1.04
-1.055
-1.065
-1.07
-1.065
-1.07
-1.07
-1.065
-1.06
-1.045
-1.055
-1.06
-1.06
-1.06
-1.065
-1.085
-1.09
-1.095
-1.1
-1.095
-1.09
-1.085
-1.065
-1.075
-1.07
-1.075
-1.09
-1.09
-1.105
-1.105
-1.105
-1.115
-1.1
-1.08
-1.08
-1.075
-1.085
-1.08
-1.095
-1.12
-1.115
-1.115
-1.125
-1.11
-1.11
-1.09
-1.08
-1.085
-1.085
-1.1
-1.095
-1.105
-1.125
-1.11
-1.105
-1.105
-1.105
-1.11
-1.09
-1.105
-1.105
-1.11
-1.105
-1.11
-1.13
-1.13
-1.115
-1.11
-1.09
-1.09
-1.07
-1.1
-1.085
-1.105
-1.095
-1.115
-1.11
-1.115
-1.12
-1.105
-1.08
-1.095
-1.08
-1.08
-1.075
-1.08
-1.085
-1.095
-1.12
-1.11
-1.115
-1.105
-1.105
-1.105
-1.11
-1.08
-1.07
-1.095
-1.09
-1.11
-1.1
-1.11
-1.125
-1.11
-1.095
-1.08
-1.06
-1.065
-1.065
-1.065
-1.085
-1.09
-1.09
-1.105
-1.08
-1.085
-1.085
-1.07
-1.05
-1.05
-1.05
-1.055
-1.09
-1.095
-1.095
-1.09
-1.1
-1.105
-1.09
-1.09
-1.075
-1.07
-1.06
-1.045
-1.06
-1.065
-1.085
-1.075
-1.085
-1.075
-1.065
-1.05
-1.05
-1.075
-1.065
-1.08
-1.075
-1.065
-1.08
-1.09
-1.085
-1.08
-1.07
-1.06
-1.04
-1.04
-1.05
-1.055
-1.045
-1.07
-1.075
-1.055
-1.05
-1.06
-1.025
-0.99
-0.99
-0.985
-0.985
-0.97
-0.98
-0.975
-0.97
-0.95
-0.955
-0.915
-0.905
-0.89
-0.875
-0.895
-0.905
-0.915
-0.92
-0.94
-0.93
-0.94
-0.945
-0.955
-0.965
-0.98
-0.99
-0.995
-1.005
-1.03
-1.045
-1.055
-1.055
-1.07
-1.07
-1.075
-1.065
-1.055
-1.05
-1.06
-1.05
-1.055
-1.07
-1.08
-1.095
-1.095
-1.09
-1.08
-1.065
-1.07
-1.05
-1.05
-1.06
-1.05
-1.075
-1.075
-1.065
-1.075
-1.06
-1.035
-0.98
-0.895
-0.815
-0.7
-0.615
-0.49
-0.4
-0.35
-0.35
-0.425
-0.545
-0.73
-0.94
-1.145
-1.36
-1.55
-1.68
-1.75
-1.755
-1.675
-1.575
-1.485
-1.39
-1.345
-1.305
-1.24
-1.175
-1.12
-1.07
-1.04
-1.025
-1.015
-1.03
-1.035
-1.04
-1.02
-1.015
-1.0
-0.995
-0.985
-0.975
-0.99
-1.0
-0.99
-1.005
-0.995
-1.0
-0.995
-0.965
-0.96
-0.95
-0.945
-0.955
-0.95
-0.96
-0.965
-0.96
-0.975
-0.97
-0.945
-0.94
-0.925
-0.91
-0.905
-0.91
-0.9
-0.905
-0.915
-0.93
-0.935
-0.91
-0.91
-0.895
-0.87
-0.865
-0.86
-0.85
-0.855
-0.85
-0.85
-0.835
-0.845
-0.83
-0.815
-0.795
-0.79
-0.78
-0.775
-0.75
-0.735
-0.725
-0.725
-0.735
-0.72
-0.71
-0.68
-0.67
-0.645
-0.61
-0.59
-0.585
-0.57
-0.55
-0.56
-0.54
-0.56
-0.53
-0.515
-0.48
-0.465
-0.435
-0.43
-0.42
-0.415
-0.415
-0.415
-0.41
-0.43
-0.425
-0.42
-0.43
-0.44
-0.43
-0.425
-0.45
-0.465
-0.505
-0.545
-0.58
-0.605
-0.625
-0.64
-0.645
-0.66
-0.685
-0.715
-0.73
-0.77
-0.805
-0.835
-0.845
-0.875
-0.895
-0.905
-0.91
-0.91
-0.915
-0.92
-0.92
-0.945
-0.965
-0.96
-0.98
-0.985
-0.99
-0.995
-0.985
-0.98
-0.97
-0.985
-0.975
-0.97
-0.995
-1.015
-1.015
-1.025
-1.035
-1.01
-1.005
-0.985
-0.98
-0.99
-1.0
-0.995
-1.0
-1.02
-1.0
-1.01
-1.01
-1.015
-1.0
-0.99
-0.985
-0.975
-0.97
-0.975
-0.985
-1.0
-1.005
-1.015
-1.015
-0.995
-0.99
-0.98
-0.98
-0.985
-0.985
-0.99
-0.99
-1.005
-1.015
-1.01
-1.02
-1.005
-0.995
-1.01
-1.0
-1.0
-0.995
-1.005
-1.04
-1.035
-1.025
-1.04
-1.035
-1.045
-1.045
-1.03
-1.02
-1.015
-1.03
-1.015
-1.03
-1.045
-1.045
-1.06
-1.065
-1.045
-1.045
-1.04
-1.02
-1.03
-1.04
-1.045
-1.055
-1.055
-1.06
-1.065
-1.065
-1.06
-1.06
-1.045
-1.04
-1.035
-1.05
-1.05
-1.065
-1.07
-1.09
-1.09
-1.075
-1.07
-1.065
-1.085
-1.045
-1.05
-1.04
-1.055
-1.065
-1.075
-1.09
-1.08
-1.08
-1.085
-1.095
-1.08
-1.055
-1.06
-1.045
-1.075
-1.075
-1.065
-1.075
-1.095
-1.085
-1.08
-1.08
-1.075
-1.07
-1.04
-1.065
-1.07
-1.075
-1.09
-1.095
-1.09
-1.085
-1.09
-1.085
-1.065
-1.07
-1.065
-1.065
-1.09
-1.09
-1.07
-1.07
-1.08
-1.095
-1.095
-1.08
-1.07
-1.055
-1.06
-1.06
-1.06
-1.055
-1.08
-1.075
-1.095
-1.1
-1.08
-1.085
-1.06
-1.05
-1.05
-1.055
-1.065
-1.07
-1.085
-1.1
-1.09
-1.09
-1.08
-1.065
-1.06
-1.065
-1.06
-1.07
-1.05
-1.08
-1.065
-1.065
-1.08
-1.07
-1.07
-1.065
-1.055
-1.045
-1.035
-1.045
-1.045
-1.065
-1.07
-1.085
-1.09
-1.095
-1.1
-1.06
-1.05
-1.05
-1.035
-1.04
-1.055
-1.07
-1.06
-1.075
-1.075
-1.08
-1.07
-1.06
-1.055
-1.01
-0.995
-0.995
-1.005
-1.005
-1.0
-1.0
-0.995
-0.98
-0.96
-0.935
-0.935
-0.91
-0.875
-0.89
-0.895
-0.9
-0.925
-0.935
-0.955
-0.96
-0.96
-0.965
-0.965
-0.97
-0.985
-0.995
-1.02
-1.025
-1.05
-1.065
-1.075
-1.08
-1.08
-1.085
-1.09
-1.06
-1.065
-1.065
-1.075
-1.09
-1.11
-1.11
-1.11
-1.115
-1.115
-1.09
-1.09
-1.09
-1.085
-1.09
-1.085
-1.105
-1.105
-1.125
-1.105
-1.115
-1.11
-1.1
-1.075
-1.05
-1.0
-0.925
-0.835
-0.71
-0.585
-0.47
-0.32
-0.175
-0.095
-0.07
-0.145
-0.31
-0.52
-0.79
-1.085
-1.355
-1.545
-1.65
-1.645
-1.56
-1.445
-1.33
-1.25
-1.205
-1.165
-1.125
-1.095
-1.08
-1.065
-1.05
-1.055
-1.055
-1.04
-1.05
-1.04
-1.045
-1.04
-1.04
-1.03
-1.045
-1.045
-1.025
-1.04
-1.045
-1.035
-1.015
-1.01
-1.02
-1.0
-0.99
-1.0
-0.995
-1.0
-0.995
-1.015
-1.015
-1.005
-0.995
-0.975
-0.965
-0.965
-0.965
-0.975
-0.955
-0.97
-0.975
-0.975
-0.96
-0.97
-0.945
-0.945
-0.93
-0.93
-0.915
-0.91
-0.91
-0.91
-0.92
-0.92
-0.91
-0.88
-0.88
-0.855
-0.845
-0.83
-0.84
-0.845
-0.835
-0.835
-0.825
-0.805
-0.795
-0.775
-0.77
-0.745
-0.72
-0.685
-0.685
-0.68
-0.685
-0.67
-0.655
-0.645
-0.635
-0.62
-0.605
-0.585
-0.57
-0.555
-0.565
-0.53
-0.535
-0.535
-0.54
-0.55
-0.54
-0.53
-0.515
-0.515
-0.495
-0.505
-0.515
-0.525
-0.515
-0.555
-0.585
-0.61
-0.63
-0.65
-0.67
-0.68
-0.695
-0.72
-0.76
-0.775
-0.81
-0.86
-0.89
-0.91
-0.945
-0.95
-0.965
-0.98
-0.975
-1.0
-1.01
-1.025
-1.035
-1.055
-1.065
-1.075
-1.07
-1.08
-1.07
-1.07
-1.065
-1.06
-1.065
-1.065
-1.07
-1.065
-1.085
-1.09
-1.1
-1.1
-1.07
-1.065
-1.05
-1.055
-1.065
-1.065
-1.075
-1.085
-1.105
-1.09
-1.095
-1.09
-1.08
-1.06
-1.045
-1.065
-1.065
-1.055
-1.07
-1.08
-1.07
-1.075
-1.075
-1.075
-1.07
-1.065
-1.07
-1.05
-1.07
-1.065
-1.07
-1.075
-1.085
-1.09
-1.1
-1.08
-1.09
-1.08
-1.085
-1.065
-1.075
-1.075
-1.1
-1.1
-1.12
-1.125
-1.115
-1.11
-1.095
-1.115
-1.085
-1.08
-1.085
-1.1
-1.105
-1.125
-1.13
-1.13
-1.125
-1.125
-1.115
-1.11
-1.115
-1.115
-1.105
-1.1
-1.11
-1.125
-1.125
-1.145
-1.145
-1.145
-1.13
-1.13
-1.115
-1.12
-1.11
-1.115
-1.135
-1.135
-1.135
-1.135
-1.14
-1.125
-1.14
-1.13
-1.115
-1.11
-1.12
-1.14
-1.13
-1.135
-1.135
-1.135
-1.14
-1.125
-1.12
-1.12
-1.105
-1.105
-1.1
-1.115
-1.115
-1.135
-1.135
-1.14
-1.135
-1.125
-1.125
-1.11
-1.1
-1.09
-1.1
-1.105
-1.12
-1.13
-1.16
-1.15
-1.135
-1.135
-1.12
-1.115
-1.115
-1.105
-1.12
-1.115
-1.12
-1.13
-1.14
-1.135
-1.145
-1.13
-1.13
-1.125
-1.105
-1.105
-1.105
-1.115
-1.13
-1.135
-1.135
-1.14
-1.145
-1.135
-1.12
-1.13
-1.115
-1.105
-1.11
-1.095
-1.11
-1.125
-1.14
-1.145
-1.14
-1.14
-1.13
-1.115
-1.105
-1.1
-1.095
-1.105
-1.12
-1.135
-1.14
-1.135
-1.135
-1.13
-1.115
-1.105
-1.095
-1.095
-1.095
-1.095
-1.105
-1.115
-1.125
-1.12
-1.125
-1.11
-1.11
-1.1
-1.09
-1.095
-1.09
-1.105
-1.105
-1.125
-1.14
-1.13
-1.13
-1.12
-1.1
-1.1
-1.085
-1.045
-1.04
-1.045
-1.055
-1.055
-1.065
-1.065
-1.065
-1.025
-1.0
-0.995
-0.98
-0.955
-0.95
-0.94
-0.95
-0.975
-0.995
-0.995
-1.01
-1.015
-1.01
-1.005
-0.995
-1.01
-1.03
-1.055
-1.055
-1.075
-1.09
-1.115
-1.105
-1.11
-1.12
-1.105
-1.095
-1.095
-1.1
-1.1
-1.115
-1.135
-1.14
-1.15
-1.16
-1.15
-1.145
-1.145
-1.12
-1.115
-1.105
-1.11
-1.13
-1.135
-1.13
-1.14
-1.145
-1.14
-1.12
-1.105
-1.075
-1.045
-0.99
-0.91
-0.805
-0.68
-0.545
-0.445
-0.385
-0.405
-0.485
-0.68
-0.91
-1.175
-1.41
-1.6
-1.715
-1.705
-1.62
-1.52
-1.415
-1.335
-1.265
-1.21
-1.165
-1.125
-1.1
-1.085
-1.09
-1.1
-1.11
-1.125
-1.12
-1.105
-1.095
-1.07
-1.05
-1.045
-1.04
-1.035
-1.06
-1.045
-1.07
-1.065
-1.07
-1.055
-1.04
-1.04
-1.02
-1.01
-1.035
-1.03
-1.035
-1.02
-1.025
-1.035
-1.025
-1.025
-1.02
-1.015
-1.005
-0.985
-0.98
-0.99
-0.99
-1.0
-1.0
-1.01
-1.0
-0.99
-0.98
-0.96
-0.95
-0.95
-0.955
-0.955
-0.93
-0.93
-0.945
-0.95
-0.93
-0.935
-0.905
-0.89
-0.87
-0.855
-0.855
-0.84
-0.825
-0.83
-0.82
-0.815
-0.81
-0.8
-0.78
-0.745
-0.715
-0.695
-0.69
-0.68
-0.67
-0.65
-0.635
-0.635
-0.625
-0.63
-0.585
-0.56
-0.54
-0.535
-0.52
-0.49
-0.51
-0.505
-0.515
-0.51
-0.495
-0.495
-0.495
-0.48
-0.475
-0.5
-0.495
-0.51
-0.53
-0.555
-0.585
-0.62
-0.645
-0.66
-0.68
-0.695
-0.725
-0.745
-0.78
-0.81
-0.845
-0.87
-0.9
-0.92
-0.95
-0.96
-0.97
-0.975
-0.995
-0.995
-0.99
-1.005
-1.045
-1.055
-1.07
-1.06
-1.05
-1.065
-1.05
-1.045
-1.04
-1.035
-1.05
-1.03
-1.045
-1.045
-1.07
-1.075
-1.085
-1.09
-1.085
-1.09
-1.065
-1.055
-1.065
-1.055
-1.055
-1.055
-1.06
-1.08
-1.085
-1.08
-1.06
-1.065
-1.065
-1.045
-1.035
-1.04
-1.06
-1.055
-1.055
-1.06
-1.06
-1.055
-1.055
-1.05
-1.035
-1.04
-1.03
-1.03
-1.05
-1.06
-1.075
-1.09
-1.095
-1.085
-1.1
-1.075
-1.075
-1.09
-1.095
-1.085
-1.09
-1.085
-1.115
-1.12
-1.125
-1.12
-1.11
-1.115
-1.1
-1.085
-1.085
-1.105
-1.105
-1.115
-1.13
-1.14
-1.125
-1.12
-1.12
-1.1
-1.105
-1.09
-1.095
-1.1
-1.11
-1.12
-1.13
-1.14
-1.14
-1.135
-1.125
-1.11
-1.11
-1.095
-1.095
-1.1
-1.115
-1.13
-1.125
-1.13
-1.14
-1.14
-1.14
-1.105
-1.105
-1.115
-1.12
-1.12
-1.115
-1.115
-1.125
-1.12
-1.12
-1.11
-1.12
-1.115
-1.1
-1.1
-1.1
-1.1
-1.11
-1.135
-1.13
-1.145
-1.15
-1.14
-1.13
-1.135
-1.105
-1.11
-1.105
-1.115
-1.1
-1.12
-1.13
-1.14
-1.155
-1.12
-1.115
-1.13
-1.11
-1.105
-1.1
-1.095
-1.11
-1.115
-1.13
-1.125
-1.13
-1.135
-1.12
-1.125
-1.11
-1.11
-1.095
-1.095
-1.12
-1.125
-1.12
-1.12
-1.13
-1.125
-1.115
-1.11
-1.105
-1.085
-1.09
-1.075
-1.09
-1.11
-1.12
-1.125
-1.1
-1.11
-1.1
-1.095
-1.09
-1.08
-1.085
-1.08
-1.105
-1.12
-1.125
-1.13
-1.115
-1.125
-1.11
-1.1
-1.095
-1.095
-1.085
-1.105
-1.11
-1.105
-1.12
-1.105
-1.12
-1.1
-1.08
-1.055
-1.04
-1.045
-1.035
-1.03
-1.015
-1.025
-1.035
-1.045
-1.025
-1.02
-1.0
-0.97
-0.935
-0.925
-0.935
-0.935
-0.97
-0.995
-0.995
-1.015
-1.02
-1.025
-1.025
-1.02
-1.025
-1.03
-1.05
-1.05
-1.065
-1.06
-1.085
-1.11
-1.115
-1.11
-1.105
-1.09
-1.1
-1.095
-1.085
-1.105
-1.11
-1.12
-1.16
-1.155
-1.155
-1.15
-1.145
-1.135
-1.11
-1.115
-1.115
-1.105
-1.11
-1.115
-1.12
-1.115
-1.11
-1.11
-1.105
-1.09
-1.06
-1.02
-0.95
-0.87
-0.775
-0.67
-0.555
-0.43
-0.31
-0.235
-0.195
-0.265
-0.38
-0.535
-0.755
-0.985
-1.24
-1.46
-1.595
-1.645
-1.585
-1.505
-1.39
-1.305
-1.225
-1.175
-1.145
-1.12
-1.075
-1.075
-1.07
-1.06
-1.08
-1.08
-1.08
-1.08
-1.055
-1.05
-1.035
-1.03
-1.03
-1.045
-1.04
-1.07
-1.05
-1.04
-1.035
-1.03
-1.01
-1.01
-1.03
-1.005
-1.02
-1.025
-1.035
-1.03
-1.025
-1.02
-1.01
-1.0
-0.985
-0.975
-0.975
-0.96
-0.975
-0.965
-0.97
-0.975
-0.97
-0.98
-0.96
-0.96
-0.95
-0.945
-0.93
-0.925
-0.925
-0.945
-0.94
-0.935
-0.94
-0.925
-0.9
-0.88
-0.88
-0.865
-0.88
-0.88
-0.855
-0.845
-0.86
-0.845
-0.84
-0.83
-0.805
-0.79
-0.76
-0.74
-0.725
-0.71
-0.715
-0.705
-0.705
-0.71
-0.69
-0.67
-0.655
-0.61
-0.605
-0.575
-0.56
-0.565
-0.56
-0.545
-0.545
-0.545
-0.535
-0.53
-0.52
-0.525
-0.485
-0.48
-0.495
-0.51
-0.53
-0.525
-0.535
-0.55
-0.58
-0.595
-0.615
-0.625
-0.64
-0.665
-0.705
-0.715
-0.755
-0.765
-0.79
-0.835
-0.87
-0.87
-0.88
-0.88
-0.895
-0.905
-0.915
-0.94
-0.965
-0.975
-0.99
-1.0
-1.005
-1.005
-1.01
-1.01
-1.005
-0.995
-1.0
-0.995
-1.01
-1.03
-1.03
-1.035
-1.045
-1.04
-1.03
-1.02
-1.01
-1.01
-1.01
-1.015
-1.02
-1.025
-1.03
-1.025
-1.045
-1.025
-1.025
-1.005
-1.015
-0.995
-0.99
-1.0
-1.01
-1.01
-1.01
-1.015
-1.025
-1.015
-1.02
-0.995
-0.99
-0.98
-0.965
-0.995
-0.995
-1.015
-1.015
-1.035
-1.025
-1.035
-1.035
-1.02
-1.02
-1.005
-1.0
-1.01
-1.035
-1.05
-1.06
-1.06
-1.075
-1.065
-1.045
-1.04
-1.055
-1.045
-1.05
-1.055
-1.05
-1.065
-1.07
-1.08
-1.085
-1.085
-1.07
-1.075
-1.075
-1.06
-1.065
-1.045
-1.06
-1.08
-1.075
-1.075
-1.08
-1.07
-1.075
-1.075
-1.07
-1.05
-1.045
-1.05
-1.05
-1.07
-1.075
-1.065
-1.085
-1.085
-1.07
-1.065
-1.055
-1.065
-1.065
-1.08
-1.075
-1.07
-1.085
-1.09
-1.1
-1.08
-1.07
-1.08
-1.065
-1.055
-1.06
-1.065
-1.07
-1.07
-1.08
-1.09
-1.1
-1.09
-1.07
-1.06
-1.07
-1.05
-1.05
-1.06
-1.065
-1.07
-1.08
-1.08
-1.095
-1.095
-1.105
-1.105
-1.09
-1.055
-1.07
-1.08
-1.085
-1.09
-1.11
-1.105
-1.095
-1.08
-1.075
-1.06
-1.07
-1.05
-1.065
-1.045
-1.07
-1.085
-1.1
-1.11
-1.095
-1.115
-1.08
-1.08
-1.065
-1.055
-1.055
-1.06
-1.06
-1.07
-1.09
-1.085
-1.095
-1.075
-1.06
-1.05
-1.06
-1.03
-1.05
-1.04
-1.045
-1.045
-1.055
-1.05
-1.07
-1.085
-1.065
-1.065
-1.055
-1.055
-1.04
-1.04
-1.035
-1.05
-1.06
-1.055
-1.05
-1.06
-1.065
-1.05
-1.06
-1.04
-1.04
-1.035
-1.025
-1.045
-1.045
-1.06
-1.065
-1.07
-1.035
-1.01
-0.985
-0.975
-0.975
-0.985
-0.975
-0.98
-0.975
-0.945
-0.935
-0.935
-0.9
-0.895
-0.885
-0.88
-0.885
-0.905
-0.92
-0.94
-0.945
-0.935
-0.96
-0.96
-0.97
-0.97
-0.985
-0.985
-1.015
-1.015
-1.04
-1.035
-1.06
-1.06
-1.065
-1.08
-1.065
-1.085
-1.075
-1.07
-1.06
-1.07
-1.065
-1.085
-1.1
-1.105
-1.085
-1.09
-1.09
-1.08
-1.06
-1.065
-1.055
-1.05
-1.055
-1.06
-1.06
-1.07
-1.08
-1.08
-1.055
-0.985
-0.93
-0.835
-0.74
-0.62
-0.51
-0.405
-0.325
-0.27
-0.29
-0.345
-0.47
-0.65
-0.845
-1.03
-1.245
-1.41
-1.525
-1.545
-1.52
-1.44
-1.365
-1.28
-1.23
-1.18
-1.135
-1.085
-1.065
-1.045
-1.025
-1.005
-1.005
-1.025
-1.05
-1.035
-1.03
-1.015
-1.0
-0.99
-1.0
-0.985
-1.0
-0.985
-1.0
-1.005
-1.0
-1.005
-1.0
-0.985
-0.975
-0.935
-0.945
-0.935
-0.94
-0.935
-0.94
-0.945
-0.96
-0.97
-0.955
-0.94
-0.935
-0.92
-0.915
-0.91
-0.925
-0.915
-0.925
-0.915
-0.92
-0.905
-0.9
-0.895
-0.875
-0.86
-0.845
-0.84
-0.84
-0.845
-0.85
-0.84
-0.845
-0.84
-0.84
-0.82
-0.8
-0.78
-0.785
-0.76
-0.77
-0.775
-0.76
-0.765
-0.745
-0.73
-0.705
-0.685
-0.68
-0.66
-0.63
-0.62
-0.6
-0.585
-0.585
-0.575
-0.57
-0.545
-0.53
-0.535
-0.52
-0.49
-0.495
-0.485
-0.475
-0.47
-0.46
-0.455
-0.46
-0.45
-0.435
-0.425
-0.405
-0.41
-0.41
-0.43
-0.455
-0.48
-0.505
-0.53
-0.56
-0.58
-0.6
-0.62
-0.64
-0.65
-0.675
-0.72
-0.75
-0.77
-0.8
-0.825
-0.85
-0.87
-0.875
-0.885
-0.895
-0.89
-0.905
-0.905
-0.925
-0.925
-0.935
-0.94
-0.96
-0.955
-0.945
-0.94
-0.94
-0.93
-0.94
-0.95
-0.96
-0.955
-0.955
-0.97
-0.975
-0.985
-0.975
-0.955
-0.95
-0.935
-0.93
-0.94
-0.935
-0.955
-0.955
-0.96
-0.975
-0.96
-0.955
-0.95
-0.93
-0.93
-0.94
-0.945
-0.96
-0.96
-0.96
-0.965
-0.975
-0.96
-0.97
-0.955
-0.95
-0.935
-0.94
-0.955
-0.96
-0.96
-0.975
-0.97
-0.985
-0.99
-0.995
-0.975
-0.965
-0.965
-0.95
-0.95
-0.955
-0.97
-0.99
-0.99
-0.995
-0.995
-0.99
-0.975
-0.97
-0.96
-0.975
-0.985
-0.985
-1.0
-1.02
-0.995
-0.995
-1.01
-1.0
-0.99
-0.97
-0.97
-0.965
-0.97
-0.965
-0.98
-0.99
-1.01
-1.01
-1.01
-0.99
-0.98
-0.985
-0.97
-0.98
-0.98
-0.97
-0.98
-0.98
-0.98
-1.01
-1.015
-0.995
-0.995
-0.985
-0.975
-0.985
-1.0
-0.985
-1.005
-1.015
-1.025
-1.035
-1.025
-1.01
-1.01
-0.975
-0.965
-0.95
-0.965
-0.97
-0.97
-0.98
-0.99
-1.005
-1.02
-1.005
-0.99
-0.975
-0.965
-0.99
-0.985
-0.99
-0.995
-1.0
-1.02
-1.005
-1.005
-0.99
-0.985
-0.985
-0.98
-0.99
-0.98
-0.98
-0.975
-0.985
-1.005
-1.01
-0.995
-0.995
-0.98
-0.96
-0.96
-0.97
-0.975
-0.98
-0.975
-1.015
-1.0
-1.0
-1.0
-1.0
-1.01
-0.975
-0.955
-0.975
-0.97
-0.975
-0.98
-0.99
-0.995
-0.99
-0.99
-0.985
-0.995
-0.985
-0.96
-0.96
-0.98
-0.98
-0.965
-0.99
-0.985
-0.96
-0.965
-0.96
-0.955
-0.94
-0.915
-0.915
-0.905
-0.9
-0.91
-0.91
-0.91
-0.9
-0.905
-0.885
-0.86
-0.85
-0.805
-0.79
-0.795
-0.795
-0.79
-0.82
-0.82
-0.85
-0.865
-0.87
-0.87
-0.865
-0.85
-0.87
-0.89
-0.91
-0.94
-0.955
-0.96
-0.985
-0.99
-0.98
-0.98
-0.97
-0.965
-0.965
-0.965
-0.985
-0.995
-1.015
-1.0
-1.01
-1.01
-1.0
-1.0
-0.985
-0.975
-0.97
-0.965
-1.0
-0.985
-0.975
-0.99
-0.985
-0.995
-0.985
-0.97
-0.96
-0.94
-0.92
-0.875
-0.83
-0.75
-0.655
-0.545
-0.43
-0.315
-0.215
-0.18
-0.2
-0.32
-0.48
-0.7
-0.95
-1.2
-1.395
-1.525
-1.555
-1.505
-1.405
-1.29
-1.215
-1.145
-1.085
-1.04
-1.0
-0.975
-0.945
-0.95
-0.95
-0.945
-0.95
-0.95
-0.935
-0.925
-0.92
-0.915
-0.91
-0.895
-0.915
-0.915
-0.915
-0.915
-0.905
-0.895
-0.88
-0.865
-0.87
-0.86
-0.865
-0.89
-0.875
-0.895
-0.9
-0.905
-0.895
-0.89
-0.88
-0.87
-0.86
-0.855
-0.865
-0.855
-0.88
-0.885
-0.87
-0.845
-0.85
-0.84
-0.82
-0.82
-0.81
-0.81
-0.815
-0.805
-0.805
-0.815
-0.805
-0.795
-0.785
-0.77
-0.755
-0.74
-0.745
-0.725
-0.73
-0.725
-0.73
-0.725
-0.72
-0.71
-0.69
-0.67
-0.665
-0.64
-0.625
-0.615
-0.605
-0.6
-0.605
-0.59
-0.59
-0.57
-0.545
-0.515
-0.5
-0.49
-0.47
-0.465
-0.455
-0.46
-0.445
-0.45
-0.44
-0.43
-0.43
-0.405
-0.405
-0.385
-0.39
-0.395
-0.395
-0.415
-0.42
-0.435
-0.44
-0.455
-0.455
-0.47
-0.49
-0.485
-0.51
-0.545
-0.58
-0.6
-0.625
-0.66
-0.685
-0.7
-0.73
-0.725
-0.735
-0.745
-0.775
-0.795
-0.815
-0.825
-0.84
-0.865
-0.885
-0.895
-0.895
-0.895
-0.89
-0.88
-0.895
-0.89
-0.915
-0.93
-0.935
-0.94
-0.945
-0.95
-0.94
-0.93
-0.935
-0.91
-0.91
-0.925
-0.93
-0.94
-0.95
-0.94
-0.95
-0.955
-0.95
-0.925
-0.925
-0.92
-0.925
-0.93
-0.94
-0.925
-0.93
-0.94
-0.95
-0.95
-0.925
-0.95
-0.925
-0.92
-0.92
-0.91
-0.93
-0.93
-0.945
-0.98
-0.965
-0.955
-0.945
-0.945
-0.94
-0.925
-0.935
-0.93
-0.945
-0.945
-0.96
-0.97
-0.995
-0.995
-0.975
-0.97
-0.965
-0.955
-0.96
-0.955
-0.97
-0.98
-0.995
-0.995
-1.01
-1.015
-1.005
-1.0
-1.005
-0.985
-0.985
-0.99
-1.0
-1.01
-1.015
-1.015
-1.005
-1.01
-1.005
-1.005
-0.995
-0.98
-0.985
-0.98
-1.015
-1.015
-1.01
-1.035
-1.03
-1.02
-1.005
-1.015
-1.0
-1.005
-1.0
-0.995
-1.0
-1.015
-1.005
-1.025
-1.035
-1.035
-1.03
-1.02
-1.005
-0.99
-0.995
-1.005
-1.015
-1.015
-1.02
-1.02
-1.035
-1.02
-1.02
-1.01
-1.005
-1.005
-0.995
-1.0
-1.0
-1.005
-1.01
-1.02
-1.025
-1.04
-1.02
-1.02
-1.015
-0.99
-1.01
-1.005
-1.01
-1.02
-1.015
-1.035
-1.045
-1.035
-1.035
-1.015
-1.02
-1.01
-0.995
-1.0
-1.005
-1.02
-1.03
-1.01
-1.045
-1.045
-1.04
-1.035
-1.02
-1.005
-1.0
-1.0
-1.015
-1.025
-1.025
-1.03
-1.04
-1.025
-1.03
-1.02
-1.0
-1.0
-1.0
-1.005
-0.995
-1.005
-1.005
-1.02
-1.015
-1.025
-1.01
-1.015
-0.995
-0.985
-1.005
-1.0
-0.995
-1.0
-1.015
-1.025
-1.035
-1.04
-1.02
-1.01
-0.99
-0.985
-0.985
-0.99
-1.01
-1.01
-1.015
-1.025
-1.015
-1.015
-1.0
-0.995
-0.98
-0.955
-0.94
-0.945
-0.94
-0.94
-0.94
-0.95
-0.94
-0.965
-0.92
-0.895
-0.865
-0.84
-0.82
-0.81
-0.825
-0.825
-0.845
-0.87
-0.895
-0.89
-0.895
-0.89
-0.885
-0.885
-0.905
-0.92
-0.935
-0.955
-0.965
-0.98
-1.005
-1.02
-1.03
-1.02
-1.005
-1.0
-0.995
-1.01
-1.015
-1.03
-1.025
-1.05
-1.055
-1.04
-1.035
-1.03
-1.03
-1.015
-1.005
-1.015
-1.025
-1.03
-1.045
-1.05
-1.04
-1.04
-1.02
