Lead II
-1.305
-1.285
-1.275
-1.265
-1.255
-1.245
-1.23
-1.225
-1.21
-1.21
-1.21
-1.2
-1.18
-1.165
-1.165
-1.145
-1.13
-1.12
-1.12
-1.085
-1.08
-1.05
-1.035
-1.025
-1.0
-0.965
-0.955
-0.92
-0.895
-0.86
-0.84
-0.815
-0.815
-0.815
-0.795
-0.785
-0.75
-0.735
-0.705
-0.685
-0.665
-0.66
-0.67
-0.685
-0.66
-0.67
-0.695
-0.695
-0.695
-0.7
-0.73
-0.745
-0.76
-0.78
-0.815
-0.865
-0.915
-0.975
-1.005
-1.04
-1.08
-1.11
-1.125
-1.155
-1.16
-1.195
-1.21
-1.225
-1.25
-1.26
-1.275
-1.3
-1.32
-1.315
-1.32
-1.31
-1.31
-1.315
-1.32
-1.35
-1.345
-1.355
-1.35
-1.355
-1.35
-1.34
-1.325
-1.31
-1.29
-1.285
-1.285
-1.3
-1.315
-1.335
-1.335
-1.35
-1.33
-1.32
-1.305
-1.305
-1.29
-1.29
-1.3
-1.315
-1.32
-1.335
-1.335
-1.325
-1.32
-1.31
-1.295
-1.29
-1.295
-1.285
-1.295
-1.31
-1.34
-1.335
-1.33
-1.335
-1.34
-1.335
-1.33
-1.32
-1.305
-1.3
-1.295
-1.29
-1.315
-1.335
-1.345
-1.37
-1.37
-1.365
-1.34
-1.335
-1.325
-1.32
-1.32
-1.33
-1.335
-1.36
-1.35
-1.345
-1.345
-1.33
-1.305
-1.29
-1.285
-1.285
-1.3
-1.315
-1.355
-1.345
-1.355
-1.355
-1.355
-1.34
-1.325
-1.31
-1.29
-1.285
-1.255
-1.245
-1.235
-1.235
-1.23
-1.225
-1.23
-1.21
-1.205
-1.18
-1.195
-1.195
-1.21
-1.2
-1.215
-1.21
-1.185
-1.165
-1.135
-1.125
-1.11
-1.11
-1.11
-1.115
-1.125
-1.14
-1.17
-1.18
-1.18
-1.175
-1.185
-1.19
-1.185
-1.2
-1.22
-1.26
-1.285
-1.31
-1.34
-1.37
-1.365
-1.36
-1.35
-1.325
-1.31
-1.305
-1.29
-1.27
-1.275
-1.265
-1.275
-1.3
-1.3
-1.32
-1.315
-1.31
-1.3
-1.255
-1.165
-1.06
-0.86
-0.56
-0.225
0.18
0.625
1.095
1.57
1.97
2.26
2.395
2.415
2.265
1.95
1.39
0.75
0.11
-0.53
-1.17
-1.7
-1.56
-1.285
-1.04
-0.89
-0.885
-0.945
-1.07
-1.185
-1.27
-1.31
-1.31
-1.295
-1.28
-1.25
-1.24
-1.22
-1.22
-1.22
-1.23
-1.235
-1.245
-1.245
-1.25
-1.245
-1.23
-1.215
-1.21
-1.18
-1.175
-1.18
-1.17
-1.165
-1.16
-1.14
-1.14
-1.135
-1.105
-1.11
-1.105
-1.08
-1.085
-1.11
-1.08
-1.075
-1.07
-1.065
-1.06
-1.06
-1.02
-1.0
-0.985
-0.93
-0.925
-0.9
-0.875
-0.87
-0.865
-0.85
-0.835
-0.805
-0.775
-0.745
-0.72
-0.67
-0.635
-0.61
-0.585
-0.575
-0.555
-0.555
-0.56
-0.53
-0.51
-0.5
-0.47
-0.44
-0.455
-0.46
-0.48
-0.495
-0.525
-0.545
-0.59
-0.64
-0.66
-0.69
-0.685
-0.715
-0.75
-0.795
-0.835
-0.89
-0.94
-0.995
-1.04
-1.06
-1.085
-1.1
-1.1
-1.11
-1.12
-1.135
-1.155
-1.185
-1.205
-1.225
-1.21
-1.21
-1.2
-1.19
-1.195
-1.175
-1.17
-1.175
-1.16
-1.17
-1.185
-1.2
-1.205
-1.195
-1.185
-1.175
-1.16
-1.14
-1.155
-1.175
-1.185
-1.185
-1.175
-1.165
-1.175
-1.185
-1.185
-1.175
-1.175
-1.17
-1.18
-1.175
-1.18
-1.175
-1.18
-1.185
-1.19
-1.185
-1.185
-1.17
-1.185
-1.18
-1.19
-1.195
-1.205
-1.22
-1.22
-1.205
-1.215
-1.21
-1.2
-1.195
-1.19
-1.18
-1.2
-1.205
-1.22
-1.22
-1.235
-1.265
-1.28
-1.3
-1.295
-1.275
-1.265
-1.245
-1.25
-1.25
-1.245
-1.265
-1.255
-1.25
-1.24
-1.255
-1.245
-1.235
-1.25
-1.245
-1.235
-1.245
-1.25
-1.24
-1.255
-1.23
-1.22
-1.21
-1.175
-1.155
-1.14
-1.14
-1.12
-1.12
-1.125
-1.125
-1.125
-1.125
-1.115
-1.135
-1.11
-1.08
-1.09
-1.06
-1.055
-1.025
-1.03
-1.05
-1.075
-1.1
-1.11
-1.13
-1.155
-1.145
-1.155
-1.165
-1.2
-1.23
-1.26
-1.27
-1.29
-1.3
-1.305
-1.3
-1.31
-1.3
-1.3
-1.29
-1.295
-1.3
-1.3
-1.305
-1.305
-1.3
-1.3
-1.3
-1.28
-1.235
-1.205
-1.095
-0.915
-0.675
-0.33
0.095
0.545
1.045
1.52
1.905
2.17
2.285
2.26
2.105
1.755
1.17
0.53
-0.11
-0.75
-1.39
-1.81
-1.66
-1.375
-1.085
-0.915
-0.86
-0.91
-1.015
-1.125
-1.225
-1.28
-1.275
-1.265
-1.25
-1.245
-1.25
-1.27
-1.255
-1.245
-1.24
-1.26
-1.26
-1.275
-1.28
-1.295
-1.28
-1.255
-1.22
-1.2
-1.18
-1.19
-1.18
-1.18
-1.195
-1.195
-1.185
-1.175
-1.16
-1.14
-1.1
-1.085
-1.065
-1.065
-1.075
-1.09
-1.11
-1.12
-1.105
-1.085
-1.065
-1.035
-1.005
-0.975
-0.945
-0.905
-0.89
-0.865
-0.85
-0.845
-0.83
-0.81
-0.815
-0.795
-0.755
-0.735
-0.69
-0.665
-0.635
-0.62
-0.6
-0.59
-0.56
-0.555
-0.55
-0.54
-0.54
-0.535
-0.535
-0.53
-0.54
-0.54
-0.565
-0.595
-0.63
-0.65
-0.67
-0.69
-0.71
-0.74
-0.77
-0.795
-0.85
-0.89
-0.955
-1.005
-1.05
-1.085
-1.115
-1.145
-1.145
-1.145
-1.14
-1.15
-1.16
-1.185
-1.205
-1.24
-1.255
-1.26
-1.27
-1.27
-1.27
-1.265
-1.27
-1.28
-1.28
-1.29
-1.275
-1.275
-1.275
-1.28
-1.29
-1.295
-1.285
-1.28
-1.27
-1.28
-1.265
-1.285
-1.3
-1.3
-1.31
-1.295
-1.29
-1.29
-1.27
-1.275
-1.27
-1.24
-1.265
-1.25
-1.26
-1.28
-1.285
-1.275
-1.295
-1.3
-1.29
-1.28
-1.285
-1.275
-1.28
-1.28
-1.295
-1.315
-1.32
-1.325
-1.33
-1.31
-1.3
-1.3
-1.295
-1.3
-1.3
-1.29
-1.305
-1.315
-1.315
-1.33
-1.345
-1.355
-1.35
-1.35
-1.34
-1.34
-1.345
-1.335
-1.32
-1.315
-1.33
-1.34
-1.35
-1.37
-1.37
-1.38
-1.365
-1.36
-1.36
-1.37
-1.375
-1.37
-1.37
-1.365
-1.355
-1.32
-1.295
-1.3
-1.28
-1.275
-1.27
-1.25
-1.26
-1.27
-1.275
-1.27
-1.265
-1.245
-1.215
-1.185
-1.16
-1.175
-1.17
-1.185
-1.205
-1.22
-1.235
-1.25
-1.26
-1.25
-1.24
-1.225
-1.23
-1.25
-1.28
-1.325
-1.34
-1.355
-1.395
-1.41
-1.435
-1.44
-1.43
-1.43
-1.42
-1.415
-1.405
-1.41
-1.41
-1.43
-1.43
-1.445
-1.43
-1.43
-1.41
-1.405
-1.375
-1.35
-1.305
-1.21
-1.075
-0.85
-0.56
-0.165
0.29
0.78
1.275
1.7
2.01
2.15
2.12
1.875
1.355
0.715
0.075
-0.565
-1.205
-1.845
-1.84
-1.595
-1.32
-1.14
-1.06
-1.085
-1.18
-1.25
-1.34
-1.39
-1.405
-1.395
-1.39
-1.36
-1.365
-1.37
-1.365
-1.375
-1.38
-1.395
-1.415
-1.4
-1.385
-1.37
-1.36
-1.35
-1.34
-1.31
-1.32
-1.315
-1.33
-1.33
-1.325
-1.32
-1.31
-1.295
-1.275
-1.265
-1.255
-1.24
-1.22
-1.215
-1.225
-1.205
-1.205
-1.205
-1.17
-1.15
-1.135
-1.105
-1.115
-1.09
-1.05
-1.02
-0.99
-1.0
-0.965
-0.94
-0.92
-0.885
-0.855
-0.825
-0.795
-0.74
-0.75
-0.74
-0.745
-0.735
-0.72
-0.71
-0.7
-0.675
-0.66
-0.65
-0.65
-0.65
-0.66
-0.675
-0.71
-0.74
-0.775
-0.815
-0.82
-0.86
-0.895
-0.92
-0.95
-0.98
-1.015
-1.06
-1.1
-1.12
-1.155
-1.18
-1.195
-1.21
-1.225
-1.24
-1.27
-1.28
-1.29
-1.305
-1.32
-1.305
-1.32
-1.3
-1.315
-1.295
-1.3
-1.305
-1.31
-1.31
-1.295
-1.315
-1.31
-1.325
-1.34
-1.32
-1.315
-1.31
-1.3
-1.285
-1.28
-1.27
-1.26
-1.275
-1.285
-1.285
-1.29
-1.28
-1.29
-1.295
-1.295
-1.29
-1.275
-1.265
-1.245
-1.235
-1.255
-1.265
-1.28
-1.28
-1.275
-1.275
-1.275
-1.275
-1.28
-1.26
-1.27
-1.27
-1.275
-1.27
-1.29
-1.295
-1.305
-1.295
-1.28
-1.27
-1.255
-1.25
-1.27
-1.285
-1.31
-1.3
-1.315
-1.32
-1.31
-1.32
-1.3
-1.315
-1.32
-1.29
-1.28
-1.265
-1.27
-1.265
-1.27
-1.28
-1.29
-1.28
-1.28
-1.27
-1.275
-1.265
-1.275
-1.285
-1.285
-1.285
-1.285
-1.28
-1.265
-1.255
-1.235
-1.22
-1.195
-1.17
-1.14
-1.13
-1.135
-1.155
-1.19
-1.23
-1.235
-1.23
-1.2
-1.18
-1.165
-1.14
-1.13
-1.115
-1.14
-1.14
-1.14
-1.13
-1.15
-1.14
-1.13
-1.125
-1.105
-1.105
-1.1
-1.125
-1.135
-1.175
-1.2
-1.235
-1.25
-1.285
-1.295
-1.31
-1.31
-1.33
-1.325
-1.33
-1.34
-1.32
-1.305
-1.3
-1.3
-1.3
-1.3
-1.305
-1.315
-1.305
-1.325
-1.33
-1.32
-1.315
-1.25
-1.13
-0.93
-0.64
-0.27
0.16
0.635
1.15
1.61
1.95
2.185
2.275
2.23
2.08
1.765
1.225
0.585
-0.055
-0.695
-1.335
-1.65
-1.5
-1.245
-1.04
-0.915
-0.915
-1.005
-1.115
-1.21
-1.26
-1.285
-1.26
-1.255
-1.245
-1.26
-1.285
-1.31
-1.33
-1.345
-1.35
-1.315
-1.27
-1.25
-1.225
-1.215
-1.21
-1.22
-1.23
-1.225
-1.235
-1.235
-1.23
-1.225
-1.235
-1.235
-1.22
-1.215
-1.185
-1.175
-1.14
-1.145
-1.15
-1.135
-1.14
-1.14
-1.14
-1.1
-1.115
-1.11
-1.08
-1.055
-1.065
-1.065
-1.065
-1.055
-1.04
-0.985
-0.965
-0.935
-0.89
-0.855
-0.825
-0.785
-0.775
-0.755
-0.725
-0.72
-0.69
-0.675
-0.67
-0.645
-0.63
-0.61
-0.6
-0.6
-0.595
-0.61
-0.61
-0.615
-0.63
-0.635
-0.65
-0.67
-0.695
-0.735
-0.77
-0.83
-0.875
-0.915
-0.945
-0.985
-1.02
-1.045
-1.085
-1.105
-1.105
-1.11
-1.135
-1.165
-1.2
-1.225
-1.25
-1.265
-1.28
-1.29
-1.295
-1.275
-1.26
-1.275
-1.29
-1.31
-1.325
-1.34
-1.36
-1.36
-1.37
-1.35
-1.345
-1.32
-1.305
-1.32
-1.31
-1.305
-1.305
-1.32
-1.31
-1.32
-1.32
-1.305
-1.31
-1.285
-1.275
-1.28
-1.28
-1.285
-1.29
-1.315
-1.3
-1.295
-1.28
-1.27
-1.25
-1.26
-1.255
-1.265
-1.27
-1.29
-1.3
-1.315
-1.325
-1.325
-1.345
-1.34
-1.34
-1.345
-1.315
-1.295
-1.275
-1.285
-1.31
-1.325
-1.345
-1.37
-1.37
-1.34
-1.335
-1.315
-1.315
-1.305
-1.305
-1.32
-1.35
-1.37
-1.38
-1.37
-1.365
-1.365
-1.36
-1.36
-1.355
-1.355
-1.335
-1.365
-1.38
-1.38
-1.395
-1.395
-1.385
-1.39
-1.36
-1.35
-1.315
-1.315
-1.32
-1.3
-1.29
-1.275
-1.27
-1.265
-1.27
-1.25
-1.25
-1.245
-1.24
-1.235
-1.25
-1.245
-1.24
-1.25
-1.23
-1.215
-1.2
-1.185
-1.195
-1.185
-1.175
-1.19
-1.2
-1.195
-1.225
-1.24
-1.255
-1.275
-1.31
-1.325
-1.355
-1.37
-1.365
-1.37
-1.39
-1.41
-1.435
-1.425
-1.44
-1.42
-1.41
-1.395
-1.39
-1.365
-1.36
-1.36
-1.37
-1.395
-1.42
-1.44
-1.45
-1.435
-1.41
-1.365
-1.26
-1.12
-0.915
-0.6
-0.23
0.21
0.665
1.155
1.61
1.955
2.17
2.22
2.1
1.745
1.135
0.495
-0.145
-0.785
-1.425
-1.89
-1.71
-1.43
-1.165
-1.005
-0.955
-1.035
-1.135
-1.235
-1.295
-1.34
-1.37
-1.36
-1.37
-1.375
-1.37
-1.365
-1.345
-1.335
-1.32
-1.31
-1.31
-1.32
-1.32
-1.33
-1.33
-1.355
-1.35
-1.34
-1.33
-1.315
-1.3
-1.275
-1.265
-1.27
-1.27
-1.265
-1.265
-1.26
-1.26
-1.24
-1.225
-1.2
-1.18
-1.16
-1.175
-1.175
-1.185
-1.18
-1.17
-1.155
-1.14
-1.11
-1.095
-1.065
-1.03
-1.015
-0.995
-0.99
-0.965
-0.955
-0.94
-0.93
-0.895
-0.86
-0.825
-0.815
-0.78
-0.76
-0.74
-0.725
-0.715
-0.705
-0.7
-0.68
-0.66
-0.65
-0.635
-0.625
-0.615
-0.595
-0.605
-0.605
-0.625
-0.63
-0.67
-0.715
-0.765
-0.78
-0.82
-0.85
-0.865
-0.91
-0.94
-0.975
-1.03
-1.085
-1.13
-1.165
-1.205
-1.22
-1.23
-1.245
-1.24
-1.25
-1.275
-1.3
-1.32
-1.34
-1.355
-1.37
-1.365
-1.36
-1.35
-1.35
-1.355
-1.355
-1.375
-1.37
-1.36
-1.39
-1.39
-1.405
-1.39
-1.38
-1.36
-1.34
-1.335
-1.335
-1.35
-1.365
-1.365
-1.365
-1.355
-1.345
-1.345
-1.34
-1.305
-1.295
-1.31
-1.315
-1.305
-1.3
-1.315
-1.32
-1.34
-1.355
-1.355
-1.35
-1.345
-1.345
-1.33
-1.33
-1.335
-1.345
-1.36
-1.36
-1.365
-1.365
-1.385
-1.38
-1.365
-1.37
-1.375
-1.37
-1.395
-1.4
-1.405
-1.42
-1.415
-1.42
-1.415
-1.405
-1.4
-1.39
-1.37
-1.365
-1.375
-1.37
-1.38
-1.405
-1.415
-1.425
-1.425
-1.425
-1.41
-1.395
-1.405
-1.395
-1.39
-1.385
-1.39
-1.395
-1.37
-1.36
-1.345
-1.32
-1.31
-1.305
-1.295
-1.32
-1.325
-1.33
-1.33
-1.32
-1.32
-1.295
-1.28
-1.265
-1.245
-1.245
-1.24
-1.235
-1.25
-1.26
-1.28
-1.3
-1.29
-1.29
-1.265
-1.27
-1.275
-1.265
-1.295
-1.305
-1.34
-1.37
-1.405
-1.45
-1.48
-1.505
-1.51
-1.485
-1.47
-1.455
-1.435
-1.42
-1.41
-1.415
-1.42
-1.425
-1.425
-1.435
-1.455
-1.44
-1.435
-1.405
-1.305
-1.145
-0.905
-0.53
-0.07
0.43
0.975
1.485
1.9
2.165
2.255
2.13
1.745
1.105
0.465
-0.175
-0.815
-1.455
-2.02
-1.85
-1.58
-1.305
-1.14
-1.07
-1.11
-1.21
-1.325
-1.39
-1.45
-1.45
-1.445
-1.44
-1.425
-1.405
-1.385
-1.35
-1.35
-1.37
-1.4
-1.425
-1.43
-1.425
-1.435
-1.41
-1.39
-1.385
-1.38
-1.365
-1.34
-1.32
-1.305
-1.31
-1.31
-1.315
-1.32
-1.33
-1.315
-1.31
-1.305
-1.28
-1.28
-1.275
-1.29
-1.275
-1.25
-1.23
-1.185
-1.175
-1.16
-1.14
-1.115
-1.095
-1.075
-1.06
-1.055
-1.04
-1.02
-0.995
-0.975
-0.965
-0.935
-0.9
-0.885
-0.83
-0.8
-0.775
-0.75
-0.725
-0.73
-0.72
-0.715
-0.72
-0.69
-0.68
-0.685
-0.67
-0.655
-0.66
-0.665
-0.69
-0.72
-0.755
-0.81
-0.85
-0.87
-0.9
-0.925
-0.955
-0.97
-1.02
-1.065
-1.13
-1.185
-1.205
-1.235
-1.265
-1.29
-1.285
-1.295
-1.29
-1.29
-1.315
-1.325
-1.34
-1.33
-1.345
-1.37
-1.365
-1.38
-1.36
-1.365
-1.335
-1.33
-1.32
-1.325
-1.345
-1.36
-1.37
-1.38
-1.35
-1.33
-1.34
-1.32
-1.315
-1.3
-1.295
-1.305
-1.3
-1.31
-1.31
-1.315
-1.325
-1.32
-1.315
-1.305
-1.305
-1.285
-1.3
-1.305
-1.31
-1.3
-1.3
-1.29
-1.305
-1.305
-1.305
-1.305
-1.295
-1.3
-1.305
-1.29
-1.3
-1.315
-1.31
-1.32
-1.34
-1.345
-1.345
-1.335
-1.335
-1.315
-1.305
-1.3
-1.305
-1.33
-1.33
-1.34
-1.355
-1.34
-1.325
-1.35
-1.33
-1.315
-1.32
-1.31
-1.315
-1.3
-1.31
-1.285
-1.285
-1.265
-1.275
-1.28
-1.275
-1.26
-1.27
-1.295
-1.285
-1.295
-1.29
-1.28
-1.27
-1.265
-1.245
-1.23
-1.2
-1.16
-1.15
-1.145
-1.15
-1.16
-1.15
-1.135
-1.145
-1.135
-1.11
-1.085
-1.06
-1.03
-1.025
-1.02
-1.025
-1.04
-1.06
-1.075
-1.1
-1.115
-1.095
-1.075
-1.065
-1.055
-1.065
-1.09
-1.15
-1.195
-1.21
-1.245
-1.26
-1.255
-1.27
-1.245
-1.25
-1.24
-1.24
-1.245
-1.255
-1.255
-1.25
-1.24
-1.235
-1.23
-1.225
-1.245
-1.255
-1.235
-1.225
-1.205
-1.17
-1.1
-0.965
-0.8
-0.575
-0.295
0.02
0.355
0.72
1.135
1.53
1.925
2.19
2.3
2.22
1.855
1.215
0.575
-0.065
-0.705
-1.345
-1.555
-1.31
-1.05
-0.88
-0.835
-0.9
-1.0
-1.095
-1.17
-1.195
-1.2
-1.18
-1.145
-1.135
-1.145
-1.165
-1.195
-1.21
-1.22
-1.23
-1.205
-1.175
-1.155
-1.13
-1.1
-1.1
-1.085
-1.09
-1.085
-1.095
-1.095
-1.105
-1.115
-1.11
-1.115
-1.095
-1.06
-1.045
-1.035
-1.04
-1.03
-1.015
-1.02
-1.005
-1.005
-0.98
-0.95
-0.945
-0.905
-0.89
-0.895
-0.89
-0.88
-0.85
-0.825
-0.8
-0.785
-0.755
-0.725
-0.71
-0.68
-0.65
-0.635
-0.6
-0.585
-0.55
-0.53
-0.505
-0.49
-0.475
-0.43
-0.43
-0.415
-0.41
-0.395
-0.42
-0.41
-0.425
-0.425
-0.43
-0.47
-0.495
-0.52
-0.53
-0.54
-0.585
-0.625
-0.66
-0.705
-0.755
-0.8
-0.835
-0.885
-0.91
-0.925
-0.95
-0.98
-1.01
-1.02
-1.04
-1.05
-1.075
-1.085
-1.1
-1.11
-1.1
-1.12
-1.115
-1.09
-1.11
-1.105
-1.125
-1.13
-1.15
-1.16
-1.16
-1.165
-1.15
-1.13
-1.12
-1.105
-1.095
-1.105
-1.115
-1.13
-1.165
-1.17
-1.16
-1.145
-1.13
-1.115
-1.12
-1.11
-1.11
-1.105
-1.095
-1.095
-1.09
-1.095
-1.11
-1.13
-1.14
-1.13
-1.115
-1.095
-1.1
-1.085
-1.085
-1.095
-1.1
-1.12
-1.135
-1.135
-1.13
-1.105
-1.1
-1.08
-1.085
-1.1
-1.105
-1.125
-1.135
-1.165
-1.16
-1.165
-1.165
-1.165
-1.16
-1.14
-1.15
-1.145
-1.15
-1.16
-1.16
-1.17
-1.17
-1.165
-1.15
-1.115
-1.1
-1.1
-1.13
-1.155
-1.165
-1.18
-1.19
-1.205
-1.22
-1.22
-1.2
-1.175
-1.165
-1.15
-1.14
-1.145
-1.145
-1.165
-1.165
-1.18
-1.17
-1.13
-1.1
-1.075
-1.045
-1.04
-1.04
-1.035
-1.025
-1.035
-1.035
-1.055
-1.065
-1.07
-1.06
-1.025
-1.0
-0.99
-0.98
-0.995
-1.01
-1.02
-1.02
-1.02
-1.025
-1.04
-1.045
-1.07
-1.065
-1.07
-1.085
-1.1
-1.11
-1.135
-1.155
-1.16
-1.18
-1.2
-1.22
-1.215
-1.215
-1.2
-1.17
-1.15
-1.145
-1.18
-1.21
-1.24
-1.27
-1.27
-1.255
-1.24
-1.235
-1.215
-1.205
-1.185
-1.115
-1.0
-0.815
-0.56
-0.225
0.17
0.61
1.065
1.515
1.885
2.175
2.33
2.37
2.325
2.16
1.845
1.28
0.64
0.0
-0.64
-1.28
-1.55
-1.37
-1.12
-0.935
-0.855
-0.88
-0.985
-1.095
-1.175
-1.235
-1.255
-1.24
-1.225
-1.2
-1.185
-1.19
-1.2
-1.235
-1.245
-1.27
-1.26
-1.255
-1.235
-1.215
-1.185
-1.18
-1.19
-1.19
-1.18
-1.195
-1.205
-1.23
-1.215
-1.195
-1.175
-1.165
-1.135
-1.135
-1.115
-1.1
-1.115
-1.115
-1.125
-1.12
-1.105
-1.075
-1.045
-1.02
-1.0
-0.98
-0.97
-0.955
-0.955
-0.955
-0.945
-0.925
-0.895
-0.855
-0.795
-0.78
-0.735
-0.69
-0.655
-0.625
-0.6
-0.595
-0.59
-0.58
-0.575
-0.58
-0.58
-0.555
-0.545
-0.52
-0.54
-0.535
-0.545
-0.555
-0.565
-0.58
-0.615
-0.64
-0.66
-0.725
-0.745
-0.805
-0.875
-0.935
-0.98
-1.0
-1.03
-1.07
-1.1
-1.12
-1.135
-1.145
-1.145
-1.18
-1.215
-1.22
-1.255
-1.265
-1.27
-1.285
-1.295
-1.305
-1.305
-1.31
-1.3
-1.29
-1.285
-1.27
-1.29
-1.3
-1.33
-1.34
-1.34
-1.34
-1.335
-1.31
-1.305
-1.29
-1.285
-1.285
-1.305
-1.31
-1.32
-1.305
-1.295
-1.29
-1.28
-1.275
-1.27
-1.265
-1.26
-1.265
-1.275
-1.275
-1.27
-1.29
-1.3
-1.3
-1.3
-1.28
-1.265
-1.27
-1.27
-1.26
-1.285
-1.29
-1.305
-1.325
-1.325
-1.325
-1.295
-1.295
-1.27
-1.255
-1.255
-1.27
-1.28
-1.295
-1.325
-1.345
-1.345
-1.345
-1.345
-1.325
-1.3
-1.285
-1.295
-1.305
-1.31
-1.305
-1.335
-1.33
-1.315
-1.325
-1.32
-1.315
-1.315
-1.29
-1.3
-1.31
-1.325
-1.33
-1.33
-1.32
-1.305
-1.285
-1.265
-1.24
-1.21
-1.205
-1.195
-1.21
-1.21
-1.205
-1.2
-1.18
-1.2
-1.205
-1.21
-1.2
-1.19
-1.16
-1.14
-1.14
-1.16
-1.175
-1.19
-1.18
-1.195
-1.195
-1.175
-1.18
-1.165
-1.15
-1.18
-1.205
-1.225
-1.255
-1.285
-1.295
-1.31
-1.335
-1.35
-1.355
-1.36
-1.345
-1.33
-1.34
-1.35
-1.355
-1.365
-1.365
-1.37
-1.37
-1.355
-1.36
-1.335
-1.34
-1.345
-1.36
-1.355
-1.345
-1.265
-1.1
-0.835
-0.495
-0.075
0.38
0.855
1.315
1.705
1.985
2.125
2.065
1.77
1.225
0.585
-0.055
-0.695
-1.335
-1.975
-1.93
-1.7
-1.405
-1.225
-1.14
-1.165
-1.23
-1.325
-1.415
-1.47
-1.485
-1.465
-1.445
-1.415
-1.395
-1.395
-1.415
-1.44
-1.455
-1.46
-1.46
-1.44
-1.425
-1.39
-1.385
-1.39
-1.415
-1.425
-1.435
-1.435
-1.435
-1.415
-1.395
-1.395
-1.38
-1.36
-1.33
-1.33
-1.315
-1.315
-1.32
-1.315
-1.3
-1.29
-1.295
-1.275
-1.275
-1.255
-1.245
-1.21
-1.19
-1.17
-1.175
-1.15
-1.145
-1.125
-1.105
-1.075
-1.04
-1.015
-0.98
-0.995
-0.96
-0.935
-0.92
-0.885
-0.84
-0.825
-0.795
-0.78
-0.77
-0.745
-0.745
-0.74
-0.74
-0.725
-0.705
-0.695
-0.695
-0.69
-0.7
-0.705
-0.72
-0.74
-0.745
-0.77
-0.8
-0.835
-0.885
-0.95
-1.01
-1.06
-1.115
-1.14
-1.16
-1.16
-1.165
-1.2
-1.225
-1.285
-1.295
-1.315
-1.35
-1.35
-1.345
-1.325
-1.31
-1.31
-1.32
-1.33
-1.34
-1.34
-1.335
-1.355
-1.355
-1.345
-1.325
-1.325
-1.32
-1.31
-1.305
-1.305
-1.3
-1.3
-1.32
-1.315
-1.31
-1.315
-1.305
-1.29
-1.285
-1.275
-1.265
-1.255
-1.265
-1.265
-1.28
-1.3
-1.305
-1.305
-1.31
-1.305
-1.285
-1.295
-1.265
-1.265
-1.285
-1.285
-1.295
-1.29
-1.305
-1.3
-1.295
-1.295
-1.3
-1.29
-1.28
-1.28
-1.285
-1.29
-1.3
-1.315
-1.315
-1.32
-1.31
-1.305
-1.3
-1.295
-1.305
-1.315
-1.325
-1.335
-1.325
-1.32
-1.33
-1.325
-1.335
-1.31
-1.315
-1.295
-1.305
-1.31
-1.305
-1.325
-1.32
-1.325
-1.325
-1.335
-1.34
-1.325
-1.31
-1.305
-1.275
-1.26
-1.255
-1.25
-1.225
-1.215
-1.21
-1.215
-1.215
-1.205
-1.19
-1.185
-1.175
-1.165
-1.165
-1.14
-1.115
-1.115
-1.115
-1.12
-1.125
-1.14
-1.165
-1.15
-1.165
-1.175
-1.17
-1.175
-1.19
-1.22
-1.265
-1.295
-1.305
-1.31
-1.32
-1.32
-1.32
-1.325
-1.34
-1.35
-1.385
-1.38
-1.365
-1.355
-1.35
-1.34
-1.335
-1.32
-1.33
-1.335
-1.345
-1.365
-1.355
-1.315
-1.235
-1.13
-0.94
-0.695
-0.395
-0.01
0.4
0.84
1.3
1.73
2.05
2.21
2.23
2.05
1.625
0.985
0.345
-0.295
-0.935
-1.575
-1.665
-1.435
-1.17
-1.0
-0.955
-0.975
-1.08
-1.16
-1.23
-1.265
-1.275
-1.285
-1.275
-1.27
-1.29
-1.295
-1.295
-1.31
-1.315
-1.305
-1.295
-1.27
-1.255
-1.23
-1.23
-1.225
-1.235
-1.25
-1.27
-1.265
-1.265
-1.245
-1.225
-1.225
-1.195
-1.19
-1.18
-1.195
-1.195
-1.21
-1.205
-1.16
-1.135
-1.105
-1.11
-1.09
-1.085
-1.08
-1.075
-1.075
-1.065
-1.07
-1.065
-1.055
-1.045
-0.985
-0.955
-0.91
-0.89
-0.87
-0.83
-0.82
-0.81
-0.78
-0.76
-0.735
-0.695
-0.67
-0.64
-0.595
-0.575
-0.56
-0.55
-0.545
-0.55
-0.54
-0.53
-0.515
-0.53
-0.51
-0.505
-0.495
-0.51
-0.525
-0.555
-0.595
-0.655
-0.705
-0.745
-0.78
-0.82
-0.84
-0.86
-0.895
-0.905
-0.925
-0.96
-0.99
-1.04
-1.085
-1.13
-1.155
-1.185
-1.19
-1.185
-1.18
-1.17
-1.18
-1.19
-1.205
-1.22
-1.235
-1.25
-1.245
-1.24
-1.24
-1.225
-1.215
-1.195
-1.205
-1.21
-1.23
-1.22
-1.23
-1.22
-1.23
-1.22
-1.205
-1.2
-1.195
-1.175
-1.17
-1.165
-1.165
-1.18
-1.195
-1.2
-1.21
-1.2
-1.195
-1.185
-1.16
-1.145
-1.155
-1.145
-1.165
-1.175
-1.195
-1.19
-1.21
-1.195
-1.18
-1.175
-1.16
-1.16
-1.185
-1.17
-1.185
-1.18
-1.195
-1.21
-1.22
-1.19
-1.19
-1.19
-1.175
-1.185
-1.185
-1.2
-1.22
-1.235
-1.235
-1.225
-1.24
-1.24
-1.23
-1.22
-1.21
-1.19
-1.195
-1.18
-1.185
-1.195
-1.21
-1.215
-1.235
-1.25
-1.245
-1.24
-1.22
-1.205
-1.19
-1.19
-1.205
-1.215
-1.24
-1.22
-1.235
-1.235
-1.21
-1.23
-1.2
-1.19
-1.16
-1.14
-1.095
-1.11
-1.11
-1.115
-1.115
-1.16
-1.135
-1.105
-1.085
-1.06
-1.04
-1.035
-1.02
-1.035
-1.05
-1.07
-1.08
-1.09
-1.08
-1.08
-1.07
-1.06
-1.06
-1.08
-1.105
-1.15
-1.18
-1.23
-1.25
-1.265
-1.275
-1.275
-1.275
-1.27
-1.255
-1.25
-1.25
-1.27
-1.265
-1.27
-1.27
-1.265
-1.255
-1.24
-1.255
-1.25
-1.26
-1.255
-1.24
-1.205
-1.15
-1.0
-0.785
-0.475
-0.055
0.395
0.915
1.42
1.87
2.19
2.37
2.43
2.36
2.215
1.925
1.4
0.76
0.12
-0.52
-1.16
-1.625
-1.495
-1.265
-1.03
-0.92
-0.91
-0.99
-1.115
-1.205
-1.265
-1.295
-1.285
-1.275
-1.23
-1.225
-1.24
-1.26
-1.275
-1.295
-1.3
-1.3
-1.28
-1.26
-1.23
-1.22
-1.22
-1.22
-1.24
-1.245
-1.245
-1.23
-1.22
-1.21
-1.19
-1.18
-1.17
-1.175
-1.165
-1.165
-1.165
-1.155
-1.155
-1.15
-1.13
-1.115
-1.1
-1.065
-1.05
-1.02
-1.025
-1.005
-0.99
-0.995
-0.98
-0.96
-0.94
-0.9
-0.86
-0.84
-0.79
-0.77
-0.735
-0.735
-0.725
-0.71
-0.7
-0.685
-0.675
-0.645
-0.61
-0.575
-0.545
-0.52
-0.49
-0.48
-0.485
-0.505
-0.505
-0.535
-0.54
-0.54
-0.56
-0.585
-0.62
-0.655
-0.71
-0.77
-0.815
-0.875
-0.915
-0.97
-1.03
-1.055
-1.08
-1.11
-1.13
-1.17
-1.185
-1.205
-1.225
-1.235
-1.25
-1.25
-1.25
-1.235
-1.23
-1.235
-1.215
-1.245
-1.245
-1.255
-1.26
-1.26
-1.285
-1.285
-1.285
-1.28
-1.265
-1.27
-1.25
-1.24
-1.23
-1.24
-1.245
-1.24
-1.25
-1.26
-1.245
-1.24
-1.225
-1.22
-1.205
-1.215
-1.21
-1.23
-1.23
-1.255
-1.255
-1.26
-1.26
-1.24
-1.23
-1.22
-1.205
-1.205
-1.22
-1.225
-1.225
-1.24
-1.245
-1.275
-1.285
-1.27
-1.25
-1.25
-1.24
-1.24
-1.25
-1.265
-1.275
-1.285
-1.29
-1.29
-1.305
-1.3
-1.29
-1.28
-1.26
-1.255
-1.26
-1.28
-1.295
-1.315
-1.3
-1.305
-1.325
-1.33
-1.29
-1.3
-1.275
-1.295
-1.285
-1.305
-1.315
-1.305
-1.305
-1.32
-1.31
-1.305
-1.3
-1.29
-1.27
-1.255
-1.24
-1.23
-1.225
-1.225
-1.24
-1.235
-1.245
-1.235
-1.235
-1.205
-1.195
-1.18
-1.18
-1.16
-1.14
-1.155
-1.145
-1.145
-1.145
-1.145
-1.145
-1.135
-1.135
-1.15
-1.16
-1.18
-1.21
-1.215
-1.23
-1.26
-1.29
-1.3
-1.31
-1.31
-1.32
-1.33
-1.345
-1.345
-1.35
-1.335
-1.335
-1.33
-1.355
-1.34
-1.345
-1.335
-1.315
-1.325
-1.335
-1.325
-1.335
-1.315
-1.27
-1.18
-1.025
-0.8
-0.51
-0.175
0.18
0.57
0.98
1.35
1.685
1.96
2.12
2.155
2.07
1.725
1.11
0.47
-0.17
-0.81
-1.45
-1.75
-1.59
-1.335
-1.115
-1.01
-1.005
-1.06
-1.14
-1.215
-1.255
-1.245
-1.245
-1.255
-1.27
-1.285
-1.31
-1.31
-1.315
-1.29
-1.29
-1.27
-1.265
-1.25
-1.25
-1.26
-1.245
-1.24
-1.225
-1.225
-1.225
-1.215
-1.205
-1.2
-1.17
-1.16
-1.155
-1.145
-1.15
-1.14
-1.15
-1.145
-1.145
-1.125
-1.115
-1.1
-1.075
-1.075
-1.065
-1.055
-1.055
-1.065
-1.055
-1.045
-1.025
-0.98
-0.95
-0.925
-0.915
-0.895
-0.885
-0.84
-0.81
-0.805
-0.77
-0.77
-0.725
-0.695
-0.68
-0.635
-0.61
-0.57
-0.56
-0.55
-0.555
-0.565
-0.565
-0.59
-0.595
-0.595
-0.595
-0.6
-0.585
-0.605
-0.64
-0.665
-0.71
-0.765
-0.81
-0.86
-0.905
-0.92
-0.945
-0.965
-0.97
-0.99
-1.025
-1.055
-1.1
-1.145
-1.145
-1.165
-1.18
-1.155
-1.155
-1.17
-1.165
-1.175
-1.22
-1.22
-1.22
-1.23
-1.22
-1.22
-1.225
-1.21
-1.195
-1.185
-1.16
-1.175
-1.175
-1.175
-1.195
-1.2
-1.21
-1.21
-1.21
-1.195
-1.18
-1.17
-1.145
-1.14
-1.145
-1.16
-1.16
-1.17
-1.185
-1.19
-1.185
-1.17
-1.155
-1.16
-1.15
-1.145
-1.155
-1.15
-1.145
-1.135
-1.145
-1.155
-1.175
-1.18
-1.175
-1.17
-1.155
-1.15
-1.155
-1.165
-1.195
-1.21
-1.215
-1.22
-1.195
-1.18
-1.175
-1.175
-1.16
-1.175
-1.175
-1.175
-1.19
-1.19
-1.205
-1.225
-1.215
-1.205
-1.21
-1.225
-1.21
-1.195
-1.205
-1.195
-1.2
-1.23
-1.245
-1.24
-1.245
-1.23
-1.195
-1.195
-1.19
-1.185
-1.19
-1.185
-1.22
-1.24
-1.24
-1.25
-1.235
-1.19
-1.165
-1.12
-1.07
-1.07
-1.04
-1.065
-1.08
-1.1
-1.11
-1.135
-1.135
-1.125
-1.105
-1.08
-1.055
-1.04
-1.01
-0.99
-0.99
-1.015
-1.005
-1.03
-1.055
-1.05
-1.04
-1.035
-1.01
-1.015
-1.01
-1.04
-1.045
-1.075
-1.105
-1.135
-1.165
-1.18
-1.195
-1.215
-1.23
-1.23
-1.23
-1.24
-1.265
-1.27
-1.275
-1.27
-1.245
-1.23
-1.225
-1.21
-1.185
-1.19
-1.185
-1.22
-1.245
-1.255
-1.225
-1.195
-1.135
-0.99
-0.8
-0.585
-0.285
0.09
0.495
0.99
1.475
1.89
2.2
2.355
2.32
2.11
1.64
1.0
0.36
-0.28
-0.92
-1.56
-1.52
-1.26
-1.005
-0.845
-0.8
-0.865
-0.955
-1.045
-1.13
-1.18
-1.175
-1.185
-1.17
-1.175
-1.165
-1.175
-1.185
-1.185
-1.19
-1.18
-1.17
-1.165
-1.165
-1.165
-1.155
-1.16
-1.16
-1.16
-1.14
-1.145
-1.13
-1.11
-1.11
-1.105
-1.085
-1.085
-1.11
-1.11
-1.125
-1.11
-1.095
-1.075
-1.06
-1.055
-1.025
-1.0
-0.975
-0.975
-0.97
-0.975
-0.98
-0.98
-0.955
-0.925
-0.9
-0.88
-0.855
-0.825
-0.825
-0.795
-0.79
-0.765
-0.745
-0.72
-0.675
-0.645
-0.605
-0.58
-0.55
-0.52
-0.51
-0.495
-0.495
-0.485
-0.475
-0.465
-0.445
-0.425
-0.4
-0.375
-0.365
-0.35
-0.37
-0.36
-0.405
-0.44
-0.455
-0.5
-0.545
-0.575
-0.63
-0.66
-0.695
-0.715
-0.725
-0.765
-0.805
-0.835
-0.875
-0.9
-0.935
-0.965
-1.0
-1.035
-1.04
-1.045
-1.03
-1.06
-1.07
-1.11
-1.125
-1.135
-1.145
-1.15
-1.13
-1.105
-1.09
-1.09
-1.095
-1.09
-1.105
-1.13
-1.13
-1.12
-1.115
-1.11
-1.1
-1.085
-1.1
-1.075
-1.06
-1.055
-1.07
-1.08
