Lead II
-0.455
-0.465
-0.475
-0.485
-0.49
-0.5
-0.5
-0.51
-0.485
-0.49
-0.49
-0.495
-0.5
-0.52
-0.53
-0.56
-0.595
-0.605
-0.61
-0.605
-0.59
-0.6
-0.595
-0.595
-0.59
-0.595
-0.6
-0.61
-0.61
-0.625
-0.64
-0.63
-0.63
-0.625
-0.615
-0.6
-0.615
-0.605
-0.635
-0.67
-0.71
-0.725
-0.725
-0.72
-0.71
-0.69
-0.685
-0.68
-0.675
-0.67
-0.675
-0.68
-0.69
-0.705
-0.72
-0.725
-0.74
-0.73
-0.735
-0.735
-0.73
-0.74
-0.74
-0.745
-0.755
-0.745
-0.735
-0.74
-0.735
-0.775
-0.8
-0.815
-0.835
-0.82
-0.82
-0.815
-0.805
-0.81
-0.79
-0.795
-0.79
-0.785
-0.785
-0.8
-0.795
-0.8
-0.835
-0.85
-0.885
-0.89
-0.885
-0.87
-0.845
-0.82
-0.805
-0.805
-0.81
-0.835
-0.84
-0.845
-0.84
-0.85
-0.855
-0.825
-0.83
-0.8
-0.785
-0.78
-0.79
-0.805
-0.82
-0.84
-0.855
-0.86
-0.85
-0.84
-0.815
-0.805
-0.785
-0.8
-0.805
-0.825
-0.84
-0.845
-0.855
-0.835
-0.825
-0.82
-0.795
-0.785
-0.78
-0.8
-0.79
-0.78
-0.77
-0.765
-0.795
-0.815
-0.83
-0.845
-0.84
-0.83
-0.805
-0.785
-0.77
-0.76
-0.755
-0.755
-0.765
-0.795
-0.825
-0.845
-0.84
-0.815
-0.79
-0.77
-0.765
-0.78
-0.785
-0.79
-0.8
-0.78
-0.77
-0.75
-0.765
-0.775
-0.79
-0.805
-0.805
-0.805
-0.8
-0.805
-0.815
-0.805
-0.8
-0.78
-0.77
-0.75
-0.73
-0.735
-0.735
-0.75
-0.765
-0.765
-0.76
-0.75
-0.765
-0.78
-0.795
-0.79
-0.78
-0.77
-0.755
-0.75
-0.75
-0.765
-0.78
-0.785
-0.775
-0.765
-0.76
-0.735
-0.73
-0.735
-0.725
-0.725
-0.73
-0.72
-0.725
-0.715
-0.715
-0.71
-0.705
-0.71
-0.715
-0.715
-0.715
-0.705
-0.705
-0.715
-0.72
-0.725
-0.705
-0.7
-0.695
-0.685
-0.68
-0.685
-0.685
-0.69
-0.71
-0.74
-0.765
-0.795
-0.77
-0.75
-0.74
-0.725
-0.72
-0.72
-0.705
-0.7
-0.705
-0.715
-0.735
-0.74
-0.74
-0.74
-0.71
-0.7
-0.685
-0.68
-0.65
-0.59
-0.54
-0.455
-0.37
-0.26
-0.13
-0.005
0.075
0.155
0.2
0.23
0.245
0.24
0.21
0.155
0.075
-0.015
-0.13
-0.205
-0.295
-0.37
-0.435
-0.5
-0.55
-0.595
-0.62
-0.65
-0.65
-0.655
-0.64
-0.63
-0.615
-0.625
-0.645
-0.685
-0.705
-0.71
-0.715
-0.695
-0.665
-0.645
-0.62
-0.61
-0.61
-0.61
-0.605
-0.6
-0.6
-0.61
-0.615
-0.625
-0.64
-0.655
-0.63
-0.62
-0.61
-0.59
-0.58
-0.58
-0.595
-0.605
-0.595
-0.61
-0.6
-0.585
-0.59
-0.585
-0.585
-0.565
-0.56
-0.575
-0.595
-0.58
-0.585
-0.59
-0.59
-0.585
-0.58
-0.58
-0.58
-0.58
-0.55
-0.56
-0.55
-0.54
-0.545
-0.56
-0.555
-0.555
-0.55
-0.53
-0.525
-0.525
-0.535
-0.525
-0.52
-0.515
-0.525
-0.535
-0.545
-0.54
-0.535
-0.495
-0.495
-0.485
-0.485
-0.49
-0.49
-0.5
-0.5
-0.495
-0.5
-0.49
-0.485
-0.49
-0.495
-0.51
-0.555
-0.585
-0.58
-0.595
-0.59
-0.585
-0.575
-0.57
-0.565
-0.585
-0.59
-0.595
-0.585
-0.595
-0.59
-0.61
-0.625
-0.63
-0.65
-0.655
-0.64
-0.62
-0.61
-0.615
-0.62
-0.635
-0.655
-0.685
-0.69
-0.7
-0.705
-0.705
-0.675
-0.685
-0.68
-0.66
-0.66
-0.67
-0.675
-0.68
-0.68
-0.695
-0.695
-0.7
-0.685
-0.665
-0.655
-0.67
-0.685
-0.71
-0.73
-0.735
-0.74
-0.735
-0.73
-0.735
-0.73
-0.735
-0.725
-0.72
-0.715
-0.715
-0.715
-0.73
-0.725
-0.75
-0.755
-0.745
-0.75
-0.75
-0.75
-0.74
-0.705
-0.725
-0.725
-0.73
-0.75
-0.755
-0.755
-0.75
-0.745
-0.725
-0.71
-0.7
-0.695
-0.705
-0.71
-0.71
-0.685
-0.685
-0.68
-0.71
-0.735
-0.73
-0.725
-0.71
-0.69
-0.68
-0.67
-0.67
-0.7
-0.69
-0.71
-0.72
-0.715
-0.69
-0.675
-0.665
-0.65
-0.66
-0.655
-0.645
-0.645
-0.645
-0.625
-0.615
-0.62
-0.65
-0.675
-0.685
-0.705
-0.69
-0.67
-0.65
-0.635
-0.64
-0.64
-0.66
-0.655
-0.655
-0.625
-0.615
-0.6
-0.605
-0.62
-0.645
-0.675
-0.695
-0.685
-0.665
-0.635
-0.62
-0.615
-0.61
-0.595
-0.595
-0.595
-0.6
-0.62
-0.64
-0.645
-0.645
-0.64
-0.62
-0.615
-0.6
-0.585
-0.57
-0.58
-0.59
-0.615
-0.61
-0.595
-0.6
-0.595
-0.595
-0.605
-0.61
-0.605
-0.595
-0.585
-0.565
-0.56
-0.565
-0.575
-0.575
-0.56
-0.56
-0.53
-0.515
-0.515
-0.515
-0.535
-0.55
-0.56
-0.56
-0.55
-0.55
-0.54
-0.525
-0.51
-0.505
-0.495
-0.49
-0.49
-0.495
-0.49
-0.505
-0.495
-0.475
-0.475
-0.455
-0.45
-0.43
-0.41
-0.405
-0.395
-0.39
-0.39
-0.395
-0.4
-0.39
-0.37
-0.365
-0.355
-0.345
-0.335
-0.33
-0.325
-0.33
-0.33
-0.33
-0.32
-0.325
-0.315
-0.3
-0.295
-0.285
-0.275
-0.275
-0.28
-0.305
-0.295
-0.3
-0.3
-0.295
-0.285
-0.275
-0.265
-0.24
-0.215
-0.215
-0.205
-0.205
-0.205
-0.205
-0.19
-0.19
-0.175
-0.16
-0.145
-0.125
-0.1
-0.085
-0.035
0.03
0.105
0.205
0.315
0.435
0.54
0.63
0.695
0.74
0.78
0.8
0.825
0.85
0.845
0.82
0.755
0.69
0.62
0.55
0.475
0.4
0.32
0.22
0.14
0.075
0.01
-0.035
-0.075
-0.09
-0.105
-0.1
-0.11
-0.12
-0.105
-0.135
-0.125
-0.115
-0.12
-0.11
-0.1
-0.08
-0.09
-0.065
-0.05
-0.035
-0.035
-0.025
-0.02
-0.005
0.0
-0.01
0.01
0.02
0.03
0.05
0.06
0.07
0.085
0.095
0.1
0.12
0.12
0.125
0.13
0.125
0.145
0.16
0.175
0.185
0.205
0.21
0.205
0.205
0.2
0.2
0.19
0.195
0.205
0.23
0.245
0.235
0.245
0.24
0.25
0.25
0.265
0.27
0.255
0.265
0.255
0.26
0.265
0.285
0.3
0.305
0.295
0.305
0.305
0.3
0.3
0.3
0.3
0.315
0.32
0.33
0.335
0.33
0.33
0.32
0.315
0.29
0.28
0.27
0.285
0.275
0.295
0.295
0.3
0.31
0.3
0.295
0.275
0.255
0.255
0.245
0.24
0.25
0.245
0.245
0.24
0.23
0.23
0.215
0.19
0.185
0.195
0.185
0.195
0.195
0.195
0.2
0.21
0.2
0.195
0.195
0.19
0.175
0.18
0.175
0.16
0.155
0.175
0.185
0.195
0.185
0.195
0.19
0.18
0.175
0.18
0.18
0.18
0.175
0.185
0.2
0.22
0.205
0.18
0.16
0.155
0.15
0.15
0.15
0.165
0.17
0.185
0.205
0.21
0.19
0.17
0.155
0.135
0.13
0.135
0.14
0.16
0.17
0.18
0.175
0.185
0.175
0.17
0.175
0.18
0.18
0.175
0.165
0.16
0.165
0.17
0.18
0.195
0.21
0.205
0.215
0.215
0.205
0.195
0.175
0.18
0.19
0.195
0.21
0.21
0.195
0.185
0.175
0.17
0.175
0.18
0.17
0.16
0.165
0.18
0.18
0.19
0.19
0.175
0.185
0.18
0.165
0.165
0.15
0.135
0.155
0.155
0.175
0.19
0.18
0.175
0.165
0.16
0.155
0.145
0.135
0.135
0.14
0.135
0.13
0.145
0.15
0.165
0.17
0.175
0.155
0.135
0.125
0.115
0.13
0.14
0.14
0.165
0.145
0.15
0.15
0.135
0.125
0.125
0.125
0.12
0.12
0.12
0.12
0.13
0.15
0.155
0.17
0.15
0.145
0.115
0.095
0.095
0.105
0.11
0.135
0.155
0.145
0.15
0.145
0.15
0.14
0.115
0.095
0.08
0.095
0.12
0.135
0.14
0.125
0.11
0.11
0.105
0.125
0.115
0.1
0.095
0.085
0.085
0.09
0.11
0.13
0.165
0.16
0.165
0.17
0.15
0.135
0.125
0.12
0.14
0.17
0.19
0.19
0.19
0.17
0.15
0.13
0.12
0.11
0.14
0.165
0.195
0.205
0.22
0.195
0.19
0.165
0.155
0.135
0.13
0.13
0.12
0.125
0.12
0.14
0.145
0.145
0.15
0.14
0.115
0.1
0.11
0.11
0.125
0.14
0.16
0.175
0.185
0.175
0.17
0.17
0.175
0.22
0.28
0.36
0.465
0.585
0.71
0.82
0.93
1.005
1.065
1.1
1.125
1.17
1.18
1.19
1.165
1.1
1.015
0.94
0.865
0.775
0.675
0.59
0.5
0.41
0.345
0.27
0.25
0.235
0.22
0.215
0.23
0.23
0.22
0.22
0.205
0.2
0.205
0.2
0.2
0.2
0.205
0.2
0.205
0.21
0.22
0.22
0.23
0.24
0.23
0.225
0.21
0.195
0.195
0.195
0.205
0.22
0.22
0.225
0.215
0.205
0.2
0.195
0.2
0.2
0.195
0.19
0.21
0.215
0.22
0.21
0.2
0.195
0.17
0.18
0.18
0.2
0.2
0.215
0.21
0.21
0.21
0.2
0.19
0.18
0.18
0.175
0.18
0.18
0.195
0.205
0.22
0.215
0.2
0.195
0.185
0.18
0.17
0.17
0.17
0.175
0.19
0.19
0.185
0.18
0.165
0.15
0.14
0.13
0.125
0.115
0.12
0.125
0.12
0.12
0.12
0.12
0.12
0.12
0.11
0.085
0.075
0.05
0.045
0.035
0.04
0.04
0.055
0.05
0.03
0.01
-0.005
-0.015
-0.025
-0.04
-0.045
-0.04
-0.05
-0.05
-0.055
-0.045
-0.05
-0.05
-0.06
-0.065
-0.075
-0.085
-0.085
-0.09
-0.07
-0.07
-0.07
-0.07
-0.055
-0.085
-0.09
-0.085
-0.095
-0.095
-0.095
-0.09
-0.085
-0.085
-0.075
-0.075
-0.095
-0.095
-0.105
-0.105
-0.11
-0.115
-0.12
-0.115
-0.115
-0.105
-0.105
-0.105
-0.115
-0.12
-0.12
-0.135
-0.135
-0.155
-0.145
-0.155
-0.145
-0.13
-0.135
-0.125
-0.145
-0.15
-0.15
-0.16
-0.165
-0.165
-0.165
-0.155
-0.15
-0.155
-0.145
-0.13
-0.155
-0.16
-0.16
-0.17
-0.155
-0.16
-0.16
-0.16
-0.15
-0.165
-0.15
-0.15
-0.145
-0.155
-0.155
-0.17
-0.19
-0.19
-0.195
-0.195
-0.17
-0.185
-0.16
-0.165
-0.165
-0.18
-0.185
-0.19
-0.195
-0.205
-0.2
-0.205
-0.2
-0.2
-0.195
-0.19
-0.185
-0.185
-0.205
-0.215
-0.215
-0.225
-0.215
-0.22
-0.225
-0.22
-0.225
-0.205
-0.22
-0.21
-0.21
-0.22
-0.225
-0.225
-0.225
-0.235
-0.24
-0.235
-0.225
-0.22
-0.21
-0.205
-0.225
-0.225
-0.235
-0.235
-0.235
-0.23
-0.225
-0.22
-0.215
-0.215
-0.21
-0.215
-0.215
-0.2
-0.22
-0.225
-0.22
-0.22
-0.215
-0.205
-0.205
-0.195
-0.2
-0.19
-0.22
-0.22
-0.22
-0.215
-0.22
-0.22
-0.215
-0.225
-0.22
-0.21
-0.215
-0.215
-0.215
-0.22
-0.23
-0.23
-0.23
-0.225
-0.23
-0.22
-0.215
-0.205
-0.21
-0.22
-0.23
-0.225
-0.225
-0.23
-0.225
-0.21
-0.205
-0.185
-0.175
-0.175
-0.18
-0.185
-0.195
-0.2
-0.2
-0.19
-0.2
-0.185
-0.185
-0.185
-0.175
-0.175
-0.18
-0.185
-0.19
-0.2
-0.195
-0.21
-0.22
-0.2
-0.195
-0.205
-0.2
-0.215
-0.225
-0.24
-0.25
-0.255
-0.255
-0.265
-0.255
-0.25
-0.265
-0.265
-0.25
-0.25
-0.255
-0.235
-0.245
-0.235
-0.235
-0.24
-0.25
-0.24
-0.22
-0.2
-0.17
-0.125
-0.075
0.005
0.115
0.215
0.34
0.45
0.54
0.615
0.665
0.69
0.715
0.735
0.74
0.73
0.66
0.595
0.525
0.445
0.38
0.295
0.225
0.135
0.065
-0.025
-0.08
-0.155
-0.195
-0.23
-0.25
-0.26
-0.25
-0.245
-0.225
-0.23
-0.23
-0.225
-0.21
-0.23
-0.235
-0.245
-0.255
-0.255
-0.245
-0.24
-0.235
-0.235
-0.23
-0.22
-0.21
-0.23
-0.24
-0.23
-0.255
-0.255
-0.245
-0.25
-0.24
-0.245
-0.22
-0.215
-0.205
-0.215
-0.22
-0.24
-0.24
-0.245
-0.25
-0.24
-0.235
-0.225
-0.21
-0.205
-0.21
-0.205
-0.22
-0.235
-0.24
-0.25
-0.235
-0.235
-0.22
-0.2
-0.195
-0.195
-0.2
-0.205
-0.21
-0.22
-0.22
-0.225
-0.225
-0.22
-0.215
-0.2
-0.215
-0.19
-0.19
-0.2
-0.205
-0.22
-0.22
-0.23
-0.225
-0.22
-0.215
-0.215
-0.205
-0.2
-0.205
-0.215
-0.23
-0.245
-0.255
-0.26
-0.26
-0.265
-0.265
-0.26
-0.27
-0.275
-0.275
-0.275
-0.285
-0.3
-0.32
-0.335
-0.345
-0.35
-0.345
-0.365
-0.365
-0.37
-0.385
-0.39
-0.385
-0.405
-0.415
-0.42
-0.435
-0.425
-0.425
-0.42
-0.42
-0.415
-0.415
-0.425
-0.44
-0.45
-0.455
-0.465
-0.46
-0.465
-0.465
-0.46
-0.445
-0.445
-0.455
-0.45
-0.47
-0.47
-0.485
-0.495
-0.49
-0.48
-0.47
-0.495
-0.47
-0.48
-0.49
-0.48
-0.495
-0.52
-0.535
-0.535
-0.55
-0.53
-0.53
-0.545
-0.525
-0.525
-0.525
-0.55
-0.555
-0.56
-0.57
-0.57
-0.585
-0.565
-0.57
-0.57
-0.565
-0.56
-0.575
-0.57
-0.58
-0.595
-0.59
-0.59
-0.595
-0.59
-0.59
-0.585
-0.58
-0.58
-0.58
-0.595
-0.605
-0.6
-0.625
-0.615
-0.605
-0.605
-0.6
-0.6
-0.59
-0.59
-0.59
-0.595
-0.605
-0.605
-0.61
-0.625
-0.63
-0.615
-0.615
-0.61
-0.61
-0.595
-0.6
-0.61
-0.62
-0.64
-0.62
-0.635
-0.62
-0.61
-0.615
-0.61
-0.605
-0.595
-0.6
-0.61
-0.615
-0.61
-0.63
-0.625
-0.625
-0.625
-0.63
-0.615
-0.605
-0.605
-0.6
-0.615
-0.63
-0.63
-0.635
-0.63
-0.64
-0.65
-0.635
-0.625
-0.615
-0.615
-0.615
-0.61
-0.625
-0.635
-0.645
-0.65
-0.645
-0.64
-0.645
-0.64
-0.64
-0.635
-0.64
-0.64
-0.645
-0.655
-0.665
-0.68
-0.665
-0.66
-0.655
-0.645
-0.64
-0.635
-0.655
-0.65
-0.65
-0.665
-0.665
-0.675
-0.69
-0.68
-0.675
-0.665
-0.665
-0.66
-0.665
-0.665
-0.685
-0.695
-0.695
-0.695
-0.7
-0.695
-0.685
-0.695
-0.68
-0.685
-0.67
-0.675
-0.68
-0.69
-0.7
-0.7
-0.7
-0.69
-0.685
-0.68
-0.665
-0.65
-0.645
-0.65
-0.66
-0.675
-0.675
-0.67
-0.68
-0.675
-0.665
-0.655
-0.66
-0.665
-0.665
-0.685
-0.655
-0.675
-0.695
-0.705
-0.705
-0.705
-0.7
-0.71
-0.695
-0.71
-0.72
-0.725
-0.75
-0.765
-0.76
-0.755
-0.76
-0.755
-0.745
-0.725
-0.715
-0.705
-0.71
-0.72
-0.735
-0.735
-0.745
-0.745
-0.74
-0.725
-0.7
-0.67
-0.63
-0.56
-0.49
-0.385
-0.295
-0.175
-0.08
0.01
0.08
0.13
0.17
0.205
0.225
0.25
0.255
0.225
0.16
0.07
-0.02
-0.095
-0.18
-0.255
-0.335
-0.42
-0.485
-0.54
-0.595
-0.645
-0.69
-0.705
-0.735
-0.745
-0.74
-0.74
-0.71
-0.705
-0.69
-0.7
-0.705
-0.71
-0.715
-0.715
-0.725
-0.725
-0.72
-0.72
-0.705
-0.695
-0.695
-0.69
-0.69
-0.705
-0.705
-0.71
-0.715
-0.71
-0.71
-0.705
-0.69
-0.685
-0.675
-0.665
-0.685
-0.675
-0.685
-0.695
-0.71
-0.71
-0.71
-0.71
-0.69
-0.68
-0.68
-0.675
-0.675
-0.675
-0.68
-0.695
-0.705
-0.71
-0.7
-0.71
-0.69
-0.695
-0.68
-0.68
-0.685
-0.685
-0.69
-0.685
-0.695
-0.705
-0.695
-0.69
-0.68
-0.67
-0.675
-0.665
-0.665
-0.665
-0.675
-0.685
-0.68
-0.685
-0.695
-0.69
-0.68
-0.68
-0.675
-0.68
-0.685
-0.695
-0.705
-0.715
-0.725
-0.735
-0.74
-0.74
-0.75
-0.745
-0.735
-0.745
-0.75
-0.765
-0.77
-0.79
-0.81
-0.825
-0.835
-0.84
-0.84
-0.85
-0.845
-0.825
-0.835
-0.835
-0.855
-0.865
-0.875
-0.87
-0.885
-0.885
-0.885
-0.86
-0.875
-0.855
-0.875
-0.865
-0.875
-0.88
-0.885
-0.895
-0.905
-0.895
-0.9
-0.885
-0.88
-0.87
-0.88
-0.875
-0.9
-0.9
-0.91
-0.92
-0.925
-0.915
-0.915
-0.915
-0.905
-0.91
-0.91
-0.92
-0.925
-0.94
-0.94
-0.97
-0.965
-0.96
-0.96
-0.95
-0.945
-0.935
-0.935
-0.955
-0.975
-0.975
-0.985
-0.995
-0.99
-0.99
-0.985
-0.98
-0.975
-0.985
-0.965
-0.96
-0.97
-0.995
-0.995
-0.99
-0.995
-0.995
-0.99
-0.98
-0.98
-0.98
-0.98
-0.975
-0.985
-0.99
-0.99
-0.995
-1.0
-0.995
-0.985
-0.995
-0.975
-0.975
-0.97
-0.965
-0.99
-0.98
-0.995
-0.995
-0.995
-1.01
-1.0
-0.99
-0.985
-0.975
-0.975
-0.985
-0.98
-0.99
-1.0
-1.005
-1.02
-1.005
-1.005
-0.99
-0.99
-0.98
-0.98
-0.985
-1.0
-1.005
-1.005
-1.015
-1.005
-1.015
-1.01
-0.995
-0.99
-0.985
-0.99
-0.995
-0.995
-1.015
-1.005
-1.015
-1.0
-0.995
-0.99
-0.99
-0.98
-0.985
-0.985
-0.985
-0.99
-0.995
-1.005
-1.015
-1.015
-1.005
-0.995
-0.995
-0.975
-0.98
-0.985
-0.985
-0.995
-0.995
-1.005
-1.005
-1.01
-1.0
-0.99
-1.0
-1.005
-0.99
-1.0
-1.0
-0.985
-0.995
-1.005
-1.01
-1.015
-1.005
-1.015
-1.0
-0.995
-0.99
-1.0
-0.985
-1.005
-1.005
-1.0
-0.99
-0.985
-0.975
-0.96
-0.95
-0.94
-0.925
-0.93
-0.94
-0.95
-0.955
-0.95
-0.965
-0.96
-0.955
-0.945
-0.94
-0.935
-0.945
-0.945
-0.945
-0.935
-0.95
-0.95
-0.95
-0.955
-0.965
-0.965
-0.955
-0.96
-0.95
-0.965
-0.975
-0.995
-1.0
-1.015
-1.015
-1.015
-1.005
-1.01
-0.995
-0.995
-0.98
-0.98
-0.97
-0.975
-0.985
-0.99
-0.985
-0.99
-0.99
-0.965
-0.94
-0.905
-0.85
-0.79
-0.695
-0.6
-0.475
-0.365
-0.28
-0.215
-0.15
-0.135
-0.095
-0.065
-0.045
-0.04
-0.07
-0.125
-0.205
-0.27
-0.345
-0.42
-0.495
-0.585
-0.655
-0.725
-0.79
-0.845
-0.89
-0.94
-0.97
-0.99
-0.995
-0.985
-0.975
-0.965
-0.955
-0.96
-0.95
-0.95
-0.96
-0.965
-0.965
-0.97
-0.975
-0.97
-0.97
-0.965
-0.97
-0.955
-0.955
-0.95
-0.95
-0.96
-0.96
-0.97
-0.98
-0.965
-0.96
-0.96
-0.945
-0.93
-0.925
-0.945
-0.93
-0.935
-0.93
-0.945
-0.94
-0.95
-0.955
-0.94
-0.95
-0.94
-0.925
-0.935
-0.93
-0.935
-0.935
-0.94
-0.93
-0.94
-0.945
-0.93
-0.935
-0.92
-0.915
-0.905
-0.905
-0.915
-0.91
-0.925
-0.95
-0.95
-0.94
-0.93
-0.915
-0.905
-0.905
-0.92
-0.9
-0.91
-0.92
-0.94
-0.935
-0.935
-0.935
-0.915
-0.915
-0.905
-0.915
-0.92
-0.92
-0.92
-0.935
-0.945
-0.965
-0.965
-0.965
-0.965
-0.965
-0.965
-0.975
-0.97
-0.99
-1.005
-1.015
-1.04
-1.035
-1.05
-1.055
-1.055
-1.055
-1.07
-1.065
-1.07
-1.07
-1.085
-1.085
-1.09
-1.105
-1.12
-1.115
-1.125
-1.105
-1.105
-1.105
-1.1
-1.09
-1.095
-1.115
-1.13
-1.13
-1.14
-1.14
-1.135
-1.135
-1.115
-1.11
-1.105
-1.125
-1.13
-1.14
-1.145
-1.155
-1.15
-1.16
-1.16
-1.16
-1.15
-1.145
-1.15
-1.155
-1.16
-1.165
-1.18
-1.2
-1.195
-1.205
-1.195
-1.2
-1.195
-1.19
-1.195
-1.2
-1.21
-1.215
-1.23
-1.23
-1.25
-1.255
-1.24
-1.235
-1.22
-1.21
-1.215
-1.225
-1.235
-1.24
-1.26
-1.25
-1.245
-1.245
-1.245
-1.23
-1.225
-1.225
-1.225
-1.22
-1.23
-1.23
-1.235
-1.25
-1.245
-1.245
-1.24
-1.235
-1.23
-1.225
-1.215
-1.23
-1.22
-1.23
-1.24
-1.245
-1.24
-1.235
-1.23
-1.235
-1.225
-1.215
-1.235
-1.24
-1.225
-1.23
-1.245
-1.24
-1.24
-1.235
-1.23
-1.235
-1.215
-1.2
-1.22
-1.215
-1.22
-1.22
-1.23
-1.245
-1.235
-1.235
-1.23
-1.21
-1.215
-1.225
-1.22
-1.225
-1.22
-1.23
-1.235
-1.245
-1.24
-1.235
-1.235
-1.225
-1.215
-1.21
-1.215
-1.215
-1.22
-1.225
-1.225
-1.23
-1.235
-1.24
-1.235
-1.235
-1.22
-1.205
-1.21
-1.215
-1.22
-1.225
-1.24
-1.24
-1.245
-1.24
-1.245
-1.24
-1.235
-1.22
-1.23
-1.23
-1.23
-1.235
-1.245
-1.24
-1.245
-1.24
-1.24
-1.235
-1.23
-1.22
-1.22
-1.22
-1.23
-1.235
-1.235
-1.225
-1.23
-1.235
-1.22
-1.21
-1.195
-1.19
-1.175
-1.185
-1.19
-1.205
-1.215
-1.215
-1.215
-1.2
-1.19
-1.195
-1.18
-1.165
-1.175
-1.18
-1.18
-1.19
-1.195
-1.21
-1.195
-1.195
-1.19
-1.185
-1.185
-1.175
-1.19
-1.2
-1.21
-1.21
-1.23
-1.24
-1.25
-1.25
-1.245
-1.235
-1.235
-1.24
-1.25
-1.235
-1.24
-1.24
-1.24
-1.255
-1.245
-1.235
-1.23
-1.22
-1.215
-1.2
-1.195
-1.2
-1.18
-1.155
-1.105
-1.045
-0.97
-0.865
-0.76
-0.65
-0.56
-0.495
-0.445
-0.42
-0.405
-0.375
-0.335
-0.33
-0.35
-0.385
-0.45
-0.515
-0.575
-0.63
-0.705
-0.795
-0.875
-0.95
-1.025
-1.085
-1.135
-1.17
-1.195
-1.205
-1.22
-1.205
-1.205
-1.195
-1.21
-1.205
-1.205
-1.215
-1.215
-1.22
-1.215
-1.2
-1.195
-1.185
-1.19
-1.205
-1.2
-1.21
-1.215
-1.22
-1.225
-1.205
-1.205
-1.205
-1.19
-1.175
-1.175
-1.17
-1.185
-1.195
-1.2
-1.185
-1.195
-1.185
-1.17
-1.17
-1.165
-1.16
-1.145
-1.155
-1.165
-1.17
-1.175
-1.18
-1.175
-1.18
-1.175
-1.165
-1.15
-1.145
-1.15
-1.155
-1.155
-1.16
-1.165
-1.165
-1.165
-1.17
-1.165
-1.18
-1.155
-1.14
-1.135
-1.145
-1.145
-1.15
-1.155
-1.155
-1.155
-1.15
-1.14
-1.14
-1.12
-1.105
-1.12
-1.11
-1.115
-1.13
-1.125
-1.135
-1.14
-1.14
-1.135
-1.13
-1.13
-1.13
-1.135
-1.135
-1.15
-1.155
-1.17
-1.175
-1.17
-1.185
-1.185
-1.17
-1.195
-1.19
-1.205
-1.215
-1.23
-1.235
-1.25
-1.265
-1.28
-1.285
-1.275
-1.275
-1.285
-1.285
-1.3
-1.305
-1.31
-1.315
-1.31
-1.32
-1.325
-1.315
-1.31
-1.33
-1.315
-1.3
-1.305
-1.315
-1.315
-1.335
-1.335
-1.34
-1.345
-1.34
-1.33
-1.325
-1.325
-1.315
-1.325
-1.33
-1.34
-1.355
-1.355
-1.365
-1.36
-1.36
-1.355
-1.35
-1.345
-1.345
-1.345
-1.36
-1.37
-1.395
-1.39
-1.395
-1.395
-1.405
-1.415
-1.39
-1.395
-1.385
-1.395
-1.395
-1.405
-1.41
-1.415
-1.43
-1.435
-1.44
-1.425
-1.435
-1.425
-1.405
-1.42
-1.415
-1.42
-1.425
-1.43
-1.435
-1.44
-1.44
-1.43
-1.42
-1.415
-1.41
-1.41
-1.415
-1.41
-1.415
-1.42
-1.435
-1.435
-1.43
-1.425
-1.415
-1.405
-1.395
-1.395
-1.4
-1.405
-1.42
-1.435
-1.43
-1.425
-1.425
-1.41
-1.405
-1.4
-1.38
-1.4
-1.4
-1.4
-1.4
-1.41
-1.41
-1.42
-1.425
-1.415
-1.415
-1.41
-1.39
-1.39
-1.385
-1.395
-1.39
-1.395
-1.415
-1.425
-1.42
-1.41
-1.405
-1.395
-1.385
-1.375
-1.375
-1.4
-1.4
-1.405
-1.41
-1.42
-1.42
-1.415
-1.41
-1.395
-1.38
-1.38
-1.395
-1.395
-1.4
-1.4
-1.405
-1.41
-1.4
-1.41
-1.39
-1.375
-1.375
-1.385
-1.395
-1.38
-1.395
-1.4
-1.415
-1.39
-1.41
-1.4
-1.39
-1.385
-1.375
-1.37
-1.365
-1.375
-1.385
-1.39
-1.395
-1.405
-1.405
-1.395
-1.39
-1.37
-1.37
-1.36
-1.36
-1.37
-1.38
-1.37
-1.375
-1.37
-1.365
-1.345
-1.33
-1.315
-1.305
-1.315
-1.325
-1.33
-1.335
-1.34
-1.335
-1.33
-1.335
-1.33
-1.325
-1.335
-1.325
-1.32
-1.315
-1.325
-1.33
-1.33
-1.345
-1.355
-1.355
-1.365
-1.355
-1.36
-1.355
-1.365
-1.36
-1.375
-1.375
-1.385
-1.38
-1.385
-1.385
-1.375
-1.37
-1.36
-1.355
-1.345
-1.355
-1.35
-1.355
-1.35
-1.35
-1.35
-1.33
-1.31
-1.26
-1.21
-1.12
-1.045
-0.945
-0.84
-0.765
-0.7
-0.64
-0.61
-0.6
-0.565
-0.53
-0.49
-0.465
-0.485
-0.53
-0.6
-0.69
-0.77
-0.855
-0.945
-1.025
-1.08
-1.125
-1.175
-1.2
-1.245
-1.28
-1.32
-1.345
-1.355
-1.35
-1.355
-1.34
-1.345
-1.34
-1.32
-1.315
-1.31
-1.31
-1.315
-1.31
-1.31
-1.32
-1.32
-1.325
-1.32
-1.31
-1.315
-1.295
-1.285
-1.28
-1.295
-1.295
-1.31
-1.29
-1.295
-1.305
-1.31
-1.3
-1.27
-1.265
-1.255
-1.255
-1.265
-1.275
-1.275
-1.275
-1.27
-1.27
-1.28
-1.265
-1.255
-1.24
-1.245
-1.245
-1.245
-1.245
-1.255
-1.255
-1.265
-1.26
-1.255
-1.245
-1.24
-1.22
-1.22
-1.215
-1.225
-1.23
-1.235
-1.235
-1.245
-1.245
-1.225
-1.215
-1.21
-1.205
-1.19
-1.205
-1.205
-1.21
-1.21
-1.21
-1.22
-1.22
-1.215
-1.215
-1.215
-1.205
-1.21
-1.215
-1.24
-1.24
-1.25
-1.255
-1.255
-1.26
-1.26
-1.27
-1.27
-1.27
-1.28
-1.29
-1.3
-1.325
-1.335
-1.34
-1.355
-1.365
-1.36
-1.37
-1.38
-1.365
-1.37
-1.385
-1.375
-1.395
-1.4
-1.405
-1.415
-1.42
-1.41
-1.42
-1.41
-1.4
-1.405
-1.395
-1.405
-1.42
-1.415
-1.425
-1.435
-1.435
-1.43
-1.43
-1.435
-1.42
-1.42
-1.425
-1.425
-1.425
-1.435
-1.44
-1.445
-1.445
-1.445
-1.44
-1.45
-1.45
-1.45
-1.455
-1.455
-1.47
-1.47
-1.47
-1.49
-1.495
-1.495
-1.495
-1.495
-1.5
-1.49
-1.49
-1.485
-1.49
-1.495
-1.505
-1.505
-1.515
-1.51
-1.5
-1.495
-1.495
-1.485
-1.485
-1.495
-1.495
-1.505
-1.51
-1.51
-1.515
-1.51
-1.5
-1.505
-1.49
-1.49
-1.48
-1.5
-1.505
-1.51
-1.52
-1.52
-1.52
-1.505
-1.505
-1.5
-1.49
-1.485
-1.49
-1.495
-1.505
-1.505
-1.515
-1.52
-1.51
-1.51
-1.51
-1.5
-1.485
-1.465
-1.475
-1.485
-1.5
-1.5
-1.505
-1.525
-1.52
-1.515
-1.49
-1.485
-1.47
-1.465
-1.475
-1.475
-1.49
-1.485
-1.48
-1.49
-1.505
-1.485
-1.47
-1.465
-1.47
-1.465
-1.47
-1.475
-1.475
-1.475
-1.475
-1.485
-1.485
-1.47
-1.465
-1.465
-1.465
-1.45
-1.45
-1.46
-1.455
-1.455
-1.47
-1.47
-1.475
-1.48
-1.47
-1.46
-1.45
-1.45
-1.47
-1.465
-1.46
-1.48
-1.48
-1.48
-1.47
-1.465
-1.455
-1.465
-1.455
-1.45
-1.445
-1.455
-1.44
-1.455
-1.45
-1.445
-1.455
-1.445
-1.445
-1.435
-1.455
-1.435
-1.435
-1.44
-1.445
-1.45
-1.46
-1.47
-1.445
-1.44
-1.425
-1.415
-1.395
-1.375
-1.375
-1.37
-1.38
-1.39
-1.39
-1.4
-1.39
-1.39
-1.38
-1.375
-1.38
-1.37
-1.375
-1.39
-1.39
-1.4
-1.41
-1.4
-1.41
-1.4
-1.385
-1.385
-1.375
-1.385
-1.39
-1.405
-1.425
-1.435
-1.45
-1.455
-1.445
-1.44
-1.44
-1.42
-1.415
-1.41
-1.42
-1.415
-1.42
-1.42
-1.42
-1.42
-1.425
-1.395
-1.38
-1.375
-1.36
-1.34
-1.3
-1.255
-1.195
-1.105
-1.015
-0.925
-0.84
-0.75
-0.695
-0.665
-0.63
-0.59
-0.565
-0.53
-0.53
-0.55
-0.595
-0.66
-0.74
-0.825
-0.905
-0.99
-1.075
-1.125
-1.2
-1.245
-1.27
-1.31
-1.345
-1.39
-1.4
-1.4
-1.39
-1.38
-1.37
-1.355
-1.365
-1.365
-1.365
-1.375
-1.38
-1.385
-1.37
-1.365
-1.35
-1.345
-1.33
-1.33
-1.325
-1.325
-1.345
-1.345
-1.34
-1.34
-1.33
-1.33
-1.315
-1.3
-1.295
-1.295
-1.29
-1.3
-1.3
-1.305
-1.305
-1.315
-1.31
-1.305
-1.295
-1.285
-1.27
-1.265
-1.275
-1.27
-1.28
-1.29
-1.285
-1.29
-1.285
-1.275
-1.265
-1.25
-1.245
-1.245
-1.265
-1.26
-1.275
-1.265
-1.27
-1.26
-1.26
-1.235
-1.235
-1.24
-1.23
-1.23
-1.225
-1.215
-1.22
-1.23
-1.225
-1.235
-1.235
-1.24
-1.235
-1.22
-1.215
-1.215
-1.225
-1.22
-1.24
-1.245
-1.26
-1.265
-1.26
-1.27
-1.26
-1.27
-1.27
-1.27
-1.285
-1.305
-1.32
-1.325
-1.35
-1.355
-1.375
-1.37
-1.365
-1.37
-1.37
-1.375
-1.375
-1.385
-1.39
-1.395
-1.41
-1.41
-1.405
-1.41
-1.405
-1.41
-1.39
-1.39
-1.39
-1.395
-1.405
-1.43
-1.43
-1.43
-1.415
-1.41
-1.415
-1.41
-1.405
-1.4
-1.41
-1.41
-1.42
-1.43
-1.43
-1.445
-1.45
-1.44
-1.44
-1.435
-1.435
-1.435
-1.44
-1.43
-1.45
-1.445
-1.465
-1.47
-1.47
-1.47
-1.465
-1.465
-1.47
-1.47
-1.47
-1.475
-1.48
-1.48
-1.495
-1.505
-1.49
-1.485
-1.48
-1.48
-1.465
-1.465
-1.475
-1.475
-1.49
-1.485
-1.495
-1.5
-1.51
-1.5
-1.5
-1.485
-1.495
-1.49
-1.48
-1.485
-1.485
-1.48
-1.485
-1.485
-1.49
-1.48
-1.475
-1.47
-1.465
-1.46
-1.46
-1.46
-1.465
-1.47
-1.48
-1.485
-1.48
-1.48
-1.46
-1.45
-1.45
-1.46
-1.46
-1.46
-1.46
-1.465
-1.475
-1.47
-1.48
-1.46
-1.455
-1.445
-1.435
-1.43
-1.43
-1.435
-1.435
-1.45
-1.455
-1.455
-1.455
-1.44
-1.45
-1.44
-1.435
-1.425
-1.42
-1.425
-1.44
-1.445
-1.44
-1.45
-1.445
-1.445
-1.44
-1.43
-1.425
-1.42
-1.425
-1.41
-1.425
-1.425
-1.445
-1.435
-1.445
-1.44
-1.425
-1.415
-1.42
-1.405
-1.415
-1.41
-1.4
-1.42
-1.425
-1.425
-1.42
-1.425
-1.41
-1.4
-1.39
-1.415
-1.405
-1.4
-1.395
-1.41
-1.415
-1.41
-1.415
-1.41
-1.4
-1.4
-1.395
-1.39
-1.39
-1.4
-1.4
-1.4
-1.405
-1.385
-1.37
-1.37
-1.355
-1.345
-1.33
-1.32
-1.32
-1.315
-1.315
-1.31
-1.33
-1.34
-1.33
-1.325
-1.325
-1.32
-1.305
-1.3
-1.3
-1.3
-1.315
-1.32
-1.32
-1.325
-1.315
-1.32
-1.31
-1.305
-1.305
-1.295
-1.31
-1.32
-1.335
-1.345
-1.365
-1.37
-1.37
-1.365
-1.355
-1.345
-1.35
-1.33
-1.34
-1.34
-1.335
-1.35
-1.36
-1.345
-1.345
-1.335
-1.32
-1.305
-1.29
-1.27
-1.275
-1.235
-1.2
-1.165
-1.09
-1.005
-0.91
-0.81
-0.71
-0.64
-0.59
-0.555
-0.54
-0.495
-0.475
-0.46
-0.46
-0.495
-0.555
-0.62
-0.685
-0.76
-0.825
-0.895
-0.97
-1.045
-1.1
-1.145
-1.19
-1.225
-1.255
-1.275
-1.285
-1.29
-1.265
-1.25
-1.25
-1.24
-1.25
-1.245
-1.245
-1.265
-1.26
-1.25
-1.25
-1.235
-1.23
-1.215
-1.21
-1.22
-1.22
-1.225
-1.225
-1.23
-1.225
-1.215
-1.205
-1.215
-1.195
