Lead II
-0.56
-0.565
-0.56
-0.585
-0.59
-0.595
-0.6
-0.59
-0.595
-0.585
-0.585
-0.575
-0.58
-0.575
-0.58
-0.585
-0.575
-0.565
-0.57
-0.57
-0.55
-0.55
-0.535
-0.525
-0.525
-0.535
-0.525
-0.535
-0.53
-0.555
-0.55
-0.55
-0.54
-0.53
-0.52
-0.52
-0.51
-0.515
-0.525
-0.535
-0.55
-0.56
-0.565
-0.56
-0.56
-0.565
-0.56
-0.555
-0.56
-0.555
-0.58
-0.58
-0.585
-0.59
-0.565
-0.565
-0.555
-0.555
-0.545
-0.54
-0.54
-0.545
-0.54
-0.545
-0.55
-0.56
-0.565
-0.56
-0.565
-0.57
-0.58
-0.575
-0.585
-0.585
-0.58
-0.58
-0.585
-0.59
-0.58
-0.565
-0.535
-0.535
-0.53
-0.52
-0.525
-0.555
-0.575
-0.58
-0.57
-0.495
-0.375
-0.2
0.02
0.26
0.545
0.83
1.09
1.295
1.41
1.44
1.415
1.33
1.17
0.88
0.46
-0.015
-0.395
-0.65
-0.75
-0.74
-0.69
-0.645
-0.59
-0.585
-0.58
-0.605
-0.62
-0.635
-0.635
-0.625
-0.63
-0.64
-0.655
-0.66
-0.68
-0.695
-0.695
-0.69
-0.7
-0.705
-0.72
-0.725
-0.74
-0.745
-0.75
-0.755
-0.745
-0.75
-0.755
-0.75
-0.75
-0.745
-0.725
-0.73
-0.73
-0.735
-0.74
-0.755
-0.755
-0.765
-0.76
-0.77
-0.765
-0.765
-0.765
-0.76
-0.76
-0.785
-0.78
-0.8
-0.825
-0.835
-0.84
-0.85
-0.85
-0.86
-0.865
-0.86
-0.855
-0.875
-0.885
-0.89
-0.9
-0.915
-0.92
-0.945
-0.925
-0.93
-0.94
-0.945
-0.96
-0.96
-0.98
-0.995
-1.02
-1.04
-1.06
-1.07
-1.09
-1.105
-1.11
-1.125
-1.135
-1.14
-1.15
-1.165
-1.155
-1.155
-1.13
-1.11
-1.085
-1.055
-1.03
-0.995
-0.97
-0.945
-0.92
-0.895
-0.87
-0.865
-0.83
-0.805
-0.77
-0.745
-0.71
-0.69
-0.665
-0.67
-0.665
-0.67
-0.66
-0.65
-0.645
-0.64
-0.645
-0.625
-0.625
-0.605
-0.595
-0.6
-0.605
-0.61
-0.615
-0.625
-0.62
-0.61
-0.6
-0.595
-0.605
-0.59
-0.585
-0.59
-0.595
-0.6
-0.605
-0.615
-0.605
-0.6
-0.59
-0.58
-0.565
-0.565
-0.565
-0.555
-0.56
-0.56
-0.57
-0.565
-0.56
-0.56
-0.545
-0.53
-0.515
-0.51
-0.51
-0.51
-0.525
-0.54
-0.545
-0.55
-0.535
-0.55
-0.545
-0.54
-0.535
-0.535
-0.54
-0.545
-0.565
-0.575
-0.57
-0.56
-0.56
-0.55
-0.55
-0.535
-0.54
-0.52
-0.53
-0.555
-0.58
-0.595
-0.585
-0.525
-0.405
-0.215
-0.005
0.255
0.505
0.775
1.025
1.24
1.37
1.445
1.435
1.345
1.185
0.905
0.495
0.035
-0.36
-0.605
-0.72
-0.715
-0.68
-0.635
-0.6
-0.585
-0.58
-0.605
-0.61
-0.625
-0.63
-0.64
-0.655
-0.665
-0.68
-0.69
-0.705
-0.715
-0.715
-0.72
-0.71
-0.715
-0.715
-0.715
-0.71
-0.715
-0.73
-0.745
-0.76
-0.765
-0.765
-0.765
-0.76
-0.76
-0.755
-0.755
-0.75
-0.755
-0.775
-0.775
-0.775
-0.79
-0.795
-0.825
-0.82
-0.825
-0.81
-0.82
-0.845
-0.86
-0.89
-0.89
-0.9
-0.915
-0.91
-0.925
-0.92
-0.915
-0.91
-0.895
-0.895
-0.895
-0.91
-0.92
-0.935
-0.955
-0.965
-0.97
-0.97
-0.975
-0.98
-1.005
-1.01
-1.025
-1.04
-1.065
-1.085
-1.095
-1.105
-1.105
-1.115
-1.11
-1.105
-1.09
-1.075
-1.06
-1.055
-1.03
-1.01
-0.985
-0.955
-0.925
-0.885
-0.85
-0.815
-0.8
-0.78
-0.755
-0.755
-0.755
-0.735
-0.735
-0.71
-0.705
-0.68
-0.665
-0.65
-0.64
-0.635
-0.625
-0.625
-0.635
-0.64
-0.645
-0.64
-0.655
-0.63
-0.63
-0.62
-0.6
-0.595
-0.58
-0.58
-0.59
-0.58
-0.595
-0.58
-0.59
-0.565
-0.555
-0.55
-0.55
-0.545
-0.55
-0.545
-0.565
-0.575
-0.58
-0.58
-0.58
-0.57
-0.56
-0.56
-0.555
-0.56
-0.565
-0.565
-0.575
-0.58
-0.585
-0.6
-0.605
-0.59
-0.605
-0.595
-0.6
-0.595
-0.6
-0.605
-0.62
-0.625
-0.635
-0.635
-0.635
-0.635
-0.63
-0.61
-0.605
-0.61
-0.61
-0.605
-0.62
-0.625
-0.635
-0.625
-0.625
-0.615
-0.61
-0.605
-0.595
-0.59
-0.575
-0.59
-0.6
-0.605
-0.6
-0.595
-0.595
-0.575
-0.575
-0.57
-0.57
-0.56
-0.56
-0.58
-0.57
-0.57
-0.59
-0.575
-0.57
-0.58
-0.57
-0.56
-0.57
-0.565
-0.575
-0.58
-0.595
-0.575
-0.58
-0.585
-0.59
-0.59
-0.59
-0.59
-0.59
-0.585
-0.585
-0.59
-0.595
-0.6
-0.6
-0.6
-0.6
-0.6
-0.59
-0.59
-0.585
-0.58
-0.585
-0.585
-0.59
-0.6
-0.605
-0.595
-0.605
-0.6
-0.595
-0.595
-0.59
-0.595
-0.595
-0.615
-0.605
-0.62
-0.615
-0.63
-0.615
-0.605
-0.605
-0.6
-0.59
-0.58
-0.585
-0.595
-0.595
-0.605
-0.61
-0.595
-0.595
-0.585
-0.575
-0.57
-0.575
-0.56
-0.565
-0.575
-0.585
-0.605
-0.61
-0.62
-0.63
-0.615
-0.615
-0.62
-0.61
-0.605
-0.605
-0.605
-0.615
-0.605
-0.595
-0.595
-0.58
-0.57
-0.56
-0.555
-0.545
-0.54
-0.55
-0.545
-0.56
-0.56
-0.57
-0.57
-0.57
-0.555
-0.56
-0.555
-0.54
-0.54
-0.545
-0.555
-0.56
-0.58
-0.6
-0.6
-0.62
-0.63
-0.61
-0.575
-0.45
-0.295
-0.085
0.145
0.405
0.685
0.95
1.175
1.35
1.44
1.45
1.415
1.295
1.1
0.775
0.34
-0.14
-0.52
-0.745
-0.82
-0.81
-0.74
-0.68
-0.63
-0.63
-0.63
-0.665
-0.685
-0.695
-0.7
-0.71
-0.71
-0.705
-0.685
-0.695
-0.7
-0.69
-0.69
-0.69
-0.7
-0.715
-0.73
-0.74
-0.74
-0.74
-0.74
-0.735
-0.73
-0.74
-0.735
-0.745
-0.75
-0.765
-0.775
-0.785
-0.79
-0.795
-0.8
-0.8
-0.81
-0.81
-0.82
-0.835
-0.84
-0.855
-0.865
-0.88
-0.865
-0.875
-0.86
-0.86
-0.855
-0.865
-0.875
-0.88
-0.89
-0.895
-0.93
-0.94
-0.94
-0.955
-0.95
-0.925
-0.935
-0.915
-0.915
-0.925
-0.94
-0.945
-0.975
-0.98
-0.99
-1.005
-1.025
-1.025
-1.03
-1.035
-1.055
-1.075
-1.09
-1.105
-1.12
-1.135
-1.145
-1.15
-1.15
-1.15
-1.175
-1.165
-1.17
-1.16
-1.155
-1.16
-1.14
-1.125
-1.11
-1.095
-1.055
-1.025
-0.995
-0.955
-0.925
-0.905
-0.875
-0.87
-0.84
-0.825
-0.805
-0.8
-0.755
-0.735
-0.725
-0.7
-0.675
-0.655
-0.645
-0.64
-0.635
-0.63
-0.635
-0.61
-0.585
-0.58
-0.565
-0.54
-0.545
-0.55
-0.545
-0.555
-0.55
-0.57
-0.57
-0.55
-0.545
-0.535
-0.545
-0.545
-0.53
-0.535
-0.54
-0.55
-0.565
-0.58
-0.57
-0.575
-0.57
-0.56
-0.555
-0.55
-0.55
-0.54
-0.545
-0.57
-0.57
-0.57
-0.58
-0.585
-0.575
-0.585
-0.575
-0.565
-0.59
-0.565
-0.565
-0.57
-0.57
-0.57
-0.58
-0.6
-0.595
-0.59
-0.575
-0.545
-0.55
-0.555
-0.555
-0.555
-0.56
-0.56
-0.545
-0.545
-0.53
-0.51
-0.51
-0.5
-0.5
-0.505
-0.505
-0.505
-0.495
-0.5
-0.5
-0.495
-0.48
-0.48
-0.485
-0.485
-0.495
-0.495
-0.51
-0.515
-0.515
-0.53
-0.525
-0.54
-0.54
-0.535
-0.545
-0.53
-0.535
-0.55
-0.565
-0.575
-0.58
-0.595
-0.585
-0.58
-0.57
-0.56
-0.565
-0.57
-0.57
-0.575
-0.58
-0.59
-0.595
-0.6
-0.615
-0.595
-0.595
-0.585
-0.575
-0.57
-0.565
-0.575
-0.575
-0.58
-0.585
-0.59
-0.595
-0.59
-0.59
-0.575
-0.57
-0.56
-0.56
-0.56
-0.545
-0.54
-0.535
-0.52
-0.515
-0.51
-0.515
-0.52
-0.535
-0.53
-0.515
-0.43
-0.29
-0.11
0.095
0.32
0.6
0.875
1.145
1.355
1.46
1.495
1.47
1.39
1.22
0.955
0.56
0.085
-0.36
-0.665
-0.81
-0.83
-0.77
-0.68
-0.62
-0.585
-0.585
-0.605
-0.65
-0.69
-0.715
-0.725
-0.725
-0.715
-0.705
-0.705
-0.71
-0.71
-0.715
-0.735
-0.74
-0.76
-0.77
-0.755
-0.74
-0.72
-0.71
-0.71
-0.705
-0.71
-0.715
-0.715
-0.72
-0.735
-0.725
-0.72
-0.71
-0.7
-0.695
-0.695
-0.69
-0.7
-0.71
-0.73
-0.735
-0.74
-0.755
-0.745
-0.75
-0.75
-0.75
-0.75
-0.77
-0.795
-0.81
-0.815
-0.84
-0.845
-0.85
-0.855
-0.855
-0.86
-0.87
-0.865
-0.875
-0.89
-0.905
-0.92
-0.945
-0.96
-0.97
-0.97
-0.98
-0.99
-0.99
-0.995
-1.01
-1.01
-1.03
-1.05
-1.06
-1.08
-1.095
-1.1
-1.105
-1.1
-1.095
-1.09
-1.08
-1.085
-1.075
-1.065
-1.065
-1.06
-1.03
-0.995
-0.96
-0.92
-0.875
-0.855
-0.825
-0.785
-0.76
-0.74
-0.72
-0.705
-0.69
-0.685
-0.66
-0.65
-0.62
-0.615
-0.605
-0.605
-0.61
-0.62
-0.615
-0.63
-0.63
-0.625
-0.625
-0.63
-0.615
-0.605
-0.62
-0.625
-0.62
-0.635
-0.625
-0.635
-0.61
-0.59
-0.59
-0.575
-0.58
-0.565
-0.57
-0.575
-0.585
-0.58
-0.59
-0.595
-0.595
-0.585
-0.575
-0.57
-0.55
-0.535
-0.54
-0.54
-0.52
-0.525
-0.515
-0.515
-0.51
-0.51
-0.505
-0.495
-0.485
-0.475
-0.475
-0.475
-0.47
-0.485
-0.49
-0.51
-0.51
-0.515
-0.52
-0.52
-0.505
-0.5
-0.5
-0.495
-0.52
-0.53
-0.535
-0.555
-0.555
-0.55
-0.56
-0.56
-0.555
-0.555
-0.57
-0.575
-0.57
-0.57
-0.57
-0.58
-0.58
-0.585
-0.565
-0.565
-0.575
-0.555
-0.565
-0.56
-0.57
-0.565
-0.58
-0.555
-0.56
-0.555
-0.55
-0.55
-0.54
-0.525
-0.52
-0.53
-0.525
-0.525
-0.53
-0.52
-0.525
-0.52
-0.515
-0.51
-0.485
-0.48
-0.47
-0.48
-0.49
-0.505
-0.515
-0.545
-0.57
-0.585
-0.575
-0.525
-0.445
-0.3
-0.12
0.08
0.335
0.59
0.865
1.115
1.315
1.445
1.495
1.485
1.43
1.29
1.045
0.655
0.19
-0.26
-0.585
-0.745
-0.775
-0.745
-0.675
-0.615
-0.58
-0.565
-0.59
-0.6
-0.635
-0.65
-0.655
-0.67
-0.665
-0.665
-0.67
-0.665
-0.665
-0.655
-0.66
-0.67
-0.66
-0.685
-0.68
-0.685
-0.68
-0.675
-0.67
-0.655
-0.665
-0.655
-0.66
-0.66
-0.67
-0.68
-0.69
-0.705
-0.715
-0.715
-0.71
-0.715
-0.705
-0.71
-0.73
-0.725
-0.73
-0.75
-0.76
-0.765
-0.79
-0.795
-0.795
-0.81
-0.82
-0.835
-0.85
-0.86
-0.86
-0.875
-0.885
-0.895
-0.905
-0.915
-0.905
-0.905
-0.9
-0.9
-0.9
-0.92
-0.94
-0.945
-0.96
-0.995
-1.0
-0.99
-1.0
-1.005
-1.005
-1.025
-1.02
-1.035
-1.03
-1.04
-1.05
-1.065
-1.075
-1.075
-1.065
-1.055
-1.05
-1.035
-1.015
-0.995
-0.995
-0.97
-0.955
-0.945
-0.915
-0.88
-0.845
-0.81
-0.785
-0.75
-0.725
-0.72
-0.715
-0.705
-0.705
-0.695
-0.7
-0.695
-0.69
-0.68
-0.68
-0.675
-0.66
-0.655
-0.645
-0.645
-0.64
-0.63
-0.62
-0.605
-0.6
-0.575
-0.585
-0.575
-0.58
-0.57
-0.575
-0.58
-0.57
-0.57
-0.565
-0.57
-0.56
-0.545
-0.515
-0.505
-0.495
-0.5
-0.495
-0.5
-0.515
-0.52
-0.525
-0.52
-0.51
-0.515
-0.49
-0.495
-0.49
-0.515
-0.515
-0.52
-0.52
-0.525
-0.535
-0.55
-0.55
-0.555
-0.565
-0.56
-0.565
-0.585
-0.585
-0.605
-0.605
-0.625
-0.63
-0.64
-0.65
-0.645
-0.63
-0.61
-0.59
-0.575
-0.58
-0.575
-0.565
-0.57
-0.565
-0.565
-0.545
-0.525
-0.53
-0.525
-0.5
-0.52
-0.515
-0.515
-0.52
-0.535
-0.53
-0.505
-0.5
-0.49
-0.485
-0.48
-0.485
-0.48
-0.475
-0.49
-0.495
-0.495
-0.51
-0.51
-0.505
-0.495
-0.495
-0.485
-0.49
-0.5
-0.52
-0.53
-0.535
-0.555
-0.555
-0.575
-0.575
-0.575
-0.59
-0.595
-0.6
-0.605
-0.62
-0.625
-0.615
-0.63
-0.63
-0.615
-0.62
-0.615
-0.6
-0.59
-0.575
-0.575
-0.565
-0.565
-0.56
-0.57
-0.57
-0.56
-0.565
-0.55
-0.555
-0.56
-0.55
-0.485
-0.37
-0.19
0.03
0.3
0.605
0.925
1.205
1.41
1.52
1.54
1.505
1.425
1.23
0.95
0.545
0.08
-0.34
-0.615
-0.735
-0.74
-0.695
-0.64
-0.595
-0.585
-0.605
-0.635
-0.665
-0.705
-0.73
-0.725
-0.73
-0.725
-0.705
-0.705
-0.685
-0.705
-0.7
-0.71
-0.715
-0.725
-0.735
-0.725
-0.73
-0.73
-0.715
-0.705
-0.71
-0.72
-0.72
-0.71
-0.725
-0.73
-0.73
-0.73
-0.715
-0.705
-0.71
-0.69
-0.69
-0.69
-0.7
-0.71
-0.71
-0.72
-0.735
-0.735
-0.74
-0.735
-0.735
-0.745
-0.74
-0.765
-0.78
-0.795
-0.81
-0.825
-0.835
-0.86
-0.865
-0.87
-0.89
-0.88
-0.905
-0.93
-0.94
-0.96
-0.96
-0.965
-0.975
-0.985
-0.985
-0.995
-1.0
-1.01
-1.015
-1.04
-1.06
-1.09
-1.105
-1.115
-1.13
-1.13
-1.135
-1.125
-1.125
-1.1
-1.11
-1.11
-1.1
-1.08
-1.085
-1.08
-1.065
-1.045
-1.02
-0.98
-0.94
-0.9
-0.87
-0.83
-0.8
-0.78
-0.745
-0.725
-0.705
-0.675
-0.665
-0.64
-0.615
-0.595
-0.585
-0.585
-0.58
-0.57
-0.58
-0.57
-0.58
-0.575
-0.58
-0.57
-0.565
-0.565
-0.565
-0.57
-0.575
-0.575
-0.575
-0.565
-0.565
-0.57
-0.555
-0.565
-0.565
-0.565
-0.575
-0.575
-0.585
-0.575
-0.58
-0.585
-0.575
-0.575
-0.555
-0.545
-0.535
-0.52
-0.515
-0.515
-0.51
-0.52
-0.515
-0.525
-0.535
-0.525
-0.52
-0.515
-0.52
-0.515
-0.535
-0.525
-0.525
-0.515
-0.51
-0.52
-0.515
-0.515
-0.52
-0.52
-0.505
-0.5
-0.515
-0.52
-0.525
-0.54
-0.55
-0.555
-0.565
-0.57
-0.57
-0.575
-0.575
-0.56
-0.56
-0.55
-0.56
-0.58
-0.575
-0.585
-0.59
-0.6
-0.585
-0.59
-0.57
-0.565
-0.555
-0.56
-0.555
-0.545
-0.55
-0.555
-0.55
-0.545
-0.54
-0.54
-0.54
-0.53
-0.52
-0.515
-0.525
-0.54
-0.545
-0.54
-0.55
-0.555
-0.55
-0.535
-0.535
-0.525
-0.525
-0.525
-0.53
-0.545
-0.555
-0.565
-0.575
-0.57
-0.565
-0.58
-0.58
-0.585
-0.58
-0.585
-0.59
-0.6
-0.6
-0.615
-0.61
-0.6
-0.6
-0.585
-0.575
-0.57
-0.56
-0.57
-0.56
-0.555
-0.575
-0.575
-0.585
-0.58
-0.57
-0.56
-0.545
-0.535
-0.525
-0.535
-0.54
-0.545
-0.545
-0.545
-0.55
-0.54
-0.535
-0.51
-0.515
-0.515
-0.535
-0.555
-0.575
-0.575
-0.54
-0.47
-0.33
-0.16
0.05
0.27
0.52
0.78
1.03
1.23
1.375
1.455
1.465
1.43
1.34
1.205
0.955
0.605
0.165
-0.245
-0.57
-0.745
-0.795
-0.77
-0.725
-0.67
-0.65
-0.645
-0.645
-0.65
-0.67
-0.68
-0.68
-0.66
-0.655
-0.66
-0.68
-0.68
-0.695
-0.695
-0.685
-0.685
-0.665
-0.665
-0.675
-0.685
-0.675
-0.695
-0.705
-0.715
-0.74
-0.735
-0.735
-0.74
-0.735
-0.725
-0.71
-0.72
-0.735
-0.735
-0.75
-0.77
-0.79
-0.78
-0.79
-0.785
-0.78
-0.78
-0.775
-0.785
-0.79
-0.81
-0.81
-0.83
-0.835
-0.835
-0.825
-0.83
-0.82
-0.82
-0.825
-0.835
-0.85
-0.86
-0.875
-0.875
-0.89
-0.925
-0.91
-0.905
-0.925
-0.915
-0.92
-0.935
-0.97
-0.975
-0.98
-0.99
-1.01
-1.015
-1.02
-1.02
-1.025
-1.035
-1.035
-1.05
-1.05
-1.075
-1.09
-1.1
-1.09
-1.085
-1.08
-1.065
-1.05
-1.025
-1.0
-0.98
-0.975
-0.955
-0.93
-0.91
-0.885
-0.875
-0.855
-0.815
-0.795
-0.755
-0.735
-0.715
-0.69
-0.69
-0.68
-0.67
-0.645
-0.625
-0.605
-0.575
-0.565
-0.545
-0.535
-0.54
-0.545
-0.57
-0.57
-0.575
-0.58
-0.58
-0.565
-0.56
-0.55
-0.56
-0.54
-0.54
-0.545
-0.555
-0.57
-0.57
-0.58
-0.57
-0.545
-0.56
-0.54
-0.525
-0.525
-0.545
-0.535
-0.535
-0.54
-0.55
-0.56
-0.555
-0.545
-0.55
-0.555
-0.545
-0.535
-0.54
-0.555
-0.555
-0.565
-0.575
-0.58
-0.58
-0.575
-0.575
-0.565
-0.54
-0.53
-0.53
-0.525
-0.525
-0.52
-0.52
-0.51
-0.51
-0.495
-0.475
-0.48
-0.47
-0.485
-0.48
-0.475
-0.49
-0.475
-0.475
-0.475
-0.48
-0.485
-0.495
-0.505
-0.515
-0.485
-0.41
-0.285
-0.1
0.105
0.355
0.62
0.9
1.16
1.35
1.465
1.51
1.465
1.35
1.105
0.76
0.3
-0.18
-0.555
-0.775
-0.845
-0.8
-0.715
-0.64
-0.595
-0.6
-0.615
-0.65
-0.685
-0.715
-0.71
-0.72
-0.715
-0.695
-0.685
-0.675
-0.68
-0.685
-0.695
-0.69
-0.69
-0.695
-0.695
-0.69
-0.69
-0.69
-0.675
-0.68
-0.675
-0.67
-0.675
-0.685
-0.69
-0.715
-0.715
-0.725
-0.725
-0.73
-0.72
-0.715
-0.725
-0.735
-0.755
-0.765
-0.77
-0.78
-0.815
-0.82
-0.85
-0.85
-0.86
-0.845
-0.86
-0.845
-0.855
-0.88
-0.89
-0.905
-0.9
-0.9
-0.9
-0.9
-0.895
-0.885
-0.885
-0.885
-0.905
-0.905
-0.925
-0.95
-0.96
-0.97
-0.965
-0.97
-0.97
-0.97
-0.965
-0.985
-1.005
-1.005
-1.015
-1.04
-1.04
-1.055
-1.055
-1.055
-1.04
-1.025
-1.02
-1.02
-0.995
-0.985
-0.97
-0.955
-0.945
-0.9
-0.875
-0.84
-0.8
-0.775
-0.745
-0.745
-0.74
-0.73
-0.725
-0.715
-0.71
-0.71
-0.695
-0.69
-0.675
-0.66
-0.65
-0.65
-0.655
-0.655
-0.66
-0.655
-0.655
-0.64
-0.64
-0.61
-0.605
-0.58
-0.575
-0.555
-0.565
-0.565
-0.575
-0.58
-0.585
-0.585
-0.57
-0.56
-0.55
-0.53
-0.525
-0.52
-0.52
-0.54
-0.545
-0.555
-0.555
-0.555
-0.555
-0.55
-0.545
-0.54
-0.545
-0.55
-0.555
-0.57
-0.58
-0.585
-0.59
-0.6
-0.585
-0.58
-0.575
-0.565
-0.565
-0.575
-0.575
-0.585
-0.59
-0.605
-0.615
-0.61
-0.605
-0.595
-0.59
-0.59
-0.58
-0.575
-0.57
-0.57
-0.575
-0.58
-0.58
-0.57
-0.555
-0.55
-0.55
-0.53
-0.53
-0.53
-0.545
-0.55
-0.565
-0.565
-0.57
-0.565
-0.56
-0.56
-0.56
-0.555
-0.55
-0.565
-0.56
-0.57
-0.565
-0.58
-0.595
-0.59
-0.595
-0.58
-0.585
-0.585
-0.575
-0.58
-0.585
-0.59
-0.6
-0.615
-0.595
-0.59
-0.58
-0.57
-0.57
-0.565
-0.565
-0.57
-0.575
-0.57
-0.58
-0.595
-0.58
-0.58
-0.58
-0.565
-0.555
-0.545
-0.535
-0.535
-0.54
-0.535
-0.53
-0.545
-0.55
-0.55
-0.55
-0.54
-0.545
-0.52
-0.53
-0.51
-0.53
-0.54
-0.545
-0.545
-0.57
-0.55
-0.55
-0.54
-0.53
-0.515
-0.52
-0.525
-0.53
-0.535
-0.54
-0.54
-0.55
-0.55
-0.56
-0.545
-0.545
-0.55
-0.535
-0.545
-0.535
-0.55
-0.56
-0.565
-0.555
-0.565
-0.55
-0.55
-0.55
-0.545
-0.55
-0.565
-0.58
-0.59
-0.6
-0.605
-0.6
-0.59
-0.575
-0.565
-0.575
-0.56
-0.555
-0.56
-0.575
-0.575
-0.575
-0.575
-0.565
-0.56
-0.555
-0.535
-0.535
-0.515
-0.515
-0.515
-0.515
-0.52
-0.525
-0.52
-0.52
-0.525
-0.535
-0.515
-0.52
-0.515
-0.51
-0.515
-0.515
-0.525
-0.53
-0.54
-0.535
-0.52
-0.52
-0.51
-0.49
-0.485
-0.48
-0.475
-0.47
-0.48
-0.48
-0.49
-0.485
-0.475
-0.485
-0.475
-0.465
-0.46
-0.46
-0.47
-0.47
-0.485
-0.505
-0.535
-0.55
-0.56
-0.57
-0.52
-0.425
-0.27
-0.085
0.125
0.38
0.645
0.92
1.17
1.36
1.475
1.515
1.5
1.43
1.295
1.025
0.63
0.17
-0.27
-0.585
-0.745
-0.77
-0.71
-0.65
-0.59
-0.555
-0.545
-0.565
-0.585
-0.62
-0.63
-0.645
-0.65
-0.665
-0.665
-0.665
-0.665
-0.665
-0.675
-0.68
-0.685
-0.68
-0.675
-0.695
-0.71
-0.71
-0.715
-0.72
-0.705
-0.71
-0.7
-0.69
-0.71
-0.715
-0.725
-0.735
-0.75
-0.765
-0.76
-0.765
-0.765
-0.77
-0.76
-0.77
-0.785
-0.785
-0.785
-0.795
-0.805
-0.82
-0.82
-0.81
-0.815
-0.81
-0.81
-0.815
-0.815
-0.825
-0.84
-0.85
-0.865
-0.875
-0.885
-0.875
-0.87
-0.89
-0.885
-0.885
-0.9
-0.905
-0.905
-0.925
-0.95
-0.955
-0.965
-0.96
-0.96
-0.965
-0.975
-0.98
-0.99
-1.005
-1.015
-1.03
-1.04
-1.055
-1.06
-1.065
-1.07
-1.08
-1.07
-1.075
-1.09
-1.075
-1.085
-1.08
-1.085
-1.075
-1.075
-1.065
-1.05
-1.025
-1.005
-0.97
-0.95
-0.94
-0.9
-0.895
-0.86
-0.85
-0.83
-0.795
-0.775
-0.735
-0.695
-0.675
-0.68
-0.68
-0.65
-0.635
-0.64
-0.635
-0.615
-0.59
-0.575
-0.565
-0.565
-0.545
-0.545
-0.54
-0.55
-0.555
-0.55
-0.545
-0.54
-0.54
-0.525
-0.52
-0.51
-0.505
-0.495
-0.49
-0.495
-0.49
-0.49
-0.485
-0.48
-0.46
-0.455
-0.445
-0.44
-0.425
-0.43
-0.435
-0.435
-0.45
-0.455
-0.455
-0.445
-0.46
-0.435
-0.445
-0.45
-0.45
-0.46
-0.46
-0.48
-0.485
-0.49
-0.49
-0.49
-0.475
-0.465
-0.47
-0.47
-0.46
-0.465
-0.46
-0.48
-0.49
-0.49
-0.505
-0.505
-0.51
-0.505
-0.495
-0.495
-0.485
-0.495
-0.495
-0.5
-0.51
-0.52
-0.52
-0.515
-0.52
-0.515
-0.515
-0.51
-0.5
-0.5
-0.5
-0.495
-0.505
-0.51
-0.505
-0.515
-0.51
-0.505
-0.515
-0.51
-0.49
-0.52
-0.53
-0.535
-0.555
-0.54
-0.55
-0.545
-0.545
-0.53
-0.525
-0.515
-0.515
-0.53
-0.525
-0.55
-0.545
-0.555
-0.56
-0.56
-0.545
-0.54
-0.53
-0.53
-0.525
-0.535
-0.535
-0.54
-0.545
-0.55
-0.55
-0.535
-0.53
-0.515
-0.51
-0.51
-0.49
-0.505
-0.51
-0.515
-0.52
-0.525
-0.525
-0.53
-0.525
-0.535
-0.54
-0.555
-0.55
-0.515
-0.43
-0.285
-0.095
0.135
0.405
0.7
1.005
1.275
1.455
1.555
1.565
1.51
1.4
1.19
0.86
0.415
-0.075
-0.44
-0.66
-0.725
-0.695
-0.635
-0.57
-0.54
-0.54
-0.555
-0.585
-0.62
-0.645
-0.65
-0.655
-0.655
-0.65
-0.65
-0.655
-0.66
-0.66
-0.685
-0.695
-0.7
-0.695
-0.705
-0.705
-0.71
-0.7
-0.725
-0.71
-0.72
-0.72
-0.73
-0.74
-0.755
-0.765
-0.775
-0.78
-0.78
-0.76
-0.77
-0.765
-0.765
-0.775
-0.79
-0.795
-0.785
-0.795
-0.8
-0.785
-0.79
-0.785
-0.78
-0.775
-0.785
-0.765
-0.785
-0.785
-0.785
-0.795
-0.805
-0.81
-0.81
-0.815
-0.82
-0.82
-0.84
-0.845
-0.875
-0.905
-0.925
-0.945
-0.955
-0.965
-0.975
-0.98
-0.995
-1.005
-1.02
-1.035
-1.055
-1.055
-1.085
-1.105
-1.11
-1.12
-1.12
-1.115
-1.12
-1.11
-1.105
-1.09
-1.08
-1.08
-1.055
-1.05
-1.02
-0.985
-0.95
-0.915
-0.885
-0.865
-0.845
-0.83
-0.805
-0.785
-0.755
-0.765
-0.735
-0.695
-0.67
-0.63
-0.6
-0.585
-0.575
-0.565
-0.565
-0.56
-0.555
-0.555
-0.555
-0.55
-0.55
-0.55
-0.535
-0.54
-0.545
-0.535
-0.555
-0.54
-0.535
-0.53
-0.52
-0.525
-0.52
-0.515
-0.5
-0.49
-0.5
-0.5
-0.51
-0.525
-0.54
-0.555
-0.55
-0.565
-0.56
-0.56
-0.55
-0.535
-0.54
-0.55
-0.565
-0.585
-0.605
-0.615
-0.635
-0.635
-0.62
-0.605
-0.605
-0.605
-0.605
-0.62
-0.63
-0.63
-0.655
-0.66
-0.665
-0.665
-0.635
-0.61
-0.6
-0.585
-0.58
-0.585
-0.58
-0.565
-0.56
-0.555
-0.545
-0.56
-0.54
-0.545
-0.525
-0.535
-0.535
-0.53
-0.53
-0.535
-0.54
-0.54
-0.515
-0.515
-0.505
-0.495
-0.49
-0.49
-0.49
-0.495
-0.49
-0.505
-0.515
-0.52
-0.525
-0.52
-0.52
-0.51
-0.505
-0.495
-0.495
-0.5
-0.51
-0.525
-0.515
-0.53
-0.525
-0.53
-0.54
-0.545
-0.545
-0.555
-0.565
-0.575
-0.595
-0.61
-0.63
-0.65
-0.675
-0.665
-0.65
-0.655
-0.64
-0.63
-0.615
-0.605
-0.6
-0.615
-0.61
-0.62
-0.615
-0.6
-0.6
-0.58
-0.57
-0.565
-0.56
-0.57
-0.57
-0.57
-0.58
-0.57
-0.555
-0.555
-0.555
-0.555
-0.545
-0.56
-0.555
-0.55
-0.56
-0.565
-0.56
-0.565
-0.57
-0.56
-0.54
-0.55
-0.54
-0.525
-0.535
-0.54
-0.54
-0.545
-0.55
-0.545
-0.55
-0.55
-0.535
-0.525
-0.525
-0.52
-0.53
-0.535
-0.545
-0.555
-0.575
-0.59
-0.59
-0.595
-0.585
-0.585
-0.58
-0.58
-0.57
-0.565
-0.555
-0.56
-0.575
-0.585
-0.605
-0.61
-0.56
-0.465
-0.315
-0.1
0.145
0.44
0.76
1.045
1.305
1.47
1.565
1.565
1.505
1.37
1.14
0.775
0.295
-0.2
-0.545
-0.74
-0.8
-0.755
-0.69
-0.62
-0.6
-0.595
-0.6
-0.62
-0.645
-0.655
-0.67
-0.67
-0.675
-0.69
-0.69
-0.695
-0.695
-0.705
-0.695
-0.69
-0.705
-0.715
-0.72
-0.735
-0.75
-0.75
-0.77
-0.78
-0.785
-0.8
-0.81
-0.805
-0.815
-0.805
-0.805
-0.805
-0.8
-0.79
-0.785
-0.785
-0.78
-0.775
-0.77
-0.785
-0.8
-0.805
-0.81
-0.82
-0.84
-0.85
-0.845
-0.845
-0.835
-0.83
-0.82
-0.825
-0.845
-0.845
-0.86
-0.875
-0.885
-0.9
-0.91
-0.915
-0.915
-0.925
-0.93
-0.94
-0.96
-0.975
-0.995
-1.025
-1.03
-1.05
-1.06
-1.07
-1.07
-1.08
-1.09
-1.095
-1.115
-1.13
-1.16
-1.18
-1.2
-1.22
-1.23
-1.25
-1.245
-1.225
-1.215
-1.19
-1.17
-1.155
-1.135
-1.125
-1.095
-1.07
-1.025
-0.98
-0.93
-0.89
-0.875
-0.835
-0.81
-0.795
-0.78
-0.755
-0.745
-0.73
-0.705
-0.67
-0.655
-0.64
-0.625
-0.61
-0.61
-0.605
-0.605
-0.6
-0.605
-0.605
-0.595
-0.59
-0.575
-0.565
-0.55
-0.54
-0.545
-0.54
-0.54
-0.555
-0.56
-0.575
-0.575
-0.57
-0.57
-0.575
-0.59
-0.58
-0.59
-0.595
-0.6
-0.61
-0.61
-0.62
-0.605
-0.615
-0.61
-0.6
-0.58
-0.57
-0.57
-0.565
-0.57
-0.595
-0.595
-0.585
-0.585
-0.575
-0.575
-0.565
-0.565
-0.56
-0.575
-0.565
-0.57
-0.575
-0.57
-0.58
-0.575
-0.575
-0.57
-0.565
-0.56
-0.56
-0.56
-0.565
-0.565
-0.575
-0.58
-0.595
-0.575
-0.575
-0.57
-0.555
-0.55
-0.56
-0.555
-0.56
-0.57
-0.585
-0.585
-0.615
-0.605
-0.595
-0.585
-0.58
-0.555
-0.565
-0.575
-0.57
-0.565
-0.565
-0.56
-0.56
-0.555
-0.565
-0.56
-0.56
-0.56
-0.545
-0.565
-0.56
-0.575
-0.575
-0.59
-0.59
-0.605
-0.585
-0.6
-0.595
-0.575
-0.565
-0.58
-0.59
-0.6
-0.605
-0.62
-0.63
-0.655
-0.66
-0.635
-0.58
-0.485
-0.335
-0.125
0.09
0.32
0.59
0.855
1.105
1.315
1.48
1.55
1.55
1.5
1.395
1.2
0.905
0.475
-0.01
-0.43
-0.71
-0.82
-0.82
-0.765
-0.685
-0.625
-0.61
-0.61
-0.64
-0.68
-0.695
-0.7
-0.705
-0.695
-0.675
-0.685
-0.685
-0.685
-0.68
-0.7
-0.705
-0.715
-0.73
-0.735
-0.75
-0.76
-0.76
-0.765
-0.765
-0.765
-0.755
-0.77
-0.775
-0.785
-0.795
-0.805
-0.805
-0.82
-0.82
-0.835
-0.825
-0.825
-0.815
-0.825
-0.84
-0.845
-0.855
-0.885
-0.885
-0.895
-0.89
-0.88
-0.88
-0.87
-0.87
-0.865
-0.87
-0.875
-0.885
-0.895
-0.91
-0.915
-0.925
-0.93
-0.935
-0.92
-0.925
-0.93
-0.95
-0.96
-0.965
-0.985
-1.01
-1.01
-1.025
-1.015
-1.035
-1.055
-1.05
-1.07
-1.085
-1.085
-1.1
-1.125
-1.135
-1.13
-1.145
-1.15
-1.165
-1.17
-1.175
-1.16
-1.165
-1.145
-1.14
-1.105
-1.095
-1.055
-1.035
-0.98
-0.95
-0.91
-0.89
-0.87
-0.845
-0.825
-0.815
-0.8
-0.77
-0.76
-0.725
-0.705
-0.68
-0.665
-0.655
-0.625
-0.625
-0.635
-0.63
-0.645
-0.645
-0.65
-0.64
-0.62
-0.61
-0.595
-0.595
-0.595
-0.59
-0.6
-0.615
-0.605
-0.625
-0.635
-0.635
-0.625
-0.62
-0.61
-0.6
-0.6
-0.605
-0.625
-0.625
-0.63
-0.63
-0.63
-0.64
-0.635
-0.635
-0.64
-0.645
-0.64
-0.64
-0.645
-0.655
-0.655
-0.67
-0.65
-0.65
-0.645
-0.625
-0.63
-0.62
-0.61
-0.605
-0.615
-0.6
-0.61
-0.63
-0.62
-0.62
-0.625
-0.625
-0.625
-0.62
-0.605
-0.61
-0.61
-0.625
-0.63
-0.625
-0.62
-0.62
-0.615
-0.605
-0.595
-0.59
-0.595
-0.59
-0.61
-0.605
-0.605
-0.61
-0.62
-0.605
-0.595
-0.585
-0.58
-0.575
-0.585
-0.59
-0.6
-0.605
-0.615
-0.62
-0.615
-0.605
-0.6
-0.585
-0.58
-0.57
-0.57
-0.57
-0.57
-0.585
-0.59
-0.595
-0.595
-0.58
-0.57
-0.575
-0.57
-0.595
-0.62
-0.63
-0.635
-0.63
-0.585
-0.475
-0.335
-0.155
0.06
0.315
0.59
0.865
1.11
1.305
1.42
1.46
1.445
1.38
1.285
1.1
0.81
0.38
-0.06
-0.45
-0.695
-0.79
-0.81
-0.765
-0.725
-0.69
-0.67
-0.68
-0.68
-0.69
-0.705
-0.725
-0.715
-0.715
-0.735
-0.745
-0.725
-0.745
-0.74
-0.755
-0.75
-0.745
-0.735
-0.74
-0.745
-0.745
-0.745
-0.755
-0.75
-0.765
-0.77
-0.77
-0.755
-0.755
-0.75
-0.765
-0.76
-0.77
-0.775
-0.78
-0.795
-0.8
-0.805
-0.8
-0.805
-0.805
-0.79
-0.8
-0.805
-0.815
-0.825
-0.845
-0.855
-0.875
-0.875
-0.885
-0.885
-0.89
-0.9
-0.905
-0.925
-0.95
-0.97
-0.99
-1.015
-1.03
-1.03
-1.04
-1.03
-1.035
-1.04
-1.045
-1.045
-1.07
-1.09
-1.095
-1.12
-1.14
-1.15
-1.16
-1.17
-1.16
-1.16
-1.155
-1.155
-1.17
-1.16
-1.165
-1.155
-1.13
-1.12
-1.085
-1.04
-1.015
-0.97
-0.93
-0.89
-0.885
-0.84
-0.82
-0.805
-0.785
-0.755
-0.74
-0.715
-0.69
-0.675
-0.66
-0.655
-0.65
-0.655
-0.66
-0.675
-0.68
-0.69
-0.7
-0.705
-0.695
-0.7
-0.685
-0.69
-0.69
-0.685
-0.7
-0.69
-0.695
-0.68
-0.67
-0.65
-0.65
-0.635
-0.63
-0.625
-0.63
-0.62
-0.625
-0.63
-0.64
-0.64
-0.645
-0.645
-0.635
-0.635
-0.62
-0.615
-0.62
-0.62
-0.625
-0.64
-0.66
-0.635
-0.635
-0.61
-0.605
-0.585
-0.575
-0.57
-0.57
-0.565
-0.575
-0.58
-0.575
-0.575
-0.575
-0.57
-0.57
-0.575
-0.565
-0.59
-0.585
-0.605
-0.63
-0.635
-0.65
-0.655
-0.665
-0.66
-0.65
-0.645
-0.645
-0.64
-0.625
-0.64
-0.655
-0.65
-0.65
-0.655
-0.655
-0.65
-0.645
-0.64
