Lead II
-0.755
-0.77
-0.77
-0.78
-0.805
-0.815
-0.825
-0.835
-0.865
-0.885
-0.9
-0.905
-0.915
-0.935
-0.955
-0.96
-0.965
-0.96
-0.945
-0.93
-0.93
-0.945
-0.955
-0.95
-0.955
-0.965
-0.98
-1.005
-1.0
-0.985
-0.985
-0.995
-1.04
-1.11
-1.145
-1.165
-1.1
-1.045
-0.91
-0.705
-0.46
-0.225
-0.005
0.2
0.37
0.545
0.68
0.785
0.825
0.83
0.785
0.735
0.67
0.62
0.515
0.335
0.06
-0.28
-0.575
-0.785
-0.91
-0.935
-0.92
-0.865
-0.835
-0.795
-0.815
-0.86
-0.925
-0.985
-1.01
-1.035
-1.05
-1.055
-1.06
-1.075
-1.065
-1.065
-1.055
-1.03
-1.025
-1.03
-1.025
-1.025
-1.03
-1.03
-1.03
-1.035
-1.05
-1.045
-1.015
-1.0
-1.0
-1.02
-1.02
-1.02
-1.045
-1.045
-1.05
-1.045
-1.055
-1.035
-1.01
-1.0
-1.015
-1.02
-1.035
-1.03
-1.045
-1.04
-1.05
-1.06
-1.045
-1.06
-1.035
-1.03
-1.015
-1.015
-1.02
-1.025
-1.02
-1.03
-1.045
-1.055
-1.055
-1.025
-1.02
-0.995
-0.995
-0.995
-0.995
-0.995
-0.99
-1.005
-0.995
-1.0
-0.985
-0.965
-0.94
-0.93
-0.91
-0.92
-0.92
-0.94
-0.92
-0.91
-0.905
-0.915
-0.915
-0.885
-0.875
-0.85
-0.85
-0.86
-0.875
-0.885
-0.88
-0.885
-0.9
-0.895
-0.895
-0.885
-0.88
-0.855
-0.87
-0.87
-0.875
-0.885
-0.88
-0.875
-0.895
-0.91
-0.915
-0.895
-0.885
-0.875
-0.875
-0.875
-0.9
-0.9
-0.91
-0.915
-0.915
-0.935
-0.94
-0.93
-0.935
-0.925
-0.925
-0.94
-0.95
-0.945
-0.96
-0.975
-0.98
-1.0
-0.99
-0.98
-0.965
-0.96
-0.965
-0.97
-0.965
-0.99
-0.975
-0.995
-1.005
-1.005
-1.01
-0.995
-0.98
-0.97
-0.975
-0.97
-0.965
-0.97
-0.96
-0.97
-0.97
-0.975
-0.965
-0.975
-0.95
-0.93
-0.935
-0.935
-0.94
-0.945
-0.955
-0.945
-0.95
-0.955
-0.95
-0.94
-0.935
-0.9
-0.885
-0.89
-0.895
-0.885
-0.895
-0.89
-0.875
-0.865
-0.865
-0.825
-0.785
-0.77
-0.74
-0.73
-0.745
-0.705
-0.71
-0.705
-0.705
-0.72
-0.725
-0.715
-0.71
-0.71
-0.72
-0.76
-0.765
-0.78
-0.78
-0.775
-0.81
-0.84
-0.865
-0.875
-0.885
-0.895
-0.89
-0.925
-0.935
-0.935
-0.95
-0.95
-0.955
-0.98
-0.985
-0.985
-0.955
-0.94
-0.93
-0.945
-0.95
-0.95
-0.94
-0.97
-0.97
-0.985
-1.0
-1.015
-1.035
-1.06
-1.105
-1.135
-1.16
-1.135
-1.07
-0.935
-0.77
-0.565
-0.35
-0.15
0.075
0.27
0.455
0.585
0.705
0.79
0.835
0.825
0.785
0.73
0.675
0.55
0.39
0.13
-0.19
-0.505
-0.74
-0.87
-0.92
-0.89
-0.83
-0.805
-0.805
-0.81
-0.835
-0.885
-0.93
-0.97
-1.015
-1.04
-1.045
-1.05
-1.05
-1.055
-1.045
-1.035
-1.015
-1.01
-1.015
-0.995
-1.005
-1.005
-1.025
-1.015
-1.03
-1.045
-1.045
-1.035
-1.025
-1.03
-1.02
-1.015
-1.03
-1.045
-1.055
-1.05
-1.065
-1.055
-1.055
-1.05
-1.035
-1.025
-1.015
-1.045
-1.02
-1.035
-1.045
-1.04
-1.055
-1.065
-1.06
-1.045
-1.04
-1.025
-1.02
-1.025
-1.025
-1.03
-1.03
-1.025
-1.03
-1.04
-1.025
-1.015
-0.98
-0.97
-0.95
-0.955
-0.96
-0.96
-0.96
-0.97
-0.98
-0.97
-0.95
-0.94
-0.9
-0.895
-0.87
-0.865
-0.865
-0.88
-0.885
-0.9
-0.89
-0.885
-0.875
-0.86
-0.85
-0.875
-0.845
-0.835
-0.825
-0.835
-0.855
-0.89
-0.88
-0.885
-0.875
-0.875
-0.86
-0.86
-0.845
-0.85
-0.855
-0.85
-0.875
-0.88
-0.895
-0.875
-0.89
-0.875
-0.885
-0.885
-0.88
-0.9
-0.9
-0.88
-0.905
-0.91
-0.905
-0.925
-0.91
-0.895
-0.9
-0.915
-0.905
-0.915
-0.925
-0.91
-0.92
-0.93
-0.94
-0.965
-0.945
-0.94
-0.93
-0.95
-0.935
-0.94
-0.945
-0.945
-0.96
-0.94
-0.955
-0.965
-0.955
-0.935
-0.95
-0.94
-0.93
-0.935
-0.92
-0.905
-0.915
-0.925
-0.93
-0.93
-0.92
-0.9
-0.885
-0.875
-0.86
-0.85
-0.845
-0.85
-0.855
-0.87
-0.86
-0.875
-0.86
-0.85
-0.825
-0.805
-0.75
-0.72
-0.695
-0.69
-0.665
-0.665
-0.67
-0.635
-0.635
-0.63
-0.64
-0.645
-0.645
-0.65
-0.655
-0.67
-0.71
-0.73
-0.715
-0.71
-0.71
-0.715
-0.73
-0.76
-0.785
-0.805
-0.835
-0.83
-0.86
-0.89
-0.905
-0.905
-0.9
-0.885
-0.885
-0.885
-0.855
-0.87
-0.875
-0.875
-0.875
-0.9
-0.91
-0.905
-0.91
-0.9
-0.91
-0.925
-0.925
-0.95
-0.99
-1.035
-1.105
-1.125
-1.11
-1.05
-0.945
-0.785
-0.58
-0.375
-0.195
-0.02
0.15
0.29
0.435
0.57
0.68
0.775
0.845
0.89
0.895
0.905
0.86
0.765
0.645
0.425
0.14
-0.2
-0.5
-0.725
-0.855
-0.865
-0.82
-0.745
-0.685
-0.68
-0.71
-0.755
-0.81
-0.885
-0.92
-0.945
-0.965
-0.97
-0.945
-0.95
-0.955
-0.965
-0.97
-0.965
-0.965
-0.96
-0.96
-0.965
-0.96
-0.95
-0.94
-0.925
-0.915
-0.9
-0.93
-0.94
-0.95
-0.975
-0.95
-0.955
-0.955
-0.945
-0.95
-0.94
-0.93
-0.945
-0.95
-0.95
-0.96
-0.985
-0.97
-0.955
-0.97
-0.96
-0.95
-0.94
-0.93
-0.945
-0.97
-0.99
-0.995
-0.995
-1.005
-0.98
-0.975
-0.955
-0.935
-0.925
-0.925
-0.925
-0.93
-0.94
-0.945
-0.955
-0.98
-0.965
-0.95
-0.915
-0.905
-0.91
-0.895
-0.885
-0.885
-0.89
-0.895
-0.9
-0.91
-0.905
-0.87
-0.855
-0.825
-0.83
-0.82
-0.815
-0.82
-0.82
-0.815
-0.805
-0.81
-0.825
-0.815
-0.79
-0.77
-0.775
-0.77
-0.785
-0.8
-0.81
-0.8
-0.79
-0.8
-0.8
-0.785
-0.78
-0.765
-0.78
-0.775
-0.78
-0.805
-0.805
-0.8
-0.795
-0.805
-0.82
-0.82
-0.8
-0.775
-0.79
-0.8
-0.81
-0.84
-0.845
-0.84
-0.84
-0.84
-0.855
-0.865
-0.855
-0.83
-0.825
-0.82
-0.825
-0.85
-0.87
-0.885
-0.895
-0.88
-0.89
-0.875
-0.87
-0.865
-0.85
-0.835
-0.845
-0.86
-0.875
-0.88
-0.88
-0.88
-0.88
-0.875
-0.875
-0.86
-0.865
-0.835
-0.84
-0.825
-0.835
-0.85
-0.855
-0.855
-0.855
-0.855
-0.855
-0.84
-0.825
-0.805
-0.805
-0.8
-0.805
-0.81
-0.8
-0.795
-0.795
-0.8
-0.795
-0.8
-0.79
-0.755
-0.735
-0.715
-0.71
-0.705
-0.7
-0.68
-0.65
-0.63
-0.61
-0.58
-0.575
-0.565
-0.57
-0.585
-0.61
-0.62
-0.625
-0.635
-0.645
-0.645
-0.65
-0.665
-0.675
-0.66
-0.675
-0.705
-0.725
-0.77
-0.78
-0.805
-0.825
-0.84
-0.845
-0.845
-0.835
-0.835
-0.805
-0.81
-0.815
-0.83
-0.855
-0.84
-0.865
-0.87
-0.875
-0.88
-0.875
-0.865
-0.875
-0.845
-0.845
-0.875
-0.915
-0.98
-1.05
-1.095
-1.08
-1.04
-0.975
-0.865
-0.705
-0.51
-0.31
-0.13
0.065
0.235
0.385
0.55
0.68
0.81
0.845
0.87
0.875
0.875
0.81
0.705
0.54
0.255
-0.115
-0.455
-0.705
-0.86
-0.9
-0.85
-0.785
-0.725
-0.69
-0.72
-0.785
-0.85
-0.895
-0.93
-0.94
-0.945
-0.94
-0.935
-0.935
-0.935
-0.925
-0.95
-0.95
-0.935
-0.925
-0.925
-0.905
-0.9
-0.92
-0.9
-0.905
-0.89
-0.9
-0.92
-0.935
-0.93
-0.93
-0.93
-0.915
-0.915
-0.925
-0.905
-0.9
-0.895
-0.905
-0.905
-0.93
-0.935
-0.955
-0.94
-0.935
-0.94
-0.915
-0.935
-0.925
-0.9
-0.9
-0.935
-0.93
-0.95
-0.945
-0.93
-0.92
-0.905
-0.905
-0.91
-0.905
-0.895
-0.91
-0.91
-0.905
-0.905
-0.895
-0.9
-0.89
-0.875
-0.865
-0.86
-0.86
-0.85
-0.84
-0.845
-0.85
-0.845
-0.835
-0.81
-0.805
-0.8
-0.785
-0.78
-0.775
-0.76
-0.76
-0.785
-0.79
-0.785
-0.78
-0.77
-0.755
-0.76
-0.765
-0.755
-0.755
-0.76
-0.775
-0.795
-0.79
-0.79
-0.8
-0.795
-0.795
-0.795
-0.8
-0.79
-0.775
-0.785
-0.79
-0.815
-0.84
-0.845
-0.85
-0.83
-0.825
-0.825
-0.825
-0.82
-0.805
-0.825
-0.83
-0.85
-0.85
-0.855
-0.86
-0.86
-0.865
-0.86
-0.87
-0.865
-0.86
-0.85
-0.87
-0.89
-0.89
-0.895
-0.895
-0.875
-0.87
-0.87
-0.855
-0.855
-0.85
-0.845
-0.845
-0.875
-0.87
-0.865
-0.865
-0.86
-0.845
-0.85
-0.845
-0.84
-0.825
-0.835
-0.825
-0.84
-0.86
-0.85
-0.835
-0.835
-0.84
-0.805
-0.8
-0.78
-0.765
-0.76
-0.785
-0.8
-0.785
-0.765
-0.755
-0.725
-0.695
-0.665
-0.665
-0.64
-0.62
-0.61
-0.605
-0.63
-0.63
-0.64
-0.64
-0.635
-0.625
-0.615
-0.635
-0.645
-0.65
-0.66
-0.67
-0.67
-0.685
-0.73
-0.735
-0.735
-0.755
-0.765
-0.79
-0.805
-0.805
-0.83
-0.83
-0.84
-0.85
-0.89
-0.905
-0.88
-0.885
-0.865
-0.88
-0.875
-0.875
-0.86
-0.855
-0.87
-0.875
-0.9
-0.905
-0.91
-0.93
-0.97
-1.015
-1.07
-1.07
-1.04
-0.97
-0.875
-0.74
-0.59
-0.38
-0.165
0.04
0.235
0.415
0.58
0.715
0.82
0.88
0.87
0.83
0.77
0.715
0.635
0.52
0.345
0.065
-0.245
-0.535
-0.74
-0.84
-0.87
-0.855
-0.815
-0.765
-0.755
-0.765
-0.8
-0.865
-0.9
-0.955
-0.96
-0.98
-0.995
-1.0
-1.005
-1.005
-1.005
-0.99
-0.965
-0.95
-0.955
-0.955
-0.97
-0.985
-0.985
-0.98
-0.99
-1.01
-1.0
-0.99
-0.975
-0.975
-0.97
-0.985
-0.985
-0.98
-0.99
-1.005
-1.0
-1.02
-1.01
-0.985
-0.975
-0.95
-0.965
-0.975
-0.99
-0.98
-0.98
-0.985
-1.0
-1.005
-1.0
-1.01
-0.995
-0.965
-0.955
-0.975
-0.975
-0.965
-0.975
-0.975
-0.995
-1.01
-0.995
-0.985
-0.97
-0.955
-0.945
-0.93
-0.935
-0.94
-0.94
-0.945
-0.935
-0.94
-0.945
-0.935
-0.925
-0.885
-0.875
-0.885
-0.885
-0.89
-0.895
-0.875
-0.855
-0.88
-0.88
-0.875
-0.845
-0.83
-0.815
-0.815
-0.82
-0.84
-0.845
-0.84
-0.845
-0.855
-0.85
-0.835
-0.84
-0.825
-0.82
-0.81
-0.82
-0.84
-0.84
-0.835
-0.84
-0.855
-0.88
-0.885
-0.865
-0.845
-0.84
-0.84
-0.86
-0.865
-0.875
-0.865
-0.885
-0.9
-0.895
-0.89
-0.885
-0.885
-0.885
-0.895
-0.9
-0.915
-0.925
-0.93
-0.935
-0.955
-0.97
-0.94
-0.94
-0.93
-0.93
-0.935
-0.96
-0.965
-0.95
-0.95
-0.95
-0.96
-0.96
-0.955
-0.935
-0.91
-0.91
-0.9
-0.92
-0.925
-0.935
-0.93
-0.92
-0.93
-0.925
-0.925
-0.9
-0.89
-0.885
-0.88
-0.885
-0.88
-0.89
-0.88
-0.88
-0.88
-0.89
-0.88
-0.85
-0.825
-0.81
-0.795
-0.77
-0.77
-0.735
-0.725
-0.705
-0.7
-0.69
-0.67
-0.655
-0.64
-0.65
-0.66
-0.66
-0.665
-0.68
-0.72
-0.72
-0.725
-0.74
-0.73
-0.72
-0.735
-0.76
-0.785
-0.81
-0.845
-0.855
-0.9
-0.915
-0.93
-0.925
-0.91
-0.9
-0.92
-0.9
-0.91
-0.93
-0.93
-0.925
-0.925
-0.93
-0.92
-0.95
-0.93
-0.915
-0.925
-0.93
-0.975
-1.01
-1.065
-1.115
-1.15
-1.135
-1.065
-0.935
-0.755
-0.56
-0.34
-0.135
0.05
0.225
0.405
0.56
0.685
0.76
0.79
0.79
0.785
0.735
0.645
0.51
0.265
-0.055
-0.4
-0.695
-0.88
-0.945
-0.925
-0.86
-0.825
-0.81
-0.835
-0.865
-0.91
-0.96
-1.0
-1.025
-1.03
-1.025
-1.03
-1.01
-1.045
-1.03
-1.025
-1.005
-0.98
-0.98
-0.99
-1.005
-1.005
-1.025
-1.015
-1.015
-1.02
-1.015
-1.015
-1.01
-1.0
-1.01
-1.015
-1.015
-1.035
-1.03
-1.025
-1.025
-1.025
-1.02
-1.035
-1.01
-0.995
-1.015
-1.02
-1.03
-1.02
-1.025
-1.015
-1.015
-1.025
-1.02
-1.01
-1.02
-0.995
-0.99
-1.015
-1.03
-1.025
-1.015
-1.01
-1.02
-1.015
-1.01
-0.99
-0.955
-0.97
-0.965
-0.96
-0.975
-0.96
-0.96
-0.965
-0.955
-0.955
-0.93
-0.91
-0.89
-0.885
-0.89
-0.885
-0.87
-0.865
-0.88
-0.875
-0.885
-0.87
-0.865
-0.87
-0.845
-0.84
-0.845
-0.85
-0.855
-0.86
-0.875
-0.885
-0.88
-0.875
-0.865
-0.86
-0.87
-0.865
-0.865
-0.865
-0.875
-0.875
-0.885
-0.9
-0.905
-0.895
-0.885
-0.885
-0.875
-0.9
-0.915
-0.91
-0.925
-0.94
-0.95
-0.955
-0.945
-0.935
-0.94
-0.95
-0.95
-0.945
-0.945
-0.955
-0.965
-0.975
-0.985
-0.99
-0.97
-0.97
-0.95
-0.955
-0.965
-0.955
-0.96
-0.97
-0.97
-0.965
-0.985
-0.99
-0.96
-0.96
-0.945
-0.935
-0.935
-0.92
-0.925
-0.925
-0.925
-0.94
-0.95
-0.955
-0.94
-0.925
-0.92
-0.925
-0.915
-0.905
-0.895
-0.87
-0.885
-0.89
-0.88
-0.895
-0.875
-0.85
-0.805
-0.8
-0.78
-0.765
-0.755
-0.725
-0.72
-0.7
-0.7
-0.71
-0.7
-0.695
-0.675
-0.685
-0.7
-0.715
-0.715
-0.715
-0.74
-0.75
-0.78
-0.785
-0.795
-0.785
-0.795
-0.82
-0.835
-0.865
-0.9
-0.88
-0.9
-0.9
-0.925
-0.94
-0.95
-0.955
-0.94
-0.93
-0.935
-0.95
-0.945
-0.945
-0.955
-0.955
-0.96
-0.975
-0.98
-0.97
-0.96
-0.97
-0.98
-1.0
-1.075
-1.115
-1.155
-1.19
-1.165
-1.09
-1.0
-0.86
-0.68
-0.46
-0.27
-0.105
0.065
0.215
0.385
0.53
0.65
0.74
0.79
0.8
0.78
0.745
0.68
0.575
0.395
0.14
-0.18
-0.495
-0.74
-0.895
-0.94
-0.92
-0.875
-0.81
-0.77
-0.785
-0.825
-0.915
-0.98
-1.01
-1.04
-1.055
-1.055
-1.055
-1.055
-1.04
-1.04
-1.03
-1.035
-1.05
-1.055
-1.065
-1.075
-1.06
-1.055
-1.05
-1.055
-1.045
-1.045
-1.03
-1.02
-1.03
-1.045
-1.05
-1.05
-1.06
-1.04
-1.045
-1.05
-1.04
-1.03
-1.015
-1.03
-1.045
-1.065
-1.065
-1.06
-1.05
-1.055
-1.03
-1.025
-1.04
-1.04
-1.035
-1.02
-1.03
-1.04
-1.06
-1.065
-1.065
-1.06
-1.055
-1.055
-1.06
-1.055
-1.03
-1.025
-1.025
-1.04
-1.055
-1.06
-1.035
-1.01
-0.985
-0.975
-0.975
-0.975
-0.975
-0.97
-0.95
-0.955
-0.96
-0.97
-0.96
-0.955
-0.935
-0.925
-0.935
-0.925
-0.925
-0.92
-0.91
-0.905
-0.895
-0.91
-0.9
-0.895
-0.885
-0.88
-0.88
-0.875
-0.88
-0.86
-0.875
-0.88
-0.885
-0.905
-0.92
-0.92
-0.91
-0.9
-0.88
-0.88
-0.9
-0.885
-0.88
-0.89
-0.915
-0.935
-0.935
-0.94
-0.91
-0.895
-0.89
-0.905
-0.895
-0.915
-0.9
-0.92
-0.94
-0.96
-0.975
-0.98
-0.99
-0.975
-0.96
-0.965
-0.95
-0.96
-0.97
-0.98
-0.985
-0.99
-1.015
-1.01
-1.02
-1.0
-0.995
-0.98
-0.985
-0.99
-0.99
-0.995
-0.995
-1.0
-1.005
-1.005
-0.985
-0.975
-0.95
-0.94
-0.945
-0.945
-0.95
-0.95
-0.95
-0.96
-0.96
-0.96
-0.97
-0.95
-0.94
-0.92
-0.91
-0.92
-0.9
-0.895
-0.89
-0.875
-0.895
-0.87
-0.84
-0.81
-0.79
-0.76
-0.73
-0.715
-0.705
-0.725
-0.725
-0.75
-0.775
-0.755
-0.735
-0.715
-0.715
-0.72
-0.74
-0.76
-0.78
-0.77
-0.79
-0.815
-0.85
-0.875
-0.9
-0.895
-0.905
-0.895
-0.91
-0.925
-0.91
-0.915
-0.93
-0.96
-0.97
-0.955
-0.95
-0.935
-0.945
-0.945
-0.935
-0.945
-0.945
-0.935
-0.95
-0.97
-0.995
-1.02
-1.065
-1.1
-1.15
-1.18
-1.145
-1.08
-0.97
-0.795
-0.615
-0.425
-0.245
-0.06
0.125
0.295
0.47
0.62
0.755
0.84
0.88
0.86
0.825
0.755
0.645
0.47
0.185
-0.155
-0.49
-0.765
-0.9
-0.925
-0.905
-0.84
-0.8
-0.79
-0.82
-0.855
-0.915
-0.96
-1.0
-1.025
-1.025
-1.03
-1.025
-1.035
-1.035
-1.05
-1.065
-1.05
-1.025
-1.02
-1.0
-0.995
-1.01
-1.015
-1.015
-1.03
-1.04
-1.05
-1.02
-1.015
-1.005
-1.0
-1.005
-1.01
-1.025
-1.015
-1.015
-1.015
-1.03
-1.035
-1.03
-1.03
-1.015
-1.01
-1.015
-1.02
-1.02
-1.02
-1.015
-1.04
-1.065
-1.075
-1.075
-1.045
-1.045
-1.025
-1.015
-1.0
-0.99
-0.995
-0.995
-1.01
-1.025
-1.035
-1.01
-1.01
-0.995
-0.99
-0.985
-0.97
-0.96
-0.955
-0.97
-0.98
-0.98
-0.97
-0.965
-0.95
-0.94
-0.935
-0.915
-0.9
-0.88
-0.875
-0.88
-0.875
-0.915
-0.9
-0.89
-0.89
-0.88
-0.875
-0.87
-0.865
-0.85
-0.855
-0.875
-0.88
-0.89
-0.905
-0.885
-0.88
-0.875
-0.895
-0.885
-0.875
-0.865
-0.855
-0.875
-0.9
-0.925
-0.925
-0.915
-0.925
-0.91
-0.91
-0.905
-0.915
-0.9
-0.885
-0.895
-0.915
-0.91
-0.91
-0.92
-0.935
-0.93
-0.93
-0.925
-0.93
-0.915
-0.925
-0.94
-0.94
-0.97
-0.965
-0.965
-0.97
-0.98
-0.965
-0.96
-0.95
-0.93
-0.93
-0.93
-0.945
-0.955
-0.955
-0.96
-0.965
-0.955
-0.945
-0.93
-0.925
-0.91
-0.92
-0.93
-0.945
-0.96
-0.945
-0.94
-0.905
-0.89
-0.885
-0.89
-0.875
-0.855
-0.84
-0.85
-0.84
-0.835
-0.82
-0.78
-0.78
-0.74
-0.73
-0.705
-0.69
-0.685
-0.675
-0.67
-0.67
-0.685
-0.695
-0.685
-0.7
-0.72
-0.725
-0.73
-0.735
-0.715
-0.725
-0.74
-0.78
-0.805
-0.83
-0.845
-0.85
-0.84
-0.865
-0.865
-0.875
-0.88
-0.895
-0.91
-0.925
-0.94
-0.94
-0.96
-0.97
-0.96
-0.945
-0.93
-0.91
-0.895
-0.915
-0.915
-0.935
-0.96
-0.995
-1.025
-1.09
-1.145
-1.19
-1.15
-1.08
-0.96
-0.81
-0.65
-0.45
-0.28
-0.08
0.08
0.26
0.42
0.575
0.685
0.755
0.805
0.8
0.78
0.705
0.615
0.51
0.315
0.02
-0.315
-0.62
-0.815
-0.925
-0.92
-0.87
-0.815
-0.765
-0.765
-0.78
-0.805
-0.85
-0.92
-0.96
-0.985
-0.995
-1.0
-0.99
-0.975
-0.975
-0.995
-1.01
-1.0
-0.995
-0.985
-0.975
-0.98
-0.985
-0.955
-0.97
-0.96
-0.97
-0.985
-0.985
-0.98
-0.99
-0.99
-0.985
-1.005
-0.99
-0.97
-0.97
-0.975
-0.98
-0.975
-0.99
-0.995
-1.0
-1.005
-1.005
-0.995
-0.99
-0.995
-0.96
-0.96
-0.965
-0.965
-0.975
-0.98
-0.98
-0.98
-0.985
-0.975
-0.955
-0.96
-0.945
-0.945
-0.95
-0.96
-0.975
-0.96
-0.96
-0.955
-0.965
-0.96
-0.93
-0.92
-0.905
-0.905
-0.915
-0.89
-0.91
-0.89
-0.89
-0.88
-0.865
-0.86
-0.84
-0.84
-0.82
-0.815
-0.825
-0.83
-0.815
-0.815
-0.825
-0.82
-0.81
-0.82
-0.79
-0.775
-0.775
-0.775
-0.8
-0.82
-0.81
-0.82
-0.82
-0.815
-0.82
-0.815
-0.81
-0.81
-0.805
-0.82
-0.82
-0.845
-0.845
-0.87
-0.875
-0.855
-0.855
-0.84
-0.84
-0.82
-0.84
-0.83
-0.86
-0.875
-0.865
-0.865
-0.86
-0.885
-0.88
-0.885
-0.87
-0.85
-0.855
-0.87
-0.885
-0.89
-0.905
-0.9
-0.905
-0.9
-0.895
-0.895
-0.875
-0.86
-0.855
-0.85
-0.88
-0.88
-0.875
-0.885
-0.87
-0.89
-0.885
-0.87
-0.87
-0.855
-0.835
-0.845
-0.87
-0.87
-0.86
-0.85
-0.84
-0.835
-0.835
-0.845
-0.82
-0.805
-0.79
-0.765
-0.77
-0.775
-0.765
-0.74
-0.71
-0.68
-0.66
-0.64
-0.635
-0.61
-0.615
-0.62
-0.63
-0.655
-0.645
-0.655
-0.645
-0.675
-0.69
-0.705
-0.695
-0.68
-0.685
-0.71
-0.755
-0.795
-0.82
-0.83
-0.84
-0.86
-0.865
-0.865
-0.86
-0.855
-0.85
-0.865
-0.88
-0.9
-0.905
-0.905
-0.915
-0.91
-0.91
-0.885
-0.88
-0.865
-0.875
-0.885
-0.92
-0.945
-0.98
-1.015
-1.07
-1.115
-1.115
-1.075
-1.005
-0.885
-0.725
-0.51
-0.305
-0.11
0.07
0.235
0.415
0.535
0.67
0.735
0.8
0.795
0.775
0.745
0.68
0.595
0.465
0.24
-0.065
-0.39
-0.67
-0.85
-0.925
-0.91
-0.845
-0.795
-0.77
-0.8
-0.83
-0.89
-0.945
-0.995
-1.015
-1.025
-1.03
-1.015
-1.01
-1.0
-1.01
-1.015
-1.015
-1.0
-1.0
-0.995
-0.995
-0.99
-0.99
-0.97
-0.98
-0.99
-1.015
-1.04
-1.02
-1.025
-1.03
-1.025
-1.025
-1.03
-1.025
-1.01
-1.0
-1.005
-1.035
-1.025
-1.045
-1.045
-1.055
-1.03
-1.035
-1.035
-1.01
-1.025
-1.02
-1.015
-1.05
-1.055
-1.055
-1.04
-1.045
-1.05
-1.055
-1.035
-1.02
-1.0
-1.0
-1.01
-1.015
-1.04
-1.03
-1.015
-1.02
-1.02
-0.99
-0.995
-0.99
-0.96
-0.95
-0.955
-0.975
-0.96
-0.955
-0.94
-0.93
-0.925
-0.93
-0.915
-0.905
-0.885
-0.885
-0.885
-0.875
-0.895
-0.875
-0.885
-0.88
-0.885
-0.875
-0.88
-0.865
-0.85
-0.86
-0.855
-0.875
-0.885
-0.885
-0.91
-0.885
-0.895
-0.905
-0.885
-0.89
-0.88
-0.885
-0.895
-0.9
-0.94
-0.94
-0.93
-0.93
-0.915
-0.92
-0.915
-0.935
-0.935
-0.925
-0.92
-0.925
-0.955
-0.965
-0.98
-0.975
-0.965
-0.97
-0.965
-0.97
-0.965
-0.97
-0.98
-0.975
-0.99
-1.01
-1.025
-1.01
-1.01
-1.0
-0.99
-0.995
-0.995
-0.985
-0.97
-0.985
-1.005
-1.0
-1.025
-1.005
-0.98
-0.985
-0.985
-0.985
-0.975
-0.96
-0.955
-0.975
-0.99
-1.005
-0.99
-0.99
-0.98
-0.96
-0.94
-0.925
-0.93
-0.915
-0.91
-0.905
-0.91
-0.895
-0.89
-0.875
-0.85
-0.825
-0.81
-0.78
-0.77
-0.735
-0.745
-0.73
-0.74
-0.755
-0.76
-0.765
-0.765
-0.765
-0.765
-0.765
-0.775
-0.785
-0.8
-0.795
-0.825
-0.83
-0.875
-0.9
-0.91
-0.91
-0.92
-0.935
-0.95
-0.96
-0.955
-0.97
-0.98
-0.995
-0.995
-1.02
-1.02
-1.02
-1.01
-1.005
-1.0
-0.98
-0.995
-1.0
-1.01
-1.005
-1.015
-1.045
-1.055
-1.07
-1.1
-1.16
-1.195
-1.205
-1.175
-1.085
-0.96
-0.785
-0.605
-0.395
-0.205
-0.02
0.165
0.32
0.48
0.58
0.665
0.705
0.715
0.715
0.7
0.625
0.58
0.49
0.335
0.105
-0.195
-0.52
-0.785
-0.945
-1.01
-0.985
-0.94
-0.9
-0.88
-0.905
-0.91
-0.95
-1.0
-1.03
-1.065
-1.09
-1.11
-1.115
-1.105
-1.11
-1.11
-1.125
-1.115
-1.1
-1.07
-1.065
-1.07
-1.085
-1.09
-1.085
-1.095
-1.09
-1.09
-1.1
-1.095
-1.085
-1.07
-1.06
-1.08
-1.08
-1.1
-1.115
-1.1
-1.095
-1.095
-1.085
-1.095
-1.095
-1.085
-1.07
-1.075
-1.085
-1.09
-1.085
-1.09
-1.09
-1.1
-1.095
-1.095
-1.09
-1.075
-1.07
-1.07
-1.08
-1.095
-1.1
-1.1
-1.085
-1.075
-1.08
-1.075
-1.065
-1.05
-1.05
-1.04
-1.05
-1.05
-1.05
-1.065
-1.055
-1.04
-1.035
-1.035
-1.015
-1.0
-0.975
-0.96
-0.97
-0.98
-0.985
-0.985
-0.965
-0.96
-0.95
-0.955
-0.94
-0.935
-0.91
-0.915
-0.915
-0.93
-0.95
-0.945
-0.945
-0.935
-0.915
-0.92
-0.92
-0.945
-0.945
-0.93
-0.94
-0.94
-0.94
-0.955
-0.97
-0.985
-0.955
-0.95
-0.95
-0.945
-0.945
-0.94
-0.95
-0.965
-0.975
-0.985
-0.99
-0.985
-0.985
-0.995
-1.0
-0.985
-0.985
-0.995
-0.99
-1.005
-1.02
-1.04
-1.045
-1.025
-1.03
-1.03
-1.02
-1.03
-1.02
-1.03
-1.03
-1.04
-1.055
-1.05
-1.055
-1.055
-1.04
-1.025
-1.035
-1.015
-1.015
-1.02
-1.02
-1.04
-1.03
-1.045
-1.05
-1.04
-1.015
-1.035
-1.02
-1.025
-0.995
-1.005
-0.985
-0.995
-0.995
-0.985
-0.98
-0.975
-0.965
-0.965
-0.945
-0.91
-0.9
-0.87
-0.84
-0.845
-0.83
-0.82
-0.795
-0.78
-0.785
-0.76
-0.77
-0.745
-0.745
-0.755
-0.76
-0.79
-0.815
-0.85
-0.825
-0.83
-0.845
-0.845
-0.865
-0.875
-0.89
-0.92
-0.95
-1.0
-1.0
-1.01
-1.01
-1.025
-1.015
-1.02
-1.015
-1.005
-1.01
-1.02
-1.015
-1.025
-1.035
-1.015
-1.025
-1.01
-1.025
-1.025
-1.035
-1.035
-1.06
-1.09
-1.155
-1.21
-1.245
-1.245
-1.2
-1.095
-0.975
-0.8
-0.625
-0.415
-0.21
-0.03
0.145
0.31
0.46
0.585
0.675
0.72
0.73
0.71
0.66
0.615
0.525
0.37
0.105
-0.24
-0.565
-0.815
-0.955
-1.005
-0.995
-0.935
-0.875
-0.85
-0.87
-0.92
-0.995
-1.065
-1.095
-1.12
-1.15
-1.14
-1.125
-1.105
-1.1
-1.085
-1.1
-1.095
-1.105
-1.105
-1.095
-1.11
-1.105
-1.135
-1.115
-1.115
-1.11
-1.09
-1.085
-1.08
-1.1
-1.105
-1.1
-1.105
-1.09
-1.1
-1.105
-1.1
-1.075
-1.065
-1.075
-1.08
-1.08
-1.08
-1.09
-1.105
-1.11
-1.11
-1.11
-1.095
-1.085
-1.075
-1.075
-1.09
-1.105
-1.085
-1.095
-1.09
-1.08
-1.095
-1.105
-1.08
-1.075
-1.04
-1.045
-1.05
-1.055
-1.05
-1.055
-1.055
-1.055
-1.05
-1.04
-1.025
-1.035
-1.0
-0.99
-0.975
-0.965
-0.96
-0.96
-0.97
-0.965
-0.95
-0.935
-0.935
-0.92
-0.905
-0.925
-0.925
-0.915
-0.935
-0.945
-0.955
-0.98
-0.98
-0.97
-0.95
-0.935
-0.92
-0.935
-0.93
-0.94
-0.94
-0.95
-0.94
-0.96
-0.98
-0.97
-0.955
-0.95
-0.96
-0.965
-0.97
-0.975
-0.995
-0.99
-1.005
-1.02
-1.02
-1.0
-0.98
-0.98
-0.99
-0.995
-1.03
-1.03
-1.03
-1.015
-1.035
-1.05
-1.065
-1.055
-1.06
-1.025
-1.04
-1.04
-1.035
-1.035
-1.045
-1.045
-1.035
-1.05
-1.05
-1.04
-1.02
-1.015
-1.01
-1.015
-1.01
-1.0
-0.99
-1.015
-1.02
-1.025
-1.04
-1.02
-1.02
-1.015
-0.995
-0.99
-0.98
-0.955
-0.955
-0.965
-0.98
-0.99
-0.98
-0.945
-0.915
-0.885
-0.87
-0.855
-0.825
-0.815
-0.81
-0.8
-0.795
-0.795
-0.78
-0.76
-0.755
-0.745
-0.75
-0.765
-0.75
-0.77
-0.77
-0.79
-0.82
-0.84
-0.84
-0.855
-0.84
-0.845
-0.87
-0.89
-0.915
-0.94
-0.96
-0.97
-0.985
-1.0
-1.01
-1.0
-0.98
-0.995
-0.97
-0.985
-0.98
-0.995
-0.985
-0.97
-0.995
-1.0
-1.02
-1.0
-1.02
-1.015
-1.03
-1.05
-1.105
-1.165
-1.185
-1.215
-1.175
-1.07
-0.89
-0.675
-0.435
-0.22
0.005
0.215
0.385
0.545
0.64
0.72
0.745
0.74
0.72
0.68
0.6
0.455
0.235
-0.045
-0.36
-0.645
-0.85
-0.975
-1.005
-0.985
-0.915
-0.87
-0.845
-0.86
-0.91
-0.95
-1.005
-1.04
-1.065
-1.095
-1.115
-1.11
-1.1
-1.095
-1.09
-1.095
-1.085
-1.08
-1.085
-1.06
-1.07
-1.085
-1.11
-1.105
-1.105
-1.09
-1.075
-1.08
-1.095
-1.1
-1.085
-1.1
-1.095
-1.115
-1.12
-1.12
-1.125
-1.09
-1.08
-1.065
-1.07
-1.075
-1.08
-1.09
-1.09
-1.1
-1.11
-1.125
-1.125
-1.085
-1.11
-1.075
-1.085
-1.075
-1.065
-1.065
-1.075
-1.105
-1.11
-1.095
-1.09
-1.075
-1.065
-1.055
-1.045
-1.065
-1.045
-1.045
-1.04
-1.045
-1.06
-1.055
-1.055
-1.045
-1.025
-1.02
-1.015
-0.995
-0.98
-0.98
-0.975
-0.97
-0.985
-0.98
-0.96
-0.94
-0.905
-0.89
-0.905
-0.905
-0.895
-0.905
-0.9
-0.925
-0.94
-0.95
-0.95
-0.935
-0.915
-0.915
-0.94
-0.935
-0.935
-0.94
-0.94
-0.945
-0.96
-0.965
-0.965
-0.95
-0.94
-0.925
-0.915
-0.945
-0.93
-0.94
-0.95
-0.95
-0.97
-0.985
-0.97
-0.96
-0.97
-0.995
-0.995
-0.98
-0.975
-0.97
-0.97
-0.99
-1.0
-1.02
-1.03
-1.005
-1.015
-1.025
-1.02
-1.0
-1.015
-1.005
-1.01
-1.03
-1.035
-1.025
-1.015
-0.995
-0.98
-0.98
-0.97
-0.98
-0.975
-0.985
-0.98
-1.005
-1.0
-1.0
-0.985
-0.965
-0.97
-0.975
-0.97
-0.945
-0.945
-0.925
-0.93
-0.945
-0.96
-0.95
-0.935
-0.91
-0.895
-0.865
-0.83
-0.805
-0.765
-0.77
-0.75
-0.74
-0.75
-0.765
-0.76
-0.75
-0.75
-0.745
-0.755
-0.725
-0.73
-0.755
-0.78
-0.79
-0.815
-0.84
-0.815
-0.835
-0.845
-0.885
-0.91
-0.905
-0.925
-0.945
-0.955
-0.985
-0.995
-0.99
-1.0
-0.995
-0.99
-0.99
-0.97
-0.975
-0.97
-0.97
-1.005
-1.015
-1.02
-1.005
-1.015
-1.015
-1.02
-1.055
-1.095
-1.135
-1.165
-1.18
-1.17
-1.135
-1.045
-0.9
-0.705
-0.48
-0.26
-0.08
0.095
0.28
0.44
0.57
0.64
0.69
0.705
0.7
0.67
0.61
0.485
0.295
0.03
-0.28
-0.6
-0.835
-0.97
-1.025
-0.98
-0.925
-0.865
-0.835
-0.87
-0.915
-0.95
-0.99
-1.03
-1.055
-1.085
-1.11
-1.11
-1.085
-1.085
-1.075
-1.085
-1.06
-1.035
-1.045
-1.04
-1.05
-1.065
-1.085
-1.08
-1.07
-1.075
-1.085
-1.085
-1.07
-1.06
-1.05
-1.045
-1.045
-1.065
-1.08
-1.09
-1.1
-1.09
-1.075
-1.1
-1.095
-1.095
-1.065
-1.045
-1.04
-1.05
-1.085
-1.09
-1.095
-1.095
-1.095
-1.085
-1.09
-1.08
-1.075
-1.055
-1.055
-1.055
-1.065
-1.09
-1.085
-1.075
-1.065
-1.035
-1.035
-1.025
-1.015
-1.01
-1.005
-1.015
-1.02
-1.025
-1.04
-1.025
-1.015
-0.985
-0.975
-0.98
-0.975
-0.96
-0.96
-0.95
-0.95
-0.955
-0.94
-0.945
-0.935
-0.915
-0.925
-0.915
-0.905
-0.89
-0.89
-0.915
-0.925
-0.935
-0.945
-0.925
-0.92
-0.915
-0.925
-0.92
-0.925
-0.92
-0.91
-0.93
-0.925
-0.94
-0.945
-0.955
-0.935
-0.935
-0.925
-0.93
-0.925
-0.925
-0.925
-0.93
-0.945
-0.96
-0.975
-0.96
-0.965
-0.955
-0.945
-0.965
-0.965
-0.98
-0.975
-0.97
-0.98
-1.025
-1.02
-1.02
-1.0
-1.0
-0.99
-0.99
-0.995
-0.99
-0.99
-0.975
-0.98
-1.01
-0.985
-0.995
-1.0
-1.0
-0.98
-0.965
-0.96
-0.97
-0.95
-0.965
-0.965
-0.97
-0.975
-0.99
-0.985
-0.965
-0.965
-0.945
-0.935
-0.945
-0.945
-0.935
-0.92
-0.93
-0.925
-0.935
-0.945
-0.91
-0.88
-0.875
-0.82
-0.81
-0.805
-0.795
-0.795
-0.77
-0.75
-0.75
-0.75
-0.74
-0.73
-0.725
-0.705
-0.71
-0.71
-0.735
-0.75
-0.765
-0.765
-0.79
-0.8
-0.79
-0.79
-0.79
-0.785
-0.81
-0.845
-0.88
-0.905
-0.92
-0.935
-0.935
-0.94
-0.935
-0.965
-0.95
-0.955
-0.96
