Lead II
-0.315
-0.325
-0.33
-0.34
-0.355
-0.365
-0.355
-0.36
-0.355
-0.355
-0.34
-0.33
-0.31
-0.285
-0.28
-0.28
-0.26
-0.255
-0.235
-0.23
-0.225
-0.22
-0.215
-0.21
-0.225
-0.23
-0.225
-0.22
-0.21
-0.215
-0.205
-0.205
-0.2
-0.18
-0.185
-0.185
-0.195
-0.195
-0.2
-0.205
-0.195
-0.2
-0.19
-0.185
-0.18
-0.17
-0.175
-0.17
-0.185
-0.195
-0.205
-0.215
-0.21
-0.205
-0.2
-0.195
-0.185
-0.185
-0.195
-0.19
-0.185
-0.18
-0.19
-0.185
-0.185
-0.17
-0.17
-0.17
-0.165
-0.175
-0.18
-0.185
-0.18
-0.185
-0.19
-0.185
-0.18
-0.165
-0.16
-0.145
-0.13
-0.12
-0.13
-0.125
-0.125
-0.12
-0.135
-0.14
-0.13
-0.135
-0.115
-0.125
-0.11
-0.105
-0.12
-0.125
-0.125
-0.14
-0.145
-0.14
-0.135
-0.13
-0.12
-0.11
-0.125
-0.115
-0.125
-0.135
-0.13
-0.13
-0.14
-0.145
-0.145
-0.145
-0.14
-0.135
-0.13
-0.115
-0.125
-0.13
-0.13
-0.135
-0.14
-0.135
-0.135
-0.13
-0.11
-0.11
-0.105
-0.11
-0.14
-0.155
-0.175
-0.17
-0.135
-0.045
0.08
0.275
0.495
0.745
1.02
1.31
1.565
1.755
1.88
1.935
1.94
1.89
1.805
1.64
1.35
0.96
0.525
0.155
-0.095
-0.2
-0.215
-0.175
-0.125
-0.075
-0.06
-0.07
-0.09
-0.105
-0.12
-0.13
-0.125
-0.13
-0.14
-0.15
-0.16
-0.19
-0.205
-0.2
-0.205
-0.21
-0.21
-0.205
-0.205
-0.225
-0.235
-0.24
-0.26
-0.265
-0.265
-0.27
-0.28
-0.285
-0.28
-0.28
-0.285
-0.285
-0.295
-0.31
-0.31
-0.315
-0.32
-0.33
-0.335
-0.33
-0.33
-0.335
-0.355
-0.365
-0.375
-0.38
-0.385
-0.39
-0.375
-0.37
-0.365
-0.35
-0.33
-0.33
-0.33
-0.345
-0.345
-0.365
-0.385
-0.4
-0.4
-0.415
-0.41
-0.405
-0.405
-0.41
-0.425
-0.44
-0.465
-0.485
-0.505
-0.515
-0.54
-0.555
-0.57
-0.59
-0.585
-0.61
-0.65
-0.675
-0.695
-0.695
-0.725
-0.75
-0.765
-0.775
-0.775
-0.78
-0.795
-0.79
-0.8
-0.815
-0.835
-0.845
-0.845
-0.86
-0.845
-0.825
-0.805
-0.78
-0.745
-0.715
-0.69
-0.65
-0.625
-0.605
-0.585
-0.55
-0.5
-0.47
-0.43
-0.375
-0.33
-0.3
-0.26
-0.25
-0.215
-0.2
-0.175
-0.155
-0.145
-0.13
-0.115
-0.105
-0.09
-0.075
-0.055
-0.05
-0.055
-0.065
-0.06
-0.065
-0.065
-0.05
-0.04
-0.035
-0.03
-0.02
-0.03
-0.045
-0.04
-0.05
-0.065
-0.075
-0.07
-0.065
-0.05
-0.04
-0.035
-0.04
-0.05
-0.055
-0.06
-0.065
-0.08
-0.075
-0.07
-0.07
-0.07
-0.055
-0.055
-0.055
-0.07
-0.075
-0.085
-0.085
-0.1
-0.11
-0.11
-0.115
-0.11
-0.11
-0.095
-0.08
-0.075
-0.06
-0.065
-0.05
-0.055
-0.045
-0.045
-0.04
-0.045
-0.045
-0.045
-0.045
-0.045
-0.05
-0.06
-0.06
-0.06
-0.065
-0.06
-0.065
-0.06
-0.06
-0.065
-0.05
-0.045
-0.07
-0.075
-0.07
-0.08
-0.085
-0.09
-0.1
-0.085
-0.095
-0.095
-0.095
-0.095
-0.115
-0.125
-0.135
-0.14
-0.145
-0.145
-0.145
-0.14
-0.165
-0.14
-0.135
-0.14
-0.165
-0.16
-0.165
-0.17
-0.185
-0.2
-0.2
-0.2
-0.195
-0.19
-0.185
-0.185
-0.195
-0.185
-0.185
-0.2
-0.195
-0.195
-0.195
-0.19
-0.165
-0.135
-0.12
-0.115
-0.11
-0.12
-0.13
-0.145
-0.15
-0.15
-0.14
-0.135
-0.13
-0.12
-0.115
-0.125
-0.125
-0.11
-0.115
-0.115
-0.13
-0.14
-0.14
-0.175
-0.185
-0.185
-0.15
-0.08
0.02
0.21
0.415
0.65
0.935
1.22
1.475
1.685
1.795
1.835
1.82
1.72
1.565
1.265
0.865
0.41
0.0
-0.26
-0.375
-0.385
-0.355
-0.285
-0.24
-0.235
-0.24
-0.27
-0.315
-0.34
-0.365
-0.37
-0.37
-0.36
-0.35
-0.325
-0.32
-0.325
-0.325
-0.335
-0.335
-0.36
-0.36
-0.365
-0.365
-0.35
-0.345
-0.345
-0.345
-0.345
-0.355
-0.36
-0.37
-0.38
-0.385
-0.395
-0.405
-0.395
-0.39
-0.4
-0.38
-0.385
-0.4
-0.415
-0.425
-0.44
-0.46
-0.455
-0.47
-0.46
-0.47
-0.47
-0.47
-0.485
-0.48
-0.505
-0.52
-0.525
-0.535
-0.54
-0.535
-0.55
-0.555
-0.56
-0.565
-0.575
-0.59
-0.605
-0.615
-0.635
-0.65
-0.665
-0.665
-0.68
-0.685
-0.695
-0.7
-0.74
-0.76
-0.795
-0.82
-0.845
-0.86
-0.875
-0.885
-0.885
-0.895
-0.89
-0.9
-0.905
-0.91
-0.925
-0.93
-0.935
-0.945
-0.955
-0.955
-0.95
-0.94
-0.935
-0.915
-0.905
-0.88
-0.86
-0.84
-0.815
-0.79
-0.77
-0.735
-0.71
-0.66
-0.635
-0.6
-0.58
-0.565
-0.545
-0.535
-0.52
-0.505
-0.49
-0.48
-0.455
-0.435
-0.42
-0.41
-0.425
-0.415
-0.42
-0.425
-0.43
-0.44
-0.445
-0.44
-0.425
-0.42
-0.41
-0.415
-0.405
-0.415
-0.42
-0.425
-0.435
-0.445
-0.45
-0.445
-0.44
-0.425
-0.43
-0.415
-0.415
-0.405
-0.42
-0.415
-0.4
-0.405
-0.395
-0.385
-0.385
-0.375
-0.375
-0.37
-0.37
-0.365
-0.365
-0.375
-0.375
-0.38
-0.375
-0.38
-0.37
-0.38
-0.37
-0.365
-0.36
-0.37
-0.38
-0.38
-0.4
-0.405
-0.395
-0.395
-0.395
-0.4
-0.39
-0.4
-0.4
-0.405
-0.41
-0.415
-0.425
-0.43
-0.44
-0.435
-0.425
-0.425
-0.425
-0.415
-0.43
-0.435
-0.44
-0.45
-0.465
-0.475
-0.465
-0.455
-0.45
-0.445
-0.445
-0.44
-0.44
-0.445
-0.455
-0.465
-0.475
-0.48
-0.49
-0.49
-0.495
-0.495
-0.485
-0.5
-0.48
-0.475
-0.46
-0.455
-0.455
-0.45
-0.435
-0.43
-0.415
-0.41
-0.41
-0.405
-0.405
-0.415
-0.435
-0.43
-0.45
-0.46
-0.455
-0.465
-0.48
-0.47
-0.465
-0.47
-0.47
-0.465
-0.48
-0.47
-0.485
-0.495
-0.5
-0.49
-0.475
-0.475
-0.47
-0.465
-0.48
-0.455
-0.465
-0.47
-0.47
-0.49
-0.495
-0.505
-0.49
-0.49
-0.47
-0.475
-0.48
-0.49
-0.49
-0.49
-0.49
-0.495
-0.5
-0.495
-0.46
-0.46
-0.48
-0.475
-0.465
-0.48
-0.475
-0.5
-0.525
-0.565
-0.59
-0.58
-0.545
-0.45
-0.295
-0.095
0.12
0.4
0.7
1.0
1.275
1.48
1.61
1.65
1.625
1.52
1.34
1.02
0.57
0.08
-0.315
-0.56
-0.65
-0.65
-0.59
-0.53
-0.48
-0.475
-0.495
-0.51
-0.53
-0.57
-0.59
-0.59
-0.605
-0.62
-0.625
-0.63
-0.655
-0.65
-0.66
-0.67
-0.67
-0.68
-0.685
-0.7
-0.71
-0.725
-0.73
-0.725
-0.73
-0.74
-0.73
-0.71
-0.715
-0.725
-0.725
-0.73
-0.735
-0.75
-0.765
-0.765
-0.765
-0.76
-0.745
-0.76
-0.76
-0.765
-0.78
-0.775
-0.775
-0.785
-0.795
-0.785
-0.805
-0.81
-0.795
-0.8
-0.8
-0.795
-0.81
-0.81
-0.825
-0.815
-0.815
-0.82
-0.81
-0.81
-0.8
-0.8
-0.8
-0.82
-0.83
-0.85
-0.875
-0.89
-0.9
-0.905
-0.91
-0.915
-0.925
-0.935
-0.955
-0.985
-0.995
-1.02
-1.035
-1.055
-1.075
-1.09
-1.1
-1.125
-1.115
-1.145
-1.165
-1.17
-1.185
-1.205
-1.225
-1.235
-1.22
-1.235
-1.21
-1.2
-1.165
-1.145
-1.125
-1.125
-1.1
-1.065
-1.025
-1.0
-0.96
-0.93
-0.9
-0.855
-0.825
-0.8
-0.79
-0.75
-0.735
-0.725
-0.715
-0.695
-0.68
-0.675
-0.67
-0.65
-0.655
-0.64
-0.635
-0.64
-0.645
-0.64
-0.63
-0.635
-0.62
-0.61
-0.59
-0.575
-0.565
-0.555
-0.555
-0.555
-0.56
-0.565
-0.55
-0.565
-0.55
-0.545
-0.525
-0.515
-0.51
-0.505
-0.51
-0.52
-0.525
-0.525
-0.545
-0.555
-0.54
-0.54
-0.53
-0.52
-0.515
-0.525
-0.52
-0.505
-0.52
-0.52
-0.515
-0.525
-0.52
-0.525
-0.52
-0.515
-0.515
-0.52
-0.51
-0.505
-0.51
-0.515
-0.51
-0.51
-0.515
-0.515
-0.505
-0.51
-0.52
-0.525
-0.555
-0.565
-0.54
-0.47
-0.335
-0.16
0.05
0.315
0.605
0.915
1.215
1.46
1.615
1.685
1.675
1.61
1.445
1.17
0.765
0.28
-0.18
-0.49
-0.64
-0.66
-0.64
-0.6
-0.555
-0.53
-0.535
-0.55
-0.555
-0.585
-0.585
-0.585
-0.58
-0.6
-0.6
-0.615
-0.63
-0.63
-0.65
-0.665
-0.67
-0.68
-0.685
-0.69
-0.685
-0.675
-0.675
-0.685
-0.705
-0.695
-0.71
-0.715
-0.735
-0.74
-0.735
-0.735
-0.735
-0.73
-0.735
-0.745
-0.74
-0.75
-0.755
-0.77
-0.77
-0.775
-0.78
-0.79
-0.795
-0.8
-0.825
-0.82
-0.835
-0.84
-0.835
-0.845
-0.845
-0.835
-0.86
-0.84
-0.845
-0.83
-0.845
-0.87
-0.885
-0.895
-0.91
-0.92
-0.935
-0.94
-0.95
-0.955
-0.955
-0.965
-0.97
-0.975
-0.995
-1.01
-1.035
-1.05
-1.06
-1.08
-1.1
-1.09
-1.085
-1.09
-1.08
-1.08
-1.09
-1.095
-1.09
-1.085
-1.08
-1.045
-1.02
-0.985
-0.955
-0.92
-0.895
-0.87
-0.835
-0.83
-0.8
-0.8
-0.765
-0.75
-0.715
-0.705
-0.69
-0.675
-0.675
-0.67
-0.685
-0.69
-0.695
-0.71
-0.71
-0.705
-0.68
-0.655
-0.635
-0.625
-0.6
-0.6
-0.59
-0.585
-0.575
-0.585
-0.59
-0.575
-0.585
-0.575
-0.575
-0.575
-0.565
-0.56
-0.57
-0.565
-0.565
-0.565
-0.56
-0.555
-0.545
-0.54
-0.525
-0.525
-0.53
-0.545
-0.545
-0.555
-0.555
-0.565
-0.56
-0.56
-0.555
-0.545
-0.54
-0.54
-0.535
-0.545
-0.555
-0.56
-0.555
-0.575
-0.56
-0.55
-0.555
-0.545
-0.55
-0.535
-0.54
-0.545
-0.56
-0.555
-0.57
-0.585
-0.595
-0.595
-0.585
-0.565
-0.565
-0.545
-0.545
-0.545
-0.535
-0.525
-0.53
-0.525
-0.52
-0.525
-0.535
-0.52
-0.515
-0.505
-0.51
-0.515
-0.52
-0.52
-0.52
-0.53
-0.535
-0.515
-0.51
-0.515
-0.5
-0.49
-0.49
-0.495
-0.49
-0.5
-0.495
-0.5
-0.505
-0.51
-0.505
-0.505
-0.5
-0.495
-0.48
-0.48
-0.5
-0.505
-0.505
-0.51
-0.505
-0.5
-0.49
-0.49
-0.49
-0.475
-0.47
-0.465
-0.47
-0.47
-0.475
-0.485
-0.49
-0.485
-0.49
-0.485
-0.49
-0.485
-0.49
-0.505
-0.5
-0.49
-0.485
-0.465
-0.46
-0.445
-0.425
-0.405
-0.385
-0.375
-0.38
-0.37
-0.375
-0.365
-0.375
-0.375
-0.38
-0.37
-0.36
-0.37
-0.37
-0.39
-0.41
-0.415
-0.41
-0.335
-0.195
0.015
0.245
0.53
0.84
1.185
1.465
1.68
1.795
1.83
1.78
1.635
1.385
1.01
0.51
0.02
-0.33
-0.53
-0.57
-0.525
-0.445
-0.365
-0.355
-0.355
-0.37
-0.4
-0.43
-0.42
-0.43
-0.425
-0.415
-0.425
-0.425
-0.435
-0.45
-0.46
-0.47
-0.475
-0.465
-0.465
-0.465
-0.445
-0.435
-0.435
-0.43
-0.415
-0.42
-0.425
-0.42
-0.425
-0.44
-0.43
-0.425
-0.42
-0.42
-0.42
-0.445
-0.445
-0.46
-0.47
-0.48
-0.485
-0.485
-0.495
-0.495
-0.48
-0.47
-0.465
-0.475
-0.465
-0.49
-0.5
-0.51
-0.525
-0.545
-0.545
-0.53
-0.535
-0.52
-0.51
-0.53
-0.54
-0.55
-0.565
-0.575
-0.59
-0.605
-0.615
-0.62
-0.63
-0.635
-0.645
-0.655
-0.665
-0.685
-0.715
-0.745
-0.775
-0.79
-0.805
-0.805
-0.805
-0.805
-0.8
-0.79
-0.795
-0.795
-0.8
-0.8
-0.8
-0.79
-0.77
-0.745
-0.71
-0.675
-0.63
-0.605
-0.57
-0.54
-0.51
-0.485
-0.445
-0.43
-0.385
-0.36
-0.315
-0.295
-0.265
-0.235
-0.225
-0.215
-0.2
-0.19
-0.18
-0.18
-0.17
-0.155
-0.15
-0.14
-0.125
-0.135
-0.13
-0.125
-0.125
-0.13
-0.125
-0.125
-0.125
-0.11
-0.11
-0.085
-0.07
-0.065
-0.055
-0.06
-0.06
-0.075
-0.09
-0.1
-0.09
-0.075
-0.07
-0.06
-0.045
-0.035
-0.015
-0.01
-0.01
-0.01
-0.005
-0.005
0.0
0.01
0.015
0.025
0.04
0.035
0.03
0.03
0.03
0.02
0.015
0.015
0.015
0.02
0.03
0.035
0.04
0.05
0.04
0.02
0.02
0.015
0.005
0.005
0.005
0.01
0.015
0.02
0.015
0.015
0.01
0.01
0.01
0.005
-0.02
-0.015
-0.015
-0.02
-0.015
-0.005
0.0
-0.01
-0.01
-0.02
-0.02
-0.035
-0.05
-0.065
-0.075
-0.065
-0.065
-0.05
-0.055
-0.05
-0.055
-0.055
-0.055
-0.055
-0.055
-0.055
-0.03
-0.035
-0.015
-0.005
0.005
0.005
0.005
0.005
-0.01
-0.01
-0.005
-0.005
-0.005
0.015
0.025
0.02
0.03
0.015
0.01
0.015
0.01
0.01
-0.01
-0.015
-0.005
-0.005
0.005
0.015
0.015
0.015
0.015
0.01
0.0
0.0
0.0
-0.02
-0.01
-0.015
-0.015
-0.005
0.01
0.005
0.005
0.015
0.01
0.005
-0.005
-0.005
0.0
0.015
0.005
0.005
0.01
-0.015
-0.025
-0.05
-0.07
-0.06
0.005
0.115
0.29
0.505
0.775
1.05
1.33
1.585
1.755
1.855
1.87
1.845
1.775
1.67
1.475
1.18
0.77
0.37
0.06
-0.11
-0.165
-0.14
-0.1
-0.05
-0.02
-0.015
-0.035
-0.07
-0.09
-0.095
-0.105
-0.105
-0.105
-0.11
-0.115
-0.14
-0.15
-0.16
-0.16
-0.155
-0.165
-0.165
-0.16
-0.16
-0.175
-0.17
-0.185
-0.185
-0.195
-0.195
-0.195
-0.205
-0.21
-0.215
-0.21
-0.2
-0.215
-0.23
-0.235
-0.245
-0.26
-0.26
-0.27
-0.26
-0.26
-0.26
-0.27
-0.275
-0.275
-0.275
-0.285
-0.28
-0.29
-0.27
-0.29
-0.295
-0.3
-0.295
-0.295
-0.315
-0.33
-0.35
-0.36
-0.365
-0.38
-0.395
-0.405
-0.41
-0.42
-0.43
-0.44
-0.455
-0.475
-0.485
-0.505
-0.535
-0.565
-0.575
-0.585
-0.61
-0.625
-0.635
-0.65
-0.67
-0.685
-0.71
-0.73
-0.735
-0.765
-0.775
-0.785
-0.775
-0.79
-0.77
-0.755
-0.75
-0.75
-0.755
-0.735
-0.705
-0.68
-0.66
-0.625
-0.575
-0.525
-0.49
-0.44
-0.405
-0.37
-0.325
-0.315
-0.305
-0.285
-0.255
-0.245
-0.235
-0.21
-0.185
-0.145
-0.15
-0.155
-0.14
-0.145
-0.15
-0.145
-0.145
-0.16
-0.14
-0.13
-0.13
-0.115
-0.125
-0.115
-0.12
-0.13
-0.155
-0.15
-0.155
-0.145
-0.15
-0.135
-0.13
-0.13
-0.135
-0.125
-0.135
-0.15
-0.15
-0.15
-0.155
-0.145
-0.145
-0.125
-0.125
-0.12
-0.115
-0.105
-0.11
-0.12
-0.125
-0.13
-0.125
-0.135
-0.135
-0.13
-0.12
-0.115
-0.11
-0.11
-0.13
-0.125
-0.135
-0.125
-0.13
-0.12
-0.11
-0.1
-0.09
-0.085
-0.09
-0.095
-0.1
-0.12
-0.13
-0.13
-0.125
-0.125
-0.115
-0.11
-0.105
-0.1
-0.095
-0.11
-0.11
-0.115
-0.125
-0.135
-0.13
-0.135
-0.13
-0.13
-0.135
-0.13
-0.13
-0.135
-0.13
-0.13
-0.14
-0.145
-0.145
-0.155
-0.15
-0.135
-0.135
-0.14
-0.135
-0.145
-0.155
-0.145
-0.155
-0.15
-0.155
-0.15
-0.15
-0.145
-0.16
-0.165
-0.19
-0.22
-0.255
-0.26
-0.26
-0.175
-0.05
0.12
0.325
0.57
0.84
1.1
1.34
1.535
1.645
1.695
1.69
1.645
1.565
1.41
1.16
0.8
0.385
0.015
-0.23
-0.345
-0.35
-0.31
-0.265
-0.23
-0.22
-0.22
-0.22
-0.245
-0.255
-0.26
-0.265
-0.27
-0.28
-0.295
-0.31
-0.325
-0.34
-0.355
-0.355
-0.355
-0.35
-0.36
-0.345
-0.36
-0.375
-0.39
-0.4
-0.4
-0.415
-0.415
-0.42
-0.42
-0.42
-0.42
-0.41
-0.425
-0.415
-0.425
-0.425
-0.44
-0.445
-0.45
-0.45
-0.465
-0.47
-0.47
-0.48
-0.505
-0.515
-0.545
-0.555
-0.565
-0.59
-0.59
-0.555
-0.545
-0.545
-0.52
-0.53
-0.53
-0.53
-0.54
-0.545
-0.565
-0.565
-0.585
-0.585
-0.595
-0.62
-0.615
-0.625
-0.645
-0.65
-0.685
-0.69
-0.71
-0.735
-0.745
-0.76
-0.77
-0.78
-0.79
-0.81
-0.83
-0.85
-0.875
-0.895
-0.92
-0.95
-0.96
-0.985
-0.99
-0.985
-0.965
-0.975
-0.96
-0.955
-0.94
-0.925
-0.905
-0.88
-0.835
-0.8
-0.765
-0.735
-0.71
-0.67
-0.645
-0.62
-0.62
-0.59
-0.585
-0.58
-0.56
-0.545
-0.53
-0.51
-0.51
-0.49
-0.475
-0.475
-0.475
-0.455
-0.465
-0.475
-0.465
-0.455
-0.445
-0.435
-0.42
-0.415
-0.42
-0.43
-0.425
-0.435
-0.445
-0.445
-0.45
-0.445
-0.44
-0.425
-0.425
-0.43
-0.435
-0.44
-0.435
-0.445
-0.44
-0.425
-0.42
-0.42
-0.425
-0.42
-0.415
-0.43
-0.435
-0.44
-0.445
-0.455
-0.455
-0.47
-0.455
-0.47
-0.47
-0.465
-0.455
-0.46
-0.45
-0.46
-0.465
-0.47
-0.485
-0.495
-0.5
-0.505
-0.495
-0.495
-0.5
-0.495
-0.515
-0.52
-0.535
-0.54
-0.545
-0.55
-0.545
-0.535
-0.535
-0.515
-0.505
-0.515
-0.51
-0.505
-0.49
-0.515
-0.525
-0.525
-0.535
-0.515
-0.51
-0.505
-0.5
-0.515
-0.515
-0.53
-0.54
-0.53
-0.545
-0.54
-0.54
-0.545
-0.54
-0.53
-0.525
-0.525
-0.515
-0.525
-0.535
-0.555
-0.56
-0.55
-0.545
-0.54
-0.535
-0.53
-0.535
-0.555
-0.59
-0.61
-0.615
-0.575
-0.475
-0.34
-0.14
0.09
0.345
0.635
0.925
1.165
1.33
1.45
1.47
1.44
1.375
1.25
1.055
0.715
0.27
-0.17
-0.49
-0.67
-0.74
-0.75
-0.73
-0.7
-0.655
-0.635
-0.655
-0.665
-0.685
-0.685
-0.69
-0.695
-0.705
-0.7
-0.715
-0.72
-0.735
-0.75
-0.76
-0.765
-0.765
-0.765
-0.765
-0.755
-0.775
-0.775
-0.79
-0.8
-0.805
-0.82
-0.825
-0.825
-0.83
-0.815
-0.82
-0.825
-0.825
-0.835
-0.845
-0.865
-0.87
-0.885
-0.895
-0.89
-0.905
-0.905
-0.91
-0.91
-0.93
-0.945
-0.955
-0.97
-0.985
-0.99
-0.995
-1.005
-1.01
-1.01
-1.0
-1.0
-1.01
-1.035
-1.035
-1.06
-1.08
-1.09
-1.095
-1.1
-1.09
-1.08
-1.085
-1.08
-1.085
-1.095
-1.105
-1.13
-1.155
-1.175
-1.195
-1.205
-1.215
-1.24
-1.24
-1.255
-1.275
-1.285
-1.325
-1.335
-1.38
-1.385
-1.39
-1.395
-1.39
-1.37
-1.365
-1.365
-1.36
-1.33
-1.305
-1.28
-1.245
-1.215
-1.18
-1.15
-1.1
-1.045
-1.01
-0.975
-0.95
-0.93
-0.93
-0.92
-0.93
-0.915
-0.915
-0.91
-0.895
-0.87
-0.865
-0.855
-0.85
-0.85
-0.855
-0.86
-0.85
-0.85
-0.855
-0.85
-0.86
-0.845
-0.845
-0.84
-0.85
-0.845
-0.845
-0.83
-0.835
-0.825
-0.815
-0.805
-0.79
-0.775
-0.765
-0.75
-0.74
-0.74
-0.755
-0.77
-0.78
-0.8
-0.795
-0.78
-0.775
-0.76
-0.765
-0.76
-0.765
-0.775
-0.785
-0.79
-0.79
-0.79
-0.79
-0.79
-0.785
-0.77
-0.78
-0.775
-0.78
-0.785
-0.8
-0.81
-0.815
-0.825
-0.825
-0.83
-0.835
-0.845
-0.85
-0.845
-0.845
-0.855
-0.855
-0.855
-0.87
-0.885
-0.885
-0.88
-0.88
-0.875
-0.86
-0.86
-0.87
-0.885
-0.9
-0.92
-0.925
-0.93
-0.925
-0.91
-0.895
-0.875
-0.865
-0.855
-0.855
-0.86
-0.86
-0.87
-0.875
-0.885
-0.885
-0.865
-0.855
-0.865
-0.86
-0.86
-0.865
-0.865
-0.89
-0.895
-0.9
-0.895
-0.885
-0.87
-0.87
-0.87
-0.87
-0.86
-0.86
-0.875
-0.875
-0.895
-0.91
-0.92
-0.91
-0.91
-0.91
-0.895
-0.895
-0.89
-0.905
-0.895
-0.905
-0.915
-0.92
-0.92
-0.92
-0.91
-0.91
-0.905
-0.905
-0.9
-0.94
-0.955
-0.975
-0.95
-0.865
-0.71
-0.505
-0.24
0.06
0.4
0.725
0.995
1.19
1.29
1.3
1.21
1.025
0.685
0.225
-0.29
-0.735
-1.02
-1.13
-1.12
-1.06
-0.99
-0.945
-0.93
-0.945
-0.97
-1.005
-1.02
-1.04
-1.035
-1.02
-1.015
-1.04
-1.045
-1.06
-1.08
-1.085
-1.095
-1.1
-1.105
-1.115
-1.115
-1.12
-1.125
-1.14
-1.14
-1.155
-1.17
-1.185
-1.195
-1.2
-1.21
-1.2
-1.2
-1.2
-1.195
-1.205
-1.2
-1.225
-1.23
-1.245
-1.255
-1.245
-1.255
-1.255
-1.245
-1.24
-1.235
-1.245
-1.255
-1.285
-1.285
-1.29
-1.305
-1.325
-1.34
-1.355
-1.365
-1.375
-1.375
-1.385
-1.395
-1.405
-1.405
-1.405
-1.415
-1.41
-1.425
-1.425
-1.435
-1.45
-1.46
-1.48
-1.495
-1.53
-1.555
-1.575
-1.6
-1.6
-1.615
-1.635
-1.645
-1.645
-1.665
-1.675
-1.68
-1.705
-1.72
-1.735
-1.75
-1.735
-1.73
-1.715
-1.695
-1.675
-1.645
-1.625
-1.585
-1.545
-1.515
-1.49
-1.465
-1.445
-1.39
-1.36
-1.325
-1.29
-1.26
-1.245
-1.225
-1.2
-1.19
-1.18
-1.165
-1.145
-1.135
-1.11
-1.095
-1.09
-1.07
-1.075
-1.08
-1.09
-1.11
-1.125
-1.115
-1.12
-1.115
-1.09
-1.085
-1.075
-1.05
-1.055
-1.04
-1.04
-1.035
-1.02
-1.03
-1.02
-1.03
-1.03
-1.0
-0.985
-0.985
-0.975
-0.985
-0.99
-1.0
-1.02
-1.02
-1.03
-1.025
-1.035
-1.04
-1.02
-1.02
-1.015
-1.03
-1.035
-1.045
-1.05
-1.055
-1.05
-1.04
-1.035
-1.04
-1.025
-1.015
-1.02
-1.025
-1.04
-1.04
-1.05
-1.045
-1.045
-1.04
-1.045
-1.03
-1.03
-1.02
-1.025
-1.05
-1.04
-1.05
-1.055
-1.07
-1.07
-1.075
-1.065
-1.055
-1.065
-1.04
-1.04
-1.045
-1.05
-1.055
-1.06
-1.065
-1.06
-1.045
-1.04
-1.03
-1.03
-1.025
-1.025
-1.04
-1.06
-1.065
-1.085
-1.095
-1.09
-1.09
-1.085
-1.08
-1.075
-1.07
-1.095
-1.075
-1.085
-1.08
-1.09
-1.085
-1.09
-1.095
-1.095
-1.085
-1.075
-1.07
-1.08
-1.08
-1.07
-1.09
-1.085
-1.1
-1.09
-1.09
-1.085
-1.085
-1.085
-1.08
-1.08
-1.085
-1.075
-1.09
-1.095
-1.105
-1.09
-1.09
-1.095
-1.09
-1.075
-1.075
-1.07
-1.05
-1.04
-1.05
-1.045
-1.05
-1.035
-1.025
-1.01
-0.985
-0.965
-0.975
-0.98
-0.98
-0.99
-1.005
-1.045
-1.055
-1.03
-0.955
-0.82
-0.62
-0.39
-0.11
0.19
0.5
0.79
1.035
1.19
1.27
1.26
1.2
1.07
0.84
0.46
-0.01
-0.52
-0.93
-1.175
-1.255
-1.25
-1.19
-1.11
-1.08
-1.065
-1.065
-1.09
-1.105
-1.14
-1.15
-1.17
-1.175
-1.19
-1.195
-1.2
-1.195
-1.195
-1.21
-1.21
-1.21
-1.225
-1.24
-1.24
-1.235
-1.235
-1.245
-1.245
-1.245
-1.24
-1.245
-1.23
-1.23
-1.225
-1.215
-1.22
-1.21
-1.22
-1.24
-1.24
-1.255
-1.26
-1.28
-1.27
-1.275
-1.295
-1.275
-1.26
-1.27
-1.285
-1.295
-1.315
-1.325
-1.33
-1.335
-1.34
-1.335
-1.355
-1.36
-1.365
-1.375
-1.38
-1.395
-1.405
-1.405
-1.405
-1.41
-1.41
-1.42
-1.435
-1.45
-1.455
-1.475
-1.495
-1.525
-1.53
-1.53
-1.54
-1.56
-1.56
-1.57
-1.595
-1.61
-1.635
-1.66
-1.68
-1.7
-1.695
-1.71
-1.715
-1.715
-1.705
-1.705
-1.71
-1.69
-1.695
-1.675
-1.655
-1.645
-1.61
-1.565
-1.535
-1.505
-1.47
-1.425
-1.395
-1.355
-1.33
-1.3
-1.29
-1.275
-1.245
-1.24
-1.21
-1.19
-1.165
-1.16
-1.155
-1.15
-1.155
-1.14
-1.155
-1.16
-1.15
-1.155
-1.15
-1.145
-1.13
-1.12
-1.115
-1.125
-1.115
-1.105
-1.115
-1.125
-1.12
-1.12
-1.12
-1.105
-1.09
-1.085
-1.1
-1.095
-1.085
-1.09
-1.095
-1.09
-1.105
-1.1
-1.07
-1.07
-1.045
-1.06
-1.04
-1.035
-1.04
-1.04
-1.035
-1.04
-1.03
-1.025
-1.005
-0.995
-0.985
-0.97
-0.955
-0.945
-0.945
-0.95
-0.94
-0.94
-0.935
-0.935
-0.93
-0.94
-0.93
-0.92
-0.925
-0.93
-0.95
-0.96
-0.97
-0.985
-0.98
-0.98
-0.995
-0.985
-0.985
-0.985
-0.99
-1.0
-0.995
-1.0
-1.0
-1.0
-1.01
-1.005
-0.995
-0.995
-0.985
-0.98
-0.985
-0.99
-0.995
-1.015
-1.025
-1.025
-1.025
-1.02
-1.01
-1.005
-1.0
-0.995
-1.0
-0.995
-0.995
-1.0
-1.015
-1.01
-1.015
-1.015
-1.01
-1.035
-1.03
-1.02
-1.02
-1.03
-1.03
-1.03
-1.05
-1.03
-1.015
-1.01
-0.985
-0.97
-0.95
-0.955
-0.955
-0.94
-0.96
-0.965
-0.985
-0.99
-1.0
-1.005
-1.0
-1.005
-0.995
-0.99
-0.995
-0.99
-1.0
-1.0
-1.005
-1.005
-1.015
-1.01
-0.99
-0.985
-0.97
-0.975
-0.98
-0.975
-0.98
-0.99
-1.0
-1.01
-1.01
-1.005
-1.015
-1.01
-1.0
-0.98
-0.98
-0.975
-0.97
-0.98
-0.985
-0.99
-0.98
-0.985
-0.98
-0.965
-0.97
-0.955
-0.955
-0.945
-0.945
-0.96
-0.96
-0.98
-0.985
-1.0
-0.99
-0.98
-0.97
-0.95
-0.935
-0.925
-0.91
-0.9
-0.9
-0.89
-0.88
-0.88
-0.885
-0.9
-0.915
-0.925
-0.905
-0.83
-0.71
-0.525
-0.3
-0.035
0.28
0.605
0.915
1.18
1.36
1.435
1.445
1.365
1.22
0.945
0.56
0.06
-0.42
-0.79
-1.005
-1.075
-1.05
-1.0
-0.95
-0.91
-0.925
-0.95
-0.985
-1.005
-1.035
-1.03
-1.03
-1.02
-1.015
-1.02
-1.025
-1.04
-1.04
-1.06
-1.07
-1.07
-1.065
-1.08
-1.065
-1.065
-1.07
-1.06
-1.07
-1.075
-1.085
-1.085
-1.09
-1.1
-1.105
-1.105
-1.095
-1.07
-1.08
-1.065
-1.055
-1.055
-1.055
-1.075
-1.065
-1.06
-1.07
-1.065
-1.085
-1.095
-1.1
-1.115
-1.13
-1.135
-1.14
-1.145
-1.15
-1.145
-1.17
-1.17
-1.16
-1.15
-1.135
-1.14
-1.13
-1.135
-1.15
-1.16
-1.165
-1.175
-1.185
-1.185
-1.195
-1.205
-1.21
-1.215
-1.225
-1.235
-1.245
-1.27
-1.285
-1.305
-1.325
-1.33
-1.34
-1.355
-1.355
-1.365
-1.375
-1.385
-1.405
-1.435
-1.44
-1.465
-1.475
-1.48
-1.465
-1.465
-1.455
-1.45
-1.44
-1.42
-1.405
-1.385
-1.365
-1.335
-1.315
-1.265
-1.225
-1.175
-1.135
-1.095
-1.06
-1.04
-1.02
-1.0
-0.985
-0.975
-0.94
-0.92
-0.895
-0.87
-0.845
-0.825
-0.82
-0.81
-0.795
-0.795
-0.785
-0.78
-0.77
-0.765
-0.755
-0.735
-0.725
-0.71
-0.71
-0.7
-0.705
-0.695
-0.69
-0.7
-0.705
-0.705
-0.68
-0.685
-0.665
-0.655
-0.66
-0.655
-0.665
-0.655
-0.655
-0.675
-0.67
-0.665
-0.655
-0.65
-0.62
-0.61
-0.6
-0.58
-0.58
-0.575
-0.58
-0.59
-0.57
-0.575
-0.57
-0.565
-0.565
-0.55
-0.57
-0.555
-0.56
-0.57
-0.58
-0.59
-0.585
-0.585
-0.565
-0.55
-0.54
-0.53
-0.52
-0.52
-0.52
-0.53
-0.525
-0.535
-0.53
-0.51
-0.515
-0.505
-0.5
-0.485
-0.47
-0.47
-0.49
-0.49
-0.485
-0.49
-0.485
-0.485
-0.49
-0.485
-0.47
-0.47
-0.465
-0.49
-0.495
-0.505
-0.52
-0.53
-0.525
-0.53
-0.515
-0.525
-0.5
-0.485
-0.48
-0.475
-0.46
-0.455
-0.465
-0.465
-0.465
-0.455
-0.44
-0.425
-0.425
-0.425
-0.425
-0.44
-0.435
-0.44
-0.445
-0.465
-0.47
-0.455
-0.455
-0.45
-0.445
-0.45
-0.445
-0.445
-0.43
-0.435
-0.45
-0.45
-0.445
-0.44
-0.425
-0.405
-0.405
-0.385
-0.395
-0.37
-0.375
-0.38
-0.385
-0.38
-0.375
-0.365
-0.365
-0.355
-0.345
-0.34
-0.335
-0.335
-0.345
-0.335
-0.345
-0.34
-0.345
-0.34
-0.34
-0.335
-0.33
-0.32
-0.32
-0.33
-0.34
-0.35
-0.365
-0.37
-0.365
-0.355
-0.35
-0.33
-0.31
-0.295
-0.295
-0.28
-0.285
-0.285
-0.28
-0.285
-0.28
-0.28
-0.275
-0.27
-0.27
-0.28
-0.28
-0.295
-0.32
-0.32
-0.34
-0.35
-0.35
-0.31
-0.21
-0.075
0.105
0.32
0.56
0.81
1.075
1.325
1.51
1.64
1.7
1.71
1.675
1.605
1.47
1.225
0.865
0.435
0.045
-0.23
-0.365
-0.385
-0.355
-0.31
-0.265
-0.235
-0.235
-0.265
-0.28
-0.3
-0.32
-0.335
-0.35
-0.35
-0.35
-0.345
-0.35
-0.345
-0.34
-0.345
-0.34
-0.34
-0.34
-0.34
-0.345
-0.35
-0.355
-0.35
-0.35
-0.35
-0.345
-0.345
-0.335
-0.35
-0.37
-0.38
-0.39
-0.4
-0.415
-0.42
-0.425
-0.42
-0.415
-0.41
-0.41
-0.43
-0.43
-0.435
-0.46
-0.475
-0.485
-0.485
-0.49
-0.49
-0.49
-0.485
-0.495
-0.495
-0.51
-0.51
-0.52
-0.51
-0.52
-0.525
-0.54
-0.525
-0.515
-0.525
-0.53
-0.54
-0.57
-0.575
-0.575
-0.59
-0.585
-0.61
-0.6
-0.615
-0.62
-0.625
-0.655
-0.66
-0.69
-0.71
-0.725
-0.745
-0.74
-0.755
-0.755
-0.765
-0.765
-0.77
-0.78
-0.8
-0.815
-0.83
-0.825
-0.845
-0.84
-0.84
-0.835
-0.815
-0.79
-0.77
-0.74
-0.73
-0.705
-0.68
-0.655
-0.625
-0.59
-0.55
-0.52
-0.485
-0.46
-0.43
-0.405
-0.39
-0.38
-0.365
-0.355
-0.345
-0.34
-0.325
-0.32
-0.305
-0.295
-0.275
-0.27
-0.265
-0.275
-0.265
-0.265
-0.27
-0.27
-0.275
-0.275
-0.265
-0.265
-0.25
-0.26
-0.255
-0.26
-0.26
-0.27
-0.27
-0.275
-0.265
-0.26
-0.245
-0.23
-0.195
-0.19
-0.175
-0.18
-0.185
-0.185
-0.19
-0.185
-0.18
-0.18
-0.185
-0.17
-0.165
-0.17
-0.18
-0.2
-0.195
-0.21
-0.21
-0.215
-0.215
-0.21
-0.2
-0.2
-0.195
-0.195
-0.2
-0.21
-0.21
-0.21
-0.205
-0.21
-0.215
-0.205
-0.19
-0.185
-0.18
-0.185
-0.19
-0.2
-0.195
-0.205
-0.225
-0.23
-0.225
-0.215
-0.225
-0.215
-0.205
-0.215
-0.22
-0.22
-0.23
-0.245
-0.27
-0.275
-0.285
-0.29
-0.28
-0.28
-0.265
-0.27
-0.275
-0.295
-0.3
-0.32
-0.325
-0.28
-0.18
-0.02
0.185
0.425
0.685
0.96
1.23
1.455
1.62
1.7
1.71
1.67
1.575
1.405
1.135
0.75
0.315
-0.07
-0.33
-0.435
-0.445
-0.39
-0.32
-0.275
-0.26
-0.26
-0.27
-0.3
-0.31
-0.33
-0.335
-0.355
-0.345
-0.345
-0.355
-0.375
-0.375
-0.38
-0.385
-0.37
-0.375
-0.37
-0.39
-0.39
-0.405
-0.435
-0.455
-0.47
-0.47
-0.455
-0.46
-0.46
-0.465
-0.465
-0.48
-0.47
-0.48
-0.495
-0.49
-0.505
-0.51
-0.51
-0.5
-0.5
-0.495
-0.515
-0.51
-0.515
-0.52
-0.515
-0.54
-0.545
-0.54
-0.54
-0.545
-0.555
-0.56
-0.565
-0.57
-0.58
-0.6
-0.62
-0.65
-0.67
-0.665
-0.68
-0.68
-0.69
-0.675
-0.68
-0.695
-0.71
-0.72
-0.74
-0.755
-0.77
-0.775
-0.79
-0.8
-0.81
-0.815
-0.82
