Lead II
-0.265
-0.26
-0.26
-0.24
-0.235
-0.245
-0.235
-0.205
-0.19
-0.18
-0.17
-0.155
-0.145
-0.14
-0.145
-0.15
-0.17
-0.17
-0.175
-0.2
-0.175
-0.175
-0.17
-0.165
-0.19
-0.205
-0.235
-0.255
-0.27
-0.285
-0.31
-0.315
-0.33
-0.35
-0.365
-0.36
-0.385
-0.395
-0.41
-0.435
-0.455
-0.47
-0.48
-0.485
-0.485
-0.49
-0.495
-0.495
-0.495
-0.5
-0.5
-0.52
-0.525
-0.53
-0.54
-0.515
-0.52
-0.505
-0.5
-0.48
-0.47
-0.47
-0.485
-0.485
-0.505
-0.52
-0.505
-0.5
-0.49
-0.485
-0.48
-0.48
-0.48
-0.48
-0.48
-0.49
-0.47
-0.455
-0.465
-0.475
-0.475
-0.465
-0.46
-0.45
-0.445
-0.435
-0.45
-0.47
-0.49
-0.495
-0.5
-0.495
-0.49
-0.47
-0.47
-0.465
-0.44
-0.455
-0.475
-0.485
-0.49
-0.5
-0.525
-0.51
-0.51
-0.485
-0.47
-0.455
-0.45
-0.465
-0.48
-0.485
-0.51
-0.5
-0.5
-0.505
-0.505
-0.475
-0.455
-0.45
-0.45
-0.46
-0.46
-0.46
-0.5
-0.505
-0.51
-0.505
-0.49
-0.495
-0.47
-0.45
-0.46
-0.465
-0.465
-0.47
-0.47
-0.48
-0.475
-0.46
-0.44
-0.395
-0.38
-0.37
-0.355
-0.355
-0.36
-0.355
-0.37
-0.37
-0.365
-0.35
-0.335
-0.315
-0.29
-0.28
-0.275
-0.265
-0.285
-0.305
-0.325
-0.335
-0.335
-0.36
-0.365
-0.38
-0.375
-0.385
-0.39
-0.41
-0.43
-0.475
-0.495
-0.515
-0.54
-0.545
-0.535
-0.525
-0.515
-0.505
-0.5
-0.495
-0.52
-0.525
-0.54
-0.545
-0.54
-0.52
-0.495
-0.485
-0.48
-0.455
-0.435
-0.4
-0.325
-0.22
-0.055
0.19
0.45
0.74
1.08
1.42
1.735
2.005
2.17
2.195
2.01
1.625
1.045
0.405
-0.235
-0.855
-1.13
-1.155
-0.965
-0.72
-0.5
-0.365
-0.335
-0.36
-0.43
-0.49
-0.53
-0.54
-0.54
-0.52
-0.505
-0.5
-0.505
-0.51
-0.52
-0.535
-0.545
-0.555
-0.555
-0.545
-0.525
-0.515
-0.49
-0.475
-0.47
-0.475
-0.475
-0.475
-0.475
-0.47
-0.47
-0.46
-0.445
-0.435
-0.42
-0.405
-0.4
-0.385
-0.39
-0.385
-0.39
-0.385
-0.38
-0.37
-0.365
-0.33
-0.3
-0.27
-0.265
-0.27
-0.27
-0.265
-0.25
-0.25
-0.23
-0.235
-0.2
-0.175
-0.16
-0.14
-0.135
-0.13
-0.115
-0.105
-0.11
-0.115
-0.105
-0.095
-0.075
-0.06
-0.065
-0.045
-0.07
-0.075
-0.08
-0.1
-0.12
-0.12
-0.14
-0.165
-0.175
-0.19
-0.2
-0.2
-0.23
-0.245
-0.265
-0.29
-0.32
-0.33
-0.365
-0.39
-0.41
-0.415
-0.425
-0.42
-0.42
-0.43
-0.44
-0.46
-0.46
-0.475
-0.475
-0.475
-0.48
-0.47
-0.46
-0.455
-0.445
-0.445
-0.455
-0.47
-0.475
-0.49
-0.475
-0.475
-0.47
-0.445
-0.45
-0.435
-0.43
-0.43
-0.46
-0.46
-0.455
-0.46
-0.45
-0.46
-0.45
-0.45
-0.445
-0.445
-0.44
-0.44
-0.455
-0.48
-0.475
-0.49
-0.5
-0.505
-0.51
-0.5
-0.5
-0.49
-0.5
-0.505
-0.515
-0.53
-0.525
-0.525
-0.525
-0.53
-0.53
-0.545
-0.57
-0.545
-0.55
-0.55
-0.55
-0.56
-0.585
-0.575
-0.57
-0.56
-0.555
-0.55
-0.535
-0.515
-0.52
-0.525
-0.545
-0.55
-0.565
-0.575
-0.585
-0.575
-0.57
-0.555
-0.55
-0.54
-0.53
-0.54
-0.535
-0.545
-0.555
-0.575
-0.575
-0.58
-0.57
-0.565
-0.54
-0.515
-0.515
-0.5
-0.495
-0.47
-0.45
-0.45
-0.45
-0.44
-0.435
-0.45
-0.44
-0.445
-0.44
-0.43
-0.425
-0.395
-0.375
-0.365
-0.355
-0.36
-0.355
-0.34
-0.37
-0.375
-0.38
-0.405
-0.41
-0.44
-0.45
-0.475
-0.48
-0.495
-0.52
-0.53
-0.55
-0.555
-0.575
-0.58
-0.605
-0.615
-0.635
-0.65
-0.655
-0.64
-0.625
-0.6
-0.575
-0.56
-0.575
-0.57
-0.575
-0.615
-0.62
-0.62
-0.595
-0.575
-0.52
-0.43
-0.31
-0.145
0.065
0.3
0.58
0.88
1.215
1.55
1.84
2.055
2.15
2.06
1.75
1.19
0.55
-0.09
-0.73
-1.18
-1.225
-1.08
-0.83
-0.585
-0.42
-0.365
-0.405
-0.445
-0.51
-0.56
-0.595
-0.6
-0.6
-0.585
-0.605
-0.6
-0.6
-0.585
-0.57
-0.545
-0.565
-0.56
-0.575
-0.58
-0.595
-0.57
-0.575
-0.55
-0.535
-0.51
-0.53
-0.515
-0.515
-0.51
-0.51
-0.515
-0.51
-0.505
-0.485
-0.475
-0.44
-0.45
-0.425
-0.42
-0.41
-0.41
-0.395
-0.4
-0.385
-0.395
-0.38
-0.355
-0.34
-0.325
-0.305
-0.28
-0.275
-0.265
-0.255
-0.255
-0.24
-0.235
-0.21
-0.195
-0.18
-0.165
-0.135
-0.11
-0.1
-0.1
-0.1
-0.115
-0.115
-0.1
-0.115
-0.11
-0.095
-0.09
-0.095
-0.075
-0.08
-0.105
-0.11
-0.145
-0.175
-0.17
-0.205
-0.22
-0.225
-0.245
-0.25
-0.245
-0.26
-0.275
-0.31
-0.325
-0.37
-0.39
-0.41
-0.425
-0.425
-0.43
-0.43
-0.43
-0.425
-0.445
-0.43
-0.44
-0.455
-0.45
-0.44
-0.445
-0.44
-0.425
-0.425
-0.42
-0.44
-0.435
-0.45
-0.44
-0.46
-0.465
-0.455
-0.45
-0.445
-0.425
-0.41
-0.4
-0.42
-0.43
-0.45
-0.445
-0.465
-0.465
-0.46
-0.45
-0.47
-0.455
-0.44
-0.43
-0.425
-0.45
-0.45
-0.455
-0.455
-0.48
-0.5
-0.5
-0.495
-0.495
-0.495
-0.485
-0.485
-0.485
-0.5
-0.515
-0.515
-0.515
-0.515
-0.52
-0.51
-0.52
-0.495
-0.5
-0.51
-0.525
-0.52
-0.53
-0.555
-0.535
-0.54
-0.54
-0.535
-0.52
-0.505
-0.495
-0.505
-0.51
-0.525
-0.535
-0.555
-0.56
-0.54
-0.56
-0.54
-0.515
-0.51
-0.5
-0.51
-0.5
-0.515
-0.52
-0.52
-0.52
-0.525
-0.51
-0.51
-0.49
-0.465
-0.43
-0.42
-0.4
-0.395
-0.405
-0.405
-0.42
-0.415
-0.425
-0.41
-0.395
-0.38
-0.35
-0.335
-0.32
-0.31
-0.305
-0.315
-0.32
-0.35
-0.36
-0.365
-0.365
-0.365
-0.375
-0.39
-0.42
-0.45
-0.48
-0.505
-0.545
-0.565
-0.58
-0.595
-0.61
-0.625
-0.605
-0.59
-0.6
-0.6
-0.605
-0.62
-0.61
-0.635
-0.625
-0.61
-0.61
-0.6
-0.59
-0.59
-0.6
-0.595
-0.61
-0.615
-0.6
-0.57
-0.54
-0.43
-0.28
-0.095
0.135
0.395
0.695
1.03
1.375
1.71
2.02
2.245
2.34
2.26
1.935
1.4
0.76
0.12
-0.52
-1.155
-1.275
-1.13
-0.88
-0.635
-0.465
-0.385
-0.385
-0.43
-0.51
-0.56
-0.59
-0.585
-0.59
-0.6
-0.585
-0.585
-0.605
-0.585
-0.565
-0.565
-0.555
-0.555
-0.54
-0.57
-0.57
-0.575
-0.58
-0.575
-0.56
-0.55
-0.525
-0.515
-0.5
-0.515
-0.525
-0.54
-0.505
-0.49
-0.475
-0.48
-0.49
-0.485
-0.495
-0.485
-0.45
-0.45
-0.43
-0.415
-0.42
-0.425
-0.405
-0.4
-0.39
-0.37
-0.345
-0.335
-0.295
-0.28
-0.26
-0.25
-0.255
-0.25
-0.25
-0.235
-0.23
-0.205
-0.175
-0.155
-0.125
-0.12
-0.105
-0.11
-0.1
-0.105
-0.095
-0.095
-0.1
-0.08
-0.07
-0.065
-0.08
-0.075
-0.08
-0.085
-0.1
-0.12
-0.145
-0.17
-0.19
-0.2
-0.205
-0.22
-0.225
-0.255
-0.27
-0.3
-0.32
-0.35
-0.385
-0.405
-0.41
-0.425
-0.435
-0.445
-0.43
-0.435
-0.44
-0.445
-0.455
-0.475
-0.46
-0.475
-0.47
-0.465
-0.455
-0.455
-0.44
-0.44
-0.445
-0.445
-0.445
-0.455
-0.455
-0.46
-0.46
-0.47
-0.465
-0.445
-0.435
-0.435
-0.45
-0.45
-0.46
-0.465
-0.465
-0.475
-0.48
-0.465
-0.45
-0.47
-0.465
-0.455
-0.465
-0.46
-0.47
-0.485
-0.495
-0.5
-0.505
-0.51
-0.495
-0.495
-0.48
-0.49
-0.5
-0.525
-0.53
-0.535
-0.53
-0.53
-0.53
-0.535
-0.525
-0.545
-0.515
-0.53
-0.545
-0.545
-0.52
-0.53
-0.54
-0.545
-0.55
-0.545
-0.545
-0.52
-0.505
-0.515
-0.535
-0.54
-0.53
-0.545
-0.545
-0.555
-0.56
-0.55
-0.54
-0.54
-0.53
-0.53
-0.53
-0.54
-0.56
-0.54
-0.53
-0.525
-0.52
-0.49
-0.46
-0.43
-0.41
-0.4
-0.4
-0.395
-0.405
-0.425
-0.44
-0.44
-0.44
-0.415
-0.39
-0.36
-0.345
-0.335
-0.325
-0.34
-0.36
-0.36
-0.39
-0.42
-0.435
-0.455
-0.45
-0.46
-0.495
-0.495
-0.52
-0.545
-0.58
-0.615
-0.62
-0.655
-0.655
-0.645
-0.63
-0.635
-0.615
-0.61
-0.605
-0.61
-0.625
-0.625
-0.625
-0.63
-0.63
-0.63
-0.635
-0.62
-0.59
-0.57
-0.5
-0.385
-0.235
-0.01
0.275
0.59
0.95
1.33
1.715
2.05
2.29
2.385
2.28
1.89
1.25
0.61
-0.03
-0.67
-1.31
-1.33
-1.085
-0.77
-0.51
-0.385
-0.36
-0.455
-0.525
-0.61
-0.655
-0.68
-0.665
-0.655
-0.63
-0.625
-0.61
-0.605
-0.615
-0.625
-0.635
-0.635
-0.64
-0.63
-0.645
-0.625
-0.605
-0.6
-0.585
-0.58
-0.57
-0.575
-0.595
-0.565
-0.575
-0.57
-0.565
-0.545
-0.54
-0.525
-0.525
-0.515
-0.5
-0.49
-0.5
-0.495
-0.48
-0.475
-0.46
-0.45
-0.425
-0.405
-0.385
-0.365
-0.35
-0.35
-0.35
-0.335
-0.335
-0.33
-0.315
-0.315
-0.28
-0.24
-0.21
-0.19
-0.185
-0.17
-0.165
-0.16
-0.16
-0.155
-0.175
-0.15
-0.14
-0.135
-0.11
-0.12
-0.12
-0.14
-0.135
-0.15
-0.17
-0.215
-0.205
-0.22
-0.225
-0.255
-0.275
-0.31
-0.34
-0.365
-0.385
-0.41
-0.435
-0.45
-0.48
-0.51
-0.495
-0.52
-0.495
-0.525
-0.525
-0.54
-0.565
-0.565
-0.575
-0.58
-0.575
-0.575
-0.555
-0.54
-0.53
-0.54
-0.55
-0.56
-0.57
-0.585
-0.59
-0.585
-0.595
-0.59
-0.59
-0.56
-0.55
-0.56
-0.57
-0.56
-0.57
-0.58
-0.6
-0.59
-0.61
-0.61
-0.605
-0.595
-0.59
-0.585
-0.59
-0.605
-0.615
-0.62
-0.655
-0.66
-0.665
-0.67
-0.655
-0.64
-0.635
-0.64
-0.65
-0.665
-0.69
-0.7
-0.715
-0.725
-0.705
-0.715
-0.705
-0.705
-0.69
-0.675
-0.68
-0.675
-0.69
-0.695
-0.71
-0.71
-0.725
-0.71
-0.705
-0.695
-0.69
-0.68
-0.685
-0.69
-0.715
-0.72
-0.725
-0.74
-0.745
-0.735
-0.72
-0.72
-0.72
-0.715
-0.7
-0.69
-0.71
-0.705
-0.71
-0.725
-0.735
-0.725
-0.7
-0.67
-0.63
-0.61
-0.595
-0.595
-0.6
-0.595
-0.59
-0.59
-0.605
-0.605
-0.62
-0.62
-0.6
-0.56
-0.545
-0.51
-0.51
-0.5
-0.51
-0.525
-0.54
-0.55
-0.57
-0.575
-0.59
-0.6
-0.62
-0.625
-0.67
-0.69
-0.725
-0.75
-0.765
-0.795
-0.805
-0.815
-0.81
-0.79
-0.8
-0.8
-0.805
-0.815
-0.805
-0.83
-0.83
-0.825
-0.82
-0.8
-0.78
-0.78
-0.805
-0.78
-0.77
-0.74
-0.67
-0.525
-0.335
-0.055
0.285
0.64
1.045
1.49
1.895
2.22
2.405
2.37
2.065
1.46
0.82
0.18
-0.46
-1.1
-1.57
-1.47
-1.195
-0.905
-0.695
-0.58
-0.585
-0.655
-0.74
-0.81
-0.83
-0.835
-0.815
-0.81
-0.8
-0.8
-0.795
-0.8
-0.815
-0.825
-0.845
-0.85
-0.815
-0.81
-0.78
-0.775
-0.78
-0.78
-0.79
-0.785
-0.79
-0.78
-0.785
-0.76
-0.75
-0.75
-0.745
-0.73
-0.73
-0.735
-0.71
-0.725
-0.72
-0.71
-0.715
-0.705
-0.69
-0.65
-0.65
-0.63
-0.62
-0.595
-0.59
-0.585
-0.595
-0.58
-0.57
-0.565
-0.525
-0.51
-0.505
-0.47
-0.44
-0.425
-0.43
-0.415
-0.405
-0.42
-0.415
-0.41
-0.37
-0.365
-0.34
-0.31
-0.295
-0.305
-0.325
-0.325
-0.34
-0.345
-0.355
-0.36
-0.335
-0.34
-0.345
-0.37
-0.375
-0.405
-0.425
-0.455
-0.48
-0.515
-0.54
-0.56
-0.585
-0.595
-0.615
-0.635
-0.675
-0.7
-0.72
-0.765
-0.785
-0.815
-0.825
-0.83
-0.81
-0.81
-0.8
-0.78
-0.795
-0.805
-0.8
-0.81
-0.815
-0.825
-0.84
-0.83
-0.815
-0.815
-0.79
-0.795
-0.785
-0.795
-0.8
-0.805
-0.825
-0.82
-0.83
-0.83
-0.81
-0.82
-0.8
-0.79
-0.795
-0.795
-0.815
-0.825
-0.845
-0.845
-0.845
-0.84
-0.85
-0.845
-0.855
-0.84
-0.85
-0.85
-0.845
-0.855
-0.875
-0.875
-0.9
-0.88
-0.875
-0.885
-0.875
-0.89
-0.895
-0.91
-0.9
-0.91
-0.925
-0.93
-0.935
-0.93
-0.915
-0.915
-0.895
-0.905
-0.89
-0.905
-0.915
-0.935
-0.94
-0.945
-0.96
-0.985
-0.965
-0.955
-0.93
-0.92
-0.925
-0.925
-0.935
-0.945
-0.96
-0.965
-0.975
-0.965
-0.945
-0.93
-0.925
-0.93
-0.94
-0.955
-0.95
-0.95
-0.955
-0.94
-0.94
-0.92
-0.89
-0.88
-0.87
-0.865
-0.835
-0.845
-0.855
-0.84
-0.85
-0.845
-0.84
-0.815
-0.805
-0.78
-0.75
-0.745
-0.74
-0.755
-0.76
-0.78
-0.785
-0.79
-0.8
-0.805
-0.815
-0.815
-0.825
-0.835
-0.855
-0.88
-0.9
-0.92
-0.94
-0.95
-0.995
-1.01
-1.015
-1.02
-1.005
-0.995
-1.005
-1.005
-1.015
-1.005
-1.01
-1.005
-0.995
-1.005
-0.975
-0.975
-0.965
-0.96
-0.97
-0.965
-0.945
-0.9
-0.82
-0.685
-0.485
-0.23
0.085
0.44
0.835
1.24
1.615
1.925
2.105
2.15
1.98
1.56
0.92
0.28
-0.36
-1.0
-1.64
-1.655
-1.46
-1.2
-0.97
-0.84
-0.79
-0.805
-0.865
-0.93
-0.95
-0.965
-0.96
-0.96
-0.93
-0.93
-0.94
-0.95
-0.955
-0.955
-0.97
-0.955
-0.96
-0.94
-0.91
-0.89
-0.87
-0.88
-0.87
-0.875
-0.885
-0.87
-0.85
-0.86
-0.85
-0.825
-0.815
-0.805
-0.795
-0.8
-0.8
-0.805
-0.805
-0.78
-0.765
-0.755
-0.725
-0.725
-0.715
-0.69
-0.68
-0.655
-0.66
-0.645
-0.65
-0.65
-0.625
-0.6
-0.57
-0.555
-0.52
-0.495
-0.475
-0.46
-0.46
-0.47
-0.47
-0.47
-0.48
-0.455
-0.45
-0.435
-0.43
-0.41
-0.405
-0.4
-0.425
-0.455
-0.48
-0.5
-0.51
-0.51
-0.51
-0.515
-0.53
-0.53
-0.55
-0.575
-0.61
-0.635
-0.645
-0.69
-0.685
-0.7
-0.71
-0.715
-0.715
-0.725
-0.745
-0.75
-0.76
-0.79
-0.8
-0.82
-0.825
-0.83
-0.835
-0.82
-0.805
-0.79
-0.795
-0.785
-0.8
-0.8
-0.8
-0.81
-0.8
-0.805
-0.795
-0.78
-0.765
-0.765
-0.755
-0.765
-0.77
-0.78
-0.78
-0.79
-0.785
-0.78
-0.785
-0.775
-0.785
-0.775
-0.785
-0.81
-0.82
-0.83
-0.84
-0.84
-0.855
-0.84
-0.83
-0.825
-0.825
-0.81
-0.815
-0.83
-0.84
-0.855
-0.87
-0.865
-0.885
-0.88
-0.885
-0.875
-0.875
-0.87
-0.85
-0.88
-0.89
-0.905
-0.915
-0.895
-0.905
-0.9
-0.895
-0.89
-0.9
-0.875
-0.87
-0.865
-0.885
-0.885
-0.885
-0.895
-0.89
-0.895
-0.885
-0.89
-0.885
-0.87
-0.87
-0.88
-0.89
-0.88
-0.88
-0.885
-0.87
-0.87
-0.865
-0.845
-0.825
-0.795
-0.785
-0.76
-0.77
-0.75
-0.775
-0.775
-0.765
-0.755
-0.76
-0.75
-0.725
-0.7
-0.67
-0.675
-0.675
-0.675
-0.665
-0.685
-0.7
-0.705
-0.72
-0.725
-0.725
-0.71
-0.745
-0.775
-0.78
-0.81
-0.84
-0.87
-0.895
-0.91
-0.925
-0.93
-0.94
-0.925
-0.94
-0.935
-0.945
-0.945
-0.945
-0.95
-0.955
-0.945
-0.95
-0.93
-0.925
-0.92
-0.915
-0.92
-0.935
-0.925
-0.895
-0.85
-0.725
-0.58
-0.35
-0.11
0.155
0.44
0.73
1.035
1.39
1.695
1.945
2.07
1.985
1.595
0.955
0.315
-0.325
-0.965
-1.605
-1.58
-1.34
-1.05
-0.84
-0.71
-0.705
-0.755
-0.835
-0.915
-0.94
-0.945
-0.94
-0.935
-0.915
-0.92
-0.94
-0.935
-0.95
-0.945
-0.92
-0.92
-0.9
-0.895
-0.9
-0.91
-0.905
-0.905
-0.92
-0.92
-0.915
-0.91
-0.875
-0.85
-0.845
-0.825
-0.815
-0.81
-0.815
-0.825
-0.83
-0.82
-0.82
-0.805
-0.785
-0.78
-0.76
-0.74
-0.73
-0.71
-0.72
-0.71
-0.7
-0.695
-0.69
-0.675
-0.66
-0.625
-0.6
-0.585
-0.565
-0.54
-0.535
-0.525
-0.52
-0.525
-0.505
-0.495
-0.465
-0.45
-0.445
-0.425
-0.415
-0.42
-0.425
-0.435
-0.455
-0.46
-0.46
-0.455
-0.455
-0.455
-0.46
-0.475
-0.475
-0.495
-0.525
-0.555
-0.575
-0.595
-0.605
-0.645
-0.66
-0.675
-0.675
-0.685
-0.715
-0.72
-0.75
-0.765
-0.795
-0.82
-0.81
-0.83
-0.835
-0.83
-0.82
-0.815
-0.825
-0.84
-0.83
-0.845
-0.865
-0.85
-0.85
-0.84
-0.84
-0.82
-0.815
-0.82
-0.805
-0.82
-0.825
-0.83
-0.845
-0.85
-0.84
-0.845
-0.83
-0.83
-0.815
-0.795
-0.795
-0.815
-0.825
-0.835
-0.845
-0.855
-0.85
-0.86
-0.86
-0.855
-0.86
-0.84
-0.845
-0.85
-0.87
-0.89
-0.88
-0.885
-0.905
-0.895
-0.89
-0.9
-0.89
-0.89
-0.9
-0.885
-0.91
-0.905
-0.91
-0.92
-0.935
-0.91
-0.92
-0.9
-0.905
-0.9
-0.885
-0.89
-0.905
-0.92
-0.935
-0.935
-0.93
-0.925
-0.925
-0.915
-0.92
-0.895
-0.895
-0.895
-0.91
-0.925
-0.925
-0.93
-0.94
-0.93
-0.92
-0.895
-0.875
-0.835
-0.8
-0.785
-0.785
-0.79
-0.8
-0.805
-0.82
-0.835
-0.82
-0.795
-0.76
-0.73
-0.7
-0.69
-0.675
-0.68
-0.695
-0.72
-0.72
-0.755
-0.74
-0.745
-0.76
-0.765
-0.795
-0.825
-0.855
-0.885
-0.905
-0.945
-0.96
-0.98
-0.985
-0.975
-0.96
-0.935
-0.93
-0.935
-0.95
-0.985
-0.985
-1.0
-1.005
-0.97
-0.96
-0.965
-0.95
-0.94
-0.935
-0.905
-0.885
-0.825
-0.71
-0.545
-0.355
-0.11
0.17
0.48
0.87
1.29
1.685
2.01
2.18
2.08
1.665
1.025
0.385
-0.255
-0.895
-1.535
-1.575
-1.27
-0.95
-0.725
-0.635
-0.66
-0.74
-0.84
-0.91
-0.955
-0.955
-0.94
-0.925
-0.905
-0.92
-0.92
-0.935
-0.94
-0.945
-0.945
-0.95
-0.945
-0.92
-0.9
-0.905
-0.885
-0.88
-0.88
-0.875
-0.88
-0.9
-0.895
-0.89
-0.88
-0.86
-0.86
-0.85
-0.82
-0.805
-0.825
-0.815
-0.815
-0.81
-0.805
-0.805
-0.79
-0.77
-0.76
-0.755
-0.73
-0.715
-0.7
-0.705
-0.69
-0.675
-0.67
-0.655
-0.625
-0.61
-0.605
-0.57
-0.55
-0.535
-0.525
-0.515
-0.525
-0.535
-0.51
-0.5
-0.485
-0.46
-0.43
-0.41
-0.395
-0.4
-0.39
-0.405
-0.42
-0.42
-0.435
-0.445
-0.445
-0.455
-0.445
-0.45
-0.44
-0.47
-0.49
-0.505
-0.545
-0.56
-0.59
-0.61
-0.64
-0.65
-0.675
-0.69
-0.7
-0.725
-0.75
-0.765
-0.78
-0.79
-0.81
-0.815
-0.825
-0.815
-0.81
-0.8
-0.795
-0.81
-0.81
-0.84
-0.83
-0.845
-0.86
-0.855
-0.865
-0.855
-0.85
-0.84
-0.815
-0.82
-0.815
-0.815
-0.83
-0.835
-0.835
-0.85
-0.87
-0.865
-0.88
-0.855
-0.845
-0.845
-0.855
-0.855
-0.88
-0.875
-0.88
-0.89
-0.89
-0.885
-0.88
-0.87
-0.875
-0.87
-0.885
-0.895
-0.895
-0.92
-0.935
-0.95
-0.965
-0.94
-0.95
-0.935
-0.915
-0.93
-0.915
-0.935
-0.93
-0.945
-0.965
-0.965
-0.98
-0.97
-0.975
-0.975
-0.96
-0.96
-0.975
-0.975
-0.985
-0.995
-0.995
-1.01
-1.005
-1.0
-1.0
-0.985
-0.955
-0.965
-0.965
-0.975
-0.99
-1.005
-1.01
-1.025
-1.03
-1.015
-1.015
-1.005
-0.99
-0.97
-0.975
-0.98
-0.985
-0.99
-0.98
-0.98
-0.975
-0.955
-0.93
-0.905
-0.89
-0.89
-0.905
-0.93
-0.94
-0.935
-0.91
-0.89
-0.875
-0.85
-0.825
-0.81
-0.81
-0.825
-0.825
-0.845
-0.875
-0.885
-0.9
-0.92
-0.93
-0.915
-0.915
-0.925
-0.935
-0.96
-0.99
-1.025
-1.065
-1.075
-1.085
-1.095
-1.1
-1.1
-1.09
-1.075
-1.065
-1.06
-1.065
-1.075
-1.075
-1.075
-1.09
-1.08
-1.085
-1.095
-1.085
-1.08
-1.05
-1.0
-0.92
-0.815
-0.665
-0.465
-0.215
0.075
0.43
0.8
1.21
1.605
1.91
2.065
1.955
1.53
0.89
0.25
-0.39
-1.03
-1.67
-1.72
-1.465
-1.185
-0.96
-0.855
-0.835
-0.895
-0.975
-1.05
-1.09
-1.11
-1.11
-1.1
-1.075
-1.065
-1.05
-1.05
-1.045
-1.065
-1.065
-1.06
-1.045
-1.055
-1.04
-1.04
-1.035
-1.02
-0.99
-1.0
-0.995
-0.995
-1.01
-1.005
-0.995
-1.005
-1.01
-0.995
-0.98
-0.945
-0.93
-0.92
-0.91
-0.92
-0.92
-0.925
-0.915
-0.91
-0.905
-0.87
-0.85
-0.845
-0.82
-0.79
-0.79
-0.775
-0.78
-0.76
-0.745
-0.735
-0.715
-0.72
-0.67
-0.65
-0.635
-0.635
-0.625
-0.595
-0.595
-0.59
-0.58
-0.585
-0.595
-0.605
-0.595
-0.575
-0.57
-0.57
-0.6
-0.61
-0.615
-0.635
-0.635
-0.64
-0.655
-0.66
-0.68
-0.695
-0.705
-0.74
-0.76
-0.785
-0.8
-0.815
-0.86
-0.885
-0.92
-0.925
-0.935
-0.93
-0.94
-0.955
-0.965
-0.975
-0.975
-0.995
-1.005
-1.015
-1.03
-1.035
-1.01
-1.01
-0.995
-0.98
-0.99
-0.99
-0.995
-1.0
-1.02
-1.025
-1.02
-1.015
-1.005
-0.98
-0.975
-0.97
-0.975
-0.985
-0.99
-0.995
-0.995
-1.01
-1.0
-1.005
-1.0
-1.01
-1.025
-1.01
-1.005
-1.015
-1.03
-1.03
-1.04
-1.04
-1.035
-1.035
-1.03
-1.035
-1.015
-1.02
-1.05
-1.04
-1.055
-1.05
-1.06
-1.065
-1.08
-1.075
-1.06
-1.065
-1.055
-1.045
-1.055
-1.05
-1.06
-1.07
-1.085
-1.1
-1.11
-1.105
-1.095
-1.095
-1.075
-1.07
-1.07
-1.07
-1.09
-1.085
-1.095
-1.095
-1.09
-1.075
-1.075
-1.065
-1.065
-1.06
-1.055
-1.065
-1.07
-1.07
-1.065
-1.05
-1.035
-1.025
-1.005
-0.985
-0.975
-0.965
-0.96
-0.975
-0.975
-0.97
-0.97
-0.95
-0.93
-0.915
-0.885
-0.875
-0.89
-0.915
-0.905
-0.93
-0.94
-0.96
-0.975
-0.985
-1.0
-0.99
-0.995
-1.01
-1.025
-1.04
-1.06
-1.085
-1.11
-1.125
-1.13
-1.13
-1.12
-1.115
-1.105
-1.09
-1.08
-1.075
-1.095
-1.105
-1.1
-1.115
-1.115
-1.12
-1.125
-1.095
-1.045
-0.97
-0.89
-0.745
-0.585
-0.37
-0.13
0.14
0.44
0.78
1.11
1.405
1.605
1.67
1.49
1.065
0.425
-0.215
-0.855
-1.495
-1.825
-1.765
-1.545
-1.295
-1.075
-0.96
-0.915
-0.93
-0.965
-1.005
-1.05
-1.075
-1.095
-1.09
-1.09
-1.065
-1.06
-1.04
-1.035
-1.03
-1.025
-1.035
-1.03
-1.02
-1.015
-1.025
-1.02
-1.01
-0.995
-0.98
-0.96
-0.955
-0.96
-0.955
-0.96
-0.97
-0.96
-0.98
-0.96
-0.93
-0.925
-0.91
-0.89
-0.88
-0.865
-0.855
-0.865
-0.875
-0.87
-0.87
-0.85
-0.84
-0.81
-0.785
-0.755
-0.735
-0.725
-0.72
-0.715
-0.71
-0.695
-0.69
-0.685
-0.665
-0.65
-0.635
-0.6
-0.59
-0.58
-0.58
-0.57
-0.57
-0.58
-0.585
-0.58
-0.575
-0.56
-0.55
-0.54
-0.545
-0.555
-0.58
-0.595
-0.62
-0.635
-0.64
-0.665
-0.665
-0.675
-0.695
-0.715
-0.745
-0.755
-0.775
-0.8
-0.825
-0.85
-0.87
-0.875
-0.88
-0.87
-0.87
-0.86
-0.865
-0.875
-0.89
-0.9
-0.92
-0.925
-0.94
-0.94
-0.945
-0.925
-0.925
-0.915
-0.905
-0.905
-0.905
-0.915
-0.915
-0.905
-0.915
-0.92
-0.92
-0.905
-0.895
-0.87
-0.86
-0.87
-0.89
-0.91
-0.92
-0.91
-0.915
-0.92
-0.905
-0.895
-0.89
-0.885
-0.875
-0.875
-0.885
-0.91
-0.92
-0.955
-0.965
-0.95
-0.945
-0.935
-0.935
-0.92
-0.915
-0.91
-0.945
-0.94
-0.96
-0.96
-0.965
-0.99
-0.975
-0.95
-0.955
-0.96
-0.955
-0.975
-0.97
-0.97
-0.985
-0.985
-0.99
-0.985
-0.99
-0.97
-0.98
-0.97
-0.955
-0.965
-0.96
-0.97
-0.99
-0.985
-0.99
-0.985
-0.985
-0.985
-0.98
-0.975
-0.985
-0.98
-0.975
-1.0
-1.005
-0.99
-0.995
-0.995
-0.97
-0.945
-0.92
-0.895
-0.855
-0.835
-0.845
-0.855
-0.86
-0.865
-0.865
-0.875
-0.885
-0.89
-0.865
-0.85
-0.83
-0.805
-0.795
-0.775
-0.775
-0.78
-0.795
-0.805
-0.82
-0.835
-0.84
-0.84
-0.855
-0.87
-0.865
-0.895
-0.92
-0.95
-0.985
-1.005
-1.04
-1.05
-1.055
-1.04
-1.045
-1.045
-1.04
-1.025
-1.035
-1.035
-1.04
-1.035
-1.05
-1.025
-1.025
-1.01
-1.01
-1.01
-1.02
-1.025
-0.995
-0.96
-0.905
-0.79
-0.63
-0.41
-0.13
0.135
0.455
0.785
1.095
1.38
1.625
1.775
1.84
1.79
1.545
1.08
0.44
-0.2
-0.84
-1.48
-1.655
-1.565
-1.33
-1.075
-0.89
-0.815
-0.805
-0.87
-0.945
-0.985
-1.005
-1.01
-0.995
-1.01
-1.005
-1.01
-1.02
-1.035
-1.03
-1.04
-1.035
-1.015
-0.99
-0.975
-0.97
-0.975
-0.985
-0.985
-0.98
-0.99
-0.975
-0.975
-0.95
-0.935
-0.93
-0.925
-0.915
-0.935
-0.945
-0.955
-0.955
-0.95
-0.955
-0.93
-0.89
-0.875
-0.845
-0.84
-0.835
-0.835
-0.845
-0.845
-0.845
-0.825
-0.82
-0.785
-0.775
-0.75
-0.74
-0.715
-0.71
-0.7
-0.68
-0.685
-0.675
-0.65
-0.64
-0.625
-0.595
-0.57
-0.555
-0.555
-0.55
-0.555
-0.585
-0.585
-0.585
-0.565
-0.57
-0.55
-0.545
-0.54
-0.535
-0.54
-0.555
-0.56
-0.595
-0.625
-0.655
-0.675
-0.685
-0.69
-0.69
-0.7
-0.72
-0.735
-0.75
-0.795
-0.825
-0.83
-0.85
-0.87
-0.88
-0.885
-0.895
-0.875
-0.88
-0.895
-0.905
-0.935
-0.94
-0.93
-0.94
-0.945
-0.945
-0.93
-0.925
-0.92
-0.915
-0.92
-0.92
-0.935
-0.945
-0.96
-0.965
-0.965
-0.965
-0.945
-0.92
-0.91
-0.9
-0.9
-0.91
-0.93
-0.925
-0.94
-0.94
-0.95
-0.95
-0.945
-0.95
-0.93
-0.93
-0.93
-0.95
-0.95
-0.97
-0.98
-0.985
-0.99
-0.99
-0.985
-0.98
-0.97
-0.97
-0.97
-0.97
-0.985
-1.0
-1.015
-1.04
-1.05
-1.025
-1.01
-1.005
-0.995
-0.98
-0.98
-0.99
-1.015
-1.02
-1.025
-1.03
-1.03
-1.025
-1.01
-1.0
-0.99
-0.995
-1.0
-1.015
-1.025
-1.03
-1.04
-1.03
-1.04
-1.055
-1.03
-1.02
-1.01
-0.99
-0.99
-1.015
-1.02
-1.015
-1.025
-1.02
-1.01
-1.0
-0.975
-0.95
-0.93
-0.915
-0.905
-0.895
-0.9
-0.895
-0.895
-0.9
-0.9
-0.885
-0.88
-0.86
-0.83
-0.815
-0.815
-0.82
-0.815
-0.825
-0.84
-0.845
-0.85
-0.865
-0.87
-0.88
-0.89
-0.895
-0.915
-0.93
-0.95
-0.98
-1.02
-1.035
-1.045
-1.07
-1.08
-1.065
-1.065
-1.05
-1.045
-1.045
-1.07
-1.07
-1.07
-1.06
-1.06
-1.05
-1.04
-1.04
-1.025
-1.02
-1.015
-0.985
-0.955
-0.875
-0.76
-0.595
-0.37
-0.135
0.135
0.45
0.805
1.165
1.495
1.715
1.775
1.58
1.09
0.45
-0.19
-0.83
-1.47
-1.79
-1.63
-1.325
-1.04
-0.825
-0.755
-0.765
-0.85
-0.935
-1.015
-1.035
-1.04
-1.015
-0.99
-0.985
-1.01
-1.01
-1.025
-1.02
-1.02
-1.025
-1.01
-1.0
-0.995
-0.985
-0.975
-0.965
-0.96
-0.95
-0.955
-0.96
-0.975
-0.96
-0.97
-0.965
-0.94
-0.91
-0.9
-0.89
-0.87
-0.895
-0.89
-0.87
-0.865
-0.85
-0.845
-0.835
-0.83
-0.83
-0.82
-0.795
-0.775
-0.76
-0.755
-0.75
-0.74
-0.725
-0.725
-0.71
-0.69
-0.665
-0.635
-0.625
-0.605
-0.605
-0.595
-0.575
-0.565
-0.55
-0.535
-0.515
-0.505
-0.48
-0.485
-0.48
-0.475
-0.485
-0.5
-0.5
-0.5
-0.515
-0.53
-0.525
-0.51
-0.515
-0.545
-0.54
-0.56
-0.585
-0.635
-0.64
-0.66
-0.675
-0.7
-0.735
-0.745
-0.77
-0.785
-0.785
-0.795
-0.795
-0.82
-0.83
-0.85
-0.865
-0.87
-0.87
-0.865
-0.855
-0.855
-0.845
-0.86
-0.865
-0.875
-0.885
-0.89
-0.895
-0.89
-0.89
-0.89
-0.875
-0.86
-0.845
-0.835
-0.85
-0.855
-0.87
-0.89
-0.895
-0.905
-0.905
-0.895
-0.905
-0.895
-0.885
-0.885
-0.905
-0.93
-0.955
-0.96
-0.97
-0.97
-0.96
-0.95
-0.94
-0.935
-0.915
-0.925
-0.93
-0.94
-0.96
-0.965
-0.985
-0.99
-1.0
-0.99
-0.985
-0.98
-0.98
-0.995
-0.985
-1.005
-1.015
-1.02
-1.01
-1.015
-1.02
-1.005
-0.995
-0.985
-0.98
-0.975
-0.965
-0.985
-1.01
-1.02
-1.02
-1.02
-1.015
-1.0
-0.995
-0.985
-0.985
-0.98
-0.975
-0.99
-0.995
-1.015
-1.015
-1.025
-1.0
-0.995
-1.005
-1.01
-0.985
-0.965
-0.95
-0.925
-0.905
-0.91
-0.905
-0.885
-0.9
-0.88
-0.865
-0.86
-0.865
-0.88
-0.88
-0.87
-0.86
-0.835
-0.83
-0.81
-0.795
-0.79
-0.81
-0.815
-0.825
-0.835
-0.865
-0.875
-0.895
-0.91
-0.915
-0.945
-0.975
-0.99
-1.01
-1.04
-1.03
-1.07
-1.065
-1.07
-1.08
-1.06
-1.065
-1.075
-1.075
-1.07
-1.055
-1.045
-1.04
-1.04
-1.045
-1.055
-1.07
-1.08
-1.045
-1.005
-0.935
-0.79
-0.6
-0.34
-0.045
0.315
0.685
1.07
1.445
1.75
1.95
1.98
1.76
1.23
0.59
-0.05
-0.69
-1.33
-1.74
-1.55
-1.26
-1.005
-0.845
-0.825
-0.875
-0.95
-1.03
-1.06
-1.07
-1.055
-1.05
-1.035
-1.055
-1.06
-1.065
-1.07
-1.07
-1.065
-1.06
-1.035
-1.02
-1.005
-1.01
-1.015
-1.01
-1.005
-1.005
-1.0
-1.0
-0.98
-0.98
-0.96
-0.95
-0.945
-0.945
-0.95
-0.955
-0.95
-0.96
-0.955
-0.94
-0.91
-0.915
-0.88
-0.86
-0.855
-0.84
-0.83
-0.835
-0.835
-0.815
-0.805
-0.795
-0.79
-0.765
-0.73
-0.7
-0.67
-0.675
-0.66
-0.66
-0.64
-0.65
-0.635
-0.615
-0.58
-0.58
-0.555
-0.555
-0.55
-0.54
-0.555
-0.555
-0.565
-0.565
-0.575
-0.57
-0.565
-0.565
-0.56
-0.56
-0.57
-0.585
-0.61
-0.65
-0.68
-0.705
-0.72
-0.76
-0.785
-0.78
-0.79
-0.81
-0.815
-0.835
-0.855
-0.865
-0.875
-0.9
-0.91
-0.915
-0.92
-0.925
-0.935
-0.925
-0.94
-0.965
-0.975
-0.975
-0.97
-0.955
-0.97
-0.96
-0.96
-0.95
-0.945
-0.93
-0.93
-0.925
-0.94
-0.945
-0.965
-0.97
-0.98
-0.97
-0.975
-0.955
-0.95
-0.94
-0.94
-0.94
-0.94
-0.96
-0.97
-0.98
-0.97
-0.98
-0.98
-0.97
-0.965
-0.955
-0.945
-0.97
-0.98
-1.0
-1.01
-1.005
-1.005
-1.005
-0.995
-0.975
