Lead II
-0.295
-0.285
-0.275
-0.265
-0.265
-0.265
-0.275
-0.255
-0.25
-0.235
-0.245
-0.265
-0.28
-0.28
-0.25
-0.19
-0.06
0.08
0.245
0.45
0.65
0.85
1.005
1.125
1.2
1.265
1.28
1.21
1.085
0.965
0.855
0.745
0.6
0.455
0.33
0.24
0.165
0.06
-0.04
-0.115
-0.16
-0.23
-0.29
-0.35
-0.385
-0.4
-0.42
-0.44
-0.46
-0.49
-0.485
-0.485
-0.48
-0.5
-0.5
-0.49
-0.47
-0.46
-0.46
-0.455
-0.46
-0.455
-0.455
-0.445
-0.44
-0.455
-0.46
-0.455
-0.44
-0.435
-0.43
-0.445
-0.445
-0.445
-0.46
-0.45
-0.45
-0.44
-0.455
-0.44
-0.445
-0.43
-0.43
-0.435
-0.45
-0.445
-0.44
-0.44
-0.44
-0.435
-0.45
-0.435
-0.44
-0.425
-0.42
-0.415
-0.435
-0.43
-0.405
-0.39
-0.38
-0.375
-0.38
-0.37
-0.345
-0.345
-0.335
-0.325
-0.32
-0.305
-0.285
-0.285
-0.265
-0.255
-0.245
-0.225
-0.205
-0.18
-0.17
-0.16
-0.145
-0.14
-0.13
-0.115
-0.13
-0.145
-0.14
-0.14
-0.125
-0.12
-0.125
-0.15
-0.16
-0.16
-0.165
-0.16
-0.165
-0.175
-0.195
-0.19
-0.18
-0.18
-0.205
-0.2
-0.2
-0.205
-0.205
-0.205
-0.195
-0.22
-0.23
-0.23
-0.225
-0.215
-0.215
-0.23
-0.23
-0.23
-0.23
-0.23
-0.24
-0.265
-0.265
-0.26
-0.25
-0.265
-0.275
-0.295
-0.29
-0.28
-0.275
-0.265
-0.255
-0.27
-0.26
-0.26
-0.26
-0.25
-0.25
-0.26
-0.27
-0.26
-0.25
-0.235
-0.245
-0.245
-0.245
-0.24
-0.23
-0.23
-0.225
-0.24
-0.255
-0.25
-0.235
-0.215
-0.215
-0.24
-0.265
-0.27
-0.265
-0.235
-0.25
-0.245
-0.24
-0.235
-0.225
-0.235
-0.245
-0.245
-0.245
-0.23
-0.225
-0.215
-0.22
-0.215
-0.22
-0.21
-0.185
-0.16
-0.15
-0.14
-0.14
-0.145
-0.145
-0.135
-0.125
-0.125
-0.13
-0.1
-0.08
-0.05
-0.04
-0.04
-0.055
-0.05
-0.035
-0.035
-0.03
-0.045
-0.065
-0.07
-0.08
-0.095
-0.11
-0.18
-0.235
-0.28
-0.295
-0.3
-0.31
-0.3
-0.305
-0.325
-0.325
-0.305
-0.305
-0.31
-0.325
-0.335
-0.32
-0.315
-0.305
-0.31
-0.315
-0.29
-0.275
-0.27
-0.28
-0.295
-0.305
-0.285
-0.255
-0.25
-0.26
-0.29
-0.32
-0.315
-0.3
-0.27
-0.21
-0.14
-0.045
0.12
0.3
0.495
0.715
0.88
1.01
1.13
1.22
1.3
1.275
1.185
1.045
0.91
0.815
0.65
0.49
0.355
0.275
0.215
0.13
0.035
-0.06
-0.13
-0.205
-0.285
-0.35
-0.39
-0.43
-0.445
-0.475
-0.47
-0.48
-0.48
-0.47
-0.495
-0.505
-0.515
-0.505
-0.485
-0.47
-0.485
-0.49
-0.495
-0.47
-0.445
-0.435
-0.435
-0.445
-0.445
-0.44
-0.435
-0.425
-0.44
-0.455
-0.455
-0.46
-0.43
-0.43
-0.43
-0.445
-0.445
-0.44
-0.425
-0.435
-0.445
-0.465
-0.445
-0.435
-0.435
-0.445
-0.44
-0.455
-0.445
-0.43
-0.42
-0.42
-0.425
-0.425
-0.42
-0.405
-0.4
-0.4
-0.405
-0.39
-0.38
-0.35
-0.315
-0.305
-0.3
-0.31
-0.3
-0.27
-0.225
-0.23
-0.22
-0.22
-0.21
-0.18
-0.14
-0.115
-0.13
-0.15
-0.14
-0.115
-0.1
-0.085
-0.09
-0.105
-0.1
-0.11
-0.115
-0.11
-0.13
-0.14
-0.15
-0.135
-0.125
-0.125
-0.15
-0.17
-0.155
-0.16
-0.17
-0.2
-0.22
-0.245
-0.24
-0.225
-0.215
-0.195
-0.21
-0.23
-0.23
-0.225
-0.21
-0.21
-0.225
-0.225
-0.225
-0.22
-0.205
-0.2
-0.245
-0.27
-0.265
-0.23
-0.21
-0.225
-0.24
-0.265
-0.25
-0.23
-0.21
-0.21
-0.225
-0.23
-0.235
-0.2
-0.195
-0.195
-0.2
-0.2
-0.205
-0.21
-0.205
-0.2
-0.2
-0.195
-0.195
-0.19
-0.18
-0.18
-0.18
-0.18
-0.175
-0.19
-0.18
-0.175
-0.17
-0.175
-0.165
-0.16
-0.15
-0.145
-0.165
-0.175
-0.175
-0.165
-0.155
-0.14
-0.125
-0.125
-0.12
-0.095
-0.07
-0.06
-0.07
-0.075
-0.08
-0.065
-0.025
-0.005
0.005
0.0
0.03
0.04
0.05
0.05
0.035
0.025
0.03
0.025
0.035
0.0
-0.02
-0.065
-0.095
-0.15
-0.195
-0.22
-0.235
-0.24
-0.24
-0.215
-0.225
-0.24
-0.26
-0.26
-0.255
-0.24
-0.225
-0.225
-0.235
-0.235
-0.235
-0.225
-0.225
-0.225
-0.23
-0.25
-0.23
-0.225
-0.21
-0.205
-0.24
-0.26
-0.265
-0.26
-0.23
-0.155
-0.06
0.06
0.205
0.36
0.55
0.745
0.92
1.08
1.22
1.275
1.275
1.195
1.055
0.935
0.825
0.705
0.535
0.365
0.26
0.19
0.145
0.08
0.015
-0.06
-0.125
-0.2
-0.275
-0.325
-0.35
-0.34
-0.38
-0.405
-0.425
-0.415
-0.415
-0.41
-0.415
-0.445
-0.435
-0.415
-0.4
-0.395
-0.41
-0.425
-0.42
-0.415
-0.395
-0.405
-0.395
-0.39
-0.405
-0.395
-0.39
-0.385
-0.39
-0.39
-0.39
-0.39
-0.37
-0.365
-0.385
-0.39
-0.395
-0.395
-0.39
-0.4
-0.4
-0.415
-0.4
-0.385
-0.38
-0.395
-0.405
-0.4
-0.395
-0.39
-0.375
-0.37
-0.365
-0.375
-0.375
-0.36
-0.35
-0.335
-0.34
-0.335
-0.315
-0.305
-0.28
-0.26
-0.265
-0.265
-0.25
-0.22
-0.205
-0.185
-0.18
-0.17
-0.145
-0.125
-0.1
-0.1
-0.1
-0.1
-0.09
-0.08
-0.085
-0.085
-0.1
-0.115
-0.115
-0.115
-0.105
-0.12
-0.15
-0.165
-0.145
-0.14
-0.14
-0.155
-0.18
-0.175
-0.17
-0.18
-0.18
-0.19
-0.195
-0.21
-0.205
-0.2
-0.195
-0.185
-0.19
-0.205
-0.215
-0.225
-0.215
-0.215
-0.225
-0.24
-0.23
-0.205
-0.205
-0.2
-0.22
-0.225
-0.215
-0.195
-0.19
-0.2
-0.215
-0.22
-0.215
-0.19
-0.18
-0.19
-0.2
-0.215
-0.205
-0.2
-0.19
-0.205
-0.2
-0.215
-0.205
-0.195
-0.185
-0.18
-0.18
-0.2
-0.2
-0.185
-0.18
-0.185
-0.19
-0.195
-0.19
-0.19
-0.175
-0.17
-0.175
-0.185
-0.195
-0.185
-0.185
-0.16
-0.165
-0.18
-0.175
-0.165
-0.155
-0.135
-0.135
-0.135
-0.115
-0.095
-0.095
-0.105
-0.11
-0.115
-0.075
-0.035
-0.015
-0.005
0.005
0.0
0.01
0.03
0.03
0.015
-0.005
-0.035
-0.045
-0.045
-0.055
-0.085
-0.115
-0.16
-0.195
-0.215
-0.225
-0.235
-0.26
-0.265
-0.26
-0.25
-0.25
-0.245
-0.26
-0.27
-0.27
-0.255
-0.255
-0.245
-0.255
-0.27
-0.245
-0.245
-0.25
-0.24
-0.24
-0.245
-0.25
-0.25
-0.25
-0.255
-0.245
-0.23
-0.18
-0.09
0.025
0.155
0.3
0.455
0.63
0.805
0.995
1.14
1.24
1.28
1.25
1.125
0.99
0.865
0.75
0.585
0.42
0.3
0.23
0.185
0.1
-0.025
-0.115
-0.175
-0.195
-0.235
-0.29
-0.355
-0.385
-0.4
-0.4
-0.41
-0.425
-0.445
-0.44
-0.435
-0.435
-0.42
-0.41
-0.415
-0.4
-0.39
-0.375
-0.38
-0.375
-0.395
-0.38
-0.365
-0.37
-0.37
-0.37
-0.365
-0.355
-0.35
-0.35
-0.34
-0.35
-0.365
-0.37
-0.35
-0.35
-0.34
-0.34
-0.355
-0.35
-0.345
-0.33
-0.34
-0.35
-0.36
-0.355
-0.35
-0.335
-0.35
-0.355
-0.36
-0.365
-0.35
-0.345
-0.345
-0.345
-0.345
-0.32
-0.3
-0.28
-0.285
-0.275
-0.295
-0.27
-0.245
-0.225
-0.215
-0.21
-0.215
-0.19
-0.165
-0.14
-0.135
-0.13
-0.135
-0.115
-0.09
-0.075
-0.07
-0.09
-0.095
-0.08
-0.065
-0.045
-0.065
-0.075
-0.1
-0.09
-0.085
-0.085
-0.095
-0.105
-0.115
-0.135
-0.12
-0.12
-0.13
-0.14
-0.14
-0.135
-0.14
-0.14
-0.14
-0.145
-0.16
-0.16
-0.165
-0.155
-0.16
-0.16
-0.17
-0.165
-0.155
-0.15
-0.155
-0.175
-0.195
-0.19
-0.175
-0.175
-0.185
-0.18
-0.195
-0.195
-0.175
-0.155
-0.17
-0.17
-0.2
-0.2
-0.195
-0.175
-0.165
-0.175
-0.185
-0.19
-0.18
-0.18
-0.18
-0.185
-0.195
-0.19
-0.185
-0.165
-0.16
-0.16
-0.175
-0.18
-0.185
-0.19
-0.205
-0.205
-0.22
-0.2
-0.185
-0.18
-0.185
-0.175
-0.185
-0.185
-0.175
-0.18
-0.18
-0.17
-0.17
-0.17
-0.17
-0.16
-0.16
-0.145
-0.13
-0.11
-0.075
-0.055
-0.06
-0.085
-0.095
-0.09
-0.055
-0.015
-0.005
-0.015
-0.02
0.005
0.015
0.035
0.045
0.03
0.005
-0.01
-0.01
-0.02
-0.035
-0.075
-0.135
-0.18
-0.21
-0.235
-0.245
-0.25
-0.265
-0.265
-0.255
-0.26
-0.245
-0.245
-0.26
-0.26
-0.255
-0.245
-0.24
-0.245
-0.24
-0.25
-0.23
-0.22
-0.22
-0.23
-0.24
-0.22
-0.215
-0.2
-0.24
-0.235
-0.255
-0.235
-0.185
-0.09
0.05
0.205
0.4
0.62
0.835
1.005
1.145
1.235
1.295
1.305
1.21
1.07
0.915
0.79
0.655
0.51
0.375
0.275
0.205
0.095
-0.01
-0.095
-0.15
-0.2
-0.265
-0.33
-0.375
-0.39
-0.395
-0.4
-0.41
-0.435
-0.435
-0.435
-0.425
-0.425
-0.42
-0.42
-0.43
-0.43
-0.425
-0.415
-0.415
-0.425
-0.43
-0.415
-0.4
-0.4
-0.405
-0.41
-0.435
-0.42
-0.425
-0.405
-0.43
-0.435
-0.435
-0.44
-0.43
-0.43
-0.445
-0.445
-0.455
-0.445
-0.435
-0.435
-0.44
-0.43
-0.44
-0.44
-0.44
-0.415
-0.42
-0.415
-0.415
-0.42
-0.415
-0.4
-0.405
-0.4
-0.395
-0.38
-0.37
-0.345
-0.33
-0.325
-0.34
-0.33
-0.285
-0.255
-0.25
-0.25
-0.25
-0.23
-0.205
-0.18
-0.175
-0.16
-0.145
-0.145
-0.105
-0.095
-0.095
-0.105
-0.13
-0.125
-0.11
-0.11
-0.115
-0.115
-0.145
-0.145
-0.15
-0.135
-0.145
-0.175
-0.185
-0.19
-0.18
-0.175
-0.175
-0.19
-0.205
-0.215
-0.21
-0.2
-0.205
-0.225
-0.25
-0.23
-0.23
-0.225
-0.22
-0.235
-0.24
-0.235
-0.23
-0.225
-0.235
-0.235
-0.25
-0.245
-0.245
-0.245
-0.245
-0.25
-0.27
-0.27
-0.26
-0.25
-0.24
-0.245
-0.25
-0.245
-0.245
-0.245
-0.235
-0.245
-0.255
-0.245
-0.235
-0.23
-0.225
-0.245
-0.245
-0.26
-0.255
-0.23
-0.225
-0.235
-0.235
-0.225
-0.21
-0.21
-0.215
-0.225
-0.24
-0.235
-0.225
-0.215
-0.205
-0.225
-0.245
-0.225
-0.22
-0.21
-0.215
-0.22
-0.225
-0.225
-0.22
-0.21
-0.195
-0.195
-0.205
-0.175
-0.145
-0.11
-0.095
-0.09
-0.12
-0.13
-0.115
-0.08
-0.055
-0.06
-0.055
-0.04
-0.02
-0.01
-0.005
-0.015
-0.02
-0.015
-0.02
-0.03
-0.04
-0.05
-0.09
-0.11
-0.145
-0.185
-0.23
-0.265
-0.285
-0.28
-0.275
-0.28
-0.29
-0.31
-0.31
-0.295
-0.285
-0.255
-0.27
-0.29
-0.325
-0.3
-0.285
-0.27
-0.27
-0.295
-0.29
-0.28
-0.26
-0.245
-0.235
-0.255
-0.27
-0.285
-0.27
-0.28
-0.28
-0.275
-0.245
-0.15
-0.015
0.17
0.39
0.6
0.82
0.995
1.145
1.255
1.315
1.24
1.08
0.93
0.81
0.69
0.545
0.395
0.275
0.22
0.16
0.055
-0.06
-0.155
-0.23
-0.305
-0.36
-0.385
-0.405
-0.44
-0.445
-0.46
-0.46
-0.46
-0.47
-0.47
-0.48
-0.48
-0.47
-0.465
-0.475
-0.47
-0.475
-0.46
-0.445
-0.44
-0.435
-0.445
-0.46
-0.45
-0.44
-0.425
-0.44
-0.445
-0.45
-0.445
-0.43
-0.435
-0.44
-0.45
-0.48
-0.475
-0.46
-0.45
-0.445
-0.455
-0.46
-0.465
-0.45
-0.43
-0.435
-0.445
-0.46
-0.46
-0.455
-0.45
-0.45
-0.46
-0.48
-0.45
-0.445
-0.435
-0.41
-0.42
-0.41
-0.39
-0.38
-0.36
-0.355
-0.34
-0.34
-0.325
-0.31
-0.295
-0.285
-0.265
-0.265
-0.24
-0.225
-0.19
-0.19
-0.195
-0.18
-0.165
-0.15
-0.14
-0.145
-0.165
-0.175
-0.165
-0.155
-0.135
-0.15
-0.16
-0.175
-0.18
-0.18
-0.175
-0.175
-0.185
-0.21
-0.205
-0.21
-0.2
-0.205
-0.22
-0.23
-0.245
-0.225
-0.23
-0.23
-0.24
-0.26
-0.265
-0.255
-0.245
-0.245
-0.255
-0.265
-0.29
-0.265
-0.24
-0.24
-0.255
-0.265
-0.26
-0.255
-0.255
-0.265
-0.265
-0.28
-0.255
-0.235
-0.235
-0.245
-0.26
-0.27
-0.26
-0.25
-0.235
-0.23
-0.235
-0.25
-0.245
-0.25
-0.245
-0.245
-0.245
-0.245
-0.255
-0.24
-0.24
-0.235
-0.235
-0.245
-0.26
-0.25
-0.22
-0.225
-0.23
-0.24
-0.255
-0.225
-0.225
-0.225
-0.24
-0.275
-0.26
-0.24
-0.23
-0.225
-0.235
-0.23
-0.235
-0.22
-0.22
-0.22
-0.22
-0.22
-0.185
-0.16
-0.13
-0.105
-0.1
-0.12
-0.125
-0.125
-0.105
-0.095
-0.065
-0.07
-0.06
-0.05
-0.025
-0.015
-0.02
-0.035
-0.035
-0.04
-0.03
-0.045
-0.06
-0.09
-0.105
-0.135
-0.19
-0.235
-0.3
-0.305
-0.31
-0.32
-0.315
-0.315
-0.305
-0.325
-0.315
-0.3
-0.29
-0.295
-0.295
-0.31
-0.295
-0.29
-0.28
-0.27
-0.285
-0.28
-0.27
-0.265
-0.26
-0.265
-0.27
-0.27
-0.27
-0.26
-0.26
-0.28
-0.305
-0.3
-0.27
-0.185
-0.095
0.045
0.2
0.385
0.555
0.745
0.925
1.055
1.155
1.235
1.285
1.24
1.13
0.96
0.815
0.665
0.52
0.39
0.295
0.235
0.15
0.04
-0.05
-0.095
-0.135
-0.19
-0.25
-0.335
-0.385
-0.41
-0.425
-0.435
-0.46
-0.505
-0.505
-0.495
-0.485
-0.485
-0.49
-0.505
-0.5
-0.485
-0.485
-0.485
-0.49
-0.495
-0.49
-0.465
-0.46
-0.46
-0.48
-0.48
-0.485
-0.47
-0.46
-0.46
-0.48
-0.485
-0.48
-0.45
-0.45
-0.45
-0.47
-0.48
-0.48
-0.465
-0.465
-0.47
-0.47
-0.49
-0.485
-0.475
-0.47
-0.47
-0.465
-0.47
-0.465
-0.455
-0.455
-0.46
-0.46
-0.465
-0.455
-0.435
-0.425
-0.41
-0.4
-0.41
-0.405
-0.39
-0.365
-0.355
-0.35
-0.335
-0.34
-0.31
-0.29
-0.27
-0.265
-0.265
-0.25
-0.225
-0.21
-0.19
-0.18
-0.175
-0.175
-0.155
-0.14
-0.125
-0.115
-0.135
-0.145
-0.13
-0.11
-0.125
-0.14
-0.17
-0.18
-0.18
-0.18
-0.185
-0.19
-0.21
-0.205
-0.19
-0.205
-0.215
-0.235
-0.255
-0.26
-0.235
-0.235
-0.23
-0.25
-0.275
-0.265
-0.26
-0.26
-0.245
-0.255
-0.265
-0.255
-0.245
-0.235
-0.245
-0.26
-0.265
-0.255
-0.25
-0.24
-0.275
-0.275
-0.285
-0.275
-0.25
-0.255
-0.255
-0.25
-0.265
-0.26
-0.255
-0.25
-0.24
-0.255
-0.27
-0.27
-0.255
-0.255
-0.265
-0.265
-0.265
-0.265
-0.25
-0.245
-0.245
-0.265
-0.275
-0.27
-0.26
-0.25
-0.24
-0.235
-0.245
-0.255
-0.25
-0.245
-0.25
-0.25
-0.26
-0.255
-0.25
-0.24
-0.24
-0.24
-0.25
-0.25
-0.24
-0.22
-0.215
-0.22
-0.205
-0.185
-0.145
-0.105
-0.11
-0.125
-0.155
-0.16
-0.14
-0.105
-0.085
-0.07
-0.075
-0.06
-0.04
-0.02
-0.03
-0.03
-0.05
-0.06
-0.04
-0.03
-0.04
-0.065
-0.1
-0.125
-0.165
-0.21
-0.26
-0.31
-0.335
-0.335
-0.325
-0.315
-0.32
-0.335
-0.34
-0.34
-0.325
-0.31
-0.315
-0.315
-0.315
-0.325
-0.32
-0.315
-0.295
-0.295
-0.3
-0.29
-0.29
-0.285
-0.29
-0.28
-0.285
-0.29
-0.29
-0.3
-0.32
-0.33
-0.315
-0.265
-0.16
-0.03
0.125
0.29
0.48
0.665
0.865
1.02
1.135
1.24
1.275
1.265
1.19
1.08
0.95
0.82
0.67
0.51
0.405
0.32
0.26
0.205
0.115
0.01
-0.075
-0.17
-0.23
-0.295
-0.365
-0.4
-0.445
-0.445
-0.48
-0.495
-0.515
-0.505
-0.485
-0.485
-0.5
-0.505
-0.52
-0.505
-0.485
-0.48
-0.485
-0.5
-0.505
-0.485
-0.465
-0.47
-0.465
-0.47
-0.49
-0.47
-0.47
-0.465
-0.465
-0.475
-0.485
-0.475
-0.465
-0.46
-0.445
-0.445
-0.455
-0.46
-0.455
-0.435
-0.445
-0.45
-0.465
-0.465
-0.465
-0.46
-0.445
-0.455
-0.465
-0.455
-0.45
-0.44
-0.44
-0.46
-0.455
-0.445
-0.415
-0.405
-0.395
-0.405
-0.425
-0.415
-0.4
-0.37
-0.345
-0.345
-0.34
-0.33
-0.335
-0.305
-0.295
-0.285
-0.27
-0.255
-0.24
-0.22
-0.205
-0.21
-0.21
-0.195
-0.16
-0.135
-0.14
-0.145
-0.14
-0.135
-0.125
-0.135
-0.13
-0.145
-0.16
-0.145
-0.135
-0.135
-0.145
-0.16
-0.18
-0.18
-0.17
-0.16
-0.17
-0.18
-0.195
-0.215
-0.21
-0.215
-0.215
-0.22
-0.235
-0.23
-0.235
-0.23
-0.235
-0.25
-0.245
-0.235
-0.225
-0.23
-0.245
-0.245
-0.25
-0.245
-0.25
-0.255
-0.245
-0.265
-0.265
-0.26
-0.24
-0.235
-0.245
-0.26
-0.26
-0.255
-0.25
-0.23
-0.235
-0.25
-0.265
-0.28
-0.275
-0.27
-0.26
-0.255
-0.26
-0.265
-0.25
-0.24
-0.245
-0.255
-0.29
-0.285
-0.26
-0.24
-0.235
-0.255
-0.25
-0.255
-0.25
-0.255
-0.25
-0.26
-0.27
-0.25
-0.245
-0.25
-0.245
-0.265
-0.27
-0.265
-0.255
-0.24
-0.245
-0.255
-0.26
-0.26
-0.25
-0.23
-0.215
-0.24
-0.235
-0.22
-0.19
-0.155
-0.145
-0.14
-0.165
-0.165
-0.13
-0.095
-0.075
-0.07
-0.075
-0.075
-0.055
-0.045
-0.035
-0.055
-0.07
-0.075
-0.07
-0.05
-0.075
-0.11
-0.175
-0.23
-0.28
-0.29
-0.295
-0.315
-0.32
-0.34
-0.33
-0.315
-0.31
-0.315
-0.31
-0.315
-0.3
-0.305
-0.3
-0.29
-0.305
-0.295
-0.28
-0.275
-0.28
-0.28
-0.28
-0.27
-0.265
-0.26
-0.265
-0.275
-0.305
-0.305
-0.29
-0.275
-0.235
-0.145
-0.005
0.165
0.375
0.58
0.78
0.945
1.08
1.215
1.3
1.295
1.2
1.09
0.98
0.875
0.73
0.57
0.41
0.315
0.24
0.17
0.085
0.01
-0.075
-0.15
-0.23
-0.305
-0.34
-0.375
-0.395
-0.435
-0.455
-0.465
-0.455
-0.46
-0.475
-0.485
-0.49
-0.475
-0.46
-0.45
-0.46
-0.47
-0.49
-0.485
-0.455
-0.435
-0.425
-0.44
-0.465
-0.465
-0.445
-0.425
-0.42
-0.425
-0.44
-0.45
-0.445
-0.44
-0.43
-0.44
-0.445
-0.455
-0.44
-0.445
-0.435
-0.445
-0.455
-0.465
-0.45
-0.445
-0.435
-0.435
-0.44
-0.445
-0.445
-0.44
-0.45
-0.455
-0.435
-0.45
-0.425
-0.425
-0.405
-0.405
-0.4
-0.385
-0.365
-0.355
-0.345
-0.35
-0.345
-0.335
-0.305
-0.3
-0.285
-0.285
-0.275
-0.25
-0.23
-0.2
-0.2
-0.19
-0.18
-0.18
-0.155
-0.145
-0.14
-0.145
-0.155
-0.13
-0.12
-0.105
-0.12
-0.135
-0.16
-0.185
-0.175
-0.155
-0.155
-0.17
-0.215
-0.205
-0.205
-0.21
-0.2
-0.225
-0.24
-0.255
-0.235
-0.215
-0.23
-0.26
-0.27
-0.265
-0.265
-0.25
-0.245
-0.245
-0.265
-0.255
-0.25
-0.24
-0.25
-0.25
-0.26
-0.27
-0.28
-0.285
-0.28
-0.265
-0.275
-0.26
-0.26
-0.25
-0.265
-0.265
-0.27
-0.265
-0.27
-0.265
-0.27
-0.27
-0.265
-0.27
-0.25
-0.245
-0.245
-0.265
-0.28
-0.28
-0.27
-0.265
-0.265
-0.27
-0.29
-0.285
-0.265
-0.26
-0.25
-0.26
-0.255
-0.24
-0.245
-0.255
-0.275
-0.285
-0.27
-0.25
-0.25
-0.25
-0.25
-0.255
-0.265
-0.26
-0.245
-0.23
-0.235
-0.245
-0.255
-0.26
-0.24
-0.215
-0.18
-0.16
-0.17
-0.175
-0.175
-0.175
-0.16
-0.15
-0.14
-0.11
-0.08
-0.055
-0.045
-0.055
-0.065
-0.045
-0.05
-0.055
-0.06
-0.09
-0.105
-0.095
-0.1
-0.12
-0.165
-0.2
-0.245
-0.265
-0.28
-0.295
-0.31
-0.315
-0.31
-0.305
-0.315
-0.31
-0.3
-0.3
-0.315
-0.32
-0.3
-0.29
-0.29
-0.285
-0.3
-0.295
-0.285
-0.265
-0.28
-0.295
-0.295
-0.27
-0.255
-0.265
-0.29
-0.31
-0.32
-0.315
-0.28
-0.215
-0.12
0.01
0.155
0.32
0.5
0.705
0.885
1.045
1.15
1.2
1.2
1.125
1.0
0.86
0.77
0.675
0.52
0.385
0.275
0.205
0.155
0.09
-0.02
-0.1
-0.175
-0.24
-0.31
-0.345
-0.385
-0.39
-0.41
-0.43
-0.45
-0.455
-0.45
-0.45
-0.46
-0.47
-0.475
-0.465
-0.45
-0.45
-0.45
-0.445
-0.46
-0.45
-0.445
-0.43
-0.425
-0.435
-0.445
-0.445
-0.425
-0.42
-0.4
-0.41
-0.42
-0.425
-0.42
-0.405
-0.4
-0.405
-0.43
-0.435
-0.435
-0.425
-0.425
-0.43
-0.44
-0.44
-0.425
-0.43
-0.415
-0.43
-0.44
-0.43
-0.42
-0.43
-0.435
-0.425
-0.425
-0.415
-0.405
-0.39
-0.395
-0.385
-0.395
-0.37
-0.345
-0.325
-0.325
-0.335
-0.34
-0.33
-0.295
-0.27
-0.27
-0.275
-0.285
-0.27
-0.225
-0.195
-0.2
-0.19
-0.185
-0.17
-0.15
-0.13
-0.125
-0.115
-0.14
-0.13
-0.11
-0.105
-0.115
-0.125
-0.145
-0.13
-0.125
-0.13
-0.14
-0.165
-0.19
-0.18
-0.175
-0.165
-0.16
-0.18
-0.195
-0.18
-0.195
-0.185
-0.2
-0.21
-0.2
-0.18
-0.175
-0.17
-0.175
-0.19
-0.21
-0.22
-0.22
-0.21
-0.195
-0.195
-0.21
-0.22
-0.205
-0.195
-0.195
-0.205
-0.225
-0.225
-0.23
-0.2
-0.19
-0.2
-0.21
-0.22
-0.23
-0.215
-0.22
-0.22
-0.22
-0.22
-0.2
-0.21
-0.22
-0.23
-0.22
-0.215
-0.215
-0.215
-0.23
-0.23
-0.235
-0.225
-0.22
-0.225
-0.235
-0.235
-0.255
-0.245
-0.22
-0.21
-0.22
-0.23
-0.245
-0.225
-0.22
-0.2
-0.2
-0.19
-0.225
-0.205
-0.205
-0.2
-0.2
-0.205
-0.205
-0.195
-0.195
-0.175
-0.185
-0.18
-0.155
-0.14
-0.13
-0.14
-0.14
-0.135
-0.13
-0.1
-0.08
-0.06
-0.05
-0.035
-0.04
-0.015
-0.005
-0.005
-0.01
-0.03
-0.06
-0.055
-0.045
-0.045
-0.07
-0.1
-0.16
-0.205
-0.25
-0.265
-0.265
-0.285
-0.305
-0.305
-0.295
-0.28
-0.275
-0.28
-0.28
-0.295
-0.29
-0.275
-0.27
-0.28
-0.3
-0.3
-0.28
-0.27
-0.26
-0.265
-0.275
-0.265
-0.245
-0.235
-0.235
-0.26
-0.295
-0.285
-0.28
-0.255
-0.245
-0.195
-0.1
0.065
0.25
0.445
0.635
0.82
0.98
1.105
1.215
1.24
1.18
1.04
0.915
0.82
0.75
0.625
0.47
0.34
0.245
0.205
0.16
0.075
-0.015
-0.105
-0.175
-0.24
-0.29
-0.345
-0.385
-0.41
-0.44
-0.435
-0.43
-0.43
-0.43
-0.45
-0.455
-0.455
-0.45
-0.425
-0.415
-0.41
-0.42
-0.42
-0.425
-0.41
-0.405
-0.395
-0.395
-0.4
-0.395
-0.395
-0.4
-0.405
-0.415
-0.395
-0.405
-0.385
-0.4
-0.415
-0.4
-0.405
-0.405
-0.39
-0.39
-0.395
-0.42
-0.425
-0.425
-0.415
-0.4
-0.415
-0.42
-0.43
-0.415
-0.4
-0.395
-0.41
-0.415
-0.415
-0.385
-0.38
-0.385
-0.38
-0.385
-0.38
-0.365
-0.34
-0.34
-0.33
-0.32
-0.31
-0.285
-0.265
-0.265
-0.26
-0.255
-0.225
-0.185
-0.165
-0.165
-0.17
-0.16
-0.14
-0.115
-0.09
-0.08
-0.095
-0.1
-0.105
-0.095
-0.105
-0.105
-0.105
-0.12
-0.11
-0.105
-0.1
-0.12
-0.155
-0.175
-0.165
-0.16
-0.16
-0.16
-0.165
-0.18
-0.175
-0.17
-0.165
-0.16
-0.18
-0.195
-0.21
-0.19
-0.19
-0.205
-0.21
-0.22
-0.22
-0.205
-0.205
-0.21
-0.22
-0.22
-0.225
-0.21
-0.21
-0.215
-0.225
-0.22
-0.215
-0.195
-0.2
-0.22
-0.21
-0.22
-0.215
-0.215
-0.21
-0.215
-0.205
-0.21
-0.21
-0.215
-0.22
-0.225
-0.25
-0.24
-0.23
-0.225
-0.21
-0.205
-0.21
-0.22
-0.22
-0.225
-0.205
-0.2
-0.21
-0.24
-0.23
-0.235
-0.215
-0.215
-0.22
-0.225
-0.22
-0.2
-0.19
-0.195
-0.2
-0.17
-0.155
-0.125
-0.1
-0.1
-0.11
-0.11
-0.105
-0.08
-0.04
-0.025
-0.035
-0.05
-0.035
-0.015
0.0
0.0
-0.02
-0.05
-0.045
-0.04
-0.05
-0.075
-0.125
-0.2
-0.235
-0.255
-0.275
-0.28
-0.275
-0.295
-0.295
-0.295
-0.275
-0.265
-0.28
-0.3
-0.28
-0.28
-0.275
-0.26
-0.26
-0.275
-0.27
-0.27
-0.265
-0.265
-0.255
-0.255
-0.255
-0.26
-0.24
-0.255
-0.275
-0.28
-0.27
-0.23
-0.155
-0.035
0.11
0.29
0.51
0.74
0.935
1.09
1.21
1.28
1.32
1.24
1.09
0.94
0.83
0.72
0.59
0.44
0.325
0.25
0.185
0.065
-0.05
-0.125
-0.17
-0.235
-0.325
-0.395
-0.425
-0.395
-0.395
-0.405
-0.45
-0.465
-0.47
-0.455
-0.45
-0.455
-0.46
-0.465
-0.46
-0.465
-0.46
-0.45
-0.435
-0.45
-0.44
-0.45
-0.42
-0.44
-0.42
-0.435
-0.435
-0.425
-0.425
-0.43
-0.45
-0.46
-0.455
-0.44
-0.435
-0.435
-0.44
-0.435
-0.435
-0.435
-0.44
-0.455
-0.455
-0.455
-0.455
-0.435
-0.43
-0.435
-0.44
-0.445
-0.445
-0.44
-0.44
-0.445
-0.435
-0.435
-0.41
-0.4
-0.375
-0.395
-0.38
-0.39
-0.37
-0.345
-0.335
-0.33
-0.315
-0.315
-0.295
-0.27
-0.25
-0.235
-0.225
-0.22
-0.2
-0.175
-0.145
-0.13
-0.125
-0.14
-0.145
-0.13
-0.115
-0.1
-0.095
-0.105
-0.115
-0.125
-0.12
-0.14
-0.15
-0.155
-0.155
-0.16
-0.17
-0.175
-0.185
-0.195
-0.2
-0.21
-0.2
-0.195
-0.2
-0.23
-0.215
-0.225
-0.215
-0.215
-0.24
-0.25
-0.245
-0.23
-0.215
-0.23
-0.24
-0.265
-0.26
-0.25
-0.235
-0.25
-0.255
-0.265
-0.265
-0.245
-0.235
-0.24
-0.255
-0.255
-0.255
-0.24
-0.235
-0.24
-0.24
-0.26
-0.26
-0.25
-0.235
-0.235
-0.24
-0.26
-0.255
-0.245
-0.235
-0.23
-0.245
-0.25
-0.245
-0.225
-0.215
-0.215
-0.225
-0.225
-0.24
-0.24
-0.245
-0.25
-0.23
-0.235
-0.225
-0.215
-0.225
-0.23
-0.24
-0.24
-0.225
-0.205
-0.19
-0.175
-0.16
-0.135
-0.105
-0.085
-0.095
-0.12
-0.13
-0.115
-0.08
-0.055
-0.04
-0.035
-0.045
-0.035
-0.02
-0.005
0.0
-0.015
-0.025
-0.055
-0.065
-0.08
-0.125
-0.165
-0.22
-0.27
-0.295
-0.295
-0.295
-0.29
-0.29
-0.3
-0.31
-0.295
-0.285
-0.28
-0.285
-0.31
-0.29
-0.295
-0.285
-0.275
-0.265
-0.275
-0.265
-0.27
-0.27
-0.26
-0.25
-0.265
-0.26
-0.285
-0.285
-0.28
-0.25
-0.195
-0.065
0.11
0.295
0.515
0.725
0.92
1.095
1.25
1.32
1.29
1.19
1.045
0.92
0.815
0.67
0.5
0.355
0.26
0.19
0.095
0.0
-0.105
-0.19
-0.265
-0.345
-0.375
-0.405
-0.415
-0.44
-0.475
-0.48
-0.465
-0.445
-0.46
-0.48
-0.495
-0.49
-0.45
-0.43
-0.43
-0.445
-0.46
-0.45
-0.44
-0.425
-0.425
-0.44
-0.44
-0.44
-0.415
-0.4
-0.41
-0.43
-0.455
-0.45
-0.425
-0.42
-0.43
-0.44
-0.45
-0.44
-0.43
-0.435
-0.43
-0.435
-0.45
-0.44
-0.425
-0.41
-0.405
-0.415
-0.43
-0.43
-0.42
-0.41
-0.415
-0.4
-0.405
-0.38
-0.37
-0.36
-0.35
-0.34
-0.33
-0.31
-0.29
-0.265
-0.27
-0.25
-0.24
-0.24
-0.255
-0.23
-0.2
-0.18
-0.16
-0.12
-0.13
-0.11
-0.12
-0.135
-0.135
-0.12
-0.11
-0.1
-0.105
-0.13
-0.125
-0.13
-0.135
-0.135
-0.135
-0.155
-0.155
-0.16
-0.18
-0.175
-0.17
-0.17
-0.19
-0.2
-0.2
-0.195
-0.2
-0.185
-0.205
-0.205
-0.2
-0.2
-0.195
-0.19
-0.195
-0.185
-0.19
-0.195
-0.215
-0.22
-0.215
-0.22
-0.215
-0.195
-0.205
-0.21
-0.235
-0.225
-0.215
-0.215
-0.205
-0.225
-0.23
-0.24
-0.225
-0.21
-0.205
-0.22
-0.23
-0.23
-0.21
-0.195
-0.215
-0.22
-0.225
-0.215
-0.195
-0.175
-0.18
-0.22
-0.22
-0.23
-0.215
-0.2
-0.195
-0.21
-0.215
-0.21
-0.195
-0.19
-0.2
-0.205
-0.21
-0.21
-0.185
-0.175
-0.17
-0.18
-0.195
-0.18
-0.175
-0.16
-0.135
-0.13
-0.11
-0.09
-0.075
-0.075
-0.07
-0.07
-0.045
-0.045
-0.035
-0.02
-0.005
0.005
0.005
0.005
0.0
-0.035
-0.035
-0.035
-0.055
-0.075
-0.1
-0.14
-0.205
-0.26
-0.3
-0.3
-0.31
-0.295
-0.3
-0.32
-0.32
-0.305
-0.305
-0.29
-0.285
-0.3
-0.31
-0.3
-0.285
-0.265
-0.29
-0.305
-0.295
-0.275
-0.25
-0.25
-0.28
-0.295
-0.315
-0.315
-0.315
-0.315
-0.3
-0.275
-0.195
-0.08
0.065
0.23
0.41
0.625
0.82
0.995
1.135
1.235
1.25
1.18
1.04
0.905
0.78
0.645
0.465
0.33
0.25
0.21
0.15
0.04
-0.075
-0.155
-0.22
-0.265
-0.31
-0.365
-0.405
-0.45
-0.47
-0.485
-0.465
-0.475
-0.48
-0.48
-0.49
-0.49
-0.47
-0.46
-0.47
-0.49
-0.475
-0.465
-0.46
-0.445
-0.445
-0.455
-0.47
-0.475
-0.47
-0.47
-0.465
-0.47
-0.475
-0.45
-0.44
-0.43
-0.43
-0.455
-0.465
-0.465
-0.465
-0.45
-0.425
-0.43
-0.45
-0.47
-0.485
-0.47
-0.465
-0.46
-0.47
-0.455
-0.455
-0.445
-0.435
-0.45
-0.45
-0.435
-0.41
-0.4
-0.4
-0.405
-0.415
-0.4
-0.39
-0.36
-0.345
-0.33
-0.325
-0.3
-0.28
-0.255
-0.25
-0.215
-0.21
-0.205
-0.185
-0.175
-0.175
-0.155
-0.155
-0.16
-0.14
-0.125
-0.1
-0.1
-0.1
-0.105
-0.115
-0.105
-0.11
-0.13
-0.135
-0.14
-0.145
-0.14
-0.15
-0.175
-0.18
-0.165
-0.165
-0.18
-0.19
-0.2
-0.22
-0.21
-0.2
-0.2
-0.215
-0.23
-0.235
-0.225
-0.225
-0.225
-0.235
-0.23
-0.25
-0.245
-0.225
-0.215
-0.22
-0.22
-0.23
-0.235
-0.22
-0.215
-0.22
-0.22
-0.23
-0.23
-0.225
-0.22
-0.215
-0.215
-0.22
-0.22
-0.225
-0.215
-0.205
-0.215
-0.22
-0.215
-0.21
-0.205
-0.2
-0.215
-0.23
-0.225
-0.195
-0.195
-0.21
-0.22
-0.23
-0.22
-0.205
-0.19
-0.2
-0.23
-0.24
-0.225
-0.215
-0.185
-0.195
-0.205
-0.23
-0.225
-0.215
-0.195
-0.19
-0.2
-0.205
-0.195
-0.18
-0.15
-0.135
-0.145
-0.145
-0.125
-0.105
-0.1
-0.105
-0.105
-0.115
-0.085
-0.07
-0.04
-0.035
-0.02
-0.005
0.005
0.02
0.015
0.01
-0.015
-0.03
-0.025
-0.01
-0.03
-0.065
-0.1
-0.16
-0.185
-0.21
-0.23
-0.245
-0.265
-0.285
-0.285
-0.28
-0.265
-0.275
-0.275
-0.265
-0.265
-0.255
-0.255
-0.25
-0.255
-0.26
-0.245
-0.235
-0.25
-0.265
-0.265
