Lead II
-0.65
-0.66
-0.655
-0.665
-0.645
-0.65
-0.66
-0.655
-0.66
-0.65
-0.66
-0.655
-0.665
-0.67
-0.67
-0.66
-0.665
-0.665
-0.65
-0.645
-0.645
-0.65
-0.66
-0.67
-0.665
-0.68
-0.67
-0.665
-0.665
-0.65
-0.65
-0.655
-0.65
-0.655
-0.665
-0.665
-0.655
-0.675
-0.67
-0.665
-0.67
-0.665
-0.64
-0.645
-0.645
-0.64
-0.64
-0.655
-0.665
-0.67
-0.665
-0.645
-0.645
-0.62
-0.595
-0.59
-0.575
-0.565
-0.56
-0.555
-0.56
-0.555
-0.55
-0.55
-0.525
-0.51
-0.51
-0.5
-0.52
-0.535
-0.56
-0.585
-0.595
-0.605
-0.62
-0.6
-0.59
-0.58
-0.595
-0.6
-0.6
-0.615
-0.64
-0.66
-0.665
-0.675
-0.665
-0.655
-0.645
-0.64
-0.625
-0.615
-0.605
-0.57
-0.545
-0.475
-0.37
-0.175
0.105
0.475
0.89
1.265
1.525
1.615
1.5
1.135
0.495
-0.145
-0.785
-1.425
-1.82
-1.65
-1.355
-1.065
-0.88
-0.77
-0.755
-0.775
-0.79
-0.79
-0.77
-0.75
-0.74
-0.74
-0.73
-0.745
-0.75
-0.745
-0.735
-0.735
-0.735
-0.73
-0.72
-0.73
-0.73
-0.715
-0.705
-0.695
-0.69
-0.675
-0.69
-0.695
-0.7
-0.71
-0.715
-0.69
-0.685
-0.67
-0.655
-0.645
-0.645
-0.635
-0.645
-0.64
-0.635
-0.645
-0.64
-0.635
-0.625
-0.615
-0.595
-0.59
-0.57
-0.565
-0.565
-0.565
-0.565
-0.565
-0.555
-0.545
-0.555
-0.555
-0.535
-0.515
-0.52
-0.5
-0.495
-0.505
-0.5
-0.505
-0.495
-0.495
-0.485
-0.485
-0.475
-0.46
-0.435
-0.445
-0.44
-0.435
-0.445
-0.46
-0.46
-0.46
-0.46
-0.455
-0.445
-0.445
-0.435
-0.425
-0.415
-0.425
-0.435
-0.43
-0.44
-0.435
-0.415
-0.415
-0.395
-0.38
-0.365
-0.36
-0.355
-0.345
-0.35
-0.345
-0.355
-0.35
-0.37
-0.375
-0.39
-0.4
-0.41
-0.415
-0.44
-0.455
-0.48
-0.495
-0.52
-0.55
-0.56
-0.57
-0.58
-0.575
-0.58
-0.59
-0.595
-0.615
-0.63
-0.645
-0.66
-0.675
-0.67
-0.67
-0.655
-0.66
-0.65
-0.655
-0.665
-0.655
-0.645
-0.655
-0.655
-0.65
-0.645
-0.65
-0.64
-0.63
-0.615
-0.605
-0.6
-0.6
-0.605
-0.605
-0.605
-0.61
-0.595
-0.59
-0.575
-0.565
-0.56
-0.555
-0.56
-0.545
-0.56
-0.555
-0.57
-0.565
-0.57
-0.565
-0.555
-0.545
-0.54
-0.56
-0.55
-0.54
-0.56
-0.555
-0.585
-0.58
-0.585
-0.58
-0.575
-0.575
-0.575
-0.57
-0.57
-0.58
-0.59
-0.605
-0.62
-0.62
-0.615
-0.625
-0.61
-0.615
-0.62
-0.615
-0.62
-0.63
-0.635
-0.64
-0.665
-0.67
-0.67
-0.665
-0.655
-0.655
-0.65
-0.655
-0.655
-0.655
-0.68
-0.685
-0.7
-0.685
-0.68
-0.675
-0.68
-0.67
-0.68
-0.675
-0.67
-0.68
-0.69
-0.69
-0.695
-0.69
-0.7
-0.69
-0.685
-0.68
-0.67
-0.675
-0.665
-0.67
-0.665
-0.685
-0.69
-0.695
-0.69
-0.705
-0.685
-0.68
-0.67
-0.66
-0.67
-0.68
-0.685
-0.685
-0.705
-0.705
-0.695
-0.7
-0.695
-0.69
-0.695
-0.7
-0.7
-0.68
-0.685
-0.695
-0.695
-0.7
-0.7
-0.695
-0.685
-0.68
-0.68
-0.675
-0.675
-0.67
-0.68
-0.695
-0.715
-0.695
-0.69
-0.685
-0.675
-0.675
-0.67
-0.67
-0.67
-0.665
-0.675
-0.675
-0.68
-0.69
-0.675
-0.675
-0.675
-0.655
-0.655
-0.64
-0.625
-0.615
-0.625
-0.62
-0.615
-0.605
-0.6
-0.595
-0.59
-0.57
-0.545
-0.54
-0.54
-0.54
-0.54
-0.555
-0.58
-0.605
-0.61
-0.625
-0.615
-0.61
-0.61
-0.605
-0.605
-0.6
-0.615
-0.62
-0.64
-0.67
-0.685
-0.68
-0.705
-0.705
-0.69
-0.67
-0.66
-0.655
-0.645
-0.645
-0.66
-0.645
-0.64
-0.625
-0.605
-0.57
-0.515
-0.415
-0.24
0.015
0.325
0.73
1.1
1.41
1.55
1.5
1.26
0.755
0.115
-0.525
-1.165
-1.67
-1.67
-1.47
-1.205
-0.99
-0.855
-0.81
-0.815
-0.82
-0.83
-0.805
-0.77
-0.74
-0.735
-0.725
-0.735
-0.775
-0.785
-0.78
-0.785
-0.79
-0.76
-0.76
-0.745
-0.745
-0.75
-0.75
-0.75
-0.75
-0.74
-0.72
-0.71
-0.69
-0.685
-0.685
-0.685
-0.685
-0.68
-0.695
-0.69
-0.69
-0.695
-0.675
-0.66
-0.67
-0.65
-0.635
-0.625
-0.615
-0.625
-0.615
-0.615
-0.62
-0.62
-0.62
-0.6
-0.59
-0.585
-0.565
-0.575
-0.565
-0.57
-0.575
-0.57
-0.57
-0.55
-0.545
-0.535
-0.515
-0.51
-0.505
-0.495
-0.505
-0.5
-0.505
-0.51
-0.495
-0.475
-0.48
-0.47
-0.465
-0.44
-0.435
-0.435
-0.43
-0.45
-0.445
-0.455
-0.45
-0.46
-0.445
-0.44
-0.425
-0.43
-0.42
-0.425
-0.42
-0.425
-0.42
-0.415
-0.4
-0.385
-0.375
-0.355
-0.345
-0.34
-0.33
-0.325
-0.32
-0.335
-0.355
-0.385
-0.405
-0.42
-0.44
-0.43
-0.445
-0.45
-0.47
-0.485
-0.505
-0.54
-0.565
-0.585
-0.585
-0.585
-0.6
-0.6
-0.61
-0.605
-0.6
-0.6
-0.615
-0.63
-0.63
-0.645
-0.645
-0.65
-0.64
-0.635
-0.63
-0.615
-0.615
-0.625
-0.63
-0.62
-0.615
-0.615
-0.61
-0.61
-0.595
-0.585
-0.58
-0.57
-0.56
-0.56
-0.56
-0.555
-0.55
-0.545
-0.545
-0.55
-0.54
-0.525
-0.53
-0.515
-0.505
-0.51
-0.505
-0.515
-0.53
-0.53
-0.53
-0.535
-0.535
-0.52
-0.515
-0.52
-0.52
-0.52
-0.53
-0.53
-0.555
-0.555
-0.56
-0.56
-0.57
-0.56
-0.575
-0.565
-0.565
-0.57
-0.57
-0.58
-0.59
-0.605
-0.615
-0.61
-0.615
-0.605
-0.595
-0.6
-0.595
-0.61
-0.62
-0.615
-0.625
-0.63
-0.64
-0.645
-0.645
-0.635
-0.63
-0.625
-0.63
-0.63
-0.625
-0.625
-0.63
-0.64
-0.66
-0.655
-0.665
-0.665
-0.655
-0.645
-0.645
-0.635
-0.65
-0.655
-0.65
-0.655
-0.65
-0.645
-0.65
-0.645
-0.64
-0.64
-0.635
-0.635
-0.63
-0.65
-0.655
-0.655
-0.66
-0.665
-0.655
-0.65
-0.64
-0.635
-0.625
-0.63
-0.63
-0.64
-0.655
-0.655
-0.665
-0.665
-0.66
-0.65
-0.665
-0.635
-0.62
-0.645
-0.635
-0.66
-0.65
-0.645
-0.66
-0.655
-0.65
-0.645
-0.645
-0.64
-0.63
-0.63
-0.64
-0.635
-0.655
-0.66
-0.66
-0.655
-0.665
-0.65
-0.645
-0.635
-0.64
-0.65
-0.62
-0.625
-0.62
-0.61
-0.61
-0.6
-0.595
-0.58
-0.56
-0.54
-0.53
-0.525
-0.525
-0.53
-0.525
-0.525
-0.54
-0.55
-0.585
-0.585
-0.585
-0.58
-0.585
-0.585
-0.575
-0.575
-0.58
-0.58
-0.59
-0.605
-0.62
-0.635
-0.645
-0.645
-0.655
-0.64
-0.64
-0.645
-0.64
-0.635
-0.635
-0.635
-0.62
-0.6
-0.585
-0.54
-0.495
-0.435
-0.31
-0.14
0.11
0.435
0.8
1.17
1.45
1.6
1.575
1.34
0.83
0.19
-0.45
-1.09
-1.73
-1.75
-1.5
-1.19
-0.95
-0.8
-0.745
-0.735
-0.745
-0.745
-0.74
-0.705
-0.695
-0.705
-0.71
-0.73
-0.73
-0.735
-0.72
-0.705
-0.695
-0.69
-0.695
-0.695
-0.69
-0.695
-0.69
-0.695
-0.67
-0.655
-0.65
-0.645
-0.635
-0.625
-0.62
-0.615
-0.625
-0.61
-0.61
-0.62
-0.605
-0.61
-0.585
-0.575
-0.575
-0.58
-0.565
-0.575
-0.575
-0.565
-0.56
-0.56
-0.56
-0.545
-0.54
-0.525
-0.505
-0.49
-0.485
-0.48
-0.49
-0.495
-0.5
-0.495
-0.485
-0.49
-0.47
-0.465
-0.45
-0.465
-0.45
-0.445
-0.445
-0.45
-0.46
-0.47
-0.45
-0.455
-0.45
-0.45
-0.445
-0.45
-0.455
-0.445
-0.45
-0.47
-0.475
-0.47
-0.47
-0.47
-0.445
-0.425
-0.405
-0.39
-0.375
-0.375
-0.37
-0.36
-0.37
-0.37
-0.38
-0.39
-0.41
-0.415
-0.425
-0.435
-0.455
-0.47
-0.495
-0.51
-0.525
-0.54
-0.555
-0.57
-0.57
-0.575
-0.575
-0.59
-0.6
-0.615
-0.625
-0.625
-0.64
-0.63
-0.625
-0.62
-0.615
-0.61
-0.615
-0.625
-0.615
-0.605
-0.6
-0.605
-0.61
-0.605
-0.6
-0.59
-0.585
-0.58
-0.555
-0.56
-0.545
-0.555
-0.555
-0.55
-0.545
-0.54
-0.53
-0.53
-0.515
-0.5
-0.505
-0.495
-0.51
-0.49
-0.485
-0.5
-0.495
-0.495
-0.495
-0.51
-0.5
-0.49
-0.49
-0.49
-0.49
-0.51
-0.52
-0.525
-0.53
-0.525
-0.525
-0.515
-0.515
-0.51
-0.52
-0.53
-0.545
-0.555
-0.555
-0.57
-0.575
-0.565
-0.58
-0.585
-0.58
-0.59
-0.565
-0.57
-0.57
-0.59
-0.595
-0.6
-0.62
-0.625
-0.62
-0.615
-0.615
-0.595
-0.58
-0.59
-0.59
-0.61
-0.61
-0.62
-0.635
-0.655
-0.655
-0.63
-0.625
-0.625
-0.61
-0.615
-0.61
-0.625
-0.625
-0.645
-0.65
-0.665
-0.655
-0.655
-0.645
-0.635
-0.625
-0.63
-0.635
-0.645
-0.63
-0.64
-0.65
-0.655
-0.645
-0.64
-0.635
-0.635
-0.63
-0.64
-0.635
-0.635
-0.645
-0.655
-0.655
-0.655
-0.645
-0.655
-0.65
-0.65
-0.65
-0.65
-0.66
-0.645
-0.65
-0.66
-0.655
-0.665
-0.655
-0.655
-0.65
-0.64
-0.625
-0.635
-0.635
-0.64
-0.65
-0.65
-0.675
-0.68
-0.655
-0.66
-0.645
-0.615
-0.625
-0.62
-0.63
-0.635
-0.64
-0.665
-0.665
-0.655
-0.645
-0.63
-0.63
-0.625
-0.645
-0.625
-0.605
-0.61
-0.59
-0.585
-0.595
-0.585
-0.565
-0.55
-0.54
-0.54
-0.51
-0.51
-0.515
-0.52
-0.545
-0.565
-0.585
-0.595
-0.59
-0.605
-0.6
-0.595
-0.575
-0.58
-0.585
-0.595
-0.625
-0.63
-0.655
-0.655
-0.66
-0.645
-0.635
-0.615
-0.605
-0.59
-0.575
-0.56
-0.535
-0.485
-0.395
-0.225
0.02
0.345
0.75
1.13
1.435
1.56
1.465
1.095
0.455
-0.185
-0.825
-1.465
-1.845
-1.67
-1.365
-1.065
-0.87
-0.78
-0.775
-0.785
-0.79
-0.785
-0.76
-0.73
-0.69
-0.67
-0.67
-0.675
-0.69
-0.705
-0.7
-0.71
-0.71
-0.71
-0.715
-0.7
-0.7
-0.685
-0.68
-0.675
-0.67
-0.66
-0.65
-0.645
-0.64
-0.64
-0.65
-0.645
-0.635
-0.625
-0.615
-0.605
-0.6
-0.6
-0.6
-0.595
-0.61
-0.605
-0.59
-0.585
-0.575
-0.565
-0.55
-0.545
-0.53
-0.545
-0.53
-0.52
-0.53
-0.54
-0.545
-0.53
-0.525
-0.51
-0.495
-0.495
-0.48
-0.485
-0.485
-0.48
-0.48
-0.47
-0.475
-0.465
-0.465
-0.465
-0.465
-0.455
-0.445
-0.455
-0.445
-0.445
-0.445
-0.445
-0.46
-0.465
-0.475
-0.475
-0.47
-0.45
-0.45
-0.455
-0.46
-0.455
-0.465
-0.47
-0.465
-0.47
-0.45
-0.45
-0.435
-0.415
-0.39
-0.385
-0.385
-0.38
-0.38
-0.375
-0.39
-0.4
-0.415
-0.425
-0.43
-0.445
-0.465
-0.47
-0.48
-0.5
-0.525
-0.545
-0.56
-0.565
-0.58
-0.575
-0.575
-0.59
-0.59
-0.615
-0.605
-0.635
-0.645
-0.645
-0.66
-0.655
-0.655
-0.64
-0.625
-0.635
-0.62
-0.615
-0.615
-0.61
-0.62
-0.61
-0.62
-0.625
-0.625
-0.605
-0.595
-0.58
-0.575
-0.565
-0.565
-0.55
-0.57
-0.56
-0.565
-0.555
-0.54
-0.525
-0.52
-0.515
-0.5
-0.5
-0.505
-0.5
-0.505
-0.52
-0.525
-0.52
-0.52
-0.515
-0.5
-0.49
-0.485
-0.5
-0.495
-0.495
-0.5
-0.525
-0.52
-0.52
-0.53
-0.53
-0.53
-0.525
-0.525
-0.53
-0.535
-0.545
-0.565
-0.57
-0.57
-0.58
-0.585
-0.595
-0.59
-0.595
-0.585
-0.595
-0.595
-0.595
-0.61
-0.61
-0.63
-0.62
-0.63
-0.61
-0.615
-0.605
-0.59
-0.605
-0.615
-0.62
-0.635
-0.645
-0.66
-0.65
-0.65
-0.645
-0.635
-0.64
-0.625
-0.625
-0.62
-0.63
-0.63
-0.65
-0.655
-0.65
-0.64
-0.65
-0.65
-0.645
-0.625
-0.635
-0.635
-0.66
-0.665
-0.66
-0.665
-0.665
-0.66
-0.67
-0.655
-0.645
-0.64
-0.65
-0.645
-0.645
-0.66
-0.66
-0.655
-0.665
-0.665
-0.66
-0.665
-0.66
-0.655
-0.645
-0.645
-0.66
-0.655
-0.665
-0.67
-0.675
-0.675
-0.685
-0.66
-0.65
-0.64
-0.66
-0.645
-0.645
-0.665
-0.675
-0.675
-0.68
-0.69
-0.68
-0.665
-0.645
-0.645
-0.645
-0.635
-0.635
-0.63
-0.625
-0.615
-0.615
-0.595
-0.575
-0.565
-0.565
-0.55
-0.545
-0.545
-0.535
-0.54
-0.525
-0.515
-0.545
-0.555
-0.575
-0.58
-0.58
-0.58
-0.575
-0.575
-0.58
-0.6
-0.615
-0.63
-0.65
-0.65
-0.655
-0.64
-0.64
-0.64
-0.64
-0.64
-0.64
-0.64
-0.63
-0.62
-0.6
-0.59
-0.56
-0.51
-0.41
-0.26
-0.025
0.255
0.615
0.995
1.315
1.525
1.57
1.42
1.075
0.46
-0.18
-0.82
-1.46
-1.795
-1.68
-1.405
-1.125
-0.935
-0.835
-0.795
-0.81
-0.815
-0.8
-0.765
-0.735
-0.705
-0.705
-0.705
-0.725
-0.745
-0.755
-0.775
-0.76
-0.75
-0.73
-0.715
-0.71
-0.715
-0.71
-0.715
-0.7
-0.715
-0.705
-0.7
-0.69
-0.68
-0.675
-0.68
-0.655
-0.66
-0.655
-0.655
-0.665
-0.66
-0.65
-0.65
-0.63
-0.63
-0.615
-0.61
-0.605
-0.6
-0.61
-0.6
-0.61
-0.6
-0.6
-0.595
-0.585
-0.565
-0.56
-0.54
-0.53
-0.535
-0.525
-0.535
-0.53
-0.535
-0.54
-0.535
-0.525
-0.495
-0.48
-0.48
-0.48
-0.475
-0.47
-0.465
-0.47
-0.47
-0.465
-0.47
-0.465
-0.45
-0.45
-0.44
-0.445
-0.435
-0.45
-0.45
-0.455
-0.46
-0.47
-0.455
-0.45
-0.43
-0.43
-0.415
-0.41
-0.41
-0.4
-0.405
-0.4
-0.39
-0.38
-0.36
-0.365
-0.35
-0.345
-0.33
-0.325
-0.33
-0.345
-0.37
-0.375
-0.39
-0.425
-0.44
-0.445
-0.46
-0.475
-0.465
-0.485
-0.505
-0.525
-0.555
-0.575
-0.585
-0.595
-0.6
-0.605
-0.605
-0.615
-0.61
-0.62
-0.615
-0.63
-0.635
-0.64
-0.65
-0.65
-0.65
-0.64
-0.63
-0.63
-0.615
-0.6
-0.595
-0.595
-0.605
-0.605
-0.605
-0.61
-0.6
-0.59
-0.575
-0.57
-0.56
-0.56
-0.56
-0.565
-0.58
-0.57
-0.565
-0.565
-0.555
-0.55
-0.535
-0.54
-0.53
-0.525
-0.525
-0.54
-0.535
-0.535
-0.555
-0.54
-0.55
-0.545
-0.545
-0.53
-0.525
-0.52
-0.52
-0.53
-0.545
-0.555
-0.57
-0.575
-0.575
-0.575
-0.575
-0.565
-0.555
-0.555
-0.56
-0.58
-0.58
-0.6
-0.595
-0.605
-0.61
-0.62
-0.61
-0.6
-0.605
-0.605
-0.61
-0.62
-0.625
-0.625
-0.63
-0.64
-0.645
-0.635
-0.635
-0.64
-0.635
-0.635
-0.645
-0.655
-0.655
-0.68
-0.65
-0.65
-0.65
-0.65
-0.64
-0.66
-0.645
-0.635
-0.64
-0.65
-0.655
-0.66
-0.67
-0.675
-0.665
-0.655
-0.64
-0.635
-0.625
-0.635
-0.635
-0.635
-0.64
-0.665
-0.665
-0.665
-0.655
-0.665
-0.655
-0.65
-0.65
-0.65
-0.655
-0.655
-0.655
-0.66
-0.655
-0.66
-0.67
-0.665
-0.66
-0.65
-0.635
-0.63
-0.63
-0.63
-0.65
-0.655
-0.66
-0.67
-0.665
-0.675
-0.675
-0.65
-0.635
-0.64
-0.65
-0.64
-0.65
-0.65
-0.65
-0.65
-0.66
-0.66
-0.655
-0.65
-0.64
-0.635
-0.625
-0.615
-0.625
-0.615
-0.615
-0.61
-0.595
-0.59
-0.575
-0.565
-0.555
-0.545
-0.53
-0.535
-0.535
-0.525
-0.53
-0.555
-0.56
-0.585
-0.595
-0.615
-0.605
-0.6
-0.6
-0.605
-0.59
-0.595
-0.61
-0.625
-0.64
-0.645
-0.65
-0.655
-0.645
-0.635
-0.635
-0.63
-0.625
-0.635
-0.625
-0.61
-0.605
-0.57
-0.565
-0.53
-0.455
-0.35
-0.16
0.1
0.435
0.825
1.19
1.465
1.595
1.52
1.21
0.605
-0.035
-0.675
-1.315
-1.675
-1.545
-1.28
-1.02
-0.85
-0.76
-0.735
-0.73
-0.74
-0.73
-0.71
-0.695
-0.675
-0.69
-0.695
-0.71
-0.715
-0.72
-0.72
-0.725
-0.715
-0.7
-0.705
-0.71
-0.71
-0.715
-0.72
-0.71
-0.7
-0.69
-0.69
-0.675
-0.665
-0.65
-0.64
-0.65
-0.645
-0.65
-0.645
-0.65
-0.65
-0.635
-0.64
-0.635
-0.61
-0.59
-0.59
-0.575
-0.58
-0.595
-0.59
-0.595
-0.59
-0.59
-0.58
-0.565
-0.56
-0.55
-0.535
-0.535
-0.525
-0.545
-0.525
-0.53
-0.52
-0.51
-0.505
-0.49
-0.48
-0.48
-0.465
-0.465
-0.46
-0.46
-0.465
-0.47
-0.465
-0.46
-0.465
-0.445
-0.43
-0.425
-0.425
-0.435
-0.43
-0.445
-0.44
-0.445
-0.435
-0.425
-0.43
-0.425
-0.425
-0.41
-0.4
-0.4
-0.4
-0.39
-0.395
-0.395
-0.385
-0.375
-0.355
-0.335
-0.335
-0.31
-0.295
-0.295
-0.305
-0.32
-0.34
-0.36
-0.38
-0.39
-0.4
-0.395
-0.405
-0.415
-0.42
-0.465
-0.49
-0.495
-0.52
-0.545
-0.56
-0.575
-0.585
-0.575
-0.585
-0.575
-0.58
-0.585
-0.59
-0.595
-0.605
-0.605
-0.61
-0.615
-0.615
-0.59
-0.585
-0.585
-0.57
-0.575
-0.58
-0.585
-0.575
-0.58
-0.575
-0.57
-0.565
-0.55
-0.53
-0.525
-0.51
-0.52
-0.515
-0.52
-0.52
-0.52
-0.515
-0.505
-0.505
-0.5
-0.495
-0.49
-0.475
-0.49
-0.49
-0.485
-0.495
-0.495
-0.505
-0.5
-0.51
-0.505
-0.5
-0.5
-0.505
-0.515
-0.51
-0.515
-0.525
-0.53
-0.55
-0.55
-0.54
-0.535
-0.535
-0.525
-0.53
-0.545
-0.55
-0.555
-0.565
-0.565
-0.57
-0.56
-0.575
-0.575
-0.57
-0.58
-0.57
-0.57
-0.575
-0.585
-0.6
-0.605
-0.62
-0.605
-0.6
-0.6
-0.595
-0.595
-0.58
-0.585
-0.575
-0.595
-0.595
-0.61
-0.62
-0.62
-0.615
-0.6
-0.6
-0.6
-0.605
-0.605
-0.6
-0.61
-0.615
-0.62
-0.625
-0.63
-0.625
-0.62
-0.605
-0.6
-0.6
-0.595
-0.6
-0.605
-0.615
-0.625
-0.625
-0.64
-0.645
-0.635
-0.61
-0.62
-0.61
-0.605
-0.61
-0.605
-0.625
-0.625
-0.625
-0.625
-0.62
-0.625
-0.62
-0.62
-0.615
-0.605
-0.61
-0.61
-0.61
-0.61
-0.61
-0.615
-0.615
-0.6
-0.6
-0.605
-0.605
-0.6
-0.605
-0.61
-0.615
-0.615
-0.615
-0.605
-0.595
-0.605
-0.605
-0.59
-0.595
-0.585
-0.575
-0.585
-0.58
-0.58
-0.57
-0.555
-0.55
-0.53
-0.51
-0.495
-0.49
-0.485
-0.485
-0.485
-0.475
-0.475
-0.48
-0.49
-0.51
-0.525
-0.535
-0.535
-0.54
-0.54
-0.53
-0.535
-0.535
-0.55
-0.57
-0.59
-0.6
-0.605
-0.605
-0.6
-0.59
-0.585
-0.585
-0.585
-0.575
-0.58
-0.55
-0.52
-0.485
-0.41
-0.31
-0.15
0.095
0.425
0.8
1.19
1.475
1.61
1.56
1.27
0.665
0.025
-0.615
-1.255
-1.75
-1.63
-1.355
-1.08
-0.865
-0.76
-0.73
-0.735
-0.73
-0.72
-0.68
-0.655
-0.65
-0.635
-0.65
-0.66
-0.665
-0.665
-0.67
-0.67
-0.66
-0.66
-0.645
-0.64
-0.62
-0.635
-0.62
-0.63
-0.63
-0.625
-0.635
-0.625
-0.605
-0.59
-0.575
-0.565
-0.565
-0.575
-0.575
-0.575
-0.58
-0.58
-0.575
-0.56
-0.55
-0.54
-0.53
-0.53
-0.515
-0.51
-0.515
-0.515
-0.515
-0.52
-0.515
-0.505
-0.505
-0.49
-0.475
-0.465
-0.455
-0.44
-0.445
-0.455
-0.445
-0.45
-0.445
-0.435
-0.425
-0.405
-0.405
-0.395
-0.4
-0.4
-0.39
-0.405
-0.4
-0.405
-0.415
-0.41
-0.425
-0.415
-0.405
-0.4
-0.395
-0.4
-0.405
-0.42
-0.415
-0.43
-0.435
-0.44
-0.435
-0.42
-0.405
-0.365
-0.345
-0.34
-0.34
-0.325
-0.32
-0.335
-0.345
-0.355
-0.365
-0.37
-0.37
-0.39
-0.385
-0.4
-0.41
-0.43
-0.465
-0.475
-0.5
-0.515
-0.515
-0.53
-0.53
-0.53
-0.525
-0.525
-0.535
-0.55
-0.56
-0.565
-0.565
-0.575
-0.585
-0.585
-0.555
-0.535
-0.545
-0.535
-0.54
-0.54
-0.545
-0.545
-0.555
-0.555
-0.545
-0.515
-0.5
-0.495
-0.485
-0.48
-0.48
-0.475
-0.47
-0.47
-0.47
-0.465
-0.465
-0.455
-0.455
-0.445
-0.425
-0.43
-0.425
-0.42
-0.43
-0.44
-0.45
-0.455
-0.46
-0.46
-0.45
-0.43
-0.43
-0.44
-0.445
-0.45
-0.455
-0.465
-0.485
-0.485
-0.48
-0.475
-0.49
-0.49
-0.485
-0.49
-0.49
-0.5
-0.51
-0.52
-0.545
-0.535
-0.545
-0.54
-0.53
-0.535
-0.525
-0.54
-0.555
-0.555
-0.56
-0.565
-0.57
-0.565
-0.56
-0.56
-0.565
-0.57
-0.565
-0.575
-0.56
-0.56
-0.57
-0.585
-0.585
-0.58
-0.575
-0.57
-0.57
-0.56
-0.565
-0.565
-0.575
-0.585
-0.6
-0.595
-0.605
-0.595
-0.6
-0.585
-0.58
-0.575
-0.57
-0.575
-0.58
-0.59
-0.59
-0.605
-0.625
-0.605
-0.61
-0.58
-0.58
-0.58
-0.575
-0.585
-0.595
-0.6
-0.61
-0.61
-0.61
-0.6
-0.6
-0.585
-0.595
-0.585
-0.58
-0.585
-0.585
-0.595
-0.61
-0.625
-0.635
-0.625
-0.625
-0.61
-0.595
-0.585
-0.575
-0.595
-0.58
-0.59
-0.595
-0.6
-0.605
-0.6
-0.585
-0.59
-0.585
-0.565
-0.545
-0.55
-0.535
-0.53
-0.52
-0.52
-0.525
-0.52
-0.515
-0.51
-0.5
-0.49
-0.48
-0.46
-0.455
-0.45
-0.48
-0.505
-0.52
-0.535
-0.54
-0.535
-0.525
-0.525
-0.52
-0.52
-0.54
-0.55
-0.565
-0.58
-0.59
-0.605
-0.605
-0.595
-0.59
-0.58
-0.575
-0.565
-0.555
-0.56
-0.545
-0.53
-0.51
-0.46
-0.38
-0.255
-0.02
0.265
0.62
1.01
1.345
1.535
1.535
1.285
0.74
0.1
-0.54
-1.18
-1.745
-1.65
-1.38
-1.095
-0.885
-0.765
-0.72
-0.73
-0.725
-0.72
-0.695
-0.665
-0.64
-0.635
-0.63
-0.65
-0.66
-0.66
-0.665
-0.675
-0.685
-0.67
-0.66
-0.63
-0.625
-0.595
-0.6
-0.595
-0.595
-0.605
-0.605
-0.62
-0.615
-0.6
-0.6
-0.605
-0.595
-0.585
-0.575
-0.57
-0.56
-0.56
-0.56
-0.565
-0.565
-0.57
-0.57
-0.545
-0.55
-0.53
-0.525
-0.52
-0.52
-0.52
-0.505
-0.505
-0.5
-0.495
-0.49
-0.485
-0.47
-0.465
-0.455
-0.45
-0.445
-0.455
-0.445
-0.445
-0.45
-0.445
-0.445
-0.44
-0.425
-0.42
-0.41
-0.395
-0.39
-0.41
-0.415
-0.42
-0.43
-0.445
-0.435
-0.42
-0.42
-0.415
-0.415
-0.41
-0.415
-0.425
-0.44
-0.435
-0.43
-0.44
-0.435
-0.425
-0.415
-0.405
-0.385
-0.38
-0.375
-0.365
-0.37
-0.365
-0.36
-0.355
-0.36
-0.35
-0.35
-0.345
-0.345
-0.36
-0.375
-0.385
-0.41
-0.43
-0.445
-0.46
-0.47
-0.495
-0.495
-0.51
-0.51
-0.525
-0.54
-0.55
-0.565
-0.565
-0.58
-0.59
-0.585
-0.595
-0.605
-0.575
-0.565
-0.565
-0.575
-0.575
-0.58
-0.585
-0.595
-0.59
-0.58
-0.565
-0.545
-0.545
-0.535
-0.525
-0.52
-0.535
-0.53
-0.55
-0.535
-0.525
-0.515
-0.5
-0.49
-0.48
-0.475
-0.47
-0.46
-0.465
-0.47
-0.47
-0.475
-0.465
-0.46
-0.455
-0.455
-0.44
-0.43
-0.43
-0.435
-0.44
-0.45
-0.465
-0.49
-0.475
-0.475
-0.46
-0.455
-0.45
-0.445
-0.46
-0.46
-0.475
-0.48
-0.5
-0.505
-0.495
-0.51
-0.51
-0.505
-0.505
-0.515
-0.515
-0.515
-0.525
-0.535
-0.545
-0.555
-0.555
-0.56
-0.56
-0.55
-0.545
-0.555
-0.55
-0.55
-0.57
-0.565
-0.575
-0.58
-0.57
-0.58
-0.575
-0.565
-0.565
-0.56
-0.57
-0.575
-0.58
-0.585
-0.595
-0.6
-0.595
-0.595
-0.6
-0.6
-0.585
-0.57
-0.575
-0.58
-0.58
-0.585
-0.6
-0.61
-0.61
-0.605
-0.6
-0.6
-0.59
-0.575
-0.595
-0.595
-0.6
-0.605
-0.615
-0.61
-0.61
-0.605
-0.595
-0.595
-0.59
-0.585
-0.59
-0.59
-0.6
-0.615
-0.615
-0.62
-0.63
-0.62
-0.62
-0.61
-0.605
-0.605
-0.61
-0.605
-0.6
-0.605
-0.615
-0.635
-0.635
-0.625
-0.615
-0.61
-0.6
-0.6
-0.595
-0.6
-0.605
-0.61
-0.615
-0.62
-0.61
-0.61
-0.605
-0.59
-0.585
-0.58
-0.58
-0.57
-0.57
-0.565
-0.57
-0.55
-0.55
-0.545
-0.52
-0.51
-0.5
-0.48
-0.465
-0.47
-0.46
-0.485
-0.505
-0.535
-0.54
-0.55
-0.55
-0.545
-0.53
-0.52
-0.53
-0.53
-0.54
-0.56
-0.575
-0.59
-0.6
-0.615
-0.62
-0.615
-0.61
-0.595
-0.61
-0.59
-0.595
-0.58
-0.58
-0.565
-0.55
-0.51
-0.46
-0.345
-0.18
0.07
0.4
0.785
1.16
1.45
1.55
1.44
1.035
0.395
-0.245
-0.885
-1.525
-1.69
-1.49
-1.22
-0.965
-0.805
-0.72
-0.705
-0.725
-0.735
-0.72
-0.7
-0.68
-0.665
-0.665
-0.675
-0.695
-0.695
-0.705
-0.705
-0.715
-0.7
-0.69
-0.685
-0.66
-0.66
-0.655
-0.645
-0.65
-0.66
-0.66
-0.655
-0.665
-0.655
-0.65
-0.625
-0.61
-0.59
-0.605
-0.585
-0.585
-0.585
-0.595
-0.6
-0.59
-0.58
-0.57
-0.565
-0.55
-0.54
-0.545
-0.54
-0.54
-0.55
-0.535
-0.54
-0.535
-0.53
-0.515
-0.495
-0.5
-0.495
-0.475
-0.48
-0.465
-0.47
-0.47
-0.48
-0.48
-0.47
-0.455
-0.435
-0.435
-0.415
-0.43
-0.42
-0.43
-0.435
-0.445
-0.435
-0.44
-0.435
-0.44
-0.425
-0.405
-0.4
-0.41
-0.405
-0.415
-0.405
-0.415
-0.425
-0.42
-0.405
-0.385
-0.36
-0.34
-0.32
-0.335
-0.33
-0.33
-0.32
-0.335
-0.355
-0.36
-0.375
-0.385
-0.42
-0.42
-0.435
-0.425
-0.45
-0.46
-0.47
-0.49
-0.505
-0.525
-0.535
-0.56
-0.565
-0.565
-0.57
-0.575
-0.585
-0.6
-0.595
-0.615
-0.62
-0.625
-0.625
-0.61
-0.6
-0.6
-0.595
-0.595
-0.6
-0.61
-0.605
-0.615
-0.605
-0.605
-0.61
-0.59
-0.59
-0.575
-0.56
-0.555
-0.545
-0.55
-0.555
-0.575
-0.58
-0.56
-0.55
-0.535
-0.53
-0.515
-0.505
-0.5
-0.51
-0.515
-0.53
-0.52
-0.52
-0.53
-0.52
-0.51
-0.52
-0.51
-0.495
-0.505
-0.515
-0.515
-0.53
-0.545
-0.55
-0.555
-0.58
-0.57
-0.555
-0.54
-0.545
-0.555
-0.55
-0.56
-0.565
-0.58
-0.59
-0.59
-0.585
-0.595
-0.585
-0.59
-0.59
-0.61
-0.605
-0.61
-0.615
-0.63
-0.635
-0.63
-0.63
-0.615
-0.61
-0.61
-0.6
-0.605
-0.62
-0.62
-0.625
-0.64
-0.65
-0.655
-0.645
-0.635
-0.625
-0.62
-0.615
-0.625
-0.635
-0.635
-0.65
-0.655
-0.65
-0.66
-0.655
-0.645
-0.65
-0.64
-0.64
-0.64
-0.63
-0.635
-0.645
-0.65
-0.655
-0.66
-0.665
-0.655
-0.655
-0.64
-0.635
-0.64
-0.65
-0.66
-0.655
-0.66
-0.645
-0.645
-0.655
-0.645
-0.64
-0.655
-0.645
-0.635
-0.64
-0.645
-0.655
-0.655
-0.665
-0.665
-0.675
-0.655
-0.655
-0.65
-0.63
-0.64
-0.64
-0.65
-0.66
-0.665
-0.67
-0.66
-0.65
-0.65
-0.655
-0.65
-0.645
-0.645
-0.635
-0.64
-0.63
-0.625
-0.625
-0.62
-0.6
-0.585
-0.575
-0.555
-0.55
-0.54
-0.53
-0.525
-0.525
-0.54
-0.54
-0.56
-0.575
-0.585
-0.6
-0.595
-0.59
-0.585
-0.58
-0.575
-0.585
-0.61
-0.625
-0.635
-0.655
-0.665
-0.665
-0.675
-0.645
-0.625
-0.615
-0.625
-0.615
-0.615
-0.62
-0.595
-0.575
-0.53
-0.46
-0.295
-0.07
0.245
0.64
1.045
1.39
1.59
1.615
1.395
0.91
0.27
-0.37
-1.01
-1.65
-1.67
-1.445
-1.16
-0.935
-0.805
-0.755
-0.75
-0.77
-0.765
-0.745
-0.715
-0.705
-0.7
-0.715
-0.725
-0.735
-0.735
-0.75
-0.755
-0.755
-0.74
-0.725
-0.72
-0.695
-0.69
-0.68
-0.685
-0.695
-0.7
-0.69
-0.69
-0.68
-0.67
-0.655
-0.635
-0.63
-0.63
-0.615
-0.61
-0.615
-0.625
-0.62
-0.62
-0.625
-0.585
-0.58
-0.57
-0.57
-0.56
-0.56
-0.565
-0.56
-0.555
-0.55
-0.545
-0.535
-0.52
-0.515
-0.515
-0.49
-0.485
-0.49
-0.485
-0.485
-0.495
-0.495
-0.48
-0.48
-0.47
-0.46
-0.46
-0.445
-0.445
-0.455
-0.46
-0.455
-0.465
-0.475
-0.46
-0.455
-0.445
-0.435
-0.435
-0.435
-0.435
-0.42
-0.425
-0.425
-0.42
-0.415
-0.4
-0.395
-0.38
-0.365
-0.34
-0.33
-0.315
-0.325
-0.34
-0.35
-0.375
-0.395
-0.415
-0.435
-0.455
-0.45
-0.465
-0.47
-0.49
-0.505
-0.535
-0.55
-0.56
-0.58
-0.585
-0.585
-0.595
-0.595
-0.6
-0.595
-0.59
-0.605
-0.605
-0.63
-0.64
-0.65
-0.66
-0.65
-0.635
-0.61
-0.61
-0.6
-0.605
-0.595
-0.605
-0.605
-0.605
-0.615
-0.605
-0.595
-0.585
-0.58
-0.58
-0.57
-0.555
-0.56
-0.555
-0.555
-0.55
-0.56
-0.545
-0.55
-0.545
-0.53
-0.53
-0.53
-0.51
-0.535
-0.53
-0.54
-0.53
-0.54
-0.54
-0.54
-0.535
-0.54
-0.535
-0.52
-0.53
-0.535
-0.54
-0.55
-0.565
-0.56
-0.555
-0.57
-0.565
-0.57
-0.575
-0.57
-0.58
-0.575
-0.58
-0.585
-0.6
-0.61
-0.615
-0.62
-0.62
-0.62
-0.625
-0.6
-0.605
-0.615
-0.62
-0.625
-0.635
-0.655
-0.655
-0.665
-0.645
-0.635
-0.635
-0.625
-0.63
-0.63
-0.64
-0.635
-0.645
-0.655
-0.665
-0.66
-0.655
-0.65
-0.645
-0.64
-0.64
-0.64
-0.65
-0.67
-0.66
-0.67
-0.675
-0.665
-0.66
-0.655
-0.645
-0.64
-0.65
-0.66
-0.66
-0.665
-0.665
-0.67
-0.68
-0.68
-0.665
-0.67
-0.655
-0.66
-0.66
-0.66
-0.655
-0.675
-0.67
-0.67
-0.675
-0.685
-0.665
-0.665
-0.665
-0.66
-0.65
-0.645
-0.65
-0.655
-0.655
-0.665
-0.67
-0.67
-0.665
-0.65
-0.645
-0.625
-0.63
-0.65
-0.66
-0.65
-0.655
-0.66
-0.65
-0.67
-0.645
-0.635
-0.64
-0.625
-0.615
-0.6
-0.605
-0.61
-0.6
-0.59
-0.585
-0.575
-0.565
-0.56
-0.56
-0.55
-0.515
-0.505
-0.515
-0.51
-0.52
-0.56
-0.575
-0.6
-0.595
-0.605
-0.595
-0.58
-0.565
-0.58
-0.57
-0.585
-0.61
-0.625
-0.65
-0.655
-0.66
-0.65
-0.645
-0.64
-0.63
-0.63
-0.63
-0.615
-0.605
-0.615
-0.585
-0.545
-0.49
-0.4
-0.25
-0.06
0.205
0.525
0.875
1.21
1.445
1.54
1.455
1.175
0.655
0.015
-0.625
-1.265
-1.675
-1.66
-1.455
-1.175
-0.965
-0.845
-0.805
-0.805
-0.82
-0.81
-0.79
-0.745
-0.725
-0.695
-0.69
-0.7
-0.715
-0.74
-0.745
-0.735
-0.73
-0.71
-0.705
-0.68
-0.69
-0.7
-0.695
-0.7
-0.695
-0.7
-0.705
-0.695
-0.685
-0.67
-0.65
-0.635
-0.63
-0.635
-0.63
-0.63
-0.63
-0.635
-0.63
-0.63
-0.615
-0.6
-0.595
-0.585
-0.58
-0.575
-0.565
