Lead II
-0.495
-0.49
-0.48
-0.475
-0.46
-0.445
-0.44
-0.435
-0.45
-0.46
-0.45
-0.455
-0.455
-0.435
-0.44
-0.44
-0.435
-0.425
-0.42
-0.425
-0.43
-0.43
-0.435
-0.445
-0.455
-0.445
-0.435
-0.425
-0.405
-0.4
-0.39
-0.38
-0.395
-0.385
-0.385
-0.38
-0.365
-0.365
-0.35
-0.34
-0.345
-0.35
-0.355
-0.365
-0.385
-0.42
-0.435
-0.46
-0.465
-0.48
-0.49
-0.49
-0.505
-0.515
-0.52
-0.535
-0.54
-0.565
-0.57
-0.58
-0.6
-0.605
-0.605
-0.605
-0.595
-0.58
-0.57
-0.58
-0.575
-0.59
-0.595
-0.61
-0.605
-0.6
-0.61
-0.585
-0.59
-0.575
-0.575
-0.57
-0.565
-0.56
-0.56
-0.575
-0.56
-0.555
-0.55
-0.55
-0.54
-0.52
-0.495
-0.49
-0.5
-0.5
-0.5
-0.52
-0.515
-0.515
-0.505
-0.5
-0.5
-0.49
-0.49
-0.49
-0.5
-0.5
-0.5
-0.515
-0.515
-0.52
-0.525
-0.525
-0.525
-0.525
-0.52
-0.52
-0.52
-0.535
-0.53
-0.55
-0.545
-0.555
-0.56
-0.57
-0.57
-0.565
-0.555
-0.575
-0.59
-0.585
-0.585
-0.595
-0.595
-0.6
-0.6
-0.585
-0.585
-0.585
-0.585
-0.605
-0.61
-0.615
-0.62
-0.64
-0.64
-0.63
-0.645
-0.635
-0.625
-0.615
-0.61
-0.61
-0.62
-0.625
-0.63
-0.65
-0.655
-0.65
-0.635
-0.64
-0.635
-0.625
-0.63
-0.63
-0.625
-0.64
-0.64
-0.645
-0.645
-0.66
-0.66
-0.65
-0.63
-0.625
-0.625
-0.635
-0.635
-0.645
-0.645
-0.67
-0.67
-0.67
-0.665
-0.66
-0.645
-0.65
-0.64
-0.64
-0.635
-0.65
-0.65
-0.65
-0.66
-0.685
-0.675
-0.665
-0.655
-0.645
-0.65
-0.65
-0.645
-0.64
-0.645
-0.635
-0.64
-0.625
-0.62
-0.605
-0.595
-0.57
-0.565
-0.57
-0.55
-0.56
-0.555
-0.555
-0.56
-0.55
-0.56
-0.575
-0.575
-0.585
-0.59
-0.59
-0.6
-0.595
-0.595
-0.61
-0.61
-0.62
-0.625
-0.63
-0.645
-0.655
-0.655
-0.65
-0.645
-0.635
-0.635
-0.64
-0.62
-0.61
-0.6
-0.58
-0.545
-0.475
-0.395
-0.27
-0.09
0.15
0.465
0.795
1.075
1.23
1.22
0.98
0.43
-0.21
-0.85
-1.49
-1.63
-1.505
-1.26
-1.025
-0.86
-0.76
-0.725
-0.72
-0.725
-0.71
-0.69
-0.69
-0.695
-0.695
-0.7
-0.72
-0.72
-0.73
-0.72
-0.705
-0.69
-0.68
-0.67
-0.665
-0.66
-0.66
-0.67
-0.675
-0.66
-0.67
-0.665
-0.66
-0.645
-0.64
-0.635
-0.64
-0.64
-0.625
-0.63
-0.65
-0.63
-0.65
-0.635
-0.63
-0.615
-0.605
-0.595
-0.585
-0.585
-0.605
-0.6
-0.61
-0.595
-0.585
-0.575
-0.57
-0.565
-0.55
-0.535
-0.54
-0.535
-0.545
-0.53
-0.535
-0.535
-0.535
-0.54
-0.53
-0.505
-0.5
-0.485
-0.485
-0.475
-0.475
-0.485
-0.485
-0.5
-0.49
-0.485
-0.485
-0.48
-0.475
-0.475
-0.475
-0.475
-0.505
-0.505
-0.49
-0.5
-0.485
-0.47
-0.46
-0.465
-0.455
-0.445
-0.435
-0.415
-0.405
-0.395
-0.395
-0.405
-0.395
-0.385
-0.385
-0.395
-0.395
-0.4
-0.42
-0.44
-0.46
-0.48
-0.5
-0.525
-0.525
-0.54
-0.545
-0.545
-0.555
-0.555
-0.565
-0.585
-0.595
-0.605
-0.61
-0.615
-0.625
-0.635
-0.62
-0.63
-0.625
-0.605
-0.62
-0.615
-0.62
-0.63
-0.63
-0.645
-0.635
-0.645
-0.625
-0.615
-0.595
-0.595
-0.585
-0.58
-0.595
-0.59
-0.59
-0.585
-0.595
-0.59
-0.575
-0.57
-0.55
-0.535
-0.53
-0.535
-0.525
-0.525
-0.535
-0.54
-0.535
-0.53
-0.53
-0.515
-0.515
-0.515
-0.51
-0.505
-0.52
-0.53
-0.535
-0.545
-0.535
-0.54
-0.54
-0.54
-0.53
-0.53
-0.535
-0.535
-0.535
-0.55
-0.58
-0.59
-0.595
-0.59
-0.585
-0.59
-0.585
-0.57
-0.585
-0.585
-0.6
-0.62
-0.625
-0.625
-0.615
-0.625
-0.615
-0.61
-0.61
-0.61
-0.62
-0.625
-0.635
-0.64
-0.64
-0.65
-0.66
-0.66
-0.655
-0.66
-0.64
-0.635
-0.64
-0.635
-0.65
-0.65
-0.66
-0.665
-0.66
-0.66
-0.655
-0.65
-0.645
-0.64
-0.65
-0.65
-0.66
-0.655
-0.655
-0.665
-0.655
-0.675
-0.68
-0.675
-0.67
-0.67
-0.675
-0.67
-0.68
-0.685
-0.675
-0.685
-0.68
-0.68
-0.675
-0.665
-0.645
-0.645
-0.66
-0.655
-0.665
-0.67
-0.665
-0.665
-0.67
-0.66
-0.645
-0.655
-0.645
-0.63
-0.64
-0.625
-0.635
-0.635
-0.64
-0.62
-0.615
-0.595
-0.585
-0.575
-0.58
-0.555
-0.565
-0.55
-0.55
-0.555
-0.555
-0.555
-0.57
-0.575
-0.585
-0.595
-0.6
-0.595
-0.59
-0.59
-0.6
-0.61
-0.625
-0.64
-0.66
-0.665
-0.665
-0.66
-0.65
-0.65
-0.635
-0.62
-0.625
-0.62
-0.62
-0.61
-0.585
-0.53
-0.465
-0.345
-0.165
0.095
0.425
0.78
1.075
1.27
1.32
1.185
0.82
0.245
-0.395
-1.035
-1.52
-1.625
-1.49
-1.24
-1.005
-0.845
-0.79
-0.78
-0.795
-0.8
-0.785
-0.755
-0.72
-0.695
-0.685
-0.7
-0.705
-0.725
-0.76
-0.755
-0.745
-0.74
-0.73
-0.715
-0.7
-0.71
-0.705
-0.7
-0.685
-0.69
-0.695
-0.695
-0.695
-0.685
-0.675
-0.675
-0.665
-0.645
-0.635
-0.655
-0.64
-0.645
-0.65
-0.645
-0.645
-0.645
-0.625
-0.62
-0.605
-0.595
-0.59
-0.595
-0.6
-0.595
-0.585
-0.58
-0.59
-0.57
-0.565
-0.55
-0.55
-0.535
-0.525
-0.52
-0.53
-0.53
-0.525
-0.52
-0.53
-0.52
-0.52
-0.495
-0.47
-0.46
-0.465
-0.465
-0.46
-0.48
-0.465
-0.475
-0.47
-0.48
-0.455
-0.445
-0.445
-0.425
-0.41
-0.415
-0.425
-0.43
-0.435
-0.42
-0.42
-0.42
-0.415
-0.405
-0.405
-0.39
-0.38
-0.37
-0.365
-0.355
-0.36
-0.35
-0.345
-0.33
-0.32
-0.325
-0.325
-0.31
-0.33
-0.345
-0.37
-0.385
-0.415
-0.425
-0.445
-0.465
-0.47
-0.495
-0.5
-0.515
-0.525
-0.55
-0.565
-0.575
-0.595
-0.615
-0.625
-0.625
-0.605
-0.605
-0.605
-0.6
-0.605
-0.62
-0.62
-0.635
-0.63
-0.64
-0.63
-0.62
-0.62
-0.6
-0.605
-0.6
-0.605
-0.59
-0.595
-0.6
-0.6
-0.585
-0.59
-0.59
-0.565
-0.565
-0.555
-0.54
-0.54
-0.54
-0.54
-0.555
-0.55
-0.56
-0.555
-0.55
-0.54
-0.53
-0.525
-0.53
-0.535
-0.53
-0.54
-0.535
-0.54
-0.54
-0.55
-0.56
-0.555
-0.55
-0.545
-0.545
-0.555
-0.555
-0.57
-0.57
-0.585
-0.59
-0.6
-0.6
-0.595
-0.595
-0.585
-0.585
-0.59
-0.59
-0.6
-0.615
-0.62
-0.63
-0.625
-0.63
-0.625
-0.625
-0.615
-0.62
-0.62
-0.615
-0.625
-0.63
-0.645
-0.65
-0.655
-0.645
-0.645
-0.63
-0.63
-0.62
-0.625
-0.63
-0.635
-0.65
-0.645
-0.655
-0.655
-0.66
-0.64
-0.635
-0.635
-0.645
-0.645
-0.65
-0.64
-0.645
-0.645
-0.66
-0.675
-0.66
-0.65
-0.655
-0.645
-0.64
-0.63
-0.63
-0.64
-0.645
-0.655
-0.66
-0.655
-0.65
-0.64
-0.64
-0.625
-0.63
-0.63
-0.635
-0.635
-0.64
-0.64
-0.655
-0.67
-0.665
-0.66
-0.65
-0.645
-0.635
-0.625
-0.625
-0.62
-0.63
-0.625
-0.62
-0.615
-0.595
-0.595
-0.57
-0.56
-0.545
-0.55
-0.555
-0.56
-0.56
-0.555
-0.555
-0.55
-0.545
-0.56
-0.565
-0.575
-0.58
-0.58
-0.59
-0.595
-0.585
-0.6
-0.605
-0.595
-0.595
-0.61
-0.615
-0.625
-0.625
-0.63
-0.64
-0.63
-0.645
-0.635
-0.645
-0.635
-0.62
-0.62
-0.59
-0.585
-0.545
-0.51
-0.48
-0.405
-0.275
-0.095
0.15
0.465
0.81
1.11
1.325
1.39
1.295
0.96
0.4
-0.24
-0.88
-1.47
-1.57
-1.445
-1.185
-0.96
-0.805
-0.72
-0.71
-0.71
-0.72
-0.725
-0.72
-0.72
-0.71
-0.71
-0.715
-0.715
-0.725
-0.725
-0.725
-0.71
-0.72
-0.71
-0.715
-0.71
-0.72
-0.72
-0.705
-0.705
-0.69
-0.68
-0.67
-0.665
-0.66
-0.655
-0.665
-0.655
-0.665
-0.66
-0.655
-0.65
-0.63
-0.62
-0.615
-0.605
-0.59
-0.6
-0.605
-0.61
-0.6
-0.6
-0.59
-0.58
-0.565
-0.565
-0.55
-0.55
-0.55
-0.55
-0.55
-0.545
-0.55
-0.545
-0.54
-0.525
-0.525
-0.505
-0.495
-0.49
-0.49
-0.475
-0.48
-0.495
-0.495
-0.49
-0.485
-0.46
-0.46
-0.44
-0.425
-0.43
-0.43
-0.425
-0.435
-0.43
-0.435
-0.435
-0.425
-0.43
-0.425
-0.405
-0.41
-0.395
-0.395
-0.385
-0.38
-0.365
-0.365
-0.355
-0.34
-0.32
-0.31
-0.3
-0.295
-0.31
-0.33
-0.34
-0.36
-0.39
-0.41
-0.42
-0.435
-0.44
-0.455
-0.46
-0.48
-0.485
-0.505
-0.525
-0.535
-0.545
-0.565
-0.58
-0.585
-0.58
-0.58
-0.58
-0.58
-0.575
-0.58
-0.605
-0.61
-0.625
-0.61
-0.605
-0.605
-0.605
-0.6
-0.59
-0.58
-0.585
-0.57
-0.585
-0.57
-0.58
-0.57
-0.575
-0.57
-0.555
-0.555
-0.52
-0.52
-0.525
-0.525
-0.53
-0.535
-0.535
-0.54
-0.53
-0.535
-0.515
-0.51
-0.51
-0.51
-0.505
-0.51
-0.52
-0.53
-0.53
-0.535
-0.54
-0.54
-0.535
-0.54
-0.525
-0.535
-0.53
-0.525
-0.545
-0.545
-0.55
-0.56
-0.565
-0.56
-0.56
-0.56
-0.56
-0.56
-0.57
-0.59
-0.59
-0.59
-0.605
-0.605
-0.595
-0.605
-0.595
-0.6
-0.595
-0.595
-0.59
-0.59
-0.59
-0.59
-0.615
-0.61
-0.625
-0.615
-0.625
-0.605
-0.61
-0.595
-0.6
-0.61
-0.605
-0.625
-0.63
-0.635
-0.64
-0.635
-0.625
-0.615
-0.615
-0.605
-0.61
-0.615
-0.63
-0.63
-0.645
-0.645
-0.655
-0.63
-0.63
-0.625
-0.615
-0.615
-0.615
-0.63
-0.635
-0.63
-0.635
-0.645
-0.65
-0.645
-0.625
-0.62
-0.615
-0.61
-0.605
-0.62
-0.635
-0.64
-0.635
-0.635
-0.635
-0.635
-0.625
-0.62
-0.625
-0.61
-0.61
-0.595
-0.62
-0.615
-0.61
-0.61
-0.605
-0.6
-0.595
-0.595
-0.57
-0.545
-0.525
-0.545
-0.535
-0.52
-0.525
-0.53
-0.525
-0.525
-0.505
-0.51
-0.51
-0.54
-0.555
-0.565
-0.565
-0.575
-0.575
-0.58
-0.575
-0.58
-0.585
-0.575
-0.58
-0.595
-0.6
-0.605
-0.61
-0.625
-0.635
-0.635
-0.625
-0.61
-0.6
-0.6
-0.585
-0.56
-0.54
-0.515
-0.48
-0.435
-0.355
-0.215
-0.01
0.265
0.59
0.925
1.19
1.355
1.375
1.22
0.86
0.28
-0.36
-1.0
-1.48
-1.6
-1.46
-1.215
-0.98
-0.81
-0.745
-0.73
-0.735
-0.755
-0.75
-0.74
-0.705
-0.685
-0.66
-0.66
-0.67
-0.67
-0.665
-0.675
-0.67
-0.68
-0.675
-0.69
-0.685
-0.685
-0.68
-0.66
-0.64
-0.63
-0.625
-0.625
-0.62
-0.635
-0.63
-0.63
-0.63
-0.63
-0.62
-0.61
-0.595
-0.59
-0.58
-0.575
-0.59
-0.57
-0.57
-0.575
-0.57
-0.57
-0.55
-0.545
-0.55
-0.535
-0.535
-0.525
-0.545
-0.53
-0.525
-0.54
-0.52
-0.51
-0.505
-0.495
-0.475
-0.47
-0.46
-0.455
-0.455
-0.455
-0.48
-0.47
-0.47
-0.455
-0.455
-0.435
-0.44
-0.43
-0.425
-0.43
-0.435
-0.445
-0.44
-0.45
-0.455
-0.46
-0.445
-0.435
-0.43
-0.41
-0.425
-0.41
-0.405
-0.405
-0.415
-0.415
-0.4
-0.39
-0.355
-0.34
-0.33
-0.335
-0.35
-0.365
-0.39
-0.415
-0.42
-0.44
-0.45
-0.47
-0.465
-0.475
-0.48
-0.485
-0.505
-0.515
-0.53
-0.57
-0.585
-0.605
-0.615
-0.615
-0.605
-0.6
-0.59
-0.585
-0.59
-0.595
-0.59
-0.605
-0.605
-0.605
-0.61
-0.6
-0.59
-0.59
-0.565
-0.56
-0.565
-0.56
-0.555
-0.565
-0.555
-0.56
-0.545
-0.54
-0.53
-0.515
-0.5
-0.49
-0.485
-0.49
-0.495
-0.5
-0.5
-0.505
-0.515
-0.51
-0.5
-0.495
-0.5
-0.465
-0.47
-0.47
-0.47
-0.485
-0.5
-0.515
-0.52
-0.52
-0.525
-0.52
-0.51
-0.505
-0.51
-0.5
-0.52
-0.535
-0.54
-0.565
-0.56
-0.56
-0.555
-0.545
-0.55
-0.56
-0.555
-0.56
-0.575
-0.585
-0.6
-0.59
-0.61
-0.61
-0.615
-0.61
-0.61
-0.605
-0.595
-0.58
-0.595
-0.61
-0.63
-0.635
-0.625
-0.625
-0.625
-0.62
-0.62
-0.61
-0.62
-0.62
-0.625
-0.615
-0.63
-0.635
-0.645
-0.64
-0.64
-0.63
-0.64
-0.625
-0.615
-0.615
-0.615
-0.625
-0.635
-0.645
-0.645
-0.635
-0.63
-0.63
-0.63
-0.615
-0.615
-0.615
-0.625
-0.615
-0.63
-0.63
-0.64
-0.63
-0.63
-0.615
-0.61
-0.62
-0.615
-0.61
-0.62
-0.63
-0.635
-0.63
-0.635
-0.635
-0.625
-0.62
-0.62
-0.605
-0.605
-0.6
-0.59
-0.58
-0.57
-0.565
-0.555
-0.555
-0.545
-0.55
-0.52
-0.505
-0.505
-0.515
-0.525
-0.55
-0.565
-0.57
-0.58
-0.58
-0.565
-0.57
-0.555
-0.555
-0.57
-0.59
-0.605
-0.625
-0.635
-0.645
-0.635
-0.625
-0.61
-0.6
-0.595
-0.59
-0.585
-0.575
-0.56
-0.535
-0.505
-0.44
-0.335
-0.17
0.05
0.335
0.67
1.01
1.265
1.4
1.37
1.15
0.68
0.04
-0.6
-1.24
-1.685
-1.665
-1.42
-1.14
-0.93
-0.785
-0.745
-0.76
-0.78
-0.785
-0.765
-0.74
-0.68
-0.66
-0.645
-0.64
-0.65
-0.66
-0.67
-0.67
-0.675
-0.685
-0.69
-0.68
-0.68
-0.665
-0.645
-0.635
-0.615
-0.625
-0.62
-0.62
-0.635
-0.635
-0.635
-0.63
-0.615
-0.615
-0.605
-0.595
-0.585
-0.575
-0.58
-0.575
-0.58
-0.57
-0.58
-0.575
-0.57
-0.56
-0.555
-0.545
-0.54
-0.535
-0.53
-0.55
-0.53
-0.535
-0.52
-0.515
-0.505
-0.49
-0.49
-0.49
-0.485
-0.475
-0.48
-0.47
-0.465
-0.47
-0.465
-0.455
-0.47
-0.465
-0.445
-0.455
-0.455
-0.45
-0.45
-0.445
-0.46
-0.455
-0.46
-0.455
-0.445
-0.435
-0.445
-0.44
-0.45
-0.45
-0.445
-0.44
-0.445
-0.42
-0.41
-0.385
-0.37
-0.36
-0.345
-0.335
-0.345
-0.365
-0.37
-0.385
-0.405
-0.435
-0.445
-0.46
-0.46
-0.47
-0.47
-0.49
-0.495
-0.515
-0.53
-0.545
-0.555
-0.57
-0.58
-0.585
-0.59
-0.605
-0.585
-0.59
-0.595
-0.585
-0.595
-0.6
-0.625
-0.62
-0.605
-0.605
-0.595
-0.59
-0.565
-0.565
-0.565
-0.565
-0.57
-0.585
-0.575
-0.575
-0.565
-0.55
-0.525
-0.52
-0.52
-0.505
-0.5
-0.5
-0.495
-0.495
-0.51
-0.515
-0.51
-0.51
-0.5
-0.485
-0.47
-0.455
-0.445
-0.455
-0.455
-0.46
-0.47
-0.475
-0.5
-0.495
-0.485
-0.475
-0.485
-0.475
-0.485
-0.49
-0.485
-0.505
-0.51
-0.525
-0.525
-0.525
-0.525
-0.535
-0.53
-0.525
-0.52
-0.515
-0.525
-0.54
-0.56
-0.565
-0.575
-0.57
-0.57
-0.56
-0.565
-0.55
-0.56
-0.565
-0.57
-0.58
-0.6
-0.605
-0.605
-0.6
-0.605
-0.605
-0.59
-0.585
-0.595
-0.585
-0.6
-0.605
-0.615
-0.615
-0.62
-0.615
-0.61
-0.595
-0.595
-0.6
-0.59
-0.59
-0.6
-0.615
-0.63
-0.64
-0.63
-0.635
-0.615
-0.615
-0.61
-0.605
-0.595
-0.59
-0.6
-0.6
-0.605
-0.605
-0.63
-0.62
-0.62
-0.61
-0.6
-0.605
-0.605
-0.595
-0.61
-0.62
-0.625
-0.625
-0.625
-0.625
-0.625
-0.625
-0.615
-0.605
-0.6
-0.595
-0.59
-0.595
-0.57
-0.57
-0.56
-0.55
-0.54
-0.535
-0.525
-0.515
-0.51
-0.5
-0.495
-0.495
-0.5
-0.525
-0.545
-0.56
-0.555
-0.55
-0.545
-0.54
-0.55
-0.555
-0.565
-0.57
-0.585
-0.595
-0.605
-0.615
-0.615
-0.625
-0.63
-0.61
-0.605
-0.6
-0.595
-0.595
-0.59
-0.595
-0.585
-0.555
-0.52
-0.465
-0.405
-0.28
-0.105
0.15
0.485
0.84
1.16
1.345
1.33
1.09
0.525
-0.115
-0.755
-1.395
-1.625
-1.485
-1.22
-0.98
-0.805
-0.735
-0.71
-0.715
-0.73
-0.725
-0.7
-0.67
-0.68
-0.685
-0.685
-0.705
-0.715
-0.715
-0.71
-0.71
-0.69
-0.68
-0.68
-0.675
-0.665
-0.67
-0.67
-0.655
-0.67
-0.66
-0.665
-0.66
-0.645
-0.64
-0.625
-0.62
-0.62
-0.62
-0.62
-0.61
-0.615
-0.615
-0.605
-0.605
-0.61
-0.585
-0.58
-0.565
-0.57
-0.565
-0.565
-0.555
-0.56
-0.565
-0.565
-0.55
-0.545
-0.54
-0.53
-0.52
-0.51
-0.515
-0.5
-0.5
-0.485
-0.495
-0.5
-0.495
-0.475
-0.465
-0.465
-0.45
-0.44
-0.435
-0.445
-0.45
-0.45
-0.45
-0.445
-0.45
-0.44
-0.435
-0.43
-0.41
-0.41
-0.4
-0.405
-0.415
-0.425
-0.415
-0.42
-0.42
-0.405
-0.385
-0.375
-0.36
-0.345
-0.335
-0.325
-0.33
-0.335
-0.33
-0.325
-0.33
-0.335
-0.335
-0.345
-0.36
-0.36
-0.38
-0.395
-0.415
-0.44
-0.445
-0.47
-0.48
-0.495
-0.495
-0.495
-0.51
-0.53
-0.53
-0.55
-0.575
-0.585
-0.59
-0.6
-0.6
-0.605
-0.59
-0.59
-0.58
-0.58
-0.58
-0.59
-0.595
-0.605
-0.605
-0.605
-0.605
-0.605
-0.59
-0.575
-0.57
-0.565
-0.565
-0.565
-0.57
-0.555
-0.555
-0.565
-0.56
-0.55
-0.54
-0.535
-0.51
-0.51
-0.51
-0.52
-0.535
-0.53
-0.53
-0.535
-0.51
-0.505
-0.5
-0.5
-0.49
-0.49
-0.495
-0.5
-0.515
-0.525
-0.53
-0.525
-0.525
-0.525
-0.53
-0.535
-0.54
-0.54
-0.545
-0.54
-0.55
-0.57
-0.575
-0.58
-0.595
-0.585
-0.585
-0.57
-0.57
-0.585
-0.57
-0.575
-0.59
-0.595
-0.605
-0.6
-0.6
-0.605
-0.61
-0.605
-0.595
-0.6
-0.595
-0.605
-0.625
-0.61
-0.62
-0.615
-0.63
-0.63
-0.62
-0.61
-0.605
-0.605
-0.595
-0.61
-0.615
-0.625
-0.625
-0.625
-0.63
-0.615
-0.615
-0.62
-0.615
-0.62
-0.63
-0.63
-0.635
-0.625
-0.635
-0.64
-0.635
-0.635
-0.635
-0.63
-0.62
-0.63
-0.63
-0.625
-0.635
-0.645
-0.635
-0.65
-0.645
-0.645
-0.645
-0.63
-0.615
-0.615
-0.61
-0.61
-0.625
-0.625
-0.63
-0.635
-0.625
-0.63
-0.615
-0.605
-0.6
-0.595
-0.595
-0.615
-0.615
-0.61
-0.6
-0.605
-0.6
-0.59
-0.565
-0.555
-0.535
-0.525
-0.53
-0.525
-0.53
-0.525
-0.535
-0.53
-0.53
-0.515
-0.495
-0.495
-0.515
-0.535
-0.555
-0.57
-0.58
-0.585
-0.59
-0.58
-0.57
-0.565
-0.565
-0.58
-0.59
-0.605
-0.62
-0.63
-0.62
-0.615
-0.62
-0.615
-0.605
-0.6
-0.58
-0.575
-0.53
-0.525
-0.505
-0.445
-0.365
-0.205
0.02
0.325
0.69
1.02
1.29
1.405
1.325
1.06
0.555
-0.085
-0.725
-1.3
-1.54
-1.47
-1.25
-1.015
-0.835
-0.755
-0.725
-0.72
-0.73
-0.725
-0.71
-0.705
-0.7
-0.7
-0.7
-0.705
-0.71
-0.705
-0.7
-0.69
-0.695
-0.71
-0.705
-0.7
-0.71
-0.69
-0.685
-0.685
-0.675
-0.68
-0.665
-0.645
-0.65
-0.655
-0.64
-0.64
-0.65
-0.65
-0.645
-0.635
-0.625
-0.615
-0.59
-0.585
-0.585
-0.58
-0.585
-0.59
-0.585
-0.575
-0.585
-0.58
-0.56
-0.545
-0.545
-0.535
-0.525
-0.525
-0.52
-0.525
-0.52
-0.525
-0.52
-0.51
-0.505
-0.49
-0.475
-0.465
-0.46
-0.47
-0.47
-0.465
-0.46
-0.475
-0.465
-0.46
-0.44
-0.43
-0.42
-0.415
-0.415
-0.415
-0.42
-0.425
-0.43
-0.425
-0.42
-0.42
-0.41
-0.395
-0.38
-0.37
-0.365
-0.365
-0.35
-0.35
-0.335
-0.345
-0.32
-0.32
-0.295
-0.305
-0.29
-0.305
-0.32
-0.345
-0.375
-0.385
-0.385
-0.41
-0.415
-0.425
-0.44
-0.445
-0.46
-0.465
-0.485
-0.505
-0.52
-0.54
-0.565
-0.58
-0.575
-0.585
-0.58
-0.575
-0.575
-0.57
-0.58
-0.58
-0.59
-0.605
-0.605
-0.6
-0.6
-0.61
-0.595
-0.595
-0.595
-0.57
-0.575
-0.565
-0.57
-0.565
-0.57
-0.565
-0.555
-0.545
-0.545
-0.535
-0.52
-0.525
-0.525
-0.54
-0.53
-0.545
-0.55
-0.535
-0.525
-0.53
-0.51
-0.505
-0.5
-0.5
-0.5
-0.505
-0.51
-0.51
-0.525
-0.53
-0.52
-0.525
-0.535
-0.535
-0.515
-0.505
-0.51
-0.515
-0.53
-0.535
-0.545
-0.555
-0.56
-0.57
-0.555
-0.565
-0.55
-0.545
-0.56
-0.57
-0.575
-0.585
-0.585
-0.595
-0.605
-0.595
-0.59
-0.6
-0.585
-0.58
-0.59
-0.605
-0.605
-0.615
-0.625
-0.63
-0.64
-0.63
-0.625
-0.615
-0.615
-0.6
-0.605
-0.605
-0.62
-0.63
-0.63
-0.635
-0.63
-0.63
-0.625
-0.615
-0.62
-0.62
-0.625
-0.63
-0.635
-0.635
-0.64
-0.645
-0.645
-0.645
-0.64
-0.63
-0.61
-0.61
-0.615
-0.625
-0.625
-0.63
-0.64
-0.65
-0.64
-0.655
-0.63
-0.635
-0.625
-0.615
-0.62
-0.62
-0.62
-0.63
-0.62
-0.63
-0.645
-0.65
-0.625
-0.62
-0.625
-0.615
-0.61
-0.61
-0.62
-0.62
-0.62
-0.63
-0.615
-0.635
-0.63
-0.605
-0.58
-0.56
-0.56
-0.56
-0.555
-0.55
-0.555
-0.56
-0.555
-0.54
-0.525
-0.505
-0.5
-0.51
-0.525
-0.545
-0.575
-0.58
-0.59
-0.59
-0.595
-0.585
-0.575
-0.57
-0.575
-0.585
-0.605
-0.61
-0.64
-0.65
-0.635
-0.635
-0.63
-0.61
-0.6
-0.585
-0.565
-0.545
-0.53
-0.51
-0.47
-0.39
-0.25
-0.035
0.245
0.59
0.94
1.23
1.39
1.375
1.155
0.685
0.045
-0.595
-1.235
-1.61
-1.565
-1.335
-1.065
-0.855
-0.735
-0.7
-0.7
-0.725
-0.725
-0.72
-0.71
-0.69
-0.685
-0.68
-0.68
-0.69
-0.695
-0.68
-0.685
-0.67
-0.68
-0.66
-0.675
-0.68
-0.675
-0.67
-0.66
-0.64
-0.635
-0.63
-0.63
-0.63
-0.64
-0.64
-0.635
-0.635
-0.625
-0.61
-0.615
-0.595
-0.59
-0.585
-0.58
-0.565
-0.575
-0.575
-0.575
-0.575
-0.575
-0.56
-0.565
-0.55
-0.535
-0.52
-0.515
-0.525
-0.52
-0.52
-0.52
-0.525
-0.52
-0.505
-0.495
-0.5
-0.485
-0.48
-0.475
-0.465
-0.47
-0.465
-0.475
-0.47
-0.465
-0.46
-0.45
-0.45
-0.44
-0.435
-0.43
-0.435
-0.445
-0.445
-0.46
-0.455
-0.455
-0.455
-0.435
-0.435
-0.415
-0.41
-0.41
-0.395
-0.395
-0.385
-0.385
-0.375
-0.36
-0.35
-0.345
-0.35
-0.365
-0.375
-0.385
-0.4
-0.425
-0.44
-0.46
-0.48
-0.485
-0.485
-0.495
-0.51
-0.51
-0.525
-0.54
-0.55
-0.565
-0.57
-0.58
-0.595
-0.6
-0.6
-0.595
-0.595
-0.59
-0.57
-0.58
-0.575
-0.585
-0.6
-0.6
-0.61
-0.6
-0.595
-0.58
-0.57
-0.56
-0.545
-0.545
-0.545
-0.545
-0.555
-0.56
-0.55
-0.545
-0.53
-0.525
-0.52
-0.52
-0.51
-0.51
-0.505
-0.5
-0.505
-0.51
-0.51
-0.5
-0.49
-0.485
-0.475
-0.475
-0.475
-0.475
-0.475
-0.49
-0.51
-0.51
-0.525
-0.525
-0.515
-0.515
-0.525
-0.515
-0.51
-0.505
-0.515
-0.52
-0.54
-0.545
-0.56
-0.56
-0.565
-0.555
-0.56
-0.555
-0.545
-0.545
-0.565
-0.57
-0.575
-0.58
-0.585
-0.595
-0.59
-0.6
-0.59
-0.595
-0.59
-0.6
-0.595
-0.605
-0.605
-0.615
-0.61
-0.61
-0.615
-0.605
-0.61
-0.61
-0.595
-0.605
-0.61
-0.605
-0.62
-0.615
-0.63
-0.625
-0.63
-0.625
-0.625
-0.61
-0.605
-0.605
-0.605
-0.62
-0.635
-0.64
-0.635
-0.635
-0.635
-0.625
-0.63
-0.62
-0.63
-0.625
-0.63
-0.64
-0.635
-0.635
-0.64
-0.63
-0.645
-0.64
-0.635
-0.63
-0.62
-0.625
-0.62
-0.63
-0.64
-0.64
-0.645
-0.645
-0.64
-0.63
-0.63
-0.615
-0.615
-0.635
-0.635
-0.64
-0.63
-0.64
-0.64
-0.62
-0.645
-0.615
-0.61
-0.6
-0.57
-0.56
-0.545
-0.55
-0.555
-0.55
-0.545
-0.535
-0.53
-0.515
-0.515
-0.515
-0.53
-0.535
-0.545
-0.565
-0.57
-0.575
-0.57
-0.565
-0.57
-0.575
-0.575
-0.585
-0.59
-0.6
-0.61
-0.63
-0.64
-0.635
-0.62
-0.615
-0.62
-0.6
-0.595
-0.58
-0.545
-0.51
-0.47
-0.395
-0.27
-0.07
0.21
0.56
0.92
1.215
1.38
1.355
1.115
0.615
-0.025
-0.665
-1.305
-1.665
-1.6
-1.345
-1.07
-0.86
-0.735
-0.71
-0.705
-0.72
-0.73
-0.72
-0.705
-0.7
-0.695
-0.7
-0.685
-0.68
-0.68
-0.685
-0.665
-0.665
-0.66
-0.66
-0.66
-0.66
-0.66
-0.66
-0.65
-0.64
-0.65
-0.63
-0.62
-0.62
-0.615
-0.63
-0.615
-0.61
-0.625
-0.615
-0.61
-0.595
-0.585
-0.575
-0.565
-0.57
-0.565
-0.555
-0.56
-0.555
-0.55
-0.55
-0.55
-0.54
-0.54
-0.53
-0.515
-0.505
-0.495
-0.5
-0.495
-0.51
-0.51
-0.495
-0.485
-0.48
-0.47
-0.46
-0.45
-0.45
-0.45
-0.445
-0.45
-0.465
-0.46
-0.45
-0.44
-0.43
-0.43
-0.425
-0.415
-0.43
-0.415
-0.43
-0.43
-0.445
-0.46
-0.455
-0.455
-0.435
-0.44
-0.415
-0.41
-0.405
-0.42
-0.415
-0.41
-0.41
-0.4
-0.385
-0.37
-0.36
-0.34
-0.325
-0.33
-0.33
-0.345
-0.36
-0.38
-0.395
-0.405
-0.42
-0.44
-0.465
-0.47
-0.485
-0.46
-0.485
-0.495
-0.525
-0.54
-0.555
-0.57
-0.575
-0.595
-0.595
-0.575
-0.57
-0.565
-0.575
-0.58
-0.59
-0.585
-0.59
-0.59
-0.59
-0.595
-0.58
-0.57
-0.57
-0.58
-0.55
-0.55
-0.555
-0.545
-0.555
-0.565
-0.565
-0.55
-0.53
-0.52
-0.5
-0.495
-0.495
-0.485
-0.495
-0.5
-0.51
-0.5
-0.5
-0.49
-0.485
-0.475
-0.465
-0.475
-0.465
-0.47
-0.47
-0.465
-0.47
-0.48
-0.48
-0.485
-0.48
-0.485
-0.49
-0.475
-0.475
-0.48
-0.49
-0.5
-0.51
-0.515
-0.51
-0.515
-0.51
-0.51
-0.51
-0.505
-0.515
-0.52
-0.54
-0.545
-0.56
-0.565
-0.56
-0.56
-0.56
-0.575
-0.565
-0.555
-0.55
-0.555
-0.58
-0.575
-0.585
-0.585
-0.6
-0.595
-0.6
-0.6
-0.6
-0.605
-0.595
-0.6
-0.605
-0.61
-0.62
-0.62
-0.62
-0.605
-0.605
-0.605
-0.6
-0.595
-0.6
-0.595
-0.6
-0.615
-0.63
-0.64
-0.625
-0.635
-0.615
-0.615
-0.61
-0.605
-0.61
-0.61
-0.615
-0.62
-0.615
-0.625
-0.635
-0.64
-0.63
-0.625
-0.615
-0.615
-0.615
-0.61
-0.61
-0.625
-0.62
-0.63
-0.63
-0.625
-0.63
-0.615
-0.615
-0.61
-0.61
-0.61
-0.62
-0.63
-0.64
-0.645
-0.63
-0.625
-0.62
-0.62
-0.615
-0.59
-0.58
-0.565
-0.565
-0.55
-0.565
-0.56
-0.565
-0.555
-0.53
-0.505
-0.495
-0.495
-0.525
-0.565
-0.58
-0.595
-0.59
-0.59
-0.58
-0.575
-0.565
-0.57
-0.565
-0.58
-0.595
-0.61
-0.625
-0.625
-0.63
-0.62
-0.615
-0.6
-0.6
-0.585
-0.58
-0.55
-0.535
-0.505
-0.47
-0.405
-0.3
-0.12
0.14
0.45
0.8
1.11
1.33
1.395
1.295
0.97
0.43
-0.21
-0.85
-1.395
-1.555
-1.455
-1.21
-0.975
-0.795
-0.705
-0.685
-0.695
-0.7
-0.705
-0.695
-0.69
-0.69
-0.685
-0.69
-0.69
-0.695
-0.685
-0.675
-0.69
-0.68
-0.685
-0.69
-0.69
-0.69
-0.68
-0.675
-0.65
-0.65
-0.64
-0.64
-0.63
-0.625
-0.63
-0.63
-0.635
-0.63
-0.63
-0.625
-0.61
-0.6
-0.6
-0.59
-0.57
-0.585
-0.59
-0.595
-0.595
-0.585
-0.585
-0.57
-0.565
-0.55
-0.54
-0.53
-0.53
-0.54
-0.54
-0.535
-0.54
-0.52
-0.515
-0.5
-0.495
-0.49
-0.475
-0.465
-0.465
-0.47
-0.47
-0.475
-0.485
-0.485
-0.47
-0.465
-0.455
-0.435
-0.425
-0.425
-0.43
-0.44
-0.425
-0.44
-0.435
-0.445
-0.45
-0.425
-0.41
-0.4
-0.405
-0.405
-0.4
-0.41
-0.405
-0.41
-0.39
-0.38
-0.375
-0.365
-0.355
-0.34
-0.335
-0.315
-0.315
-0.315
-0.325
-0.325
-0.33
-0.33
-0.355
-0.355
-0.365
-0.375
-0.385
-0.385
-0.405
-0.425
-0.44
-0.47
-0.485
-0.51
-0.52
-0.515
-0.52
-0.52
-0.52
-0.54
-0.545
-0.56
-0.565
-0.58
-0.58
-0.585
-0.59
-0.58
-0.59
-0.58
-0.575
-0.58
-0.575
-0.585
-0.59
-0.595
-0.61
-0.59
-0.605
-0.59
-0.585
-0.57
-0.55
-0.565
-0.53
-0.535
-0.54
-0.545
-0.54
-0.53
-0.535
-0.525
-0.51
-0.495
-0.49
-0.5
-0.5
-0.505
-0.5
-0.52
-0.52
-0.53
-0.52
-0.505
-0.5
-0.49
-0.49
-0.49
-0.505
-0.515
-0.53
-0.525
-0.535
-0.525
-0.53
-0.53
-0.525
-0.525
-0.52
-0.52
-0.535
-0.54
-0.54
-0.56
-0.575
-0.57
-0.58
-0.575
-0.56
-0.55
-0.56
-0.565
-0.56
-0.575
-0.58
-0.595
-0.6
-0.6
-0.6
-0.585
-0.58
-0.575
-0.59
-0.595
-0.59
-0.595
-0.595
-0.6
-0.6
-0.605
-0.605
-0.6
-0.6
-0.6
-0.59
-0.605
-0.6
-0.605
-0.61
-0.625
-0.62
-0.62
-0.62
-0.605
-0.605
-0.59
-0.59
-0.58
-0.595
-0.605
-0.615
-0.615
-0.625
-0.635
-0.64
-0.63
-0.62
-0.61
-0.6
-0.605
-0.595
-0.62
-0.625
-0.635
-0.625
-0.615
-0.62
-0.615
-0.615
-0.6
-0.6
-0.61
-0.605
-0.605
-0.62
-0.625
-0.625
-0.62
-0.62
-0.615
-0.605
-0.595
-0.59
-0.59
-0.6
-0.605
-0.61
-0.62
-0.61
-0.615
-0.605
-0.6
-0.59
-0.575
-0.565
-0.545
-0.535
-0.53
-0.53
-0.54
-0.535
-0.53
-0.52
-0.52
-0.53
-0.5
-0.49
-0.49
-0.495
-0.53
-0.55
-0.57
-0.585
-0.59
-0.575
-0.57
-0.56
-0.545
-0.535
-0.55
-0.555
-0.58
-0.605
-0.61
-0.61
-0.605
-0.6
-0.58
-0.575
-0.565
-0.545
-0.515
-0.5
-0.47
-0.445
-0.36
-0.23
-0.045
0.195
0.505
0.835
1.12
1.31
1.36
1.26
0.98
0.51
-0.105
-0.715
-1.205
-1.425
-1.395
-1.195
-0.98
-0.805
-0.71
-0.68
-0.705
-0.72
-0.72
-0.71
-0.685
-0.665
-0.655
-0.645
-0.645
-0.64
-0.645
-0.65
-0.655
-0.67
-0.67
-0.675
-0.665
-0.675
-0.655
-0.645
-0.635
-0.62
-0.625
-0.625
-0.635
-0.64
-0.64
-0.635
-0.63
-0.63
-0.61
-0.595
-0.58
-0.575
-0.575
-0.57
-0.575
-0.57
-0.58
-0.58
-0.575
-0.57
-0.565
-0.555
-0.545
-0.53
-0.52
-0.51
-0.53
-0.53
-0.525
-0.52
-0.52
-0.515
-0.505
-0.495
-0.48
-0.47
-0.485
-0.48
-0.47
-0.465
-0.465
-0.465
-0.455
-0.455
-0.45
-0.44
-0.445
-0.42
-0.425
-0.415
-0.425
-0.42
-0.43
-0.425
-0.425
-0.425
-0.42
-0.42
-0.4
-0.41
-0.39
-0.395
-0.4
-0.405
