Lead II
-0.315
-0.32
-0.335
-0.335
-0.325
-0.325
-0.33
-0.325
-0.32
-0.335
-0.345
-0.37
-0.395
-0.395
-0.39
-0.4
-0.405
-0.415
-0.42
-0.43
-0.425
-0.43
-0.43
-0.44
-0.47
-0.47
-0.45
-0.435
-0.425
-0.43
-0.445
-0.45
-0.46
-0.44
-0.445
-0.455
-0.46
-0.46
-0.445
-0.44
-0.43
-0.445
-0.465
-0.485
-0.535
-0.575
-0.6
-0.58
-0.54
-0.465
-0.365
-0.185
0.085
0.4
0.7
0.995
1.295
1.525
1.64
1.61
1.41
1.01
0.53
0.085
-0.25
-0.48
-0.605
-0.63
-0.585
-0.485
-0.385
-0.375
-0.395
-0.42
-0.425
-0.415
-0.415
-0.415
-0.425
-0.44
-0.45
-0.46
-0.45
-0.465
-0.47
-0.47
-0.46
-0.47
-0.475
-0.485
-0.485
-0.475
-0.475
-0.475
-0.475
-0.48
-0.485
-0.47
-0.475
-0.48
-0.475
-0.48
-0.48
-0.47
-0.465
-0.455
-0.465
-0.47
-0.47
-0.46
-0.455
-0.455
-0.45
-0.455
-0.465
-0.435
-0.43
-0.42
-0.42
-0.43
-0.425
-0.42
-0.4
-0.385
-0.365
-0.37
-0.355
-0.34
-0.325
-0.295
-0.295
-0.285
-0.285
-0.27
-0.24
-0.215
-0.21
-0.19
-0.19
-0.155
-0.13
-0.11
-0.1
-0.09
-0.08
-0.07
-0.055
-0.035
-0.015
-0.005
-0.005
-0.005
0.015
0.025
0.03
0.025
0.015
0.01
0.015
0.01
-0.005
-0.015
-0.045
-0.065
-0.075
-0.08
-0.1
-0.14
-0.165
-0.175
-0.195
-0.2
-0.235
-0.25
-0.275
-0.28
-0.29
-0.275
-0.285
-0.3
-0.32
-0.33
-0.315
-0.31
-0.315
-0.32
-0.34
-0.335
-0.335
-0.31
-0.31
-0.325
-0.34
-0.335
-0.32
-0.31
-0.32
-0.32
-0.34
-0.33
-0.315
-0.31
-0.3
-0.305
-0.31
-0.305
-0.29
-0.295
-0.295
-0.3
-0.3
-0.29
-0.285
-0.265
-0.27
-0.27
-0.28
-0.28
-0.275
-0.25
-0.25
-0.265
-0.27
-0.265
-0.26
-0.255
-0.26
-0.26
-0.275
-0.265
-0.26
-0.255
-0.25
-0.255
-0.28
-0.285
-0.275
-0.265
-0.275
-0.275
-0.29
-0.295
-0.29
-0.275
-0.28
-0.305
-0.32
-0.305
-0.295
-0.295
-0.305
-0.31
-0.335
-0.33
-0.33
-0.32
-0.315
-0.335
-0.34
-0.335
-0.325
-0.325
-0.335
-0.34
-0.365
-0.35
-0.335
-0.34
-0.33
-0.35
-0.35
-0.355
-0.35
-0.34
-0.35
-0.355
-0.36
-0.365
-0.345
-0.34
-0.33
-0.335
-0.315
-0.3
-0.285
-0.27
-0.27
-0.275
-0.28
-0.285
-0.265
-0.25
-0.245
-0.235
-0.25
-0.25
-0.235
-0.225
-0.22
-0.225
-0.24
-0.245
-0.245
-0.275
-0.275
-0.29
-0.3
-0.28
-0.265
-0.265
-0.265
-0.285
-0.3
-0.3
-0.32
-0.325
-0.335
-0.34
-0.365
-0.365
-0.37
-0.365
-0.37
-0.395
-0.41
-0.41
-0.42
-0.41
-0.41
-0.415
-0.415
-0.41
-0.415
-0.405
-0.41
-0.425
-0.425
-0.41
-0.41
-0.4
-0.4
-0.405
-0.415
-0.405
-0.405
-0.415
-0.435
-0.49
-0.555
-0.6
-0.58
-0.535
-0.47
-0.4
-0.26
0.005
0.355
0.715
1.04
1.36
1.63
1.82
1.885
1.815
1.505
0.985
0.39
-0.12
-0.415
-0.525
-0.56
-0.55
-0.505
-0.425
-0.345
-0.3
-0.31
-0.355
-0.375
-0.375
-0.375
-0.37
-0.385
-0.4
-0.42
-0.43
-0.425
-0.42
-0.42
-0.44
-0.455
-0.45
-0.435
-0.43
-0.435
-0.44
-0.455
-0.445
-0.44
-0.425
-0.43
-0.435
-0.45
-0.445
-0.43
-0.425
-0.42
-0.43
-0.45
-0.45
-0.415
-0.405
-0.41
-0.42
-0.425
-0.405
-0.385
-0.365
-0.375
-0.385
-0.385
-0.385
-0.365
-0.36
-0.345
-0.345
-0.35
-0.345
-0.32
-0.305
-0.29
-0.285
-0.275
-0.265
-0.235
-0.215
-0.205
-0.19
-0.175
-0.155
-0.125
-0.1
-0.08
-0.07
-0.06
-0.045
-0.015
0.015
0.02
0.025
0.015
0.05
0.075
0.09
0.1
0.1
0.09
0.1
0.12
0.13
0.13
0.125
0.105
0.1
0.09
0.08
0.045
0.02
0.01
-0.01
-0.025
-0.045
-0.08
-0.11
-0.135
-0.15
-0.17
-0.17
-0.205
-0.225
-0.23
-0.235
-0.245
-0.25
-0.265
-0.265
-0.285
-0.28
-0.275
-0.275
-0.28
-0.285
-0.285
-0.3
-0.29
-0.285
-0.28
-0.285
-0.28
-0.28
-0.28
-0.27
-0.265
-0.27
-0.295
-0.275
-0.26
-0.25
-0.255
-0.27
-0.275
-0.255
-0.25
-0.235
-0.24
-0.245
-0.25
-0.25
-0.235
-0.23
-0.23
-0.24
-0.25
-0.24
-0.245
-0.23
-0.22
-0.23
-0.245
-0.24
-0.225
-0.225
-0.235
-0.235
-0.25
-0.24
-0.23
-0.225
-0.23
-0.23
-0.25
-0.25
-0.255
-0.24
-0.24
-0.25
-0.27
-0.255
-0.265
-0.255
-0.255
-0.275
-0.27
-0.275
-0.27
-0.26
-0.275
-0.285
-0.29
-0.295
-0.3
-0.29
-0.29
-0.295
-0.3
-0.305
-0.295
-0.295
-0.29
-0.295
-0.32
-0.325
-0.32
-0.305
-0.31
-0.3
-0.32
-0.315
-0.31
-0.3
-0.31
-0.315
-0.33
-0.325
-0.305
-0.3
-0.285
-0.285
-0.285
-0.255
-0.25
-0.24
-0.235
-0.245
-0.25
-0.245
-0.24
-0.22
-0.21
-0.205
-0.22
-0.22
-0.21
-0.2
-0.19
-0.19
-0.205
-0.205
-0.21
-0.215
-0.235
-0.255
-0.285
-0.275
-0.25
-0.245
-0.24
-0.235
-0.26
-0.27
-0.27
-0.275
-0.29
-0.3
-0.32
-0.33
-0.33
-0.335
-0.35
-0.35
-0.385
-0.39
-0.37
-0.375
-0.37
-0.39
-0.39
-0.395
-0.38
-0.375
-0.38
-0.39
-0.395
-0.4
-0.385
-0.37
-0.365
-0.38
-0.395
-0.39
-0.39
-0.38
-0.37
-0.4
-0.41
-0.445
-0.485
-0.555
-0.58
-0.565
-0.525
-0.46
-0.345
-0.15
0.135
0.48
0.815
1.135
1.455
1.715
1.875
1.895
1.755
1.415
0.885
0.35
-0.09
-0.375
-0.505
-0.52
-0.51
-0.445
-0.36
-0.285
-0.28
-0.315
-0.335
-0.35
-0.355
-0.35
-0.37
-0.37
-0.395
-0.385
-0.4
-0.41
-0.43
-0.425
-0.405
-0.405
-0.405
-0.42
-0.42
-0.425
-0.41
-0.4
-0.41
-0.42
-0.42
-0.43
-0.405
-0.395
-0.4
-0.4
-0.415
-0.41
-0.4
-0.405
-0.4
-0.4
-0.405
-0.39
-0.38
-0.365
-0.37
-0.375
-0.385
-0.365
-0.365
-0.35
-0.345
-0.34
-0.34
-0.33
-0.305
-0.295
-0.295
-0.285
-0.285
-0.275
-0.25
-0.215
-0.21
-0.2
-0.19
-0.175
-0.15
-0.125
-0.1
-0.09
-0.085
-0.075
-0.055
-0.015
0.005
0.015
0.025
0.04
0.065
0.08
0.085
0.085
0.1
0.105
0.12
0.125
0.14
0.135
0.13
0.14
0.135
0.14
0.145
0.125
0.1
0.08
0.075
0.07
0.05
0.015
-0.005
-0.025
-0.05
-0.055
-0.08
-0.11
-0.135
-0.15
-0.16
-0.165
-0.175
-0.2
-0.22
-0.225
-0.24
-0.245
-0.24
-0.26
-0.27
-0.275
-0.26
-0.26
-0.27
-0.28
-0.29
-0.295
-0.27
-0.26
-0.265
-0.27
-0.285
-0.28
-0.265
-0.255
-0.26
-0.27
-0.27
-0.265
-0.265
-0.25
-0.26
-0.26
-0.26
-0.265
-0.245
-0.235
-0.235
-0.245
-0.245
-0.235
-0.225
-0.22
-0.22
-0.225
-0.24
-0.23
-0.22
-0.215
-0.215
-0.23
-0.23
-0.235
-0.23
-0.225
-0.225
-0.235
-0.255
-0.235
-0.245
-0.225
-0.23
-0.25
-0.27
-0.255
-0.245
-0.23
-0.23
-0.245
-0.26
-0.245
-0.25
-0.255
-0.25
-0.27
-0.28
-0.285
-0.275
-0.27
-0.275
-0.295
-0.295
-0.3
-0.295
-0.28
-0.3
-0.3
-0.325
-0.315
-0.31
-0.31
-0.295
-0.32
-0.325
-0.325
-0.32
-0.315
-0.32
-0.315
-0.325
-0.325
-0.315
-0.31
-0.32
-0.32
-0.335
-0.34
-0.325
-0.315
-0.305
-0.31
-0.315
-0.3
-0.28
-0.265
-0.245
-0.25
-0.27
-0.25
-0.25
-0.25
-0.235
-0.235
-0.24
-0.24
-0.24
-0.23
-0.21
-0.215
-0.23
-0.235
-0.235
-0.245
-0.26
-0.275
-0.29
-0.295
-0.29
-0.27
-0.25
-0.275
-0.29
-0.3
-0.3
-0.305
-0.315
-0.335
-0.345
-0.35
-0.355
-0.355
-0.36
-0.385
-0.405
-0.405
-0.4
-0.385
-0.395
-0.395
-0.4
-0.415
-0.405
-0.395
-0.405
-0.41
-0.415
-0.42
-0.4
-0.395
-0.4
-0.42
-0.42
-0.41
-0.4
-0.395
-0.41
-0.415
-0.445
-0.485
-0.54
-0.58
-0.57
-0.525
-0.475
-0.37
-0.15
0.21
0.605
0.965
1.285
1.57
1.76
1.795
1.65
1.285
0.735
0.18
-0.23
-0.475
-0.555
-0.565
-0.54
-0.435
-0.33
-0.3
-0.335
-0.36
-0.39
-0.395
-0.38
-0.365
-0.38
-0.405
-0.415
-0.435
-0.43
-0.42
-0.43
-0.45
-0.455
-0.455
-0.44
-0.44
-0.44
-0.46
-0.465
-0.465
-0.435
-0.44
-0.435
-0.45
-0.47
-0.46
-0.445
-0.425
-0.43
-0.45
-0.45
-0.45
-0.435
-0.425
-0.42
-0.42
-0.43
-0.42
-0.41
-0.41
-0.405
-0.42
-0.415
-0.39
-0.38
-0.365
-0.355
-0.37
-0.365
-0.34
-0.33
-0.32
-0.305
-0.285
-0.28
-0.26
-0.24
-0.215
-0.195
-0.195
-0.18
-0.155
-0.14
-0.125
-0.105
-0.09
-0.09
-0.075
-0.035
-0.03
-0.015
-0.01
-0.03
0.01
0.015
0.04
0.045
0.045
0.045
0.045
0.045
0.035
0.035
0.02
0.0
-0.01
-0.02
-0.04
-0.045
-0.075
-0.12
-0.14
-0.155
-0.17
-0.175
-0.215
-0.24
-0.25
-0.265
-0.26
-0.285
-0.29
-0.305
-0.31
-0.315
-0.295
-0.31
-0.335
-0.35
-0.345
-0.335
-0.325
-0.325
-0.34
-0.335
-0.335
-0.335
-0.32
-0.325
-0.325
-0.35
-0.325
-0.315
-0.305
-0.31
-0.325
-0.345
-0.34
-0.335
-0.315
-0.32
-0.315
-0.315
-0.31
-0.305
-0.295
-0.295
-0.295
-0.305
-0.31
-0.29
-0.29
-0.295
-0.3
-0.305
-0.295
-0.3
-0.295
-0.3
-0.3
-0.315
-0.315
-0.305
-0.3
-0.305
-0.32
-0.335
-0.32
-0.315
-0.305
-0.315
-0.33
-0.34
-0.35
-0.325
-0.33
-0.335
-0.335
-0.36
-0.355
-0.36
-0.36
-0.365
-0.375
-0.39
-0.385
-0.365
-0.36
-0.38
-0.39
-0.395
-0.39
-0.385
-0.375
-0.385
-0.375
-0.395
-0.395
-0.4
-0.39
-0.39
-0.405
-0.415
-0.395
-0.4
-0.38
-0.385
-0.405
-0.415
-0.4
-0.39
-0.375
-0.37
-0.36
-0.35
-0.345
-0.33
-0.325
-0.32
-0.325
-0.335
-0.32
-0.305
-0.29
-0.29
-0.305
-0.305
-0.31
-0.28
-0.295
-0.295
-0.305
-0.34
-0.335
-0.355
-0.355
-0.365
-0.34
-0.36
-0.35
-0.335
-0.34
-0.355
-0.38
-0.41
-0.405
-0.4
-0.41
-0.415
-0.43
-0.455
-0.45
-0.44
-0.465
-0.45
-0.47
-0.475
-0.475
-0.46
-0.45
-0.46
-0.46
-0.47
-0.475
-0.47
-0.465
-0.465
-0.455
-0.465
-0.46
-0.45
-0.455
-0.465
-0.48
-0.495
-0.52
-0.58
-0.6
-0.59
-0.555
-0.505
-0.395
-0.175
0.155
0.51
0.85
1.18
1.46
1.64
1.655
1.475
1.06
0.51
-0.005
-0.38
-0.565
-0.625
-0.61
-0.54
-0.44
-0.385
-0.38
-0.425
-0.455
-0.45
-0.445
-0.445
-0.46
-0.47
-0.495
-0.51
-0.5
-0.5
-0.48
-0.49
-0.505
-0.52
-0.52
-0.51
-0.51
-0.515
-0.51
-0.515
-0.51
-0.52
-0.51
-0.51
-0.51
-0.515
-0.51
-0.505
-0.495
-0.49
-0.49
-0.5
-0.505
-0.49
-0.485
-0.47
-0.475
-0.49
-0.485
-0.475
-0.465
-0.47
-0.45
-0.45
-0.435
-0.42
-0.41
-0.405
-0.4
-0.405
-0.39
-0.365
-0.33
-0.325
-0.3
-0.305
-0.285
-0.27
-0.225
-0.21
-0.19
-0.19
-0.165
-0.155
-0.12
-0.105
-0.1
-0.095
-0.09
-0.075
-0.035
-0.03
-0.035
-0.045
-0.03
-0.015
-0.005
-0.005
-0.015
-0.025
-0.035
-0.04
-0.035
-0.05
-0.08
-0.11
-0.13
-0.135
-0.16
-0.185
-0.215
-0.255
-0.27
-0.275
-0.285
-0.3
-0.315
-0.34
-0.335
-0.335
-0.34
-0.355
-0.37
-0.38
-0.37
-0.36
-0.355
-0.365
-0.385
-0.39
-0.385
-0.385
-0.375
-0.39
-0.375
-0.39
-0.38
-0.375
-0.365
-0.36
-0.38
-0.365
-0.38
-0.355
-0.345
-0.335
-0.345
-0.355
-0.345
-0.335
-0.32
-0.32
-0.32
-0.335
-0.335
-0.335
-0.315
-0.32
-0.325
-0.33
-0.325
-0.315
-0.305
-0.315
-0.315
-0.34
-0.34
-0.33
-0.33
-0.33
-0.33
-0.36
-0.355
-0.345
-0.34
-0.335
-0.345
-0.355
-0.365
-0.36
-0.35
-0.35
-0.36
-0.37
-0.385
-0.37
-0.36
-0.36
-0.38
-0.39
-0.385
-0.375
-0.375
-0.39
-0.385
-0.4
-0.395
-0.395
-0.385
-0.39
-0.4
-0.41
-0.405
-0.405
-0.395
-0.395
-0.42
-0.425
-0.415
-0.405
-0.395
-0.39
-0.405
-0.41
-0.395
-0.385
-0.37
-0.355
-0.355
-0.35
-0.335
-0.33
-0.32
-0.32
-0.325
-0.325
-0.305
-0.295
-0.285
-0.305
-0.31
-0.285
-0.29
-0.285
-0.285
-0.295
-0.31
-0.335
-0.35
-0.355
-0.34
-0.33
-0.33
-0.33
-0.335
-0.34
-0.345
-0.36
-0.375
-0.41
-0.405
-0.405
-0.405
-0.425
-0.435
-0.45
-0.46
-0.46
-0.455
-0.46
-0.465
-0.475
-0.475
-0.47
-0.455
-0.465
-0.47
-0.485
-0.475
-0.465
-0.465
-0.465
-0.49
-0.485
-0.47
-0.47
-0.455
-0.465
-0.465
-0.475
-0.515
-0.57
-0.605
-0.64
-0.61
-0.56
-0.485
-0.33
-0.07
0.29
0.705
1.08
1.445
1.705
1.825
1.775
1.515
1.02
0.415
-0.1
-0.435
-0.595
-0.62
-0.585
-0.495
-0.39
-0.36
-0.37
-0.425
-0.45
-0.46
-0.45
-0.435
-0.445
-0.475
-0.49
-0.505
-0.5
-0.49
-0.505
-0.515
-0.51
-0.51
-0.5
-0.5
-0.495
-0.515
-0.525
-0.525
-0.525
-0.495
-0.505
-0.505
-0.52
-0.515
-0.5
-0.505
-0.5
-0.5
-0.515
-0.505
-0.49
-0.48
-0.49
-0.485
-0.49
-0.48
-0.475
-0.445
-0.445
-0.445
-0.455
-0.445
-0.445
-0.415
-0.41
-0.41
-0.4
-0.395
-0.375
-0.355
-0.34
-0.33
-0.325
-0.295
-0.27
-0.25
-0.235
-0.23
-0.21
-0.195
-0.17
-0.15
-0.14
-0.12
-0.115
-0.1
-0.06
-0.05
-0.04
-0.035
-0.025
-0.02
0.0
0.025
0.03
0.03
0.03
0.03
0.035
0.04
0.045
0.02
0.0
0.0
0.005
-0.015
-0.04
-0.065
-0.095
-0.115
-0.135
-0.15
-0.19
-0.21
-0.245
-0.255
-0.27
-0.285
-0.305
-0.335
-0.34
-0.345
-0.335
-0.345
-0.35
-0.365
-0.37
-0.38
-0.365
-0.36
-0.365
-0.375
-0.38
-0.385
-0.39
-0.37
-0.375
-0.385
-0.385
-0.375
-0.38
-0.365
-0.355
-0.375
-0.385
-0.38
-0.36
-0.355
-0.35
-0.345
-0.365
-0.36
-0.345
-0.315
-0.335
-0.355
-0.355
-0.35
-0.34
-0.33
-0.33
-0.34
-0.34
-0.345
-0.34
-0.325
-0.34
-0.335
-0.34
-0.345
-0.325
-0.32
-0.32
-0.34
-0.345
-0.345
-0.335
-0.32
-0.34
-0.34
-0.365
-0.355
-0.35
-0.35
-0.355
-0.36
-0.375
-0.385
-0.36
-0.35
-0.36
-0.38
-0.405
-0.39
-0.38
-0.37
-0.38
-0.39
-0.39
-0.395
-0.395
-0.385
-0.385
-0.41
-0.405
-0.415
-0.41
-0.395
-0.405
-0.41
-0.425
-0.42
-0.42
-0.41
-0.4
-0.415
-0.42
-0.42
-0.41
-0.4
-0.405
-0.42
-0.435
-0.44
-0.41
-0.4
-0.385
-0.405
-0.4
-0.39
-0.365
-0.35
-0.34
-0.345
-0.35
-0.34
-0.325
-0.32
-0.315
-0.32
-0.325
-0.32
-0.31
-0.285
-0.295
-0.305
-0.32
-0.32
-0.325
-0.335
-0.355
-0.37
-0.37
-0.365
-0.335
-0.32
-0.335
-0.36
-0.385
-0.41
-0.4
-0.4
-0.41
-0.425
-0.44
-0.47
-0.46
-0.46
-0.465
-0.475
-0.485
-0.485
-0.47
-0.475
-0.49
-0.485
-0.495
-0.5
-0.495
-0.475
-0.47
-0.495
-0.495
-0.495
-0.475
-0.47
-0.47
-0.485
-0.48
-0.475
-0.475
-0.48
-0.55
-0.625
-0.68
-0.655
-0.58
-0.485
-0.3
0.02
0.43
0.855
1.265
1.58
1.8
1.855
1.72
1.31
0.735
0.175
-0.275
-0.52
-0.615
-0.62
-0.59
-0.505
-0.43
-0.38
-0.39
-0.435
-0.445
-0.445
-0.46
-0.465
-0.48
-0.495
-0.495
-0.5
-0.495
-0.51
-0.515
-0.53
-0.51
-0.505
-0.515
-0.52
-0.52
-0.53
-0.525
-0.515
-0.53
-0.53
-0.53
-0.525
-0.505
-0.495
-0.505
-0.505
-0.52
-0.52
-0.495
-0.49
-0.475
-0.485
-0.49
-0.485
-0.48
-0.465
-0.46
-0.465
-0.465
-0.45
-0.44
-0.43
-0.41
-0.415
-0.41
-0.395
-0.365
-0.345
-0.34
-0.34
-0.32
-0.31
-0.28
-0.245
-0.235
-0.23
-0.21
-0.19
-0.17
-0.145
-0.13
-0.13
-0.105
-0.09
-0.055
-0.025
-0.02
-0.02
-0.015
0.005
0.01
0.02
0.035
0.045
0.035
0.03
0.03
0.035
0.01
0.005
-0.01
-0.015
-0.035
-0.04
-0.08
-0.1
-0.135
-0.15
-0.17
-0.185
-0.215
-0.235
-0.265
-0.28
-0.3
-0.3
-0.325
-0.335
-0.335
-0.35
-0.345
-0.35
-0.375
-0.385
-0.385
-0.395
-0.385
-0.375
-0.385
-0.385
-0.39
-0.4
-0.39
-0.375
-0.38
-0.375
-0.38
-0.38
-0.37
-0.35
-0.355
-0.36
-0.38
-0.385
-0.365
-0.35
-0.355
-0.355
-0.375
-0.365
-0.355
-0.34
-0.345
-0.345
-0.37
-0.35
-0.335
-0.325
-0.33
-0.34
-0.355
-0.345
-0.335
-0.325
-0.33
-0.33
-0.34
-0.35
-0.335
-0.335
-0.34
-0.335
-0.34
-0.355
-0.35
-0.345
-0.35
-0.355
-0.385
-0.385
-0.37
-0.36
-0.36
-0.37
-0.385
-0.395
-0.395
-0.38
-0.395
-0.395
-0.395
-0.41
-0.395
-0.38
-0.39
-0.405
-0.415
-0.41
-0.41
-0.405
-0.405
-0.425
-0.425
-0.43
-0.415
-0.42
-0.42
-0.42
-0.44
-0.45
-0.435
-0.425
-0.415
-0.43
-0.445
-0.44
-0.425
-0.425
-0.425
-0.435
-0.43
-0.445
-0.415
-0.405
-0.4
-0.385
-0.38
-0.385
-0.365
-0.345
-0.35
-0.355
-0.355
-0.36
-0.335
-0.31
-0.33
-0.335
-0.335
-0.335
-0.32
-0.305
-0.32
-0.335
-0.37
-0.38
-0.385
-0.375
-0.38
-0.36
-0.365
-0.365
-0.36
-0.36
-0.375
-0.405
-0.425
-0.43
-0.42
-0.415
-0.42
-0.445
-0.445
-0.475
-0.465
-0.465
-0.475
-0.475
-0.485
-0.485
-0.47
-0.47
-0.475
-0.475
-0.48
-0.49
-0.485
-0.47
-0.47
-0.495
-0.495
-0.495
-0.48
-0.46
-0.47
-0.475
-0.475
-0.5
-0.51
-0.565
-0.615
-0.625
-0.59
-0.515
-0.41
-0.225
0.105
0.505
0.895
1.265
1.555
1.73
1.73
1.545
1.1
0.48
-0.06
-0.41
-0.565
-0.615
-0.61
-0.565
-0.465
-0.38
-0.375
-0.415
-0.44
-0.45
-0.435
-0.42
-0.435
-0.455
-0.475
-0.5
-0.485
-0.49
-0.485
-0.5
-0.495
-0.495
-0.49
-0.49
-0.505
-0.51
-0.51
-0.515
-0.5
-0.485
-0.48
-0.48
-0.495
-0.51
-0.485
-0.475
-0.485
-0.485
-0.49
-0.475
-0.465
-0.445
-0.46
-0.47
-0.465
-0.46
-0.46
-0.445
-0.445
-0.44
-0.45
-0.44
-0.42
-0.4
-0.4
-0.38
-0.385
-0.375
-0.36
-0.34
-0.33
-0.32
-0.31
-0.29
-0.275
-0.245
-0.225
-0.22
-0.2
-0.2
-0.165
-0.135
-0.125
-0.1
-0.095
-0.075
-0.065
-0.035
-0.03
-0.03
-0.03
-0.02
0.01
0.02
0.03
0.035
0.03
0.025
0.035
0.05
0.03
0.03
0.015
-0.015
-0.005
-0.005
-0.04
-0.065
-0.095
-0.12
-0.135
-0.135
-0.16
-0.195
-0.22
-0.235
-0.245
-0.255
-0.265
-0.275
-0.3
-0.305
-0.3
-0.295
-0.305
-0.325
-0.325
-0.325
-0.31
-0.305
-0.325
-0.34
-0.33
-0.33
-0.32
-0.315
-0.315
-0.32
-0.315
-0.32
-0.325
-0.315
-0.33
-0.32
-0.32
-0.32
-0.305
-0.3
-0.295
-0.3
-0.3
-0.3
-0.3
-0.285
-0.28
-0.285
-0.3
-0.285
-0.27
-0.265
-0.275
-0.27
-0.28
-0.28
-0.27
-0.255
-0.25
-0.275
-0.28
-0.28
-0.27
-0.26
-0.275
-0.275
-0.275
-0.28
-0.26
-0.26
-0.265
-0.28
-0.28
-0.285
-0.28
-0.285
-0.29
-0.29
-0.285
-0.295
-0.29
-0.285
-0.3
-0.31
-0.31
-0.315
-0.31
-0.305
-0.3
-0.325
-0.345
-0.345
-0.33
-0.325
-0.31
-0.32
-0.33
-0.33
-0.325
-0.325
-0.335
-0.335
-0.35
-0.35
-0.335
-0.33
-0.325
-0.335
-0.35
-0.355
-0.345
-0.335
-0.34
-0.35
-0.35
-0.355
-0.34
-0.335
-0.335
-0.335
-0.34
-0.355
-0.335
-0.32
-0.325
-0.3
-0.305
-0.3
-0.275
-0.255
-0.255
-0.26
-0.25
-0.255
-0.255
-0.215
-0.22
-0.215
-0.225
-0.235
-0.225
-0.205
-0.205
-0.215
-0.225
-0.245
-0.25
-0.26
-0.265
-0.28
-0.29
-0.27
-0.25
-0.24
-0.25
-0.27
-0.29
-0.315
-0.31
-0.31
-0.32
-0.34
-0.35
-0.35
-0.345
-0.345
-0.36
-0.365
-0.38
-0.385
-0.38
-0.365
-0.375
-0.38
-0.38
-0.395
-0.385
-0.385
-0.395
-0.38
-0.39
-0.39
-0.375
-0.36
-0.355
-0.38
-0.38
-0.38
-0.37
-0.36
-0.365
-0.375
-0.4
-0.46
-0.5
-0.525
-0.51
-0.46
-0.4
-0.305
-0.085
0.235
0.61
0.965
1.305
1.605
1.83
1.92
1.85
1.575
1.065
0.455
-0.04
-0.335
-0.465
-0.5
-0.48
-0.415
-0.325
-0.255
-0.26
-0.29
-0.32
-0.335
-0.33
-0.315
-0.325
-0.345
-0.355
-0.375
-0.375
-0.385
-0.38
-0.395
-0.395
-0.4
-0.395
-0.385
-0.38
-0.385
-0.395
-0.395
-0.395
-0.385
-0.385
-0.395
-0.385
-0.39
-0.38
-0.37
-0.37
-0.37
-0.395
-0.395
-0.38
-0.35
-0.355
-0.35
-0.365
-0.37
-0.355
-0.35
-0.345
-0.35
-0.34
-0.33
-0.325
-0.305
-0.305
-0.295
-0.295
-0.3
-0.29
-0.26
-0.26
-0.245
-0.235
-0.225
-0.205
-0.18
-0.165
-0.16
-0.14
-0.14
-0.105
-0.075
-0.06
-0.06
-0.045
-0.03
-0.005
0.015
0.035
0.045
0.045
0.055
0.075
0.105
0.105
0.11
0.12
0.12
0.14
0.155
0.165
0.16
0.145
0.155
0.155
0.155
0.145
0.125
0.105
0.09
0.085
0.08
0.055
0.025
0.0
-0.015
-0.045
-0.045
-0.075
-0.095
-0.12
-0.125
-0.145
-0.15
-0.175
-0.185
-0.195
-0.21
-0.2
-0.2
-0.225
-0.23
-0.245
-0.245
-0.245
-0.24
-0.24
-0.245
-0.255
-0.255
-0.245
-0.235
-0.245
-0.245
-0.255
-0.255
-0.24
-0.22
-0.22
-0.235
-0.25
-0.25
-0.235
-0.23
-0.23
-0.235
-0.235
-0.24
-0.225
-0.205
-0.215
-0.215
-0.225
-0.235
-0.225
-0.205
-0.21
-0.215
-0.23
-0.22
-0.215
-0.2
-0.205
-0.205
-0.215
-0.22
-0.205
-0.195
-0.195
-0.205
-0.215
-0.21
-0.205
-0.205
-0.2
-0.215
-0.22
-0.215
-0.225
-0.2
-0.22
-0.225
-0.235
-0.245
-0.235
-0.225
-0.23
-0.24
-0.25
-0.245
-0.245
-0.235
-0.25
-0.25
-0.28
-0.265
-0.255
-0.245
-0.25
-0.255
-0.27
-0.28
-0.27
-0.26
-0.265
-0.275
-0.285
-0.295
-0.28
-0.27
-0.275
-0.285
-0.29
-0.295
-0.285
-0.285
-0.29
-0.3
-0.31
-0.305
-0.295
-0.285
-0.295
-0.31
-0.32
-0.315
-0.295
-0.295
-0.28
-0.28
-0.295
-0.31
-0.295
-0.28
-0.285
-0.28
-0.28
-0.285
-0.275
-0.235
-0.22
-0.225
-0.225
-0.23
-0.21
-0.2
-0.2
-0.18
-0.195
-0.2
-0.195
-0.18
-0.175
-0.18
-0.18
-0.205
-0.205
-0.215
-0.245
-0.255
-0.25
-0.245
-0.23
-0.205
-0.23
-0.255
-0.265
-0.295
-0.295
-0.285
-0.295
-0.315
-0.33
-0.35
-0.34
-0.34
-0.36
-0.37
-0.38
-0.375
-0.36
-0.345
-0.365
-0.36
-0.375
-0.38
-0.365
-0.36
-0.36
-0.37
-0.365
-0.375
-0.37
-0.36
-0.36
-0.36
-0.39
-0.38
-0.365
-0.345
-0.355
-0.365
-0.36
-0.365
-0.37
-0.38
-0.435
-0.495
-0.53
-0.525
-0.445
-0.365
-0.24
-0.015
0.33
0.745
1.155
1.525
1.78
1.905
1.855
1.615
1.11
0.52
0.01
-0.315
-0.455
-0.47
-0.455
-0.415
-0.34
-0.275
-0.275
-0.3
-0.31
-0.29
-0.305
-0.315
-0.325
-0.335
-0.35
-0.345
-0.365
-0.375
-0.375
-0.38
-0.38
-0.36
-0.375
-0.375
-0.395
-0.385
-0.38
-0.375
-0.37
-0.37
-0.375
-0.38
-0.38
-0.37
-0.375
-0.37
-0.375
-0.38
-0.37
-0.365
-0.36
-0.37
-0.38
-0.385
-0.355
-0.355
-0.35
-0.355
-0.355
-0.35
-0.335
-0.325
-0.315
-0.32
-0.315
-0.31
-0.29
-0.275
-0.285
-0.275
-0.265
-0.265
-0.24
-0.205
-0.2
-0.195
-0.19
-0.17
-0.155
-0.12
-0.115
-0.12
-0.095
-0.085
-0.06
-0.035
-0.02
-0.01
-0.01
0.0
0.03
0.065
0.065
0.065
0.07
0.08
0.105
0.125
0.13
0.14
0.13
0.125
0.15
0.155
0.155
0.145
0.14
0.135
0.13
0.125
0.1
0.095
0.07
0.065
0.045
0.04
0.025
-0.005
-0.035
-0.06
-0.075
-0.095
-0.115
-0.13
-0.15
-0.16
-0.17
-0.17
-0.185
-0.215
-0.225
-0.235
-0.235
-0.225
-0.235
-0.245
-0.255
-0.275
-0.25
-0.255
-0.26
-0.265
-0.27
-0.27
-0.26
-0.25
-0.265
-0.255
-0.265
-0.27
-0.255
-0.24
-0.255
-0.25
-0.26
-0.275
-0.245
-0.225
-0.235
-0.235
-0.24
-0.24
-0.235
-0.22
-0.225
-0.23
-0.235
-0.23
-0.225
-0.2
-0.2
-0.21
-0.22
-0.225
-0.215
-0.2
-0.205
-0.205
-0.205
-0.215
-0.215
-0.205
-0.2
-0.21
-0.21
-0.225
-0.205
-0.19
-0.2
-0.21
-0.22
-0.23
-0.225
-0.21
-0.22
-0.22
-0.23
-0.24
-0.24
-0.235
-0.255
-0.24
-0.26
-0.265
-0.26
-0.245
-0.255
-0.255
-0.26
-0.28
-0.27
-0.27
-0.275
-0.285
-0.285
-0.29
-0.28
-0.275
-0.275
-0.29
-0.285
-0.305
-0.3
-0.29
-0.295
-0.285
-0.295
-0.305
-0.31
-0.31
-0.31
-0.295
-0.31
-0.315
-0.3
-0.305
-0.305
-0.315
-0.315
-0.32
-0.31
-0.3
-0.305
-0.29
-0.29
-0.28
-0.27
-0.235
-0.225
-0.235
-0.235
-0.23
-0.22
-0.21
-0.205
-0.195
-0.215
-0.215
-0.21
-0.2
-0.185
-0.19
-0.205
-0.225
-0.235
-0.225
-0.245
-0.245
-0.26
-0.245
-0.235
-0.215
-0.225
-0.245
-0.265
-0.295
-0.295
-0.29
-0.305
-0.305
-0.325
-0.335
-0.335
-0.335
-0.35
-0.355
-0.375
-0.385
-0.385
-0.36
-0.37
-0.38
-0.385
-0.39
-0.39
-0.38
-0.36
-0.375
-0.38
-0.385
-0.4
-0.375
-0.37
-0.37
-0.385
-0.39
-0.375
-0.36
-0.355
-0.36
-0.37
-0.39
-0.4
-0.44
-0.495
-0.545
-0.54
-0.495
-0.42
-0.34
-0.2
0.05
0.375
0.74
1.08
1.4
1.68
1.83
1.9
1.82
1.555
1.085
0.495
-0.005
-0.315
-0.46
-0.495
-0.49
-0.475
-0.4
-0.335
-0.295
-0.325
-0.335
-0.345
-0.34
-0.36
-0.355
-0.355
-0.355
-0.365
-0.4
-0.415
-0.41
-0.405
-0.39
-0.39
-0.4
-0.41
-0.41
-0.4
-0.395
-0.405
-0.425
-0.425
-0.43
-0.41
-0.405
-0.41
-0.425
-0.43
-0.43
-0.41
-0.395
-0.4
-0.405
-0.415
-0.415
-0.405
-0.385
-0.39
-0.39
-0.4
-0.4
-0.38
-0.36
-0.365
-0.375
-0.375
-0.385
-0.35
-0.335
-0.34
-0.33
-0.335
-0.335
-0.305
-0.285
-0.28
-0.295
-0.285
-0.275
-0.26
-0.23
-0.21
-0.21
-0.21
-0.185
-0.19
-0.16
-0.135
-0.14
-0.13
-0.105
-0.09
-0.05
-0.045
-0.035
-0.03
-0.025
-0.005
0.02
0.03
0.03
0.04
0.035
0.065
0.08
0.085
0.085
0.08
0.085
0.1
0.105
0.11
0.105
0.085
0.065
0.06
0.055
0.035
0.02
-0.005
-0.03
-0.045
-0.05
-0.07
-0.105
-0.125
-0.16
-0.17
-0.175
-0.205
-0.215
-0.225
-0.235
-0.245
-0.255
-0.265
-0.275
-0.285
-0.3
-0.3
-0.29
-0.305
-0.305
-0.33
-0.32
-0.32
-0.31
-0.325
-0.32
-0.315
-0.31
-0.29
-0.29
-0.3
-0.32
-0.35
-0.365
-0.37
-0.335
-0.315
-0.28
-0.265
-0.26
-0.25
-0.25
-0.25
-0.245
-0.25
-0.265
-0.275
-0.255
-0.26
-0.24
-0.22
-0.235
-0.23
-0.215
-0.23
-0.23
-0.235
-0.24
-0.23
-0.23
-0.235
-0.245
-0.245
-0.255
-0.245
-0.235
-0.25
-0.255
-0.27
-0.275
-0.275
-0.26
-0.265
-0.27
-0.265
-0.28
-0.28
-0.275
-0.275
-0.29
-0.31
-0.31
-0.305
-0.29
-0.31
-0.315
-0.315
-0.33
-0.315
-0.31
-0.31
-0.32
-0.33
-0.34
-0.325
-0.32
-0.335
-0.34
-0.35
-0.345
-0.33
-0.325
-0.325
-0.345
-0.355
-0.355
-0.35
-0.33
-0.34
-0.345
-0.355
-0.36
-0.355
-0.345
-0.35
-0.35
-0.355
-0.37
-0.375
-0.355
-0.355
-0.365
-0.375
-0.37
-0.37
-0.335
-0.355
-0.35
-0.345
-0.345
-0.325
-0.305
-0.285
-0.285
-0.295
-0.28
-0.28
-0.27
-0.27
-0.275
-0.265
-0.26
-0.26
-0.245
-0.25
-0.26
-0.255
-0.26
-0.265
-0.285
-0.305
-0.32
-0.32
-0.315
-0.29
-0.275
-0.29
-0.31
-0.33
-0.33
-0.345
-0.345
-0.355
-0.385
-0.395
-0.405
-0.39
-0.395
-0.405
-0.415
-0.425
-0.425
-0.41
-0.405
-0.42
-0.42
-0.43
-0.43
-0.425
-0.415
-0.415
-0.42
-0.425
-0.435
-0.415
-0.4
-0.42
-0.42
-0.42
-0.42
-0.41
-0.4
-0.405
-0.405
-0.42
-0.41
-0.415
-0.405
-0.445
-0.51
-0.545
-0.55
-0.485
-0.405
-0.32
-0.115
0.205
0.6
1.02
1.38
1.66
1.81
1.81
1.6
1.145
0.54
-0.015
-0.375
-0.525
-0.57
-0.54
-0.475
-0.385
-0.335
-0.345
-0.36
-0.37
-0.36
-0.355
-0.375
-0.385
-0.395
-0.39
-0.395
-0.4
-0.41
-0.425
-0.435
-0.42
-0.41
-0.42
-0.425
-0.435
-0.435
-0.425
-0.41
-0.415
-0.435
-0.445
-0.435
-0.42
-0.415
-0.41
-0.405
-0.43
-0.43
-0.415
-0.405
-0.39
-0.4
-0.405
-0.4
-0.39
-0.37
-0.375
-0.38
-0.38
-0.38
-0.38
-0.345
-0.345
-0.34
-0.34
-0.34
-0.32
-0.305
-0.295
-0.295
-0.29
-0.28
-0.245
-0.23
-0.22
-0.21
-0.21
-0.19
-0.165
-0.135
-0.12
-0.105
-0.09
-0.075
-0.055
-0.025
-0.015
-0.005
-0.01
0.01
0.045
0.065
0.06
0.07
0.07
0.075
0.095
0.115
0.12
0.11
0.1
0.1
0.095
0.095
0.07
0.055
0.04
0.02
0.005
0.015
-0.03
-0.06
-0.095
-0.11
-0.115
-0.135
-0.155
-0.18
-0.205
-0.21
-0.225
-0.22
-0.24
-0.255
-0.27
-0.285
-0.28
-0.26
-0.27
-0.285
-0.295
-0.31
-0.29
-0.275
-0.285
-0.29
-0.305
-0.315
-0.295
-0.295
-0.285
-0.29
-0.29
-0.295
-0.285
-0.28
-0.275
-0.285
