Lead II
-0.92
-0.915
-0.91
-0.925
-0.955
-0.985
-1.0
-1.03
-1.025
-1.065
-1.1
-1.105
-1.095
-1.075
-1.065
-1.08
-1.11
-1.12
-1.125
-1.115
-1.12
-1.125
-1.14
-1.125
-1.125
-1.11
-1.08
-1.1
-1.125
-1.135
-1.16
-1.175
-1.2
-1.265
-1.315
-1.33
-1.26
-1.17
-1.025
-0.885
-0.705
-0.51
-0.32
-0.115
0.04
0.2
0.35
0.47
0.555
0.605
0.605
0.55
0.465
0.355
0.19
-0.065
-0.37
-0.71
-0.945
-1.05
-1.105
-1.065
-1.025
-1.015
-1.0
-1.025
-1.08
-1.125
-1.17
-1.215
-1.23
-1.205
-1.195
-1.19
-1.195
-1.2
-1.19
-1.175
-1.18
-1.185
-1.2
-1.22
-1.21
-1.185
-1.165
-1.19
-1.175
-1.175
-1.19
-1.18
-1.175
-1.19
-1.205
-1.205
-1.185
-1.155
-1.16
-1.155
-1.15
-1.175
-1.16
-1.16
-1.165
-1.17
-1.165
-1.175
-1.16
-1.13
-1.145
-1.135
-1.13
-1.14
-1.135
-1.135
-1.15
-1.14
-1.145
-1.15
-1.125
-1.1
-1.085
-1.07
-1.075
-1.075
-1.065
-1.065
-1.07
-1.085
-1.09
-1.095
-1.095
-1.065
-1.055
-1.055
-1.055
-1.07
-1.065
-1.065
-1.075
-1.08
-1.075
-1.075
-1.06
-1.045
-1.035
-1.045
-1.035
-1.04
-1.04
-1.05
-1.06
-1.075
-1.09
-1.085
-1.085
-1.065
-1.055
-1.05
-1.055
-1.08
-1.075
-1.08
-1.075
-1.095
-1.095
-1.1
-1.09
-1.07
-1.065
-1.085
-1.07
-1.07
-1.075
-1.065
-1.075
-1.1
-1.135
-1.135
-1.125
-1.11
-1.125
-1.13
-1.12
-1.12
-1.115
-1.125
-1.155
-1.15
-1.175
-1.165
-1.145
-1.135
-1.13
-1.14
-1.145
-1.15
-1.145
-1.13
-1.16
-1.175
-1.175
-1.17
-1.175
-1.16
-1.14
-1.125
-1.135
-1.13
-1.125
-1.155
-1.165
-1.17
-1.16
-1.14
-1.13
-1.12
-1.13
-1.125
-1.1
-1.085
-1.065
-1.085
-1.11
-1.115
-1.1
-1.085
-1.07
-1.07
-1.07
-1.06
-1.03
-1.015
-0.99
-0.965
-0.965
-0.955
-0.915
-0.9
-0.87
-0.865
-0.89
-0.875
-0.865
-0.865
-0.845
-0.855
-0.865
-0.885
-0.9
-0.905
-0.9
-0.92
-0.91
-0.935
-0.925
-0.945
-0.975
-0.99
-1.03
-1.065
-1.07
-1.09
-1.09
-1.08
-1.08
-1.085
-1.085
-1.08
-1.075
-1.075
-1.115
-1.125
-1.105
-1.095
-1.09
-1.08
-1.075
-1.07
-1.065
-1.09
-1.13
-1.185
-1.265
-1.3
-1.305
-1.265
-1.175
-1.045
-0.855
-0.64
-0.385
-0.195
-0.035
0.11
0.235
0.39
0.515
0.62
0.65
0.68
0.66
0.605
0.55
0.41
0.195
-0.11
-0.445
-0.72
-0.91
-1.025
-1.04
-0.99
-0.945
-0.89
-0.86
-0.895
-0.96
-1.03
-1.095
-1.135
-1.15
-1.155
-1.165
-1.175
-1.17
-1.16
-1.14
-1.14
-1.145
-1.155
-1.17
-1.145
-1.15
-1.115
-1.125
-1.145
-1.13
-1.13
-1.115
-1.115
-1.145
-1.15
-1.18
-1.17
-1.145
-1.12
-1.125
-1.12
-1.125
-1.135
-1.105
-1.115
-1.1
-1.135
-1.13
-1.12
-1.1
-1.09
-1.105
-1.125
-1.12
-1.1
-1.085
-1.075
-1.095
-1.105
-1.1
-1.1
-1.09
-1.075
-1.075
-1.075
-1.065
-1.045
-1.025
-1.02
-1.0
-1.035
-1.04
-1.06
-1.045
-1.035
-1.02
-1.025
-1.03
-1.03
-1.025
-1.02
-1.005
-0.99
-1.015
-1.025
-1.025
-1.02
-1.0
-0.995
-0.975
-0.99
-0.985
-0.98
-0.96
-0.97
-0.98
-1.005
-1.005
-1.0
-0.975
-0.965
-0.96
-0.975
-0.97
-0.975
-0.965
-0.96
-0.975
-1.005
-1.02
-0.995
-0.985
-0.98
-0.985
-1.005
-0.985
-0.99
-0.98
-0.985
-1.01
-1.02
-1.035
-1.035
-1.02
-0.99
-0.995
-1.01
-1.015
-1.01
-1.01
-0.995
-1.025
-1.04
-1.04
-1.055
-1.05
-1.045
-1.06
-1.05
-1.05
-1.045
-1.035
-1.035
-1.06
-1.075
-1.08
-1.075
-1.06
-1.05
-1.04
-1.06
-1.045
-1.055
-1.05
-1.055
-1.07
-1.065
-1.075
-1.065
-1.05
-1.03
-1.01
-1.04
-1.02
-1.0
-0.99
-0.99
-0.99
-1.0
-1.035
-0.99
-0.975
-0.95
-0.93
-0.94
-0.93
-0.935
-0.9
-0.87
-0.855
-0.845
-0.845
-0.845
-0.82
-0.785
-0.77
-0.79
-0.78
-0.77
-0.76
-0.77
-0.785
-0.805
-0.83
-0.845
-0.845
-0.835
-0.84
-0.855
-0.89
-0.905
-0.905
-0.905
-0.925
-0.95
-0.975
-0.985
-0.99
-0.995
-0.995
-1.005
-1.005
-1.02
-1.035
-1.03
-1.03
-1.03
-1.045
-1.05
-1.065
-1.055
-1.02
-0.985
-0.99
-1.015
-1.035
-1.06
-1.09
-1.135
-1.195
-1.26
-1.285
-1.225
-1.14
-1.0
-0.815
-0.635
-0.435
-0.245
-0.05
0.11
0.28
0.41
0.51
0.6
0.67
0.71
0.715
0.675
0.58
0.475
0.32
0.11
-0.18
-0.495
-0.755
-0.915
-0.99
-0.97
-0.9
-0.86
-0.845
-0.85
-0.895
-0.94
-0.985
-1.04
-1.08
-1.105
-1.085
-1.07
-1.055
-1.065
-1.08
-1.1
-1.095
-1.07
-1.05
-1.055
-1.055
-1.06
-1.065
-1.04
-1.03
-1.03
-1.05
-1.065
-1.075
-1.075
-1.07
-1.055
-1.065
-1.065
-1.07
-1.055
-1.035
-1.03
-1.05
-1.075
-1.085
-1.08
-1.06
-1.05
-1.045
-1.035
-1.045
-1.04
-1.005
-1.01
-1.015
-1.015
-1.04
-1.045
-1.03
-1.02
-1.005
-1.03
-1.01
-1.005
-0.975
-0.97
-0.975
-0.965
-0.985
-0.99
-0.985
-0.985
-0.96
-0.96
-0.955
-0.945
-0.935
-0.925
-0.92
-0.935
-0.955
-0.98
-0.96
-0.95
-0.935
-0.935
-0.94
-0.935
-0.925
-0.9
-0.895
-0.91
-0.93
-0.93
-0.92
-0.9
-0.89
-0.895
-0.915
-0.945
-0.92
-0.925
-0.9
-0.91
-0.95
-0.96
-0.96
-0.94
-0.925
-0.925
-0.93
-0.935
-0.915
-0.91
-0.89
-0.915
-0.94
-0.95
-0.97
-0.965
-0.955
-0.95
-0.94
-0.94
-0.965
-0.95
-0.915
-0.945
-0.945
-0.96
-0.975
-0.99
-0.965
-0.97
-0.97
-0.985
-0.99
-0.965
-0.97
-0.975
-0.98
-1.005
-1.01
-1.01
-0.99
-0.985
-0.985
-0.99
-1.01
-0.995
-0.98
-0.98
-1.0
-1.01
-1.03
-1.0
-1.0
-0.98
-0.965
-0.975
-0.97
-0.97
-0.955
-0.96
-0.97
-0.995
-0.98
-0.955
-0.94
-0.915
-0.905
-0.915
-0.915
-0.91
-0.88
-0.86
-0.86
-0.87
-0.86
-0.855
-0.815
-0.775
-0.765
-0.74
-0.755
-0.745
-0.75
-0.735
-0.75
-0.74
-0.77
-0.785
-0.785
-0.77
-0.77
-0.79
-0.8
-0.8
-0.79
-0.805
-0.825
-0.855
-0.91
-0.935
-0.945
-0.935
-0.92
-0.95
-0.965
-0.965
-0.98
-0.95
-0.975
-0.975
-0.99
-1.0
-1.01
-0.985
-0.97
-0.98
-0.975
-0.98
-0.965
-0.965
-1.005
-1.035
-1.09
-1.135
-1.16
-1.145
-1.095
-0.99
-0.825
-0.595
-0.355
-0.135
0.07
0.22
0.38
0.52
0.625
0.68
0.685
0.665
0.635
0.605
0.55
0.445
0.295
0.05
-0.26
-0.555
-0.78
-0.93
-0.975
-0.975
-0.91
-0.855
-0.83
-0.85
-0.905
-0.965
-1.025
-1.04
-1.06
-1.06
-1.07
-1.06
-1.065
-1.04
-1.03
-1.045
-1.055
-1.065
-1.08
-1.065
-1.04
-1.035
-1.06
-1.045
-1.045
-1.04
-1.03
-1.02
-1.035
-1.055
-1.065
-1.035
-1.05
-1.055
-1.04
-1.04
-1.035
-1.02
-1.005
-1.01
-1.03
-1.04
-1.035
-1.02
-1.01
-1.025
-1.02
-1.015
-1.0
-0.99
-1.0
-0.99
-1.005
-1.01
-0.995
-0.995
-0.99
-0.99
-0.98
-0.97
-0.935
-0.935
-0.935
-0.95
-0.99
-0.98
-0.97
-0.95
-0.96
-0.975
-0.955
-0.955
-0.91
-0.905
-0.915
-0.925
-0.935
-0.93
-0.935
-0.935
-0.925
-0.935
-0.94
-0.91
-0.895
-0.88
-0.89
-0.895
-0.92
-0.93
-0.92
-0.92
-0.905
-0.925
-0.93
-0.915
-0.895
-0.885
-0.905
-0.915
-0.96
-0.96
-0.935
-0.935
-0.94
-0.94
-0.945
-0.94
-0.91
-0.915
-0.935
-0.95
-0.975
-0.975
-0.97
-0.975
-0.97
-0.99
-1.0
-0.975
-0.975
-0.975
-0.99
-1.005
-1.015
-1.015
-1.02
-1.025
-1.03
-1.05
-1.04
-1.025
-1.0
-0.99
-1.015
-1.025
-1.055
-1.05
-1.03
-1.025
-1.01
-1.025
-1.04
-1.01
-1.015
-0.98
-0.985
-1.01
-1.025
-1.03
-1.005
-1.0
-1.015
-1.02
-1.02
-1.01
-0.98
-0.96
-0.98
-0.99
-1.0
-1.015
-1.015
-0.995
-0.96
-0.955
-0.96
-0.95
-0.94
-0.905
-0.91
-0.91
-0.905
-0.9
-0.87
-0.845
-0.825
-0.815
-0.81
-0.795
-0.765
-0.755
-0.74
-0.75
-0.785
-0.79
-0.795
-0.805
-0.805
-0.815
-0.855
-0.84
-0.83
-0.825
-0.845
-0.87
-0.89
-0.94
-0.96
-0.99
-0.995
-1.015
-1.02
-1.01
-1.0
-0.995
-1.015
-1.035
-1.045
-1.05
-1.04
-1.07
-1.05
-1.07
-1.055
-1.025
-1.025
-1.01
-1.05
-1.075
-1.11
-1.145
-1.185
-1.245
-1.265
-1.25
-1.17
-1.045
-0.86
-0.69
-0.52
-0.33
-0.145
0.03
0.205
0.365
0.5
0.6
0.65
0.655
0.665
0.635
0.555
0.435
0.275
0.04
-0.245
-0.58
-0.815
-0.985
-1.015
-1.015
-0.94
-0.9
-0.905
-0.92
-0.965
-1.0
-1.055
-1.085
-1.11
-1.13
-1.145
-1.115
-1.095
-1.1
-1.125
-1.125
-1.13
-1.125
-1.115
-1.115
-1.11
-1.12
-1.115
-1.09
-1.065
-1.07
-1.09
-1.11
-1.105
-1.1
-1.095
-1.1
-1.1
-1.125
-1.105
-1.09
-1.07
-1.055
-1.055
-1.07
-1.075
-1.09
-1.07
-1.09
-1.08
-1.09
-1.095
-1.07
-1.045
-1.035
-1.035
-1.05
-1.06
-1.055
-1.06
-1.04
-1.03
-1.035
-1.04
-1.035
-1.01
-1.0
-1.0
-1.005
-1.005
-1.01
-1.0
-0.985
-0.995
-0.99
-0.995
-0.985
-0.95
-0.935
-0.935
-0.95
-0.97
-0.965
-0.95
-0.935
-0.94
-0.955
-0.95
-0.935
-0.91
-0.905
-0.925
-0.92
-0.935
-0.94
-0.95
-0.935
-0.95
-0.955
-0.97
-0.94
-0.94
-0.945
-0.955
-0.97
-0.97
-0.955
-0.96
-0.97
-0.98
-0.97
-0.955
-0.96
-0.945
-0.935
-0.945
-0.975
-0.975
-0.98
-0.975
-1.0
-1.005
-1.02
-0.995
-0.995
-0.97
-0.975
-1.0
-1.025
-1.035
-1.02
-1.03
-1.025
-1.055
-1.045
-1.04
-1.02
-1.03
-1.01
-1.035
-1.035
-1.045
-1.045
-1.045
-1.06
-1.07
-1.065
-1.045
-1.01
-1.005
-1.0
-1.015
-1.04
-1.035
-1.015
-1.02
-1.03
-1.045
-1.055
-1.025
-1.01
-0.99
-0.995
-1.0
-0.995
-1.0
-1.0
-1.005
-1.0
-1.02
-1.005
-0.995
-0.97
-0.97
-0.96
-0.97
-0.95
-0.965
-0.945
-0.955
-0.97
-0.96
-0.965
-0.93
-0.89
-0.865
-0.835
-0.815
-0.815
-0.81
-0.79
-0.775
-0.765
-0.79
-0.79
-0.775
-0.765
-0.735
-0.74
-0.775
-0.795
-0.81
-0.815
-0.815
-0.835
-0.845
-0.845
-0.845
-0.86
-0.87
-0.895
-0.925
-0.955
-0.975
-0.975
-0.995
-1.0
-1.025
-1.03
-1.015
-0.995
-0.99
-0.985
-1.01
-1.025
-1.035
-1.015
-1.015
-1.015
-1.03
-1.05
-1.03
-1.03
-1.04
-1.065
-1.125
-1.19
-1.21
-1.185
-1.135
-1.04
-0.9
-0.7
-0.465
-0.26
-0.05
0.13
0.3
0.46
0.585
0.67
0.695
0.69
0.645
0.585
0.54
0.47
0.32
0.1
-0.19
-0.485
-0.73
-0.895
-0.965
-0.98
-0.95
-0.9
-0.865
-0.84
-0.875
-0.92
-1.0
-1.04
-1.07
-1.085
-1.075
-1.08
-1.095
-1.095
-1.075
-1.065
-1.055
-1.07
-1.075
-1.07
-1.055
-1.06
-1.065
-1.07
-1.09
-1.08
-1.07
-1.06
-1.05
-1.04
-1.06
-1.06
-1.065
-1.06
-1.06
-1.05
-1.06
-1.055
-1.04
-1.04
-1.02
-1.035
-1.05
-1.05
-1.03
-1.02
-1.025
-1.035
-1.04
-1.035
-1.01
-0.985
-0.995
-0.995
-0.995
-1.0
-0.975
-0.985
-0.98
-1.0
-1.025
-1.01
-0.975
-0.97
-0.955
-0.945
-0.96
-0.96
-0.94
-0.955
-0.945
-0.96
-0.97
-0.97
-0.94
-0.935
-0.92
-0.915
-0.915
-0.925
-0.925
-0.915
-0.91
-0.9
-0.93
-0.93
-0.915
-0.905
-0.905
-0.9
-0.9
-0.9
-0.89
-0.885
-0.895
-0.915
-0.93
-0.935
-0.94
-0.92
-0.895
-0.9
-0.93
-0.945
-0.95
-0.94
-0.925
-0.955
-0.97
-0.975
-0.945
-0.935
-0.91
-0.925
-0.95
-0.955
-0.94
-0.935
-0.945
-0.96
-1.0
-1.005
-1.01
-0.98
-0.95
-0.96
-0.99
-0.99
-0.97
-0.98
-0.98
-0.995
-1.015
-1.02
-1.015
-0.995
-0.98
-0.975
-0.995
-1.0
-1.005
-1.015
-0.995
-1.005
-1.01
-1.03
-1.03
-1.005
-1.005
-0.965
-0.975
-0.99
-0.98
-0.99
-0.995
-0.995
-0.995
-0.99
-0.995
-0.975
-0.955
-0.92
-0.925
-0.945
-0.97
-0.99
-0.975
-0.96
-0.965
-0.97
-0.985
-0.985
-0.955
-0.935
-0.93
-0.935
-0.95
-0.955
-0.95
-0.945
-0.915
-0.925
-0.905
-0.91
-0.9
-0.87
-0.87
-0.875
-0.89
-0.905
-0.885
-0.84
-0.805
-0.785
-0.765
-0.75
-0.73
-0.72
-0.695
-0.695
-0.72
-0.75
-0.755
-0.74
-0.725
-0.73
-0.74
-0.745
-0.76
-0.745
-0.745
-0.735
-0.75
-0.775
-0.8
-0.845
-0.87
-0.88
-0.89
-0.9
-0.93
-0.925
-0.93
-0.915
-0.91
-0.93
-0.97
-0.975
-0.995
-0.98
-0.945
-0.955
-0.96
-0.955
-0.985
-0.95
-0.945
-0.975
-0.98
-0.98
-0.995
-0.995
-1.01
-1.035
-1.11
-1.15
-1.175
-1.15
-1.085
-1.01
-0.895
-0.775
-0.595
-0.385
-0.185
-0.005
0.145
0.305
0.455
0.585
0.705
0.755
0.765
0.765
0.72
0.68
0.6
0.515
0.32
0.05
-0.27
-0.555
-0.745
-0.845
-0.875
-0.865
-0.83
-0.785
-0.77
-0.775
-0.8
-0.865
-0.93
-0.99
-1.03
-1.045
-1.04
-1.03
-1.03
-1.05
-1.065
-1.035
-1.01
-1.0
-0.995
-1.005
-1.005
-1.005
-0.995
-0.99
-1.0
-1.025
-1.015
-1.0
-0.985
-0.98
-0.98
-1.0
-1.01
-1.025
-1.015
-1.015
-1.01
-1.015
-1.015
-1.02
-1.005
-0.965
-0.98
-0.98
-0.99
-1.0
-1.0
-0.99
-1.0
-1.0
-0.98
-0.96
-0.985
-0.95
-0.935
-0.95
-0.95
-0.98
-0.96
-0.94
-0.935
-0.94
-0.925
-0.925
-0.905
-0.9
-0.88
-0.88
-0.895
-0.9
-0.91
-0.885
-0.89
-0.88
-0.905
-0.89
-0.905
-0.9
-0.865
-0.85
-0.86
-0.9
-0.905
-0.9
-0.895
-0.865
-0.845
-0.85
-0.865
-0.86
-0.845
-0.825
-0.845
-0.86
-0.88
-0.89
-0.895
-0.885
-0.86
-0.85
-0.85
-0.865
-0.86
-0.85
-0.85
-0.865
-0.895
-0.895
-0.89
-0.88
-0.86
-0.86
-0.885
-0.87
-0.87
-0.865
-0.86
-0.855
-0.87
-0.905
-0.915
-0.9
-0.88
-0.86
-0.865
-0.885
-0.905
-0.9
-0.91
-0.94
-0.94
-0.945
-0.965
-0.945
-0.95
-0.94
-0.935
-0.93
-0.94
-0.945
-0.93
-0.95
-0.965
-0.975
-0.98
-0.97
-0.955
-0.955
-0.96
-0.945
-0.925
-0.915
-0.92
-0.945
-0.98
-0.97
-0.95
-0.935
-0.915
-0.92
-0.915
-0.91
-0.895
-0.905
-0.91
-0.93
-0.925
-0.935
-0.935
-0.925
-0.915
-0.925
-0.925
-0.92
-0.895
-0.875
-0.895
-0.92
-0.92
-0.92
-0.92
-0.9
-0.885
-0.905
-0.895
-0.895
-0.89
-0.87
-0.855
-0.855
-0.885
-0.895
-0.875
-0.89
-0.83
-0.84
-0.83
-0.81
-0.765
-0.745
-0.715
-0.71
-0.71
-0.7
-0.695
-0.68
-0.67
-0.67
-0.69
-0.68
-0.68
-0.685
-0.7
-0.73
-0.745
-0.76
-0.76
-0.755
-0.75
-0.775
-0.795
-0.805
-0.81
-0.83
-0.87
-0.9
-0.905
-0.92
-0.905
-0.9
-0.9
-0.91
-0.93
-0.935
-0.895
-0.895
-0.905
-0.93
-0.945
-0.955
-0.925
-0.925
-0.925
-0.945
-0.935
-0.93
-0.925
-0.94
-0.985
-1.065
-1.115
-1.155
-1.145
-1.08
-0.98
-0.845
-0.66
-0.44
-0.22
-0.025
0.14
0.275
0.415
0.55
0.65
0.75
0.8
0.825
0.805
0.745
0.685
0.605
0.445
0.175
-0.145
-0.45
-0.68
-0.83
-0.875
-0.865
-0.815
-0.765
-0.725
-0.75
-0.805
-0.875
-0.935
-0.97
-1.005
-1.01
-1.02
-1.015
-1.0
-0.995
-0.975
-0.975
-0.98
-0.99
-1.005
-0.995
-0.98
-0.98
-0.965
-0.98
-0.99
-0.985
-0.965
-0.97
-0.975
-0.995
-1.0
-1.01
-0.995
-0.99
-0.98
-0.995
-0.97
-0.98
-0.945
-0.945
-0.955
-0.985
-1.01
-1.0
-1.0
-0.97
-0.965
-0.965
-0.975
-0.975
-0.95
-0.93
-0.93
-0.95
-0.97
-0.97
-0.965
-0.96
-0.935
-0.935
-0.935
-0.93
-0.905
-0.905
-0.885
-0.9
-0.92
-0.915
-0.93
-0.91
-0.9
-0.875
-0.89
-0.875
-0.88
-0.87
-0.845
-0.865
-0.89
-0.9
-0.885
-0.885
-0.855
-0.84
-0.865
-0.88
-0.85
-0.84
-0.835
-0.855
-0.875
-0.89
-0.875
-0.86
-0.855
-0.845
-0.845
-0.86
-0.87
-0.865
-0.86
-0.89
-0.905
-0.905
-0.915
-0.9
-0.885
-0.905
-0.905
-0.895
-0.88
-0.89
-0.875
-0.885
-0.905
-0.915
-0.935
-0.915
-0.91
-0.9
-0.91
-0.915
-0.925
-0.94
-0.92
-0.925
-0.94
-0.965
-0.975
-0.985
-0.96
-0.95
-0.94
-0.955
-0.95
-0.96
-0.955
-0.955
-0.955
-0.98
-1.005
-1.005
-0.985
-0.965
-0.965
-0.955
-0.975
-0.975
-0.97
-0.96
-0.95
-0.955
-0.975
-0.965
-0.945
-0.925
-0.93
-0.93
-0.935
-0.945
-0.93
-0.925
-0.935
-0.955
-0.97
-0.975
-0.965
-0.935
-0.92
-0.92
-0.93
-0.945
-0.93
-0.935
-0.935
-0.945
-0.96
-0.96
-0.95
-0.935
-0.9
-0.905
-0.925
-0.95
-0.945
-0.925
-0.925
-0.905
-0.925
-0.95
-0.955
-0.945
-0.93
-0.9
-0.9
-0.9
-0.93
-0.925
-0.935
-0.935
-0.9
-0.905
-0.89
-0.875
-0.86
-0.855
-0.85
-0.84
-0.86
-0.84
-0.83
-0.805
-0.77
-0.76
-0.75
-0.75
-0.735
-0.705
-0.675
-0.71
-0.705
-0.73
-0.73
-0.74
-0.75
-0.765
-0.785
-0.79
-0.765
-0.755
-0.77
-0.79
-0.815
-0.845
-0.86
-0.875
-0.89
-0.915
-0.93
-0.94
-0.93
-0.935
-0.905
-0.925
-0.955
-0.99
-0.975
-0.975
-0.975
-0.985
-0.99
-0.965
-0.965
-0.96
-0.93
-0.945
-0.965
-0.975
-0.98
-0.965
-0.995
-1.04
-1.08
-1.115
-1.135
-1.14
-1.1
-1.045
-0.95
-0.815
-0.635
-0.435
-0.225
-0.065
0.105
0.26
0.435
0.575
0.685
0.76
0.78
0.765
0.73
0.69
0.66
0.57
0.47
0.27
-0.015
-0.295
-0.565
-0.77
-0.88
-0.91
-0.905
-0.875
-0.825
-0.83
-0.87
-0.92
-0.975
-1.005
-1.02
-1.035
-1.05
-1.07
-1.085
-1.06
-1.05
-1.06
-1.05
-1.07
-1.06
-1.05
-1.02
-1.005
-1.02
-1.04
-1.055
-1.075
-1.06
-1.05
-1.045
-1.025
-1.05
-1.05
-1.04
-1.02
-1.015
-1.035
-1.06
-1.065
-1.05
-1.04
-1.035
-1.035
-1.03
-1.04
-1.02
-1.005
-0.99
-0.995
-1.015
-1.04
-1.035
-1.01
-1.0
-0.985
-0.995
-0.995
-0.97
-0.97
-0.975
-0.975
-0.99
-1.0
-0.99
-0.965
-0.945
-0.92
-0.95
-0.955
-0.95
-0.925
-0.91
-0.91
-0.93
-0.95
-0.945
-0.92
-0.895
-0.9
-0.905
-0.925
-0.915
-0.865
-0.87
-0.885
-0.92
-0.925
-0.9
-0.885
-0.87
-0.895
-0.905
-0.9
-0.88
-0.875
-0.855
-0.88
-0.9
-0.915
-0.915
-0.895
-0.885
-0.895
-0.905
-0.895
-0.88
-0.885
-0.895
-0.915
-0.92
-0.95
-0.935
-0.92
-0.91
-0.915
-0.95
-0.925
-0.925
-0.905
-0.9
-0.925
-0.965
-0.975
-0.995
-0.975
-0.975
-0.97
-0.985
-0.98
-0.965
-0.96
-0.965
-0.995
-1.02
-1.025
-1.035
-1.0
-1.01
-1.02
-1.02
-1.015
-0.995
-0.995
-1.0
-1.005
-1.04
-1.035
-1.02
-1.01
-1.015
-1.015
-1.005
-0.99
-0.97
-0.98
-0.99
-1.01
-1.005
-0.99
-0.99
-1.01
-1.0
-0.985
-0.975
-0.95
-0.945
-0.96
-0.98
-0.985
-0.985
-0.98
-0.985
-0.995
-1.005
-0.985
-0.975
-0.96
-0.96
-0.975
-0.985
-0.98
-0.98
-0.97
-0.965
-0.98
-0.985
-0.965
-0.955
-0.945
-0.93
-0.95
-0.975
-0.975
-0.975
-0.985
-0.965
-0.98
-0.97
-0.94
-0.915
-0.905
-0.89
-0.91
-0.93
-0.925
-0.915
-0.9
-0.88
-0.88
-0.875
-0.835
-0.8
-0.775
-0.76
-0.77
-0.765
-0.76
-0.76
-0.765
-0.8
-0.8
-0.82
-0.82
-0.825
-0.81
-0.84
-0.855
-0.865
-0.885
-0.88
-0.91
-0.95
-0.98
-1.005
-0.99
-0.985
-1.0
-1.015
-1.02
-1.035
-1.04
-1.055
-1.075
-1.085
-1.095
-1.115
-1.08
-1.06
-1.06
-1.065
-1.09
-1.09
-1.07
-1.085
-1.09
-1.12
-1.135
-1.14
-1.13
-1.13
-1.165
-1.23
-1.275
-1.295
-1.28
-1.205
-1.1
-0.96
-0.76
-0.555
-0.32
-0.11
0.08
0.22
0.375
0.51
0.595
0.66
0.68
0.66
0.61
0.55
0.485
0.4
0.215
-0.08
-0.4
-0.72
-0.945
-1.045
-1.075
-1.06
-1.015
-0.985
-0.97
-0.985
-1.035
-1.09
-1.165
-1.205
-1.205
-1.205
-1.21
-1.225
-1.225
-1.25
-1.21
-1.2
-1.21
-1.195
-1.22
-1.215
-1.23
-1.215
-1.21
-1.215
-1.23
-1.22
-1.205
-1.195
-1.19
-1.205
-1.225
-1.22
-1.22
-1.2
-1.205
-1.215
-1.23
-1.235
-1.22
-1.18
-1.175
-1.18
-1.22
-1.225
-1.215
-1.21
-1.21
-1.21
-1.21
-1.215
-1.205
-1.18
-1.18
-1.21
-1.195
-1.225
-1.21
-1.21
-1.195
-1.2
-1.205
-1.225
-1.21
-1.19
-1.185
-1.165
-1.175
-1.175
-1.175
-1.19
-1.185
-1.195
-1.18
-1.195
-1.175
-1.17
-1.14
-1.13
-1.13
-1.155
-1.16
-1.16
-1.15
-1.14
-1.145
-1.165
-1.17
-1.16
-1.15
-1.135
-1.14
-1.14
-1.155
-1.17
-1.165
-1.17
-1.165
-1.17
-1.175
-1.17
-1.17
-1.15
-1.16
-1.18
-1.21
-1.225
-1.22
-1.225
-1.2
-1.185
-1.205
-1.235
-1.245
-1.21
-1.215
-1.22
-1.225
-1.24
-1.24
-1.25
-1.245
-1.255
-1.26
-1.245
-1.265
-1.255
-1.265
-1.265
-1.28
-1.32
-1.32
-1.31
-1.31
-1.32
-1.32
-1.335
-1.34
-1.33
-1.315
-1.31
-1.315
-1.33
-1.345
-1.34
-1.335
-1.335
-1.34
-1.36
-1.35
-1.325
-1.33
-1.335
-1.345
-1.37
-1.36
-1.34
-1.32
-1.34
-1.34
-1.335
-1.34
-1.32
-1.305
-1.315
-1.335
-1.35
-1.355
-1.34
-1.345
-1.33
-1.345
-1.34
-1.35
-1.32
-1.305
-1.31
-1.34
-1.355
-1.37
-1.35
-1.35
-1.355
-1.365
-1.365
-1.36
-1.36
-1.36
-1.355
-1.37
-1.39
-1.4
-1.415
-1.41
-1.395
-1.395
-1.395
-1.4
-1.395
-1.385
-1.38
-1.375
-1.385
-1.385
-1.38
-1.37
-1.365
-1.36
-1.365
-1.355
-1.35
-1.315
-1.3
-1.285
-1.265
-1.275
-1.25
-1.25
-1.235
-1.21
-1.21
-1.23
-1.225
-1.23
-1.225
-1.245
-1.265
-1.285
-1.285
-1.3
-1.285
-1.285
-1.305
-1.315
-1.32
-1.345
-1.375
-1.41
-1.45
-1.475
-1.48
-1.49
-1.49
-1.505
-1.51
-1.49
-1.485
-1.475
-1.485
-1.495
-1.525
-1.535
-1.535
-1.54
-1.52
-1.51
-1.505
-1.51
-1.495
-1.485
-1.485
-1.52
-1.56
-1.58
-1.605
-1.66
-1.705
-1.725
-1.705
-1.63
-1.5
-1.305
-1.11
-0.905
-0.72
-0.525
-0.32
-0.12
0.055
0.21
0.305
0.325
0.39
0.37
0.335
0.25
0.115
-0.08
-0.33
-0.66
-0.995
-1.265
-1.43
-1.505
-1.47
-1.43
-1.38
-1.365
-1.41
-1.46
-1.495
-1.54
-1.6
-1.615
-1.645
-1.65
-1.615
-1.615
-1.62
-1.62
-1.615
-1.61
-1.595
-1.585
-1.585
-1.605
-1.615
-1.605
-1.585
-1.58
-1.6
-1.615
-1.63
-1.625
-1.605
-1.62
-1.61
-1.625
-1.61
-1.6
-1.575
-1.57
-1.57
-1.6
-1.62
-1.62
-1.605
-1.595
-1.585
-1.59
-1.59
-1.6
-1.58
-1.56
-1.575
-1.58
-1.59
-1.585
-1.57
-1.565
-1.56
-1.555
-1.54
-1.535
-1.51
-1.505
-1.5
-1.505
-1.525
-1.515
-1.515
-1.485
-1.49
-1.49
-1.465
-1.465
-1.44
-1.445
-1.455
-1.465
-1.485
-1.475
-1.47
-1.47
-1.475
-1.45
-1.455
-1.425
-1.405
-1.4
-1.425
-1.45
-1.445
-1.44
-1.425
-1.43
-1.435
-1.425
-1.43
-1.425
-1.41
-1.415
-1.43
-1.46
-1.45
-1.445
-1.445
-1.44
-1.44
-1.445
-1.465
-1.45
-1.42
-1.425
-1.43
-1.455
-1.46
-1.48
-1.455
-1.46
-1.47
-1.465
-1.465
-1.445
-1.435
-1.43
-1.47
-1.495
-1.495
-1.49
-1.49
-1.49
-1.495
-1.49
-1.495
-1.485
-1.48
-1.475
-1.49
-1.535
-1.515
-1.5
-1.495
-1.49
-1.5
-1.505
-1.49
-1.48
-1.46
-1.465
-1.47
-1.48
-1.48
-1.47
-1.46
-1.48
-1.49
-1.49
-1.47
-1.465
-1.435
-1.44
-1.455
-1.47
-1.47
-1.45
-1.44
-1.445
-1.475
-1.46
-1.47
-1.435
-1.4
-1.415
-1.41
-1.425
-1.44
-1.45
-1.44
-1.42
-1.42
-1.425
-1.42
-1.415
-1.38
-1.39
-1.38
-1.405
-1.415
-1.425
-1.405
-1.395
-1.385
-1.38
-1.37
-1.355
-1.33
-1.32
-1.33
-1.33
-1.34
-1.34
-1.32
-1.29
-1.255
-1.24
-1.23
-1.21
-1.18
-1.16
-1.155
-1.145
-1.165
-1.185
-1.19
-1.185
-1.165
-1.17
-1.185
-1.185
-1.19
-1.18
-1.18
-1.185
-1.2
-1.22
-1.255
-1.27
-1.275
-1.28
-1.31
-1.32
-1.35
-1.33
-1.335
-1.36
-1.365
-1.385
-1.385
-1.4
-1.4
-1.39
-1.385
-1.395
-1.365
-1.35
-1.345
-1.35
-1.375
-1.38
-1.38
-1.375
-1.37
-1.365
-1.385
-1.405
-1.425
-1.455
-1.49
-1.515
-1.53
-1.515
-1.455
-1.34
-1.15
-0.945
-0.715
-0.505
-0.345
-0.135
0.055
0.22
0.34
0.42
0.445
0.445
0.44
0.41
0.335
0.235
0.055
-0.205
-0.51
-0.795
-1.05
-1.225
-1.3
-1.315
-1.275
-1.205
-1.17
-1.195
-1.235
-1.27
-1.31
-1.35
-1.39
-1.41
-1.43
-1.425
-1.405
-1.4
-1.395
-1.385
-1.38
-1.375
-1.36
-1.36
-1.375
-1.395
-1.4
-1.39
-1.385
-1.37
-1.385
-1.375
-1.36
-1.35
-1.335
-1.35
-1.38
-1.385
-1.39
-1.37
-1.365
-1.35
-1.355
-1.355
-1.35
-1.335
-1.32
-1.345
-1.36
-1.37
-1.365
-1.36
-1.34
-1.325
-1.33
-1.34
-1.32
-1.3
-1.315
-1.31
-1.32
-1.315
-1.31
-1.295
-1.275
-1.275
-1.27
-1.265
-1.27
-1.26
-1.235
-1.23
-1.255
-1.27
-1.275
-1.27
-1.245
-1.235
-1.22
-1.225
-1.215
-1.195
-1.185
-1.18
-1.2
-1.215
-1.235
-1.23
-1.205
-1.185
-1.19
-1.185
-1.19
-1.18
-1.17
-1.17
-1.175
-1.2
-1.205
-1.215
-1.21
-1.185
-1.19
-1.185
-1.215
-1.2
-1.175
-1.17
-1.165
-1.2
-1.21
-1.22
-1.205
-1.195
-1.18
-1.19
-1.185
-1.215
-1.19
-1.175
-1.19
-1.205
-1.215
-1.215
-1.22
-1.22
-1.195
-1.205
-1.215
-1.21
-1.22
-1.21
-1.215
-1.23
-1.255
-1.26
-1.255
-1.25
-1.225
-1.23
-1.23
-1.23
-1.245
-1.26
-1.245
-1.255
-1.25
-1.255
-1.23
-1.22
-1.225
-1.225
-1.205
-1.195
-1.19
-1.175
-1.205
-1.215
-1.24
-1.225
-1.205
-1.195
-1.205
-1.205
-1.205
-1.19
-1.16
-1.16
-1.195
-1.2
-1.22
-1.2
-1.19
-1.185
-1.17
-1.175
-1.165
-1.16
-1.14
-1.15
-1.16
-1.18
-1.19
-1.17
-1.16
-1.155
-1.17
-1.16
-1.16
-1.155
-1.14
-1.125
-1.15
-1.17
-1.175
-1.15
-1.135
-1.125
-1.11
-1.11
-1.1
-1.065
-1.06
-1.06
-1.08
-1.065
-1.065
-1.055
-1.01
-1.0
-0.96
-0.97
-0.96
-0.935
-0.905
-0.905
-0.92
-0.925
-0.945
-0.93
-0.92
-0.92
-0.925
-0.95
-0.955
-0.96
-0.955
-0.94
-0.96
-0.99
-1.03
-1.055
-1.045
-1.05
-1.065
-1.075
-1.1
-1.1
-1.09
-1.11
-1.125
-1.14
-1.155
-1.175
-1.15
-1.125
-1.12
-1.105
-1.105
-1.095
-1.095
-1.08
-1.1
-1.11
-1.125
-1.135
-1.125
-1.125
-1.14
-1.185
-1.225
-1.265
-1.3
-1.275
-1.235
-1.16
-1.06
-0.9
-0.69
-0.485
-0.29
-0.11
0.06
0.22
0.39
0.535
0.635
0.7
0.695
0.66
0.61
0.555
0.48
0.33
0.095
-0.21
-0.515
-0.76
-0.94
-1.055
-1.075
-1.045
-0.995
-0.955
-0.94
-0.965
-1.005
-1.07
-1.11
-1.135
-1.14
-1.17
-1.195
-1.2
-1.185
-1.165
-1.155
-1.135
-1.145
-1.155
-1.15
-1.145
-1.135
-1.15
-1.16
-1.175
-1.16
-1.145
-1.14
-1.135
-1.13
-1.145
-1.135
-1.12
-1.12
-1.135
-1.155
-1.16
-1.15
-1.135
-1.11
-1.11
-1.12
-1.115
-1.11
-1.1
-1.085
-1.09
-1.1
-1.11
-1.09
-1.085
-1.06
-1.055
-1.055
-1.07
-1.07
-1.055
-1.055
-1.045
-1.06
-1.08
-1.08
-1.06
-1.025
-1.015
-1.01
-1.01
-1.015
-1.015
-1.005
-0.99
-1.005
-1.02
-1.02
-1.01
-0.99
-0.97
-0.975
-0.96
-0.97
-0.965
-0.97
-0.97
-0.96
-0.97
-0.97
-0.965
-0.945
-0.925
-0.925
-0.925
-0.945
-0.935
-0.945
-0.95
-0.955
-0.96
-0.96
-0.96
-0.95
-0.95
-0.945
-0.95
-0.965
-0.96
-0.95
-0.955
-0.97
-0.985
-0.98
-0.97
-0.96
-0.935
-0.94
-0.96
-0.975
-0.985
-0.99
-0.97
-0.97
-0.985
-1.015
-1.015
-0.985
-0.96
-0.97
-0.975
-0.985
-1.01
-1.015
-1.005
-1.025
-1.025
-1.03
-1.02
-1.01
-0.995
-0.98
-1.0
-1.0
-1.02
-1.02
-1.015
-1.02
-1.03
-1.025
-1.015
-0.995
-0.97
-0.96
-0.95
-0.985
-1.0
-0.995
-0.98
-0.97
-0.98
-0.99
-0.98
-0.975
-0.955
-0.94
-0.94
-0.975
-0.985
-0.98
-0.98
-0.975
-0.995
-0.995
-0.995
-0.98
-0.955
-0.94
-0.935
-0.955
-0.97
-0.975
-0.96
-0.945
-0.96
-0.99
-0.97
-0.96
-0.92
-0.91
-0.895
-0.915
-0.94
-0.95
-0.935
-0.925
-0.92
-0.915
-0.905
-0.895
-0.875
-0.865
-0.845
-0.85
-0.865
-0.855
-0.835
-0.8
-0.765
-0.75
-0.74
-0.725
-0.705
-0.695
-0.68
-0.685
-0.7
-0.72
-0.725
-0.715
-0.715
-0.745
-0.77
-0.775
-0.76
-0.76
-0.745
-0.73
-0.765
-0.81
-0.85
-0.88
-0.89
-0.895
-0.91
-0.94
-0.925
-0.935
-0.9
-0.91
-0.92
-0.94
-0.955
-0.945
-0.92
-0.925
-0.94
-0.94
-0.925
-0.905
-0.89
-0.895
-0.92
-0.93
-0.935
-0.935
-0.97
-1.005
-1.045
-1.085
-1.105
-1.08
-1.03
-0.935
-0.81
-0.635
-0.445
-0.23
-0.02
