Lead II
-0.745
-0.755
-0.76
-0.755
-0.75
-0.73
-0.73
-0.725
-0.73
-0.73
-0.735
-0.755
-0.74
-0.745
-0.735
-0.75
-0.73
-0.72
-0.715
-0.705
-0.685
-0.67
-0.665
-0.67
-0.67
-0.67
-0.645
-0.6
-0.525
-0.395
-0.19
0.09
0.45
0.855
1.26
1.59
1.73
1.65
1.325
0.755
0.115
-0.525
-1.165
-1.47
-1.5
-1.335
-1.085
-0.845
-0.665
-0.57
-0.525
-0.535
-0.56
-0.595
-0.625
-0.635
-0.625
-0.625
-0.62
-0.61
-0.625
-0.625
-0.625
-0.62
-0.625
-0.61
-0.605
-0.6
-0.59
-0.6
-0.6
-0.6
-0.6
-0.625
-0.63
-0.615
-0.605
-0.605
-0.605
-0.585
-0.58
-0.58
-0.6
-0.605
-0.605
-0.59
-0.6
-0.615
-0.605
-0.595
-0.59
-0.585
-0.58
-0.59
-0.575
-0.575
-0.58
-0.58
-0.595
-0.58
-0.585
-0.575
-0.57
-0.57
-0.56
-0.565
-0.56
-0.55
-0.565
-0.57
-0.56
-0.555
-0.56
-0.54
-0.53
-0.52
-0.515
-0.505
-0.51
-0.515
-0.51
-0.52
-0.52
-0.51
-0.51
-0.505
-0.495
-0.485
-0.475
-0.47
-0.455
-0.46
-0.465
-0.46
-0.455
-0.45
-0.445
-0.435
-0.435
-0.4
-0.4
-0.385
-0.38
-0.375
-0.37
-0.365
-0.355
-0.345
-0.325
-0.32
-0.31
-0.295
-0.29
-0.29
-0.29
-0.285
-0.29
-0.285
-0.295
-0.285
-0.295
-0.27
-0.29
-0.3
-0.305
-0.33
-0.345
-0.38
-0.405
-0.43
-0.455
-0.475
-0.505
-0.525
-0.525
-0.545
-0.56
-0.575
-0.6
-0.6
-0.615
-0.63
-0.645
-0.65
-0.66
-0.66
-0.665
-0.655
-0.665
-0.66
-0.665
-0.68
-0.685
-0.695
-0.7
-0.72
-0.715
-0.7
-0.705
-0.695
-0.69
-0.695
-0.695
-0.705
-0.725
-0.73
-0.74
-0.73
-0.73
-0.71
-0.705
-0.685
-0.685
-0.685
-0.685
-0.695
-0.685
-0.68
-0.68
-0.68
-0.67
-0.675
-0.66
-0.66
-0.64
-0.645
-0.645
-0.63
-0.65
-0.645
-0.645
-0.65
-0.65
-0.645
-0.625
-0.625
-0.61
-0.63
-0.63
-0.625
-0.645
-0.645
-0.655
-0.655
-0.645
-0.65
-0.645
-0.64
-0.635
-0.625
-0.64
-0.64
-0.655
-0.665
-0.67
-0.68
-0.67
-0.67
-0.655
-0.65
-0.645
-0.655
-0.645
-0.665
-0.67
-0.665
-0.675
-0.67
-0.665
-0.665
-0.67
-0.65
-0.65
-0.655
-0.645
-0.655
-0.66
-0.675
-0.67
-0.67
-0.67
-0.67
-0.66
-0.655
-0.65
-0.655
-0.655
-0.665
-0.66
-0.675
-0.68
-0.675
-0.675
-0.675
-0.675
-0.66
-0.65
-0.655
-0.66
-0.66
-0.655
-0.66
-0.67
-0.67
-0.655
-0.66
-0.65
-0.65
-0.65
-0.655
-0.65
-0.665
-0.67
-0.675
-0.665
-0.66
-0.655
-0.655
-0.66
-0.65
-0.635
-0.635
-0.64
-0.66
-0.65
-0.665
-0.66
-0.665
-0.665
-0.66
-0.66
-0.635
-0.64
-0.635
-0.635
-0.64
-0.635
-0.635
-0.645
-0.65
-0.655
-0.64
-0.65
-0.645
-0.625
-0.63
-0.635
-0.64
-0.65
-0.665
-0.65
-0.65
-0.655
-0.635
-0.635
-0.63
-0.615
-0.625
-0.625
-0.63
-0.645
-0.65
-0.65
-0.65
-0.65
-0.64
-0.64
-0.63
-0.625
-0.625
-0.62
-0.63
-0.63
-0.645
-0.64
-0.645
-0.64
-0.63
-0.635
-0.62
-0.615
-0.61
-0.61
-0.63
-0.62
-0.635
-0.63
-0.63
-0.63
-0.64
-0.625
-0.615
-0.605
-0.6
-0.605
-0.615
-0.61
-0.605
-0.605
-0.595
-0.595
-0.555
-0.545
-0.53
-0.515
-0.5
-0.495
-0.485
-0.495
-0.505
-0.48
-0.47
-0.48
-0.475
-0.47
-0.48
-0.48
-0.475
-0.475
-0.48
-0.48
-0.49
-0.505
-0.495
-0.505
-0.51
-0.52
-0.52
-0.54
-0.55
-0.565
-0.575
-0.585
-0.61
-0.605
-0.61
-0.605
-0.595
-0.595
-0.61
-0.59
-0.585
-0.59
-0.6
-0.61
-0.61
-0.62
-0.615
-0.62
-0.61
-0.61
-0.605
-0.59
-0.59
-0.58
-0.595
-0.605
-0.605
-0.61
-0.625
-0.61
-0.59
-0.585
-0.575
-0.56
-0.545
-0.525
-0.525
-0.525
-0.51
-0.485
-0.41
-0.285
-0.09
0.2
0.57
0.995
1.4
1.71
1.835
1.72
1.37
0.77
0.13
-0.51
-1.105
-1.35
-1.345
-1.155
-0.905
-0.665
-0.48
-0.385
-0.37
-0.395
-0.44
-0.49
-0.52
-0.525
-0.525
-0.51
-0.495
-0.49
-0.48
-0.49
-0.495
-0.495
-0.505
-0.495
-0.49
-0.485
-0.48
-0.475
-0.47
-0.465
-0.48
-0.485
-0.495
-0.495
-0.5
-0.5
-0.49
-0.49
-0.48
-0.475
-0.47
-0.475
-0.48
-0.485
-0.495
-0.5
-0.505
-0.49
-0.49
-0.495
-0.475
-0.47
-0.47
-0.48
-0.485
-0.485
-0.49
-0.495
-0.49
-0.485
-0.49
-0.475
-0.465
-0.46
-0.465
-0.45
-0.445
-0.46
-0.475
-0.47
-0.465
-0.465
-0.455
-0.455
-0.45
-0.435
-0.435
-0.445
-0.435
-0.435
-0.44
-0.455
-0.455
-0.455
-0.44
-0.42
-0.415
-0.4
-0.4
-0.395
-0.4
-0.4
-0.4
-0.4
-0.41
-0.41
-0.39
-0.385
-0.37
-0.36
-0.36
-0.355
-0.355
-0.35
-0.35
-0.345
-0.35
-0.335
-0.32
-0.32
-0.305
-0.305
-0.295
-0.3
-0.3
-0.3
-0.305
-0.3
-0.3
-0.295
-0.29
-0.285
-0.28
-0.27
-0.275
-0.285
-0.295
-0.315
-0.335
-0.365
-0.37
-0.385
-0.41
-0.42
-0.435
-0.425
-0.45
-0.465
-0.485
-0.505
-0.505
-0.53
-0.54
-0.54
-0.535
-0.55
-0.545
-0.545
-0.54
-0.545
-0.555
-0.565
-0.565
-0.58
-0.585
-0.59
-0.595
-0.59
-0.585
-0.555
-0.565
-0.565
-0.575
-0.58
-0.585
-0.59
-0.59
-0.585
-0.585
-0.58
-0.575
-0.565
-0.575
-0.575
-0.58
-0.58
-0.59
-0.595
-0.585
-0.595
-0.585
-0.575
-0.58
-0.575
-0.57
-0.55
-0.56
-0.565
-0.56
-0.58
-0.575
-0.57
-0.555
-0.545
-0.54
-0.53
-0.53
-0.535
-0.54
-0.535
-0.535
-0.555
-0.56
-0.565
-0.57
-0.56
-0.54
-0.555
-0.535
-0.535
-0.54
-0.545
-0.555
-0.57
-0.565
-0.57
-0.565
-0.56
-0.56
-0.555
-0.555
-0.555
-0.57
-0.57
-0.58
-0.595
-0.595
-0.595
-0.595
-0.595
-0.58
-0.565
-0.57
-0.59
-0.59
-0.585
-0.605
-0.605
-0.605
-0.605
-0.605
-0.59
-0.58
-0.585
-0.575
-0.58
-0.595
-0.595
-0.595
-0.605
-0.61
-0.61
-0.6
-0.595
-0.59
-0.605
-0.605
-0.585
-0.595
-0.595
-0.6
-0.615
-0.61
-0.605
-0.6
-0.605
-0.6
-0.565
-0.585
-0.59
-0.59
-0.6
-0.6
-0.605
-0.6
-0.6
-0.595
-0.59
-0.585
-0.585
-0.575
-0.585
-0.59
-0.6
-0.605
-0.605
-0.605
-0.605
-0.595
-0.6
-0.59
-0.585
-0.585
-0.585
-0.59
-0.59
-0.605
-0.6
-0.605
-0.605
-0.59
-0.595
-0.59
-0.585
-0.59
-0.59
-0.59
-0.605
-0.61
-0.61
-0.615
-0.61
-0.6
-0.58
-0.59
-0.575
-0.57
-0.57
-0.585
-0.605
-0.615
-0.6
-0.605
-0.6
-0.595
-0.59
-0.575
-0.575
-0.56
-0.57
-0.565
-0.55
-0.54
-0.545
-0.53
-0.51
-0.485
-0.47
-0.47
-0.445
-0.435
-0.435
-0.42
-0.43
-0.43
-0.425
-0.43
-0.455
-0.465
-0.445
-0.43
-0.435
-0.425
-0.415
-0.425
-0.44
-0.465
-0.485
-0.49
-0.51
-0.52
-0.515
-0.52
-0.53
-0.525
-0.525
-0.54
-0.54
-0.54
-0.54
-0.555
-0.565
-0.555
-0.56
-0.535
-0.53
-0.525
-0.535
-0.54
-0.55
-0.565
-0.555
-0.565
-0.555
-0.545
-0.54
-0.535
-0.525
-0.525
-0.525
-0.525
-0.535
-0.53
-0.52
-0.52
-0.515
-0.495
-0.485
-0.48
-0.46
-0.45
-0.445
-0.43
-0.385
-0.29
-0.135
0.085
0.415
0.825
1.265
1.61
1.8
1.68
1.26
0.62
-0.02
-0.66
-1.255
-1.375
-1.26
-0.985
-0.705
-0.47
-0.335
-0.275
-0.295
-0.34
-0.4
-0.45
-0.465
-0.5
-0.475
-0.46
-0.44
-0.44
-0.425
-0.42
-0.435
-0.43
-0.435
-0.44
-0.45
-0.445
-0.455
-0.45
-0.435
-0.425
-0.435
-0.445
-0.445
-0.435
-0.445
-0.465
-0.45
-0.455
-0.465
-0.455
-0.455
-0.45
-0.445
-0.435
-0.435
-0.44
-0.445
-0.445
-0.45
-0.46
-0.455
-0.455
-0.45
-0.44
-0.425
-0.42
-0.43
-0.445
-0.455
-0.45
-0.465
-0.465
-0.48
-0.46
-0.445
-0.445
-0.42
-0.43
-0.445
-0.44
-0.445
-0.435
-0.445
-0.45
-0.455
-0.45
-0.435
-0.425
-0.415
-0.41
-0.41
-0.415
-0.42
-0.42
-0.425
-0.41
-0.405
-0.395
-0.39
-0.39
-0.375
-0.37
-0.355
-0.365
-0.365
-0.38
-0.38
-0.38
-0.38
-0.38
-0.36
-0.355
-0.335
-0.32
-0.325
-0.32
-0.33
-0.325
-0.32
-0.325
-0.32
-0.315
-0.3
-0.305
-0.29
-0.295
-0.285
-0.29
-0.3
-0.305
-0.305
-0.31
-0.31
-0.315
-0.305
-0.31
-0.325
-0.31
-0.33
-0.34
-0.365
-0.39
-0.42
-0.445
-0.465
-0.48
-0.485
-0.5
-0.51
-0.515
-0.545
-0.565
-0.56
-0.585
-0.58
-0.605
-0.6
-0.6
-0.595
-0.605
-0.605
-0.6
-0.61
-0.61
-0.615
-0.62
-0.63
-0.64
-0.645
-0.645
-0.625
-0.625
-0.615
-0.61
-0.615
-0.615
-0.615
-0.615
-0.63
-0.63
-0.625
-0.62
-0.62
-0.62
-0.605
-0.6
-0.615
-0.605
-0.62
-0.615
-0.61
-0.615
-0.605
-0.6
-0.585
-0.585
-0.58
-0.56
-0.57
-0.57
-0.58
-0.58
-0.595
-0.595
-0.585
-0.58
-0.58
-0.57
-0.57
-0.58
-0.58
-0.585
-0.595
-0.605
-0.61
-0.61
-0.605
-0.61
-0.595
-0.605
-0.6
-0.6
-0.6
-0.605
-0.62
-0.625
-0.635
-0.63
-0.635
-0.625
-0.635
-0.625
-0.61
-0.64
-0.625
-0.63
-0.645
-0.645
-0.65
-0.655
-0.655
-0.655
-0.645
-0.635
-0.63
-0.625
-0.65
-0.65
-0.665
-0.67
-0.675
-0.67
-0.665
-0.665
-0.65
-0.64
-0.64
-0.64
-0.655
-0.65
-0.665
-0.675
-0.675
-0.675
-0.675
-0.655
-0.66
-0.65
-0.65
-0.64
-0.645
-0.65
-0.665
-0.68
-0.67
-0.675
-0.675
-0.675
-0.665
-0.65
-0.635
-0.64
-0.65
-0.645
-0.65
-0.66
-0.645
-0.655
-0.64
-0.63
-0.605
-0.585
-0.57
-0.555
-0.545
-0.535
-0.525
-0.545
-0.53
-0.535
-0.525
-0.52
-0.515
-0.53
-0.505
-0.5
-0.5
-0.5
-0.505
-0.52
-0.535
-0.56
-0.56
-0.575
-0.575
-0.6
-0.605
-0.615
-0.63
-0.64
-0.655
-0.65
-0.665
-0.675
-0.67
-0.675
-0.675
-0.675
-0.675
-0.67
-0.66
-0.675
-0.66
-0.67
-0.665
-0.67
-0.68
-0.68
-0.68
-0.675
-0.68
-0.655
-0.66
-0.665
-0.665
-0.67
-0.67
-0.675
-0.665
-0.65
-0.645
-0.63
-0.615
-0.61
-0.615
-0.62
-0.62
-0.62
-0.62
-0.6
-0.57
-0.53
-0.44
-0.285
-0.07
0.23
0.605
1.03
1.41
1.65
1.645
1.36
0.795
0.155
-0.485
-1.125
-1.485
-1.465
-1.26
-0.985
-0.73
-0.565
-0.48
-0.455
-0.485
-0.525
-0.55
-0.57
-0.575
-0.57
-0.57
-0.56
-0.555
-0.56
-0.56
-0.57
-0.565
-0.56
-0.555
-0.54
-0.55
-0.545
-0.53
-0.54
-0.55
-0.555
-0.56
-0.565
-0.55
-0.55
-0.54
-0.54
-0.535
-0.525
-0.53
-0.535
-0.535
-0.535
-0.54
-0.545
-0.535
-0.545
-0.535
-0.535
-0.525
-0.52
-0.515
-0.515
-0.515
-0.525
-0.53
-0.555
-0.555
-0.535
-0.535
-0.52
-0.51
-0.5
-0.505
-0.51
-0.52
-0.525
-0.53
-0.53
-0.55
-0.535
-0.53
-0.515
-0.5
-0.495
-0.495
-0.5
-0.505
-0.515
-0.515
-0.52
-0.51
-0.51
-0.495
-0.495
-0.475
-0.465
-0.465
-0.465
-0.455
-0.455
-0.465
-0.465
-0.455
-0.45
-0.44
-0.42
-0.41
-0.41
-0.415
-0.395
-0.405
-0.4
-0.39
-0.395
-0.39
-0.385
-0.375
-0.37
-0.355
-0.355
-0.34
-0.34
-0.345
-0.35
-0.36
-0.365
-0.375
-0.355
-0.355
-0.35
-0.35
-0.335
-0.34
-0.345
-0.345
-0.355
-0.37
-0.375
-0.38
-0.39
-0.405
-0.41
-0.42
-0.435
-0.455
-0.47
-0.495
-0.51
-0.54
-0.55
-0.575
-0.585
-0.605
-0.61
-0.615
-0.62
-0.63
-0.64
-0.645
-0.67
-0.675
-0.695
-0.695
-0.7
-0.69
-0.695
-0.685
-0.68
-0.68
-0.69
-0.695
-0.695
-0.69
-0.695
-0.69
-0.69
-0.69
-0.685
-0.675
-0.655
-0.67
-0.67
-0.665
-0.665
-0.67
-0.69
-0.68
-0.675
-0.67
-0.65
-0.645
-0.64
-0.635
-0.64
-0.64
-0.645
-0.66
-0.65
-0.65
-0.65
-0.635
-0.63
-0.63
-0.62
-0.62
-0.625
-0.63
-0.635
-0.635
-0.645
-0.65
-0.64
-0.65
-0.65
-0.635
-0.625
-0.64
-0.64
-0.66
-0.665
-0.67
-0.675
-0.675
-0.665
-0.67
-0.68
-0.66
-0.665
-0.665
-0.67
-0.67
-0.68
-0.675
-0.69
-0.695
-0.695
-0.675
-0.66
-0.675
-0.67
-0.685
-0.67
-0.67
-0.68
-0.695
-0.695
-0.715
-0.71
-0.695
-0.69
-0.67
-0.66
-0.675
-0.675
-0.675
-0.68
-0.685
-0.69
-0.69
-0.685
-0.69
-0.69
-0.7
-0.68
-0.67
-0.68
-0.685
-0.705
-0.695
-0.7
-0.69
-0.68
-0.685
-0.675
-0.67
-0.67
-0.675
-0.665
-0.665
-0.67
-0.68
-0.695
-0.685
-0.68
-0.67
-0.675
-0.66
-0.645
-0.655
-0.65
-0.64
-0.64
-0.63
-0.635
-0.615
-0.605
-0.585
-0.575
-0.57
-0.555
-0.545
-0.545
-0.54
-0.535
-0.535
-0.55
-0.55
-0.555
-0.55
-0.545
-0.555
-0.535
-0.535
-0.545
-0.555
-0.565
-0.585
-0.615
-0.625
-0.63
-0.65
-0.655
-0.65
-0.65
-0.655
-0.655
-0.665
-0.67
-0.685
-0.7
-0.69
-0.695
-0.705
-0.675
-0.67
-0.66
-0.665
-0.67
-0.685
-0.695
-0.695
-0.7
-0.69
-0.68
-0.675
-0.68
-0.67
-0.66
-0.65
-0.645
-0.65
-0.655
-0.645
-0.66
-0.64
-0.625
-0.61
-0.6
-0.6
-0.57
-0.525
-0.44
-0.305
-0.11
0.16
0.52
0.915
1.335
1.65
1.8
1.715
1.365
0.805
0.165
-0.475
-1.115
-1.45
-1.475
-1.285
-1.02
-0.76
-0.565
-0.445
-0.415
-0.43
-0.47
-0.52
-0.565
-0.585
-0.585
-0.59
-0.575
-0.56
-0.55
-0.545
-0.525
-0.535
-0.545
-0.55
-0.55
-0.55
-0.55
-0.545
-0.55
-0.54
-0.54
-0.535
-0.525
-0.53
-0.525
-0.535
-0.55
-0.545
-0.545
-0.545
-0.55
-0.535
-0.54
-0.53
-0.52
-0.525
-0.53
-0.535
-0.53
-0.535
-0.55
-0.54
-0.54
-0.54
-0.525
-0.53
-0.51
-0.52
-0.53
-0.54
-0.545
-0.54
-0.55
-0.535
-0.545
-0.535
-0.54
-0.53
-0.52
-0.515
-0.51
-0.51
-0.525
-0.52
-0.54
-0.525
-0.51
-0.505
-0.485
-0.485
-0.47
-0.475
-0.47
-0.475
-0.485
-0.495
-0.485
-0.47
-0.47
-0.46
-0.445
-0.425
-0.415
-0.415
-0.41
-0.405
-0.41
-0.41
-0.41
-0.4
-0.39
-0.38
-0.37
-0.35
-0.34
-0.325
-0.33
-0.325
-0.325
-0.32
-0.335
-0.32
-0.33
-0.32
-0.31
-0.29
-0.275
-0.28
-0.27
-0.27
-0.285
-0.295
-0.29
-0.315
-0.305
-0.31
-0.315
-0.32
-0.335
-0.35
-0.365
-0.4
-0.41
-0.435
-0.465
-0.485
-0.51
-0.515
-0.52
-0.525
-0.545
-0.55
-0.555
-0.575
-0.59
-0.605
-0.61
-0.63
-0.63
-0.63
-0.63
-0.63
-0.615
-0.62
-0.63
-0.645
-0.645
-0.655
-0.665
-0.67
-0.67
-0.665
-0.65
-0.64
-0.635
-0.645
-0.625
-0.635
-0.64
-0.635
-0.635
-0.635
-0.63
-0.625
-0.625
-0.625
-0.625
-0.6
-0.6
-0.6
-0.6
-0.61
-0.605
-0.615
-0.61
-0.605
-0.595
-0.585
-0.57
-0.57
-0.565
-0.57
-0.585
-0.595
-0.6
-0.59
-0.595
-0.595
-0.595
-0.595
-0.575
-0.595
-0.59
-0.595
-0.61
-0.63
-0.62
-0.62
-0.635
-0.625
-0.625
-0.62
-0.605
-0.615
-0.6
-0.61
-0.625
-0.63
-0.64
-0.64
-0.65
-0.63
-0.635
-0.62
-0.615
-0.615
-0.61
-0.615
-0.635
-0.655
-0.64
-0.645
-0.64
-0.635
-0.63
-0.63
-0.635
-0.625
-0.62
-0.63
-0.63
-0.64
-0.65
-0.65
-0.66
-0.65
-0.63
-0.625
-0.62
-0.61
-0.62
-0.625
-0.64
-0.645
-0.65
-0.645
-0.65
-0.635
-0.635
-0.615
-0.605
-0.625
-0.615
-0.615
-0.615
-0.62
-0.63
-0.64
-0.625
-0.625
-0.625
-0.615
-0.61
-0.61
-0.605
-0.625
-0.62
-0.625
-0.63
-0.63
-0.63
-0.625
-0.62
-0.62
-0.6
-0.605
-0.6
-0.585
-0.58
-0.57
-0.575
-0.56
-0.555
-0.54
-0.525
-0.515
-0.5
-0.5
-0.5
-0.49
-0.49
-0.485
-0.485
-0.52
-0.52
-0.52
-0.495
-0.49
-0.495
-0.49
-0.485
-0.505
-0.505
-0.52
-0.53
-0.545
-0.56
-0.57
-0.58
-0.59
-0.58
-0.59
-0.595
-0.595
-0.605
-0.605
-0.615
-0.63
-0.625
-0.63
-0.62
-0.605
-0.59
-0.585
-0.595
-0.6
-0.605
-0.61
-0.615
-0.615
-0.615
-0.605
-0.595
-0.6
-0.585
-0.6
-0.58
-0.59
-0.595
-0.595
-0.595
-0.59
-0.595
-0.585
-0.57
-0.545
-0.525
-0.515
-0.51
-0.485
-0.43
-0.345
-0.185
0.05
0.375
0.76
1.16
1.5
1.69
1.63
1.285
0.69
0.05
-0.59
-1.195
-1.395
-1.355
-1.135
-0.86
-0.62
-0.445
-0.36
-0.36
-0.395
-0.44
-0.485
-0.515
-0.52
-0.525
-0.505
-0.495
-0.48
-0.47
-0.47
-0.47
-0.475
-0.475
-0.47
-0.485
-0.49
-0.485
-0.475
-0.475
-0.465
-0.445
-0.48
-0.46
-0.475
-0.48
-0.47
-0.49
-0.495
-0.495
-0.495
-0.47
-0.465
-0.46
-0.45
-0.455
-0.46
-0.465
-0.475
-0.48
-0.47
-0.475
-0.47
-0.475
-0.455
-0.44
-0.45
-0.45
-0.445
-0.46
-0.465
-0.47
-0.47
-0.465
-0.465
-0.445
-0.445
-0.435
-0.435
-0.43
-0.44
-0.445
-0.445
-0.44
-0.455
-0.445
-0.44
-0.425
-0.43
-0.41
-0.4
-0.405
-0.415
-0.415
-0.415
-0.43
-0.425
-0.41
-0.41
-0.395
-0.385
-0.38
-0.37
-0.365
-0.37
-0.375
-0.365
-0.38
-0.375
-0.36
-0.365
-0.35
-0.34
-0.34
-0.34
-0.32
-0.335
-0.325
-0.335
-0.34
-0.335
-0.33
-0.32
-0.32
-0.31
-0.315
-0.31
-0.305
-0.31
-0.31
-0.315
-0.32
-0.315
-0.32
-0.325
-0.315
-0.32
-0.325
-0.345
-0.36
-0.385
-0.4
-0.42
-0.44
-0.46
-0.48
-0.515
-0.515
-0.515
-0.525
-0.53
-0.53
-0.53
-0.555
-0.57
-0.58
-0.585
-0.585
-0.59
-0.58
-0.585
-0.575
-0.58
-0.59
-0.58
-0.59
-0.6
-0.6
-0.61
-0.6
-0.605
-0.595
-0.595
-0.59
-0.58
-0.57
-0.575
-0.58
-0.575
-0.575
-0.575
-0.575
-0.57
-0.56
-0.55
-0.54
-0.54
-0.54
-0.55
-0.56
-0.56
-0.56
-0.545
-0.555
-0.535
-0.53
-0.525
-0.515
-0.515
-0.515
-0.52
-0.53
-0.54
-0.545
-0.555
-0.545
-0.54
-0.54
-0.53
-0.53
-0.525
-0.53
-0.52
-0.525
-0.545
-0.555
-0.555
-0.555
-0.545
-0.555
-0.555
-0.54
-0.535
-0.545
-0.55
-0.56
-0.565
-0.575
-0.575
-0.575
-0.57
-0.565
-0.57
-0.555
-0.565
-0.565
-0.575
-0.58
-0.57
-0.59
-0.59
-0.595
-0.595
-0.575
-0.575
-0.565
-0.57
-0.57
-0.58
-0.575
-0.575
-0.58
-0.595
-0.585
-0.59
-0.585
-0.59
-0.575
-0.57
-0.565
-0.57
-0.585
-0.58
-0.595
-0.6
-0.59
-0.6
-0.59
-0.58
-0.57
-0.575
-0.57
-0.59
-0.6
-0.605
-0.6
-0.61
-0.595
-0.585
-0.585
-0.58
-0.58
-0.575
-0.575
-0.575
-0.58
-0.585
-0.59
-0.59
-0.585
-0.6
-0.585
-0.585
-0.57
-0.585
-0.58
-0.58
-0.58
-0.575
-0.58
-0.595
-0.595
-0.58
-0.57
-0.57
-0.55
-0.54
-0.525
-0.525
-0.52
-0.52
-0.515
-0.51
-0.505
-0.49
-0.475
-0.455
-0.435
-0.415
-0.425
-0.425
-0.43
-0.44
-0.455
-0.46
-0.47
-0.465
-0.45
-0.435
-0.43
-0.425
-0.435
-0.45
-0.465
-0.495
-0.51
-0.535
-0.555
-0.56
-0.56
-0.555
-0.55
-0.565
-0.565
-0.565
-0.57
-0.585
-0.585
-0.59
-0.59
-0.595
-0.605
-0.585
-0.59
-0.59
-0.585
-0.595
-0.585
-0.6
-0.61
-0.6
-0.605
-0.605
-0.595
-0.575
-0.565
-0.565
-0.565
-0.55
-0.565
-0.56
-0.56
-0.57
-0.55
-0.53
-0.515
-0.47
-0.395
-0.25
-0.035
0.255
0.64
1.035
1.4
1.635
1.66
1.395
0.875
0.235
-0.405
-1.04
-1.33
-1.35
-1.18
-0.93
-0.695
-0.53
-0.425
-0.39
-0.41
-0.46
-0.48
-0.495
-0.505
-0.51
-0.49
-0.485
-0.48
-0.475
-0.48
-0.47
-0.47
-0.485
-0.475
-0.455
-0.46
-0.455
-0.465
-0.47
-0.47
-0.48
-0.485
-0.475
-0.465
-0.46
-0.46
-0.455
-0.455
-0.46
-0.47
-0.47
-0.475
-0.48
-0.47
-0.465
-0.45
-0.46
-0.45
-0.445
-0.445
-0.45
-0.45
-0.455
-0.46
-0.46
-0.46
-0.45
-0.46
-0.45
-0.435
-0.445
-0.445
-0.45
-0.45
-0.445
-0.45
-0.455
-0.455
-0.455
-0.435
-0.44
-0.425
-0.41
-0.42
-0.42
-0.43
-0.43
-0.435
-0.43
-0.435
-0.425
-0.42
-0.41
-0.42
-0.405
-0.4
-0.395
-0.41
-0.405
-0.415
-0.415
-0.415
-0.405
-0.385
-0.375
-0.36
-0.35
-0.35
-0.35
-0.37
-0.38
-0.37
-0.38
-0.37
-0.355
-0.35
-0.35
-0.335
-0.33
-0.335
-0.325
-0.335
-0.335
-0.355
-0.355
-0.35
-0.355
-0.335
-0.325
-0.33
-0.34
-0.34
-0.325
-0.35
-0.35
-0.37
-0.365
-0.375
-0.38
-0.39
-0.395
-0.395
-0.4
-0.415
-0.43
-0.46
-0.485
-0.51
-0.535
-0.54
-0.555
-0.565
-0.56
-0.565
-0.57
-0.575
-0.575
-0.59
-0.585
-0.605
-0.61
-0.615
-0.615
-0.605
-0.61
-0.6
-0.6
-0.61
-0.605
-0.615
-0.63
-0.63
-0.615
-0.615
-0.61
-0.605
-0.59
-0.595
-0.585
-0.585
-0.585
-0.585
-0.595
-0.595
-0.595
-0.59
-0.59
-0.575
-0.565
-0.55
-0.545
-0.56
-0.56
-0.565
-0.565
-0.57
-0.57
-0.565
-0.56
-0.555
-0.56
-0.555
-0.53
-0.535
-0.54
-0.545
-0.54
-0.56
-0.57
-0.56
-0.555
-0.55
-0.545
-0.545
-0.53
-0.54
-0.55
-0.58
-0.58
-0.58
-0.6
-0.595
-0.59
-0.58
-0.585
-0.57
-0.565
-0.585
-0.585
-0.59
-0.595
-0.615
-0.625
-0.625
-0.605
-0.605
-0.605
-0.615
-0.595
-0.6
-0.6
-0.6
-0.61
-0.62
-0.625
-0.635
-0.625
-0.615
-0.615
-0.6
-0.615
-0.61
-0.61
-0.62
-0.625
-0.64
-0.645
-0.64
-0.64
-0.64
-0.635
-0.63
-0.63
-0.625
-0.625
-0.63
-0.635
-0.65
-0.66
-0.65
-0.645
-0.63
-0.63
-0.62
-0.63
-0.62
-0.625
-0.63
-0.64
-0.64
-0.655
-0.65
-0.63
-0.61
-0.6
-0.59
-0.57
-0.575
-0.58
-0.555
-0.54
-0.53
-0.52
-0.525
-0.5
-0.485
-0.48
-0.465
-0.455
-0.48
-0.47
-0.49
-0.495
-0.495
-0.5
-0.5
-0.515
-0.505
-0.51
-0.505
-0.51
-0.53
-0.555
-0.565
-0.61
-0.63
-0.64
-0.645
-0.635
-0.62
-0.62
-0.62
-0.62
-0.62
-0.625
-0.63
-0.635
-0.645
-0.665
-0.66
-0.66
-0.65
-0.65
-0.63
-0.625
-0.63
-0.63
-0.635
-0.635
-0.64
-0.65
-0.645
-0.65
-0.635
-0.625
-0.615
-0.61
-0.6
-0.59
-0.595
-0.595
-0.605
-0.585
-0.57
-0.525
-0.465
-0.345
-0.145
0.12
0.485
0.91
1.32
1.64
1.735
1.595
1.12
0.48
-0.16
-0.8
-1.335
-1.425
-1.29
-1.06
-0.8
-0.605
-0.485
-0.445
-0.445
-0.47
-0.5
-0.52
-0.535
-0.54
-0.54
-0.53
-0.53
-0.535
-0.525
-0.535
-0.535
-0.535
-0.53
-0.52
-0.51
-0.505
-0.52
-0.505
-0.505
-0.52
-0.52
-0.525
-0.525
-0.52
-0.53
-0.525
-0.52
-0.5
-0.515
-0.49
-0.51
-0.51
-0.51
-0.515
-0.515
-0.51
-0.495
-0.5
-0.495
-0.485
-0.49
-0.49
-0.505
-0.495
-0.51
-0.51
-0.515
-0.51
-0.505
-0.495
-0.495
-0.495
-0.485
-0.485
-0.495
-0.5
-0.5
-0.495
-0.495
-0.49
-0.49
-0.48
-0.475
-0.46
-0.47
-0.47
-0.485
-0.48
-0.47
-0.485
-0.48
-0.475
-0.48
-0.465
-0.46
-0.445
-0.435
-0.44
-0.435
-0.44
-0.44
-0.45
-0.445
-0.445
-0.42
-0.425
-0.42
-0.395
-0.405
-0.4
-0.4
-0.4
-0.405
-0.4
-0.405
-0.39
-0.38
-0.365
-0.355
-0.35
-0.35
-0.35
-0.35
-0.345
-0.355
-0.37
-0.375
-0.375
-0.36
-0.36
-0.34
-0.345
-0.36
-0.355
-0.365
-0.365
-0.38
-0.365
-0.375
-0.385
-0.37
-0.38
-0.375
-0.385
-0.4
-0.42
-0.43
-0.45
-0.48
-0.495
-0.505
-0.535
-0.545
-0.565
-0.56
-0.56
-0.58
-0.58
-0.61
-0.615
-0.615
-0.63
-0.63
-0.635
-0.645
-0.64
-0.625
-0.615
-0.615
-0.625
-0.64
-0.645
-0.65
-0.655
-0.65
-0.655
-0.64
-0.64
-0.65
-0.64
-0.635
-0.63
-0.64
-0.63
-0.64
-0.655
-0.65
-0.65
-0.625
-0.625
-0.615
-0.61
-0.605
-0.605
-0.61
-0.615
-0.63
-0.635
-0.625
-0.605
-0.6
-0.6
-0.585
-0.575
-0.585
-0.565
-0.59
-0.585
-0.595
-0.595
-0.595
-0.61
-0.6
-0.585
-0.58
-0.58
-0.58
-0.585
-0.595
-0.6
-0.615
-0.62
-0.61
-0.62
-0.615
-0.61
-0.615
-0.6
-0.6
-0.605
-0.615
-0.62
-0.63
-0.635
-0.63
-0.63
-0.635
-0.625
-0.62
-0.62
-0.62
-0.615
-0.625
-0.635
-0.63
-0.655
-0.64
-0.645
-0.635
-0.635
-0.635
-0.625
-0.63
-0.625
-0.625
-0.63
-0.63
-0.64
-0.65
-0.635
-0.65
-0.64
-0.63
-0.62
-0.635
-0.625
-0.625
-0.63
-0.635
-0.65
-0.65
-0.65
-0.635
-0.635
-0.635
-0.605
-0.615
-0.615
-0.63
-0.63
-0.64
-0.645
-0.65
-0.64
-0.63
-0.64
-0.625
-0.615
-0.61
-0.625
-0.635
-0.64
-0.63
-0.64
-0.635
-0.63
-0.63
-0.62
-0.61
-0.605
-0.605
-0.6
-0.615
-0.6
-0.61
-0.6
-0.595
-0.585
-0.565
-0.545
-0.535
-0.51
-0.495
-0.49
-0.495
-0.485
-0.48
-0.485
-0.495
-0.49
-0.5
-0.495
-0.49
-0.49
-0.475
-0.49
-0.495
-0.5
-0.515
-0.53
-0.54
-0.555
-0.575
-0.59
-0.58
-0.6
-0.605
-0.62
-0.61
-0.62
-0.62
-0.635
-0.645
-0.635
-0.635
-0.62
-0.62
-0.615
-0.615
-0.62
-0.625
-0.635
-0.64
-0.64
-0.645
-0.64
-0.645
-0.635
-0.635
-0.63
-0.625
-0.62
-0.605
-0.605
-0.61
-0.61
-0.61
-0.595
-0.57
-0.56
-0.54
-0.51
-0.465
-0.365
-0.22
-0.005
0.295
0.665
1.07
1.44
1.685
1.745
1.565
1.13
0.52
-0.12
-0.76
-1.205
-1.39
-1.34
-1.125
-0.875
-0.65
-0.495
-0.415
-0.4
-0.42
-0.46
-0.495
-0.525
-0.54
-0.555
-0.56
-0.53
-0.52
-0.51
-0.505
-0.49
-0.49
-0.5
-0.5
-0.51
-0.53
-0.525
-0.515
-0.505
-0.505
-0.5
-0.49
-0.485
-0.485
-0.495
-0.505
-0.5
-0.505
-0.51
-0.51
-0.51
-0.5
-0.495
-0.48
-0.47
-0.475
-0.475
-0.485
-0.49
-0.49
-0.51
-0.495
-0.5
-0.495
-0.5
-0.495
-0.475
-0.48
-0.475
-0.49
-0.485
-0.5
-0.48
-0.48
-0.485
-0.47
-0.47
-0.46
-0.445
-0.455
-0.445
-0.445
-0.44
-0.45
-0.46
-0.465
-0.455
-0.45
-0.445
-0.44
-0.435
-0.44
-0.44
-0.43
-0.435
-0.435
-0.43
-0.43
-0.425
-0.41
-0.4
-0.395
-0.39
-0.39
-0.38
-0.39
-0.39
-0.39
-0.385
-0.38
-0.385
-0.38
-0.365
-0.35
-0.33
-0.33
-0.325
-0.335
-0.33
-0.34
-0.34
-0.335
-0.33
-0.335
-0.34
-0.32
-0.31
-0.31
-0.315
-0.32
-0.325
-0.325
-0.34
-0.345
-0.35
-0.335
-0.345
-0.33
-0.32
-0.35
-0.355
-0.375
-0.385
-0.405
-0.435
-0.455
-0.475
-0.49
-0.475
-0.49
-0.49
-0.51
-0.52
-0.53
-0.56
-0.575
-0.565
-0.59
-0.585
-0.58
-0.58
-0.57
-0.58
-0.58
-0.59
-0.58
-0.595
-0.6
-0.605
-0.615
-0.62
-0.605
-0.61
-0.595
-0.58
-0.595
-0.58
-0.585
-0.585
-0.59
-0.595
-0.6
-0.595
-0.59
-0.565
-0.57
-0.56
-0.56
-0.56
-0.565
-0.565
-0.575
-0.575
-0.57
-0.57
-0.565
-0.56
-0.555
-0.54
-0.535
-0.55
-0.54
-0.545
-0.555
-0.555
-0.55
-0.55
-0.55
-0.55
-0.545
-0.535
-0.535
-0.54
-0.55
-0.57
-0.58
-0.59
-0.585
-0.59
-0.585
-0.565
-0.575
-0.56
-0.55
-0.565
-0.56
-0.57
-0.57
-0.585
-0.585
-0.595
-0.595
-0.57
-0.585
-0.575
-0.575
-0.575
-0.58
-0.59
-0.605
-0.61
-0.6
-0.605
-0.605
-0.59
-0.595
-0.58
-0.58
-0.58
-0.595
-0.595
-0.605
-0.6
-0.605
-0.6
-0.595
-0.595
-0.59
-0.59
-0.58
-0.585
-0.59
-0.6
-0.615
-0.6
-0.605
-0.605
-0.605
-0.605
-0.6
-0.595
-0.585
-0.585
-0.58
-0.585
-0.59
-0.615
-0.61
-0.61
-0.61
-0.59
-0.585
-0.585
-0.58
-0.575
-0.57
-0.575
-0.585
-0.595
-0.605
-0.6
-0.59
-0.58
-0.57
-0.575
-0.57
-0.575
-0.56
-0.555
-0.555
-0.545
-0.54
-0.535
-0.51
-0.495
-0.475
-0.47
-0.45
-0.45
-0.44
-0.43
-0.435
-0.445
-0.44
-0.435
-0.45
-0.445
-0.45
-0.445
-0.435
-0.435
-0.44
-0.46
-0.47
-0.48
-0.475
-0.495
-0.505
-0.51
-0.52
-0.54
-0.545
-0.55
-0.57
-0.57
-0.58
-0.595
-0.595
-0.585
-0.565
-0.57
-0.58
-0.56
-0.56
-0.56
-0.565
-0.58
-0.585
-0.595
-0.59
-0.585
-0.575
-0.575
-0.565
-0.56
-0.555
-0.545
-0.55
-0.56
-0.56
-0.54
-0.545
-0.535
-0.515
-0.505
-0.495
-0.47
-0.45
-0.41
-0.355
-0.265
-0.12
0.07
0.35
0.69
1.05
1.4
1.65
1.725
1.565
1.16
0.55
-0.09
-0.73
-1.17
-1.335
-1.235
-1.03
-0.765
-0.565
-0.42
-0.345
-0.32
-0.34
-0.39
-0.43
-0.45
-0.475
-0.47
-0.46
-0.44
-0.44
-0.42
-0.41
-0.425
-0.415
-0.42
-0.43
-0.44
-0.435
-0.445
-0.445
-0.44
-0.425
-0.41
-0.42
-0.43
-0.425
-0.42
-0.435
-0.435
-0.43
-0.445
-0.44
-0.425
-0.43
-0.415
-0.415
-0.41
-0.415
-0.425
-0.43
-0.435
-0.435
-0.43
-0.43
-0.415
-0.415
-0.41
-0.415
-0.405
-0.42
-0.43
-0.435
-0.45
-0.445
-0.425
-0.42
-0.41
-0.415
-0.405
-0.4
-0.395
-0.4
-0.405
-0.405
-0.41
-0.405
-0.4
-0.395
-0.4
-0.37
-0.375
-0.38
-0.385
-0.395
-0.39
-0.385
-0.38
-0.39
-0.375
-0.37
-0.36
-0.345
-0.34
-0.34
-0.345
-0.345
-0.355
-0.355
-0.355
-0.355
-0.36
-0.35
-0.335
-0.33
-0.315
-0.31
