Lead II
-0.34
-0.315
-0.315
-0.31
-0.315
-0.34
-0.335
-0.335
-0.315
-0.315
-0.32
-0.325
-0.32
-0.315
-0.285
-0.275
-0.275
-0.275
-0.27
-0.245
-0.235
-0.235
-0.24
-0.235
-0.23
-0.22
-0.2
-0.215
-0.225
-0.22
-0.22
-0.21
-0.195
-0.19
-0.22
-0.235
-0.25
-0.25
-0.26
-0.255
-0.27
-0.27
-0.245
-0.24
-0.24
-0.255
-0.265
-0.29
-0.3
-0.3
-0.305
-0.305
-0.325
-0.345
-0.34
-0.34
-0.345
-0.34
-0.37
-0.385
-0.385
-0.375
-0.36
-0.36
-0.37
-0.385
-0.39
-0.38
-0.375
-0.365
-0.38
-0.39
-0.395
-0.38
-0.37
-0.365
-0.38
-0.385
-0.395
-0.375
-0.365
-0.385
-0.395
-0.425
-0.485
-0.545
-0.565
-0.54
-0.5
-0.445
-0.335
-0.125
0.19
0.565
0.93
1.27
1.58
1.805
1.915
1.895
1.71
1.295
0.73
0.19
-0.21
-0.42
-0.49
-0.5
-0.475
-0.43
-0.34
-0.285
-0.285
-0.31
-0.335
-0.35
-0.34
-0.35
-0.36
-0.375
-0.38
-0.39
-0.39
-0.395
-0.41
-0.42
-0.42
-0.42
-0.41
-0.415
-0.435
-0.42
-0.435
-0.435
-0.415
-0.415
-0.425
-0.43
-0.43
-0.415
-0.41
-0.415
-0.425
-0.435
-0.435
-0.425
-0.405
-0.41
-0.425
-0.425
-0.43
-0.41
-0.405
-0.4
-0.405
-0.41
-0.42
-0.4
-0.385
-0.385
-0.375
-0.38
-0.375
-0.355
-0.335
-0.335
-0.335
-0.32
-0.31
-0.29
-0.265
-0.255
-0.245
-0.24
-0.225
-0.195
-0.18
-0.16
-0.165
-0.14
-0.13
-0.095
-0.08
-0.06
-0.06
-0.05
-0.04
-0.005
0.015
0.02
0.03
0.03
0.04
0.045
0.085
0.08
0.085
0.075
0.085
0.11
0.12
0.11
0.095
0.09
0.075
0.08
0.075
0.07
0.035
0.015
-0.005
-0.025
-0.035
-0.065
-0.095
-0.125
-0.145
-0.15
-0.165
-0.185
-0.22
-0.235
-0.245
-0.245
-0.245
-0.25
-0.26
-0.26
-0.28
-0.265
-0.26
-0.26
-0.28
-0.275
-0.28
-0.275
-0.265
-0.27
-0.27
-0.275
-0.275
-0.27
-0.26
-0.26
-0.265
-0.25
-0.265
-0.265
-0.245
-0.245
-0.255
-0.25
-0.255
-0.25
-0.245
-0.235
-0.25
-0.26
-0.26
-0.245
-0.24
-0.24
-0.25
-0.245
-0.235
-0.24
-0.245
-0.24
-0.24
-0.25
-0.26
-0.25
-0.235
-0.235
-0.245
-0.255
-0.26
-0.25
-0.245
-0.25
-0.255
-0.265
-0.265
-0.27
-0.26
-0.275
-0.285
-0.28
-0.28
-0.275
-0.265
-0.28
-0.3
-0.305
-0.305
-0.295
-0.295
-0.3
-0.305
-0.33
-0.32
-0.32
-0.305
-0.31
-0.32
-0.33
-0.33
-0.335
-0.32
-0.32
-0.325
-0.345
-0.345
-0.345
-0.325
-0.34
-0.33
-0.34
-0.355
-0.335
-0.335
-0.335
-0.345
-0.335
-0.345
-0.345
-0.335
-0.325
-0.35
-0.355
-0.35
-0.335
-0.33
-0.335
-0.34
-0.34
-0.335
-0.315
-0.3
-0.285
-0.28
-0.275
-0.275
-0.27
-0.25
-0.24
-0.24
-0.255
-0.265
-0.24
-0.235
-0.225
-0.23
-0.245
-0.255
-0.265
-0.255
-0.27
-0.29
-0.295
-0.29
-0.275
-0.26
-0.27
-0.29
-0.295
-0.325
-0.325
-0.335
-0.345
-0.35
-0.365
-0.38
-0.37
-0.375
-0.38
-0.4
-0.41
-0.41
-0.4
-0.395
-0.405
-0.405
-0.41
-0.43
-0.41
-0.39
-0.395
-0.4
-0.415
-0.425
-0.415
-0.4
-0.39
-0.39
-0.41
-0.415
-0.4
-0.405
-0.42
-0.47
-0.545
-0.58
-0.555
-0.485
-0.41
-0.295
-0.075
0.27
0.66
1.025
1.35
1.61
1.775
1.785
1.615
1.2
0.62
0.07
-0.3
-0.505
-0.54
-0.53
-0.49
-0.39
-0.33
-0.33
-0.34
-0.355
-0.375
-0.37
-0.365
-0.385
-0.39
-0.395
-0.405
-0.42
-0.44
-0.445
-0.44
-0.43
-0.43
-0.445
-0.46
-0.445
-0.425
-0.42
-0.435
-0.445
-0.45
-0.455
-0.45
-0.435
-0.435
-0.44
-0.44
-0.44
-0.43
-0.43
-0.43
-0.435
-0.435
-0.44
-0.43
-0.41
-0.41
-0.415
-0.42
-0.415
-0.405
-0.395
-0.375
-0.39
-0.38
-0.375
-0.37
-0.35
-0.35
-0.335
-0.34
-0.315
-0.305
-0.29
-0.275
-0.265
-0.25
-0.25
-0.225
-0.205
-0.175
-0.17
-0.155
-0.15
-0.12
-0.09
-0.085
-0.085
-0.075
-0.065
-0.05
-0.02
-0.02
-0.01
0.0
-0.01
0.025
0.04
0.045
0.045
0.045
0.045
0.055
0.045
0.05
0.03
0.015
0.0
-0.01
-0.03
-0.05
-0.08
-0.11
-0.13
-0.14
-0.15
-0.165
-0.2
-0.215
-0.23
-0.26
-0.255
-0.26
-0.265
-0.28
-0.28
-0.29
-0.285
-0.295
-0.295
-0.3
-0.295
-0.29
-0.285
-0.285
-0.305
-0.315
-0.32
-0.295
-0.285
-0.275
-0.285
-0.295
-0.3
-0.29
-0.28
-0.275
-0.285
-0.28
-0.29
-0.275
-0.27
-0.27
-0.27
-0.275
-0.28
-0.275
-0.26
-0.25
-0.26
-0.275
-0.265
-0.26
-0.255
-0.255
-0.275
-0.265
-0.27
-0.26
-0.265
-0.26
-0.275
-0.285
-0.29
-0.275
-0.275
-0.28
-0.305
-0.3
-0.305
-0.295
-0.295
-0.295
-0.315
-0.31
-0.325
-0.33
-0.32
-0.315
-0.33
-0.335
-0.33
-0.34
-0.33
-0.34
-0.335
-0.345
-0.36
-0.345
-0.34
-0.345
-0.35
-0.365
-0.375
-0.36
-0.35
-0.345
-0.365
-0.38
-0.375
-0.375
-0.36
-0.365
-0.375
-0.375
-0.39
-0.375
-0.37
-0.37
-0.375
-0.38
-0.38
-0.365
-0.365
-0.37
-0.38
-0.385
-0.4
-0.39
-0.365
-0.375
-0.38
-0.385
-0.385
-0.365
-0.335
-0.335
-0.31
-0.3
-0.305
-0.3
-0.285
-0.28
-0.275
-0.27
-0.28
-0.275
-0.255
-0.26
-0.27
-0.28
-0.28
-0.28
-0.295
-0.305
-0.325
-0.33
-0.315
-0.305
-0.285
-0.295
-0.31
-0.335
-0.345
-0.36
-0.36
-0.365
-0.39
-0.41
-0.41
-0.405
-0.4
-0.415
-0.43
-0.435
-0.44
-0.425
-0.425
-0.43
-0.435
-0.425
-0.44
-0.435
-0.43
-0.43
-0.44
-0.445
-0.455
-0.435
-0.43
-0.43
-0.44
-0.445
-0.45
-0.47
-0.52
-0.595
-0.62
-0.575
-0.51
-0.38
-0.175
0.175
0.565
0.955
1.335
1.625
1.81
1.83
1.635
1.195
0.57
-0.015
-0.39
-0.555
-0.565
-0.55
-0.485
-0.385
-0.325
-0.34
-0.395
-0.43
-0.44
-0.425
-0.42
-0.42
-0.435
-0.475
-0.485
-0.485
-0.48
-0.47
-0.49
-0.5
-0.5
-0.495
-0.485
-0.48
-0.5
-0.51
-0.52
-0.5
-0.485
-0.485
-0.51
-0.505
-0.52
-0.5
-0.49
-0.49
-0.5
-0.515
-0.505
-0.48
-0.47
-0.47
-0.475
-0.485
-0.485
-0.475
-0.455
-0.455
-0.455
-0.455
-0.45
-0.43
-0.41
-0.42
-0.41
-0.41
-0.41
-0.385
-0.365
-0.36
-0.37
-0.35
-0.345
-0.32
-0.305
-0.285
-0.275
-0.27
-0.25
-0.225
-0.2
-0.185
-0.17
-0.155
-0.14
-0.115
-0.09
-0.09
-0.085
-0.07
-0.055
-0.04
-0.005
-0.005
0.0
0.0
0.0
0.035
0.04
0.045
0.03
0.03
0.02
0.035
0.04
0.025
0.0
-0.01
-0.03
-0.035
-0.055
-0.08
-0.11
-0.13
-0.16
-0.19
-0.19
-0.22
-0.24
-0.28
-0.285
-0.29
-0.29
-0.31
-0.33
-0.34
-0.35
-0.35
-0.34
-0.35
-0.35
-0.365
-0.36
-0.365
-0.35
-0.365
-0.365
-0.38
-0.365
-0.36
-0.345
-0.355
-0.36
-0.37
-0.37
-0.355
-0.335
-0.35
-0.345
-0.345
-0.345
-0.34
-0.32
-0.325
-0.335
-0.34
-0.34
-0.32
-0.315
-0.315
-0.335
-0.325
-0.325
-0.32
-0.32
-0.31
-0.315
-0.32
-0.325
-0.325
-0.315
-0.325
-0.335
-0.335
-0.345
-0.335
-0.32
-0.335
-0.335
-0.345
-0.35
-0.33
-0.345
-0.345
-0.35
-0.365
-0.365
-0.37
-0.36
-0.37
-0.38
-0.385
-0.4
-0.385
-0.37
-0.385
-0.385
-0.395
-0.4
-0.41
-0.4
-0.395
-0.4
-0.41
-0.41
-0.4
-0.4
-0.405
-0.42
-0.425
-0.43
-0.42
-0.41
-0.43
-0.44
-0.44
-0.44
-0.435
-0.43
-0.44
-0.44
-0.455
-0.445
-0.455
-0.425
-0.425
-0.435
-0.45
-0.45
-0.45
-0.435
-0.44
-0.45
-0.455
-0.455
-0.435
-0.44
-0.44
-0.44
-0.435
-0.43
-0.41
-0.39
-0.38
-0.365
-0.365
-0.37
-0.36
-0.345
-0.345
-0.33
-0.34
-0.34
-0.34
-0.315
-0.32
-0.325
-0.33
-0.33
-0.335
-0.34
-0.35
-0.38
-0.39
-0.39
-0.38
-0.36
-0.345
-0.36
-0.365
-0.39
-0.395
-0.39
-0.405
-0.42
-0.435
-0.445
-0.44
-0.44
-0.45
-0.465
-0.475
-0.49
-0.495
-0.475
-0.485
-0.495
-0.49
-0.51
-0.48
-0.47
-0.48
-0.485
-0.505
-0.5
-0.49
-0.48
-0.485
-0.5
-0.5
-0.505
-0.48
-0.47
-0.48
-0.485
-0.49
-0.555
-0.6
-0.65
-0.67
-0.625
-0.575
-0.475
-0.29
0.015
0.395
0.79
1.165
1.49
1.74
1.86
1.825
1.6
1.14
0.515
-0.05
-0.42
-0.58
-0.61
-0.605
-0.555
-0.455
-0.38
-0.37
-0.41
-0.45
-0.455
-0.45
-0.44
-0.455
-0.465
-0.485
-0.505
-0.505
-0.5
-0.515
-0.525
-0.545
-0.52
-0.515
-0.51
-0.51
-0.52
-0.525
-0.535
-0.525
-0.515
-0.525
-0.525
-0.525
-0.545
-0.525
-0.505
-0.5
-0.515
-0.51
-0.52
-0.505
-0.49
-0.49
-0.49
-0.49
-0.495
-0.475
-0.465
-0.455
-0.455
-0.465
-0.465
-0.455
-0.43
-0.42
-0.42
-0.415
-0.41
-0.39
-0.37
-0.355
-0.355
-0.34
-0.335
-0.3
-0.275
-0.265
-0.25
-0.23
-0.215
-0.19
-0.155
-0.15
-0.14
-0.12
-0.105
-0.08
-0.06
-0.045
-0.045
-0.045
-0.035
-0.01
0.015
0.015
0.015
0.015
0.02
0.035
0.045
0.03
0.005
0.01
0.005
-0.005
-0.02
-0.05
-0.085
-0.105
-0.14
-0.15
-0.17
-0.205
-0.23
-0.255
-0.27
-0.29
-0.31
-0.3
-0.33
-0.345
-0.36
-0.36
-0.345
-0.36
-0.355
-0.365
-0.37
-0.36
-0.365
-0.355
-0.37
-0.375
-0.375
-0.37
-0.36
-0.365
-0.37
-0.375
-0.38
-0.365
-0.355
-0.345
-0.345
-0.35
-0.345
-0.345
-0.33
-0.33
-0.34
-0.35
-0.35
-0.34
-0.325
-0.315
-0.33
-0.34
-0.335
-0.33
-0.325
-0.33
-0.335
-0.335
-0.34
-0.33
-0.32
-0.32
-0.335
-0.33
-0.345
-0.34
-0.335
-0.335
-0.345
-0.36
-0.355
-0.355
-0.34
-0.335
-0.365
-0.37
-0.36
-0.365
-0.345
-0.355
-0.375
-0.38
-0.39
-0.385
-0.375
-0.38
-0.395
-0.395
-0.405
-0.38
-0.385
-0.385
-0.39
-0.415
-0.405
-0.39
-0.405
-0.41
-0.41
-0.425
-0.415
-0.41
-0.395
-0.41
-0.425
-0.43
-0.44
-0.44
-0.43
-0.42
-0.43
-0.445
-0.445
-0.425
-0.42
-0.415
-0.41
-0.425
-0.45
-0.435
-0.43
-0.425
-0.43
-0.435
-0.435
-0.42
-0.385
-0.39
-0.375
-0.37
-0.36
-0.35
-0.345
-0.33
-0.34
-0.325
-0.335
-0.325
-0.32
-0.33
-0.33
-0.33
-0.34
-0.325
-0.335
-0.33
-0.335
-0.355
-0.375
-0.375
-0.365
-0.36
-0.355
-0.355
-0.355
-0.365
-0.375
-0.395
-0.405
-0.41
-0.425
-0.415
-0.44
-0.45
-0.465
-0.475
-0.48
-0.475
-0.455
-0.47
-0.48
-0.49
-0.495
-0.49
-0.485
-0.485
-0.495
-0.495
-0.495
-0.49
-0.485
-0.475
-0.485
-0.49
-0.485
-0.485
-0.455
-0.475
-0.48
-0.485
-0.5
-0.535
-0.59
-0.64
-0.66
-0.595
-0.53
-0.45
-0.28
0.005
0.4
0.8
1.17
1.49
1.71
1.78
1.675
1.325
0.76
0.18
-0.26
-0.51
-0.595
-0.61
-0.6
-0.525
-0.43
-0.375
-0.395
-0.435
-0.455
-0.445
-0.435
-0.44
-0.445
-0.475
-0.49
-0.5
-0.485
-0.49
-0.495
-0.52
-0.51
-0.515
-0.495
-0.51
-0.52
-0.52
-0.525
-0.515
-0.495
-0.5
-0.505
-0.515
-0.515
-0.515
-0.485
-0.49
-0.5
-0.505
-0.51
-0.48
-0.495
-0.485
-0.48
-0.475
-0.48
-0.465
-0.46
-0.455
-0.46
-0.445
-0.445
-0.425
-0.42
-0.405
-0.4
-0.405
-0.39
-0.37
-0.345
-0.34
-0.335
-0.325
-0.315
-0.28
-0.245
-0.235
-0.235
-0.21
-0.2
-0.16
-0.145
-0.13
-0.115
-0.105
-0.095
-0.075
-0.05
-0.035
-0.025
-0.025
-0.01
-0.005
0.03
0.035
0.015
0.02
0.015
0.025
0.035
0.015
0.0
-0.02
-0.04
-0.06
-0.07
-0.095
-0.115
-0.16
-0.18
-0.2
-0.195
-0.225
-0.255
-0.285
-0.295
-0.29
-0.295
-0.305
-0.325
-0.34
-0.35
-0.34
-0.34
-0.35
-0.355
-0.365
-0.36
-0.35
-0.34
-0.345
-0.36
-0.35
-0.35
-0.345
-0.33
-0.335
-0.345
-0.35
-0.355
-0.335
-0.32
-0.32
-0.335
-0.33
-0.325
-0.315
-0.31
-0.305
-0.31
-0.31
-0.32
-0.305
-0.285
-0.295
-0.305
-0.31
-0.315
-0.295
-0.29
-0.28
-0.29
-0.31
-0.305
-0.3
-0.3
-0.29
-0.295
-0.305
-0.305
-0.295
-0.285
-0.3
-0.31
-0.315
-0.32
-0.315
-0.3
-0.315
-0.32
-0.34
-0.33
-0.33
-0.32
-0.32
-0.33
-0.34
-0.35
-0.34
-0.33
-0.335
-0.34
-0.355
-0.365
-0.36
-0.355
-0.365
-0.365
-0.365
-0.38
-0.365
-0.365
-0.375
-0.37
-0.385
-0.4
-0.39
-0.37
-0.375
-0.385
-0.385
-0.395
-0.38
-0.37
-0.385
-0.395
-0.405
-0.4
-0.395
-0.385
-0.385
-0.39
-0.4
-0.4
-0.38
-0.375
-0.385
-0.39
-0.39
-0.405
-0.39
-0.37
-0.375
-0.395
-0.39
-0.375
-0.345
-0.34
-0.325
-0.325
-0.305
-0.32
-0.31
-0.3
-0.29
-0.29
-0.285
-0.285
-0.26
-0.265
-0.27
-0.27
-0.285
-0.285
-0.28
-0.265
-0.28
-0.3
-0.315
-0.345
-0.33
-0.31
-0.305
-0.305
-0.31
-0.325
-0.335
-0.33
-0.345
-0.365
-0.38
-0.41
-0.39
-0.385
-0.405
-0.415
-0.43
-0.445
-0.425
-0.425
-0.43
-0.44
-0.45
-0.435
-0.435
-0.43
-0.43
-0.435
-0.445
-0.45
-0.435
-0.42
-0.425
-0.435
-0.435
-0.43
-0.435
-0.415
-0.42
-0.45
-0.475
-0.54
-0.595
-0.605
-0.565
-0.515
-0.46
-0.315
-0.04
0.325
0.75
1.14
1.515
1.81
1.945
1.895
1.57
0.98
0.34
-0.225
-0.49
-0.54
-0.51
-0.47
-0.4
-0.335
-0.3
-0.325
-0.355
-0.38
-0.39
-0.39
-0.395
-0.385
-0.42
-0.43
-0.435
-0.445
-0.445
-0.44
-0.445
-0.46
-0.465
-0.465
-0.455
-0.44
-0.46
-0.455
-0.45
-0.46
-0.45
-0.445
-0.45
-0.455
-0.45
-0.465
-0.435
-0.43
-0.425
-0.43
-0.45
-0.455
-0.43
-0.43
-0.425
-0.425
-0.435
-0.43
-0.415
-0.405
-0.4
-0.395
-0.4
-0.39
-0.375
-0.355
-0.355
-0.35
-0.345
-0.345
-0.315
-0.3
-0.285
-0.275
-0.265
-0.25
-0.235
-0.21
-0.195
-0.2
-0.175
-0.16
-0.125
-0.115
-0.09
-0.085
-0.075
-0.06
-0.03
-0.015
0.005
0.01
0.015
0.015
0.045
0.055
0.06
0.065
0.07
0.075
0.09
0.11
0.105
0.095
0.095
0.09
0.1
0.11
0.09
0.085
0.045
0.025
0.02
0.02
-0.005
-0.025
-0.055
-0.095
-0.1
-0.105
-0.13
-0.15
-0.195
-0.21
-0.215
-0.215
-0.23
-0.26
-0.265
-0.28
-0.28
-0.27
-0.28
-0.285
-0.3
-0.305
-0.3
-0.295
-0.3
-0.305
-0.315
-0.325
-0.3
-0.29
-0.295
-0.3
-0.31
-0.31
-0.3
-0.285
-0.285
-0.285
-0.3
-0.305
-0.29
-0.28
-0.28
-0.285
-0.295
-0.29
-0.28
-0.275
-0.26
-0.26
-0.26
-0.275
-0.255
-0.25
-0.265
-0.265
-0.26
-0.28
-0.265
-0.25
-0.255
-0.25
-0.26
-0.255
-0.26
-0.255
-0.25
-0.265
-0.265
-0.265
-0.26
-0.25
-0.27
-0.27
-0.29
-0.29
-0.275
-0.27
-0.275
-0.29
-0.3
-0.295
-0.3
-0.29
-0.295
-0.29
-0.32
-0.315
-0.31
-0.31
-0.32
-0.325
-0.335
-0.33
-0.325
-0.31
-0.32
-0.335
-0.345
-0.345
-0.35
-0.33
-0.345
-0.355
-0.35
-0.365
-0.345
-0.345
-0.345
-0.35
-0.375
-0.37
-0.36
-0.345
-0.35
-0.36
-0.365
-0.36
-0.36
-0.36
-0.365
-0.365
-0.365
-0.375
-0.365
-0.355
-0.355
-0.365
-0.37
-0.375
-0.365
-0.345
-0.36
-0.365
-0.36
-0.365
-0.34
-0.32
-0.315
-0.32
-0.31
-0.305
-0.28
-0.265
-0.27
-0.27
-0.28
-0.27
-0.255
-0.25
-0.26
-0.27
-0.265
-0.265
-0.245
-0.245
-0.25
-0.275
-0.305
-0.315
-0.32
-0.305
-0.29
-0.28
-0.295
-0.3
-0.3
-0.305
-0.32
-0.345
-0.35
-0.36
-0.365
-0.365
-0.375
-0.385
-0.395
-0.405
-0.415
-0.4
-0.4
-0.41
-0.41
-0.42
-0.425
-0.395
-0.41
-0.43
-0.425
-0.425
-0.415
-0.405
-0.4
-0.41
-0.415
-0.42
-0.405
-0.4
-0.41
-0.43
-0.485
-0.55
-0.585
-0.55
-0.5
-0.42
-0.265
0.02
0.42
0.845
1.205
1.54
1.765
1.85
1.74
1.375
0.795
0.185
-0.26
-0.48
-0.52
-0.525
-0.485
-0.425
-0.335
-0.315
-0.325
-0.35
-0.38
-0.375
-0.375
-0.385
-0.37
-0.375
-0.41
-0.42
-0.435
-0.425
-0.42
-0.415
-0.43
-0.45
-0.45
-0.45
-0.43
-0.415
-0.425
-0.435
-0.43
-0.45
-0.44
-0.425
-0.44
-0.43
-0.43
-0.42
-0.425
-0.405
-0.42
-0.425
-0.43
-0.43
-0.41
-0.405
-0.41
-0.415
-0.41
-0.405
-0.4
-0.385
-0.385
-0.39
-0.395
-0.38
-0.365
-0.33
-0.33
-0.345
-0.345
-0.33
-0.31
-0.295
-0.29
-0.29
-0.29
-0.27
-0.24
-0.22
-0.225
-0.21
-0.2
-0.18
-0.16
-0.135
-0.12
-0.1
-0.1
-0.085
-0.055
-0.045
-0.03
-0.02
-0.025
-0.015
0.01
0.02
0.035
0.035
0.04
0.045
0.065
0.085
0.09
0.085
0.085
0.085
0.09
0.1
0.08
0.07
0.045
0.045
0.035
0.035
0.015
-0.02
-0.04
-0.06
-0.085
-0.08
-0.1
-0.115
-0.16
-0.205
-0.2
-0.195
-0.2
-0.225
-0.24
-0.255
-0.24
-0.235
-0.24
-0.255
-0.27
-0.275
-0.27
-0.27
-0.275
-0.275
-0.275
-0.285
-0.27
-0.255
-0.275
-0.28
-0.265
-0.27
-0.275
-0.27
-0.275
-0.27
-0.265
-0.275
-0.265
-0.255
-0.265
-0.265
-0.26
-0.275
-0.25
-0.245
-0.245
-0.25
-0.245
-0.245
-0.25
-0.235
-0.235
-0.245
-0.26
-0.245
-0.25
-0.23
-0.23
-0.23
-0.245
-0.255
-0.24
-0.24
-0.24
-0.255
-0.245
-0.245
-0.24
-0.225
-0.24
-0.24
-0.255
-0.255
-0.255
-0.255
-0.265
-0.275
-0.265
-0.27
-0.27
-0.27
-0.265
-0.28
-0.29
-0.285
-0.285
-0.275
-0.275
-0.29
-0.305
-0.305
-0.3
-0.285
-0.305
-0.3
-0.315
-0.315
-0.31
-0.295
-0.31
-0.315
-0.32
-0.33
-0.32
-0.305
-0.315
-0.325
-0.34
-0.34
-0.32
-0.315
-0.32
-0.325
-0.345
-0.335
-0.33
-0.325
-0.335
-0.33
-0.33
-0.335
-0.33
-0.33
-0.34
-0.33
-0.345
-0.35
-0.35
-0.335
-0.325
-0.335
-0.345
-0.34
-0.315
-0.305
-0.3
-0.295
-0.285
-0.28
-0.265
-0.25
-0.245
-0.255
-0.26
-0.24
-0.225
-0.21
-0.21
-0.235
-0.24
-0.23
-0.22
-0.215
-0.235
-0.25
-0.26
-0.265
-0.255
-0.265
-0.275
-0.27
-0.265
-0.265
-0.25
-0.25
-0.27
-0.305
-0.32
-0.33
-0.33
-0.325
-0.335
-0.36
-0.375
-0.37
-0.36
-0.36
-0.365
-0.385
-0.41
-0.395
-0.4
-0.385
-0.385
-0.395
-0.405
-0.4
-0.39
-0.375
-0.375
-0.39
-0.4
-0.4
-0.385
-0.37
-0.375
-0.38
-0.39
-0.38
-0.375
-0.375
-0.405
-0.455
-0.525
-0.55
-0.515
-0.45
-0.39
-0.325
-0.155
0.13
0.46
0.785
1.095
1.395
1.635
1.765
1.805
1.685
1.34
0.82
0.325
-0.085
-0.335
-0.47
-0.51
-0.51
-0.445
-0.35
-0.28
-0.28
-0.31
-0.345
-0.355
-0.36
-0.36
-0.345
-0.36
-0.375
-0.39
-0.4
-0.4
-0.395
-0.4
-0.41
-0.415
-0.425
-0.415
-0.42
-0.41
-0.42
-0.425
-0.42
-0.42
-0.395
-0.405
-0.425
-0.425
-0.42
-0.42
-0.41
-0.425
-0.42
-0.43
-0.415
-0.405
-0.395
-0.39
-0.405
-0.405
-0.42
-0.4
-0.395
-0.385
-0.39
-0.375
-0.38
-0.37
-0.355
-0.355
-0.365
-0.37
-0.36
-0.34
-0.32
-0.31
-0.315
-0.31
-0.295
-0.275
-0.255
-0.245
-0.23
-0.24
-0.22
-0.18
-0.175
-0.165
-0.15
-0.155
-0.145
-0.11
-0.075
-0.05
-0.06
-0.04
-0.03
-0.005
0.005
0.025
0.035
0.02
0.035
0.065
0.075
0.07
0.075
0.08
0.085
0.095
0.12
0.1
0.105
0.095
0.07
0.075
0.07
0.05
0.035
0.01
-0.005
-0.015
-0.03
-0.05
-0.075
-0.105
-0.125
-0.13
-0.14
-0.155
-0.175
-0.19
-0.2
-0.205
-0.2
-0.21
-0.24
-0.245
-0.255
-0.245
-0.24
-0.245
-0.255
-0.255
-0.265
-0.255
-0.25
-0.26
-0.26
-0.265
-0.265
-0.26
-0.255
-0.25
-0.26
-0.265
-0.265
-0.255
-0.245
-0.24
-0.25
-0.25
-0.255
-0.255
-0.23
-0.23
-0.235
-0.235
-0.23
-0.225
-0.22
-0.215
-0.225
-0.225
-0.23
-0.21
-0.21
-0.22
-0.22
-0.225
-0.22
-0.21
-0.205
-0.195
-0.22
-0.215
-0.225
-0.23
-0.2
-0.21
-0.215
-0.22
-0.22
-0.22
-0.205
-0.215
-0.235
-0.23
-0.235
-0.225
-0.22
-0.235
-0.245
-0.25
-0.24
-0.245
-0.245
-0.24
-0.255
-0.255
-0.265
-0.26
-0.255
-0.27
-0.28
-0.275
-0.275
-0.275
-0.27
-0.275
-0.275
-0.28
-0.285
-0.28
-0.27
-0.28
-0.29
-0.295
-0.295
-0.29
-0.295
-0.285
-0.305
-0.31
-0.305
-0.3
-0.295
-0.305
-0.295
-0.315
-0.305
-0.3
-0.285
-0.28
-0.3
-0.315
-0.3
-0.285
-0.28
-0.285
-0.285
-0.27
-0.27
-0.25
-0.22
-0.205
-0.21
-0.22
-0.225
-0.215
-0.19
-0.17
-0.175
-0.185
-0.21
-0.18
-0.165
-0.155
-0.16
-0.2
-0.19
-0.2
-0.2
-0.215
-0.225
-0.23
-0.22
-0.21
-0.2
-0.22
-0.24
-0.265
-0.27
-0.27
-0.275
-0.29
-0.3
-0.32
-0.32
-0.31
-0.315
-0.325
-0.33
-0.35
-0.345
-0.33
-0.325
-0.33
-0.34
-0.345
-0.335
-0.33
-0.32
-0.325
-0.35
-0.345
-0.335
-0.325
-0.32
-0.33
-0.33
-0.345
-0.335
-0.33
-0.36
-0.42
-0.46
-0.495
-0.475
-0.4
-0.315
-0.21
0.035
0.37
0.78
1.185
1.555
1.83
1.955
1.93
1.71
1.235
0.645
0.105
-0.27
-0.445
-0.465
-0.43
-0.35
-0.26
-0.225
-0.215
-0.255
-0.265
-0.27
-0.28
-0.295
-0.31
-0.325
-0.325
-0.33
-0.335
-0.35
-0.36
-0.37
-0.355
-0.36
-0.355
-0.365
-0.38
-0.365
-0.36
-0.35
-0.36
-0.355
-0.37
-0.365
-0.36
-0.355
-0.35
-0.345
-0.355
-0.35
-0.335
-0.335
-0.33
-0.325
-0.345
-0.33
-0.32
-0.31
-0.305
-0.31
-0.315
-0.325
-0.31
-0.285
-0.275
-0.28
-0.285
-0.27
-0.25
-0.25
-0.23
-0.225
-0.22
-0.215
-0.185
-0.16
-0.145
-0.14
-0.125
-0.105
-0.09
-0.06
-0.035
-0.03
-0.015
0.005
0.02
0.05
0.055
0.07
0.075
0.09
0.12
0.13
0.145
0.16
0.145
0.155
0.17
0.195
0.205
0.195
0.19
0.19
0.195
0.19
0.19
0.175
0.15
0.135
0.115
0.11
0.085
0.055
0.025
0.0
-0.025
-0.04
-0.05
-0.085
-0.105
-0.125
-0.13
-0.14
-0.155
-0.16
-0.19
-0.2
-0.195
-0.185
-0.19
-0.2
-0.23
-0.22
-0.22
-0.21
-0.205
-0.21
-0.22
-0.225
-0.215
-0.215
-0.21
-0.225
-0.22
-0.21
-0.2
-0.195
-0.195
-0.205
-0.205
-0.195
-0.195
-0.19
-0.18
-0.19
-0.2
-0.19
-0.18
-0.17
-0.175
-0.18
-0.185
-0.185
-0.17
-0.17
-0.16
-0.16
-0.195
-0.175
-0.165
-0.18
-0.165
-0.18
-0.18
-0.195
-0.18
-0.16
-0.17
-0.19
-0.2
-0.2
-0.19
-0.19
-0.185
-0.2
-0.215
-0.205
-0.21
-0.195
-0.21
-0.23
-0.225
-0.23
-0.23
-0.23
-0.225
-0.23
-0.23
-0.24
-0.23
-0.23
-0.245
-0.245
-0.255
-0.25
-0.25
-0.245
-0.235
-0.25
-0.255
-0.26
-0.26
-0.255
-0.255
-0.255
-0.27
-0.275
-0.265
-0.26
-0.26
-0.26
-0.275
-0.27
-0.265
-0.26
-0.25
-0.27
-0.275
-0.28
-0.265
-0.25
-0.255
-0.265
-0.27
-0.26
-0.24
-0.23
-0.22
-0.225
-0.21
-0.205
-0.21
-0.18
-0.18
-0.18
-0.18
-0.175
-0.16
-0.16
-0.15
-0.16
-0.17
-0.165
-0.185
-0.175
-0.215
-0.23
-0.225
-0.195
-0.2
-0.19
-0.205
-0.225
-0.24
-0.245
-0.26
-0.26
-0.275
-0.29
-0.3
-0.305
-0.305
-0.3
-0.315
-0.325
-0.33
-0.34
-0.33
-0.31
-0.315
-0.325
-0.33
-0.33
-0.32
-0.325
-0.32
-0.32
-0.33
-0.335
-0.325
-0.32
-0.315
-0.315
-0.33
-0.34
-0.365
-0.43
-0.495
-0.485
-0.44
-0.365
-0.225
0.02
0.39
0.815
1.205
1.595
1.865
1.96
1.855
1.5
0.92
0.3
-0.16
-0.375
-0.435
-0.43
-0.395
-0.32
-0.23
-0.21
-0.235
-0.28
-0.295
-0.305
-0.28
-0.3
-0.3
-0.32
-0.345
-0.355
-0.35
-0.345
-0.345
-0.355
-0.36
-0.365
-0.35
-0.35
-0.35
-0.36
-0.37
-0.36
-0.35
-0.345
-0.345
-0.36
-0.345
-0.36
-0.355
-0.34
-0.34
-0.34
-0.345
-0.34
-0.335
-0.31
-0.32
-0.325
-0.33
-0.315
-0.305
-0.295
-0.295
-0.3
-0.295
-0.29
-0.28
-0.265
-0.25
-0.24
-0.24
-0.23
-0.215
-0.195
-0.17
-0.165
-0.165
-0.14
-0.13
-0.09
-0.065
-0.055
-0.05
-0.02
-0.005
0.015
0.03
0.05
0.06
0.065
0.09
0.125
0.125
0.13
0.14
0.145
0.155
0.195
0.195
0.205
0.18
0.195
0.21
0.21
0.215
0.19
0.17
0.155
0.15
0.145
0.135
0.1
0.06
0.04
0.025
0.015
-0.01
-0.03
-0.07
-0.095
-0.11
-0.125
-0.145
-0.155
-0.165
-0.18
-0.175
-0.17
-0.18
-0.205
-0.21
-0.22
-0.22
-0.21
-0.21
-0.215
-0.23
-0.225
-0.22
-0.205
-0.21
-0.22
-0.22
-0.215
-0.205
-0.2
-0.215
-0.22
-0.215
-0.21
-0.195
-0.185
-0.18
-0.195
-0.2
-0.185
-0.18
-0.17
-0.175
-0.185
-0.19
-0.18
-0.175
-0.17
-0.17
-0.18
-0.195
-0.185
-0.185
-0.175
-0.18
-0.18
-0.19
-0.195
-0.175
-0.18
-0.185
-0.19
-0.205
-0.2
-0.195
-0.19
-0.19
-0.2
-0.205
-0.2
-0.195
-0.2
-0.205
-0.21
-0.22
-0.22
-0.225
-0.2
-0.21
-0.225
-0.24
-0.24
-0.25
-0.245
-0.25
-0.245
-0.265
-0.25
-0.235
-0.25
-0.24
-0.25
-0.26
-0.255
-0.255
-0.255
-0.255
-0.27
-0.28
-0.27
-0.255
-0.255
-0.255
-0.27
-0.285
-0.28
-0.27
-0.25
-0.26
-0.275
-0.275
-0.285
-0.275
-0.27
-0.275
-0.265
-0.285
-0.275
-0.265
-0.28
-0.28
-0.275
-0.28
-0.27
-0.26
-0.25
-0.235
-0.24
-0.225
-0.205
-0.21
-0.19
-0.19
-0.195
-0.2
-0.17
-0.16
-0.14
-0.145
-0.165
-0.175
-0.165
-0.165
-0.15
-0.16
-0.175
-0.195
-0.2
-0.22
-0.21
-0.22
-0.215
-0.21
-0.205
-0.2
-0.215
-0.22
-0.24
-0.265
-0.255
-0.27
-0.28
-0.285
-0.295
-0.305
-0.315
-0.305
-0.3
-0.315
-0.34
-0.34
-0.335
-0.335
-0.335
-0.335
-0.345
-0.345
-0.325
-0.33
-0.315
-0.32
-0.33
-0.335
-0.325
-0.325
-0.31
-0.32
-0.325
-0.34
-0.34
-0.345
-0.36
-0.41
-0.485
-0.51
-0.475
-0.4
-0.3
-0.155
0.11
0.47
0.87
1.23
1.54
1.785
1.895
1.865
1.615
1.145
0.565
0.055
-0.28
-0.445
-0.465
-0.465
-0.4
-0.335
-0.26
-0.245
-0.265
-0.29
-0.295
-0.29
-0.3
-0.31
-0.31
-0.315
-0.325
-0.33
-0.35
-0.365
-0.37
-0.35
-0.35
-0.355
-0.365
-0.37
-0.36
-0.355
-0.345
-0.35
-0.355
-0.365
-0.375
-0.35
-0.34
-0.35
-0.35
-0.36
-0.36
-0.36
-0.345
-0.335
-0.35
-0.355
-0.34
-0.33
-0.315
-0.315
-0.31
-0.32
-0.31
-0.3
-0.29
-0.3
-0.31
-0.305
-0.27
-0.275
-0.26
-0.255
-0.25
-0.26
-0.23
-0.22
-0.205
-0.195
-0.18
-0.175
-0.15
-0.13
-0.11
-0.105
-0.1
-0.085
-0.07
-0.045
-0.025
-0.015
-0.005
0.005
0.035
0.05
0.075
0.085
0.095
0.09
0.105
0.125
0.14
0.155
0.16
0.145
0.165
0.185
0.185
0.175
0.175
0.155
0.15
0.155
0.155
0.14
0.105
0.085
0.065
0.05
0.025
-0.005
-0.035
-0.06
-0.075
-0.075
-0.1
-0.11
-0.12
-0.155
-0.17
-0.16
-0.17
-0.175
-0.185
-0.2
-0.19
-0.18
-0.19
-0.195
-0.21
-0.225
-0.21
-0.21
-0.195
-0.195
-0.2
-0.2
-0.2
-0.19
-0.185
-0.2
-0.195
-0.215
-0.21
-0.2
-0.18
-0.175
-0.185
-0.2
-0.18
-0.18
-0.17
-0.175
-0.19
-0.185
-0.18
-0.165
-0.155
-0.17
-0.165
-0.175
-0.17
-0.155
-0.15
-0.155
-0.17
-0.18
-0.175
-0.185
-0.175
-0.175
-0.175
-0.185
-0.175
-0.18
-0.17
-0.175
-0.185
-0.2
-0.2
-0.2
-0.19
-0.185
-0.205
-0.215
-0.21
-0.2
-0.185
-0.2
-0.205
-0.225
-0.225
-0.22
-0.21
-0.23
-0.235
-0.25
-0.25
-0.23
-0.225
-0.23
-0.24
-0.245
-0.255
-0.255
-0.23
-0.245
-0.25
-0.27
-0.27
-0.265
-0.25
-0.26
-0.285
-0.28
-0.27
-0.26
-0.25
-0.255
-0.27
-0.275
-0.265
-0.27
-0.265
-0.27
-0.275
-0.285
-0.27
-0.26
-0.255
-0.26
-0.27
-0.29
-0.265
-0.26
-0.255
-0.25
-0.25
-0.26
-0.245
-0.215
-0.195
-0.185
-0.195
-0.2
-0.19
-0.17
-0.16
-0.16
-0.16
-0.16
-0.16
-0.155
-0.155
-0.15
-0.15
-0.165
-0.18
-0.17
-0.18
-0.195
-0.21
-0.225
-0.205
-0.2
-0.17
-0.175
-0.19
-0.22
-0.225
-0.24
-0.24
-0.265
-0.26
-0.285
-0.295
-0.285
-0.28
-0.28
-0.295
-0.315
-0.315
-0.295
-0.3
-0.315
-0.34
-0.34
-0.32
-0.31
-0.305
-0.305
-0.31
-0.315
-0.3
-0.29
-0.285
-0.295
-0.31
-0.315
-0.315
-0.295
-0.305
-0.32
-0.345
-0.39
-0.435
-0.45
-0.41
-0.375
-0.3
-0.205
0.0
0.335
0.695
1.03
1.33
1.585
1.765
1.835
1.725
1.39
0.88
0.38
-0.03
-0.275
-0.405
-0.475
-0.455
-0.355
-0.25
-0.195
-0.225
-0.25
-0.285
-0.295
-0.28
-0.27
-0.27
-0.275
-0.295
-0.31
-0.32
-0.32
-0.32
-0.315
-0.335
-0.34
-0.335
-0.335
-0.325
-0.335
-0.34
-0.35
