Lead II
-0.785
-0.805
-0.805
-0.82
-0.83
-0.84
-0.835
-0.835
-0.835
-0.815
-0.795
-0.78
-0.785
-0.78
-0.805
-0.815
-0.825
-0.84
-0.835
-0.82
-0.81
-0.785
-0.77
-0.775
-0.77
-0.78
-0.795
-0.8
-0.805
-0.81
-0.805
-0.81
-0.8
-0.795
-0.795
-0.775
-0.775
-0.785
-0.785
-0.795
-0.8
-0.795
-0.78
-0.775
-0.775
-0.77
-0.78
-0.785
-0.785
-0.775
-0.775
-0.77
-0.77
-0.775
-0.785
-0.795
-0.795
-0.785
-0.77
-0.77
-0.775
-0.785
-0.775
-0.765
-0.75
-0.76
-0.785
-0.79
-0.79
-0.8
-0.785
-0.765
-0.755
-0.77
-0.765
-0.77
-0.755
-0.765
-0.77
-0.785
-0.78
-0.775
-0.76
-0.76
-0.755
-0.76
-0.76
-0.765
-0.76
-0.755
-0.73
-0.725
-0.72
-0.71
-0.7
-0.705
-0.7
-0.685
-0.69
-0.69
-0.705
-0.715
-0.735
-0.72
-0.71
-0.71
-0.695
-0.695
-0.7
-0.7
-0.7
-0.705
-0.72
-0.715
-0.72
-0.73
-0.715
-0.72
-0.71
-0.695
-0.7
-0.715
-0.735
-0.745
-0.76
-0.755
-0.765
-0.765
-0.77
-0.755
-0.755
-0.745
-0.735
-0.73
-0.735
-0.745
-0.74
-0.74
-0.72
-0.71
-0.68
-0.64
-0.58
-0.495
-0.425
-0.33
-0.255
-0.185
-0.11
-0.075
-0.05
-0.03
0.0
0.04
0.07
0.055
0.035
-0.03
-0.09
-0.17
-0.25
-0.32
-0.39
-0.45
-0.51
-0.545
-0.605
-0.63
-0.66
-0.705
-0.715
-0.735
-0.73
-0.73
-0.725
-0.73
-0.72
-0.705
-0.7
-0.685
-0.675
-0.665
-0.675
-0.69
-0.69
-0.695
-0.695
-0.685
-0.7
-0.68
-0.675
-0.67
-0.67
-0.67
-0.67
-0.675
-0.665
-0.66
-0.65
-0.655
-0.655
-0.665
-0.675
-0.675
-0.66
-0.655
-0.65
-0.645
-0.64
-0.66
-0.65
-0.65
-0.65
-0.65
-0.64
-0.63
-0.615
-0.61
-0.605
-0.62
-0.625
-0.645
-0.66
-0.66
-0.64
-0.64
-0.615
-0.595
-0.58
-0.57
-0.58
-0.59
-0.61
-0.63
-0.625
-0.62
-0.61
-0.605
-0.59
-0.59
-0.57
-0.555
-0.56
-0.565
-0.58
-0.58
-0.6
-0.595
-0.59
-0.565
-0.555
-0.54
-0.52
-0.52
-0.535
-0.56
-0.585
-0.6
-0.62
-0.635
-0.63
-0.595
-0.575
-0.575
-0.595
-0.605
-0.61
-0.63
-0.64
-0.65
-0.64
-0.645
-0.655
-0.655
-0.675
-0.68
-0.68
-0.69
-0.7
-0.7
-0.705
-0.7
-0.705
-0.715
-0.725
-0.72
-0.72
-0.72
-0.705
-0.705
-0.71
-0.725
-0.74
-0.75
-0.755
-0.74
-0.735
-0.72
-0.73
-0.72
-0.72
-0.72
-0.725
-0.73
-0.745
-0.76
-0.77
-0.765
-0.75
-0.74
-0.745
-0.735
-0.74
-0.735
-0.745
-0.76
-0.775
-0.78
-0.79
-0.79
-0.775
-0.765
-0.755
-0.735
-0.74
-0.755
-0.77
-0.775
-0.77
-0.79
-0.79
-0.775
-0.785
-0.77
-0.77
-0.77
-0.765
-0.77
-0.77
-0.77
-0.78
-0.79
-0.8
-0.805
-0.795
-0.79
-0.78
-0.76
-0.75
-0.755
-0.76
-0.775
-0.785
-0.795
-0.8
-0.79
-0.79
-0.785
-0.76
-0.75
-0.75
-0.755
-0.785
-0.785
-0.795
-0.78
-0.775
-0.78
-0.77
-0.78
-0.78
-0.78
-0.75
-0.755
-0.765
-0.785
-0.79
-0.795
-0.8
-0.78
-0.765
-0.75
-0.755
-0.77
-0.765
-0.78
-0.77
-0.77
-0.775
-0.765
-0.77
-0.745
-0.74
-0.74
-0.765
-0.78
-0.785
-0.78
-0.775
-0.78
-0.79
-0.76
-0.76
-0.765
-0.76
-0.755
-0.745
-0.74
-0.735
-0.745
-0.75
-0.755
-0.765
-0.77
-0.77
-0.765
-0.765
-0.745
-0.75
-0.75
-0.755
-0.76
-0.75
-0.755
-0.76
-0.76
-0.76
-0.75
-0.76
-0.75
-0.76
-0.745
-0.735
-0.74
-0.75
-0.745
-0.745
-0.745
-0.75
-0.755
-0.76
-0.745
-0.72
-0.72
-0.74
-0.735
-0.72
-0.725
-0.705
-0.72
-0.715
-0.705
-0.705
-0.705
-0.705
-0.685
-0.67
-0.67
-0.655
-0.665
-0.665
-0.68
-0.68
-0.685
-0.695
-0.69
-0.685
-0.69
-0.68
-0.665
-0.665
-0.665
-0.665
-0.685
-0.68
-0.69
-0.69
-0.685
-0.685
-0.675
-0.665
-0.68
-0.715
-0.715
-0.735
-0.755
-0.755
-0.765
-0.745
-0.73
-0.72
-0.72
-0.705
-0.72
-0.72
-0.715
-0.735
-0.715
-0.715
-0.715
-0.695
-0.68
-0.64
-0.575
-0.49
-0.385
-0.285
-0.195
-0.11
-0.065
-0.015
0.055
0.08
0.12
0.16
0.16
0.145
0.09
0.01
-0.075
-0.17
-0.235
-0.315
-0.38
-0.47
-0.525
-0.595
-0.64
-0.685
-0.69
-0.695
-0.685
-0.68
-0.685
-0.7
-0.7
-0.695
-0.695
-0.685
-0.69
-0.675
-0.67
-0.67
-0.665
-0.665
-0.68
-0.675
-0.68
-0.675
-0.66
-0.655
-0.66
-0.655
-0.66
-0.65
-0.645
-0.655
-0.66
-0.66
-0.665
-0.645
-0.64
-0.61
-0.605
-0.615
-0.61
-0.625
-0.625
-0.635
-0.635
-0.635
-0.625
-0.63
-0.625
-0.615
-0.615
-0.595
-0.585
-0.58
-0.6
-0.6
-0.615
-0.615
-0.62
-0.625
-0.615
-0.6
-0.59
-0.58
-0.575
-0.59
-0.57
-0.59
-0.59
-0.595
-0.585
-0.575
-0.555
-0.535
-0.54
-0.545
-0.545
-0.55
-0.55
-0.55
-0.545
-0.535
-0.545
-0.525
-0.535
-0.53
-0.54
-0.54
-0.54
-0.55
-0.565
-0.565
-0.58
-0.59
-0.595
-0.585
-0.585
-0.575
-0.575
-0.575
-0.595
-0.61
-0.63
-0.64
-0.65
-0.665
-0.67
-0.68
-0.66
-0.665
-0.67
-0.68
-0.69
-0.71
-0.715
-0.725
-0.73
-0.73
-0.73
-0.735
-0.72
-0.71
-0.71
-0.695
-0.705
-0.71
-0.735
-0.735
-0.76
-0.76
-0.75
-0.74
-0.73
-0.725
-0.715
-0.71
-0.72
-0.72
-0.73
-0.745
-0.745
-0.75
-0.745
-0.755
-0.76
-0.76
-0.75
-0.75
-0.745
-0.755
-0.745
-0.75
-0.765
-0.76
-0.77
-0.77
-0.76
-0.745
-0.765
-0.77
-0.78
-0.79
-0.79
-0.795
-0.785
-0.775
-0.775
-0.765
-0.765
-0.75
-0.75
-0.745
-0.75
-0.765
-0.775
-0.78
-0.78
-0.785
-0.785
-0.78
-0.775
-0.77
-0.765
-0.76
-0.765
-0.765
-0.76
-0.77
-0.77
-0.78
-0.785
-0.775
-0.765
-0.74
-0.745
-0.74
-0.755
-0.775
-0.78
-0.775
-0.775
-0.77
-0.77
-0.78
-0.785
-0.795
-0.785
-0.77
-0.77
-0.76
-0.75
-0.755
-0.76
-0.77
-0.765
-0.77
-0.76
-0.76
-0.755
-0.76
-0.755
-0.755
-0.755
-0.77
-0.765
-0.765
-0.765
-0.77
-0.755
-0.76
-0.765
-0.74
-0.75
-0.74
-0.755
-0.755
-0.77
-0.775
-0.775
-0.77
-0.77
-0.775
-0.745
-0.73
-0.73
-0.735
-0.755
-0.765
-0.76
-0.765
-0.775
-0.78
-0.765
-0.76
-0.74
-0.74
-0.745
-0.74
-0.745
-0.745
-0.755
-0.75
-0.76
-0.76
-0.76
-0.765
-0.75
-0.745
-0.745
-0.74
-0.755
-0.755
-0.765
-0.77
-0.775
-0.755
-0.745
-0.735
-0.725
-0.705
-0.72
-0.73
-0.72
-0.72
-0.71
-0.705
-0.695
-0.69
-0.69
-0.675
-0.69
-0.69
-0.69
-0.675
-0.67
-0.685
-0.68
-0.695
-0.7
-0.7
-0.695
-0.685
-0.675
-0.675
-0.675
-0.685
-0.695
-0.7
-0.705
-0.7
-0.7
-0.675
-0.695
-0.695
-0.715
-0.72
-0.735
-0.74
-0.74
-0.73
-0.74
-0.735
-0.75
-0.75
-0.75
-0.74
-0.735
-0.72
-0.725
-0.72
-0.725
-0.725
-0.725
-0.7
-0.68
-0.625
-0.565
-0.475
-0.39
-0.28
-0.18
-0.11
-0.03
0.015
0.08
0.115
0.14
0.16
0.155
0.135
0.095
0.03
-0.055
-0.14
-0.215
-0.285
-0.37
-0.42
-0.485
-0.53
-0.57
-0.615
-0.675
-0.7
-0.735
-0.745
-0.74
-0.72
-0.715
-0.705
-0.71
-0.73
-0.73
-0.73
-0.725
-0.705
-0.7
-0.7
-0.695
-0.7
-0.7
-0.7
-0.71
-0.71
-0.695
-0.695
-0.69
-0.67
-0.67
-0.68
-0.685
-0.695
-0.685
-0.685
-0.68
-0.685
-0.69
-0.67
-0.68
-0.655
-0.655
-0.65
-0.65
-0.66
-0.675
-0.67
-0.67
-0.68
-0.665
-0.67
-0.66
-0.65
-0.645
-0.645
-0.635
-0.625
-0.625
-0.64
-0.65
-0.665
-0.66
-0.645
-0.655
-0.62
-0.625
-0.625
-0.62
-0.62
-0.615
-0.63
-0.635
-0.65
-0.65
-0.625
-0.62
-0.605
-0.585
-0.585
-0.575
-0.59
-0.61
-0.61
-0.625
-0.64
-0.62
-0.595
-0.6
-0.59
-0.595
-0.595
-0.595
-0.595
-0.61
-0.6
-0.61
-0.625
-0.63
-0.62
-0.615
-0.605
-0.625
-0.635
-0.64
-0.66
-0.68
-0.68
-0.675
-0.695
-0.685
-0.69
-0.71
-0.72
-0.72
-0.735
-0.75
-0.765
-0.775
-0.765
-0.76
-0.765
-0.765
-0.76
-0.755
-0.75
-0.745
-0.75
-0.76
-0.775
-0.8
-0.8
-0.805
-0.785
-0.78
-0.77
-0.745
-0.745
-0.755
-0.77
-0.785
-0.79
-0.775
-0.76
-0.745
-0.755
-0.765
-0.775
-0.78
-0.77
-0.76
-0.76
-0.76
-0.785
-0.785
-0.79
-0.8
-0.795
-0.79
-0.78
-0.755
-0.73
-0.735
-0.755
-0.77
-0.785
-0.815
-0.805
-0.795
-0.8
-0.795
-0.785
-0.795
-0.785
-0.79
-0.78
-0.785
-0.805
-0.805
-0.795
-0.805
-0.79
-0.78
-0.78
-0.775
-0.77
-0.765
-0.775
-0.78
-0.79
-0.795
-0.8
-0.805
-0.795
-0.795
-0.79
-0.78
-0.775
-0.78
-0.77
-0.78
-0.79
-0.805
-0.82
-0.83
-0.82
-0.81
-0.795
-0.775
-0.755
-0.755
-0.755
-0.745
-0.77
-0.8
-0.795
-0.8
-0.8
-0.79
-0.785
-0.78
-0.77
-0.76
-0.76
-0.76
-0.77
-0.775
-0.78
-0.775
-0.765
-0.775
-0.765
-0.77
-0.76
-0.745
-0.75
-0.74
-0.76
-0.765
-0.785
-0.785
-0.795
-0.785
-0.78
-0.795
-0.775
-0.765
-0.765
-0.76
-0.77
-0.775
-0.785
-0.8
-0.795
-0.78
-0.76
-0.745
-0.745
-0.755
-0.755
-0.765
-0.78
-0.805
-0.815
-0.815
-0.81
-0.8
-0.785
-0.765
-0.74
-0.75
-0.765
-0.77
-0.785
-0.81
-0.81
-0.8
-0.79
-0.775
-0.755
-0.74
-0.735
-0.735
-0.745
-0.76
-0.78
-0.79
-0.785
-0.765
-0.74
-0.725
-0.715
-0.705
-0.695
-0.695
-0.72
-0.71
-0.725
-0.725
-0.745
-0.745
-0.745
-0.72
-0.71
-0.685
-0.68
-0.675
-0.7
-0.725
-0.74
-0.75
-0.76
-0.755
-0.735
-0.725
-0.705
-0.705
-0.705
-0.71
-0.73
-0.76
-0.78
-0.805
-0.8
-0.81
-0.79
-0.78
-0.77
-0.77
-0.765
-0.76
-0.76
-0.78
-0.79
-0.77
-0.785
-0.78
-0.77
-0.755
-0.745
-0.7
-0.66
-0.585
-0.495
-0.41
-0.315
-0.235
-0.175
-0.125
-0.08
-0.05
-0.025
0.02
0.06
0.07
0.05
-0.02
-0.105
-0.195
-0.275
-0.33
-0.385
-0.44
-0.495
-0.545
-0.595
-0.65
-0.69
-0.73
-0.77
-0.79
-0.8
-0.79
-0.79
-0.775
-0.775
-0.76
-0.755
-0.74
-0.74
-0.735
-0.76
-0.755
-0.755
-0.77
-0.77
-0.78
-0.765
-0.75
-0.735
-0.725
-0.745
-0.755
-0.755
-0.75
-0.745
-0.745
-0.74
-0.735
-0.725
-0.73
-0.735
-0.725
-0.725
-0.72
-0.71
-0.705
-0.735
-0.73
-0.725
-0.725
-0.71
-0.705
-0.705
-0.705
-0.71
-0.715
-0.725
-0.735
-0.72
-0.725
-0.705
-0.705
-0.69
-0.68
-0.68
-0.675
-0.675
-0.68
-0.69
-0.69
-0.69
-0.69
-0.69
-0.685
-0.68
-0.68
-0.67
-0.66
-0.66
-0.665
-0.68
-0.67
-0.68
-0.675
-0.67
-0.665
-0.66
-0.645
-0.64
-0.625
-0.61
-0.61
-0.62
-0.645
-0.66
-0.68
-0.67
-0.665
-0.66
-0.655
-0.66
-0.66
-0.68
-0.685
-0.695
-0.705
-0.7
-0.705
-0.735
-0.73
-0.73
-0.735
-0.75
-0.745
-0.755
-0.77
-0.78
-0.785
-0.785
-0.785
-0.785
-0.8
-0.805
-0.81
-0.805
-0.815
-0.815
-0.81
-0.815
-0.825
-0.84
-0.83
-0.84
-0.835
-0.835
-0.835
-0.82
-0.83
-0.84
-0.835
-0.84
-0.83
-0.855
-0.86
-0.87
-0.87
-0.87
-0.845
-0.845
-0.85
-0.85
-0.865
-0.88
-0.89
-0.9
-0.895
-0.885
-0.89
-0.87
-0.865
-0.865
-0.87
-0.875
-0.89
-0.895
-0.895
-0.89
-0.89
-0.89
-0.89
-0.89
-0.9
-0.9
-0.89
-0.895
-0.91
-0.895
-0.89
-0.895
-0.9
-0.905
-0.91
-0.905
-0.895
-0.885
-0.89
-0.885
-0.9
-0.895
-0.905
-0.91
-0.91
-0.91
-0.905
-0.895
-0.9
-0.885
-0.895
-0.885
-0.89
-0.895
-0.905
-0.915
-0.915
-0.91
-0.9
-0.9
-0.9
-0.895
-0.89
-0.89
-0.89
-0.895
-0.9
-0.91
-0.91
-0.905
-0.91
-0.91
-0.895
-0.885
-0.895
-0.89
-0.88
-0.895
-0.895
-0.91
-0.91
-0.91
-0.91
-0.9
-0.885
-0.875
-0.865
-0.865
-0.865
-0.88
-0.885
-0.895
-0.915
-0.915
-0.92
-0.9
-0.9
-0.87
-0.865
-0.88
-0.865
-0.885
-0.89
-0.89
-0.885
-0.875
-0.89
-0.87
-0.875
-0.86
-0.86
-0.865
-0.86
-0.87
-0.875
-0.89
-0.89
-0.885
-0.885
-0.87
-0.865
-0.865
-0.85
-0.86
-0.85
-0.865
-0.865
-0.87
-0.88
-0.885
-0.875
-0.865
-0.86
-0.85
-0.855
-0.85
-0.86
-0.865
-0.85
-0.84
-0.83
-0.81
-0.805
-0.795
-0.79
-0.795
-0.8
-0.785
-0.79
-0.79
-0.795
-0.8
-0.805
-0.805
-0.81
-0.8
-0.81
-0.8
-0.8
-0.795
-0.8
-0.795
-0.8
-0.81
-0.82
-0.835
-0.82
-0.82
-0.825
-0.825
-0.82
-0.83
-0.84
-0.85
-0.86
-0.86
-0.865
-0.875
-0.865
-0.865
-0.85
-0.845
-0.85
-0.84
-0.85
-0.85
-0.86
-0.855
-0.845
-0.835
-0.815
-0.76
-0.685
-0.59
-0.495
-0.39
-0.31
-0.215
-0.155
-0.1
-0.06
-0.035
0.0
0.02
0.02
-0.025
-0.09
-0.185
-0.27
-0.345
-0.415
-0.49
-0.545
-0.59
-0.64
-0.69
-0.745
-0.78
-0.81
-0.83
-0.865
-0.87
-0.855
-0.86
-0.85
-0.855
-0.845
-0.845
-0.845
-0.84
-0.825
-0.83
-0.82
-0.82
-0.825
-0.82
-0.825
-0.825
-0.82
-0.805
-0.81
-0.81
-0.805
-0.805
-0.79
-0.8
-0.815
-0.82
-0.815
-0.805
-0.805
-0.79
-0.78
-0.78
-0.77
-0.78
-0.775
-0.78
-0.78
-0.795
-0.79
-0.805
-0.785
-0.79
-0.78
-0.765
-0.765
-0.77
-0.76
-0.775
-0.785
-0.79
-0.775
-0.785
-0.77
-0.76
-0.755
-0.75
-0.74
-0.73
-0.725
-0.73
-0.73
-0.75
-0.74
-0.75
-0.74
-0.74
-0.72
-0.71
-0.7
-0.695
-0.705
-0.705
-0.71
-0.705
-0.71
-0.71
-0.71
-0.705
-0.69
-0.675
-0.67
-0.675
-0.675
-0.7
-0.7
-0.715
-0.715
-0.715
-0.725
-0.715
-0.725
-0.73
-0.725
-0.75
-0.735
-0.755
-0.775
-0.8
-0.81
-0.815
-0.82
-0.81
-0.825
-0.815
-0.81
-0.83
-0.835
-0.84
-0.85
-0.86
-0.87
-0.875
-0.875
-0.875
-0.875
-0.85
-0.85
-0.845
-0.85
-0.87
-0.875
-0.89
-0.885
-0.895
-0.89
-0.875
-0.875
-0.865
-0.855
-0.855
-0.87
-0.87
-0.87
-0.885
-0.885
-0.89
-0.885
-0.885
-0.89
-0.88
-0.875
-0.875
-0.88
-0.885
-0.88
-0.895
-0.905
-0.91
-0.895
-0.9
-0.88
-0.875
-0.875
-0.88
-0.885
-0.895
-0.9
-0.915
-0.905
-0.92
-0.91
-0.91
-0.9
-0.89
-0.895
-0.885
-0.885
-0.9
-0.9
-0.905
-0.91
-0.91
-0.905
-0.9
-0.9
-0.88
-0.885
-0.89
-0.89
-0.895
-0.9
-0.9
-0.9
-0.905
-0.91
-0.895
-0.895
-0.89
-0.895
-0.885
-0.89
-0.89
-0.905
-0.905
-0.9
-0.895
-0.89
-0.885
-0.885
-0.89
-0.87
-0.88
-0.88
-0.885
-0.885
-0.895
-0.9
-0.895
-0.895
-0.89
-0.88
-0.875
-0.86
-0.865
-0.875
-0.885
-0.89
-0.905
-0.905
-0.91
-0.885
-0.885
-0.87
-0.87
-0.87
-0.87
-0.875
-0.87
-0.885
-0.895
-0.905
-0.895
-0.89
-0.875
-0.875
-0.865
-0.86
-0.865
-0.865
-0.87
-0.88
-0.875
-0.895
-0.89
-0.89
-0.875
-0.88
-0.87
-0.845
-0.845
-0.855
-0.865
-0.865
-0.89
-0.89
-0.885
-0.885
-0.875
-0.89
-0.865
-0.855
-0.845
-0.85
-0.855
-0.875
-0.88
-0.89
-0.88
-0.88
-0.86
-0.85
-0.845
-0.84
-0.84
-0.83
-0.83
-0.82
-0.82
-0.83
-0.825
-0.825
-0.815
-0.805
-0.805
-0.795
-0.795
-0.795
-0.8
-0.8
-0.815
-0.83
-0.825
-0.815
-0.815
-0.8
-0.795
-0.78
-0.785
-0.8
-0.815
-0.81
-0.825
-0.82
-0.845
-0.845
-0.855
-0.84
-0.85
-0.85
-0.84
-0.85
-0.865
-0.855
-0.865
-0.88
-0.86
-0.865
-0.87
-0.855
-0.855
-0.835
-0.835
-0.835
-0.84
-0.835
-0.84
-0.83
-0.81
-0.78
-0.725
-0.66
-0.59
-0.495
-0.4
-0.305
-0.225
-0.14
-0.08
-0.05
-0.015
0.005
0.025
0.025
-0.005
-0.055
-0.125
-0.21
-0.295
-0.375
-0.46
-0.545
-0.635
-0.7
-0.77
-0.81
-0.825
-0.84
-0.855
-0.85
-0.85
-0.85
-0.85
-0.845
-0.84
-0.84
-0.84
-0.83
-0.815
-0.815
-0.82
-0.82
-0.815
-0.825
-0.835
-0.835
-0.835
-0.83
-0.83
-0.82
-0.825
-0.815
-0.805
-0.8
-0.805
-0.815
-0.83
-0.845
-0.83
-0.835
-0.81
-0.81
-0.795
-0.79
-0.795
-0.79
-0.795
-0.81
-0.805
-0.81
-0.815
-0.81
-0.8
-0.8
-0.79
-0.78
-0.79
-0.785
-0.8
-0.795
-0.795
-0.795
-0.79
-0.79
-0.78
-0.77
-0.765
-0.755
-0.755
-0.75
-0.755
-0.77
-0.765
-0.765
-0.77
-0.76
-0.745
-0.735
-0.73
-0.72
-0.72
-0.725
-0.73
-0.74
-0.735
-0.74
-0.74
-0.74
-0.74
-0.74
-0.74
-0.725
-0.715
-0.725
-0.74
-0.745
-0.745
-0.76
-0.765
-0.775
-0.785
-0.79
-0.78
-0.775
-0.775
-0.785
-0.79
-0.81
-0.83
-0.835
-0.84
-0.845
-0.855
-0.865
-0.855
-0.85
-0.855
-0.86
-0.875
-0.885
-0.895
-0.895
-0.905
-0.905
-0.905
-0.895
-0.89
-0.895
-0.895
-0.895
-0.895
-0.9
-0.905
-0.905
-0.915
-0.915
-0.915
-0.905
-0.905
-0.885
-0.885
-0.89
-0.9
-0.905
-0.91
-0.91
-0.92
-0.92
-0.905
-0.91
-0.905
-0.91
-0.895
-0.9
-0.905
-0.91
-0.92
-0.925
-0.935
-0.93
-0.92
-0.91
-0.915
-0.905
-0.91
-0.92
-0.92
-0.925
-0.93
-0.94
-0.94
-0.935
-0.935
-0.91
-0.92
-0.91
-0.91
-0.91
-0.925
-0.92
-0.925
-0.935
-0.94
-0.935
-0.93
-0.925
-0.915
-0.905
-0.92
-0.92
-0.93
-0.925
-0.935
-0.935
-0.94
-0.945
-0.93
-0.93
-0.925
-0.9
-0.92
-0.92
-0.925
-0.93
-0.925
-0.93
-0.94
-0.935
-0.93
-0.92
-0.915
-0.905
-0.91
-0.91
-0.915
-0.92
-0.93
-0.945
-0.95
-0.93
-0.92
-0.925
-0.92
-0.905
-0.905
-0.91
-0.915
-0.92
-0.925
-0.935
-0.94
-0.935
-0.925
-0.92
-0.895
-0.895
-0.895
-0.895
-0.91
-0.91
-0.915
-0.915
-0.915
-0.905
-0.9
-0.895
-0.89
-0.885
-0.895
-0.895
-0.9
-0.9
-0.9
-0.905
-0.905
-0.905
-0.9
-0.895
-0.885
-0.885
-0.88
-0.885
-0.885
-0.905
-0.905
-0.905
-0.905
-0.9
-0.9
-0.885
-0.885
-0.88
-0.885
-0.88
-0.875
-0.89
-0.905
-0.9
-0.905
-0.895
-0.89
-0.88
-0.885
-0.86
-0.86
-0.85
-0.84
-0.83
-0.835
-0.85
-0.85
-0.86
-0.855
-0.85
-0.84
-0.83
-0.825
-0.82
-0.82
-0.815
-0.835
-0.84
-0.85
-0.845
-0.835
-0.83
-0.825
-0.815
-0.835
-0.83
-0.84
-0.84
-0.855
-0.875
-0.89
-0.9
-0.89
-0.895
-0.88
-0.875
-0.88
-0.875
-0.89
-0.895
-0.89
-0.9
-0.905
-0.9
-0.88
-0.875
-0.865
-0.855
-0.85
-0.84
-0.825
-0.81
-0.77
-0.715
-0.64
-0.545
-0.45
-0.345
-0.255
-0.16
-0.11
-0.065
-0.035
-0.035
-0.005
-0.005
-0.015
-0.04
-0.1
-0.16
-0.23
-0.29
-0.35
-0.44
-0.525
-0.615
-0.71
-0.77
-0.835
-0.885
-0.875
-0.87
-0.86
-0.84
-0.835
-0.825
-0.835
-0.85
-0.865
-0.86
-0.865
-0.835
-0.825
-0.82
-0.815
-0.8
-0.815
-0.815
-0.82
-0.825
-0.825
-0.815
-0.815
-0.815
-0.815
-0.795
-0.795
-0.78
-0.795
-0.79
-0.79
-0.8
-0.81
-0.835
-0.825
-0.795
-0.805
-0.78
-0.78
-0.77
-0.765
-0.77
-0.775
-0.775
-0.785
-0.78
-0.78
-0.78
-0.765
-0.76
-0.75
-0.745
-0.745
-0.75
-0.74
-0.755
-0.76
-0.76
-0.76
-0.76
-0.765
-0.755
-0.745
-0.72
-0.735
-0.715
-0.72
-0.72
-0.73
-0.73
-0.74
-0.735
-0.72
-0.715
-0.705
-0.695
-0.705
-0.695
-0.72
-0.72
-0.715
-0.72
-0.73
-0.745
-0.72
-0.725
-0.73
-0.73
-0.725
-0.73
-0.745
-0.755
-0.765
-0.78
-0.795
-0.795
-0.8
-0.8
-0.81
-0.795
-0.82
-0.83
-0.83
-0.845
-0.84
-0.85
-0.87
-0.875
-0.875
-0.865
-0.865
-0.855
-0.855
-0.86
-0.86
-0.87
-0.885
-0.875
-0.895
-0.885
-0.87
-0.875
-0.865
-0.85
-0.85
-0.865
-0.875
-0.875
-0.875
-0.88
-0.895
-0.88
-0.875
-0.87
-0.855
-0.86
-0.86
-0.875
-0.87
-0.875
-0.88
-0.9
-0.89
-0.9
-0.895
-0.885
-0.885
-0.885
-0.88
-0.89
-0.895
-0.91
-0.91
-0.915
-0.925
-0.905
-0.915
-0.9
-0.905
-0.895
-0.905
-0.91
-0.9
-0.91
-0.915
-0.915
-0.92
-0.92
-0.935
-0.91
-0.905
-0.895
-0.89
-0.895
-0.91
-0.905
-0.905
-0.905
-0.905
-0.9
-0.9
-0.89
-0.885
-0.88
-0.88
-0.875
-0.885
-0.89
-0.89
-0.91
-0.915
-0.905
-0.9
-0.89
-0.885
-0.865
-0.865
-0.86
-0.865
-0.89
-0.885
-0.905
-0.91
-0.9
-0.895
-0.89
-0.87
-0.865
-0.865
-0.87
-0.87
-0.88
-0.88
-0.88
-0.895
-0.89
-0.89
-0.865
-0.865
-0.85
-0.855
-0.845
-0.86
-0.87
-0.875
-0.875
-0.885
-0.88
-0.87
-0.86
-0.855
-0.845
-0.845
-0.84
-0.855
-0.855
-0.875
-0.87
-0.865
-0.865
-0.865
-0.855
-0.85
-0.835
-0.845
-0.84
-0.845
-0.86
-0.865
-0.86
-0.87
-0.87
-0.855
-0.855
-0.83
-0.85
-0.84
-0.84
-0.835
-0.845
-0.85
-0.845
-0.86
-0.855
-0.85
-0.835
-0.83
-0.81
-0.83
-0.815
-0.825
-0.83
-0.825
-0.825
-0.825
-0.805
-0.785
-0.78
-0.77
-0.755
-0.75
-0.765
-0.765
-0.775
-0.77
-0.77
-0.775
-0.775
-0.765
-0.77
-0.765
-0.755
-0.765
-0.765
-0.76
-0.75
-0.765
-0.76
-0.76
-0.775
-0.775
-0.775
-0.78
-0.785
-0.79
-0.8
-0.81
-0.815
-0.825
-0.825
-0.82
-0.83
-0.82
-0.815
-0.82
-0.81
-0.81
-0.805
-0.81
-0.81
-0.815
-0.815
-0.8
-0.785
-0.775
-0.73
-0.685
-0.63
-0.54
-0.45
-0.365
-0.27
-0.19
-0.11
-0.045
0.005
0.04
0.07
0.09
0.11
0.105
0.055
0.0
-0.08
-0.175
-0.23
-0.29
-0.355
-0.42
-0.495
-0.56
-0.61
-0.665
-0.72
-0.765
-0.8
-0.81
-0.82
-0.81
-0.795
-0.775
-0.775
-0.765
-0.765
-0.765
-0.76
-0.76
-0.77
-0.775
-0.775
-0.775
-0.785
-0.77
-0.745
-0.745
-0.73
-0.735
-0.735
-0.735
-0.75
-0.75
-0.75
-0.75
-0.755
-0.735
-0.725
-0.735
-0.73
-0.73
-0.715
-0.73
-0.73
-0.73
-0.755
-0.765
-0.76
-0.735
-0.73
-0.725
-0.71
-0.715
-0.705
-0.705
-0.715
-0.72
-0.73
-0.73
-0.715
-0.715
-0.705
-0.695
-0.695
-0.68
-0.68
-0.685
-0.69
-0.695
-0.7
-0.695
-0.695
-0.69
-0.67
-0.66
-0.645
-0.63
-0.63
-0.635
-0.64
-0.64
-0.655
-0.665
-0.65
-0.655
-0.645
-0.635
-0.645
-0.64
-0.64
-0.645
-0.66
-0.665
-0.67
-0.675
-0.68
-0.695
-0.68
-0.68
-0.68
-0.69
-0.695
-0.715
-0.725
-0.75
-0.755
-0.775
-0.775
-0.775
-0.77
-0.78
-0.78
-0.785
-0.795
-0.8
-0.82
-0.825
-0.82
-0.825
-0.82
-0.82
-0.81
-0.82
-0.81
-0.815
-0.835
-0.81
-0.815
-0.82
-0.84
-0.835
-0.835
-0.835
-0.825
-0.83
-0.815
-0.805
-0.815
-0.805
-0.81
-0.82
-0.84
-0.835
-0.83
-0.84
-0.83
-0.825
-0.815
-0.82
-0.825
-0.83
-0.835
-0.845
-0.845
-0.855
-0.865
-0.85
-0.855
-0.85
-0.845
-0.85
-0.85
-0.86
-0.88
-0.875
-0.87
-0.87
-0.875
-0.87
-0.855
-0.855
-0.845
-0.845
-0.85
-0.855
-0.86
-0.87
-0.87
-0.885
-0.87
-0.88
-0.86
-0.85
-0.855
-0.85
-0.865
-0.855
-0.85
-0.85
-0.875
-0.885
-0.88
-0.87
-0.865
-0.86
-0.85
-0.84
-0.84
-0.845
-0.85
-0.85
-0.87
-0.865
-0.86
-0.86
-0.855
-0.845
-0.845
-0.835
-0.845
-0.84
-0.85
-0.85
-0.85
-0.86
-0.855
-0.85
-0.845
-0.84
-0.825
-0.82
-0.83
-0.825
-0.83
-0.84
-0.845
-0.845
-0.84
-0.84
-0.84
-0.83
-0.825
-0.82
-0.83
-0.825
-0.835
-0.845
-0.845
-0.865
-0.85
-0.84
-0.835
-0.835
-0.83
-0.825
-0.835
-0.835
-0.84
-0.845
-0.85
-0.855
-0.855
-0.85
-0.835
-0.83
-0.815
-0.82
-0.815
-0.82
-0.835
-0.825
-0.845
-0.84
-0.85
-0.845
-0.835
-0.825
-0.825
-0.825
-0.825
-0.815
-0.83
-0.83
-0.835
-0.83
-0.835
-0.835
-0.825
-0.815
-0.805
-0.8
-0.805
-0.82
-0.825
-0.825
-0.815
-0.8
-0.78
-0.78
-0.77
-0.76
-0.765
-0.755
-0.77
-0.765
-0.765
-0.78
-0.785
-0.79
-0.785
-0.78
-0.775
-0.775
-0.765
-0.765
-0.76
-0.77
-0.775
-0.79
-0.795
-0.805
-0.79
-0.79
-0.79
-0.79
-0.79
-0.8
-0.8
-0.805
-0.815
-0.815
-0.83
-0.83
-0.835
-0.84
-0.83
-0.825
-0.81
-0.815
-0.815
-0.815
-0.815
-0.815
-0.81
-0.81
-0.8
-0.78
-0.76
-0.72
-0.67
-0.6
-0.525
-0.43
-0.345
-0.26
-0.195
-0.14
-0.085
-0.06
-0.03
0.005
0.04
0.055
0.035
-0.005
-0.075
-0.145
-0.21
-0.275
-0.335
-0.405
-0.465
-0.525
-0.59
-0.635
-0.7
-0.74
-0.775
-0.8
-0.81
-0.825
-0.825
-0.815
-0.805
-0.785
-0.765
-0.77
-0.76
-0.77
-0.785
-0.78
-0.775
-0.785
-0.78
-0.775
-0.765
-0.755
-0.75
-0.745
-0.735
-0.74
-0.74
-0.74
-0.75
-0.77
-0.765
-0.75
-0.745
-0.745
-0.755
-0.73
-0.715
-0.72
-0.72
-0.75
-0.75
-0.75
-0.75
-0.75
-0.725
-0.72
-0.71
-0.705
-0.7
-0.705
-0.71
-0.715
-0.72
-0.73
-0.72
-0.72
-0.71
-0.705
-0.7
-0.695
-0.685
-0.695
-0.68
-0.69
-0.69
-0.695
-0.695
-0.69
-0.695
-0.68
-0.665
-0.655
-0.645
-0.645
-0.67
-0.665
-0.67
-0.67
-0.66
-0.665
-0.66
-0.655
-0.64
-0.635
-0.64
-0.645
-0.655
-0.655
-0.675
-0.665
-0.675
-0.665
-0.67
-0.655
-0.665
-0.665
-0.685
-0.675
-0.685
-0.7
-0.705
-0.73
-0.735
-0.745
-0.745
-0.745
-0.755
-0.75
-0.765
-0.77
-0.79
-0.795
-0.805
-0.8
-0.805
-0.81
-0.805
-0.8
-0.805
-0.79
-0.795
-0.785
-0.795
-0.81
-0.815
-0.82
-0.82
-0.815
-0.815
-0.835
-0.835
-0.81
-0.815
-0.81
-0.83
-0.825
-0.835
-0.86
-0.845
-0.84
-0.84
-0.815
-0.805
-0.815
-0.83
-0.83
-0.83
-0.835
-0.84
-0.85
-0.85
-0.84
-0.84
-0.845
-0.84
-0.835
-0.84
-0.85
-0.855
-0.865
-0.875
-0.88
-0.875
-0.865
-0.865
-0.87
-0.865
-0.86
-0.855
-0.855
-0.87
-0.865
-0.855
-0.87
-0.87
-0.86
-0.865
-0.845
-0.835
-0.84
-0.845
-0.855
-0.85
-0.86
-0.85
-0.85
-0.855
-0.84
-0.84
-0.835
-0.845
-0.835
-0.83
-0.84
-0.84
-0.84
-0.84
-0.835
-0.84
-0.84
-0.835
-0.83
-0.83
-0.815
-0.825
-0.825
-0.82
-0.83
-0.825
-0.835
-0.84
-0.835
-0.83
-0.825
-0.815
-0.81
-0.81
-0.82
-0.815
-0.815
-0.815
-0.825
-0.825
-0.82
-0.815
-0.82
-0.815
-0.805
-0.8
-0.79
-0.8
-0.805
-0.81
-0.82
-0.82
-0.815
-0.83
-0.81
-0.8
-0.795
-0.785
-0.785
-0.79
-0.795
-0.805
-0.81
-0.815
-0.815
-0.795
-0.805
-0.795
-0.785
-0.785
-0.78
-0.785
-0.795
-0.81
-0.81
-0.815
-0.82
-0.805
-0.8
-0.79
-0.77
-0.785
-0.785
-0.795
-0.8
-0.81
-0.81
-0.8
-0.82
-0.79
-0.785
-0.78
-0.755
-0.755
-0.76
-0.745
-0.745
-0.745
-0.74
-0.735
-0.73
-0.73
-0.735
-0.72
-0.725
-0.705
-0.7
-0.705
-0.705
-0.71
-0.72
-0.725
-0.735
-0.725
-0.735
-0.73
-0.72
-0.705
-0.695
-0.7
-0.715
-0.72
-0.73
-0.73
-0.73
-0.73
-0.745
-0.765
-0.765
-0.755
-0.745
-0.75
-0.76
-0.775
-0.77
-0.77
-0.765
-0.75
-0.76
-0.745
-0.745
-0.74
-0.735
-0.735
-0.735
-0.715
-0.695
-0.65
-0.575
-0.485
-0.385
-0.27
-0.165
-0.06
0.01
0.06
0.095
0.115
0.145
0.15
0.145
0.13
0.08
0.0
-0.075
-0.16
-0.21
-0.275
-0.355
-0.42
-0.495
-0.545
-0.62
-0.665
-0.71
-0.72
-0.74
-0.74
-0.74
-0.73
-0.735
-0.74
-0.745
-0.73
-0.74
-0.73
-0.72
-0.72
-0.705
-0.715
-0.705
-0.725
-0.72
-0.73
-0.72
-0.72
-0.725
-0.71
-0.715
-0.7
-0.69
-0.68
-0.68
-0.69
-0.7
-0.71
-0.705
-0.7
-0.685
-0.685
-0.675
-0.665
-0.67
-0.665
-0.67
-0.67
-0.675
-0.68
-0.685
-0.7
-0.69
-0.67
-0.665
-0.655
-0.645
-0.66
-0.645
-0.665
-0.65
-0.66
-0.665
-0.665
-0.645
-0.645
-0.645
-0.63
-0.625
-0.625
-0.63
-0.64
-0.635
-0.635
-0.645
-0.64
-0.64
-0.635
-0.615
-0.61
-0.595
-0.605
-0.6
-0.6
-0.62
-0.625
-0.635
-0.625
-0.635
-0.625
-0.625
-0.625
-0.61
-0.605
-0.61
-0.615
-0.63
-0.635
-0.66
-0.665
-0.655
-0.655
-0.675
-0.67
-0.67
-0.685
-0.68
-0.71
-0.72
-0.745
-0.77
-0.78
-0.79
-0.79
-0.78
-0.77
-0.765
-0.775
-0.78
-0.8
-0.8
-0.805
-0.805
-0.815
-0.81
-0.8
-0.805
-0.785
-0.78
-0.785
-0.79
-0.775
-0.785
-0.79
-0.8
-0.805
-0.8
-0.795
-0.785
-0.79
-0.785
-0.77
-0.775
-0.79
-0.8
-0.815
-0.81
-0.81
-0.805
-0.805
-0.79
-0.795
-0.785
-0.795
-0.795
-0.795
-0.815
-0.82
-0.825
-0.825
-0.83
-0.815
-0.805
-0.8
-0.805
-0.815
-0.82
-0.825
-0.83
-0.835
-0.83
-0.85
-0.84
-0.835
-0.825
-0.825
-0.815
-0.825
-0.81
-0.815
-0.835
-0.85
-0.85
-0.845
-0.845
-0.83
-0.815
-0.82
-0.815
-0.805
-0.81
-0.825
-0.83
-0.85
-0.845
-0.845
-0.83
-0.82
-0.81
-0.805
-0.8
-0.81
-0.81
-0.81
-0.82
-0.82
-0.82
-0.83
-0.825
-0.815
