Lead II
-0.245
-0.25
-0.28
-0.295
-0.295
-0.3
-0.28
-0.305
-0.325
-0.335
-0.315
-0.32
-0.315
-0.325
-0.325
-0.34
-0.33
-0.315
-0.31
-0.33
-0.325
-0.335
-0.335
-0.32
-0.32
-0.325
-0.34
-0.355
-0.365
-0.375
-0.405
-0.425
-0.475
-0.535
-0.53
-0.445
-0.305
-0.14
0.045
0.31
0.605
0.85
0.99
0.975
0.755
0.375
-0.02
-0.3
-0.425
-0.455
-0.43
-0.405
-0.395
-0.37
-0.37
-0.35
-0.35
-0.355
-0.36
-0.345
-0.36
-0.36
-0.38
-0.375
-0.365
-0.355
-0.35
-0.355
-0.375
-0.38
-0.38
-0.375
-0.365
-0.375
-0.375
-0.395
-0.375
-0.37
-0.355
-0.35
-0.365
-0.39
-0.375
-0.365
-0.36
-0.385
-0.395
-0.385
-0.38
-0.37
-0.35
-0.365
-0.365
-0.37
-0.38
-0.375
-0.365
-0.365
-0.385
-0.385
-0.395
-0.36
-0.355
-0.365
-0.365
-0.39
-0.38
-0.37
-0.365
-0.375
-0.375
-0.375
-0.395
-0.375
-0.365
-0.375
-0.38
-0.395
-0.39
-0.38
-0.365
-0.355
-0.36
-0.39
-0.405
-0.41
-0.415
-0.425
-0.44
-0.435
-0.425
-0.415
-0.405
-0.415
-0.425
-0.44
-0.425
-0.435
-0.425
-0.425
-0.425
-0.425
-0.415
-0.4
-0.39
-0.37
-0.365
-0.36
-0.34
-0.315
-0.305
-0.29
-0.29
-0.285
-0.27
-0.255
-0.26
-0.25
-0.25
-0.25
-0.245
-0.235
-0.23
-0.235
-0.23
-0.245
-0.23
-0.215
-0.21
-0.215
-0.23
-0.245
-0.23
-0.225
-0.22
-0.225
-0.23
-0.245
-0.245
-0.235
-0.22
-0.23
-0.24
-0.24
-0.245
-0.235
-0.24
-0.24
-0.235
-0.255
-0.245
-0.25
-0.245
-0.24
-0.25
-0.25
-0.255
-0.26
-0.245
-0.25
-0.25
-0.26
-0.25
-0.255
-0.245
-0.26
-0.255
-0.27
-0.27
-0.265
-0.25
-0.255
-0.27
-0.265
-0.27
-0.27
-0.26
-0.255
-0.265
-0.28
-0.275
-0.26
-0.25
-0.245
-0.255
-0.26
-0.25
-0.255
-0.24
-0.24
-0.24
-0.255
-0.25
-0.255
-0.25
-0.24
-0.25
-0.26
-0.26
-0.25
-0.245
-0.245
-0.25
-0.26
-0.25
-0.245
-0.24
-0.23
-0.24
-0.25
-0.235
-0.215
-0.21
-0.21
-0.205
-0.21
-0.205
-0.19
-0.17
-0.17
-0.18
-0.18
-0.16
-0.145
-0.12
-0.13
-0.13
-0.13
-0.135
-0.125
-0.115
-0.135
-0.13
-0.14
-0.13
-0.12
-0.115
-0.115
-0.095
-0.105
-0.11
-0.135
-0.16
-0.165
-0.185
-0.215
-0.225
-0.235
-0.235
-0.255
-0.255
-0.265
-0.255
-0.245
-0.245
-0.24
-0.25
-0.27
-0.265
-0.265
-0.26
-0.265
-0.285
-0.28
-0.28
-0.27
-0.27
-0.275
-0.28
-0.285
-0.285
-0.27
-0.28
-0.275
-0.27
-0.29
-0.305
-0.34
-0.375
-0.395
-0.42
-0.455
-0.495
-0.45
-0.355
-0.2
-0.045
0.145
0.4
0.69
0.945
1.1
1.115
0.94
0.555
0.115
-0.23
-0.415
-0.425
-0.39
-0.33
-0.31
-0.295
-0.3
-0.305
-0.31
-0.305
-0.315
-0.3
-0.31
-0.33
-0.34
-0.335
-0.325
-0.315
-0.32
-0.325
-0.33
-0.33
-0.325
-0.32
-0.33
-0.325
-0.335
-0.34
-0.33
-0.32
-0.33
-0.325
-0.335
-0.32
-0.32
-0.325
-0.325
-0.33
-0.35
-0.335
-0.335
-0.33
-0.315
-0.33
-0.35
-0.35
-0.33
-0.32
-0.32
-0.33
-0.345
-0.33
-0.325
-0.32
-0.315
-0.335
-0.335
-0.34
-0.33
-0.32
-0.325
-0.325
-0.345
-0.345
-0.33
-0.33
-0.33
-0.32
-0.345
-0.335
-0.33
-0.32
-0.315
-0.335
-0.345
-0.345
-0.345
-0.34
-0.345
-0.35
-0.36
-0.37
-0.35
-0.365
-0.365
-0.37
-0.385
-0.375
-0.375
-0.36
-0.36
-0.355
-0.375
-0.355
-0.34
-0.33
-0.33
-0.33
-0.33
-0.295
-0.285
-0.275
-0.255
-0.255
-0.25
-0.24
-0.22
-0.205
-0.215
-0.215
-0.22
-0.215
-0.2
-0.2
-0.19
-0.2
-0.21
-0.2
-0.195
-0.185
-0.185
-0.19
-0.2
-0.2
-0.18
-0.18
-0.175
-0.195
-0.2
-0.195
-0.19
-0.18
-0.18
-0.195
-0.195
-0.205
-0.195
-0.18
-0.17
-0.2
-0.205
-0.195
-0.19
-0.185
-0.205
-0.205
-0.22
-0.205
-0.21
-0.205
-0.215
-0.21
-0.22
-0.22
-0.21
-0.21
-0.215
-0.215
-0.235
-0.225
-0.225
-0.215
-0.225
-0.225
-0.235
-0.245
-0.23
-0.225
-0.23
-0.235
-0.24
-0.235
-0.23
-0.23
-0.23
-0.22
-0.24
-0.235
-0.235
-0.22
-0.22
-0.235
-0.245
-0.23
-0.215
-0.205
-0.2
-0.19
-0.21
-0.19
-0.17
-0.155
-0.16
-0.16
-0.17
-0.155
-0.14
-0.135
-0.13
-0.14
-0.135
-0.115
-0.115
-0.115
-0.12
-0.135
-0.165
-0.155
-0.14
-0.12
-0.125
-0.125
-0.14
-0.125
-0.1
-0.075
-0.08
-0.105
-0.15
-0.17
-0.19
-0.195
-0.21
-0.23
-0.255
-0.255
-0.26
-0.26
-0.26
-0.265
-0.28
-0.275
-0.27
-0.27
-0.265
-0.29
-0.285
-0.29
-0.285
-0.285
-0.285
-0.285
-0.295
-0.29
-0.28
-0.285
-0.28
-0.295
-0.315
-0.32
-0.315
-0.345
-0.39
-0.43
-0.45
-0.455
-0.495
-0.54
-0.515
-0.455
-0.355
-0.205
-0.075
0.06
0.225
0.44
0.67
0.915
1.085
1.18
1.19
1.01
0.63
0.155
-0.215
-0.395
-0.395
-0.36
-0.32
-0.31
-0.3
-0.315
-0.31
-0.325
-0.33
-0.34
-0.335
-0.335
-0.335
-0.345
-0.36
-0.36
-0.335
-0.34
-0.34
-0.345
-0.36
-0.355
-0.345
-0.335
-0.34
-0.345
-0.355
-0.355
-0.35
-0.34
-0.35
-0.345
-0.355
-0.35
-0.35
-0.34
-0.345
-0.36
-0.36
-0.36
-0.35
-0.34
-0.345
-0.35
-0.36
-0.35
-0.345
-0.34
-0.34
-0.35
-0.36
-0.355
-0.335
-0.33
-0.33
-0.35
-0.345
-0.35
-0.335
-0.335
-0.35
-0.35
-0.37
-0.365
-0.365
-0.355
-0.36
-0.365
-0.38
-0.37
-0.365
-0.36
-0.36
-0.36
-0.365
-0.36
-0.365
-0.365
-0.37
-0.375
-0.385
-0.38
-0.385
-0.37
-0.38
-0.385
-0.4
-0.39
-0.38
-0.37
-0.375
-0.375
-0.395
-0.395
-0.375
-0.38
-0.37
-0.37
-0.375
-0.355
-0.35
-0.325
-0.325
-0.32
-0.315
-0.32
-0.3
-0.27
-0.265
-0.27
-0.27
-0.265
-0.25
-0.24
-0.245
-0.245
-0.255
-0.245
-0.245
-0.245
-0.235
-0.25
-0.26
-0.255
-0.245
-0.245
-0.24
-0.25
-0.255
-0.25
-0.25
-0.245
-0.25
-0.255
-0.27
-0.265
-0.25
-0.245
-0.25
-0.265
-0.28
-0.275
-0.265
-0.26
-0.27
-0.28
-0.29
-0.29
-0.285
-0.275
-0.29
-0.29
-0.305
-0.305
-0.28
-0.29
-0.295
-0.295
-0.295
-0.305
-0.295
-0.295
-0.29
-0.3
-0.315
-0.31
-0.31
-0.3
-0.3
-0.305
-0.32
-0.32
-0.31
-0.315
-0.32
-0.31
-0.33
-0.33
-0.315
-0.315
-0.31
-0.32
-0.335
-0.33
-0.325
-0.315
-0.315
-0.325
-0.33
-0.315
-0.32
-0.305
-0.305
-0.31
-0.325
-0.315
-0.31
-0.31
-0.31
-0.32
-0.325
-0.325
-0.32
-0.31
-0.31
-0.31
-0.31
-0.305
-0.28
-0.27
-0.265
-0.27
-0.27
-0.26
-0.245
-0.225
-0.225
-0.25
-0.255
-0.235
-0.205
-0.195
-0.195
-0.195
-0.2
-0.19
-0.18
-0.19
-0.2
-0.21
-0.215
-0.21
-0.2
-0.19
-0.185
-0.18
-0.185
-0.17
-0.175
-0.205
-0.23
-0.26
-0.28
-0.285
-0.295
-0.305
-0.32
-0.33
-0.345
-0.33
-0.325
-0.32
-0.32
-0.34
-0.355
-0.35
-0.35
-0.335
-0.35
-0.34
-0.36
-0.355
-0.345
-0.34
-0.345
-0.355
-0.37
-0.365
-0.35
-0.35
-0.35
-0.35
-0.37
-0.365
-0.38
-0.385
-0.435
-0.47
-0.515
-0.52
-0.55
-0.565
-0.525
-0.43
-0.305
-0.13
0.055
0.295
0.575
0.82
0.98
1.02
0.915
0.615
0.185
-0.215
-0.45
-0.5
-0.455
-0.405
-0.37
-0.375
-0.395
-0.395
-0.385
-0.38
-0.37
-0.38
-0.405
-0.395
-0.39
-0.38
-0.39
-0.395
-0.4
-0.4
-0.4
-0.405
-0.4
-0.41
-0.41
-0.415
-0.405
-0.395
-0.4
-0.415
-0.435
-0.425
-0.41
-0.4
-0.4
-0.395
-0.395
-0.4
-0.39
-0.385
-0.385
-0.395
-0.405
-0.415
-0.4
-0.405
-0.395
-0.41
-0.42
-0.415
-0.405
-0.39
-0.395
-0.4
-0.41
-0.415
-0.41
-0.39
-0.39
-0.395
-0.405
-0.41
-0.4
-0.395
-0.39
-0.4
-0.41
-0.405
-0.395
-0.39
-0.385
-0.395
-0.4
-0.395
-0.395
-0.39
-0.395
-0.405
-0.415
-0.4
-0.405
-0.385
-0.395
-0.39
-0.4
-0.41
-0.395
-0.385
-0.395
-0.405
-0.41
-0.405
-0.4
-0.4
-0.39
-0.405
-0.405
-0.4
-0.405
-0.39
-0.395
-0.39
-0.395
-0.39
-0.375
-0.36
-0.35
-0.365
-0.365
-0.35
-0.325
-0.3
-0.305
-0.3
-0.305
-0.3
-0.29
-0.29
-0.28
-0.28
-0.295
-0.3
-0.28
-0.275
-0.27
-0.275
-0.28
-0.285
-0.275
-0.275
-0.28
-0.29
-0.295
-0.285
-0.28
-0.265
-0.255
-0.255
-0.285
-0.275
-0.275
-0.26
-0.265
-0.27
-0.29
-0.295
-0.3
-0.29
-0.295
-0.295
-0.295
-0.3
-0.29
-0.285
-0.29
-0.3
-0.31
-0.315
-0.305
-0.3
-0.3
-0.31
-0.33
-0.325
-0.305
-0.295
-0.305
-0.31
-0.325
-0.335
-0.33
-0.32
-0.33
-0.335
-0.34
-0.34
-0.345
-0.325
-0.33
-0.34
-0.345
-0.335
-0.32
-0.33
-0.335
-0.345
-0.375
-0.37
-0.34
-0.325
-0.34
-0.335
-0.355
-0.36
-0.345
-0.335
-0.335
-0.335
-0.36
-0.345
-0.33
-0.33
-0.33
-0.34
-0.355
-0.36
-0.355
-0.34
-0.345
-0.35
-0.36
-0.355
-0.35
-0.335
-0.32
-0.325
-0.34
-0.32
-0.305
-0.29
-0.285
-0.3
-0.305
-0.29
-0.285
-0.28
-0.29
-0.285
-0.285
-0.27
-0.255
-0.255
-0.25
-0.255
-0.25
-0.245
-0.225
-0.235
-0.24
-0.255
-0.26
-0.245
-0.245
-0.235
-0.225
-0.23
-0.23
-0.235
-0.25
-0.275
-0.28
-0.305
-0.325
-0.34
-0.345
-0.35
-0.36
-0.37
-0.385
-0.38
-0.37
-0.375
-0.375
-0.37
-0.38
-0.38
-0.38
-0.375
-0.375
-0.38
-0.39
-0.38
-0.36
-0.365
-0.375
-0.37
-0.385
-0.38
-0.375
-0.375
-0.37
-0.39
-0.425
-0.445
-0.48
-0.48
-0.49
-0.53
-0.585
-0.58
-0.51
-0.39
-0.235
-0.075
0.12
0.395
0.66
0.845
0.935
0.85
0.59
0.18
-0.185
-0.395
-0.495
-0.525
-0.51
-0.465
-0.43
-0.415
-0.41
-0.42
-0.42
-0.42
-0.415
-0.425
-0.435
-0.445
-0.445
-0.45
-0.445
-0.44
-0.435
-0.425
-0.445
-0.44
-0.42
-0.42
-0.43
-0.445
-0.45
-0.445
-0.435
-0.425
-0.425
-0.445
-0.47
-0.47
-0.455
-0.445
-0.44
-0.445
-0.445
-0.455
-0.435
-0.435
-0.43
-0.43
-0.43
-0.43
-0.42
-0.425
-0.45
-0.455
-0.46
-0.455
-0.445
-0.425
-0.435
-0.46
-0.47
-0.47
-0.455
-0.44
-0.435
-0.44
-0.46
-0.445
-0.44
-0.445
-0.44
-0.45
-0.46
-0.465
-0.455
-0.45
-0.445
-0.445
-0.445
-0.45
-0.46
-0.46
-0.45
-0.46
-0.465
-0.47
-0.465
-0.46
-0.47
-0.475
-0.495
-0.505
-0.505
-0.49
-0.49
-0.505
-0.525
-0.515
-0.52
-0.515
-0.515
-0.53
-0.52
-0.51
-0.48
-0.47
-0.46
-0.45
-0.445
-0.435
-0.415
-0.395
-0.375
-0.375
-0.36
-0.35
-0.335
-0.325
-0.315
-0.32
-0.34
-0.33
-0.315
-0.315
-0.31
-0.32
-0.325
-0.325
-0.305
-0.31
-0.29
-0.3
-0.3
-0.295
-0.29
-0.29
-0.275
-0.295
-0.305
-0.305
-0.29
-0.285
-0.295
-0.3
-0.305
-0.305
-0.295
-0.28
-0.295
-0.32
-0.32
-0.32
-0.315
-0.305
-0.31
-0.315
-0.325
-0.32
-0.32
-0.32
-0.31
-0.335
-0.325
-0.33
-0.33
-0.31
-0.315
-0.325
-0.33
-0.33
-0.325
-0.325
-0.315
-0.325
-0.325
-0.32
-0.31
-0.315
-0.31
-0.32
-0.335
-0.34
-0.325
-0.33
-0.33
-0.325
-0.335
-0.325
-0.325
-0.31
-0.31
-0.32
-0.32
-0.32
-0.32
-0.31
-0.315
-0.31
-0.32
-0.325
-0.305
-0.295
-0.305
-0.315
-0.325
-0.32
-0.305
-0.295
-0.295
-0.31
-0.31
-0.305
-0.295
-0.275
-0.265
-0.25
-0.265
-0.255
-0.235
-0.22
-0.215
-0.235
-0.24
-0.235
-0.21
-0.185
-0.185
-0.185
-0.185
-0.19
-0.185
-0.18
-0.19
-0.2
-0.195
-0.19
-0.195
-0.175
-0.165
-0.165
-0.175
-0.16
-0.13
-0.13
-0.165
-0.21
-0.255
-0.26
-0.26
-0.27
-0.285
-0.3
-0.31
-0.315
-0.3
-0.31
-0.305
-0.32
-0.32
-0.33
-0.33
-0.315
-0.325
-0.34
-0.34
-0.335
-0.325
-0.32
-0.31
-0.33
-0.335
-0.335
-0.32
-0.325
-0.345
-0.39
-0.445
-0.475
-0.485
-0.495
-0.505
-0.44
-0.325
-0.145
-0.005
0.175
0.38
0.61
0.825
0.995
1.105
1.17
1.14
0.93
0.49
-0.025
-0.35
-0.45
-0.425
-0.38
-0.355
-0.34
-0.35
-0.345
-0.345
-0.345
-0.37
-0.375
-0.36
-0.345
-0.345
-0.36
-0.375
-0.365
-0.365
-0.355
-0.365
-0.36
-0.38
-0.37
-0.36
-0.35
-0.355
-0.375
-0.385
-0.375
-0.37
-0.365
-0.37
-0.37
-0.37
-0.37
-0.37
-0.355
-0.345
-0.36
-0.37
-0.38
-0.36
-0.365
-0.37
-0.375
-0.38
-0.38
-0.375
-0.36
-0.36
-0.375
-0.37
-0.38
-0.37
-0.365
-0.355
-0.37
-0.37
-0.375
-0.355
-0.355
-0.36
-0.365
-0.37
-0.365
-0.365
-0.355
-0.36
-0.365
-0.38
-0.38
-0.37
-0.37
-0.365
-0.375
-0.4
-0.385
-0.385
-0.375
-0.38
-0.4
-0.405
-0.4
-0.4
-0.395
-0.395
-0.395
-0.405
-0.405
-0.39
-0.38
-0.37
-0.375
-0.365
-0.36
-0.33
-0.31
-0.305
-0.295
-0.3
-0.28
-0.26
-0.245
-0.225
-0.245
-0.235
-0.235
-0.235
-0.22
-0.22
-0.215
-0.22
-0.225
-0.215
-0.2
-0.205
-0.205
-0.215
-0.22
-0.21
-0.2
-0.195
-0.205
-0.215
-0.215
-0.21
-0.205
-0.21
-0.215
-0.225
-0.225
-0.22
-0.195
-0.215
-0.22
-0.225
-0.23
-0.235
-0.215
-0.225
-0.235
-0.23
-0.235
-0.22
-0.21
-0.22
-0.23
-0.235
-0.245
-0.235
-0.225
-0.23
-0.24
-0.255
-0.255
-0.245
-0.23
-0.235
-0.25
-0.25
-0.255
-0.24
-0.235
-0.245
-0.245
-0.255
-0.265
-0.255
-0.24
-0.24
-0.24
-0.255
-0.245
-0.24
-0.23
-0.235
-0.245
-0.24
-0.24
-0.225
-0.205
-0.205
-0.2
-0.195
-0.185
-0.175
-0.16
-0.155
-0.155
-0.15
-0.145
-0.135
-0.115
-0.11
-0.13
-0.125
-0.135
-0.13
-0.12
-0.115
-0.12
-0.13
-0.125
-0.085
-0.07
-0.09
-0.135
-0.185
-0.195
-0.195
-0.2
-0.22
-0.24
-0.255
-0.255
-0.235
-0.235
-0.23
-0.24
-0.25
-0.25
-0.25
-0.24
-0.25
-0.265
-0.28
-0.27
-0.27
-0.255
-0.26
-0.26
-0.26
-0.28
-0.26
-0.25
-0.255
-0.27
-0.285
-0.32
-0.36
-0.38
-0.405
-0.445
-0.465
-0.41
-0.255
-0.05
0.14
0.385
0.67
0.955
1.18
1.24
1.11
0.74
0.225
-0.23
-0.385
-0.375
-0.315
-0.275
-0.275
-0.28
-0.275
-0.275
-0.275
-0.285
-0.305
-0.295
-0.29
-0.275
-0.29
-0.305
-0.31
-0.315
-0.31
-0.285
-0.29
-0.305
-0.305
-0.31
-0.3
-0.285
-0.3
-0.3
-0.305
-0.31
-0.3
-0.28
-0.285
-0.3
-0.305
-0.305
-0.295
-0.295
-0.29
-0.305
-0.31
-0.31
-0.315
-0.285
-0.29
-0.285
-0.29
-0.3
-0.285
-0.27
-0.285
-0.285
-0.295
-0.3
-0.295
-0.28
-0.28
-0.28
-0.29
-0.295
-0.29
-0.285
-0.285
-0.3
-0.305
-0.31
-0.285
-0.275
-0.285
-0.285
-0.29
-0.3
-0.3
-0.285
-0.285
-0.29
-0.295
-0.3
-0.29
-0.285
-0.285
-0.305
-0.315
-0.315
-0.305
-0.285
-0.305
-0.305
-0.305
-0.305
-0.295
-0.275
-0.285
-0.29
-0.29
-0.28
-0.275
-0.255
-0.25
-0.245
-0.225
-0.225
-0.21
-0.2
-0.195
-0.185
-0.18
-0.185
-0.16
-0.145
-0.165
-0.17
-0.165
-0.16
-0.145
-0.15
-0.14
-0.155
-0.16
-0.165
-0.15
-0.135
-0.15
-0.155
-0.16
-0.17
-0.165
-0.16
-0.16
-0.155
-0.165
-0.175
-0.17
-0.155
-0.165
-0.165
-0.18
-0.175
-0.175
-0.15
-0.165
-0.17
-0.175
-0.18
-0.18
-0.16
-0.17
-0.175
-0.195
-0.195
-0.18
-0.185
-0.18
-0.2
-0.2
-0.205
-0.195
-0.18
-0.19
-0.2
-0.2
-0.205
-0.205
-0.2
-0.205
-0.205
-0.215
-0.21
-0.2
-0.19
-0.215
-0.205
-0.215
-0.225
-0.205
-0.2
-0.2
-0.2
-0.22
-0.22
-0.21
-0.2
-0.205
-0.215
-0.22
-0.225
-0.205
-0.195
-0.185
-0.2
-0.2
-0.205
-0.195
-0.185
-0.18
-0.16
-0.17
-0.16
-0.15
-0.125
-0.14
-0.13
-0.13
-0.135
-0.115
-0.1
-0.1
-0.1
-0.105
-0.11
-0.095
-0.065
-0.075
-0.09
-0.085
-0.085
-0.09
-0.09
-0.095
-0.105
-0.095
-0.1
-0.085
-0.07
-0.055
-0.055
-0.08
-0.12
-0.135
-0.14
-0.15
-0.165
-0.195
-0.2
-0.205
-0.205
-0.205
-0.22
-0.225
-0.23
-0.23
-0.225
-0.225
-0.245
-0.255
-0.25
-0.245
-0.23
-0.235
-0.235
-0.25
-0.255
-0.25
-0.235
-0.245
-0.255
-0.27
-0.315
-0.34
-0.36
-0.395
-0.435
-0.45
-0.385
-0.22
-0.03
0.17
0.425
0.715
1.005
1.205
1.31
1.315
1.18
0.875
0.46
0.035
-0.24
-0.355
-0.375
-0.35
-0.295
-0.27
-0.25
-0.26
-0.275
-0.275
-0.285
-0.29
-0.29
-0.295
-0.295
-0.29
-0.3
-0.29
-0.285
-0.29
-0.295
-0.3
-0.305
-0.295
-0.285
-0.285
-0.29
-0.3
-0.31
-0.305
-0.295
-0.285
-0.29
-0.305
-0.305
-0.29
-0.285
-0.28
-0.3
-0.31
-0.31
-0.305
-0.29
-0.305
-0.31
-0.315
-0.31
-0.305
-0.295
-0.295
-0.3
-0.325
-0.325
-0.31
-0.305
-0.31
-0.31
-0.315
-0.315
-0.3
-0.3
-0.29
-0.305
-0.305
-0.31
-0.305
-0.285
-0.3
-0.31
-0.31
-0.31
-0.295
-0.29
-0.305
-0.32
-0.32
-0.325
-0.32
-0.31
-0.31
-0.31
-0.315
-0.325
-0.315
-0.31
-0.3
-0.31
-0.32
-0.325
-0.31
-0.295
-0.305
-0.305
-0.31
-0.3
-0.285
-0.275
-0.255
-0.255
-0.25
-0.24
-0.225
-0.21
-0.205
-0.195
-0.195
-0.195
-0.18
-0.18
-0.185
-0.195
-0.185
-0.195
-0.18
-0.16
-0.16
-0.175
-0.175
-0.185
-0.18
-0.175
-0.185
-0.175
-0.175
-0.175
-0.17
-0.16
-0.16
-0.16
-0.18
-0.175
-0.17
-0.165
-0.18
-0.185
-0.205
-0.195
-0.18
-0.19
-0.185
-0.19
-0.205
-0.225
-0.22
-0.205
-0.22
-0.225
-0.215
-0.225
-0.21
-0.19
-0.195
-0.2
-0.215
-0.215
-0.21
-0.22
-0.21
-0.22
-0.24
-0.23
-0.24
-0.23
-0.24
-0.24
-0.245
-0.245
-0.235
-0.235
-0.245
-0.245
-0.25
-0.25
-0.25
-0.235
-0.24
-0.25
-0.26
-0.25
-0.25
-0.23
-0.245
-0.24
-0.265
-0.26
-0.24
-0.225
-0.235
-0.235
-0.245
-0.265
-0.245
-0.24
-0.24
-0.245
-0.25
-0.25
-0.23
-0.225
-0.23
-0.25
-0.24
-0.25
-0.235
-0.21
-0.21
-0.205
-0.21
-0.22
-0.2
-0.185
-0.18
-0.19
-0.195
-0.185
-0.17
-0.145
-0.14
-0.14
-0.14
-0.14
-0.125
-0.11
-0.12
-0.14
-0.17
-0.16
-0.14
-0.125
-0.12
-0.13
-0.14
-0.135
-0.13
-0.135
-0.14
-0.14
-0.125
-0.13
-0.145
-0.16
-0.19
-0.215
-0.245
-0.27
-0.27
-0.285
-0.28
-0.29
-0.29
-0.29
-0.28
-0.28
-0.28
-0.29
-0.31
-0.305
-0.305
-0.28
-0.28
-0.295
-0.305
-0.305
-0.305
-0.285
-0.27
-0.29
-0.31
-0.33
-0.34
-0.38
-0.4
-0.435
-0.465
-0.51
-0.505
-0.43
-0.305
-0.17
0.005
0.23
0.515
0.78
0.97
1.035
0.905
0.565
0.14
-0.205
-0.39
-0.445
-0.43
-0.41
-0.355
-0.32
-0.335
-0.345
-0.35
-0.36
-0.335
-0.33
-0.335
-0.35
-0.37
-0.37
-0.37
-0.36
-0.35
-0.345
-0.335
-0.335
-0.345
-0.335
-0.355
-0.355
-0.355
-0.35
-0.34
-0.34
-0.355
-0.355
-0.37
-0.365
-0.36
-0.365
-0.38
-0.375
-0.375
-0.36
-0.35
-0.35
-0.35
-0.37
-0.375
-0.38
-0.375
-0.37
-0.375
-0.375
-0.37
-0.375
-0.36
-0.35
-0.35
-0.365
-0.385
-0.37
-0.365
-0.36
-0.345
-0.345
-0.35
-0.35
-0.35
-0.37
-0.365
-0.38
-0.38
-0.37
-0.365
-0.37
-0.37
-0.385
-0.39
-0.38
-0.39
-0.375
-0.38
-0.385
-0.395
-0.41
-0.405
-0.41
-0.405
-0.435
-0.425
-0.435
-0.42
-0.415
-0.41
-0.42
-0.44
-0.425
-0.42
-0.41
-0.42
-0.43
-0.425
-0.405
-0.385
-0.365
-0.345
-0.34
-0.335
-0.335
-0.32
-0.31
-0.295
-0.3
-0.3
-0.29
-0.265
-0.26
-0.265
-0.27
-0.275
-0.27
-0.26
-0.245
-0.235
-0.24
-0.255
-0.28
-0.255
-0.245
-0.25
-0.25
-0.245
-0.26
-0.23
-0.225
-0.235
-0.25
-0.265
-0.265
-0.27
-0.255
-0.26
-0.265
-0.265
-0.26
-0.26
-0.245
-0.245
-0.25
-0.265
-0.265
-0.255
-0.255
-0.26
-0.275
-0.265
-0.27
-0.275
-0.275
-0.285
-0.3
-0.3
-0.29
-0.27
-0.275
-0.275
-0.28
-0.295
-0.305
-0.295
-0.29
-0.29
-0.3
-0.305
-0.31
-0.3
-0.29
-0.285
-0.3
-0.31
-0.315
-0.295
-0.3
-0.3
-0.31
-0.31
-0.305
-0.295
-0.28
-0.285
-0.29
-0.305
-0.31
-0.295
-0.295
-0.285
-0.3
-0.305
-0.32
-0.29
-0.285
-0.29
-0.3
-0.295
-0.295
-0.3
-0.285
-0.285
-0.295
-0.3
-0.295
-0.29
-0.275
-0.27
-0.28
-0.285
-0.29
-0.27
-0.28
-0.27
-0.28
-0.28
-0.265
-0.26
-0.24
-0.235
-0.235
-0.235
-0.23
-0.22
-0.21
-0.21
-0.215
-0.205
-0.2
-0.18
-0.17
-0.165
-0.16
-0.175
-0.175
-0.165
-0.17
-0.17
-0.17
-0.175
-0.18
-0.18
-0.165
-0.145
-0.14
-0.155
-0.185
-0.2
-0.2
-0.22
-0.245
-0.27
-0.285
-0.28
-0.275
-0.29
-0.285
-0.295
-0.3
-0.295
-0.3
-0.29
-0.295
-0.3
-0.315
-0.305
-0.295
-0.305
-0.315
-0.32
-0.3
-0.305
-0.29
-0.29
-0.295
-0.315
-0.305
-0.295
-0.295
-0.305
-0.315
-0.345
-0.39
-0.425
-0.43
-0.455
-0.495
-0.51
-0.445
-0.285
-0.115
0.06
0.275
0.545
0.81
1.03
1.125
1.06
0.785
0.34
-0.1
-0.36
-0.43
-0.42
-0.375
-0.36
-0.35
-0.34
-0.325
-0.335
-0.335
-0.35
-0.355
-0.345
-0.34
-0.335
-0.335
-0.35
-0.35
-0.34
-0.335
-0.34
-0.355
-0.35
-0.355
-0.34
-0.34
-0.335
-0.34
-0.35
-0.355
-0.34
-0.34
-0.34
-0.35
-0.355
-0.36
-0.34
-0.345
-0.34
-0.355
-0.355
-0.37
-0.36
-0.345
-0.35
-0.355
-0.365
-0.365
-0.355
-0.355
-0.35
-0.355
-0.365
-0.365
-0.365
-0.35
-0.345
-0.365
-0.365
-0.36
-0.36
-0.35
-0.345
-0.35
-0.355
-0.365
-0.35
-0.35
-0.34
-0.355
-0.375
-0.375
-0.365
-0.365
-0.345
-0.36
-0.365
-0.375
-0.37
-0.365
-0.37
-0.38
-0.385
-0.395
-0.385
-0.39
-0.385
-0.395
-0.41
-0.41
-0.4
-0.385
-0.4
-0.4
-0.405
-0.405
-0.38
-0.375
-0.365
-0.355
-0.36
-0.35
-0.335
-0.325
-0.33
-0.32
-0.31
-0.32
-0.295
-0.275
-0.265
-0.25
-0.245
-0.245
-0.235
-0.21
-0.21
-0.215
-0.22
-0.225
-0.21
-0.2
-0.2
-0.205
-0.215
-0.21
-0.215
-0.2
-0.19
-0.2
-0.21
-0.215
-0.2
-0.205
-0.195
-0.205
-0.21
-0.22
-0.215
-0.205
-0.2
-0.215
-0.225
-0.23
-0.22
-0.215
-0.215
-0.215
-0.23
-0.235
-0.23
-0.225
-0.225
-0.225
-0.225
-0.235
-0.22
-0.225
-0.225
-0.23
-0.24
-0.25
-0.24
-0.23
-0.25
-0.235
-0.25
-0.255
-0.245
-0.245
-0.25
-0.25
-0.26
-0.27
-0.255
-0.255
-0.255
-0.265
-0.27
-0.275
-0.26
-0.255
-0.255
-0.26
-0.27
-0.27
-0.265
-0.26
-0.255
-0.25
-0.265
-0.26
-0.245
-0.23
-0.22
-0.225
-0.235
-0.235
-0.22
-0.2
-0.2
-0.205
-0.19
-0.195
-0.185
-0.175
-0.18
-0.175
-0.165
-0.175
-0.155
-0.135
-0.14
-0.15
-0.175
-0.195
-0.175
-0.16
-0.15
-0.165
-0.165
-0.155
-0.125
-0.1
-0.105
-0.15
-0.2
-0.225
-0.22
-0.225
-0.245
-0.26
-0.29
-0.3
-0.295
-0.27
-0.27
-0.28
-0.295
-0.295
-0.31
-0.31
-0.295
-0.31
-0.31
-0.32
-0.315
-0.305
-0.305
-0.315
-0.32
-0.325
-0.31
-0.31
-0.32
-0.32
-0.335
-0.35
-0.35
-0.36
-0.4
-0.435
-0.46
-0.47
-0.495
-0.53
-0.57
-0.59
-0.585
-0.545
-0.465
-0.375
-0.235
-0.085
0.065
0.24
0.52
0.795
1.02
1.17
1.195
1.07
0.75
0.31
-0.13
-0.38
-0.455
-0.415
-0.345
-0.32
-0.32
-0.335
-0.345
-0.355
-0.355
-0.34
-0.35
-0.365
-0.365
-0.375
-0.37
-0.365
-0.36
-0.37
-0.38
-0.385
-0.375
-0.36
-0.36
-0.365
-0.37
-0.385
-0.38
-0.36
-0.37
-0.37
-0.375
-0.375
-0.365
-0.36
-0.365
-0.38
-0.385
-0.375
-0.37
-0.36
-0.365
-0.365
-0.37
-0.375
-0.37
-0.38
-0.38
-0.38
-0.385
-0.39
-0.38
-0.37
-0.365
-0.36
-0.37
-0.36
-0.355
-0.35
-0.35
-0.365
-0.375
-0.375
-0.38
-0.375
-0.37
-0.37
-0.38
-0.385
-0.375
-0.375
-0.37
-0.385
-0.39
-0.385
-0.38
-0.365
-0.375
-0.38
-0.385
-0.39
-0.39
-0.38
-0.385
-0.385
-0.395
-0.395
-0.39
-0.375
-0.385
-0.37
-0.375
-0.375
-0.38
-0.365
-0.355
-0.37
-0.38
-0.37
-0.35
-0.34
-0.315
-0.315
-0.315
-0.31
-0.295
-0.28
-0.285
-0.28
-0.28
-0.27
-0.255
-0.25
-0.24
-0.25
-0.255
-0.255
-0.25
-0.24
-0.24
-0.235
-0.255
-0.25
-0.25
-0.24
-0.25
-0.245
-0.25
-0.255
-0.24
-0.25
-0.245
-0.235
-0.26
-0.26
-0.25
-0.245
-0.255
-0.245
-0.255
-0.265
-0.26
-0.25
-0.255
-0.26
-0.26
-0.285
-0.275
-0.275
-0.25
-0.275
-0.28
-0.295
-0.285
-0.28
-0.28
-0.285
-0.295
-0.31
-0.3
-0.295
-0.295
-0.29
-0.295
-0.305
-0.285
-0.29
-0.285
-0.285
-0.305
-0.31
-0.305
-0.3
-0.295
-0.3
-0.32
-0.315
-0.31
-0.295
-0.29
-0.3
-0.31
-0.31
-0.3
-0.295
-0.285
-0.295
-0.3
-0.305
-0.295
-0.285
-0.285
-0.295
-0.295
-0.31
-0.28
-0.28
-0.28
-0.265
-0.27
-0.27
-0.26
-0.24
-0.23
-0.23
-0.23
-0.225
-0.21
-0.215
-0.2
-0.185
-0.185
-0.18
-0.17
-0.155
-0.16
-0.16
-0.16
-0.17
-0.175
-0.185
-0.18
-0.17
-0.175
-0.175
-0.175
-0.15
-0.14
-0.125
-0.145
-0.185
-0.215
-0.23
-0.23
-0.235
-0.265
-0.285
-0.3
-0.295
-0.3
-0.3
-0.315
-0.31
-0.305
-0.295
-0.295
-0.3
-0.315
-0.325
-0.32
-0.32
-0.315
-0.315
-0.325
-0.33
-0.315
-0.31
-0.305
-0.315
-0.32
-0.325
-0.32
-0.31
-0.31
-0.305
-0.34
-0.36
-0.38
-0.415
-0.435
-0.46
-0.5
-0.53
-0.535
-0.465
-0.33
-0.17
-0.01
0.2
0.47
0.75
0.985
1.085
1.065
0.84
0.435
-0.015
-0.32
-0.455
-0.445
-0.4
-0.365
-0.35
-0.36
-0.37
-0.37
-0.365
-0.37
-0.355
-0.37
-0.37
-0.385
-0.38
-0.375
-0.375
-0.365
-0.38
-0.385
-0.4
-0.38
-0.375
-0.36
-0.365
-0.375
-0.39
-0.375
-0.375
-0.375
-0.385
-0.395
-0.39
-0.39
-0.38
-0.36
-0.375
-0.38
-0.38
-0.375
-0.38
-0.365
-0.375
-0.385
-0.385
-0.38
-0.375
-0.375
-0.39
-0.385
-0.39
-0.38
-0.375
-0.37
-0.38
-0.39
-0.395
-0.39
-0.375
-0.38
-0.38
-0.37
-0.38
-0.375
-0.35
-0.34
-0.35
-0.36
-0.37
-0.375
-0.36
-0.35
-0.37
-0.38
-0.38
-0.37
-0.365
-0.36
-0.365
-0.375
-0.405
-0.395
-0.375
-0.385
-0.38
-0.41
-0.405
-0.4
-0.385
-0.385
-0.385
-0.4
-0.4
-0.4
-0.38
-0.385
-0.39
-0.37
-0.36
-0.355
-0.33
-0.33
-0.325
-0.33
-0.33
-0.31
-0.285
-0.28
-0.28
-0.29
-0.295
-0.28
-0.27
-0.275
-0.26
-0.27
-0.285
-0.285
-0.275
-0.285
-0.285
-0.265
-0.25
-0.24
-0.235
-0.23
-0.25
-0.26
-0.27
-0.26
-0.25
-0.24
-0.26
-0.26
-0.27
-0.27
-0.27
-0.265
-0.285
-0.295
-0.31
-0.295
-0.285
-0.275
-0.28
-0.285
-0.29
-0.27
-0.26
-0.265
-0.28
-0.285
-0.305
-0.29
-0.28
-0.27
-0.285
-0.295
-0.305
-0.3
-0.29
-0.305
-0.3
-0.31
-0.3
-0.315
-0.32
-0.315
-0.325
-0.32
-0.325
-0.325
-0.315
-0.31
-0.31
-0.315
-0.32
-0.31
-0.31
-0.305
-0.315
-0.315
-0.315
-0.3
-0.3
-0.3
-0.3
-0.31
-0.32
-0.31
-0.31
-0.305
-0.32
-0.345
-0.335
-0.33
-0.32
-0.325
-0.33
-0.34
-0.345
-0.32
-0.32
-0.305
-0.315
-0.32
-0.335
-0.325
-0.315
-0.32
-0.32
-0.325
-0.32
-0.315
-0.29
-0.275
-0.265
-0.285
-0.275
-0.255
-0.235
-0.225
-0.225
-0.225
-0.235
-0.225
-0.215
-0.205
-0.195
-0.2
-0.22
-0.21
-0.2
-0.205
-0.205
-0.23
-0.255
-0.245
-0.23
-0.21
-0.205
-0.2
-0.215
-0.2
-0.17
-0.165
-0.19
-0.23
-0.26
-0.265
-0.26
-0.275
-0.315
-0.33
-0.35
-0.35
-0.345
-0.34
-0.34
-0.345
-0.355
-0.35
-0.335
-0.345
-0.345
-0.36
-0.375
-0.375
-0.36
-0.345
-0.36
-0.36
-0.36
-0.36
-0.355
-0.35
-0.355
-0.375
-0.38
-0.395
-0.405
-0.42
-0.465
-0.48
-0.53
-0.57
-0.585
-0.51
-0.44
-0.34
-0.245
-0.15
-0.025
0.135
0.355
0.585
0.795
0.965
1.04
0.975
0.72
0.335
-0.065
-0.325
-0.44
-0.485
-0.47
-0.435
-0.405
-0.395
-0.39
-0.39
-0.4
-0.405
-0.4
-0.405
-0.42
-0.41
-0.405
-0.425
-0.435
-0.42
-0.4
-0.39
-0.385
-0.4
-0.405
-0.41
-0.385
-0.38
-0.395
-0.405
-0.41
-0.405
-0.39
-0.4
-0.405
-0.42
-0.42
-0.42
-0.42
-0.415
-0.415
-0.425
-0.43
-0.42
-0.41
-0.405
-0.405
-0.425
-0.435
-0.435
-0.42
-0.4
-0.39
-0.41
-0.43
-0.42
-0.405
-0.425
-0.425
-0.435
-0.435
-0.415
-0.405
-0.405
-0.415
-0.425
-0.43
-0.41
-0.395
-0.385
-0.405
-0.405
-0.415
-0.425
-0.41
-0.405
-0.41
-0.425
-0.47
-0.46
-0.445
-0.42
-0.425
-0.44
-0.455
-0.455
-0.455
-0.46
-0.47
-0.48
-0.485
-0.465
