Lead II
-0.22
-0.205
-0.17
-0.165
-0.145
-0.125
-0.115
-0.1
-0.07
-0.055
-0.015
0.035
0.09
0.155
0.2
0.255
0.3
0.32
0.34
0.355
0.395
0.47
0.595
0.775
0.975
1.2
1.41
1.63
1.795
1.885
1.86
1.72
1.435
1.05
0.555
0.025
-0.47
-0.865
-1.07
-1.09
-0.99
-0.82
-0.63
-0.48
-0.375
-0.305
-0.28
-0.28
-0.305
-0.315
-0.325
-0.34
-0.325
-0.315
-0.33
-0.32
-0.32
-0.32
-0.315
-0.31
-0.31
-0.3
-0.29
-0.29
-0.295
-0.31
-0.31
-0.315
-0.31
-0.31
-0.31
-0.315
-0.31
-0.315
-0.315
-0.32
-0.3
-0.29
-0.285
-0.285
-0.29
-0.305
-0.315
-0.33
-0.33
-0.325
-0.32
-0.32
-0.305
-0.295
-0.285
-0.295
-0.29
-0.315
-0.31
-0.315
-0.305
-0.3
-0.285
-0.275
-0.28
-0.28
-0.27
-0.28
-0.285
-0.28
-0.28
-0.27
-0.275
-0.265
-0.26
-0.255
-0.245
-0.24
-0.225
-0.225
-0.21
-0.195
-0.19
-0.185
-0.17
-0.145
-0.13
-0.115
-0.105
-0.095
-0.12
-0.13
-0.18
-0.21
-0.225
-0.235
-0.225
-0.22
-0.235
-0.23
-0.25
-0.26
-0.28
-0.285
-0.295
-0.295
-0.3
-0.295
-0.28
-0.26
-0.27
-0.285
-0.31
-0.3
-0.31
-0.32
-0.305
-0.29
-0.28
-0.27
-0.26
-0.26
-0.235
-0.23
-0.24
-0.25
-0.26
-0.27
-0.265
-0.27
-0.255
-0.245
-0.25
-0.24
-0.24
-0.235
-0.235
-0.225
-0.23
-0.23
-0.23
-0.26
-0.245
-0.25
-0.26
-0.245
-0.22
-0.215
-0.215
-0.21
-0.225
-0.23
-0.25
-0.265
-0.275
-0.275
-0.265
-0.25
-0.245
-0.245
-0.25
-0.25
-0.265
-0.275
-0.285
-0.295
-0.28
-0.275
-0.28
-0.29
-0.275
-0.28
-0.275
-0.27
-0.27
-0.285
-0.29
-0.295
-0.29
-0.28
-0.285
-0.265
-0.245
-0.26
-0.255
-0.255
-0.245
-0.225
-0.22
-0.225
-0.225
-0.215
-0.19
-0.185
-0.165
-0.15
-0.14
-0.135
-0.155
-0.155
-0.16
-0.18
-0.18
-0.19
-0.19
-0.19
-0.19
-0.18
-0.2
-0.215
-0.23
-0.245
-0.265
-0.29
-0.29
-0.29
-0.3
-0.29
-0.285
-0.295
-0.29
-0.295
-0.29
-0.3
-0.32
-0.3
-0.3
-0.29
-0.275
-0.24
-0.215
-0.22
-0.2
-0.19
-0.19
-0.19
-0.2
-0.17
-0.145
-0.12
-0.085
-0.065
-0.04
-0.015
0.03
0.08
0.13
0.17
0.205
0.235
0.255
0.28
0.325
0.425
0.565
0.74
0.96
1.2
1.435
1.65
1.835
1.945
1.96
1.84
1.585
1.19
0.695
0.16
-0.39
-0.815
-1.095
-1.165
-1.08
-0.915
-0.72
-0.54
-0.385
-0.3
-0.265
-0.245
-0.27
-0.295
-0.325
-0.335
-0.345
-0.34
-0.345
-0.32
-0.31
-0.315
-0.295
-0.3
-0.295
-0.285
-0.29
-0.285
-0.29
-0.305
-0.3
-0.31
-0.305
-0.3
-0.275
-0.27
-0.265
-0.285
-0.275
-0.3
-0.305
-0.31
-0.315
-0.305
-0.3
-0.27
-0.27
-0.275
-0.265
-0.275
-0.285
-0.295
-0.295
-0.285
-0.295
-0.28
-0.27
-0.265
-0.255
-0.25
-0.255
-0.25
-0.25
-0.255
-0.26
-0.265
-0.25
-0.24
-0.24
-0.235
-0.225
-0.215
-0.205
-0.205
-0.21
-0.2
-0.215
-0.215
-0.205
-0.19
-0.17
-0.15
-0.13
-0.14
-0.14
-0.145
-0.14
-0.135
-0.145
-0.17
-0.175
-0.18
-0.18
-0.175
-0.18
-0.19
-0.185
-0.195
-0.205
-0.205
-0.22
-0.22
-0.23
-0.245
-0.24
-0.235
-0.22
-0.22
-0.22
-0.22
-0.225
-0.225
-0.23
-0.225
-0.225
-0.225
-0.225
-0.215
-0.205
-0.21
-0.205
-0.195
-0.205
-0.215
-0.21
-0.225
-0.225
-0.215
-0.21
-0.2
-0.18
-0.175
-0.185
-0.19
-0.205
-0.21
-0.205
-0.22
-0.22
-0.21
-0.215
-0.19
-0.19
-0.21
-0.205
-0.21
-0.215
-0.22
-0.235
-0.24
-0.26
-0.245
-0.265
-0.255
-0.25
-0.245
-0.235
-0.235
-0.255
-0.265
-0.28
-0.285
-0.275
-0.275
-0.26
-0.26
-0.25
-0.255
-0.255
-0.255
-0.265
-0.265
-0.265
-0.27
-0.27
-0.265
-0.25
-0.24
-0.225
-0.22
-0.22
-0.21
-0.205
-0.21
-0.19
-0.195
-0.185
-0.165
-0.16
-0.15
-0.14
-0.125
-0.115
-0.12
-0.11
-0.125
-0.135
-0.15
-0.15
-0.16
-0.165
-0.17
-0.18
-0.185
-0.185
-0.2
-0.215
-0.235
-0.245
-0.26
-0.265
-0.27
-0.275
-0.285
-0.285
-0.305
-0.29
-0.295
-0.285
-0.3
-0.285
-0.285
-0.275
-0.255
-0.23
-0.205
-0.205
-0.2
-0.195
-0.175
-0.175
-0.155
-0.13
-0.115
-0.09
-0.055
-0.02
-0.01
0.02
0.03
0.06
0.09
0.135
0.18
0.235
0.25
0.275
0.305
0.32
0.355
0.42
0.52
0.655
0.825
1.025
1.24
1.425
1.605
1.735
1.81
1.785
1.66
1.41
1.035
0.585
0.075
-0.425
-0.85
-1.115
-1.185
-1.11
-0.93
-0.735
-0.545
-0.385
-0.295
-0.265
-0.245
-0.275
-0.31
-0.33
-0.35
-0.345
-0.335
-0.315
-0.31
-0.29
-0.29
-0.29
-0.305
-0.3
-0.32
-0.32
-0.32
-0.305
-0.3
-0.305
-0.295
-0.295
-0.305
-0.3
-0.305
-0.32
-0.32
-0.335
-0.34
-0.335
-0.34
-0.34
-0.33
-0.325
-0.325
-0.32
-0.31
-0.31
-0.31
-0.31
-0.31
-0.305
-0.3
-0.285
-0.28
-0.265
-0.26
-0.26
-0.26
-0.26
-0.27
-0.27
-0.275
-0.27
-0.255
-0.235
-0.21
-0.195
-0.175
-0.175
-0.165
-0.185
-0.18
-0.2
-0.2
-0.195
-0.18
-0.16
-0.15
-0.135
-0.115
-0.11
-0.11
-0.1
-0.1
-0.095
-0.09
-0.075
-0.075
-0.07
-0.065
-0.065
-0.06
-0.08
-0.095
-0.105
-0.11
-0.105
-0.115
-0.125
-0.125
-0.135
-0.15
-0.155
-0.165
-0.16
-0.185
-0.185
-0.19
-0.185
-0.185
-0.185
-0.185
-0.19
-0.19
-0.175
-0.165
-0.16
-0.155
-0.17
-0.16
-0.175
-0.18
-0.185
-0.17
-0.17
-0.16
-0.15
-0.14
-0.14
-0.15
-0.16
-0.17
-0.175
-0.185
-0.175
-0.185
-0.165
-0.165
-0.145
-0.15
-0.145
-0.15
-0.145
-0.15
-0.14
-0.145
-0.16
-0.165
-0.17
-0.165
-0.16
-0.155
-0.14
-0.145
-0.16
-0.16
-0.17
-0.17
-0.17
-0.175
-0.17
-0.17
-0.165
-0.155
-0.155
-0.155
-0.16
-0.17
-0.18
-0.195
-0.195
-0.195
-0.18
-0.18
-0.16
-0.17
-0.16
-0.17
-0.19
-0.18
-0.185
-0.18
-0.16
-0.14
-0.13
-0.115
-0.1
-0.095
-0.09
-0.09
-0.09
-0.08
-0.075
-0.075
-0.055
-0.045
-0.045
-0.035
-0.02
-0.025
-0.03
-0.045
-0.06
-0.085
-0.11
-0.105
-0.115
-0.125
-0.135
-0.13
-0.145
-0.16
-0.165
-0.165
-0.185
-0.21
-0.225
-0.23
-0.225
-0.23
-0.22
-0.21
-0.195
-0.19
-0.19
-0.185
-0.185
-0.17
-0.16
-0.16
-0.155
-0.135
-0.115
-0.095
-0.065
-0.04
-0.02
-0.01
0.01
0.035
0.055
0.08
0.105
0.135
0.17
0.225
0.275
0.315
0.355
0.37
0.4
0.435
0.505
0.615
0.77
0.965
1.22
1.47
1.75
1.975
2.145
2.2
2.12
1.89
1.505
0.985
0.41
-0.165
-0.65
-0.96
-1.065
-1.025
-0.885
-0.71
-0.54
-0.4
-0.31
-0.255
-0.24
-0.26
-0.27
-0.28
-0.27
-0.28
-0.28
-0.265
-0.265
-0.265
-0.275
-0.265
-0.265
-0.265
-0.265
-0.255
-0.255
-0.25
-0.245
-0.25
-0.245
-0.26
-0.265
-0.28
-0.28
-0.28
-0.265
-0.275
-0.265
-0.255
-0.25
-0.25
-0.255
-0.265
-0.275
-0.28
-0.285
-0.275
-0.275
-0.27
-0.255
-0.26
-0.265
-0.255
-0.27
-0.285
-0.29
-0.285
-0.285
-0.28
-0.28
-0.265
-0.265
-0.265
-0.255
-0.25
-0.26
-0.265
-0.265
-0.28
-0.275
-0.295
-0.265
-0.255
-0.25
-0.245
-0.235
-0.22
-0.23
-0.22
-0.2
-0.185
-0.18
-0.165
-0.155
-0.135
-0.115
-0.11
-0.085
-0.085
-0.11
-0.1
-0.11
-0.12
-0.135
-0.155
-0.155
-0.14
-0.145
-0.155
-0.16
-0.16
-0.17
-0.18
-0.18
-0.19
-0.195
-0.195
-0.195
-0.21
-0.21
-0.205
-0.19
-0.195
-0.205
-0.21
-0.215
-0.215
-0.22
-0.215
-0.215
-0.215
-0.195
-0.2
-0.2
-0.175
-0.185
-0.19
-0.185
-0.18
-0.185
-0.18
-0.175
-0.18
-0.16
-0.16
-0.155
-0.155
-0.16
-0.155
-0.165
-0.175
-0.18
-0.18
-0.185
-0.17
-0.155
-0.155
-0.16
-0.155
-0.165
-0.18
-0.195
-0.19
-0.205
-0.2
-0.18
-0.175
-0.17
-0.175
-0.185
-0.18
-0.19
-0.205
-0.195
-0.205
-0.21
-0.22
-0.215
-0.21
-0.225
-0.215
-0.215
-0.205
-0.21
-0.205
-0.2
-0.195
-0.2
-0.195
-0.18
-0.18
-0.175
-0.16
-0.155
-0.135
-0.13
-0.135
-0.135
-0.13
-0.12
-0.105
-0.09
-0.065
-0.06
-0.055
-0.06
-0.085
-0.095
-0.12
-0.125
-0.145
-0.155
-0.16
-0.17
-0.155
-0.165
-0.175
-0.18
-0.2
-0.22
-0.235
-0.245
-0.245
-0.26
-0.275
-0.28
-0.28
-0.265
-0.27
-0.25
-0.255
-0.24
-0.245
-0.23
-0.23
-0.22
-0.205
-0.19
-0.17
-0.155
-0.13
-0.105
-0.08
-0.065
-0.05
-0.035
-0.015
0.015
0.035
0.08
0.125
0.19
0.235
0.28
0.31
0.33
0.37
0.42
0.505
0.63
0.8
0.995
1.225
1.465
1.705
1.905
2.06
2.105
2.0
1.73
1.325
0.795
0.2
-0.38
-0.805
-1.05
-1.085
-0.995
-0.815
-0.63
-0.465
-0.34
-0.28
-0.25
-0.255
-0.29
-0.3
-0.315
-0.305
-0.305
-0.305
-0.305
-0.305
-0.31
-0.295
-0.295
-0.29
-0.28
-0.28
-0.265
-0.275
-0.265
-0.275
-0.275
-0.28
-0.28
-0.29
-0.3
-0.3
-0.29
-0.29
-0.285
-0.275
-0.27
-0.275
-0.275
-0.28
-0.28
-0.29
-0.3
-0.315
-0.31
-0.305
-0.295
-0.29
-0.28
-0.275
-0.27
-0.27
-0.285
-0.285
-0.3
-0.3
-0.295
-0.275
-0.26
-0.25
-0.245
-0.25
-0.245
-0.245
-0.25
-0.25
-0.255
-0.245
-0.24
-0.225
-0.22
-0.23
-0.215
-0.215
-0.22
-0.185
-0.2
-0.175
-0.165
-0.15
-0.135
-0.125
-0.125
-0.11
-0.115
-0.115
-0.12
-0.12
-0.14
-0.155
-0.155
-0.17
-0.175
-0.175
-0.17
-0.17
-0.17
-0.175
-0.19
-0.2
-0.21
-0.22
-0.22
-0.215
-0.205
-0.215
-0.21
-0.205
-0.21
-0.22
-0.22
-0.22
-0.22
-0.22
-0.22
-0.22
-0.21
-0.21
-0.19
-0.18
-0.185
-0.18
-0.185
-0.185
-0.185
-0.185
-0.185
-0.185
-0.175
-0.165
-0.16
-0.155
-0.155
-0.145
-0.14
-0.14
-0.155
-0.155
-0.18
-0.185
-0.18
-0.175
-0.17
-0.165
-0.155
-0.15
-0.15
-0.16
-0.18
-0.195
-0.195
-0.195
-0.205
-0.195
-0.195
-0.18
-0.175
-0.185
-0.185
-0.2
-0.21
-0.21
-0.21
-0.21
-0.2
-0.19
-0.185
-0.2
-0.19
-0.2
-0.215
-0.22
-0.23
-0.225
-0.22
-0.215
-0.21
-0.205
-0.2
-0.22
-0.195
-0.19
-0.19
-0.185
-0.185
-0.17
-0.17
-0.15
-0.14
-0.135
-0.12
-0.11
-0.11
-0.1
-0.085
-0.095
-0.095
-0.09
-0.095
-0.1
-0.105
-0.11
-0.105
-0.11
-0.11
-0.12
-0.145
-0.16
-0.19
-0.19
-0.22
-0.215
-0.22
-0.215
-0.21
-0.21
-0.23
-0.255
-0.28
-0.285
-0.275
-0.28
-0.28
-0.28
-0.26
-0.245
-0.235
-0.23
-0.22
-0.21
-0.215
-0.195
-0.195
-0.185
-0.165
-0.135
-0.115
-0.09
-0.07
-0.045
-0.025
0.0
0.045
0.055
0.095
0.135
0.175
0.22
0.25
0.29
0.32
0.35
0.375
0.435
0.54
0.645
0.785
0.965
1.165
1.37
1.595
1.77
1.87
1.85
1.735
1.51
1.155
0.67
0.115
-0.41
-0.855
-1.1
-1.16
-1.055
-0.88
-0.67
-0.485
-0.355
-0.28
-0.26
-0.26
-0.29
-0.305
-0.325
-0.315
-0.31
-0.31
-0.285
-0.28
-0.275
-0.26
-0.265
-0.27
-0.29
-0.28
-0.28
-0.28
-0.28
-0.26
-0.26
-0.26
-0.265
-0.26
-0.27
-0.27
-0.275
-0.27
-0.285
-0.3
-0.29
-0.29
-0.275
-0.28
-0.27
-0.275
-0.285
-0.29
-0.285
-0.29
-0.285
-0.28
-0.275
-0.265
-0.255
-0.25
-0.255
-0.245
-0.265
-0.27
-0.265
-0.275
-0.26
-0.255
-0.245
-0.235
-0.23
-0.23
-0.235
-0.23
-0.23
-0.23
-0.225
-0.23
-0.24
-0.215
-0.22
-0.2
-0.205
-0.195
-0.185
-0.18
-0.18
-0.18
-0.18
-0.185
-0.18
-0.155
-0.15
-0.15
-0.135
-0.145
-0.145
-0.165
-0.17
-0.185
-0.21
-0.21
-0.22
-0.215
-0.215
-0.22
-0.21
-0.21
-0.215
-0.235
-0.245
-0.245
-0.25
-0.26
-0.26
-0.255
-0.245
-0.235
-0.225
-0.225
-0.24
-0.245
-0.26
-0.245
-0.25
-0.245
-0.25
-0.245
-0.255
-0.24
-0.225
-0.21
-0.205
-0.195
-0.21
-0.215
-0.21
-0.215
-0.225
-0.215
-0.22
-0.22
-0.2
-0.2
-0.2
-0.195
-0.21
-0.215
-0.225
-0.225
-0.235
-0.225
-0.225
-0.21
-0.195
-0.195
-0.205
-0.205
-0.215
-0.25
-0.245
-0.23
-0.23
-0.22
-0.205
-0.22
-0.205
-0.22
-0.235
-0.23
-0.245
-0.24
-0.24
-0.25
-0.24
-0.24
-0.23
-0.225
-0.22
-0.225
-0.215
-0.235
-0.25
-0.255
-0.26
-0.275
-0.28
-0.27
-0.26
-0.245
-0.245
-0.245
-0.23
-0.23
-0.235
-0.24
-0.255
-0.24
-0.24
-0.23
-0.21
-0.185
-0.155
-0.165
-0.15
-0.16
-0.155
-0.155
-0.15
-0.15
-0.155
-0.15
-0.125
-0.115
-0.11
-0.11
-0.12
-0.135
-0.155
-0.16
-0.175
-0.18
-0.18
-0.19
-0.205
-0.205
-0.205
-0.22
-0.225
-0.235
-0.235
-0.26
-0.275
-0.285
-0.315
-0.31
-0.315
-0.31
-0.305
-0.28
-0.27
-0.27
-0.255
-0.255
-0.245
-0.235
-0.225
-0.22
-0.215
-0.185
-0.15
-0.14
-0.105
-0.095
-0.085
-0.065
-0.055
-0.035
-0.015
0.02
0.065
0.11
0.17
0.205
0.24
0.265
0.27
0.285
0.3
0.355
0.435
0.545
0.68
0.865
1.055
1.245
1.44
1.61
1.725
1.785
1.75
1.62
1.4
1.09
0.69
0.225
-0.27
-0.67
-0.94
-1.065
-1.01
-0.895
-0.735
-0.575
-0.44
-0.35
-0.295
-0.275
-0.285
-0.3
-0.32
-0.325
-0.33
-0.335
-0.34
-0.32
-0.32
-0.32
-0.32
-0.305
-0.295
-0.29
-0.285
-0.28
-0.295
-0.3
-0.31
-0.32
-0.325
-0.305
-0.305
-0.3
-0.285
-0.285
-0.28
-0.295
-0.31
-0.31
-0.31
-0.32
-0.34
-0.325
-0.31
-0.31
-0.295
-0.295
-0.295
-0.305
-0.33
-0.315
-0.32
-0.32
-0.31
-0.3
-0.295
-0.28
-0.275
-0.285
-0.29
-0.285
-0.29
-0.31
-0.3
-0.28
-0.28
-0.275
-0.28
-0.27
-0.255
-0.255
-0.255
-0.25
-0.25
-0.255
-0.25
-0.24
-0.245
-0.24
-0.225
-0.21
-0.19
-0.165
-0.155
-0.16
-0.15
-0.15
-0.155
-0.16
-0.165
-0.165
-0.15
-0.16
-0.155
-0.145
-0.155
-0.175
-0.18
-0.2
-0.21
-0.225
-0.225
-0.23
-0.225
-0.215
-0.225
-0.23
-0.22
-0.235
-0.25
-0.26
-0.27
-0.27
-0.25
-0.26
-0.25
-0.245
-0.24
-0.23
-0.225
-0.235
-0.245
-0.235
-0.24
-0.245
-0.24
-0.23
-0.23
-0.225
-0.215
-0.22
-0.21
-0.205
-0.2
-0.21
-0.21
-0.215
-0.215
-0.205
-0.21
-0.21
-0.195
-0.195
-0.19
-0.195
-0.21
-0.205
-0.22
-0.22
-0.235
-0.235
-0.21
-0.21
-0.205
-0.2
-0.2
-0.205
-0.21
-0.215
-0.22
-0.23
-0.265
-0.25
-0.255
-0.245
-0.23
-0.235
-0.22
-0.235
-0.235
-0.245
-0.255
-0.25
-0.26
-0.265
-0.265
-0.26
-0.245
-0.245
-0.25
-0.235
-0.24
-0.25
-0.25
-0.26
-0.25
-0.25
-0.245
-0.235
-0.23
-0.23
-0.23
-0.23
-0.24
-0.225
-0.225
-0.22
-0.215
-0.2
-0.185
-0.16
-0.155
-0.135
-0.135
-0.14
-0.13
-0.135
-0.135
-0.12
-0.12
-0.12
-0.105
-0.115
-0.125
-0.13
-0.14
-0.155
-0.17
-0.17
-0.2
-0.2
-0.215
-0.225
-0.23
-0.235
-0.245
-0.25
-0.26
-0.285
-0.3
-0.31
-0.31
-0.305
-0.3
-0.295
-0.29
-0.26
-0.25
-0.225
-0.22
-0.225
-0.22
-0.21
-0.2
-0.175
-0.155
-0.13
-0.11
-0.075
-0.04
-0.015
0.0
0.03
0.06
0.085
0.14
0.185
0.225
0.255
0.27
0.3
0.36
0.435
0.565
0.725
0.93
1.155
1.395
1.63
1.85
1.995
2.05
1.965
1.745
1.385
0.895
0.33
-0.24
-0.72
-1.015
-1.13
-1.075
-0.93
-0.735
-0.56
-0.415
-0.33
-0.28
-0.285
-0.31
-0.32
-0.355
-0.35
-0.36
-0.34
-0.33
-0.33
-0.31
-0.31
-0.31
-0.305
-0.31
-0.315
-0.32
-0.33
-0.325
-0.325
-0.32
-0.315
-0.305
-0.305
-0.305
-0.31
-0.305
-0.32
-0.325
-0.325
-0.32
-0.33
-0.335
-0.335
-0.335
-0.325
-0.315
-0.32
-0.31
-0.325
-0.325
-0.33
-0.34
-0.335
-0.325
-0.32
-0.31
-0.32
-0.315
-0.315
-0.325
-0.325
-0.34
-0.335
-0.33
-0.32
-0.315
-0.305
-0.305
-0.305
-0.305
-0.305
-0.295
-0.3
-0.305
-0.29
-0.29
-0.28
-0.27
-0.255
-0.245
-0.24
-0.225
-0.21
-0.195
-0.205
-0.185
-0.175
-0.175
-0.17
-0.17
-0.18
-0.185
-0.185
-0.195
-0.19
-0.21
-0.215
-0.225
-0.24
-0.24
-0.24
-0.245
-0.245
-0.235
-0.23
-0.235
-0.235
-0.25
-0.265
-0.26
-0.26
-0.275
-0.265
-0.255
-0.24
-0.25
-0.25
-0.24
-0.245
-0.245
-0.25
-0.25
-0.25
-0.25
-0.245
-0.24
-0.235
-0.225
-0.225
-0.225
-0.215
-0.22
-0.22
-0.225
-0.22
-0.22
-0.22
-0.22
-0.205
-0.2
-0.19
-0.195
-0.215
-0.2
-0.21
-0.22
-0.23
-0.23
-0.22
-0.22
-0.215
-0.2
-0.205
-0.21
-0.205
-0.215
-0.225
-0.245
-0.265
-0.26
-0.245
-0.245
-0.245
-0.24
-0.23
-0.23
-0.225
-0.235
-0.24
-0.25
-0.25
-0.255
-0.25
-0.25
-0.255
-0.25
-0.25
-0.25
-0.25
-0.25
-0.255
-0.26
-0.26
-0.26
-0.255
-0.26
-0.26
-0.26
-0.245
-0.24
-0.235
-0.225
-0.21
-0.215
-0.215
-0.2
-0.2
-0.185
-0.17
-0.14
-0.125
-0.125
-0.11
-0.12
-0.145
-0.14
-0.145
-0.14
-0.135
-0.115
-0.11
-0.115
-0.115
-0.12
-0.13
-0.145
-0.17
-0.18
-0.185
-0.2
-0.21
-0.215
-0.21
-0.205
-0.21
-0.225
-0.235
-0.255
-0.28
-0.305
-0.305
-0.285
-0.28
-0.26
-0.255
-0.24
-0.235
-0.22
-0.21
-0.205
-0.195
-0.185
-0.17
-0.16
-0.145
-0.12
-0.09
-0.065
-0.025
0.0
0.03
0.05
0.075
0.095
0.14
0.18
0.235
0.275
0.295
0.32
0.345
0.395
0.45
0.56
0.705
0.88
1.09
1.305
1.53
1.72
1.865
1.925
1.88
1.715
1.43
1.035
0.56
0.05
-0.45
-0.84
-1.06
-1.095
-0.995
-0.815
-0.61
-0.44
-0.31
-0.265
-0.22
-0.245
-0.27
-0.305
-0.305
-0.315
-0.31
-0.29
-0.285
-0.255
-0.265
-0.26
-0.275
-0.27
-0.28
-0.28
-0.285
-0.275
-0.275
-0.27
-0.265
-0.26
-0.255
-0.265
-0.27
-0.275
-0.3
-0.29
-0.29
-0.28
-0.285
-0.27
-0.265
-0.27
-0.28
-0.275
-0.285
-0.29
-0.295
-0.295
-0.285
-0.28
-0.29
-0.285
-0.28
-0.275
-0.285
-0.275
-0.27
-0.255
-0.255
-0.255
-0.255
-0.25
-0.255
-0.255
-0.24
-0.23
-0.235
-0.25
-0.235
-0.235
-0.235
-0.235
-0.235
-0.24
-0.23
-0.22
-0.22
-0.205
-0.19
-0.18
-0.165
-0.17
-0.165
-0.175
-0.165
-0.155
-0.15
-0.145
-0.145
-0.155
-0.16
-0.18
-0.185
-0.19
-0.195
-0.21
-0.205
-0.21
-0.215
-0.215
-0.21
-0.225
-0.23
-0.225
-0.24
-0.25
-0.25
-0.27
-0.26
-0.265
-0.27
-0.25
-0.245
-0.24
-0.235
-0.235
-0.245
-0.245
-0.245
-0.25
-0.24
-0.24
-0.23
-0.215
-0.21
-0.205
-0.19
-0.205
-0.2
-0.205
-0.215
-0.22
-0.215
-0.21
-0.21
-0.21
-0.21
-0.2
-0.2
-0.205
-0.215
-0.215
-0.21
-0.215
-0.205
-0.205
-0.2
-0.205
-0.2
-0.22
-0.21
-0.215
-0.22
-0.23
-0.23
-0.24
-0.235
-0.225
-0.245
-0.245
-0.25
-0.26
-0.24
-0.24
-0.25
-0.26
-0.26
-0.27
-0.27
-0.265
-0.27
-0.255
-0.25
-0.245
-0.25
-0.25
-0.265
-0.275
-0.28
-0.28
-0.28
-0.28
-0.275
-0.25
-0.255
-0.26
-0.255
-0.26
-0.27
-0.27
-0.265
-0.265
-0.25
-0.25
-0.24
-0.24
-0.225
-0.235
-0.22
-0.21
-0.21
-0.195
-0.185
-0.18
-0.185
-0.16
-0.155
-0.14
-0.13
-0.125
-0.12
-0.13
-0.135
-0.13
-0.135
-0.14
-0.145
-0.15
-0.155
-0.175
-0.175
-0.18
-0.195
-0.21
-0.235
-0.245
-0.265
-0.28
-0.28
-0.275
-0.285
-0.285
-0.29
-0.29
-0.3
-0.295
-0.3
-0.295
-0.29
-0.285
-0.27
-0.245
-0.23
-0.22
-0.205
-0.175
-0.175
-0.145
-0.14
-0.125
-0.11
-0.095
-0.075
-0.04
-0.005
0.02
0.075
0.115
0.155
0.19
0.225
0.255
0.265
0.285
0.31
0.375
0.46
0.59
0.765
0.97
1.195
1.41
1.58
1.705
1.73
1.645
1.45
1.135
0.725
0.235
-0.255
-0.68
-0.975
-1.115
-1.095
-0.97
-0.765
-0.565
-0.4
-0.28
-0.22
-0.22
-0.25
-0.275
-0.31
-0.325
-0.33
-0.33
-0.305
-0.305
-0.29
-0.31
-0.285
-0.285
-0.295
-0.305
-0.29
-0.295
-0.295
-0.29
-0.295
-0.295
-0.275
-0.275
-0.265
-0.265
-0.265
-0.245
-0.25
-0.245
-0.255
-0.25
-0.25
-0.265
-0.265
-0.26
-0.25
-0.245
-0.23
-0.24
-0.245
-0.245
-0.235
-0.245
-0.255
-0.25
-0.24
-0.25
-0.235
-0.235
-0.225
-0.22
-0.21
-0.215
-0.22
-0.225
-0.215
-0.215
-0.215
-0.2
-0.195
-0.195
-0.2
-0.185
-0.19
-0.18
-0.18
-0.175
-0.175
-0.18
-0.165
-0.16
-0.155
-0.135
-0.125
-0.115
-0.11
-0.105
-0.095
-0.115
-0.12
-0.135
-0.155
-0.15
-0.15
-0.135
-0.14
-0.135
-0.135
-0.15
-0.175
-0.19
-0.21
-0.225
-0.235
-0.23
-0.215
-0.21
-0.215
-0.205
-0.215
-0.21
-0.235
-0.235
-0.235
-0.24
-0.24
-0.23
-0.225
-0.225
-0.21
-0.205
-0.2
-0.2
-0.215
-0.205
-0.22
-0.22
-0.22
-0.21
-0.205
-0.19
-0.2
-0.185
-0.175
-0.185
-0.175
-0.18
-0.185
-0.18
-0.195
-0.185
-0.2
-0.19
-0.18
-0.175
-0.17
-0.17
-0.185
-0.185
-0.2
-0.2
-0.195
-0.2
-0.18
-0.185
-0.165
-0.175
-0.19
-0.19
-0.2
-0.21
-0.21
-0.21
-0.21
-0.21
-0.2
-0.185
-0.19
-0.2
-0.2
-0.215
-0.215
-0.225
-0.23
-0.225
-0.225
-0.23
-0.23
-0.23
-0.235
-0.22
-0.23
-0.225
-0.22
-0.225
-0.245
-0.23
-0.255
-0.24
-0.24
-0.235
-0.23
-0.215
-0.21
-0.22
-0.22
-0.24
-0.245
-0.25
-0.25
-0.245
-0.24
-0.22
-0.225
-0.2
-0.21
-0.205
-0.225
-0.215
-0.2
-0.195
-0.19
-0.16
-0.15
-0.145
-0.13
-0.125
-0.12
-0.11
-0.115
-0.105
-0.125
-0.125
-0.13
-0.11
-0.11
-0.1
-0.105
-0.105
-0.11
-0.12
-0.145
-0.16
-0.185
-0.19
-0.22
-0.23
-0.21
-0.215
-0.225
-0.215
-0.235
-0.245
-0.25
-0.26
-0.265
-0.26
-0.265
-0.255
-0.24
-0.235
-0.22
-0.2
-0.195
-0.175
-0.175
-0.185
-0.155
-0.13
-0.115
-0.08
-0.055
-0.025
0.005
0.035
0.06
0.085
0.115
0.165
0.19
0.235
0.26
0.29
0.31
0.33
0.405
0.48
0.625
0.8
0.985
1.205
1.42
1.61
1.75
1.815
1.795
1.635
1.345
0.955
0.475
-0.03
-0.505
-0.875
-1.08
-1.095
-1.0
-0.825
-0.64
-0.465
-0.335
-0.25
-0.23
-0.235
-0.265
-0.29
-0.315
-0.325
-0.335
-0.315
-0.295
-0.29
-0.275
-0.28
-0.275
-0.275
-0.285
-0.285
-0.29
-0.295
-0.29
-0.295
-0.285
-0.285
-0.275
-0.275
-0.275
-0.27
-0.275
-0.285
-0.28
-0.285
-0.285
-0.285
-0.285
-0.285
-0.275
-0.275
-0.28
-0.275
-0.28
-0.295
-0.295
-0.31
-0.315
-0.315
-0.3
-0.295
-0.28
-0.28
-0.275
-0.28
-0.31
-0.3
-0.285
-0.305
-0.31
-0.31
-0.29
-0.285
-0.26
-0.27
-0.28
-0.27
-0.275
-0.28
-0.29
-0.285
-0.275
-0.265
-0.265
-0.24
-0.24
-0.24
-0.22
-0.21
-0.19
-0.19
-0.17
-0.18
-0.175
-0.165
-0.165
-0.17
-0.165
-0.17
-0.175
-0.185
-0.185
-0.22
-0.23
-0.22
-0.235
-0.235
-0.24
-0.24
-0.25
-0.255
-0.245
-0.25
-0.255
-0.27
-0.285
-0.285
-0.29
-0.28
-0.28
-0.265
-0.25
-0.255
-0.26
-0.265
-0.255
-0.265
-0.255
-0.25
-0.25
-0.24
-0.24
-0.23
-0.215
-0.215
-0.22
-0.22
-0.225
-0.23
-0.23
-0.225
-0.235
-0.225
-0.22
-0.225
-0.22
-0.215
-0.205
-0.21
-0.215
-0.205
-0.22
-0.22
-0.22
-0.22
-0.225
-0.215
-0.22
-0.225
-0.215
-0.215
-0.205
-0.21
-0.23
-0.24
-0.245
-0.245
-0.25
-0.24
-0.23
-0.23
-0.215
-0.225
-0.235
-0.235
-0.255
-0.275
-0.275
-0.27
-0.26
-0.26
-0.255
-0.255
-0.245
-0.245
-0.255
-0.265
-0.275
-0.27
-0.27
-0.275
-0.265
-0.255
-0.245
-0.245
-0.245
-0.25
-0.255
-0.27
-0.275
-0.255
-0.275
-0.26
-0.26
-0.245
-0.26
-0.245
-0.235
-0.235
-0.235
-0.235
-0.24
-0.245
-0.215
-0.195
-0.185
-0.18
-0.16
-0.145
-0.14
-0.135
-0.11
-0.11
-0.125
-0.135
-0.135
-0.135
-0.145
-0.145
-0.14
-0.14
-0.14
-0.145
-0.16
-0.18
-0.205
-0.225
-0.24
-0.245
-0.245
-0.25
-0.25
-0.26
-0.28
-0.29
-0.305
-0.315
-0.32
-0.32
-0.325
-0.29
-0.29
-0.27
-0.265
-0.25
-0.25
-0.23
-0.23
-0.2
-0.195
-0.18
-0.165
-0.13
-0.115
-0.095
-0.07
-0.05
-0.015
0.0
0.04
0.075
0.11
0.155
0.195
0.235
0.26
0.28
0.295
0.33
0.395
0.485
0.62
0.78
0.96
1.155
1.385
1.63
1.835
1.995
2.055
2.015
1.835
1.52
1.07
0.525
-0.045
-0.575
-0.96
-1.155
-1.165
-1.05
-0.87
-0.675
-0.52
-0.4
-0.325
-0.305
-0.305
-0.32
-0.32
-0.33
-0.335
-0.33
-0.335
-0.325
-0.315
-0.32
-0.315
-0.305
-0.315
-0.315
-0.32
-0.32
-0.315
-0.315
-0.3
-0.295
-0.29
-0.305
-0.29
-0.295
-0.305
-0.315
-0.32
-0.32
-0.315
-0.32
-0.305
-0.29
-0.3
-0.29
-0.295
-0.3
-0.31
-0.315
-0.315
-0.315
-0.315
-0.31
-0.3
-0.29
-0.29
-0.295
-0.315
-0.315
-0.32
-0.33
-0.325
-0.32
-0.31
-0.3
-0.29
-0.3
-0.285
-0.29
-0.305
-0.31
-0.32
-0.315
-0.32
-0.315
-0.305
-0.295
-0.28
-0.275
-0.265
-0.26
-0.25
-0.235
-0.225
-0.22
-0.22
-0.195
-0.185
-0.18
-0.175
-0.185
-0.18
-0.175
-0.18
-0.195
-0.2
-0.22
-0.22
-0.225
-0.225
-0.24
-0.24
-0.235
-0.225
-0.235
-0.25
-0.265
-0.265
-0.275
-0.275
-0.275
-0.27
-0.265
-0.255
-0.245
-0.25
-0.25
-0.25
-0.27
-0.25
-0.255
-0.275
-0.255
-0.255
-0.25
-0.245
-0.245
-0.23
-0.215
-0.22
-0.23
-0.23
-0.22
-0.225
-0.22
-0.22
-0.22
-0.225
-0.195
-0.195
-0.185
-0.2
-0.195
-0.215
-0.215
-0.215
-0.225
-0.2
-0.2
-0.195
-0.19
-0.185
-0.185
-0.205
-0.21
-0.22
-0.24
-0.235
-0.245
-0.235
-0.225
-0.225
-0.22
-0.215
-0.22
-0.23
-0.24
-0.25
-0.265
-0.27
-0.26
-0.255
-0.25
-0.235
-0.25
-0.25
-0.25
-0.27
-0.265
-0.275
-0.27
-0.275
-0.26
-0.265
-0.26
-0.265
-0.27
-0.265
-0.265
-0.255
-0.265
-0.27
-0.275
-0.28
-0.28
-0.285
-0.29
-0.27
-0.26
-0.265
-0.26
-0.265
-0.26
-0.25
-0.255
-0.25
-0.235
-0.22
-0.205
-0.195
-0.17
-0.165
-0.155
-0.15
-0.15
-0.155
-0.155
-0.14
-0.155
-0.14
-0.135
-0.145
-0.145
-0.14
-0.155
-0.165
-0.165
-0.175
-0.185
-0.21
-0.22
-0.235
-0.235
-0.225
-0.24
-0.265
-0.255
-0.275
-0.28
-0.3
-0.305
-0.3
-0.31
-0.31
-0.295
-0.285
-0.26
-0.25
-0.23
-0.225
-0.22
-0.225
-0.215
-0.2
-0.195
-0.17
-0.14
-0.115
-0.07
-0.05
-0.03
-0.01
-0.005
0.035
0.05
0.09
0.155
0.2
0.25
0.28
0.295
0.32
0.34
0.405
0.52
0.65
0.84
1.055
1.3
1.54
1.75
1.89
1.93
1.87
1.67
1.345
0.895
0.37
-0.175
-0.675
-1.02
-1.175
-1.145
-0.98
-0.785
-0.575
-0.405
-0.3
-0.25
-0.245
-0.275
-0.305
-0.34
-0.35
-0.34
-0.33
-0.31
-0.305
-0.285
-0.295
-0.31
-0.32
-0.325
-0.33
-0.315
-0.305
-0.3
-0.28
-0.275
-0.275
-0.285
-0.295
-0.3
-0.315
-0.315
-0.305
-0.305
-0.295
-0.285
-0.275
-0.28
-0.27
-0.28
-0.295
-0.295
-0.315
-0.315
-0.315
-0.295
-0.285
-0.28
-0.28
-0.275
-0.27
-0.27
-0.27
-0.275
-0.275
-0.285
-0.27
-0.27
-0.27
-0.265
-0.255
-0.245
-0.245
-0.24
-0.23
-0.235
-0.24
-0.255
-0.25
-0.25
-0.245
-0.225
-0.225
-0.2
-0.185
-0.18
-0.195
-0.19
-0.19
-0.19
-0.19
-0.185
-0.165
-0.155
-0.145
-0.14
-0.135
-0.15
-0.165
-0.165
-0.175
-0.185
-0.18
-0.18
-0.18
-0.18
-0.19
-0.195
-0.205
-0.215
-0.22
-0.24
-0.24
-0.245
-0.255
-0.245
-0.24
-0.235
-0.215
-0.22
-0.22
-0.23
-0.23
-0.245
-0.245
-0.25
-0.25
-0.245
-0.235
-0.22
-0.215
-0.2
-0.2
-0.2
-0.195
-0.215
-0.205
-0.2
-0.23
-0.195
-0.195
-0.185
-0.17
-0.17
-0.17
-0.17
-0.165
-0.185
-0.2
-0.205
-0.2
-0.195
-0.19
-0.18
-0.175
-0.18
-0.18
-0.175
-0.185
-0.19
-0.185
-0.19
-0.19
-0.19
-0.215
-0.205
-0.19
-0.19
-0.19
-0.19
-0.19
-0.205
-0.22
-0.24
-0.25
-0.24
-0.245
-0.24
-0.23
-0.24
-0.235
-0.245
-0.25
-0.255
-0.285
-0.275
-0.275
-0.27
-0.255
-0.245
-0.245
-0.235
-0.24
-0.245
-0.27
-0.27
-0.275
-0.285
-0.29
-0.285
-0.285
-0.27
-0.27
-0.26
-0.27
-0.27
-0.28
-0.285
-0.29
-0.285
-0.3
-0.295
-0.28
-0.285
-0.275
-0.26
-0.26
-0.25
-0.23
-0.23
-0.225
-0.225
-0.205
-0.195
-0.185
-0.17
-0.155
-0.14
-0.135
-0.12
-0.125
-0.13
-0.14
-0.14
