Lead II
-1.115
-1.125
-1.115
-1.1
-1.095
-1.085
-1.095
-1.09
-1.085
-1.08
-1.1
-1.095
-1.11
-1.1
-1.1
-1.095
-1.09
-1.11
-1.09
-1.085
-1.08
-1.085
-1.08
-1.085
-1.11
-1.125
-1.125
-1.13
-1.135
-1.105
-1.09
-1.07
-1.075
-1.075
-1.075
-1.09
-1.095
-1.105
-1.085
-1.1
-1.085
-1.07
-1.065
-1.05
-1.04
-1.03
-1.05
-1.03
-1.045
-1.055
-1.05
-1.03
-1.01
-1.005
-0.98
-0.975
-0.945
-0.935
-0.925
-0.92
-0.935
-0.94
-0.95
-0.96
-0.96
-0.97
-0.98
-0.96
-0.96
-0.995
-1.025
-1.05
-1.065
-1.085
-1.105
-1.1
-1.105
-1.1
-1.095
-1.075
-1.08
-1.085
-1.095
-1.12
-1.135
-1.155
-1.16
-1.14
-1.14
-1.12
-1.11
-1.125
-1.115
-1.115
-1.115
-1.135
-1.145
-1.14
-1.14
-1.145
-1.13
-1.105
-1.11
-1.115
-1.105
-1.1
-1.1
-1.1
-1.055
-1.005
-0.94
-0.845
-0.735
-0.625
-0.52
-0.43
-0.41
-0.435
-0.52
-0.665
-0.845
-1.045
-1.255
-1.465
-1.615
-1.7
-1.705
-1.63
-1.53
-1.45
-1.38
-1.33
-1.28
-1.26
-1.22
-1.175
-1.13
-1.095
-1.085
-1.095
-1.095
-1.105
-1.125
-1.125
-1.13
-1.125
-1.115
-1.115
-1.09
-1.07
-1.075
-1.06
-1.075
-1.08
-1.085
-1.08
-1.075
-1.085
-1.105
-1.08
-1.09
-1.08
-1.055
-1.055
-1.055
-1.045
-1.04
-1.06
-1.045
-1.06
-1.065
-1.055
-1.035
-1.03
-1.04
-1.015
-1.02
-1.02
-1.045
-1.04
-1.05
-1.035
-1.03
-1.025
-1.02
-1.01
-0.995
-0.98
-0.975
-0.965
-0.965
-0.975
-0.965
-0.975
-0.975
-0.955
-0.935
-0.915
-0.905
-0.885
-0.88
-0.87
-0.865
-0.88
-0.87
-0.87
-0.84
-0.835
-0.815
-0.78
-0.765
-0.75
-0.73
-0.72
-0.72
-0.725
-0.725
-0.705
-0.705
-0.68
-0.675
-0.66
-0.635
-0.63
-0.65
-0.635
-0.64
-0.645
-0.655
-0.655
-0.67
-0.685
-0.68
-0.68
-0.685
-0.7
-0.72
-0.74
-0.77
-0.805
-0.85
-0.86
-0.865
-0.9
-0.92
-0.94
-0.94
-0.935
-0.97
-0.99
-1.015
-1.04
-1.065
-1.085
-1.105
-1.095
-1.105
-1.11
-1.115
-1.11
-1.115
-1.13
-1.13
-1.145
-1.15
-1.16
-1.155
-1.16
-1.155
-1.14
-1.145
-1.14
-1.14
-1.135
-1.15
-1.145
-1.16
-1.165
-1.165
-1.16
-1.16
-1.145
-1.135
-1.115
-1.12
-1.13
-1.135
-1.15
-1.15
-1.155
-1.16
-1.14
-1.15
-1.135
-1.135
-1.115
-1.11
-1.13
-1.135
-1.145
-1.155
-1.15
-1.135
-1.135
-1.13
-1.135
-1.13
-1.11
-1.11
-1.115
-1.135
-1.13
-1.145
-1.15
-1.14
-1.16
-1.145
-1.15
-1.145
-1.14
-1.14
-1.155
-1.155
-1.145
-1.17
-1.175
-1.185
-1.175
-1.18
-1.165
-1.15
-1.155
-1.15
-1.17
-1.18
-1.175
-1.18
-1.2
-1.19
-1.195
-1.185
-1.18
-1.17
-1.155
-1.155
-1.155
-1.175
-1.175
-1.18
-1.195
-1.18
-1.185
-1.17
-1.175
-1.165
-1.16
-1.15
-1.145
-1.17
-1.175
-1.18
-1.19
-1.205
-1.195
-1.185
-1.18
-1.165
-1.155
-1.155
-1.15
-1.165
-1.17
-1.17
-1.195
-1.18
-1.18
-1.17
-1.15
-1.155
-1.15
-1.145
-1.145
-1.15
-1.145
-1.155
-1.165
-1.17
-1.17
-1.145
-1.145
-1.14
-1.12
-1.145
-1.135
-1.135
-1.14
-1.155
-1.16
-1.145
-1.15
-1.145
-1.145
-1.13
-1.13
-1.12
-1.13
-1.12
-1.13
-1.145
-1.16
-1.16
-1.17
-1.155
-1.135
-1.125
-1.13
-1.13
-1.135
-1.115
-1.13
-1.125
-1.135
-1.135
-1.13
-1.125
-1.115
-1.115
-1.125
-1.13
-1.105
-1.12
-1.125
-1.13
-1.14
-1.13
-1.12
-1.12
-1.115
-1.09
-1.095
-1.085
-1.09
-1.105
-1.11
-1.115
-1.115
-1.11
-1.11
-1.08
-1.085
-1.075
-1.085
-1.085
-1.06
-1.09
-1.085
-1.085
-1.075
-1.095
-1.08
-1.085
-1.075
-1.065
-1.035
-1.02
-1.015
-1.0
-1.005
-1.02
-1.01
-1.02
-0.995
-0.98
-0.96
-0.94
-0.915
-0.905
-0.915
-0.935
-0.925
-0.925
-0.935
-0.955
-0.955
-0.97
-0.96
-0.945
-0.945
-0.955
-0.97
-0.995
-1.01
-1.015
-1.025
-1.035
-1.055
-1.045
-1.035
-1.04
-1.015
-1.03
-1.045
-1.06
-1.04
-1.065
-1.075
-1.08
-1.07
-1.065
-1.05
-1.055
-1.045
-1.04
-1.04
-1.04
-1.045
-1.05
-1.055
-1.045
-1.05
-1.05
-1.04
-1.0
-0.985
-0.985
-0.915
-0.85
-0.775
-0.685
-0.56
-0.43
-0.3
-0.175
-0.095
-0.055
-0.105
-0.205
-0.38
-0.6
-0.84
-1.105
-1.325
-1.48
-1.52
-1.465
-1.39
-1.275
-1.18
-1.125
-1.07
-1.05
-1.05
-1.04
-1.015
-0.99
-0.99
-0.98
-0.985
-0.97
-0.965
-0.96
-0.96
-0.965
-0.955
-0.955
-0.97
-0.965
-0.96
-0.945
-0.95
-0.93
-0.925
-0.905
-0.905
-0.91
-0.91
-0.92
-0.915
-0.915
-0.905
-0.91
-0.89
-0.89
-0.885
-0.86
-0.865
-0.87
-0.87
-0.875
-0.87
-0.89
-0.86
-0.845
-0.84
-0.825
-0.81
-0.8
-0.795
-0.815
-0.82
-0.82
-0.81
-0.825
-0.82
-0.785
-0.765
-0.76
-0.725
-0.735
-0.73
-0.725
-0.725
-0.72
-0.715
-0.715
-0.7
-0.685
-0.655
-0.655
-0.635
-0.615
-0.6
-0.61
-0.6
-0.61
-0.59
-0.56
-0.555
-0.53
-0.505
-0.48
-0.455
-0.435
-0.435
-0.435
-0.43
-0.42
-0.415
-0.4
-0.405
-0.405
-0.38
-0.38
-0.365
-0.365
-0.345
-0.34
-0.345
-0.365
-0.37
-0.37
-0.385
-0.395
-0.41
-0.415
-0.405
-0.44
-0.47
-0.49
-0.53
-0.56
-0.59
-0.615
-0.635
-0.655
-0.67
-0.675
-0.685
-0.705
-0.745
-0.74
-0.77
-0.79
-0.81
-0.82
-0.82
-0.825
-0.82
-0.81
-0.805
-0.81
-0.825
-0.83
-0.85
-0.855
-0.85
-0.86
-0.855
-0.845
-0.85
-0.83
-0.835
-0.84
-0.845
-0.83
-0.83
-0.86
-0.865
-0.865
-0.84
-0.82
-0.8
-0.81
-0.79
-0.795
-0.8
-0.8
-0.805
-0.805
-0.8
-0.825
-0.82
-0.81
-0.8
-0.78
-0.77
-0.77
-0.77
-0.78
-0.78
-0.79
-0.79
-0.785
-0.775
-0.765
-0.78
-0.76
-0.74
-0.75
-0.75
-0.76
-0.785
-0.795
-0.8
-0.785
-0.785
-0.78
-0.775
-0.76
-0.775
-0.77
-0.775
-0.76
-0.78
-0.79
-0.8
-0.805
-0.8
-0.79
-0.79
-0.765
-0.76
-0.755
-0.77
-0.785
-0.795
-0.795
-0.8
-0.8
-0.795
-0.79
-0.78
-0.775
-0.77
-0.76
-0.765
-0.775
-0.785
-0.785
-0.795
-0.79
-0.785
-0.78
-0.775
-0.785
-0.75
-0.78
-0.77
-0.77
-0.785
-0.785
-0.78
-0.795
-0.795
-0.79
-0.78
-0.77
-0.765
-0.765
-0.775
-0.77
-0.775
-0.785
-0.785
-0.79
-0.785
-0.785
-0.78
-0.775
-0.78
-0.765
-0.755
-0.755
-0.755
-0.775
-0.77
-0.775
-0.77
-0.77
-0.76
-0.765
-0.73
-0.725
-0.745
-0.745
-0.75
-0.755
-0.755
-0.76
-0.765
-0.765
-0.76
-0.745
-0.725
-0.72
-0.725
-0.71
-0.725
-0.74
-0.74
-0.745
-0.745
-0.735
-0.75
-0.745
-0.71
-0.71
-0.71
-0.705
-0.715
-0.72
-0.74
-0.745
-0.755
-0.73
-0.705
-0.73
-0.685
-0.7
-0.7
-0.705
-0.715
-0.715
-0.71
-0.72
-0.73
-0.725
-0.705
-0.695
-0.695
-0.69
-0.695
-0.695
-0.705
-0.71
-0.72
-0.73
-0.71
-0.695
-0.68
-0.675
-0.665
-0.675
-0.665
-0.67
-0.66
-0.66
-0.655
-0.65
-0.65
-0.61
-0.62
-0.63
-0.625
-0.61
-0.565
-0.57
-0.55
-0.54
-0.52
-0.54
-0.54
-0.535
-0.55
-0.525
-0.53
-0.535
-0.54
-0.555
-0.575
-0.59
-0.615
-0.625
-0.65
-0.64
-0.64
-0.65
-0.655
-0.66
-0.66
-0.67
-0.67
-0.685
-0.685
-0.7
-0.72
-0.71
-0.705
-0.675
-0.665
-0.655
-0.65
-0.66
-0.66
-0.69
-0.695
-0.685
-0.68
-0.68
-0.66
-0.655
-0.645
-0.63
-0.635
-0.655
-0.66
-0.635
-0.59
-0.55
-0.455
-0.33
-0.215
-0.085
0.04
0.1
0.125
0.055
-0.07
-0.285
-0.5
-0.76
-0.985
-1.15
-1.24
-1.215
-1.115
-1.0
-0.925
-0.835
-0.785
-0.765
-0.715
-0.69
-0.67
-0.625
-0.605
-0.6
-0.585
-0.59
-0.605
-0.605
-0.615
-0.61
-0.61
-0.605
-0.595
-0.575
-0.57
-0.555
-0.545
-0.54
-0.555
-0.545
-0.57
-0.57
-0.57
-0.565
-0.56
-0.565
-0.55
-0.545
-0.51
-0.52
-0.52
-0.51
-0.52
-0.525
-0.53
-0.53
-0.52
-0.515
-0.49
-0.495
-0.49
-0.475
-0.455
-0.475
-0.475
-0.485
-0.485
-0.48
-0.475
-0.46
-0.455
-0.44
-0.435
-0.415
-0.405
-0.405
-0.405
-0.41
-0.4
-0.39
-0.39
-0.37
-0.35
-0.335
-0.315
-0.315
-0.315
-0.28
-0.265
-0.26
-0.245
-0.21
-0.2
-0.18
-0.16
-0.13
-0.105
-0.095
-0.11
-0.08
-0.07
-0.065
-0.055
-0.045
-0.035
-0.025
-0.01
-0.03
0.01
0.015
0.02
0.015
-0.005
-0.015
-0.02
-0.02
-0.03
-0.045
-0.065
-0.075
-0.085
-0.105
-0.125
-0.16
-0.21
-0.23
-0.28
-0.285
-0.335
-0.345
-0.365
-0.4
-0.4
-0.425
-0.43
-0.465
-0.495
-0.495
-0.505
-0.53
-0.55
-0.545
-0.54
-0.55
-0.545
-0.555
-0.545
-0.535
-0.545
-0.56
-0.57
-0.57
-0.585
-0.565
-0.57
-0.56
-0.555
-0.535
-0.545
-0.555
-0.57
-0.585
-0.575
-0.575
-0.585
-0.555
-0.54
-0.535
-0.535
-0.525
-0.53
-0.545
-0.545
-0.535
-0.54
-0.55
-0.545
-0.56
-0.54
-0.525
-0.525
-0.515
-0.53
-0.535
-0.54
-0.555
-0.545
-0.555
-0.55
-0.55
-0.545
-0.545
-0.515
-0.515
-0.525
-0.525
-0.545
-0.56
-0.555
-0.575
-0.56
-0.555
-0.55
-0.545
-0.535
-0.545
-0.535
-0.545
-0.56
-0.58
-0.56
-0.565
-0.57
-0.57
-0.555
-0.55
-0.54
-0.555
-0.555
-0.55
-0.555
-0.55
-0.555
-0.555
-0.57
-0.57
-0.575
-0.555
-0.55
-0.555
-0.54
-0.545
-0.56
-0.565
-0.565
-0.57
-0.58
-0.575
-0.565
-0.56
-0.54
-0.545
-0.545
-0.54
-0.555
-0.55
-0.58
-0.58
-0.57
-0.57
-0.56
-0.56
-0.55
-0.54
-0.535
-0.56
-0.575
-0.58
-0.59
-0.585
-0.57
-0.58
-0.565
-0.565
-0.555
-0.54
-0.54
-0.545
-0.56
-0.56
-0.58
-0.575
-0.575
-0.57
-0.56
-0.58
-0.555
-0.535
-0.555
-0.56
-0.575
-0.57
-0.575
-0.58
-0.575
-0.585
-0.575
-0.585
-0.57
-0.545
-0.555
-0.555
-0.565
-0.565
-0.58
-0.585
-0.585
-0.58
-0.575
-0.575
-0.56
-0.56
-0.555
-0.56
-0.565
-0.57
-0.58
-0.585
-0.58
-0.57
-0.585
-0.58
-0.565
-0.575
-0.56
-0.565
-0.575
-0.57
-0.575
-0.585
-0.585
-0.575
-0.565
-0.555
-0.56
-0.55
-0.545
-0.54
-0.535
-0.525
-0.52
-0.525
-0.52
-0.53
-0.51
-0.515
-0.485
-0.465
-0.46
-0.435
-0.44
-0.445
-0.425
-0.435
-0.435
-0.445
-0.45
-0.475
-0.49
-0.485
-0.495
-0.485
-0.505
-0.535
-0.56
-0.575
-0.585
-0.585
-0.57
-0.57
-0.56
-0.57
-0.59
-0.575
-0.595
-0.6
-0.62
-0.625
-0.63
-0.615
-0.63
-0.6
-0.59
-0.61
-0.605
-0.6
-0.625
-0.635
-0.635
-0.63
-0.63
-0.625
-0.615
-0.605
-0.58
-0.59
-0.58
-0.565
-0.545
-0.475
-0.39
-0.275
-0.14
0.02
0.165
0.295
0.345
0.335
0.225
0.04
-0.175
-0.45
-0.73
-1.005
-1.195
-1.245
-1.195
-1.08
-0.93
-0.835
-0.76
-0.71
-0.695
-0.68
-0.66
-0.64
-0.635
-0.61
-0.615
-0.57
-0.57
-0.58
-0.575
-0.58
-0.585
-0.58
-0.585
-0.59
-0.585
-0.58
-0.565
-0.545
-0.535
-0.54
-0.535
-0.535
-0.54
-0.545
-0.565
-0.55
-0.55
-0.545
-0.54
-0.53
-0.515
-0.52
-0.51
-0.5
-0.5
-0.515
-0.51
-0.535
-0.515
-0.52
-0.49
-0.485
-0.48
-0.46
-0.465
-0.47
-0.465
-0.46
-0.48
-0.48
-0.47
-0.465
-0.465
-0.43
-0.42
-0.41
-0.42
-0.405
-0.405
-0.405
-0.4
-0.4
-0.39
-0.385
-0.355
-0.345
-0.305
-0.31
-0.295
-0.29
-0.295
-0.275
-0.265
-0.265
-0.24
-0.215
-0.205
-0.18
-0.15
-0.145
-0.14
-0.125
-0.11
-0.105
-0.1
-0.095
-0.095
-0.085
-0.07
-0.03
-0.015
-0.015
-0.015
-0.01
-0.03
-0.045
-0.055
-0.07
-0.085
-0.1
-0.11
-0.115
-0.115
-0.13
-0.16
-0.19
-0.235
-0.265
-0.3
-0.36
-0.385
-0.405
-0.42
-0.44
-0.455
-0.46
-0.485
-0.495
-0.525
-0.555
-0.58
-0.59
-0.595
-0.59
-0.6
-0.595
-0.585
-0.6
-0.6
-0.6
-0.615
-0.62
-0.625
-0.63
-0.64
-0.63
-0.645
-0.625
-0.625
-0.63
-0.625
-0.61
-0.625
-0.62
-0.635
-0.635
-0.635
-0.63
-0.615
-0.62
-0.595
-0.585
-0.58
-0.59
-0.595
-0.61
-0.61
-0.61
-0.605
-0.6
-0.585
-0.57
-0.555
-0.54
-0.55
-0.55
-0.56
-0.575
-0.57
-0.585
-0.575
-0.57
-0.57
-0.56
-0.58
-0.565
-0.55
-0.56
-0.575
-0.58
-0.58
-0.59
-0.595
-0.585
-0.58
-0.57
-0.585
-0.585
-0.575
-0.58
-0.615
-0.595
-0.615
-0.615
-0.62
-0.625
-0.6
-0.61
-0.61
-0.6
-0.605
-0.615
-0.62
-0.63
-0.635
-0.64
-0.635
-0.64
-0.63
-0.625
-0.63
-0.605
-0.615
-0.615
-0.62
-0.635
-0.655
-0.645
-0.645
-0.64
-0.62
-0.63
-0.63
-0.61
-0.625
-0.64
-0.64
-0.645
-0.66
-0.66
-0.645
-0.635
-0.635
-0.62
-0.61
-0.61
-0.625
-0.615
-0.62
-0.63
-0.64
-0.645
-0.64
-0.63
-0.62
-0.63
-0.625
-0.605
-0.615
-0.62
-0.62
-0.64
-0.64
-0.655
-0.65
-0.64
-0.63
-0.62
-0.62
-0.605
-0.62
-0.62
-0.65
-0.645
-0.655
-0.64
-0.655
-0.65
-0.645
-0.635
-0.625
-0.61
-0.605
-0.61
-0.615
-0.62
-0.625
-0.63
-0.635
-0.63
-0.63
-0.63
-0.595
-0.615
-0.615
-0.615
-0.625
-0.615
-0.64
-0.63
-0.64
-0.635
-0.62
-0.615
-0.595
-0.6
-0.59
-0.595
-0.615
-0.62
-0.63
-0.63
-0.645
-0.63
-0.62
-0.605
-0.585
-0.585
-0.59
-0.6
-0.595
-0.605
-0.63
-0.635
-0.625
-0.61
-0.59
-0.57
-0.545
-0.54
-0.525
-0.54
-0.535
-0.525
-0.54
-0.53
-0.535
-0.51
-0.495
-0.47
-0.44
-0.44
-0.425
-0.435
-0.46
-0.465
-0.5
-0.505
-0.51
-0.51
-0.495
-0.5
-0.505
-0.53
-0.55
-0.55
-0.56
-0.57
-0.59
-0.615
-0.62
-0.625
-0.6
-0.605
-0.595
-0.59
-0.595
-0.61
-0.62
-0.62
-0.63
-0.64
-0.63
-0.63
-0.625
-0.605
-0.605
-0.59
-0.6
-0.595
-0.595
-0.605
-0.615
-0.63
-0.61
-0.615
-0.605
-0.575
-0.545
-0.49
-0.405
-0.325
-0.2
-0.065
0.08
0.215
0.32
0.36
0.345
0.23
0.07
-0.155
-0.44
-0.705
-0.945
-1.105
-1.13
-1.085
-0.96
-0.85
-0.755
-0.68
-0.64
-0.605
-0.575
-0.55
-0.56
-0.555
-0.565
-0.565
-0.58
-0.565
-0.57
-0.545
-0.535
-0.53
-0.535
-0.52
-0.545
-0.54
-0.54
-0.545
-0.545
-0.53
-0.51
-0.5
-0.475
-0.485
-0.475
-0.485
-0.47
-0.47
-0.485
-0.49
-0.48
-0.485
-0.465
-0.46
-0.44
-0.435
-0.42
-0.435
-0.425
-0.43
-0.435
-0.44
-0.425
-0.42
-0.42
-0.39
-0.375
-0.375
-0.37
-0.38
-0.37
-0.375
-0.37
-0.38
-0.365
-0.35
-0.335
-0.32
-0.3
-0.3
-0.28
-0.265
-0.27
-0.245
-0.245
-0.235
-0.225
-0.2
-0.185
-0.145
-0.12
-0.1
-0.075
-0.05
-0.035
-0.03
-0.03
-0.02
-0.03
0.01
0.045
0.065
0.075
0.085
0.09
0.1
0.1
0.095
0.095
0.065
0.07
0.085
0.07
0.065
0.08
0.06
0.055
0.005
-0.02
-0.05
-0.09
-0.125
-0.15
-0.17
-0.2
-0.22
-0.225
-0.25
-0.265
-0.3
-0.315
-0.345
-0.365
-0.385
-0.395
-0.4
-0.395
-0.425
-0.4
-0.4
-0.405
-0.395
-0.405
-0.42
-0.435
-0.45
-0.44
-0.45
-0.445
-0.425
-0.425
-0.42
-0.43
-0.435
-0.445
-0.435
-0.435
-0.445
-0.45
-0.44
-0.435
-0.42
-0.44
-0.4
-0.415
-0.4
-0.41
-0.425
-0.43
-0.44
-0.43
-0.43
-0.4
-0.415
-0.385
-0.375
-0.38
-0.38
-0.38
-0.395
-0.395
-0.4
-0.395
-0.4
-0.39
-0.385
-0.365
-0.35
-0.38
-0.39
-0.4
-0.405
-0.425
-0.42
-0.41
-0.405
-0.385
-0.37
-0.375
-0.365
-0.365
-0.37
-0.39
-0.395
-0.405
-0.415
-0.405
-0.41
-0.405
-0.38
-0.38
-0.385
-0.385
-0.4
-0.395
-0.41
-0.395
-0.405
-0.395
-0.39
-0.385
-0.38
-0.375
-0.375
-0.375
-0.375
-0.395
-0.4
-0.395
-0.4
-0.4
-0.39
-0.405
-0.38
-0.36
-0.365
-0.395
-0.38
-0.385
-0.38
-0.39
-0.4
-0.39
-0.395
-0.395
-0.39
-0.36
-0.36
-0.36
-0.36
-0.37
-0.375
-0.385
-0.4
-0.41
-0.4
-0.395
-0.38
-0.38
-0.345
-0.35
-0.345
-0.355
-0.365
-0.385
-0.39
-0.38
-0.39
-0.385
-0.365
-0.355
-0.33
-0.33
-0.355
-0.35
-0.36
-0.37
-0.375
-0.375
-0.38
-0.355
-0.34
-0.335
-0.325
-0.33
-0.33
-0.335
-0.335
-0.36
-0.345
-0.35
-0.355
-0.35
-0.345
-0.33
-0.315
-0.31
-0.305
-0.305
-0.33
-0.31
-0.3
-0.295
-0.29
-0.27
-0.265
-0.24
-0.25
-0.235
-0.23
-0.21
-0.2
-0.2
-0.185
-0.18
-0.195
-0.19
-0.2
-0.21
-0.205
-0.2
-0.22
-0.24
-0.265
-0.275
-0.295
-0.31
-0.31
-0.315
-0.32
-0.325
-0.315
-0.315
-0.33
-0.33
-0.33
-0.345
-0.355
-0.365
-0.36
-0.355
-0.34
-0.34
-0.325
-0.33
-0.325
-0.34
-0.33
-0.36
-0.355
-0.37
-0.355
-0.34
-0.345
-0.315
-0.31
-0.3
-0.305
-0.3
-0.29
-0.265
-0.23
-0.155
-0.05
0.08
0.19
0.305
0.395
0.42
0.375
0.265
0.07
-0.16
-0.4
-0.625
-0.835
-1.01
-1.095
-1.09
-1.0
-0.87
-0.76
-0.665
-0.615
-0.555
-0.505
-0.46
-0.39
-0.345
-0.295
-0.265
-0.265
-0.255
-0.275
-0.3
-0.29
-0.295
-0.295
-0.275
-0.275
-0.265
-0.245
-0.23
-0.22
-0.215
-0.21
-0.22
-0.23
-0.225
-0.25
-0.245
-0.25
-0.23
-0.22
-0.205
-0.205
-0.205
-0.195
-0.205
-0.215
-0.21
-0.205
-0.2
-0.215
-0.185
-0.165
-0.165
-0.16
-0.15
-0.145
-0.165
-0.165
-0.185
-0.18
-0.19
-0.16
-0.15
-0.115
-0.1
-0.08
-0.065
-0.075
-0.07
-0.065
-0.065
-0.055
-0.065
-0.025
-0.01
-0.01
0.01
0.04
0.06
0.075
0.075
0.095
0.11
0.12
0.135
0.14
0.185
0.185
0.215
0.24
0.25
0.28
0.29
0.285
0.28
0.285
0.295
0.305
0.315
0.325
0.34
0.345
0.34
0.31
0.29
0.28
0.275
0.245
0.21
0.195
0.155
0.13
0.105
0.095
0.065
0.035
0.0
-0.03
-0.08
-0.115
-0.14
-0.165
-0.19
-0.2
-0.215
-0.215
-0.24
-0.25
-0.26
-0.265
-0.285
-0.3
-0.315
-0.31
-0.32
-0.325
-0.32
-0.32
-0.31
-0.315
-0.335
-0.36
-0.36
-0.37
-0.37
-0.36
-0.355
-0.365
-0.36
-0.355
-0.34
-0.345
-0.365
-0.375
-0.37
-0.38
-0.375
-0.375
-0.37
-0.365
-0.345
-0.34
-0.34
-0.335
-0.335
-0.345
-0.355
-0.365
-0.36
-0.355
-0.355
-0.345
-0.335
-0.34
-0.345
-0.325
-0.33
-0.335
-0.35
-0.36
-0.375
-0.36
-0.34
-0.335
-0.335
-0.325
-0.33
-0.335
-0.345
-0.385
-0.38
-0.385
-0.39
-0.39
-0.395
-0.4
-0.39
-0.385
-0.38
-0.36
-0.37
-0.395
-0.4
-0.42
-0.425
-0.43
-0.405
-0.41
-0.395
-0.38
-0.395
-0.4
-0.4
-0.41
-0.435
-0.435
-0.435
-0.44
-0.44
-0.42
-0.41
-0.4
-0.405
-0.425
-0.425
-0.43
-0.445
-0.44
-0.435
-0.44
-0.43
-0.435
-0.43
-0.395
-0.4
-0.42
-0.42
-0.43
-0.43
-0.445
-0.455
-0.45
-0.44
-0.44
-0.43
-0.425
-0.425
-0.425
-0.435
-0.43
-0.445
-0.45
-0.445
-0.45
-0.455
-0.44
-0.435
-0.425
-0.42
-0.425
-0.42
-0.43
-0.445
-0.45
-0.46
-0.47
-0.43
-0.435
-0.43
-0.43
-0.425
-0.415
-0.42
-0.435
-0.435
-0.44
-0.44
-0.44
-0.435
-0.44
-0.415
-0.415
-0.41
-0.41
-0.41
-0.43
-0.445
-0.45
-0.445
-0.45
-0.43
-0.43
-0.415
-0.405
-0.405
-0.405
-0.42
-0.425
-0.43
-0.425
-0.42
-0.42
-0.395
-0.37
-0.355
-0.34
-0.35
-0.365
-0.36
-0.36
-0.36
-0.345
-0.335
-0.325
-0.29
-0.285
-0.285
-0.255
-0.27
-0.275
-0.295
-0.31
-0.325
-0.345
-0.355
-0.355
-0.355
-0.355
-0.37
-0.37
-0.4
-0.395
-0.4
-0.42
-0.435
-0.45
-0.465
-0.45
-0.46
-0.46
-0.45
-0.435
-0.45
-0.46
-0.46
-0.465
-0.47
-0.47
-0.475
-0.49
-0.48
-0.46
-0.465
-0.46
-0.45
-0.455
-0.45
-0.46
-0.47
-0.465
-0.46
-0.465
-0.44
-0.42
-0.39
-0.325
-0.26
-0.17
-0.06
0.06
0.205
0.345
0.46
0.55
0.585
0.53
0.395
0.235
-0.01
-0.28
-0.565
-0.84
-0.995
-1.025
-0.965
-0.865
-0.73
-0.63
-0.555
-0.5
-0.475
-0.455
-0.455
-0.445
-0.435
-0.43
-0.425
-0.425
-0.435
-0.43
-0.425
-0.42
-0.415
-0.4
-0.395
-0.42
-0.415
-0.42
-0.42
-0.41
-0.41
-0.42
-0.385
-0.36
-0.38
-0.36
-0.385
-0.39
-0.38
-0.385
-0.395
-0.395
-0.375
-0.365
-0.36
-0.355
-0.34
-0.345
-0.335
-0.34
-0.355
-0.35
-0.35
-0.35
-0.35
-0.345
-0.32
-0.3
-0.3
-0.305
-0.32
-0.32
-0.305
-0.3
-0.305
-0.28
-0.275
-0.27
-0.245
-0.24
-0.235
-0.225
-0.24
-0.22
-0.245
-0.22
-0.2
-0.175
-0.175
-0.15
-0.125
-0.105
-0.1
-0.07
-0.06
-0.07
-0.05
-0.05
-0.035
-0.02
-0.01
0.03
0.05
0.075
0.095
0.095
0.1
0.105
0.11
0.105
0.105
0.12
0.135
0.135
0.15
0.15
0.155
0.13
0.125
0.105
0.065
0.045
0.035
0.0
-0.015
-0.03
-0.06
-0.085
-0.115
-0.145
-0.18
-0.22
-0.255
-0.28
-0.31
-0.32
-0.355
-0.36
-0.36
-0.395
-0.395
-0.405
-0.4
-0.42
-0.445
-0.465
-0.46
-0.48
-0.48
-0.46
-0.45
-0.455
-0.455
-0.465
-0.46
-0.475
-0.49
-0.49
-0.505
-0.5
-0.49
-0.49
-0.46
-0.455
-0.465
-0.465
-0.475
-0.48
-0.485
-0.48
-0.49
-0.49
-0.47
-0.475
-0.465
-0.465
-0.45
-0.455
-0.475
-0.475
-0.495
-0.5
-0.485
-0.495
-0.49
-0.475
-0.46
-0.465
-0.45
-0.47
-0.465
-0.475
-0.485
-0.485
-0.485
-0.515
-0.485
-0.48
-0.475
-0.46
-0.475
-0.475
-0.485
-0.485
-0.515
-0.51
-0.515
-0.51
-0.52
-0.5
-0.495
-0.485
-0.485
-0.5
-0.505
-0.525
-0.535
-0.535
-0.54
-0.545
-0.53
-0.52
-0.515
-0.51
-0.525
-0.53
-0.53
-0.54
-0.545
-0.555
-0.575
-0.565
-0.555
-0.55
-0.56
-0.54
-0.545
-0.545
-0.55
-0.56
-0.565
-0.59
-0.585
-0.575
-0.57
-0.575
-0.55
-0.545
-0.555
-0.545
-0.565
-0.58
-0.595
-0.585
-0.59
-0.58
-0.57
-0.56
-0.555
-0.54
-0.55
-0.535
-0.555
-0.575
-0.575
-0.6
-0.585
-0.59
-0.6
-0.595
-0.585
-0.57
-0.56
-0.57
-0.59
-0.58
-0.6
-0.585
-0.6
-0.61
-0.59
-0.59
-0.6
-0.575
-0.575
-0.595
-0.59
-0.59
-0.605
-0.605
-0.63
-0.605
-0.605
-0.585
-0.595
-0.58
-0.59
-0.58
-0.58
-0.585
-0.585
-0.585
-0.6
-0.59
-0.585
-0.59
-0.58
-0.56
-0.55
-0.54
-0.545
-0.55
-0.56
-0.55
-0.56
-0.555
-0.53
-0.51
-0.49
-0.465
-0.46
-0.45
-0.445
-0.445
-0.44
-0.44
-0.46
-0.465
-0.465
-0.46
-0.455
-0.455
-0.47
-0.485
-0.505
-0.525
-0.54
-0.545
-0.56
-0.57
-0.58
-0.58
-0.57
-0.56
-0.555
-0.585
-0.585
-0.595
-0.61
-0.62
-0.645
-0.645
-0.635
-0.615
-0.62
-0.585
-0.6
-0.605
-0.625
-0.62
-0.62
-0.62
-0.6
-0.625
-0.635
-0.61
-0.605
-0.585
-0.585
-0.605
-0.605
-0.585
-0.545
-0.48
-0.415
-0.31
-0.185
-0.065
0.06
0.15
0.14
0.095
-0.01
-0.205
-0.405
-0.645
-0.86
-1.065
-1.19
-1.26
-1.23
-1.135
-1.025
-0.935
-0.87
-0.825
-0.77
-0.74
-0.705
-0.665
-0.625
-0.58
-0.56
-0.55
-0.54
-0.555
-0.55
-0.56
-0.565
-0.55
-0.56
-0.56
-0.54
-0.535
-0.54
-0.52
-0.515
-0.52
-0.525
-0.53
-0.535
-0.54
-0.545
-0.53
-0.52
-0.515
-0.51
-0.475
-0.5
-0.5
-0.5
-0.49
-0.505
-0.505
-0.495
-0.49
-0.485
-0.475
-0.455
-0.45
-0.445
-0.465
-0.465
-0.46
-0.46
-0.445
-0.465
-0.455
-0.425
-0.415
-0.405
-0.375
-0.38
-0.38
-0.38
-0.375
-0.38
-0.35
-0.36
-0.345
-0.305
-0.295
-0.275
-0.255
-0.245
-0.23
-0.225
-0.22
-0.195
-0.195
-0.2
-0.175
-0.15
-0.12
-0.1
-0.075
-0.055
-0.03
-0.03
-0.035
-0.02
-0.005
-0.005
-0.02
-0.005
0.035
0.035
0.05
0.06
0.055
0.055
0.055
0.055
0.03
0.015
-0.01
-0.02
0.0
-0.025
-0.04
-0.055
-0.09
-0.13
-0.17
-0.215
-0.25
-0.285
-0.315
-0.345
-0.355
-0.36
-0.39
-0.415
-0.425
-0.47
-0.495
-0.525
-0.545
-0.55
-0.57
-0.565
-0.58
-0.565
-0.555
-0.575
-0.585
-0.585
-0.61
-0.61
-0.62
-0.62
-0.625
-0.61
-0.61
-0.61
-0.595
-0.595
-0.61
-0.615
-0.62
-0.62
-0.63
-0.63
-0.64
-0.635
-0.62
-0.625
-0.605
-0.595
-0.605
-0.615
-0.63
-0.635
-0.63
-0.66
-0.655
-0.655
-0.625
-0.625
-0.6
-0.62
-0.625
-0.625
-0.63
-0.635
-0.64
-0.655
-0.66
-0.665
-0.64
-0.64
-0.62
-0.63
-0.635
-0.65
-0.66
-0.66
-0.655
-0.67
-0.665
-0.66
-0.655
-0.655
-0.645
-0.66
-0.655
-0.645
-0.67
-0.665
-0.695
-0.705
-0.705
-0.715
-0.71
-0.7
-0.69
-0.7
-0.685
-0.7
-0.7
-0.7
-0.715
-0.73
-0.73
-0.73
-0.71
-0.705
-0.7
-0.71
-0.72
-0.72
-0.735
-0.735
-0.75
-0.77
-0.755
-0.775
-0.745
-0.75
-0.735
-0.74
-0.725
-0.745
-0.76
-0.755
-0.775
-0.775
-0.77
-0.77
-0.765
-0.765
-0.755
-0.75
-0.765
-0.755
-0.775
-0.785
-0.775
-0.78
-0.8
-0.79
-0.79
-0.775
-0.77
-0.77
-0.77
-0.785
-0.79
-0.805
-0.8
-0.805
-0.81
-0.795
-0.785
-0.77
-0.77
-0.775
-0.78
-0.785
-0.795
-0.8
-0.805
-0.82
-0.805
-0.81
-0.805
-0.805
-0.785
-0.785
-0.8
-0.8
-0.815
-0.825
-0.815
-0.82
-0.825
-0.795
-0.785
-0.775
-0.755
-0.725
-0.74
-0.74
-0.755
-0.75
-0.765
-0.765
-0.74
-0.72
-0.72
-0.695
-0.68
-0.68
-0.665
-0.69
-0.7
-0.72
-0.74
-0.78
-0.765
-0.77
-0.77
-0.76
-0.77
-0.81
-0.815
-0.81
-0.825
-0.86
-0.86
-0.88
-0.885
-0.89
-0.88
-0.865
-0.875
-0.87
-0.875
-0.89
-0.9
-0.92
-0.9
-0.92
-0.91
-0.905
-0.895
-0.905
-0.88
-0.885
-0.885
-0.89
-0.895
-0.885
-0.92
-0.91
-0.91
-0.9
-0.87
-0.825
-0.75
-0.64
-0.525
-0.395
-0.24
-0.11
-0.005
-0.005
-0.06
-0.195
-0.4
-0.64
-0.93
-1.22
-1.445
-1.55
-1.55
-1.45
-1.33
-1.22
-1.13
-1.07
-1.035
-1.005
-0.95
-0.92
-0.905
-0.89
-0.915
-0.91
-0.92
-0.93
-0.925
-0.925
-0.93
-0.935
-0.895
-0.88
-0.875
-0.89
-0.895
-0.895
-0.885
-0.92
-0.91
-0.91
-0.91
-0.89
-0.875
-0.87
-0.85
-0.855
-0.87
-0.86
-0.87
-0.87
-0.865
-0.86
-0.84
-0.84
-0.845
-0.82
-0.82
-0.835
-0.83
-0.84
-0.84
-0.845
-0.82
-0.805
-0.79
-0.795
-0.76
-0.76
-0.765
-0.755
-0.755
-0.765
-0.765
-0.765
-0.745
-0.735
-0.7
-0.695
-0.665
-0.64
-0.645
-0.635
-0.625
-0.625
-0.61
-0.61
-0.595
-0.57
-0.555
-0.52
-0.495
-0.48
-0.48
-0.46
-0.445
-0.45
-0.445
-0.45
-0.42
-0.4
-0.39
-0.38
-0.365
-0.365
-0.36
-0.37
-0.38
-0.42
-0.41
-0.405
-0.435
-0.45
-0.46
-0.48
-0.49
-0.515
-0.54
-0.585
-0.62
-0.66
-0.69
-0.73
-0.745
-0.77
-0.8
-0.805
-0.82
-0.84
-0.865
-0.88
-0.905
-0.935
-0.96
-0.97
-0.985
-0.98
-0.995
-0.99
-0.975
-0.975
-0.985
-0.99
-1.005
-1.01
-1.025
-1.05
-1.05
-1.04
-1.045
-1.045
-1.025
-1.025
-1.03
-1.045
-1.035
-1.06
-1.06
-1.065
-1.06
-1.065
-1.06
-1.035
-1.03
-1.025
-1.025
-1.035
-1.04
-1.04
-1.05
-1.04
-1.035
-1.04
-1.02
-1.02
-1.005
-1.005
-1.005
-1.01
-1.015
-1.025
-1.02
-1.025
-1.035
-1.04
-1.03
-1.02
-1.015
-1.015
-1.03
-1.035
-1.03
-1.045
-1.06
-1.075
-1.065
-1.06
-1.045
-1.045
-1.04
-1.04
-1.05
-1.045
-1.06
-1.085
-1.08
-1.095
-1.1
-1.115
-1.09
-1.085
-1.08
-1.08
-1.085
-1.09
-1.105
-1.1
-1.105
-1.13
-1.13
-1.115
-1.12
-1.11
-1.1
-1.11
-1.115
-1.105
-1.13
-1.12
-1.135
-1.145
-1.13
-1.14
-1.125
-1.135
-1.125
-1.13
-1.125
-1.125
-1.135
-1.145
-1.155
-1.15
-1.15
-1.14
-1.145
-1.13
-1.12
-1.115
-1.105
-1.12
-1.12
-1.135
-1.14
-1.15
-1.135
-1.14
-1.13
-1.135
-1.125
-1.13
-1.135
-1.115
-1.14
-1.16
-1.145
-1.16
-1.155
-1.15
-1.135
-1.125
-1.11
-1.125
-1.115
-1.125
-1.13
-1.13
-1.135
-1.14
-1.155
-1.165
-1.145
-1.15
-1.14
-1.12
-1.14
-1.135
-1.15
-1.135
-1.16
-1.16
-1.165
-1.155
-1.155
-1.14
-1.13
-1.125
-1.125
-1.14
-1.155
-1.165
-1.17
-1.17
-1.16
-1.15
-1.145
-1.13
-1.14
-1.135
-1.135
-1.12
-1.14
-1.13
-1.135
-1.13
-1.12
-1.12
-1.12
-1.075
-1.06
-1.08
-1.065
-1.065
-1.075
-1.075
-1.075
-1.05
-1.035
-1.045
-1.02
-1.005
-1.0
-0.99
-1.035
-1.035
-1.045
-1.06
-1.07
-1.08
-1.085
-1.085
-1.11
-1.11
-1.11
-1.11
-1.125
-1.125
-1.135
-1.16
-1.185
-1.175
-1.185
-1.185
-1.18
-1.18
-1.18
-1.19
-1.2
-1.19
-1.205
-1.22
-1.225
-1.22
-1.225
-1.225
-1.205
-1.2
-1.2
-1.185
-1.2
-1.195
