Lead II
-0.75
-0.745
-0.755
-0.755
-0.775
-0.775
-0.77
-0.755
-0.75
-0.745
-0.74
-0.735
-0.74
-0.745
-0.76
-0.765
-0.78
-0.775
-0.775
-0.765
-0.755
-0.75
-0.745
-0.75
-0.755
-0.76
-0.76
-0.785
-0.8
-0.815
-0.78
-0.775
-0.775
-0.74
-0.735
-0.745
-0.75
-0.77
-0.77
-0.8
-0.795
-0.8
-0.79
-0.78
-0.765
-0.76
-0.745
-0.755
-0.755
-0.77
-0.77
-0.785
-0.775
-0.785
-0.77
-0.76
-0.76
-0.745
-0.74
-0.74
-0.75
-0.765
-0.77
-0.755
-0.76
-0.77
-0.765
-0.755
-0.745
-0.75
-0.74
-0.75
-0.75
-0.765
-0.77
-0.785
-0.78
-0.775
-0.78
-0.77
-0.755
-0.77
-0.755
-0.755
-0.755
-0.77
-0.765
-0.785
-0.79
-0.77
-0.78
-0.76
-0.735
-0.735
-0.74
-0.73
-0.72
-0.715
-0.705
-0.705
-0.685
-0.68
-0.665
-0.645
-0.63
-0.625
-0.61
-0.605
-0.59
-0.595
-0.605
-0.605
-0.615
-0.64
-0.645
-0.645
-0.65
-0.65
-0.63
-0.64
-0.66
-0.67
-0.675
-0.685
-0.685
-0.7
-0.72
-0.73
-0.735
-0.74
-0.75
-0.77
-0.775
-0.795
-0.825
-0.83
-0.835
-0.84
-0.83
-0.83
-0.83
-0.815
-0.805
-0.815
-0.82
-0.82
-0.83
-0.84
-0.865
-0.85
-0.85
-0.84
-0.82
-0.825
-0.82
-0.815
-0.825
-0.83
-0.82
-0.83
-0.84
-0.825
-0.84
-0.84
-0.815
-0.805
-0.795
-0.79
-0.775
-0.78
-0.785
-0.795
-0.785
-0.78
-0.76
-0.735
-0.68
-0.615
-0.485
-0.29
-0.065
0.155
0.41
0.665
0.92
1.115
1.175
1.065
0.76
0.305
-0.23
-0.81
-1.285
-1.575
-1.63
-1.52
-1.335
-1.15
-1.0
-0.93
-0.88
-0.885
-0.875
-0.875
-0.85
-0.825
-0.81
-0.815
-0.81
-0.805
-0.825
-0.84
-0.825
-0.835
-0.835
-0.83
-0.815
-0.81
-0.83
-0.835
-0.83
-0.82
-0.835
-0.825
-0.835
-0.83
-0.815
-0.805
-0.815
-0.815
-0.825
-0.845
-0.83
-0.825
-0.835
-0.82
-0.83
-0.82
-0.815
-0.795
-0.81
-0.815
-0.82
-0.84
-0.845
-0.855
-0.855
-0.835
-0.815
-0.82
-0.805
-0.8
-0.8
-0.8
-0.805
-0.81
-0.815
-0.815
-0.805
-0.79
-0.78
-0.765
-0.745
-0.75
-0.74
-0.76
-0.765
-0.765
-0.745
-0.75
-0.735
-0.735
-0.7
-0.685
-0.68
-0.66
-0.65
-0.63
-0.63
-0.64
-0.62
-0.605
-0.61
-0.58
-0.555
-0.525
-0.51
-0.5
-0.51
-0.495
-0.48
-0.475
-0.455
-0.445
-0.43
-0.41
-0.4
-0.39
-0.375
-0.36
-0.36
-0.375
-0.4
-0.415
-0.435
-0.46
-0.465
-0.485
-0.5
-0.52
-0.53
-0.545
-0.575
-0.595
-0.62
-0.65
-0.67
-0.685
-0.705
-0.715
-0.715
-0.74
-0.73
-0.75
-0.75
-0.775
-0.78
-0.79
-0.79
-0.8
-0.8
-0.795
-0.795
-0.785
-0.78
-0.785
-0.785
-0.795
-0.82
-0.825
-0.835
-0.825
-0.825
-0.82
-0.805
-0.82
-0.795
-0.795
-0.825
-0.82
-0.83
-0.82
-0.83
-0.82
-0.825
-0.815
-0.81
-0.805
-0.8
-0.8
-0.79
-0.795
-0.805
-0.82
-0.82
-0.82
-0.81
-0.8
-0.79
-0.795
-0.78
-0.785
-0.775
-0.795
-0.8
-0.8
-0.81
-0.815
-0.81
-0.8
-0.795
-0.78
-0.785
-0.8
-0.79
-0.795
-0.825
-0.825
-0.83
-0.83
-0.855
-0.845
-0.835
-0.81
-0.81
-0.82
-0.835
-0.82
-0.83
-0.865
-0.865
-0.86
-0.86
-0.87
-0.85
-0.85
-0.83
-0.835
-0.825
-0.825
-0.845
-0.85
-0.875
-0.87
-0.86
-0.855
-0.84
-0.845
-0.835
-0.855
-0.885
-0.895
-0.88
-0.885
-0.9
-0.885
-0.885
-0.87
-0.865
-0.87
-0.88
-0.85
-0.87
-0.88
-0.895
-0.89
-0.88
-0.895
-0.87
-0.89
-0.885
-0.89
-0.875
-0.865
-0.86
-0.855
-0.87
-0.865
-0.87
-0.885
-0.89
-0.905
-0.875
-0.855
-0.855
-0.855
-0.845
-0.855
-0.88
-0.895
-0.895
-0.9
-0.89
-0.895
-0.875
-0.865
-0.86
-0.865
-0.86
-0.865
-0.88
-0.89
-0.89
-0.89
-0.88
-0.89
-0.875
-0.865
-0.865
-0.875
-0.865
-0.87
-0.87
-0.87
-0.875
-0.88
-0.895
-0.89
-0.885
-0.89
-0.875
-0.86
-0.88
-0.865
-0.87
-0.885
-0.89
-0.89
-0.88
-0.885
-0.875
-0.875
-0.855
-0.865
-0.86
-0.85
-0.865
-0.87
-0.885
-0.885
-0.89
-0.895
-0.875
-0.86
-0.845
-0.85
-0.84
-0.85
-0.865
-0.875
-0.9
-0.885
-0.88
-0.87
-0.85
-0.85
-0.835
-0.855
-0.85
-0.86
-0.86
-0.875
-0.89
-0.895
-0.89
-0.875
-0.88
-0.87
-0.845
-0.84
-0.855
-0.855
-0.855
-0.855
-0.87
-0.87
-0.86
-0.82
-0.785
-0.77
-0.755
-0.73
-0.745
-0.725
-0.75
-0.75
-0.745
-0.73
-0.71
-0.68
-0.67
-0.66
-0.66
-0.675
-0.695
-0.73
-0.765
-0.78
-0.805
-0.785
-0.775
-0.77
-0.755
-0.76
-0.79
-0.795
-0.825
-0.865
-0.865
-0.89
-0.89
-0.895
-0.91
-0.905
-0.9
-0.895
-0.895
-0.895
-0.895
-0.905
-0.92
-0.93
-0.925
-0.94
-0.935
-0.915
-0.92
-0.9
-0.9
-0.905
-0.9
-0.905
-0.915
-0.92
-0.935
-0.925
-0.925
-0.915
-0.905
-0.9
-0.885
-0.88
-0.87
-0.895
-0.9
-0.895
-0.89
-0.88
-0.865
-0.865
-0.84
-0.835
-0.825
-0.81
-0.82
-0.82
-0.775
-0.71
-0.585
-0.39
-0.14
0.12
0.385
0.68
0.955
1.15
1.165
0.995
0.625
0.135
-0.445
-1.015
-1.485
-1.735
-1.785
-1.68
-1.505
-1.315
-1.175
-1.11
-1.08
-1.045
-1.025
-0.995
-0.96
-0.94
-0.9
-0.885
-0.9
-0.89
-0.905
-0.905
-0.915
-0.895
-0.92
-0.91
-0.9
-0.915
-0.89
-0.87
-0.885
-0.88
-0.87
-0.88
-0.89
-0.9
-0.91
-0.92
-0.925
-0.905
-0.89
-0.885
-0.87
-0.865
-0.865
-0.865
-0.88
-0.91
-0.905
-0.91
-0.9
-0.895
-0.885
-0.875
-0.865
-0.87
-0.88
-0.87
-0.88
-0.88
-0.885
-0.9
-0.9
-0.89
-0.88
-0.855
-0.85
-0.84
-0.84
-0.84
-0.86
-0.88
-0.875
-0.865
-0.865
-0.87
-0.845
-0.825
-0.815
-0.81
-0.8
-0.795
-0.805
-0.8
-0.78
-0.785
-0.78
-0.765
-0.745
-0.72
-0.705
-0.69
-0.68
-0.665
-0.66
-0.66
-0.66
-0.655
-0.63
-0.625
-0.605
-0.595
-0.575
-0.56
-0.555
-0.53
-0.54
-0.535
-0.54
-0.525
-0.51
-0.5
-0.495
-0.485
-0.49
-0.495
-0.51
-0.53
-0.545
-0.565
-0.58
-0.595
-0.605
-0.625
-0.63
-0.66
-0.655
-0.67
-0.695
-0.71
-0.745
-0.765
-0.785
-0.815
-0.8
-0.795
-0.795
-0.79
-0.79
-0.79
-0.79
-0.815
-0.81
-0.845
-0.855
-0.86
-0.875
-0.86
-0.855
-0.84
-0.83
-0.82
-0.83
-0.855
-0.86
-0.855
-0.865
-0.87
-0.865
-0.85
-0.84
-0.84
-0.83
-0.825
-0.825
-0.825
-0.825
-0.85
-0.845
-0.85
-0.845
-0.845
-0.82
-0.805
-0.815
-0.8
-0.81
-0.82
-0.825
-0.825
-0.835
-0.845
-0.845
-0.84
-0.83
-0.8
-0.795
-0.8
-0.795
-0.8
-0.82
-0.815
-0.815
-0.82
-0.835
-0.82
-0.815
-0.8
-0.805
-0.825
-0.81
-0.815
-0.825
-0.84
-0.84
-0.845
-0.85
-0.85
-0.84
-0.83
-0.825
-0.81
-0.815
-0.835
-0.84
-0.855
-0.86
-0.875
-0.885
-0.875
-0.855
-0.845
-0.84
-0.845
-0.85
-0.855
-0.86
-0.875
-0.865
-0.88
-0.87
-0.87
-0.865
-0.85
-0.84
-0.84
-0.85
-0.85
-0.865
-0.88
-0.87
-0.88
-0.905
-0.89
-0.87
-0.88
-0.865
-0.865
-0.86
-0.865
-0.89
-0.9
-0.9
-0.895
-0.91
-0.9
-0.885
-0.885
-0.87
-0.87
-0.87
-0.87
-0.88
-0.89
-0.9
-0.9
-0.91
-0.895
-0.885
-0.87
-0.86
-0.865
-0.855
-0.86
-0.885
-0.89
-0.885
-0.91
-0.9
-0.9
-0.89
-0.88
-0.87
-0.875
-0.875
-0.875
-0.885
-0.905
-0.915
-0.91
-0.91
-0.905
-0.88
-0.89
-0.885
-0.865
-0.88
-0.89
-0.89
-0.9
-0.905
-0.895
-0.91
-0.895
-0.895
-0.89
-0.87
-0.875
-0.865
-0.87
-0.88
-0.89
-0.89
-0.895
-0.915
-0.89
-0.875
-0.87
-0.865
-0.85
-0.85
-0.86
-0.87
-0.885
-0.88
-0.885
-0.86
-0.85
-0.8
-0.795
-0.765
-0.755
-0.735
-0.745
-0.75
-0.745
-0.745
-0.735
-0.725
-0.72
-0.715
-0.725
-0.725
-0.73
-0.75
-0.755
-0.765
-0.77
-0.785
-0.78
-0.79
-0.795
-0.795
-0.8
-0.82
-0.83
-0.855
-0.885
-0.895
-0.91
-0.925
-0.95
-0.935
-0.955
-0.95
-0.945
-0.935
-0.93
-0.93
-0.945
-0.95
-0.95
-0.955
-0.96
-0.97
-0.965
-0.945
-0.935
-0.935
-0.935
-0.935
-0.935
-0.94
-0.965
-0.95
-0.97
-0.97
-0.955
-0.94
-0.925
-0.915
-0.91
-0.9
-0.915
-0.93
-0.935
-0.935
-0.925
-0.915
-0.91
-0.89
-0.87
-0.83
-0.81
-0.77
-0.67
-0.51
-0.32
-0.1
0.15
0.4
0.675
0.94
1.1
1.115
0.905
0.5
-0.055
-0.685
-1.23
-1.635
-1.79
-1.755
-1.56
-1.335
-1.15
-1.05
-0.985
-0.98
-0.985
-0.975
-0.97
-0.95
-0.94
-0.925
-0.925
-0.92
-0.915
-0.905
-0.905
-0.895
-0.895
-0.915
-0.91
-0.92
-0.925
-0.92
-0.915
-0.885
-0.895
-0.88
-0.88
-0.88
-0.87
-0.905
-0.915
-0.915
-0.905
-0.905
-0.9
-0.9
-0.895
-0.88
-0.875
-0.88
-0.88
-0.9
-0.9
-0.905
-0.9
-0.91
-0.895
-0.89
-0.875
-0.895
-0.875
-0.875
-0.87
-0.875
-0.87
-0.88
-0.89
-0.895
-0.88
-0.875
-0.86
-0.86
-0.85
-0.835
-0.83
-0.83
-0.835
-0.84
-0.825
-0.835
-0.825
-0.81
-0.8
-0.78
-0.78
-0.76
-0.755
-0.745
-0.755
-0.745
-0.745
-0.73
-0.725
-0.705
-0.675
-0.655
-0.63
-0.63
-0.615
-0.615
-0.6
-0.59
-0.585
-0.575
-0.55
-0.545
-0.52
-0.485
-0.475
-0.47
-0.465
-0.455
-0.465
-0.465
-0.48
-0.485
-0.5
-0.485
-0.475
-0.49
-0.51
-0.535
-0.555
-0.585
-0.61
-0.63
-0.645
-0.67
-0.7
-0.725
-0.725
-0.72
-0.74
-0.75
-0.75
-0.755
-0.795
-0.795
-0.81
-0.83
-0.82
-0.82
-0.83
-0.825
-0.845
-0.835
-0.845
-0.865
-0.87
-0.865
-0.875
-0.87
-0.885
-0.875
-0.86
-0.85
-0.85
-0.845
-0.86
-0.87
-0.89
-0.89
-0.89
-0.885
-0.87
-0.855
-0.845
-0.835
-0.835
-0.84
-0.825
-0.845
-0.86
-0.85
-0.845
-0.85
-0.845
-0.835
-0.825
-0.815
-0.81
-0.815
-0.815
-0.815
-0.83
-0.84
-0.825
-0.84
-0.83
-0.82
-0.815
-0.81
-0.805
-0.8
-0.81
-0.815
-0.84
-0.845
-0.845
-0.855
-0.855
-0.84
-0.845
-0.835
-0.825
-0.83
-0.835
-0.825
-0.85
-0.855
-0.855
-0.865
-0.87
-0.86
-0.845
-0.84
-0.84
-0.84
-0.85
-0.855
-0.87
-0.87
-0.87
-0.89
-0.885
-0.885
-0.87
-0.865
-0.87
-0.86
-0.855
-0.87
-0.885
-0.88
-0.895
-0.9
-0.885
-0.89
-0.865
-0.87
-0.855
-0.855
-0.86
-0.87
-0.875
-0.89
-0.895
-0.9
-0.89
-0.875
-0.885
-0.87
-0.865
-0.87
-0.88
-0.885
-0.89
-0.9
-0.9
-0.93
-0.915
-0.895
-0.88
-0.88
-0.875
-0.875
-0.875
-0.88
-0.885
-0.885
-0.9
-0.9
-0.895
-0.895
-0.885
-0.87
-0.875
-0.89
-0.885
-0.875
-0.885
-0.9
-0.89
-0.9
-0.915
-0.905
-0.895
-0.88
-0.885
-0.885
-0.885
-0.905
-0.915
-0.93
-0.93
-0.93
-0.92
-0.91
-0.895
-0.895
-0.885
-0.89
-0.88
-0.905
-0.91
-0.91
-0.925
-0.92
-0.91
-0.915
-0.9
-0.87
-0.875
-0.875
-0.88
-0.875
-0.9
-0.91
-0.91
-0.91
-0.91
-0.905
-0.89
-0.895
-0.89
-0.875
-0.88
-0.875
-0.895
-0.895
-0.905
-0.91
-0.93
-0.905
-0.89
-0.895
-0.885
-0.89
-0.88
-0.89
-0.9
-0.89
-0.89
-0.87
-0.865
-0.85
-0.82
-0.795
-0.78
-0.755
-0.755
-0.76
-0.77
-0.765
-0.755
-0.745
-0.74
-0.74
-0.74
-0.74
-0.76
-0.77
-0.795
-0.795
-0.835
-0.82
-0.81
-0.82
-0.815
-0.84
-0.835
-0.85
-0.865
-0.89
-0.905
-0.905
-0.945
-0.97
-0.97
-0.985
-0.99
-0.98
-0.98
-0.97
-0.96
-0.955
-0.95
-0.965
-0.975
-0.98
-0.985
-0.985
-0.98
-0.98
-0.98
-0.98
-0.955
-0.965
-0.985
-0.985
-0.98
-0.985
-0.995
-0.995
-0.995
-0.99
-0.96
-0.955
-0.95
-0.94
-0.95
-0.955
-0.935
-0.955
-0.95
-0.935
-0.925
-0.9
-0.875
-0.85
-0.805
-0.705
-0.53
-0.34
-0.125
0.105
0.345
0.615
0.85
1.01
0.98
0.785
0.4
-0.13
-0.7
-1.195
-1.59
-1.775
-1.78
-1.66
-1.46
-1.31
-1.19
-1.105
-1.065
-1.045
-1.025
-1.0
-0.98
-0.96
-0.95
-0.975
-0.965
-0.97
-0.955
-0.95
-0.94
-0.945
-0.925
-0.935
-0.945
-0.945
-0.96
-0.965
-0.965
-0.965
-0.955
-0.955
-0.93
-0.925
-0.93
-0.945
-0.955
-0.975
-0.985
-0.965
-0.965
-0.955
-0.935
-0.935
-0.915
-0.92
-0.93
-0.94
-0.955
-0.945
-0.955
-0.96
-0.945
-0.94
-0.925
-0.91
-0.9
-0.905
-0.915
-0.92
-0.925
-0.945
-0.945
-0.945
-0.925
-0.92
-0.925
-0.895
-0.895
-0.885
-0.88
-0.895
-0.895
-0.885
-0.895
-0.885
-0.885
-0.865
-0.855
-0.84
-0.81
-0.805
-0.805
-0.79
-0.795
-0.795
-0.795
-0.785
-0.78
-0.76
-0.73
-0.72
-0.71
-0.69
-0.665
-0.67
-0.675
-0.665
-0.645
-0.64
-0.63
-0.605
-0.575
-0.56
-0.545
-0.54
-0.54
-0.54
-0.53
-0.54
-0.545
-0.545
-0.565
-0.56
-0.565
-0.57
-0.575
-0.595
-0.6
-0.62
-0.65
-0.675
-0.705
-0.725
-0.745
-0.765
-0.775
-0.78
-0.8
-0.795
-0.815
-0.84
-0.855
-0.865
-0.88
-0.895
-0.91
-0.885
-0.89
-0.895
-0.895
-0.905
-0.9
-0.91
-0.92
-0.92
-0.92
-0.935
-0.93
-0.92
-0.915
-0.915
-0.905
-0.9
-0.91
-0.91
-0.92
-0.925
-0.93
-0.945
-0.935
-0.93
-0.92
-0.89
-0.89
-0.87
-0.875
-0.9
-0.91
-0.91
-0.915
-0.91
-0.93
-0.905
-0.92
-0.905
-0.89
-0.89
-0.895
-0.905
-0.91
-0.91
-0.92
-0.9
-0.895
-0.9
-0.885
-0.88
-0.87
-0.865
-0.855
-0.87
-0.885
-0.89
-0.9
-0.92
-0.91
-0.91
-0.905
-0.88
-0.88
-0.875
-0.89
-0.885
-0.905
-0.92
-0.915
-0.925
-0.925
-0.925
-0.92
-0.905
-0.915
-0.94
-0.92
-0.935
-0.925
-0.935
-0.955
-0.96
-0.965
-0.955
-0.935
-0.92
-0.92
-0.92
-0.905
-0.915
-0.94
-0.945
-0.955
-0.94
-0.945
-0.945
-0.945
-0.93
-0.925
-0.925
-0.935
-0.95
-0.945
-0.94
-0.955
-0.98
-0.96
-0.96
-0.97
-0.95
-0.935
-0.935
-0.935
-0.935
-0.95
-0.95
-0.945
-0.955
-0.975
-0.975
-0.975
-0.95
-0.94
-0.945
-0.935
-0.935
-0.955
-0.955
-0.965
-0.96
-0.96
-0.955
-0.95
-0.94
-0.935
-0.935
-0.925
-0.935
-0.95
-0.96
-0.95
-0.97
-0.97
-0.97
-0.95
-0.955
-0.945
-0.935
-0.94
-0.945
-0.955
-0.95
-0.96
-0.955
-0.95
-0.93
-0.925
-0.915
-0.925
-0.935
-0.925
-0.935
-0.95
-0.95
-0.94
-0.94
-0.95
-0.945
-0.94
-0.935
-0.92
-0.905
-0.91
-0.915
-0.93
-0.94
-0.95
-0.935
-0.925
-0.925
-0.905
-0.885
-0.855
-0.835
-0.825
-0.82
-0.825
-0.815
-0.815
-0.825
-0.83
-0.82
-0.785
-0.745
-0.725
-0.72
-0.735
-0.755
-0.795
-0.815
-0.84
-0.85
-0.84
-0.835
-0.815
-0.8
-0.78
-0.81
-0.805
-0.835
-0.855
-0.915
-0.945
-0.965
-0.975
-0.985
-0.955
-0.945
-0.945
-0.955
-0.95
-0.975
-0.98
-1.02
-1.035
-1.045
-1.06
-1.05
-1.04
-1.035
-1.03
-1.045
-1.04
-1.04
-1.055
-1.06
-1.065
-1.065
-1.05
-1.03
-1.01
-0.985
-0.965
-0.95
-0.945
-0.945
-0.975
-0.985
-0.965
-0.95
-0.915
-0.89
-0.875
-0.87
-0.875
-0.87
-0.88
-0.86
-0.84
-0.79
-0.715
-0.585
-0.41
-0.17
0.085
0.345
0.605
0.895
1.1
1.155
1.0
0.69
0.215
-0.37
-0.945
-1.425
-1.7
-1.765
-1.65
-1.46
-1.29
-1.165
-1.135
-1.13
-1.14
-1.16
-1.13
-1.095
-1.055
-1.015
-0.965
-0.95
-0.94
-0.94
-0.965
-0.97
-1.005
-1.025
-1.055
-1.08
-1.07
-1.055
-1.055
-1.045
-1.03
-1.02
-1.025
-1.0
-0.985
-0.96
-0.95
-0.915
-0.905
-0.905
-0.89
-0.905
-0.925
-0.95
-0.985
-1.005
-1.035
-1.045
-1.045
-1.045
-1.045
-1.01
-1.005
-1.01
-1.0
-1.0
-0.99
-0.995
-0.99
-1.005
-1.0
-0.985
-0.995
-0.98
-0.97
-0.96
-0.975
-0.935
-0.955
-0.94
-0.935
-0.92
-0.93
-0.915
-0.895
-0.88
-0.855
-0.835
-0.825
-0.815
-0.815
-0.835
-0.835
-0.845
-0.82
-0.81
-0.775
-0.76
-0.75
-0.735
-0.725
-0.74
-0.74
-0.72
-0.7
-0.655
-0.62
-0.57
-0.535
-0.505
-0.49
-0.505
-0.52
-0.525
-0.54
-0.555
-0.545
-0.56
-0.575
-0.58
-0.595
-0.595
-0.595
-0.58
-0.57
-0.57
-0.59
-0.61
-0.635
-0.68
-0.7
-0.74
-0.76
-0.77
-0.76
-0.76
-0.76
-0.78
-0.81
-0.84
-0.875
-0.9
-0.905
-0.895
-0.885
-0.895
-0.885
-0.895
-0.905
-0.92
-0.945
-0.955
-0.955
-0.95
-0.95
-0.95
-0.92
-0.9
-0.875
-0.88
-0.865
-0.905
-0.925
-0.96
-0.99
-0.985
-0.955
-0.96
-0.93
-0.915
-0.91
-0.905
-0.92
-0.935
-0.93
-0.945
-0.92
-0.91
-0.92
-0.91
-0.92
-0.915
-0.9
-0.91
-0.885
-0.9
-0.91
-0.905
-0.92
-0.935
-0.95
-0.95
-0.925
-0.9
-0.865
-0.865
-0.87
-0.88
-0.915
-0.93
-0.935
-0.92
-0.905
-0.86
-0.865
-0.86
-0.87
-0.88
-0.895
-0.9
-0.91
-0.9
-0.89
-0.905
-0.93
-0.925
-0.905
-0.9
-0.895
-0.89
-0.895
-0.9
-0.925
-0.935
-0.96
-0.96
-0.97
-0.925
-0.905
-0.885
-0.88
-0.885
-0.91
-0.935
-0.94
-0.95
-0.945
-0.94
-0.945
-0.93
-0.935
-0.94
-0.94
-0.925
-0.935
-0.92
-0.935
-0.945
-0.94
-0.95
-0.94
-0.935
-0.925
-0.91
-0.915
-0.92
-0.92
-0.925
-0.96
-0.98
-0.975
-0.965
-0.965
-0.935
-0.92
-0.895
-0.9
-0.93
-0.935
-0.965
-0.975
-0.995
-0.99
-0.98
-0.96
-0.94
-0.91
-0.93
-0.895
-0.925
-0.945
-0.965
-1.0
-0.985
-0.99
-0.975
-0.945
-0.93
-0.915
-0.905
-0.92
-0.945
-0.965
-0.975
-0.97
-0.95
-0.915
-0.88
-0.835
-0.795
-0.775
-0.795
-0.815
-0.835
-0.84
-0.835
-0.805
-0.78
-0.765
-0.75
-0.77
-0.79
-0.81
-0.83
-0.83
-0.835
-0.835
-0.84
-0.845
-0.855
-0.855
-0.865
-0.865
-0.86
-0.86
-0.865
-0.875
-0.915
-0.935
-0.96
-0.99
-0.995
-1.02
-1.02
-1.025
-1.02
-1.005
-0.98
-0.945
-0.95
-0.95
-0.975
-0.99
-1.01
-1.0
-1.015
-1.015
-1.005
-0.995
-0.99
-0.98
-0.975
-0.97
-0.98
-0.99
-1.0
-1.015
-1.015
-1.02
-0.995
-0.95
-0.93
-0.915
-0.915
-0.935
-0.94
-0.95
-0.95
-0.93
-0.92
-0.875
-0.805
-0.715
-0.55
-0.36
-0.145
0.075
0.3
0.54
0.765
0.95
1.03
0.94
0.645
0.205
-0.345
-0.925
-1.425
-1.735
-1.81
-1.705
-1.515
-1.305
-1.17
-1.095
-1.06
-1.05
-1.055
-1.025
-0.99
-0.98
-0.955
-0.955
-0.955
-0.96
-0.98
-0.99
-0.98
-0.97
-0.96
-0.95
-0.95
-0.96
-0.96
-0.97
-0.99
-0.995
-0.99
-0.985
-0.975
-0.96
-0.95
-0.935
-0.92
-0.91
-0.9
-0.92
-0.945
-0.975
-0.98
-0.98
-0.985
-0.975
-0.975
-0.96
-0.95
-0.965
-0.955
-0.975
-0.98
-1.0
-0.99
-1.005
-0.995
-0.985
-0.97
-0.95
-0.94
-0.94
-0.95
-0.965
-0.95
-0.955
-0.965
-0.97
-0.96
-0.94
-0.93
-0.925
-0.895
-0.88
-0.87
-0.87
-0.89
-0.895
-0.885
-0.885
-0.855
-0.825
-0.81
-0.78
-0.755
-0.745
-0.74
-0.725
-0.72
-0.735
-0.715
-0.72
-0.695
-0.67
-0.635
-0.61
-0.6
-0.575
-0.575
-0.57
-0.55
-0.535
-0.525
-0.53
-0.525
-0.515
-0.52
-0.53
-0.53
-0.545
-0.55
-0.55
-0.56
-0.545
-0.545
-0.545
-0.56
-0.59
-0.625
-0.655
-0.695
-0.73
-0.735
-0.735
-0.765
-0.78
-0.8
-0.81
-0.82
-0.84
-0.85
-0.87
-0.855
-0.86
-0.855
-0.875
-0.88
-0.905
-0.9
-0.905
-0.895
-0.895
-0.88
-0.875
-0.875
-0.875
-0.89
-0.885
-0.9
-0.92
-0.95
-0.97
-0.965
-0.945
-0.895
-0.88
-0.88
-0.875
-0.875
-0.9
-0.92
-0.925
-0.94
-0.935
-0.935
-0.925
-0.915
-0.92
-0.9
-0.89
-0.905
-0.905
-0.905
-0.91
-0.9
-0.915
-0.905
-0.905
-0.885
-0.88
-0.885
-0.87
-0.88
-0.895
-0.91
-0.91
-0.915
-0.92
-0.915
-0.905
-0.89
-0.88
-0.875
-0.88
-0.885
-0.885
-0.895
-0.895
-0.905
-0.935
-0.925
-0.915
-0.915
-0.905
-0.895
-0.885
-0.89
-0.91
-0.915
-0.915
-0.92
-0.925
-0.905
-0.91
-0.9
-0.89
-0.89
-0.895
-0.91
-0.92
-0.94
-0.945
-0.945
-0.935
-0.925
-0.915
-0.925
-0.915
-0.915
-0.935
-0.925
-0.92
-0.92
-0.92
-0.925
-0.925
-0.93
-0.96
-0.95
-0.94
-0.94
-0.92
-0.91
-0.915
-0.925
-0.94
-0.935
-0.945
-0.935
-0.93
-0.91
-0.895
-0.88
-0.885
-0.91
-0.92
-0.935
-0.95
-0.955
-0.95
-0.945
-0.945
-0.925
-0.93
-0.93
-0.93
-0.925
-0.94
-0.965
-0.98
-0.975
-0.95
-0.94
-0.935
-0.925
-0.925
-0.915
-0.91
-0.905
-0.885
-0.88
-0.88
-0.87
-0.865
-0.86
-0.84
-0.83
-0.82
-0.81
-0.81
-0.81
-0.8
-0.8
-0.79
-0.78
-0.78
-0.765
-0.78
-0.795
-0.785
-0.78
-0.785
-0.795
-0.81
-0.81
-0.82
-0.825
-0.84
-0.85
-0.86
-0.875
-0.905
-0.92
-0.965
-0.95
-0.96
-0.97
-0.975
-0.995
-1.0
-1.015
-1.0
-0.985
-0.985
-0.975
-0.965
-0.95
-0.97
-0.98
-1.0
-1.015
-1.005
-1.01
-1.0
-0.995
-0.97
-0.96
-0.945
-0.935
-0.935
-0.945
-0.95
-0.97
-0.975
-0.99
-0.97
-0.97
-0.945
-0.935
-0.925
-0.92
-0.915
-0.925
-0.915
-0.915
-0.9
-0.865
-0.81
-0.685
-0.505
-0.295
-0.08
0.13
0.365
0.635
0.875
1.025
1.025
0.84
0.48
-0.01
-0.57
-1.095
-1.52
-1.735
-1.755
-1.65
-1.465
-1.295
-1.16
-1.11
-1.075
-1.07
-1.06
-1.02
-0.99
-0.96
-0.945
-0.94
-0.96
-0.955
-0.96
-0.955
-0.945
-0.925
-0.925
-0.915
-0.905
-0.915
-0.92
-0.935
-0.935
-0.95
-0.945
-0.955
-0.95
-0.955
-0.945
-0.93
-0.92
-0.92
-0.92
-0.93
-0.95
-0.965
-0.965
-0.965
-0.945
-0.93
-0.92
-0.91
-0.895
-0.91
-0.925
-0.93
-0.935
-0.945
-0.93
-0.935
-0.935
-0.925
-0.91
-0.905
-0.9
-0.895
-0.905
-0.9
-0.935
-0.93
-0.92
-0.915
-0.9
-0.885
-0.865
-0.845
-0.835
-0.83
-0.83
-0.84
-0.84
-0.835
-0.83
-0.82
-0.79
-0.765
-0.755
-0.73
-0.71
-0.685
-0.685
-0.685
-0.67
-0.655
-0.635
-0.62
-0.605
-0.585
-0.57
-0.545
-0.535
-0.525
-0.525
-0.51
-0.515
-0.5
-0.5
-0.5
-0.505
-0.485
-0.48
-0.455
-0.46
-0.485
-0.485
-0.51
-0.535
-0.565
-0.59
-0.605
-0.615
-0.625
-0.64
-0.655
-0.67
-0.705
-0.72
-0.75
-0.785
-0.795
-0.8
-0.825
-0.85
-0.855
-0.865
-0.865
-0.865
-0.86
-0.87
-0.845
-0.84
-0.855
-0.875
-0.905
-0.93
-0.93
-0.91
-0.88
-0.86
-0.85
-0.875
-0.875
-0.9
-0.9
-0.92
-0.915
-0.9
-0.895
-0.88
-0.87
-0.865
-0.87
-0.875
-0.88
-0.895
-0.91
-0.895
-0.89
-0.89
-0.865
-0.86
-0.85
-0.855
-0.865
-0.855
-0.85
-0.86
-0.865
-0.885
-0.885
-0.87
-0.865
-0.86
-0.835
-0.865
-0.875
-0.88
-0.88
-0.885
-0.88
-0.87
-0.88
-0.885
-0.855
-0.865
-0.855
-0.865
-0.845
-0.855
-0.87
-0.88
-0.885
-0.9
-0.895
-0.895
-0.885
-0.875
-0.87
-0.875
-0.885
-0.885
-0.905
-0.925
-0.925
-0.93
-0.91
-0.91
-0.91
-0.915
-0.915
-0.905
-0.92
-0.93
-0.92
-0.915
-0.905
-0.9
-0.9
-0.895
-0.895
-0.895
-0.905
-0.905
-0.89
-0.905
-0.91
-0.93
-0.935
-0.94
-0.925
-0.94
-0.915
-0.895
-0.895
-0.895
-0.905
-0.91
-0.935
-0.94
-0.95
-0.945
-0.94
-0.94
-0.935
-0.925
-0.92
-0.915
-0.915
-0.905
-0.935
-0.935
-0.935
-0.92
-0.935
-0.925
-0.91
-0.895
-0.87
-0.865
-0.84
-0.825
-0.84
-0.84
-0.835
-0.845
-0.835
-0.825
-0.8
-0.775
-0.75
-0.75
-0.745
-0.76
-0.765
-0.785
-0.815
-0.815
-0.825
-0.83
-0.835
-0.84
-0.815
-0.815
-0.815
-0.84
-0.855
-0.895
-0.92
-0.95
-0.98
-0.99
-0.97
-0.97
-0.965
-0.985
-0.99
-1.0
-1.015
-1.035
-1.015
-1.04
-1.04
-1.01
-1.015
-1.0
-1.005
-1.005
-1.01
-1.005
-1.01
-1.005
-1.015
-1.015
-1.005
-1.005
-0.99
-0.995
-0.995
-0.995
-1.0
-0.995
-1.005
-1.025
-1.02
-1.015
-0.995
-0.96
-0.93
-0.91
-0.895
-0.89
-0.865
-0.835
-0.795
-0.69
-0.545
-0.35
-0.13
0.105
0.385
0.665
0.92
1.045
1.015
0.79
0.395
-0.11
-0.665
-1.195
-1.57
-1.74
-1.715
-1.56
-1.36
-1.165
-1.06
-1.005
-1.005
-1.015
-1.02
-1.01
-0.98
-0.94
-0.9
-0.875
-0.875
-0.88
-0.88
-0.885
-0.89
-0.89
-0.9
-0.905
-0.92
-0.92
-0.885
-0.875
-0.895
-0.875
-0.86
-0.845
-0.865
-0.865
-0.875
-0.885
-0.86
-0.865
-0.855
-0.855
-0.84
-0.85
-0.845
-0.87
-0.885
-0.88
-0.89
-0.895
-0.9
-0.905
-0.895
-0.875
-0.865
-0.88
-0.875
-0.87
-0.87
-0.88
-0.9
-0.885
-0.875
-0.875
-0.865
-0.84
-0.83
-0.835
-0.825
-0.81
-0.82
-0.84
-0.81
-0.805
-0.8
-0.785
-0.765
-0.755
-0.745
-0.74
-0.73
-0.71
-0.695
-0.675
-0.67
-0.655
-0.635
-0.635
-0.615
-0.6
-0.57
-0.565
-0.545
-0.53
-0.505
-0.505
-0.49
-0.485
-0.475
-0.455
-0.42
-0.41
-0.4
-0.4
-0.425
-0.445
-0.465
-0.495
-0.5
-0.505
-0.525
-0.545
-0.565
-0.585
-0.61
-0.635
-0.68
-0.685
-0.74
-0.76
-0.785
-0.795
-0.79
-0.78
-0.79
-0.805
-0.81
-0.825
-0.84
-0.86
-0.885
-0.9
-0.91
-0.94
-0.94
-0.93
-0.925
-0.935
-0.95
-0.97
-0.97
-0.985
-0.985
-1.0
-1.005
-1.015
-1.025
-1.025
-1.0
-0.965
-0.945
-0.94
-0.92
-0.905
-0.91
-0.9
-0.895
-0.9
-0.925
-0.95
-0.985
-1.02
-1.025
-1.02
-0.97
-0.925
-0.89
-0.885
-0.91
-0.935
-0.955
-0.985
-0.98
-0.985
-0.955
-0.925
-0.91
-0.905
-0.93
-0.96
-0.99
-0.99
-0.985
-0.97
-0.97
-0.96
-0.96
-0.975
-0.975
-0.985
-0.965
-0.98
-0.975
-0.985
-0.995
-1.0
-0.985
-0.985
-0.99
-0.98
-1.0
-1.0
-1.005
-1.015
-1.025
-1.065
-1.095
-1.105
-1.09
-1.035
-0.97
-0.995
-1.035
-1.05
-1.08
-1.08
-1.075
-1.05
-1.06
-1.06
-1.04
-1.04
-1.05
-1.06
-1.075
-1.115
-1.125
-1.135
-1.135
-1.14
-1.11
-1.07
-1.03
-1.005
-0.99
-0.995
-1.01
-1.025
-1.06
-1.065
-1.05
-1.055
-1.055
-1.055
-1.055
-1.07
-1.065
-1.085
-1.1
-1.12
-1.11
-1.11
-1.1
-1.09
-1.06
-1.025
-0.985
-0.975
-0.975
-0.98
-0.975
-0.96
-0.97
-0.975
-0.975
-0.995
-1.005
-1.0
-0.98
-0.95
-0.9
-0.865
-0.875
-0.905
-0.96
-1.015
-1.045
-1.045
-1.035
-1.01
-1.025
-1.005
-1.015
-1.02
-1.025
-1.035
-1.05
-1.07
-1.12
-1.15
-1.17
-1.175
-1.17
-1.175
-1.19
-1.2
-1.195
-1.21
-1.195
-1.16
-1.13
-1.115
-1.125
-1.16
-1.165
-1.16
-1.16
-1.145
-1.14
-1.13
-1.125
-1.145
-1.155
-1.17
-1.145
-1.15
-1.13
-1.135
-1.13
-1.13
-1.115
-1.095
-1.095
-1.115
-1.12
-1.125
-1.14
-1.17
-1.205
-1.205
-1.18
-1.105
-1.015
-0.915
-0.83
-0.725
-0.575
-0.405
-0.195
0.055
0.33
0.585
0.805
0.875
0.75
0.435
-0.045
-0.545
-1.055
-1.465
-1.67
-1.7
-1.615
-1.52
-1.44
-1.36
-1.315
-1.285
-1.275
-1.275
-1.255
-1.22
-1.185
-1.155
-1.135
-1.15
-1.155
-1.165
-1.155
-1.06
-0.955
-0.9
-0.885
-0.97
-1.07
-1.135
-1.165
-1.15
-1.155
-1.155
-1.135
-1.11
-1.09
-1.075
-1.065
-1.06
-1.055
-1.055
-1.045
-1.035
-1.035
-1.045
-1.075
-1.1
-1.1
-1.09
-1.07
-1.045
-1.02
-0.975
-0.98
-0.97
-0.98
-0.98
-0.97
-0.97
-0.97
-1.0
-0.985
-1.0
-1.015
-1.005
-1.02
-1.015
-0.995
-0.955
-0.95
-0.94
-0.935
-0.94
-0.955
-0.945
-0.93
-0.94
-0.93
-0.92
-0.905
-0.905
-0.875
-0.855
-0.805
-0.78
-0.75
-0.745
-0.765
-0.76
-0.78
-0.79
-0.765
-0.745
-0.72
-0.695
-0.705
-0.705
-0.72
-0.74
-0.75
-0.72
-0.67
-0.615
-0.595
-0.605
-0.58
-0.555
-0.545
-0.5
-0.485
-0.47
-0.46
-0.47
-0.485
-0.485
-0.47
-0.49
-0.505
-0.545
-0.585
-0.625
-0.67
-0.715
-0.76
-0.78
-0.795
-0.8
-0.805
-0.82
-0.825
-0.84
-0.865
-0.865
-0.855
-0.84
-0.815
-0.77
-0.74
-0.75
-0.755
-0.765
-0.795
-0.81
-0.835
-0.875
-0.915
-0.95
-0.98
-0.96
-0.94
-0.925
-0.905
-0.945
-0.975
-1.015
-1.045
-1.055
-1.035
-0.98
-0.93
-0.875
-0.835
-0.82
-0.82
-0.835
-0.855
-0.885
-0.895
-0.93
-0.945
-0.955
-0.965
-0.96
-0.93
-0.92
-0.895
-0.87
-0.865
-0.865
-0.89
-0.9
-0.91
-0.89
-0.88
-0.885
-0.875
-0.875
-0.86
-0.865
-0.86
-0.86
-0.865
-0.86
-0.885
-0.885
-0.885
-0.89
-0.885
-0.87
-0.86
-0.87
-0.88
-0.88
-0.88
-0.89
-0.9
-0.915
-0.93
-0.925
-0.93
-0.895
-0.895
-0.895
-0.905
-0.895
-0.91
-0.925
-0.925
-0.935
-0.945
-0.95
-0.935
-0.93
-0.93
-0.92
-0.91
-0.925
-0.935
-0.935
-0.95
-0.94
-0.935
-0.94
-0.925
-0.905
-0.905
-0.9
-0.895
-0.9
-0.905
-0.905
-0.915
-0.91
-0.925
-0.9
-0.9
-0.89
