Lead II
-0.265
-0.285
-0.3
-0.31
-0.29
-0.285
-0.28
-0.28
-0.29
-0.285
-0.28
-0.275
-0.27
-0.295
-0.295
-0.295
-0.28
-0.285
-0.285
-0.29
-0.29
-0.305
-0.29
-0.29
-0.27
-0.28
-0.305
-0.295
-0.29
-0.285
-0.27
-0.285
-0.29
-0.285
-0.28
-0.26
-0.27
-0.29
-0.3
-0.3
-0.275
-0.26
-0.255
-0.26
-0.275
-0.275
-0.255
-0.255
-0.235
-0.245
-0.25
-0.225
-0.195
-0.195
-0.205
-0.205
-0.215
-0.205
-0.195
-0.18
-0.19
-0.185
-0.2
-0.19
-0.17
-0.15
-0.15
-0.15
-0.15
-0.145
-0.12
-0.12
-0.125
-0.115
-0.12
-0.11
-0.105
-0.09
-0.105
-0.11
-0.11
-0.1
-0.085
-0.075
-0.09
-0.1
-0.1
-0.095
-0.08
-0.075
-0.06
-0.08
-0.12
-0.11
-0.105
-0.11
-0.105
-0.12
-0.13
-0.12
-0.12
-0.115
-0.105
-0.125
-0.13
-0.125
-0.125
-0.12
-0.115
-0.12
-0.135
-0.15
-0.14
-0.11
-0.115
-0.14
-0.155
-0.16
-0.16
-0.165
-0.16
-0.18
-0.185
-0.18
-0.18
-0.175
-0.19
-0.175
-0.19
-0.205
-0.215
-0.215
-0.215
-0.225
-0.235
-0.245
-0.245
-0.245
-0.24
-0.25
-0.27
-0.27
-0.27
-0.27
-0.295
-0.3
-0.305
-0.3
-0.305
-0.3
-0.31
-0.32
-0.325
-0.305
-0.29
-0.275
-0.28
-0.32
-0.315
-0.33
-0.31
-0.3
-0.3
-0.305
-0.32
-0.32
-0.315
-0.315
-0.295
-0.295
-0.31
-0.32
-0.32
-0.295
-0.315
-0.315
-0.32
-0.315
-0.31
-0.305
-0.32
-0.315
-0.32
-0.3
-0.29
-0.28
-0.285
-0.295
-0.305
-0.32
-0.305
-0.285
-0.265
-0.28
-0.305
-0.325
-0.31
-0.28
-0.255
-0.265
-0.285
-0.285
-0.265
-0.275
-0.27
-0.3
-0.305
-0.3
-0.275
-0.26
-0.265
-0.295
-0.295
-0.27
-0.26
-0.255
-0.25
-0.23
-0.23
-0.215
-0.195
-0.175
-0.18
-0.21
-0.21
-0.185
-0.135
-0.12
-0.115
-0.115
-0.09
-0.08
-0.065
-0.04
-0.04
-0.035
-0.04
-0.03
0.0
0.03
0.035
0.03
0.01
-0.005
-0.01
-0.02
-0.065
-0.12
-0.15
-0.165
-0.19
-0.225
-0.25
-0.26
-0.275
-0.26
-0.245
-0.225
-0.22
-0.225
-0.24
-0.25
-0.23
-0.22
-0.215
-0.23
-0.23
-0.23
-0.215
-0.195
-0.21
-0.215
-0.215
-0.205
-0.19
-0.185
-0.185
-0.195
-0.19
-0.18
-0.18
-0.18
-0.175
-0.16
-0.165
-0.19
-0.18
-0.185
-0.17
-0.18
-0.18
-0.2
-0.175
-0.135
-0.065
0.005
0.095
0.215
0.33
0.36
0.305
0.255
0.27
0.31
0.345
0.36
0.385
0.41
0.405
0.405
0.43
0.44
0.455
0.455
0.395
0.31
0.17
0.05
-0.07
-0.19
-0.32
-0.475
-0.58
-0.66
-0.645
-0.595
-0.53
-0.495
-0.485
-0.46
-0.415
-0.375
-0.355
-0.33
-0.305
-0.295
-0.305
-0.305
-0.28
-0.27
-0.26
-0.265
-0.28
-0.295
-0.31
-0.32
-0.3
-0.275
-0.275
-0.28
-0.285
-0.295
-0.29
-0.29
-0.295
-0.31
-0.31
-0.28
-0.285
-0.275
-0.28
-0.3
-0.31
-0.305
-0.29
-0.285
-0.28
-0.285
-0.305
-0.29
-0.295
-0.285
-0.285
-0.31
-0.31
-0.305
-0.275
-0.275
-0.27
-0.28
-0.295
-0.285
-0.28
-0.275
-0.265
-0.26
-0.27
-0.265
-0.25
-0.245
-0.235
-0.255
-0.25
-0.24
-0.225
-0.2
-0.18
-0.18
-0.2
-0.2
-0.185
-0.185
-0.18
-0.185
-0.175
-0.16
-0.155
-0.155
-0.15
-0.135
-0.12
-0.1
-0.11
-0.105
-0.105
-0.11
-0.1
-0.085
-0.065
-0.06
-0.08
-0.095
-0.1
-0.09
-0.075
-0.06
-0.055
-0.07
-0.08
-0.07
-0.08
-0.075
-0.075
-0.08
-0.09
-0.08
-0.075
-0.07
-0.08
-0.085
-0.08
-0.08
-0.08
-0.08
-0.08
-0.08
-0.095
-0.11
-0.11
-0.09
-0.095
-0.085
-0.105
-0.1
-0.085
-0.11
-0.12
-0.125
-0.13
-0.13
-0.12
-0.115
-0.115
-0.125
-0.145
-0.15
-0.14
-0.145
-0.16
-0.165
-0.165
-0.165
-0.165
-0.165
-0.165
-0.165
-0.175
-0.18
-0.18
-0.185
-0.19
-0.195
-0.205
-0.195
-0.19
-0.175
-0.175
-0.19
-0.215
-0.21
-0.2
-0.19
-0.19
-0.2
-0.21
-0.2
-0.185
-0.185
-0.185
-0.185
-0.18
-0.18
-0.19
-0.17
-0.16
-0.17
-0.18
-0.175
-0.17
-0.15
-0.135
-0.135
-0.15
-0.14
-0.13
-0.12
-0.135
-0.135
-0.15
-0.135
-0.125
-0.11
-0.11
-0.135
-0.13
-0.125
-0.13
-0.135
-0.13
-0.105
-0.115
-0.105
-0.105
-0.1
-0.105
-0.09
-0.105
-0.095
-0.09
-0.085
-0.085
-0.085
-0.08
-0.075
-0.06
-0.045
-0.025
-0.025
-0.02
-0.005
0.01
0.03
0.05
0.055
0.07
0.07
0.09
0.115
0.12
0.115
0.105
0.11
0.14
0.15
0.17
0.16
0.145
0.095
0.08
0.06
0.035
-0.005
-0.04
-0.06
-0.095
-0.11
-0.12
-0.135
-0.14
-0.14
-0.115
-0.105
-0.105
-0.115
-0.13
-0.125
-0.125
-0.105
-0.11
-0.11
-0.13
-0.12
-0.125
-0.115
-0.125
-0.12
-0.135
-0.13
-0.11
-0.105
-0.105
-0.11
-0.12
-0.12
-0.11
-0.1
-0.1
-0.11
-0.12
-0.135
-0.105
-0.11
-0.125
-0.155
-0.185
-0.165
-0.125
-0.055
0.035
0.13
0.225
0.285
0.29
0.285
0.27
0.295
0.335
0.38
0.41
0.405
0.41
0.41
0.415
0.445
0.45
0.45
0.405
0.31
0.165
0.015
-0.095
-0.2
-0.3
-0.435
-0.545
-0.595
-0.575
-0.49
-0.44
-0.395
-0.395
-0.365
-0.32
-0.275
-0.24
-0.23
-0.24
-0.23
-0.215
-0.205
-0.205
-0.2
-0.22
-0.215
-0.19
-0.19
-0.205
-0.215
-0.235
-0.235
-0.2
-0.19
-0.195
-0.195
-0.22
-0.225
-0.21
-0.21
-0.205
-0.2
-0.21
-0.225
-0.235
-0.215
-0.2
-0.215
-0.225
-0.215
-0.215
-0.2
-0.2
-0.205
-0.215
-0.225
-0.21
-0.205
-0.205
-0.215
-0.225
-0.215
-0.21
-0.195
-0.205
-0.19
-0.195
-0.19
-0.185
-0.175
-0.175
-0.185
-0.185
-0.185
-0.165
-0.155
-0.135
-0.145
-0.145
-0.145
-0.14
-0.115
-0.115
-0.105
-0.115
-0.11
-0.105
-0.09
-0.09
-0.09
-0.085
-0.08
-0.075
-0.07
-0.06
-0.065
-0.075
-0.07
-0.045
-0.035
-0.02
-0.02
-0.035
-0.05
-0.04
-0.02
-0.025
-0.035
-0.055
-0.055
-0.04
-0.03
-0.035
-0.03
-0.06
-0.055
-0.04
-0.04
-0.05
-0.05
-0.075
-0.06
-0.06
-0.05
-0.06
-0.075
-0.075
-0.075
-0.06
-0.07
-0.09
-0.095
-0.09
-0.09
-0.09
-0.09
-0.09
-0.105
-0.115
-0.11
-0.1
-0.105
-0.1
-0.125
-0.135
-0.13
-0.12
-0.13
-0.125
-0.145
-0.16
-0.155
-0.15
-0.135
-0.17
-0.18
-0.205
-0.185
-0.175
-0.165
-0.175
-0.19
-0.21
-0.2
-0.195
-0.19
-0.185
-0.195
-0.205
-0.205
-0.2
-0.19
-0.19
-0.19
-0.21
-0.22
-0.21
-0.2
-0.205
-0.195
-0.2
-0.19
-0.185
-0.185
-0.195
-0.195
-0.205
-0.195
-0.19
-0.17
-0.175
-0.19
-0.205
-0.21
-0.185
-0.17
-0.165
-0.185
-0.18
-0.18
-0.17
-0.155
-0.165
-0.17
-0.185
-0.185
-0.18
-0.165
-0.165
-0.16
-0.175
-0.175
-0.165
-0.165
-0.165
-0.17
-0.17
-0.165
-0.155
-0.145
-0.15
-0.175
-0.19
-0.175
-0.15
-0.155
-0.16
-0.185
-0.185
-0.16
-0.155
-0.14
-0.15
-0.185
-0.17
-0.175
-0.16
-0.145
-0.145
-0.145
-0.165
-0.175
-0.17
-0.15
-0.15
-0.16
-0.175
-0.155
-0.145
-0.135
-0.135
-0.145
-0.145
-0.155
-0.15
-0.145
-0.145
-0.135
-0.15
-0.135
-0.12
-0.095
-0.09
-0.095
-0.1
-0.08
-0.055
-0.055
-0.055
-0.06
-0.045
-0.02
0.005
0.02
0.035
0.035
0.03
0.035
0.045
0.055
0.06
0.07
0.08
0.09
0.095
0.08
0.05
0.03
-0.04
-0.06
-0.085
-0.105
-0.14
-0.19
-0.23
-0.23
-0.225
-0.19
-0.195
-0.2
-0.225
-0.21
-0.21
-0.2
-0.205
-0.215
-0.23
-0.23
-0.22
-0.22
-0.21
-0.22
-0.245
-0.23
-0.215
-0.215
-0.215
-0.22
-0.225
-0.23
-0.21
-0.2
-0.22
-0.23
-0.24
-0.245
-0.24
-0.24
-0.245
-0.27
-0.295
-0.29
-0.26
-0.2
-0.11
0.0
0.095
0.165
0.15
0.105
0.125
0.17
0.205
0.25
0.245
0.265
0.27
0.28
0.28
0.27
0.255
0.175
0.005
-0.17
-0.3
-0.415
-0.52
-0.625
-0.71
-0.74
-0.69
-0.595
-0.55
-0.51
-0.49
-0.44
-0.415
-0.38
-0.355
-0.34
-0.345
-0.35
-0.36
-0.36
-0.36
-0.345
-0.345
-0.35
-0.375
-0.385
-0.365
-0.36
-0.355
-0.375
-0.385
-0.38
-0.365
-0.36
-0.36
-0.38
-0.395
-0.385
-0.38
-0.37
-0.375
-0.385
-0.405
-0.39
-0.39
-0.38
-0.385
-0.385
-0.395
-0.39
-0.375
-0.36
-0.37
-0.385
-0.385
-0.375
-0.37
-0.365
-0.36
-0.365
-0.37
-0.37
-0.365
-0.355
-0.355
-0.355
-0.355
-0.355
-0.34
-0.33
-0.345
-0.33
-0.32
-0.32
-0.305
-0.295
-0.29
-0.29
-0.305
-0.295
-0.28
-0.285
-0.28
-0.27
-0.27
-0.27
-0.27
-0.275
-0.265
-0.275
-0.28
-0.27
-0.255
-0.25
-0.25
-0.25
-0.27
-0.26
-0.25
-0.24
-0.25
-0.27
-0.29
-0.29
-0.28
-0.27
-0.29
-0.305
-0.3
-0.31
-0.31
-0.31
-0.31
-0.31
-0.32
-0.31
-0.31
-0.285
-0.305
-0.315
-0.335
-0.35
-0.35
-0.35
-0.34
-0.35
-0.355
-0.37
-0.38
-0.375
-0.39
-0.38
-0.4
-0.42
-0.42
-0.4
-0.37
-0.385
-0.42
-0.435
-0.435
-0.42
-0.425
-0.435
-0.445
-0.46
-0.47
-0.475
-0.5
-0.51
-0.515
-0.495
-0.475
-0.47
-0.5
-0.53
-0.55
-0.545
-0.55
-0.53
-0.525
-0.525
-0.55
-0.56
-0.55
-0.545
-0.54
-0.55
-0.57
-0.575
-0.56
-0.545
-0.54
-0.55
-0.555
-0.54
-0.53
-0.54
-0.54
-0.545
-0.545
-0.535
-0.515
-0.52
-0.53
-0.53
-0.54
-0.525
-0.525
-0.51
-0.505
-0.515
-0.515
-0.515
-0.505
-0.495
-0.485
-0.495
-0.51
-0.525
-0.525
-0.5
-0.5
-0.495
-0.525
-0.51
-0.505
-0.485
-0.495
-0.505
-0.525
-0.535
-0.52
-0.505
-0.495
-0.505
-0.505
-0.51
-0.5
-0.49
-0.495
-0.5
-0.51
-0.51
-0.505
-0.49
-0.5
-0.5
-0.515
-0.505
-0.49
-0.485
-0.49
-0.5
-0.51
-0.495
-0.49
-0.48
-0.49
-0.495
-0.5
-0.505
-0.485
-0.485
-0.485
-0.49
-0.485
-0.49
-0.46
-0.46
-0.465
-0.475
-0.49
-0.475
-0.46
-0.44
-0.44
-0.445
-0.46
-0.425
-0.405
-0.385
-0.385
-0.4
-0.4
-0.375
-0.36
-0.34
-0.32
-0.3
-0.285
-0.265
-0.25
-0.245
-0.235
-0.23
-0.22
-0.195
-0.19
-0.175
-0.18
-0.2
-0.245
-0.285
-0.315
-0.35
-0.37
-0.42
-0.47
-0.475
-0.48
-0.46
-0.46
-0.465
-0.47
-0.455
-0.45
-0.435
-0.45
-0.465
-0.48
-0.475
-0.465
-0.46
-0.455
-0.47
-0.475
-0.46
-0.45
-0.45
-0.455
-0.465
-0.46
-0.46
-0.445
-0.44
-0.435
-0.45
-0.455
-0.455
-0.45
-0.445
-0.44
-0.445
-0.45
-0.425
-0.375
-0.28
-0.195
-0.08
0.02
0.1
0.12
0.075
0.065
0.095
0.115
0.15
0.18
0.22
0.205
0.205
0.22
0.235
0.25
0.23
0.13
-0.035
-0.215
-0.36
-0.485
-0.625
-0.76
-0.885
-0.935
-0.9
-0.82
-0.76
-0.73
-0.715
-0.695
-0.655
-0.59
-0.555
-0.545
-0.545
-0.55
-0.555
-0.55
-0.54
-0.555
-0.56
-0.56
-0.56
-0.565
-0.565
-0.555
-0.56
-0.565
-0.565
-0.56
-0.55
-0.55
-0.56
-0.58
-0.575
-0.56
-0.55
-0.56
-0.56
-0.565
-0.555
-0.545
-0.55
-0.55
-0.555
-0.565
-0.555
-0.56
-0.545
-0.545
-0.565
-0.56
-0.54
-0.525
-0.51
-0.525
-0.535
-0.54
-0.535
-0.525
-0.52
-0.51
-0.52
-0.51
-0.5
-0.48
-0.47
-0.48
-0.48
-0.485
-0.485
-0.465
-0.46
-0.45
-0.435
-0.455
-0.445
-0.43
-0.42
-0.405
-0.405
-0.41
-0.4
-0.39
-0.39
-0.38
-0.38
-0.39
-0.37
-0.35
-0.345
-0.325
-0.325
-0.335
-0.335
-0.325
-0.31
-0.305
-0.31
-0.315
-0.3
-0.28
-0.275
-0.28
-0.3
-0.3
-0.3
-0.29
-0.29
-0.29
-0.3
-0.31
-0.3
-0.29
-0.29
-0.285
-0.295
-0.305
-0.3
-0.285
-0.295
-0.31
-0.305
-0.31
-0.295
-0.3
-0.295
-0.31
-0.32
-0.33
-0.315
-0.33
-0.315
-0.325
-0.33
-0.345
-0.34
-0.33
-0.34
-0.34
-0.345
-0.36
-0.36
-0.355
-0.355
-0.365
-0.385
-0.39
-0.395
-0.395
-0.39
-0.385
-0.41
-0.415
-0.42
-0.41
-0.405
-0.41
-0.43
-0.445
-0.44
-0.445
-0.425
-0.42
-0.44
-0.45
-0.46
-0.445
-0.445
-0.435
-0.435
-0.45
-0.435
-0.43
-0.42
-0.425
-0.44
-0.44
-0.425
-0.42
-0.405
-0.41
-0.42
-0.425
-0.42
-0.415
-0.4
-0.405
-0.4
-0.42
-0.405
-0.41
-0.39
-0.395
-0.395
-0.4
-0.41
-0.4
-0.385
-0.365
-0.37
-0.39
-0.395
-0.385
-0.375
-0.365
-0.38
-0.395
-0.395
-0.375
-0.36
-0.37
-0.385
-0.395
-0.385
-0.37
-0.36
-0.365
-0.37
-0.39
-0.375
-0.37
-0.365
-0.355
-0.37
-0.365
-0.365
-0.35
-0.34
-0.335
-0.335
-0.34
-0.32
-0.32
-0.295
-0.295
-0.285
-0.29
-0.265
-0.235
-0.205
-0.19
-0.175
-0.17
-0.155
-0.145
-0.13
-0.14
-0.145
-0.13
-0.11
-0.11
-0.125
-0.16
-0.2
-0.255
-0.285
-0.3
-0.32
-0.36
-0.4
-0.415
-0.4
-0.385
-0.375
-0.39
-0.385
-0.395
-0.39
-0.385
-0.39
-0.395
-0.4
-0.395
-0.4
-0.39
-0.38
-0.38
-0.37
-0.39
-0.38
-0.37
-0.36
-0.355
-0.37
-0.39
-0.385
-0.385
-0.37
-0.37
-0.385
-0.395
-0.39
-0.385
-0.38
-0.385
-0.375
-0.32
-0.215
-0.09
0.05
0.13
0.12
0.06
0.065
0.135
0.2
0.21
0.215
0.195
0.23
0.255
0.275
0.27
0.24
0.125
-0.04
-0.2
-0.34
-0.465
-0.6
-0.735
-0.81
-0.835
-0.795
-0.725
-0.675
-0.66
-0.625
-0.59
-0.545
-0.5
-0.5
-0.49
-0.46
-0.455
-0.455
-0.475
-0.48
-0.46
-0.455
-0.46
-0.46
-0.46
-0.46
-0.47
-0.465
-0.455
-0.455
-0.465
-0.465
-0.475
-0.48
-0.49
-0.47
-0.47
-0.47
-0.475
-0.465
-0.465
-0.46
-0.465
-0.475
-0.485
-0.485
-0.47
-0.46
-0.46
-0.475
-0.475
-0.46
-0.455
-0.445
-0.45
-0.445
-0.45
-0.455
-0.44
-0.435
-0.435
-0.43
-0.43
-0.42
-0.415
-0.41
-0.415
-0.41
-0.425
-0.4
-0.385
-0.375
-0.375
-0.38
-0.385
-0.375
-0.36
-0.35
-0.345
-0.355
-0.355
-0.345
-0.33
-0.305
-0.305
-0.305
-0.305
-0.305
-0.29
-0.295
-0.285
-0.285
-0.29
-0.27
-0.26
-0.26
-0.26
-0.265
-0.275
-0.265
-0.26
-0.245
-0.245
-0.24
-0.25
-0.245
-0.245
-0.235
-0.245
-0.255
-0.27
-0.265
-0.255
-0.225
-0.23
-0.25
-0.27
-0.255
-0.265
-0.245
-0.25
-0.255
-0.27
-0.285
-0.28
-0.265
-0.275
-0.27
-0.295
-0.3
-0.28
-0.285
-0.3
-0.305
-0.31
-0.305
-0.3
-0.28
-0.305
-0.305
-0.325
-0.34
-0.335
-0.325
-0.325
-0.33
-0.355
-0.35
-0.355
-0.345
-0.35
-0.36
-0.375
-0.375
-0.38
-0.39
-0.375
-0.375
-0.4
-0.395
-0.395
-0.385
-0.39
-0.385
-0.41
-0.405
-0.4
-0.385
-0.375
-0.39
-0.41
-0.395
-0.38
-0.39
-0.37
-0.395
-0.4
-0.385
-0.375
-0.36
-0.36
-0.375
-0.385
-0.385
-0.38
-0.375
-0.38
-0.365
-0.375
-0.355
-0.355
-0.35
-0.345
-0.345
-0.355
-0.35
-0.34
-0.33
-0.335
-0.335
-0.335
-0.345
-0.34
-0.335
-0.315
-0.33
-0.33
-0.34
-0.33
-0.31
-0.32
-0.315
-0.345
-0.34
-0.325
-0.32
-0.315
-0.315
-0.325
-0.33
-0.315
-0.315
-0.32
-0.335
-0.345
-0.335
-0.32
-0.315
-0.315
-0.325
-0.325
-0.32
-0.31
-0.32
-0.32
-0.32
-0.335
-0.335
-0.32
-0.305
-0.31
-0.31
-0.32
-0.31
-0.315
-0.3
-0.3
-0.3
-0.315
-0.3
-0.295
-0.295
-0.3
-0.305
-0.32
-0.32
-0.295
-0.29
-0.295
-0.305
-0.29
-0.28
-0.255
-0.235
-0.23
-0.245
-0.24
-0.215
-0.215
-0.19
-0.165
-0.16
-0.145
-0.14
-0.125
-0.125
-0.115
-0.115
-0.105
-0.1
-0.055
-0.045
-0.045
-0.09
-0.125
-0.145
-0.18
-0.205
-0.245
-0.3
-0.35
-0.355
-0.345
-0.335
-0.345
-0.355
-0.34
-0.33
-0.345
-0.335
-0.33
-0.34
-0.345
-0.34
-0.33
-0.33
-0.34
-0.34
-0.345
-0.345
-0.32
-0.315
-0.315
-0.31
-0.335
-0.335
-0.33
-0.32
-0.325
-0.33
-0.335
-0.33
-0.33
-0.325
-0.32
-0.335
-0.355
-0.37
-0.355
-0.295
-0.205
-0.11
0.0
0.08
0.105
0.075
0.06
0.095
0.12
0.175
0.195
0.205
0.22
0.23
0.215
0.215
0.225
0.195
0.06
-0.105
-0.245
-0.36
-0.46
-0.575
-0.69
-0.78
-0.815
-0.765
-0.7
-0.65
-0.625
-0.6
-0.565
-0.515
-0.46
-0.445
-0.435
-0.435
-0.45
-0.45
-0.44
-0.44
-0.44
-0.435
-0.445
-0.44
-0.42
-0.43
-0.44
-0.455
-0.465
-0.45
-0.44
-0.43
-0.44
-0.44
-0.47
-0.465
-0.455
-0.445
-0.45
-0.46
-0.475
-0.46
-0.44
-0.45
-0.445
-0.455
-0.465
-0.455
-0.435
-0.465
-0.46
-0.455
-0.45
-0.445
-0.425
-0.435
-0.43
-0.45
-0.445
-0.435
-0.415
-0.39
-0.395
-0.4
-0.42
-0.415
-0.4
-0.385
-0.39
-0.395
-0.39
-0.365
-0.36
-0.355
-0.34
-0.335
-0.34
-0.33
-0.32
-0.325
-0.32
-0.32
-0.33
-0.32
-0.3
-0.285
-0.29
-0.29
-0.3
-0.285
-0.26
-0.255
-0.255
-0.265
-0.27
-0.26
-0.235
-0.235
-0.24
-0.255
-0.255
-0.24
-0.235
-0.225
-0.23
-0.24
-0.25
-0.225
-0.215
-0.215
-0.225
-0.235
-0.25
-0.255
-0.245
-0.24
-0.245
-0.245
-0.27
-0.265
-0.255
-0.25
-0.265
-0.28
-0.275
-0.26
-0.26
-0.255
-0.275
-0.29
-0.31
-0.305
-0.3
-0.3
-0.295
-0.295
-0.295
-0.31
-0.295
-0.29
-0.285
-0.31
-0.34
-0.36
-0.365
-0.325
-0.29
-0.31
-0.325
-0.33
-0.33
-0.33
-0.345
-0.355
-0.37
-0.37
-0.375
-0.37
-0.385
-0.395
-0.4
-0.39
-0.395
-0.375
-0.39
-0.405
-0.42
-0.425
-0.425
-0.405
-0.4
-0.41
-0.435
-0.455
-0.435
-0.42
-0.41
-0.42
-0.43
-0.43
-0.425
-0.425
-0.4
-0.395
-0.4
-0.405
-0.39
-0.385
-0.375
-0.385
-0.385
-0.39
-0.38
-0.355
-0.375
-0.375
-0.385
-0.39
-0.39
-0.37
-0.355
-0.36
-0.355
-0.35
-0.345
-0.33
-0.34
-0.35
-0.36
-0.365
-0.345
-0.33
-0.33
-0.335
-0.35
-0.345
-0.35
-0.325
-0.345
-0.34
-0.345
-0.34
-0.335
-0.33
-0.345
-0.345
-0.355
-0.33
-0.325
-0.325
-0.315
-0.325
-0.34
-0.335
-0.32
-0.31
-0.32
-0.335
-0.34
-0.33
-0.315
-0.32
-0.32
-0.33
-0.335
-0.325
-0.315
-0.305
-0.32
-0.32
-0.325
-0.32
-0.305
-0.305
-0.33
-0.32
-0.32
-0.31
-0.31
-0.31
-0.305
-0.3
-0.285
-0.26
-0.26
-0.25
-0.245
-0.235
-0.23
-0.21
-0.19
-0.165
-0.16
-0.155
-0.155
-0.135
-0.11
-0.095
-0.1
-0.105
-0.105
-0.075
-0.05
-0.04
-0.045
-0.075
-0.115
-0.14
-0.165
-0.195
-0.21
-0.255
-0.305
-0.335
-0.36
-0.355
-0.35
-0.36
-0.355
-0.345
-0.335
-0.325
-0.325
-0.355
-0.365
-0.355
-0.34
-0.335
-0.35
-0.345
-0.365
-0.35
-0.335
-0.345
-0.345
-0.345
-0.345
-0.33
-0.33
-0.345
-0.36
-0.355
-0.365
-0.365
-0.355
-0.34
-0.33
-0.34
-0.355
-0.355
-0.36
-0.37
-0.375
-0.395
-0.405
-0.39
-0.35
-0.305
-0.23
-0.145
-0.075
0.015
0.095
0.12
0.095
0.09
0.1
0.125
0.135
0.15
0.16
0.17
0.16
0.18
0.185
0.175
0.165
0.165
0.125
0.02
-0.1
-0.2
-0.285
-0.395
-0.53
-0.665
-0.75
-0.795
-0.825
-0.805
-0.765
-0.69
-0.615
-0.595
-0.59
-0.58
-0.53
-0.485
-0.455
-0.45
-0.455
-0.46
-0.46
-0.46
-0.445
-0.425
-0.42
-0.445
-0.455
-0.445
-0.445
-0.46
-0.45
-0.44
-0.45
-0.465
-0.475
-0.475
-0.47
-0.45
-0.46
-0.465
-0.465
-0.47
-0.495
-0.5
-0.495
-0.49
-0.475
-0.455
-0.47
-0.49
-0.495
-0.505
-0.51
-0.485
-0.48
-0.485
-0.495
-0.5
-0.49
-0.485
-0.49
-0.495
-0.505
-0.5
-0.485
-0.48
-0.48
-0.475
-0.48
-0.475
-0.47
-0.465
-0.465
-0.455
-0.455
-0.455
-0.45
-0.445
-0.45
-0.445
-0.45
-0.455
-0.44
-0.435
-0.405
-0.405
-0.415
-0.415
-0.395
-0.385
-0.385
-0.385
-0.38
-0.37
-0.365
-0.35
-0.35
-0.34
-0.365
-0.35
-0.315
-0.305
-0.305
-0.3
-0.305
-0.31
-0.29
-0.275
-0.27
-0.27
-0.285
-0.285
-0.28
-0.265
-0.265
-0.28
-0.29
-0.295
-0.29
-0.28
-0.275
-0.285
-0.305
-0.305
-0.3
-0.295
-0.315
-0.32
-0.335
-0.33
-0.32
-0.315
-0.32
-0.34
-0.35
-0.325
-0.325
-0.305
-0.32
-0.33
-0.345
-0.34
-0.33
-0.335
-0.35
-0.35
-0.355
-0.35
-0.355
-0.365
-0.36
-0.38
-0.385
-0.38
-0.365
-0.365
-0.37
-0.39
-0.395
-0.39
-0.395
-0.385
-0.39
-0.385
-0.41
-0.4
-0.4
-0.405
-0.41
-0.43
-0.425
-0.425
-0.405
-0.41
-0.41
-0.425
-0.46
-0.455
-0.425
-0.415
-0.42
-0.435
-0.455
-0.44
-0.43
-0.41
-0.425
-0.435
-0.435
-0.43
-0.415
-0.42
-0.42
-0.425
-0.425
-0.425
-0.395
-0.405
-0.405
-0.4
-0.415
-0.415
-0.4
-0.405
-0.395
-0.395
-0.415
-0.4
-0.385
-0.38
-0.385
-0.39
-0.4
-0.39
-0.37
-0.355
-0.355
-0.365
-0.37
-0.375
-0.36
-0.36
-0.355
-0.36
-0.37
-0.35
-0.345
-0.355
-0.335
-0.345
-0.345
-0.335
-0.335
-0.345
-0.35
-0.34
-0.355
-0.345
-0.335
-0.32
-0.33
-0.335
-0.35
-0.33
-0.32
-0.32
-0.32
-0.335
-0.345
-0.325
-0.305
-0.31
-0.31
-0.325
-0.325
-0.33
-0.315
-0.31
-0.31
-0.305
-0.305
-0.315
-0.315
-0.31
-0.3
-0.295
-0.295
-0.29
-0.28
-0.26
-0.26
-0.28
-0.285
-0.265
-0.25
-0.22
-0.22
-0.205
-0.2
-0.18
-0.16
-0.14
-0.135
-0.115
-0.115
-0.095
-0.075
-0.06
-0.05
-0.05
-0.055
-0.045
-0.04
-0.05
-0.09
-0.13
-0.195
-0.22
-0.235
-0.255
-0.295
-0.335
-0.365
-0.355
-0.335
-0.32
-0.33
-0.34
-0.345
-0.335
-0.33
-0.335
-0.335
-0.36
-0.36
-0.345
-0.325
-0.33
-0.34
-0.335
-0.35
-0.34
-0.34
-0.335
-0.34
-0.345
-0.335
-0.335
-0.315
-0.32
-0.325
-0.33
-0.33
-0.32
-0.3
-0.31
-0.32
-0.335
-0.335
-0.325
-0.315
-0.31
-0.295
-0.245
-0.175
-0.07
0.06
0.16
0.24
0.26
0.215
0.195
0.25
0.295
0.325
0.345
0.345
0.35
0.36
0.385
0.4
0.405
0.385
0.35
0.245
0.095
-0.055
-0.17
-0.3
-0.425
-0.545
-0.65
-0.735
-0.8
-0.785
-0.725
-0.66
-0.615
-0.605
-0.595
-0.57
-0.535
-0.475
-0.44
-0.43
-0.435
-0.43
-0.425
-0.43
-0.43
-0.425
-0.42
-0.415
-0.4
-0.4
-0.41
-0.41
-0.435
-0.43
-0.425
-0.4
-0.42
-0.42
-0.43
-0.44
-0.415
-0.415
-0.425
-0.435
-0.435
-0.44
-0.425
-0.415
-0.41
-0.42
-0.42
-0.435
-0.42
-0.42
-0.41
-0.42
-0.415
-0.425
-0.44
-0.415
-0.425
-0.425
-0.43
-0.445
-0.435
-0.415
-0.4
-0.395
-0.41
-0.41
-0.395
-0.395
-0.385
-0.385
-0.395
-0.385
-0.37
-0.365
-0.35
-0.36
-0.37
-0.37
-0.35
-0.34
-0.325
-0.325
-0.325
-0.335
-0.32
-0.31
-0.305
-0.295
-0.285
-0.295
-0.29
-0.26
-0.265
-0.255
-0.25
-0.24
-0.22
-0.22
-0.215
-0.22
-0.23
-0.22
-0.205
-0.205
-0.19
-0.185
-0.185
-0.185
-0.18
-0.17
-0.175
-0.175
-0.19
-0.195
-0.195
-0.185
-0.17
-0.18
-0.185
-0.195
-0.2
-0.19
-0.19
-0.2
-0.205
-0.22
-0.2
-0.185
-0.19
-0.2
-0.195
-0.215
-0.2
-0.2
-0.215
-0.21
-0.235
-0.225
-0.225
-0.215
-0.21
-0.23
-0.25
-0.26
-0.26
-0.245
-0.235
-0.235
-0.245
-0.27
-0.265
-0.255
-0.265
-0.27
-0.275
-0.29
-0.285
-0.29
-0.295
-0.295
-0.31
-0.33
-0.32
-0.305
-0.315
-0.315
-0.32
-0.325
-0.33
-0.325
-0.32
-0.33
-0.35
-0.345
-0.34
-0.34
-0.325
-0.325
-0.335
-0.33
-0.325
-0.315
-0.31
-0.3
-0.295
-0.305
-0.31
-0.3
-0.295
-0.29
-0.3
-0.3
-0.295
-0.285
-0.275
-0.275
-0.27
-0.28
-0.275
-0.275
-0.27
-0.265
-0.265
-0.27
-0.265
-0.255
-0.235
-0.26
-0.265
-0.265
-0.25
-0.235
-0.245
-0.225
-0.225
-0.24
-0.23
-0.215
-0.22
-0.215
-0.235
-0.23
-0.225
-0.225
-0.22
-0.225
-0.235
-0.24
-0.22
-0.22
-0.21
-0.215
-0.225
-0.22
-0.22
-0.21
-0.205
-0.21
-0.22
-0.225
-0.21
-0.22
-0.205
-0.195
-0.185
-0.17
-0.16
-0.14
-0.145
-0.145
-0.145
-0.14
-0.12
-0.1
-0.075
-0.07
-0.055
-0.04
-0.025
-0.005
0.0
-0.005
0.0
0.005
0.025
0.035
0.04
0.025
0.01
-0.02
-0.04
-0.07
-0.105
-0.145
-0.175
-0.21
-0.25
-0.245
-0.265
-0.26
-0.265
-0.265
-0.25
-0.25
-0.255
-0.26
-0.275
-0.27
-0.26
-0.25
-0.24
-0.25
-0.26
-0.265
-0.255
-0.245
-0.235
-0.235
-0.235
-0.245
-0.25
-0.24
-0.24
-0.24
-0.245
-0.25
-0.225
-0.21
-0.21
-0.22
-0.25
-0.26
-0.25
-0.23
-0.245
-0.255
-0.28
-0.24
-0.14
-0.025
0.08
0.185
0.275
0.27
0.25
0.265
0.34
0.375
0.39
0.39
0.405
0.415
0.45
0.49
0.485
0.455
0.44
0.375
0.215
0.03
-0.095
-0.215
-0.335
-0.47
-0.6
-0.695
-0.72
-0.68
-0.595
-0.53
-0.525
-0.515
-0.48
-0.44
-0.385
-0.365
-0.335
-0.34
-0.365
-0.365
-0.345
-0.345
-0.33
-0.33
-0.33
-0.34
-0.325
-0.335
-0.33
-0.34
-0.35
-0.355
-0.335
-0.325
-0.34
-0.34
-0.34
-0.355
-0.35
-0.34
-0.34
-0.34
-0.34
-0.355
-0.335
-0.345
-0.33
-0.345
-0.36
-0.35
-0.345
-0.325
-0.325
-0.325
-0.345
-0.355
-0.35
-0.325
-0.325
-0.32
-0.325
-0.32
-0.305
-0.3
-0.295
-0.305
-0.3
-0.295
-0.275
-0.27
-0.27
-0.28
-0.28
-0.275
-0.26
-0.25
-0.245
-0.245
-0.24
-0.21
-0.195
-0.195
-0.195
-0.2
-0.2
-0.205
-0.185
-0.165
-0.155
-0.155
-0.17
-0.155
-0.135
-0.11
-0.1
-0.115
-0.115
-0.12
-0.1
-0.1
-0.105
-0.11
-0.11
-0.1
-0.085
-0.085
-0.1
-0.115
-0.11
-0.115
-0.1
-0.085
-0.085
-0.095
-0.105
-0.115
-0.105
-0.105
-0.105
-0.115
-0.125
-0.135
-0.125
-0.13
-0.125
-0.125
-0.13
-0.135
-0.13
-0.115
-0.12
-0.13
-0.15
-0.16
-0.145
-0.125
-0.13
-0.145
-0.15
-0.17
-0.165
-0.165
-0.16
-0.175
-0.195
-0.2
-0.2
-0.18
-0.175
-0.185
-0.21
-0.225
-0.21
-0.215
-0.21
-0.21
-0.23
-0.245
-0.235
-0.23
-0.23
-0.24
-0.255
-0.26
-0.25
-0.25
-0.245
-0.255
-0.275
-0.285
-0.265
-0.255
-0.245
-0.235
-0.245
-0.26
-0.27
-0.26
-0.24
-0.23
-0.235
-0.25
-0.24
-0.235
-0.215
-0.215
-0.215
-0.24
-0.22
-0.22
-0.21
-0.205
-0.21
-0.205
-0.2
-0.19
-0.18
-0.205
-0.215
-0.22
-0.195
-0.195
-0.2
-0.195
-0.19
-0.205
-0.2
-0.185
-0.175
-0.185
-0.19
-0.205
-0.18
-0.17
-0.175
-0.175
-0.185
-0.195
-0.18
-0.165
-0.165
-0.155
-0.175
-0.19
-0.185
-0.175
-0.165
-0.175
-0.175
-0.19
-0.175
-0.155
-0.145
-0.155
-0.175
-0.195
-0.175
-0.15
-0.135
-0.145
-0.15
-0.16
-0.16
-0.145
-0.145
-0.15
-0.165
-0.175
-0.16
-0.145
-0.15
-0.165
-0.145
-0.15
-0.13
-0.125
-0.105
-0.085
-0.08
-0.08
-0.055
-0.065
-0.07
-0.07
-0.07
-0.06
-0.015
0.025
0.025
0.035
0.035
0.025
0.04
0.06
0.075
0.085
0.06
0.045
0.035
0.02
-0.005
-0.045
-0.08
-0.11
-0.145
-0.195
-0.245
-0.245
-0.235
-0.23
-0.21
-0.2
-0.225
-0.235
-0.235
-0.24
-0.22
-0.2
-0.19
-0.21
-0.225
-0.23
-0.225
-0.215
-0.21
-0.22
-0.23
-0.235
-0.21
-0.19
-0.19
-0.175
-0.2
-0.21
-0.19
-0.18
-0.205
-0.215
-0.215
-0.225
-0.22
-0.21
-0.185
-0.145
-0.07
0.05
0.21
0.35
0.4
0.36
0.32
0.35
0.395
0.445
0.45
0.43
0.425
0.46
0.51
0.53
0.51
0.415
0.255
0.085
-0.05
-0.15
-0.275
-0.435
-0.595
-0.69
-0.675
-0.595
-0.53
-0.51
-0.52
-0.505
-0.44
-0.395
-0.385
-0.39
-0.39
-0.385
-0.37
-0.355
-0.375
-0.38
-0.375
-0.385
-0.375
-0.39
-0.385
-0.385
-0.395
-0.4
-0.395
-0.39
-0.385
-0.385
-0.4
-0.41
-0.405
-0.405
-0.4
-0.4
-0.41
-0.42
-0.41
-0.4
-0.39
-0.39
-0.395
-0.4
-0.395
-0.38
-0.38
-0.39
-0.395
-0.4
-0.385
-0.37
-0.355
-0.365
-0.375
-0.37
-0.36
-0.34
-0.335
-0.35
-0.35
-0.34
-0.32
-0.31
-0.305
-0.305
-0.3
-0.3
-0.28
-0.265
-0.26
-0.26
-0.255
-0.25
-0.245
-0.23
-0.23
-0.22
-0.22
-0.22
-0.21
-0.2
-0.18
-0.185
-0.185
-0.18
-0.17
-0.16
-0.145
-0.14
-0.14
-0.155
-0.14
-0.125
-0.11
-0.11
-0.115
-0.13
-0.115
-0.115
-0.11
-0.105
-0.125
-0.125
-0.12
-0.105
-0.095
-0.11
-0.135
-0.135
-0.125
-0.105
-0.115
-0.125
-0.135
-0.13
-0.115
-0.1
-0.1
-0.125
-0.135
-0.135
-0.12
-0.12
-0.125
-0.13
-0.135
-0.14
-0.135
-0.125
-0.14
-0.145
-0.155
-0.16
-0.145
-0.13
-0.15
-0.15
-0.17
-0.16
-0.155
-0.15
-0.17
-0.18
-0.185
-0.185
-0.18
-0.185
-0.18
-0.19
-0.195
-0.21
-0.215
-0.195
-0.2
-0.215
-0.23
-0.22
-0.23
-0.205
-0.21
-0.22
-0.225
-0.235
-0.22
-0.205
-0.21
