Lead II
-0.815
-0.81
-0.82
-0.825
-0.83
-0.825
-0.815
-0.815
-0.795
-0.785
-0.795
-0.8
-0.82
-0.825
-0.84
-0.855
-0.87
-0.855
-0.84
-0.835
-0.83
-0.825
-0.85
-0.825
-0.845
-0.85
-0.865
-0.865
-0.86
-0.855
-0.875
-0.84
-0.825
-0.84
-0.845
-0.835
-0.845
-0.86
-0.87
-0.875
-0.88
-0.855
-0.85
-0.84
-0.83
-0.83
-0.82
-0.84
-0.845
-0.855
-0.855
-0.87
-0.87
-0.87
-0.855
-0.845
-0.845
-0.86
-0.855
-0.86
-0.855
-0.86
-0.87
-0.875
-0.875
-0.875
-0.865
-0.855
-0.84
-0.84
-0.85
-0.855
-0.87
-0.87
-0.865
-0.88
-0.875
-0.87
-0.86
-0.855
-0.85
-0.84
-0.855
-0.855
-0.865
-0.875
-0.885
-0.905
-0.9
-0.895
-0.875
-0.865
-0.855
-0.85
-0.85
-0.85
-0.86
-0.86
-0.875
-0.875
-0.895
-0.88
-0.88
-0.86
-0.85
-0.84
-0.84
-0.85
-0.86
-0.875
-0.875
-0.87
-0.875
-0.875
-0.865
-0.86
-0.845
-0.84
-0.84
-0.845
-0.865
-0.87
-0.885
-0.89
-0.89
-0.875
-0.865
-0.85
-0.86
-0.85
-0.855
-0.85
-0.86
-0.855
-0.875
-0.875
-0.89
-0.875
-0.87
-0.85
-0.85
-0.835
-0.845
-0.84
-0.85
-0.87
-0.87
-0.88
-0.885
-0.875
-0.87
-0.86
-0.85
-0.85
-0.85
-0.845
-0.85
-0.875
-0.87
-0.89
-0.885
-0.87
-0.865
-0.855
-0.83
-0.83
-0.82
-0.82
-0.82
-0.825
-0.835
-0.815
-0.795
-0.785
-0.755
-0.74
-0.72
-0.725
-0.735
-0.725
-0.705
-0.695
-0.675
-0.665
-0.655
-0.655
-0.65
-0.655
-0.66
-0.665
-0.675
-0.695
-0.73
-0.715
-0.725
-0.73
-0.735
-0.73
-0.735
-0.75
-0.755
-0.78
-0.8
-0.83
-0.865
-0.895
-0.92
-0.925
-0.925
-0.92
-0.925
-0.905
-0.9
-0.9
-0.9
-0.9
-0.925
-0.935
-0.925
-0.945
-0.935
-0.94
-0.94
-0.925
-0.92
-0.92
-0.92
-0.93
-0.925
-0.93
-0.925
-0.95
-0.95
-0.94
-0.925
-0.905
-0.89
-0.89
-0.89
-0.89
-0.89
-0.9
-0.895
-0.89
-0.88
-0.875
-0.855
-0.825
-0.81
-0.775
-0.72
-0.6
-0.43
-0.21
0.04
0.325
0.595
0.885
1.15
1.345
1.385
1.215
0.84
0.275
-0.36
-0.945
-1.415
-1.625
-1.605
-1.43
-1.22
-1.04
-0.94
-0.905
-0.905
-0.925
-0.94
-0.94
-0.93
-0.92
-0.915
-0.9
-0.885
-0.885
-0.88
-0.875
-0.885
-0.885
-0.9
-0.9
-0.9
-0.91
-0.905
-0.91
-0.905
-0.895
-0.885
-0.885
-0.91
-0.885
-0.905
-0.905
-0.915
-0.91
-0.915
-0.905
-0.9
-0.89
-0.88
-0.88
-0.88
-0.895
-0.905
-0.925
-0.91
-0.91
-0.91
-0.9
-0.895
-0.88
-0.885
-0.885
-0.88
-0.885
-0.875
-0.89
-0.89
-0.89
-0.875
-0.87
-0.87
-0.845
-0.835
-0.815
-0.83
-0.825
-0.825
-0.825
-0.815
-0.815
-0.815
-0.8
-0.785
-0.775
-0.75
-0.745
-0.74
-0.74
-0.735
-0.72
-0.72
-0.72
-0.7
-0.69
-0.655
-0.635
-0.61
-0.585
-0.575
-0.565
-0.555
-0.545
-0.54
-0.52
-0.515
-0.495
-0.47
-0.45
-0.445
-0.435
-0.4
-0.39
-0.4
-0.41
-0.41
-0.425
-0.43
-0.43
-0.445
-0.445
-0.445
-0.455
-0.485
-0.52
-0.55
-0.585
-0.63
-0.65
-0.67
-0.69
-0.7
-0.715
-0.715
-0.735
-0.745
-0.755
-0.785
-0.8
-0.81
-0.82
-0.835
-0.835
-0.825
-0.825
-0.82
-0.83
-0.81
-0.815
-0.83
-0.845
-0.86
-0.855
-0.86
-0.85
-0.85
-0.845
-0.845
-0.83
-0.835
-0.835
-0.84
-0.84
-0.86
-0.855
-0.865
-0.85
-0.845
-0.83
-0.835
-0.805
-0.82
-0.82
-0.815
-0.835
-0.845
-0.855
-0.845
-0.865
-0.85
-0.835
-0.825
-0.84
-0.83
-0.82
-0.82
-0.82
-0.835
-0.84
-0.855
-0.84
-0.835
-0.83
-0.83
-0.81
-0.815
-0.815
-0.82
-0.845
-0.85
-0.855
-0.86
-0.865
-0.86
-0.86
-0.84
-0.835
-0.85
-0.845
-0.86
-0.87
-0.865
-0.89
-0.89
-0.88
-0.885
-0.88
-0.865
-0.87
-0.88
-0.88
-0.885
-0.895
-0.915
-0.92
-0.92
-0.92
-0.925
-0.905
-0.92
-0.895
-0.895
-0.895
-0.905
-0.925
-0.92
-0.925
-0.935
-0.94
-0.925
-0.91
-0.91
-0.895
-0.905
-0.905
-0.925
-0.945
-0.95
-0.945
-0.95
-0.965
-0.945
-0.94
-0.94
-0.93
-0.93
-0.915
-0.935
-0.945
-0.96
-0.96
-0.97
-0.97
-0.955
-0.935
-0.93
-0.915
-0.92
-0.92
-0.935
-0.94
-0.935
-0.965
-0.95
-0.945
-0.955
-0.935
-0.915
-0.93
-0.92
-0.92
-0.94
-0.945
-0.955
-0.96
-0.96
-0.95
-0.95
-0.93
-0.92
-0.935
-0.925
-0.925
-0.925
-0.93
-0.95
-0.945
-0.955
-0.96
-0.955
-0.94
-0.94
-0.92
-0.93
-0.92
-0.945
-0.95
-0.955
-0.95
-0.95
-0.98
-0.95
-0.96
-0.93
-0.93
-0.935
-0.935
-0.935
-0.945
-0.96
-0.96
-0.965
-0.955
-0.955
-0.94
-0.945
-0.925
-0.925
-0.93
-0.93
-0.94
-0.945
-0.965
-0.975
-0.955
-0.955
-0.95
-0.93
-0.92
-0.92
-0.925
-0.935
-0.955
-0.95
-0.95
-0.95
-0.955
-0.95
-0.925
-0.925
-0.92
-0.93
-0.94
-0.935
-0.945
-0.95
-0.955
-0.96
-0.95
-0.945
-0.94
-0.92
-0.92
-0.92
-0.92
-0.925
-0.93
-0.935
-0.95
-0.945
-0.945
-0.945
-0.92
-0.9
-0.915
-0.92
-0.92
-0.92
-0.93
-0.94
-0.935
-0.945
-0.945
-0.935
-0.94
-0.925
-0.91
-0.91
-0.925
-0.92
-0.93
-0.94
-0.96
-0.96
-0.94
-0.935
-0.935
-0.925
-0.915
-0.91
-0.9
-0.905
-0.9
-0.89
-0.88
-0.875
-0.87
-0.85
-0.835
-0.82
-0.805
-0.81
-0.815
-0.795
-0.795
-0.775
-0.765
-0.745
-0.72
-0.72
-0.71
-0.74
-0.72
-0.74
-0.75
-0.77
-0.785
-0.8
-0.8
-0.795
-0.81
-0.805
-0.82
-0.835
-0.85
-0.885
-0.91
-0.94
-0.955
-0.975
-0.995
-1.005
-0.99
-0.995
-0.98
-0.98
-0.975
-0.985
-1.0
-0.99
-1.005
-1.0
-1.0
-1.01
-1.0
-0.99
-0.99
-0.965
-0.945
-0.965
-0.955
-0.955
-0.98
-0.99
-1.0
-0.995
-0.99
-0.98
-0.96
-0.955
-0.945
-0.955
-0.96
-0.95
-0.96
-0.95
-0.955
-0.945
-0.935
-0.925
-0.895
-0.885
-0.85
-0.835
-0.79
-0.675
-0.485
-0.285
-0.035
0.23
0.525
0.815
1.055
1.155
1.06
0.765
0.285
-0.295
-0.855
-1.31
-1.59
-1.68
-1.61
-1.455
-1.285
-1.165
-1.085
-1.07
-1.045
-1.035
-1.04
-1.005
-0.97
-0.955
-0.95
-0.95
-0.945
-0.94
-0.95
-0.955
-0.955
-0.955
-0.965
-0.975
-0.975
-0.965
-0.955
-0.94
-0.945
-0.93
-0.93
-0.925
-0.93
-0.93
-0.95
-0.94
-0.965
-0.96
-0.955
-0.95
-0.94
-0.945
-0.925
-0.915
-0.92
-0.92
-0.94
-0.95
-0.94
-0.95
-0.94
-0.94
-0.935
-0.92
-0.91
-0.895
-0.895
-0.9
-0.91
-0.91
-0.915
-0.93
-0.92
-0.9
-0.89
-0.88
-0.865
-0.865
-0.855
-0.855
-0.855
-0.855
-0.85
-0.84
-0.84
-0.825
-0.8
-0.79
-0.77
-0.76
-0.76
-0.74
-0.74
-0.735
-0.745
-0.73
-0.715
-0.69
-0.66
-0.635
-0.615
-0.62
-0.625
-0.605
-0.605
-0.595
-0.595
-0.58
-0.56
-0.55
-0.54
-0.515
-0.495
-0.47
-0.485
-0.48
-0.495
-0.51
-0.495
-0.505
-0.52
-0.515
-0.535
-0.545
-0.56
-0.57
-0.585
-0.62
-0.65
-0.685
-0.695
-0.72
-0.75
-0.745
-0.755
-0.76
-0.755
-0.775
-0.785
-0.81
-0.825
-0.835
-0.845
-0.855
-0.865
-0.89
-0.87
-0.855
-0.845
-0.855
-0.86
-0.87
-0.865
-0.885
-0.9
-0.9
-0.895
-0.89
-0.88
-0.88
-0.875
-0.875
-0.87
-0.875
-0.89
-0.9
-0.885
-0.89
-0.895
-0.88
-0.87
-0.865
-0.87
-0.84
-0.865
-0.87
-0.87
-0.875
-0.86
-0.86
-0.865
-0.86
-0.845
-0.83
-0.825
-0.83
-0.83
-0.83
-0.855
-0.855
-0.86
-0.85
-0.87
-0.865
-0.85
-0.84
-0.835
-0.84
-0.835
-0.84
-0.85
-0.87
-0.885
-0.88
-0.895
-0.875
-0.865
-0.87
-0.85
-0.855
-0.865
-0.87
-0.895
-0.91
-0.905
-0.925
-0.905
-0.91
-0.905
-0.9
-0.9
-0.895
-0.9
-0.92
-0.925
-0.935
-0.92
-0.94
-0.93
-0.925
-0.91
-0.905
-0.885
-0.89
-0.885
-0.895
-0.91
-0.925
-0.95
-0.955
-0.945
-0.945
-0.925
-0.925
-0.91
-0.9
-0.895
-0.895
-0.925
-0.945
-0.95
-0.95
-0.955
-0.94
-0.95
-0.925
-0.93
-0.92
-0.915
-0.915
-0.94
-0.93
-0.935
-0.955
-0.945
-0.935
-0.92
-0.92
-0.925
-0.92
-0.92
-0.94
-0.96
-0.925
-0.935
-0.93
-0.94
-0.93
-0.93
-0.915
-0.92
-0.905
-0.91
-0.905
-0.93
-0.95
-0.945
-0.945
-0.95
-0.96
-0.93
-0.915
-0.9
-0.91
-0.925
-0.93
-0.95
-0.965
-0.955
-0.955
-0.935
-0.935
-0.93
-0.92
-0.91
-0.92
-0.915
-0.935
-0.945
-0.945
-0.96
-0.975
-0.97
-0.95
-0.935
-0.94
-0.92
-0.905
-0.915
-0.905
-0.92
-0.93
-0.93
-0.945
-0.95
-0.94
-0.94
-0.92
-0.91
-0.92
-0.905
-0.91
-0.92
-0.925
-0.94
-0.95
-0.935
-0.94
-0.91
-0.91
-0.9
-0.895
-0.895
-0.905
-0.91
-0.925
-0.94
-0.94
-0.95
-0.93
-0.915
-0.91
-0.895
-0.895
-0.895
-0.885
-0.9
-0.89
-0.865
-0.87
-0.865
-0.855
-0.835
-0.825
-0.825
-0.82
-0.81
-0.78
-0.77
-0.74
-0.72
-0.7
-0.7
-0.715
-0.71
-0.71
-0.72
-0.72
-0.735
-0.73
-0.735
-0.75
-0.765
-0.78
-0.825
-0.85
-0.885
-0.89
-0.9
-0.925
-0.91
-0.925
-0.95
-0.96
-0.965
-0.975
-1.005
-0.99
-0.985
-0.975
-0.955
-0.95
-0.965
-0.955
-0.97
-0.97
-0.96
-1.0
-1.005
-0.975
-0.97
-0.96
-0.945
-0.945
-0.95
-0.945
-0.95
-0.965
-0.98
-0.965
-0.97
-0.96
-0.945
-0.94
-0.92
-0.91
-0.905
-0.92
-0.91
-0.905
-0.905
-0.91
-0.9
-0.905
-0.86
-0.775
-0.62
-0.42
-0.16
0.1
0.35
0.635
0.895
1.16
1.28
1.255
1.02
0.595
0.075
-0.525
-1.105
-1.52
-1.735
-1.76
-1.665
-1.515
-1.36
-1.245
-1.185
-1.15
-1.11
-1.075
-1.035
-1.01
-0.985
-0.945
-0.96
-0.96
-0.97
-0.96
-0.96
-0.95
-0.93
-0.925
-0.925
-0.92
-0.93
-0.935
-0.955
-0.95
-0.95
-0.945
-0.935
-0.93
-0.94
-0.925
-0.92
-0.93
-0.925
-0.945
-0.94
-0.945
-0.96
-0.945
-0.935
-0.935
-0.93
-0.925
-0.94
-0.93
-0.93
-0.93
-0.94
-0.95
-0.945
-0.935
-0.915
-0.92
-0.905
-0.89
-0.885
-0.895
-0.91
-0.92
-0.925
-0.925
-0.92
-0.92
-0.905
-0.88
-0.87
-0.85
-0.84
-0.845
-0.845
-0.855
-0.865
-0.855
-0.85
-0.83
-0.825
-0.8
-0.78
-0.77
-0.765
-0.755
-0.74
-0.745
-0.745
-0.725
-0.73
-0.71
-0.69
-0.665
-0.635
-0.615
-0.61
-0.6
-0.605
-0.605
-0.6
-0.585
-0.585
-0.58
-0.56
-0.535
-0.54
-0.53
-0.535
-0.51
-0.5
-0.52
-0.52
-0.535
-0.545
-0.545
-0.545
-0.56
-0.56
-0.56
-0.59
-0.605
-0.62
-0.645
-0.665
-0.69
-0.72
-0.725
-0.72
-0.74
-0.75
-0.75
-0.77
-0.79
-0.825
-0.825
-0.845
-0.845
-0.86
-0.86
-0.845
-0.855
-0.855
-0.85
-0.845
-0.86
-0.86
-0.86
-0.88
-0.875
-0.9
-0.895
-0.88
-0.875
-0.85
-0.85
-0.855
-0.85
-0.865
-0.885
-0.875
-0.885
-0.895
-0.885
-0.875
-0.865
-0.855
-0.84
-0.85
-0.835
-0.845
-0.845
-0.855
-0.865
-0.855
-0.855
-0.85
-0.835
-0.815
-0.815
-0.815
-0.82
-0.825
-0.835
-0.845
-0.845
-0.85
-0.84
-0.83
-0.81
-0.815
-0.8
-0.8
-0.82
-0.825
-0.845
-0.845
-0.84
-0.845
-0.85
-0.855
-0.83
-0.82
-0.81
-0.825
-0.83
-0.84
-0.865
-0.85
-0.865
-0.875
-0.86
-0.85
-0.845
-0.84
-0.84
-0.855
-0.85
-0.865
-0.86
-0.86
-0.89
-0.875
-0.88
-0.86
-0.865
-0.875
-0.85
-0.86
-0.865
-0.875
-0.89
-0.905
-0.915
-0.91
-0.915
-0.905
-0.91
-0.885
-0.89
-0.87
-0.88
-0.895
-0.905
-0.91
-0.92
-0.93
-0.915
-0.91
-0.895
-0.875
-0.88
-0.88
-0.89
-0.89
-0.905
-0.905
-0.91
-0.91
-0.905
-0.905
-0.885
-0.87
-0.88
-0.88
-0.895
-0.9
-0.91
-0.915
-0.935
-0.945
-0.935
-0.915
-0.925
-0.9
-0.895
-0.9
-0.9
-0.92
-0.935
-0.92
-0.935
-0.93
-0.925
-0.915
-0.915
-0.9
-0.89
-0.91
-0.91
-0.91
-0.935
-0.93
-0.945
-0.95
-0.945
-0.93
-0.925
-0.92
-0.93
-0.925
-0.905
-0.92
-0.925
-0.94
-0.955
-0.945
-0.94
-0.93
-0.92
-0.925
-0.915
-0.91
-0.91
-0.91
-0.925
-0.935
-0.94
-0.955
-0.95
-0.935
-0.91
-0.9
-0.895
-0.9
-0.905
-0.91
-0.92
-0.93
-0.955
-0.945
-0.94
-0.925
-0.92
-0.9
-0.91
-0.915
-0.92
-0.915
-0.925
-0.935
-0.94
-0.935
-0.945
-0.935
-0.93
-0.925
-0.92
-0.915
-0.9
-0.915
-0.92
-0.945
-0.935
-0.945
-0.945
-0.925
-0.905
-0.905
-0.89
-0.895
-0.91
-0.92
-0.93
-0.945
-0.925
-0.93
-0.935
-0.925
-0.91
-0.91
-0.905
-0.91
-0.91
-0.915
-0.91
-0.925
-0.925
-0.93
-0.92
-0.92
-0.9
-0.89
-0.88
-0.88
-0.87
-0.88
-0.88
-0.87
-0.865
-0.85
-0.83
-0.815
-0.79
-0.775
-0.77
-0.77
-0.78
-0.765
-0.77
-0.755
-0.75
-0.72
-0.705
-0.68
-0.68
-0.675
-0.68
-0.695
-0.72
-0.75
-0.745
-0.745
-0.745
-0.77
-0.775
-0.775
-0.77
-0.795
-0.795
-0.82
-0.84
-0.88
-0.89
-0.925
-0.945
-0.945
-0.95
-0.95
-0.94
-0.935
-0.945
-0.95
-0.965
-0.96
-0.97
-0.98
-0.97
-0.96
-0.97
-0.965
-0.955
-0.95
-0.94
-0.94
-0.93
-0.945
-0.96
-0.99
-0.97
-0.97
-0.97
-0.955
-0.945
-0.925
-0.915
-0.915
-0.93
-0.92
-0.93
-0.92
-0.925
-0.93
-0.91
-0.91
-0.89
-0.885
-0.835
-0.82
-0.785
-0.695
-0.565
-0.335
-0.085
0.21
0.5
0.785
1.075
1.295
1.335
1.17
0.835
0.35
-0.215
-0.775
-1.245
-1.53
-1.605
-1.51
-1.32
-1.135
-1.01
-0.955
-0.945
-0.98
-1.005
-1.02
-0.98
-0.965
-0.92
-0.89
-0.88
-0.885
-0.89
-0.895
-0.92
-0.92
-0.92
-0.915
-0.925
-0.915
-0.93
-0.91
-0.9
-0.9
-0.885
-0.895
-0.895
-0.9
-0.91
-0.915
-0.915
-0.92
-0.91
-0.91
-0.895
-0.88
-0.875
-0.865
-0.885
-0.88
-0.905
-0.91
-0.925
-0.93
-0.93
-0.905
-0.88
-0.88
-0.86
-0.875
-0.87
-0.87
-0.88
-0.89
-0.89
-0.88
-0.885
-0.855
-0.845
-0.835
-0.82
-0.815
-0.805
-0.815
-0.825
-0.825
-0.815
-0.825
-0.805
-0.8
-0.775
-0.765
-0.745
-0.735
-0.725
-0.72
-0.725
-0.725
-0.72
-0.715
-0.705
-0.685
-0.655
-0.63
-0.615
-0.595
-0.6
-0.58
-0.605
-0.585
-0.575
-0.555
-0.54
-0.54
-0.49
-0.475
-0.45
-0.445
-0.435
-0.415
-0.425
-0.425
-0.435
-0.435
-0.43
-0.42
-0.415
-0.405
-0.4
-0.41
-0.425
-0.445
-0.485
-0.505
-0.53
-0.56
-0.575
-0.595
-0.605
-0.63
-0.66
-0.665
-0.68
-0.695
-0.725
-0.76
-0.775
-0.785
-0.795
-0.8
-0.805
-0.79
-0.79
-0.795
-0.805
-0.81
-0.83
-0.835
-0.835
-0.855
-0.84
-0.83
-0.85
-0.825
-0.81
-0.825
-0.82
-0.815
-0.835
-0.84
-0.845
-0.86
-0.845
-0.835
-0.83
-0.83
-0.81
-0.825
-0.81
-0.81
-0.83
-0.84
-0.825
-0.83
-0.82
-0.82
-0.825
-0.815
-0.81
-0.815
-0.81
-0.82
-0.83
-0.835
-0.835
-0.835
-0.83
-0.83
-0.81
-0.805
-0.795
-0.79
-0.815
-0.825
-0.805
-0.825
-0.83
-0.85
-0.85
-0.84
-0.825
-0.815
-0.82
-0.81
-0.805
-0.83
-0.83
-0.85
-0.85
-0.85
-0.86
-0.86
-0.86
-0.83
-0.84
-0.84
-0.85
-0.865
-0.86
-0.875
-0.87
-0.875
-0.89
-0.885
-0.865
-0.865
-0.85
-0.87
-0.87
-0.875
-0.885
-0.905
-0.9
-0.9
-0.89
-0.885
-0.88
-0.865
-0.865
-0.865
-0.855
-0.875
-0.895
-0.885
-0.915
-0.915
-0.9
-0.9
-0.895
-0.885
-0.875
-0.86
-0.875
-0.885
-0.885
-0.905
-0.905
-0.91
-0.935
-0.915
-0.9
-0.89
-0.885
-0.87
-0.865
-0.88
-0.89
-0.9
-0.905
-0.9
-0.895
-0.89
-0.9
-0.885
-0.875
-0.875
-0.87
-0.895
-0.895
-0.89
-0.91
-0.91
-0.91
-0.9
-0.89
-0.89
-0.88
-0.88
-0.875
-0.895
-0.895
-0.905
-0.91
-0.905
-0.91
-0.9
-0.895
-0.89
-0.89
-0.885
-0.885
-0.9
-0.885
-0.905
-0.915
-0.91
-0.915
-0.905
-0.895
-0.88
-0.88
-0.875
-0.875
-0.89
-0.905
-0.91
-0.905
-0.92
-0.92
-0.91
-0.905
-0.9
-0.89
-0.9
-0.89
-0.895
-0.9
-0.905
-0.915
-0.92
-0.925
-0.915
-0.92
-0.915
-0.895
-0.885
-0.89
-0.89
-0.905
-0.915
-0.915
-0.925
-0.91
-0.915
-0.9
-0.905
-0.87
-0.895
-0.89
-0.89
-0.91
-0.905
-0.925
-0.93
-0.93
-0.935
-0.9
-0.895
-0.895
-0.9
-0.89
-0.9
-0.915
-0.905
-0.915
-0.915
-0.925
-0.915
-0.905
-0.89
-0.875
-0.885
-0.87
-0.9
-0.905
-0.895
-0.915
-0.91
-0.905
-0.89
-0.865
-0.845
-0.82
-0.805
-0.8
-0.79
-0.79
-0.815
-0.8
-0.805
-0.79
-0.775
-0.745
-0.715
-0.685
-0.655
-0.66
-0.66
-0.68
-0.7
-0.725
-0.745
-0.76
-0.75
-0.735
-0.735
-0.725
-0.745
-0.76
-0.805
-0.845
-0.875
-0.895
-0.92
-0.925
-0.93
-0.925
-0.93
-0.935
-0.93
-0.935
-0.95
-0.945
-0.95
-0.965
-0.965
-0.97
-0.975
-0.96
-0.96
-0.95
-0.96
-0.95
-0.93
-0.95
-0.95
-0.96
-0.97
-0.96
-0.955
-0.935
-0.935
-0.925
-0.92
-0.905
-0.92
-0.93
-0.945
-0.94
-0.95
-0.94
-0.915
-0.905
-0.88
-0.865
-0.86
-0.865
-0.84
-0.81
-0.73
-0.575
-0.385
-0.165
0.07
0.315
0.58
0.86
1.08
1.195
1.105
0.815
0.395
-0.165
-0.7
-1.185
-1.515
-1.63
-1.6
-1.47
-1.295
-1.17
-1.115
-1.085
-1.08
-1.075
-1.045
-0.995
-0.95
-0.925
-0.895
-0.885
-0.895
-0.9
-0.915
-0.93
-0.945
-0.925
-0.93
-0.92
-0.925
-0.9
-0.885
-0.885
-0.89
-0.9
-0.9
-0.92
-0.92
-0.91
-0.92
-0.91
-0.91
-0.885
-0.895
-0.89
-0.88
-0.89
-0.88
-0.895
-0.915
-0.91
-0.905
-0.93
-0.92
-0.91
-0.895
-0.9
-0.885
-0.875
-0.875
-0.89
-0.9
-0.895
-0.91
-0.91
-0.905
-0.885
-0.875
-0.85
-0.845
-0.84
-0.845
-0.86
-0.86
-0.865
-0.87
-0.86
-0.845
-0.825
-0.82
-0.8
-0.805
-0.79
-0.775
-0.775
-0.795
-0.78
-0.775
-0.77
-0.75
-0.725
-0.695
-0.68
-0.67
-0.66
-0.66
-0.65
-0.645
-0.615
-0.605
-0.615
-0.61
-0.585
-0.56
-0.535
-0.515
-0.515
-0.505
-0.49
-0.49
-0.495
-0.475
-0.475
-0.47
-0.455
-0.46
-0.455
-0.455
-0.445
-0.48
-0.51
-0.545
-0.575
-0.59
-0.6
-0.585
-0.58
-0.595
-0.59
-0.62
-0.645
-0.675
-0.705
-0.73
-0.75
-0.77
-0.78
-0.785
-0.79
-0.775
-0.78
-0.79
-0.785
-0.8
-0.82
-0.83
-0.83
-0.845
-0.855
-0.85
-0.835
-0.825
-0.81
-0.825
-0.825
-0.84
-0.835
-0.85
-0.85
-0.85
-0.86
-0.85
-0.84
-0.835
-0.825
-0.825
-0.825
-0.83
-0.845
-0.85
-0.855
-0.855
-0.87
-0.855
-0.85
-0.825
-0.835
-0.82
-0.82
-0.8
-0.815
-0.83
-0.82
-0.825
-0.835
-0.825
-0.795
-0.79
-0.78
-0.785
-0.79
-0.78
-0.785
-0.795
-0.81
-0.815
-0.83
-0.815
-0.805
-0.79
-0.78
-0.785
-0.785
-0.805
-0.82
-0.83
-0.825
-0.83
-0.85
-0.855
-0.83
-0.825
-0.805
-0.81
-0.81
-0.815
-0.83
-0.84
-0.84
-0.85
-0.86
-0.86
-0.86
-0.855
-0.825
-0.84
-0.835
-0.84
-0.83
-0.85
-0.86
-0.88
-0.885
-0.88
-0.865
-0.865
-0.86
-0.85
-0.85
-0.85
-0.87
-0.885
-0.875
-0.88
-0.885
-0.88
-0.87
-0.86
-0.86
-0.865
-0.855
-0.865
-0.89
-0.88
-0.88
-0.885
-0.895
-0.885
-0.885
-0.865
-0.855
-0.875
-0.885
-0.88
-0.87
-0.885
-0.88
-0.89
-0.89
-0.885
-0.87
-0.865
-0.865
-0.865
-0.865
-0.87
-0.885
-0.875
-0.88
-0.89
-0.9
-0.89
-0.865
-0.86
-0.865
-0.855
-0.86
-0.875
-0.87
-0.88
-0.89
-0.89
-0.89
-0.885
-0.87
-0.865
-0.86
-0.87
-0.86
-0.85
-0.86
-0.865
-0.875
-0.875
-0.875
-0.875
-0.88
-0.875
-0.845
-0.86
-0.86
-0.855
-0.875
-0.875
-0.88
-0.89
-0.895
-0.875
-0.875
-0.85
-0.84
-0.84
-0.85
-0.84
-0.845
-0.85
-0.84
-0.86
-0.855
-0.845
-0.835
-0.83
-0.805
-0.8
-0.785
-0.785
-0.785
-0.785
-0.77
-0.77
-0.775
-0.785
-0.77
-0.76
-0.73
-0.705
-0.675
-0.65
-0.635
-0.65
-0.645
-0.65
-0.655
-0.665
-0.675
-0.685
-0.69
-0.67
-0.67
-0.67
-0.68
-0.72
-0.715
-0.73
-0.775
-0.81
-0.83
-0.825
-0.845
-0.84
-0.84
-0.865
-0.885
-0.905
-0.915
-0.91
-0.92
-0.92
-0.905
-0.895
-0.89
-0.895
-0.89
-0.895
-0.93
-0.915
-0.915
-0.935
-0.92
-0.92
-0.905
-0.895
-0.895
-0.88
-0.885
-0.89
-0.885
-0.9
-0.9
-0.91
-0.915
-0.91
-0.89
-0.885
-0.87
-0.86
-0.85
-0.87
-0.87
-0.86
-0.87
-0.875
-0.855
-0.85
-0.825
-0.815
-0.78
-0.71
-0.585
-0.43
-0.21
0.055
0.295
0.565
0.845
1.125
1.29
1.325
1.14
0.745
0.215
-0.395
-0.965
-1.39
-1.665
-1.7
-1.61
-1.45
-1.29
-1.16
-1.085
-1.04
-1.035
-0.995
-0.96
-0.915
-0.89
-0.88
-0.87
-0.875
-0.885
-0.875
-0.865
-0.855
-0.865
-0.86
-0.87
-0.875
-0.87
-0.88
-0.87
-0.86
-0.85
-0.85
-0.825
-0.825
-0.82
-0.815
-0.84
-0.87
-0.875
-0.88
-0.885
-0.865
-0.86
-0.83
-0.825
-0.83
-0.825
-0.835
-0.84
-0.845
-0.855
-0.86
-0.855
-0.85
-0.83
-0.83
-0.84
-0.835
-0.835
-0.835
-0.83
-0.835
-0.85
-0.86
-0.85
-0.84
-0.825
-0.81
-0.79
-0.785
-0.79
-0.785
-0.8
-0.805
-0.81
-0.8
-0.8
-0.79
-0.75
-0.75
-0.735
-0.725
-0.73
-0.71
-0.715
-0.71
-0.715
-0.7
-0.685
-0.675
-0.65
-0.625
-0.61
-0.615
-0.575
-0.57
-0.57
-0.565
-0.555
-0.55
-0.545
-0.535
-0.525
-0.5
-0.49
-0.465
-0.46
-0.46
-0.45
-0.45
-0.44
-0.445
-0.45
-0.44
-0.44
-0.435
-0.43
-0.44
-0.455
-0.475
-0.495
-0.525
-0.565
-0.59
-0.61
-0.61
-0.62
-0.635
-0.635
-0.64
-0.665
-0.685
-0.71
-0.73
-0.745
-0.76
-0.775
-0.78
-0.76
-0.75
-0.76
-0.755
-0.755
-0.77
-0.785
-0.8
-0.795
-0.8
-0.81
-0.8
-0.795
-0.8
-0.78
-0.765
-0.775
-0.78
-0.775
-0.785
-0.78
-0.805
-0.825
-0.805
-0.79
-0.78
-0.755
-0.755
-0.77
-0.765
-0.77
-0.795
-0.79
-0.79
-0.8
-0.785
-0.78
-0.765
-0.76
-0.75
-0.745
-0.75
-0.75
-0.755
-0.755
-0.78
-0.77
-0.795
-0.775
-0.755
-0.73
-0.73
-0.725
-0.73
-0.75
-0.75
-0.755
-0.76
-0.765
-0.76
-0.745
-0.745
-0.74
-0.735
-0.735
-0.75
-0.76
-0.76
-0.765
-0.79
-0.79
-0.785
-0.77
-0.765
-0.755
-0.76
-0.745
-0.765
-0.77
-0.785
-0.795
-0.8
-0.8
-0.8
-0.815
-0.795
-0.785
-0.785
-0.78
-0.76
-0.775
-0.815
-0.805
-0.81
-0.825
-0.815
-0.815
-0.805
-0.79
-0.795
-0.795
-0.805
-0.805
-0.81
-0.83
-0.825
-0.845
-0.82
-0.815
-0.81
-0.825
-0.8
-0.8
-0.81
-0.815
-0.815
-0.835
-0.84
-0.845
-0.855
-0.825
-0.815
-0.805
-0.81
-0.825
-0.825
-0.825
-0.845
-0.845
-0.855
-0.855
-0.865
-0.855
-0.845
-0.825
-0.82
-0.83
-0.83
-0.825
-0.835
-0.84
-0.845
-0.85
-0.84
-0.84
-0.82
-0.81
-0.81
-0.82
-0.815
-0.825
-0.84
-0.835
-0.84
-0.84
-0.845
-0.83
-0.83
-0.83
-0.815
-0.815
-0.82
-0.825
-0.85
-0.85
-0.865
-0.86
-0.86
-0.86
-0.84
-0.83
-0.835
-0.835
-0.845
-0.84
-0.845
-0.84
-0.87
-0.865
-0.855
-0.83
-0.835
-0.825
-0.815
-0.82
-0.815
-0.825
-0.83
-0.84
-0.86
-0.86
-0.85
-0.845
-0.815
-0.815
-0.8
-0.82
-0.82
-0.835
-0.85
-0.865
-0.85
-0.855
-0.85
-0.845
-0.83
-0.83
-0.82
-0.82
-0.83
-0.845
-0.84
-0.83
-0.83
-0.82
-0.815
-0.815
-0.77
-0.74
-0.715
-0.725
-0.715
-0.73
-0.725
-0.74
-0.73
-0.7
-0.69
-0.655
-0.64
-0.63
-0.61
-0.63
-0.635
-0.65
-0.67
-0.68
-0.695
-0.695
-0.71
-0.71
-0.715
-0.705
-0.72
-0.725
-0.745
-0.775
-0.81
-0.85
-0.87
-0.88
-0.885
-0.875
-0.88
-0.88
-0.875
-0.875
-0.87
-0.88
-0.905
-0.905
-0.92
-0.92
-0.93
-0.92
-0.905
-0.895
-0.885
-0.885
-0.88
-0.885
-0.9
-0.92
-0.915
-0.92
-0.91
-0.905
-0.895
-0.885
-0.86
-0.87
-0.855
-0.865
-0.88
-0.885
-0.88
-0.88
-0.88
-0.865
-0.85
-0.835
-0.815
-0.8
-0.79
-0.785
-0.765
-0.725
-0.625
-0.45
-0.225
0.035
0.285
0.54
0.825
1.095
1.28
1.325
1.195
0.875
0.405
-0.155
-0.73
-1.205
-1.495
-1.56
-1.455
-1.27
-1.095
-0.975
-0.935
-0.93
-0.935
-0.955
-0.96
-0.915
-0.89
-0.865
-0.83
-0.84
-0.835
-0.85
-0.87
-0.885
-0.88
-0.885
-0.875
-0.87
-0.86
-0.85
-0.85
-0.84
-0.84
-0.85
-0.865
-0.88
-0.875
-0.87
-0.87
-0.865
-0.855
-0.85
-0.84
-0.84
-0.84
-0.86
-0.86
-0.865
-0.88
-0.875
-0.875
-0.87
-0.855
-0.83
-0.83
-0.83
-0.835
-0.85
-0.845
-0.855
-0.855
-0.865
-0.85
-0.855
-0.845
-0.825
-0.82
-0.81
-0.8
-0.815
-0.825
-0.825
-0.825
-0.825
-0.825
-0.795
-0.795
-0.785
-0.76
-0.765
-0.745
-0.74
-0.76
-0.755
-0.755
-0.75
-0.74
-0.72
-0.705
-0.685
-0.665
-0.655
-0.655
-0.645
-0.64
-0.635
-0.64
-0.625
-0.605
-0.585
-0.565
-0.535
-0.51
-0.495
-0.485
-0.48
-0.485
-0.475
-0.46
-0.45
-0.42
-0.42
-0.39
-0.38
-0.36
-0.35
-0.36
-0.37
-0.39
-0.41
-0.43
-0.435
-0.445
-0.48
-0.495
-0.5
-0.53
-0.535
-0.565
-0.59
-0.625
-0.645
-0.665
-0.67
-0.68
-0.7
-0.705
-0.71
-0.705
-0.72
-0.72
-0.74
-0.775
-0.785
-0.795
-0.8
-0.79
-0.795
-0.78
-0.79
-0.775
-0.77
-0.77
-0.78
-0.8
-0.8
-0.805
-0.82
-0.805
-0.79
-0.79
-0.79
-0.78
-0.775
-0.77
-0.775
-0.78
-0.79
-0.805
-0.8
-0.8
-0.795
-0.79
-0.78
-0.78
-0.75
-0.76
-0.765
-0.78
-0.775
-0.79
-0.795
-0.78
-0.775
-0.765
-0.76
-0.76
-0.76
-0.76
-0.75
-0.78
-0.785
-0.79
-0.795
-0.8
-0.8
-0.775
-0.765
-0.75
-0.755
-0.75
-0.77
-0.785
-0.785
-0.79
-0.795
-0.8
-0.8
-0.79
-0.78
-0.79
-0.8
-0.795
-0.81
-0.8
-0.815
-0.825
-0.825
-0.835
-0.83
-0.825
-0.81
-0.805
-0.795
-0.8
-0.8
-0.815
-0.835
-0.835
-0.845
-0.865
-0.835
-0.83
-0.815
-0.82
-0.82
-0.82
-0.825
-0.84
-0.845
-0.87
-0.865
-0.87
-0.87
-0.855
-0.835
-0.815
-0.815
-0.815
-0.82
-0.825
-0.84
-0.87
-0.875
-0.86
-0.855
-0.85
-0.84
-0.835
-0.835
-0.84
-0.855
-0.85
-0.875
-0.865
-0.885
-0.87
-0.865
-0.87
-0.845
-0.835
-0.83
-0.825
-0.845
-0.85
-0.855
-0.865
-0.88
-0.875
-0.86
-0.85
-0.855
-0.83
-0.83
-0.83
-0.845
-0.845
-0.87
-0.87
-0.88
-0.87
-0.88
-0.86
-0.85
-0.83
-0.835
-0.84
-0.85
-0.855
-0.865
-0.86
-0.88
-0.885
-0.865
-0.87
-0.85
-0.825
-0.82
-0.845
-0.845
-0.85
-0.855
-0.845
-0.86
-0.855
-0.865
-0.84
-0.84
-0.825
-0.825
-0.83
-0.845
-0.85
-0.845
-0.855
-0.86
-0.87
-0.87
-0.845
-0.84
-0.825
-0.815
-0.82
-0.82
-0.835
-0.85
-0.865
-0.835
-0.84
-0.845
-0.835
-0.82
-0.815
-0.805
-0.8
-0.815
-0.84
-0.84
-0.845
-0.855
-0.86
-0.84
-0.84
-0.825
-0.83
-0.81
-0.82
-0.81
-0.825
-0.84
-0.83
-0.83
-0.83
-0.815
-0.795
-0.775
-0.735
-0.715
-0.7
-0.7
-0.71
-0.715
-0.72
-0.725
-0.72
-0.685
-0.64
-0.62
-0.6
-0.595
-0.585
-0.62
-0.625
-0.65
-0.67
-0.685
-0.7
-0.695
-0.675
-0.675
-0.68
-0.685
-0.7
-0.715
-0.75
-0.785
-0.835
-0.865
-0.89
-0.88
-0.88
-0.89
-0.89
-0.885
-0.885
-0.88
-0.865
-0.88
-0.895
-0.9
-0.895
-0.895
-0.89
-0.885
-0.88
-0.875
-0.875
-0.89
-0.885
-0.89
-0.905
-0.9
-0.91
-0.89
-0.89
-0.875
-0.87
-0.87
-0.855
-0.865
-0.875
-0.89
-0.875
-0.895
-0.875
-0.875
-0.865
-0.84
-0.825
-0.82
-0.825
-0.815
-0.805
-0.8
-0.78
-0.73
-0.625
-0.465
-0.25
-0.01
0.24
0.505
0.775
1.03
1.205
1.235
1.095
0.78
0.33
-0.175
-0.69
-1.13
-1.395
-1.505
-1.45
-1.32
-1.175
-1.065
-1.005
-1.0
-1.005
-1.005
-0.96
-0.925
-0.885
-0.86
-0.845
-0.85
-0.865
-0.895
-0.89
-0.915
-0.905
-0.9
-0.88
-0.865
-0.85
-0.855
-0.865
-0.865
-0.875
-0.88
-0.905
-0.895
-0.895
-0.9
-0.89
-0.86
-0.865
-0.855
-0.865
-0.86
-0.87
-0.865
-0.885
-0.895
-0.88
-0.875
-0.87
-0.855
-0.835
-0.84
-0.845
-0.845
-0.85
-0.87
-0.86
-0.87
-0.89
-0.89
-0.86
-0.845
-0.835
-0.85
-0.855
-0.835
-0.86
-0.84
-0.85
-0.845
-0.855
-0.845
-0.825
-0.82
-0.82
-0.8
-0.775
-0.77
-0.77
-0.76
-0.77
-0.77
-0.755
-0.74
-0.715
-0.695
-0.675
-0.66
-0.645
-0.645
-0.63
-0.64
-0.625
-0.615
-0.605
-0.595
-0.565
-0.55
-0.53
-0.51
-0.495
-0.49
-0.49
-0.49
-0.47
-0.475
-0.465
-0.44
-0.435
-0.41
-0.4
