Lead II
-0.14
-0.145
-0.15
-0.16
-0.16
-0.16
-0.16
-0.16
-0.16
-0.16
-0.155
-0.155
-0.155
-0.16
-0.16
-0.18
-0.165
-0.175
-0.185
-0.19
-0.185
-0.18
-0.19
-0.185
-0.18
-0.17
-0.185
-0.185
-0.19
-0.21
-0.205
-0.21
-0.215
-0.21
-0.215
-0.2
-0.21
-0.205
-0.21
-0.24
-0.24
-0.255
-0.245
-0.25
-0.235
-0.24
-0.235
-0.235
-0.23
-0.24
-0.24
-0.25
-0.265
-0.265
-0.255
-0.265
-0.26
-0.245
-0.245
-0.24
-0.24
-0.24
-0.24
-0.235
-0.24
-0.25
-0.24
-0.265
-0.26
-0.265
-0.26
-0.255
-0.245
-0.225
-0.25
-0.255
-0.25
-0.27
-0.275
-0.27
-0.26
-0.245
-0.24
-0.23
-0.23
-0.225
-0.24
-0.235
-0.24
-0.255
-0.25
-0.255
-0.245
-0.25
-0.23
-0.245
-0.225
-0.235
-0.225
-0.215
-0.235
-0.205
-0.21
-0.19
-0.175
-0.175
-0.15
-0.13
-0.105
-0.095
-0.075
-0.075
-0.075
-0.095
-0.105
-0.12
-0.12
-0.125
-0.12
-0.115
-0.13
-0.14
-0.145
-0.16
-0.195
-0.215
-0.235
-0.245
-0.24
-0.235
-0.25
-0.26
-0.26
-0.295
-0.305
-0.325
-0.325
-0.32
-0.32
-0.32
-0.31
-0.32
-0.295
-0.295
-0.29
-0.29
-0.3
-0.29
-0.29
-0.3
-0.285
-0.29
-0.3
-0.285
-0.285
-0.285
-0.265
-0.265
-0.25
-0.25
-0.25
-0.245
-0.24
-0.22
-0.18
-0.11
-0.005
0.155
0.33
0.52
0.72
0.91
1.06
1.15
1.155
1.075
0.885
0.6
0.21
-0.22
-0.675
-1.09
-1.385
-1.52
-1.455
-1.23
-0.945
-0.67
-0.425
-0.26
-0.17
-0.13
-0.13
-0.155
-0.19
-0.19
-0.2
-0.2
-0.18
-0.18
-0.16
-0.145
-0.14
-0.13
-0.125
-0.125
-0.115
-0.115
-0.125
-0.115
-0.12
-0.125
-0.115
-0.11
-0.09
-0.075
-0.075
-0.085
-0.07
-0.07
-0.07
-0.065
-0.065
-0.06
-0.04
-0.02
-0.01
0.01
0.005
0.025
0.02
0.02
0.03
0.035
0.055
0.055
0.075
0.085
0.1
0.105
0.115
0.13
0.145
0.145
0.165
0.15
0.135
0.14
0.16
0.17
0.17
0.19
0.2
0.195
0.19
0.19
0.175
0.155
0.16
0.145
0.155
0.16
0.17
0.17
0.175
0.175
0.17
0.15
0.14
0.135
0.13
0.11
0.11
0.1
0.08
0.075
0.055
0.04
0.025
-0.01
-0.025
-0.045
-0.075
-0.09
-0.105
-0.12
-0.12
-0.125
-0.135
-0.125
-0.13
-0.13
-0.155
-0.16
-0.17
-0.17
-0.175
-0.165
-0.16
-0.14
-0.14
-0.135
-0.14
-0.15
-0.155
-0.17
-0.16
-0.165
-0.155
-0.14
-0.145
-0.14
-0.155
-0.155
-0.155
-0.16
-0.165
-0.165
-0.165
-0.165
-0.165
-0.165
-0.165
-0.165
-0.16
-0.175
-0.165
-0.17
-0.175
-0.17
-0.175
-0.185
-0.19
-0.2
-0.195
-0.195
-0.2
-0.18
-0.195
-0.195
-0.2
-0.225
-0.225
-0.245
-0.24
-0.23
-0.215
-0.205
-0.2
-0.205
-0.215
-0.225
-0.24
-0.255
-0.265
-0.255
-0.245
-0.245
-0.24
-0.24
-0.235
-0.245
-0.255
-0.245
-0.25
-0.255
-0.265
-0.265
-0.265
-0.255
-0.255
-0.245
-0.235
-0.23
-0.23
-0.23
-0.245
-0.255
-0.26
-0.27
-0.27
-0.27
-0.25
-0.245
-0.24
-0.24
-0.235
-0.24
-0.255
-0.26
-0.255
-0.26
-0.25
-0.255
-0.24
-0.235
-0.235
-0.23
-0.215
-0.21
-0.205
-0.195
-0.185
-0.175
-0.155
-0.14
-0.12
-0.095
-0.075
-0.06
-0.055
-0.06
-0.075
-0.095
-0.105
-0.105
-0.11
-0.105
-0.115
-0.125
-0.14
-0.16
-0.2
-0.21
-0.23
-0.245
-0.24
-0.26
-0.275
-0.29
-0.305
-0.295
-0.305
-0.3
-0.305
-0.305
-0.305
-0.31
-0.315
-0.32
-0.32
-0.315
-0.31
-0.31
-0.3
-0.295
-0.295
-0.295
-0.3
-0.31
-0.315
-0.31
-0.305
-0.295
-0.295
-0.29
-0.27
-0.255
-0.245
-0.235
-0.2
-0.15
-0.045
0.085
0.265
0.47
0.69
0.89
1.08
1.17
1.16
1.025
0.745
0.365
-0.075
-0.56
-1.015
-1.355
-1.505
-1.46
-1.285
-1.015
-0.745
-0.525
-0.35
-0.25
-0.195
-0.18
-0.195
-0.2
-0.2
-0.19
-0.195
-0.185
-0.175
-0.17
-0.175
-0.175
-0.18
-0.18
-0.165
-0.155
-0.145
-0.135
-0.13
-0.14
-0.125
-0.13
-0.125
-0.12
-0.125
-0.105
-0.095
-0.09
-0.08
-0.06
-0.06
-0.065
-0.035
-0.03
-0.02
-0.03
-0.02
-0.01
-0.005
0.015
0.025
0.045
0.05
0.065
0.095
0.09
0.095
0.105
0.105
0.105
0.12
0.135
0.165
0.17
0.19
0.2
0.215
0.21
0.225
0.215
0.215
0.225
0.24
0.255
0.24
0.25
0.255
0.245
0.25
0.24
0.24
0.235
0.23
0.225
0.235
0.215
0.225
0.215
0.21
0.21
0.2
0.185
0.165
0.13
0.1
0.065
0.045
0.02
0.005
0.005
-0.02
-0.035
-0.07
-0.08
-0.1
-0.115
-0.135
-0.155
-0.165
-0.155
-0.15
-0.15
-0.155
-0.155
-0.145
-0.17
-0.16
-0.17
-0.175
-0.17
-0.16
-0.16
-0.17
-0.165
-0.16
-0.165
-0.155
-0.145
-0.155
-0.16
-0.16
-0.165
-0.175
-0.175
-0.175
-0.165
-0.15
-0.16
-0.155
-0.155
-0.17
-0.19
-0.19
-0.205
-0.2
-0.2
-0.19
-0.19
-0.2
-0.195
-0.2
-0.21
-0.215
-0.225
-0.235
-0.235
-0.235
-0.23
-0.23
-0.225
-0.23
-0.245
-0.23
-0.245
-0.25
-0.255
-0.25
-0.26
-0.255
-0.26
-0.265
-0.26
-0.26
-0.26
-0.25
-0.265
-0.27
-0.275
-0.285
-0.28
-0.295
-0.285
-0.29
-0.27
-0.265
-0.27
-0.265
-0.28
-0.28
-0.29
-0.295
-0.295
-0.3
-0.285
-0.29
-0.28
-0.275
-0.27
-0.26
-0.26
-0.255
-0.24
-0.23
-0.22
-0.225
-0.195
-0.18
-0.16
-0.14
-0.135
-0.12
-0.12
-0.13
-0.13
-0.145
-0.15
-0.17
-0.165
-0.16
-0.175
-0.18
-0.195
-0.22
-0.245
-0.26
-0.28
-0.29
-0.29
-0.31
-0.315
-0.325
-0.33
-0.34
-0.33
-0.335
-0.34
-0.355
-0.36
-0.365
-0.35
-0.35
-0.345
-0.34
-0.335
-0.33
-0.35
-0.34
-0.335
-0.33
-0.33
-0.33
-0.325
-0.33
-0.33
-0.32
-0.315
-0.3
-0.28
-0.275
-0.265
-0.235
-0.18
-0.095
0.035
0.2
0.4
0.605
0.805
0.985
1.11
1.14
1.06
0.825
0.495
0.07
-0.4
-0.885
-1.3
-1.535
-1.58
-1.44
-1.205
-0.93
-0.675
-0.485
-0.345
-0.265
-0.225
-0.21
-0.22
-0.225
-0.215
-0.225
-0.22
-0.21
-0.205
-0.2
-0.21
-0.205
-0.195
-0.195
-0.195
-0.175
-0.165
-0.155
-0.145
-0.135
-0.135
-0.13
-0.14
-0.13
-0.135
-0.135
-0.125
-0.11
-0.085
-0.075
-0.07
-0.065
-0.07
-0.07
-0.07
-0.06
-0.05
-0.035
-0.025
-0.015
0.0
0.01
0.015
0.025
0.04
0.05
0.06
0.055
0.07
0.075
0.095
0.115
0.125
0.14
0.155
0.165
0.175
0.17
0.175
0.175
0.17
0.17
0.175
0.18
0.19
0.195
0.2
0.19
0.18
0.165
0.165
0.145
0.145
0.155
0.15
0.17
0.16
0.16
0.155
0.145
0.12
0.09
0.085
0.065
0.05
0.035
0.02
-0.01
-0.02
-0.035
-0.06
-0.07
-0.1
-0.11
-0.145
-0.145
-0.165
-0.19
-0.195
-0.19
-0.185
-0.185
-0.185
-0.195
-0.2
-0.2
-0.195
-0.2
-0.21
-0.205
-0.21
-0.2
-0.19
-0.17
-0.18
-0.17
-0.18
-0.19
-0.19
-0.205
-0.2
-0.2
-0.19
-0.18
-0.18
-0.17
-0.17
-0.165
-0.175
-0.18
-0.19
-0.205
-0.19
-0.19
-0.2
-0.19
-0.18
-0.19
-0.185
-0.19
-0.19
-0.2
-0.21
-0.21
-0.22
-0.235
-0.23
-0.225
-0.225
-0.215
-0.22
-0.205
-0.215
-0.22
-0.23
-0.25
-0.255
-0.26
-0.265
-0.25
-0.245
-0.24
-0.25
-0.26
-0.255
-0.255
-0.265
-0.28
-0.275
-0.265
-0.27
-0.26
-0.26
-0.265
-0.265
-0.25
-0.27
-0.27
-0.275
-0.29
-0.285
-0.285
-0.28
-0.28
-0.27
-0.25
-0.245
-0.22
-0.22
-0.22
-0.2
-0.195
-0.185
-0.175
-0.17
-0.14
-0.11
-0.1
-0.085
-0.085
-0.095
-0.1
-0.12
-0.13
-0.14
-0.145
-0.155
-0.165
-0.17
-0.165
-0.195
-0.22
-0.24
-0.25
-0.27
-0.285
-0.305
-0.325
-0.33
-0.33
-0.35
-0.33
-0.335
-0.335
-0.335
-0.33
-0.335
-0.335
-0.345
-0.355
-0.34
-0.345
-0.345
-0.33
-0.335
-0.325
-0.32
-0.335
-0.34
-0.36
-0.35
-0.335
-0.305
-0.29
-0.275
-0.255
-0.23
-0.18
-0.12
-0.01
0.13
0.305
0.505
0.705
0.89
1.035
1.09
1.005
0.81
0.49
0.085
-0.37
-0.845
-1.28
-1.585
-1.69
-1.56
-1.305
-0.99
-0.695
-0.455
-0.305
-0.215
-0.185
-0.185
-0.21
-0.24
-0.245
-0.245
-0.225
-0.205
-0.185
-0.17
-0.17
-0.18
-0.18
-0.185
-0.19
-0.195
-0.18
-0.17
-0.155
-0.145
-0.135
-0.14
-0.125
-0.135
-0.13
-0.135
-0.13
-0.11
-0.11
-0.1
-0.09
-0.1
-0.07
-0.07
-0.045
-0.04
-0.035
-0.03
-0.035
-0.03
-0.04
-0.025
-0.01
0.015
0.03
0.035
0.065
0.065
0.075
0.085
0.085
0.1
0.095
0.11
0.135
0.155
0.16
0.175
0.165
0.16
0.165
0.16
0.16
0.15
0.14
0.155
0.15
0.155
0.16
0.16
0.15
0.15
0.145
0.14
0.12
0.11
0.095
0.08
0.075
0.075
0.05
0.04
0.02
-0.01
-0.045
-0.07
-0.105
-0.13
-0.15
-0.15
-0.155
-0.16
-0.17
-0.2
-0.2
-0.205
-0.21
-0.225
-0.23
-0.23
-0.235
-0.22
-0.205
-0.21
-0.21
-0.205
-0.2
-0.2
-0.205
-0.215
-0.21
-0.215
-0.22
-0.215
-0.215
-0.21
-0.215
-0.19
-0.19
-0.195
-0.2
-0.215
-0.215
-0.225
-0.22
-0.22
-0.225
-0.19
-0.19
-0.19
-0.195
-0.2
-0.22
-0.225
-0.235
-0.245
-0.255
-0.245
-0.24
-0.24
-0.24
-0.23
-0.25
-0.25
-0.26
-0.26
-0.275
-0.27
-0.28
-0.265
-0.255
-0.265
-0.265
-0.27
-0.27
-0.285
-0.28
-0.285
-0.295
-0.3
-0.31
-0.305
-0.315
-0.29
-0.29
-0.29
-0.285
-0.29
-0.295
-0.3
-0.295
-0.3
-0.31
-0.3
-0.295
-0.285
-0.265
-0.245
-0.245
-0.23
-0.235
-0.225
-0.225
-0.22
-0.19
-0.185
-0.145
-0.12
-0.12
-0.11
-0.12
-0.125
-0.15
-0.15
-0.17
-0.18
-0.18
-0.155
-0.16
-0.175
-0.2
-0.225
-0.23
-0.25
-0.265
-0.275
-0.285
-0.295
-0.32
-0.34
-0.355
-0.355
-0.36
-0.35
-0.335
-0.34
-0.345
-0.35
-0.355
-0.37
-0.375
-0.375
-0.37
-0.36
-0.355
-0.35
-0.35
-0.335
-0.33
-0.35
-0.335
-0.345
-0.35
-0.34
-0.315
-0.305
-0.285
-0.3
-0.29
-0.28
-0.275
-0.245
-0.185
-0.08
0.06
0.245
0.46
0.67
0.885
1.045
1.135
1.13
1.0
0.77
0.425
0.015
-0.43
-0.895
-1.305
-1.595
-1.675
-1.55
-1.265
-0.97
-0.68
-0.45
-0.305
-0.225
-0.205
-0.2
-0.215
-0.24
-0.23
-0.225
-0.21
-0.195
-0.205
-0.21
-0.205
-0.215
-0.225
-0.2
-0.18
-0.18
-0.16
-0.15
-0.145
-0.16
-0.15
-0.16
-0.16
-0.155
-0.145
-0.13
-0.125
-0.11
-0.105
-0.1
-0.1
-0.095
-0.09
-0.085
-0.07
-0.07
-0.065
-0.05
-0.04
-0.035
-0.02
-0.005
-0.005
0.005
0.02
0.015
0.03
0.04
0.035
0.05
0.07
0.065
0.105
0.12
0.135
0.14
0.13
0.14
0.125
0.12
0.125
0.14
0.145
0.155
0.175
0.165
0.165
0.15
0.145
0.135
0.135
0.125
0.13
0.14
0.155
0.15
0.155
0.145
0.13
0.135
0.12
0.105
0.085
0.075
0.055
0.035
0.0
-0.02
-0.04
-0.065
-0.065
-0.075
-0.095
-0.13
-0.145
-0.16
-0.195
-0.195
-0.195
-0.195
-0.19
-0.175
-0.18
-0.185
-0.2
-0.22
-0.215
-0.22
-0.225
-0.21
-0.205
-0.2
-0.195
-0.19
-0.19
-0.19
-0.195
-0.2
-0.205
-0.21
-0.21
-0.2
-0.19
-0.185
-0.175
-0.175
-0.18
-0.195
-0.195
-0.185
-0.19
-0.2
-0.215
-0.2
-0.2
-0.205
-0.19
-0.195
-0.19
-0.19
-0.195
-0.21
-0.23
-0.24
-0.24
-0.235
-0.23
-0.22
-0.22
-0.21
-0.225
-0.225
-0.24
-0.25
-0.25
-0.255
-0.255
-0.255
-0.25
-0.245
-0.235
-0.245
-0.24
-0.255
-0.275
-0.275
-0.265
-0.255
-0.26
-0.27
-0.265
-0.27
-0.265
-0.26
-0.255
-0.255
-0.26
-0.26
-0.27
-0.265
-0.26
-0.255
-0.245
-0.225
-0.2
-0.18
-0.175
-0.15
-0.15
-0.14
-0.14
-0.125
-0.13
-0.12
-0.12
-0.11
-0.12
-0.125
-0.13
-0.14
-0.15
-0.175
-0.2
-0.205
-0.24
-0.245
-0.255
-0.275
-0.285
-0.295
-0.3
-0.32
-0.33
-0.355
-0.365
-0.37
-0.37
-0.365
-0.36
-0.36
-0.34
-0.34
-0.33
-0.335
-0.345
-0.345
-0.355
-0.36
-0.36
-0.36
-0.35
-0.34
-0.32
-0.315
-0.315
-0.31
-0.335
-0.34
-0.325
-0.325
-0.325
-0.3
-0.285
-0.265
-0.2
-0.12
-0.005
0.165
0.365
0.6
0.815
1.005
1.13
1.15
1.065
0.835
0.495
0.05
-0.445
-0.95
-1.37
-1.64
-1.71
-1.525
-1.24
-0.92
-0.62
-0.4
-0.255
-0.18
-0.165
-0.17
-0.215
-0.245
-0.25
-0.26
-0.265
-0.25
-0.225
-0.2
-0.195
-0.19
-0.18
-0.185
-0.18
-0.185
-0.185
-0.19
-0.18
-0.175
-0.175
-0.155
-0.145
-0.145
-0.12
-0.13
-0.125
-0.12
-0.115
-0.125
-0.125
-0.13
-0.105
-0.085
-0.075
-0.065
-0.05
-0.04
-0.035
-0.04
-0.035
-0.045
-0.035
-0.03
-0.015
0.02
0.025
0.045
0.06
0.065
0.07
0.07
0.075
0.075
0.075
0.08
0.105
0.12
0.125
0.13
0.13
0.125
0.12
0.11
0.105
0.105
0.1
0.115
0.115
0.12
0.13
0.13
0.12
0.125
0.115
0.12
0.125
0.11
0.1
0.11
0.105
0.09
0.075
0.065
0.06
0.035
0.02
-0.005
-0.04
-0.045
-0.075
-0.09
-0.105
-0.13
-0.135
-0.14
-0.145
-0.155
-0.17
-0.175
-0.195
-0.21
-0.21
-0.21
-0.205
-0.195
-0.2
-0.185
-0.19
-0.195
-0.2
-0.21
-0.215
-0.22
-0.21
-0.205
-0.205
-0.19
-0.19
-0.195
-0.195
-0.195
-0.205
-0.205
-0.21
-0.215
-0.21
-0.205
-0.205
-0.205
-0.21
-0.215
-0.2
-0.205
-0.21
-0.21
-0.215
-0.22
-0.235
-0.225
-0.225
-0.215
-0.22
-0.225
-0.205
-0.22
-0.225
-0.24
-0.245
-0.255
-0.27
-0.27
-0.265
-0.255
-0.25
-0.245
-0.235
-0.25
-0.255
-0.27
-0.29
-0.285
-0.295
-0.28
-0.28
-0.275
-0.275
-0.275
-0.285
-0.285
-0.29
-0.295
-0.295
-0.305
-0.3
-0.295
-0.305
-0.305
-0.305
-0.3
-0.3
-0.295
-0.295
-0.295
-0.305
-0.315
-0.31
-0.285
-0.28
-0.26
-0.25
-0.23
-0.215
-0.2
-0.2
-0.195
-0.185
-0.18
-0.165
-0.165
-0.16
-0.165
-0.16
-0.16
-0.16
-0.17
-0.185
-0.205
-0.215
-0.235
-0.265
-0.28
-0.27
-0.28
-0.285
-0.315
-0.33
-0.335
-0.355
-0.365
-0.375
-0.38
-0.385
-0.385
-0.38
-0.375
-0.37
-0.375
-0.355
-0.36
-0.365
-0.365
-0.37
-0.38
-0.375
-0.365
-0.365
-0.355
-0.355
-0.335
-0.335
-0.33
-0.335
-0.32
-0.33
-0.315
-0.305
-0.285
-0.25
-0.185
-0.085
0.055
0.225
0.44
0.66
0.89
1.075
1.195
1.21
1.1
0.83
0.445
-0.015
-0.545
-1.03
-1.405
-1.6
-1.605
-1.435
-1.155
-0.88
-0.625
-0.425
-0.295
-0.225
-0.19
-0.195
-0.205
-0.22
-0.235
-0.245
-0.235
-0.23
-0.225
-0.21
-0.19
-0.17
-0.175
-0.175
-0.165
-0.17
-0.17
-0.16
-0.165
-0.15
-0.145
-0.135
-0.125
-0.105
-0.1
-0.1
-0.085
-0.085
-0.085
-0.09
-0.075
-0.085
-0.08
-0.06
-0.025
-0.02
-0.005
0.015
0.01
0.02
0.015
0.015
0.025
0.035
0.045
0.07
0.075
0.095
0.105
0.11
0.12
0.115
0.125
0.125
0.135
0.14
0.155
0.155
0.17
0.165
0.165
0.16
0.165
0.17
0.165
0.17
0.16
0.155
0.16
0.17
0.175
0.185
0.2
0.205
0.2
0.18
0.165
0.145
0.11
0.085
0.065
0.045
0.03
-0.005
-0.02
-0.035
-0.06
-0.08
-0.105
-0.125
-0.145
-0.15
-0.17
-0.17
-0.18
-0.17
-0.18
-0.18
-0.19
-0.19
-0.195
-0.195
-0.205
-0.2
-0.21
-0.185
-0.18
-0.175
-0.18
-0.17
-0.175
-0.175
-0.175
-0.185
-0.21
-0.21
-0.21
-0.2
-0.185
-0.18
-0.165
-0.16
-0.175
-0.185
-0.2
-0.205
-0.205
-0.21
-0.205
-0.2
-0.195
-0.2
-0.19
-0.205
-0.21
-0.21
-0.22
-0.225
-0.225
-0.245
-0.23
-0.24
-0.25
-0.25
-0.24
-0.245
-0.235
-0.235
-0.24
-0.25
-0.25
-0.27
-0.27
-0.26
-0.255
-0.245
-0.25
-0.24
-0.255
-0.27
-0.275
-0.285
-0.29
-0.285
-0.285
-0.275
-0.265
-0.265
-0.27
-0.275
-0.29
-0.28
-0.27
-0.275
-0.28
-0.27
-0.255
-0.23
-0.215
-0.205
-0.19
-0.175
-0.165
-0.15
-0.145
-0.12
-0.115
-0.105
-0.12
-0.12
-0.115
-0.115
-0.12
-0.13
-0.125
-0.135
-0.155
-0.18
-0.21
-0.23
-0.255
-0.265
-0.265
-0.27
-0.275
-0.29
-0.3
-0.32
-0.345
-0.345
-0.34
-0.35
-0.325
-0.32
-0.32
-0.31
-0.325
-0.31
-0.315
-0.32
-0.32
-0.31
-0.315
-0.31
-0.305
-0.31
-0.315
-0.295
-0.295
-0.28
-0.275
-0.275
-0.275
-0.275
-0.265
-0.26
-0.26
-0.245
-0.21
-0.14
-0.055
0.085
0.23
0.42
0.615
0.825
1.025
1.19
1.28
1.255
1.095
0.795
0.375
-0.125
-0.65
-1.13
-1.45
-1.56
-1.48
-1.265
-1.0
-0.75
-0.535
-0.375
-0.255
-0.185
-0.16
-0.16
-0.175
-0.19
-0.205
-0.205
-0.205
-0.18
-0.17
-0.155
-0.16
-0.155
-0.13
-0.13
-0.135
-0.13
-0.135
-0.135
-0.14
-0.13
-0.13
-0.095
-0.1
-0.085
-0.075
-0.075
-0.085
-0.08
-0.095
-0.085
-0.07
-0.06
-0.05
-0.025
-0.02
0.0
0.01
0.005
0.005
0.005
0.015
0.025
0.05
0.055
0.075
0.095
0.095
0.105
0.11
0.125
0.13
0.135
0.145
0.155
0.16
0.17
0.195
0.195
0.21
0.22
0.22
0.22
0.215
0.205
0.205
0.2
0.195
0.205
0.215
0.22
0.22
0.225
0.24
0.24
0.22
0.22
0.2
0.185
0.19
0.185
0.17
0.165
0.13
0.12
0.08
0.055
0.03
0.005
-0.01
-0.035
-0.05
-0.065
-0.085
-0.09
-0.1
-0.1
-0.115
-0.125
-0.13
-0.155
-0.16
-0.165
-0.155
-0.16
-0.145
-0.145
-0.145
-0.14
-0.14
-0.135
-0.125
-0.13
-0.13
-0.135
-0.13
-0.12
-0.11
-0.1
-0.085
-0.07
-0.08
-0.075
-0.08
-0.095
-0.1
-0.105
-0.11
-0.09
-0.085
-0.08
-0.08
-0.07
-0.085
-0.1
-0.1
-0.11
-0.11
-0.115
-0.11
-0.1
-0.11
-0.115
-0.11
-0.115
-0.115
-0.13
-0.13
-0.135
-0.14
-0.145
-0.15
-0.15
-0.145
-0.15
-0.15
-0.135
-0.145
-0.14
-0.155
-0.16
-0.175
-0.19
-0.175
-0.175
-0.175
-0.19
-0.185
-0.18
-0.175
-0.195
-0.195
-0.195
-0.205
-0.21
-0.205
-0.195
-0.2
-0.19
-0.19
-0.185
-0.175
-0.185
-0.165
-0.17
-0.15
-0.145
-0.14
-0.115
-0.11
-0.08
-0.06
-0.025
0.0
-0.025
-0.025
-0.04
-0.045
-0.065
-0.07
-0.065
-0.075
-0.085
-0.085
-0.11
-0.125
-0.14
-0.165
-0.165
-0.19
-0.205
-0.205
-0.215
-0.23
-0.215
-0.24
-0.245
-0.235
-0.225
-0.225
-0.22
-0.21
-0.21
-0.21
-0.205
-0.195
-0.18
-0.175
-0.17
-0.17
-0.17
-0.17
-0.175
-0.155
-0.17
-0.16
-0.14
-0.145
-0.13
-0.105
-0.08
-0.075
-0.05
-0.01
0.06
0.18
0.345
0.54
0.78
1.02
1.235
1.405
1.51
1.48
1.315
1.025
0.605
0.11
-0.43
-0.935
-1.3
-1.465
-1.4
-1.2
-0.905
-0.615
-0.365
-0.175
-0.06
-0.03
-0.015
-0.02
-0.03
-0.055
-0.045
-0.04
-0.04
-0.03
-0.025
-0.04
-0.04
-0.05
-0.055
-0.04
-0.025
-0.01
0.005
0.01
0.02
0.025
0.025
0.025
0.03
0.04
0.045
0.055
0.07
0.09
0.085
0.105
0.125
0.13
0.15
0.15
0.155
0.165
0.185
0.2
0.225
0.245
0.26
0.27
0.27
0.27
0.285
0.29
0.295
0.315
0.315
0.335
0.36
0.365
0.39
0.415
0.425
0.44
0.425
0.415
0.39
0.375
0.355
0.345
0.35
0.36
0.355
0.355
0.355
0.37
0.37
0.365
0.37
0.365
0.37
0.36
0.35
0.35
0.34
0.34
0.325
0.32
0.295
0.265
0.23
0.195
0.175
0.155
0.14
0.135
0.125
0.12
0.105
0.095
0.075
0.05
0.045
0.035
0.03
0.025
0.025
0.035
0.04
0.045
0.045
0.04
0.035
0.03
0.035
0.02
0.015
0.015
0.02
0.04
0.045
0.045
0.05
0.055
0.06
0.065
0.06
0.065
0.065
0.05
0.05
0.07
0.075
0.095
0.095
0.1
0.08
0.06
0.06
0.055
0.035
0.04
0.03
0.025
0.025
0.04
0.05
0.045
0.06
0.065
0.03
0.01
-0.005
-0.01
-0.01
-0.01
0.01
0.015
0.02
0.015
0.005
-0.005
-0.015
-0.015
-0.015
-0.03
-0.02
-0.015
-0.005
-0.005
-0.01
-0.015
-0.005
0.0
0.0
-0.015
-0.015
-0.03
-0.02
-0.03
-0.015
-0.01
0.005
0.015
0.0
0.0
-0.005
-0.01
-0.005
0.0
0.01
0.025
0.04
0.055
0.07
0.07
0.075
0.09
0.085
0.095
0.125
0.135
0.14
0.15
0.14
0.14
0.13
0.125
0.125
0.115
0.115
0.1
0.075
0.045
0.015
0.01
0.01
0.01
0.0
0.0
-0.01
-0.03
-0.06
-0.07
-0.075
-0.075
-0.065
-0.055
-0.04
-0.03
-0.04
-0.035
-0.035
-0.04
-0.035
-0.05
-0.04
-0.035
-0.02
-0.01
0.0
-0.005
0.005
0.02
0.0
-0.005
-0.005
0.005
0.005
-0.005
0.03
0.035
0.05
0.09
0.175
0.285
0.44
0.635
0.845
1.07
1.275
1.455
1.575
1.585
1.475
1.2
0.815
0.35
-0.15
-0.625
-0.985
-1.18
-1.18
-1.03
-0.8
-0.565
-0.34
-0.17
-0.065
0.02
0.065
0.07
0.06
0.06
0.05
0.05
0.06
0.07
0.08
0.095
0.095
0.095
0.095
0.095
0.11
0.105
0.11
0.13
0.145
0.135
0.14
0.16
0.155
0.165
0.165
0.165
0.165
0.17
0.16
0.16
0.175
0.175
0.175
0.18
0.2
0.225
0.215
0.205
0.21
0.2
0.205
0.22
0.225
0.235
0.255
0.275
0.275
0.285
0.295
0.305
0.31
0.325
0.335
0.355
0.375
0.4
0.425
0.445
0.465
0.485
0.495
0.51
0.52
0.53
0.545
0.565
0.58
0.595
0.6
0.6
0.62
0.63
0.635
0.63
0.64
0.635
0.63
0.625
0.62
0.615
0.605
0.605
0.575
0.56
0.53
0.5
0.46
0.415
0.385
0.35
0.32
0.3
0.285
0.275
0.255
0.24
0.22
0.195
0.17
0.145
0.125
0.115
0.105
0.115
0.11
0.11
0.11
0.11
0.09
0.085
0.075
0.085
0.08
0.075
0.085
0.105
0.1
0.095
0.11
0.115
0.12
0.12
0.13
0.13
0.145
0.135
0.145
0.135
0.14
0.15
0.155
0.16
0.165
0.155
0.155
0.145
0.135
0.14
0.135
0.14
0.14
0.15
0.155
0.15
0.14
0.13
0.12
0.11
0.105
0.085
0.095
0.105
0.105
0.105
0.105
0.095
0.085
0.07
0.06
0.055
0.045
0.06
0.05
0.04
0.05
0.06
0.05
0.055
0.05
0.04
0.035
0.045
0.035
0.03
0.03
0.03
0.035
0.035
0.045
0.05
0.05
0.04
0.055
0.06
0.075
0.085
0.095
0.115
0.14
0.17
0.185
0.185
0.21
0.2
0.19
0.19
0.185
0.175
0.18
0.175
0.195
0.205
0.195
0.19
0.17
0.155
0.14
0.12
0.095
0.08
0.09
0.075
0.07
0.06
0.04
0.015
0.01
0.0
0.005
0.01
0.005
0.005
0.01
0.005
0.005
0.005
0.01
0.02
0.02
0.005
0.0
0.0
-0.005
-0.005
0.01
0.01
0.025
0.05
0.05
0.055
0.05
0.05
0.035
0.035
0.04
0.06
0.085
0.135
0.235
0.34
0.47
0.65
0.835
1.05
1.27
1.47
1.62
1.675
1.63
1.43
1.105
0.65
0.12
-0.425
-0.9
-1.215
-1.305
-1.22
-1.01
-0.765
-0.525
-0.325
-0.19
-0.07
0.005
0.06
0.095
0.1
0.12
0.1
0.095
0.095
0.1
0.12
0.125
0.15
0.165
0.165
0.175
0.195
0.19
0.19
0.18
0.195
0.195
0.22
0.215
0.245
0.25
0.255
0.24
0.23
0.23
0.235
0.25
0.255
0.255
0.265
0.275
0.28
0.285
0.285
0.29
0.295
0.29
0.3
0.3
0.315
0.315
0.34
0.355
0.385
0.395
0.405
0.425
0.44
0.445
0.455
0.46
0.455
0.47
0.495
0.505
0.53
0.54
0.55
0.545
0.54
0.535
0.53
0.535
0.535
0.535
0.535
0.54
0.545
0.55
0.545
0.545
0.53
0.515
0.515
0.51
0.505
0.5
0.495
0.49
0.485
0.46
0.44
0.41
0.385
0.36
0.32
0.31
0.29
0.255
0.235
0.215
0.205
0.2
0.19
0.155
0.145
0.14
0.125
0.105
0.105
0.105
0.095
0.1
0.1
0.105
0.095
0.095
0.075
0.075
0.065
0.055
0.06
0.075
0.08
0.085
0.1
0.095
0.095
0.09
0.08
0.08
0.08
0.07
0.065
0.105
0.1
0.105
0.105
0.105
0.105
0.1
0.1
0.11
0.11
0.105
0.095
0.09
0.1
0.1
0.105
0.1
0.095
0.095
0.075
0.07
0.05
0.06
0.05
0.04
0.035
0.045
0.035
0.025
0.02
0.02
0.015
-0.005
0.0
-0.02
-0.025
0.0
0.0
0.01
0.01
0.0
0.0
-0.015
-0.02
-0.025
-0.035
-0.035
-0.035
-0.035
-0.02
-0.015
-0.015
-0.015
-0.025
-0.025
-0.01
-0.02
-0.015
-0.02
-0.02
-0.005
0.015
0.04
0.055
0.075
0.095
0.095
0.11
0.105
0.105
0.12
0.115
0.115
0.135
0.14
0.145
0.13
0.115
0.11
0.09
0.075
0.065
0.05
0.04
0.035
0.025
0.02
0.015
0.01
-0.005
-0.015
-0.04
-0.045
-0.075
-0.075
-0.095
-0.085
-0.085
-0.08
-0.09
-0.075
-0.07
-0.075
-0.08
-0.075
-0.085
-0.095
-0.09
-0.095
-0.095
-0.085
-0.075
-0.065
-0.055
-0.055
-0.06
-0.075
-0.08
-0.075
-0.08
-0.09
-0.07
-0.045
-0.025
0.025
0.1
0.215
0.37
0.55
0.785
1.02
1.245
1.435
1.57
1.58
1.465
1.2
0.815
0.34
-0.16
-0.65
-1.05
-1.245
-1.24
-1.095
-0.845
-0.57
-0.34
-0.17
-0.055
0.0
0.005
0.01
-0.01
-0.025
-0.045
-0.04
-0.03
-0.015
-0.01
0.005
0.015
0.015
0.005
0.0
-0.01
-0.005
-0.005
0.01
0.03
0.03
0.05
0.06
0.06
0.06
0.065
0.075
0.085
0.09
0.09
0.085
0.105
0.125
0.14
0.17
0.185
0.2
0.195
0.195
0.21
0.21
0.22
0.24
0.25
0.27
0.285
0.29
0.3
0.31
0.325
0.33
0.34
0.345
0.345
0.35
0.355
0.37
0.38
0.39
0.385
0.38
0.365
0.365
0.355
0.365
0.365
0.37
0.38
0.37
0.375
0.355
0.35
0.32
0.3
0.265
0.25
0.225
0.21
0.19
0.17
0.155
0.145
0.135
0.125
0.09
0.075
0.05
0.05
0.035
0.02
0.025
0.025
0.025
0.02
0.03
0.025
0.02
0.01
-0.005
-0.015
-0.015
-0.035
-0.035
-0.03
-0.02
-0.02
-0.025
-0.01
-0.025
-0.035
-0.055
-0.045
-0.04
-0.055
-0.04
-0.025
-0.02
-0.005
-0.01
-0.015
-0.005
-0.015
-0.005
-0.01
-0.005
-0.01
-0.01
0.0
0.0
-0.005
0.0
0.0
-0.01
-0.015
-0.01
-0.02
-0.03
-0.05
-0.045
-0.055
-0.05
-0.05
-0.055
-0.055
-0.055
-0.06
-0.075
-0.1
-0.095
-0.115
-0.115
-0.115
-0.115
-0.105
-0.1
-0.115
-0.115
-0.13
-0.14
-0.16
-0.18
-0.17
-0.165
-0.15
-0.14
-0.14
-0.13
-0.15
-0.155
-0.16
-0.165
-0.175
-0.165
-0.165
-0.16
-0.15
-0.155
-0.15
-0.145
-0.16
-0.155
-0.16
-0.155
-0.165
-0.155
-0.16
-0.155
-0.12
-0.11
-0.095
-0.075
-0.075
-0.07
-0.06
-0.055
-0.05
-0.04
-0.06
-0.045
-0.025
-0.025
-0.015
-0.01
-0.01
-0.02
-0.035
-0.045
-0.07
-0.09
-0.095
-0.09
-0.09
-0.095
-0.11
-0.135
-0.14
-0.17
-0.2
-0.21
-0.215
-0.21
-0.21
-0.205
-0.205
-0.19
-0.19
-0.18
-0.185
-0.185
-0.2
-0.205
-0.24
-0.24
-0.24
-0.22
-0.22
-0.21
-0.2
-0.195
-0.195
-0.2
-0.2
-0.195
-0.2
-0.185
-0.17
-0.14
-0.05
0.075
0.23
0.415
0.63
0.87
1.095
1.285
1.415
1.445
1.355
1.11
0.74
0.26
-0.28
-0.81
-1.21
-1.405
-1.395
-1.215
-0.965
-0.7
-0.47
-0.31
-0.195
-0.13
-0.105
-0.09
-0.095
-0.1
-0.11
-0.135
-0.15
-0.13
-0.13
-0.11
-0.11
-0.09
-0.07
-0.055
-0.03
-0.025
-0.02
-0.01
-0.015
-0.015
-0.025
-0.025
-0.025
-0.015
-0.005
0.0
0.005
0.0
-0.005
-0.01
-0.01
-0.005
0.015
0.035
0.06
0.06
0.085
0.095
0.095
0.1
0.105
0.12
0.12
0.135
0.15
0.17
0.185
0.205
0.22
0.24
0.26
0.26
0.285
0.28
0.3
0.3
0.3
0.3
0.3
0.295
0.295
0.31
0.31
0.31
0.315
0.31
0.29
0.285
0.285
0.29
0.29
0.29
0.27
0.26
0.25
0.23
0.205
0.175
0.145
0.11
0.075
0.055
0.025
0.015
0.0
-0.005
-0.02
-0.025
-0.04
-0.07
-0.095
-0.115
-0.15
-0.165
-0.175
-0.175
-0.175
-0.19
-0.19
-0.205
-0.215
-0.235
-0.235
-0.25
-0.25
-0.25
-0.24
-0.245
-0.24
-0.24
-0.23
-0.23
-0.24
-0.255
-0.25
-0.26
-0.265
-0.26
-0.245
