Lead II
-0.145
-0.165
-0.185
-0.185
-0.18
-0.17
-0.175
-0.2
-0.215
-0.21
-0.2
-0.18
-0.175
-0.18
-0.18
-0.19
-0.165
-0.155
-0.145
-0.155
-0.16
-0.16
-0.16
-0.15
-0.145
-0.155
-0.15
-0.145
-0.13
-0.115
-0.12
-0.125
-0.115
-0.125
-0.105
-0.095
-0.11
-0.105
-0.125
-0.115
-0.11
-0.105
-0.105
-0.125
-0.135
-0.13
-0.13
-0.125
-0.13
-0.135
-0.15
-0.165
-0.175
-0.165
-0.15
-0.165
-0.17
-0.175
-0.17
-0.17
-0.16
-0.165
-0.15
-0.155
-0.145
-0.155
-0.16
-0.165
-0.17
-0.145
-0.06
0.05
0.18
0.315
0.44
0.565
0.76
0.905
1.035
1.105
1.155
1.15
1.1
1.015
0.89
0.69
0.45
0.195
0.02
-0.045
-0.095
-0.16
-0.21
-0.235
-0.23
-0.23
-0.245
-0.265
-0.285
-0.315
-0.31
-0.305
-0.315
-0.325
-0.35
-0.36
-0.355
-0.36
-0.355
-0.36
-0.365
-0.37
-0.36
-0.355
-0.355
-0.365
-0.37
-0.385
-0.375
-0.365
-0.36
-0.37
-0.38
-0.385
-0.38
-0.365
-0.36
-0.385
-0.39
-0.385
-0.36
-0.355
-0.345
-0.345
-0.365
-0.375
-0.365
-0.345
-0.34
-0.35
-0.35
-0.355
-0.365
-0.335
-0.325
-0.33
-0.335
-0.345
-0.355
-0.335
-0.325
-0.34
-0.345
-0.34
-0.345
-0.345
-0.345
-0.335
-0.34
-0.345
-0.325
-0.31
-0.305
-0.3
-0.31
-0.31
-0.26
-0.24
-0.225
-0.23
-0.235
-0.23
-0.215
-0.18
-0.18
-0.18
-0.185
-0.205
-0.195
-0.18
-0.16
-0.16
-0.165
-0.165
-0.16
-0.16
-0.155
-0.165
-0.175
-0.175
-0.17
-0.165
-0.16
-0.165
-0.175
-0.165
-0.145
-0.165
-0.155
-0.17
-0.175
-0.185
-0.16
-0.16
-0.16
-0.175
-0.195
-0.205
-0.195
-0.185
-0.18
-0.19
-0.215
-0.23
-0.22
-0.19
-0.175
-0.185
-0.195
-0.19
-0.195
-0.18
-0.18
-0.17
-0.18
-0.18
-0.175
-0.16
-0.165
-0.17
-0.17
-0.175
-0.16
-0.15
-0.135
-0.155
-0.165
-0.17
-0.155
-0.125
-0.135
-0.145
-0.14
-0.15
-0.14
-0.135
-0.12
-0.115
-0.145
-0.155
-0.14
-0.13
-0.125
-0.135
-0.155
-0.16
-0.155
-0.145
-0.155
-0.15
-0.16
-0.18
-0.175
-0.175
-0.185
-0.185
-0.195
-0.19
-0.175
-0.17
-0.165
-0.17
-0.19
-0.19
-0.16
-0.165
-0.15
-0.165
-0.175
-0.175
-0.16
-0.145
-0.13
-0.135
-0.15
-0.145
-0.13
-0.125
-0.11
-0.115
-0.12
-0.125
-0.13
-0.1
-0.1
-0.105
-0.12
-0.125
-0.125
-0.125
-0.095
-0.055
0.015
0.125
0.24
0.35
0.455
0.555
0.65
0.77
0.88
0.945
0.99
0.965
0.905
0.82
0.735
0.605
0.435
0.215
0.035
-0.07
-0.12
-0.15
-0.205
-0.24
-0.26
-0.26
-0.265
-0.255
-0.275
-0.285
-0.29
-0.3
-0.29
-0.29
-0.285
-0.305
-0.3
-0.3
-0.285
-0.27
-0.265
-0.27
-0.295
-0.305
-0.305
-0.305
-0.28
-0.28
-0.305
-0.305
-0.3
-0.29
-0.295
-0.3
-0.325
-0.345
-0.33
-0.32
-0.315
-0.35
-0.35
-0.34
-0.335
-0.32
-0.34
-0.335
-0.34
-0.345
-0.32
-0.315
-0.305
-0.33
-0.325
-0.325
-0.325
-0.3
-0.285
-0.29
-0.29
-0.3
-0.28
-0.265
-0.26
-0.255
-0.24
-0.24
-0.225
-0.205
-0.19
-0.2
-0.2
-0.18
-0.18
-0.16
-0.15
-0.145
-0.155
-0.155
-0.135
-0.125
-0.12
-0.125
-0.14
-0.14
-0.135
-0.13
-0.125
-0.135
-0.155
-0.17
-0.175
-0.145
-0.16
-0.175
-0.195
-0.195
-0.19
-0.175
-0.165
-0.17
-0.17
-0.19
-0.165
-0.15
-0.145
-0.15
-0.17
-0.17
-0.16
-0.155
-0.14
-0.14
-0.145
-0.145
-0.14
-0.11
-0.105
-0.105
-0.13
-0.12
-0.105
-0.105
-0.1
-0.095
-0.115
-0.11
-0.105
-0.095
-0.095
-0.1
-0.1
-0.105
-0.1
-0.085
-0.09
-0.11
-0.11
-0.105
-0.125
-0.11
-0.13
-0.14
-0.16
-0.18
-0.16
-0.145
-0.14
-0.145
-0.155
-0.18
-0.15
-0.14
-0.13
-0.14
-0.145
-0.145
-0.145
-0.125
-0.125
-0.11
-0.115
-0.13
-0.12
-0.115
-0.105
-0.1
-0.11
-0.1
-0.11
-0.1
-0.095
-0.105
-0.105
-0.1
-0.105
-0.075
-0.08
-0.085
-0.095
-0.115
-0.105
-0.08
-0.04
0.02
0.12
0.24
0.38
0.52
0.655
0.805
0.92
1.0
1.06
1.065
1.045
0.955
0.835
0.7
0.51
0.28
0.115
-0.005
-0.06
-0.105
-0.155
-0.195
-0.215
-0.215
-0.23
-0.235
-0.225
-0.23
-0.23
-0.25
-0.26
-0.27
-0.265
-0.255
-0.255
-0.275
-0.29
-0.285
-0.285
-0.265
-0.255
-0.265
-0.27
-0.28
-0.29
-0.27
-0.27
-0.285
-0.285
-0.275
-0.275
-0.27
-0.27
-0.285
-0.28
-0.305
-0.3
-0.285
-0.29
-0.305
-0.325
-0.315
-0.315
-0.315
-0.31
-0.325
-0.34
-0.345
-0.35
-0.335
-0.315
-0.31
-0.325
-0.33
-0.315
-0.3
-0.295
-0.29
-0.3
-0.3
-0.29
-0.27
-0.275
-0.265
-0.275
-0.285
-0.27
-0.26
-0.245
-0.24
-0.24
-0.245
-0.215
-0.205
-0.185
-0.185
-0.18
-0.175
-0.165
-0.14
-0.12
-0.115
-0.12
-0.14
-0.13
-0.12
-0.11
-0.11
-0.115
-0.12
-0.12
-0.125
-0.125
-0.12
-0.135
-0.15
-0.13
-0.135
-0.125
-0.14
-0.175
-0.17
-0.165
-0.165
-0.165
-0.175
-0.18
-0.195
-0.17
-0.155
-0.15
-0.15
-0.15
-0.165
-0.165
-0.145
-0.115
-0.12
-0.135
-0.145
-0.145
-0.13
-0.12
-0.115
-0.115
-0.125
-0.09
-0.085
-0.075
-0.085
-0.09
-0.09
-0.095
-0.075
-0.085
-0.09
-0.1
-0.105
-0.095
-0.09
-0.08
-0.085
-0.095
-0.11
-0.105
-0.1
-0.1
-0.11
-0.115
-0.135
-0.14
-0.12
-0.12
-0.125
-0.14
-0.155
-0.15
-0.145
-0.135
-0.135
-0.135
-0.13
-0.13
-0.13
-0.12
-0.12
-0.125
-0.12
-0.125
-0.115
-0.105
-0.115
-0.125
-0.12
-0.115
-0.11
-0.095
-0.095
-0.11
-0.115
-0.12
-0.1
-0.095
-0.09
-0.115
-0.12
-0.115
-0.1
-0.09
-0.08
-0.09
-0.105
-0.105
-0.1
-0.105
-0.1
-0.115
-0.115
-0.125
-0.115
-0.12
-0.125
-0.135
-0.135
-0.14
-0.135
-0.135
-0.145
-0.135
-0.155
-0.14
-0.125
-0.12
-0.13
-0.14
-0.15
-0.155
-0.12
-0.115
-0.12
-0.13
-0.13
-0.135
-0.12
-0.11
-0.11
-0.11
-0.12
-0.12
-0.09
-0.085
-0.08
-0.095
-0.1
-0.1
-0.08
-0.035
0.055
0.165
0.265
0.39
0.51
0.615
0.76
0.88
0.98
1.05
1.065
1.04
0.975
0.885
0.73
0.54
0.31
0.12
0.0
-0.065
-0.14
-0.175
-0.2
-0.205
-0.22
-0.26
-0.27
-0.28
-0.255
-0.255
-0.275
-0.29
-0.305
-0.305
-0.28
-0.28
-0.275
-0.295
-0.305
-0.31
-0.305
-0.305
-0.29
-0.295
-0.295
-0.295
-0.29
-0.28
-0.28
-0.29
-0.3
-0.305
-0.28
-0.265
-0.27
-0.285
-0.29
-0.28
-0.265
-0.26
-0.27
-0.285
-0.3
-0.295
-0.285
-0.275
-0.28
-0.285
-0.3
-0.3
-0.29
-0.285
-0.29
-0.31
-0.305
-0.325
-0.31
-0.3
-0.315
-0.335
-0.33
-0.31
-0.285
-0.295
-0.285
-0.29
-0.29
-0.275
-0.27
-0.255
-0.265
-0.27
-0.265
-0.26
-0.24
-0.205
-0.2
-0.19
-0.195
-0.175
-0.155
-0.14
-0.14
-0.14
-0.14
-0.13
-0.125
-0.11
-0.095
-0.1
-0.11
-0.105
-0.11
-0.1
-0.105
-0.11
-0.115
-0.11
-0.105
-0.095
-0.115
-0.12
-0.14
-0.14
-0.135
-0.125
-0.155
-0.17
-0.17
-0.18
-0.175
-0.165
-0.165
-0.175
-0.185
-0.175
-0.18
-0.17
-0.18
-0.18
-0.175
-0.16
-0.155
-0.14
-0.145
-0.155
-0.16
-0.145
-0.15
-0.135
-0.135
-0.155
-0.15
-0.13
-0.115
-0.1
-0.095
-0.115
-0.125
-0.115
-0.125
-0.11
-0.105
-0.11
-0.125
-0.12
-0.115
-0.11
-0.11
-0.115
-0.135
-0.125
-0.11
-0.12
-0.125
-0.145
-0.14
-0.14
-0.145
-0.13
-0.15
-0.18
-0.185
-0.175
-0.17
-0.175
-0.165
-0.17
-0.185
-0.175
-0.16
-0.145
-0.155
-0.16
-0.155
-0.15
-0.135
-0.13
-0.12
-0.14
-0.165
-0.14
-0.145
-0.14
-0.15
-0.135
-0.14
-0.145
-0.12
-0.1
-0.105
-0.13
-0.15
-0.15
-0.135
-0.125
-0.115
-0.125
-0.135
-0.13
-0.13
-0.13
-0.11
-0.12
-0.145
-0.145
-0.145
-0.12
-0.155
-0.15
-0.16
-0.165
-0.155
-0.155
-0.165
-0.175
-0.19
-0.185
-0.185
-0.175
-0.18
-0.19
-0.195
-0.195
-0.18
-0.15
-0.16
-0.16
-0.175
-0.185
-0.16
-0.135
-0.14
-0.14
-0.14
-0.14
-0.12
-0.125
-0.115
-0.125
-0.135
-0.14
-0.135
-0.09
-0.055
0.015
0.125
0.235
0.355
0.48
0.59
0.705
0.83
0.945
1.045
1.1
1.1
1.045
0.985
0.905
0.78
0.615
0.38
0.18
0.045
-0.02
-0.06
-0.125
-0.185
-0.225
-0.25
-0.25
-0.26
-0.27
-0.29
-0.325
-0.34
-0.34
-0.33
-0.315
-0.32
-0.335
-0.34
-0.345
-0.345
-0.34
-0.34
-0.35
-0.35
-0.35
-0.34
-0.34
-0.345
-0.355
-0.365
-0.365
-0.355
-0.345
-0.35
-0.355
-0.355
-0.345
-0.325
-0.325
-0.32
-0.335
-0.335
-0.325
-0.31
-0.305
-0.3
-0.295
-0.3
-0.31
-0.305
-0.28
-0.295
-0.295
-0.29
-0.3
-0.29
-0.295
-0.3
-0.315
-0.315
-0.295
-0.3
-0.28
-0.305
-0.31
-0.33
-0.315
-0.315
-0.31
-0.305
-0.32
-0.335
-0.345
-0.31
-0.305
-0.305
-0.31
-0.325
-0.32
-0.3
-0.28
-0.265
-0.275
-0.28
-0.255
-0.24
-0.215
-0.21
-0.21
-0.215
-0.215
-0.195
-0.16
-0.15
-0.155
-0.16
-0.17
-0.155
-0.155
-0.145
-0.15
-0.15
-0.155
-0.145
-0.13
-0.14
-0.16
-0.155
-0.145
-0.15
-0.135
-0.15
-0.155
-0.17
-0.18
-0.16
-0.155
-0.17
-0.175
-0.195
-0.195
-0.195
-0.195
-0.19
-0.215
-0.215
-0.215
-0.215
-0.21
-0.22
-0.23
-0.225
-0.21
-0.205
-0.175
-0.18
-0.195
-0.205
-0.195
-0.17
-0.15
-0.14
-0.14
-0.15
-0.155
-0.15
-0.13
-0.125
-0.135
-0.14
-0.15
-0.145
-0.115
-0.11
-0.125
-0.145
-0.135
-0.13
-0.11
-0.11
-0.125
-0.13
-0.125
-0.12
-0.115
-0.125
-0.13
-0.135
-0.135
-0.135
-0.13
-0.135
-0.145
-0.15
-0.145
-0.145
-0.14
-0.155
-0.155
-0.18
-0.195
-0.18
-0.17
-0.175
-0.21
-0.22
-0.21
-0.2
-0.18
-0.19
-0.19
-0.19
-0.185
-0.17
-0.16
-0.165
-0.17
-0.175
-0.175
-0.165
-0.15
-0.15
-0.16
-0.155
-0.165
-0.145
-0.125
-0.13
-0.13
-0.15
-0.145
-0.15
-0.125
-0.12
-0.12
-0.135
-0.125
-0.125
-0.11
-0.12
-0.125
-0.135
-0.135
-0.115
-0.115
-0.125
-0.13
-0.145
-0.145
-0.13
-0.115
-0.125
-0.135
-0.145
-0.15
-0.14
-0.13
-0.14
-0.17
-0.19
-0.18
-0.14
-0.065
0.015
0.115
0.23
0.335
0.475
0.6
0.73
0.86
0.955
1.015
1.035
1.025
0.96
0.855
0.72
0.54
0.315
0.15
0.04
-0.035
-0.105
-0.17
-0.2
-0.205
-0.2
-0.22
-0.24
-0.25
-0.245
-0.25
-0.255
-0.27
-0.275
-0.29
-0.285
-0.27
-0.265
-0.295
-0.3
-0.3
-0.29
-0.28
-0.3
-0.31
-0.32
-0.33
-0.32
-0.32
-0.32
-0.335
-0.35
-0.365
-0.365
-0.365
-0.365
-0.375
-0.39
-0.395
-0.395
-0.375
-0.38
-0.385
-0.38
-0.365
-0.345
-0.33
-0.345
-0.345
-0.36
-0.345
-0.33
-0.315
-0.325
-0.34
-0.35
-0.345
-0.34
-0.315
-0.315
-0.305
-0.315
-0.305
-0.295
-0.28
-0.28
-0.275
-0.27
-0.28
-0.285
-0.265
-0.275
-0.255
-0.265
-0.255
-0.25
-0.235
-0.235
-0.235
-0.22
-0.225
-0.205
-0.185
-0.185
-0.19
-0.19
-0.195
-0.19
-0.17
-0.17
-0.18
-0.19
-0.2
-0.19
-0.18
-0.18
-0.18
-0.18
-0.185
-0.185
-0.16
-0.155
-0.16
-0.17
-0.165
-0.16
-0.145
-0.145
-0.155
-0.16
-0.16
-0.15
-0.13
-0.155
-0.125
-0.135
-0.14
-0.13
-0.12
-0.125
-0.135
-0.145
-0.15
-0.135
-0.13
-0.135
-0.15
-0.16
-0.175
-0.145
-0.15
-0.14
-0.14
-0.15
-0.165
-0.14
-0.13
-0.14
-0.14
-0.15
-0.17
-0.17
-0.165
-0.17
-0.16
-0.17
-0.175
-0.17
-0.155
-0.15
-0.16
-0.165
-0.165
-0.165
-0.16
-0.15
-0.15
-0.155
-0.155
-0.15
-0.135
-0.16
-0.155
-0.145
-0.16
-0.155
-0.13
-0.12
-0.14
-0.15
-0.15
-0.15
-0.125
-0.12
-0.125
-0.14
-0.145
-0.13
-0.12
-0.115
-0.125
-0.135
-0.135
-0.125
-0.115
-0.12
-0.115
-0.125
-0.125
-0.125
-0.13
-0.135
-0.14
-0.145
-0.16
-0.155
-0.145
-0.145
-0.15
-0.16
-0.16
-0.145
-0.135
-0.135
-0.15
-0.155
-0.175
-0.145
-0.15
-0.145
-0.15
-0.155
-0.18
-0.17
-0.16
-0.145
-0.16
-0.165
-0.165
-0.15
-0.14
-0.12
-0.14
-0.135
-0.13
-0.125
-0.13
-0.12
-0.125
-0.13
-0.135
-0.12
-0.1
-0.105
-0.105
-0.115
-0.13
-0.125
-0.1
-0.105
-0.115
-0.14
-0.15
-0.15
-0.135
-0.14
-0.16
-0.16
-0.18
-0.16
-0.16
-0.165
-0.165
-0.17
-0.165
-0.155
-0.145
-0.165
-0.18
-0.18
-0.17
-0.155
-0.16
-0.15
-0.15
-0.165
-0.17
-0.145
-0.135
-0.125
-0.14
-0.155
-0.145
-0.135
-0.125
-0.13
-0.12
-0.145
-0.14
-0.13
-0.145
-0.12
-0.13
-0.145
-0.125
-0.115
-0.11
-0.12
-0.135
-0.15
-0.135
-0.135
-0.11
-0.12
-0.135
-0.155
-0.15
-0.145
-0.135
-0.15
-0.16
-0.185
-0.2
-0.185
-0.165
-0.165
-0.175
-0.18
-0.195
-0.18
-0.155
-0.15
-0.155
-0.16
-0.165
-0.15
-0.145
-0.135
-0.13
-0.15
-0.14
-0.14
-0.125
-0.125
-0.135
-0.14
-0.13
-0.11
-0.095
-0.105
-0.125
-0.13
-0.125
-0.11
-0.09
-0.09
-0.095
-0.12
-0.12
-0.105
-0.095
-0.085
-0.11
-0.115
-0.135
-0.11
-0.105
-0.105
-0.105
-0.11
-0.125
-0.115
-0.13
-0.125
-0.14
-0.16
-0.14
-0.075
0.035
0.15
0.27
0.36
0.485
0.62
0.77
0.905
0.975
0.995
0.965
0.905
0.81
0.615
0.36
0.12
-0.015
-0.065
-0.08
-0.115
-0.18
-0.195
-0.2
-0.205
-0.205
-0.22
-0.225
-0.255
-0.26
-0.255
-0.245
-0.235
-0.265
-0.285
-0.3
-0.28
-0.27
-0.27
-0.275
-0.305
-0.315
-0.31
-0.295
-0.3
-0.305
-0.335
-0.34
-0.335
-0.33
-0.33
-0.335
-0.345
-0.355
-0.355
-0.34
-0.325
-0.34
-0.35
-0.335
-0.32
-0.33
-0.33
-0.315
-0.325
-0.325
-0.3
-0.29
-0.28
-0.275
-0.285
-0.28
-0.265
-0.245
-0.245
-0.25
-0.255
-0.25
-0.235
-0.23
-0.205
-0.22
-0.24
-0.235
-0.215
-0.2
-0.205
-0.23
-0.235
-0.24
-0.215
-0.19
-0.195
-0.205
-0.215
-0.22
-0.205
-0.195
-0.21
-0.195
-0.2
-0.205
-0.195
-0.2
-0.17
-0.175
-0.19
-0.18
-0.165
-0.155
-0.16
-0.155
-0.155
-0.155
-0.16
-0.155
-0.15
-0.165
-0.185
-0.175
-0.155
-0.15
-0.145
-0.155
-0.16
-0.16
-0.15
-0.13
-0.125
-0.14
-0.145
-0.16
-0.15
-0.135
-0.14
-0.145
-0.15
-0.16
-0.16
-0.14
-0.135
-0.145
-0.16
-0.17
-0.17
-0.17
-0.18
-0.185
-0.2
-0.2
-0.18
-0.19
-0.18
-0.19
-0.195
-0.195
-0.18
-0.17
-0.165
-0.18
-0.19
-0.195
-0.19
-0.155
-0.155
-0.165
-0.185
-0.185
-0.18
-0.16
-0.145
-0.155
-0.16
-0.165
-0.165
-0.15
-0.13
-0.14
-0.145
-0.16
-0.145
-0.135
-0.135
-0.14
-0.155
-0.155
-0.15
-0.14
-0.145
-0.16
-0.17
-0.165
-0.16
-0.15
-0.155
-0.17
-0.18
-0.19
-0.185
-0.18
-0.18
-0.19
-0.205
-0.205
-0.2
-0.185
-0.18
-0.175
-0.205
-0.19
-0.195
-0.185
-0.17
-0.17
-0.17
-0.165
-0.17
-0.175
-0.165
-0.16
-0.165
-0.17
-0.165
-0.15
-0.14
-0.14
-0.15
-0.17
-0.155
-0.15
-0.135
-0.14
-0.14
-0.16
-0.145
-0.14
-0.14
-0.155
-0.155
-0.155
-0.155
-0.145
-0.13
-0.15
-0.165
-0.16
-0.16
-0.155
-0.145
-0.165
-0.185
-0.2
-0.195
-0.19
-0.165
-0.11
-0.025
0.095
0.24
0.395
0.525
0.685
0.84
0.96
1.04
1.055
1.03
0.94
0.81
0.61
0.34
0.13
-0.005
-0.07
-0.14
-0.195
-0.245
-0.245
-0.25
-0.25
-0.275
-0.295
-0.3
-0.285
-0.29
-0.3
-0.32
-0.33
-0.32
-0.325
-0.345
-0.345
-0.36
-0.36
-0.36
-0.355
-0.355
-0.37
-0.39
-0.395
-0.395
-0.38
-0.39
-0.395
-0.425
-0.42
-0.41
-0.39
-0.385
-0.385
-0.395
-0.405
-0.385
-0.38
-0.355
-0.355
-0.365
-0.375
-0.375
-0.365
-0.345
-0.35
-0.36
-0.365
-0.355
-0.34
-0.33
-0.315
-0.33
-0.33
-0.32
-0.325
-0.32
-0.305
-0.305
-0.3
-0.305
-0.31
-0.295
-0.295
-0.3
-0.315
-0.3
-0.28
-0.28
-0.285
-0.295
-0.3
-0.29
-0.285
-0.27
-0.275
-0.28
-0.295
-0.285
-0.275
-0.27
-0.255
-0.255
-0.265
-0.255
-0.245
-0.24
-0.225
-0.225
-0.23
-0.24
-0.22
-0.205
-0.205
-0.21
-0.21
-0.2
-0.195
-0.195
-0.195
-0.19
-0.205
-0.195
-0.185
-0.175
-0.19
-0.185
-0.2
-0.2
-0.175
-0.17
-0.185
-0.2
-0.2
-0.185
-0.175
-0.17
-0.16
-0.19
-0.195
-0.195
-0.205
-0.19
-0.2
-0.215
-0.24
-0.23
-0.23
-0.225
-0.225
-0.23
-0.245
-0.245
-0.23
-0.215
-0.22
-0.235
-0.225
-0.225
-0.205
-0.19
-0.185
-0.195
-0.205
-0.2
-0.18
-0.17
-0.17
-0.18
-0.195
-0.195
-0.175
-0.16
-0.165
-0.19
-0.215
-0.19
-0.175
-0.16
-0.165
-0.175
-0.195
-0.19
-0.17
-0.165
-0.15
-0.17
-0.185
-0.19
-0.18
-0.17
-0.18
-0.19
-0.195
-0.21
-0.2
-0.195
-0.2
-0.22
-0.22
-0.225
-0.215
-0.215
-0.21
-0.235
-0.23
-0.205
-0.19
-0.18
-0.2
-0.205
-0.215
-0.19
-0.175
-0.165
-0.185
-0.19
-0.21
-0.185
-0.19
-0.185
-0.17
-0.195
-0.205
-0.195
-0.185
-0.185
-0.175
-0.165
-0.185
-0.175
-0.17
-0.165
-0.165
-0.165
-0.17
-0.175
-0.17
-0.16
-0.17
-0.185
-0.185
-0.175
-0.18
-0.17
-0.2
-0.21
-0.21
-0.21
-0.215
-0.21
-0.215
-0.23
-0.24
-0.23
-0.215
-0.2
-0.195
-0.215
-0.22
-0.215
-0.2
-0.17
-0.185
-0.2
-0.2
-0.19
-0.185
-0.165
-0.16
-0.175
-0.175
-0.165
-0.16
-0.14
-0.135
-0.145
-0.18
-0.165
-0.145
-0.135
-0.125
-0.15
-0.15
-0.155
-0.155
-0.155
-0.15
-0.14
-0.09
0.025
0.16
0.31
0.445
0.565
0.715
0.87
0.99
1.06
1.035
0.985
0.905
0.78
0.58
0.335
0.105
-0.045
-0.11
-0.145
-0.19
-0.235
-0.245
-0.26
-0.265
-0.28
-0.27
-0.265
-0.275
-0.28
-0.295
-0.29
-0.275
-0.27
-0.29
-0.3
-0.305
-0.295
-0.285
-0.295
-0.275
-0.315
-0.305
-0.305
-0.3
-0.295
-0.3
-0.32
-0.34
-0.32
-0.315
-0.3
-0.31
-0.315
-0.34
-0.33
-0.33
-0.325
-0.325
-0.335
-0.345
-0.35
-0.335
-0.335
-0.315
-0.325
-0.33
-0.315
-0.31
-0.3
-0.29
-0.3
-0.29
-0.285
-0.27
-0.265
-0.265
-0.275
-0.275
-0.27
-0.265
-0.245
-0.245
-0.255
-0.26
-0.235
-0.23
-0.22
-0.21
-0.23
-0.235
-0.22
-0.205
-0.19
-0.18
-0.19
-0.21
-0.2
-0.2
-0.155
-0.16
-0.15
-0.145
-0.155
-0.16
-0.145
-0.15
-0.16
-0.17
-0.19
-0.18
-0.18
-0.18
-0.195
-0.195
-0.205
-0.18
-0.155
-0.17
-0.175
-0.175
-0.16
-0.14
-0.13
-0.135
-0.14
-0.155
-0.155
-0.145
-0.125
-0.13
-0.145
-0.15
-0.155
-0.125
-0.12
-0.13
-0.14
-0.155
-0.14
-0.13
-0.105
-0.105
-0.135
-0.13
-0.14
-0.13
-0.12
-0.115
-0.12
-0.145
-0.14
-0.13
-0.14
-0.15
-0.15
-0.16
-0.16
-0.15
-0.15
-0.165
-0.175
-0.185
-0.19
-0.17
-0.16
-0.17
-0.175
-0.185
-0.185
-0.17
-0.145
-0.16
-0.145
-0.15
-0.145
-0.14
-0.12
-0.125
-0.14
-0.14
-0.145
-0.14
-0.125
-0.105
-0.11
-0.115
-0.13
-0.125
-0.115
-0.12
-0.125
-0.11
-0.105
-0.095
-0.1
-0.1
-0.115
-0.12
-0.115
-0.1
-0.115
-0.11
-0.14
-0.15
-0.145
-0.13
-0.13
-0.135
-0.16
-0.175
-0.185
-0.165
-0.155
-0.165
-0.185
-0.19
-0.185
-0.175
-0.155
-0.15
-0.155
-0.18
-0.18
-0.165
-0.14
-0.13
-0.14
-0.13
-0.125
-0.14
-0.12
-0.12
-0.13
-0.145
-0.12
-0.125
-0.115
-0.105
-0.11
-0.115
-0.125
-0.095
-0.085
-0.1
-0.1
-0.115
-0.11
-0.095
-0.095
-0.085
-0.095
-0.11
-0.11
-0.1
-0.085
-0.08
-0.095
-0.12
-0.125
-0.11
-0.105
-0.115
-0.14
-0.16
-0.17
-0.155
-0.09
-0.005
0.12
0.24
0.365
0.525
0.675
0.84
0.985
1.08
1.125
1.13
1.085
0.97
0.805
0.565
0.285
0.08
-0.02
-0.075
-0.135
-0.175
-0.195
-0.19
-0.2
-0.21
-0.225
-0.245
-0.255
-0.255
-0.24
-0.26
-0.265
-0.28
-0.28
-0.3
-0.3
-0.295
-0.31
-0.325
-0.34
-0.365
-0.355
-0.355
-0.355
-0.365
-0.365
-0.365
-0.335
-0.335
-0.33
-0.355
-0.355
-0.335
-0.31
-0.31
-0.315
-0.33
-0.33
-0.325
-0.32
-0.305
-0.31
-0.305
-0.305
-0.285
-0.26
-0.25
-0.27
-0.265
-0.255
-0.23
-0.22
-0.21
-0.23
-0.255
-0.24
-0.23
-0.21
-0.21
-0.22
-0.24
-0.24
-0.24
-0.205
-0.205
-0.205
-0.21
-0.21
-0.195
-0.185
-0.195
-0.2
-0.215
-0.2
-0.185
-0.17
-0.165
-0.18
-0.19
-0.18
-0.16
-0.15
-0.165
-0.17
-0.185
-0.17
-0.155
-0.135
-0.14
-0.155
-0.17
-0.17
-0.16
-0.14
-0.135
-0.15
-0.155
-0.17
-0.15
-0.135
-0.145
-0.155
-0.15
-0.17
-0.155
-0.155
-0.13
-0.15
-0.15
-0.155
-0.15
-0.15
-0.16
-0.145
-0.15
-0.16
-0.135
-0.115
-0.135
-0.15
-0.16
-0.155
-0.15
-0.155
-0.165
-0.17
-0.175
-0.185
-0.185
-0.17
-0.17
-0.185
-0.18
-0.19
-0.18
-0.185
-0.175
-0.16
-0.18
-0.17
-0.16
-0.16
-0.145
-0.17
-0.165
-0.17
-0.155
-0.14
-0.15
-0.15
-0.175
-0.165
-0.145
-0.135
-0.14
-0.16
-0.15
-0.16
-0.16
-0.14
-0.15
-0.145
-0.145
-0.145
-0.13
-0.125
-0.125
-0.135
-0.14
-0.145
-0.14
-0.13
-0.13
-0.145
-0.165
-0.17
-0.165
-0.165
-0.17
-0.165
-0.135
-0.085
0.015
0.125
0.22
0.355
0.46
0.595
0.745
0.88
0.99
1.05
1.075
1.07
1.015
0.935
0.81
0.605
0.365
0.13
-0.015
-0.085
-0.115
-0.185
-0.24
-0.275
-0.245
-0.24
-0.24
-0.265
-0.29
-0.325
-0.32
-0.305
-0.305
-0.315
-0.32
-0.335
-0.32
-0.32
-0.315
-0.34
-0.35
-0.365
-0.355
-0.35
-0.35
-0.365
-0.39
-0.395
-0.385
-0.385
-0.385
-0.405
-0.42
-0.425
-0.425
-0.43
-0.415
-0.42
-0.435
-0.45
-0.44
-0.44
-0.43
-0.43
-0.42
-0.425
-0.435
-0.415
-0.395
-0.41
-0.4
-0.405
-0.39
-0.37
-0.39
-0.39
-0.395
-0.39
-0.37
-0.37
-0.36
-0.36
-0.37
-0.365
-0.36
-0.35
-0.355
-0.34
-0.36
-0.34
-0.34
-0.335
-0.315
-0.315
-0.31
-0.305
-0.285
-0.27
-0.265
-0.265
-0.26
-0.245
-0.23
-0.225
-0.23
-0.24
-0.25
-0.245
-0.225
-0.225
-0.24
-0.25
-0.26
-0.275
-0.255
-0.24
-0.235
-0.245
-0.255
-0.26
-0.245
-0.235
-0.235
-0.24
-0.24
-0.245
-0.24
-0.23
-0.235
-0.24
-0.225
-0.24
-0.22
-0.22
-0.23
-0.23
-0.23
-0.23
-0.225
-0.215
-0.22
-0.25
-0.225
-0.23
-0.195
-0.195
-0.2
-0.21
-0.22
-0.215
-0.205
-0.195
-0.205
-0.215
-0.22
-0.225
-0.22
-0.21
-0.215
-0.22
-0.26
-0.255
-0.26
-0.25
-0.245
-0.25
-0.265
-0.275
-0.265
-0.245
-0.245
-0.24
-0.24
-0.25
-0.24
-0.225
-0.23
-0.235
-0.25
-0.24
-0.24
-0.235
-0.24
-0.245
-0.24
-0.24
-0.235
-0.215
-0.23
-0.235
-0.245
-0.23
-0.22
-0.195
-0.21
-0.22
-0.205
-0.22
-0.21
-0.205
-0.205
-0.22
-0.215
-0.225
-0.22
-0.215
-0.215
-0.22
-0.225
-0.245
-0.25
-0.25
-0.245
-0.26
-0.265
-0.27
-0.27
-0.255
-0.265
-0.265
-0.28
-0.265
-0.245
-0.23
-0.235
-0.245
-0.255
-0.245
-0.225
-0.22
-0.215
-0.22
-0.225
-0.225
-0.215
-0.205
-0.205
-0.205
-0.2
-0.205
-0.195
-0.2
-0.18
-0.13
-0.055
0.07
0.2
0.325
0.44
0.555
0.68
0.8
0.91
0.98
0.985
0.96
0.875
0.8
0.695
0.52
0.305
0.1
-0.05
-0.13
-0.175
-0.225
-0.275
-0.305
-0.335
-0.36
-0.36
-0.36
-0.37
-0.385
-0.385
-0.395
-0.385
-0.38
-0.38
-0.39
-0.4
-0.39
-0.38
-0.365
-0.365
-0.375
-0.395
-0.395
-0.39
-0.375
-0.38
-0.4
-0.395
-0.42
-0.39
-0.365
-0.36
-0.365
-0.385
-0.39
-0.385
-0.375
-0.365
-0.375
-0.375
-0.365
-0.365
-0.35
-0.355
-0.355
-0.35
-0.365
-0.35
-0.335
-0.34
-0.34
-0.365
-0.37
-0.36
-0.335
-0.34
-0.34
-0.36
-0.36
-0.35
-0.345
-0.355
-0.335
-0.335
-0.345
-0.33
-0.325
-0.325
-0.325
-0.325
-0.33
-0.315
-0.3
-0.285
-0.3
-0.285
-0.285
-0.275
-0.265
-0.25
-0.26
-0.245
-0.235
-0.225
-0.205
-0.195
-0.2
-0.185
-0.175
-0.17
-0.155
-0.15
-0.16
-0.165
-0.17
-0.15
-0.145
-0.14
-0.15
-0.155
-0.165
-0.145
-0.13
-0.15
-0.16
-0.17
-0.18
-0.17
-0.15
-0.145
-0.16
-0.18
-0.195
-0.19
-0.185
-0.18
-0.195
-0.215
-0.22
-0.21
-0.22
-0.215
-0.22
-0.225
-0.22
-0.21
-0.2
-0.2
-0.195
-0.215
-0.21
-0.19
-0.175
-0.17
-0.18
-0.19
-0.19
-0.165
-0.155
-0.16
-0.14
-0.155
-0.155
-0.145
-0.125
-0.13
-0.12
-0.135
-0.135
-0.125
-0.12
-0.11
-0.11
-0.13
-0.13
-0.115
-0.125
-0.11
-0.12
-0.12
-0.135
-0.14
-0.105
-0.11
-0.12
-0.13
-0.15
-0.155
-0.15
-0.145
-0.175
-0.185
-0.195
-0.185
-0.17
-0.175
-0.18
-0.19
-0.22
-0.2
-0.185
-0.17
-0.17
-0.18
-0.19
-0.175
-0.16
-0.16
-0.16
-0.17
-0.18
-0.16
-0.145
-0.13
-0.15
-0.16
-0.16
-0.155
-0.145
-0.14
-0.15
-0.15
-0.16
-0.15
-0.13
-0.125
-0.135
-0.145
-0.14
-0.15
-0.145
-0.13
-0.145
-0.17
-0.165
-0.17
-0.165
-0.16
-0.16
-0.18
-0.19
-0.195
-0.195
-0.17
-0.175
-0.195
-0.2
-0.195
-0.175
-0.17
-0.175
-0.185
-0.175
-0.165
-0.155
-0.145
-0.165
-0.18
-0.165
-0.16
-0.13
-0.13
-0.145
-0.155
-0.145
-0.135
-0.115
-0.115
-0.115
-0.135
-0.135
-0.135
-0.105
-0.105
-0.115
-0.125
-0.12
-0.13
-0.11
-0.115
-0.11
-0.13
-0.15
-0.145
-0.13
-0.135
-0.135
-0.145
-0.15
-0.155
-0.155
-0.17
-0.165
-0.18
-0.195
-0.175
-0.17
-0.17
-0.2
-0.2
-0.18
-0.165
-0.155
-0.145
-0.155
-0.175
-0.175
-0.155
-0.145
-0.13
-0.145
-0.15
-0.16
-0.16
-0.155
-0.145
-0.145
-0.145
-0.14
-0.135
-0.125
-0.115
-0.12
-0.13
-0.135
-0.14
-0.125
-0.12
-0.125
-0.14
-0.13
-0.125
-0.115
-0.12
-0.125
-0.13
-0.145
-0.13
-0.13
-0.12
-0.125
-0.14
-0.15
-0.15
-0.13
-0.135
-0.135
-0.15
-0.165
-0.16
-0.16
-0.145
-0.155
-0.16
-0.15
-0.155
-0.15
-0.15
-0.155
-0.16
-0.155
-0.155
-0.15
-0.14
-0.15
-0.15
-0.15
-0.15
-0.13
-0.115
-0.13
-0.145
-0.14
-0.125
-0.105
-0.09
-0.1
-0.12
-0.125
-0.125
-0.11
-0.1
-0.105
-0.095
-0.11
-0.115
-0.105
-0.1
-0.095
-0.115
-0.125
-0.12
-0.105
-0.105
-0.12
-0.12
-0.13
-0.13
-0.125
-0.12
-0.145
-0.15
-0.16
-0.155
-0.15
-0.15
-0.155
-0.155
-0.165
-0.155
-0.15
-0.135
-0.13
-0.145
-0.165
-0.155
-0.145
-0.12
-0.125
-0.135
-0.135
-0.135
-0.13
-0.13
-0.13
-0.14
-0.135
-0.12
-0.125
-0.115
-0.12
-0.125
-0.13
-0.12
-0.11
-0.1
-0.11
-0.115
-0.115
-0.11
-0.1
-0.08
-0.09
-0.105
-0.11
-0.115
-0.12
-0.105
-0.095
-0.075
-0.025
0.055
0.165
0.26
0.37
0.455
0.56
0.685
0.81
0.925
0.975
1.0
0.99
0.96
0.895
0.765
0.58
0.365
0.155
0.02
-0.04
-0.08
-0.13
-0.185
-0.225
-0.25
-0.225
-0.22
-0.235
-0.26
-0.265
-0.26
-0.285
-0.27
-0.275
-0.29
-0.3
-0.29
-0.285
-0.285
-0.295
-0.31
-0.305
-0.295
-0.295
-0.28
-0.29
-0.31
-0.335
-0.32
-0.305
-0.3
-0.3
-0.31
-0.345
-0.33
-0.32
-0.32
-0.325
-0.34
-0.35
-0.36
-0.35
-0.35
-0.35
-0.37
-0.37
-0.36
-0.35
-0.34
-0.35
-0.35
-0.345
-0.345
-0.315
-0.3
-0.305
-0.325
-0.345
-0.34
-0.325
-0.3
-0.295
-0.305
-0.315
-0.3
-0.285
-0.275
-0.26
-0.26
-0.265
-0.27
-0.255
-0.245
-0.24
-0.24
-0.235
-0.24
-0.225
-0.22
-0.215
-0.225
-0.225
-0.24
-0.225
-0.21
-0.225
-0.235
-0.24
-0.235
-0.24
-0.235
-0.225
-0.24
-0.235
-0.235
-0.21
-0.2
-0.2
-0.2
-0.21
-0.19
-0.18
-0.175
-0.175
-0.175
-0.17
-0.17
-0.16
-0.15
-0.155
-0.165
-0.185
-0.175
-0.16
-0.145
-0.165
-0.165
-0.18
-0.17
-0.165
-0.15
-0.165
-0.17
-0.18
-0.185
-0.17
-0.18
-0.18
-0.19
-0.215
-0.205
-0.195
-0.205
-0.22
-0.22
-0.235
-0.23
-0.225
-0.21
-0.23
-0.235
-0.24
-0.23
-0.205
-0.21
-0.205
-0.22
-0.225
-0.235
-0.22
-0.18
-0.2
-0.195
-0.215
-0.22
-0.185
-0.18
-0.175
-0.185
-0.185
-0.185
-0.175
-0.16
-0.165
-0.185
-0.175
-0.175
-0.145
-0.16
-0.135
-0.155
-0.165
-0.165
-0.155
-0.14
-0.15
-0.165
-0.175
-0.175
-0.165
-0.165
-0.17
-0.175
-0.195
-0.195
-0.19
-0.185
-0.185
-0.19
-0.195
-0.195
-0.185
-0.185
-0.17
-0.18
-0.19
-0.185
-0.165
-0.185
-0.175
-0.18
-0.185
