Lead II
-0.21
-0.21
-0.205
-0.215
-0.225
-0.215
-0.215
-0.205
-0.225
-0.205
-0.21
-0.2
-0.19
-0.19
-0.205
-0.21
-0.22
-0.2
-0.175
-0.175
-0.185
-0.185
-0.18
-0.17
-0.165
-0.18
-0.155
-0.175
-0.17
-0.16
-0.155
-0.14
-0.155
-0.18
-0.17
-0.16
-0.165
-0.16
-0.175
-0.17
-0.175
-0.185
-0.175
-0.17
-0.19
-0.195
-0.195
-0.18
-0.175
-0.165
-0.18
-0.185
-0.2
-0.185
-0.175
-0.175
-0.185
-0.21
-0.22
-0.2
-0.19
-0.19
-0.195
-0.205
-0.21
-0.19
-0.195
-0.18
-0.195
-0.2
-0.205
-0.19
-0.175
-0.18
-0.185
-0.195
-0.2
-0.19
-0.17
-0.17
-0.17
-0.175
-0.16
-0.155
-0.155
-0.15
-0.145
-0.145
-0.155
-0.17
-0.15
-0.14
-0.16
-0.155
-0.165
-0.175
-0.15
-0.15
-0.165
-0.17
-0.175
-0.165
-0.165
-0.165
-0.175
-0.175
-0.18
-0.17
-0.175
-0.18
-0.175
-0.195
-0.2
-0.185
-0.18
-0.185
-0.19
-0.19
-0.2
-0.18
-0.16
-0.16
-0.17
-0.185
-0.18
-0.155
-0.1
-0.02
0.075
0.175
0.3
0.42
0.535
0.66
0.81
0.93
1.01
1.015
1.01
0.96
0.87
0.72
0.515
0.295
0.08
-0.03
-0.07
-0.13
-0.17
-0.22
-0.22
-0.23
-0.25
-0.265
-0.28
-0.29
-0.28
-0.285
-0.295
-0.32
-0.335
-0.32
-0.315
-0.315
-0.335
-0.355
-0.345
-0.35
-0.35
-0.345
-0.34
-0.35
-0.37
-0.355
-0.335
-0.32
-0.345
-0.335
-0.35
-0.35
-0.34
-0.34
-0.345
-0.355
-0.365
-0.36
-0.345
-0.345
-0.35
-0.345
-0.355
-0.34
-0.32
-0.315
-0.335
-0.335
-0.335
-0.335
-0.325
-0.32
-0.335
-0.34
-0.355
-0.345
-0.335
-0.325
-0.325
-0.335
-0.34
-0.32
-0.31
-0.31
-0.305
-0.32
-0.31
-0.305
-0.285
-0.28
-0.275
-0.295
-0.295
-0.285
-0.28
-0.26
-0.26
-0.26
-0.26
-0.245
-0.22
-0.205
-0.205
-0.205
-0.215
-0.195
-0.2
-0.175
-0.18
-0.185
-0.175
-0.175
-0.165
-0.16
-0.16
-0.17
-0.17
-0.16
-0.15
-0.145
-0.145
-0.165
-0.175
-0.18
-0.16
-0.15
-0.17
-0.175
-0.185
-0.185
-0.175
-0.18
-0.19
-0.2
-0.205
-0.2
-0.185
-0.185
-0.18
-0.205
-0.215
-0.205
-0.2
-0.185
-0.195
-0.205
-0.21
-0.215
-0.21
-0.21
-0.22
-0.21
-0.215
-0.23
-0.21
-0.2
-0.2
-0.21
-0.2
-0.19
-0.185
-0.185
-0.185
-0.205
-0.215
-0.2
-0.18
-0.17
-0.18
-0.18
-0.185
-0.185
-0.155
-0.145
-0.16
-0.17
-0.185
-0.175
-0.165
-0.145
-0.16
-0.175
-0.18
-0.18
-0.185
-0.195
-0.185
-0.195
-0.2
-0.2
-0.19
-0.19
-0.2
-0.21
-0.21
-0.2
-0.19
-0.18
-0.185
-0.195
-0.21
-0.21
-0.19
-0.2
-0.21
-0.22
-0.22
-0.225
-0.205
-0.205
-0.205
-0.205
-0.215
-0.21
-0.195
-0.19
-0.195
-0.2
-0.205
-0.195
-0.185
-0.175
-0.19
-0.185
-0.195
-0.195
-0.185
-0.185
-0.19
-0.2
-0.195
-0.19
-0.19
-0.17
-0.175
-0.18
-0.19
-0.185
-0.185
-0.185
-0.19
-0.2
-0.19
-0.195
-0.175
-0.18
-0.18
-0.195
-0.205
-0.2
-0.2
-0.2
-0.205
-0.22
-0.23
-0.21
-0.205
-0.205
-0.225
-0.22
-0.215
-0.205
-0.21
-0.2
-0.21
-0.225
-0.225
-0.215
-0.2
-0.215
-0.215
-0.205
-0.205
-0.205
-0.19
-0.175
-0.165
-0.18
-0.18
-0.16
-0.15
-0.155
-0.145
-0.16
-0.155
-0.16
-0.15
-0.15
-0.145
-0.16
-0.17
-0.17
-0.18
-0.175
-0.125
-0.065
0.065
0.2
0.32
0.425
0.525
0.645
0.75
0.85
0.87
0.855
0.795
0.74
0.63
0.475
0.235
0.025
-0.105
-0.175
-0.2
-0.235
-0.255
-0.285
-0.28
-0.28
-0.3
-0.305
-0.305
-0.295
-0.31
-0.325
-0.325
-0.315
-0.305
-0.305
-0.31
-0.33
-0.35
-0.35
-0.335
-0.33
-0.33
-0.35
-0.345
-0.36
-0.35
-0.355
-0.355
-0.37
-0.38
-0.385
-0.365
-0.37
-0.385
-0.4
-0.395
-0.39
-0.375
-0.375
-0.375
-0.39
-0.4
-0.39
-0.38
-0.385
-0.38
-0.39
-0.38
-0.37
-0.37
-0.355
-0.365
-0.375
-0.36
-0.35
-0.335
-0.33
-0.335
-0.345
-0.345
-0.325
-0.305
-0.295
-0.295
-0.31
-0.3
-0.305
-0.29
-0.285
-0.275
-0.285
-0.27
-0.28
-0.25
-0.265
-0.26
-0.255
-0.265
-0.245
-0.23
-0.215
-0.22
-0.23
-0.245
-0.22
-0.21
-0.19
-0.2
-0.215
-0.22
-0.22
-0.215
-0.22
-0.225
-0.235
-0.23
-0.245
-0.215
-0.205
-0.21
-0.23
-0.245
-0.225
-0.215
-0.215
-0.22
-0.23
-0.22
-0.22
-0.21
-0.205
-0.215
-0.225
-0.225
-0.205
-0.2
-0.2
-0.19
-0.205
-0.21
-0.21
-0.205
-0.2
-0.195
-0.215
-0.22
-0.23
-0.205
-0.195
-0.21
-0.22
-0.22
-0.22
-0.21
-0.195
-0.21
-0.205
-0.22
-0.22
-0.22
-0.21
-0.215
-0.235
-0.235
-0.24
-0.23
-0.22
-0.23
-0.225
-0.245
-0.24
-0.24
-0.22
-0.225
-0.225
-0.225
-0.22
-0.205
-0.205
-0.215
-0.225
-0.22
-0.22
-0.2
-0.19
-0.19
-0.2
-0.19
-0.19
-0.18
-0.18
-0.185
-0.2
-0.2
-0.2
-0.19
-0.185
-0.19
-0.21
-0.24
-0.235
-0.225
-0.225
-0.225
-0.225
-0.23
-0.225
-0.2
-0.215
-0.22
-0.235
-0.235
-0.225
-0.22
-0.23
-0.23
-0.245
-0.25
-0.23
-0.215
-0.2
-0.215
-0.22
-0.23
-0.21
-0.195
-0.195
-0.2
-0.215
-0.215
-0.205
-0.205
-0.19
-0.19
-0.2
-0.2
-0.185
-0.17
-0.17
-0.17
-0.195
-0.19
-0.19
-0.17
-0.175
-0.19
-0.2
-0.21
-0.215
-0.22
-0.2
-0.21
-0.2
-0.23
-0.21
-0.195
-0.125
-0.015
0.09
0.235
0.36
0.495
0.63
0.765
0.865
0.945
0.95
0.915
0.835
0.71
0.525
0.275
0.03
-0.085
-0.125
-0.165
-0.22
-0.255
-0.27
-0.265
-0.27
-0.285
-0.315
-0.33
-0.32
-0.31
-0.315
-0.335
-0.335
-0.35
-0.345
-0.32
-0.325
-0.33
-0.345
-0.35
-0.35
-0.35
-0.35
-0.36
-0.375
-0.395
-0.38
-0.37
-0.37
-0.38
-0.385
-0.39
-0.39
-0.365
-0.365
-0.375
-0.385
-0.4
-0.395
-0.39
-0.375
-0.385
-0.395
-0.395
-0.39
-0.37
-0.375
-0.38
-0.38
-0.39
-0.38
-0.37
-0.365
-0.365
-0.37
-0.37
-0.35
-0.33
-0.325
-0.32
-0.31
-0.32
-0.315
-0.3
-0.29
-0.275
-0.295
-0.28
-0.27
-0.25
-0.25
-0.255
-0.255
-0.255
-0.245
-0.23
-0.22
-0.235
-0.245
-0.245
-0.225
-0.21
-0.215
-0.225
-0.225
-0.225
-0.22
-0.225
-0.205
-0.225
-0.23
-0.225
-0.225
-0.21
-0.2
-0.2
-0.21
-0.225
-0.225
-0.205
-0.19
-0.2
-0.205
-0.21
-0.2
-0.19
-0.185
-0.185
-0.18
-0.185
-0.18
-0.16
-0.16
-0.17
-0.19
-0.185
-0.18
-0.16
-0.17
-0.185
-0.19
-0.215
-0.205
-0.195
-0.195
-0.21
-0.215
-0.23
-0.215
-0.21
-0.2
-0.205
-0.215
-0.215
-0.205
-0.215
-0.21
-0.21
-0.235
-0.255
-0.24
-0.225
-0.22
-0.205
-0.23
-0.23
-0.225
-0.21
-0.195
-0.2
-0.205
-0.22
-0.215
-0.195
-0.18
-0.175
-0.175
-0.185
-0.175
-0.165
-0.17
-0.17
-0.19
-0.195
-0.19
-0.185
-0.17
-0.18
-0.195
-0.195
-0.195
-0.18
-0.175
-0.185
-0.185
-0.195
-0.195
-0.205
-0.18
-0.125
-0.04
0.075
0.19
0.305
0.445
0.56
0.68
0.8
0.905
0.97
0.995
0.975
0.915
0.835
0.72
0.58
0.365
0.125
-0.045
-0.125
-0.145
-0.19
-0.24
-0.26
-0.275
-0.275
-0.275
-0.285
-0.29
-0.31
-0.32
-0.33
-0.335
-0.33
-0.315
-0.335
-0.34
-0.35
-0.355
-0.335
-0.34
-0.345
-0.365
-0.38
-0.39
-0.37
-0.38
-0.385
-0.405
-0.41
-0.405
-0.4
-0.4
-0.41
-0.435
-0.43
-0.425
-0.415
-0.425
-0.425
-0.435
-0.445
-0.44
-0.43
-0.42
-0.43
-0.435
-0.43
-0.42
-0.405
-0.41
-0.42
-0.405
-0.4
-0.4
-0.39
-0.38
-0.38
-0.385
-0.39
-0.375
-0.38
-0.355
-0.36
-0.36
-0.355
-0.34
-0.33
-0.32
-0.32
-0.325
-0.325
-0.315
-0.3
-0.28
-0.275
-0.28
-0.3
-0.27
-0.26
-0.25
-0.255
-0.27
-0.27
-0.26
-0.225
-0.215
-0.215
-0.23
-0.235
-0.23
-0.23
-0.215
-0.215
-0.225
-0.24
-0.23
-0.22
-0.22
-0.23
-0.24
-0.25
-0.245
-0.235
-0.22
-0.245
-0.24
-0.25
-0.24
-0.22
-0.21
-0.215
-0.24
-0.23
-0.225
-0.22
-0.225
-0.23
-0.235
-0.235
-0.225
-0.21
-0.21
-0.21
-0.21
-0.205
-0.22
-0.195
-0.195
-0.2
-0.205
-0.205
-0.22
-0.2
-0.19
-0.195
-0.21
-0.225
-0.225
-0.205
-0.2
-0.205
-0.205
-0.205
-0.205
-0.205
-0.195
-0.195
-0.205
-0.21
-0.21
-0.2
-0.195
-0.2
-0.21
-0.22
-0.225
-0.205
-0.205
-0.21
-0.235
-0.24
-0.225
-0.21
-0.205
-0.205
-0.22
-0.225
-0.22
-0.21
-0.205
-0.21
-0.225
-0.23
-0.215
-0.205
-0.195
-0.215
-0.22
-0.225
-0.215
-0.205
-0.195
-0.205
-0.21
-0.2
-0.205
-0.185
-0.2
-0.19
-0.19
-0.2
-0.205
-0.185
-0.19
-0.21
-0.21
-0.22
-0.21
-0.215
-0.205
-0.22
-0.225
-0.225
-0.225
-0.225
-0.225
-0.225
-0.22
-0.23
-0.23
-0.22
-0.215
-0.215
-0.225
-0.23
-0.235
-0.225
-0.21
-0.21
-0.225
-0.23
-0.225
-0.215
-0.215
-0.2
-0.21
-0.225
-0.23
-0.22
-0.205
-0.21
-0.22
-0.215
-0.225
-0.205
-0.2
-0.195
-0.21
-0.215
-0.2
-0.19
-0.175
-0.18
-0.18
-0.215
-0.19
-0.18
-0.165
-0.175
-0.185
-0.18
-0.175
-0.16
-0.145
-0.155
-0.16
-0.185
-0.185
-0.17
-0.165
-0.185
-0.18
-0.185
-0.19
-0.18
-0.175
-0.17
-0.14
-0.115
-0.02
0.1
0.195
0.275
0.37
0.43
0.545
0.68
0.795
0.88
0.91
0.94
0.915
0.87
0.815
0.705
0.575
0.395
0.18
0.015
-0.06
-0.105
-0.155
-0.2
-0.23
-0.25
-0.255
-0.265
-0.275
-0.285
-0.285
-0.29
-0.29
-0.29
-0.3
-0.31
-0.31
-0.3
-0.305
-0.31
-0.325
-0.325
-0.33
-0.33
-0.31
-0.31
-0.325
-0.345
-0.34
-0.335
-0.325
-0.34
-0.35
-0.36
-0.36
-0.36
-0.355
-0.36
-0.375
-0.385
-0.38
-0.37
-0.38
-0.38
-0.39
-0.385
-0.39
-0.375
-0.37
-0.38
-0.4
-0.4
-0.4
-0.395
-0.385
-0.385
-0.4
-0.405
-0.4
-0.385
-0.375
-0.355
-0.385
-0.375
-0.375
-0.36
-0.345
-0.335
-0.355
-0.365
-0.345
-0.345
-0.32
-0.315
-0.32
-0.335
-0.325
-0.3
-0.285
-0.275
-0.275
-0.285
-0.28
-0.265
-0.255
-0.25
-0.25
-0.255
-0.255
-0.235
-0.23
-0.225
-0.225
-0.23
-0.23
-0.205
-0.195
-0.195
-0.205
-0.21
-0.2
-0.19
-0.18
-0.185
-0.18
-0.19
-0.19
-0.185
-0.185
-0.18
-0.19
-0.205
-0.205
-0.195
-0.19
-0.205
-0.205
-0.205
-0.215
-0.195
-0.18
-0.195
-0.2
-0.22
-0.205
-0.2
-0.19
-0.185
-0.2
-0.2
-0.19
-0.2
-0.185
-0.19
-0.185
-0.185
-0.175
-0.155
-0.14
-0.135
-0.175
-0.17
-0.15
-0.135
-0.12
-0.14
-0.16
-0.165
-0.165
-0.165
-0.165
-0.165
-0.17
-0.17
-0.17
-0.16
-0.15
-0.15
-0.175
-0.175
-0.185
-0.165
-0.15
-0.165
-0.175
-0.18
-0.17
-0.17
-0.16
-0.175
-0.18
-0.185
-0.175
-0.17
-0.155
-0.16
-0.18
-0.2
-0.185
-0.185
-0.17
-0.18
-0.19
-0.2
-0.185
-0.18
-0.16
-0.165
-0.18
-0.19
-0.185
-0.18
-0.17
-0.17
-0.17
-0.175
-0.17
-0.16
-0.14
-0.145
-0.155
-0.165
-0.175
-0.16
-0.155
-0.15
-0.16
-0.175
-0.17
-0.155
-0.14
-0.155
-0.155
-0.17
-0.17
-0.165
-0.165
-0.155
-0.16
-0.175
-0.17
-0.175
-0.18
-0.185
-0.185
-0.195
-0.195
-0.185
-0.18
-0.2
-0.18
-0.195
-0.18
-0.16
-0.155
-0.155
-0.165
-0.18
-0.185
-0.19
-0.165
-0.14
-0.06
0.02
0.13
0.245
0.375
0.485
0.595
0.7
0.815
0.93
0.985
1.015
0.95
0.89
0.795
0.71
0.58
0.385
0.175
0.01
-0.06
-0.095
-0.12
-0.165
-0.21
-0.235
-0.235
-0.24
-0.25
-0.26
-0.29
-0.3
-0.3
-0.305
-0.31
-0.305
-0.32
-0.335
-0.33
-0.335
-0.33
-0.335
-0.34
-0.36
-0.375
-0.37
-0.34
-0.335
-0.325
-0.335
-0.36
-0.35
-0.34
-0.35
-0.345
-0.36
-0.355
-0.345
-0.345
-0.35
-0.355
-0.355
-0.355
-0.355
-0.34
-0.325
-0.335
-0.35
-0.35
-0.34
-0.335
-0.32
-0.315
-0.33
-0.32
-0.325
-0.31
-0.325
-0.34
-0.345
-0.34
-0.34
-0.34
-0.34
-0.34
-0.34
-0.34
-0.325
-0.32
-0.32
-0.335
-0.33
-0.345
-0.32
-0.315
-0.31
-0.315
-0.325
-0.31
-0.31
-0.295
-0.3
-0.295
-0.305
-0.285
-0.265
-0.24
-0.235
-0.24
-0.25
-0.235
-0.215
-0.2
-0.195
-0.195
-0.205
-0.205
-0.185
-0.17
-0.175
-0.175
-0.18
-0.18
-0.165
-0.165
-0.155
-0.17
-0.16
-0.165
-0.155
-0.14
-0.145
-0.165
-0.165
-0.175
-0.17
-0.16
-0.17
-0.18
-0.175
-0.19
-0.18
-0.175
-0.175
-0.19
-0.185
-0.18
-0.175
-0.175
-0.18
-0.19
-0.21
-0.195
-0.185
-0.16
-0.18
-0.195
-0.21
-0.205
-0.175
-0.17
-0.16
-0.18
-0.18
-0.18
-0.18
-0.16
-0.165
-0.16
-0.165
-0.155
-0.145
-0.145
-0.135
-0.15
-0.155
-0.155
-0.14
-0.135
-0.14
-0.14
-0.15
-0.16
-0.13
-0.11
-0.11
-0.125
-0.14
-0.145
-0.14
-0.125
-0.115
-0.13
-0.145
-0.17
-0.15
-0.15
-0.15
-0.15
-0.155
-0.165
-0.155
-0.14
-0.155
-0.16
-0.165
-0.16
-0.155
-0.14
-0.145
-0.155
-0.17
-0.165
-0.16
-0.15
-0.15
-0.18
-0.2
-0.19
-0.18
-0.155
-0.155
-0.17
-0.175
-0.175
-0.17
-0.15
-0.16
-0.165
-0.16
-0.165
-0.155
-0.145
-0.15
-0.165
-0.155
-0.14
-0.13
-0.115
-0.135
-0.14
-0.135
-0.13
-0.125
-0.105
-0.11
-0.115
-0.13
-0.13
-0.115
-0.105
-0.12
-0.125
-0.095
-0.02
0.1
0.24
0.36
0.465
0.555
0.695
0.83
0.945
1.0
1.005
0.955
0.885
0.785
0.67
0.465
0.215
0.02
-0.075
-0.1
-0.135
-0.18
-0.21
-0.23
-0.245
-0.235
-0.225
-0.245
-0.26
-0.295
-0.3
-0.28
-0.265
-0.28
-0.3
-0.3
-0.285
-0.28
-0.275
-0.28
-0.3
-0.315
-0.3
-0.295
-0.28
-0.29
-0.31
-0.315
-0.32
-0.32
-0.31
-0.315
-0.32
-0.33
-0.325
-0.32
-0.305
-0.31
-0.31
-0.32
-0.325
-0.315
-0.31
-0.325
-0.335
-0.35
-0.34
-0.33
-0.335
-0.34
-0.34
-0.33
-0.325
-0.305
-0.29
-0.295
-0.295
-0.31
-0.285
-0.29
-0.27
-0.275
-0.295
-0.3
-0.28
-0.26
-0.245
-0.25
-0.24
-0.245
-0.245
-0.215
-0.195
-0.195
-0.185
-0.16
-0.165
-0.14
-0.13
-0.13
-0.14
-0.14
-0.145
-0.135
-0.135
-0.15
-0.155
-0.14
-0.155
-0.14
-0.125
-0.135
-0.145
-0.15
-0.145
-0.145
-0.14
-0.15
-0.155
-0.16
-0.17
-0.165
-0.15
-0.155
-0.175
-0.17
-0.175
-0.155
-0.155
-0.14
-0.15
-0.16
-0.15
-0.135
-0.125
-0.13
-0.135
-0.145
-0.14
-0.125
-0.105
-0.115
-0.12
-0.135
-0.135
-0.125
-0.11
-0.105
-0.105
-0.1
-0.105
-0.095
-0.095
-0.105
-0.1
-0.115
-0.1
-0.105
-0.1
-0.11
-0.125
-0.13
-0.125
-0.12
-0.1
-0.105
-0.13
-0.14
-0.145
-0.13
-0.12
-0.125
-0.135
-0.145
-0.15
-0.15
-0.135
-0.145
-0.15
-0.15
-0.155
-0.15
-0.135
-0.14
-0.16
-0.15
-0.155
-0.14
-0.13
-0.14
-0.16
-0.145
-0.15
-0.15
-0.125
-0.12
-0.13
-0.14
-0.145
-0.13
-0.115
-0.12
-0.13
-0.13
-0.14
-0.13
-0.11
-0.12
-0.125
-0.14
-0.13
-0.105
-0.105
-0.105
-0.135
-0.135
-0.14
-0.12
-0.115
-0.12
-0.14
-0.145
-0.14
-0.145
-0.115
-0.135
-0.15
-0.16
-0.155
-0.14
-0.125
-0.13
-0.14
-0.155
-0.165
-0.155
-0.15
-0.14
-0.14
-0.15
-0.145
-0.145
-0.135
-0.13
-0.145
-0.145
-0.16
-0.145
-0.135
-0.145
-0.14
-0.14
-0.135
-0.11
-0.1
-0.105
-0.115
-0.13
-0.13
-0.12
-0.125
-0.125
-0.135
-0.13
-0.12
-0.105
-0.09
-0.105
-0.105
-0.11
-0.115
-0.11
-0.1
-0.105
-0.08
0.01
0.12
0.265
0.4
0.51
0.62
0.735
0.85
0.955
1.01
0.995
0.945
0.865
0.76
0.605
0.38
0.14
-0.01
-0.075
-0.1
-0.14
-0.185
-0.21
-0.23
-0.24
-0.24
-0.245
-0.255
-0.26
-0.265
-0.27
-0.265
-0.26
-0.255
-0.26
-0.285
-0.285
-0.295
-0.27
-0.27
-0.28
-0.29
-0.31
-0.32
-0.32
-0.29
-0.3
-0.305
-0.305
-0.305
-0.305
-0.305
-0.295
-0.31
-0.325
-0.315
-0.3
-0.295
-0.3
-0.32
-0.32
-0.32
-0.335
-0.325
-0.32
-0.325
-0.32
-0.33
-0.295
-0.3
-0.295
-0.31
-0.295
-0.29
-0.28
-0.27
-0.3
-0.295
-0.295
-0.285
-0.26
-0.245
-0.26
-0.255
-0.255
-0.26
-0.235
-0.22
-0.21
-0.22
-0.235
-0.235
-0.2
-0.175
-0.17
-0.18
-0.18
-0.175
-0.165
-0.155
-0.16
-0.145
-0.15
-0.14
-0.135
-0.115
-0.12
-0.135
-0.14
-0.13
-0.12
-0.125
-0.115
-0.12
-0.14
-0.14
-0.135
-0.13
-0.125
-0.14
-0.145
-0.14
-0.13
-0.115
-0.12
-0.13
-0.145
-0.14
-0.125
-0.13
-0.13
-0.145
-0.155
-0.155
-0.13
-0.14
-0.15
-0.165
-0.17
-0.165
-0.14
-0.12
-0.125
-0.13
-0.145
-0.145
-0.125
-0.11
-0.11
-0.115
-0.13
-0.13
-0.135
-0.125
-0.11
-0.135
-0.13
-0.135
-0.135
-0.12
-0.115
-0.11
-0.12
-0.12
-0.105
-0.1
-0.105
-0.125
-0.135
-0.13
-0.14
-0.115
-0.115
-0.13
-0.16
-0.16
-0.145
-0.13
-0.14
-0.135
-0.145
-0.145
-0.14
-0.14
-0.125
-0.15
-0.155
-0.14
-0.145
-0.135
-0.145
-0.145
-0.16
-0.16
-0.145
-0.12
-0.125
-0.135
-0.155
-0.16
-0.145
-0.135
-0.13
-0.135
-0.14
-0.145
-0.135
-0.13
-0.12
-0.14
-0.13
-0.135
-0.125
-0.135
-0.13
-0.14
-0.135
-0.135
-0.13
-0.12
-0.13
-0.125
-0.13
-0.14
-0.135
-0.115
-0.125
-0.145
-0.165
-0.155
-0.11
-0.035
0.075
0.215
0.32
0.43
0.56
0.725
0.865
0.98
1.03
1.03
0.965
0.91
0.805
0.63
0.375
0.125
-0.01
-0.07
-0.105
-0.145
-0.19
-0.21
-0.21
-0.22
-0.235
-0.25
-0.285
-0.275
-0.27
-0.275
-0.29
-0.3
-0.32
-0.3
-0.295
-0.28
-0.285
-0.295
-0.305
-0.305
-0.285
-0.27
-0.27
-0.295
-0.315
-0.32
-0.32
-0.3
-0.31
-0.335
-0.335
-0.34
-0.33
-0.305
-0.305
-0.315
-0.335
-0.345
-0.34
-0.33
-0.335
-0.33
-0.345
-0.35
-0.34
-0.315
-0.32
-0.31
-0.305
-0.305
-0.31
-0.295
-0.285
-0.29
-0.295
-0.3
-0.295
-0.3
-0.295
-0.31
-0.315
-0.295
-0.28
-0.26
-0.255
-0.265
-0.27
-0.245
-0.215
-0.195
-0.19
-0.19
-0.19
-0.18
-0.16
-0.15
-0.14
-0.155
-0.165
-0.175
-0.17
-0.165
-0.15
-0.155
-0.165
-0.165
-0.15
-0.135
-0.14
-0.145
-0.15
-0.155
-0.145
-0.135
-0.135
-0.155
-0.17
-0.15
-0.135
-0.14
-0.13
-0.135
-0.135
-0.13
-0.125
-0.115
-0.115
-0.14
-0.16
-0.175
-0.15
-0.135
-0.155
-0.17
-0.185
-0.19
-0.18
-0.16
-0.155
-0.145
-0.155
-0.18
-0.15
-0.13
-0.13
-0.13
-0.13
-0.145
-0.15
-0.135
-0.155
-0.15
-0.155
-0.14
-0.135
-0.12
-0.14
-0.135
-0.135
-0.14
-0.145
-0.12
-0.125
-0.145
-0.15
-0.14
-0.13
-0.12
-0.14
-0.125
-0.135
-0.135
-0.135
-0.115
-0.12
-0.115
-0.13
-0.135
-0.13
-0.13
-0.11
-0.13
-0.14
-0.13
-0.135
-0.145
-0.14
-0.15
-0.155
-0.165
-0.155
-0.15
-0.15
-0.165
-0.175
-0.17
-0.165
-0.14
-0.16
-0.155
-0.17
-0.17
-0.15
-0.135
-0.14
-0.155
-0.195
-0.18
-0.17
-0.14
-0.12
-0.14
-0.15
-0.155
-0.15
-0.135
-0.135
-0.145
-0.165
-0.15
-0.16
-0.13
-0.14
-0.15
-0.15
-0.155
-0.125
-0.105
-0.12
-0.14
-0.145
-0.155
-0.135
-0.095
-0.105
-0.115
-0.125
-0.125
-0.12
-0.135
-0.135
-0.115
-0.065
0.02
0.14
0.26
0.37
0.48
0.575
0.71
0.85
0.95
0.97
0.96
0.905
0.83
0.75
0.605
0.38
0.15
-0.025
-0.085
-0.085
-0.125
-0.18
-0.21
-0.22
-0.225
-0.23
-0.24
-0.245
-0.26
-0.265
-0.275
-0.275
-0.26
-0.26
-0.265
-0.285
-0.305
-0.285
-0.27
-0.255
-0.28
-0.295
-0.3
-0.3
-0.29
-0.295
-0.3
-0.305
-0.31
-0.295
-0.29
-0.32
-0.34
-0.35
-0.34
-0.325
-0.305
-0.315
-0.325
-0.33
-0.325
-0.315
-0.3
-0.3
-0.315
-0.33
-0.32
-0.32
-0.31
-0.295
-0.315
-0.32
-0.335
-0.325
-0.29
-0.29
-0.29
-0.295
-0.315
-0.295
-0.28
-0.27
-0.275
-0.28
-0.28
-0.265
-0.245
-0.24
-0.23
-0.23
-0.225
-0.205
-0.185
-0.19
-0.18
-0.19
-0.18
-0.17
-0.15
-0.15
-0.165
-0.17
-0.18
-0.165
-0.15
-0.145
-0.17
-0.16
-0.155
-0.13
-0.125
-0.12
-0.125
-0.135
-0.14
-0.13
-0.125
-0.115
-0.135
-0.155
-0.155
-0.155
-0.15
-0.14
-0.15
-0.16
-0.17
-0.145
-0.15
-0.125
-0.14
-0.155
-0.145
-0.125
-0.12
-0.125
-0.12
-0.125
-0.12
-0.11
-0.11
-0.12
-0.12
-0.12
-0.14
-0.125
-0.105
-0.115
-0.135
-0.155
-0.145
-0.115
-0.105
-0.11
-0.13
-0.145
-0.155
-0.135
-0.13
-0.115
-0.12
-0.13
-0.145
-0.14
-0.125
-0.13
-0.14
-0.155
-0.165
-0.16
-0.135
-0.145
-0.155
-0.165
-0.175
-0.15
-0.145
-0.15
-0.155
-0.155
-0.155
-0.14
-0.12
-0.125
-0.145
-0.16
-0.145
-0.145
-0.11
-0.11
-0.12
-0.14
-0.135
-0.115
-0.1
-0.115
-0.13
-0.125
-0.145
-0.12
-0.105
-0.1
-0.12
-0.11
-0.125
-0.12
-0.08
-0.02
0.09
0.21
0.335
0.455
0.57
0.695
0.825
0.935
1.02
1.05
1.045
0.975
0.89
0.79
0.64
0.425
0.205
0.025
-0.065
-0.115
-0.16
-0.2
-0.225
-0.23
-0.225
-0.245
-0.255
-0.27
-0.26
-0.26
-0.29
-0.295
-0.3
-0.31
-0.3
-0.295
-0.305
-0.315
-0.325
-0.295
-0.29
-0.31
-0.31
-0.34
-0.33
-0.325
-0.31
-0.32
-0.33
-0.345
-0.35
-0.34
-0.32
-0.335
-0.35
-0.385
-0.395
-0.365
-0.36
-0.355
-0.345
-0.365
-0.365
-0.37
-0.345
-0.35
-0.35
-0.36
-0.365
-0.365
-0.34
-0.35
-0.36
-0.365
-0.37
-0.36
-0.35
-0.345
-0.345
-0.355
-0.355
-0.335
-0.32
-0.33
-0.325
-0.335
-0.325
-0.31
-0.31
-0.305
-0.29
-0.275
-0.275
-0.25
-0.235
-0.22
-0.205
-0.19
-0.19
-0.16
-0.14
-0.14
-0.145
-0.15
-0.15
-0.145
-0.14
-0.16
-0.17
-0.175
-0.18
-0.16
-0.155
-0.16
-0.18
-0.185
-0.175
-0.165
-0.15
-0.16
-0.17
-0.18
-0.21
-0.195
-0.185
-0.19
-0.19
-0.21
-0.225
-0.2
-0.19
-0.18
-0.18
-0.185
-0.195
-0.195
-0.175
-0.17
-0.175
-0.18
-0.175
-0.17
-0.175
-0.17
-0.175
-0.175
-0.175
-0.165
-0.145
-0.145
-0.16
-0.16
-0.155
-0.135
-0.125
-0.12
-0.13
-0.15
-0.155
-0.14
-0.125
-0.125
-0.145
-0.15
-0.165
-0.15
-0.135
-0.135
-0.145
-0.155
-0.17
-0.155
-0.145
-0.15
-0.16
-0.18
-0.195
-0.17
-0.16
-0.16
-0.17
-0.175
-0.185
-0.175
-0.165
-0.17
-0.18
-0.18
-0.19
-0.19
-0.18
-0.175
-0.185
-0.185
-0.17
-0.16
-0.15
-0.145
-0.155
-0.16
-0.15
-0.13
-0.135
-0.14
-0.14
-0.15
-0.175
-0.16
-0.12
-0.145
-0.155
-0.16
-0.165
-0.16
-0.135
-0.14
-0.155
-0.15
-0.17
-0.145
-0.135
-0.13
-0.135
-0.145
-0.155
-0.15
-0.145
-0.155
-0.17
-0.18
-0.17
-0.16
-0.145
-0.14
-0.13
-0.135
-0.165
-0.135
-0.105
-0.025
0.08
0.2
0.325
0.45
0.57
0.715
0.845
0.955
1.02
1.045
1.01
0.935
0.82
0.645
0.42
0.195
0.03
-0.045
-0.09
-0.15
-0.205
-0.21
-0.215
-0.225
-0.245
-0.275
-0.285
-0.275
-0.28
-0.27
-0.28
-0.3
-0.315
-0.31
-0.295
-0.305
-0.32
-0.33
-0.34
-0.335
-0.34
-0.345
-0.335
-0.34
-0.34
-0.34
-0.33
-0.325
-0.34
-0.345
-0.34
-0.345
-0.335
-0.34
-0.345
-0.345
-0.35
-0.335
-0.32
-0.31
-0.325
-0.33
-0.34
-0.32
-0.305
-0.3
-0.32
-0.33
-0.33
-0.315
-0.305
-0.305
-0.31
-0.325
-0.325
-0.315
-0.3
-0.29
-0.295
-0.3
-0.315
-0.3
-0.29
-0.285
-0.28
-0.29
-0.29
-0.275
-0.27
-0.275
-0.27
-0.275
-0.26
-0.24
-0.23
-0.235
-0.22
-0.225
-0.21
-0.19
-0.17
-0.16
-0.165
-0.18
-0.175
-0.175
-0.145
-0.14
-0.15
-0.155
-0.16
-0.15
-0.135
-0.125
-0.125
-0.125
-0.13
-0.115
-0.105
-0.115
-0.12
-0.13
-0.13
-0.115
-0.115
-0.13
-0.155
-0.165
-0.17
-0.15
-0.14
-0.145
-0.165
-0.165
-0.18
-0.155
-0.145
-0.135
-0.165
-0.17
-0.175
-0.165
-0.155
-0.175
-0.175
-0.18
-0.17
-0.16
-0.14
-0.16
-0.16
-0.17
-0.17
-0.14
-0.135
-0.13
-0.155
-0.15
-0.145
-0.125
-0.11
-0.11
-0.12
-0.13
-0.135
-0.115
-0.11
-0.105
-0.125
-0.105
-0.115
-0.11
-0.105
-0.105
-0.12
-0.14
-0.145
-0.14
-0.14
-0.15
-0.16
-0.16
-0.165
-0.155
-0.15
-0.16
-0.165
-0.17
-0.175
-0.16
-0.17
-0.175
-0.18
-0.19
-0.195
-0.18
-0.17
-0.16
-0.165
-0.175
-0.185
-0.18
-0.17
-0.165
-0.165
-0.17
-0.18
-0.175
-0.17
-0.16
-0.155
-0.16
-0.165
-0.155
-0.135
-0.135
-0.14
-0.135
-0.145
-0.12
-0.115
-0.11
-0.105
-0.125
-0.125
-0.12
-0.105
-0.105
-0.14
-0.14
-0.15
-0.125
-0.125
-0.125
-0.13
-0.15
-0.15
-0.14
-0.13
-0.14
-0.125
-0.065
0.035
0.165
0.3
0.43
0.52
0.625
0.775
0.905
1.01
1.035
1.01
0.925
0.85
0.725
0.53
0.285
0.065
-0.05
-0.095
-0.115
-0.155
-0.185
-0.21
-0.21
-0.22
-0.22
-0.22
-0.255
-0.255
-0.275
-0.29
-0.28
-0.275
-0.285
-0.305
-0.3
-0.315
-0.305
-0.3
-0.295
-0.31
-0.32
-0.335
-0.315
-0.31
-0.32
-0.32
-0.345
-0.345
-0.33
-0.315
-0.32
-0.33
-0.345
-0.365
-0.355
-0.34
-0.34
-0.345
-0.365
-0.35
-0.34
-0.345
-0.33
-0.335
-0.36
-0.34
-0.345
-0.33
-0.33
-0.34
-0.36
-0.34
-0.325
-0.305
-0.29
-0.3
-0.3
-0.29
-0.29
-0.265
-0.27
-0.28
-0.3
-0.28
-0.275
-0.27
-0.255
-0.26
-0.26
-0.26
-0.255
-0.245
-0.22
-0.225
-0.23
-0.225
-0.215
-0.2
-0.19
-0.195
-0.2
-0.185
-0.18
-0.16
-0.165
-0.18
-0.18
-0.19
-0.175
-0.165
-0.175
-0.16
-0.185
-0.205
-0.195
-0.175
-0.165
-0.165
-0.175
-0.195
-0.19
-0.17
-0.17
-0.16
-0.165
-0.165
-0.155
-0.155
-0.155
-0.15
-0.16
-0.13
-0.14
-0.125
-0.135
-0.145
-0.15
-0.155
-0.15
-0.145
-0.16
-0.17
-0.18
-0.195
-0.19
-0.165
-0.165
-0.165
-0.16
-0.165
-0.16
-0.145
-0.145
-0.145
-0.16
-0.17
-0.165
-0.165
-0.165
-0.17
-0.17
-0.19
-0.175
-0.18
-0.17
-0.19
-0.17
-0.18
-0.165
-0.16
-0.16
-0.17
-0.175
-0.17
-0.16
-0.155
-0.16
-0.17
-0.18
-0.175
-0.165
-0.165
-0.135
-0.13
-0.135
-0.15
-0.165
-0.125
-0.125
-0.135
-0.13
-0.14
-0.135
-0.125
-0.13
-0.15
-0.16
-0.19
-0.19
-0.18
-0.19
-0.21
-0.215
-0.215
-0.18
-0.175
-0.16
-0.165
-0.185
-0.175
-0.165
-0.16
-0.14
-0.145
-0.175
-0.18
-0.165
-0.155
-0.155
-0.155
-0.16
-0.165
-0.15
-0.15
-0.155
-0.15
-0.165
-0.165
-0.145
-0.14
-0.15
-0.15
-0.17
-0.16
-0.14
-0.125
-0.125
-0.135
-0.15
-0.15
-0.14
-0.135
-0.13
-0.135
-0.13
-0.13
-0.13
-0.14
-0.125
-0.135
-0.145
-0.165
-0.145
-0.145
-0.155
-0.19
-0.185
-0.195
-0.19
-0.19
-0.185
-0.185
-0.2
-0.195
-0.18
-0.165
-0.16
-0.17
-0.165
-0.17
-0.165
-0.155
-0.17
-0.165
-0.165
-0.185
-0.175
-0.17
-0.16
-0.165
-0.165
-0.165
-0.145
-0.14
-0.15
-0.16
-0.18
-0.18
-0.145
-0.14
-0.145
-0.16
-0.15
-0.15
-0.145
-0.135
-0.125
-0.125
-0.12
-0.135
-0.12
-0.11
-0.11
-0.125
-0.125
-0.11
-0.105
-0.11
-0.1
-0.115
-0.125
-0.13
-0.135
-0.135
-0.15
-0.175
-0.18
-0.185
-0.165
-0.155
-0.145
-0.15
-0.17
-0.155
-0.11
-0.035
0.06
0.16
0.25
0.355
0.435
0.535
0.63
0.725
0.8
0.875
0.945
0.97
0.945
0.905
0.845
0.75
0.625
0.435
0.235
0.05
-0.045
-0.085
-0.11
-0.14
-0.18
-0.2
-0.205
-0.21
-0.21
-0.23
-0.22
-0.24
-0.25
-0.26
-0.255
-0.245
-0.25
-0.26
-0.275
-0.285
-0.285
-0.27
-0.28
-0.29
-0.315
-0.325
-0.315
-0.32
-0.32
-0.32
-0.34
-0.34
-0.34
-0.33
-0.335
-0.35
-0.37
-0.37
-0.365
-0.33
-0.35
-0.345
-0.37
-0.365
-0.355
-0.355
-0.335
-0.34
-0.35
-0.345
-0.34
-0.335
-0.315
-0.315
-0.32
-0.325
-0.32
-0.315
-0.3
-0.31
-0.335
-0.33
-0.305
-0.3
-0.29
-0.3
-0.31
-0.3
-0.29
-0.295
-0.27
-0.265
-0.27
-0.255
-0.255
-0.25
-0.255
-0.245
-0.25
-0.245
-0.23
-0.24
-0.225
-0.235
-0.26
-0.265
-0.25
-0.245
-0.235
-0.235
-0.24
-0.23
-0.22
-0.21
-0.205
-0.21
-0.22
-0.22
-0.205
-0.185
-0.18
-0.195
-0.205
-0.2
-0.195
-0.18
-0.17
-0.18
-0.195
-0.19
-0.16
-0.155
-0.145
-0.145
-0.165
-0.16
-0.16
-0.145
-0.13
-0.135
-0.13
-0.14
-0.135
-0.145
-0.14
-0.125
-0.135
-0.14
