Lead II
-0.675
-0.665
-0.66
-0.665
-0.66
-0.67
-0.67
-0.68
-0.675
-0.66
-0.65
-0.655
-0.64
-0.63
-0.635
-0.625
-0.64
-0.64
-0.64
-0.64
-0.65
-0.645
-0.65
-0.64
-0.63
-0.62
-0.615
-0.63
-0.63
-0.63
-0.64
-0.655
-0.655
-0.65
-0.66
-0.645
-0.645
-0.65
-0.64
-0.64
-0.645
-0.65
-0.655
-0.67
-0.675
-0.675
-0.68
-0.665
-0.68
-0.66
-0.66
-0.665
-0.665
-0.67
-0.675
-0.685
-0.695
-0.695
-0.69
-0.68
-0.68
-0.675
-0.67
-0.68
-0.68
-0.69
-0.685
-0.695
-0.715
-0.71
-0.7
-0.7
-0.685
-0.68
-0.665
-0.68
-0.68
-0.675
-0.685
-0.69
-0.7
-0.7
-0.7
-0.69
-0.685
-0.685
-0.68
-0.685
-0.675
-0.685
-0.7
-0.705
-0.705
-0.695
-0.705
-0.69
-0.67
-0.67
-0.67
-0.68
-0.69
-0.685
-0.69
-0.69
-0.705
-0.69
-0.69
-0.68
-0.66
-0.66
-0.645
-0.62
-0.62
-0.615
-0.61
-0.6
-0.595
-0.6
-0.59
-0.57
-0.565
-0.55
-0.545
-0.53
-0.525
-0.54
-0.545
-0.575
-0.575
-0.58
-0.565
-0.56
-0.56
-0.56
-0.55
-0.55
-0.57
-0.585
-0.6
-0.63
-0.645
-0.66
-0.675
-0.685
-0.685
-0.69
-0.68
-0.68
-0.68
-0.68
-0.69
-0.695
-0.7
-0.705
-0.695
-0.695
-0.695
-0.685
-0.68
-0.68
-0.675
-0.68
-0.69
-0.705
-0.715
-0.72
-0.705
-0.69
-0.69
-0.67
-0.665
-0.655
-0.66
-0.66
-0.66
-0.67
-0.66
-0.64
-0.645
-0.63
-0.62
-0.61
-0.59
-0.545
-0.465
-0.36
-0.195
0.02
0.315
0.68
1.055
1.395
1.615
1.68
1.545
1.185
0.64
0.0
-0.64
-1.155
-1.44
-1.475
-1.335
-1.11
-0.865
-0.67
-0.545
-0.495
-0.49
-0.51
-0.55
-0.565
-0.58
-0.59
-0.59
-0.595
-0.585
-0.565
-0.56
-0.565
-0.565
-0.565
-0.565
-0.575
-0.58
-0.585
-0.57
-0.565
-0.56
-0.56
-0.54
-0.545
-0.55
-0.555
-0.555
-0.565
-0.57
-0.565
-0.57
-0.565
-0.555
-0.545
-0.54
-0.545
-0.55
-0.55
-0.56
-0.555
-0.555
-0.565
-0.565
-0.555
-0.55
-0.555
-0.55
-0.555
-0.55
-0.565
-0.57
-0.56
-0.575
-0.575
-0.565
-0.555
-0.55
-0.54
-0.535
-0.54
-0.535
-0.535
-0.535
-0.545
-0.55
-0.54
-0.535
-0.53
-0.53
-0.535
-0.52
-0.535
-0.53
-0.52
-0.525
-0.52
-0.53
-0.52
-0.515
-0.515
-0.5
-0.5
-0.495
-0.48
-0.495
-0.495
-0.5
-0.48
-0.49
-0.485
-0.485
-0.475
-0.48
-0.46
-0.45
-0.465
-0.455
-0.45
-0.47
-0.475
-0.48
-0.48
-0.47
-0.47
-0.47
-0.45
-0.455
-0.455
-0.455
-0.455
-0.465
-0.465
-0.47
-0.48
-0.485
-0.47
-0.48
-0.495
-0.5
-0.52
-0.54
-0.545
-0.56
-0.59
-0.605
-0.62
-0.625
-0.64
-0.66
-0.645
-0.65
-0.655
-0.645
-0.665
-0.675
-0.685
-0.705
-0.705
-0.7
-0.69
-0.685
-0.675
-0.67
-0.67
-0.675
-0.69
-0.68
-0.7
-0.7
-0.705
-0.7
-0.69
-0.68
-0.665
-0.65
-0.665
-0.655
-0.67
-0.675
-0.66
-0.67
-0.665
-0.665
-0.645
-0.63
-0.63
-0.625
-0.625
-0.615
-0.635
-0.645
-0.655
-0.655
-0.67
-0.655
-0.64
-0.63
-0.625
-0.61
-0.61
-0.625
-0.64
-0.64
-0.645
-0.67
-0.66
-0.665
-0.655
-0.655
-0.65
-0.655
-0.65
-0.665
-0.665
-0.665
-0.67
-0.675
-0.685
-0.69
-0.68
-0.67
-0.675
-0.66
-0.665
-0.68
-0.675
-0.685
-0.69
-0.715
-0.72
-0.695
-0.69
-0.695
-0.7
-0.685
-0.68
-0.675
-0.68
-0.695
-0.7
-0.7
-0.7
-0.7
-0.69
-0.69
-0.675
-0.66
-0.675
-0.655
-0.66
-0.635
-0.645
-0.64
-0.63
-0.63
-0.62
-0.6
-0.57
-0.56
-0.54
-0.525
-0.54
-0.55
-0.565
-0.58
-0.585
-0.58
-0.57
-0.56
-0.555
-0.545
-0.56
-0.57
-0.58
-0.585
-0.605
-0.63
-0.655
-0.665
-0.675
-0.675
-0.685
-0.69
-0.69
-0.695
-0.7
-0.7
-0.71
-0.71
-0.71
-0.71
-0.705
-0.71
-0.705
-0.7
-0.71
-0.7
-0.71
-0.72
-0.735
-0.745
-0.74
-0.745
-0.745
-0.735
-0.725
-0.715
-0.72
-0.71
-0.715
-0.715
-0.72
-0.715
-0.71
-0.705
-0.69
-0.67
-0.67
-0.655
-0.64
-0.62
-0.6
-0.55
-0.44
-0.295
-0.045
0.265
0.65
1.07
1.42
1.635
1.625
1.37
0.855
0.215
-0.425
-1.065
-1.485
-1.565
-1.42
-1.165
-0.895
-0.69
-0.575
-0.535
-0.54
-0.57
-0.595
-0.61
-0.62
-0.635
-0.62
-0.61
-0.605
-0.595
-0.59
-0.585
-0.605
-0.595
-0.605
-0.61
-0.605
-0.61
-0.595
-0.61
-0.595
-0.59
-0.585
-0.585
-0.59
-0.59
-0.6
-0.61
-0.6
-0.6
-0.595
-0.585
-0.575
-0.57
-0.575
-0.57
-0.6
-0.59
-0.595
-0.6
-0.59
-0.585
-0.585
-0.57
-0.565
-0.57
-0.565
-0.57
-0.575
-0.575
-0.575
-0.58
-0.58
-0.575
-0.585
-0.58
-0.555
-0.55
-0.55
-0.55
-0.55
-0.545
-0.56
-0.565
-0.56
-0.56
-0.54
-0.53
-0.53
-0.53
-0.53
-0.525
-0.52
-0.525
-0.52
-0.515
-0.52
-0.515
-0.51
-0.495
-0.495
-0.49
-0.485
-0.475
-0.485
-0.48
-0.475
-0.485
-0.485
-0.475
-0.475
-0.475
-0.46
-0.46
-0.445
-0.44
-0.435
-0.455
-0.455
-0.46
-0.45
-0.45
-0.445
-0.455
-0.46
-0.44
-0.445
-0.445
-0.455
-0.445
-0.46
-0.475
-0.47
-0.465
-0.475
-0.46
-0.445
-0.445
-0.465
-0.465
-0.49
-0.51
-0.54
-0.55
-0.57
-0.58
-0.58
-0.595
-0.615
-0.625
-0.625
-0.635
-0.655
-0.655
-0.675
-0.705
-0.71
-0.715
-0.7
-0.705
-0.705
-0.705
-0.7
-0.72
-0.7
-0.715
-0.72
-0.725
-0.73
-0.73
-0.725
-0.72
-0.715
-0.715
-0.705
-0.705
-0.7
-0.71
-0.71
-0.72
-0.715
-0.71
-0.69
-0.685
-0.68
-0.66
-0.665
-0.67
-0.66
-0.66
-0.67
-0.675
-0.665
-0.675
-0.67
-0.655
-0.66
-0.645
-0.645
-0.645
-0.65
-0.66
-0.66
-0.68
-0.675
-0.69
-0.675
-0.65
-0.64
-0.645
-0.635
-0.64
-0.655
-0.665
-0.67
-0.68
-0.69
-0.68
-0.675
-0.675
-0.675
-0.67
-0.67
-0.675
-0.68
-0.69
-0.71
-0.72
-0.715
-0.72
-0.71
-0.695
-0.685
-0.68
-0.68
-0.68
-0.695
-0.69
-0.695
-0.705
-0.695
-0.69
-0.68
-0.67
-0.655
-0.645
-0.645
-0.645
-0.625
-0.635
-0.625
-0.625
-0.62
-0.605
-0.595
-0.575
-0.56
-0.54
-0.525
-0.535
-0.545
-0.57
-0.56
-0.575
-0.57
-0.565
-0.56
-0.545
-0.555
-0.54
-0.55
-0.56
-0.57
-0.595
-0.62
-0.64
-0.655
-0.685
-0.695
-0.685
-0.705
-0.7
-0.695
-0.71
-0.7
-0.71
-0.725
-0.72
-0.735
-0.74
-0.73
-0.735
-0.72
-0.715
-0.71
-0.715
-0.72
-0.73
-0.74
-0.745
-0.73
-0.73
-0.73
-0.715
-0.705
-0.7
-0.695
-0.695
-0.69
-0.685
-0.69
-0.68
-0.685
-0.67
-0.67
-0.655
-0.64
-0.605
-0.57
-0.505
-0.4
-0.25
-0.03
0.305
0.66
1.04
1.395
1.65
1.755
1.645
1.325
0.805
0.165
-0.475
-1.065
-1.405
-1.485
-1.37
-1.145
-0.895
-0.69
-0.55
-0.5
-0.5
-0.525
-0.56
-0.6
-0.615
-0.63
-0.62
-0.625
-0.605
-0.59
-0.585
-0.58
-0.57
-0.59
-0.595
-0.595
-0.6
-0.605
-0.6
-0.6
-0.585
-0.585
-0.575
-0.58
-0.57
-0.58
-0.59
-0.585
-0.585
-0.585
-0.59
-0.575
-0.58
-0.555
-0.56
-0.56
-0.55
-0.56
-0.565
-0.565
-0.575
-0.57
-0.57
-0.555
-0.555
-0.555
-0.555
-0.545
-0.545
-0.545
-0.55
-0.55
-0.56
-0.565
-0.565
-0.545
-0.535
-0.53
-0.52
-0.515
-0.525
-0.525
-0.525
-0.535
-0.545
-0.535
-0.53
-0.52
-0.515
-0.5
-0.495
-0.51
-0.5
-0.495
-0.495
-0.48
-0.49
-0.49
-0.5
-0.49
-0.48
-0.465
-0.45
-0.445
-0.44
-0.445
-0.45
-0.445
-0.445
-0.445
-0.43
-0.43
-0.425
-0.415
-0.4
-0.395
-0.39
-0.395
-0.4
-0.4
-0.39
-0.395
-0.385
-0.395
-0.385
-0.38
-0.365
-0.375
-0.37
-0.365
-0.375
-0.385
-0.39
-0.39
-0.395
-0.395
-0.405
-0.395
-0.405
-0.41
-0.43
-0.435
-0.465
-0.495
-0.52
-0.53
-0.55
-0.56
-0.575
-0.585
-0.585
-0.605
-0.615
-0.615
-0.63
-0.66
-0.675
-0.675
-0.675
-0.68
-0.68
-0.67
-0.675
-0.67
-0.665
-0.675
-0.685
-0.685
-0.695
-0.705
-0.71
-0.7
-0.7
-0.69
-0.675
-0.67
-0.675
-0.67
-0.67
-0.675
-0.68
-0.67
-0.68
-0.67
-0.665
-0.655
-0.635
-0.625
-0.63
-0.63
-0.63
-0.62
-0.635
-0.63
-0.625
-0.625
-0.62
-0.61
-0.61
-0.61
-0.6
-0.61
-0.625
-0.64
-0.625
-0.635
-0.64
-0.625
-0.615
-0.61
-0.605
-0.605
-0.61
-0.62
-0.625
-0.635
-0.645
-0.645
-0.65
-0.655
-0.65
-0.64
-0.63
-0.64
-0.635
-0.635
-0.65
-0.655
-0.66
-0.655
-0.66
-0.655
-0.65
-0.65
-0.635
-0.64
-0.645
-0.65
-0.65
-0.65
-0.655
-0.67
-0.665
-0.67
-0.66
-0.65
-0.645
-0.635
-0.65
-0.655
-0.665
-0.66
-0.665
-0.685
-0.665
-0.665
-0.655
-0.65
-0.65
-0.65
-0.645
-0.655
-0.66
-0.655
-0.655
-0.67
-0.67
-0.67
-0.66
-0.65
-0.635
-0.63
-0.635
-0.61
-0.615
-0.615
-0.615
-0.605
-0.6
-0.6
-0.565
-0.555
-0.54
-0.53
-0.51
-0.505
-0.505
-0.5
-0.51
-0.52
-0.525
-0.52
-0.525
-0.515
-0.505
-0.51
-0.51
-0.5
-0.515
-0.535
-0.545
-0.55
-0.56
-0.59
-0.59
-0.605
-0.635
-0.63
-0.64
-0.64
-0.66
-0.66
-0.645
-0.66
-0.665
-0.665
-0.66
-0.645
-0.645
-0.645
-0.65
-0.66
-0.665
-0.68
-0.685
-0.685
-0.67
-0.685
-0.665
-0.665
-0.665
-0.65
-0.65
-0.635
-0.65
-0.645
-0.655
-0.65
-0.64
-0.635
-0.62
-0.6
-0.59
-0.57
-0.565
-0.555
-0.53
-0.465
-0.355
-0.175
0.1
0.445
0.84
1.255
1.6
1.785
1.755
1.475
0.945
0.305
-0.335
-0.975
-1.4
-1.47
-1.315
-1.06
-0.8
-0.585
-0.46
-0.42
-0.425
-0.465
-0.505
-0.54
-0.56
-0.565
-0.57
-0.55
-0.535
-0.515
-0.525
-0.53
-0.53
-0.54
-0.55
-0.555
-0.545
-0.54
-0.53
-0.54
-0.52
-0.52
-0.515
-0.525
-0.52
-0.53
-0.525
-0.535
-0.53
-0.52
-0.52
-0.515
-0.495
-0.5
-0.495
-0.495
-0.5
-0.515
-0.52
-0.515
-0.53
-0.515
-0.51
-0.505
-0.495
-0.49
-0.495
-0.49
-0.495
-0.51
-0.525
-0.515
-0.51
-0.515
-0.49
-0.495
-0.485
-0.485
-0.485
-0.475
-0.49
-0.49
-0.495
-0.495
-0.505
-0.495
-0.49
-0.475
-0.465
-0.465
-0.47
-0.48
-0.47
-0.475
-0.48
-0.465
-0.465
-0.455
-0.46
-0.45
-0.45
-0.425
-0.43
-0.425
-0.445
-0.44
-0.44
-0.445
-0.445
-0.44
-0.435
-0.425
-0.415
-0.4
-0.395
-0.395
-0.405
-0.4
-0.41
-0.405
-0.405
-0.4
-0.395
-0.39
-0.38
-0.37
-0.38
-0.365
-0.38
-0.38
-0.39
-0.4
-0.395
-0.39
-0.375
-0.38
-0.365
-0.365
-0.375
-0.395
-0.41
-0.43
-0.46
-0.465
-0.485
-0.49
-0.51
-0.51
-0.52
-0.525
-0.53
-0.55
-0.565
-0.59
-0.58
-0.59
-0.615
-0.61
-0.61
-0.605
-0.595
-0.605
-0.61
-0.605
-0.615
-0.615
-0.625
-0.635
-0.625
-0.625
-0.62
-0.62
-0.605
-0.61
-0.6
-0.6
-0.605
-0.605
-0.615
-0.63
-0.61
-0.605
-0.605
-0.595
-0.58
-0.58
-0.575
-0.58
-0.59
-0.58
-0.58
-0.595
-0.59
-0.585
-0.57
-0.56
-0.57
-0.56
-0.565
-0.555
-0.55
-0.555
-0.575
-0.575
-0.58
-0.575
-0.57
-0.575
-0.56
-0.56
-0.57
-0.59
-0.59
-0.59
-0.595
-0.59
-0.6
-0.6
-0.595
-0.59
-0.585
-0.58
-0.57
-0.59
-0.59
-0.605
-0.615
-0.61
-0.62
-0.625
-0.615
-0.61
-0.6
-0.59
-0.6
-0.59
-0.59
-0.6
-0.61
-0.61
-0.62
-0.605
-0.615
-0.605
-0.595
-0.59
-0.6
-0.6
-0.6
-0.615
-0.605
-0.625
-0.615
-0.62
-0.615
-0.61
-0.595
-0.595
-0.61
-0.6
-0.595
-0.61
-0.6
-0.61
-0.61
-0.615
-0.595
-0.59
-0.58
-0.58
-0.58
-0.585
-0.585
-0.59
-0.6
-0.605
-0.6
-0.58
-0.565
-0.535
-0.525
-0.51
-0.495
-0.505
-0.48
-0.48
-0.48
-0.48
-0.47
-0.455
-0.455
-0.46
-0.45
-0.445
-0.455
-0.455
-0.46
-0.46
-0.485
-0.475
-0.485
-0.475
-0.485
-0.485
-0.495
-0.52
-0.52
-0.54
-0.565
-0.575
-0.58
-0.595
-0.605
-0.6
-0.59
-0.58
-0.58
-0.575
-0.585
-0.58
-0.59
-0.6
-0.61
-0.605
-0.61
-0.615
-0.615
-0.605
-0.6
-0.59
-0.595
-0.6
-0.605
-0.605
-0.61
-0.61
-0.61
-0.605
-0.595
-0.58
-0.585
-0.565
-0.56
-0.555
-0.55
-0.555
-0.555
-0.56
-0.545
-0.52
-0.45
-0.365
-0.22
-0.015
0.265
0.635
1.02
1.395
1.67
1.765
1.645
1.265
0.685
0.045
-0.595
-1.11
-1.345
-1.34
-1.18
-0.94
-0.72
-0.56
-0.455
-0.41
-0.405
-0.42
-0.44
-0.475
-0.465
-0.495
-0.49
-0.495
-0.485
-0.495
-0.49
-0.495
-0.475
-0.475
-0.47
-0.465
-0.475
-0.455
-0.455
-0.455
-0.47
-0.465
-0.47
-0.47
-0.46
-0.465
-0.455
-0.45
-0.445
-0.46
-0.47
-0.455
-0.47
-0.47
-0.465
-0.47
-0.455
-0.46
-0.455
-0.45
-0.445
-0.45
-0.45
-0.46
-0.47
-0.46
-0.465
-0.46
-0.455
-0.45
-0.455
-0.445
-0.435
-0.435
-0.43
-0.45
-0.445
-0.45
-0.46
-0.455
-0.44
-0.44
-0.44
-0.42
-0.425
-0.43
-0.44
-0.445
-0.435
-0.435
-0.44
-0.44
-0.44
-0.42
-0.415
-0.41
-0.41
-0.405
-0.41
-0.41
-0.41
-0.41
-0.415
-0.4
-0.39
-0.385
-0.38
-0.36
-0.365
-0.375
-0.375
-0.38
-0.37
-0.375
-0.37
-0.38
-0.365
-0.345
-0.35
-0.34
-0.345
-0.355
-0.35
-0.36
-0.365
-0.36
-0.37
-0.375
-0.36
-0.355
-0.365
-0.345
-0.345
-0.345
-0.35
-0.35
-0.36
-0.365
-0.365
-0.36
-0.36
-0.355
-0.37
-0.37
-0.38
-0.385
-0.4
-0.42
-0.435
-0.46
-0.475
-0.48
-0.49
-0.5
-0.51
-0.505
-0.52
-0.54
-0.545
-0.555
-0.57
-0.575
-0.59
-0.595
-0.59
-0.585
-0.58
-0.57
-0.585
-0.58
-0.575
-0.58
-0.6
-0.59
-0.595
-0.59
-0.58
-0.59
-0.575
-0.575
-0.565
-0.575
-0.575
-0.59
-0.59
-0.585
-0.59
-0.585
-0.565
-0.565
-0.55
-0.535
-0.54
-0.535
-0.545
-0.54
-0.55
-0.565
-0.55
-0.56
-0.55
-0.535
-0.535
-0.535
-0.525
-0.535
-0.54
-0.55
-0.55
-0.55
-0.565
-0.555
-0.55
-0.54
-0.55
-0.54
-0.555
-0.555
-0.555
-0.575
-0.58
-0.57
-0.58
-0.585
-0.575
-0.575
-0.57
-0.58
-0.58
-0.585
-0.57
-0.59
-0.59
-0.6
-0.595
-0.605
-0.605
-0.61
-0.61
-0.605
-0.605
-0.595
-0.61
-0.615
-0.615
-0.61
-0.61
-0.615
-0.595
-0.585
-0.585
-0.59
-0.58
-0.595
-0.59
-0.59
-0.6
-0.605
-0.6
-0.605
-0.605
-0.59
-0.565
-0.555
-0.56
-0.56
-0.54
-0.54
-0.535
-0.55
-0.525
-0.515
-0.515
-0.49
-0.475
-0.45
-0.435
-0.435
-0.44
-0.44
-0.46
-0.475
-0.48
-0.48
-0.475
-0.46
-0.445
-0.45
-0.455
-0.47
-0.48
-0.5
-0.515
-0.535
-0.565
-0.58
-0.59
-0.6
-0.61
-0.595
-0.605
-0.595
-0.605
-0.62
-0.62
-0.63
-0.64
-0.635
-0.645
-0.635
-0.63
-0.615
-0.62
-0.62
-0.625
-0.64
-0.64
-0.655
-0.65
-0.65
-0.645
-0.64
-0.635
-0.63
-0.625
-0.615
-0.61
-0.625
-0.63
-0.625
-0.635
-0.625
-0.62
-0.6
-0.595
-0.58
-0.56
-0.555
-0.565
-0.555
-0.56
-0.53
-0.485
-0.38
-0.25
-0.025
0.25
0.625
1.03
1.385
1.63
1.67
1.485
1.055
0.425
-0.215
-0.855
-1.275
-1.385
-1.305
-1.085
-0.83
-0.62
-0.485
-0.435
-0.44
-0.485
-0.525
-0.54
-0.54
-0.545
-0.525
-0.53
-0.515
-0.52
-0.52
-0.52
-0.53
-0.535
-0.54
-0.54
-0.53
-0.515
-0.51
-0.51
-0.52
-0.525
-0.52
-0.535
-0.53
-0.54
-0.525
-0.515
-0.505
-0.5
-0.495
-0.49
-0.49
-0.495
-0.51
-0.525
-0.515
-0.515
-0.515
-0.505
-0.505
-0.495
-0.48
-0.495
-0.515
-0.52
-0.53
-0.52
-0.535
-0.535
-0.525
-0.52
-0.51
-0.5
-0.5
-0.49
-0.495
-0.5
-0.5
-0.495
-0.495
-0.485
-0.49
-0.485
-0.485
-0.475
-0.48
-0.47
-0.47
-0.46
-0.48
-0.465
-0.47
-0.48
-0.47
-0.45
-0.44
-0.44
-0.44
-0.43
-0.43
-0.44
-0.435
-0.425
-0.435
-0.43
-0.425
-0.425
-0.415
-0.415
-0.405
-0.395
-0.385
-0.38
-0.39
-0.39
-0.4
-0.4
-0.415
-0.425
-0.41
-0.405
-0.385
-0.385
-0.4
-0.41
-0.405
-0.425
-0.425
-0.425
-0.405
-0.4
-0.385
-0.4
-0.385
-0.395
-0.4
-0.415
-0.43
-0.44
-0.455
-0.475
-0.485
-0.485
-0.49
-0.505
-0.505
-0.54
-0.55
-0.55
-0.575
-0.585
-0.605
-0.61
-0.61
-0.635
-0.63
-0.63
-0.63
-0.615
-0.625
-0.615
-0.63
-0.635
-0.64
-0.645
-0.65
-0.65
-0.65
-0.635
-0.625
-0.62
-0.615
-0.61
-0.635
-0.63
-0.63
-0.635
-0.63
-0.615
-0.615
-0.6
-0.595
-0.585
-0.595
-0.59
-0.595
-0.6
-0.605
-0.605
-0.6
-0.61
-0.59
-0.59
-0.575
-0.565
-0.575
-0.575
-0.585
-0.59
-0.6
-0.605
-0.6
-0.6
-0.615
-0.61
-0.615
-0.605
-0.605
-0.615
-0.61
-0.615
-0.62
-0.625
-0.62
-0.63
-0.625
-0.62
-0.605
-0.61
-0.605
-0.615
-0.62
-0.635
-0.645
-0.63
-0.625
-0.64
-0.625
-0.615
-0.62
-0.62
-0.63
-0.65
-0.645
-0.645
-0.645
-0.63
-0.63
-0.62
-0.59
-0.585
-0.59
-0.565
-0.57
-0.545
-0.555
-0.56
-0.53
-0.52
-0.505
-0.5
-0.5
-0.505
-0.5
-0.5
-0.5
-0.495
-0.505
-0.51
-0.505
-0.505
-0.515
-0.515
-0.525
-0.53
-0.53
-0.555
-0.575
-0.6
-0.62
-0.64
-0.665
-0.675
-0.67
-0.655
-0.65
-0.66
-0.645
-0.645
-0.655
-0.655
-0.67
-0.68
-0.685
-0.685
-0.675
-0.69
-0.685
-0.685
-0.685
-0.675
-0.675
-0.68
-0.675
-0.68
-0.675
-0.69
-0.68
-0.665
-0.66
-0.66
-0.65
-0.64
-0.635
-0.635
-0.63
-0.63
-0.625
-0.63
-0.62
-0.59
-0.535
-0.445
-0.29
-0.09
0.205
0.575
0.965
1.345
1.635
1.77
1.665
1.305
0.755
0.115
-0.525
-1.155
-1.44
-1.435
-1.26
-1.01
-0.775
-0.6
-0.505
-0.465
-0.475
-0.51
-0.525
-0.555
-0.58
-0.57
-0.575
-0.57
-0.58
-0.575
-0.565
-0.565
-0.56
-0.565
-0.555
-0.545
-0.535
-0.54
-0.55
-0.55
-0.565
-0.56
-0.57
-0.555
-0.545
-0.535
-0.54
-0.525
-0.54
-0.54
-0.555
-0.545
-0.54
-0.545
-0.55
-0.535
-0.525
-0.53
-0.52
-0.51
-0.51
-0.515
-0.52
-0.53
-0.53
-0.535
-0.52
-0.525
-0.51
-0.505
-0.5
-0.505
-0.505
-0.49
-0.515
-0.51
-0.525
-0.52
-0.515
-0.505
-0.495
-0.5
-0.48
-0.475
-0.48
-0.465
-0.47
-0.475
-0.48
-0.475
-0.47
-0.475
-0.475
-0.46
-0.445
-0.44
-0.43
-0.43
-0.44
-0.44
-0.44
-0.44
-0.44
-0.43
-0.415
-0.415
-0.405
-0.385
-0.375
-0.38
-0.385
-0.38
-0.4
-0.39
-0.385
-0.38
-0.375
-0.36
-0.36
-0.35
-0.345
-0.36
-0.355
-0.365
-0.365
-0.375
-0.38
-0.365
-0.36
-0.365
-0.355
-0.35
-0.36
-0.365
-0.39
-0.395
-0.415
-0.445
-0.46
-0.47
-0.48
-0.49
-0.5
-0.515
-0.535
-0.565
-0.575
-0.605
-0.61
-0.62
-0.625
-0.635
-0.635
-0.62
-0.625
-0.625
-0.63
-0.625
-0.64
-0.65
-0.65
-0.66
-0.655
-0.65
-0.645
-0.64
-0.635
-0.615
-0.625
-0.62
-0.625
-0.62
-0.625
-0.635
-0.63
-0.63
-0.61
-0.6
-0.585
-0.57
-0.585
-0.575
-0.585
-0.595
-0.585
-0.585
-0.585
-0.57
-0.565
-0.565
-0.55
-0.545
-0.555
-0.555
-0.57
-0.58
-0.575
-0.575
-0.58
-0.575
-0.56
-0.56
-0.575
-0.565
-0.56
-0.56
-0.57
-0.57
-0.595
-0.59
-0.585
-0.6
-0.585
-0.58
-0.58
-0.58
-0.585
-0.585
-0.6
-0.6
-0.61
-0.605
-0.61
-0.61
-0.61
-0.605
-0.6
-0.6
-0.6
-0.58
-0.59
-0.6
-0.61
-0.615
-0.63
-0.615
-0.605
-0.615
-0.605
-0.595
-0.595
-0.59
-0.6
-0.605
-0.61
-0.61
-0.61
-0.61
-0.605
-0.6
-0.59
-0.585
-0.595
-0.585
-0.595
-0.595
-0.605
-0.61
-0.61
-0.62
-0.61
-0.6
-0.595
-0.58
-0.585
-0.59
-0.6
-0.595
-0.6
-0.605
-0.595
-0.595
-0.58
-0.58
-0.57
-0.56
-0.56
-0.565
-0.555
-0.545
-0.54
-0.53
-0.52
-0.5
-0.49
-0.48
-0.465
-0.445
-0.44
-0.445
-0.445
-0.44
-0.47
-0.475
-0.475
-0.47
-0.465
-0.455
-0.445
-0.44
-0.45
-0.465
-0.485
-0.495
-0.51
-0.525
-0.54
-0.55
-0.555
-0.56
-0.56
-0.56
-0.565
-0.565
-0.585
-0.595
-0.605
-0.62
-0.6
-0.605
-0.59
-0.59
-0.58
-0.575
-0.58
-0.58
-0.59
-0.59
-0.59
-0.6
-0.59
-0.59
-0.59
-0.585
-0.58
-0.57
-0.565
-0.575
-0.57
-0.56
-0.565
-0.565
-0.565
-0.545
-0.535
-0.515
-0.525
-0.5
-0.465
-0.42
-0.315
-0.16
0.09
0.45
0.875
1.315
1.665
1.835
1.715
1.32
0.68
0.04
-0.6
-1.24
-1.425
-1.33
-1.085
-0.79
-0.535
-0.39
-0.32
-0.32
-0.355
-0.42
-0.475
-0.51
-0.52
-0.52
-0.5
-0.5
-0.465
-0.46
-0.45
-0.445
-0.455
-0.46
-0.465
-0.46
-0.465
-0.465
-0.465
-0.47
-0.46
-0.45
-0.45
-0.44
-0.45
-0.445
-0.44
-0.445
-0.455
-0.455
-0.46
-0.45
-0.445
-0.435
-0.425
-0.42
-0.425
-0.425
-0.43
-0.43
-0.43
-0.445
-0.45
-0.44
-0.43
-0.43
-0.425
-0.41
-0.425
-0.42
-0.435
-0.43
-0.435
-0.435
-0.445
-0.43
-0.42
-0.41
-0.41
-0.4
-0.4
-0.415
-0.4
-0.405
-0.41
-0.41
-0.41
-0.4
-0.395
-0.385
-0.37
-0.36
-0.36
-0.36
-0.38
-0.37
-0.36
-0.365
-0.36
-0.365
-0.34
-0.335
-0.325
-0.325
-0.33
-0.32
-0.33
-0.33
-0.335
-0.345
-0.35
-0.335
-0.335
-0.315
-0.31
-0.29
-0.28
-0.285
-0.295
-0.295
-0.305
-0.31
-0.325
-0.31
-0.3
-0.3
-0.285
-0.285
-0.28
-0.275
-0.28
-0.29
-0.305
-0.31
-0.325
-0.335
-0.33
-0.355
-0.35
-0.35
-0.35
-0.36
-0.385
-0.405
-0.435
-0.44
-0.465
-0.46
-0.475
-0.475
-0.48
-0.48
-0.485
-0.49
-0.505
-0.515
-0.525
-0.53
-0.535
-0.535
-0.54
-0.53
-0.535
-0.52
-0.525
-0.53
-0.535
-0.54
-0.535
-0.535
-0.54
-0.535
-0.525
-0.535
-0.51
-0.515
-0.51
-0.505
-0.515
-0.515
-0.52
-0.52
-0.515
-0.52
-0.5
-0.505
-0.49
-0.48
-0.48
-0.48
-0.49
-0.49
-0.485
-0.5
-0.495
-0.485
-0.475
-0.475
-0.46
-0.455
-0.455
-0.46
-0.475
-0.485
-0.49
-0.485
-0.5
-0.505
-0.505
-0.505
-0.485
-0.475
-0.48
-0.5
-0.5
-0.5
-0.505
-0.515
-0.505
-0.515
-0.5
-0.495
-0.495
-0.495
-0.5
-0.505
-0.5
-0.515
-0.51
-0.53
-0.525
-0.52
-0.515
-0.505
-0.505
-0.495
-0.52
-0.52
-0.51
-0.53
-0.535
-0.535
-0.525
-0.52
-0.515
-0.515
-0.505
-0.5
-0.505
-0.495
-0.51
-0.515
-0.52
-0.525
-0.535
-0.535
-0.53
-0.505
-0.51
-0.5
-0.51
-0.51
-0.51
-0.525
-0.525
-0.53
-0.535
-0.53
-0.52
-0.52
-0.51
-0.515
-0.505
-0.515
-0.52
-0.515
-0.535
-0.53
-0.53
-0.525
-0.525
-0.52
-0.515
-0.53
-0.52
-0.52
-0.525
-0.515
-0.52
-0.525
-0.52
-0.52
-0.52
-0.51
-0.495
-0.49
-0.49
-0.48
-0.485
-0.5
-0.505
-0.495
-0.465
-0.46
-0.435
-0.42
-0.4
-0.385
-0.38
-0.365
-0.375
-0.37
-0.365
-0.37
-0.375
-0.375
-0.39
-0.39
-0.39
-0.37
-0.37
-0.37
-0.385
-0.4
-0.4
-0.405
-0.41
-0.435
-0.445
-0.445
-0.465
-0.46
-0.47
-0.475
-0.49
-0.485
-0.495
-0.5
-0.5
-0.495
-0.49
-0.485
-0.49
-0.48
-0.48
-0.49
-0.49
-0.495
-0.505
-0.51
-0.505
-0.5
-0.505
-0.49
-0.48
-0.46
-0.475
-0.465
-0.465
-0.47
-0.465
-0.465
-0.45
-0.445
-0.435
-0.42
-0.41
-0.365
-0.31
-0.2
-0.025
0.21
0.525
0.89
1.27
1.62
1.84
1.83
1.57
1.045
0.405
-0.235
-0.875
-1.255
-1.29
-1.125
-0.875
-0.61
-0.415
-0.3
-0.25
-0.265
-0.31
-0.345
-0.375
-0.39
-0.405
-0.415
-0.39
-0.375
-0.37
-0.365
-0.355
-0.34
-0.35
-0.355
-0.365
-0.365
-0.37
-0.375
-0.365
-0.36
-0.35
-0.35
-0.345
-0.34
-0.35
-0.34
-0.35
-0.36
-0.36
-0.375
-0.37
-0.365
-0.37
-0.36
-0.36
-0.335
-0.335
-0.335
-0.34
-0.345
-0.365
-0.37
-0.35
-0.36
-0.35
-0.345
-0.33
-0.33
-0.32
-0.33
-0.335
-0.34
-0.35
-0.35
-0.365
-0.355
-0.345
-0.32
-0.325
-0.32
-0.32
-0.32
-0.32
-0.32
-0.32
-0.335
-0.345
-0.33
-0.33
-0.305
-0.3
-0.305
-0.295
-0.295
-0.32
-0.32
-0.315
-0.315
-0.315
-0.32
-0.32
-0.305
-0.3
-0.285
-0.27
-0.28
-0.275
-0.27
-0.275
-0.275
-0.285
-0.28
-0.28
-0.26
-0.265
-0.25
-0.25
-0.25
-0.255
-0.26
-0.27
-0.28
-0.28
-0.275
-0.285
-0.29
-0.275
-0.275
-0.255
-0.265
-0.27
-0.275
-0.28
-0.285
-0.27
-0.27
-0.26
-0.26
-0.25
-0.245
-0.26
-0.27
-0.26
-0.29
-0.3
-0.31
-0.33
-0.34
-0.345
-0.36
-0.345
-0.355
-0.37
-0.38
-0.4
-0.405
-0.43
-0.44
-0.445
-0.45
-0.445
-0.45
-0.445
-0.445
-0.45
-0.455
-0.45
-0.47
-0.47
-0.47
-0.475
-0.465
-0.465
-0.46
-0.45
-0.455
-0.455
-0.46
-0.46
-0.465
-0.46
-0.47
-0.47
-0.47
-0.455
-0.45
-0.44
-0.43
-0.43
-0.43
-0.425
-0.43
-0.45
-0.445
-0.45
-0.46
-0.44
-0.435
-0.42
-0.415
-0.415
-0.415
-0.42
-0.42
-0.43
-0.435
-0.435
-0.445
-0.44
-0.43
-0.43
-0.43
-0.45
-0.455
-0.445
-0.445
-0.45
-0.455
-0.46
-0.46
-0.465
-0.45
-0.45
-0.445
-0.435
-0.45
-0.46
-0.47
-0.48
-0.48
-0.495
-0.485
-0.475
-0.475
-0.465
-0.475
-0.45
-0.465
-0.465
-0.485
-0.485
-0.5
-0.505
-0.5
-0.495
-0.49
-0.485
-0.475
-0.48
-0.485
-0.49
-0.495
-0.495
-0.51
-0.51
-0.525
-0.525
-0.51
-0.505
-0.495
-0.49
-0.485
-0.5
-0.505
-0.51
-0.515
-0.52
-0.52
-0.51
-0.5
-0.505
-0.5
-0.49
-0.505
-0.505
-0.505
-0.505
-0.515
-0.51
-0.505
-0.51
-0.51
-0.5
-0.485
-0.485
-0.495
-0.49
-0.495
-0.505
-0.515
-0.52
-0.53
-0.515
-0.5
-0.495
-0.48
-0.485
-0.49
-0.48
-0.49
-0.485
-0.5
-0.485
-0.465
-0.46
-0.46
-0.425
-0.4
-0.395
-0.39
-0.365
-0.37
-0.375
-0.37
-0.365
-0.365
-0.365
-0.36
-0.36
-0.36
-0.365
-0.375
-0.36
-0.38
-0.385
-0.385
-0.39
-0.4
-0.405
-0.415
-0.425
-0.435
-0.445
-0.465
-0.46
-0.48
-0.485
-0.49
-0.49
-0.495
-0.505
-0.51
-0.505
-0.49
-0.49
-0.5
-0.485
-0.5
-0.5
-0.505
-0.53
-0.52
-0.53
-0.52
-0.515
-0.505
-0.495
-0.505
-0.5
-0.51
-0.5
-0.51
-0.51
-0.495
-0.495
-0.48
-0.48
-0.465
-0.445
-0.44
-0.44
-0.44
-0.455
-0.44
-0.41
-0.36
-0.255
-0.085
0.15
0.47
0.85
1.24
1.56
1.755
1.755
1.505
1.02
0.38
-0.26
-0.875
-1.215
-1.295
-1.16
-0.92
-0.665
-0.48
-0.36
-0.32
-0.325
-0.345
-0.38
-0.395
-0.41
-0.415
-0.4
-0.39
-0.395
-0.385
-0.4
-0.395
-0.4
-0.405
-0.4
-0.39
-0.385
-0.38
-0.38
-0.385
-0.395
-0.39
-0.395
-0.405
-0.4
-0.395
-0.39
-0.38
-0.375
-0.36
-0.36
-0.36
-0.365
-0.365
-0.37
-0.375
-0.395
-0.395
-0.395
-0.39
-0.39
-0.365
-0.37
-0.365
-0.36
-0.365
-0.36
-0.365
-0.37
-0.37
-0.37
-0.365
-0.36
-0.355
-0.35
-0.35
-0.36
-0.365
-0.365
-0.365
-0.375
-0.38
-0.385
-0.36
-0.36
-0.365
-0.34
-0.34
-0.34
-0.345
-0.36
-0.365
-0.365
-0.365
-0.35
-0.355
-0.345
-0.335
-0.33
-0.33
-0.325
-0.33
-0.33
-0.34
-0.345
-0.335
-0.33
-0.32
-0.315
-0.31
-0.295
-0.305
-0.3
-0.315
-0.32
-0.32
-0.32
-0.31
-0.305
-0.305
-0.3
-0.29
-0.29
-0.29
-0.305
-0.3
-0.32
-0.315
-0.32
-0.315
-0.325
-0.32
-0.305
-0.32
-0.32
-0.315
-0.32
-0.325
-0.335
-0.34
-0.325
-0.325
-0.325
-0.315
-0.32
-0.31
-0.315
-0.32
-0.34
-0.35
-0.375
-0.395
-0.395
-0.4
-0.405
-0.415
-0.42
-0.43
-0.445
-0.455
-0.455
-0.47
-0.475
-0.495
-0.485
-0.495
-0.49
-0.48
-0.51
-0.505
-0.505
-0.51
-0.51
-0.505
-0.515
-0.51
-0.51
-0.515
-0.51
-0.5
-0.5
-0.49
-0.495
-0.49
-0.49
-0.495
-0.5
-0.5
-0.495
-0.49
-0.49
-0.48
-0.485
-0.47
-0.47
-0.475
-0.47
-0.47
-0.48
-0.475
-0.495
-0.475
-0.47
-0.46
-0.45
-0.455
-0.435
-0.44
-0.45
-0.455
-0.465
-0.47
-0.485
-0.475
-0.48
-0.485
-0.465
-0.465
-0.465
-0.47
-0.49
-0.49
-0.505
-0.52
-0.515
-0.525
-0.52
-0.52
-0.51
-0.52
-0.5
-0.5
-0.52
-0.515
-0.535
-0.535
-0.54
-0.54
-0.55
-0.545
-0.535
-0.535
-0.51
-0.52
-0.52
-0.52
-0.52
-0.53
-0.53
-0.535
-0.53
-0.51
-0.505
-0.475
-0.46
-0.45
-0.435
-0.44
-0.435
-0.435
-0.43
-0.415
-0.395
-0.385
-0.375
-0.365
-0.365
-0.38
-0.38
-0.39
-0.415
-0.395
-0.385
-0.395
-0.395
-0.395
-0.415
-0.425
-0.43
-0.455
-0.475
-0.515
-0.54
-0.545
-0.555
-0.565
-0.56
-0.55
-0.53
-0.54
-0.55
-0.565
-0.56
-0.565
-0.56
-0.575
-0.575
