Lead II
-0.935
-0.93
-0.93
-0.915
-0.905
-0.905
-0.91
-0.905
-0.915
-0.94
-0.92
-0.94
-0.93
-0.915
-0.91
-0.9
-0.89
-0.9
-0.885
-0.885
-0.9
-0.91
-0.915
-0.905
-0.91
-0.895
-0.89
-0.88
-0.87
-0.88
-0.88
-0.9
-0.89
-0.905
-0.91
-0.915
-0.915
-0.89
-0.885
-0.87
-0.865
-0.86
-0.86
-0.865
-0.87
-0.865
-0.885
-0.88
-0.885
-0.87
-0.855
-0.845
-0.83
-0.82
-0.825
-0.825
-0.825
-0.83
-0.825
-0.82
-0.81
-0.79
-0.775
-0.755
-0.755
-0.73
-0.735
-0.725
-0.735
-0.725
-0.715
-0.71
-0.695
-0.69
-0.655
-0.63
-0.61
-0.585
-0.585
-0.57
-0.565
-0.57
-0.56
-0.56
-0.545
-0.52
-0.5
-0.485
-0.45
-0.44
-0.425
-0.435
-0.435
-0.445
-0.435
-0.445
-0.43
-0.425
-0.43
-0.42
-0.425
-0.435
-0.46
-0.48
-0.505
-0.52
-0.545
-0.555
-0.58
-0.59
-0.605
-0.62
-0.63
-0.645
-0.655
-0.665
-0.71
-0.72
-0.74
-0.755
-0.77
-0.77
-0.76
-0.76
-0.77
-0.765
-0.77
-0.765
-0.8
-0.805
-0.81
-0.815
-0.82
-0.82
-0.81
-0.815
-0.81
-0.8
-0.8
-0.81
-0.82
-0.835
-0.835
-0.85
-0.845
-0.84
-0.835
-0.84
-0.805
-0.805
-0.805
-0.805
-0.815
-0.825
-0.825
-0.835
-0.825
-0.815
-0.805
-0.795
-0.785
-0.79
-0.785
-0.79
-0.79
-0.795
-0.795
-0.81
-0.81
-0.8
-0.795
-0.785
-0.77
-0.78
-0.765
-0.775
-0.785
-0.8
-0.81
-0.8
-0.805
-0.8
-0.805
-0.785
-0.775
-0.78
-0.775
-0.785
-0.795
-0.805
-0.81
-0.82
-0.82
-0.835
-0.82
-0.81
-0.795
-0.79
-0.8
-0.8
-0.815
-0.82
-0.825
-0.835
-0.835
-0.825
-0.815
-0.81
-0.815
-0.82
-0.81
-0.82
-0.815
-0.82
-0.83
-0.83
-0.835
-0.825
-0.83
-0.82
-0.81
-0.81
-0.805
-0.825
-0.84
-0.845
-0.84
-0.865
-0.86
-0.85
-0.835
-0.84
-0.825
-0.835
-0.835
-0.84
-0.845
-0.86
-0.88
-0.88
-0.885
-0.885
-0.875
-0.85
-0.855
-0.84
-0.855
-0.845
-0.86
-0.87
-0.86
-0.88
-0.865
-0.855
-0.86
-0.84
-0.825
-0.83
-0.825
-0.84
-0.83
-0.865
-0.86
-0.87
-0.865
-0.86
-0.855
-0.85
-0.83
-0.835
-0.835
-0.845
-0.845
-0.855
-0.87
-0.87
-0.86
-0.865
-0.85
-0.85
-0.835
-0.835
-0.835
-0.85
-0.85
-0.87
-0.88
-0.875
-0.875
-0.87
-0.845
-0.85
-0.83
-0.845
-0.84
-0.835
-0.86
-0.865
-0.86
-0.855
-0.87
-0.85
-0.84
-0.835
-0.825
-0.845
-0.835
-0.84
-0.84
-0.855
-0.86
-0.865
-0.86
-0.875
-0.85
-0.845
-0.82
-0.825
-0.815
-0.83
-0.84
-0.855
-0.855
-0.86
-0.87
-0.865
-0.855
-0.845
-0.835
-0.83
-0.825
-0.84
-0.855
-0.87
-0.865
-0.86
-0.86
-0.86
-0.85
-0.855
-0.835
-0.84
-0.83
-0.835
-0.84
-0.845
-0.845
-0.855
-0.865
-0.86
-0.84
-0.825
-0.815
-0.815
-0.815
-0.83
-0.825
-0.815
-0.825
-0.81
-0.795
-0.79
-0.765
-0.73
-0.725
-0.7
-0.695
-0.695
-0.715
-0.71
-0.705
-0.705
-0.68
-0.67
-0.655
-0.675
-0.665
-0.695
-0.69
-0.71
-0.73
-0.735
-0.74
-0.75
-0.755
-0.76
-0.76
-0.765
-0.775
-0.81
-0.825
-0.845
-0.87
-0.87
-0.89
-0.895
-0.91
-0.905
-0.885
-0.88
-0.875
-0.875
-0.88
-0.875
-0.895
-0.895
-0.9
-0.91
-0.905
-0.895
-0.9
-0.875
-0.88
-0.89
-0.885
-0.885
-0.875
-0.89
-0.89
-0.9
-0.89
-0.89
-0.88
-0.865
-0.845
-0.845
-0.83
-0.825
-0.84
-0.84
-0.845
-0.825
-0.82
-0.785
-0.785
-0.71
-0.6
-0.445
-0.25
-0.01
0.215
0.445
0.715
0.945
1.105
1.1
0.945
0.645
0.19
-0.34
-0.86
-1.29
-1.545
-1.615
-1.525
-1.355
-1.18
-1.055
-0.98
-0.94
-0.945
-0.95
-0.925
-0.915
-0.87
-0.88
-0.86
-0.865
-0.875
-0.875
-0.86
-0.865
-0.85
-0.845
-0.85
-0.835
-0.855
-0.845
-0.845
-0.865
-0.885
-0.875
-0.865
-0.86
-0.84
-0.845
-0.855
-0.84
-0.845
-0.865
-0.875
-0.87
-0.87
-0.865
-0.85
-0.84
-0.825
-0.84
-0.835
-0.84
-0.84
-0.85
-0.865
-0.86
-0.865
-0.88
-0.87
-0.84
-0.85
-0.85
-0.83
-0.82
-0.835
-0.835
-0.855
-0.86
-0.85
-0.83
-0.81
-0.8
-0.795
-0.78
-0.785
-0.77
-0.79
-0.785
-0.8
-0.795
-0.785
-0.765
-0.755
-0.74
-0.71
-0.7
-0.695
-0.68
-0.685
-0.675
-0.67
-0.67
-0.65
-0.635
-0.605
-0.58
-0.565
-0.55
-0.525
-0.535
-0.52
-0.525
-0.53
-0.53
-0.515
-0.495
-0.48
-0.475
-0.44
-0.435
-0.425
-0.405
-0.4
-0.41
-0.42
-0.43
-0.44
-0.42
-0.425
-0.415
-0.42
-0.445
-0.46
-0.47
-0.495
-0.525
-0.55
-0.585
-0.62
-0.64
-0.655
-0.655
-0.645
-0.675
-0.675
-0.715
-0.73
-0.755
-0.775
-0.785
-0.785
-0.79
-0.79
-0.795
-0.785
-0.785
-0.785
-0.8
-0.815
-0.845
-0.84
-0.835
-0.845
-0.835
-0.84
-0.83
-0.82
-0.815
-0.805
-0.8
-0.82
-0.82
-0.815
-0.83
-0.825
-0.82
-0.815
-0.795
-0.8
-0.795
-0.78
-0.8
-0.815
-0.82
-0.82
-0.815
-0.82
-0.82
-0.82
-0.805
-0.795
-0.785
-0.785
-0.79
-0.81
-0.795
-0.8
-0.83
-0.805
-0.815
-0.805
-0.8
-0.78
-0.78
-0.79
-0.795
-0.81
-0.82
-0.83
-0.825
-0.83
-0.825
-0.83
-0.82
-0.815
-0.805
-0.815
-0.8
-0.82
-0.82
-0.835
-0.845
-0.855
-0.84
-0.83
-0.83
-0.82
-0.815
-0.825
-0.83
-0.865
-0.85
-0.875
-0.87
-0.875
-0.875
-0.885
-0.865
-0.865
-0.855
-0.87
-0.865
-0.865
-0.88
-0.885
-0.895
-0.885
-0.89
-0.885
-0.88
-0.865
-0.87
-0.88
-0.865
-0.89
-0.895
-0.915
-0.925
-0.93
-0.895
-0.885
-0.895
-0.885
-0.875
-0.875
-0.885
-0.89
-0.905
-0.905
-0.915
-0.93
-0.93
-0.905
-0.895
-0.905
-0.885
-0.88
-0.88
-0.89
-0.89
-0.895
-0.91
-0.91
-0.93
-0.92
-0.905
-0.895
-0.885
-0.885
-0.87
-0.885
-0.905
-0.92
-0.925
-0.925
-0.925
-0.915
-0.9
-0.89
-0.89
-0.9
-0.89
-0.905
-0.91
-0.905
-0.925
-0.925
-0.905
-0.91
-0.9
-0.895
-0.9
-0.895
-0.895
-0.905
-0.92
-0.92
-0.93
-0.91
-0.905
-0.89
-0.89
-0.885
-0.875
-0.885
-0.89
-0.915
-0.915
-0.915
-0.93
-0.92
-0.925
-0.915
-0.905
-0.885
-0.885
-0.895
-0.89
-0.895
-0.915
-0.91
-0.925
-0.94
-0.945
-0.925
-0.92
-0.915
-0.9
-0.885
-0.885
-0.895
-0.92
-0.9
-0.895
-0.89
-0.87
-0.845
-0.8
-0.8
-0.79
-0.79
-0.79
-0.81
-0.805
-0.785
-0.77
-0.745
-0.725
-0.695
-0.68
-0.675
-0.69
-0.715
-0.73
-0.755
-0.77
-0.775
-0.795
-0.795
-0.79
-0.795
-0.79
-0.82
-0.84
-0.875
-0.895
-0.935
-0.955
-0.97
-0.99
-1.0
-0.99
-0.99
-0.975
-0.96
-0.97
-0.965
-0.955
-0.95
-0.98
-0.99
-0.98
-0.99
-0.975
-0.96
-0.965
-0.95
-0.945
-0.945
-0.95
-0.97
-0.97
-0.97
-0.985
-0.99
-0.985
-0.965
-0.94
-0.94
-0.93
-0.925
-0.92
-0.93
-0.945
-0.925
-0.935
-0.94
-0.935
-0.935
-0.925
-0.895
-0.865
-0.775
-0.615
-0.4
-0.16
0.09
0.36
0.66
0.92
1.085
1.065
0.83
0.41
-0.13
-0.705
-1.255
-1.62
-1.795
-1.805
-1.675
-1.505
-1.35
-1.245
-1.165
-1.095
-1.065
-1.025
-1.01
-0.985
-0.97
-0.965
-0.965
-0.96
-0.975
-0.98
-0.96
-0.95
-0.94
-0.93
-0.94
-0.965
-0.975
-0.975
-0.975
-0.97
-0.96
-0.955
-0.955
-0.94
-0.945
-0.935
-0.94
-0.95
-0.96
-0.96
-0.955
-0.965
-0.95
-0.945
-0.945
-0.925
-0.925
-0.92
-0.935
-0.935
-0.955
-0.955
-0.965
-0.965
-0.95
-0.945
-0.935
-0.915
-0.925
-0.915
-0.925
-0.93
-0.945
-0.95
-0.94
-0.93
-0.915
-0.895
-0.89
-0.875
-0.875
-0.885
-0.885
-0.875
-0.885
-0.875
-0.88
-0.88
-0.865
-0.85
-0.82
-0.805
-0.775
-0.765
-0.765
-0.76
-0.765
-0.77
-0.75
-0.75
-0.735
-0.725
-0.695
-0.675
-0.675
-0.66
-0.65
-0.66
-0.645
-0.65
-0.64
-0.635
-0.605
-0.59
-0.565
-0.555
-0.555
-0.555
-0.545
-0.545
-0.545
-0.575
-0.56
-0.58
-0.575
-0.595
-0.585
-0.595
-0.615
-0.63
-0.65
-0.69
-0.72
-0.74
-0.755
-0.76
-0.77
-0.79
-0.77
-0.78
-0.78
-0.79
-0.815
-0.82
-0.835
-0.855
-0.865
-0.88
-0.86
-0.86
-0.85
-0.845
-0.84
-0.855
-0.86
-0.875
-0.9
-0.885
-0.89
-0.885
-0.895
-0.885
-0.865
-0.85
-0.86
-0.865
-0.855
-0.87
-0.875
-0.885
-0.885
-0.9
-0.895
-0.895
-0.885
-0.865
-0.875
-0.865
-0.87
-0.875
-0.865
-0.87
-0.865
-0.86
-0.855
-0.85
-0.835
-0.83
-0.825
-0.82
-0.835
-0.845
-0.84
-0.85
-0.86
-0.865
-0.85
-0.84
-0.825
-0.815
-0.82
-0.82
-0.835
-0.85
-0.845
-0.875
-0.84
-0.845
-0.835
-0.84
-0.83
-0.825
-0.84
-0.84
-0.845
-0.87
-0.85
-0.87
-0.87
-0.88
-0.865
-0.86
-0.86
-0.845
-0.85
-0.86
-0.87
-0.875
-0.885
-0.875
-0.88
-0.895
-0.88
-0.875
-0.875
-0.85
-0.865
-0.86
-0.86
-0.86
-0.88
-0.89
-0.89
-0.895
-0.89
-0.89
-0.885
-0.86
-0.875
-0.87
-0.88
-0.89
-0.9
-0.91
-0.91
-0.895
-0.895
-0.885
-0.87
-0.88
-0.885
-0.895
-0.88
-0.885
-0.905
-0.9
-0.92
-0.91
-0.905
-0.905
-0.895
-0.88
-0.87
-0.875
-0.875
-0.88
-0.9
-0.905
-0.91
-0.9
-0.895
-0.875
-0.87
-0.875
-0.875
-0.885
-0.87
-0.88
-0.89
-0.905
-0.9
-0.89
-0.885
-0.89
-0.875
-0.875
-0.865
-0.87
-0.87
-0.88
-0.885
-0.89
-0.89
-0.9
-0.9
-0.89
-0.875
-0.855
-0.85
-0.865
-0.865
-0.87
-0.885
-0.885
-0.88
-0.88
-0.88
-0.865
-0.865
-0.85
-0.855
-0.85
-0.86
-0.845
-0.845
-0.835
-0.845
-0.82
-0.785
-0.78
-0.75
-0.735
-0.735
-0.715
-0.725
-0.73
-0.725
-0.725
-0.715
-0.7
-0.715
-0.715
-0.715
-0.725
-0.745
-0.75
-0.765
-0.76
-0.775
-0.78
-0.785
-0.79
-0.805
-0.795
-0.81
-0.845
-0.855
-0.88
-0.885
-0.9
-0.91
-0.925
-0.93
-0.935
-0.925
-0.92
-0.92
-0.905
-0.91
-0.91
-0.925
-0.92
-0.94
-0.95
-0.945
-0.955
-0.94
-0.935
-0.925
-0.905
-0.925
-0.925
-0.9
-0.915
-0.915
-0.945
-0.93
-0.93
-0.92
-0.905
-0.915
-0.89
-0.885
-0.885
-0.865
-0.88
-0.87
-0.865
-0.865
-0.825
-0.785
-0.725
-0.625
-0.45
-0.235
0.005
0.26
0.5
0.755
0.995
1.155
1.165
0.98
0.635
0.14
-0.43
-0.995
-1.44
-1.67
-1.72
-1.6
-1.4
-1.215
-1.08
-1.01
-0.98
-0.95
-0.94
-0.93
-0.905
-0.885
-0.875
-0.875
-0.88
-0.885
-0.91
-0.9
-0.895
-0.87
-0.85
-0.845
-0.855
-0.855
-0.875
-0.885
-0.895
-0.905
-0.9
-0.88
-0.865
-0.865
-0.85
-0.86
-0.855
-0.855
-0.865
-0.865
-0.86
-0.865
-0.85
-0.855
-0.855
-0.845
-0.83
-0.835
-0.83
-0.84
-0.84
-0.84
-0.87
-0.865
-0.86
-0.85
-0.835
-0.845
-0.82
-0.83
-0.83
-0.825
-0.84
-0.84
-0.835
-0.835
-0.82
-0.825
-0.805
-0.79
-0.775
-0.755
-0.75
-0.745
-0.75
-0.755
-0.735
-0.74
-0.735
-0.74
-0.715
-0.675
-0.66
-0.645
-0.625
-0.615
-0.62
-0.615
-0.615
-0.595
-0.585
-0.565
-0.54
-0.51
-0.495
-0.47
-0.465
-0.475
-0.46
-0.48
-0.445
-0.445
-0.445
-0.415
-0.395
-0.39
-0.36
-0.375
-0.385
-0.385
-0.39
-0.42
-0.44
-0.45
-0.465
-0.475
-0.465
-0.475
-0.5
-0.535
-0.55
-0.58
-0.605
-0.625
-0.65
-0.67
-0.685
-0.7
-0.705
-0.71
-0.7
-0.71
-0.735
-0.765
-0.775
-0.8
-0.79
-0.8
-0.81
-0.81
-0.8
-0.785
-0.775
-0.785
-0.8
-0.79
-0.815
-0.825
-0.83
-0.835
-0.83
-0.82
-0.805
-0.81
-0.805
-0.81
-0.815
-0.815
-0.815
-0.835
-0.84
-0.83
-0.825
-0.83
-0.81
-0.8
-0.785
-0.775
-0.77
-0.785
-0.78
-0.8
-0.795
-0.815
-0.815
-0.785
-0.78
-0.77
-0.77
-0.765
-0.78
-0.795
-0.79
-0.775
-0.795
-0.785
-0.79
-0.785
-0.77
-0.76
-0.765
-0.74
-0.75
-0.755
-0.785
-0.785
-0.795
-0.81
-0.81
-0.805
-0.785
-0.79
-0.8
-0.785
-0.79
-0.795
-0.8
-0.81
-0.815
-0.815
-0.815
-0.81
-0.83
-0.8
-0.785
-0.8
-0.805
-0.795
-0.815
-0.82
-0.835
-0.84
-0.83
-0.83
-0.82
-0.815
-0.805
-0.82
-0.835
-0.825
-0.84
-0.85
-0.85
-0.865
-0.865
-0.855
-0.85
-0.85
-0.83
-0.85
-0.835
-0.83
-0.85
-0.87
-0.87
-0.875
-0.88
-0.875
-0.865
-0.87
-0.855
-0.84
-0.85
-0.86
-0.875
-0.875
-0.865
-0.87
-0.875
-0.875
-0.855
-0.845
-0.84
-0.855
-0.83
-0.845
-0.855
-0.85
-0.865
-0.865
-0.865
-0.865
-0.85
-0.85
-0.835
-0.845
-0.84
-0.835
-0.85
-0.855
-0.865
-0.865
-0.865
-0.855
-0.855
-0.86
-0.84
-0.84
-0.84
-0.87
-0.88
-0.865
-0.875
-0.89
-0.885
-0.875
-0.87
-0.875
-0.87
-0.86
-0.86
-0.85
-0.865
-0.87
-0.885
-0.875
-0.89
-0.865
-0.87
-0.87
-0.845
-0.83
-0.84
-0.85
-0.865
-0.875
-0.895
-0.895
-0.875
-0.88
-0.87
-0.85
-0.85
-0.85
-0.845
-0.845
-0.86
-0.865
-0.87
-0.875
-0.865
-0.865
-0.865
-0.84
-0.835
-0.82
-0.82
-0.83
-0.825
-0.815
-0.81
-0.805
-0.785
-0.76
-0.745
-0.725
-0.705
-0.72
-0.705
-0.7
-0.685
-0.68
-0.695
-0.7
-0.715
-0.74
-0.74
-0.75
-0.735
-0.735
-0.75
-0.755
-0.76
-0.775
-0.78
-0.815
-0.835
-0.825
-0.84
-0.84
-0.86
-0.87
-0.895
-0.9
-0.915
-0.93
-0.955
-0.96
-0.965
-0.96
-0.95
-0.955
-0.925
-0.92
-0.93
-0.915
-0.93
-0.935
-0.935
-0.935
-0.945
-0.93
-0.945
-0.93
-0.915
-0.92
-0.91
-0.915
-0.925
-0.925
-0.935
-0.925
-0.925
-0.92
-0.895
-0.9
-0.88
-0.875
-0.885
-0.865
-0.895
-0.85
-0.855
-0.845
-0.845
-0.785
-0.735
-0.625
-0.475
-0.27
-0.05
0.175
0.415
0.635
0.885
1.06
1.1
0.97
0.665
0.22
-0.34
-0.865
-1.32
-1.6
-1.675
-1.59
-1.415
-1.24
-1.125
-1.04
-0.995
-0.995
-0.98
-0.99
-0.955
-0.925
-0.905
-0.885
-0.89
-0.9
-0.905
-0.93
-0.91
-0.905
-0.885
-0.88
-0.885
-0.885
-0.875
-0.895
-0.9
-0.9
-0.9
-0.89
-0.89
-0.875
-0.87
-0.87
-0.87
-0.885
-0.885
-0.89
-0.895
-0.9
-0.905
-0.905
-0.885
-0.9
-0.88
-0.87
-0.875
-0.87
-0.875
-0.875
-0.88
-0.915
-0.905
-0.885
-0.88
-0.87
-0.845
-0.84
-0.84
-0.865
-0.85
-0.855
-0.85
-0.865
-0.87
-0.855
-0.86
-0.845
-0.835
-0.825
-0.82
-0.82
-0.815
-0.815
-0.815
-0.82
-0.805
-0.795
-0.775
-0.77
-0.77
-0.75
-0.74
-0.725
-0.72
-0.71
-0.695
-0.695
-0.68
-0.655
-0.635
-0.625
-0.6
-0.57
-0.56
-0.545
-0.55
-0.545
-0.52
-0.525
-0.52
-0.485
-0.465
-0.43
-0.42
-0.41
-0.405
-0.405
-0.405
-0.405
-0.41
-0.42
-0.425
-0.43
-0.445
-0.45
-0.445
-0.46
-0.485
-0.51
-0.525
-0.56
-0.59
-0.615
-0.645
-0.67
-0.68
-0.68
-0.68
-0.71
-0.72
-0.75
-0.76
-0.775
-0.805
-0.815
-0.825
-0.815
-0.82
-0.81
-0.805
-0.815
-0.81
-0.81
-0.825
-0.83
-0.835
-0.855
-0.86
-0.86
-0.845
-0.83
-0.84
-0.84
-0.835
-0.84
-0.85
-0.865
-0.86
-0.865
-0.85
-0.86
-0.845
-0.84
-0.83
-0.82
-0.82
-0.82
-0.825
-0.845
-0.845
-0.855
-0.885
-0.85
-0.83
-0.835
-0.81
-0.82
-0.815
-0.82
-0.855
-0.85
-0.845
-0.84
-0.845
-0.84
-0.855
-0.84
-0.825
-0.815
-0.81
-0.815
-0.845
-0.845
-0.85
-0.855
-0.845
-0.835
-0.835
-0.83
-0.85
-0.83
-0.835
-0.835
-0.85
-0.86
-0.87
-0.865
-0.87
-0.86
-0.85
-0.855
-0.84
-0.84
-0.845
-0.86
-0.87
-0.885
-0.895
-0.895
-0.92
-0.905
-0.905
-0.89
-0.89
-0.875
-0.875
-0.87
-0.87
-0.895
-0.89
-0.895
-0.91
-0.91
-0.895
-0.875
-0.87
-0.87
-0.88
-0.86
-0.87
-0.895
-0.9
-0.91
-0.91
-0.92
-0.91
-0.89
-0.895
-0.89
-0.89
-0.895
-0.915
-0.94
-0.94
-0.93
-0.94
-0.935
-0.925
-0.91
-0.905
-0.895
-0.905
-0.905
-0.905
-0.92
-0.93
-0.945
-0.93
-0.93
-0.915
-0.915
-0.9
-0.895
-0.905
-0.9
-0.905
-0.915
-0.92
-0.915
-0.92
-0.925
-0.905
-0.9
-0.885
-0.895
-0.905
-0.895
-0.895
-0.9
-0.915
-0.925
-0.93
-0.935
-0.925
-0.91
-0.9
-0.895
-0.905
-0.905
-0.92
-0.93
-0.945
-0.94
-0.95
-0.95
-0.94
-0.93
-0.91
-0.9
-0.895
-0.905
-0.895
-0.9
-0.92
-0.935
-0.935
-0.94
-0.925
-0.91
-0.91
-0.905
-0.9
-0.895
-0.91
-0.915
-0.92
-0.93
-0.92
-0.925
-0.92
-0.915
-0.91
-0.905
-0.905
-0.91
-0.915
-0.92
-0.94
-0.94
-0.945
-0.95
-0.95
-0.93
-0.91
-0.915
-0.92
-0.91
-0.915
-0.915
-0.93
-0.93
-0.935
-0.925
-0.92
-0.91
-0.895
-0.89
-0.86
-0.85
-0.825
-0.84
-0.83
-0.825
-0.83
-0.83
-0.82
-0.8
-0.775
-0.75
-0.73
-0.72
-0.715
-0.74
-0.75
-0.78
-0.79
-0.8
-0.8
-0.8
-0.78
-0.77
-0.77
-0.785
-0.8
-0.845
-0.88
-0.92
-0.94
-0.955
-0.945
-0.945
-0.94
-0.93
-0.94
-0.94
-0.95
-0.975
-0.985
-1.0
-1.015
-1.0
-0.99
-0.96
-0.965
-0.96
-0.97
-0.965
-0.975
-0.99
-0.985
-0.99
-1.0
-1.0
-0.985
-0.965
-0.955
-0.955
-0.945
-0.96
-0.96
-0.955
-0.96
-0.96
-0.955
-0.95
-0.945
-0.93
-0.91
-0.905
-0.905
-0.905
-0.905
-0.9
-0.9
-0.865
-0.795
-0.66
-0.44
-0.22
0.02
0.255
0.555
0.81
1.025
1.07
0.935
0.62
0.155
-0.39
-0.94
-1.375
-1.66
-1.765
-1.73
-1.6
-1.45
-1.32
-1.245
-1.18
-1.15
-1.115
-1.07
-1.02
-0.975
-0.965
-0.955
-0.955
-0.97
-0.98
-0.99
-0.995
-0.99
-0.985
-0.975
-0.955
-0.95
-0.935
-0.935
-0.93
-0.935
-0.935
-0.955
-0.965
-0.97
-0.98
-0.97
-0.965
-0.955
-0.955
-0.96
-0.95
-0.955
-0.955
-0.965
-0.97
-0.975
-0.99
-0.995
-0.97
-0.96
-0.95
-0.935
-0.94
-0.94
-0.955
-0.95
-0.96
-0.965
-0.965
-0.945
-0.955
-0.935
-0.95
-0.925
-0.935
-0.92
-0.945
-0.95
-0.945
-0.925
-0.93
-0.92
-0.905
-0.9
-0.89
-0.885
-0.88
-0.87
-0.88
-0.875
-0.87
-0.85
-0.865
-0.86
-0.825
-0.81
-0.8
-0.785
-0.77
-0.765
-0.77
-0.755
-0.75
-0.735
-0.725
-0.695
-0.69
-0.66
-0.64
-0.65
-0.635
-0.63
-0.625
-0.625
-0.62
-0.605
-0.605
-0.6
-0.595
-0.585
-0.57
-0.585
-0.59
-0.6
-0.625
-0.65
-0.66
-0.69
-0.7
-0.705
-0.735
-0.74
-0.745
-0.77
-0.78
-0.81
-0.83
-0.85
-0.875
-0.87
-0.885
-0.895
-0.9
-0.88
-0.875
-0.885
-0.89
-0.9
-0.92
-0.925
-0.935
-0.935
-0.93
-0.935
-0.915
-0.905
-0.9
-0.915
-0.92
-0.915
-0.915
-0.92
-0.935
-0.945
-0.945
-0.945
-0.935
-0.925
-0.91
-0.89
-0.895
-0.9
-0.915
-0.92
-0.925
-0.925
-0.935
-0.915
-0.915
-0.895
-0.885
-0.87
-0.88
-0.89
-0.88
-0.89
-0.89
-0.9
-0.89
-0.875
-0.86
-0.85
-0.84
-0.835
-0.84
-0.85
-0.87
-0.865
-0.865
-0.875
-0.86
-0.865
-0.865
-0.85
-0.84
-0.855
-0.86
-0.865
-0.88
-0.895
-0.885
-0.89
-0.88
-0.895
-0.87
-0.865
-0.855
-0.875
-0.86
-0.87
-0.885
-0.895
-0.91
-0.905
-0.905
-0.89
-0.875
-0.875
-0.875
-0.875
-0.875
-0.92
-0.915
-0.905
-0.915
-0.915
-0.91
-0.915
-0.905
-0.88
-0.875
-0.9
-0.89
-0.9
-0.915
-0.92
-0.92
-0.93
-0.915
-0.93
-0.93
-0.92
-0.91
-0.905
-0.895
-0.9
-0.915
-0.94
-0.95
-0.93
-0.92
-0.94
-0.925
-0.915
-0.925
-0.925
-0.925
-0.925
-0.935
-0.94
-0.95
-0.95
-0.945
-0.93
-0.925
-0.92
-0.905
-0.905
-0.915
-0.92
-0.925
-0.935
-0.945
-0.945
-0.95
-0.945
-0.94
-0.93
-0.92
-0.925
-0.905
-0.92
-0.92
-0.93
-0.935
-0.945
-0.945
-0.94
-0.915
-0.915
-0.91
-0.92
-0.915
-0.91
-0.915
-0.915
-0.925
-0.935
-0.93
-0.935
-0.925
-0.925
-0.93
-0.93
-0.92
-0.935
-0.94
-0.94
-0.95
-0.96
-0.96
-0.93
-0.925
-0.91
-0.88
-0.87
-0.84
-0.825
-0.825
-0.815
-0.82
-0.815
-0.8
-0.805
-0.795
-0.77
-0.74
-0.735
-0.73
-0.735
-0.775
-0.79
-0.82
-0.835
-0.82
-0.83
-0.82
-0.82
-0.795
-0.795
-0.815
-0.825
-0.855
-0.895
-0.905
-0.95
-0.955
-0.965
-0.965
-0.965
-0.955
-0.96
-0.965
-0.975
-1.01
-1.015
-1.01
-1.02
-1.005
-1.005
-0.975
-0.975
-0.965
-0.965
-0.975
-0.965
-0.98
-0.985
-0.975
-0.985
-0.98
-0.98
-0.97
-0.96
-0.95
-0.95
-0.95
-0.955
-0.96
-0.96
-0.965
-0.955
-0.955
-0.95
-0.93
-0.91
-0.895
-0.89
-0.88
-0.87
-0.865
-0.825
-0.745
-0.6
-0.4
-0.145
0.12
0.4
0.69
0.965
1.125
1.15
0.965
0.595
0.075
-0.53
-1.085
-1.51
-1.72
-1.72
-1.595
-1.385
-1.2
-1.09
-1.04
-1.04
-1.04
-1.04
-1.025
-0.98
-0.95
-0.925
-0.905
-0.915
-0.925
-0.935
-0.95
-0.96
-0.965
-0.97
-0.965
-0.96
-0.94
-0.95
-0.965
-0.945
-0.93
-0.935
-0.945
-0.955
-0.96
-0.96
-0.96
-0.96
-0.945
-0.945
-0.925
-0.905
-0.905
-0.925
-0.93
-0.93
-0.945
-0.94
-0.935
-0.935
-0.92
-0.915
-0.925
-0.92
-0.915
-0.915
-0.925
-0.93
-0.93
-0.93
-0.94
-0.93
-0.92
-0.895
-0.89
-0.885
-0.885
-0.87
-0.88
-0.88
-0.895
-0.88
-0.88
-0.86
-0.84
-0.83
-0.815
-0.81
-0.805
-0.8
-0.8
-0.79
-0.79
-0.77
-0.755
-0.745
-0.73
-0.715
-0.68
-0.66
-0.65
-0.64
-0.625
-0.63
-0.625
-0.615
-0.6
-0.575
-0.56
-0.525
-0.5
-0.5
-0.49
-0.48
-0.475
-0.47
-0.47
-0.47
-0.455
-0.46
-0.46
-0.445
-0.435
-0.45
-0.47
-0.485
-0.5
-0.525
-0.56
-0.58
-0.6
-0.615
-0.625
-0.65
-0.65
-0.67
-0.69
-0.715
-0.745
-0.755
-0.78
-0.8
-0.82
-0.83
-0.82
-0.815
-0.805
-0.82
-0.82
-0.825
-0.855
-0.84
-0.86
-0.865
-0.875
-0.865
-0.86
-0.845
-0.845
-0.865
-0.86
-0.88
-0.9
-0.89
-0.895
-0.88
-0.885
-0.885
-0.88
-0.86
-0.865
-0.855
-0.855
-0.845
-0.865
-0.88
-0.885
-0.89
-0.895
-0.865
-0.855
-0.845
-0.83
-0.825
-0.825
-0.825
-0.84
-0.845
-0.855
-0.865
-0.845
-0.845
-0.855
-0.845
-0.825
-0.815
-0.825
-0.83
-0.825
-0.835
-0.86
-0.85
-0.845
-0.845
-0.84
-0.835
-0.82
-0.825
-0.84
-0.85
-0.86
-0.855
-0.86
-0.855
-0.86
-0.87
-0.875
-0.85
-0.845
-0.86
-0.855
-0.87
-0.87
-0.88
-0.88
-0.9
-0.905
-0.9
-0.885
-0.87
-0.855
-0.865
-0.865
-0.88
-0.88
-0.91
-0.915
-0.905
-0.91
-0.905
-0.885
-0.875
-0.875
-0.875
-0.87
-0.89
-0.9
-0.9
-0.91
-0.915
-0.925
-0.93
-0.92
-0.915
-0.9
-0.91
-0.915
-0.91
-0.91
-0.92
-0.935
-0.94
-0.935
-0.93
-0.925
-0.915
-0.92
-0.915
-0.91
-0.91
-0.925
-0.935
-0.93
-0.95
-0.945
-0.945
-0.92
-0.91
-0.9
-0.885
-0.9
-0.905
-0.925
-0.925
-0.93
-0.94
-0.93
-0.925
-0.93
-0.915
-0.9
-0.905
-0.915
-0.91
-0.925
-0.93
-0.945
-0.96
-0.955
-0.95
-0.95
-0.92
-0.915
-0.915
-0.92
-0.925
-0.935
-0.95
-0.955
-0.96
-0.965
-0.955
-0.93
-0.93
-0.915
-0.92
-0.925
-0.925
-0.935
-0.945
-0.955
-0.945
-0.95
-0.945
-0.945
-0.925
-0.91
-0.905
-0.905
-0.925
-0.925
-0.935
-0.94
-0.93
-0.94
-0.94
-0.915
-0.915
-0.895
-0.905
-0.9
-0.905
-0.93
-0.93
-0.925
-0.935
-0.94
-0.925
-0.915
-0.93
-0.92
-0.905
-0.895
-0.905
-0.915
-0.94
-0.925
-0.925
-0.94
-0.925
-0.92
-0.92
-0.915
-0.915
-0.91
-0.915
-0.935
-0.94
-0.935
-0.935
-0.925
-0.93
-0.92
-0.9
-0.89
-0.9
-0.895
-0.895
-0.91
-0.905
-0.92
-0.935
-0.92
-0.94
-0.915
-0.91
-0.895
-0.895
-0.88
-0.875
-0.865
-0.885
-0.87
-0.86
-0.845
-0.82
-0.8
-0.795
-0.775
-0.765
-0.76
-0.775
-0.76
-0.765
-0.75
-0.76
-0.78
-0.765
-0.77
-0.775
-0.78
-0.78
-0.795
-0.815
-0.825
-0.82
-0.84
-0.84
-0.85
-0.84
-0.845
-0.855
-0.855
-0.885
-0.895
-0.92
-0.945
-0.955
-0.97
-0.975
-0.98
-0.98
-0.98
-0.96
-0.965
-0.965
-0.96
-0.975
-0.98
-0.995
-0.995
-1.01
-1.005
-1.005
-0.99
-0.97
-0.96
-0.965
-0.965
-0.97
-0.97
-0.98
-0.985
-0.995
-1.005
-1.0
-0.99
-0.975
-0.96
-0.95
-0.94
-0.935
-0.95
-0.935
-0.945
-0.935
-0.925
-0.89
-0.855
-0.74
-0.615
-0.435
-0.205
0.01
0.22
0.445
0.68
0.9
1.005
0.97
0.765
0.37
-0.12
-0.65
-1.145
-1.505
-1.675
-1.695
-1.565
-1.39
-1.23
-1.135
-1.07
-1.07
-1.06
-1.04
-1.02
-1.0
-0.995
-1.005
-1.005
-1.015
-1.03
-1.035
-1.01
-1.005
-0.985
-0.97
-0.955
-0.97
-0.97
-0.975
-0.985
-0.985
-1.01
-0.985
-0.98
-0.965
-0.945
-0.96
-0.95
-0.97
-0.98
-0.97
-0.99
-0.98
-0.985
-0.975
-0.985
-0.97
-0.98
-0.98
-0.975
-0.965
-0.97
-0.97
-0.985
-0.995
-1.0
-1.0
-0.975
-0.96
-0.94
-0.95
-0.965
-0.97
-0.97
-0.96
-0.97
-0.98
-0.975
-0.965
-0.955
-0.94
-0.93
-0.925
-0.92
-0.895
-0.915
-0.915
-0.91
-0.91
-0.92
-0.9
-0.89
-0.87
-0.86
-0.835
-0.815
-0.815
-0.805
-0.81
-0.79
-0.795
-0.77
-0.765
-0.74
-0.715
-0.705
-0.685
-0.685
-0.665
-0.66
-0.655
-0.65
-0.645
-0.63
-0.6
-0.585
-0.57
-0.56
-0.545
-0.535
-0.53
-0.54
-0.55
-0.57
-0.57
-0.575
-0.58
-0.59
-0.59
-0.605
-0.625
-0.645
-0.67
-0.705
-0.74
-0.745
-0.77
-0.8
-0.83
-0.845
-0.85
-0.84
-0.835
-0.86
-0.87
-0.885
-0.905
-0.905
-0.925
-0.925
-0.93
-0.925
-0.925
-0.915
-0.92
-0.915
-0.925
-0.94
-0.945
-0.955
-0.97
-0.97
-0.965
-0.96
-0.96
-0.945
-0.95
-0.935
-0.945
-0.96
-0.955
-0.95
-0.96
-0.965
-0.95
-0.955
-0.95
-0.935
-0.935
-0.935
-0.925
-0.945
-0.955
-0.96
-0.965
-0.97
-0.96
-0.94
-0.94
-0.925
-0.92
-0.925
-0.94
-0.95
-0.945
-0.945
-0.945
-0.96
-0.94
-0.93
-0.925
-0.92
-0.91
-0.93
-0.925
-0.925
-0.935
-0.95
-0.96
-0.96
-0.97
-0.955
-0.92
-0.915
-0.92
-0.92
-0.935
-0.95
-0.96
-0.96
-0.97
-0.97
-0.965
-0.955
-0.955
-0.95
-0.955
-0.95
-0.955
-0.955
-0.965
-0.97
-0.985
-0.98
-0.985
-0.985
-0.975
-0.97
-0.965
-0.96
-0.975
-0.985
-0.99
-1.01
-1.015
-1.02
-1.03
-1.01
-1.0
-0.995
-0.995
-0.995
-1.0
-1.015
-1.025
-1.035
-1.045
-1.055
-1.05
-1.015
-1.01
-1.015
-0.995
-1.015
-1.015
-1.01
-1.015
-1.015
-1.025
-1.02
-1.04
-1.025
-1.0
-0.99
-0.995
-1.01
-1.0
-1.015
-1.02
-1.035
-1.045
-1.05
-1.035
-1.035
-1.02
-1.01
-1.02
-1.005
-1.015
-1.015
-1.02
-1.025
-1.035
-1.045
-1.05
-1.04
-1.035
-1.04
-1.03
-1.04
-1.035
-1.045
-1.05
-1.06
-1.04
-1.055
-1.065
-1.035
-1.04
-1.02
-1.01
-1.01
-1.01
-1.015
-1.02
-1.025
-1.045
-1.04
-1.03
-1.025
-1.04
-1.035
-1.025
-1.035
-1.025
-1.025
-1.04
-1.035
-1.04
-1.035
-1.04
-1.025
-0.995
-0.995
-0.975
-0.975
-0.985
-0.985
-1.0
-1.0
-0.99
-0.965
-0.955
-0.935
-0.925
-0.905
-0.91
-0.9
-0.885
-0.87
-0.85
-0.835
-0.835
-0.845
-0.87
-0.87
-0.88
-0.875
-0.87
-0.885
-0.875
-0.87
-0.885
-0.9
-0.905
-0.92
-0.94
-0.96
-0.995
-1.0
-1.015
-1.035
-1.04
-1.015
-1.035
-1.05
-1.065
-1.075
-1.075
-1.08
-1.07
-1.06
-1.05
-1.035
-1.055
-1.055
-1.08
-1.09
-1.1
-1.1
-1.09
-1.075
-1.065
-1.055
-1.055
-1.04
-1.04
-1.055
-1.07
-1.065
-1.055
-1.06
-1.05
-1.045
-1.025
-1.03
-1.005
-1.01
-1.015
-1.015
-1.03
-1.025
-1.01
-1.005
-1.015
-0.985
-0.975
-0.96
-0.925
-0.855
-0.72
-0.555
-0.315
-0.065
0.22
0.525
0.805
1.01
1.07
0.935
0.595
0.1
-0.475
-1.065
-1.53
-1.795
-1.875
-1.8
-1.66
-1.505
-1.35
-1.26
-1.205
-1.17
-1.13
-1.095
-1.07
-1.055
-1.045
-1.045
-1.035
-1.01
-1.015
-1.02
-1.005
-1.025
-1.0
-1.01
-1.025
-1.035
-1.04
-1.03
-1.02
-1.015
-1.025
-1.0
-1.01
-1.0
-1.0
-1.02
-1.015
-1.015
-1.045
-1.03
-1.045
-1.03
-1.02
-0.995
-0.995
-0.99
-0.985
-1.0
-1.0
-1.02
-1.035
-1.015
-1.015
-1.01
-0.995
-0.98
-0.975
-0.97
-0.975
-0.98
-0.985
-0.99
-1.0
-1.0
-0.99
-0.975
-0.965
-0.95
-0.94
-0.935
-0.94
-0.94
-0.955
-0.94
-0.945
-0.945
-0.94
-0.92
-0.9
-0.89
-0.885
-0.88
-0.865
-0.86
-0.86
-0.865
-0.855
-0.845
-0.835
-0.825
-0.8
-0.795
-0.765
-0.745
-0.73
-0.725
-0.74
-0.735
-0.715
-0.715
-0.69
-0.665
-0.65
-0.635
-0.62
-0.62
-0.595
-0.605
-0.62
-0.63
-0.635
-0.625
-0.64
-0.625
-0.635
-0.625
-0.635
-0.65
-0.66
-0.69
-0.72
