Lead II
0.385
0.395
0.38
0.345
0.31
0.3
0.32
0.355
0.375
0.35
0.305
0.255
0.225
0.235
0.28
0.3
0.27
0.21
0.15
0.165
0.18
0.175
0.16
0.135
0.14
0.145
0.16
0.16
0.145
0.14
0.14
0.155
0.15
0.12
0.09
0.08
0.09
0.12
0.12
0.095
0.065
0.05
0.075
0.085
0.115
0.14
0.11
0.1
0.08
0.075
0.1
0.105
0.095
0.07
0.06
0.085
0.12
0.11
0.12
0.12
0.135
0.13
0.125
0.12
0.115
0.11
0.11
0.125
0.135
0.13
0.11
0.07
0.065
0.065
0.085
0.08
0.09
0.09
0.08
0.1
0.1
0.09
0.065
0.075
0.08
0.09
0.09
0.085
0.09
0.095
0.08
0.105
0.105
0.115
0.1
0.07
0.065
0.065
0.095
0.115
0.135
0.125
0.075
0.055
0.06
0.085
0.125
0.125
0.135
0.135
0.145
0.11
0.09
0.065
0.05
0.065
0.095
0.125
0.13
0.125
0.12
0.12
0.12
0.105
0.075
0.05
0.05
0.085
0.115
0.115
0.1
0.085
0.085
0.125
0.13
0.11
0.09
0.075
0.08
0.08
0.1
0.085
0.075
0.085
0.085
0.085
0.11
0.11
0.115
0.11
0.095
0.095
0.125
0.135
0.145
0.15
0.12
0.13
0.13
0.13
0.135
0.17
0.15
0.155
0.16
0.19
0.185
0.185
0.15
0.165
0.175
0.195
0.205
0.23
0.23
0.24
0.25
0.245
0.2
0.135
0.095
0.11
0.115
0.11
0.085
0.07
0.07
0.095
0.105
0.09
0.07
0.05
0.01
-0.01
-0.01
-0.005
0.015
0.025
0.025
0.035
0.025
0.01
-0.005
-0.015
-0.02
-0.005
0.005
0.0
-0.025
-0.025
-0.03
-0.02
-0.015
-0.03
-0.03
-0.04
-0.05
-0.035
-0.01
0.03
0.045
0.025
0.06
0.07
0.1
0.115
0.095
0.08
0.06
0.055
0.06
0.065
0.08
0.1
0.12
0.15
0.14
0.105
0.09
0.09
0.095
0.095
0.095
0.08
0.085
0.045
0.02
0.035
0.015
-0.05
-0.105
-0.125
-0.1
-0.055
-0.005
0.005
0.04
0.08
0.12
0.16
0.205
0.24
0.295
0.44
0.665
0.92
1.075
1.08
0.975
0.915
0.835
0.71
0.61
0.49
0.39
0.3
0.24
0.22
0.21
0.18
0.16
0.17
0.195
0.205
0.2
0.21
0.19
0.205
0.185
0.195
0.225
0.21
0.2
0.21
0.21
0.22
0.245
0.225
0.22
0.21
0.215
0.26
0.3
0.295
0.245
0.23
0.225
0.255
0.285
0.305
0.33
0.325
0.3
0.295
0.315
0.33
0.345
0.325
0.315
0.32
0.325
0.335
0.335
0.32
0.295
0.295
0.305
0.31
0.31
0.31
0.315
0.33
0.34
0.33
0.32
0.34
0.39
0.42
0.435
0.415
0.425
0.43
0.395
0.385
0.355
0.325
0.325
0.365
0.43
0.505
0.545
0.535
0.515
0.48
0.47
0.505
0.505
0.49
0.475
0.505
0.515
0.56
0.565
0.525
0.51
0.47
0.42
0.385
0.385
0.375
0.39
0.4
0.375
0.33
0.295
0.285
0.285
0.29
0.285
0.28
0.305
0.305
0.31
0.29
0.28
0.275
0.275
0.275
0.265
0.235
0.2
0.195
0.195
0.175
0.17
0.155
0.165
0.19
0.215
0.205
0.19
0.2
0.21
0.215
0.2
0.16
0.13
0.12
0.135
0.135
0.12
0.09
0.055
0.055
0.065
0.105
0.12
0.14
0.155
0.135
0.11
0.11
0.11
0.07
0.025
0.0
-0.015
0.0
0.03
0.07
0.1
0.085
0.06
0.065
0.05
0.055
0.06
0.07
0.07
0.065
0.025
-0.045
-0.09
-0.11
-0.085
-0.035
0.01
0.035
0.03
0.02
-0.005
0.005
0.015
0.015
0.005
0.0
-0.005
0.035
0.04
0.025
0.02
0.015
0.015
0.025
0.035
0.03
0.02
0.04
0.08
0.125
0.185
0.21
0.245
0.245
0.215
0.17
0.145
0.09
0.1
0.135
0.155
0.175
0.195
0.205
0.23
0.2
0.135
0.12
0.1
0.085
0.085
0.065
0.02
0.015
0.035
0.075
0.09
0.07
0.045
0.02
0.015
0.015
0.02
0.03
0.025
0.055
0.095
0.09
0.075
0.015
-0.005
0.01
0.015
0.025
0.03
0.075
0.135
0.155
0.115
0.03
-0.055
-0.105
-0.11
-0.05
-0.01
0.005
0.035
0.075
0.105
0.125
0.11
0.07
0.045
0.015
-0.04
-0.07
-0.08
-0.065
-0.06
-0.035
0.01
0.06
0.085
0.075
0.06
0.045
0.05
0.06
0.085
0.085
0.1
0.11
0.105
0.115
0.115
0.115
0.125
0.125
0.135
0.145
0.155
0.135
0.12
0.065
-0.01
-0.06
-0.065
-0.03
0.01
0.035
0.07
0.145
0.235
0.27
0.27
0.225
0.175
0.225
0.34
0.515
0.735
0.935
1.04
1.045
1.01
0.94
0.82
0.66
0.485
0.335
0.285
0.245
0.245
0.235
0.235
0.27
0.305
0.295
0.255
0.2
0.17
0.175
0.18
0.19
0.19
0.205
0.205
0.25
0.305
0.32
0.33
0.325
0.285
0.27
0.27
0.235
0.205
0.185
0.175
0.2
0.245
0.3
0.33
0.335
0.28
0.26
0.27
0.285
0.29
0.295
0.295
0.305
0.315
0.285
0.285
0.3
0.325
0.375
0.435
0.455
0.45
0.43
0.385
0.365
0.36
0.355
0.33
0.315
0.28
0.305
0.36
0.405
0.415
0.405
0.395
0.415
0.49
0.53
0.53
0.47
0.405
0.395
0.425
0.46
0.475
0.475
0.5
0.535
0.54
0.49
0.435
0.41
0.4
0.4
0.4
0.405
0.445
0.51
0.575
0.6
0.605
0.57
0.505
0.41
0.365
0.35
0.405
0.47
0.465
0.41
0.375
0.36
0.38
0.385
0.405
0.39
0.35
0.3
0.265
0.21
0.18
0.16
0.175
0.19
0.17
0.12
0.08
0.065
0.08
0.135
0.18
0.195
0.205
0.23
0.27
0.235
0.15
0.025
-0.035
-0.02
0.045
0.145
0.19
0.19
0.175
0.185
0.21
0.265
0.265
0.2
0.11
0.045
0.02
0.055
0.115
0.155
0.17
0.155
0.1
0.06
0.04
0.035
0.035
0.025
-0.01
0.0
0.035
0.055
0.115
0.13
0.11
0.05
-0.02
-0.06
-0.04
-0.015
-0.005
-0.01
-0.015
-0.01
0.01
0.02
0.015
-0.005
0.025
0.08
0.14
0.17
0.165
0.13
0.09
0.05
0.035
-0.015
-0.06
-0.06
-0.035
-0.01
0.02
0.02
0.025
0.105
0.215
0.26
0.25
0.165
0.075
0.04
0.05
0.045
0.045
0.05
0.065
0.09
0.14
0.165
0.2
0.195
0.17
0.175
0.185
0.2
0.215
0.22
0.19
0.15
0.095
0.045
0.01
-0.01
-0.03
-0.045
-0.05
-0.05
-0.035
-0.02
-0.005
0.025
0.05
0.035
0.04
0.01
0.005
0.015
0.055
0.1
0.125
0.13
0.085
0.05
0.0
-0.05
-0.075
-0.085
-0.11
-0.11
-0.11
-0.085
-0.05
0.025
0.055
0.095
0.125
0.1
0.015
-0.09
-0.17
-0.185
-0.16
-0.14
-0.09
-0.025
0.03
0.085
0.08
0.015
-0.1
-0.16
-0.16
-0.1
-0.02
0.0
0.025
0.07
0.105
0.13
0.12
0.065
0.04
0.02
0.015
0.04
0.06
0.09
0.1
0.11
0.12
0.125
0.11
0.085
0.08
0.07
0.08
0.045
-0.035
-0.15
-0.22
-0.215
-0.17
-0.08
-0.005
0.06
0.1
0.1
0.055
0.06
0.09
0.11
0.155
0.21
0.33
0.525
0.73
0.88
0.97
1.0
0.99
0.99
0.97
0.875
0.71
0.54
0.44
0.35
0.285
0.22
0.195
0.2
0.23
0.24
0.2
0.135
0.095
0.08
0.08
0.105
0.115
0.105
0.08
0.065
0.085
0.085
0.105
0.12
0.14
0.15
0.16
0.195
0.245
0.24
0.2
0.16
0.11
0.12
0.15
0.16
0.195
0.215
0.23
0.24
0.245
0.22
0.205
0.19
0.185
0.205
0.2
0.2
0.205
0.195
0.19
0.2
0.225
0.255
0.26
0.265
0.29
0.31
0.325
0.33
0.33
0.315
0.31
0.315
0.315
0.3
0.29
0.295
0.325
0.365
0.41
0.44
0.47
0.465
0.465
0.42
0.35
0.29
0.265
0.29
0.34
0.4
0.445
0.44
0.41
0.39
0.4
0.415
0.415
0.37
0.33
0.285
0.26
0.295
0.35
0.365
0.38
0.405
0.43
0.45
0.475
0.48
0.495
0.53
0.515
0.44
0.35
0.265
0.235
0.235
0.26
0.275
0.29
0.255
0.23
0.19
0.175
0.2
0.225
0.24
0.235
0.205
0.145
0.125
0.135
0.145
0.145
0.12
0.1
0.105
0.15
0.14
0.16
0.175
0.16
0.19
0.185
0.185
0.175
0.14
0.08
0.035
0.015
0.035
0.09
0.13
0.105
0.075
0.025
-0.02
-0.01
0.02
0.04
0.06
0.05
0.02
0.01
0.04
0.05
0.065
0.09
0.11
0.08
-0.005
-0.035
0.035
0.125
0.13
0.08
0.04
0.025
0.015
-0.01
-0.065
-0.12
-0.115
-0.06
0.025
0.07
0.075
0.05
-0.03
-0.07
-0.055
-0.005
-0.01
-0.065
-0.12
-0.105
-0.035
0.025
0.02
0.0
-0.055
-0.1
-0.09
-0.025
0.06
0.14
0.17
0.17
0.15
0.12
0.065
0.06
0.08
0.12
0.195
0.185
0.115
0.045
0.01
0.015
0.07
0.145
0.19
0.215
0.155
0.035
-0.095
-0.125
-0.135
-0.085
-0.04
0.0
0.025
0.05
0.055
0.065
0.07
0.04
0.05
0.04
0.03
0.045
0.025
-0.045
-0.145
-0.175
-0.16
-0.11
-0.075
-0.105
-0.135
-0.135
-0.08
0.02
0.125
0.18
0.2
0.165
0.055
-0.12
-0.255
-0.28
-0.195
-0.05
0.02
0.05
0.05
0.05
0.065
0.115
0.125
0.105
0.065
0.035
0.03
0.045
0.05
0.065
0.065
0.06
0.07
0.11
0.145
0.13
0.105
0.085
0.11
0.14
0.095
0.035
-0.065
-0.165
-0.21
-0.2
-0.135
-0.04
0.025
0.05
0.035
0.02
0.025
0.06
0.17
0.33
0.545
0.8
0.99
1.065
0.985
0.89
0.85
0.82
0.7
0.545
0.41
0.28
0.21
0.195
0.155
0.1
0.1
0.145
0.2
0.24
0.26
0.25
0.19
0.125
0.07
0.035
-0.02
-0.045
-0.025
-0.005
0.01
0.035
0.065
0.12
0.22
0.3
0.37
0.35
0.25
0.145
0.03
-0.02
-0.03
-0.015
0.08
0.155
0.225
0.27
0.32
0.3
0.23
0.195
0.205
0.265
0.335
0.37
0.31
0.24
0.205
0.235
0.27
0.285
0.2
0.115
0.07
0.095
0.19
0.305
0.35
0.33
0.275
0.235
0.235
0.29
0.315
0.315
0.3
0.245
0.215
0.24
0.275
0.32
0.34
0.315
0.285
0.26
0.26
0.28
0.315
0.325
0.34
0.35
0.36
0.38
0.445
0.52
0.56
0.525
0.415
0.295
0.225
0.24
0.26
0.295
0.3
0.295
0.31
0.305
0.295
0.285
0.245
0.22
0.215
0.22
0.27
0.315
0.345
0.34
0.265
0.195
0.21
0.28
0.315
0.27
0.165
0.08
0.06
0.035
-0.015
-0.055
-0.06
-0.02
0.025
0.085
0.09
0.055
0.015
-0.015
-0.005
-0.005
0.015
0.03
0.035
0.03
0.02
0.015
0.01
0.015
0.015
0.01
0.015
0.025
-0.005
-0.015
-0.055
-0.05
-0.02
0.01
0.015
0.03
0.035
0.015
0.005
-0.03
-0.05
-0.055
-0.055
-0.065
-0.07
-0.08
-0.08
-0.055
-0.04
-0.02
-0.03
-0.06
-0.055
-0.045
-0.015
-0.005
0.02
0.015
-0.04
-0.085
-0.1
-0.105
-0.1
-0.09
-0.065
-0.055
-0.055
-0.07
-0.09
-0.04
-0.005
0.005
0.0
-0.015
-0.005
0.0
-0.01
-0.035
-0.01
0.01
0.025
0.045
0.06
0.07
0.065
0.055
0.085
0.11
0.14
0.165
0.165
0.095
0.04
0.02
0.05
0.08
0.105
0.115
0.085
0.04
-0.035
-0.08
-0.085
-0.075
-0.055
-0.015
-0.01
-0.035
-0.03
-0.04
-0.01
-0.015
-0.02
-0.035
-0.055
-0.055
-0.04
-0.005
0.04
0.06
0.04
-0.03
-0.085
-0.13
-0.145
-0.16
-0.175
-0.16
-0.12
-0.095
-0.125
-0.19
-0.235
-0.255
-0.25
-0.22
-0.175
-0.14
-0.12
-0.085
-0.045
-0.005
-0.01
-0.06
-0.125
-0.155
-0.135
-0.095
-0.05
-0.015
0.025
0.04
0.03
0.07
0.07
0.075
0.06
0.06
0.105
0.12
0.08
0.005
-0.065
-0.11
-0.115
-0.08
-0.055
-0.015
-0.005
-0.045
-0.095
-0.19
-0.285
-0.36
-0.385
-0.38
-0.355
-0.275
-0.15
-0.055
0.015
0.06
0.105
0.16
0.27
0.385
0.53
0.72
0.885
0.97
0.955
0.92
0.855
0.71
0.515
0.355
0.22
0.13
0.06
0.035
0.02
0.055
0.11
0.145
0.14
0.15
0.175
0.165
0.125
0.07
0.035
-0.02
-0.065
-0.08
-0.095
-0.09
-0.06
-0.02
0.045
0.08
0.08
0.065
0.04
0.04
0.065
0.105
0.14
0.155
0.165
0.14
0.115
0.09
0.06
0.02
0.035
0.075
0.125
0.17
0.18
0.15
0.115
0.06
0.02
0.03
0.05
0.055
0.085
0.11
0.135
0.15
0.155
0.155
0.14
0.15
0.165
0.19
0.19
0.17
0.135
0.145
0.2
0.275
0.315
0.28
0.235
0.23
0.295
0.34
0.365
0.37
0.33
0.275
0.24
0.215
0.175
0.13
0.115
0.14
0.195
0.225
0.23
0.225
0.215
0.225
0.245
0.25
0.24
0.265
0.26
0.25
0.255
0.255
0.24
0.24
0.245
0.24
0.24
0.225
0.2
0.185
0.155
0.155
0.195
0.22
0.22
0.18
0.115
0.05
0.03
0.045
0.075
0.085
0.07
0.035
0.01
0.0
-0.01
-0.03
-0.045
-0.045
-0.045
-0.035
-0.005
0.015
0.02
-0.01
-0.045
-0.045
-0.055
-0.06
-0.065
-0.06
-0.02
0.005
-0.03
-0.07
-0.1
-0.115
-0.095
-0.08
-0.065
-0.075
-0.08
-0.075
-0.075
-0.065
-0.075
-0.105
-0.135
-0.165
-0.16
-0.115
-0.08
-0.03
-0.015
-0.07
-0.15
-0.185
-0.195
-0.155
-0.15
-0.175
-0.2
-0.205
-0.21
-0.215
-0.215
-0.22
-0.215
-0.185
-0.175
-0.185
-0.19
-0.17
-0.16
-0.14
-0.145
-0.16
-0.17
-0.19
-0.165
-0.15
-0.155
-0.175
-0.175
-0.165
-0.14
-0.07
-0.035
-0.055
-0.08
-0.145
-0.18
-0.235
-0.255
-0.26
-0.255
-0.235
-0.18
-0.11
-0.075
-0.075
-0.13
-0.16
-0.145
-0.13
-0.12
-0.1
-0.075
-0.07
-0.04
-0.015
-0.005
0.0
0.005
-0.015
-0.02
-0.035
-0.06
-0.065
-0.085
-0.095
-0.115
-0.145
-0.175
-0.16
-0.16
-0.16
-0.15
-0.13
-0.14
-0.11
-0.09
-0.08
-0.12
-0.165
-0.24
-0.28
-0.31
-0.285
-0.26
-0.24
-0.22
-0.195
-0.175
-0.2
-0.245
-0.28
-0.295
-0.305
-0.295
-0.255
-0.225
-0.195
-0.2
-0.215
-0.27
-0.31
-0.32
-0.295
-0.3
-0.315
-0.325
-0.295
-0.225
-0.16
-0.145
-0.185
-0.23
-0.255
-0.24
-0.21
-0.18
-0.15
-0.13
-0.145
-0.125
-0.095
-0.1
-0.125
-0.18
-0.205
-0.2
-0.175
-0.14
-0.095
-0.07
-0.085
-0.1
-0.12
-0.14
-0.165
-0.175
-0.185
-0.185
-0.175
-0.18
-0.2
-0.235
-0.295
-0.345
-0.33
-0.31
-0.3
-0.3
-0.295
-0.255
-0.22
-0.175
-0.145
-0.115
-0.02
0.105
0.245
0.395
0.55
0.68
0.745
0.77
0.775
0.745
0.68
0.545
0.39
0.25
0.09
-0.03
-0.065
-0.095
-0.105
-0.095
-0.085
-0.08
-0.07
-0.07
-0.05
-0.025
-0.005
0.03
0.03
0.035
0.02
0.02
-0.01
-0.035
-0.045
-0.025
0.02
0.04
-0.01
-0.07
-0.1
-0.1
-0.075
-0.04
-0.025
-0.04
-0.04
-0.02
0.025
0.065
0.085
0.055
0.035
0.04
0.045
0.055
0.095
0.105
0.135
0.15
0.165
0.185
0.2
0.155
0.1
0.05
0.02
0.045
0.07
0.12
0.155
0.18
0.17
0.16
0.18
0.2
0.265
0.295
0.25
0.17
0.105
0.045
0.035
0.08
0.15
0.175
0.185
0.195
0.2
0.215
0.225
0.25
0.28
0.3
0.29
0.29
0.265
0.25
0.22
0.205
0.2
0.225
0.24
0.26
0.25
0.185
0.105
0.065
0.07
0.11
0.145
0.12
0.095
0.05
-0.01
-0.04
-0.025
-0.015
-0.005
0.015
0.05
0.065
0.04
-0.01
-0.055
-0.08
-0.09
-0.08
-0.06
-0.03
-0.01
0.0
-0.035
-0.075
-0.09
-0.115
-0.16
-0.175
-0.16
-0.135
-0.085
-0.08
-0.11
-0.125
-0.14
-0.135
-0.125
-0.15
-0.145
-0.16
-0.175
-0.15
-0.11
-0.145
-0.17
-0.19
-0.18
-0.165
-0.14
-0.14
-0.135
-0.14
-0.155
-0.155
-0.175
-0.19
-0.23
-0.265
-0.24
-0.21
-0.15
-0.15
-0.14
-0.16
-0.205
-0.245
-0.26
-0.28
-0.285
-0.255
-0.205
-0.145
-0.12
-0.125
-0.145
-0.165
-0.15
-0.135
-0.14
-0.17
-0.175
-0.14
-0.105
-0.085
-0.08
-0.085
-0.09
-0.11
-0.105
-0.105
-0.075
-0.05
0.005
0.02
0.015
-0.035
-0.115
-0.2
-0.27
-0.305
-0.26
-0.185
-0.12
-0.11
-0.165
-0.215
-0.215
-0.245
-0.21
-0.215
-0.24
-0.285
-0.31
-0.305
-0.3
-0.31
-0.295
-0.28
-0.255
-0.225
-0.195
-0.185
-0.195
-0.2
-0.195
-0.2
-0.225
-0.28
-0.35
-0.39
-0.4
-0.41
-0.42
-0.44
-0.455
-0.44
-0.395
-0.32
-0.26
-0.22
-0.21
-0.23
-0.24
-0.205
-0.185
-0.19
-0.215
-0.225
-0.24
-0.22
-0.205
-0.205
-0.22
-0.25
-0.27
-0.255
-0.24
-0.205
-0.17
-0.145
-0.16
-0.195
-0.245
-0.29
-0.33
-0.305
-0.3
-0.265
-0.275
-0.365
-0.46
-0.525
-0.51
-0.45
-0.375
-0.305
-0.255
-0.21
-0.175
-0.16
-0.17
-0.195
-0.185
-0.105
0.07
0.3
0.56
0.7
0.755
0.725
0.65
0.565
0.425
0.27
0.135
0.04
-0.035
-0.1
-0.145
-0.19
-0.2
-0.215
-0.21
-0.165
-0.13
-0.14
-0.14
-0.135
-0.12
-0.095
-0.09
-0.09
-0.075
-0.065
-0.065
-0.095
-0.11
-0.14
-0.16
-0.165
-0.2
-0.16
-0.115
-0.115
-0.115
-0.105
-0.1
-0.1
-0.095
-0.145
-0.165
-0.14
-0.085
-0.015
0.01
-0.01
-0.055
-0.12
-0.135
-0.11
-0.055
-0.05
-0.05
-0.035
-0.005
0.015
0.06
0.075
0.04
-0.02
-0.07
-0.065
-0.025
-0.015
-0.015
0.005
0.015
0.035
0.07
0.05
0.025
-0.03
-0.045
-0.025
-0.01
0.02
0.065
0.095
0.095
0.125
0.13
0.125
0.1
0.09
0.06
0.08
0.065
0.04
0.03
0.035
0.07
0.1
0.12
0.13
0.115
0.09
0.075
0.09
0.11
0.06
0.005
-0.035
-0.06
-0.06
-0.06
-0.05
-0.03
0.005
-0.01
-0.03
-0.06
-0.11
-0.115
-0.125
-0.15
-0.12
-0.11
-0.09
-0.08
-0.09
-0.11
-0.15
-0.205
-0.235
-0.24
-0.24
-0.24
-0.25
-0.24
-0.225
-0.22
-0.24
-0.24
-0.255
-0.23
-0.245
-0.255
-0.245
-0.235
-0.215
-0.215
-0.24
-0.28
-0.305
-0.28
-0.25
-0.24
-0.26
-0.28
-0.305
-0.325
-0.35
-0.36
-0.36
-0.335
-0.31
-0.28
-0.25
-0.2
-0.2
-0.225
-0.275
-0.34
-0.375
-0.395
-0.385
-0.39
-0.385
-0.36
-0.315
-0.31
-0.3
-0.315
-0.335
-0.36
-0.345
-0.32
-0.305
-0.275
-0.265
-0.285
-0.33
-0.345
-0.345
-0.34
-0.335
-0.31
-0.295
-0.295
-0.29
-0.275
-0.23
-0.2
-0.205
-0.22
-0.22
-0.225
-0.235
-0.215
-0.18
-0.15
-0.15
-0.165
-0.175
-0.17
-0.14
-0.14
-0.135
-0.165
-0.2
-0.22
-0.225
-0.23
-0.245
-0.26
-0.26
-0.26
-0.26
-0.245
-0.265
-0.285
-0.32
-0.35
-0.355
-0.34
-0.34
-0.365
-0.36
-0.335
-0.3
-0.265
-0.27
-0.27
-0.275
-0.265
-0.275
-0.315
-0.37
-0.425
-0.465
-0.475
-0.455
-0.435
-0.405
-0.39
-0.39
-0.395
-0.385
-0.355
-0.345
-0.355
-0.34
-0.35
-0.365
-0.335
-0.335
-0.345
-0.345
-0.305
-0.26
-0.245
-0.26
-0.28
-0.295
-0.3
-0.29
-0.29
-0.275
-0.255
-0.24
-0.225
-0.21
-0.18
-0.18
-0.19
-0.195
-0.215
-0.23
-0.23
-0.235
-0.25
-0.26
-0.27
-0.275
-0.305
-0.36
-0.435
-0.505
-0.52
-0.51
-0.465
-0.435
-0.415
-0.385
-0.33
-0.275
-0.215
-0.215
-0.215
-0.19
-0.115
0.03
0.225
0.43
0.6
0.68
0.685
0.66
0.645
0.555
0.42
0.29
0.16
0.065
-0.005
-0.095
-0.15
-0.19
-0.185
-0.145
-0.14
-0.145
-0.165
-0.175
-0.175
-0.175
-0.18
-0.185
-0.165
-0.13
-0.115
-0.095
-0.1
-0.115
-0.145
-0.13
-0.105
-0.06
-0.035
-0.03
-0.075
-0.14
-0.155
-0.155
-0.13
-0.13
-0.115
-0.09
-0.07
-0.05
-0.03
-0.045
-0.07
-0.11
-0.115
-0.12
-0.095
-0.075
-0.075
-0.06
-0.045
-0.025
-0.015
-0.015
-0.015
-0.02
0.0
0.01
0.0
0.005
0.03
0.035
0.06
0.065
0.05
0.05
0.04
0.03
0.035
0.035
0.045
0.03
0.025
0.025
0.03
0.065
0.085
0.09
0.1
0.105
0.1
0.1
0.105
0.09
0.085
0.065
0.065
0.09
0.105
0.125
0.155
0.15
0.165
0.195
0.205
0.175
0.12
0.08
0.065
0.07
0.1
0.105
0.11
0.1
0.075
0.09
0.09
0.06
0.015
0.015
0.035
0.05
0.09
0.065
0.03
-0.01
-0.065
-0.1
-0.11
-0.13
-0.145
-0.14
-0.11
-0.055
-0.015
-0.015
-0.02
-0.06
-0.09
-0.125
-0.15
-0.17
-0.18
-0.195
-0.18
-0.155
-0.125
-0.12
-0.14
-0.16
-0.17
-0.165
-0.145
-0.155
-0.16
-0.175
-0.18
-0.165
-0.165
-0.19
-0.215
-0.235
-0.23
-0.195
-0.185
-0.185
-0.185
-0.19
-0.185
-0.19
-0.18
-0.195
-0.205
-0.235
-0.23
-0.225
-0.215
-0.215
-0.23
-0.265
-0.295
-0.31
-0.31
-0.28
-0.275
-0.28
-0.27
-0.255
-0.24
-0.24
-0.26
-0.285
-0.29
-0.27
-0.235
-0.225
-0.21
-0.215
-0.2
-0.21
-0.22
-0.285
-0.315
-0.345
-0.335
-0.29
-0.265
-0.245
-0.235
-0.25
-0.25
-0.275
-0.285
-0.3
-0.325
-0.325
-0.31
-0.29
-0.275
-0.25
-0.235
-0.195
-0.145
-0.13
-0.11
-0.09
-0.095
-0.105
-0.1
-0.08
-0.045
-0.03
-0.055
-0.105
-0.155
-0.19
-0.2
-0.22
-0.22
-0.215
-0.2
-0.16
-0.11
-0.11
-0.135
-0.17
-0.21
-0.23
-0.24
-0.235
-0.23
-0.25
-0.255
-0.245
-0.255
-0.265
-0.25
-0.27
-0.265
-0.265
-0.275
-0.28
-0.285
-0.29
-0.28
-0.305
-0.325
-0.35
-0.35
-0.33
-0.33
-0.31
-0.295
-0.28
-0.275
-0.32
-0.34
-0.355
-0.36
-0.37
-0.37
-0.39
-0.41
-0.445
-0.44
-0.435
-0.41
-0.375
-0.335
-0.3
-0.245
-0.235
-0.21
-0.2
-0.185
-0.195
-0.21
-0.235
-0.27
-0.26
-0.235
-0.19
-0.17
-0.185
-0.21
-0.21
-0.23
-0.265
-0.28
-0.285
-0.275
-0.225
-0.205
-0.2
-0.185
-0.21
-0.25
-0.275
-0.3
-0.335
-0.355
-0.445
-0.51
-0.495
-0.425
-0.32
-0.25
-0.215
-0.215
-0.16
-0.085
-0.045
-0.04
-0.01
0.08
0.25
0.43
0.605
0.725
0.77
0.745
0.675
0.54
0.405
0.27
0.195
0.11
0.03
-0.06
-0.125
-0.15
-0.185
-0.2
-0.2
-0.175
-0.145
-0.095
-0.1
-0.12
-0.15
-0.17
-0.155
-0.085
-0.04
-0.035
-0.08
-0.145
-0.195
-0.21
-0.21
-0.23
-0.215
-0.19
-0.13
-0.06
-0.065
-0.095
-0.14
-0.16
-0.17
-0.175
-0.185
-0.18
-0.135
-0.08
-0.045
-0.05
-0.095
-0.145
-0.16
-0.145
-0.125
-0.105
-0.085
-0.055
-0.005
0.03
0.035
-0.01
-0.095
-0.15
-0.165
-0.14
-0.095
-0.045
-0.005
-0.01
-0.025
-0.04
-0.03
-0.03
-0.04
-0.055
-0.01
-0.005
-0.015
-0.01
-0.015
0.0
0.005
-0.005
0.005
0.03
0.015
0.0
-0.015
-0.015
0.02
0.05
0.055
0.04
0.025
0.04
0.06
0.06
0.035
0.04
0.02
0.01
0.02
0.055
0.05
0.02
0.01
-0.005
0.0
0.01
0.01
0.0
0.0
0.01
0.03
0.04
0.025
-0.005
-0.04
-0.055
-0.045
-0.04
-0.05
-0.085
-0.115
-0.14
-0.165
-0.17
-0.145
-0.12
-0.12
-0.115
-0.145
-0.165
-0.18
-0.185
-0.2
-0.185
-0.185
-0.18
-0.215
-0.25
-0.255
-0.24
-0.175
-0.145
-0.165
-0.23
-0.3
-0.33
-0.32
-0.305
-0.34
-0.345
-0.335
-0.315
-0.285
-0.255
-0.245
-0.26
-0.31
-0.35
-0.375
-0.35
-0.345
-0.335
-0.35
-0.325
-0.295
-0.28
-0.27
-0.28
-0.295
-0.29
-0.29
-0.29
-0.35
-0.38
-0.39
-0.4
-0.36
-0.35
-0.365
-0.375
-0.395
-0.375
-0.36
-0.32
-0.285
-0.255
-0.28
-0.305
-0.34
-0.37
-0.4
-0.435
-0.455
-0.465
-0.435
-0.385
-0.345
-0.325
-0.37
-0.4
-0.435
-0.43
-0.41
-0.405
-0.38
-0.36
-0.335
-0.325
-0.34
-0.35
-0.36
-0.37
-0.365
-0.345
-0.28
-0.23
-0.215
-0.245
-0.3
-0.32
-0.33
-0.32
-0.275
-0.255
-0.215
-0.195
-0.185
-0.175
-0.195
-0.23
-0.24
-0.225
-0.235
-0.255
-0.28
-0.27
-0.255
-0.235
-0.225
-0.26
-0.285
-0.34
-0.395
-0.46
-0.515
-0.52
-0.485
-0.44
-0.355
-0.325
-0.345
-0.395
-0.45
-0.495
-0.51
-0.495
-0.475
-0.48
-0.48
-0.49
-0.465
-0.44
-0.415
-0.42
-0.445
-0.485
-0.5
-0.495
-0.505
-0.52
-0.515
-0.505
-0.495
-0.455
-0.43
-0.415
-0.385
-0.395
-0.43
-0.49
-0.54
-0.565
-0.575
-0.56
-0.515
-0.445
-0.43
-0.43
-0.43
-0.43
-0.42
-0.385
-0.365
-0.34
-0.31
-0.28
-0.28
-0.27
-0.325
-0.345
-0.405
-0.445
-0.455
-0.43
-0.4
-0.36
-0.335
-0.3
-0.275
-0.255
-0.26
-0.31
-0.375
-0.435
-0.445
-0.41
-0.4
-0.36
-0.345
-0.37
-0.4
-0.46
-0.55
-0.6
-0.625
-0.585
-0.53
-0.47
-0.45
-0.44
-0.435
-0.425
-0.395
-0.36
-0.315
-0.245
-0.165
-0.005
0.2
0.425
0.58
0.655
0.64
0.57
0.505
0.44
0.335
0.19
0.075
0.0
-0.075
-0.135
-0.195
-0.265
-0.305
-0.335
-0.295
-0.23
-0.22
-0.22
-0.235
-0.24
-0.215
-0.165
-0.115
-0.06
-0.075
-0.18
-0.275
-0.305
-0.325
-0.295
-0.195
-0.1
-0.055
-0.055
-0.145
-0.23
-0.285
-0.325
-0.33
-0.265
-0.19
-0.14
-0.165
-0.225
-0.285
-0.335
-0.36
-0.37
-0.365
-0.34
-0.24
-0.14
-0.105
-0.125
-0.16
-0.205
-0.24
-0.215
-0.205
-0.22
-0.21
-0.165
-0.115
-0.085
-0.125
-0.195
-0.225
-0.19
-0.16
-0.12
-0.13
-0.145
-0.17
-0.225
-0.25
-0.235
-0.225
-0.195
-0.18
-0.15
-0.075
-0.015
0.01
0.01
-0.035
-0.055
-0.085
-0.095
-0.12
-0.105
-0.075
-0.065
-0.035
0.02
0.03
0.055
0.055
0.0
-0.05
-0.055
-0.05
-0.015
-0.005
-0.005
-0.01
-0.01
-0.015
-0.02
-0.015
-0.015
0.0
0.005
-0.005
-0.045
-0.1
-0.15
-0.17
-0.175
-0.175
-0.18
-0.215
-0.24
-0.265
-0.285
-0.29
-0.295
-0.28
-0.25
-0.22
-0.2
-0.215
-0.23
-0.23
-0.205
-0.22
-0.29
-0.38
-0.47
-0.52
-0.51
-0.495
-0.475
-0.45
-0.435
-0.405
-0.37
-0.33
-0.285
-0.31
-0.365
-0.435
-0.5
-0.495
-0.455
-0.42
-0.4
-0.395
-0.395
-0.385
-0.34
-0.335
-0.375
-0.445
-0.48
-0.47
-0.43
-0.395
-0.385
-0.365
-0.37
-0.385
-0.405
-0.425
-0.45
-0.495
-0.545
-0.55
-0.55
-0.51
-0.475
-0.47
-0.45
-0.435
-0.41
-0.425
-0.445
-0.475
-0.49
-0.46
-0.385
-0.335
-0.325
-0.365
-0.445
-0.515
-0.56
-0.57
-0.575
-0.54
-0.49
-0.425
-0.385
-0.365
-0.34
-0.335
-0.375
-0.455
-0.53
-0.52
-0.465
-0.37
-0.265
-0.2
-0.185
-0.255
-0.335
-0.425
-0.475
-0.46
-0.435
-0.41
-0.365
-0.345
-0.32
-0.325
-0.355
-0.37
-0.37
-0.36
-0.345
-0.36
-0.4
-0.44
-0.47
-0.49
-0.46
-0.445
-0.43
-0.415
-0.405
-0.42
-0.455
-0.475
-0.45
-0.46
-0.46
-0.49
-0.53
-0.56
-0.555
-0.56
-0.545
-0.54
-0.55
-0.54
-0.505
-0.485
-0.48
-0.475
-0.46
-0.45
-0.435
-0.48
-0.5
-0.51
-0.52
-0.5
-0.455
-0.415
-0.42
-0.44
-0.475
-0.475
-0.485
-0.5
-0.48
-0.47
-0.475
-0.495
-0.485
-0.485
-0.47
-0.44
-0.385
-0.355
-0.31
-0.295
-0.33
-0.34
-0.385
-0.4
-0.405
-0.41
-0.38
-0.36
-0.4
-0.445
-0.485
-0.565
-0.605
-0.6
-0.575
-0.52
-0.445
-0.37
-0.315
-0.29
-0.265
-0.25
-0.195
-0.105
0.09
0.335
0.55
0.65
0.63
0.595
0.54
0.42
0.23
0.045
-0.105
-0.21
-0.265
-0.305
-0.315
-0.31
-0.3
-0.305
-0.285
-0.23
-0.205
-0.17
-0.155
-0.19
-0.215
-0.265
-0.255
-0.205
-0.12
-0.105
-0.175
-0.265
-0.355
-0.38
-0.36
-0.31
-0.245
-0.195
-0.11
-0.04
-0.045
-0.125
-0.22
-0.28
-0.3
-0.275
-0.235
-0.185
-0.13
-0.115
-0.105
-0.085
-0.045
-0.025
-0.025
-0.025
-0.09
-0.12
-0.125
-0.11
-0.08
-0.05
-0.02
-0.015
-0.06
-0.12
-0.175
-0.125
-0.04
0.045
0.1
0.12
0.08
0.0
-0.1
-0.18
-0.195
-0.14
-0.08
-0.055
-0.03
0.03
0.115
0.12
0.06
0.015
0.0
0.065
0.155
0.15
0.12
0.065
0.045
0.035
0.045
0.03
0.005
0.0
-0.005
0.0
-0.03
-0.03
0.015
0.09
0.175
0.195
0.135
0.015
-0.08
-0.105
-0.12
-0.15
-0.115
-0.085
-0.065
-0.07
-0.115
-0.175
-0.235
-0.27
-0.26
-0.235
-0.23
-0.22
-0.215
-0.2
-0.175
-0.17
-0.22
-0.205
-0.2
-0.2
-0.21
-0.145
-0.07
-0.05
-0.12
-0.25
-0.37
-0.445
-0.495
-0.485
-0.445
-0.39
-0.305
-0.255
-0.27
-0.31
-0.35
-0.395
-0.415
-0.395
-0.37
-0.335
-0.315
-0.275
-0.24
-0.23
-0.22
-0.225
-0.215
-0.245
-0.29
-0.37
