Lead II
-0.415
-0.415
-0.425
-0.44
-0.44
-0.44
-0.445
-0.44
-0.445
-0.435
-0.43
-0.425
-0.445
-0.435
-0.445
-0.45
-0.46
-0.475
-0.48
-0.475
-0.475
-0.47
-0.465
-0.475
-0.48
-0.485
-0.495
-0.51
-0.5
-0.515
-0.505
-0.51
-0.52
-0.5
-0.505
-0.495
-0.51
-0.5
-0.51
-0.515
-0.52
-0.525
-0.535
-0.535
-0.53
-0.53
-0.525
-0.52
-0.515
-0.525
-0.53
-0.525
-0.53
-0.545
-0.55
-0.545
-0.545
-0.535
-0.53
-0.525
-0.52
-0.53
-0.525
-0.54
-0.545
-0.55
-0.555
-0.555
-0.54
-0.55
-0.54
-0.535
-0.54
-0.54
-0.545
-0.54
-0.535
-0.545
-0.55
-0.555
-0.555
-0.55
-0.565
-0.545
-0.535
-0.54
-0.54
-0.545
-0.55
-0.565
-0.555
-0.56
-0.545
-0.55
-0.545
-0.54
-0.535
-0.54
-0.535
-0.54
-0.55
-0.55
-0.565
-0.56
-0.555
-0.555
-0.55
-0.545
-0.535
-0.535
-0.55
-0.545
-0.565
-0.565
-0.555
-0.56
-0.555
-0.545
-0.535
-0.54
-0.53
-0.535
-0.54
-0.555
-0.55
-0.56
-0.555
-0.55
-0.54
-0.55
-0.55
-0.545
-0.54
-0.525
-0.53
-0.535
-0.535
-0.545
-0.545
-0.54
-0.55
-0.54
-0.52
-0.495
-0.48
-0.475
-0.46
-0.455
-0.47
-0.48
-0.48
-0.49
-0.485
-0.505
-0.5
-0.505
-0.5
-0.495
-0.5
-0.49
-0.51
-0.505
-0.5
-0.51
-0.52
-0.52
-0.525
-0.535
-0.515
-0.52
-0.51
-0.515
-0.51
-0.5
-0.495
-0.475
-0.445
-0.41
-0.335
-0.225
-0.05
0.18
0.495
0.845
1.165
1.38
1.475
1.4
1.15
0.665
0.025
-0.615
-1.235
-1.51
-1.495
-1.285
-1.01
-0.8
-0.69
-0.665
-0.655
-0.67
-0.665
-0.655
-0.625
-0.595
-0.575
-0.58
-0.595
-0.605
-0.63
-0.635
-0.635
-0.615
-0.61
-0.6
-0.595
-0.59
-0.585
-0.585
-0.595
-0.58
-0.58
-0.58
-0.575
-0.57
-0.565
-0.56
-0.53
-0.54
-0.535
-0.54
-0.54
-0.54
-0.535
-0.545
-0.52
-0.505
-0.485
-0.48
-0.475
-0.47
-0.48
-0.485
-0.48
-0.485
-0.475
-0.48
-0.465
-0.465
-0.46
-0.45
-0.44
-0.435
-0.435
-0.425
-0.43
-0.44
-0.435
-0.43
-0.435
-0.415
-0.41
-0.395
-0.39
-0.39
-0.395
-0.405
-0.385
-0.4
-0.4
-0.395
-0.39
-0.385
-0.375
-0.38
-0.36
-0.38
-0.365
-0.38
-0.385
-0.395
-0.415
-0.415
-0.415
-0.4
-0.39
-0.38
-0.38
-0.375
-0.385
-0.385
-0.39
-0.375
-0.38
-0.37
-0.36
-0.34
-0.34
-0.305
-0.305
-0.29
-0.285
-0.295
-0.31
-0.325
-0.335
-0.355
-0.37
-0.365
-0.37
-0.38
-0.39
-0.4
-0.415
-0.425
-0.435
-0.45
-0.47
-0.485
-0.495
-0.495
-0.51
-0.515
-0.505
-0.51
-0.52
-0.515
-0.52
-0.53
-0.535
-0.535
-0.555
-0.54
-0.54
-0.525
-0.525
-0.525
-0.52
-0.525
-0.525
-0.525
-0.515
-0.495
-0.505
-0.495
-0.495
-0.48
-0.475
-0.475
-0.465
-0.475
-0.465
-0.47
-0.47
-0.47
-0.46
-0.45
-0.445
-0.435
-0.42
-0.43
-0.43
-0.445
-0.45
-0.46
-0.47
-0.475
-0.455
-0.445
-0.445
-0.435
-0.435
-0.435
-0.435
-0.45
-0.455
-0.46
-0.48
-0.47
-0.475
-0.465
-0.475
-0.485
-0.475
-0.485
-0.485
-0.495
-0.505
-0.505
-0.52
-0.53
-0.53
-0.515
-0.515
-0.51
-0.515
-0.535
-0.53
-0.55
-0.57
-0.57
-0.575
-0.57
-0.57
-0.56
-0.565
-0.56
-0.545
-0.555
-0.55
-0.565
-0.565
-0.57
-0.585
-0.58
-0.585
-0.57
-0.58
-0.57
-0.565
-0.56
-0.575
-0.59
-0.6
-0.61
-0.61
-0.615
-0.615
-0.6
-0.595
-0.58
-0.575
-0.575
-0.59
-0.59
-0.6
-0.605
-0.605
-0.615
-0.6
-0.6
-0.595
-0.575
-0.575
-0.58
-0.57
-0.585
-0.595
-0.61
-0.61
-0.61
-0.61
-0.595
-0.595
-0.595
-0.58
-0.585
-0.59
-0.6
-0.6
-0.605
-0.62
-0.625
-0.62
-0.6
-0.595
-0.585
-0.57
-0.57
-0.57
-0.585
-0.595
-0.59
-0.6
-0.59
-0.6
-0.595
-0.57
-0.57
-0.58
-0.58
-0.58
-0.59
-0.595
-0.595
-0.59
-0.6
-0.61
-0.595
-0.59
-0.585
-0.58
-0.58
-0.58
-0.58
-0.585
-0.595
-0.615
-0.605
-0.6
-0.6
-0.595
-0.58
-0.575
-0.58
-0.58
-0.585
-0.595
-0.585
-0.58
-0.555
-0.54
-0.52
-0.515
-0.49
-0.49
-0.48
-0.49
-0.515
-0.535
-0.55
-0.56
-0.555
-0.545
-0.535
-0.535
-0.525
-0.52
-0.525
-0.54
-0.56
-0.585
-0.6
-0.605
-0.595
-0.595
-0.575
-0.56
-0.55
-0.52
-0.51
-0.49
-0.46
-0.41
-0.34
-0.215
-0.025
0.215
0.51
0.845
1.16
1.39
1.495
1.445
1.21
0.77
0.13
-0.51
-1.15
-1.665
-1.68
-1.46
-1.16
-0.895
-0.74
-0.68
-0.695
-0.72
-0.72
-0.71
-0.685
-0.655
-0.63
-0.61
-0.63
-0.635
-0.64
-0.645
-0.65
-0.65
-0.655
-0.65
-0.66
-0.65
-0.625
-0.625
-0.615
-0.6
-0.6
-0.6
-0.595
-0.595
-0.605
-0.6
-0.59
-0.58
-0.575
-0.565
-0.565
-0.55
-0.54
-0.54
-0.54
-0.54
-0.53
-0.535
-0.54
-0.54
-0.525
-0.5
-0.505
-0.49
-0.48
-0.485
-0.495
-0.49
-0.495
-0.505
-0.485
-0.48
-0.47
-0.465
-0.46
-0.46
-0.455
-0.455
-0.46
-0.475
-0.47
-0.48
-0.45
-0.445
-0.435
-0.43
-0.42
-0.415
-0.415
-0.42
-0.43
-0.43
-0.44
-0.45
-0.455
-0.455
-0.435
-0.44
-0.43
-0.43
-0.445
-0.44
-0.445
-0.445
-0.445
-0.455
-0.445
-0.435
-0.425
-0.41
-0.395
-0.385
-0.37
-0.365
-0.365
-0.36
-0.36
-0.38
-0.375
-0.375
-0.37
-0.38
-0.385
-0.395
-0.405
-0.43
-0.44
-0.47
-0.495
-0.49
-0.505
-0.515
-0.525
-0.525
-0.535
-0.545
-0.55
-0.56
-0.55
-0.56
-0.58
-0.585
-0.595
-0.585
-0.585
-0.575
-0.56
-0.565
-0.58
-0.57
-0.585
-0.58
-0.585
-0.585
-0.57
-0.565
-0.55
-0.545
-0.535
-0.525
-0.52
-0.52
-0.52
-0.52
-0.535
-0.52
-0.51
-0.5
-0.495
-0.5
-0.475
-0.475
-0.465
-0.47
-0.48
-0.485
-0.505
-0.505
-0.495
-0.5
-0.5
-0.49
-0.49
-0.49
-0.49
-0.505
-0.505
-0.51
-0.515
-0.515
-0.535
-0.525
-0.53
-0.53
-0.52
-0.53
-0.545
-0.545
-0.545
-0.575
-0.58
-0.58
-0.58
-0.58
-0.58
-0.585
-0.58
-0.575
-0.58
-0.58
-0.595
-0.6
-0.61
-0.6
-0.61
-0.62
-0.62
-0.605
-0.605
-0.585
-0.605
-0.595
-0.61
-0.62
-0.635
-0.635
-0.635
-0.635
-0.625
-0.63
-0.62
-0.605
-0.615
-0.62
-0.63
-0.635
-0.63
-0.645
-0.635
-0.635
-0.635
-0.62
-0.62
-0.61
-0.615
-0.62
-0.625
-0.63
-0.64
-0.66
-0.66
-0.66
-0.65
-0.645
-0.63
-0.625
-0.63
-0.635
-0.64
-0.64
-0.64
-0.665
-0.665
-0.66
-0.655
-0.64
-0.645
-0.62
-0.62
-0.625
-0.63
-0.64
-0.65
-0.65
-0.66
-0.645
-0.64
-0.635
-0.635
-0.62
-0.63
-0.63
-0.635
-0.645
-0.64
-0.65
-0.645
-0.645
-0.64
-0.63
-0.625
-0.62
-0.625
-0.62
-0.635
-0.635
-0.64
-0.645
-0.64
-0.63
-0.62
-0.625
-0.62
-0.62
-0.625
-0.615
-0.62
-0.625
-0.635
-0.63
-0.615
-0.62
-0.615
-0.615
-0.605
-0.585
-0.575
-0.57
-0.545
-0.545
-0.545
-0.55
-0.54
-0.545
-0.525
-0.53
-0.525
-0.52
-0.545
-0.56
-0.58
-0.595
-0.605
-0.6
-0.595
-0.585
-0.575
-0.585
-0.595
-0.595
-0.605
-0.61
-0.62
-0.62
-0.6
-0.6
-0.585
-0.57
-0.535
-0.5
-0.43
-0.32
-0.15
0.095
0.415
0.76
1.085
1.305
1.385
1.295
0.98
0.43
-0.21
-0.85
-1.445
-1.585
-1.46
-1.215
-0.98
-0.805
-0.73
-0.715
-0.725
-0.74
-0.735
-0.715
-0.695
-0.67
-0.675
-0.685
-0.7
-0.71
-0.72
-0.715
-0.71
-0.7
-0.69
-0.7
-0.705
-0.69
-0.69
-0.705
-0.69
-0.7
-0.685
-0.685
-0.675
-0.67
-0.645
-0.64
-0.64
-0.625
-0.625
-0.645
-0.64
-0.635
-0.625
-0.62
-0.615
-0.6
-0.58
-0.57
-0.58
-0.575
-0.595
-0.58
-0.575
-0.57
-0.565
-0.56
-0.56
-0.555
-0.54
-0.545
-0.535
-0.525
-0.52
-0.52
-0.515
-0.52
-0.51
-0.505
-0.495
-0.48
-0.475
-0.465
-0.47
-0.475
-0.47
-0.465
-0.475
-0.485
-0.485
-0.475
-0.465
-0.455
-0.465
-0.45
-0.46
-0.46
-0.47
-0.475
-0.465
-0.465
-0.46
-0.46
-0.46
-0.455
-0.435
-0.435
-0.435
-0.43
-0.425
-0.42
-0.43
-0.44
-0.42
-0.4
-0.39
-0.37
-0.35
-0.34
-0.34
-0.35
-0.355
-0.375
-0.385
-0.405
-0.41
-0.41
-0.42
-0.425
-0.44
-0.46
-0.475
-0.475
-0.5
-0.53
-0.525
-0.55
-0.555
-0.56
-0.565
-0.57
-0.575
-0.56
-0.565
-0.575
-0.57
-0.58
-0.585
-0.6
-0.585
-0.605
-0.58
-0.575
-0.57
-0.57
-0.565
-0.57
-0.575
-0.57
-0.575
-0.565
-0.575
-0.56
-0.555
-0.545
-0.53
-0.525
-0.525
-0.53
-0.53
-0.54
-0.54
-0.55
-0.53
-0.535
-0.515
-0.51
-0.5
-0.49
-0.495
-0.49
-0.5
-0.515
-0.515
-0.515
-0.505
-0.505
-0.495
-0.49
-0.485
-0.485
-0.5
-0.52
-0.51
-0.51
-0.525
-0.525
-0.535
-0.525
-0.525
-0.53
-0.525
-0.52
-0.525
-0.53
-0.535
-0.55
-0.56
-0.57
-0.58
-0.58
-0.57
-0.56
-0.565
-0.565
-0.56
-0.55
-0.565
-0.585
-0.59
-0.605
-0.61
-0.605
-0.595
-0.595
-0.59
-0.585
-0.585
-0.585
-0.6
-0.605
-0.615
-0.61
-0.61
-0.62
-0.615
-0.605
-0.6
-0.595
-0.59
-0.59
-0.59
-0.61
-0.615
-0.63
-0.63
-0.63
-0.63
-0.62
-0.615
-0.605
-0.605
-0.605
-0.6
-0.63
-0.62
-0.64
-0.63
-0.625
-0.625
-0.61
-0.615
-0.615
-0.625
-0.625
-0.63
-0.63
-0.625
-0.645
-0.635
-0.64
-0.64
-0.635
-0.635
-0.635
-0.625
-0.63
-0.635
-0.63
-0.64
-0.64
-0.645
-0.645
-0.64
-0.635
-0.635
-0.62
-0.625
-0.62
-0.625
-0.625
-0.63
-0.63
-0.63
-0.625
-0.635
-0.625
-0.62
-0.625
-0.63
-0.62
-0.625
-0.62
-0.63
-0.63
-0.635
-0.635
-0.645
-0.64
-0.625
-0.615
-0.615
-0.615
-0.62
-0.625
-0.625
-0.625
-0.62
-0.61
-0.615
-0.605
-0.6
-0.595
-0.58
-0.58
-0.57
-0.55
-0.54
-0.545
-0.54
-0.545
-0.535
-0.52
-0.515
-0.505
-0.51
-0.52
-0.535
-0.555
-0.57
-0.585
-0.595
-0.595
-0.595
-0.585
-0.56
-0.555
-0.565
-0.58
-0.6
-0.62
-0.635
-0.635
-0.615
-0.615
-0.585
-0.565
-0.555
-0.53
-0.515
-0.465
-0.41
-0.315
-0.16
0.07
0.375
0.715
1.045
1.295
1.43
1.4
1.175
0.695
0.055
-0.585
-1.225
-1.73
-1.695
-1.435
-1.13
-0.885
-0.74
-0.695
-0.705
-0.725
-0.74
-0.725
-0.705
-0.675
-0.665
-0.66
-0.665
-0.675
-0.675
-0.665
-0.655
-0.655
-0.665
-0.665
-0.68
-0.675
-0.67
-0.665
-0.655
-0.63
-0.625
-0.615
-0.6
-0.595
-0.6
-0.61
-0.625
-0.625
-0.635
-0.61
-0.6
-0.605
-0.595
-0.575
-0.575
-0.56
-0.575
-0.58
-0.585
-0.565
-0.57
-0.565
-0.56
-0.56
-0.54
-0.52
-0.515
-0.52
-0.53
-0.525
-0.52
-0.515
-0.51
-0.5
-0.49
-0.475
-0.465
-0.46
-0.455
-0.44
-0.45
-0.455
-0.465
-0.475
-0.465
-0.46
-0.455
-0.45
-0.445
-0.435
-0.44
-0.435
-0.435
-0.45
-0.455
-0.465
-0.465
-0.47
-0.47
-0.465
-0.46
-0.455
-0.455
-0.455
-0.46
-0.455
-0.45
-0.445
-0.435
-0.425
-0.415
-0.4
-0.385
-0.375
-0.365
-0.37
-0.375
-0.385
-0.4
-0.42
-0.425
-0.435
-0.445
-0.445
-0.455
-0.47
-0.48
-0.495
-0.52
-0.535
-0.555
-0.57
-0.57
-0.57
-0.57
-0.575
-0.57
-0.575
-0.58
-0.585
-0.59
-0.595
-0.6
-0.605
-0.6
-0.595
-0.58
-0.575
-0.57
-0.555
-0.56
-0.55
-0.56
-0.555
-0.565
-0.575
-0.56
-0.54
-0.53
-0.54
-0.52
-0.505
-0.51
-0.505
-0.51
-0.51
-0.515
-0.52
-0.515
-0.505
-0.495
-0.49
-0.475
-0.46
-0.465
-0.475
-0.475
-0.49
-0.49
-0.505
-0.51
-0.51
-0.5
-0.495
-0.5
-0.48
-0.485
-0.495
-0.5
-0.51
-0.51
-0.51
-0.52
-0.53
-0.525
-0.53
-0.525
-0.53
-0.53
-0.53
-0.55
-0.565
-0.575
-0.565
-0.565
-0.57
-0.56
-0.56
-0.555
-0.565
-0.57
-0.575
-0.59
-0.6
-0.605
-0.6
-0.59
-0.6
-0.595
-0.59
-0.585
-0.59
-0.595
-0.595
-0.6
-0.61
-0.625
-0.65
-0.64
-0.635
-0.63
-0.63
-0.61
-0.605
-0.6
-0.6
-0.61
-0.625
-0.63
-0.635
-0.635
-0.635
-0.63
-0.625
-0.62
-0.61
-0.615
-0.605
-0.605
-0.605
-0.62
-0.615
-0.62
-0.63
-0.625
-0.62
-0.615
-0.605
-0.61
-0.61
-0.605
-0.615
-0.62
-0.635
-0.635
-0.63
-0.63
-0.635
-0.62
-0.615
-0.62
-0.615
-0.625
-0.635
-0.635
-0.63
-0.63
-0.64
-0.64
-0.64
-0.625
-0.625
-0.63
-0.63
-0.625
-0.63
-0.64
-0.64
-0.64
-0.625
-0.63
-0.63
-0.62
-0.61
-0.615
-0.62
-0.625
-0.63
-0.635
-0.635
-0.64
-0.63
-0.615
-0.605
-0.605
-0.58
-0.565
-0.555
-0.535
-0.545
-0.55
-0.565
-0.565
-0.55
-0.53
-0.535
-0.53
-0.51
-0.535
-0.55
-0.565
-0.58
-0.585
-0.595
-0.59
-0.58
-0.58
-0.565
-0.575
-0.59
-0.59
-0.61
-0.635
-0.63
-0.63
-0.625
-0.61
-0.605
-0.58
-0.59
-0.54
-0.5
-0.45
-0.38
-0.265
-0.095
0.15
0.455
0.8
1.1
1.31
1.355
1.225
0.855
0.215
-0.425
-1.065
-1.67
-1.72
-1.505
-1.215
-0.955
-0.79
-0.73
-0.695
-0.705
-0.7
-0.705
-0.69
-0.69
-0.68
-0.69
-0.69
-0.7
-0.69
-0.69
-0.685
-0.665
-0.675
-0.665
-0.67
-0.675
-0.665
-0.66
-0.665
-0.645
-0.65
-0.635
-0.62
-0.62
-0.625
-0.605
-0.615
-0.62
-0.61
-0.62
-0.62
-0.61
-0.595
-0.58
-0.58
-0.565
-0.555
-0.555
-0.565
-0.56
-0.56
-0.575
-0.565
-0.57
-0.55
-0.56
-0.54
-0.535
-0.525
-0.52
-0.53
-0.51
-0.495
-0.515
-0.5
-0.485
-0.5
-0.49
-0.48
-0.475
-0.47
-0.465
-0.47
-0.475
-0.465
-0.465
-0.465
-0.465
-0.46
-0.455
-0.455
-0.44
-0.45
-0.45
-0.455
-0.475
-0.49
-0.49
-0.485
-0.485
-0.47
-0.455
-0.435
-0.425
-0.42
-0.42
-0.41
-0.41
-0.4
-0.395
-0.38
-0.385
-0.38
-0.38
-0.38
-0.385
-0.395
-0.41
-0.415
-0.445
-0.46
-0.475
-0.485
-0.515
-0.515
-0.53
-0.53
-0.535
-0.54
-0.55
-0.57
-0.575
-0.585
-0.59
-0.6
-0.61
-0.595
-0.595
-0.59
-0.6
-0.59
-0.585
-0.59
-0.59
-0.6
-0.595
-0.605
-0.59
-0.575
-0.565
-0.57
-0.55
-0.555
-0.545
-0.535
-0.55
-0.55
-0.555
-0.55
-0.545
-0.53
-0.53
-0.515
-0.515
-0.515
-0.51
-0.505
-0.505
-0.505
-0.52
-0.515
-0.525
-0.535
-0.53
-0.51
-0.5
-0.495
-0.5
-0.505
-0.51
-0.525
-0.53
-0.525
-0.535
-0.525
-0.525
-0.525
-0.52
-0.53
-0.535
-0.545
-0.57
-0.57
-0.57
-0.57
-0.57
-0.58
-0.575
-0.575
-0.565
-0.575
-0.575
-0.585
-0.585
-0.6
-0.6
-0.605
-0.615
-0.625
-0.615
-0.61
-0.6
-0.615
-0.615
-0.63
-0.645
-0.65
-0.655
-0.655
-0.66
-0.66
-0.655
-0.655
-0.64
-0.645
-0.64
-0.65
-0.655
-0.655
-0.655
-0.655
-0.66
-0.655
-0.65
-0.645
-0.64
-0.645
-0.645
-0.66
-0.67
-0.665
-0.67
-0.675
-0.69
-0.665
-0.665
-0.655
-0.645
-0.655
-0.655
-0.675
-0.675
-0.675
-0.67
-0.67
-0.67
-0.66
-0.66
-0.645
-0.64
-0.645
-0.645
-0.635
-0.65
-0.65
-0.66
-0.67
-0.665
-0.66
-0.65
-0.64
-0.63
-0.635
-0.645
-0.65
-0.65
-0.655
-0.655
-0.66
-0.67
-0.66
-0.67
-0.645
-0.635
-0.635
-0.635
-0.635
-0.655
-0.65
-0.645
-0.65
-0.655
-0.65
-0.635
-0.62
-0.595
-0.595
-0.59
-0.595
-0.59
-0.58
-0.575
-0.57
-0.56
-0.535
-0.535
-0.535
-0.545
-0.555
-0.575
-0.59
-0.62
-0.615
-0.615
-0.61
-0.61
-0.6
-0.605
-0.6
-0.595
-0.62
-0.635
-0.645
-0.655
-0.655
-0.65
-0.635
-0.625
-0.61
-0.59
-0.565
-0.525
-0.49
-0.42
-0.31
-0.14
0.115
0.415
0.765
1.09
1.3
1.39
1.285
0.955
0.41
-0.23
-0.87
-1.49
-1.65
-1.535
-1.27
-1.015
-0.83
-0.74
-0.725
-0.735
-0.745
-0.75
-0.74
-0.725
-0.7
-0.705
-0.71
-0.725
-0.715
-0.72
-0.725
-0.715
-0.71
-0.7
-0.7
-0.695
-0.71
-0.705
-0.725
-0.71
-0.705
-0.69
-0.67
-0.645
-0.65
-0.64
-0.65
-0.655
-0.66
-0.67
-0.66
-0.65
-0.63
-0.625
-0.615
-0.605
-0.6
-0.605
-0.61
-0.6
-0.61
-0.6
-0.605
-0.595
-0.595
-0.58
-0.57
-0.565
-0.55
-0.54
-0.55
-0.55
-0.555
-0.545
-0.55
-0.55
-0.53
-0.52
-0.51
-0.5
-0.49
-0.505
-0.495
-0.495
-0.505
-0.505
-0.495
-0.49
-0.48
-0.465
-0.48
-0.475
-0.46
-0.455
-0.455
-0.45
-0.45
-0.455
-0.47
-0.465
-0.45
-0.45
-0.435
-0.43
-0.415
-0.42
-0.43
-0.42
-0.43
-0.43
-0.425
-0.41
-0.38
-0.365
-0.36
-0.345
-0.34
-0.33
-0.335
-0.345
-0.35
-0.365
-0.375
-0.39
-0.405
-0.41
-0.42
-0.42
-0.44
-0.455
-0.475
-0.5
-0.505
-0.53
-0.54
-0.56
-0.56
-0.565
-0.57
-0.57
-0.585
-0.595
-0.61
-0.615
-0.625
-0.62
-0.625
-0.62
-0.62
-0.62
-0.625
-0.61
-0.615
-0.61
-0.615
-0.61
-0.625
-0.625
-0.625
-0.62
-0.62
-0.605
-0.6
-0.585
-0.585
-0.575
-0.58
-0.57
-0.585
-0.585
-0.59
-0.59
-0.58
-0.56
-0.555
-0.545
-0.54
-0.54
-0.55
-0.565
-0.56
-0.57
-0.56
-0.565
-0.575
-0.555
-0.555
-0.55
-0.55
-0.54
-0.55
-0.565
-0.58
-0.585
-0.59
-0.59
-0.615
-0.58
-0.58
-0.585
-0.575
-0.595
-0.59
-0.615
-0.61
-0.61
-0.625
-0.635
-0.625
-0.64
-0.635
-0.625
-0.615
-0.63
-0.64
-0.635
-0.66
-0.66
-0.645
-0.65
-0.65
-0.645
-0.645
-0.635
-0.64
-0.66
-0.645
-0.665
-0.66
-0.665
-0.66
-0.68
-0.67
-0.665
-0.66
-0.665
-0.665
-0.66
-0.665
-0.68
-0.67
-0.68
-0.68
-0.685
-0.685
-0.685
-0.665
-0.665
-0.67
-0.67
-0.675
-0.675
-0.695
-0.69
-0.685
-0.685
-0.69
-0.665
-0.67
-0.665
-0.68
-0.675
-0.665
-0.67
-0.67
-0.675
-0.685
-0.685
-0.675
-0.675
-0.68
-0.665
-0.65
-0.655
-0.665
-0.675
-0.685
-0.68
-0.68
-0.695
-0.69
-0.68
-0.675
-0.67
-0.665
-0.68
-0.66
-0.67
-0.68
-0.69
-0.685
-0.68
-0.675
-0.665
-0.66
-0.645
-0.645
-0.635
-0.65
-0.645
-0.65
-0.645
-0.635
-0.61
-0.6
-0.585
-0.57
-0.56
-0.555
-0.565
-0.565
-0.555
-0.555
-0.555
-0.565
-0.585
-0.61
-0.62
-0.625
-0.61
-0.61
-0.595
-0.595
-0.6
-0.615
-0.63
-0.655
-0.66
-0.68
-0.655
-0.655
-0.635
-0.63
-0.63
-0.62
-0.61
-0.615
-0.595
-0.555
-0.525
-0.445
-0.275
-0.065
0.23
0.565
0.91
1.205
1.38
1.41
1.255
0.865
0.26
-0.38
-1.02
-1.565
-1.67
-1.505
-1.245
-0.99
-0.83
-0.755
-0.76
-0.775
-0.8
-0.79
-0.75
-0.72
-0.69
-0.69
-0.685
-0.7
-0.71
-0.735
-0.75
-0.74
-0.75
-0.75
-0.73
-0.71
-0.7
-0.695
-0.7
-0.7
-0.7
-0.71
-0.715
-0.7
-0.705
-0.69
-0.675
-0.66
-0.65
-0.645
-0.65
-0.65
-0.64
-0.645
-0.645
-0.64
-0.64
-0.635
-0.615
-0.615
-0.605
-0.595
-0.585
-0.595
-0.59
-0.595
-0.59
-0.59
-0.585
-0.585
-0.57
-0.56
-0.545
-0.535
-0.535
-0.535
-0.53
-0.535
-0.545
-0.54
-0.53
-0.515
-0.515
-0.505
-0.505
-0.505
-0.485
-0.5
-0.495
-0.5
-0.49
-0.49
-0.485
-0.49
-0.485
-0.465
-0.465
-0.465
-0.455
-0.46
-0.465
-0.475
-0.475
-0.475
-0.475
-0.47
-0.46
-0.445
-0.43
-0.445
-0.43
-0.43
-0.44
-0.43
-0.425
-0.4
-0.39
-0.38
-0.35
-0.345
-0.345
-0.34
-0.355
-0.36
-0.375
-0.415
-0.43
-0.455
-0.475
-0.475
-0.495
-0.495
-0.495
-0.51
-0.525
-0.545
-0.57
-0.59
-0.595
-0.605
-0.62
-0.62
-0.605
-0.615
-0.59
-0.6
-0.59
-0.59
-0.6
-0.595
-0.605
-0.61
-0.625
-0.62
-0.61
-0.605
-0.58
-0.585
-0.585
-0.595
-0.585
-0.6
-0.59
-0.595
-0.575
-0.565
-0.565
-0.54
-0.535
-0.525
-0.53
-0.525
-0.53
-0.535
-0.54
-0.535
-0.535
-0.535
-0.52
-0.545
-0.515
-0.51
-0.505
-0.51
-0.505
-0.53
-0.53
-0.54
-0.535
-0.54
-0.535
-0.53
-0.535
-0.55
-0.54
-0.54
-0.555
-0.56
-0.57
-0.575
-0.58
-0.575
-0.585
-0.575
-0.565
-0.58
-0.585
-0.595
-0.605
-0.615
-0.625
-0.625
-0.63
-0.625
-0.61
-0.62
-0.615
-0.62
-0.62
-0.625
-0.65
-0.655
-0.65
-0.64
-0.635
-0.645
-0.64
-0.64
-0.635
-0.64
-0.63
-0.635
-0.64
-0.65
-0.67
-0.67
-0.65
-0.65
-0.64
-0.645
-0.625
-0.64
-0.645
-0.64
-0.655
-0.655
-0.655
-0.655
-0.655
-0.65
-0.65
-0.635
-0.64
-0.65
-0.66
-0.66
-0.665
-0.66
-0.665
-0.67
-0.655
-0.655
-0.645
-0.645
-0.64
-0.63
-0.635
-0.645
-0.66
-0.655
-0.655
-0.655
-0.67
-0.66
-0.665
-0.65
-0.635
-0.635
-0.645
-0.665
-0.665
-0.675
-0.67
-0.66
-0.66
-0.655
-0.66
-0.655
-0.66
-0.65
-0.665
-0.65
-0.67
-0.67
-0.665
-0.665
-0.66
-0.66
-0.645
-0.64
-0.63
-0.63
-0.62
-0.62
-0.62
-0.62
-0.625
-0.61
-0.6
-0.585
-0.575
-0.545
-0.54
-0.54
-0.54
-0.545
-0.545
-0.54
-0.535
-0.545
-0.565
-0.575
-0.585
-0.595
-0.585
-0.58
-0.605
-0.59
-0.6
-0.61
-0.595
-0.605
-0.605
-0.63
-0.64
-0.635
-0.635
-0.62
-0.615
-0.605
-0.615
-0.61
-0.61
-0.61
-0.595
-0.56
-0.505
-0.445
-0.35
-0.215
-0.03
0.225
0.5
0.83
1.125
1.34
1.43
1.35
1.075
0.53
-0.11
-0.75
-1.39
-1.77
-1.69
-1.43
-1.15
-0.92
-0.795
-0.76
-0.775
-0.78
-0.775
-0.755
-0.72
-0.68
-0.665
-0.67
-0.695
-0.72
-0.72
-0.725
-0.715
-0.7
-0.69
-0.67
-0.675
-0.665
-0.665
-0.665
-0.67
-0.675
-0.67
-0.67
-0.655
-0.645
-0.645
-0.635
-0.63
-0.62
-0.62
-0.625
-0.625
-0.62
-0.62
-0.615
-0.605
-0.605
-0.585
-0.585
-0.585
-0.595
-0.585
-0.59
-0.605
-0.575
-0.565
-0.57
-0.565
-0.555
-0.55
-0.555
-0.545
-0.545
-0.525
-0.54
-0.52
-0.505
-0.51
-0.51
-0.505
-0.49
-0.49
-0.48
-0.475
-0.48
-0.475
-0.48
-0.475
-0.48
-0.48
-0.485
-0.475
-0.465
-0.46
-0.465
-0.475
-0.49
-0.48
-0.49
-0.485
-0.48
-0.485
-0.475
-0.475
-0.475
-0.47
-0.465
-0.465
-0.46
-0.465
-0.475
-0.475
-0.47
-0.455
-0.44
-0.415
-0.4
-0.38
-0.365
-0.37
-0.39
-0.4
-0.42
-0.445
-0.445
-0.455
-0.46
-0.465
-0.475
-0.485
-0.49
-0.51
-0.525
-0.55
-0.565
-0.57
-0.595
-0.59
-0.595
-0.595
-0.59
-0.6
-0.585
-0.6
-0.61
-0.615
-0.605
-0.615
-0.615
-0.6
-0.595
-0.6
-0.59
-0.585
-0.575
-0.58
-0.565
-0.57
-0.555
-0.565
-0.565
-0.55
-0.55
-0.535
-0.52
-0.515
-0.525
-0.52
-0.52
-0.52
-0.53
-0.52
-0.515
-0.505
-0.505
-0.5
-0.51
-0.505
-0.49
-0.5
-0.495
-0.515
-0.505
-0.52
-0.53
-0.53
-0.53
-0.53
-0.535
-0.515
-0.52
-0.51
-0.54
-0.555
-0.56
-0.57
-0.575
-0.585
-0.57
-0.565
-0.575
-0.57
-0.575
-0.57
-0.57
-0.585
-0.575
-0.595
-0.605
-0.6
-0.6
-0.605
-0.595
-0.605
-0.59
-0.605
-0.59
-0.615
-0.62
-0.63
-0.64
-0.64
-0.635
-0.63
-0.61
-0.615
-0.605
-0.61
-0.62
-0.62
-0.64
-0.635
-0.645
-0.65
-0.635
-0.64
-0.64
-0.625
-0.625
-0.625
-0.63
-0.625
-0.635
-0.645
-0.645
-0.65
-0.66
-0.655
-0.635
-0.645
-0.645
-0.64
-0.635
-0.635
-0.645
-0.665
-0.65
-0.655
-0.655
-0.65
-0.65
-0.65
-0.645
-0.65
-0.645
-0.655
-0.655
-0.66
-0.65
-0.645
-0.65
-0.65
-0.64
-0.63
-0.63
-0.65
-0.64
-0.645
-0.65
-0.67
-0.665
-0.665
-0.65
-0.64
-0.645
-0.63
-0.625
-0.645
-0.645
-0.665
-0.66
-0.66
-0.655
-0.66
-0.655
-0.645
-0.645
-0.63
-0.615
-0.63
-0.625
-0.63
-0.625
-0.62
-0.615
-0.61
-0.585
-0.575
-0.565
-0.545
-0.55
-0.545
-0.535
-0.545
-0.545
-0.545
-0.555
-0.58
-0.6
-0.605
-0.625
-0.605
-0.6
-0.595
-0.595
-0.595
-0.6
-0.6
-0.625
-0.635
-0.64
-0.645
-0.645
-0.635
-0.615
-0.625
-0.61
-0.6
-0.595
-0.59
-0.57
-0.545
-0.5
-0.445
-0.335
-0.17
0.035
0.295
0.6
0.91
1.175
1.325
1.34
1.14
0.71
0.07
-0.57
-1.21
-1.705
-1.685
-1.445
-1.165
-0.94
-0.805
-0.765
-0.745
-0.745
-0.73
-0.725
-0.7
-0.695
-0.695
-0.7
-0.71
-0.72
-0.73
-0.73
-0.72
-0.71
-0.695
-0.695
-0.69
-0.685
-0.68
-0.675
-0.675
-0.67
-0.675
-0.67
-0.665
-0.665
-0.655
-0.645
-0.635
-0.63
-0.62
-0.62
-0.62
-0.62
-0.625
-0.62
-0.615
-0.61
-0.59
-0.58
-0.57
-0.575
-0.575
-0.57
-0.565
-0.565
-0.565
-0.565
-0.56
-0.55
-0.54
-0.53
-0.515
-0.515
-0.515
-0.51
-0.52
-0.52
-0.52
-0.52
-0.5
-0.505
-0.5
-0.485
-0.48
-0.47
-0.485
-0.48
-0.49
-0.485
-0.495
-0.495
-0.495
-0.495
-0.505
-0.49
-0.485
-0.485
-0.485
-0.485
-0.49
-0.49
-0.52
-0.52
-0.5
-0.485
-0.47
-0.46
-0.45
-0.43
-0.425
-0.415
-0.42
-0.405
-0.41
-0.41
-0.415
-0.43
-0.415
-0.43
-0.44
-0.445
-0.445
-0.455
-0.48
-0.495
-0.52
-0.53
-0.55
-0.56
-0.565
-0.57
-0.57
-0.58
-0.59
-0.585
-0.595
-0.605
-0.615
-0.615
-0.615
-0.605
-0.6
-0.605
-0.595
-0.61
-0.605
-0.615
-0.615
-0.625
-0.62
-0.615
-0.615
-0.62
-0.605
-0.59
-0.58
-0.575
-0.565
-0.57
-0.575
-0.585
-0.59
-0.575
-0.58
-0.56
-0.545
-0.54
-0.52
-0.515
-0.51
-0.505
-0.515
-0.52
-0.51
-0.525
-0.52
-0.515
-0.515
-0.52
-0.505
-0.5
-0.5
-0.515
-0.515
-0.525
-0.55
-0.545
-0.56
-0.54
-0.55
-0.555
-0.54
-0.545
-0.56
-0.555
-0.565
-0.58
-0.585
-0.585
-0.605
-0.61
-0.6
-0.605
-0.595
-0.595
-0.605
-0.605
-0.615
-0.625
-0.645
-0.655
-0.655
-0.645
-0.64
-0.64
-0.62
-0.625
-0.625
-0.635
-0.64
-0.64
-0.665
-0.655
-0.655
-0.655
-0.66
-0.66
-0.655
-0.645
-0.645
-0.645
-0.65
-0.665
-0.675
-0.68
-0.685
-0.68
-0.665
-0.665
-0.66
-0.655
-0.655
-0.67
-0.685
-0.695
-0.69
-0.69
-0.69
-0.685
-0.67
-0.67
-0.66
-0.655
-0.675
-0.67
-0.67
-0.685
-0.695
-0.7
-0.705
-0.705
-0.7
-0.69
-0.68
-0.67
-0.68
-0.67
-0.69
-0.695
-0.7
-0.7
-0.69
-0.695
-0.695
-0.685
-0.685
-0.68
-0.685
-0.68
-0.685
-0.68
-0.69
-0.7
-0.69
-0.69
-0.68
-0.695
-0.685
-0.67
-0.675
-0.675
-0.665
-0.685
-0.7
-0.705
-0.695
-0.695
-0.68
-0.675
-0.655
-0.63
-0.625
-0.61
-0.62
-0.605
-0.615
-0.61
-0.61
-0.59
-0.585
-0.59
-0.58
-0.58
-0.615
-0.625
-0.63
-0.64
-0.65
-0.665
-0.66
-0.655
-0.645
-0.635
-0.64
-0.645
-0.65
-0.675
-0.695
-0.69
-0.69
-0.695
-0.69
-0.67
-0.645
-0.625
-0.605
-0.575
-0.535
-0.48
-0.375
-0.225
0.015
0.3
0.65
0.98
1.23
1.335
1.3
1.06
0.585
-0.055
-0.695
-1.335
-1.685
-1.665
-1.455
-1.18
-0.945
-0.82
-0.785
-0.79
-0.805
-0.815
-0.805
-0.8
-0.77
-0.77
-0.76
-0.765
-0.775
-0.785
-0.78
-0.765
-0.765
-0.76
-0.77
-0.775
-0.77
-0.765
-0.755
-0.76
-0.75
-0.73
-0.72
-0.715
-0.705
-0.71
-0.705
-0.71
-0.705
-0.705
-0.7
-0.705
-0.685
-0.68
-0.665
-0.65
-0.65
-0.645
-0.645
-0.64
-0.65
-0.645
-0.645
-0.66
-0.65
-0.63
-0.605
-0.605
-0.605
-0.615
-0.615
-0.62
-0.6
-0.605
-0.605
-0.595
-0.59
-0.58
-0.58
-0.57
-0.555
-0.575
-0.57
-0.565
-0.565
-0.55
-0.55
-0.55
-0.535
-0.525
-0.52
-0.52
-0.515
-0.525
-0.52
-0.52
-0.52
-0.53
-0.53
-0.53
-0.51
-0.51
-0.5
-0.495
-0.495
-0.5
-0.49
-0.505
-0.51
-0.515
-0.505
-0.48
-0.47
-0.44
-0.435
-0.425
-0.415
-0.41
-0.4
-0.41
-0.415
-0.425
-0.44
-0.44
-0.465
-0.47
-0.465
-0.475
-0.48
-0.5
-0.51
-0.53
-0.56
-0.575
-0.595
-0.605
-0.62
-0.635
-0.635
-0.62
-0.625
-0.635
-0.645
-0.66
-0.675
-0.675
-0.68
-0.675
-0.665
-0.67
-0.67
-0.66
-0.665
-0.675
-0.68
-0.68
-0.68
-0.685
-0.68
-0.69
-0.675
-0.665
-0.64
-0.65
-0.64
-0.635
-0.625
-0.63
-0.64
-0.645
-0.645
-0.64
-0.62
-0.62
-0.6
-0.595
-0.595
-0.585
-0.595
-0.605
-0.61
-0.615
-0.61
-0.605
-0.615
-0.605
-0.6
-0.6
-0.59
-0.59
-0.6
-0.605
-0.605
-0.62
-0.615
-0.615
-0.625
-0.625
-0.625
-0.63
-0.625
-0.615
-0.625
-0.645
-0.655
-0.66
-0.66
-0.665
-0.68
-0.665
-0.655
-0.645
-0.655
-0.65
-0.665
-0.67
-0.68
-0.685
-0.685
-0.685
-0.685
-0.685
-0.68
-0.68
-0.68
-0.68
-0.69
-0.7
-0.71
-0.705
-0.705
-0.72
-0.71
-0.715
-0.7
-0.7
-0.69
-0.7
-0.695
-0.71
-0.71
-0.725
-0.715
-0.725
-0.705
-0.705
-0.695
-0.685
-0.69
-0.7
-0.705
-0.72
-0.73
-0.725
-0.73
-0.735
-0.73
-0.73
-0.715
-0.7
-0.71
-0.705
-0.71
-0.71
-0.715
-0.725
-0.725
-0.72
-0.72
-0.715
