Lead II
-0.3
-0.285
-0.27
-0.27
-0.275
-0.28
-0.285
-0.27
-0.265
-0.26
-0.27
-0.285
-0.265
-0.255
-0.25
-0.265
-0.27
-0.285
-0.275
-0.28
-0.245
-0.255
-0.285
-0.28
-0.28
-0.27
-0.27
-0.275
-0.29
-0.28
-0.28
-0.27
-0.265
-0.29
-0.285
-0.305
-0.295
-0.275
-0.275
-0.285
-0.29
-0.305
-0.305
-0.285
-0.265
-0.28
-0.31
-0.32
-0.295
-0.29
-0.26
-0.275
-0.295
-0.305
-0.295
-0.27
-0.27
-0.265
-0.28
-0.3
-0.295
-0.27
-0.255
-0.27
-0.29
-0.285
-0.285
-0.26
-0.255
-0.265
-0.28
-0.29
-0.29
-0.275
-0.265
-0.265
-0.27
-0.28
-0.275
-0.275
-0.26
-0.25
-0.275
-0.295
-0.28
-0.25
-0.245
-0.25
-0.265
-0.285
-0.28
-0.25
-0.24
-0.255
-0.26
-0.275
-0.26
-0.255
-0.245
-0.245
-0.265
-0.275
-0.27
-0.24
-0.235
-0.25
-0.265
-0.27
-0.25
-0.26
-0.24
-0.25
-0.255
-0.255
-0.245
-0.235
-0.24
-0.24
-0.25
-0.25
-0.25
-0.235
-0.23
-0.245
-0.245
-0.255
-0.25
-0.225
-0.22
-0.225
-0.23
-0.245
-0.23
-0.225
-0.21
-0.225
-0.245
-0.255
-0.24
-0.225
-0.215
-0.225
-0.245
-0.255
-0.245
-0.24
-0.21
-0.23
-0.235
-0.245
-0.235
-0.22
-0.22
-0.23
-0.235
-0.255
-0.235
-0.21
-0.205
-0.215
-0.23
-0.235
-0.225
-0.21
-0.22
-0.22
-0.23
-0.235
-0.235
-0.23
-0.22
-0.215
-0.225
-0.205
-0.18
-0.16
-0.16
-0.15
-0.155
-0.17
-0.155
-0.145
-0.14
-0.145
-0.17
-0.195
-0.19
-0.18
-0.175
-0.18
-0.2
-0.22
-0.225
-0.22
-0.205
-0.21
-0.21
-0.215
-0.225
-0.195
-0.195
-0.2
-0.21
-0.225
-0.205
-0.195
-0.19
-0.2
-0.215
-0.2
-0.2
-0.18
-0.165
-0.17
-0.16
-0.175
-0.135
-0.08
-0.05
-0.035
-0.005
0.08
0.18
0.305
0.415
0.53
0.64
0.74
0.85
0.95
1.07
1.115
1.07
0.965
0.83
0.65
0.475
0.285
0.14
0.015
-0.065
-0.11
-0.12
-0.125
-0.125
-0.145
-0.155
-0.17
-0.15
-0.19
-0.22
-0.23
-0.23
-0.215
-0.23
-0.22
-0.245
-0.255
-0.26
-0.25
-0.245
-0.25
-0.255
-0.26
-0.25
-0.245
-0.24
-0.25
-0.255
-0.26
-0.275
-0.265
-0.24
-0.25
-0.25
-0.255
-0.25
-0.235
-0.22
-0.225
-0.245
-0.245
-0.23
-0.21
-0.2
-0.21
-0.215
-0.225
-0.22
-0.205
-0.195
-0.195
-0.195
-0.2
-0.175
-0.175
-0.155
-0.16
-0.175
-0.16
-0.14
-0.125
-0.11
-0.105
-0.11
-0.11
-0.085
-0.075
-0.045
-0.06
-0.055
-0.05
-0.035
-0.005
0.015
0.005
0.0
0.005
0.04
0.05
0.075
0.06
0.065
0.08
0.085
0.115
0.135
0.14
0.14
0.135
0.15
0.165
0.17
0.165
0.12
0.12
0.14
0.135
0.135
0.105
0.075
0.05
0.035
0.03
0.02
-0.02
-0.04
-0.065
-0.08
-0.09
-0.095
-0.12
-0.15
-0.17
-0.165
-0.155
-0.17
-0.18
-0.21
-0.22
-0.225
-0.21
-0.21
-0.22
-0.235
-0.245
-0.24
-0.23
-0.225
-0.235
-0.26
-0.265
-0.26
-0.245
-0.235
-0.235
-0.255
-0.265
-0.27
-0.25
-0.25
-0.26
-0.275
-0.29
-0.265
-0.25
-0.25
-0.27
-0.295
-0.275
-0.27
-0.25
-0.25
-0.245
-0.27
-0.27
-0.25
-0.245
-0.24
-0.25
-0.275
-0.275
-0.27
-0.255
-0.25
-0.255
-0.265
-0.265
-0.265
-0.25
-0.245
-0.255
-0.275
-0.27
-0.265
-0.245
-0.255
-0.25
-0.265
-0.28
-0.26
-0.245
-0.24
-0.245
-0.265
-0.27
-0.255
-0.25
-0.245
-0.255
-0.265
-0.265
-0.265
-0.25
-0.25
-0.255
-0.265
-0.275
-0.265
-0.25
-0.245
-0.25
-0.255
-0.28
-0.27
-0.26
-0.25
-0.245
-0.26
-0.27
-0.265
-0.25
-0.245
-0.245
-0.26
-0.265
-0.265
-0.25
-0.24
-0.245
-0.265
-0.275
-0.28
-0.245
-0.24
-0.255
-0.27
-0.28
-0.26
-0.25
-0.245
-0.255
-0.275
-0.285
-0.29
-0.255
-0.25
-0.25
-0.265
-0.27
-0.265
-0.25
-0.245
-0.245
-0.27
-0.265
-0.26
-0.245
-0.245
-0.255
-0.26
-0.265
-0.26
-0.245
-0.25
-0.255
-0.265
-0.27
-0.27
-0.26
-0.255
-0.255
-0.27
-0.27
-0.27
-0.255
-0.24
-0.25
-0.265
-0.27
-0.265
-0.25
-0.25
-0.26
-0.265
-0.265
-0.26
-0.255
-0.25
-0.26
-0.28
-0.285
-0.27
-0.255
-0.24
-0.255
-0.27
-0.275
-0.265
-0.25
-0.25
-0.265
-0.285
-0.29
-0.28
-0.265
-0.255
-0.275
-0.285
-0.285
-0.26
-0.27
-0.24
-0.26
-0.25
-0.27
-0.255
-0.26
-0.24
-0.25
-0.265
-0.265
-0.265
-0.245
-0.245
-0.25
-0.25
-0.26
-0.255
-0.235
-0.23
-0.24
-0.255
-0.25
-0.26
-0.235
-0.235
-0.25
-0.25
-0.245
-0.24
-0.22
-0.215
-0.225
-0.25
-0.235
-0.245
-0.235
-0.22
-0.23
-0.22
-0.215
-0.2
-0.18
-0.16
-0.17
-0.185
-0.185
-0.175
-0.16
-0.15
-0.17
-0.18
-0.205
-0.22
-0.18
-0.195
-0.2
-0.23
-0.24
-0.23
-0.22
-0.2
-0.215
-0.22
-0.24
-0.215
-0.21
-0.205
-0.205
-0.225
-0.23
-0.21
-0.2
-0.19
-0.185
-0.205
-0.21
-0.19
-0.17
-0.145
-0.13
-0.12
-0.105
-0.06
-0.01
0.07
0.17
0.275
0.4
0.545
0.69
0.84
0.96
1.085
1.195
1.235
1.18
1.035
0.815
0.6
0.395
0.22
0.07
-0.06
-0.145
-0.17
-0.15
-0.13
-0.125
-0.13
-0.15
-0.175
-0.2
-0.2
-0.205
-0.205
-0.225
-0.235
-0.245
-0.24
-0.23
-0.24
-0.24
-0.27
-0.285
-0.265
-0.26
-0.26
-0.255
-0.275
-0.275
-0.27
-0.25
-0.255
-0.25
-0.255
-0.27
-0.255
-0.245
-0.245
-0.235
-0.25
-0.25
-0.235
-0.225
-0.22
-0.23
-0.245
-0.235
-0.22
-0.205
-0.2
-0.21
-0.205
-0.215
-0.19
-0.17
-0.155
-0.16
-0.165
-0.165
-0.16
-0.125
-0.115
-0.105
-0.11
-0.12
-0.1
-0.08
-0.04
-0.04
-0.055
-0.05
-0.02
0.01
0.005
0.02
0.025
0.03
0.055
0.06
0.08
0.1
0.09
0.08
0.095
0.12
0.15
0.145
0.145
0.14
0.145
0.165
0.155
0.155
0.13
0.095
0.1
0.095
0.09
0.07
0.025
0.0
-0.015
-0.025
-0.05
-0.07
-0.1
-0.12
-0.125
-0.13
-0.135
-0.165
-0.18
-0.215
-0.2
-0.19
-0.215
-0.205
-0.235
-0.245
-0.24
-0.225
-0.225
-0.23
-0.245
-0.245
-0.26
-0.25
-0.24
-0.245
-0.255
-0.27
-0.245
-0.245
-0.235
-0.235
-0.25
-0.265
-0.255
-0.225
-0.225
-0.23
-0.255
-0.255
-0.245
-0.225
-0.22
-0.23
-0.24
-0.24
-0.245
-0.23
-0.21
-0.22
-0.23
-0.225
-0.225
-0.21
-0.205
-0.21
-0.23
-0.22
-0.21
-0.21
-0.2
-0.225
-0.24
-0.24
-0.225
-0.21
-0.205
-0.21
-0.23
-0.23
-0.22
-0.215
-0.205
-0.22
-0.225
-0.23
-0.225
-0.22
-0.2
-0.22
-0.23
-0.24
-0.23
-0.21
-0.225
-0.215
-0.23
-0.24
-0.23
-0.21
-0.215
-0.225
-0.24
-0.245
-0.23
-0.23
-0.205
-0.22
-0.225
-0.25
-0.235
-0.21
-0.215
-0.23
-0.24
-0.235
-0.23
-0.22
-0.22
-0.23
-0.25
-0.245
-0.235
-0.22
-0.22
-0.215
-0.23
-0.235
-0.23
-0.215
-0.215
-0.22
-0.23
-0.245
-0.23
-0.225
-0.22
-0.225
-0.23
-0.235
-0.23
-0.22
-0.215
-0.22
-0.235
-0.23
-0.245
-0.22
-0.235
-0.23
-0.225
-0.23
-0.225
-0.225
-0.2
-0.21
-0.225
-0.24
-0.225
-0.205
-0.2
-0.2
-0.215
-0.22
-0.215
-0.21
-0.2
-0.215
-0.215
-0.225
-0.225
-0.21
-0.21
-0.205
-0.22
-0.22
-0.21
-0.185
-0.185
-0.2
-0.2
-0.225
-0.21
-0.205
-0.19
-0.2
-0.21
-0.225
-0.205
-0.195
-0.185
-0.185
-0.2
-0.205
-0.19
-0.18
-0.19
-0.18
-0.205
-0.19
-0.19
-0.17
-0.175
-0.185
-0.2
-0.195
-0.185
-0.17
-0.165
-0.185
-0.175
-0.2
-0.18
-0.175
-0.155
-0.175
-0.185
-0.185
-0.185
-0.17
-0.17
-0.185
-0.195
-0.18
-0.18
-0.175
-0.18
-0.165
-0.18
-0.18
-0.175
-0.145
-0.16
-0.165
-0.165
-0.175
-0.175
-0.145
-0.145
-0.155
-0.175
-0.19
-0.19
-0.17
-0.145
-0.135
-0.125
-0.12
-0.105
-0.09
-0.085
-0.085
-0.115
-0.1
-0.09
-0.09
-0.08
-0.11
-0.125
-0.135
-0.135
-0.13
-0.125
-0.14
-0.16
-0.155
-0.155
-0.145
-0.13
-0.14
-0.155
-0.18
-0.17
-0.13
-0.125
-0.135
-0.15
-0.16
-0.14
-0.125
-0.105
-0.115
-0.125
-0.12
-0.105
-0.08
-0.05
-0.035
-0.005
0.015
0.065
0.14
0.26
0.37
0.465
0.59
0.735
0.86
0.98
1.09
1.195
1.245
1.22
1.125
0.97
0.77
0.57
0.4
0.255
0.13
0.05
-0.015
-0.04
-0.045
-0.04
-0.035
-0.05
-0.095
-0.115
-0.125
-0.135
-0.125
-0.14
-0.145
-0.165
-0.185
-0.175
-0.145
-0.145
-0.16
-0.17
-0.185
-0.17
-0.16
-0.155
-0.175
-0.185
-0.2
-0.18
-0.16
-0.155
-0.155
-0.17
-0.18
-0.165
-0.15
-0.135
-0.15
-0.17
-0.17
-0.16
-0.15
-0.13
-0.14
-0.155
-0.155
-0.16
-0.145
-0.115
-0.12
-0.135
-0.135
-0.13
-0.105
-0.105
-0.095
-0.105
-0.105
-0.075
-0.065
-0.055
-0.05
-0.055
-0.045
-0.035
-0.005
0.0
-0.01
-0.005
0.01
0.025
0.055
0.055
0.07
0.07
0.075
0.1
0.12
0.15
0.145
0.14
0.135
0.165
0.175
0.2
0.195
0.19
0.2
0.2
0.21
0.205
0.2
0.18
0.175
0.17
0.165
0.135
0.115
0.095
0.07
0.06
0.04
0.01
-0.025
-0.06
-0.07
-0.08
-0.09
-0.105
-0.11
-0.15
-0.155
-0.165
-0.165
-0.16
-0.185
-0.2
-0.2
-0.19
-0.19
-0.185
-0.2
-0.215
-0.22
-0.23
-0.205
-0.205
-0.21
-0.23
-0.22
-0.22
-0.215
-0.195
-0.225
-0.225
-0.235
-0.21
-0.2
-0.205
-0.225
-0.235
-0.23
-0.215
-0.22
-0.2
-0.205
-0.215
-0.225
-0.225
-0.21
-0.195
-0.21
-0.225
-0.225
-0.22
-0.21
-0.205
-0.22
-0.22
-0.23
-0.225
-0.215
-0.2
-0.22
-0.23
-0.24
-0.225
-0.22
-0.23
-0.215
-0.235
-0.225
-0.225
-0.205
-0.195
-0.21
-0.225
-0.23
-0.225
-0.205
-0.215
-0.22
-0.23
-0.235
-0.225
-0.225
-0.205
-0.21
-0.225
-0.23
-0.225
-0.205
-0.205
-0.215
-0.22
-0.23
-0.225
-0.21
-0.2
-0.215
-0.24
-0.24
-0.23
-0.195
-0.205
-0.225
-0.22
-0.225
-0.23
-0.215
-0.215
-0.215
-0.22
-0.225
-0.23
-0.21
-0.205
-0.21
-0.235
-0.23
-0.235
-0.225
-0.225
-0.215
-0.225
-0.235
-0.235
-0.23
-0.2
-0.215
-0.24
-0.225
-0.23
-0.22
-0.215
-0.215
-0.24
-0.24
-0.225
-0.21
-0.205
-0.22
-0.23
-0.24
-0.225
-0.215
-0.215
-0.215
-0.24
-0.255
-0.24
-0.21
-0.215
-0.235
-0.235
-0.24
-0.235
-0.22
-0.215
-0.23
-0.235
-0.25
-0.245
-0.22
-0.215
-0.215
-0.225
-0.23
-0.24
-0.205
-0.22
-0.225
-0.24
-0.24
-0.235
-0.225
-0.22
-0.23
-0.24
-0.25
-0.23
-0.23
-0.225
-0.22
-0.235
-0.25
-0.245
-0.225
-0.215
-0.225
-0.25
-0.25
-0.23
-0.24
-0.23
-0.24
-0.255
-0.255
-0.24
-0.235
-0.23
-0.235
-0.26
-0.255
-0.24
-0.235
-0.22
-0.235
-0.25
-0.255
-0.25
-0.235
-0.24
-0.245
-0.25
-0.255
-0.235
-0.225
-0.225
-0.23
-0.24
-0.25
-0.245
-0.225
-0.22
-0.235
-0.24
-0.25
-0.25
-0.24
-0.215
-0.23
-0.245
-0.24
-0.235
-0.215
-0.235
-0.235
-0.24
-0.27
-0.265
-0.24
-0.245
-0.255
-0.255
-0.23
-0.2
-0.185
-0.185
-0.175
-0.195
-0.195
-0.185
-0.17
-0.16
-0.165
-0.195
-0.205
-0.205
-0.195
-0.2
-0.22
-0.24
-0.25
-0.245
-0.235
-0.235
-0.235
-0.255
-0.265
-0.25
-0.24
-0.225
-0.24
-0.245
-0.26
-0.24
-0.235
-0.22
-0.225
-0.24
-0.235
-0.215
-0.2
-0.195
-0.185
-0.18
-0.16
-0.12
-0.09
-0.055
-0.035
0.02
0.115
0.23
0.37
0.5
0.655
0.76
0.875
1.005
1.15
1.255
1.255
1.155
1.02
0.825
0.64
0.445
0.28
0.105
-0.035
-0.135
-0.165
-0.185
-0.165
-0.155
-0.17
-0.175
-0.175
-0.195
-0.215
-0.245
-0.265
-0.27
-0.255
-0.255
-0.27
-0.29
-0.3
-0.29
-0.28
-0.28
-0.295
-0.325
-0.31
-0.315
-0.28
-0.285
-0.3
-0.31
-0.315
-0.31
-0.29
-0.3
-0.305
-0.31
-0.315
-0.3
-0.295
-0.28
-0.295
-0.315
-0.325
-0.3
-0.29
-0.265
-0.275
-0.29
-0.305
-0.265
-0.25
-0.245
-0.25
-0.26
-0.26
-0.245
-0.235
-0.23
-0.23
-0.235
-0.235
-0.22
-0.195
-0.19
-0.185
-0.195
-0.195
-0.175
-0.16
-0.15
-0.13
-0.14
-0.14
-0.105
-0.095
-0.09
-0.08
-0.08
-0.065
-0.035
-0.02
-0.005
0.0
0.005
0.01
0.045
0.07
0.075
0.085
0.085
0.08
0.105
0.125
0.14
0.135
0.13
0.11
0.105
0.1
0.11
0.1
0.06
0.035
0.035
0.015
0.015
-0.01
-0.045
-0.075
-0.1
-0.095
-0.105
-0.14
-0.155
-0.19
-0.185
-0.19
-0.2
-0.225
-0.25
-0.26
-0.24
-0.23
-0.245
-0.25
-0.275
-0.28
-0.27
-0.265
-0.27
-0.27
-0.29
-0.31
-0.28
-0.26
-0.26
-0.275
-0.285
-0.3
-0.29
-0.285
-0.27
-0.275
-0.29
-0.29
-0.265
-0.26
-0.27
-0.255
-0.285
-0.29
-0.275
-0.255
-0.25
-0.255
-0.265
-0.275
-0.265
-0.25
-0.245
-0.26
-0.28
-0.28
-0.265
-0.25
-0.245
-0.255
-0.255
-0.255
-0.265
-0.25
-0.235
-0.24
-0.25
-0.255
-0.26
-0.245
-0.23
-0.24
-0.26
-0.255
-0.25
-0.245
-0.235
-0.24
-0.26
-0.255
-0.245
-0.24
-0.24
-0.25
-0.26
-0.26
-0.245
-0.24
-0.25
-0.27
-0.255
-0.265
-0.25
-0.24
-0.24
-0.245
-0.25
-0.265
-0.245
-0.25
-0.235
-0.245
-0.24
-0.27
-0.24
-0.23
-0.225
-0.24
-0.26
-0.255
-0.245
-0.245
-0.22
-0.235
-0.24
-0.24
-0.24
-0.225
-0.215
-0.21
-0.24
-0.235
-0.23
-0.23
-0.2
-0.215
-0.23
-0.245
-0.24
-0.22
-0.21
-0.23
-0.23
-0.235
-0.225
-0.22
-0.205
-0.225
-0.225
-0.225
-0.22
-0.205
-0.2
-0.215
-0.23
-0.225
-0.225
-0.205
-0.225
-0.21
-0.225
-0.215
-0.215
-0.19
-0.19
-0.21
-0.225
-0.22
-0.21
-0.2
-0.19
-0.205
-0.215
-0.225
-0.19
-0.175
-0.185
-0.18
-0.2
-0.21
-0.195
-0.19
-0.17
-0.185
-0.195
-0.2
-0.195
-0.19
-0.175
-0.195
-0.185
-0.205
-0.195
-0.18
-0.19
-0.195
-0.195
-0.195
-0.19
-0.185
-0.17
-0.185
-0.195
-0.195
-0.185
-0.175
-0.185
-0.19
-0.195
-0.2
-0.195
-0.17
-0.165
-0.17
-0.18
-0.19
-0.175
-0.165
-0.175
-0.17
-0.185
-0.18
-0.18
-0.16
-0.155
-0.17
-0.175
-0.19
-0.18
-0.16
-0.18
-0.175
-0.185
-0.18
-0.175
-0.16
-0.14
-0.16
-0.175
-0.18
-0.165
-0.15
-0.14
-0.165
-0.17
-0.175
-0.165
-0.15
-0.145
-0.145
-0.16
-0.165
-0.16
-0.145
-0.135
-0.135
-0.145
-0.15
-0.14
-0.14
-0.15
-0.165
-0.175
-0.17
-0.16
-0.13
-0.085
-0.08
-0.09
-0.085
-0.07
-0.075
-0.06
-0.065
-0.095
-0.08
-0.085
-0.085
-0.075
-0.09
-0.115
-0.13
-0.12
-0.115
-0.125
-0.13
-0.13
-0.145
-0.125
-0.1
-0.1
-0.11
-0.13
-0.135
-0.12
-0.105
-0.105
-0.125
-0.135
-0.125
-0.115
-0.11
-0.095
-0.09
-0.11
-0.105
-0.07
-0.045
-0.005
0.015
0.03
0.055
0.13
0.24
0.35
0.46
0.575
0.695
0.845
0.975
1.1
1.21
1.285
1.32
1.265
1.13
0.955
0.74
0.54
0.36
0.205
0.085
0.015
-0.02
-0.025
-0.035
-0.01
-0.025
-0.05
-0.05
-0.085
-0.115
-0.115
-0.09
-0.105
-0.12
-0.13
-0.14
-0.14
-0.145
-0.13
-0.135
-0.155
-0.155
-0.145
-0.14
-0.145
-0.145
-0.165
-0.165
-0.16
-0.145
-0.16
-0.16
-0.165
-0.16
-0.165
-0.13
-0.13
-0.14
-0.145
-0.155
-0.15
-0.135
-0.13
-0.135
-0.145
-0.15
-0.14
-0.12
-0.12
-0.12
-0.11
-0.115
-0.105
-0.085
-0.085
-0.085
-0.095
-0.105
-0.095
-0.06
-0.06
-0.055
-0.055
-0.06
-0.035
-0.025
-0.02
-0.015
-0.025
-0.015
0.005
0.03
0.055
0.06
0.055
0.06
0.095
0.11
0.11
0.12
0.12
0.12
0.145
0.175
0.175
0.18
0.175
0.18
0.2
0.23
0.24
0.24
0.23
0.215
0.225
0.235
0.225
0.2
0.19
0.165
0.155
0.155
0.125
0.1
0.065
0.035
0.035
0.02
0.015
-0.01
-0.045
-0.065
-0.07
-0.07
-0.095
-0.105
-0.125
-0.145
-0.15
-0.125
-0.135
-0.145
-0.165
-0.175
-0.175
-0.155
-0.145
-0.18
-0.18
-0.185
-0.18
-0.165
-0.15
-0.185
-0.2
-0.19
-0.17
-0.16
-0.16
-0.165
-0.18
-0.175
-0.18
-0.16
-0.155
-0.16
-0.19
-0.19
-0.175
-0.16
-0.16
-0.18
-0.185
-0.185
-0.17
-0.155
-0.155
-0.16
-0.18
-0.21
-0.18
-0.17
-0.165
-0.165
-0.17
-0.18
-0.17
-0.16
-0.16
-0.165
-0.185
-0.18
-0.175
-0.17
-0.175
-0.19
-0.195
-0.185
-0.195
-0.17
-0.165
-0.17
-0.185
-0.19
-0.185
-0.18
-0.16
-0.175
-0.19
-0.19
-0.18
-0.175
-0.18
-0.185
-0.205
-0.21
-0.19
-0.17
-0.175
-0.19
-0.21
-0.19
-0.185
-0.175
-0.17
-0.175
-0.205
-0.21
-0.175
-0.17
-0.165
-0.175
-0.205
-0.2
-0.2
-0.18
-0.185
-0.185
-0.2
-0.19
-0.19
-0.175
-0.17
-0.165
-0.19
-0.2
-0.18
-0.16
-0.155
-0.165
-0.195
-0.19
-0.17
-0.16
-0.16
-0.17
-0.185
-0.19
-0.175
-0.155
-0.16
-0.155
-0.185
-0.175
-0.175
-0.165
-0.165
-0.175
-0.195
-0.19
-0.185
-0.16
-0.17
-0.185
-0.205
-0.195
-0.205
-0.17
-0.18
-0.2
-0.2
-0.2
-0.19
-0.175
-0.165
-0.175
-0.19
-0.19
-0.19
-0.175
-0.165
-0.175
-0.19
-0.195
-0.18
-0.175
-0.17
-0.185
-0.19
-0.19
-0.19
-0.165
-0.17
-0.17
-0.19
-0.195
-0.18
-0.175
-0.165
-0.17
-0.185
-0.19
-0.19
-0.18
-0.165
-0.17
-0.185
-0.205
-0.17
-0.16
-0.15
-0.16
-0.185
-0.185
-0.19
-0.165
-0.155
-0.16
-0.175
-0.19
-0.165
-0.17
-0.16
-0.17
-0.185
-0.175
-0.175
-0.16
-0.155
-0.16
-0.175
-0.18
-0.17
-0.15
-0.145
-0.165
-0.185
-0.17
-0.16
-0.145
-0.15
-0.17
-0.18
-0.175
-0.165
-0.15
-0.145
-0.16
-0.17
-0.17
-0.155
-0.15
-0.145
-0.155
-0.165
-0.16
-0.155
-0.135
-0.13
-0.13
-0.155
-0.15
-0.135
-0.12
-0.13
-0.14
-0.145
-0.14
-0.135
-0.125
-0.12
-0.15
-0.16
-0.155
-0.155
-0.13
-0.13
-0.115
-0.11
-0.1
-0.095
-0.065
-0.065
-0.085
-0.075
-0.085
-0.07
-0.06
-0.08
-0.08
-0.105
-0.125
-0.11
-0.11
-0.12
-0.13
-0.145
-0.15
-0.15
-0.135
-0.15
-0.15
-0.15
-0.155
-0.14
-0.125
-0.135
-0.145
-0.155
-0.16
-0.13
-0.13
-0.12
-0.125
-0.135
-0.135
-0.14
-0.12
-0.09
-0.095
-0.095
-0.075
-0.04
-0.005
0.035
0.06
0.11
0.195
0.315
0.45
0.56
0.7
0.815
0.92
1.065
1.2
1.32
1.34
1.27
1.14
0.975
0.79
0.58
0.39
0.215
0.07
-0.025
-0.055
-0.075
-0.075
-0.075
-0.085
-0.08
-0.09
-0.1
-0.12
-0.17
-0.175
-0.175
-0.155
-0.16
-0.17
-0.185
-0.195
-0.185
-0.18
-0.18
-0.195
-0.2
-0.21
-0.21
-0.195
-0.195
-0.195
-0.21
-0.205
-0.195
-0.18
-0.19
-0.195
-0.205
-0.2
-0.195
-0.185
-0.17
-0.18
-0.185
-0.19
-0.175
-0.16
-0.155
-0.17
-0.17
-0.165
-0.16
-0.135
-0.13
-0.135
-0.145
-0.145
-0.135
-0.11
-0.1
-0.115
-0.115
-0.12
-0.1
-0.085
-0.08
-0.07
-0.08
-0.08
-0.065
-0.045
-0.03
-0.025
-0.035
-0.025
0.0
0.02
0.025
0.025
0.015
0.025
0.065
0.08
0.09
0.095
0.095
0.095
0.12
0.15
0.145
0.165
0.145
0.15
0.17
0.19
0.2
0.185
0.175
0.175
0.17
0.2
0.195
0.18
0.15
0.145
0.125
0.125
0.105
0.075
0.025
0.02
0.015
-0.005
-0.015
-0.055
-0.09
-0.1
-0.095
-0.095
-0.105
-0.14
-0.16
-0.175
-0.165
-0.165
-0.17
-0.185
-0.21
-0.22
-0.215
-0.195
-0.205
-0.205
-0.225
-0.235
-0.215
-0.205
-0.21
-0.225
-0.24
-0.245
-0.245
-0.225
-0.215
-0.235
-0.25
-0.24
-0.23
-0.215
-0.205
-0.23
-0.24
-0.245
-0.235
-0.215
-0.23
-0.24
-0.24
-0.255
-0.235
-0.235
-0.225
-0.22
-0.235
-0.235
-0.225
-0.22
-0.225
-0.225
-0.24
-0.24
-0.22
-0.215
-0.22
-0.23
-0.25
-0.23
-0.24
-0.225
-0.225
-0.245
-0.245
-0.235
-0.23
-0.22
-0.22
-0.23
-0.245
-0.24
-0.235
-0.21
-0.225
-0.23
-0.245
-0.25
-0.25
-0.24
-0.23
-0.23
-0.24
-0.25
-0.245
-0.23
-0.235
-0.245
-0.25
-0.255
-0.26
-0.23
-0.235
-0.24
-0.26
-0.26
-0.245
-0.23
-0.225
-0.235
-0.245
-0.25
-0.24
-0.22
-0.215
-0.225
-0.245
-0.235
-0.24
-0.215
-0.225
-0.235
-0.25
-0.245
-0.235
-0.23
-0.215
-0.22
-0.235
-0.235
-0.225
-0.21
-0.22
-0.23
-0.235
-0.23
-0.23
-0.2
-0.195
-0.21
-0.225
-0.235
-0.215
-0.2
-0.21
-0.225
-0.23
-0.235
-0.215
-0.2
-0.2
-0.225
-0.23
-0.23
-0.225
-0.205
-0.2
-0.21
-0.22
-0.215
-0.215
-0.205
-0.2
-0.215
-0.23
-0.23
-0.215
-0.2
-0.2
-0.22
-0.23
-0.225
-0.215
-0.2
-0.195
-0.205
-0.22
-0.245
-0.215
-0.205
-0.2
-0.21
-0.22
-0.235
-0.22
-0.2
-0.225
-0.225
-0.23
-0.22
-0.205
-0.205
-0.2
-0.22
-0.22
-0.23
-0.225
-0.205
-0.195
-0.2
-0.215
-0.225
-0.22
-0.19
-0.195
-0.205
-0.23
-0.225
-0.215
-0.19
-0.185
-0.2
-0.205
-0.225
-0.21
-0.2
-0.18
-0.2
-0.205
-0.215
-0.21
-0.195
-0.185
-0.205
-0.205
-0.205
-0.195
-0.195
-0.185
-0.19
-0.205
-0.215
-0.205
-0.19
-0.195
-0.2
-0.21
-0.215
-0.195
-0.175
-0.18
-0.17
-0.19
-0.2
-0.18
-0.16
-0.165
-0.175
-0.2
-0.195
-0.185
-0.165
-0.145
-0.135
-0.135
-0.145
-0.12
-0.105
-0.095
-0.125
-0.115
-0.125
-0.115
-0.11
-0.115
-0.14
-0.16
-0.155
-0.15
-0.15
-0.145
-0.175
-0.185
-0.185
-0.17
-0.17
-0.145
-0.165
-0.185
-0.18
-0.17
-0.15
-0.16
-0.175
-0.19
-0.175
-0.165
-0.15
-0.13
-0.145
-0.145
-0.125
-0.095
-0.065
-0.04
-0.015
-0.015
0.04
0.12
0.26
0.395
0.545
0.685
0.83
0.96
1.1
1.245
1.385
1.415
1.335
1.17
0.94
0.675
0.435
0.23
0.045
-0.08
-0.14
-0.155
-0.125
-0.125
-0.12
-0.125
-0.125
-0.135
-0.155
-0.18
-0.195
-0.19
-0.195
-0.19
-0.215
-0.225
-0.215
-0.205
-0.215
-0.2
-0.215
-0.215
-0.225
-0.2
-0.195
-0.195
-0.23
-0.215
-0.225
-0.215
-0.2
-0.195
-0.21
-0.215
-0.225
-0.21
-0.185
-0.185
-0.19
-0.195
-0.19
-0.185
-0.175
-0.18
-0.18
-0.195
-0.18
-0.18
-0.175
-0.145
-0.16
-0.17
-0.16
-0.145
-0.12
-0.125
-0.12
-0.13
-0.12
-0.105
-0.09
-0.105
-0.085
-0.09
-0.075
-0.06
-0.045
-0.02
-0.015
-0.025
-0.005
0.02
0.03
0.065
0.06
0.055
0.055
0.085
0.11
0.12
0.125
0.125
0.13
0.14
0.17
0.165
0.175
0.16
0.155
0.16
0.16
0.155
0.135
0.08
0.08
0.075
0.06
0.035
0.01
-0.02
-0.06
-0.06
-0.07
-0.09
-0.11
-0.14
-0.155
-0.17
-0.155
-0.175
-0.2
-0.2
-0.215
-0.215
-0.205
-0.21
-0.215
-0.24
-0.24
-0.24
-0.215
-0.22
-0.235
-0.255
-0.255
-0.235
-0.225
-0.215
-0.23
-0.24
-0.24
-0.235
-0.2
-0.22
-0.22
-0.235
-0.23
-0.23
-0.22
-0.2
-0.205
-0.22
-0.23
-0.205
-0.19
-0.185
-0.195
-0.21
-0.205
-0.195
-0.185
-0.185
-0.195
-0.21
-0.19
-0.19
-0.18
-0.165
-0.18
-0.195
-0.195
-0.18
-0.18
-0.17
-0.17
-0.19
-0.19
-0.18
-0.17
-0.165
-0.165
-0.185
-0.185
-0.175
-0.18
-0.165
-0.17
-0.195
-0.195
-0.185
-0.165
-0.175
-0.19
-0.2
-0.19
-0.185
-0.175
-0.18
-0.175
-0.195
-0.19
-0.185
-0.185
-0.185
-0.19
-0.2
-0.195
-0.19
-0.175
-0.185
-0.195
-0.21
-0.21
-0.2
-0.18
-0.2
-0.19
-0.205
-0.21
-0.205
-0.195
-0.195
-0.195
-0.21
-0.215
-0.2
-0.19
-0.18
-0.205
-0.22
-0.21
-0.21
-0.19
-0.19
-0.195
-0.215
-0.21
-0.185
-0.175
-0.19
-0.2
-0.205
-0.215
-0.19
-0.17
-0.165
-0.18
-0.195
-0.19
-0.18
-0.165
-0.175
-0.195
-0.175
-0.195
-0.17
-0.18
-0.155
-0.175
-0.185
-0.19
-0.17
-0.16
-0.155
-0.17
-0.19
-0.205
-0.175
-0.165
-0.16
-0.17
-0.2
-0.18
-0.17
-0.145
-0.16
-0.175
-0.185
-0.185
-0.165
-0.16
-0.155
-0.165
-0.17
-0.17
-0.16
-0.14
-0.145
-0.155
-0.16
-0.16
-0.145
-0.16
-0.135
-0.14
-0.155
-0.16
-0.135
-0.125
-0.135
-0.13
-0.145
-0.145
-0.13
-0.125
-0.13
-0.15
-0.17
-0.16
-0.15
-0.135
-0.13
-0.14
-0.16
-0.155
-0.155
-0.135
-0.14
-0.15
-0.15
-0.16
-0.145
-0.13
-0.135
-0.155
-0.16
-0.16
-0.13
-0.115
-0.12
-0.12
-0.13
-0.14
-0.125
-0.11
-0.115
-0.115
-0.13
-0.135
-0.12
-0.115
-0.105
-0.12
-0.135
-0.155
-0.13
-0.105
-0.085
-0.075
-0.075
-0.065
-0.055
-0.04
-0.045
-0.05
-0.065
-0.065
-0.07
-0.065
-0.07
-0.09
-0.105
-0.115
-0.115
-0.11
-0.105
-0.115
-0.12
-0.13
-0.11
-0.095
-0.1
-0.11
-0.125
-0.12
-0.105
-0.085
-0.1
-0.09
-0.1
-0.095
-0.075
-0.065
-0.06
-0.06
-0.065
-0.03
-0.01
0.04
0.07
0.1
0.18
0.29
0.435
0.585
0.71
0.85
0.955
1.095
1.24
1.365
1.375
1.275
1.115
0.9
0.71
0.515
0.345
0.185
0.045
-0.015
-0.025
-0.015
0.0
-0.02
-0.055
-0.075
-0.085
-0.09
-0.105
-0.125
-0.13
-0.14
-0.135
-0.12
-0.12
-0.14
-0.145
-0.15
-0.145
-0.135
-0.13
-0.145
-0.17
-0.165
-0.14
-0.14
-0.13
-0.145
-0.15
-0.14
-0.135
-0.125
-0.125
-0.145
-0.13
-0.135
-0.125
-0.105
-0.105
-0.12
-0.13
-0.125
-0.12
-0.105
-0.095
-0.09
-0.105
-0.1
-0.08
-0.06
-0.07
-0.075
-0.07
-0.075
-0.05
-0.03
-0.02
-0.03
-0.03
-0.015
0.0
0.02
0.035
0.035
0.035
0.03
0.055
0.07
0.09
0.09
0.08
0.095
0.125
0.145
0.16
0.165
0.165
0.175
0.21
0.215
0.23
0.23
0.225
0.235
0.245
0.255
0.25
0.23
0.225
0.215
0.205
0.205
0.185
0.15
0.125
0.1
0.085
0.085
0.065
0.04
0.0
-0.03
-0.03
-0.04
-0.05
-0.09
-0.105
-0.12
-0.115
-0.1
-0.12
-0.155
-0.15
-0.165
-0.16
-0.15
-0.145
-0.16
-0.18
-0.175
-0.175
-0.16
-0.155
-0.16
-0.19
-0.185
-0.165
-0.15
-0.155
-0.16
-0.19
-0.2
-0.17
-0.15
-0.165
-0.18
-0.17
-0.175
-0.18
-0.165
-0.145
-0.16
-0.185
-0.17
-0.16
-0.165
-0.155
-0.155
-0.175
-0.17
-0.165
-0.16
-0.16
-0.17
-0.19
-0.18
-0.17
-0.15
-0.155
-0.165
-0.17
-0.17
-0.165
-0.165
-0.155
-0.17
-0.19
-0.19
-0.185
-0.155
-0.17
-0.16
-0.18
-0.185
-0.17
-0.16
-0.165
-0.17
-0.18
-0.19
-0.175
-0.16
-0.15
-0.175
-0.18
-0.19
-0.185
-0.165
-0.165
-0.185
-0.19
-0.195
-0.18
-0.165
-0.165
-0.18
-0.19
-0.195
-0.18
-0.17
-0.175
-0.18
-0.205
-0.21
-0.19
-0.17
-0.175
-0.175
-0.195
-0.205
-0.18
-0.175
-0.17
-0.185
-0.19
-0.195
-0.18
-0.165
-0.165
-0.17
-0.19
-0.195
-0.18
-0.165
-0.165
-0.19
-0.19
-0.195
-0.18
-0.165
-0.18
-0.185
-0.205
-0.2
-0.19
-0.18
-0.165
-0.175
-0.195
-0.205
-0.18
-0.17
-0.165
-0.175
-0.185
-0.185
-0.18
-0.165
-0.175
-0.185
-0.205
-0.2
-0.18
-0.17
-0.175
-0.185
-0.195
-0.19
-0.175
-0.155
-0.165
-0.175
-0.19
-0.195
-0.18
-0.16
-0.16
-0.165
-0.18
-0.195
-0.18
-0.165
-0.175
-0.175
-0.195
-0.175
-0.17
-0.16
-0.155
-0.16
-0.175
-0.195
-0.17
-0.165
-0.165
-0.17
-0.18
-0.18
-0.17
-0.155
-0.155
-0.165
-0.19
-0.18
-0.165
-0.15
-0.17
-0.165
-0.19
-0.195
-0.18
-0.16
-0.15
-0.17
-0.19
-0.185
-0.16
-0.15
-0.14
-0.155
-0.165
-0.175
-0.17
-0.155
-0.145
-0.165
-0.17
-0.18
-0.17
-0.145
-0.125
-0.15
-0.16
-0.165
-0.16
-0.14
-0.135
-0.15
-0.165
-0.17
-0.155
-0.14
-0.15
-0.165
-0.18
-0.17
-0.14
-0.115
-0.1
-0.11
-0.115
-0.105
-0.085
-0.085
-0.08
-0.085
-0.095
-0.11
-0.125
-0.1
-0.12
-0.12
-0.155
-0.15
-0.14
-0.14
-0.15
-0.15
-0.165
-0.16
-0.15
-0.135
-0.14
-0.145
-0.16
-0.165
-0.155
-0.13
-0.125
-0.14
-0.155
-0.17
-0.145
-0.12
-0.105
-0.11
-0.1
-0.085
-0.03
0.0
0.03
0.055
0.1
0.19
0.325
0.445
0.56
0.67
0.79
0.89
1.015
1.14
1.24
1.27
1.215
1.065
0.88
0.685
0.48
0.28
0.125
0.0
-0.055
-0.075
-0.07
-0.065
-0.075
-0.09
-0.1
-0.11
-0.115
-0.145
-0.17
-0.17
-0.165
-0.16
-0.16
-0.175
-0.2
-0.195
-0.19
-0.17
-0.185
-0.21
-0.21
-0.21
-0.205
-0.185
-0.2
-0.2
-0.215
-0.2
-0.19
-0.185
-0.18
-0.185
-0.19
-0.195
-0.18
-0.17
-0.165
-0.175
-0.185
-0.19
-0.185
-0.16
-0.155
-0.16
-0.18
-0.165
-0.15
-0.13
-0.125
-0.14
-0.15
-0.145
