Lead II
-1.025
-1.02
-1.025
-1.015
-0.99
-0.995
-0.99
-0.995
-1.015
-1.03
-1.03
-1.035
-1.03
-1.035
-1.01
-1.005
-1.005
-0.99
-0.975
-0.985
-1.0
-0.995
-0.995
-1.005
-1.01
-1.02
-1.005
-0.995
-0.985
-0.98
-0.98
-0.985
-0.985
-0.985
-0.995
-1.005
-0.995
-0.995
-0.97
-0.965
-0.94
-0.935
-0.92
-0.92
-0.925
-0.92
-0.925
-0.905
-0.9
-0.895
-0.86
-0.84
-0.81
-0.8
-0.8
-0.805
-0.825
-0.835
-0.85
-0.865
-0.88
-0.885
-0.895
-0.895
-0.91
-0.905
-0.92
-0.93
-0.95
-0.97
-0.965
-0.97
-1.0
-0.995
-0.995
-0.995
-0.985
-0.975
-0.97
-0.97
-0.995
-1.01
-1.015
-1.025
-1.03
-1.02
-1.02
-1.015
-1.01
-1.0
-0.99
-1.0
-1.0
-0.99
-1.0
-1.005
-0.99
-0.99
-0.99
-0.975
-0.95
-0.895
-0.84
-0.765
-0.685
-0.585
-0.49
-0.395
-0.345
-0.325
-0.38
-0.51
-0.68
-0.885
-1.12
-1.34
-1.545
-1.675
-1.735
-1.7
-1.59
-1.465
-1.365
-1.28
-1.225
-1.165
-1.1
-1.06
-1.015
-0.97
-0.96
-0.975
-0.965
-0.96
-0.965
-0.95
-0.95
-0.92
-0.91
-0.9
-0.92
-0.94
-0.935
-0.93
-0.925
-0.93
-0.9
-0.895
-0.88
-0.875
-0.86
-0.875
-0.865
-0.885
-0.895
-0.89
-0.88
-0.88
-0.87
-0.86
-0.85
-0.845
-0.835
-0.83
-0.84
-0.835
-0.84
-0.86
-0.845
-0.84
-0.825
-0.81
-0.805
-0.79
-0.78
-0.78
-0.775
-0.78
-0.78
-0.785
-0.78
-0.775
-0.75
-0.745
-0.725
-0.7
-0.685
-0.685
-0.67
-0.665
-0.665
-0.655
-0.655
-0.64
-0.62
-0.595
-0.575
-0.565
-0.53
-0.505
-0.485
-0.505
-0.5
-0.485
-0.485
-0.465
-0.43
-0.39
-0.38
-0.365
-0.35
-0.34
-0.32
-0.32
-0.31
-0.315
-0.305
-0.32
-0.32
-0.3
-0.29
-0.28
-0.28
-0.29
-0.315
-0.315
-0.335
-0.365
-0.395
-0.405
-0.44
-0.43
-0.46
-0.48
-0.5
-0.515
-0.555
-0.58
-0.61
-0.645
-0.67
-0.7
-0.705
-0.725
-0.735
-0.74
-0.755
-0.775
-0.795
-0.82
-0.825
-0.845
-0.855
-0.875
-0.87
-0.87
-0.865
-0.865
-0.855
-0.865
-0.87
-0.885
-0.885
-0.905
-0.92
-0.915
-0.905
-0.9
-0.895
-0.89
-0.9
-0.89
-0.89
-0.9
-0.9
-0.905
-0.915
-0.915
-0.91
-0.905
-0.89
-0.88
-0.88
-0.865
-0.88
-0.89
-0.895
-0.895
-0.915
-0.925
-0.895
-0.895
-0.88
-0.87
-0.87
-0.87
-0.87
-0.875
-0.9
-0.915
-0.915
-0.915
-0.915
-0.905
-0.9
-0.895
-0.895
-0.885
-0.9
-0.9
-0.92
-0.925
-0.925
-0.93
-0.94
-0.93
-0.915
-0.91
-0.9
-0.91
-0.91
-0.93
-0.925
-0.925
-0.935
-0.96
-0.945
-0.955
-0.92
-0.935
-0.91
-0.92
-0.92
-0.93
-0.925
-0.935
-0.95
-0.935
-0.945
-0.925
-0.92
-0.94
-0.905
-0.905
-0.91
-0.935
-0.92
-0.945
-0.95
-0.94
-0.94
-0.935
-0.93
-0.925
-0.925
-0.915
-0.93
-0.945
-0.945
-0.945
-0.96
-0.955
-0.945
-0.94
-0.95
-0.95
-0.94
-0.93
-0.925
-0.93
-0.93
-0.94
-0.94
-0.94
-0.945
-0.935
-0.935
-0.93
-0.925
-0.925
-0.91
-0.925
-0.935
-0.95
-0.94
-0.95
-0.95
-0.935
-0.925
-0.91
-0.91
-0.91
-0.92
-0.91
-0.93
-0.92
-0.93
-0.945
-0.95
-0.93
-0.925
-0.925
-0.915
-0.91
-0.935
-0.95
-0.935
-0.94
-0.945
-0.94
-0.945
-0.935
-0.935
-0.94
-0.91
-0.925
-0.925
-0.91
-0.925
-0.935
-0.94
-0.935
-0.945
-0.955
-0.945
-0.93
-0.925
-0.915
-0.935
-0.92
-0.935
-0.935
-0.94
-0.945
-0.95
-0.94
-0.93
-0.92
-0.91
-0.905
-0.91
-0.93
-0.925
-0.94
-0.94
-0.93
-0.92
-0.93
-0.925
-0.915
-0.905
-0.915
-0.915
-0.92
-0.92
-0.92
-0.93
-0.93
-0.925
-0.9
-0.895
-0.87
-0.865
-0.845
-0.84
-0.865
-0.865
-0.885
-0.86
-0.87
-0.845
-0.8
-0.785
-0.775
-0.75
-0.755
-0.76
-0.78
-0.805
-0.815
-0.83
-0.835
-0.825
-0.81
-0.825
-0.83
-0.85
-0.875
-0.875
-0.885
-0.915
-0.93
-0.935
-0.93
-0.925
-0.95
-0.94
-0.92
-0.91
-0.92
-0.93
-0.945
-0.94
-0.95
-0.96
-0.96
-0.955
-0.955
-0.95
-0.945
-0.935
-0.935
-0.94
-0.96
-0.965
-0.955
-0.965
-0.955
-0.935
-0.94
-0.915
-0.885
-0.83
-0.765
-0.66
-0.57
-0.44
-0.325
-0.19
-0.055
0.03
0.045
0.005
-0.115
-0.3
-0.53
-0.81
-1.085
-1.315
-1.45
-1.49
-1.44
-1.32
-1.21
-1.125
-1.065
-1.015
-0.975
-0.96
-0.945
-0.915
-0.905
-0.91
-0.91
-0.9
-0.895
-0.9
-0.885
-0.885
-0.855
-0.85
-0.86
-0.865
-0.89
-0.895
-0.88
-0.875
-0.87
-0.87
-0.85
-0.84
-0.835
-0.82
-0.835
-0.84
-0.845
-0.84
-0.855
-0.84
-0.845
-0.82
-0.81
-0.795
-0.795
-0.785
-0.78
-0.785
-0.795
-0.79
-0.795
-0.8
-0.79
-0.785
-0.77
-0.75
-0.74
-0.735
-0.735
-0.745
-0.75
-0.735
-0.745
-0.735
-0.735
-0.7
-0.68
-0.665
-0.665
-0.645
-0.65
-0.635
-0.65
-0.635
-0.625
-0.625
-0.595
-0.565
-0.545
-0.53
-0.52
-0.515
-0.495
-0.495
-0.49
-0.49
-0.465
-0.45
-0.435
-0.41
-0.39
-0.375
-0.365
-0.355
-0.37
-0.355
-0.36
-0.35
-0.34
-0.335
-0.315
-0.32
-0.325
-0.31
-0.31
-0.315
-0.325
-0.355
-0.375
-0.395
-0.415
-0.425
-0.445
-0.465
-0.48
-0.5
-0.53
-0.565
-0.625
-0.64
-0.675
-0.69
-0.725
-0.76
-0.765
-0.77
-0.77
-0.79
-0.81
-0.825
-0.83
-0.875
-0.885
-0.89
-0.89
-0.895
-0.875
-0.875
-0.88
-0.88
-0.875
-0.89
-0.895
-0.9
-0.91
-0.92
-0.925
-0.915
-0.915
-0.91
-0.905
-0.895
-0.89
-0.915
-0.915
-0.92
-0.93
-0.93
-0.925
-0.915
-0.91
-0.905
-0.9
-0.895
-0.88
-0.895
-0.895
-0.9
-0.91
-0.915
-0.915
-0.925
-0.905
-0.905
-0.89
-0.885
-0.885
-0.87
-0.9
-0.925
-0.905
-0.935
-0.92
-0.935
-0.925
-0.92
-0.91
-0.89
-0.9
-0.9
-0.91
-0.93
-0.925
-0.94
-0.94
-0.945
-0.935
-0.93
-0.93
-0.945
-0.93
-0.94
-0.945
-0.95
-0.95
-0.96
-0.96
-0.96
-0.955
-0.96
-0.95
-0.94
-0.945
-0.935
-0.945
-0.965
-0.97
-0.97
-0.98
-0.98
-0.97
-0.97
-0.96
-0.965
-0.96
-0.96
-0.99
-0.965
-0.99
-0.985
-0.995
-0.975
-0.97
-0.965
-0.955
-0.96
-0.97
-0.95
-0.965
-0.975
-0.99
-0.995
-1.0
-0.99
-0.985
-0.975
-0.955
-0.955
-0.96
-0.97
-0.965
-0.965
-0.98
-1.0
-0.99
-0.98
-0.98
-0.96
-0.97
-0.96
-0.96
-0.97
-0.96
-0.98
-0.99
-1.005
-1.0
-0.99
-0.985
-0.99
-0.98
-0.96
-0.965
-0.97
-0.975
-1.005
-1.0
-0.995
-0.995
-0.99
-1.005
-0.99
-0.985
-0.975
-0.98
-0.975
-0.985
-0.985
-0.985
-1.005
-1.005
-1.0
-0.98
-0.985
-0.965
-0.97
-0.97
-0.955
-0.98
-0.98
-1.0
-1.005
-1.015
-1.005
-0.995
-0.985
-0.98
-0.97
-0.965
-0.97
-0.975
-0.99
-0.99
-0.995
-1.0
-1.0
-0.97
-0.965
-0.965
-0.965
-0.95
-0.965
-0.97
-0.99
-1.005
-1.0
-0.99
-0.995
-0.99
-0.98
-0.965
-0.955
-0.955
-0.96
-0.965
-0.985
-0.985
-0.995
-0.995
-1.0
-0.99
-0.98
-0.965
-0.955
-0.95
-0.94
-0.945
-0.945
-0.94
-0.945
-0.94
-0.925
-0.93
-0.895
-0.89
-0.875
-0.865
-0.845
-0.845
-0.825
-0.84
-0.85
-0.855
-0.845
-0.86
-0.86
-0.855
-0.86
-0.86
-0.87
-0.88
-0.895
-0.92
-0.95
-0.96
-0.96
-0.96
-0.965
-0.96
-0.97
-0.965
-0.965
-0.985
-0.985
-1.005
-1.035
-1.025
-1.03
-1.005
-1.005
-1.0
-0.995
-0.995
-0.985
-1.0
-1.01
-1.035
-1.03
-1.045
-1.02
-1.02
-1.01
-1.0
-0.97
-0.975
-0.975
-0.985
-1.005
-0.995
-0.97
-0.92
-0.835
-0.75
-0.625
-0.51
-0.375
-0.29
-0.23
-0.235
-0.295
-0.45
-0.615
-0.83
-1.055
-1.255
-1.41
-1.53
-1.515
-1.47
-1.38
-1.3
-1.245
-1.195
-1.16
-1.13
-1.075
-1.035
-1.005
-0.96
-0.955
-0.955
-0.945
-0.96
-0.99
-0.995
-0.985
-1.0
-0.995
-0.955
-0.955
-0.94
-0.915
-0.92
-0.905
-0.925
-0.94
-0.935
-0.945
-0.95
-0.94
-0.93
-0.905
-0.92
-0.91
-0.905
-0.89
-0.905
-0.91
-0.92
-0.9
-0.915
-0.895
-0.89
-0.88
-0.87
-0.865
-0.845
-0.855
-0.845
-0.85
-0.865
-0.86
-0.865
-0.845
-0.835
-0.805
-0.8
-0.8
-0.805
-0.795
-0.79
-0.8
-0.8
-0.795
-0.785
-0.765
-0.77
-0.755
-0.75
-0.7
-0.7
-0.685
-0.68
-0.675
-0.675
-0.665
-0.66
-0.645
-0.61
-0.585
-0.57
-0.545
-0.535
-0.515
-0.52
-0.51
-0.5
-0.5
-0.48
-0.465
-0.45
-0.435
-0.42
-0.415
-0.4
-0.39
-0.38
-0.39
-0.39
-0.385
-0.4
-0.39
-0.38
-0.38
-0.38
-0.375
-0.415
-0.43
-0.43
-0.48
-0.52
-0.53
-0.555
-0.585
-0.6
-0.625
-0.64
-0.655
-0.695
-0.715
-0.745
-0.785
-0.825
-0.82
-0.855
-0.875
-0.875
-0.885
-0.885
-0.88
-0.895
-0.895
-0.92
-0.925
-0.935
-0.965
-0.96
-0.96
-0.935
-0.945
-0.93
-0.91
-0.92
-0.92
-0.935
-0.945
-0.96
-0.97
-0.975
-0.97
-0.965
-0.96
-0.95
-0.94
-0.935
-0.955
-0.955
-0.95
-0.965
-0.975
-0.975
-0.955
-0.955
-0.955
-0.93
-0.925
-0.925
-0.925
-0.95
-0.94
-0.955
-0.965
-0.97
-0.995
-0.98
-0.965
-0.945
-0.93
-0.925
-0.94
-0.955
-0.98
-0.97
-0.98
-0.995
-0.985
-0.975
-0.96
-0.945
-0.94
-0.955
-0.965
-0.97
-0.98
-0.985
-0.985
-1.005
-1.0
-0.995
-0.98
-0.98
-0.975
-0.97
-0.975
-0.985
-0.99
-1.005
-1.015
-1.03
-1.02
-1.01
-0.98
-0.985
-0.98
-0.995
-0.995
-1.0
-1.015
-1.02
-1.02
-1.03
-1.03
-1.035
-1.025
-1.01
-0.995
-1.01
-1.02
-1.02
-1.015
-1.03
-1.02
-1.025
-1.025
-1.04
-1.02
-1.01
-0.99
-0.995
-1.005
-1.02
-1.015
-1.015
-1.025
-1.035
-1.025
-1.02
-1.015
-1.005
-0.995
-1.0
-1.015
-1.015
-1.025
-1.04
-1.045
-1.04
-1.035
-1.025
-1.02
-1.01
-0.985
-0.995
-1.0
-1.01
-1.015
-1.015
-1.025
-1.035
-1.04
-1.03
-1.01
-1.01
-0.995
-1.005
-1.005
-1.01
-1.0
-1.02
-1.025
-1.025
-1.035
-1.02
-1.01
-1.005
-0.985
-0.995
-0.985
-1.01
-1.02
-1.04
-1.025
-1.025
-1.015
-1.015
-1.0
-1.015
-0.99
-0.99
-0.995
-0.995
-1.0
-1.005
-1.01
-1.01
-1.015
-0.995
-1.0
-0.98
-1.0
-0.985
-0.985
-1.01
-1.03
-1.005
-1.015
-1.005
-1.005
-1.0
-1.0
-0.985
-0.975
-0.975
-0.98
-0.985
-0.995
-1.0
-0.99
-0.995
-0.985
-0.975
-0.96
-0.95
-0.925
-0.91
-0.92
-0.925
-0.935
-0.93
-0.92
-0.9
-0.9
-0.875
-0.85
-0.84
-0.83
-0.86
-0.865
-0.875
-0.905
-0.905
-0.915
-0.93
-0.935
-0.95
-0.96
-0.98
-0.97
-0.97
-0.975
-0.985
-1.0
-1.01
-1.03
-1.03
-1.025
-1.035
-1.03
-1.015
-1.025
-1.025
-1.035
-1.03
-1.025
-1.035
-1.07
-1.055
-1.035
-1.03
-1.025
-1.02
-1.005
-1.01
-1.02
-1.005
-1.03
-1.03
-1.025
-1.015
-1.01
-1.0
-0.97
-0.895
-0.79
-0.715
-0.62
-0.505
-0.405
-0.31
-0.26
-0.305
-0.39
-0.535
-0.73
-0.96
-1.16
-1.4
-1.565
-1.625
-1.6
-1.52
-1.415
-1.325
-1.23
-1.17
-1.115
-1.05
-1.015
-0.985
-0.965
-0.96
-0.96
-0.97
-0.975
-0.98
-0.965
-0.955
-0.945
-0.945
-0.945
-0.93
-0.935
-0.92
-0.93
-0.935
-0.935
-0.945
-0.93
-0.915
-0.915
-0.9
-0.885
-0.905
-0.905
-0.9
-0.91
-0.9
-0.89
-0.905
-0.91
-0.915
-0.88
-0.87
-0.87
-0.86
-0.85
-0.835
-0.85
-0.86
-0.855
-0.86
-0.865
-0.855
-0.84
-0.825
-0.82
-0.805
-0.8
-0.79
-0.79
-0.81
-0.79
-0.79
-0.785
-0.76
-0.735
-0.735
-0.7
-0.69
-0.685
-0.68
-0.675
-0.67
-0.665
-0.66
-0.655
-0.645
-0.62
-0.58
-0.57
-0.55
-0.535
-0.5
-0.49
-0.5
-0.485
-0.48
-0.47
-0.45
-0.435
-0.4
-0.395
-0.395
-0.39
-0.395
-0.41
-0.415
-0.415
-0.415
-0.415
-0.425
-0.425
-0.435
-0.45
-0.465
-0.485
-0.515
-0.545
-0.585
-0.61
-0.635
-0.66
-0.675
-0.695
-0.705
-0.725
-0.745
-0.775
-0.81
-0.83
-0.845
-0.875
-0.905
-0.91
-0.915
-0.91
-0.915
-0.915
-0.94
-0.94
-0.955
-0.96
-0.97
-0.985
-1.0
-1.005
-0.99
-0.965
-0.985
-0.975
-0.98
-0.985
-0.98
-1.0
-1.005
-1.01
-1.02
-1.01
-1.0
-0.985
-0.98
-0.97
-0.97
-0.985
-0.99
-0.99
-1.005
-1.005
-1.0
-0.995
-0.99
-0.985
-0.98
-0.965
-0.97
-0.965
-0.96
-0.965
-0.985
-0.98
-0.985
-0.995
-0.995
-0.99
-0.975
-0.965
-0.965
-0.96
-0.975
-0.98
-0.985
-0.995
-1.01
-1.01
-1.015
-1.025
-1.015
-0.98
-0.98
-0.99
-0.995
-1.015
-1.015
-1.02
-1.035
-1.04
-1.04
-1.03
-1.025
-1.01
-1.0
-1.01
-1.015
-1.04
-1.04
-1.045
-1.06
-1.045
-1.07
-1.04
-1.045
-1.045
-1.055
-1.05
-1.055
-1.055
-1.06
-1.06
-1.075
-1.08
-1.06
-1.05
-1.05
-1.04
-1.055
-1.05
-1.07
-1.06
-1.075
-1.075
-1.085
-1.085
-1.08
-1.065
-1.05
-1.045
-1.055
-1.045
-1.06
-1.055
-1.07
-1.075
-1.1
-1.095
-1.075
-1.06
-1.05
-1.05
-1.055
-1.055
-1.05
-1.09
-1.085
-1.085
-1.09
-1.085
-1.075
-1.06
-1.06
-1.045
-1.05
-1.05
-1.05
-1.05
-1.06
-1.075
-1.08
-1.1
-1.07
-1.065
-1.05
-1.05
-1.045
-1.045
-1.045
-1.055
-1.065
-1.09
-1.095
-1.08
-1.085
-1.07
-1.055
-1.055
-1.06
-1.045
-1.05
-1.06
-1.075
-1.08
-1.075
-1.095
-1.065
-1.075
-1.055
-1.035
-1.045
-1.045
-1.05
-1.06
-1.065
-1.07
-1.075
-1.07
-1.065
-1.06
-1.045
-1.025
-1.025
-1.04
-1.05
-1.05
-1.065
-1.075
-1.085
-1.075
-1.06
-1.05
-1.05
-1.04
-1.04
-1.04
-1.045
-1.05
-1.06
-1.07
-1.075
-1.06
-1.055
-1.055
-1.04
-1.04
-1.035
-1.035
-1.035
-1.035
-1.03
-1.02
-1.02
-1.01
-0.99
-0.985
-0.985
-0.97
-0.97
-0.955
-0.945
-0.93
-0.92
-0.915
-0.91
-0.915
-0.91
-0.905
-0.915
-0.905
-0.92
-0.93
-0.935
-0.95
-0.965
-0.98
-0.995
-1.005
-1.02
-1.03
-1.025
-1.035
-1.025
-1.035
-1.035
-1.05
-1.055
-1.065
-1.07
-1.07
-1.07
-1.07
-1.06
-1.045
-1.04
-1.05
-1.05
-1.065
-1.07
-1.085
-1.095
-1.08
-1.07
-1.045
-1.04
-1.045
-1.055
-1.045
-1.05
-1.035
-1.015
-0.97
-0.9
-0.775
-0.67
-0.54
-0.385
-0.24
-0.14
-0.075
-0.07
-0.155
-0.3
-0.5
-0.73
-0.985
-1.21
-1.385
-1.505
-1.52
-1.47
-1.38
-1.31
-1.225
-1.18
-1.16
-1.115
-1.095
-1.08
-1.04
-1.01
-1.0
-1.0
-1.01
-1.02
-1.025
-1.04
-1.015
-1.04
-1.02
-1.015
-1.015
-0.985
-0.975
-0.96
-0.965
-0.97
-0.97
-0.975
-0.98
-1.0
-0.99
-0.99
-0.97
-0.965
-0.955
-0.94
-0.94
-0.95
-0.94
-0.94
-0.94
-0.95
-0.955
-0.935
-0.92
-0.915
-0.905
-0.895
-0.89
-0.89
-0.9
-0.895
-0.9
-0.905
-0.91
-0.89
-0.89
-0.88
-0.845
-0.84
-0.84
-0.835
-0.845
-0.865
-0.835
-0.825
-0.83
-0.81
-0.8
-0.785
-0.75
-0.745
-0.735
-0.72
-0.71
-0.715
-0.725
-0.705
-0.695
-0.665
-0.64
-0.635
-0.595
-0.57
-0.56
-0.56
-0.555
-0.555
-0.545
-0.55
-0.535
-0.515
-0.505
-0.485
-0.475
-0.46
-0.46
-0.465
-0.465
-0.48
-0.495
-0.495
-0.515
-0.505
-0.51
-0.52
-0.54
-0.55
-0.575
-0.62
-0.65
-0.675
-0.715
-0.755
-0.765
-0.785
-0.805
-0.815
-0.825
-0.86
-0.87
-0.895
-0.915
-0.93
-0.945
-0.965
-0.96
-0.995
-0.985
-0.97
-0.955
-0.975
-0.975
-1.0
-0.995
-1.005
-1.03
-1.015
-1.03
-1.01
-1.0
-0.985
-0.98
-0.995
-0.98
-0.99
-1.0
-1.005
-1.02
-1.03
-1.035
-1.005
-0.995
-0.995
-0.98
-0.985
-0.985
-1.01
-1.005
-1.015
-1.035
-1.025
-1.035
-1.02
-1.015
-1.005
-0.99
-1.0
-0.98
-0.995
-0.995
-1.01
-1.035
-1.03
-1.04
-1.035
-1.015
-1.015
-1.01
-1.005
-1.025
-1.015
-1.02
-1.03
-1.04
-1.045
-1.05
-1.045
-1.055
-1.03
-1.03
-1.02
-1.03
-1.035
-1.05
-1.055
-1.065
-1.06
-1.05
-1.045
-1.04
-1.04
-1.055
-1.065
-1.04
-1.045
-1.065
-1.065
-1.065
-1.07
-1.095
-1.08
-1.07
-1.08
-1.075
-1.055
-1.06
-1.065
-1.08
-1.08
-1.085
-1.085
-1.09
-1.08
-1.075
-1.075
-1.06
-1.05
-1.05
-1.065
-1.065
-1.075
-1.085
-1.1
-1.095
-1.085
-1.085
-1.08
-1.065
-1.06
-1.075
-1.075
-1.075
-1.085
-1.095
-1.095
-1.11
-1.09
-1.085
-1.075
-1.08
-1.085
-1.085
-1.085
-1.075
-1.09
-1.105
-1.1
-1.125
-1.105
-1.075
-1.065
-1.06
-1.06
-1.065
-1.055
-1.07
-1.1
-1.1
-1.12
-1.105
-1.095
-1.08
-1.09
-1.08
-1.065
-1.075
-1.08
-1.095
-1.09
-1.09
-1.1
-1.095
-1.095
-1.095
-1.065
-1.065
-1.07
-1.075
-1.075
-1.07
-1.1
-1.095
-1.1
-1.105
-1.1
-1.085
-1.075
-1.07
-1.065
-1.065
-1.08
-1.08
-1.085
-1.11
-1.11
-1.095
-1.085
-1.08
-1.08
-1.065
-1.06
-1.06
-1.06
-1.07
-1.07
-1.09
-1.09
-1.09
-1.09
-1.08
-1.07
-1.05
-1.065
-1.065
-1.075
-1.08
-1.095
-1.105
-1.11
-1.11
-1.09
-1.085
-1.07
-1.055
-1.055
-1.055
-1.06
-1.06
-1.075
-1.07
-1.085
-1.065
-1.055
-1.045
-1.015
-1.0
-1.01
-0.995
-1.01
-1.0
-1.01
-1.015
-1.015
-1.0
-0.975
-0.955
-0.93
-0.91
-0.885
-0.905
-0.92
-0.95
-0.97
-0.98
-0.99
-0.98
-0.975
-0.97
-0.97
-0.985
-0.985
-1.02
-1.035
-1.045
-1.075
-1.075
-1.09
-1.095
-1.08
-1.07
-1.065
-1.055
-1.065
-1.075
-1.09
-1.105
-1.115
-1.12
-1.12
-1.115
-1.105
-1.105
-1.095
-1.09
-1.085
-1.07
-1.075
-1.09
-1.09
-1.085
-1.095
-1.105
-1.1
-1.105
-1.085
-1.05
-0.99
-0.92
-0.805
-0.715
-0.625
-0.545
-0.46
-0.43
-0.475
-0.565
-0.725
-0.925
-1.15
-1.36
-1.55
-1.665
-1.715
-1.7
-1.625
-1.505
-1.405
-1.325
-1.275
-1.225
-1.21
-1.16
-1.125
-1.08
-1.065
-1.06
-1.06
-1.05
-1.065
-1.055
-1.05
-1.035
-1.035
-1.02
-1.0
-1.015
-1.015
-1.025
-1.02
-1.025
-1.005
-1.0
-0.995
-0.985
-0.96
-0.98
-0.99
-1.015
-0.995
-0.995
-0.995
-1.0
-0.985
-0.985
-0.97
-0.96
-0.955
-0.935
-0.94
-0.96
-0.965
-0.965
-0.985
-0.96
-0.93
-0.93
-0.93
-0.925
-0.91
-0.91
-0.895
-0.905
-0.9
-0.9
-0.9
-0.915
-0.905
-0.885
-0.86
-0.845
-0.825
-0.825
-0.835
-0.81
-0.81
-0.8
-0.795
-0.79
-0.77
-0.735
-0.725
-0.675
-0.665
-0.65
-0.64
-0.625
-0.62
-0.63
-0.615
-0.59
-0.56
-0.555
-0.53
-0.5
-0.51
-0.495
-0.495
-0.49
-0.495
-0.47
-0.475
-0.46
-0.455
-0.45
-0.435
-0.425
-0.415
-0.425
-0.465
-0.5
-0.51
-0.53
-0.56
-0.575
-0.6
-0.61
-0.625
-0.645
-0.67
-0.69
-0.725
-0.775
-0.81
-0.84
-0.86
-0.895
-0.92
-0.935
-0.925
-0.93
-0.945
-0.93
-0.96
-0.965
-0.99
-1.0
-1.01
-1.005
-1.005
-0.99
-1.0
-0.995
-0.995
-0.995
-1.01
-1.015
-1.02
-1.05
-1.04
-1.045
-1.035
-1.025
-1.03
-1.025
-1.02
-1.02
-1.005
-1.02
-1.03
-1.04
-1.045
-1.035
-1.03
-1.02
-1.005
-1.0
-0.995
-1.0
-1.02
-1.01
-1.03
-1.04
-1.04
-1.035
-1.04
-1.035
-1.025
-1.02
-1.005
-1.01
-1.02
-1.025
-1.025
-1.035
-1.045
-1.05
-1.07
-1.055
-1.045
-1.055
-1.035
-1.04
-1.04
-1.04
-1.055
-1.065
-1.08
-1.08
-1.08
-1.06
-1.055
-1.04
-1.05
-1.045
-1.03
-1.06
-1.05
-1.065
-1.075
-1.08
-1.07
-1.07
-1.065
-1.045
-1.035
-1.05
-1.04
-1.06
-1.06
-1.07
-1.075
-1.075
-1.07
-1.075
-1.065
-1.055
-1.07
-1.065
-1.06
-1.07
-1.065
-1.085
-1.085
-1.08
-1.075
-1.06
-1.06
-1.06
-1.05
-1.05
-1.055
-1.07
-1.065
-1.07
-1.08
-1.085
-1.06
-1.06
-1.04
-1.04
-1.04
-1.055
-1.05
-1.05
-1.065
-1.075
-1.095
-1.095
-1.085
-1.075
-1.055
-1.04
-1.035
-1.035
-1.045
-1.055
-1.06
-1.085
-1.085
-1.09
-1.075
-1.065
-1.06
-1.055
-1.055
-1.05
-1.055
-1.055
-1.06
-1.075
-1.08
-1.08
-1.065
-1.07
-1.065
-1.045
-1.035
-1.045
-1.05
-1.045
-1.06
-1.065
-1.07
-1.095
-1.07
-1.055
-1.065
-1.045
-1.05
-1.035
-1.04
-1.05
-1.04
-1.065
-1.06
-1.06
-1.055
-1.05
-1.035
-1.03
-1.035
-1.045
-1.035
-1.045
-1.05
-1.05
-1.06
-1.055
-1.06
-1.05
-1.03
-1.04
-1.025
-1.035
-1.04
-1.035
-1.045
-1.06
-1.04
-1.05
-1.045
-1.04
-1.035
-1.02
-1.01
-1.02
-1.035
-1.035
-1.04
-1.045
-1.04
-1.035
-1.01
-1.01
-1.0
-0.975
-0.96
-0.95
-0.955
-0.95
-0.955
-0.96
-0.94
-0.93
-0.905
-0.91
-0.88
-0.875
-0.865
-0.88
-0.885
-0.905
-0.93
-0.94
-0.95
-0.94
-0.955
-0.945
-0.965
-0.965
-0.97
-0.98
-0.98
-1.005
-1.02
-1.025
-1.035
-1.045
-1.04
-1.035
-1.05
-1.035
-1.03
-1.03
-1.035
-1.05
-1.055
-1.07
-1.07
-1.08
-1.075
-1.06
-1.05
-1.04
-1.045
-1.03
-1.02
-1.025
-1.02
-1.045
-1.045
-1.045
-1.045
-1.03
-0.995
-0.94
-0.86
-0.76
-0.64
-0.5
-0.355
-0.215
-0.125
-0.08
-0.1
-0.225
-0.42
-0.67
-0.935
-1.205
-1.425
-1.54
-1.555
-1.485
-1.375
-1.275
-1.195
-1.13
-1.08
-1.04
-1.025
-1.0
-0.985
-0.98
-0.98
-0.995
-1.005
-1.005
-1.0
-0.98
-0.98
-0.97
-0.955
-0.945
-0.935
-0.95
-0.945
-0.965
-0.965
-0.96
-0.96
-0.95
-0.935
-0.925
-0.92
-0.92
-0.905
-0.91
-0.925
-0.93
-0.94
-0.92
-0.935
-0.91
-0.91
-0.88
-0.885
-0.87
-0.885
-0.885
-0.89
-0.89
-0.9
-0.885
-0.89
-0.875
-0.855
-0.845
-0.83
-0.83
-0.835
-0.835
-0.845
-0.85
-0.835
-0.855
-0.845
-0.83
-0.8
-0.77
-0.77
-0.76
-0.76
-0.75
-0.755
-0.75
-0.755
-0.725
-0.72
-0.705
-0.68
-0.655
-0.64
-0.625
-0.61
-0.605
-0.605
-0.59
-0.58
-0.55
-0.53
-0.525
-0.495
-0.48
-0.47
-0.46
-0.425
-0.435
-0.43
-0.43
-0.44
-0.435
-0.43
-0.405
-0.395
-0.4
-0.385
-0.39
-0.395
-0.425
-0.44
-0.455
-0.485
-0.51
-0.51
-0.53
-0.56
-0.565
-0.585
-0.625
-0.635
-0.68
-0.695
-0.735
-0.765
-0.79
-0.815
-0.83
-0.835
-0.83
-0.855
-0.875
-0.885
-0.91
-0.92
-0.925
-0.93
-0.945
-0.945
-0.955
-0.955
-0.94
-0.93
-0.94
-0.94
-0.965
-0.965
-0.97
-0.965
-0.98
-0.97
-0.96
-0.955
-0.95
-0.93
-0.935
-0.93
-0.945
-0.975
-0.97
-0.975
-0.975
-0.96
-0.95
-0.93
-0.915
-0.925
-0.935
-0.92
-0.94
-0.94
-0.94
-0.95
-0.955
-0.95
-0.945
-0.925
-0.93
-0.925
-0.92
-0.93
-0.935
-0.945
-0.96
-0.965
-0.985
-0.99
-0.965
-0.97
-0.965
-0.95
-0.95
-0.96
-0.975
-0.99
-1.01
-0.99
-1.0
-1.005
-0.985
-0.975
-0.98
-0.965
-0.96
-0.99
-1.0
-0.995
-1.005
-1.02
-1.025
-1.02
-1.015
-1.015
-0.99
-0.98
-0.995
-0.995
-0.995
-1.0
-1.01
-1.02
-1.01
-1.02
-1.0
-0.995
-0.99
-0.98
-0.985
-0.98
-0.985
-1.005
-1.0
-1.01
-1.025
-1.015
-1.01
-1.015
-0.99
-1.005
-0.985
-1.0
-1.0
-1.0
-1.01
-1.025
-1.02
-1.015
-1.005
-1.01
-1.0
-0.995
-0.995
-1.005
-1.0
-1.02
-1.02
-1.035
-1.035
-1.015
-0.985
-0.995
-0.985
-0.985
-0.985
-0.97
-0.985
-1.005
-1.0
-1.005
-1.01
-1.01
-0.985
-0.995
-0.995
-0.985
-0.98
-0.985
-0.99
-1.0
-1.0
-1.01
-1.01
-1.005
-0.995
-0.995
-0.985
-0.975
-0.98
-0.975
-0.99
-1.01
-1.01
-1.005
-0.995
-1.01
-1.01
-0.985
-0.985
-0.98
-0.985
-0.98
-0.99
-1.0
-1.0
-1.01
-1.015
-1.005
-1.0
-0.985
-0.985
-0.965
-0.995
-0.99
-0.995
-1.005
-1.005
-1.015
-1.015
-1.005
-0.995
-0.985
-0.985
-0.985
-0.99
-0.985
-0.995
-1.005
-1.0
-1.005
-1.015
-1.01
-1.005
-0.98
-0.985
-0.985
-0.985
-0.99
-0.995
-1.01
-1.015
-1.0
-0.97
-0.96
-0.95
-0.95
-0.935
-0.92
-0.91
-0.91
-0.91
-0.9
-0.89
-0.87
-0.875
-0.85
-0.85
-0.84
-0.835
-0.835
-0.85
-0.87
-0.885
-0.925
-0.92
-0.93
-0.935
-0.935
-0.96
-0.955
-0.95
-0.96
-0.96
-0.975
-0.995
-1.015
-1.025
-1.02
-1.02
-1.015
-1.005
-1.02
-1.005
-0.99
-1.0
-1.015
-1.015
-1.01
-1.02
-1.025
-1.025
-1.045
-1.04
-1.03
-1.015
-1.005
-1.0
-1.005
-1.015
-1.0
-1.03
-1.02
-1.025
-1.015
-0.985
-0.96
-0.91
-0.815
-0.72
-0.61
-0.48
-0.345
-0.24
-0.165
-0.14
-0.19
-0.3
-0.48
-0.69
-0.935
-1.165
-1.365
-1.485
-1.495
-1.455
-1.36
-1.27
-1.21
-1.13
-1.08
-1.04
-1.005
-0.965
-0.955
-0.965
-0.955
-0.97
-0.985
-0.99
-0.98
-0.965
-0.965
-0.96
-0.94
-0.955
-0.95
-0.93
-0.945
-0.96
-0.96
-0.975
-0.955
-0.935
-0.905
-0.915
-0.9
-0.91
-0.895
-0.905
-0.92
-0.92
-0.92
-0.925
-0.91
-0.905
-0.895
-0.885
-0.865
-0.865
-0.88
-0.89
-0.895
-0.89
-0.9
-0.885
-0.89
-0.89
-0.86
-0.845
-0.84
-0.845
-0.84
-0.835
-0.835
-0.845
-0.84
-0.835
-0.83
-0.81
-0.8
-0.78
-0.76
-0.76
-0.77
-0.74
-0.74
-0.735
-0.73
-0.73
-0.7
-0.68
-0.655
-0.635
-0.615
-0.62
-0.605
-0.59
-0.56
-0.555
-0.56
-0.54
-0.515
-0.505
-0.48
-0.47
-0.45
-0.44
-0.44
-0.445
-0.425
-0.43
-0.42
-0.42
-0.425
-0.41
-0.42
-0.4
-0.39
-0.4
-0.42
-0.455
-0.485
-0.515
-0.515
-0.565
-0.57
-0.585
-0.605
-0.63
-0.65
-0.68
-0.71
-0.725
-0.75
-0.8
-0.81
-0.835
-0.855
-0.865
-0.88
-0.89
-0.89
-0.905
-0.92
-0.93
-0.93
-0.94
-0.96
-0.975
-0.975
-0.955
-0.945
-0.95
-0.94
-0.945
-0.945
-0.96
-0.96
-0.955
-0.965
-0.975
-0.975
-0.965
-0.95
-0.95
-0.945
-0.935
-0.96
-0.955
-0.95
-0.965
-0.96
-0.98
-0.98
-0.965
-0.945
-0.94
-0.93
-0.935
-0.93
-0.94
-0.96
-0.985
-0.975
-0.96
-0.965
-0.96
-0.94
-0.945
-0.945
-0.945
-0.95
-0.945
-0.96
-0.975
-0.985
-0.98
-0.975
-0.965
-0.965
-0.96
-0.955
-0.955
-0.97
-0.965
-0.985
-0.995
-0.99
-1.01
-1.01
-1.0
-0.99
-0.985
-0.97
-0.985
-1.0
-0.985
-1.005
-1.005
-1.01
-1.02
-1.03
-1.005
-1.01
-1.015
-1.01
-0.99
-1.01
-1.005
-1.01
-1.02
-1.03
-1.03
-1.04
-1.03
-1.02
-0.99
-0.985
-0.995
-1.0
-1.005
-1.025
-1.02
-1.035
-1.03
-1.035
-1.045
-1.015
-1.015
-0.995
-1.0
-1.0
-1.0
-1.03
-1.025
-1.03
-1.035
-1.04
-1.035
-1.035
-1.045
-1.01
-1.01
-0.995
-1.005
-1.03
-1.055
-1.025
-1.05
-1.04
-1.025
-1.02
-1.01
-1.015
-1.015
-1.01
-1.02
-1.025
-1.03
-1.025
-1.035
-1.035
-1.035
-1.04
-1.04
-1.02
-1.04
-1.015
-1.015
-1.02
-1.035
-1.04
-1.055
-1.055
-1.035
-1.02
-1.015
-1.0
-1.0
-1.005
-1.015
-1.025
-1.025
-1.025
-1.03
-1.04
-1.03
-1.025
-1.01
-0.99
-0.995
-1.01
-1.0
-1.015
-1.01
-1.02
-1.03
-1.045
-1.02
-1.03
-1.01
-1.025
-1.0
-1.01
-1.0
-1.005
-1.01
-1.005
-1.035
-1.04
-1.025
-1.025
-1.005
-0.985
-0.985
-0.99
-0.99
-0.995
-1.0
-0.98
-0.985
-0.975
-0.95
-0.945
-0.93
-0.91
-0.915
-0.92
-0.91
-0.91
-0.91
-0.895
-0.88
-0.87
-0.855
-0.835
-0.835
-0.82
-0.83
-0.845
-0.865
-0.885
-0.9
-0.905
-0.9
-0.92
-0.91
-0.935
-0.935
-0.95
-0.955
-0.965
-0.975
-0.985
-1.005
-0.995
-1.01
-1.02
-1.005
-1.0
-1.02
-1.005
-1.005
-1.015
-1.015
-1.015
-1.03
-1.035
-1.02
-1.02
-1.015
-1.0
-0.995
-0.98
-0.985
-0.995
-0.99
-0.99
-0.995
-1.005
-1.005
-0.995
-0.97
-0.925
-0.85
-0.755
-0.655
-0.54
-0.415
-0.33
-0.28
-0.28
-0.37
-0.5
-0.675
-0.88
-1.07
-1.28
-1.465
-1.58
-1.6
-1.555
-1.465
-1.37
-1.28
-1.235
-1.185
-1.13
-1.105
-1.035
-0.99
-0.975
-0.935
-0.955
-0.95
-0.97
-0.975
-0.965
-0.965
-0.955
-0.93
-0.905
-0.915
-0.92
-0.915
-0.935
-0.91
-0.915
-0.92
-0.94
-0.93
-0.91
-0.91
-0.895
-0.885
-0.88
-0.885
-0.885
-0.885
-0.88
-0.885
-0.895
-0.88
-0.865
-0.855
-0.845
-0.835
-0.845
-0.84
-0.84
-0.84
-0.855
-0.855
-0.86
-0.84
-0.835
-0.815
-0.8
-0.8
-0.8
-0.79
-0.8
-0.815
-0.815
-0.8
-0.78
-0.775
-0.75
-0.74
-0.71
-0.725
-0.72
-0.72
-0.72
-0.705
-0.7
-0.68
-0.675
-0.645
-0.63
-0.61
-0.58
-0.56
-0.55
-0.56
-0.55
-0.545
-0.53
-0.52
-0.505
-0.485
-0.47
-0.46
-0.43
-0.415
-0.41
-0.405
-0.42
-0.41
-0.4
-0.405
-0.405
-0.4
-0.38
-0.395
-0.38
-0.4
-0.4
-0.425
-0.455
-0.475
-0.5
-0.53
-0.555
-0.565
-0.59
-0.61
-0.62
-0.655
-0.68
-0.71
-0.745
-0.775
-0.805
-0.815
-0.83
-0.845
-0.845
-0.855
-0.865
-0.865
-0.885
-0.895
-0.915
