Lead II
-0.235
-0.25
-0.245
-0.24
-0.24
-0.25
-0.255
-0.255
-0.255
-0.26
-0.26
-0.27
-0.265
-0.28
-0.275
-0.27
-0.275
-0.29
-0.295
-0.305
-0.285
-0.305
-0.295
-0.295
-0.305
-0.32
-0.305
-0.315
-0.3
-0.305
-0.315
-0.32
-0.33
-0.32
-0.32
-0.315
-0.33
-0.33
-0.32
-0.315
-0.31
-0.315
-0.305
-0.305
-0.29
-0.27
-0.25
-0.245
-0.255
-0.26
-0.255
-0.245
-0.24
-0.22
-0.23
-0.235
-0.235
-0.205
-0.205
-0.2
-0.22
-0.25
-0.25
-0.245
-0.255
-0.27
-0.28
-0.28
-0.255
-0.255
-0.24
-0.26
-0.285
-0.295
-0.3
-0.305
-0.315
-0.335
-0.35
-0.365
-0.365
-0.365
-0.375
-0.39
-0.39
-0.38
-0.39
-0.375
-0.375
-0.38
-0.395
-0.415
-0.4
-0.395
-0.38
-0.39
-0.405
-0.405
-0.39
-0.39
-0.39
-0.4
-0.405
-0.41
-0.41
-0.435
-0.485
-0.555
-0.575
-0.545
-0.48
-0.41
-0.285
-0.08
0.225
0.575
0.925
1.25
1.51
1.715
1.81
1.79
1.615
1.24
0.715
0.18
-0.225
-0.46
-0.555
-0.575
-0.535
-0.46
-0.37
-0.32
-0.325
-0.345
-0.365
-0.365
-0.38
-0.39
-0.385
-0.385
-0.395
-0.415
-0.43
-0.44
-0.43
-0.42
-0.42
-0.425
-0.43
-0.445
-0.44
-0.445
-0.44
-0.445
-0.455
-0.47
-0.46
-0.445
-0.45
-0.44
-0.45
-0.45
-0.44
-0.43
-0.435
-0.43
-0.43
-0.435
-0.425
-0.43
-0.42
-0.42
-0.425
-0.435
-0.425
-0.41
-0.4
-0.4
-0.4
-0.4
-0.39
-0.37
-0.37
-0.375
-0.365
-0.36
-0.335
-0.325
-0.31
-0.3
-0.28
-0.285
-0.255
-0.245
-0.235
-0.22
-0.205
-0.185
-0.16
-0.13
-0.12
-0.11
-0.095
-0.09
-0.065
-0.045
-0.03
-0.01
-0.005
0.01
0.035
0.045
0.055
0.06
0.075
0.075
0.09
0.105
0.095
0.095
0.085
0.075
0.075
0.08
0.06
0.045
0.03
0.005
-0.005
-0.015
-0.035
-0.065
-0.095
-0.135
-0.14
-0.155
-0.17
-0.205
-0.22
-0.25
-0.245
-0.27
-0.275
-0.285
-0.3
-0.3
-0.305
-0.3
-0.3
-0.31
-0.315
-0.325
-0.315
-0.31
-0.33
-0.325
-0.33
-0.345
-0.32
-0.315
-0.32
-0.335
-0.33
-0.335
-0.325
-0.325
-0.315
-0.315
-0.32
-0.315
-0.32
-0.305
-0.31
-0.31
-0.305
-0.305
-0.3
-0.285
-0.295
-0.3
-0.295
-0.305
-0.295
-0.285
-0.28
-0.29
-0.295
-0.3
-0.28
-0.275
-0.27
-0.275
-0.295
-0.3
-0.29
-0.29
-0.28
-0.285
-0.285
-0.3
-0.29
-0.275
-0.28
-0.29
-0.295
-0.3
-0.3
-0.29
-0.305
-0.31
-0.32
-0.32
-0.315
-0.32
-0.325
-0.325
-0.34
-0.35
-0.33
-0.325
-0.325
-0.345
-0.35
-0.35
-0.345
-0.34
-0.345
-0.35
-0.365
-0.38
-0.355
-0.355
-0.355
-0.35
-0.375
-0.365
-0.36
-0.36
-0.35
-0.37
-0.38
-0.38
-0.37
-0.37
-0.35
-0.36
-0.38
-0.38
-0.36
-0.35
-0.34
-0.34
-0.335
-0.315
-0.295
-0.295
-0.295
-0.3
-0.29
-0.285
-0.27
-0.265
-0.28
-0.275
-0.28
-0.26
-0.255
-0.25
-0.255
-0.28
-0.305
-0.31
-0.32
-0.31
-0.3
-0.295
-0.295
-0.31
-0.33
-0.33
-0.35
-0.355
-0.385
-0.405
-0.395
-0.39
-0.395
-0.405
-0.425
-0.44
-0.44
-0.415
-0.415
-0.425
-0.435
-0.435
-0.43
-0.415
-0.43
-0.43
-0.435
-0.445
-0.44
-0.435
-0.42
-0.43
-0.43
-0.455
-0.445
-0.425
-0.415
-0.435
-0.475
-0.535
-0.58
-0.59
-0.555
-0.495
-0.435
-0.32
-0.1
0.245
0.625
0.965
1.255
1.52
1.705
1.765
1.645
1.305
0.795
0.245
-0.205
-0.46
-0.555
-0.575
-0.555
-0.5
-0.4
-0.33
-0.325
-0.375
-0.4
-0.4
-0.405
-0.395
-0.39
-0.41
-0.44
-0.455
-0.45
-0.45
-0.455
-0.46
-0.47
-0.475
-0.475
-0.465
-0.455
-0.455
-0.47
-0.485
-0.47
-0.465
-0.455
-0.46
-0.465
-0.475
-0.465
-0.455
-0.47
-0.46
-0.465
-0.46
-0.455
-0.455
-0.44
-0.445
-0.45
-0.445
-0.44
-0.425
-0.425
-0.43
-0.42
-0.43
-0.435
-0.41
-0.395
-0.385
-0.39
-0.385
-0.37
-0.36
-0.35
-0.35
-0.345
-0.33
-0.305
-0.285
-0.285
-0.265
-0.25
-0.245
-0.21
-0.175
-0.165
-0.16
-0.145
-0.13
-0.105
-0.075
-0.05
-0.055
-0.05
-0.04
0.0
0.015
0.035
0.045
0.045
0.045
0.065
0.075
0.085
0.09
0.085
0.09
0.1
0.11
0.095
0.085
0.07
0.05
0.05
0.04
0.025
-0.005
-0.035
-0.065
-0.08
-0.085
-0.115
-0.145
-0.17
-0.19
-0.2
-0.215
-0.23
-0.245
-0.265
-0.285
-0.295
-0.275
-0.285
-0.29
-0.32
-0.32
-0.31
-0.31
-0.31
-0.325
-0.325
-0.33
-0.325
-0.315
-0.32
-0.325
-0.33
-0.335
-0.33
-0.315
-0.31
-0.32
-0.32
-0.33
-0.315
-0.305
-0.305
-0.31
-0.32
-0.31
-0.305
-0.295
-0.3
-0.305
-0.305
-0.305
-0.285
-0.285
-0.275
-0.29
-0.3
-0.3
-0.3
-0.28
-0.285
-0.29
-0.285
-0.29
-0.285
-0.285
-0.28
-0.28
-0.29
-0.295
-0.305
-0.3
-0.285
-0.3
-0.305
-0.3
-0.305
-0.305
-0.31
-0.305
-0.325
-0.335
-0.325
-0.315
-0.335
-0.325
-0.33
-0.335
-0.335
-0.34
-0.33
-0.335
-0.355
-0.36
-0.345
-0.35
-0.345
-0.355
-0.36
-0.365
-0.365
-0.355
-0.365
-0.365
-0.365
-0.38
-0.37
-0.365
-0.365
-0.375
-0.36
-0.39
-0.375
-0.375
-0.37
-0.37
-0.38
-0.38
-0.39
-0.365
-0.345
-0.36
-0.36
-0.355
-0.345
-0.315
-0.3
-0.295
-0.295
-0.3
-0.295
-0.28
-0.28
-0.275
-0.28
-0.275
-0.26
-0.265
-0.26
-0.265
-0.26
-0.265
-0.255
-0.27
-0.27
-0.29
-0.32
-0.32
-0.33
-0.32
-0.305
-0.295
-0.3
-0.305
-0.315
-0.315
-0.335
-0.365
-0.365
-0.365
-0.365
-0.37
-0.39
-0.395
-0.405
-0.42
-0.41
-0.405
-0.415
-0.42
-0.435
-0.445
-0.43
-0.42
-0.42
-0.42
-0.445
-0.45
-0.435
-0.425
-0.425
-0.43
-0.43
-0.445
-0.45
-0.43
-0.425
-0.435
-0.445
-0.45
-0.445
-0.44
-0.46
-0.53
-0.59
-0.625
-0.59
-0.535
-0.455
-0.365
-0.17
0.125
0.5
0.85
1.2
1.5
1.72
1.82
1.795
1.595
1.175
0.61
0.085
-0.29
-0.49
-0.56
-0.555
-0.545
-0.48
-0.4
-0.345
-0.34
-0.375
-0.4
-0.41
-0.425
-0.425
-0.42
-0.415
-0.435
-0.445
-0.455
-0.45
-0.455
-0.455
-0.475
-0.475
-0.48
-0.48
-0.475
-0.485
-0.47
-0.5
-0.485
-0.475
-0.475
-0.475
-0.485
-0.485
-0.49
-0.48
-0.465
-0.46
-0.475
-0.48
-0.49
-0.47
-0.455
-0.46
-0.465
-0.46
-0.455
-0.445
-0.43
-0.44
-0.425
-0.445
-0.445
-0.43
-0.415
-0.405
-0.4
-0.405
-0.39
-0.38
-0.355
-0.355
-0.345
-0.34
-0.325
-0.295
-0.285
-0.28
-0.275
-0.26
-0.235
-0.205
-0.18
-0.16
-0.15
-0.13
-0.125
-0.105
-0.08
-0.065
-0.045
-0.045
-0.025
0.0
0.01
0.015
0.015
0.035
0.04
0.055
0.06
0.075
0.065
0.065
0.05
0.06
0.06
0.055
0.04
0.015
0.0
-0.015
-0.02
-0.045
-0.075
-0.095
-0.12
-0.14
-0.16
-0.17
-0.205
-0.24
-0.265
-0.26
-0.27
-0.27
-0.3
-0.305
-0.32
-0.315
-0.315
-0.32
-0.335
-0.34
-0.36
-0.345
-0.335
-0.34
-0.34
-0.355
-0.35
-0.35
-0.345
-0.34
-0.36
-0.36
-0.355
-0.355
-0.34
-0.34
-0.34
-0.335
-0.355
-0.345
-0.335
-0.335
-0.32
-0.325
-0.34
-0.315
-0.32
-0.31
-0.315
-0.32
-0.32
-0.3
-0.3
-0.295
-0.3
-0.31
-0.32
-0.3
-0.3
-0.29
-0.3
-0.31
-0.31
-0.33
-0.32
-0.305
-0.315
-0.305
-0.325
-0.315
-0.315
-0.32
-0.315
-0.325
-0.325
-0.32
-0.32
-0.335
-0.33
-0.325
-0.345
-0.335
-0.335
-0.345
-0.35
-0.355
-0.355
-0.35
-0.345
-0.355
-0.36
-0.375
-0.385
-0.38
-0.38
-0.375
-0.385
-0.38
-0.38
-0.37
-0.37
-0.375
-0.38
-0.38
-0.4
-0.385
-0.375
-0.37
-0.385
-0.39
-0.4
-0.4
-0.395
-0.385
-0.39
-0.385
-0.405
-0.39
-0.37
-0.365
-0.375
-0.37
-0.365
-0.35
-0.33
-0.315
-0.315
-0.32
-0.325
-0.31
-0.3
-0.305
-0.295
-0.285
-0.295
-0.295
-0.28
-0.28
-0.275
-0.28
-0.3
-0.3
-0.305
-0.31
-0.325
-0.36
-0.355
-0.34
-0.325
-0.315
-0.315
-0.325
-0.34
-0.345
-0.355
-0.365
-0.385
-0.405
-0.395
-0.4
-0.39
-0.39
-0.4
-0.41
-0.42
-0.425
-0.435
-0.425
-0.44
-0.445
-0.455
-0.46
-0.435
-0.44
-0.45
-0.445
-0.445
-0.43
-0.43
-0.425
-0.44
-0.445
-0.45
-0.44
-0.435
-0.435
-0.44
-0.45
-0.45
-0.445
-0.46
-0.495
-0.555
-0.585
-0.575
-0.51
-0.43
-0.33
-0.135
0.15
0.48
0.81
1.135
1.405
1.595
1.7
1.645
1.42
1.01
0.485
0.035
-0.32
-0.53
-0.6
-0.61
-0.57
-0.475
-0.39
-0.37
-0.375
-0.395
-0.405
-0.42
-0.42
-0.425
-0.41
-0.415
-0.425
-0.44
-0.455
-0.465
-0.455
-0.46
-0.44
-0.455
-0.465
-0.47
-0.465
-0.45
-0.45
-0.46
-0.465
-0.48
-0.46
-0.45
-0.45
-0.45
-0.46
-0.465
-0.46
-0.445
-0.445
-0.435
-0.45
-0.455
-0.445
-0.44
-0.43
-0.445
-0.45
-0.46
-0.435
-0.415
-0.41
-0.42
-0.42
-0.42
-0.4
-0.38
-0.375
-0.37
-0.365
-0.365
-0.34
-0.31
-0.29
-0.3
-0.29
-0.285
-0.27
-0.23
-0.215
-0.2
-0.19
-0.185
-0.16
-0.125
-0.115
-0.105
-0.1
-0.085
-0.07
-0.045
-0.03
-0.04
-0.035
-0.02
-0.005
0.01
0.025
0.04
0.015
0.02
0.035
0.03
0.035
0.015
0.005
-0.02
-0.025
-0.04
-0.05
-0.08
-0.1
-0.12
-0.135
-0.145
-0.17
-0.19
-0.23
-0.245
-0.24
-0.245
-0.265
-0.28
-0.295
-0.295
-0.305
-0.31
-0.335
-0.325
-0.34
-0.34
-0.345
-0.335
-0.32
-0.33
-0.335
-0.35
-0.345
-0.36
-0.34
-0.335
-0.345
-0.32
-0.325
-0.34
-0.325
-0.325
-0.335
-0.34
-0.34
-0.325
-0.31
-0.32
-0.31
-0.315
-0.32
-0.3
-0.3
-0.315
-0.305
-0.31
-0.3
-0.3
-0.31
-0.3
-0.3
-0.31
-0.305
-0.295
-0.305
-0.29
-0.29
-0.295
-0.29
-0.29
-0.3
-0.295
-0.3
-0.31
-0.295
-0.295
-0.3
-0.295
-0.31
-0.315
-0.31
-0.315
-0.325
-0.32
-0.335
-0.335
-0.335
-0.33
-0.33
-0.335
-0.34
-0.345
-0.33
-0.32
-0.325
-0.335
-0.345
-0.36
-0.355
-0.35
-0.355
-0.35
-0.365
-0.365
-0.37
-0.375
-0.375
-0.365
-0.385
-0.375
-0.375
-0.37
-0.37
-0.375
-0.375
-0.385
-0.375
-0.365
-0.37
-0.37
-0.375
-0.37
-0.36
-0.345
-0.335
-0.33
-0.325
-0.32
-0.31
-0.305
-0.3
-0.305
-0.305
-0.285
-0.275
-0.275
-0.275
-0.28
-0.275
-0.265
-0.26
-0.255
-0.275
-0.29
-0.315
-0.325
-0.325
-0.335
-0.32
-0.305
-0.31
-0.315
-0.315
-0.31
-0.33
-0.35
-0.375
-0.39
-0.375
-0.38
-0.385
-0.395
-0.41
-0.41
-0.415
-0.41
-0.415
-0.425
-0.43
-0.435
-0.43
-0.42
-0.43
-0.43
-0.44
-0.445
-0.42
-0.41
-0.41
-0.42
-0.44
-0.435
-0.43
-0.425
-0.42
-0.42
-0.425
-0.46
-0.49
-0.53
-0.54
-0.505
-0.455
-0.375
-0.215
0.01
0.31
0.62
0.905
1.175
1.415
1.575
1.595
1.415
1.025
0.53
0.055
-0.31
-0.53
-0.63
-0.625
-0.55
-0.435
-0.35
-0.35
-0.375
-0.41
-0.41
-0.4
-0.395
-0.405
-0.42
-0.43
-0.435
-0.44
-0.42
-0.435
-0.445
-0.45
-0.45
-0.455
-0.44
-0.44
-0.445
-0.465
-0.465
-0.46
-0.44
-0.435
-0.445
-0.445
-0.45
-0.435
-0.43
-0.435
-0.435
-0.44
-0.46
-0.435
-0.435
-0.41
-0.435
-0.42
-0.43
-0.42
-0.415
-0.405
-0.395
-0.39
-0.39
-0.37
-0.355
-0.345
-0.35
-0.335
-0.335
-0.31
-0.285
-0.265
-0.255
-0.255
-0.25
-0.21
-0.19
-0.175
-0.155
-0.15
-0.145
-0.105
-0.085
-0.06
-0.055
-0.045
-0.035
-0.015
0.015
0.02
0.03
0.03
0.035
0.05
0.07
0.075
0.07
0.06
0.04
0.055
0.055
0.04
0.02
0.0
-0.025
-0.04
-0.055
-0.075
-0.095
-0.135
-0.16
-0.175
-0.18
-0.2
-0.225
-0.24
-0.26
-0.265
-0.27
-0.265
-0.275
-0.29
-0.315
-0.315
-0.3
-0.31
-0.305
-0.32
-0.33
-0.31
-0.3
-0.295
-0.31
-0.325
-0.32
-0.33
-0.315
-0.305
-0.315
-0.32
-0.33
-0.31
-0.3
-0.285
-0.3
-0.31
-0.3
-0.28
-0.28
-0.265
-0.28
-0.28
-0.28
-0.28
-0.26
-0.27
-0.255
-0.27
-0.275
-0.265
-0.26
-0.26
-0.265
-0.265
-0.27
-0.26
-0.255
-0.255
-0.26
-0.275
-0.275
-0.275
-0.265
-0.27
-0.27
-0.275
-0.285
-0.285
-0.28
-0.28
-0.305
-0.29
-0.31
-0.3
-0.3
-0.29
-0.31
-0.32
-0.325
-0.325
-0.33
-0.325
-0.325
-0.34
-0.355
-0.345
-0.34
-0.33
-0.33
-0.345
-0.355
-0.345
-0.345
-0.345
-0.34
-0.355
-0.365
-0.36
-0.36
-0.34
-0.35
-0.365
-0.36
-0.37
-0.36
-0.35
-0.345
-0.355
-0.35
-0.325
-0.3
-0.3
-0.285
-0.285
-0.3
-0.285
-0.28
-0.27
-0.26
-0.255
-0.265
-0.26
-0.25
-0.24
-0.245
-0.245
-0.27
-0.27
-0.265
-0.28
-0.295
-0.305
-0.315
-0.295
-0.285
-0.285
-0.3
-0.315
-0.35
-0.345
-0.355
-0.36
-0.375
-0.4
-0.41
-0.41
-0.4
-0.4
-0.42
-0.43
-0.445
-0.445
-0.43
-0.425
-0.43
-0.445
-0.445
-0.45
-0.425
-0.43
-0.43
-0.445
-0.45
-0.43
-0.43
-0.425
-0.415
-0.44
-0.45
-0.45
-0.47
-0.515
-0.575
-0.62
-0.595
-0.52
-0.415
-0.23
0.07
0.46
0.865
1.24
1.56
1.765
1.79
1.66
1.275
0.71
0.15
-0.28
-0.52
-0.58
-0.57
-0.5
-0.4
-0.335
-0.335
-0.365
-0.405
-0.41
-0.39
-0.395
-0.41
-0.44
-0.46
-0.465
-0.465
-0.455
-0.465
-0.47
-0.47
-0.47
-0.455
-0.465
-0.465
-0.465
-0.49
-0.475
-0.465
-0.48
-0.47
-0.47
-0.475
-0.48
-0.48
-0.46
-0.46
-0.455
-0.465
-0.46
-0.46
-0.445
-0.445
-0.45
-0.44
-0.435
-0.42
-0.415
-0.415
-0.405
-0.41
-0.395
-0.38
-0.37
-0.36
-0.37
-0.35
-0.33
-0.31
-0.305
-0.285
-0.28
-0.265
-0.235
-0.21
-0.18
-0.175
-0.15
-0.155
-0.12
-0.095
-0.075
-0.065
-0.055
-0.045
-0.03
-0.015
0.005
0.015
0.025
0.03
0.045
0.06
0.065
0.055
0.06
0.065
0.06
0.065
0.06
0.04
0.03
0.005
-0.005
-0.01
-0.04
-0.06
-0.1
-0.13
-0.145
-0.165
-0.185
-0.21
-0.225
-0.25
-0.26
-0.275
-0.28
-0.285
-0.305
-0.31
-0.315
-0.325
-0.325
-0.32
-0.33
-0.35
-0.345
-0.34
-0.33
-0.34
-0.345
-0.36
-0.345
-0.335
-0.325
-0.34
-0.34
-0.345
-0.345
-0.33
-0.32
-0.33
-0.32
-0.33
-0.33
-0.315
-0.31
-0.31
-0.31
-0.33
-0.315
-0.29
-0.29
-0.29
-0.295
-0.3
-0.295
-0.28
-0.28
-0.29
-0.305
-0.295
-0.285
-0.28
-0.275
-0.295
-0.29
-0.305
-0.305
-0.295
-0.3
-0.295
-0.305
-0.31
-0.315
-0.305
-0.3
-0.32
-0.325
-0.335
-0.325
-0.325
-0.31
-0.325
-0.335
-0.335
-0.34
-0.325
-0.33
-0.35
-0.37
-0.375
-0.37
-0.36
-0.375
-0.37
-0.38
-0.37
-0.365
-0.37
-0.365
-0.375
-0.385
-0.38
-0.37
-0.38
-0.37
-0.37
-0.385
-0.39
-0.385
-0.39
-0.375
-0.385
-0.385
-0.395
-0.38
-0.37
-0.37
-0.36
-0.335
-0.335
-0.315
-0.31
-0.295
-0.3
-0.295
-0.31
-0.295
-0.28
-0.27
-0.27
-0.28
-0.28
-0.275
-0.265
-0.27
-0.275
-0.3
-0.31
-0.33
-0.32
-0.325
-0.325
-0.315
-0.315
-0.325
-0.325
-0.33
-0.355
-0.37
-0.385
-0.385
-0.395
-0.41
-0.405
-0.425
-0.445
-0.44
-0.43
-0.44
-0.445
-0.455
-0.46
-0.465
-0.45
-0.45
-0.455
-0.465
-0.475
-0.465
-0.445
-0.455
-0.465
-0.465
-0.485
-0.47
-0.465
-0.45
-0.455
-0.47
-0.51
-0.56
-0.61
-0.62
-0.61
-0.565
-0.505
-0.375
-0.16
0.175
0.545
0.905
1.215
1.52
1.73
1.805
1.725
1.41
0.89
0.33
-0.14
-0.43
-0.57
-0.59
-0.585
-0.52
-0.415
-0.35
-0.36
-0.405
-0.44
-0.44
-0.415
-0.42
-0.43
-0.45
-0.475
-0.48
-0.47
-0.47
-0.485
-0.495
-0.505
-0.505
-0.49
-0.475
-0.485
-0.495
-0.5
-0.495
-0.48
-0.49
-0.485
-0.495
-0.505
-0.5
-0.5
-0.49
-0.49
-0.495
-0.5
-0.49
-0.475
-0.465
-0.47
-0.48
-0.485
-0.475
-0.46
-0.45
-0.46
-0.465
-0.45
-0.45
-0.425
-0.42
-0.43
-0.43
-0.425
-0.4
-0.38
-0.36
-0.37
-0.36
-0.355
-0.34
-0.315
-0.3
-0.285
-0.285
-0.265
-0.25
-0.21
-0.2
-0.185
-0.19
-0.165
-0.155
-0.125
-0.11
-0.085
-0.08
-0.07
-0.045
-0.025
-0.01
-0.005
-0.015
-0.01
0.005
0.02
0.025
0.035
0.02
0.01
0.005
0.01
0.0
-0.01
-0.03
-0.05
-0.07
-0.07
-0.095
-0.1
-0.135
-0.175
-0.175
-0.19
-0.205
-0.225
-0.25
-0.28
-0.275
-0.28
-0.29
-0.31
-0.325
-0.34
-0.33
-0.335
-0.33
-0.345
-0.355
-0.365
-0.365
-0.355
-0.36
-0.37
-0.37
-0.385
-0.365
-0.345
-0.35
-0.355
-0.365
-0.37
-0.36
-0.35
-0.34
-0.36
-0.36
-0.375
-0.35
-0.345
-0.335
-0.345
-0.34
-0.345
-0.335
-0.32
-0.32
-0.32
-0.32
-0.33
-0.32
-0.315
-0.305
-0.315
-0.325
-0.34
-0.32
-0.32
-0.305
-0.3
-0.325
-0.33
-0.315
-0.31
-0.31
-0.32
-0.32
-0.335
-0.325
-0.325
-0.31
-0.33
-0.325
-0.34
-0.34
-0.33
-0.335
-0.35
-0.335
-0.345
-0.355
-0.345
-0.35
-0.36
-0.355
-0.38
-0.38
-0.375
-0.365
-0.37
-0.38
-0.39
-0.385
-0.38
-0.39
-0.385
-0.395
-0.395
-0.39
-0.385
-0.39
-0.395
-0.4
-0.415
-0.415
-0.395
-0.405
-0.405
-0.41
-0.41
-0.415
-0.4
-0.405
-0.4
-0.41
-0.425
-0.41
-0.41
-0.395
-0.405
-0.41
-0.425
-0.41
-0.39
-0.38
-0.365
-0.35
-0.355
-0.34
-0.34
-0.335
-0.34
-0.335
-0.335
-0.32
-0.31
-0.32
-0.32
-0.33
-0.315
-0.315
-0.31
-0.31
-0.325
-0.34
-0.355
-0.355
-0.36
-0.355
-0.355
-0.35
-0.35
-0.365
-0.35
-0.37
-0.385
-0.4
-0.425
-0.42
-0.415
-0.425
-0.43
-0.445
-0.46
-0.46
-0.465
-0.46
-0.46
-0.475
-0.475
-0.47
-0.475
-0.465
-0.48
-0.475
-0.48
-0.47
-0.47
-0.465
-0.465
-0.475
-0.47
-0.465
-0.465
-0.46
-0.455
-0.49
-0.485
-0.47
-0.465
-0.475
-0.53
-0.59
-0.615
-0.59
-0.53
-0.46
-0.37
-0.195
0.075
0.42
0.755
1.06
1.325
1.515
1.57
1.475
1.145
0.63
0.145
-0.24
-0.495
-0.59
-0.63
-0.615
-0.57
-0.48
-0.425
-0.405
-0.42
-0.44
-0.445
-0.455
-0.46
-0.455
-0.455
-0.465
-0.485
-0.49
-0.51
-0.505
-0.495
-0.5
-0.5
-0.51
-0.53
-0.52
-0.51
-0.5
-0.49
-0.51
-0.505
-0.5
-0.49
-0.49
-0.49
-0.495
-0.515
-0.5
-0.49
-0.485
-0.49
-0.495
-0.495
-0.485
-0.475
-0.475
-0.47
-0.47
-0.485
-0.47
-0.46
-0.455
-0.445
-0.455
-0.455
-0.445
-0.43
-0.415
-0.405
-0.4
-0.4
-0.375
-0.36
-0.345
-0.335
-0.325
-0.315
-0.295
-0.29
-0.25
-0.24
-0.23
-0.23
-0.205
-0.18
-0.16
-0.145
-0.135
-0.13
-0.12
-0.105
-0.085
-0.085
-0.07
-0.06
-0.045
-0.035
-0.025
-0.025
-0.015
-0.025
-0.03
-0.02
-0.02
-0.03
-0.06
-0.085
-0.09
-0.095
-0.11
-0.14
-0.16
-0.185
-0.19
-0.21
-0.225
-0.25
-0.27
-0.285
-0.3
-0.3
-0.305
-0.31
-0.325
-0.35
-0.35
-0.335
-0.33
-0.34
-0.355
-0.375
-0.36
-0.345
-0.34
-0.345
-0.355
-0.38
-0.375
-0.355
-0.355
-0.37
-0.38
-0.375
-0.37
-0.355
-0.365
-0.35
-0.36
-0.355
-0.35
-0.33
-0.33
-0.325
-0.335
-0.335
-0.335
-0.33
-0.32
-0.32
-0.335
-0.33
-0.325
-0.31
-0.3
-0.3
-0.31
-0.315
-0.315
-0.3
-0.285
-0.3
-0.305
-0.32
-0.315
-0.295
-0.3
-0.3
-0.305
-0.325
-0.33
-0.315
-0.305
-0.305
-0.32
-0.34
-0.33
-0.325
-0.325
-0.32
-0.335
-0.34
-0.335
-0.335
-0.34
-0.345
-0.36
-0.375
-0.36
-0.355
-0.355
-0.355
-0.365
-0.38
-0.375
-0.375
-0.365
-0.37
-0.37
-0.38
-0.375
-0.38
-0.375
-0.37
-0.385
-0.395
-0.38
-0.375
-0.375
-0.38
-0.385
-0.405
-0.395
-0.39
-0.39
-0.4
-0.41
-0.405
-0.405
-0.39
-0.385
-0.39
-0.395
-0.385
-0.365
-0.345
-0.325
-0.325
-0.315
-0.325
-0.325
-0.31
-0.29
-0.3
-0.31
-0.31
-0.295
-0.285
-0.28
-0.275
-0.29
-0.285
-0.28
-0.295
-0.28
-0.295
-0.315
-0.33
-0.33
-0.325
-0.32
-0.31
-0.305
-0.31
-0.32
-0.325
-0.33
-0.345
-0.37
-0.39
-0.39
-0.385
-0.385
-0.395
-0.42
-0.43
-0.42
-0.415
-0.425
-0.435
-0.43
-0.445
-0.44
-0.44
-0.435
-0.425
-0.44
-0.455
-0.45
-0.425
-0.42
-0.43
-0.445
-0.455
-0.455
-0.435
-0.43
-0.445
-0.43
-0.445
-0.435
-0.435
-0.455
-0.505
-0.575
-0.61
-0.595
-0.535
-0.465
-0.36
-0.155
0.165
0.575
0.965
1.31
1.585
1.745
1.77
1.63
1.29
0.755
0.195
-0.23
-0.495
-0.585
-0.575
-0.55
-0.465
-0.38
-0.35
-0.36
-0.37
-0.385
-0.39
-0.4
-0.405
-0.42
-0.41
-0.43
-0.455
-0.47
-0.485
-0.475
-0.475
-0.475
-0.465
-0.48
-0.475
-0.465
-0.465
-0.46
-0.465
-0.48
-0.475
-0.465
-0.465
-0.46
-0.47
-0.47
-0.48
-0.47
-0.455
-0.46
-0.455
-0.465
-0.475
-0.46
-0.445
-0.44
-0.435
-0.445
-0.44
-0.425
-0.43
-0.41
-0.39
-0.41
-0.41
-0.405
-0.385
-0.365
-0.365
-0.36
-0.355
-0.33
-0.31
-0.29
-0.28
-0.275
-0.25
-0.235
-0.205
-0.18
-0.17
-0.16
-0.145
-0.13
-0.105
-0.085
-0.07
-0.065
-0.065
-0.04
-0.025
0.005
0.01
0.005
0.01
0.025
0.035
0.055
0.065
0.065
0.05
0.045
0.055
0.045
0.05
0.025
-0.005
-0.01
-0.025
-0.03
-0.055
-0.08
-0.115
-0.115
-0.13
-0.155
-0.175
-0.2
-0.23
-0.23
-0.245
-0.265
-0.26
-0.28
-0.3
-0.305
-0.305
-0.3
-0.315
-0.325
-0.335
-0.33
-0.315
-0.325
-0.33
-0.345
-0.34
-0.335
-0.32
-0.32
-0.325
-0.335
-0.335
-0.315
-0.305
-0.3
-0.315
-0.315
-0.325
-0.315
-0.305
-0.3
-0.3
-0.295
-0.305
-0.295
-0.29
-0.275
-0.285
-0.295
-0.3
-0.285
-0.275
-0.265
-0.275
-0.285
-0.285
-0.28
-0.265
-0.265
-0.27
-0.265
-0.28
-0.275
-0.265
-0.27
-0.27
-0.28
-0.3
-0.295
-0.265
-0.265
-0.27
-0.285
-0.295
-0.285
-0.28
-0.275
-0.28
-0.31
-0.305
-0.285
-0.29
-0.28
-0.29
-0.315
-0.315
-0.325
-0.3
-0.305
-0.31
-0.315
-0.32
-0.325
-0.325
-0.315
-0.34
-0.34
-0.345
-0.345
-0.335
-0.33
-0.325
-0.34
-0.355
-0.355
-0.355
-0.345
-0.345
-0.355
-0.36
-0.355
-0.36
-0.345
-0.35
-0.365
-0.375
-0.355
-0.345
-0.355
-0.355
-0.34
-0.335
-0.325
-0.31
-0.295
-0.285
-0.275
-0.29
-0.27
-0.275
-0.26
-0.26
-0.255
-0.265
-0.245
-0.24
-0.24
-0.24
-0.24
-0.235
-0.23
-0.24
-0.25
-0.255
-0.27
-0.3
-0.3
-0.295
-0.29
-0.285
-0.28
-0.28
-0.285
-0.295
-0.295
-0.315
-0.33
-0.35
-0.35
-0.35
-0.355
-0.37
-0.38
-0.4
-0.4
-0.4
-0.395
-0.41
-0.415
-0.42
-0.42
-0.415
-0.405
-0.415
-0.415
-0.42
-0.415
-0.41
-0.41
-0.41
-0.42
-0.415
-0.405
-0.395
-0.395
-0.405
-0.415
-0.44
-0.495
-0.56
-0.585
-0.555
-0.495
-0.435
-0.325
-0.075
0.265
0.65
1.005
1.355
1.655
1.82
1.845
1.665
1.26
0.66
0.095
-0.305
-0.485
-0.525
-0.535
-0.51
-0.435
-0.335
-0.31
-0.325
-0.365
-0.385
-0.385
-0.37
-0.37
-0.38
-0.395
-0.425
-0.43
-0.43
-0.43
-0.44
-0.455
-0.465
-0.45
-0.445
-0.435
-0.445
-0.435
-0.45
-0.46
-0.44
-0.445
-0.44
-0.45
-0.45
-0.44
-0.435
-0.435
-0.435
-0.435
-0.435
-0.43
-0.425
-0.415
-0.41
-0.42
-0.425
-0.415
-0.4
-0.41
-0.4
-0.4
-0.41
-0.385
-0.38
-0.36
-0.37
-0.37
-0.36
-0.34
-0.32
-0.31
-0.3
-0.29
-0.29
-0.27
-0.25
-0.225
-0.215
-0.205
-0.195
-0.165
-0.14
-0.115
-0.095
-0.12
-0.11
-0.085
-0.06
-0.04
-0.025
-0.025
-0.005
0.01
0.04
0.04
0.055
0.06
0.065
0.08
0.1
0.11
0.105
0.085
0.08
0.095
0.08
0.08
0.065
0.045
0.025
0.03
0.01
-0.005
-0.02
-0.06
-0.085
-0.1
-0.13
-0.13
-0.145
-0.185
-0.195
-0.21
-0.225
-0.23
-0.24
-0.26
-0.28
-0.285
-0.275
-0.265
-0.29
-0.29
-0.3
-0.3
-0.295
-0.305
-0.3
-0.31
-0.315
-0.32
-0.305
-0.295
-0.31
-0.3
-0.315
-0.305
-0.305
-0.295
-0.295
-0.295
-0.305
-0.295
-0.285
-0.29
-0.28
-0.29
-0.285
-0.29
-0.265
-0.26
-0.275
-0.275
-0.28
-0.27
-0.25
-0.245
-0.25
-0.255
-0.255
-0.265
-0.255
-0.245
-0.25
-0.26
-0.265
-0.275
-0.245
-0.25
-0.26
-0.275
-0.27
-0.265
-0.275
-0.255
-0.27
-0.275
-0.28
-0.27
-0.255
-0.27
-0.28
-0.285
-0.295
-0.295
-0.29
-0.29
-0.3
-0.315
-0.31
-0.31
-0.31
-0.3
-0.32
-0.32
-0.325
-0.325
-0.325
-0.325
-0.335
-0.33
-0.345
-0.33
-0.335
-0.33
-0.33
-0.34
-0.355
-0.35
-0.34
-0.345
-0.37
-0.36
-0.36
-0.355
-0.355
-0.35
-0.37
-0.375
-0.385
-0.37
-0.34
-0.35
-0.36
-0.355
-0.36
-0.36
-0.35
-0.335
-0.33
-0.32
-0.325
-0.305
-0.285
-0.275
-0.285
-0.3
-0.295
-0.295
-0.27
-0.26
-0.26
-0.265
-0.265
-0.255
-0.245
-0.25
-0.26
-0.285
-0.305
-0.305
-0.315
-0.315
-0.315
-0.305
-0.3
-0.295
-0.305
-0.325
-0.34
-0.36
-0.365
-0.37
-0.37
-0.385
-0.385
-0.405
-0.415
-0.425
-0.415
-0.42
-0.415
-0.42
-0.425
-0.425
-0.42
-0.43
-0.43
-0.425
-0.435
-0.43
-0.425
-0.43
-0.425
-0.43
-0.435
-0.43
-0.425
-0.43
-0.455
-0.515
-0.58
-0.585
-0.55
-0.475
-0.375
-0.225
0.06
0.425
0.8
1.125
1.43
1.64
1.72
1.66
1.39
0.89
0.325
-0.16
-0.445
-0.57
-0.585
-0.55
-0.49
-0.4
-0.36
-0.35
-0.385
-0.39
-0.4
-0.42
-0.42
-0.435
-0.42
-0.435
-0.45
-0.475
-0.48
-0.465
-0.475
-0.455
-0.47
-0.475
-0.475
-0.48
-0.47
-0.47
-0.47
-0.475
-0.48
-0.48
-0.46
-0.46
-0.46
-0.465
-0.47
-0.47
-0.45
-0.455
-0.45
-0.455
-0.455
-0.45
-0.435
-0.445
-0.445
-0.455
-0.45
-0.435
-0.42
-0.41
-0.415
-0.425
-0.425
-0.415
-0.405
-0.385
-0.38
-0.37
-0.37
-0.35
-0.325
-0.32
-0.31
-0.305
-0.29
-0.275
-0.245
-0.23
-0.215
-0.215
-0.205
-0.18
-0.17
-0.13
-0.12
-0.115
-0.085
-0.08
-0.055
-0.05
-0.045
-0.05
-0.04
-0.02
-0.005
0.02
0.015
0.015
0.02
0.03
0.035
0.03
0.025
0.01
-0.005
-0.02
-0.02
-0.025
-0.045
-0.07
-0.095
-0.1
-0.12
-0.14
-0.16
-0.19
-0.205
-0.215
-0.22
-0.235
-0.25
-0.265
-0.28
-0.285
-0.275
-0.285
-0.295
-0.31
-0.315
-0.315
-0.31
-0.305
-0.31
-0.315
-0.335
-0.32
-0.32
-0.31
-0.32
-0.32
-0.335
-0.32
-0.325
-0.305
-0.3
-0.31
-0.315
-0.31
-0.295
-0.295
-0.305
-0.305
-0.305
-0.29
-0.275
-0.28
-0.29
-0.295
-0.295
-0.275
-0.275
-0.27
-0.275
-0.28
-0.29
-0.27
-0.265
-0.25
-0.275
-0.265
-0.265
-0.27
-0.27
-0.25
-0.255
-0.285
-0.285
-0.29
-0.27
-0.27
-0.275
-0.285
-0.29
-0.295
-0.275
-0.28
-0.285
-0.31
-0.32
-0.31
-0.295
-0.305
-0.3
-0.305
-0.33
-0.32
-0.325
-0.32
-0.335
-0.33
-0.34
-0.345
-0.335
-0.33
-0.355
-0.36
-0.36
-0.355
-0.335
-0.34
-0.34
-0.365
-0.375
-0.375
-0.36
-0.37
-0.365
-0.375
-0.37
-0.37
-0.36
-0.36
-0.37
-0.365
-0.385
-0.375
-0.365
-0.36
-0.365
-0.37
-0.38
-0.37
-0.36
-0.365
-0.375
-0.365
-0.38
-0.35
-0.325
-0.315
-0.31
-0.305
-0.305
-0.29
-0.285
-0.285
-0.285
-0.285
-0.28
-0.265
-0.265
-0.26
-0.275
-0.265
-0.275
-0.28
-0.275
-0.285
-0.315
-0.33
-0.35
-0.325
-0.305
-0.28
-0.295
-0.315
-0.33
-0.345
-0.35
-0.36
-0.375
-0.39
-0.415
-0.405
-0.395
-0.41
-0.415
-0.42
-0.435
-0.435
-0.425
-0.405
-0.415
-0.425
-0.44
-0.42
-0.425
-0.43
-0.44
-0.435
-0.455
-0.44
-0.425
-0.415
-0.415
-0.42
-0.43
-0.425
-0.42
-0.41
-0.425
-0.445
-0.5
-0.545
-0.555
-0.505
-0.44
-0.36
-0.21
0.075
0.415
0.77
1.08
1.34
1.52
1.605
1.57
1.345
0.91
0.425
-0.01
-0.325
-0.53
-0.6
-0.59
-0.505
-0.42
-0.355
-0.355
-0.38
-0.39
-0.4
-0.41
-0.385
-0.395
-0.415
-0.425
-0.44
-0.445
-0.45
-0.445
-0.44
-0.46
-0.455
-0.47
-0.45
-0.455
-0.445
-0.45
-0.46
-0.47
-0.475
-0.47
-0.455
-0.445
-0.455
-0.465
-0.46
-0.455
-0.445
-0.455
-0.45
-0.46
-0.46
-0.44
-0.43
-0.425
-0.425
-0.43
-0.425
-0.435
-0.42
-0.4
-0.395
-0.405
-0.4
-0.385
-0.38
-0.375
-0.375
-0.37
-0.36
-0.33
-0.315
-0.305
-0.295
-0.31
-0.285
-0.25
-0.24
-0.215
-0.215
-0.205
-0.185
-0.16
-0.135
-0.13
-0.11
-0.115
-0.1
-0.07
-0.06
-0.035
-0.035
-0.03
-0.025
-0.005
0.0
0.02
