Lead II
-0.935
-0.925
-0.925
-0.945
-0.945
-0.96
-0.95
-0.975
-0.94
-0.945
-0.935
-0.91
-0.91
-0.905
-0.93
-0.935
-0.95
-0.945
-0.95
-0.955
-0.935
-0.925
-0.94
-0.935
-0.92
-0.925
-0.93
-0.94
-0.96
-0.96
-0.98
-0.975
-0.955
-0.955
-0.945
-0.935
-0.945
-0.94
-0.95
-0.95
-0.985
-0.99
-0.99
-1.0
-0.985
-0.965
-0.955
-0.94
-0.97
-0.975
-0.97
-0.99
-0.985
-0.975
-0.99
-0.99
-0.98
-0.985
-0.975
-0.995
-0.98
-0.965
-0.98
-0.985
-0.985
-1.005
-1.0
-1.0
-1.0
-0.995
-0.98
-0.965
-0.97
-0.98
-0.985
-0.99
-0.98
-0.995
-1.02
-1.005
-0.995
-0.99
-1.0
-0.985
-0.98
-0.97
-0.97
-0.975
-0.98
-0.985
-0.995
-0.995
-0.985
-0.99
-0.975
-0.97
-0.96
-0.965
-0.975
-0.99
-0.99
-0.985
-0.99
-0.995
-0.995
-0.99
-0.97
-0.97
-0.96
-0.96
-0.97
-0.99
-0.99
-0.99
-0.985
-0.995
-1.0
-0.99
-0.98
-0.99
-0.98
-0.97
-0.98
-0.99
-1.0
-1.005
-1.01
-0.995
-1.0
-0.99
-0.98
-0.985
-0.96
-0.975
-0.985
-0.985
-0.99
-0.995
-0.995
-1.005
-0.995
-0.995
-0.99
-0.97
-0.965
-0.975
-0.985
-0.985
-0.99
-1.005
-1.02
-0.995
-1.005
-1.005
-0.99
-0.975
-0.97
-0.97
-0.985
-0.985
-0.99
-0.995
-0.99
-1.0
-0.985
-0.99
-1.0
-0.98
-0.965
-0.955
-0.97
-0.98
-0.98
-0.99
-0.995
-0.99
-0.99
-0.98
-0.985
-0.97
-0.955
-0.97
-0.96
-0.98
-0.99
-0.985
-0.97
-0.97
-0.95
-0.915
-0.925
-0.905
-0.895
-0.885
-0.895
-0.89
-0.89
-0.885
-0.875
-0.86
-0.84
-0.83
-0.815
-0.815
-0.81
-0.82
-0.835
-0.855
-0.87
-0.88
-0.88
-0.885
-0.89
-0.9
-0.9
-0.905
-0.915
-0.92
-0.92
-0.935
-0.945
-0.97
-0.985
-0.975
-0.98
-0.98
-0.98
-0.99
-0.99
-0.98
-0.975
-0.985
-1.005
-1.01
-1.0
-1.01
-1.005
-1.0
-1.0
-0.99
-0.99
-0.985
-0.97
-0.98
-0.98
-0.99
-0.99
-0.995
-0.98
-0.955
-0.94
-0.89
-0.805
-0.72
-0.595
-0.49
-0.365
-0.245
-0.155
-0.095
-0.09
-0.155
-0.305
-0.505
-0.74
-0.995
-1.235
-1.39
-1.46
-1.41
-1.325
-1.23
-1.14
-1.09
-1.055
-1.01
-0.975
-0.96
-0.95
-0.95
-0.955
-0.955
-0.965
-0.965
-0.96
-0.945
-0.94
-0.935
-0.915
-0.895
-0.93
-0.93
-0.92
-0.935
-0.935
-0.935
-0.93
-0.92
-0.91
-0.895
-0.89
-0.885
-0.875
-0.9
-0.89
-0.895
-0.9
-0.905
-0.895
-0.895
-0.885
-0.875
-0.89
-0.885
-0.86
-0.86
-0.86
-0.875
-0.875
-0.88
-0.875
-0.87
-0.85
-0.845
-0.84
-0.85
-0.835
-0.835
-0.845
-0.86
-0.855
-0.83
-0.805
-0.795
-0.785
-0.765
-0.755
-0.76
-0.75
-0.75
-0.76
-0.745
-0.745
-0.74
-0.72
-0.715
-0.685
-0.66
-0.665
-0.64
-0.63
-0.625
-0.62
-0.615
-0.61
-0.595
-0.6
-0.55
-0.54
-0.515
-0.5
-0.49
-0.47
-0.47
-0.465
-0.475
-0.455
-0.45
-0.445
-0.435
-0.425
-0.395
-0.39
-0.395
-0.39
-0.405
-0.405
-0.42
-0.44
-0.45
-0.445
-0.465
-0.475
-0.49
-0.485
-0.525
-0.565
-0.61
-0.635
-0.67
-0.71
-0.735
-0.745
-0.75
-0.76
-0.78
-0.79
-0.81
-0.83
-0.855
-0.87
-0.88
-0.925
-0.935
-0.925
-0.92
-0.935
-0.93
-0.92
-0.945
-0.945
-0.95
-0.96
-0.98
-0.97
-0.985
-0.975
-0.97
-0.96
-0.955
-0.95
-0.935
-0.95
-0.955
-0.96
-0.97
-0.96
-0.955
-0.965
-0.95
-0.95
-0.94
-0.94
-0.94
-0.93
-0.935
-0.96
-0.955
-0.965
-0.96
-0.955
-0.94
-0.945
-0.93
-0.93
-0.93
-0.94
-0.955
-0.945
-0.94
-0.965
-0.97
-0.96
-0.93
-0.95
-0.94
-0.945
-0.94
-0.945
-0.95
-0.96
-0.98
-0.97
-0.975
-0.98
-0.975
-0.96
-0.955
-0.965
-0.955
-0.975
-0.975
-0.98
-0.995
-0.995
-1.0
-0.99
-0.99
-0.97
-0.975
-0.96
-0.965
-0.97
-0.98
-0.98
-1.01
-1.01
-1.01
-1.005
-0.995
-0.98
-0.97
-0.975
-0.985
-0.995
-0.99
-1.01
-1.01
-1.015
-1.025
-1.03
-1.015
-1.0
-0.995
-0.99
-0.995
-1.005
-1.0
-1.0
-1.015
-1.015
-1.02
-1.01
-1.0
-1.01
-0.995
-0.98
-0.99
-0.985
-1.0
-1.005
-1.01
-1.025
-1.015
-1.01
-0.99
-0.985
-0.99
-0.985
-0.99
-0.995
-1.0
-1.005
-1.01
-1.025
-1.015
-1.0
-0.99
-0.975
-0.985
-0.965
-0.97
-0.965
-0.985
-0.995
-1.005
-1.025
-1.02
-1.025
-1.01
-0.985
-0.975
-0.97
-0.975
-0.965
-0.975
-0.995
-1.0
-1.005
-0.995
-0.995
-0.98
-0.98
-0.975
-0.975
-0.975
-0.98
-0.975
-0.99
-1.0
-0.995
-1.0
-0.995
-0.99
-0.98
-0.97
-0.955
-0.96
-0.95
-0.96
-0.97
-0.98
-0.985
-1.0
-0.99
-0.98
-0.975
-0.96
-0.96
-0.95
-0.965
-0.965
-0.96
-0.975
-0.975
-0.99
-0.995
-0.97
-0.95
-0.955
-0.945
-0.935
-0.955
-0.955
-0.955
-0.97
-0.975
-0.97
-0.96
-0.96
-0.935
-0.93
-0.915
-0.9
-0.895
-0.91
-0.9
-0.915
-0.915
-0.895
-0.895
-0.86
-0.835
-0.81
-0.79
-0.785
-0.78
-0.8
-0.825
-0.84
-0.855
-0.87
-0.875
-0.86
-0.86
-0.86
-0.885
-0.895
-0.905
-0.925
-0.945
-0.96
-0.97
-0.975
-0.94
-0.945
-0.945
-0.95
-0.95
-0.95
-0.96
-0.98
-0.97
-0.98
-1.005
-0.995
-0.98
-0.965
-0.96
-0.955
-0.945
-0.965
-0.955
-0.975
-0.975
-0.975
-0.985
-0.98
-0.955
-0.97
-0.95
-0.895
-0.845
-0.765
-0.685
-0.59
-0.485
-0.39
-0.315
-0.28
-0.315
-0.405
-0.545
-0.725
-0.925
-1.14
-1.34
-1.475
-1.535
-1.515
-1.44
-1.345
-1.265
-1.19
-1.155
-1.1
-1.045
-0.995
-0.955
-0.925
-0.915
-0.92
-0.915
-0.925
-0.91
-0.92
-0.905
-0.905
-0.89
-0.89
-0.88
-0.875
-0.87
-0.885
-0.875
-0.885
-0.875
-0.86
-0.85
-0.84
-0.845
-0.83
-0.835
-0.845
-0.835
-0.845
-0.855
-0.85
-0.86
-0.83
-0.83
-0.82
-0.81
-0.8
-0.805
-0.815
-0.82
-0.825
-0.835
-0.82
-0.82
-0.795
-0.79
-0.785
-0.765
-0.745
-0.75
-0.755
-0.755
-0.755
-0.755
-0.755
-0.74
-0.72
-0.72
-0.69
-0.685
-0.675
-0.67
-0.665
-0.67
-0.665
-0.655
-0.65
-0.625
-0.615
-0.575
-0.545
-0.52
-0.51
-0.505
-0.49
-0.48
-0.465
-0.455
-0.445
-0.435
-0.405
-0.4
-0.36
-0.355
-0.345
-0.34
-0.33
-0.345
-0.35
-0.34
-0.34
-0.33
-0.335
-0.315
-0.32
-0.335
-0.345
-0.365
-0.375
-0.39
-0.425
-0.455
-0.48
-0.5
-0.515
-0.53
-0.535
-0.56
-0.59
-0.61
-0.64
-0.675
-0.7
-0.725
-0.745
-0.76
-0.785
-0.785
-0.775
-0.79
-0.8
-0.805
-0.82
-0.85
-0.855
-0.865
-0.865
-0.87
-0.86
-0.855
-0.835
-0.835
-0.85
-0.855
-0.865
-0.87
-0.87
-0.875
-0.88
-0.88
-0.87
-0.865
-0.87
-0.84
-0.84
-0.855
-0.865
-0.885
-0.885
-0.905
-0.88
-0.885
-0.885
-0.885
-0.865
-0.85
-0.85
-0.845
-0.855
-0.865
-0.865
-0.87
-0.87
-0.87
-0.86
-0.84
-0.845
-0.845
-0.855
-0.855
-0.87
-0.88
-0.905
-0.91
-0.895
-0.9
-0.885
-0.87
-0.87
-0.86
-0.87
-0.88
-0.895
-0.89
-0.925
-0.92
-0.925
-0.93
-0.915
-0.91
-0.89
-0.88
-0.87
-0.9
-0.91
-0.91
-0.915
-0.94
-0.94
-0.905
-0.915
-0.9
-0.89
-0.89
-0.895
-0.895
-0.905
-0.91
-0.925
-0.935
-0.935
-0.925
-0.925
-0.91
-0.9
-0.91
-0.91
-0.92
-0.915
-0.925
-0.925
-0.94
-0.935
-0.945
-0.935
-0.92
-0.9
-0.89
-0.89
-0.895
-0.905
-0.905
-0.915
-0.93
-0.925
-0.92
-0.925
-0.915
-0.91
-0.905
-0.895
-0.895
-0.915
-0.905
-0.92
-0.935
-0.93
-0.955
-0.935
-0.91
-0.9
-0.9
-0.915
-0.91
-0.9
-0.905
-0.91
-0.935
-0.915
-0.92
-0.9
-0.91
-0.9
-0.9
-0.895
-0.91
-0.915
-0.925
-0.925
-0.935
-0.93
-0.935
-0.915
-0.9
-0.89
-0.885
-0.89
-0.885
-0.89
-0.9
-0.915
-0.92
-0.925
-0.93
-0.91
-0.9
-0.92
-0.895
-0.905
-0.895
-0.91
-0.9
-0.915
-0.93
-0.92
-0.915
-0.925
-0.92
-0.905
-0.905
-0.91
-0.915
-0.905
-0.91
-0.92
-0.925
-0.93
-0.935
-0.915
-0.905
-0.9
-0.89
-0.9
-0.9
-0.9
-0.91
-0.93
-0.95
-0.925
-0.92
-0.915
-0.9
-0.88
-0.86
-0.875
-0.885
-0.85
-0.845
-0.87
-0.875
-0.87
-0.855
-0.845
-0.815
-0.8
-0.77
-0.755
-0.745
-0.76
-0.765
-0.77
-0.775
-0.785
-0.795
-0.805
-0.805
-0.805
-0.79
-0.795
-0.805
-0.825
-0.845
-0.87
-0.895
-0.9
-0.91
-0.9
-0.9
-0.895
-0.89
-0.895
-0.91
-0.905
-0.925
-0.93
-0.945
-0.955
-0.95
-0.95
-0.935
-0.92
-0.915
-0.92
-0.91
-0.92
-0.92
-0.94
-0.94
-0.955
-0.94
-0.925
-0.92
-0.915
-0.92
-0.9
-0.915
-0.9
-0.86
-0.81
-0.73
-0.605
-0.49
-0.355
-0.205
-0.075
0.025
0.045
-0.005
-0.13
-0.32
-0.53
-0.765
-1.02
-1.235
-1.37
-1.415
-1.355
-1.275
-1.175
-1.11
-1.05
-1.01
-0.99
-0.94
-0.94
-0.905
-0.885
-0.875
-0.87
-0.85
-0.86
-0.87
-0.86
-0.88
-0.89
-0.885
-0.875
-0.865
-0.86
-0.86
-0.835
-0.835
-0.835
-0.83
-0.825
-0.85
-0.86
-0.855
-0.85
-0.825
-0.835
-0.82
-0.8
-0.79
-0.795
-0.8
-0.81
-0.81
-0.825
-0.83
-0.82
-0.805
-0.79
-0.795
-0.765
-0.78
-0.77
-0.765
-0.76
-0.76
-0.765
-0.775
-0.765
-0.76
-0.745
-0.735
-0.73
-0.715
-0.71
-0.715
-0.705
-0.705
-0.72
-0.72
-0.705
-0.695
-0.685
-0.66
-0.645
-0.625
-0.615
-0.6
-0.605
-0.595
-0.595
-0.58
-0.575
-0.565
-0.545
-0.515
-0.5
-0.48
-0.465
-0.45
-0.42
-0.435
-0.425
-0.42
-0.415
-0.4
-0.405
-0.385
-0.355
-0.35
-0.33
-0.33
-0.325
-0.33
-0.34
-0.33
-0.335
-0.335
-0.355
-0.35
-0.35
-0.37
-0.37
-0.405
-0.445
-0.45
-0.495
-0.525
-0.55
-0.59
-0.595
-0.625
-0.655
-0.665
-0.68
-0.71
-0.73
-0.765
-0.78
-0.81
-0.815
-0.84
-0.825
-0.84
-0.845
-0.85
-0.855
-0.855
-0.865
-0.875
-0.905
-0.89
-0.9
-0.9
-0.91
-0.895
-0.885
-0.88
-0.885
-0.89
-0.88
-0.9
-0.9
-0.9
-0.9
-0.915
-0.905
-0.88
-0.895
-0.875
-0.88
-0.865
-0.885
-0.88
-0.9
-0.915
-0.895
-0.9
-0.87
-0.855
-0.85
-0.845
-0.86
-0.86
-0.855
-0.855
-0.87
-0.885
-0.885
-0.9
-0.895
-0.885
-0.865
-0.87
-0.86
-0.865
-0.86
-0.88
-0.88
-0.885
-0.915
-0.9
-0.905
-0.905
-0.89
-0.88
-0.895
-0.89
-0.895
-0.91
-0.925
-0.925
-0.92
-0.92
-0.915
-0.915
-0.905
-0.9
-0.905
-0.915
-0.915
-0.925
-0.94
-0.935
-0.945
-0.94
-0.935
-0.925
-0.92
-0.9
-0.91
-0.925
-0.92
-0.94
-0.94
-0.94
-0.945
-0.955
-0.945
-0.92
-0.93
-0.92
-0.915
-0.905
-0.915
-0.91
-0.925
-0.93
-0.945
-0.945
-0.935
-0.925
-0.92
-0.92
-0.925
-0.935
-0.915
-0.925
-0.935
-0.945
-0.95
-0.945
-0.92
-0.915
-0.935
-0.915
-0.915
-0.91
-0.92
-0.92
-0.925
-0.945
-0.945
-0.955
-0.945
-0.935
-0.91
-0.905
-0.92
-0.925
-0.925
-0.935
-0.935
-0.92
-0.945
-0.94
-0.935
-0.915
-0.91
-0.89
-0.89
-0.9
-0.905
-0.915
-0.915
-0.925
-0.935
-0.93
-0.915
-0.91
-0.9
-0.9
-0.89
-0.9
-0.925
-0.935
-0.93
-0.94
-0.96
-0.955
-0.945
-0.935
-0.93
-0.93
-0.935
-0.905
-0.905
-0.92
-0.92
-0.925
-0.93
-0.935
-0.925
-0.915
-0.91
-0.9
-0.905
-0.9
-0.935
-0.935
-0.93
-0.92
-0.945
-0.945
-0.935
-0.93
-0.915
-0.905
-0.905
-0.91
-0.93
-0.925
-0.93
-0.93
-0.935
-0.935
-0.925
-0.92
-0.92
-0.895
-0.89
-0.9
-0.9
-0.925
-0.915
-0.915
-0.935
-0.935
-0.925
-0.9
-0.89
-0.87
-0.855
-0.85
-0.865
-0.855
-0.86
-0.855
-0.87
-0.855
-0.84
-0.81
-0.78
-0.755
-0.74
-0.755
-0.76
-0.75
-0.78
-0.8
-0.82
-0.815
-0.81
-0.795
-0.805
-0.81
-0.81
-0.85
-0.86
-0.88
-0.9
-0.905
-0.925
-0.92
-0.915
-0.925
-0.925
-0.92
-0.91
-0.93
-0.93
-0.935
-0.945
-0.94
-0.945
-0.975
-0.955
-0.94
-0.935
-0.925
-0.925
-0.925
-0.915
-0.925
-0.945
-0.94
-0.94
-0.94
-0.93
-0.925
-0.915
-0.865
-0.815
-0.75
-0.655
-0.555
-0.435
-0.305
-0.215
-0.135
-0.12
-0.175
-0.305
-0.475
-0.695
-0.93
-1.16
-1.325
-1.415
-1.43
-1.345
-1.25
-1.155
-1.08
-1.025
-0.98
-0.945
-0.915
-0.9
-0.9
-0.895
-0.905
-0.91
-0.925
-0.915
-0.905
-0.9
-0.885
-0.89
-0.88
-0.875
-0.885
-0.875
-0.865
-0.88
-0.885
-0.865
-0.865
-0.845
-0.85
-0.85
-0.845
-0.84
-0.86
-0.875
-0.865
-0.865
-0.85
-0.845
-0.835
-0.835
-0.825
-0.815
-0.82
-0.825
-0.815
-0.81
-0.81
-0.815
-0.835
-0.8
-0.785
-0.775
-0.75
-0.76
-0.77
-0.77
-0.775
-0.765
-0.77
-0.77
-0.76
-0.745
-0.725
-0.72
-0.715
-0.71
-0.69
-0.675
-0.665
-0.68
-0.645
-0.64
-0.635
-0.61
-0.585
-0.555
-0.53
-0.535
-0.515
-0.51
-0.495
-0.5
-0.47
-0.465
-0.455
-0.43
-0.405
-0.385
-0.385
-0.39
-0.375
-0.37
-0.34
-0.355
-0.36
-0.355
-0.355
-0.35
-0.34
-0.335
-0.31
-0.32
-0.325
-0.35
-0.38
-0.4
-0.43
-0.46
-0.48
-0.485
-0.505
-0.525
-0.535
-0.58
-0.605
-0.64
-0.675
-0.675
-0.715
-0.75
-0.775
-0.785
-0.805
-0.805
-0.81
-0.815
-0.82
-0.825
-0.845
-0.86
-0.885
-0.87
-0.89
-0.89
-0.875
-0.865
-0.865
-0.845
-0.865
-0.86
-0.875
-0.885
-0.89
-0.915
-0.91
-0.89
-0.875
-0.86
-0.84
-0.855
-0.86
-0.88
-0.89
-0.905
-0.885
-0.875
-0.88
-0.87
-0.855
-0.855
-0.845
-0.835
-0.85
-0.85
-0.855
-0.875
-0.9
-0.9
-0.875
-0.885
-0.875
-0.86
-0.85
-0.86
-0.87
-0.86
-0.865
-0.88
-0.895
-0.885
-0.91
-0.89
-0.885
-0.9
-0.865
-0.885
-0.89
-0.9
-0.9
-0.905
-0.885
-0.91
-0.905
-0.925
-0.895
-0.9
-0.895
-0.91
-0.9
-0.91
-0.92
-0.935
-0.945
-0.955
-0.94
-0.94
-0.92
-0.905
-0.895
-0.9
-0.9
-0.91
-0.925
-0.925
-0.93
-0.95
-0.95
-0.935
-0.93
-0.93
-0.925
-0.915
-0.91
-0.92
-0.925
-0.935
-0.92
-0.95
-0.945
-0.945
-0.94
-0.93
-0.91
-0.915
-0.92
-0.925
-0.935
-0.935
-0.945
-0.95
-0.945
-0.94
-0.925
-0.915
-0.905
-0.92
-0.92
-0.925
-0.935
-0.92
-0.94
-0.945
-0.95
-0.94
-0.935
-0.935
-0.92
-0.915
-0.93
-0.935
-0.94
-0.95
-0.96
-0.96
-0.955
-0.955
-0.955
-0.93
-0.905
-0.92
-0.92
-0.925
-0.935
-0.955
-0.96
-0.965
-0.97
-0.95
-0.945
-0.925
-0.915
-0.935
-0.925
-0.925
-0.94
-0.95
-0.95
-0.965
-0.97
-0.945
-0.95
-0.935
-0.935
-0.915
-0.925
-0.94
-0.94
-0.945
-0.95
-0.96
-0.955
-0.95
-0.955
-0.935
-0.925
-0.93
-0.92
-0.93
-0.945
-0.96
-0.96
-0.96
-0.955
-0.95
-0.955
-0.945
-0.92
-0.915
-0.925
-0.945
-0.965
-0.935
-0.945
-0.95
-0.97
-0.94
-0.935
-0.93
-0.91
-0.905
-0.91
-0.89
-0.885
-0.88
-0.89
-0.89
-0.89
-0.88
-0.86
-0.845
-0.82
-0.8
-0.8
-0.8
-0.79
-0.795
-0.82
-0.84
-0.84
-0.84
-0.84
-0.84
-0.845
-0.85
-0.855
-0.885
-0.915
-0.935
-0.95
-0.955
-0.965
-0.95
-0.94
-0.945
-0.92
-0.945
-0.94
-0.96
-0.955
-0.98
-0.99
-1.0
-0.995
-1.0
-0.98
-0.975
-0.955
-0.95
-0.955
-0.98
-0.98
-0.985
-0.985
-0.995
-1.0
-0.975
-0.975
-0.96
-0.945
-0.935
-0.91
-0.86
-0.785
-0.695
-0.585
-0.47
-0.355
-0.255
-0.19
-0.2
-0.275
-0.43
-0.625
-0.865
-1.11
-1.335
-1.495
-1.565
-1.535
-1.44
-1.32
-1.215
-1.145
-1.085
-1.045
-0.995
-0.985
-0.98
-0.95
-0.96
-0.955
-0.955
-0.955
-0.94
-0.92
-0.915
-0.915
-0.925
-0.93
-0.935
-0.94
-0.945
-0.94
-0.935
-0.925
-0.905
-0.905
-0.895
-0.895
-0.89
-0.895
-0.92
-0.94
-0.93
-0.9
-0.92
-0.9
-0.875
-0.855
-0.86
-0.855
-0.86
-0.87
-0.86
-0.855
-0.87
-0.87
-0.86
-0.845
-0.84
-0.815
-0.82
-0.81
-0.82
-0.83
-0.84
-0.84
-0.82
-0.82
-0.8
-0.78
-0.79
-0.76
-0.74
-0.74
-0.735
-0.74
-0.73
-0.73
-0.715
-0.69
-0.685
-0.67
-0.655
-0.635
-0.61
-0.6
-0.58
-0.575
-0.565
-0.565
-0.56
-0.535
-0.52
-0.505
-0.505
-0.47
-0.465
-0.465
-0.435
-0.435
-0.465
-0.435
-0.44
-0.445
-0.44
-0.435
-0.405
-0.41
-0.405
-0.4
-0.42
-0.44
-0.46
-0.5
-0.51
-0.545
-0.55
-0.565
-0.59
-0.61
-0.64
-0.67
-0.68
-0.725
-0.745
-0.785
-0.805
-0.84
-0.825
-0.84
-0.855
-0.845
-0.87
-0.875
-0.9
-0.91
-0.92
-0.94
-0.95
-0.96
-0.96
-0.945
-0.95
-0.94
-0.95
-0.95
-0.95
-0.97
-0.98
-0.995
-0.99
-0.985
-0.98
-0.99
-0.975
-0.975
-0.955
-0.97
-0.97
-0.97
-0.965
-0.965
-0.985
-0.99
-1.01
-0.97
-0.97
-0.955
-0.945
-0.94
-0.95
-0.96
-0.97
-0.965
-0.965
-0.97
-0.97
-0.965
-0.955
-0.97
-0.94
-0.96
-0.955
-0.965
-0.955
-0.985
-0.98
-0.985
-0.97
-0.96
-0.965
-0.98
-0.965
-0.97
-0.975
-0.985
-0.99
-1.0
-1.015
-1.025
-1.01
-1.005
-1.005
-1.0
-1.0
-1.005
-1.025
-1.02
-1.035
-1.04
-1.045
-1.05
-1.045
-1.025
-1.02
-1.015
-1.0
-1.01
-1.01
-1.025
-1.025
-1.045
-1.05
-1.045
-1.04
-1.03
-1.035
-1.02
-1.03
-1.025
-1.025
-1.04
-1.045
-1.065
-1.06
-1.065
-1.05
-1.05
-1.045
-1.025
-1.02
-1.025
-1.03
-1.035
-1.045
-1.045
-1.045
-1.055
-1.035
-1.035
-1.02
-1.025
-1.01
-1.03
-1.03
-1.035
-1.03
-1.055
-1.055
-1.05
-1.04
-1.035
-1.035
-1.03
-1.03
-1.02
-1.04
-1.03
-1.045
-1.055
-1.055
-1.055
-1.06
-1.045
-1.05
-1.04
-1.04
-1.03
-1.05
-1.05
-1.045
-1.05
-1.05
-1.05
-1.04
-1.04
-1.04
-1.055
-1.03
-1.035
-1.03
-1.045
-1.05
-1.065
-1.06
-1.08
-1.08
-1.065
-1.07
-1.055
-1.045
-1.045
-1.04
-1.055
-1.065
-1.06
-1.07
-1.075
-1.065
-1.05
-1.035
-1.03
-1.04
-1.045
-1.065
-1.06
-1.04
-1.06
-1.065
-1.055
-1.045
-1.045
-1.055
-1.045
-1.045
-1.055
-1.055
-1.05
-1.045
-1.06
-1.065
-1.06
-1.065
-1.065
-1.06
-1.045
-1.025
-1.04
-1.03
-1.045
-1.035
-1.055
-1.06
-1.085
-1.08
-1.06
-1.04
-1.035
-1.02
-1.025
-1.025
-1.03
-1.03
-1.04
-1.025
-1.01
-0.995
-0.985
-0.965
-0.945
-0.94
-0.925
-0.935
-0.925
-0.915
-0.91
-0.905
-0.89
-0.89
-0.895
-0.9
-0.925
-0.9
-0.915
-0.93
-0.94
-0.955
-0.98
-0.995
-1.005
-1.02
-1.02
-1.01
-1.02
-1.015
-1.015
-1.02
-1.05
-1.065
-1.085
-1.07
-1.085
-1.09
-1.08
-1.075
-1.07
-1.06
-1.05
-1.055
-1.055
-1.07
-1.085
-1.075
-1.075
-1.09
-1.07
-1.05
-1.04
-1.025
-1.015
-1.02
-1.01
-1.005
-0.97
-0.89
-0.79
-0.67
-0.525
-0.395
-0.235
-0.14
-0.095
-0.105
-0.185
-0.33
-0.535
-0.77
-1.015
-1.265
-1.42
-1.505
-1.52
-1.44
-1.33
-1.25
-1.195
-1.15
-1.12
-1.1
-1.045
-1.035
-1.0
-0.995
-0.995
-0.99
-1.015
-1.02
-1.025
-1.04
-1.025
-1.05
-1.015
-1.01
-1.0
-0.995
-0.98
-0.97
-0.975
-0.965
-0.99
-0.98
-1.0
-0.99
-0.985
-0.985
-0.97
-0.955
-0.945
-0.935
-0.945
-0.94
-0.94
-0.945
-0.96
-0.955
-0.945
-0.945
-0.96
-0.935
-0.925
-0.915
-0.91
-0.91
-0.925
-0.91
-0.915
-0.905
-0.91
-0.905
-0.88
-0.865
-0.865
-0.84
-0.835
-0.845
-0.835
-0.835
-0.825
-0.825
-0.82
-0.81
-0.805
-0.785
-0.77
-0.75
-0.715
-0.7
-0.69
-0.685
-0.685
-0.68
-0.65
-0.64
-0.61
-0.595
-0.575
-0.565
-0.55
-0.55
-0.545
-0.54
-0.545
-0.53
-0.525
-0.51
-0.505
-0.5
-0.48
-0.47
-0.47
-0.485
-0.48
-0.485
-0.51
-0.535
-0.545
-0.54
-0.555
-0.57
-0.58
-0.605
-0.635
-0.66
-0.68
-0.73
-0.745
-0.775
-0.815
-0.835
-0.84
-0.855
-0.855
-0.875
-0.9
-0.915
-0.945
-0.975
-0.99
-1.01
-1.025
-1.0
-1.01
-1.01
-1.0
-0.995
-1.0
-1.015
-1.02
-1.015
-1.03
-1.04
-1.035
-1.035
-1.04
-1.03
-1.01
-1.005
-1.005
-1.005
-1.015
-1.035
-1.035
-1.04
-1.03
-1.03
-1.015
-1.005
-0.995
-0.985
-1.0
-1.0
-1.01
-1.015
-1.025
-1.02
-1.015
-1.015
-1.01
-1.01
-1.005
-0.985
-1.0
-1.01
-1.015
-1.02
-1.025
-1.025
-1.03
-1.025
-1.02
-1.005
-1.0
-1.015
-1.04
-1.04
-1.05
-1.035
-1.05
-1.065
-1.06
-1.055
-1.055
-1.035
-1.025
-1.01
-1.03
-1.045
-1.04
-1.06
-1.065
-1.075
-1.08
-1.08
-1.075
-1.06
-1.05
-1.05
-1.05
-1.06
-1.06
-1.08
-1.065
-1.095
-1.085
-1.085
-1.07
-1.08
-1.085
-1.07
-1.065
-1.07
-1.07
-1.075
-1.08
-1.08
-1.085
-1.09
-1.08
-1.075
-1.05
-1.04
-1.055
-1.055
-1.06
-1.07
-1.07
-1.08
-1.085
-1.095
-1.085
-1.075
-1.06
-1.055
-1.06
-1.07
-1.09
-1.08
-1.095
-1.1
-1.1
-1.095
-1.08
-1.06
-1.055
-1.035
-1.045
-1.055
-1.055
-1.075
-1.08
-1.095
-1.1
-1.095
-1.08
-1.07
-1.055
-1.05
-1.05
-1.055
-1.05
-1.065
-1.07
-1.08
-1.085
-1.085
-1.075
-1.065
-1.055
-1.04
-1.055
-1.05
-1.05
-1.06
-1.07
-1.075
-1.09
-1.065
-1.07
-1.055
-1.05
-1.035
-1.04
-1.045
-1.075
-1.055
-1.065
-1.09
-1.08
-1.06
-1.07
-1.045
-1.045
-1.04
-1.04
-1.025
-1.05
-1.055
-1.06
-1.065
-1.07
-1.065
-1.065
-1.06
-1.035
-1.045
-1.05
-1.04
-1.055
-1.045
-1.07
-1.06
-1.05
-1.055
-1.05
-1.045
-1.035
-1.03
-1.035
-1.035
-1.05
-1.045
-1.05
-1.04
-1.05
-1.015
-0.99
-0.975
-0.97
-0.96
-0.955
-0.96
-0.97
-0.97
-0.955
-0.94
-0.94
-0.92
-0.915
-0.875
-0.875
-0.865
-0.875
-0.89
-0.9
-0.905
-0.915
-0.925
-0.945
-0.955
-0.96
-0.985
-1.0
-1.0
-0.995
-1.0
-1.01
-1.025
-1.045
-1.04
-1.04
-1.045
-1.04
-1.055
-1.04
-1.025
-1.05
-1.05
-1.055
-1.075
-1.095
-1.08
-1.08
-1.065
-1.075
-1.065
-1.04
-1.04
-1.05
-1.045
-1.05
-1.065
-1.07
-1.075
-1.065
-1.06
-1.02
-0.965
-0.88
-0.785
-0.695
-0.58
-0.475
-0.39
-0.355
-0.375
-0.46
-0.62
-0.785
-1.005
-1.21
-1.425
-1.58
-1.665
-1.665
-1.585
-1.495
-1.395
-1.33
-1.285
-1.235
-1.185
-1.125
-1.08
-1.04
-1.005
-1.0
-1.01
-1.02
-1.03
-1.03
-1.025
-1.01
-1.0
-0.98
-0.965
-0.955
-0.965
-0.97
-0.965
-0.97
-0.975
-0.985
-0.98
-0.975
-0.975
-0.945
-0.93
-0.935
-0.95
-0.95
-0.96
-0.95
-0.95
-0.955
-0.94
-0.935
-0.93
-0.91
-0.9
-0.905
-0.88
-0.885
-0.9
-0.915
-0.915
-0.915
-0.915
-0.895
-0.885
-0.855
-0.86
-0.85
-0.84
-0.835
-0.84
-0.84
-0.835
-0.835
-0.83
-0.805
-0.795
-0.78
-0.78
-0.75
-0.75
-0.75
-0.74
-0.735
-0.725
-0.7
-0.695
-0.67
-0.65
-0.625
-0.605
-0.595
-0.595
-0.575
-0.56
-0.56
-0.56
-0.545
-0.535
-0.51
-0.495
-0.48
-0.47
-0.46
-0.45
-0.45
-0.44
-0.46
-0.46
-0.465
-0.45
-0.45
-0.45
-0.42
-0.425
-0.42
-0.435
-0.455
-0.475
-0.51
-0.53
-0.565
-0.565
-0.6
-0.605
-0.625
-0.64
-0.665
-0.695
-0.72
-0.775
-0.79
-0.83
-0.84
-0.86
-0.88
-0.88
-0.89
-0.895
-0.9
-0.91
-0.93
-0.945
-0.955
-0.97
-0.995
-0.995
-0.985
-0.985
-0.975
-0.97
-0.985
-0.96
-0.97
-0.985
-0.99
-0.995
-1.005
-1.005
-1.0
-1.005
-0.995
-0.97
-0.975
-0.97
-0.99
-0.99
-0.985
-1.015
-1.02
-1.0
-0.99
-0.99
-0.985
-0.975
-0.965
-0.96
-0.965
-0.97
-0.975
-1.005
-1.005
-1.0
-0.99
-0.965
-0.97
-0.96
-0.96
-0.97
-0.98
-0.98
-0.99
-1.0
-1.005
-0.995
-0.985
-0.98
-0.975
-0.975
-0.98
-0.965
-0.98
-0.99
-1.005
-1.0
-1.01
-1.005
-1.015
-1.0
-0.995
-0.985
-0.995
-1.005
-1.015
-1.025
-1.035
-1.045
-1.05
-1.075
-1.04
-1.04
-1.035
-1.025
-1.03
-1.025
-1.03
-1.04
-1.075
-1.075
-1.06
-1.045
-1.05
-1.045
-1.03
-1.04
-1.035
-1.04
-1.035
-1.055
-1.06
-1.065
-1.075
-1.065
-1.05
-1.05
-1.035
-1.04
-1.05
-1.045
-1.04
-1.055
-1.07
-1.07
-1.07
-1.075
-1.065
-1.055
-1.045
-1.045
-1.03
-1.035
-1.05
-1.055
-1.065
-1.07
-1.09
-1.055
-1.045
-1.04
-1.04
-1.04
-1.045
-1.025
-1.045
-1.05
-1.045
-1.055
-1.07
-1.055
-1.055
-1.05
-1.035
-1.025
-1.02
-1.035
-1.03
-1.045
-1.075
-1.055
-1.07
-1.065
-1.06
-1.05
-1.05
-1.045
-1.04
-1.025
-1.035
-1.035
-1.045
-1.07
-1.06
-1.06
-1.05
-1.045
-1.05
-1.03
-1.035
-1.05
-1.05
-1.05
-1.065
-1.085
-1.08
-1.075
-1.055
-1.03
-1.03
-1.035
-1.05
-1.04
-1.035
-1.04
-1.045
-1.045
-1.07
-1.065
-1.045
-1.04
-1.03
-1.015
-1.025
-1.025
-1.03
-1.03
-1.055
-1.055
-1.06
-1.06
-1.04
-1.05
-1.03
-1.03
-1.025
-1.02
-1.025
-1.02
-1.035
-1.045
-1.04
-1.03
-1.03
-1.01
-0.99
-0.975
-0.97
-0.945
-0.955
-0.96
-0.965
-0.965
-0.975
-0.95
-0.945
-0.925
-0.895
-0.875
-0.87
-0.86
-0.875
-0.9
-0.925
-0.925
-0.94
-0.935
-0.93
-0.925
-0.95
-0.93
-0.95
-0.955
-0.98
-1.005
-1.015
-1.025
-1.06
-1.075
-1.055
-1.05
-1.035
-1.035
-1.045
-1.06
-1.08
-1.09
-1.085
-1.105
-1.115
-1.09
-1.085
-1.085
-1.055
-1.07
-1.075
-1.075
-1.075
-1.06
-1.095
-1.095
-1.09
-1.07
-1.075
-1.055
-1.05
-1.05
-1.02
-0.995
-0.93
-0.85
-0.725
-0.59
-0.47
-0.31
-0.19
-0.11
-0.08
-0.18
-0.335
-0.56
-0.835
-1.11
-1.39
-1.55
-1.585
-1.54
-1.435
-1.32
-1.235
-1.155
-1.135
-1.095
-1.08
-1.06
-1.055
-1.05
-1.06
-1.055
-1.05
-1.04
-1.03
-1.03
-1.035
-1.03
-1.02
-1.025
-1.055
-1.05
-1.055
-1.04
-1.045
-1.01
-1.005
-1.0
-0.995
-1.01
-1.01
-1.0
-1.01
-1.01
-1.03
-1.02
-1.0
-0.98
-0.96
-0.95
-0.975
-0.955
-0.975
-0.965
-0.975
-0.975
-0.985
-0.975
-0.975
-0.95
-0.95
-0.935
-0.935
-0.93
-0.93
-0.915
-0.935
-0.915
-0.92
-0.92
-0.905
-0.89
-0.875
-0.87
-0.855
-0.84
-0.84
-0.83
-0.82
-0.835
-0.835
-0.815
-0.8
-0.785
-0.765
-0.745
-0.735
-0.735
-0.735
-0.73
-0.725
-0.705
-0.69
-0.665
-0.66
-0.625
-0.605
-0.59
-0.575
-0.56
-0.56
-0.54
-0.545
-0.545
-0.55
-0.535
-0.52
-0.51
-0.49
-0.475
-0.485
-0.47
-0.48
-0.48
-0.51
-0.53
-0.535
-0.545
-0.565
-0.575
-0.595
-0.605
-0.63
-0.655
-0.685
-0.715
-0.76
-0.79
-0.815
-0.86
-0.875
-0.905
-0.915
-0.915
-0.945
-0.955
-0.975
-0.995
-1.02
-1.025
-1.035
-1.04
-1.05
-1.04
-1.04
-1.04
-1.06
-1.05
-1.065
-1.07
-1.085
-1.085
-1.1
-1.095
-1.11
-1.09
-1.08
-1.07
-1.085
-1.075
-1.06
-1.065
-1.07
-1.065
-1.085
-1.07
-1.06
-1.055
-1.06
-1.03
-1.05
-1.045
-1.05
-1.05
-1.06
-1.06
-1.085
-1.08
-1.065
-1.07
-1.055
-1.05
-1.035
-1.035
-1.05
-1.05
-1.055
-1.055
-1.065
-1.065
-1.06
-1.04
-1.045
-1.045
-1.065
-1.04
-1.065
-1.095
-1.11
-1.105
-1.11
-1.1
-1.085
-1.09
-1.075
-1.07
-1.085
-1.09
-1.09
-1.095
-1.11
-1.115
-1.125
-1.12
-1.12
-1.1
-1.1
-1.09
-1.11
-1.11
-1.115
-1.105
-1.13
-1.12
-1.125
-1.125
-1.1
-1.095
-1.095
-1.1
-1.09
-1.1
-1.105
-1.115
-1.115
-1.135
-1.13
-1.115
-1.105
-1.1
-1.085
-1.085
-1.09
-1.085
-1.095
-1.11
-1.11
-1.11
-1.12
-1.115
-1.12
-1.105
-1.105
-1.095
-1.085
-1.105
-1.13
-1.115
-1.135
-1.145
-1.145
-1.14
-1.13
-1.115
-1.12
-1.1
-1.095
-1.12
-1.12
-1.13
-1.13
-1.11
-1.135
-1.135
-1.13
-1.12
-1.11
-1.085
-1.095
-1.09
-1.105
-1.12
-1.125
-1.14
-1.13
-1.13
-1.105
-1.115
-1.12
-1.09
-1.1
-1.11
-1.115
-1.125
-1.155
-1.145
-1.15
-1.145
-1.135
-1.125
-1.11
-1.09
-1.11
-1.125
-1.11
-1.105
-1.12
-1.12
-1.13
-1.11
-1.11
-1.095
-1.09
-1.085
-1.09
-1.1
-1.1
-1.11
-1.11
-1.115
-1.115
-1.135
-1.135
-1.105
-1.095
-1.095
-1.095
-1.105
-1.105
-1.11
-1.105
-1.13
-1.125
-1.12
-1.105
-1.08
-1.08
-1.065
-1.07
-1.065
-1.085
-1.095
-1.09
-1.11
-1.125
-1.12
-1.105
-1.095
-1.08
-1.07
-1.07
-1.075
-1.085
-1.085
-1.085
-1.07
-1.065
-1.045
-1.035
-1.025
-1.01
-0.98
-0.985
-0.985
-0.97
-0.965
-0.965
-0.945
-0.95
-0.96
-0.955
-0.96
-0.97
-0.97
-0.96
-0.965
-0.99
-1.0
-1.04
-1.045
-1.065
-1.08
-1.08
-1.075
-1.07
-1.055
-1.06
-1.075
-1.065
-1.07
-1.095
-1.095
-1.115
-1.135
-1.135
-1.12
-1.115
-1.115
-1.115
-1.11
-1.1
-1.12
-1.125
-1.14
-1.13
-1.14
-1.14
-1.125
