Lead II
-0.4
-0.41
-0.405
-0.395
-0.395
-0.39
-0.395
-0.41
-0.405
-0.385
-0.385
-0.38
-0.38
-0.36
-0.365
-0.35
-0.32
-0.33
-0.33
-0.325
-0.315
-0.31
-0.305
-0.295
-0.295
-0.3
-0.295
-0.29
-0.285
-0.275
-0.29
-0.305
-0.305
-0.31
-0.32
-0.335
-0.345
-0.345
-0.335
-0.33
-0.32
-0.315
-0.34
-0.35
-0.36
-0.38
-0.39
-0.4
-0.42
-0.425
-0.42
-0.415
-0.42
-0.42
-0.435
-0.445
-0.45
-0.445
-0.435
-0.44
-0.435
-0.445
-0.445
-0.425
-0.43
-0.42
-0.435
-0.45
-0.445
-0.445
-0.43
-0.44
-0.485
-0.535
-0.585
-0.575
-0.52
-0.47
-0.39
-0.24
0.045
0.41
0.785
1.13
1.425
1.605
1.645
1.49
1.095
0.515
-0.06
-0.47
-0.68
-0.715
-0.68
-0.615
-0.51
-0.435
-0.4
-0.405
-0.415
-0.425
-0.435
-0.43
-0.425
-0.435
-0.44
-0.455
-0.45
-0.46
-0.465
-0.465
-0.455
-0.465
-0.465
-0.48
-0.475
-0.48
-0.475
-0.465
-0.47
-0.485
-0.48
-0.47
-0.46
-0.455
-0.45
-0.48
-0.475
-0.465
-0.445
-0.455
-0.465
-0.465
-0.47
-0.45
-0.45
-0.44
-0.44
-0.445
-0.435
-0.42
-0.425
-0.41
-0.415
-0.435
-0.42
-0.39
-0.375
-0.36
-0.37
-0.37
-0.355
-0.345
-0.32
-0.31
-0.295
-0.295
-0.27
-0.24
-0.225
-0.21
-0.195
-0.19
-0.165
-0.135
-0.115
-0.1
-0.08
-0.08
-0.06
-0.04
-0.01
-0.005
-0.005
0.005
0.025
0.045
0.055
0.06
0.055
0.055
0.065
0.08
0.085
0.065
0.045
0.025
0.02
0.01
0.01
-0.01
-0.045
-0.07
-0.09
-0.11
-0.115
-0.15
-0.18
-0.21
-0.23
-0.25
-0.255
-0.27
-0.29
-0.315
-0.325
-0.335
-0.33
-0.345
-0.35
-0.355
-0.37
-0.365
-0.36
-0.36
-0.38
-0.39
-0.39
-0.375
-0.375
-0.365
-0.38
-0.385
-0.385
-0.38
-0.37
-0.37
-0.39
-0.4
-0.39
-0.375
-0.365
-0.365
-0.355
-0.375
-0.36
-0.345
-0.35
-0.34
-0.355
-0.355
-0.36
-0.345
-0.335
-0.34
-0.335
-0.35
-0.35
-0.335
-0.335
-0.34
-0.35
-0.35
-0.355
-0.335
-0.335
-0.35
-0.355
-0.37
-0.36
-0.35
-0.345
-0.35
-0.36
-0.355
-0.37
-0.355
-0.365
-0.365
-0.37
-0.4
-0.4
-0.385
-0.39
-0.41
-0.42
-0.415
-0.4
-0.4
-0.395
-0.405
-0.435
-0.45
-0.43
-0.415
-0.415
-0.41
-0.42
-0.445
-0.445
-0.445
-0.43
-0.425
-0.44
-0.45
-0.44
-0.445
-0.43
-0.435
-0.45
-0.465
-0.445
-0.45
-0.445
-0.44
-0.455
-0.46
-0.46
-0.445
-0.44
-0.445
-0.475
-0.465
-0.47
-0.47
-0.455
-0.455
-0.46
-0.475
-0.465
-0.455
-0.435
-0.42
-0.42
-0.42
-0.395
-0.385
-0.37
-0.37
-0.375
-0.38
-0.36
-0.355
-0.34
-0.34
-0.36
-0.36
-0.35
-0.345
-0.35
-0.355
-0.385
-0.395
-0.415
-0.415
-0.425
-0.42
-0.435
-0.47
-0.5
-0.52
-0.525
-0.525
-0.555
-0.57
-0.58
-0.57
-0.57
-0.585
-0.6
-0.62
-0.625
-0.615
-0.605
-0.605
-0.62
-0.645
-0.63
-0.62
-0.615
-0.62
-0.625
-0.635
-0.63
-0.625
-0.61
-0.62
-0.635
-0.66
-0.69
-0.73
-0.765
-0.745
-0.7
-0.63
-0.49
-0.235
0.16
0.575
0.935
1.235
1.465
1.52
1.385
0.935
0.295
-0.345
-0.775
-0.91
-0.885
-0.82
-0.735
-0.64
-0.58
-0.575
-0.575
-0.605
-0.61
-0.615
-0.6
-0.59
-0.58
-0.6
-0.595
-0.605
-0.605
-0.62
-0.61
-0.63
-0.625
-0.625
-0.625
-0.62
-0.595
-0.6
-0.615
-0.635
-0.625
-0.62
-0.59
-0.605
-0.61
-0.625
-0.615
-0.62
-0.605
-0.615
-0.595
-0.615
-0.61
-0.59
-0.58
-0.575
-0.58
-0.58
-0.575
-0.56
-0.545
-0.545
-0.53
-0.54
-0.53
-0.495
-0.49
-0.48
-0.485
-0.47
-0.455
-0.435
-0.42
-0.41
-0.4
-0.405
-0.365
-0.335
-0.305
-0.285
-0.275
-0.27
-0.245
-0.2
-0.19
-0.17
-0.16
-0.15
-0.14
-0.105
-0.1
-0.08
-0.06
-0.055
-0.04
-0.015
0.005
0.02
0.025
0.035
0.055
0.07
0.065
0.06
0.045
0.025
0.02
0.015
-0.005
-0.03
-0.065
-0.115
-0.13
-0.135
-0.155
-0.18
-0.21
-0.25
-0.275
-0.285
-0.285
-0.29
-0.315
-0.34
-0.355
-0.355
-0.37
-0.385
-0.415
-0.425
-0.435
-0.43
-0.425
-0.435
-0.44
-0.445
-0.445
-0.44
-0.44
-0.435
-0.44
-0.445
-0.425
-0.41
-0.4
-0.415
-0.425
-0.445
-0.43
-0.415
-0.4
-0.395
-0.405
-0.415
-0.41
-0.395
-0.385
-0.38
-0.38
-0.385
-0.38
-0.38
-0.37
-0.365
-0.38
-0.38
-0.37
-0.37
-0.345
-0.35
-0.365
-0.375
-0.37
-0.37
-0.355
-0.36
-0.38
-0.375
-0.38
-0.37
-0.36
-0.365
-0.375
-0.38
-0.37
-0.36
-0.36
-0.365
-0.38
-0.39
-0.385
-0.375
-0.38
-0.38
-0.39
-0.4
-0.405
-0.395
-0.39
-0.385
-0.395
-0.41
-0.4
-0.39
-0.395
-0.39
-0.4
-0.415
-0.41
-0.395
-0.4
-0.395
-0.405
-0.42
-0.42
-0.405
-0.4
-0.41
-0.41
-0.41
-0.42
-0.4
-0.4
-0.4
-0.405
-0.435
-0.41
-0.42
-0.405
-0.4
-0.41
-0.42
-0.41
-0.39
-0.39
-0.38
-0.37
-0.375
-0.36
-0.335
-0.315
-0.315
-0.315
-0.33
-0.31
-0.305
-0.275
-0.28
-0.275
-0.28
-0.28
-0.265
-0.265
-0.27
-0.285
-0.305
-0.31
-0.315
-0.33
-0.33
-0.315
-0.31
-0.305
-0.315
-0.325
-0.335
-0.35
-0.37
-0.375
-0.37
-0.37
-0.38
-0.39
-0.395
-0.42
-0.42
-0.41
-0.41
-0.415
-0.425
-0.42
-0.425
-0.41
-0.415
-0.415
-0.42
-0.41
-0.405
-0.4
-0.4
-0.415
-0.42
-0.425
-0.43
-0.445
-0.495
-0.555
-0.565
-0.505
-0.425
-0.335
-0.13
0.18
0.55
0.925
1.27
1.53
1.67
1.66
1.45
0.995
0.42
-0.11
-0.48
-0.64
-0.66
-0.605
-0.535
-0.435
-0.355
-0.325
-0.345
-0.355
-0.37
-0.36
-0.355
-0.36
-0.375
-0.37
-0.365
-0.37
-0.365
-0.375
-0.375
-0.38
-0.375
-0.365
-0.355
-0.34
-0.36
-0.355
-0.345
-0.335
-0.34
-0.35
-0.365
-0.36
-0.35
-0.34
-0.345
-0.35
-0.355
-0.335
-0.325
-0.315
-0.31
-0.31
-0.32
-0.305
-0.28
-0.29
-0.29
-0.31
-0.3
-0.29
-0.27
-0.255
-0.25
-0.26
-0.265
-0.245
-0.235
-0.21
-0.205
-0.205
-0.205
-0.185
-0.15
-0.145
-0.135
-0.125
-0.125
-0.085
-0.07
-0.03
-0.015
-0.01
-0.015
0.005
0.02
0.065
0.075
0.075
0.075
0.105
0.125
0.14
0.155
0.155
0.15
0.165
0.19
0.21
0.2
0.205
0.205
0.21
0.22
0.215
0.205
0.19
0.15
0.15
0.15
0.14
0.095
0.075
0.045
0.025
0.01
0.005
-0.02
-0.045
-0.08
-0.095
-0.11
-0.115
-0.125
-0.135
-0.155
-0.16
-0.165
-0.165
-0.175
-0.185
-0.205
-0.2
-0.2
-0.19
-0.205
-0.21
-0.215
-0.215
-0.2
-0.2
-0.19
-0.19
-0.2
-0.19
-0.185
-0.18
-0.2
-0.205
-0.215
-0.19
-0.175
-0.175
-0.17
-0.17
-0.19
-0.18
-0.17
-0.155
-0.175
-0.185
-0.185
-0.165
-0.135
-0.135
-0.15
-0.145
-0.165
-0.16
-0.15
-0.14
-0.14
-0.15
-0.165
-0.155
-0.155
-0.15
-0.15
-0.165
-0.165
-0.17
-0.165
-0.16
-0.16
-0.17
-0.18
-0.175
-0.16
-0.16
-0.175
-0.185
-0.19
-0.185
-0.18
-0.175
-0.195
-0.195
-0.205
-0.195
-0.185
-0.2
-0.2
-0.205
-0.22
-0.215
-0.22
-0.205
-0.22
-0.225
-0.255
-0.235
-0.24
-0.23
-0.235
-0.25
-0.26
-0.25
-0.25
-0.245
-0.25
-0.255
-0.265
-0.255
-0.245
-0.25
-0.25
-0.26
-0.275
-0.26
-0.25
-0.25
-0.26
-0.26
-0.275
-0.29
-0.265
-0.27
-0.275
-0.265
-0.265
-0.265
-0.265
-0.265
-0.265
-0.26
-0.27
-0.25
-0.23
-0.205
-0.2
-0.2
-0.195
-0.2
-0.2
-0.195
-0.185
-0.19
-0.18
-0.175
-0.175
-0.18
-0.175
-0.18
-0.185
-0.18
-0.18
-0.18
-0.195
-0.22
-0.25
-0.245
-0.245
-0.225
-0.225
-0.225
-0.225
-0.235
-0.23
-0.25
-0.255
-0.285
-0.3
-0.305
-0.29
-0.285
-0.31
-0.32
-0.34
-0.335
-0.34
-0.335
-0.345
-0.36
-0.37
-0.375
-0.35
-0.345
-0.345
-0.365
-0.375
-0.37
-0.355
-0.35
-0.36
-0.37
-0.36
-0.36
-0.355
-0.355
-0.355
-0.37
-0.4
-0.415
-0.45
-0.47
-0.44
-0.41
-0.365
-0.275
-0.115
0.155
0.435
0.71
0.95
1.2
1.395
1.525
1.535
1.415
1.095
0.67
0.225
-0.13
-0.4
-0.56
-0.615
-0.6
-0.545
-0.44
-0.365
-0.335
-0.35
-0.365
-0.38
-0.375
-0.375
-0.365
-0.385
-0.385
-0.39
-0.39
-0.39
-0.39
-0.405
-0.41
-0.405
-0.405
-0.4
-0.415
-0.42
-0.425
-0.415
-0.395
-0.41
-0.415
-0.425
-0.43
-0.41
-0.405
-0.415
-0.415
-0.425
-0.42
-0.405
-0.41
-0.41
-0.425
-0.415
-0.405
-0.4
-0.395
-0.395
-0.4
-0.415
-0.4
-0.395
-0.385
-0.385
-0.38
-0.38
-0.36
-0.36
-0.35
-0.345
-0.35
-0.355
-0.325
-0.305
-0.29
-0.29
-0.28
-0.285
-0.27
-0.235
-0.21
-0.19
-0.185
-0.195
-0.175
-0.135
-0.115
-0.105
-0.095
-0.085
-0.065
-0.045
-0.025
-0.025
-0.03
-0.025
0.01
0.02
0.03
0.045
0.04
0.04
0.04
0.045
0.055
0.04
0.035
0.005
-0.02
-0.03
-0.045
-0.075
-0.095
-0.12
-0.14
-0.155
-0.18
-0.205
-0.23
-0.25
-0.26
-0.265
-0.28
-0.285
-0.295
-0.32
-0.33
-0.32
-0.32
-0.325
-0.33
-0.35
-0.36
-0.35
-0.335
-0.35
-0.365
-0.37
-0.365
-0.365
-0.35
-0.36
-0.36
-0.38
-0.36
-0.355
-0.36
-0.365
-0.36
-0.38
-0.37
-0.36
-0.35
-0.35
-0.35
-0.36
-0.36
-0.345
-0.33
-0.325
-0.34
-0.34
-0.35
-0.335
-0.33
-0.315
-0.33
-0.335
-0.335
-0.325
-0.325
-0.32
-0.325
-0.33
-0.335
-0.325
-0.315
-0.33
-0.325
-0.34
-0.34
-0.335
-0.325
-0.325
-0.34
-0.355
-0.355
-0.35
-0.345
-0.35
-0.345
-0.36
-0.36
-0.36
-0.365
-0.36
-0.365
-0.39
-0.38
-0.37
-0.365
-0.375
-0.39
-0.39
-0.395
-0.395
-0.39
-0.39
-0.415
-0.42
-0.415
-0.4
-0.41
-0.4
-0.41
-0.43
-0.415
-0.405
-0.415
-0.425
-0.42
-0.435
-0.43
-0.435
-0.425
-0.425
-0.435
-0.44
-0.43
-0.43
-0.42
-0.43
-0.44
-0.455
-0.455
-0.435
-0.44
-0.45
-0.46
-0.46
-0.445
-0.435
-0.435
-0.445
-0.45
-0.45
-0.445
-0.415
-0.41
-0.395
-0.395
-0.385
-0.375
-0.36
-0.355
-0.365
-0.355
-0.375
-0.345
-0.345
-0.335
-0.345
-0.35
-0.36
-0.35
-0.365
-0.34
-0.355
-0.38
-0.38
-0.405
-0.395
-0.39
-0.385
-0.405
-0.39
-0.39
-0.395
-0.385
-0.405
-0.44
-0.455
-0.46
-0.465
-0.465
-0.465
-0.495
-0.515
-0.51
-0.505
-0.51
-0.515
-0.53
-0.55
-0.545
-0.52
-0.52
-0.515
-0.535
-0.535
-0.555
-0.54
-0.53
-0.53
-0.53
-0.535
-0.52
-0.525
-0.51
-0.525
-0.545
-0.565
-0.595
-0.63
-0.635
-0.615
-0.57
-0.52
-0.43
-0.285
-0.04
0.26
0.57
0.835
1.1
1.32
1.445
1.43
1.195
0.755
0.225
-0.245
-0.54
-0.715
-0.775
-0.78
-0.705
-0.605
-0.52
-0.48
-0.505
-0.505
-0.515
-0.505
-0.49
-0.49
-0.5
-0.53
-0.53
-0.535
-0.525
-0.535
-0.535
-0.54
-0.545
-0.53
-0.53
-0.53
-0.545
-0.565
-0.545
-0.535
-0.54
-0.55
-0.545
-0.555
-0.555
-0.54
-0.55
-0.54
-0.54
-0.545
-0.53
-0.52
-0.53
-0.53
-0.535
-0.545
-0.54
-0.515
-0.515
-0.51
-0.515
-0.515
-0.525
-0.5
-0.49
-0.485
-0.485
-0.495
-0.48
-0.455
-0.435
-0.44
-0.435
-0.43
-0.405
-0.4
-0.365
-0.35
-0.34
-0.345
-0.315
-0.28
-0.27
-0.245
-0.235
-0.22
-0.185
-0.165
-0.145
-0.12
-0.115
-0.095
-0.085
-0.045
-0.05
-0.04
-0.02
-0.025
0.0
0.015
0.015
0.01
0.02
0.02
0.025
0.035
0.04
0.02
0.0
-0.015
-0.025
-0.025
-0.04
-0.075
-0.11
-0.145
-0.15
-0.175
-0.2
-0.22
-0.24
-0.27
-0.285
-0.29
-0.3
-0.325
-0.355
-0.375
-0.37
-0.375
-0.375
-0.38
-0.395
-0.4
-0.395
-0.395
-0.4
-0.405
-0.415
-0.425
-0.41
-0.405
-0.4
-0.405
-0.42
-0.43
-0.42
-0.415
-0.4
-0.405
-0.41
-0.415
-0.415
-0.415
-0.39
-0.39
-0.415
-0.415
-0.41
-0.405
-0.395
-0.395
-0.4
-0.41
-0.4
-0.385
-0.365
-0.375
-0.375
-0.385
-0.38
-0.355
-0.375
-0.38
-0.405
-0.405
-0.4
-0.385
-0.38
-0.38
-0.385
-0.395
-0.39
-0.385
-0.385
-0.385
-0.38
-0.41
-0.39
-0.395
-0.385
-0.385
-0.385
-0.41
-0.405
-0.41
-0.41
-0.41
-0.4
-0.425
-0.425
-0.43
-0.425
-0.425
-0.425
-0.43
-0.42
-0.41
-0.41
-0.415
-0.43
-0.44
-0.43
-0.445
-0.445
-0.445
-0.45
-0.45
-0.455
-0.44
-0.425
-0.445
-0.445
-0.465
-0.455
-0.455
-0.45
-0.46
-0.46
-0.47
-0.465
-0.455
-0.45
-0.46
-0.47
-0.475
-0.465
-0.475
-0.46
-0.46
-0.48
-0.485
-0.48
-0.47
-0.455
-0.46
-0.47
-0.475
-0.455
-0.44
-0.425
-0.42
-0.42
-0.425
-0.425
-0.4
-0.4
-0.4
-0.425
-0.42
-0.4
-0.39
-0.38
-0.38
-0.395
-0.395
-0.395
-0.38
-0.38
-0.375
-0.385
-0.37
-0.365
-0.345
-0.355
-0.365
-0.355
-0.37
-0.35
-0.34
-0.345
-0.365
-0.39
-0.4
-0.405
-0.415
-0.41
-0.395
-0.385
-0.395
-0.385
-0.395
-0.4
-0.415
-0.425
-0.435
-0.445
-0.46
-0.45
-0.465
-0.485
-0.5
-0.49
-0.5
-0.5
-0.5
-0.51
-0.51
-0.52
-0.51
-0.52
-0.515
-0.51
-0.52
-0.515
-0.495
-0.49
-0.485
-0.5
-0.505
-0.505
-0.5
-0.495
-0.505
-0.53
-0.59
-0.635
-0.64
-0.6
-0.54
-0.47
-0.355
-0.09
0.285
0.65
0.965
1.265
1.48
1.59
1.545
1.3
0.86
0.275
-0.235
-0.595
-0.745
-0.745
-0.7
-0.63
-0.53
-0.455
-0.42
-0.425
-0.46
-0.47
-0.47
-0.47
-0.465
-0.465
-0.485
-0.49
-0.49
-0.495
-0.49
-0.495
-0.49
-0.515
-0.505
-0.505
-0.5
-0.5
-0.49
-0.485
-0.495
-0.51
-0.5
-0.485
-0.49
-0.5
-0.495
-0.5
-0.49
-0.485
-0.475
-0.485
-0.495
-0.485
-0.475
-0.46
-0.46
-0.465
-0.465
-0.46
-0.44
-0.445
-0.43
-0.44
-0.425
-0.41
-0.395
-0.38
-0.38
-0.385
-0.365
-0.35
-0.335
-0.31
-0.29
-0.27
-0.275
-0.25
-0.215
-0.185
-0.175
-0.17
-0.14
-0.105
-0.07
-0.055
-0.04
-0.02
-0.01
0.015
0.03
0.06
0.08
0.085
0.085
0.1
0.115
0.14
0.15
0.15
0.15
0.15
0.145
0.17
0.145
0.135
0.115
0.095
0.09
0.075
0.045
0.02
-0.01
-0.03
-0.05
-0.065
-0.095
-0.12
-0.155
-0.19
-0.19
-0.195
-0.2
-0.23
-0.25
-0.25
-0.26
-0.26
-0.27
-0.29
-0.3
-0.295
-0.29
-0.28
-0.285
-0.295
-0.295
-0.295
-0.29
-0.285
-0.29
-0.295
-0.3
-0.305
-0.285
-0.275
-0.28
-0.295
-0.295
-0.295
-0.275
-0.27
-0.27
-0.27
-0.285
-0.27
-0.25
-0.245
-0.245
-0.255
-0.255
-0.245
-0.24
-0.23
-0.225
-0.235
-0.25
-0.235
-0.23
-0.21
-0.21
-0.225
-0.235
-0.225
-0.22
-0.215
-0.22
-0.225
-0.24
-0.23
-0.21
-0.22
-0.225
-0.235
-0.235
-0.225
-0.21
-0.21
-0.23
-0.215
-0.24
-0.225
-0.22
-0.21
-0.225
-0.235
-0.235
-0.225
-0.215
-0.215
-0.23
-0.245
-0.24
-0.235
-0.235
-0.215
-0.235
-0.235
-0.245
-0.235
-0.225
-0.23
-0.24
-0.245
-0.25
-0.24
-0.24
-0.235
-0.24
-0.25
-0.26
-0.235
-0.245
-0.25
-0.245
-0.25
-0.265
-0.25
-0.25
-0.245
-0.25
-0.26
-0.265
-0.255
-0.24
-0.24
-0.26
-0.265
-0.265
-0.255
-0.24
-0.24
-0.24
-0.25
-0.255
-0.25
-0.245
-0.24
-0.24
-0.235
-0.24
-0.235
-0.205
-0.18
-0.185
-0.18
-0.18
-0.165
-0.15
-0.135
-0.14
-0.15
-0.145
-0.135
-0.135
-0.125
-0.125
-0.125
-0.135
-0.13
-0.14
-0.15
-0.165
-0.185
-0.195
-0.18
-0.165
-0.155
-0.16
-0.16
-0.185
-0.19
-0.2
-0.195
-0.2
-0.225
-0.24
-0.25
-0.245
-0.25
-0.25
-0.27
-0.29
-0.285
-0.265
-0.27
-0.275
-0.285
-0.295
-0.28
-0.255
-0.265
-0.26
-0.26
-0.28
-0.275
-0.275
-0.265
-0.265
-0.275
-0.29
-0.32
-0.36
-0.39
-0.4
-0.34
-0.28
-0.165
0.07
0.41
0.81
1.18
1.485
1.735
1.82
1.735
1.39
0.81
0.2
-0.255
-0.455
-0.475
-0.42
-0.34
-0.25
-0.18
-0.16
-0.18
-0.195
-0.215
-0.215
-0.21
-0.195
-0.205
-0.215
-0.22
-0.235
-0.22
-0.21
-0.21
-0.205
-0.215
-0.225
-0.21
-0.205
-0.2
-0.21
-0.215
-0.22
-0.22
-0.21
-0.205
-0.215
-0.21
-0.205
-0.22
-0.215
-0.195
-0.195
-0.205
-0.21
-0.205
-0.195
-0.195
-0.195
-0.175
-0.19
-0.175
-0.165
-0.16
-0.16
-0.165
-0.15
-0.13
-0.12
-0.1
-0.08
-0.08
-0.08
-0.06
-0.045
-0.02
-0.005
0.015
0.015
0.04
0.06
0.09
0.1
0.115
0.125
0.15
0.165
0.19
0.21
0.205
0.21
0.25
0.275
0.27
0.285
0.29
0.29
0.285
0.31
0.295
0.29
0.27
0.26
0.24
0.245
0.22
0.2
0.175
0.14
0.115
0.095
0.08
0.055
0.015
-0.005
-0.02
-0.02
-0.035
-0.055
-0.075
-0.095
-0.11
-0.105
-0.105
-0.11
-0.12
-0.125
-0.125
-0.12
-0.13
-0.13
-0.145
-0.145
-0.135
-0.115
-0.1
-0.115
-0.12
-0.13
-0.135
-0.125
-0.12
-0.12
-0.14
-0.13
-0.115
-0.105
-0.12
-0.12
-0.135
-0.14
-0.12
-0.11
-0.1
-0.105
-0.11
-0.125
-0.12
-0.105
-0.105
-0.105
-0.115
-0.12
-0.12
-0.115
-0.1
-0.11
-0.115
-0.135
-0.12
-0.12
-0.11
-0.11
-0.125
-0.14
-0.13
-0.125
-0.13
-0.135
-0.135
-0.14
-0.145
-0.15
-0.155
-0.155
-0.15
-0.165
-0.155
-0.15
-0.15
-0.18
-0.185
-0.185
-0.185
-0.165
-0.165
-0.18
-0.195
-0.205
-0.205
-0.2
-0.205
-0.215
-0.22
-0.22
-0.215
-0.21
-0.21
-0.22
-0.23
-0.225
-0.21
-0.22
-0.235
-0.24
-0.235
-0.24
-0.235
-0.23
-0.225
-0.23
-0.245
-0.26
-0.24
-0.235
-0.24
-0.25
-0.245
-0.25
-0.24
-0.23
-0.235
-0.24
-0.25
-0.265
-0.26
-0.25
-0.245
-0.25
-0.255
-0.245
-0.225
-0.215
-0.21
-0.215
-0.205
-0.19
-0.185
-0.18
-0.19
-0.185
-0.185
-0.195
-0.165
-0.17
-0.17
-0.17
-0.17
-0.17
-0.17
-0.175
-0.18
-0.195
-0.215
-0.245
-0.235
-0.22
-0.22
-0.225
-0.215
-0.23
-0.23
-0.245
-0.26
-0.265
-0.285
-0.29
-0.305
-0.295
-0.305
-0.305
-0.325
-0.335
-0.34
-0.32
-0.325
-0.325
-0.34
-0.35
-0.345
-0.325
-0.335
-0.33
-0.345
-0.355
-0.36
-0.345
-0.34
-0.36
-0.35
-0.355
-0.36
-0.36
-0.39
-0.44
-0.465
-0.45
-0.395
-0.325
-0.22
-0.04
0.225
0.53
0.83
1.105
1.335
1.475
1.51
1.375
1.025
0.565
0.105
-0.245
-0.495
-0.61
-0.63
-0.58
-0.47
-0.37
-0.325
-0.345
-0.365
-0.37
-0.37
-0.36
-0.375
-0.385
-0.41
-0.395
-0.39
-0.39
-0.4
-0.415
-0.415
-0.4
-0.39
-0.4
-0.41
-0.42
-0.425
-0.415
-0.415
-0.41
-0.42
-0.44
-0.445
-0.42
-0.42
-0.405
-0.425
-0.425
-0.415
-0.41
-0.41
-0.415
-0.41
-0.43
-0.425
-0.4
-0.4
-0.395
-0.41
-0.415
-0.4
-0.39
-0.39
-0.385
-0.38
-0.385
-0.375
-0.345
-0.335
-0.34
-0.34
-0.345
-0.315
-0.295
-0.27
-0.26
-0.265
-0.255
-0.235
-0.215
-0.185
-0.17
-0.175
-0.155
-0.14
-0.11
-0.1
-0.08
-0.09
-0.08
-0.05
-0.03
-0.01
-0.01
-0.005
0.005
0.015
0.015
0.03
0.03
0.03
0.03
0.035
0.035
0.035
0.01
0.0
-0.025
-0.045
-0.045
-0.06
-0.075
-0.11
-0.15
-0.17
-0.185
-0.195
-0.215
-0.24
-0.255
-0.27
-0.27
-0.29
-0.29
-0.315
-0.33
-0.34
-0.34
-0.34
-0.34
-0.35
-0.365
-0.355
-0.36
-0.36
-0.37
-0.365
-0.375
-0.375
-0.375
-0.37
-0.375
-0.385
-0.39
-0.4
-0.38
-0.37
-0.36
-0.38
-0.385
-0.375
-0.385
-0.385
-0.375
-0.38
-0.39
-0.37
-0.355
-0.365
-0.35
-0.365
-0.36
-0.355
-0.345
-0.35
-0.34
-0.34
-0.345
-0.345
-0.335
-0.335
-0.34
-0.345
-0.345
-0.34
-0.335
-0.325
-0.33
-0.345
-0.35
-0.35
-0.345
-0.335
-0.325
-0.335
-0.36
-0.35
-0.345
-0.345
-0.36
-0.365
-0.38
-0.36
-0.365
-0.37
-0.38
-0.38
-0.385
-0.375
-0.38
-0.37
-0.38
-0.39
-0.39
-0.395
-0.39
-0.395
-0.405
-0.405
-0.415
-0.41
-0.4
-0.4
-0.405
-0.425
-0.425
-0.415
-0.42
-0.425
-0.42
-0.425
-0.44
-0.44
-0.425
-0.43
-0.425
-0.44
-0.445
-0.44
-0.44
-0.435
-0.43
-0.44
-0.445
-0.45
-0.445
-0.44
-0.445
-0.45
-0.455
-0.44
-0.44
-0.43
-0.44
-0.455
-0.45
-0.425
-0.425
-0.41
-0.4
-0.395
-0.375
-0.38
-0.36
-0.35
-0.36
-0.365
-0.36
-0.35
-0.34
-0.335
-0.35
-0.34
-0.345
-0.34
-0.34
-0.355
-0.36
-0.405
-0.435
-0.4
-0.375
-0.36
-0.37
-0.39
-0.41
-0.41
-0.42
-0.415
-0.435
-0.47
-0.475
-0.475
-0.475
-0.48
-0.485
-0.505
-0.515
-0.505
-0.495
-0.5
-0.505
-0.51
-0.505
-0.505
-0.5
-0.495
-0.485
-0.5
-0.505
-0.5
-0.48
-0.48
-0.495
-0.52
-0.565
-0.59
-0.61
-0.59
-0.535
-0.485
-0.37
-0.145
0.19
0.555
0.89
1.195
1.425
1.52
1.445
1.105
0.54
-0.05
-0.49
-0.715
-0.74
-0.71
-0.625
-0.53
-0.455
-0.445
-0.455
-0.47
-0.475
-0.475
-0.48
-0.48
-0.48
-0.49
-0.52
-0.525
-0.525
-0.515
-0.52
-0.515
-0.515
-0.52
-0.535
-0.515
-0.51
-0.51
-0.52
-0.535
-0.525
-0.52
-0.505
-0.505
-0.51
-0.515
-0.525
-0.515
-0.51
-0.515
-0.495
-0.495
-0.515
-0.51
-0.495
-0.5
-0.495
-0.49
-0.495
-0.485
-0.46
-0.475
-0.47
-0.485
-0.48
-0.46
-0.45
-0.43
-0.435
-0.42
-0.425
-0.405
-0.38
-0.37
-0.35
-0.345
-0.335
-0.305
-0.275
-0.24
-0.235
-0.22
-0.2
-0.17
-0.15
-0.125
-0.115
-0.095
-0.09
-0.055
-0.04
-0.015
-0.005
-0.01
0.0
0.02
0.03
0.05
0.05
0.04
0.03
0.045
0.04
0.035
0.01
-0.02
-0.055
-0.065
-0.08
-0.1
-0.13
-0.16
-0.185
-0.195
-0.22
-0.245
-0.27
-0.29
-0.32
-0.33
-0.335
-0.345
-0.38
-0.385
-0.385
-0.36
-0.345
-0.37
-0.375
-0.385
-0.4
-0.39
-0.38
-0.385
-0.39
-0.395
-0.4
-0.395
-0.38
-0.37
-0.375
-0.385
-0.385
-0.385
-0.37
-0.37
-0.37
-0.38
-0.39
-0.365
-0.36
-0.355
-0.345
-0.37
-0.365
-0.36
-0.355
-0.36
-0.34
-0.35
-0.36
-0.35
-0.335
-0.33
-0.335
-0.355
-0.34
-0.345
-0.32
-0.31
-0.32
-0.32
-0.335
-0.325
-0.33
-0.315
-0.33
-0.335
-0.34
-0.335
-0.33
-0.315
-0.33
-0.345
-0.345
-0.345
-0.33
-0.33
-0.335
-0.34
-0.36
-0.36
-0.35
-0.34
-0.36
-0.38
-0.375
-0.355
-0.345
-0.365
-0.37
-0.385
-0.385
-0.375
-0.365
-0.38
-0.4
-0.405
-0.41
-0.38
-0.36
-0.37
-0.37
-0.385
-0.385
-0.385
-0.37
-0.385
-0.39
-0.39
-0.395
-0.395
-0.385
-0.395
-0.39
-0.4
-0.405
-0.39
-0.38
-0.38
-0.385
-0.395
-0.41
-0.395
-0.39
-0.4
-0.425
-0.42
-0.41
-0.395
-0.375
-0.375
-0.38
-0.38
-0.375
-0.355
-0.33
-0.32
-0.315
-0.325
-0.335
-0.325
-0.31
-0.3
-0.29
-0.305
-0.33
-0.34
-0.335
-0.32
-0.335
-0.335
-0.345
-0.345
-0.36
-0.37
-0.39
-0.39
-0.38
-0.365
-0.355
-0.365
-0.38
-0.405
-0.42
-0.415
-0.425
-0.43
-0.445
-0.465
-0.47
-0.465
-0.47
-0.475
-0.48
-0.49
-0.495
-0.475
-0.47
-0.475
-0.495
-0.485
-0.485
-0.475
-0.465
-0.455
-0.465
-0.465
-0.47
-0.46
-0.46
-0.475
-0.515
-0.58
-0.6
-0.55
-0.48
-0.4
-0.27
-0.025
0.33
0.72
1.08
1.405
1.605
1.635
1.425
0.96
0.345
-0.22
-0.57
-0.695
-0.66
-0.59
-0.495
-0.415
-0.355
-0.365
-0.385
-0.385
-0.385
-0.36
-0.38
-0.395
-0.4
-0.4
-0.4
-0.39
-0.39
-0.405
-0.425
-0.42
-0.4
-0.4
-0.41
-0.405
-0.415
-0.41
-0.39
-0.4
-0.4
-0.42
-0.425
-0.41
-0.39
-0.39
-0.39
-0.41
-0.405
-0.385
-0.38
-0.365
-0.38
-0.375
-0.38
-0.36
-0.355
-0.335
-0.345
-0.35
-0.345
-0.325
-0.315
-0.295
-0.31
-0.31
-0.295
-0.275
-0.26
-0.25
-0.245
-0.24
-0.24
-0.195
-0.16
-0.155
-0.15
-0.14
-0.12
-0.095
-0.075
-0.055
-0.04
-0.035
-0.02
0.01
0.03
0.04
0.055
0.045
0.065
0.085
0.13
0.135
0.155
0.15
0.15
0.175
0.175
0.19
0.2
0.22
0.21
0.215
0.205
0.215
0.22
0.195
0.185
0.165
0.155
0.13
0.11
0.07
0.04
0.035
0.005
-0.005
-0.035
-0.055
-0.09
-0.095
-0.105
-0.125
-0.14
-0.155
-0.185
-0.19
-0.185
-0.185
-0.185
-0.205
-0.215
-0.21
-0.21
-0.21
-0.215
-0.215
-0.235
-0.235
-0.22
-0.22
-0.225
-0.23
-0.235
-0.23
-0.225
-0.23
-0.225
-0.23
-0.24
-0.22
-0.21
-0.22
-0.22
-0.215
-0.215
-0.215
-0.19
-0.19
-0.2
-0.2
-0.2
-0.19
-0.175
-0.165
-0.165
-0.175
-0.18
-0.19
-0.17
-0.165
-0.165
-0.18
-0.185
-0.175
-0.155
-0.15
-0.16
-0.18
-0.175
-0.17
-0.155
-0.15
-0.16
-0.18
-0.19
-0.17
-0.16
-0.17
-0.17
-0.19
-0.19
-0.185
-0.175
-0.17
-0.19
-0.195
-0.205
-0.19
-0.185
-0.19
-0.2
-0.205
-0.215
-0.215
-0.205
-0.195
-0.205
-0.215
-0.21
-0.21
-0.2
-0.2
-0.205
-0.22
-0.225
-0.215
-0.205
-0.2
-0.215
-0.23
-0.225
-0.23
-0.215
-0.215
-0.22
-0.235
-0.225
-0.225
-0.21
-0.22
-0.215
-0.235
-0.24
-0.225
-0.21
-0.22
-0.215
-0.23
-0.23
-0.24
-0.22
-0.21
-0.225
-0.23
-0.23
-0.245
-0.22
-0.22
-0.225
-0.22
-0.22
-0.205
-0.175
-0.17
-0.17
-0.16
-0.15
-0.125
-0.12
-0.125
-0.13
-0.125
-0.125
-0.13
-0.115
-0.125
-0.13
-0.12
-0.12
-0.1
-0.085
-0.095
-0.115
-0.14
-0.155
-0.16
-0.16
-0.155
-0.15
-0.13
-0.115
-0.115
-0.11
-0.12
-0.125
-0.15
-0.185
-0.18
-0.17
-0.175
-0.17
-0.185
-0.185
-0.185
-0.185
-0.205
-0.21
-0.23
-0.225
-0.215
-0.2
-0.215
-0.215
-0.23
-0.225
-0.215
-0.195
-0.195
-0.185
-0.195
-0.195
-0.19
-0.19
-0.185
-0.175
-0.19
-0.2
-0.215
-0.26
-0.295
-0.32
-0.275
-0.215
-0.155
-0.05
0.125
0.4
0.685
0.975
1.24
1.475
1.615
1.705
1.65
1.435
1.045
0.575
0.11
-0.23
-0.4
-0.445
-0.43
-0.38
-0.31
-0.23
-0.19
-0.19
-0.19
-0.205
-0.21
-0.22
-0.22
-0.215
-0.21
-0.2
-0.215
-0.22
-0.235
-0.235
-0.225
-0.22
-0.235
-0.23
-0.24
-0.245
-0.225
-0.215
-0.215
-0.22
-0.24
-0.24
-0.22
-0.22
-0.225
-0.23
-0.235
-0.235
-0.245
-0.225
-0.21
-0.22
-0.23
-0.225
-0.21
-0.2
-0.2
-0.215
-0.21
-0.22
-0.215
-0.2
-0.2
-0.185
-0.185
-0.195
-0.175
-0.17
-0.165
-0.155
-0.16
-0.16
-0.13
-0.12
-0.115
-0.105
-0.1
-0.09
-0.075
-0.045
-0.04
-0.025
-0.02
-0.01
0.02
0.03
0.06
0.065
0.085
0.095
0.115
0.145
0.155
0.165
0.165
0.175
0.195
0.22
0.23
0.23
0.23
0.24
0.255
0.265
0.275
0.27
0.26
0.24
0.235
0.25
0.245
0.215
0.195
0.185
0.16
0.155
0.135
0.125
0.095
0.065
0.04
0.035
0.005
-0.02
-0.035
-0.065
-0.075
-0.065
-0.075
-0.105
-0.115
-0.13
-0.125
-0.125
-0.14
-0.13
-0.135
-0.145
-0.16
-0.15
-0.145
-0.15
-0.165
-0.18
-0.165
-0.155
-0.15
-0.165
-0.17
-0.17
-0.165
-0.165
-0.155
-0.155
-0.17
-0.165
-0.16
-0.145
-0.15
-0.15
-0.16
-0.165
-0.15
-0.145
-0.15
-0.15
-0.165
-0.16
-0.15
-0.145
-0.14
-0.15
-0.155
-0.165
-0.16
-0.145
-0.14
-0.145
-0.16
-0.16
-0.16
-0.14
-0.14
-0.145
-0.17
-0.165
-0.15
-0.155
-0.15
-0.16
-0.175
-0.18
-0.18
-0.16
-0.17
-0.175
-0.18
-0.195
-0.185
-0.18
-0.19
-0.19
-0.21
-0.21
-0.2
-0.2
-0.205
-0.21
-0.215
-0.235
-0.22
-0.2
-0.205
-0.225
-0.245
-0.235
-0.23
-0.235
-0.235
-0.25
-0.255
-0.265
-0.255
-0.25
-0.25
-0.26
-0.265
-0.28
-0.265
-0.27
-0.265
-0.28
-0.285
-0.275
-0.265
-0.27
-0.265
-0.275
-0.27
-0.285
-0.275
-0.275
-0.27
-0.275
-0.29
-0.29
-0.285
-0.285
-0.27
-0.28
-0.285
-0.285
-0.275
-0.275
-0.275
-0.27
-0.27
-0.275
-0.255
-0.24
-0.225
-0.21
-0.205
-0.21
-0.205
-0.195
-0.2
-0.205
-0.21
-0.205
-0.185
-0.185
-0.19
-0.18
-0.2
-0.2
-0.21
-0.2
-0.195
-0.21
-0.235
-0.24
-0.235
-0.24
-0.225
-0.22
-0.23
-0.24
-0.235
-0.25
-0.25
-0.27
-0.28
-0.295
-0.295
-0.29
-0.305
-0.325
-0.32
-0.35
-0.335
-0.33
-0.33
-0.34
-0.345
-0.355
-0.345
-0.345
-0.34
-0.345
-0.36
-0.365
-0.35
-0.34
-0.35
-0.36
-0.36
-0.365
-0.35
-0.34
-0.335
-0.35
-0.35
-0.37
-0.375
-0.395
-0.43
-0.45
-0.425
-0.38
-0.32
-0.25
-0.105
0.1
0.345
0.6
0.845
1.085
1.275
1.36
1.35
1.21
0.89
0.5
0.12
-0.195
