Lead II
-0.155
-0.155
-0.17
-0.185
-0.18
-0.18
-0.16
-0.17
-0.185
-0.21
-0.205
-0.18
-0.175
-0.175
-0.185
-0.195
-0.23
-0.205
-0.185
-0.22
-0.215
-0.225
-0.215
-0.205
-0.185
-0.195
-0.205
-0.225
-0.22
-0.215
-0.19
-0.19
-0.205
-0.215
-0.205
-0.175
-0.125
-0.105
-0.075
-0.05
0.025
0.15
0.28
0.425
0.555
0.72
0.9
1.075
1.23
1.37
1.46
1.485
1.42
1.28
1.07
0.81
0.545
0.35
0.21
0.1
0.015
-0.035
-0.05
-0.045
-0.06
-0.065
-0.09
-0.115
-0.14
-0.165
-0.18
-0.17
-0.185
-0.215
-0.225
-0.255
-0.24
-0.24
-0.25
-0.265
-0.28
-0.285
-0.295
-0.295
-0.28
-0.295
-0.315
-0.325
-0.315
-0.305
-0.285
-0.295
-0.3
-0.295
-0.305
-0.29
-0.28
-0.265
-0.26
-0.245
-0.23
-0.205
-0.195
-0.19
-0.205
-0.205
-0.2
-0.195
-0.17
-0.19
-0.2
-0.2
-0.175
-0.155
-0.145
-0.15
-0.165
-0.175
-0.175
-0.15
-0.135
-0.12
-0.15
-0.145
-0.16
-0.13
-0.115
-0.105
-0.115
-0.12
-0.115
-0.095
-0.09
-0.075
-0.09
-0.12
-0.11
-0.105
-0.105
-0.115
-0.115
-0.14
-0.145
-0.13
-0.13
-0.145
-0.16
-0.18
-0.185
-0.18
-0.155
-0.175
-0.18
-0.19
-0.19
-0.17
-0.17
-0.17
-0.195
-0.205
-0.195
-0.165
-0.145
-0.17
-0.175
-0.18
-0.175
-0.165
-0.155
-0.165
-0.185
-0.18
-0.15
-0.155
-0.13
-0.145
-0.16
-0.175
-0.175
-0.15
-0.155
-0.15
-0.155
-0.15
-0.14
-0.1
-0.06
-0.05
-0.01
0.035
0.16
0.325
0.495
0.65
0.78
0.915
1.065
1.24
1.34
1.385
1.325
1.175
0.98
0.735
0.495
0.245
0.07
-0.005
-0.055
-0.095
-0.1
-0.11
-0.115
-0.15
-0.175
-0.185
-0.195
-0.19
-0.21
-0.23
-0.22
-0.205
-0.225
-0.23
-0.25
-0.265
-0.255
-0.255
-0.26
-0.26
-0.27
-0.28
-0.27
-0.27
-0.26
-0.255
-0.29
-0.285
-0.275
-0.28
-0.27
-0.285
-0.275
-0.29
-0.29
-0.28
-0.27
-0.27
-0.28
-0.29
-0.295
-0.27
-0.265
-0.26
-0.255
-0.26
-0.245
-0.25
-0.225
-0.225
-0.24
-0.22
-0.215
-0.205
-0.185
-0.18
-0.175
-0.185
-0.17
-0.145
-0.125
-0.095
-0.11
-0.1
-0.085
-0.055
-0.03
-0.02
-0.035
-0.045
-0.05
-0.03
-0.02
-0.02
-0.05
-0.07
-0.07
-0.07
-0.06
-0.085
-0.125
-0.14
-0.145
-0.125
-0.12
-0.13
-0.145
-0.165
-0.17
-0.185
-0.195
-0.175
-0.195
-0.22
-0.22
-0.2
-0.18
-0.19
-0.21
-0.21
-0.2
-0.22
-0.19
-0.195
-0.205
-0.195
-0.185
-0.17
-0.15
-0.16
-0.165
-0.18
-0.175
-0.175
-0.17
-0.175
-0.18
-0.19
-0.19
-0.185
-0.17
-0.185
-0.205
-0.21
-0.2
-0.185
-0.18
-0.205
-0.2
-0.21
-0.195
-0.175
-0.155
-0.16
-0.16
-0.16
-0.165
-0.175
-0.145
-0.145
-0.165
-0.175
-0.18
-0.15
-0.135
-0.15
-0.17
-0.155
-0.15
-0.11
-0.08
-0.06
-0.035
0.045
0.155
0.295
0.44
0.58
0.725
0.885
1.03
1.175
1.31
1.385
1.35
1.2
0.975
0.73
0.465
0.23
0.06
-0.065
-0.13
-0.16
-0.12
-0.09
-0.125
-0.16
-0.185
-0.185
-0.19
-0.21
-0.23
-0.23
-0.24
-0.25
-0.235
-0.245
-0.265
-0.29
-0.28
-0.255
-0.23
-0.235
-0.245
-0.25
-0.25
-0.245
-0.265
-0.26
-0.285
-0.295
-0.285
-0.265
-0.255
-0.27
-0.285
-0.285
-0.275
-0.275
-0.25
-0.26
-0.265
-0.28
-0.27
-0.235
-0.225
-0.22
-0.24
-0.24
-0.24
-0.23
-0.185
-0.19
-0.205
-0.2
-0.19
-0.17
-0.165
-0.17
-0.17
-0.16
-0.165
-0.14
-0.12
-0.12
-0.12
-0.125
-0.115
-0.11
-0.105
-0.11
-0.1
-0.11
-0.11
-0.11
-0.095
-0.105
-0.12
-0.14
-0.15
-0.15
-0.145
-0.17
-0.185
-0.205
-0.195
-0.185
-0.185
-0.195
-0.22
-0.23
-0.225
-0.23
-0.22
-0.215
-0.24
-0.245
-0.235
-0.225
-0.22
-0.215
-0.235
-0.255
-0.235
-0.21
-0.205
-0.2
-0.215
-0.22
-0.235
-0.205
-0.2
-0.2
-0.21
-0.205
-0.2
-0.18
-0.165
-0.16
-0.17
-0.19
-0.185
-0.16
-0.155
-0.155
-0.16
-0.17
-0.16
-0.14
-0.14
-0.14
-0.155
-0.17
-0.17
-0.15
-0.16
-0.16
-0.15
-0.165
-0.16
-0.16
-0.145
-0.155
-0.19
-0.205
-0.205
-0.185
-0.19
-0.2
-0.195
-0.2
-0.21
-0.18
-0.17
-0.18
-0.185
-0.19
-0.18
-0.175
-0.155
-0.165
-0.165
-0.19
-0.18
-0.155
-0.17
-0.18
-0.195
-0.205
-0.185
-0.185
-0.165
-0.18
-0.19
-0.2
-0.19
-0.185
-0.17
-0.175
-0.19
-0.185
-0.165
-0.16
-0.14
-0.14
-0.155
-0.17
-0.16
-0.155
-0.145
-0.145
-0.16
-0.17
-0.16
-0.16
-0.165
-0.155
-0.17
-0.19
-0.19
-0.175
-0.15
-0.155
-0.165
-0.185
-0.185
-0.175
-0.145
-0.165
-0.16
-0.165
-0.17
-0.145
-0.125
-0.135
-0.15
-0.14
-0.135
-0.115
-0.09
-0.085
-0.12
-0.115
-0.09
-0.085
-0.08
-0.075
-0.075
-0.07
-0.055
-0.025
0.03
0.055
0.075
0.135
0.23
0.375
0.53
0.685
0.84
1.005
1.165
1.325
1.47
1.555
1.565
1.43
1.245
1.01
0.725
0.445
0.235
0.08
-0.025
-0.085
-0.09
-0.075
-0.085
-0.1
-0.115
-0.13
-0.14
-0.155
-0.185
-0.22
-0.205
-0.2
-0.195
-0.2
-0.22
-0.235
-0.215
-0.205
-0.2
-0.2
-0.22
-0.205
-0.225
-0.215
-0.195
-0.21
-0.23
-0.23
-0.23
-0.23
-0.215
-0.23
-0.23
-0.245
-0.22
-0.22
-0.205
-0.215
-0.235
-0.235
-0.22
-0.215
-0.21
-0.205
-0.22
-0.23
-0.225
-0.225
-0.205
-0.215
-0.22
-0.23
-0.235
-0.23
-0.21
-0.21
-0.22
-0.21
-0.21
-0.19
-0.185
-0.18
-0.195
-0.185
-0.165
-0.16
-0.145
-0.15
-0.17
-0.15
-0.14
-0.125
-0.1
-0.085
-0.1
-0.11
-0.085
-0.07
-0.055
-0.065
-0.075
-0.095
-0.11
-0.1
-0.09
-0.11
-0.13
-0.145
-0.15
-0.155
-0.16
-0.165
-0.18
-0.185
-0.185
-0.17
-0.165
-0.165
-0.19
-0.19
-0.195
-0.18
-0.17
-0.19
-0.19
-0.2
-0.195
-0.195
-0.175
-0.18
-0.19
-0.19
-0.18
-0.165
-0.15
-0.155
-0.175
-0.165
-0.16
-0.15
-0.13
-0.125
-0.13
-0.145
-0.15
-0.115
-0.105
-0.12
-0.135
-0.15
-0.125
-0.125
-0.105
-0.1
-0.11
-0.1
-0.095
-0.075
-0.045
-0.065
-0.085
-0.1
-0.08
-0.08
-0.075
-0.09
-0.11
-0.11
-0.11
-0.09
-0.11
-0.11
-0.13
-0.125
-0.125
-0.105
-0.095
-0.12
-0.13
-0.135
-0.125
-0.125
-0.135
-0.135
-0.16
-0.155
-0.16
-0.145
-0.13
-0.135
-0.16
-0.16
-0.155
-0.15
-0.14
-0.145
-0.17
-0.175
-0.17
-0.145
-0.14
-0.145
-0.16
-0.175
-0.17
-0.145
-0.14
-0.135
-0.15
-0.16
-0.17
-0.155
-0.145
-0.155
-0.15
-0.175
-0.18
-0.17
-0.15
-0.165
-0.155
-0.165
-0.165
-0.135
-0.115
-0.135
-0.145
-0.14
-0.14
-0.13
-0.125
-0.145
-0.145
-0.15
-0.155
-0.14
-0.13
-0.12
-0.145
-0.16
-0.155
-0.145
-0.145
-0.145
-0.16
-0.17
-0.195
-0.19
-0.165
-0.155
-0.16
-0.165
-0.16
-0.145
-0.145
-0.145
-0.15
-0.155
-0.16
-0.17
-0.135
-0.135
-0.14
-0.15
-0.16
-0.155
-0.14
-0.135
-0.165
-0.145
-0.155
-0.135
-0.125
-0.125
-0.15
-0.15
-0.14
-0.12
-0.12
-0.09
-0.11
-0.095
-0.09
-0.07
-0.075
-0.07
-0.085
-0.07
-0.06
-0.06
-0.045
-0.045
-0.065
-0.075
-0.07
-0.045
-0.045
-0.035
-0.045
-0.04
-0.025
-0.01
0.005
0.015
0.02
0.025
0.055
0.095
0.17
0.245
0.37
0.475
0.605
0.75
0.905
1.045
1.165
1.275
1.39
1.49
1.53
1.48
1.345
1.15
0.925
0.69
0.495
0.315
0.165
0.055
-0.015
-0.03
-0.02
-0.02
-0.04
-0.06
-0.065
-0.06
-0.065
-0.08
-0.1
-0.12
-0.115
-0.115
-0.11
-0.115
-0.125
-0.14
-0.13
-0.13
-0.11
-0.125
-0.14
-0.14
-0.14
-0.125
-0.11
-0.115
-0.135
-0.145
-0.13
-0.125
-0.115
-0.115
-0.125
-0.16
-0.15
-0.13
-0.125
-0.125
-0.14
-0.15
-0.13
-0.125
-0.105
-0.125
-0.125
-0.14
-0.13
-0.12
-0.11
-0.12
-0.115
-0.13
-0.125
-0.105
-0.09
-0.105
-0.11
-0.11
-0.11
-0.095
-0.065
-0.075
-0.075
-0.09
-0.07
-0.07
-0.055
-0.045
-0.07
-0.085
-0.095
-0.06
-0.025
-0.045
-0.03
-0.05
-0.04
-0.025
-0.02
-0.01
-0.025
-0.025
-0.03
-0.015
-0.02
-0.02
-0.025
-0.04
-0.04
-0.045
-0.05
-0.06
-0.07
-0.085
-0.095
-0.09
-0.09
-0.1
-0.12
-0.13
-0.13
-0.105
-0.105
-0.11
-0.14
-0.135
-0.135
-0.12
-0.105
-0.13
-0.14
-0.16
-0.16
-0.13
-0.14
-0.15
-0.17
-0.17
-0.16
-0.14
-0.13
-0.125
-0.14
-0.135
-0.145
-0.13
-0.1
-0.105
-0.13
-0.13
-0.13
-0.11
-0.095
-0.105
-0.125
-0.115
-0.115
-0.11
-0.1
-0.115
-0.135
-0.13
-0.12
-0.11
-0.085
-0.1
-0.13
-0.14
-0.135
-0.13
-0.105
-0.105
-0.125
-0.135
-0.125
-0.1
-0.095
-0.085
-0.12
-0.125
-0.125
-0.11
-0.09
-0.095
-0.115
-0.12
-0.12
-0.115
-0.105
-0.105
-0.145
-0.135
-0.13
-0.11
-0.1
-0.095
-0.125
-0.14
-0.13
-0.135
-0.115
-0.11
-0.12
-0.125
-0.125
-0.1
-0.1
-0.1
-0.105
-0.115
-0.12
-0.105
-0.095
-0.105
-0.12
-0.115
-0.115
-0.08
-0.08
-0.075
-0.1
-0.105
-0.1
-0.095
-0.09
-0.09
-0.105
-0.115
-0.115
-0.1
-0.09
-0.095
-0.115
-0.12
-0.105
-0.09
-0.065
-0.07
-0.1
-0.11
-0.095
-0.08
-0.065
-0.07
-0.085
-0.065
-0.065
-0.055
-0.05
-0.065
-0.075
-0.075
-0.07
-0.055
-0.05
-0.035
-0.055
-0.06
-0.03
0.0
0.035
0.045
0.05
0.075
0.135
0.26
0.39
0.51
0.625
0.745
0.895
1.06
1.21
1.31
1.385
1.445
1.5
1.47
1.365
1.18
0.935
0.67
0.47
0.335
0.23
0.14
0.065
0.025
0.015
0.025
0.015
-0.02
-0.065
-0.095
-0.125
-0.125
-0.105
-0.13
-0.14
-0.15
-0.145
-0.125
-0.12
-0.13
-0.145
-0.145
-0.15
-0.135
-0.125
-0.125
-0.145
-0.155
-0.155
-0.135
-0.155
-0.14
-0.16
-0.16
-0.145
-0.14
-0.135
-0.145
-0.15
-0.155
-0.15
-0.145
-0.135
-0.145
-0.15
-0.17
-0.15
-0.16
-0.125
-0.13
-0.14
-0.135
-0.125
-0.12
-0.115
-0.115
-0.115
-0.11
-0.09
-0.075
-0.06
-0.065
-0.08
-0.085
-0.085
-0.06
-0.05
-0.045
-0.06
-0.05
-0.045
-0.025
-0.01
-0.025
-0.03
-0.035
-0.01
0.015
0.02
0.015
0.0
-0.015
-0.005
0.01
0.025
0.005
-0.025
-0.045
-0.05
-0.035
-0.04
-0.055
-0.08
-0.095
-0.095
-0.09
-0.09
-0.1
-0.12
-0.125
-0.14
-0.11
-0.1
-0.11
-0.145
-0.165
-0.145
-0.135
-0.105
-0.125
-0.125
-0.135
-0.135
-0.125
-0.105
-0.135
-0.145
-0.145
-0.145
-0.14
-0.12
-0.135
-0.155
-0.165
-0.165
-0.145
-0.125
-0.145
-0.16
-0.17
-0.185
-0.155
-0.155
-0.14
-0.155
-0.16
-0.16
-0.145
-0.135
-0.125
-0.135
-0.15
-0.145
-0.11
-0.1
-0.11
-0.12
-0.13
-0.12
-0.105
-0.105
-0.115
-0.11
-0.12
-0.125
-0.1
-0.1
-0.105
-0.125
-0.13
-0.125
-0.115
-0.1
-0.105
-0.12
-0.135
-0.13
-0.095
-0.095
-0.1
-0.105
-0.1
-0.11
-0.085
-0.075
-0.085
-0.09
-0.105
-0.09
-0.07
-0.055
-0.065
-0.075
-0.1
-0.1
-0.085
-0.075
-0.085
-0.105
-0.13
-0.13
-0.1
-0.1
-0.105
-0.11
-0.11
-0.105
-0.095
-0.075
-0.075
-0.08
-0.085
-0.07
-0.05
-0.045
-0.05
-0.07
-0.075
-0.08
-0.075
-0.075
-0.07
-0.09
-0.09
-0.09
-0.075
-0.065
-0.075
-0.095
-0.105
-0.095
-0.09
-0.06
-0.07
-0.08
-0.09
-0.08
-0.08
-0.07
-0.075
-0.09
-0.1
-0.09
-0.085
-0.07
-0.085
-0.08
-0.09
-0.085
-0.08
-0.075
-0.08
-0.1
-0.12
-0.125
-0.095
-0.105
-0.1
-0.12
-0.125
-0.115
-0.1
-0.1
-0.115
-0.115
-0.11
-0.1
-0.07
-0.05
-0.065
-0.055
-0.07
-0.05
-0.02
0.0
0.01
0.01
0.035
0.075
0.13
0.185
0.27
0.375
0.525
0.67
0.845
1.01
1.15
1.275
1.395
1.53
1.645
1.67
1.605
1.46
1.25
0.995
0.715
0.5
0.315
0.155
0.03
0.0
0.005
0.02
0.035
0.025
-0.01
-0.035
-0.045
-0.065
-0.08
-0.115
-0.135
-0.135
-0.135
-0.125
-0.13
-0.15
-0.165
-0.16
-0.16
-0.13
-0.15
-0.155
-0.17
-0.15
-0.14
-0.135
-0.135
-0.135
-0.14
-0.125
-0.105
-0.095
-0.09
-0.095
-0.1
-0.1
-0.085
-0.065
-0.06
-0.075
-0.065
-0.06
-0.045
-0.035
-0.035
-0.05
-0.065
-0.04
-0.045
-0.02
-0.025
-0.055
-0.065
-0.05
-0.035
-0.02
-0.03
-0.035
-0.045
-0.03
-0.025
0.005
-0.01
-0.025
-0.05
-0.045
-0.02
-0.015
-0.005
-0.03
-0.02
-0.02
-0.01
-0.005
0.0
-0.02
-0.03
-0.015
-0.01
0.0
-0.01
-0.035
-0.04
-0.04
-0.04
-0.02
-0.04
-0.05
-0.06
-0.07
-0.055
-0.035
-0.04
-0.045
-0.05
-0.075
-0.065
-0.065
-0.08
-0.1
-0.09
-0.095
-0.065
-0.065
-0.07
-0.085
-0.1
-0.095
-0.095
-0.09
-0.085
-0.11
-0.13
-0.115
-0.12
-0.115
-0.125
-0.145
-0.16
-0.17
-0.135
-0.135
-0.145
-0.15
-0.165
-0.17
-0.135
-0.125
-0.125
-0.16
-0.155
-0.135
-0.11
-0.095
-0.11
-0.11
-0.125
-0.105
-0.08
-0.075
-0.065
-0.09
-0.08
-0.075
-0.075
-0.06
-0.075
-0.07
-0.085
-0.07
-0.055
-0.03
-0.045
-0.055
-0.07
-0.065
-0.055
-0.03
-0.04
-0.065
-0.07
-0.075
-0.07
-0.065
-0.065
-0.08
-0.095
-0.1
-0.09
-0.075
-0.08
-0.1
-0.105
-0.095
-0.085
-0.08
-0.09
-0.115
-0.105
-0.1
-0.085
-0.09
-0.105
-0.135
-0.13
-0.12
-0.09
-0.095
-0.09
-0.085
-0.08
-0.05
-0.01
0.04
0.085
0.17
0.285
0.445
0.6
0.765
0.93
1.085
1.25
1.415
1.57
1.665
1.675
1.585
1.41
1.195
0.905
0.655
0.405
0.19
0.045
-0.04
-0.03
-0.02
-0.01
-0.045
-0.055
-0.065
-0.065
-0.095
-0.115
-0.125
-0.145
-0.155
-0.15
-0.135
-0.15
-0.18
-0.17
-0.155
-0.155
-0.15
-0.175
-0.185
-0.185
-0.19
-0.17
-0.17
-0.175
-0.175
-0.185
-0.18
-0.16
-0.165
-0.165
-0.16
-0.17
-0.165
-0.145
-0.13
-0.14
-0.145
-0.155
-0.145
-0.135
-0.13
-0.115
-0.135
-0.135
-0.105
-0.095
-0.085
-0.075
-0.09
-0.095
-0.095
-0.085
-0.08
-0.085
-0.085
-0.09
-0.095
-0.075
-0.06
-0.065
-0.07
-0.075
-0.055
-0.045
-0.035
-0.04
-0.04
-0.055
-0.065
-0.05
-0.04
-0.05
-0.07
-0.09
-0.09
-0.09
-0.1
-0.12
-0.135
-0.15
-0.145
-0.14
-0.145
-0.155
-0.18
-0.195
-0.205
-0.19
-0.19
-0.205
-0.22
-0.2
-0.2
-0.195
-0.19
-0.2
-0.2
-0.215
-0.2
-0.205
-0.185
-0.185
-0.185
-0.2
-0.195
-0.195
-0.195
-0.2
-0.21
-0.22
-0.23
-0.215
-0.195
-0.22
-0.235
-0.245
-0.235
-0.225
-0.215
-0.22
-0.225
-0.235
-0.225
-0.21
-0.2
-0.2
-0.195
-0.195
-0.195
-0.17
-0.165
-0.16
-0.18
-0.18
-0.18
-0.17
-0.155
-0.17
-0.18
-0.175
-0.18
-0.155
-0.16
-0.17
-0.195
-0.185
-0.175
-0.165
-0.15
-0.155
-0.18
-0.175
-0.165
-0.16
-0.165
-0.16
-0.17
-0.18
-0.17
-0.16
-0.155
-0.16
-0.195
-0.195
-0.2
-0.195
-0.185
-0.19
-0.19
-0.2
-0.195
-0.19
-0.175
-0.175
-0.19
-0.215
-0.185
-0.17
-0.17
-0.18
-0.2
-0.205
-0.205
-0.2
-0.18
-0.195
-0.2
-0.2
-0.175
-0.15
-0.135
-0.13
-0.16
-0.165
-0.16
-0.16
-0.155
-0.15
-0.16
-0.18
-0.175
-0.16
-0.15
-0.145
-0.165
-0.185
-0.18
-0.165
-0.15
-0.185
-0.185
-0.18
-0.18
-0.16
-0.155
-0.175
-0.17
-0.19
-0.2
-0.205
-0.19
-0.185
-0.2
-0.205
-0.21
-0.205
-0.18
-0.18
-0.215
-0.225
-0.215
-0.2
-0.19
-0.185
-0.195
-0.21
-0.205
-0.19
-0.175
-0.175
-0.195
-0.205
-0.2
-0.185
-0.16
-0.16
-0.185
-0.2
-0.2
-0.185
-0.17
-0.155
-0.175
-0.18
-0.17
-0.135
-0.12
-0.125
-0.14
-0.135
-0.135
-0.12
-0.1
-0.1
-0.105
-0.11
-0.125
-0.11
-0.115
-0.13
-0.14
-0.15
-0.155
-0.12
-0.115
-0.13
-0.16
-0.15
-0.135
-0.12
-0.11
-0.105
-0.13
-0.11
-0.09
-0.035
-0.01
0.005
0.05
0.12
0.255
0.405
0.565
0.715
0.875
1.015
1.165
1.325
1.46
1.505
1.46
1.33
1.13
0.905
0.625
0.385
0.195
0.06
-0.025
-0.045
-0.045
-0.05
-0.065
-0.09
-0.11
-0.14
-0.14
-0.155
-0.16
-0.165
-0.165
-0.16
-0.145
-0.155
-0.17
-0.175
-0.18
-0.185
-0.175
-0.19
-0.195
-0.22
-0.215
-0.21
-0.205
-0.215
-0.25
-0.245
-0.24
-0.24
-0.23
-0.22
-0.245
-0.26
-0.245
-0.245
-0.245
-0.245
-0.24
-0.245
-0.24
-0.23
-0.235
-0.225
-0.225
-0.24
-0.235
-0.215
-0.21
-0.21
-0.21
-0.22
-0.215
-0.185
-0.175
-0.175
-0.19
-0.185
-0.17
-0.14
-0.125
-0.11
-0.12
-0.125
-0.12
-0.11
-0.07
-0.085
-0.07
-0.075
-0.055
-0.04
-0.02
-0.015
-0.035
-0.035
-0.035
-0.04
-0.02
-0.03
-0.065
-0.08
-0.08
-0.095
-0.1
-0.115
-0.135
-0.155
-0.17
-0.15
-0.15
-0.165
-0.165
-0.19
-0.175
-0.17
-0.16
-0.165
-0.18
-0.2
-0.2
-0.19
-0.18
-0.175
-0.195
-0.215
-0.22
-0.2
-0.19
-0.195
-0.205
-0.215
-0.22
-0.205
-0.19
-0.205
-0.22
-0.225
-0.215
-0.205
-0.195
-0.205
-0.22
-0.22
-0.215
-0.205
-0.195
-0.195
-0.195
-0.195
-0.17
-0.14
-0.125
-0.13
-0.145
-0.16
-0.135
-0.145
-0.105
-0.11
-0.12
-0.125
-0.1
-0.085
-0.06
-0.05
-0.06
-0.01
0.02
0.11
0.215
0.32
0.43
0.55
0.68
0.84
1.005
1.135
1.22
1.285
1.325
1.3
1.195
0.99
0.745
0.465
0.255
0.135
0.08
0.015
-0.065
-0.125
-0.155
-0.145
-0.16
-0.18
-0.23
-0.245
-0.26
-0.255
-0.255
-0.255
-0.275
-0.275
-0.27
-0.26
-0.255
-0.245
-0.255
-0.265
-0.265
-0.25
-0.245
-0.27
-0.28
-0.295
-0.265
-0.255
-0.245
-0.255
-0.27
-0.275
-0.27
-0.245
-0.235
-0.245
-0.245
-0.255
-0.23
-0.225
-0.19
-0.21
-0.23
-0.215
-0.2
-0.185
-0.175
-0.185
-0.185
-0.19
-0.185
-0.15
-0.15
-0.145
-0.145
-0.145
-0.13
-0.11
-0.105
-0.11
-0.11
-0.11
-0.1
-0.1
-0.09
-0.09
-0.105
-0.1
-0.085
-0.07
-0.055
-0.075
-0.09
-0.075
-0.07
-0.085
-0.065
-0.08
-0.09
-0.13
-0.13
-0.145
-0.145
-0.16
-0.195
-0.205
-0.21
-0.2
-0.2
-0.215
-0.225
-0.245
-0.235
-0.24
-0.22
-0.22
-0.255
-0.255
-0.245
-0.24
-0.24
-0.23
-0.24
-0.26
-0.255
-0.25
-0.245
-0.255
-0.26
-0.27
-0.27
-0.265
-0.26
-0.265
-0.27
-0.275
-0.275
-0.265
-0.26
-0.265
-0.275
-0.275
-0.27
-0.255
-0.24
-0.26
-0.255
-0.26
-0.24
-0.22
-0.205
-0.215
-0.22
-0.23
-0.235
-0.21
-0.205
-0.215
-0.22
-0.225
-0.22
-0.2
-0.18
-0.185
-0.19
-0.19
-0.185
-0.17
-0.16
-0.175
-0.195
-0.19
-0.185
-0.175
-0.17
-0.19
-0.2
-0.2
-0.21
-0.185
-0.175
-0.19
-0.195
-0.205
-0.185
-0.17
-0.17
-0.17
-0.2
-0.215
-0.215
-0.205
-0.2
-0.215
-0.215
-0.22
-0.205
-0.195
-0.185
-0.19
-0.21
-0.215
-0.21
-0.2
-0.19
-0.19
-0.2
-0.21
-0.205
-0.175
-0.145
-0.135
-0.125
-0.105
-0.06
-0.015
0.02
0.075
0.175
0.305
0.46
0.62
0.815
0.985
1.16
1.325
1.485
1.62
1.67
1.59
1.39
1.135
0.825
0.54
0.295
0.085
-0.055
-0.155
-0.165
-0.15
-0.12
-0.135
-0.17
-0.205
-0.2
-0.21
-0.21
-0.245
-0.255
-0.265
-0.27
-0.25
-0.25
-0.27
-0.29
-0.3
-0.3
-0.29
-0.285
-0.31
-0.335
-0.33
-0.345
-0.33
-0.335
-0.335
-0.345
-0.355
-0.35
-0.335
-0.33
-0.34
-0.34
-0.36
-0.325
-0.305
-0.305
-0.285
-0.295
-0.28
-0.26
-0.23
-0.23
-0.235
-0.255
-0.24
-0.22
-0.215
-0.205
-0.2
-0.21
-0.21
-0.19
-0.195
-0.175
-0.185
-0.19
-0.18
-0.17
-0.145
-0.15
-0.125
-0.14
-0.145
-0.15
-0.12
-0.115
-0.11
-0.12
-0.125
-0.12
-0.11
-0.11
-0.125
-0.15
-0.175
-0.18
-0.17
-0.155
-0.17
-0.195
-0.205
-0.21
-0.21
-0.21
-0.22
-0.235
-0.25
-0.265
-0.26
-0.25
-0.245
-0.26
-0.26
-0.265
-0.24
-0.24
-0.24
-0.255
-0.275
-0.26
-0.245
-0.23
-0.23
-0.235
-0.235
-0.225
-0.22
-0.2
-0.205
-0.23
-0.24
-0.23
-0.22
-0.21
-0.215
-0.22
-0.225
-0.22
-0.21
-0.2
-0.21
-0.225
-0.23
-0.225
-0.215
-0.2
-0.215
-0.225
-0.245
-0.225
-0.21
-0.195
-0.22
-0.23
-0.245
-0.24
-0.22
-0.21
-0.22
-0.225
-0.25
-0.24
-0.21
-0.2
-0.21
-0.22
-0.225
-0.23
-0.23
-0.205
-0.225
-0.23
-0.25
-0.255
-0.235
-0.235
-0.235
-0.255
-0.26
-0.235
-0.225
-0.225
-0.225
-0.235
-0.23
-0.21
-0.2
-0.18
-0.19
-0.19
-0.2
-0.19
-0.155
-0.155
-0.17
-0.19
-0.215
-0.2
-0.19
-0.185
-0.2
-0.225
-0.215
-0.21
-0.195
-0.21
-0.21
-0.24
-0.25
-0.235
-0.225
-0.22
-0.23
-0.24
-0.26
-0.25
-0.23
-0.215
-0.225
-0.245
-0.255
-0.25
-0.245
-0.23
-0.25
-0.27
-0.275
-0.26
-0.24
-0.215
-0.235
-0.25
-0.265
-0.26
-0.25
-0.24
-0.24
-0.25
-0.25
-0.245
-0.22
-0.205
-0.215
-0.22
-0.22
-0.225
-0.23
-0.2
-0.215
-0.22
-0.21
-0.2
-0.185
-0.16
-0.155
-0.145
-0.135
-0.09
-0.05
-0.02
-0.01
0.02
0.095
0.22
0.38
0.525
0.685
0.825
0.975
1.13
1.295
1.425
1.525
1.49
1.37
1.185
0.96
0.685
0.425
0.2
0.02
-0.085
-0.145
-0.16
-0.15
-0.155
-0.16
-0.19
-0.205
-0.215
-0.23
-0.245
-0.26
-0.26
-0.26
-0.25
-0.275
-0.285
-0.295
-0.285
-0.27
-0.27
-0.275
-0.285
-0.295
-0.29
-0.29
-0.28
-0.285
-0.285
-0.285
-0.265
-0.255
-0.255
-0.265
-0.25
-0.255
-0.24
-0.22
-0.22
-0.215
-0.235
-0.245
-0.26
-0.235
-0.225
-0.225
-0.23
-0.24
-0.245
-0.225
-0.215
-0.21
-0.215
-0.225
-0.24
-0.205
-0.195
-0.2
-0.21
-0.215
-0.22
-0.205
-0.205
-0.195
-0.18
-0.19
-0.19
-0.18
-0.15
-0.155
-0.17
-0.16
-0.175
-0.165
-0.135
-0.15
-0.17
-0.18
-0.175
-0.155
-0.165
-0.175
-0.18
-0.2
-0.21
-0.185
-0.18
-0.195
-0.225
-0.235
-0.235
-0.215
-0.21
-0.215
-0.215
-0.24
-0.24
-0.225
-0.225
-0.215
-0.24
-0.25
-0.26
-0.255
-0.25
-0.25
-0.265
-0.285
-0.27
-0.26
-0.26
-0.26
-0.265
-0.27
-0.27
-0.26
-0.235
-0.235
-0.25
-0.26
-0.255
-0.25
-0.23
-0.235
-0.26
-0.27
-0.26
-0.24
-0.235
-0.23
-0.245
-0.255
-0.25
-0.24
-0.23
-0.22
-0.23
-0.23
-0.225
-0.22
-0.22
-0.23
-0.25
-0.255
-0.265
-0.25
-0.245
-0.255
-0.27
-0.285
-0.26
-0.25
-0.24
-0.245
-0.255
-0.255
-0.245
-0.215
-0.185
-0.195
-0.21
-0.205
-0.205
-0.21
-0.205
-0.22
-0.24
-0.24
-0.25
-0.245
-0.23
-0.225
-0.25
-0.255
-0.25
-0.22
-0.215
-0.23
-0.24
-0.26
-0.24
-0.24
-0.235
-0.245
-0.25
-0.26
-0.25
-0.23
-0.23
-0.245
-0.255
-0.25
-0.255
-0.235
-0.22
-0.22
-0.215
-0.22
-0.215
-0.215
-0.2
-0.22
-0.225
-0.24
-0.245
-0.225
-0.24
-0.24
-0.24
-0.26
-0.24
-0.23
-0.225
-0.23
-0.245
-0.26
-0.255
-0.25
-0.24
-0.255
-0.26
-0.28
-0.27
-0.26
-0.25
-0.275
-0.285
-0.305
-0.305
-0.285
-0.27
-0.27
-0.27
-0.285
-0.275
-0.23
-0.22
-0.24
-0.24
-0.235
-0.23
-0.215
-0.205
-0.215
-0.22
-0.24
-0.23
-0.215
-0.21
-0.21
-0.235
-0.24
-0.24
-0.225
-0.22
-0.225
-0.245
-0.245
-0.23
-0.215
-0.225
-0.21
-0.225
-0.23
-0.225
-0.2
-0.195
-0.22
-0.23
-0.23
-0.23
-0.205
-0.195
-0.205
-0.22
-0.24
-0.22
-0.205
-0.205
-0.21
-0.225
-0.23
-0.225
-0.225
-0.215
-0.22
-0.235
-0.24
-0.225
-0.24
-0.21
-0.215
-0.225
-0.23
-0.225
-0.225
-0.21
-0.22
-0.24
-0.25
-0.24
-0.24
-0.23
-0.23
-0.23
-0.265
-0.25
-0.245
-0.23
-0.245
-0.24
-0.235
-0.225
-0.21
-0.19
-0.18
-0.18
-0.2
-0.19
-0.18
-0.19
-0.185
-0.2
-0.18
-0.165
-0.155
-0.15
-0.145
-0.16
-0.165
-0.16
-0.145
-0.13
-0.135
-0.15
-0.165
-0.16
-0.16
-0.135
-0.145
-0.16
-0.16
-0.145
-0.145
-0.14
-0.155
-0.155
-0.165
-0.15
-0.135
-0.13
-0.15
-0.155
-0.155
-0.155
-0.14
-0.13
-0.14
-0.15
-0.16
-0.15
-0.145
-0.135
-0.13
-0.135
-0.135
-0.13
-0.09
-0.07
-0.045
-0.04
-0.025
0.025
0.12
0.235
0.35
0.445
0.58
0.73
0.885
1.025
1.155
1.27
1.38
1.445
1.435
1.34
1.195
0.985
0.755
0.535
0.365
0.225
0.085
-0.02
-0.09
-0.095
-0.08
-0.075
-0.1
-0.11
-0.13
-0.14
-0.145
-0.155
-0.18
-0.2
-0.205
-0.21
-0.215
-0.215
-0.23
-0.245
-0.26
-0.265
-0.255
-0.25
-0.255
-0.26
-0.29
-0.275
-0.275
-0.27
-0.28
-0.305
-0.31
-0.295
-0.29
-0.27
-0.29
-0.29
-0.295
-0.285
-0.265
-0.265
-0.255
-0.28
-0.29
-0.27
-0.26
-0.25
-0.25
-0.255
-0.26
-0.235
-0.22
-0.225
-0.225
-0.23
-0.235
-0.215
-0.2
-0.18
-0.18
-0.19
-0.19
-0.155
-0.135
-0.12
-0.11
-0.1
-0.09
-0.075
-0.05
-0.025
-0.04
-0.04
-0.055
-0.04
-0.02
-0.005
-0.005
-0.025
-0.025
-0.005
0.005
0.0
-0.01
-0.015
-0.035
-0.035
-0.04
-0.045
-0.055
-0.075
-0.085
-0.09
-0.09
-0.095
-0.12
-0.14
-0.15
-0.15
-0.145
-0.16
-0.165
-0.195
-0.205
-0.21
-0.19
-0.2
-0.21
-0.215
-0.225
-0.22
-0.195
-0.185
-0.195
-0.205
-0.195
-0.18
-0.175
-0.15
-0.16
-0.17
-0.18
-0.175
-0.17
-0.16
-0.18
-0.2
-0.21
-0.205
-0.205
-0.185
-0.18
-0.185
-0.195
-0.175
-0.155
-0.155
-0.175
-0.175
-0.18
-0.17
-0.145
-0.145
-0.15
-0.17
-0.18
-0.165
-0.16
-0.16
-0.165
-0.185
-0.185
-0.175
-0.185
-0.16
-0.17
-0.17
-0.185
-0.19
-0.175
-0.175
-0.165
-0.185
-0.19
-0.185
-0.18
-0.185
-0.195
-0.195
-0.205
-0.19
-0.175
-0.165
-0.17
-0.19
-0.21
-0.19
-0.19
-0.175
-0.18
-0.2
-0.195
-0.18
-0.165
-0.175
-0.185
-0.195
-0.195
-0.19
-0.19
-0.19
-0.2
-0.205
-0.235
-0.215
-0.195
-0.2
-0.18
-0.19
-0.195
-0.185
-0.18
-0.16
-0.18
-0.19
-0.195
-0.195
-0.18
-0.16
-0.16
-0.175
-0.2
-0.19
-0.175
-0.165
-0.175
-0.195
-0.23
-0.225
-0.205
-0.19
-0.195
-0.2
-0.2
-0.2
-0.195
-0.175
-0.18
-0.185
-0.195
-0.185
-0.165
-0.165
-0.16
-0.18
-0.165
-0.165
-0.145
-0.13
-0.135
-0.155
-0.16
-0.155
-0.14
-0.145
-0.15
-0.155
-0.165
-0.175
-0.16
-0.14
-0.15
-0.18
-0.165
-0.175
-0.155
-0.145
-0.145
-0.165
-0.17
-0.165
-0.16
-0.145
-0.15
-0.175
-0.18
-0.18
-0.18
-0.17
-0.195
-0.21
-0.205
-0.21
-0.18
-0.17
-0.18
-0.18
-0.185
-0.17
-0.175
-0.175
-0.18
-0.17
-0.17
-0.175
-0.15
-0.14
-0.145
-0.13
-0.13
-0.105
-0.08
-0.06
-0.05
-0.04
0.0
0.03
0.095
0.145
0.25
0.37
0.51
0.67
0.85
1.015
1.15
1.3
1.445
1.585
1.72
1.75
1.665
1.51
1.285
1.025
0.79
0.555
0.335
0.15
0.02
-0.055
-0.08
-0.065
-0.06
-0.075
-0.1
-0.11
-0.115
-0.12
-0.135
-0.175
-0.19
-0.2
-0.19
-0.18
-0.19
-0.21
-0.225
-0.22
-0.21
-0.21
-0.215
-0.23
-0.245
-0.23
-0.2
-0.195
-0.18
-0.195
-0.2
-0.185
-0.175
-0.16
-0.16
-0.165
-0.18
-0.175
-0.175
-0.155
-0.155
-0.175
-0.185
-0.17
-0.16
-0.155
-0.16
-0.185
-0.18
-0.185
-0.155
-0.16
-0.15
-0.15
-0.155
-0.145
-0.13
-0.105
-0.115
-0.125
-0.13
-0.12
-0.12
-0.095
-0.095
-0.12
-0.13
-0.12
-0.105
-0.1
-0.095
-0.11
-0.115
-0.1
-0.1
-0.095
-0.085
-0.095
-0.11
-0.095
-0.085
-0.09
-0.1
-0.115
-0.125
-0.125
-0.115
-0.1
-0.11
-0.125
-0.145
-0.145
-0.135
-0.13
-0.125
-0.145
-0.16
-0.14
-0.13
-0.125
-0.135
-0.155
-0.16
-0.17
-0.16
-0.165
-0.165
-0.185
-0.195
-0.2
-0.18
-0.175
-0.19
-0.21
-0.2
-0.21
-0.205
-0.195
-0.195
-0.215
-0.22
-0.22
-0.22
-0.21
-0.22
-0.225
-0.23
-0.225
-0.22
-0.215
-0.23
-0.25
-0.25
-0.23
-0.235
-0.23
-0.22
-0.235
-0.24
-0.23
-0.21
-0.205
-0.2
-0.205
-0.2
-0.2
-0.18
-0.16
-0.165
-0.165
-0.17
-0.155
-0.15
-0.14
-0.16
-0.17
-0.17
-0.165
-0.17
-0.165
-0.16
-0.165
-0.165
-0.155
-0.14
-0.12
-0.12
-0.145
-0.135
-0.135
-0.12
-0.105
-0.115
-0.15
-0.16
-0.16
-0.13
-0.135
-0.145
-0.165
-0.18
-0.185
-0.16
-0.16
-0.165
-0.175
-0.195
-0.175
-0.15
-0.12
-0.11
-0.095
-0.08
-0.035
0.06
0.185
0.305
0.43
0.575
0.76
0.955
