Lead II
0.03
0.05
0.06
0.07
0.09
0.09
0.115
0.105
0.12
0.13
0.14
0.155
0.16
0.185
0.2
0.205
0.21
0.22
0.23
0.23
0.23
0.235
0.235
0.26
0.27
0.285
0.29
0.305
0.31
0.305
0.31
0.305
0.305
0.3
0.305
0.31
0.31
0.31
0.31
0.3
0.29
0.265
0.255
0.23
0.21
0.2
0.175
0.155
0.14
0.11
0.105
0.07
0.055
0.03
0.01
-0.02
-0.04
-0.07
-0.065
-0.075
-0.085
-0.095
-0.1
-0.105
-0.115
-0.125
-0.14
-0.15
-0.17
-0.175
-0.175
-0.165
-0.165
-0.16
-0.16
-0.16
-0.165
-0.17
-0.185
-0.185
-0.18
-0.185
-0.175
-0.17
-0.18
-0.165
-0.16
-0.17
-0.16
-0.17
-0.17
-0.18
-0.185
-0.19
-0.175
-0.175
-0.17
-0.16
-0.16
-0.16
-0.16
-0.17
-0.175
-0.18
-0.19
-0.18
-0.195
-0.19
-0.18
-0.17
-0.17
-0.17
-0.17
-0.18
-0.175
-0.19
-0.195
-0.205
-0.2
-0.195
-0.195
-0.185
-0.185
-0.175
-0.195
-0.195
-0.195
-0.215
-0.23
-0.21
-0.195
-0.195
-0.18
-0.165
-0.155
-0.155
-0.15
-0.15
-0.15
-0.14
-0.135
-0.125
-0.11
-0.085
-0.065
-0.04
-0.035
-0.045
-0.045
-0.075
-0.09
-0.105
-0.13
-0.14
-0.145
-0.155
-0.165
-0.175
-0.195
-0.215
-0.23
-0.245
-0.255
-0.28
-0.285
-0.28
-0.29
-0.285
-0.28
-0.275
-0.275
-0.29
-0.29
-0.295
-0.31
-0.315
-0.325
-0.32
-0.31
-0.31
-0.31
-0.305
-0.3
-0.295
-0.3
-0.305
-0.3
-0.31
-0.315
-0.315
-0.32
-0.305
-0.295
-0.29
-0.295
-0.29
-0.295
-0.3
-0.29
-0.305
-0.3
-0.3
-0.3
-0.29
-0.285
-0.295
-0.29
-0.3
-0.3
-0.285
-0.3
-0.3
-0.3
-0.295
-0.3
-0.295
-0.295
-0.285
-0.28
-0.29
-0.28
-0.285
-0.29
-0.315
-0.295
-0.305
-0.29
-0.3
-0.29
-0.29
-0.275
-0.27
-0.28
-0.29
-0.295
-0.3
-0.315
-0.31
-0.3
-0.295
-0.295
-0.285
-0.285
-0.295
-0.28
-0.29
-0.3
-0.295
-0.3
-0.305
-0.285
-0.29
-0.285
-0.275
-0.28
-0.26
-0.265
-0.26
-0.27
-0.27
-0.28
-0.295
-0.285
-0.285
-0.29
-0.285
-0.27
-0.28
-0.275
-0.27
-0.27
-0.29
-0.295
-0.28
-0.285
-0.275
-0.275
-0.265
-0.265
-0.255
-0.255
-0.27
-0.26
-0.26
-0.255
-0.25
-0.255
-0.255
-0.265
-0.255
-0.23
-0.24
-0.24
-0.255
-0.265
-0.28
-0.28
-0.275
-0.265
-0.255
-0.245
-0.24
-0.245
-0.245
-0.24
-0.255
-0.265
-0.265
-0.265
-0.245
-0.25
-0.245
-0.235
-0.24
-0.23
-0.24
-0.24
-0.23
-0.25
-0.245
-0.25
-0.245
-0.245
-0.255
-0.255
-0.245
-0.23
-0.24
-0.24
-0.23
-0.235
-0.235
-0.25
-0.25
-0.255
-0.25
-0.245
-0.23
-0.22
-0.22
-0.215
-0.22
-0.23
-0.24
-0.24
-0.245
-0.255
-0.255
-0.235
-0.235
-0.235
-0.22
-0.23
-0.23
-0.22
-0.225
-0.225
-0.24
-0.235
-0.235
-0.23
-0.225
-0.22
-0.215
-0.2
-0.2
-0.205
-0.215
-0.23
-0.23
-0.235
-0.225
-0.215
-0.2
-0.195
-0.21
-0.205
-0.21
-0.22
-0.225
-0.22
-0.225
-0.215
-0.22
-0.205
-0.205
-0.2
-0.205
-0.215
-0.225
-0.22
-0.23
-0.22
-0.225
-0.215
-0.215
-0.205
-0.2
-0.21
-0.215
-0.2
-0.21
-0.215
-0.215
-0.21
-0.21
-0.215
-0.215
-0.215
-0.215
-0.22
-0.225
-0.205
-0.21
-0.215
-0.22
-0.23
-0.235
-0.22
-0.21
-0.195
-0.195
-0.195
-0.2
-0.195
-0.195
-0.215
-0.225
-0.23
-0.21
-0.215
-0.205
-0.205
-0.19
-0.2
-0.195
-0.2
-0.18
-0.185
-0.185
-0.185
-0.18
-0.175
-0.16
-0.155
-0.145
-0.13
-0.125
-0.115
-0.11
-0.1
-0.08
-0.06
-0.04
-0.02
-0.005
-0.005
-0.01
-0.015
-0.04
-0.045
-0.055
-0.075
-0.085
-0.09
-0.095
-0.115
-0.14
-0.145
-0.165
-0.185
-0.19
-0.2
-0.205
-0.195
-0.215
-0.21
-0.22
-0.23
-0.235
-0.23
-0.23
-0.215
-0.215
-0.2
-0.205
-0.22
-0.215
-0.22
-0.21
-0.215
-0.195
-0.195
-0.195
-0.175
-0.185
-0.205
-0.225
-0.265
-0.31
-0.375
-0.42
-0.435
-0.35
-0.19
0.055
0.385
0.745
1.08
1.365
1.53
1.525
1.27
0.835
0.345
-0.05
-0.29
-0.38
-0.365
-0.315
-0.295
-0.265
-0.27
-0.29
-0.315
-0.335
-0.335
-0.32
-0.295
-0.275
-0.245
-0.24
-0.24
-0.25
-0.265
-0.27
-0.29
-0.285
-0.285
-0.29
-0.265
-0.265
-0.25
-0.25
-0.26
-0.26
-0.285
-0.305
-0.31
-0.315
-0.305
-0.28
-0.27
-0.25
-0.235
-0.25
-0.255
-0.26
-0.265
-0.265
-0.27
-0.265
-0.27
-0.27
-0.28
-0.275
-0.26
-0.265
-0.26
-0.26
-0.25
-0.25
-0.255
-0.255
-0.26
-0.265
-0.26
-0.26
-0.25
-0.25
-0.24
-0.24
-0.23
-0.225
-0.24
-0.235
-0.255
-0.23
-0.225
-0.23
-0.225
-0.22
-0.205
-0.175
-0.175
-0.195
-0.205
-0.195
-0.195
-0.18
-0.16
-0.16
-0.15
-0.15
-0.145
-0.16
-0.16
-0.16
-0.16
-0.14
-0.14
-0.12
-0.105
-0.095
-0.09
-0.085
-0.08
-0.08
-0.07
-0.075
-0.075
-0.065
-0.055
-0.045
-0.02
-0.005
0.01
0.005
0.015
0.025
0.03
0.04
0.045
0.045
0.05
0.06
0.07
0.075
0.11
0.115
0.125
0.125
0.14
0.135
0.135
0.145
0.15
0.165
0.175
0.19
0.21
0.21
0.23
0.225
0.235
0.235
0.235
0.245
0.25
0.255
0.265
0.26
0.255
0.27
0.275
0.255
0.245
0.235
0.215
0.205
0.19
0.185
0.17
0.165
0.15
0.135
0.125
0.105
0.08
0.06
0.04
0.025
0.01
-0.005
-0.01
-0.02
-0.02
-0.035
-0.05
-0.06
-0.065
-0.085
-0.095
-0.1
-0.12
-0.115
-0.11
-0.11
-0.11
-0.115
-0.115
-0.12
-0.125
-0.125
-0.14
-0.145
-0.15
-0.15
-0.135
-0.14
-0.13
-0.13
-0.135
-0.135
-0.15
-0.155
-0.15
-0.15
-0.15
-0.145
-0.135
-0.13
-0.13
-0.13
-0.135
-0.135
-0.16
-0.135
-0.145
-0.15
-0.15
-0.155
-0.135
-0.145
-0.14
-0.15
-0.14
-0.145
-0.15
-0.16
-0.16
-0.18
-0.175
-0.17
-0.165
-0.155
-0.15
-0.145
-0.14
-0.135
-0.125
-0.13
-0.125
-0.12
-0.11
-0.11
-0.1
-0.09
-0.065
-0.05
-0.04
-0.03
-0.015
-0.02
-0.035
-0.04
-0.065
-0.075
-0.065
-0.065
-0.085
-0.095
-0.105
-0.125
-0.145
-0.175
-0.205
-0.22
-0.235
-0.235
-0.245
-0.25
-0.235
-0.24
-0.245
-0.255
-0.26
-0.26
-0.27
-0.275
-0.28
-0.275
-0.27
-0.27
-0.27
-0.275
-0.28
-0.275
-0.28
-0.28
-0.295
-0.295
-0.295
-0.29
-0.285
-0.285
-0.27
-0.285
-0.275
-0.29
-0.29
-0.3
-0.3
-0.295
-0.305
-0.295
-0.29
-0.295
-0.285
-0.285
-0.28
-0.285
-0.285
-0.295
-0.305
-0.305
-0.29
-0.29
-0.285
-0.28
-0.275
-0.28
-0.275
-0.275
-0.295
-0.3
-0.315
-0.315
-0.325
-0.29
-0.285
-0.295
-0.28
-0.29
-0.29
-0.295
-0.3
-0.3
-0.315
-0.315
-0.31
-0.305
-0.29
-0.29
-0.275
-0.28
-0.275
-0.28
-0.29
-0.295
-0.32
-0.325
-0.31
-0.32
-0.31
-0.305
-0.295
-0.285
-0.285
-0.29
-0.29
-0.3
-0.305
-0.31
-0.315
-0.31
-0.29
-0.295
-0.28
-0.28
-0.285
-0.295
-0.29
-0.295
-0.3
-0.3
-0.295
-0.29
-0.275
-0.27
-0.265
-0.27
-0.26
-0.28
-0.28
-0.285
-0.295
-0.295
-0.29
-0.28
-0.27
-0.265
-0.265
-0.26
-0.255
-0.26
-0.27
-0.265
-0.275
-0.285
-0.295
-0.28
-0.265
-0.27
-0.265
-0.265
-0.265
-0.26
-0.265
-0.275
-0.28
-0.285
-0.29
-0.28
-0.275
-0.26
-0.25
-0.255
-0.25
-0.255
-0.25
-0.25
-0.26
-0.275
-0.26
-0.265
-0.26
-0.255
-0.255
-0.245
-0.24
-0.235
-0.235
-0.245
-0.265
-0.245
-0.255
-0.26
-0.26
-0.235
-0.235
-0.24
-0.23
-0.235
-0.245
-0.245
-0.24
-0.235
-0.245
-0.24
-0.245
-0.225
-0.225
-0.225
-0.22
-0.23
-0.235
-0.235
-0.245
-0.235
-0.235
-0.235
-0.245
-0.21
-0.205
-0.225
-0.225
-0.215
-0.23
-0.215
-0.23
-0.23
-0.225
-0.21
-0.215
-0.2
-0.2
-0.205
-0.205
-0.205
-0.205
-0.205
-0.225
-0.215
-0.22
-0.22
-0.22
-0.205
-0.195
-0.185
-0.195
-0.21
-0.205
-0.21
-0.215
-0.225
-0.215
-0.215
-0.205
-0.2
-0.195
-0.185
-0.195
-0.195
-0.2
-0.21
-0.205
-0.21
-0.215
-0.215
-0.2
-0.195
-0.18
-0.18
-0.18
-0.175
-0.195
-0.185
-0.195
-0.195
-0.19
-0.185
-0.185
-0.175
-0.175
-0.17
-0.17
-0.175
-0.17
-0.185
-0.18
-0.185
-0.185
-0.175
-0.18
-0.175
-0.16
-0.16
-0.175
-0.18
-0.175
-0.17
-0.18
-0.18
-0.18
-0.165
-0.155
-0.13
-0.125
-0.125
-0.13
-0.105
-0.11
-0.12
-0.115
-0.11
-0.09
-0.07
-0.05
-0.035
-0.005
0.03
0.03
0.03
0.015
-0.02
-0.045
-0.05
-0.05
-0.065
-0.075
-0.07
-0.08
-0.095
-0.115
-0.14
-0.16
-0.17
-0.19
-0.2
-0.21
-0.205
-0.2
-0.19
-0.185
-0.195
-0.2
-0.205
-0.21
-0.23
-0.225
-0.215
-0.215
-0.22
-0.215
-0.215
-0.205
-0.21
-0.205
-0.205
-0.21
-0.21
-0.23
-0.245
-0.25
-0.28
-0.31
-0.36
-0.425
-0.46
-0.425
-0.305
-0.065
0.26
0.635
1.025
1.38
1.625
1.7
1.54
1.185
0.72
0.29
-0.01
-0.165
-0.205
-0.185
-0.155
-0.125
-0.115
-0.14
-0.18
-0.21
-0.25
-0.26
-0.265
-0.275
-0.275
-0.285
-0.295
-0.305
-0.31
-0.31
-0.305
-0.31
-0.31
-0.31
-0.315
-0.315
-0.32
-0.325
-0.33
-0.335
-0.325
-0.32
-0.305
-0.295
-0.295
-0.3
-0.305
-0.32
-0.32
-0.32
-0.32
-0.32
-0.31
-0.305
-0.295
-0.3
-0.29
-0.295
-0.285
-0.29
-0.295
-0.305
-0.31
-0.3
-0.295
-0.28
-0.27
-0.26
-0.265
-0.27
-0.27
-0.265
-0.275
-0.275
-0.275
-0.28
-0.275
-0.255
-0.25
-0.245
-0.235
-0.235
-0.23
-0.23
-0.225
-0.235
-0.235
-0.225
-0.225
-0.21
-0.2
-0.185
-0.18
-0.175
-0.18
-0.165
-0.175
-0.175
-0.165
-0.165
-0.15
-0.14
-0.12
-0.115
-0.11
-0.105
-0.11
-0.115
-0.115
-0.1
-0.09
-0.08
-0.065
-0.05
-0.025
-0.025
-0.015
-0.005
0.0
0.005
0.015
0.01
0.015
0.015
0.02
0.035
0.055
0.07
0.07
0.085
0.09
0.09
0.095
0.095
0.1
0.105
0.105
0.13
0.125
0.15
0.155
0.16
0.165
0.155
0.15
0.155
0.155
0.145
0.15
0.155
0.15
0.14
0.145
0.12
0.105
0.095
0.09
0.065
0.065
0.045
0.035
0.02
0.01
0.01
-0.01
-0.025
-0.04
-0.05
-0.065
-0.075
-0.09
-0.105
-0.125
-0.13
-0.12
-0.12
-0.145
-0.13
-0.135
-0.15
-0.15
-0.15
-0.15
-0.155
-0.155
-0.15
-0.15
-0.14
-0.15
-0.15
-0.135
-0.15
-0.15
-0.155
-0.165
-0.16
-0.16
-0.175
-0.17
-0.17
-0.16
-0.165
-0.145
-0.165
-0.17
-0.175
-0.175
-0.18
-0.165
-0.155
-0.16
-0.15
-0.155
-0.145
-0.155
-0.175
-0.175
-0.185
-0.19
-0.195
-0.18
-0.175
-0.17
-0.16
-0.155
-0.165
-0.185
-0.19
-0.19
-0.205
-0.21
-0.215
-0.205
-0.205
-0.195
-0.19
-0.185
-0.195
-0.205
-0.21
-0.225
-0.245
-0.25
-0.245
-0.245
-0.23
-0.215
-0.21
-0.195
-0.17
-0.18
-0.17
-0.19
-0.19
-0.175
-0.185
-0.165
-0.14
-0.135
-0.11
-0.105
-0.085
-0.085
-0.075
-0.075
-0.085
-0.08
-0.105
-0.125
-0.125
-0.12
-0.125
-0.13
-0.145
-0.17
-0.18
-0.215
-0.235
-0.245
-0.255
-0.25
-0.26
-0.25
-0.24
-0.255
-0.245
-0.27
-0.275
-0.295
-0.31
-0.315
-0.315
-0.31
-0.305
-0.29
-0.29
-0.285
-0.285
-0.285
-0.295
-0.295
-0.31
-0.3
-0.31
-0.31
-0.305
-0.31
-0.29
-0.3
-0.285
-0.29
-0.285
-0.3
-0.315
-0.32
-0.325
-0.32
-0.3
-0.29
-0.29
-0.29
-0.29
-0.295
-0.285
-0.28
-0.29
-0.285
-0.295
-0.285
-0.285
-0.28
-0.27
-0.275
-0.275
-0.275
-0.295
-0.315
-0.305
-0.305
-0.31
-0.31
-0.295
-0.285
-0.275
-0.275
-0.27
-0.265
-0.275
-0.285
-0.295
-0.31
-0.3
-0.3
-0.3
-0.305
-0.315
-0.325
-0.325
-0.315
-0.305
-0.28
-0.26
-0.255
-0.27
-0.28
-0.29
-0.29
-0.29
-0.3
-0.295
-0.295
-0.29
-0.295
-0.295
-0.295
-0.295
-0.285
-0.27
-0.27
-0.26
-0.265
-0.255
-0.265
-0.295
-0.285
-0.29
-0.29
-0.29
-0.265
-0.26
-0.255
-0.26
-0.275
-0.28
-0.285
-0.29
-0.295
-0.29
-0.275
-0.27
-0.255
-0.245
-0.235
-0.235
-0.275
-0.265
-0.275
-0.275
-0.27
-0.27
-0.28
-0.275
-0.28
-0.275
-0.28
-0.265
-0.265
-0.25
-0.255
-0.26
-0.255
-0.275
-0.27
-0.28
-0.27
-0.26
-0.24
-0.245
-0.23
-0.23
-0.24
-0.255
-0.25
-0.26
-0.265
-0.265
-0.25
-0.245
-0.24
-0.235
-0.235
-0.245
-0.25
-0.25
-0.255
-0.255
-0.27
-0.265
-0.27
-0.25
-0.245
-0.225
-0.23
-0.23
-0.24
-0.25
-0.24
-0.24
-0.235
-0.225
-0.225
-0.22
-0.22
-0.215
-0.23
-0.235
-0.235
-0.245
-0.245
-0.26
-0.255
-0.26
-0.27
-0.24
-0.23
-0.22
-0.21
-0.205
-0.21
-0.21
-0.21
-0.225
-0.235
-0.235
-0.225
-0.22
-0.21
-0.205
-0.205
-0.215
-0.215
-0.22
-0.23
-0.23
-0.23
-0.22
-0.215
-0.21
-0.195
-0.19
-0.195
-0.195
-0.2
-0.205
-0.205
-0.21
-0.205
-0.215
-0.215
-0.21
-0.215
-0.215
-0.195
-0.2
-0.205
-0.205
-0.205
-0.22
-0.215
-0.215
-0.215
-0.205
-0.205
-0.2
-0.21
-0.19
-0.21
-0.205
-0.205
-0.21
-0.2
-0.205
-0.2
-0.21
-0.19
-0.18
-0.175
-0.195
-0.19
-0.19
-0.19
-0.2
-0.21
-0.21
-0.2
-0.2
-0.185
-0.18
-0.18
-0.19
-0.2
-0.2
-0.2
-0.205
-0.2
-0.205
-0.2
-0.19
-0.185
-0.195
-0.19
-0.185
-0.19
-0.185
-0.175
-0.18
-0.18
-0.18
-0.165
-0.16
-0.145
-0.135
-0.125
-0.11
-0.11
-0.115
-0.1
-0.1
-0.085
-0.05
-0.03
-0.015
0.0
0.015
0.01
-0.01
-0.025
-0.035
-0.055
-0.065
-0.08
-0.105
-0.11
-0.125
-0.135
-0.14
-0.15
-0.175
-0.185
-0.195
-0.21
-0.225
-0.225
-0.23
-0.225
-0.215
-0.23
-0.215
-0.21
-0.22
-0.215
-0.23
-0.225
-0.225
-0.245
-0.24
-0.23
-0.225
-0.225
-0.215
-0.215
-0.215
-0.22
-0.245
-0.25
-0.3
-0.365
-0.41
-0.46
-0.435
-0.325
-0.085
0.235
0.605
0.995
1.32
1.55
1.625
1.485
1.14
0.675
0.245
-0.06
-0.21
-0.255
-0.24
-0.205
-0.195
-0.19
-0.205
-0.235
-0.27
-0.29
-0.295
-0.295
-0.27
-0.255
-0.265
-0.26
-0.28
-0.295
-0.33
-0.33
-0.32
-0.315
-0.31
-0.315
-0.295
-0.305
-0.3
-0.31
-0.32
-0.32
-0.325
-0.315
-0.325
-0.34
-0.315
-0.31
-0.295
-0.305
-0.31
-0.3
-0.31
-0.315
-0.315
-0.315
-0.305
-0.31
-0.305
-0.305
-0.305
-0.305
-0.3
-0.295
-0.31
-0.305
-0.305
-0.31
-0.32
-0.305
-0.295
-0.3
-0.29
-0.29
-0.285
-0.29
-0.29
-0.295
-0.295
-0.295
-0.28
-0.285
-0.27
-0.265
-0.255
-0.25
-0.255
-0.245
-0.255
-0.26
-0.26
-0.245
-0.245
-0.24
-0.23
-0.23
-0.22
-0.215
-0.23
-0.21
-0.21
-0.22
-0.21
-0.21
-0.205
-0.19
-0.185
-0.175
-0.155
-0.165
-0.15
-0.155
-0.155
-0.16
-0.155
-0.155
-0.145
-0.14
-0.135
-0.12
-0.11
-0.105
-0.09
-0.085
-0.075
-0.08
-0.065
-0.075
-0.065
-0.06
-0.035
-0.015
0.005
-0.005
0.015
0.025
0.035
0.04
0.045
0.035
0.06
0.065
0.095
0.1
0.12
0.13
0.145
0.15
0.15
0.155
0.16
0.15
0.16
0.16
0.17
0.17
0.17
0.17
0.17
0.155
0.15
0.145
0.12
0.105
0.095
0.09
0.085
0.07
0.06
0.045
0.02
0.01
-0.01
-0.045
-0.06
-0.075
-0.075
-0.085
-0.095
-0.1
-0.1
-0.11
-0.115
-0.12
-0.135
-0.145
-0.16
-0.16
-0.155
-0.165
-0.16
-0.155
-0.155
-0.15
-0.145
-0.155
-0.16
-0.165
-0.175
-0.185
-0.18
-0.18
-0.165
-0.17
-0.15
-0.155
-0.15
-0.165
-0.165
-0.175
-0.175
-0.19
-0.185
-0.19
-0.18
-0.18
-0.165
-0.16
-0.165
-0.17
-0.185
-0.19
-0.2
-0.2
-0.19
-0.195
-0.185
-0.185
-0.165
-0.18
-0.18
-0.18
-0.185
-0.205
-0.21
-0.215
-0.21
-0.205
-0.2
-0.21
-0.205
-0.21
-0.215
-0.21
-0.215
-0.215
-0.225
-0.225
-0.225
-0.235
-0.22
-0.205
-0.19
-0.19
-0.18
-0.175
-0.175
-0.175
-0.18
-0.185
-0.195
-0.19
-0.16
-0.145
-0.135
-0.12
-0.09
-0.075
-0.075
-0.065
-0.08
-0.09
-0.1
-0.115
-0.12
-0.125
-0.125
-0.15
-0.165
-0.18
-0.195
-0.22
-0.23
-0.26
-0.265
-0.27
-0.275
-0.275
-0.275
-0.275
-0.265
-0.27
-0.29
-0.29
-0.315
-0.305
-0.305
-0.31
-0.305
-0.3
-0.285
-0.29
-0.29
-0.3
-0.305
-0.305
-0.31
-0.31
-0.325
-0.325
-0.305
-0.31
-0.3
-0.3
-0.295
-0.295
-0.305
-0.305
-0.31
-0.305
-0.32
-0.305
-0.3
-0.3
-0.29
-0.295
-0.29
-0.3
-0.305
-0.315
-0.32
-0.32
-0.315
-0.325
-0.325
-0.32
-0.315
-0.3
-0.3
-0.305
-0.315
-0.31
-0.32
-0.315
-0.32
-0.325
-0.32
-0.3
-0.295
-0.295
-0.29
-0.29
-0.305
-0.305
-0.315
-0.315
-0.315
-0.315
-0.315
-0.305
-0.3
-0.3
-0.295
-0.295
-0.29
-0.305
-0.31
-0.3
-0.31
-0.305
-0.31
-0.315
-0.3
-0.28
-0.285
-0.275
-0.295
-0.3
-0.295
-0.295
-0.29
-0.3
-0.285
-0.285
-0.28
-0.28
-0.28
-0.285
-0.285
-0.275
-0.295
-0.3
-0.29
-0.295
-0.275
-0.26
-0.265
-0.28
-0.27
-0.275
-0.27
-0.27
-0.27
-0.265
-0.27
-0.265
-0.265
-0.26
-0.25
-0.265
-0.26
-0.27
-0.275
-0.275
-0.275
-0.28
-0.275
-0.27
-0.27
-0.265
-0.25
-0.255
-0.26
-0.255
-0.27
-0.265
-0.27
-0.27
-0.27
-0.26
-0.26
-0.25
-0.24
-0.24
-0.24
-0.24
-0.245
-0.25
-0.245
-0.26
-0.26
-0.255
-0.24
-0.24
-0.225
-0.22
-0.225
-0.235
-0.255
-0.25
-0.26
-0.255
-0.25
-0.24
-0.24
-0.24
-0.225
-0.22
-0.225
-0.23
-0.225
-0.24
-0.235
-0.24
-0.24
-0.245
-0.235
-0.225
-0.22
-0.22
-0.23
-0.225
-0.235
-0.235
-0.25
-0.25
-0.235
-0.225
-0.23
-0.225
-0.215
-0.215
-0.215
-0.205
-0.225
-0.21
-0.24
-0.235
-0.24
-0.23
-0.225
-0.22
-0.205
-0.215
-0.22
-0.2
-0.215
-0.215
-0.22
-0.235
-0.22
-0.225
-0.215
-0.21
-0.21
-0.205
-0.2
-0.21
-0.21
-0.21
-0.215
-0.215
-0.22
-0.21
-0.2
-0.2
-0.2
-0.19
-0.19
-0.19
-0.2
-0.2
-0.195
-0.215
-0.22
-0.21
-0.2
-0.2
-0.19
-0.19
-0.185
-0.185
-0.2
-0.21
-0.22
-0.23
-0.24
-0.23
-0.21
-0.205
-0.195
-0.175
-0.19
-0.19
-0.2
-0.195
-0.21
-0.215
-0.225
-0.22
-0.18
-0.185
-0.18
-0.175
-0.18
-0.185
-0.19
-0.185
-0.195
-0.2
-0.195
-0.2
-0.195
-0.165
-0.16
-0.145
-0.135
-0.145
-0.135
-0.155
-0.16
-0.155
-0.145
-0.115
-0.08
-0.05
-0.02
0.0
0.0
0.01
-0.01
-0.025
-0.05
-0.07
-0.09
-0.085
-0.095
-0.105
-0.11
-0.13
-0.135
-0.145
-0.165
-0.185
-0.2
-0.205
-0.22
-0.215
-0.21
-0.22
-0.205
-0.225
-0.225
-0.225
-0.235
-0.23
-0.235
-0.255
-0.24
-0.255
-0.25
-0.25
-0.245
-0.24
-0.25
-0.23
-0.245
-0.25
-0.255
-0.255
-0.255
-0.27
-0.31
-0.365
-0.425
-0.445
-0.4
-0.25
-0.005
0.31
0.67
1.04
1.375
1.58
1.605
1.425
1.055
0.575
0.16
-0.115
-0.245
-0.27
-0.25
-0.22
-0.195
-0.18
-0.19
-0.23
-0.27
-0.28
-0.3
-0.29
-0.295
-0.295
-0.295
-0.31
-0.33
-0.335
-0.335
-0.34
-0.335
-0.335
-0.34
-0.34
-0.35
-0.36
-0.365
-0.365
-0.355
-0.35
-0.345
-0.335
-0.33
-0.325
-0.345
-0.345
-0.35
-0.34
-0.35
-0.335
-0.33
-0.33
-0.32
-0.33
-0.325
-0.325
-0.32
-0.32
-0.32
-0.33
-0.335
-0.35
-0.345
-0.34
-0.33
-0.31
-0.285
-0.285
-0.29
-0.3
-0.3
-0.315
-0.325
-0.335
-0.31
-0.305
-0.29
-0.275
-0.265
-0.26
-0.265
-0.265
-0.28
-0.285
-0.295
-0.28
-0.28
-0.27
-0.255
-0.24
-0.22
-0.21
-0.21
-0.205
-0.22
-0.22
-0.22
-0.23
-0.225
-0.22
-0.2
-0.2
-0.185
-0.175
-0.175
-0.16
-0.16
-0.165
-0.16
-0.16
-0.155
-0.14
-0.12
-0.105
-0.105
-0.1
-0.105
-0.095
-0.08
-0.08
-0.07
-0.055
-0.065
-0.05
-0.04
-0.025
-0.015
0.005
0.015
0.035
0.04
0.05
0.055
0.055
0.06
0.065
0.07
0.08
0.09
0.08
0.09
0.105
0.115
0.14
0.145
0.155
0.15
0.145
0.145
0.155
0.165
0.185
0.18
0.185
0.17
0.15
0.13
0.11
0.095
0.1
0.11
0.105
0.11
0.1
0.085
0.055
0.015
0.015
0.0
-0.02
-0.04
-0.04
-0.04
-0.035
-0.055
-0.065
-0.085
-0.095
-0.11
-0.13
-0.15
-0.155
-0.17
-0.165
-0.165
-0.18
-0.175
-0.175
-0.185
-0.185
-0.185
-0.185
-0.21
-0.205
-0.215
-0.215
-0.205
-0.205
-0.205
-0.205
-0.21
-0.205
-0.22
-0.21
-0.21
-0.21
-0.215
-0.21
-0.215
-0.225
-0.22
-0.215
-0.21
-0.225
-0.22
-0.22
-0.215
-0.21
-0.21
-0.21
-0.215
-0.21
-0.2
-0.185
-0.19
-0.185
-0.19
-0.205
-0.225
-0.235
-0.25
-0.25
-0.245
-0.225
-0.215
-0.195
-0.205
-0.2
-0.205
-0.225
-0.23
-0.225
-0.205
-0.175
-0.165
-0.155
-0.14
-0.14
-0.135
-0.125
-0.12
-0.13
-0.125
-0.13
-0.1
-0.095
-0.085
-0.08
-0.075
-0.08
-0.1
-0.115
-0.125
-0.145
-0.15
-0.18
-0.19
-0.195
-0.205
-0.225
-0.245
-0.25
-0.27
-0.28
-0.31
-0.315
-0.315
-0.33
-0.335
-0.33
-0.315
-0.31
-0.31
-0.31
-0.32
-0.31
-0.32
-0.325
-0.32
-0.33
-0.335
-0.315
-0.315
-0.32
-0.33
-0.33
-0.325
-0.325
-0.32
-0.33
-0.33
-0.345
-0.335
-0.34
-0.33
-0.32
-0.305
-0.31
-0.32
-0.315
-0.325
-0.32
-0.34
-0.345
-0.335
-0.34
-0.335
-0.325
-0.32
-0.325
-0.315
-0.315
-0.315
-0.32
-0.335
-0.345
-0.34
-0.34
-0.345
-0.345
-0.34
-0.325
-0.325
-0.325
-0.335
-0.33
-0.34
-0.345
-0.355
-0.34
-0.325
-0.325
-0.315
-0.31
-0.325
-0.33
-0.33
-0.35
-0.345
-0.355
-0.345
-0.34
-0.335
-0.335
-0.325
-0.32
-0.315
-0.315
-0.325
-0.32
-0.33
-0.345
-0.34
-0.34
-0.33
-0.32
-0.31
-0.315
-0.32
-0.315
-0.31
-0.315
-0.32
-0.33
-0.325
-0.335
-0.32
-0.315
-0.31
-0.31
-0.32
-0.315
-0.31
-0.305
-0.32
-0.33
-0.32
-0.335
-0.32
-0.33
-0.32
-0.305
-0.31
-0.305
-0.305
-0.305
-0.32
-0.325
-0.325
-0.32
-0.315
-0.3
-0.295
-0.3
-0.295
-0.3
-0.3
-0.29
-0.3
-0.31
-0.305
-0.305
-0.305
-0.3
-0.285
-0.28
-0.28
-0.29
-0.295
-0.3
-0.295
-0.305
-0.305
-0.315
-0.31
-0.315
-0.305
-0.305
-0.305
-0.295
-0.3
-0.3
-0.315
-0.295
-0.295
-0.3
-0.285
-0.285
-0.285
-0.28
-0.28
-0.275
-0.28
-0.285
-0.29
-0.3
-0.3
-0.3
-0.29
-0.28
-0.275
-0.265
-0.27
-0.26
-0.28
-0.29
-0.29
-0.29
-0.295
-0.295
-0.29
-0.28
-0.275
-0.265
-0.275
-0.27
-0.27
-0.28
-0.28
-0.305
-0.295
-0.29
-0.29
-0.28
-0.28
-0.28
-0.285
-0.275
-0.28
-0.275
-0.29
-0.295
-0.29
-0.295
-0.28
-0.28
-0.275
-0.27
-0.27
-0.265
-0.285
-0.29
-0.29
-0.29
-0.29
-0.275
-0.28
-0.28
-0.275
-0.255
-0.255
-0.245
-0.255
-0.265
-0.26
-0.27
-0.26
-0.255
-0.265
-0.26
-0.26
-0.255
-0.25
-0.26
-0.265
-0.275
-0.265
-0.265
-0.27
-0.275
-0.27
-0.265
-0.25
-0.245
-0.25
-0.25
-0.25
-0.265
-0.26
-0.265
-0.255
-0.26
-0.26
-0.26
-0.26
-0.24
-0.24
-0.235
-0.235
-0.24
-0.235
-0.25
-0.23
-0.22
-0.245
-0.21
-0.19
-0.18
-0.165
-0.165
-0.17
-0.16
-0.155
-0.14
-0.13
-0.105
-0.08
-0.06
-0.04
-0.045
-0.045
-0.045
-0.07
-0.085
-0.095
-0.11
-0.125
-0.14
-0.145
-0.145
-0.155
-0.17
-0.195
-0.215
-0.225
-0.25
-0.275
-0.26
-0.27
-0.27
-0.26
-0.26
-0.26
-0.255
-0.265
-0.25
-0.265
-0.27
-0.285
-0.285
-0.28
-0.295
-0.275
-0.265
-0.26
-0.255
-0.255
-0.25
-0.265
-0.275
-0.31
-0.35
-0.415
-0.485
-0.51
-0.44
-0.26
0.055
0.45
0.885
1.275
1.535
1.56
1.315
0.87
0.375
-0.015
-0.245
-0.335
-0.345
-0.3
-0.265
-0.245
-0.25
-0.29
-0.315
-0.325
-0.345
-0.345
-0.35
-0.34
-0.34
-0.36
-0.36
-0.365
-0.36
-0.37
-0.37
-0.385
-0.38
-0.37
-0.365
-0.36
-0.35
-0.35
-0.35
-0.35
-0.37
-0.385
-0.39
-0.37
-0.365
-0.365
-0.355
-0.35
-0.34
-0.34
-0.335
-0.34
-0.35
-0.35
-0.365
-0.375
-0.355
-0.34
-0.345
-0.33
-0.325
-0.32
-0.32
-0.32
-0.325
-0.33
-0.34
-0.33
-0.315
-0.32
-0.305
-0.295
-0.28
-0.295
-0.28
-0.285
-0.285
-0.285
-0.295
-0.29
-0.28
-0.275
-0.26
-0.24
-0.255
-0.235
-0.24
-0.24
-0.24
-0.25
-0.255
-0.235
-0.24
-0.23
-0.215
-0.205
-0.195
-0.195
-0.185
-0.195
-0.2
-0.19
-0.185
-0.175
-0.17
-0.165
-0.155
-0.16
-0.135
-0.135
-0.13
-0.13
-0.115
-0.11
-0.105
-0.095
-0.09
-0.075
-0.06
-0.05
-0.035
-0.04
-0.02
-0.01
-0.01
-0.005
-0.005
0.005
0.02
0.035
0.05
0.06
0.085
0.095
0.105
0.11
0.11
0.115
0.105
0.12
0.13
0.135
0.145
0.15
0.16
0.15
0.15
0.14
0.135
0.125
0.11
0.1
0.105
0.095
0.095
0.095
0.08
0.075
0.055
0.035
0.015
-0.005
-0.025
-0.04
-0.06
-0.065
-0.08
-0.08
-0.09
-0.1
-0.11
-0.115
-0.12
-0.135
-0.155
-0.16
-0.175
-0.17
-0.175
-0.155
-0.15
-0.165
-0.165
-0.175
-0.17
-0.195
-0.21
-0.21
-0.2
-0.195
-0.175
-0.195
-0.17
-0.185
-0.18
-0.19
-0.18
-0.195
-0.2
-0.205
-0.205
-0.21
-0.2
-0.205
-0.19
-0.19
-0.195
-0.185
-0.19
-0.205
-0.205
-0.215
-0.225
-0.21
-0.195
-0.195
-0.19
-0.2
-0.2
-0.2
-0.235
-0.23
-0.23
-0.24
-0.225
-0.215
-0.22
-0.21
-0.2
-0.2
-0.185
-0.185
-0.19
-0.185
-0.195
-0.185
-0.19
-0.19
-0.17
-0.155
-0.15
-0.14
-0.13
-0.125
-0.105
-0.095
-0.08
-0.08
-0.08
-0.08
-0.085
-0.09
-0.1
-0.11
-0.13
-0.14
-0.16
-0.185
-0.22
-0.25
-0.275
-0.295
-0.305
-0.31
-0.3
-0.3
-0.29
-0.29
-0.3
-0.31
-0.335
-0.34
-0.34
-0.345
-0.345
-0.335
-0.32
-0.335
-0.335
-0.345
-0.35
-0.355
-0.345
-0.335
-0.315
-0.32
-0.315
-0.315
-0.31
-0.325
-0.33
-0.34
-0.34
-0.335
-0.355
-0.36
-0.35
-0.335
-0.33
-0.325
-0.325
-0.31
-0.315
-0.325
-0.33
-0.34
-0.34
-0.345
-0.345
-0.335
-0.345
-0.325
-0.33
-0.32
-0.32
-0.32
-0.325
-0.34
-0.34
-0.335
-0.325
-0.34
-0.325
-0.345
-0.335
-0.33
-0.325
-0.325
-0.325
-0.315
-0.325
-0.32
-0.31
-0.31
-0.325
-0.32
-0.325
-0.325
-0.325
-0.32
-0.315
-0.325
-0.335
-0.33
-0.325
-0.32
-0.31
-0.305
-0.29
-0.29
-0.305
-0.305
-0.305
-0.32
-0.325
-0.33
-0.33
-0.33
-0.33
-0.325
-0.325
-0.305
-0.3
-0.295
-0.305
-0.305
-0.305
-0.315
-0.305
-0.31
-0.295
-0.29
-0.295
-0.305
-0.315
-0.315
-0.305
-0.305
-0.3
-0.295
-0.29
-0.285
-0.295
-0.285
-0.285
-0.3
-0.295
-0.3
-0.29
-0.285
-0.295
-0.275
-0.285
-0.285
-0.285
-0.285
-0.285
-0.29
-0.285
-0.285
-0.28
-0.27
-0.28
-0.28
-0.285
-0.285
-0.29
-0.285
-0.28
-0.285
-0.265
-0.27
-0.265
-0.26
-0.27
-0.28
-0.275
-0.27
-0.265
-0.255
-0.245
-0.235
-0.24
-0.27
-0.29
-0.29
-0.295
-0.295
-0.285
-0.28
-0.275
-0.265
-0.26
-0.245
-0.25
-0.265
-0.255
-0.255
-0.27
-0.27
-0.265
-0.27
-0.255
-0.25
-0.25
-0.255
-0.25
-0.255
-0.255
-0.25
-0.255
-0.265
-0.27
-0.27
-0.27
-0.26
-0.255
-0.25
-0.235
-0.235
-0.225
-0.255
-0.27
-0.26
-0.265
-0.265
-0.255
-0.26
-0.24
-0.255
-0.25
-0.245
-0.25
-0.245
-0.26
-0.25
-0.245
-0.24
-0.25
-0.235
-0.245
-0.245
-0.245
-0.255
-0.25
-0.255
-0.255
-0.25
-0.25
-0.235
-0.225
-0.22
-0.215
-0.23
-0.235
-0.235
-0.24
-0.255
-0.255
-0.25
-0.235
-0.245
-0.245
-0.255
-0.245
-0.245
-0.25
-0.235
-0.24
-0.225
-0.225
-0.215
-0.22
-0.225
-0.225
-0.235
-0.24
-0.23
-0.235
-0.225
-0.22
-0.21
-0.225
-0.22
-0.22
-0.215
-0.21
-0.205
-0.175
-0.17
-0.165
-0.155
-0.145
-0.16
-0.155
-0.14
-0.145
-0.145
-0.135
-0.115
-0.09
-0.06
-0.03
-0.015
-0.01
-0.015
-0.04
-0.055
-0.07
-0.07
-0.08
-0.09
-0.085
-0.105
-0.115
-0.125
-0.16
-0.17
-0.185
-0.22
-0.225
-0.235
-0.23
-0.225
-0.22
-0.22
-0.22
-0.23
-0.24
-0.24
-0.25
-0.255
-0.255
-0.245
-0.245
-0.24
-0.225
-0.225
-0.225
-0.23
-0.24
-0.25
-0.245
-0.265
-0.265
-0.245
-0.275
-0.305
-0.35
-0.415
-0.425
-0.375
-0.225
0.03
0.35
0.715
1.085
1.37
1.525
1.495
1.225
0.785
0.29
-0.125
-0.37
-0.46
-0.455
-0.425
-0.375
