Lead II
-0.45
-0.465
-0.48
-0.505
-0.525
-0.495
-0.39
-0.25
-0.06
0.17
0.42
0.685
0.85
0.935
0.855
0.575
0.155
-0.225
-0.435
-0.485
-0.47
-0.415
-0.375
-0.36
-0.385
-0.39
-0.39
-0.37
-0.35
-0.355
-0.355
-0.36
-0.365
-0.365
-0.355
-0.37
-0.38
-0.39
-0.4
-0.395
-0.38
-0.37
-0.38
-0.38
-0.39
-0.39
-0.385
-0.385
-0.39
-0.405
-0.395
-0.385
-0.375
-0.385
-0.385
-0.395
-0.395
-0.385
-0.37
-0.375
-0.38
-0.395
-0.385
-0.385
-0.37
-0.375
-0.385
-0.385
-0.395
-0.395
-0.38
-0.385
-0.38
-0.385
-0.41
-0.39
-0.385
-0.385
-0.385
-0.38
-0.38
-0.38
-0.37
-0.37
-0.39
-0.38
-0.39
-0.38
-0.375
-0.385
-0.395
-0.395
-0.4
-0.415
-0.41
-0.41
-0.415
-0.415
-0.42
-0.41
-0.415
-0.42
-0.43
-0.44
-0.45
-0.44
-0.435
-0.44
-0.445
-0.455
-0.445
-0.435
-0.41
-0.405
-0.4
-0.4
-0.385
-0.37
-0.34
-0.33
-0.325
-0.325
-0.31
-0.29
-0.28
-0.275
-0.27
-0.28
-0.275
-0.255
-0.25
-0.255
-0.265
-0.265
-0.26
-0.255
-0.245
-0.245
-0.26
-0.26
-0.26
-0.25
-0.25
-0.245
-0.25
-0.25
-0.265
-0.25
-0.235
-0.245
-0.25
-0.26
-0.27
-0.27
-0.255
-0.26
-0.265
-0.28
-0.285
-0.285
-0.255
-0.265
-0.265
-0.285
-0.285
-0.28
-0.275
-0.27
-0.275
-0.29
-0.295
-0.28
-0.27
-0.285
-0.3
-0.29
-0.31
-0.285
-0.28
-0.28
-0.285
-0.295
-0.295
-0.28
-0.27
-0.275
-0.285
-0.285
-0.295
-0.285
-0.28
-0.27
-0.28
-0.295
-0.295
-0.29
-0.28
-0.275
-0.285
-0.29
-0.295
-0.3
-0.265
-0.27
-0.28
-0.29
-0.295
-0.275
-0.27
-0.28
-0.28
-0.29
-0.28
-0.275
-0.27
-0.265
-0.275
-0.28
-0.285
-0.27
-0.255
-0.235
-0.245
-0.235
-0.225
-0.215
-0.195
-0.2
-0.21
-0.225
-0.215
-0.19
-0.175
-0.17
-0.185
-0.175
-0.18
-0.17
-0.15
-0.155
-0.17
-0.18
-0.19
-0.19
-0.185
-0.185
-0.19
-0.2
-0.2
-0.205
-0.175
-0.17
-0.155
-0.175
-0.2
-0.215
-0.21
-0.24
-0.255
-0.27
-0.285
-0.285
-0.275
-0.275
-0.285
-0.29
-0.295
-0.295
-0.285
-0.29
-0.295
-0.3
-0.295
-0.285
-0.285
-0.29
-0.3
-0.305
-0.295
-0.29
-0.29
-0.29
-0.31
-0.33
-0.375
-0.405
-0.415
-0.435
-0.475
-0.495
-0.45
-0.32
-0.155
0.015
0.205
0.455
0.72
0.98
1.125
1.145
1.01
0.645
0.165
-0.225
-0.395
-0.4
-0.365
-0.335
-0.31
-0.29
-0.285
-0.31
-0.31
-0.315
-0.32
-0.32
-0.315
-0.315
-0.32
-0.335
-0.345
-0.345
-0.34
-0.33
-0.35
-0.345
-0.34
-0.34
-0.33
-0.33
-0.35
-0.345
-0.35
-0.345
-0.33
-0.345
-0.34
-0.35
-0.355
-0.34
-0.33
-0.33
-0.35
-0.35
-0.345
-0.34
-0.33
-0.34
-0.345
-0.345
-0.35
-0.335
-0.345
-0.34
-0.345
-0.35
-0.35
-0.34
-0.33
-0.335
-0.345
-0.355
-0.35
-0.355
-0.34
-0.335
-0.34
-0.35
-0.365
-0.35
-0.35
-0.36
-0.34
-0.355
-0.36
-0.35
-0.34
-0.34
-0.345
-0.35
-0.355
-0.35
-0.335
-0.34
-0.355
-0.355
-0.365
-0.35
-0.33
-0.34
-0.355
-0.35
-0.365
-0.355
-0.355
-0.36
-0.36
-0.36
-0.355
-0.35
-0.34
-0.34
-0.35
-0.335
-0.34
-0.32
-0.295
-0.285
-0.285
-0.27
-0.265
-0.255
-0.24
-0.23
-0.23
-0.24
-0.23
-0.23
-0.215
-0.205
-0.21
-0.205
-0.21
-0.21
-0.205
-0.2
-0.205
-0.22
-0.22
-0.22
-0.215
-0.2
-0.21
-0.205
-0.22
-0.21
-0.19
-0.195
-0.2
-0.215
-0.21
-0.21
-0.2
-0.205
-0.22
-0.225
-0.215
-0.215
-0.2
-0.205
-0.22
-0.235
-0.235
-0.22
-0.22
-0.225
-0.23
-0.24
-0.245
-0.235
-0.23
-0.23
-0.24
-0.245
-0.255
-0.245
-0.24
-0.235
-0.245
-0.24
-0.265
-0.25
-0.24
-0.245
-0.25
-0.25
-0.26
-0.25
-0.235
-0.24
-0.245
-0.25
-0.255
-0.24
-0.25
-0.235
-0.245
-0.245
-0.25
-0.245
-0.235
-0.25
-0.25
-0.25
-0.255
-0.25
-0.245
-0.225
-0.24
-0.245
-0.245
-0.23
-0.23
-0.225
-0.235
-0.245
-0.245
-0.235
-0.225
-0.225
-0.23
-0.235
-0.24
-0.215
-0.205
-0.185
-0.175
-0.175
-0.17
-0.165
-0.155
-0.15
-0.155
-0.145
-0.145
-0.135
-0.13
-0.12
-0.125
-0.135
-0.145
-0.14
-0.135
-0.16
-0.15
-0.16
-0.175
-0.165
-0.145
-0.145
-0.12
-0.125
-0.12
-0.13
-0.15
-0.17
-0.18
-0.195
-0.21
-0.215
-0.215
-0.22
-0.24
-0.245
-0.255
-0.245
-0.24
-0.235
-0.255
-0.265
-0.27
-0.255
-0.245
-0.25
-0.255
-0.265
-0.265
-0.26
-0.26
-0.255
-0.25
-0.265
-0.265
-0.28
-0.25
-0.255
-0.27
-0.305
-0.36
-0.39
-0.405
-0.41
-0.465
-0.465
-0.415
-0.27
-0.115
0.055
0.24
0.495
0.775
0.99
1.1
1.065
0.81
0.365
-0.09
-0.355
-0.4
-0.35
-0.295
-0.295
-0.29
-0.29
-0.285
-0.295
-0.29
-0.315
-0.31
-0.31
-0.3
-0.31
-0.31
-0.32
-0.315
-0.31
-0.305
-0.305
-0.315
-0.31
-0.315
-0.31
-0.3
-0.305
-0.305
-0.32
-0.315
-0.315
-0.305
-0.3
-0.29
-0.3
-0.305
-0.3
-0.3
-0.3
-0.31
-0.325
-0.32
-0.31
-0.3
-0.295
-0.315
-0.305
-0.31
-0.315
-0.315
-0.315
-0.315
-0.33
-0.33
-0.315
-0.325
-0.31
-0.32
-0.325
-0.325
-0.32
-0.31
-0.32
-0.325
-0.32
-0.335
-0.31
-0.315
-0.32
-0.33
-0.33
-0.345
-0.34
-0.325
-0.315
-0.325
-0.335
-0.345
-0.335
-0.32
-0.325
-0.34
-0.35
-0.345
-0.33
-0.325
-0.33
-0.335
-0.33
-0.34
-0.325
-0.32
-0.31
-0.305
-0.305
-0.295
-0.28
-0.265
-0.25
-0.255
-0.25
-0.25
-0.23
-0.22
-0.215
-0.225
-0.225
-0.215
-0.205
-0.205
-0.19
-0.2
-0.205
-0.215
-0.195
-0.195
-0.19
-0.195
-0.195
-0.21
-0.195
-0.185
-0.185
-0.195
-0.205
-0.21
-0.205
-0.195
-0.185
-0.2
-0.2
-0.225
-0.22
-0.205
-0.2
-0.21
-0.22
-0.225
-0.215
-0.21
-0.225
-0.22
-0.215
-0.225
-0.225
-0.205
-0.21
-0.215
-0.225
-0.245
-0.22
-0.23
-0.23
-0.23
-0.24
-0.25
-0.245
-0.23
-0.235
-0.235
-0.25
-0.265
-0.255
-0.245
-0.245
-0.245
-0.255
-0.265
-0.25
-0.245
-0.235
-0.245
-0.25
-0.26
-0.25
-0.245
-0.235
-0.24
-0.245
-0.255
-0.25
-0.235
-0.24
-0.24
-0.245
-0.25
-0.24
-0.225
-0.235
-0.23
-0.25
-0.255
-0.245
-0.225
-0.225
-0.24
-0.24
-0.24
-0.23
-0.23
-0.215
-0.215
-0.215
-0.205
-0.185
-0.175
-0.165
-0.17
-0.165
-0.165
-0.15
-0.13
-0.13
-0.125
-0.13
-0.13
-0.13
-0.12
-0.115
-0.135
-0.14
-0.145
-0.135
-0.12
-0.145
-0.15
-0.15
-0.135
-0.105
-0.09
-0.115
-0.155
-0.18
-0.19
-0.195
-0.195
-0.205
-0.22
-0.225
-0.23
-0.22
-0.23
-0.22
-0.24
-0.26
-0.245
-0.23
-0.22
-0.245
-0.255
-0.26
-0.255
-0.245
-0.235
-0.245
-0.265
-0.255
-0.285
-0.27
-0.25
-0.235
-0.265
-0.28
-0.32
-0.36
-0.375
-0.395
-0.44
-0.47
-0.44
-0.32
-0.21
-0.07
0.085
0.28
0.54
0.775
0.94
1.025
1.08
1.11
1.04
0.84
0.515
0.13
-0.19
-0.35
-0.405
-0.37
-0.32
-0.3
-0.285
-0.29
-0.3
-0.29
-0.29
-0.305
-0.3
-0.3
-0.3
-0.29
-0.285
-0.29
-0.3
-0.3
-0.305
-0.3
-0.295
-0.295
-0.295
-0.3
-0.3
-0.305
-0.29
-0.295
-0.31
-0.32
-0.325
-0.32
-0.29
-0.305
-0.305
-0.32
-0.33
-0.335
-0.31
-0.305
-0.3
-0.31
-0.315
-0.32
-0.3
-0.295
-0.295
-0.305
-0.32
-0.31
-0.3
-0.29
-0.295
-0.305
-0.31
-0.295
-0.285
-0.29
-0.295
-0.31
-0.32
-0.305
-0.295
-0.3
-0.3
-0.31
-0.315
-0.315
-0.3
-0.295
-0.3
-0.3
-0.315
-0.32
-0.305
-0.32
-0.315
-0.315
-0.33
-0.32
-0.32
-0.325
-0.335
-0.355
-0.35
-0.33
-0.32
-0.32
-0.335
-0.34
-0.345
-0.335
-0.315
-0.315
-0.32
-0.33
-0.32
-0.285
-0.27
-0.265
-0.245
-0.24
-0.25
-0.235
-0.23
-0.245
-0.245
-0.24
-0.24
-0.225
-0.205
-0.195
-0.205
-0.225
-0.235
-0.225
-0.225
-0.225
-0.225
-0.225
-0.235
-0.215
-0.2
-0.21
-0.215
-0.215
-0.23
-0.225
-0.21
-0.21
-0.215
-0.225
-0.235
-0.235
-0.22
-0.23
-0.24
-0.24
-0.26
-0.245
-0.235
-0.23
-0.24
-0.255
-0.25
-0.245
-0.25
-0.255
-0.26
-0.265
-0.27
-0.27
-0.255
-0.26
-0.265
-0.28
-0.29
-0.29
-0.27
-0.27
-0.265
-0.265
-0.275
-0.27
-0.27
-0.265
-0.275
-0.275
-0.29
-0.29
-0.275
-0.27
-0.28
-0.29
-0.285
-0.285
-0.28
-0.28
-0.28
-0.275
-0.265
-0.265
-0.255
-0.27
-0.275
-0.28
-0.285
-0.3
-0.285
-0.275
-0.265
-0.275
-0.285
-0.275
-0.27
-0.265
-0.255
-0.25
-0.245
-0.215
-0.2
-0.195
-0.205
-0.205
-0.21
-0.195
-0.175
-0.165
-0.17
-0.175
-0.18
-0.175
-0.175
-0.165
-0.18
-0.195
-0.195
-0.195
-0.185
-0.19
-0.205
-0.21
-0.235
-0.235
-0.21
-0.215
-0.19
-0.18
-0.2
-0.21
-0.225
-0.24
-0.265
-0.295
-0.305
-0.295
-0.295
-0.3
-0.305
-0.31
-0.31
-0.31
-0.305
-0.305
-0.305
-0.315
-0.31
-0.305
-0.295
-0.305
-0.31
-0.315
-0.32
-0.305
-0.295
-0.3
-0.315
-0.325
-0.335
-0.33
-0.35
-0.375
-0.405
-0.445
-0.495
-0.515
-0.48
-0.375
-0.235
-0.09
0.075
0.315
0.56
0.775
0.915
0.955
0.82
0.55
0.17
-0.17
-0.38
-0.445
-0.445
-0.39
-0.37
-0.36
-0.36
-0.365
-0.355
-0.34
-0.34
-0.355
-0.36
-0.355
-0.35
-0.35
-0.34
-0.345
-0.355
-0.365
-0.37
-0.365
-0.34
-0.35
-0.35
-0.34
-0.345
-0.335
-0.325
-0.335
-0.35
-0.365
-0.375
-0.36
-0.345
-0.35
-0.35
-0.36
-0.385
-0.37
-0.355
-0.36
-0.365
-0.355
-0.375
-0.375
-0.36
-0.36
-0.37
-0.375
-0.37
-0.37
-0.36
-0.365
-0.37
-0.37
-0.37
-0.355
-0.35
-0.365
-0.36
-0.365
-0.38
-0.355
-0.355
-0.36
-0.37
-0.36
-0.375
-0.375
-0.38
-0.365
-0.37
-0.375
-0.39
-0.375
-0.375
-0.36
-0.375
-0.385
-0.385
-0.38
-0.375
-0.38
-0.39
-0.405
-0.42
-0.42
-0.41
-0.415
-0.415
-0.43
-0.44
-0.44
-0.435
-0.42
-0.43
-0.425
-0.44
-0.425
-0.425
-0.4
-0.41
-0.41
-0.39
-0.385
-0.36
-0.35
-0.34
-0.34
-0.355
-0.325
-0.31
-0.295
-0.29
-0.305
-0.29
-0.285
-0.265
-0.26
-0.265
-0.265
-0.275
-0.26
-0.235
-0.24
-0.24
-0.255
-0.255
-0.26
-0.245
-0.24
-0.25
-0.255
-0.25
-0.26
-0.25
-0.25
-0.255
-0.26
-0.27
-0.26
-0.255
-0.245
-0.26
-0.26
-0.265
-0.255
-0.255
-0.25
-0.27
-0.27
-0.275
-0.265
-0.26
-0.26
-0.265
-0.28
-0.29
-0.285
-0.27
-0.275
-0.28
-0.285
-0.29
-0.27
-0.275
-0.28
-0.28
-0.295
-0.305
-0.29
-0.28
-0.28
-0.285
-0.295
-0.29
-0.295
-0.285
-0.28
-0.29
-0.3
-0.3
-0.295
-0.28
-0.28
-0.285
-0.295
-0.29
-0.29
-0.29
-0.28
-0.285
-0.29
-0.29
-0.28
-0.28
-0.29
-0.285
-0.295
-0.3
-0.29
-0.28
-0.285
-0.295
-0.295
-0.295
-0.3
-0.28
-0.285
-0.29
-0.29
-0.29
-0.28
-0.27
-0.27
-0.275
-0.28
-0.29
-0.27
-0.265
-0.245
-0.235
-0.225
-0.225
-0.22
-0.215
-0.2
-0.2
-0.205
-0.215
-0.195
-0.18
-0.17
-0.175
-0.18
-0.2
-0.19
-0.19
-0.19
-0.195
-0.21
-0.205
-0.205
-0.21
-0.2
-0.19
-0.175
-0.175
-0.185
-0.21
-0.22
-0.235
-0.255
-0.28
-0.275
-0.285
-0.29
-0.295
-0.305
-0.305
-0.305
-0.285
-0.28
-0.295
-0.295
-0.305
-0.305
-0.3
-0.315
-0.305
-0.315
-0.33
-0.305
-0.295
-0.295
-0.305
-0.305
-0.295
-0.285
-0.285
-0.29
-0.295
-0.3
-0.315
-0.295
-0.32
-0.33
-0.385
-0.425
-0.45
-0.455
-0.475
-0.5
-0.485
-0.4
-0.255
-0.1
0.07
0.28
0.525
0.765
0.945
1.055
1.055
0.85
0.46
0.02
-0.31
-0.435
-0.425
-0.38
-0.335
-0.33
-0.335
-0.345
-0.34
-0.335
-0.35
-0.345
-0.36
-0.355
-0.355
-0.335
-0.345
-0.355
-0.37
-0.35
-0.355
-0.345
-0.355
-0.36
-0.355
-0.36
-0.355
-0.355
-0.35
-0.35
-0.36
-0.35
-0.34
-0.34
-0.345
-0.365
-0.365
-0.355
-0.34
-0.355
-0.36
-0.355
-0.365
-0.36
-0.345
-0.35
-0.35
-0.355
-0.36
-0.355
-0.35
-0.34
-0.34
-0.355
-0.35
-0.35
-0.34
-0.34
-0.35
-0.34
-0.345
-0.345
-0.335
-0.35
-0.35
-0.355
-0.35
-0.355
-0.345
-0.345
-0.335
-0.35
-0.36
-0.365
-0.355
-0.355
-0.355
-0.36
-0.375
-0.365
-0.365
-0.36
-0.365
-0.375
-0.385
-0.375
-0.38
-0.375
-0.375
-0.385
-0.395
-0.38
-0.375
-0.375
-0.38
-0.38
-0.395
-0.37
-0.36
-0.355
-0.355
-0.355
-0.35
-0.34
-0.32
-0.3
-0.3
-0.285
-0.29
-0.275
-0.265
-0.255
-0.25
-0.235
-0.245
-0.23
-0.22
-0.22
-0.22
-0.235
-0.25
-0.225
-0.22
-0.225
-0.23
-0.235
-0.23
-0.225
-0.21
-0.21
-0.205
-0.21
-0.22
-0.22
-0.21
-0.21
-0.225
-0.225
-0.23
-0.225
-0.21
-0.215
-0.215
-0.23
-0.245
-0.23
-0.23
-0.235
-0.235
-0.25
-0.25
-0.245
-0.24
-0.25
-0.255
-0.26
-0.265
-0.255
-0.255
-0.265
-0.285
-0.275
-0.27
-0.27
-0.265
-0.265
-0.27
-0.285
-0.28
-0.28
-0.275
-0.27
-0.275
-0.29
-0.285
-0.285
-0.28
-0.28
-0.28
-0.285
-0.29
-0.285
-0.275
-0.265
-0.275
-0.275
-0.295
-0.285
-0.285
-0.28
-0.28
-0.295
-0.3
-0.29
-0.285
-0.285
-0.285
-0.275
-0.29
-0.275
-0.275
-0.275
-0.28
-0.29
-0.285
-0.27
-0.27
-0.27
-0.275
-0.27
-0.27
-0.265
-0.25
-0.23
-0.22
-0.22
-0.225
-0.205
-0.205
-0.19
-0.2
-0.195
-0.2
-0.18
-0.155
-0.155
-0.16
-0.165
-0.175
-0.175
-0.17
-0.17
-0.175
-0.19
-0.205
-0.195
-0.175
-0.175
-0.19
-0.21
-0.21
-0.18
-0.155
-0.16
-0.185
-0.22
-0.235
-0.24
-0.245
-0.255
-0.27
-0.295
-0.305
-0.29
-0.29
-0.285
-0.295
-0.295
-0.305
-0.31
-0.295
-0.295
-0.31
-0.32
-0.33
-0.32
-0.31
-0.31
-0.315
-0.32
-0.315
-0.315
-0.3
-0.3
-0.305
-0.315
-0.33
-0.335
-0.355
-0.39
-0.43
-0.455
-0.485
-0.5
-0.515
-0.46
-0.355
-0.205
-0.06
0.125
0.35
0.635
0.855
1.0
1.035
0.96
0.68
0.275
-0.11
-0.35
-0.43
-0.405
-0.35
-0.32
-0.305
-0.325
-0.35
-0.345
-0.325
-0.335
-0.34
-0.345
-0.365
-0.34
-0.345
-0.335
-0.345
-0.355
-0.355
-0.345
-0.335
-0.335
-0.335
-0.36
-0.345
-0.335
-0.335
-0.33
-0.345
-0.345
-0.35
-0.35
-0.345
-0.335
-0.35
-0.355
-0.36
-0.35
-0.345
-0.34
-0.35
-0.355
-0.36
-0.355
-0.345
-0.335
-0.345
-0.35
-0.36
-0.35
-0.345
-0.335
-0.34
-0.345
-0.36
-0.345
-0.34
-0.345
-0.345
-0.355
-0.36
-0.36
-0.345
-0.345
-0.35
-0.355
-0.36
-0.35
-0.34
-0.335
-0.35
-0.35
-0.355
-0.36
-0.345
-0.35
-0.35
-0.35
-0.365
-0.365
-0.35
-0.355
-0.36
-0.365
-0.37
-0.37
-0.365
-0.36
-0.36
-0.365
-0.37
-0.365
-0.34
-0.35
-0.35
-0.355
-0.37
-0.345
-0.34
-0.335
-0.325
-0.34
-0.325
-0.31
-0.3
-0.29
-0.285
-0.285
-0.295
-0.29
-0.27
-0.265
-0.26
-0.265
-0.25
-0.245
-0.23
-0.225
-0.22
-0.22
-0.24
-0.22
-0.215
-0.21
-0.21
-0.225
-0.23
-0.225
-0.21
-0.215
-0.215
-0.23
-0.235
-0.23
-0.21
-0.215
-0.225
-0.235
-0.235
-0.23
-0.22
-0.215
-0.225
-0.235
-0.24
-0.235
-0.235
-0.225
-0.23
-0.24
-0.255
-0.245
-0.235
-0.235
-0.245
-0.25
-0.27
-0.26
-0.255
-0.255
-0.27
-0.27
-0.28
-0.275
-0.25
-0.255
-0.26
-0.27
-0.28
-0.265
-0.26
-0.265
-0.265
-0.285
-0.285
-0.28
-0.265
-0.265
-0.27
-0.285
-0.295
-0.27
-0.26
-0.265
-0.27
-0.275
-0.28
-0.27
-0.27
-0.26
-0.27
-0.27
-0.28
-0.265
-0.26
-0.26
-0.27
-0.27
-0.295
-0.275
-0.27
-0.26
-0.27
-0.26
-0.28
-0.265
-0.265
-0.265
-0.265
-0.27
-0.27
-0.265
-0.245
-0.26
-0.265
-0.25
-0.25
-0.235
-0.21
-0.195
-0.195
-0.195
-0.2
-0.195
-0.17
-0.17
-0.17
-0.18
-0.17
-0.155
-0.14
-0.14
-0.155
-0.16
-0.165
-0.15
-0.155
-0.155
-0.16
-0.18
-0.195
-0.175
-0.165
-0.155
-0.17
-0.185
-0.17
-0.145
-0.125
-0.14
-0.18
-0.205
-0.25
-0.24
-0.255
-0.245
-0.26
-0.265
-0.28
-0.27
-0.255
-0.255
-0.265
-0.275
-0.28
-0.275
-0.27
-0.265
-0.27
-0.28
-0.285
-0.29
-0.27
-0.28
-0.285
-0.285
-0.3
-0.29
-0.275
-0.275
-0.285
-0.33
-0.375
-0.4
-0.4
-0.395
-0.42
-0.465
-0.52
-0.51
-0.46
-0.35
-0.225
-0.07
0.1
0.38
0.66
0.885
0.995
0.975
0.755
0.365
-0.03
-0.315
-0.405
-0.405
-0.36
-0.315
-0.3
-0.31
-0.31
-0.31
-0.31
-0.315
-0.31
-0.305
-0.325
-0.33
-0.32
-0.31
-0.32
-0.295
-0.31
-0.31
-0.335
-0.32
-0.3
-0.305
-0.315
-0.32
-0.325
-0.32
-0.315
-0.315
-0.325
-0.32
-0.325
-0.325
-0.32
-0.3
-0.31
-0.32
-0.325
-0.33
-0.325
-0.305
-0.31
-0.31
-0.315
-0.31
-0.31
-0.31
-0.315
-0.33
-0.34
-0.325
-0.32
-0.31
-0.305
-0.31
-0.33
-0.315
-0.315
-0.31
-0.315
-0.325
-0.33
-0.32
-0.315
-0.325
-0.315
-0.315
-0.32
-0.305
-0.295
-0.305
-0.32
-0.325
-0.32
-0.325
-0.315
-0.32
-0.32
-0.33
-0.335
-0.335
-0.34
-0.32
-0.325
-0.335
-0.34
-0.335
-0.33
-0.33
-0.33
-0.335
-0.345
-0.345
-0.32
-0.325
-0.33
-0.345
-0.35
-0.32
-0.295
-0.305
-0.3
-0.305
-0.29
-0.275
-0.27
-0.245
-0.25
-0.255
-0.245
-0.235
-0.225
-0.215
-0.225
-0.22
-0.24
-0.225
-0.21
-0.215
-0.205
-0.22
-0.22
-0.23
-0.22
-0.22
-0.22
-0.22
-0.24
-0.24
-0.22
-0.215
-0.21
-0.22
-0.225
-0.23
-0.215
-0.205
-0.22
-0.235
-0.255
-0.24
-0.23
-0.24
-0.245
-0.255
-0.265
-0.25
-0.245
-0.255
-0.25
-0.26
-0.28
-0.27
-0.255
-0.25
-0.25
-0.265
-0.28
-0.28
-0.26
-0.255
-0.265
-0.265
-0.28
-0.285
-0.265
-0.27
-0.285
-0.295
-0.295
-0.295
-0.275
-0.28
-0.265
-0.26
-0.28
-0.27
-0.27
-0.285
-0.28
-0.29
-0.3
-0.3
-0.275
-0.28
-0.27
-0.29
-0.295
-0.285
-0.285
-0.285
-0.295
-0.295
-0.295
-0.285
-0.275
-0.255
-0.28
-0.28
-0.285
-0.27
-0.26
-0.255
-0.24
-0.24
-0.24
-0.235
-0.22
-0.22
-0.21
-0.21
-0.21
-0.19
-0.195
-0.19
-0.195
-0.2
-0.2
-0.19
-0.205
-0.19
-0.195
-0.195
-0.215
-0.21
-0.195
-0.215
-0.225
-0.215
-0.215
-0.205
-0.2
-0.215
-0.245
-0.27
-0.3
-0.295
-0.3
-0.3
-0.325
-0.325
-0.325
-0.31
-0.305
-0.315
-0.315
-0.325
-0.33
-0.32
-0.32
-0.325
-0.34
-0.34
-0.345
-0.34
-0.325
-0.3
-0.295
-0.315
-0.315
-0.315
-0.305
-0.33
-0.365
-0.4
-0.435
-0.44
-0.46
-0.515
-0.49
-0.425
-0.29
-0.14
0.05
0.29
0.55
0.765
0.9
0.905
0.725
0.39
-0.02
-0.305
-0.44
-0.46
-0.43
-0.38
-0.35
-0.36
-0.375
-0.365
-0.355
-0.35
-0.355
-0.355
-0.365
-0.35
-0.355
-0.35
-0.355
-0.36
-0.37
-0.365
-0.36
-0.365
-0.38
-0.38
-0.385
-0.38
-0.365
-0.365
-0.375
-0.37
-0.38
-0.365
-0.37
-0.365
-0.375
-0.37
-0.38
-0.365
-0.35
-0.365
-0.375
-0.375
-0.39
-0.38
-0.38
-0.365
-0.38
-0.365
-0.38
-0.365
-0.365
-0.375
-0.37
-0.395
-0.395
-0.37
-0.355
-0.355
-0.375
-0.375
-0.375
-0.36
-0.355
-0.35
-0.36
-0.365
-0.37
-0.38
-0.375
-0.375
-0.385
-0.4
-0.405
-0.395
-0.385
-0.385
-0.385
-0.405
-0.415
-0.425
-0.425
-0.415
-0.435
-0.44
-0.45
-0.435
-0.435
-0.43
-0.435
-0.44
-0.44
-0.435
-0.405
-0.4
-0.395
-0.395
-0.385
-0.36
-0.35
-0.33
-0.33
-0.325
-0.335
-0.305
-0.29
-0.275
-0.27
-0.275
-0.28
-0.265
-0.255
-0.255
-0.26
-0.26
-0.265
-0.25
-0.245
-0.25
-0.245
-0.245
-0.265
-0.25
-0.24
-0.24
-0.245
-0.265
-0.265
-0.26
-0.245
-0.245
-0.24
-0.26
-0.27
-0.25
-0.27
-0.26
-0.26
-0.27
-0.27
-0.265
-0.27
-0.26
-0.265
-0.28
-0.29
-0.28
-0.275
-0.275
-0.265
-0.28
-0.285
-0.275
-0.28
-0.285
-0.3
-0.29
-0.3
-0.285
-0.275
-0.285
-0.28
-0.295
-0.295
-0.285
-0.28
-0.275
-0.275
-0.285
-0.28
-0.275
-0.275
-0.275
-0.28
-0.285
-0.295
-0.29
-0.28
-0.29
-0.285
-0.3
-0.31
-0.29
-0.3
-0.285
-0.295
-0.3
-0.295
-0.295
-0.29
-0.28
-0.285
-0.295
-0.295
-0.3
-0.29
-0.29
-0.28
-0.275
-0.285
-0.285
-0.27
-0.25
-0.235
-0.245
-0.24
-0.225
-0.22
-0.215
-0.21
-0.2
-0.205
-0.2
-0.185
-0.17
-0.175
-0.195
-0.2
-0.2
-0.2
-0.195
-0.19
-0.205
-0.225
-0.215
-0.205
-0.185
-0.17
-0.185
-0.22
-0.24
-0.245
-0.25
-0.28
-0.29
-0.31
-0.305
-0.295
-0.305
-0.32
-0.32
-0.31
-0.31
-0.315
-0.32
-0.31
-0.32
-0.33
-0.32
-0.31
-0.31
-0.31
-0.31
-0.325
-0.315
-0.305
-0.31
-0.315
-0.325
-0.355
-0.38
-0.42
-0.45
-0.47
-0.51
-0.52
-0.445
-0.295
-0.135
0.03
0.2
0.4
0.65
0.875
1.025
1.1
1.17
1.17
1.045
0.735
0.265
-0.165
-0.395
-0.45
-0.39
-0.345
-0.315
-0.32
-0.335
-0.345
-0.345
-0.335
-0.33
-0.345
-0.345
-0.36
-0.355
-0.34
-0.34
-0.35
-0.345
-0.35
-0.35
-0.345
-0.35
-0.345
-0.35
-0.36
-0.36
-0.35
-0.35
-0.345
-0.35
-0.37
-0.36
-0.345
-0.345
-0.355
-0.365
-0.365
-0.355
-0.35
-0.345
-0.335
-0.35
-0.355
-0.36
-0.35
-0.35
-0.36
-0.355
-0.37
-0.355
-0.365
-0.365
-0.345
-0.355
-0.37
-0.375
-0.355
-0.35
-0.355
-0.36
-0.365
-0.37
-0.37
-0.355
-0.35
-0.36
-0.365
-0.36
-0.37
-0.37
-0.38
-0.38
-0.395
-0.385
-0.385
-0.385
-0.385
-0.39
-0.405
-0.385
-0.39
-0.39
-0.39
-0.395
-0.4
-0.385
-0.38
-0.365
-0.365
-0.385
-0.375
-0.37
-0.35
-0.34
-0.33
-0.325
-0.33
-0.305
-0.295
-0.285
-0.275
-0.27
-0.27
-0.26
-0.255
-0.225
-0.225
-0.245
-0.25
-0.235
-0.225
-0.235
-0.225
-0.225
-0.245
-0.24
-0.225
-0.235
-0.23
-0.24
-0.245
-0.24
-0.23
-0.23
-0.24
-0.245
-0.25
-0.25
-0.24
-0.245
-0.26
-0.255
-0.27
-0.26
-0.25
-0.24
-0.245
-0.255
-0.26
-0.255
-0.255
-0.245
-0.26
-0.265
-0.28
-0.27
-0.265
-0.26
-0.275
-0.28
-0.28
-0.29
-0.27
-0.265
-0.275
-0.28
-0.29
-0.29
-0.28
-0.28
-0.27
-0.28
-0.3
-0.29
-0.285
-0.275
-0.29
-0.295
-0.285
-0.295
-0.29
-0.275
-0.29
-0.29
-0.295
-0.3
-0.28
-0.275
-0.295
-0.29
-0.285
-0.295
-0.275
-0.285
-0.275
-0.29
-0.295
-0.285
-0.27
-0.275
-0.27
-0.275
-0.29
-0.29
-0.27
-0.275
-0.27
-0.27
-0.285
-0.275
-0.25
-0.24
-0.225
-0.22
-0.225
-0.215
-0.21
-0.2
-0.19
-0.185
-0.19
-0.18
-0.17
-0.16
-0.18
-0.185
-0.19
-0.195
-0.19
-0.18
-0.18
-0.185
-0.205
-0.2
-0.18
-0.15
-0.145
-0.155
-0.19
-0.22
-0.22
-0.225
-0.245
-0.255
-0.28
-0.28
-0.28
-0.275
-0.29
-0.29
-0.295
-0.3
-0.295
-0.28
-0.29
-0.295
-0.305
-0.305
-0.295
-0.315
-0.315
-0.31
-0.32
-0.31
-0.31
-0.305
-0.305
-0.32
-0.345
-0.365
-0.395
-0.43
-0.45
-0.485
-0.525
-0.51
-0.4
-0.245
-0.065
0.105
0.32
0.625
0.88
1.045
1.105
1.0
0.685
0.225
-0.175
-0.4
-0.465
-0.455
-0.44
-0.405
-0.37
-0.34
-0.32
-0.335
-0.345
-0.35
-0.345
-0.34
-0.345
-0.35
-0.37
-0.37
-0.35
-0.345
-0.35
-0.355
-0.365
-0.36
-0.35
-0.35
-0.335
-0.355
-0.37
-0.365
-0.35
-0.345
-0.355
-0.36
-0.355
-0.355
-0.355
-0.34
-0.345
-0.35
-0.355
-0.35
-0.34
-0.335
-0.335
-0.35
-0.365
-0.35
-0.35
-0.35
-0.345
-0.35
-0.365
-0.355
-0.34
-0.34
-0.345
-0.355
-0.365
-0.36
-0.335
-0.34
-0.345
-0.36
-0.365
-0.355
-0.345
-0.34
-0.345
-0.35
-0.36
-0.35
-0.345
-0.335
-0.335
-0.355
-0.365
-0.355
-0.345
-0.34
-0.345
-0.35
-0.365
-0.355
-0.36
-0.35
-0.35
-0.365
-0.37
-0.36
-0.36
-0.355
-0.355
-0.37
-0.37
-0.375
-0.365
-0.35
-0.355
-0.355
-0.36
-0.345
-0.33
-0.32
-0.31
-0.315
-0.32
-0.3
-0.28
-0.265
-0.265
-0.26
-0.265
-0.245
-0.24
-0.22
-0.23
-0.23
-0.25
-0.235
-0.23
-0.215
-0.23
-0.24
-0.25
-0.24
-0.215
-0.215
-0.22
-0.22
-0.235
-0.235
-0.23
-0.215
-0.225
-0.235
-0.23
-0.23
-0.23
-0.22
-0.23
-0.23
-0.25
-0.24
-0.245
-0.245
-0.245
-0.25
-0.27
-0.25
-0.245
-0.255
-0.25
-0.26
-0.275
-0.27
-0.265
-0.245
-0.26
-0.27
-0.28
-0.275
-0.27
-0.26
-0.27
-0.265
-0.285
-0.28
-0.28
-0.275
-0.285
-0.28
-0.29
-0.28
-0.28
-0.275
-0.28
-0.285
-0.295
-0.305
-0.29
-0.28
-0.29
-0.305
-0.31
-0.295
-0.29
-0.285
-0.28
-0.295
-0.305
-0.295
-0.285
-0.275
-0.285
-0.295
-0.305
-0.295
-0.295
-0.285
-0.285
-0.28
-0.29
-0.295
-0.28
-0.26
-0.28
-0.28
-0.29
-0.29
-0.275
-0.28
-0.27
-0.26
-0.265
-0.25
-0.23
-0.21
-0.195
-0.215
-0.225
-0.21
-0.195
-0.17
-0.17
-0.175
-0.175
-0.165
-0.15
-0.15
-0.155
-0.165
-0.18
-0.165
-0.165
-0.17
-0.16
-0.165
-0.18
-0.19
-0.185
-0.185
-0.18
-0.185
-0.175
-0.145
-0.12
-0.12
-0.135
-0.18
-0.205
-0.225
-0.225
-0.23
-0.26
-0.27
-0.28
-0.285
-0.285
-0.275
-0.265
-0.27
-0.3
-0.295
-0.28
-0.285
-0.295
-0.295
-0.3
-0.28
-0.28
-0.27
-0.28
-0.295
-0.295
-0.28
-0.27
-0.275
-0.28
-0.315
-0.345
-0.36
-0.39
-0.41
-0.435
-0.48
-0.52
-0.47
-0.36
-0.21
-0.055
0.125
0.35
0.635
0.86
0.99
0.99
0.815
0.47
0.07
-0.255
-0.39
-0.405
-0.38
-0.345
-0.315
-0.305
-0.315
-0.32
-0.335
-0.33
-0.325
-0.305
-0.315
-0.325
-0.335
-0.335
-0.34
-0.335
-0.325
-0.315
-0.33
-0.34
-0.32
-0.315
-0.315
-0.325
-0.33
-0.33
-0.315
-0.31
-0.315
-0.32
-0.335
-0.35
-0.34
-0.335
-0.32
-0.325
-0.335
-0.33
-0.33
-0.33
-0.32
-0.33
-0.34
-0.34
-0.33
-0.32
-0.315
-0.315
-0.315
-0.325
-0.335
-0.325
-0.325
-0.32
-0.32
-0.34
-0.33
-0.305
-0.315
-0.305
-0.32
-0.33
-0.335
-0.345
-0.33
-0.33
-0.335
-0.325
-0.315
-0.315
-0.31
-0.315
-0.335
-0.35
-0.34
-0.335
-0.325
-0.325
-0.34
-0.34
-0.335
-0.32
-0.325
-0.33
-0.335
-0.345
-0.345
-0.34
-0.33
-0.34
-0.355
-0.36
-0.35
-0.34
-0.325
-0.325
-0.325
-0.33
-0.305
-0.295
-0.265
-0.265
-0.255
-0.27
-0.265
-0.245
-0.235
-0.225
-0.225
-0.23
-0.24
-0.21
-0.21
-0.21
-0.22
-0.23
-0.23
-0.21
-0.215
-0.215
-0.215
-0.23
-0.23
-0.22
-0.205
-0.21
-0.225
-0.23
-0.225
-0.215
-0.23
-0.22
-0.23
-0.23
-0.23
-0.22
-0.22
-0.225
-0.235
-0.23
-0.235
-0.245
-0.24
-0.24
-0.26
-0.26
-0.25
-0.23
-0.235
-0.24
-0.265
-0.275
-0.265
-0.255
-0.24
-0.255
-0.25
-0.255
-0.255
-0.245
-0.24
-0.25
-0.25
-0.27
-0.27
-0.265
-0.265
-0.255
-0.265
-0.265
-0.275
-0.275
-0.285
-0.265
-0.28
-0.28
-0.27
-0.27
-0.255
-0.255
-0.27
-0.285
-0.28
-0.27
-0.25
-0.255
-0.27
-0.275
-0.27
-0.26
-0.26
-0.26
-0.265
-0.27
-0.26
-0.25
-0.26
-0.27
-0.27
-0.27
-0.255
-0.25
-0.245
-0.25
-0.24
-0.235
-0.23
-0.22
-0.21
-0.215
-0.225
-0.225
-0.205
-0.185
-0.18
-0.165
-0.175
-0.185
-0.175
-0.145
-0.145
-0.155
-0.17
-0.18
-0.17
-0.165
-0.165
-0.165
-0.17
-0.185
-0.195
-0.185
-0.175
-0.17
-0.155
-0.16
-0.175
-0.2
-0.22
-0.245
-0.265
-0.285
-0.265
-0.27
-0.255
-0.255
-0.28
-0.285
-0.28
-0.27
-0.265
-0.275
-0.29
-0.305
-0.295
-0.295
-0.285
-0.29
-0.3
-0.3
-0.3
-0.29
-0.275
-0.27
-0.285
-0.295
-0.285
-0.28
-0.28
-0.285
-0.29
-0.31
-0.32
-0.35
-0.375
-0.395
-0.425
-0.475
-0.495
-0.455
-0.35
-0.22
-0.075
0.105
0.335
0.6
0.84
0.965
1.0
0.815
0.475
0.06
-0.23
-0.375
-0.42
-0.41
-0.37
-0.345
-0.34
-0.34
-0.355
-0.355
-0.345
-0.345
-0.325
-0.34
-0.345
-0.345
-0.35
-0.335
-0.33
-0.325
-0.32
-0.335
-0.33
-0.335
-0.325
-0.335
-0.345
-0.36
-0.365
-0.35
-0.345
-0.345
-0.355
-0.365
-0.345
-0.34
-0.33
-0.33
-0.34
-0.355
-0.355
-0.345
-0.335
-0.35
-0.355
-0.365
-0.365
-0.355
-0.34
-0.35
-0.345
-0.365
-0.36
-0.345
-0.325
-0.34
-0.34
-0.355
-0.36
-0.335
-0.345
-0.34
-0.345
-0.355
-0.345
-0.35
-0.34
-0.34
-0.34
-0.35
-0.335
-0.345
-0.34
-0.34
-0.355
-0.365
-0.365
-0.355
-0.35
-0.35
-0.375
-0.385
-0.39
-0.385
-0.38
