Lead II
-0.075
-0.08
-0.055
-0.055
-0.065
-0.085
-0.08
-0.05
-0.05
-0.04
-0.075
-0.08
-0.085
-0.06
-0.06
-0.055
-0.065
-0.085
-0.085
-0.09
-0.085
-0.07
-0.09
-0.085
-0.105
-0.095
-0.075
-0.07
-0.085
-0.095
-0.105
-0.095
-0.085
-0.08
-0.09
-0.11
-0.115
-0.095
-0.085
-0.09
-0.1
-0.115
-0.12
-0.125
-0.11
-0.1
-0.11
-0.13
-0.125
-0.12
-0.12
-0.105
-0.11
-0.12
-0.135
-0.12
-0.12
-0.11
-0.125
-0.14
-0.125
-0.125
-0.105
-0.145
-0.125
-0.135
-0.14
-0.125
-0.125
-0.12
-0.13
-0.145
-0.14
-0.135
-0.115
-0.12
-0.125
-0.155
-0.155
-0.145
-0.14
-0.14
-0.14
-0.155
-0.15
-0.145
-0.135
-0.135
-0.14
-0.155
-0.15
-0.145
-0.135
-0.145
-0.155
-0.16
-0.16
-0.14
-0.14
-0.145
-0.15
-0.17
-0.17
-0.16
-0.125
-0.125
-0.145
-0.15
-0.16
-0.145
-0.125
-0.125
-0.15
-0.15
-0.155
-0.155
-0.13
-0.115
-0.135
-0.155
-0.145
-0.135
-0.125
-0.125
-0.145
-0.15
-0.155
-0.135
-0.12
-0.11
-0.105
-0.12
-0.12
-0.105
-0.075
-0.06
-0.075
-0.085
-0.095
-0.06
-0.04
-0.035
-0.055
-0.07
-0.075
-0.06
-0.06
-0.055
-0.055
-0.085
-0.09
-0.085
-0.08
-0.1
-0.125
-0.15
-0.14
-0.135
-0.125
-0.125
-0.13
-0.14
-0.15
-0.135
-0.12
-0.115
-0.12
-0.14
-0.14
-0.125
-0.105
-0.115
-0.12
-0.12
-0.12
-0.105
-0.095
-0.085
-0.105
-0.115
-0.135
-0.165
-0.18
-0.22
-0.225
-0.22
-0.15
0.005
0.27
0.62
1.015
1.395
1.72
1.94
2.02
1.935
1.675
1.11
0.47
-0.17
-0.41
-0.37
-0.305
-0.285
-0.295
-0.29
-0.28
-0.26
-0.26
-0.24
-0.2
-0.125
-0.075
-0.04
-0.04
-0.06
-0.06
-0.035
-0.02
-0.02
-0.035
-0.035
-0.03
-0.02
-0.005
-0.015
-0.01
-0.02
-0.02
0.0
0.015
0.015
0.01
-0.005
-0.005
0.01
0.03
0.025
0.015
-0.005
0.0
0.015
0.03
0.03
0.03
0.02
0.02
0.035
0.055
0.05
0.055
0.035
0.04
0.045
0.06
0.065
0.065
0.065
0.065
0.09
0.105
0.1
0.095
0.09
0.095
0.11
0.12
0.14
0.13
0.14
0.13
0.155
0.175
0.185
0.175
0.165
0.185
0.215
0.23
0.25
0.24
0.24
0.26
0.285
0.305
0.32
0.31
0.335
0.35
0.375
0.385
0.43
0.435
0.46
0.49
0.505
0.56
0.585
0.585
0.6
0.62
0.665
0.695
0.72
0.735
0.74
0.77
0.81
0.835
0.87
0.875
0.895
0.925
0.95
0.995
1.005
1.0
0.99
0.985
0.975
0.98
0.945
0.895
0.855
0.8
0.765
0.72
0.655
0.58
0.51
0.455
0.415
0.365
0.305
0.245
0.175
0.15
0.11
0.1
0.06
0.02
-0.005
-0.03
-0.045
-0.03
-0.055
-0.09
-0.1
-0.13
-0.11
-0.11
-0.125
-0.14
-0.15
-0.16
-0.17
-0.16
-0.16
-0.18
-0.195
-0.195
-0.185
-0.16
-0.165
-0.19
-0.2
-0.21
-0.185
-0.17
-0.165
-0.19
-0.21
-0.205
-0.205
-0.16
-0.175
-0.195
-0.195
-0.2
-0.18
-0.175
-0.18
-0.18
-0.205
-0.205
-0.185
-0.16
-0.165
-0.175
-0.19
-0.195
-0.185
-0.155
-0.17
-0.185
-0.185
-0.19
-0.18
-0.17
-0.17
-0.17
-0.19
-0.185
-0.175
-0.16
-0.165
-0.17
-0.185
-0.18
-0.175
-0.175
-0.17
-0.185
-0.195
-0.21
-0.205
-0.18
-0.2
-0.2
-0.2
-0.205
-0.205
-0.185
-0.195
-0.205
-0.215
-0.22
-0.21
-0.215
-0.215
-0.215
-0.225
-0.225
-0.215
-0.19
-0.215
-0.235
-0.235
-0.235
-0.22
-0.2
-0.215
-0.22
-0.235
-0.225
-0.225
-0.22
-0.205
-0.235
-0.24
-0.235
-0.24
-0.21
-0.205
-0.24
-0.235
-0.24
-0.23
-0.22
-0.225
-0.235
-0.245
-0.225
-0.22
-0.205
-0.205
-0.235
-0.235
-0.23
-0.225
-0.225
-0.215
-0.22
-0.23
-0.235
-0.23
-0.215
-0.225
-0.22
-0.23
-0.235
-0.22
-0.21
-0.205
-0.23
-0.245
-0.245
-0.24
-0.21
-0.215
-0.235
-0.235
-0.235
-0.225
-0.22
-0.2
-0.235
-0.23
-0.23
-0.235
-0.21
-0.21
-0.21
-0.22
-0.225
-0.215
-0.205
-0.21
-0.22
-0.22
-0.215
-0.21
-0.2
-0.21
-0.205
-0.21
-0.2
-0.19
-0.18
-0.195
-0.2
-0.2
-0.205
-0.18
-0.17
-0.17
-0.18
-0.185
-0.17
-0.16
-0.135
-0.13
-0.135
-0.16
-0.15
-0.13
-0.1
-0.1
-0.13
-0.135
-0.14
-0.13
-0.115
-0.125
-0.135
-0.155
-0.155
-0.165
-0.16
-0.175
-0.195
-0.215
-0.215
-0.18
-0.185
-0.19
-0.2
-0.195
-0.19
-0.185
-0.16
-0.175
-0.185
-0.19
-0.195
-0.175
-0.165
-0.155
-0.165
-0.17
-0.175
-0.15
-0.145
-0.165
-0.195
-0.235
-0.27
-0.3
-0.27
-0.25
-0.17
0.005
0.36
0.83
1.31
1.7
1.92
1.97
1.86
1.535
0.92
0.28
-0.36
-0.51
-0.4
-0.32
-0.295
-0.31
-0.325
-0.33
-0.3
-0.235
-0.17
-0.14
-0.105
-0.115
-0.1
-0.085
-0.075
-0.075
-0.08
-0.09
-0.085
-0.07
-0.05
-0.055
-0.065
-0.065
-0.07
-0.045
-0.045
-0.04
-0.07
-0.06
-0.065
-0.04
-0.025
-0.025
-0.04
-0.06
-0.03
-0.03
-0.01
-0.015
-0.015
-0.02
-0.02
-0.005
0.025
0.015
0.01
-0.005
0.01
0.025
0.05
0.045
0.035
0.015
0.015
0.03
0.06
0.07
0.075
0.055
0.08
0.095
0.1
0.12
0.11
0.12
0.125
0.125
0.165
0.17
0.175
0.18
0.185
0.2
0.23
0.25
0.25
0.25
0.265
0.295
0.33
0.33
0.345
0.345
0.37
0.395
0.44
0.465
0.495
0.49
0.52
0.565
0.605
0.635
0.655
0.675
0.685
0.735
0.775
0.795
0.805
0.815
0.83
0.875
0.91
0.935
0.94
0.935
0.935
0.96
0.96
0.925
0.895
0.855
0.805
0.755
0.71
0.655
0.565
0.505
0.445
0.39
0.355
0.295
0.23
0.17
0.125
0.09
0.07
0.035
-0.005
-0.04
-0.065
-0.07
-0.07
-0.09
-0.11
-0.145
-0.16
-0.145
-0.13
-0.15
-0.17
-0.18
-0.175
-0.165
-0.15
-0.16
-0.18
-0.175
-0.18
-0.17
-0.155
-0.155
-0.18
-0.185
-0.18
-0.175
-0.155
-0.16
-0.17
-0.18
-0.175
-0.165
-0.16
-0.16
-0.17
-0.2
-0.19
-0.175
-0.165
-0.17
-0.18
-0.19
-0.185
-0.165
-0.15
-0.155
-0.155
-0.185
-0.175
-0.17
-0.15
-0.165
-0.18
-0.185
-0.18
-0.18
-0.165
-0.175
-0.19
-0.195
-0.21
-0.17
-0.17
-0.185
-0.2
-0.205
-0.205
-0.19
-0.175
-0.2
-0.195
-0.215
-0.21
-0.215
-0.2
-0.205
-0.205
-0.23
-0.205
-0.215
-0.195
-0.2
-0.205
-0.225
-0.23
-0.215
-0.2
-0.205
-0.225
-0.235
-0.23
-0.225
-0.22
-0.215
-0.215
-0.24
-0.24
-0.225
-0.205
-0.215
-0.225
-0.24
-0.225
-0.225
-0.21
-0.215
-0.22
-0.235
-0.23
-0.235
-0.22
-0.22
-0.23
-0.24
-0.235
-0.215
-0.215
-0.205
-0.22
-0.24
-0.24
-0.22
-0.225
-0.225
-0.23
-0.24
-0.245
-0.225
-0.2
-0.205
-0.22
-0.235
-0.23
-0.22
-0.215
-0.23
-0.23
-0.245
-0.23
-0.23
-0.215
-0.21
-0.22
-0.23
-0.23
-0.21
-0.19
-0.21
-0.22
-0.23
-0.235
-0.215
-0.215
-0.205
-0.22
-0.225
-0.235
-0.205
-0.195
-0.195
-0.21
-0.225
-0.215
-0.2
-0.195
-0.195
-0.21
-0.21
-0.205
-0.195
-0.19
-0.185
-0.195
-0.225
-0.195
-0.2
-0.185
-0.185
-0.2
-0.2
-0.2
-0.185
-0.17
-0.145
-0.165
-0.16
-0.15
-0.135
-0.105
-0.125
-0.12
-0.13
-0.115
-0.095
-0.08
-0.1
-0.105
-0.115
-0.12
-0.095
-0.095
-0.105
-0.125
-0.155
-0.145
-0.16
-0.16
-0.155
-0.155
-0.175
-0.17
-0.15
-0.15
-0.145
-0.17
-0.17
-0.165
-0.155
-0.14
-0.14
-0.15
-0.165
-0.16
-0.15
-0.13
-0.12
-0.13
-0.155
-0.15
-0.17
-0.19
-0.245
-0.275
-0.285
-0.255
-0.15
0.03
0.34
0.715
1.15
1.545
1.84
1.99
1.965
1.725
1.195
0.555
-0.085
-0.495
-0.415
-0.31
-0.305
-0.325
-0.32
-0.285
-0.25
-0.215
-0.18
-0.125
-0.085
-0.07
-0.07
-0.08
-0.085
-0.085
-0.07
-0.05
-0.055
-0.065
-0.075
-0.055
-0.04
-0.035
-0.03
-0.04
-0.05
-0.035
-0.035
-0.015
-0.02
-0.025
-0.035
-0.035
-0.02
-0.01
-0.005
-0.005
-0.03
-0.015
-0.015
0.01
0.025
0.02
0.0
0.005
0.025
0.03
0.03
0.02
0.015
0.025
0.045
0.07
0.07
0.05
0.045
0.07
0.075
0.1
0.1
0.085
0.085
0.085
0.095
0.13
0.13
0.13
0.135
0.15
0.165
0.185
0.21
0.2
0.21
0.225
0.255
0.28
0.27
0.29
0.29
0.305
0.35
0.385
0.4
0.41
0.42
0.445
0.48
0.525
0.54
0.55
0.56
0.6
0.655
0.695
0.695
0.715
0.74
0.77
0.795
0.845
0.865
0.88
0.885
0.91
0.94
0.975
0.98
0.965
0.96
0.94
0.925
0.91
0.835
0.79
0.72
0.675
0.61
0.56
0.495
0.4
0.32
0.285
0.23
0.2
0.14
0.1
0.055
0.02
0.01
-0.005
-0.025
-0.06
-0.08
-0.1
-0.095
-0.09
-0.1
-0.135
-0.145
-0.16
-0.145
-0.14
-0.14
-0.17
-0.19
-0.17
-0.165
-0.15
-0.155
-0.17
-0.18
-0.175
-0.17
-0.165
-0.165
-0.175
-0.185
-0.18
-0.17
-0.165
-0.16
-0.165
-0.18
-0.18
-0.18
-0.145
-0.165
-0.175
-0.205
-0.185
-0.17
-0.155
-0.17
-0.175
-0.18
-0.185
-0.16
-0.155
-0.165
-0.185
-0.2
-0.2
-0.17
-0.15
-0.17
-0.17
-0.19
-0.185
-0.18
-0.165
-0.17
-0.175
-0.2
-0.2
-0.19
-0.185
-0.18
-0.205
-0.22
-0.225
-0.205
-0.19
-0.2
-0.21
-0.22
-0.22
-0.225
-0.21
-0.205
-0.23
-0.24
-0.235
-0.24
-0.21
-0.215
-0.23
-0.25
-0.225
-0.235
-0.215
-0.22
-0.23
-0.26
-0.245
-0.235
-0.215
-0.225
-0.245
-0.245
-0.245
-0.22
-0.22
-0.235
-0.23
-0.255
-0.255
-0.235
-0.23
-0.23
-0.245
-0.26
-0.27
-0.245
-0.23
-0.24
-0.255
-0.27
-0.26
-0.25
-0.23
-0.23
-0.24
-0.265
-0.265
-0.25
-0.235
-0.235
-0.245
-0.255
-0.26
-0.245
-0.24
-0.245
-0.25
-0.255
-0.26
-0.25
-0.25
-0.25
-0.255
-0.28
-0.275
-0.245
-0.235
-0.255
-0.255
-0.275
-0.26
-0.255
-0.225
-0.235
-0.225
-0.245
-0.245
-0.245
-0.255
-0.24
-0.245
-0.255
-0.26
-0.255
-0.23
-0.225
-0.255
-0.255
-0.27
-0.235
-0.225
-0.23
-0.245
-0.25
-0.245
-0.225
-0.21
-0.205
-0.215
-0.205
-0.185
-0.18
-0.175
-0.17
-0.17
-0.18
-0.18
-0.165
-0.165
-0.16
-0.165
-0.195
-0.18
-0.18
-0.17
-0.19
-0.22
-0.24
-0.235
-0.23
-0.24
-0.235
-0.245
-0.255
-0.255
-0.24
-0.22
-0.23
-0.245
-0.25
-0.235
-0.235
-0.22
-0.23
-0.25
-0.245
-0.24
-0.21
-0.195
-0.19
-0.22
-0.245
-0.275
-0.305
-0.325
-0.34
-0.355
-0.335
-0.215
0.01
0.365
0.82
1.26
1.585
1.795
1.83
1.685
1.245
0.605
-0.035
-0.595
-0.575
-0.415
-0.38
-0.38
-0.41
-0.41
-0.405
-0.355
-0.32
-0.28
-0.26
-0.195
-0.16
-0.155
-0.14
-0.16
-0.17
-0.16
-0.16
-0.135
-0.15
-0.15
-0.17
-0.17
-0.14
-0.14
-0.12
-0.135
-0.135
-0.15
-0.12
-0.105
-0.115
-0.125
-0.125
-0.115
-0.12
-0.105
-0.095
-0.11
-0.115
-0.1
-0.095
-0.085
-0.08
-0.08
-0.09
-0.09
-0.065
-0.055
-0.055
-0.06
-0.095
-0.08
-0.07
-0.045
-0.06
-0.06
-0.05
-0.055
-0.045
-0.015
-0.025
-0.025
-0.02
-0.015
0.01
0.01
0.02
0.01
0.01
0.015
0.05
0.065
0.065
0.07
0.065
0.08
0.095
0.125
0.12
0.125
0.12
0.14
0.175
0.195
0.2
0.21
0.23
0.24
0.27
0.305
0.32
0.335
0.345
0.385
0.42
0.455
0.485
0.495
0.495
0.515
0.55
0.59
0.61
0.615
0.635
0.65
0.695
0.73
0.745
0.76
0.775
0.78
0.81
0.83
0.82
0.81
0.785
0.76
0.74
0.715
0.67
0.605
0.54
0.495
0.43
0.395
0.345
0.275
0.2
0.16
0.13
0.1
0.04
-0.02
-0.065
-0.1
-0.11
-0.125
-0.155
-0.2
-0.24
-0.24
-0.245
-0.245
-0.27
-0.285
-0.295
-0.305
-0.29
-0.295
-0.315
-0.325
-0.345
-0.34
-0.325
-0.315
-0.325
-0.335
-0.35
-0.37
-0.325
-0.33
-0.32
-0.34
-0.35
-0.355
-0.35
-0.335
-0.325
-0.345
-0.35
-0.35
-0.355
-0.325
-0.325
-0.34
-0.35
-0.345
-0.34
-0.325
-0.325
-0.33
-0.34
-0.355
-0.33
-0.33
-0.32
-0.345
-0.36
-0.345
-0.35
-0.33
-0.34
-0.35
-0.35
-0.365
-0.335
-0.325
-0.34
-0.355
-0.365
-0.37
-0.355
-0.355
-0.36
-0.37
-0.38
-0.38
-0.365
-0.375
-0.37
-0.385
-0.4
-0.4
-0.385
-0.38
-0.395
-0.395
-0.4
-0.4
-0.41
-0.4
-0.39
-0.405
-0.42
-0.41
-0.415
-0.385
-0.4
-0.41
-0.425
-0.44
-0.42
-0.405
-0.405
-0.425
-0.43
-0.43
-0.43
-0.415
-0.41
-0.415
-0.445
-0.445
-0.43
-0.415
-0.425
-0.44
-0.44
-0.44
-0.425
-0.425
-0.425
-0.43
-0.445
-0.435
-0.43
-0.42
-0.42
-0.43
-0.445
-0.435
-0.44
-0.42
-0.43
-0.445
-0.455
-0.445
-0.42
-0.415
-0.405
-0.42
-0.425
-0.41
-0.39
-0.37
-0.38
-0.365
-0.385
-0.375
-0.35
-0.34
-0.35
-0.325
-0.325
-0.33
-0.315
-0.32
-0.335
-0.37
-0.39
-0.375
-0.39
-0.385
-0.395
-0.425
-0.45
-0.45
-0.44
-0.41
-0.435
-0.43
-0.445
-0.44
-0.425
-0.415
-0.42
-0.43
-0.44
-0.43
-0.415
-0.42
-0.425
-0.42
-0.425
-0.42
-0.41
-0.39
-0.39
-0.42
-0.46
-0.495
-0.52
-0.54
-0.56
-0.53
-0.42
-0.185
0.195
0.695
1.16
1.49
1.675
1.685
1.52
1.025
0.385
-0.255
-0.82
-0.76
-0.61
-0.565
-0.585
-0.63
-0.615
-0.6
-0.545
-0.495
-0.44
-0.405
-0.415
-0.38
-0.37
-0.365
-0.36
-0.365
-0.37
-0.355
-0.35
-0.35
-0.35
-0.37
-0.365
-0.355
-0.35
-0.345
-0.345
-0.34
-0.335
-0.34
-0.32
-0.31
-0.31
-0.325
-0.32
-0.315
-0.295
-0.28
-0.28
-0.305
-0.305
-0.295
-0.27
-0.255
-0.26
-0.275
-0.27
-0.255
-0.24
-0.225
-0.22
-0.23
-0.22
-0.22
-0.195
-0.175
-0.175
-0.175
-0.19
-0.155
-0.135
-0.11
-0.11
-0.105
-0.105
-0.09
-0.045
-0.025
0.0
-0.005
0.015
0.05
0.07
0.105
0.125
0.135
0.155
0.19
0.225
0.27
0.28
0.305
0.32
0.36
0.39
0.43
0.46
0.48
0.495
0.515
0.53
0.585
0.61
0.61
0.63
0.655
0.67
0.675
0.66
0.625
0.6
0.575
0.54
0.495
0.445
0.37
0.29
0.245
0.19
0.135
0.085
0.01
-0.055
-0.105
-0.14
-0.175
-0.23
-0.275
-0.31
-0.33
-0.335
-0.36
-0.385
-0.415
-0.43
-0.44
-0.44
-0.43
-0.445
-0.465
-0.475
-0.485
-0.475
-0.475
-0.48
-0.495
-0.5
-0.505
-0.5
-0.48
-0.505
-0.515
-0.525
-0.52
-0.5
-0.485
-0.49
-0.5
-0.52
-0.495
-0.495
-0.49
-0.485
-0.49
-0.5
-0.515
-0.49
-0.485
-0.485
-0.495
-0.5
-0.51
-0.48
-0.48
-0.475
-0.49
-0.495
-0.485
-0.47
-0.47
-0.48
-0.49
-0.515
-0.495
-0.495
-0.485
-0.49
-0.495
-0.5
-0.5
-0.48
-0.47
-0.49
-0.505
-0.515
-0.505
-0.495
-0.485
-0.5
-0.51
-0.525
-0.525
-0.51
-0.505
-0.5
-0.525
-0.525
-0.52
-0.515
-0.5
-0.51
-0.515
-0.54
-0.535
-0.51
-0.5
-0.51
-0.525
-0.535
-0.535
-0.52
-0.515
-0.505
-0.53
-0.54
-0.55
-0.525
-0.525
-0.52
-0.55
-0.555
-0.555
-0.535
-0.515
-0.525
-0.55
-0.55
-0.54
-0.525
-0.515
-0.53
-0.54
-0.54
-0.53
-0.515
-0.52
-0.525
-0.535
-0.545
-0.55
-0.525
-0.515
-0.535
-0.53
-0.535
-0.53
-0.515
-0.51
-0.51
-0.54
-0.545
-0.53
-0.515
-0.5
-0.52
-0.54
-0.54
-0.53
-0.52
-0.52
-0.515
-0.525
-0.525
-0.53
-0.52
-0.505
-0.51
-0.515
-0.525
-0.525
-0.5
-0.49
-0.505
-0.515
-0.52
-0.51
-0.495
-0.485
-0.505
-0.515
-0.515
-0.51
-0.485
-0.475
-0.47
-0.475
-0.5
-0.475
-0.465
-0.435
-0.43
-0.435
-0.46
-0.46
-0.415
-0.4
-0.405
-0.435
-0.46
-0.46
-0.43
-0.415
-0.425
-0.455
-0.48
-0.475
-0.475
-0.46
-0.49
-0.505
-0.5
-0.515
-0.49
-0.475
-0.485
-0.505
-0.51
-0.505
-0.465
-0.465
-0.47
-0.475
-0.49
-0.49
-0.455
-0.45
-0.445
-0.465
-0.475
-0.46
-0.445
-0.425
-0.43
-0.465
-0.515
-0.535
-0.555
-0.58
-0.58
-0.565
-0.465
-0.27
0.02
0.395
0.79
1.145
1.41
1.59
1.67
1.605
1.305
0.735
0.095
-0.545
-0.79
-0.735
-0.64
-0.63
-0.645
-0.645
-0.625
-0.595
-0.555
-0.525
-0.48
-0.435
-0.405
-0.39
-0.38
-0.4
-0.415
-0.405
-0.385
-0.375
-0.385
-0.39
-0.41
-0.38
-0.365
-0.37
-0.36
-0.38
-0.37
-0.37
-0.355
-0.35
-0.35
-0.36
-0.37
-0.365
-0.34
-0.33
-0.335
-0.35
-0.35
-0.345
-0.32
-0.32
-0.32
-0.33
-0.335
-0.335
-0.32
-0.31
-0.3
-0.32
-0.31
-0.3
-0.285
-0.28
-0.28
-0.295
-0.29
-0.28
-0.265
-0.245
-0.25
-0.28
-0.27
-0.255
-0.23
-0.21
-0.2
-0.21
-0.22
-0.22
-0.19
-0.16
-0.155
-0.17
-0.18
-0.16
-0.125
-0.1
-0.1
-0.095
-0.095
-0.07
-0.045
-0.03
-0.02
-0.02
-0.015
0.005
0.04
0.07
0.08
0.08
0.095
0.12
0.155
0.195
0.22
0.235
0.25
0.285
0.32
0.36
0.38
0.4
0.4
0.425
0.47
0.515
0.53
0.535
0.545
0.58
0.62
0.65
0.65
0.64
0.64
0.645
0.64
0.63
0.6
0.535
0.495
0.43
0.395
0.355
0.29
0.21
0.125
0.095
0.05
0.005
-0.04
-0.09
-0.14
-0.18
-0.21
-0.215
-0.265
-0.305
-0.33
-0.35
-0.36
-0.35
-0.375
-0.39
-0.42
-0.415
-0.425
-0.405
-0.425
-0.445
-0.445
-0.44
-0.435
-0.435
-0.43
-0.45
-0.47
-0.445
-0.44
-0.44
-0.45
-0.455
-0.465
-0.45
-0.45
-0.44
-0.44
-0.445
-0.46
-0.44
-0.435
-0.43
-0.425
-0.435
-0.445
-0.44
-0.435
-0.415
-0.415
-0.43
-0.435
-0.435
-0.425
-0.415
-0.42
-0.44
-0.44
-0.435
-0.425
-0.425
-0.425
-0.43
-0.44
-0.43
-0.42
-0.415
-0.425
-0.43
-0.445
-0.43
-0.415
-0.41
-0.42
-0.44
-0.435
-0.44
-0.43
-0.43
-0.435
-0.45
-0.455
-0.455
-0.435
-0.43
-0.445
-0.455
-0.455
-0.45
-0.44
-0.43
-0.44
-0.465
-0.46
-0.45
-0.445
-0.42
-0.43
-0.44
-0.465
-0.45
-0.435
-0.435
-0.435
-0.45
-0.455
-0.46
-0.44
-0.425
-0.43
-0.45
-0.46
-0.46
-0.44
-0.43
-0.45
-0.46
-0.455
-0.445
-0.43
-0.43
-0.43
-0.445
-0.45
-0.445
-0.425
-0.425
-0.425
-0.43
-0.45
-0.435
-0.42
-0.41
-0.415
-0.435
-0.45
-0.435
-0.43
-0.42
-0.425
-0.43
-0.43
-0.44
-0.415
-0.41
-0.415
-0.42
-0.425
-0.42
-0.41
-0.385
-0.4
-0.41
-0.42
-0.41
-0.39
-0.39
-0.39
-0.42
-0.405
-0.415
-0.395
-0.39
-0.41
-0.415
-0.41
-0.41
-0.4
-0.4
-0.39
-0.4
-0.42
-0.405
-0.39
-0.385
-0.38
-0.39
-0.42
-0.405
-0.385
-0.38
-0.385
-0.395
-0.39
-0.4
-0.38
-0.375
-0.385
-0.385
-0.405
-0.385
-0.38
-0.365
-0.375
-0.38
-0.375
-0.385
-0.355
-0.345
-0.355
-0.375
-0.375
-0.365
-0.34
-0.325
-0.32
-0.335
-0.33
-0.315
-0.3
-0.29
-0.28
-0.285
-0.29
-0.285
-0.26
-0.25
-0.245
-0.265
-0.265
-0.27
-0.275
-0.265
-0.26
-0.275
-0.285
-0.285
-0.26
-0.28
-0.285
-0.32
-0.335
-0.335
-0.31
-0.315
-0.315
-0.345
-0.335
-0.33
-0.31
-0.305
-0.31
-0.32
-0.33
-0.32
-0.295
-0.3
-0.3
-0.33
-0.315
-0.305
-0.28
-0.26
-0.275
-0.285
-0.3
-0.315
-0.32
-0.335
-0.39
-0.425
-0.43
-0.375
-0.195
0.05
0.45
0.895
1.33
1.66
1.83
1.85
1.7
1.31
0.67
0.03
-0.575
-0.62
-0.525
-0.45
-0.455
-0.46
-0.445
-0.435
-0.41
-0.39
-0.33
-0.275
-0.22
-0.205
-0.21
-0.22
-0.23
-0.225
-0.2
-0.2
-0.195
-0.2
-0.205
-0.2
-0.195
-0.18
-0.17
-0.18
-0.18
-0.175
-0.155
-0.145
-0.16
-0.17
-0.185
-0.175
-0.155
-0.14
-0.135
-0.15
-0.155
-0.14
-0.125
-0.115
-0.125
-0.135
-0.13
-0.13
-0.11
-0.11
-0.125
-0.11
-0.115
-0.125
-0.085
-0.08
-0.085
-0.085
-0.095
-0.07
-0.06
-0.04
-0.04
-0.05
-0.06
-0.035
-0.025
0.0
-0.01
0.0
-0.01
0.01
0.03
0.04
0.05
0.055
0.06
0.08
0.105
0.125
0.125
0.135
0.145
0.16
0.2
0.23
0.24
0.245
0.26
0.29
0.315
0.35
0.37
0.385
0.375
0.415
0.46
0.48
0.5
0.52
0.54
0.575
0.62
0.66
0.67
0.68
0.705
0.74
0.77
0.8
0.81
0.795
0.795
0.805
0.81
0.79
0.75
0.71
0.645
0.615
0.58
0.53
0.48
0.405
0.34
0.29
0.25
0.2
0.14
0.075
0.01
-0.02
-0.045
-0.075
-0.115
-0.155
-0.185
-0.2
-0.2
-0.215
-0.255
-0.27
-0.28
-0.285
-0.285
-0.27
-0.285
-0.3
-0.305
-0.305
-0.3
-0.295
-0.31
-0.325
-0.335
-0.325
-0.32
-0.31
-0.31
-0.33
-0.335
-0.325
-0.325
-0.325
-0.325
-0.34
-0.355
-0.345
-0.34
-0.33
-0.33
-0.35
-0.355
-0.335
-0.325
-0.33
-0.335
-0.345
-0.355
-0.345
-0.345
-0.335
-0.33
-0.345
-0.345
-0.34
-0.335
-0.33
-0.34
-0.365
-0.37
-0.365
-0.335
-0.335
-0.35
-0.375
-0.395
-0.385
-0.36
-0.37
-0.375
-0.385
-0.39
-0.385
-0.365
-0.37
-0.385
-0.395
-0.405
-0.39
-0.39
-0.385
-0.39
-0.405
-0.425
-0.42
-0.41
-0.395
-0.41
-0.42
-0.415
-0.42
-0.395
-0.395
-0.4
-0.425
-0.435
-0.42
-0.415
-0.425
-0.425
-0.435
-0.45
-0.45
-0.43
-0.42
-0.42
-0.445
-0.445
-0.44
-0.435
-0.44
-0.445
-0.445
-0.455
-0.445
-0.435
-0.44
-0.44
-0.455
-0.455
-0.46
-0.44
-0.435
-0.445
-0.455
-0.465
-0.445
-0.43
-0.435
-0.435
-0.47
-0.46
-0.455
-0.44
-0.43
-0.445
-0.445
-0.455
-0.45
-0.43
-0.43
-0.445
-0.46
-0.455
-0.445
-0.435
-0.44
-0.455
-0.455
-0.465
-0.45
-0.44
-0.46
-0.455
-0.47
-0.475
-0.455
-0.45
-0.445
-0.455
-0.465
-0.48
-0.445
-0.445
-0.455
-0.46
-0.47
-0.47
-0.455
-0.445
-0.44
-0.445
-0.465
-0.46
-0.46
-0.45
-0.435
-0.44
-0.47
-0.475
-0.455
-0.43
-0.43
-0.44
-0.46
-0.46
-0.455
-0.455
-0.43
-0.445
-0.455
-0.475
-0.475
-0.44
-0.425
-0.43
-0.435
-0.445
-0.415
-0.415
-0.39
-0.395
-0.4
-0.41
-0.385
-0.365
-0.355
-0.345
-0.375
-0.375
-0.38
-0.365
-0.35
-0.355
-0.39
-0.395
-0.39
-0.39
-0.395
-0.42
-0.455
-0.46
-0.455
-0.435
-0.42
-0.43
-0.44
-0.455
-0.44
-0.43
-0.42
-0.425
-0.43
-0.43
-0.43
-0.425
-0.41
-0.415
-0.41
-0.41
-0.41
-0.395
-0.39
-0.435
-0.485
-0.535
-0.55
-0.535
-0.495
-0.395
-0.185
0.18
0.64
1.075
1.4
1.6
1.66
1.55
1.175
0.535
-0.105
-0.72
-0.79
-0.665
-0.575
-0.565
-0.58
-0.595
-0.6
-0.575
-0.515
-0.445
-0.395
-0.385
-0.38
-0.375
-0.365
-0.355
-0.345
-0.365
-0.375
-0.375
-0.35
-0.35
-0.345
-0.345
-0.34
-0.345
-0.335
-0.32
-0.32
-0.325
-0.32
-0.32
-0.315
-0.3
-0.31
-0.315
-0.325
-0.315
-0.3
-0.295
-0.28
-0.295
-0.3
-0.3
-0.285
-0.275
-0.265
-0.265
-0.275
-0.285
-0.26
-0.26
-0.22
-0.24
-0.25
-0.25
-0.215
-0.19
-0.185
-0.185
-0.18
-0.18
-0.165
-0.145
-0.14
-0.15
-0.15
-0.14
-0.125
-0.1
-0.085
-0.08
-0.085
-0.07
-0.055
-0.02
-0.005
-0.005
-0.005
0.005
0.035
0.07
0.095
0.11
0.115
0.125
0.16
0.195
0.225
0.235
0.25
0.265
0.3
0.33
0.345
0.38
0.375
0.395
0.425
0.45
0.475
0.5
0.505
0.53
0.56
0.58
0.61
0.615
0.61
0.6
0.61
0.595
0.595
0.56
0.515
0.465
0.435
0.405
0.36
0.305
0.23
0.16
0.125
0.09
0.035
-0.01
-0.085
-0.13
-0.16
-0.195
-0.23
-0.275
-0.325
-0.34
-0.36
-0.365
-0.385
-0.4
-0.415
-0.43
-0.445
-0.445
-0.455
-0.465
-0.475
-0.49
-0.485
-0.485
-0.485
-0.49
-0.51
-0.52
-0.51
-0.495
-0.5
-0.515
-0.52
-0.54
-0.525
-0.51
-0.5
-0.52
-0.52
-0.53
-0.525
-0.515
-0.505
-0.51
-0.525
-0.52
-0.52
-0.505
-0.505
-0.51
-0.515
-0.52
-0.515
-0.505
-0.49
-0.505
-0.515
-0.51
-0.5
-0.485
-0.485
-0.505
-0.495
-0.515
-0.5
-0.5
-0.475
-0.505
-0.505
-0.51
-0.515
-0.5
-0.495
-0.51
-0.52
-0.52
-0.515
-0.505
-0.495
-0.51
-0.525
-0.53
-0.51
-0.505
-0.505
-0.505
-0.525
-0.53
-0.545
-0.52
-0.505
-0.52
-0.53
-0.54
-0.555
-0.56
-0.535
-0.535
-0.545
-0.545
-0.54
-0.53
-0.53
-0.54
-0.56
-0.565
-0.56
-0.555
-0.55
-0.545
-0.555
-0.565
-0.57
-0.56
-0.555
-0.55
-0.585
-0.58
-0.56
-0.56
-0.56
-0.565
-0.58
-0.58
-0.56
-0.55
-0.545
-0.55
-0.575
-0.575
-0.565
-0.555
-0.565
-0.56
-0.56
-0.575
-0.57
-0.55
-0.555
-0.555
-0.575
-0.585
-0.58
-0.555
-0.54
-0.55
-0.56
-0.575
-0.56
-0.55
-0.545
-0.555
-0.57
-0.56
-0.545
-0.535
-0.535
-0.545
-0.54
-0.55
-0.53
-0.505
-0.495
-0.49
-0.505
-0.495
-0.475
-0.47
-0.455
-0.46
-0.455
-0.465
-0.45
-0.45
-0.45
-0.47
-0.48
-0.5
-0.5
-0.495
-0.51
-0.525
-0.545
-0.545
-0.55
-0.535
-0.54
-0.55
-0.56
-0.545
-0.55
-0.535
-0.515
-0.535
-0.545
-0.55
-0.54
-0.52
-0.51
-0.525
-0.535
-0.525
-0.51
-0.49
-0.49
-0.51
-0.535
-0.565
-0.595
-0.61
-0.625
-0.625
-0.58
-0.42
-0.115
0.31
0.77
1.195
1.515
1.705
1.76
1.6
1.145
0.505
-0.135
-0.775
-0.855
-0.715
-0.65
-0.665
-0.705
-0.705
-0.665
-0.61
-0.57
-0.53
-0.505
-0.485
-0.455
-0.43
-0.44
-0.465
-0.455
-0.46
-0.43
-0.43
-0.42
-0.42
-0.42
-0.415
-0.41
-0.405
-0.39
-0.4
-0.415
-0.405
-0.4
-0.39
-0.39
-0.385
-0.405
-0.39
-0.375
-0.365
-0.365
-0.37
-0.375
-0.375
-0.36
-0.36
-0.35
-0.35
-0.36
-0.36
-0.345
-0.325
-0.33
-0.325
-0.335
-0.34
-0.32
-0.295
-0.315
-0.31
-0.33
-0.3
-0.285
-0.265
-0.26
-0.25
-0.255
-0.25
-0.235
-0.205
-0.195
-0.195
-0.2
-0.19
-0.17
-0.14
-0.135
-0.135
-0.13
-0.12
-0.1
-0.06
-0.04
-0.045
-0.03
-0.005
0.02
0.055
0.08
0.085
0.11
0.135
0.145
0.195
0.23
0.26
0.27
0.3
0.345
0.375
0.395
0.415
0.45
0.485
0.51
0.545
0.585
0.6
0.61
0.625
0.645
0.665
0.675
0.665
0.645
0.62
0.595
0.56
0.505
0.435
0.36
0.285
0.225
0.17
0.105
0.035
-0.04
-0.1
-0.14
-0.185
-0.225
-0.285
-0.32
-0.355
-0.38
-0.39
-0.405
-0.435
-0.465
-0.485
-0.495
-0.495
-0.495
-0.515
-0.525
-0.545
-0.525
-0.525
-0.525
-0.53
-0.535
-0.555
-0.555
-0.545
-0.535
-0.54
-0.55
-0.555
-0.555
-0.55
-0.54
-0.545
-0.57
-0.57
-0.555
-0.535
-0.535
-0.535
-0.55
-0.565
-0.555
-0.54
-0.545
-0.545
-0.56
-0.56
-0.54
-0.535
-0.535
-0.545
-0.555
-0.56
-0.555
-0.54
-0.53
-0.53
-0.56
-0.55
-0.55
-0.535
-0.53
-0.545
-0.56
-0.565
-0.555
-0.53
-0.545
-0.555
-0.57
-0.58
-0.56
-0.56
-0.555
-0.565
-0.57
-0.585
-0.585
-0.56
-0.565
-0.565
-0.59
-0.6
-0.575
-0.565
-0.56
-0.565
-0.59
-0.595
-0.58
-0.575
-0.57
-0.58
-0.61
-0.61
-0.59
-0.595
-0.585
-0.59
-0.605
-0.605
-0.6
-0.59
-0.59
-0.6
-0.62
-0.605
-0.61
-0.59
-0.585
-0.6
-0.62
-0.605
-0.595
-0.605
-0.58
-0.595
-0.59
-0.615
-0.6
-0.605
-0.605
-0.605
-0.615
-0.625
-0.6
-0.595
-0.605
-0.61
-0.605
-0.605
-0.61
-0.6
-0.58
-0.585
-0.61
-0.61
-0.615
-0.585
-0.585
-0.585
-0.605
-0.62
-0.61
-0.585
-0.595
-0.585
-0.605
-0.6
-0.6
-0.57
-0.58
-0.58
-0.595
-0.595
-0.585
-0.565
-0.575
-0.57
-0.6
-0.6
-0.59
-0.565
-0.575
-0.58
-0.585
-0.59
-0.555
-0.54
-0.54
-0.535
-0.54
-0.55
-0.51
-0.505
-0.48
-0.495
-0.5
-0.495
-0.48
-0.47
-0.485
-0.495
-0.51
-0.495
-0.49
-0.49
-0.49
-0.52
-0.545
-0.555
-0.56
-0.555
-0.56
-0.575
-0.565
-0.565
-0.55
-0.545
-0.55
-0.535
-0.545
-0.55
-0.535
-0.525
-0.525
-0.535
-0.54
-0.545
-0.52
-0.5
-0.5
-0.505
-0.545
-0.575
-0.6
-0.62
-0.625
-0.605
-0.53
-0.325
0.04
0.55
1.05
1.475
1.715
1.78
1.64
1.19
0.55
-0.09
-0.73
-0.855
-0.72
-0.64
-0.645
-0.675
-0.675
-0.66
-0.61
-0.54
-0.48
-0.455
-0.45
-0.465
-0.45
-0.44
-0.445
-0.44
-0.445
-0.45
-0.44
-0.425
-0.405
-0.43
-0.43
-0.435
-0.415
-0.4
-0.395
-0.41
-0.405
-0.42
-0.395
-0.395
-0.385
-0.385
-0.4
-0.42
-0.395
-0.38
-0.365
-0.375
-0.39
-0.375
-0.37
-0.355
-0.345
-0.345
-0.36
-0.355
