Lead II
-1.2
-1.2
-1.19
-1.185
-1.185
-1.175
-1.18
-1.195
-1.195
-1.215
-1.205
-1.225
-1.215
-1.21
-1.2
-1.195
-1.185
-1.175
-1.185
-1.2
-1.21
-1.215
-1.215
-1.225
-1.22
-1.22
-1.225
-1.225
-1.2
-1.205
-1.2
-1.18
-1.19
-1.205
-1.21
-1.23
-1.24
-1.245
-1.235
-1.215
-1.22
-1.205
-1.215
-1.195
-1.2
-1.21
-1.195
-1.19
-1.18
-1.14
-1.125
-1.13
-1.095
-1.075
-1.075
-1.055
-1.055
-1.05
-1.06
-1.055
-1.05
-1.025
-0.99
-0.975
-0.955
-0.955
-0.95
-0.95
-0.975
-1.0
-1.035
-1.045
-1.06
-1.055
-1.035
-1.02
-1.015
-1.025
-1.045
-1.05
-1.09
-1.115
-1.175
-1.195
-1.215
-1.21
-1.195
-1.185
-1.16
-1.145
-1.155
-1.17
-1.18
-1.195
-1.195
-1.2
-1.19
-1.17
-1.155
-1.14
-1.125
-1.13
-1.115
-1.115
-1.095
-1.05
-0.955
-0.835
-0.68
-0.47
-0.285
-0.095
0.08
0.25
0.395
0.44
0.38
0.135
-0.285
-0.81
-1.35
-1.735
-1.91
-1.9
-1.725
-1.525
-1.33
-1.19
-1.11
-1.105
-1.105
-1.135
-1.17
-1.17
-1.18
-1.175
-1.155
-1.145
-1.14
-1.15
-1.15
-1.155
-1.155
-1.155
-1.15
-1.14
-1.12
-1.115
-1.085
-1.08
-1.06
-1.065
-1.08
-1.09
-1.095
-1.105
-1.105
-1.09
-1.045
-1.03
-1.025
-1.03
-1.025
-1.02
-1.025
-1.01
-1.02
-1.01
-1.02
-1.0
-0.98
-0.96
-0.93
-0.92
-0.925
-0.94
-0.935
-0.935
-0.93
-0.92
-0.895
-0.885
-0.86
-0.835
-0.835
-0.83
-0.825
-0.83
-0.805
-0.83
-0.815
-0.81
-0.81
-0.795
-0.79
-0.785
-0.785
-0.77
-0.765
-0.78
-0.81
-0.81
-0.815
-0.84
-0.835
-0.835
-0.84
-0.83
-0.815
-0.84
-0.86
-0.885
-0.905
-0.925
-0.94
-0.95
-0.95
-0.95
-0.95
-0.95
-0.95
-0.96
-0.975
-0.995
-0.995
-0.99
-1.005
-1.015
-1.005
-1.005
-1.015
-1.01
-1.0
-1.0
-1.0
-1.005
-1.0
-1.02
-1.02
-1.03
-1.015
-1.01
-0.99
-0.955
-0.945
-0.96
-0.96
-0.975
-0.965
-0.975
-0.98
-0.99
-0.995
-0.98
-0.955
-0.945
-0.925
-0.935
-0.94
-0.945
-0.975
-0.985
-0.995
-0.98
-0.98
-0.995
-0.99
-1.025
-0.995
-0.995
-0.995
-1.005
-1.015
-1.02
-1.025
-1.04
-1.04
-1.03
-1.03
-1.015
-1.0
-1.01
-1.015
-1.025
-1.04
-1.04
-1.045
-1.045
-1.05
-1.045
-1.045
-1.055
-1.045
-1.03
-1.04
-1.03
-1.04
-1.05
-1.05
-1.065
-1.06
-1.07
-1.055
-1.045
-1.02
-0.985
-0.985
-0.965
-0.96
-0.945
-0.94
-0.945
-0.925
-0.925
-0.91
-0.905
-0.89
-0.875
-0.885
-0.855
-0.85
-0.83
-0.84
-0.84
-0.86
-0.87
-0.88
-0.885
-0.88
-0.89
-0.87
-0.89
-0.91
-0.925
-0.95
-0.975
-0.985
-0.995
-1.0
-1.005
-1.03
-1.055
-1.075
-1.09
-1.09
-1.095
-1.1
-1.085
-1.085
-1.075
-1.07
-1.055
-1.04
-1.04
-1.015
-1.03
-1.035
-1.03
-1.03
-1.005
-0.94
-0.825
-0.67
-0.495
-0.315
-0.105
0.11
0.305
0.46
0.565
0.57
0.425
0.11
-0.35
-0.87
-1.36
-1.69
-1.81
-1.76
-1.58
-1.38
-1.17
-1.04
-0.97
-0.995
-1.01
-1.015
-1.045
-1.045
-1.035
-1.025
-1.015
-1.02
-1.035
-1.04
-1.05
-1.055
-1.065
-1.045
-1.04
-1.01
-1.0
-1.0
-0.995
-1.0
-1.01
-1.015
-0.995
-1.025
-0.99
-0.97
-0.96
-0.925
-0.92
-0.915
-0.93
-0.925
-0.925
-0.925
-0.91
-0.92
-0.905
-0.905
-0.875
-0.855
-0.845
-0.84
-0.85
-0.855
-0.83
-0.825
-0.81
-0.795
-0.775
-0.75
-0.74
-0.725
-0.715
-0.705
-0.695
-0.71
-0.73
-0.73
-0.74
-0.735
-0.725
-0.725
-0.71
-0.705
-0.705
-0.715
-0.715
-0.74
-0.755
-0.765
-0.77
-0.775
-0.765
-0.765
-0.745
-0.76
-0.77
-0.78
-0.805
-0.82
-0.85
-0.85
-0.87
-0.88
-0.875
-0.87
-0.885
-0.88
-0.89
-0.91
-0.905
-0.905
-0.92
-0.915
-0.925
-0.94
-0.925
-0.92
-0.92
-0.91
-0.905
-0.9
-0.895
-0.915
-0.92
-0.93
-0.95
-0.95
-0.935
-0.925
-0.895
-0.875
-0.88
-0.865
-0.88
-0.895
-0.905
-0.9
-0.9
-0.905
-0.9
-0.905
-0.905
-0.905
-0.89
-0.905
-0.9
-0.91
-0.91
-0.925
-0.94
-0.945
-0.95
-0.955
-0.955
-0.95
-0.935
-0.955
-0.955
-0.955
-0.965
-0.96
-0.97
-0.96
-0.96
-0.965
-0.97
-0.935
-0.93
-0.93
-0.955
-0.955
-0.965
-0.97
-0.97
-0.98
-0.98
-0.98
-0.97
-0.965
-0.955
-0.965
-0.965
-0.98
-0.985
-0.99
-0.985
-0.995
-0.985
-0.96
-0.945
-0.935
-0.935
-0.935
-0.925
-0.91
-0.915
-0.905
-0.89
-0.875
-0.86
-0.845
-0.845
-0.83
-0.83
-0.815
-0.835
-0.825
-0.835
-0.82
-0.83
-0.805
-0.78
-0.77
-0.75
-0.755
-0.765
-0.8
-0.81
-0.82
-0.83
-0.84
-0.86
-0.875
-0.865
-0.87
-0.89
-0.905
-0.925
-0.96
-0.98
-1.01
-1.04
-1.05
-1.06
-1.06
-1.04
-1.025
-1.015
-1.005
-1.01
-1.005
-1.005
-1.02
-1.04
-1.05
-1.065
-1.035
-1.02
-1.0
-0.945
-0.875
-0.8
-0.695
-0.55
-0.405
-0.21
-0.005
0.23
0.435
0.59
0.64
0.52
0.215
-0.27
-0.83
-1.32
-1.64
-1.735
-1.64
-1.42
-1.195
-1.015
-0.895
-0.88
-0.875
-0.92
-0.94
-0.97
-0.985
-0.995
-1.0
-0.995
-0.995
-0.985
-0.97
-0.97
-0.955
-0.94
-0.935
-0.93
-0.93
-0.94
-0.95
-0.93
-0.915
-0.915
-0.905
-0.89
-0.9
-0.87
-0.88
-0.89
-0.89
-0.885
-0.885
-0.875
-0.855
-0.855
-0.835
-0.825
-0.805
-0.795
-0.77
-0.78
-0.76
-0.76
-0.755
-0.75
-0.755
-0.76
-0.73
-0.71
-0.69
-0.66
-0.655
-0.665
-0.65
-0.635
-0.65
-0.65
-0.645
-0.645
-0.61
-0.6
-0.6
-0.585
-0.61
-0.6
-0.62
-0.645
-0.64
-0.66
-0.66
-0.66
-0.665
-0.67
-0.67
-0.675
-0.68
-0.675
-0.705
-0.71
-0.73
-0.74
-0.77
-0.765
-0.775
-0.76
-0.77
-0.77
-0.775
-0.79
-0.8
-0.805
-0.825
-0.825
-0.84
-0.835
-0.825
-0.83
-0.82
-0.8
-0.82
-0.82
-0.835
-0.845
-0.84
-0.855
-0.845
-0.835
-0.825
-0.82
-0.81
-0.81
-0.815
-0.82
-0.825
-0.835
-0.84
-0.82
-0.825
-0.825
-0.84
-0.825
-0.815
-0.805
-0.79
-0.795
-0.815
-0.825
-0.84
-0.845
-0.855
-0.86
-0.84
-0.845
-0.835
-0.825
-0.82
-0.84
-0.84
-0.84
-0.86
-0.86
-0.885
-0.88
-0.865
-0.865
-0.845
-0.85
-0.85
-0.87
-0.88
-0.88
-0.885
-0.885
-0.88
-0.88
-0.87
-0.87
-0.86
-0.86
-0.865
-0.875
-0.88
-0.89
-0.895
-0.9
-0.92
-0.92
-0.9
-0.905
-0.9
-0.865
-0.875
-0.89
-0.89
-0.905
-0.895
-0.89
-0.885
-0.88
-0.865
-0.855
-0.835
-0.81
-0.795
-0.77
-0.745
-0.75
-0.725
-0.735
-0.735
-0.745
-0.73
-0.72
-0.7
-0.7
-0.67
-0.67
-0.655
-0.65
-0.655
-0.66
-0.665
-0.675
-0.68
-0.69
-0.685
-0.695
-0.71
-0.715
-0.745
-0.765
-0.765
-0.79
-0.815
-0.845
-0.845
-0.87
-0.86
-0.87
-0.88
-0.895
-0.91
-0.93
-0.94
-0.94
-0.93
-0.91
-0.905
-0.9
-0.895
-0.895
-0.885
-0.885
-0.9
-0.885
-0.89
-0.875
-0.865
-0.81
-0.715
-0.61
-0.455
-0.3
-0.165
-0.015
0.135
0.315
0.49
0.63
0.7
0.655
0.455
0.04
-0.49
-1.01
-1.415
-1.595
-1.575
-1.4
-1.2
-0.995
-0.855
-0.79
-0.78
-0.82
-0.86
-0.85
-0.86
-0.875
-0.855
-0.865
-0.85
-0.865
-0.875
-0.88
-0.87
-0.86
-0.84
-0.82
-0.82
-0.835
-0.83
-0.84
-0.84
-0.84
-0.84
-0.835
-0.83
-0.82
-0.805
-0.785
-0.77
-0.76
-0.76
-0.765
-0.78
-0.78
-0.77
-0.765
-0.74
-0.73
-0.715
-0.695
-0.69
-0.71
-0.715
-0.72
-0.72
-0.71
-0.695
-0.68
-0.66
-0.63
-0.625
-0.58
-0.595
-0.595
-0.6
-0.605
-0.605
-0.61
-0.59
-0.585
-0.575
-0.57
-0.55
-0.535
-0.54
-0.545
-0.545
-0.56
-0.58
-0.575
-0.59
-0.59
-0.595
-0.58
-0.585
-0.565
-0.585
-0.59
-0.625
-0.635
-0.655
-0.66
-0.67
-0.675
-0.665
-0.675
-0.7
-0.695
-0.73
-0.755
-0.755
-0.765
-0.78
-0.79
-0.785
-0.775
-0.76
-0.755
-0.765
-0.75
-0.755
-0.775
-0.775
-0.795
-0.785
-0.77
-0.78
-0.78
-0.795
-0.795
-0.785
-0.78
-0.765
-0.765
-0.77
-0.795
-0.815
-0.815
-0.81
-0.81
-0.78
-0.78
-0.785
-0.775
-0.77
-0.775
-0.775
-0.79
-0.795
-0.82
-0.84
-0.82
-0.81
-0.815
-0.81
-0.815
-0.805
-0.8
-0.79
-0.8
-0.845
-0.845
-0.86
-0.835
-0.83
-0.82
-0.805
-0.8
-0.815
-0.82
-0.85
-0.85
-0.865
-0.875
-0.865
-0.875
-0.855
-0.865
-0.84
-0.835
-0.84
-0.855
-0.87
-0.88
-0.885
-0.88
-0.88
-0.87
-0.86
-0.84
-0.84
-0.83
-0.825
-0.83
-0.84
-0.86
-0.86
-0.86
-0.85
-0.825
-0.775
-0.755
-0.74
-0.715
-0.71
-0.685
-0.685
-0.68
-0.695
-0.705
-0.705
-0.7
-0.695
-0.665
-0.64
-0.625
-0.615
-0.615
-0.63
-0.65
-0.69
-0.695
-0.705
-0.735
-0.73
-0.72
-0.72
-0.71
-0.745
-0.765
-0.82
-0.85
-0.87
-0.885
-0.935
-0.93
-0.945
-0.93
-0.92
-0.9
-0.905
-0.915
-0.925
-0.915
-0.925
-0.915
-0.91
-0.925
-0.91
-0.89
-0.885
-0.85
-0.84
-0.795
-0.71
-0.595
-0.46
-0.295
-0.105
0.125
0.33
0.53
0.705
0.805
0.795
0.65
0.34
-0.115
-0.655
-1.16
-1.5
-1.595
-1.53
-1.325
-1.095
-0.89
-0.77
-0.755
-0.785
-0.855
-0.905
-0.94
-0.955
-0.945
-0.915
-0.885
-0.865
-0.855
-0.86
-0.87
-0.885
-0.89
-0.895
-0.89
-0.88
-0.87
-0.865
-0.85
-0.855
-0.825
-0.82
-0.825
-0.825
-0.845
-0.855
-0.86
-0.84
-0.82
-0.8
-0.81
-0.82
-0.79
-0.795
-0.785
-0.785
-0.78
-0.78
-0.78
-0.77
-0.765
-0.755
-0.755
-0.74
-0.73
-0.705
-0.7
-0.685
-0.69
-0.69
-0.695
-0.705
-0.68
-0.66
-0.66
-0.64
-0.63
-0.645
-0.645
-0.65
-0.65
-0.665
-0.66
-0.665
-0.66
-0.645
-0.65
-0.65
-0.64
-0.645
-0.64
-0.645
-0.655
-0.705
-0.715
-0.71
-0.73
-0.73
-0.72
-0.71
-0.71
-0.715
-0.735
-0.75
-0.76
-0.785
-0.785
-0.795
-0.795
-0.79
-0.79
-0.785
-0.795
-0.8
-0.8
-0.815
-0.825
-0.82
-0.825
-0.82
-0.82
-0.83
-0.81
-0.815
-0.79
-0.81
-0.825
-0.84
-0.835
-0.84
-0.83
-0.83
-0.805
-0.81
-0.82
-0.83
-0.81
-0.815
-0.82
-0.825
-0.83
-0.835
-0.845
-0.845
-0.835
-0.82
-0.82
-0.845
-0.855
-0.84
-0.86
-0.855
-0.855
-0.86
-0.875
-0.885
-0.89
-0.89
-0.885
-0.88
-0.86
-0.865
-0.87
-0.87
-0.88
-0.89
-0.885
-0.9
-0.9
-0.9
-0.895
-0.885
-0.87
-0.865
-0.88
-0.885
-0.905
-0.92
-0.91
-0.92
-0.905
-0.905
-0.885
-0.87
-0.85
-0.855
-0.855
-0.88
-0.895
-0.895
-0.885
-0.89
-0.885
-0.86
-0.845
-0.815
-0.78
-0.75
-0.74
-0.74
-0.725
-0.73
-0.725
-0.715
-0.705
-0.705
-0.685
-0.68
-0.655
-0.655
-0.63
-0.62
-0.615
-0.62
-0.63
-0.65
-0.675
-0.67
-0.685
-0.695
-0.69
-0.68
-0.7
-0.715
-0.735
-0.775
-0.805
-0.815
-0.85
-0.875
-0.9
-0.91
-0.91
-0.89
-0.885
-0.9
-0.91
-0.915
-0.92
-0.92
-0.905
-0.915
-0.895
-0.885
-0.875
-0.875
-0.89
-0.885
-0.89
-0.875
-0.805
-0.675
-0.52
-0.305
-0.09
0.155
0.385
0.615
0.78
0.83
0.695
0.32
-0.235
-0.85
-1.37
-1.665
-1.705
-1.55
-1.29
-1.045
-0.86
-0.775
-0.765
-0.805
-0.86
-0.905
-0.93
-0.925
-0.9
-0.89
-0.865
-0.855
-0.86
-0.885
-0.87
-0.895
-0.895
-0.895
-0.89
-0.87
-0.855
-0.835
-0.81
-0.815
-0.83
-0.845
-0.84
-0.83
-0.83
-0.82
-0.83
-0.79
-0.77
-0.76
-0.75
-0.75
-0.755
-0.76
-0.75
-0.75
-0.745
-0.73
-0.73
-0.73
-0.71
-0.7
-0.69
-0.67
-0.675
-0.675
-0.67
-0.675
-0.675
-0.665
-0.655
-0.65
-0.65
-0.625
-0.63
-0.615
-0.62
-0.62
-0.62
-0.615
-0.62
-0.635
-0.635
-0.625
-0.62
-0.625
-0.62
-0.61
-0.615
-0.64
-0.66
-0.67
-0.68
-0.68
-0.69
-0.68
-0.675
-0.685
-0.68
-0.69
-0.71
-0.73
-0.74
-0.765
-0.765
-0.8
-0.815
-0.805
-0.81
-0.82
-0.795
-0.795
-0.795
-0.815
-0.825
-0.835
-0.845
-0.855
-0.855
-0.855
-0.835
-0.815
-0.81
-0.82
-0.82
-0.825
-0.825
-0.82
-0.815
-0.825
-0.815
-0.82
-0.815
-0.82
-0.81
-0.805
-0.805
-0.815
-0.815
-0.835
-0.835
-0.85
-0.85
-0.84
-0.83
-0.81
-0.81
-0.825
-0.84
-0.84
-0.865
-0.88
-0.88
-0.885
-0.895
-0.865
-0.865
-0.855
-0.86
-0.865
-0.88
-0.9
-0.9
-0.915
-0.935
-0.96
-0.95
-0.945
-0.935
-0.91
-0.915
-0.9
-0.905
-0.905
-0.93
-0.96
-0.955
-0.965
-0.975
-0.955
-0.925
-0.915
-0.9
-0.91
-0.915
-0.935
-0.945
-0.95
-0.96
-0.965
-0.95
-0.955
-0.935
-0.935
-0.93
-0.93
-0.915
-0.935
-0.935
-0.935
-0.92
-0.89
-0.855
-0.835
-0.83
-0.805
-0.795
-0.8
-0.79
-0.805
-0.825
-0.82
-0.825
-0.83
-0.8
-0.78
-0.755
-0.74
-0.705
-0.71
-0.725
-0.775
-0.8
-0.82
-0.83
-0.85
-0.87
-0.89
-0.885
-0.88
-0.895
-0.9
-0.925
-0.965
-0.98
-1.01
-1.02
-1.035
-1.04
-1.05
-1.04
-1.03
-1.005
-1.015
-1.015
-1.01
-1.02
-1.05
-1.055
-1.06
-1.065
-1.06
-1.055
-1.01
-1.01
-0.985
-0.93
-0.86
-0.76
-0.61
-0.46
-0.27
-0.07
0.15
0.355
0.515
0.58
0.455
0.14
-0.355
-0.93
-1.435
-1.75
-1.83
-1.73
-1.495
-1.25
-1.06
-0.94
-0.87
-0.9
-0.925
-0.97
-0.995
-1.01
-1.02
-1.015
-0.995
-0.99
-0.98
-0.985
-0.995
-0.98
-0.97
-0.98
-0.975
-0.98
-0.99
-0.985
-0.955
-0.94
-0.935
-0.92
-0.94
-0.94
-0.95
-0.95
-0.94
-0.925
-0.93
-0.92
-0.9
-0.9
-0.895
-0.88
-0.875
-0.87
-0.87
-0.85
-0.85
-0.85
-0.86
-0.86
-0.85
-0.845
-0.8
-0.795
-0.79
-0.77
-0.77
-0.77
-0.77
-0.775
-0.775
-0.755
-0.75
-0.73
-0.72
-0.715
-0.735
-0.735
-0.73
-0.745
-0.745
-0.76
-0.765
-0.765
-0.765
-0.745
-0.725
-0.73
-0.735
-0.745
-0.75
-0.775
-0.795
-0.8
-0.81
-0.825
-0.805
-0.805
-0.795
-0.785
-0.81
-0.82
-0.83
-0.845
-0.865
-0.885
-0.895
-0.89
-0.895
-0.865
-0.86
-0.85
-0.85
-0.86
-0.87
-0.88
-0.875
-0.88
-0.88
-0.885
-0.89
-0.865
-0.865
-0.85
-0.84
-0.84
-0.85
-0.845
-0.865
-0.86
-0.86
-0.865
-0.865
-0.855
-0.875
-0.85
-0.86
-0.865
-0.88
-0.885
-0.915
-0.925
-0.905
-0.91
-0.905
-0.885
-0.89
-0.9
-0.89
-0.905
-0.925
-0.945
-0.96
-0.965
-0.975
-0.995
-0.98
-0.99
-0.96
-0.945
-0.955
-0.965
-0.965
-0.97
-0.99
-1.02
-1.04
-1.035
-1.03
-1.03
-1.025
-1.015
-1.015
-1.03
-1.03
-1.015
-1.035
-1.035
-1.045
-1.045
-1.045
-1.045
-1.035
-1.025
-1.035
-1.035
-1.035
-1.05
-1.055
-1.07
-1.06
-1.055
-1.03
-1.005
-0.985
-0.965
-0.96
-0.955
-0.955
-0.955
-0.955
-0.95
-0.955
-0.955
-0.93
-0.92
-0.895
-0.875
-0.845
-0.835
-0.83
-0.83
-0.845
-0.875
-0.89
-0.915
-0.915
-0.95
-0.955
-0.935
-0.96
-0.96
-0.965
-0.995
-1.025
-1.05
-1.075
-1.095
-1.13
-1.13
-1.14
-1.13
-1.13
-1.135
-1.14
-1.15
-1.155
-1.155
-1.145
-1.15
-1.15
-1.145
-1.13
-1.135
-1.12
-1.12
-1.12
-1.115
-1.095
-1.02
-0.935
-0.82
-0.625
-0.425
-0.2
0.065
0.315
0.53
0.675
0.67
0.495
0.105
-0.47
-1.085
-1.58
-1.87
-1.92
-1.785
-1.575
-1.37
-1.2
-1.115
-1.08
-1.09
-1.12
-1.145
-1.155
-1.16
-1.14
-1.115
-1.13
-1.14
-1.135
-1.14
-1.155
-1.15
-1.15
-1.15
-1.12
-1.1
-1.1
-1.09
-1.095
-1.1
-1.085
-1.09
-1.085
-1.07
-1.1
-1.095
-1.075
-1.055
-1.04
-1.03
-1.03
-1.02
-1.015
-1.015
-1.025
-1.01
-1.02
-1.005
-0.985
-0.98
-0.975
-0.955
-0.94
-0.94
-0.945
-0.945
-0.935
-0.925
-0.91
-0.915
-0.905
-0.885
-0.875
-0.86
-0.845
-0.84
-0.83
-0.835
-0.86
-0.875
-0.87
-0.865
-0.855
-0.85
-0.84
-0.85
-0.84
-0.845
-0.855
-0.865
-0.885
-0.9
-0.92
-0.92
-0.925
-0.92
-0.95
-0.925
-0.955
-0.955
-0.99
-1.01
-1.05
-1.055
-1.06
-1.07
-1.085
-1.08
-1.075
-1.06
-1.07
-1.085
-1.085
-1.1
-1.125
-1.12
-1.13
-1.135
-1.12
-1.125
-1.125
-1.12
-1.11
-1.105
-1.105
-1.105
-1.12
-1.12
-1.13
-1.12
-1.11
-1.105
-1.08
-1.085
-1.08
-1.09
-1.095
-1.1
-1.12
-1.125
-1.12
-1.125
-1.11
-1.105
-1.1
-1.1
-1.105
-1.12
-1.115
-1.12
-1.125
-1.13
-1.14
-1.145
-1.14
-1.145
-1.145
-1.135
-1.15
-1.145
-1.165
-1.165
-1.175
-1.17
-1.17
-1.175
-1.165
-1.175
-1.17
-1.165
-1.16
-1.175
-1.175
-1.21
-1.2
-1.205
-1.205
-1.205
-1.205
-1.195
-1.19
-1.185
-1.185
-1.18
-1.185
-1.2
-1.22
-1.22
-1.225
-1.23
-1.215
-1.19
-1.15
-1.125
-1.125
-1.11
-1.105
-1.125
-1.15
-1.13
-1.14
-1.1
-1.09
-1.08
-1.05
-1.025
-1.0
-0.995
-1.005
-1.03
-1.05
-1.065
-1.1
-1.115
-1.13
-1.135
-1.165
-1.15
-1.12
-1.15
-1.16
-1.19
-1.22
-1.25
-1.285
-1.305
-1.34
-1.34
-1.335
-1.34
-1.33
-1.315
-1.305
-1.31
-1.305
-1.295
-1.315
-1.315
-1.31
-1.315
-1.3
-1.28
-1.265
-1.24
-1.19
-1.15
-1.06
-0.92
-0.735
-0.515
-0.265
-0.03
0.185
0.365
0.46
0.45
0.295
-0.02
-0.48
-1.02
-1.55
-1.93
-2.095
-2.07
-1.91
-1.685
-1.495
-1.335
-1.27
-1.245
-1.245
-1.27
-1.305
-1.32
-1.305
-1.295
-1.285
-1.26
-1.27
-1.27
-1.25
-1.255
-1.245
-1.245
-1.25
-1.25
-1.23
-1.225
-1.215
-1.185
-1.175
-1.16
-1.17
-1.175
-1.175
-1.175
-1.175
-1.18
-1.16
-1.15
-1.145
-1.14
-1.13
-1.11
-1.1
-1.09
-1.1
-1.095
-1.09
-1.09
-1.075
-1.045
-1.04
-1.03
-1.02
-1.0
-1.005
-0.99
-0.985
-1.0
-0.99
-0.985
-0.965
-0.95
-0.925
-0.915
-0.895
-0.89
-0.875
-0.88
-0.885
-0.88
-0.89
-0.89
-0.88
-0.87
-0.875
-0.86
-0.87
-0.9
-0.91
-0.935
-0.945
-0.955
-0.96
-0.965
-0.96
-0.965
-0.95
-0.95
-0.955
-0.995
-1.02
-1.035
-1.07
-1.06
-1.07
-1.08
-1.1
-1.09
-1.09
-1.08
-1.1
-1.115
-1.11
-1.12
-1.12
-1.125
-1.13
-1.145
-1.14
-1.14
-1.13
-1.115
-1.115
-1.12
-1.13
-1.12
-1.13
-1.135
-1.135
-1.135
-1.13
-1.115
-1.105
-1.09
-1.095
-1.095
-1.105
-1.1
-1.105
-1.1
-1.095
-1.09
-1.1
-1.095
-1.08
-1.065
-1.07
-1.065
-1.075
-1.085
-1.1
-1.09
-1.09
-1.09
-1.085
-1.075
-1.075
-1.08
-1.07
-1.07
-1.085
-1.095
-1.11
-1.105
-1.115
-1.125
-1.115
-1.105
-1.115
-1.11
-1.105
-1.11
-1.12
-1.13
-1.14
-1.15
-1.155
-1.155
-1.145
-1.145
-1.135
-1.115
-1.115
-1.115
-1.12
-1.14
-1.16
-1.15
-1.165
-1.155
-1.15
-1.145
-1.14
-1.135
-1.135
-1.13
-1.125
-1.11
-1.1
-1.085
-1.085
-1.055
-1.055
-1.035
-1.03
-1.015
-0.995
-1.005
-1.005
-1.005
-1.005
-1.0
-0.975
-0.955
-0.945
-0.92
-0.915
-0.91
-0.92
-0.935
-0.95
-0.975
-0.985
-0.995
-1.015
-1.025
-1.03
-1.04
-1.045
-1.04
-1.065
-1.085
-1.115
-1.145
-1.175
-1.195
-1.205
-1.21
-1.2
-1.195
-1.175
-1.17
-1.17
-1.145
-1.15
-1.145
-1.16
-1.165
-1.165
-1.165
-1.16
-1.15
-1.125
-1.105
-1.065
-1.02
-0.965
-0.855
-0.74
-0.59
-0.445
-0.28
-0.09
0.105
0.285
0.4
0.4
0.22
-0.16
-0.7
-1.265
-1.72
-1.975
-1.98
-1.795
-1.52
-1.27
-1.07
-0.99
-1.0
-1.04
-1.105
-1.14
-1.17
-1.195
-1.165
-1.135
-1.125
-1.12
-1.105
-1.09
-1.1
-1.1
-1.105
-1.105
-1.105
-1.095
-1.1
-1.085
-1.07
-1.06
-1.05
-1.045
-1.045
-1.025
-1.035
-1.03
-1.025
-1.03
-1.025
-1.01
-1.0
-0.98
-0.96
-0.955
-0.945
-0.945
-0.94
-0.925
-0.925
-0.91
-0.895
-0.88
-0.87
-0.86
-0.85
-0.835
-0.81
-0.81
-0.81
-0.795
-0.8
-0.795
-0.785
-0.78
-0.78
-0.755
-0.74
-0.725
-0.73
-0.725
-0.735
-0.73
-0.735
-0.74
-0.745
-0.73
-0.725
-0.725
-0.72
-0.725
-0.725
-0.745
-0.775
-0.785
-0.795
-0.815
-0.81
-0.83
-0.83
-0.83
-0.84
-0.855
-0.865
-0.885
-0.925
-0.945
-0.94
-0.955
-0.955
-0.955
-0.935
-0.94
-0.94
-0.96
-0.965
-0.965
-0.965
-0.975
-0.985
-0.985
-0.98
-0.98
-0.97
-0.96
-0.95
-0.95
-0.955
-0.95
-0.955
-0.955
-0.955
-0.955
-0.94
-0.94
-0.92
-0.92
-0.905
-0.895
-0.885
-0.895
-0.91
-0.935
-0.925
-0.92
-0.925
-0.92
-0.925
-0.91
-0.9
-0.9
-0.925
-0.94
-0.92
-0.94
-0.945
-0.95
-0.955
-0.955
-0.955
-0.94
-0.93
-0.94
-0.945
-0.935
-0.95
-0.955
-0.965
-0.98
-0.98
-0.99
-0.98
-0.97
-0.945
-0.945
-0.945
-0.955
-0.985
-0.975
-0.995
-0.985
-0.99
-0.975
-0.965
-0.955
-0.95
-0.94
-0.945
-0.955
-0.97
-0.985
-0.995
-0.99
-0.975
-0.955
-0.93
-0.895
-0.855
-0.83
-0.82
-0.81
-0.83
-0.825
-0.83
-0.835
-0.84
-0.805
-0.78
-0.775
-0.735
-0.72
-0.71
-0.73
-0.74
-0.765
-0.765
-0.79
-0.79
-0.795
-0.83
-0.84
-0.845
-0.845
-0.85
-0.885
-0.915
-0.94
-0.96
-0.985
-1.015
-1.025
-1.03
-1.02
-1.0
-0.99
-0.98
-0.98
-0.995
-1.005
-1.015
-1.025
-1.03
-1.02
-1.01
-1.0
-0.99
-0.965
-0.955
-0.945
-0.905
-0.855
-0.765
-0.675
-0.545
-0.415
-0.285
-0.13
0.03
0.215
0.41
0.525
0.53
0.35
-0.04
-0.595
-1.155
-1.58
-1.77
-1.735
-1.545
-1.28
-1.045
-0.89
-0.84
-0.875
-0.915
-0.97
-1.005
-1.01
-0.99
-0.965
-0.93
-0.92
-0.925
-0.935
-0.94
-0.95
-0.965
-0.96
-0.945
-0.94
-0.935
-0.915
-0.9
-0.9
-0.895
-0.89
-0.895
-0.895
-0.915
-0.88
-0.875
-0.875
-0.86
-0.845
-0.835
-0.82
-0.82
-0.81
-0.81
-0.805
-0.815
-0.82
-0.83
-0.81
-0.79
-0.76
-0.74
-0.725
-0.725
-0.72
-0.735
-0.735
-0.73
-0.705
-0.71
-0.705
-0.665
-0.655
-0.63
-0.62
-0.63
-0.625
-0.62
-0.62
-0.64
-0.655
-0.65
-0.645
-0.635
-0.625
-0.635
-0.64
-0.63
-0.635
-0.66
-0.69
-0.685
-0.7
-0.71
-0.705
-0.705
-0.715
-0.72
-0.755
-0.755
-0.755
-0.78
-0.805
-0.815
-0.83
-0.845
-0.835
-0.85
-0.855
-0.85
-0.845
-0.875
-0.885
-0.88
-0.87
-0.875
-0.875
-0.88
-0.89
-0.88
-0.875
-0.85
-0.825
-0.825
-0.835
-0.835
-0.85
-0.865
-0.87
-0.875
-0.85
-0.845
-0.825
-0.81
-0.805
-0.805
-0.82
-0.845
-0.86
-0.855
-0.86
-0.865
-0.85
-0.835
-0.825
-0.825
-0.825
-0.83
-0.835
-0.85
-0.85
-0.865
-0.875
-0.89
-0.875
-0.875
-0.865
-0.865
-0.87
-0.88
-0.885
-0.895
-0.9
-0.905
-0.915
-0.925
-0.92
-0.91
-0.91
-0.905
-0.9
-0.905
-0.905
-0.925
-0.93
-0.945
-0.94
-0.955
-0.95
-0.935
-0.92
-0.91
-0.905
-0.9
-0.91
-0.915
-0.93
-0.935
-0.94
-0.925
-0.915
-0.9
-0.88
-0.85
-0.82
-0.81
-0.805
-0.795
-0.8
-0.815
-0.8
-0.815
-0.81
-0.785
-0.75
-0.72
-0.69
-0.68
-0.67
-0.685
-0.705
-0.735
-0.745
-0.765
-0.79
-0.8
-0.815
-0.83
-0.82
-0.84
-0.85
-0.875
-0.895
-0.935
-0.96
-0.995
-0.995
-1.0
-1.015
-1.01
-1.01
-1.025
-1.01
-1.015
-1.025
-1.035
-1.04
-1.055
-1.055
-1.045
-1.015
-0.995
-0.99
-0.995
-1.005
-1.025
-1.01
-0.99
-0.94
-0.835
-0.705
-0.52
-0.34
-0.155
0.045
0.23
0.42
0.56
0.615
0.525
0.265
-0.18
-0.715
-1.23
-1.64
-1.85
-1.9
-1.81
-1.63
-1.43
-1.25
-1.1
-1.025
-1.01
-1.0
-1.025
-1.055
-1.065
-1.055
-1.055
-1.05
-1.045
-1.035
-1.02
-1.02
-1.0
-1.02
-1.04
-1.05
-1.05
-1.045
-1.03
-1.03
-1.01
-0.995
-0.97
-0.96
-0.98
-0.985
-0.98
-0.955
-0.97
-0.97
-0.965
-0.955
-0.95
-0.925
-0.915
-0.925
-0.945
-0.955
-0.94
-0.94
-0.915
-0.895
-0.89
-0.875
-0.885
-0.885
-0.9
-0.905
-0.885
-0.865
-0.845
-0.805
-0.8
-0.785
-0.785
-0.79
-0.795
-0.785
-0.79
-0.775
-0.77
-0.745
-0.735
-0.735
-0.735
-0.725
-0.74
-0.745
-0.725
-0.735
-0.75
-0.775
-0.785
-0.795
-0.805
-0.795
-0.785
-0.775
-0.785
-0.805
-0.825
-0.845
-0.88
-0.875
-0.875
-0.885
-0.87
-0.885
-0.87
-0.89
-0.895
-0.92
-0.945
-0.975
-1.005
-1.03
-1.055
-1.05
-1.045
-1.02
-1.0
-1.015
-1.01
-1.015
-1.04
-1.065
-1.045
-1.05
-1.04
-1.03
-1.025
-1.01
-1.0
-0.995
-1.015
-1.015
-1.03
-1.04
-1.07
-1.065
-1.075
-1.08
-1.055
-1.05
-1.025
-1.02
-1.025
-1.025
-1.04
-1.055
-1.05
-1.05
-1.075
-1.08
-1.07
-1.055
-1.04
-1.025
-1.05
-1.05
-1.045
-1.065
-1.065
-1.085
-1.085
-1.095
-1.12
-1.12
-1.115
-1.095
-1.06
-1.05
-1.05
-1.065
-1.085
-1.115
-1.13
-1.125
-1.115
-1.14
-1.11
-1.085
-1.09
-1.1
-1.11
-1.125
-1.15
-1.145
-1.125
-1.11
-1.085
-1.105
-1.1
-1.105
-1.11
-1.11
-1.11
-1.095
-1.06
-1.05
-1.03
-1.02
-1.005
-1.035
-1.045
-1.025
-1.0
-0.995
-0.975
-0.985
-0.985
-0.98
-0.975
-0.96
-0.945
-0.925
-0.915
-0.92
-0.925
-0.95
-0.96
-0.98
-1.005
-1.01
-1.025
-1.04
-1.03
-1.04
-1.05
-1.055
-1.1
-1.11
-1.145
-1.205
-1.25
-1.245
-1.24
-1.225
-1.2
-1.175
-1.18
-1.18
-1.185
-1.19
-1.205
-1.205
-1.215
-1.22
-1.2
-1.195
-1.195
-1.165
-1.14
-1.095
-1.005
-0.885
-0.72
-0.53
-0.335
-0.125
0.08
0.305
0.48
0.595
0.605
0.445
0.05
-0.495
-1.1
-1.62
-1.925
-1.99
-1.86
-1.65
-1.415
-1.24
-1.125
-1.095
-1.105
-1.135
-1.18
-1.205
-1.215
-1.21
-1.205
-1.205
-1.205
-1.19
-1.195
-1.195
-1.2
-1.185
-1.18
-1.175
-1.165
-1.17
-1.165
-1.155
-1.15
-1.15
-1.13
-1.12
-1.095
-1.095
-1.1
-1.1
-1.1
-1.105
-1.095
-1.09
-1.08
-1.07
-1.05
-1.03
-1.04
-1.03
-1.03
-1.04
-1.035
-1.03
-1.015
-1.01
-0.99
-0.985
-0.98
-0.965
-0.95
-0.94
-0.925
-0.92
-0.91
-0.94
-0.91
-0.92
-0.895
-0.895
-0.88
-0.87
-0.86
-0.86
-0.865
-0.885
-0.88
-0.9
-0.89
-0.89
-0.88
-0.895
-0.89
-0.885
-0.88
-0.905
-0.915
-0.93
-0.94
-0.955
-0.955
-0.965
-0.955
-0.965
-0.965
-0.965
-0.975
-1.0
-1.005
-1.025
-1.045
-1.05
-1.05
-1.06
-1.06
-1.06
-1.06
-1.055
-1.055
-1.045
-1.04
-1.05
-1.065
-1.085
-1.075
-1.08
-1.07
-1.06
-1.055
-1.025
-1.02
-1.025
-1.02
-1.035
-1.04
-1.045
-1.045
-1.04
-1.03
-1.035
-1.025
-1.01
-1.005
-1.0
-1.01
-0.995
-1.01
-1.01
-1.02
-1.025
-1.03
-1.025
-1.015
-1.02
-1.02
-1.01
-1.005
-1.015
-1.015
-1.015
-1.01
-1.01
-1.015
-1.015
-1.02
-1.025
-1.04
-1.045
-1.055
-1.05
-1.045
-1.07
-1.07
-1.06
-1.05
-1.03
-1.03
-1.035
-1.03
-1.045
-1.05
-1.045
-1.07
-1.07
-1.07
-1.055
-1.055
-1.06
-1.03
-1.025
-1.015
-1.015
-1.025
-1.035
-1.05
-1.055
-1.05
-1.06
-1.045
-1.03
-1.0
-0.97
-0.955
-0.945
-0.94
-0.935
-0.94
-0.94
-0.92
-0.925
-0.92
-0.895
-0.88
-0.875
-0.845
-0.835
-0.83
-0.83
-0.825
-0.835
-0.85
-0.865
-0.855
-0.855
-0.845
-0.86
-0.87
-0.89
-0.91
-0.935
-0.955
-0.975
-1.005
-1.025
-1.025
-1.05
-1.06
-1.065
-1.07
-1.095
-1.105
-1.1
-1.11
-1.11
-1.115
-1.1
-1.095
-1.1
-1.085
-1.08
-1.085
-1.08
-1.09
-1.09
-1.085
-1.095
-1.08
-1.07
-1.04
-0.945
-0.855
-0.695
-0.52
-0.3
-0.06
0.19
0.42
0.57
0.59
0.4
-0.02
-0.585
-1.19
-1.635
-1.855
-1.85
-1.695
-1.46
-1.24
-1.09
-1.01
-0.995
-0.995
-1.025
-1.035
-1.055
-1.08
-1.05
-1.05
-1.05
-1.05
-1.045
-1.065
-1.065
-1.045
-1.015
-1.015
-0.99
-1.0
-0.995
-1.005
-1.0
-1.01
-1.015
-1.0
-0.995
-0.98
-0.96
-0.955
-0.94
-0.93
-0.935
-0.935
-0.925
-0.93
-0.93
-0.94
-0.93
-0.93
-0.92
-0.9
-0.865
-0.85
-0.845
-0.83
-0.84
-0.84
-0.84
-0.84
-0.795
-0.79
-0.76
-0.74
-0.735
-0.735
-0.75
-0.765
-0.76
-0.75
-0.75
-0.76
-0.755
-0.75
-0.725
-0.72
-0.715
-0.735
-0.75
-0.765
-0.765
-0.785
-0.775
-0.775
-0.785
-0.77
-0.775
-0.785
-0.8
-0.8
-0.805
-0.86
-0.865
-0.88
-0.905
-0.925
-0.925
-0.93
-0.94
-0.95
-0.935
-0.935
-0.955
-0.97
-0.98
-0.995
-0.985
-1.0
-0.995
-0.985
-0.99
-0.985
-0.965
-0.975
-0.965
-0.975
-0.975
-0.985
-0.995
-0.99
-0.995
-1.0
-0.98
-0.98
-0.97
-0.96
-0.975
-0.985
-1.005
-1.01
-1.0
-1.01
-1.015
-1.025
-0.995
-0.98
-0.965
-0.98
-0.985
-0.99
-1.005
-1.01
