Lead II
-0.99
-0.99
-0.985
-0.98
-0.98
-0.97
-0.955
-0.96
-0.945
-0.935
-0.945
-0.955
-0.975
-0.97
-0.98
-0.97
-0.965
-0.965
-0.965
-0.955
-0.94
-0.935
-0.95
-0.945
-0.955
-0.96
-0.97
-0.985
-0.965
-0.975
-0.96
-0.95
-0.935
-0.915
-0.91
-0.925
-0.935
-0.95
-0.97
-0.965
-0.955
-0.95
-0.94
-0.935
-0.93
-0.915
-0.91
-0.92
-0.94
-0.935
-0.96
-0.95
-0.945
-0.935
-0.935
-0.92
-0.92
-0.935
-0.935
-0.935
-0.93
-0.95
-0.97
-0.98
-0.95
-0.96
-0.935
-0.935
-0.92
-0.915
-0.915
-0.925
-0.935
-0.93
-0.945
-0.945
-0.945
-0.93
-0.925
-0.93
-0.925
-0.92
-0.915
-0.91
-0.915
-0.92
-0.935
-0.93
-0.935
-0.93
-0.925
-0.93
-0.9
-0.895
-0.9
-0.895
-0.935
-0.945
-0.95
-0.96
-0.96
-0.95
-0.935
-0.91
-0.89
-0.89
-0.875
-0.885
-0.875
-0.87
-0.855
-0.845
-0.825
-0.79
-0.78
-0.745
-0.745
-0.75
-0.72
-0.695
-0.655
-0.61
-0.575
-0.555
-0.545
-0.55
-0.555
-0.56
-0.55
-0.545
-0.545
-0.555
-0.565
-0.605
-0.66
-0.73
-0.785
-0.83
-0.865
-0.885
-0.88
-0.895
-0.885
-0.89
-0.91
-0.93
-0.935
-0.96
-0.945
-0.94
-0.925
-0.925
-0.93
-0.915
-0.92
-0.915
-0.94
-0.95
-0.955
-0.945
-0.94
-0.935
-0.945
-0.935
-0.96
-0.98
-0.965
-0.915
-0.79
-0.625
-0.365
-0.02
0.37
0.795
1.145
1.395
1.49
1.49
1.385
1.14
0.765
0.265
-0.29
-0.77
-1.025
-1.075
-0.965
-0.815
-0.69
-0.62
-0.645
-0.73
-0.81
-0.865
-0.92
-0.945
-0.945
-0.935
-0.93
-0.915
-0.91
-0.92
-0.925
-0.93
-0.97
-0.97
-0.985
-0.985
-0.975
-0.97
-0.965
-0.96
-0.965
-0.955
-0.955
-0.97
-0.97
-0.975
-0.975
-0.985
-0.99
-0.99
-0.975
-0.965
-0.96
-0.965
-0.95
-0.965
-0.97
-0.99
-0.98
-0.97
-0.98
-0.98
-0.975
-0.945
-0.955
-0.95
-0.945
-0.95
-0.955
-0.965
-0.965
-0.965
-0.96
-0.945
-0.93
-0.935
-0.92
-0.9
-0.89
-0.895
-0.905
-0.895
-0.885
-0.89
-0.87
-0.86
-0.84
-0.82
-0.79
-0.795
-0.785
-0.78
-0.775
-0.775
-0.755
-0.74
-0.725
-0.715
-0.705
-0.67
-0.64
-0.64
-0.625
-0.6
-0.6
-0.58
-0.58
-0.565
-0.56
-0.545
-0.52
-0.5
-0.49
-0.465
-0.45
-0.44
-0.45
-0.435
-0.43
-0.42
-0.41
-0.425
-0.425
-0.43
-0.405
-0.43
-0.43
-0.435
-0.465
-0.495
-0.52
-0.555
-0.58
-0.6
-0.615
-0.6
-0.63
-0.655
-0.68
-0.7
-0.715
-0.74
-0.755
-0.775
-0.785
-0.8
-0.795
-0.795
-0.795
-0.785
-0.8
-0.8
-0.82
-0.82
-0.83
-0.835
-0.835
-0.835
-0.82
-0.82
-0.82
-0.795
-0.795
-0.8
-0.805
-0.81
-0.815
-0.805
-0.8
-0.79
-0.785
-0.77
-0.76
-0.75
-0.75
-0.755
-0.77
-0.775
-0.76
-0.775
-0.775
-0.78
-0.77
-0.74
-0.745
-0.73
-0.73
-0.745
-0.755
-0.76
-0.785
-0.805
-0.805
-0.79
-0.78
-0.77
-0.77
-0.78
-0.78
-0.795
-0.805
-0.825
-0.835
-0.845
-0.84
-0.825
-0.82
-0.805
-0.81
-0.805
-0.805
-0.83
-0.845
-0.84
-0.86
-0.845
-0.86
-0.86
-0.85
-0.84
-0.85
-0.83
-0.84
-0.84
-0.855
-0.855
-0.86
-0.885
-0.89
-0.875
-0.855
-0.85
-0.84
-0.845
-0.86
-0.855
-0.87
-0.875
-0.86
-0.87
-0.88
-0.88
-0.88
-0.875
-0.85
-0.85
-0.85
-0.855
-0.88
-0.88
-0.9
-0.88
-0.87
-0.865
-0.875
-0.87
-0.845
-0.845
-0.83
-0.845
-0.86
-0.875
-0.875
-0.885
-0.87
-0.87
-0.86
-0.87
-0.845
-0.84
-0.84
-0.84
-0.845
-0.845
-0.845
-0.835
-0.795
-0.765
-0.73
-0.71
-0.685
-0.675
-0.655
-0.64
-0.63
-0.6
-0.57
-0.535
-0.5
-0.5
-0.5
-0.52
-0.525
-0.51
-0.51
-0.51
-0.525
-0.56
-0.6
-0.645
-0.71
-0.765
-0.81
-0.84
-0.855
-0.86
-0.855
-0.865
-0.87
-0.885
-0.895
-0.905
-0.895
-0.9
-0.89
-0.885
-0.885
-0.875
-0.88
-0.9
-0.915
-0.915
-0.905
-0.915
-0.9
-0.9
-0.895
-0.87
-0.885
-0.87
-0.875
-0.9
-0.93
-0.96
-0.955
-0.92
-0.81
-0.615
-0.375
-0.05
0.325
0.725
1.06
1.305
1.42
1.44
1.38
1.19
0.865
0.415
-0.11
-0.6
-0.925
-1.02
-0.97
-0.83
-0.695
-0.615
-0.61
-0.665
-0.75
-0.81
-0.835
-0.86
-0.87
-0.86
-0.86
-0.845
-0.87
-0.865
-0.89
-0.895
-0.9
-0.895
-0.9
-0.89
-0.885
-0.875
-0.87
-0.89
-0.9
-0.9
-0.91
-0.92
-0.915
-0.925
-0.915
-0.89
-0.885
-0.89
-0.9
-0.895
-0.9
-0.905
-0.91
-0.93
-0.915
-0.92
-0.9
-0.88
-0.865
-0.865
-0.855
-0.865
-0.87
-0.88
-0.88
-0.88
-0.885
-0.885
-0.855
-0.825
-0.82
-0.815
-0.795
-0.8
-0.805
-0.805
-0.805
-0.81
-0.8
-0.81
-0.76
-0.74
-0.725
-0.7
-0.69
-0.69
-0.69
-0.68
-0.675
-0.67
-0.66
-0.645
-0.62
-0.575
-0.555
-0.55
-0.53
-0.53
-0.535
-0.49
-0.49
-0.475
-0.445
-0.44
-0.41
-0.385
-0.375
-0.36
-0.36
-0.36
-0.345
-0.345
-0.34
-0.355
-0.34
-0.34
-0.32
-0.335
-0.335
-0.34
-0.36
-0.39
-0.43
-0.445
-0.485
-0.53
-0.56
-0.57
-0.605
-0.64
-0.66
-0.675
-0.69
-0.705
-0.725
-0.745
-0.765
-0.78
-0.785
-0.795
-0.81
-0.8
-0.81
-0.81
-0.82
-0.81
-0.81
-0.835
-0.845
-0.845
-0.855
-0.84
-0.84
-0.835
-0.83
-0.815
-0.815
-0.815
-0.825
-0.83
-0.85
-0.83
-0.845
-0.855
-0.84
-0.825
-0.81
-0.81
-0.8
-0.78
-0.785
-0.79
-0.8
-0.82
-0.815
-0.815
-0.8
-0.795
-0.795
-0.78
-0.785
-0.8
-0.79
-0.8
-0.795
-0.805
-0.81
-0.81
-0.805
-0.8
-0.78
-0.755
-0.78
-0.785
-0.795
-0.8
-0.785
-0.81
-0.805
-0.805
-0.8
-0.795
-0.8
-0.79
-0.795
-0.81
-0.83
-0.85
-0.845
-0.845
-0.85
-0.855
-0.84
-0.84
-0.815
-0.815
-0.82
-0.825
-0.835
-0.835
-0.835
-0.86
-0.855
-0.85
-0.83
-0.84
-0.83
-0.825
-0.825
-0.845
-0.87
-0.885
-0.885
-0.885
-0.9
-0.895
-0.87
-0.855
-0.85
-0.835
-0.84
-0.83
-0.845
-0.865
-0.855
-0.87
-0.88
-0.875
-0.855
-0.845
-0.855
-0.84
-0.85
-0.835
-0.865
-0.87
-0.895
-0.88
-0.88
-0.865
-0.855
-0.86
-0.845
-0.82
-0.815
-0.785
-0.77
-0.77
-0.75
-0.73
-0.735
-0.705
-0.675
-0.64
-0.59
-0.545
-0.505
-0.475
-0.47
-0.49
-0.52
-0.545
-0.545
-0.54
-0.54
-0.53
-0.56
-0.58
-0.64
-0.7
-0.755
-0.815
-0.865
-0.89
-0.92
-0.93
-0.92
-0.895
-0.89
-0.885
-0.885
-0.9
-0.91
-0.915
-0.94
-0.95
-0.96
-0.965
-0.945
-0.945
-0.935
-0.92
-0.92
-0.91
-0.92
-0.92
-0.935
-0.94
-0.94
-0.95
-0.935
-0.92
-0.92
-0.91
-0.925
-0.94
-0.965
-1.005
-1.005
-0.975
-0.875
-0.69
-0.46
-0.15
0.235
0.64
0.975
1.225
1.385
1.405
1.345
1.12
0.76
0.21
-0.345
-0.83
-1.1
-1.135
-1.03
-0.86
-0.74
-0.68
-0.705
-0.78
-0.84
-0.905
-0.935
-0.94
-0.945
-0.92
-0.945
-0.935
-0.93
-0.935
-0.945
-0.95
-0.955
-0.955
-0.96
-0.955
-0.94
-0.935
-0.945
-0.945
-0.945
-0.945
-0.955
-0.96
-0.95
-0.975
-0.97
-0.96
-0.94
-0.935
-0.945
-0.94
-0.95
-0.945
-0.955
-0.955
-0.955
-0.975
-0.955
-0.945
-0.94
-0.91
-0.915
-0.925
-0.92
-0.92
-0.925
-0.94
-0.935
-0.93
-0.92
-0.89
-0.88
-0.865
-0.865
-0.855
-0.85
-0.865
-0.855
-0.865
-0.845
-0.82
-0.805
-0.775
-0.76
-0.73
-0.725
-0.73
-0.72
-0.7
-0.695
-0.675
-0.66
-0.64
-0.625
-0.595
-0.565
-0.525
-0.53
-0.5
-0.49
-0.475
-0.48
-0.47
-0.47
-0.46
-0.43
-0.415
-0.395
-0.38
-0.365
-0.37
-0.38
-0.38
-0.395
-0.405
-0.43
-0.455
-0.47
-0.475
-0.47
-0.495
-0.525
-0.57
-0.6
-0.63
-0.635
-0.66
-0.69
-0.71
-0.73
-0.735
-0.755
-0.765
-0.79
-0.81
-0.83
-0.845
-0.87
-0.865
-0.88
-0.87
-0.875
-0.885
-0.88
-0.87
-0.875
-0.895
-0.9
-0.915
-0.92
-0.935
-0.945
-0.94
-0.925
-0.91
-0.9
-0.885
-0.885
-0.895
-0.89
-0.885
-0.905
-0.9
-0.895
-0.9
-0.89
-0.885
-0.88
-0.865
-0.86
-0.85
-0.865
-0.87
-0.86
-0.865
-0.87
-0.88
-0.865
-0.845
-0.835
-0.805
-0.825
-0.84
-0.84
-0.85
-0.875
-0.87
-0.88
-0.865
-0.86
-0.855
-0.85
-0.835
-0.85
-0.835
-0.86
-0.86
-0.87
-0.875
-0.88
-0.885
-0.87
-0.87
-0.875
-0.865
-0.875
-0.885
-0.88
-0.88
-0.88
-0.875
-0.905
-0.885
-0.88
-0.895
-0.9
-0.885
-0.89
-0.895
-0.885
-0.89
-0.91
-0.915
-0.915
-0.915
-0.9
-0.88
-0.885
-0.865
-0.905
-0.905
-0.89
-0.905
-0.905
-0.905
-0.915
-0.9
-0.91
-0.89
-0.885
-0.88
-0.895
-0.875
-0.88
-0.845
-0.825
-0.81
-0.825
-0.805
-0.785
-0.75
-0.745
-0.715
-0.69
-0.655
-0.615
-0.58
-0.545
-0.555
-0.565
-0.57
-0.59
-0.595
-0.585
-0.58
-0.575
-0.58
-0.62
-0.67
-0.72
-0.775
-0.84
-0.865
-0.895
-0.905
-0.905
-0.905
-0.915
-0.915
-0.915
-0.93
-0.935
-0.945
-0.96
-0.96
-0.955
-0.96
-0.94
-0.915
-0.925
-0.93
-0.925
-0.945
-0.945
-0.955
-0.945
-0.94
-0.95
-0.93
-0.92
-0.9
-0.91
-0.9
-0.92
-0.945
-0.94
-0.95
-0.98
-0.99
-0.97
-0.88
-0.735
-0.515
-0.215
0.16
0.59
0.965
1.26
1.425
1.465
1.385
1.165
0.795
0.27
-0.305
-0.785
-1.06
-1.115
-1.02
-0.865
-0.725
-0.675
-0.69
-0.73
-0.79
-0.85
-0.89
-0.92
-0.91
-0.91
-0.92
-0.925
-0.925
-0.91
-0.945
-0.94
-0.93
-0.94
-0.92
-0.915
-0.915
-0.93
-0.94
-0.95
-0.97
-0.955
-0.96
-0.935
-0.94
-0.945
-0.94
-0.93
-0.935
-0.95
-0.95
-0.96
-0.945
-0.935
-0.95
-0.955
-0.94
-0.935
-0.925
-0.92
-0.915
-0.915
-0.925
-0.92
-0.925
-0.92
-0.925
-0.915
-0.885
-0.87
-0.875
-0.87
-0.875
-0.87
-0.86
-0.855
-0.84
-0.84
-0.83
-0.81
-0.805
-0.78
-0.77
-0.76
-0.755
-0.755
-0.74
-0.73
-0.715
-0.71
-0.7
-0.67
-0.64
-0.625
-0.595
-0.57
-0.565
-0.56
-0.55
-0.525
-0.52
-0.49
-0.48
-0.455
-0.43
-0.4
-0.395
-0.38
-0.36
-0.36
-0.36
-0.37
-0.35
-0.34
-0.325
-0.32
-0.305
-0.32
-0.31
-0.31
-0.335
-0.335
-0.375
-0.4
-0.445
-0.465
-0.485
-0.51
-0.525
-0.545
-0.585
-0.615
-0.63
-0.665
-0.705
-0.72
-0.74
-0.76
-0.775
-0.785
-0.795
-0.79
-0.795
-0.795
-0.82
-0.83
-0.835
-0.855
-0.865
-0.865
-0.86
-0.855
-0.865
-0.87
-0.85
-0.845
-0.85
-0.855
-0.855
-0.875
-0.86
-0.87
-0.87
-0.845
-0.835
-0.835
-0.83
-0.825
-0.825
-0.835
-0.83
-0.825
-0.835
-0.825
-0.825
-0.81
-0.8
-0.8
-0.785
-0.795
-0.78
-0.805
-0.795
-0.8
-0.805
-0.795
-0.805
-0.8
-0.78
-0.765
-0.76
-0.765
-0.775
-0.785
-0.81
-0.785
-0.785
-0.795
-0.8
-0.8
-0.795
-0.79
-0.79
-0.795
-0.8
-0.8
-0.81
-0.825
-0.83
-0.845
-0.84
-0.83
-0.835
-0.82
-0.8
-0.81
-0.815
-0.815
-0.83
-0.83
-0.845
-0.855
-0.845
-0.84
-0.84
-0.85
-0.845
-0.83
-0.83
-0.835
-0.845
-0.84
-0.845
-0.845
-0.84
-0.85
-0.835
-0.84
-0.825
-0.835
-0.83
-0.835
-0.83
-0.845
-0.855
-0.85
-0.865
-0.845
-0.84
-0.84
-0.815
-0.82
-0.82
-0.82
-0.85
-0.835
-0.85
-0.86
-0.85
-0.85
-0.84
-0.825
-0.815
-0.82
-0.8
-0.795
-0.805
-0.785
-0.77
-0.755
-0.735
-0.705
-0.67
-0.675
-0.655
-0.64
-0.635
-0.6
-0.59
-0.545
-0.52
-0.485
-0.475
-0.475
-0.48
-0.505
-0.495
-0.49
-0.495
-0.51
-0.535
-0.58
-0.625
-0.695
-0.75
-0.79
-0.815
-0.83
-0.845
-0.835
-0.83
-0.83
-0.85
-0.865
-0.88
-0.87
-0.885
-0.88
-0.9
-0.885
-0.865
-0.88
-0.875
-0.86
-0.88
-0.885
-0.88
-0.905
-0.88
-0.88
-0.86
-0.865
-0.87
-0.85
-0.855
-0.86
-0.87
-0.875
-0.885
-0.925
-0.94
-0.95
-0.945
-0.85
-0.725
-0.525
-0.27
0.07
0.47
0.875
1.165
1.345
1.435
1.365
1.185
0.835
0.335
-0.23
-0.69
-0.975
-1.035
-0.955
-0.805
-0.68
-0.6
-0.615
-0.675
-0.735
-0.8
-0.865
-0.855
-0.875
-0.87
-0.88
-0.87
-0.885
-0.9
-0.89
-0.88
-0.89
-0.88
-0.88
-0.885
-0.88
-0.89
-0.895
-0.9
-0.91
-0.895
-0.885
-0.875
-0.87
-0.87
-0.875
-0.87
-0.865
-0.875
-0.865
-0.89
-0.885
-0.89
-0.89
-0.87
-0.865
-0.855
-0.845
-0.88
-0.86
-0.865
-0.86
-0.88
-0.885
-0.89
-0.88
-0.87
-0.835
-0.84
-0.83
-0.84
-0.84
-0.845
-0.83
-0.85
-0.825
-0.83
-0.84
-0.805
-0.78
-0.77
-0.755
-0.765
-0.76
-0.76
-0.755
-0.745
-0.755
-0.715
-0.7
-0.665
-0.655
-0.62
-0.595
-0.595
-0.575
-0.56
-0.545
-0.54
-0.52
-0.495
-0.485
-0.455
-0.43
-0.41
-0.41
-0.405
-0.37
-0.36
-0.345
-0.34
-0.35
-0.325
-0.315
-0.31
-0.305
-0.27
-0.27
-0.285
-0.3
-0.31
-0.345
-0.36
-0.38
-0.41
-0.42
-0.445
-0.465
-0.465
-0.505
-0.535
-0.575
-0.605
-0.635
-0.67
-0.705
-0.715
-0.735
-0.745
-0.76
-0.76
-0.765
-0.79
-0.8
-0.805
-0.8
-0.805
-0.815
-0.815
-0.83
-0.825
-0.795
-0.8
-0.79
-0.8
-0.82
-0.815
-0.84
-0.85
-0.85
-0.85
-0.84
-0.825
-0.805
-0.805
-0.8
-0.79
-0.81
-0.83
-0.82
-0.825
-0.805
-0.825
-0.81
-0.815
-0.785
-0.79
-0.8
-0.79
-0.775
-0.785
-0.795
-0.795
-0.795
-0.805
-0.795
-0.78
-0.77
-0.76
-0.765
-0.775
-0.79
-0.815
-0.81
-0.805
-0.805
-0.805
-0.795
-0.795
-0.81
-0.8
-0.805
-0.8
-0.8
-0.835
-0.83
-0.83
-0.84
-0.84
-0.83
-0.82
-0.815
-0.805
-0.815
-0.815
-0.815
-0.825
-0.845
-0.86
-0.845
-0.85
-0.84
-0.84
-0.83
-0.825
-0.83
-0.845
-0.845
-0.85
-0.855
-0.875
-0.865
-0.865
-0.885
-0.86
-0.855
-0.85
-0.85
-0.855
-0.86
-0.87
-0.875
-0.88
-0.895
-0.885
-0.885
-0.885
-0.875
-0.87
-0.865
-0.875
-0.875
-0.865
-0.89
-0.895
-0.875
-0.875
-0.865
-0.855
-0.855
-0.835
-0.83
-0.815
-0.815
-0.825
-0.83
-0.815
-0.815
-0.76
-0.76
-0.745
-0.695
-0.685
-0.67
-0.665
-0.645
-0.6
-0.59
-0.54
-0.5
-0.495
-0.47
-0.495
-0.5
-0.5
-0.5
-0.525
-0.54
-0.565
-0.62
-0.67
-0.725
-0.765
-0.8
-0.845
-0.85
-0.835
-0.86
-0.855
-0.85
-0.87
-0.875
-0.89
-0.88
-0.89
-0.9
-0.885
-0.89
-0.875
-0.89
-0.875
-0.88
-0.88
-0.885
-0.89
-0.895
-0.875
-0.875
-0.87
-0.855
-0.835
-0.835
-0.84
-0.855
-0.885
-0.91
-0.96
-0.96
-0.94
-0.84
-0.68
-0.475
-0.19
0.145
0.535
0.88
1.165
1.325
1.4
1.39
1.255
1.0
0.595
0.115
-0.435
-0.845
-1.055
-1.05
-0.93
-0.785
-0.66
-0.64
-0.64
-0.705
-0.75
-0.795
-0.825
-0.825
-0.84
-0.84
-0.84
-0.835
-0.86
-0.87
-0.875
-0.885
-0.9
-0.89
-0.88
-0.865
-0.88
-0.865
-0.885
-0.88
-0.895
-0.9
-0.91
-0.905
-0.895
-0.9
-0.875
-0.87
-0.865
-0.875
-0.875
-0.87
-0.88
-0.885
-0.885
-0.895
-0.885
-0.86
-0.86
-0.84
-0.84
-0.87
-0.875
-0.865
-0.865
-0.855
-0.86
-0.855
-0.84
-0.815
-0.795
-0.77
-0.775
-0.78
-0.78
-0.785
-0.795
-0.805
-0.79
-0.78
-0.74
-0.715
-0.7
-0.69
-0.685
-0.685
-0.685
-0.695
-0.665
-0.67
-0.63
-0.625
-0.6
-0.55
-0.52
-0.505
-0.47
-0.46
-0.445
-0.455
-0.44
-0.43
-0.415
-0.405
-0.38
-0.37
-0.335
-0.325
-0.32
-0.3
-0.295
-0.29
-0.29
-0.31
-0.31
-0.325
-0.335
-0.335
-0.335
-0.34
-0.355
-0.39
-0.41
-0.445
-0.48
-0.51
-0.535
-0.56
-0.59
-0.595
-0.625
-0.63
-0.665
-0.69
-0.74
-0.745
-0.77
-0.795
-0.8
-0.805
-0.785
-0.79
-0.81
-0.805
-0.815
-0.83
-0.83
-0.85
-0.855
-0.85
-0.85
-0.845
-0.835
-0.83
-0.83
-0.825
-0.825
-0.82
-0.825
-0.835
-0.83
-0.86
-0.835
-0.845
-0.83
-0.82
-0.8
-0.785
-0.8
-0.79
-0.795
-0.795
-0.795
-0.795
-0.805
-0.805
-0.8
-0.775
-0.78
-0.76
-0.765
-0.76
-0.765
-0.785
-0.79
-0.78
-0.785
-0.795
-0.785
-0.79
-0.795
-0.765
-0.755
-0.77
-0.8
-0.795
-0.785
-0.795
-0.8
-0.805
-0.79
-0.79
-0.785
-0.765
-0.785
-0.785
-0.82
-0.805
-0.82
-0.815
-0.825
-0.83
-0.815
-0.8
-0.795
-0.805
-0.805
-0.8
-0.835
-0.835
-0.85
-0.825
-0.84
-0.83
-0.82
-0.82
-0.81
-0.815
-0.82
-0.82
-0.825
-0.835
-0.835
-0.83
-0.845
-0.84
-0.825
-0.825
-0.81
-0.805
-0.8
-0.82
-0.81
-0.825
-0.835
-0.82
-0.81
-0.805
-0.775
-0.745
-0.715
-0.68
-0.66
-0.665
-0.655
-0.66
-0.63
-0.595
-0.565
-0.515
-0.49
-0.47
-0.47
-0.48
-0.5
-0.5
-0.515
-0.54
-0.555
-0.585
-0.63
-0.675
-0.715
-0.765
-0.805
-0.825
-0.84
-0.845
-0.86
-0.86
-0.865
-0.875
-0.89
-0.885
-0.88
-0.87
-0.87
-0.855
-0.865
-0.875
-0.87
-0.875
-0.88
-0.885
-0.875
-0.89
-0.87
-0.865
-0.86
-0.855
-0.855
-0.875
-0.865
-0.86
-0.87
-0.88
-0.89
-0.885
-0.885
-0.895
-0.905
-0.92
-0.91
-0.84
-0.71
-0.54
-0.28
0.08
0.475
0.89
1.22
1.415
1.525
1.485
1.3
0.975
0.49
-0.115
-0.65
-0.975
-1.08
-1.01
-0.84
-0.69
-0.615
-0.59
-0.66
-0.725
-0.815
-0.855
-0.88
-0.885
-0.88
-0.885
-0.88
-0.875
-0.88
-0.865
-0.885
-0.885
-0.895
-0.9
-0.905
-0.915
-0.925
-0.92
-0.92
-0.915
-0.89
-0.88
-0.9
-0.905
-0.9
-0.91
-0.93
-0.905
-0.94
-0.925
-0.915
-0.92
-0.895
-0.865
-0.88
-0.885
-0.87
-0.88
-0.905
-0.905
-0.885
-0.885
-0.88
-0.865
-0.85
-0.825
-0.845
-0.855
-0.845
-0.855
-0.855
-0.85
-0.84
-0.83
-0.835
-0.79
-0.785
-0.765
-0.77
-0.77
-0.755
-0.755
-0.735
-0.73
-0.725
-0.705
-0.69
-0.66
-0.635
-0.61
-0.585
-0.575
-0.575
-0.545
-0.54
-0.515
-0.49
-0.49
-0.435
-0.415
-0.4
-0.365
-0.38
-0.37
-0.365
-0.345
-0.315
-0.315
-0.315
-0.305
-0.29
-0.295
-0.31
-0.315
-0.33
-0.35
-0.375
-0.405
-0.435
-0.45
-0.485
-0.515
-0.53
-0.555
-0.58
-0.595
-0.63
-0.655
-0.675
-0.7
-0.735
-0.77
-0.785
-0.795
-0.79
-0.785
-0.78
-0.805
-0.81
-0.83
-0.835
-0.85
-0.84
-0.845
-0.86
-0.855
-0.845
-0.84
-0.835
-0.825
-0.84
-0.835
-0.845
-0.86
-0.875
-0.865
-0.87
-0.845
-0.83
-0.81
-0.8
-0.795
-0.81
-0.8
-0.81
-0.815
-0.84
-0.835
-0.83
-0.83
-0.815
-0.805
-0.795
-0.775
-0.78
-0.8
-0.795
-0.815
-0.81
-0.795
-0.81
-0.81
-0.81
-0.8
-0.785
-0.775
-0.785
-0.785
-0.795
-0.8
-0.825
-0.82
-0.835
-0.815
-0.81
-0.805
-0.795
-0.8
-0.81
-0.82
-0.825
-0.84
-0.835
-0.84
-0.855
-0.86
-0.86
-0.85
-0.845
-0.84
-0.84
-0.85
-0.835
-0.855
-0.865
-0.87
-0.865
-0.865
-0.855
-0.855
-0.85
-0.83
-0.845
-0.855
-0.875
-0.86
-0.875
-0.875
-0.875
-0.895
-0.88
-0.87
-0.865
-0.85
-0.86
-0.865
-0.88
-0.895
-0.905
-0.885
-0.905
-0.905
-0.885
-0.875
-0.875
-0.885
-0.87
-0.875
-0.875
-0.875
-0.885
-0.885
-0.89
-0.88
-0.87
-0.865
-0.85
-0.855
-0.855
-0.865
-0.85
-0.865
-0.85
-0.83
-0.81
-0.795
-0.765
-0.745
-0.72
-0.705
-0.705
-0.675
-0.69
-0.675
-0.635
-0.6
-0.575
-0.52
-0.51
-0.51
-0.51
-0.525
-0.525
-0.545
-0.55
-0.555
-0.575
-0.565
-0.61
-0.645
-0.68
-0.71
-0.765
-0.81
-0.84
-0.865
-0.885
-0.9
-0.915
-0.925
-0.91
-0.91
-0.91
-0.895
-0.9
-0.9
-0.9
-0.925
-0.94
-0.94
-0.945
-0.955
-0.97
-0.955
-0.94
-0.945
-0.93
-0.92
-0.92
-0.92
-0.93
-0.93
-0.935
-0.935
-0.955
-0.96
-0.95
-0.95
-0.96
-0.98
-1.0
-0.975
-0.915
-0.795
-0.615
-0.36
-0.05
0.335
0.74
1.055
1.285
1.39
1.375
1.265
1.01
0.59
0.06
-0.475
-0.89
-1.085
-1.065
-0.94
-0.795
-0.685
-0.655
-0.69
-0.765
-0.845
-0.885
-0.94
-0.955
-0.97
-0.96
-0.935
-0.94
-0.925
-0.92
-0.935
-0.955
-0.955
-0.96
-0.965
-0.98
-0.965
-0.97
-0.97
-0.95
-0.96
-0.945
-0.965
-0.96
-0.97
-0.975
-0.985
-0.985
-0.98
-0.975
-0.965
-0.955
-0.955
-0.965
-0.98
-0.97
-0.98
-0.975
-0.98
-0.97
-0.965
-0.955
-0.94
-0.945
-0.94
-0.91
-0.91
-0.92
-0.93
-0.92
-0.935
-0.915
-0.915
-0.91
-0.895
-0.88
-0.895
-0.88
-0.86
-0.85
-0.83
-0.83
-0.83
-0.825
-0.815
-0.8
-0.78
-0.765
-0.74
-0.725
-0.72
-0.695
-0.69
-0.645
-0.65
-0.615
-0.59
-0.585
-0.55
-0.535
-0.525
-0.52
-0.5
-0.49
-0.48
-0.47
-0.45
-0.435
-0.415
-0.4
-0.385
-0.37
-0.36
-0.34
-0.35
-0.365
-0.38
-0.41
-0.425
-0.445
-0.46
-0.485
-0.485
-0.51
-0.545
-0.565
-0.61
-0.65
-0.685
-0.715
-0.75
-0.75
-0.775
-0.805
-0.815
-0.815
-0.815
-0.835
-0.84
-0.855
-0.87
-0.87
-0.89
-0.895
-0.905
-0.905
-0.905
-0.9
-0.885
-0.88
-0.895
-0.895
-0.91
-0.915
-0.925
-0.915
-0.93
-0.93
-0.905
-0.905
-0.885
-0.885
-0.89
-0.895
-0.9
-0.915
-0.91
-0.91
-0.905
-0.895
-0.88
-0.86
-0.845
-0.845
-0.86
-0.87
-0.88
-0.875
-0.895
-0.885
-0.87
-0.86
-0.855
-0.87
-0.855
-0.855
-0.865
-0.865
-0.865
-0.875
-0.885
-0.865
-0.885
-0.875
-0.865
-0.865
-0.875
-0.88
-0.88
-0.89
-0.9
-0.91
-0.92
-0.91
-0.91
-0.915
-0.905
-0.895
-0.88
-0.895
-0.89
-0.895
-0.91
-0.925
-0.95
-0.95
-0.935
-0.92
-0.91
-0.905
-0.885
-0.905
-0.905
-0.915
-0.94
-0.955
-0.955
-0.94
-0.94
-0.925
-0.92
-0.925
-0.92
-0.905
-0.91
-0.925
-0.94
-0.95
-0.96
-0.955
-0.965
-0.96
-0.945
-0.935
-0.93
-0.93
-0.925
-0.92
-0.93
-0.935
-0.95
-0.95
-0.94
-0.95
-0.915
-0.91
-0.88
-0.86
-0.85
-0.83
-0.835
-0.825
-0.81
-0.795
-0.785
-0.755
-0.71
-0.66
-0.62
-0.57
-0.55
-0.545
-0.57
-0.59
-0.615
-0.625
-0.625
-0.625
-0.63
-0.65
-0.665
-0.725
-0.795
-0.865
-0.905
-0.95
-0.965
-0.98
-0.975
-0.975
-0.96
-0.965
-0.955
-0.945
-0.965
-0.965
-0.985
-0.995
-0.995
-1.03
-1.005
-0.995
-0.98
-0.985
-0.965
-0.97
-0.965
-0.97
-0.985
-0.985
-0.98
-0.995
-0.985
-0.97
-0.965
-0.955
-0.965
-0.96
-0.99
-1.025
-1.055
-1.06
-0.995
-0.89
-0.73
-0.495
-0.195
0.165
0.54
0.89
1.15
1.29
1.325
1.275
1.115
0.835
0.405
-0.14
-0.665
-1.02
-1.165
-1.115
-0.96
-0.825
-0.735
-0.73
-0.785
-0.855
-0.92
-0.965
-0.995
-0.985
-0.995
-0.975
-0.985
-0.98
-0.995
-1.025
-1.01
-1.025
-1.02
-1.01
-1.01
-0.99
-0.995
-0.99
-0.995
-0.995
-1.01
-1.005
-1.02
-1.025
-1.02
-1.03
-1.015
-1.015
-1.01
-0.98
-1.0
-0.995
-1.035
-1.045
-1.055
-1.045
-1.045
-1.02
-0.99
-1.005
-0.97
-0.97
-0.975
-0.97
-0.995
-0.995
-0.98
-0.98
-0.98
-0.965
-0.955
-0.97
-0.935
-0.935
-0.93
-0.93
-0.925
-0.93
-0.92
-0.91
-0.895
-0.875
-0.865
-0.835
-0.83
-0.82
-0.805
-0.805
-0.8
-0.785
-0.775
-0.76
-0.76
-0.725
-0.69
-0.68
-0.655
-0.62
-0.615
-0.61
-0.61
-0.59
-0.575
-0.55
-0.545
-0.52
-0.51
-0.485
-0.46
-0.45
-0.455
-0.455
-0.445
-0.445
-0.435
-0.455
-0.46
-0.465
-0.47
-0.475
-0.5
-0.52
-0.545
-0.585
-0.635
-0.66
-0.69
-0.71
-0.76
-0.775
-0.79
-0.795
-0.835
-0.855
-0.865
-0.88
-0.895
-0.925
-0.92
-0.96
-0.96
-0.95
-0.945
-0.93
-0.935
-0.94
-0.935
-0.955
-0.955
-0.97
-0.975
-1.0
-0.985
-0.98
-0.98
-0.96
-0.95
-0.94
-0.96
-0.955
-0.965
-0.96
-0.965
-0.97
-0.975
-0.955
-0.96
-0.945
-0.93
-0.905
-0.91
-0.915
-0.925
-0.93
-0.93
-0.93
-0.915
-0.915
-0.91
-0.9
-0.895
-0.9
-0.895
-0.89
-0.91
-0.915
-0.915
-0.92
-0.93
-0.915
-0.9
-0.89
-0.89
-0.88
-0.9
-0.915
-0.92
-0.93
-0.935
-0.95
-0.955
-0.945
-0.94
-0.945
-0.95
-0.92
-0.925
-0.93
-0.98
-0.95
-0.965
-0.98
-0.965
-0.97
-0.965
-0.96
-0.945
-0.97
-0.97
-0.975
-0.97
-0.98
-0.985
-0.995
-1.0
-0.985
-0.97
-0.98
-0.945
-0.945
-0.96
-0.97
-0.98
-0.985
-1.015
-1.01
-0.98
-0.975
-0.955
-0.96
-0.95
-0.955
-0.95
-0.96
-0.945
-0.97
-0.975
-0.985
-0.985
-0.965
-0.96
-0.93
-0.895
-0.895
-0.85
-0.83
-0.825
-0.81
-0.815
-0.795
-0.765
-0.745
-0.67
-0.63
-0.585
-0.585
-0.605
-0.62
-0.64
-0.635
-0.65
-0.655
-0.68
-0.695
-0.74
-0.78
-0.83
-0.865
-0.92
-0.95
-0.98
-0.975
-0.99
-0.99
-0.99
-0.975
-0.975
-0.965
-0.965
-0.965
-0.97
-0.965
-0.98
-0.995
-1.0
-0.985
-0.99
-0.98
-0.965
-0.955
-0.96
-0.96
-0.965
-0.955
-0.95
-0.955
-0.975
-0.97
-0.985
-0.995
-1.02
-1.035
-1.015
-0.945
-0.81
-0.61
-0.32
0.045
0.455
0.855
1.145
1.34
1.41
1.365
1.19
0.865
0.355
-0.225
-0.74
-1.05
-1.155
-1.06
-0.925
-0.785
-0.69
-0.695
-0.725
-0.79
-0.865
-0.92
-0.945
-0.965
-0.955
-0.96
-0.94
-0.945
-0.94
-0.945
-0.935
-0.915
-0.935
-0.945
-0.965
-0.95
-0.96
-0.97
-0.97
-0.97
-0.965
-0.955
-0.955
-0.95
-0.955
-0.945
-0.965
-0.97
-0.975
-0.99
-0.99
-0.97
-0.955
-0.945
-0.945
-0.925
-0.92
-0.925
-0.945
-0.945
-0.945
-0.94
-0.955
-0.95
-0.93
-0.925
-0.91
-0.9
-0.89
-0.89
-0.895
-0.905
-0.89
-0.88
-0.87
-0.865
-0.845
-0.83
-0.815
-0.8
-0.8
-0.81
-0.79
-0.78
-0.77
-0.76
-0.74
-0.725
-0.695
-0.675
-0.65
-0.61
-0.605
-0.59
-0.58
-0.57
-0.555
-0.53
-0.52
-0.5
-0.465
-0.46
-0.43
-0.42
-0.405
-0.4
-0.4
-0.395
-0.37
-0.375
-0.375
-0.345
-0.335
-0.325
-0.31
-0.315
-0.32
-0.335
-0.355
-0.385
-0.41
-0.435
-0.465
-0.485
-0.495
-0.505
-0.54
-0.57
-0.605
-0.64
-0.665
-0.71
-0.735
-0.745
-0.755
-0.775
-0.77
-0.795
-0.785
-0.8
-0.81
-0.82
-0.86
-0.85
-0.865
-0.85
-0.85
-0.86
-0.85
-0.845
-0.845
-0.84
-0.845
-0.87
-0.875
-0.87
-0.875
-0.87
-0.86
-0.85
-0.85
-0.835
-0.835
-0.83
-0.84
-0.84
-0.825
-0.83
-0.83
-0.84
-0.825
-0.825
-0.825
-0.8
-0.825
-0.8
-0.81
-0.805
-0.83
-0.845
-0.85
-0.84
-0.84
-0.845
-0.815
-0.8
-0.8
-0.775
-0.79
-0.805
-0.81
-0.815
-0.83
-0.835
-0.835
-0.825
-0.805
-0.805
-0.795
-0.78
-0.785
-0.8
-0.805
-0.82
-0.83
-0.835
-0.825
-0.845
-0.82
-0.81
-0.81
-0.81
-0.81
-0.82
-0.835
-0.84
-0.845
-0.855
-0.855
-0.845
-0.83
-0.845
-0.855
-0.85
-0.83
-0.855
-0.85
-0.865
-0.87
-0.86
-0.86
-0.84
-0.86
-0.855
-0.825
-0.83
-0.82
-0.83
-0.86
-0.87
-0.86
-0.88
-0.87
-0.87
-0.86
-0.865
-0.855
-0.85
-0.855
-0.855
-0.855
-0.86
-0.865
-0.885
-0.88
-0.87
-0.87
-0.855
-0.855
-0.845
-0.835
-0.825
-0.84
-0.85
-0.85
-0.855
-0.86
-0.835
-0.82
-0.785
-0.765
-0.735
-0.71
-0.705
-0.69
-0.685
-0.685
-0.665
-0.64
-0.615
-0.57
-0.53
-0.49
-0.46
-0.46
-0.49
-0.525
-0.55
-0.56
-0.575
-0.565
-0.565
-0.585
-0.61
-0.67
-0.71
-0.76
-0.8
-0.855
-0.87
-0.88
-0.905
-0.89
-0.9
-0.885
-0.89
-0.885
-0.87
-0.885
-0.905
-0.905
-0.915
-0.93
-0.92
-0.92
-0.93
-0.91
-0.92
-0.9
-0.9
-0.885
-0.885
-0.905
-0.91
-0.925
-0.925
-0.925
-0.93
-0.91
-0.91
-0.91
-0.92
-0.94
-0.98
-0.975
-0.935
-0.84
-0.64
-0.4
-0.05
0.355
0.755
1.095
1.32
1.39
1.39
1.26
0.995
0.575
0.05
-0.505
-0.9
-1.075
-1.04
-0.895
-0.755
-0.645
-0.645
-0.68
-0.755
-0.845
-0.895
-0.93
-0.935
-0.93
-0.92
-0.905
-0.9
-0.915
-0.92
-0.94
-0.95
-0.945
-0.945
-0.965
-0.945
-0.945
-0.935
-0.93
-0.925
-0.925
-0.95
-0.955
-0.965
-0.965
-0.97
-0.96
-0.945
-0.965
-0.94
-0.945
-0.92
-0.925
-0.95
-0.95
-0.955
-0.955
-0.95
-0.96
-0.95
-0.96
-0.95
-0.925
-0.905
-0.905
-0.91
-0.905
-0.91
-0.915
-0.925
-0.92
-0.915
-0.9
-0.89
-0.865
-0.85
-0.865
-0.855
-0.855
-0.85
-0.82
-0.825
-0.825
-0.81
-0.79
-0.76
-0.755
-0.73
-0.72
-0.7
-0.7
-0.675
-0.67
-0.65
-0.625
-0.62
-0.58
-0.56
-0.545
-0.51
-0.505
-0.485
-0.49
-0.485
-0.475
-0.46
-0.445
-0.425
-0.415
-0.39
-0.375
-0.36
-0.365
-0.375
-0.38
-0.39
-0.405
-0.435
-0.445
-0.47
-0.495
-0.505
-0.535
-0.55
