Lead II
-0.16
-0.155
-0.14
-0.15
-0.145
-0.135
-0.14
-0.14
-0.15
-0.155
-0.165
-0.165
-0.16
-0.15
-0.145
-0.14
-0.13
-0.115
-0.14
-0.135
-0.135
-0.14
-0.155
-0.155
-0.145
-0.145
-0.145
-0.115
-0.105
-0.105
-0.105
-0.105
-0.11
-0.105
-0.11
-0.12
-0.105
-0.1
-0.095
-0.09
-0.085
-0.075
-0.08
-0.08
-0.08
-0.095
-0.1
-0.105
-0.11
-0.105
-0.095
-0.095
-0.1
-0.105
-0.095
-0.1
-0.12
-0.11
-0.115
-0.12
-0.13
-0.12
-0.11
-0.115
-0.11
-0.11
-0.13
-0.14
-0.145
-0.145
-0.155
-0.18
-0.195
-0.195
-0.21
-0.22
-0.23
-0.24
-0.25
-0.265
-0.285
-0.29
-0.305
-0.315
-0.325
-0.325
-0.335
-0.35
-0.35
-0.335
-0.345
-0.35
-0.355
-0.37
-0.36
-0.365
-0.375
-0.37
-0.355
-0.36
-0.37
-0.375
-0.375
-0.38
-0.38
-0.38
-0.39
-0.375
-0.39
-0.375
-0.375
-0.37
-0.36
-0.345
-0.35
-0.35
-0.35
-0.355
-0.345
-0.365
-0.355
-0.365
-0.36
-0.355
-0.345
-0.33
-0.35
-0.34
-0.35
-0.35
-0.365
-0.365
-0.365
-0.365
-0.355
-0.34
-0.35
-0.34
-0.36
-0.35
-0.365
-0.375
-0.395
-0.395
-0.385
-0.405
-0.385
-0.39
-0.39
-0.39
-0.385
-0.395
-0.4
-0.395
-0.415
-0.42
-0.425
-0.42
-0.425
-0.425
-0.41
-0.415
-0.42
-0.405
-0.42
-0.415
-0.43
-0.45
-0.45
-0.455
-0.44
-0.43
-0.42
-0.41
-0.41
-0.405
-0.395
-0.385
-0.4
-0.4
-0.38
-0.37
-0.355
-0.35
-0.345
-0.31
-0.295
-0.295
-0.28
-0.28
-0.285
-0.31
-0.305
-0.315
-0.31
-0.305
-0.285
-0.285
-0.29
-0.305
-0.325
-0.35
-0.38
-0.405
-0.43
-0.44
-0.44
-0.44
-0.435
-0.435
-0.435
-0.43
-0.45
-0.455
-0.465
-0.475
-0.475
-0.475
-0.485
-0.48
-0.485
-0.485
-0.49
-0.495
-0.495
-0.495
-0.51
-0.5
-0.5
-0.51
-0.5
-0.5
-0.48
-0.465
-0.47
-0.46
-0.455
-0.47
-0.465
-0.46
-0.455
-0.435
-0.43
-0.42
-0.405
-0.365
-0.3
-0.19
-0.03
0.195
0.51
0.875
1.275
1.65
1.885
1.93
1.735
1.265
0.625
-0.015
-0.655
-1.24
-1.33
-1.175
-0.895
-0.62
-0.385
-0.255
-0.235
-0.24
-0.31
-0.36
-0.4
-0.43
-0.44
-0.435
-0.415
-0.405
-0.395
-0.375
-0.385
-0.38
-0.38
-0.39
-0.39
-0.395
-0.405
-0.405
-0.405
-0.395
-0.385
-0.37
-0.375
-0.365
-0.38
-0.385
-0.385
-0.38
-0.395
-0.39
-0.405
-0.39
-0.385
-0.38
-0.365
-0.365
-0.36
-0.36
-0.37
-0.385
-0.385
-0.38
-0.39
-0.395
-0.38
-0.375
-0.36
-0.37
-0.36
-0.36
-0.355
-0.355
-0.37
-0.375
-0.375
-0.385
-0.365
-0.365
-0.335
-0.33
-0.335
-0.33
-0.33
-0.35
-0.345
-0.35
-0.34
-0.34
-0.325
-0.32
-0.305
-0.315
-0.305
-0.3
-0.29
-0.305
-0.295
-0.295
-0.29
-0.29
-0.27
-0.275
-0.25
-0.24
-0.245
-0.245
-0.235
-0.235
-0.25
-0.24
-0.245
-0.24
-0.235
-0.225
-0.215
-0.2
-0.19
-0.205
-0.21
-0.23
-0.225
-0.23
-0.235
-0.23
-0.22
-0.205
-0.205
-0.195
-0.205
-0.215
-0.225
-0.25
-0.275
-0.28
-0.295
-0.33
-0.34
-0.36
-0.37
-0.37
-0.39
-0.415
-0.44
-0.46
-0.49
-0.505
-0.52
-0.525
-0.515
-0.525
-0.52
-0.52
-0.52
-0.515
-0.53
-0.54
-0.565
-0.565
-0.57
-0.57
-0.575
-0.57
-0.555
-0.545
-0.555
-0.56
-0.555
-0.57
-0.57
-0.58
-0.57
-0.58
-0.55
-0.55
-0.53
-0.515
-0.52
-0.525
-0.52
-0.525
-0.53
-0.535
-0.535
-0.52
-0.515
-0.515
-0.5
-0.49
-0.485
-0.505
-0.505
-0.5
-0.515
-0.51
-0.51
-0.505
-0.5
-0.5
-0.49
-0.49
-0.49
-0.49
-0.495
-0.5
-0.505
-0.51
-0.52
-0.52
-0.52
-0.52
-0.515
-0.505
-0.515
-0.51
-0.525
-0.545
-0.545
-0.55
-0.565
-0.56
-0.57
-0.545
-0.535
-0.555
-0.545
-0.55
-0.555
-0.565
-0.575
-0.585
-0.585
-0.58
-0.565
-0.565
-0.555
-0.545
-0.555
-0.55
-0.57
-0.57
-0.58
-0.57
-0.58
-0.56
-0.545
-0.545
-0.535
-0.52
-0.51
-0.5
-0.49
-0.49
-0.49
-0.485
-0.46
-0.455
-0.45
-0.435
-0.42
-0.39
-0.39
-0.39
-0.415
-0.425
-0.425
-0.44
-0.435
-0.44
-0.41
-0.415
-0.405
-0.405
-0.415
-0.435
-0.43
-0.475
-0.485
-0.51
-0.53
-0.54
-0.55
-0.565
-0.555
-0.555
-0.565
-0.56
-0.57
-0.57
-0.58
-0.59
-0.6
-0.595
-0.59
-0.6
-0.595
-0.59
-0.58
-0.59
-0.59
-0.59
-0.6
-0.605
-0.615
-0.605
-0.605
-0.595
-0.575
-0.575
-0.56
-0.56
-0.57
-0.56
-0.55
-0.545
-0.545
-0.545
-0.51
-0.485
-0.405
-0.29
-0.105
0.115
0.41
0.785
1.17
1.51
1.725
1.71
1.4
0.855
0.215
-0.425
-1.065
-1.38
-1.375
-1.185
-0.92
-0.655
-0.48
-0.375
-0.35
-0.355
-0.405
-0.435
-0.46
-0.5
-0.505
-0.505
-0.495
-0.505
-0.485
-0.475
-0.465
-0.46
-0.46
-0.46
-0.45
-0.455
-0.465
-0.465
-0.47
-0.47
-0.47
-0.47
-0.47
-0.455
-0.46
-0.43
-0.44
-0.44
-0.435
-0.45
-0.455
-0.47
-0.46
-0.455
-0.455
-0.45
-0.44
-0.435
-0.435
-0.425
-0.435
-0.43
-0.44
-0.445
-0.445
-0.445
-0.45
-0.44
-0.43
-0.42
-0.415
-0.42
-0.425
-0.435
-0.425
-0.44
-0.435
-0.435
-0.43
-0.415
-0.4
-0.395
-0.39
-0.395
-0.395
-0.395
-0.41
-0.405
-0.41
-0.395
-0.4
-0.385
-0.39
-0.38
-0.375
-0.375
-0.375
-0.38
-0.385
-0.38
-0.37
-0.37
-0.37
-0.355
-0.345
-0.335
-0.33
-0.325
-0.32
-0.32
-0.325
-0.325
-0.325
-0.315
-0.305
-0.305
-0.29
-0.28
-0.27
-0.27
-0.275
-0.28
-0.275
-0.295
-0.29
-0.285
-0.285
-0.275
-0.26
-0.25
-0.255
-0.255
-0.26
-0.27
-0.27
-0.29
-0.31
-0.305
-0.32
-0.335
-0.345
-0.35
-0.36
-0.385
-0.395
-0.41
-0.435
-0.45
-0.475
-0.48
-0.49
-0.505
-0.51
-0.51
-0.515
-0.515
-0.535
-0.555
-0.56
-0.565
-0.57
-0.58
-0.565
-0.575
-0.565
-0.56
-0.56
-0.57
-0.57
-0.59
-0.585
-0.595
-0.59
-0.595
-0.57
-0.575
-0.56
-0.545
-0.55
-0.545
-0.56
-0.555
-0.55
-0.56
-0.57
-0.555
-0.55
-0.55
-0.54
-0.54
-0.53
-0.54
-0.53
-0.525
-0.53
-0.535
-0.535
-0.53
-0.53
-0.525
-0.525
-0.51
-0.5
-0.505
-0.515
-0.54
-0.535
-0.545
-0.545
-0.55
-0.54
-0.535
-0.53
-0.525
-0.525
-0.525
-0.53
-0.54
-0.545
-0.55
-0.56
-0.565
-0.56
-0.56
-0.545
-0.53
-0.55
-0.55
-0.555
-0.565
-0.57
-0.575
-0.575
-0.575
-0.57
-0.57
-0.585
-0.56
-0.545
-0.56
-0.565
-0.565
-0.575
-0.575
-0.585
-0.585
-0.58
-0.57
-0.565
-0.555
-0.55
-0.55
-0.555
-0.56
-0.565
-0.575
-0.57
-0.56
-0.56
-0.545
-0.53
-0.515
-0.505
-0.485
-0.475
-0.475
-0.465
-0.465
-0.455
-0.46
-0.425
-0.41
-0.405
-0.38
-0.385
-0.395
-0.405
-0.41
-0.43
-0.43
-0.44
-0.435
-0.435
-0.44
-0.46
-0.44
-0.46
-0.48
-0.495
-0.53
-0.545
-0.57
-0.565
-0.585
-0.58
-0.575
-0.56
-0.555
-0.56
-0.565
-0.565
-0.565
-0.58
-0.59
-0.585
-0.585
-0.58
-0.56
-0.555
-0.535
-0.555
-0.555
-0.56
-0.565
-0.555
-0.575
-0.58
-0.585
-0.58
-0.565
-0.56
-0.53
-0.52
-0.525
-0.505
-0.51
-0.51
-0.505
-0.475
-0.42
-0.295
-0.12
0.15
0.535
0.965
1.37
1.685
1.78
1.59
1.11
0.47
-0.17
-0.81
-1.325
-1.41
-1.265
-1.01
-0.71
-0.505
-0.375
-0.325
-0.345
-0.395
-0.44
-0.475
-0.49
-0.485
-0.47
-0.46
-0.455
-0.445
-0.435
-0.445
-0.445
-0.45
-0.45
-0.445
-0.445
-0.435
-0.425
-0.425
-0.43
-0.43
-0.445
-0.445
-0.435
-0.44
-0.435
-0.425
-0.43
-0.42
-0.405
-0.42
-0.435
-0.43
-0.445
-0.425
-0.445
-0.45
-0.435
-0.425
-0.425
-0.415
-0.42
-0.405
-0.41
-0.415
-0.415
-0.415
-0.425
-0.42
-0.41
-0.415
-0.4
-0.4
-0.38
-0.39
-0.39
-0.395
-0.39
-0.395
-0.415
-0.41
-0.405
-0.39
-0.39
-0.385
-0.38
-0.36
-0.365
-0.38
-0.38
-0.38
-0.38
-0.375
-0.365
-0.375
-0.36
-0.36
-0.335
-0.33
-0.33
-0.325
-0.34
-0.345
-0.34
-0.33
-0.345
-0.335
-0.335
-0.32
-0.305
-0.29
-0.29
-0.28
-0.285
-0.305
-0.3
-0.31
-0.295
-0.3
-0.28
-0.27
-0.265
-0.265
-0.27
-0.26
-0.275
-0.275
-0.29
-0.285
-0.29
-0.285
-0.275
-0.26
-0.25
-0.25
-0.265
-0.265
-0.27
-0.3
-0.315
-0.33
-0.34
-0.355
-0.365
-0.375
-0.385
-0.385
-0.415
-0.435
-0.455
-0.48
-0.495
-0.525
-0.515
-0.545
-0.545
-0.54
-0.535
-0.53
-0.53
-0.53
-0.545
-0.55
-0.58
-0.57
-0.575
-0.565
-0.565
-0.56
-0.56
-0.56
-0.565
-0.555
-0.56
-0.56
-0.565
-0.57
-0.565
-0.565
-0.55
-0.55
-0.545
-0.53
-0.525
-0.525
-0.52
-0.53
-0.54
-0.555
-0.555
-0.55
-0.54
-0.545
-0.53
-0.52
-0.525
-0.515
-0.535
-0.53
-0.535
-0.545
-0.535
-0.545
-0.535
-0.535
-0.525
-0.515
-0.525
-0.535
-0.535
-0.54
-0.555
-0.55
-0.55
-0.56
-0.555
-0.555
-0.55
-0.545
-0.545
-0.56
-0.565
-0.57
-0.575
-0.575
-0.575
-0.565
-0.565
-0.56
-0.55
-0.56
-0.565
-0.57
-0.59
-0.575
-0.58
-0.6
-0.595
-0.595
-0.575
-0.575
-0.55
-0.53
-0.51
-0.495
-0.485
-0.48
-0.48
-0.49
-0.48
-0.46
-0.445
-0.415
-0.4
-0.405
-0.41
-0.425
-0.44
-0.435
-0.455
-0.455
-0.45
-0.445
-0.45
-0.445
-0.46
-0.47
-0.475
-0.51
-0.545
-0.57
-0.6
-0.61
-0.62
-0.61
-0.605
-0.595
-0.595
-0.6
-0.6
-0.62
-0.625
-0.64
-0.645
-0.635
-0.645
-0.63
-0.625
-0.62
-0.615
-0.62
-0.625
-0.635
-0.63
-0.645
-0.64
-0.65
-0.645
-0.635
-0.62
-0.615
-0.605
-0.61
-0.61
-0.6
-0.59
-0.585
-0.575
-0.575
-0.57
-0.57
-0.545
-0.475
-0.37
-0.21
-0.005
0.29
0.635
1.025
1.375
1.655
1.78
1.725
1.46
0.985
0.375
-0.265
-0.885
-1.29
-1.455
-1.37
-1.16
-0.905
-0.685
-0.535
-0.46
-0.44
-0.44
-0.47
-0.495
-0.525
-0.525
-0.525
-0.53
-0.52
-0.51
-0.515
-0.52
-0.51
-0.505
-0.5
-0.49
-0.49
-0.495
-0.505
-0.52
-0.52
-0.51
-0.515
-0.52
-0.495
-0.48
-0.485
-0.48
-0.485
-0.495
-0.505
-0.505
-0.51
-0.5
-0.495
-0.495
-0.49
-0.48
-0.485
-0.48
-0.475
-0.47
-0.485
-0.485
-0.495
-0.485
-0.5
-0.48
-0.48
-0.47
-0.475
-0.47
-0.48
-0.48
-0.48
-0.485
-0.495
-0.48
-0.48
-0.465
-0.46
-0.445
-0.455
-0.46
-0.44
-0.45
-0.455
-0.45
-0.465
-0.46
-0.44
-0.435
-0.435
-0.43
-0.425
-0.425
-0.425
-0.43
-0.435
-0.44
-0.43
-0.425
-0.415
-0.41
-0.405
-0.405
-0.39
-0.4
-0.4
-0.4
-0.39
-0.4
-0.4
-0.395
-0.39
-0.385
-0.37
-0.365
-0.37
-0.37
-0.37
-0.375
-0.385
-0.385
-0.385
-0.38
-0.385
-0.37
-0.37
-0.365
-0.365
-0.37
-0.37
-0.385
-0.395
-0.385
-0.405
-0.405
-0.39
-0.39
-0.395
-0.405
-0.405
-0.43
-0.445
-0.455
-0.48
-0.505
-0.515
-0.53
-0.545
-0.555
-0.555
-0.56
-0.57
-0.58
-0.605
-0.62
-0.635
-0.64
-0.65
-0.66
-0.655
-0.655
-0.66
-0.645
-0.645
-0.655
-0.655
-0.655
-0.66
-0.67
-0.68
-0.675
-0.68
-0.665
-0.665
-0.65
-0.66
-0.655
-0.655
-0.66
-0.665
-0.66
-0.66
-0.66
-0.655
-0.65
-0.655
-0.65
-0.645
-0.635
-0.64
-0.63
-0.63
-0.63
-0.635
-0.625
-0.63
-0.63
-0.63
-0.625
-0.62
-0.615
-0.62
-0.62
-0.62
-0.625
-0.635
-0.63
-0.625
-0.62
-0.635
-0.63
-0.63
-0.625
-0.63
-0.635
-0.64
-0.65
-0.655
-0.655
-0.65
-0.655
-0.655
-0.645
-0.635
-0.635
-0.64
-0.64
-0.63
-0.635
-0.63
-0.62
-0.6
-0.595
-0.565
-0.555
-0.545
-0.55
-0.535
-0.525
-0.52
-0.525
-0.51
-0.51
-0.51
-0.525
-0.53
-0.53
-0.515
-0.51
-0.505
-0.51
-0.52
-0.54
-0.55
-0.565
-0.58
-0.595
-0.61
-0.62
-0.64
-0.645
-0.665
-0.675
-0.68
-0.69
-0.69
-0.68
-0.685
-0.675
-0.68
-0.675
-0.675
-0.685
-0.695
-0.695
-0.705
-0.71
-0.705
-0.71
-0.71
-0.685
-0.7
-0.68
-0.675
-0.675
-0.675
-0.675
-0.68
-0.685
-0.68
-0.665
-0.655
-0.645
-0.625
-0.615
-0.595
-0.585
-0.55
-0.505
-0.405
-0.26
-0.035
0.295
0.69
1.12
1.52
1.75
1.725
1.395
0.79
0.15
-0.49
-1.13
-1.495
-1.45
-1.22
-0.915
-0.64
-0.47
-0.385
-0.38
-0.425
-0.48
-0.53
-0.56
-0.58
-0.575
-0.575
-0.555
-0.535
-0.53
-0.52
-0.51
-0.52
-0.52
-0.53
-0.535
-0.525
-0.54
-0.54
-0.52
-0.525
-0.515
-0.5
-0.5
-0.505
-0.51
-0.51
-0.525
-0.515
-0.51
-0.515
-0.5
-0.495
-0.505
-0.485
-0.49
-0.495
-0.49
-0.495
-0.5
-0.505
-0.505
-0.5
-0.5
-0.495
-0.49
-0.47
-0.475
-0.485
-0.47
-0.47
-0.48
-0.48
-0.49
-0.485
-0.48
-0.48
-0.47
-0.45
-0.45
-0.46
-0.455
-0.46
-0.47
-0.48
-0.46
-0.46
-0.465
-0.455
-0.435
-0.42
-0.425
-0.425
-0.42
-0.42
-0.44
-0.435
-0.435
-0.425
-0.41
-0.405
-0.39
-0.38
-0.375
-0.37
-0.375
-0.385
-0.37
-0.37
-0.36
-0.35
-0.34
-0.335
-0.335
-0.315
-0.31
-0.305
-0.305
-0.305
-0.305
-0.305
-0.295
-0.29
-0.29
-0.28
-0.275
-0.265
-0.26
-0.27
-0.27
-0.285
-0.29
-0.295
-0.325
-0.345
-0.345
-0.375
-0.38
-0.395
-0.41
-0.435
-0.45
-0.47
-0.5
-0.52
-0.53
-0.545
-0.55
-0.555
-0.57
-0.56
-0.565
-0.58
-0.58
-0.6
-0.6
-0.61
-0.63
-0.625
-0.62
-0.62
-0.6
-0.61
-0.615
-0.615
-0.63
-0.62
-0.635
-0.635
-0.63
-0.64
-0.625
-0.62
-0.615
-0.61
-0.59
-0.595
-0.59
-0.6
-0.61
-0.615
-0.6
-0.605
-0.58
-0.58
-0.565
-0.55
-0.56
-0.555
-0.565
-0.56
-0.57
-0.57
-0.56
-0.565
-0.55
-0.54
-0.545
-0.54
-0.545
-0.545
-0.54
-0.555
-0.565
-0.565
-0.58
-0.59
-0.57
-0.565
-0.575
-0.55
-0.55
-0.55
-0.555
-0.57
-0.58
-0.575
-0.575
-0.58
-0.56
-0.55
-0.55
-0.535
-0.53
-0.53
-0.52
-0.515
-0.51
-0.505
-0.5
-0.495
-0.47
-0.46
-0.44
-0.425
-0.42
-0.42
-0.43
-0.45
-0.455
-0.475
-0.47
-0.465
-0.455
-0.45
-0.445
-0.455
-0.46
-0.465
-0.495
-0.515
-0.535
-0.555
-0.585
-0.59
-0.605
-0.59
-0.61
-0.58
-0.585
-0.58
-0.58
-0.6
-0.605
-0.625
-0.625
-0.63
-0.63
-0.625
-0.61
-0.61
-0.61
-0.595
-0.61
-0.61
-0.605
-0.605
-0.62
-0.625
-0.615
-0.595
-0.59
-0.575
-0.56
-0.545
-0.55
-0.55
-0.55
-0.545
-0.53
-0.505
-0.45
-0.365
-0.23
-0.02
0.265
0.615
1.015
1.4
1.685
1.795
1.67
1.265
0.65
0.01
-0.63
-1.225
-1.425
-1.38
-1.16
-0.89
-0.655
-0.49
-0.405
-0.385
-0.4
-0.42
-0.45
-0.47
-0.48
-0.485
-0.495
-0.49
-0.495
-0.48
-0.495
-0.485
-0.485
-0.48
-0.48
-0.46
-0.46
-0.455
-0.465
-0.48
-0.47
-0.48
-0.465
-0.48
-0.48
-0.465
-0.465
-0.455
-0.445
-0.44
-0.44
-0.45
-0.455
-0.46
-0.46
-0.46
-0.455
-0.465
-0.44
-0.435
-0.425
-0.435
-0.435
-0.445
-0.465
-0.465
-0.47
-0.46
-0.465
-0.435
-0.435
-0.42
-0.41
-0.42
-0.415
-0.415
-0.435
-0.45
-0.44
-0.44
-0.425
-0.425
-0.41
-0.4
-0.395
-0.4
-0.4
-0.405
-0.405
-0.41
-0.39
-0.39
-0.375
-0.38
-0.36
-0.355
-0.345
-0.34
-0.345
-0.355
-0.345
-0.355
-0.345
-0.325
-0.325
-0.31
-0.295
-0.28
-0.28
-0.27
-0.275
-0.275
-0.28
-0.275
-0.275
-0.27
-0.26
-0.25
-0.24
-0.24
-0.225
-0.225
-0.23
-0.23
-0.23
-0.24
-0.24
-0.24
-0.235
-0.23
-0.23
-0.245
-0.26
-0.275
-0.31
-0.33
-0.36
-0.405
-0.415
-0.425
-0.44
-0.445
-0.445
-0.46
-0.46
-0.475
-0.48
-0.505
-0.52
-0.545
-0.56
-0.555
-0.555
-0.555
-0.535
-0.535
-0.54
-0.535
-0.545
-0.55
-0.565
-0.56
-0.57
-0.57
-0.565
-0.565
-0.56
-0.555
-0.55
-0.55
-0.545
-0.555
-0.56
-0.57
-0.58
-0.58
-0.575
-0.56
-0.55
-0.55
-0.535
-0.53
-0.535
-0.545
-0.54
-0.535
-0.545
-0.535
-0.53
-0.53
-0.525
-0.52
-0.51
-0.515
-0.515
-0.515
-0.525
-0.535
-0.54
-0.535
-0.52
-0.52
-0.525
-0.515
-0.51
-0.525
-0.525
-0.515
-0.53
-0.525
-0.525
-0.515
-0.51
-0.495
-0.47
-0.46
-0.46
-0.455
-0.445
-0.445
-0.445
-0.445
-0.44
-0.415
-0.395
-0.385
-0.38
-0.37
-0.39
-0.385
-0.4
-0.405
-0.385
-0.39
-0.395
-0.395
-0.405
-0.405
-0.41
-0.415
-0.435
-0.45
-0.465
-0.495
-0.515
-0.535
-0.55
-0.55
-0.555
-0.545
-0.55
-0.54
-0.545
-0.56
-0.565
-0.58
-0.59
-0.59
-0.6
-0.61
-0.605
-0.605
-0.595
-0.59
-0.59
-0.58
-0.59
-0.595
-0.595
-0.595
-0.605
-0.595
-0.585
-0.57
-0.565
-0.565
-0.55
-0.555
-0.54
-0.54
-0.545
-0.535
-0.53
-0.545
-0.525
-0.495
-0.445
-0.35
-0.245
-0.09
0.135
0.415
0.76
1.125
1.45
1.68
1.725
1.53
1.08
0.46
-0.18
-0.82
-1.295
-1.43
-1.325
-1.095
-0.82
-0.605
-0.465
-0.4
-0.39
-0.405
-0.42
-0.445
-0.475
-0.47
-0.475
-0.485
-0.48
-0.485
-0.47
-0.465
-0.465
-0.465
-0.45
-0.455
-0.45
-0.47
-0.48
-0.485
-0.485
-0.475
-0.47
-0.475
-0.465
-0.455
-0.455
-0.45
-0.445
-0.45
-0.475
-0.46
-0.46
-0.465
-0.45
-0.45
-0.45
-0.445
-0.43
-0.435
-0.45
-0.45
-0.455
-0.45
-0.46
-0.46
-0.455
-0.45
-0.445
-0.43
-0.43
-0.425
-0.42
-0.43
-0.43
-0.43
-0.45
-0.455
-0.44
-0.44
-0.43
-0.42
-0.43
-0.425
-0.45
-0.46
-0.46
-0.47
-0.465
-0.45
-0.43
-0.42
-0.41
-0.405
-0.39
-0.405
-0.405
-0.4
-0.4
-0.41
-0.41
-0.415
-0.41
-0.395
-0.375
-0.37
-0.35
-0.36
-0.365
-0.365
-0.365
-0.37
-0.375
-0.37
-0.36
-0.335
-0.33
-0.315
-0.31
-0.31
-0.315
-0.325
-0.32
-0.33
-0.345
-0.335
-0.34
-0.335
-0.33
-0.31
-0.325
-0.325
-0.32
-0.35
-0.355
-0.355
-0.365
-0.385
-0.405
-0.41
-0.41
-0.42
-0.45
-0.465
-0.49
-0.51
-0.535
-0.54
-0.555
-0.57
-0.58
-0.585
-0.585
-0.595
-0.605
-0.63
-0.62
-0.645
-0.655
-0.67
-0.675
-0.67
-0.665
-0.655
-0.65
-0.64
-0.64
-0.66
-0.655
-0.655
-0.665
-0.67
-0.67
-0.67
-0.67
-0.66
-0.665
-0.64
-0.645
-0.65
-0.66
-0.675
-0.66
-0.66
-0.675
-0.665
-0.65
-0.655
-0.64
-0.64
-0.63
-0.63
-0.635
-0.635
-0.64
-0.64
-0.645
-0.64
-0.635
-0.625
-0.625
-0.615
-0.615
-0.62
-0.625
-0.63
-0.64
-0.64
-0.645
-0.655
-0.645
-0.64
-0.65
-0.63
-0.635
-0.63
-0.64
-0.64
-0.64
-0.645
-0.64
-0.625
-0.61
-0.61
-0.6
-0.59
-0.575
-0.57
-0.56
-0.57
-0.57
-0.56
-0.555
-0.545
-0.535
-0.53
-0.525
-0.52
-0.535
-0.525
-0.535
-0.53
-0.535
-0.545
-0.54
-0.55
-0.55
-0.565
-0.565
-0.58
-0.595
-0.61
-0.645
-0.67
-0.67
-0.7
-0.71
-0.715
-0.71
-0.7
-0.7
-0.695
-0.69
-0.7
-0.71
-0.71
-0.715
-0.725
-0.735
-0.73
-0.74
-0.735
-0.725
-0.715
-0.715
-0.71
-0.72
-0.72
-0.725
-0.74
-0.73
-0.73
-0.725
-0.71
-0.705
-0.695
-0.68
-0.675
-0.67
-0.685
-0.675
-0.67
-0.67
-0.645
-0.645
-0.605
-0.545
-0.445
-0.285
-0.05
0.265
0.625
1.03
1.39
1.63
1.72
1.55
1.165
0.595
-0.045
-0.685
-1.235
-1.485
-1.49
-1.3
-1.05
-0.825
-0.64
-0.535
-0.495
-0.51
-0.535
-0.56
-0.605
-0.63
-0.64
-0.625
-0.63
-0.63
-0.63
-0.615
-0.605
-0.595
-0.59
-0.58
-0.595
-0.6
-0.595
-0.6
-0.595
-0.6
-0.6
-0.59
-0.59
-0.585
-0.575
-0.58
-0.585
-0.59
-0.6
-0.595
-0.6
-0.6
-0.59
-0.585
-0.58
-0.58
-0.57
-0.565
-0.56
-0.57
-0.575
-0.575
-0.58
-0.59
-0.605
-0.59
-0.585
-0.58
-0.575
-0.56
-0.55
-0.545
-0.55
-0.565
-0.575
-0.58
-0.57
-0.55
-0.555
-0.545
-0.54
-0.525
-0.52
-0.525
-0.52
-0.52
-0.53
-0.545
-0.52
-0.54
-0.525
-0.505
-0.505
-0.49
-0.49
-0.475
-0.475
-0.495
-0.495
-0.485
-0.49
-0.47
-0.47
-0.45
-0.44
-0.43
-0.425
-0.42
-0.41
-0.415
-0.41
-0.415
-0.4
-0.395
-0.39
-0.37
-0.37
-0.36
-0.36
-0.365
-0.36
-0.37
-0.365
-0.36
-0.365
-0.365
-0.35
-0.355
-0.37
-0.375
-0.395
-0.405
-0.43
-0.46
-0.48
-0.49
-0.52
-0.53
-0.54
-0.57
-0.575
-0.59
-0.61
-0.62
-0.635
-0.655
-0.68
-0.685
-0.71
-0.7
-0.7
-0.7
-0.69
-0.695
-0.705
-0.7
-0.71
-0.72
-0.72
-0.74
-0.74
-0.74
-0.73
-0.725
-0.715
-0.725
-0.725
-0.72
-0.73
-0.735
-0.74
-0.74
-0.74
-0.73
-0.725
-0.71
-0.705
-0.69
-0.705
-0.7
-0.71
-0.71
-0.71
-0.725
-0.71
-0.69
-0.68
-0.675
-0.67
-0.66
-0.665
-0.65
-0.66
-0.67
-0.67
-0.66
-0.665
-0.655
-0.665
-0.66
-0.65
-0.655
-0.665
-0.655
-0.665
-0.67
-0.67
-0.68
-0.685
-0.675
-0.675
-0.68
-0.675
-0.67
-0.665
-0.68
-0.69
-0.685
-0.7
-0.705
-0.695
-0.705
-0.685
-0.68
-0.66
-0.655
-0.65
-0.645
-0.64
-0.635
-0.62
-0.63
-0.62
-0.61
-0.605
-0.585
-0.565
-0.54
-0.52
-0.53
-0.535
-0.53
-0.545
-0.57
-0.575
-0.565
-0.555
-0.55
-0.54
-0.53
-0.535
-0.54
-0.56
-0.585
-0.59
-0.615
-0.635
-0.655
-0.67
-0.665
-0.675
-0.675
-0.68
-0.68
-0.69
-0.695
-0.71
-0.71
-0.72
-0.705
-0.705
-0.71
-0.705
-0.71
-0.71
-0.71
-0.705
-0.73
-0.75
-0.73
-0.735
-0.73
-0.745
-0.735
-0.72
-0.71
-0.695
-0.705
-0.72
-0.715
-0.705
-0.695
-0.705
-0.675
-0.685
-0.67
-0.645
-0.645
-0.625
-0.625
-0.63
-0.61
-0.58
-0.515
-0.425
-0.245
-0.02
0.295
0.685
1.085
1.44
1.71
1.735
1.535
1.09
0.455
-0.185
-0.825
-1.335
-1.485
-1.405
-1.165
-0.905
-0.685
-0.535
-0.465
-0.47
-0.495
-0.54
-0.575
-0.595
-0.615
-0.615
-0.59
-0.585
-0.585
-0.59
-0.605
-0.6
-0.59
-0.6
-0.585
-0.585
-0.57
-0.57
-0.565
-0.57
-0.57
-0.58
-0.585
-0.58
-0.58
-0.595
-0.595
-0.57
-0.575
-0.58
-0.56
-0.555
-0.55
-0.57
-0.58
-0.58
-0.575
-0.59
-0.595
-0.585
-0.585
-0.575
-0.56
-0.565
-0.57
-0.57
-0.575
-0.565
-0.565
-0.57
-0.565
-0.555
-0.565
-0.55
-0.53
-0.55
-0.54
-0.54
-0.54
-0.55
-0.54
-0.54
-0.545
-0.535
-0.535
-0.52
-0.515
-0.51
-0.5
-0.505
-0.515
-0.515
-0.525
-0.515
-0.495
-0.485
-0.48
-0.465
-0.465
-0.46
-0.45
-0.455
-0.46
-0.45
-0.44
-0.435
-0.435
-0.41
-0.415
-0.39
-0.38
-0.37
-0.375
-0.36
-0.365
-0.36
-0.365
-0.365
-0.355
-0.345
-0.335
-0.325
-0.31
-0.31
-0.305
-0.32
-0.315
-0.33
-0.345
-0.345
-0.365
-0.36
-0.385
-0.395
-0.415
-0.44
-0.46
-0.49
-0.51
-0.54
-0.565
-0.585
-0.59
-0.595
-0.61
-0.62
-0.62
-0.625
-0.645
-0.65
-0.66
-0.68
-0.68
-0.695
-0.69
-0.695
-0.695
-0.68
-0.695
-0.68
-0.69
-0.695
-0.695
-0.7
-0.71
-0.715
-0.71
-0.71
-0.695
-0.695
-0.68
-0.685
-0.685
-0.705
-0.7
-0.715
-0.71
-0.715
-0.71
-0.69
-0.675
-0.665
-0.665
-0.67
-0.65
-0.65
-0.66
-0.655
-0.655
-0.66
-0.665
-0.67
-0.66
-0.65
-0.64
-0.655
-0.655
-0.66
-0.67
-0.67
-0.685
-0.68
-0.67
-0.675
-0.68
-0.665
-0.67
-0.665
-0.675
-0.67
-0.675
-0.68
-0.695
-0.675
-0.68
-0.68
-0.68
-0.67
-0.66
-0.665
-0.655
-0.665
-0.655
-0.655
-0.66
-0.645
-0.635
-0.615
-0.605
-0.595
-0.58
-0.58
-0.57
-0.56
-0.555
-0.54
-0.525
-0.535
-0.535
-0.545
-0.535
-0.535
-0.525
-0.525
-0.525
-0.53
-0.555
-0.565
-0.585
-0.605
-0.625
-0.64
-0.635
-0.65
-0.66
-0.655
-0.67
-0.68
-0.69
-0.715
-0.715
-0.705
-0.71
-0.695
-0.705
-0.7
-0.695
-0.695
-0.7
-0.725
-0.715
-0.72
-0.725
-0.725
-0.71
-0.705
-0.7
-0.72
-0.695
-0.68
-0.695
-0.69
-0.695
-0.695
-0.705
-0.71
-0.71
-0.685
-0.67
-0.655
-0.645
-0.655
-0.63
-0.635
-0.64
-0.64
-0.64
-0.625
-0.595
-0.55
-0.46
-0.31
-0.135
0.12
0.435
0.795
1.17
1.48
1.67
1.645
1.375
0.85
0.21
-0.43
-1.07
-1.43
-1.47
-1.3
-1.045
-0.79
-0.605
-0.485
-0.45
-0.48
-0.535
-0.565
-0.595
-0.605
-0.62
-0.615
-0.605
-0.595
-0.59
-0.595
-0.59
-0.585
-0.59
-0.58
-0.585
-0.57
-0.56
-0.58
-0.585
-0.595
-0.595
-0.58
-0.59
-0.59
-0.595
-0.57
-0.56
-0.56
-0.565
-0.57
-0.57
-0.575
-0.585
-0.58
-0.585
-0.57
-0.57
-0.565
-0.555
-0.545
-0.55
-0.555
-0.56
-0.57
-0.57
-0.57
-0.57
-0.575
-0.565
-0.555
-0.55
-0.545
-0.545
-0.55
-0.56
-0.565
-0.55
-0.55
-0.55
-0.545
-0.54
-0.53
-0.53
-0.515
-0.51
-0.52
-0.51
-0.51
-0.525
-0.535
-0.515
-0.51
-0.505
-0.48
-0.47
-0.475
-0.46
-0.48
-0.475
-0.465
-0.46
-0.46
-0.46
-0.445
-0.43
-0.425
-0.42
-0.4
-0.4
-0.39
-0.375
-0.375
-0.375
-0.37
-0.365
-0.36
-0.345
-0.335
-0.32
-0.32
-0.32
-0.32
-0.32
-0.33
-0.315
-0.305
-0.31
-0.32
-0.31
-0.33
-0.335
-0.33
-0.34
-0.37
-0.395
-0.415
-0.435
-0.47
-0.475
-0.485
-0.51
-0.51
-0.525
-0.57
-0.575
-0.59
-0.6
-0.625
-0.645
-0.65
-0.655
-0.66
-0.655
-0.655
-0.66
-0.65
-0.66
-0.675
-0.68
-0.695
-0.695
-0.705
-0.705
-0.695
-0.69
-0.685
-0.685
-0.69
-0.685
-0.7
-0.705
-0.71
-0.71
-0.715
-0.715
-0.705
-0.715
-0.7
-0.685
-0.67
-0.68
-0.68
-0.68
-0.68
-0.695
-0.69
-0.68
-0.68
-0.675
-0.66
-0.645
-0.65
-0.65
-0.645
-0.655
-0.66
-0.67
-0.665
-0.675
-0.66
-0.655
-0.65
-0.645
-0.64
-0.65
-0.64
-0.665
-0.665
-0.67
-0.66
-0.655
-0.655
-0.65
-0.66
-0.655
-0.65
-0.66
-0.655
-0.67
-0.68
-0.68
-0.685
-0.675
-0.665
-0.665
-0.655
-0.65
-0.64
-0.64
-0.64
-0.625
-0.63
-0.61
-0.6
-0.585
-0.585
-0.565
-0.555
-0.535
-0.53
-0.525
-0.53
-0.55
-0.535
-0.545
-0.54
-0.545
-0.54
-0.525
-0.525
-0.53
-0.53
-0.545
-0.56
-0.595
-0.63
-0.635
-0.665
-0.67
-0.685
-0.7
-0.685
-0.69
-0.695
-0.69
-0.685
-0.7
-0.71
-0.71
-0.72
-0.725
-0.73
-0.72
-0.705
-0.705
-0.71
-0.71
-0.72
-0.715
-0.725
-0.735
-0.735
-0.75
-0.725
-0.72
-0.72
-0.705
-0.705
-0.7
-0.705
-0.71
-0.72
-0.72
-0.725
-0.715
-0.715
-0.71
-0.695
-0.675
-0.655
-0.655
-0.655
-0.655
-0.65
-0.63
-0.55
-0.45
-0.25
0.025
0.39
0.805
1.235
1.565
1.725
1.645
1.29
0.675
0.035
-0.605
-1.245
-1.575
-1.535
-1.28
-1.0
-0.74
-0.57
-0.5
-0.49
-0.52
-0.555
-0.61
-0.625
-0.64
-0.63
-0.615
-0.61
-0.61
-0.6
-0.6
-0.61
-0.63
-0.63
-0.62
-0.62
-0.605
-0.595
-0.585
-0.595
-0.605
-0.6
-0.61
-0.605
-0.6
-0.6
-0.59
-0.595
-0.585
-0.575
-0.565
-0.575
-0.57
-0.575
-0.575
-0.6
-0.595
-0.59
-0.595
-0.585
-0.575
-0.595
-0.58
-0.575
-0.57
-0.565
-0.56
-0.58
-0.58
-0.585
-0.59
-0.59
-0.575
-0.555
-0.545
-0.54
-0.555
-0.55
-0.56
-0.56
-0.55
-0.555
-0.55
-0.55
-0.54
-0.525
-0.525
-0.515
-0.515
-0.51
-0.515
-0.52
-0.51
-0.5
-0.49
-0.485
-0.485
-0.475
-0.47
-0.465
-0.455
-0.445
-0.435
-0.435
-0.43
-0.425
-0.425
-0.41
-0.405
-0.395
-0.375
-0.37
-0.365
-0.355
-0.35
-0.35
-0.355
-0.345
-0.355
-0.345
-0.335
-0.33
-0.32
-0.31
-0.31
-0.315
-0.33
-0.34
-0.355
-0.37
-0.39
-0.41
-0.43
-0.45
-0.47
-0.485
-0.51
-0.555
-0.575
-0.595
-0.62
-0.645
-0.66
-0.665
-0.675
-0.69
-0.66
-0.68
-0.695
-0.675
-0.715
-0.705
-0.715
-0.725
-0.735
-0.73
-0.735
-0.725
-0.715
-0.72
-0.71
-0.715
-0.72
-0.73
-0.74
-0.735
-0.735
-0.74
-0.735
-0.73
-0.71
-0.7
-0.705
-0.705
-0.715
-0.715
-0.72
-0.72
-0.715
-0.71
-0.705
-0.695
-0.695
-0.68
-0.68
-0.69
-0.7
-0.705
-0.685
-0.695
-0.695
-0.69
-0.685
-0.69
-0.675
-0.665
-0.675
-0.675
-0.67
-0.675
-0.69
-0.685
-0.69
-0.685
-0.685
-0.695
-0.685
-0.69
-0.69
-0.69
-0.71
-0.705
-0.71
-0.725
-0.725
-0.72
-0.71
-0.71
-0.675
-0.68
-0.67
-0.67
-0.67
-0.66
-0.655
-0.65
-0.645
-0.63
-0.615
-0.6
-0.585
-0.565
-0.555
-0.555
-0.555
-0.555
-0.57
-0.585
-0.58
-0.585
-0.575
-0.56
-0.545
-0.545
-0.545
-0.56
-0.57
-0.595
-0.6
-0.635
-0.65
-0.675
-0.69
-0.695
-0.695
-0.705
-0.705
-0.715
-0.715
-0.715
-0.72
-0.73
-0.74
-0.735
-0.745
-0.73
-0.725
-0.73
-0.735
-0.735
-0.75
