Lead II
-0.38
-0.37
-0.355
-0.355
-0.35
-0.35
-0.34
-0.36
-0.36
-0.365
-0.365
-0.37
-0.375
-0.37
-0.365
-0.36
-0.36
-0.365
-0.355
-0.36
-0.355
-0.37
-0.37
-0.375
-0.385
-0.365
-0.37
-0.34
-0.34
-0.32
-0.315
-0.32
-0.32
-0.33
-0.33
-0.33
-0.31
-0.3
-0.285
-0.27
-0.265
-0.28
-0.28
-0.3
-0.32
-0.34
-0.345
-0.345
-0.345
-0.35
-0.345
-0.34
-0.345
-0.345
-0.35
-0.36
-0.375
-0.38
-0.39
-0.395
-0.405
-0.405
-0.395
-0.39
-0.38
-0.37
-0.375
-0.39
-0.4
-0.405
-0.41
-0.41
-0.4
-0.39
-0.39
-0.38
-0.385
-0.38
-0.395
-0.42
-0.45
-0.455
-0.42
-0.355
-0.255
-0.115
0.04
0.22
0.41
0.58
0.715
0.735
0.61
0.375
0.075
-0.2
-0.41
-0.505
-0.49
-0.425
-0.345
-0.29
-0.27
-0.285
-0.295
-0.315
-0.34
-0.355
-0.365
-0.365
-0.36
-0.355
-0.35
-0.35
-0.355
-0.35
-0.365
-0.375
-0.375
-0.38
-0.375
-0.365
-0.37
-0.36
-0.35
-0.35
-0.345
-0.36
-0.36
-0.36
-0.37
-0.375
-0.37
-0.36
-0.36
-0.36
-0.35
-0.345
-0.35
-0.35
-0.345
-0.345
-0.35
-0.35
-0.345
-0.335
-0.33
-0.32
-0.325
-0.31
-0.315
-0.325
-0.33
-0.325
-0.33
-0.325
-0.32
-0.32
-0.33
-0.32
-0.305
-0.305
-0.3
-0.305
-0.3
-0.31
-0.32
-0.31
-0.31
-0.3
-0.305
-0.29
-0.28
-0.285
-0.28
-0.285
-0.295
-0.3
-0.295
-0.295
-0.29
-0.29
-0.28
-0.275
-0.28
-0.265
-0.265
-0.255
-0.26
-0.26
-0.255
-0.255
-0.25
-0.23
-0.22
-0.215
-0.205
-0.21
-0.205
-0.21
-0.22
-0.215
-0.225
-0.235
-0.23
-0.24
-0.24
-0.245
-0.235
-0.245
-0.26
-0.27
-0.285
-0.29
-0.305
-0.31
-0.31
-0.31
-0.315
-0.3
-0.305
-0.305
-0.31
-0.315
-0.315
-0.345
-0.335
-0.35
-0.34
-0.34
-0.335
-0.33
-0.32
-0.325
-0.33
-0.33
-0.335
-0.35
-0.355
-0.355
-0.35
-0.36
-0.345
-0.34
-0.35
-0.345
-0.34
-0.34
-0.36
-0.365
-0.37
-0.38
-0.38
-0.37
-0.37
-0.37
-0.37
-0.365
-0.365
-0.375
-0.375
-0.39
-0.39
-0.39
-0.39
-0.4
-0.39
-0.385
-0.375
-0.375
-0.37
-0.385
-0.38
-0.39
-0.4
-0.4
-0.4
-0.39
-0.385
-0.385
-0.38
-0.38
-0.385
-0.38
-0.395
-0.39
-0.385
-0.38
-0.37
-0.365
-0.35
-0.33
-0.325
-0.335
-0.325
-0.335
-0.335
-0.335
-0.33
-0.32
-0.305
-0.295
-0.3
-0.295
-0.31
-0.33
-0.335
-0.35
-0.355
-0.36
-0.365
-0.375
-0.385
-0.375
-0.37
-0.38
-0.37
-0.375
-0.38
-0.4
-0.405
-0.42
-0.435
-0.435
-0.43
-0.42
-0.42
-0.415
-0.405
-0.4
-0.395
-0.415
-0.405
-0.415
-0.425
-0.425
-0.425
-0.42
-0.425
-0.445
-0.455
-0.45
-0.41
-0.345
-0.24
-0.11
0.055
0.25
0.46
0.63
0.715
0.65
0.47
0.175
-0.125
-0.38
-0.52
-0.54
-0.485
-0.415
-0.35
-0.315
-0.31
-0.315
-0.335
-0.35
-0.365
-0.375
-0.385
-0.385
-0.39
-0.395
-0.4
-0.4
-0.395
-0.395
-0.38
-0.375
-0.385
-0.38
-0.38
-0.385
-0.395
-0.39
-0.385
-0.38
-0.375
-0.37
-0.365
-0.37
-0.36
-0.37
-0.365
-0.375
-0.375
-0.385
-0.38
-0.37
-0.365
-0.355
-0.35
-0.35
-0.33
-0.345
-0.345
-0.35
-0.35
-0.36
-0.36
-0.36
-0.355
-0.35
-0.33
-0.33
-0.325
-0.33
-0.34
-0.345
-0.345
-0.345
-0.345
-0.335
-0.325
-0.31
-0.315
-0.31
-0.31
-0.31
-0.315
-0.315
-0.315
-0.315
-0.32
-0.32
-0.305
-0.31
-0.32
-0.31
-0.3
-0.31
-0.305
-0.315
-0.31
-0.3
-0.305
-0.295
-0.28
-0.26
-0.25
-0.235
-0.24
-0.235
-0.24
-0.235
-0.245
-0.245
-0.255
-0.255
-0.25
-0.235
-0.245
-0.255
-0.26
-0.26
-0.27
-0.295
-0.295
-0.305
-0.31
-0.31
-0.315
-0.31
-0.32
-0.32
-0.325
-0.34
-0.34
-0.35
-0.355
-0.35
-0.355
-0.355
-0.365
-0.365
-0.35
-0.355
-0.36
-0.36
-0.37
-0.38
-0.385
-0.385
-0.385
-0.385
-0.39
-0.375
-0.37
-0.375
-0.385
-0.385
-0.395
-0.4
-0.395
-0.4
-0.4
-0.39
-0.405
-0.395
-0.385
-0.385
-0.385
-0.39
-0.395
-0.405
-0.4
-0.415
-0.42
-0.415
-0.41
-0.41
-0.4
-0.395
-0.4
-0.39
-0.405
-0.41
-0.41
-0.415
-0.425
-0.42
-0.41
-0.4
-0.395
-0.39
-0.39
-0.4
-0.405
-0.42
-0.425
-0.42
-0.42
-0.415
-0.4
-0.385
-0.365
-0.37
-0.355
-0.355
-0.365
-0.37
-0.365
-0.37
-0.375
-0.34
-0.34
-0.33
-0.33
-0.345
-0.345
-0.385
-0.395
-0.395
-0.39
-0.385
-0.395
-0.395
-0.4
-0.4
-0.395
-0.4
-0.395
-0.43
-0.445
-0.45
-0.465
-0.45
-0.445
-0.44
-0.44
-0.43
-0.425
-0.42
-0.435
-0.43
-0.44
-0.44
-0.445
-0.44
-0.45
-0.445
-0.46
-0.46
-0.47
-0.49
-0.48
-0.455
-0.385
-0.29
-0.175
-0.025
0.155
0.335
0.535
0.69
0.745
0.65
0.425
0.135
-0.17
-0.4
-0.52
-0.54
-0.495
-0.425
-0.35
-0.32
-0.32
-0.31
-0.335
-0.34
-0.37
-0.39
-0.405
-0.42
-0.42
-0.41
-0.41
-0.405
-0.39
-0.385
-0.385
-0.375
-0.395
-0.39
-0.4
-0.4
-0.405
-0.4
-0.4
-0.39
-0.385
-0.38
-0.365
-0.37
-0.37
-0.375
-0.38
-0.385
-0.385
-0.38
-0.37
-0.365
-0.355
-0.355
-0.345
-0.35
-0.36
-0.36
-0.365
-0.37
-0.37
-0.37
-0.36
-0.34
-0.345
-0.335
-0.34
-0.345
-0.35
-0.355
-0.36
-0.365
-0.36
-0.355
-0.345
-0.345
-0.335
-0.335
-0.34
-0.335
-0.34
-0.36
-0.35
-0.35
-0.355
-0.345
-0.34
-0.34
-0.32
-0.315
-0.32
-0.32
-0.34
-0.335
-0.335
-0.335
-0.335
-0.315
-0.305
-0.29
-0.28
-0.265
-0.26
-0.265
-0.26
-0.26
-0.26
-0.27
-0.28
-0.27
-0.27
-0.27
-0.26
-0.275
-0.28
-0.29
-0.305
-0.315
-0.325
-0.33
-0.34
-0.34
-0.35
-0.34
-0.34
-0.345
-0.345
-0.36
-0.365
-0.365
-0.38
-0.385
-0.39
-0.38
-0.385
-0.38
-0.385
-0.375
-0.38
-0.38
-0.385
-0.385
-0.4
-0.395
-0.4
-0.405
-0.395
-0.4
-0.385
-0.39
-0.385
-0.39
-0.395
-0.405
-0.405
-0.415
-0.42
-0.41
-0.4
-0.41
-0.4
-0.4
-0.395
-0.405
-0.405
-0.415
-0.42
-0.425
-0.43
-0.435
-0.43
-0.425
-0.41
-0.42
-0.405
-0.415
-0.42
-0.43
-0.43
-0.435
-0.44
-0.43
-0.42
-0.42
-0.395
-0.405
-0.385
-0.395
-0.385
-0.39
-0.385
-0.395
-0.39
-0.39
-0.38
-0.365
-0.34
-0.325
-0.32
-0.335
-0.34
-0.355
-0.375
-0.385
-0.39
-0.39
-0.38
-0.39
-0.38
-0.39
-0.39
-0.4
-0.405
-0.42
-0.43
-0.44
-0.445
-0.465
-0.455
-0.45
-0.445
-0.445
-0.43
-0.435
-0.44
-0.455
-0.455
-0.45
-0.455
-0.455
-0.45
-0.44
-0.44
-0.45
-0.47
-0.485
-0.505
-0.49
-0.445
-0.37
-0.24
-0.065
0.13
0.35
0.545
0.7
0.735
0.62
0.38
0.07
-0.22
-0.44
-0.555
-0.57
-0.53
-0.455
-0.385
-0.35
-0.34
-0.35
-0.365
-0.385
-0.4
-0.41
-0.43
-0.43
-0.425
-0.42
-0.415
-0.41
-0.41
-0.405
-0.42
-0.43
-0.44
-0.435
-0.43
-0.43
-0.42
-0.42
-0.41
-0.41
-0.41
-0.41
-0.41
-0.42
-0.42
-0.42
-0.43
-0.42
-0.405
-0.405
-0.395
-0.39
-0.38
-0.385
-0.385
-0.385
-0.39
-0.395
-0.395
-0.39
-0.375
-0.375
-0.36
-0.36
-0.355
-0.35
-0.355
-0.365
-0.37
-0.37
-0.375
-0.37
-0.36
-0.355
-0.35
-0.34
-0.335
-0.345
-0.34
-0.35
-0.35
-0.35
-0.345
-0.34
-0.345
-0.335
-0.33
-0.33
-0.325
-0.34
-0.325
-0.34
-0.34
-0.345
-0.355
-0.345
-0.33
-0.315
-0.315
-0.305
-0.29
-0.295
-0.3
-0.295
-0.285
-0.28
-0.285
-0.275
-0.265
-0.265
-0.245
-0.255
-0.25
-0.255
-0.265
-0.27
-0.285
-0.295
-0.295
-0.295
-0.3
-0.3
-0.3
-0.305
-0.305
-0.32
-0.32
-0.335
-0.34
-0.35
-0.345
-0.345
-0.34
-0.35
-0.35
-0.345
-0.355
-0.365
-0.365
-0.365
-0.365
-0.37
-0.38
-0.37
-0.37
-0.365
-0.36
-0.355
-0.355
-0.36
-0.37
-0.375
-0.385
-0.39
-0.39
-0.395
-0.385
-0.385
-0.385
-0.375
-0.375
-0.38
-0.385
-0.39
-0.395
-0.405
-0.415
-0.395
-0.4
-0.405
-0.38
-0.39
-0.39
-0.385
-0.39
-0.395
-0.405
-0.41
-0.415
-0.415
-0.4
-0.395
-0.4
-0.39
-0.41
-0.395
-0.415
-0.41
-0.425
-0.41
-0.415
-0.4
-0.4
-0.385
-0.375
-0.36
-0.355
-0.345
-0.35
-0.345
-0.36
-0.365
-0.355
-0.345
-0.33
-0.315
-0.3
-0.3
-0.31
-0.32
-0.34
-0.35
-0.37
-0.375
-0.38
-0.375
-0.37
-0.375
-0.375
-0.38
-0.38
-0.38
-0.395
-0.41
-0.435
-0.43
-0.425
-0.425
-0.415
-0.415
-0.405
-0.4
-0.4
-0.4
-0.405
-0.415
-0.415
-0.415
-0.415
-0.405
-0.4
-0.4
-0.405
-0.425
-0.445
-0.46
-0.445
-0.39
-0.3
-0.185
-0.03
0.145
0.35
0.53
0.675
0.715
0.61
0.405
0.11
-0.165
-0.38
-0.495
-0.5
-0.465
-0.385
-0.33
-0.305
-0.28
-0.285
-0.3
-0.32
-0.34
-0.355
-0.365
-0.37
-0.37
-0.36
-0.36
-0.36
-0.35
-0.355
-0.365
-0.365
-0.37
-0.375
-0.38
-0.38
-0.38
-0.375
-0.365
-0.355
-0.35
-0.355
-0.355
-0.365
-0.355
-0.37
-0.37
-0.38
-0.36
-0.365
-0.35
-0.345
-0.34
-0.345
-0.34
-0.35
-0.355
-0.355
-0.345
-0.355
-0.35
-0.33
-0.33
-0.32
-0.315
-0.315
-0.315
-0.32
-0.32
-0.33
-0.325
-0.335
-0.325
-0.31
-0.315
-0.295
-0.295
-0.29
-0.295
-0.295
-0.3
-0.3
-0.305
-0.31
-0.305
-0.295
-0.295
-0.285
-0.28
-0.275
-0.275
-0.285
-0.28
-0.28
-0.29
-0.295
-0.285
-0.285
-0.27
-0.265
-0.265
-0.265
-0.245
-0.245
-0.25
-0.255
-0.245
-0.245
-0.235
-0.225
-0.22
-0.21
-0.205
-0.2
-0.21
-0.225
-0.225
-0.235
-0.245
-0.255
-0.25
-0.245
-0.25
-0.25
-0.245
-0.265
-0.26
-0.275
-0.295
-0.3
-0.305
-0.31
-0.305
-0.305
-0.305
-0.3
-0.3
-0.29
-0.3
-0.305
-0.315
-0.325
-0.32
-0.335
-0.33
-0.325
-0.32
-0.315
-0.31
-0.315
-0.31
-0.32
-0.33
-0.345
-0.34
-0.345
-0.35
-0.335
-0.33
-0.33
-0.33
-0.325
-0.335
-0.33
-0.345
-0.35
-0.355
-0.36
-0.365
-0.355
-0.36
-0.34
-0.345
-0.345
-0.35
-0.35
-0.36
-0.365
-0.37
-0.375
-0.37
-0.365
-0.36
-0.37
-0.35
-0.36
-0.355
-0.365
-0.365
-0.37
-0.38
-0.375
-0.37
-0.375
-0.355
-0.355
-0.335
-0.32
-0.315
-0.32
-0.32
-0.32
-0.33
-0.325
-0.32
-0.3
-0.29
-0.265
-0.27
-0.265
-0.29
-0.315
-0.33
-0.345
-0.35
-0.35
-0.34
-0.345
-0.345
-0.35
-0.345
-0.35
-0.35
-0.365
-0.385
-0.4
-0.4
-0.42
-0.415
-0.415
-0.405
-0.4
-0.395
-0.39
-0.395
-0.39
-0.4
-0.405
-0.405
-0.405
-0.405
-0.395
-0.39
-0.39
-0.4
-0.415
-0.44
-0.435
-0.395
-0.33
-0.22
-0.07
0.1
0.31
0.51
0.685
0.76
0.705
0.51
0.22
-0.085
-0.32
-0.45
-0.5
-0.45
-0.365
-0.31
-0.27
-0.265
-0.265
-0.275
-0.3
-0.325
-0.35
-0.365
-0.365
-0.365
-0.355
-0.355
-0.345
-0.34
-0.34
-0.345
-0.36
-0.36
-0.36
-0.365
-0.37
-0.36
-0.36
-0.35
-0.35
-0.345
-0.355
-0.35
-0.345
-0.35
-0.34
-0.35
-0.35
-0.335
-0.335
-0.33
-0.325
-0.32
-0.32
-0.325
-0.33
-0.325
-0.325
-0.325
-0.33
-0.32
-0.315
-0.305
-0.305
-0.305
-0.29
-0.295
-0.3
-0.29
-0.31
-0.31
-0.315
-0.3
-0.3
-0.295
-0.285
-0.28
-0.285
-0.285
-0.28
-0.29
-0.295
-0.295
-0.3
-0.29
-0.295
-0.285
-0.275
-0.27
-0.275
-0.28
-0.28
-0.28
-0.295
-0.29
-0.295
-0.295
-0.29
-0.27
-0.265
-0.245
-0.24
-0.235
-0.235
-0.24
-0.245
-0.245
-0.245
-0.23
-0.225
-0.22
-0.205
-0.215
-0.21
-0.21
-0.235
-0.235
-0.25
-0.26
-0.26
-0.275
-0.265
-0.26
-0.265
-0.27
-0.275
-0.28
-0.295
-0.305
-0.32
-0.32
-0.33
-0.325
-0.32
-0.32
-0.315
-0.315
-0.315
-0.32
-0.325
-0.335
-0.34
-0.35
-0.35
-0.335
-0.34
-0.35
-0.34
-0.33
-0.33
-0.335
-0.345
-0.35
-0.36
-0.37
-0.37
-0.355
-0.35
-0.345
-0.34
-0.345
-0.34
-0.345
-0.355
-0.355
-0.365
-0.375
-0.365
-0.38
-0.36
-0.365
-0.35
-0.35
-0.35
-0.36
-0.365
-0.37
-0.385
-0.38
-0.38
-0.385
-0.375
-0.365
-0.36
-0.355
-0.35
-0.355
-0.355
-0.36
-0.375
-0.375
-0.37
-0.38
-0.37
-0.365
-0.355
-0.355
-0.35
-0.35
-0.35
-0.345
-0.35
-0.345
-0.34
-0.325
-0.325
-0.315
-0.315
-0.31
-0.305
-0.285
-0.275
-0.27
-0.285
-0.29
-0.295
-0.32
-0.335
-0.335
-0.34
-0.32
-0.32
-0.32
-0.335
-0.34
-0.35
-0.365
-0.37
-0.375
-0.38
-0.38
-0.385
-0.385
-0.375
-0.385
-0.385
-0.395
-0.405
-0.4
-0.405
-0.4
-0.4
-0.395
-0.38
-0.375
-0.375
-0.38
-0.385
-0.4
-0.425
-0.45
-0.46
-0.435
-0.365
-0.255
-0.1
0.075
0.28
0.485
0.665
0.755
0.69
0.495
0.2
-0.115
-0.345
-0.485
-0.505
-0.435
-0.365
-0.3
-0.265
-0.27
-0.285
-0.32
-0.325
-0.35
-0.355
-0.355
-0.35
-0.345
-0.35
-0.34
-0.35
-0.365
-0.365
-0.375
-0.38
-0.365
-0.365
-0.355
-0.355
-0.355
-0.355
-0.345
-0.355
-0.35
-0.365
-0.37
-0.365
-0.355
-0.355
-0.355
-0.34
-0.335
-0.33
-0.325
-0.33
-0.335
-0.325
-0.34
-0.335
-0.34
-0.335
-0.325
-0.32
-0.315
-0.315
-0.315
-0.315
-0.31
-0.325
-0.32
-0.32
-0.315
-0.31
-0.305
-0.305
-0.29
-0.28
-0.275
-0.275
-0.295
-0.295
-0.295
-0.3
-0.3
-0.295
-0.285
-0.275
-0.285
-0.275
-0.28
-0.275
-0.275
-0.29
-0.29
-0.28
-0.29
-0.29
-0.285
-0.27
-0.27
-0.255
-0.245
-0.24
-0.245
-0.25
-0.25
-0.245
-0.23
-0.22
-0.215
-0.2
-0.19
-0.195
-0.195
-0.21
-0.21
-0.225
-0.23
-0.24
-0.24
-0.245
-0.245
-0.24
-0.24
-0.245
-0.255
-0.26
-0.265
-0.28
-0.29
-0.305
-0.305
-0.31
-0.31
-0.305
-0.305
-0.305
-0.305
-0.31
-0.335
-0.34
-0.34
-0.35
-0.35
-0.34
-0.345
-0.325
-0.33
-0.325
-0.325
-0.325
-0.335
-0.34
-0.345
-0.365
-0.365
-0.35
-0.345
-0.34
-0.34
-0.33
-0.345
-0.35
-0.345
-0.355
-0.36
-0.36
-0.365
-0.36
-0.365
-0.355
-0.35
-0.355
-0.36
-0.355
-0.36
-0.365
-0.38
-0.38
-0.395
-0.375
-0.37
-0.36
-0.35
-0.35
-0.345
-0.355
-0.365
-0.375
-0.375
-0.385
-0.375
-0.365
-0.36
-0.355
-0.35
-0.35
-0.35
-0.37
-0.365
-0.375
-0.38
-0.37
-0.36
-0.35
-0.335
-0.315
-0.315
-0.305
-0.305
-0.32
-0.32
-0.325
-0.33
-0.325
-0.3
-0.285
-0.275
-0.27
-0.275
-0.29
-0.315
-0.32
-0.33
-0.34
-0.34
-0.33
-0.35
-0.335
-0.335
-0.34
-0.335
-0.335
-0.34
-0.36
-0.37
-0.39
-0.39
-0.41
-0.4
-0.4
-0.39
-0.385
-0.37
-0.375
-0.38
-0.385
-0.39
-0.39
-0.385
-0.39
-0.395
-0.38
-0.38
-0.365
-0.375
-0.385
-0.41
-0.43
-0.43
-0.415
-0.35
-0.255
-0.11
0.07
0.3
0.52
0.7
0.78
0.72
0.515
0.22
-0.09
-0.34
-0.495
-0.515
-0.455
-0.38
-0.305
-0.275
-0.275
-0.27
-0.285
-0.315
-0.33
-0.34
-0.35
-0.365
-0.365
-0.355
-0.35
-0.35
-0.345
-0.35
-0.365
-0.36
-0.375
-0.385
-0.375
-0.375
-0.365
-0.365
-0.36
-0.345
-0.35
-0.35
-0.35
-0.35
-0.355
-0.355
-0.36
-0.355
-0.34
-0.335
-0.32
-0.315
-0.32
-0.32
-0.32
-0.33
-0.325
-0.34
-0.33
-0.335
-0.33
-0.335
-0.32
-0.315
-0.305
-0.31
-0.315
-0.32
-0.325
-0.33
-0.33
-0.34
-0.32
-0.31
-0.31
-0.3
-0.29
-0.29
-0.29
-0.305
-0.305
-0.315
-0.315
-0.31
-0.3
-0.3
-0.29
-0.29
-0.295
-0.285
-0.275
-0.285
-0.295
-0.3
-0.29
-0.295
-0.29
-0.29
-0.28
-0.275
-0.265
-0.26
-0.255
-0.255
-0.255
-0.25
-0.245
-0.255
-0.235
-0.24
-0.23
-0.22
-0.225
-0.23
-0.235
-0.255
-0.27
-0.27
-0.29
-0.295
-0.285
-0.295
-0.295
-0.3
-0.305
-0.315
-0.32
-0.335
-0.345
-0.355
-0.365
-0.365
-0.355
-0.36
-0.355
-0.345
-0.345
-0.345
-0.345
-0.36
-0.38
-0.38
-0.38
-0.38
-0.37
-0.375
-0.37
-0.37
-0.37
-0.37
-0.37
-0.385
-0.39
-0.395
-0.395
-0.39
-0.39
-0.39
-0.38
-0.37
-0.38
-0.385
-0.37
-0.385
-0.39
-0.395
-0.4
-0.415
-0.4
-0.385
-0.385
-0.375
-0.375
-0.375
-0.38
-0.39
-0.4
-0.4
-0.405
-0.405
-0.41
-0.405
-0.395
-0.39
-0.395
-0.38
-0.385
-0.395
-0.41
-0.4
-0.415
-0.41
-0.4
-0.385
-0.375
-0.36
-0.35
-0.34
-0.36
-0.345
-0.37
-0.37
-0.37
-0.355
-0.34
-0.33
-0.31
-0.3
-0.305
-0.32
-0.335
-0.36
-0.36
-0.38
-0.38
-0.39
-0.37
-0.37
-0.36
-0.37
-0.37
-0.38
-0.385
-0.41
-0.42
-0.435
-0.435
-0.45
-0.445
-0.435
-0.43
-0.415
-0.42
-0.42
-0.415
-0.425
-0.425
-0.425
-0.445
-0.45
-0.44
-0.43
-0.41
-0.415
-0.42
-0.455
-0.47
-0.48
-0.455
-0.395
-0.305
-0.17
-0.015
0.19
0.39
0.575
0.715
0.74
0.63
0.39
0.1
-0.195
-0.405
-0.525
-0.545
-0.485
-0.42
-0.35
-0.32
-0.32
-0.325
-0.345
-0.35
-0.365
-0.38
-0.39
-0.4
-0.405
-0.4
-0.39
-0.4
-0.39
-0.4
-0.405
-0.395
-0.4
-0.405
-0.405
-0.405
-0.395
-0.39
-0.38
-0.375
-0.375
-0.38
-0.39
-0.4
-0.4
-0.395
-0.4
-0.39
-0.385
-0.385
-0.365
-0.36
-0.36
-0.36
-0.365
-0.37
-0.375
-0.38
-0.385
-0.385
-0.375
-0.37
-0.365
-0.355
-0.345
-0.35
-0.355
-0.365
-0.36
-0.365
-0.36
-0.355
-0.35
-0.34
-0.355
-0.345
-0.33
-0.335
-0.345
-0.345
-0.34
-0.35
-0.345
-0.33
-0.33
-0.32
-0.32
-0.32
-0.32
-0.33
-0.33
-0.34
-0.345
-0.34
-0.34
-0.33
-0.31
-0.315
-0.3
-0.295
-0.29
-0.29
-0.28
-0.29
-0.275
-0.28
-0.27
-0.255
-0.255
-0.25
-0.245
-0.24
-0.25
-0.26
-0.265
-0.275
-0.285
-0.305
-0.305
-0.31
-0.305
-0.31
-0.32
-0.325
-0.325
-0.34
-0.35
-0.36
-0.37
-0.37
-0.375
-0.375
-0.365
-0.375
-0.36
-0.37
-0.365
-0.375
-0.37
-0.395
-0.385
-0.39
-0.395
-0.385
-0.38
-0.38
-0.375
-0.365
-0.38
-0.37
-0.385
-0.385
-0.395
-0.39
-0.4
-0.4
-0.39
-0.38
-0.375
-0.37
-0.375
-0.38
-0.39
-0.39
-0.4
-0.415
-0.41
-0.4
-0.39
-0.385
-0.385
-0.38
-0.395
-0.39
-0.395
-0.405
-0.41
-0.41
-0.42
-0.405
-0.4
-0.395
-0.375
-0.37
-0.375
-0.38
-0.39
-0.39
-0.39
-0.395
-0.4
-0.395
-0.38
-0.38
-0.37
-0.36
-0.365
-0.36
-0.36
-0.355
-0.35
-0.345
-0.355
-0.35
-0.335
-0.33
-0.32
-0.305
-0.29
-0.285
-0.29
-0.31
-0.325
-0.34
-0.355
-0.365
-0.36
-0.35
-0.355
-0.36
-0.35
-0.365
-0.375
-0.37
-0.395
-0.405
-0.415
-0.42
-0.41
-0.41
-0.41
-0.405
-0.4
-0.4
-0.415
-0.405
-0.425
-0.425
-0.43
-0.42
-0.415
-0.41
-0.4
-0.4
-0.395
-0.415
-0.445
-0.475
-0.48
-0.44
-0.38
-0.265
-0.125
0.045
0.25
0.45
0.63
0.735
0.715
0.545
0.28
-0.04
-0.305
-0.475
-0.53
-0.495
-0.41
-0.345
-0.3
-0.285
-0.29
-0.31
-0.335
-0.365
-0.38
-0.385
-0.39
-0.38
-0.375
-0.38
-0.385
-0.395
-0.395
-0.39
-0.395
-0.4
-0.405
-0.395
-0.385
-0.375
-0.375
-0.37
-0.365
-0.375
-0.375
-0.38
-0.385
-0.39
-0.385
-0.375
-0.385
-0.365
-0.355
-0.345
-0.35
-0.345
-0.36
-0.37
-0.365
-0.36
-0.365
-0.36
-0.355
-0.345
-0.345
-0.33
-0.33
-0.34
-0.335
-0.35
-0.355
-0.345
-0.345
-0.335
-0.335
-0.32
-0.315
-0.315
-0.315
-0.31
-0.32
-0.33
-0.33
-0.33
-0.335
-0.33
-0.32
-0.32
-0.315
-0.305
-0.3
-0.3
-0.31
-0.31
-0.315
-0.32
-0.32
-0.325
-0.3
-0.3
-0.29
-0.275
-0.275
-0.27
-0.265
-0.28
-0.27
-0.265
-0.255
-0.255
-0.24
-0.245
-0.235
-0.23
-0.22
-0.215
-0.235
-0.245
-0.255
-0.265
-0.27
-0.265
-0.27
-0.275
-0.27
-0.275
-0.285
-0.295
-0.3
-0.315
-0.32
-0.33
-0.335
-0.34
-0.335
-0.33
-0.33
-0.33
-0.325
-0.33
-0.34
-0.345
-0.355
-0.365
-0.365
-0.365
-0.355
-0.355
-0.345
-0.34
-0.345
-0.355
-0.355
-0.36
-0.375
-0.37
-0.385
-0.38
-0.38
-0.36
-0.365
-0.365
-0.365
-0.365
-0.37
-0.375
-0.375
-0.385
-0.39
-0.38
-0.37
-0.37
-0.37
-0.36
-0.365
-0.365
-0.365
-0.375
-0.38
-0.39
-0.4
-0.39
-0.375
-0.375
-0.365
-0.36
-0.365
-0.365
-0.37
-0.38
-0.385
-0.385
-0.39
-0.39
-0.375
-0.375
-0.36
-0.35
-0.35
-0.335
-0.335
-0.34
-0.335
-0.325
-0.33
-0.33
-0.325
-0.315
-0.3
-0.295
-0.27
-0.27
-0.26
-0.27
-0.285
-0.31
-0.32
-0.325
-0.335
-0.335
-0.325
-0.33
-0.345
-0.355
-0.365
-0.37
-0.375
-0.375
-0.375
-0.39
-0.38
-0.385
-0.385
-0.385
-0.39
-0.39
-0.39
-0.4
-0.4
-0.405
-0.405
-0.405
-0.4
-0.4
-0.39
-0.375
-0.38
-0.38
-0.385
-0.39
-0.415
-0.45
-0.46
-0.45
-0.41
-0.34
-0.23
-0.105
0.06
0.235
0.425
0.6
0.71
0.73
0.59
0.36
0.085
-0.18
-0.37
-0.465
-0.475
-0.415
-0.35
-0.31
-0.295
-0.29
-0.305
-0.315
-0.32
-0.33
-0.34
-0.35
-0.35
-0.36
-0.36
-0.365
-0.375
-0.37
-0.38
-0.375
-0.37
-0.375
-0.36
-0.355
-0.35
-0.35
-0.355
-0.37
-0.375
-0.37
-0.38
-0.37
-0.37
-0.355
-0.355
-0.355
-0.345
-0.345
-0.345
-0.35
-0.36
-0.35
-0.355
-0.345
-0.345
-0.33
-0.33
-0.325
-0.325
-0.32
-0.33
-0.33
-0.34
-0.35
-0.345
-0.335
-0.33
-0.32
-0.32
-0.315
-0.31
-0.32
-0.32
-0.335
-0.335
-0.325
-0.33
-0.32
-0.32
-0.31
-0.3
-0.295
-0.295
-0.295
-0.305
-0.32
-0.32
-0.33
-0.325
-0.325
-0.32
-0.315
-0.305
-0.295
-0.29
-0.295
-0.29
-0.29
-0.295
-0.295
-0.295
-0.285
-0.265
-0.26
-0.245
-0.235
-0.24
-0.225
-0.225
-0.225
-0.225
-0.23
-0.235
-0.24
-0.225
-0.24
-0.225
-0.225
-0.23
-0.225
-0.235
-0.26
-0.27
-0.275
-0.295
-0.285
-0.295
-0.29
-0.29
-0.285
-0.29
-0.295
-0.305
-0.325
-0.33
-0.335
-0.345
-0.34
-0.33
-0.335
-0.335
-0.33
-0.33
-0.33
-0.335
-0.34
-0.355
-0.355
-0.36
-0.355
-0.35
-0.35
-0.345
-0.34
-0.34
-0.345
-0.35
-0.355
-0.36
-0.38
-0.38
-0.375
-0.375
-0.355
-0.355
-0.35
-0.35
-0.36
-0.36
-0.38
-0.38
-0.39
-0.39
-0.38
-0.38
-0.37
-0.37
-0.37
-0.365
-0.375
-0.38
-0.385
-0.395
-0.385
-0.39
-0.395
-0.385
-0.38
-0.38
-0.375
-0.375
-0.37
-0.38
-0.375
-0.395
-0.39
-0.39
-0.395
-0.395
-0.385
-0.38
-0.37
-0.375
-0.38
-0.38
-0.385
-0.385
-0.37
-0.37
-0.355
-0.345
-0.335
-0.325
-0.325
-0.32
-0.315
-0.33
-0.31
-0.31
-0.305
-0.295
-0.3
-0.305
-0.315
-0.325
-0.33
-0.325
-0.33
-0.34
-0.34
-0.365
-0.36
-0.37
-0.37
-0.36
-0.37
-0.36
-0.37
-0.375
-0.38
-0.405
-0.41
-0.41
-0.405
-0.415
-0.41
-0.4
-0.41
-0.39
-0.385
-0.39
-0.39
-0.39
-0.4
-0.4
-0.405
-0.415
-0.4
-0.405
-0.42
-0.425
-0.43
-0.435
-0.4
-0.34
-0.235
-0.115
0.04
0.225
0.42
0.62
0.73
0.735
0.575
0.305
0.0
-0.265
-0.445
-0.5
-0.47
-0.405
-0.335
-0.285
-0.275
-0.285
-0.285
-0.325
-0.335
-0.355
-0.365
-0.375
-0.37
-0.365
-0.37
-0.365
-0.36
-0.36
-0.355
-0.355
-0.36
-0.365
-0.375
-0.375
-0.385
-0.38
-0.375
-0.355
-0.365
-0.345
-0.34
-0.34
-0.34
-0.345
-0.365
-0.36
-0.35
-0.355
-0.345
-0.335
-0.34
-0.32
-0.33
-0.32
-0.32
-0.325
-0.34
-0.34
-0.33
-0.34
-0.33
-0.32
-0.315
-0.305
-0.305
-0.3
-0.295
-0.305
-0.305
-0.31
-0.315
-0.32
-0.315
-0.305
-0.3
-0.3
-0.285
-0.285
-0.285
-0.285
-0.3
-0.3
-0.305
-0.305
-0.3
-0.3
-0.285
-0.29
-0.28
-0.28
-0.27
-0.285
-0.295
-0.29
-0.285
-0.29
-0.285
-0.27
-0.26
-0.25
-0.24
-0.23
-0.22
-0.22
-0.22
-0.225
-0.22
-0.225
-0.225
-0.215
-0.215
-0.215
-0.21
-0.215
-0.225
-0.235
-0.245
-0.265
-0.265
-0.285
-0.28
-0.28
-0.28
-0.285
-0.29
-0.3
-0.31
-0.31
-0.32
-0.32
-0.33
-0.335
-0.34
-0.335
-0.33
-0.33
-0.32
-0.325
-0.325
-0.345
-0.35
-0.36
-0.36
-0.365
-0.36
-0.36
-0.35
-0.345
-0.345
-0.34
-0.355
-0.355
-0.365
-0.37
-0.37
-0.385
-0.37
-0.365
-0.36
-0.35
-0.355
-0.36
-0.36
-0.365
-0.38
-0.385
-0.39
-0.385
-0.385
-0.375
-0.375
-0.365
-0.37
-0.365
-0.37
-0.385
-0.395
-0.4
-0.405
-0.405
-0.405
-0.395
-0.39
-0.385
-0.375
-0.37
-0.38
-0.375
-0.38
-0.39
-0.395
-0.395
-0.395
-0.385
-0.375
-0.355
-0.35
-0.33
-0.33
-0.33
-0.325
-0.335
-0.335
-0.34
-0.32
-0.31
-0.29
-0.27
-0.265
-0.28
-0.29
-0.315
-0.335
-0.36
-0.355
-0.365
-0.355
-0.355
-0.35
-0.34
-0.35
-0.35
-0.35
-0.365
-0.38
-0.385
-0.4
-0.405
-0.41
-0.4
-0.39
-0.39
-0.375
-0.375
-0.375
-0.38
-0.385
-0.395
-0.4
-0.39
-0.395
-0.39
-0.38
-0.375
-0.365
-0.385
-0.41
-0.44
-0.445
-0.425
-0.365
-0.29
-0.15
0.015
0.19
0.38
0.555
0.695
0.75
0.655
0.465
0.195
-0.07
-0.295
-0.44
-0.48
-0.46
-0.39
-0.325
-0.285
-0.275
-0.285
-0.305
-0.325
-0.33
-0.345
-0.35
-0.36
-0.36
-0.36
-0.365
-0.36
-0.365
-0.365
-0.37
-0.38
-0.385
-0.395
-0.395
-0.39
-0.385
-0.37
-0.37
-0.365
-0.36
-0.36
-0.375
-0.38
-0.38
-0.37
-0.375
-0.37
-0.36
-0.355
-0.345
-0.345
-0.345
-0.35
-0.355
-0.36
-0.36
-0.36
-0.36
-0.355
-0.35
-0.35
-0.335
-0.335
-0.335
-0.335
-0.35
-0.35
-0.36
-0.35
-0.35
-0.345
-0.33
-0.32
-0.31
-0.315
-0.31
-0.32
-0.32
-0.325
-0.33
-0.33
-0.33
-0.32
-0.32
-0.315
-0.3
-0.305
-0.305
-0.31
-0.31
-0.32
-0.32
-0.32
-0.31
-0.3
-0.3
-0.275
-0.295
-0.285
-0.28
-0.275
-0.275
-0.275
-0.27
-0.265
-0.26
-0.245
-0.245
-0.23
-0.235
-0.23
-0.23
-0.245
-0.245
-0.25
-0.255
-0.27
-0.27
-0.27
-0.27
-0.28
-0.285
-0.29
-0.295
-0.3
-0.305
-0.32
-0.33
-0.345
-0.345
-0.34
-0.35
-0.345
-0.345
-0.34
-0.335
-0.35
-0.35
-0.37
-0.375
-0.37
-0.37
-0.375
-0.365
-0.355
-0.35
-0.355
-0.36
-0.365
-0.375
-0.385
-0.395
-0.395
-0.39
-0.39
-0.39
-0.38
-0.375
-0.375
-0.38
-0.38
-0.39
-0.41
-0.405
-0.415
-0.42
-0.41
-0.405
-0.395
-0.405
-0.4
-0.4
-0.4
-0.4
-0.425
-0.425
-0.405
-0.41
-0.405
-0.405
-0.4
-0.4
-0.4
-0.395
-0.405
-0.41
-0.415
-0.42
-0.425
-0.42
-0.41
-0.4
-0.39
-0.4
-0.395
-0.395
-0.4
-0.395
-0.385
-0.38
-0.375
-0.375
-0.365
-0.36
-0.35
-0.33
-0.32
-0.31
-0.315
-0.315
-0.33
-0.35
-0.36
-0.37
-0.37
-0.365
-0.355
-0.35
-0.355
-0.355
-0.37
-0.375
-0.395
-0.4
-0.405
-0.415
-0.405
-0.425
-0.415
-0.41
-0.41
-0.41
-0.415
-0.415
-0.43
-0.43
-0.425
-0.42
-0.41
-0.41
-0.405
-0.39
-0.405
-0.41
-0.42
-0.45
-0.47
-0.465
-0.43
-0.355
-0.245
-0.095
0.08
0.275
0.475
0.64
0.705
0.66
0.475
0.195
-0.105
-0.33
-0.485
-0.525
-0.48
-0.415
-0.355
-0.32
-0.32
-0.33
-0.345
-0.36
-0.375
-0.38
-0.39
-0.39
-0.395
-0.38
-0.385
-0.385
-0.39
-0.4
-0.41
-0.42
-0.41
-0.42
-0.415
-0.41
-0.405
-0.39
-0.39
-0.39
-0.39
-0.395
-0.41
-0.41
-0.41
-0.41
-0.41
-0.39
-0.385
-0.375
-0.37
-0.37
-0.37
-0.38
-0.385
-0.38
-0.385
-0.38
-0.38
-0.375
-0.365
-0.37
-0.36
-0.36
-0.36
-0.365
-0.37
-0.38
-0.375
-0.375
-0.36
-0.36
-0.35
-0.355
-0.35
-0.325
-0.34
-0.35
-0.355
-0.355
-0.365
-0.355
-0.36
-0.345
-0.33
-0.335
-0.325
-0.325
-0.335
-0.34
-0.345
-0.35
-0.35
-0.345
-0.34
-0.34
-0.325
-0.315
-0.31
-0.305
-0.305
-0.31
-0.31
-0.31
-0.305
-0.295
-0.285
-0.28
-0.28
-0.27
-0.255
-0.26
-0.275
-0.28
-0.285
-0.29
-0.305
-0.305
-0.31
-0.315
-0.32
-0.32
-0.33
-0.33
-0.34
-0.35
-0.355
-0.355
-0.375
-0.37
-0.37
-0.37
-0.365
-0.36
-0.36
-0.36
-0.38
-0.385
-0.41
-0.405
-0.41
-0.41
-0.415
-0.405
-0.395
-0.38
-0.39
-0.395
-0.4
-0.405
-0.415
-0.42
-0.42
-0.42
-0.41
-0.41
-0.405
-0.405
-0.41
-0.41
-0.415
-0.415
-0.42
-0.44
-0.44
-0.44
-0.44
-0.44
-0.44
-0.44
-0.425
-0.42
-0.43
-0.445
-0.44
-0.445
-0.455
-0.45
-0.445
-0.435
-0.435
-0.425
-0.425
-0.43
-0.435
-0.445
-0.45
-0.46
-0.465
-0.46
-0.455
-0.455
-0.435
-0.435
-0.435
-0.42
-0.415
-0.405
-0.41
