Lead II
-0.07
-0.095
-0.105
-0.13
-0.135
-0.17
-0.175
-0.175
-0.175
-0.17
-0.165
-0.155
-0.165
-0.17
-0.17
-0.17
-0.16
-0.135
-0.125
-0.1
-0.08
-0.08
-0.075
-0.08
-0.09
-0.095
-0.1
-0.105
-0.12
-0.13
-0.13
-0.13
-0.125
-0.125
-0.135
-0.14
-0.145
-0.145
-0.155
-0.155
-0.165
-0.17
-0.16
-0.155
-0.165
-0.155
-0.175
-0.17
-0.17
-0.17
-0.17
-0.175
-0.185
-0.18
-0.18
-0.185
-0.195
-0.19
-0.21
-0.2
-0.195
-0.225
-0.215
-0.22
-0.23
-0.22
-0.215
-0.215
-0.215
-0.21
-0.195
-0.19
-0.2
-0.2
-0.21
-0.225
-0.225
-0.23
-0.22
-0.22
-0.21
-0.215
-0.21
-0.21
-0.21
-0.235
-0.225
-0.225
-0.215
-0.21
-0.185
-0.19
-0.175
-0.17
-0.16
-0.135
-0.135
-0.115
-0.1
-0.08
-0.085
-0.07
-0.075
-0.04
-0.04
-0.03
-0.035
-0.025
-0.035
-0.045
-0.06
-0.07
-0.095
-0.095
-0.1
-0.105
-0.1
-0.1
-0.115
-0.12
-0.155
-0.165
-0.175
-0.17
-0.2
-0.21
-0.22
-0.225
-0.235
-0.25
-0.25
-0.245
-0.24
-0.25
-0.26
-0.265
-0.27
-0.255
-0.26
-0.25
-0.245
-0.245
-0.24
-0.245
-0.245
-0.245
-0.25
-0.25
-0.26
-0.25
-0.24
-0.24
-0.23
-0.215
-0.195
-0.195
-0.18
-0.16
-0.13
-0.06
0.055
0.195
0.385
0.625
0.85
1.09
1.305
1.475
1.555
1.54
1.39
1.115
0.72
0.23
-0.295
-0.8
-1.2
-1.405
-1.395
-1.23
-0.985
-0.72
-0.5
-0.355
-0.24
-0.185
-0.155
-0.14
-0.135
-0.135
-0.13
-0.13
-0.115
-0.12
-0.12
-0.125
-0.115
-0.1
-0.08
-0.07
-0.06
-0.05
-0.045
-0.045
-0.035
-0.04
-0.04
-0.04
-0.04
-0.03
-0.01
-0.01
0.005
0.025
0.035
0.04
0.055
0.065
0.065
0.07
0.08
0.075
0.1
0.115
0.13
0.155
0.17
0.18
0.19
0.21
0.21
0.22
0.235
0.24
0.25
0.275
0.305
0.32
0.34
0.36
0.38
0.39
0.395
0.395
0.4
0.4
0.405
0.425
0.435
0.425
0.445
0.45
0.44
0.42
0.41
0.405
0.395
0.39
0.415
0.405
0.405
0.395
0.37
0.345
0.32
0.29
0.28
0.25
0.23
0.195
0.185
0.165
0.13
0.09
0.06
0.035
0.005
-0.015
-0.025
-0.04
-0.06
-0.075
-0.085
-0.105
-0.095
-0.09
-0.09
-0.09
-0.085
-0.095
-0.1
-0.115
-0.115
-0.12
-0.125
-0.115
-0.125
-0.115
-0.095
-0.09
-0.105
-0.11
-0.12
-0.13
-0.13
-0.15
-0.14
-0.13
-0.13
-0.115
-0.105
-0.105
-0.105
-0.12
-0.125
-0.15
-0.155
-0.15
-0.16
-0.145
-0.155
-0.15
-0.155
-0.16
-0.175
-0.17
-0.19
-0.19
-0.21
-0.21
-0.21
-0.22
-0.21
-0.23
-0.225
-0.23
-0.225
-0.23
-0.23
-0.24
-0.24
-0.275
-0.27
-0.265
-0.26
-0.25
-0.245
-0.24
-0.235
-0.235
-0.235
-0.255
-0.25
-0.26
-0.255
-0.245
-0.225
-0.195
-0.185
-0.17
-0.175
-0.17
-0.17
-0.16
-0.145
-0.14
-0.13
-0.12
-0.1
-0.09
-0.08
-0.09
-0.1
-0.12
-0.13
-0.145
-0.165
-0.165
-0.16
-0.16
-0.18
-0.19
-0.195
-0.215
-0.215
-0.225
-0.23
-0.23
-0.25
-0.27
-0.285
-0.3
-0.31
-0.31
-0.31
-0.295
-0.3
-0.275
-0.27
-0.27
-0.26
-0.265
-0.245
-0.23
-0.205
-0.17
-0.15
-0.13
-0.12
-0.105
-0.095
-0.095
-0.075
-0.075
-0.045
-0.01
0.035
0.09
0.125
0.17
0.215
0.24
0.27
0.325
0.425
0.54
0.725
0.935
1.195
1.47
1.715
1.955
2.14
2.23
2.215
2.03
1.68
1.155
0.555
-0.085
-0.65
-1.035
-1.185
-1.15
-1.0
-0.81
-0.615
-0.47
-0.37
-0.31
-0.315
-0.305
-0.33
-0.355
-0.34
-0.355
-0.35
-0.33
-0.34
-0.345
-0.33
-0.345
-0.335
-0.325
-0.325
-0.32
-0.315
-0.3
-0.29
-0.285
-0.295
-0.295
-0.31
-0.305
-0.3
-0.3
-0.29
-0.275
-0.27
-0.25
-0.255
-0.245
-0.25
-0.255
-0.26
-0.25
-0.25
-0.24
-0.24
-0.215
-0.225
-0.22
-0.225
-0.23
-0.24
-0.25
-0.235
-0.23
-0.225
-0.24
-0.225
-0.22
-0.23
-0.23
-0.22
-0.225
-0.22
-0.235
-0.24
-0.245
-0.245
-0.24
-0.205
-0.18
-0.175
-0.17
-0.17
-0.18
-0.19
-0.195
-0.18
-0.175
-0.145
-0.09
-0.065
-0.055
-0.065
-0.085
-0.11
-0.115
-0.125
-0.14
-0.15
-0.17
-0.195
-0.205
-0.21
-0.225
-0.225
-0.25
-0.24
-0.255
-0.26
-0.275
-0.27
-0.265
-0.25
-0.22
-0.18
-0.155
-0.15
-0.17
-0.235
-0.29
-0.335
-0.335
-0.295
-0.245
-0.18
-0.125
-0.12
-0.135
-0.19
-0.235
-0.26
-0.23
-0.155
-0.07
0.03
0.115
0.12
0.055
-0.075
-0.23
-0.335
-0.36
-0.315
-0.245
-0.16
-0.13
-0.14
-0.2
-0.27
-0.305
-0.285
-0.21
-0.13
-0.1
-0.105
-0.175
-0.29
-0.37
-0.41
-0.4
-0.36
-0.335
-0.315
-0.32
-0.32
-0.32
-0.325
-0.31
-0.32
-0.31
-0.315
-0.32
-0.305
-0.295
-0.285
-0.275
-0.255
-0.235
-0.205
-0.195
-0.175
-0.16
-0.145
-0.14
-0.15
-0.16
-0.165
-0.16
-0.13
-0.13
-0.11
-0.1
-0.11
-0.13
-0.145
-0.165
-0.19
-0.195
-0.185
-0.17
-0.16
-0.15
-0.155
-0.15
-0.16
-0.17
-0.175
-0.175
-0.185
-0.18
-0.15
-0.135
-0.135
-0.175
-0.23
-0.315
-0.38
-0.425
-0.41
-0.36
-0.28
-0.235
-0.235
-0.255
-0.29
-0.3
-0.28
-0.225
-0.165
-0.115
-0.1
-0.085
-0.08
-0.055
0.01
0.095
0.205
0.295
0.35
0.345
0.325
0.285
0.265
0.285
0.345
0.44
0.575
0.77
1.025
1.33
1.645
1.915
2.105
2.2
2.145
1.9
1.48
0.94
0.305
-0.305
-0.79
-1.1
-1.175
-1.095
-0.91
-0.71
-0.53
-0.39
-0.265
-0.155
-0.075
-0.065
-0.13
-0.23
-0.36
-0.45
-0.47
-0.445
-0.4
-0.34
-0.29
-0.255
-0.25
-0.255
-0.28
-0.28
-0.285
-0.305
-0.315
-0.3
-0.295
-0.295
-0.29
-0.28
-0.275
-0.265
-0.26
-0.275
-0.29
-0.295
-0.31
-0.31
-0.32
-0.32
-0.32
-0.32
-0.315
-0.31
-0.295
-0.305
-0.295
-0.295
-0.295
-0.315
-0.325
-0.32
-0.335
-0.325
-0.305
-0.285
-0.275
-0.265
-0.255
-0.265
-0.275
-0.285
-0.27
-0.26
-0.24
-0.225
-0.215
-0.215
-0.22
-0.23
-0.23
-0.24
-0.22
-0.205
-0.185
-0.17
-0.17
-0.155
-0.155
-0.15
-0.145
-0.145
-0.15
-0.155
-0.155
-0.15
-0.165
-0.175
-0.195
-0.2
-0.22
-0.23
-0.22
-0.23
-0.235
-0.24
-0.255
-0.275
-0.29
-0.305
-0.315
-0.32
-0.31
-0.315
-0.3
-0.295
-0.29
-0.3
-0.31
-0.325
-0.325
-0.325
-0.33
-0.31
-0.29
-0.29
-0.275
-0.295
-0.3
-0.315
-0.33
-0.34
-0.34
-0.335
-0.35
-0.35
-0.35
-0.36
-0.35
-0.355
-0.345
-0.33
-0.33
-0.345
-0.36
-0.37
-0.385
-0.4
-0.395
-0.4
-0.365
-0.375
-0.39
-0.395
-0.4
-0.395
-0.405
-0.425
-0.435
-0.44
-0.425
-0.415
-0.395
-0.4
-0.39
-0.405
-0.415
-0.425
-0.41
-0.41
-0.395
-0.375
-0.36
-0.355
-0.34
-0.355
-0.335
-0.345
-0.35
-0.35
-0.34
-0.33
-0.315
-0.295
-0.285
-0.285
-0.275
-0.275
-0.3
-0.295
-0.305
-0.315
-0.325
-0.365
-0.385
-0.39
-0.41
-0.405
-0.415
-0.415
-0.44
-0.45
-0.455
-0.475
-0.495
-0.505
-0.525
-0.535
-0.535
-0.54
-0.52
-0.51
-0.525
-0.53
-0.525
-0.525
-0.52
-0.525
-0.52
-0.5
-0.47
-0.445
-0.42
-0.405
-0.39
-0.39
-0.385
-0.36
-0.355
-0.345
-0.31
-0.265
-0.225
-0.185
-0.14
-0.115
-0.08
-0.06
-0.015
0.045
0.12
0.24
0.4
0.62
0.855
1.12
1.41
1.68
1.915
2.065
2.085
1.945
1.63
1.145
0.55
-0.09
-0.73
-1.255
-1.515
-1.565
-1.42
-1.21
-0.98
-0.805
-0.68
-0.63
-0.615
-0.62
-0.65
-0.67
-0.65
-0.65
-0.64
-0.645
-0.64
-0.65
-0.66
-0.65
-0.655
-0.635
-0.63
-0.625
-0.615
-0.615
-0.615
-0.615
-0.625
-0.63
-0.645
-0.65
-0.665
-0.665
-0.66
-0.66
-0.64
-0.645
-0.645
-0.645
-0.65
-0.64
-0.65
-0.66
-0.67
-0.665
-0.66
-0.64
-0.63
-0.645
-0.625
-0.635
-0.64
-0.64
-0.645
-0.655
-0.645
-0.64
-0.635
-0.595
-0.585
-0.565
-0.555
-0.56
-0.55
-0.555
-0.565
-0.555
-0.555
-0.545
-0.53
-0.525
-0.505
-0.485
-0.485
-0.49
-0.495
-0.495
-0.495
-0.48
-0.48
-0.475
-0.465
-0.46
-0.445
-0.455
-0.465
-0.495
-0.505
-0.52
-0.535
-0.545
-0.575
-0.57
-0.585
-0.58
-0.585
-0.585
-0.585
-0.595
-0.62
-0.625
-0.64
-0.66
-0.66
-0.66
-0.655
-0.645
-0.63
-0.64
-0.62
-0.625
-0.645
-0.655
-0.665
-0.68
-0.675
-0.665
-0.65
-0.64
-0.635
-0.64
-0.645
-0.65
-0.665
-0.655
-0.655
-0.66
-0.66
-0.64
-0.635
-0.635
-0.63
-0.63
-0.645
-0.65
-0.66
-0.685
-0.69
-0.68
-0.67
-0.685
-0.685
-0.68
-0.68
-0.68
-0.68
-0.68
-0.695
-0.7
-0.71
-0.715
-0.7
-0.695
-0.67
-0.65
-0.64
-0.625
-0.625
-0.63
-0.635
-0.645
-0.65
-0.645
-0.645
-0.625
-0.61
-0.595
-0.585
-0.59
-0.605
-0.62
-0.635
-0.65
-0.67
-0.675
-0.68
-0.7
-0.705
-0.705
-0.7
-0.7
-0.715
-0.755
-0.785
-0.795
-0.835
-0.84
-0.855
-0.85
-0.84
-0.84
-0.83
-0.83
-0.815
-0.805
-0.805
-0.805
-0.81
-0.795
-0.785
-0.755
-0.73
-0.71
-0.69
-0.67
-0.665
-0.645
-0.63
-0.615
-0.6
-0.59
-0.545
-0.495
-0.465
-0.415
-0.37
-0.325
-0.27
-0.23
-0.135
0.01
0.195
0.425
0.705
1.0
1.305
1.575
1.76
1.84
1.79
1.565
1.18
0.68
0.075
-0.54
-1.13
-1.565
-1.8
-1.805
-1.64
-1.39
-1.16
-0.98
-0.875
-0.835
-0.835
-0.87
-0.9
-0.92
-0.925
-0.905
-0.905
-0.9
-0.885
-0.885
-0.89
-0.895
-0.89
-0.895
-0.905
-0.89
-0.89
-0.88
-0.87
-0.87
-0.87
-0.88
-0.88
-0.89
-0.89
-0.885
-0.885
-0.88
-0.875
-0.89
-0.88
-0.865
-0.87
-0.855
-0.85
-0.86
-0.855
-0.865
-0.885
-0.87
-0.865
-0.87
-0.845
-0.835
-0.825
-0.83
-0.84
-0.84
-0.845
-0.835
-0.825
-0.81
-0.78
-0.775
-0.75
-0.735
-0.72
-0.715
-0.725
-0.715
-0.705
-0.69
-0.685
-0.66
-0.64
-0.635
-0.62
-0.61
-0.59
-0.59
-0.585
-0.58
-0.57
-0.58
-0.565
-0.555
-0.56
-0.57
-0.57
-0.575
-0.585
-0.59
-0.605
-0.625
-0.62
-0.64
-0.665
-0.685
-0.68
-0.69
-0.685
-0.695
-0.69
-0.68
-0.685
-0.695
-0.71
-0.705
-0.72
-0.715
-0.715
-0.7
-0.705
-0.695
-0.695
-0.705
-0.695
-0.69
-0.695
-0.685
-0.69
-0.685
-0.68
-0.66
-0.66
-0.66
-0.65
-0.645
-0.655
-0.67
-0.66
-0.655
-0.655
-0.66
-0.645
-0.645
-0.655
-0.66
-0.67
-0.65
-0.655
-0.65
-0.64
-0.655
-0.65
-0.655
-0.65
-0.655
-0.65
-0.65
-0.65
-0.655
-0.66
-0.67
-0.675
-0.675
-0.68
-0.68
-0.68
-0.67
-0.655
-0.635
-0.625
-0.62
-0.615
-0.63
-0.625
-0.615
-0.605
-0.59
-0.59
-0.575
-0.59
-0.565
-0.555
-0.54
-0.545
-0.535
-0.535
-0.53
-0.545
-0.535
-0.545
-0.565
-0.6
-0.615
-0.63
-0.625
-0.635
-0.645
-0.645
-0.675
-0.7
-0.715
-0.72
-0.73
-0.735
-0.745
-0.75
-0.76
-0.79
-0.82
-0.83
-0.835
-0.835
-0.825
-0.815
-0.81
-0.78
-0.78
-0.765
-0.77
-0.765
-0.775
-0.785
-0.785
-0.77
-0.77
-0.755
-0.73
-0.715
-0.71
-0.71
-0.7
-0.705
-0.705
-0.695
-0.7
-0.675
-0.64
-0.58
-0.5
-0.38
-0.21
-0.005
0.235
0.495
0.77
0.99
1.145
1.18
1.1
0.87
0.505
0.03
-0.52
-1.11
-1.665
-2.055
-2.155
-2.0
-1.655
-1.275
-0.945
-0.705
-0.545
-0.46
-0.445
-0.46
-0.48
-0.505
-0.52
-0.51
-0.51
-0.49
-0.47
-0.46
-0.445
-0.42
-0.4
-0.39
-0.385
-0.38
-0.385
-0.385
-0.375
-0.36
-0.355
-0.335
-0.315
-0.305
-0.295
-0.27
-0.255
-0.245
-0.23
-0.22
-0.205
-0.2
-0.18
-0.18
-0.145
-0.11
-0.095
-0.07
-0.035
-0.025
-0.015
-0.015
0.02
0.04
0.07
0.09
0.125
0.15
0.175
0.215
0.23
0.255
0.26
0.26
0.275
0.285
0.315
0.34
0.36
0.39
0.405
0.415
0.41
0.415
0.405
0.375
0.38
0.365
0.365
0.37
0.37
0.365
0.375
0.365
0.34
0.3
0.26
0.22
0.19
0.135
0.09
0.05
0.015
-0.02
-0.04
-0.07
-0.09
-0.12
-0.15
-0.175
-0.19
-0.205
-0.22
-0.2
-0.215
-0.195
-0.19
-0.2
-0.195
-0.21
-0.21
-0.225
-0.22
-0.22
-0.23
-0.23
-0.22
-0.215
-0.205
-0.205
-0.2
-0.21
-0.22
-0.225
-0.235
-0.23
-0.24
-0.24
-0.235
-0.25
-0.24
-0.235
-0.235
-0.235
-0.24
-0.25
-0.245
-0.275
-0.27
-0.265
-0.25
-0.25
-0.24
-0.235
-0.23
-0.24
-0.255
-0.26
-0.275
-0.29
-0.305
-0.3
-0.315
-0.3
-0.295
-0.29
-0.295
-0.3
-0.305
-0.315
-0.32
-0.315
-0.31
-0.295
-0.275
-0.255
-0.24
-0.205
-0.22
-0.215
-0.22
-0.225
-0.225
-0.23
-0.24
-0.24
-0.25
-0.25
-0.265
-0.285
-0.295
-0.295
-0.3
-0.295
-0.305
-0.295
-0.305
-0.32
-0.33
-0.34
-0.355
-0.35
-0.365
-0.37
-0.395
-0.39
-0.425
-0.44
-0.43
-0.44
-0.42
-0.415
-0.41
-0.4
-0.4
-0.405
-0.405
-0.395
-0.385
-0.38
-0.37
-0.38
-0.38
-0.385
-0.385
-0.38
-0.375
-0.375
-0.37
-0.39
-0.405
-0.405
-0.41
-0.4
-0.38
-0.37
-0.345
-0.325
-0.315
-0.285
-0.22
-0.105
0.045
0.23
0.46
0.705
0.965
1.19
1.37
1.46
1.435
1.245
0.91
0.44
-0.13
-0.73
-1.245
-1.59
-1.685
-1.54
-1.26
-0.96
-0.695
-0.465
-0.325
-0.255
-0.22
-0.22
-0.25
-0.245
-0.25
-0.245
-0.22
-0.205
-0.2
-0.195
-0.19
-0.19
-0.195
-0.19
-0.19
-0.175
-0.165
-0.165
-0.15
-0.145
-0.125
-0.145
-0.15
-0.155
-0.17
-0.16
-0.15
-0.14
-0.13
-0.115
-0.105
-0.09
-0.08
-0.07
-0.075
-0.065
-0.07
-0.05
-0.05
-0.04
-0.01
0.0
0.025
0.045
0.06
0.075
0.085
0.1
0.12
0.135
0.16
0.17
0.195
0.205
0.21
0.24
0.24
0.27
0.27
0.285
0.28
0.275
0.275
0.275
0.28
0.28
0.295
0.285
0.295
0.29
0.285
0.27
0.255
0.25
0.245
0.24
0.235
0.215
0.2
0.16
0.12
0.08
0.035
0.005
-0.045
-0.06
-0.09
-0.115
-0.13
-0.15
-0.165
-0.165
-0.18
-0.18
-0.185
-0.19
-0.19
-0.175
-0.18
-0.17
-0.165
-0.155
-0.15
-0.145
-0.145
-0.15
-0.15
-0.145
-0.15
-0.15
-0.15
-0.14
-0.15
-0.13
-0.125
-0.125
-0.12
-0.135
-0.15
-0.145
-0.145
-0.155
-0.165
-0.175
-0.185
-0.185
-0.175
-0.175
-0.19
-0.2
-0.205
-0.225
-0.22
-0.22
-0.23
-0.23
-0.225
-0.23
-0.225
-0.22
-0.225
-0.235
-0.235
-0.245
-0.255
-0.25
-0.265
-0.275
-0.275
-0.285
-0.255
-0.245
-0.235
-0.225
-0.225
-0.23
-0.23
-0.235
-0.235
-0.215
-0.2
-0.215
-0.185
-0.165
-0.16
-0.155
-0.145
-0.145
-0.165
-0.165
-0.185
-0.185
-0.175
-0.18
-0.185
-0.205
-0.205
-0.215
-0.235
-0.25
-0.26
-0.28
-0.295
-0.305
-0.325
-0.34
-0.35
-0.345
-0.34
-0.345
-0.37
-0.355
-0.355
-0.36
-0.37
-0.35
-0.355
-0.35
-0.345
-0.33
-0.335
-0.345
-0.345
-0.365
-0.39
-0.385
-0.405
-0.395
-0.385
-0.37
-0.355
-0.355
-0.345
-0.34
-0.34
-0.335
-0.34
-0.33
-0.295
-0.25
-0.16
-0.02
0.155
0.38
0.635
0.92
1.18
1.385
1.5
1.48
1.33
1.0
0.505
-0.075
-0.685
-1.255
-1.63
-1.79
-1.695
-1.42
-1.115
-0.825
-0.595
-0.41
-0.285
-0.235
-0.215
-0.23
-0.245
-0.26
-0.275
-0.28
-0.28
-0.27
-0.255
-0.24
-0.225
-0.22
-0.2
-0.2
-0.195
-0.2
-0.2
-0.2
-0.22
-0.21
-0.2
-0.17
-0.155
-0.135
-0.13
-0.13
-0.12
-0.105
-0.1
-0.09
-0.085
-0.09
-0.06
-0.05
-0.035
-0.01
0.0
0.025
0.045
0.05
0.05
0.06
0.075
0.08
0.11
0.135
0.16
0.19
0.22
0.235
0.26
0.275
0.27
0.28
0.295
0.295
0.305
0.33
0.34
0.345
0.36
0.36
0.355
0.345
0.335
0.34
0.315
0.325
0.34
0.345
0.35
0.36
0.34
0.325
0.32
0.295
0.28
0.25
0.225
0.2
0.175
0.155
0.125
0.1
0.075
0.05
0.025
0.0
-0.03
-0.05
-0.075
-0.095
-0.105
-0.105
-0.12
-0.12
-0.12
-0.12
-0.125
-0.135
-0.145
-0.155
-0.17
-0.17
-0.185
-0.195
-0.18
-0.175
-0.175
-0.165
-0.15
-0.155
-0.165
-0.175
-0.19
-0.19
-0.19
-0.18
-0.175
-0.18
-0.18
-0.175
-0.175
-0.19
-0.195
-0.2
-0.2
-0.205
-0.21
-0.22
-0.215
-0.23
-0.22
-0.225
-0.235
-0.235
-0.24
-0.225
-0.235
-0.24
-0.255
-0.26
-0.27
-0.28
-0.275
-0.275
-0.265
-0.26
-0.27
-0.275
-0.285
-0.295
-0.295
-0.295
-0.28
-0.275
-0.25
-0.23
-0.21
-0.215
-0.21
-0.205
-0.22
-0.22
-0.215
-0.21
-0.195
-0.19
-0.16
-0.145
-0.13
-0.135
-0.14
-0.155
-0.17
-0.18
-0.195
-0.2
-0.2
-0.215
-0.22
-0.24
-0.245
-0.26
-0.29
-0.315
-0.32
-0.33
-0.355
-0.35
-0.35
-0.36
-0.375
-0.375
-0.38
-0.385
-0.405
-0.385
-0.385
-0.38
-0.385
-0.38
-0.38
-0.38
-0.37
-0.365
-0.355
-0.35
-0.36
-0.37
-0.37
-0.38
-0.38
-0.365
-0.355
-0.355
-0.34
-0.33
-0.31
-0.3
-0.295
-0.28
-0.245
-0.175
-0.08
0.06
0.25
0.49
0.735
0.98
1.19
1.345
1.405
1.34
1.14
0.81
0.36
-0.15
-0.705
-1.185
-1.515
-1.645
-1.555
-1.335
-1.06
-0.8
-0.595
-0.45
-0.35
-0.29
-0.26
-0.245
-0.255
-0.24
-0.245
-0.23
-0.23
-0.23
-0.23
-0.23
-0.235
-0.225
-0.22
-0.21
-0.21
-0.185
-0.185
-0.195
-0.195
-0.195
-0.175
-0.19
-0.18
-0.145
-0.135
-0.12
-0.105
-0.1
-0.08
-0.08
-0.075
-0.07
-0.06
-0.035
-0.03
-0.02
0.005
0.015
0.05
0.065
0.075
0.09
0.105
0.13
0.145
0.155
0.17
0.175
0.205
0.22
0.245
0.245
0.275
0.285
0.295
0.285
0.28
0.28
0.275
0.27
0.28
0.26
0.255
0.26
0.255
0.25
0.24
0.225
0.21
0.215
0.205
0.205
0.2
0.205
0.19
0.17
0.15
0.13
0.095
0.06
0.035
0.02
-0.005
-0.035
-0.045
-0.06
-0.075
-0.09
-0.11
-0.12
-0.145
-0.145
-0.165
-0.175
-0.185
-0.175
-0.18
-0.18
-0.18
-0.18
-0.175
-0.18
-0.165
-0.175
-0.18
-0.175
-0.17
-0.18
-0.17
-0.15
-0.15
-0.125
-0.125
-0.12
-0.13
-0.135
-0.14
-0.145
-0.155
-0.145
-0.135
-0.13
-0.12
-0.12
-0.125
-0.13
-0.145
-0.145
-0.17
-0.165
-0.18
-0.185
-0.16
-0.16
-0.16
-0.165
-0.17
-0.185
-0.185
-0.2
-0.2
-0.22
-0.23
-0.235
-0.235
-0.24
-0.23
-0.23
-0.235
-0.235
-0.235
-0.24
-0.245
-0.245
-0.25
-0.235
-0.225
-0.205
-0.18
-0.17
-0.165
-0.155
-0.16
-0.15
-0.14
-0.125
-0.115
-0.115
-0.1
-0.09
-0.07
-0.085
-0.085
-0.1
-0.105
-0.115
-0.135
-0.155
-0.16
-0.17
-0.185
-0.195
-0.2
-0.22
-0.225
-0.245
-0.255
-0.285
-0.29
-0.32
-0.315
-0.32
-0.32
-0.315
-0.31
-0.32
-0.31
-0.295
-0.29
-0.28
-0.265
-0.245
-0.24
-0.205
-0.2
-0.17
-0.15
-0.13
-0.095
-0.075
-0.06
-0.03
-0.02
0.01
0.04
0.065
0.105
0.145
0.22
0.295
0.365
0.475
0.585
0.72
0.88
1.055
1.265
1.465
1.645
1.78
1.84
1.785
1.635
1.335
0.925
0.435
-0.07
-0.525
-0.83
-0.955
-0.93
-0.81
-0.635
-0.46
-0.33
-0.26
-0.225
-0.24
-0.26
-0.285
-0.3
-0.305
-0.3
-0.285
-0.28
-0.27
-0.26
-0.275
-0.27
-0.265
-0.27
-0.275
-0.3
-0.295
-0.3
-0.3
-0.3
-0.28
-0.275
-0.285
-0.28
-0.29
-0.295
-0.3
-0.31
-0.31
-0.3
-0.295
-0.27
-0.27
-0.265
-0.265
-0.28
-0.275
-0.285
-0.295
-0.285
-0.28
-0.265
-0.265
-0.25
-0.245
-0.22
-0.22
-0.225
-0.22
-0.23
-0.23
-0.22
-0.205
-0.19
-0.175
-0.165
-0.15
-0.14
-0.14
-0.14
-0.135
-0.135
-0.13
-0.12
-0.11
-0.09
-0.07
-0.065
-0.06
-0.05
-0.045
-0.03
-0.03
-0.04
-0.03
-0.035
-0.02
-0.03
-0.025
-0.025
-0.02
-0.03
-0.035
-0.045
-0.065
-0.09
-0.095
-0.105
-0.125
-0.135
-0.13
-0.14
-0.14
-0.135
-0.145
-0.155
-0.165
-0.165
-0.17
-0.185
-0.185
-0.175
-0.17
-0.165
-0.165
-0.165
-0.17
-0.165
-0.175
-0.18
-0.18
-0.18
-0.19
-0.155
-0.17
-0.16
-0.15
-0.145
-0.145
-0.16
-0.16
-0.155
-0.155
-0.155
-0.155
-0.15
-0.145
-0.145
-0.15
-0.14
-0.14
-0.15
-0.15
-0.15
-0.165
-0.155
-0.155
-0.15
-0.15
-0.14
-0.135
-0.13
-0.13
-0.14
-0.15
-0.165
-0.165
-0.175
-0.18
-0.17
-0.15
-0.14
-0.135
-0.125
-0.105
-0.105
-0.11
-0.12
-0.11
-0.115
-0.115
-0.105
-0.09
-0.085
-0.065
-0.065
-0.05
-0.045
-0.045
-0.065
-0.08
-0.09
-0.12
-0.12
-0.115
-0.125
-0.12
-0.125
-0.135
-0.145
-0.18
-0.2
-0.225
-0.24
-0.25
-0.26
-0.265
-0.27
-0.27
-0.28
-0.285
-0.27
-0.26
-0.275
-0.26
-0.26
-0.24
-0.235
-0.205
-0.185
-0.17
-0.16
-0.125
-0.13
-0.11
-0.1
-0.065
-0.05
-0.01
0.02
0.05
0.085
0.13
0.16
0.215
0.235
0.295
0.345
0.45
0.565
0.715
0.895
1.1
1.31
1.52
1.715
1.85
1.9
1.855
1.67
1.38
0.96
0.485
-0.02
-0.45
-0.755
-0.89
-0.88
-0.77
-0.605
-0.47
-0.35
-0.285
-0.255
-0.255
-0.265
-0.275
-0.285
-0.28
-0.275
-0.27
-0.285
-0.29
-0.285
-0.3
-0.28
-0.275
-0.265
-0.26
-0.27
-0.26
-0.265
-0.28
-0.265
-0.27
-0.27
-0.265
-0.265
-0.265
-0.25
-0.255
-0.245
-0.24
-0.245
-0.245
-0.24
-0.24
-0.24
-0.25
-0.27
-0.265
-0.255
-0.25
-0.26
-0.245
-0.23
-0.23
-0.235
-0.235
-0.245
-0.245
-0.245
-0.24
-0.23
-0.215
-0.205
-0.19
-0.18
-0.18
-0.175
-0.175
-0.175
-0.165
-0.175
-0.165
-0.14
-0.13
-0.125
-0.12
-0.105
-0.1
-0.1
-0.085
-0.085
-0.07
-0.055
-0.05
-0.045
-0.05
-0.04
-0.025
-0.035
-0.025
-0.045
-0.055
-0.075
-0.09
-0.09
-0.1
-0.11
-0.115
-0.115
-0.11
-0.13
-0.13
-0.13
-0.145
-0.15
-0.165
-0.17
-0.17
-0.18
-0.17
-0.16
-0.16
-0.165
-0.15
-0.145
-0.155
-0.17
-0.16
-0.16
-0.155
-0.15
-0.145
-0.135
-0.13
-0.135
-0.14
-0.135
-0.16
-0.165
-0.16
-0.17
-0.165
-0.16
-0.155
-0.155
-0.15
-0.15
-0.145
-0.155
-0.155
-0.16
-0.16
-0.16
-0.175
-0.165
-0.17
-0.155
-0.17
-0.16
-0.16
-0.165
-0.175
-0.17
-0.185
-0.19
-0.185
-0.19
-0.19
-0.17
-0.18
-0.18
-0.165
-0.16
-0.155
-0.155
-0.145
-0.145
-0.14
-0.135
-0.105
-0.09
-0.085
-0.075
-0.075
-0.08
-0.08
-0.08
-0.07
-0.07
-0.065
-0.055
-0.06
-0.055
-0.065
-0.085
-0.085
-0.105
-0.115
-0.13
-0.135
-0.155
-0.16
-0.185
-0.185
-0.195
-0.195
-0.215
-0.2
-0.23
-0.245
-0.26
-0.25
-0.265
-0.26
-0.255
-0.245
-0.235
-0.23
-0.215
-0.2
-0.195
-0.185
-0.175
-0.17
-0.165
-0.16
-0.13
-0.11
-0.07
-0.05
-0.035
-0.01
0.015
0.045
0.08
0.105
0.15
0.185
0.245
0.3
0.365
0.475
0.59
0.735
0.88
1.06
1.24
1.42
1.575
1.685
1.735
1.68
1.515
1.22
0.855
0.45
0.015
-0.375
-0.645
-0.78
-0.8
-0.73
-0.61
-0.495
-0.385
-0.325
-0.285
-0.27
-0.275
-0.305
-0.31
-0.31
-0.315
-0.315
-0.305
-0.295
-0.285
-0.29
-0.285
-0.29
-0.295
-0.295
-0.305
-0.315
-0.32
-0.325
-0.33
-0.325
-0.33
-0.325
-0.32
-0.31
-0.315
-0.32
-0.32
-0.325
-0.33
-0.34
-0.335
-0.33
-0.325
-0.31
-0.315
-0.3
-0.31
-0.315
-0.33
-0.33
-0.335
-0.34
-0.33
-0.32
-0.32
-0.3
-0.3
-0.29
-0.29
-0.295
-0.29
-0.295
-0.295
-0.295
-0.275
-0.27
-0.265
-0.255
-0.25
-0.245
-0.235
-0.225
-0.23
-0.235
-0.23
-0.225
-0.21
-0.2
-0.19
-0.175
-0.165
-0.15
-0.145
-0.16
-0.15
-0.15
-0.165
-0.165
-0.16
-0.18
-0.18
-0.18
-0.195
-0.205
-0.21
-0.235
-0.245
-0.26
-0.28
-0.27
-0.27
-0.27
-0.27
-0.245
-0.25
-0.245
-0.25
-0.245
-0.24
-0.25
-0.255
-0.25
-0.245
-0.235
-0.235
-0.21
-0.215
-0.21
-0.21
-0.21
-0.21
-0.215
-0.21
-0.205
-0.205
-0.205
-0.205
-0.195
-0.185
-0.195
-0.205
-0.205
-0.22
-0.205
-0.205
-0.21
-0.21
-0.2
-0.19
-0.18
-0.18
-0.185
-0.19
-0.205
-0.22
-0.23
-0.235
-0.255
-0.255
-0.24
-0.25
-0.24
-0.25
-0.255
-0.26
-0.265
-0.265
-0.275
-0.28
-0.28
-0.275
-0.26
-0.255
-0.24
-0.225
-0.215
-0.21
-0.205
-0.19
-0.19
-0.205
-0.205
-0.2
-0.185
-0.18
-0.16
-0.125
-0.12
-0.11
-0.115
-0.125
-0.16
-0.17
-0.195
-0.195
-0.2
-0.185
-0.185
-0.185
-0.205
-0.23
-0.265
-0.285
-0.3
-0.32
-0.335
-0.33
-0.335
-0.355
-0.355
-0.36
-0.345
-0.35
-0.34
-0.345
-0.35
-0.345
-0.34
-0.32
-0.32
-0.32
-0.31
-0.315
-0.305
-0.3
-0.295
-0.315
-0.31
-0.305
-0.305
-0.305
-0.28
-0.275
-0.26
-0.24
-0.22
-0.2
-0.155
-0.105
-0.02
0.1
0.26
0.47
0.695
0.935
1.14
1.29
1.355
1.305
1.12
0.835
0.445
-0.02
-0.505
-0.93
-1.23
-1.345
-1.29
-1.105
-0.89
-0.64
-0.445
-0.305
-0.235
-0.2
-0.21
-0.22
-0.215
-0.22
-0.195
-0.185
-0.165
-0.155
-0.145
-0.14
-0.14
-0.14
-0.135
-0.15
-0.145
-0.135
-0.1
-0.1
-0.08
-0.08
-0.07
-0.08
-0.08
-0.08
-0.075
-0.065
-0.05
-0.045
-0.02
0.0
0.015
0.02
0.02
0.03
0.035
0.05
0.06
0.075
0.095
0.12
0.125
0.145
0.17
0.175
0.185
0.19
0.2
0.22
0.23
0.24
0.27
0.27
0.29
0.295
0.315
0.305
0.31
0.31
0.305
0.32
0.315
0.32
0.305
0.32
0.315
0.31
0.32
0.315
0.31
0.295
0.285
0.27
0.275
0.265
0.255
0.255
0.245
0.235
0.23
0.2
0.155
0.11
0.095
0.06
0.045
0.035
0.015
0.015
0.005
0.005
-0.01
-0.025
-0.04
-0.055
-0.055
-0.06
-0.055
-0.06
-0.05
-0.055
-0.045
-0.04
-0.05
-0.06
-0.055
-0.06
-0.065
-0.06
-0.07
-0.065
-0.065
-0.065
-0.055
-0.065
-0.06
-0.06
-0.07
-0.07
-0.08
-0.085
-0.1
-0.1
-0.1
-0.11
-0.1
-0.095
-0.095
-0.1
-0.105
-0.115
-0.125
-0.125
-0.14
-0.15
-0.14
-0.15
-0.14
-0.135
-0.14
-0.15
-0.17
-0.18
-0.195
-0.205
-0.2
-0.195
-0.195
-0.185
-0.19
-0.175
-0.185
-0.19
-0.195
-0.195
-0.19
-0.2
-0.19
-0.175
-0.16
-0.14
-0.125
-0.115
-0.1
-0.085
-0.095
-0.08
-0.09
-0.075
-0.08
-0.07
-0.05
-0.03
-0.025
-0.03
-0.035
-0.05
-0.07
-0.085
-0.1
-0.105
-0.125
-0.135
-0.15
-0.145
-0.16
-0.17
-0.18
-0.18
-0.2
-0.225
-0.26
-0.285
-0.295
-0.285
-0.285
-0.27
-0.27
-0.26
-0.255
-0.265
-0.28
-0.285
-0.29
-0.29
-0.29
-0.285
-0.28
-0.27
-0.27
-0.26
-0.265
-0.245
-0.245
-0.24
-0.23
-0.235
-0.22
-0.215
-0.185
-0.17
-0.145
-0.105
-0.025
0.075
0.22
0.37
0.575
0.765
0.965
1.12
1.23
1.275
1.22
1.05
0.78
0.415
-0.01
-0.46
-0.87
-1.2
-1.37
-1.36
-1.2
-0.96
-0.71
-0.485
-0.32
-0.23
-0.18
-0.17
-0.185
-0.215
-0.215
-0.195
-0.175
-0.155
-0.14
-0.12
-0.115
-0.11
-0.11
-0.12
-0.11
-0.1
-0.105
-0.09
-0.085
-0.065
-0.06
-0.045
-0.055
-0.065
-0.04
-0.035
-0.03
-0.01
-0.02
-0.01
0.0
0.01
0.025
0.05
0.06
0.07
0.085
0.09
0.09
0.095
0.105
0.11
0.125
0.145
0.17
0.19
0.2
0.21
0.215
0.23
0.23
0.235
0.24
0.25
0.27
0.265
0.275
0.295
0.29
0.295
0.285
0.285
0.285
0.285
0.285
0.29
0.29
0.29
0.295
0.29
0.29
0.28
0.27
0.27
0.275
0.255
0.255
0.245
0.225
0.22
0.21
0.19
0.165
0.17
0.145
0.125
0.095
0.075
0.055
0.035
0.02
0.015
-0.005
0.005
0.0
-0.01
-0.01
-0.03
-0.045
-0.05
-0.065
-0.065
-0.07
-0.06
-0.055
-0.065
-0.05
-0.055
-0.085
-0.075
-0.085
-0.085
-0.085
-0.1
-0.09
-0.075
-0.08
-0.08
-0.08
-0.085
-0.105
-0.1
-0.105
-0.105
-0.11
-0.11
-0.12
-0.1
-0.105
-0.105
-0.105
-0.125
-0.125
-0.13
-0.14
-0.125
-0.145
-0.15
-0.15
-0.15
-0.15
-0.155
-0.165
-0.175
-0.19
-0.2
-0.205
-0.21
-0.205
-0.19
-0.18
-0.18
-0.19
-0.19
-0.195
-0.195
-0.2
-0.195
-0.19
-0.2
-0.2
-0.2
-0.205
-0.205
-0.21
-0.22
-0.205
-0.195
-0.215
-0.225
-0.225
-0.23
-0.22
-0.205
-0.175
-0.145
-0.11
-0.08
-0.05
-0.06
-0.065
-0.08
-0.09
-0.085
-0.07
-0.06
-0.045
-0.02
