Lead II
-0.45
-0.46
-0.475
-0.475
-0.465
-0.47
-0.455
-0.435
-0.455
-0.45
-0.44
-0.43
-0.415
-0.43
-0.42
-0.425
-0.445
-0.455
-0.45
-0.435
-0.435
-0.425
-0.425
-0.42
-0.415
-0.4
-0.39
-0.39
-0.4
-0.4
-0.395
-0.395
-0.395
-0.385
-0.385
-0.38
-0.37
-0.365
-0.335
-0.35
-0.355
-0.375
-0.385
-0.385
-0.38
-0.36
-0.335
-0.32
-0.305
-0.31
-0.31
-0.315
-0.325
-0.33
-0.33
-0.335
-0.33
-0.33
-0.31
-0.3
-0.3
-0.305
-0.31
-0.335
-0.335
-0.34
-0.325
-0.32
-0.3
-0.275
-0.26
-0.235
-0.24
-0.24
-0.23
-0.225
-0.23
-0.235
-0.225
-0.225
-0.235
-0.24
-0.255
-0.25
-0.25
-0.25
-0.235
-0.24
-0.235
-0.245
-0.27
-0.285
-0.305
-0.285
-0.275
-0.26
-0.25
-0.245
-0.255
-0.255
-0.26
-0.275
-0.28
-0.28
-0.27
-0.26
-0.245
-0.225
-0.22
-0.2
-0.2
-0.225
-0.245
-0.275
-0.285
-0.285
-0.285
-0.285
-0.275
-0.245
-0.22
-0.21
-0.215
-0.215
-0.22
-0.23
-0.25
-0.26
-0.28
-0.27
-0.265
-0.24
-0.235
-0.225
-0.22
-0.22
-0.215
-0.205
-0.23
-0.235
-0.24
-0.25
-0.245
-0.235
-0.23
-0.235
-0.23
-0.23
-0.22
-0.205
-0.195
-0.19
-0.19
-0.185
-0.18
-0.16
-0.14
-0.145
-0.125
-0.115
-0.1
-0.08
-0.065
-0.04
-0.03
-0.035
-0.055
-0.05
-0.05
-0.055
-0.08
-0.095
-0.125
-0.14
-0.165
-0.195
-0.215
-0.245
-0.245
-0.235
-0.245
-0.26
-0.285
-0.285
-0.3
-0.295
-0.31
-0.31
-0.32
-0.315
-0.29
-0.29
-0.28
-0.285
-0.28
-0.3
-0.3
-0.32
-0.335
-0.34
-0.32
-0.25
-0.17
-0.03
0.12
0.335
0.58
0.86
1.125
1.345
1.485
1.515
1.39
1.16
0.835
0.485
0.17
-0.08
-0.255
-0.35
-0.365
-0.36
-0.33
-0.3
-0.295
-0.295
-0.305
-0.33
-0.33
-0.34
-0.34
-0.335
-0.36
-0.35
-0.365
-0.37
-0.39
-0.385
-0.37
-0.365
-0.34
-0.335
-0.32
-0.315
-0.33
-0.335
-0.36
-0.36
-0.36
-0.345
-0.33
-0.325
-0.32
-0.315
-0.315
-0.325
-0.32
-0.31
-0.31
-0.32
-0.32
-0.325
-0.32
-0.305
-0.29
-0.29
-0.29
-0.3
-0.3
-0.295
-0.3
-0.305
-0.295
-0.285
-0.28
-0.265
-0.245
-0.25
-0.245
-0.245
-0.245
-0.235
-0.245
-0.235
-0.23
-0.225
-0.215
-0.21
-0.225
-0.23
-0.24
-0.23
-0.23
-0.23
-0.23
-0.225
-0.23
-0.22
-0.205
-0.21
-0.2
-0.225
-0.195
-0.195
-0.18
-0.175
-0.175
-0.155
-0.155
-0.155
-0.16
-0.16
-0.14
-0.135
-0.14
-0.13
-0.14
-0.13
-0.145
-0.135
-0.15
-0.14
-0.155
-0.155
-0.15
-0.145
-0.14
-0.145
-0.16
-0.16
-0.165
-0.17
-0.175
-0.185
-0.165
-0.14
-0.14
-0.145
-0.155
-0.155
-0.16
-0.16
-0.18
-0.17
-0.175
-0.155
-0.135
-0.115
-0.115
-0.115
-0.105
-0.12
-0.13
-0.145
-0.155
-0.145
-0.135
-0.12
-0.115
-0.11
-0.095
-0.095
-0.1
-0.105
-0.12
-0.13
-0.13
-0.125
-0.13
-0.125
-0.105
-0.095
-0.08
-0.09
-0.085
-0.1
-0.115
-0.125
-0.13
-0.125
-0.135
-0.115
-0.125
-0.1
-0.09
-0.095
-0.085
-0.075
-0.085
-0.075
-0.07
-0.06
-0.035
-0.025
-0.01
0.005
0.03
0.055
0.085
0.095
0.08
0.065
0.05
0.045
0.05
0.05
0.055
0.06
0.035
0.025
0.01
-0.015
-0.035
-0.06
-0.065
-0.065
-0.075
-0.1
-0.125
-0.165
-0.19
-0.2
-0.2
-0.205
-0.19
-0.185
-0.2
-0.18
-0.185
-0.175
-0.175
-0.18
-0.18
-0.17
-0.18
-0.195
-0.21
-0.215
-0.205
-0.175
-0.09
0.025
0.19
0.42
0.7
1.005
1.325
1.56
1.705
1.71
1.57
1.32
0.99
0.6
0.27
0.01
-0.17
-0.25
-0.27
-0.255
-0.215
-0.18
-0.175
-0.19
-0.215
-0.24
-0.27
-0.29
-0.285
-0.28
-0.27
-0.27
-0.27
-0.27
-0.28
-0.275
-0.29
-0.29
-0.3
-0.29
-0.275
-0.27
-0.26
-0.265
-0.275
-0.3
-0.315
-0.31
-0.31
-0.3
-0.295
-0.275
-0.245
-0.255
-0.255
-0.255
-0.265
-0.26
-0.25
-0.27
-0.275
-0.27
-0.27
-0.27
-0.255
-0.24
-0.23
-0.215
-0.225
-0.245
-0.255
-0.255
-0.25
-0.235
-0.23
-0.22
-0.21
-0.2
-0.195
-0.19
-0.195
-0.19
-0.2
-0.205
-0.21
-0.225
-0.225
-0.205
-0.18
-0.165
-0.165
-0.165
-0.185
-0.185
-0.19
-0.205
-0.2
-0.2
-0.19
-0.185
-0.17
-0.175
-0.165
-0.155
-0.145
-0.14
-0.13
-0.14
-0.135
-0.145
-0.14
-0.13
-0.135
-0.135
-0.145
-0.14
-0.145
-0.145
-0.15
-0.16
-0.16
-0.155
-0.15
-0.145
-0.14
-0.145
-0.16
-0.17
-0.19
-0.2
-0.195
-0.195
-0.19
-0.18
-0.165
-0.165
-0.155
-0.16
-0.17
-0.175
-0.175
-0.175
-0.18
-0.165
-0.165
-0.15
-0.145
-0.14
-0.125
-0.145
-0.145
-0.165
-0.165
-0.165
-0.145
-0.14
-0.13
-0.13
-0.125
-0.135
-0.145
-0.145
-0.145
-0.16
-0.16
-0.165
-0.165
-0.16
-0.16
-0.16
-0.15
-0.155
-0.14
-0.14
-0.135
-0.145
-0.14
-0.15
-0.145
-0.125
-0.125
-0.11
-0.09
-0.085
-0.06
-0.035
-0.025
-0.005
-0.005
0.0
-0.015
-0.025
-0.04
-0.055
-0.05
-0.035
-0.02
-0.015
-0.005
0.005
-0.02
-0.06
-0.095
-0.13
-0.15
-0.165
-0.195
-0.2
-0.2
-0.215
-0.235
-0.235
-0.245
-0.265
-0.255
-0.275
-0.265
-0.27
-0.275
-0.28
-0.275
-0.285
-0.285
-0.285
-0.295
-0.31
-0.315
-0.325
-0.33
-0.315
-0.27
-0.21
-0.13
-0.01
0.145
0.335
0.55
0.8
1.065
1.3
1.475
1.525
1.47
1.29
1.01
0.68
0.36
0.065
-0.145
-0.295
-0.345
-0.36
-0.355
-0.325
-0.31
-0.315
-0.32
-0.35
-0.375
-0.395
-0.41
-0.41
-0.42
-0.435
-0.43
-0.435
-0.44
-0.445
-0.43
-0.42
-0.405
-0.42
-0.42
-0.405
-0.41
-0.42
-0.42
-0.43
-0.415
-0.415
-0.415
-0.42
-0.43
-0.41
-0.405
-0.4
-0.41
-0.4
-0.395
-0.375
-0.38
-0.39
-0.4
-0.39
-0.405
-0.395
-0.38
-0.38
-0.38
-0.365
-0.365
-0.355
-0.365
-0.37
-0.37
-0.385
-0.375
-0.37
-0.365
-0.36
-0.34
-0.335
-0.33
-0.33
-0.315
-0.315
-0.31
-0.315
-0.315
-0.315
-0.315
-0.32
-0.32
-0.33
-0.315
-0.32
-0.305
-0.3
-0.29
-0.295
-0.29
-0.29
-0.28
-0.3
-0.31
-0.315
-0.305
-0.295
-0.28
-0.265
-0.255
-0.24
-0.245
-0.25
-0.26
-0.275
-0.275
-0.28
-0.275
-0.27
-0.275
-0.29
-0.285
-0.295
-0.285
-0.285
-0.295
-0.31
-0.32
-0.315
-0.305
-0.295
-0.29
-0.29
-0.29
-0.29
-0.295
-0.31
-0.31
-0.305
-0.315
-0.325
-0.32
-0.31
-0.315
-0.29
-0.285
-0.29
-0.28
-0.285
-0.285
-0.28
-0.28
-0.29
-0.29
-0.3
-0.305
-0.295
-0.285
-0.28
-0.27
-0.26
-0.25
-0.265
-0.29
-0.295
-0.315
-0.315
-0.305
-0.285
-0.29
-0.28
-0.275
-0.275
-0.29
-0.295
-0.31
-0.31
-0.31
-0.3
-0.29
-0.275
-0.26
-0.25
-0.23
-0.23
-0.225
-0.225
-0.24
-0.24
-0.23
-0.19
-0.17
-0.14
-0.115
-0.105
-0.105
-0.11
-0.135
-0.14
-0.15
-0.16
-0.17
-0.16
-0.17
-0.18
-0.185
-0.215
-0.235
-0.255
-0.29
-0.31
-0.335
-0.36
-0.365
-0.38
-0.38
-0.39
-0.385
-0.385
-0.385
-0.38
-0.375
-0.385
-0.39
-0.4
-0.405
-0.4
-0.405
-0.4
-0.395
-0.4
-0.43
-0.42
-0.425
-0.395
-0.35
-0.29
-0.19
-0.045
0.16
0.395
0.665
0.935
1.165
1.335
1.395
1.32
1.14
0.875
0.555
0.245
-0.02
-0.24
-0.36
-0.43
-0.425
-0.43
-0.395
-0.385
-0.395
-0.4
-0.43
-0.45
-0.475
-0.485
-0.475
-0.475
-0.48
-0.49
-0.51
-0.505
-0.51
-0.49
-0.485
-0.47
-0.465
-0.47
-0.465
-0.485
-0.51
-0.505
-0.515
-0.5
-0.485
-0.47
-0.46
-0.47
-0.475
-0.485
-0.47
-0.475
-0.465
-0.47
-0.47
-0.475
-0.475
-0.48
-0.47
-0.465
-0.46
-0.45
-0.445
-0.445
-0.435
-0.425
-0.445
-0.445
-0.455
-0.445
-0.44
-0.42
-0.4
-0.385
-0.385
-0.39
-0.415
-0.415
-0.42
-0.425
-0.42
-0.405
-0.385
-0.37
-0.36
-0.36
-0.35
-0.34
-0.345
-0.32
-0.33
-0.34
-0.355
-0.375
-0.38
-0.38
-0.37
-0.37
-0.345
-0.325
-0.325
-0.315
-0.325
-0.34
-0.33
-0.335
-0.315
-0.31
-0.285
-0.27
-0.26
-0.255
-0.26
-0.275
-0.285
-0.295
-0.295
-0.29
-0.285
-0.315
-0.325
-0.335
-0.33
-0.335
-0.34
-0.325
-0.32
-0.32
-0.31
-0.315
-0.315
-0.335
-0.32
-0.32
-0.32
-0.315
-0.315
-0.315
-0.32
-0.325
-0.335
-0.34
-0.345
-0.34
-0.34
-0.33
-0.315
-0.31
-0.295
-0.31
-0.305
-0.31
-0.31
-0.32
-0.305
-0.305
-0.305
-0.295
-0.285
-0.295
-0.3
-0.3
-0.315
-0.32
-0.325
-0.33
-0.31
-0.315
-0.305
-0.295
-0.305
-0.31
-0.325
-0.33
-0.325
-0.325
-0.32
-0.3
-0.295
-0.285
-0.26
-0.245
-0.24
-0.25
-0.255
-0.245
-0.235
-0.225
-0.23
-0.205
-0.17
-0.15
-0.125
-0.14
-0.135
-0.145
-0.145
-0.15
-0.16
-0.17
-0.2
-0.23
-0.255
-0.28
-0.275
-0.295
-0.295
-0.315
-0.33
-0.34
-0.37
-0.375
-0.385
-0.39
-0.395
-0.4
-0.41
-0.41
-0.395
-0.385
-0.375
-0.375
-0.4
-0.4
-0.42
-0.435
-0.44
-0.445
-0.435
-0.405
-0.38
-0.275
-0.135
0.03
0.24
0.47
0.725
0.97
1.18
1.315
1.325
1.2
0.97
0.67
0.35
0.07
-0.16
-0.32
-0.425
-0.46
-0.465
-0.435
-0.39
-0.365
-0.37
-0.39
-0.43
-0.46
-0.5
-0.495
-0.48
-0.48
-0.47
-0.465
-0.455
-0.455
-0.46
-0.455
-0.465
-0.475
-0.47
-0.48
-0.48
-0.485
-0.485
-0.46
-0.46
-0.45
-0.445
-0.44
-0.455
-0.455
-0.46
-0.455
-0.465
-0.455
-0.455
-0.45
-0.42
-0.41
-0.405
-0.44
-0.455
-0.455
-0.46
-0.445
-0.435
-0.435
-0.435
-0.445
-0.44
-0.41
-0.39
-0.38
-0.375
-0.375
-0.39
-0.39
-0.39
-0.395
-0.38
-0.375
-0.365
-0.35
-0.34
-0.345
-0.345
-0.34
-0.35
-0.34
-0.335
-0.33
-0.32
-0.325
-0.33
-0.35
-0.345
-0.335
-0.33
-0.32
-0.335
-0.34
-0.35
-0.35
-0.345
-0.32
-0.31
-0.295
-0.28
-0.265
-0.265
-0.265
-0.285
-0.285
-0.275
-0.27
-0.265
-0.27
-0.245
-0.25
-0.24
-0.24
-0.25
-0.265
-0.285
-0.285
-0.31
-0.3
-0.3
-0.295
-0.29
-0.28
-0.275
-0.27
-0.275
-0.285
-0.3
-0.305
-0.295
-0.29
-0.295
-0.285
-0.295
-0.285
-0.28
-0.285
-0.285
-0.27
-0.265
-0.27
-0.29
-0.305
-0.3
-0.29
-0.28
-0.285
-0.26
-0.265
-0.265
-0.26
-0.27
-0.28
-0.275
-0.275
-0.27
-0.27
-0.28
-0.275
-0.27
-0.28
-0.265
-0.27
-0.255
-0.265
-0.26
-0.265
-0.275
-0.285
-0.275
-0.275
-0.285
-0.265
-0.27
-0.27
-0.285
-0.275
-0.29
-0.275
-0.26
-0.245
-0.225
-0.21
-0.195
-0.175
-0.165
-0.16
-0.17
-0.165
-0.165
-0.155
-0.11
-0.095
-0.075
-0.085
-0.085
-0.105
-0.12
-0.145
-0.16
-0.16
-0.17
-0.2
-0.205
-0.23
-0.235
-0.225
-0.24
-0.245
-0.28
-0.3
-0.325
-0.34
-0.34
-0.345
-0.34
-0.32
-0.315
-0.3
-0.315
-0.34
-0.34
-0.35
-0.345
-0.35
-0.375
-0.39
-0.38
-0.385
-0.375
-0.35
-0.28
-0.205
-0.04
0.135
0.355
0.595
0.835
1.07
1.28
1.415
1.44
1.335
1.115
0.795
0.445
0.135
-0.115
-0.265
-0.36
-0.4
-0.405
-0.385
-0.35
-0.32
-0.315
-0.315
-0.33
-0.36
-0.375
-0.385
-0.405
-0.395
-0.405
-0.4
-0.39
-0.4
-0.38
-0.39
-0.39
-0.395
-0.4
-0.395
-0.395
-0.385
-0.395
-0.385
-0.385
-0.375
-0.37
-0.365
-0.375
-0.375
-0.385
-0.395
-0.385
-0.395
-0.385
-0.365
-0.355
-0.33
-0.33
-0.315
-0.33
-0.335
-0.35
-0.35
-0.355
-0.365
-0.36
-0.345
-0.345
-0.335
-0.32
-0.32
-0.305
-0.31
-0.31
-0.315
-0.33
-0.325
-0.31
-0.295
-0.28
-0.28
-0.26
-0.255
-0.255
-0.26
-0.255
-0.265
-0.255
-0.275
-0.27
-0.275
-0.245
-0.235
-0.21
-0.215
-0.225
-0.245
-0.255
-0.26
-0.265
-0.245
-0.24
-0.24
-0.225
-0.205
-0.195
-0.2
-0.205
-0.205
-0.2
-0.19
-0.185
-0.195
-0.195
-0.185
-0.155
-0.16
-0.15
-0.165
-0.16
-0.17
-0.17
-0.18
-0.195
-0.195
-0.195
-0.2
-0.19
-0.185
-0.18
-0.18
-0.18
-0.185
-0.18
-0.175
-0.185
-0.18
-0.175
-0.195
-0.19
-0.18
-0.19
-0.18
-0.19
-0.18
-0.175
-0.19
-0.17
-0.18
-0.18
-0.165
-0.15
-0.145
-0.125
-0.13
-0.13
-0.14
-0.155
-0.16
-0.175
-0.19
-0.19
-0.185
-0.18
-0.185
-0.175
-0.155
-0.15
-0.155
-0.16
-0.165
-0.17
-0.17
-0.18
-0.185
-0.175
-0.17
-0.165
-0.15
-0.145
-0.125
-0.135
-0.14
-0.18
-0.19
-0.195
-0.185
-0.165
-0.15
-0.11
-0.09
-0.08
-0.07
-0.075
-0.08
-0.085
-0.08
-0.055
-0.025
0.01
0.025
0.035
0.015
0.01
0.01
-0.005
0.0
-0.005
-0.025
-0.04
-0.065
-0.075
-0.085
-0.095
-0.105
-0.135
-0.175
-0.21
-0.245
-0.255
-0.245
-0.235
-0.24
-0.23
-0.245
-0.23
-0.22
-0.235
-0.23
-0.25
-0.26
-0.27
-0.29
-0.295
-0.29
-0.285
-0.285
-0.285
-0.245
-0.185
-0.1
0.025
0.205
0.415
0.67
0.93
1.185
1.405
1.565
1.61
1.5
1.275
0.965
0.605
0.265
-0.015
-0.2
-0.31
-0.335
-0.32
-0.275
-0.23
-0.225
-0.22
-0.245
-0.27
-0.305
-0.33
-0.34
-0.345
-0.345
-0.335
-0.345
-0.33
-0.34
-0.345
-0.335
-0.345
-0.345
-0.32
-0.335
-0.36
-0.35
-0.36
-0.345
-0.345
-0.335
-0.335
-0.32
-0.325
-0.335
-0.335
-0.35
-0.345
-0.345
-0.335
-0.33
-0.335
-0.325
-0.325
-0.315
-0.3
-0.3
-0.305
-0.31
-0.305
-0.315
-0.31
-0.29
-0.28
-0.26
-0.27
-0.28
-0.28
-0.285
-0.28
-0.265
-0.255
-0.25
-0.225
-0.225
-0.225
-0.225
-0.245
-0.245
-0.25
-0.26
-0.255
-0.25
-0.24
-0.24
-0.235
-0.23
-0.24
-0.23
-0.23
-0.235
-0.23
-0.24
-0.255
-0.25
-0.24
-0.22
-0.2
-0.18
-0.16
-0.165
-0.16
-0.17
-0.185
-0.19
-0.205
-0.225
-0.235
-0.25
-0.24
-0.235
-0.23
-0.22
-0.215
-0.215
-0.225
-0.245
-0.25
-0.255
-0.26
-0.26
-0.26
-0.25
-0.245
-0.23
-0.235
-0.23
-0.24
-0.24
-0.25
-0.24
-0.23
-0.23
-0.23
-0.225
-0.22
-0.22
-0.23
-0.215
-0.21
-0.2
-0.205
-0.2
-0.205
-0.23
-0.25
-0.255
-0.25
-0.225
-0.23
-0.22
-0.22
-0.22
-0.235
-0.245
-0.24
-0.235
-0.21
-0.195
-0.185
-0.2
-0.21
-0.23
-0.24
-0.245
-0.26
-0.265
-0.245
-0.225
-0.23
-0.21
-0.19
-0.165
-0.165
-0.16
-0.17
-0.185
-0.2
-0.205
-0.19
-0.165
-0.13
-0.1
-0.07
-0.045
-0.035
-0.035
-0.065
-0.08
-0.1
-0.11
-0.12
-0.105
-0.1
-0.095
-0.09
-0.11
-0.155
-0.19
-0.23
-0.265
-0.28
-0.28
-0.27
-0.285
-0.295
-0.31
-0.33
-0.34
-0.34
-0.355
-0.355
-0.345
-0.35
-0.36
-0.36
-0.36
-0.355
-0.36
-0.36
-0.36
-0.355
-0.355
-0.365
-0.37
-0.365
-0.335
-0.26
-0.14
0.015
0.185
0.425
0.705
0.985
1.255
1.455
1.525
1.46
1.24
0.945
0.605
0.27
0.005
-0.195
-0.31
-0.365
-0.36
-0.355
-0.34
-0.345
-0.345
-0.37
-0.4
-0.415
-0.425
-0.43
-0.43
-0.44
-0.45
-0.45
-0.465
-0.46
-0.465
-0.45
-0.445
-0.435
-0.44
-0.435
-0.44
-0.43
-0.43
-0.43
-0.435
-0.45
-0.46
-0.45
-0.445
-0.45
-0.43
-0.43
-0.42
-0.405
-0.41
-0.41
-0.4
-0.42
-0.415
-0.415
-0.42
-0.41
-0.395
-0.395
-0.4
-0.4
-0.405
-0.39
-0.38
-0.375
-0.38
-0.375
-0.385
-0.4
-0.38
-0.37
-0.35
-0.35
-0.355
-0.35
-0.34
-0.35
-0.34
-0.33
-0.325
-0.31
-0.315
-0.325
-0.33
-0.33
-0.32
-0.31
-0.315
-0.305
-0.31
-0.3
-0.305
-0.31
-0.305
-0.295
-0.31
-0.29
-0.26
-0.255
-0.24
-0.25
-0.255
-0.265
-0.26
-0.24
-0.235
-0.23
-0.22
-0.24
-0.235
-0.255
-0.255
-0.27
-0.27
-0.255
-0.255
-0.255
-0.255
-0.255
-0.255
-0.265
-0.26
-0.26
-0.275
-0.285
-0.285
-0.265
-0.26
-0.245
-0.245
-0.255
-0.27
-0.28
-0.295
-0.285
-0.28
-0.275
-0.27
-0.275
-0.255
-0.255
-0.25
-0.25
-0.255
-0.25
-0.255
-0.26
-0.255
-0.255
-0.27
-0.25
-0.24
-0.22
-0.215
-0.225
-0.215
-0.225
-0.22
-0.24
-0.24
-0.25
-0.265
-0.27
-0.27
-0.255
-0.24
-0.225
-0.225
-0.23
-0.225
-0.225
-0.235
-0.25
-0.235
-0.23
-0.205
-0.18
-0.165
-0.155
-0.14
-0.135
-0.1
-0.09
-0.08
-0.06
-0.07
-0.065
-0.075
-0.08
-0.08
-0.08
-0.09
-0.105
-0.115
-0.14
-0.16
-0.2
-0.225
-0.25
-0.275
-0.28
-0.28
-0.275
-0.28
-0.295
-0.3
-0.315
-0.335
-0.34
-0.345
-0.345
-0.335
-0.32
-0.315
-0.315
-0.31
-0.32
-0.32
-0.335
-0.35
-0.375
-0.36
-0.32
-0.255
-0.14
0.02
0.23
0.48
0.745
1.01
1.26
1.425
1.44
1.325
1.09
0.775
0.45
0.16
-0.075
-0.225
-0.33
-0.365
-0.355
-0.325
-0.31
-0.29
-0.3
-0.32
-0.355
-0.37
-0.385
-0.385
-0.395
-0.39
-0.4
-0.4
-0.41
-0.415
-0.41
-0.42
-0.4
-0.395
-0.38
-0.375
-0.39
-0.39
-0.4
-0.4
-0.395
-0.395
-0.4
-0.39
-0.38
-0.375
-0.365
-0.35
-0.345
-0.345
-0.355
-0.35
-0.365
-0.375
-0.385
-0.385
-0.385
-0.36
-0.35
-0.33
-0.305
-0.295
-0.31
-0.32
-0.34
-0.345
-0.345
-0.33
-0.32
-0.3
-0.29
-0.28
-0.275
-0.27
-0.26
-0.26
-0.27
-0.27
-0.27
-0.265
-0.255
-0.235
-0.215
-0.22
-0.225
-0.22
-0.23
-0.225
-0.225
-0.24
-0.255
-0.255
-0.265
-0.26
-0.25
-0.24
-0.22
-0.21
-0.195
-0.19
-0.2
-0.195
-0.205
-0.195
-0.19
-0.17
-0.145
-0.15
-0.155
-0.155
-0.16
-0.175
-0.185
-0.175
-0.18
-0.18
-0.175
-0.165
-0.17
-0.18
-0.185
-0.185
-0.18
-0.175
-0.19
-0.18
-0.175
-0.16
-0.155
-0.155
-0.165
-0.18
-0.195
-0.19
-0.185
-0.18
-0.185
-0.17
-0.165
-0.17
-0.165
-0.165
-0.155
-0.15
-0.16
-0.16
-0.165
-0.155
-0.15
-0.15
-0.14
-0.14
-0.135
-0.145
-0.125
-0.12
-0.125
-0.135
-0.145
-0.15
-0.145
-0.15
-0.135
-0.135
-0.14
-0.12
-0.11
-0.1
-0.11
-0.105
-0.125
-0.14
-0.155
-0.145
-0.145
-0.11
-0.09
-0.07
-0.05
-0.065
-0.06
-0.055
-0.075
-0.07
-0.065
-0.06
-0.05
-0.03
-0.005
0.025
0.06
0.095
0.1
0.09
0.07
0.035
0.04
0.03
0.03
0.025
0.02
0.015
0.0
-0.015
-0.03
-0.05
-0.07
-0.095
-0.125
-0.125
-0.145
-0.16
-0.17
-0.175
-0.17
-0.17
-0.16
-0.155
-0.165
-0.17
-0.18
-0.19
-0.17
-0.17
-0.16
-0.17
-0.18
-0.2
-0.225
-0.24
-0.24
-0.23
-0.16
-0.045
0.1
0.305
0.56
0.8
1.075
1.31
1.48
1.6
1.59
1.45
1.2
0.86
0.535
0.245
0.04
-0.105
-0.155
-0.185
-0.19
-0.17
-0.145
-0.125
-0.125
-0.135
-0.16
-0.18
-0.2
-0.205
-0.19
-0.195
-0.2
-0.225
-0.225
-0.225
-0.23
-0.225
-0.22
-0.21
-0.2
-0.21
-0.21
-0.195
-0.195
-0.2
-0.215
-0.22
-0.205
-0.205
-0.2
-0.19
-0.185
-0.195
-0.18
-0.18
-0.185
-0.17
-0.18
-0.18
-0.165
-0.17
-0.16
-0.15
-0.14
-0.14
-0.13
-0.125
-0.13
-0.135
-0.14
-0.14
-0.14
-0.155
-0.16
-0.15
-0.155
-0.135
-0.11
-0.08
-0.075
-0.07
-0.085
-0.095
-0.095
-0.095
-0.08
-0.075
-0.06
-0.055
-0.05
-0.035
-0.04
-0.045
-0.06
-0.07
-0.075
-0.09
-0.075
-0.075
-0.055
-0.05
-0.05
-0.04
-0.05
-0.055
-0.045
-0.055
-0.055
-0.035
-0.035
-0.02
-0.005
0.015
0.03
0.02
0.025
0.05
0.05
0.04
0.035
0.02
0.02
0.02
0.03
0.025
0.03
0.03
0.025
0.02
0.025
0.005
-0.005
-0.02
-0.035
-0.03
-0.025
-0.02
0.0
0.005
0.0
-0.005
-0.005
0.0
0.005
0.01
-0.005
-0.01
0.005
0.0
0.02
0.025
0.025
0.03
0.03
0.025
0.02
0.005
-0.01
-0.005
0.0
0.015
0.02
0.045
0.04
0.05
0.05
0.04
0.03
0.02
0.01
0.01
0.01
0.015
0.03
0.04
0.025
0.03
0.03
0.025
0.025
0.035
0.03
0.035
0.03
0.04
0.04
0.045
0.04
0.055
0.06
0.07
0.065
0.06
0.055
0.07
0.09
0.12
0.13
0.145
0.135
0.145
0.165
0.19
0.21
0.23
0.23
0.21
0.21
0.2
0.185
0.17
0.165
0.15
0.14
0.12
0.1
0.075
0.045
0.035
0.02
0.015
0.005
-0.01
-0.03
-0.05
-0.07
-0.08
-0.08
-0.075
-0.07
-0.06
-0.06
-0.07
-0.075
-0.06
-0.065
-0.065
-0.075
-0.08
-0.095
-0.11
-0.095
-0.06
0.02
0.135
0.315
0.53
0.785
1.07
1.355
1.605
1.765
1.795
1.665
1.42
1.075
0.705
0.375
0.125
-0.045
-0.12
-0.135
-0.11
-0.075
-0.065
-0.05
-0.07
-0.09
-0.13
-0.135
-0.16
-0.175
-0.185
-0.195
-0.19
-0.195
-0.195
-0.185
-0.19
-0.185
-0.19
-0.19
-0.185
-0.185
-0.175
-0.18
-0.175
-0.175
-0.175
-0.17
-0.185
-0.165
-0.18
-0.17
-0.15
-0.175
-0.16
-0.16
-0.155
-0.16
-0.165
-0.16
-0.17
-0.17
-0.165
-0.165
-0.16
-0.16
-0.145
-0.15
-0.145
-0.14
-0.14
-0.15
-0.15
-0.13
-0.12
-0.105
-0.1
-0.12
-0.11
-0.11
-0.13
-0.11
-0.11
-0.1
-0.09
-0.085
-0.075
-0.085
-0.07
-0.065
-0.06
-0.08
-0.095
-0.12
-0.125
-0.135
-0.125
-0.11
-0.09
-0.07
-0.07
-0.06
-0.06
-0.045
-0.035
-0.045
-0.045
-0.05
-0.035
-0.035
-0.02
-0.025
-0.015
-0.03
-0.035
-0.05
-0.06
-0.07
-0.065
-0.06
-0.05
-0.055
-0.07
-0.045
-0.045
-0.055
-0.04
-0.055
-0.065
-0.09
-0.1
-0.095
-0.095
-0.095
-0.08
-0.075
-0.07
-0.06
-0.065
-0.075
-0.08
-0.09
-0.095
-0.09
-0.08
-0.075
-0.07
-0.06
-0.04
-0.045
-0.06
-0.055
-0.05
-0.075
-0.09
-0.08
-0.085
-0.07
-0.07
-0.045
-0.025
-0.02
-0.025
-0.04
-0.06
-0.07
-0.09
-0.08
-0.07
-0.055
-0.05
-0.035
-0.035
-0.04
-0.04
-0.05
-0.075
-0.075
-0.07
-0.07
-0.055
-0.035
-0.005
0.01
0.02
0.035
0.055
0.05
0.045
0.045
0.045
0.065
0.09
0.1
0.09
0.08
0.08
0.065
0.055
0.055
0.04
0.04
0.03
0.01
-0.005
-0.03
-0.055
-0.08
-0.095
-0.105
-0.11
-0.125
-0.13
-0.145
-0.155
-0.155
-0.165
-0.16
-0.165
-0.16
-0.16
-0.165
-0.165
-0.165
-0.17
-0.18
-0.19
-0.195
-0.2
-0.2
-0.19
-0.16
-0.105
-0.015
0.125
0.295
0.505
0.745
1.005
1.275
1.48
1.595
1.575
1.41
1.17
0.845
0.53
0.24
0.01
-0.15
-0.23
-0.25
-0.22
-0.18
-0.145
-0.145
-0.16
-0.195
-0.245
-0.275
-0.305
-0.295
-0.305
-0.29
-0.29
-0.28
-0.285
-0.285
-0.29
-0.285
-0.275
-0.28
-0.275
-0.285
-0.3
-0.305
-0.31
-0.3
-0.305
-0.29
-0.28
-0.28
-0.27
-0.26
-0.27
-0.285
-0.305
-0.305
-0.305
-0.29
-0.27
-0.265
-0.255
-0.265
-0.245
-0.245
-0.25
-0.255
-0.265
-0.27
-0.265
-0.26
-0.275
-0.275
-0.255
-0.255
-0.24
-0.24
-0.215
-0.225
-0.225
-0.22
-0.215
-0.205
-0.2
-0.195
-0.19
-0.21
-0.2
-0.195
-0.195
-0.195
-0.195
-0.2
-0.195
-0.2
-0.195
-0.195
-0.195
-0.195
-0.205
-0.21
-0.21
-0.205
-0.2
-0.195
-0.17
-0.185
-0.15
-0.13
-0.12
-0.12
-0.125
-0.13
-0.145
-0.155
-0.14
-0.145
-0.15
-0.155
-0.16
-0.16
-0.16
-0.15
-0.135
-0.14
-0.16
-0.185
-0.195
-0.205
-0.205
-0.195
-0.185
-0.175
-0.17
-0.16
-0.165
-0.165
-0.18
-0.2
-0.205
-0.2
-0.215
-0.2
-0.185
-0.17
-0.165
-0.17
-0.18
-0.17
-0.19
-0.195
-0.2
-0.215
-0.21
-0.18
-0.195
-0.19
-0.16
-0.16
-0.15
-0.155
-0.155
-0.16
-0.2
-0.19
-0.2
-0.195
-0.175
-0.16
-0.14
-0.155
-0.16
-0.17
-0.18
-0.19
-0.19
-0.2
-0.185
-0.175
-0.145
-0.13
-0.095
-0.085
-0.08
-0.09
-0.1
-0.08
-0.085
-0.075
-0.08
-0.055
-0.02
0.0
0.015
0.005
0.0
-0.005
-0.01
-0.015
-0.03
-0.065
-0.085
-0.08
-0.095
-0.12
-0.13
-0.17
-0.185
-0.21
-0.215
-0.25
-0.255
-0.245
-0.245
-0.235
-0.24
-0.23
-0.235
-0.24
-0.24
-0.27
-0.28
-0.275
-0.285
-0.265
-0.275
-0.275
-0.27
-0.265
-0.245
-0.21
-0.135
-0.02
0.16
0.38
0.63
0.895
1.135
1.34
1.45
1.425
1.275
1.0
0.68
0.345
0.065
-0.14
-0.28
-0.335
-0.325
-0.29
-0.245
-0.235
-0.24
-0.25
-0.28
-0.3
-0.33
-0.345
-0.38
-0.385
-0.375
-0.35
-0.35
-0.335
-0.33
-0.33
-0.325
-0.325
-0.325
-0.365
-0.375
-0.38
-0.375
-0.35
-0.335
-0.32
-0.32
-0.305
-0.305
-0.31
-0.315
-0.325
-0.335
-0.32
-0.325
-0.32
-0.32
-0.305
-0.3
-0.305
-0.295
-0.295
-0.3
-0.285
-0.3
-0.29
-0.29
-0.265
-0.275
-0.255
-0.26
-0.26
-0.255
-0.255
-0.26
-0.25
-0.25
-0.245
-0.25
-0.245
-0.24
-0.215
-0.2
-0.18
-0.18
-0.18
-0.2
-0.205
-0.225
-0.215
-0.22
-0.2
-0.185
-0.18
-0.18
-0.195
-0.185
-0.19
-0.185
-0.175
-0.19
-0.185
-0.185
-0.185
-0.175
-0.155
-0.13
-0.13
-0.115
-0.125
-0.13
-0.135
-0.15
-0.145
-0.15
-0.135
-0.12
-0.1
-0.09
-0.11
-0.11
-0.125
-0.13
-0.135
-0.15
-0.145
-0.15
-0.155
-0.14
-0.14
-0.125
-0.125
-0.12
-0.125
-0.13
-0.145
-0.145
-0.15
-0.16
-0.15
-0.135
-0.115
-0.12
-0.105
-0.11
-0.115
-0.13
-0.13
-0.135
-0.13
-0.13
-0.12
-0.105
-0.105
-0.1
-0.115
-0.1
-0.095
-0.105
-0.1
-0.115
-0.12
-0.12
-0.12
-0.11
-0.1
-0.095
-0.095
-0.09
-0.095
-0.1
-0.105
-0.105
-0.115
-0.105
-0.095
-0.095
-0.085
-0.075
-0.065
-0.06
-0.03
-0.015
-0.015
-0.015
-0.01
-0.01
-0.005
0.005
0.03
0.055
0.085
0.095
0.1
0.095
0.075
0.055
0.055
0.06
0.04
0.035
0.03
0.02
-0.005
-0.035
-0.05
-0.09
-0.1
-0.11
-0.115
-0.13
-0.125
-0.12
-0.11
-0.105
-0.115
-0.125
-0.145
-0.155
-0.165
-0.16
-0.15
-0.135
-0.125
-0.135
-0.135
-0.145
-0.155
-0.18
-0.18
-0.17
-0.125
-0.04
0.105
0.295
0.545
0.815
1.1
1.36
1.565
1.66
1.62
1.455
1.165
0.825
0.48
0.2
-0.01
-0.125
-0.175
-0.175
-0.155
-0.115
-0.11
-0.105
-0.135
-0.16
-0.19
-0.21
-0.22
-0.215
-0.2
-0.205
-0.205
-0.2
-0.19
-0.19
-0.19
-0.185
-0.185
-0.17
-0.175
-0.18
-0.2
-0.2
-0.215
-0.205
-0.195
-0.19
-0.185
-0.2
-0.195
-0.19
-0.175
-0.16
-0.155
-0.15
-0.16
-0.16
-0.165
-0.185
-0.185
-0.175
-0.18
-0.165
-0.16
-0.14
-0.125
-0.105
-0.125
-0.12
-0.125
-0.125
-0.12
-0.115
-0.115
-0.115
-0.11
-0.12
-0.1
-0.085
-0.08
-0.1
-0.095
-0.09
-0.09
-0.1
-0.085
-0.095
-0.075
-0.06
-0.05
-0.055
-0.05
-0.045
-0.07
-0.07
-0.075
-0.075
-0.08
-0.09
-0.09
-0.07
-0.085
-0.05
-0.045
-0.035
-0.03
-0.02
-0.005
-0.01
0.0
0.0
0.005
0.005
0.02
0.025
0.035
0.04
0.035
0.02
0.01
0.025
0.02
0.02
0.015
0.02
0.01
0.015
0.005
-0.01
-0.02
-0.02
-0.015
-0.005
-0.005
0.005
-0.005
0.005
-0.005
0.005
0.005
0.0
-0.005
-0.01
-0.01
-0.015
-0.005
-0.005
0.0
0.01
0.02
0.025
0.03
0.025
0.025
0.02
0.01
0.015
0.01
0.015
0.025
0.025
0.03
0.035
0.04
0.03
0.025
0.015
0.0
-0.005
0.0
0.015
0.015
0.02
0.02
0.035
0.02
0.02
0.02
0.015
0.005
0.015
0.01
0.01
0.01
0.015
0.04
0.055
0.07
0.08
0.085
0.08
0.085
0.09
0.11
0.11
0.14
0.155
0.175
0.175
0.175
0.185
0.175
0.17
0.16
0.14
0.11
0.085
0.06
0.045
0.025
0.03
0.005
0.0
-0.01
-0.035
-0.055
-0.075
-0.09
-0.1
-0.1
-0.095
-0.1
-0.085
-0.09
-0.085
-0.08
-0.085
-0.095
-0.125
-0.13
-0.145
-0.155
-0.135
-0.075
0.025
0.165
0.34
0.565
0.835
1.11
1.38
1.57
1.64
1.55
1.33
1.02
0.68
0.35
0.09
-0.08
-0.17
-0.195
-0.17
-0.145
-0.11
-0.105
-0.125
-0.14
-0.145
-0.165
-0.17
-0.19
-0.2
-0.205
-0.215
-0.22
-0.22
-0.22
-0.22
-0.205
-0.195
-0.195
-0.195
-0.205
-0.22
-0.215
-0.24
-0.23
-0.215
-0.21
-0.205
-0.205
-0.195
-0.19
-0.19
-0.19
-0.19
-0.185
-0.205
-0.185
-0.175
-0.175
-0.18
-0.185
-0.18
-0.185
-0.18
-0.19
-0.185
-0.19
-0.21
-0.2
-0.2
-0.175
-0.17
-0.155
-0.14
-0.15
-0.15
-0.135
-0.135
-0.15
-0.15
-0.155
-0.16
-0.155
-0.155
-0.13
-0.125
-0.115
-0.11
-0.125
-0.13
-0.13
-0.15
-0.15
-0.15
-0.135
-0.12
-0.105
-0.095
-0.11
-0.115
-0.135
-0.135
-0.14
-0.15
-0.13
-0.115
-0.105
-0.09
