Lead II
-0.925
-0.91
-0.91
-0.93
-0.945
-0.93
-0.92
-0.885
-0.85
-0.855
-0.875
-0.885
-0.905
-0.89
-0.89
-0.89
-0.895
-0.89
-0.875
-0.845
-0.815
-0.825
-0.865
-0.89
-0.875
-0.885
-0.87
-0.865
-0.865
-0.88
-0.89
-0.885
-0.87
-0.845
-0.86
-0.865
-0.885
-0.885
-0.88
-0.875
-0.875
-0.885
-0.895
-0.88
-0.855
-0.84
-0.84
-0.855
-0.9
-0.905
-0.905
-0.905
-0.895
-0.9
-0.905
-0.9
-0.9
-0.895
-0.9
-0.91
-0.935
-0.965
-0.965
-0.95
-0.945
-0.945
-0.95
-0.945
-0.94
-0.935
-0.945
-0.965
-0.97
-0.97
-0.965
-0.97
-0.985
-0.985
-0.975
-0.97
-0.95
-0.95
-0.96
-0.98
-0.98
-0.965
-0.975
-0.95
-0.98
-0.97
-0.97
-0.95
-0.94
-0.915
-0.925
-0.93
-0.94
-0.95
-0.94
-0.925
-0.925
-0.915
-0.92
-0.91
-0.885
-0.87
-0.855
-0.86
-0.885
-0.895
-0.88
-0.875
-0.87
-0.84
-0.815
-0.78
-0.74
-0.71
-0.705
-0.71
-0.72
-0.72
-0.705
-0.7
-0.69
-0.695
-0.695
-0.68
-0.675
-0.68
-0.715
-0.735
-0.78
-0.795
-0.775
-0.775
-0.805
-0.805
-0.835
-0.845
-0.855
-0.87
-0.895
-0.92
-0.925
-0.93
-0.93
-0.955
-0.97
-0.97
-0.94
-0.92
-0.93
-0.92
-0.925
-0.94
-0.93
-0.93
-0.96
-0.985
-1.02
-1.045
-1.08
-1.115
-1.125
-1.145
-1.08
-0.99
-0.835
-0.64
-0.435
-0.26
-0.1
0.055
0.215
0.405
0.565
0.685
0.77
0.82
0.83
0.82
0.775
0.665
0.52
0.295
0.005
-0.275
-0.555
-0.76
-0.855
-0.885
-0.845
-0.775
-0.745
-0.76
-0.805
-0.86
-0.9
-0.94
-0.965
-0.99
-1.01
-1.02
-1.01
-1.01
-1.015
-1.035
-1.04
-1.015
-0.99
-0.975
-0.995
-1.005
-0.995
-0.98
-0.995
-1.0
-1.03
-1.025
-1.02
-1.005
-0.995
-1.0
-0.99
-0.985
-0.975
-0.98
-1.0
-0.995
-1.01
-1.0
-0.97
-0.975
-0.97
-0.95
-0.96
-0.94
-0.945
-0.945
-0.97
-0.97
-0.96
-0.95
-0.935
-0.93
-0.935
-0.93
-0.915
-0.89
-0.88
-0.895
-0.91
-0.92
-0.915
-0.9
-0.89
-0.88
-0.89
-0.91
-0.875
-0.875
-0.87
-0.865
-0.88
-0.885
-0.87
-0.88
-0.86
-0.86
-0.855
-0.855
-0.84
-0.835
-0.835
-0.84
-0.85
-0.855
-0.84
-0.845
-0.855
-0.855
-0.86
-0.845
-0.84
-0.845
-0.855
-0.865
-0.87
-0.89
-0.885
-0.905
-0.895
-0.89
-0.875
-0.855
-0.865
-0.865
-0.865
-0.86
-0.875
-0.885
-0.9
-0.94
-0.95
-0.92
-0.905
-0.9
-0.915
-0.925
-0.925
-0.925
-0.905
-0.92
-0.945
-0.97
-0.98
-0.965
-0.955
-0.96
-0.965
-0.965
-0.955
-0.94
-0.94
-0.95
-0.97
-0.975
-0.975
-0.95
-0.92
-0.92
-0.915
-0.92
-0.935
-0.9
-0.91
-0.905
-0.94
-0.955
-0.95
-0.92
-0.905
-0.895
-0.905
-0.905
-0.9
-0.885
-0.875
-0.87
-0.89
-0.9
-0.89
-0.88
-0.85
-0.855
-0.86
-0.85
-0.84
-0.83
-0.8
-0.78
-0.78
-0.775
-0.75
-0.715
-0.675
-0.665
-0.67
-0.675
-0.68
-0.67
-0.67
-0.65
-0.67
-0.695
-0.705
-0.715
-0.7
-0.685
-0.695
-0.71
-0.72
-0.72
-0.745
-0.755
-0.78
-0.825
-0.855
-0.865
-0.87
-0.845
-0.855
-0.87
-0.87
-0.895
-0.905
-0.895
-0.905
-0.915
-0.93
-0.945
-0.925
-0.885
-0.875
-0.885
-0.9
-0.9
-0.92
-0.925
-0.945
-0.965
-1.005
-1.045
-1.095
-1.11
-1.105
-1.06
-1.02
-0.875
-0.7
-0.48
-0.27
-0.075
0.1
0.29
0.495
0.66
0.79
0.845
0.85
0.835
0.79
0.725
0.59
0.39
0.115
-0.195
-0.46
-0.65
-0.765
-0.82
-0.815
-0.79
-0.745
-0.705
-0.705
-0.755
-0.82
-0.89
-0.93
-0.945
-0.93
-0.945
-0.96
-0.985
-1.005
-0.995
-0.985
-1.0
-1.005
-0.98
-0.985
-0.965
-0.95
-0.925
-0.935
-0.95
-0.98
-0.99
-0.985
-0.97
-0.97
-0.965
-0.975
-0.98
-0.965
-0.945
-0.935
-0.94
-0.955
-0.975
-0.99
-0.96
-0.955
-0.93
-0.94
-0.94
-0.935
-0.925
-0.92
-0.91
-0.93
-0.95
-0.96
-0.95
-0.935
-0.92
-0.915
-0.92
-0.92
-0.915
-0.915
-0.905
-0.905
-0.915
-0.92
-0.905
-0.885
-0.885
-0.88
-0.89
-0.89
-0.88
-0.84
-0.84
-0.85
-0.875
-0.88
-0.885
-0.875
-0.845
-0.84
-0.84
-0.84
-0.85
-0.835
-0.825
-0.83
-0.845
-0.86
-0.865
-0.85
-0.83
-0.825
-0.84
-0.85
-0.825
-0.82
-0.81
-0.805
-0.825
-0.84
-0.86
-0.84
-0.83
-0.825
-0.825
-0.83
-0.84
-0.855
-0.855
-0.85
-0.85
-0.875
-0.88
-0.885
-0.865
-0.845
-0.845
-0.85
-0.87
-0.865
-0.87
-0.855
-0.865
-0.875
-0.905
-0.93
-0.91
-0.895
-0.885
-0.89
-0.915
-0.915
-0.925
-0.93
-0.93
-0.94
-0.945
-0.945
-0.955
-0.93
-0.925
-0.945
-0.935
-0.955
-0.925
-0.92
-0.925
-0.955
-0.975
-0.97
-0.935
-0.925
-0.92
-0.915
-0.93
-0.925
-0.92
-0.91
-0.915
-0.925
-0.93
-0.93
-0.92
-0.895
-0.885
-0.9
-0.895
-0.91
-0.915
-0.9
-0.89
-0.885
-0.91
-0.89
-0.88
-0.855
-0.835
-0.83
-0.835
-0.835
-0.84
-0.835
-0.815
-0.81
-0.78
-0.77
-0.745
-0.725
-0.69
-0.67
-0.665
-0.67
-0.665
-0.675
-0.665
-0.67
-0.69
-0.7
-0.71
-0.705
-0.69
-0.705
-0.72
-0.73
-0.735
-0.74
-0.77
-0.82
-0.855
-0.885
-0.885
-0.89
-0.895
-0.89
-0.9
-0.9
-0.89
-0.895
-0.91
-0.935
-0.945
-0.935
-0.93
-0.915
-0.895
-0.915
-0.915
-0.915
-0.925
-0.935
-1.01
-1.065
-1.1
-1.12
-1.1
-1.04
-0.94
-0.795
-0.615
-0.405
-0.21
-0.03
0.14
0.3
0.465
0.615
0.735
0.805
0.83
0.81
0.775
0.72
0.63
0.475
0.25
-0.03
-0.33
-0.58
-0.74
-0.835
-0.865
-0.84
-0.785
-0.75
-0.75
-0.78
-0.845
-0.92
-0.96
-0.985
-0.995
-1.0
-1.0
-0.995
-0.98
-0.97
-0.965
-0.985
-1.0
-0.99
-0.985
-0.975
-0.97
-0.975
-0.98
-0.965
-0.97
-0.955
-0.95
-0.99
-1.015
-1.0
-0.995
-0.975
-0.96
-0.95
-0.955
-0.97
-0.95
-0.935
-0.945
-0.95
-0.945
-0.955
-0.955
-0.95
-0.94
-0.945
-0.94
-0.95
-0.93
-0.92
-0.9
-0.915
-0.9
-0.91
-0.915
-0.905
-0.895
-0.88
-0.88
-0.875
-0.86
-0.86
-0.845
-0.84
-0.86
-0.87
-0.875
-0.88
-0.86
-0.83
-0.84
-0.835
-0.84
-0.825
-0.81
-0.825
-0.835
-0.84
-0.845
-0.83
-0.82
-0.82
-0.815
-0.815
-0.81
-0.805
-0.8
-0.83
-0.825
-0.84
-0.845
-0.835
-0.82
-0.865
-0.84
-0.83
-0.825
-0.825
-0.835
-0.845
-0.87
-0.865
-0.86
-0.835
-0.835
-0.855
-0.855
-0.845
-0.83
-0.83
-0.825
-0.84
-0.86
-0.87
-0.865
-0.865
-0.875
-0.905
-0.885
-0.875
-0.865
-0.86
-0.87
-0.905
-0.915
-0.925
-0.91
-0.925
-0.925
-0.925
-0.935
-0.92
-0.92
-0.91
-0.92
-0.94
-0.955
-0.965
-0.965
-0.97
-0.95
-0.955
-0.945
-0.94
-0.91
-0.9
-0.895
-0.915
-0.935
-0.935
-0.925
-0.92
-0.915
-0.915
-0.91
-0.915
-0.885
-0.875
-0.875
-0.9
-0.89
-0.915
-0.895
-0.895
-0.915
-0.915
-0.9
-0.875
-0.835
-0.84
-0.845
-0.845
-0.875
-0.85
-0.835
-0.825
-0.82
-0.805
-0.775
-0.75
-0.705
-0.69
-0.675
-0.67
-0.68
-0.685
-0.675
-0.685
-0.675
-0.675
-0.68
-0.67
-0.655
-0.68
-0.7
-0.735
-0.755
-0.755
-0.755
-0.755
-0.76
-0.79
-0.82
-0.82
-0.82
-0.85
-0.87
-0.885
-0.905
-0.925
-0.925
-0.925
-0.94
-0.92
-0.925
-0.925
-0.905
-0.89
-0.9
-0.91
-0.94
-0.935
-0.925
-0.92
-0.925
-0.945
-0.98
-1.0
-1.02
-1.055
-1.1
-1.095
-1.05
-0.945
-0.78
-0.595
-0.37
-0.16
0.045
0.235
0.41
0.58
0.68
0.76
0.795
0.79
0.78
0.725
0.63
0.535
0.39
0.18
-0.075
-0.36
-0.6
-0.76
-0.855
-0.87
-0.815
-0.775
-0.785
-0.785
-0.82
-0.86
-0.88
-0.93
-0.975
-1.005
-1.015
-1.01
-1.01
-0.985
-1.0
-0.995
-1.005
-0.99
-0.975
-0.96
-0.955
-0.965
-0.99
-0.97
-0.975
-0.98
-0.985
-0.98
-0.97
-0.97
-0.94
-0.935
-0.96
-0.955
-0.975
-0.96
-0.955
-0.955
-0.95
-0.95
-0.96
-0.94
-0.91
-0.905
-0.925
-0.93
-0.945
-0.945
-0.915
-0.915
-0.92
-0.915
-0.9
-0.89
-0.865
-0.88
-0.89
-0.89
-0.885
-0.88
-0.86
-0.89
-0.885
-0.88
-0.865
-0.84
-0.82
-0.84
-0.845
-0.84
-0.845
-0.85
-0.845
-0.85
-0.86
-0.845
-0.825
-0.8
-0.79
-0.795
-0.825
-0.83
-0.83
-0.82
-0.815
-0.82
-0.83
-0.825
-0.815
-0.79
-0.78
-0.79
-0.82
-0.825
-0.84
-0.835
-0.83
-0.85
-0.855
-0.85
-0.83
-0.81
-0.82
-0.835
-0.86
-0.875
-0.855
-0.845
-0.83
-0.855
-0.88
-0.865
-0.86
-0.84
-0.84
-0.85
-0.88
-0.875
-0.88
-0.89
-0.895
-0.92
-0.93
-0.93
-0.92
-0.91
-0.93
-0.95
-0.945
-0.95
-0.96
-0.94
-0.965
-0.97
-0.97
-0.955
-0.945
-0.93
-0.935
-0.94
-0.94
-0.955
-0.94
-0.935
-0.94
-0.96
-0.98
-0.945
-0.93
-0.91
-0.905
-0.915
-0.925
-0.91
-0.915
-0.91
-0.915
-0.925
-0.935
-0.935
-0.91
-0.89
-0.88
-0.88
-0.9
-0.895
-0.89
-0.9
-0.885
-0.895
-0.89
-0.88
-0.845
-0.825
-0.82
-0.835
-0.82
-0.82
-0.8
-0.8
-0.775
-0.755
-0.75
-0.72
-0.675
-0.655
-0.65
-0.65
-0.67
-0.68
-0.665
-0.68
-0.7
-0.725
-0.715
-0.72
-0.71
-0.71
-0.72
-0.745
-0.75
-0.775
-0.8
-0.83
-0.86
-0.885
-0.905
-0.895
-0.88
-0.875
-0.89
-0.93
-0.93
-0.915
-0.935
-0.94
-0.935
-0.955
-0.94
-0.925
-0.91
-0.905
-0.895
-0.91
-0.925
-0.93
-0.95
-0.97
-1.02
-1.08
-1.135
-1.135
-1.1
-1.005
-0.885
-0.74
-0.56
-0.35
-0.145
0.045
0.215
0.365
0.53
0.675
0.785
0.86
0.865
0.845
0.775
0.705
0.595
0.435
0.205
-0.075
-0.395
-0.63
-0.775
-0.815
-0.815
-0.805
-0.78
-0.755
-0.78
-0.8
-0.87
-0.935
-0.985
-1.0
-0.985
-0.975
-0.995
-1.0
-1.0
-0.99
-0.99
-0.985
-0.995
-1.01
-1.005
-0.99
-0.945
-0.94
-0.965
-0.98
-0.97
-0.965
-0.96
-0.975
-0.97
-0.995
-1.01
-0.98
-0.98
-0.97
-0.96
-0.96
-0.97
-0.96
-0.94
-0.955
-0.96
-0.98
-0.965
-0.945
-0.94
-0.935
-0.92
-0.925
-0.93
-0.915
-0.895
-0.915
-0.925
-0.935
-0.94
-0.93
-0.88
-0.87
-0.865
-0.855
-0.875
-0.86
-0.865
-0.88
-0.89
-0.9
-0.91
-0.89
-0.845
-0.835
-0.845
-0.865
-0.845
-0.845
-0.835
-0.825
-0.85
-0.865
-0.845
-0.82
-0.805
-0.81
-0.815
-0.815
-0.835
-0.83
-0.81
-0.82
-0.84
-0.87
-0.85
-0.825
-0.8
-0.805
-0.805
-0.82
-0.835
-0.84
-0.84
-0.825
-0.835
-0.855
-0.86
-0.865
-0.845
-0.83
-0.815
-0.825
-0.845
-0.855
-0.855
-0.845
-0.855
-0.865
-0.88
-0.875
-0.87
-0.84
-0.845
-0.845
-0.87
-0.885
-0.915
-0.91
-0.925
-0.93
-0.92
-0.925
-0.91
-0.895
-0.89
-0.905
-0.935
-0.955
-0.955
-0.925
-0.935
-0.935
-0.95
-0.94
-0.93
-0.915
-0.885
-0.905
-0.895
-0.92
-0.925
-0.91
-0.92
-0.915
-0.91
-0.92
-0.9
-0.88
-0.875
-0.87
-0.88
-0.895
-0.895
-0.89
-0.875
-0.88
-0.91
-0.89
-0.88
-0.86
-0.84
-0.835
-0.86
-0.855
-0.855
-0.83
-0.84
-0.84
-0.835
-0.835
-0.815
-0.785
-0.78
-0.75
-0.725
-0.735
-0.72
-0.695
-0.66
-0.645
-0.63
-0.635
-0.645
-0.635
-0.63
-0.605
-0.615
-0.635
-0.65
-0.665
-0.685
-0.695
-0.715
-0.715
-0.72
-0.71
-0.705
-0.71
-0.725
-0.765
-0.805
-0.835
-0.825
-0.835
-0.85
-0.85
-0.875
-0.87
-0.87
-0.86
-0.855
-0.875
-0.88
-0.905
-0.89
-0.88
-0.86
-0.865
-0.87
-0.875
-0.885
-0.87
-0.875
-0.905
-0.985
-1.045
-1.095
-1.1
-1.065
-1.0
-0.885
-0.75
-0.565
-0.34
-0.135
0.025
0.165
0.28
0.39
0.505
0.665
0.78
0.865
0.905
0.885
0.875
0.85
0.78
0.675
0.485
0.195
-0.125
-0.41
-0.59
-0.705
-0.73
-0.74
-0.725
-0.69
-0.665
-0.68
-0.72
-0.8
-0.86
-0.9
-0.92
-0.92
-0.905
-0.92
-0.93
-0.95
-0.935
-0.94
-0.925
-0.915
-0.94
-0.945
-0.94
-0.95
-0.915
-0.885
-0.88
-0.91
-0.92
-0.945
-0.945
-0.935
-0.94
-0.945
-0.925
-0.92
-0.895
-0.895
-0.88
-0.895
-0.905
-0.915
-0.9
-0.9
-0.91
-0.93
-0.935
-0.925
-0.895
-0.875
-0.885
-0.895
-0.91
-0.91
-0.885
-0.865
-0.885
-0.895
-0.89
-0.885
-0.86
-0.83
-0.835
-0.84
-0.85
-0.84
-0.82
-0.82
-0.825
-0.835
-0.825
-0.82
-0.79
-0.77
-0.76
-0.77
-0.785
-0.795
-0.785
-0.775
-0.78
-0.775
-0.79
-0.78
-0.755
-0.75
-0.72
-0.73
-0.755
-0.76
-0.765
-0.74
-0.76
-0.765
-0.765
-0.79
-0.765
-0.735
-0.72
-0.715
-0.725
-0.755
-0.765
-0.765
-0.755
-0.755
-0.765
-0.785
-0.78
-0.755
-0.745
-0.755
-0.775
-0.77
-0.78
-0.775
-0.785
-0.795
-0.81
-0.81
-0.795
-0.775
-0.79
-0.81
-0.815
-0.84
-0.835
-0.83
-0.835
-0.855
-0.85
-0.855
-0.845
-0.84
-0.815
-0.845
-0.87
-0.89
-0.885
-0.88
-0.875
-0.88
-0.875
-0.905
-0.885
-0.86
-0.845
-0.84
-0.865
-0.875
-0.865
-0.845
-0.84
-0.855
-0.88
-0.85
-0.845
-0.815
-0.815
-0.81
-0.83
-0.82
-0.82
-0.805
-0.81
-0.81
-0.825
-0.81
-0.8
-0.765
-0.74
-0.74
-0.76
-0.785
-0.78
-0.775
-0.765
-0.76
-0.755
-0.73
-0.71
-0.66
-0.62
-0.6
-0.605
-0.585
-0.57
-0.57
-0.57
-0.565
-0.6
-0.57
-0.555
-0.55
-0.555
-0.585
-0.61
-0.62
-0.615
-0.615
-0.62
-0.65
-0.68
-0.7
-0.7
-0.705
-0.715
-0.765
-0.775
-0.775
-0.775
-0.77
-0.795
-0.82
-0.83
-0.82
-0.81
-0.795
-0.79
-0.805
-0.84
-0.845
-0.83
-0.83
-0.83
-0.845
-0.855
-0.86
-0.855
-0.89
-0.95
-1.01
-1.045
-1.04
-0.97
-0.835
-0.655
-0.465
-0.25
-0.03
0.185
0.365
0.54
0.68
0.775
0.85
0.915
0.935
0.915
0.86
0.805
0.665
0.455
0.165
-0.165
-0.47
-0.655
-0.76
-0.77
-0.71
-0.67
-0.665
-0.67
-0.695
-0.725
-0.79
-0.845
-0.885
-0.905
-0.91
-0.905
-0.92
-0.94
-0.93
-0.93
-0.89
-0.875
-0.875
-0.87
-0.86
-0.875
-0.875
-0.87
-0.89
-0.91
-0.905
-0.9
-0.865
-0.855
-0.845
-0.85
-0.86
-0.865
-0.87
-0.86
-0.88
-0.91
-0.91
-0.88
-0.87
-0.84
-0.84
-0.855
-0.85
-0.85
-0.855
-0.855
-0.86
-0.9
-0.895
-0.885
-0.85
-0.835
-0.83
-0.82
-0.83
-0.825
-0.815
-0.8
-0.815
-0.82
-0.825
-0.815
-0.81
-0.775
-0.775
-0.775
-0.79
-0.785
-0.785
-0.78
-0.795
-0.8
-0.785
-0.775
-0.745
-0.735
-0.735
-0.755
-0.735
-0.735
-0.73
-0.74
-0.755
-0.77
-0.77
-0.735
-0.72
-0.74
-0.745
-0.74
-0.745
-0.74
-0.745
-0.76
-0.77
-0.795
-0.79
-0.765
-0.75
-0.745
-0.745
-0.765
-0.76
-0.76
-0.755
-0.765
-0.785
-0.805
-0.805
-0.805
-0.785
-0.77
-0.78
-0.78
-0.805
-0.81
-0.81
-0.795
-0.815
-0.84
-0.85
-0.855
-0.835
-0.825
-0.825
-0.83
-0.85
-0.85
-0.86
-0.85
-0.85
-0.87
-0.895
-0.9
-0.875
-0.86
-0.855
-0.86
-0.875
-0.865
-0.87
-0.86
-0.87
-0.885
-0.875
-0.89
-0.85
-0.84
-0.835
-0.84
-0.845
-0.865
-0.835
-0.84
-0.855
-0.885
-0.875
-0.855
-0.835
-0.82
-0.825
-0.82
-0.825
-0.82
-0.8
-0.78
-0.805
-0.82
-0.815
-0.805
-0.775
-0.755
-0.725
-0.705
-0.7
-0.675
-0.665
-0.645
-0.65
-0.64
-0.655
-0.65
-0.655
-0.605
-0.595
-0.6
-0.62
-0.62
-0.655
-0.665
-0.665
-0.67
-0.69
-0.705
-0.705
-0.7
-0.705
-0.725
-0.77
-0.805
-0.835
-0.83
-0.845
-0.85
-0.88
-0.89
-0.89
-0.875
-0.86
-0.85
-0.865
-0.875
-0.885
-0.875
-0.87
-0.895
-0.9
-0.905
-0.915
-0.905
-0.925
-0.96
-1.02
-1.07
-1.095
-1.055
-0.985
-0.855
-0.665
-0.45
-0.23
0.005
0.18
0.31
0.44
0.58
0.69
0.79
0.805
0.815
0.805
0.775
0.715
0.65
0.515
0.3
-0.02
-0.33
-0.59
-0.76
-0.85
-0.855
-0.83
-0.77
-0.73
-0.72
-0.73
-0.795
-0.86
-0.92
-0.94
-0.95
-0.965
-0.975
-0.99
-0.995
-0.965
-0.94
-0.935
-0.95
-0.965
-0.97
-0.985
-0.955
-0.955
-0.975
-0.985
-1.005
-0.97
-0.96
-0.935
-0.93
-0.945
-0.97
-0.96
-0.97
-0.965
-0.955
-0.97
-0.96
-0.95
-0.94
-0.92
-0.915
-0.93
-0.935
-0.925
-0.945
-0.94
-0.945
-0.985
-0.97
-0.92
-0.92
-0.91
-0.89
-0.925
-0.945
-0.94
-0.92
-0.9
-0.89
-0.905
-0.91
-0.905
-0.88
-0.86
-0.85
-0.865
-0.875
-0.88
-0.875
-0.87
-0.86
-0.87
-0.875
-0.88
-0.85
-0.83
-0.81
-0.815
-0.83
-0.845
-0.84
-0.845
-0.83
-0.84
-0.845
-0.85
-0.83
-0.81
-0.81
-0.815
-0.85
-0.86
-0.85
-0.845
-0.855
-0.855
-0.86
-0.86
-0.84
-0.825
-0.815
-0.835
-0.855
-0.87
-0.875
-0.875
-0.89
-0.895
-0.89
-0.885
-0.865
-0.86
-0.855
-0.865
-0.9
-0.91
-0.915
-0.915
-0.935
-0.945
-0.94
-0.915
-0.915
-0.915
-0.93
-0.945
-0.955
-0.94
-0.955
-0.96
-0.98
-1.0
-1.005
-0.985
-0.95
-0.95
-0.955
-0.97
-0.965
-0.975
-0.975
-0.97
-0.985
-0.99
-0.965
-0.955
-0.95
-0.955
-0.955
-0.965
-0.95
-0.945
-0.95
-0.945
-0.945
-0.97
-0.95
-0.935
-0.915
-0.915
-0.915
-0.92
-0.925
-0.91
-0.9
-0.895
-0.925
-0.93
-0.925
-0.9
-0.88
-0.865
-0.835
-0.84
-0.81
-0.785
-0.77
-0.75
-0.74
-0.745
-0.735
-0.715
-0.7
-0.695
-0.68
-0.695
-0.71
-0.7
-0.715
-0.745
-0.765
-0.78
-0.785
-0.76
-0.765
-0.765
-0.79
-0.835
-0.875
-0.875
-0.905
-0.92
-0.935
-0.955
-0.95
-0.95
-0.93
-0.92
-0.93
-0.945
-0.97
-0.95
-0.95
-0.985
-0.975
-0.985
-0.965
-0.955
-0.95
-0.95
-0.96
-1.005
-1.03
-1.08
-1.115
-1.15
-1.155
-1.145
-1.06
-0.9
-0.72
-0.51
-0.31
-0.11
0.075
0.255
0.42
0.565
0.66
0.735
0.78
0.795
0.77
0.725
0.63
0.495
0.29
0.03
-0.295
-0.585
-0.79
-0.93
-0.935
-0.89
-0.825
-0.795
-0.8
-0.835
-0.895
-0.94
-0.995
-1.055
-1.08
-1.1
-1.08
-1.055
-1.045
-1.05
-1.05
-1.05
-1.045
-1.035
-1.025
-1.045
-1.05
-1.05
-1.045
-1.035
-1.015
-1.005
-1.015
-1.03
-1.05
-1.035
-1.03
-1.025
-1.03
-1.05
-1.06
-1.02
-1.015
-1.005
-0.99
-1.015
-1.015
-1.015
-1.025
-1.0
-1.0
-1.02
-1.015
-0.99
-0.975
-0.96
-0.95
-0.97
-0.965
-0.95
-0.95
-0.955
-0.975
-0.98
-0.97
-0.955
-0.91
-0.91
-0.905
-0.91
-0.925
-0.91
-0.9
-0.895
-0.89
-0.91
-0.92
-0.895
-0.87
-0.85
-0.845
-0.865
-0.895
-0.875
-0.855
-0.86
-0.87
-0.88
-0.88
-0.875
-0.85
-0.855
-0.85
-0.855
-0.89
-0.895
-0.89
-0.875
-0.875
-0.895
-0.905
-0.905
-0.895
-0.875
-0.865
-0.87
-0.9
-0.9
-0.92
-0.905
-0.9
-0.925
-0.925
-0.925
-0.915
-0.905
-0.885
-0.88
-0.89
-0.92
-0.94
-0.935
-0.92
-0.925
-0.925
-0.935
-0.955
-0.96
-0.945
-0.93
-0.94
-0.955
-0.985
-0.995
-0.985
-1.0
-1.0
-0.985
-1.01
-1.02
-1.005
-1.0
-1.0
-1.005
-1.03
-1.04
-1.035
-1.03
-1.01
-1.0
-1.025
-1.015
-0.995
-0.985
-0.99
-1.0
-1.025
-1.03
-1.015
-0.995
-0.98
-0.98
-0.985
-0.985
-0.965
-0.955
-0.945
-0.95
-0.98
-0.99
-1.005
-0.99
-0.97
-0.955
-0.945
-0.935
-0.91
-0.915
-0.905
-0.895
-0.91
-0.91
-0.92
-0.915
-0.885
-0.845
-0.8
-0.8
-0.81
-0.78
-0.765
-0.735
-0.71
-0.71
-0.73
-0.75
-0.755
-0.735
-0.72
-0.705
-0.715
-0.735
-0.765
-0.78
-0.775
-0.78
-0.79
-0.805
-0.835
-0.825
-0.835
-0.855
-0.86
-0.9
-0.925
-0.935
-0.95
-0.945
-0.945
-0.965
-0.985
-0.985
-0.98
-0.97
-0.955
-0.975
-0.99
-1.0
-0.99
-0.99
-0.98
-0.995
-1.0
-1.005
-1.015
-1.005
-1.045
-1.09
-1.155
-1.195
-1.18
-1.115
-1.04
-0.91
-0.77
-0.585
-0.37
-0.16
0.015
0.17
0.32
0.42
0.575
0.69
0.765
0.8
0.785
0.74
0.67
0.58
0.425
0.18
-0.145
-0.47
-0.715
-0.885
-0.92
-0.92
-0.895
-0.84
-0.825
-0.815
-0.835
-0.9
-0.95
-1.01
-1.06
-1.07
-1.085
-1.065
-1.075
-1.06
-1.065
-1.065
-1.05
-1.035
-1.035
-1.04
-1.055
-1.06
-1.055
-1.05
-1.03
-1.0
-1.02
-1.035
-1.03
-1.025
-1.01
-1.03
-1.03
-1.06
-1.07
-1.045
-1.035
-1.01
-1.015
-1.005
-1.005
-0.985
-0.99
-1.0
-1.03
-1.02
-1.01
-1.005
-0.995
-0.98
-1.0
-0.99
-0.955
-0.965
-0.965
-0.97
-0.985
-0.995
-0.985
-0.98
-0.945
-0.945
-0.925
-0.935
-0.945
-0.915
-0.91
-0.92
-0.935
-0.94
-0.93
-0.915
-0.895
-0.905
-0.9
-0.895
-0.885
-0.87
-0.86
-0.88
-0.9
-0.895
-0.895
-0.885
-0.885
-0.875
-0.875
-0.87
-0.875
-0.85
-0.855
-0.865
-0.895
-0.89
-0.91
-0.895
-0.885
-0.875
-0.87
-0.89
-0.89
-0.89
-0.875
-0.875
-0.89
-0.915
-0.92
-0.915
-0.905
-0.92
-0.915
-0.9
-0.895
-0.9
-0.895
-0.905
-0.945
-0.95
-0.945
-0.955
-0.97
-0.98
-0.975
-0.97
-0.965
-0.95
-0.94
-0.98
-1.01
-1.03
-1.03
-1.025
-1.02
-1.02
-1.025
-1.02
-1.01
-1.0
-1.02
-1.005
-1.035
-1.03
-1.025
-1.005
-1.01
-1.015
-1.035
-1.015
-0.99
-0.975
-0.98
-0.98
-1.0
-1.015
-1.01
-1.005
-1.0
-0.98
-0.995
-0.99
-1.0
-0.95
-0.955
-0.96
-0.98
-0.98
-0.95
-0.925
-0.92
-0.915
-0.92
-0.91
-0.905
-0.86
-0.845
-0.845
-0.85
-0.85
-0.815
-0.795
-0.76
-0.73
-0.74
-0.73
-0.71
-0.725
-0.725
-0.745
-0.775
-0.765
-0.78
-0.81
-0.81
-0.82
-0.805
-0.805
-0.825
-0.845
-0.89
-0.915
-0.935
-0.945
-0.95
-0.97
-0.99
-1.0
-0.975
-0.96
-0.98
-0.995
-1.01
-1.0
-0.99
-0.99
-1.005
-1.02
-1.03
-1.015
-1.0
-1.0
-1.015
-1.04
-1.09
-1.155
-1.195
-1.21
-1.2
-1.15
-1.045
-0.905
-0.71
-0.485
-0.27
-0.075
0.07
0.24
0.39
0.555
0.675
0.745
0.76
0.78
0.775
0.745
0.69
0.595
0.405
0.16
-0.16
-0.465
-0.68
-0.845
-0.925
-0.925
-0.89
-0.825
-0.805
-0.835
-0.9
-0.965
-1.03
-1.06
-1.085
-1.105
-1.13
-1.125
-1.075
-1.055
-1.04
-1.05
-1.07
-1.075
-1.085
-1.055
-1.045
-1.05
-1.06
-1.075
-1.05
-1.04
-1.03
-1.035
-1.065
-1.06
-1.05
-1.045
-1.045
-1.065
-1.09
-1.075
-1.055
-1.03
-1.01
-1.01
-1.015
-1.04
-1.035
-1.035
-1.02
-1.02
-1.04
-1.03
-0.995
-0.995
-0.975
-0.975
-0.975
-0.99
-0.995
-0.98
-0.975
-0.97
-0.985
-0.99
-0.98
-0.96
-0.93
-0.915
-0.92
-0.93
-0.94
-0.935
-0.91
-0.92
-0.935
-0.925
-0.92
-0.905
-0.89
-0.885
-0.9
-0.905
-0.91
-0.9
-0.89
-0.9
-0.9
-0.895
-0.885
-0.87
-0.87
-0.865
-0.87
-0.88
-0.885
-0.895
-0.89
-0.92
-0.925
-0.935
-0.91
-0.885
-0.885
-0.895
-0.915
-0.92
-0.915
-0.905
-0.935
-0.945
-0.955
-0.965
-0.93
-0.915
-0.915
-0.92
-0.95
-0.945
-0.945
-0.94
-0.93
-0.97
-0.99
-0.995
-0.975
-0.96
-0.955
-0.96
-0.98
-1.01
-1.01
-1.035
-1.015
-1.015
-1.03
-1.035
-1.045
-1.03
-1.025
-1.015
-1.005
-1.02
-1.08
-1.055
-1.065
-1.05
-1.035
-1.015
-1.03
-1.02
-1.0
-0.995
-0.995
-1.01
-1.02
-1.01
-1.015
-1.02
-1.01
-1.015
-1.005
-0.99
-0.975
-0.96
-0.975
-0.97
-0.995
-1.0
-0.99
-0.975
-0.96
-0.96
-0.935
-0.95
-0.915
-0.9
-0.9
-0.91
-0.935
-0.94
-0.91
-0.875
-0.84
-0.84
-0.815
-0.8
-0.77
-0.725
-0.71
-0.72
-0.74
-0.75
-0.75
-0.755
-0.755
-0.74
-0.745
-0.74
-0.77
-0.775
-0.77
-0.77
-0.795
-0.82
-0.865
-0.87
-0.895
-0.905
-0.93
-0.94
-0.955
-0.96
-0.95
-0.965
-0.99
-1.01
-1.04
-1.045
-1.01
-1.0
-1.005
-1.0
-1.005
-1.015
-1.0
-0.995
-0.995
-1.005
-1.04
-1.055
-1.07
-1.105
-1.16
-1.22
-1.225
-1.16
-1.08
-0.95
-0.795
-0.6
-0.415
-0.235
-0.06
0.115
0.28
0.43
0.555
0.675
0.77
0.815
0.805
0.795
0.71
0.615
0.45
0.21
-0.105
-0.415
-0.68
-0.825
-0.88
-0.865
-0.84
-0.795
-0.79
-0.8
-0.83
-0.87
-0.925
-0.955
-1.005
-1.04
-1.065
-1.06
-1.07
-1.085
-1.08
-1.11
-1.1
-1.09
-1.05
-1.04
-1.055
-1.055
-1.055
-1.045
-1.05
-1.045
-1.055
-1.07
-1.065
-1.08
-1.045
-1.035
-1.03
-1.05
-1.04
-1.055
-1.045
-1.05
-1.055
-1.075
-1.07
-1.045
-1.035
-1.035
-1.04
-1.01
-0.995
-0.985
-0.99
-1.01
-1.025
-1.015
-1.0
-0.99
-0.975
-0.975
-0.965
-0.955
-0.935
-0.945
-0.97
-0.97
-0.97
-0.965
-0.955
-0.94
-0.935
-0.945
-0.925
-0.91
-0.88
-0.89
-0.89
-0.925
-0.92
-0.915
-0.875
-0.87
-0.865
-0.875
-0.885
-0.85
-0.85
-0.845
-0.86
-0.885
-0.885
-0.88
-0.865
-0.855
-0.875
-0.875
-0.87
-0.875
-0.86
-0.865
-0.875
-0.88
-0.89
-0.89
-0.875
-0.87
-0.86
-0.885
-0.87
-0.89
-0.865
-0.88
-0.89
-0.895
-0.91
-0.915
-0.915
-0.92
-0.94
-0.945
-0.905
-0.895
-0.9
-0.9
-0.94
-0.95
-0.95
-0.955
-0.94
-0.96
-0.97
-0.965
-0.965
-0.935
-0.945
-0.96
-0.99
-0.99
-0.98
-0.99
-0.995
-0.99
-0.99
-0.98
-0.97
-0.95
-0.955
-0.975
-0.97
-0.985
-0.965
-0.95
-0.95
-0.97
-0.96
-0.955
-0.94
-0.925
-0.945
-0.965
-0.97
-0.955
-0.93
-0.915
-0.915
-0.92
-0.925
-0.9
-0.89
-0.87
-0.865
-0.88
-0.905
-0.895
-0.885
-0.845
-0.835
-0.825
-0.805
-0.76
-0.71
-0.695
-0.69
-0.695
-0.7
-0.68
-0.675
-0.675
-0.7
-0.71
-0.715
-0.715
-0.72
-0.73
-0.745
-0.775
-0.775
-0.79
-0.82
-0.85
-0.885
-0.91
-0.91
-0.91
-0.925
-0.915
-0.945
-0.94
-0.94
-0.935
-0.93
-0.945
-0.96
-0.95
-0.925
-0.905
-0.915
-0.905
-0.925
-0.945
-0.95
-0.97
-1.01
-1.065
-1.135
-1.18
-1.19
-1.13
-1.045
-0.92
-0.775
-0.555
-0.335
-0.12
0.07
0.23
0.42
0.575
0.72
0.81
0.86
0.86
0.825
0.775
0.69
0.56
0.34
0.04
-0.3
-0.56
-0.725
-0.82
-0.845
-0.815
-0.795
-0.76
-0.76
-0.785
-0.845
-0.93
-0.97
-0.97
-0.97
-0.975
-0.985
-0.985
-0.995
-0.995
-0.985
-0.975
-0.975
-0.99
-0.99
-0.985
-0.98
-0.975
-0.98
-0.98
-0.99
-0.99
-0.975
-0.975
-0.98
-0.995
-0.995
-0.985
-0.945
-0.94
-0.95
-0.965
-0.98
-0.985
-0.98
-0.945
-0.945
-0.95
-0.965
-0.96
-0.95
-0.92
-0.9
-0.91
-0.92
-0.93
-0.935
-0.935
-0.935
-0.935
-0.95
-0.97
-0.94
-0.91
-0.885
-0.87
-0.87
-0.88
-0.905
-0.91
-0.885
-0.85
-0.85
-0.875
-0.87
-0.855
-0.825
-0.835
-0.81
-0.835
-0.855
-0.86
-0.85
-0.84
-0.86
-0.855
-0.84
-0.835
-0.805
-0.785
-0.79
-0.81
-0.82
-0.835
-0.815
-0.815
-0.815
-0.845
-0.845
-0.84
-0.81
-0.78
-0.79
-0.82
-0.82
-0.855
-0.845
-0.82
-0.825
-0.82
-0.83
-0.825
-0.82
-0.795
-0.785
-0.79
-0.825
-0.85
-0.855
-0.84
-0.825
-0.83
-0.835
-0.845
-0.845
-0.825
-0.83
-0.825
-0.84
-0.865
-0.88
-0.905
-0.885
-0.875
-0.885
-0.885
-0.9
-0.885
-0.885
-0.87
-0.89
-0.92
-0.95
-0.96
-0.92
-0.915
-0.91
-0.905
-0.9
-0.89
-0.9
-0.885
-0.9
-0.92
-0.93
-0.93
-0.93
-0.91
-0.905
-0.9
-0.9
-0.885
-0.88
-0.875
-0.89
-0.905
-0.92
-0.905
-0.885
-0.875
-0.855
-0.835
-0.845
-0.83
-0.82
-0.82
-0.815
-0.83
-0.85
-0.83
-0.795
-0.77
-0.74
-0.725
-0.71
-0.695
-0.67
-0.66
-0.64
-0.64
-0.66
-0.66
-0.655
-0.625
-0.625
-0.625
-0.655
-0.67
-0.69
-0.68
-0.69
-0.7
-0.725
-0.74
-0.745
-0.77
-0.76
-0.78
-0.81
-0.835
-0.855
-0.845
-0.855
-0.86
-0.865
-0.895
-0.935
-0.92
-0.885
-0.88
-0.875
-0.885
-0.91
-0.915
-0.91
-0.905
-0.91
-0.935
-0.94
-0.945
-0.96
-0.96
-0.985
-1.055
-1.11
-1.135
-1.095
-1.005
-0.875
-0.7
-0.485
-0.27
-0.04
0.175
0.325
0.47
0.6
0.695
0.765
0.805
0.795
0.785
0.725
0.655
0.58
0.435
0.17
-0.13
-0.445
-0.67
-0.81
-0.845
-0.845
-0.805
-0.785
-0.78
-0.78
-0.795
-0.845
-0.9
-0.955
-0.985
-0.99
-0.985
-1.005
-0.995
-1.025
-1.03
-1.0
-0.99
-0.975
-0.975
-0.99
-0.995
-0.985
-0.97
-0.975
-1.005
-1.01
-1.035
-1.0
-0.965
-0.955
-0.965
-0.965
-0.965
-0.97
-0.975
-0.99
-0.975
-0.995
-0.975
-0.955
-0.95
-0.955
-0.945
-0.945
-0.945
-0.935
-0.95
-0.955
-0.95
-0.945
-0.93
-0.92
-0.945
-0.93
-0.92
-0.905
-0.885
-0.895
-0.91
-0.92
-0.9
-0.89
-0.88
-0.88
-0.885
-0.875
-0.87
