Lead II
-0.39
-0.385
-0.385
-0.395
-0.395
-0.41
-0.39
-0.38
-0.38
-0.385
-0.41
-0.405
-0.4
-0.39
-0.4
-0.395
-0.405
-0.41
-0.4
-0.395
-0.395
-0.395
-0.415
-0.42
-0.39
-0.385
-0.38
-0.37
-0.38
-0.37
-0.35
-0.325
-0.325
-0.315
-0.32
-0.32
-0.305
-0.3
-0.31
-0.29
-0.295
-0.3
-0.29
-0.275
-0.265
-0.255
-0.27
-0.285
-0.29
-0.28
-0.305
-0.32
-0.345
-0.355
-0.33
-0.305
-0.305
-0.31
-0.335
-0.36
-0.35
-0.355
-0.36
-0.38
-0.38
-0.4
-0.405
-0.405
-0.405
-0.41
-0.43
-0.44
-0.44
-0.425
-0.42
-0.42
-0.435
-0.45
-0.43
-0.43
-0.44
-0.445
-0.435
-0.45
-0.435
-0.44
-0.425
-0.435
-0.44
-0.445
-0.445
-0.455
-0.5
-0.57
-0.625
-0.625
-0.55
-0.475
-0.365
-0.135
0.215
0.625
1.02
1.38
1.68
1.855
1.88
1.715
1.315
0.74
0.155
-0.28
-0.5
-0.56
-0.55
-0.48
-0.405
-0.33
-0.325
-0.36
-0.38
-0.38
-0.385
-0.4
-0.41
-0.43
-0.445
-0.44
-0.445
-0.45
-0.465
-0.475
-0.47
-0.475
-0.48
-0.485
-0.485
-0.47
-0.465
-0.465
-0.465
-0.48
-0.485
-0.48
-0.47
-0.465
-0.46
-0.46
-0.465
-0.475
-0.465
-0.455
-0.44
-0.45
-0.45
-0.455
-0.44
-0.42
-0.425
-0.42
-0.425
-0.43
-0.4
-0.39
-0.39
-0.38
-0.39
-0.375
-0.355
-0.325
-0.33
-0.325
-0.31
-0.305
-0.265
-0.245
-0.23
-0.215
-0.21
-0.195
-0.17
-0.14
-0.115
-0.11
-0.09
-0.095
-0.055
-0.025
-0.02
-0.015
-0.01
0.0
0.035
0.045
0.07
0.07
0.06
0.055
0.065
0.08
0.085
0.08
0.06
0.065
0.065
0.05
0.04
0.02
0.005
-0.025
-0.03
-0.04
-0.07
-0.11
-0.125
-0.155
-0.18
-0.185
-0.205
-0.23
-0.245
-0.265
-0.27
-0.27
-0.285
-0.295
-0.305
-0.32
-0.31
-0.305
-0.31
-0.31
-0.32
-0.325
-0.325
-0.315
-0.325
-0.325
-0.32
-0.33
-0.315
-0.31
-0.32
-0.32
-0.335
-0.335
-0.325
-0.31
-0.3
-0.305
-0.31
-0.325
-0.31
-0.295
-0.29
-0.29
-0.3
-0.29
-0.28
-0.27
-0.285
-0.28
-0.28
-0.305
-0.285
-0.27
-0.275
-0.275
-0.28
-0.295
-0.27
-0.28
-0.275
-0.27
-0.28
-0.285
-0.275
-0.28
-0.28
-0.29
-0.3
-0.305
-0.29
-0.295
-0.285
-0.29
-0.31
-0.325
-0.31
-0.3
-0.3
-0.31
-0.325
-0.335
-0.32
-0.3
-0.305
-0.325
-0.345
-0.335
-0.335
-0.34
-0.325
-0.33
-0.355
-0.355
-0.345
-0.335
-0.325
-0.345
-0.355
-0.36
-0.35
-0.34
-0.35
-0.345
-0.35
-0.375
-0.365
-0.355
-0.355
-0.37
-0.375
-0.38
-0.385
-0.37
-0.365
-0.38
-0.38
-0.38
-0.37
-0.365
-0.355
-0.375
-0.385
-0.385
-0.375
-0.37
-0.355
-0.375
-0.37
-0.38
-0.37
-0.35
-0.335
-0.32
-0.32
-0.32
-0.32
-0.29
-0.295
-0.285
-0.285
-0.3
-0.28
-0.26
-0.245
-0.26
-0.27
-0.27
-0.255
-0.245
-0.245
-0.265
-0.275
-0.285
-0.295
-0.305
-0.315
-0.315
-0.315
-0.315
-0.305
-0.295
-0.29
-0.31
-0.33
-0.35
-0.345
-0.345
-0.35
-0.375
-0.39
-0.4
-0.395
-0.4
-0.41
-0.41
-0.42
-0.42
-0.42
-0.41
-0.415
-0.42
-0.43
-0.435
-0.43
-0.415
-0.42
-0.42
-0.42
-0.435
-0.43
-0.42
-0.415
-0.415
-0.425
-0.445
-0.485
-0.535
-0.575
-0.58
-0.535
-0.465
-0.35
-0.13
0.19
0.56
0.895
1.245
1.545
1.73
1.76
1.61
1.245
0.73
0.22
-0.17
-0.41
-0.515
-0.55
-0.53
-0.45
-0.355
-0.305
-0.33
-0.375
-0.41
-0.4
-0.4
-0.4
-0.4
-0.42
-0.44
-0.445
-0.435
-0.435
-0.465
-0.46
-0.465
-0.45
-0.43
-0.445
-0.445
-0.455
-0.46
-0.46
-0.45
-0.45
-0.46
-0.465
-0.46
-0.455
-0.445
-0.445
-0.445
-0.45
-0.46
-0.44
-0.435
-0.435
-0.435
-0.44
-0.44
-0.43
-0.43
-0.435
-0.425
-0.415
-0.4
-0.4
-0.385
-0.375
-0.37
-0.375
-0.37
-0.355
-0.33
-0.31
-0.31
-0.3
-0.305
-0.29
-0.27
-0.255
-0.235
-0.23
-0.215
-0.19
-0.16
-0.145
-0.13
-0.125
-0.12
-0.1
-0.065
-0.05
-0.045
-0.04
-0.02
-0.005
0.01
0.02
0.03
0.025
0.03
0.045
0.06
0.07
0.06
0.05
0.045
0.045
0.04
0.045
0.035
0.0
0.015
0.005
-0.01
-0.03
-0.065
-0.11
-0.125
-0.15
-0.15
-0.165
-0.175
-0.2
-0.23
-0.225
-0.23
-0.24
-0.26
-0.265
-0.28
-0.28
-0.27
-0.275
-0.29
-0.3
-0.31
-0.315
-0.3
-0.305
-0.31
-0.3
-0.295
-0.29
-0.295
-0.3
-0.3
-0.31
-0.31
-0.3
-0.28
-0.285
-0.29
-0.295
-0.295
-0.28
-0.27
-0.27
-0.285
-0.295
-0.285
-0.275
-0.265
-0.255
-0.26
-0.26
-0.27
-0.255
-0.245
-0.255
-0.24
-0.27
-0.27
-0.26
-0.25
-0.25
-0.245
-0.255
-0.26
-0.24
-0.235
-0.26
-0.255
-0.26
-0.27
-0.26
-0.26
-0.26
-0.27
-0.26
-0.265
-0.27
-0.275
-0.26
-0.275
-0.29
-0.28
-0.275
-0.27
-0.28
-0.29
-0.32
-0.325
-0.31
-0.31
-0.31
-0.315
-0.315
-0.33
-0.315
-0.31
-0.31
-0.325
-0.335
-0.355
-0.34
-0.345
-0.33
-0.33
-0.34
-0.34
-0.34
-0.325
-0.335
-0.335
-0.36
-0.36
-0.345
-0.345
-0.345
-0.345
-0.35
-0.345
-0.345
-0.33
-0.33
-0.33
-0.35
-0.345
-0.34
-0.325
-0.315
-0.32
-0.32
-0.305
-0.3
-0.27
-0.26
-0.255
-0.27
-0.28
-0.265
-0.255
-0.24
-0.23
-0.235
-0.23
-0.225
-0.225
-0.225
-0.23
-0.225
-0.245
-0.245
-0.23
-0.245
-0.255
-0.275
-0.275
-0.28
-0.265
-0.255
-0.25
-0.27
-0.275
-0.28
-0.285
-0.305
-0.325
-0.325
-0.34
-0.34
-0.35
-0.34
-0.365
-0.37
-0.38
-0.37
-0.385
-0.38
-0.375
-0.395
-0.395
-0.38
-0.375
-0.37
-0.38
-0.39
-0.39
-0.375
-0.375
-0.36
-0.365
-0.385
-0.39
-0.385
-0.36
-0.37
-0.37
-0.39
-0.425
-0.47
-0.505
-0.52
-0.485
-0.425
-0.365
-0.26
-0.07
0.2
0.52
0.825
1.125
1.425
1.635
1.73
1.695
1.485
1.095
0.64
0.235
-0.13
-0.38
-0.525
-0.545
-0.5
-0.4
-0.305
-0.285
-0.315
-0.355
-0.36
-0.34
-0.35
-0.355
-0.365
-0.38
-0.385
-0.385
-0.395
-0.395
-0.41
-0.42
-0.41
-0.41
-0.395
-0.41
-0.42
-0.435
-0.425
-0.41
-0.41
-0.415
-0.425
-0.43
-0.415
-0.405
-0.4
-0.415
-0.425
-0.43
-0.415
-0.4
-0.395
-0.4
-0.395
-0.4
-0.39
-0.385
-0.39
-0.38
-0.385
-0.39
-0.385
-0.37
-0.365
-0.355
-0.35
-0.355
-0.345
-0.33
-0.325
-0.325
-0.325
-0.31
-0.29
-0.265
-0.245
-0.245
-0.245
-0.23
-0.195
-0.185
-0.17
-0.155
-0.135
-0.12
-0.1
-0.085
-0.065
-0.065
-0.045
-0.035
-0.005
0.01
0.02
0.03
0.035
0.025
0.055
0.075
0.09
0.09
0.085
0.085
0.105
0.115
0.11
0.11
0.095
0.085
0.085
0.1
0.075
0.07
0.05
0.03
0.02
0.015
-0.02
-0.035
-0.075
-0.09
-0.11
-0.115
-0.14
-0.155
-0.165
-0.19
-0.195
-0.205
-0.21
-0.23
-0.245
-0.255
-0.245
-0.24
-0.245
-0.255
-0.265
-0.275
-0.265
-0.26
-0.255
-0.25
-0.27
-0.275
-0.26
-0.25
-0.25
-0.255
-0.26
-0.265
-0.265
-0.255
-0.26
-0.255
-0.245
-0.26
-0.245
-0.245
-0.24
-0.235
-0.23
-0.235
-0.23
-0.225
-0.22
-0.22
-0.225
-0.22
-0.215
-0.21
-0.21
-0.22
-0.21
-0.205
-0.21
-0.2
-0.195
-0.195
-0.21
-0.215
-0.21
-0.2
-0.19
-0.195
-0.205
-0.205
-0.22
-0.215
-0.215
-0.21
-0.225
-0.22
-0.215
-0.21
-0.21
-0.215
-0.23
-0.23
-0.23
-0.23
-0.24
-0.25
-0.26
-0.26
-0.25
-0.245
-0.25
-0.27
-0.27
-0.27
-0.27
-0.26
-0.26
-0.27
-0.285
-0.295
-0.28
-0.28
-0.28
-0.285
-0.285
-0.295
-0.3
-0.28
-0.28
-0.29
-0.3
-0.305
-0.295
-0.295
-0.29
-0.29
-0.305
-0.295
-0.3
-0.29
-0.285
-0.29
-0.305
-0.31
-0.3
-0.28
-0.275
-0.275
-0.285
-0.275
-0.27
-0.235
-0.23
-0.22
-0.23
-0.24
-0.21
-0.205
-0.195
-0.195
-0.205
-0.205
-0.195
-0.185
-0.18
-0.18
-0.185
-0.185
-0.185
-0.205
-0.205
-0.225
-0.245
-0.25
-0.225
-0.21
-0.215
-0.225
-0.24
-0.26
-0.27
-0.27
-0.27
-0.29
-0.305
-0.335
-0.33
-0.315
-0.33
-0.33
-0.345
-0.35
-0.35
-0.345
-0.345
-0.35
-0.355
-0.365
-0.36
-0.36
-0.35
-0.36
-0.37
-0.365
-0.355
-0.35
-0.35
-0.35
-0.36
-0.375
-0.37
-0.365
-0.41
-0.475
-0.535
-0.535
-0.475
-0.39
-0.255
-0.045
0.285
0.69
1.11
1.49
1.78
1.935
1.935
1.73
1.31
0.745
0.18
-0.225
-0.46
-0.515
-0.48
-0.415
-0.325
-0.265
-0.26
-0.29
-0.315
-0.325
-0.32
-0.325
-0.33
-0.355
-0.365
-0.37
-0.375
-0.385
-0.39
-0.395
-0.395
-0.395
-0.39
-0.4
-0.395
-0.395
-0.385
-0.385
-0.385
-0.385
-0.395
-0.4
-0.395
-0.395
-0.39
-0.385
-0.39
-0.39
-0.375
-0.37
-0.37
-0.37
-0.375
-0.37
-0.37
-0.35
-0.34
-0.35
-0.34
-0.335
-0.33
-0.31
-0.305
-0.31
-0.29
-0.295
-0.275
-0.26
-0.245
-0.235
-0.215
-0.22
-0.185
-0.165
-0.15
-0.13
-0.12
-0.105
-0.075
-0.045
-0.02
-0.01
0.005
0.015
0.04
0.06
0.075
0.08
0.09
0.09
0.125
0.14
0.15
0.155
0.145
0.15
0.165
0.175
0.185
0.18
0.17
0.15
0.145
0.135
0.115
0.105
0.07
0.05
0.035
0.035
0.005
-0.025
-0.055
-0.1
-0.105
-0.12
-0.14
-0.16
-0.17
-0.195
-0.185
-0.2
-0.205
-0.21
-0.225
-0.245
-0.23
-0.23
-0.23
-0.225
-0.24
-0.26
-0.245
-0.235
-0.235
-0.24
-0.24
-0.24
-0.235
-0.225
-0.22
-0.235
-0.23
-0.24
-0.23
-0.215
-0.215
-0.215
-0.23
-0.23
-0.23
-0.205
-0.2
-0.205
-0.22
-0.22
-0.205
-0.195
-0.195
-0.195
-0.205
-0.21
-0.21
-0.195
-0.185
-0.185
-0.2
-0.21
-0.205
-0.19
-0.18
-0.2
-0.215
-0.21
-0.2
-0.2
-0.2
-0.2
-0.215
-0.225
-0.22
-0.21
-0.2
-0.21
-0.225
-0.225
-0.23
-0.225
-0.23
-0.235
-0.24
-0.26
-0.25
-0.24
-0.235
-0.245
-0.26
-0.265
-0.255
-0.255
-0.255
-0.265
-0.285
-0.285
-0.28
-0.26
-0.26
-0.265
-0.285
-0.285
-0.28
-0.295
-0.285
-0.275
-0.295
-0.295
-0.28
-0.29
-0.3
-0.285
-0.305
-0.305
-0.29
-0.285
-0.3
-0.3
-0.305
-0.31
-0.29
-0.295
-0.285
-0.295
-0.29
-0.285
-0.27
-0.255
-0.245
-0.23
-0.235
-0.23
-0.225
-0.205
-0.205
-0.205
-0.205
-0.2
-0.19
-0.195
-0.195
-0.18
-0.18
-0.18
-0.2
-0.18
-0.21
-0.215
-0.25
-0.265
-0.24
-0.225
-0.215
-0.215
-0.24
-0.26
-0.265
-0.26
-0.285
-0.295
-0.31
-0.335
-0.335
-0.33
-0.345
-0.35
-0.375
-0.38
-0.36
-0.355
-0.35
-0.36
-0.38
-0.385
-0.375
-0.37
-0.36
-0.36
-0.37
-0.365
-0.37
-0.365
-0.37
-0.375
-0.39
-0.435
-0.49
-0.55
-0.535
-0.485
-0.405
-0.245
0.09
0.53
0.975
1.37
1.7
1.9
1.94
1.75
1.22
0.58
-0.06
-0.43
-0.52
-0.495
-0.435
-0.335
-0.28
-0.29
-0.325
-0.345
-0.34
-0.345
-0.355
-0.38
-0.385
-0.385
-0.4
-0.405
-0.405
-0.43
-0.42
-0.425
-0.415
-0.425
-0.425
-0.43
-0.42
-0.415
-0.425
-0.435
-0.43
-0.435
-0.42
-0.41
-0.41
-0.41
-0.415
-0.42
-0.42
-0.4
-0.405
-0.41
-0.41
-0.405
-0.39
-0.38
-0.365
-0.365
-0.375
-0.37
-0.365
-0.35
-0.325
-0.33
-0.325
-0.325
-0.295
-0.275
-0.265
-0.24
-0.24
-0.23
-0.195
-0.175
-0.145
-0.135
-0.13
-0.105
-0.085
-0.06
-0.035
-0.02
-0.015
-0.01
0.015
0.03
0.06
0.08
0.07
0.085
0.1
0.105
0.12
0.115
0.115
0.12
0.125
0.135
0.13
0.115
0.095
0.085
0.07
0.065
0.05
0.015
-0.005
-0.025
-0.05
-0.065
-0.085
-0.13
-0.145
-0.17
-0.18
-0.195
-0.21
-0.23
-0.25
-0.255
-0.26
-0.26
-0.265
-0.28
-0.285
-0.29
-0.285
-0.275
-0.28
-0.29
-0.295
-0.305
-0.29
-0.29
-0.29
-0.29
-0.295
-0.3
-0.285
-0.28
-0.29
-0.29
-0.285
-0.285
-0.28
-0.245
-0.245
-0.265
-0.265
-0.275
-0.27
-0.255
-0.26
-0.255
-0.265
-0.265
-0.27
-0.26
-0.255
-0.25
-0.265
-0.255
-0.25
-0.245
-0.24
-0.24
-0.25
-0.25
-0.245
-0.235
-0.24
-0.245
-0.26
-0.26
-0.26
-0.25
-0.25
-0.26
-0.275
-0.27
-0.27
-0.27
-0.27
-0.27
-0.28
-0.29
-0.29
-0.29
-0.29
-0.295
-0.295
-0.295
-0.3
-0.295
-0.305
-0.31
-0.315
-0.32
-0.325
-0.315
-0.31
-0.33
-0.34
-0.34
-0.325
-0.325
-0.32
-0.325
-0.34
-0.335
-0.335
-0.32
-0.33
-0.335
-0.345
-0.345
-0.34
-0.33
-0.33
-0.345
-0.36
-0.37
-0.355
-0.335
-0.335
-0.34
-0.335
-0.345
-0.33
-0.315
-0.305
-0.31
-0.29
-0.28
-0.265
-0.245
-0.265
-0.26
-0.265
-0.25
-0.235
-0.22
-0.225
-0.255
-0.255
-0.245
-0.245
-0.23
-0.245
-0.275
-0.28
-0.3
-0.285
-0.26
-0.255
-0.26
-0.275
-0.295
-0.305
-0.315
-0.33
-0.33
-0.355
-0.355
-0.365
-0.36
-0.37
-0.375
-0.39
-0.4
-0.4
-0.39
-0.39
-0.39
-0.4
-0.4
-0.39
-0.39
-0.395
-0.415
-0.42
-0.415
-0.405
-0.395
-0.395
-0.385
-0.405
-0.415
-0.42
-0.48
-0.54
-0.575
-0.555
-0.49
-0.38
-0.22
0.04
0.38
0.745
1.1
1.445
1.705
1.84
1.765
1.465
0.94
0.37
-0.085
-0.375
-0.515
-0.545
-0.52
-0.425
-0.325
-0.295
-0.33
-0.37
-0.39
-0.38
-0.365
-0.37
-0.38
-0.405
-0.425
-0.425
-0.425
-0.43
-0.44
-0.44
-0.445
-0.43
-0.425
-0.425
-0.445
-0.435
-0.45
-0.43
-0.43
-0.435
-0.445
-0.44
-0.44
-0.43
-0.43
-0.43
-0.43
-0.435
-0.445
-0.43
-0.41
-0.41
-0.41
-0.42
-0.415
-0.415
-0.4
-0.4
-0.4
-0.405
-0.39
-0.38
-0.36
-0.36
-0.36
-0.365
-0.355
-0.345
-0.305
-0.3
-0.295
-0.29
-0.295
-0.27
-0.24
-0.23
-0.215
-0.205
-0.18
-0.16
-0.13
-0.12
-0.095
-0.09
-0.085
-0.07
-0.045
-0.025
-0.02
-0.02
-0.01
0.005
0.025
0.035
0.03
0.035
0.045
0.06
0.075
0.07
0.055
0.05
0.04
0.04
0.045
0.035
0.015
0.005
-0.02
-0.055
-0.055
-0.085
-0.105
-0.135
-0.145
-0.155
-0.165
-0.175
-0.205
-0.215
-0.235
-0.24
-0.235
-0.255
-0.27
-0.27
-0.28
-0.295
-0.28
-0.3
-0.3
-0.31
-0.305
-0.295
-0.29
-0.29
-0.295
-0.31
-0.305
-0.295
-0.29
-0.295
-0.29
-0.3
-0.3
-0.3
-0.285
-0.285
-0.29
-0.295
-0.295
-0.29
-0.275
-0.27
-0.265
-0.285
-0.285
-0.275
-0.28
-0.275
-0.265
-0.26
-0.275
-0.27
-0.25
-0.27
-0.27
-0.265
-0.275
-0.27
-0.25
-0.245
-0.24
-0.27
-0.265
-0.27
-0.255
-0.255
-0.26
-0.275
-0.28
-0.285
-0.28
-0.265
-0.285
-0.285
-0.295
-0.285
-0.28
-0.28
-0.29
-0.295
-0.32
-0.31
-0.305
-0.315
-0.315
-0.31
-0.325
-0.325
-0.315
-0.315
-0.335
-0.34
-0.335
-0.335
-0.325
-0.335
-0.34
-0.345
-0.35
-0.35
-0.34
-0.335
-0.34
-0.345
-0.355
-0.34
-0.34
-0.34
-0.345
-0.34
-0.36
-0.34
-0.345
-0.345
-0.34
-0.355
-0.345
-0.31
-0.295
-0.28
-0.29
-0.29
-0.28
-0.265
-0.26
-0.255
-0.24
-0.235
-0.245
-0.25
-0.25
-0.24
-0.24
-0.245
-0.255
-0.255
-0.27
-0.29
-0.3
-0.3
-0.3
-0.28
-0.265
-0.26
-0.28
-0.31
-0.33
-0.34
-0.335
-0.34
-0.35
-0.35
-0.36
-0.36
-0.365
-0.37
-0.385
-0.405
-0.395
-0.395
-0.39
-0.38
-0.39
-0.4
-0.41
-0.4
-0.39
-0.395
-0.4
-0.385
-0.41
-0.385
-0.38
-0.38
-0.385
-0.4
-0.4
-0.41
-0.425
-0.485
-0.52
-0.535
-0.49
-0.41
-0.31
-0.14
0.145
0.49
0.86
1.215
1.515
1.705
1.765
1.68
1.365
0.885
0.365
-0.065
-0.365
-0.52
-0.55
-0.52
-0.435
-0.34
-0.285
-0.315
-0.335
-0.355
-0.365
-0.345
-0.36
-0.365
-0.375
-0.39
-0.395
-0.4
-0.4
-0.405
-0.42
-0.41
-0.415
-0.41
-0.425
-0.425
-0.435
-0.425
-0.435
-0.425
-0.425
-0.45
-0.435
-0.42
-0.42
-0.415
-0.42
-0.43
-0.43
-0.405
-0.4
-0.405
-0.41
-0.41
-0.405
-0.405
-0.39
-0.385
-0.375
-0.38
-0.385
-0.37
-0.35
-0.355
-0.34
-0.36
-0.345
-0.32
-0.305
-0.295
-0.295
-0.295
-0.29
-0.27
-0.245
-0.22
-0.215
-0.205
-0.195
-0.17
-0.14
-0.125
-0.115
-0.105
-0.09
-0.055
-0.035
-0.03
-0.01
0.0
0.005
0.025
0.05
0.06
0.065
0.05
0.07
0.08
0.105
0.115
0.11
0.1
0.1
0.115
0.105
0.095
0.095
0.09
0.055
0.05
0.04
0.015
0.005
-0.03
-0.055
-0.08
-0.085
-0.115
-0.125
-0.145
-0.18
-0.19
-0.195
-0.2
-0.225
-0.23
-0.25
-0.255
-0.245
-0.245
-0.255
-0.275
-0.27
-0.265
-0.255
-0.27
-0.27
-0.28
-0.295
-0.28
-0.275
-0.26
-0.275
-0.27
-0.28
-0.26
-0.255
-0.255
-0.255
-0.255
-0.25
-0.26
-0.245
-0.23
-0.255
-0.255
-0.255
-0.245
-0.23
-0.22
-0.23
-0.23
-0.235
-0.225
-0.22
-0.21
-0.215
-0.23
-0.23
-0.22
-0.215
-0.205
-0.215
-0.215
-0.225
-0.22
-0.21
-0.215
-0.225
-0.225
-0.235
-0.225
-0.215
-0.225
-0.225
-0.245
-0.245
-0.24
-0.22
-0.23
-0.245
-0.255
-0.255
-0.25
-0.255
-0.255
-0.25
-0.255
-0.265
-0.26
-0.26
-0.26
-0.275
-0.28
-0.28
-0.28
-0.27
-0.265
-0.265
-0.285
-0.31
-0.29
-0.29
-0.29
-0.295
-0.3
-0.305
-0.285
-0.29
-0.295
-0.3
-0.31
-0.335
-0.305
-0.295
-0.305
-0.305
-0.31
-0.305
-0.305
-0.29
-0.295
-0.305
-0.305
-0.305
-0.305
-0.295
-0.285
-0.3
-0.305
-0.29
-0.255
-0.245
-0.23
-0.225
-0.235
-0.235
-0.22
-0.21
-0.21
-0.205
-0.21
-0.21
-0.21
-0.205
-0.185
-0.19
-0.22
-0.22
-0.225
-0.22
-0.23
-0.25
-0.265
-0.27
-0.255
-0.235
-0.21
-0.225
-0.24
-0.27
-0.275
-0.275
-0.295
-0.295
-0.305
-0.335
-0.335
-0.315
-0.325
-0.34
-0.36
-0.37
-0.365
-0.35
-0.36
-0.365
-0.365
-0.37
-0.37
-0.36
-0.365
-0.36
-0.38
-0.38
-0.36
-0.37
-0.36
-0.365
-0.365
-0.37
-0.37
-0.355
-0.36
-0.37
-0.38
-0.38
-0.405
-0.46
-0.505
-0.54
-0.535
-0.48
-0.4
-0.305
-0.1
0.205
0.565
0.93
1.285
1.595
1.82
1.925
1.895
1.64
1.2
0.67
0.18
-0.19
-0.39
-0.45
-0.46
-0.435
-0.37
-0.295
-0.255
-0.275
-0.29
-0.31
-0.315
-0.34
-0.34
-0.35
-0.35
-0.35
-0.365
-0.38
-0.395
-0.395
-0.385
-0.39
-0.38
-0.4
-0.395
-0.405
-0.395
-0.39
-0.39
-0.395
-0.405
-0.405
-0.405
-0.385
-0.385
-0.4
-0.395
-0.405
-0.4
-0.38
-0.385
-0.39
-0.4
-0.385
-0.37
-0.36
-0.36
-0.37
-0.36
-0.365
-0.355
-0.34
-0.34
-0.34
-0.34
-0.33
-0.315
-0.295
-0.295
-0.305
-0.29
-0.295
-0.265
-0.25
-0.245
-0.24
-0.22
-0.225
-0.195
-0.175
-0.17
-0.155
-0.135
-0.12
-0.095
-0.07
-0.06
-0.05
-0.03
-0.03
0.0
0.025
0.04
0.045
0.06
0.065
0.08
0.1
0.11
0.125
0.12
0.12
0.145
0.165
0.16
0.16
0.15
0.145
0.145
0.14
0.135
0.12
0.1
0.075
0.075
0.065
0.045
0.0
-0.03
-0.055
-0.07
-0.075
-0.095
-0.115
-0.15
-0.175
-0.175
-0.19
-0.205
-0.21
-0.225
-0.235
-0.235
-0.215
-0.22
-0.245
-0.245
-0.27
-0.265
-0.25
-0.24
-0.25
-0.26
-0.265
-0.25
-0.24
-0.24
-0.25
-0.255
-0.255
-0.24
-0.24
-0.24
-0.23
-0.235
-0.245
-0.245
-0.225
-0.22
-0.215
-0.215
-0.23
-0.225
-0.2
-0.195
-0.195
-0.205
-0.21
-0.195
-0.195
-0.195
-0.19
-0.195
-0.215
-0.19
-0.18
-0.2
-0.2
-0.21
-0.215
-0.215
-0.2
-0.2
-0.215
-0.215
-0.22
-0.205
-0.2
-0.21
-0.21
-0.215
-0.215
-0.22
-0.205
-0.22
-0.24
-0.235
-0.25
-0.23
-0.225
-0.235
-0.235
-0.255
-0.265
-0.255
-0.245
-0.24
-0.27
-0.27
-0.285
-0.26
-0.255
-0.255
-0.285
-0.28
-0.285
-0.28
-0.265
-0.26
-0.275
-0.285
-0.29
-0.285
-0.28
-0.29
-0.29
-0.305
-0.305
-0.28
-0.275
-0.285
-0.29
-0.295
-0.295
-0.295
-0.29
-0.285
-0.295
-0.29
-0.29
-0.29
-0.285
-0.285
-0.29
-0.285
-0.29
-0.285
-0.275
-0.26
-0.255
-0.25
-0.235
-0.225
-0.215
-0.22
-0.22
-0.225
-0.215
-0.19
-0.17
-0.175
-0.2
-0.2
-0.195
-0.175
-0.18
-0.175
-0.18
-0.195
-0.22
-0.235
-0.235
-0.245
-0.24
-0.23
-0.235
-0.205
-0.2
-0.205
-0.22
-0.255
-0.27
-0.27
-0.26
-0.28
-0.28
-0.3
-0.315
-0.31
-0.325
-0.325
-0.335
-0.34
-0.34
-0.34
-0.325
-0.32
-0.33
-0.335
-0.34
-0.34
-0.33
-0.33
-0.345
-0.34
-0.35
-0.33
-0.325
-0.33
-0.33
-0.34
-0.345
-0.34
-0.33
-0.36
-0.39
-0.44
-0.485
-0.49
-0.445
-0.41
-0.31
-0.17
0.095
0.445
0.8
1.14
1.455
1.69
1.835
1.855
1.705
1.305
0.73
0.18
-0.205
-0.395
-0.43
-0.44
-0.42
-0.35
-0.27
-0.25
-0.275
-0.3
-0.315
-0.32
-0.325
-0.31
-0.315
-0.33
-0.35
-0.36
-0.36
-0.35
-0.35
-0.355
-0.365
-0.375
-0.39
-0.375
-0.36
-0.365
-0.36
-0.38
-0.37
-0.375
-0.36
-0.385
-0.375
-0.375
-0.38
-0.375
-0.375
-0.355
-0.355
-0.36
-0.365
-0.365
-0.35
-0.345
-0.345
-0.36
-0.355
-0.34
-0.32
-0.325
-0.32
-0.33
-0.335
-0.315
-0.295
-0.305
-0.3
-0.28
-0.28
-0.26
-0.24
-0.24
-0.245
-0.24
-0.235
-0.205
-0.195
-0.18
-0.175
-0.17
-0.135
-0.115
-0.09
-0.085
-0.06
-0.05
-0.025
-0.01
0.01
0.02
0.02
0.03
0.035
0.06
0.095
0.1
0.09
0.1
0.1
0.115
0.14
0.14
0.125
0.125
0.11
0.135
0.145
0.13
0.125
0.1
0.075
0.07
0.055
0.035
0.015
-0.015
-0.035
-0.06
-0.065
-0.09
-0.11
-0.135
-0.155
-0.145
-0.145
-0.165
-0.175
-0.19
-0.195
-0.19
-0.195
-0.2
-0.195
-0.215
-0.21
-0.225
-0.22
-0.225
-0.22
-0.225
-0.245
-0.2
-0.2
-0.2
-0.195
-0.22
-0.22
-0.225
-0.205
-0.2
-0.2
-0.21
-0.21
-0.19
-0.185
-0.195
-0.2
-0.195
-0.195
-0.185
-0.19
-0.185
-0.19
-0.19
-0.195
-0.185
-0.17
-0.175
-0.175
-0.165
-0.175
-0.16
-0.165
-0.175
-0.175
-0.175
-0.18
-0.175
-0.165
-0.16
-0.17
-0.19
-0.185
-0.185
-0.18
-0.18
-0.195
-0.19
-0.19
-0.19
-0.2
-0.205
-0.22
-0.22
-0.225
-0.21
-0.21
-0.21
-0.235
-0.24
-0.24
-0.235
-0.24
-0.255
-0.255
-0.255
-0.255
-0.245
-0.245
-0.245
-0.255
-0.27
-0.28
-0.275
-0.26
-0.255
-0.255
-0.265
-0.275
-0.27
-0.255
-0.265
-0.26
-0.27
-0.28
-0.275
-0.275
-0.275
-0.275
-0.29
-0.29
-0.295
-0.29
-0.275
-0.275
-0.28
-0.275
-0.265
-0.265
-0.265
-0.27
-0.28
-0.285
-0.275
-0.265
-0.255
-0.25
-0.245
-0.245
-0.21
-0.195
-0.185
-0.19
-0.195
-0.195
-0.185
-0.16
-0.165
-0.19
-0.18
-0.18
-0.165
-0.15
-0.16
-0.165
-0.185
-0.205
-0.205
-0.215
-0.215
-0.21
-0.205
-0.2
-0.2
-0.19
-0.215
-0.22
-0.245
-0.26
-0.26
-0.25
-0.255
-0.275
-0.3
-0.3
-0.305
-0.305
-0.3
-0.305
-0.33
-0.315
-0.32
-0.31
-0.32
-0.325
-0.335
-0.345
-0.33
-0.32
-0.325
-0.325
-0.325
-0.34
-0.325
-0.32
-0.315
-0.315
-0.32
-0.33
-0.325
-0.325
-0.37
-0.42
-0.45
-0.455
-0.405
-0.335
-0.24
-0.075
0.19
0.515
0.85
1.15
1.425
1.65
1.745
1.755
1.605
1.26
0.775
0.32
-0.055
-0.295
-0.41
-0.45
-0.415
-0.335
-0.255
-0.22
-0.245
-0.26
-0.285
-0.295
-0.305
-0.315
-0.31
-0.3
-0.32
-0.335
-0.35
-0.35
-0.36
-0.345
-0.35
-0.365
-0.37
-0.38
-0.37
-0.35
-0.36
-0.37
-0.38
-0.37
-0.365
-0.37
-0.365
-0.37
-0.375
-0.37
-0.365
-0.355
-0.36
-0.355
-0.365
-0.37
-0.355
-0.345
-0.34
-0.345
-0.35
-0.36
-0.35
-0.335
-0.34
-0.33
-0.325
-0.32
-0.3
-0.305
-0.3
-0.295
-0.29
-0.285
-0.26
-0.24
-0.24
-0.23
-0.22
-0.215
-0.195
-0.165
-0.16
-0.15
-0.145
-0.13
-0.11
-0.08
-0.06
-0.055
-0.035
-0.03
-0.015
0.01
0.025
0.025
0.04
0.05
0.06
0.075
0.09
0.09
0.095
0.11
0.125
0.13
0.125
0.135
0.13
0.125
0.105
0.125
0.105
0.09
0.085
0.065
0.055
0.04
0.02
-0.015
-0.04
-0.075
-0.06
-0.075
-0.095
-0.11
-0.135
-0.145
-0.15
-0.155
-0.165
-0.185
-0.2
-0.2
-0.205
-0.195
-0.2
-0.205
-0.21
-0.225
-0.215
-0.21
-0.215
-0.225
-0.23
-0.24
-0.22
-0.21
-0.225
-0.225
-0.23
-0.235
-0.23
-0.215
-0.215
-0.205
-0.225
-0.225
-0.215
-0.21
-0.205
-0.215
-0.22
-0.205
-0.2
-0.185
-0.185
-0.19
-0.205
-0.21
-0.195
-0.175
-0.175
-0.185
-0.18
-0.175
-0.17
-0.165
-0.17
-0.175
-0.185
-0.185
-0.175
-0.155
-0.17
-0.17
-0.17
-0.18
-0.175
-0.165
-0.17
-0.185
-0.19
-0.185
-0.18
-0.165
-0.175
-0.19
-0.185
-0.195
-0.185
-0.195
-0.195
-0.205
-0.215
-0.205
-0.22
-0.205
-0.21
-0.225
-0.23
-0.245
-0.22
-0.225
-0.235
-0.235
-0.235
-0.255
-0.245
-0.235
-0.245
-0.245
-0.255
-0.255
-0.255
-0.25
-0.27
-0.275
-0.27
-0.275
-0.275
-0.275
-0.265
-0.27
-0.28
-0.28
-0.275
-0.27
-0.265
-0.285
-0.285
-0.28
-0.275
-0.26
-0.27
-0.275
-0.285
-0.295
-0.275
-0.275
-0.275
-0.27
-0.28
-0.27
-0.255
-0.235
-0.225
-0.235
-0.22
-0.215
-0.205
-0.205
-0.185
-0.185
-0.18
-0.175
-0.165
-0.15
-0.17
-0.17
-0.175
-0.17
-0.165
-0.145
-0.16
-0.175
-0.21
-0.21
-0.21
-0.225
-0.225
-0.215
-0.195
-0.195
-0.185
-0.19
-0.21
-0.225
-0.255
-0.265
-0.26
-0.275
-0.26
-0.28
-0.3
-0.305
-0.295
-0.3
-0.3
-0.32
-0.335
-0.34
-0.32
-0.315
-0.32
-0.325
-0.34
-0.345
-0.33
-0.32
-0.32
-0.33
-0.335
-0.355
-0.325
-0.315
-0.3
-0.305
-0.33
-0.335
-0.32
-0.325
-0.32
-0.34
-0.375
-0.435
-0.48
-0.495
-0.485
-0.43
-0.375
-0.285
-0.1
0.215
0.585
0.95
1.28
1.595
1.835
1.96
1.93
1.74
1.34
0.805
0.305
-0.09
-0.335
-0.43
-0.45
-0.42
-0.325
-0.24
-0.21
-0.235
-0.275
-0.305
-0.3
-0.295
-0.305
-0.305
-0.325
-0.34
-0.345
-0.34
-0.345
-0.36
-0.365
-0.375
-0.37
-0.36
-0.36
-0.37
-0.375
-0.365
-0.37
-0.37
-0.375
-0.37
-0.375
-0.385
-0.375
-0.365
-0.36
-0.35
-0.36
-0.365
-0.35
-0.34
-0.34
-0.34
-0.345
-0.345
-0.33
-0.32
-0.32
-0.315
-0.32
-0.33
-0.31
-0.3
-0.285
-0.28
-0.275
-0.27
-0.255
-0.245
-0.23
-0.225
-0.225
-0.205
-0.18
-0.16
-0.145
-0.13
-0.125
-0.11
-0.075
-0.06
-0.025
-0.02
0.0
0.01
0.04
0.055
0.08
0.085
0.095
0.105
0.125
0.135
0.145
0.16
0.15
0.155
0.16
0.175
0.18
0.165
0.16
0.135
0.145
0.15
0.135
0.115
0.095
0.065
0.055
0.05
0.01
0.0
-0.045
-0.065
-0.07
-0.095
-0.1
-0.125
-0.15
-0.165
-0.17
-0.185
-0.19
-0.19
-0.215
-0.22
-0.21
-0.195
-0.22
-0.225
-0.24
-0.235
-0.23
-0.225
-0.215
-0.22
-0.23
-0.245
-0.225
-0.21
-0.21
-0.215
-0.225
-0.23
-0.215
-0.205
-0.2
-0.205
-0.21
-0.215
-0.195
-0.185
-0.195
-0.195
-0.2
-0.22
-0.195
-0.19
-0.18
-0.19
-0.19
-0.19
-0.18
-0.165
-0.175
-0.185
-0.185
-0.2
-0.19
-0.185
-0.18
-0.19
-0.19
-0.19
-0.2
-0.175
-0.18
-0.19
-0.2
-0.205
-0.205
-0.185
-0.195
-0.21
-0.215
-0.215
-0.215
-0.2
-0.2
-0.205
-0.225
-0.225
-0.22
-0.215
-0.22
-0.24
-0.24
-0.245
-0.245
-0.225
-0.23
-0.24
-0.25
-0.255
-0.25
-0.235
-0.235
-0.25
-0.255
-0.265
-0.26
-0.255
-0.245
-0.255
-0.265
-0.265
-0.255
-0.25
-0.255
-0.265
-0.28
-0.275
-0.26
-0.27
-0.27
-0.27
-0.265
-0.275
-0.285
-0.27
-0.265
-0.27
-0.27
-0.28
-0.27
-0.25
-0.26
-0.27
-0.275
-0.28
-0.25
-0.245
-0.235
-0.22
-0.22
-0.205
-0.195
-0.19
-0.185
-0.185
-0.195
-0.19
-0.17
-0.15
-0.15
-0.165
-0.17
-0.175
-0.17
-0.16
-0.175
-0.19
-0.205
-0.21
-0.205
-0.21
-0.2
-0.195
-0.2
-0.21
-0.21
-0.22
-0.225
-0.235
-0.265
-0.275
-0.285
-0.275
-0.285
-0.295
-0.315
-0.315
-0.32
-0.315
-0.33
-0.335
-0.335
-0.35
-0.345
-0.33
-0.325
-0.34
-0.345
-0.35
-0.34
-0.33
-0.33
-0.335
-0.33
-0.335
-0.325
-0.325
-0.325
-0.355
-0.41
-0.485
-0.525
-0.5
-0.43
-0.36
-0.23
0.005
0.365
0.765
1.14
1.47
1.745
1.9
1.915
1.75
1.3
0.705
0.14
-0.255
-0.42
-0.44
-0.41
-0.36
-0.285
-0.235
-0.245
-0.27
-0.295
-0.31
-0.305
-0.31
-0.305
-0.325
-0.33
-0.345
-0.35
-0.38
