Lead II
-0.705
-0.705
-0.71
-0.705
-0.685
-0.66
-0.65
-0.64
-0.64
-0.655
-0.675
-0.685
-0.69
-0.7
-0.685
-0.69
-0.67
-0.665
-0.65
-0.645
-0.625
-0.62
-0.61
-0.605
-0.6
-0.59
-0.59
-0.595
-0.58
-0.565
-0.56
-0.555
-0.545
-0.535
-0.525
-0.525
-0.52
-0.51
-0.5
-0.5
-0.485
-0.48
-0.485
-0.49
-0.505
-0.505
-0.52
-0.545
-0.54
-0.555
-0.56
-0.57
-0.585
-0.585
-0.595
-0.605
-0.62
-0.625
-0.64
-0.645
-0.64
-0.655
-0.64
-0.655
-0.655
-0.665
-0.65
-0.655
-0.635
-0.62
-0.62
-0.61
-0.625
-0.62
-0.62
-0.605
-0.575
-0.52
-0.46
-0.375
-0.285
-0.19
-0.12
-0.055
0.0
0.025
0.06
0.075
0.105
0.125
0.14
0.125
0.1
0.06
0.01
-0.05
-0.115
-0.2
-0.275
-0.36
-0.43
-0.495
-0.55
-0.585
-0.605
-0.635
-0.625
-0.61
-0.615
-0.62
-0.62
-0.62
-0.625
-0.62
-0.61
-0.61
-0.595
-0.605
-0.605
-0.605
-0.595
-0.595
-0.595
-0.6
-0.595
-0.585
-0.585
-0.575
-0.56
-0.58
-0.565
-0.575
-0.57
-0.56
-0.57
-0.57
-0.57
-0.56
-0.57
-0.555
-0.55
-0.545
-0.545
-0.545
-0.55
-0.56
-0.56
-0.575
-0.56
-0.55
-0.54
-0.53
-0.535
-0.54
-0.55
-0.54
-0.545
-0.55
-0.565
-0.57
-0.56
-0.55
-0.535
-0.525
-0.52
-0.52
-0.52
-0.52
-0.53
-0.535
-0.545
-0.54
-0.555
-0.555
-0.56
-0.57
-0.56
-0.56
-0.56
-0.56
-0.56
-0.58
-0.59
-0.615
-0.625
-0.63
-0.63
-0.625
-0.625
-0.635
-0.645
-0.665
-0.685
-0.7
-0.71
-0.725
-0.715
-0.72
-0.71
-0.72
-0.705
-0.715
-0.725
-0.725
-0.72
-0.725
-0.735
-0.74
-0.73
-0.72
-0.72
-0.715
-0.695
-0.705
-0.72
-0.71
-0.725
-0.72
-0.705
-0.71
-0.715
-0.715
-0.7
-0.695
-0.68
-0.68
-0.685
-0.69
-0.7
-0.715
-0.715
-0.72
-0.71
-0.71
-0.69
-0.675
-0.675
-0.665
-0.68
-0.695
-0.695
-0.71
-0.69
-0.715
-0.705
-0.7
-0.695
-0.7
-0.69
-0.71
-0.72
-0.72
-0.715
-0.74
-0.745
-0.755
-0.75
-0.745
-0.74
-0.75
-0.745
-0.75
-0.76
-0.75
-0.755
-0.76
-0.765
-0.775
-0.765
-0.77
-0.77
-0.78
-0.765
-0.775
-0.79
-0.795
-0.8
-0.805
-0.81
-0.82
-0.805
-0.795
-0.785
-0.775
-0.78
-0.79
-0.81
-0.82
-0.825
-0.835
-0.835
-0.835
-0.84
-0.82
-0.82
-0.815
-0.805
-0.8
-0.8
-0.805
-0.8
-0.81
-0.82
-0.845
-0.855
-0.845
-0.83
-0.82
-0.8
-0.8
-0.805
-0.81
-0.815
-0.82
-0.83
-0.835
-0.825
-0.82
-0.82
-0.81
-0.805
-0.815
-0.82
-0.825
-0.83
-0.83
-0.83
-0.815
-0.81
-0.815
-0.815
-0.79
-0.77
-0.765
-0.755
-0.755
-0.76
-0.76
-0.76
-0.74
-0.715
-0.7
-0.685
-0.685
-0.665
-0.69
-0.69
-0.685
-0.695
-0.69
-0.705
-0.685
-0.695
-0.705
-0.715
-0.73
-0.73
-0.73
-0.725
-0.735
-0.765
-0.78
-0.805
-0.815
-0.83
-0.825
-0.835
-0.82
-0.81
-0.805
-0.805
-0.805
-0.83
-0.825
-0.83
-0.845
-0.835
-0.825
-0.825
-0.82
-0.785
-0.775
-0.78
-0.755
-0.755
-0.725
-0.685
-0.62
-0.55
-0.45
-0.38
-0.295
-0.24
-0.2
-0.165
-0.135
-0.11
-0.075
-0.065
-0.08
-0.11
-0.15
-0.19
-0.255
-0.335
-0.415
-0.51
-0.605
-0.685
-0.75
-0.79
-0.815
-0.825
-0.795
-0.8
-0.775
-0.77
-0.755
-0.76
-0.765
-0.77
-0.78
-0.78
-0.795
-0.79
-0.775
-0.76
-0.75
-0.735
-0.74
-0.73
-0.715
-0.735
-0.74
-0.74
-0.755
-0.745
-0.735
-0.73
-0.72
-0.71
-0.705
-0.71
-0.725
-0.71
-0.715
-0.73
-0.72
-0.71
-0.705
-0.7
-0.69
-0.67
-0.68
-0.68
-0.68
-0.68
-0.685
-0.69
-0.695
-0.695
-0.68
-0.67
-0.67
-0.665
-0.665
-0.655
-0.65
-0.65
-0.66
-0.66
-0.665
-0.645
-0.655
-0.66
-0.655
-0.66
-0.65
-0.655
-0.665
-0.66
-0.67
-0.675
-0.685
-0.685
-0.69
-0.69
-0.7
-0.68
-0.685
-0.68
-0.695
-0.72
-0.73
-0.74
-0.765
-0.75
-0.745
-0.73
-0.735
-0.735
-0.745
-0.765
-0.785
-0.795
-0.805
-0.8
-0.8
-0.8
-0.795
-0.785
-0.785
-0.79
-0.8
-0.81
-0.815
-0.81
-0.795
-0.795
-0.785
-0.78
-0.785
-0.79
-0.8
-0.81
-0.81
-0.815
-0.79
-0.79
-0.775
-0.77
-0.78
-0.78
-0.795
-0.775
-0.775
-0.775
-0.775
-0.765
-0.76
-0.78
-0.77
-0.785
-0.795
-0.8
-0.8
-0.805
-0.82
-0.815
-0.79
-0.785
-0.79
-0.785
-0.795
-0.8
-0.815
-0.82
-0.82
-0.815
-0.82
-0.815
-0.805
-0.795
-0.8
-0.8
-0.815
-0.82
-0.825
-0.83
-0.83
-0.815
-0.81
-0.805
-0.805
-0.805
-0.82
-0.82
-0.83
-0.845
-0.865
-0.87
-0.855
-0.845
-0.82
-0.81
-0.8
-0.805
-0.81
-0.83
-0.825
-0.83
-0.84
-0.835
-0.83
-0.815
-0.8
-0.775
-0.775
-0.79
-0.8
-0.8
-0.805
-0.8
-0.815
-0.81
-0.805
-0.8
-0.785
-0.78
-0.785
-0.775
-0.77
-0.785
-0.79
-0.8
-0.795
-0.785
-0.795
-0.775
-0.775
-0.765
-0.755
-0.765
-0.765
-0.78
-0.78
-0.785
-0.795
-0.79
-0.785
-0.78
-0.77
-0.755
-0.74
-0.725
-0.7
-0.695
-0.7
-0.71
-0.71
-0.71
-0.69
-0.685
-0.65
-0.645
-0.62
-0.6
-0.59
-0.595
-0.595
-0.61
-0.625
-0.635
-0.64
-0.65
-0.65
-0.66
-0.665
-0.67
-0.675
-0.675
-0.69
-0.71
-0.725
-0.735
-0.76
-0.755
-0.765
-0.755
-0.775
-0.79
-0.805
-0.795
-0.785
-0.785
-0.775
-0.77
-0.77
-0.76
-0.76
-0.75
-0.75
-0.755
-0.755
-0.77
-0.755
-0.735
-0.725
-0.68
-0.595
-0.52
-0.415
-0.325
-0.265
-0.21
-0.16
-0.125
-0.095
-0.085
-0.075
-0.095
-0.11
-0.16
-0.195
-0.24
-0.295
-0.375
-0.445
-0.52
-0.585
-0.645
-0.705
-0.735
-0.755
-0.78
-0.78
-0.765
-0.76
-0.75
-0.75
-0.77
-0.75
-0.775
-0.785
-0.78
-0.78
-0.77
-0.76
-0.735
-0.73
-0.74
-0.75
-0.755
-0.75
-0.755
-0.755
-0.745
-0.73
-0.735
-0.715
-0.71
-0.705
-0.705
-0.715
-0.725
-0.72
-0.72
-0.735
-0.725
-0.725
-0.715
-0.71
-0.695
-0.7
-0.69
-0.695
-0.69
-0.695
-0.715
-0.715
-0.71
-0.71
-0.725
-0.705
-0.68
-0.68
-0.675
-0.675
-0.675
-0.68
-0.695
-0.69
-0.685
-0.675
-0.665
-0.665
-0.645
-0.645
-0.64
-0.645
-0.65
-0.655
-0.67
-0.675
-0.68
-0.71
-0.69
-0.69
-0.675
-0.665
-0.665
-0.67
-0.69
-0.695
-0.715
-0.72
-0.73
-0.725
-0.74
-0.735
-0.745
-0.745
-0.75
-0.76
-0.76
-0.765
-0.79
-0.81
-0.81
-0.825
-0.825
-0.815
-0.81
-0.805
-0.81
-0.805
-0.82
-0.815
-0.83
-0.84
-0.85
-0.855
-0.86
-0.84
-0.825
-0.825
-0.825
-0.83
-0.84
-0.86
-0.865
-0.87
-0.855
-0.86
-0.86
-0.845
-0.83
-0.855
-0.86
-0.865
-0.875
-0.865
-0.86
-0.87
-0.865
-0.86
-0.865
-0.865
-0.86
-0.865
-0.89
-0.895
-0.89
-0.9
-0.905
-0.9
-0.905
-0.905
-0.905
-0.915
-0.905
-0.905
-0.9
-0.9
-0.91
-0.925
-0.935
-0.96
-0.945
-0.94
-0.93
-0.93
-0.925
-0.92
-0.915
-0.91
-0.93
-0.94
-0.955
-0.96
-0.96
-0.955
-0.945
-0.94
-0.945
-0.94
-0.94
-0.94
-0.935
-0.945
-0.945
-0.945
-0.94
-0.935
-0.93
-0.935
-0.92
-0.925
-0.92
-0.915
-0.92
-0.915
-0.935
-0.94
-0.95
-0.945
-0.935
-0.925
-0.905
-0.915
-0.9
-0.895
-0.895
-0.895
-0.915
-0.91
-0.905
-0.91
-0.91
-0.895
-0.905
-0.925
-0.905
-0.9
-0.91
-0.9
-0.895
-0.905
-0.9
-0.895
-0.88
-0.85
-0.84
-0.82
-0.82
-0.815
-0.81
-0.81
-0.81
-0.805
-0.8
-0.775
-0.785
-0.765
-0.755
-0.75
-0.74
-0.735
-0.755
-0.76
-0.775
-0.785
-0.785
-0.78
-0.785
-0.795
-0.78
-0.78
-0.77
-0.78
-0.8
-0.825
-0.855
-0.87
-0.89
-0.905
-0.9
-0.91
-0.905
-0.9
-0.885
-0.875
-0.875
-0.875
-0.885
-0.9
-0.91
-0.91
-0.905
-0.905
-0.89
-0.875
-0.85
-0.825
-0.79
-0.755
-0.695
-0.62
-0.545
-0.455
-0.375
-0.3
-0.24
-0.21
-0.165
-0.13
-0.11
-0.125
-0.16
-0.21
-0.265
-0.305
-0.365
-0.44
-0.525
-0.6
-0.695
-0.77
-0.835
-0.885
-0.905
-0.905
-0.885
-0.865
-0.845
-0.84
-0.825
-0.815
-0.825
-0.825
-0.83
-0.845
-0.855
-0.855
-0.855
-0.845
-0.825
-0.825
-0.805
-0.8
-0.8
-0.805
-0.82
-0.82
-0.82
-0.825
-0.8
-0.79
-0.765
-0.78
-0.765
-0.765
-0.765
-0.78
-0.785
-0.785
-0.77
-0.75
-0.74
-0.725
-0.73
-0.735
-0.725
-0.725
-0.73
-0.72
-0.705
-0.68
-0.68
-0.685
-0.68
-0.69
-0.69
-0.685
-0.685
-0.675
-0.665
-0.655
-0.65
-0.65
-0.65
-0.66
-0.655
-0.64
-0.64
-0.625
-0.625
-0.6
-0.585
-0.595
-0.615
-0.64
-0.665
-0.67
-0.665
-0.655
-0.655
-0.64
-0.62
-0.63
-0.65
-0.655
-0.675
-0.7
-0.72
-0.74
-0.73
-0.725
-0.695
-0.685
-0.67
-0.66
-0.675
-0.705
-0.725
-0.735
-0.735
-0.755
-0.745
-0.75
-0.74
-0.745
-0.725
-0.715
-0.72
-0.725
-0.73
-0.73
-0.735
-0.735
-0.73
-0.725
-0.73
-0.715
-0.705
-0.7
-0.695
-0.705
-0.715
-0.73
-0.725
-0.72
-0.715
-0.695
-0.66
-0.645
-0.65
-0.645
-0.655
-0.645
-0.66
-0.68
-0.69
-0.7
-0.695
-0.68
-0.675
-0.68
-0.655
-0.655
-0.645
-0.645
-0.66
-0.66
-0.68
-0.7
-0.69
-0.68
-0.66
-0.66
-0.65
-0.66
-0.665
-0.68
-0.675
-0.68
-0.68
-0.665
-0.665
-0.66
-0.64
-0.63
-0.625
-0.62
-0.63
-0.64
-0.675
-0.68
-0.665
-0.66
-0.65
-0.635
-0.635
-0.635
-0.635
-0.64
-0.645
-0.655
-0.67
-0.685
-0.67
-0.64
-0.62
-0.62
-0.615
-0.63
-0.625
-0.625
-0.625
-0.635
-0.62
-0.61
-0.62
-0.635
-0.645
-0.67
-0.675
-0.675
-0.66
-0.62
-0.605
-0.595
-0.605
-0.63
-0.63
-0.645
-0.64
-0.65
-0.645
-0.615
-0.605
-0.595
-0.595
-0.615
-0.635
-0.65
-0.635
-0.62
-0.62
-0.61
-0.605
-0.615
-0.615
-0.61
-0.61
-0.6
-0.6
-0.595
-0.585
-0.58
-0.575
-0.57
-0.565
-0.56
-0.565
-0.535
-0.535
-0.53
-0.535
-0.53
-0.535
-0.525
-0.51
-0.475
-0.455
-0.45
-0.455
-0.455
-0.475
-0.49
-0.51
-0.485
-0.48
-0.5
-0.505
-0.51
-0.505
-0.495
-0.485
-0.5
-0.525
-0.53
-0.55
-0.58
-0.595
-0.605
-0.605
-0.59
-0.575
-0.56
-0.55
-0.55
-0.565
-0.565
-0.57
-0.565
-0.58
-0.575
-0.565
-0.545
-0.53
-0.515
-0.485
-0.46
-0.42
-0.355
-0.3
-0.23
-0.19
-0.125
-0.095
-0.03
0.03
0.07
0.12
0.165
0.2
0.195
0.16
0.105
0.045
0.0
-0.07
-0.13
-0.195
-0.26
-0.315
-0.385
-0.43
-0.46
-0.49
-0.51
-0.535
-0.54
-0.545
-0.525
-0.515
-0.51
-0.5
-0.505
-0.515
-0.515
-0.525
-0.535
-0.54
-0.535
-0.53
-0.51
-0.49
-0.495
-0.495
-0.52
-0.515
-0.51
-0.515
-0.51
-0.505
-0.5
-0.51
-0.495
-0.49
-0.48
-0.485
-0.475
-0.485
-0.49
-0.495
-0.495
-0.515
-0.535
-0.54
-0.545
-0.535
-0.52
-0.485
-0.48
-0.48
-0.475
-0.485
-0.505
-0.515
-0.535
-0.535
-0.535
-0.535
-0.535
-0.52
-0.53
-0.525
-0.52
-0.51
-0.505
-0.5
-0.515
-0.52
-0.535
-0.535
-0.52
-0.51
-0.495
-0.52
-0.515
-0.52
-0.53
-0.55
-0.555
-0.57
-0.58
-0.58
-0.575
-0.58
-0.59
-0.59
-0.6
-0.625
-0.645
-0.645
-0.665
-0.675
-0.69
-0.695
-0.7
-0.705
-0.7
-0.715
-0.735
-0.735
-0.75
-0.745
-0.745
-0.73
-0.74
-0.73
-0.735
-0.735
-0.755
-0.78
-0.78
-0.795
-0.78
-0.78
-0.77
-0.77
-0.765
-0.765
-0.77
-0.79
-0.79
-0.805
-0.8
-0.79
-0.795
-0.8
-0.815
-0.825
-0.84
-0.82
-0.82
-0.81
-0.82
-0.83
-0.83
-0.845
-0.865
-0.88
-0.885
-0.9
-0.89
-0.91
-0.895
-0.92
-0.945
-0.96
-0.985
-1.0
-1.01
-1.025
-1.045
-1.045
-1.045
-1.045
-1.025
-1.02
-1.025
-1.04
-1.07
-1.08
-1.095
-1.115
-1.12
-1.13
-1.145
-1.145
-1.14
-1.13
-1.125
-1.12
-1.125
-1.135
-1.155
-1.17
-1.18
-1.195
-1.175
-1.17
-1.155
-1.15
-1.135
-1.14
-1.14
-1.145
-1.15
-1.15
-1.15
-1.155
-1.145
-1.13
-1.125
-1.11
-1.105
-1.105
-1.105
-1.1
-1.1
-1.1
-1.1
-1.095
-1.065
-1.035
-1.01
-1.005
-1.02
-1.01
-1.01
-1.015
-1.015
-1.005
-0.985
-0.96
-0.97
-0.95
-0.94
-0.925
-0.92
-0.93
-0.915
-0.92
-0.895
-0.88
-0.87
-0.845
-0.83
-0.82
-0.82
-0.795
-0.795
-0.77
-0.77
-0.755
-0.75
-0.745
-0.745
-0.745
-0.725
-0.72
-0.72
-0.705
-0.715
-0.71
-0.695
-0.685
-0.685
-0.685
-0.705
-0.715
-0.72
-0.715
-0.69
-0.655
-0.645
-0.66
-0.695
-0.725
-0.735
-0.74
-0.735
-0.735
-0.73
-0.715
-0.715
-0.715
-0.705
-0.7
-0.695
-0.69
-0.695
-0.695
-0.695
-0.705
-0.705
-0.69
-0.67
-0.64
-0.595
-0.52
-0.455
-0.385
-0.315
-0.24
-0.165
-0.085
-0.005
0.055
0.095
0.14
0.16
0.185
0.205
0.205
0.185
0.155
0.115
0.06
0.01
-0.07
-0.155
-0.245
-0.34
-0.405
-0.49
-0.545
-0.575
-0.6
-0.6
-0.585
-0.56
-0.545
-0.53
-0.505
-0.505
-0.505
-0.51
-0.51
-0.51
-0.515
-0.53
-0.525
-0.51
-0.505
-0.495
-0.47
-0.475
-0.475
-0.455
-0.455
-0.445
-0.445
-0.465
-0.455
-0.445
-0.415
-0.395
-0.395
-0.4
-0.41
-0.42
-0.435
-0.43
-0.435
-0.43
-0.44
-0.43
-0.42
-0.395
-0.385
-0.37
-0.375
-0.39
-0.39
-0.38
-0.385
-0.385
-0.38
-0.37
-0.365
-0.365
-0.365
-0.34
-0.35
-0.34
-0.335
-0.345
-0.33
-0.335
-0.34
-0.33
-0.33
-0.345
-0.345
-0.35
-0.345
-0.335
-0.325
-0.325
-0.34
-0.34
-0.365
-0.37
-0.38
-0.365
-0.36
-0.36
-0.375
-0.375
-0.405
-0.42
-0.44
-0.455
-0.475
-0.475
-0.465
-0.46
-0.46
-0.46
-0.46
-0.485
-0.51
-0.525
-0.54
-0.545
-0.54
-0.53
-0.52
-0.515
-0.515
-0.51
-0.515
-0.515
-0.515
-0.525
-0.53
-0.53
-0.54
-0.52
-0.51
-0.485
-0.485
-0.48
-0.485
-0.485
-0.49
-0.485
-0.495
-0.49
-0.505
-0.505
-0.51
-0.5
-0.485
-0.475
-0.475
-0.475
-0.485
-0.495
-0.515
-0.52
-0.525
-0.51
-0.515
-0.5
-0.49
-0.48
-0.485
-0.49
-0.515
-0.525
-0.535
-0.535
-0.545
-0.525
-0.505
-0.51
-0.505
-0.51
-0.52
-0.51
-0.495
-0.47
-0.46
-0.455
-0.48
-0.515
-0.575
-0.61
-0.62
-0.615
-0.59
-0.575
-0.565
-0.56
-0.57
-0.565
-0.575
-0.58
-0.575
-0.57
-0.555
-0.545
-0.56
-0.555
-0.575
-0.55
-0.56
-0.545
-0.54
-0.54
-0.53
-0.53
-0.525
-0.515
-0.525
-0.525
-0.53
-0.53
-0.545
-0.55
-0.54
-0.525
-0.51
-0.505
-0.505
-0.485
-0.485
-0.5
-0.495
-0.505
-0.5
-0.5
-0.49
-0.49
-0.485
-0.5
-0.515
-0.5
-0.505
-0.505
-0.5
-0.5
-0.485
-0.48
-0.48
-0.485
-0.49
-0.485
-0.48
-0.47
-0.455
-0.42
-0.395
-0.39
-0.39
-0.4
-0.415
-0.42
-0.405
-0.38
-0.365
-0.36
-0.38
-0.39
-0.41
-0.42
-0.42
-0.415
-0.395
-0.37
-0.36
-0.37
-0.38
-0.4
-0.43
-0.43
-0.445
-0.47
-0.485
-0.495
-0.515
-0.53
-0.54
-0.55
-0.54
-0.535
-0.525
-0.525
-0.53
-0.53
-0.53
-0.54
-0.55
-0.565
-0.56
-0.56
-0.54
-0.515
-0.49
-0.48
-0.47
-0.47
-0.435
-0.41
-0.35
-0.27
-0.18
-0.1
-0.015
0.06
0.105
0.155
0.195
0.235
0.28
0.31
0.325
0.305
0.265
0.205
0.155
0.09
0.0
-0.09
-0.18
-0.245
-0.315
-0.375
-0.44
-0.475
-0.525
-0.545
-0.55
-0.55
-0.54
-0.53
-0.525
-0.52
-0.515
-0.515
-0.52
-0.53
-0.525
-0.545
-0.53
-0.525
-0.52
-0.52
-0.53
-0.495
-0.495
-0.49
-0.505
-0.52
-0.52
-0.53
-0.53
-0.52
-0.515
-0.51
-0.5
-0.5
-0.495
-0.5
-0.51
-0.515
-0.51
-0.51
-0.5
-0.485
-0.48
-0.485
-0.485
-0.46
-0.48
-0.48
-0.485
-0.485
-0.475
-0.48
-0.45
-0.43
-0.425
-0.42
-0.44
-0.465
-0.485
-0.51
-0.505
-0.49
-0.47
-0.455
-0.43
-0.41
-0.405
-0.395
-0.38
-0.395
-0.405
-0.42
-0.44
-0.47
-0.48
-0.485
-0.47
-0.455
-0.43
-0.405
-0.43
-0.46
-0.5
-0.56
-0.585
-0.59
-0.565
-0.545
-0.515
-0.53
-0.53
-0.555
-0.58
-0.6
-0.615
-0.61
-0.62
-0.61
-0.595
-0.595
-0.59
-0.6
-0.6
-0.62
-0.63
-0.64
-0.645
-0.64
-0.65
-0.64
-0.63
-0.615
-0.6
-0.6
-0.615
-0.615
-0.62
-0.62
-0.625
-0.61
-0.61
-0.6
-0.605
-0.61
-0.59
-0.58
-0.575
-0.58
-0.59
-0.61
-0.64
-0.64
-0.66
-0.65
-0.62
-0.605
-0.605
-0.59
-0.595
-0.585
-0.6
-0.615
-0.61
-0.63
-0.65
-0.665
-0.665
-0.67
-0.655
-0.65
-0.645
-0.64
-0.655
-0.66
-0.685
-0.69
-0.71
-0.705
-0.7
-0.71
-0.7
-0.69
-0.685
-0.675
-0.66
-0.665
-0.68
-0.7
-0.71
-0.74
-0.74
-0.75
-0.725
-0.68
-0.645
-0.585
-0.54
-0.54
-0.585
-0.645
-0.725
-0.785
-0.805
-0.79
-0.755
-0.71
-0.695
-0.665
-0.645
-0.665
-0.685
-0.705
-0.705
-0.705
-0.71
-0.675
-0.665
-0.67
-0.685
-0.7
-0.71
-0.71
-0.705
-0.68
-0.68
-0.68
-0.67
-0.675
-0.685
-0.69
-0.715
-0.72
-0.715
-0.715
-0.705
-0.71
-0.71
-0.715
-0.705
-0.7
-0.71
-0.7
-0.715
-0.69
-0.685
-0.68
-0.67
-0.66
-0.655
-0.66
-0.65
-0.64
-0.655
-0.645
-0.64
-0.63
-0.64
-0.615
-0.63
-0.625
-0.635
-0.635
-0.64
-0.615
-0.62
-0.6
-0.595
-0.595
-0.59
-0.59
-0.57
-0.565
-0.59
-0.61
-0.625
-0.65
-0.645
-0.635
-0.64
-0.65
-0.7
-0.74
-0.785
-0.815
-0.83
-0.78
-0.745
-0.705
-0.68
-0.67
-0.67
-0.685
-0.715
-0.74
-0.755
-0.77
-0.77
-0.765
-0.725
-0.665
-0.62
-0.585
-0.58
-0.575
-0.55
-0.505
-0.44
-0.375
-0.31
-0.235
-0.18
-0.105
-0.035
0.035
0.095
0.145
0.16
0.15
0.11
0.045
-0.015
-0.095
-0.165
-0.235
-0.295
-0.365
-0.445
-0.525
-0.605
-0.67
-0.72
-0.76
-0.77
-0.795
-0.795
-0.795
-0.78
-0.765
-0.755
-0.75
-0.74
-0.75
-0.76
-0.77
-0.775
-0.8
-0.765
-0.765
-0.76
-0.765
-0.77
-0.76
-0.735
-0.73
-0.715
-0.72
-0.72
-0.725
-0.725
-0.71
-0.705
-0.705
-0.7
-0.705
-0.72
-0.73
-0.735
-0.74
-0.75
-0.745
-0.73
-0.725
-0.715
-0.705
-0.71
-0.715
-0.715
-0.705
-0.705
-0.705
-0.72
-0.75
-0.765
-0.775
-0.755
-0.71
-0.705
-0.69
-0.695
-0.705
-0.73
-0.73
-0.72
-0.7
-0.695
-0.71
-0.725
-0.71
-0.715
-0.7
-0.705
-0.695
-0.71
-0.71
-0.715
-0.735
-0.73
-0.725
-0.73
-0.735
-0.735
-0.75
-0.78
-0.78
-0.795
-0.805
-0.81
-0.82
-0.82
-0.83
-0.82
-0.815
-0.815
-0.835
-0.84
-0.865
-0.885
-0.91
-0.925
-0.92
-0.91
-0.89
-0.885
-0.885
-0.915
-0.935
-0.945
-0.95
-0.955
-0.955
-0.94
-0.92
-0.89
-0.88
-0.88
-0.885
-0.9
-0.9
-0.9
-0.895
-0.89
-0.885
-0.88
-0.88
-0.87
-0.85
-0.845
-0.84
-0.845
-0.845
-0.835
-0.845
-0.865
-0.875
-0.885
-0.905
-0.93
-0.9
-0.885
-0.85
-0.835
-0.855
-0.875
-0.905
-0.93
-0.925
-0.935
-0.945
-0.945
-0.94
-0.935
-0.935
-0.94
-0.93
-0.935
-0.935
-0.945
-0.96
-0.975
-0.965
-0.95
-0.94
-0.93
-0.92
-0.94
-0.945
-0.945
-0.965
-0.965
-0.985
-0.98
-0.99
-0.97
-0.965
-0.95
-0.95
-0.95
-0.94
-0.945
-0.95
-0.96
-0.965
-0.975
-0.975
-0.975
-0.97
-0.97
-0.95
-0.945
-0.95
-0.96
-0.955
-0.97
-0.98
-0.99
-0.995
-0.985
-0.965
-0.95
-0.945
-0.935
-0.935
-0.945
-0.955
-0.96
-0.97
-0.98
-0.99
-0.98
-0.965
-0.945
-0.93
-0.925
-0.93
-0.945
-0.965
-0.98
-0.985
-0.995
-0.985
-0.96
-0.965
-0.955
-0.95
-0.96
-0.97
-0.975
-0.955
-0.935
-0.935
-0.925
-0.925
-0.925
-0.925
-0.935
-0.925
-0.93
-0.92
-0.91
-0.905
-0.91
-0.9
-0.895
-0.89
-0.89
-0.895
-0.9
-0.885
-0.88
-0.89
-0.885
-0.9
-0.9
-0.91
-0.91
-0.91
-0.91
-0.935
-0.94
-0.95
-0.96
-0.965
-0.965
-0.975
-0.985
-0.99
-0.98
-0.985
-0.985
-0.975
-0.99
-0.975
-0.97
-0.955
-0.95
-0.95
-0.96
-0.96
-0.97
-0.965
-0.915
-0.855
-0.765
-0.675
-0.57
-0.485
-0.43
-0.365
-0.31
-0.265
-0.235
-0.205
-0.175
-0.17
-0.175
-0.22
-0.275
-0.325
-0.405
-0.49
-0.585
-0.67
-0.755
-0.825
-0.88
-0.93
-0.94
-0.945
-0.955
-0.945
-0.945
-0.94
-0.945
-0.96
-0.96
-0.955
-0.95
-0.945
-0.935
-0.925
-0.905
-0.91
-0.9
-0.91
-0.935
-0.935
-0.955
-0.955
-0.925
-0.895
-0.87
-0.86
-0.875
-0.89
-0.91
-0.91
-0.91
-0.91
-0.895
-0.89
-0.88
-0.885
-0.87
-0.87
-0.865
-0.86
-0.885
-0.875
-0.885
-0.875
-0.87
-0.86
-0.855
-0.85
-0.85
-0.845
-0.85
-0.87
-0.865
-0.865
-0.855
-0.855
-0.85
-0.845
-0.84
-0.85
-0.84
-0.83
-0.815
-0.83
-0.825
-0.84
-0.855
-0.88
-0.875
-0.885
-0.87
-0.865
-0.86
-0.87
-0.885
-0.885
-0.92
-0.935
-0.955
-0.965
-0.965
-0.975
-0.995
-0.975
-0.975
-0.97
-0.985
-0.99
-1.005
-1.01
-1.01
-1.02
-1.025
-1.035
-1.06
-1.055
-1.06
-1.05
-1.05
-1.03
-1.03
-1.04
-1.035
-1.05
-1.06
-1.07
-1.08
-1.07
-1.07
-1.045
-1.035
-1.03
-1.035
-1.05
-1.065
-1.065
-1.07
-1.06
-1.06
-1.05
-1.045
-1.02
-1.02
-1.025
-1.035
-1.04
-1.04
-1.06
-1.06
-1.06
-1.065
-1.06
-1.05
-1.045
-1.055
-1.075
-1.08
-1.075
-1.08
-1.095
-1.08
-1.06
-1.055
-1.06
-1.075
-1.06
-1.065
-1.08
-1.085
-1.095
-1.095
-1.095
-1.09
-1.095
-1.1
-1.1
-1.12
-1.105
-1.1
-1.095
-1.075
-1.08
-1.075
-1.105
-1.12
-1.13
-1.145
-1.13
-1.105
-1.085
-1.08
-1.06
-1.065
-1.075
-1.08
-1.095
-1.115
-1.13
-1.115
-1.11
-1.095
-1.1
-1.09
-1.095
-1.1
-1.105
-1.105
-1.115
-1.13
-1.125
-1.115
-1.105
-1.08
-1.075
-1.08
-1.075
-1.065
-1.065
-1.07
-1.065
-1.055
-1.065
-1.065
-1.06
-1.055
-1.04
-1.045
-1.03
-1.04
-1.045
-1.04
-1.05
-1.05
-1.055
-1.06
-1.06
-1.05
-1.025
-1.0
-1.005
-1.005
-1.0
-1.0
-0.995
-0.99
-0.98
-0.965
-0.945
-0.93
-0.905
-0.88
-0.865
-0.865
-0.895
-0.93
-0.96
-0.985
-1.0
-1.0
-0.995
-0.975
-0.97
-0.955
-0.955
-0.965
-0.975
-0.98
-0.985
-0.99
-0.985
-0.97
-0.96
-0.95
-0.94
-0.925
-0.935
-0.93
-0.945
-0.97
-0.995
-1.0
-1.015
-1.005
-0.99
-0.985
-0.975
-0.97
-0.975
-0.98
-0.995
-1.01
-1.005
-1.005
-0.985
-0.975
-0.965
-0.955
-0.94
-0.925
-0.895
-0.86
-0.805
-0.75
-0.675
-0.605
-0.54
-0.48
-0.41
-0.37
-0.33
-0.27
-0.225
-0.19
-0.205
-0.24
-0.295
-0.365
-0.42
-0.495
-0.555
-0.625
-0.71
-0.765
-0.805
-0.845
-0.895
-0.915
-0.945
-0.97
-0.985
-1.0
-0.995
-0.99
-0.98
-0.97
-0.98
-0.975
-0.985
-0.985
-0.995
-0.99
-0.985
-0.985
-0.975
-0.975
-0.99
-0.99
-0.99
-0.995
-0.99
-0.975
-0.98
-0.97
-0.985
-0.995
-0.99
-0.99
-0.995
-0.975
-0.98
-0.98
-0.965
-0.96
-0.965
-0.98
-0.975
-0.99
-0.99
-0.975
-0.97
-0.96
-0.955
-0.955
-0.96
-0.995
-1.0
-1.02
-1.0
-0.99
-0.975
-0.975
-0.955
-0.955
-0.965
-0.96
-0.97
-0.98
-0.975
-0.985
-0.985
-0.98
-0.975
-0.97
-0.96
-0.95
-0.95
-0.95
-0.965
-0.975
-0.97
-0.975
-0.985
-0.985
-0.975
-0.98
-0.985
-0.98
-0.99
-1.01
-1.04
-1.045
-1.05
-1.075
-1.085
-1.09
-1.105
-1.105
-1.105
-1.105
-1.115
-1.12
-1.11
-1.095
-1.105
-1.13
-1.155
-1.18
-1.2
-1.2
-1.205
-1.195
-1.17
-1.185
-1.185
-1.195
-1.21
-1.215
-1.21
-1.205
-1.205
-1.2
-1.19
-1.185
-1.185
-1.18
-1.18
-1.2
-1.205
-1.22
-1.23
-1.24
-1.225
-1.205
-1.215
-1.22
-1.225
-1.22
-1.23
-1.24
-1.245
-1.25
-1.25
-1.245
-1.23
-1.235
-1.22
-1.22
-1.23
-1.225
-1.245
-1.255
-1.265
-1.26
-1.265
-1.255
-1.24
-1.215
-1.205
-1.21
-1.22
-1.23
-1.255
-1.265
-1.285
-1.295
-1.295
-1.275
-1.24
-1.225
-1.23
-1.255
-1.275
-1.28
-1.285
-1.3
-1.295
-1.29
-1.3
-1.29
-1.295
-1.3
-1.3
-1.285
-1.27
-1.26
-1.26
-1.26
-1.26
-1.285
-1.285
-1.285
-1.27
-1.265
-1.25
-1.245
-1.245
-1.24
-1.235
-1.24
-1.24
-1.245
-1.255
-1.255
-1.235
-1.22
-1.22
-1.2
-1.18
-1.16
-1.14
-1.155
-1.17
-1.205
-1.225
-1.245
-1.24
-1.21
-1.175
-1.165
-1.17
-1.17
-1.175
-1.17
-1.165
-1.165
-1.17
-1.155
-1.145
-1.125
-1.1
-1.09
-1.075
-1.07
-1.075
-1.08
-1.105
-1.105
-1.105
-1.09
-1.08
-1.065
-1.055
-1.04
-1.035
-1.04
-1.06
-1.045
-1.05
-1.05
-1.05
-1.055
-1.045
-1.05
-1.02
-1.015
-1.02
-1.035
-1.055
-1.085
-1.11
-1.135
-1.135
-1.13
-1.115
-1.105
-1.09
-1.09
-1.075
-1.06
-1.065
-1.07
-1.1
-1.075
-1.065
-1.055
-1.025
-1.01
-0.965
-0.94
-0.925
-0.875
-0.815
-0.745
-0.67
-0.585
-0.5
-0.43
-0.36
-0.305
-0.28
-0.245
-0.22
-0.19
-0.19
-0.215
-0.245
-0.29
-0.325
-0.365
-0.425
-0.495
-0.565
-0.65
-0.73
-0.81
-0.87
-0.925
-0.96
-0.97
-0.975
-0.955
-0.945
-0.93
-0.91
-0.92
-0.925
-0.93
-0.925
-0.92
-0.905
-0.9
-0.91
-0.9
-0.905
-0.905
-0.88
-0.885
-0.89
-0.89
-0.9
-0.89
-0.905
-0.92
-0.935
-0.935
-0.94
-0.9
-0.88
-0.86
-0.84
-0.835
-0.845
-0.87
-0.9
-0.92
-0.93
-0.92
-0.905
-0.885
-0.86
-0.855
-0.86
-0.87
-0.875
-0.89
-0.89
-0.895
-0.895
-0.895
-0.885
-0.865
-0.85
-0.82
-0.82
-0.825
-0.84
-0.86
-0.875
-0.89
-0.9
-0.885
-0.86
-0.84
-0.825
-0.81
-0.81
-0.815
-0.835
-0.84
-0.855
-0.86
-0.855
-0.86
-0.85
-0.86
-0.865
-0.87
-0.875
-0.875
-0.87
-0.875
-0.895
-0.91
-0.93
-0.925
-0.92
-0.925
-0.91
-0.93
-0.94
-0.955
-0.965
-0.97
-0.99
-1.01
-1.01
-1.0
-0.985
-0.99
-0.975
-0.98
-0.985
-0.99
-1.02
-1.025
-1.04
-1.045
-1.04
-1.04
-1.025
-1.02
-1.005
-0.995
-1.0
-1.005
-1.0
-1.0
-1.005
-1.01
-1.01
-1.015
-0.995
-0.98
-0.965
-0.965
-0.965
-0.97
-0.985
-0.995
-1.005
-1.0
-0.99
-0.99
-0.995
-0.97
-0.98
-0.97
-0.985
-0.98
-0.995
-1.01
-1.02
-1.02
-1.035
-1.035
-1.05
-1.04
-1.02
-1.02
-1.02
-1.02
-1.015
-1.025
-1.035
-1.05
-1.05
-1.05
-1.04
-1.05
-1.05
-1.05
-1.05
-1.04
-1.055
-1.06
-1.06
-1.08
-1.09
-1.08
-1.075
-1.07
-1.05
-1.02
-1.025
-1.025
-1.045
-1.065
-1.09
-1.125
-1.105
-1.095
-1.075
-1.06
-1.045
-1.04
-1.04
-1.035
-1.035
-1.04
-1.045
-1.055
-1.055
-1.055
-1.05
-1.06
-1.065
-1.055
-1.065
-1.065
-1.065
-1.055
-1.045
-1.045
-1.05
-1.055
-1.05
-1.03
-1.02
-1.025
-1.0
-0.995
-1.005
-1.0
-1.0
-1.005
-0.985
-0.975
-0.985
-0.97
-0.955
-0.95
-0.945
-0.95
-0.96
-0.95
-0.955
-0.95
-0.94
-0.92
-0.91
-0.905
-0.9
-0.9
-0.89
-0.895
-0.88
-0.865
-0.86
-0.865
-0.88
-0.9
-0.9
-0.89
-0.88
-0.87
-0.88
-0.865
-0.845
-0.835
-0.84
-0.855
-0.87
-0.875
-0.86
-0.84
-0.825
-0.8
-0.805
-0.805
-0.81
-0.84
-0.86
-0.88
-0.885
-0.89
-0.895
-0.895
-0.88
-0.865
-0.87
-0.87
-0.87
-0.89
-0.885
-0.88
-0.86
-0.845
-0.83
-0.805
-0.8
-0.765
-0.75
-0.705
-0.67
-0.605
-0.53
-0.44
-0.345
-0.245
-0.155
-0.09
-0.055
-0.03
-0.02
0.015
0.03
0.025
0.01
-0.03
-0.065
-0.11
-0.165
-0.255
-0.34
-0.455
-0.53
-0.61
-0.68
-0.715
-0.75
-0.77
-0.775
-0.775
-0.78
-0.77
-0.755
-0.735
-0.72
-0.71
-0.71
-0.74
-0.74
-0.73
-0.745
-0.745
-0.745
-0.75
-0.72
-0.7
-0.685
-0.68
-0.685
-0.685
-0.675
-0.675
-0.675
-0.67
-0.68
-0.675
-0.68
-0.68
-0.69
-0.695
-0.705
-0.69
-0.66
-0.66
-0.655
-0.65
-0.655
-0.65
-0.64
-0.62
-0.6
-0.595
-0.615
-0.635
-0.655
-0.645
-0.62
-0.62
-0.62
-0.62
-0.635
-0.635
-0.615
-0.595
-0.575
-0.535
-0.525
-0.51
-0.525
-0.55
-0.59
-0.62
-0.64
-0.61
-0.605
-0.585
-0.59
-0.625
-0.64
-0.65
-0.645
-0.615
-0.585
-0.545
-0.525
-0.535
-0.575
-0.61
-0.64
-0.655
-0.67
-0.67
-0.69
-0.7
-0.7
-0.7
-0.7
-0.685
-0.695
-0.7
-0.72
-0.73
-0.775
-0.765
-0.775
-0.77
-0.755
-0.74
-0.725
-0.71
-0.71
-0.71
-0.715
-0.73
-0.765
-0.78
-0.78
-0.78
-0.745
-0.715
-0.685
-0.68
-0.675
-0.69
-0.695
-0.69
-0.695
-0.695
-0.7
-0.72
-0.745
-0.755
-0.76
-0.74
-0.71
-0.69
-0.675
-0.685
-0.685
-0.725
-0.745
-0.77
-0.785
-0.765
-0.755
-0.725
-0.705
