Lead II
-0.665
-0.68
-0.685
-0.675
-0.665
-0.66
-0.64
-0.64
-0.635
-0.64
-0.63
-0.635
-0.645
-0.65
-0.65
-0.645
-0.645
-0.635
-0.635
-0.63
-0.615
-0.615
-0.615
-0.615
-0.625
-0.63
-0.62
-0.625
-0.62
-0.61
-0.605
-0.605
-0.59
-0.59
-0.59
-0.595
-0.6
-0.595
-0.605
-0.6
-0.585
-0.595
-0.585
-0.575
-0.57
-0.58
-0.585
-0.58
-0.57
-0.57
-0.58
-0.58
-0.565
-0.555
-0.555
-0.555
-0.535
-0.545
-0.54
-0.545
-0.545
-0.545
-0.55
-0.55
-0.54
-0.54
-0.525
-0.515
-0.51
-0.5
-0.51
-0.51
-0.53
-0.52
-0.535
-0.53
-0.52
-0.51
-0.49
-0.49
-0.49
-0.485
-0.495
-0.5
-0.495
-0.505
-0.51
-0.515
-0.505
-0.515
-0.52
-0.51
-0.515
-0.52
-0.53
-0.55
-0.555
-0.565
-0.585
-0.59
-0.6
-0.605
-0.595
-0.605
-0.605
-0.62
-0.625
-0.64
-0.64
-0.66
-0.675
-0.68
-0.67
-0.67
-0.665
-0.675
-0.665
-0.675
-0.665
-0.68
-0.685
-0.7
-0.7
-0.695
-0.71
-0.705
-0.7
-0.7
-0.67
-0.675
-0.69
-0.695
-0.71
-0.71
-0.705
-0.71
-0.715
-0.71
-0.7
-0.7
-0.695
-0.7
-0.695
-0.71
-0.725
-0.725
-0.74
-0.745
-0.735
-0.735
-0.735
-0.735
-0.72
-0.725
-0.725
-0.745
-0.745
-0.755
-0.745
-0.745
-0.755
-0.735
-0.74
-0.725
-0.735
-0.735
-0.735
-0.74
-0.75
-0.75
-0.755
-0.76
-0.755
-0.75
-0.73
-0.735
-0.725
-0.74
-0.73
-0.74
-0.745
-0.755
-0.755
-0.765
-0.755
-0.74
-0.735
-0.73
-0.715
-0.72
-0.735
-0.745
-0.74
-0.74
-0.755
-0.745
-0.75
-0.745
-0.74
-0.725
-0.715
-0.73
-0.725
-0.73
-0.74
-0.745
-0.74
-0.755
-0.755
-0.745
-0.74
-0.73
-0.71
-0.72
-0.73
-0.73
-0.735
-0.75
-0.755
-0.75
-0.75
-0.74
-0.74
-0.735
-0.72
-0.715
-0.73
-0.72
-0.73
-0.735
-0.74
-0.72
-0.74
-0.73
-0.725
-0.72
-0.715
-0.715
-0.715
-0.715
-0.73
-0.725
-0.72
-0.735
-0.74
-0.74
-0.73
-0.715
-0.7
-0.7
-0.71
-0.725
-0.725
-0.735
-0.73
-0.72
-0.715
-0.715
-0.715
-0.71
-0.705
-0.7
-0.71
-0.71
-0.72
-0.73
-0.74
-0.725
-0.73
-0.715
-0.72
-0.71
-0.71
-0.705
-0.71
-0.715
-0.72
-0.725
-0.735
-0.735
-0.725
-0.725
-0.715
-0.705
-0.695
-0.695
-0.69
-0.685
-0.695
-0.675
-0.68
-0.67
-0.66
-0.65
-0.645
-0.63
-0.625
-0.645
-0.655
-0.655
-0.645
-0.645
-0.655
-0.64
-0.64
-0.635
-0.635
-0.635
-0.63
-0.625
-0.625
-0.63
-0.625
-0.64
-0.655
-0.67
-0.675
-0.67
-0.655
-0.66
-0.66
-0.665
-0.685
-0.7
-0.7
-0.7
-0.7
-0.705
-0.695
-0.695
-0.68
-0.67
-0.655
-0.665
-0.67
-0.67
-0.665
-0.665
-0.66
-0.65
-0.63
-0.605
-0.54
-0.455
-0.345
-0.24
-0.105
0.005
0.105
0.19
0.235
0.265
0.29
0.29
0.25
0.185
0.095
0.0
-0.1
-0.2
-0.3
-0.385
-0.445
-0.52
-0.57
-0.605
-0.63
-0.645
-0.65
-0.65
-0.65
-0.64
-0.645
-0.645
-0.645
-0.655
-0.66
-0.645
-0.63
-0.62
-0.61
-0.605
-0.615
-0.61
-0.615
-0.625
-0.615
-0.625
-0.61
-0.605
-0.6
-0.585
-0.565
-0.58
-0.58
-0.57
-0.585
-0.595
-0.595
-0.595
-0.595
-0.58
-0.575
-0.565
-0.56
-0.56
-0.565
-0.565
-0.57
-0.58
-0.58
-0.585
-0.57
-0.56
-0.555
-0.56
-0.54
-0.535
-0.535
-0.54
-0.54
-0.545
-0.55
-0.55
-0.54
-0.53
-0.525
-0.515
-0.51
-0.505
-0.51
-0.505
-0.495
-0.515
-0.505
-0.505
-0.5
-0.5
-0.485
-0.475
-0.47
-0.47
-0.47
-0.475
-0.475
-0.47
-0.47
-0.48
-0.49
-0.485
-0.485
-0.485
-0.47
-0.47
-0.48
-0.495
-0.505
-0.525
-0.53
-0.54
-0.535
-0.545
-0.555
-0.555
-0.555
-0.56
-0.575
-0.58
-0.605
-0.615
-0.625
-0.63
-0.64
-0.625
-0.635
-0.625
-0.62
-0.635
-0.625
-0.635
-0.645
-0.645
-0.645
-0.64
-0.635
-0.635
-0.64
-0.63
-0.62
-0.63
-0.64
-0.635
-0.655
-0.655
-0.665
-0.675
-0.67
-0.665
-0.66
-0.66
-0.655
-0.645
-0.65
-0.665
-0.665
-0.675
-0.67
-0.675
-0.69
-0.68
-0.67
-0.665
-0.665
-0.665
-0.67
-0.68
-0.68
-0.68
-0.685
-0.685
-0.685
-0.685
-0.68
-0.665
-0.66
-0.675
-0.68
-0.685
-0.695
-0.7
-0.7
-0.7
-0.7
-0.69
-0.685
-0.675
-0.665
-0.665
-0.67
-0.675
-0.67
-0.68
-0.68
-0.685
-0.685
-0.675
-0.67
-0.665
-0.66
-0.655
-0.655
-0.655
-0.66
-0.675
-0.67
-0.68
-0.675
-0.67
-0.67
-0.66
-0.65
-0.645
-0.655
-0.655
-0.655
-0.665
-0.665
-0.655
-0.66
-0.66
-0.64
-0.64
-0.635
-0.62
-0.635
-0.64
-0.65
-0.655
-0.665
-0.65
-0.67
-0.66
-0.64
-0.645
-0.64
-0.635
-0.625
-0.62
-0.635
-0.645
-0.645
-0.64
-0.63
-0.625
-0.625
-0.615
-0.605
-0.605
-0.625
-0.625
-0.62
-0.61
-0.63
-0.63
-0.63
-0.625
-0.625
-0.61
-0.61
-0.62
-0.615
-0.61
-0.62
-0.62
-0.61
-0.615
-0.615
-0.615
-0.6
-0.605
-0.59
-0.585
-0.6
-0.6
-0.61
-0.615
-0.615
-0.615
-0.615
-0.615
-0.6
-0.61
-0.595
-0.59
-0.595
-0.585
-0.595
-0.605
-0.605
-0.6
-0.6
-0.6
-0.58
-0.57
-0.54
-0.545
-0.535
-0.53
-0.53
-0.55
-0.565
-0.57
-0.57
-0.56
-0.53
-0.53
-0.52
-0.525
-0.53
-0.53
-0.54
-0.57
-0.57
-0.555
-0.56
-0.545
-0.54
-0.54
-0.55
-0.54
-0.54
-0.555
-0.575
-0.6
-0.6
-0.61
-0.61
-0.61
-0.605
-0.595
-0.6
-0.6
-0.595
-0.6
-0.6
-0.615
-0.605
-0.605
-0.605
-0.6
-0.595
-0.595
-0.575
-0.575
-0.58
-0.565
-0.57
-0.535
-0.49
-0.415
-0.32
-0.215
-0.09
0.025
0.13
0.225
0.29
0.325
0.36
0.385
0.385
0.35
0.28
0.21
0.15
0.07
-0.01
-0.095
-0.205
-0.295
-0.39
-0.445
-0.495
-0.535
-0.575
-0.59
-0.595
-0.6
-0.6
-0.58
-0.58
-0.585
-0.585
-0.59
-0.605
-0.6
-0.6
-0.585
-0.585
-0.575
-0.575
-0.565
-0.565
-0.575
-0.585
-0.58
-0.595
-0.595
-0.59
-0.57
-0.565
-0.55
-0.55
-0.54
-0.545
-0.545
-0.545
-0.56
-0.56
-0.55
-0.55
-0.555
-0.545
-0.54
-0.525
-0.525
-0.52
-0.53
-0.53
-0.54
-0.535
-0.54
-0.54
-0.545
-0.54
-0.525
-0.51
-0.52
-0.52
-0.515
-0.535
-0.525
-0.52
-0.52
-0.515
-0.51
-0.515
-0.505
-0.495
-0.495
-0.48
-0.485
-0.5
-0.495
-0.495
-0.505
-0.5
-0.485
-0.485
-0.48
-0.47
-0.475
-0.47
-0.47
-0.475
-0.475
-0.48
-0.485
-0.48
-0.485
-0.495
-0.495
-0.48
-0.48
-0.46
-0.48
-0.49
-0.505
-0.505
-0.52
-0.515
-0.525
-0.525
-0.53
-0.53
-0.535
-0.56
-0.565
-0.575
-0.585
-0.6
-0.615
-0.62
-0.62
-0.62
-0.63
-0.63
-0.635
-0.63
-0.64
-0.655
-0.655
-0.665
-0.665
-0.67
-0.665
-0.68
-0.675
-0.67
-0.67
-0.665
-0.67
-0.675
-0.685
-0.69
-0.7
-0.7
-0.69
-0.695
-0.69
-0.68
-0.685
-0.685
-0.695
-0.72
-0.715
-0.72
-0.73
-0.735
-0.725
-0.72
-0.715
-0.71
-0.72
-0.72
-0.72
-0.735
-0.725
-0.735
-0.74
-0.75
-0.745
-0.75
-0.75
-0.73
-0.72
-0.735
-0.73
-0.745
-0.75
-0.77
-0.775
-0.765
-0.775
-0.755
-0.75
-0.755
-0.745
-0.74
-0.745
-0.75
-0.755
-0.765
-0.775
-0.78
-0.77
-0.765
-0.755
-0.755
-0.765
-0.75
-0.755
-0.765
-0.755
-0.77
-0.785
-0.78
-0.775
-0.765
-0.76
-0.765
-0.755
-0.76
-0.76
-0.765
-0.78
-0.775
-0.775
-0.77
-0.77
-0.765
-0.755
-0.755
-0.755
-0.75
-0.745
-0.755
-0.76
-0.765
-0.79
-0.785
-0.78
-0.785
-0.765
-0.75
-0.755
-0.76
-0.76
-0.765
-0.77
-0.775
-0.78
-0.775
-0.765
-0.765
-0.755
-0.755
-0.75
-0.755
-0.765
-0.785
-0.78
-0.79
-0.795
-0.795
-0.785
-0.77
-0.755
-0.75
-0.75
-0.755
-0.75
-0.76
-0.77
-0.765
-0.78
-0.775
-0.77
-0.77
-0.755
-0.75
-0.755
-0.75
-0.75
-0.755
-0.77
-0.775
-0.785
-0.78
-0.775
-0.77
-0.765
-0.77
-0.765
-0.77
-0.775
-0.78
-0.785
-0.785
-0.79
-0.795
-0.795
-0.785
-0.78
-0.765
-0.76
-0.77
-0.78
-0.78
-0.775
-0.79
-0.795
-0.785
-0.78
-0.78
-0.775
-0.76
-0.745
-0.735
-0.725
-0.725
-0.74
-0.745
-0.745
-0.745
-0.755
-0.745
-0.72
-0.72
-0.725
-0.725
-0.715
-0.715
-0.73
-0.74
-0.74
-0.745
-0.75
-0.725
-0.72
-0.71
-0.715
-0.73
-0.735
-0.75
-0.755
-0.775
-0.795
-0.79
-0.8
-0.79
-0.8
-0.785
-0.785
-0.795
-0.775
-0.785
-0.8
-0.795
-0.805
-0.795
-0.785
-0.78
-0.76
-0.765
-0.76
-0.745
-0.73
-0.72
-0.68
-0.625
-0.535
-0.435
-0.315
-0.21
-0.115
-0.03
0.04
0.085
0.12
0.13
0.15
0.145
0.09
0.025
-0.04
-0.125
-0.19
-0.26
-0.345
-0.44
-0.52
-0.575
-0.64
-0.695
-0.735
-0.765
-0.775
-0.785
-0.775
-0.76
-0.75
-0.755
-0.75
-0.76
-0.76
-0.765
-0.775
-0.775
-0.775
-0.76
-0.75
-0.75
-0.73
-0.74
-0.74
-0.735
-0.755
-0.755
-0.745
-0.755
-0.75
-0.74
-0.745
-0.725
-0.71
-0.72
-0.72
-0.71
-0.72
-0.72
-0.725
-0.72
-0.715
-0.7
-0.685
-0.69
-0.7
-0.69
-0.69
-0.695
-0.695
-0.705
-0.7
-0.7
-0.695
-0.695
-0.69
-0.67
-0.665
-0.675
-0.665
-0.67
-0.675
-0.67
-0.685
-0.685
-0.675
-0.67
-0.66
-0.635
-0.64
-0.625
-0.63
-0.635
-0.64
-0.64
-0.65
-0.645
-0.645
-0.645
-0.62
-0.6
-0.595
-0.6
-0.59
-0.6
-0.62
-0.63
-0.63
-0.62
-0.615
-0.615
-0.605
-0.59
-0.595
-0.595
-0.605
-0.61
-0.625
-0.635
-0.64
-0.645
-0.64
-0.655
-0.65
-0.65
-0.66
-0.67
-0.685
-0.7
-0.7
-0.715
-0.72
-0.725
-0.735
-0.74
-0.725
-0.73
-0.725
-0.73
-0.74
-0.76
-0.76
-0.79
-0.79
-0.795
-0.795
-0.775
-0.78
-0.765
-0.745
-0.76
-0.765
-0.775
-0.785
-0.775
-0.79
-0.8
-0.79
-0.78
-0.78
-0.775
-0.76
-0.78
-0.78
-0.79
-0.8
-0.8
-0.805
-0.795
-0.795
-0.78
-0.78
-0.775
-0.77
-0.785
-0.785
-0.79
-0.795
-0.805
-0.815
-0.805
-0.8
-0.79
-0.795
-0.79
-0.795
-0.79
-0.785
-0.8
-0.8
-0.805
-0.82
-0.825
-0.825
-0.815
-0.795
-0.79
-0.8
-0.805
-0.805
-0.805
-0.8
-0.815
-0.815
-0.805
-0.81
-0.805
-0.8
-0.795
-0.795
-0.795
-0.795
-0.805
-0.805
-0.805
-0.82
-0.815
-0.805
-0.8
-0.815
-0.8
-0.79
-0.785
-0.78
-0.795
-0.8
-0.815
-0.8
-0.795
-0.795
-0.785
-0.78
-0.775
-0.775
-0.775
-0.77
-0.78
-0.795
-0.795
-0.8
-0.805
-0.8
-0.785
-0.785
-0.78
-0.765
-0.78
-0.785
-0.785
-0.79
-0.8
-0.795
-0.795
-0.795
-0.78
-0.755
-0.75
-0.76
-0.765
-0.77
-0.78
-0.785
-0.78
-0.775
-0.775
-0.77
-0.77
-0.765
-0.775
-0.77
-0.755
-0.755
-0.77
-0.78
-0.785
-0.785
-0.775
-0.765
-0.765
-0.745
-0.745
-0.73
-0.745
-0.74
-0.735
-0.75
-0.75
-0.755
-0.75
-0.755
-0.745
-0.74
-0.745
-0.735
-0.74
-0.74
-0.75
-0.765
-0.75
-0.755
-0.75
-0.75
-0.75
-0.75
-0.74
-0.73
-0.73
-0.72
-0.72
-0.72
-0.715
-0.715
-0.705
-0.71
-0.695
-0.695
-0.695
-0.69
-0.695
-0.69
-0.69
-0.715
-0.735
-0.72
-0.725
-0.715
-0.7
-0.7
-0.69
-0.68
-0.695
-0.69
-0.7
-0.695
-0.7
-0.71
-0.705
-0.73
-0.74
-0.755
-0.745
-0.75
-0.755
-0.755
-0.765
-0.765
-0.77
-0.77
-0.775
-0.775
-0.77
-0.77
-0.745
-0.745
-0.745
-0.735
-0.745
-0.745
-0.74
-0.725
-0.685
-0.62
-0.535
-0.43
-0.29
-0.165
-0.035
0.075
0.175
0.235
0.255
0.275
0.27
0.245
0.185
0.115
0.025
-0.055
-0.13
-0.205
-0.285
-0.365
-0.445
-0.515
-0.575
-0.625
-0.665
-0.7
-0.735
-0.75
-0.745
-0.75
-0.735
-0.73
-0.73
-0.74
-0.74
-0.74
-0.735
-0.735
-0.725
-0.72
-0.715
-0.715
-0.725
-0.73
-0.74
-0.73
-0.73
-0.725
-0.715
-0.715
-0.705
-0.71
-0.7
-0.705
-0.705
-0.71
-0.71
-0.71
-0.715
-0.71
-0.7
-0.695
-0.69
-0.675
-0.68
-0.685
-0.685
-0.695
-0.7
-0.7
-0.7
-0.705
-0.695
-0.68
-0.67
-0.66
-0.665
-0.66
-0.67
-0.675
-0.7
-0.675
-0.67
-0.66
-0.66
-0.655
-0.645
-0.63
-0.625
-0.635
-0.64
-0.64
-0.655
-0.645
-0.645
-0.64
-0.625
-0.615
-0.605
-0.595
-0.6
-0.6
-0.6
-0.605
-0.63
-0.615
-0.6
-0.61
-0.61
-0.605
-0.605
-0.595
-0.59
-0.6
-0.61
-0.62
-0.625
-0.63
-0.645
-0.645
-0.645
-0.635
-0.635
-0.645
-0.65
-0.655
-0.675
-0.69
-0.715
-0.73
-0.74
-0.74
-0.745
-0.745
-0.75
-0.745
-0.75
-0.755
-0.79
-0.79
-0.8
-0.81
-0.8
-0.795
-0.8
-0.79
-0.795
-0.8
-0.8
-0.815
-0.815
-0.815
-0.82
-0.835
-0.835
-0.83
-0.805
-0.815
-0.805
-0.81
-0.81
-0.815
-0.825
-0.83
-0.845
-0.84
-0.84
-0.84
-0.84
-0.835
-0.825
-0.82
-0.83
-0.835
-0.84
-0.855
-0.855
-0.865
-0.86
-0.855
-0.865
-0.845
-0.845
-0.85
-0.845
-0.85
-0.865
-0.87
-0.885
-0.89
-0.895
-0.875
-0.87
-0.87
-0.86
-0.865
-0.86
-0.865
-0.875
-0.87
-0.88
-0.895
-0.89
-0.89
-0.875
-0.855
-0.86
-0.855
-0.85
-0.85
-0.865
-0.865
-0.875
-0.88
-0.875
-0.875
-0.875
-0.87
-0.865
-0.855
-0.86
-0.865
-0.865
-0.865
-0.875
-0.89
-0.885
-0.875
-0.87
-0.86
-0.85
-0.845
-0.845
-0.845
-0.85
-0.855
-0.87
-0.875
-0.87
-0.87
-0.855
-0.86
-0.87
-0.845
-0.855
-0.845
-0.845
-0.855
-0.87
-0.875
-0.875
-0.87
-0.865
-0.865
-0.86
-0.85
-0.86
-0.86
-0.87
-0.875
-0.88
-0.885
-0.885
-0.87
-0.87
-0.865
-0.855
-0.84
-0.835
-0.845
-0.85
-0.87
-0.86
-0.865
-0.865
-0.865
-0.87
-0.86
-0.845
-0.845
-0.84
-0.845
-0.85
-0.86
-0.855
-0.87
-0.87
-0.865
-0.865
-0.865
-0.85
-0.84
-0.845
-0.845
-0.85
-0.86
-0.86
-0.855
-0.865
-0.855
-0.85
-0.845
-0.84
-0.835
-0.845
-0.85
-0.85
-0.85
-0.855
-0.86
-0.855
-0.855
-0.855
-0.845
-0.83
-0.82
-0.815
-0.81
-0.805
-0.81
-0.8
-0.82
-0.805
-0.81
-0.815
-0.8
-0.785
-0.765
-0.775
-0.765
-0.77
-0.785
-0.795
-0.8
-0.805
-0.805
-0.805
-0.79
-0.78
-0.77
-0.77
-0.785
-0.805
-0.805
-0.81
-0.825
-0.825
-0.83
-0.83
-0.825
-0.84
-0.83
-0.82
-0.815
-0.825
-0.825
-0.835
-0.84
-0.86
-0.845
-0.845
-0.84
-0.83
-0.805
-0.82
-0.815
-0.81
-0.825
-0.795
-0.765
-0.71
-0.625
-0.51
-0.385
-0.24
-0.09
0.035
0.13
0.195
0.225
0.255
0.24
0.205
0.135
0.05
-0.055
-0.15
-0.21
-0.285
-0.375
-0.455
-0.54
-0.605
-0.665
-0.72
-0.775
-0.805
-0.795
-0.825
-0.81
-0.795
-0.785
-0.795
-0.795
-0.8
-0.81
-0.805
-0.81
-0.805
-0.785
-0.77
-0.775
-0.765
-0.765
-0.775
-0.775
-0.785
-0.775
-0.79
-0.78
-0.775
-0.765
-0.76
-0.745
-0.745
-0.75
-0.755
-0.76
-0.765
-0.765
-0.755
-0.75
-0.745
-0.74
-0.725
-0.72
-0.725
-0.73
-0.73
-0.74
-0.745
-0.735
-0.74
-0.735
-0.73
-0.72
-0.71
-0.695
-0.695
-0.7
-0.7
-0.7
-0.715
-0.715
-0.71
-0.72
-0.7
-0.695
-0.675
-0.67
-0.68
-0.69
-0.68
-0.675
-0.7
-0.7
-0.705
-0.685
-0.69
-0.675
-0.665
-0.65
-0.645
-0.655
-0.65
-0.66
-0.665
-0.665
-0.665
-0.665
-0.66
-0.65
-0.665
-0.66
-0.655
-0.67
-0.675
-0.68
-0.7
-0.705
-0.72
-0.73
-0.725
-0.725
-0.725
-0.72
-0.735
-0.75
-0.775
-0.785
-0.81
-0.81
-0.81
-0.83
-0.83
-0.83
-0.835
-0.825
-0.83
-0.845
-0.845
-0.865
-0.86
-0.87
-0.875
-0.88
-0.875
-0.86
-0.87
-0.855
-0.855
-0.855
-0.885
-0.87
-0.88
-0.89
-0.89
-0.9
-0.89
-0.875
-0.865
-0.85
-0.855
-0.86
-0.865
-0.875
-0.885
-0.885
-0.88
-0.9
-0.89
-0.885
-0.885
-0.875
-0.88
-0.88
-0.885
-0.895
-0.905
-0.915
-0.925
-0.92
-0.91
-0.9
-0.885
-0.885
-0.885
-0.885
-0.89
-0.895
-0.915
-0.91
-0.915
-0.915
-0.905
-0.9
-0.89
-0.88
-0.89
-0.885
-0.885
-0.89
-0.9
-0.91
-0.92
-0.905
-0.9
-0.885
-0.885
-0.875
-0.875
-0.87
-0.88
-0.885
-0.875
-0.89
-0.895
-0.895
-0.885
-0.875
-0.87
-0.86
-0.87
-0.87
-0.87
-0.87
-0.885
-0.885
-0.9
-0.885
-0.885
-0.88
-0.865
-0.855
-0.85
-0.86
-0.86
-0.865
-0.87
-0.88
-0.885
-0.88
-0.865
-0.86
-0.87
-0.855
-0.85
-0.865
-0.86
-0.86
-0.88
-0.89
-0.895
-0.865
-0.87
-0.865
-0.845
-0.85
-0.865
-0.86
-0.86
-0.875
-0.87
-0.87
-0.87
-0.87
-0.865
-0.855
-0.855
-0.845
-0.85
-0.865
-0.865
-0.855
-0.86
-0.865
-0.875
-0.87
-0.86
-0.845
-0.84
-0.84
-0.845
-0.855
-0.84
-0.84
-0.86
-0.86
-0.875
-0.865
-0.87
-0.865
-0.86
-0.855
-0.855
-0.85
-0.86
-0.86
-0.855
-0.86
-0.865
-0.85
-0.865
-0.85
-0.85
-0.84
-0.835
-0.835
-0.845
-0.85
-0.85
-0.845
-0.835
-0.81
-0.795
-0.78
-0.775
-0.775
-0.79
-0.795
-0.795
-0.795
-0.785
-0.79
-0.79
-0.805
-0.795
-0.785
-0.77
-0.76
-0.76
-0.77
-0.77
-0.785
-0.785
-0.8
-0.81
-0.81
-0.805
-0.805
-0.815
-0.82
-0.83
-0.83
-0.84
-0.86
-0.845
-0.85
-0.86
-0.86
-0.85
-0.845
-0.83
-0.82
-0.815
-0.815
-0.81
-0.83
-0.82
-0.825
-0.835
-0.805
-0.76
-0.69
-0.605
-0.49
-0.355
-0.22
-0.09
0.035
0.13
0.205
0.24
0.255
0.25
0.205
0.115
0.025
-0.075
-0.175
-0.265
-0.33
-0.415
-0.485
-0.575
-0.63
-0.685
-0.745
-0.785
-0.8
-0.82
-0.835
-0.835
-0.84
-0.84
-0.835
-0.835
-0.84
-0.845
-0.84
-0.83
-0.82
-0.81
-0.805
-0.815
-0.805
-0.82
-0.825
-0.82
-0.815
-0.795
-0.8
-0.8
-0.8
-0.82
-0.81
-0.81
-0.8
-0.805
-0.805
-0.82
-0.815
-0.815
-0.785
-0.79
-0.775
-0.78
-0.78
-0.795
-0.79
-0.785
-0.79
-0.8
-0.805
-0.805
-0.8
-0.775
-0.765
-0.76
-0.775
-0.765
-0.785
-0.78
-0.785
-0.79
-0.785
-0.78
-0.77
-0.75
-0.735
-0.735
-0.73
-0.735
-0.735
-0.745
-0.75
-0.75
-0.75
-0.735
-0.72
-0.715
-0.71
-0.71
-0.705
-0.705
-0.705
-0.71
-0.705
-0.71
-0.725
-0.71
-0.71
-0.7
-0.7
-0.7
-0.715
-0.72
-0.735
-0.74
-0.75
-0.76
-0.775
-0.76
-0.755
-0.75
-0.755
-0.755
-0.77
-0.78
-0.785
-0.815
-0.815
-0.83
-0.835
-0.84
-0.84
-0.84
-0.845
-0.85
-0.865
-0.875
-0.885
-0.88
-0.885
-0.885
-0.885
-0.885
-0.885
-0.885
-0.88
-0.905
-0.9
-0.9
-0.91
-0.92
-0.92
-0.91
-0.905
-0.905
-0.91
-0.91
-0.9
-0.9
-0.905
-0.915
-0.915
-0.91
-0.925
-0.93
-0.935
-0.92
-0.925
-0.915
-0.92
-0.91
-0.92
-0.925
-0.93
-0.95
-0.95
-0.955
-0.965
-0.965
-0.945
-0.95
-0.925
-0.935
-0.935
-0.94
-0.945
-0.955
-0.965
-0.975
-0.965
-0.96
-0.945
-0.945
-0.94
-0.95
-0.955
-0.95
-0.96
-0.96
-0.965
-0.97
-0.96
-0.955
-0.96
-0.945
-0.94
-0.94
-0.945
-0.96
-0.965
-0.985
-0.99
-0.99
-0.985
-0.97
-0.965
-0.95
-0.95
-0.95
-0.955
-0.95
-0.97
-0.955
-0.975
-0.975
-0.995
-0.975
-0.96
-0.955
-0.955
-0.95
-0.95
-0.96
-0.98
-0.965
-0.975
-0.98
-0.98
-0.99
-0.995
-0.99
-0.995
-0.985
-0.98
-0.975
-0.975
-0.97
-0.99
-0.985
-0.98
-0.99
-0.99
-0.985
-0.965
-0.965
-0.955
-0.955
-0.965
-0.98
-0.99
-0.985
-0.985
-0.99
-0.985
-0.98
-0.96
-0.955
-0.965
-0.96
-0.97
-0.98
-0.99
-0.98
-0.99
-0.985
-0.97
-0.965
-0.955
-0.945
-0.955
-0.95
-0.955
-0.97
-0.98
-0.985
-0.99
-0.99
-0.98
-0.97
-0.95
-0.935
-0.94
-0.955
-0.975
-0.985
-0.985
-1.0
-0.99
-0.975
-0.965
-0.955
-0.955
-0.965
-0.95
-0.955
-0.95
-0.945
-0.94
-0.93
-0.925
-0.915
-0.915
-0.91
-0.9
-0.91
-0.9
-0.895
-0.91
-0.915
-0.93
-0.945
-0.93
-0.93
-0.92
-0.915
-0.895
-0.89
-0.89
-0.89
-0.915
-0.925
-0.935
-0.945
-0.95
-0.94
-0.95
-0.95
-0.955
-0.965
-0.965
-0.97
-0.985
-0.985
-0.985
-0.995
-1.005
-1.005
-0.99
-0.99
-0.98
-0.98
-0.955
-0.96
-0.96
-0.95
-0.955
-0.955
-0.925
-0.88
-0.8
-0.705
-0.59
-0.46
-0.335
-0.215
-0.12
-0.035
0.02
0.06
0.095
0.105
0.085
0.03
-0.045
-0.145
-0.245
-0.32
-0.425
-0.525
-0.64
-0.755
-0.835
-0.905
-0.945
-0.97
-0.975
-0.975
-0.975
-0.98
-0.98
-0.975
-1.0
-0.995
-0.99
-1.01
-1.01
-0.995
-0.985
-0.98
-0.98
-0.985
-0.995
-1.0
-1.0
-1.0
-1.0
-1.005
-1.0
-0.995
-0.99
-0.99
-0.99
-0.995
-1.005
-0.995
-1.015
-1.02
-1.02
-1.01
-1.01
-1.01
-1.01
-1.0
-1.0
-1.005
-0.995
-0.995
-0.995
-0.995
-0.995
-1.005
-0.985
-0.995
-0.98
-0.97
-0.99
-0.98
-0.975
-0.985
-1.0
-0.995
-1.0
-0.995
-0.995
-0.985
-0.97
-0.96
-0.97
-0.955
-0.96
-0.955
-0.95
-0.96
-0.965
-0.965
-0.955
-0.945
-0.945
-0.93
-0.94
-0.935
-0.925
-0.93
-0.93
-0.95
-0.96
-0.945
-0.94
-0.94
-0.925
-0.925
-0.93
-0.94
-0.945
-0.955
-0.965
-0.97
-0.97
-0.97
-0.945
-0.95
-0.95
-0.96
-0.985
-0.98
-1.0
-1.0
-1.02
-1.03
-1.045
-1.045
-1.03
-1.035
-1.035
-1.04
-1.045
-1.06
-1.065
-1.07
-1.075
-1.085
-1.09
-1.095
-1.095
-1.085
-1.085
-1.075
-1.065
-1.08
-1.09
-1.085
-1.095
-1.105
-1.1
-1.085
-1.085
-1.095
-1.085
-1.105
-1.11
-1.1
-1.105
-1.12
-1.125
-1.12
-1.125
-1.135
-1.12
-1.105
-1.095
-1.095
-1.1
-1.11
-1.11
-1.13
-1.135
-1.13
-1.125
-1.12
-1.11
-1.11
-1.11
-1.105
-1.11
-1.13
-1.135
-1.125
-1.13
-1.12
-1.115
-1.12
-1.115
-1.11
-1.09
-1.095
-1.09
-1.105
-1.1
-1.105
-1.1
-1.1
-1.11
-1.115
-1.12
-1.115
-1.1
-1.095
-1.095
-1.09
-1.1
-1.1
-1.105
-1.11
-1.105
-1.09
-1.095
-1.09
-1.08
-1.08
-1.065
-1.075
-1.085
-1.09
-1.1
-1.1
-1.1
-1.105
-1.09
-1.085
-1.075
-1.065
-1.075
-1.075
-1.075
-1.09
-1.085
-1.1
-1.09
-1.085
-1.07
-1.065
-1.07
-1.05
-1.05
-1.06
-1.07
-1.065
-1.075
-1.07
-1.085
-1.075
-1.05
-1.055
-1.045
-1.03
-1.02
-1.035
-1.02
-1.035
-1.04
-1.05
-1.045
-1.055
-1.035
-1.025
-1.015
-1.015
-1.015
-1.015
-1.02
-1.02
-1.03
-1.03
-1.03
-1.02
-1.01
-1.015
-0.99
-1.0
-1.005
-0.99
-1.0
-0.995
-1.0
-1.0
-0.995
-0.985
-0.98
-0.98
-0.98
-0.965
-0.975
-0.985
-0.985
-0.99
-0.985
-0.98
-0.985
-0.97
-0.96
-0.965
-0.965
-0.955
-0.955
-0.955
-0.95
-0.955
-0.96
-0.955
-0.98
-0.96
-0.945
-0.93
-0.915
-0.92
-0.915
-0.925
-0.925
-0.925
-0.91
-0.915
-0.9
-0.875
-0.865
-0.85
-0.845
-0.86
-0.865
-0.875
-0.86
-0.86
-0.87
-0.87
-0.86
-0.855
-0.845
-0.845
-0.84
-0.84
-0.835
-0.835
-0.835
-0.835
-0.84
-0.855
-0.86
-0.86
-0.845
-0.845
-0.855
-0.86
-0.875
-0.88
-0.885
-0.89
-0.89
-0.895
-0.905
-0.885
-0.875
-0.865
-0.86
-0.86
-0.86
-0.85
-0.87
-0.865
-0.845
-0.85
-0.845
-0.83
-0.785
-0.71
-0.61
-0.505
-0.37
-0.245
-0.125
-0.01
0.095
0.175
0.225
0.265
0.29
0.255
0.205
0.11
0.0
-0.11
-0.205
-0.305
-0.39
-0.475
-0.55
-0.61
-0.66
-0.705
-0.745
-0.79
-0.815
-0.85
-0.855
-0.85
-0.845
-0.83
-0.85
-0.82
-0.82
-0.805
-0.8
-0.79
-0.79
-0.795
-0.81
-0.81
-0.825
-0.83
-0.815
-0.81
-0.805
-0.79
-0.8
-0.785
-0.78
-0.78
-0.785
-0.79
-0.795
-0.79
-0.79
-0.78
-0.775
-0.77
-0.755
-0.745
-0.75
-0.75
-0.745
-0.77
-0.775
-0.775
-0.775
-0.765
-0.76
-0.755
-0.75
-0.74
-0.75
-0.735
-0.725
-0.755
-0.765
-0.75
-0.745
-0.74
-0.73
-0.715
-0.715
-0.7
-0.705
-0.7
-0.705
-0.71
-0.715
-0.715
-0.71
-0.695
-0.695
-0.68
-0.685
-0.69
-0.675
-0.675
-0.685
-0.69
-0.705
-0.7
-0.7
-0.685
-0.68
-0.675
-0.68
-0.67
-0.665
-0.675
-0.69
-0.71
-0.715
-0.71
-0.72
-0.72
-0.715
-0.72
-0.715
-0.715
-0.74
-0.75
-0.765
-0.785
-0.78
-0.79
-0.805
-0.815
-0.815
-0.82
-0.825
-0.83
-0.835
-0.835
-0.85
-0.845
-0.88
-0.88
-0.885
-0.885
-0.88
-0.885
-0.865
-0.87
-0.875
-0.87
-0.87
-0.88
-0.89
-0.89
-0.9
-0.885
-0.875
-0.88
-0.885
-0.875
-0.885
-0.88
-0.895
-0.9
-0.9
-0.91
-0.91
-0.92
-0.915
-0.93
-0.915
-0.89
-0.9
-0.905
-0.91
-0.915
-0.93
-0.94
-0.94
-0.935
-0.925
-0.91
-0.92
-0.91
-0.93
-0.93
-0.945
-0.945
-0.95
-0.965
-0.965
-0.955
-0.95
-0.945
-0.935
-0.93
-0.915
-0.92
-0.935
-0.935
-0.95
-0.96
-0.955
-0.945
-0.945
-0.93
-0.92
-0.905
-0.915
-0.92
-0.94
-0.945
-0.95
-0.945
-0.945
-0.94
-0.925
-0.92
-0.915
-0.92
-0.925
-0.935
-0.945
-0.94
-0.96
-0.95
-0.95
-0.945
-0.95
-0.95
-0.945
-0.93
-0.93
-0.93
-0.935
-0.935
-0.94
-0.945
-0.945
-0.95
-0.945
-0.96
-0.945
-0.935
-0.93
-0.935
-0.925
-0.94
-0.94
-0.955
-0.95
-0.955
-0.93
-0.935
-0.925
-0.93
-0.93
-0.92
-0.935
-0.95
-0.95
-0.955
-0.965
-0.95
-0.955
-0.935
-0.93
-0.92
-0.925
-0.94
-0.94
-0.94
-0.945
-0.955
-0.955
-0.96
-0.955
-0.945
-0.955
-0.945
-0.935
-0.945
-0.945
-0.95
-0.96
-0.96
-0.955
-0.96
-0.95
-0.935
-0.925
-0.92
-0.93
-0.935
-0.94
-0.945
-0.94
-0.94
-0.945
-0.945
-0.94
-0.935
-0.92
-0.92
-0.92
-0.925
-0.915
-0.92
-0.915
-0.91
-0.9
-0.88
-0.885
-0.875
-0.865
-0.855
-0.865
-0.865
-0.87
-0.88
-0.865
-0.875
-0.885
-0.89
-0.88
-0.87
-0.865
-0.86
-0.85
-0.855
-0.855
-0.86
-0.865
-0.87
-0.87
-0.88
-0.9
-0.875
-0.88
-0.885
-0.89
-0.885
-0.9
-0.915
-0.92
-0.93
-0.94
-0.93
-0.92
-0.91
-0.9
-0.89
-0.89
-0.885
-0.895
-0.89
-0.9
-0.9
-0.89
-0.875
-0.85
-0.805
-0.725
-0.64
-0.52
-0.395
-0.275
-0.165
-0.08
-0.01
0.05
0.085
0.12
0.15
0.155
0.14
0.075
-0.01
-0.12
-0.24
-0.35
-0.465
-0.57
-0.65
-0.71
-0.765
-0.825
-0.85
-0.9
-0.9
-0.9
-0.915
-0.89
-0.875
-0.87
-0.87
-0.86
-0.86
-0.855
-0.85
-0.86
-0.875
-0.875
-0.89
-0.88
-0.88
-0.86
-0.865
-0.845
-0.845
-0.84
-0.845
-0.835
-0.835
-0.84
-0.855
-0.855
-0.85
-0.835
-0.825
-0.82
-0.805
-0.8
-0.805
-0.805
-0.805
-0.84
-0.82
-0.84
-0.845
-0.83
-0.825
-0.815
-0.8
-0.8
-0.79
-0.785
-0.785
-0.785
-0.8
-0.795
-0.8
-0.8
-0.8
-0.79
-0.78
-0.755
-0.75
-0.755
-0.75
-0.755
-0.76
-0.755
-0.76
-0.755
-0.755
-0.755
-0.74
-0.72
-0.71
-0.7
-0.705
-0.72
-0.725
-0.73
-0.73
-0.73
-0.72
-0.715
-0.715
-0.705
-0.695
-0.705
-0.715
-0.71
-0.71
-0.725
-0.725
-0.735
-0.73
-0.745
-0.74
-0.755
-0.735
-0.745
-0.75
-0.76
-0.77
-0.785
-0.795
-0.815
-0.82
-0.81
-0.82
-0.815
-0.815
-0.82
-0.83
-0.84
-0.845
-0.85
-0.855
-0.86
-0.855
-0.865
-0.87
-0.855
-0.855
-0.84
-0.845
-0.87
-0.87
-0.875
-0.875
-0.895
-0.89
-0.88
-0.88
-0.87
-0.87
-0.86
-0.865
-0.875
-0.875
-0.88
-0.885
-0.895
-0.905
-0.905
-0.885
-0.875
-0.87
-0.875
-0.88
-0.9
-0.895
-0.905
-0.91
-0.91
-0.92
-0.91
-0.915
-0.905
-0.905
-0.895
-0.89
-0.885
-0.895
-0.915
-0.92
-0.93
-0.93
-0.92
-0.915
-0.925
-0.905
-0.915
-0.89
-0.905
-0.92
-0.91
-0.925
-0.925
-0.93
-0.93
-0.915
-0.905
-0.905
-0.9
-0.885
-0.89
-0.9
-0.91
-0.915
-0.915
-0.915
-0.92
-0.91
-0.9
-0.885
-0.895
-0.89
-0.89
-0.9
-0.905
-0.905
-0.92
-0.92
-0.915
-0.92
-0.905
-0.895
-0.9
-0.9
-0.89
-0.895
-0.925
-0.91
-0.915
-0.915
-0.92
-0.92
-0.91
-0.905
-0.9
-0.91
-0.905
-0.915
-0.91
-0.935
-0.935
-0.93
-0.92
-0.915
-0.925
-0.915
-0.92
-0.93
-0.91
-0.915
-0.92
-0.925
-0.93
-0.925
-0.915
-0.91
-0.905
-0.895
-0.895
-0.9
-0.91
-0.915
-0.92
-0.925
-0.93
-0.915
-0.925
-0.925
-0.915
-0.91
-0.915
-0.905
-0.91
-0.915
-0.91
-0.915
-0.915
-0.91
-0.905
-0.895
-0.885
-0.875
-0.885
-0.895
-0.89
-0.9
-0.91
-0.91
-0.915
-0.9
-0.895
-0.89
-0.885
-0.87
-0.86
-0.845
-0.845
-0.845
-0.85
-0.84
-0.845
-0.85
-0.85
-0.835
-0.85
-0.83
-0.835
-0.835
-0.84
-0.83
-0.845
-0.86
-0.845
-0.845
-0.835
-0.83
-0.82
-0.82
-0.835
-0.855
-0.865
-0.885
-0.885
-0.895
-0.9
-0.905
-0.915
-0.91
-0.9
-0.885
-0.885
