Lead II
-0.7
-0.7
-0.715
-0.715
-0.735
-0.75
-0.755
-0.77
-0.775
-0.78
-0.79
-0.78
-0.78
-0.795
-0.79
-0.79
-0.785
-0.795
-0.815
-0.825
-0.825
-0.83
-0.845
-0.835
-0.835
-0.85
-0.86
-0.885
-0.895
-0.91
-0.935
-0.955
-0.95
-0.97
-0.97
-0.975
-0.985
-0.985
-1.0
-1.005
-1.015
-1.015
-1.015
-1.015
-0.995
-0.97
-0.96
-0.925
-0.895
-0.88
-0.84
-0.815
-0.79
-0.76
-0.76
-0.73
-0.7
-0.695
-0.665
-0.65
-0.63
-0.605
-0.585
-0.585
-0.57
-0.555
-0.555
-0.565
-0.565
-0.555
-0.55
-0.535
-0.525
-0.505
-0.51
-0.495
-0.495
-0.49
-0.495
-0.5
-0.505
-0.515
-0.505
-0.505
-0.495
-0.49
-0.48
-0.47
-0.485
-0.475
-0.49
-0.485
-0.48
-0.47
-0.46
-0.455
-0.44
-0.435
-0.445
-0.44
-0.445
-0.455
-0.455
-0.46
-0.455
-0.465
-0.45
-0.445
-0.44
-0.43
-0.445
-0.46
-0.465
-0.48
-0.485
-0.485
-0.49
-0.475
-0.475
-0.46
-0.455
-0.44
-0.445
-0.445
-0.45
-0.45
-0.445
-0.435
-0.445
-0.435
-0.43
-0.43
-0.415
-0.405
-0.42
-0.43
-0.425
-0.435
-0.44
-0.45
-0.455
-0.46
-0.45
-0.455
-0.445
-0.44
-0.445
-0.465
-0.47
-0.475
-0.47
-0.47
-0.465
-0.465
-0.47
-0.445
-0.44
-0.435
-0.435
-0.455
-0.46
-0.46
-0.475
-0.485
-0.485
-0.485
-0.485
-0.495
-0.49
-0.5
-0.505
-0.52
-0.515
-0.53
-0.525
-0.535
-0.54
-0.525
-0.51
-0.495
-0.49
-0.465
-0.475
-0.47
-0.48
-0.495
-0.495
-0.48
-0.475
-0.47
-0.45
-0.455
-0.455
-0.43
-0.435
-0.43
-0.44
-0.44
-0.44
-0.44
-0.435
-0.43
-0.415
-0.41
-0.41
-0.4
-0.415
-0.41
-0.4
-0.4
-0.4
-0.415
-0.405
-0.41
-0.405
-0.405
-0.39
-0.405
-0.405
-0.415
-0.445
-0.465
-0.485
-0.46
-0.405
-0.285
-0.11
0.095
0.32
0.6
0.9
1.205
1.475
1.705
1.86
1.93
1.92
1.81
1.635
1.325
0.885
0.355
-0.125
-0.43
-0.6
-0.62
-0.57
-0.52
-0.455
-0.435
-0.435
-0.44
-0.465
-0.49
-0.5
-0.515
-0.52
-0.52
-0.53
-0.53
-0.525
-0.525
-0.525
-0.54
-0.535
-0.54
-0.55
-0.55
-0.57
-0.595
-0.595
-0.59
-0.595
-0.6
-0.59
-0.595
-0.585
-0.585
-0.585
-0.575
-0.6
-0.6
-0.61
-0.61
-0.63
-0.635
-0.635
-0.635
-0.635
-0.615
-0.615
-0.63
-0.65
-0.645
-0.655
-0.67
-0.66
-0.66
-0.65
-0.64
-0.625
-0.62
-0.625
-0.635
-0.64
-0.66
-0.67
-0.675
-0.68
-0.69
-0.685
-0.695
-0.705
-0.7
-0.72
-0.715
-0.735
-0.745
-0.77
-0.79
-0.82
-0.805
-0.82
-0.825
-0.83
-0.825
-0.855
-0.86
-0.875
-0.89
-0.91
-0.93
-0.93
-0.95
-0.935
-0.935
-0.915
-0.9
-0.885
-0.865
-0.85
-0.825
-0.82
-0.785
-0.755
-0.715
-0.675
-0.645
-0.61
-0.585
-0.565
-0.54
-0.535
-0.525
-0.52
-0.495
-0.465
-0.45
-0.425
-0.395
-0.37
-0.34
-0.325
-0.325
-0.31
-0.31
-0.285
-0.28
-0.265
-0.25
-0.255
-0.235
-0.21
-0.215
-0.2
-0.215
-0.2
-0.21
-0.21
-0.225
-0.225
-0.21
-0.2
-0.19
-0.19
-0.165
-0.17
-0.17
-0.18
-0.175
-0.185
-0.19
-0.185
-0.18
-0.175
-0.17
-0.155
-0.145
-0.15
-0.15
-0.155
-0.16
-0.17
-0.165
-0.17
-0.15
-0.145
-0.145
-0.14
-0.135
-0.145
-0.15
-0.145
-0.145
-0.16
-0.165
-0.17
-0.16
-0.155
-0.14
-0.125
-0.115
-0.105
-0.105
-0.105
-0.095
-0.11
-0.105
-0.08
-0.075
-0.05
-0.045
-0.015
0.005
0.0
0.0
-0.005
-0.01
-0.025
-0.05
-0.04
-0.025
-0.015
-0.015
0.0
-0.005
-0.005
-0.01
-0.01
-0.025
-0.045
-0.045
-0.055
-0.045
-0.04
-0.025
-0.015
-0.01
-0.005
0.0
-0.02
-0.04
-0.06
-0.06
-0.02
0.085
0.245
0.435
0.675
0.935
1.22
1.53
1.79
2.005
2.145
2.2
2.19
2.12
1.97
1.705
1.305
0.845
0.38
0.045
-0.125
-0.155
-0.11
-0.04
0.025
0.075
0.085
0.07
0.05
0.02
0.035
0.035
0.035
0.025
0.015
0.005
0.005
-0.005
0.0
0.0
-0.005
-0.01
0.0
-0.01
-0.02
-0.025
-0.025
-0.035
-0.025
-0.03
-0.035
-0.025
-0.025
-0.035
-0.045
-0.045
-0.055
-0.055
-0.06
-0.065
-0.07
-0.07
-0.07
-0.07
-0.055
-0.06
-0.075
-0.085
-0.095
-0.11
-0.13
-0.13
-0.145
-0.125
-0.125
-0.105
-0.1
-0.085
-0.08
-0.08
-0.095
-0.095
-0.105
-0.115
-0.13
-0.12
-0.13
-0.145
-0.145
-0.15
-0.16
-0.175
-0.195
-0.23
-0.25
-0.29
-0.3
-0.315
-0.32
-0.31
-0.32
-0.32
-0.33
-0.33
-0.33
-0.34
-0.32
-0.315
-0.29
-0.27
-0.215
-0.195
-0.15
-0.11
-0.075
-0.025
-0.005
0.015
0.04
0.055
0.075
0.11
0.12
0.135
0.15
0.16
0.16
0.16
0.165
0.17
0.18
0.205
0.225
0.225
0.235
0.265
0.28
0.295
0.295
0.295
0.295
0.29
0.285
0.28
0.29
0.285
0.295
0.3
0.31
0.32
0.31
0.305
0.3
0.295
0.285
0.275
0.275
0.275
0.28
0.28
0.29
0.295
0.295
0.295
0.285
0.275
0.265
0.25
0.255
0.26
0.265
0.275
0.27
0.275
0.27
0.275
0.26
0.265
0.235
0.24
0.235
0.23
0.235
0.245
0.24
0.245
0.245
0.245
0.235
0.26
0.265
0.265
0.28
0.285
0.3
0.32
0.34
0.365
0.355
0.365
0.355
0.35
0.33
0.33
0.32
0.32
0.325
0.33
0.335
0.345
0.335
0.325
0.325
0.31
0.31
0.305
0.29
0.295
0.3
0.31
0.31
0.325
0.32
0.32
0.31
0.3
0.285
0.28
0.28
0.27
0.285
0.29
0.305
0.295
0.285
0.275
0.255
0.255
0.255
0.245
0.245
0.25
0.25
0.27
0.275
0.28
0.28
0.28
0.265
0.27
0.265
0.275
0.28
0.295
0.315
0.33
0.335
0.34
0.345
0.35
0.345
0.335
0.33
0.32
0.31
0.325
0.34
0.34
0.345
0.35
0.335
0.34
0.335
0.315
0.305
0.29
0.29
0.285
0.295
0.32
0.315
0.32
0.335
0.325
0.32
0.305
0.305
0.3
0.3
0.285
0.275
0.25
0.235
0.255
0.305
0.43
0.59
0.805
1.05
1.32
1.615
1.875
2.08
2.2
2.225
2.215
2.115
1.97
1.715
1.325
0.87
0.48
0.2
0.11
0.105
0.175
0.265
0.33
0.345
0.34
0.305
0.265
0.225
0.205
0.22
0.21
0.22
0.22
0.23
0.205
0.19
0.17
0.155
0.145
0.135
0.125
0.105
0.11
0.105
0.11
0.105
0.115
0.1
0.095
0.09
0.07
0.055
0.045
0.055
0.035
0.04
0.035
0.03
0.01
-0.02
-0.03
-0.05
-0.075
-0.085
-0.095
-0.09
-0.09
-0.085
-0.07
-0.06
-0.045
-0.06
-0.055
-0.085
-0.085
-0.105
-0.105
-0.115
-0.11
-0.115
-0.12
-0.12
-0.125
-0.14
-0.155
-0.18
-0.18
-0.22
-0.24
-0.255
-0.275
-0.285
-0.305
-0.32
-0.325
-0.345
-0.36
-0.375
-0.405
-0.42
-0.43
-0.44
-0.445
-0.435
-0.435
-0.425
-0.41
-0.39
-0.38
-0.35
-0.325
-0.3
-0.28
-0.25
-0.215
-0.19
-0.155
-0.12
-0.08
-0.05
-0.02
0.015
0.045
0.07
0.095
0.12
0.13
0.155
0.17
0.175
0.195
0.205
0.205
0.2
0.195
0.21
0.205
0.205
0.21
0.21
0.225
0.23
0.24
0.235
0.235
0.225
0.22
0.2
0.2
0.2
0.19
0.225
0.23
0.245
0.245
0.26
0.25
0.235
0.23
0.23
0.225
0.23
0.23
0.23
0.235
0.235
0.22
0.22
0.215
0.21
0.22
0.215
0.21
0.215
0.24
0.255
0.265
0.285
0.295
0.31
0.315
0.305
0.285
0.28
0.27
0.275
0.28
0.285
0.305
0.305
0.315
0.31
0.325
0.32
0.315
0.315
0.31
0.31
0.33
0.33
0.335
0.335
0.35
0.35
0.33
0.32
0.315
0.315
0.305
0.3
0.31
0.295
0.335
0.33
0.35
0.35
0.35
0.35
0.36
0.345
0.335
0.335
0.325
0.325
0.335
0.34
0.345
0.36
0.35
0.36
0.36
0.345
0.35
0.35
0.37
0.375
0.385
0.4
0.415
0.415
0.42
0.42
0.41
0.415
0.41
0.415
0.415
0.43
0.445
0.45
0.455
0.455
0.46
0.46
0.44
0.45
0.445
0.45
0.47
0.48
0.475
0.495
0.495
0.49
0.495
0.49
0.485
0.48
0.495
0.485
0.495
0.51
0.525
0.53
0.545
0.545
0.555
0.55
0.545
0.545
0.545
0.53
0.535
0.57
0.58
0.58
0.595
0.6
0.6
0.595
0.595
0.61
0.625
0.625
0.635
0.66
0.655
0.67
0.69
0.695
0.695
0.69
0.69
0.68
0.67
0.67
0.675
0.66
0.635
0.615
0.595
0.605
0.63
0.7
0.825
0.985
1.175
1.395
1.63
1.86
2.045
2.175
2.23
2.235
2.225
2.195
2.13
2.035
1.85
1.56
1.2
0.865
0.65
0.565
0.57
0.605
0.665
0.7
0.715
0.71
0.69
0.67
0.655
0.645
0.635
0.64
0.655
0.655
0.66
0.66
0.655
0.65
0.66
0.665
0.68
0.67
0.685
0.695
0.71
0.71
0.71
0.71
0.71
0.715
0.7
0.7
0.7
0.715
0.725
0.72
0.715
0.73
0.725
0.705
0.695
0.69
0.675
0.675
0.67
0.68
0.68
0.68
0.68
0.68
0.66
0.665
0.64
0.62
0.6
0.59
0.585
0.58
0.585
0.575
0.58
0.56
0.56
0.555
0.53
0.51
0.51
0.495
0.485
0.455
0.455
0.45
0.44
0.43
0.415
0.41
0.395
0.38
0.37
0.365
0.355
0.355
0.365
0.365
0.38
0.365
0.365
0.365
0.345
0.355
0.36
0.385
0.4
0.43
0.465
0.49
0.53
0.56
0.585
0.61
0.635
0.65
0.67
0.69
0.7
0.735
0.745
0.775
0.79
0.805
0.805
0.815
0.815
0.815
0.82
0.825
0.83
0.845
0.85
0.85
0.875
0.875
0.87
0.875
0.87
0.87
0.865
0.875
0.89
0.9
0.925
0.925
0.925
0.93
0.93
0.925
0.91
0.91
0.9
0.91
0.92
0.925
0.95
0.96
0.98
0.97
0.975
0.98
0.965
0.95
0.955
0.945
0.955
0.975
0.985
0.99
0.995
1.005
1.0
0.995
0.995
0.97
0.975
0.965
0.98
0.99
0.985
0.99
0.995
0.995
0.975
0.96
0.95
0.945
0.935
0.94
0.935
0.935
0.935
0.94
0.945
0.925
0.91
0.905
0.9
0.9
0.9
0.88
0.895
0.9
0.91
0.925
0.94
0.95
0.96
0.945
0.955
0.94
0.945
0.95
0.94
0.955
0.96
0.965
0.955
0.95
0.95
0.96
0.945
0.935
0.93
0.93
0.915
0.915
0.925
0.92
0.925
0.925
0.92
0.925
0.91
0.905
0.89
0.89
0.9
0.9
0.91
0.915
0.91
0.91
0.905
0.89
0.875
0.87
0.86
0.855
0.85
0.85
0.86
0.87
0.875
0.88
0.875
0.855
0.84
0.83
0.8
0.775
0.775
0.78
0.815
0.89
1.0
1.14
1.275
1.44
1.62
1.775
1.885
1.96
2.025
2.04
2.02
2.005
1.99
1.925
1.83
1.66
1.41
1.1
0.865
0.735
0.68
0.7
0.745
0.79
0.815
0.83
0.83
0.82
0.81
0.795
0.78
0.77
0.765
0.765
0.775
0.775
0.785
0.78
0.755
0.755
0.74
0.725
0.705
0.7
0.685
0.675
0.675
0.68
0.675
0.69
0.68
0.665
0.67
0.665
0.65
0.645
0.635
0.625
0.625
0.635
0.62
0.615
0.61
0.6
0.585
0.58
0.575
0.56
0.565
0.57
0.56
0.545
0.56
0.56
0.55
0.54
0.52
0.505
0.49
0.47
0.445
0.44
0.455
0.45
0.45
0.445
0.435
0.425
0.41
0.395
0.385
0.35
0.35
0.345
0.34
0.34
0.335
0.33
0.31
0.29
0.27
0.235
0.225
0.2
0.18
0.165
0.15
0.155
0.16
0.155
0.15
0.145
0.15
0.17
0.185
0.205
0.24
0.275
0.305
0.33
0.355
0.375
0.39
0.405
0.42
0.435
0.44
0.46
0.47
0.49
0.51
0.515
0.535
0.53
0.54
0.53
0.515
0.52
0.525
0.525
0.52
0.535
0.55
0.555
0.575
0.575
0.58
0.57
0.575
0.58
0.57
0.58
0.575
0.575
0.58
0.595
0.595
0.58
0.575
0.575
0.56
0.56
0.565
0.56
0.565
0.565
0.565
0.56
0.555
0.555
0.555
0.54
0.52
0.515
0.505
0.49
0.49
0.51
0.51
0.51
0.52
0.51
0.495
0.475
0.485
0.455
0.455
0.455
0.445
0.44
0.43
0.43
0.435
0.435
0.44
0.435
0.425
0.43
0.42
0.42
0.42
0.42
0.43
0.435
0.45
0.46
0.465
0.465
0.45
0.435
0.435
0.415
0.405
0.415
0.41
0.4
0.4
0.4
0.4
0.39
0.385
0.375
0.385
0.39
0.375
0.39
0.39
0.4
0.405
0.385
0.38
0.38
0.35
0.35
0.355
0.34
0.34
0.345
0.35
0.335
0.35
0.34
0.345
0.33
0.315
0.29
0.275
0.265
0.255
0.25
0.24
0.23
0.245
0.24
0.235
0.235
0.23
0.225
0.23
0.23
0.23
0.245
0.25
0.235
0.245
0.25
0.24
0.235
0.225
0.23
0.225
0.23
0.24
0.24
0.24
0.235
0.235
0.225
0.21
0.195
0.185
0.185
0.17
0.17
0.17
0.17
0.17
0.17
0.18
0.175
0.17
0.16
0.145
0.13
0.12
0.115
0.115
0.115
0.115
0.135
0.13
0.14
0.135
0.125
0.11
0.085
0.07
0.065
0.05
0.045
0.055
0.05
0.065
0.055
0.05
0.055
0.06
0.055
0.06
0.065
0.08
0.085
0.115
0.105
0.105
0.09
0.06
0.035
0.025
0.065
0.155
0.275
0.44
0.64
0.845
1.05
1.26
1.38
1.455
1.46
1.45
1.4
1.34
1.255
1.08
0.81
0.48
0.145
-0.065
-0.185
-0.2
-0.165
-0.125
-0.09
-0.075
-0.085
-0.115
-0.135
-0.16
-0.18
-0.2
-0.19
-0.195
-0.215
-0.225
-0.235
-0.25
-0.26
-0.255
-0.27
-0.265
-0.255
-0.245
-0.235
-0.24
-0.24
-0.25
-0.25
-0.26
-0.27
-0.27
-0.27
-0.265
-0.265
-0.28
-0.275
-0.295
-0.315
-0.33
-0.35
-0.375
-0.38
-0.395
-0.39
-0.405
-0.41
-0.4
-0.41
-0.43
-0.445
-0.465
-0.47
-0.49
-0.5
-0.515
-0.525
-0.535
-0.555
-0.55
-0.56
-0.585
-0.585
-0.605
-0.625
-0.655
-0.675
-0.695
-0.7
-0.705
-0.72
-0.735
-0.76
-0.78
-0.795
-0.825
-0.845
-0.85
-0.86
-0.855
-0.86
-0.855
-0.87
-0.86
-0.87
-0.885
-0.9
-0.89
-0.895
-0.905
-0.9
-0.89
-0.865
-0.83
-0.805
-0.765
-0.73
-0.715
-0.68
-0.665
-0.64
-0.63
-0.605
-0.575
-0.56
-0.535
-0.515
-0.5
-0.48
-0.48
-0.48
-0.47
-0.485
-0.49
-0.49
-0.505
-0.49
-0.485
-0.51
-0.485
-0.47
-0.465
-0.47
-0.475
-0.48
-0.48
-0.48
-0.485
-0.475
-0.48
-0.485
-0.47
-0.47
-0.46
-0.46
-0.46
-0.47
-0.475
-0.475
-0.47
-0.48
-0.465
-0.465
-0.475
-0.47
-0.475
-0.475
-0.49
-0.495
-0.495
-0.5
-0.51
-0.505
-0.5
-0.505
-0.5
-0.5
-0.495
-0.505
-0.515
-0.525
-0.55
-0.54
-0.54
-0.545
-0.535
-0.535
-0.53
-0.53
-0.54
-0.55
-0.555
-0.58
-0.58
-0.6
-0.6
-0.595
-0.59
-0.6
-0.575
-0.575
-0.595
-0.595
-0.595
-0.605
-0.605
-0.61
-0.62
-0.615
-0.615
-0.62
-0.61
-0.62
-0.635
-0.635
-0.645
-0.65
-0.66
-0.675
-0.67
-0.67
-0.67
-0.675
-0.665
-0.665
-0.67
-0.665
-0.675
-0.685
-0.7
-0.705
-0.695
-0.705
-0.695
-0.695
-0.695
-0.705
-0.7
-0.705
-0.705
-0.725
-0.72
-0.73
-0.725
-0.73
-0.72
-0.73
-0.73
-0.73
-0.735
-0.74
-0.745
-0.765
-0.76
-0.745
-0.745
-0.73
-0.73
-0.72
-0.72
-0.72
-0.74
-0.74
-0.745
-0.75
-0.755
-0.76
-0.75
-0.755
-0.755
-0.755
-0.74
-0.745
-0.745
-0.74
-0.76
-0.76
-0.77
-0.79
-0.77
-0.77
-0.775
-0.775
-0.78
-0.8
-0.825
-0.86
-0.87
-0.85
-0.765
-0.625
-0.465
-0.24
0.015
0.28
0.525
0.75
0.89
0.97
0.97
0.935
0.845
0.71
0.5
0.155
-0.235
-0.62
-0.885
-1.025
-1.06
-1.035
-0.995
-0.935
-0.92
-0.915
-0.94
-0.955
-0.965
-0.985
-0.98
-0.975
-0.98
-0.98
-0.99
-0.985
-1.0
-1.0
-1.015
-1.02
-1.04
-1.045
-1.05
-1.06
-1.08
-1.08
-1.095
-1.105
-1.115
-1.12
-1.125
-1.14
-1.145
-1.15
-1.165
-1.16
-1.175
-1.195
-1.215
-1.22
-1.235
-1.245
-1.26
-1.275
-1.27
-1.28
-1.27
-1.28
-1.285
-1.29
-1.325
-1.335
-1.345
-1.355
-1.36
-1.375
-1.375
-1.37
-1.36
-1.37
-1.38
-1.385
-1.425
-1.43
-1.46
-1.49
-1.505
-1.51
-1.495
-1.505
-1.495
-1.495
-1.505
-1.515
-1.535
-1.555
-1.575
-1.6
-1.615
-1.635
-1.635
-1.635
-1.63
-1.625
-1.62
-1.615
-1.615
-1.6
-1.6
-1.58
-1.53
-1.5
-1.455
-1.415
-1.385
-1.355
-1.33
-1.31
-1.295
-1.28
-1.275
-1.26
-1.245
-1.22
-1.195
-1.19
-1.18
-1.17
-1.17
-1.175
-1.18
-1.19
-1.185
-1.195
-1.19
-1.17
-1.18
-1.165
-1.165
-1.16
-1.165
-1.16
-1.18
-1.195
-1.205
-1.2
-1.185
-1.175
-1.16
-1.145
-1.13
-1.12
-1.12
-1.13
-1.13
-1.13
-1.135
-1.15
-1.145
-1.155
-1.15
-1.16
-1.145
-1.155
-1.155
-1.16
-1.17
-1.17
-1.165
-1.175
-1.165
-1.17
-1.175
-1.17
-1.165
-1.17
-1.185
-1.17
-1.185
-1.185
-1.195
-1.21
-1.2
-1.2
-1.195
-1.195
-1.195
-1.2
-1.21
-1.21
-1.22
-1.235
-1.24
-1.225
-1.225
-1.215
-1.21
-1.21
-1.19
-1.2
-1.2
-1.2
-1.225
-1.225
-1.235
-1.245
-1.245
-1.245
-1.255
-1.25
-1.255
-1.245
-1.225
-1.225
-1.21
-1.22
-1.235
-1.23
-1.24
-1.235
-1.215
-1.215
-1.21
-1.205
-1.215
-1.215
-1.23
-1.235
-1.255
-1.25
-1.255
-1.27
-1.265
-1.245
-1.255
-1.245
-1.235
-1.25
-1.255
-1.275
-1.29
-1.285
-1.28
-1.285
-1.29
-1.28
-1.28
-1.27
-1.275
-1.28
-1.28
-1.29
-1.3
-1.305
-1.305
-1.305
-1.305
-1.31
-1.305
-1.29
-1.295
-1.285
-1.295
-1.295
-1.3
-1.32
-1.32
-1.32
-1.305
-1.32
-1.305
-1.295
-1.3
-1.3
-1.305
-1.325
-1.34
-1.355
-1.37
-1.385
-1.41
-1.405
-1.395
-1.31
-1.21
-1.045
-0.84
-0.59
-0.335
-0.035
0.26
0.485
0.66
0.75
0.76
0.715
0.62
0.44
0.135
-0.275
-0.74
-1.14
-1.4
-1.51
-1.53
-1.485
-1.425
-1.385
-1.38
-1.38
-1.4
-1.435
-1.465
-1.47
-1.465
-1.47
-1.46
-1.46
-1.46
-1.46
-1.47
-1.475
-1.48
-1.49
-1.505
-1.515
-1.515
-1.52
-1.525
-1.525
-1.53
-1.54
-1.53
-1.565
-1.575
-1.58
-1.61
-1.615
-1.61
-1.615
-1.615
-1.62
-1.625
-1.6
-1.59
-1.6
-1.605
-1.605
-1.605
-1.615
-1.615
-1.62
-1.62
-1.635
-1.625
-1.635
-1.645
-1.665
-1.675
-1.685
-1.71
-1.72
-1.74
-1.75
-1.76
-1.76
-1.77
-1.775
-1.79
-1.81
-1.83
-1.83
-1.86
-1.88
-1.87
-1.885
-1.895
-1.915
-1.935
-1.965
-1.975
-1.995
-2.01
-2.02
-2.04
-2.05
-2.05
-2.055
-2.05
-2.045
-2.04
-2.015
-2.01
-1.99
-1.995
-1.965
-1.93
-1.915
-1.845
-1.805
-1.76
-1.71
-1.67
-1.625
-1.595
-1.57
-1.565
-1.55
-1.555
-1.535
-1.515
-1.51
-1.5
-1.49
-1.475
-1.46
-1.46
-1.46
-1.465
-1.46
-1.465
-1.475
-1.47
-1.46
-1.455
-1.455
-1.445
-1.445
-1.45
-1.455
-1.46
-1.455
-1.46
-1.47
-1.485
-1.485
-1.475
-1.48
-1.47
-1.465
-1.465
-1.48
-1.49
-1.49
-1.505
-1.505
-1.515
-1.515
-1.51
-1.51
-1.5
-1.505
-1.505
-1.505
-1.495
-1.485
-1.485
-1.47
-1.475
-1.455
-1.445
-1.435
-1.425
-1.415
-1.435
-1.435
-1.44
-1.455
-1.465
-1.46
-1.46
-1.455
-1.455
-1.445
-1.455
-1.435
-1.45
-1.45
-1.46
-1.465
-1.475
-1.475
-1.495
-1.495
-1.495
-1.48
-1.47
-1.475
-1.47
-1.465
-1.48
-1.475
-1.48
-1.5
-1.51
-1.495
-1.51
-1.505
-1.505
-1.505
-1.53
-1.53
-1.535
-1.54
-1.55
-1.56
-1.56
-1.56
-1.56
-1.56
-1.555
-1.55
-1.56
-1.535
-1.535
-1.53
-1.52
-1.515
-1.505
-1.5
-1.47
-1.47
-1.47
-1.46
-1.445
-1.465
-1.47
-1.47
-1.475
-1.48
-1.475
-1.46
-1.46
-1.46
-1.455
-1.445
-1.455
-1.445
-1.46
-1.48
-1.5
-1.505
-1.53
-1.555
-1.55
-1.5
-1.39
-1.235
-1.05
-0.81
-0.555
-0.285
-0.02
0.235
0.45
0.6
0.67
0.685
0.65
0.545
0.345
0.05
-0.375
-0.88
-1.33
-1.645
-1.8
-1.815
-1.765
-1.695
-1.64
-1.605
-1.615
-1.62
-1.64
-1.665
-1.67
-1.68
-1.68
-1.665
-1.655
-1.65
-1.65
-1.64
-1.64
-1.65
-1.67
-1.675
-1.695
-1.7
-1.71
-1.705
-1.69
-1.7
-1.685
-1.685
-1.69
-1.69
-1.71
-1.71
-1.72
-1.715
-1.715
-1.74
-1.735
-1.74
-1.74
-1.75
-1.765
-1.765
-1.785
-1.795
-1.805
-1.815
-1.82
-1.835
-1.835
-1.855
-1.86
-1.865
-1.86
-1.885
-1.89
-1.885
-1.9
-1.915
-1.93
-1.935
-1.94
-1.94
-1.955
-1.955
-1.965
-1.985
-2.0
-1.99
-2.025
-2.045
-2.05
-2.055
-2.06
-2.085
-2.09
-2.095
-2.115
-2.12
-2.145
-2.165
-2.175
-2.19
-2.19
-2.2
-2.185
-2.165
-2.15
-2.115
-2.09
-2.08
-2.05
-2.02
-1.995
-1.965
-1.94
-1.915
-1.865
-1.83
-1.805
-1.775
-1.76
-1.755
-1.745
-1.74
-1.74
-1.74
-1.725
-1.7
-1.675
-1.655
-1.65
-1.645
-1.645
-1.66
-1.66
-1.67
-1.67
-1.655
-1.65
-1.635
-1.62
-1.615
-1.605
-1.61
-1.6
-1.605
-1.61
-1.605
-1.615
-1.615
-1.61
-1.61
-1.615
-1.615
-1.59
-1.58
-1.595
-1.59
-1.58
-1.59
-1.59
-1.595
-1.6
-1.585
-1.575
-1.58
-1.565
-1.55
-1.565
-1.57
-1.57
-1.585
-1.595
-1.575
-1.57
-1.555
-1.55
-1.54
-1.55
-1.55
-1.565
-1.575
-1.575
-1.585
-1.585
-1.59
-1.59
-1.59
-1.59
-1.585
-1.565
-1.56
-1.565
-1.575
-1.585
-1.585
-1.595
-1.605
-1.61
-1.6
-1.585
-1.585
-1.57
-1.58
-1.575
-1.575
-1.585
-1.59
-1.59
-1.6
-1.595
-1.59
-1.585
-1.58
-1.58
-1.565
-1.57
-1.555
-1.565
-1.57
-1.57
-1.565
-1.57
-1.58
-1.595
-1.59
-1.58
-1.53
-1.415
-1.25
-1.025
-0.78
-0.49
-0.18
0.125
0.4
0.62
0.74
0.775
0.72
0.585
0.345
-0.025
-0.505
-1.015
-1.435
-1.67
-1.745
-1.715
-1.64
-1.565
-1.535
-1.525
-1.545
-1.585
-1.6
-1.63
-1.65
-1.66
-1.67
-1.67
-1.665
-1.665
-1.67
-1.685
-1.7
-1.71
-1.72
-1.73
-1.73
-1.725
-1.735
-1.735
-1.735
-1.73
-1.73
-1.745
-1.75
-1.76
-1.775
-1.785
-1.795
-1.795
-1.79
-1.79
-1.78
-1.775
-1.78
-1.79
-1.795
-1.795
-1.805
-1.805
-1.815
-1.81
-1.795
-1.795
-1.785
-1.775
-1.765
-1.755
-1.77
-1.78
-1.795
-1.81
-1.82
-1.83
-1.845
-1.84
-1.835
-1.84
-1.83
-1.835
-1.845
-1.85
-1.87
-1.885
-1.905
-1.925
-1.93
-1.95
-1.95
-1.97
-1.975
-2.0
-2.015
-2.04
-2.06
-2.075
-2.085
-2.1
-2.095
-2.1
-2.105
-2.11
-2.115
-2.12
-2.135
-2.13
-2.135
-2.135
-2.115
-2.095
-2.06
-2.03
-1.985
-1.955
-1.925
-1.885
-1.845
-1.83
-1.815
-1.79
-1.77
-1.745
-1.715
-1.685
-1.665
-1.64
-1.62
-1.615
-1.605
-1.6
-1.585
-1.59
-1.58
-1.59
-1.575
-1.57
-1.555
-1.545
-1.53
-1.535
-1.52
-1.53
-1.53
-1.545
-1.55
-1.54
-1.535
-1.54
-1.52
-1.515
-1.53
-1.545
-1.55
-1.545
-1.54
-1.545
-1.55
-1.55
-1.56
-1.545
-1.545
-1.545
-1.535
-1.53
-1.53
-1.555
-1.56
-1.555
-1.575
-1.55
-1.545
-1.55
-1.54
-1.53
-1.525
-1.535
-1.525
-1.535
-1.55
-1.545
-1.54
-1.53
-1.525
-1.535
-1.535
-1.53
-1.525
-1.525
-1.52
-1.52
-1.515
-1.495
-1.495
-1.49
-1.485
-1.475
-1.47
-1.455
-1.44
-1.445
-1.435
-1.44
-1.45
-1.46
-1.465
-1.465
-1.47
-1.475
-1.47
-1.46
-1.47
-1.475
-1.48
-1.485
-1.49
-1.505
-1.525
-1.525
-1.53
-1.52
-1.52
-1.505
-1.495
-1.5
-1.5
-1.505
-1.515
-1.52
-1.53
-1.535
-1.535
-1.53
-1.525
-1.515
-1.525
-1.525
-1.52
-1.525
-1.535
-1.535
-1.535
-1.52
-1.51
-1.495
-1.485
-1.46
-1.46
-1.45
-1.445
-1.435
-1.43
-1.435
-1.435
-1.44
-1.425
-1.43
-1.415
-1.41
-1.4
-1.395
-1.385
-1.4
-1.395
-1.4
-1.405
-1.415
-1.425
-1.425
-1.42
-1.345
-1.225
-1.05
-0.805
-0.515
-0.22
0.105
0.425
0.705
0.9
1.01
1.015
0.955
0.83
0.58
0.21
-0.285
-0.81
-1.265
-1.555
-1.68
-1.685
-1.635
-1.565
-1.52
-1.5
-1.49
-1.52
-1.55
-1.575
-1.595
-1.605
-1.6
-1.6
-1.6
-1.6
-1.6
-1.59
-1.59
-1.595
-1.6
-1.62
-1.635
-1.635
-1.62
-1.625
-1.615
-1.62
-1.605
-1.62
-1.62
-1.615
-1.635
-1.63
-1.65
-1.65
-1.65
-1.645
-1.63
-1.615
-1.625
-1.63
-1.625
-1.63
-1.64
-1.66
-1.67
-1.685
-1.69
-1.7
-1.685
-1.68
-1.675
-1.68
-1.695
-1.7
-1.73
-1.73
-1.75
-1.74
-1.745
-1.745
-1.755
-1.765
-1.765
-1.765
-1.77
-1.795
-1.805
-1.83
-1.835
-1.845
-1.845
-1.86
-1.875
-1.88
-1.895
-1.905
-1.935
-1.955
-1.965
-1.98
-1.99
-1.99
-2.0
-2.005
-2.005
-2.0
-1.99
-1.97
-1.965
-1.96
-1.94
-1.925
-1.9
-1.865
-1.845
-1.805
-1.76
-1.735
-1.705
-1.665
-1.635
-1.61
-1.61
-1.585
-1.58
-1.565
-1.54
-1.515
-1.505
-1.48
-1.465
-1.45
-1.425
-1.43
-1.42
-1.415
-1.42
-1.42
-1.415
-1.405
-1.395
-1.38
-1.37
-1.35
-1.35
-1.35
-1.365
-1.35
-1.35
-1.355
-1.345
-1.34
-1.34
-1.34
-1.325
-1.32
-1.315
-1.32
-1.32
-1.325
-1.31
-1.33
-1.32
-1.325
-1.315
-1.31
-1.32
-1.32
-1.325
-1.33
-1.33
-1.34
-1.345
-1.355
-1.345
-1.35
-1.345
-1.335
-1.33
-1.335
-1.34
-1.335
-1.355
-1.36
-1.37
-1.36
-1.355
-1.36
-1.35
-1.34
-1.335
-1.32
-1.32
-1.32
-1.325
-1.335
-1.33
-1.345
-1.355
-1.34
-1.325
-1.315
-1.305
-1.305
-1.29
-1.3
-1.3
-1.3
-1.3
-1.3
-1.305
-1.31
-1.31
-1.305
-1.31
-1.315
-1.315
-1.32
-1.325
-1.33
-1.33
-1.35
-1.345
-1.34
-1.32
-1.315
-1.32
-1.31
-1.305
-1.3
-1.295
-1.295
-1.3
-1.3
-1.3
-1.305
-1.295
-1.285
-1.29
-1.285
-1.285
-1.285
-1.3
-1.315
-1.335
-1.325
-1.335
-1.33
-1.34
-1.335
-1.325
-1.32
-1.32
-1.325
-1.33
-1.335
-1.35
-1.355
-1.355
-1.35
-1.345
-1.33
-1.325
-1.31
-1.31
-1.31
-1.31
-1.315
-1.33
-1.33
-1.32
-1.32
-1.33
-1.315
-1.31
-1.3
-1.3
-1.3
-1.305
-1.315
-1.32
-1.325
-1.32
-1.305
-1.305
-1.28
-1.275
-1.26
-1.235
-1.235
-1.22
-1.215
-1.2
-1.2
-1.195
-1.185
-1.18
-1.185
-1.19
-1.205
-1.19
-1.14
-1.04
-0.86
-0.635
-0.355
-0.03
0.35
0.685
0.975
1.165
1.245
1.22
1.1
0.865
0.46
-0.065
-0.63
-1.095
-1.37
-1.46
-1.455
-1.385
-1.325
-1.275
-1.265
-1.285
-1.33
-1.375
-1.395
-1.415
-1.425
-1.425
-1.415
-1.425
-1.435
-1.45
-1.455
-1.46
-1.465
-1.465
-1.465
-1.445
-1.435
-1.415
-1.415
-1.41
-1.39
-1.395
-1.39
-1.39
-1.405
-1.4
-1.405
-1.405
-1.41
-1.41
-1.405
-1.4
-1.395
-1.4
-1.41
-1.42
-1.425
-1.435
-1.445
-1.46
-1.465
-1.465
-1.47
-1.465
-1.455
-1.48
-1.485
-1.485
-1.505
-1.505
-1.525
-1.53
-1.525
-1.535
-1.545
-1.54
-1.555
-1.55
-1.565
-1.59
-1.615
-1.615
-1.65
-1.645
-1.65
-1.67
-1.675
-1.69
-1.7
-1.705
-1.72
-1.74
-1.75
-1.77
-1.79
-1.81
-1.81
-1.795
-1.795
-1.795
-1.77
-1.745
-1.725
-1.71
-1.705
-1.695
-1.68
-1.655
-1.625
-1.58
-1.54
-1.495
-1.46
-1.425
-1.41
-1.385
-1.37
-1.355
-1.335
-1.32
-1.295
-1.27
-1.255
-1.225
-1.205
-1.2
-1.195
-1.19
-1.19
-1.185
-1.19
-1.2
-1.185
-1.165
-1.14
-1.135
-1.12
-1.12
-1.125
-1.13
-1.135
-1.14
-1.14
-1.145
-1.14
-1.125
-1.115
-1.11
-1.09
-1.105
-1.105
-1.11
-1.125
-1.135
-1.13
-1.12
-1.105
-1.09
-1.065
-1.065
-1.045
-1.05
-1.04
-1.045
-1.04
-1.035
-1.035
-1.025
-1.015
-1.005
-0.995
-1.005
-0.99
-1.005
-1.0
-1.005
-1.01
-1.04
-1.025
-1.04
-1.02
-1.02
-1.01
-1.005
-0.995
-1.0
-1.015
-1.005
-1.02
-1.02
-1.025
-1.035
-1.03
-1.03
-1.015
-1.005
-1.005
-1.01
-1.005
-1.01
-1.015
-1.025
-1.025
-1.025
-1.015
-1.02
-1.025
-1.015
-1.025
-1.01
-1.015
-1.03
-1.02
-1.01
-0.995
-0.98
-0.965
-0.945
-0.94
-0.95
-0.955
-0.925
-0.89
-0.81
-0.685
-0.52
-0.315
-0.05
0.235
0.545
0.855
1.135
1.33
1.435
1.47
1.41
1.29
1.07
0.75
0.3
-0.18
-0.605
-0.895
-1.035
-1.055
-1.02
-0.965
-0.94
-0.92
-0.935
-0.965
-0.975
-0.99
-1.0
-1.0
-0.985
-0.975
-1.005
-1.01
-1.01
-1.03
-1.04
-1.055
-1.065
-1.075
-1.065
-1.065
-1.075
-1.09
-1.085
-1.09
-1.1
-1.115
-1.13
-1.14
-1.135
-1.12
-1.115
