Lead II
-0.36
-0.35
-0.34
-0.32
-0.29
-0.275
-0.26
-0.245
-0.23
-0.215
-0.195
-0.18
-0.17
-0.165
-0.18
-0.205
-0.215
-0.21
-0.2
-0.215
-0.24
-0.25
-0.24
-0.245
-0.265
-0.275
-0.28
-0.31
-0.305
-0.295
-0.3
-0.31
-0.325
-0.335
-0.33
-0.33
-0.35
-0.36
-0.375
-0.355
-0.345
-0.345
-0.355
-0.36
-0.37
-0.37
-0.37
-0.375
-0.375
-0.37
-0.375
-0.385
-0.385
-0.395
-0.4
-0.38
-0.405
-0.4
-0.405
-0.41
-0.41
-0.425
-0.415
-0.42
-0.415
-0.41
-0.415
-0.42
-0.43
-0.44
-0.425
-0.4
-0.395
-0.41
-0.4
-0.405
-0.395
-0.395
-0.4
-0.4
-0.395
-0.395
-0.395
-0.37
-0.385
-0.395
-0.39
-0.375
-0.36
-0.345
-0.35
-0.36
-0.37
-0.345
-0.305
-0.275
-0.275
-0.285
-0.265
-0.255
-0.22
-0.195
-0.185
-0.165
-0.14
-0.13
-0.13
-0.135
-0.15
-0.165
-0.185
-0.205
-0.22
-0.25
-0.305
-0.38
-0.43
-0.47
-0.455
-0.46
-0.455
-0.465
-0.45
-0.455
-0.44
-0.435
-0.445
-0.46
-0.47
-0.455
-0.44
-0.42
-0.435
-0.415
-0.415
-0.43
-0.43
-0.415
-0.415
-0.405
-0.39
-0.4
-0.385
-0.385
-0.38
-0.39
-0.355
-0.29
-0.17
0.02
0.215
0.435
0.66
0.88
1.05
1.135
1.075
0.88
0.655
0.515
0.415
0.32
0.14
-0.075
-0.195
-0.245
-0.265
-0.315
-0.385
-0.45
-0.51
-0.53
-0.57
-0.54
-0.545
-0.555
-0.575
-0.585
-0.56
-0.535
-0.535
-0.545
-0.55
-0.54
-0.53
-0.53
-0.53
-0.535
-0.54
-0.54
-0.525
-0.515
-0.525
-0.53
-0.525
-0.515
-0.505
-0.49
-0.495
-0.5
-0.5
-0.505
-0.495
-0.48
-0.49
-0.48
-0.495
-0.505
-0.485
-0.485
-0.485
-0.495
-0.49
-0.505
-0.495
-0.475
-0.48
-0.475
-0.5
-0.505
-0.475
-0.445
-0.425
-0.43
-0.44
-0.445
-0.44
-0.405
-0.38
-0.365
-0.365
-0.36
-0.32
-0.285
-0.285
-0.27
-0.275
-0.26
-0.245
-0.22
-0.205
-0.21
-0.21
-0.21
-0.195
-0.19
-0.19
-0.2
-0.21
-0.225
-0.225
-0.22
-0.23
-0.255
-0.27
-0.29
-0.29
-0.275
-0.28
-0.295
-0.315
-0.315
-0.315
-0.32
-0.32
-0.335
-0.35
-0.355
-0.33
-0.325
-0.34
-0.34
-0.345
-0.34
-0.315
-0.29
-0.285
-0.28
-0.285
-0.285
-0.27
-0.26
-0.265
-0.26
-0.25
-0.255
-0.24
-0.24
-0.23
-0.235
-0.235
-0.245
-0.24
-0.235
-0.24
-0.25
-0.255
-0.26
-0.26
-0.25
-0.255
-0.27
-0.27
-0.27
-0.25
-0.25
-0.25
-0.26
-0.27
-0.275
-0.28
-0.275
-0.27
-0.275
-0.285
-0.275
-0.265
-0.26
-0.255
-0.24
-0.245
-0.26
-0.25
-0.235
-0.215
-0.19
-0.17
-0.145
-0.125
-0.115
-0.115
-0.125
-0.125
-0.11
-0.075
-0.04
-0.02
-0.005
0.015
0.025
0.025
0.025
0.0
-0.02
-0.05
-0.07
-0.085
-0.09
-0.14
-0.2
-0.245
-0.305
-0.315
-0.33
-0.32
-0.33
-0.345
-0.35
-0.345
-0.315
-0.31
-0.31
-0.31
-0.315
-0.315
-0.295
-0.3
-0.31
-0.31
-0.31
-0.31
-0.29
-0.285
-0.275
-0.29
-0.29
-0.28
-0.28
-0.27
-0.285
-0.285
-0.255
-0.18
-0.065
0.06
0.225
0.385
0.585
0.785
0.985
1.115
1.195
1.165
1.0
0.79
0.635
0.515
0.415
0.255
0.065
-0.05
-0.11
-0.15
-0.22
-0.31
-0.385
-0.395
-0.395
-0.425
-0.44
-0.49
-0.49
-0.485
-0.47
-0.475
-0.475
-0.485
-0.495
-0.48
-0.465
-0.46
-0.47
-0.485
-0.485
-0.48
-0.465
-0.45
-0.465
-0.48
-0.485
-0.48
-0.47
-0.465
-0.465
-0.485
-0.48
-0.45
-0.445
-0.46
-0.455
-0.47
-0.465
-0.455
-0.445
-0.445
-0.455
-0.455
-0.46
-0.45
-0.44
-0.44
-0.445
-0.45
-0.46
-0.455
-0.435
-0.43
-0.43
-0.445
-0.44
-0.42
-0.4
-0.385
-0.385
-0.39
-0.39
-0.38
-0.34
-0.335
-0.33
-0.33
-0.325
-0.29
-0.27
-0.24
-0.245
-0.24
-0.215
-0.2
-0.18
-0.175
-0.16
-0.15
-0.135
-0.135
-0.115
-0.115
-0.125
-0.11
-0.125
-0.12
-0.13
-0.145
-0.155
-0.165
-0.175
-0.165
-0.165
-0.17
-0.185
-0.205
-0.195
-0.2
-0.19
-0.195
-0.215
-0.23
-0.23
-0.22
-0.21
-0.225
-0.26
-0.265
-0.28
-0.265
-0.255
-0.255
-0.255
-0.255
-0.255
-0.245
-0.235
-0.245
-0.255
-0.25
-0.265
-0.265
-0.25
-0.245
-0.23
-0.24
-0.24
-0.235
-0.225
-0.215
-0.225
-0.225
-0.245
-0.235
-0.225
-0.215
-0.23
-0.245
-0.245
-0.24
-0.23
-0.225
-0.235
-0.255
-0.255
-0.25
-0.225
-0.235
-0.23
-0.255
-0.27
-0.26
-0.255
-0.26
-0.265
-0.28
-0.28
-0.27
-0.26
-0.255
-0.275
-0.27
-0.27
-0.255
-0.235
-0.225
-0.21
-0.195
-0.18
-0.155
-0.155
-0.175
-0.185
-0.16
-0.125
-0.09
-0.07
-0.07
-0.05
-0.025
-0.01
0.005
-0.01
-0.035
-0.055
-0.075
-0.085
-0.095
-0.1
-0.14
-0.205
-0.27
-0.32
-0.355
-0.355
-0.375
-0.37
-0.375
-0.39
-0.37
-0.35
-0.37
-0.365
-0.375
-0.375
-0.365
-0.35
-0.35
-0.36
-0.36
-0.375
-0.36
-0.35
-0.35
-0.34
-0.335
-0.34
-0.34
-0.325
-0.33
-0.34
-0.35
-0.35
-0.325
-0.29
-0.265
-0.21
-0.115
0.02
0.2
0.375
0.57
0.77
0.935
1.06
1.14
1.155
1.06
0.875
0.685
0.535
0.45
0.36
0.185
0.005
-0.11
-0.155
-0.185
-0.23
-0.33
-0.39
-0.425
-0.455
-0.46
-0.48
-0.51
-0.51
-0.515
-0.525
-0.52
-0.505
-0.525
-0.52
-0.52
-0.515
-0.505
-0.485
-0.49
-0.49
-0.495
-0.48
-0.475
-0.465
-0.48
-0.485
-0.485
-0.49
-0.485
-0.465
-0.485
-0.47
-0.465
-0.49
-0.47
-0.475
-0.485
-0.49
-0.485
-0.48
-0.465
-0.46
-0.465
-0.465
-0.475
-0.47
-0.48
-0.465
-0.475
-0.49
-0.49
-0.49
-0.49
-0.47
-0.48
-0.48
-0.49
-0.48
-0.47
-0.455
-0.455
-0.455
-0.445
-0.43
-0.41
-0.38
-0.36
-0.365
-0.36
-0.35
-0.325
-0.29
-0.285
-0.265
-0.255
-0.24
-0.225
-0.18
-0.17
-0.185
-0.165
-0.175
-0.17
-0.16
-0.155
-0.175
-0.18
-0.185
-0.185
-0.185
-0.19
-0.215
-0.235
-0.25
-0.25
-0.235
-0.245
-0.25
-0.27
-0.275
-0.27
-0.27
-0.285
-0.295
-0.31
-0.32
-0.315
-0.305
-0.32
-0.315
-0.33
-0.32
-0.325
-0.31
-0.31
-0.315
-0.315
-0.315
-0.315
-0.31
-0.305
-0.31
-0.32
-0.315
-0.31
-0.31
-0.315
-0.315
-0.32
-0.32
-0.31
-0.3
-0.305
-0.315
-0.32
-0.325
-0.33
-0.31
-0.31
-0.31
-0.32
-0.315
-0.31
-0.3
-0.3
-0.305
-0.305
-0.31
-0.31
-0.305
-0.31
-0.32
-0.32
-0.325
-0.32
-0.32
-0.33
-0.33
-0.335
-0.34
-0.335
-0.33
-0.335
-0.34
-0.325
-0.29
-0.255
-0.225
-0.22
-0.215
-0.225
-0.245
-0.225
-0.2
-0.185
-0.16
-0.145
-0.115
-0.085
-0.055
-0.055
-0.065
-0.08
-0.09
-0.1
-0.115
-0.14
-0.16
-0.205
-0.25
-0.275
-0.315
-0.355
-0.38
-0.395
-0.405
-0.4
-0.395
-0.39
-0.405
-0.41
-0.41
-0.4
-0.385
-0.375
-0.375
-0.39
-0.375
-0.36
-0.34
-0.355
-0.365
-0.365
-0.34
-0.34
-0.335
-0.335
-0.33
-0.34
-0.345
-0.35
-0.335
-0.33
-0.305
-0.25
-0.16
-0.015
0.16
0.375
0.585
0.795
0.98
1.12
1.17
1.135
1.005
0.805
0.64
0.555
0.475
0.36
0.175
-0.035
-0.175
-0.215
-0.215
-0.255
-0.355
-0.425
-0.465
-0.465
-0.48
-0.49
-0.51
-0.52
-0.53
-0.515
-0.51
-0.5
-0.505
-0.515
-0.52
-0.5
-0.46
-0.48
-0.5
-0.5
-0.505
-0.49
-0.49
-0.48
-0.485
-0.48
-0.495
-0.5
-0.47
-0.46
-0.475
-0.47
-0.485
-0.47
-0.46
-0.445
-0.455
-0.47
-0.45
-0.435
-0.43
-0.43
-0.45
-0.465
-0.485
-0.46
-0.455
-0.445
-0.46
-0.455
-0.46
-0.455
-0.455
-0.455
-0.46
-0.475
-0.44
-0.425
-0.41
-0.42
-0.425
-0.43
-0.42
-0.4
-0.38
-0.395
-0.385
-0.36
-0.33
-0.305
-0.28
-0.285
-0.275
-0.265
-0.255
-0.23
-0.195
-0.175
-0.165
-0.18
-0.19
-0.18
-0.145
-0.135
-0.14
-0.145
-0.155
-0.15
-0.145
-0.135
-0.15
-0.15
-0.165
-0.175
-0.17
-0.17
-0.18
-0.2
-0.21
-0.205
-0.215
-0.235
-0.245
-0.25
-0.255
-0.255
-0.26
-0.255
-0.265
-0.27
-0.265
-0.27
-0.26
-0.26
-0.27
-0.28
-0.27
-0.245
-0.23
-0.24
-0.25
-0.26
-0.255
-0.245
-0.215
-0.225
-0.23
-0.245
-0.24
-0.245
-0.235
-0.23
-0.245
-0.245
-0.245
-0.245
-0.21
-0.205
-0.215
-0.245
-0.26
-0.24
-0.225
-0.225
-0.225
-0.23
-0.23
-0.225
-0.22
-0.235
-0.245
-0.245
-0.26
-0.255
-0.245
-0.25
-0.245
-0.28
-0.28
-0.27
-0.245
-0.235
-0.24
-0.25
-0.255
-0.235
-0.235
-0.235
-0.235
-0.22
-0.205
-0.175
-0.145
-0.135
-0.135
-0.145
-0.17
-0.155
-0.13
-0.09
-0.07
-0.06
-0.035
-0.015
0.0
0.015
0.025
0.0
-0.01
-0.035
-0.04
-0.065
-0.08
-0.105
-0.135
-0.18
-0.225
-0.27
-0.295
-0.295
-0.295
-0.305
-0.31
-0.305
-0.32
-0.33
-0.325
-0.315
-0.3
-0.305
-0.31
-0.32
-0.315
-0.305
-0.305
-0.3
-0.31
-0.32
-0.3
-0.285
-0.265
-0.26
-0.265
-0.28
-0.29
-0.29
-0.275
-0.24
-0.17
-0.06
0.095
0.275
0.48
0.67
0.865
1.01
1.125
1.2
1.215
1.15
0.98
0.78
0.635
0.545
0.46
0.31
0.13
-0.04
-0.13
-0.165
-0.21
-0.295
-0.355
-0.395
-0.415
-0.43
-0.43
-0.43
-0.43
-0.445
-0.455
-0.445
-0.43
-0.435
-0.445
-0.47
-0.465
-0.455
-0.445
-0.43
-0.43
-0.44
-0.45
-0.43
-0.435
-0.425
-0.435
-0.455
-0.44
-0.435
-0.42
-0.405
-0.41
-0.435
-0.435
-0.415
-0.39
-0.4
-0.41
-0.425
-0.42
-0.415
-0.41
-0.4
-0.425
-0.42
-0.42
-0.405
-0.395
-0.405
-0.43
-0.44
-0.42
-0.405
-0.395
-0.395
-0.415
-0.41
-0.405
-0.375
-0.355
-0.33
-0.34
-0.35
-0.34
-0.315
-0.29
-0.285
-0.28
-0.26
-0.24
-0.23
-0.215
-0.2
-0.195
-0.185
-0.165
-0.15
-0.125
-0.125
-0.13
-0.14
-0.13
-0.12
-0.105
-0.115
-0.13
-0.15
-0.155
-0.16
-0.15
-0.17
-0.185
-0.21
-0.21
-0.21
-0.195
-0.21
-0.22
-0.235
-0.235
-0.24
-0.235
-0.245
-0.245
-0.265
-0.265
-0.27
-0.25
-0.26
-0.25
-0.255
-0.255
-0.25
-0.24
-0.24
-0.25
-0.255
-0.245
-0.245
-0.23
-0.225
-0.22
-0.225
-0.24
-0.23
-0.215
-0.21
-0.235
-0.245
-0.24
-0.23
-0.225
-0.225
-0.23
-0.23
-0.22
-0.21
-0.195
-0.185
-0.19
-0.215
-0.215
-0.2
-0.185
-0.18
-0.185
-0.21
-0.195
-0.19
-0.175
-0.195
-0.205
-0.22
-0.21
-0.21
-0.205
-0.2
-0.2
-0.215
-0.215
-0.2
-0.19
-0.2
-0.2
-0.215
-0.205
-0.18
-0.145
-0.115
-0.095
-0.11
-0.095
-0.1
-0.105
-0.095
-0.075
-0.06
-0.035
-0.01
0.01
0.02
0.025
0.035
0.035
0.035
0.02
-0.005
-0.03
-0.045
-0.07
-0.095
-0.135
-0.185
-0.245
-0.29
-0.315
-0.31
-0.295
-0.31
-0.32
-0.345
-0.34
-0.325
-0.315
-0.305
-0.31
-0.315
-0.32
-0.305
-0.305
-0.295
-0.295
-0.31
-0.295
-0.285
-0.265
-0.28
-0.285
-0.29
-0.28
-0.275
-0.27
-0.27
-0.275
-0.275
-0.255
-0.205
-0.135
-0.03
0.13
0.27
0.435
0.6
0.775
0.935
1.065
1.145
1.185
1.15
0.995
0.79
0.64
0.515
0.43
0.275
0.09
-0.055
-0.115
-0.17
-0.215
-0.29
-0.355
-0.4
-0.425
-0.455
-0.45
-0.46
-0.45
-0.47
-0.48
-0.485
-0.48
-0.47
-0.46
-0.465
-0.485
-0.485
-0.48
-0.475
-0.46
-0.445
-0.45
-0.465
-0.465
-0.46
-0.46
-0.47
-0.475
-0.47
-0.46
-0.45
-0.44
-0.445
-0.46
-0.475
-0.46
-0.465
-0.445
-0.45
-0.45
-0.455
-0.45
-0.445
-0.46
-0.465
-0.475
-0.48
-0.465
-0.455
-0.445
-0.445
-0.46
-0.47
-0.47
-0.46
-0.435
-0.44
-0.43
-0.44
-0.42
-0.405
-0.38
-0.375
-0.385
-0.375
-0.355
-0.33
-0.295
-0.275
-0.26
-0.27
-0.255
-0.22
-0.19
-0.17
-0.17
-0.165
-0.15
-0.15
-0.145
-0.135
-0.125
-0.135
-0.13
-0.135
-0.135
-0.15
-0.15
-0.175
-0.175
-0.175
-0.185
-0.2
-0.215
-0.235
-0.235
-0.235
-0.24
-0.24
-0.25
-0.285
-0.29
-0.295
-0.27
-0.285
-0.29
-0.305
-0.3
-0.3
-0.3
-0.295
-0.295
-0.3
-0.295
-0.295
-0.295
-0.29
-0.3
-0.295
-0.285
-0.285
-0.26
-0.27
-0.275
-0.275
-0.27
-0.265
-0.26
-0.255
-0.26
-0.265
-0.275
-0.265
-0.26
-0.25
-0.24
-0.265
-0.265
-0.245
-0.23
-0.24
-0.255
-0.28
-0.275
-0.26
-0.265
-0.27
-0.275
-0.305
-0.31
-0.295
-0.28
-0.275
-0.265
-0.275
-0.29
-0.275
-0.285
-0.28
-0.28
-0.29
-0.285
-0.28
-0.265
-0.27
-0.26
-0.27
-0.245
-0.225
-0.18
-0.16
-0.145
-0.155
-0.185
-0.165
-0.135
-0.105
-0.09
-0.09
-0.065
-0.045
-0.015
0.005
0.0
-0.015
-0.03
-0.035
-0.05
-0.06
-0.08
-0.105
-0.14
-0.18
-0.235
-0.29
-0.34
-0.355
-0.345
-0.34
-0.34
-0.36
-0.37
-0.375
-0.375
-0.35
-0.345
-0.35
-0.36
-0.37
-0.355
-0.355
-0.35
-0.355
-0.345
-0.34
-0.335
-0.32
-0.315
-0.325
-0.315
-0.335
-0.325
-0.31
-0.295
-0.3
-0.3
-0.31
-0.285
-0.22
-0.12
0.02
0.18
0.37
0.585
0.805
0.985
1.11
1.16
1.185
1.13
1.015
0.83
0.66
0.565
0.495
0.38
0.225
0.05
-0.08
-0.13
-0.175
-0.245
-0.315
-0.37
-0.415
-0.45
-0.47
-0.495
-0.485
-0.485
-0.485
-0.48
-0.495
-0.505
-0.495
-0.485
-0.49
-0.495
-0.515
-0.495
-0.485
-0.475
-0.47
-0.46
-0.465
-0.48
-0.485
-0.46
-0.465
-0.475
-0.485
-0.495
-0.48
-0.46
-0.45
-0.455
-0.465
-0.475
-0.465
-0.465
-0.485
-0.485
-0.495
-0.49
-0.48
-0.465
-0.45
-0.455
-0.46
-0.47
-0.475
-0.47
-0.48
-0.49
-0.5
-0.485
-0.485
-0.465
-0.465
-0.465
-0.47
-0.47
-0.45
-0.435
-0.41
-0.39
-0.4
-0.39
-0.38
-0.36
-0.345
-0.32
-0.33
-0.325
-0.3
-0.26
-0.235
-0.22
-0.225
-0.22
-0.215
-0.195
-0.18
-0.17
-0.18
-0.18
-0.18
-0.185
-0.205
-0.215
-0.225
-0.23
-0.215
-0.21
-0.225
-0.25
-0.255
-0.265
-0.275
-0.275
-0.265
-0.295
-0.31
-0.31
-0.31
-0.31
-0.3
-0.305
-0.315
-0.325
-0.315
-0.31
-0.31
-0.315
-0.325
-0.31
-0.305
-0.28
-0.285
-0.295
-0.31
-0.31
-0.295
-0.295
-0.305
-0.31
-0.315
-0.3
-0.3
-0.29
-0.29
-0.295
-0.305
-0.31
-0.295
-0.29
-0.295
-0.31
-0.32
-0.31
-0.29
-0.285
-0.29
-0.295
-0.3
-0.295
-0.285
-0.28
-0.285
-0.305
-0.32
-0.32
-0.31
-0.295
-0.295
-0.295
-0.3
-0.295
-0.295
-0.295
-0.28
-0.28
-0.27
-0.245
-0.215
-0.19
-0.17
-0.19
-0.21
-0.215
-0.185
-0.155
-0.12
-0.115
-0.11
-0.075
-0.045
-0.02
-0.035
-0.05
-0.07
-0.08
-0.095
-0.095
-0.125
-0.17
-0.235
-0.285
-0.34
-0.355
-0.365
-0.36
-0.39
-0.385
-0.385
-0.365
-0.36
-0.37
-0.38
-0.385
-0.375
-0.365
-0.355
-0.375
-0.38
-0.375
-0.37
-0.36
-0.355
-0.355
-0.36
-0.36
-0.345
-0.35
-0.36
-0.37
-0.38
-0.365
-0.335
-0.265
-0.17
-0.025
0.145
0.355
0.585
0.81
0.985
1.095
1.135
1.1
0.98
0.775
0.6
0.495
0.395
0.255
0.07
-0.075
-0.165
-0.205
-0.245
-0.315
-0.395
-0.45
-0.495
-0.52
-0.535
-0.52
-0.515
-0.515
-0.53
-0.565
-0.56
-0.55
-0.525
-0.505
-0.51
-0.515
-0.52
-0.525
-0.515
-0.5
-0.5
-0.505
-0.515
-0.53
-0.54
-0.53
-0.51
-0.515
-0.49
-0.495
-0.49
-0.5
-0.505
-0.505
-0.51
-0.51
-0.495
-0.485
-0.485
-0.485
-0.5
-0.485
-0.49
-0.495
-0.495
-0.505
-0.5
-0.495
-0.495
-0.485
-0.5
-0.505
-0.52
-0.515
-0.495
-0.475
-0.47
-0.455
-0.475
-0.465
-0.445
-0.42
-0.42
-0.415
-0.425
-0.415
-0.39
-0.37
-0.345
-0.325
-0.325
-0.32
-0.3
-0.27
-0.25
-0.23
-0.215
-0.22
-0.215
-0.2
-0.185
-0.195
-0.205
-0.205
-0.21
-0.195
-0.205
-0.205
-0.215
-0.21
-0.22
-0.215
-0.225
-0.255
-0.285
-0.285
-0.285
-0.27
-0.27
-0.28
-0.295
-0.285
-0.28
-0.265
-0.29
-0.315
-0.335
-0.335
-0.32
-0.3
-0.285
-0.31
-0.32
-0.325
-0.31
-0.29
-0.305
-0.315
-0.325
-0.325
-0.32
-0.31
-0.305
-0.315
-0.32
-0.32
-0.305
-0.295
-0.3
-0.3
-0.3
-0.31
-0.305
-0.3
-0.3
-0.315
-0.31
-0.3
-0.305
-0.305
-0.3
-0.31
-0.32
-0.305
-0.295
-0.285
-0.275
-0.29
-0.31
-0.31
-0.3
-0.3
-0.295
-0.305
-0.305
-0.28
-0.27
-0.26
-0.265
-0.285
-0.28
-0.24
-0.205
-0.185
-0.185
-0.19
-0.215
-0.205
-0.165
-0.125
-0.11
-0.115
-0.115
-0.08
-0.04
-0.025
-0.02
-0.05
-0.085
-0.115
-0.125
-0.15
-0.165
-0.205
-0.275
-0.335
-0.36
-0.365
-0.365
-0.385
-0.415
-0.405
-0.405
-0.38
-0.39
-0.395
-0.395
-0.39
-0.37
-0.365
-0.365
-0.38
-0.385
-0.385
-0.37
-0.355
-0.35
-0.36
-0.37
-0.365
-0.345
-0.34
-0.34
-0.35
-0.35
-0.34
-0.29
-0.215
-0.1
0.05
0.235
0.445
0.67
0.855
0.995
1.11
1.11
1.035
0.85
0.655
0.525
0.435
0.325
0.165
0.01
-0.11
-0.17
-0.225
-0.285
-0.365
-0.425
-0.46
-0.475
-0.48
-0.505
-0.525
-0.51
-0.5
-0.5
-0.52
-0.545
-0.535
-0.52
-0.51
-0.5
-0.5
-0.495
-0.49
-0.485
-0.49
-0.49
-0.49
-0.505
-0.495
-0.495
-0.485
-0.475
-0.475
-0.475
-0.5
-0.49
-0.46
-0.475
-0.47
-0.47
-0.46
-0.46
-0.45
-0.465
-0.475
-0.49
-0.48
-0.465
-0.47
-0.47
-0.49
-0.485
-0.48
-0.465
-0.455
-0.45
-0.46
-0.465
-0.465
-0.455
-0.445
-0.435
-0.43
-0.435
-0.425
-0.405
-0.39
-0.37
-0.375
-0.375
-0.345
-0.315
-0.295
-0.28
-0.28
-0.255
-0.24
-0.225
-0.215
-0.21
-0.205
-0.195
-0.19
-0.19
-0.175
-0.17
-0.175
-0.19
-0.2
-0.195
-0.205
-0.2
-0.22
-0.24
-0.24
-0.235
-0.24
-0.265
-0.265
-0.27
-0.255
-0.255
-0.255
-0.275
-0.28
-0.3
-0.3
-0.28
-0.27
-0.275
-0.285
-0.31
-0.295
-0.295
-0.295
-0.285
-0.275
-0.28
-0.285
-0.285
-0.29
-0.27
-0.28
-0.3
-0.3
-0.29
-0.28
-0.265
-0.265
-0.27
-0.265
-0.27
-0.265
-0.27
-0.265
-0.28
-0.27
-0.265
-0.265
-0.275
-0.28
-0.29
-0.28
-0.275
-0.285
-0.285
-0.29
-0.305
-0.315
-0.29
-0.285
-0.28
-0.285
-0.305
-0.3
-0.295
-0.285
-0.29
-0.305
-0.305
-0.29
-0.275
-0.265
-0.26
-0.26
-0.24
-0.225
-0.185
-0.165
-0.165
-0.175
-0.19
-0.185
-0.16
-0.135
-0.105
-0.105
-0.095
-0.07
-0.04
-0.01
-0.005
-0.01
-0.025
-0.045
-0.07
-0.08
-0.1
-0.13
-0.185
-0.24
-0.295
-0.335
-0.365
-0.365
-0.375
-0.37
-0.375
-0.37
-0.375
-0.375
-0.39
-0.375
-0.365
-0.36
-0.36
-0.37
-0.365
-0.365
-0.36
-0.355
-0.36
-0.35
-0.36
-0.34
-0.335
-0.32
-0.32
-0.33
-0.325
-0.31
-0.305
-0.295
-0.27
-0.2
-0.06
0.12
0.325
0.55
0.755
0.93
1.065
1.155
1.2
1.185
1.04
0.82
0.625
0.485
0.36
0.195
-0.005
-0.13
-0.19
-0.245
-0.32
-0.385
-0.43
-0.465
-0.505
-0.515
-0.52
-0.525
-0.505
-0.515
-0.53
-0.525
-0.525
-0.515
-0.52
-0.525
-0.525
-0.515
-0.5
-0.5
-0.495
-0.505
-0.525
-0.5
-0.505
-0.505
-0.51
-0.52
-0.525
-0.5
-0.48
-0.475
-0.485
-0.48
-0.495
-0.495
-0.485
-0.485
-0.48
-0.47
-0.5
-0.495
-0.49
-0.485
-0.48
-0.485
-0.485
-0.47
-0.48
-0.475
-0.47
-0.465
-0.485
-0.46
-0.44
-0.43
-0.405
-0.405
-0.405
-0.39
-0.39
-0.375
-0.335
-0.325
-0.325
-0.32
-0.29
-0.255
-0.24
-0.225
-0.215
-0.205
-0.195
-0.18
-0.175
-0.17
-0.175
-0.17
-0.17
-0.17
-0.15
-0.16
-0.17
-0.175
-0.185
-0.205
-0.21
-0.215
-0.24
-0.24
-0.255
-0.25
-0.26
-0.265
-0.29
-0.285
-0.28
-0.255
-0.27
-0.3
-0.305
-0.305
-0.28
-0.28
-0.285
-0.31
-0.32
-0.31
-0.3
-0.295
-0.3
-0.32
-0.335
-0.33
-0.315
-0.29
-0.3
-0.31
-0.315
-0.315
-0.29
-0.27
-0.285
-0.295
-0.31
-0.29
-0.29
-0.265
-0.265
-0.295
-0.305
-0.3
-0.285
-0.28
-0.275
-0.29
-0.3
-0.31
-0.3
-0.295
-0.285
-0.29
-0.31
-0.31
-0.305
-0.29
-0.295
-0.3
-0.3
-0.295
-0.3
-0.29
-0.28
-0.26
-0.265
-0.225
-0.205
-0.18
-0.165
-0.155
-0.18
-0.18
-0.18
-0.15
-0.125
-0.115
-0.08
-0.06
-0.04
-0.025
-0.02
-0.025
-0.04
-0.055
-0.06
-0.075
-0.085
-0.125
-0.19
-0.23
-0.29
-0.325
-0.365
-0.375
-0.38
-0.385
-0.38
-0.375
-0.375
-0.37
-0.38
-0.385
-0.39
-0.38
-0.37
-0.38
-0.375
-0.38
-0.35
-0.34
-0.33
-0.325
-0.345
-0.35
-0.335
-0.315
-0.315
-0.32
-0.325
-0.33
-0.315
-0.275
-0.205
-0.095
0.05
0.255
0.45
0.68
0.885
1.04
1.135
1.175
1.17
1.035
0.83
0.645
0.535
0.45
0.355
0.165
-0.015
-0.145
-0.195
-0.24
-0.31
-0.38
-0.44
-0.47
-0.505
-0.515
-0.495
-0.49
-0.505
-0.525
-0.535
-0.53
-0.51
-0.5
-0.495
-0.515
-0.515
-0.505
-0.49
-0.49
-0.485
-0.495
-0.51
-0.505
-0.515
-0.51
-0.52
-0.525
-0.525
-0.505
-0.5
-0.485
-0.485
-0.49
-0.5
-0.495
-0.49
-0.485
-0.5
-0.51
-0.515
-0.505
-0.49
-0.485
-0.49
-0.5
-0.495
-0.5
-0.495
-0.5
-0.5
-0.495
-0.5
-0.485
-0.485
-0.47
-0.47
-0.475
-0.475
-0.465
-0.445
-0.435
-0.425
-0.42
-0.41
-0.39
-0.365
-0.34
-0.32
-0.31
-0.3
-0.275
-0.265
-0.245
-0.24
-0.22
-0.225
-0.205
-0.2
-0.19
-0.185
-0.195
-0.215
-0.215
-0.205
-0.22
-0.215
-0.225
-0.24
-0.24
-0.235
-0.245
-0.265
-0.285
-0.3
-0.28
-0.27
-0.275
-0.285
-0.305
-0.32
-0.325
-0.325
-0.31
-0.32
-0.32
-0.335
-0.33
-0.315
-0.3
-0.31
-0.32
-0.325
-0.32
-0.31
-0.295
-0.3
-0.305
-0.315
-0.29
-0.28
-0.28
-0.285
-0.3
-0.315
-0.295
-0.28
-0.275
-0.28
-0.285
-0.29
-0.27
-0.265
-0.265
-0.29
-0.28
-0.295
-0.305
-0.3
-0.29
-0.29
-0.285
-0.295
-0.285
-0.29
-0.275
-0.285
-0.29
-0.3
-0.295
-0.285
-0.27
-0.265
-0.275
-0.285
-0.26
-0.245
-0.21
-0.18
-0.17
-0.185
-0.17
-0.165
-0.16
-0.16
-0.135
-0.115
-0.09
-0.065
-0.055
-0.02
-0.01
-0.015
-0.015
-0.025
-0.05
-0.075
-0.105
-0.14
-0.17
-0.19
-0.24
-0.295
-0.325
-0.35
-0.35
-0.35
-0.345
-0.35
-0.345
-0.355
-0.36
-0.35
-0.35
-0.35
-0.36
-0.365
-0.37
-0.345
-0.34
-0.345
-0.34
-0.35
-0.35
-0.34
-0.325
-0.31
-0.32
-0.32
-0.315
-0.315
-0.305
-0.29
-0.255
-0.175
-0.03
0.135
0.315
0.51
0.72
0.925
1.095
1.17
1.165
1.06
0.87
0.68
0.565
0.505
0.405
0.24
0.045
-0.09
-0.145
-0.185
-0.25
-0.335
-0.4
-0.445
-0.465
-0.47
-0.475
-0.49
-0.5
-0.515
-0.53
-0.515
-0.515
-0.505
-0.5
-0.505
-0.505
-0.49
-0.49
-0.5
-0.515
-0.515
-0.5
-0.505
-0.49
-0.495
-0.48
-0.48
-0.475
-0.47
-0.475
-0.475
-0.48
-0.48
-0.47
-0.45
-0.44
-0.45
-0.47
-0.48
-0.48
-0.455
-0.44
-0.44
-0.455
-0.47
-0.475
-0.445
-0.455
-0.46
-0.475
-0.475
-0.455
-0.445
-0.44
-0.445
-0.45
-0.445
-0.43
-0.405
-0.395
-0.395
-0.38
-0.395
-0.36
-0.34
-0.31
-0.295
-0.275
-0.275
-0.25
-0.225
-0.205
-0.195
-0.19
-0.205
-0.19
-0.18
-0.145
-0.135
-0.155
-0.16
-0.145
-0.125
-0.125
-0.145
-0.16
-0.18
-0.17
-0.17
-0.18
-0.195
-0.21
-0.225
-0.22
-0.22
-0.225
-0.245
-0.255
-0.265
-0.265
-0.255
-0.245
-0.24
-0.255
-0.27
-0.265
-0.265
-0.255
-0.265
-0.27
-0.28
-0.265
-0.265
-0.265
-0.265
-0.28
-0.275
-0.28
-0.26
-0.265
-0.28
-0.27
-0.265
-0.25
-0.25
-0.26
-0.28
-0.285
-0.285
-0.28
-0.245
-0.235
-0.255
-0.265
-0.275
-0.275
-0.26
-0.245
-0.255
-0.27
-0.28
-0.27
-0.265
-0.26
-0.265
-0.265
-0.265
-0.265
-0.265
-0.27
-0.27
-0.27
-0.255
-0.26
-0.265
-0.255
-0.26
-0.265
-0.27
-0.265
-0.25
-0.235
-0.245
-0.245
-0.22
-0.195
-0.145
-0.12
-0.125
-0.145
-0.18
-0.19
-0.17
-0.115
-0.085
-0.075
-0.065
-0.04
-0.005
0.015
0.0
-0.02
-0.05
-0.055
-0.075
-0.085
-0.1
-0.13
-0.195
-0.245
-0.275
-0.3
-0.335
-0.345
-0.35
-0.35
-0.355
-0.345
-0.355
-0.36
-0.36
-0.35
-0.335
-0.34
-0.345
-0.34
-0.345
-0.335
-0.32
-0.31
-0.315
-0.32
-0.33
-0.32
-0.31
-0.295
-0.29
-0.305
-0.315
-0.31
-0.29
-0.28
-0.26
-0.245
-0.195
-0.085
0.07
0.24
0.42
0.6
0.77
0.945
1.07
1.16
1.195
1.155
1.015
0.825
0.665
0.565
0.475
0.335
0.145
0.01
-0.075
-0.11
-0.16
-0.24
-0.325
-0.375
-0.4
-0.425
-0.45
-0.47
-0.5
-0.5
-0.49
-0.485
-0.49
-0.495
-0.505
-0.51
-0.495
-0.495
-0.475
-0.465
-0.465
-0.465
-0.485
-0.49
-0.495
-0.505
-0.5
-0.49
-0.47
-0.465
-0.475
-0.475
-0.48
-0.46
-0.45
-0.445
-0.455
-0.47
-0.475
-0.475
-0.47
-0.46
-0.46
-0.455
-0.465
-0.46
-0.455
-0.445
-0.445
-0.435
-0.435
-0.44
-0.435
-0.435
-0.45
-0.455
-0.465
-0.465
-0.435
-0.425
-0.45
-0.45
-0.455
-0.445
-0.42
-0.41
-0.38
-0.38
-0.375
-0.365
-0.355
-0.34
-0.32
-0.295
-0.3
-0.275
-0.255
-0.235
-0.215
-0.21
-0.19
-0.19
-0.17
-0.155
-0.15
-0.145
-0.15
-0.15
-0.155
-0.15
-0.155
-0.14
-0.15
-0.145
-0.15
-0.155
-0.165
-0.185
-0.2
-0.195
-0.2
-0.205
-0.21
-0.22
-0.225
-0.225
-0.23
-0.22
-0.23
-0.25
-0.26
-0.24
-0.245
-0.25
-0.265
-0.26
-0.255
-0.235
-0.245
-0.245
-0.25
-0.245
-0.255
-0.255
-0.245
-0.245
-0.245
-0.235
-0.245
-0.24
-0.225
-0.22
-0.22
-0.235
-0.235
-0.24
-0.225
-0.22
-0.225
-0.23
-0.235
-0.23
-0.22
-0.205
-0.205
-0.22
-0.22
-0.23
-0.225
-0.22
-0.225
-0.235
-0.23
-0.225
-0.215
-0.22
-0.23
-0.24
-0.245
-0.23
-0.225
-0.225
-0.235
-0.235
-0.255
-0.24
-0.24
-0.23
-0.225
-0.235
-0.235
-0.23
-0.205
-0.2
-0.185
-0.18
-0.17
-0.14
-0.125
-0.085
-0.1
-0.115
-0.125
-0.085
-0.06
-0.05
-0.06
-0.04
-0.025
0.005
0.025
0.05
0.04
0.02
-0.01
-0.02
-0.03
-0.045
-0.06
-0.085
-0.13
-0.17
-0.2
-0.245
-0.275
-0.29
-0.305
-0.3
-0.3
-0.305
-0.315
-0.32
-0.32
-0.33
-0.3
-0.295
-0.305
-0.3
-0.31
-0.3
-0.3
-0.31
-0.31
-0.315
-0.305
-0.295
-0.275
-0.28
-0.27
-0.27
-0.28
-0.265
-0.27
-0.285
-0.275
-0.285
-0.27
-0.235
-0.175
-0.105
-0.005
0.115
0.285
0.48
0.685
0.885
1.065
1.16
1.21
1.2
1.12
0.935
0.76
0.61
0.51
0.405
0.255
0.105
-0.025
-0.085
-0.095
-0.13
-0.205
-0.29
-0.355
-0.395
-0.43
-0.43
-0.44
-0.435
-0.45
-0.44
-0.465
-0.46
-0.44
-0.43
-0.425
-0.445
-0.46
-0.455
-0.425
-0.405
-0.39
-0.405
-0.425
-0.425
-0.43
-0.42
-0.41
-0.415
-0.43
-0.415
-0.395
-0.385
-0.38
-0.375
-0.38
-0.36
-0.36
-0.36
-0.335
-0.325
-0.335
-0.32
-0.325
-0.315
-0.31
-0.315
-0.32
-0.315
-0.31
-0.31
-0.315
-0.33
-0.32
-0.32
-0.31
-0.3
-0.32
-0.32
-0.31
-0.3
-0.285
-0.27
-0.27
-0.265
-0.285
-0.27
-0.265
-0.245
-0.245
-0.23
-0.215
-0.195
-0.2
-0.18
-0.17
-0.16
-0.16
-0.14
-0.11
-0.1
-0.08
-0.075
-0.08
-0.06
-0.045
-0.03
-0.04
-0.035
-0.035
-0.035
-0.02
-0.01
-0.02
-0.03
-0.035
-0.04
-0.02
-0.025
-0.015
-0.035
-0.05
-0.025
-0.025
-0.015
-0.015
-0.02
-0.01
-0.02
-0.015
-0.04
-0.045
-0.06
-0.06
-0.05
-0.05
-0.04
-0.035
-0.04
-0.055
-0.055
-0.04
-0.025
-0.015
-0.005
0.005
0.02
0.05
0.05
0.05
0.04
0.025
0.005
0.01
0.0
0.005
-0.005
-0.025
-0.025
-0.005
-0.015
-0.01
-0.015
-0.03
-0.045
-0.05
-0.065
-0.095
-0.09
-0.11
-0.105
-0.125
-0.12
-0.135
-0.15
-0.165
-0.155
-0.155
-0.16
-0.175
-0.18
-0.2
-0.205
-0.19
-0.18
-0.175
-0.17
-0.165
-0.135
-0.1
-0.075
-0.07
-0.075
-0.09
-0.095
-0.09
-0.07
-0.06
-0.05
-0.05
-0.025
-0.02
0.0
-0.01
-0.02
-0.05
-0.05
-0.06
-0.085
-0.115
-0.145
-0.19
-0.245
-0.29
-0.33
-0.36
-0.36
-0.375
-0.365
-0.345
-0.325
-0.335
-0.32
-0.325
-0.295
-0.265
-0.225
-0.175
-0.15
-0.105
-0.07
-0.045
-0.03
-0.03
-0.02
-0.005
0.02
0.035
0.05
0.06
0.05
0.055
0.06
0.085
0.08
0.095
0.125
0.175
0.29
0.43
0.595
0.775
0.965
1.16
1.31
1.44
1.47
1.44
1.33
1.155
0.98
0.87
0.785
0.685
0.545
0.355
0.21
0.145
0.11
