Lead II
-0.1
-0.12
-0.125
-0.11
-0.105
-0.105
-0.12
-0.135
-0.12
-0.11
-0.09
-0.1
-0.1
-0.095
-0.1
-0.08
-0.06
-0.075
-0.07
-0.065
-0.05
-0.045
-0.03
-0.035
-0.045
-0.05
-0.06
-0.025
0.02
0.115
0.225
0.34
0.46
0.59
0.715
0.83
0.94
1.015
1.07
1.065
1.035
0.945
0.815
0.655
0.455
0.24
0.1
0.02
-0.03
-0.095
-0.15
-0.155
-0.145
-0.16
-0.18
-0.195
-0.21
-0.195
-0.2
-0.205
-0.215
-0.22
-0.22
-0.21
-0.215
-0.21
-0.215
-0.23
-0.22
-0.215
-0.215
-0.215
-0.24
-0.245
-0.235
-0.24
-0.23
-0.245
-0.26
-0.265
-0.275
-0.255
-0.255
-0.265
-0.28
-0.29
-0.285
-0.285
-0.28
-0.285
-0.285
-0.3
-0.295
-0.29
-0.295
-0.3
-0.295
-0.31
-0.32
-0.3
-0.285
-0.28
-0.285
-0.28
-0.275
-0.265
-0.245
-0.25
-0.245
-0.25
-0.245
-0.23
-0.215
-0.195
-0.18
-0.17
-0.15
-0.145
-0.105
-0.105
-0.1
-0.09
-0.095
-0.085
-0.06
-0.055
-0.055
-0.085
-0.075
-0.065
-0.055
-0.065
-0.08
-0.07
-0.09
-0.08
-0.065
-0.085
-0.09
-0.085
-0.085
-0.08
-0.085
-0.08
-0.09
-0.095
-0.1
-0.1
-0.095
-0.08
-0.09
-0.095
-0.1
-0.075
-0.08
-0.06
-0.065
-0.09
-0.085
-0.065
-0.035
-0.035
-0.05
-0.07
-0.07
-0.04
-0.02
-0.015
-0.03
-0.035
-0.04
-0.035
-0.005
-0.015
-0.02
-0.045
-0.06
-0.035
-0.035
-0.03
-0.045
-0.045
-0.05
-0.04
-0.025
-0.035
-0.045
-0.06
-0.07
-0.05
-0.05
-0.055
-0.065
-0.085
-0.085
-0.08
-0.07
-0.06
-0.06
-0.06
-0.065
-0.06
-0.04
-0.04
-0.035
-0.05
-0.045
-0.025
-0.02
-0.025
-0.015
-0.02
-0.02
-0.005
0.0
0.005
-0.005
-0.01
-0.005
-0.005
0.01
0.005
-0.005
-0.02
-0.02
-0.005
-0.01
-0.01
-0.005
0.02
0.095
0.195
0.315
0.435
0.53
0.625
0.745
0.875
0.98
1.04
1.04
1.01
0.925
0.835
0.71
0.495
0.275
0.12
0.055
0.015
-0.01
-0.04
-0.07
-0.1
-0.11
-0.115
-0.105
-0.12
-0.13
-0.15
-0.145
-0.145
-0.14
-0.14
-0.14
-0.16
-0.15
-0.15
-0.15
-0.16
-0.17
-0.17
-0.18
-0.175
-0.155
-0.175
-0.2
-0.22
-0.215
-0.22
-0.215
-0.21
-0.225
-0.245
-0.23
-0.225
-0.205
-0.21
-0.235
-0.23
-0.22
-0.23
-0.21
-0.22
-0.215
-0.225
-0.235
-0.22
-0.225
-0.225
-0.225
-0.245
-0.235
-0.22
-0.195
-0.185
-0.205
-0.21
-0.205
-0.185
-0.16
-0.165
-0.18
-0.19
-0.18
-0.16
-0.15
-0.14
-0.14
-0.145
-0.13
-0.1
-0.085
-0.085
-0.08
-0.08
-0.07
-0.05
-0.035
-0.04
-0.045
-0.05
-0.055
-0.035
-0.025
-0.025
-0.035
-0.05
-0.055
-0.045
-0.03
-0.015
-0.02
-0.025
-0.035
-0.015
-0.01
-0.005
-0.01
-0.015
-0.025
-0.03
-0.03
-0.03
-0.035
-0.055
-0.05
-0.035
-0.03
-0.035
-0.035
-0.03
-0.03
-0.01
0.0
-0.005
-0.015
-0.025
-0.035
-0.015
-0.01
0.005
-0.01
-0.01
-0.015
-0.01
0.005
0.0
0.005
0.0
0.005
-0.005
0.02
0.01
0.0
0.0
0.0
0.015
0.02
0.01
-0.005
-0.015
-0.01
0.005
0.02
0.01
-0.005
-0.01
-0.015
0.0
0.01
0.015
0.0
-0.005
-0.01
-0.015
0.0
-0.015
-0.03
-0.045
-0.05
-0.04
-0.04
-0.04
-0.05
-0.045
-0.035
-0.025
-0.01
-0.02
-0.045
-0.05
-0.05
-0.035
-0.025
-0.015
-0.04
-0.045
-0.045
-0.025
0.0
-0.005
-0.01
-0.01
-0.025
-0.02
-0.005
0.0
-0.02
-0.025
-0.03
-0.025
-0.02
-0.03
-0.045
-0.05
-0.05
-0.05
-0.035
-0.045
-0.045
-0.075
-0.06
-0.035
-0.02
-0.03
-0.06
-0.05
-0.055
-0.055
-0.03
-0.03
-0.035
-0.04
-0.055
-0.04
-0.015
-0.04
-0.04
-0.04
-0.05
-0.02
0.04
0.115
0.19
0.3
0.41
0.535
0.67
0.795
0.905
0.99
1.02
1.045
1.01
0.955
0.865
0.745
0.58
0.385
0.225
0.12
0.055
-0.005
-0.055
-0.095
-0.08
-0.09
-0.13
-0.16
-0.165
-0.165
-0.165
-0.17
-0.175
-0.19
-0.195
-0.19
-0.18
-0.2
-0.21
-0.22
-0.22
-0.205
-0.205
-0.215
-0.23
-0.235
-0.24
-0.245
-0.225
-0.235
-0.245
-0.26
-0.25
-0.23
-0.225
-0.22
-0.245
-0.265
-0.26
-0.24
-0.235
-0.235
-0.235
-0.235
-0.245
-0.23
-0.22
-0.23
-0.23
-0.215
-0.21
-0.205
-0.2
-0.195
-0.195
-0.195
-0.205
-0.195
-0.175
-0.18
-0.185
-0.19
-0.205
-0.195
-0.18
-0.18
-0.195
-0.2
-0.195
-0.19
-0.17
-0.16
-0.175
-0.16
-0.155
-0.16
-0.14
-0.145
-0.145
-0.12
-0.11
-0.11
-0.095
-0.1
-0.09
-0.105
-0.09
-0.065
-0.06
-0.06
-0.075
-0.075
-0.08
-0.06
-0.035
-0.045
-0.055
-0.06
-0.065
-0.04
-0.035
-0.03
-0.035
-0.045
-0.03
-0.02
-0.025
-0.03
-0.03
-0.045
-0.03
-0.02
0.005
0.0
-0.01
-0.025
-0.035
-0.02
-0.01
-0.015
-0.01
-0.03
-0.035
-0.03
-0.025
-0.025
-0.03
-0.045
-0.035
-0.015
-0.035
-0.04
-0.035
-0.04
-0.045
-0.02
-0.02
-0.025
-0.04
-0.05
-0.05
-0.05
-0.035
-0.045
-0.045
-0.06
-0.06
-0.045
-0.045
-0.04
-0.04
-0.06
-0.045
-0.035
-0.015
-0.025
-0.045
-0.05
-0.04
-0.025
-0.005
-0.015
-0.035
-0.05
-0.045
-0.02
0.0
0.005
-0.005
-0.015
-0.03
-0.01
-0.005
-0.015
-0.01
-0.015
-0.015
-0.005
0.005
0.0
-0.01
-0.025
-0.03
-0.03
-0.01
-0.02
-0.04
-0.05
-0.055
-0.04
-0.035
-0.045
-0.055
-0.055
-0.055
-0.05
-0.05
-0.055
-0.06
-0.07
-0.075
-0.07
-0.055
-0.06
-0.065
-0.065
-0.07
-0.05
-0.04
-0.055
-0.06
-0.06
-0.065
-0.04
-0.04
-0.03
-0.035
-0.05
-0.05
-0.055
-0.035
-0.045
-0.035
-0.035
-0.03
-0.02
0.01
0.005
-0.02
-0.025
-0.04
-0.03
-0.005
-0.01
-0.015
-0.02
-0.03
-0.025
-0.01
-0.02
-0.025
-0.025
-0.035
-0.04
-0.025
-0.035
-0.03
-0.035
-0.05
-0.04
-0.025
-0.03
-0.02
0.01
0.085
0.19
0.31
0.415
0.505
0.605
0.715
0.85
0.975
1.04
1.05
1.04
0.98
0.925
0.835
0.67
0.46
0.25
0.115
0.05
0.025
-0.035
-0.075
-0.11
-0.125
-0.12
-0.125
-0.13
-0.14
-0.145
-0.165
-0.155
-0.15
-0.165
-0.18
-0.19
-0.195
-0.19
-0.175
-0.195
-0.205
-0.22
-0.23
-0.215
-0.21
-0.21
-0.245
-0.225
-0.235
-0.235
-0.215
-0.22
-0.23
-0.245
-0.245
-0.24
-0.225
-0.245
-0.24
-0.255
-0.26
-0.25
-0.245
-0.25
-0.245
-0.25
-0.245
-0.23
-0.22
-0.225
-0.23
-0.245
-0.235
-0.225
-0.215
-0.22
-0.235
-0.235
-0.24
-0.215
-0.195
-0.195
-0.205
-0.195
-0.205
-0.19
-0.175
-0.165
-0.17
-0.16
-0.165
-0.16
-0.125
-0.12
-0.125
-0.125
-0.125
-0.115
-0.1
-0.09
-0.09
-0.075
-0.075
-0.06
-0.05
-0.055
-0.06
-0.065
-0.055
-0.05
-0.04
-0.06
-0.06
-0.07
-0.07
-0.07
-0.06
-0.06
-0.07
-0.09
-0.075
-0.06
-0.06
-0.055
-0.06
-0.065
-0.075
-0.06
-0.05
-0.05
-0.065
-0.07
-0.07
-0.07
-0.055
-0.065
-0.07
-0.075
-0.05
-0.045
-0.04
-0.06
-0.055
-0.05
-0.05
-0.04
-0.03
-0.04
-0.05
-0.06
-0.06
-0.055
-0.035
-0.04
-0.05
-0.06
-0.06
-0.065
-0.045
-0.06
-0.065
-0.07
-0.065
-0.08
-0.06
-0.07
-0.075
-0.075
-0.08
-0.08
-0.06
-0.065
-0.075
-0.08
-0.09
-0.07
-0.055
-0.07
-0.065
-0.08
-0.065
-0.05
-0.03
-0.03
-0.055
-0.065
-0.07
-0.045
-0.035
-0.04
-0.04
-0.04
-0.055
-0.04
-0.035
-0.025
-0.04
-0.06
-0.055
-0.045
-0.045
-0.04
-0.04
-0.05
-0.07
-0.055
-0.06
-0.07
-0.075
-0.09
-0.09
-0.065
-0.07
-0.075
-0.09
-0.095
-0.085
-0.085
-0.07
-0.07
-0.095
-0.105
-0.11
-0.095
-0.095
-0.08
-0.095
-0.1
-0.095
-0.085
-0.075
-0.08
-0.09
-0.08
-0.08
-0.075
-0.08
-0.075
-0.075
-0.075
-0.07
-0.045
-0.04
-0.06
-0.05
-0.06
-0.04
-0.025
-0.02
-0.03
-0.04
-0.045
-0.035
-0.015
0.0
0.0
-0.02
-0.035
-0.035
-0.02
0.0
0.035
0.11
0.2
0.3
0.41
0.525
0.62
0.725
0.83
0.935
1.02
1.055
1.025
0.97
0.9
0.82
0.695
0.505
0.305
0.14
0.045
0.005
-0.02
-0.045
-0.095
-0.115
-0.125
-0.145
-0.14
-0.135
-0.145
-0.155
-0.185
-0.175
-0.165
-0.16
-0.155
-0.165
-0.195
-0.18
-0.18
-0.155
-0.17
-0.165
-0.19
-0.185
-0.175
-0.18
-0.18
-0.185
-0.195
-0.2
-0.19
-0.175
-0.185
-0.185
-0.225
-0.23
-0.2
-0.19
-0.195
-0.21
-0.22
-0.225
-0.235
-0.225
-0.21
-0.215
-0.23
-0.245
-0.235
-0.225
-0.235
-0.245
-0.255
-0.27
-0.25
-0.225
-0.23
-0.235
-0.255
-0.235
-0.225
-0.205
-0.205
-0.215
-0.21
-0.21
-0.19
-0.175
-0.17
-0.175
-0.185
-0.19
-0.17
-0.125
-0.125
-0.13
-0.115
-0.115
-0.09
-0.07
-0.06
-0.065
-0.065
-0.065
-0.065
-0.05
-0.06
-0.075
-0.085
-0.065
-0.055
-0.055
-0.055
-0.085
-0.095
-0.075
-0.055
-0.04
-0.055
-0.09
-0.1
-0.11
-0.085
-0.075
-0.07
-0.09
-0.105
-0.11
-0.12
-0.08
-0.085
-0.095
-0.12
-0.115
-0.115
-0.1
-0.085
-0.095
-0.105
-0.095
-0.09
-0.07
-0.075
-0.075
-0.09
-0.085
-0.06
-0.06
-0.06
-0.075
-0.075
-0.07
-0.07
-0.06
-0.075
-0.095
-0.1
-0.12
-0.1
-0.11
-0.13
-0.135
-0.135
-0.145
-0.125
-0.115
-0.125
-0.135
-0.135
-0.13
-0.13
-0.135
-0.14
-0.145
-0.155
-0.16
-0.155
-0.145
-0.13
-0.145
-0.145
-0.17
-0.15
-0.145
-0.14
-0.13
-0.135
-0.15
-0.135
-0.14
-0.115
-0.12
-0.125
-0.115
-0.1
-0.1
-0.1
-0.1
-0.105
-0.12
-0.1
-0.095
-0.095
-0.11
-0.13
-0.14
-0.135
-0.14
-0.135
-0.155
-0.145
-0.155
-0.13
-0.12
-0.12
-0.15
-0.155
-0.16
-0.165
-0.15
-0.145
-0.165
-0.18
-0.195
-0.16
-0.155
-0.15
-0.175
-0.18
-0.18
-0.165
-0.16
-0.155
-0.16
-0.175
-0.185
-0.17
-0.145
-0.15
-0.155
-0.155
-0.16
-0.16
-0.155
-0.14
-0.14
-0.125
-0.13
-0.125
-0.12
-0.115
-0.105
-0.12
-0.12
-0.095
-0.09
-0.09
-0.075
-0.01
0.085
0.23
0.355
0.445
0.565
0.695
0.79
0.885
0.895
0.855
0.785
0.7
0.6
0.445
0.235
0.065
-0.04
-0.1
-0.13
-0.17
-0.19
-0.205
-0.22
-0.225
-0.24
-0.24
-0.235
-0.24
-0.245
-0.255
-0.27
-0.27
-0.27
-0.265
-0.285
-0.28
-0.295
-0.28
-0.27
-0.265
-0.27
-0.255
-0.255
-0.245
-0.255
-0.255
-0.26
-0.275
-0.29
-0.265
-0.255
-0.285
-0.285
-0.3
-0.3
-0.29
-0.275
-0.28
-0.3
-0.29
-0.305
-0.305
-0.28
-0.29
-0.295
-0.29
-0.31
-0.285
-0.28
-0.28
-0.3
-0.295
-0.31
-0.295
-0.295
-0.315
-0.31
-0.31
-0.295
-0.28
-0.27
-0.27
-0.29
-0.295
-0.27
-0.26
-0.24
-0.25
-0.25
-0.24
-0.24
-0.225
-0.21
-0.21
-0.18
-0.175
-0.175
-0.155
-0.13
-0.11
-0.115
-0.115
-0.12
-0.1
-0.085
-0.095
-0.11
-0.115
-0.12
-0.1
-0.1
-0.105
-0.11
-0.11
-0.12
-0.12
-0.095
-0.1
-0.12
-0.12
-0.13
-0.115
-0.11
-0.12
-0.13
-0.135
-0.155
-0.155
-0.115
-0.135
-0.13
-0.14
-0.135
-0.125
-0.105
-0.1
-0.11
-0.115
-0.105
-0.09
-0.08
-0.085
-0.09
-0.09
-0.08
-0.065
-0.055
-0.055
-0.065
-0.075
-0.08
-0.065
-0.055
-0.07
-0.08
-0.09
-0.08
-0.06
-0.04
-0.04
-0.05
-0.07
-0.075
-0.07
-0.055
-0.06
-0.07
-0.085
-0.085
-0.08
-0.08
-0.07
-0.08
-0.08
-0.08
-0.07
-0.07
-0.08
-0.085
-0.095
-0.1
-0.11
-0.105
-0.095
-0.105
-0.11
-0.105
-0.095
-0.08
-0.08
-0.075
-0.1
-0.11
-0.1
-0.1
-0.105
-0.1
-0.105
-0.105
-0.11
-0.09
-0.08
-0.1
-0.105
-0.105
-0.1
-0.095
-0.095
-0.09
-0.095
-0.095
-0.1
-0.085
-0.095
-0.12
-0.14
-0.14
-0.12
-0.11
-0.125
-0.135
-0.14
-0.145
-0.13
-0.12
-0.115
-0.125
-0.135
-0.14
-0.13
-0.1
-0.105
-0.125
-0.135
-0.145
-0.15
-0.145
-0.155
-0.145
-0.14
-0.155
-0.135
-0.125
-0.13
-0.145
-0.155
-0.155
-0.135
-0.125
-0.13
-0.14
-0.155
-0.145
-0.14
-0.115
-0.115
-0.12
-0.125
-0.12
-0.11
-0.1
-0.1
-0.105
-0.13
-0.13
-0.135
-0.11
-0.105
-0.115
-0.125
-0.145
-0.135
-0.145
-0.145
-0.15
-0.16
-0.16
-0.135
-0.11
-0.105
-0.115
-0.13
-0.13
-0.14
-0.115
-0.12
-0.14
-0.15
-0.165
-0.14
-0.12
-0.105
-0.11
-0.12
-0.13
-0.13
-0.105
-0.095
-0.1
-0.12
-0.13
-0.105
-0.095
-0.095
-0.085
-0.06
0.015
0.13
0.235
0.33
0.435
0.525
0.645
0.775
0.895
0.945
0.96
0.935
0.905
0.89
0.825
0.7
0.54
0.34
0.155
0.04
0.005
-0.04
-0.1
-0.16
-0.18
-0.185
-0.185
-0.2
-0.21
-0.215
-0.225
-0.205
-0.2
-0.21
-0.23
-0.24
-0.245
-0.24
-0.225
-0.245
-0.25
-0.255
-0.275
-0.265
-0.25
-0.255
-0.26
-0.26
-0.265
-0.26
-0.255
-0.25
-0.25
-0.255
-0.25
-0.26
-0.26
-0.26
-0.28
-0.27
-0.29
-0.265
-0.24
-0.25
-0.255
-0.265
-0.28
-0.265
-0.24
-0.24
-0.24
-0.25
-0.245
-0.235
-0.22
-0.21
-0.23
-0.255
-0.27
-0.265
-0.25
-0.245
-0.255
-0.265
-0.265
-0.25
-0.225
-0.22
-0.23
-0.235
-0.23
-0.21
-0.21
-0.195
-0.19
-0.2
-0.18
-0.16
-0.14
-0.13
-0.13
-0.125
-0.125
-0.115
-0.09
-0.085
-0.075
-0.075
-0.075
-0.06
-0.04
-0.035
-0.055
-0.075
-0.065
-0.04
-0.015
-0.01
-0.015
-0.015
-0.01
0.0
-0.01
-0.03
-0.04
-0.04
-0.03
-0.02
-0.025
-0.055
-0.06
-0.055
-0.04
-0.04
-0.045
-0.065
-0.08
-0.075
-0.065
-0.06
-0.06
-0.06
-0.065
-0.07
-0.095
-0.075
-0.06
-0.08
-0.085
-0.09
-0.095
-0.095
-0.065
-0.045
-0.06
-0.06
-0.045
-0.035
-0.025
-0.03
-0.03
-0.02
0.005
-0.02
0.005
-0.005
-0.005
-0.015
-0.01
0.005
0.035
0.035
0.005
-0.025
-0.035
-0.005
0.01
-0.005
-0.01
-0.005
-0.035
-0.045
-0.06
-0.06
-0.04
-0.03
-0.035
-0.045
-0.045
-0.055
-0.04
-0.055
-0.06
-0.05
-0.045
-0.045
-0.05
-0.09
-0.125
-0.135
-0.11
-0.055
-0.025
0.0
-0.02
-0.015
-0.015
-0.015
-0.015
-0.005
0.035
0.075
0.11
0.065
-0.03
-0.09
-0.08
-0.02
0.015
-0.005
-0.01
-0.02
-0.01
0.0
-0.005
-0.005
0.005
0.0
-0.005
0.01
0.025
0.015
-0.02
-0.055
-0.06
-0.04
-0.02
-0.035
-0.05
-0.06
-0.085
-0.065
-0.05
-0.07
-0.06
-0.065
-0.06
-0.06
-0.045
-0.065
-0.065
-0.085
-0.075
-0.045
0.005
0.08
0.16
0.25
0.345
0.465
0.58
0.68
0.755
0.805
0.815
0.805
0.775
0.73
0.655
0.515
0.32
0.14
0.045
-0.02
-0.065
-0.1
-0.11
-0.11
-0.11
-0.125
-0.145
-0.17
-0.185
-0.18
-0.17
-0.205
-0.245
-0.265
-0.265
-0.26
-0.27
-0.275
-0.29
-0.295
-0.315
-0.31
-0.31
-0.32
-0.33
-0.34
-0.32
-0.29
-0.27
-0.29
-0.33
-0.36
-0.38
-0.365
-0.35
-0.34
-0.345
-0.34
-0.33
-0.305
-0.255
-0.24
-0.245
-0.29
-0.34
-0.335
-0.305
-0.295
-0.29
-0.3
-0.335
-0.32
-0.265
-0.23
-0.225
-0.26
-0.305
-0.315
-0.29
-0.265
-0.26
-0.275
-0.32
-0.355
-0.335
-0.28
-0.26
-0.27
-0.285
-0.26
-0.23
-0.22
-0.25
-0.27
-0.275
-0.255
-0.245
-0.25
-0.265
-0.285
-0.295
-0.27
-0.245
-0.255
-0.2
-0.165
-0.16
-0.19
-0.195
-0.195
-0.205
-0.22
-0.225
-0.195
-0.18
-0.155
-0.16
-0.18
-0.175
-0.14
-0.105
-0.12
-0.14
-0.145
-0.135
-0.14
-0.145
-0.205
-0.205
-0.18
-0.16
-0.14
-0.13
-0.12
-0.145
-0.17
-0.185
-0.17
-0.12
-0.145
-0.14
-0.14
-0.15
-0.135
-0.11
-0.11
-0.11
-0.12
-0.1
-0.105
-0.105
-0.115
-0.135
-0.145
-0.12
-0.11
-0.105
-0.105
-0.105
-0.11
-0.12
-0.1
-0.08
-0.065
-0.07
-0.065
-0.07
-0.045
-0.03
-0.035
-0.04
-0.065
-0.07
-0.04
-0.02
-0.025
-0.025
-0.03
-0.03
-0.005
0.0
0.0
0.0
-0.01
-0.02
-0.005
0.01
0.01
0.0
-0.02
-0.04
-0.02
-0.015
-0.035
-0.05
-0.055
-0.06
-0.04
-0.045
-0.05
-0.05
-0.07
-0.08
-0.075
-0.06
-0.045
-0.04
-0.055
-0.075
-0.065
-0.03
-0.02
-0.02
0.01
0.005
0.01
0.025
0.03
0.015
0.01
0.005
0.01
0.025
0.035
0.03
0.025
0.03
0.045
0.065
0.07
0.05
0.045
0.045
0.06
0.06
0.055
0.055
0.03
0.025
0.04
0.04
0.03
0.025
0.025
0.025
0.035
0.04
0.03
0.01
0.01
-0.005
0.035
0.06
0.115
0.205
0.315
0.445
0.57
0.705
0.83
0.97
1.075
1.155
1.195
1.18
1.1
0.965
0.79
0.57
0.36
0.235
0.165
0.105
0.05
0.015
0.01
0.005
0.01
-0.005
-0.04
-0.04
-0.05
-0.035
-0.045
-0.055
-0.085
-0.095
-0.1
-0.095
-0.09
-0.11
-0.125
-0.145
-0.135
-0.12
-0.13
-0.14
-0.16
-0.165
-0.165
-0.155
-0.165
-0.175
-0.2
-0.21
-0.185
-0.185
-0.19
-0.21
-0.195
-0.21
-0.18
-0.175
-0.155
-0.165
-0.165
-0.165
-0.13
-0.115
-0.115
-0.125
-0.125
-0.13
-0.105
-0.08
-0.08
-0.07
-0.09
-0.07
-0.065
-0.04
-0.045
-0.05
-0.075
-0.075
-0.055
-0.03
-0.035
-0.04
-0.04
-0.06
-0.025
-0.01
0.0
-0.005
-0.005
0.0
0.02
0.035
0.03
0.035
0.03
0.02
0.025
0.045
0.04
0.02
0.01
0.01
0.04
0.04
0.035
0.01
0.01
0.02
0.025
0.055
0.05
0.04
0.025
0.015
0.035
0.035
0.045
0.02
0.015
0.015
0.025
0.055
0.05
0.045
0.045
0.035
0.065
0.06
0.06
0.055
0.045
0.04
0.04
0.045
0.035
0.025
0.01
0.005
0.01
0.025
0.02
0.005
-0.015
0.0
0.005
0.005
-0.005
-0.02
-0.02
-0.025
-0.02
-0.01
-0.015
-0.03
-0.035
-0.035
-0.01
0.0
0.01
-0.005
-0.015
-0.015
-0.02
0.005
0.02
0.005
-0.015
-0.01
0.01
0.03
0.02
0.02
0.005
0.0
0.015
0.03
0.03
0.025
0.015
0.0
0.005
0.015
0.01
-0.01
-0.005
-0.005
0.015
0.03
0.025
0.01
0.0
-0.01
0.005
0.015
0.015
-0.01
-0.015
-0.02
-0.005
0.015
0.005
-0.005
-0.01
0.0
0.015
0.02
0.015
0.005
-0.005
0.01
0.015
0.035
0.045
0.035
0.025
0.035
0.065
0.07
0.055
0.055
0.05
0.05
0.055
0.055
0.045
0.035
0.025
0.025
0.04
0.055
0.055
0.04
0.045
0.04
0.05
0.065
0.07
0.065
0.07
0.06
0.055
0.07
0.095
0.135
0.2
0.295
0.4
0.51
0.61
0.695
0.81
0.925
1.055
1.105
1.09
1.065
0.985
0.92
0.805
0.66
0.455
0.28
0.195
0.16
0.125
0.09
0.065
0.045
0.025
0.015
0.02
0.025
0.02
-0.015
-0.015
-0.04
-0.03
-0.02
-0.02
-0.045
-0.07
-0.075
-0.08
-0.065
-0.045
-0.055
-0.06
-0.075
-0.045
-0.035
-0.045
-0.035
-0.035
-0.045
-0.045
-0.05
-0.04
-0.045
-0.06
-0.055
-0.04
-0.025
-0.025
-0.04
-0.04
-0.035
-0.02
-0.01
-0.005
-0.025
-0.035
-0.03
-0.015
-0.005
0.0
-0.005
-0.005
0.0
0.015
0.035
0.04
0.05
0.045
0.045
0.06
0.07
0.07
0.06
0.06
0.055
0.07
0.085
0.075
0.07
0.07
0.06
0.085
0.105
0.13
0.105
0.12
0.14
0.165
0.18
0.19
0.19
0.195
0.185
0.2
0.225
0.22
0.215
0.2
0.19
0.21
0.22
0.22
0.22
0.21
0.215
0.235
0.25
0.245
0.225
0.23
0.235
0.255
0.26
0.255
0.245
0.25
0.245
0.255
0.27
0.275
0.27
0.27
0.27
0.26
0.285
0.295
0.29
0.28
0.275
0.285
0.305
0.29
0.28
0.275
0.255
0.26
0.285
0.275
0.275
0.27
0.265
0.29
0.3
0.3
0.295
0.29
0.28
0.295
0.305
0.295
0.295
0.27
0.28
0.29
0.305
0.315
0.305
0.295
0.295
0.315
0.32
0.315
0.315
0.31
0.32
0.325
0.33
0.345
0.335
0.335
0.32
0.33
0.335
0.335
0.345
0.34
0.34
0.35
0.36
0.36
0.34
0.345
0.34
0.34
0.35
0.345
0.335
0.31
0.31
0.315
0.345
0.35
0.33
0.335
0.33
0.35
0.36
0.355
0.355
0.345
0.34
0.345
0.365
0.355
0.345
0.345
0.34
0.33
0.35
0.35
0.35
0.36
0.345
0.36
0.385
0.365
0.36
0.36
0.365
0.37
0.385
0.39
0.385
0.38
0.38
0.395
0.395
0.405
0.405
0.4
0.395
0.385
0.42
0.405
0.4
0.39
0.375
0.385
0.405
0.395
0.38
0.375
0.42
0.485
0.6
0.705
0.805
0.905
0.995
1.09
1.195
1.305
1.39
1.415
1.38
1.34
1.265
1.15
0.965
0.745
0.595
0.525
0.49
0.46
0.395
0.36
0.35
0.345
0.36
0.34
0.325
0.31
0.295
0.3
0.315
0.315
0.3
0.285
0.28
0.29
0.31
0.305
0.305
0.285
0.28
0.285
0.295
0.285
0.265
0.25
0.235
0.24
0.25
0.25
0.235
0.23
0.225
0.235
0.25
0.24
0.24
0.225
0.225
0.24
0.25
0.255
0.235
0.235
0.225
0.235
0.245
0.245
0.23
0.22
0.205
0.215
0.24
0.245
0.235
0.24
0.245
0.245
0.275
0.28
0.27
0.265
0.27
0.275
0.295
0.29
0.295
0.285
0.295
0.3
0.335
0.33
0.33
0.325
0.33
0.345
0.37
0.385
0.375
0.37
0.36
0.375
0.39
0.395
0.38
0.39
0.38
0.385
0.395
0.4
0.395
0.4
0.405
0.42
0.41
0.42
0.4
0.395
0.395
0.405
0.415
0.415
0.4
0.385
0.38
0.395
0.425
0.415
0.405
0.395
0.39
0.39
0.405
0.41
0.41
0.4
0.39
0.41
0.42
0.415
0.405
0.395
0.405
0.41
0.42
0.415
0.405
0.395
0.405
0.42
0.435
0.435
0.425
0.415
0.425
0.435
0.435
0.44
0.43
0.4
0.405
0.4
0.415
0.395
0.38
0.38
0.385
0.395
0.405
0.39
0.385
0.37
0.365
0.38
0.39
0.4
0.37
0.365
0.355
0.36
0.355
0.365
0.355
0.345
0.34
0.345
0.365
0.375
0.37
0.35
0.345
0.36
0.37
0.365
0.365
0.345
0.345
0.355
0.355
0.37
0.365
0.355
0.34
0.355
0.37
0.385
0.37
0.365
0.35
0.355
0.365
0.37
0.35
0.34
0.33
0.34
0.35
0.34
0.355
0.35
0.33
0.335
0.345
0.34
0.34
0.34
0.34
0.345
0.365
0.355
0.35
0.35
0.33
0.345
0.36
0.375
0.4
0.46
0.55
0.655
0.765
0.855
0.96
1.055
1.135
1.23
1.32
1.355
1.335
1.3
1.23
1.155
1.02
0.82
0.61
0.475
0.42
0.38
0.35
0.295
0.27
0.255
0.255
0.25
0.245
0.24
0.215
0.21
0.195
0.2
0.205
0.19
0.19
0.16
0.15
0.145
0.16
0.155
0.145
0.14
0.13
0.13
0.14
0.135
0.13
0.12
0.11
0.135
0.14
0.12
0.11
0.105
0.105
0.115
0.12
0.115
0.095
0.09
0.095
0.11
0.125
0.125
0.11
0.1
0.095
0.105
0.125
0.125
0.105
0.085
0.06
0.075
0.1
0.095
0.09
0.095
0.09
0.09
0.115
0.12
0.11
0.115
0.115
0.14
0.135
0.135
0.11
0.115
0.105
0.13
0.15
0.15
0.155
0.155
0.145
0.165
0.195
0.205
0.2
0.19
0.19
0.205
0.225
0.23
0.21
0.215
0.22
0.235
0.235
0.23
0.22
0.215
0.2
0.2
0.22
0.215
0.2
0.205
0.21
0.215
0.23
0.22
0.215
0.21
0.195
0.215
0.22
0.215
0.215
0.205
0.19
0.215
0.235
0.225
0.215
0.23
0.22
0.23
0.245
0.24
0.225
0.205
0.21
0.22
0.23
0.22
0.215
0.2
0.19
0.195
0.2
0.195
0.2
0.19
0.18
0.175
0.18
0.175
0.155
0.14
0.155
0.16
0.175
0.175
0.16
0.155
0.15
0.17
0.17
0.17
0.155
0.13
0.14
0.17
0.18
0.17
0.16
0.145
0.15
0.165
0.18
0.16
0.16
0.15
0.15
0.15
0.16
0.18
0.155
0.155
0.165
0.155
0.19
0.185
0.15
0.155
0.14
0.155
0.165
0.175
0.165
0.15
0.135
0.135
0.14
0.155
0.135
0.12
0.105
0.13
0.13
0.145
0.125
0.12
0.11
0.115
0.11
0.11
0.095
0.09
0.09
0.095
0.1
0.105
0.075
0.075
0.07
0.065
0.105
0.11
0.095
0.085
0.085
0.1
0.105
0.11
0.105
0.105
0.1
0.1
0.1
0.105
0.095
0.11
0.105
0.115
0.125
0.12
0.115
0.125
0.12
0.125
0.145
0.135
0.135
0.115
0.12
0.12
0.125
0.135
0.135
0.105
0.1
0.105
0.15
0.195
0.27
0.345
0.44
0.54
0.635
0.745
0.84
0.935
1.01
1.08
1.105
1.08
0.985
0.92
0.825
0.68
0.49
0.325
0.21
0.145
0.1
0.075
0.05
0.03
0.02
-0.01
-0.03
-0.015
-0.02
-0.025
-0.04
-0.065
-0.065
-0.06
-0.05
-0.055
-0.065
-0.085
-0.08
-0.07
-0.075
-0.065
-0.085
-0.095
-0.1
-0.09
-0.09
-0.1
-0.105
-0.13
-0.125
-0.13
-0.135
-0.135
-0.13
-0.14
-0.145
-0.145
-0.13
-0.125
-0.135
-0.155
-0.16
-0.15
-0.13
-0.135
-0.15
-0.16
-0.165
-0.165
-0.145
-0.16
-0.165
-0.16
-0.17
-0.145
-0.14
-0.145
-0.14
-0.15
-0.14
-0.125
-0.115
-0.125
-0.125
-0.14
-0.15
-0.125
-0.11
-0.12
-0.14
-0.12
-0.115
-0.1
-0.08
-0.08
-0.08
-0.085
-0.09
-0.065
-0.04
-0.04
-0.05
-0.05
-0.05
-0.04
-0.04
-0.04
-0.03
-0.04
-0.035
-0.03
-0.025
-0.035
-0.06
-0.045
-0.055
-0.04
-0.035
-0.055
-0.075
-0.08
-0.075
-0.065
-0.055
-0.065
-0.08
-0.085
-0.075
-0.06
-0.045
-0.055
-0.075
-0.08
-0.09
-0.07
-0.07
-0.06
-0.08
-0.095
-0.1
-0.085
-0.075
-0.075
-0.09
-0.09
-0.085
-0.09
-0.07
-0.075
-0.09
-0.115
-0.115
-0.08
-0.07
-0.08
-0.08
-0.095
-0.115
-0.1
-0.105
-0.11
-0.115
-0.125
-0.115
-0.105
-0.1
-0.09
-0.115
-0.135
-0.145
-0.13
-0.12
-0.12
-0.13
-0.135
-0.15
-0.135
-0.125
-0.14
-0.135
-0.145
-0.145
-0.14
-0.145
-0.14
-0.15
-0.15
-0.155
-0.13
-0.135
-0.13
-0.14
-0.155
-0.16
-0.145
-0.125
-0.13
-0.155
-0.175
-0.16
-0.14
-0.135
-0.14
-0.155
-0.17
-0.17
-0.155
-0.15
-0.15
-0.16
-0.175
-0.185
-0.175
-0.165
-0.175
-0.195
-0.205
-0.195
-0.195
-0.185
-0.175
-0.185
-0.225
-0.205
-0.195
-0.19
-0.205
-0.21
-0.235
-0.24
-0.23
-0.215
-0.215
-0.235
-0.24
-0.235
-0.22
-0.215
-0.2
-0.225
-0.245
-0.235
-0.23
-0.215
-0.21
-0.215
-0.23
-0.235
-0.225
-0.21
-0.19
-0.195
-0.21
-0.2
-0.2
-0.19
-0.165
-0.17
-0.175
-0.185
-0.175
-0.18
-0.18
-0.2
-0.215
-0.205
-0.165
-0.095
-0.005
0.075
0.16
0.265
0.385
0.51
0.62
0.695
0.72
0.695
0.655
0.61
0.56
0.445
0.29
0.095
-0.065
-0.15
-0.2
-0.245
-0.295
-0.33
-0.34
-0.325
-0.33
-0.335
-0.36
-0.37
-0.37
-0.355
-0.375
-0.39
-0.38
-0.365
-0.365
-0.36
-0.36
-0.36
-0.365
-0.38
-0.37
-0.365
-0.35
-0.385
-0.39
-0.415
-0.405
-0.38
-0.395
-0.4
-0.425
-0.44
-0.435
-0.44
-0.43
-0.44
-0.455
-0.45
-0.44
-0.43
-0.435
-0.445
-0.455
-0.45
-0.45
-0.45
-0.46
-0.465
-0.485
-0.485
-0.455
-0.445
-0.455
-0.47
-0.485
-0.47
-0.45
-0.44
-0.445
-0.45
-0.46
-0.46
-0.45
-0.425
-0.42
-0.425
-0.435
-0.43
-0.415
-0.4
-0.385
-0.375
-0.365
-0.365
-0.355
-0.35
-0.325
-0.32
-0.32
-0.325
-0.315
-0.315
-0.3
-0.305
-0.315
-0.325
-0.32
-0.305
-0.31
-0.33
-0.32
-0.335
-0.32
-0.315
-0.325
-0.33
-0.345
-0.345
-0.355
-0.33
-0.335
-0.34
-0.35
-0.355
-0.345
-0.345
-0.33
-0.36
-0.35
-0.355
-0.345
-0.325
-0.32
-0.335
-0.335
-0.35
-0.35
-0.325
-0.32
-0.325
-0.325
-0.32
-0.315
-0.31
-0.305
-0.3
-0.315
-0.32
-0.32
-0.315
-0.31
-0.32
-0.335
-0.345
-0.34
-0.345
-0.345
-0.35
-0.375
-0.375
-0.36
-0.355
-0.36
-0.365
-0.375
-0.38
-0.38
-0.365
-0.37
-0.37
-0.4
-0.4
-0.405
-0.38
-0.375
-0.38
-0.395
-0.4
-0.395
-0.375
-0.365
-0.375
-0.39
-0.4
-0.395
-0.38
-0.37
-0.385
-0.385
-0.39
-0.39
-0.36
-0.355
-0.36
-0.365
-0.39
-0.355
-0.36
-0.355
-0.35
-0.365
-0.37
-0.36
-0.355
-0.36
-0.37
-0.385
-0.385
-0.37
-0.375
-0.36
-0.38
-0.38
-0.4
-0.38
-0.36
-0.355
-0.385
-0.39
-0.395
-0.39
-0.37
-0.345
-0.315
-0.245
-0.13
-0.025
0.085
0.185
0.29
0.395
0.49
0.575
0.62
0.635
0.575
0.52
0.44
0.32
0.13
-0.08
