Lead II
-0.465
-0.485
-0.47
-0.49
-0.5
-0.52
-0.525
-0.53
-0.54
-0.53
-0.535
-0.54
-0.535
-0.525
-0.52
-0.525
-0.53
-0.535
-0.545
-0.545
-0.54
-0.545
-0.545
-0.53
-0.525
-0.52
-0.5
-0.495
-0.49
-0.495
-0.505
-0.5
-0.495
-0.495
-0.49
-0.485
-0.475
-0.46
-0.44
-0.445
-0.45
-0.455
-0.455
-0.465
-0.46
-0.465
-0.465
-0.45
-0.45
-0.445
-0.44
-0.445
-0.455
-0.45
-0.45
-0.46
-0.49
-0.485
-0.475
-0.47
-0.475
-0.465
-0.455
-0.46
-0.47
-0.485
-0.495
-0.515
-0.52
-0.52
-0.525
-0.51
-0.52
-0.52
-0.52
-0.52
-0.515
-0.52
-0.54
-0.545
-0.55
-0.54
-0.55
-0.555
-0.55
-0.545
-0.535
-0.54
-0.535
-0.555
-0.555
-0.565
-0.57
-0.575
-0.575
-0.57
-0.565
-0.58
-0.575
-0.575
-0.565
-0.565
-0.57
-0.575
-0.59
-0.59
-0.59
-0.585
-0.585
-0.56
-0.555
-0.55
-0.56
-0.565
-0.585
-0.59
-0.605
-0.61
-0.595
-0.59
-0.585
-0.58
-0.57
-0.565
-0.565
-0.575
-0.575
-0.575
-0.59
-0.595
-0.595
-0.595
-0.585
-0.575
-0.565
-0.565
-0.57
-0.575
-0.58
-0.59
-0.59
-0.585
-0.59
-0.575
-0.585
-0.575
-0.565
-0.575
-0.58
-0.58
-0.58
-0.59
-0.59
-0.59
-0.59
-0.585
-0.575
-0.57
-0.555
-0.56
-0.565
-0.565
-0.575
-0.585
-0.595
-0.57
-0.545
-0.51
-0.5
-0.48
-0.47
-0.485
-0.48
-0.475
-0.485
-0.495
-0.515
-0.53
-0.535
-0.54
-0.52
-0.515
-0.515
-0.51
-0.505
-0.52
-0.515
-0.53
-0.545
-0.55
-0.56
-0.565
-0.56
-0.545
-0.54
-0.53
-0.515
-0.505
-0.495
-0.46
-0.41
-0.34
-0.225
-0.02
0.25
0.56
0.92
1.245
1.485
1.585
1.52
1.28
0.785
0.145
-0.495
-1.135
-1.615
-1.62
-1.415
-1.115
-0.89
-0.76
-0.71
-0.725
-0.745
-0.745
-0.72
-0.69
-0.64
-0.615
-0.61
-0.615
-0.63
-0.64
-0.655
-0.66
-0.67
-0.655
-0.64
-0.64
-0.64
-0.615
-0.6
-0.605
-0.605
-0.61
-0.6
-0.605
-0.605
-0.6
-0.61
-0.595
-0.57
-0.57
-0.545
-0.54
-0.54
-0.535
-0.555
-0.53
-0.545
-0.535
-0.53
-0.52
-0.51
-0.51
-0.5
-0.495
-0.495
-0.495
-0.475
-0.49
-0.485
-0.47
-0.47
-0.46
-0.46
-0.445
-0.425
-0.425
-0.425
-0.425
-0.405
-0.415
-0.415
-0.41
-0.41
-0.395
-0.385
-0.375
-0.36
-0.355
-0.355
-0.345
-0.345
-0.345
-0.345
-0.355
-0.355
-0.345
-0.345
-0.345
-0.34
-0.345
-0.35
-0.345
-0.355
-0.355
-0.365
-0.36
-0.355
-0.345
-0.32
-0.31
-0.3
-0.285
-0.285
-0.275
-0.285
-0.285
-0.295
-0.29
-0.29
-0.295
-0.29
-0.3
-0.3
-0.31
-0.335
-0.355
-0.37
-0.385
-0.405
-0.41
-0.425
-0.44
-0.46
-0.455
-0.475
-0.49
-0.51
-0.525
-0.525
-0.545
-0.555
-0.56
-0.56
-0.555
-0.55
-0.55
-0.545
-0.555
-0.555
-0.55
-0.55
-0.555
-0.565
-0.565
-0.555
-0.545
-0.535
-0.525
-0.51
-0.495
-0.505
-0.495
-0.49
-0.5
-0.5
-0.495
-0.49
-0.465
-0.465
-0.445
-0.44
-0.43
-0.435
-0.445
-0.45
-0.45
-0.445
-0.44
-0.45
-0.43
-0.42
-0.425
-0.43
-0.425
-0.44
-0.435
-0.435
-0.44
-0.445
-0.455
-0.46
-0.46
-0.465
-0.45
-0.455
-0.465
-0.465
-0.48
-0.485
-0.505
-0.525
-0.535
-0.53
-0.505
-0.505
-0.505
-0.5
-0.51
-0.515
-0.52
-0.535
-0.55
-0.55
-0.565
-0.56
-0.555
-0.57
-0.55
-0.555
-0.555
-0.57
-0.57
-0.565
-0.575
-0.58
-0.58
-0.58
-0.56
-0.565
-0.565
-0.56
-0.57
-0.58
-0.58
-0.585
-0.585
-0.58
-0.585
-0.595
-0.595
-0.58
-0.58
-0.57
-0.575
-0.58
-0.585
-0.59
-0.605
-0.615
-0.625
-0.62
-0.61
-0.59
-0.585
-0.58
-0.58
-0.58
-0.595
-0.595
-0.585
-0.595
-0.595
-0.595
-0.59
-0.58
-0.57
-0.565
-0.57
-0.58
-0.585
-0.595
-0.6
-0.605
-0.61
-0.605
-0.595
-0.585
-0.575
-0.57
-0.58
-0.58
-0.585
-0.59
-0.6
-0.605
-0.6
-0.6
-0.59
-0.595
-0.585
-0.57
-0.59
-0.58
-0.585
-0.58
-0.595
-0.6
-0.59
-0.575
-0.565
-0.54
-0.51
-0.49
-0.48
-0.47
-0.475
-0.485
-0.495
-0.52
-0.525
-0.545
-0.55
-0.545
-0.53
-0.52
-0.51
-0.515
-0.515
-0.515
-0.53
-0.55
-0.57
-0.58
-0.585
-0.57
-0.555
-0.545
-0.53
-0.53
-0.525
-0.525
-0.5
-0.48
-0.455
-0.37
-0.265
-0.105
0.1
0.375
0.69
1.005
1.285
1.485
1.53
1.385
0.99
0.35
-0.29
-0.93
-1.57
-1.655
-1.445
-1.18
-0.925
-0.76
-0.68
-0.655
-0.655
-0.655
-0.67
-0.65
-0.64
-0.63
-0.63
-0.63
-0.64
-0.64
-0.65
-0.64
-0.65
-0.62
-0.62
-0.615
-0.605
-0.6
-0.59
-0.585
-0.59
-0.59
-0.595
-0.605
-0.605
-0.59
-0.59
-0.575
-0.56
-0.56
-0.53
-0.545
-0.545
-0.565
-0.545
-0.54
-0.54
-0.525
-0.525
-0.515
-0.505
-0.49
-0.49
-0.495
-0.485
-0.49
-0.495
-0.485
-0.475
-0.48
-0.465
-0.455
-0.44
-0.425
-0.425
-0.415
-0.405
-0.405
-0.415
-0.425
-0.42
-0.415
-0.41
-0.395
-0.375
-0.37
-0.36
-0.36
-0.35
-0.355
-0.36
-0.365
-0.375
-0.355
-0.35
-0.34
-0.335
-0.33
-0.345
-0.335
-0.335
-0.345
-0.34
-0.35
-0.34
-0.345
-0.335
-0.325
-0.305
-0.29
-0.29
-0.275
-0.28
-0.265
-0.265
-0.27
-0.275
-0.265
-0.27
-0.28
-0.285
-0.295
-0.325
-0.34
-0.355
-0.37
-0.375
-0.405
-0.425
-0.425
-0.45
-0.465
-0.475
-0.47
-0.485
-0.5
-0.5
-0.525
-0.535
-0.545
-0.555
-0.56
-0.545
-0.54
-0.535
-0.535
-0.525
-0.535
-0.545
-0.55
-0.575
-0.585
-0.585
-0.565
-0.55
-0.535
-0.53
-0.52
-0.525
-0.525
-0.525
-0.54
-0.53
-0.53
-0.525
-0.525
-0.515
-0.505
-0.495
-0.475
-0.465
-0.475
-0.47
-0.46
-0.465
-0.465
-0.485
-0.465
-0.475
-0.455
-0.45
-0.435
-0.435
-0.445
-0.44
-0.455
-0.46
-0.465
-0.465
-0.47
-0.475
-0.47
-0.47
-0.47
-0.46
-0.47
-0.48
-0.49
-0.495
-0.51
-0.525
-0.525
-0.535
-0.52
-0.52
-0.51
-0.515
-0.52
-0.525
-0.54
-0.535
-0.545
-0.555
-0.55
-0.545
-0.555
-0.545
-0.555
-0.555
-0.565
-0.575
-0.58
-0.59
-0.6
-0.605
-0.59
-0.59
-0.58
-0.575
-0.575
-0.575
-0.58
-0.585
-0.595
-0.595
-0.605
-0.615
-0.605
-0.61
-0.6
-0.595
-0.59
-0.59
-0.595
-0.595
-0.61
-0.605
-0.61
-0.62
-0.61
-0.62
-0.62
-0.61
-0.605
-0.6
-0.605
-0.61
-0.605
-0.615
-0.61
-0.615
-0.625
-0.61
-0.61
-0.605
-0.59
-0.59
-0.59
-0.6
-0.61
-0.625
-0.62
-0.625
-0.62
-0.62
-0.605
-0.595
-0.6
-0.595
-0.595
-0.59
-0.595
-0.595
-0.605
-0.625
-0.625
-0.62
-0.62
-0.615
-0.605
-0.6
-0.595
-0.595
-0.595
-0.605
-0.61
-0.615
-0.61
-0.615
-0.595
-0.59
-0.58
-0.585
-0.58
-0.585
-0.585
-0.58
-0.56
-0.54
-0.52
-0.51
-0.505
-0.49
-0.495
-0.51
-0.52
-0.51
-0.53
-0.56
-0.555
-0.555
-0.555
-0.545
-0.54
-0.545
-0.53
-0.525
-0.53
-0.55
-0.575
-0.585
-0.59
-0.605
-0.605
-0.585
-0.57
-0.56
-0.535
-0.535
-0.525
-0.495
-0.47
-0.405
-0.33
-0.19
0.015
0.28
0.585
0.925
1.255
1.49
1.595
1.55
1.38
1.0
0.415
-0.225
-0.865
-1.505
-1.685
-1.58
-1.32
-1.045
-0.87
-0.765
-0.755
-0.78
-0.79
-0.785
-0.755
-0.715
-0.68
-0.655
-0.64
-0.635
-0.65
-0.67
-0.685
-0.69
-0.69
-0.7
-0.69
-0.675
-0.65
-0.645
-0.635
-0.635
-0.63
-0.625
-0.62
-0.625
-0.625
-0.62
-0.625
-0.63
-0.595
-0.59
-0.565
-0.56
-0.565
-0.565
-0.565
-0.575
-0.56
-0.555
-0.555
-0.545
-0.545
-0.545
-0.53
-0.535
-0.52
-0.505
-0.51
-0.51
-0.5
-0.505
-0.505
-0.485
-0.47
-0.47
-0.45
-0.435
-0.44
-0.44
-0.43
-0.43
-0.425
-0.415
-0.395
-0.38
-0.37
-0.37
-0.36
-0.355
-0.35
-0.355
-0.35
-0.355
-0.36
-0.36
-0.36
-0.355
-0.345
-0.34
-0.34
-0.325
-0.32
-0.315
-0.335
-0.315
-0.32
-0.325
-0.31
-0.315
-0.285
-0.265
-0.265
-0.245
-0.235
-0.23
-0.225
-0.235
-0.24
-0.245
-0.26
-0.275
-0.29
-0.29
-0.31
-0.32
-0.34
-0.36
-0.38
-0.4
-0.42
-0.45
-0.475
-0.47
-0.475
-0.48
-0.485
-0.49
-0.5
-0.515
-0.545
-0.56
-0.57
-0.575
-0.565
-0.57
-0.57
-0.56
-0.555
-0.55
-0.555
-0.565
-0.56
-0.56
-0.56
-0.58
-0.555
-0.555
-0.55
-0.535
-0.535
-0.525
-0.525
-0.525
-0.525
-0.525
-0.52
-0.515
-0.51
-0.505
-0.5
-0.48
-0.475
-0.47
-0.47
-0.47
-0.465
-0.47
-0.47
-0.47
-0.475
-0.48
-0.47
-0.47
-0.46
-0.445
-0.455
-0.455
-0.47
-0.47
-0.48
-0.495
-0.485
-0.495
-0.49
-0.495
-0.485
-0.515
-0.51
-0.515
-0.51
-0.515
-0.53
-0.54
-0.535
-0.55
-0.545
-0.54
-0.54
-0.53
-0.55
-0.55
-0.545
-0.56
-0.57
-0.57
-0.58
-0.565
-0.565
-0.56
-0.555
-0.55
-0.56
-0.565
-0.58
-0.59
-0.595
-0.61
-0.59
-0.595
-0.59
-0.59
-0.585
-0.585
-0.59
-0.595
-0.59
-0.59
-0.595
-0.595
-0.6
-0.605
-0.59
-0.59
-0.59
-0.57
-0.59
-0.58
-0.595
-0.605
-0.615
-0.615
-0.61
-0.605
-0.605
-0.59
-0.59
-0.585
-0.595
-0.59
-0.595
-0.605
-0.61
-0.63
-0.625
-0.61
-0.61
-0.605
-0.595
-0.595
-0.595
-0.595
-0.6
-0.615
-0.61
-0.62
-0.62
-0.63
-0.615
-0.605
-0.61
-0.595
-0.61
-0.6
-0.595
-0.615
-0.615
-0.62
-0.625
-0.61
-0.605
-0.595
-0.585
-0.59
-0.585
-0.59
-0.6
-0.605
-0.615
-0.61
-0.605
-0.61
-0.6
-0.595
-0.6
-0.58
-0.59
-0.59
-0.59
-0.585
-0.595
-0.595
-0.595
-0.595
-0.585
-0.57
-0.555
-0.54
-0.525
-0.51
-0.505
-0.5
-0.505
-0.51
-0.505
-0.52
-0.525
-0.52
-0.525
-0.535
-0.545
-0.54
-0.53
-0.55
-0.555
-0.56
-0.56
-0.575
-0.57
-0.56
-0.575
-0.56
-0.57
-0.565
-0.565
-0.565
-0.565
-0.555
-0.53
-0.505
-0.45
-0.37
-0.225
0.0
0.295
0.665
1.045
1.355
1.525
1.51
1.265
0.755
0.115
-0.525
-1.165
-1.51
-1.46
-1.245
-1.015
-0.82
-0.71
-0.68
-0.685
-0.69
-0.685
-0.67
-0.65
-0.635
-0.645
-0.64
-0.655
-0.675
-0.68
-0.68
-0.675
-0.665
-0.665
-0.655
-0.635
-0.63
-0.62
-0.625
-0.625
-0.625
-0.625
-0.63
-0.625
-0.62
-0.605
-0.6
-0.59
-0.585
-0.585
-0.575
-0.58
-0.58
-0.57
-0.59
-0.56
-0.545
-0.53
-0.535
-0.53
-0.52
-0.52
-0.52
-0.515
-0.5
-0.5
-0.495
-0.48
-0.475
-0.465
-0.45
-0.45
-0.43
-0.43
-0.43
-0.425
-0.42
-0.43
-0.425
-0.405
-0.405
-0.39
-0.385
-0.37
-0.355
-0.36
-0.355
-0.36
-0.365
-0.37
-0.375
-0.365
-0.355
-0.355
-0.35
-0.34
-0.325
-0.33
-0.33
-0.325
-0.325
-0.33
-0.33
-0.335
-0.305
-0.29
-0.28
-0.265
-0.25
-0.24
-0.25
-0.245
-0.235
-0.245
-0.245
-0.27
-0.275
-0.295
-0.295
-0.31
-0.315
-0.33
-0.35
-0.385
-0.4
-0.43
-0.44
-0.46
-0.475
-0.49
-0.505
-0.515
-0.49
-0.51
-0.515
-0.52
-0.525
-0.54
-0.56
-0.565
-0.55
-0.56
-0.56
-0.55
-0.545
-0.555
-0.545
-0.565
-0.56
-0.565
-0.56
-0.55
-0.535
-0.53
-0.525
-0.52
-0.51
-0.515
-0.51
-0.495
-0.5
-0.5
-0.5
-0.51
-0.51
-0.475
-0.47
-0.455
-0.45
-0.445
-0.445
-0.455
-0.45
-0.475
-0.475
-0.48
-0.465
-0.46
-0.465
-0.47
-0.46
-0.455
-0.47
-0.46
-0.465
-0.47
-0.475
-0.475
-0.48
-0.48
-0.485
-0.495
-0.485
-0.495
-0.495
-0.51
-0.525
-0.535
-0.53
-0.535
-0.54
-0.535
-0.535
-0.535
-0.54
-0.54
-0.535
-0.545
-0.56
-0.575
-0.565
-0.57
-0.575
-0.58
-0.565
-0.57
-0.57
-0.55
-0.545
-0.555
-0.57
-0.575
-0.59
-0.59
-0.585
-0.585
-0.59
-0.58
-0.57
-0.575
-0.58
-0.58
-0.58
-0.61
-0.605
-0.6
-0.605
-0.595
-0.59
-0.57
-0.57
-0.575
-0.6
-0.585
-0.615
-0.62
-0.63
-0.615
-0.62
-0.595
-0.59
-0.58
-0.575
-0.58
-0.575
-0.59
-0.605
-0.6
-0.61
-0.605
-0.605
-0.61
-0.6
-0.6
-0.58
-0.585
-0.595
-0.61
-0.61
-0.625
-0.635
-0.62
-0.61
-0.6
-0.595
-0.6
-0.595
-0.6
-0.605
-0.615
-0.625
-0.62
-0.63
-0.615
-0.605
-0.595
-0.6
-0.585
-0.585
-0.585
-0.595
-0.61
-0.62
-0.625
-0.615
-0.62
-0.605
-0.605
-0.59
-0.58
-0.57
-0.575
-0.57
-0.595
-0.59
-0.595
-0.58
-0.57
-0.54
-0.515
-0.505
-0.5
-0.475
-0.485
-0.49
-0.495
-0.525
-0.535
-0.545
-0.55
-0.55
-0.53
-0.53
-0.51
-0.515
-0.52
-0.525
-0.545
-0.565
-0.57
-0.585
-0.595
-0.585
-0.58
-0.57
-0.545
-0.525
-0.52
-0.495
-0.465
-0.415
-0.335
-0.175
0.05
0.39
0.775
1.165
1.45
1.57
1.47
1.12
0.505
-0.135
-0.775
-1.415
-1.68
-1.55
-1.28
-1.005
-0.835
-0.73
-0.725
-0.725
-0.73
-0.71
-0.695
-0.665
-0.64
-0.635
-0.635
-0.635
-0.635
-0.635
-0.655
-0.655
-0.665
-0.645
-0.64
-0.65
-0.64
-0.64
-0.625
-0.61
-0.605
-0.605
-0.605
-0.605
-0.615
-0.605
-0.615
-0.605
-0.59
-0.585
-0.58
-0.565
-0.56
-0.54
-0.55
-0.53
-0.54
-0.54
-0.54
-0.53
-0.53
-0.52
-0.51
-0.52
-0.49
-0.48
-0.48
-0.48
-0.48
-0.49
-0.475
-0.475
-0.47
-0.465
-0.455
-0.445
-0.435
-0.41
-0.4
-0.415
-0.41
-0.395
-0.4
-0.395
-0.395
-0.39
-0.385
-0.38
-0.37
-0.35
-0.35
-0.355
-0.355
-0.365
-0.375
-0.385
-0.385
-0.375
-0.375
-0.365
-0.36
-0.36
-0.36
-0.355
-0.36
-0.355
-0.35
-0.365
-0.36
-0.345
-0.33
-0.315
-0.3
-0.285
-0.285
-0.285
-0.285
-0.3
-0.305
-0.31
-0.315
-0.325
-0.325
-0.32
-0.335
-0.335
-0.35
-0.375
-0.405
-0.415
-0.43
-0.445
-0.455
-0.48
-0.49
-0.495
-0.495
-0.495
-0.505
-0.51
-0.525
-0.52
-0.55
-0.555
-0.56
-0.565
-0.565
-0.565
-0.54
-0.535
-0.53
-0.54
-0.54
-0.545
-0.55
-0.56
-0.545
-0.55
-0.53
-0.525
-0.51
-0.49
-0.49
-0.49
-0.475
-0.48
-0.48
-0.49
-0.485
-0.485
-0.475
-0.46
-0.46
-0.435
-0.44
-0.42
-0.42
-0.41
-0.43
-0.44
-0.435
-0.445
-0.43
-0.42
-0.41
-0.4
-0.41
-0.42
-0.435
-0.44
-0.445
-0.465
-0.46
-0.46
-0.465
-0.445
-0.445
-0.435
-0.445
-0.465
-0.465
-0.48
-0.495
-0.505
-0.505
-0.5
-0.51
-0.515
-0.51
-0.51
-0.51
-0.515
-0.53
-0.54
-0.55
-0.55
-0.56
-0.55
-0.555
-0.55
-0.56
-0.555
-0.565
-0.555
-0.56
-0.565
-0.565
-0.58
-0.575
-0.585
-0.58
-0.58
-0.565
-0.565
-0.565
-0.58
-0.59
-0.61
-0.605
-0.605
-0.6
-0.6
-0.585
-0.59
-0.58
-0.57
-0.58
-0.58
-0.585
-0.595
-0.61
-0.61
-0.615
-0.61
-0.62
-0.605
-0.59
-0.59
-0.585
-0.605
-0.605
-0.605
-0.605
-0.6
-0.6
-0.605
-0.615
-0.6
-0.605
-0.6
-0.595
-0.595
-0.6
-0.595
-0.605
-0.61
-0.605
-0.605
-0.6
-0.6
-0.585
-0.585
-0.585
-0.605
-0.605
-0.61
-0.615
-0.625
-0.63
-0.615
-0.6
-0.59
-0.59
-0.6
-0.605
-0.6
-0.605
-0.605
-0.6
-0.61
-0.615
-0.61
-0.6
-0.59
-0.59
-0.585
-0.59
-0.585
-0.585
-0.59
-0.57
-0.565
-0.54
-0.515
-0.5
-0.49
-0.485
-0.48
-0.5
-0.495
-0.51
-0.54
-0.54
-0.565
-0.545
-0.53
-0.525
-0.525
-0.515
-0.525
-0.525
-0.53
-0.54
-0.56
-0.58
-0.595
-0.615
-0.595
-0.58
-0.56
-0.545
-0.515
-0.515
-0.49
-0.48
-0.435
-0.385
-0.315
-0.175
0.015
0.26
0.55
0.875
1.185
1.435
1.55
1.53
1.315
0.845
0.205
-0.435
-1.075
-1.675
-1.675
-1.45
-1.16
-0.925
-0.77
-0.705
-0.705
-0.715
-0.72
-0.705
-0.68
-0.65
-0.63
-0.605
-0.63
-0.63
-0.64
-0.67
-0.66
-0.67
-0.665
-0.65
-0.645
-0.645
-0.63
-0.61
-0.615
-0.6
-0.605
-0.595
-0.595
-0.595
-0.59
-0.585
-0.58
-0.58
-0.565
-0.565
-0.55
-0.55
-0.57
-0.56
-0.565
-0.57
-0.565
-0.555
-0.545
-0.53
-0.515
-0.495
-0.5
-0.495
-0.485
-0.495
-0.505
-0.485
-0.485
-0.48
-0.47
-0.47
-0.45
-0.45
-0.445
-0.445
-0.435
-0.43
-0.43
-0.415
-0.415
-0.41
-0.405
-0.395
-0.38
-0.38
-0.37
-0.365
-0.36
-0.365
-0.36
-0.37
-0.37
-0.37
-0.36
-0.37
-0.365
-0.35
-0.35
-0.345
-0.35
-0.355
-0.36
-0.36
-0.365
-0.36
-0.35
-0.35
-0.345
-0.315
-0.305
-0.29
-0.28
-0.28
-0.265
-0.27
-0.275
-0.27
-0.275
-0.28
-0.275
-0.28
-0.28
-0.305
-0.315
-0.345
-0.365
-0.4
-0.41
-0.42
-0.425
-0.44
-0.45
-0.455
-0.475
-0.49
-0.5
-0.52
-0.53
-0.54
-0.555
-0.55
-0.565
-0.56
-0.55
-0.535
-0.535
-0.53
-0.54
-0.55
-0.545
-0.555
-0.56
-0.565
-0.55
-0.555
-0.535
-0.54
-0.53
-0.525
-0.52
-0.515
-0.53
-0.52
-0.5
-0.5
-0.5
-0.5
-0.485
-0.475
-0.455
-0.455
-0.45
-0.44
-0.455
-0.46
-0.455
-0.46
-0.45
-0.43
-0.425
-0.43
-0.425
-0.43
-0.43
-0.435
-0.44
-0.445
-0.45
-0.455
-0.46
-0.46
-0.47
-0.465
-0.455
-0.455
-0.46
-0.475
-0.485
-0.49
-0.505
-0.515
-0.515
-0.505
-0.515
-0.505
-0.505
-0.51
-0.5
-0.52
-0.535
-0.54
-0.55
-0.555
-0.54
-0.55
-0.535
-0.53
-0.53
-0.535
-0.54
-0.55
-0.565
-0.575
-0.58
-0.58
-0.575
-0.585
-0.57
-0.56
-0.56
-0.565
-0.565
-0.565
-0.575
-0.585
-0.59
-0.59
-0.6
-0.595
-0.58
-0.575
-0.575
-0.575
-0.585
-0.585
-0.585
-0.59
-0.6
-0.595
-0.59
-0.585
-0.585
-0.59
-0.58
-0.58
-0.58
-0.58
-0.59
-0.605
-0.595
-0.605
-0.605
-0.59
-0.595
-0.58
-0.575
-0.575
-0.57
-0.59
-0.59
-0.605
-0.61
-0.605
-0.615
-0.6
-0.59
-0.585
-0.585
-0.59
-0.585
-0.595
-0.59
-0.595
-0.6
-0.61
-0.605
-0.595
-0.59
-0.59
-0.585
-0.585
-0.585
-0.58
-0.59
-0.6
-0.595
-0.595
-0.6
-0.59
-0.585
-0.575
-0.575
-0.58
-0.57
-0.58
-0.58
-0.59
-0.595
-0.59
-0.595
-0.59
-0.58
-0.58
-0.575
-0.585
-0.58
-0.575
-0.575
-0.58
-0.55
-0.545
-0.52
-0.515
-0.495
-0.485
-0.485
-0.5
-0.5
-0.515
-0.54
-0.555
-0.56
-0.575
-0.565
-0.56
-0.54
-0.535
-0.53
-0.525
-0.53
-0.555
-0.555
-0.57
-0.59
-0.595
-0.595
-0.605
-0.585
-0.565
-0.55
-0.545
-0.525
-0.515
-0.495
-0.48
-0.435
-0.36
-0.225
-0.025
0.245
0.585
0.965
1.3
1.53
1.595
1.515
1.225
0.71
0.07
-0.57
-1.21
-1.54
-1.5
-1.285
-1.04
-0.85
-0.75
-0.715
-0.72
-0.735
-0.735
-0.705
-0.675
-0.645
-0.625
-0.62
-0.63
-0.645
-0.65
-0.655
-0.66
-0.66
-0.67
-0.655
-0.645
-0.645
-0.62
-0.61
-0.605
-0.61
-0.605
-0.605
-0.605
-0.615
-0.605
-0.6
-0.59
-0.585
-0.575
-0.555
-0.545
-0.545
-0.54
-0.555
-0.545
-0.54
-0.545
-0.53
-0.525
-0.515
-0.495
-0.48
-0.475
-0.47
-0.47
-0.475
-0.47
-0.485
-0.47
-0.46
-0.445
-0.44
-0.435
-0.415
-0.405
-0.4
-0.4
-0.39
-0.39
-0.39
-0.39
-0.385
-0.375
-0.365
-0.355
-0.345
-0.34
-0.335
-0.33
-0.335
-0.33
-0.33
-0.33
-0.34
-0.335
-0.315
-0.31
-0.29
-0.295
-0.3
-0.32
-0.31
-0.32
-0.305
-0.295
-0.285
-0.265
-0.25
-0.225
-0.205
-0.2
-0.195
-0.195
-0.195
-0.215
-0.24
-0.255
-0.27
-0.285
-0.29
-0.305
-0.305
-0.325
-0.34
-0.365
-0.385
-0.41
-0.435
-0.45
-0.47
-0.475
-0.485
-0.495
-0.49
-0.49
-0.505
-0.5
-0.505
-0.525
-0.52
-0.53
-0.525
-0.515
-0.525
-0.515
-0.505
-0.51
-0.505
-0.515
-0.545
-0.54
-0.545
-0.54
-0.535
-0.52
-0.52
-0.5
-0.49
-0.48
-0.475
-0.47
-0.46
-0.465
-0.46
-0.465
-0.47
-0.465
-0.455
-0.435
-0.425
-0.42
-0.43
-0.43
-0.44
-0.445
-0.44
-0.44
-0.435
-0.43
-0.425
-0.43
-0.43
-0.425
-0.45
-0.435
-0.455
-0.455
-0.475
-0.465
-0.475
-0.48
-0.47
-0.485
-0.465
-0.47
-0.47
-0.475
-0.49
-0.495
-0.515
-0.52
-0.52
-0.525
-0.51
-0.515
-0.51
-0.515
-0.515
-0.515
-0.525
-0.535
-0.54
-0.545
-0.545
-0.545
-0.545
-0.535
-0.53
-0.53
-0.525
-0.535
-0.545
-0.565
-0.565
-0.565
-0.56
-0.555
-0.55
-0.55
-0.555
-0.56
-0.56
-0.57
-0.585
-0.59
-0.59
-0.58
-0.58
-0.585
-0.57
-0.56
-0.555
-0.555
-0.555
-0.56
-0.565
-0.58
-0.585
-0.59
-0.585
-0.58
-0.565
-0.565
-0.555
-0.565
-0.56
-0.565
-0.58
-0.58
-0.58
-0.575
-0.57
-0.575
-0.57
-0.56
-0.555
-0.55
-0.56
-0.555
-0.565
-0.56
-0.57
-0.565
-0.575
-0.58
-0.57
-0.56
-0.535
-0.54
-0.555
-0.565
-0.57
-0.575
-0.58
-0.58
-0.575
-0.565
-0.565
-0.55
-0.555
-0.55
-0.555
-0.56
-0.57
-0.56
-0.555
-0.565
-0.56
-0.56
-0.55
-0.545
-0.53
-0.515
-0.5
-0.5
-0.49
-0.485
-0.485
-0.485
-0.48
-0.47
-0.47
-0.485
-0.48
-0.5
-0.515
-0.515
-0.535
-0.515
-0.515
-0.515
-0.51
-0.505
-0.51
-0.51
-0.53
-0.545
-0.55
-0.545
-0.545
-0.54
-0.54
-0.535
-0.525
-0.505
-0.48
-0.455
-0.395
-0.32
-0.19
0.005
0.275
0.61
0.97
1.28
1.485
1.545
1.385
1.015
0.41
-0.23
-0.87
-1.395
-1.51
-1.38
-1.135
-0.9
-0.755
-0.68
-0.66
-0.67
-0.68
-0.67
-0.645
-0.62
-0.62
-0.625
-0.63
-0.64
-0.655
-0.645
-0.64
-0.64
-0.625
-0.62
-0.62
-0.615
-0.625
-0.625
-0.63
-0.63
-0.625
-0.61
-0.61
-0.59
-0.585
-0.58
-0.575
-0.57
-0.565
-0.57
-0.56
-0.565
-0.55
-0.555
-0.535
-0.535
-0.505
-0.5
-0.495
-0.505
-0.49
-0.495
-0.495
-0.49
-0.48
-0.465
-0.45
-0.455
-0.435
-0.43
-0.435
-0.42
-0.42
-0.42
-0.42
-0.415
-0.41
-0.395
-0.39
-0.37
-0.355
-0.355
-0.355
-0.355
-0.36
-0.36
-0.345
-0.36
-0.35
-0.35
-0.345
-0.335
-0.32
-0.335
-0.32
-0.335
-0.325
-0.33
-0.335
-0.33
-0.345
-0.335
-0.325
-0.305
-0.285
-0.275
-0.275
-0.275
-0.28
-0.275
-0.275
-0.28
-0.255
-0.255
-0.24
-0.25
-0.24
-0.25
-0.28
-0.28
-0.315
-0.34
-0.37
-0.395
-0.41
-0.425
-0.415
-0.415
-0.44
-0.445
-0.465
-0.49
-0.495
-0.51
-0.515
-0.525
-0.525
-0.525
-0.52
-0.53
-0.525
-0.525
-0.53
-0.525
-0.535
-0.535
-0.535
-0.525
-0.53
-0.52
-0.51
-0.5
-0.495
-0.49
-0.495
-0.475
-0.485
-0.485
-0.5
-0.5
-0.495
-0.475
-0.45
-0.445
-0.43
-0.42
-0.42
-0.43
-0.44
-0.43
-0.45
-0.45
-0.435
-0.435
-0.445
-0.43
-0.435
-0.42
-0.42
-0.425
-0.44
-0.435
-0.445
-0.445
-0.455
-0.47
-0.47
-0.45
-0.45
-0.445
-0.46
-0.48
-0.48
-0.49
-0.505
-0.505
-0.515
-0.5
-0.495
-0.5
-0.5
-0.5
-0.505
-0.51
-0.525
-0.53
-0.54
-0.55
-0.55
-0.55
-0.55
-0.54
-0.535
-0.54
-0.545
-0.55
-0.555
-0.565
-0.58
-0.585
-0.59
-0.585
-0.565
-0.58
-0.58
-0.575
-0.565
-0.57
-0.57
-0.585
-0.6
-0.59
-0.6
-0.59
-0.58
-0.575
-0.57
-0.56
-0.57
-0.58
-0.6
-0.605
-0.59
-0.61
-0.6
-0.6
-0.595
-0.58
-0.57
-0.565
-0.58
-0.58
-0.58
-0.58
-0.585
-0.59
-0.61
-0.605
-0.585
-0.595
-0.58
-0.58
-0.58
-0.585
-0.6
-0.605
-0.6
-0.615
-0.615
-0.61
-0.585
-0.61
-0.6
-0.585
-0.575
-0.585
-0.59
-0.6
-0.595
-0.595
-0.59
-0.595
-0.585
-0.58
-0.57
-0.565
-0.57
-0.58
-0.58
-0.59
-0.61
-0.61
-0.595
-0.58
-0.575
-0.56
-0.53
-0.52
-0.51
-0.51
-0.51
-0.505
-0.5
-0.5
-0.5
-0.5
-0.51
-0.52
-0.515
-0.53
-0.535
-0.53
-0.535
-0.545
-0.54
-0.545
-0.535
-0.545
-0.545
-0.54
-0.545
-0.555
-0.56
-0.585
-0.575
-0.585
-0.59
-0.57
-0.56
-0.555
-0.515
-0.49
-0.45
-0.385
-0.295
-0.12
0.125
0.46
0.87
1.235
1.49
1.58
1.425
1.03
0.39
-0.25
-0.89
-1.49
-1.595
-1.43
-1.17
-0.915
-0.76
-0.69
-0.675
-0.695
-0.705
-0.71
-0.68
-0.65
-0.645
-0.645
-0.665
-0.675
-0.685
-0.685
-0.685
-0.675
-0.66
-0.655
-0.645
-0.65
-0.635
-0.64
-0.645
-0.65
-0.645
-0.645
-0.63
-0.625
-0.6
-0.595
-0.59
-0.59
-0.585
-0.605
-0.605
-0.6
-0.595
-0.585
-0.58
-0.565
-0.555
-0.545
-0.545
-0.545
-0.545
-0.54
-0.53
-0.525
-0.52
-0.535
-0.52
-0.52
-0.5
-0.49
-0.48
-0.485
-0.475
-0.48
-0.48
-0.485
-0.47
-0.45
-0.45
-0.425
-0.41
-0.4
-0.4
-0.4
-0.395
-0.39
-0.395
-0.385
-0.4
-0.39
-0.395
-0.365
-0.36
-0.36
-0.35
-0.35
-0.355
-0.37
-0.365
-0.39
-0.39
-0.38
-0.375
-0.37
-0.35
-0.35
-0.36
-0.355
-0.35
-0.345
-0.345
-0.335
-0.315
-0.315
-0.285
-0.265
-0.26
-0.25
-0.265
-0.27
-0.275
-0.29
-0.31
-0.315
-0.335
-0.35
-0.35
-0.36
-0.37
-0.375
-0.385
-0.4
-0.425
-0.455
-0.465
-0.475
-0.5
-0.505
-0.51
-0.515
-0.51
-0.52
-0.53
-0.54
-0.55
-0.565
-0.57
-0.565
-0.565
-0.56
-0.545
-0.54
-0.54
-0.555
-0.54
-0.545
-0.54
-0.54
-0.53
-0.535
-0.535
-0.52
-0.515
-0.51
-0.49
-0.495
-0.48
-0.475
-0.49
-0.485
-0.49
-0.505
-0.48
-0.485
-0.48
-0.46
-0.46
-0.455
-0.455
-0.465
-0.47
-0.46
-0.475
-0.465
-0.475
-0.475
-0.47
-0.465
-0.465
-0.475
-0.465
-0.475
-0.485
-0.475
-0.485
-0.505
-0.5
-0.505
-0.51
-0.51
-0.495
-0.49
-0.495
-0.49
-0.51
-0.525
-0.525
-0.52
-0.53
-0.53
-0.54
-0.535
-0.515
-0.525
-0.535
-0.54
-0.56
-0.565
-0.565
-0.585
-0.575
-0.59
-0.57
-0.57
-0.58
-0.57
-0.575
-0.57
-0.575
-0.585
-0.59
-0.595
-0.59
-0.6
-0.585
-0.59
-0.585
-0.58
-0.575
-0.575
-0.585
-0.595
-0.6
-0.6
-0.615
-0.61
-0.6
-0.595
-0.595
-0.59
-0.59
-0.59
-0.595
-0.605
-0.61
-0.61
-0.615
-0.605
-0.6
-0.605
-0.605
-0.59
-0.6
-0.6
-0.615
-0.615
-0.62
-0.64
-0.64
-0.625
-0.63
-0.615
-0.615
-0.61
-0.595
-0.605
-0.6
-0.61
-0.62
-0.625
-0.62
-0.6
-0.605
-0.595
-0.59
-0.595
-0.595
-0.6
-0.6
-0.61
-0.615
-0.61
-0.61
-0.605
-0.595
-0.595
-0.585
-0.575
-0.585
-0.585
-0.595
-0.595
-0.605
-0.605
-0.6
-0.595
-0.585
-0.575
-0.57
-0.575
-0.575
-0.585
-0.585
-0.595
-0.59
-0.59
-0.575
-0.56
-0.53
-0.51
-0.49
-0.475
-0.48
-0.47
-0.49
-0.515
-0.535
-0.555
-0.57
-0.56
-0.545
-0.535
-0.54
-0.53
-0.53
-0.53
-0.54
-0.565
-0.575
-0.59
-0.585
-0.585
-0.58
-0.575
-0.545
-0.53
-0.51
-0.5
-0.47
-0.435
-0.38
-0.285
-0.1
0.14
0.46
0.825
1.185
1.46
1.6
1.58
1.34
0.89
0.255
-0.385
-1.025
-1.505
-1.565
-1.395
-1.12
-0.89
-0.73
-0.675
-0.68
-0.695
-0.72
-0.705
-0.69
-0.66
-0.64
-0.635
-0.625
-0.645
-0.655
-0.65
-0.67
-0.67
-0.665
-0.67
-0.66
-0.64
-0.635
-0.63
-0.62
-0.605
-0.605
-0.605
-0.615
-0.61
-0.605
-0.605
-0.61
-0.585
-0.57
-0.565
-0.555
-0.545
-0.55
-0.545
-0.55
-0.545
-0.54
-0.55
-0.55
-0.535
-0.53
-0.505
-0.5
-0.48
-0.48
-0.48
-0.48
-0.475
-0.48
-0.48
-0.47
-0.475
-0.465
-0.45
-0.455
-0.435
-0.435
-0.41
-0.41
-0.41
-0.42
-0.415
-0.41
-0.39
-0.385
-0.365
-0.37
-0.365
-0.365
-0.375
-0.375
-0.375
-0.38
-0.385
-0.385
-0.385
-0.36
-0.355
-0.36
-0.35
-0.355
-0.36
-0.355
-0.365
-0.355
-0.37
-0.36
-0.345
-0.32
-0.305
-0.275
-0.265
-0.255
-0.255
-0.255
-0.265
-0.28
-0.295
-0.3
-0.31
-0.325
-0.34
-0.355
-0.36
-0.38
-0.4
-0.425
-0.435
-0.45
-0.47
-0.485
-0.485
-0.495
-0.505
-0.505
-0.5
-0.51
-0.53
-0.535
-0.56
-0.55
-0.56
-0.55
-0.565
-0.555
-0.54
-0.545
-0.525
-0.53
-0.525
-0.53
-0.53
-0.53
-0.53
-0.53
-0.525
-0.52
-0.515
-0.49
-0.485
-0.48
-0.475
-0.475
-0.47
-0.475
-0.46
-0.46
-0.445
-0.45
-0.45
-0.42
-0.42
-0.42
-0.425
-0.435
-0.44
-0.45
-0.455
-0.435
-0.44
-0.43
-0.435
-0.43
-0.43
-0.435
-0.44
-0.45
-0.45
-0.465
-0.465
-0.47
-0.47
-0.48
-0.47
-0.485
-0.48
-0.48
-0.48
-0.495
-0.5
-0.52
-0.52
-0.51
-0.515
-0.515
-0.515
-0.515
-0.51
-0.52
-0.525
-0.535
-0.54
-0.555
-0.555
-0.565
-0.555
-0.555
-0.555
-0.535
-0.54
-0.545
-0.55
-0.565
-0.58
-0.58
-0.575
-0.58
-0.575
-0.585
-0.58
-0.565
-0.565
-0.565
-0.56
-0.58
-0.585
-0.59
-0.595
-0.585
-0.59
-0.595
-0.585
-0.58
-0.59
-0.58
-0.59
-0.595
-0.59
-0.61
-0.61
-0.605
-0.595
-0.59
-0.585
-0.585
-0.59
-0.585
-0.585
-0.585
-0.59
-0.605
-0.615
-0.61
-0.6
-0.61
-0.605
-0.6
-0.595
-0.59
-0.595
-0.605
-0.61
-0.615
-0.605
-0.62
