Lead II
-0.49
-0.495
-0.49
-0.48
-0.47
-0.49
-0.485
-0.49
-0.495
-0.475
-0.465
-0.48
-0.485
-0.485
-0.485
-0.46
-0.46
-0.445
-0.435
-0.435
-0.42
-0.41
-0.405
-0.405
-0.405
-0.395
-0.4
-0.39
-0.385
-0.385
-0.395
-0.385
-0.375
-0.38
-0.385
-0.415
-0.425
-0.44
-0.45
-0.45
-0.425
-0.415
-0.42
-0.43
-0.43
-0.46
-0.465
-0.48
-0.5
-0.515
-0.52
-0.525
-0.525
-0.53
-0.55
-0.57
-0.56
-0.57
-0.56
-0.56
-0.565
-0.58
-0.575
-0.56
-0.56
-0.56
-0.575
-0.59
-0.57
-0.57
-0.555
-0.555
-0.575
-0.57
-0.575
-0.565
-0.57
-0.59
-0.665
-0.725
-0.765
-0.725
-0.66
-0.555
-0.425
-0.165
0.215
0.62
0.985
1.31
1.56
1.67
1.65
1.46
1.03
0.44
-0.105
-0.505
-0.695
-0.74
-0.715
-0.645
-0.56
-0.51
-0.48
-0.515
-0.535
-0.555
-0.555
-0.575
-0.595
-0.585
-0.595
-0.61
-0.61
-0.63
-0.635
-0.635
-0.62
-0.62
-0.635
-0.65
-0.64
-0.645
-0.625
-0.625
-0.63
-0.65
-0.65
-0.625
-0.63
-0.63
-0.635
-0.65
-0.65
-0.625
-0.625
-0.615
-0.62
-0.64
-0.63
-0.615
-0.605
-0.6
-0.605
-0.62
-0.615
-0.61
-0.59
-0.59
-0.59
-0.59
-0.595
-0.575
-0.56
-0.55
-0.555
-0.565
-0.54
-0.525
-0.515
-0.495
-0.49
-0.485
-0.465
-0.445
-0.4
-0.385
-0.385
-0.375
-0.365
-0.345
-0.31
-0.29
-0.29
-0.29
-0.255
-0.235
-0.205
-0.21
-0.19
-0.2
-0.185
-0.16
-0.14
-0.11
-0.125
-0.135
-0.11
-0.105
-0.085
-0.09
-0.1
-0.11
-0.11
-0.115
-0.12
-0.12
-0.15
-0.175
-0.195
-0.21
-0.225
-0.245
-0.28
-0.305
-0.33
-0.345
-0.36
-0.38
-0.405
-0.425
-0.445
-0.45
-0.45
-0.46
-0.465
-0.485
-0.505
-0.49
-0.48
-0.495
-0.5
-0.515
-0.52
-0.5
-0.49
-0.51
-0.495
-0.515
-0.5
-0.495
-0.5
-0.51
-0.515
-0.52
-0.505
-0.495
-0.495
-0.495
-0.49
-0.495
-0.49
-0.475
-0.465
-0.47
-0.47
-0.48
-0.47
-0.46
-0.455
-0.47
-0.475
-0.475
-0.48
-0.455
-0.47
-0.465
-0.455
-0.48
-0.475
-0.47
-0.455
-0.465
-0.48
-0.47
-0.485
-0.47
-0.465
-0.465
-0.485
-0.495
-0.49
-0.48
-0.475
-0.495
-0.505
-0.51
-0.505
-0.51
-0.515
-0.51
-0.53
-0.535
-0.53
-0.53
-0.525
-0.535
-0.54
-0.55
-0.56
-0.555
-0.55
-0.55
-0.55
-0.56
-0.565
-0.555
-0.55
-0.56
-0.575
-0.575
-0.59
-0.575
-0.565
-0.565
-0.57
-0.59
-0.6
-0.585
-0.58
-0.57
-0.575
-0.59
-0.585
-0.575
-0.555
-0.555
-0.57
-0.57
-0.545
-0.525
-0.495
-0.495
-0.5
-0.5
-0.5
-0.49
-0.47
-0.455
-0.465
-0.485
-0.475
-0.46
-0.465
-0.46
-0.455
-0.48
-0.5
-0.505
-0.515
-0.535
-0.515
-0.525
-0.5
-0.495
-0.51
-0.535
-0.56
-0.575
-0.575
-0.57
-0.585
-0.595
-0.615
-0.625
-0.625
-0.63
-0.64
-0.64
-0.63
-0.655
-0.645
-0.64
-0.64
-0.65
-0.65
-0.655
-0.645
-0.63
-0.635
-0.63
-0.64
-0.645
-0.645
-0.635
-0.625
-0.64
-0.655
-0.69
-0.755
-0.825
-0.84
-0.805
-0.74
-0.655
-0.47
-0.16
0.24
0.64
1.03
1.365
1.63
1.74
1.695
1.415
0.875
0.24
-0.31
-0.655
-0.77
-0.775
-0.745
-0.7
-0.6
-0.53
-0.525
-0.565
-0.595
-0.61
-0.63
-0.62
-0.62
-0.635
-0.65
-0.675
-0.68
-0.675
-0.67
-0.67
-0.675
-0.69
-0.705
-0.7
-0.68
-0.675
-0.685
-0.705
-0.695
-0.695
-0.695
-0.68
-0.69
-0.7
-0.695
-0.675
-0.67
-0.675
-0.675
-0.675
-0.68
-0.675
-0.66
-0.665
-0.66
-0.665
-0.67
-0.66
-0.645
-0.64
-0.635
-0.64
-0.635
-0.61
-0.605
-0.605
-0.595
-0.595
-0.6
-0.565
-0.525
-0.525
-0.515
-0.515
-0.5
-0.46
-0.445
-0.425
-0.41
-0.41
-0.39
-0.35
-0.33
-0.3
-0.305
-0.305
-0.275
-0.255
-0.24
-0.22
-0.225
-0.23
-0.205
-0.18
-0.165
-0.165
-0.16
-0.155
-0.14
-0.13
-0.125
-0.125
-0.135
-0.15
-0.15
-0.155
-0.16
-0.185
-0.215
-0.235
-0.255
-0.27
-0.285
-0.31
-0.34
-0.37
-0.395
-0.395
-0.42
-0.435
-0.455
-0.475
-0.48
-0.48
-0.485
-0.485
-0.505
-0.53
-0.53
-0.515
-0.51
-0.53
-0.53
-0.54
-0.525
-0.53
-0.515
-0.53
-0.525
-0.525
-0.525
-0.51
-0.5
-0.495
-0.52
-0.52
-0.515
-0.515
-0.5
-0.495
-0.51
-0.51
-0.495
-0.485
-0.475
-0.485
-0.48
-0.49
-0.49
-0.485
-0.475
-0.485
-0.48
-0.495
-0.485
-0.475
-0.48
-0.48
-0.49
-0.49
-0.48
-0.475
-0.485
-0.485
-0.49
-0.49
-0.49
-0.485
-0.495
-0.495
-0.505
-0.51
-0.515
-0.5
-0.5
-0.495
-0.52
-0.535
-0.53
-0.53
-0.515
-0.51
-0.535
-0.55
-0.555
-0.53
-0.535
-0.53
-0.55
-0.565
-0.55
-0.55
-0.545
-0.54
-0.545
-0.57
-0.565
-0.56
-0.55
-0.555
-0.575
-0.58
-0.565
-0.55
-0.56
-0.56
-0.57
-0.585
-0.58
-0.565
-0.56
-0.555
-0.565
-0.58
-0.565
-0.55
-0.545
-0.545
-0.555
-0.555
-0.545
-0.52
-0.505
-0.485
-0.49
-0.5
-0.49
-0.475
-0.465
-0.46
-0.46
-0.465
-0.47
-0.465
-0.455
-0.445
-0.465
-0.46
-0.48
-0.48
-0.495
-0.51
-0.52
-0.505
-0.49
-0.48
-0.475
-0.495
-0.515
-0.55
-0.55
-0.545
-0.55
-0.555
-0.57
-0.585
-0.595
-0.605
-0.595
-0.605
-0.61
-0.62
-0.615
-0.615
-0.615
-0.6
-0.615
-0.62
-0.625
-0.62
-0.615
-0.605
-0.61
-0.615
-0.615
-0.605
-0.595
-0.595
-0.605
-0.63
-0.66
-0.69
-0.745
-0.765
-0.745
-0.695
-0.615
-0.45
-0.18
0.19
0.585
0.94
1.28
1.55
1.69
1.64
1.335
0.775
0.135
-0.36
-0.63
-0.72
-0.735
-0.71
-0.625
-0.535
-0.495
-0.515
-0.545
-0.59
-0.58
-0.56
-0.56
-0.57
-0.59
-0.62
-0.62
-0.62
-0.61
-0.61
-0.63
-0.64
-0.64
-0.63
-0.62
-0.62
-0.635
-0.635
-0.635
-0.635
-0.615
-0.61
-0.635
-0.63
-0.635
-0.625
-0.61
-0.62
-0.61
-0.625
-0.615
-0.605
-0.6
-0.59
-0.6
-0.62
-0.615
-0.585
-0.57
-0.58
-0.58
-0.585
-0.565
-0.55
-0.535
-0.55
-0.55
-0.555
-0.525
-0.51
-0.51
-0.495
-0.49
-0.485
-0.46
-0.445
-0.425
-0.405
-0.405
-0.405
-0.38
-0.35
-0.325
-0.31
-0.31
-0.305
-0.265
-0.24
-0.225
-0.22
-0.215
-0.22
-0.2
-0.185
-0.165
-0.145
-0.14
-0.145
-0.13
-0.105
-0.095
-0.09
-0.09
-0.095
-0.09
-0.09
-0.085
-0.095
-0.12
-0.135
-0.155
-0.145
-0.16
-0.17
-0.215
-0.235
-0.24
-0.245
-0.265
-0.29
-0.325
-0.34
-0.345
-0.37
-0.375
-0.385
-0.405
-0.415
-0.41
-0.41
-0.39
-0.4
-0.42
-0.43
-0.425
-0.425
-0.425
-0.41
-0.43
-0.435
-0.43
-0.42
-0.41
-0.415
-0.42
-0.425
-0.42
-0.41
-0.405
-0.41
-0.415
-0.42
-0.415
-0.4
-0.39
-0.395
-0.395
-0.415
-0.4
-0.39
-0.385
-0.38
-0.39
-0.4
-0.39
-0.375
-0.365
-0.37
-0.37
-0.39
-0.385
-0.375
-0.37
-0.37
-0.37
-0.39
-0.385
-0.38
-0.38
-0.385
-0.39
-0.4
-0.4
-0.39
-0.38
-0.375
-0.385
-0.41
-0.405
-0.41
-0.41
-0.405
-0.415
-0.425
-0.425
-0.415
-0.415
-0.425
-0.425
-0.445
-0.44
-0.43
-0.42
-0.435
-0.45
-0.455
-0.45
-0.45
-0.46
-0.455
-0.46
-0.485
-0.48
-0.465
-0.455
-0.465
-0.47
-0.485
-0.475
-0.48
-0.47
-0.47
-0.48
-0.485
-0.485
-0.47
-0.455
-0.47
-0.475
-0.49
-0.49
-0.475
-0.475
-0.465
-0.48
-0.49
-0.485
-0.475
-0.46
-0.455
-0.47
-0.465
-0.45
-0.435
-0.42
-0.405
-0.395
-0.41
-0.405
-0.4
-0.38
-0.38
-0.36
-0.38
-0.375
-0.385
-0.37
-0.365
-0.375
-0.375
-0.375
-0.375
-0.38
-0.395
-0.405
-0.44
-0.435
-0.425
-0.405
-0.395
-0.4
-0.405
-0.42
-0.415
-0.435
-0.45
-0.455
-0.475
-0.475
-0.48
-0.485
-0.495
-0.515
-0.53
-0.515
-0.515
-0.515
-0.52
-0.525
-0.535
-0.53
-0.52
-0.505
-0.515
-0.53
-0.54
-0.54
-0.52
-0.515
-0.525
-0.525
-0.535
-0.525
-0.525
-0.52
-0.515
-0.54
-0.55
-0.55
-0.57
-0.62
-0.675
-0.695
-0.675
-0.615
-0.535
-0.415
-0.19
0.09
0.435
0.775
1.12
1.4
1.6
1.7
1.66
1.45
1.02
0.49
-0.02
-0.42
-0.63
-0.69
-0.685
-0.64
-0.57
-0.485
-0.445
-0.44
-0.465
-0.5
-0.5
-0.515
-0.515
-0.52
-0.52
-0.53
-0.545
-0.55
-0.565
-0.565
-0.56
-0.555
-0.575
-0.57
-0.58
-0.57
-0.57
-0.57
-0.59
-0.575
-0.575
-0.575
-0.565
-0.575
-0.57
-0.58
-0.58
-0.58
-0.575
-0.565
-0.565
-0.57
-0.575
-0.565
-0.565
-0.555
-0.555
-0.56
-0.565
-0.57
-0.55
-0.54
-0.54
-0.55
-0.55
-0.545
-0.52
-0.52
-0.515
-0.52
-0.53
-0.52
-0.5
-0.47
-0.47
-0.47
-0.47
-0.46
-0.435
-0.42
-0.41
-0.405
-0.405
-0.375
-0.345
-0.33
-0.32
-0.315
-0.305
-0.28
-0.255
-0.24
-0.22
-0.21
-0.21
-0.195
-0.17
-0.145
-0.13
-0.13
-0.135
-0.105
-0.09
-0.07
-0.07
-0.065
-0.07
-0.04
-0.045
-0.035
-0.025
-0.035
-0.035
-0.045
-0.04
-0.045
-0.06
-0.07
-0.095
-0.1
-0.115
-0.125
-0.15
-0.18
-0.21
-0.22
-0.235
-0.26
-0.28
-0.295
-0.325
-0.335
-0.345
-0.35
-0.36
-0.38
-0.39
-0.395
-0.385
-0.39
-0.405
-0.415
-0.415
-0.415
-0.42
-0.405
-0.425
-0.41
-0.43
-0.415
-0.405
-0.405
-0.405
-0.4
-0.41
-0.405
-0.4
-0.4
-0.395
-0.4
-0.39
-0.4
-0.395
-0.395
-0.395
-0.39
-0.4
-0.385
-0.38
-0.375
-0.375
-0.385
-0.38
-0.385
-0.39
-0.375
-0.36
-0.37
-0.39
-0.37
-0.375
-0.365
-0.375
-0.37
-0.38
-0.37
-0.385
-0.38
-0.375
-0.385
-0.385
-0.395
-0.385
-0.39
-0.385
-0.395
-0.4
-0.4
-0.4
-0.395
-0.395
-0.41
-0.44
-0.425
-0.425
-0.415
-0.425
-0.435
-0.44
-0.435
-0.435
-0.44
-0.45
-0.45
-0.46
-0.46
-0.46
-0.455
-0.45
-0.455
-0.46
-0.46
-0.47
-0.46
-0.46
-0.46
-0.48
-0.47
-0.475
-0.465
-0.46
-0.475
-0.48
-0.48
-0.475
-0.47
-0.465
-0.485
-0.49
-0.475
-0.47
-0.47
-0.465
-0.48
-0.475
-0.465
-0.465
-0.455
-0.45
-0.45
-0.435
-0.42
-0.4
-0.395
-0.395
-0.4
-0.405
-0.385
-0.38
-0.36
-0.355
-0.365
-0.37
-0.355
-0.36
-0.365
-0.36
-0.355
-0.365
-0.37
-0.365
-0.385
-0.405
-0.425
-0.43
-0.425
-0.4
-0.38
-0.38
-0.39
-0.415
-0.42
-0.425
-0.435
-0.455
-0.475
-0.475
-0.49
-0.49
-0.48
-0.495
-0.52
-0.525
-0.52
-0.52
-0.525
-0.53
-0.535
-0.535
-0.535
-0.52
-0.52
-0.53
-0.535
-0.54
-0.54
-0.52
-0.52
-0.53
-0.54
-0.545
-0.535
-0.525
-0.525
-0.52
-0.535
-0.545
-0.57
-0.615
-0.68
-0.715
-0.7
-0.65
-0.575
-0.46
-0.265
0.04
0.405
0.745
1.085
1.405
1.67
1.825
1.845
1.72
1.39
0.875
0.295
-0.22
-0.53
-0.65
-0.65
-0.64
-0.585
-0.49
-0.44
-0.44
-0.465
-0.475
-0.485
-0.5
-0.51
-0.52
-0.525
-0.53
-0.545
-0.545
-0.565
-0.57
-0.57
-0.57
-0.565
-0.57
-0.57
-0.59
-0.575
-0.57
-0.57
-0.57
-0.575
-0.59
-0.58
-0.565
-0.56
-0.57
-0.57
-0.57
-0.555
-0.555
-0.56
-0.565
-0.565
-0.56
-0.555
-0.54
-0.545
-0.545
-0.54
-0.54
-0.525
-0.52
-0.52
-0.52
-0.52
-0.515
-0.51
-0.495
-0.485
-0.47
-0.475
-0.47
-0.46
-0.44
-0.44
-0.435
-0.425
-0.415
-0.39
-0.375
-0.35
-0.335
-0.335
-0.325
-0.29
-0.265
-0.245
-0.235
-0.225
-0.205
-0.195
-0.17
-0.155
-0.14
-0.145
-0.13
-0.11
-0.09
-0.075
-0.07
-0.06
-0.075
-0.045
-0.03
-0.025
-0.025
-0.04
-0.035
-0.04
-0.025
-0.035
-0.05
-0.075
-0.1
-0.11
-0.12
-0.15
-0.175
-0.19
-0.22
-0.23
-0.255
-0.27
-0.295
-0.32
-0.34
-0.345
-0.36
-0.35
-0.37
-0.39
-0.4
-0.395
-0.4
-0.405
-0.415
-0.425
-0.43
-0.42
-0.415
-0.415
-0.415
-0.425
-0.425
-0.41
-0.405
-0.405
-0.41
-0.42
-0.42
-0.42
-0.41
-0.415
-0.41
-0.4
-0.41
-0.405
-0.395
-0.39
-0.4
-0.41
-0.4
-0.385
-0.385
-0.37
-0.375
-0.38
-0.375
-0.38
-0.375
-0.375
-0.375
-0.38
-0.395
-0.375
-0.38
-0.37
-0.385
-0.39
-0.39
-0.39
-0.375
-0.39
-0.39
-0.395
-0.405
-0.39
-0.395
-0.4
-0.41
-0.42
-0.425
-0.425
-0.415
-0.415
-0.42
-0.43
-0.445
-0.435
-0.435
-0.43
-0.44
-0.455
-0.47
-0.455
-0.455
-0.45
-0.46
-0.475
-0.485
-0.475
-0.465
-0.47
-0.47
-0.485
-0.49
-0.495
-0.49
-0.485
-0.48
-0.49
-0.495
-0.48
-0.48
-0.47
-0.485
-0.49
-0.5
-0.495
-0.48
-0.475
-0.485
-0.495
-0.495
-0.495
-0.47
-0.465
-0.48
-0.49
-0.49
-0.485
-0.465
-0.465
-0.46
-0.455
-0.455
-0.44
-0.42
-0.41
-0.395
-0.395
-0.405
-0.39
-0.39
-0.37
-0.365
-0.375
-0.39
-0.39
-0.37
-0.35
-0.35
-0.37
-0.375
-0.375
-0.39
-0.395
-0.405
-0.42
-0.42
-0.395
-0.385
-0.38
-0.405
-0.43
-0.445
-0.445
-0.44
-0.445
-0.46
-0.485
-0.495
-0.48
-0.475
-0.485
-0.5
-0.51
-0.52
-0.51
-0.49
-0.505
-0.495
-0.53
-0.52
-0.51
-0.5
-0.495
-0.495
-0.505
-0.51
-0.51
-0.485
-0.5
-0.495
-0.5
-0.51
-0.505
-0.495
-0.485
-0.495
-0.525
-0.585
-0.64
-0.655
-0.635
-0.59
-0.53
-0.44
-0.235
0.085
0.48
0.855
1.2
1.52
1.725
1.79
1.69
1.335
0.78
0.18
-0.26
-0.51
-0.575
-0.6
-0.58
-0.51
-0.42
-0.385
-0.39
-0.435
-0.45
-0.47
-0.46
-0.455
-0.445
-0.465
-0.49
-0.505
-0.51
-0.5
-0.5
-0.48
-0.495
-0.5
-0.51
-0.5
-0.505
-0.505
-0.52
-0.53
-0.515
-0.505
-0.5
-0.5
-0.51
-0.52
-0.515
-0.515
-0.5
-0.485
-0.495
-0.495
-0.495
-0.48
-0.475
-0.485
-0.48
-0.49
-0.485
-0.465
-0.465
-0.46
-0.455
-0.455
-0.44
-0.42
-0.415
-0.43
-0.435
-0.425
-0.4
-0.385
-0.38
-0.36
-0.355
-0.36
-0.33
-0.31
-0.29
-0.285
-0.275
-0.27
-0.24
-0.215
-0.195
-0.175
-0.16
-0.15
-0.12
-0.095
-0.085
-0.075
-0.065
-0.06
-0.04
-0.02
-0.005
-0.005
-0.005
-0.005
0.025
0.03
0.05
0.04
0.035
0.03
0.03
0.035
0.025
0.025
-0.005
-0.02
-0.02
-0.035
-0.06
-0.085
-0.12
-0.135
-0.145
-0.16
-0.175
-0.205
-0.23
-0.245
-0.235
-0.235
-0.245
-0.255
-0.26
-0.27
-0.28
-0.27
-0.28
-0.275
-0.295
-0.305
-0.285
-0.275
-0.28
-0.29
-0.27
-0.29
-0.285
-0.265
-0.265
-0.285
-0.275
-0.285
-0.275
-0.27
-0.265
-0.265
-0.27
-0.275
-0.275
-0.255
-0.26
-0.25
-0.255
-0.25
-0.25
-0.225
-0.235
-0.235
-0.245
-0.25
-0.24
-0.235
-0.245
-0.245
-0.24
-0.24
-0.24
-0.23
-0.225
-0.23
-0.235
-0.255
-0.245
-0.23
-0.235
-0.235
-0.25
-0.265
-0.26
-0.25
-0.245
-0.255
-0.255
-0.26
-0.26
-0.255
-0.26
-0.27
-0.285
-0.295
-0.285
-0.285
-0.275
-0.285
-0.29
-0.295
-0.29
-0.285
-0.29
-0.305
-0.305
-0.32
-0.32
-0.315
-0.315
-0.32
-0.33
-0.35
-0.335
-0.325
-0.32
-0.325
-0.33
-0.34
-0.33
-0.32
-0.32
-0.325
-0.335
-0.335
-0.35
-0.34
-0.345
-0.33
-0.34
-0.35
-0.345
-0.34
-0.33
-0.34
-0.345
-0.34
-0.335
-0.315
-0.315
-0.3
-0.3
-0.29
-0.265
-0.265
-0.25
-0.25
-0.27
-0.275
-0.245
-0.225
-0.24
-0.24
-0.24
-0.24
-0.24
-0.23
-0.24
-0.265
-0.265
-0.285
-0.29
-0.275
-0.285
-0.285
-0.285
-0.29
-0.275
-0.28
-0.29
-0.295
-0.31
-0.33
-0.34
-0.34
-0.355
-0.36
-0.375
-0.385
-0.38
-0.385
-0.39
-0.385
-0.395
-0.4
-0.395
-0.385
-0.385
-0.38
-0.4
-0.4
-0.395
-0.385
-0.39
-0.39
-0.395
-0.4
-0.395
-0.385
-0.38
-0.38
-0.395
-0.42
-0.455
-0.5
-0.555
-0.55
-0.495
-0.435
-0.335
-0.135
0.16
0.525
0.845
1.15
1.44
1.65
1.74
1.66
1.37
0.88
0.35
-0.085
-0.375
-0.505
-0.55
-0.53
-0.425
-0.325
-0.29
-0.315
-0.355
-0.375
-0.37
-0.37
-0.37
-0.385
-0.4
-0.42
-0.425
-0.425
-0.415
-0.43
-0.435
-0.45
-0.45
-0.44
-0.42
-0.44
-0.445
-0.44
-0.45
-0.455
-0.43
-0.43
-0.435
-0.445
-0.44
-0.435
-0.42
-0.43
-0.44
-0.445
-0.44
-0.425
-0.42
-0.42
-0.425
-0.425
-0.42
-0.405
-0.405
-0.395
-0.395
-0.395
-0.385
-0.375
-0.365
-0.35
-0.345
-0.34
-0.315
-0.315
-0.285
-0.28
-0.27
-0.26
-0.245
-0.21
-0.195
-0.19
-0.175
-0.15
-0.14
-0.115
-0.095
-0.085
-0.08
-0.07
-0.04
-0.03
-0.005
-0.005
0.005
-0.005
0.02
0.03
0.05
0.035
0.04
0.03
0.045
0.045
0.04
0.035
0.015
0.005
-0.005
-0.015
-0.03
-0.05
-0.085
-0.115
-0.135
-0.14
-0.155
-0.175
-0.205
-0.23
-0.235
-0.235
-0.24
-0.26
-0.265
-0.28
-0.27
-0.275
-0.27
-0.275
-0.3
-0.31
-0.3
-0.28
-0.285
-0.295
-0.295
-0.305
-0.29
-0.28
-0.29
-0.295
-0.3
-0.305
-0.295
-0.27
-0.28
-0.28
-0.275
-0.285
-0.27
-0.275
-0.265
-0.265
-0.28
-0.275
-0.265
-0.26
-0.26
-0.28
-0.27
-0.285
-0.265
-0.25
-0.265
-0.27
-0.28
-0.275
-0.275
-0.265
-0.27
-0.265
-0.275
-0.28
-0.27
-0.265
-0.27
-0.285
-0.285
-0.29
-0.29
-0.29
-0.29
-0.3
-0.305
-0.315
-0.31
-0.305
-0.305
-0.32
-0.32
-0.33
-0.325
-0.32
-0.32
-0.34
-0.34
-0.35
-0.35
-0.345
-0.34
-0.36
-0.37
-0.37
-0.365
-0.37
-0.365
-0.375
-0.38
-0.385
-0.38
-0.38
-0.37
-0.385
-0.39
-0.395
-0.38
-0.38
-0.38
-0.395
-0.395
-0.405
-0.4
-0.385
-0.395
-0.395
-0.4
-0.395
-0.395
-0.38
-0.375
-0.385
-0.39
-0.375
-0.36
-0.335
-0.31
-0.32
-0.325
-0.335
-0.32
-0.315
-0.31
-0.295
-0.295
-0.29
-0.315
-0.3
-0.3
-0.305
-0.3
-0.305
-0.305
-0.31
-0.315
-0.33
-0.36
-0.375
-0.35
-0.34
-0.325
-0.33
-0.355
-0.375
-0.39
-0.39
-0.395
-0.415
-0.425
-0.44
-0.445
-0.44
-0.45
-0.455
-0.48
-0.485
-0.485
-0.475
-0.48
-0.49
-0.495
-0.515
-0.51
-0.485
-0.48
-0.5
-0.5
-0.515
-0.49
-0.49
-0.485
-0.495
-0.505
-0.51
-0.495
-0.495
-0.515
-0.545
-0.6
-0.675
-0.71
-0.665
-0.59
-0.49
-0.315
0.005
0.44
0.86
1.235
1.56
1.755
1.785
1.62
1.19
0.56
-0.045
-0.465
-0.645
-0.645
-0.62
-0.525
-0.445
-0.4
-0.425
-0.455
-0.46
-0.475
-0.49
-0.5
-0.52
-0.52
-0.53
-0.545
-0.555
-0.56
-0.575
-0.57
-0.56
-0.57
-0.57
-0.575
-0.575
-0.575
-0.57
-0.565
-0.575
-0.585
-0.59
-0.585
-0.565
-0.57
-0.565
-0.57
-0.58
-0.575
-0.575
-0.56
-0.56
-0.56
-0.575
-0.565
-0.545
-0.545
-0.54
-0.55
-0.55
-0.535
-0.52
-0.505
-0.51
-0.505
-0.505
-0.485
-0.47
-0.46
-0.445
-0.455
-0.45
-0.425
-0.39
-0.385
-0.37
-0.365
-0.36
-0.34
-0.31
-0.295
-0.27
-0.27
-0.24
-0.22
-0.2
-0.19
-0.175
-0.17
-0.16
-0.14
-0.115
-0.105
-0.1
-0.095
-0.095
-0.07
-0.07
-0.055
-0.055
-0.06
-0.075
-0.065
-0.06
-0.07
-0.1
-0.12
-0.14
-0.155
-0.16
-0.185
-0.21
-0.235
-0.28
-0.28
-0.3
-0.315
-0.34
-0.365
-0.385
-0.39
-0.4
-0.41
-0.43
-0.44
-0.45
-0.45
-0.445
-0.46
-0.47
-0.47
-0.47
-0.465
-0.455
-0.47
-0.465
-0.47
-0.47
-0.47
-0.455
-0.46
-0.46
-0.47
-0.47
-0.47
-0.45
-0.46
-0.455
-0.455
-0.46
-0.45
-0.445
-0.445
-0.445
-0.445
-0.455
-0.44
-0.435
-0.435
-0.435
-0.445
-0.445
-0.44
-0.43
-0.435
-0.435
-0.445
-0.455
-0.44
-0.44
-0.445
-0.45
-0.45
-0.46
-0.45
-0.455
-0.46
-0.46
-0.47
-0.485
-0.475
-0.46
-0.47
-0.475
-0.485
-0.485
-0.495
-0.5
-0.495
-0.49
-0.505
-0.51
-0.51
-0.5
-0.505
-0.515
-0.525
-0.53
-0.535
-0.53
-0.525
-0.525
-0.535
-0.545
-0.545
-0.535
-0.545
-0.55
-0.56
-0.555
-0.555
-0.555
-0.555
-0.56
-0.55
-0.565
-0.555
-0.55
-0.555
-0.565
-0.575
-0.57
-0.56
-0.555
-0.56
-0.575
-0.575
-0.595
-0.585
-0.58
-0.555
-0.555
-0.56
-0.575
-0.565
-0.545
-0.525
-0.515
-0.505
-0.505
-0.505
-0.49
-0.475
-0.47
-0.475
-0.475
-0.465
-0.465
-0.47
-0.465
-0.465
-0.465
-0.465
-0.465
-0.465
-0.485
-0.49
-0.515
-0.52
-0.495
-0.49
-0.49
-0.5
-0.495
-0.505
-0.515
-0.53
-0.56
-0.58
-0.6
-0.595
-0.59
-0.585
-0.59
-0.61
-0.625
-0.63
-0.635
-0.63
-0.63
-0.64
-0.64
-0.63
-0.625
-0.62
-0.635
-0.64
-0.65
-0.63
-0.63
-0.625
-0.64
-0.635
-0.64
-0.625
-0.635
-0.67
-0.745
-0.81
-0.85
-0.805
-0.725
-0.635
-0.455
-0.15
0.24
0.66
1.025
1.375
1.61
1.685
1.55
1.155
0.535
-0.095
-0.57
-0.775
-0.785
-0.77
-0.685
-0.605
-0.55
-0.57
-0.595
-0.615
-0.625
-0.63
-0.625
-0.635
-0.665
-0.66
-0.67
-0.665
-0.685
-0.69
-0.7
-0.69
-0.69
-0.665
-0.67
-0.69
-0.7
-0.69
-0.685
-0.695
-0.695
-0.7
-0.715
-0.7
-0.695
-0.67
-0.67
-0.68
-0.685
-0.675
-0.665
-0.655
-0.66
-0.675
-0.665
-0.65
-0.65
-0.66
-0.645
-0.65
-0.64
-0.62
-0.605
-0.6
-0.6
-0.595
-0.585
-0.57
-0.545
-0.535
-0.535
-0.525
-0.51
-0.485
-0.47
-0.445
-0.435
-0.42
-0.41
-0.38
-0.355
-0.345
-0.325
-0.315
-0.31
-0.29
-0.27
-0.25
-0.245
-0.23
-0.225
-0.205
-0.2
-0.175
-0.185
-0.175
-0.18
-0.165
-0.165
-0.16
-0.17
-0.18
-0.2
-0.205
-0.215
-0.23
-0.25
-0.27
-0.3
-0.32
-0.34
-0.35
-0.38
-0.4
-0.43
-0.43
-0.44
-0.46
-0.47
-0.49
-0.505
-0.5
-0.5
-0.5
-0.52
-0.52
-0.53
-0.525
-0.51
-0.52
-0.515
-0.52
-0.535
-0.545
-0.525
-0.525
-0.525
-0.53
-0.525
-0.535
-0.515
-0.515
-0.52
-0.53
-0.53
-0.515
-0.495
-0.485
-0.49
-0.505
-0.51
-0.505
-0.495
-0.49
-0.485
-0.495
-0.505
-0.5
-0.485
-0.485
-0.485
-0.49
-0.5
-0.495
-0.485
-0.485
-0.495
-0.5
-0.5
-0.505
-0.495
-0.495
-0.5
-0.51
-0.51
-0.51
-0.5
-0.49
-0.5
-0.505
-0.52
-0.515
-0.505
-0.515
-0.515
-0.52
-0.54
-0.535
-0.53
-0.51
-0.525
-0.545
-0.56
-0.545
-0.535
-0.545
-0.545
-0.56
-0.555
-0.565
-0.56
-0.565
-0.555
-0.58
-0.59
-0.565
-0.565
-0.56
-0.575
-0.57
-0.57
-0.57
-0.565
-0.565
-0.565
-0.585
-0.585
-0.59
-0.565
-0.565
-0.57
-0.585
-0.595
-0.575
-0.575
-0.565
-0.575
-0.59
-0.59
-0.585
-0.57
-0.57
-0.58
-0.575
-0.565
-0.545
-0.52
-0.505
-0.505
-0.495
-0.505
-0.495
-0.49
-0.475
-0.47
-0.465
-0.475
-0.47
-0.465
-0.46
-0.46
-0.475
-0.485
-0.475
-0.48
-0.495
-0.505
-0.52
-0.525
-0.515
-0.485
-0.475
-0.49
-0.51
-0.535
-0.54
-0.535
-0.555
-0.57
-0.585
-0.615
-0.595
-0.59
-0.585
-0.6
-0.62
-0.62
-0.625
-0.61
-0.61
-0.615
-0.615
-0.62
-0.61
-0.605
-0.605
-0.6
-0.615
-0.625
-0.615
-0.61
-0.615
-0.61
-0.615
-0.62
-0.635
-0.66
-0.72
-0.755
-0.74
-0.695
-0.62
-0.495
-0.28
0.045
0.425
0.805
1.17
1.445
1.615
1.62
1.395
0.89
0.305
-0.19
-0.52
-0.685
-0.74
-0.74
-0.66
-0.565
-0.51
-0.515
-0.545
-0.595
-0.6
-0.595
-0.575
-0.58
-0.615
-0.625
-0.625
-0.63
-0.625
-0.63
-0.645
-0.64
-0.65
-0.64
-0.64
-0.645
-0.65
-0.655
-0.645
-0.64
-0.625
-0.64
-0.645
-0.635
-0.635
-0.625
-0.635
-0.635
-0.645
-0.645
-0.625
-0.615
-0.61
-0.625
-0.62
-0.635
-0.615
-0.61
-0.61
-0.605
-0.615
-0.615
-0.595
-0.58
-0.565
-0.56
-0.575
-0.585
-0.575
-0.545
-0.525
-0.52
-0.51
-0.5
-0.485
-0.47
-0.445
-0.44
-0.425
-0.42
-0.395
-0.385
-0.38
-0.355
-0.33
-0.32
-0.295
-0.27
-0.25
-0.235
-0.235
-0.235
-0.21
-0.2
-0.18
-0.17
-0.175
-0.17
-0.15
-0.13
-0.13
-0.13
-0.145
-0.15
-0.14
-0.145
-0.15
-0.17
-0.19
-0.19
-0.21
-0.215
-0.235
-0.255
-0.295
-0.32
-0.32
-0.335
-0.34
-0.37
-0.39
-0.405
-0.41
-0.41
-0.41
-0.425
-0.44
-0.445
-0.45
-0.435
-0.44
-0.45
-0.465
-0.465
-0.455
-0.445
-0.44
-0.445
-0.47
-0.475
-0.465
-0.435
-0.44
-0.44
-0.44
-0.445
-0.435
-0.43
-0.425
-0.425
-0.445
-0.445
-0.43
-0.42
-0.415
-0.425
-0.42
-0.42
-0.405
-0.395
-0.395
-0.405
-0.415
-0.415
-0.395
-0.395
-0.395
-0.4
-0.4
-0.405
-0.395
-0.39
-0.395
-0.405
-0.415
-0.405
-0.395
-0.385
-0.39
-0.395
-0.405
-0.405
-0.405
-0.39
-0.405
-0.405
-0.42
-0.425
-0.42
-0.42
-0.41
-0.425
-0.425
-0.42
-0.42
-0.415
-0.41
-0.43
-0.45
-0.445
-0.43
-0.425
-0.43
-0.445
-0.45
-0.47
-0.46
-0.445
-0.45
-0.47
-0.47
-0.48
-0.465
-0.455
-0.46
-0.455
-0.48
-0.49
-0.47
-0.47
-0.46
-0.47
-0.48
-0.485
-0.48
-0.47
-0.465
-0.46
-0.475
-0.485
-0.475
-0.47
-0.46
-0.46
-0.475
-0.49
-0.475
-0.445
-0.45
-0.425
-0.43
-0.425
-0.4
-0.39
-0.385
-0.39
-0.395
-0.4
-0.38
-0.355
-0.35
-0.365
-0.365
-0.37
-0.365
-0.345
-0.35
-0.36
-0.39
-0.395
-0.4
-0.4
-0.4
-0.415
-0.41
-0.405
-0.39
-0.4
-0.4
-0.415
-0.425
-0.435
-0.445
-0.455
-0.46
-0.48
-0.5
-0.49
-0.49
-0.495
-0.48
-0.505
-0.515
-0.51
-0.505
-0.505
-0.495
-0.495
-0.505
-0.515
-0.51
-0.495
-0.49
-0.49
-0.5
-0.51
-0.51
-0.49
-0.49
-0.495
-0.49
-0.52
-0.5
-0.5
-0.51
-0.545
-0.6
-0.65
-0.65
-0.615
-0.565
-0.49
-0.39
-0.165
0.175
0.55
0.89
1.215
1.505
1.69
1.78
1.705
1.41
0.9
0.32
-0.155
-0.45
-0.585
-0.62
-0.61
-0.59
-0.505
-0.425
-0.39
-0.41
-0.445
-0.48
-0.48
-0.48
-0.465
-0.48
-0.49
-0.515
-0.525
-0.52
-0.515
-0.525
-0.54
-0.545
-0.545
-0.545
-0.53
-0.53
-0.535
-0.545
-0.545
-0.54
-0.525
-0.52
-0.535
-0.55
-0.555
-0.545
-0.53
-0.53
-0.53
-0.54
-0.535
-0.535
-0.52
-0.515
-0.52
-0.525
-0.535
-0.52
-0.51
-0.5
-0.51
-0.51
-0.515
-0.505
-0.5
-0.5
-0.495
-0.5
-0.49
-0.48
-0.47
-0.465
-0.45
-0.45
-0.455
-0.45
-0.425
-0.415
-0.4
-0.39
-0.395
-0.37
-0.345
-0.335
-0.32
-0.32
-0.295
-0.28
-0.265
-0.235
-0.225
-0.215
-0.2
-0.18
-0.15
-0.14
-0.125
-0.125
-0.11
-0.085
-0.065
-0.055
-0.05
-0.055
-0.04
-0.02
0.0
-0.005
-0.015
-0.005
-0.005
-0.005
0.005
-0.005
-0.015
-0.04
-0.055
-0.04
-0.05
-0.075
-0.095
-0.115
-0.15
-0.155
-0.165
-0.2
-0.22
-0.25
-0.275
-0.285
-0.29
-0.295
-0.32
-0.335
-0.365
-0.365
-0.355
-0.36
-0.37
-0.38
-0.4
-0.38
-0.37
-0.38
-0.38
-0.39
-0.395
-0.37
-0.385
-0.385
-0.38
-0.385
-0.4
-0.385
-0.375
-0.375
-0.38
-0.385
-0.38
-0.375
-0.37
-0.355
-0.36
-0.365
-0.37
-0.365
-0.355
-0.355
-0.345
-0.37
-0.375
-0.355
-0.34
-0.325
-0.335
-0.345
-0.345
-0.35
-0.34
-0.325
-0.325
-0.35
-0.35
-0.34
-0.33
-0.325
-0.335
-0.335
-0.34
-0.335
-0.325
-0.335
-0.34
-0.34
-0.345
-0.34
-0.34
-0.345
-0.35
-0.355
-0.365
-0.35
-0.345
-0.36
-0.37
-0.37
-0.38
-0.375
-0.365
-0.37
-0.385
-0.38
-0.4
-0.395
-0.385
-0.38
-0.39
-0.405
-0.405
-0.4
-0.395
-0.395
-0.405
-0.41
-0.42
-0.405
-0.395
-0.405
-0.415
-0.415
-0.42
-0.415
-0.415
-0.415
-0.42
-0.435
-0.425
-0.42
-0.42
-0.42
-0.42
-0.425
-0.435
-0.43
-0.415
-0.42
-0.425
-0.44
-0.44
-0.42
-0.41
-0.405
-0.41
-0.41
-0.395
-0.385
-0.355
-0.345
-0.335
-0.34
-0.355
-0.35
-0.335
-0.315
-0.31
-0.31
-0.31
-0.3
-0.3
-0.295
-0.305
-0.3
-0.305
-0.305
-0.31
-0.315
-0.33
-0.36
-0.375
-0.365
-0.34
-0.33
-0.325
-0.34
-0.36
-0.37
-0.375
-0.38
-0.395
-0.4
-0.42
-0.435
-0.425
-0.435
-0.44
-0.465
-0.465
-0.465
-0.465
-0.46
-0.465
-0.475
-0.485
-0.465
-0.47
-0.465
-0.46
-0.48
-0.485
-0.475
-0.47
-0.455
-0.465
-0.47
-0.48
-0.47
-0.46
-0.455
-0.48
-0.505
-0.585
-0.645
-0.665
-0.63
-0.585
-0.525
-0.42
-0.185
0.155
0.555
0.935
1.285
1.615
1.87
2.0
1.955
1.7
1.19
0.56
-0.01
-0.37
-0.535
-0.575
-0.575
-0.555
-0.46
-0.375
-0.35
-0.375
-0.41
-0.43
-0.43
-0.435
-0.43
-0.435
-0.455
-0.48
-0.49
-0.485
-0.485
-0.495
-0.5
-0.515
-0.505
-0.505
-0.5
-0.505
-0.51
-0.525
-0.51
-0.505
-0.515
-0.51
-0.51
-0.535
-0.51
-0.495
-0.505
-0.505
-0.505
-0.51
-0.495
-0.495
-0.475
-0.495
-0.485
-0.495
-0.48
-0.475
-0.465
-0.46
-0.46
-0.47
-0.455
-0.435
-0.425
-0.425
