Lead II
1.22
1.685
2.05
2.235
2.25
1.98
1.355
0.715
0.075
-0.565
-1.205
-1.845
-1.81
-1.51
-1.245
-1.085
-1.095
-1.195
-1.285
-1.39
-1.46
-1.48
-1.475
-1.445
-1.415
-1.41
-1.415
-1.43
-1.425
-1.45
-1.45
-1.43
-1.41
-1.4
-1.385
-1.38
-1.39
-1.39
-1.41
-1.38
-1.395
-1.38
-1.385
-1.37
-1.345
-1.335
-1.33
-1.31
-1.31
-1.305
-1.305
-1.31
-1.295
-1.285
-1.26
-1.25
-1.225
-1.205
-1.19
-1.16
-1.15
-1.135
-1.115
-1.11
-1.105
-1.095
-1.09
-1.05
-1.01
-0.96
-0.92
-0.885
-0.86
-0.825
-0.83
-0.825
-0.81
-0.815
-0.81
-0.795
-0.765
-0.76
-0.755
-0.735
-0.75
-0.745
-0.76
-0.775
-0.79
-0.825
-0.85
-0.88
-0.92
-0.955
-0.98
-1.015
-1.05
-1.085
-1.14
-1.18
-1.22
-1.255
-1.295
-1.32
-1.345
-1.345
-1.345
-1.37
-1.375
-1.395
-1.41
-1.43
-1.43
-1.43
-1.435
-1.43
-1.42
-1.42
-1.405
-1.415
-1.41
-1.41
-1.425
-1.435
-1.455
-1.445
-1.445
-1.43
-1.43
-1.415
-1.39
-1.385
-1.38
-1.375
-1.38
-1.38
-1.385
-1.395
-1.39
-1.39
-1.375
-1.385
-1.38
-1.385
-1.385
-1.395
-1.4
-1.4
-1.425
-1.42
-1.42
-1.415
-1.395
-1.395
-1.4
-1.385
-1.385
-1.4
-1.425
-1.435
-1.44
-1.445
-1.44
-1.45
-1.445
-1.45
-1.44
-1.435
-1.435
-1.44
-1.44
-1.455
-1.46
-1.465
-1.47
-1.465
-1.47
-1.46
-1.445
-1.435
-1.445
-1.43
-1.435
-1.455
-1.465
-1.48
-1.475
-1.46
-1.445
-1.445
-1.43
-1.435
-1.44
-1.44
-1.46
-1.47
-1.465
-1.485
-1.475
-1.47
-1.435
-1.415
-1.375
-1.345
-1.34
-1.335
-1.32
-1.325
-1.36
-1.345
-1.36
-1.355
-1.335
-1.345
-1.345
-1.3
-1.29
-1.28
-1.26
-1.26
-1.255
-1.27
-1.285
-1.28
-1.285
-1.285
-1.29
-1.295
-1.29
-1.295
-1.31
-1.335
-1.36
-1.38
-1.425
-1.455
-1.45
-1.455
-1.45
-1.455
-1.46
-1.455
-1.465
-1.46
-1.465
-1.475
-1.48
-1.465
-1.465
-1.455
-1.44
-1.425
-1.425
-1.42
-1.415
-1.41
-1.405
-1.375
-1.305
-1.165
-0.935
-0.665
-0.265
0.17
0.63
1.1
1.55
1.915
2.155
2.275
2.25
2.05
1.65
1.01
0.37
-0.27
-0.91
-1.55
-1.95
-1.775
-1.51
-1.27
-1.12
-1.085
-1.12
-1.21
-1.28
-1.34
-1.36
-1.355
-1.35
-1.35
-1.34
-1.35
-1.385
-1.38
-1.355
-1.37
-1.335
-1.31
-1.295
-1.3
-1.265
-1.285
-1.29
-1.29
-1.295
-1.285
-1.285
-1.235
-1.215
-1.2
-1.185
-1.205
-1.215
-1.215
-1.21
-1.21
-1.195
-1.16
-1.145
-1.135
-1.1
-1.085
-1.07
-1.06
-1.065
-1.04
-1.04
-1.02
-1.02
-0.985
-0.95
-0.92
-0.89
-0.875
-0.86
-0.84
-0.82
-0.805
-0.8
-0.775
-0.755
-0.73
-0.705
-0.68
-0.625
-0.62
-0.6
-0.595
-0.58
-0.58
-0.59
-0.595
-0.59
-0.61
-0.605
-0.605
-0.61
-0.625
-0.655
-0.695
-0.735
-0.755
-0.795
-0.83
-0.88
-0.915
-0.95
-0.975
-1.0
-1.04
-1.06
-1.085
-1.11
-1.13
-1.16
-1.17
-1.18
-1.2
-1.195
-1.19
-1.195
-1.2
-1.215
-1.225
-1.235
-1.245
-1.255
-1.255
-1.265
-1.26
-1.255
-1.26
-1.225
-1.215
-1.21
-1.2
-1.195
-1.205
-1.215
-1.205
-1.21
-1.21
-1.195
-1.185
-1.185
-1.185
-1.175
-1.175
-1.165
-1.165
-1.16
-1.17
-1.175
-1.18
-1.165
-1.155
-1.155
-1.15
-1.155
-1.155
-1.17
-1.205
-1.205
-1.195
-1.195
-1.19
-1.205
-1.205
-1.17
-1.175
-1.17
-1.17
-1.185
-1.21
-1.22
-1.235
-1.245
-1.23
-1.215
-1.21
-1.21
-1.2
-1.205
-1.18
-1.185
-1.21
-1.215
-1.23
-1.235
-1.235
-1.23
-1.22
-1.215
-1.185
-1.195
-1.215
-1.21
-1.22
-1.225
-1.23
-1.22
-1.245
-1.225
-1.22
-1.235
-1.2
-1.2
-1.215
-1.215
-1.22
-1.185
-1.16
-1.145
-1.13
-1.115
-1.08
-1.07
-1.045
-1.07
-1.08
-1.08
-1.09
-1.09
-1.105
-1.07
-1.045
-1.02
-0.985
-0.975
-0.96
-0.965
-0.995
-0.995
-1.02
-1.035
-1.04
-1.055
-1.075
-1.095
-1.095
-1.1
-1.09
-1.09
-1.115
-1.155
-1.175
-1.215
-1.245
-1.265
-1.27
-1.28
-1.275
-1.275
-1.24
-1.22
-1.205
-1.215
-1.21
-1.225
-1.235
-1.26
-1.275
-1.265
-1.24
-1.205
-1.18
-1.155
-1.095
-0.995
-0.855
-0.635
-0.32
0.05
0.5
0.96
1.435
1.87
2.21
2.375
2.38
2.175
1.725
1.085
0.445
-0.195
-0.835
-1.475
-1.9
-1.595
-1.21
-0.925
-0.785
-0.795
-0.895
-1.04
-1.16
-1.23
-1.255
-1.23
-1.195
-1.185
-1.15
-1.145
-1.14
-1.155
-1.165
-1.195
-1.19
-1.185
-1.18
-1.17
-1.145
-1.135
-1.12
-1.11
-1.125
-1.12
-1.115
-1.13
-1.125
-1.1
-1.1
-1.065
-1.05
-1.04
-1.025
-1.02
-1.02
-1.03
-1.03
-1.025
-1.02
-1.015
-0.99
-0.945
-0.93
-0.905
-0.885
-0.85
-0.825
-0.805
-0.805
-0.795
-0.785
-0.77
-0.75
-0.72
-0.695
-0.68
-0.635
-0.605
-0.585
-0.575
-0.56
-0.565
-0.535
-0.525
-0.495
-0.48
-0.465
-0.47
-0.435
-0.425
-0.43
-0.455
-0.47
-0.5
-0.52
-0.53
-0.54
-0.57
-0.59
-0.635
-0.65
-0.7
-0.745
-0.785
-0.84
-0.895
-0.95
-1.005
-1.01
-1.025
-1.055
-1.065
-1.06
-1.08
-1.08
-1.1
-1.115
-1.145
-1.155
-1.16
-1.175
-1.175
-1.18
-1.19
-1.17
-1.17
-1.175
-1.165
-1.19
-1.205
-1.185
-1.19
-1.195
-1.175
-1.17
-1.155
-1.15
-1.145
-1.145
-1.155
-1.165
-1.165
-1.18
-1.18
-1.175
-1.16
-1.145
-1.125
-1.125
-1.115
-1.13
-1.135
-1.155
-1.185
-1.19
-1.195
-1.19
-1.185
-1.165
-1.15
-1.15
-1.145
-1.16
-1.165
-1.195
-1.195
-1.21
-1.22
-1.225
-1.215
-1.21
-1.21
-1.21
-1.205
-1.215
-1.225
-1.225
-1.245
-1.25
-1.265
-1.26
-1.245
-1.255
-1.25
-1.23
-1.23
-1.23
-1.245
-1.26
-1.27
-1.28
-1.27
-1.275
-1.265
-1.255
-1.25
-1.235
-1.225
-1.23
-1.24
-1.265
-1.285
-1.285
-1.285
-1.285
-1.275
-1.26
-1.23
-1.195
-1.185
-1.17
-1.17
-1.19
-1.21
-1.2
-1.205
-1.195
-1.19
-1.175
-1.15
-1.13
-1.12
-1.11
-1.095
-1.095
-1.095
-1.105
-1.115
-1.125
-1.13
-1.13
-1.125
-1.125
-1.135
-1.135
-1.145
-1.175
-1.18
-1.185
-1.215
-1.245
-1.255
-1.26
-1.27
-1.285
-1.29
-1.305
-1.335
-1.345
-1.34
-1.34
-1.335
-1.33
-1.325
-1.33
-1.31
-1.31
-1.3
-1.31
-1.325
-1.32
-1.31
-1.285
-1.24
-1.15
-1.0
-0.805
-0.53
-0.155
0.25
0.73
1.205
1.67
2.015
2.25
2.3
2.135
1.72
1.08
0.44
-0.2
-0.84
-1.48
-1.955
-1.775
-1.485
-1.245
-1.08
-1.03
-1.04
-1.11
-1.165
-1.24
-1.27
-1.29
-1.31
-1.31
-1.32
-1.335
-1.345
-1.34
-1.335
-1.31
-1.285
-1.28
-1.245
-1.27
-1.27
-1.28
-1.29
-1.28
-1.285
-1.28
-1.265
-1.245
-1.24
-1.205
-1.205
-1.195
-1.2
-1.195
-1.205
-1.195
-1.2
-1.185
-1.155
-1.14
-1.12
-1.125
-1.125
-1.1
-1.105
-1.1
-1.105
-1.085
-1.08
-1.055
-1.015
-0.985
-0.96
-0.92
-0.9
-0.88
-0.875
-0.86
-0.845
-0.825
-0.795
-0.775
-0.75
-0.72
-0.675
-0.65
-0.635
-0.64
-0.635
-0.645
-0.625
-0.635
-0.64
-0.645
-0.65
-0.645
-0.65
-0.655
-0.695
-0.715
-0.73
-0.76
-0.81
-0.855
-0.885
-0.94
-0.97
-1.0
-1.035
-1.05
-1.06
-1.105
-1.13
-1.165
-1.18
-1.21
-1.23
-1.245
-1.25
-1.26
-1.265
-1.26
-1.26
-1.29
-1.31
-1.305
-1.325
-1.34
-1.335
-1.335
-1.31
-1.31
-1.3
-1.285
-1.29
-1.29
-1.295
-1.305
-1.325
-1.335
-1.32
-1.305
-1.3
-1.285
-1.265
-1.27
-1.25
-1.245
-1.245
-1.245
-1.25
-1.26
-1.28
-1.27
-1.275
-1.27
-1.26
-1.25
-1.245
-1.245
-1.265
-1.275
-1.285
-1.31
-1.305
-1.315
-1.295
-1.265
-1.26
-1.26
-1.27
-1.26
-1.255
-1.265
-1.26
-1.265
-1.27
-1.285
-1.29
-1.29
-1.31
-1.28
-1.3
-1.31
-1.29
-1.305
-1.315
-1.315
-1.31
-1.315
-1.305
-1.32
-1.315
-1.3
-1.31
-1.305
-1.315
-1.325
-1.325
-1.315
-1.31
-1.31
-1.31
-1.31
-1.3
-1.295
-1.315
-1.31
-1.305
-1.31
-1.305
-1.31
-1.31
-1.315
-1.295
-1.275
-1.26
-1.225
-1.205
-1.18
-1.155
-1.16
-1.19
-1.195
-1.195
-1.2
-1.21
-1.2
-1.18
-1.17
-1.16
-1.13
-1.115
-1.105
-1.095
-1.075
-1.095
-1.11
-1.11
-1.085
-1.09
-1.095
-1.105
-1.12
-1.13
-1.13
-1.14
-1.14
-1.15
-1.175
-1.19
-1.22
-1.235
-1.265
-1.285
-1.305
-1.305
-1.33
-1.335
-1.31
-1.31
-1.29
-1.28
-1.255
-1.245
-1.215
-1.225
-1.235
-1.23
-1.255
-1.255
-1.24
-1.21
-1.125
-0.955
-0.71
-0.375
0.04
0.5
0.99
1.485
1.91
2.24
2.425
2.45
2.37
2.115
1.645
1.005
0.365
-0.275
-0.915
-1.555
-1.72
-1.48
-1.175
-0.97
-0.885
-0.915
-1.0
-1.095
-1.17
-1.21
-1.22
-1.215
-1.225
-1.22
-1.215
-1.22
-1.225
-1.225
-1.215
-1.205
-1.175
-1.155
-1.14
-1.13
-1.125
-1.13
-1.14
-1.145
-1.14
-1.15
-1.14
-1.12
-1.085
-1.075
-1.08
-1.085
-1.08
-1.08
-1.075
-1.065
-1.065
-1.05
-1.03
-1.005
-0.995
-0.985
-0.98
-0.96
-0.95
-0.935
-0.91
-0.9
-0.885
-0.85
-0.82
-0.785
-0.76
-0.725
-0.695
-0.685
-0.66
-0.635
-0.605
-0.59
-0.57
-0.52
-0.515
-0.485
-0.455
-0.445
-0.455
-0.46
-0.43
-0.455
-0.465
-0.475
-0.48
-0.49
-0.495
-0.505
-0.515
-0.56
-0.605
-0.65
-0.71
-0.755
-0.795
-0.85
-0.885
-0.92
-0.945
-0.955
-0.975
-0.99
-1.01
-1.025
-1.055
-1.065
-1.085
-1.1
-1.115
-1.135
-1.125
-1.135
-1.13
-1.135
-1.14
-1.145
-1.155
-1.155
-1.165
-1.17
-1.15
-1.15
-1.15
-1.13
-1.125
-1.13
-1.13
-1.135
-1.12
-1.12
-1.115
-1.12
-1.12
-1.1
-1.09
-1.085
-1.085
-1.085
-1.08
-1.07
-1.07
-1.08
-1.075
-1.09
-1.085
-1.08
-1.09
-1.095
-1.08
-1.08
-1.085
-1.085
-1.1
-1.105
-1.11
-1.11
-1.13
-1.14
-1.145
-1.125
-1.1
-1.085
-1.11
-1.12
-1.145
-1.16
-1.17
-1.165
-1.175
-1.16
-1.135
-1.145
-1.135
-1.14
-1.135
-1.155
-1.16
-1.185
-1.175
-1.165
-1.185
-1.175
-1.185
-1.185
-1.17
-1.16
-1.16
-1.16
-1.175
-1.185
-1.185
-1.195
-1.205
-1.215
-1.175
-1.16
-1.155
-1.15
-1.135
-1.13
-1.145
-1.115
-1.095
-1.085
-1.07
-1.05
-1.04
-1.015
-1.02
-1.02
-1.02
-1.02
-1.025
-1.02
-1.01
-0.985
-0.99
-0.96
-0.95
-0.945
-0.96
-0.97
-0.975
-0.98
-0.99
-1.01
-1.02
-1.045
-1.045
-1.03
-1.045
-1.075
-1.095
-1.125
-1.16
-1.195
-1.215
-1.235
-1.25
-1.255
-1.245
-1.215
-1.205
-1.205
-1.175
-1.19
-1.18
-1.19
-1.195
-1.205
-1.205
-1.24
-1.25
-1.24
-1.195
-1.12
-1.0
-0.835
-0.57
-0.24
0.165
0.585
1.05
1.545
1.975
2.3
2.465
2.47
2.3
1.89
1.25
0.61
-0.03
-0.67
-1.31
-1.935
-1.715
-1.33
-1.02
-0.825
-0.775
-0.845
-0.975
-1.1
-1.205
-1.235
-1.24
-1.225
-1.21
-1.2
-1.175
-1.175
-1.16
-1.155
-1.16
-1.145
-1.165
-1.175
-1.18
-1.19
-1.18
-1.17
-1.145
-1.13
-1.095
-1.095
-1.095
-1.085
-1.095
-1.11
-1.1
-1.115
-1.105
-1.1
-1.1
-1.07
-1.06
-1.045
-1.05
-1.04
-1.025
-1.015
-1.025
-1.01
-0.995
-0.98
-0.945
-0.93
-0.89
-0.875
-0.845
-0.835
-0.82
-0.805
-0.79
-0.77
-0.755
-0.74
-0.705
-0.665
-0.625
-0.59
-0.55
-0.54
-0.535
-0.52
-0.495
-0.495
-0.485
-0.475
-0.475
-0.465
-0.465
-0.485
-0.495
-0.52
-0.545
-0.575
-0.625
-0.655
-0.695
-0.725
-0.76
-0.785
-0.8
-0.845
-0.89
-0.945
-1.01
-1.04
-1.09
-1.13
-1.165
-1.165
-1.17
-1.175
-1.185
-1.18
-1.18
-1.19
-1.21
-1.21
-1.235
-1.265
-1.28
-1.26
-1.275
-1.26
-1.24
-1.255
-1.26
-1.26
-1.265
-1.275
-1.27
-1.27
-1.26
-1.245
-1.23
-1.24
-1.225
-1.225
-1.21
-1.235
-1.24
-1.245
-1.26
-1.265
-1.26
-1.25
-1.24
-1.225
-1.205
-1.22
-1.23
-1.225
-1.24
-1.27
-1.255
-1.28
-1.27
-1.28
-1.275
-1.265
-1.265
-1.26
-1.265
-1.265
-1.275
-1.285
-1.29
-1.29
-1.315
-1.3
-1.3
-1.31
-1.305
-1.305
-1.31
-1.31
-1.31
-1.325
-1.32
-1.315
-1.34
-1.34
-1.32
-1.315
-1.315
-1.31
-1.32
-1.33
-1.345
-1.34
-1.36
-1.37
-1.365
-1.37
-1.37
-1.365
-1.345
-1.335
-1.32
-1.315
-1.325
-1.325
-1.35
-1.375
-1.365
-1.38
-1.375
-1.345
-1.33
-1.305
-1.285
-1.265
-1.265
-1.27
-1.295
-1.29
-1.26
-1.265
-1.27
-1.25
-1.225
-1.23
-1.2
-1.175
-1.175
-1.17
-1.17
-1.195
-1.2
-1.205
-1.205
-1.2
-1.215
-1.23
-1.245
-1.255
-1.275
-1.295
-1.32
-1.34
-1.365
-1.38
-1.39
-1.39
-1.395
-1.405
-1.39
-1.405
-1.425
-1.435
-1.45
-1.44
-1.45
-1.44
-1.425
-1.415
-1.39
-1.375
-1.37
-1.385
-1.38
-1.37
-1.355
-1.3
-1.23
-1.09
-0.92
-0.71
-0.46
-0.155
0.21
0.585
1.005
1.425
1.77
2.03
2.165
2.14
1.925
1.45
0.81
0.17
-0.47
-1.11
-1.75
-1.915
-1.675
-1.41
-1.2
-1.095
-1.09
-1.13
-1.215
-1.295
-1.345
-1.365
-1.41
-1.4
-1.405
-1.415
-1.425
-1.435
-1.405
-1.4
-1.37
-1.37
-1.37
-1.365
-1.37
-1.365
-1.36
-1.355
-1.35
-1.345
-1.34
-1.34
-1.325
-1.31
-1.305
-1.315
-1.315
-1.32
-1.32
-1.315
-1.3
-1.3
-1.27
-1.245
-1.22
-1.22
-1.205
-1.215
-1.215
-1.205
-1.2
-1.2
-1.195
-1.18
-1.16
-1.125
-1.085
-1.05
-1.03
-1.02
-1.0
-0.97
-0.97
-0.96
-0.94
-0.905
-0.875
-0.84
-0.81
-0.785
-0.76
-0.77
-0.755
-0.76
-0.76
-0.755
-0.73
-0.705
-0.685
-0.675
-0.66
-0.66
-0.675
-0.66
-0.69
-0.72
-0.755
-0.785
-0.83
-0.855
-0.875
-0.92
-0.945
-0.985
-1.02
-1.065
-1.13
-1.155
-1.18
-1.21
-1.23
-1.25
-1.275
-1.28
-1.3
-1.32
-1.33
-1.345
-1.365
-1.385
-1.39
-1.4
-1.405
-1.4
-1.38
-1.38
-1.365
-1.365
-1.375
-1.375
-1.37
-1.375
-1.375
-1.395
-1.4
-1.4
-1.395
-1.38
-1.355
-1.35
-1.335
-1.33
-1.345
-1.36
-1.38
-1.39
-1.4
-1.39
-1.355
-1.365
-1.335
-1.315
-1.305
-1.315
-1.315
-1.33
-1.34
-1.345
-1.345
-1.335
-1.33
-1.335
-1.32
-1.33
-1.33
-1.33
-1.335
-1.345
-1.355
-1.355
-1.355
-1.35
-1.355
-1.35
-1.345
-1.33
-1.33
-1.345
-1.38
-1.365
-1.395
-1.38
-1.38
-1.365
-1.365
-1.35
-1.35
-1.35
-1.345
-1.345
-1.35
-1.365
-1.375
-1.38
-1.38
-1.37
-1.36
-1.355
-1.35
-1.34
-1.34
-1.345
-1.355
-1.375
-1.365
-1.365
-1.36
-1.35
-1.335
-1.335
-1.315
-1.295
-1.26
-1.24
-1.225
-1.235
-1.23
-1.22
-1.235
-1.245
-1.225
-1.235
-1.225
-1.215
-1.21
-1.195
-1.175
-1.165
-1.145
-1.135
-1.12
-1.13
-1.13
-1.155
-1.155
-1.165
-1.185
-1.185
-1.19
-1.2
-1.235
-1.245
-1.26
-1.285
-1.29
-1.305
-1.315
-1.325
-1.365
-1.385
-1.385
-1.4
-1.395
-1.375
-1.38
-1.365
-1.355
-1.345
-1.335
-1.345
-1.335
-1.33
-1.335
-1.34
-1.335
-1.31
-1.25
-1.13
-0.92
-0.625
-0.245
0.205
0.695
1.2
1.675
2.04
2.275
2.36
2.28
1.96
1.44
0.8
0.16
-0.48
-1.12
-1.76
-1.81
-1.585
-1.305
-1.09
-1.005
-1.01
-1.065
-1.15
-1.245
-1.28
-1.3
-1.305
-1.305
-1.31
-1.305
-1.305
-1.31
-1.315
-1.31
-1.275
-1.26
-1.25
-1.245
-1.25
-1.265
-1.275
-1.285
-1.26
-1.245
-1.24
-1.22
-1.185
-1.18
-1.155
-1.155
-1.145
-1.16
-1.165
-1.17
-1.17
-1.15
-1.145
-1.13
-1.095
-1.085
-1.065
-1.05
-1.04
-1.02
-1.015
-1.02
-1.0
-0.97
-0.93
-0.91
-0.88
-0.855
-0.825
-0.81
-0.8
-0.785
-0.785
-0.77
-0.73
-0.715
-0.68
-0.64
-0.605
-0.58
-0.55
-0.53
-0.52
-0.515
-0.515
-0.51
-0.51
-0.52
-0.53
-0.525
-0.535
-0.53
-0.535
-0.55
-0.57
-0.615
-0.64
-0.675
-0.745
-0.79
-0.815
-0.85
-0.9
-0.93
-0.96
-1.005
-1.03
-1.06
-1.08
-1.105
-1.125
-1.145
-1.16
-1.185
-1.195
-1.195
-1.195
-1.2
-1.215
-1.23
-1.24
-1.25
-1.275
-1.28
-1.27
-1.275
-1.26
-1.245
-1.24
-1.235
-1.235
-1.235
-1.255
-1.255
-1.255
-1.235
-1.225
-1.21
-1.2
-1.19
-1.175
-1.195
-1.195
-1.195
-1.21
-1.205
-1.2
-1.19
-1.18
-1.17
-1.16
-1.16
-1.155
-1.16
-1.175
-1.19
-1.205
-1.215
-1.21
-1.22
-1.21
-1.2
-1.21
-1.215
-1.205
-1.22
-1.22
-1.23
-1.235
-1.235
-1.225
-1.235
-1.235
-1.24
-1.235
-1.24
-1.225
-1.24
-1.235
-1.23
-1.235
-1.26
-1.25
-1.265
-1.27
-1.275
-1.245
-1.245
-1.23
-1.24
-1.25
-1.25
-1.275
-1.295
-1.295
-1.3
-1.305
-1.285
-1.265
-1.25
-1.24
-1.245
-1.26
-1.275
-1.29
-1.29
-1.285
-1.28
-1.275
-1.24
-1.21
-1.185
-1.16
-1.15
-1.175
-1.18
-1.175
-1.175
-1.18
-1.19
-1.19
-1.17
-1.165
-1.13
-1.1
-1.09
-1.085
-1.075
-1.055
-1.07
-1.085
-1.1
-1.115
-1.12
-1.13
-1.13
-1.13
-1.135
-1.165
-1.185
-1.205
-1.255
-1.275
-1.305
-1.3
-1.315
-1.31
-1.33
-1.335
-1.32
-1.32
-1.32
-1.335
-1.35
-1.345
-1.345
-1.33
-1.31
-1.295
-1.305
-1.29
-1.3
-1.29
-1.255
-1.2
-1.08
-0.885
-0.605
-0.21
0.25
0.785
1.325
1.83
2.2
2.385
2.34
2.065
1.44
0.8
0.16
-0.48
-1.12
-1.76
-1.775
-1.405
-1.09
-0.91
-0.9
-0.995
-1.125
-1.24
-1.32
-1.355
-1.36
-1.345
-1.305
-1.3
-1.28
-1.255
-1.265
-1.275
-1.28
-1.29
-1.295
-1.29
-1.285
-1.275
-1.255
-1.235
-1.235
-1.24
-1.25
-1.235
-1.235
-1.235
-1.235
-1.22
-1.205
-1.17
-1.16
-1.13
-1.115
-1.115
-1.11
-1.12
-1.145
-1.12
-1.1
-1.085
-1.065
-1.03
-1.005
-0.965
-0.955
-0.925
-0.92
-0.91
-0.9
-0.89
-0.875
-0.85
-0.81
-0.795
-0.775
-0.72
-0.695
-0.68
-0.645
-0.625
-0.605
-0.585
-0.59
-0.59
-0.565
-0.555
-0.545
-0.54
-0.54
-0.56
-0.57
-0.605
-0.64
-0.675
-0.705
-0.74
-0.79
-0.82
-0.865
-0.905
-0.96
-1.0
-1.055
-1.1
-1.15
-1.18
-1.205
-1.225
-1.225
-1.245
-1.245
-1.25
-1.265
-1.27
-1.28
-1.3
-1.325
-1.34
-1.345
-1.39
-1.39
-1.385
-1.375
-1.355
-1.33
-1.335
-1.335
-1.35
-1.365
-1.355
-1.36
-1.37
-1.375
-1.335
-1.34
-1.335
-1.335
-1.33
-1.335
-1.335
-1.345
-1.335
-1.325
-1.325
-1.325
-1.34
-1.335
-1.345
-1.345
-1.35
-1.355
-1.36
-1.355
-1.345
-1.35
-1.36
-1.36
-1.355
-1.36
-1.34
-1.36
-1.37
-1.37
-1.39
-1.405
-1.405
-1.41
-1.405
-1.4
-1.385
-1.395
-1.38
-1.385
-1.405
-1.395
-1.425
-1.43
-1.44
-1.43
-1.43
-1.415
-1.42
-1.42
-1.415
-1.42
-1.425
-1.44
-1.445
-1.445
-1.435
-1.435
-1.445
-1.445
-1.43
-1.43
-1.425
-1.43
-1.44
-1.435
-1.45
-1.45
-1.455
-1.455
-1.455
-1.45
-1.455
-1.435
-1.415
-1.375
-1.375
-1.365
-1.36
-1.355
-1.375
-1.38
-1.385
-1.375
-1.365
-1.355
-1.325
-1.315
-1.3
-1.28
-1.275
-1.275
-1.275
-1.275
-1.27
-1.275
-1.28
-1.28
-1.285
-1.3
-1.315
-1.335
-1.345
-1.375
-1.37
-1.385
-1.405
-1.425
-1.445
-1.45
-1.455
-1.48
-1.485
-1.51
-1.545
-1.54
-1.55
-1.545
-1.55
-1.535
-1.53
-1.515
-1.515
-1.52
-1.52
-1.51
-1.525
-1.54
-1.535
-1.5
-1.45
-1.39
-1.29
-1.2
-1.04
-0.82
-0.51
-0.135
0.28
0.75
1.235
1.67
2.0
2.19
2.195
1.95
1.455
0.815
0.175
-0.465
-1.105
-1.745
-2.07
-1.785
-1.47
-1.255
-1.18
-1.195
-1.27
-1.365
-1.455
-1.5
-1.525
-1.53
-1.53
-1.51
-1.5
-1.515
-1.515
-1.5
-1.485
-1.465
-1.475
-1.465
-1.465
-1.47
-1.475
-1.475
-1.485
-1.47
-1.455
-1.445
-1.425
-1.415
-1.42
-1.435
-1.445
-1.435
-1.415
-1.405
-1.39
-1.365
-1.355
-1.33
-1.315
-1.315
-1.305
-1.28
-1.275
-1.28
-1.27
-1.27
-1.25
-1.22
-1.18
-1.135
-1.09
-1.06
-1.05
-1.035
-1.025
-1.02
-0.99
-0.975
-0.925
-0.885
-0.865
-0.855
-0.835
-0.825
-0.81
-0.785
-0.77
-0.765
-0.76
-0.76
-0.77
-0.775
-0.78
-0.785
-0.785
-0.825
-0.85
-0.905
-0.95
-0.995
-1.04
-1.07
-1.115
-1.145
-1.175
-1.215
-1.235
-1.26
-1.32
-1.36
-1.4
-1.425
-1.445
-1.45
-1.47
-1.46
-1.45
-1.45
-1.465
-1.465
-1.475
-1.47
-1.475
-1.475
-1.51
-1.51
-1.515
-1.505
-1.5
-1.48
-1.465
-1.46
-1.46
-1.47
-1.47
-1.485
-1.47
-1.48
-1.48
-1.475
-1.465
-1.445
-1.42
-1.42
-1.415
-1.42
-1.44
-1.445
-1.455
-1.46
-1.455
-1.445
-1.45
-1.44
-1.41
-1.425
-1.425
-1.43
-1.465
-1.47
-1.48
-1.47
-1.475
-1.455
-1.475
-1.47
-1.47
-1.46
-1.455
-1.485
-1.49
-1.49
-1.51
-1.505
-1.495
-1.49
-1.495
-1.495
-1.485
-1.475
-1.475
-1.485
-1.485
-1.505
-1.475
-1.48
-1.475
-1.47
-1.47
-1.47
-1.46
-1.465
-1.475
-1.475
-1.49
-1.485
-1.495
-1.49
-1.47
-1.47
-1.465
-1.455
-1.45
-1.455
-1.455
-1.46
-1.45
-1.455
-1.44
-1.42
-1.395
-1.38
-1.355
-1.35
-1.33
-1.325
-1.32
-1.325
-1.325
-1.33
-1.325
-1.305
-1.305
-1.265
-1.225
-1.22
-1.215
-1.225
-1.245
-1.25
-1.26
-1.275
-1.295
-1.3
-1.31
-1.315
-1.32
-1.355
-1.38
-1.4
-1.41
-1.45
-1.46
-1.465
-1.475
-1.48
-1.49
-1.48
-1.45
-1.43
-1.415
-1.425
-1.425
-1.44
-1.445
-1.46
-1.46
-1.46
-1.455
-1.43
-1.375
-1.29
-1.15
-0.97
-0.695
-0.38
-0.02
0.355
0.73
1.12
1.485
1.825
2.09
2.235
2.27
2.12
1.76
1.12
0.48
-0.16
-0.8
-1.44
-1.945
-1.765
-1.46
-1.225
-1.065
-1.045
-1.125
-1.21
-1.295
-1.37
-1.385
-1.405
-1.4
-1.39
-1.39
-1.39
-1.38
-1.385
-1.38
-1.4
-1.395
-1.39
-1.395
-1.38
-1.37
-1.35
-1.335
-1.305
-1.295
-1.285
-1.295
-1.285
-1.29
-1.3
-1.295
-1.305
-1.285
-1.28
-1.255
-1.245
-1.235
-1.23
-1.225
-1.23
-1.205
-1.185
-1.17
-1.16
-1.135
-1.12
-1.11
-1.095
-1.055
-1.035
-1.015
-1.005
-1.0
-0.99
-0.94
-0.92
-0.885
-0.855
-0.825
-0.775
-0.765
-0.74
-0.72
-0.71
-0.685
-0.68
-0.67
-0.665
-0.645
-0.635
-0.625
-0.605
-0.6
-0.6
-0.605
-0.62
-0.66
-0.695
-0.725
-0.755
-0.805
-0.845
-0.89
-0.92
-0.94
-1.0
-1.055
-1.08
-1.12
-1.17
-1.205
-1.22
-1.26
-1.24
-1.26
-1.27
-1.275
-1.3
-1.315
-1.335
-1.36
-1.365
-1.385
-1.395
-1.39
-1.39
-1.37
-1.385
-1.365
-1.35
-1.35
-1.325
-1.36
-1.355
-1.355
-1.36
-1.36
-1.36
-1.345
-1.33
-1.31
-1.305
-1.32
-1.31
-1.3
-1.3
-1.295
-1.31
-1.31
-1.295
-1.29
-1.28
-1.26
-1.265
-1.27
-1.27
-1.29
-1.305
-1.305
-1.305
-1.305
-1.3
-1.285
-1.28
-1.285
-1.285
-1.285
-1.3
-1.31
-1.34
-1.345
-1.34
-1.355
-1.34
-1.33
-1.32
-1.305
-1.3
-1.305
-1.315
-1.33
-1.37
-1.36
-1.395
-1.38
-1.375
-1.36
-1.35
-1.32
-1.335
-1.335
-1.345
-1.365
-1.36
-1.36
-1.37
-1.35
-1.37
-1.375
-1.37
-1.355
-1.36
-1.355
-1.365
-1.375
-1.375
-1.385
-1.38
-1.37
-1.365
-1.355
-1.34
-1.325
-1.3
-1.295
-1.285
-1.28
-1.26
-1.26
-1.25
-1.25
-1.245
-1.215
-1.23
-1.21
-1.205
-1.205
-1.205
-1.19
-1.19
-1.18
-1.185
-1.18
-1.175
-1.175
-1.17
-1.16
-1.175
-1.17
-1.195
-1.21
-1.23
-1.245
-1.265
-1.295
-1.31
-1.335
-1.355
-1.37
-1.39
-1.42
-1.44
-1.435
-1.44
-1.42
-1.425
-1.41
-1.405
-1.39
-1.395
-1.38
-1.38
-1.39
-1.41
-1.41
-1.415
-1.4
-1.39
-1.37
-1.29
-1.16
-0.95
-0.65
-0.265
0.14
0.62
1.095
1.575
1.98
2.24
2.33
2.32
2.125
1.735
1.095
0.455
-0.185
-0.825
-1.465
-2.02
-1.855
-1.545
-1.25
-1.06
-1.005
-1.065
-1.145
-1.27
-1.35
-1.4
-1.415
-1.4
-1.38
-1.36
-1.365
-1.35
-1.35
-1.345
-1.33
-1.325
-1.33
-1.33
-1.345
-1.355
-1.35
-1.36
-1.36
-1.34
-1.315
-1.3
-1.275
-1.275
-1.265
-1.265
-1.28
-1.26
-1.255
-1.25
-1.24
-1.23
-1.205
-1.195
-1.18
-1.175
-1.17
-1.165
-1.175
-1.17
-1.15
-1.135
-1.095
-1.065
-1.035
-0.985
-0.97
-0.95
-0.92
-0.91
-0.905
-0.88
-0.855
-0.87
-0.84
-0.825
-0.785
-0.745
-0.71
-0.68
-0.655
-0.635
-0.65
-0.64
-0.64
-0.635
-0.625
-0.625
-0.615
-0.62
-0.605
-0.62
-0.645
-0.675
-0.72
-0.745
-0.78
-0.82
-0.855
-0.875
-0.895
-0.93
-0.96
-1.0
-1.04
-1.095
-1.135
-1.185
-1.22
-1.255
-1.275
-1.3
-1.305
-1.3
-1.32
-1.305
-1.32
-1.33
-1.355
-1.375
-1.395
-1.41
-1.415
-1.415
-1.405
-1.4
-1.395
-1.4
-1.415
-1.42
-1.435
-1.42
-1.425
-1.41
-1.41
-1.4
-1.4
-1.39
-1.39
-1.385
-1.375
-1.37
-1.385
-1.385
-1.395
-1.395
-1.405
-1.405
-1.39
-1.385
-1.37
-1.37
-1.36
-1.36
-1.395
-1.405
-1.41
-1.42
-1.42
-1.425
-1.415
-1.4
-1.415
-1.4
-1.38
-1.385
-1.4
-1.42
-1.43
-1.44
-1.445
-1.445
-1.435
-1.435
-1.43
-1.415
-1.43
-1.445
-1.45
-1.455
-1.465
-1.485
-1.475
-1.46
-1.45
-1.44
-1.43
-1.42
-1.415
-1.42
-1.435
-1.455
-1.45
-1.46
-1.47
-1.47
-1.48
-1.46
-1.45
-1.44
-1.445
-1.44
-1.455
-1.46
-1.465
-1.47
-1.47
-1.46
-1.47
-1.445
-1.45
-1.44
-1.435
-1.43
-1.445
-1.425
-1.405
-1.395
-1.38
-1.38
-1.37
-1.37
-1.36
-1.34
-1.35
-1.35
-1.35
-1.335
-1.325
-1.325
-1.305
-1.29
-1.26
-1.255
-1.255
-1.25
-1.26
-1.285
-1.315
-1.335
-1.355
-1.37
-1.39
-1.395
-1.395
-1.42
-1.44
-1.445
-1.465
-1.495
-1.52
-1.52
-1.545
-1.52
-1.53
-1.505
-1.475
-1.485
-1.47
-1.475
-1.495
-1.485
-1.47
-1.48
-1.485
-1.475
-1.455
-1.425
-1.34
-1.21
-0.985
-0.705
-0.34
0.06
0.485
0.915
1.315
1.69
1.975
2.175
2.255
2.165
1.865
1.285
0.645
0.005
-0.635
-1.275
-1.915
-1.86
-1.59
-1.325
-1.175
-1.145
-1.165
-1.265
-1.35
-1.41
-1.445
-1.46
-1.46
-1.45
-1.46
-1.465
-1.46
-1.455
-1.45
-1.435
-1.415
-1.425
-1.41
-1.42
-1.425
-1.425
-1.43
-1.42
-1.405
-1.4
-1.38
-1.38
-1.38
-1.38
-1.38
-1.38
-1.39
-1.385
-1.37
-1.37
-1.345
-1.315
-1.28
-1.26
-1.255
-1.25
-1.26
-1.245
-1.235
-1.23
-1.22
-1.19
-1.17
-1.14
-1.115
-1.095
-1.07
-1.06
-1.04
-1.02
-1.0
-0.97
-0.935
-0.92
-0.875
-0.845
-0.815
-0.77
-0.775
-0.755
-0.765
-0.75
-0.74
-0.72
-0.715
-0.705
-0.695
-0.685
-0.695
-0.7
-0.725
-0.75
-0.79
-0.845
-0.895
-0.96
-1.01
-1.04
-1.06
-1.09
-1.11
-1.135
-1.16
-1.205
-1.235
-1.27
-1.295
-1.335
-1.34
-1.355
-1.37
-1.365
-1.375
-1.375
-1.385
-1.395
-1.42
-1.415
-1.43
-1.435
-1.445
-1.435
-1.435
-1.435
-1.42
-1.41
-1.405
-1.4
-1.395
-1.405
-1.405
-1.425
-1.41
-1.4
-1.395
-1.365
-1.365
-1.355
-1.36
-1.35
-1.35
-1.365
-1.375
-1.385
-1.385
-1.375
-1.395
-1.365
-1.35
-1.34
-1.32
-1.32
-1.33
-1.335
-1.355
-1.36
-1.385
-1.4
-1.39
-1.39
-1.365
-1.345
-1.345
-1.35
-1.37
-1.38
-1.39
-1.395
-1.385
-1.4
-1.385
-1.36
-1.35
-1.355
-1.36
-1.37
-1.4
-1.405
-1.405
-1.415
-1.405
-1.405
-1.405
-1.385
-1.38
-1.375
-1.37
-1.375
-1.38
-1.395
-1.41
-1.42
-1.415
-1.42
-1.4
-1.38
-1.375
-1.36
-1.365
-1.39
-1.415
-1.415
-1.425
-1.415
-1.42
-1.4
-1.365
-1.355
-1.32
-1.29
-1.265
-1.265
-1.26
-1.265
-1.27
-1.28
-1.275
-1.265
-1.255
-1.24
-1.225
-1.195
-1.18
-1.17
-1.16
-1.16
-1.175
-1.18
-1.2
-1.205
-1.205
-1.205
-1.205
-1.215
-1.215
-1.22
-1.25
-1.285
-1.315
-1.33
-1.34
-1.355
-1.38
-1.4
-1.395
-1.39
-1.395
-1.385
-1.385
-1.375
-1.38
-1.375
-1.385
-1.39
-1.365
-1.38
-1.37
-1.37
-1.35
-1.33
-1.29
-1.24
-1.15
-1.01
-0.795
-0.47
-0.07
0.39
0.9
1.43
1.89
2.2
2.335
2.31
2.04
1.455
0.815
0.175
-0.465
-1.105
-1.745
-1.785
-1.485
-1.205
-0.99
-0.915
-0.98
-1.06
-1.175
-1.265
-1.305
-1.335
-1.305
-1.305
-1.285
-1.29
-1.29
-1.275
-1.285
-1.28
-1.26
-1.255
-1.255
-1.23
-1.225
-1.205
-1.195
-1.215
-1.205
-1.205
-1.215
-1.22
-1.22
-1.21
-1.19
-1.175
-1.175
-1.14
-1.13
-1.125
-1.11
-1.105
-1.11
-1.12
-1.105
-1.095
-1.075
-1.065
-1.04
-1.015
-1.005
-0.965
-0.95
-0.94
-0.925
-0.905
-0.885
-0.86
-0.82
-0.775
