Lead II
-0.275
-0.27
-0.27
-0.25
-0.245
-0.23
-0.245
-0.26
-0.26
-0.275
-0.275
-0.28
-0.285
-0.265
-0.25
-0.235
-0.22
-0.22
-0.215
-0.23
-0.23
-0.23
-0.23
-0.22
-0.22
-0.22
-0.2
-0.19
-0.185
-0.18
-0.18
-0.185
-0.21
-0.215
-0.215
-0.21
-0.21
-0.22
-0.205
-0.21
-0.215
-0.2
-0.195
-0.21
-0.21
-0.22
-0.23
-0.225
-0.235
-0.21
-0.215
-0.21
-0.21
-0.215
-0.22
-0.22
-0.22
-0.225
-0.245
-0.24
-0.24
-0.22
-0.225
-0.22
-0.215
-0.225
-0.21
-0.205
-0.215
-0.22
-0.23
-0.225
-0.23
-0.215
-0.21
-0.21
-0.215
-0.22
-0.21
-0.195
-0.2
-0.205
-0.215
-0.23
-0.215
-0.22
-0.215
-0.215
-0.205
-0.215
-0.2
-0.205
-0.195
-0.205
-0.215
-0.22
-0.22
-0.205
-0.195
-0.19
-0.19
-0.175
-0.16
-0.15
-0.14
-0.14
-0.135
-0.15
-0.13
-0.11
-0.105
-0.065
-0.05
-0.015
0.0
-0.005
-0.025
-0.05
-0.085
-0.095
-0.095
-0.095
-0.085
-0.085
-0.11
-0.125
-0.14
-0.165
-0.195
-0.235
-0.26
-0.27
-0.28
-0.27
-0.26
-0.255
-0.26
-0.27
-0.275
-0.27
-0.28
-0.29
-0.285
-0.29
-0.29
-0.295
-0.3
-0.315
-0.325
-0.305
-0.245
-0.165
-0.065
0.08
0.28
0.56
0.855
1.165
1.425
1.58
1.62
1.5
1.265
0.935
0.58
0.24
-0.01
-0.185
-0.275
-0.305
-0.305
-0.285
-0.26
-0.245
-0.24
-0.27
-0.3
-0.325
-0.36
-0.36
-0.36
-0.345
-0.34
-0.32
-0.33
-0.335
-0.34
-0.345
-0.36
-0.355
-0.36
-0.355
-0.35
-0.34
-0.325
-0.335
-0.34
-0.345
-0.34
-0.345
-0.345
-0.345
-0.345
-0.355
-0.34
-0.33
-0.335
-0.325
-0.32
-0.325
-0.33
-0.325
-0.325
-0.335
-0.335
-0.33
-0.315
-0.31
-0.31
-0.285
-0.285
-0.295
-0.29
-0.295
-0.295
-0.305
-0.315
-0.31
-0.305
-0.285
-0.275
-0.275
-0.265
-0.275
-0.255
-0.27
-0.265
-0.26
-0.27
-0.275
-0.26
-0.25
-0.225
-0.225
-0.235
-0.26
-0.27
-0.275
-0.265
-0.26
-0.265
-0.26
-0.265
-0.26
-0.245
-0.245
-0.23
-0.23
-0.22
-0.215
-0.205
-0.19
-0.185
-0.175
-0.175
-0.165
-0.165
-0.165
-0.15
-0.155
-0.165
-0.16
-0.175
-0.185
-0.2
-0.205
-0.23
-0.215
-0.2
-0.185
-0.185
-0.185
-0.185
-0.21
-0.22
-0.225
-0.215
-0.205
-0.195
-0.19
-0.18
-0.18
-0.17
-0.175
-0.185
-0.19
-0.2
-0.215
-0.21
-0.2
-0.195
-0.19
-0.18
-0.175
-0.175
-0.17
-0.175
-0.175
-0.195
-0.19
-0.185
-0.185
-0.18
-0.17
-0.16
-0.145
-0.14
-0.14
-0.14
-0.15
-0.16
-0.165
-0.17
-0.18
-0.18
-0.165
-0.155
-0.145
-0.135
-0.135
-0.14
-0.16
-0.165
-0.16
-0.17
-0.16
-0.14
-0.125
-0.11
-0.1
-0.085
-0.08
-0.06
-0.065
-0.075
-0.065
-0.06
-0.045
-0.025
0.01
0.035
0.045
0.07
0.065
0.045
0.04
0.035
0.015
0.015
0.015
0.03
0.01
0.0
-0.025
-0.04
-0.065
-0.085
-0.115
-0.145
-0.17
-0.185
-0.185
-0.18
-0.16
-0.17
-0.165
-0.145
-0.175
-0.175
-0.195
-0.2
-0.2
-0.195
-0.19
-0.195
-0.195
-0.195
-0.19
-0.17
-0.135
-0.045
0.05
0.2
0.395
0.645
0.935
1.24
1.515
1.695
1.75
1.655
1.415
1.085
0.725
0.375
0.095
-0.1
-0.2
-0.245
-0.21
-0.175
-0.135
-0.125
-0.12
-0.145
-0.17
-0.2
-0.235
-0.245
-0.235
-0.225
-0.205
-0.215
-0.215
-0.21
-0.21
-0.215
-0.21
-0.215
-0.22
-0.235
-0.24
-0.22
-0.225
-0.205
-0.205
-0.19
-0.19
-0.19
-0.195
-0.205
-0.21
-0.205
-0.19
-0.195
-0.165
-0.165
-0.17
-0.17
-0.185
-0.175
-0.185
-0.18
-0.175
-0.175
-0.175
-0.18
-0.16
-0.155
-0.145
-0.13
-0.125
-0.13
-0.13
-0.13
-0.13
-0.13
-0.13
-0.115
-0.11
-0.1
-0.1
-0.085
-0.09
-0.075
-0.08
-0.09
-0.09
-0.09
-0.09
-0.08
-0.08
-0.07
-0.08
-0.065
-0.07
-0.075
-0.09
-0.085
-0.08
-0.08
-0.075
-0.06
-0.05
-0.03
-0.005
0.015
0.01
0.01
0.005
-0.005
-0.01
-0.005
-0.005
-0.01
0.0
0.015
0.025
0.02
0.0
0.0
-0.01
-0.02
-0.035
-0.045
-0.045
-0.05
-0.035
-0.025
-0.02
-0.005
-0.025
-0.025
-0.025
-0.015
-0.015
-0.015
-0.02
-0.015
-0.015
0.01
0.01
0.0
-0.01
-0.015
-0.02
-0.01
-0.005
-0.005
0.015
0.005
0.015
0.01
0.01
0.015
0.0
0.0
0.0
0.005
0.02
0.005
-0.01
0.0
0.005
0.01
0.005
0.025
0.015
0.01
0.005
0.0
-0.005
-0.005
-0.01
0.0
0.015
0.04
0.05
0.06
0.05
0.045
0.045
0.045
0.05
0.06
0.08
0.085
0.105
0.125
0.14
0.15
0.18
0.19
0.22
0.215
0.205
0.18
0.175
0.17
0.17
0.17
0.175
0.175
0.16
0.14
0.12
0.095
0.055
0.05
0.03
0.015
0.0
0.0
0.005
-0.005
-0.025
-0.03
-0.045
-0.055
-0.05
-0.06
-0.05
-0.05
-0.03
-0.025
-0.005
-0.005
-0.025
-0.045
-0.075
-0.09
-0.075
-0.02
0.075
0.23
0.415
0.63
0.88
1.155
1.41
1.635
1.785
1.82
1.72
1.535
1.275
0.975
0.675
0.405
0.215
0.08
0.01
-0.025
-0.025
-0.01
-0.01
-0.005
-0.02
-0.04
-0.06
-0.075
-0.075
-0.08
-0.07
-0.065
-0.07
-0.075
-0.105
-0.12
-0.115
-0.105
-0.11
-0.09
-0.085
-0.08
-0.075
-0.075
-0.08
-0.07
-0.065
-0.075
-0.07
-0.075
-0.105
-0.085
-0.065
-0.065
-0.04
-0.04
-0.04
-0.06
-0.07
-0.065
-0.06
-0.05
-0.05
-0.045
-0.025
-0.01
-0.005
-0.015
-0.025
-0.03
-0.045
-0.015
-0.005
0.0
0.01
0.015
0.02
0.03
0.02
0.025
0.01
0.01
-0.005
-0.005
0.015
0.04
0.025
0.045
0.055
0.06
0.06
0.055
0.03
0.04
0.03
0.04
0.035
0.04
0.04
0.04
0.06
0.065
0.075
0.1
0.085
0.095
0.1
0.115
0.115
0.125
0.14
0.145
0.145
0.13
0.12
0.14
0.13
0.135
0.135
0.125
0.115
0.105
0.125
0.135
0.14
0.14
0.125
0.125
0.11
0.11
0.105
0.105
0.115
0.115
0.13
0.145
0.165
0.155
0.145
0.125
0.125
0.135
0.125
0.105
0.1
0.1
0.135
0.145
0.16
0.165
0.15
0.15
0.14
0.15
0.14
0.13
0.12
0.125
0.145
0.14
0.16
0.15
0.145
0.135
0.12
0.115
0.12
0.12
0.12
0.13
0.145
0.15
0.16
0.16
0.145
0.125
0.11
0.11
0.125
0.155
0.17
0.17
0.165
0.155
0.155
0.185
0.19
0.225
0.235
0.255
0.27
0.285
0.32
0.33
0.335
0.31
0.3
0.295
0.295
0.29
0.29
0.27
0.25
0.24
0.22
0.195
0.17
0.145
0.145
0.13
0.125
0.11
0.09
0.085
0.095
0.095
0.1
0.105
0.1
0.105
0.1
0.085
0.07
0.07
0.055
0.07
0.08
0.09
0.095
0.145
0.2
0.32
0.48
0.7
0.965
1.265
1.54
1.77
1.905
1.895
1.75
1.485
1.165
0.835
0.555
0.335
0.185
0.105
0.075
0.06
0.08
0.11
0.13
0.12
0.1
0.08
0.06
0.04
0.015
0.015
0.015
0.02
0.025
0.035
0.025
0.015
0.02
0.02
0.025
0.025
0.025
0.035
0.035
0.03
0.03
0.03
0.02
0.015
0.015
0.015
0.02
0.035
0.035
0.045
0.05
0.06
0.045
0.05
0.06
0.05
0.05
0.05
0.06
0.06
0.075
0.07
0.08
0.08
0.08
0.085
0.08
0.085
0.095
0.1
0.115
0.12
0.125
0.12
0.125
0.12
0.11
0.12
0.14
0.16
0.18
0.17
0.175
0.17
0.17
0.175
0.165
0.17
0.16
0.175
0.19
0.175
0.175
0.155
0.145
0.16
0.17
0.19
0.18
0.18
0.18
0.195
0.21
0.235
0.245
0.265
0.28
0.3
0.295
0.295
0.285
0.27
0.265
0.265
0.28
0.295
0.3
0.295
0.285
0.275
0.27
0.27
0.26
0.25
0.25
0.245
0.225
0.24
0.275
0.28
0.27
0.29
0.28
0.285
0.285
0.27
0.255
0.255
0.255
0.265
0.275
0.295
0.295
0.295
0.305
0.32
0.31
0.305
0.305
0.285
0.265
0.27
0.27
0.3
0.32
0.335
0.33
0.33
0.33
0.315
0.315
0.305
0.29
0.295
0.295
0.29
0.305
0.31
0.33
0.335
0.34
0.33
0.31
0.29
0.28
0.29
0.3
0.295
0.31
0.33
0.32
0.335
0.335
0.35
0.34
0.34
0.36
0.37
0.38
0.4
0.41
0.42
0.425
0.45
0.45
0.47
0.52
0.535
0.545
0.535
0.52
0.5
0.49
0.49
0.48
0.47
0.445
0.45
0.435
0.425
0.405
0.385
0.38
0.365
0.375
0.365
0.355
0.345
0.335
0.34
0.33
0.325
0.335
0.33
0.335
0.345
0.345
0.33
0.305
0.295
0.28
0.285
0.275
0.29
0.295
0.315
0.335
0.415
0.53
0.685
0.885
1.135
1.395
1.66
1.905
2.07
2.115
2.025
1.81
1.52
1.2
0.895
0.645
0.455
0.35
0.29
0.275
0.32
0.36
0.385
0.395
0.4
0.375
0.365
0.34
0.32
0.32
0.32
0.33
0.35
0.355
0.365
0.36
0.355
0.365
0.38
0.37
0.36
0.345
0.355
0.36
0.36
0.375
0.37
0.385
0.385
0.375
0.385
0.395
0.39
0.415
0.405
0.415
0.405
0.41
0.405
0.43
0.435
0.44
0.455
0.465
0.475
0.47
0.46
0.465
0.47
0.485
0.465
0.48
0.485
0.495
0.505
0.52
0.5
0.505
0.53
0.53
0.535
0.54
0.555
0.57
0.585
0.6
0.615
0.62
0.62
0.62
0.62
0.62
0.62
0.6
0.605
0.63
0.625
0.63
0.63
0.63
0.63
0.63
0.63
0.63
0.63
0.645
0.67
0.685
0.705
0.705
0.73
0.72
0.745
0.755
0.745
0.74
0.75
0.765
0.78
0.775
0.78
0.77
0.77
0.78
0.78
0.785
0.79
0.785
0.78
0.785
0.77
0.77
0.78
0.775
0.795
0.795
0.825
0.81
0.795
0.785
0.79
0.8
0.81
0.82
0.84
0.855
0.86
0.84
0.84
0.84
0.83
0.825
0.825
0.84
0.85
0.875
0.905
0.915
0.915
0.895
0.87
0.85
0.85
0.85
0.86
0.88
0.885
0.905
0.915
0.93
0.94
0.93
0.92
0.905
0.905
0.9
0.895
0.91
0.92
0.915
0.925
0.935
0.94
0.935
0.93
0.945
0.94
0.935
0.935
0.945
0.95
0.97
0.985
1.0
1.04
1.035
1.06
1.06
1.05
1.06
1.06
1.08
1.105
1.125
1.16
1.19
1.185
1.185
1.17
1.155
1.16
1.145
1.145
1.13
1.135
1.125
1.12
1.11
1.1
1.1
1.08
1.04
1.005
0.985
0.975
0.985
0.995
1.01
1.01
1.035
1.045
1.025
1.02
1.0
0.995
1.0
0.995
1.005
0.995
0.995
0.98
0.99
1.01
1.06
1.16
1.275
1.45
1.69
1.965
2.245
2.49
2.665
2.745
2.705
2.535
2.26
1.93
1.585
1.27
1.05
0.925
0.89
0.895
0.955
1.01
1.07
1.105
1.105
1.09
1.055
1.03
1.01
0.985
0.98
0.975
1.0
1.03
1.045
1.06
1.05
1.045
1.035
1.03
1.005
0.99
1.005
1.01
1.025
1.04
1.045
1.03
1.03
1.025
1.035
1.02
1.025
1.015
1.02
1.02
1.025
1.03
1.055
1.045
1.055
1.05
1.04
1.04
1.045
1.05
1.045
1.05
1.045
1.055
1.07
1.085
1.1
1.1
1.105
1.105
1.095
1.085
1.09
1.08
1.085
1.08
1.1
1.11
1.1
1.115
1.12
1.1
1.08
1.07
1.05
1.055
1.07
1.08
1.095
1.1
1.105
1.105
1.09
1.09
1.09
1.095
1.115
1.12
1.135
1.14
1.15
1.155
1.16
1.165
1.18
1.18
1.18
1.16
1.135
1.13
1.105
1.125
1.155
1.16
1.155
1.15
1.14
1.11
1.085
1.07
1.055
1.075
1.1
1.12
1.145
1.13
1.115
1.11
1.095
1.085
1.075
1.07
1.07
1.075
1.085
1.105
1.105
1.105
1.11
1.11
1.115
1.1
1.09
1.055
1.05
1.05
1.07
1.075
1.09
1.1
1.09
1.095
1.09
1.085
1.09
1.07
1.065
1.08
1.07
1.065
1.065
1.055
1.055
1.045
1.05
1.035
1.015
0.985
1.005
1.02
1.045
1.065
1.075
1.08
1.05
1.05
1.015
1.005
0.995
1.005
1.03
1.04
1.055
1.065
1.075
1.07
1.08
1.085
1.105
1.12
1.145
1.15
1.15
1.12
1.11
1.1
1.12
1.13
1.12
1.125
1.105
1.075
1.045
0.99
0.965
0.95
0.95
0.935
0.945
0.915
0.885
0.875
0.875
0.865
0.86
0.86
0.845
0.83
0.825
0.825
0.82
0.825
0.835
0.85
0.86
0.865
0.84
0.815
0.8
0.815
0.86
0.965
1.12
1.34
1.585
1.845
2.1
2.295
2.4
2.39
2.28
2.04
1.745
1.395
1.065
0.805
0.62
0.545
0.545
0.585
0.645
0.685
0.69
0.7
0.68
0.665
0.65
0.65
0.645
0.65
0.635
0.64
0.625
0.61
0.61
0.6
0.605
0.6
0.61
0.615
0.63
0.61
0.6
0.585
0.585
0.57
0.565
0.565
0.57
0.565
0.57
0.565
0.555
0.555
0.56
0.565
0.555
0.555
0.54
0.535
0.525
0.53
0.525
0.535
0.53
0.54
0.545
0.54
0.53
0.525
0.53
0.515
0.515
0.505
0.515
0.51
0.525
0.515
0.51
0.495
0.495
0.485
0.49
0.48
0.495
0.5
0.49
0.475
0.44
0.44
0.445
0.44
0.44
0.425
0.415
0.405
0.395
0.4
0.395
0.39
0.39
0.4
0.405
0.385
0.4
0.395
0.4
0.42
0.425
0.44
0.435
0.445
0.445
0.425
0.41
0.365
0.35
0.32
0.335
0.335
0.335
0.345
0.35
0.35
0.34
0.325
0.285
0.265
0.25
0.25
0.255
0.255
0.24
0.245
0.25
0.25
0.25
0.26
0.235
0.225
0.21
0.205
0.205
0.195
0.195
0.195
0.215
0.225
0.23
0.225
0.21
0.205
0.185
0.185
0.19
0.18
0.175
0.155
0.17
0.165
0.17
0.16
0.155
0.16
0.17
0.17
0.18
0.185
0.195
0.195
0.21
0.215
0.215
0.195
0.17
0.155
0.155
0.15
0.16
0.155
0.165
0.16
0.15
0.125
0.085
0.04
0.005
-0.025
-0.025
-0.035
-0.035
-0.03
-0.015
-0.005
0.0
-0.005
-0.015
-0.035
-0.05
-0.065
-0.075
-0.095
-0.105
-0.11
-0.09
-0.055
0.01
0.12
0.28
0.5
0.755
1.03
1.27
1.455
1.55
1.525
1.365
1.105
0.755
0.415
0.1
-0.115
-0.24
-0.29
-0.29
-0.27
-0.23
-0.185
-0.155
-0.15
-0.17
-0.19
-0.21
-0.225
-0.235
-0.245
-0.245
-0.25
-0.235
-0.24
-0.245
-0.245
-0.24
-0.255
-0.27
-0.275
-0.285
-0.295
-0.315
-0.31
-0.305
-0.285
-0.285
-0.295
-0.3
-0.325
-0.34
-0.35
-0.33
-0.32
-0.31
-0.32
-0.325
-0.335
-0.325
-0.315
-0.32
-0.345
-0.365
-0.355
-0.38
-0.36
-0.355
-0.355
-0.38
-0.385
-0.4
-0.4
-0.385
-0.38
-0.38
-0.395
-0.405
-0.425
-0.435
-0.45
-0.435
-0.43
-0.415
-0.39
-0.375
-0.385
-0.405
-0.41
-0.43
-0.445
-0.45
-0.46
-0.47
-0.46
-0.445
-0.44
-0.415
-0.435
-0.465
-0.49
-0.51
-0.515
-0.51
-0.505
-0.51
-0.505
-0.48
-0.445
-0.43
-0.415
-0.415
-0.42
-0.44
-0.45
-0.445
-0.455
-0.46
-0.46
-0.465
-0.47
-0.47
-0.46
-0.47
-0.49
-0.5
-0.505
-0.51
-0.525
-0.54
-0.545
-0.525
-0.51
-0.5
-0.51
-0.535
-0.55
-0.58
-0.58
-0.575
-0.58
-0.59
-0.58
-0.56
-0.545
-0.525
-0.525
-0.53
-0.54
-0.545
-0.545
-0.555
-0.56
-0.585
-0.57
-0.565
-0.55
-0.54
-0.54
-0.55
-0.57
-0.575
-0.58
-0.59
-0.605
-0.605
-0.605
-0.595
-0.58
-0.575
-0.57
-0.6
-0.605
-0.62
-0.625
-0.635
-0.655
-0.66
-0.66
-0.66
-0.645
-0.645
-0.645
-0.66
-0.675
-0.68
-0.685
-0.69
-0.705
-0.715
-0.72
-0.715
-0.71
-0.71
-0.705
-0.72
-0.715
-0.705
-0.72
-0.75
-0.765
-0.78
-0.785
-0.785
-0.77
-0.765
-0.76
-0.755
-0.755
-0.76
-0.755
-0.76
-0.765
-0.755
-0.735
-0.72
-0.705
-0.69
-0.68
-0.675
-0.675
-0.66
-0.675
-0.665
-0.68
-0.67
-0.66
-0.655
-0.655
-0.67
-0.68
-0.705
-0.705
-0.72
-0.75
-0.79
-0.825
-0.845
-0.84
-0.855
-0.865
-0.875
-0.885
-0.9
-0.9
-0.9
-0.92
-0.92
-0.93
-0.93
-0.92
-0.905
-0.905
-0.915
-0.92
-0.93
-0.92
-0.93
-0.945
-0.95
-0.94
-0.875
-0.775
-0.605
-0.405
-0.165
0.1
0.38
0.645
0.84
0.915
0.855
0.635
0.325
-0.035
-0.395
-0.71
-0.93
-1.065
-1.11
-1.1
-1.075
-1.035
-1.015
-1.015
-1.025
-1.04
-1.05
-1.055
-1.05
-1.065
-1.06
-1.065
-1.08
-1.09
-1.105
-1.135
-1.13
-1.135
-1.13
-1.11
-1.1
-1.095
-1.095
-1.1
-1.09
-1.095
-1.1
-1.12
-1.14
-1.155
-1.155
-1.135
-1.125
-1.105
-1.1
-1.105
-1.11
-1.11
-1.12
-1.135
-1.145
-1.14
-1.14
-1.105
-1.09
-1.07
-1.085
-1.09
-1.115
-1.14
-1.14
-1.145
-1.14
-1.135
-1.13
-1.135
-1.12
-1.105
-1.105
-1.105
-1.1
-1.085
-1.08
-1.085
-1.09
-1.105
-1.1
-1.095
-1.08
-1.06
-1.05
-1.06
-1.06
-1.065
-1.075
-1.095
-1.1
-1.105
-1.105
-1.095
-1.08
-1.07
-1.07
-1.08
-1.08
-1.08
-1.075
-1.065
-1.055
-1.04
-1.025
-1.02
-0.99
-0.97
-0.96
-0.96
-0.975
-0.985
-0.98
-0.995
-1.01
-1.02
-1.025
-1.03
-1.03
-1.01
-1.015
-1.015
-1.02
-1.04
-1.055
-1.055
-1.055
-1.06
-1.065
-1.06
-1.055
-1.045
-1.04
-1.045
-1.05
-1.055
-1.06
-1.065
-1.06
-1.065
-1.07
-1.065
-1.065
-1.045
-1.045
-1.035
-1.04
-1.05
-1.04
-1.055
-1.065
-1.065
-1.07
-1.075
-1.075
-1.055
-1.06
-1.065
-1.075
-1.08
-1.09
-1.08
-1.08
-1.08
-1.085
-1.08
-1.07
-1.055
-1.06
-1.085
-1.09
-1.11
-1.11
-1.13
-1.135
-1.135
-1.13
-1.11
-1.1
-1.09
-1.09
-1.11
-1.105
-1.115
-1.1
-1.11
-1.11
-1.105
-1.1
-1.07
-1.065
-1.04
-1.025
-1.015
-1.0
-0.99
-0.98
-0.985
-1.0
-1.005
-1.015
-0.995
-0.98
-0.975
-0.98
-0.995
-0.995
-1.04
-1.07
-1.105
-1.145
-1.165
-1.185
-1.19
-1.185
-1.18
-1.18
-1.185
-1.19
-1.215
-1.235
-1.24
-1.235
-1.23
-1.235
-1.23
-1.23
-1.22
-1.225
-1.25
-1.27
-1.26
-1.22
-1.13
-0.97
-0.735
-0.465
-0.16
0.14
0.4
0.6
0.67
0.58
0.35
0.025
-0.34
-0.69
-0.985
-1.185
-1.315
-1.35
-1.335
-1.295
-1.265
-1.25
-1.25
-1.26
-1.285
-1.31
-1.325
-1.34
-1.345
-1.33
-1.315
-1.31
-1.31
-1.325
-1.345
-1.35
-1.355
-1.34
-1.34
-1.35
-1.335
-1.325
-1.32
-1.31
-1.325
-1.335
-1.35
-1.345
-1.355
-1.355
-1.345
-1.34
-1.33
-1.32
-1.31
-1.3
-1.295
-1.31
-1.315
-1.305
-1.32
-1.305
-1.32
-1.33
-1.335
-1.36
-1.325
-1.31
-1.285
-1.305
-1.3
-1.295
-1.305
-1.295
-1.275
-1.27
-1.26
-1.26
-1.245
-1.245
-1.24
-1.245
-1.25
-1.265
-1.275
-1.26
-1.25
-1.245
-1.24
-1.23
-1.225
-1.215
-1.215
-1.225
-1.24
-1.26
-1.265
-1.26
-1.265
-1.245
-1.24
-1.235
-1.22
-1.225
-1.21
-1.21
-1.22
-1.22
-1.22
-1.21
-1.2
-1.185
-1.18
-1.175
-1.175
-1.17
-1.155
-1.15
-1.165
-1.19
-1.205
-1.215
-1.23
-1.205
-1.195
-1.205
-1.195
-1.195
-1.205
-1.195
-1.205
-1.22
-1.235
-1.235
-1.235
-1.215
-1.2
-1.2
-1.19
-1.185
-1.185
-1.175
-1.18
-1.19
-1.195
-1.21
-1.225
-1.205
-1.19
-1.19
-1.16
-1.17
-1.185
-1.18
-1.2
-1.2
-1.2
-1.21
-1.23
-1.21
-1.2
-1.18
-1.175
-1.17
-1.17
-1.185
-1.19
-1.205
-1.205
-1.21
-1.215
-1.205
-1.2
-1.19
-1.18
-1.185
-1.175
-1.185
-1.2
-1.2
-1.195
-1.18
-1.18
-1.195
-1.19
-1.195
-1.185
-1.21
-1.205
-1.21
-1.22
-1.21
-1.205
-1.185
-1.185
-1.175
-1.18
-1.175
-1.15
-1.135
-1.115
-1.11
-1.11
-1.12
-1.095
-1.08
-1.06
-1.045
-1.055
-1.055
-1.05
-1.035
-1.04
-1.05
-1.065
-1.075
-1.09
-1.1
-1.125
-1.145
-1.17
-1.18
-1.18
-1.18
-1.18
-1.205
-1.235
-1.245
-1.255
-1.245
-1.24
-1.245
-1.255
-1.255
-1.265
-1.26
-1.25
-1.26
-1.27
-1.26
-1.255
-1.255
-1.26
-1.27
-1.26
-1.225
-1.13
-1.0
-0.82
-0.595
-0.34
-0.065
0.225
0.48
0.655
0.7
0.59
0.365
0.055
-0.31
-0.665
-0.965
-1.18
-1.325
-1.365
-1.335
-1.275
-1.23
-1.19
-1.195
-1.205
-1.215
-1.24
-1.275
-1.29
-1.295
-1.315
-1.295
-1.295
-1.3
-1.29
-1.29
-1.285
-1.28
-1.285
-1.29
-1.29
-1.28
-1.28
-1.27
-1.275
-1.275
-1.29
-1.29
-1.28
-1.27
-1.27
-1.27
-1.27
-1.27
-1.265
-1.26
-1.26
-1.265
-1.275
-1.275
-1.26
-1.245
-1.225
-1.235
-1.235
-1.24
-1.245
-1.245
-1.24
-1.23
-1.235
-1.235
-1.225
-1.21
-1.205
-1.215
-1.235
-1.24
-1.22
-1.2
-1.18
-1.175
-1.19
-1.18
-1.17
-1.165
-1.15
-1.15
-1.155
-1.155
-1.165
-1.165
-1.15
-1.145
-1.145
-1.15
-1.145
-1.15
-1.155
-1.16
-1.175
-1.18
-1.165
-1.15
-1.135
-1.125
-1.115
-1.115
-1.105
-1.095
-1.09
-1.08
-1.08
-1.09
-1.09
-1.095
-1.095
-1.07
-1.08
-1.095
-1.085
-1.08
-1.085
-1.09
-1.095
-1.115
-1.13
-1.125
-1.12
-1.115
-1.115
-1.115
-1.11
-1.115
-1.11
-1.115
-1.11
-1.115
-1.12
-1.115
-1.11
-1.095
-1.07
-1.065
-1.08
-1.085
-1.115
-1.095
-1.085
-1.08
-1.09
-1.11
-1.11
-1.105
-1.1
-1.075
-1.07
-1.09
-1.09
-1.09
-1.09
-1.085
-1.09
-1.085
-1.085
-1.07
-1.07
-1.06
-1.05
-1.055
-1.065
-1.07
-1.08
-1.085
-1.085
-1.08
-1.085
-1.085
-1.07
-1.06
-1.065
-1.06
-1.055
-1.07
-1.075
-1.075
-1.07
-1.085
-1.085
-1.095
-1.08
-1.07
-1.06
-1.055
-1.03
-1.03
-1.035
-1.035
-1.03
-1.015
-1.015
-1.015
-1.0
-0.975
-0.95
-0.915
-0.905
-0.895
-0.915
-0.93
-0.945
-0.945
-0.94
-0.945
-0.955
-0.945
-0.95
-0.96
-0.965
-1.0
-1.02
-1.04
-1.08
-1.08
-1.085
-1.1
-1.105
-1.12
-1.11
-1.105
-1.09
-1.09
-1.095
-1.12
-1.13
-1.13
-1.125
-1.135
-1.13
-1.12
-1.115
-1.105
-1.09
-1.115
-1.135
-1.13
-1.075
-0.995
-0.85
-0.65
-0.405
-0.125
0.175
0.46
0.695
0.845
0.86
0.715
0.47
0.13
-0.25
-0.575
-0.85
-1.035
-1.125
-1.17
-1.16
-1.11
-1.08
-1.07
-1.07
-1.095
-1.125
-1.145
-1.165
-1.175
-1.18
-1.175
-1.15
-1.145
-1.14
-1.15
-1.18
-1.18
-1.18
-1.165
-1.175
-1.18
-1.175
-1.17
-1.15
-1.145
-1.145
-1.15
-1.165
-1.16
-1.145
-1.14
-1.14
-1.13
-1.13
-1.125
-1.13
-1.11
-1.105
-1.13
-1.125
-1.135
-1.13
-1.125
-1.115
-1.105
-1.095
-1.09
-1.07
-1.07
-1.075
-1.085
-1.1
-1.1
-1.095
-1.08
-1.075
-1.055
-1.045
-1.035
-1.025
-1.045
-1.035
-1.04
-1.045
-1.035
-1.035
-1.025
-1.02
-1.015
-0.985
-0.985
-0.98
-0.985
-1.01
-1.015
-1.03
-1.035
-1.03
-1.03
-1.025
-1.005
-0.985
-0.98
-0.985
-0.98
-0.98
-0.985
-0.98
-0.985
-0.99
-0.98
-0.96
-0.95
-0.935
-0.94
-0.95
-0.965
-0.975
-0.995
-1.005
-1.015
-1.005
-1.005
-0.995
-0.97
-0.96
-0.975
-1.0
-1.0
-1.0
-1.0
-1.01
-1.0
-1.015
-1.01
-0.995
-0.975
-0.965
-0.98
-0.97
-0.975
-0.985
-1.0
-1.0
-0.985
-0.99
-0.99
-0.96
-0.945
-0.935
-0.935
-0.965
-0.965
-0.97
-0.975
-0.97
-0.98
-0.975
-0.96
-0.945
-0.925
-0.93
-0.95
-0.95
-0.955
-0.955
-0.96
-0.97
-0.96
-0.96
-0.95
-0.94
-0.92
-0.91
-0.915
-0.93
-0.945
-0.96
-0.96
-0.95
-0.97
-0.975
-0.96
-0.945
-0.915
-0.905
-0.9
-0.905
-0.905
-0.895
-0.895
-0.9
-0.89
-0.885
-0.875
-0.84
-0.815
-0.775
-0.785
-0.785
-0.8
-0.815
-0.825
-0.82
-0.825
-0.84
-0.835
-0.835
-0.83
-0.825
-0.835
-0.86
-0.9
-0.93
-0.955
-0.96
-0.985
-0.99
-0.995
-1.005
-1.01
-0.99
-0.99
-0.995
-1.01
-1.02
-1.025
-1.025
-1.03
-1.025
-1.03
-1.025
-1.03
-1.01
-1.03
-1.025
-1.03
-0.99
-0.91
-0.78
-0.61
-0.38
-0.115
0.185
0.495
0.77
0.92
0.94
0.8
0.555
0.235
-0.095
-0.42
-0.685
-0.895
-1.015
-1.06
-1.04
-1.015
-0.985
-0.97
-0.99
-1.005
-1.02
-1.055
-1.09
-1.09
-1.085
-1.07
-1.05
-1.045
-1.05
-1.065
-1.08
-1.085
-1.085
-1.07
-1.075
-1.07
-1.08
-1.065
-1.05
-1.055
-1.035
-1.045
-1.06
-1.065
-1.075
-1.065
-1.065
-1.05
-1.06
-1.06
-1.04
-1.025
-1.02
-1.025
-1.04
-1.04
-1.045
-1.035
-1.04
-1.03
-1.025
-1.02
-1.005
-0.995
-1.005
-1.015
-1.01
-1.02
-1.01
-1.0
-1.005
-1.0
-0.995
-0.97
-0.95
-0.94
-0.945
-0.955
-0.965
-0.96
-0.965
-0.945
-0.95
-0.945
-0.94
-0.925
-0.91
-0.91
-0.91
-0.915
-0.93
-0.93
-0.925
-0.93
-0.93
-0.945
-0.93
-0.915
-0.88
-0.88
-0.875
-0.905
-0.895
-0.895
-0.875
-0.885
-0.89
-0.885
-0.885
-0.87
-0.86
-0.87
-0.89
-0.885
-0.89
-0.9
-0.885
-0.9
-0.905
-0.92
-0.9
-0.895
-0.885
-0.885
-0.9
-0.905
-0.915
-0.915
-0.91
-0.925
-0.91
-0.91
-0.89
-0.88
-0.875
-0.895
-0.89
-0.895
-0.895
-0.91
-0.91
-0.93
-0.93
-0.915
-0.9
-0.89
-0.89
-0.89
-0.885
-0.88
-0.88
-0.89
-0.905
-0.93
-0.905
-0.865
-0.86
-0.855
-0.86
-0.865
-0.865
-0.865
-0.87
-0.875
-0.88
-0.88
-0.88
-0.87
-0.87
-0.87
-0.87
-0.87
-0.865
-0.875
-0.875
-0.895
-0.9
-0.885
-0.87
-0.845
-0.83
-0.83
-0.82
-0.82
-0.805
-0.805
-0.805
-0.81
-0.8
-0.785
-0.75
-0.72
-0.71
-0.72
-0.715
-0.725
-0.715
-0.715
-0.715
-0.735
-0.755
-0.765
-0.77
-0.785
-0.81
-0.825
-0.83
-0.855
-0.885
-0.89
-0.91
-0.92
-0.925
-0.93
-0.92
-0.905
-0.925
-0.91
-0.905
-0.915
-0.92
-0.925
-0.95
-0.96
-0.965
-0.95
-0.95
-0.96
-0.93
-0.865
-0.765
-0.635
-0.435
-0.185
0.12
0.415
0.705
0.925
1.025
0.96
0.785
0.5
0.155
-0.195
-0.495
-0.72
-0.875
-0.94
-0.965
-0.935
-0.905
-0.88
-0.87
-0.88
-0.885
-0.905
-0.935
-0.95
-0.965
-0.975
-0.965
-0.965
-0.965
-0.965
-0.955
-0.95
-0.94
-0.94
-0.955
-0.96
-0.975
-0.965
-0.96
-0.945
-0.935
-0.94
-0.93
-0.925
-0.92
-0.915
-0.925
-0.95
-0.945
-0.95
-0.94
-0.925
-0.92
-0.925
-0.92
-0.905
-0.9
-0.89
-0.89
-0.905
-0.91
-0.9
-0.9
-0.895
-0.88
-0.89
-0.875
-0.865
-0.86
-0.84
-0.855
-0.86
-0.865
-0.865
-0.855
-0.845
-0.835
-0.82
-0.81
-0.795
-0.78
-0.78
-0.785
-0.79
-0.795
-0.795
-0.79
-0.79
-0.8
-0.78
-0.78
-0.785
-0.775
-0.77
-0.775
-0.77
-0.785
-0.785
-0.79
-0.775
-0.765
-0.765
-0.75
-0.735
-0.74
-0.715
-0.715
-0.715
-0.73
-0.73
-0.73
-0.73
-0.715
-0.705
-0.72
-0.73
-0.73
-0.72
-0.71
-0.715
-0.73
-0.745
-0.76
-0.765
-0.745
-0.73
-0.735
-0.735
-0.72
-0.71
-0.705
-0.71
-0.73
-0.74
-0.75
-0.75
-0.74
-0.72
-0.715
-0.705
-0.695
-0.705
-0.705
-0.69
-0.705
-0.725
-0.74
-0.72
-0.71
-0.695
-0.7
-0.7
-0.69
-0.68
-0.675
-0.665
-0.66
-0.685
-0.695
-0.7
-0.69
-0.68
-0.665
-0.66
-0.655
-0.65
-0.65
-0.655
-0.65
-0.67
-0.685
-0.705
-0.7
-0.68
-0.665
-0.655
-0.65
-0.655
-0.655
-0.655
-0.66
-0.66
-0.68
-0.675
-0.67
-0.65
-0.62
-0.615
-0.61
-0.605
-0.59
-0.595
-0.595
-0.58
-0.575
-0.565
-0.55
-0.525
-0.5
-0.47
-0.47
-0.485
-0.495
-0.505
-0.505
-0.505
-0.525
-0.54
-0.535
-0.55
-0.56
-0.565
-0.575
-0.595
-0.625
-0.645
-0.66
-0.67
-0.675
-0.695
-0.7
-0.7
-0.69
-0.685
-0.665
-0.675
-0.69
-0.68
-0.685
-0.7
-0.7
-0.705
-0.705
-0.715
-0.705
-0.7
-0.69
-0.67
-0.625
-0.54
-0.4
-0.215
0.005
0.265
0.525
0.805
1.055
1.225
1.26
1.14
0.895
0.575
0.22
-0.11
-0.37
-0.555
-0.68
-0.725
-0.72
-0.67
-0.64
-0.605
-0.61
-0.625
-0.65
-0.69
-0.71
-0.735
-0.75
-0.735
-0.73
-0.705
-0.7
-0.68
-0.68
-0.69
-0.705
-0.715
-0.715
-0.705
-0.7
-0.71
-0.71
-0.71
-0.705
-0.695
-0.695
-0.69
-0.695
-0.71
-0.695
-0.695
-0.685
-0.685
-0.675
-0.675
-0.675
-0.675
-0.66
-0.645
-0.655
-0.675
-0.67
-0.67
-0.67
-0.655
-0.645
-0.635
-0.635
-0.635
-0.625
-0.62
-0.635
-0.645
-0.65
-0.64
-0.62
-0.61
-0.59
-0.585
-0.585
-0.585
-0.575
-0.555
-0.555
-0.565
-0.56
-0.565
-0.565
-0.545
-0.535
-0.53
-0.535
-0.535
-0.545
-0.52
-0.51
-0.52
-0.53
-0.545
-0.545
-0.535
-0.53
-0.52
-0.51
-0.52
-0.51
-0.49
-0.485
-0.49
-0.5
-0.505
