Lead II
-0.43
-0.42
-0.395
-0.335
-0.23
-0.085
0.095
0.325
0.6
0.89
1.165
1.4
1.555
1.565
1.445
1.18
0.79
0.32
-0.205
-0.72
-1.18
-1.475
-1.585
-1.52
-1.31
-1.07
-0.86
-0.705
-0.575
-0.515
-0.49
-0.5
-0.52
-0.53
-0.54
-0.54
-0.515
-0.49
-0.465
-0.445
-0.415
-0.39
-0.375
-0.365
-0.345
-0.33
-0.31
-0.29
-0.265
-0.245
-0.23
-0.22
-0.18
-0.15
-0.13
-0.1
-0.09
-0.075
-0.055
-0.055
-0.06
-0.05
-0.04
-0.02
-0.005
0.01
0.035
0.055
0.06
0.075
0.07
0.075
0.08
0.08
0.09
0.095
0.115
0.135
0.14
0.15
0.155
0.175
0.185
0.175
0.185
0.195
0.185
0.19
0.2
0.215
0.225
0.215
0.22
0.23
0.215
0.21
0.2
0.195
0.175
0.165
0.185
0.195
0.195
0.19
0.2
0.185
0.155
0.13
0.1
0.07
0.03
0.0
-0.005
-0.025
-0.035
-0.055
-0.07
-0.1
-0.11
-0.15
-0.17
-0.2
-0.205
-0.225
-0.23
-0.225
-0.235
-0.225
-0.225
-0.245
-0.25
-0.245
-0.25
-0.24
-0.24
-0.245
-0.24
-0.23
-0.225
-0.225
-0.215
-0.21
-0.2
-0.225
-0.225
-0.23
-0.22
-0.23
-0.235
-0.23
-0.23
-0.21
-0.215
-0.21
-0.21
-0.22
-0.23
-0.245
-0.25
-0.245
-0.24
-0.23
-0.22
-0.21
-0.22
-0.225
-0.21
-0.225
-0.23
-0.235
-0.24
-0.235
-0.22
-0.21
-0.19
-0.18
-0.18
-0.17
-0.17
-0.17
-0.16
-0.14
-0.125
-0.1
-0.08
-0.08
-0.065
-0.06
-0.055
-0.045
-0.045
-0.035
-0.05
-0.03
-0.04
-0.05
-0.06
-0.08
-0.075
-0.095
-0.09
-0.1
-0.11
-0.14
-0.165
-0.195
-0.225
-0.26
-0.275
-0.285
-0.3
-0.315
-0.325
-0.345
-0.365
-0.395
-0.415
-0.435
-0.44
-0.445
-0.445
-0.43
-0.425
-0.41
-0.43
-0.44
-0.44
-0.46
-0.47
-0.475
-0.475
-0.48
-0.46
-0.44
-0.415
-0.41
-0.375
-0.36
-0.35
-0.365
-0.365
-0.375
-0.365
-0.37
-0.37
-0.355
-0.315
-0.24
-0.125
0.03
0.215
0.435
0.68
0.93
1.155
1.325
1.395
1.34
1.14
0.8
0.335
-0.24
-0.815
-1.305
-1.65
-1.725
-1.58
-1.3
-1.01
-0.73
-0.505
-0.35
-0.23
-0.18
-0.16
-0.17
-0.18
-0.205
-0.2
-0.2
-0.195
-0.175
-0.165
-0.15
-0.155
-0.145
-0.15
-0.14
-0.145
-0.14
-0.145
-0.165
-0.15
-0.14
-0.135
-0.115
-0.12
-0.095
-0.095
-0.095
-0.115
-0.115
-0.105
-0.1
-0.09
-0.08
-0.06
-0.045
-0.035
-0.01
-0.005
-0.005
0.02
0.025
0.045
0.055
0.09
0.095
0.12
0.15
0.16
0.18
0.185
0.205
0.225
0.225
0.245
0.24
0.26
0.27
0.27
0.28
0.275
0.275
0.285
0.26
0.26
0.245
0.24
0.24
0.24
0.23
0.24
0.235
0.235
0.225
0.205
0.175
0.135
0.12
0.095
0.055
0.025
0.015
-0.015
-0.04
-0.065
-0.09
-0.12
-0.155
-0.17
-0.2
-0.215
-0.225
-0.23
-0.245
-0.255
-0.28
-0.285
-0.275
-0.265
-0.27
-0.275
-0.265
-0.285
-0.285
-0.275
-0.265
-0.26
-0.255
-0.25
-0.235
-0.23
-0.25
-0.25
-0.26
-0.28
-0.265
-0.26
-0.25
-0.245
-0.24
-0.24
-0.25
-0.25
-0.26
-0.265
-0.27
-0.265
-0.265
-0.265
-0.265
-0.265
-0.255
-0.275
-0.285
-0.29
-0.295
-0.29
-0.3
-0.31
-0.31
-0.31
-0.29
-0.295
-0.27
-0.265
-0.25
-0.23
-0.235
-0.225
-0.225
-0.225
-0.23
-0.205
-0.205
-0.18
-0.17
-0.155
-0.155
-0.17
-0.19
-0.23
-0.245
-0.26
-0.27
-0.27
-0.265
-0.28
-0.295
-0.31
-0.325
-0.34
-0.355
-0.375
-0.38
-0.39
-0.41
-0.43
-0.425
-0.445
-0.445
-0.445
-0.445
-0.44
-0.43
-0.435
-0.445
-0.445
-0.445
-0.445
-0.45
-0.455
-0.445
-0.44
-0.425
-0.42
-0.425
-0.425
-0.45
-0.45
-0.44
-0.445
-0.425
-0.4
-0.385
-0.375
-0.37
-0.37
-0.34
-0.295
-0.2
-0.06
0.115
0.31
0.55
0.795
1.035
1.24
1.335
1.345
1.19
0.875
0.43
-0.09
-0.66
-1.16
-1.515
-1.675
-1.61
-1.395
-1.14
-0.9
-0.695
-0.565
-0.465
-0.41
-0.385
-0.385
-0.375
-0.365
-0.35
-0.34
-0.335
-0.33
-0.335
-0.33
-0.325
-0.325
-0.32
-0.32
-0.3
-0.285
-0.28
-0.28
-0.265
-0.27
-0.265
-0.265
-0.265
-0.275
-0.26
-0.25
-0.235
-0.22
-0.2
-0.19
-0.18
-0.165
-0.165
-0.165
-0.15
-0.14
-0.13
-0.11
-0.09
-0.075
-0.055
-0.035
-0.025
-0.025
-0.02
-0.005
-0.01
-0.01
0.0
0.005
0.015
0.015
0.03
0.03
0.035
0.04
0.025
0.025
0.02
0.005
-0.01
-0.005
-0.005
0.005
0.005
0.005
0.015
0.01
0.005
0.01
0.01
0.0
-0.005
-0.005
-0.01
-0.02
-0.035
-0.065
-0.1
-0.135
-0.185
-0.22
-0.275
-0.305
-0.33
-0.365
-0.395
-0.435
-0.455
-0.48
-0.49
-0.505
-0.53
-0.54
-0.56
-0.575
-0.585
-0.6
-0.585
-0.58
-0.59
-0.585
-0.58
-0.58
-0.58
-0.56
-0.56
-0.555
-0.555
-0.525
-0.51
-0.49
-0.465
-0.445
-0.415
-0.395
-0.385
-0.375
-0.375
-0.375
-0.36
-0.345
-0.335
-0.31
-0.295
-0.29
-0.28
-0.275
-0.275
-0.285
-0.285
-0.295
-0.275
-0.29
-0.285
-0.275
-0.275
-0.275
-0.28
-0.285
-0.3
-0.295
-0.305
-0.31
-0.315
-0.325
-0.33
-0.325
-0.315
-0.31
-0.295
-0.29
-0.285
-0.275
-0.29
-0.275
-0.27
-0.25
-0.235
-0.225
-0.205
-0.205
-0.185
-0.19
-0.18
-0.18
-0.18
-0.185
-0.205
-0.22
-0.23
-0.245
-0.25
-0.255
-0.27
-0.28
-0.31
-0.33
-0.36
-0.375
-0.4
-0.415
-0.41
-0.415
-0.415
-0.415
-0.435
-0.44
-0.44
-0.465
-0.47
-0.465
-0.46
-0.45
-0.445
-0.455
-0.43
-0.425
-0.425
-0.415
-0.42
-0.425
-0.445
-0.44
-0.445
-0.425
-0.415
-0.42
-0.395
-0.38
-0.375
-0.375
-0.375
-0.365
-0.35
-0.33
-0.28
-0.185
-0.055
0.12
0.34
0.58
0.83
1.07
1.27
1.41
1.415
1.305
1.055
0.675
0.205
-0.33
-0.865
-1.3
-1.615
-1.685
-1.53
-1.23
-0.945
-0.695
-0.495
-0.37
-0.305
-0.285
-0.285
-0.305
-0.325
-0.325
-0.325
-0.32
-0.32
-0.305
-0.3
-0.285
-0.27
-0.27
-0.26
-0.255
-0.245
-0.24
-0.26
-0.26
-0.245
-0.235
-0.235
-0.215
-0.21
-0.2
-0.195
-0.175
-0.165
-0.17
-0.145
-0.145
-0.15
-0.15
-0.135
-0.135
-0.105
-0.07
-0.045
-0.025
0.0
0.0
0.005
0.015
0.03
0.045
0.055
0.07
0.1
0.12
0.13
0.155
0.165
0.18
0.175
0.175
0.165
0.175
0.175
0.18
0.18
0.18
0.19
0.19
0.195
0.195
0.195
0.195
0.185
0.18
0.175
0.165
0.155
0.15
0.14
0.115
0.105
0.08
0.05
0.02
-0.01
-0.04
-0.055
-0.075
-0.09
-0.095
-0.1
-0.1
-0.105
-0.115
-0.14
-0.16
-0.16
-0.19
-0.18
-0.195
-0.195
-0.195
-0.18
-0.19
-0.18
-0.175
-0.165
-0.155
-0.155
-0.15
-0.16
-0.16
-0.16
-0.155
-0.14
-0.135
-0.125
-0.115
-0.13
-0.135
-0.14
-0.155
-0.16
-0.17
-0.18
-0.19
-0.195
-0.22
-0.225
-0.235
-0.255
-0.27
-0.28
-0.3
-0.3
-0.31
-0.32
-0.325
-0.345
-0.35
-0.36
-0.355
-0.355
-0.34
-0.34
-0.315
-0.315
-0.305
-0.27
-0.25
-0.225
-0.195
-0.17
-0.155
-0.15
-0.115
-0.125
-0.125
-0.125
-0.115
-0.11
-0.095
-0.07
-0.075
-0.08
-0.075
-0.095
-0.115
-0.14
-0.165
-0.19
-0.2
-0.215
-0.235
-0.255
-0.265
-0.285
-0.32
-0.345
-0.365
-0.395
-0.415
-0.415
-0.435
-0.45
-0.47
-0.48
-0.5
-0.5
-0.495
-0.49
-0.5
-0.51
-0.49
-0.49
-0.495
-0.5
-0.5
-0.475
-0.465
-0.465
-0.45
-0.455
-0.465
-0.46
-0.46
-0.455
-0.465
-0.45
-0.435
-0.42
-0.405
-0.39
-0.385
-0.375
-0.365
-0.31
-0.245
-0.12
0.02
0.22
0.455
0.7
0.955
1.185
1.355
1.44
1.41
1.255
0.975
0.575
0.075
-0.48
-1.035
-1.475
-1.74
-1.775
-1.61
-1.315
-1.035
-0.775
-0.595
-0.485
-0.405
-0.37
-0.36
-0.35
-0.365
-0.36
-0.36
-0.355
-0.36
-0.36
-0.345
-0.355
-0.35
-0.335
-0.315
-0.305
-0.3
-0.29
-0.29
-0.29
-0.295
-0.295
-0.285
-0.28
-0.285
-0.27
-0.26
-0.255
-0.235
-0.23
-0.23
-0.22
-0.215
-0.21
-0.195
-0.2
-0.19
-0.165
-0.145
-0.13
-0.105
-0.085
-0.065
-0.05
-0.04
-0.03
-0.025
-0.015
0.0
0.015
0.045
0.07
0.095
0.12
0.125
0.135
0.13
0.135
0.14
0.14
0.145
0.145
0.165
0.175
0.18
0.175
0.18
0.17
0.165
0.155
0.145
0.14
0.155
0.155
0.135
0.13
0.11
0.105
0.085
0.06
0.02
-0.01
-0.045
-0.08
-0.115
-0.13
-0.165
-0.18
-0.19
-0.2
-0.225
-0.245
-0.285
-0.29
-0.31
-0.325
-0.34
-0.36
-0.355
-0.355
-0.345
-0.34
-0.345
-0.35
-0.355
-0.355
-0.365
-0.37
-0.37
-0.35
-0.345
-0.33
-0.32
-0.325
-0.325
-0.325
-0.335
-0.32
-0.32
-0.325
-0.325
-0.32
-0.33
-0.325
-0.315
-0.315
-0.315
-0.305
-0.315
-0.32
-0.34
-0.35
-0.365
-0.37
-0.36
-0.375
-0.365
-0.37
-0.39
-0.39
-0.415
-0.445
-0.45
-0.465
-0.465
-0.47
-0.46
-0.465
-0.465
-0.455
-0.465
-0.47
-0.485
-0.49
-0.485
-0.48
-0.47
-0.47
-0.47
-0.46
-0.47
-0.455
-0.455
-0.445
-0.44
-0.435
-0.455
-0.455
-0.465
-0.475
-0.495
-0.495
-0.5
-0.515
-0.515
-0.53
-0.545
-0.58
-0.595
-0.62
-0.65
-0.655
-0.66
-0.67
-0.675
-0.69
-0.695
-0.71
-0.72
-0.72
-0.72
-0.7
-0.705
-0.685
-0.68
-0.665
-0.66
-0.645
-0.64
-0.635
-0.625
-0.625
-0.6
-0.6
-0.595
-0.58
-0.575
-0.555
-0.54
-0.52
-0.5
-0.495
-0.49
-0.47
-0.475
-0.45
-0.41
-0.32
-0.21
-0.06
0.13
0.355
0.61
0.865
1.125
1.315
1.42
1.39
1.18
0.85
0.37
-0.215
-0.805
-1.33
-1.705
-1.83
-1.71
-1.445
-1.125
-0.87
-0.655
-0.52
-0.45
-0.42
-0.42
-0.415
-0.42
-0.425
-0.425
-0.415
-0.405
-0.39
-0.385
-0.385
-0.35
-0.345
-0.34
-0.33
-0.32
-0.32
-0.325
-0.34
-0.33
-0.33
-0.32
-0.305
-0.3
-0.29
-0.27
-0.26
-0.255
-0.245
-0.25
-0.235
-0.22
-0.225
-0.195
-0.185
-0.17
-0.155
-0.145
-0.11
-0.11
-0.095
-0.075
-0.06
-0.05
-0.045
-0.035
-0.005
0.01
0.025
0.045
0.06
0.075
0.095
0.095
0.09
0.095
0.1
0.1
0.105
0.12
0.11
0.12
0.125
0.12
0.125
0.115
0.105
0.095
0.08
0.08
0.09
0.085
0.08
0.08
0.06
0.045
0.02
0.0
-0.015
-0.045
-0.08
-0.09
-0.12
-0.135
-0.165
-0.195
-0.215
-0.25
-0.255
-0.265
-0.29
-0.305
-0.32
-0.34
-0.35
-0.36
-0.355
-0.37
-0.365
-0.355
-0.365
-0.375
-0.38
-0.375
-0.4
-0.395
-0.38
-0.375
-0.37
-0.355
-0.35
-0.34
-0.35
-0.355
-0.35
-0.35
-0.355
-0.36
-0.35
-0.33
-0.325
-0.315
-0.315
-0.315
-0.34
-0.335
-0.355
-0.365
-0.36
-0.35
-0.335
-0.335
-0.33
-0.32
-0.325
-0.33
-0.34
-0.345
-0.355
-0.36
-0.365
-0.365
-0.37
-0.38
-0.37
-0.37
-0.37
-0.375
-0.375
-0.37
-0.395
-0.395
-0.4
-0.415
-0.415
-0.42
-0.42
-0.395
-0.395
-0.39
-0.39
-0.41
-0.415
-0.42
-0.41
-0.405
-0.39
-0.38
-0.365
-0.34
-0.325
-0.31
-0.3
-0.29
-0.295
-0.295
-0.295
-0.305
-0.29
-0.26
-0.24
-0.22
-0.205
-0.205
-0.205
-0.22
-0.245
-0.26
-0.275
-0.285
-0.275
-0.27
-0.28
-0.285
-0.305
-0.32
-0.345
-0.37
-0.385
-0.39
-0.415
-0.425
-0.415
-0.415
-0.435
-0.44
-0.465
-0.465
-0.45
-0.45
-0.455
-0.465
-0.47
-0.47
-0.475
-0.46
-0.475
-0.46
-0.455
-0.46
-0.455
-0.465
-0.47
-0.475
-0.47
-0.485
-0.47
-0.47
-0.46
-0.46
-0.45
-0.44
-0.435
-0.42
-0.38
-0.335
-0.215
-0.07
0.125
0.38
0.64
0.925
1.165
1.315
1.37
1.295
1.075
0.72
0.235
-0.32
-0.905
-1.445
-1.81
-1.925
-1.79
-1.51
-1.16
-0.87
-0.645
-0.5
-0.445
-0.41
-0.4
-0.415
-0.415
-0.41
-0.4
-0.39
-0.385
-0.38
-0.375
-0.365
-0.345
-0.345
-0.35
-0.33
-0.335
-0.32
-0.315
-0.31
-0.3
-0.29
-0.285
-0.28
-0.27
-0.255
-0.24
-0.225
-0.215
-0.2
-0.18
-0.17
-0.16
-0.14
-0.14
-0.13
-0.12
-0.115
-0.1
-0.09
-0.07
-0.045
-0.01
-0.01
0.005
0.01
0.01
0.02
0.02
0.03
0.045
0.055
0.055
0.065
0.075
0.08
0.08
0.08
0.075
0.06
0.05
0.045
0.045
0.045
0.05
0.055
0.055
0.045
0.05
0.04
0.03
0.02
0.0
0.0
-0.02
-0.01
-0.01
-0.005
-0.025
-0.06
-0.07
-0.09
-0.12
-0.15
-0.165
-0.17
-0.205
-0.205
-0.205
-0.215
-0.225
-0.25
-0.265
-0.275
-0.295
-0.295
-0.3
-0.305
-0.295
-0.29
-0.29
-0.29
-0.295
-0.29
-0.275
-0.275
-0.28
-0.28
-0.29
-0.295
-0.29
-0.295
-0.285
-0.265
-0.255
-0.255
-0.26
-0.265
-0.28
-0.28
-0.3
-0.29
-0.295
-0.285
-0.28
-0.275
-0.275
-0.275
-0.28
-0.295
-0.295
-0.315
-0.32
-0.315
-0.315
-0.31
-0.33
-0.32
-0.33
-0.34
-0.345
-0.36
-0.36
-0.365
-0.38
-0.39
-0.395
-0.395
-0.39
-0.39
-0.39
-0.395
-0.39
-0.405
-0.405
-0.42
-0.43
-0.44
-0.43
-0.425
-0.425
-0.415
-0.41
-0.4
-0.42
-0.42
-0.43
-0.43
-0.445
-0.455
-0.435
-0.425
-0.425
-0.405
-0.405
-0.38
-0.38
-0.36
-0.355
-0.355
-0.34
-0.34
-0.33
-0.305
-0.305
-0.3
-0.275
-0.255
-0.25
-0.25
-0.25
-0.26
-0.275
-0.295
-0.29
-0.29
-0.29
-0.29
-0.29
-0.31
-0.315
-0.345
-0.365
-0.385
-0.385
-0.395
-0.395
-0.4
-0.41
-0.41
-0.42
-0.42
-0.42
-0.415
-0.415
-0.415
-0.415
-0.42
-0.415
-0.4
-0.41
-0.405
-0.4
-0.405
-0.41
-0.42
-0.415
-0.42
-0.415
-0.415
-0.425
-0.42
-0.405
-0.405
-0.385
-0.375
-0.36
-0.345
-0.33
-0.295
-0.21
-0.08
0.085
0.295
0.53
0.775
0.985
1.15
1.24
1.195
1.04
0.76
0.385
-0.055
-0.52
-0.975
-1.355
-1.545
-1.54
-1.385
-1.145
-0.895
-0.7
-0.545
-0.445
-0.395
-0.37
-0.36
-0.36
-0.36
-0.36
-0.355
-0.345
-0.34
-0.35
-0.345
-0.345
-0.345
-0.35
-0.355
-0.35
-0.345
-0.325
-0.315
-0.31
-0.31
-0.295
-0.305
-0.295
-0.295
-0.28
-0.275
-0.25
-0.23
-0.21
-0.19
-0.175
-0.185
-0.175
-0.18
-0.185
-0.19
-0.195
-0.195
-0.18
-0.155
-0.145
-0.105
-0.1
-0.095
-0.095
-0.08
-0.075
-0.065
-0.045
-0.025
0.005
0.025
0.04
0.06
0.065
0.08
0.085
0.105
0.1
0.125
0.15
0.155
0.175
0.205
0.205
0.21
0.225
0.23
0.225
0.22
0.225
0.21
0.23
0.24
0.24
0.25
0.24
0.245
0.24
0.215
0.185
0.16
0.145
0.105
0.08
0.06
0.035
0.025
-0.015
-0.045
-0.07
-0.1
-0.115
-0.15
-0.165
-0.185
-0.2
-0.205
-0.21
-0.215
-0.215
-0.225
-0.225
-0.23
-0.24
-0.24
-0.24
-0.235
-0.225
-0.225
-0.22
-0.215
-0.215
-0.21
-0.205
-0.2
-0.195
-0.205
-0.215
-0.215
-0.22
-0.2
-0.205
-0.2
-0.2
-0.195
-0.175
-0.18
-0.195
-0.205
-0.215
-0.22
-0.21
-0.205
-0.195
-0.18
-0.18
-0.185
-0.2
-0.205
-0.22
-0.235
-0.225
-0.24
-0.225
-0.245
-0.23
-0.235
-0.235
-0.235
-0.235
-0.25
-0.255
-0.255
-0.265
-0.275
-0.28
-0.28
-0.29
-0.28
-0.28
-0.285
-0.285
-0.29
-0.31
-0.31
-0.315
-0.33
-0.33
-0.335
-0.325
-0.335
-0.32
-0.325
-0.315
-0.325
-0.33
-0.32
-0.325
-0.325
-0.3
-0.285
-0.285
-0.265
-0.245
-0.245
-0.245
-0.245
-0.24
-0.23
-0.225
-0.22
-0.2
-0.2
-0.2
-0.195
-0.205
-0.22
-0.225
-0.23
-0.255
-0.26
-0.27
-0.285
-0.3
-0.32
-0.325
-0.335
-0.345
-0.345
-0.365
-0.375
-0.39
-0.42
-0.44
-0.445
-0.465
-0.46
-0.45
-0.44
-0.42
-0.43
-0.425
-0.425
-0.445
-0.465
-0.46
-0.45
-0.455
-0.44
-0.43
-0.42
-0.415
-0.405
-0.41
-0.405
-0.42
-0.415
-0.415
-0.395
-0.39
-0.36
-0.34
-0.295
-0.225
-0.105
0.05
0.23
0.465
0.7
0.935
1.155
1.32
1.41
1.37
1.185
0.86
0.415
-0.14
-0.71
-1.22
-1.605
-1.75
-1.695
-1.46
-1.16
-0.88
-0.645
-0.51
-0.4
-0.36
-0.36
-0.375
-0.385
-0.375
-0.37
-0.365
-0.335
-0.325
-0.3
-0.29
-0.295
-0.29
-0.305
-0.315
-0.32
-0.315
-0.31
-0.31
-0.3
-0.29
-0.295
-0.285
-0.295
-0.28
-0.29
-0.305
-0.3
-0.315
-0.325
-0.32
-0.315
-0.31
-0.3
-0.29
-0.28
-0.28
-0.265
-0.26
-0.275
-0.27
-0.27
-0.255
-0.255
-0.235
-0.215
-0.19
-0.165
-0.155
-0.15
-0.145
-0.145
-0.125
-0.12
-0.095
-0.065
-0.04
-0.025
-0.015
-0.01
0.0
-0.01
-0.02
-0.025
-0.035
-0.04
-0.05
-0.055
-0.05
-0.04
-0.04
-0.035
-0.03
-0.03
-0.04
-0.06
-0.07
-0.085
-0.095
-0.105
-0.12
-0.13
-0.145
-0.165
-0.19
-0.225
-0.245
-0.275
-0.3
-0.33
-0.34
-0.335
-0.345
-0.35
-0.36
-0.365
-0.365
-0.38
-0.395
-0.405
-0.4
-0.42
-0.415
-0.405
-0.39
-0.395
-0.395
-0.4
-0.405
-0.39
-0.4
-0.395
-0.395
-0.395
-0.395
-0.395
-0.395
-0.38
-0.385
-0.39
-0.38
-0.385
-0.39
-0.395
-0.405
-0.41
-0.415
-0.4
-0.4
-0.39
-0.4
-0.39
-0.395
-0.405
-0.415
-0.425
-0.44
-0.445
-0.45
-0.44
-0.45
-0.435
-0.435
-0.44
-0.45
-0.465
-0.48
-0.49
-0.48
-0.495
-0.49
-0.465
-0.48
-0.475
-0.46
-0.47
-0.48
-0.48
-0.5
-0.495
-0.49
-0.5
-0.495
-0.495
-0.49
-0.485
-0.49
-0.475
-0.48
-0.475
-0.48
-0.48
-0.47
-0.475
-0.485
-0.475
-0.46
-0.45
-0.445
-0.43
-0.435
-0.435
-0.45
-0.44
-0.46
-0.465
-0.47
-0.46
-0.445
-0.43
-0.415
-0.41
-0.405
-0.405
-0.42
-0.415
-0.41
-0.415
-0.395
-0.385
-0.365
-0.345
-0.345
-0.355
-0.37
-0.395
-0.415
-0.425
-0.44
-0.455
-0.445
-0.445
-0.465
-0.47
-0.475
-0.49
-0.505
-0.52
-0.54
-0.56
-0.57
-0.58
-0.59
-0.605
-0.595
-0.58
-0.57
-0.565
-0.555
-0.555
-0.565
-0.59
-0.585
-0.6
-0.605
-0.61
-0.61
-0.625
-0.625
-0.625
-0.63
-0.64
-0.66
-0.68
-0.665
-0.67
-0.66
-0.67
-0.67
-0.64
-0.62
-0.59
-0.505
-0.39
-0.225
-0.02
0.215
0.48
0.71
0.935
1.1
1.17
1.125
0.95
0.64
0.225
-0.26
-0.785
-1.3
-1.75
-1.975
-1.94
-1.73
-1.4
-1.075
-0.835
-0.66
-0.6
-0.565
-0.595
-0.625
-0.65
-0.66
-0.655
-0.64
-0.615
-0.59
-0.585
-0.58
-0.57
-0.575
-0.57
-0.56
-0.54
-0.53
-0.51
-0.505
-0.48
-0.47
-0.455
-0.455
-0.445
-0.465
-0.455
-0.46
-0.445
-0.44
-0.42
-0.41
-0.4
-0.385
-0.38
-0.365
-0.36
-0.355
-0.345
-0.335
-0.325
-0.31
-0.3
-0.28
-0.245
-0.22
-0.2
-0.185
-0.175
-0.175
-0.175
-0.165
-0.155
-0.16
-0.135
-0.12
-0.1
-0.075
-0.07
-0.08
-0.085
-0.09
-0.08
-0.08
-0.09
-0.1
-0.085
-0.08
-0.08
-0.06
-0.08
-0.065
-0.08
-0.07
-0.075
-0.075
-0.1
-0.11
-0.12
-0.135
-0.14
-0.165
-0.2
-0.21
-0.225
-0.255
-0.275
-0.3
-0.34
-0.35
-0.365
-0.38
-0.385
-0.375
-0.395
-0.405
-0.41
-0.42
-0.425
-0.415
-0.425
-0.425
-0.415
-0.395
-0.39
-0.375
-0.385
-0.38
-0.395
-0.39
-0.4
-0.39
-0.385
-0.385
-0.375
-0.375
-0.365
-0.355
-0.355
-0.345
-0.345
-0.36
-0.36
-0.36
-0.37
-0.38
-0.385
-0.375
-0.36
-0.355
-0.355
-0.35
-0.36
-0.37
-0.375
-0.385
-0.385
-0.39
-0.39
-0.385
-0.385
-0.375
-0.36
-0.385
-0.395
-0.4
-0.405
-0.405
-0.405
-0.41
-0.4
-0.405
-0.4
-0.395
-0.4
-0.4
-0.4
-0.405
-0.405
-0.41
-0.415
-0.42
-0.42
-0.425
-0.42
-0.41
-0.395
-0.385
-0.4
-0.405
-0.42
-0.435
-0.44
-0.435
-0.43
-0.425
-0.415
-0.4
-0.405
-0.405
-0.425
-0.44
-0.44
-0.45
-0.44
-0.44
-0.425
-0.415
-0.38
-0.365
-0.345
-0.33
-0.325
-0.325
-0.32
-0.31
-0.305
-0.295
-0.285
-0.27
-0.25
-0.245
-0.25
-0.25
-0.27
-0.285
-0.285
-0.3
-0.325
-0.32
-0.335
-0.34
-0.35
-0.37
-0.375
-0.39
-0.4
-0.41
-0.43
-0.44
-0.465
-0.49
-0.495
-0.5
-0.5
-0.505
-0.49
-0.495
-0.505
-0.51
-0.52
-0.52
-0.52
-0.525
-0.515
-0.505
-0.5
-0.49
-0.485
-0.49
-0.5
-0.51
-0.5
-0.5
-0.505
-0.5
-0.485
-0.47
-0.46
-0.435
-0.4
-0.36
-0.3
-0.195
-0.025
0.165
0.4
0.665
0.93
1.14
1.285
1.325
1.225
0.99
0.62
0.135
-0.415
-0.96
-1.45
-1.78
-1.835
-1.69
-1.395
-1.065
-0.79
-0.575
-0.45
-0.395
-0.375
-0.38
-0.395
-0.425
-0.42
-0.41
-0.395
-0.375
-0.385
-0.37
-0.35
-0.36
-0.36
-0.365
-0.36
-0.36
-0.35
-0.365
-0.355
-0.35
-0.35
-0.35
-0.36
-0.36
-0.355
-0.35
-0.36
-0.345
-0.325
-0.32
-0.3
-0.275
-0.255
-0.235
-0.22
-0.22
-0.21
-0.215
-0.205
-0.185
-0.16
-0.145
-0.125
-0.1
-0.085
-0.08
-0.08
-0.06
-0.055
-0.055
-0.04
-0.025
-0.01
-0.02
-0.01
0.005
0.0
0.0
0.0
-0.005
-0.015
-0.025
-0.025
-0.035
-0.025
-0.02
-0.025
-0.025
-0.02
-0.015
-0.025
-0.035
-0.04
-0.045
-0.06
-0.075
-0.065
-0.08
-0.085
-0.09
-0.095
-0.12
-0.125
-0.155
-0.18
-0.21
-0.24
-0.255
-0.265
-0.27
-0.29
-0.305
-0.3
-0.31
-0.34
-0.37
-0.365
-0.38
-0.385
-0.39
-0.375
-0.365
-0.365
-0.365
-0.355
-0.36
-0.36
-0.355
-0.355
-0.345
-0.345
-0.35
-0.34
-0.34
-0.335
-0.315
-0.32
-0.32
-0.315
-0.33
-0.335
-0.355
-0.355
-0.36
-0.34
-0.345
-0.335
-0.32
-0.33
-0.335
-0.33
-0.335
-0.34
-0.365
-0.37
-0.365
-0.375
-0.38
-0.385
-0.385
-0.4
-0.395
-0.41
-0.435
-0.45
-0.455
-0.46
-0.455
-0.45
-0.44
-0.45
-0.45
-0.445
-0.46
-0.46
-0.465
-0.47
-0.48
-0.495
-0.495
-0.49
-0.485
-0.49
-0.48
-0.485
-0.475
-0.495
-0.49
-0.5
-0.5
-0.52
-0.52
-0.51
-0.49
-0.49
-0.475
-0.48
-0.475
-0.485
-0.485
-0.495
-0.49
-0.48
-0.49
-0.465
-0.45
-0.44
-0.44
-0.425
-0.39
-0.385
-0.37
-0.375
-0.375
-0.365
-0.365
-0.355
-0.345
-0.345
-0.35
-0.345
-0.35
-0.36
-0.375
-0.395
-0.415
-0.44
-0.455
-0.455
-0.465
-0.465
-0.475
-0.485
-0.49
-0.505
-0.53
-0.545
-0.55
-0.56
-0.56
-0.55
-0.54
-0.525
-0.52
-0.525
-0.53
-0.53
-0.54
-0.545
-0.545
-0.54
-0.55
-0.535
-0.525
-0.52
-0.515
-0.51
-0.505
-0.5
-0.5
-0.5
-0.495
-0.49
-0.48
-0.45
-0.395
-0.31
-0.17
-0.015
0.185
0.39
0.63
0.86
1.065
1.215
1.26
1.155
0.895
0.52
0.025
-0.515
-1.035
-1.445
-1.69
-1.705
-1.57
-1.315
-1.085
-0.88
-0.715
-0.615
-0.54
-0.505
-0.5
-0.48
-0.485
-0.495
-0.485
-0.495
-0.49
-0.48
-0.48
-0.47
-0.455
-0.435
-0.43
-0.44
-0.445
-0.44
-0.435
-0.45
-0.45
-0.435
-0.425
-0.405
-0.395
-0.39
-0.385
-0.39
-0.38
-0.39
-0.38
-0.37
-0.37
-0.35
-0.335
-0.315
-0.295
-0.27
-0.27
-0.265
-0.24
-0.235
-0.23
-0.21
-0.195
-0.17
-0.16
-0.14
-0.12
-0.115
-0.12
-0.1
-0.09
-0.08
-0.09
-0.085
-0.085
-0.095
-0.085
-0.075
-0.07
-0.07
-0.075
-0.09
-0.105
-0.11
-0.115
-0.12
-0.12
-0.12
-0.12
-0.115
-0.135
-0.15
-0.16
-0.175
-0.205
-0.235
-0.26
-0.28
-0.305
-0.335
-0.37
-0.415
-0.43
-0.45
-0.49
-0.525
-0.54
-0.565
-0.59
-0.605
-0.64
-0.645
-0.65
-0.645
-0.64
-0.63
-0.635
-0.63
-0.64
-0.635
-0.64
-0.625
-0.63
-0.61
-0.605
-0.585
-0.575
-0.565
-0.55
-0.555
-0.555
-0.55
-0.555
-0.545
-0.54
-0.54
-0.525
-0.51
-0.495
-0.485
-0.48
-0.49
-0.485
-0.485
-0.475
-0.475
-0.475
-0.465
-0.455
-0.45
-0.46
-0.44
-0.44
-0.45
-0.46
-0.475
-0.48
-0.475
-0.48
-0.485
-0.495
-0.475
-0.465
-0.465
-0.46
-0.46
-0.47
-0.465
-0.495
-0.49
-0.495
-0.48
-0.475
-0.47
-0.46
-0.465
-0.455
-0.47
-0.47
-0.47
-0.485
-0.48
-0.485
-0.475
-0.475
-0.46
-0.455
-0.455
-0.455
-0.45
-0.465
-0.445
-0.425
-0.405
-0.395
-0.38
-0.36
-0.34
-0.325
-0.315
-0.305
-0.29
-0.28
-0.27
-0.265
-0.255
-0.27
-0.27
-0.27
-0.26
-0.265
-0.265
-0.265
-0.275
-0.285
-0.3
-0.315
-0.31
-0.33
-0.345
-0.345
-0.35
-0.37
-0.365
-0.385
-0.4
-0.415
-0.425
-0.43
-0.435
-0.42
-0.41
-0.405
-0.41
-0.415
-0.435
-0.415
-0.415
-0.415
-0.425
-0.42
-0.415
-0.42
-0.415
-0.405
-0.405
-0.395
-0.395
-0.385
-0.37
-0.365
-0.37
-0.37
-0.37
-0.355
-0.325
-0.26
-0.155
-0.015
0.155
0.37
0.605
0.845
1.08
1.27
1.405
1.425
1.31
1.06
0.66
0.16
-0.41
-0.995
-1.455
-1.76
-1.785
-1.615
-1.295
-1.01
-0.745
-0.555
-0.425
-0.36
-0.325
-0.335
-0.345
-0.355
-0.37
-0.375
-0.37
-0.37
-0.36
-0.35
-0.345
-0.33
-0.325
-0.315
-0.32
-0.33
-0.33
-0.335
-0.32
-0.32
-0.31
-0.32
-0.29
-0.275
-0.275
-0.265
-0.265
-0.265
-0.27
-0.275
-0.26
-0.25
-0.24
-0.225
-0.22
-0.195
-0.185
-0.175
-0.165
-0.16
-0.15
-0.14
-0.12
-0.11
-0.09
-0.07
-0.065
-0.045
-0.025
-0.01
0.0
0.015
0.025
0.03
0.035
0.04
0.045
0.06
0.065
0.085
0.09
0.095
0.09
0.085
0.075
0.065
0.06
0.05
0.04
0.055
0.06
0.075
0.075
0.065
0.055
0.055
0.03
0.01
-0.005
-0.02
-0.045
-0.045
-0.055
-0.07
-0.09
-0.115
-0.13
-0.16
-0.175
-0.2
-0.215
-0.24
-0.26
-0.27
-0.27
-0.265
-0.265
-0.26
-0.265
-0.265
-0.265
-0.28
-0.285
-0.28
-0.285
-0.275
-0.275
-0.275
-0.24
-0.24
-0.235
-0.255
-0.26
-0.275
-0.29
-0.295
-0.285
-0.27
-0.255
-0.255
-0.235
-0.255
-0.25
-0.265
-0.28
-0.295
-0.295
-0.3
-0.295
-0.3
-0.29
-0.3
-0.29
-0.285
-0.29
-0.3
-0.305
-0.31
-0.325
-0.32
-0.31
-0.31
-0.31
-0.315
-0.315
-0.315
-0.33
-0.33
-0.325
-0.335
-0.35
-0.355
-0.37
-0.37
-0.37
-0.37
-0.375
-0.38
-0.39
-0.415
-0.44
-0.455
-0.475
-0.5
-0.495
-0.495
-0.475
-0.47
-0.46
-0.47
-0.455
-0.465
-0.475
-0.445
-0.45
-0.435
-0.435
-0.425
-0.39
-0.38
-0.36
-0.34
-0.32
-0.315
-0.31
-0.31
-0.325
-0.33
-0.345
-0.35
-0.36
-0.355
-0.355
-0.37
-0.375
-0.39
-0.4
-0.445
-0.45
-0.455
-0.46
-0.46
-0.465
-0.485
-0.475
-0.485
-0.48
-0.48
-0.485
-0.485
-0.485
-0.49
-0.49
-0.49
-0.475
-0.465
-0.46
-0.475
-0.47
-0.475
-0.48
-0.485
-0.485
-0.485
-0.47
-0.46
-0.455
-0.445
-0.445
-0.435
-0.435
-0.435
-0.42
-0.405
-0.375
-0.31
-0.205
-0.065
0.105
0.32
0.535
0.755
0.96
1.14
1.255
1.265
1.175
0.96
0.635
0.215
-0.265
-0.765
-1.22
-1.535
-1.64
-1.555
-1.32
-1.065
-0.825
-0.635
-0.5
-0.405
-0.36
-0.335
-0.335
-0.345
-0.345
-0.355
-0.36
-0.36
-0.345
-0.34
-0.32
-0.315
-0.295
-0.29
-0.285
-0.275
-0.27
-0.26
-0.265
-0.27
-0.26
-0.265
-0.25
-0.235
-0.235
-0.21
-0.195
-0.18
-0.17
-0.175
-0.16
-0.155
-0.145
-0.14
-0.135
-0.12
-0.11
-0.1
-0.085
-0.065
-0.04
-0.035
-0.03
-0.025
-0.015
-0.005
0.015
0.03
0.04
0.065
0.085
0.095
0.11
0.11
0.115
0.1
0.105
0.12
0.125
0.13
0.13
0.135
0.14
0.14
0.13
0.115
0.105
0.105
0.09
0.095
0.095
0.1
0.095
0.105
0.105
0.105
0.1
0.1
0.08
0.07
0.055
0.035
0.02
-0.005
-0.015
-0.03
-0.05
-0.065
-0.09
-0.115
-0.14
-0.175
-0.185
-0.2
-0.21
-0.23
-0.22
-0.225
-0.235
-0.235
-0.235
-0.255
-0.265
-0.275
-0.275
-0.27
-0.265
-0.27
-0.255
-0.255
-0.245
-0.25
-0.24
-0.245
-0.245
-0.26
-0.26
-0.25
-0.255
-0.245
-0.245
-0.25
-0.25
-0.25
-0.255
-0.255
-0.255
-0.265
-0.27
-0.27
-0.275
-0.28
-0.285
-0.28
-0.275
-0.275
-0.285
-0.29
-0.305
-0.315
-0.325
-0.32
-0.33
-0.325
-0.33
-0.33
-0.32
-0.325
-0.325
-0.345
-0.35
-0.365
-0.375
-0.375
-0.37
-0.37
-0.37
-0.365
-0.36
-0.36
-0.365
-0.38
-0.385
-0.4
-0.405
-0.415
-0.4
-0.375
-0.36
-0.35
-0.325
-0.31
-0.3
-0.285
-0.28
-0.275
-0.27
-0.26
-0.26
-0.25
-0.23
-0.235
-0.235
-0.245
-0.255
-0.275
-0.31
-0.35
-0.375
-0.405
-0.44
-0.44
-0.455
-0.465
-0.485
-0.5
-0.525
-0.54
-0.57
-0.59
-0.61
-0.615
-0.615
-0.605
-0.605
-0.595
-0.575
-0.575
-0.57
-0.575
-0.58
-0.595
-0.61
-0.62
-0.625
-0.615
-0.615
-0.6
-0.59
-0.6
