Lead II
-0.34
-0.34
-0.345
-0.355
-0.355
-0.36
-0.365
-0.36
-0.34
-0.345
-0.34
-0.35
-0.375
-0.39
-0.385
-0.34
-0.25
-0.125
0.035
0.235
0.445
0.645
0.79
0.815
0.69
0.44
0.14
-0.15
-0.365
-0.465
-0.46
-0.385
-0.305
-0.245
-0.225
-0.215
-0.24
-0.265
-0.28
-0.295
-0.31
-0.315
-0.32
-0.3
-0.305
-0.31
-0.3
-0.305
-0.3
-0.305
-0.32
-0.32
-0.325
-0.33
-0.33
-0.32
-0.32
-0.31
-0.305
-0.3
-0.29
-0.3
-0.305
-0.31
-0.315
-0.32
-0.32
-0.31
-0.305
-0.295
-0.285
-0.285
-0.285
-0.285
-0.29
-0.295
-0.295
-0.3
-0.3
-0.29
-0.275
-0.265
-0.255
-0.26
-0.265
-0.265
-0.265
-0.28
-0.275
-0.275
-0.275
-0.27
-0.255
-0.25
-0.25
-0.245
-0.235
-0.245
-0.25
-0.245
-0.25
-0.26
-0.265
-0.26
-0.245
-0.24
-0.22
-0.225
-0.225
-0.22
-0.235
-0.235
-0.23
-0.245
-0.235
-0.22
-0.225
-0.22
-0.205
-0.205
-0.195
-0.195
-0.195
-0.19
-0.19
-0.19
-0.19
-0.185
-0.17
-0.165
-0.155
-0.155
-0.155
-0.155
-0.165
-0.17
-0.175
-0.185
-0.19
-0.195
-0.195
-0.195
-0.2
-0.205
-0.205
-0.225
-0.225
-0.255
-0.255
-0.27
-0.275
-0.27
-0.28
-0.27
-0.26
-0.255
-0.255
-0.265
-0.275
-0.29
-0.29
-0.3
-0.3
-0.305
-0.3
-0.29
-0.285
-0.29
-0.28
-0.28
-0.305
-0.305
-0.32
-0.32
-0.33
-0.325
-0.31
-0.31
-0.315
-0.315
-0.305
-0.305
-0.315
-0.325
-0.33
-0.335
-0.355
-0.345
-0.345
-0.34
-0.335
-0.335
-0.33
-0.335
-0.345
-0.34
-0.34
-0.35
-0.35
-0.35
-0.335
-0.335
-0.325
-0.33
-0.33
-0.33
-0.34
-0.35
-0.355
-0.355
-0.355
-0.355
-0.345
-0.335
-0.335
-0.335
-0.335
-0.33
-0.34
-0.35
-0.335
-0.34
-0.32
-0.32
-0.305
-0.305
-0.295
-0.29
-0.285
-0.28
-0.28
-0.27
-0.25
-0.255
-0.255
-0.265
-0.28
-0.29
-0.29
-0.3
-0.285
-0.295
-0.305
-0.315
-0.325
-0.33
-0.34
-0.345
-0.34
-0.345
-0.345
-0.34
-0.345
-0.35
-0.35
-0.36
-0.365
-0.375
-0.37
-0.365
-0.365
-0.345
-0.335
-0.34
-0.34
-0.34
-0.35
-0.355
-0.36
-0.39
-0.415
-0.425
-0.405
-0.34
-0.255
-0.13
0.035
0.235
0.44
0.645
0.8
0.84
0.725
0.465
0.14
-0.17
-0.39
-0.48
-0.475
-0.395
-0.315
-0.275
-0.24
-0.26
-0.265
-0.295
-0.315
-0.315
-0.32
-0.32
-0.31
-0.315
-0.315
-0.325
-0.325
-0.335
-0.34
-0.335
-0.325
-0.32
-0.32
-0.315
-0.31
-0.31
-0.335
-0.33
-0.345
-0.34
-0.335
-0.34
-0.325
-0.32
-0.32
-0.315
-0.305
-0.315
-0.31
-0.315
-0.315
-0.315
-0.305
-0.305
-0.3
-0.3
-0.285
-0.285
-0.285
-0.285
-0.285
-0.29
-0.285
-0.3
-0.3
-0.285
-0.285
-0.28
-0.265
-0.265
-0.27
-0.265
-0.27
-0.275
-0.28
-0.27
-0.265
-0.27
-0.265
-0.255
-0.25
-0.255
-0.25
-0.25
-0.25
-0.26
-0.26
-0.26
-0.26
-0.255
-0.25
-0.24
-0.23
-0.23
-0.225
-0.22
-0.215
-0.22
-0.205
-0.205
-0.2
-0.19
-0.185
-0.185
-0.175
-0.175
-0.18
-0.18
-0.19
-0.2
-0.21
-0.225
-0.24
-0.235
-0.245
-0.25
-0.235
-0.235
-0.245
-0.255
-0.265
-0.285
-0.29
-0.29
-0.295
-0.3
-0.29
-0.285
-0.28
-0.275
-0.28
-0.28
-0.295
-0.305
-0.3
-0.315
-0.31
-0.31
-0.305
-0.31
-0.31
-0.31
-0.315
-0.305
-0.315
-0.32
-0.335
-0.345
-0.36
-0.35
-0.345
-0.345
-0.33
-0.335
-0.325
-0.33
-0.33
-0.345
-0.35
-0.35
-0.355
-0.34
-0.345
-0.34
-0.34
-0.34
-0.335
-0.345
-0.355
-0.36
-0.37
-0.375
-0.37
-0.37
-0.37
-0.355
-0.345
-0.35
-0.35
-0.35
-0.36
-0.37
-0.38
-0.375
-0.375
-0.385
-0.37
-0.36
-0.355
-0.35
-0.345
-0.34
-0.345
-0.34
-0.345
-0.345
-0.345
-0.325
-0.325
-0.32
-0.315
-0.305
-0.285
-0.285
-0.28
-0.275
-0.285
-0.305
-0.315
-0.315
-0.325
-0.315
-0.31
-0.315
-0.315
-0.325
-0.325
-0.35
-0.36
-0.365
-0.37
-0.365
-0.375
-0.375
-0.375
-0.38
-0.38
-0.4
-0.4
-0.4
-0.405
-0.415
-0.415
-0.405
-0.4
-0.39
-0.38
-0.37
-0.37
-0.37
-0.375
-0.385
-0.415
-0.44
-0.465
-0.47
-0.43
-0.37
-0.28
-0.15
0.01
0.2
0.405
0.615
0.77
0.83
0.745
0.5
0.2
-0.11
-0.36
-0.485
-0.51
-0.455
-0.39
-0.32
-0.29
-0.29
-0.295
-0.3
-0.32
-0.33
-0.34
-0.34
-0.345
-0.35
-0.355
-0.35
-0.37
-0.37
-0.37
-0.36
-0.355
-0.35
-0.335
-0.34
-0.34
-0.345
-0.345
-0.345
-0.355
-0.355
-0.365
-0.36
-0.345
-0.35
-0.33
-0.335
-0.32
-0.32
-0.315
-0.325
-0.335
-0.33
-0.335
-0.325
-0.315
-0.31
-0.31
-0.305
-0.295
-0.295
-0.305
-0.31
-0.32
-0.32
-0.32
-0.325
-0.31
-0.305
-0.295
-0.29
-0.285
-0.29
-0.3
-0.295
-0.295
-0.295
-0.3
-0.29
-0.285
-0.275
-0.275
-0.275
-0.265
-0.28
-0.275
-0.285
-0.29
-0.3
-0.29
-0.285
-0.275
-0.275
-0.25
-0.255
-0.245
-0.24
-0.24
-0.24
-0.24
-0.225
-0.23
-0.215
-0.2
-0.195
-0.19
-0.185
-0.185
-0.19
-0.2
-0.21
-0.225
-0.23
-0.235
-0.24
-0.245
-0.245
-0.24
-0.24
-0.255
-0.26
-0.265
-0.28
-0.29
-0.295
-0.3
-0.295
-0.3
-0.295
-0.29
-0.295
-0.28
-0.305
-0.3
-0.315
-0.32
-0.31
-0.32
-0.32
-0.315
-0.32
-0.31
-0.305
-0.305
-0.305
-0.315
-0.32
-0.34
-0.335
-0.33
-0.335
-0.325
-0.32
-0.315
-0.31
-0.31
-0.315
-0.32
-0.32
-0.33
-0.335
-0.34
-0.335
-0.335
-0.32
-0.32
-0.315
-0.325
-0.32
-0.335
-0.335
-0.345
-0.34
-0.345
-0.35
-0.34
-0.335
-0.34
-0.325
-0.325
-0.33
-0.34
-0.345
-0.355
-0.35
-0.35
-0.355
-0.35
-0.34
-0.34
-0.335
-0.335
-0.335
-0.345
-0.345
-0.36
-0.345
-0.35
-0.335
-0.31
-0.305
-0.29
-0.275
-0.28
-0.28
-0.285
-0.29
-0.29
-0.275
-0.265
-0.25
-0.24
-0.25
-0.255
-0.275
-0.29
-0.295
-0.305
-0.31
-0.315
-0.32
-0.335
-0.32
-0.33
-0.315
-0.315
-0.315
-0.33
-0.335
-0.355
-0.36
-0.385
-0.375
-0.38
-0.37
-0.37
-0.36
-0.345
-0.355
-0.345
-0.345
-0.36
-0.36
-0.355
-0.37
-0.37
-0.365
-0.355
-0.37
-0.375
-0.4
-0.41
-0.41
-0.38
-0.31
-0.205
-0.08
0.09
0.28
0.49
0.68
0.83
0.84
0.72
0.465
0.145
-0.155
-0.375
-0.47
-0.49
-0.415
-0.325
-0.27
-0.235
-0.23
-0.24
-0.245
-0.27
-0.3
-0.315
-0.325
-0.33
-0.325
-0.32
-0.315
-0.305
-0.31
-0.315
-0.31
-0.31
-0.315
-0.325
-0.325
-0.325
-0.32
-0.315
-0.315
-0.3
-0.3
-0.29
-0.295
-0.29
-0.31
-0.315
-0.31
-0.31
-0.31
-0.295
-0.29
-0.275
-0.27
-0.27
-0.28
-0.28
-0.285
-0.285
-0.29
-0.29
-0.285
-0.275
-0.28
-0.27
-0.26
-0.265
-0.26
-0.26
-0.265
-0.27
-0.27
-0.285
-0.275
-0.27
-0.27
-0.255
-0.255
-0.25
-0.245
-0.245
-0.255
-0.26
-0.26
-0.26
-0.255
-0.25
-0.25
-0.24
-0.235
-0.23
-0.23
-0.23
-0.235
-0.24
-0.24
-0.24
-0.23
-0.215
-0.215
-0.2
-0.185
-0.18
-0.18
-0.175
-0.175
-0.18
-0.185
-0.19
-0.18
-0.17
-0.16
-0.165
-0.175
-0.175
-0.175
-0.19
-0.21
-0.21
-0.22
-0.235
-0.235
-0.235
-0.24
-0.235
-0.24
-0.245
-0.26
-0.26
-0.28
-0.27
-0.285
-0.28
-0.285
-0.285
-0.275
-0.285
-0.285
-0.285
-0.285
-0.3
-0.305
-0.31
-0.31
-0.31
-0.305
-0.31
-0.3
-0.285
-0.29
-0.285
-0.295
-0.3
-0.31
-0.315
-0.325
-0.32
-0.31
-0.315
-0.295
-0.3
-0.3
-0.295
-0.305
-0.3
-0.31
-0.32
-0.32
-0.325
-0.32
-0.32
-0.33
-0.32
-0.335
-0.32
-0.335
-0.33
-0.34
-0.345
-0.345
-0.345
-0.35
-0.335
-0.335
-0.315
-0.32
-0.32
-0.32
-0.315
-0.325
-0.335
-0.335
-0.33
-0.325
-0.305
-0.3
-0.285
-0.275
-0.27
-0.275
-0.28
-0.28
-0.285
-0.28
-0.27
-0.26
-0.24
-0.235
-0.24
-0.255
-0.27
-0.28
-0.29
-0.3
-0.305
-0.305
-0.315
-0.33
-0.325
-0.325
-0.33
-0.33
-0.32
-0.33
-0.345
-0.36
-0.37
-0.37
-0.375
-0.375
-0.375
-0.37
-0.355
-0.35
-0.35
-0.345
-0.35
-0.36
-0.37
-0.37
-0.37
-0.36
-0.36
-0.365
-0.375
-0.405
-0.405
-0.395
-0.34
-0.275
-0.16
-0.015
0.165
0.365
0.585
0.77
0.85
0.8
0.595
0.31
0.005
-0.265
-0.43
-0.48
-0.445
-0.365
-0.3
-0.25
-0.23
-0.24
-0.255
-0.27
-0.29
-0.305
-0.315
-0.325
-0.335
-0.335
-0.335
-0.325
-0.325
-0.32
-0.32
-0.315
-0.32
-0.325
-0.33
-0.33
-0.33
-0.325
-0.32
-0.31
-0.3
-0.305
-0.3
-0.305
-0.3
-0.31
-0.315
-0.32
-0.31
-0.32
-0.315
-0.295
-0.3
-0.285
-0.28
-0.285
-0.29
-0.29
-0.29
-0.285
-0.295
-0.29
-0.28
-0.275
-0.28
-0.275
-0.26
-0.255
-0.27
-0.275
-0.27
-0.285
-0.285
-0.285
-0.27
-0.26
-0.26
-0.26
-0.255
-0.245
-0.255
-0.26
-0.27
-0.27
-0.28
-0.265
-0.26
-0.26
-0.25
-0.235
-0.245
-0.25
-0.24
-0.25
-0.245
-0.26
-0.26
-0.255
-0.25
-0.24
-0.235
-0.225
-0.225
-0.22
-0.215
-0.215
-0.215
-0.215
-0.205
-0.215
-0.2
-0.185
-0.17
-0.165
-0.16
-0.165
-0.17
-0.185
-0.195
-0.205
-0.205
-0.22
-0.21
-0.22
-0.215
-0.22
-0.22
-0.23
-0.235
-0.26
-0.27
-0.27
-0.285
-0.28
-0.28
-0.275
-0.265
-0.275
-0.28
-0.275
-0.285
-0.295
-0.305
-0.32
-0.315
-0.32
-0.325
-0.31
-0.305
-0.295
-0.295
-0.295
-0.305
-0.31
-0.32
-0.325
-0.335
-0.32
-0.32
-0.315
-0.315
-0.305
-0.305
-0.31
-0.32
-0.325
-0.33
-0.34
-0.34
-0.335
-0.345
-0.335
-0.335
-0.33
-0.33
-0.34
-0.345
-0.35
-0.345
-0.345
-0.36
-0.35
-0.355
-0.345
-0.345
-0.335
-0.33
-0.34
-0.345
-0.345
-0.355
-0.365
-0.37
-0.365
-0.365
-0.355
-0.35
-0.35
-0.335
-0.335
-0.335
-0.34
-0.335
-0.325
-0.33
-0.33
-0.32
-0.31
-0.305
-0.3
-0.29
-0.285
-0.285
-0.27
-0.265
-0.275
-0.29
-0.305
-0.32
-0.31
-0.315
-0.315
-0.305
-0.32
-0.32
-0.335
-0.345
-0.35
-0.35
-0.36
-0.36
-0.365
-0.36
-0.365
-0.37
-0.38
-0.385
-0.37
-0.385
-0.39
-0.385
-0.385
-0.38
-0.385
-0.375
-0.375
-0.365
-0.355
-0.36
-0.365
-0.375
-0.385
-0.41
-0.42
-0.435
-0.42
-0.375
-0.3
-0.19
-0.055
0.105
0.3
0.505
0.69
0.805
0.785
0.62
0.335
0.045
-0.23
-0.4
-0.48
-0.455
-0.38
-0.315
-0.28
-0.265
-0.27
-0.275
-0.295
-0.3
-0.305
-0.315
-0.325
-0.325
-0.33
-0.345
-0.355
-0.345
-0.36
-0.355
-0.345
-0.34
-0.34
-0.335
-0.34
-0.345
-0.36
-0.35
-0.355
-0.36
-0.36
-0.345
-0.34
-0.34
-0.33
-0.325
-0.32
-0.335
-0.32
-0.33
-0.33
-0.325
-0.32
-0.32
-0.31
-0.305
-0.29
-0.295
-0.3
-0.295
-0.295
-0.305
-0.31
-0.31
-0.305
-0.31
-0.295
-0.29
-0.28
-0.275
-0.285
-0.285
-0.285
-0.295
-0.315
-0.305
-0.31
-0.305
-0.285
-0.28
-0.265
-0.27
-0.26
-0.275
-0.285
-0.29
-0.295
-0.29
-0.3
-0.29
-0.27
-0.27
-0.26
-0.265
-0.26
-0.27
-0.26
-0.265
-0.27
-0.27
-0.26
-0.26
-0.235
-0.225
-0.22
-0.205
-0.2
-0.195
-0.205
-0.205
-0.21
-0.205
-0.215
-0.2
-0.2
-0.2
-0.205
-0.22
-0.21
-0.215
-0.23
-0.24
-0.255
-0.26
-0.27
-0.275
-0.265
-0.265
-0.265
-0.28
-0.28
-0.295
-0.305
-0.32
-0.32
-0.325
-0.335
-0.325
-0.33
-0.325
-0.315
-0.32
-0.32
-0.325
-0.33
-0.33
-0.33
-0.335
-0.335
-0.335
-0.34
-0.33
-0.325
-0.33
-0.33
-0.33
-0.335
-0.345
-0.345
-0.355
-0.355
-0.35
-0.345
-0.34
-0.33
-0.335
-0.34
-0.335
-0.355
-0.365
-0.365
-0.365
-0.365
-0.365
-0.355
-0.35
-0.355
-0.345
-0.36
-0.38
-0.365
-0.37
-0.37
-0.385
-0.365
-0.365
-0.36
-0.355
-0.35
-0.35
-0.35
-0.365
-0.37
-0.375
-0.375
-0.385
-0.375
-0.365
-0.36
-0.35
-0.33
-0.32
-0.31
-0.31
-0.31
-0.32
-0.315
-0.325
-0.32
-0.3
-0.285
-0.265
-0.255
-0.25
-0.26
-0.29
-0.305
-0.32
-0.34
-0.34
-0.34
-0.33
-0.335
-0.32
-0.33
-0.335
-0.335
-0.34
-0.365
-0.37
-0.385
-0.39
-0.39
-0.395
-0.385
-0.38
-0.365
-0.365
-0.36
-0.375
-0.37
-0.385
-0.38
-0.385
-0.395
-0.385
-0.38
-0.375
-0.385
-0.42
-0.435
-0.42
-0.39
-0.315
-0.195
-0.05
0.135
0.355
0.56
0.735
0.815
0.755
0.545
0.25
-0.06
-0.31
-0.47
-0.505
-0.455
-0.385
-0.31
-0.265
-0.255
-0.265
-0.28
-0.295
-0.32
-0.34
-0.35
-0.36
-0.365
-0.355
-0.355
-0.35
-0.345
-0.345
-0.35
-0.355
-0.355
-0.365
-0.375
-0.365
-0.37
-0.36
-0.35
-0.34
-0.34
-0.335
-0.34
-0.35
-0.35
-0.355
-0.36
-0.36
-0.37
-0.355
-0.35
-0.34
-0.335
-0.32
-0.33
-0.33
-0.33
-0.335
-0.335
-0.345
-0.335
-0.335
-0.33
-0.32
-0.305
-0.31
-0.305
-0.31
-0.325
-0.315
-0.32
-0.33
-0.32
-0.32
-0.31
-0.315
-0.295
-0.3
-0.3
-0.3
-0.305
-0.315
-0.31
-0.295
-0.31
-0.3
-0.3
-0.29
-0.285
-0.28
-0.285
-0.285
-0.29
-0.29
-0.3
-0.295
-0.295
-0.275
-0.265
-0.255
-0.25
-0.23
-0.225
-0.23
-0.235
-0.225
-0.23
-0.24
-0.235
-0.23
-0.215
-0.205
-0.215
-0.21
-0.215
-0.225
-0.235
-0.255
-0.265
-0.27
-0.28
-0.28
-0.28
-0.285
-0.29
-0.3
-0.31
-0.31
-0.325
-0.33
-0.345
-0.345
-0.35
-0.35
-0.335
-0.335
-0.33
-0.33
-0.32
-0.34
-0.345
-0.345
-0.365
-0.365
-0.365
-0.365
-0.37
-0.36
-0.34
-0.345
-0.35
-0.345
-0.36
-0.36
-0.365
-0.375
-0.365
-0.38
-0.37
-0.36
-0.36
-0.365
-0.36
-0.36
-0.36
-0.37
-0.375
-0.38
-0.39
-0.38
-0.38
-0.375
-0.37
-0.355
-0.36
-0.365
-0.375
-0.38
-0.38
-0.395
-0.395
-0.385
-0.395
-0.385
-0.38
-0.375
-0.375
-0.38
-0.39
-0.395
-0.39
-0.385
-0.39
-0.385
-0.38
-0.37
-0.365
-0.35
-0.35
-0.345
-0.35
-0.345
-0.35
-0.355
-0.35
-0.345
-0.34
-0.32
-0.305
-0.3
-0.28
-0.28
-0.295
-0.305
-0.325
-0.345
-0.355
-0.35
-0.35
-0.34
-0.35
-0.345
-0.34
-0.335
-0.35
-0.355
-0.37
-0.385
-0.385
-0.4
-0.39
-0.4
-0.385
-0.385
-0.38
-0.39
-0.395
-0.39
-0.395
-0.405
-0.405
-0.395
-0.39
-0.385
-0.38
-0.37
-0.385
-0.39
-0.42
-0.43
-0.435
-0.395
-0.325
-0.215
-0.075
0.09
0.28
0.49
0.66
0.745
0.705
0.515
0.26
-0.035
-0.27
-0.425
-0.475
-0.445
-0.37
-0.325
-0.295
-0.3
-0.295
-0.315
-0.34
-0.345
-0.355
-0.355
-0.36
-0.355
-0.35
-0.35
-0.345
-0.35
-0.36
-0.365
-0.365
-0.375
-0.38
-0.38
-0.375
-0.37
-0.355
-0.35
-0.345
-0.35
-0.36
-0.36
-0.355
-0.355
-0.355
-0.355
-0.345
-0.33
-0.32
-0.33
-0.315
-0.33
-0.33
-0.33
-0.325
-0.335
-0.34
-0.34
-0.335
-0.325
-0.325
-0.32
-0.315
-0.325
-0.32
-0.325
-0.325
-0.325
-0.33
-0.32
-0.315
-0.305
-0.29
-0.295
-0.295
-0.295
-0.305
-0.315
-0.31
-0.32
-0.32
-0.31
-0.3
-0.3
-0.28
-0.28
-0.285
-0.29
-0.295
-0.3
-0.3
-0.295
-0.3
-0.285
-0.28
-0.265
-0.26
-0.255
-0.245
-0.24
-0.24
-0.245
-0.23
-0.235
-0.23
-0.215
-0.215
-0.22
-0.215
-0.22
-0.225
-0.23
-0.25
-0.26
-0.265
-0.285
-0.29
-0.295
-0.29
-0.285
-0.305
-0.305
-0.31
-0.315
-0.32
-0.325
-0.335
-0.345
-0.35
-0.34
-0.325
-0.34
-0.33
-0.32
-0.325
-0.33
-0.335
-0.335
-0.345
-0.345
-0.355
-0.36
-0.36
-0.345
-0.345
-0.34
-0.34
-0.345
-0.345
-0.345
-0.355
-0.36
-0.365
-0.36
-0.355
-0.35
-0.34
-0.345
-0.345
-0.35
-0.345
-0.365
-0.375
-0.37
-0.37
-0.375
-0.365
-0.36
-0.345
-0.34
-0.34
-0.36
-0.35
-0.37
-0.375
-0.375
-0.37
-0.38
-0.37
-0.365
-0.36
-0.355
-0.36
-0.36
-0.365
-0.37
-0.375
-0.375
-0.375
-0.365
-0.36
-0.33
-0.32
-0.32
-0.31
-0.31
-0.315
-0.325
-0.335
-0.33
-0.33
-0.3
-0.29
-0.27
-0.27
-0.275
-0.285
-0.29
-0.31
-0.325
-0.33
-0.335
-0.335
-0.335
-0.335
-0.33
-0.325
-0.33
-0.34
-0.35
-0.36
-0.38
-0.39
-0.395
-0.405
-0.4
-0.385
-0.39
-0.37
-0.375
-0.37
-0.37
-0.38
-0.38
-0.385
-0.39
-0.39
-0.385
-0.37
-0.385
-0.39
-0.41
-0.415
-0.415
-0.375
-0.3
-0.19
-0.05
0.115
0.325
0.525
0.705
0.79
0.745
0.565
0.28
-0.025
-0.285
-0.445
-0.505
-0.48
-0.41
-0.34
-0.295
-0.27
-0.27
-0.275
-0.3
-0.315
-0.33
-0.345
-0.355
-0.36
-0.35
-0.35
-0.345
-0.34
-0.33
-0.345
-0.345
-0.355
-0.35
-0.355
-0.36
-0.36
-0.345
-0.34
-0.33
-0.33
-0.33
-0.325
-0.325
-0.33
-0.34
-0.325
-0.335
-0.345
-0.325
-0.315
-0.315
-0.3
-0.305
-0.3
-0.295
-0.295
-0.305
-0.305
-0.32
-0.315
-0.305
-0.295
-0.3
-0.29
-0.275
-0.275
-0.28
-0.295
-0.295
-0.295
-0.295
-0.305
-0.3
-0.285
-0.28
-0.28
-0.275
-0.27
-0.27
-0.275
-0.285
-0.285
-0.29
-0.295
-0.28
-0.265
-0.26
-0.25
-0.25
-0.25
-0.25
-0.26
-0.265
-0.27
-0.27
-0.265
-0.26
-0.25
-0.245
-0.235
-0.23
-0.225
-0.22
-0.225
-0.22
-0.225
-0.22
-0.215
-0.2
-0.195
-0.195
-0.17
-0.18
-0.18
-0.18
-0.195
-0.195
-0.22
-0.225
-0.245
-0.24
-0.235
-0.245
-0.24
-0.245
-0.24
-0.25
-0.255
-0.27
-0.27
-0.28
-0.29
-0.285
-0.275
-0.27
-0.27
-0.28
-0.27
-0.275
-0.285
-0.295
-0.3
-0.305
-0.31
-0.31
-0.305
-0.295
-0.295
-0.285
-0.295
-0.29
-0.31
-0.32
-0.315
-0.32
-0.325
-0.315
-0.32
-0.315
-0.305
-0.31
-0.305
-0.315
-0.32
-0.33
-0.335
-0.34
-0.35
-0.34
-0.335
-0.33
-0.325
-0.325
-0.315
-0.325
-0.325
-0.335
-0.33
-0.34
-0.345
-0.34
-0.33
-0.335
-0.325
-0.33
-0.33
-0.325
-0.335
-0.33
-0.34
-0.345
-0.355
-0.345
-0.34
-0.33
-0.335
-0.32
-0.32
-0.325
-0.325
-0.315
-0.315
-0.31
-0.3
-0.3
-0.28
-0.275
-0.265
-0.26
-0.245
-0.25
-0.24
-0.245
-0.25
-0.26
-0.275
-0.29
-0.29
-0.29
-0.285
-0.285
-0.285
-0.29
-0.31
-0.315
-0.32
-0.325
-0.335
-0.34
-0.33
-0.33
-0.335
-0.335
-0.33
-0.335
-0.335
-0.34
-0.345
-0.35
-0.35
-0.34
-0.34
-0.34
-0.325
-0.32
-0.325
-0.325
-0.335
-0.34
-0.365
-0.38
-0.4
-0.385
-0.335
-0.265
-0.15
-0.01
0.155
0.335
0.52
0.675
0.77
0.765
0.645
0.405
0.145
-0.115
-0.3
-0.39
-0.395
-0.35
-0.29
-0.25
-0.24
-0.245
-0.25
-0.26
-0.265
-0.28
-0.28
-0.285
-0.28
-0.29
-0.305
-0.3
-0.31
-0.32
-0.32
-0.32
-0.31
-0.315
-0.3
-0.3
-0.295
-0.305
-0.295
-0.305
-0.32
-0.32
-0.315
-0.31
-0.305
-0.31
-0.29
-0.285
-0.285
-0.285
-0.295
-0.3
-0.295
-0.305
-0.3
-0.3
-0.29
-0.28
-0.275
-0.275
-0.265
-0.27
-0.27
-0.295
-0.285
-0.29
-0.285
-0.28
-0.29
-0.275
-0.265
-0.255
-0.25
-0.255
-0.26
-0.265
-0.275
-0.275
-0.27
-0.27
-0.255
-0.26
-0.24
-0.235
-0.23
-0.24
-0.235
-0.25
-0.245
-0.25
-0.255
-0.245
-0.24
-0.235
-0.225
-0.22
-0.22
-0.22
-0.23
-0.235
-0.24
-0.235
-0.24
-0.22
-0.21
-0.21
-0.19
-0.18
-0.18
-0.17
-0.17
-0.165
-0.175
-0.185
-0.185
-0.185
-0.18
-0.175
-0.18
-0.175
-0.175
-0.185
-0.195
-0.205
-0.215
-0.23
-0.235
-0.24
-0.24
-0.24
-0.245
-0.25
-0.255
-0.255
-0.26
-0.265
-0.285
-0.285
-0.29
-0.285
-0.275
-0.275
-0.285
-0.285
-0.285
-0.28
-0.285
-0.295
-0.295
-0.305
-0.31
-0.315
-0.305
-0.3
-0.29
-0.3
-0.295
-0.3
-0.305
-0.325
-0.32
-0.33
-0.34
-0.335
-0.33
-0.325
-0.31
-0.305
-0.31
-0.315
-0.32
-0.32
-0.33
-0.335
-0.34
-0.335
-0.325
-0.335
-0.325
-0.315
-0.315
-0.31
-0.32
-0.33
-0.335
-0.35
-0.355
-0.345
-0.345
-0.345
-0.34
-0.32
-0.32
-0.315
-0.32
-0.33
-0.335
-0.335
-0.335
-0.33
-0.325
-0.325
-0.315
-0.31
-0.295
-0.29
-0.295
-0.28
-0.285
-0.29
-0.29
-0.285
-0.27
-0.255
-0.23
-0.225
-0.22
-0.235
-0.265
-0.28
-0.29
-0.3
-0.305
-0.295
-0.295
-0.295
-0.295
-0.29
-0.3
-0.295
-0.31
-0.325
-0.335
-0.35
-0.36
-0.365
-0.355
-0.35
-0.35
-0.345
-0.34
-0.345
-0.35
-0.35
-0.35
-0.355
-0.365
-0.345
-0.355
-0.345
-0.345
-0.34
-0.355
-0.37
-0.39
-0.385
-0.355
-0.28
-0.18
-0.055
0.13
0.32
0.515
0.695
0.8
0.775
0.62
0.37
0.075
-0.185
-0.36
-0.44
-0.42
-0.35
-0.275
-0.225
-0.215
-0.235
-0.255
-0.275
-0.305
-0.3
-0.315
-0.315
-0.31
-0.305
-0.3
-0.29
-0.305
-0.3
-0.305
-0.315
-0.32
-0.325
-0.33
-0.33
-0.32
-0.315
-0.315
-0.3
-0.3
-0.31
-0.31
-0.31
-0.31
-0.32
-0.33
-0.31
-0.315
-0.3
-0.295
-0.285
-0.275
-0.275
-0.285
-0.29
-0.295
-0.295
-0.3
-0.295
-0.285
-0.28
-0.275
-0.27
-0.26
-0.26
-0.265
-0.27
-0.28
-0.28
-0.29
-0.28
-0.265
-0.255
-0.25
-0.25
-0.25
-0.245
-0.245
-0.255
-0.255
-0.25
-0.255
-0.25
-0.24
-0.245
-0.24
-0.22
-0.22
-0.225
-0.225
-0.23
-0.23
-0.235
-0.23
-0.22
-0.215
-0.205
-0.195
-0.195
-0.18
-0.195
-0.185
-0.185
-0.18
-0.185
-0.19
-0.185
-0.18
-0.17
-0.165
-0.16
-0.175
-0.18
-0.18
-0.19
-0.205
-0.21
-0.215
-0.225
-0.235
-0.225
-0.225
-0.225
-0.235
-0.25
-0.265
-0.27
-0.28
-0.285
-0.3
-0.28
-0.285
-0.285
-0.275
-0.27
-0.28
-0.28
-0.29
-0.295
-0.3
-0.31
-0.31
-0.315
-0.315
-0.305
-0.31
-0.295
-0.305
-0.315
-0.315
-0.32
-0.33
-0.33
-0.345
-0.34
-0.335
-0.33
-0.325
-0.325
-0.32
-0.32
-0.33
-0.34
-0.34
-0.345
-0.355
-0.35
-0.345
-0.34
-0.33
-0.33
-0.33
-0.33
-0.34
-0.345
-0.355
-0.35
-0.36
-0.355
-0.36
-0.345
-0.35
-0.345
-0.34
-0.345
-0.35
-0.35
-0.365
-0.38
-0.365
-0.37
-0.365
-0.36
-0.355
-0.34
-0.335
-0.335
-0.33
-0.335
-0.335
-0.34
-0.345
-0.335
-0.33
-0.325
-0.315
-0.31
-0.295
-0.28
-0.27
-0.27
-0.285
-0.305
-0.315
-0.345
-0.335
-0.33
-0.325
-0.33
-0.33
-0.35
-0.35
-0.36
-0.37
-0.37
-0.385
-0.385
-0.39
-0.39
-0.395
-0.385
-0.385
-0.38
-0.385
-0.385
-0.395
-0.4
-0.415
-0.4
-0.39
-0.385
-0.38
-0.36
-0.37
-0.37
-0.38
-0.41
-0.43
-0.435
-0.415
-0.36
-0.27
-0.155
0.0
0.18
0.37
0.565
0.715
0.765
0.69
0.49
0.215
-0.07
-0.3
-0.43
-0.45
-0.405
-0.335
-0.285
-0.26
-0.26
-0.275
-0.305
-0.325
-0.335
-0.35
-0.345
-0.345
-0.325
-0.32
-0.33
-0.33
-0.345
-0.355
-0.355
-0.355
-0.355
-0.345
-0.355
-0.345
-0.33
-0.33
-0.335
-0.335
-0.345
-0.345
-0.355
-0.365
-0.35
-0.34
-0.35
-0.325
-0.33
-0.325
-0.325
-0.32
-0.33
-0.335
-0.34
-0.34
-0.33
-0.32
-0.315
-0.31
-0.295
-0.295
-0.3
-0.3
-0.3
-0.31
-0.31
-0.315
-0.305
-0.3
-0.295
-0.285
-0.285
-0.28
-0.29
-0.285
-0.285
-0.29
-0.295
-0.29
-0.29
-0.285
-0.285
-0.255
-0.255
-0.265
-0.26
-0.26
-0.27
-0.265
-0.275
-0.275
-0.27
-0.26
-0.25
-0.23
-0.225
-0.215
-0.21
-0.205
-0.2
-0.215
-0.215
-0.22
-0.215
-0.205
-0.2
-0.205
-0.205
-0.21
-0.22
-0.225
-0.24
-0.255
-0.27
-0.27
-0.275
-0.27
-0.265
-0.275
-0.275
-0.28
-0.285
-0.29
-0.305
-0.32
-0.325
-0.335
-0.33
-0.32
-0.32
-0.32
-0.325
-0.32
-0.33
-0.34
-0.34
-0.355
-0.345
-0.355
-0.355
-0.34
-0.34
-0.345
-0.34
-0.335
-0.345
-0.36
-0.365
-0.375
-0.385
-0.375
-0.37
-0.37
-0.37
-0.365
-0.35
-0.35
-0.355
-0.36
-0.37
-0.375
-0.38
-0.385
-0.385
-0.385
-0.385
-0.38
-0.38
-0.37
-0.375
-0.375
-0.375
-0.39
-0.39
-0.39
-0.39
-0.385
-0.38
-0.38
-0.37
-0.375
-0.375
-0.375
-0.38
-0.395
-0.39
-0.405
-0.395
-0.39
-0.375
-0.38
-0.37
-0.36
-0.355
-0.355
-0.35
-0.355
-0.35
-0.365
-0.355
-0.35
-0.345
-0.34
-0.315
-0.3
-0.305
-0.305
-0.33
-0.35
-0.37
-0.375
-0.375
-0.375
-0.35
-0.34
-0.36
-0.365
-0.36
-0.365
-0.37
-0.385
-0.39
-0.405
-0.41
-0.41
-0.4
-0.405
-0.4
-0.395
-0.4
-0.39
-0.415
-0.415
-0.425
-0.43
-0.43
-0.42
-0.42
-0.4
-0.4
-0.4
-0.4
-0.425
-0.435
-0.46
-0.47
-0.46
-0.405
-0.325
-0.175
-0.03
0.155
0.35
0.56
0.7
0.75
0.665
0.455
0.175
-0.11
-0.33
-0.465
-0.48
-0.45
-0.385
-0.33
-0.3
-0.305
-0.32
-0.335
-0.345
-0.355
-0.36
-0.36
-0.36
-0.36
-0.365
-0.36
-0.36
-0.375
-0.375
-0.385
-0.395
-0.385
-0.385
-0.375
-0.37
-0.36
-0.355
-0.37
-0.355
-0.36
-0.375
-0.38
-0.38
-0.37
-0.37
-0.365
-0.35
-0.35
-0.345
-0.345
-0.34
-0.345
-0.345
-0.35
-0.355
-0.35
-0.34
-0.345
-0.33
-0.33
-0.335
-0.325
-0.33
-0.33
-0.325
-0.33
-0.34
-0.34
-0.34
-0.325
-0.305
-0.305
-0.31
-0.305
-0.31
-0.31
-0.315
-0.315
-0.33
-0.31
-0.31
-0.305
-0.29
-0.29
-0.295
-0.29
-0.295
-0.29
-0.295
-0.305
-0.305
-0.31
-0.295
-0.29
-0.285
-0.27
-0.26
-0.27
-0.265
-0.275
-0.27
-0.265
-0.26
-0.26
-0.25
-0.235
-0.225
-0.21
-0.225
-0.22
-0.23
-0.25
-0.25
-0.265
-0.28
-0.29
-0.28
-0.29
-0.29
-0.295
-0.295
-0.305
-0.315
-0.325
-0.335
-0.34
-0.34
-0.34
-0.345
-0.345
-0.35
-0.335
-0.345
-0.335
-0.345
-0.36
-0.355
-0.36
-0.375
-0.365
-0.36
-0.36
-0.35
-0.345
-0.36
-0.36
-0.36
-0.37
-0.38
-0.375
-0.385
-0.385
-0.385
-0.375
-0.365
-0.37
-0.365
-0.365
-0.37
-0.37
-0.385
-0.405
-0.4
-0.405
-0.4
-0.4
-0.385
-0.38
-0.375
-0.38
-0.375
-0.395
-0.39
-0.395
-0.395
-0.4
-0.39
-0.385
-0.39
-0.38
-0.38
-0.38
-0.395
-0.4
-0.405
-0.415
-0.41
-0.41
-0.395
-0.395
-0.38
-0.36
-0.355
-0.36
-0.35
-0.345
-0.35
-0.355
-0.355
-0.355
-0.34
-0.315
-0.305
-0.29
-0.28
-0.285
-0.295
-0.315
-0.33
-0.35
-0.35
-0.37
-0.37
-0.365
-0.365
-0.355
-0.35
-0.35
-0.365
-0.37
-0.39
-0.39
-0.4
-0.42
-0.415
-0.41
-0.41
-0.405
-0.4
-0.39
-0.405
-0.4
-0.405
-0.41
-0.41
-0.41
-0.415
-0.41
-0.4
-0.39
-0.4
-0.395
-0.405
-0.43
-0.445
-0.455
-0.445
-0.4
-0.31
-0.18
-0.035
0.155
0.35
0.55
0.695
0.775
0.735
0.545
0.285
-0.02
-0.275
-0.43
-0.49
-0.465
-0.405
-0.36
-0.32
-0.31
-0.32
-0.33
-0.335
-0.35
-0.36
-0.36
-0.375
-0.375
-0.37
-0.375
-0.38
-0.385
-0.38
-0.39
-0.39
-0.39
-0.39
-0.375
-0.37
-0.365
-0.365
-0.365
-0.365
-0.36
-0.38
-0.375
-0.38
-0.375
-0.37
-0.36
-0.35
-0.345
-0.35
-0.34
-0.345
-0.34
-0.34
-0.35
-0.355
-0.35
-0.34
-0.335
-0.335
-0.32
-0.31
-0.31
-0.315
-0.315
-0.325
-0.33
-0.32
-0.335
-0.325
-0.325
-0.315
-0.3
-0.31
-0.305
-0.305
-0.305
-0.305
-0.31
-0.31
-0.32
-0.315
-0.31
-0.3
-0.285
-0.29
-0.285
-0.29
-0.305
-0.305
-0.305
-0.31
-0.315
-0.295
-0.3
-0.3
-0.285
-0.285
-0.275
-0.275
-0.27
-0.27
-0.265
-0.27
-0.255
-0.245
-0.235
-0.23
-0.23
-0.22
-0.215
-0.215
-0.23
-0.24
-0.25
-0.255
-0.265
-0.275
-0.265
-0.265
-0.27
-0.27
-0.275
-0.285
-0.305
-0.305
-0.32
-0.325
-0.33
-0.33
-0.335
-0.33
-0.32
-0.33
-0.315
-0.33
-0.335
-0.335
-0.345
-0.355
-0.35
-0.35
-0.335
-0.335
-0.33
-0.325
-0.33
-0.34
-0.35
-0.355
-0.37
-0.365
-0.36
-0.37
-0.36
-0.36
-0.35
-0.345
-0.35
-0.36
-0.36
-0.375
-0.365
-0.375
-0.38
-0.375
-0.375
-0.37
-0.365
-0.37
-0.355
-0.355
-0.365
-0.375
-0.375
-0.38
-0.375
-0.37
-0.365
-0.36
-0.36
-0.36
-0.35
-0.365
-0.37
-0.38
-0.38
-0.38
-0.385
-0.385
-0.375
-0.375
-0.375
-0.37
-0.375
-0.38
-0.375
-0.365
-0.36
-0.36
-0.345
-0.34
-0.335
-0.325
-0.315
-0.31
-0.305
-0.295
-0.295
-0.295
-0.29
-0.3
-0.31
-0.31
-0.33
-0.335
-0.33
-0.335
-0.315
-0.325
-0.335
-0.355
-0.35
-0.355
-0.37
-0.365
-0.37
-0.375
-0.38
-0.385
-0.38
-0.385
-0.39
-0.39
-0.39
-0.4
-0.4
-0.395
-0.39
-0.385
-0.375
-0.37
-0.365
-0.37
-0.38
-0.39
-0.41
-0.43
-0.45
-0.435
-0.405
-0.365
-0.265
-0.145
0.015
0.195
0.39
0.57
0.705
0.75
0.675
0.475
0.22
-0.045
