Lead II
-0.18
-0.215
-0.215
-0.21
-0.2
-0.205
-0.235
-0.235
-0.205
-0.175
-0.15
-0.15
-0.16
-0.2
-0.235
-0.25
-0.235
-0.235
-0.23
-0.21
-0.205
-0.2
-0.18
-0.15
-0.13
-0.135
-0.145
-0.155
-0.175
-0.23
-0.27
-0.285
-0.275
-0.25
-0.225
-0.22
-0.21
-0.195
-0.16
-0.14
-0.145
-0.195
-0.215
-0.235
-0.21
-0.2
-0.19
-0.17
-0.165
-0.17
-0.16
-0.16
-0.18
-0.2
-0.215
-0.19
-0.18
-0.17
-0.18
-0.175
-0.185
-0.21
-0.205
-0.19
-0.195
-0.19
-0.16
-0.145
-0.16
-0.165
-0.17
-0.175
-0.205
-0.215
-0.195
-0.165
-0.135
-0.13
-0.145
-0.17
-0.185
-0.175
-0.17
-0.16
-0.195
-0.205
-0.18
-0.15
-0.1
-0.08
-0.105
-0.16
-0.18
-0.19
-0.185
-0.155
-0.155
-0.16
-0.145
-0.135
-0.15
-0.19
-0.2
-0.205
-0.205
-0.19
-0.18
-0.165
-0.17
-0.16
-0.15
-0.185
-0.24
-0.285
-0.32
-0.36
-0.365
-0.355
-0.35
-0.34
-0.32
-0.3
-0.275
-0.225
-0.21
-0.2
-0.205
-0.19
-0.215
-0.24
-0.24
-0.2
-0.165
-0.155
-0.145
-0.15
-0.18
-0.21
-0.23
-0.23
-0.23
-0.18
-0.15
-0.135
-0.125
-0.115
-0.1
-0.09
-0.13
-0.165
-0.18
-0.17
-0.145
-0.115
-0.095
-0.095
-0.11
-0.13
-0.11
-0.11
-0.14
-0.18
-0.22
-0.255
-0.255
-0.25
-0.27
-0.25
-0.205
-0.165
-0.13
-0.115
-0.11
-0.125
-0.16
-0.215
-0.275
-0.28
-0.2
-0.025
0.205
0.455
0.605
0.65
0.615
0.585
0.455
0.31
0.17
0.09
0.005
-0.045
-0.095
-0.1
-0.09
-0.055
-0.045
-0.045
-0.03
-0.04
-0.06
-0.065
-0.065
-0.05
-0.05
-0.06
-0.08
-0.115
-0.105
-0.11
-0.1
-0.095
-0.075
-0.055
-0.03
0.005
0.015
0.01
-0.015
-0.045
-0.06
-0.065
-0.075
-0.045
-0.02
-0.015
-0.05
-0.09
-0.11
-0.08
-0.065
-0.03
-0.01
-0.005
-0.02
-0.01
0.025
0.025
0.035
0.055
0.07
0.08
0.095
0.1
0.07
0.035
0.005
0.01
0.04
0.075
0.115
0.16
0.175
0.18
0.17
0.135
0.105
0.085
0.06
0.05
0.05
0.085
0.115
0.145
0.12
0.13
0.155
0.175
0.17
0.135
0.1
0.075
0.095
0.125
0.165
0.21
0.205
0.2
0.2
0.21
0.225
0.19
0.14
0.125
0.11
0.12
0.135
0.125
0.135
0.11
0.1
0.1
0.085
0.07
0.07
0.06
0.045
0.015
-0.005
-0.02
-0.035
-0.035
-0.035
-0.025
-0.02
-0.02
-0.025
-0.03
-0.045
-0.08
-0.125
-0.155
-0.16
-0.12
-0.075
-0.04
-0.025
-0.065
-0.115
-0.13
-0.135
-0.135
-0.13
-0.14
-0.15
-0.15
-0.15
-0.11
-0.085
-0.085
-0.11
-0.135
-0.14
-0.145
-0.15
-0.125
-0.12
-0.135
-0.135
-0.125
-0.15
-0.165
-0.2
-0.21
-0.19
-0.17
-0.105
-0.065
-0.06
-0.08
-0.12
-0.135
-0.145
-0.19
-0.175
-0.19
-0.175
-0.175
-0.165
-0.165
-0.17
-0.18
-0.165
-0.165
-0.16
-0.155
-0.16
-0.135
-0.105
-0.095
-0.13
-0.16
-0.16
-0.145
-0.095
-0.08
-0.065
-0.07
-0.08
-0.09
-0.09
-0.085
-0.085
-0.115
-0.155
-0.16
-0.12
-0.06
-0.015
-0.02
-0.075
-0.105
-0.115
-0.09
-0.085
-0.09
-0.09
-0.1
-0.1
-0.1
-0.08
-0.095
-0.1
-0.1
-0.095
-0.085
-0.085
-0.065
-0.045
-0.045
-0.05
-0.08
-0.11
-0.13
-0.145
-0.17
-0.19
-0.205
-0.19
-0.19
-0.17
-0.15
-0.15
-0.16
-0.165
-0.16
-0.185
-0.21
-0.175
-0.145
-0.1
-0.07
-0.065
-0.08
-0.08
-0.085
-0.09
-0.11
-0.125
-0.105
-0.035
0.0
-0.015
-0.04
-0.055
-0.055
-0.015
0.0
0.03
0.035
0.02
-0.005
0.0
-0.03
-0.05
-0.06
-0.075
-0.08
-0.055
-0.045
-0.045
-0.045
-0.07
-0.065
-0.09
-0.11
-0.12
-0.125
-0.1
-0.105
-0.075
-0.035
-0.015
0.01
0.02
0.015
0.04
0.065
0.105
0.255
0.445
0.635
0.735
0.735
0.67
0.55
0.365
0.21
0.135
0.115
0.095
0.08
0.05
0.02
0.0
0.0
0.02
0.035
0.05
0.085
0.095
0.09
0.045
-0.01
-0.055
-0.04
-0.04
-0.02
-0.015
-0.025
0.015
0.04
0.06
0.06
0.025
0.015
0.02
0.035
0.025
0.015
0.005
-0.01
-0.015
0.0
0.03
0.07
0.095
0.115
0.11
0.095
0.075
0.085
0.06
0.04
0.01
0.015
0.065
0.12
0.14
0.125
0.12
0.12
0.11
0.13
0.125
0.115
0.11
0.13
0.205
0.265
0.305
0.305
0.25
0.16
0.095
0.055
0.065
0.09
0.12
0.15
0.155
0.175
0.185
0.185
0.18
0.15
0.13
0.13
0.145
0.15
0.165
0.185
0.215
0.215
0.175
0.14
0.115
0.11
0.13
0.175
0.215
0.265
0.27
0.23
0.16
0.1
0.065
0.065
0.03
0.025
0.03
0.025
0.025
0.02
0.04
0.02
-0.01
-0.035
-0.045
-0.065
-0.08
-0.08
-0.08
-0.075
-0.075
-0.09
-0.11
-0.1
-0.095
-0.09
-0.095
-0.09
-0.1
-0.115
-0.125
-0.125
-0.1
-0.065
-0.06
-0.09
-0.1
-0.115
-0.135
-0.145
-0.165
-0.16
-0.13
-0.12
-0.09
-0.125
-0.165
-0.19
-0.185
-0.16
-0.14
-0.16
-0.18
-0.19
-0.165
-0.14
-0.125
-0.145
-0.18
-0.195
-0.175
-0.155
-0.165
-0.155
-0.155
-0.165
-0.17
-0.18
-0.195
-0.19
-0.195
-0.21
-0.21
-0.18
-0.17
-0.16
-0.18
-0.195
-0.185
-0.155
-0.15
-0.2
-0.225
-0.225
-0.21
-0.19
-0.21
-0.225
-0.215
-0.195
-0.17
-0.13
-0.12
-0.125
-0.15
-0.18
-0.18
-0.195
-0.2
-0.215
-0.235
-0.255
-0.235
-0.22
-0.195
-0.185
-0.205
-0.21
-0.21
-0.215
-0.22
-0.235
-0.245
-0.245
-0.21
-0.195
-0.175
-0.19
-0.2
-0.205
-0.19
-0.2
-0.205
-0.17
-0.15
-0.145
-0.125
-0.135
-0.13
-0.155
-0.175
-0.165
-0.145
-0.165
-0.17
-0.17
-0.19
-0.19
-0.2
-0.19
-0.19
-0.2
-0.21
-0.215
-0.22
-0.215
-0.23
-0.22
-0.2
-0.2
-0.195
-0.21
-0.22
-0.235
-0.255
-0.3
-0.305
-0.315
-0.32
-0.325
-0.335
-0.35
-0.36
-0.35
-0.315
-0.285
-0.27
-0.26
-0.24
-0.24
-0.255
-0.285
-0.31
-0.335
-0.305
-0.265
-0.22
-0.19
-0.18
-0.2
-0.21
-0.225
-0.23
-0.235
-0.225
-0.24
-0.235
-0.22
-0.205
-0.19
-0.195
-0.205
-0.18
-0.155
-0.14
-0.165
-0.175
-0.175
-0.165
-0.145
-0.145
-0.15
-0.18
-0.21
-0.225
-0.205
-0.18
-0.17
-0.18
-0.195
-0.235
-0.285
-0.305
-0.275
-0.26
-0.235
-0.22
-0.225
-0.23
-0.26
-0.29
-0.3
-0.255
-0.135
0.05
0.245
0.435
0.57
0.65
0.655
0.62
0.54
0.405
0.225
0.075
0.0
-0.06
-0.095
-0.135
-0.125
-0.13
-0.13
-0.115
-0.09
-0.075
-0.055
-0.025
-0.025
-0.055
-0.085
-0.11
-0.15
-0.19
-0.19
-0.185
-0.16
-0.14
-0.115
-0.09
-0.075
-0.06
-0.075
-0.095
-0.105
-0.115
-0.12
-0.11
-0.1
-0.085
-0.065
-0.045
-0.005
0.015
0.02
0.02
-0.01
-0.05
-0.09
-0.1
-0.1
-0.095
-0.09
-0.04
-0.01
-0.015
-0.005
-0.03
-0.05
-0.05
-0.045
-0.04
-0.05
-0.045
-0.065
-0.065
-0.045
-0.04
-0.01
0.005
0.02
0.06
0.06
0.05
0.05
0.025
0.035
0.06
0.115
0.14
0.105
0.065
0.04
0.025
0.02
0.045
0.045
0.06
0.075
0.105
0.135
0.145
0.145
0.105
0.07
0.05
0.035
0.045
0.05
0.06
0.09
0.15
0.16
0.165
0.13
0.11
0.095
0.095
0.07
0.07
0.065
0.065
0.065
0.1
0.12
0.105
0.065
0.03
0.01
-0.01
-0.025
-0.035
-0.045
-0.055
-0.075
-0.1
-0.11
-0.11
-0.12
-0.14
-0.145
-0.155
-0.13
-0.11
-0.075
-0.06
-0.08
-0.08
-0.105
-0.125
-0.135
-0.11
-0.1
-0.11
-0.115
-0.125
-0.15
-0.17
-0.185
-0.19
-0.145
-0.13
-0.16
-0.205
-0.235
-0.225
-0.23
-0.245
-0.25
-0.245
-0.235
-0.2
-0.2
-0.205
-0.23
-0.25
-0.245
-0.24
-0.22
-0.205
-0.175
-0.15
-0.14
-0.13
-0.14
-0.19
-0.22
-0.255
-0.26
-0.25
-0.225
-0.22
-0.235
-0.24
-0.22
-0.21
-0.21
-0.22
-0.24
-0.25
-0.24
-0.215
-0.205
-0.185
-0.19
-0.185
-0.18
-0.2
-0.21
-0.225
-0.25
-0.265
-0.265
-0.25
-0.215
-0.205
-0.19
-0.215
-0.225
-0.21
-0.205
-0.19
-0.2
-0.205
-0.21
-0.19
-0.165
-0.15
-0.175
-0.22
-0.255
-0.25
-0.22
-0.195
-0.18
-0.215
-0.235
-0.23
-0.21
-0.18
-0.165
-0.16
-0.16
-0.16
-0.155
-0.165
-0.175
-0.195
-0.22
-0.205
-0.185
-0.175
-0.17
-0.16
-0.15
-0.11
-0.09
-0.1
-0.11
-0.14
-0.18
-0.205
-0.235
-0.265
-0.26
-0.245
-0.215
-0.175
-0.155
-0.165
-0.19
-0.215
-0.245
-0.265
-0.26
-0.265
-0.27
-0.3
-0.325
-0.34
-0.31
-0.28
-0.285
-0.31
-0.325
-0.325
-0.325
-0.31
-0.305
-0.3
-0.28
-0.25
-0.22
-0.22
-0.23
-0.225
-0.22
-0.205
-0.19
-0.185
-0.215
-0.22
-0.23
-0.21
-0.16
-0.13
-0.12
-0.145
-0.17
-0.19
-0.185
-0.2
-0.2
-0.2
-0.185
-0.165
-0.13
-0.1
-0.065
-0.06
-0.065
-0.08
-0.085
-0.075
-0.11
-0.145
-0.18
-0.205
-0.21
-0.185
-0.165
-0.175
-0.18
-0.23
-0.29
-0.315
-0.3
-0.265
-0.24
-0.195
-0.18
-0.19
-0.22
-0.255
-0.29
-0.305
-0.32
-0.285
-0.15
0.035
0.29
0.5
0.645
0.675
0.65
0.595
0.48
0.33
0.205
0.115
0.03
-0.045
-0.085
-0.095
-0.085
-0.09
-0.07
-0.095
-0.105
-0.085
-0.07
-0.075
-0.085
-0.115
-0.15
-0.145
-0.13
-0.135
-0.14
-0.135
-0.125
-0.09
-0.075
-0.08
-0.07
-0.065
-0.075
-0.09
-0.1
-0.105
-0.11
-0.105
-0.105
-0.09
-0.05
-0.045
-0.03
-0.03
-0.04
-0.04
0.0
0.005
-0.01
-0.025
-0.05
-0.07
-0.055
-0.05
-0.06
-0.07
-0.065
-0.035
-0.02
0.005
0.005
0.005
0.015
0.035
0.045
0.055
0.035
0.015
-0.015
-0.02
-0.015
-0.005
0.03
0.035
0.06
0.095
0.11
0.115
0.09
0.07
0.05
0.05
0.07
0.085
0.1
0.105
0.095
0.115
0.15
0.17
0.17
0.16
0.13
0.135
0.165
0.19
0.205
0.155
0.13
0.125
0.125
0.135
0.145
0.14
0.145
0.155
0.18
0.18
0.18
0.19
0.19
0.195
0.19
0.195
0.165
0.135
0.09
0.07
0.07
0.07
0.07
0.05
0.04
0.06
0.09
0.125
0.14
0.115
0.07
0.025
-0.01
-0.025
-0.03
-0.04
-0.04
-0.055
-0.065
-0.05
-0.04
-0.06
-0.07
-0.065
-0.05
-0.02
0.01
-0.01
-0.05
-0.08
-0.09
-0.095
-0.095
-0.105
-0.11
-0.14
-0.155
-0.165
-0.175
-0.165
-0.14
-0.115
-0.09
-0.085
-0.07
-0.065
-0.075
-0.065
-0.07
-0.06
-0.05
-0.065
-0.125
-0.15
-0.155
-0.14
-0.135
-0.12
-0.1
-0.09
-0.095
-0.105
-0.125
-0.135
-0.135
-0.125
-0.11
-0.1
-0.1
-0.11
-0.115
-0.115
-0.135
-0.165
-0.18
-0.175
-0.165
-0.145
-0.14
-0.15
-0.16
-0.145
-0.125
-0.075
-0.02
0.0
-0.03
-0.075
-0.125
-0.17
-0.195
-0.19
-0.175
-0.16
-0.135
-0.115
-0.125
-0.135
-0.14
-0.15
-0.15
-0.115
-0.09
-0.105
-0.105
-0.1
-0.125
-0.105
-0.12
-0.105
-0.115
-0.105
-0.115
-0.145
-0.135
-0.14
-0.15
-0.16
-0.16
-0.14
-0.1
-0.06
-0.035
-0.04
-0.02
-0.015
-0.025
-0.045
-0.035
-0.035
-0.04
-0.03
-0.03
-0.05
-0.065
-0.08
-0.085
-0.09
-0.075
-0.06
-0.035
-0.04
-0.04
-0.065
-0.09
-0.1
-0.125
-0.115
-0.115
-0.115
-0.105
-0.09
-0.095
-0.12
-0.165
-0.195
-0.235
-0.215
-0.205
-0.2
-0.19
-0.18
-0.16
-0.145
-0.145
-0.135
-0.15
-0.13
-0.12
-0.11
-0.095
-0.085
-0.07
-0.04
-0.02
-0.02
-0.06
-0.05
-0.045
-0.06
-0.065
-0.07
-0.06
-0.045
-0.03
0.0
0.025
0.02
0.015
0.02
0.025
0.035
0.03
0.0
-0.02
-0.025
-0.01
0.005
0.015
0.025
0.015
0.02
0.005
0.025
0.05
0.045
0.005
-0.04
-0.095
-0.09
-0.11
-0.09
-0.05
-0.03
-0.02
0.0
0.025
0.055
0.045
0.0
-0.045
-0.04
0.025
0.2
0.415
0.65
0.805
0.875
0.86
0.795
0.76
0.72
0.63
0.485
0.345
0.245
0.17
0.13
0.095
0.09
0.075
0.055
0.045
0.06
0.09
0.12
0.13
0.11
0.075
0.05
0.025
0.015
0.02
0.025
0.01
0.015
0.04
0.11
0.15
0.175
0.145
0.1
0.065
0.05
0.07
0.075
0.06
0.03
0.03
0.08
0.12
0.145
0.135
0.13
0.12
0.15
0.145
0.135
0.115
0.1
0.09
0.1
0.115
0.14
0.14
0.12
0.115
0.105
0.1
0.105
0.105
0.1
0.115
0.11
0.12
0.13
0.14
0.145
0.18
0.205
0.22
0.23
0.22
0.21
0.21
0.23
0.215
0.195
0.185
0.175
0.165
0.175
0.175
0.195
0.19
0.17
0.16
0.17
0.2
0.215
0.235
0.255
0.26
0.245
0.19
0.16
0.145
0.15
0.15
0.17
0.19
0.175
0.16
0.135
0.125
0.16
0.18
0.195
0.19
0.185
0.195
0.21
0.22
0.21
0.21
0.19
0.17
0.14
0.12
0.1
0.05
0.0
-0.04
-0.015
-0.005
0.02
0.03
0.01
0.005
0.01
-0.005
-0.01
-0.035
-0.055
-0.065
-0.03
-0.005
0.01
0.015
0.015
-0.015
-0.015
-0.05
-0.06
-0.08
-0.085
-0.1
-0.075
-0.04
0.005
0.05
0.045
0.015
-0.05
-0.09
-0.11
-0.115
-0.13
-0.155
-0.14
-0.115
-0.085
-0.075
-0.085
-0.095
-0.095
-0.11
-0.145
-0.17
-0.18
-0.16
-0.13
-0.09
-0.075
-0.06
-0.075
-0.1
-0.085
-0.065
-0.055
-0.06
-0.08
-0.09
-0.09
-0.09
-0.1
-0.13
-0.14
-0.17
-0.175
-0.165
-0.15
-0.16
-0.17
-0.165
-0.14
-0.12
-0.11
-0.125
-0.12
-0.14
-0.125
-0.115
-0.11
-0.115
-0.135
-0.155
-0.135
-0.11
-0.085
-0.075
-0.085
-0.05
-0.035
-0.045
-0.075
-0.09
-0.12
-0.12
-0.125
-0.115
-0.115
-0.105
-0.075
-0.07
-0.07
-0.1
-0.12
-0.13
-0.095
-0.085
-0.085
-0.1
-0.125
-0.15
-0.16
-0.145
-0.095
-0.06
-0.025
-0.01
-0.025
-0.06
-0.08
-0.09
-0.105
-0.11
-0.115
-0.1
-0.06
-0.025
-0.03
-0.085
-0.11
-0.13
-0.145
-0.165
-0.17
-0.175
-0.22
-0.23
-0.255
-0.24
-0.23
-0.235
-0.235
-0.245
-0.24
-0.285
-0.305
-0.305
-0.285
-0.265
-0.235
-0.195
-0.18
-0.165
-0.16
-0.16
-0.15
-0.14
-0.125
-0.13
-0.13
-0.095
-0.06
-0.035
-0.075
-0.13
-0.16
-0.165
-0.15
-0.11
-0.085
-0.105
-0.12
-0.155
-0.14
-0.13
-0.145
-0.145
-0.17
-0.18
-0.17
-0.145
-0.11
-0.08
-0.075
-0.09
-0.105
-0.16
-0.24
-0.29
-0.295
-0.28
-0.21
-0.16
-0.105
-0.1
-0.11
-0.115
-0.145
-0.165
-0.14
-0.005
0.195
0.43
0.605
0.685
0.665
0.635
0.56
0.43
0.25
0.11
0.01
-0.035
-0.08
-0.07
-0.065
-0.03
-0.02
-0.04
-0.075
-0.09
-0.065
-0.025
-0.005
-0.01
-0.02
-0.015
0.035
0.065
0.06
0.01
-0.03
-0.085
-0.06
-0.05
-0.045
-0.06
-0.105
-0.115
-0.125
-0.135
-0.13
-0.12
-0.11
-0.08
-0.03
0.01
0.025
0.01
-0.015
-0.03
-0.045
-0.035
-0.02
0.0
0.035
0.05
0.06
0.03
-0.02
-0.05
-0.055
-0.03
0.025
0.08
0.115
0.11
0.075
0.045
0.025
0.03
0.05
0.07
0.065
0.055
0.07
0.075
0.065
0.085
0.095
0.1
0.095
0.09
0.115
0.12
0.125
0.135
0.125
0.13
0.105
0.1
0.085
0.095
0.115
0.15
0.18
0.195
0.205
0.205
0.255
0.27
0.275
0.21
0.14
0.065
0.035
0.035
0.05
0.06
0.055
0.045
0.055
0.065
0.06
0.045
0.03
0.03
0.015
0.005
-0.015
-0.035
-0.06
-0.055
-0.05
-0.025
-0.015
-0.04
-0.06
-0.09
-0.065
-0.045
-0.025
-0.02
-0.03
-0.06
-0.08
-0.115
-0.105
-0.115
-0.155
-0.135
-0.13
-0.125
-0.105
-0.13
-0.13
-0.155
-0.18
-0.165
-0.17
-0.175
-0.18
-0.185
-0.17
-0.14
-0.095
-0.065
-0.055
-0.075
-0.125
-0.175
-0.205
-0.195
-0.18
-0.17
-0.14
-0.085
-0.065
-0.075
-0.135
-0.195
-0.245
-0.245
-0.24
-0.225
-0.225
-0.2
-0.175
-0.135
-0.125
-0.145
-0.14
-0.16
-0.17
-0.175
-0.185
-0.18
-0.195
-0.195
-0.175
-0.155
-0.14
-0.15
-0.155
-0.155
-0.135
-0.12
-0.105
-0.11
-0.12
-0.135
-0.115
-0.09
-0.11
-0.155
-0.185
-0.18
-0.15
-0.105
-0.1
-0.12
-0.145
-0.185
-0.2
-0.17
-0.155
-0.16
-0.17
-0.17
-0.135
-0.11
-0.095
-0.1
-0.115
-0.11
-0.125
-0.115
-0.13
-0.13
-0.15
-0.14
-0.13
-0.11
-0.1
-0.105
-0.12
-0.14
-0.135
-0.125
-0.11
-0.115
-0.105
-0.12
-0.14
-0.155
-0.18
-0.225
-0.27
-0.285
-0.275
-0.23
-0.215
-0.21
-0.195
-0.2
-0.17
-0.165
-0.155
-0.17
-0.22
-0.25
-0.255
-0.23
-0.185
-0.17
-0.165
-0.165
-0.15
-0.13
-0.085
-0.075
-0.045
-0.005
0.02
0.035
-0.02
-0.1
-0.135
-0.16
-0.16
-0.11
-0.08
-0.055
-0.06
-0.055
-0.07
-0.035
-0.02
-0.02
-0.03
-0.015
-0.005
0.0
0.015
0.02
-0.025
-0.125
-0.195
-0.235
-0.215
-0.17
-0.125
-0.135
-0.105
-0.09
-0.09
-0.09
-0.1
-0.12
-0.075
0.03
0.21
0.43
0.59
0.675
0.685
0.685
0.655
0.535
0.36
0.215
0.12
0.055
0.035
0.04
0.06
0.06
0.11
0.155
0.175
0.15
0.08
0.0
0.02
0.06
0.08
0.085
0.07
0.075
0.095
0.11
0.095
0.075
0.065
0.05
0.035
0.045
0.06
0.07
0.095
0.105
0.155
0.145
0.115
0.05
-0.015
-0.025
0.035
0.095
0.105
0.12
0.135
0.145
0.14
0.145
0.14
0.13
0.155
0.155
0.18
0.2
0.215
0.235
0.21
0.18
0.175
0.17
0.17
0.205
0.23
0.255
0.28
0.305
0.31
0.29
0.27
0.26
0.28
0.325
0.335
0.315
0.3
0.3
0.31
0.34
0.39
0.42
0.415
0.43
0.46
0.435
0.385
0.305
0.26
0.265
0.285
0.3
0.285
0.26
0.255
0.23
0.23
0.255
0.25
0.245
0.245
0.25
0.25
0.27
0.275
0.245
0.215
0.185
0.125
0.12
0.15
0.17
0.17
0.17
0.18
0.175
0.17
0.145
0.11
0.05
0.035
0.01
0.0
0.005
0.02
0.06
0.08
0.1
0.135
0.125
0.085
0.04
0.035
0.065
0.115
0.13
0.105
0.03
-0.025
-0.05
-0.035
-0.01
0.0
0.0
0.01
0.01
0.025
0.005
0.0
0.005
0.005
0.01
-0.005
-0.005
-0.03
-0.035
-0.04
-0.04
-0.025
-0.005
0.0
0.01
0.01
-0.005
0.005
0.025
0.035
0.055
0.07
0.085
0.065
0.03
0.005
-0.02
-0.025
-0.035
-0.02
0.0
0.02
0.03
0.06
0.055
0.055
0.025
0.0
-0.035
-0.045
-0.03
-0.025
-0.015
-0.01
-0.005
-0.025
-0.03
-0.035
-0.025
-0.015
-0.005
0.015
0.03
0.04
0.065
0.05
0.06
0.07
0.1
0.145
0.18
0.175
0.095
0.0
-0.03
-0.02
0.0
0.015
0.045
0.07
0.05
0.035
-0.015
-0.055
-0.065
-0.07
-0.075
-0.07
-0.08
-0.105
-0.095
-0.085
-0.085
-0.105
-0.12
-0.145
-0.155
-0.17
-0.13
-0.135
-0.13
-0.135
-0.125
-0.125
-0.125
-0.1
-0.065
-0.04
-0.01
0.0
-0.015
-0.05
-0.07
-0.06
-0.07
-0.05
-0.045
-0.025
-0.015
-0.045
-0.045
-0.03
0.025
0.095
0.12
0.115
0.095
0.065
0.005
-0.025
-0.025
-0.02
-0.025
-0.045
-0.045
-0.035
-0.03
-0.03
-0.06
-0.065
-0.07
-0.1
-0.125
-0.165
-0.18
-0.17
-0.165
-0.15
-0.135
-0.115
-0.08
-0.05
-0.04
-0.015
0.08
0.255
0.535
0.76
0.855
0.845
0.825
0.815
0.715
0.5
0.275
0.13
0.06
0.02
0.01
0.035
0.025
0.015
0.005
-0.005
-0.04
-0.05
-0.035
-0.005
-0.01
-0.005
-0.01
0.0
-0.025
-0.03
-0.025
0.02
0.045
0.08
0.115
0.105
0.04
-0.03
-0.035
0.01
0.085
0.15
0.185
0.15
0.085
0.06
0.06
0.04
0.005
-0.03
-0.01
0.02
0.04
0.07
0.095
0.12
0.085
0.055
0.03
0.01
0.02
0.035
0.075
0.135
0.205
0.235
0.195
0.135
0.105
0.13
0.175
0.215
0.23
0.215
0.19
0.195
0.22
0.235
0.205
0.155
0.125
0.11
0.125
0.12
0.09
0.115
0.15
0.24
0.345
0.385
0.32
0.21
0.1
0.075
0.07
0.07
0.085
0.1
0.12
0.105
0.095
0.1
0.07
0.025
-0.01
-0.005
0.0
0.035
0.045
0.05
0.005
-0.03
-0.045
-0.04
-0.03
-0.03
-0.04
-0.045
-0.065
-0.09
-0.09
-0.045
-0.01
-0.015
-0.055
-0.12
-0.18
-0.2
-0.155
-0.135
-0.12
-0.115
-0.125
-0.135
-0.105
-0.055
-0.01
-0.06
-0.15
-0.265
-0.3
-0.28
-0.22
-0.195
-0.175
-0.18
-0.155
-0.11
-0.09
-0.095
-0.11
-0.165
-0.195
-0.235
-0.235
-0.19
-0.15
-0.125
-0.14
-0.165
-0.215
-0.215
-0.22
-0.2
-0.185
-0.17
-0.14
-0.12
-0.15
-0.15
-0.135
-0.1
-0.045
-0.07
-0.16
-0.2
-0.22
-0.2
-0.19
-0.17
-0.165
-0.18
-0.17
-0.17
-0.16
-0.155
-0.155
-0.155
-0.155
-0.15
-0.135
-0.13
-0.14
-0.16
-0.185
-0.175
-0.135
-0.105
-0.105
-0.12
-0.145
-0.12
-0.075
-0.045
-0.035
-0.06
-0.08
-0.065
-0.05
-0.02
-0.04
-0.09
-0.15
-0.19
-0.195
-0.195
-0.165
-0.175
-0.175
-0.18
-0.155
-0.105
-0.09
-0.08
-0.08
-0.125
-0.205
-0.27
-0.3
-0.295
-0.27
-0.255
-0.235
-0.265
-0.3
-0.325
-0.335
-0.32
-0.3
-0.275
-0.285
-0.275
-0.275
-0.265
-0.26
-0.24
-0.235
-0.215
-0.21
-0.195
-0.175
-0.155
-0.145
-0.15
-0.155
-0.15
-0.12
-0.11
-0.115
-0.145
-0.17
-0.16
-0.145
-0.11
-0.1
-0.105
-0.08
-0.06
-0.04
-0.025
-0.08
-0.115
-0.14
-0.13
-0.115
-0.105
-0.095
-0.125
-0.125
-0.16
-0.23
-0.305
-0.375
-0.39
-0.35
-0.275
-0.225
-0.2
-0.205
-0.23
-0.245
-0.24
-0.22
-0.145
0.03
0.265
0.485
0.66
0.775
0.78
0.75
0.65
0.52
0.355
0.235
0.14
0.07
0.005
-0.035
-0.05
-0.05
-0.06
-0.08
-0.075
-0.065
-0.06
-0.04
-0.035
-0.04
-0.045
-0.06
-0.06
-0.065
-0.07
-0.06
-0.07
-0.045
-0.045
-0.03
-0.005
0.005
-0.025
-0.045
-0.045
-0.025
0.0
0.01
0.0
-0.005
-0.01
0.005
0.015
0.02
0.01
0.0
0.005
0.0
0.005
0.01
0.005
0.02
0.045
0.065
0.06
0.03
0.02
0.01
0.015
0.035
0.05
0.045
0.06
0.07
0.075
0.08
0.07
0.07
0.055
0.055
0.075
0.095
0.1
0.11
0.105
0.105
0.12
0.135
0.145
0.145
0.15
0.15
0.15
0.15
0.155
0.15
0.15
0.135
0.155
0.155
0.155
0.155
0.14
0.14
0.14
0.155
0.165
0.175
0.16
0.15
0.135
0.16
0.145
0.125
0.105
0.1
0.095
0.095
0.08
0.07
0.035
0.025
0.005
0.0
-0.005
0.005
-0.015
-0.02
-0.02
-0.025
-0.02
-0.045
-0.07
-0.08
-0.07
-0.055
-0.04
-0.05
-0.055
-0.075
-0.075
-0.09
-0.1
-0.12
-0.145
-0.135
-0.13
-0.095
-0.1
-0.105
-0.125
-0.13
-0.145
-0.125
-0.12
-0.13
-0.12
-0.115
-0.13
-0.13
-0.13
-0.14
-0.155
-0.15
-0.17
-0.16
-0.17
-0.16
-0.195
-0.19
-0.17
-0.13
-0.125
-0.135
-0.145
-0.155
-0.165
-0.155
-0.14
-0.135
-0.125
-0.115
-0.125
-0.12
-0.135
-0.15
-0.165
-0.165
-0.135
-0.105
-0.1
-0.1
-0.115
-0.12
-0.12
-0.11
-0.12
-0.11
-0.095
-0.095
-0.095
-0.09
-0.08
-0.095
-0.11
-0.105
-0.09
-0.09
-0.075
-0.075
-0.095
-0.11
-0.12
-0.11
-0.11
-0.12
-0.1
-0.075
-0.025
-0.005
-0.01
-0.025
-0.025
-0.04
-0.035
-0.035
-0.04
-0.04
-0.06
-0.065
-0.045
-0.05
-0.035
-0.035
-0.055
-0.055
-0.075
-0.055
-0.05
-0.07
-0.085
-0.095
-0.1
-0.105
-0.115
-0.15
-0.17
-0.2
-0.19
-0.17
-0.145
-0.13
-0.125
-0.15
-0.17
-0.155
-0.16
-0.165
-0.145
-0.155
-0.13
-0.095
-0.06
-0.03
-0.035
-0.04
-0.05
-0.05
-0.06
-0.06
-0.085
-0.065
-0.04
-0.015
-0.03
-0.03
-0.045
-0.05
-0.04
-0.035
-0.025
-0.045
-0.03
-0.03
0.01
0.025
0.055
0.06
0.05
0.045
0.05
0.035
0.025
0.015
0.0
-0.04
-0.08
-0.11
-0.12
-0.1
-0.065
-0.005
0.03
0.07
0.08
0.085
0.055
0.035
0.03
0.11
0.245
0.43
0.615
0.755
0.84
0.855
0.815
0.725
0.56
0.385
0.235
0.145
0.08
0.045
0.02
0.01
0.045
0.025
0.04
0.035
0.04
0.025
0.01
0.02
0.025
0.04
0.05
0.06
0.065
0.06
0.06
0.035
0.02
0.005
0.005
0.025
0.03
0.04
0.035
0.05
0.06
0.06
0.055
0.05
0.03
0.035
0.045
0.055
0.06
0.04
0.035
0.03
0.05
0.06
0.06
0.045
0.04
0.05
0.06
0.075
0.09
0.11
0.115
0.105
0.12
0.135
0.13
0.12
0.115
0.1
0.105
0.105
0.1
0.1
0.11
0.115
0.12
0.125
0.125
0.125
0.135
0.12
0.14
0.15
0.155
0.16
0.175
0.175
0.195
0.205
0.19
0.175
0.15
0.13
0.135
0.15
0.17
0.165
0.175
0.18
0.165
0.175
0.165
0.155
0.145
0.14
0.145
0.16
0.155
0.145
0.145
0.12
0.115
0.105
0.11
0.09
0.075
0.035
0.035
0.04
0.05
0.025
0.025
0.015
0.005
-0.005
0.0
-0.02
-0.06
-0.075
-0.09
-0.075
-0.08
-0.09
-0.105
-0.09
-0.095
-0.075
-0.075
-0.08
-0.1
-0.1
-0.115
-0.1
-0.1
-0.095
-0.105
-0.11
-0.105
-0.1
-0.115
-0.13
-0.15
-0.155
-0.155
-0.15
-0.13
-0.115
-0.125
-0.145
-0.16
-0.145
-0.155
-0.15
-0.165
-0.165
-0.145
-0.125
-0.13
-0.155
-0.175
-0.195
-0.205
-0.21
-0.205
-0.205
-0.205
-0.215
-0.195
-0.195
-0.195
-0.195
-0.21
-0.225
-0.22
-0.215
-0.18
-0.175
-0.18
-0.185
-0.175
-0.185
-0.185
-0.2
-0.215
-0.22
-0.21
-0.2
-0.195
-0.195
-0.195
-0.19
-0.17
-0.165
-0.165
-0.17
-0.18
-0.195
-0.19
-0.175
-0.2
-0.185
-0.2
-0.21
-0.2
-0.195
-0.19
-0.195
-0.195
-0.215
-0.195
-0.185
-0.18
-0.17
-0.165
-0.16
-0.155
-0.16
-0.16
-0.16
-0.165
-0.155
-0.14
-0.115
-0.1
-0.09
-0.1
-0.09
-0.095
-0.11
-0.135
-0.15
-0.15
-0.145
-0.15
-0.15
-0.175
-0.16
-0.18
-0.215
-0.22
-0.22
-0.235
-0.24
-0.255
-0.255
-0.24
-0.235
-0.245
-0.25
-0.275
-0.3
-0.31
-0.3
-0.295
-0.29
-0.3
-0.32
-0.33
-0.32
-0.305
-0.285
-0.275
-0.265
-0.25
-0.245
-0.245
-0.25
-0.27
-0.265
-0.245
-0.215
-0.195
-0.18
-0.19
-0.195
-0.195
-0.18
-0.185
-0.18
-0.18
-0.185
-0.165
-0.145
-0.14
-0.155
-0.16
-0.185
-0.185
-0.175
-0.16
-0.17
-0.15
-0.145
-0.14
-0.135
-0.135
-0.15
-0.16
-0.185
-0.18
-0.16
-0.15
-0.19
-0.255
-0.325
-0.355
-0.345
-0.29
-0.235
-0.21
-0.21
-0.185
-0.165
-0.145
-0.135
-0.085
0.06
0.305
0.53
0.7
0.76
0.735
0.69
0.645
0.545
0.365
0.2
0.085
0.015
-0.03
-0.075
-0.08
-0.095
-0.1
-0.105
-0.1
-0.095
-0.09
-0.085
-0.09
-0.09
-0.08
-0.065
-0.065
-0.07
-0.085
-0.09
-0.065
-0.04
-0.015
-0.01
-0.03
-0.045
-0.06
-0.06
-0.06
-0.07
-0.075
-0.07
-0.035
-0.01
0.03
0.025
0.015
-0.005
-0.005
0.0
-0.005
-0.005
-0.01
0.0
0.005
0.04
0.045
0.035
0.0
-0.025
-0.025
-0.015
0.01
0.015
0.015
0.03
0.045
0.065
0.08
0.08
0.07
0.065
0.04
0.075
0.075
0.075
0.07
0.065
0.075
0.095
0.115
0.12
0.125
0.13
0.13
0.135
0.135
0.15
0.145
0.15
0.185
0.195
0.22
0.225
0.215
0.2
0.195
0.2
0.195
0.175
0.16
0.17
0.195
0.22
0.23
0.215
0.195
0.175
0.17
0.185
0.17
0.155
0.15
0.145
0.165
0.165
0.175
0.14
0.115
0.09
0.085
0.085
0.075
0.06
0.035
0.005
-0.005
-0.005
0.0
0.0
0.0
-0.005
-0.01
0.005
-0.01
0.0
-0.015
-0.015
-0.025
-0.03
-0.025
-0.05
-0.065
-0.075
-0.085
-0.1
-0.08
-0.075
-0.085
-0.07
-0.06
-0.035
-0.04
-0.05
-0.075
-0.085
-0.09
-0.085
-0.09
-0.1
-0.13
-0.14
-0.13
-0.12
-0.105
-0.095
-0.1
-0.115
-0.145
-0.125
-0.13
-0.13
-0.17
-0.155
-0.13
-0.115
-0.1
-0.11
-0.115
-0.135
-0.145
-0.14
-0.145
-0.15
-0.17
-0.165
-0.155
-0.14
-0.115
-0.105
-0.12
-0.125
-0.13
-0.12
-0.12
-0.11
-0.115
-0.115
-0.1
-0.085
-0.1
-0.09
-0.115
-0.115
-0.12
-0.125
-0.125
-0.125
-0.125
-0.145
-0.125
-0.12
-0.125
-0.14
-0.14
-0.135
-0.125
-0.1
-0.08
-0.07
-0.08
-0.085
-0.085
-0.08
-0.045
-0.055
-0.07
-0.08
-0.075
-0.08
-0.085
-0.1
-0.11
-0.105
-0.075
-0.04
-0.025
-0.005
