Lead II
1.465
1.015
0.485
-0.035
-0.45
-0.69
-0.785
-0.765
-0.695
-0.61
-0.545
-0.5
-0.485
-0.48
-0.505
-0.515
-0.52
-0.53
-0.535
-0.52
-0.515
-0.51
-0.52
-0.525
-0.53
-0.545
-0.55
-0.545
-0.555
-0.56
-0.56
-0.555
-0.555
-0.555
-0.55
-0.55
-0.57
-0.575
-0.59
-0.575
-0.585
-0.585
-0.59
-0.58
-0.585
-0.575
-0.575
-0.595
-0.605
-0.625
-0.625
-0.63
-0.64
-0.65
-0.645
-0.65
-0.64
-0.635
-0.65
-0.655
-0.66
-0.67
-0.675
-0.685
-0.695
-0.69
-0.69
-0.69
-0.685
-0.675
-0.675
-0.685
-0.665
-0.675
-0.67
-0.665
-0.665
-0.65
-0.65
-0.625
-0.6
-0.58
-0.57
-0.56
-0.54
-0.53
-0.53
-0.51
-0.5
-0.485
-0.455
-0.425
-0.395
-0.38
-0.375
-0.37
-0.355
-0.345
-0.34
-0.34
-0.35
-0.345
-0.34
-0.33
-0.325
-0.315
-0.32
-0.325
-0.33
-0.325
-0.335
-0.345
-0.35
-0.355
-0.335
-0.335
-0.34
-0.33
-0.335
-0.33
-0.335
-0.335
-0.35
-0.36
-0.355
-0.36
-0.36
-0.355
-0.355
-0.355
-0.345
-0.36
-0.37
-0.375
-0.385
-0.38
-0.395
-0.4
-0.39
-0.395
-0.39
-0.39
-0.4
-0.4
-0.4
-0.4
-0.415
-0.43
-0.415
-0.425
-0.43
-0.42
-0.415
-0.405
-0.405
-0.405
-0.415
-0.405
-0.41
-0.405
-0.42
-0.42
-0.42
-0.4
-0.38
-0.375
-0.355
-0.355
-0.35
-0.35
-0.35
-0.34
-0.35
-0.335
-0.345
-0.325
-0.33
-0.31
-0.295
-0.3
-0.32
-0.32
-0.305
-0.31
-0.295
-0.285
-0.255
-0.24
-0.23
-0.22
-0.205
-0.185
-0.195
-0.215
-0.215
-0.225
-0.235
-0.24
-0.24
-0.255
-0.26
-0.27
-0.28
-0.3
-0.305
-0.33
-0.35
-0.355
-0.395
-0.39
-0.39
-0.385
-0.39
-0.38
-0.375
-0.38
-0.37
-0.38
-0.385
-0.405
-0.405
-0.4
-0.375
-0.35
-0.355
-0.335
-0.32
-0.32
-0.3
-0.295
-0.27
-0.225
-0.195
-0.115
-0.015
0.1
0.24
0.415
0.595
0.815
1.02
1.215
1.375
1.51
1.63
1.765
1.89
1.905
1.845
1.62
1.25
0.815
0.355
-0.05
-0.37
-0.56
-0.64
-0.64
-0.615
-0.575
-0.54
-0.52
-0.51
-0.505
-0.49
-0.5
-0.49
-0.515
-0.52
-0.535
-0.545
-0.525
-0.52
-0.515
-0.52
-0.53
-0.53
-0.535
-0.54
-0.55
-0.565
-0.56
-0.565
-0.555
-0.555
-0.56
-0.55
-0.56
-0.57
-0.57
-0.57
-0.58
-0.605
-0.595
-0.6
-0.61
-0.6
-0.595
-0.595
-0.6
-0.61
-0.615
-0.635
-0.65
-0.65
-0.65
-0.655
-0.66
-0.66
-0.655
-0.65
-0.67
-0.67
-0.69
-0.69
-0.7
-0.715
-0.72
-0.72
-0.71
-0.715
-0.715
-0.715
-0.71
-0.71
-0.725
-0.715
-0.705
-0.705
-0.7
-0.69
-0.675
-0.67
-0.67
-0.655
-0.645
-0.635
-0.625
-0.61
-0.6
-0.595
-0.575
-0.555
-0.535
-0.51
-0.48
-0.46
-0.43
-0.42
-0.415
-0.41
-0.41
-0.4
-0.41
-0.395
-0.39
-0.38
-0.375
-0.37
-0.38
-0.39
-0.395
-0.4
-0.39
-0.4
-0.4
-0.4
-0.4
-0.395
-0.4
-0.38
-0.39
-0.395
-0.41
-0.415
-0.415
-0.425
-0.425
-0.43
-0.425
-0.425
-0.42
-0.415
-0.425
-0.43
-0.44
-0.455
-0.46
-0.47
-0.47
-0.47
-0.47
-0.465
-0.46
-0.465
-0.465
-0.475
-0.49
-0.5
-0.49
-0.5
-0.495
-0.51
-0.51
-0.49
-0.485
-0.475
-0.475
-0.48
-0.48
-0.49
-0.5
-0.495
-0.495
-0.5
-0.49
-0.485
-0.47
-0.46
-0.465
-0.46
-0.465
-0.46
-0.46
-0.45
-0.45
-0.455
-0.435
-0.425
-0.405
-0.405
-0.405
-0.395
-0.4
-0.395
-0.4
-0.405
-0.39
-0.375
-0.37
-0.36
-0.33
-0.315
-0.31
-0.295
-0.29
-0.285
-0.3
-0.305
-0.3
-0.305
-0.31
-0.31
-0.3
-0.315
-0.32
-0.34
-0.365
-0.38
-0.4
-0.415
-0.425
-0.43
-0.435
-0.44
-0.445
-0.46
-0.465
-0.475
-0.475
-0.485
-0.49
-0.485
-0.49
-0.485
-0.475
-0.465
-0.455
-0.455
-0.455
-0.455
-0.46
-0.46
-0.465
-0.465
-0.45
-0.435
-0.42
-0.4
-0.37
-0.36
-0.345
-0.295
-0.235
-0.175
-0.1
-0.02
0.1
0.245
0.43
0.625
0.83
1.01
1.17
1.305
1.475
1.61
1.72
1.71
1.53
1.165
0.67
0.15
-0.3
-0.615
-0.77
-0.79
-0.745
-0.695
-0.64
-0.6
-0.585
-0.575
-0.565
-0.575
-0.565
-0.575
-0.575
-0.575
-0.595
-0.6
-0.61
-0.615
-0.62
-0.62
-0.61
-0.6
-0.605
-0.585
-0.59
-0.605
-0.61
-0.62
-0.625
-0.635
-0.64
-0.65
-0.635
-0.64
-0.625
-0.63
-0.65
-0.64
-0.66
-0.655
-0.66
-0.67
-0.68
-0.675
-0.68
-0.68
-0.67
-0.675
-0.69
-0.7
-0.705
-0.71
-0.725
-0.75
-0.74
-0.735
-0.735
-0.74
-0.74
-0.745
-0.75
-0.765
-0.77
-0.765
-0.77
-0.805
-0.8
-0.785
-0.785
-0.765
-0.745
-0.735
-0.725
-0.72
-0.725
-0.715
-0.71
-0.715
-0.7
-0.68
-0.66
-0.65
-0.635
-0.595
-0.58
-0.55
-0.55
-0.545
-0.54
-0.54
-0.5
-0.48
-0.46
-0.45
-0.44
-0.43
-0.44
-0.43
-0.445
-0.44
-0.445
-0.445
-0.45
-0.45
-0.45
-0.445
-0.435
-0.445
-0.435
-0.44
-0.465
-0.465
-0.47
-0.48
-0.48
-0.47
-0.465
-0.485
-0.48
-0.485
-0.46
-0.475
-0.485
-0.495
-0.5
-0.5
-0.505
-0.505
-0.51
-0.495
-0.485
-0.49
-0.495
-0.505
-0.52
-0.52
-0.53
-0.53
-0.54
-0.54
-0.53
-0.52
-0.51
-0.535
-0.53
-0.535
-0.545
-0.555
-0.555
-0.56
-0.56
-0.55
-0.545
-0.535
-0.52
-0.525
-0.525
-0.515
-0.52
-0.515
-0.52
-0.53
-0.525
-0.51
-0.5
-0.495
-0.48
-0.46
-0.455
-0.445
-0.46
-0.45
-0.46
-0.46
-0.445
-0.425
-0.415
-0.4
-0.385
-0.365
-0.36
-0.355
-0.345
-0.34
-0.345
-0.345
-0.34
-0.345
-0.335
-0.325
-0.325
-0.335
-0.33
-0.36
-0.37
-0.39
-0.405
-0.435
-0.445
-0.435
-0.45
-0.455
-0.45
-0.475
-0.495
-0.495
-0.51
-0.515
-0.525
-0.535
-0.535
-0.53
-0.515
-0.52
-0.5
-0.495
-0.49
-0.485
-0.485
-0.485
-0.475
-0.465
-0.48
-0.465
-0.435
-0.415
-0.385
-0.33
-0.29
-0.23
-0.135
-0.04
0.08
0.22
0.395
0.585
0.785
0.975
1.145
1.29
1.415
1.555
1.645
1.705
1.625
1.41
1.04
0.585
0.135
-0.255
-0.535
-0.69
-0.735
-0.725
-0.675
-0.665
-0.63
-0.605
-0.6
-0.585
-0.58
-0.575
-0.565
-0.575
-0.585
-0.595
-0.6
-0.61
-0.62
-0.62
-0.62
-0.625
-0.61
-0.62
-0.6
-0.605
-0.605
-0.605
-0.62
-0.625
-0.635
-0.64
-0.64
-0.63
-0.63
-0.615
-0.635
-0.625
-0.64
-0.645
-0.66
-0.655
-0.675
-0.68
-0.675
-0.695
-0.685
-0.675
-0.69
-0.685
-0.685
-0.695
-0.705
-0.705
-0.73
-0.74
-0.73
-0.745
-0.75
-0.74
-0.74
-0.74
-0.745
-0.75
-0.775
-0.765
-0.775
-0.77
-0.77
-0.755
-0.745
-0.755
-0.735
-0.725
-0.72
-0.705
-0.71
-0.705
-0.7
-0.685
-0.67
-0.66
-0.635
-0.61
-0.595
-0.565
-0.55
-0.535
-0.52
-0.495
-0.495
-0.485
-0.465
-0.46
-0.45
-0.44
-0.43
-0.415
-0.41
-0.41
-0.415
-0.425
-0.44
-0.435
-0.43
-0.445
-0.43
-0.43
-0.41
-0.41
-0.41
-0.42
-0.425
-0.43
-0.465
-0.455
-0.45
-0.445
-0.44
-0.44
-0.44
-0.435
-0.445
-0.465
-0.465
-0.47
-0.47
-0.475
-0.47
-0.475
-0.47
-0.475
-0.47
-0.45
-0.485
-0.48
-0.49
-0.5
-0.51
-0.52
-0.505
-0.505
-0.495
-0.49
-0.49
-0.48
-0.485
-0.49
-0.49
-0.5
-0.505
-0.5
-0.495
-0.485
-0.485
-0.48
-0.46
-0.435
-0.43
-0.445
-0.44
-0.44
-0.44
-0.45
-0.44
-0.43
-0.435
-0.42
-0.42
-0.4
-0.375
-0.37
-0.36
-0.36
-0.345
-0.325
-0.315
-0.305
-0.29
-0.275
-0.275
-0.275
-0.29
-0.3
-0.31
-0.335
-0.355
-0.375
-0.385
-0.395
-0.41
-0.4
-0.415
-0.415
-0.425
-0.445
-0.465
-0.485
-0.485
-0.485
-0.48
-0.47
-0.46
-0.45
-0.445
-0.435
-0.445
-0.435
-0.44
-0.455
-0.455
-0.445
-0.425
-0.42
-0.405
-0.385
-0.37
-0.33
-0.28
-0.225
-0.18
-0.095
-0.01
0.11
0.24
0.39
0.57
0.76
0.94
1.1
1.235
1.335
1.425
1.55
1.65
1.695
1.615
1.37
0.98
0.505
0.03
-0.38
-0.65
-0.79
-0.81
-0.755
-0.695
-0.645
-0.61
-0.575
-0.565
-0.56
-0.555
-0.565
-0.57
-0.57
-0.585
-0.59
-0.61
-0.61
-0.615
-0.61
-0.6
-0.595
-0.595
-0.6
-0.615
-0.605
-0.605
-0.61
-0.625
-0.64
-0.63
-0.63
-0.62
-0.62
-0.62
-0.615
-0.62
-0.63
-0.63
-0.635
-0.645
-0.655
-0.655
-0.67
-0.685
-0.675
-0.68
-0.665
-0.67
-0.68
-0.685
-0.695
-0.705
-0.71
-0.71
-0.72
-0.705
-0.695
-0.705
-0.72
-0.72
-0.72
-0.735
-0.735
-0.76
-0.765
-0.77
-0.77
-0.755
-0.76
-0.75
-0.73
-0.745
-0.745
-0.745
-0.745
-0.745
-0.735
-0.735
-0.725
-0.705
-0.68
-0.675
-0.645
-0.635
-0.62
-0.61
-0.595
-0.575
-0.555
-0.54
-0.515
-0.5
-0.47
-0.45
-0.42
-0.41
-0.41
-0.42
-0.43
-0.42
-0.41
-0.42
-0.42
-0.415
-0.42
-0.405
-0.41
-0.4
-0.415
-0.415
-0.425
-0.43
-0.435
-0.44
-0.44
-0.435
-0.425
-0.415
-0.415
-0.42
-0.425
-0.425
-0.435
-0.45
-0.46
-0.465
-0.465
-0.46
-0.455
-0.45
-0.45
-0.445
-0.46
-0.465
-0.47
-0.485
-0.495
-0.505
-0.505
-0.5
-0.5
-0.495
-0.48
-0.485
-0.49
-0.505
-0.5
-0.51
-0.52
-0.515
-0.515
-0.505
-0.495
-0.505
-0.495
-0.51
-0.505
-0.505
-0.505
-0.505
-0.495
-0.495
-0.495
-0.475
-0.465
-0.44
-0.44
-0.42
-0.42
-0.415
-0.43
-0.435
-0.43
-0.415
-0.405
-0.39
-0.375
-0.38
-0.345
-0.345
-0.335
-0.32
-0.33
-0.325
-0.32
-0.305
-0.31
-0.305
-0.31
-0.32
-0.31
-0.325
-0.325
-0.35
-0.365
-0.395
-0.415
-0.41
-0.43
-0.43
-0.425
-0.44
-0.44
-0.445
-0.465
-0.46
-0.485
-0.485
-0.485
-0.475
-0.47
-0.465
-0.455
-0.44
-0.425
-0.425
-0.43
-0.435
-0.43
-0.425
-0.405
-0.39
-0.355
-0.305
-0.245
-0.165
-0.065
0.05
0.19
0.405
0.64
0.88
1.105
1.3
1.475
1.625
1.735
1.795
1.685
1.425
0.99
0.49
0.015
-0.38
-0.63
-0.745
-0.75
-0.7
-0.63
-0.58
-0.54
-0.535
-0.525
-0.53
-0.53
-0.54
-0.565
-0.57
-0.575
-0.575
-0.565
-0.555
-0.56
-0.56
-0.56
-0.565
-0.575
-0.58
-0.585
-0.59
-0.585
-0.58
-0.575
-0.57
-0.565
-0.585
-0.59
-0.6
-0.62
-0.625
-0.61
-0.62
-0.61
-0.615
-0.61
-0.62
-0.61
-0.62
-0.64
-0.635
-0.65
-0.675
-0.675
-0.68
-0.675
-0.67
-0.67
-0.67
-0.675
-0.69
-0.685
-0.695
-0.705
-0.725
-0.73
-0.735
-0.74
-0.735
-0.73
-0.73
-0.725
-0.73
-0.74
-0.745
-0.74
-0.76
-0.755
-0.76
-0.755
-0.73
-0.735
-0.72
-0.7
-0.7
-0.69
-0.695
-0.69
-0.67
-0.655
-0.64
-0.625
-0.61
-0.575
-0.565
-0.53
-0.525
-0.505
-0.495
-0.5
-0.48
-0.465
-0.45
-0.45
-0.445
-0.42
-0.41
-0.395
-0.405
-0.4
-0.41
-0.415
-0.42
-0.43
-0.425
-0.42
-0.425
-0.415
-0.405
-0.395
-0.41
-0.405
-0.42
-0.43
-0.44
-0.45
-0.45
-0.445
-0.44
-0.445
-0.43
-0.425
-0.435
-0.445
-0.45
-0.46
-0.465
-0.485
-0.48
-0.48
-0.48
-0.48
-0.48
-0.48
-0.49
-0.49
-0.505
-0.5
-0.505
-0.515
-0.51
-0.52
-0.515
-0.525
-0.525
-0.51
-0.495
-0.505
-0.515
-0.515
-0.52
-0.52
-0.525
-0.525
-0.52
-0.52
-0.505
-0.495
-0.495
-0.475
-0.495
-0.485
-0.48
-0.48
-0.465
-0.465
-0.455
-0.44
-0.435
-0.425
-0.425
-0.425
-0.415
-0.425
-0.425
-0.42
-0.395
-0.38
-0.36
-0.34
-0.325
-0.31
-0.305
-0.3
-0.3
-0.315
-0.32
-0.33
-0.34
-0.355
-0.35
-0.36
-0.375
-0.395
-0.405
-0.425
-0.445
-0.465
-0.485
-0.515
-0.52
-0.515
-0.515
-0.5
-0.495
-0.48
-0.48
-0.48
-0.485
-0.485
-0.495
-0.49
-0.48
-0.47
-0.465
-0.455
-0.43
-0.415
-0.395
-0.355
-0.305
-0.23
-0.15
-0.045
0.065
0.21
0.395
0.58
0.8
1.005
1.17
1.295
1.41
1.525
1.625
1.71
1.76
1.695
1.5
1.18
0.75
0.305
-0.11
-0.445
-0.65
-0.745
-0.765
-0.74
-0.71
-0.67
-0.64
-0.63
-0.625
-0.585
-0.61
-0.615
-0.615
-0.645
-0.645
-0.655
-0.67
-0.66
-0.66
-0.655
-0.66
-0.645
-0.645
-0.645
-0.665
-0.675
-0.675
-0.695
-0.695
-0.69
-0.69
-0.695
-0.69
-0.685
-0.695
-0.69
-0.695
-0.71
-0.725
-0.725
-0.74
-0.755
-0.74
-0.74
-0.73
-0.74
-0.74
-0.745
-0.75
-0.765
-0.78
-0.79
-0.8
-0.805
-0.8
-0.81
-0.81
-0.81
-0.805
-0.805
-0.825
-0.835
-0.835
-0.85
-0.85
-0.845
-0.84
-0.835
-0.83
-0.825
-0.815
-0.815
-0.82
-0.82
-0.815
-0.82
-0.81
-0.8
-0.785
-0.77
-0.765
-0.75
-0.725
-0.715
-0.705
-0.685
-0.675
-0.655
-0.635
-0.615
-0.59
-0.565
-0.545
-0.535
-0.53
-0.52
-0.505
-0.52
-0.525
-0.53
-0.54
-0.525
-0.525
-0.51
-0.5
-0.505
-0.5
-0.505
-0.51
-0.515
-0.52
-0.54
-0.545
-0.525
-0.525
-0.53
-0.525
-0.525
-0.525
-0.52
-0.53
-0.54
-0.555
-0.55
-0.555
-0.565
-0.565
-0.55
-0.54
-0.54
-0.555
-0.545
-0.56
-0.575
-0.57
-0.58
-0.585
-0.595
-0.58
-0.58
-0.565
-0.565
-0.575
-0.59
-0.585
-0.585
-0.59
-0.615
-0.61
-0.61
-0.605
-0.595
-0.59
-0.59
-0.585
-0.59
-0.6
-0.595
-0.605
-0.61
-0.605
-0.6
-0.59
-0.585
-0.575
-0.56
-0.555
-0.555
-0.55
-0.535
-0.55
-0.555
-0.545
-0.54
-0.545
-0.515
-0.5
-0.48
-0.475
-0.455
-0.45
-0.445
-0.435
-0.42
-0.41
-0.405
-0.39
-0.4
-0.39
-0.385
-0.395
-0.4
-0.425
-0.435
-0.455
-0.48
-0.5
-0.51
-0.515
-0.515
-0.515
-0.525
-0.54
-0.575
-0.58
-0.6
-0.595
-0.605
-0.595
-0.605
-0.585
-0.585
-0.585
-0.57
-0.57
-0.57
-0.575
-0.58
-0.58
-0.58
-0.57
-0.565
-0.555
-0.535
-0.53
-0.51
-0.495
-0.465
-0.455
-0.405
-0.355
-0.28
-0.18
-0.065
0.075
0.245
0.45
0.65
0.865
1.055
1.23
1.36
1.505
1.63
1.685
1.6
1.35
0.96
0.475
-0.02
-0.42
-0.705
-0.84
-0.87
-0.835
-0.775
-0.73
-0.675
-0.65
-0.665
-0.675
-0.66
-0.675
-0.68
-0.69
-0.7
-0.71
-0.72
-0.715
-0.705
-0.71
-0.715
-0.705
-0.705
-0.71
-0.715
-0.715
-0.72
-0.735
-0.725
-0.735
-0.735
-0.73
-0.73
-0.73
-0.715
-0.72
-0.73
-0.745
-0.76
-0.745
-0.765
-0.77
-0.775
-0.77
-0.77
-0.77
-0.775
-0.765
-0.775
-0.78
-0.795
-0.805
-0.815
-0.825
-0.82
-0.82
-0.82
-0.825
-0.825
-0.83
-0.85
-0.86
-0.855
-0.865
-0.87
-0.875
-0.87
-0.875
-0.865
-0.87
-0.845
-0.84
-0.85
-0.85
-0.845
-0.84
-0.83
-0.825
-0.8
-0.79
-0.77
-0.745
-0.735
-0.725
-0.71
-0.69
-0.68
-0.675
-0.645
-0.63
-0.63
-0.61
-0.59
-0.59
-0.575
-0.555
-0.55
-0.545
-0.545
-0.55
-0.55
-0.55
-0.545
-0.545
-0.545
-0.535
-0.525
-0.53
-0.55
-0.53
-0.54
-0.545
-0.545
-0.56
-0.555
-0.56
-0.545
-0.555
-0.535
-0.55
-0.55
-0.56
-0.565
-0.58
-0.58
-0.58
-0.585
-0.58
-0.585
-0.57
-0.565
-0.565
-0.57
-0.58
-0.59
-0.595
-0.6
-0.61
-0.62
-0.61
-0.61
-0.62
-0.605
-0.595
-0.6
-0.62
-0.62
-0.625
-0.64
-0.66
-0.655
-0.65
-0.645
-0.625
-0.62
-0.605
-0.6
-0.615
-0.615
-0.615
-0.615
-0.615
-0.605
-0.595
-0.58
-0.555
-0.555
-0.55
-0.55
-0.55
-0.555
-0.575
-0.56
-0.55
-0.535
-0.525
-0.51
-0.48
-0.475
-0.455
-0.44
-0.435
-0.43
-0.415
-0.415
-0.42
-0.425
-0.43
-0.415
-0.415
-0.42
-0.42
-0.42
-0.44
-0.455
-0.48
-0.485
-0.52
-0.525
-0.53
-0.53
-0.53
-0.535
-0.55
-0.56
-0.57
-0.59
-0.61
-0.61
-0.605
-0.605
-0.595
-0.58
-0.585
-0.565
-0.56
-0.555
-0.555
-0.57
-0.565
-0.565
-0.57
-0.56
-0.545
-0.53
-0.515
-0.48
-0.445
-0.405
-0.335
-0.27
-0.19
-0.09
0.03
0.17
0.365
0.56
0.77
0.945
1.11
1.24
1.365
1.48
1.615
1.68
1.595
1.355
0.98
0.505
0.03
-0.39
-0.685
-0.825
-0.865
-0.84
-0.775
-0.745
-0.72
-0.695
-0.685
-0.665
-0.665
-0.66
-0.665
-0.67
-0.68
-0.7
-0.7
-0.71
-0.715
-0.705
-0.715
-0.71
-0.715
-0.7
-0.69
-0.685
-0.71
-0.71
-0.72
-0.73
-0.725
-0.725
-0.715
-0.72
-0.71
-0.7
-0.705
-0.72
-0.73
-0.735
-0.74
-0.755
-0.765
-0.76
-0.765
-0.76
-0.75
-0.76
-0.755
-0.76
-0.775
-0.78
-0.79
-0.805
-0.82
-0.82
-0.825
-0.825
-0.835
-0.825
-0.83
-0.83
-0.825
-0.83
-0.855
-0.85
-0.85
-0.855
-0.85
-0.835
-0.835
-0.815
-0.815
-0.805
-0.805
-0.8
-0.795
-0.795
-0.78
-0.77
-0.745
-0.715
-0.7
-0.675
-0.655
-0.645
-0.63
-0.61
-0.6
-0.58
-0.575
-0.56
-0.555
-0.54
-0.525
-0.525
-0.51
-0.515
-0.505
-0.505
-0.505
-0.505
-0.515
-0.51
-0.5
-0.51
-0.5
-0.5
-0.5
-0.515
-0.52
-0.52
-0.515
-0.535
-0.53
-0.535
-0.535
-0.53
-0.53
-0.535
-0.525
-0.53
-0.535
-0.545
-0.55
-0.555
-0.555
-0.56
-0.56
-0.56
-0.55
-0.55
-0.545
-0.55
-0.56
-0.57
-0.575
-0.57
-0.59
-0.595
-0.585
-0.585
-0.58
-0.58
-0.575
-0.58
-0.575
-0.575
-0.58
-0.58
-0.58
-0.58
-0.575
-0.565
-0.555
-0.54
-0.54
-0.54
-0.525
-0.525
-0.53
-0.525
-0.535
-0.515
-0.505
-0.495
-0.48
-0.47
-0.455
-0.445
-0.425
-0.405
-0.4
-0.405
-0.39
-0.395
-0.385
-0.4
-0.4
-0.41
-0.415
-0.43
-0.45
-0.46
-0.475
-0.495
-0.505
-0.525
-0.545
-0.55
-0.56
-0.56
-0.57
-0.57
-0.56
-0.565
-0.57
-0.575
-0.57
-0.57
-0.57
-0.54
-0.53
-0.51
-0.505
-0.505
-0.5
-0.5
-0.495
-0.475
-0.465
-0.44
-0.4
-0.34
-0.255
-0.16
-0.05
0.07
0.215
0.365
0.575
0.77
0.93
1.09
1.2
1.325
1.41
1.55
1.675
1.71
1.625
1.385
1.02
0.57
0.14
-0.27
-0.56
-0.74
-0.82
-0.82
-0.78
-0.735
-0.71
-0.705
-0.705
-0.7
-0.68
-0.675
-0.665
-0.665
-0.645
-0.65
-0.655
-0.675
-0.665
-0.685
-0.69
-0.695
-0.695
-0.705
-0.7
-0.69
-0.69
-0.695
-0.69
-0.705
-0.69
-0.705
-0.71
-0.725
-0.73
-0.735
-0.73
-0.73
-0.725
-0.715
-0.73
-0.73
-0.73
-0.75
-0.765
-0.77
-0.765
-0.775
-0.785
-0.78
-0.785
-0.78
-0.785
-0.775
-0.8
-0.81
-0.815
-0.835
-0.83
-0.83
-0.825
-0.825
-0.82
-0.82
-0.815
-0.825
-0.82
-0.83
-0.83
-0.83
-0.84
-0.83
-0.825
-0.82
-0.805
-0.795
-0.78
-0.78
-0.77
-0.765
-0.75
-0.74
-0.725
-0.72
-0.7
-0.675
-0.655
-0.635
-0.605
-0.585
-0.565
-0.55
-0.54
-0.525
-0.52
-0.515
-0.52
-0.515
-0.5
-0.485
-0.47
-0.475
-0.49
-0.485
-0.505
-0.505
-0.515
-0.515
-0.515
-0.505
-0.505
-0.49
-0.5
-0.5
-0.505
-0.51
-0.535
-0.53
-0.54
-0.535
-0.53
-0.52
-0.525
-0.525
-0.51
-0.52
-0.53
-0.535
-0.545
-0.545
-0.55
-0.55
-0.565
-0.575
-0.585
-0.56
-0.54
-0.545
-0.555
-0.565
-0.565
-0.575
-0.58
-0.585
-0.585
-0.58
-0.59
-0.58
-0.585
-0.595
-0.58
-0.585
-0.58
-0.595
-0.6
-0.585
-0.59
-0.58
-0.565
-0.55
-0.54
-0.535
-0.525
-0.535
-0.535
-0.53
-0.52
-0.515
-0.51
-0.51
-0.485
-0.47
-0.455
-0.445
-0.435
-0.44
-0.425
-0.415
-0.405
-0.385
-0.385
-0.37
-0.375
-0.37
-0.37
-0.385
-0.395
-0.415
-0.42
-0.445
-0.46
-0.465
-0.465
-0.485
-0.485
-0.49
-0.505
-0.52
-0.535
-0.555
-0.555
-0.57
-0.57
-0.56
-0.55
-0.535
-0.53
-0.525
-0.52
-0.51
-0.51
-0.515
-0.515
-0.53
-0.52
-0.53
-0.51
-0.49
-0.485
-0.465
-0.45
-0.44
-0.405
-0.355
-0.295
-0.225
-0.13
0.005
0.165
0.36
0.59
0.83
1.045
1.235
1.385
1.53
1.64
1.705
1.645
1.395
0.98
0.445
-0.075
-0.515
-0.785
-0.915
-0.905
-0.84
-0.76
-0.685
-0.645
-0.605
-0.61
-0.62
-0.63
-0.64
-0.635
-0.655
-0.655
-0.65
-0.655
-0.67
-0.675
-0.67
-0.675
-0.67
-0.66
-0.66
-0.655
-0.665
-0.67
-0.67
-0.685
-0.695
-0.705
-0.725
-0.705
-0.705
-0.695
-0.695
-0.695
-0.705
-0.72
-0.725
-0.75
-0.745
-0.74
-0.75
-0.755
-0.77
-0.755
-0.755
-0.75
-0.76
-0.765
-0.785
-0.79
-0.805
-0.81
-0.825
-0.82
-0.825
-0.815
-0.81
-0.81
-0.825
-0.815
-0.83
-0.83
-0.84
-0.84
-0.835
-0.83
-0.815
-0.805
-0.805
-0.79
-0.78
-0.77
-0.76
-0.76
-0.755
-0.75
-0.72
-0.705
-0.66
-0.635
-0.61
-0.575
-0.555
-0.55
-0.555
-0.56
-0.535
-0.535
-0.525
-0.52
-0.515
-0.505
-0.495
-0.485
-0.485
-0.49
-0.505
-0.515
-0.51
-0.515
-0.525
-0.52
-0.51
-0.52
-0.5
-0.495
-0.5
-0.5
-0.52
-0.535
-0.53
-0.54
-0.535
-0.525
-0.535
-0.535
-0.535
-0.525
-0.525
-0.53
-0.53
-0.545
-0.56
-0.56
-0.565
-0.575
-0.565
-0.57
-0.555
-0.56
-0.565
-0.58
-0.58
-0.595
-0.6
-0.61
-0.61
-0.61
-0.605
-0.605
-0.6
-0.605
-0.595
-0.6
-0.61
-0.61
-0.615
-0.61
-0.61
-0.615
-0.61
-0.61
-0.595
-0.585
-0.595
-0.58
-0.58
-0.56
-0.57
-0.565
-0.56
-0.54
-0.535
-0.53
-0.52
-0.515
-0.515
-0.52
-0.525
-0.5
-0.495
-0.475
-0.465
-0.45
-0.425
-0.415
-0.4
-0.39
-0.39
-0.395
-0.415
-0.42
-0.435
-0.45
-0.465
-0.47
-0.47
-0.485
-0.49
-0.5
-0.495
-0.515
-0.53
-0.545
-0.555
-0.58
-0.605
-0.61
-0.625
-0.615
-0.6
-0.59
-0.59
-0.585
-0.59
-0.595
-0.595
-0.605
-0.595
-0.605
-0.58
-0.58
-0.56
-0.55
-0.545
-0.535
-0.54
-0.52
-0.52
-0.495
-0.45
-0.395
-0.305
-0.205
-0.095
0.04
0.195
0.365
0.56
0.755
0.92
1.065
1.21
1.34
1.49
1.61
1.67
1.62
1.38
1.0
0.52
0.025
-0.395
-0.68
-0.83
-0.865
-0.84
-0.785
-0.735
-0.7
-0.68
-0.695
-0.69
-0.68
-0.69
-0.69
-0.7
-0.695
-0.705
-0.705
-0.705
-0.7
-0.7
-0.705
-0.725
-0.71
-0.725
-0.73
-0.72
-0.73
-0.73
-0.715
-0.72
-0.71
-0.725
-0.72
-0.735
-0.74
-0.745
-0.755
-0.76
-0.77
-0.76
-0.76
-0.765
-0.76
-0.755
-0.77
-0.775
-0.79
-0.795
-0.81
-0.81
-0.81
-0.81
-0.805
-0.81
-0.82
-0.82
-0.83
-0.835
-0.85
-0.855
-0.87
-0.88
-0.87
-0.875
-0.87
-0.875
-0.875
-0.865
-0.865
-0.885
-0.89
-0.885
-0.895
-0.89
-0.885
-0.865
-0.855
-0.83
-0.82
-0.81
-0.8
-0.81
-0.795
-0.795
-0.785
-0.765
-0.755
-0.73
-0.715
-0.685
-0.67
-0.655
-0.64
-0.625
-0.61
-0.605
-0.605
-0.595
-0.58
-0.565
-0.57
-0.565
-0.545
-0.545
-0.545
-0.55
-0.55
-0.56
-0.565
-0.56
-0.56
-0.565
-0.56
-0.555
-0.54
-0.54
-0.54
-0.545
-0.56
-0.56
-0.575
-0.58
-0.57
-0.58
-0.565
-0.575
-0.565
-0.565
-0.575
-0.575
-0.59
-0.595
-0.605
-0.61
-0.61
-0.6
-0.6
-0.605
-0.59
-0.595
-0.605
-0.615
-0.62
-0.62
-0.645
-0.645
-0.645
-0.625
-0.635
-0.625
-0.62
-0.625
-0.645
-0.645
-0.645
-0.655
-0.65
-0.655
-0.65
-0.65
-0.645
-0.635
-0.635
-0.635
-0.625
-0.63
-0.635
-0.635
-0.65
-0.635
-0.625
-0.615
-0.605
-0.58
-0.595
-0.565
-0.58
-0.575
-0.575
-0.57
-0.575
-0.57
-0.555
-0.55
-0.545
-0.535
-0.51
-0.505
-0.485
-0.475
-0.47
-0.465
-0.465
-0.455
-0.47
-0.46
-0.455
-0.45
-0.46
-0.48
-0.5
-0.535
-0.535
-0.55
-0.565
-0.58
-0.58
-0.6
-0.6
-0.615
-0.625
-0.63
-0.64
-0.64
-0.635
-0.635
-0.65
-0.64
-0.635
-0.625
-0.62
-0.615
-0.61
-0.605
-0.595
-0.605
-0.595
-0.595
-0.605
-0.585
-0.59
-0.565
-0.535
-0.495
-0.455
-0.405
-0.32
-0.23
-0.135
-0.01
0.125
0.3
0.485
0.685
0.85
1.015
1.14
1.265
1.38
1.49
1.565
1.5
1.295
0.945
0.48
0.005
-0.4
-0.705
-0.855
-0.915
-0.895
-0.835
-0.795
-0.765
-0.745
-0.735
-0.74
-0.745
-0.745
-0.755
-0.745
-0.765
-0.775
-0.745
-0.76
-0.755
-0.775
-0.765
-0.765
-0.765
-0.76
-0.77
-0.76
-0.755
-0.76
-0.77
-0.775
-0.8
-0.795
-0.795
-0.785
-0.785
-0.775
-0.78
-0.785
-0.795
-0.8
-0.8
-0.815
-0.815
-0.825
-0.815
-0.835
-0.83
-0.825
-0.825
-0.82
-0.83
-0.845
-0.855
-0.88
-0.87
-0.885
-0.895
-0.89
-0.89
-0.885
-0.89
-0.88
-0.885
-0.89
-0.91
-0.905
-0.91
-0.92
-0.93
-0.93
-0.91
-0.9
-0.875
-0.87
-0.865
-0.87
-0.865
-0.86
-0.86
-0.845
-0.84
-0.83
-0.79
-0.77
-0.745
-0.715
-0.705
-0.69
-0.67
-0.65
-0.635
-0.64
-0.63
-0.62
-0.605
-0.595
-0.59
-0.58
-0.585
-0.585
-0.595
-0.585
-0.59
-0.6
-0.605
-0.59
-0.6
-0.6
-0.59
-0.59
-0.59
-0.6
-0.595
-0.605
-0.61
-0.63
-0.625
-0.615
-0.62
-0.62
-0.61
-0.6
-0.61
-0.61
-0.61
-0.62
-0.63
-0.64
-0.65
-0.65
-0.645
-0.64
-0.635
-0.635
-0.635
-0.645
-0.66
-0.66
-0.675
-0.685
-0.695
-0.67
-0.68
-0.675
-0.67
-0.67
-0.67
-0.665
-0.685
-0.69
-0.695
-0.7
-0.705
-0.705
-0.695
-0.695
-0.69
-0.65
-0.645
-0.645
-0.645
-0.635
-0.645
-0.63
-0.625
-0.625
-0.61
-0.615
-0.595
-0.585
-0.58
-0.585
-0.57
-0.575
-0.575
-0.565
-0.555
-0.545
-0.52
-0.505
-0.49
-0.47
-0.46
-0.455
-0.445
-0.45
-0.465
-0.475
-0.48
-0.495
-0.5
-0.5
-0.5
-0.51
-0.52
-0.545
-0.555
-0.565
-0.58
-0.595
-0.6
-0.605
-0.625
-0.625
-0.645
-0.635
-0.625
-0.625
-0.63
-0.64
-0.635
-0.65
-0.645
-0.64
-0.615
-0.625
-0.605
-0.605
-0.6
-0.595
-0.585
-0.58
-0.575
-0.58
-0.57
-0.545
-0.515
-0.47
-0.415
-0.34
-0.245
-0.135
-0.005
0.135
0.32
0.505
0.715
0.89
1.035
1.165
1.295
1.425
1.52
1.525
1.39
1.08
0.665
0.2
-0.245
-0.575
-0.78
-0.87
-0.865
-0.81
-0.755
-0.72
-0.7
-0.695
-0.7
-0.71
-0.705
-0.705
-0.71
-0.7
-0.705
-0.695
-0.7
-0.705
-0.72
-0.73
-0.74
-0.745
-0.76
-0.74
-0.74
-0.735
-0.725
-0.72
-0.725
-0.725
-0.735
-0.74
-0.755
-0.76
-0.765
-0.765
-0.76
-0.76
-0.755
-0.755
-0.755
-0.765
-0.76
-0.76
-0.77
-0.785
-0.795
-0.79
-0.79
-0.805
-0.795
-0.785
-0.8
-0.815
-0.82
-0.83
-0.85
-0.855
-0.86
-0.86
-0.855
-0.86
-0.855
-0.84
-0.84
-0.84
-0.845
-0.84
-0.855
-0.84
-0.85
-0.84
-0.83
-0.82
-0.79
-0.79
-0.77
-0.76
-0.745
-0.74
-0.735
-0.72
-0.71
-0.685
-0.66
-0.62
-0.6
-0.575
-0.555
-0.555
-0.56
-0.53
-0.535
-0.53
-0.535
-0.535
-0.525
-0.52
-0.51
-0.51
-0.505
-0.5
-0.505
-0.515
-0.54
-0.54
-0.545
-0.545
-0.565
-0.535
-0.54
-0.515
-0.515
-0.51
-0.525
-0.515
-0.525
-0.535
-0.545
-0.545
-0.54
-0.525
-0.525
-0.535
-0.535
-0.54
-0.55
-0.56
-0.575
-0.58
-0.575
-0.58
-0.575
-0.575
-0.575
-0.57
-0.575
-0.585
-0.595
-0.605
-0.615
-0.605
-0.61
-0.605
-0.61
-0.605
-0.59
-0.58
-0.59
-0.585
-0.585
-0.595
-0.585
-0.59
-0.585
-0.57
-0.55
-0.545
-0.535
-0.53
-0.525
-0.51
-0.505
-0.51
-0.505
-0.515
-0.505
-0.5
-0.485
-0.47
-0.465
-0.455
-0.445
-0.425
-0.42
-0.42
-0.41
-0.405
-0.405
-0.41
-0.405
-0.415
-0.405
-0.4
-0.415
-0.42
-0.435
-0.46
-0.48
-0.505
-0.515
-0.52
-0.53
-0.535
-0.545
-0.54
-0.545
-0.56
-0.57
-0.57
-0.57
-0.58
-0.575
-0.57
-0.565
-0.555
-0.53
-0.535
-0.53
-0.525
-0.515
-0.54
-0.53
-0.52
-0.515
-0.49
-0.455
-0.41
-0.355
-0.285
-0.195
-0.11
0.015
0.15
0.3
0.475
0.675
0.845
1.01
1.15
1.27
1.39
1.49
1.555
1.53
1.36
1.055
0.645
0.21
-0.19
-0.5
-0.7
-0.785
-0.81
-0.76
-0.72
-0.69
-0.68
-0.68
-0.67
-0.66
-0.655
-0.655
-0.65
-0.65
-0.645
-0.645
-0.65
-0.665
-0.68
-0.68
-0.685
-0.68
-0.675
-0.68
-0.68
-0.685
-0.68
-0.685
-0.675
-0.685
-0.695
-0.7
-0.7
-0.725
-0.73
-0.725
-0.71
-0.715
-0.715
-0.715
-0.72
-0.735
-0.74
-0.75
-0.76
-0.76
-0.775
-0.77
-0.78
-0.765
-0.77
-0.76
-0.77
-0.775
-0.78
-0.805
-0.815
-0.835
-0.825
-0.81
-0.82
-0.825
-0.81
-0.805
-0.81
-0.82
-0.815
-0.815
-0.8
-0.81
-0.795
-0.785
-0.765
-0.765
-0.735
-0.735
-0.725
-0.73
-0.72
-0.715
-0.69
-0.675
-0.655
-0.625
-0.605
-0.575
-0.565
-0.54
-0.525
-0.52
-0.515
-0.51
-0.495
-0.5
-0.495
-0.5
-0.48
-0.475
-0.475
-0.475
-0.48
-0.485
-0.48
-0.485
-0.5
-0.5
-0.51
-0.5
-0.5
-0.49
-0.505
-0.505
-0.5
-0.495
-0.51
-0.51
-0.51
-0.52
-0.53
-0.53
-0.535
-0.525
-0.53
