Lead II
-0.655
-0.65
-0.665
-0.675
-0.67
-0.685
-0.685
-0.675
-0.675
-0.665
-0.675
-0.665
-0.66
-0.67
-0.675
-0.685
-0.675
-0.69
-0.68
-0.675
-0.66
-0.645
-0.645
-0.64
-0.645
-0.64
-0.635
-0.635
-0.64
-0.62
-0.615
-0.605
-0.6
-0.58
-0.565
-0.56
-0.55
-0.55
-0.53
-0.54
-0.52
-0.51
-0.495
-0.475
-0.47
-0.46
-0.45
-0.465
-0.475
-0.5
-0.51
-0.525
-0.545
-0.56
-0.565
-0.585
-0.58
-0.58
-0.58
-0.605
-0.615
-0.645
-0.65
-0.665
-0.66
-0.66
-0.66
-0.66
-0.64
-0.635
-0.625
-0.63
-0.64
-0.63
-0.63
-0.63
-0.63
-0.625
-0.625
-0.605
-0.595
-0.58
-0.555
-0.52
-0.5
-0.47
-0.42
-0.36
-0.285
-0.195
-0.095
0.035
0.19
0.365
0.53
0.69
0.835
0.965
1.065
1.2
1.315
1.375
1.28
1.04
0.675
0.255
-0.17
-0.52
-0.745
-0.86
-0.875
-0.845
-0.795
-0.75
-0.73
-0.715
-0.705
-0.69
-0.69
-0.705
-0.7
-0.715
-0.725
-0.72
-0.73
-0.735
-0.735
-0.73
-0.74
-0.73
-0.73
-0.73
-0.725
-0.735
-0.75
-0.755
-0.76
-0.765
-0.77
-0.75
-0.755
-0.755
-0.75
-0.755
-0.765
-0.78
-0.775
-0.795
-0.79
-0.79
-0.785
-0.785
-0.785
-0.775
-0.775
-0.785
-0.79
-0.795
-0.81
-0.83
-0.84
-0.845
-0.845
-0.84
-0.835
-0.845
-0.84
-0.855
-0.835
-0.84
-0.845
-0.855
-0.87
-0.865
-0.865
-0.855
-0.85
-0.845
-0.83
-0.835
-0.83
-0.835
-0.83
-0.84
-0.83
-0.82
-0.81
-0.79
-0.775
-0.75
-0.735
-0.73
-0.725
-0.7
-0.69
-0.685
-0.68
-0.655
-0.65
-0.63
-0.605
-0.585
-0.57
-0.56
-0.545
-0.545
-0.55
-0.555
-0.555
-0.555
-0.55
-0.54
-0.53
-0.53
-0.525
-0.535
-0.53
-0.555
-0.555
-0.555
-0.57
-0.585
-0.57
-0.55
-0.555
-0.55
-0.545
-0.54
-0.55
-0.555
-0.565
-0.57
-0.58
-0.58
-0.585
-0.58
-0.58
-0.58
-0.575
-0.585
-0.575
-0.59
-0.595
-0.605
-0.62
-0.62
-0.61
-0.62
-0.62
-0.62
-0.625
-0.62
-0.63
-0.63
-0.635
-0.635
-0.64
-0.635
-0.635
-0.635
-0.625
-0.63
-0.62
-0.625
-0.625
-0.63
-0.635
-0.64
-0.645
-0.64
-0.635
-0.625
-0.615
-0.595
-0.59
-0.575
-0.57
-0.575
-0.565
-0.57
-0.58
-0.57
-0.565
-0.555
-0.545
-0.53
-0.525
-0.51
-0.49
-0.485
-0.475
-0.46
-0.46
-0.455
-0.445
-0.445
-0.435
-0.435
-0.45
-0.455
-0.465
-0.47
-0.49
-0.505
-0.53
-0.54
-0.54
-0.54
-0.535
-0.53
-0.535
-0.56
-0.585
-0.6
-0.62
-0.63
-0.64
-0.625
-0.63
-0.605
-0.605
-0.6
-0.59
-0.58
-0.575
-0.59
-0.585
-0.59
-0.595
-0.59
-0.585
-0.57
-0.525
-0.51
-0.465
-0.415
-0.36
-0.29
-0.18
-0.065
0.075
0.25
0.45
0.645
0.8
0.945
1.055
1.185
1.305
1.315
1.2
0.905
0.485
0.03
-0.385
-0.7
-0.86
-0.91
-0.875
-0.82
-0.76
-0.715
-0.69
-0.68
-0.68
-0.68
-0.71
-0.7
-0.72
-0.705
-0.695
-0.695
-0.695
-0.7
-0.715
-0.725
-0.75
-0.73
-0.735
-0.725
-0.725
-0.73
-0.715
-0.71
-0.73
-0.74
-0.745
-0.75
-0.75
-0.75
-0.755
-0.76
-0.765
-0.755
-0.745
-0.765
-0.765
-0.775
-0.78
-0.79
-0.79
-0.81
-0.8
-0.8
-0.8
-0.795
-0.81
-0.82
-0.825
-0.84
-0.835
-0.845
-0.85
-0.85
-0.85
-0.84
-0.835
-0.83
-0.82
-0.81
-0.815
-0.82
-0.81
-0.825
-0.83
-0.82
-0.8
-0.785
-0.775
-0.755
-0.73
-0.72
-0.71
-0.695
-0.69
-0.69
-0.685
-0.665
-0.64
-0.63
-0.615
-0.585
-0.575
-0.57
-0.55
-0.55
-0.54
-0.545
-0.55
-0.54
-0.54
-0.535
-0.53
-0.525
-0.525
-0.525
-0.535
-0.53
-0.545
-0.535
-0.55
-0.55
-0.545
-0.545
-0.55
-0.545
-0.535
-0.55
-0.555
-0.55
-0.55
-0.555
-0.56
-0.57
-0.57
-0.57
-0.57
-0.57
-0.565
-0.565
-0.57
-0.575
-0.59
-0.59
-0.6
-0.605
-0.605
-0.615
-0.615
-0.61
-0.6
-0.595
-0.605
-0.595
-0.605
-0.61
-0.61
-0.615
-0.625
-0.625
-0.625
-0.605
-0.6
-0.595
-0.6
-0.61
-0.61
-0.61
-0.61
-0.615
-0.62
-0.625
-0.615
-0.605
-0.575
-0.575
-0.575
-0.57
-0.565
-0.575
-0.565
-0.555
-0.555
-0.55
-0.54
-0.535
-0.515
-0.52
-0.51
-0.52
-0.515
-0.51
-0.495
-0.5
-0.48
-0.455
-0.445
-0.43
-0.415
-0.405
-0.405
-0.425
-0.43
-0.455
-0.475
-0.48
-0.485
-0.495
-0.49
-0.51
-0.51
-0.51
-0.52
-0.54
-0.56
-0.59
-0.605
-0.615
-0.62
-0.61
-0.6
-0.58
-0.58
-0.58
-0.575
-0.575
-0.57
-0.59
-0.585
-0.59
-0.575
-0.56
-0.56
-0.55
-0.53
-0.53
-0.52
-0.505
-0.49
-0.475
-0.45
-0.395
-0.325
-0.245
-0.14
-0.025
0.105
0.255
0.415
0.585
0.76
0.87
0.97
1.055
1.18
1.32
1.43
1.41
1.21
0.845
0.38
-0.095
-0.505
-0.765
-0.89
-0.9
-0.845
-0.765
-0.69
-0.635
-0.61
-0.615
-0.615
-0.635
-0.65
-0.675
-0.68
-0.69
-0.7
-0.69
-0.68
-0.68
-0.67
-0.67
-0.69
-0.685
-0.695
-0.7
-0.7
-0.71
-0.705
-0.695
-0.7
-0.7
-0.695
-0.7
-0.71
-0.715
-0.705
-0.72
-0.74
-0.735
-0.73
-0.75
-0.745
-0.735
-0.74
-0.735
-0.74
-0.74
-0.75
-0.76
-0.775
-0.78
-0.77
-0.765
-0.795
-0.765
-0.755
-0.785
-0.78
-0.795
-0.795
-0.82
-0.825
-0.82
-0.815
-0.82
-0.79
-0.79
-0.785
-0.785
-0.765
-0.775
-0.77
-0.77
-0.755
-0.755
-0.745
-0.73
-0.71
-0.695
-0.675
-0.67
-0.665
-0.645
-0.615
-0.625
-0.605
-0.595
-0.57
-0.55
-0.52
-0.505
-0.495
-0.49
-0.5
-0.495
-0.49
-0.5
-0.485
-0.5
-0.49
-0.495
-0.485
-0.48
-0.48
-0.475
-0.485
-0.475
-0.485
-0.5
-0.505
-0.505
-0.515
-0.51
-0.525
-0.515
-0.52
-0.51
-0.515
-0.52
-0.525
-0.53
-0.535
-0.535
-0.54
-0.535
-0.525
-0.52
-0.53
-0.53
-0.52
-0.53
-0.535
-0.545
-0.555
-0.555
-0.565
-0.565
-0.555
-0.575
-0.565
-0.56
-0.565
-0.565
-0.575
-0.58
-0.595
-0.595
-0.59
-0.58
-0.585
-0.58
-0.575
-0.565
-0.57
-0.575
-0.585
-0.585
-0.595
-0.595
-0.575
-0.565
-0.565
-0.55
-0.53
-0.53
-0.515
-0.515
-0.525
-0.53
-0.535
-0.52
-0.515
-0.5
-0.485
-0.475
-0.46
-0.455
-0.44
-0.435
-0.43
-0.415
-0.415
-0.41
-0.395
-0.395
-0.385
-0.39
-0.385
-0.395
-0.415
-0.44
-0.435
-0.46
-0.475
-0.49
-0.505
-0.515
-0.525
-0.52
-0.53
-0.535
-0.545
-0.57
-0.58
-0.59
-0.605
-0.61
-0.585
-0.58
-0.59
-0.565
-0.555
-0.55
-0.55
-0.55
-0.565
-0.57
-0.57
-0.57
-0.555
-0.555
-0.535
-0.505
-0.475
-0.43
-0.375
-0.305
-0.2
-0.09
0.055
0.225
0.42
0.625
0.79
0.935
1.085
1.235
1.385
1.49
1.47
1.275
0.93
0.49
0.03
-0.385
-0.675
-0.825
-0.85
-0.825
-0.76
-0.725
-0.695
-0.67
-0.68
-0.68
-0.67
-0.675
-0.68
-0.68
-0.665
-0.675
-0.67
-0.685
-0.705
-0.7
-0.71
-0.71
-0.705
-0.705
-0.71
-0.71
-0.705
-0.7
-0.71
-0.72
-0.72
-0.74
-0.745
-0.735
-0.74
-0.745
-0.735
-0.745
-0.73
-0.74
-0.75
-0.77
-0.78
-0.785
-0.8
-0.8
-0.795
-0.805
-0.795
-0.8
-0.8
-0.79
-0.8
-0.82
-0.83
-0.84
-0.845
-0.85
-0.855
-0.85
-0.85
-0.84
-0.84
-0.835
-0.835
-0.83
-0.835
-0.825
-0.835
-0.835
-0.83
-0.82
-0.815
-0.785
-0.78
-0.76
-0.75
-0.755
-0.74
-0.735
-0.72
-0.71
-0.675
-0.655
-0.64
-0.63
-0.595
-0.595
-0.59
-0.59
-0.565
-0.565
-0.555
-0.565
-0.55
-0.555
-0.54
-0.53
-0.535
-0.525
-0.535
-0.545
-0.545
-0.55
-0.56
-0.56
-0.565
-0.56
-0.555
-0.55
-0.54
-0.545
-0.545
-0.55
-0.565
-0.57
-0.58
-0.585
-0.58
-0.57
-0.57
-0.57
-0.57
-0.565
-0.565
-0.585
-0.585
-0.605
-0.61
-0.615
-0.61
-0.61
-0.6
-0.59
-0.58
-0.6
-0.605
-0.61
-0.63
-0.64
-0.635
-0.635
-0.64
-0.635
-0.625
-0.635
-0.615
-0.615
-0.62
-0.625
-0.63
-0.635
-0.65
-0.655
-0.635
-0.625
-0.62
-0.61
-0.595
-0.585
-0.58
-0.585
-0.58
-0.59
-0.58
-0.59
-0.58
-0.565
-0.56
-0.535
-0.535
-0.535
-0.525
-0.52
-0.52
-0.51
-0.51
-0.48
-0.48
-0.47
-0.46
-0.43
-0.425
-0.425
-0.42
-0.43
-0.455
-0.46
-0.48
-0.49
-0.505
-0.52
-0.535
-0.54
-0.55
-0.555
-0.565
-0.575
-0.585
-0.61
-0.64
-0.64
-0.64
-0.63
-0.63
-0.615
-0.61
-0.605
-0.605
-0.61
-0.615
-0.62
-0.625
-0.635
-0.62
-0.62
-0.59
-0.575
-0.585
-0.57
-0.545
-0.54
-0.535
-0.505
-0.49
-0.42
-0.36
-0.275
-0.18
-0.075
0.06
0.19
0.355
0.535
0.68
0.81
0.935
1.045
1.17
1.31
1.455
1.5
1.42
1.19
0.825
0.41
-0.02
-0.395
-0.655
-0.79
-0.845
-0.84
-0.78
-0.735
-0.705
-0.69
-0.7
-0.7
-0.71
-0.71
-0.725
-0.73
-0.725
-0.725
-0.72
-0.73
-0.73
-0.725
-0.725
-0.735
-0.74
-0.75
-0.75
-0.76
-0.765
-0.76
-0.77
-0.765
-0.75
-0.75
-0.745
-0.75
-0.755
-0.77
-0.775
-0.785
-0.775
-0.79
-0.79
-0.79
-0.77
-0.765
-0.78
-0.78
-0.79
-0.81
-0.83
-0.81
-0.815
-0.815
-0.805
-0.795
-0.81
-0.82
-0.825
-0.825
-0.835
-0.85
-0.86
-0.86
-0.875
-0.87
-0.865
-0.865
-0.845
-0.85
-0.85
-0.845
-0.855
-0.845
-0.85
-0.86
-0.835
-0.835
-0.82
-0.805
-0.785
-0.775
-0.77
-0.755
-0.745
-0.725
-0.725
-0.705
-0.68
-0.66
-0.63
-0.61
-0.595
-0.575
-0.565
-0.56
-0.545
-0.56
-0.56
-0.555
-0.55
-0.545
-0.53
-0.53
-0.52
-0.52
-0.52
-0.53
-0.53
-0.545
-0.545
-0.55
-0.55
-0.545
-0.535
-0.535
-0.53
-0.515
-0.52
-0.535
-0.55
-0.56
-0.555
-0.555
-0.56
-0.56
-0.55
-0.545
-0.54
-0.54
-0.545
-0.55
-0.565
-0.57
-0.57
-0.58
-0.58
-0.57
-0.57
-0.555
-0.555
-0.545
-0.555
-0.565
-0.575
-0.58
-0.58
-0.595
-0.6
-0.59
-0.575
-0.575
-0.57
-0.57
-0.57
-0.575
-0.585
-0.59
-0.59
-0.595
-0.6
-0.575
-0.57
-0.56
-0.55
-0.54
-0.53
-0.525
-0.525
-0.535
-0.52
-0.525
-0.515
-0.495
-0.485
-0.465
-0.455
-0.44
-0.425
-0.41
-0.42
-0.415
-0.405
-0.4
-0.395
-0.39
-0.375
-0.38
-0.375
-0.385
-0.415
-0.425
-0.43
-0.465
-0.47
-0.485
-0.495
-0.5
-0.5
-0.51
-0.515
-0.52
-0.535
-0.555
-0.555
-0.55
-0.565
-0.57
-0.555
-0.54
-0.545
-0.53
-0.525
-0.535
-0.52
-0.52
-0.52
-0.52
-0.53
-0.545
-0.525
-0.52
-0.5
-0.485
-0.475
-0.445
-0.415
-0.4
-0.36
-0.3
-0.235
-0.15
-0.05
0.075
0.225
0.395
0.57
0.745
0.895
1.01
1.11
1.225
1.335
1.42
1.4
1.205
0.865
0.425
-0.025
-0.4
-0.67
-0.805
-0.83
-0.785
-0.725
-0.68
-0.65
-0.635
-0.625
-0.62
-0.625
-0.615
-0.625
-0.635
-0.64
-0.65
-0.65
-0.66
-0.655
-0.655
-0.655
-0.655
-0.645
-0.655
-0.645
-0.645
-0.665
-0.665
-0.67
-0.67
-0.685
-0.67
-0.67
-0.67
-0.685
-0.675
-0.675
-0.67
-0.685
-0.695
-0.695
-0.705
-0.7
-0.705
-0.71
-0.71
-0.695
-0.7
-0.71
-0.715
-0.715
-0.725
-0.735
-0.74
-0.735
-0.745
-0.74
-0.735
-0.735
-0.745
-0.75
-0.75
-0.765
-0.78
-0.775
-0.78
-0.785
-0.775
-0.78
-0.78
-0.765
-0.765
-0.765
-0.745
-0.75
-0.755
-0.75
-0.75
-0.735
-0.73
-0.715
-0.69
-0.675
-0.675
-0.655
-0.64
-0.64
-0.63
-0.61
-0.61
-0.58
-0.56
-0.545
-0.53
-0.5
-0.485
-0.475
-0.48
-0.47
-0.46
-0.48
-0.46
-0.465
-0.455
-0.45
-0.435
-0.43
-0.445
-0.44
-0.44
-0.45
-0.455
-0.47
-0.46
-0.465
-0.46
-0.47
-0.455
-0.44
-0.47
-0.455
-0.47
-0.47
-0.475
-0.475
-0.49
-0.485
-0.475
-0.48
-0.475
-0.465
-0.465
-0.47
-0.48
-0.495
-0.515
-0.52
-0.515
-0.515
-0.515
-0.505
-0.505
-0.5
-0.51
-0.525
-0.515
-0.515
-0.525
-0.54
-0.54
-0.545
-0.54
-0.535
-0.525
-0.525
-0.515
-0.52
-0.52
-0.535
-0.53
-0.53
-0.535
-0.52
-0.52
-0.495
-0.5
-0.49
-0.48
-0.465
-0.47
-0.465
-0.465
-0.465
-0.475
-0.46
-0.445
-0.435
-0.415
-0.395
-0.39
-0.375
-0.375
-0.365
-0.365
-0.36
-0.365
-0.36
-0.365
-0.365
-0.37
-0.375
-0.37
-0.385
-0.415
-0.42
-0.435
-0.465
-0.47
-0.48
-0.475
-0.495
-0.505
-0.51
-0.525
-0.53
-0.52
-0.53
-0.53
-0.535
-0.535
-0.54
-0.535
-0.52
-0.5
-0.51
-0.5
-0.505
-0.495
-0.49
-0.49
-0.495
-0.49
-0.465
-0.44
-0.39
-0.35
-0.275
-0.18
-0.095
0.0
0.155
0.315
0.49
0.675
0.83
0.945
1.055
1.16
1.28
1.375
1.385
1.265
1.0
0.61
0.17
-0.235
-0.555
-0.745
-0.805
-0.79
-0.745
-0.685
-0.635
-0.615
-0.62
-0.61
-0.61
-0.61
-0.615
-0.605
-0.605
-0.615
-0.61
-0.62
-0.625
-0.63
-0.64
-0.645
-0.655
-0.66
-0.64
-0.645
-0.64
-0.635
-0.63
-0.64
-0.645
-0.63
-0.655
-0.65
-0.66
-0.665
-0.67
-0.67
-0.655
-0.665
-0.665
-0.665
-0.665
-0.675
-0.685
-0.705
-0.715
-0.71
-0.71
-0.715
-0.7
-0.715
-0.705
-0.7
-0.715
-0.715
-0.725
-0.73
-0.735
-0.745
-0.745
-0.75
-0.735
-0.74
-0.735
-0.735
-0.76
-0.75
-0.765
-0.76
-0.75
-0.735
-0.73
-0.725
-0.705
-0.71
-0.69
-0.68
-0.68
-0.67
-0.67
-0.68
-0.655
-0.65
-0.63
-0.605
-0.59
-0.57
-0.55
-0.535
-0.52
-0.525
-0.515
-0.495
-0.49
-0.48
-0.455
-0.45
-0.44
-0.435
-0.425
-0.425
-0.415
-0.425
-0.43
-0.445
-0.45
-0.445
-0.46
-0.455
-0.445
-0.45
-0.435
-0.44
-0.445
-0.445
-0.455
-0.46
-0.47
-0.47
-0.465
-0.465
-0.455
-0.465
-0.45
-0.45
-0.46
-0.455
-0.46
-0.465
-0.49
-0.495
-0.49
-0.5
-0.5
-0.5
-0.49
-0.49
-0.485
-0.49
-0.495
-0.505
-0.515
-0.525
-0.525
-0.515
-0.515
-0.51
-0.505
-0.505
-0.51
-0.51
-0.515
-0.515
-0.525
-0.54
-0.53
-0.515
-0.51
-0.5
-0.495
-0.485
-0.48
-0.48
-0.475
-0.48
-0.465
-0.47
-0.47
-0.445
-0.445
-0.445
-0.43
-0.43
-0.42
-0.415
-0.41
-0.395
-0.4
-0.39
-0.37
-0.36
-0.335
-0.315
-0.3
-0.32
-0.31
-0.32
-0.335
-0.355
-0.36
-0.375
-0.39
-0.385
-0.41
-0.42
-0.43
-0.435
-0.44
-0.465
-0.48
-0.5
-0.505
-0.525
-0.51
-0.495
-0.48
-0.485
-0.47
-0.465
-0.45
-0.46
-0.46
-0.455
-0.465
-0.465
-0.46
-0.455
-0.435
-0.41
-0.385
-0.365
-0.335
-0.295
-0.24
-0.165
-0.09
0.02
0.14
0.29
0.48
0.68
0.845
0.985
1.085
1.175
1.275
1.38
1.505
1.56
1.49
1.285
0.935
0.525
0.095
-0.285
-0.565
-0.71
-0.745
-0.725
-0.685
-0.64
-0.58
-0.555
-0.53
-0.53
-0.535
-0.53
-0.545
-0.555
-0.565
-0.58
-0.59
-0.6
-0.6
-0.605
-0.59
-0.59
-0.585
-0.58
-0.58
-0.59
-0.605
-0.605
-0.62
-0.63
-0.63
-0.625
-0.625
-0.62
-0.615
-0.61
-0.63
-0.63
-0.64
-0.645
-0.655
-0.67
-0.675
-0.675
-0.67
-0.675
-0.67
-0.675
-0.67
-0.68
-0.7
-0.7
-0.71
-0.715
-0.725
-0.72
-0.725
-0.725
-0.71
-0.72
-0.72
-0.725
-0.73
-0.725
-0.72
-0.73
-0.71
-0.705
-0.69
-0.68
-0.67
-0.64
-0.65
-0.635
-0.625
-0.62
-0.62
-0.615
-0.575
-0.56
-0.535
-0.51
-0.505
-0.475
-0.46
-0.45
-0.435
-0.435
-0.44
-0.435
-0.425
-0.43
-0.425
-0.42
-0.415
-0.42
-0.425
-0.425
-0.41
-0.44
-0.445
-0.44
-0.445
-0.44
-0.435
-0.435
-0.43
-0.425
-0.435
-0.435
-0.445
-0.455
-0.47
-0.465
-0.47
-0.475
-0.47
-0.47
-0.455
-0.455
-0.46
-0.465
-0.47
-0.485
-0.48
-0.5
-0.495
-0.495
-0.5
-0.495
-0.51
-0.49
-0.49
-0.495
-0.505
-0.51
-0.515
-0.515
-0.515
-0.525
-0.515
-0.51
-0.505
-0.505
-0.515
-0.515
-0.52
-0.525
-0.525
-0.535
-0.53
-0.52
-0.5
-0.5
-0.495
-0.48
-0.48
-0.48
-0.475
-0.475
-0.465
-0.46
-0.46
-0.445
-0.445
-0.43
-0.425
-0.41
-0.405
-0.395
-0.385
-0.375
-0.355
-0.355
-0.35
-0.33
-0.33
-0.32
-0.32
-0.315
-0.34
-0.36
-0.365
-0.375
-0.4
-0.405
-0.415
-0.43
-0.43
-0.445
-0.455
-0.46
-0.475
-0.475
-0.5
-0.51
-0.53
-0.52
-0.53
-0.52
-0.515
-0.51
-0.5
-0.495
-0.505
-0.49
-0.51
-0.51
-0.5
-0.505
-0.505
-0.5
-0.485
-0.47
-0.455
-0.455
-0.44
-0.425
-0.415
-0.395
-0.35
-0.295
-0.21
-0.115
-0.005
0.115
0.285
0.45
0.62
0.75
0.895
1.0
1.11
1.22
1.36
1.5
1.555
1.475
1.215
0.82
0.34
-0.115
-0.485
-0.715
-0.805
-0.795
-0.735
-0.675
-0.62
-0.585
-0.58
-0.57
-0.575
-0.59
-0.6
-0.605
-0.62
-0.63
-0.625
-0.645
-0.64
-0.625
-0.63
-0.615
-0.63
-0.62
-0.635
-0.635
-0.65
-0.65
-0.66
-0.65
-0.65
-0.64
-0.64
-0.635
-0.64
-0.65
-0.655
-0.66
-0.67
-0.675
-0.68
-0.68
-0.69
-0.685
-0.67
-0.67
-0.67
-0.675
-0.685
-0.695
-0.715
-0.72
-0.735
-0.725
-0.73
-0.725
-0.73
-0.73
-0.715
-0.72
-0.745
-0.745
-0.755
-0.775
-0.765
-0.775
-0.775
-0.76
-0.76
-0.765
-0.77
-0.76
-0.77
-0.785
-0.785
-0.785
-0.79
-0.77
-0.76
-0.75
-0.725
-0.715
-0.72
-0.715
-0.705
-0.7
-0.705
-0.69
-0.665
-0.65
-0.635
-0.605
-0.575
-0.565
-0.555
-0.535
-0.535
-0.51
-0.52
-0.515
-0.505
-0.5
-0.48
-0.475
-0.46
-0.455
-0.45
-0.465
-0.465
-0.475
-0.475
-0.48
-0.485
-0.475
-0.47
-0.485
-0.46
-0.465
-0.475
-0.47
-0.48
-0.48
-0.495
-0.495
-0.5
-0.495
-0.49
-0.5
-0.5
-0.49
-0.5
-0.5
-0.515
-0.5
-0.525
-0.525
-0.525
-0.53
-0.525
-0.52
-0.52
-0.52
-0.54
-0.54
-0.545
-0.55
-0.565
-0.565
-0.575
-0.575
-0.575
-0.56
-0.565
-0.555
-0.55
-0.565
-0.565
-0.57
-0.58
-0.58
-0.585
-0.585
-0.58
-0.55
-0.56
-0.54
-0.545
-0.53
-0.535
-0.53
-0.53
-0.535
-0.525
-0.51
-0.5
-0.495
-0.485
-0.48
-0.485
-0.48
-0.49
-0.485
-0.495
-0.49
-0.465
-0.45
-0.43
-0.42
-0.39
-0.385
-0.38
-0.37
-0.36
-0.37
-0.37
-0.375
-0.385
-0.385
-0.38
-0.385
-0.375
-0.375
-0.405
-0.415
-0.435
-0.455
-0.475
-0.49
-0.5
-0.51
-0.525
-0.535
-0.525
-0.53
-0.55
-0.545
-0.545
-0.555
-0.55
-0.55
-0.545
-0.545
-0.53
-0.53
-0.535
-0.52
-0.505
-0.51
-0.515
-0.51
-0.51
-0.515
-0.51
-0.49
-0.475
-0.465
-0.43
-0.385
-0.335
-0.27
-0.195
-0.11
-0.03
0.085
0.245
0.415
0.58
0.76
0.905
1.02
1.135
1.265
1.405
1.54
1.575
1.465
1.195
0.78
0.32
-0.12
-0.465
-0.685
-0.78
-0.775
-0.735
-0.71
-0.665
-0.645
-0.635
-0.62
-0.62
-0.615
-0.605
-0.605
-0.61
-0.62
-0.635
-0.635
-0.645
-0.655
-0.655
-0.65
-0.645
-0.635
-0.64
-0.64
-0.635
-0.645
-0.66
-0.66
-0.67
-0.675
-0.67
-0.685
-0.675
-0.675
-0.68
-0.68
-0.68
-0.68
-0.695
-0.705
-0.71
-0.71
-0.715
-0.725
-0.715
-0.71
-0.71
-0.705
-0.7
-0.72
-0.735
-0.74
-0.76
-0.775
-0.78
-0.785
-0.78
-0.775
-0.755
-0.765
-0.77
-0.765
-0.775
-0.785
-0.785
-0.795
-0.795
-0.78
-0.78
-0.765
-0.75
-0.73
-0.725
-0.735
-0.725
-0.715
-0.71
-0.71
-0.695
-0.675
-0.655
-0.64
-0.625
-0.59
-0.58
-0.575
-0.565
-0.56
-0.545
-0.535
-0.53
-0.515
-0.505
-0.49
-0.49
-0.48
-0.475
-0.47
-0.475
-0.475
-0.485
-0.485
-0.47
-0.475
-0.475
-0.48
-0.47
-0.46
-0.47
-0.47
-0.48
-0.475
-0.49
-0.485
-0.495
-0.485
-0.485
-0.475
-0.47
-0.465
-0.475
-0.47
-0.48
-0.49
-0.495
-0.51
-0.505
-0.505
-0.505
-0.51
-0.5
-0.5
-0.495
-0.51
-0.53
-0.525
-0.545
-0.54
-0.545
-0.54
-0.535
-0.525
-0.53
-0.535
-0.535
-0.535
-0.54
-0.555
-0.55
-0.55
-0.555
-0.535
-0.54
-0.52
-0.53
-0.525
-0.53
-0.525
-0.51
-0.515
-0.515
-0.51
-0.5
-0.485
-0.48
-0.47
-0.465
-0.45
-0.44
-0.445
-0.44
-0.435
-0.43
-0.44
-0.425
-0.41
-0.385
-0.37
-0.345
-0.325
-0.32
-0.31
-0.315
-0.315
-0.325
-0.33
-0.34
-0.35
-0.355
-0.355
-0.36
-0.37
-0.39
-0.4
-0.425
-0.43
-0.455
-0.475
-0.48
-0.495
-0.495
-0.505
-0.49
-0.495
-0.49
-0.505
-0.515
-0.49
-0.505
-0.505
-0.51
-0.5
-0.485
-0.485
-0.475
-0.46
-0.465
-0.46
-0.455
-0.455
-0.45
-0.445
-0.42
-0.385
-0.345
-0.28
-0.21
-0.135
-0.04
0.055
0.175
0.31
0.475
0.64
0.81
0.945
1.065
1.18
1.315
1.45
1.525
1.5
1.29
0.915
0.435
-0.065
-0.46
-0.73
-0.835
-0.825
-0.76
-0.67
-0.61
-0.57
-0.555
-0.56
-0.565
-0.585
-0.595
-0.605
-0.605
-0.6
-0.605
-0.595
-0.59
-0.6
-0.6
-0.63
-0.625
-0.625
-0.635
-0.63
-0.625
-0.62
-0.615
-0.605
-0.615
-0.62
-0.635
-0.635
-0.655
-0.66
-0.65
-0.65
-0.64
-0.63
-0.64
-0.635
-0.64
-0.66
-0.67
-0.685
-0.685
-0.68
-0.69
-0.69
-0.69
-0.67
-0.675
-0.675
-0.68
-0.68
-0.705
-0.705
-0.715
-0.725
-0.725
-0.725
-0.72
-0.71
-0.715
-0.715
-0.72
-0.715
-0.735
-0.73
-0.74
-0.735
-0.73
-0.72
-0.705
-0.68
-0.675
-0.66
-0.655
-0.645
-0.65
-0.625
-0.61
-0.605
-0.605
-0.585
-0.555
-0.55
-0.53
-0.495
-0.485
-0.47
-0.46
-0.45
-0.45
-0.435
-0.44
-0.435
-0.425
-0.415
-0.415
-0.405
-0.415
-0.415
-0.415
-0.42
-0.425
-0.44
-0.44
-0.43
-0.44
-0.44
-0.42
-0.42
-0.425
-0.43
-0.445
-0.44
-0.46
-0.455
-0.46
-0.46
-0.46
-0.455
-0.45
-0.445
-0.455
-0.45
-0.455
-0.47
-0.48
-0.47
-0.485
-0.475
-0.475
-0.475
-0.47
-0.475
-0.475
-0.47
-0.485
-0.5
-0.5
-0.51
-0.51
-0.535
-0.52
-0.515
-0.5
-0.495
-0.5
-0.51
-0.51
-0.52
-0.51
-0.515
-0.515
-0.515
-0.5
-0.485
-0.465
-0.445
-0.445
-0.44
-0.44
-0.435
-0.44
-0.45
-0.435
-0.435
-0.43
-0.425
-0.405
-0.405
-0.41
-0.39
-0.39
-0.365
-0.365
-0.365
-0.345
-0.33
-0.325
-0.31
-0.31
-0.31
-0.32
-0.335
-0.35
-0.375
-0.385
-0.385
-0.4
-0.415
-0.42
-0.435
-0.415
-0.425
-0.44
-0.45
-0.465
-0.48
-0.505
-0.52
-0.515
-0.505
-0.485
-0.465
-0.465
-0.46
-0.465
-0.465
-0.46
-0.465
-0.47
-0.465
-0.47
-0.45
-0.445
-0.395
-0.36
-0.305
-0.22
-0.13
-0.015
0.11
0.275
0.46
0.65
0.82
0.96
1.08
1.18
1.32
1.42
1.435
1.315
1.05
0.64
0.205
-0.22
-0.525
-0.71
-0.775
-0.765
-0.695
-0.635
-0.59
-0.57
-0.55
-0.56
-0.565
-0.585
-0.585
-0.59
-0.59
-0.585
-0.58
-0.59
-0.59
-0.595
-0.61
-0.605
-0.61
-0.625
-0.615
-0.61
-0.6
-0.595
-0.6
-0.6
-0.61
-0.635
-0.625
-0.65
-0.65
-0.64
-0.63
-0.635
-0.64
-0.63
-0.64
-0.635
-0.65
-0.65
-0.66
-0.665
-0.69
-0.69
-0.69
-0.67
-0.67
-0.665
-0.675
-0.67
-0.68
-0.69
-0.7
-0.715
-0.72
-0.725
-0.72
-0.72
-0.725
-0.73
-0.71
-0.72
-0.71
-0.715
-0.715
-0.715
-0.72
-0.71
-0.7
-0.685
-0.675
-0.655
-0.645
-0.64
-0.64
-0.63
-0.62
-0.605
-0.6
-0.59
-0.58
-0.56
-0.545
-0.52
-0.51
-0.5
-0.48
-0.47
-0.47
-0.46
-0.455
-0.455
-0.445
-0.425
-0.425
-0.415
-0.41
-0.405
-0.42
-0.42
-0.42
-0.435
-0.44
-0.44
-0.43
-0.44
-0.43
-0.43
-0.43
-0.43
-0.44
-0.45
-0.45
-0.465
-0.475
-0.47
-0.47
-0.465
-0.485
-0.46
-0.455
-0.455
-0.465
-0.465
-0.48
-0.49
-0.5
-0.485
-0.505
-0.5
-0.5
-0.5
-0.485
-0.49
-0.49
-0.495
-0.505
-0.51
-0.52
-0.525
-0.535
-0.525
-0.52
-0.51
-0.5
-0.51
-0.5
-0.51
-0.52
-0.525
-0.525
-0.52
-0.51
-0.515
-0.495
-0.49
-0.48
-0.49
-0.48
-0.48
-0.48
-0.49
-0.485
-0.485
-0.485
-0.47
-0.46
-0.445
-0.43
-0.43
-0.43
-0.435
-0.425
-0.43
-0.415
-0.425
-0.415
-0.395
-0.38
-0.37
-0.35
-0.335
-0.325
-0.32
-0.315
-0.315
-0.32
-0.315
-0.32
-0.32
-0.33
-0.335
-0.34
-0.345
-0.365
-0.385
-0.405
-0.42
-0.445
-0.45
-0.455
-0.465
-0.475
-0.48
-0.475
-0.475
-0.475
-0.475
-0.485
-0.485
-0.48
-0.485
-0.475
-0.48
-0.46
-0.455
-0.44
-0.445
-0.43
-0.435
-0.42
-0.425
-0.415
-0.405
-0.37
-0.35
-0.305
-0.245
-0.2
-0.135
-0.055
0.045
0.135
0.27
0.43
0.59
0.745
0.9
1.005
1.105
1.215
1.33
1.44
1.46
1.365
1.095
0.72
0.275
-0.135
-0.46
-0.67
-0.735
-0.715
-0.66
-0.6
-0.565
-0.53
-0.515
-0.535
-0.535
-0.555
-0.56
-0.565
-0.545
-0.56
-0.565
-0.57
-0.58
-0.6
-0.605
-0.595
-0.6
-0.595
-0.58
-0.595
-0.585
-0.585
-0.585
-0.59
-0.59
-0.6
-0.6
-0.625
-0.625
-0.62
-0.635
-0.645
-0.635
-0.625
-0.635
-0.625
-0.63
-0.63
-0.645
-0.66
-0.665
-0.67
-0.67
-0.67
-0.655
-0.665
-0.665
-0.67
-0.675
-0.68
-0.705
-0.715
-0.72
-0.72
-0.71
-0.72
-0.715
-0.695
-0.695
-0.7
-0.725
-0.72
-0.73
-0.73
-0.73
-0.72
-0.715
-0.695
-0.69
-0.675
-0.665
-0.66
-0.66
-0.645
-0.645
-0.64
-0.62
-0.605
-0.59
-0.57
-0.55
-0.53
-0.515
-0.5
-0.485
-0.475
-0.465
-0.46
-0.455
-0.44
-0.425
-0.415
-0.415
-0.395
-0.4
-0.395
-0.405
-0.41
-0.41
-0.425
-0.43
-0.425
-0.41
-0.415
-0.42
-0.405
-0.41
-0.405
-0.41
-0.43
-0.44
-0.445
-0.445
-0.455
-0.455
-0.45
-0.435
-0.435
-0.445
-0.44
-0.45
-0.45
-0.46
-0.47
-0.48
-0.475
-0.48
-0.465
-0.47
-0.46
-0.46
-0.465
-0.465
-0.495
-0.49
-0.495
-0.5
-0.505
-0.505
-0.5
-0.505
-0.49
-0.51
-0.5
-0.52
-0.525
-0.53
-0.525
-0.535
-0.52
-0.52
-0.515
-0.51
-0.5
-0.49
-0.49
-0.5
-0.5
-0.505
-0.505
-0.5
-0.485
-0.475
-0.46
-0.45
-0.435
-0.43
-0.44
-0.44
-0.435
-0.445
-0.43
-0.425
-0.41
-0.405
-0.39
-0.36
-0.355
-0.335
-0.325
-0.325
-0.325
-0.32
-0.33
-0.33
-0.335
-0.34
-0.35
-0.36
-0.345
-0.37
-0.385
-0.41
-0.415
-0.43
-0.47
-0.46
-0.47
-0.48
-0.48
-0.49
-0.49
-0.49
-0.49
-0.49
-0.505
-0.505
-0.51
-0.5
-0.5
-0.485
-0.48
-0.475
-0.47
-0.455
-0.445
-0.45
-0.44
-0.445
-0.43
-0.405
-0.36
-0.315
-0.24
-0.15
-0.05
0.065
0.2
0.35
0.53
0.725
0.89
1.045
1.19
1.34
1.47
1.51
1.4
1.115
0.72
0.255
-0.165
-0.51
-0.69
-0.76
-0.745
-0.7
-0.63
-0.59
-0.565
-0.56
-0.56
-0.58
-0.585
-0.59
-0.61
-0.61
-0.63
-0.615
-0.62
-0.615
-0.61
-0.62
-0.62
-0.615
-0.62
-0.63
-0.635
-0.645
-0.64
-0.63
-0.63
-0.63
-0.63
-0.63
-0.635
-0.64
-0.655
-0.645
-0.66
-0.665
-0.665
-0.675
-0.655
-0.665
-0.665
-0.675
-0.665
-0.675
-0.68
-0.685
-0.705
-0.705
-0.705
-0.71
-0.7
-0.695
-0.7
-0.71
-0.705
-0.725
-0.75
-0.76
-0.75
-0.755
-0.765
-0.755
-0.76
-0.745
-0.745
-0.745
-0.75
-0.75
-0.765
-0.755
-0.76
-0.765
-0.75
-0.75
-0.74
-0.725
-0.705
-0.7
-0.695
-0.69
-0.685
-0.685
-0.685
-0.67
-0.66
-0.645
-0.625
-0.6
-0.57
-0.565
-0.535
-0.53
-0.52
-0.515
-0.5
-0.495
-0.49
-0.48
-0.465
-0.46
-0.46
-0.45
-0.45
-0.445
-0.46
-0.47
-0.465
-0.47
-0.465
-0.465
-0.465
-0.455
-0.44
-0.45
-0.465
-0.455
-0.465
-0.47
-0.48
-0.485
-0.485
-0.48
-0.48
-0.475
-0.475
-0.47
-0.475
-0.49
-0.495
-0.505
-0.495
-0.51
-0.515
-0.515
-0.51
-0.505
-0.49
-0.5
-0.51
-0.515
-0.52
-0.535
-0.545
-0.55
-0.545
-0.535
-0.53
-0.54
-0.52
-0.52
-0.53
-0.53
-0.545
-0.55
-0.555
-0.56
-0.54
-0.545
-0.535
-0.535
-0.53
-0.52
-0.525
-0.525
-0.53
-0.53
-0.53
-0.525
-0.505
-0.505
-0.49
-0.475
-0.475
-0.465
-0.455
-0.465
-0.465
-0.465
-0.465
-0.465
-0.465
-0.445
-0.435
-0.42
-0.415
-0.395
-0.39
-0.385
-0.38
-0.365
-0.36
-0.36
-0.34
-0.345
-0.345
-0.335
-0.35
-0.355
-0.36
-0.375
-0.39
-0.425
-0.435
-0.46
-0.47
-0.475
-0.495
-0.495
-0.505
-0.52
-0.525
-0.535
-0.555
-0.54
-0.555
-0.55
-0.545
-0.54
-0.53
-0.51
-0.505
-0.495
-0.505
-0.5
-0.5
-0.5
-0.5
-0.495
-0.475
-0.45
-0.405
-0.355
-0.285
-0.21
-0.14
-0.03
0.095
0.23
0.395
0.58
0.75
0.925
1.055
1.195
1.315
1.445
1.555
1.55
1.41
1.095
0.675
0.215
-0.205
-0.52
-0.705
-0.76
-0.76
-0.705
-0.65
-0.63
-0.615
-0.62
-0.62
-0.62
-0.62
-0.62
-0.615
-0.615
-0.615
