Lead II
0.025
0.06
0.045
0.03
0.025
0.035
0.03
0.025
-0.02
-0.04
-0.045
-0.025
-0.015
-0.025
-0.035
-0.055
-0.06
-0.04
-0.035
-0.025
-0.055
-0.055
-0.07
-0.07
-0.05
-0.035
-0.06
-0.07
-0.08
-0.055
-0.065
-0.055
-0.075
-0.095
-0.085
-0.07
-0.055
-0.06
-0.07
-0.095
-0.09
-0.075
-0.075
-0.07
-0.08
-0.095
-0.085
-0.09
-0.06
-0.06
-0.065
-0.08
-0.09
-0.07
-0.06
-0.06
-0.07
-0.07
-0.075
-0.065
-0.045
-0.045
-0.065
-0.08
-0.075
-0.05
-0.04
-0.035
-0.04
-0.06
-0.045
-0.035
-0.025
-0.005
-0.01
-0.02
-0.01
0.01
0.035
0.04
0.05
0.045
0.06
0.09
0.115
0.12
0.125
0.135
0.15
0.175
0.205
0.23
0.235
0.22
0.245
0.25
0.26
0.25
0.255
0.245
0.235
0.24
0.255
0.245
0.22
0.2
0.185
0.185
0.19
0.185
0.15
0.13
0.13
0.125
0.14
0.12
0.105
0.095
0.09
0.085
0.1
0.09
0.085
0.065
0.065
0.075
0.075
0.09
0.075
0.065
0.06
0.065
0.075
0.08
0.075
0.055
0.035
0.055
0.065
0.075
0.075
0.06
0.045
0.04
0.065
0.065
0.065
0.05
0.05
0.05
0.07
0.06
0.05
0.04
0.03
0.05
0.06
0.07
0.06
0.045
0.05
0.065
0.065
0.07
0.075
0.055
0.05
0.06
0.07
0.075
0.06
0.05
0.055
0.055
0.075
0.07
0.065
0.04
0.045
0.05
0.065
0.065
0.055
0.055
0.055
0.065
0.07
0.07
0.06
0.045
0.055
0.065
0.07
0.065
0.06
0.045
0.035
0.05
0.065
0.065
0.06
0.035
0.035
0.05
0.07
0.06
0.05
0.035
0.05
0.045
0.055
0.06
0.05
0.035
0.035
0.035
0.06
0.055
0.045
0.04
0.035
0.035
0.055
0.07
0.05
0.03
0.035
0.04
0.05
0.045
0.035
0.03
0.035
0.03
0.055
0.045
0.03
0.025
0.03
0.035
0.05
0.05
0.03
0.025
0.03
0.035
0.05
0.04
0.04
0.03
0.025
0.04
0.055
0.045
0.035
0.015
0.025
0.04
0.055
0.045
0.04
0.02
0.03
0.03
0.06
0.055
0.045
0.025
0.03
0.03
0.05
0.045
0.04
0.035
0.025
0.045
0.035
0.055
0.035
0.03
0.04
0.035
0.055
0.055
0.04
0.03
0.025
0.05
0.065
0.065
0.065
0.045
0.06
0.075
0.095
0.105
0.095
0.095
0.1
0.105
0.11
0.115
0.09
0.065
0.055
0.05
0.09
0.08
0.08
0.07
0.07
0.075
0.105
0.105
0.085
0.07
0.04
0.05
0.05
0.06
0.045
0.035
0.045
0.06
0.055
0.065
0.035
0.035
0.04
0.045
0.05
0.06
0.045
0.04
0.035
0.05
0.055
0.05
0.04
0.05
0.05
0.06
0.065
0.07
0.075
0.07
0.105
0.14
0.18
0.235
0.27
0.31
0.35
0.44
0.545
0.67
0.795
0.92
1.06
1.21
1.38
1.56
1.76
1.945
2.01
1.955
1.73
1.355
0.86
0.47
0.21
0.07
0.005
-0.005
0.015
0.015
0.02
0.03
0.04
0.03
0.0
-0.015
-0.035
-0.02
-0.03
-0.03
-0.04
-0.06
-0.06
-0.045
-0.05
-0.045
-0.04
-0.055
-0.055
-0.035
-0.04
-0.05
-0.05
-0.06
-0.055
-0.055
-0.045
-0.05
-0.055
-0.075
-0.08
-0.065
-0.06
-0.05
-0.07
-0.095
-0.085
-0.065
-0.055
-0.065
-0.075
-0.09
-0.09
-0.07
-0.06
-0.065
-0.085
-0.075
-0.08
-0.075
-0.06
-0.07
-0.07
-0.08
-0.095
-0.075
-0.06
-0.055
-0.075
-0.055
-0.075
-0.06
-0.05
-0.05
-0.06
-0.07
-0.065
-0.065
-0.045
-0.04
-0.05
-0.06
-0.055
-0.035
-0.01
-0.01
-0.015
-0.03
-0.02
0.005
0.035
0.045
0.045
0.03
0.045
0.065
0.085
0.105
0.105
0.115
0.12
0.155
0.165
0.175
0.185
0.185
0.205
0.23
0.235
0.25
0.25
0.245
0.245
0.27
0.275
0.27
0.265
0.245
0.245
0.255
0.26
0.235
0.22
0.195
0.18
0.18
0.195
0.165
0.155
0.14
0.13
0.145
0.135
0.125
0.105
0.09
0.085
0.105
0.105
0.105
0.085
0.075
0.085
0.075
0.08
0.085
0.085
0.07
0.08
0.075
0.095
0.09
0.07
0.06
0.05
0.07
0.09
0.08
0.075
0.06
0.05
0.055
0.07
0.08
0.07
0.05
0.055
0.055
0.055
0.07
0.045
0.035
0.04
0.055
0.06
0.055
0.045
0.035
0.045
0.045
0.055
0.055
0.045
0.045
0.04
0.06
0.07
0.07
0.05
0.03
0.045
0.06
0.07
0.08
0.065
0.045
0.05
0.055
0.08
0.075
0.065
0.05
0.055
0.05
0.08
0.08
0.06
0.05
0.05
0.065
0.085
0.085
0.06
0.04
0.03
0.055
0.075
0.065
0.06
0.04
0.045
0.06
0.065
0.06
0.06
0.045
0.035
0.045
0.055
0.05
0.05
0.03
0.035
0.03
0.05
0.045
0.05
0.035
0.025
0.045
0.035
0.035
0.045
0.02
0.03
0.04
0.045
0.035
0.04
0.03
0.025
0.045
0.055
0.045
0.035
0.03
0.04
0.03
0.04
0.03
0.035
0.01
0.005
0.03
0.055
0.035
0.03
0.025
0.025
0.04
0.055
0.04
0.035
0.025
0.015
0.035
0.055
0.045
0.04
0.035
0.02
0.035
0.05
0.05
0.03
0.02
0.02
0.035
0.055
0.05
0.04
0.035
0.03
0.045
0.05
0.05
0.045
0.04
0.035
0.045
0.055
0.04
0.035
0.035
0.04
0.055
0.06
0.05
0.045
0.04
0.04
0.055
0.065
0.065
0.06
0.045
0.045
0.05
0.055
0.055
0.06
0.03
0.045
0.055
0.07
0.06
0.065
0.055
0.075
0.085
0.09
0.1
0.09
0.075
0.09
0.1
0.12
0.115
0.105
0.09
0.105
0.1
0.11
0.105
0.085
0.06
0.06
0.075
0.085
0.08
0.085
0.07
0.075
0.09
0.1
0.095
0.09
0.1
0.08
0.11
0.11
0.1
0.065
0.06
0.03
0.06
0.065
0.06
0.065
0.04
0.06
0.05
0.065
0.055
0.045
0.025
0.045
0.06
0.06
0.055
0.035
0.02
0.035
0.06
0.05
0.06
0.045
0.03
0.035
0.05
0.045
0.045
0.045
0.025
0.03
0.035
0.045
0.06
0.035
0.04
0.03
0.055
0.08
0.09
0.09
0.09
0.13
0.17
0.23
0.275
0.315
0.355
0.41
0.51
0.64
0.77
0.89
1.005
1.135
1.275
1.425
1.585
1.765
1.925
2.06
2.09
2.02
1.78
1.39
0.97
0.57
0.3
0.12
0.025
-0.015
-0.02
0.005
0.01
0.025
0.02
0.01
-0.02
-0.025
-0.04
-0.025
-0.045
-0.07
-0.08
-0.075
-0.06
-0.065
-0.065
-0.075
-0.09
-0.095
-0.075
-0.06
-0.075
-0.09
-0.1
-0.095
-0.095
-0.085
-0.095
-0.105
-0.11
-0.09
-0.09
-0.08
-0.09
-0.11
-0.125
-0.11
-0.11
-0.1
-0.1
-0.12
-0.125
-0.13
-0.115
-0.095
-0.11
-0.115
-0.12
-0.125
-0.125
-0.105
-0.105
-0.125
-0.135
-0.12
-0.115
-0.095
-0.1
-0.11
-0.12
-0.115
-0.105
-0.09
-0.085
-0.095
-0.11
-0.11
-0.095
-0.085
-0.085
-0.095
-0.095
-0.1
-0.075
-0.06
-0.07
-0.075
-0.085
-0.065
-0.055
-0.025
-0.005
-0.02
-0.02
0.0
0.03
0.045
0.06
0.055
0.05
0.075
0.095
0.14
0.13
0.145
0.145
0.18
0.205
0.235
0.235
0.225
0.205
0.22
0.225
0.24
0.24
0.23
0.205
0.205
0.205
0.195
0.19
0.165
0.13
0.135
0.145
0.135
0.12
0.09
0.075
0.075
0.065
0.07
0.07
0.06
0.04
0.04
0.055
0.055
0.05
0.035
0.03
0.035
0.04
0.05
0.04
0.04
0.03
0.015
0.03
0.05
0.04
0.02
0.01
0.02
0.035
0.04
0.03
0.02
0.015
0.01
0.025
0.025
0.025
0.01
-0.005
0.01
0.01
0.025
0.015
0.01
-0.005
0.02
0.015
0.03
0.025
0.015
0.02
0.01
0.025
0.03
0.035
0.03
0.01
0.025
0.04
0.045
0.04
0.03
0.01
0.025
0.035
0.04
0.05
0.04
0.035
0.035
0.05
0.06
0.055
0.035
0.04
0.035
0.05
0.055
0.045
0.02
0.03
0.02
0.045
0.045
0.04
0.03
0.025
0.025
0.04
0.055
0.045
0.03
0.02
0.015
0.025
0.04
0.03
0.02
0.01
0.01
0.03
0.035
0.025
0.02
0.01
0.005
0.035
0.04
0.035
0.02
0.01
0.01
0.02
0.025
0.025
0.015
0.0
-0.005
0.01
0.025
0.03
0.005
0.0
0.015
0.025
0.03
0.03
0.015
0.015
0.01
0.01
0.02
0.015
0.025
0.015
0.01
0.015
0.04
0.025
0.015
0.0
0.005
0.01
0.025
0.02
0.0
0.005
0.0
0.025
0.025
0.035
0.025
-0.005
0.015
0.02
0.035
0.03
0.015
0.01
0.01
0.015
0.04
0.03
0.02
0.0
0.0
0.015
0.025
0.025
0.02
0.02
0.015
0.015
0.04
0.02
0.01
0.015
0.015
0.025
0.04
0.035
0.025
0.015
0.005
0.035
0.045
0.03
0.025
0.02
0.03
0.05
0.065
0.065
0.04
0.05
0.06
0.065
0.085
0.085
0.075
0.065
0.075
0.07
0.09
0.075
0.055
0.045
0.04
0.055
0.065
0.05
0.04
0.04
0.045
0.07
0.085
0.09
0.06
0.045
0.05
0.06
0.08
0.055
0.035
0.005
0.01
0.005
0.035
0.025
0.02
0.0
0.01
0.03
0.035
0.03
0.025
0.01
0.005
0.015
0.03
0.02
0.01
0.01
0.01
0.01
0.03
0.02
0.02
0.015
0.005
0.025
0.045
0.035
0.02
0.015
0.03
0.055
0.075
0.085
0.095
0.105
0.15
0.21
0.275
0.31
0.335
0.38
0.485
0.625
0.77
0.905
1.015
1.14
1.285
1.445
1.66
1.84
1.94
1.925
1.765
1.455
1.04
0.61
0.29
0.095
0.015
0.005
0.015
0.02
0.02
0.01
-0.01
-0.01
0.01
-0.015
-0.05
-0.06
-0.065
-0.06
-0.06
-0.07
-0.09
-0.095
-0.08
-0.075
-0.06
-0.07
-0.08
-0.1
-0.105
-0.08
-0.07
-0.07
-0.08
-0.095
-0.09
-0.08
-0.08
-0.085
-0.095
-0.1
-0.1
-0.09
-0.08
-0.095
-0.11
-0.12
-0.115
-0.1
-0.085
-0.1
-0.115
-0.115
-0.115
-0.115
-0.09
-0.095
-0.105
-0.115
-0.12
-0.1
-0.095
-0.095
-0.1
-0.105
-0.1
-0.085
-0.065
-0.085
-0.105
-0.105
-0.095
-0.08
-0.075
-0.075
-0.09
-0.095
-0.08
-0.075
-0.055
-0.065
-0.07
-0.08
-0.075
-0.05
-0.025
-0.03
-0.035
-0.045
-0.05
-0.02
0.01
0.015
0.02
0.015
0.025
0.03
0.055
0.055
0.08
0.08
0.1
0.12
0.155
0.16
0.16
0.155
0.175
0.21
0.225
0.225
0.215
0.22
0.215
0.235
0.235
0.22
0.21
0.2
0.21
0.19
0.19
0.175
0.15
0.135
0.14
0.13
0.135
0.12
0.09
0.085
0.075
0.085
0.09
0.075
0.075
0.06
0.06
0.08
0.075
0.08
0.06
0.045
0.045
0.065
0.07
0.065
0.055
0.045
0.05
0.065
0.065
0.06
0.04
0.03
0.03
0.05
0.06
0.035
0.04
0.025
0.03
0.035
0.045
0.035
0.025
0.02
0.015
0.03
0.05
0.04
0.03
0.02
0.02
0.025
0.04
0.025
0.03
0.015
0.03
0.04
0.055
0.05
0.025
0.02
0.03
0.055
0.05
0.04
0.035
0.025
0.015
0.045
0.06
0.045
0.045
0.04
0.035
0.05
0.045
0.04
0.035
0.025
0.035
0.045
0.045
0.045
0.02
0.02
0.025
0.04
0.045
0.05
0.03
0.015
0.01
0.03
0.05
0.03
0.04
0.015
0.01
0.025
0.03
0.03
0.015
-0.01
0.005
0.035
0.03
0.035
0.015
0.015
0.0
0.02
0.025
0.03
0.01
0.0
0.015
0.015
0.03
0.02
0.015
0.0
0.015
0.025
0.035
0.015
0.01
-0.005
0.01
0.025
0.025
0.015
0.0
-0.005
0.01
0.02
0.03
0.02
0.02
0.005
0.005
0.03
0.035
0.02
0.015
0.01
0.02
0.015
0.025
0.015
0.015
0.015
0.025
0.025
0.035
0.025
0.02
0.01
0.015
0.025
0.04
0.03
0.02
-0.005
0.02
0.03
0.045
0.045
0.03
0.025
0.035
0.035
0.05
0.04
0.035
0.025
0.035
0.05
0.06
0.045
0.045
0.035
0.04
0.065
0.07
0.08
0.07
0.055
0.06
0.09
0.105
0.095
0.1
0.085
0.09
0.1
0.105
0.1
0.085
0.075
0.07
0.085
0.085
0.08
0.06
0.05
0.055
0.07
0.09
0.095
0.08
0.065
0.06
0.085
0.09
0.08
0.06
0.05
0.03
0.05
0.055
0.04
0.03
0.015
0.025
0.035
0.045
0.035
0.03
0.02
0.03
0.04
0.04
0.04
0.03
0.01
0.025
0.035
0.05
0.035
0.015
0.015
0.0
0.04
0.05
0.04
0.025
0.02
0.03
0.055
0.06
0.055
0.045
0.035
0.05
0.07
0.095
0.105
0.11
0.135
0.18
0.255
0.32
0.36
0.4
0.48
0.595
0.75
0.9
1.03
1.14
1.28
1.44
1.625
1.83
1.995
2.07
2.025
1.825
1.45
1.025
0.61
0.305
0.11
0.02
-0.015
0.01
0.025
0.035
0.015
0.025
0.035
0.035
0.0
-0.02
-0.045
-0.05
-0.035
-0.03
-0.03
-0.05
-0.07
-0.075
-0.05
-0.055
-0.055
-0.07
-0.07
-0.07
-0.045
-0.05
-0.06
-0.065
-0.07
-0.07
-0.065
-0.06
-0.06
-0.085
-0.085
-0.075
-0.08
-0.07
-0.065
-0.09
-0.105
-0.09
-0.075
-0.075
-0.08
-0.09
-0.105
-0.095
-0.075
-0.06
-0.07
-0.08
-0.105
-0.095
-0.075
-0.065
-0.065
-0.075
-0.09
-0.08
-0.06
-0.055
-0.06
-0.085
-0.085
-0.08
-0.065
-0.055
-0.055
-0.07
-0.08
-0.07
-0.055
-0.05
-0.045
-0.045
-0.05
-0.045
-0.045
-0.03
-0.035
-0.035
-0.035
-0.035
0.005
0.015
0.015
0.0
-0.005
0.03
0.045
0.075
0.075
0.075
0.08
0.095
0.125
0.16
0.155
0.16
0.165
0.195
0.225
0.245
0.24
0.24
0.24
0.245
0.275
0.28
0.275
0.255
0.25
0.25
0.245
0.25
0.24
0.215
0.195
0.185
0.19
0.175
0.165
0.14
0.125
0.125
0.135
0.135
0.13
0.115
0.085
0.09
0.1
0.105
0.095
0.08
0.08
0.085
0.075
0.095
0.1
0.065
0.065
0.07
0.085
0.09
0.085
0.075
0.065
0.065
0.085
0.085
0.08
0.07
0.05
0.06
0.07
0.075
0.06
0.06
0.045
0.055
0.075
0.075
0.07
0.06
0.055
0.06
0.07
0.09
0.08
0.065
0.065
0.06
0.08
0.095
0.085
0.075
0.065
0.085
0.085
0.1
0.1
0.09
0.075
0.075
0.1
0.105
0.1
0.09
0.08
0.085
0.105
0.105
0.095
0.085
0.075
0.075
0.105
0.1
0.1
0.075
0.06
0.075
0.08
0.095
0.09
0.08
0.075
0.07
0.08
0.085
0.085
0.07
0.055
0.065
0.08
0.09
0.085
0.08
0.065
0.06
0.075
0.09
0.075
0.065
0.05
0.06
0.07
0.08
0.07
0.065
0.05
0.06
0.075
0.09
0.07
0.055
0.055
0.055
0.075
0.08
0.07
0.07
0.055
0.045
0.06
0.065
0.065
0.055
0.05
0.06
0.065
0.075
0.065
0.065
0.06
0.07
0.065
0.095
0.07
0.06
0.045
0.07
0.075
0.085
0.075
0.06
0.05
0.06
0.085
0.09
0.075
0.065
0.055
0.06
0.075
0.08
0.07
0.065
0.055
0.075
0.08
0.085
0.075
0.065
0.055
0.065
0.08
0.1
0.095
0.065
0.07
0.075
0.09
0.1
0.09
0.085
0.06
0.08
0.08
0.105
0.095
0.1
0.085
0.11
0.125
0.135
0.13
0.12
0.11
0.13
0.155
0.165
0.155
0.14
0.13
0.145
0.14
0.135
0.14
0.125
0.11
0.11
0.125
0.14
0.145
0.135
0.115
0.125
0.15
0.155
0.155
0.14
0.135
0.115
0.115
0.13
0.115
0.09
0.08
0.09
0.11
0.12
0.11
0.085
0.09
0.1
0.1
0.12
0.105
0.08
0.065
0.085
0.1
0.105
0.1
0.08
0.07
0.09
0.095
0.1
0.09
0.08
0.07
0.085
0.1
0.105
0.12
0.11
0.1
0.105
0.14
0.17
0.175
0.2
0.225
0.28
0.355
0.425
0.47
0.54
0.66
0.815
0.98
1.115
1.24
1.38
1.53
1.75
1.96
2.095
2.08
1.865
1.475
1.0
0.58
0.315
0.15
0.07
0.035
0.065
0.095
0.11
0.08
0.07
0.07
0.05
0.045
0.05
0.035
0.01
0.005
0.005
0.005
0.01
0.005
-0.01
-0.005
-0.01
0.0
0.015
0.01
0.0
-0.03
-0.02
0.0
0.005
-0.01
-0.02
-0.02
-0.015
-0.005
-0.01
-0.02
-0.045
-0.04
-0.035
-0.02
-0.025
-0.025
-0.04
-0.05
-0.035
-0.025
-0.01
-0.02
-0.04
-0.05
-0.035
-0.025
-0.02
-0.015
-0.035
-0.04
-0.035
-0.03
-0.02
-0.025
-0.03
-0.04
-0.025
-0.01
-0.015
-0.015
-0.02
-0.025
0.0
0.01
0.03
0.015
-0.005
-0.005
0.01
0.04
0.06
0.05
0.06
0.05
0.08
0.09
0.105
0.12
0.11
0.13
0.155
0.18
0.21
0.21
0.21
0.235
0.25
0.285
0.3
0.325
0.3
0.3
0.31
0.315
0.325
0.32
0.305
0.285
0.265
0.27
0.27
0.25
0.225
0.205
0.195
0.2
0.185
0.18
0.15
0.145
0.145
0.15
0.16
0.135
0.13
0.115
0.11
0.125
0.13
0.13
0.11
0.1
0.11
0.12
0.13
0.125
0.105
0.095
0.105
0.1
0.11
0.11
0.1
0.095
0.085
0.105
0.1
0.08
0.07
0.065
0.065
0.085
0.095
0.08
0.065
0.055
0.055
0.075
0.085
0.075
0.07
0.065
0.075
0.08
0.09
0.085
0.07
0.065
0.075
0.09
0.095
0.08
0.085
0.07
0.07
0.085
0.1
0.1
0.09
0.08
0.08
0.095
0.09
0.095
0.075
0.075
0.09
0.1
0.1
0.065
0.065
0.07
0.09
0.085
0.09
0.07
0.06
0.065
0.065
0.085
0.09
0.075
0.065
0.07
0.07
0.08
0.085
0.07
0.06
0.045
0.055
0.08
0.08
0.065
0.055
0.045
0.065
0.08
0.075
0.065
0.045
0.055
0.055
0.065
0.07
0.07
0.055
0.05
0.06
0.06
0.075
0.06
0.055
0.05
0.06
0.055
0.075
0.06
0.055
0.035
0.05
0.065
0.065
0.065
0.045
0.055
0.055
0.065
0.065
0.065
0.045
0.04
0.05
0.06
0.075
0.055
0.04
0.055
0.055
0.065
0.075
0.06
0.06
0.05
0.06
0.065
0.07
0.06
0.04
0.04
0.06
0.07
0.075
0.055
0.045
0.04
0.05
0.065
0.07
0.065
0.04
0.035
0.04
0.065
0.08
0.075
0.06
0.055
0.06
0.07
0.085
0.075
0.085
0.08
0.09
0.1
0.1
0.1
0.09
0.09
0.105
0.135
0.145
0.135
0.12
0.11
0.1
0.11
0.11
0.115
0.09
0.075
0.1
0.1
0.11
0.125
0.11
0.12
0.115
0.12
0.125
0.12
0.095
0.075
0.08
0.085
0.08
0.075
0.075
0.065
0.06
0.085
0.09
0.075
0.06
0.05
0.055
0.065
0.075
0.065
0.065
0.06
0.06
0.07
0.08
0.07
0.05
0.05
0.07
0.075
0.095
0.085
0.07
0.06
0.085
0.1
0.12
0.13
0.13
0.14
0.2
0.24
0.315
0.355
0.39
0.44
0.56
0.68
0.835
0.955
1.095
1.235
1.41
1.585
1.79
1.99
2.1
2.065
1.87
1.5
1.0
0.56
0.265
0.115
0.045
0.04
0.07
0.065
0.055
0.04
0.045
0.06
0.045
0.015
-0.015
-0.025
-0.03
-0.02
-0.01
-0.015
-0.04
-0.05
-0.05
-0.03
-0.03
-0.025
-0.04
-0.055
-0.05
-0.04
-0.04
-0.055
-0.07
-0.08
-0.06
-0.05
-0.035
-0.045
-0.055
-0.065
-0.065
-0.045
-0.055
-0.05
-0.08
-0.07
-0.075
-0.06
-0.065
-0.08
-0.085
-0.08
-0.065
-0.065
-0.06
-0.075
-0.075
-0.095
-0.08
-0.05
-0.06
-0.055
-0.065
-0.08
-0.07
-0.05
-0.045
-0.045
-0.06
-0.07
-0.055
-0.045
-0.04
-0.05
-0.045
-0.035
-0.035
-0.03
0.0
-0.005
-0.005
-0.005
0.02
0.025
0.055
0.05
0.06
0.055
0.08
0.1
0.125
0.125
0.14
0.15
0.18
0.205
0.23
0.23
0.225
0.235
0.245
0.245
0.26
0.255
0.22
0.21
0.21
0.21
0.21
0.185
0.16
0.135
0.135
0.14
0.13
0.125
0.095
0.075
0.09
0.095
0.09
0.08
0.065
0.065
0.065
0.075
0.075
0.07
0.04
0.055
0.06
0.07
0.065
0.06
0.055
0.045
0.055
0.065
0.075
0.06
0.05
0.04
0.05
0.055
0.06
0.04
0.035
0.04
0.035
0.055
0.04
0.05
0.02
0.025
0.025
0.055
0.045
0.05
0.04
0.035
0.035
0.06
0.055
0.06
0.045
0.03
0.045
0.06
0.065
0.05
0.04
0.025
0.045
0.07
0.06
0.05
0.04
0.03
0.04
0.06
0.055
0.055
0.03
0.025
0.025
0.045
0.035
0.03
0.02
0.015
0.02
0.035
0.045
0.02
0.02
0.02
0.015
0.015
0.03
0.02
0.005
-0.005
0.005
0.025
0.035
0.02
0.015
0.01
0.015
0.015
0.03
0.03
0.005
0.005
0.005
0.01
0.02
0.01
-0.005
-0.005
0.015
0.01
0.015
0.0
-0.005
0.005
0.0
0.015
0.025
0.02
0.0
-0.01
-0.005
0.015
0.015
0.015
-0.005
-0.015
0.0
0.015
0.02
0.005
-0.01
-0.005
0.005
0.015
0.03
0.005
-0.01
-0.005
-0.005
0.025
0.025
0.015
-0.005
-0.01
0.005
0.01
0.025
0.015
-0.005
0.0
0.01
0.025
0.02
0.015
-0.01
-0.005
0.01
0.025
0.025
0.015
0.005
0.0
0.005
0.02
0.035
0.03
0.005
0.005
0.02
0.03
0.035
0.015
0.01
0.01
0.02
0.045
0.045
0.035
0.02
0.025
0.04
0.07
0.075
0.075
0.065
0.05
0.055
0.075
0.075
0.075
0.07
0.08
0.09
0.085
0.09
0.08
0.055
0.05
0.05
0.06
0.065
0.055
0.055
0.055
0.055
0.065
0.075
0.07
0.07
0.065
0.075
0.09
0.095
0.08
0.04
0.035
0.045
0.04
0.05
0.05
0.035
0.025
0.05
0.055
0.05
0.045
0.005
0.03
0.025
0.045
0.055
0.035
0.02
0.02
0.025
0.035
0.04
0.045
0.025
0.03
0.02
0.045
0.045
0.04
0.03
0.03
0.04
0.05
0.055
0.05
0.045
0.05
0.05
0.085
0.1
0.11
0.135
0.175
0.235
0.315
0.36
0.405
0.475
0.59
0.73
0.875
1.01
1.14
1.265
1.395
1.555
1.74
1.935
2.07
2.13
2.095
1.92
1.6
1.175
0.76
0.425
0.21
0.08
0.035
0.035
0.04
0.025
0.015
0.02
0.035
0.02
-0.01
-0.015
-0.045
-0.05
-0.055
-0.04
-0.045
-0.07
-0.08
-0.06
-0.05
-0.055
-0.065
-0.075
-0.07
-0.075
-0.055
-0.065
-0.07
-0.095
-0.09
-0.085
-0.075
-0.075
-0.095
-0.1
-0.1
-0.1
-0.08
-0.075
-0.095
-0.095
-0.105
-0.105
-0.09
-0.08
-0.085
-0.11
-0.105
-0.1
-0.095
-0.085
-0.1
-0.11
-0.11
-0.1
-0.09
-0.08
-0.1
-0.105
-0.11
-0.1
-0.075
-0.09
-0.09
-0.09
-0.095
-0.095
-0.085
-0.085
-0.075
-0.085
-0.1
-0.08
-0.06
-0.065
-0.05
-0.07
-0.065
-0.045
-0.045
-0.03
-0.03
-0.035
-0.025
-0.005
0.01
0.025
0.035
0.025
0.045
0.055
0.08
0.1
0.11
0.11
0.115
0.145
0.18
0.185
0.205
0.2
0.21
0.23
0.25
0.265
0.275
0.265
0.26
0.28
0.285
0.29
0.28
0.26
0.25
0.255
0.255
0.245
0.23
0.2
0.19
0.18
0.185
0.185
0.16
0.13
0.115
0.12
0.135
0.13
0.11
0.095
0.105
0.11
0.125
0.12
0.1
0.09
0.08
0.09
0.11
0.115
0.1
0.085
0.075
0.085
0.1
0.085
0.09
0.06
0.06
0.08
0.085
0.1
0.085
0.065
0.05
0.055
0.085
0.08
0.07
0.065
0.06
0.06
0.07
0.075
0.06
0.04
0.04
0.055
0.065
0.065
0.045
0.03
0.03
0.045
0.05
0.065
0.045
0.03
0.035
0.045
0.06
0.08
0.06
0.05
0.055
0.06
0.055
0.05
0.065
0.055
0.04
0.055
0.06
0.07
0.08
0.06
0.055
0.06
0.06
0.065
0.065
0.055
0.05
0.065
0.065
0.06
0.05
0.035
0.035
0.05
0.065
0.075
0.065
0.055
0.05
0.06
0.06
0.06
0.06
0.045
0.05
0.06
0.075
0.065
0.045
0.035
0.03
0.045
0.05
0.05
0.05
0.025
0.03
0.04
0.05
0.055
0.045
0.035
0.025
0.04
0.05
0.05
0.05
0.04
0.025
0.03
0.045
0.055
0.06
0.03
0.04
0.035
0.05
0.065
0.035
0.035
0.035
0.05
0.05
0.06
0.045
0.02
0.02
0.035
0.045
0.05
0.045
0.04
0.03
0.04
0.05
0.04
0.035
0.035
0.03
0.05
0.055
0.05
0.035
0.03
0.025
0.03
0.055
0.06
0.05
0.035
0.035
0.04
0.055
0.055
0.045
0.035
0.035
0.045
0.07
0.06
0.065
0.055
0.04
0.055
0.065
0.065
0.055
0.03
0.035
0.05
0.065
0.065
0.06
0.05
0.035
0.065
0.07
0.08
0.075
0.07
0.085
0.1
0.1
0.11
0.11
0.1
0.11
0.11
0.13
0.13
0.12
0.12
0.12
0.125
0.125
0.1
0.095
0.08
0.075
0.085
0.1
0.095
0.095
0.085
0.09
0.1
0.11
0.12
0.11
0.09
0.09
0.085
0.09
0.085
0.06
0.045
0.05
0.06
0.08
0.075
0.07
0.045
0.045
0.04
0.06
0.06
0.055
0.035
0.035
0.045
0.06
0.05
0.05
0.035
0.035
0.045
0.05
0.045
0.055
0.04
0.035
0.045
0.07
0.07
0.07
0.065
0.065
0.075
0.11
0.12
0.145
0.165
0.22
0.285
0.34
0.385
0.45
0.535
0.665
0.805
0.95
1.06
1.185
1.3
1.435
1.615
1.825
1.98
2.04
1.945
1.68
1.28
0.85
0.49
0.25
0.085
0.035
0.03
0.05
0.055
0.03
0.015
0.01
0.015
0.0
-0.005
-0.03
-0.05
-0.065
-0.045
-0.045
-0.04
-0.055
-0.065
-0.085
-0.065
-0.06
-0.065
-0.07
-0.08
-0.09
-0.07
-0.065
-0.065
-0.08
-0.09
-0.105
-0.085
-0.07
-0.075
-0.08
-0.095
-0.095
-0.09
-0.065
-0.08
-0.085
-0.105
-0.1
-0.1
-0.085
-0.08
-0.095
-0.115
-0.11
-0.105
-0.08
-0.09
-0.095
-0.1
-0.095
-0.09
-0.08
-0.095
-0.105
-0.12
-0.11
-0.085
-0.075
-0.07
-0.085
-0.105
-0.11
-0.085
-0.075
-0.065
-0.065
-0.09
-0.1
-0.09
-0.07
-0.065
-0.07
-0.085
-0.07
-0.05
-0.025
-0.025
-0.03
-0.03
-0.03
-0.015
0.0
0.005
0.01
0.005
0.01
0.03
0.06
0.065
0.075
0.085
0.09
0.125
0.15
0.155
0.16
0.16
0.17
0.195
0.205
0.22
0.225
0.22
0.225
0.23
0.245
0.245
0.225
0.215
0.21
0.205
0.215
0.205
0.18
0.155
0.145
0.155
0.15
0.155
0.125
0.105
0.095
0.085
0.11
0.095
0.09
0.08
0.07
0.085
0.08
0.075
0.06
0.055
0.07
0.065
0.09
0.085
0.06
0.06
0.04
0.055
0.08
0.065
0.055
0.05
0.055
0.045
0.06
0.065
0.05
0.035
0.03
0.035
0.06
0.045
0.045
0.025
0.015
0.03
0.04
0.045
0.035
0.03
0.02
0.035
0.04
0.045
0.045
0.02
0.02
0.04
0.055
0.055
0.04
0.035
0.02
0.05
0.055
0.045
0.045
0.035
0.04
0.035
0.055
0.05
0.045
0.03
0.025
0.045
0.055
0.05
0.03
0.02
0.025
0.02
0.05
0.045
0.035
0.015
0.0
0.015
0.035
0.03
0.03
0.02
0.01
0.025
0.03
0.025
0.03
0.01
0.005
0.015
0.035
0.04
0.02
0.01
0.015
0.015
0.035
0.035
0.015
0.0
0.0
0.0
0.025
0.015
0.02
-0.005
0.0
0.015
0.02
0.015
-0.01
-0.01
-0.005
0.005
0.015
0.02
-0.005
-0.01
-0.015
-0.005
0.01
0.01
0.01
0.0
0.0
0.01
0.01
-0.005
-0.005
-0.02
-0.02
-0.005
0.015
0.005
-0.01
-0.02
-0.02
-0.015
0.01
0.015
0.0
-0.015
-0.025
-0.02
0.005
0.005
-0.005
-0.01
-0.01
-0.005
0.005
0.01
0.005
-0.02
0.0
0.01
0.02
0.015
0.015
-0.01
0.0
0.005
0.015
0.015
0.01
-0.005
0.01
0.005
0.02
0.02
0.015
0.005
0.015
0.015
0.03
0.045
0.045
0.04
0.04
0.05
0.055
0.07
0.07
0.065
0.07
0.07
0.095
0.085
0.075
0.06
0.065
0.065
0.075
0.055
0.045
0.03
0.035
0.045
0.06
0.065
0.07
0.05
0.055
0.07
0.075
0.08
0.065
0.055
0.04
0.03
0.035
0.04
0.025
0.015
0.025
0.03
0.035
0.04
0.025
0.01
0.02
0.02
0.035
0.04
0.03
0.015
0.005
0.02
0.03
0.025
0.03
0.015
0.025
0.035
0.035
0.04
0.03
0.02
0.025
0.045
0.055
0.055
0.07
0.065
0.105
0.17
0.235
0.28
0.315
0.37
0.435
0.58
0.745
0.89
1.035
1.19
1.34
1.53
1.77
1.975
2.105
2.08
1.88
1.495
1.03
0.615
0.305
0.1
0.005
0.0
0.03
0.05
0.025
0.015
0.005
-0.005
-0.01
-0.02
-0.04
-0.075
-0.07
-0.07
-0.065
