Lead II
-0.135
-0.145
-0.155
-0.14
-0.145
-0.14
-0.15
-0.125
-0.12
-0.115
-0.125
-0.125
-0.13
-0.135
-0.14
-0.155
-0.16
-0.135
-0.145
-0.135
-0.12
-0.125
-0.13
-0.13
-0.13
-0.13
-0.15
-0.165
-0.155
-0.14
-0.135
-0.13
-0.125
-0.13
-0.125
-0.14
-0.14
-0.14
-0.145
-0.15
-0.15
-0.15
-0.135
-0.135
-0.12
-0.135
-0.125
-0.125
-0.125
-0.135
-0.14
-0.135
-0.145
-0.15
-0.16
-0.15
-0.13
-0.13
-0.105
-0.115
-0.11
-0.12
-0.13
-0.145
-0.145
-0.12
-0.12
-0.125
-0.12
-0.125
-0.125
-0.13
-0.135
-0.135
-0.13
-0.125
-0.12
-0.12
-0.125
-0.11
-0.12
-0.12
-0.125
-0.125
-0.125
-0.11
-0.115
-0.11
-0.105
-0.115
-0.105
-0.115
-0.13
-0.115
-0.12
-0.125
-0.13
-0.13
-0.135
-0.12
-0.13
-0.11
-0.11
-0.095
-0.09
-0.1
-0.1
-0.105
-0.11
-0.11
-0.125
-0.11
-0.11
-0.115
-0.1
-0.08
-0.07
-0.075
-0.085
-0.1
-0.12
-0.115
-0.11
-0.115
-0.105
-0.105
-0.11
-0.095
-0.095
-0.1
-0.09
-0.09
-0.09
-0.08
-0.08
-0.095
-0.11
-0.12
-0.1
-0.12
-0.11
-0.08
-0.07
-0.075
-0.075
-0.095
-0.09
-0.095
-0.09
-0.08
-0.09
-0.085
-0.095
-0.095
-0.09
-0.08
-0.085
-0.08
-0.085
-0.09
-0.085
-0.075
-0.08
-0.07
-0.06
-0.07
-0.07
-0.075
-0.085
-0.085
-0.09
-0.08
-0.08
-0.07
-0.075
-0.07
-0.07
-0.065
-0.065
-0.06
-0.065
-0.07
-0.095
-0.095
-0.075
-0.07
-0.07
-0.075
-0.085
-0.085
-0.075
-0.085
-0.08
-0.085
-0.09
-0.08
-0.09
-0.09
-0.1
-0.075
-0.065
-0.055
-0.045
-0.04
-0.05
-0.05
-0.05
-0.065
-0.065
-0.07
-0.075
-0.07
-0.065
-0.045
-0.05
-0.05
-0.05
-0.05
-0.055
-0.06
-0.045
-0.045
-0.04
-0.05
-0.04
-0.035
-0.035
-0.035
-0.035
-0.04
-0.045
-0.055
-0.06
-0.08
-0.065
-0.055
-0.04
-0.035
-0.035
-0.02
-0.015
-0.025
-0.055
-0.06
-0.085
-0.07
-0.06
-0.045
-0.035
-0.025
-0.03
-0.05
-0.055
-0.06
-0.065
-0.055
-0.045
-0.045
-0.04
-0.04
-0.05
-0.055
-0.045
-0.045
-0.04
-0.03
-0.035
-0.03
-0.035
-0.04
-0.04
-0.04
-0.035
-0.04
-0.025
-0.015
-0.015
-0.02
-0.03
-0.025
-0.02
-0.005
0.015
0.03
0.045
0.055
0.055
0.035
0.05
0.055
0.08
0.105
0.13
0.15
0.16
0.165
0.17
0.155
0.135
0.125
0.1
0.085
0.08
0.05
0.04
0.035
0.02
0.015
0.0
-0.015
-0.03
-0.03
-0.045
-0.055
-0.065
-0.065
-0.07
-0.065
-0.065
-0.07
-0.06
-0.06
-0.06
-0.055
-0.065
-0.05
-0.065
-0.075
-0.07
-0.08
-0.055
-0.05
-0.035
-0.04
-0.04
-0.075
-0.12
-0.175
-0.24
-0.28
-0.25
-0.115
0.13
0.485
0.89
1.295
1.63
1.825
1.785
1.495
0.995
0.455
0.015
-0.23
-0.32
-0.305
-0.245
-0.195
-0.165
-0.135
-0.16
-0.17
-0.18
-0.185
-0.165
-0.15
-0.125
-0.12
-0.115
-0.14
-0.13
-0.145
-0.155
-0.165
-0.17
-0.165
-0.165
-0.155
-0.145
-0.155
-0.135
-0.135
-0.135
-0.145
-0.145
-0.15
-0.15
-0.14
-0.145
-0.14
-0.135
-0.115
-0.13
-0.13
-0.125
-0.14
-0.125
-0.14
-0.145
-0.14
-0.13
-0.125
-0.115
-0.125
-0.105
-0.095
-0.095
-0.095
-0.1
-0.105
-0.115
-0.105
-0.115
-0.09
-0.095
-0.085
-0.075
-0.065
-0.075
-0.07
-0.075
-0.09
-0.09
-0.075
-0.065
-0.06
-0.055
-0.04
-0.035
-0.02
-0.02
-0.015
-0.01
-0.015
-0.015
-0.02
-0.015
-0.01
0.0
0.01
0.015
0.02
0.01
0.02
0.03
0.025
0.015
0.035
0.035
0.04
0.04
0.065
0.085
0.08
0.09
0.09
0.075
0.095
0.085
0.105
0.125
0.13
0.145
0.16
0.175
0.195
0.19
0.225
0.235
0.245
0.245
0.26
0.275
0.29
0.315
0.33
0.355
0.375
0.395
0.4
0.395
0.4
0.41
0.43
0.445
0.45
0.47
0.48
0.495
0.5
0.5
0.515
0.51
0.505
0.5
0.495
0.495
0.495
0.51
0.5
0.5
0.5
0.49
0.47
0.455
0.435
0.4
0.395
0.385
0.375
0.36
0.345
0.35
0.32
0.315
0.295
0.27
0.26
0.23
0.215
0.19
0.19
0.17
0.155
0.155
0.14
0.13
0.125
0.11
0.095
0.075
0.06
0.065
0.06
0.06
0.06
0.075
0.075
0.065
0.07
0.055
0.04
0.04
0.04
0.045
0.045
0.04
0.045
0.05
0.045
0.045
0.04
0.03
0.03
0.02
0.015
0.01
0.015
0.01
0.025
0.02
0.02
0.015
0.02
0.0
-0.005
-0.01
-0.02
-0.015
-0.01
-0.005
-0.005
0.005
0.01
0.01
0.01
0.005
0.01
0.015
0.01
0.02
0.03
0.03
0.045
0.04
0.07
0.07
0.075
0.09
0.11
0.105
0.11
0.1
0.09
0.08
0.085
0.075
0.075
0.055
0.045
0.02
0.0
-0.025
-0.06
-0.07
-0.085
-0.095
-0.1
-0.095
-0.1
-0.11
-0.11
-0.115
-0.13
-0.135
-0.14
-0.145
-0.16
-0.15
-0.155
-0.14
-0.13
-0.13
-0.14
-0.13
-0.14
-0.145
-0.15
-0.155
-0.15
-0.145
-0.14
-0.145
-0.14
-0.13
-0.135
-0.14
-0.145
-0.15
-0.155
-0.15
-0.15
-0.135
-0.14
-0.13
-0.135
-0.14
-0.14
-0.145
-0.16
-0.165
-0.165
-0.175
-0.17
-0.155
-0.16
-0.15
-0.13
-0.135
-0.14
-0.145
-0.15
-0.16
-0.165
-0.165
-0.165
-0.155
-0.145
-0.145
-0.145
-0.14
-0.15
-0.145
-0.165
-0.17
-0.17
-0.17
-0.16
-0.165
-0.155
-0.145
-0.145
-0.155
-0.14
-0.15
-0.16
-0.16
-0.165
-0.165
-0.165
-0.16
-0.165
-0.15
-0.145
-0.14
-0.15
-0.14
-0.155
-0.165
-0.17
-0.165
-0.155
-0.16
-0.145
-0.14
-0.13
-0.14
-0.14
-0.145
-0.15
-0.15
-0.15
-0.145
-0.14
-0.14
-0.14
-0.135
-0.13
-0.13
-0.13
-0.14
-0.145
-0.155
-0.145
-0.14
-0.14
-0.125
-0.125
-0.12
-0.12
-0.13
-0.13
-0.135
-0.135
-0.14
-0.135
-0.145
-0.13
-0.125
-0.135
-0.11
-0.115
-0.11
-0.115
-0.11
-0.12
-0.15
-0.145
-0.135
-0.125
-0.12
-0.115
-0.105
-0.1
-0.105
-0.105
-0.105
-0.115
-0.125
-0.13
-0.125
-0.115
-0.11
-0.1
-0.1
-0.105
-0.095
-0.095
-0.105
-0.105
-0.11
-0.12
-0.115
-0.105
-0.11
-0.105
-0.105
-0.115
-0.11
-0.09
-0.11
-0.11
-0.105
-0.11
-0.11
-0.11
-0.095
-0.115
-0.105
-0.09
-0.095
-0.095
-0.1
-0.1
-0.1
-0.11
-0.11
-0.105
-0.1
-0.1
-0.085
-0.08
-0.1
-0.09
-0.105
-0.095
-0.115
-0.105
-0.115
-0.1
-0.1
-0.095
-0.085
-0.09
-0.08
-0.085
-0.095
-0.1
-0.1
-0.105
-0.1
-0.1
-0.09
-0.085
-0.07
-0.085
-0.085
-0.085
-0.085
-0.09
-0.095
-0.1
-0.09
-0.09
-0.085
-0.08
-0.07
-0.06
-0.07
-0.065
-0.075
-0.08
-0.08
-0.085
-0.09
-0.08
-0.095
-0.095
-0.075
-0.075
-0.075
-0.065
-0.075
-0.075
-0.075
-0.09
-0.085
-0.075
-0.075
-0.08
-0.055
-0.06
-0.065
-0.075
-0.08
-0.08
-0.065
-0.075
-0.075
-0.05
-0.045
-0.03
-0.015
0.01
-0.005
0.0
0.015
0.015
0.02
0.025
0.04
0.075
0.11
0.125
0.135
0.135
0.14
0.135
0.11
0.095
0.085
0.07
0.065
0.055
0.045
0.03
0.03
0.015
-0.01
-0.045
-0.055
-0.065
-0.075
-0.08
-0.09
-0.08
-0.075
-0.07
-0.07
-0.075
-0.075
-0.08
-0.085
-0.09
-0.095
-0.095
-0.085
-0.085
-0.085
-0.09
-0.07
-0.07
-0.06
-0.07
-0.065
-0.07
-0.1
-0.115
-0.13
-0.19
-0.25
-0.305
-0.33
-0.29
-0.165
0.09
0.43
0.81
1.205
1.555
1.815
1.905
1.775
1.435
0.98
0.53
0.21
0.03
-0.025
-0.005
0.035
0.07
0.075
0.055
0.005
-0.06
-0.095
-0.13
-0.12
-0.125
-0.125
-0.14
-0.145
-0.16
-0.17
-0.18
-0.18
-0.185
-0.17
-0.18
-0.185
-0.19
-0.195
-0.195
-0.205
-0.205
-0.205
-0.2
-0.195
-0.195
-0.19
-0.195
-0.195
-0.18
-0.18
-0.185
-0.18
-0.19
-0.19
-0.19
-0.19
-0.18
-0.17
-0.175
-0.17
-0.175
-0.19
-0.18
-0.185
-0.175
-0.175
-0.175
-0.165
-0.16
-0.165
-0.175
-0.16
-0.15
-0.15
-0.165
-0.155
-0.15
-0.145
-0.135
-0.135
-0.125
-0.11
-0.095
-0.11
-0.105
-0.11
-0.115
-0.125
-0.13
-0.125
-0.105
-0.095
-0.075
-0.065
-0.06
-0.055
-0.05
-0.06
-0.055
-0.055
-0.05
-0.05
-0.035
-0.01
-0.02
0.015
0.015
0.0
0.01
0.01
0.0
0.0
0.005
0.02
0.03
0.035
0.055
0.08
0.085
0.09
0.1
0.11
0.105
0.095
0.1
0.095
0.13
0.14
0.17
0.2
0.205
0.21
0.225
0.24
0.24
0.25
0.265
0.27
0.285
0.31
0.33
0.34
0.35
0.36
0.355
0.365
0.38
0.375
0.385
0.395
0.41
0.415
0.425
0.42
0.425
0.42
0.405
0.4
0.39
0.38
0.36
0.345
0.35
0.345
0.34
0.335
0.325
0.305
0.29
0.265
0.25
0.235
0.22
0.205
0.195
0.19
0.18
0.165
0.155
0.13
0.115
0.09
0.09
0.085
0.08
0.085
0.085
0.075
0.08
0.075
0.065
0.04
0.025
0.01
0.025
0.01
0.0
0.01
0.02
0.025
0.025
0.025
0.02
0.005
0.005
0.0
-0.01
-0.015
-0.01
-0.015
-0.01
-0.01
-0.005
-0.01
-0.005
-0.02
-0.015
-0.02
-0.02
-0.02
-0.025
-0.025
-0.015
-0.005
-0.005
0.0
-0.02
-0.02
-0.035
-0.055
-0.06
-0.075
-0.075
-0.08
-0.075
-0.055
-0.03
-0.02
-0.015
-0.005
-0.01
-0.01
-0.02
-0.02
-0.025
-0.015
-0.01
0.01
0.015
0.025
0.02
0.03
0.04
0.065
0.08
0.09
0.1
0.1
0.095
0.105
0.09
0.08
0.06
0.04
0.035
0.02
-0.005
-0.025
-0.055
-0.065
-0.08
-0.095
-0.1
-0.11
-0.115
-0.125
-0.115
-0.125
-0.12
-0.125
-0.13
-0.14
-0.135
-0.15
-0.17
-0.155
-0.16
-0.16
-0.165
-0.16
-0.165
-0.165
-0.16
-0.155
-0.16
-0.155
-0.165
-0.145
-0.135
-0.135
-0.14
-0.14
-0.155
-0.175
-0.19
-0.195
-0.195
-0.185
-0.165
-0.145
-0.15
-0.14
-0.125
-0.14
-0.15
-0.15
-0.17
-0.165
-0.175
-0.17
-0.165
-0.145
-0.145
-0.15
-0.15
-0.165
-0.18
-0.18
-0.185
-0.175
-0.16
-0.15
-0.145
-0.14
-0.15
-0.15
-0.16
-0.175
-0.175
-0.165
-0.175
-0.175
-0.175
-0.165
-0.17
-0.145
-0.15
-0.155
-0.155
-0.16
-0.16
-0.165
-0.16
-0.17
-0.17
-0.155
-0.15
-0.145
-0.135
-0.135
-0.14
-0.15
-0.17
-0.18
-0.2
-0.18
-0.16
-0.14
-0.135
-0.135
-0.15
-0.14
-0.14
-0.15
-0.155
-0.17
-0.16
-0.155
-0.17
-0.165
-0.16
-0.15
-0.145
-0.14
-0.135
-0.15
-0.16
-0.155
-0.165
-0.16
-0.16
-0.15
-0.145
-0.145
-0.145
-0.14
-0.13
-0.135
-0.135
-0.135
-0.13
-0.135
-0.135
-0.12
-0.12
-0.115
-0.125
-0.115
-0.115
-0.125
-0.12
-0.12
-0.13
-0.125
-0.125
-0.13
-0.135
-0.12
-0.115
-0.115
-0.125
-0.13
-0.12
-0.125
-0.115
-0.115
-0.105
-0.095
-0.1
-0.095
-0.1
-0.105
-0.12
-0.125
-0.125
-0.115
-0.12
-0.125
-0.105
-0.095
-0.09
-0.09
-0.09
-0.1
-0.09
-0.125
-0.105
-0.115
-0.12
-0.115
-0.12
-0.115
-0.11
-0.095
-0.1
-0.09
-0.085
-0.085
-0.1
-0.085
-0.09
-0.09
-0.095
-0.095
-0.09
-0.09
-0.08
-0.09
-0.075
-0.095
-0.095
-0.105
-0.12
-0.11
-0.12
-0.105
-0.1
-0.09
-0.08
-0.085
-0.08
-0.09
-0.1
-0.11
-0.11
-0.11
-0.105
-0.105
-0.1
-0.09
-0.09
-0.09
-0.075
-0.085
-0.11
-0.11
-0.115
-0.105
-0.095
-0.095
-0.08
-0.075
-0.07
-0.065
-0.08
-0.08
-0.09
-0.095
-0.1
-0.095
-0.105
-0.095
-0.09
-0.075
-0.065
-0.08
-0.085
-0.085
-0.09
-0.09
-0.105
-0.095
-0.095
-0.1
-0.095
-0.075
-0.085
-0.07
-0.08
-0.085
-0.08
-0.09
-0.095
-0.085
-0.08
-0.085
-0.08
-0.075
-0.065
-0.07
-0.065
-0.065
-0.075
-0.08
-0.085
-0.07
-0.075
-0.07
-0.055
-0.055
-0.035
-0.04
-0.035
-0.035
-0.03
-0.035
-0.035
-0.03
-0.01
0.0
0.01
0.02
0.015
0.04
0.045
0.08
0.09
0.105
0.115
0.13
0.12
0.12
0.11
0.12
0.11
0.1
0.085
0.06
0.045
0.015
0.005
-0.015
-0.04
-0.04
-0.055
-0.055
-0.07
-0.075
-0.08
-0.085
-0.085
-0.1
-0.11
-0.1
-0.105
-0.1
-0.09
-0.085
-0.085
-0.08
-0.09
-0.095
-0.1
-0.095
-0.125
-0.105
-0.09
-0.095
-0.11
-0.115
-0.155
-0.205
-0.29
-0.34
-0.31
-0.2
0.04
0.41
0.835
1.265
1.61
1.815
1.76
1.45
0.965
0.46
0.1
-0.115
-0.19
-0.175
-0.135
-0.09
-0.07
-0.075
-0.095
-0.14
-0.155
-0.16
-0.17
-0.175
-0.18
-0.175
-0.185
-0.19
-0.185
-0.18
-0.18
-0.205
-0.19
-0.195
-0.21
-0.21
-0.21
-0.215
-0.21
-0.2
-0.19
-0.19
-0.19
-0.19
-0.195
-0.195
-0.2
-0.2
-0.21
-0.215
-0.2
-0.19
-0.185
-0.175
-0.18
-0.18
-0.18
-0.19
-0.185
-0.195
-0.2
-0.195
-0.19
-0.185
-0.185
-0.18
-0.17
-0.17
-0.165
-0.18
-0.17
-0.175
-0.175
-0.165
-0.16
-0.155
-0.145
-0.145
-0.125
-0.13
-0.13
-0.13
-0.13
-0.14
-0.14
-0.125
-0.125
-0.13
-0.115
-0.105
-0.09
-0.09
-0.08
-0.095
-0.1
-0.095
-0.1
-0.09
-0.08
-0.065
-0.055
-0.055
-0.05
-0.05
-0.035
-0.035
-0.05
-0.04
-0.045
-0.03
-0.02
-0.01
0.0
0.015
0.03
0.03
0.04
0.04
0.055
0.05
0.065
0.075
0.09
0.105
0.125
0.15
0.165
0.175
0.18
0.2
0.205
0.215
0.225
0.245
0.27
0.285
0.285
0.31
0.33
0.34
0.355
0.355
0.355
0.375
0.365
0.385
0.39
0.4
0.41
0.43
0.44
0.445
0.44
0.43
0.425
0.41
0.41
0.4
0.395
0.39
0.385
0.385
0.365
0.36
0.35
0.33
0.31
0.285
0.26
0.245
0.235
0.215
0.215
0.2
0.18
0.17
0.15
0.125
0.12
0.095
0.07
0.06
0.065
0.055
0.06
0.065
0.05
0.04
0.035
0.025
0.02
0.0
0.0
0.005
0.0
0.005
0.0
-0.005
-0.005
-0.005
-0.005
-0.02
-0.015
-0.03
-0.035
-0.04
-0.035
-0.01
-0.01
-0.01
-0.01
-0.025
-0.02
-0.03
-0.04
-0.04
-0.05
-0.055
-0.045
-0.055
-0.05
-0.04
-0.035
-0.035
-0.025
-0.05
-0.055
-0.06
-0.07
-0.065
-0.06
-0.055
-0.045
-0.03
-0.015
-0.005
-0.005
-0.015
-0.015
-0.01
-0.02
-0.005
0.01
0.035
0.07
0.075
0.09
0.08
0.07
0.06
0.045
0.02
0.005
0.0
-0.02
-0.015
-0.03
-0.045
-0.065
-0.105
-0.125
-0.135
-0.155
-0.17
-0.175
-0.185
-0.18
-0.17
-0.17
-0.16
-0.16
-0.175
-0.185
-0.2
-0.205
-0.21
-0.21
-0.215
-0.215
-0.22
-0.2
-0.195
-0.2
-0.2
-0.205
-0.21
-0.205
-0.22
-0.215
-0.21
-0.215
-0.205
-0.195
-0.19
-0.2
-0.2
-0.195
-0.205
-0.215
-0.22
-0.215
-0.215
-0.215
-0.22
-0.215
-0.2
-0.195
-0.205
-0.2
-0.2
-0.215
-0.215
-0.22
-0.22
-0.215
-0.205
-0.2
-0.195
-0.2
-0.21
-0.195
-0.205
-0.205
-0.22
-0.23
-0.225
-0.235
-0.23
-0.22
-0.215
-0.195
-0.195
-0.195
-0.195
-0.21
-0.215
-0.215
-0.22
-0.215
-0.21
-0.2
-0.19
-0.195
-0.195
-0.205
-0.2
-0.2
-0.205
-0.225
-0.22
-0.21
-0.205
-0.195
-0.18
-0.175
-0.185
-0.185
-0.19
-0.185
-0.185
-0.2
-0.2
-0.21
-0.205
-0.19
-0.2
-0.18
-0.18
-0.195
-0.2
-0.19
-0.2
-0.21
-0.205
-0.2
-0.19
-0.19
-0.19
-0.18
-0.18
-0.185
-0.19
-0.185
-0.185
-0.195
-0.195
-0.19
-0.185
-0.18
-0.18
-0.165
-0.175
-0.18
-0.185
-0.18
-0.19
-0.195
-0.19
-0.195
-0.185
-0.175
-0.17
-0.15
-0.175
-0.17
-0.19
-0.19
-0.19
-0.185
-0.185
-0.185
-0.18
-0.17
-0.17
-0.17
-0.16
-0.165
-0.16
-0.16
-0.16
-0.17
-0.17
-0.165
-0.17
-0.155
-0.16
-0.16
-0.16
-0.15
-0.16
-0.165
-0.175
-0.185
-0.19
-0.185
-0.18
-0.17
-0.155
-0.14
-0.14
-0.13
-0.14
-0.145
-0.15
-0.17
-0.17
-0.17
-0.165
-0.155
-0.145
-0.145
-0.155
-0.16
-0.16
-0.165
-0.18
-0.18
-0.165
-0.155
-0.155
-0.15
-0.145
-0.135
-0.14
-0.14
-0.14
-0.145
-0.15
-0.155
-0.155
-0.145
-0.14
-0.14
-0.135
-0.135
-0.14
-0.14
-0.14
-0.15
-0.15
-0.15
-0.15
-0.16
-0.155
-0.155
-0.145
-0.14
-0.135
-0.13
-0.135
-0.14
-0.135
-0.15
-0.155
-0.15
-0.14
-0.135
-0.13
-0.125
-0.145
-0.135
-0.14
-0.14
-0.145
-0.155
-0.16
-0.155
-0.14
-0.13
-0.135
-0.135
-0.13
-0.13
-0.135
-0.125
-0.13
-0.125
-0.11
-0.12
-0.105
-0.105
-0.12
-0.125
-0.115
-0.09
-0.085
-0.085
-0.085
-0.09
-0.085
-0.09
-0.08
-0.06
-0.055
-0.045
-0.045
-0.025
-0.015
-0.005
0.005
0.02
0.035
0.04
0.065
0.075
0.055
0.055
0.04
0.035
0.015
0.0
0.0
-0.015
-0.02
-0.045
-0.05
-0.075
-0.1
-0.135
-0.135
-0.16
-0.16
-0.16
-0.165
-0.15
-0.165
-0.16
-0.16
-0.17
-0.16
-0.145
-0.155
-0.16
-0.16
-0.17
-0.17
-0.18
-0.18
-0.185
-0.175
-0.18
-0.17
-0.145
-0.135
-0.135
-0.15
-0.19
-0.235
-0.305
-0.365
-0.405
-0.39
-0.285
-0.055
0.275
0.66
1.055
1.41
1.685
1.79
1.71
1.41
0.94
0.45
0.06
-0.155
-0.24
-0.24
-0.205
-0.17
-0.175
-0.175
-0.195
-0.225
-0.235
-0.24
-0.24
-0.215
-0.21
-0.195
-0.195
-0.21
-0.22
-0.245
-0.255
-0.255
-0.265
-0.26
-0.25
-0.235
-0.225
-0.215
-0.23
-0.24
-0.245
-0.26
-0.26
-0.26
-0.265
-0.26
-0.25
-0.245
-0.235
-0.225
-0.225
-0.235
-0.235
-0.245
-0.26
-0.265
-0.255
-0.24
-0.235
-0.22
-0.205
-0.205
-0.21
-0.23
-0.235
-0.25
-0.25
-0.245
-0.24
-0.22
-0.205
-0.195
-0.18
-0.17
-0.18
-0.2
-0.195
-0.2
-0.2
-0.2
-0.195
-0.175
-0.165
-0.165
-0.16
-0.17
-0.175
-0.16
-0.16
-0.15
-0.155
-0.155
-0.15
-0.13
-0.12
-0.12
-0.105
-0.105
-0.095
-0.105
-0.105
-0.125
-0.14
-0.13
-0.12
-0.1
-0.08
-0.065
-0.045
-0.04
-0.035
-0.03
-0.035
-0.04
-0.045
-0.045
-0.035
-0.02
-0.015
-0.005
0.0
-0.005
0.005
0.005
0.015
0.015
0.035
0.055
0.07
0.075
0.09
0.085
0.1
0.12
0.135
0.155
0.16
0.175
0.18
0.195
0.205
0.225
0.235
0.255
0.27
0.295
0.31
0.325
0.335
0.345
0.34
0.35
0.345
0.35
0.365
0.38
0.39
0.385
0.41
0.405
0.405
0.41
0.4
0.39
0.37
0.375
0.37
0.365
0.365
0.35
0.345
0.335
0.325
0.295
0.29
0.255
0.24
0.225
0.205
0.195
0.175
0.18
0.16
0.145
0.12
0.08
0.05
0.025
0.01
0.02
0.02
0.015
0.02
0.025
0.015
-0.01
-0.035
-0.05
-0.05
-0.055
-0.055
-0.045
-0.04
-0.035
-0.025
-0.025
-0.04
-0.045
-0.055
-0.06
-0.065
-0.065
-0.055
-0.06
-0.06
-0.06
-0.055
-0.06
-0.06
-0.05
-0.06
-0.065
-0.075
-0.08
-0.08
-0.07
-0.06
-0.035
-0.02
-0.015
-0.015
-0.035
-0.025
-0.02
-0.015
-0.02
-0.005
0.015
0.045
0.075
0.095
0.085
0.075
0.055
0.035
0.025
0.01
0.005
0.0
-0.01
-0.03
-0.045
-0.06
-0.08
-0.12
-0.14
-0.17
-0.17
-0.19
-0.19
-0.195
-0.19
-0.185
-0.195
-0.19
-0.2
-0.21
-0.21
-0.215
-0.23
-0.24
-0.235
-0.225
-0.23
-0.225
-0.215
-0.215
-0.21
-0.21
-0.215
-0.235
-0.235
-0.23
-0.225
-0.235
-0.22
-0.235
-0.23
-0.225
-0.225
-0.22
-0.22
-0.23
-0.245
-0.245
-0.245
-0.245
-0.24
-0.235
-0.235
-0.225
-0.225
-0.23
-0.235
-0.235
-0.255
-0.255
-0.255
-0.25
-0.245
-0.26
-0.255
-0.235
-0.23
-0.23
-0.235
-0.24
-0.25
-0.25
-0.255
-0.265
-0.255
-0.245
-0.245
-0.235
-0.24
-0.24
-0.25
-0.255
-0.265
-0.265
-0.27
-0.275
-0.265
-0.26
-0.26
-0.24
-0.24
-0.25
-0.245
-0.265
-0.26
-0.265
-0.27
-0.275
-0.265
-0.245
-0.25
-0.24
-0.24
-0.24
-0.25
-0.25
-0.255
-0.26
-0.26
-0.265
-0.25
-0.245
-0.23
-0.225
-0.24
-0.245
-0.255
-0.25
-0.26
-0.26
-0.255
-0.26
-0.26
-0.255
-0.24
-0.23
-0.24
-0.235
-0.235
-0.245
-0.24
-0.245
-0.245
-0.24
-0.25
-0.235
-0.225
-0.225
-0.23
-0.22
-0.235
-0.235
-0.245
-0.25
-0.25
-0.245
-0.23
-0.23
-0.225
-0.225
-0.23
-0.225
-0.22
-0.235
-0.24
-0.24
-0.245
-0.245
-0.24
-0.235
-0.23
-0.22
-0.225
-0.22
-0.23
-0.225
-0.225
-0.235
-0.23
-0.235
-0.23
-0.225
-0.225
-0.225
-0.215
-0.21
-0.22
-0.225
-0.22
-0.23
-0.235
-0.22
-0.22
-0.22
-0.21
-0.215
-0.205
-0.195
-0.195
-0.205
-0.215
-0.23
-0.225
-0.225
-0.22
-0.22
-0.21
-0.2
-0.2
-0.2
-0.205
-0.205
-0.22
-0.22
-0.22
-0.22
-0.215
-0.21
-0.2
-0.195
-0.2
-0.195
-0.21
-0.205
-0.205
-0.22
-0.23
-0.23
-0.225
-0.23
-0.215
-0.2
-0.215
-0.205
-0.215
-0.225
-0.21
-0.215
-0.21
-0.2
-0.2
-0.205
-0.18
-0.185
-0.19
-0.19
-0.2
-0.21
-0.205
-0.215
-0.215
-0.21
-0.215
-0.2
-0.19
-0.18
-0.19
-0.195
-0.2
-0.195
-0.2
-0.205
-0.205
-0.205
-0.195
-0.2
-0.185
-0.185
-0.175
-0.165
-0.175
-0.2
-0.19
-0.185
-0.185
-0.17
-0.16
-0.15
-0.13
-0.11
-0.105
-0.12
-0.11
-0.11
-0.095
-0.09
-0.065
-0.035
0.0
0.015
0.035
0.04
0.03
0.015
0.005
-0.02
-0.03
-0.05
-0.065
-0.07
-0.08
-0.105
-0.11
-0.11
-0.125
-0.145
-0.17
-0.175
-0.19
-0.2
-0.2
-0.215
-0.215
-0.205
-0.215
-0.2
-0.195
-0.2
-0.21
-0.21
-0.21
-0.215
-0.215
-0.215
-0.215
-0.205
-0.195
-0.195
-0.195
-0.2
-0.2
-0.215
-0.215
-0.255
-0.295
-0.355
-0.41
-0.455
-0.445
-0.32
-0.105
0.205
0.585
0.97
1.33
1.61
1.735
1.665
1.385
0.965
0.5
0.145
-0.07
-0.16
-0.165
-0.13
-0.115
-0.11
-0.125
-0.155
-0.185
-0.24
-0.255
-0.26
-0.26
-0.245
-0.245
-0.265
-0.27
-0.295
-0.305
-0.31
-0.31
-0.295
-0.3
-0.29
-0.295
-0.275
-0.285
-0.3
-0.29
-0.305
-0.31
-0.305
-0.3
-0.29
-0.29
-0.285
-0.285
-0.28
-0.275
-0.28
-0.31
-0.295
-0.295
-0.295
-0.28
-0.27
-0.265
-0.265
-0.255
-0.265
-0.27
-0.285
-0.27
-0.28
-0.285
-0.28
-0.275
-0.275
-0.26
-0.25
-0.245
-0.23
-0.24
-0.24
-0.245
-0.255
-0.25
-0.235
-0.225
-0.225
-0.22
-0.21
-0.2
-0.2
-0.195
-0.205
-0.205
-0.2
-0.195
-0.2
-0.185
-0.175
-0.165
-0.155
-0.15
-0.15
-0.14
-0.14
-0.14
-0.14
-0.135
-0.125
-0.12
-0.11
-0.1
-0.09
-0.085
-0.075
-0.075
-0.075
-0.075
-0.08
-0.07
-0.055
-0.055
-0.04
-0.025
-0.01
0.0
0.005
0.015
0.03
0.03
0.03
0.04
0.055
0.075
0.1
0.1
0.125
0.135
0.15
0.165
0.17
0.18
0.175
0.2
0.21
0.215
0.235
0.24
0.27
0.275
0.28
0.285
0.28
0.285
0.28
0.275
0.28
0.28
0.29
0.29
0.295
0.29
0.275
0.265
0.25
0.24
0.23
0.23
0.21
0.21
0.2
0.19
0.195
0.17
0.16
0.14
0.13
0.1
0.07
0.065
0.065
0.045
0.04
0.035
0.02
0.02
0.005
0.0
-0.015
-0.03
-0.045
-0.055
-0.055
-0.05
-0.06
-0.065
-0.065
-0.06
-0.06
-0.065
-0.07
-0.08
-0.075
-0.1
-0.085
-0.08
-0.08
-0.08
-0.065
-0.08
-0.075
-0.085
-0.085
-0.105
-0.125
-0.125
-0.1
-0.11
-0.1
-0.095
-0.09
-0.095
-0.1
-0.105
-0.105
-0.12
-0.135
-0.135
-0.13
-0.135
-0.115
-0.115
-0.1
-0.11
-0.1
-0.1
-0.1
-0.1
-0.105
-0.105
-0.085
-0.08
-0.07
-0.06
-0.045
-0.035
-0.025
-0.02
-0.01
0.0
0.015
0.005
-0.005
0.005
0.005
-0.01
-0.02
-0.04
-0.045
-0.07
-0.07
-0.095
-0.115
-0.135
-0.16
-0.175
-0.2
-0.19
-0.2
-0.215
-0.22
-0.23
-0.225
-0.235
-0.245
-0.24
-0.245
-0.25
-0.245
-0.245
-0.235
-0.245
-0.25
-0.255
-0.27
-0.27
-0.295
-0.275
-0.265
-0.26
-0.25
-0.25
-0.245
-0.26
-0.25
-0.25
-0.25
-0.26
-0.26
-0.27
-0.265
-0.265
-0.27
-0.265
-0.25
-0.255
-0.26
-0.255
-0.255
-0.275
-0.275
-0.285
-0.275
-0.265
-0.26
-0.26
-0.25
-0.25
-0.245
-0.25
-0.255
-0.26
-0.265
-0.265
-0.27
-0.255
-0.265
-0.255
-0.25
-0.25
-0.245
-0.245
-0.26
-0.255
-0.265
-0.265
-0.265
-0.27
-0.265
-0.245
-0.23
-0.25
-0.245
-0.255
-0.26
-0.265
-0.28
-0.275
-0.275
-0.27
-0.27
-0.27
-0.26
-0.26
-0.235
-0.245
-0.26
-0.255
-0.265
-0.265
-0.265
-0.25
-0.25
-0.25
-0.255
-0.24
-0.24
-0.23
-0.245
-0.255
-0.25
-0.255
-0.26
-0.26
-0.26
-0.245
-0.22
-0.23
-0.23
-0.24
-0.24
-0.24
-0.245
-0.245
-0.25
-0.245
-0.235
-0.225
-0.22
-0.22
-0.225
-0.22
-0.23
-0.24
-0.24
-0.24
-0.245
-0.24
-0.235
-0.235
-0.21
-0.225
-0.23
-0.24
-0.23
-0.245
-0.245
-0.24
-0.24
-0.24
-0.22
-0.215
-0.21
-0.205
-0.215
-0.215
-0.21
-0.215
-0.225
-0.235
-0.225
-0.21
-0.22
-0.21
-0.21
-0.205
-0.2
-0.21
-0.22
-0.215
-0.22
-0.23
-0.235
-0.23
-0.22
-0.21
-0.21
-0.215
-0.215
-0.21
-0.215
-0.215
-0.205
-0.205
-0.205
-0.195
-0.19
-0.19
-0.185
-0.19
-0.18
-0.185
-0.195
-0.2
-0.215
-0.21
-0.2
-0.205
-0.195
-0.185
-0.185
-0.18
-0.175
-0.18
-0.175
-0.185
-0.205
-0.205
-0.205
-0.205
-0.19
-0.19
-0.19
-0.185
-0.19
-0.19
-0.195
-0.195
-0.195
-0.2
-0.19
-0.2
-0.18
-0.175
-0.17
-0.18
-0.195
-0.19
-0.18
-0.19
-0.19
-0.195
-0.2
-0.195
-0.195
-0.19
-0.185
-0.175
-0.175
-0.175
-0.185
-0.185
-0.19
-0.195
-0.185
-0.175
-0.17
-0.165
-0.175
-0.17
-0.16
-0.17
-0.175
-0.185
-0.195
-0.2
-0.205
-0.195
-0.185
-0.185
-0.18
-0.17
-0.17
-0.17
-0.175
-0.17
-0.18
-0.18
-0.175
-0.165
-0.15
-0.145
-0.14
-0.145
-0.145
-0.145
-0.155
-0.16
-0.14
-0.125
-0.12
-0.105
-0.09
-0.07
-0.07
-0.055
-0.03
-0.01
-0.015
0.0
0.0
0.025
0.02
0.02
0.035
0.025
0.02
0.01
-0.005
-0.02
-0.04
-0.055
-0.09
-0.1
-0.11
-0.135
-0.14
-0.15
-0.155
-0.165
-0.16
-0.175
-0.165
-0.17
-0.165
-0.175
-0.185
-0.195
-0.19
-0.19
-0.185
-0.185
-0.18
-0.175
-0.18
-0.18
-0.185
-0.19
-0.18
-0.18
-0.17
-0.185
-0.2
-0.25
-0.305
-0.375
-0.405
-0.4
-0.29
-0.075
0.225
0.6
1.015
1.385
1.68
1.785
1.66
1.28
0.76
0.255
-0.12
-0.3
-0.35
-0.305
-0.255
-0.185
-0.17
-0.175
-0.205
-0.235
-0.245
-0.25
-0.23
-0.22
-0.205
-0.22
-0.225
-0.24
-0.25
-0.26
-0.255
-0.265
-0.275
-0.285
-0.285
-0.275
-0.28
-0.28
-0.29
-0.29
-0.275
-0.28
-0.265
-0.25
-0.245
-0.24
-0.255
-0.25
-0.25
-0.27
-0.27
-0.255
-0.26
-0.26
-0.24
-0.245
-0.245
-0.26
-0.265
-0.27
-0.265
-0.255
-0.255
-0.245
-0.23
-0.23
-0.25
-0.235
-0.235
-0.225
-0.23
-0.22
-0.215
-0.22
-0.205
-0.205
-0.19
-0.195
-0.215
-0.21
-0.22
-0.21
-0.21
-0.215
-0.21
-0.205
-0.185
-0.17
-0.16
-0.15
-0.155
-0.165
-0.155
-0.15
-0.14
-0.16
-0.15
-0.14
-0.125
-0.125
-0.125
-0.12
-0.11
-0.12
-0.105
-0.095
-0.115
-0.11
-0.1
-0.085
-0.075
-0.07
-0.04
-0.025
-0.01
-0.015
0.005
0.005
-0.015
-0.03
-0.025
-0.01
0.01
0.02
0.035
0.055
0.06
0.075
0.09
0.095
0.1
0.11
0.13
0.145
0.165
0.185
0.2
0.21
0.215
0.22
0.225
0.23
0.25
0.26
0.275
0.275
0.315
0.34
0.365
0.37
0.375
0.37
0.365
0.365
0.365
0.365
0.365
0.37
0.37
0.36
0.355
0.35
0.355
0.355
0.36
0.375
0.355
0.35
0.34
0.32
0.305
0.28
0.285
0.265
0.26
0.235
0.21
0.175
0.165
0.135
0.115
0.105
0.09
0.065
0.07
0.06
0.05
0.035
0.035
0.005
-0.01
-0.03
-0.05
-0.045
-0.05
-0.065
-0.065
-0.075
-0.065
-0.065
-0.07
-0.08
-0.085
-0.09
-0.1
-0.105
-0.085
-0.095
-0.095
-0.09
-0.105
-0.125
-0.12
-0.115
-0.11
-0.105
-0.1
-0.1
-0.105
-0.105
-0.11
-0.105
-0.1
-0.1
-0.11
-0.125
-0.125
-0.12
-0.125
-0.11
-0.09
-0.075
-0.05
-0.04
-0.035
-0.035
-0.04
-0.045
-0.03
-0.015
-0.01
0.005
0.02
0.035
0.03
0.02
-0.01
-0.03
-0.055
-0.07
-0.09
-0.11
-0.15
-0.16
-0.145
-0.16
-0.185
-0.205
-0.215
-0.22
-0.24
-0.245
-0.25
-0.255
-0.26
-0.255
-0.265
-0.26
-0.26
-0.255
-0.26
-0.26
-0.265
-0.27
-0.285
-0.285
-0.285
-0.29
-0.275
-0.26
-0.265
-0.265
-0.265
