Lead II
-0.855
-0.88
-0.88
-0.89
-0.9
-0.9
-0.91
-0.9
-0.885
-0.885
-0.875
-0.865
-0.865
-0.88
-0.89
-0.89
-0.895
-0.915
-0.92
-0.92
-0.935
-0.925
-0.925
-0.92
-0.91
-0.93
-0.925
-0.95
-0.95
-0.95
-0.96
-0.96
-0.945
-0.945
-0.945
-0.945
-0.945
-0.945
-0.955
-0.97
-0.98
-1.0
-0.97
-0.955
-0.95
-0.95
-0.945
-0.94
-0.955
-0.95
-0.96
-0.955
-0.965
-0.945
-0.94
-0.915
-0.9
-0.87
-0.855
-0.835
-0.83
-0.815
-0.81
-0.795
-0.775
-0.745
-0.735
-0.71
-0.69
-0.66
-0.645
-0.63
-0.6
-0.59
-0.585
-0.585
-0.585
-0.595
-0.6
-0.585
-0.585
-0.58
-0.575
-0.57
-0.57
-0.585
-0.6
-0.61
-0.62
-0.64
-0.645
-0.64
-0.635
-0.635
-0.625
-0.63
-0.645
-0.63
-0.64
-0.645
-0.655
-0.66
-0.655
-0.66
-0.675
-0.665
-0.665
-0.655
-0.645
-0.65
-0.65
-0.685
-0.69
-0.69
-0.7
-0.67
-0.695
-0.685
-0.675
-0.67
-0.665
-0.665
-0.66
-0.67
-0.685
-0.685
-0.695
-0.69
-0.685
-0.675
-0.68
-0.67
-0.665
-0.67
-0.68
-0.68
-0.675
-0.69
-0.675
-0.68
-0.66
-0.64
-0.635
-0.625
-0.62
-0.62
-0.615
-0.615
-0.61
-0.615
-0.605
-0.605
-0.605
-0.59
-0.58
-0.57
-0.565
-0.56
-0.58
-0.595
-0.62
-0.63
-0.63
-0.64
-0.65
-0.65
-0.655
-0.675
-0.68
-0.695
-0.705
-0.725
-0.75
-0.75
-0.755
-0.75
-0.75
-0.745
-0.745
-0.75
-0.765
-0.765
-0.77
-0.765
-0.77
-0.77
-0.765
-0.755
-0.75
-0.755
-0.76
-0.76
-0.75
-0.755
-0.765
-0.77
-0.775
-0.745
-0.705
-0.645
-0.55
-0.445
-0.325
-0.205
-0.08
-0.01
0.04
0.025
-0.035
-0.16
-0.3
-0.44
-0.585
-0.75
-0.91
-1.06
-1.16
-1.195
-1.185
-1.15
-1.115
-1.09
-1.065
-1.03
-0.995
-0.975
-0.94
-0.905
-0.89
-0.87
-0.88
-0.875
-0.875
-0.875
-0.875
-0.89
-0.89
-0.9
-0.895
-0.89
-0.89
-0.895
-0.9
-0.905
-0.915
-0.93
-0.935
-0.93
-0.93
-0.93
-0.93
-0.92
-0.905
-0.905
-0.9
-0.91
-0.925
-0.94
-0.95
-0.965
-0.965
-0.96
-0.955
-0.955
-0.95
-0.96
-0.96
-0.97
-0.975
-0.985
-0.99
-0.995
-1.005
-0.99
-0.985
-0.975
-0.965
-0.96
-0.955
-0.985
-0.995
-1.025
-1.045
-1.06
-1.065
-1.06
-1.055
-1.05
-1.04
-1.05
-1.045
-1.045
-1.045
-1.06
-1.04
-1.03
-1.035
-1.02
-1.005
-0.995
-0.995
-0.99
-0.98
-0.98
-0.97
-0.965
-0.955
-0.94
-0.92
-0.895
-0.865
-0.84
-0.82
-0.8
-0.78
-0.775
-0.75
-0.735
-0.725
-0.72
-0.71
-0.7
-0.695
-0.675
-0.665
-0.655
-0.665
-0.675
-0.68
-0.69
-0.695
-0.7
-0.71
-0.695
-0.7
-0.715
-0.715
-0.725
-0.725
-0.73
-0.74
-0.75
-0.735
-0.74
-0.74
-0.75
-0.745
-0.74
-0.75
-0.755
-0.765
-0.775
-0.785
-0.785
-0.795
-0.785
-0.785
-0.785
-0.78
-0.775
-0.77
-0.77
-0.775
-0.795
-0.795
-0.795
-0.8
-0.805
-0.805
-0.79
-0.79
-0.785
-0.775
-0.78
-0.785
-0.8
-0.795
-0.805
-0.8
-0.795
-0.785
-0.77
-0.77
-0.76
-0.765
-0.765
-0.76
-0.76
-0.775
-0.76
-0.765
-0.75
-0.74
-0.72
-0.715
-0.705
-0.715
-0.7
-0.715
-0.725
-0.72
-0.705
-0.71
-0.695
-0.69
-0.69
-0.7
-0.705
-0.715
-0.72
-0.725
-0.73
-0.74
-0.75
-0.765
-0.78
-0.79
-0.795
-0.79
-0.79
-0.785
-0.805
-0.815
-0.84
-0.845
-0.855
-0.855
-0.855
-0.85
-0.84
-0.835
-0.83
-0.83
-0.84
-0.85
-0.845
-0.845
-0.855
-0.87
-0.865
-0.865
-0.86
-0.84
-0.835
-0.84
-0.83
-0.815
-0.825
-0.8
-0.77
-0.71
-0.63
-0.51
-0.375
-0.235
-0.09
0.005
0.03
-0.035
-0.16
-0.33
-0.51
-0.695
-0.9
-1.09
-1.235
-1.29
-1.25
-1.19
-1.125
-1.125
-1.135
-1.145
-1.15
-1.115
-1.07
-1.03
-0.985
-0.955
-0.945
-0.93
-0.94
-0.955
-0.98
-0.98
-0.985
-0.975
-0.975
-0.975
-0.975
-0.985
-0.98
-0.97
-0.965
-0.965
-0.96
-0.965
-0.965
-0.975
-0.985
-0.985
-0.985
-0.985
-0.98
-0.99
-0.995
-1.005
-1.005
-1.005
-1.015
-1.02
-1.01
-1.005
-1.0
-0.99
-0.995
-0.985
-0.99
-1.0
-0.995
-1.005
-1.015
-1.02
-1.02
-1.025
-1.01
-1.0
-1.015
-1.015
-1.03
-1.035
-1.045
-1.045
-1.05
-1.055
-1.065
-1.065
-1.06
-1.05
-1.03
-1.035
-1.025
-1.025
-1.035
-1.035
-1.035
-1.055
-1.04
-1.045
-1.03
-1.005
-1.0
-1.005
-0.99
-0.97
-0.96
-0.955
-0.94
-0.925
-0.91
-0.885
-0.86
-0.85
-0.83
-0.8
-0.785
-0.77
-0.745
-0.745
-0.745
-0.74
-0.735
-0.72
-0.69
-0.675
-0.66
-0.66
-0.66
-0.665
-0.675
-0.695
-0.7
-0.7
-0.705
-0.695
-0.685
-0.695
-0.695
-0.69
-0.69
-0.69
-0.7
-0.72
-0.725
-0.725
-0.735
-0.725
-0.715
-0.72
-0.72
-0.705
-0.7
-0.72
-0.73
-0.725
-0.735
-0.745
-0.76
-0.745
-0.745
-0.725
-0.725
-0.725
-0.72
-0.73
-0.74
-0.74
-0.74
-0.755
-0.75
-0.75
-0.735
-0.73
-0.71
-0.705
-0.71
-0.715
-0.73
-0.73
-0.73
-0.73
-0.725
-0.72
-0.71
-0.71
-0.705
-0.705
-0.705
-0.705
-0.705
-0.7
-0.7
-0.685
-0.68
-0.66
-0.65
-0.64
-0.625
-0.62
-0.635
-0.625
-0.635
-0.645
-0.65
-0.645
-0.64
-0.63
-0.61
-0.59
-0.59
-0.595
-0.605
-0.62
-0.63
-0.635
-0.64
-0.655
-0.665
-0.67
-0.68
-0.68
-0.69
-0.68
-0.695
-0.705
-0.735
-0.745
-0.765
-0.775
-0.77
-0.77
-0.765
-0.77
-0.77
-0.755
-0.755
-0.76
-0.755
-0.765
-0.775
-0.78
-0.765
-0.76
-0.765
-0.75
-0.735
-0.725
-0.725
-0.72
-0.725
-0.705
-0.665
-0.61
-0.52
-0.395
-0.255
-0.105
0.01
0.085
0.15
0.1
-0.01
-0.145
-0.29
-0.44
-0.585
-0.745
-0.895
-1.045
-1.115
-1.115
-1.085
-1.045
-1.03
-1.03
-1.03
-1.02
-0.99
-0.955
-0.93
-0.905
-0.885
-0.885
-0.87
-0.865
-0.855
-0.87
-0.87
-0.865
-0.87
-0.875
-0.865
-0.855
-0.855
-0.845
-0.855
-0.86
-0.87
-0.89
-0.885
-0.885
-0.88
-0.89
-0.875
-0.865
-0.885
-0.88
-0.89
-0.89
-0.9
-0.905
-0.935
-0.935
-0.945
-0.94
-0.93
-0.915
-0.905
-0.91
-0.91
-0.91
-0.93
-0.92
-0.945
-0.945
-0.94
-0.93
-0.925
-0.93
-0.925
-0.92
-0.93
-0.935
-0.95
-0.945
-0.96
-0.965
-0.96
-0.96
-0.955
-0.965
-0.96
-0.945
-0.965
-0.965
-0.955
-0.97
-0.965
-0.97
-0.975
-0.96
-0.955
-0.945
-0.94
-0.935
-0.93
-0.935
-0.935
-0.93
-0.94
-0.92
-0.91
-0.875
-0.865
-0.84
-0.835
-0.805
-0.795
-0.78
-0.765
-0.755
-0.735
-0.715
-0.685
-0.675
-0.65
-0.62
-0.595
-0.58
-0.58
-0.575
-0.575
-0.58
-0.58
-0.59
-0.585
-0.57
-0.565
-0.56
-0.565
-0.565
-0.565
-0.565
-0.575
-0.595
-0.61
-0.605
-0.62
-0.61
-0.61
-0.605
-0.605
-0.6
-0.605
-0.62
-0.61
-0.62
-0.63
-0.635
-0.65
-0.64
-0.63
-0.615
-0.61
-0.62
-0.62
-0.625
-0.635
-0.665
-0.665
-0.675
-0.655
-0.655
-0.655
-0.64
-0.62
-0.62
-0.63
-0.635
-0.64
-0.65
-0.65
-0.655
-0.65
-0.64
-0.63
-0.64
-0.65
-0.63
-0.625
-0.63
-0.635
-0.64
-0.64
-0.635
-0.64
-0.63
-0.6
-0.58
-0.57
-0.565
-0.575
-0.57
-0.58
-0.585
-0.58
-0.59
-0.59
-0.565
-0.55
-0.555
-0.545
-0.56
-0.56
-0.565
-0.58
-0.595
-0.615
-0.62
-0.635
-0.64
-0.635
-0.64
-0.635
-0.635
-0.655
-0.665
-0.705
-0.71
-0.725
-0.735
-0.735
-0.75
-0.725
-0.715
-0.715
-0.71
-0.72
-0.72
-0.75
-0.745
-0.75
-0.765
-0.76
-0.755
-0.74
-0.735
-0.725
-0.72
-0.74
-0.73
-0.73
-0.74
-0.71
-0.67
-0.61
-0.535
-0.435
-0.31
-0.17
-0.045
0.065
0.145
0.135
0.075
-0.045
-0.19
-0.335
-0.495
-0.65
-0.83
-0.96
-1.015
-1.025
-1.005
-0.965
-0.925
-0.885
-0.865
-0.85
-0.865
-0.87
-0.865
-0.86
-0.85
-0.86
-0.87
-0.86
-0.87
-0.88
-0.885
-0.88
-0.89
-0.89
-0.87
-0.86
-0.85
-0.87
-0.865
-0.88
-0.885
-0.9
-0.915
-0.895
-0.915
-0.905
-0.895
-0.895
-0.89
-0.9
-0.905
-0.905
-0.92
-0.94
-0.935
-0.94
-0.94
-0.935
-0.94
-0.94
-0.93
-0.94
-0.95
-0.945
-0.96
-0.975
-0.98
-0.99
-0.985
-0.98
-0.975
-0.985
-0.975
-0.99
-0.985
-1.01
-1.02
-1.025
-1.04
-1.025
-1.035
-1.03
-1.02
-1.025
-1.025
-1.04
-1.03
-1.04
-1.035
-1.04
-1.04
-1.045
-1.035
-1.03
-1.015
-1.0
-0.985
-0.975
-0.96
-0.965
-0.965
-0.96
-0.935
-0.935
-0.9
-0.88
-0.85
-0.825
-0.79
-0.775
-0.76
-0.75
-0.735
-0.725
-0.71
-0.69
-0.68
-0.665
-0.655
-0.65
-0.63
-0.63
-0.625
-0.645
-0.645
-0.65
-0.655
-0.66
-0.655
-0.65
-0.645
-0.64
-0.63
-0.65
-0.65
-0.655
-0.66
-0.665
-0.665
-0.67
-0.67
-0.66
-0.66
-0.655
-0.655
-0.655
-0.67
-0.675
-0.68
-0.685
-0.7
-0.695
-0.7
-0.695
-0.695
-0.695
-0.675
-0.69
-0.705
-0.72
-0.72
-0.72
-0.72
-0.715
-0.715
-0.71
-0.705
-0.69
-0.685
-0.69
-0.7
-0.7
-0.71
-0.72
-0.72
-0.725
-0.725
-0.715
-0.7
-0.68
-0.66
-0.66
-0.655
-0.655
-0.655
-0.655
-0.655
-0.665
-0.65
-0.655
-0.645
-0.64
-0.62
-0.615
-0.625
-0.61
-0.61
-0.62
-0.615
-0.63
-0.625
-0.615
-0.615
-0.62
-0.62
-0.64
-0.655
-0.68
-0.68
-0.7
-0.71
-0.735
-0.735
-0.74
-0.745
-0.74
-0.75
-0.755
-0.785
-0.785
-0.79
-0.8
-0.8
-0.805
-0.81
-0.8
-0.8
-0.8
-0.79
-0.785
-0.79
-0.79
-0.8
-0.805
-0.805
-0.805
-0.8
-0.795
-0.78
-0.765
-0.725
-0.68
-0.625
-0.555
-0.445
-0.325
-0.2
-0.07
0.015
0.055
0.025
-0.075
-0.21
-0.365
-0.52
-0.665
-0.83
-0.995
-1.11
-1.15
-1.13
-1.09
-1.06
-1.025
-0.995
-0.975
-0.96
-0.96
-0.965
-0.97
-0.965
-0.965
-0.95
-0.945
-0.93
-0.925
-0.925
-0.93
-0.935
-0.93
-0.935
-0.95
-0.955
-0.965
-0.95
-0.935
-0.925
-0.92
-0.92
-0.935
-0.94
-0.945
-0.95
-0.945
-0.975
-0.985
-0.985
-0.965
-0.96
-0.975
-0.96
-0.97
-0.97
-0.985
-0.99
-0.985
-1.0
-1.005
-1.01
-1.005
-0.995
-0.99
-0.99
-0.995
-1.005
-1.02
-1.025
-1.03
-1.03
-1.04
-1.04
-1.04
-1.04
-1.03
-1.02
-1.04
-1.045
-1.05
-1.06
-1.07
-1.075
-1.09
-1.075
-1.08
-1.065
-1.06
-1.055
-1.05
-1.06
-1.065
-1.07
-1.065
-1.06
-1.06
-1.05
-1.045
-1.02
-1.015
-0.99
-0.98
-0.965
-0.96
-0.96
-0.94
-0.93
-0.915
-0.9
-0.875
-0.845
-0.825
-0.79
-0.78
-0.765
-0.765
-0.755
-0.75
-0.735
-0.725
-0.715
-0.7
-0.69
-0.7
-0.7
-0.69
-0.695
-0.695
-0.695
-0.715
-0.705
-0.73
-0.72
-0.715
-0.71
-0.715
-0.71
-0.715
-0.725
-0.725
-0.745
-0.735
-0.745
-0.76
-0.76
-0.75
-0.745
-0.745
-0.76
-0.745
-0.745
-0.76
-0.77
-0.78
-0.79
-0.79
-0.78
-0.78
-0.775
-0.765
-0.75
-0.76
-0.78
-0.77
-0.78
-0.785
-0.78
-0.785
-0.775
-0.77
-0.77
-0.77
-0.76
-0.75
-0.76
-0.775
-0.765
-0.77
-0.78
-0.785
-0.765
-0.765
-0.745
-0.74
-0.73
-0.725
-0.72
-0.71
-0.72
-0.72
-0.73
-0.73
-0.715
-0.705
-0.71
-0.705
-0.68
-0.685
-0.675
-0.68
-0.69
-0.685
-0.695
-0.7
-0.71
-0.72
-0.715
-0.73
-0.73
-0.75
-0.765
-0.785
-0.805
-0.81
-0.82
-0.84
-0.835
-0.835
-0.83
-0.83
-0.82
-0.82
-0.825
-0.835
-0.845
-0.855
-0.85
-0.865
-0.87
-0.865
-0.86
-0.85
-0.835
-0.84
-0.845
-0.85
-0.86
-0.84
-0.845
-0.855
-0.85
-0.815
-0.775
-0.73
-0.65
-0.565
-0.455
-0.35
-0.22
-0.11
-0.04
-0.025
-0.085
-0.19
-0.325
-0.445
-0.555
-0.7
-0.845
-1.015
-1.13
-1.195
-1.2
-1.175
-1.145
-1.105
-1.055
-1.025
-1.0
-0.985
-0.99
-0.975
-0.96
-0.96
-0.965
-0.97
-0.97
-0.965
-0.965
-0.955
-0.95
-0.95
-0.955
-0.96
-0.965
-0.98
-0.975
-0.995
-0.99
-0.97
-0.975
-0.975
-0.965
-0.97
-0.965
-0.985
-0.98
-1.0
-1.01
-1.005
-1.005
-1.0
-0.99
-1.01
-1.0
-1.005
-1.015
-1.01
-1.02
-1.025
-1.035
-1.04
-1.045
-1.03
-1.02
-1.025
-1.02
-1.02
-1.035
-1.05
-1.055
-1.055
-1.05
-1.07
-1.065
-1.055
-1.05
-1.05
-1.035
-1.04
-1.045
-1.04
-1.045
-1.065
-1.075
-1.065
-1.07
-1.055
-1.05
-1.04
-1.03
-1.025
-1.015
-1.01
-1.035
-1.025
-1.025
-0.995
-0.99
-0.985
-0.96
-0.94
-0.905
-0.89
-0.88
-0.865
-0.845
-0.835
-0.825
-0.805
-0.8
-0.775
-0.755
-0.735
-0.72
-0.7
-0.695
-0.695
-0.7
-0.695
-0.705
-0.705
-0.705
-0.705
-0.71
-0.7
-0.695
-0.71
-0.695
-0.7
-0.715
-0.72
-0.725
-0.735
-0.735
-0.745
-0.735
-0.72
-0.72
-0.72
-0.725
-0.735
-0.745
-0.755
-0.76
-0.775
-0.76
-0.76
-0.75
-0.745
-0.74
-0.735
-0.76
-0.76
-0.765
-0.765
-0.78
-0.79
-0.78
-0.785
-0.78
-0.785
-0.775
-0.785
-0.78
-0.79
-0.8
-0.79
-0.8
-0.795
-0.795
-0.785
-0.785
-0.775
-0.775
-0.765
-0.765
-0.755
-0.765
-0.775
-0.775
-0.77
-0.77
-0.75
-0.74
-0.74
-0.72
-0.73
-0.715
-0.71
-0.7
-0.71
-0.705
-0.71
-0.705
-0.695
-0.69
-0.675
-0.665
-0.655
-0.66
-0.66
-0.665
-0.685
-0.71
-0.72
-0.74
-0.745
-0.735
-0.74
-0.735
-0.755
-0.765
-0.785
-0.79
-0.805
-0.825
-0.84
-0.84
-0.84
-0.84
-0.835
-0.835
-0.83
-0.825
-0.845
-0.835
-0.85
-0.86
-0.855
-0.85
-0.845
-0.845
-0.84
-0.84
-0.835
-0.835
-0.84
-0.85
-0.84
-0.855
-0.85
-0.84
-0.8
-0.725
-0.66
-0.545
-0.395
-0.255
-0.125
-0.035
-0.035
-0.1
-0.245
-0.4
-0.55
-0.665
-0.83
-0.965
-1.1
-1.195
-1.225
-1.2
-1.185
-1.16
-1.135
-1.095
-1.06
-1.045
-1.025
-1.01
-0.985
-0.975
-0.965
-0.965
-0.96
-0.97
-0.97
-0.975
-0.965
-0.965
-0.965
-0.955
-0.96
-0.95
-0.955
-0.97
-0.97
-0.975
-0.975
-0.985
-0.985
-0.985
-0.96
-0.965
-0.95
-0.965
-0.965
-0.97
-0.99
-1.0
-0.99
-0.995
-0.99
-1.01
-1.0
-1.01
-0.995
-1.0
-1.005
-1.025
-1.025
-1.03
-1.04
-1.035
-1.04
-1.035
-1.02
-1.02
-1.01
-1.03
-1.03
-1.04
-1.05
-1.055
-1.075
-1.06
-1.06
-1.06
-1.055
-1.045
-1.045
-1.045
-1.055
-1.055
-1.06
-1.065
-1.06
-1.05
-1.055
-1.035
-1.025
-1.03
-1.02
-1.02
-1.015
-1.01
-1.01
-1.01
-1.005
-1.0
-0.99
-0.975
-0.955
-0.925
-0.905
-0.9
-0.87
-0.865
-0.855
-0.845
-0.825
-0.795
-0.795
-0.775
-0.735
-0.715
-0.705
-0.7
-0.705
-0.7
-0.7
-0.71
-0.71
-0.71
-0.71
-0.71
-0.7
-0.705
-0.7
-0.71
-0.71
-0.72
-0.735
-0.75
-0.755
-0.76
-0.76
-0.75
-0.75
-0.735
-0.745
-0.75
-0.76
-0.755
-0.775
-0.785
-0.795
-0.795
-0.8
-0.775
-0.78
-0.77
-0.785
-0.78
-0.79
-0.79
-0.81
-0.815
-0.83
-0.815
-0.815
-0.8
-0.8
-0.805
-0.795
-0.805
-0.805
-0.805
-0.81
-0.82
-0.815
-0.815
-0.81
-0.805
-0.805
-0.795
-0.795
-0.795
-0.79
-0.785
-0.785
-0.775
-0.775
-0.765
-0.755
-0.745
-0.73
-0.72
-0.71
-0.715
-0.71
-0.73
-0.73
-0.725
-0.74
-0.725
-0.705
-0.7
-0.685
-0.68
-0.68
-0.695
-0.705
-0.72
-0.735
-0.755
-0.78
-0.77
-0.775
-0.78
-0.78
-0.79
-0.79
-0.825
-0.835
-0.84
-0.85
-0.865
-0.875
-0.87
-0.875
-0.87
-0.865
-0.865
-0.86
-0.865
-0.86
-0.86
-0.87
-0.88
-0.875
-0.87
-0.865
-0.855
-0.85
-0.84
-0.825
-0.825
-0.8
-0.76
-0.725
-0.645
-0.565
-0.445
-0.325
-0.21
-0.115
-0.08
-0.095
-0.175
-0.305
-0.45
-0.575
-0.72
-0.875
-1.035
-1.155
-1.225
-1.245
-1.215
-1.185
-1.155
-1.12
-1.105
-1.09
-1.075
-1.06
-1.055
-1.02
-1.0
-0.995
-0.975
-0.965
-0.97
-0.985
-0.975
-0.995
-1.01
-1.02
-1.0
-1.0
-0.99
-0.98
-0.97
-0.97
-0.975
-0.98
-1.005
-1.01
-1.015
-1.025
-1.03
-1.005
-1.01
-1.005
-1.0
-0.995
-1.0
-1.02
-1.035
-1.045
-1.065
-1.07
-1.08
-1.065
-1.055
-1.04
-1.04
-1.035
-1.045
-1.045
-1.07
-1.07
-1.085
-1.095
-1.095
-1.08
-1.06
-1.065
-1.06
-1.065
-1.07
-1.08
-1.08
-1.085
-1.09
-1.1
-1.09
-1.085
-1.09
-1.075
-1.09
-1.075
-1.075
-1.085
-1.08
-1.08
-1.08
-1.08
-1.065
-1.06
-1.045
-1.035
-1.025
-1.015
-1.02
-1.02
-1.02
-1.005
-0.995
-0.99
-0.965
-0.95
-0.935
-0.91
-0.895
-0.865
-0.845
-0.825
-0.82
-0.815
-0.795
-0.78
-0.775
-0.76
-0.75
-0.74
-0.735
-0.735
-0.745
-0.745
-0.765
-0.765
-0.775
-0.795
-0.785
-0.795
-0.785
-0.79
-0.78
-0.78
-0.79
-0.795
-0.805
-0.805
-0.81
-0.815
-0.81
-0.82
-0.815
-0.81
-0.8
-0.795
-0.805
-0.805
-0.82
-0.83
-0.845
-0.84
-0.84
-0.835
-0.825
-0.83
-0.83
-0.83
-0.845
-0.84
-0.845
-0.855
-0.85
-0.855
-0.865
-0.855
-0.845
-0.85
-0.85
-0.835
-0.835
-0.845
-0.85
-0.85
-0.865
-0.865
-0.865
-0.865
-0.84
-0.83
-0.825
-0.815
-0.81
-0.805
-0.805
-0.8
-0.8
-0.805
-0.79
-0.77
-0.755
-0.755
-0.765
-0.76
-0.76
-0.74
-0.73
-0.735
-0.735
-0.75
-0.745
-0.75
-0.75
-0.75
-0.75
-0.76
-0.78
-0.795
-0.795
-0.815
-0.83
-0.835
-0.84
-0.84
-0.855
-0.88
-0.865
-0.865
-0.885
-0.885
-0.9
-0.9
-0.915
-0.925
-0.925
-0.925
-0.915
-0.91
-0.905
-0.895
-0.885
-0.895
-0.895
-0.89
-0.905
-0.915
-0.92
-0.89
-0.89
-0.865
-0.86
-0.83
-0.8
-0.745
-0.685
-0.595
-0.49
-0.36
-0.25
-0.135
-0.08
-0.06
-0.085
-0.175
-0.305
-0.455
-0.585
-0.73
-0.91
-1.095
-1.215
-1.255
-1.255
-1.205
-1.165
-1.15
-1.15
-1.14
-1.12
-1.085
-1.055
-1.025
-1.005
-0.995
-0.99
-0.99
-0.985
-0.98
-1.0
-0.98
-0.985
-1.0
-1.02
-1.02
-1.025
-1.015
-1.005
-1.0
-0.99
-1.005
-0.99
-1.005
-1.02
-1.02
-1.03
-1.025
-1.04
-1.03
-1.025
-1.025
-1.015
-1.02
-1.02
-1.025
-1.035
-1.05
-1.055
-1.06
-1.055
-1.045
-1.035
-1.03
-1.03
-1.02
-1.025
-1.035
-1.04
-1.04
-1.05
-1.055
-1.055
-1.06
-1.055
-1.05
-1.045
-1.04
-1.045
-1.045
-1.055
-1.06
-1.06
-1.06
-1.06
-1.05
-1.045
-1.025
-1.015
-1.01
-1.005
-1.005
-1.0
-0.99
-0.99
-0.995
-0.98
-0.955
-0.94
-0.94
-0.92
-0.895
-0.875
-0.865
-0.85
-0.835
-0.82
-0.805
-0.795
-0.765
-0.745
-0.715
-0.695
-0.695
-0.69
-0.7
-0.71
-0.695
-0.705
-0.715
-0.725
-0.735
-0.705
-0.715
-0.715
-0.7
-0.705
-0.725
-0.73
-0.75
-0.765
-0.77
-0.76
-0.76
-0.755
-0.75
-0.75
-0.745
-0.745
-0.76
-0.77
-0.775
-0.78
-0.785
-0.775
-0.8
-0.795
-0.79
-0.78
-0.78
-0.785
-0.795
-0.8
-0.805
-0.805
-0.815
-0.83
-0.825
-0.8
-0.79
-0.79
-0.785
-0.795
-0.785
-0.795
-0.805
-0.805
-0.8
-0.8
-0.79
-0.795
-0.775
-0.77
-0.75
-0.75
-0.745
-0.745
-0.74
-0.745
-0.735
-0.735
-0.735
-0.74
-0.725
-0.725
-0.715
-0.7
-0.685
-0.67
-0.67
-0.68
-0.68
-0.69
-0.7
-0.7
-0.715
-0.715
-0.705
-0.715
-0.715
-0.73
-0.745
-0.775
-0.79
-0.795
-0.795
-0.805
-0.815
-0.81
-0.82
-0.805
-0.82
-0.825
-0.83
-0.835
-0.825
-0.825
-0.815
-0.83
-0.82
-0.825
-0.825
-0.805
-0.82
-0.815
-0.835
-0.825
-0.82
-0.82
-0.805
-0.785
-0.765
-0.715
-0.65
-0.565
-0.46
-0.34
-0.2
-0.09
0.01
0.055
0.06
-0.005
-0.12
-0.26
-0.4
-0.535
-0.705
-0.885
-1.055
-1.15
-1.175
-1.13
-1.075
-1.04
-1.035
-1.05
-1.045
-1.04
-1.015
-0.98
-0.95
-0.925
-0.905
-0.885
-0.895
-0.885
-0.88
-0.88
-0.875
-0.865
-0.865
-0.875
-0.875
-0.88
-0.89
-0.905
-0.895
-0.88
-0.885
-0.89
-0.88
-0.885
-0.885
-0.9
-0.9
-0.905
-0.935
-0.92
-0.91
-0.91
-0.905
-0.895
-0.905
-0.9
-0.91
-0.92
-0.935
-0.945
-0.945
-0.95
-0.95
-0.95
-0.945
-0.94
-0.94
-0.95
-0.95
-0.95
-0.95
-0.955
-0.945
-0.95
-0.945
-0.95
-0.95
-0.945
-0.95
-0.95
-0.965
-0.965
-1.005
-1.0
-0.99
-0.99
-0.98
-0.975
-0.96
-0.96
-0.94
-0.94
-0.945
-0.94
-0.945
-0.95
-0.945
-0.945
-0.935
-0.925
-0.915
-0.89
-0.885
-0.865
-0.855
-0.84
-0.83
-0.82
-0.805
-0.79
-0.765
-0.75
-0.735
-0.71
-0.675
-0.685
-0.66
-0.645
-0.655
-0.635
-0.625
-0.625
-0.625
-0.61
-0.605
-0.61
-0.59
-0.595
-0.595
-0.61
-0.62
-0.635
-0.635
-0.65
-0.64
-0.65
-0.64
-0.64
-0.635
-0.635
-0.645
-0.66
-0.66
-0.67
-0.67
-0.68
-0.685
-0.685
-0.675
-0.675
-0.685
-0.685
-0.685
-0.685
-0.68
-0.695
-0.695
-0.69
-0.685
-0.68
-0.69
-0.68
-0.68
-0.69
-0.695
-0.705
-0.705
-0.71
-0.715
-0.715
-0.7
-0.695
-0.68
-0.67
-0.67
-0.67
-0.68
-0.68
-0.685
-0.69
-0.7
-0.71
-0.69
-0.675
-0.67
-0.66
-0.64
-0.63
-0.615
-0.62
-0.615
-0.63
-0.635
-0.635
-0.64
-0.635
-0.635
-0.64
-0.625
-0.62
-0.6
-0.595
-0.585
-0.59
-0.595
-0.6
-0.605
-0.625
-0.615
-0.605
-0.61
-0.625
-0.65
-0.655
-0.69
-0.715
-0.725
-0.735
-0.73
-0.735
-0.73
-0.73
-0.725
-0.75
-0.745
-0.745
-0.755
-0.765
-0.765
-0.775
-0.765
-0.765
-0.76
-0.75
-0.75
-0.755
-0.75
-0.755
-0.755
-0.77
-0.765
-0.75
-0.745
-0.72
-0.67
-0.635
-0.575
-0.485
-0.375
-0.24
-0.105
0.02
0.105
0.13
0.1
-0.02
-0.18
-0.335
-0.5
-0.665
-0.835
-1.02
-1.155
-1.225
-1.225
-1.21
-1.155
-1.1
-1.055
-1.005
-0.95
-0.925
-0.915
-0.91
-0.905
-0.9
-0.89
-0.89
-0.87
-0.88
-0.87
-0.865
-0.855
-0.86
-0.86
-0.87
-0.87
-0.875
-0.895
-0.915
-0.925
-0.93
-0.92
-0.915
-0.89
-0.905
-0.905
-0.905
-0.925
-0.935
-0.945
-0.965
-0.955
-0.95
-0.95
-0.93
-0.93
-0.935
-0.935
-0.955
-0.965
-0.975
-0.97
-0.995
-0.985
-0.995
-0.98
-0.97
-0.965
-0.97
-0.98
-0.97
-0.975
-0.99
-1.0
-1.0
-1.01
-1.005
-1.005
-1.01
-0.995
-0.995
-1.005
-1.015
-1.02
-1.03
-1.03
-1.03
-1.01
-1.01
-0.995
-0.99
-0.99
-0.99
-0.985
-0.98
-0.985
-0.985
-0.97
-0.97
-0.955
-0.93
-0.905
-0.875
-0.86
-0.835
-0.835
-0.81
-0.805
-0.8
-0.76
-0.745
-0.71
-0.685
-0.665
-0.65
-0.63
-0.645
-0.64
-0.63
-0.635
-0.635
-0.645
-0.65
-0.66
-0.65
-0.63
-0.61
-0.595
-0.615
-0.64
-0.655
-0.68
-0.705
-0.725
-0.7
-0.7
-0.7
-0.685
-0.675
-0.67
-0.675
-0.695
-0.695
-0.7
-0.705
-0.71
-0.72
-0.715
-0.7
-0.715
-0.7
-0.685
-0.685
-0.7
-0.705
-0.71
-0.725
-0.735
-0.735
-0.725
-0.72
-0.7
-0.69
-0.675
-0.67
-0.66
-0.655
-0.67
-0.675
-0.695
-0.715
-0.725
-0.74
-0.75
-0.745
-0.745
-0.74
-0.735
-0.725
-0.725
-0.715
-0.715
-0.705
-0.705
-0.68
-0.665
-0.655
-0.64
-0.64
-0.655
-0.665
-0.67
-0.68
-0.695
-0.68
-0.665
-0.65
-0.635
-0.63
-0.62
-0.64
-0.64
-0.64
-0.645
-0.655
-0.645
-0.655
-0.67
-0.695
-0.725
-0.765
-0.8
-0.79
-0.8
-0.8
-0.8
-0.8
-0.81
-0.83
-0.83
-0.825
-0.82
-0.8
-0.8
-0.795
-0.8
-0.82
-0.835
-0.835
-0.84
-0.84
-0.835
-0.825
-0.82
-0.8
-0.785
-0.78
-0.805
-0.81
-0.82
-0.815
-0.79
-0.73
-0.645
-0.515
-0.37
-0.21
-0.065
0.035
0.075
-0.02
-0.18
-0.375
-0.575
-0.785
-1.005
-1.17
-1.275
-1.31
-1.285
-1.225
-1.15
-1.09
-1.04
-1.0
-0.985
-1.005
-1.005
-1.005
-1.0
-0.995
-0.98
-0.985
-0.98
-0.97
-0.955
-0.96
-0.965
-0.965
-0.965
-0.96
-0.96
-0.965
-0.95
-0.95
-0.95
-0.96
-0.965
-0.96
-0.96
-0.965
-0.975
-0.975
-0.97
-0.97
-0.955
-0.955
-0.95
-0.95
-0.955
-0.97
-0.985
-1.005
-1.0
-1.0
-0.97
-0.945
-0.935
-0.955
-0.96
-0.995
-1.05
-1.09
-1.11
-1.12
-1.105
-1.09
-1.07
-1.055
-1.045
-1.045
-1.045
-1.06
-1.07
-1.065
-1.07
-1.065
-1.065
-1.06
-1.07
-1.065
-1.06
-1.065
-1.075
-1.085
-1.07
-1.07
-1.07
-1.055
-1.045
-1.035
-1.015
-1.01
-0.985
-0.975
-0.975
-0.98
-0.985
-0.97
-0.965
-0.95
-0.93
-0.905
-0.87
-0.83
-0.78
-0.78
-0.765
-0.765
-0.78
-0.785
-0.77
-0.76
-0.75
-0.73
-0.695
-0.68
-0.67
-0.66
-0.665
-0.675
-0.685
-0.705
-0.73
-0.745
-0.75
-0.735
-0.72
-0.715
-0.705
-0.7
-0.705
-0.715
-0.725
-0.745
-0.755
-0.74
-0.72
-0.72
-0.715
-0.715
-0.71
-0.725
-0.73
-0.75
-0.77
-0.785
-0.795
-0.8
-0.815
-0.81
-0.8
-0.79
-0.765
-0.765
-0.765
-0.765
-0.775
-0.785
-0.79
-0.795
-0.79
-0.785
-0.78
-0.775
-0.77
-0.755
-0.77
-0.78
-0.78
-0.785
-0.795
-0.79
-0.78
-0.755
-0.745
-0.73
-0.705
-0.665
-0.65
-0.645
-0.65
-0.68
-0.71
-0.735
-0.755
-0.74
-0.73
-0.705
-0.695
-0.69
-0.67
-0.665
-0.67
-0.665
-0.675
-0.67
-0.68
-0.675
-0.68
-0.69
-0.69
-0.71
-0.72
-0.73
-0.745
-0.76
-0.78
-0.795
-0.79
-0.795
-0.795
-0.795
-0.795
-0.79
-0.805
-0.795
-0.81
-0.78
-0.755
-0.755
-0.745
-0.765
-0.785
-0.84
-0.875
-0.895
-0.905
-0.89
-0.87
-0.86
-0.84
-0.83
-0.81
-0.77
-0.72
-0.645
-0.56
-0.455
-0.33
-0.2
-0.095
-0.005
0.03
-0.005
-0.11
-0.265
-0.425
-0.575
-0.725
-0.9
-1.095
-1.255
-1.33
-1.335
-1.305
-1.25
-1.185
-1.12
-1.05
-1.015
-0.99
-0.975
-0.97
-0.97
-0.95
-0.95
-0.935
-0.94
-0.935
-0.93
-0.935
-0.945
-0.94
-0.945
-0.93
-0.93
-0.92
-0.93
-0.93
-0.945
-0.925
-0.935
-0.94
-0.92
-0.915
-0.92
-0.925
-0.935
-0.95
-0.965
-0.985
-0.995
-0.99
-0.99
-0.975
-0.965
-0.955
-0.96
-0.975
-0.985
-0.99
-0.995
-1.0
-0.995
-1.0
-1.0
-0.99
-0.99
-0.99
-0.985
-0.985
-0.985
-0.985
-0.985
-0.99
-0.985
-0.995
-0.975
-0.985
-0.99
-1.0
-1.0
-1.01
-1.005
-0.995
-0.995
-1.005
-1.01
-1.025
-1.035
-1.035
-1.01
-1.01
-0.99
-0.985
-0.975
-0.965
-0.95
-0.955
-0.925
-0.935
-0.915
-0.905
-0.88
-0.86
-0.845
-0.83
-0.82
-0.815
-0.8
-0.77
-0.77
-0.75
-0.735
-0.69
-0.655
-0.625
-0.605
-0.595
-0.59
-0.605
-0.62
-0.645
-0.665
-0.67
-0.65
-0.635
-0.62
-0.63
-0.63
-0.635
-0.64
-0.655
-0.665
-0.67
-0.68
-0.69
-0.695
-0.695
-0.69
-0.68
-0.69
-0.68
-0.69
-0.675
-0.675
-0.7
-0.705
-0.72
-0.725
-0.75
-0.73
-0.725
-0.725
-0.715
-0.73
-0.715
-0.73
-0.73
-0.735
-0.74
-0.74
-0.74
-0.745
-0.735
-0.735
-0.735
-0.735
-0.735
-0.73
-0.745
-0.735
-0.73
-0.715
-0.705
-0.695
-0.685
-0.685
-0.705
-0.7
-0.735
-0.74
-0.755
-0.755
-0.745
-0.73
-0.7
-0.685
-0.66
-0.665
-0.65
-0.66
-0.66
-0.655
-0.655
-0.66
-0.64
-0.635
-0.63
-0.615
-0.61
-0.595
-0.6
-0.6
-0.62
-0.615
-0.64
-0.65
-0.655
-0.665
-0.675
-0.68
-0.69
-0.7
-0.72
-0.75
-0.76
-0.755
-0.765
-0.78
-0.78
-0.78
-0.79
-0.79
-0.775
-0.78
-0.775
-0.79
-0.795
-0.79
-0.785
-0.8
-0.795
-0.79
-0.775
-0.765
-0.75
-0.75
-0.755
-0.74
-0.755
-0.77
-0.775
-0.77
-0.765
-0.72
-0.67
-0.605
-0.52
-0.405
-0.27
-0.155
-0.055
0.03
0.035
-0.01
-0.12
-0.265
-0.405
-0.545
-0.68
-0.825
-1.005
-1.175
-1.28
-1.315
-1.295
-1.26
-1.175
-1.105
-1.035
-0.985
-0.95
-0.92
-0.895
-0.895
-0.89
-0.89
-0.9
-0.9
-0.9
-0.905
-0.915
-0.895
-0.895
-0.9
-0.915
-0.915
-0.925
-0.93
-0.94
-0.935
-0.935
-0.93
-0.92
-0.91
-0.91
-0.9
-0.905
-0.91
-0.925
-0.925
-0.94
-0.93
-0.935
-0.94
-0.925
-0.92
-0.925
-0.93
-0.93
-0.925
-0.925
-0.91
-0.905
-0.895
-0.9
-0.905
-0.89
-0.905
-0.905
-0.925
-0.955
-0.975
-0.995
-0.995
-0.98
-0.98
-0.985
-0.99
-0.985
-0.98
-0.99
-0.98
-0.98
-0.975
-0.975
-0.975
-0.985
-0.985
-0.965
-0.97
-0.95
-0.945
-0.93
-0.92
-0.92
-0.905
-0.905
-0.905
-0.895
-0.875
-0.875
-0.85
-0.825
-0.795
-0.76
-0.735
-0.715
-0.69
-0.69
-0.68
-0.67
-0.67
-0.665
-0.64
-0.62
-0.6
-0.59
-0.575
-0.565
-0.565
-0.57
-0.575
-0.595
-0.615
-0.63
-0.635
-0.62
-0.61
-0.61
-0.59
-0.6
-0.615
-0.625
-0.645
-0.65
-0.655
-0.645
-0.66
-0.655
-0.655
-0.645
-0.64
-0.65
-0.65
-0.655
-0.645
-0.64
-0.65
-0.665
-0.685
-0.685
-0.695
-0.695
-0.69
-0.69
-0.7
-0.7
-0.705
-0.705
-0.715
-0.72
-0.705
-0.685
