Lead II
-0.88
-0.865
-0.845
-0.83
-0.815
-0.8
-0.795
-0.8
-0.795
-0.79
-0.77
-0.745
-0.735
-0.725
-0.75
-0.745
-0.75
-0.75
-0.755
-0.75
-0.785
-0.79
-0.805
-0.81
-0.83
-0.84
-0.86
-0.88
-0.895
-0.905
-0.925
-0.945
-0.95
-0.96
-0.975
-1.0
-0.995
-1.02
-1.01
-1.015
-1.005
-0.975
-0.985
-0.99
-0.995
-1.01
-1.015
-1.025
-1.015
-1.025
-1.015
-1.0
-0.995
-0.985
-0.99
-0.98
-0.99
-0.985
-0.975
-0.98
-0.985
-0.99
-0.995
-0.985
-0.975
-0.955
-0.95
-0.935
-0.935
-0.93
-0.945
-0.925
-0.935
-0.94
-0.915
-0.895
-0.82
-0.715
-0.545
-0.345
-0.1
0.12
0.36
0.61
0.86
1.035
1.08
0.95
0.645
0.18
-0.34
-0.885
-1.345
-1.665
-1.77
-1.74
-1.595
-1.44
-1.285
-1.2
-1.145
-1.08
-1.07
-1.04
-1.005
-0.975
-0.965
-0.95
-0.96
-0.955
-0.97
-0.97
-0.95
-0.955
-0.945
-0.96
-0.96
-0.955
-0.965
-0.975
-0.975
-0.99
-0.975
-0.96
-0.96
-0.935
-0.93
-0.935
-0.95
-0.955
-0.975
-0.98
-0.975
-0.975
-0.965
-0.945
-0.925
-0.925
-0.92
-0.93
-0.925
-0.935
-0.945
-0.945
-0.955
-0.965
-0.945
-0.945
-0.93
-0.91
-0.92
-0.915
-0.93
-0.915
-0.925
-0.93
-0.93
-0.925
-0.925
-0.92
-0.91
-0.885
-0.875
-0.855
-0.855
-0.86
-0.88
-0.855
-0.86
-0.855
-0.83
-0.825
-0.805
-0.805
-0.77
-0.76
-0.755
-0.76
-0.76
-0.76
-0.75
-0.73
-0.71
-0.685
-0.675
-0.665
-0.66
-0.625
-0.605
-0.605
-0.61
-0.605
-0.605
-0.595
-0.575
-0.57
-0.545
-0.52
-0.505
-0.51
-0.5
-0.49
-0.49
-0.49
-0.5
-0.495
-0.505
-0.515
-0.52
-0.53
-0.535
-0.555
-0.575
-0.615
-0.655
-0.66
-0.685
-0.705
-0.72
-0.735
-0.735
-0.75
-0.77
-0.785
-0.795
-0.81
-0.86
-0.865
-0.87
-0.88
-0.87
-0.865
-0.845
-0.835
-0.855
-0.85
-0.855
-0.885
-0.89
-0.89
-0.9
-0.92
-0.91
-0.91
-0.88
-0.865
-0.86
-0.87
-0.88
-0.88
-0.905
-0.905
-0.9
-0.9
-0.88
-0.87
-0.875
-0.865
-0.86
-0.865
-0.86
-0.865
-0.875
-0.875
-0.89
-0.89
-0.885
-0.865
-0.845
-0.835
-0.84
-0.84
-0.84
-0.855
-0.865
-0.865
-0.855
-0.86
-0.845
-0.83
-0.82
-0.82
-0.81
-0.815
-0.825
-0.82
-0.84
-0.835
-0.84
-0.85
-0.85
-0.845
-0.835
-0.825
-0.815
-0.825
-0.845
-0.825
-0.845
-0.86
-0.85
-0.855
-0.86
-0.86
-0.85
-0.845
-0.845
-0.865
-0.85
-0.855
-0.885
-0.87
-0.88
-0.885
-0.88
-0.89
-0.88
-0.86
-0.865
-0.87
-0.87
-0.88
-0.89
-0.895
-0.9
-0.91
-0.915
-0.905
-0.89
-0.89
-0.87
-0.885
-0.875
-0.9
-0.91
-0.92
-0.935
-0.945
-0.925
-0.915
-0.905
-0.89
-0.895
-0.885
-0.895
-0.935
-0.94
-0.935
-0.935
-0.935
-0.94
-0.915
-0.895
-0.895
-0.89
-0.89
-0.895
-0.895
-0.93
-0.93
-0.93
-0.925
-0.925
-0.925
-0.92
-0.9
-0.89
-0.905
-0.92
-0.925
-0.93
-0.93
-0.935
-0.945
-0.925
-0.915
-0.915
-0.9
-0.915
-0.9
-0.91
-0.91
-0.92
-0.93
-0.94
-0.94
-0.925
-0.93
-0.93
-0.925
-0.89
-0.895
-0.9
-0.91
-0.915
-0.915
-0.915
-0.91
-0.915
-0.905
-0.9
-0.88
-0.87
-0.865
-0.875
-0.895
-0.895
-0.895
-0.895
-0.89
-0.865
-0.855
-0.82
-0.795
-0.79
-0.785
-0.785
-0.78
-0.785
-0.795
-0.765
-0.755
-0.725
-0.695
-0.685
-0.695
-0.7
-0.705
-0.725
-0.755
-0.765
-0.775
-0.805
-0.81
-0.795
-0.785
-0.765
-0.78
-0.805
-0.84
-0.88
-0.905
-0.925
-0.925
-0.945
-0.94
-0.93
-0.935
-0.955
-0.94
-0.96
-0.935
-0.945
-0.945
-0.945
-0.96
-0.96
-0.97
-0.96
-0.955
-0.945
-0.945
-0.93
-0.925
-0.925
-0.935
-0.935
-0.935
-0.935
-0.945
-0.935
-0.92
-0.91
-0.905
-0.905
-0.9
-0.895
-0.9
-0.905
-0.885
-0.9
-0.9
-0.895
-0.86
-0.84
-0.81
-0.745
-0.635
-0.46
-0.23
0.025
0.28
0.58
0.88
1.12
1.205
1.115
0.78
0.28
-0.34
-0.955
-1.45
-1.74
-1.82
-1.715
-1.53
-1.345
-1.195
-1.095
-1.035
-1.025
-0.99
-0.965
-0.925
-0.905
-0.905
-0.9
-0.905
-0.915
-0.91
-0.905
-0.895
-0.895
-0.875
-0.89
-0.89
-0.895
-0.89
-0.9
-0.91
-0.9
-0.885
-0.875
-0.875
-0.86
-0.855
-0.86
-0.885
-0.88
-0.885
-0.89
-0.895
-0.885
-0.88
-0.88
-0.88
-0.875
-0.875
-0.875
-0.885
-0.885
-0.885
-0.89
-0.895
-0.885
-0.87
-0.865
-0.855
-0.845
-0.845
-0.85
-0.875
-0.88
-0.875
-0.875
-0.875
-0.86
-0.84
-0.825
-0.82
-0.8
-0.8
-0.8
-0.795
-0.805
-0.8
-0.8
-0.8
-0.785
-0.785
-0.765
-0.745
-0.745
-0.73
-0.735
-0.73
-0.735
-0.73
-0.715
-0.71
-0.685
-0.665
-0.655
-0.625
-0.615
-0.6
-0.59
-0.59
-0.59
-0.58
-0.575
-0.555
-0.555
-0.535
-0.51
-0.495
-0.485
-0.465
-0.455
-0.47
-0.455
-0.47
-0.45
-0.465
-0.465
-0.445
-0.455
-0.44
-0.45
-0.475
-0.485
-0.52
-0.555
-0.57
-0.57
-0.6
-0.63
-0.635
-0.645
-0.645
-0.665
-0.675
-0.7
-0.72
-0.76
-0.765
-0.785
-0.785
-0.805
-0.79
-0.78
-0.795
-0.79
-0.795
-0.8
-0.825
-0.825
-0.835
-0.845
-0.865
-0.85
-0.835
-0.84
-0.815
-0.83
-0.82
-0.83
-0.835
-0.835
-0.855
-0.86
-0.85
-0.84
-0.835
-0.835
-0.83
-0.825
-0.815
-0.825
-0.835
-0.85
-0.845
-0.845
-0.86
-0.855
-0.84
-0.835
-0.815
-0.81
-0.8
-0.805
-0.815
-0.81
-0.83
-0.835
-0.825
-0.81
-0.815
-0.8
-0.78
-0.8
-0.795
-0.79
-0.8
-0.805
-0.81
-0.82
-0.82
-0.82
-0.81
-0.81
-0.8
-0.805
-0.805
-0.815
-0.82
-0.825
-0.835
-0.85
-0.835
-0.83
-0.835
-0.825
-0.82
-0.805
-0.815
-0.825
-0.835
-0.845
-0.84
-0.88
-0.87
-0.87
-0.855
-0.84
-0.845
-0.84
-0.85
-0.85
-0.86
-0.855
-0.87
-0.87
-0.87
-0.87
-0.87
-0.855
-0.86
-0.85
-0.85
-0.875
-0.87
-0.885
-0.895
-0.905
-0.895
-0.895
-0.88
-0.88
-0.89
-0.89
-0.865
-0.88
-0.91
-0.915
-0.935
-0.935
-0.925
-0.91
-0.91
-0.895
-0.9
-0.88
-0.885
-0.89
-0.905
-0.91
-0.915
-0.915
-0.91
-0.905
-0.91
-0.905
-0.885
-0.895
-0.89
-0.9
-0.895
-0.92
-0.935
-0.94
-0.93
-0.93
-0.93
-0.905
-0.915
-0.91
-0.9
-0.91
-0.925
-0.91
-0.93
-0.935
-0.935
-0.935
-0.92
-0.92
-0.92
-0.91
-0.895
-0.905
-0.92
-0.915
-0.94
-0.935
-0.945
-0.925
-0.92
-0.91
-0.905
-0.905
-0.9
-0.9
-0.915
-0.925
-0.93
-0.945
-0.935
-0.925
-0.915
-0.925
-0.925
-0.91
-0.9
-0.91
-0.925
-0.935
-0.93
-0.935
-0.945
-0.94
-0.94
-0.915
-0.91
-0.89
-0.89
-0.895
-0.9
-0.92
-0.925
-0.93
-0.94
-0.93
-0.91
-0.915
-0.905
-0.885
-0.885
-0.885
-0.915
-0.91
-0.915
-0.925
-0.925
-0.93
-0.92
-0.91
-0.91
-0.89
-0.905
-0.905
-0.905
-0.91
-0.915
-0.92
-0.925
-0.915
-0.91
-0.895
-0.89
-0.88
-0.865
-0.855
-0.845
-0.83
-0.83
-0.815
-0.82
-0.785
-0.765
-0.765
-0.755
-0.745
-0.725
-0.71
-0.715
-0.72
-0.74
-0.755
-0.765
-0.785
-0.79
-0.78
-0.785
-0.775
-0.78
-0.78
-0.8
-0.815
-0.83
-0.86
-0.865
-0.89
-0.905
-0.91
-0.915
-0.915
-0.925
-0.94
-0.97
-0.965
-0.97
-1.0
-0.98
-0.975
-0.97
-0.96
-0.94
-0.94
-0.94
-0.94
-0.965
-0.98
-0.995
-0.985
-0.985
-0.965
-0.955
-0.965
-0.955
-0.94
-0.95
-0.94
-0.935
-0.935
-0.945
-0.945
-0.945
-0.945
-0.925
-0.91
-0.9
-0.885
-0.87
-0.86
-0.855
-0.84
-0.82
-0.76
-0.635
-0.44
-0.195
0.05
0.325
0.59
0.87
1.075
1.18
1.11
0.845
0.38
-0.19
-0.8
-1.31
-1.63
-1.715
-1.615
-1.435
-1.22
-1.075
-0.975
-0.975
-0.99
-0.99
-0.995
-0.965
-0.935
-0.9
-0.895
-0.88
-0.875
-0.905
-0.9
-0.915
-0.925
-0.94
-0.93
-0.91
-0.905
-0.89
-0.875
-0.89
-0.885
-0.885
-0.895
-0.905
-0.91
-0.92
-0.915
-0.905
-0.895
-0.89
-0.895
-0.9
-0.905
-0.905
-0.9
-0.91
-0.905
-0.93
-0.925
-0.905
-0.905
-0.895
-0.885
-0.875
-0.87
-0.88
-0.885
-0.89
-0.9
-0.89
-0.88
-0.89
-0.875
-0.855
-0.855
-0.85
-0.84
-0.86
-0.86
-0.87
-0.865
-0.86
-0.855
-0.84
-0.815
-0.8
-0.79
-0.78
-0.785
-0.79
-0.78
-0.785
-0.775
-0.77
-0.765
-0.73
-0.705
-0.68
-0.66
-0.655
-0.635
-0.625
-0.625
-0.605
-0.6
-0.595
-0.57
-0.55
-0.52
-0.495
-0.47
-0.46
-0.45
-0.44
-0.44
-0.435
-0.425
-0.41
-0.4
-0.395
-0.38
-0.37
-0.385
-0.375
-0.365
-0.385
-0.41
-0.44
-0.435
-0.465
-0.485
-0.495
-0.51
-0.53
-0.535
-0.575
-0.59
-0.605
-0.645
-0.675
-0.69
-0.72
-0.73
-0.735
-0.75
-0.74
-0.75
-0.755
-0.78
-0.785
-0.8
-0.81
-0.815
-0.83
-0.83
-0.83
-0.83
-0.815
-0.805
-0.805
-0.805
-0.825
-0.84
-0.845
-0.87
-0.865
-0.85
-0.835
-0.82
-0.815
-0.81
-0.82
-0.82
-0.815
-0.84
-0.83
-0.845
-0.845
-0.83
-0.83
-0.825
-0.8
-0.795
-0.79
-0.795
-0.8
-0.835
-0.83
-0.84
-0.83
-0.83
-0.825
-0.805
-0.805
-0.79
-0.795
-0.79
-0.8
-0.83
-0.82
-0.82
-0.825
-0.84
-0.835
-0.83
-0.815
-0.795
-0.805
-0.795
-0.81
-0.82
-0.82
-0.82
-0.84
-0.85
-0.825
-0.815
-0.81
-0.8
-0.8
-0.805
-0.815
-0.825
-0.835
-0.845
-0.855
-0.87
-0.87
-0.865
-0.845
-0.84
-0.845
-0.845
-0.845
-0.865
-0.885
-0.895
-0.895
-0.905
-0.885
-0.885
-0.87
-0.87
-0.87
-0.865
-0.885
-0.89
-0.9
-0.91
-0.91
-0.91
-0.9
-0.895
-0.88
-0.87
-0.885
-0.875
-0.89
-0.9
-0.91
-0.915
-0.91
-0.92
-0.91
-0.905
-0.895
-0.89
-0.905
-0.915
-0.915
-0.92
-0.94
-0.93
-0.945
-0.95
-0.94
-0.93
-0.925
-0.92
-0.92
-0.915
-0.91
-0.93
-0.935
-0.945
-0.935
-0.94
-0.94
-0.94
-0.93
-0.915
-0.91
-0.925
-0.94
-0.935
-0.935
-0.935
-0.935
-0.94
-0.945
-0.945
-0.935
-0.925
-0.91
-0.905
-0.91
-0.915
-0.94
-0.935
-0.945
-0.935
-0.955
-0.94
-0.925
-0.91
-0.895
-0.915
-0.92
-0.93
-0.94
-0.95
-0.945
-0.945
-0.94
-0.945
-0.915
-0.91
-0.915
-0.915
-0.935
-0.93
-0.94
-0.945
-0.94
-0.945
-0.935
-0.93
-0.92
-0.92
-0.91
-0.9
-0.91
-0.92
-0.925
-0.935
-0.94
-0.95
-0.94
-0.925
-0.925
-0.93
-0.93
-0.945
-0.95
-0.945
-0.945
-0.935
-0.965
-0.96
-0.945
-0.925
-0.92
-0.905
-0.91
-0.91
-0.92
-0.925
-0.945
-0.96
-0.95
-0.93
-0.94
-0.925
-0.915
-0.91
-0.91
-0.905
-0.91
-0.91
-0.92
-0.935
-0.935
-0.915
-0.905
-0.9
-0.895
-0.89
-0.875
-0.865
-0.865
-0.865
-0.85
-0.85
-0.85
-0.835
-0.805
-0.785
-0.79
-0.76
-0.76
-0.72
-0.7
-0.71
-0.705
-0.715
-0.715
-0.73
-0.735
-0.745
-0.75
-0.755
-0.755
-0.76
-0.755
-0.775
-0.78
-0.805
-0.825
-0.855
-0.885
-0.905
-0.905
-0.925
-0.925
-0.945
-0.935
-0.965
-0.98
-0.985
-0.995
-0.99
-0.975
-0.965
-0.96
-0.955
-0.945
-0.945
-0.955
-0.96
-0.965
-0.98
-0.97
-0.98
-0.985
-0.97
-0.955
-0.945
-0.955
-0.955
-0.945
-0.955
-0.98
-0.97
-0.965
-0.965
-0.965
-0.94
-0.93
-0.915
-0.915
-0.895
-0.89
-0.89
-0.89
-0.87
-0.795
-0.66
-0.47
-0.215
0.035
0.31
0.59
0.86
1.05
1.09
0.915
0.545
0.015
-0.575
-1.13
-1.54
-1.75
-1.775
-1.665
-1.485
-1.335
-1.225
-1.155
-1.125
-1.09
-1.065
-1.015
-0.98
-0.95
-0.935
-0.93
-0.945
-0.955
-0.97
-0.97
-0.975
-0.98
-0.97
-0.97
-0.935
-0.945
-0.925
-0.92
-0.94
-0.93
-0.945
-0.94
-0.965
-0.95
-0.955
-0.955
-0.96
-0.945
-0.945
-0.935
-0.93
-0.93
-0.95
-0.955
-0.955
-0.96
-0.95
-0.955
-0.945
-0.94
-0.935
-0.915
-0.935
-0.93
-0.94
-0.94
-0.94
-0.955
-0.945
-0.935
-0.93
-0.91
-0.895
-0.9
-0.895
-0.89
-0.915
-0.915
-0.91
-0.925
-0.91
-0.885
-0.885
-0.855
-0.86
-0.86
-0.845
-0.835
-0.83
-0.845
-0.825
-0.815
-0.81
-0.785
-0.79
-0.755
-0.74
-0.735
-0.72
-0.705
-0.715
-0.71
-0.705
-0.68
-0.685
-0.66
-0.635
-0.61
-0.6
-0.59
-0.565
-0.57
-0.555
-0.55
-0.545
-0.535
-0.56
-0.54
-0.515
-0.515
-0.51
-0.505
-0.51
-0.52
-0.53
-0.55
-0.57
-0.59
-0.605
-0.615
-0.62
-0.625
-0.635
-0.65
-0.67
-0.695
-0.735
-0.77
-0.79
-0.8
-0.82
-0.83
-0.83
-0.83
-0.825
-0.84
-0.84
-0.845
-0.855
-0.875
-0.885
-0.91
-0.915
-0.915
-0.91
-0.895
-0.89
-0.895
-0.9
-0.89
-0.9
-0.91
-0.91
-0.925
-0.92
-0.93
-0.91
-0.9
-0.9
-0.915
-0.895
-0.9
-0.92
-0.925
-0.92
-0.92
-0.915
-0.91
-0.895
-0.88
-0.865
-0.86
-0.865
-0.86
-0.89
-0.895
-0.895
-0.885
-0.88
-0.88
-0.87
-0.855
-0.85
-0.845
-0.845
-0.855
-0.855
-0.85
-0.86
-0.87
-0.87
-0.865
-0.855
-0.855
-0.84
-0.83
-0.83
-0.835
-0.845
-0.86
-0.885
-0.88
-0.88
-0.875
-0.855
-0.865
-0.855
-0.865
-0.85
-0.855
-0.88
-0.885
-0.905
-0.895
-0.9
-0.885
-0.875
-0.87
-0.87
-0.865
-0.88
-0.88
-0.89
-0.895
-0.9
-0.91
-0.92
-0.91
-0.905
-0.9
-0.895
-0.885
-0.9
-0.91
-0.915
-0.915
-0.93
-0.935
-0.945
-0.935
-0.93
-0.925
-0.9
-0.895
-0.895
-0.9
-0.905
-0.93
-0.925
-0.94
-0.94
-0.925
-0.915
-0.93
-0.92
-0.905
-0.915
-0.91
-0.925
-0.935
-0.94
-0.94
-0.955
-0.94
-0.915
-0.925
-0.91
-0.925
-0.91
-0.935
-0.935
-0.945
-0.945
-0.945
-0.955
-0.95
-0.955
-0.93
-0.915
-0.925
-0.915
-0.925
-0.94
-0.945
-0.945
-0.95
-0.965
-0.94
-0.945
-0.93
-0.915
-0.915
-0.915
-0.92
-0.935
-0.94
-0.945
-0.95
-0.95
-0.945
-0.945
-0.93
-0.92
-0.915
-0.915
-0.92
-0.93
-0.94
-0.96
-0.955
-0.96
-0.955
-0.955
-0.925
-0.915
-0.92
-0.915
-0.92
-0.925
-0.935
-0.945
-0.955
-0.95
-0.94
-0.925
-0.905
-0.895
-0.9
-0.89
-0.875
-0.865
-0.845
-0.845
-0.835
-0.83
-0.83
-0.81
-0.785
-0.755
-0.74
-0.725
-0.73
-0.76
-0.775
-0.795
-0.805
-0.81
-0.81
-0.805
-0.805
-0.785
-0.785
-0.79
-0.815
-0.84
-0.87
-0.905
-0.945
-0.94
-0.955
-0.935
-0.94
-0.94
-0.95
-0.96
-0.94
-0.965
-0.985
-0.98
-0.985
-0.99
-0.975
-0.97
-0.965
-0.95
-0.955
-0.955
-0.945
-0.95
-0.965
-0.965
-0.97
-0.995
-0.985
-0.975
-0.96
-0.93
-0.955
-0.935
-0.925
-0.935
-0.95
-0.95
-0.95
-0.95
-0.93
-0.915
-0.895
-0.885
-0.885
-0.85
-0.845
-0.82
-0.775
-0.695
-0.515
-0.29
-0.03
0.24
0.51
0.785
1.04
1.21
1.215
1.03
0.69
0.19
-0.395
-0.98
-1.45
-1.72
-1.795
-1.705
-1.515
-1.335
-1.205
-1.115
-1.075
-1.07
-1.05
-1.03
-0.995
-0.95
-0.925
-0.905
-0.905
-0.9
-0.9
-0.92
-0.935
-0.935
-0.93
-0.93
-0.92
-0.89
-0.895
-0.89
-0.91
-0.895
-0.89
-0.905
-0.92
-0.915
-0.92
-0.925
-0.915
-0.905
-0.9
-0.9
-0.895
-0.885
-0.895
-0.905
-0.91
-0.915
-0.915
-0.91
-0.915
-0.92
-0.91
-0.885
-0.885
-0.88
-0.885
-0.915
-0.905
-0.905
-0.905
-0.905
-0.9
-0.88
-0.89
-0.855
-0.86
-0.85
-0.845
-0.86
-0.855
-0.855
-0.865
-0.87
-0.865
-0.825
-0.82
-0.8
-0.805
-0.795
-0.795
-0.78
-0.79
-0.785
-0.79
-0.765
-0.755
-0.715
-0.7
-0.665
-0.665
-0.64
-0.62
-0.625
-0.615
-0.615
-0.6
-0.605
-0.585
-0.555
-0.545
-0.495
-0.48
-0.475
-0.45
-0.47
-0.485
-0.465
-0.465
-0.46
-0.445
-0.43
-0.415
-0.41
-0.41
-0.405
-0.435
-0.46
-0.475
-0.52
-0.525
-0.545
-0.56
-0.585
-0.605
-0.605
-0.63
-0.645
-0.68
-0.7
-0.72
-0.745
-0.755
-0.785
-0.8
-0.79
-0.79
-0.785
-0.79
-0.795
-0.8
-0.815
-0.845
-0.855
-0.86
-0.855
-0.86
-0.85
-0.84
-0.84
-0.85
-0.835
-0.845
-0.86
-0.865
-0.88
-0.885
-0.89
-0.885
-0.865
-0.865
-0.855
-0.84
-0.82
-0.845
-0.855
-0.865
-0.87
-0.87
-0.875
-0.865
-0.845
-0.84
-0.82
-0.83
-0.835
-0.825
-0.835
-0.84
-0.85
-0.845
-0.855
-0.845
-0.835
-0.835
-0.83
-0.82
-0.805
-0.83
-0.825
-0.835
-0.835
-0.845
-0.85
-0.84
-0.825
-0.82
-0.795
-0.805
-0.8
-0.805
-0.82
-0.84
-0.83
-0.84
-0.85
-0.85
-0.84
-0.82
-0.81
-0.82
-0.805
-0.84
-0.84
-0.84
-0.855
-0.885
-0.9
-0.885
-0.875
-0.86
-0.87
-0.855
-0.855
-0.85
-0.86
-0.87
-0.89
-0.895
-0.895
-0.9
-0.88
-0.89
-0.88
-0.885
-0.87
-0.875
-0.88
-0.895
-0.92
-0.915
-0.915
-0.905
-0.89
-0.89
-0.87
-0.875
-0.875
-0.885
-0.895
-0.9
-0.92
-0.93
-0.935
-0.92
-0.91
-0.9
-0.895
-0.905
-0.9
-0.9
-0.9
-0.91
-0.92
-0.925
-0.925
-0.94
-0.925
-0.91
-0.9
-0.9
-0.88
-0.885
-0.905
-0.905
-0.92
-0.92
-0.915
-0.91
-0.895
-0.89
-0.88
-0.885
-0.87
-0.875
-0.885
-0.895
-0.91
-0.92
-0.925
-0.925
-0.905
-0.9
-0.9
-0.89
-0.895
-0.905
-0.915
-0.92
-0.935
-0.94
-0.94
-0.92
-0.915
-0.915
-0.89
-0.9
-0.89
-0.89
-0.9
-0.925
-0.94
-0.93
-0.925
-0.925
-0.92
-0.9
-0.89
-0.89
-0.885
-0.89
-0.905
-0.9
-0.91
-0.915
-0.92
-0.92
-0.905
-0.9
-0.89
-0.87
-0.89
-0.88
-0.885
-0.905
-0.9
-0.92
-0.94
-0.92
-0.905
-0.9
-0.89
-0.89
-0.88
-0.9
-0.9
-0.915
-0.925
-0.915
-0.905
-0.905
-0.89
-0.88
-0.87
-0.875
-0.87
-0.865
-0.88
-0.89
-0.895
-0.9
-0.9
-0.89
-0.875
-0.865
-0.86
-0.845
-0.805
-0.8
-0.785
-0.79
-0.775
-0.775
-0.775
-0.765
-0.76
-0.735
-0.715
-0.695
-0.69
-0.71
-0.725
-0.745
-0.755
-0.775
-0.78
-0.785
-0.77
-0.775
-0.775
-0.765
-0.78
-0.795
-0.82
-0.835
-0.855
-0.895
-0.895
-0.91
-0.915
-0.925
-0.925
-0.935
-0.925
-0.945
-0.97
-0.98
-0.99
-0.99
-0.985
-0.99
-0.97
-0.965
-0.95
-0.945
-0.935
-0.955
-0.955
-0.97
-0.96
-0.97
-0.97
-0.96
-0.96
-0.945
-0.935
-0.92
-0.93
-0.92
-0.93
-0.94
-0.945
-0.95
-0.95
-0.93
-0.93
-0.91
-0.89
-0.89
-0.875
-0.86
-0.84
-0.83
-0.795
-0.72
-0.595
-0.385
-0.135
0.105
0.39
0.675
0.94
1.145
1.165
1.03
0.665
0.165
-0.46
-1.05
-1.49
-1.715
-1.71
-1.55
-1.345
-1.145
-1.03
-0.985
-0.995
-1.005
-1.015
-1.005
-0.975
-0.935
-0.92
-0.9
-0.915
-0.915
-0.935
-0.945
-0.955
-0.96
-0.95
-0.945
-0.94
-0.935
-0.93
-0.905
-0.925
-0.925
-0.92
-0.935
-0.935
-0.96
-0.96
-0.95
-0.935
-0.93
-0.91
-0.915
-0.905
-0.91
-0.92
-0.915
-0.94
-0.94
-0.95
-0.945
-0.925
-0.925
-0.905
-0.895
-0.89
-0.895
-0.91
-0.91
-0.93
-0.935
-0.93
-0.935
-0.915
-0.925
-0.905
-0.9
-0.88
-0.875
-0.87
-0.88
-0.895
-0.9
-0.905
-0.885
-0.855
-0.84
-0.825
-0.81
-0.805
-0.8
-0.795
-0.795
-0.785
-0.775
-0.775
-0.765
-0.74
-0.725
-0.705
-0.685
-0.66
-0.645
-0.66
-0.64
-0.61
-0.615
-0.615
-0.59
-0.585
-0.545
-0.525
-0.5
-0.485
-0.47
-0.46
-0.465
-0.475
-0.48
-0.445
-0.43
-0.44
-0.42
-0.415
-0.42
-0.44
-0.45
-0.47
-0.49
-0.505
-0.535
-0.56
-0.59
-0.585
-0.61
-0.615
-0.64
-0.655
-0.69
-0.7
-0.745
-0.76
-0.79
-0.795
-0.825
-0.825
-0.815
-0.805
-0.825
-0.83
-0.825
-0.84
-0.86
-0.875
-0.885
-0.895
-0.89
-0.885
-0.88
-0.885
-0.87
-0.87
-0.865
-0.88
-0.89
-0.9
-0.9
-0.91
-0.9
-0.88
-0.885
-0.875
-0.87
-0.865
-0.885
-0.905
-0.9
-0.905
-0.91
-0.905
-0.91
-0.89
-0.88
-0.88
-0.875
-0.865
-0.88
-0.88
-0.895
-0.9
-0.9
-0.925
-0.91
-0.905
-0.9
-0.885
-0.875
-0.875
-0.875
-0.88
-0.905
-0.91
-0.91
-0.915
-0.915
-0.905
-0.885
-0.89
-0.89
-0.895
-0.89
-0.905
-0.915
-0.915
-0.91
-0.91
-0.915
-0.915
-0.9
-0.9
-0.905
-0.905
-0.92
-0.925
-0.93
-0.94
-0.94
-0.95
-0.945
-0.955
-0.945
-0.93
-0.925
-0.935
-0.925
-0.935
-0.95
-0.97
-0.97
-0.965
-0.975
-0.96
-0.95
-0.935
-0.95
-0.95
-0.965
-0.97
-0.955
-0.955
-0.985
-0.99
-0.99
-1.0
-1.005
-0.97
-0.96
-0.96
-0.955
-0.97
-0.975
-0.99
-1.0
-1.0
-1.0
-0.985
-0.98
-0.97
-0.99
-0.98
-0.995
-0.985
-0.97
-0.985
-1.0
-1.01
-1.005
-0.985
-0.985
-0.97
-0.96
-0.94
-0.945
-0.965
-0.97
-0.985
-1.0
-1.01
-0.995
-0.995
-0.985
-0.98
-0.97
-0.98
-0.97
-0.975
-0.975
-0.985
-0.99
-0.995
-1.0
-0.995
-0.995
-0.99
-0.96
-0.975
-0.97
-0.975
-0.98
-0.995
-1.005
-1.01
-0.995
-0.985
-0.98
-0.98
-0.96
-0.97
-0.975
-0.975
-0.98
-0.995
-0.99
-1.005
-1.005
-1.015
-1.0
-0.985
-0.985
-0.995
-0.99
-0.995
-0.995
-1.005
-0.995
-1.005
-0.985
-0.995
-0.985
-0.98
-0.97
-0.97
-0.975
-0.98
-0.985
-0.995
-1.015
-1.025
-1.02
-1.015
-0.995
-0.98
-0.965
-0.965
-0.97
-0.97
-0.985
-0.995
-0.995
-1.0
-1.0
-0.985
-0.985
-0.98
-0.975
-0.955
-0.955
-0.965
-0.965
-0.975
-0.98
-0.985
-0.99
-0.975
-0.97
-0.965
-0.98
-0.96
-0.955
-0.97
-0.975
-0.975
-0.98
-1.005
-1.0
-1.0
-0.985
-0.975
-0.975
-0.975
-0.965
-0.965
-0.98
-0.98
-0.965
-0.965
-0.97
-0.965
-0.975
-0.97
-0.955
-0.955
-0.945
-0.935
-0.945
-0.965
-0.965
-0.965
-0.96
-0.95
-0.945
-0.92
-0.905
-0.88
-0.88
-0.86
-0.875
-0.87
-0.87
-0.885
-0.87
-0.84
-0.82
-0.79
-0.76
-0.755
-0.75
-0.77
-0.785
-0.815
-0.83
-0.835
-0.835
-0.835
-0.83
-0.815
-0.81
-0.815
-0.835
-0.85
-0.89
-0.92
-0.975
-0.99
-0.985
-0.995
-0.99
-0.98
-0.975
-0.985
-1.005
-1.015
-1.04
-1.045
-1.04
-1.055
-1.045
-1.025
-1.025
-1.0
-1.0
-1.0
-1.0
-1.0
-1.005
-1.03
-1.035
-1.055
-1.04
-1.02
-1.01
-0.99
-0.995
-0.98
-0.99
-0.99
-0.99
-0.995
-1.005
-0.995
-0.995
-0.995
-0.98
-0.955
-0.945
-0.92
-0.905
-0.875
-0.8
-0.655
-0.465
-0.24
0.02
0.29
0.58
0.87
1.035
1.015
0.76
0.315
-0.285
-0.905
-1.42
-1.74
-1.865
-1.795
-1.615
-1.415
-1.255
-1.18
-1.115
-1.095
-1.07
-1.045
-1.03
-1.005
-1.0
-1.005
-1.0
-0.995
-0.995
-1.0
-1.0
-0.99
-1.005
-0.995
-0.995
-1.005
-1.005
-1.0
-0.99
-0.96
-0.96
-0.96
-0.965
-0.98
-0.98
-1.005
-1.005
-0.99
-1.0
-0.99
-1.01
-1.0
-0.98
-0.96
-0.975
-0.985
-0.99
-0.995
-0.99
-0.99
-0.975
-0.985
-0.96
-0.96
-0.965
-0.975
-0.965
-0.97
-0.965
-0.97
-0.98
-0.975
-0.96
-0.955
-0.94
-0.935
-0.93
-0.925
-0.915
-0.93
-0.91
-0.92
-0.91
-0.915
-0.9
-0.885
-0.88
-0.87
-0.88
-0.86
-0.845
-0.835
-0.85
-0.855
-0.84
-0.845
-0.82
-0.8
-0.77
-0.75
-0.725
-0.72
-0.72
-0.72
-0.72
-0.72
-0.72
-0.71
-0.705
-0.685
-0.64
-0.615
-0.605
-0.605
-0.605
-0.585
-0.585
-0.57
-0.565
-0.57
-0.565
-0.565
-0.57
-0.565
-0.55
-0.545
-0.57
-0.585
-0.625
-0.65
-0.66
-0.695
-0.69
-0.71
-0.7
-0.71
-0.73
-0.745
-0.75
-0.795
-0.8
-0.825
-0.85
-0.845
-0.865
-0.86
-0.865
-0.86
-0.875
-0.87
-0.865
-0.875
-0.885
-0.905
-0.915
-0.9
-0.905
-0.895
-0.88
-0.88
-0.87
-0.88
-0.885
-0.89
-0.92
-0.91
-0.915
-0.925
-0.925
-0.91
-0.91
-0.915
-0.905
-0.9
-0.89
-0.915
-0.905
-0.91
-0.91
-0.92
-0.91
-0.9
-0.885
-0.88
-0.865
-0.87
-0.865
-0.88
-0.875
-0.875
-0.88
-0.88
-0.88
-0.88
-0.88
-0.855
-0.865
-0.86
-0.84
-0.85
-0.835
-0.855
-0.855
-0.87
-0.86
-0.86
-0.85
-0.845
-0.835
-0.85
-0.845
-0.85
-0.865
-0.865
-0.88
-0.885
-0.885
-0.875
-0.87
-0.88
-0.865
-0.865
-0.865
-0.87
-0.86
-0.88
-0.885
-0.905
-0.91
-0.9
-0.89
-0.895
-0.895
-0.885
-0.875
-0.89
-0.895
-0.905
-0.92
-0.915
-0.935
-0.915
-0.895
-0.905
-0.88
-0.9
-0.905
-0.89
-0.92
-0.92
-0.925
-0.925
-0.925
-0.92
-0.92
-0.91
-0.91
-0.915
-0.93
-0.9
-0.925
-0.94
-0.935
-0.93
-0.915
-0.92
-0.92
-0.915
-0.905
-0.9
-0.895
-0.895
-0.91
-0.92
-0.93
-0.925
-0.93
-0.925
-0.91
-0.905
-0.905
-0.905
-0.885
-0.905
-0.915
-0.92
-0.93
-0.945
-0.94
-0.935
-0.935
-0.915
-0.905
-0.905
-0.91
-0.905
-0.91
-0.915
-0.925
-0.92
-0.915
-0.92
-0.91
-0.89
-0.895
-0.88
-0.885
-0.9
-0.9
-0.92
-0.915
-0.91
-0.915
-0.91
-0.9
-0.9
-0.89
-0.885
-0.865
-0.885
-0.895
-0.92
-0.93
-0.94
-0.93
-0.935
-0.905
-0.89
-0.89
-0.88
-0.895
-0.89
-0.905
-0.91
-0.89
-0.895
-0.915
-0.905
-0.875
-0.87
-0.85
-0.83
-0.815
-0.81
-0.795
-0.795
-0.795
-0.8
-0.795
-0.77
-0.765
-0.73
-0.71
-0.695
-0.7
-0.73
-0.74
-0.74
-0.75
-0.775
-0.785
-0.79
-0.785
-0.79
-0.765
-0.765
-0.77
-0.775
-0.815
-0.835
-0.85
-0.875
-0.905
-0.91
-0.91
-0.91
-0.905
-0.895
-0.915
-0.925
-0.945
-0.945
-0.96
-0.96
-0.95
-0.94
-0.945
-0.95
-0.93
-0.945
-0.94
-0.95
-0.96
-0.955
-0.96
-0.955
-0.96
-0.975
-0.95
-0.945
-0.92
-0.915
-0.93
-0.91
-0.92
-0.925
-0.93
-0.93
-0.93
-0.92
-0.915
-0.89
-0.88
-0.875
-0.87
-0.855
-0.85
-0.82
-0.79
-0.74
-0.62
-0.425
-0.175
0.075
0.355
0.63
0.925
1.145
1.21
1.11
0.81
0.345
-0.245
-0.845
-1.355
-1.66
-1.725
-1.62
-1.43
-1.23
-1.09
-1.005
-0.975
-0.97
-0.96
-0.945
-0.945
-0.9
-0.88
-0.88
-0.89
-0.895
-0.9
-0.905
-0.91
-0.915
-0.925
-0.925
-0.915
-0.89
-0.875
-0.875
-0.875
-0.88
-0.875
-0.895
-0.9
-0.91
-0.89
-0.9
-0.875
-0.88
-0.855
-0.865
-0.87
-0.87
-0.88
-0.875
-0.885
-0.89
-0.89
-0.88
-0.87
-0.865
-0.845
-0.86
-0.845
-0.86
-0.87
-0.865
-0.88
-0.885
-0.88
-0.87
-0.85
-0.84
-0.83
-0.825
-0.825
-0.83
-0.83
-0.825
-0.84
-0.85
-0.825
-0.805
-0.795
-0.775
-0.765
-0.755
-0.735
-0.735
-0.725
-0.725
-0.715
-0.705
-0.695
-0.675
-0.645
-0.63
-0.62
-0.595
-0.595
-0.59
-0.555
-0.555
-0.565
-0.535
-0.52
-0.51
-0.49
-0.48
-0.46
-0.465
-0.445
-0.415
-0.425
-0.41
-0.42
-0.415
-0.42
-0.425
-0.41
-0.41
-0.415
-0.43
-0.44
-0.45
-0.49
-0.52
-0.53
-0.56
-0.59
-0.61
-0.615
-0.625
-0.64
-0.66
-0.675
-0.68
-0.72
-0.745
-0.765
-0.77
-0.78
-0.795
-0.78
-0.765
-0.77
-0.775
-0.785
-0.795
-0.82
-0.825
-0.825
-0.835
-0.815
-0.82
-0.82
-0.815
-0.81
-0.805
-0.8
-0.815
-0.805
-0.82
-0.825
-0.83
-0.825
-0.83
-0.835
-0.82
-0.8
-0.795
-0.795
-0.795
-0.8
-0.82
-0.825
-0.82
-0.81
-0.82
-0.8
-0.8
-0.785
-0.79
-0.79
-0.78
-0.785
-0.8
-0.805
-0.815
-0.805
-0.815
-0.8
-0.79
-0.775
-0.775
-0.785
-0.785
-0.785
-0.79
-0.785
-0.81
-0.795
-0.795
-0.78
-0.765
-0.76
-0.765
-0.755
-0.775
-0.79
-0.795
-0.805
-0.815
-0.83
-0.815
-0.81
-0.8
-0.805
-0.81
-0.81
-0.8
-0.82
-0.835
-0.86
-0.845
-0.85
-0.835
-0.83
-0.83
-0.815
-0.81
-0.82
-0.83
-0.83
-0.845
-0.855
-0.865
-0.87
-0.885
-0.865
-0.84
-0.84
-0.84
-0.825
-0.825
-0.84
-0.84
-0.865
-0.86
-0.865
-0.86
-0.875
-0.845
-0.845
-0.83
-0.84
-0.835
-0.835
-0.845
-0.855
-0.88
-0.875
-0.855
-0.85
-0.855
-0.85
-0.84
-0.84
-0.835
-0.85
-0.855
-0.87
-0.885
-0.87
-0.86
-0.845
-0.84
-0.835
-0.845
-0.85
-0.84
-0.84
-0.85
-0.855
-0.855
-0.855
-0.875
-0.85
-0.84
-0.83
-0.835
-0.82
-0.845
-0.85
-0.865
-0.855
-0.855
-0.885
-0.88
-0.86
-0.86
-0.845
-0.85
-0.84
-0.845
-0.85
-0.86
-0.875
-0.885
-0.885
-0.875
-0.87
-0.855
-0.84
-0.845
-0.855
-0.825
-0.86
-0.855
-0.865
-0.865
-0.875
-0.865
-0.86
-0.855
-0.85
-0.83
-0.84
-0.845
-0.855
-0.855
-0.865
-0.865
-0.885
-0.875
-0.865
-0.865
-0.85
-0.845
-0.855
-0.855
-0.865
-0.875
-0.89
-0.89
-0.89
-0.87
-0.865
-0.86
-0.845
-0.84
-0.855
-0.835
-0.84
-0.85
-0.86
-0.855
-0.87
-0.885
-0.87
-0.855
-0.84
-0.845
-0.84
-0.845
-0.855
-0.875
-0.86
-0.86
-0.875
-0.87
-0.845
-0.845
-0.83
-0.835
-0.83
-0.835
-0.825
-0.83
-0.82
-0.825
-0.815
-0.8
-0.775
-0.75
-0.73
-0.715
-0.7
-0.69
-0.715
