Lead II
-0.15
-0.185
-0.2
-0.22
-0.225
-0.235
-0.21
-0.24
-0.255
-0.27
-0.27
-0.25
-0.245
-0.26
-0.28
-0.285
-0.265
-0.265
-0.24
-0.27
-0.28
-0.275
-0.28
-0.275
-0.26
-0.25
-0.265
-0.285
-0.265
-0.245
-0.23
-0.245
-0.255
-0.27
-0.255
-0.235
-0.23
-0.25
-0.24
-0.255
-0.245
-0.24
-0.225
-0.24
-0.235
-0.26
-0.245
-0.23
-0.21
-0.215
-0.235
-0.245
-0.24
-0.225
-0.22
-0.22
-0.24
-0.255
-0.265
-0.25
-0.23
-0.225
-0.225
-0.26
-0.245
-0.24
-0.225
-0.23
-0.25
-0.255
-0.25
-0.245
-0.24
-0.25
-0.245
-0.265
-0.265
-0.255
-0.23
-0.24
-0.255
-0.275
-0.265
-0.26
-0.25
-0.24
-0.25
-0.26
-0.265
-0.255
-0.26
-0.25
-0.255
-0.265
-0.26
-0.255
-0.245
-0.25
-0.265
-0.265
-0.265
-0.255
-0.235
-0.245
-0.25
-0.27
-0.27
-0.25
-0.245
-0.245
-0.265
-0.275
-0.265
-0.25
-0.235
-0.235
-0.25
-0.265
-0.245
-0.245
-0.23
-0.23
-0.245
-0.265
-0.245
-0.23
-0.22
-0.22
-0.245
-0.27
-0.245
-0.23
-0.235
-0.225
-0.235
-0.25
-0.26
-0.235
-0.22
-0.225
-0.235
-0.255
-0.255
-0.245
-0.22
-0.225
-0.25
-0.275
-0.25
-0.225
-0.21
-0.205
-0.24
-0.24
-0.225
-0.21
-0.195
-0.205
-0.21
-0.215
-0.195
-0.175
-0.16
-0.16
-0.18
-0.17
-0.175
-0.155
-0.135
-0.115
-0.14
-0.15
-0.15
-0.14
-0.12
-0.135
-0.15
-0.165
-0.165
-0.17
-0.175
-0.195
-0.195
-0.205
-0.21
-0.195
-0.175
-0.185
-0.195
-0.21
-0.195
-0.2
-0.18
-0.195
-0.195
-0.2
-0.19
-0.18
-0.17
-0.16
-0.18
-0.18
-0.175
-0.155
-0.125
-0.145
-0.17
-0.215
-0.24
-0.255
-0.26
-0.255
-0.225
-0.11
0.14
0.53
0.995
1.44
1.815
2.035
2.115
1.975
1.555
0.915
0.275
-0.365
-0.51
-0.38
-0.29
-0.285
-0.33
-0.325
-0.305
-0.26
-0.2
-0.155
-0.13
-0.115
-0.13
-0.1
-0.09
-0.09
-0.1
-0.11
-0.105
-0.095
-0.085
-0.07
-0.085
-0.1
-0.085
-0.08
-0.065
-0.065
-0.07
-0.085
-0.08
-0.075
-0.045
-0.045
-0.065
-0.07
-0.075
-0.05
-0.035
-0.035
-0.05
-0.06
-0.06
-0.045
-0.025
-0.02
-0.03
-0.035
-0.04
-0.01
0.005
0.005
-0.025
-0.035
-0.015
0.005
0.02
0.015
0.015
0.015
0.02
0.045
0.06
0.06
0.065
0.065
0.08
0.105
0.125
0.135
0.12
0.13
0.145
0.175
0.205
0.21
0.215
0.22
0.23
0.26
0.285
0.295
0.32
0.33
0.35
0.39
0.43
0.445
0.46
0.485
0.51
0.55
0.595
0.6
0.615
0.63
0.67
0.7
0.72
0.75
0.765
0.78
0.81
0.825
0.845
0.845
0.84
0.825
0.815
0.8
0.775
0.725
0.68
0.605
0.545
0.5
0.45
0.365
0.31
0.245
0.195
0.165
0.125
0.075
0.02
-0.025
-0.035
-0.07
-0.085
-0.105
-0.135
-0.165
-0.18
-0.17
-0.165
-0.18
-0.19
-0.2
-0.205
-0.205
-0.205
-0.205
-0.225
-0.235
-0.235
-0.23
-0.215
-0.21
-0.23
-0.24
-0.23
-0.23
-0.21
-0.21
-0.23
-0.25
-0.235
-0.215
-0.215
-0.22
-0.23
-0.235
-0.23
-0.215
-0.205
-0.215
-0.225
-0.235
-0.235
-0.205
-0.19
-0.205
-0.21
-0.22
-0.225
-0.21
-0.195
-0.205
-0.215
-0.22
-0.225
-0.215
-0.2
-0.205
-0.22
-0.22
-0.245
-0.21
-0.21
-0.205
-0.225
-0.23
-0.215
-0.23
-0.2
-0.215
-0.225
-0.245
-0.235
-0.23
-0.22
-0.225
-0.225
-0.24
-0.24
-0.225
-0.21
-0.22
-0.24
-0.25
-0.255
-0.24
-0.23
-0.225
-0.245
-0.265
-0.24
-0.24
-0.235
-0.23
-0.25
-0.265
-0.255
-0.245
-0.23
-0.23
-0.24
-0.25
-0.245
-0.235
-0.22
-0.245
-0.25
-0.25
-0.245
-0.235
-0.22
-0.22
-0.255
-0.265
-0.255
-0.23
-0.215
-0.225
-0.24
-0.245
-0.235
-0.225
-0.205
-0.24
-0.24
-0.245
-0.24
-0.225
-0.21
-0.22
-0.235
-0.235
-0.23
-0.215
-0.21
-0.23
-0.23
-0.245
-0.23
-0.225
-0.22
-0.21
-0.225
-0.225
-0.225
-0.22
-0.22
-0.22
-0.24
-0.24
-0.225
-0.215
-0.21
-0.215
-0.225
-0.235
-0.235
-0.22
-0.21
-0.21
-0.23
-0.25
-0.23
-0.22
-0.22
-0.21
-0.215
-0.23
-0.23
-0.215
-0.2
-0.2
-0.21
-0.225
-0.205
-0.2
-0.19
-0.2
-0.205
-0.215
-0.215
-0.195
-0.195
-0.195
-0.205
-0.225
-0.21
-0.2
-0.18
-0.19
-0.195
-0.215
-0.215
-0.2
-0.19
-0.19
-0.205
-0.205
-0.195
-0.19
-0.165
-0.165
-0.17
-0.18
-0.16
-0.13
-0.125
-0.13
-0.13
-0.135
-0.125
-0.105
-0.1
-0.11
-0.13
-0.14
-0.14
-0.115
-0.115
-0.125
-0.145
-0.175
-0.185
-0.165
-0.16
-0.185
-0.175
-0.19
-0.19
-0.17
-0.16
-0.16
-0.175
-0.185
-0.185
-0.17
-0.16
-0.165
-0.165
-0.165
-0.155
-0.14
-0.115
-0.135
-0.15
-0.175
-0.21
-0.225
-0.24
-0.25
-0.23
-0.125
0.125
0.56
1.08
1.555
1.87
2.045
2.0
1.69
1.07
0.43
-0.21
-0.52
-0.4
-0.295
-0.245
-0.26
-0.28
-0.27
-0.235
-0.165
-0.115
-0.08
-0.075
-0.08
-0.085
-0.065
-0.055
-0.045
-0.075
-0.07
-0.075
-0.05
-0.04
-0.03
-0.05
-0.055
-0.035
-0.025
-0.02
-0.03
-0.035
-0.04
-0.025
-0.01
-0.02
-0.005
-0.01
-0.03
-0.015
0.005
0.015
0.015
-0.005
-0.005
-0.005
0.01
0.035
0.025
0.02
0.005
0.015
0.045
0.05
0.05
0.04
0.03
0.04
0.075
0.09
0.085
0.075
0.065
0.075
0.1
0.125
0.12
0.125
0.105
0.125
0.135
0.16
0.18
0.185
0.18
0.19
0.215
0.24
0.245
0.235
0.25
0.28
0.3
0.335
0.335
0.335
0.345
0.38
0.405
0.435
0.465
0.47
0.49
0.51
0.545
0.605
0.62
0.62
0.62
0.65
0.685
0.73
0.74
0.75
0.76
0.795
0.825
0.855
0.865
0.87
0.865
0.88
0.88
0.87
0.845
0.795
0.75
0.715
0.685
0.645
0.58
0.51
0.445
0.385
0.35
0.315
0.25
0.195
0.13
0.1
0.075
0.06
0.02
-0.03
-0.045
-0.07
-0.075
-0.08
-0.1
-0.14
-0.15
-0.155
-0.145
-0.15
-0.145
-0.175
-0.175
-0.175
-0.165
-0.15
-0.165
-0.175
-0.195
-0.215
-0.175
-0.18
-0.18
-0.195
-0.195
-0.2
-0.185
-0.18
-0.19
-0.2
-0.205
-0.19
-0.185
-0.16
-0.165
-0.205
-0.19
-0.185
-0.18
-0.16
-0.16
-0.185
-0.195
-0.185
-0.175
-0.16
-0.18
-0.18
-0.18
-0.18
-0.17
-0.165
-0.165
-0.175
-0.19
-0.185
-0.18
-0.155
-0.165
-0.175
-0.19
-0.19
-0.18
-0.175
-0.18
-0.195
-0.215
-0.215
-0.195
-0.18
-0.195
-0.2
-0.21
-0.21
-0.185
-0.17
-0.185
-0.2
-0.2
-0.205
-0.19
-0.185
-0.195
-0.205
-0.21
-0.21
-0.185
-0.175
-0.19
-0.195
-0.215
-0.21
-0.2
-0.18
-0.185
-0.19
-0.205
-0.21
-0.19
-0.185
-0.185
-0.205
-0.21
-0.205
-0.185
-0.185
-0.185
-0.195
-0.2
-0.215
-0.19
-0.17
-0.18
-0.205
-0.21
-0.195
-0.175
-0.18
-0.185
-0.19
-0.21
-0.19
-0.185
-0.18
-0.185
-0.2
-0.215
-0.19
-0.18
-0.175
-0.19
-0.2
-0.195
-0.205
-0.185
-0.175
-0.185
-0.195
-0.2
-0.205
-0.19
-0.18
-0.19
-0.205
-0.195
-0.185
-0.175
-0.17
-0.17
-0.19
-0.205
-0.19
-0.185
-0.165
-0.185
-0.18
-0.18
-0.18
-0.16
-0.13
-0.145
-0.145
-0.135
-0.12
-0.105
-0.1
-0.1
-0.095
-0.095
-0.105
-0.08
-0.095
-0.115
-0.12
-0.125
-0.11
-0.12
-0.13
-0.14
-0.16
-0.18
-0.175
-0.16
-0.16
-0.165
-0.18
-0.185
-0.18
-0.16
-0.145
-0.15
-0.16
-0.165
-0.15
-0.145
-0.115
-0.115
-0.155
-0.2
-0.235
-0.255
-0.225
-0.1
0.185
0.67
1.275
1.8
2.135
2.195
1.875
1.235
0.595
-0.045
-0.52
-0.34
-0.255
-0.255
-0.295
-0.285
-0.225
-0.165
-0.12
-0.095
-0.08
-0.065
-0.065
-0.06
-0.065
-0.07
-0.06
-0.04
-0.035
-0.04
-0.04
-0.045
-0.045
-0.04
-0.015
-0.025
-0.05
-0.045
-0.035
-0.01
-0.015
-0.015
-0.025
-0.03
-0.03
-0.01
0.0
0.0
-0.015
-0.02
0.0
0.01
0.015
0.015
0.005
0.005
0.01
0.025
0.035
0.03
0.02
0.0
0.02
0.04
0.04
0.04
0.045
0.045
0.055
0.085
0.085
0.075
0.08
0.085
0.1
0.12
0.14
0.14
0.14
0.14
0.145
0.17
0.195
0.205
0.205
0.21
0.205
0.245
0.265
0.27
0.265
0.285
0.305
0.33
0.355
0.375
0.385
0.4
0.43
0.465
0.48
0.48
0.5
0.515
0.55
0.58
0.605
0.62
0.625
0.64
0.665
0.695
0.73
0.745
0.75
0.76
0.79
0.815
0.855
0.85
0.855
0.86
0.87
0.875
0.885
0.85
0.81
0.8
0.76
0.745
0.7
0.645
0.585
0.53
0.48
0.445
0.385
0.325
0.26
0.205
0.17
0.145
0.105
0.06
0.015
-0.025
-0.04
-0.065
-0.065
-0.09
-0.125
-0.14
-0.16
-0.165
-0.165
-0.175
-0.195
-0.205
-0.195
-0.19
-0.18
-0.205
-0.215
-0.23
-0.22
-0.215
-0.215
-0.225
-0.25
-0.245
-0.23
-0.225
-0.225
-0.235
-0.245
-0.245
-0.24
-0.23
-0.23
-0.225
-0.235
-0.24
-0.245
-0.23
-0.235
-0.225
-0.24
-0.25
-0.245
-0.235
-0.235
-0.24
-0.245
-0.24
-0.225
-0.215
-0.2
-0.21
-0.235
-0.235
-0.21
-0.205
-0.21
-0.21
-0.22
-0.23
-0.22
-0.21
-0.215
-0.22
-0.23
-0.235
-0.23
-0.215
-0.22
-0.235
-0.23
-0.25
-0.255
-0.23
-0.23
-0.245
-0.245
-0.26
-0.255
-0.25
-0.23
-0.255
-0.28
-0.275
-0.265
-0.255
-0.24
-0.245
-0.27
-0.275
-0.26
-0.245
-0.25
-0.26
-0.275
-0.27
-0.26
-0.25
-0.245
-0.255
-0.27
-0.285
-0.265
-0.255
-0.24
-0.25
-0.275
-0.29
-0.26
-0.26
-0.25
-0.25
-0.27
-0.285
-0.28
-0.265
-0.245
-0.26
-0.28
-0.285
-0.275
-0.265
-0.25
-0.26
-0.27
-0.29
-0.285
-0.26
-0.27
-0.27
-0.28
-0.28
-0.27
-0.26
-0.255
-0.27
-0.28
-0.29
-0.27
-0.27
-0.26
-0.265
-0.27
-0.285
-0.28
-0.26
-0.25
-0.26
-0.255
-0.265
-0.235
-0.225
-0.21
-0.21
-0.22
-0.215
-0.21
-0.18
-0.18
-0.175
-0.19
-0.2
-0.165
-0.16
-0.16
-0.16
-0.185
-0.195
-0.195
-0.195
-0.195
-0.2
-0.24
-0.24
-0.25
-0.25
-0.255
-0.27
-0.275
-0.29
-0.27
-0.27
-0.265
-0.265
-0.275
-0.265
-0.255
-0.245
-0.23
-0.25
-0.25
-0.255
-0.255
-0.24
-0.235
-0.225
-0.24
-0.245
-0.245
-0.235
-0.255
-0.3
-0.345
-0.385
-0.38
-0.345
-0.265
-0.105
0.17
0.585
1.06
1.475
1.75
1.885
1.86
1.615
1.08
0.44
-0.2
-0.61
-0.545
-0.42
-0.375
-0.385
-0.41
-0.4
-0.405
-0.375
-0.32
-0.28
-0.23
-0.21
-0.205
-0.195
-0.195
-0.175
-0.18
-0.175
-0.2
-0.175
-0.19
-0.17
-0.16
-0.16
-0.17
-0.16
-0.15
-0.145
-0.125
-0.15
-0.145
-0.14
-0.13
-0.125
-0.11
-0.125
-0.145
-0.145
-0.13
-0.11
-0.105
-0.11
-0.125
-0.12
-0.11
-0.085
-0.085
-0.085
-0.105
-0.115
-0.09
-0.08
-0.07
-0.08
-0.09
-0.08
-0.075
-0.055
-0.035
-0.05
-0.055
-0.06
-0.06
-0.035
-0.03
-0.03
-0.04
-0.05
-0.03
-0.005
0.015
0.02
0.01
0.01
0.03
0.045
0.065
0.07
0.07
0.075
0.09
0.11
0.135
0.14
0.14
0.135
0.165
0.185
0.215
0.24
0.225
0.25
0.275
0.305
0.325
0.34
0.355
0.37
0.4
0.43
0.45
0.47
0.47
0.495
0.525
0.565
0.595
0.6
0.615
0.62
0.665
0.705
0.725
0.73
0.725
0.74
0.77
0.795
0.805
0.8
0.77
0.75
0.73
0.71
0.695
0.64
0.585
0.52
0.49
0.445
0.385
0.33
0.255
0.215
0.155
0.11
0.075
0.03
-0.025
-0.065
-0.105
-0.105
-0.12
-0.155
-0.19
-0.215
-0.235
-0.225
-0.225
-0.25
-0.26
-0.295
-0.285
-0.275
-0.27
-0.29
-0.315
-0.31
-0.31
-0.3
-0.295
-0.305
-0.315
-0.315
-0.31
-0.3
-0.3
-0.315
-0.315
-0.32
-0.305
-0.285
-0.285
-0.285
-0.34
-0.32
-0.3
-0.305
-0.29
-0.305
-0.31
-0.325
-0.31
-0.305
-0.305
-0.305
-0.315
-0.31
-0.3
-0.28
-0.28
-0.28
-0.295
-0.305
-0.295
-0.265
-0.265
-0.28
-0.285
-0.285
-0.275
-0.27
-0.27
-0.285
-0.29
-0.295
-0.28
-0.275
-0.265
-0.295
-0.305
-0.315
-0.3
-0.285
-0.29
-0.29
-0.305
-0.325
-0.3
-0.295
-0.285
-0.29
-0.31
-0.315
-0.315
-0.3
-0.29
-0.3
-0.31
-0.305
-0.295
-0.27
-0.27
-0.265
-0.27
-0.26
-0.24
-0.245
-0.235
-0.225
-0.23
-0.22
-0.19
-0.175
-0.17
-0.185
-0.2
-0.205
-0.22
-0.215
-0.23
-0.25
-0.26
-0.275
-0.275
-0.29
-0.29
-0.31
-0.325
-0.335
-0.33
-0.32
-0.32
-0.32
-0.34
-0.345
-0.335
-0.31
-0.31
-0.31
-0.325
-0.32
-0.315
-0.29
-0.305
-0.305
-0.31
-0.305
-0.29
-0.265
-0.28
-0.29
-0.32
-0.355
-0.39
-0.4
-0.41
-0.395
-0.335
-0.155
0.18
0.625
1.09
1.49
1.75
1.87
1.805
1.475
0.835
0.195
-0.445
-0.68
-0.555
-0.45
-0.435
-0.46
-0.495
-0.485
-0.465
-0.42
-0.39
-0.35
-0.31
-0.27
-0.235
-0.215
-0.22
-0.23
-0.23
-0.23
-0.215
-0.2
-0.195
-0.21
-0.215
-0.205
-0.195
-0.17
-0.175
-0.175
-0.2
-0.2
-0.185
-0.165
-0.16
-0.16
-0.175
-0.195
-0.175
-0.145
-0.135
-0.14
-0.16
-0.155
-0.135
-0.12
-0.12
-0.125
-0.135
-0.135
-0.12
-0.105
-0.1
-0.12
-0.11
-0.12
-0.085
-0.08
-0.07
-0.075
-0.065
-0.075
-0.055
-0.02
-0.01
-0.02
-0.025
-0.015
0.005
0.01
0.02
0.03
0.015
0.025
0.07
0.085
0.09
0.1
0.1
0.12
0.135
0.175
0.19
0.21
0.21
0.235
0.26
0.3
0.315
0.32
0.345
0.365
0.415
0.45
0.46
0.485
0.49
0.51
0.55
0.605
0.62
0.635
0.65
0.68
0.715
0.745
0.78
0.79
0.795
0.8
0.825
0.84
0.825
0.8
0.755
0.71
0.68
0.64
0.57
0.515
0.435
0.36
0.3
0.245
0.195
0.135
0.06
0.0
-0.02
-0.07
-0.095
-0.14
-0.165
-0.195
-0.215
-0.235
-0.23
-0.265
-0.29
-0.305
-0.305
-0.3
-0.31
-0.31
-0.34
-0.345
-0.34
-0.33
-0.32
-0.34
-0.375
-0.36
-0.345
-0.325
-0.33
-0.34
-0.355
-0.36
-0.34
-0.33
-0.335
-0.325
-0.34
-0.345
-0.335
-0.31
-0.315
-0.325
-0.32
-0.33
-0.325
-0.3
-0.295
-0.305
-0.315
-0.32
-0.31
-0.3
-0.295
-0.295
-0.305
-0.315
-0.315
-0.3
-0.285
-0.305
-0.31
-0.305
-0.3
-0.29
-0.29
-0.3
-0.295
-0.315
-0.295
-0.29
-0.3
-0.305
-0.315
-0.31
-0.3
-0.285
-0.285
-0.295
-0.32
-0.32
-0.305
-0.285
-0.295
-0.3
-0.305
-0.295
-0.27
-0.26
-0.235
-0.245
-0.24
-0.255
-0.26
-0.215
-0.195
-0.195
-0.215
-0.21
-0.19
-0.18
-0.165
-0.185
-0.22
-0.23
-0.245
-0.255
-0.25
-0.265
-0.27
-0.295
-0.305
-0.31
-0.31
-0.33
-0.345
-0.34
-0.34
-0.315
-0.305
-0.32
-0.345
-0.345
-0.33
-0.315
-0.31
-0.32
-0.325
-0.33
-0.32
-0.305
-0.31
-0.305
-0.315
-0.315
-0.3
-0.28
-0.285
-0.28
-0.305
-0.345
-0.365
-0.385
-0.4
-0.43
-0.43
-0.35
-0.195
0.075
0.455
0.88
1.29
1.64
1.865
1.95
1.84
1.455
0.83
0.19
-0.45
-0.675
-0.595
-0.5
-0.485
-0.49
-0.47
-0.455
-0.435
-0.42
-0.39
-0.36
-0.305
-0.255
-0.25
-0.27
-0.27
-0.26
-0.265
-0.245
-0.23
-0.25
-0.255
-0.25
-0.22
-0.21
-0.215
-0.215
-0.22
-0.24
-0.22
-0.195
-0.205
-0.2
-0.21
-0.215
-0.2
-0.19
-0.185
-0.195
-0.21
-0.205
-0.195
-0.185
-0.175
-0.195
-0.185
-0.18
-0.175
-0.175
-0.165
-0.165
-0.165
-0.18
-0.155
-0.125
-0.135
-0.15
-0.155
-0.155
-0.135
-0.115
-0.105
-0.095
-0.115
-0.12
-0.105
-0.085
-0.075
-0.06
-0.075
-0.06
-0.045
-0.015
-0.015
-0.025
-0.045
-0.025
0.0
0.035
0.055
0.045
0.05
0.06
0.095
0.105
0.12
0.115
0.12
0.145
0.18
0.22
0.25
0.26
0.27
0.295
0.32
0.365
0.4
0.405
0.42
0.44
0.48
0.51
0.54
0.545
0.555
0.565
0.62
0.645
0.685
0.695
0.695
0.715
0.735
0.765
0.76
0.735
0.71
0.67
0.635
0.625
0.56
0.485
0.425
0.36
0.305
0.27
0.2
0.135
0.075
0.025
-0.015
-0.06
-0.08
-0.145
-0.185
-0.23
-0.22
-0.24
-0.25
-0.27
-0.29
-0.315
-0.305
-0.305
-0.315
-0.33
-0.36
-0.345
-0.34
-0.34
-0.33
-0.34
-0.35
-0.355
-0.345
-0.34
-0.345
-0.36
-0.355
-0.355
-0.35
-0.345
-0.345
-0.35
-0.355
-0.355
-0.355
-0.34
-0.34
-0.345
-0.355
-0.36
-0.35
-0.33
-0.325
-0.345
-0.36
-0.345
-0.33
-0.31
-0.315
-0.325
-0.34
-0.35
-0.34
-0.32
-0.335
-0.335
-0.345
-0.335
-0.33
-0.32
-0.315
-0.335
-0.35
-0.355
-0.35
-0.32
-0.32
-0.33
-0.345
-0.35
-0.32
-0.315
-0.33
-0.33
-0.335
-0.34
-0.335
-0.315
-0.31
-0.33
-0.345
-0.35
-0.335
-0.32
-0.325
-0.345
-0.35
-0.35
-0.35
-0.31
-0.305
-0.32
-0.315
-0.305
-0.285
-0.26
-0.265
-0.27
-0.275
-0.27
-0.245
-0.215
-0.21
-0.205
-0.21
-0.21
-0.19
-0.21
-0.205
-0.22
-0.25
-0.25
-0.255
-0.26
-0.25
-0.27
-0.315
-0.31
-0.315
-0.305
-0.305
-0.32
-0.34
-0.325
-0.315
-0.315
-0.31
-0.315
-0.33
-0.325
-0.325
-0.32
-0.315
-0.315
-0.33
-0.33
-0.325
-0.295
-0.295
-0.3
-0.315
-0.3
-0.295
-0.26
-0.27
-0.275
-0.275
-0.295
-0.33
-0.35
-0.38
-0.405
-0.405
-0.365
-0.255
-0.06
0.25
0.655
1.065
1.45
1.75
1.915
1.91
1.72
1.255
0.615
-0.025
-0.565
-0.61
-0.505
-0.44
-0.44
-0.42
-0.395
-0.39
-0.385
-0.36
-0.32
-0.25
-0.215
-0.195
-0.21
-0.215
-0.22
-0.21
-0.195
-0.19
-0.205
-0.215
-0.205
-0.19
-0.17
-0.18
-0.18
-0.195
-0.18
-0.18
-0.16
-0.155
-0.175
-0.185
-0.185
-0.16
-0.15
-0.15
-0.15
-0.17
-0.165
-0.16
-0.125
-0.135
-0.15
-0.15
-0.135
-0.135
-0.11
-0.11
-0.13
-0.125
-0.125
-0.105
-0.095
-0.1
-0.11
-0.105
-0.105
-0.08
-0.05
-0.06
-0.065
-0.065
-0.045
-0.03
-0.005
-0.005
-0.015
-0.005
0.0
0.025
0.045
0.05
0.055
0.06
0.075
0.09
0.11
0.135
0.14
0.14
0.15
0.18
0.23
0.255
0.275
0.28
0.32
0.355
0.385
0.415
0.425
0.435
0.47
0.495
0.54
0.55
0.58
0.59
0.605
0.65
0.675
0.7
0.71
0.72
0.725
0.755
0.76
0.76
0.725
0.685
0.665
0.605
0.565
0.495
0.425
0.365
0.305
0.25
0.205
0.145
0.09
0.025
-0.02
-0.06
-0.075
-0.095
-0.135
-0.175
-0.185
-0.19
-0.19
-0.21
-0.24
-0.26
-0.265
-0.275
-0.27
-0.255
-0.275
-0.3
-0.305
-0.295
-0.27
-0.275
-0.3
-0.305
-0.31
-0.29
-0.27
-0.275
-0.29
-0.3
-0.305
-0.285
-0.29
-0.285
-0.3
-0.3
-0.3
-0.29
-0.28
-0.265
-0.295
-0.29
-0.3
-0.285
-0.28
-0.285
-0.295
-0.305
-0.3
-0.295
-0.28
-0.275
-0.29
-0.315
-0.3
-0.28
-0.275
-0.27
-0.285
-0.31
-0.31
-0.295
-0.28
-0.275
-0.29
-0.29
-0.295
-0.285
-0.26
-0.265
-0.285
-0.295
-0.305
-0.295
-0.275
-0.285
-0.295
-0.305
-0.31
-0.305
-0.3
-0.3
-0.305
-0.32
-0.325
-0.31
-0.295
-0.31
-0.315
-0.325
-0.325
-0.3
-0.3
-0.305
-0.305
-0.315
-0.315
-0.315
-0.29
-0.305
-0.33
-0.345
-0.33
-0.32
-0.305
-0.31
-0.31
-0.32
-0.325
-0.32
-0.295
-0.305
-0.3
-0.315
-0.32
-0.3
-0.28
-0.295
-0.31
-0.315
-0.31
-0.3
-0.29
-0.3
-0.3
-0.3
-0.305
-0.29
-0.28
-0.28
-0.295
-0.3
-0.3
-0.3
-0.275
-0.285
-0.295
-0.305
-0.31
-0.3
-0.29
-0.3
-0.31
-0.32
-0.31
-0.295
-0.28
-0.275
-0.285
-0.28
-0.27
-0.255
-0.23
-0.22
-0.225
-0.225
-0.22
-0.215
-0.2
-0.2
-0.205
-0.185
-0.185
-0.165
-0.155
-0.185
-0.195
-0.22
-0.225
-0.215
-0.205
-0.21
-0.24
-0.28
-0.295
-0.275
-0.265
-0.28
-0.3
-0.29
-0.295
-0.275
-0.26
-0.26
-0.285
-0.3
-0.28
-0.275
-0.255
-0.26
-0.265
-0.275
-0.275
-0.265
-0.25
-0.245
-0.245
-0.245
-0.255
-0.25
-0.25
-0.28
-0.34
-0.375
-0.39
-0.365
-0.31
-0.155
0.175
0.64
1.145
1.63
1.935
2.05
1.925
1.505
0.865
0.225
-0.415
-0.59
-0.47
-0.395
-0.385
-0.4
-0.38
-0.355
-0.345
-0.295
-0.255
-0.2
-0.17
-0.175
-0.195
-0.21
-0.195
-0.18
-0.165
-0.17
-0.17
-0.175
-0.18
-0.17
-0.16
-0.155
-0.16
-0.18
-0.185
-0.15
-0.14
-0.145
-0.155
-0.175
-0.17
-0.145
-0.13
-0.135
-0.14
-0.145
-0.145
-0.135
-0.12
-0.13
-0.12
-0.12
-0.13
-0.105
-0.085
-0.095
-0.115
-0.105
-0.11
-0.095
-0.08
-0.065
-0.08
-0.08
-0.08
-0.055
-0.035
-0.035
-0.035
-0.035
-0.02
0.0
0.02
0.03
0.015
0.03
0.05
0.05
0.08
0.08
0.075
0.085
0.125
0.145
0.175
0.19
0.205
0.225
0.24
0.28
0.33
0.335
0.365
0.375
0.4
0.445
0.47
0.505
0.535
0.52
0.555
0.605
0.66
0.68
0.68
0.69
0.71
0.715
0.77
0.77
0.74
0.715
0.68
0.65
0.61
0.535
0.465
0.405
0.335
0.28
0.235
0.19
0.1
0.045
-0.005
-0.05
-0.07
-0.12
-0.15
-0.195
-0.21
-0.215
-0.22
-0.23
-0.255
-0.28
-0.285
-0.29
-0.27
-0.29
-0.3
-0.31
-0.33
-0.295
-0.29
-0.3
-0.305
-0.32
-0.325
-0.325
-0.305
-0.295
-0.335
-0.345
-0.345
-0.315
-0.305
-0.315
-0.33
-0.34
-0.33
-0.32
-0.31
-0.315
-0.34
-0.355
-0.34
-0.325
-0.31
-0.33
-0.35
-0.335
-0.325
-0.32
-0.315
-0.315
-0.335
-0.335
-0.33
-0.335
-0.32
-0.33
-0.335
-0.34
-0.335
-0.32
-0.315
-0.32
-0.335
-0.35
-0.345
-0.33
-0.325
-0.32
-0.35
-0.36
-0.345
-0.335
-0.32
-0.33
-0.33
-0.34
-0.34
-0.335
-0.335
-0.33
-0.34
-0.345
-0.355
-0.34
-0.32
-0.32
-0.325
-0.34
-0.33
-0.305
-0.28
-0.275
-0.295
-0.305
-0.3
-0.285
-0.265
-0.26
-0.265
-0.255
-0.24
-0.225
-0.205
-0.22
-0.24
-0.275
-0.3
-0.295
-0.28
-0.295
-0.315
-0.34
-0.36
-0.34
-0.335
-0.33
-0.355
-0.39
-0.375
-0.365
-0.355
-0.345
-0.36
-0.375
-0.375
-0.355
-0.36
-0.35
-0.365
-0.375
-0.375
-0.355
-0.345
-0.355
-0.345
-0.355
-0.36
-0.34
-0.345
-0.385
-0.42
-0.465
-0.48
-0.455
-0.385
-0.245
0.0
0.4
0.915
1.375
1.715
1.87
1.765
1.335
0.695
0.055
-0.585
-0.715
-0.58
-0.495
-0.5
-0.51
-0.5
-0.49
-0.455
-0.42
-0.375
-0.315
-0.31
-0.265
-0.29
-0.3
-0.295
-0.285
-0.28
-0.28
-0.28
-0.3
-0.295
-0.275
-0.255
-0.255
-0.265
-0.28
-0.26
-0.245
-0.23
-0.235
-0.245
-0.26
-0.25
-0.235
-0.225
-0.215
-0.23
-0.23
-0.225
-0.21
-0.19
-0.2
-0.205
-0.205
-0.2
-0.19
-0.175
-0.165
-0.175
-0.18
-0.185
-0.17
-0.145
-0.145
-0.155
-0.145
-0.145
-0.115
-0.105
-0.11
-0.12
-0.115
-0.085
-0.07
-0.045
-0.03
-0.035
-0.04
-0.025
0.0
0.025
0.03
0.035
0.04
0.06
0.09
0.12
0.125
0.15
0.155
0.19
0.23
0.245
0.29
0.305
0.315
0.35
0.395
0.44
0.465
0.47
0.485
0.515
0.56
0.6
0.62
0.625
0.645
0.665
0.695
0.715
0.72
0.7
0.68
0.63
0.61
0.59
0.53
0.46
0.385
0.325
0.27
0.2
0.135
0.075
0.015
-0.03
-0.075
-0.12
-0.16
-0.21
-0.24
-0.26
-0.275
-0.295
-0.315
-0.345
-0.355
-0.38
-0.365
-0.355
-0.375
-0.39
-0.405
-0.4
-0.38
-0.375
-0.395
-0.415
-0.42
-0.405
-0.395
-0.39
-0.395
-0.4
-0.405
-0.405
-0.39
-0.375
-0.375
-0.39
-0.385
-0.385
-0.37
-0.37
-0.36
-0.355
-0.38
-0.37
-0.36
-0.345
-0.355
-0.355
-0.365
-0.36
-0.335
-0.33
-0.33
-0.335
-0.355
-0.335
-0.335
-0.33
-0.32
-0.325
-0.335
-0.34
-0.32
-0.315
-0.315
-0.325
-0.35
-0.345
-0.33
-0.34
-0.345
-0.345
-0.345
-0.36
-0.34
-0.32
-0.315
-0.325
-0.35
-0.33
-0.33
-0.31
-0.31
-0.31
-0.3
-0.305
-0.295
-0.27
-0.26
-0.265
-0.27
-0.25
-0.23
-0.21
-0.22
-0.22
-0.225
-0.245
-0.25
-0.245
-0.255
-0.27
-0.3
-0.305
-0.315
-0.32
-0.34
-0.36
-0.375
-0.365
-0.375
-0.355
-0.35
-0.35
-0.375
-0.37
-0.345
-0.345
-0.35
-0.36
-0.37
-0.355
-0.355
-0.34
-0.33
-0.35
-0.355
-0.335
-0.32
-0.32
-0.335
-0.32
-0.335
-0.37
-0.395
-0.42
-0.45
-0.465
-0.425
-0.3
-0.045
0.34
0.8
1.24
1.59
1.82
1.905
1.775
1.335
0.695
0.055
-0.585
-0.705
-0.535
-0.445
-0.46
-0.485
-0.465
-0.415
-0.335
-0.295
-0.275
-0.265
-0.27
-0.26
-0.26
-0.24
-0.28
-0.265
-0.255
-0.245
-0.22
-0.235
-0.245
-0.265
-0.255
-0.225
-0.215
-0.215
-0.225
-0.23
-0.225
-0.2
-0.185
-0.205
-0.205
-0.205
-0.2
-0.19
-0.16
-0.17
-0.175
-0.18
-0.16
-0.155
-0.14
-0.135
-0.135
-0.135
-0.125
-0.11
-0.08
-0.07
-0.075
-0.07
-0.06
-0.04
-0.01
0.005
0.005
0.015
0.04
0.07
0.095
0.115
0.115
0.11
0.15
0.185
0.225
0.225
0.255
0.265
0.315
0.35
0.385
0.405
0.425
0.445
0.49
0.525
0.56
0.575
0.61
0.625
0.665
0.69
0.71
0.725
0.71
0.685
0.68
0.65
0.645
0.575
0.51
0.435
0.365
0.31
0.255
0.18
0.095
0.03
-0.025
-0.06
-0.085
-0.13
-0.175
-0.215
-0.235
-0.255
-0.25
-0.275
-0.3
-0.315
-0.315
-0.32
-0.32
-0.33
-0.35
-0.37
-0.37
-0.365
-0.355
-0.355
-0.375
-0.38
-0.385
-0.375
-0.36
-0.375
-0.38
-0.395
-0.39
-0.375
-0.36
-0.37
-0.375
-0.41
-0.395
-0.37
-0.355
-0.36
-0.365
-0.37
-0.375
-0.355
-0.345
-0.345
-0.36
-0.365
-0.375
-0.355
-0.34
-0.35
-0.365
-0.375
-0.36
-0.355
-0.35
-0.35
-0.37
-0.365
-0.36
-0.35
-0.345
-0.34
-0.355
-0.36
-0.36
-0.35
-0.33
-0.34
-0.35
-0.36
-0.365
-0.355
-0.345
-0.35
-0.365
-0.375
-0.375
-0.355
-0.34
-0.345
-0.37
-0.375
-0.37
-0.355
-0.35
-0.35
-0.37
-0.37
-0.37
-0.36
-0.345
-0.345
-0.38
-0.38
-0.375
-0.35
-0.36
-0.365
-0.37
-0.39
-0.375
-0.36
-0.34
-0.35
-0.365
-0.375
-0.375
-0.365
-0.34
-0.345
-0.36
-0.375
-0.36
-0.34
-0.33
-0.34
-0.35
-0.36
-0.34
-0.325
-0.295
-0.28
-0.29
-0.295
-0.295
-0.28
-0.26
-0.26
-0.255
-0.25
-0.255
-0.235
-0.225
-0.225
-0.24
-0.265
-0.27
-0.265
-0.26
-0.285
-0.29
-0.31
-0.305
-0.325
-0.315
-0.335
-0.35
-0.365
-0.35
-0.345
-0.355
-0.345
-0.345
-0.37
-0.355
-0.34
-0.345
-0.35
-0.36
-0.36
-0.35
-0.345
-0.325
-0.34
-0.345
-0.365
-0.345
-0.335
-0.31
-0.315
-0.335
-0.33
-0.335
-0.31
-0.29
-0.29
-0.325
-0.365
-0.39
-0.425
-0.42
-0.44
-0.45
-0.41
-0.28
-0.045
0.28
0.685
1.1
1.445
1.735
1.905
1.93
1.73
1.26
0.62
-0.02
-0.585
-0.625
-0.535
-0.475
-0.475
-0.48
-0.455
-0.435
-0.415
-0.41
-0.38
-0.33
-0.275
-0.24
-0.235
-0.25
-0.265
-0.26
-0.245
-0.23
-0.245
-0.26
-0.255
-0.245
-0.235
-0.215
-0.23
-0.25
-0.255
-0.235
-0.225
-0.195
-0.215
-0.215
-0.225
-0.22
-0.215
-0.2
-0.2
-0.195
-0.205
-0.19
-0.195
-0.175
-0.18
-0.195
-0.19
-0.185
-0.185
-0.16
-0.17
-0.165
-0.17
-0.165
-0.155
-0.14
-0.125
-0.14
-0.15
-0.14
-0.14
-0.11
-0.115
-0.135
-0.135
-0.13
-0.105
-0.085
-0.09
-0.095
-0.1
-0.095
-0.05
-0.035
-0.03
-0.04
-0.035
-0.02
0.005
0.02
0.035
0.03
0.04
0.055
0.09
0.12
0.13
0.135
0.145
0.16
0.195
0.23
0.245
0.26
0.27
0.295
0.355
0.365
0.405
0.425
0.435
0.465
0.5
0.53
0.55
0.555
0.58
0.6
0.635
0.655
0.685
0.685
0.685
0.705
0.73
0.745
0.735
0.705
0.675
0.635
0.6
0.57
0.505
0.44
0.36
0.325
0.28
0.24
0.18
0.115
0.05
0.025
-0.02
-0.045
-0.08
-0.135
-0.18
-0.19
-0.19
-0.2
-0.215
-0.245
-0.26
-0.27
-0.275
-0.27
-0.29
-0.31
-0.31
-0.315
-0.31
-0.305
-0.31
-0.315
-0.335
-0.335
-0.325
-0.31
-0.315
-0.345
-0.35
-0.335
-0.32
-0.3
-0.315
-0.33
-0.34
-0.315
-0.315
-0.295
-0.315
-0.33
-0.33
-0.325
-0.32
-0.31
-0.325
-0.325
-0.325
-0.325
-0.305
-0.305
-0.32
-0.34
-0.345
-0.335
-0.325
-0.3
-0.315
-0.32
-0.34
-0.31
-0.31
-0.295
-0.305
-0.32
-0.325
-0.32
-0.31
-0.295
-0.305
-0.305
-0.325
-0.315
-0.3
-0.295
-0.3
-0.325
-0.33
-0.33
-0.305
-0.295
