Lead II
-0.34
-0.355
-0.38
-0.415
-0.445
-0.475
-0.525
-0.565
-0.545
-0.435
-0.285
-0.13
0.05
0.31
0.6
0.845
0.97
0.945
0.705
0.26
-0.165
-0.42
-0.47
-0.43
-0.375
-0.37
-0.355
-0.35
-0.35
-0.35
-0.365
-0.37
-0.375
-0.365
-0.365
-0.36
-0.37
-0.375
-0.365
-0.365
-0.365
-0.365
-0.375
-0.38
-0.37
-0.37
-0.36
-0.36
-0.365
-0.37
-0.355
-0.355
-0.35
-0.345
-0.37
-0.375
-0.355
-0.36
-0.365
-0.36
-0.36
-0.365
-0.355
-0.345
-0.36
-0.36
-0.36
-0.37
-0.355
-0.345
-0.34
-0.36
-0.355
-0.37
-0.365
-0.35
-0.345
-0.35
-0.35
-0.365
-0.35
-0.345
-0.33
-0.355
-0.355
-0.355
-0.335
-0.34
-0.335
-0.33
-0.35
-0.355
-0.355
-0.35
-0.34
-0.345
-0.345
-0.355
-0.345
-0.35
-0.335
-0.35
-0.355
-0.37
-0.35
-0.35
-0.35
-0.35
-0.37
-0.365
-0.365
-0.36
-0.355
-0.365
-0.36
-0.37
-0.365
-0.355
-0.335
-0.345
-0.33
-0.34
-0.325
-0.315
-0.3
-0.295
-0.285
-0.28
-0.27
-0.25
-0.255
-0.24
-0.25
-0.255
-0.25
-0.245
-0.235
-0.25
-0.255
-0.26
-0.24
-0.24
-0.24
-0.25
-0.26
-0.27
-0.26
-0.25
-0.255
-0.26
-0.265
-0.28
-0.27
-0.265
-0.265
-0.245
-0.245
-0.27
-0.26
-0.27
-0.26
-0.255
-0.27
-0.28
-0.285
-0.27
-0.275
-0.27
-0.27
-0.275
-0.275
-0.27
-0.265
-0.275
-0.275
-0.295
-0.285
-0.28
-0.28
-0.28
-0.295
-0.29
-0.29
-0.295
-0.28
-0.29
-0.285
-0.295
-0.29
-0.29
-0.28
-0.28
-0.3
-0.32
-0.31
-0.305
-0.3
-0.285
-0.305
-0.31
-0.31
-0.305
-0.31
-0.31
-0.31
-0.315
-0.31
-0.3
-0.29
-0.3
-0.305
-0.32
-0.305
-0.295
-0.29
-0.295
-0.315
-0.33
-0.315
-0.3
-0.295
-0.3
-0.31
-0.315
-0.305
-0.3
-0.3
-0.3
-0.295
-0.305
-0.285
-0.275
-0.245
-0.25
-0.255
-0.26
-0.245
-0.245
-0.24
-0.245
-0.23
-0.245
-0.23
-0.22
-0.21
-0.2
-0.195
-0.205
-0.2
-0.205
-0.205
-0.205
-0.22
-0.225
-0.225
-0.215
-0.215
-0.23
-0.25
-0.24
-0.215
-0.195
-0.21
-0.245
-0.275
-0.29
-0.31
-0.31
-0.32
-0.33
-0.34
-0.34
-0.335
-0.315
-0.33
-0.325
-0.345
-0.355
-0.355
-0.345
-0.34
-0.35
-0.35
-0.355
-0.35
-0.335
-0.335
-0.355
-0.36
-0.37
-0.365
-0.345
-0.35
-0.395
-0.435
-0.46
-0.48
-0.515
-0.56
-0.56
-0.5
-0.4
-0.27
-0.145
0.045
0.255
0.495
0.67
0.815
0.925
1.0
0.96
0.775
0.435
0.035
-0.255
-0.405
-0.475
-0.455
-0.435
-0.395
-0.38
-0.38
-0.385
-0.385
-0.405
-0.385
-0.38
-0.37
-0.375
-0.375
-0.39
-0.39
-0.39
-0.4
-0.39
-0.395
-0.395
-0.39
-0.39
-0.405
-0.41
-0.405
-0.4
-0.39
-0.385
-0.375
-0.37
-0.395
-0.415
-0.395
-0.395
-0.39
-0.395
-0.395
-0.4
-0.395
-0.385
-0.375
-0.38
-0.39
-0.385
-0.385
-0.385
-0.39
-0.39
-0.405
-0.41
-0.41
-0.41
-0.395
-0.39
-0.41
-0.4
-0.405
-0.39
-0.385
-0.385
-0.4
-0.395
-0.39
-0.375
-0.38
-0.395
-0.405
-0.405
-0.4
-0.39
-0.39
-0.405
-0.41
-0.415
-0.41
-0.4
-0.41
-0.415
-0.425
-0.445
-0.435
-0.415
-0.415
-0.415
-0.43
-0.445
-0.435
-0.435
-0.435
-0.435
-0.445
-0.45
-0.44
-0.425
-0.405
-0.415
-0.42
-0.43
-0.405
-0.385
-0.375
-0.365
-0.36
-0.375
-0.36
-0.335
-0.32
-0.315
-0.32
-0.32
-0.315
-0.31
-0.295
-0.295
-0.305
-0.3
-0.305
-0.295
-0.295
-0.295
-0.3
-0.31
-0.31
-0.29
-0.29
-0.285
-0.29
-0.31
-0.3
-0.295
-0.3
-0.3
-0.325
-0.335
-0.335
-0.34
-0.325
-0.335
-0.315
-0.325
-0.32
-0.315
-0.31
-0.31
-0.32
-0.335
-0.335
-0.315
-0.315
-0.325
-0.335
-0.335
-0.325
-0.325
-0.32
-0.33
-0.34
-0.35
-0.34
-0.345
-0.335
-0.335
-0.34
-0.36
-0.365
-0.345
-0.345
-0.34
-0.355
-0.365
-0.345
-0.335
-0.34
-0.35
-0.36
-0.36
-0.36
-0.345
-0.345
-0.34
-0.35
-0.355
-0.35
-0.34
-0.34
-0.35
-0.355
-0.365
-0.355
-0.35
-0.345
-0.34
-0.355
-0.365
-0.34
-0.34
-0.33
-0.335
-0.345
-0.36
-0.35
-0.35
-0.355
-0.35
-0.35
-0.35
-0.335
-0.335
-0.315
-0.31
-0.31
-0.3
-0.29
-0.285
-0.28
-0.275
-0.265
-0.27
-0.26
-0.24
-0.225
-0.23
-0.235
-0.24
-0.245
-0.245
-0.25
-0.26
-0.245
-0.27
-0.27
-0.27
-0.27
-0.255
-0.245
-0.245
-0.245
-0.26
-0.275
-0.285
-0.33
-0.355
-0.36
-0.36
-0.36
-0.36
-0.375
-0.385
-0.375
-0.365
-0.36
-0.365
-0.37
-0.38
-0.38
-0.37
-0.365
-0.365
-0.37
-0.375
-0.37
-0.37
-0.365
-0.37
-0.385
-0.385
-0.375
-0.365
-0.365
-0.37
-0.38
-0.415
-0.44
-0.46
-0.48
-0.5
-0.54
-0.59
-0.56
-0.485
-0.365
-0.21
-0.065
0.145
0.445
0.695
0.87
0.94
0.85
0.57
0.2
-0.145
-0.37
-0.48
-0.51
-0.53
-0.48
-0.445
-0.42
-0.415
-0.425
-0.435
-0.415
-0.405
-0.4
-0.41
-0.41
-0.425
-0.425
-0.41
-0.4
-0.415
-0.42
-0.425
-0.425
-0.415
-0.415
-0.41
-0.425
-0.43
-0.42
-0.4
-0.4
-0.395
-0.415
-0.415
-0.42
-0.41
-0.395
-0.41
-0.42
-0.425
-0.415
-0.405
-0.41
-0.41
-0.41
-0.425
-0.405
-0.395
-0.42
-0.41
-0.405
-0.415
-0.4
-0.405
-0.395
-0.41
-0.415
-0.415
-0.41
-0.405
-0.405
-0.41
-0.41
-0.405
-0.4
-0.395
-0.385
-0.385
-0.395
-0.405
-0.405
-0.4
-0.395
-0.39
-0.41
-0.415
-0.42
-0.405
-0.405
-0.405
-0.41
-0.43
-0.42
-0.43
-0.41
-0.425
-0.44
-0.45
-0.45
-0.45
-0.44
-0.44
-0.465
-0.465
-0.47
-0.45
-0.45
-0.455
-0.45
-0.465
-0.445
-0.425
-0.42
-0.4
-0.405
-0.41
-0.395
-0.37
-0.355
-0.345
-0.36
-0.35
-0.345
-0.325
-0.31
-0.31
-0.305
-0.32
-0.31
-0.305
-0.29
-0.29
-0.305
-0.31
-0.29
-0.29
-0.295
-0.29
-0.3
-0.3
-0.29
-0.29
-0.29
-0.28
-0.29
-0.31
-0.29
-0.29
-0.29
-0.29
-0.295
-0.31
-0.3
-0.295
-0.3
-0.295
-0.31
-0.315
-0.315
-0.305
-0.31
-0.305
-0.315
-0.32
-0.315
-0.305
-0.3
-0.3
-0.32
-0.33
-0.32
-0.32
-0.305
-0.315
-0.325
-0.34
-0.33
-0.325
-0.31
-0.33
-0.335
-0.33
-0.34
-0.33
-0.33
-0.335
-0.335
-0.35
-0.36
-0.345
-0.32
-0.33
-0.335
-0.345
-0.345
-0.34
-0.325
-0.335
-0.34
-0.345
-0.34
-0.325
-0.315
-0.32
-0.325
-0.34
-0.335
-0.325
-0.33
-0.32
-0.335
-0.345
-0.335
-0.33
-0.32
-0.32
-0.335
-0.34
-0.34
-0.34
-0.33
-0.33
-0.325
-0.34
-0.34
-0.32
-0.31
-0.32
-0.325
-0.335
-0.325
-0.32
-0.315
-0.305
-0.3
-0.305
-0.295
-0.27
-0.26
-0.26
-0.25
-0.265
-0.27
-0.25
-0.24
-0.23
-0.23
-0.225
-0.22
-0.215
-0.22
-0.21
-0.225
-0.255
-0.23
-0.235
-0.24
-0.24
-0.25
-0.255
-0.235
-0.205
-0.19
-0.225
-0.245
-0.275
-0.29
-0.295
-0.305
-0.32
-0.335
-0.34
-0.35
-0.345
-0.335
-0.335
-0.345
-0.35
-0.35
-0.34
-0.34
-0.335
-0.34
-0.365
-0.355
-0.34
-0.33
-0.34
-0.36
-0.36
-0.35
-0.35
-0.34
-0.345
-0.35
-0.365
-0.355
-0.355
-0.345
-0.36
-0.39
-0.44
-0.475
-0.495
-0.51
-0.55
-0.585
-0.575
-0.49
-0.36
-0.21
-0.045
0.14
0.405
0.695
0.9
0.985
0.925
0.68
0.28
-0.135
-0.4
-0.47
-0.455
-0.425
-0.41
-0.385
-0.385
-0.385
-0.385
-0.385
-0.4
-0.39
-0.395
-0.385
-0.39
-0.395
-0.405
-0.4
-0.39
-0.385
-0.39
-0.4
-0.405
-0.395
-0.4
-0.39
-0.39
-0.39
-0.405
-0.395
-0.385
-0.38
-0.38
-0.385
-0.395
-0.395
-0.4
-0.375
-0.385
-0.385
-0.4
-0.395
-0.39
-0.375
-0.375
-0.38
-0.395
-0.395
-0.38
-0.37
-0.37
-0.385
-0.395
-0.39
-0.38
-0.38
-0.38
-0.385
-0.39
-0.375
-0.375
-0.375
-0.365
-0.375
-0.395
-0.39
-0.38
-0.375
-0.375
-0.38
-0.4
-0.385
-0.375
-0.375
-0.37
-0.375
-0.385
-0.39
-0.375
-0.36
-0.36
-0.375
-0.395
-0.4
-0.38
-0.365
-0.375
-0.385
-0.39
-0.39
-0.38
-0.37
-0.375
-0.375
-0.4
-0.385
-0.38
-0.38
-0.385
-0.38
-0.37
-0.365
-0.355
-0.34
-0.34
-0.33
-0.34
-0.315
-0.305
-0.295
-0.285
-0.29
-0.31
-0.285
-0.275
-0.265
-0.27
-0.28
-0.29
-0.28
-0.27
-0.275
-0.275
-0.29
-0.29
-0.275
-0.275
-0.275
-0.28
-0.285
-0.29
-0.28
-0.275
-0.275
-0.27
-0.28
-0.285
-0.29
-0.28
-0.275
-0.285
-0.295
-0.305
-0.3
-0.305
-0.295
-0.3
-0.31
-0.32
-0.31
-0.3
-0.295
-0.3
-0.32
-0.325
-0.315
-0.305
-0.295
-0.3
-0.32
-0.325
-0.315
-0.315
-0.31
-0.31
-0.325
-0.335
-0.33
-0.33
-0.315
-0.325
-0.33
-0.34
-0.34
-0.325
-0.33
-0.33
-0.335
-0.345
-0.335
-0.33
-0.32
-0.33
-0.335
-0.335
-0.335
-0.32
-0.32
-0.325
-0.32
-0.33
-0.325
-0.325
-0.315
-0.32
-0.325
-0.335
-0.335
-0.325
-0.32
-0.32
-0.325
-0.33
-0.325
-0.325
-0.31
-0.315
-0.325
-0.335
-0.335
-0.325
-0.32
-0.315
-0.32
-0.335
-0.3
-0.285
-0.255
-0.245
-0.25
-0.265
-0.25
-0.235
-0.225
-0.235
-0.225
-0.22
-0.205
-0.205
-0.2
-0.205
-0.215
-0.23
-0.235
-0.235
-0.22
-0.225
-0.24
-0.25
-0.245
-0.225
-0.19
-0.19
-0.22
-0.255
-0.27
-0.275
-0.28
-0.3
-0.31
-0.335
-0.32
-0.31
-0.315
-0.32
-0.345
-0.35
-0.34
-0.335
-0.325
-0.34
-0.335
-0.35
-0.35
-0.34
-0.335
-0.35
-0.345
-0.36
-0.355
-0.355
-0.34
-0.35
-0.355
-0.36
-0.35
-0.355
-0.34
-0.36
-0.385
-0.44
-0.465
-0.475
-0.505
-0.565
-0.57
-0.525
-0.41
-0.27
-0.12
0.085
0.335
0.595
0.81
0.89
0.82
0.565
0.17
-0.2
-0.44
-0.5
-0.46
-0.41
-0.39
-0.4
-0.405
-0.4
-0.38
-0.365
-0.37
-0.385
-0.39
-0.38
-0.375
-0.375
-0.385
-0.385
-0.385
-0.38
-0.375
-0.375
-0.39
-0.4
-0.395
-0.385
-0.38
-0.385
-0.39
-0.4
-0.385
-0.385
-0.385
-0.375
-0.38
-0.395
-0.39
-0.375
-0.37
-0.37
-0.375
-0.38
-0.38
-0.37
-0.36
-0.36
-0.375
-0.385
-0.38
-0.37
-0.37
-0.375
-0.39
-0.385
-0.385
-0.37
-0.365
-0.365
-0.37
-0.385
-0.38
-0.375
-0.36
-0.37
-0.38
-0.385
-0.385
-0.365
-0.355
-0.36
-0.36
-0.375
-0.395
-0.37
-0.355
-0.355
-0.365
-0.37
-0.37
-0.365
-0.365
-0.355
-0.375
-0.39
-0.37
-0.37
-0.365
-0.375
-0.375
-0.385
-0.37
-0.39
-0.38
-0.375
-0.38
-0.39
-0.39
-0.38
-0.365
-0.36
-0.36
-0.365
-0.35
-0.34
-0.335
-0.325
-0.33
-0.335
-0.33
-0.32
-0.295
-0.29
-0.3
-0.31
-0.305
-0.3
-0.305
-0.295
-0.295
-0.31
-0.3
-0.29
-0.295
-0.29
-0.29
-0.295
-0.305
-0.295
-0.29
-0.29
-0.29
-0.32
-0.32
-0.31
-0.3
-0.295
-0.3
-0.31
-0.315
-0.305
-0.3
-0.3
-0.295
-0.31
-0.32
-0.32
-0.305
-0.305
-0.31
-0.32
-0.315
-0.32
-0.32
-0.31
-0.325
-0.32
-0.33
-0.31
-0.305
-0.32
-0.32
-0.34
-0.335
-0.33
-0.32
-0.315
-0.33
-0.34
-0.345
-0.345
-0.34
-0.345
-0.345
-0.355
-0.355
-0.35
-0.335
-0.34
-0.34
-0.36
-0.355
-0.345
-0.335
-0.34
-0.345
-0.355
-0.355
-0.34
-0.335
-0.325
-0.34
-0.36
-0.36
-0.34
-0.345
-0.335
-0.345
-0.345
-0.35
-0.345
-0.325
-0.325
-0.335
-0.335
-0.32
-0.305
-0.29
-0.28
-0.285
-0.295
-0.295
-0.285
-0.25
-0.245
-0.24
-0.255
-0.24
-0.23
-0.225
-0.235
-0.24
-0.26
-0.26
-0.25
-0.24
-0.245
-0.26
-0.275
-0.26
-0.24
-0.225
-0.24
-0.285
-0.31
-0.315
-0.315
-0.335
-0.345
-0.345
-0.37
-0.37
-0.36
-0.34
-0.335
-0.34
-0.36
-0.36
-0.36
-0.36
-0.35
-0.36
-0.375
-0.37
-0.37
-0.355
-0.365
-0.375
-0.385
-0.38
-0.37
-0.365
-0.355
-0.375
-0.395
-0.4
-0.41
-0.435
-0.47
-0.485
-0.525
-0.565
-0.59
-0.55
-0.425
-0.305
-0.15
0.08
0.365
0.645
0.83
0.855
0.68
0.33
-0.05
-0.33
-0.48
-0.515
-0.485
-0.43
-0.405
-0.4
-0.385
-0.38
-0.4
-0.4
-0.395
-0.395
-0.4
-0.4
-0.415
-0.425
-0.425
-0.4
-0.415
-0.415
-0.43
-0.425
-0.42
-0.405
-0.4
-0.42
-0.435
-0.42
-0.405
-0.395
-0.39
-0.4
-0.41
-0.425
-0.405
-0.4
-0.395
-0.4
-0.425
-0.41
-0.415
-0.405
-0.4
-0.395
-0.425
-0.415
-0.41
-0.405
-0.405
-0.425
-0.43
-0.415
-0.405
-0.39
-0.39
-0.395
-0.405
-0.41
-0.395
-0.405
-0.41
-0.4
-0.415
-0.415
-0.41
-0.395
-0.385
-0.385
-0.405
-0.405
-0.405
-0.39
-0.4
-0.42
-0.425
-0.44
-0.435
-0.44
-0.44
-0.445
-0.465
-0.455
-0.455
-0.45
-0.44
-0.445
-0.455
-0.46
-0.47
-0.46
-0.45
-0.445
-0.44
-0.425
-0.4
-0.4
-0.405
-0.41
-0.41
-0.4
-0.37
-0.345
-0.35
-0.35
-0.345
-0.34
-0.335
-0.32
-0.31
-0.32
-0.33
-0.33
-0.325
-0.3
-0.3
-0.31
-0.315
-0.305
-0.295
-0.3
-0.3
-0.295
-0.3
-0.295
-0.3
-0.295
-0.29
-0.31
-0.315
-0.32
-0.315
-0.31
-0.315
-0.32
-0.33
-0.325
-0.33
-0.315
-0.315
-0.32
-0.325
-0.325
-0.33
-0.33
-0.31
-0.325
-0.355
-0.365
-0.35
-0.34
-0.335
-0.34
-0.35
-0.355
-0.355
-0.335
-0.34
-0.34
-0.355
-0.345
-0.345
-0.335
-0.345
-0.35
-0.36
-0.35
-0.34
-0.335
-0.345
-0.345
-0.365
-0.36
-0.345
-0.335
-0.345
-0.34
-0.365
-0.37
-0.355
-0.36
-0.35
-0.355
-0.365
-0.36
-0.35
-0.34
-0.34
-0.35
-0.35
-0.355
-0.35
-0.34
-0.34
-0.36
-0.36
-0.345
-0.335
-0.33
-0.33
-0.33
-0.335
-0.32
-0.305
-0.285
-0.275
-0.295
-0.3
-0.295
-0.27
-0.26
-0.25
-0.25
-0.255
-0.245
-0.23
-0.225
-0.235
-0.25
-0.27
-0.25
-0.255
-0.25
-0.235
-0.245
-0.265
-0.265
-0.245
-0.21
-0.215
-0.25
-0.29
-0.305
-0.31
-0.31
-0.33
-0.335
-0.36
-0.36
-0.355
-0.35
-0.35
-0.355
-0.36
-0.365
-0.35
-0.35
-0.355
-0.355
-0.365
-0.375
-0.36
-0.36
-0.36
-0.35
-0.365
-0.37
-0.35
-0.36
-0.345
-0.35
-0.365
-0.375
-0.375
-0.39
-0.425
-0.46
-0.49
-0.515
-0.555
-0.555
-0.475
-0.355
-0.21
-0.03
0.23
0.52
0.765
0.915
0.92
0.76
0.43
0.045
-0.27
-0.425
-0.49
-0.46
-0.415
-0.385
-0.37
-0.385
-0.385
-0.38
-0.37
-0.365
-0.365
-0.38
-0.39
-0.38
-0.37
-0.38
-0.365
-0.37
-0.39
-0.38
-0.39
-0.38
-0.37
-0.375
-0.38
-0.37
-0.375
-0.365
-0.37
-0.38
-0.39
-0.395
-0.375
-0.365
-0.375
-0.37
-0.385
-0.39
-0.38
-0.37
-0.37
-0.375
-0.38
-0.37
-0.36
-0.36
-0.365
-0.365
-0.38
-0.375
-0.37
-0.36
-0.365
-0.38
-0.385
-0.38
-0.375
-0.37
-0.375
-0.385
-0.385
-0.385
-0.38
-0.375
-0.375
-0.385
-0.39
-0.4
-0.38
-0.365
-0.365
-0.38
-0.395
-0.4
-0.375
-0.375
-0.375
-0.39
-0.395
-0.4
-0.41
-0.385
-0.4
-0.405
-0.415
-0.42
-0.405
-0.41
-0.415
-0.42
-0.43
-0.42
-0.42
-0.4
-0.39
-0.39
-0.39
-0.38
-0.37
-0.35
-0.345
-0.35
-0.335
-0.32
-0.31
-0.29
-0.29
-0.285
-0.295
-0.29
-0.275
-0.26
-0.255
-0.265
-0.275
-0.275
-0.26
-0.26
-0.26
-0.26
-0.275
-0.26
-0.25
-0.245
-0.24
-0.245
-0.255
-0.26
-0.25
-0.25
-0.255
-0.255
-0.265
-0.28
-0.26
-0.255
-0.26
-0.28
-0.275
-0.27
-0.285
-0.27
-0.275
-0.285
-0.285
-0.28
-0.275
-0.265
-0.275
-0.27
-0.29
-0.29
-0.285
-0.28
-0.28
-0.285
-0.3
-0.295
-0.285
-0.29
-0.29
-0.29
-0.31
-0.305
-0.3
-0.285
-0.3
-0.3
-0.295
-0.3
-0.295
-0.285
-0.295
-0.305
-0.305
-0.31
-0.3
-0.295
-0.3
-0.31
-0.315
-0.31
-0.305
-0.29
-0.305
-0.305
-0.31
-0.31
-0.295
-0.295
-0.3
-0.3
-0.305
-0.305
-0.28
-0.28
-0.275
-0.295
-0.31
-0.3
-0.3
-0.29
-0.285
-0.295
-0.3
-0.3
-0.3
-0.28
-0.28
-0.27
-0.275
-0.255
-0.235
-0.225
-0.22
-0.225
-0.23
-0.22
-0.2
-0.175
-0.185
-0.18
-0.19
-0.195
-0.18
-0.185
-0.195
-0.195
-0.205
-0.205
-0.205
-0.2
-0.205
-0.195
-0.175
-0.18
-0.205
-0.22
-0.24
-0.255
-0.28
-0.29
-0.295
-0.295
-0.305
-0.31
-0.32
-0.31
-0.305
-0.3
-0.305
-0.31
-0.325
-0.325
-0.32
-0.315
-0.31
-0.31
-0.31
-0.325
-0.325
-0.32
-0.325
-0.325
-0.33
-0.33
-0.32
-0.32
-0.35
-0.4
-0.455
-0.475
-0.485
-0.52
-0.52
-0.44
-0.3
-0.12
0.085
0.355
0.655
0.89
0.995
0.935
0.67
0.26
-0.135
-0.38
-0.455
-0.425
-0.375
-0.33
-0.335
-0.345
-0.36
-0.36
-0.355
-0.35
-0.34
-0.35
-0.365
-0.36
-0.355
-0.35
-0.35
-0.35
-0.365
-0.36
-0.35
-0.34
-0.345
-0.36
-0.38
-0.37
-0.35
-0.345
-0.34
-0.35
-0.36
-0.36
-0.345
-0.34
-0.345
-0.35
-0.365
-0.355
-0.35
-0.34
-0.355
-0.36
-0.365
-0.36
-0.355
-0.35
-0.345
-0.355
-0.36
-0.36
-0.36
-0.35
-0.34
-0.35
-0.365
-0.355
-0.345
-0.33
-0.335
-0.345
-0.34
-0.35
-0.34
-0.33
-0.34
-0.33
-0.34
-0.34
-0.34
-0.325
-0.34
-0.345
-0.36
-0.355
-0.36
-0.335
-0.335
-0.35
-0.35
-0.35
-0.345
-0.345
-0.345
-0.355
-0.35
-0.355
-0.355
-0.33
-0.33
-0.34
-0.355
-0.365
-0.345
-0.335
-0.335
-0.34
-0.34
-0.345
-0.325
-0.315
-0.31
-0.315
-0.32
-0.305
-0.3
-0.285
-0.285
-0.285
-0.29
-0.275
-0.265
-0.245
-0.255
-0.26
-0.265
-0.265
-0.245
-0.235
-0.245
-0.25
-0.26
-0.255
-0.25
-0.24
-0.245
-0.26
-0.255
-0.255
-0.245
-0.245
-0.245
-0.25
-0.265
-0.27
-0.25
-0.255
-0.25
-0.265
-0.27
-0.275
-0.27
-0.25
-0.255
-0.265
-0.275
-0.275
-0.275
-0.255
-0.275
-0.285
-0.29
-0.28
-0.28
-0.27
-0.28
-0.285
-0.295
-0.29
-0.285
-0.27
-0.29
-0.29
-0.29
-0.295
-0.29
-0.275
-0.285
-0.29
-0.295
-0.305
-0.29
-0.28
-0.295
-0.3
-0.3
-0.305
-0.3
-0.29
-0.31
-0.31
-0.315
-0.31
-0.305
-0.3
-0.295
-0.3
-0.32
-0.315
-0.32
-0.3
-0.3
-0.305
-0.305
-0.32
-0.3
-0.295
-0.295
-0.3
-0.305
-0.305
-0.29
-0.28
-0.28
-0.275
-0.27
-0.265
-0.245
-0.22
-0.23
-0.23
-0.24
-0.24
-0.215
-0.2
-0.195
-0.195
-0.2
-0.195
-0.19
-0.17
-0.18
-0.185
-0.2
-0.205
-0.19
-0.175
-0.2
-0.2
-0.21
-0.215
-0.215
-0.22
-0.21
-0.2
-0.19
-0.21
-0.23
-0.24
-0.26
-0.285
-0.295
-0.305
-0.3
-0.305
-0.31
-0.315
-0.325
-0.325
-0.315
-0.305
-0.315
-0.325
-0.335
-0.335
-0.335
-0.33
-0.34
-0.35
-0.34
-0.345
-0.33
-0.33
-0.34
-0.345
-0.36
-0.395
-0.43
-0.445
-0.475
-0.515
-0.555
-0.55
-0.465
-0.32
-0.17
0.0
0.24
0.51
0.755
0.865
0.83
0.625
0.29
-0.1
-0.37
-0.475
-0.49
-0.445
-0.395
-0.38
-0.365
-0.37
-0.37
-0.37
-0.37
-0.375
-0.365
-0.36
-0.37
-0.375
-0.385
-0.375
-0.365
-0.355
-0.35
-0.365
-0.365
-0.37
-0.365
-0.36
-0.36
-0.365
-0.365
-0.37
-0.37
-0.36
-0.36
-0.365
-0.37
-0.38
-0.36
-0.355
-0.365
-0.37
-0.37
-0.375
-0.365
-0.36
-0.36
-0.375
-0.375
-0.385
-0.37
-0.36
-0.36
-0.365
-0.38
-0.38
-0.37
-0.36
-0.36
-0.375
-0.385
-0.375
-0.375
-0.37
-0.365
-0.37
-0.365
-0.37
-0.365
-0.365
-0.36
-0.355
-0.365
-0.365
-0.37
-0.355
-0.36
-0.365
-0.36
-0.37
-0.365
-0.355
-0.365
-0.38
-0.385
-0.39
-0.385
-0.37
-0.38
-0.385
-0.39
-0.385
-0.385
-0.36
-0.38
-0.38
-0.39
-0.385
-0.375
-0.36
-0.36
-0.37
-0.355
-0.35
-0.34
-0.335
-0.33
-0.31
-0.33
-0.33
-0.31
-0.295
-0.31
-0.3
-0.305
-0.32
-0.295
-0.27
-0.29
-0.29
-0.295
-0.3
-0.29
-0.28
-0.275
-0.29
-0.31
-0.315
-0.295
-0.295
-0.295
-0.3
-0.3
-0.305
-0.285
-0.28
-0.27
-0.285
-0.29
-0.305
-0.3
-0.285
-0.31
-0.315
-0.33
-0.325
-0.31
-0.31
-0.305
-0.315
-0.32
-0.32
-0.325
-0.315
-0.31
-0.325
-0.32
-0.35
-0.335
-0.325
-0.325
-0.34
-0.35
-0.35
-0.34
-0.325
-0.33
-0.33
-0.335
-0.34
-0.33
-0.33
-0.335
-0.34
-0.35
-0.355
-0.35
-0.34
-0.35
-0.36
-0.365
-0.36
-0.36
-0.34
-0.36
-0.355
-0.365
-0.365
-0.355
-0.34
-0.355
-0.35
-0.355
-0.36
-0.35
-0.355
-0.35
-0.355
-0.355
-0.36
-0.34
-0.34
-0.345
-0.335
-0.35
-0.35
-0.35
-0.34
-0.35
-0.355
-0.365
-0.355
-0.325
-0.295
-0.29
-0.29
-0.29
-0.285
-0.285
-0.265
-0.28
-0.275
-0.275
-0.275
-0.255
-0.235
-0.245
-0.255
-0.245
-0.26
-0.245
-0.235
-0.25
-0.26
-0.255
-0.275
-0.27
-0.26
-0.275
-0.27
-0.25
-0.245
-0.245
-0.27
-0.295
-0.31
-0.33
-0.34
-0.345
-0.34
-0.36
-0.37
-0.385
-0.395
-0.38
-0.37
-0.37
-0.38
-0.395
-0.4
-0.405
-0.395
-0.405
-0.415
-0.41
-0.405
-0.385
-0.37
-0.385
-0.395
-0.41
-0.41
-0.4
-0.41
-0.415
-0.465
-0.495
-0.52
-0.53
-0.565
-0.62
-0.615
-0.575
-0.475
-0.395
-0.305
-0.225
-0.11
0.045
0.27
0.53
0.73
0.85
0.865
0.76
0.455
0.08
-0.235
-0.44
-0.515
-0.51
-0.47
-0.425
-0.41
-0.43
-0.43
-0.43
-0.445
-0.435
-0.42
-0.43
-0.445
-0.45
-0.45
-0.43
-0.425
-0.415
-0.41
-0.415
-0.43
-0.425
-0.42
-0.425
-0.425
-0.425
-0.43
-0.42
-0.41
-0.4
-0.415
-0.43
-0.44
-0.44
-0.425
-0.44
-0.44
-0.45
-0.445
-0.43
-0.42
-0.42
-0.43
-0.445
-0.455
-0.435
-0.435
-0.43
-0.44
-0.455
-0.445
-0.435
-0.43
-0.44
-0.425
-0.43
-0.445
-0.44
-0.425
-0.425
-0.43
-0.44
-0.445
-0.43
-0.43
-0.425
-0.425
-0.415
-0.435
-0.425
-0.42
-0.425
-0.445
-0.44
-0.44
-0.435
-0.42
-0.42
-0.43
-0.44
-0.455
-0.45
-0.45
-0.445
-0.45
-0.46
-0.465
-0.46
-0.45
-0.455
-0.46
-0.47
-0.475
-0.475
-0.475
-0.47
-0.475
-0.485
-0.48
-0.465
-0.45
-0.445
-0.445
-0.445
-0.435
-0.425
-0.41
-0.4
-0.395
-0.395
-0.4
-0.375
-0.36
-0.345
-0.36
-0.36
-0.36
-0.355
-0.345
-0.35
-0.345
-0.355
-0.35
-0.335
-0.33
-0.32
-0.335
-0.345
-0.34
-0.335
-0.32
-0.33
-0.335
-0.335
-0.345
-0.325
-0.33
-0.33
-0.355
-0.35
-0.35
-0.355
-0.345
-0.345
-0.355
-0.37
-0.36
-0.355
-0.345
-0.34
-0.35
-0.345
-0.35
-0.345
-0.335
-0.345
-0.355
-0.36
-0.37
-0.375
-0.365
-0.37
-0.385
-0.385
-0.385
-0.375
-0.37
-0.38
-0.385
-0.395
-0.395
-0.38
-0.365
-0.365
-0.38
-0.38
-0.39
-0.385
-0.385
-0.385
-0.385
-0.4
-0.395
-0.385
-0.38
-0.38
-0.4
-0.395
-0.4
-0.385
-0.37
-0.39
-0.405
-0.4
-0.4
-0.385
-0.38
-0.39
-0.38
-0.39
-0.4
-0.385
-0.375
-0.365
-0.38
-0.385
-0.385
-0.375
-0.355
-0.375
-0.38
-0.38
-0.375
-0.36
-0.335
-0.315
-0.32
-0.325
-0.33
-0.315
-0.295
-0.295
-0.295
-0.3
-0.3
-0.28
-0.265
-0.26
-0.27
-0.285
-0.285
-0.275
-0.285
-0.285
-0.295
-0.295
-0.29
-0.285
-0.285
-0.295
-0.31
-0.315
-0.325
-0.31
-0.29
-0.275
-0.28
-0.325
-0.335
-0.34
-0.325
-0.355
-0.385
-0.385
-0.4
-0.385
-0.395
-0.39
-0.395
-0.405
-0.405
-0.395
-0.395
-0.405
-0.4
-0.405
-0.42
-0.415
-0.405
-0.405
-0.41
-0.415
-0.42
-0.415
-0.41
-0.405
-0.42
-0.44
-0.475
-0.49
-0.505
-0.52
-0.555
-0.605
-0.595
-0.52
-0.39
-0.235
-0.065
0.165
0.445
0.715
0.89
0.89
0.695
0.335
-0.09
-0.375
-0.485
-0.51
-0.495
-0.46
-0.44
-0.43
-0.42
-0.415
-0.425
-0.415
-0.44
-0.425
-0.425
-0.425
-0.425
-0.435
-0.44
-0.425
-0.42
-0.42
-0.415
-0.43
-0.43
-0.425
-0.41
-0.415
-0.42
-0.425
-0.43
-0.42
-0.415
-0.42
-0.43
-0.435
-0.425
-0.42
-0.41
-0.42
-0.42
-0.43
-0.42
-0.415
-0.41
-0.415
-0.415
-0.42
-0.425
-0.415
-0.41
-0.41
-0.415
-0.41
-0.42
-0.41
-0.405
-0.41
-0.41
-0.42
-0.415
-0.41
-0.395
-0.395
-0.4
-0.405
-0.4
-0.395
-0.395
-0.4
-0.4
-0.41
-0.415
-0.4
-0.395
-0.41
-0.42
-0.41
-0.43
-0.415
-0.42
-0.405
-0.425
-0.435
-0.445
-0.43
-0.425
-0.425
-0.445
-0.44
-0.44
-0.45
-0.42
-0.43
-0.43
-0.445
-0.445
-0.425
-0.41
-0.41
-0.41
-0.405
-0.395
-0.385
-0.365
-0.365
-0.35
-0.345
-0.35
-0.33
-0.315
-0.305
-0.295
-0.305
-0.3
-0.285
-0.275
-0.275
-0.275
-0.28
-0.28
-0.285
-0.26
-0.265
-0.275
-0.275
-0.275
-0.27
-0.27
-0.28
-0.28
-0.28
-0.28
-0.27
-0.26
-0.275
-0.285
-0.295
-0.295
-0.29
-0.275
-0.275
-0.275
-0.29
-0.285
-0.28
-0.27
-0.285
-0.28
-0.285
-0.295
-0.275
-0.27
-0.275
-0.285
-0.29
-0.295
-0.3
-0.29
-0.28
-0.29
-0.305
-0.3
-0.295
-0.28
-0.28
-0.29
-0.295
-0.305
-0.3
-0.29
-0.295
-0.29
-0.315
-0.3
-0.3
-0.29
-0.3
-0.295
-0.3
-0.31
-0.305
-0.295
-0.29
-0.295
-0.31
-0.31
-0.295
-0.285
-0.29
-0.29
-0.3
-0.305
-0.3
-0.295
-0.29
-0.295
-0.31
-0.305
-0.285
-0.28
-0.285
-0.285
-0.29
-0.29
-0.29
-0.28
-0.28
-0.28
-0.29
-0.3
-0.295
-0.275
-0.275
-0.28
-0.275
-0.275
-0.25
-0.225
-0.215
-0.225
-0.215
-0.215
-0.195
-0.2
-0.18
-0.19
-0.19
-0.185
-0.16
-0.16
-0.155
-0.165
-0.17
-0.19
-0.185
-0.18
-0.195
-0.195
-0.195
-0.195
-0.175
-0.17
-0.18
-0.195
-0.2
-0.19
-0.16
-0.15
-0.17
-0.2
-0.23
-0.245
-0.24
-0.24
-0.27
-0.285
-0.29
-0.305
-0.295
-0.285
-0.295
-0.29
-0.3
-0.3
-0.3
-0.295
-0.285
-0.3
-0.295
-0.31
-0.305
-0.29
-0.305
-0.295
-0.315
-0.315
-0.305
-0.305
-0.315
-0.35
-0.395
-0.435
-0.44
-0.45
-0.505
-0.555
-0.55
-0.51
-0.425
-0.34
-0.25
-0.175
-0.09
0.075
0.33
0.61
0.83
0.965
0.95
0.75
0.37
-0.025
-0.33
-0.445
-0.44
-0.375
-0.32
-0.305
-0.335
-0.325
-0.335
-0.34
-0.335
-0.305
-0.32
-0.33
-0.335
-0.335
-0.32
-0.325
-0.32
-0.32
-0.33
-0.33
-0.33
-0.325
-0.32
-0.315
-0.325
-0.33
-0.315
-0.335
-0.33
-0.335
-0.34
-0.33
-0.33
-0.33
-0.31
-0.32
-0.32
-0.325
-0.325
-0.315
-0.325
-0.325
-0.325
-0.33
-0.32
-0.32
-0.315
-0.32
-0.325
-0.335
-0.325
-0.31
-0.315
-0.32
-0.32
-0.32
-0.315
-0.3
-0.305
-0.315
-0.335
-0.325
-0.305
-0.305
-0.295
-0.305
-0.305
-0.315
-0.305
-0.295
-0.3
-0.305
-0.32
-0.325
-0.3
-0.295
-0.305
-0.305
-0.305
-0.32
-0.31
-0.3
-0.305
-0.31
-0.31
-0.32
-0.305
-0.315
-0.305
-0.305
-0.315
-0.315
-0.31
-0.295
-0.295
-0.3
-0.315
-0.31
-0.29
-0.275
-0.265
-0.27
-0.275
-0.27
-0.255
-0.235
-0.235
-0.23
-0.245
-0.245
-0.235
-0.22
-0.215
-0.225
-0.22
-0.235
-0.22
-0.21
-0.215
-0.22
-0.23
-0.22
-0.22
-0.205
-0.21
-0.215
-0.22
-0.235
-0.225
-0.21
-0.22
-0.225
-0.23
-0.235
-0.24
-0.225
-0.23
-0.23
-0.235
-0.235
-0.235
-0.23
-0.225
-0.225
-0.235
-0.245
-0.24
-0.235
-0.23
-0.24
-0.245
-0.255
-0.255
-0.24
-0.25
-0.245
-0.26
-0.265
-0.255
-0.275
-0.26
-0.265
-0.275
-0.275
-0.265
-0.255
-0.265
-0.27
-0.28
-0.295
-0.27
-0.26
-0.27
-0.275
-0.28
-0.28
-0.275
-0.27
-0.275
-0.28
-0.29
-0.3
-0.27
-0.27
-0.275
-0.28
-0.29
-0.29
-0.285
-0.275
-0.27
-0.28
-0.285
-0.285
-0.275
-0.27
-0.265
-0.27
-0.29
-0.285
-0.265
-0.26
-0.26
-0.275
-0.28
-0.275
-0.27
-0.26
-0.25
-0.24
-0.235
-0.215
-0.2
-0.2
-0.195
-0.195
-0.2
-0.19
-0.165
-0.16
-0.15
-0.15
-0.17
-0.165
-0.17
-0.165
-0.17
-0.19
-0.2
-0.2
-0.185
-0.175
-0.185
-0.19
-0.2
-0.215
-0.205
-0.19
-0.17
-0.15
-0.16
-0.2
-0.215
-0.225
-0.235
-0.255
-0.265
-0.275
-0.27
-0.275
-0.28
-0.3
-0.295
-0.3
-0.285
-0.28
-0.285
-0.29
-0.305
-0.305
-0.3
-0.3
-0.29
-0.295
-0.305
-0.31
-0.295
-0.29
-0.295
-0.3
-0.315
-0.34
-0.36
-0.38
-0.405
-0.415
-0.455
-0.515
-0.52
-0.46
-0.365
-0.28
-0.205
-0.12
0.02
0.22
0.465
0.685
0.82
0.875
0.795
0.525
0.145
-0.22
-0.425
-0.475
-0.42
-0.35
-0.32
-0.325
-0.34
-0.33
-0.325
-0.31
-0.305
-0.32
-0.325
-0.34
-0.325
-0.32
-0.32
-0.335
-0.335
-0.335
-0.335
-0.33
-0.33
-0.33
-0.325
-0.355
-0.35
-0.33
-0.32
-0.325
-0.345
-0.33
-0.33
-0.32
-0.33
-0.325
-0.34
-0.345
-0.34
-0.325
-0.32
-0.34
-0.345
-0.34
-0.335
-0.32
-0.325
