Lead II
-0.44
-0.45
-0.45
-0.45
-0.46
-0.465
-0.47
-0.485
-0.465
-0.465
-0.465
-0.46
-0.455
-0.45
-0.42
-0.39
-0.37
-0.365
-0.365
-0.365
-0.33
-0.3
-0.285
-0.285
-0.3
-0.285
-0.26
-0.24
-0.225
-0.23
-0.235
-0.225
-0.215
-0.2
-0.195
-0.22
-0.245
-0.24
-0.23
-0.21
-0.21
-0.245
-0.25
-0.245
-0.225
-0.225
-0.21
-0.23
-0.24
-0.25
-0.245
-0.23
-0.235
-0.235
-0.255
-0.26
-0.255
-0.245
-0.23
-0.24
-0.27
-0.26
-0.24
-0.23
-0.235
-0.24
-0.255
-0.265
-0.27
-0.245
-0.255
-0.27
-0.285
-0.29
-0.285
-0.26
-0.275
-0.305
-0.31
-0.305
-0.29
-0.27
-0.24
-0.235
-0.225
-0.18
-0.115
-0.005
0.095
0.215
0.32
0.42
0.585
0.75
0.885
0.995
1.06
1.11
1.1
1.03
0.875
0.665
0.425
0.23
0.105
0.045
-0.015
-0.075
-0.125
-0.12
-0.145
-0.155
-0.17
-0.21
-0.26
-0.255
-0.26
-0.265
-0.265
-0.285
-0.3
-0.335
-0.325
-0.31
-0.31
-0.34
-0.34
-0.355
-0.35
-0.355
-0.35
-0.36
-0.37
-0.385
-0.375
-0.365
-0.365
-0.38
-0.39
-0.39
-0.39
-0.37
-0.365
-0.38
-0.405
-0.4
-0.39
-0.385
-0.39
-0.395
-0.415
-0.405
-0.41
-0.4
-0.415
-0.435
-0.455
-0.465
-0.46
-0.44
-0.46
-0.455
-0.465
-0.47
-0.45
-0.43
-0.425
-0.44
-0.43
-0.43
-0.4
-0.365
-0.345
-0.335
-0.34
-0.335
-0.3
-0.265
-0.27
-0.285
-0.285
-0.27
-0.24
-0.22
-0.195
-0.215
-0.22
-0.205
-0.215
-0.2
-0.195
-0.215
-0.23
-0.235
-0.225
-0.22
-0.215
-0.225
-0.23
-0.225
-0.23
-0.225
-0.23
-0.24
-0.26
-0.25
-0.245
-0.24
-0.235
-0.235
-0.255
-0.26
-0.255
-0.245
-0.25
-0.245
-0.27
-0.25
-0.25
-0.235
-0.235
-0.245
-0.255
-0.265
-0.245
-0.24
-0.235
-0.26
-0.27
-0.255
-0.26
-0.25
-0.255
-0.275
-0.29
-0.29
-0.275
-0.245
-0.235
-0.245
-0.21
-0.175
-0.11
-0.01
0.08
0.19
0.29
0.405
0.54
0.715
0.865
0.985
1.07
1.135
1.14
1.07
0.915
0.695
0.44
0.235
0.125
0.065
0.01
-0.05
-0.085
-0.1
-0.115
-0.11
-0.115
-0.165
-0.185
-0.21
-0.22
-0.205
-0.225
-0.24
-0.27
-0.27
-0.27
-0.26
-0.28
-0.285
-0.295
-0.305
-0.315
-0.285
-0.305
-0.305
-0.33
-0.32
-0.31
-0.305
-0.305
-0.31
-0.34
-0.35
-0.335
-0.325
-0.325
-0.33
-0.335
-0.345
-0.345
-0.335
-0.35
-0.35
-0.36
-0.355
-0.35
-0.345
-0.355
-0.37
-0.4
-0.41
-0.4
-0.385
-0.385
-0.395
-0.415
-0.415
-0.395
-0.39
-0.38
-0.395
-0.4
-0.38
-0.355
-0.325
-0.3
-0.295
-0.285
-0.27
-0.24
-0.24
-0.22
-0.22
-0.23
-0.23
-0.205
-0.185
-0.17
-0.17
-0.17
-0.155
-0.165
-0.145
-0.15
-0.155
-0.185
-0.175
-0.165
-0.155
-0.16
-0.18
-0.2
-0.19
-0.19
-0.17
-0.17
-0.175
-0.19
-0.185
-0.185
-0.175
-0.18
-0.18
-0.195
-0.195
-0.19
-0.175
-0.185
-0.185
-0.19
-0.195
-0.185
-0.165
-0.175
-0.185
-0.195
-0.2
-0.19
-0.18
-0.175
-0.185
-0.21
-0.205
-0.18
-0.17
-0.16
-0.19
-0.2
-0.205
-0.2
-0.18
-0.165
-0.165
-0.17
-0.13
-0.075
-0.015
0.035
0.115
0.21
0.325
0.455
0.59
0.71
0.86
0.99
1.095
1.225
1.28
1.255
1.135
0.945
0.715
0.47
0.285
0.135
-0.005
-0.08
-0.13
-0.13
-0.1
-0.1
-0.13
-0.175
-0.175
-0.18
-0.2
-0.2
-0.225
-0.24
-0.25
-0.245
-0.245
-0.26
-0.265
-0.285
-0.275
-0.27
-0.28
-0.285
-0.31
-0.31
-0.32
-0.295
-0.28
-0.29
-0.31
-0.325
-0.32
-0.32
-0.31
-0.295
-0.315
-0.34
-0.335
-0.33
-0.305
-0.31
-0.33
-0.345
-0.35
-0.34
-0.34
-0.345
-0.365
-0.385
-0.39
-0.385
-0.365
-0.375
-0.38
-0.395
-0.405
-0.385
-0.375
-0.355
-0.35
-0.34
-0.32
-0.305
-0.245
-0.225
-0.23
-0.225
-0.22
-0.18
-0.145
-0.14
-0.145
-0.17
-0.15
-0.12
-0.105
-0.095
-0.105
-0.11
-0.115
-0.09
-0.09
-0.105
-0.11
-0.14
-0.13
-0.125
-0.11
-0.11
-0.115
-0.135
-0.14
-0.135
-0.105
-0.105
-0.125
-0.15
-0.155
-0.13
-0.115
-0.115
-0.135
-0.135
-0.14
-0.13
-0.115
-0.13
-0.13
-0.14
-0.14
-0.125
-0.115
-0.125
-0.13
-0.145
-0.14
-0.13
-0.125
-0.135
-0.135
-0.165
-0.15
-0.145
-0.145
-0.155
-0.165
-0.205
-0.195
-0.185
-0.17
-0.145
-0.135
-0.105
-0.075
-0.005
0.1
0.215
0.31
0.42
0.565
0.735
0.9
1.04
1.14
1.245
1.315
1.325
1.285
1.125
0.92
0.675
0.425
0.26
0.14
0.065
0.0
-0.045
-0.055
-0.06
-0.07
-0.095
-0.12
-0.165
-0.18
-0.19
-0.185
-0.2
-0.225
-0.24
-0.255
-0.255
-0.24
-0.26
-0.26
-0.28
-0.28
-0.28
-0.265
-0.27
-0.295
-0.315
-0.31
-0.3
-0.285
-0.29
-0.3
-0.32
-0.335
-0.33
-0.315
-0.31
-0.32
-0.33
-0.35
-0.33
-0.325
-0.34
-0.345
-0.35
-0.375
-0.38
-0.365
-0.375
-0.385
-0.41
-0.435
-0.44
-0.405
-0.41
-0.41
-0.43
-0.43
-0.42
-0.4
-0.41
-0.4
-0.405
-0.38
-0.35
-0.33
-0.315
-0.3
-0.305
-0.295
-0.265
-0.25
-0.23
-0.215
-0.22
-0.215
-0.2
-0.185
-0.185
-0.18
-0.185
-0.165
-0.15
-0.13
-0.13
-0.15
-0.16
-0.17
-0.165
-0.16
-0.165
-0.175
-0.18
-0.18
-0.19
-0.17
-0.165
-0.165
-0.185
-0.19
-0.18
-0.165
-0.175
-0.18
-0.2
-0.2
-0.185
-0.175
-0.185
-0.2
-0.2
-0.21
-0.2
-0.18
-0.19
-0.195
-0.2
-0.21
-0.205
-0.205
-0.2
-0.21
-0.225
-0.23
-0.215
-0.205
-0.205
-0.23
-0.255
-0.275
-0.255
-0.24
-0.235
-0.245
-0.255
-0.25
-0.23
-0.2
-0.175
-0.165
-0.13
-0.055
0.035
0.155
0.26
0.36
0.465
0.605
0.76
0.9
1.01
1.105
1.18
1.185
1.18
1.1
0.95
0.73
0.53
0.365
0.245
0.155
0.07
-0.025
-0.08
-0.105
-0.125
-0.125
-0.155
-0.19
-0.22
-0.24
-0.25
-0.245
-0.25
-0.27
-0.29
-0.315
-0.305
-0.285
-0.3
-0.32
-0.34
-0.33
-0.325
-0.33
-0.335
-0.35
-0.365
-0.365
-0.35
-0.36
-0.355
-0.365
-0.385
-0.39
-0.375
-0.36
-0.375
-0.405
-0.415
-0.405
-0.405
-0.41
-0.4
-0.425
-0.45
-0.445
-0.435
-0.44
-0.44
-0.465
-0.48
-0.49
-0.48
-0.47
-0.49
-0.495
-0.505
-0.505
-0.49
-0.485
-0.485
-0.485
-0.47
-0.46
-0.43
-0.405
-0.385
-0.375
-0.37
-0.345
-0.305
-0.265
-0.24
-0.24
-0.245
-0.235
-0.22
-0.195
-0.18
-0.195
-0.225
-0.21
-0.205
-0.195
-0.195
-0.2
-0.225
-0.22
-0.23
-0.195
-0.2
-0.215
-0.235
-0.235
-0.23
-0.22
-0.225
-0.22
-0.235
-0.235
-0.23
-0.21
-0.2
-0.225
-0.24
-0.245
-0.22
-0.205
-0.205
-0.215
-0.225
-0.23
-0.22
-0.21
-0.22
-0.23
-0.245
-0.24
-0.24
-0.23
-0.235
-0.245
-0.27
-0.27
-0.26
-0.255
-0.27
-0.27
-0.29
-0.285
-0.28
-0.26
-0.265
-0.265
-0.285
-0.275
-0.25
-0.2
-0.175
-0.15
-0.095
-0.005
0.115
0.24
0.36
0.465
0.58
0.73
0.905
1.05
1.155
1.215
1.225
1.2
1.125
0.99
0.76
0.52
0.325
0.2
0.115
0.045
-0.035
-0.1
-0.145
-0.15
-0.16
-0.17
-0.2
-0.235
-0.265
-0.29
-0.29
-0.295
-0.31
-0.33
-0.35
-0.36
-0.35
-0.345
-0.355
-0.375
-0.385
-0.38
-0.38
-0.365
-0.37
-0.39
-0.4
-0.395
-0.38
-0.385
-0.385
-0.405
-0.41
-0.42
-0.405
-0.405
-0.4
-0.41
-0.42
-0.43
-0.42
-0.415
-0.435
-0.45
-0.485
-0.49
-0.475
-0.46
-0.46
-0.465
-0.485
-0.485
-0.465
-0.455
-0.46
-0.465
-0.455
-0.445
-0.435
-0.405
-0.385
-0.385
-0.37
-0.34
-0.31
-0.27
-0.25
-0.26
-0.24
-0.23
-0.205
-0.18
-0.16
-0.145
-0.165
-0.175
-0.145
-0.13
-0.135
-0.145
-0.165
-0.18
-0.18
-0.17
-0.185
-0.185
-0.2
-0.2
-0.18
-0.185
-0.19
-0.205
-0.22
-0.215
-0.195
-0.205
-0.21
-0.22
-0.22
-0.215
-0.22
-0.2
-0.205
-0.205
-0.23
-0.225
-0.21
-0.195
-0.21
-0.215
-0.225
-0.22
-0.215
-0.2
-0.215
-0.21
-0.23
-0.23
-0.225
-0.23
-0.23
-0.265
-0.275
-0.26
-0.24
-0.215
-0.19
-0.18
-0.135
-0.07
0.025
0.16
0.285
0.41
0.535
0.67
0.845
1.02
1.14
1.225
1.275
1.26
1.205
1.105
0.92
0.665
0.395
0.21
0.1
0.035
-0.015
-0.07
-0.115
-0.125
-0.105
-0.115
-0.14
-0.19
-0.22
-0.245
-0.235
-0.24
-0.25
-0.275
-0.3
-0.315
-0.31
-0.31
-0.315
-0.33
-0.365
-0.375
-0.365
-0.355
-0.36
-0.375
-0.39
-0.405
-0.39
-0.385
-0.385
-0.395
-0.41
-0.415
-0.41
-0.38
-0.4
-0.41
-0.42
-0.415
-0.405
-0.415
-0.4
-0.41
-0.42
-0.42
-0.415
-0.4
-0.395
-0.42
-0.445
-0.46
-0.445
-0.445
-0.45
-0.465
-0.475
-0.485
-0.465
-0.44
-0.45
-0.455
-0.46
-0.45
-0.43
-0.4
-0.375
-0.385
-0.375
-0.345
-0.31
-0.285
-0.26
-0.26
-0.27
-0.26
-0.245
-0.23
-0.225
-0.23
-0.22
-0.215
-0.195
-0.17
-0.18
-0.195
-0.19
-0.195
-0.195
-0.19
-0.18
-0.2
-0.215
-0.21
-0.2
-0.18
-0.175
-0.195
-0.205
-0.2
-0.185
-0.18
-0.195
-0.205
-0.21
-0.23
-0.195
-0.195
-0.19
-0.21
-0.22
-0.215
-0.205
-0.185
-0.19
-0.195
-0.23
-0.215
-0.2
-0.19
-0.2
-0.225
-0.235
-0.225
-0.22
-0.21
-0.215
-0.23
-0.245
-0.255
-0.24
-0.23
-0.24
-0.24
-0.275
-0.265
-0.26
-0.235
-0.23
-0.225
-0.215
-0.195
-0.14
-0.075
0.005
0.11
0.2
0.305
0.41
0.54
0.69
0.81
0.92
1.025
1.125
1.19
1.16
1.075
0.915
0.715
0.515
0.335
0.185
0.055
-0.045
-0.095
-0.125
-0.12
-0.13
-0.15
-0.165
-0.2
-0.215
-0.22
-0.23
-0.26
-0.295
-0.305
-0.295
-0.28
-0.3
-0.31
-0.355
-0.35
-0.335
-0.345
-0.345
-0.365
-0.365
-0.385
-0.385
-0.365
-0.365
-0.37
-0.39
-0.41
-0.385
-0.375
-0.38
-0.4
-0.395
-0.41
-0.395
-0.4
-0.395
-0.405
-0.42
-0.425
-0.42
-0.415
-0.415
-0.43
-0.445
-0.45
-0.445
-0.455
-0.455
-0.47
-0.48
-0.475
-0.465
-0.455
-0.455
-0.465
-0.47
-0.485
-0.475
-0.46
-0.445
-0.43
-0.425
-0.405
-0.385
-0.355
-0.32
-0.32
-0.295
-0.265
-0.24
-0.21
-0.2
-0.22
-0.215
-0.22
-0.185
-0.17
-0.165
-0.16
-0.16
-0.14
-0.14
-0.125
-0.13
-0.135
-0.155
-0.16
-0.16
-0.15
-0.155
-0.165
-0.175
-0.165
-0.17
-0.155
-0.155
-0.165
-0.18
-0.18
-0.165
-0.155
-0.16
-0.17
-0.185
-0.185
-0.165
-0.155
-0.175
-0.175
-0.195
-0.185
-0.175
-0.17
-0.165
-0.18
-0.2
-0.2
-0.19
-0.17
-0.17
-0.175
-0.175
-0.195
-0.18
-0.17
-0.165
-0.185
-0.19
-0.195
-0.18
-0.19
-0.19
-0.18
-0.175
-0.15
-0.115
-0.06
-0.005
0.075
0.17
0.29
0.425
0.53
0.655
0.775
0.915
1.04
1.16
1.25
1.325
1.325
1.24
1.1
0.9
0.685
0.415
0.21
0.07
-0.01
-0.08
-0.105
-0.125
-0.135
-0.16
-0.165
-0.175
-0.185
-0.2
-0.235
-0.26
-0.27
-0.265
-0.27
-0.28
-0.295
-0.32
-0.33
-0.325
-0.31
-0.32
-0.335
-0.365
-0.365
-0.35
-0.35
-0.35
-0.365
-0.37
-0.37
-0.355
-0.365
-0.36
-0.365
-0.385
-0.395
-0.38
-0.375
-0.37
-0.385
-0.41
-0.41
-0.395
-0.39
-0.39
-0.395
-0.425
-0.425
-0.415
-0.405
-0.405
-0.42
-0.435
-0.445
-0.445
-0.44
-0.435
-0.435
-0.465
-0.465
-0.46
-0.445
-0.445
-0.44
-0.445
-0.445
-0.415
-0.385
-0.38
-0.35
-0.345
-0.32
-0.295
-0.265
-0.25
-0.245
-0.245
-0.22
-0.2
-0.185
-0.175
-0.2
-0.19
-0.19
-0.17
-0.155
-0.145
-0.14
-0.14
-0.135
-0.12
-0.1
-0.105
-0.12
-0.14
-0.14
-0.135
-0.12
-0.12
-0.135
-0.15
-0.145
-0.13
-0.115
-0.135
-0.14
-0.145
-0.145
-0.125
-0.115
-0.12
-0.13
-0.16
-0.145
-0.135
-0.12
-0.135
-0.14
-0.145
-0.15
-0.14
-0.115
-0.135
-0.14
-0.135
-0.145
-0.13
-0.13
-0.135
-0.145
-0.16
-0.16
-0.16
-0.14
-0.135
-0.145
-0.175
-0.175
-0.145
-0.145
-0.15
-0.15
-0.135
-0.115
-0.085
-0.02
0.06
0.145
0.235
0.35
0.475
0.605
0.765
0.89
1.01
1.13
1.245
1.335
1.35
1.29
1.135
0.935
0.69
0.465
0.28
0.13
-0.005
-0.08
-0.125
-0.14
-0.125
-0.13
-0.145
-0.165
-0.17
-0.185
-0.195
-0.225
-0.25
-0.28
-0.27
-0.27
-0.3
-0.29
-0.32
-0.32
-0.325
-0.315
-0.325
-0.33
-0.35
-0.35
-0.355
-0.34
-0.345
-0.35
-0.365
-0.38
-0.375
-0.36
-0.36
-0.385
-0.39
-0.395
-0.405
-0.39
-0.39
-0.395
-0.405
-0.42
-0.41
-0.405
-0.395
-0.42
-0.435
-0.445
-0.44
-0.435
-0.435
-0.455
-0.465
-0.47
-0.465
-0.455
-0.465
-0.485
-0.495
-0.5
-0.505
-0.485
-0.49
-0.49
-0.505
-0.49
-0.475
-0.45
-0.44
-0.435
-0.44
-0.425
-0.39
-0.38
-0.355
-0.355
-0.355
-0.34
-0.32
-0.305
-0.3
-0.285
-0.3
-0.28
-0.27
-0.255
-0.235
-0.24
-0.25
-0.235
-0.21
-0.19
-0.185
-0.205
-0.215
-0.215
-0.21
-0.215
-0.21
-0.21
-0.225
-0.22
-0.23
-0.2
-0.205
-0.22
-0.225
-0.225
-0.225
-0.215
-0.205
-0.21
-0.225
-0.235
-0.225
-0.21
-0.205
-0.205
-0.22
-0.245
-0.215
-0.205
-0.2
-0.215
-0.24
-0.23
-0.25
-0.22
-0.2
-0.22
-0.24
-0.25
-0.23
-0.225
-0.23
-0.235
-0.25
-0.24
-0.24
-0.215
-0.225
-0.205
-0.215
-0.195
-0.15
-0.075
0.015
0.11
0.22
0.325
0.455
0.605
0.745
0.88
0.995
1.115
1.21
1.265
1.215
1.105
0.905
0.68
0.48
0.325
0.195
0.08
-0.025
-0.1
-0.125
-0.13
-0.14
-0.16
-0.21
-0.225
-0.24
-0.255
-0.27
-0.28
-0.305
-0.31
-0.33
-0.32
-0.32
-0.345
-0.36
-0.365
-0.36
-0.36
-0.365
-0.38
-0.41
-0.415
-0.395
-0.385
-0.385
-0.41
-0.405
-0.41
-0.4
-0.395
-0.39
-0.405
-0.425
-0.435
-0.425
-0.4
-0.405
-0.415
-0.43
-0.45
-0.42
-0.415
-0.42
-0.425
-0.45
-0.46
-0.45
-0.44
-0.44
-0.46
-0.475
-0.485
-0.48
-0.47
-0.49
-0.48
-0.49
-0.495
-0.485
-0.46
-0.435
-0.45
-0.475
-0.45
-0.42
-0.385
-0.35
-0.355
-0.38
-0.35
-0.325
-0.305
-0.3
-0.295
-0.305
-0.285
-0.275
-0.25
-0.24
-0.235
-0.23
-0.21
-0.205
-0.175
-0.18
-0.195
-0.2
-0.215
-0.215
-0.195
-0.19
-0.19
-0.21
-0.23
-0.2
-0.18
-0.19
-0.2
-0.22
-0.22
-0.21
-0.18
-0.185
-0.2
-0.215
-0.22
-0.21
-0.2
-0.205
-0.215
-0.22
-0.22
-0.225
-0.195
-0.195
-0.21
-0.225
-0.22
-0.21
-0.2
-0.2
-0.21
-0.23
-0.235
-0.21
-0.21
-0.2
-0.215
-0.245
-0.225
-0.21
-0.175
-0.12
-0.065
0.025
0.13
0.235
0.35
0.47
0.59
0.705
0.85
0.99
1.105
1.16
1.145
1.06
0.9
0.67
0.44
0.22
0.08
-0.03
-0.11
-0.165
-0.17
-0.16
-0.17
-0.21
-0.225
-0.24
-0.235
-0.265
-0.285
-0.32
-0.315
-0.33
-0.33
-0.33
-0.35
-0.375
-0.37
-0.37
-0.35
-0.365
-0.375
-0.395
-0.4
-0.395
-0.385
-0.39
-0.405
-0.415
-0.41
-0.4
-0.385
-0.395
-0.4
-0.415
-0.41
-0.405
-0.395
-0.405
-0.415
-0.42
-0.44
-0.43
-0.42
-0.42
-0.425
-0.43
-0.45
-0.45
-0.445
-0.44
-0.46
-0.485
-0.49
-0.48
-0.465
-0.475
-0.46
-0.48
-0.47
-0.46
-0.435
-0.435
-0.425
-0.425
-0.415
-0.39
-0.35
-0.335
-0.335
-0.335
-0.325
-0.31
-0.295
-0.28
-0.27
-0.285
-0.29
-0.265
-0.245
-0.235
-0.225
-0.23
-0.24
-0.205
-0.19
-0.185
-0.205
-0.22
-0.225
-0.22
-0.21
-0.19
-0.205
-0.22
-0.225
-0.225
-0.225
-0.215
-0.225
-0.25
-0.235
-0.23
-0.205
-0.2
-0.23
-0.245
-0.24
-0.23
-0.215
-0.22
-0.225
-0.24
-0.25
-0.235
-0.21
-0.22
-0.23
-0.24
-0.245
-0.24
-0.23
-0.22
-0.24
-0.245
-0.255
-0.25
-0.245
-0.24
-0.245
-0.26
-0.25
-0.235
-0.2
-0.16
-0.145
-0.09
0.01
0.13
0.245
0.345
0.455
0.575
0.73
0.88
1.005
1.08
1.13
1.09
0.975
0.82
0.605
0.375
0.175
0.045
-0.06
-0.095
-0.125
-0.135
-0.145
-0.14
-0.165
-0.18
-0.21
-0.23
-0.24
-0.265
-0.285
-0.295
-0.31
-0.305
-0.32
-0.345
-0.35
-0.35
-0.345
-0.35
-0.375
-0.395
-0.39
-0.38
-0.375
-0.38
-0.38
-0.405
-0.395
-0.415
-0.4
-0.38
-0.395
-0.42
-0.415
-0.405
-0.39
-0.395
-0.41
-0.415
-0.44
-0.425
-0.415
-0.405
-0.425
-0.435
-0.44
-0.44
-0.435
-0.445
-0.465
-0.485
-0.505
-0.495
-0.475
-0.48
-0.48
-0.5
-0.51
-0.475
-0.455
-0.445
-0.44
-0.445
-0.43
-0.38
-0.35
-0.34
-0.32
-0.33
-0.31
-0.3
-0.275
-0.265
-0.28
-0.295
-0.27
-0.245
-0.23
-0.205
-0.215
-0.225
-0.22
-0.205
-0.195
-0.19
-0.205
-0.23
-0.23
-0.205
-0.19
-0.205
-0.23
-0.23
-0.22
-0.205
-0.21
-0.215
-0.23
-0.235
-0.245
-0.23
-0.21
-0.22
-0.22
-0.245
-0.23
-0.22
-0.225
-0.215
-0.22
-0.23
-0.24
-0.225
-0.21
-0.21
-0.23
-0.235
-0.23
-0.225
-0.21
-0.22
-0.225
-0.25
-0.245
-0.225
-0.205
-0.175
-0.15
-0.1
-0.015
0.105
0.25
0.37
0.47
0.6
0.75
0.915
1.05
1.135
1.17
1.105
0.96
0.755
0.51
0.26
0.075
-0.08
-0.155
-0.2
-0.205
-0.2
-0.2
-0.2
-0.205
-0.22
-0.23
-0.24
-0.27
-0.295
-0.33
-0.315
-0.315
-0.31
-0.33
-0.36
-0.37
-0.36
-0.35
-0.36
-0.36
-0.385
-0.405
-0.39
-0.39
-0.385
-0.4
-0.425
-0.42
-0.4
-0.39
-0.39
-0.41
-0.425
-0.42
-0.405
-0.395
-0.405
-0.405
-0.435
-0.43
-0.42
-0.42
-0.41
-0.42
-0.435
-0.435
-0.44
-0.425
-0.45
-0.46
-0.49
-0.475
-0.465
-0.45
-0.44
-0.45
-0.46
-0.44
-0.42
-0.4
-0.395
-0.375
-0.375
-0.355
-0.325
-0.315
-0.295
-0.28
-0.295
-0.3
-0.295
-0.255
-0.245
-0.245
-0.26
-0.26
-0.245
-0.21
-0.215
-0.21
-0.21
-0.2
-0.2
-0.18
-0.185
-0.19
-0.21
-0.225
-0.21
-0.17
-0.18
-0.19
-0.195
-0.2
-0.185
-0.17
-0.18
-0.185
-0.21
-0.2
-0.2
-0.18
-0.18
-0.195
-0.21
-0.21
-0.21
-0.195
-0.2
-0.205
-0.21
-0.215
-0.21
-0.195
-0.19
-0.21
-0.215
-0.205
-0.19
-0.185
-0.195
-0.21
-0.21
-0.2
-0.185
-0.145
-0.105
-0.045
0.045
0.195
0.325
0.44
0.575
0.725
0.87
1.0
1.12
1.245
1.27
1.215
1.04
0.82
0.555
0.3
0.125
-0.04
-0.145
-0.205
-0.22
-0.195
-0.175
-0.19
-0.19
-0.215
-0.22
-0.215
-0.23
-0.26
-0.28
-0.3
-0.295
-0.295
-0.295
-0.33
-0.345
-0.34
-0.35
-0.34
-0.33
-0.35
-0.36
-0.37
-0.38
-0.345
-0.35
-0.355
-0.38
-0.39
-0.375
-0.365
-0.365
-0.37
-0.395
-0.385
-0.385
-0.37
-0.38
-0.375
-0.41
-0.405
-0.395
-0.39
-0.39
-0.405
-0.42
-0.425
-0.415
-0.41
-0.415
-0.425
-0.455
-0.465
-0.465
-0.44
-0.43
-0.445
-0.455
-0.44
-0.395
-0.385
-0.38
-0.39
-0.385
-0.37
-0.36
-0.32
-0.31
-0.3
-0.32
-0.31
-0.28
-0.26
-0.265
-0.255
-0.27
-0.265
-0.245
-0.23
-0.215
-0.225
-0.225
-0.21
-0.195
-0.175
-0.165
-0.205
-0.195
-0.195
-0.175
-0.17
-0.175
-0.19
-0.195
-0.19
-0.185
-0.17
-0.185
-0.185
-0.19
-0.18
-0.175
-0.175
-0.18
-0.19
-0.205
-0.205
-0.195
-0.185
-0.185
-0.19
-0.195
-0.19
-0.18
-0.175
-0.19
-0.165
-0.18
-0.195
-0.19
-0.175
-0.17
-0.185
-0.2
-0.2
-0.185
-0.16
-0.15
-0.15
-0.145
-0.12
-0.075
0.015
0.11
0.22
0.32
0.44
0.575
0.75
0.905
1.03
1.13
1.23
1.285
1.26
1.12
0.915
0.645
0.365
0.17
0.045
-0.04
-0.14
-0.205
-0.22
-0.215
-0.19
-0.2
-0.235
-0.25
-0.255
-0.27
-0.265
-0.275
-0.305
-0.325
-0.335
-0.33
-0.32
-0.335
-0.35
-0.37
-0.375
-0.365
-0.36
-0.36
-0.37
-0.39
-0.395
-0.395
-0.395
-0.405
-0.415
-0.44
-0.45
-0.43
-0.42
-0.435
-0.445
-0.46
-0.455
-0.44
-0.435
-0.445
-0.45
-0.475
-0.49
-0.465
-0.47
-0.48
-0.5
-0.505
-0.525
-0.505
-0.49
-0.505
-0.525
-0.535
-0.54
-0.53
-0.515
-0.515
-0.515
-0.515
-0.505
-0.475
-0.46
-0.455
-0.46
-0.465
-0.45
-0.42
-0.4
-0.395
-0.4
-0.405
-0.39
-0.38
-0.355
-0.35
-0.345
-0.36
-0.36
-0.33
-0.305
-0.285
-0.29
-0.285
-0.275
-0.26
-0.24
-0.235
-0.245
-0.26
-0.26
-0.27
-0.235
-0.24
-0.245
-0.27
-0.26
-0.25
-0.24
-0.235
-0.245
-0.245
-0.26
-0.245
-0.23
-0.23
-0.24
-0.25
-0.26
-0.255
-0.24
-0.24
-0.24
-0.245
-0.255
-0.25
-0.245
-0.24
-0.245
-0.265
-0.255
-0.25
-0.24
-0.245
-0.25
-0.245
-0.24
-0.23
-0.19
-0.17
-0.165
-0.1
0.005
0.125
0.255
0.36
0.46
0.58
0.73
0.865
0.985
1.09
1.165
1.14
1.065
0.92
0.735
0.475
0.265
0.105
-0.005
-0.09
-0.155
-0.195
-0.225
-0.24
-0.245
-0.245
-0.24
-0.255
-0.285
-0.31
-0.33
-0.33
-0.32
-0.33
-0.355
-0.385
-0.39
-0.385
-0.36
-0.37
-0.385
-0.4
-0.405
-0.4
-0.39
-0.39
-0.4
-0.42
-0.415
-0.415
-0.4
-0.4
-0.425
-0.455
-0.45
-0.425
-0.425
-0.43
-0.42
-0.44
-0.45
-0.44
-0.43
-0.445
-0.465
-0.465
-0.465
-0.45
-0.445
-0.435
-0.45
-0.47
-0.475
-0.465
-0.465
-0.46
-0.495
-0.515
-0.52
-0.48
-0.46
-0.45
-0.465
-0.47
-0.47
-0.45
-0.435
-0.415
-0.42
-0.415
-0.405
-0.385
-0.355
-0.36
-0.35
-0.355
-0.355
-0.335
-0.315
-0.31
-0.31
-0.33
-0.315
-0.295
-0.255
-0.245
-0.245
-0.245
-0.25
-0.225
-0.21
-0.21
-0.225
-0.225
-0.235
-0.23
-0.215
-0.22
-0.225
-0.225
-0.215
-0.215
-0.21
-0.2
-0.22
-0.235
-0.23
-0.215
-0.205
-0.225
-0.225
-0.24
-0.235
-0.23
-0.21
-0.205
-0.225
-0.23
-0.235
-0.22
-0.215
-0.23
-0.23
-0.23
-0.23
-0.225
-0.22
-0.205
-0.225
-0.24
-0.235
-0.23
-0.21
-0.19
-0.195
-0.155
-0.105
0.0
0.125
0.235
0.32
0.42
0.525
0.685
0.83
0.945
1.03
1.075
1.09
1.02
0.89
0.665
0.42
0.215
0.08
-0.005
-0.07
-0.145
-0.19
-0.215
-0.2
-0.19
-0.185
-0.21
-0.255
-0.28
-0.295
-0.285
-0.3
-0.3
-0.315
-0.34
-0.34
-0.34
-0.335
-0.355
-0.355
-0.365
-0.39
-0.375
-0.36
-0.375
-0.385
-0.41
-0.4
-0.39
-0.39
-0.395
-0.405
-0.425
-0.42
-0.415
-0.415
-0.405
-0.415
-0.42
-0.435
-0.405
-0.405
-0.405
-0.415
-0.435
-0.445
-0.42
-0.43
-0.41
-0.43
-0.44
-0.44
-0.435
-0.43
-0.435
-0.455
-0.47
-0.475
-0.465
-0.46
-0.445
-0.455
-0.445
-0.45
-0.435
-0.405
-0.395
-0.41
-0.4
-0.395
-0.365
-0.35
-0.33
-0.335
-0.335
-0.32
-0.305
-0.29
-0.285
-0.285
-0.295
-0.285
-0.265
-0.235
-0.23
-0.22
-0.245
-0.22
-0.2
-0.19
-0.19
-0.2
-0.205
-0.215
-0.215
-0.2
-0.195
-0.2
-0.225
-0.23
-0.205
-0.2
-0.21
-0.215
-0.22
-0.23
-0.225
-0.21
-0.22
-0.225
-0.225
-0.225
-0.215
-0.22
-0.21
-0.225
-0.225
-0.225
-0.22
-0.205
-0.21
-0.215
-0.23
-0.225
-0.22
-0.195
-0.195
-0.19
-0.205
-0.18
-0.135
-0.1
-0.045
0.035
0.125
0.245
0.345
0.475
0.6
0.76
0.895
1.0
1.09
1.145
1.13
1.04
0.895
0.7
0.45
0.235
0.055
-0.05
-0.145
-0.2
-0.24
-0.25
-0.24
-0.25
-0.275
-0.29
-0.285
-0.285
-0.27
-0.275
-0.315
-0.315
-0.315
-0.315
-0.32
-0.325
-0.35
-0.35
-0.35
-0.35
-0.345
-0.365
-0.385
-0.385
-0.37
-0.37
-0.375
-0.375
-0.4
-0.395
-0.39
-0.385
-0.38
-0.38
-0.4
-0.395
-0.405
-0.38
-0.385
-0.38
-0.41
-0.415
-0.4
-0.39
-0.375
-0.4
-0.405
-0.41
-0.42
-0.395
-0.39
-0.415
-0.425
-0.425
-0.42
-0.415
-0.405
-0.415
-0.425
-0.435
-0.425
-0.4
-0.38
-0.38
-0.375
-0.38
-0.39
-0.37
-0.345
-0.355
-0.365
-0.37
-0.355
-0.33
-0.31
-0.315
-0.335
-0.33
-0.32
-0.295
-0.28
-0.295
-0.3
-0.29
-0.27
-0.245
-0.23
-0.225
-0.235
-0.22
-0.215
-0.19
-0.18
-0.19
-0.2
-0.215
-0.205
-0.185
-0.175
-0.185
-0.195
-0.2
-0.19
-0.18
-0.185
-0.205
-0.21
-0.21
-0.19
-0.185
-0.2
-0.205
-0.2
-0.22
-0.205
-0.18
-0.185
-0.185
-0.205
-0.215
-0.195
-0.18
-0.175
-0.195
-0.195
-0.2
-0.195
-0.18
-0.18
-0.2
-0.2
-0.205
-0.18
-0.17
-0.145
-0.14
-0.135
-0.105
-0.055
0.02
0.115
0.205
0.28
0.39
0.515
0.655
0.785
0.885
0.975
1.07
1.125
1.145
1.055
0.91
0.695
0.45
0.23
0.07
-0.06
-0.16
-0.22
-0.245
-0.235
-0.22
-0.23
-0.245
-0.245
-0.24
-0.23
-0.24
-0.245
-0.265
-0.285
-0.305
-0.29
-0.295
-0.295
-0.315
-0.325
-0.335
-0.315
-0.31
-0.325
-0.345
-0.355
-0.35
-0.355
-0.355
-0.36
-0.37
-0.375
-0.385
-0.365
-0.36
-0.36
-0.37
-0.39
-0.39
-0.38
-0.365
-0.37
-0.385
-0.39
-0.39
-0.39
-0.38
-0.385
-0.39
-0.405
-0.41
-0.4
-0.39
-0.39
-0.41
-0.435
-0.425
-0.415
-0.405
-0.415
-0.44
-0.45
-0.46
-0.445
-0.41
-0.41
-0.415
-0.42
-0.42
-0.405
-0.37
-0.36
-0.38
-0.38
-0.385
-0.36
-0.345
-0.33
-0.325
-0.325
-0.32
-0.29
-0.28
-0.275
-0.275
-0.28
-0.29
-0.27
-0.24
-0.24
-0.235
-0.25
-0.245
-0.235
-0.2
-0.17
-0.17
-0.18
-0.185
-0.175
-0.165
-0.165
-0.175
-0.17
-0.17
-0.175
-0.15
-0.145
-0.155
-0.185
-0.175
-0.165
-0.155
-0.15
-0.16
-0.175
-0.175
-0.17
-0.155
-0.17
-0.17
-0.175
-0.185
-0.17
-0.17
-0.17
-0.17
-0.185
-0.195
-0.19
-0.14
-0.155
-0.16
-0.175
-0.18
-0.17
-0.145
-0.155
-0.145
-0.145
-0.13
-0.11
-0.075
-0.035
-0.01
0.05
0.16
0.285
0.4
0.495
0.595
0.715
0.87
1.005
1.12
1.205
1.26
1.265
1.18
1.045
0.855
0.6
0.35
0.14
-0.005
-0.1
-0.155
-0.21
-0.245
-0.255
-0.245
-0.235
-0.235
-0.25
-0.275
-0.305
-0.3
-0.275
-0.26
-0.25
-0.275
-0.305
-0.31
-0.295
-0.3
-0.3
-0.31
-0.32
-0.33
-0.315
-0.32
-0.315
-0.345
-0.345
-0.35
-0.345
-0.335
-0.335
-0.35
-0.365
-0.365
-0.35
-0.345
-0.335
-0.35
-0.36
-0.37
-0.375
-0.36
-0.345
-0.355
-0.385
-0.38
-0.365
-0.36
-0.36
-0.365
-0.375
-0.385
-0.38
-0.375
-0.365
-0.385
-0.395
-0.38
-0.375
-0.36
-0.365
-0.355
-0.39
-0.39
-0.36
-0.345
-0.34
-0.33
-0.345
-0.325
-0.325
-0.31
-0.305
-0.315
-0.34
-0.335
-0.32
-0.3
-0.295
-0.3
-0.315
-0.305
-0.295
-0.27
-0.27
-0.275
-0.275
-0.26
-0.245
-0.235
-0.22
-0.225
-0.225
-0.21
-0.185
-0.16
-0.15
-0.145
-0.145
-0.145
-0.145
-0.125
-0.125
-0.14
-0.15
-0.155
-0.135
-0.135
-0.125
-0.12
-0.155
-0.145
-0.145
-0.12
-0.12
-0.135
-0.15
-0.14
-0.135
-0.115
-0.12
-0.135
-0.135
-0.145
-0.145
-0.13
-0.125
-0.13
-0.155
-0.145
-0.135
-0.135
-0.125
-0.125
-0.145
-0.15
-0.14
-0.13
-0.12
-0.12
-0.125
-0.125
-0.11
-0.085
-0.065
-0.035
-0.005
0.07
0.17
0.285
0.385
0.485
0.59
0.74
0.89
1.02
1.13
1.23
1.29
1.3
1.245
1.14
0.935
0.68
0.43
0.23
0.085
-0.01
-0.1
-0.165
-0.19
-0.195
-0.17
-0.175
-0.195
-0.2
-0.21
-0.22
-0.21
-0.205
-0.225
-0.245
-0.255
-0.265
-0.26
-0.255
-0.265
-0.27
-0.3
-0.3
-0.29
-0.285
-0.295
-0.315
-0.325
-0.325
-0.32
-0.32
-0.34
-0.355
-0.36
-0.36
-0.345
-0.33
-0.345
-0.35
-0.36
-0.37
-0.355
-0.355
-0.35
-0.37
-0.39
-0.395
-0.4
-0.385
-0.39
-0.39
-0.41
-0.415
-0.41
-0.395
-0.4
-0.425
-0.435
-0.445
-0.435
-0.415
-0.41
-0.435
-0.44
-0.445
-0.44
-0.425
-0.425
-0.42
-0.425
-0.415
-0.405
-0.38
-0.37
-0.375
-0.385
-0.38
-0.375
-0.345
-0.35
-0.35
-0.355
-0.34
-0.31
-0.29
-0.28
-0.285
-0.285
-0.275
-0.27
-0.24
-0.23
-0.225
-0.24
-0.23
-0.19
-0.165
-0.16
-0.165
-0.2
-0.17
-0.15
-0.15
-0.145
-0.155
-0.175
-0.175
-0.17
-0.14
-0.145
-0.15
-0.17
-0.17
-0.16
-0.14
-0.145
-0.14
-0.155
-0.165
-0.16
-0.145
-0.15
-0.145
-0.165
-0.165
-0.145
-0.135
-0.145
-0.155
-0.155
-0.15
-0.15
-0.145
-0.14
-0.17
-0.19
-0.16
-0.155
-0.135
-0.14
-0.14
-0.145
-0.145
-0.12
-0.085
-0.07
-0.055
-0.02
0.07
0.18
0.28
0.39
0.485
0.57
0.705
0.84
0.975
1.07
1.16
1.21
1.205
1.14
1.035
0.845
0.6
