Lead II
-0.95
-0.95
-0.94
-0.94
-0.935
-0.905
-0.895
-0.895
-0.89
-0.895
-0.91
-0.895
-0.89
-0.9
-0.885
-0.875
-0.85
-0.83
-0.775
-0.695
-0.54
-0.36
-0.12
0.105
0.355
0.605
0.86
1.08
1.19
1.14
0.9
0.48
-0.045
-0.615
-1.145
-1.52
-1.695
-1.72
-1.6
-1.465
-1.305
-1.195
-1.115
-1.085
-1.04
-1.015
-0.98
-0.95
-0.93
-0.915
-0.905
-0.91
-0.895
-0.895
-0.905
-0.91
-0.895
-0.905
-0.905
-0.91
-0.905
-0.905
-0.9
-0.9
-0.89
-0.88
-0.88
-0.885
-0.865
-0.86
-0.87
-0.875
-0.875
-0.88
-0.885
-0.905
-0.88
-0.875
-0.855
-0.875
-0.86
-0.88
-0.885
-0.895
-0.88
-0.9
-0.875
-0.88
-0.87
-0.86
-0.845
-0.85
-0.84
-0.845
-0.85
-0.86
-0.86
-0.88
-0.88
-0.875
-0.845
-0.85
-0.83
-0.825
-0.81
-0.8
-0.81
-0.815
-0.81
-0.8
-0.795
-0.8
-0.775
-0.765
-0.75
-0.74
-0.73
-0.71
-0.715
-0.725
-0.72
-0.71
-0.705
-0.685
-0.68
-0.66
-0.64
-0.63
-0.615
-0.605
-0.63
-0.625
-0.62
-0.6
-0.59
-0.575
-0.56
-0.545
-0.52
-0.51
-0.49
-0.48
-0.495
-0.48
-0.475
-0.48
-0.485
-0.48
-0.465
-0.465
-0.46
-0.47
-0.49
-0.505
-0.53
-0.535
-0.57
-0.58
-0.6
-0.61
-0.61
-0.62
-0.635
-0.655
-0.665
-0.68
-0.7
-0.715
-0.735
-0.75
-0.77
-0.765
-0.76
-0.785
-0.75
-0.75
-0.765
-0.785
-0.78
-0.785
-0.8
-0.795
-0.79
-0.785
-0.79
-0.775
-0.765
-0.77
-0.77
-0.765
-0.785
-0.785
-0.795
-0.79
-0.8
-0.79
-0.785
-0.77
-0.76
-0.755
-0.75
-0.76
-0.765
-0.765
-0.78
-0.79
-0.785
-0.775
-0.755
-0.76
-0.74
-0.74
-0.74
-0.735
-0.745
-0.745
-0.74
-0.755
-0.755
-0.755
-0.74
-0.725
-0.71
-0.71
-0.71
-0.72
-0.735
-0.735
-0.74
-0.755
-0.755
-0.75
-0.73
-0.73
-0.725
-0.725
-0.73
-0.735
-0.72
-0.745
-0.74
-0.755
-0.77
-0.765
-0.76
-0.75
-0.75
-0.735
-0.745
-0.755
-0.755
-0.765
-0.78
-0.79
-0.785
-0.78
-0.765
-0.77
-0.755
-0.755
-0.765
-0.77
-0.775
-0.785
-0.785
-0.795
-0.795
-0.795
-0.795
-0.785
-0.78
-0.765
-0.77
-0.78
-0.785
-0.795
-0.795
-0.81
-0.825
-0.815
-0.805
-0.79
-0.775
-0.78
-0.77
-0.795
-0.795
-0.805
-0.82
-0.82
-0.815
-0.825
-0.81
-0.805
-0.795
-0.795
-0.795
-0.8
-0.82
-0.825
-0.83
-0.85
-0.845
-0.835
-0.825
-0.81
-0.805
-0.805
-0.81
-0.795
-0.805
-0.81
-0.825
-0.825
-0.84
-0.835
-0.81
-0.805
-0.795
-0.795
-0.795
-0.8
-0.805
-0.805
-0.805
-0.825
-0.82
-0.815
-0.805
-0.81
-0.795
-0.795
-0.795
-0.8
-0.805
-0.795
-0.81
-0.81
-0.82
-0.815
-0.805
-0.81
-0.8
-0.795
-0.785
-0.78
-0.8
-0.805
-0.8
-0.81
-0.81
-0.795
-0.8
-0.785
-0.77
-0.77
-0.78
-0.785
-0.79
-0.78
-0.78
-0.77
-0.76
-0.745
-0.715
-0.695
-0.675
-0.655
-0.655
-0.655
-0.655
-0.675
-0.68
-0.675
-0.65
-0.66
-0.66
-0.655
-0.66
-0.685
-0.67
-0.68
-0.7
-0.7
-0.705
-0.71
-0.72
-0.72
-0.73
-0.73
-0.72
-0.755
-0.76
-0.785
-0.805
-0.835
-0.855
-0.85
-0.865
-0.87
-0.865
-0.85
-0.845
-0.84
-0.85
-0.86
-0.865
-0.885
-0.88
-0.885
-0.88
-0.88
-0.87
-0.86
-0.845
-0.84
-0.85
-0.845
-0.86
-0.865
-0.875
-0.865
-0.87
-0.865
-0.855
-0.835
-0.83
-0.83
-0.825
-0.82
-0.815
-0.82
-0.81
-0.82
-0.81
-0.79
-0.76
-0.725
-0.665
-0.55
-0.39
-0.185
0.05
0.285
0.535
0.8
1.045
1.24
1.285
1.15
0.84
0.365
-0.195
-0.785
-1.25
-1.53
-1.605
-1.51
-1.31
-1.1
-0.96
-0.885
-0.855
-0.865
-0.86
-0.855
-0.85
-0.83
-0.82
-0.82
-0.815
-0.82
-0.815
-0.805
-0.805
-0.8
-0.795
-0.8
-0.805
-0.81
-0.81
-0.825
-0.835
-0.815
-0.835
-0.805
-0.805
-0.8
-0.785
-0.79
-0.805
-0.81
-0.845
-0.835
-0.83
-0.825
-0.805
-0.805
-0.79
-0.805
-0.81
-0.815
-0.82
-0.83
-0.825
-0.835
-0.825
-0.825
-0.83
-0.815
-0.8
-0.805
-0.785
-0.785
-0.79
-0.8
-0.805
-0.79
-0.785
-0.79
-0.765
-0.745
-0.745
-0.735
-0.745
-0.735
-0.74
-0.74
-0.735
-0.735
-0.735
-0.715
-0.705
-0.695
-0.67
-0.66
-0.64
-0.625
-0.64
-0.625
-0.625
-0.62
-0.595
-0.58
-0.56
-0.535
-0.515
-0.505
-0.505
-0.495
-0.475
-0.46
-0.46
-0.445
-0.435
-0.425
-0.41
-0.39
-0.37
-0.355
-0.355
-0.345
-0.34
-0.345
-0.36
-0.37
-0.385
-0.395
-0.385
-0.41
-0.4
-0.42
-0.435
-0.47
-0.505
-0.52
-0.555
-0.585
-0.605
-0.62
-0.62
-0.64
-0.655
-0.655
-0.675
-0.68
-0.705
-0.73
-0.73
-0.755
-0.755
-0.75
-0.75
-0.75
-0.73
-0.745
-0.755
-0.745
-0.75
-0.76
-0.77
-0.775
-0.77
-0.765
-0.77
-0.765
-0.775
-0.755
-0.75
-0.745
-0.745
-0.755
-0.77
-0.765
-0.775
-0.765
-0.75
-0.74
-0.725
-0.72
-0.725
-0.725
-0.73
-0.74
-0.74
-0.745
-0.745
-0.74
-0.75
-0.72
-0.71
-0.7
-0.705
-0.71
-0.74
-0.75
-0.75
-0.745
-0.75
-0.745
-0.755
-0.73
-0.715
-0.72
-0.74
-0.73
-0.735
-0.74
-0.745
-0.755
-0.775
-0.755
-0.75
-0.745
-0.715
-0.725
-0.73
-0.745
-0.75
-0.77
-0.78
-0.78
-0.77
-0.775
-0.775
-0.765
-0.74
-0.74
-0.76
-0.775
-0.77
-0.785
-0.79
-0.795
-0.8
-0.785
-0.79
-0.775
-0.77
-0.755
-0.765
-0.765
-0.78
-0.785
-0.79
-0.8
-0.79
-0.79
-0.78
-0.765
-0.76
-0.77
-0.775
-0.76
-0.765
-0.785
-0.79
-0.795
-0.795
-0.79
-0.79
-0.785
-0.78
-0.775
-0.77
-0.78
-0.79
-0.8
-0.805
-0.815
-0.81
-0.81
-0.79
-0.79
-0.785
-0.77
-0.785
-0.78
-0.785
-0.8
-0.8
-0.815
-0.815
-0.82
-0.8
-0.795
-0.79
-0.78
-0.775
-0.79
-0.795
-0.805
-0.82
-0.82
-0.83
-0.82
-0.815
-0.805
-0.78
-0.79
-0.795
-0.8
-0.795
-0.81
-0.815
-0.815
-0.82
-0.81
-0.82
-0.81
-0.8
-0.795
-0.795
-0.79
-0.795
-0.815
-0.815
-0.83
-0.82
-0.82
-0.805
-0.8
-0.79
-0.79
-0.78
-0.795
-0.79
-0.815
-0.82
-0.82
-0.825
-0.825
-0.805
-0.8
-0.795
-0.79
-0.795
-0.79
-0.81
-0.81
-0.815
-0.81
-0.81
-0.8
-0.785
-0.765
-0.77
-0.725
-0.72
-0.7
-0.7
-0.695
-0.71
-0.69
-0.695
-0.7
-0.69
-0.67
-0.655
-0.64
-0.635
-0.61
-0.64
-0.66
-0.69
-0.71
-0.71
-0.72
-0.72
-0.72
-0.715
-0.69
-0.685
-0.695
-0.72
-0.765
-0.78
-0.8
-0.825
-0.83
-0.845
-0.85
-0.835
-0.83
-0.84
-0.855
-0.875
-0.885
-0.89
-0.9
-0.9
-0.895
-0.905
-0.9
-0.875
-0.875
-0.87
-0.88
-0.885
-0.885
-0.9
-0.895
-0.895
-0.895
-0.885
-0.885
-0.87
-0.865
-0.85
-0.85
-0.86
-0.875
-0.895
-0.88
-0.885
-0.885
-0.875
-0.855
-0.84
-0.815
-0.81
-0.805
-0.815
-0.79
-0.77
-0.745
-0.69
-0.585
-0.42
-0.22
-0.005
0.225
0.475
0.745
0.965
1.095
1.08
0.88
0.52
0.045
-0.44
-0.915
-1.275
-1.48
-1.525
-1.47
-1.315
-1.185
-1.075
-1.035
-1.02
-1.005
-0.985
-0.945
-0.9
-0.87
-0.84
-0.815
-0.825
-0.84
-0.885
-0.875
-0.885
-0.885
-0.875
-0.86
-0.84
-0.84
-0.835
-0.83
-0.84
-0.85
-0.855
-0.86
-0.865
-0.86
-0.855
-0.855
-0.83
-0.835
-0.815
-0.825
-0.83
-0.845
-0.855
-0.865
-0.88
-0.865
-0.85
-0.845
-0.835
-0.81
-0.825
-0.835
-0.835
-0.86
-0.845
-0.85
-0.855
-0.86
-0.86
-0.83
-0.82
-0.81
-0.81
-0.805
-0.82
-0.82
-0.83
-0.83
-0.835
-0.84
-0.82
-0.8
-0.8
-0.78
-0.77
-0.76
-0.755
-0.765
-0.77
-0.77
-0.755
-0.745
-0.74
-0.72
-0.72
-0.695
-0.675
-0.66
-0.665
-0.655
-0.65
-0.655
-0.63
-0.63
-0.6
-0.57
-0.55
-0.535
-0.525
-0.52
-0.515
-0.52
-0.51
-0.505
-0.49
-0.475
-0.46
-0.45
-0.435
-0.415
-0.41
-0.405
-0.41
-0.43
-0.435
-0.445
-0.46
-0.465
-0.47
-0.47
-0.47
-0.485
-0.515
-0.525
-0.555
-0.58
-0.605
-0.63
-0.655
-0.67
-0.68
-0.7
-0.705
-0.7
-0.72
-0.74
-0.76
-0.78
-0.775
-0.795
-0.81
-0.82
-0.8
-0.795
-0.81
-0.78
-0.795
-0.8
-0.805
-0.81
-0.845
-0.84
-0.84
-0.84
-0.83
-0.81
-0.805
-0.81
-0.815
-0.82
-0.82
-0.835
-0.84
-0.83
-0.865
-0.87
-0.845
-0.82
-0.815
-0.8
-0.8
-0.805
-0.81
-0.825
-0.825
-0.81
-0.825
-0.825
-0.82
-0.795
-0.78
-0.79
-0.775
-0.775
-0.78
-0.8
-0.795
-0.81
-0.82
-0.805
-0.8
-0.795
-0.775
-0.765
-0.775
-0.77
-0.79
-0.785
-0.79
-0.795
-0.8
-0.8
-0.805
-0.795
-0.79
-0.775
-0.79
-0.795
-0.8
-0.82
-0.82
-0.84
-0.825
-0.83
-0.825
-0.815
-0.805
-0.795
-0.8
-0.805
-0.82
-0.825
-0.83
-0.85
-0.855
-0.86
-0.855
-0.855
-0.84
-0.855
-0.85
-0.845
-0.855
-0.86
-0.865
-0.875
-0.88
-0.87
-0.87
-0.85
-0.845
-0.835
-0.845
-0.845
-0.855
-0.865
-0.875
-0.885
-0.895
-0.88
-0.895
-0.865
-0.85
-0.855
-0.855
-0.845
-0.855
-0.865
-0.87
-0.87
-0.88
-0.905
-0.875
-0.855
-0.87
-0.85
-0.86
-0.855
-0.87
-0.88
-0.895
-0.9
-0.91
-0.895
-0.885
-0.89
-0.865
-0.87
-0.87
-0.86
-0.875
-0.88
-0.88
-0.885
-0.895
-0.885
-0.915
-0.9
-0.89
-0.875
-0.87
-0.865
-0.87
-0.875
-0.895
-0.895
-0.885
-0.895
-0.885
-0.87
-0.88
-0.87
-0.86
-0.85
-0.835
-0.825
-0.81
-0.815
-0.805
-0.8
-0.775
-0.77
-0.74
-0.735
-0.715
-0.71
-0.705
-0.695
-0.695
-0.71
-0.73
-0.765
-0.755
-0.755
-0.76
-0.76
-0.765
-0.765
-0.76
-0.76
-0.76
-0.805
-0.83
-0.85
-0.875
-0.875
-0.885
-0.895
-0.88
-0.88
-0.895
-0.915
-0.93
-0.94
-0.945
-0.96
-0.95
-0.93
-0.915
-0.92
-0.93
-0.925
-0.925
-0.945
-0.945
-0.955
-0.96
-0.955
-0.945
-0.925
-0.91
-0.9
-0.9
-0.895
-0.9
-0.905
-0.92
-0.925
-0.93
-0.935
-0.915
-0.9
-0.885
-0.875
-0.875
-0.865
-0.875
-0.875
-0.88
-0.88
-0.87
-0.865
-0.855
-0.845
-0.795
-0.69
-0.525
-0.3
-0.065
0.175
0.44
0.715
0.97
1.135
1.12
0.92
0.505
-0.01
-0.595
-1.135
-1.51
-1.69
-1.68
-1.575
-1.41
-1.26
-1.145
-1.075
-1.04
-0.995
-0.96
-0.93
-0.9
-0.905
-0.91
-0.905
-0.905
-0.925
-0.92
-0.905
-0.9
-0.88
-0.895
-0.89
-0.88
-0.87
-0.88
-0.89
-0.875
-0.89
-0.885
-0.875
-0.865
-0.86
-0.865
-0.845
-0.855
-0.86
-0.88
-0.875
-0.88
-0.885
-0.875
-0.86
-0.855
-0.84
-0.85
-0.845
-0.855
-0.87
-0.86
-0.865
-0.865
-0.865
-0.86
-0.845
-0.845
-0.84
-0.815
-0.82
-0.825
-0.835
-0.83
-0.845
-0.845
-0.835
-0.83
-0.8
-0.785
-0.785
-0.77
-0.78
-0.77
-0.775
-0.775
-0.78
-0.77
-0.765
-0.76
-0.74
-0.72
-0.7
-0.715
-0.71
-0.68
-0.685
-0.69
-0.68
-0.68
-0.65
-0.65
-0.62
-0.605
-0.585
-0.57
-0.565
-0.555
-0.55
-0.545
-0.545
-0.535
-0.52
-0.515
-0.485
-0.47
-0.455
-0.46
-0.44
-0.445
-0.45
-0.45
-0.465
-0.46
-0.495
-0.485
-0.485
-0.47
-0.465
-0.485
-0.5
-0.515
-0.55
-0.575
-0.595
-0.595
-0.62
-0.635
-0.64
-0.63
-0.65
-0.65
-0.675
-0.695
-0.705
-0.71
-0.725
-0.745
-0.745
-0.745
-0.74
-0.735
-0.73
-0.73
-0.74
-0.75
-0.755
-0.75
-0.76
-0.755
-0.77
-0.765
-0.755
-0.75
-0.745
-0.745
-0.73
-0.745
-0.745
-0.76
-0.76
-0.77
-0.765
-0.76
-0.75
-0.735
-0.725
-0.73
-0.73
-0.73
-0.735
-0.745
-0.755
-0.75
-0.76
-0.745
-0.74
-0.725
-0.71
-0.71
-0.71
-0.715
-0.72
-0.735
-0.755
-0.735
-0.73
-0.725
-0.71
-0.695
-0.695
-0.685
-0.695
-0.705
-0.715
-0.73
-0.735
-0.735
-0.735
-0.74
-0.735
-0.71
-0.7
-0.715
-0.705
-0.725
-0.735
-0.745
-0.755
-0.77
-0.755
-0.765
-0.74
-0.74
-0.725
-0.73
-0.73
-0.73
-0.745
-0.77
-0.765
-0.775
-0.77
-0.775
-0.76
-0.77
-0.75
-0.76
-0.74
-0.77
-0.765
-0.765
-0.775
-0.775
-0.8
-0.79
-0.79
-0.77
-0.755
-0.765
-0.755
-0.765
-0.775
-0.775
-0.795
-0.785
-0.79
-0.775
-0.78
-0.78
-0.76
-0.755
-0.765
-0.765
-0.77
-0.775
-0.78
-0.79
-0.79
-0.8
-0.77
-0.76
-0.765
-0.765
-0.75
-0.76
-0.77
-0.77
-0.78
-0.785
-0.79
-0.775
-0.785
-0.77
-0.765
-0.76
-0.755
-0.765
-0.77
-0.775
-0.795
-0.8
-0.8
-0.785
-0.78
-0.78
-0.77
-0.75
-0.77
-0.77
-0.775
-0.78
-0.785
-0.8
-0.79
-0.785
-0.79
-0.775
-0.775
-0.755
-0.745
-0.755
-0.755
-0.77
-0.775
-0.79
-0.785
-0.79
-0.775
-0.775
-0.76
-0.76
-0.78
-0.77
-0.765
-0.78
-0.785
-0.785
-0.79
-0.775
-0.78
-0.77
-0.76
-0.765
-0.76
-0.755
-0.76
-0.76
-0.785
-0.785
-0.765
-0.745
-0.74
-0.72
-0.695
-0.67
-0.655
-0.65
-0.65
-0.655
-0.65
-0.645
-0.645
-0.63
-0.61
-0.595
-0.58
-0.585
-0.605
-0.605
-0.625
-0.655
-0.65
-0.67
-0.675
-0.675
-0.66
-0.675
-0.69
-0.66
-0.66
-0.69
-0.71
-0.745
-0.765
-0.785
-0.795
-0.805
-0.805
-0.805
-0.79
-0.795
-0.8
-0.8
-0.81
-0.815
-0.83
-0.815
-0.84
-0.815
-0.805
-0.795
-0.795
-0.8
-0.79
-0.795
-0.805
-0.805
-0.81
-0.825
-0.83
-0.83
-0.81
-0.8
-0.775
-0.785
-0.77
-0.77
-0.78
-0.775
-0.77
-0.775
-0.77
-0.755
-0.73
-0.7
-0.665
-0.62
-0.535
-0.405
-0.23
-0.01
0.22
0.44
0.69
0.94
1.135
1.215
1.125
0.855
0.405
-0.11
-0.68
-1.14
-1.445
-1.515
-1.435
-1.26
-1.065
-0.92
-0.835
-0.81
-0.84
-0.835
-0.825
-0.825
-0.82
-0.785
-0.78
-0.79
-0.76
-0.77
-0.77
-0.775
-0.76
-0.755
-0.75
-0.765
-0.775
-0.79
-0.795
-0.79
-0.785
-0.785
-0.775
-0.75
-0.74
-0.755
-0.765
-0.775
-0.77
-0.77
-0.78
-0.765
-0.76
-0.765
-0.765
-0.74
-0.735
-0.74
-0.76
-0.76
-0.77
-0.77
-0.79
-0.77
-0.755
-0.75
-0.735
-0.74
-0.735
-0.735
-0.75
-0.76
-0.76
-0.785
-0.76
-0.76
-0.745
-0.745
-0.71
-0.71
-0.71
-0.705
-0.7
-0.72
-0.705
-0.71
-0.695
-0.685
-0.675
-0.675
-0.67
-0.65
-0.635
-0.63
-0.635
-0.645
-0.625
-0.64
-0.615
-0.605
-0.58
-0.535
-0.55
-0.53
-0.51
-0.495
-0.495
-0.495
-0.48
-0.475
-0.46
-0.44
-0.42
-0.4
-0.375
-0.355
-0.35
-0.335
-0.35
-0.35
-0.33
-0.34
-0.33
-0.325
-0.315
-0.31
-0.3
-0.31
-0.32
-0.345
-0.35
-0.38
-0.42
-0.44
-0.45
-0.47
-0.475
-0.485
-0.51
-0.515
-0.525
-0.545
-0.575
-0.6
-0.61
-0.615
-0.65
-0.66
-0.66
-0.67
-0.66
-0.67
-0.665
-0.68
-0.685
-0.7
-0.705
-0.72
-0.72
-0.74
-0.71
-0.7
-0.695
-0.695
-0.69
-0.695
-0.725
-0.74
-0.745
-0.76
-0.75
-0.75
-0.75
-0.74
-0.725
-0.725
-0.71
-0.72
-0.72
-0.72
-0.74
-0.74
-0.74
-0.74
-0.735
-0.73
-0.71
-0.71
-0.705
-0.705
-0.71
-0.73
-0.74
-0.735
-0.74
-0.745
-0.745
-0.71
-0.735
-0.695
-0.705
-0.7
-0.725
-0.725
-0.73
-0.73
-0.74
-0.735
-0.725
-0.72
-0.71
-0.715
-0.71
-0.715
-0.72
-0.73
-0.725
-0.745
-0.75
-0.745
-0.745
-0.735
-0.725
-0.72
-0.725
-0.74
-0.745
-0.755
-0.775
-0.77
-0.775
-0.765
-0.765
-0.755
-0.745
-0.75
-0.75
-0.75
-0.755
-0.76
-0.765
-0.77
-0.78
-0.785
-0.78
-0.755
-0.765
-0.745
-0.76
-0.78
-0.775
-0.78
-0.8
-0.82
-0.805
-0.815
-0.795
-0.785
-0.77
-0.775
-0.785
-0.78
-0.79
-0.79
-0.795
-0.79
-0.79
-0.805
-0.785
-0.79
-0.775
-0.765
-0.765
-0.78
-0.795
-0.8
-0.795
-0.79
-0.795
-0.805
-0.785
-0.79
-0.8
-0.785
-0.785
-0.785
-0.8
-0.8
-0.815
-0.805
-0.81
-0.805
-0.79
-0.79
-0.785
-0.785
-0.79
-0.79
-0.795
-0.795
-0.81
-0.81
-0.815
-0.805
-0.805
-0.8
-0.785
-0.775
-0.78
-0.79
-0.785
-0.795
-0.805
-0.805
-0.805
-0.81
-0.805
-0.785
-0.78
-0.765
-0.78
-0.785
-0.79
-0.79
-0.795
-0.815
-0.82
-0.825
-0.82
-0.795
-0.795
-0.785
-0.785
-0.785
-0.805
-0.795
-0.785
-0.785
-0.79
-0.78
-0.76
-0.745
-0.73
-0.705
-0.7
-0.69
-0.68
-0.685
-0.695
-0.695
-0.69
-0.675
-0.645
-0.625
-0.615
-0.61
-0.63
-0.66
-0.685
-0.69
-0.72
-0.72
-0.72
-0.705
-0.695
-0.695
-0.69
-0.715
-0.745
-0.77
-0.805
-0.83
-0.835
-0.84
-0.845
-0.845
-0.85
-0.855
-0.86
-0.855
-0.865
-0.855
-0.86
-0.86
-0.87
-0.87
-0.88
-0.875
-0.86
-0.86
-0.845
-0.84
-0.85
-0.84
-0.85
-0.85
-0.865
-0.865
-0.87
-0.86
-0.85
-0.84
-0.83
-0.825
-0.82
-0.82
-0.84
-0.84
-0.85
-0.84
-0.845
-0.82
-0.815
-0.795
-0.785
-0.775
-0.75
-0.76
-0.72
-0.625
-0.455
-0.245
-0.03
0.205
0.47
0.745
0.975
1.135
1.11
0.88
0.525
0.02
-0.505
-1.01
-1.385
-1.58
-1.59
-1.5
-1.345
-1.2
-1.11
-1.035
-1.015
-0.975
-0.95
-0.925
-0.89
-0.88
-0.85
-0.835
-0.825
-0.83
-0.825
-0.83
-0.835
-0.845
-0.85
-0.845
-0.845
-0.865
-0.845
-0.825
-0.815
-0.82
-0.815
-0.8
-0.825
-0.84
-0.835
-0.855
-0.86
-0.85
-0.84
-0.825
-0.825
-0.81
-0.81
-0.8
-0.815
-0.835
-0.82
-0.825
-0.825
-0.835
-0.84
-0.81
-0.815
-0.81
-0.795
-0.805
-0.805
-0.82
-0.83
-0.815
-0.825
-0.84
-0.82
-0.805
-0.795
-0.77
-0.775
-0.77
-0.78
-0.785
-0.805
-0.79
-0.79
-0.78
-0.78
-0.75
-0.735
-0.715
-0.73
-0.72
-0.715
-0.72
-0.72
-0.7
-0.695
-0.7
-0.69
-0.67
-0.655
-0.65
-0.61
-0.6
-0.595
-0.6
-0.59
-0.59
-0.575
-0.575
-0.55
-0.525
-0.51
-0.49
-0.485
-0.475
-0.47
-0.47
-0.46
-0.46
-0.46
-0.445
-0.455
-0.45
-0.445
-0.445
-0.455
-0.46
-0.475
-0.51
-0.525
-0.54
-0.565
-0.58
-0.615
-0.625
-0.625
-0.63
-0.645
-0.665
-0.695
-0.705
-0.715
-0.735
-0.745
-0.755
-0.75
-0.74
-0.735
-0.74
-0.74
-0.755
-0.775
-0.795
-0.795
-0.785
-0.795
-0.79
-0.785
-0.785
-0.775
-0.78
-0.79
-0.785
-0.785
-0.78
-0.795
-0.805
-0.795
-0.805
-0.805
-0.785
-0.77
-0.765
-0.77
-0.77
-0.765
-0.79
-0.785
-0.795
-0.79
-0.79
-0.775
-0.775
-0.77
-0.775
-0.76
-0.765
-0.755
-0.775
-0.76
-0.77
-0.77
-0.765
-0.755
-0.755
-0.75
-0.735
-0.745
-0.745
-0.76
-0.765
-0.775
-0.8
-0.77
-0.765
-0.755
-0.75
-0.74
-0.74
-0.745
-0.735
-0.745
-0.755
-0.765
-0.78
-0.79
-0.795
-0.775
-0.78
-0.76
-0.75
-0.745
-0.745
-0.76
-0.775
-0.78
-0.785
-0.8
-0.79
-0.77
-0.765
-0.755
-0.75
-0.76
-0.76
-0.79
-0.785
-0.795
-0.8
-0.805
-0.8
-0.795
-0.8
-0.795
-0.785
-0.785
-0.795
-0.795
-0.81
-0.82
-0.83
-0.825
-0.825
-0.805
-0.805
-0.79
-0.775
-0.785
-0.78
-0.79
-0.795
-0.8
-0.81
-0.82
-0.825
-0.815
-0.835
-0.82
-0.805
-0.805
-0.795
-0.79
-0.815
-0.795
-0.805
-0.815
-0.815
-0.805
-0.795
-0.8
-0.785
-0.79
-0.785
-0.8
-0.795
-0.81
-0.81
-0.81
-0.81
-0.8
-0.8
-0.79
-0.795
-0.785
-0.785
-0.79
-0.8
-0.825
-0.815
-0.805
-0.81
-0.815
-0.805
-0.8
-0.78
-0.77
-0.775
-0.77
-0.785
-0.79
-0.8
-0.8
-0.78
-0.77
-0.775
-0.745
-0.735
-0.71
-0.705
-0.7
-0.695
-0.7
-0.685
-0.69
-0.7
-0.675
-0.665
-0.65
-0.63
-0.63
-0.61
-0.63
-0.655
-0.675
-0.695
-0.7
-0.705
-0.705
-0.695
-0.69
-0.675
-0.68
-0.705
-0.72
-0.75
-0.78
-0.81
-0.83
-0.845
-0.85
-0.85
-0.825
-0.84
-0.84
-0.835
-0.845
-0.855
-0.865
-0.88
-0.88
-0.89
-0.88
-0.865
-0.855
-0.855
-0.84
-0.85
-0.855
-0.855
-0.865
-0.865
-0.88
-0.87
-0.87
-0.845
-0.855
-0.835
-0.825
-0.835
-0.85
-0.87
-0.85
-0.865
-0.85
-0.835
-0.845
-0.82
-0.82
-0.795
-0.775
-0.77
-0.77
-0.75
-0.72
-0.67
-0.52
-0.33
-0.09
0.165
0.405
0.69
0.95
1.13
1.165
1.05
0.745
0.305
-0.23
-0.77
-1.215
-1.49
-1.585
-1.515
-1.345
-1.16
-1.02
-0.955
-0.93
-0.925
-0.93
-0.905
-0.87
-0.845
-0.82
-0.8
-0.795
-0.8
-0.825
-0.835
-0.84
-0.845
-0.85
-0.84
-0.83
-0.83
-0.835
-0.815
-0.815
-0.81
-0.82
-0.83
-0.86
-0.855
-0.855
-0.855
-0.84
-0.835
-0.82
-0.81
-0.815
-0.82
-0.82
-0.84
-0.835
-0.845
-0.835
-0.84
-0.84
-0.835
-0.835
-0.81
-0.805
-0.8
-0.81
-0.825
-0.835
-0.835
-0.835
-0.835
-0.83
-0.81
-0.805
-0.795
-0.78
-0.79
-0.79
-0.78
-0.785
-0.785
-0.785
-0.795
-0.765
-0.77
-0.75
-0.73
-0.725
-0.71
-0.705
-0.705
-0.7
-0.7
-0.695
-0.675
-0.675
-0.645
-0.64
-0.605
-0.59
-0.575
-0.57
-0.55
-0.55
-0.55
-0.535
-0.515
-0.51
-0.49
-0.48
-0.455
-0.43
-0.425
-0.41
-0.41
-0.415
-0.415
-0.405
-0.405
-0.4
-0.395
-0.365
-0.365
-0.375
-0.38
-0.385
-0.415
-0.435
-0.455
-0.48
-0.49
-0.495
-0.51
-0.515
-0.53
-0.55
-0.565
-0.59
-0.625
-0.63
-0.66
-0.675
-0.68
-0.69
-0.7
-0.695
-0.7
-0.71
-0.715
-0.72
-0.755
-0.755
-0.75
-0.76
-0.78
-0.77
-0.775
-0.76
-0.745
-0.755
-0.775
-0.75
-0.77
-0.785
-0.79
-0.795
-0.795
-0.8
-0.78
-0.805
-0.77
-0.77
-0.76
-0.765
-0.77
-0.78
-0.785
-0.775
-0.785
-0.775
-0.775
-0.755
-0.75
-0.755
-0.75
-0.75
-0.77
-0.77
-0.77
-0.78
-0.785
-0.78
-0.775
-0.76
-0.755
-0.75
-0.755
-0.75
-0.75
-0.765
-0.77
-0.77
-0.775
-0.805
-0.77
-0.75
-0.755
-0.745
-0.74
-0.73
-0.745
-0.745
-0.765
-0.78
-0.77
-0.77
-0.76
-0.745
-0.755
-0.75
-0.745
-0.755
-0.765
-0.78
-0.775
-0.79
-0.8
-0.79
-0.79
-0.775
-0.785
-0.785
-0.78
-0.8
-0.8
-0.815
-0.8
-0.795
-0.8
-0.81
-0.805
-0.795
-0.79
-0.775
-0.78
-0.795
-0.805
-0.805
-0.81
-0.815
-0.83
-0.825
-0.82
-0.81
-0.79
-0.8
-0.78
-0.795
-0.795
-0.805
-0.825
-0.835
-0.84
-0.845
-0.815
-0.82
-0.805
-0.805
-0.81
-0.805
-0.83
-0.835
-0.835
-0.835
-0.835
-0.845
-0.825
-0.81
-0.8
-0.805
-0.815
-0.82
-0.825
-0.835
-0.835
-0.85
-0.86
-0.845
-0.84
-0.815
-0.825
-0.81
-0.82
-0.82
-0.84
-0.84
-0.845
-0.85
-0.845
-0.84
-0.82
-0.815
-0.815
-0.815
-0.81
-0.82
-0.83
-0.83
-0.835
-0.83
-0.835
-0.835
-0.815
-0.82
-0.805
-0.81
-0.81
-0.805
-0.83
-0.84
-0.84
-0.84
-0.84
-0.835
-0.825
-0.815
-0.805
-0.805
-0.795
-0.82
-0.815
-0.83
-0.83
-0.84
-0.825
-0.85
-0.84
-0.83
-0.82
-0.81
-0.805
-0.81
-0.81
-0.815
-0.82
-0.835
-0.83
-0.825
-0.815
-0.81
-0.795
-0.795
-0.795
-0.8
-0.81
-0.815
-0.83
-0.845
-0.845
-0.825
-0.815
-0.795
-0.785
-0.785
-0.795
-0.785
-0.79
-0.805
-0.81
-0.815
-0.815
-0.83
-0.81
-0.795
-0.78
-0.79
-0.785
-0.785
-0.805
-0.795
-0.805
-0.805
-0.82
-0.81
-0.79
-0.77
-0.76
-0.745
-0.74
-0.73
-0.71
-0.72
-0.705
-0.7
-0.7
-0.705
-0.7
-0.665
-0.66
-0.645
-0.635
-0.64
-0.65
-0.65
-0.675
-0.69
-0.715
-0.7
-0.705
-0.695
-0.68
-0.68
-0.685
-0.695
-0.705
-0.725
-0.74
-0.755
-0.78
-0.8
-0.8
-0.815
-0.82
-0.81
-0.83
-0.835
-0.845
-0.875
-0.865
-0.88
-0.88
-0.87
-0.85
-0.85
-0.84
-0.855
-0.855
-0.84
-0.855
-0.845
-0.865
-0.87
-0.88
-0.865
-0.85
-0.85
-0.82
-0.82
-0.825
-0.825
-0.825
-0.84
-0.84
-0.84
-0.835
-0.825
-0.815
-0.8
-0.785
-0.77
-0.765
-0.785
-0.765
-0.75
-0.73
-0.69
-0.595
-0.43
-0.22
0.01
0.265
0.53
0.8
1.01
1.065
0.965
0.635
0.135
-0.43
-0.975
-1.365
-1.54
-1.495
-1.345
-1.14
-0.985
-0.9
-0.865
-0.87
-0.885
-0.885
-0.865
-0.84
-0.82
-0.805
-0.815
-0.82
-0.81
-0.81
-0.83
-0.825
-0.83
-0.84
-0.82
-0.81
-0.8
-0.79
-0.8
-0.8
-0.81
-0.815
-0.815
-0.82
-0.845
-0.835
-0.83
-0.815
-0.81
-0.81
-0.805
-0.795
-0.79
-0.8
-0.81
-0.825
-0.84
-0.83
-0.83
-0.81
-0.81
-0.78
-0.775
-0.785
-0.78
-0.795
-0.8
-0.805
-0.815
-0.81
-0.81
-0.795
-0.77
-0.77
-0.775
-0.77
-0.765
-0.76
-0.76
-0.775
-0.755
-0.785
-0.765
-0.74
-0.725
-0.725
-0.705
-0.685
-0.69
-0.7
-0.71
-0.71
-0.7
-0.685
-0.67
-0.64
-0.635
-0.615
-0.6
-0.595
-0.585
-0.595
-0.57
-0.575
-0.56
-0.55
-0.525
-0.52
-0.485
-0.47
-0.455
-0.44
-0.44
-0.45
-0.435
-0.43
-0.42
-0.405
-0.41
-0.39
-0.37
-0.37
-0.365
-0.36
-0.37
-0.38
-0.42
-0.42
-0.44
-0.465
-0.475
-0.48
-0.495
-0.51
-0.52
-0.54
-0.565
-0.59
-0.61
-0.64
-0.675
-0.665
-0.68
-0.675
-0.69
-0.705
-0.695
-0.73
-0.725
-0.745
-0.76
-0.76
-0.775
-0.79
-0.76
-0.75
-0.745
-0.74
-0.73
-0.735
-0.735
-0.75
-0.785
-0.78
-0.78
-0.785
-0.795
-0.77
-0.77
-0.745
-0.765
-0.775
-0.755
-0.775
-0.77
-0.76
-0.775
-0.77
-0.775
-0.78
-0.765
-0.745
-0.74
-0.74
-0.755
-0.75
-0.765
-0.775
-0.77
-0.775
-0.765
-0.745
-0.75
-0.755
-0.74
-0.745
-0.745
-0.765
-0.76
-0.77
-0.78
-0.77
-0.78
-0.77
-0.765
-0.745
-0.76
-0.755
-0.765
-0.775
-0.775
-0.79
-0.78
-0.79
-0.78
-0.78
-0.765
-0.77
-0.77
-0.78
-0.775
-0.775
-0.78
-0.78
-0.8
-0.81
-0.815
-0.81
-0.795
-0.785
-0.775
-0.775
-0.785
-0.795
-0.82
-0.815
-0.815
-0.83
-0.815
-0.805
-0.79
-0.79
-0.785
-0.785
-0.81
-0.805
-0.815
-0.835
-0.83
-0.825
-0.82
-0.81
-0.79
-0.815
-0.78
-0.785
-0.795
-0.8
-0.82
-0.83
-0.84
-0.835
-0.83
-0.84
-0.815
-0.82
-0.81
-0.81
-0.795
-0.81
-0.815
-0.82
-0.84
-0.825
-0.835
-0.82
-0.805
-0.8
-0.8
-0.805
-0.815
-0.82
-0.82
-0.84
-0.84
-0.85
-0.82
-0.81
-0.81
-0.81
-0.8
-0.79
-0.795
-0.805
-0.81
-0.835
-0.82
-0.84
-0.84
-0.82
-0.835
-0.825
-0.815
-0.815
-0.825
-0.815
-0.835
-0.85
-0.84
-0.845
-0.855
-0.83
-0.84
-0.825
-0.81
-0.825
-0.825
-0.83
-0.835
-0.83
-0.85
-0.85
-0.85
-0.85
-0.835
-0.825
-0.83
-0.815
-0.82
-0.825
-0.84
-0.84
-0.85
-0.845
-0.85
-0.84
-0.835
-0.83
-0.805
-0.81
-0.81
-0.815
-0.835
-0.83
-0.84
-0.855
-0.84
-0.82
-0.81
-0.765
-0.75
-0.75
-0.735
-0.74
-0.735
-0.74
-0.74
-0.725
-0.705
-0.67
-0.655
-0.64
-0.635
-0.67
-0.68
-0.7
-0.73
-0.715
-0.73
-0.74
-0.745
-0.73
-0.735
-0.74
-0.76
-0.785
-0.83
-0.845
-0.845
-0.875
-0.87
-0.885
-0.885
-0.875
-0.87
-0.89
-0.88
-0.87
-0.875
-0.875
-0.88
-0.885
-0.895
-0.895
-0.895
-0.89
-0.88
-0.88
-0.9
-0.88
-0.87
-0.88
-0.875
-0.89
-0.91
-0.885
-0.89
-0.86
-0.86
-0.835
-0.825
-0.81
-0.84
-0.835
-0.845
-0.84
-0.84
-0.82
-0.82
-0.815
-0.8
-0.8
-0.78
-0.745
-0.67
-0.56
-0.38
-0.17
0.05
0.285
0.555
0.84
1.04
1.115
0.98
0.65
0.185
-0.36
-0.91
-1.335
-1.57
-1.64
-1.565
-1.415
-1.245
-1.12
-1.04
-0.98
-0.965
-0.93
-0.92
-0.9
-0.88
-0.865
-0.855
-0.855
-0.85
-0.84
-0.83
-0.835
-0.85
-0.84
-0.86
-0.855
-0.865
-0.86
-0.855
-0.845
-0.85
-0.835
-0.825
-0.82
-0.825
-0.825
-0.83
-0.85
-0.86
-0.85
-0.85
-0.825
-0.845
-0.82
-0.805
-0.81
-0.83
-0.815
-0.835
-0.855
-0.865
-0.855
-0.85
-0.84
-0.815
-0.83
-0.81
-0.805
-0.815
-0.83
-0.82
-0.835
-0.845
-0.84
-0.825
-0.82
-0.795
-0.775
-0.78
-0.77
-0.765
-0.775
-0.78
-0.785
-0.78
-0.785
-0.78
-0.785
-0.75
-0.735
-0.7
-0.71
-0.7
-0.705
-0.705
-0.695
-0.695
-0.67
-0.665
-0.65
-0.64
-0.61
-0.625
-0.605
-0.595
-0.59
-0.58
-0.57
-0.56
-0.545
-0.545
-0.535
-0.52
-0.5
-0.49
-0.47
-0.465
-0.465
-0.47
-0.505
-0.505
-0.515
-0.505
-0.49
-0.485
-0.5
-0.51
-0.53
-0.55
-0.565
-0.59
-0.605
-0.625
-0.645
-0.66
-0.665
-0.675
-0.67
-0.67
-0.69
-0.695
-0.705
-0.725
-0.735
-0.755
-0.76
-0.77
-0.765
-0.775
-0.78
-0.75
-0.765
-0.765
-0.775
-0.785
-0.795
-0.8
-0.815
-0.8
-0.795
-0.795
-0.775
-0.775
-0.775
-0.78
-0.78
-0.79
-0.8
-0.8
-0.805
-0.805
-0.795
-0.785
-0.78
-0.77
-0.765
-0.775
-0.78
-0.795
-0.8
-0.79
-0.795
-0.78
-0.775
-0.775
-0.75
-0.75
-0.755
-0.755
