Lead II
-0.425
-0.43
-0.43
-0.435
-0.425
-0.425
-0.42
-0.43
-0.445
-0.445
-0.455
-0.455
-0.45
-0.46
-0.47
-0.475
-0.45
-0.45
-0.455
-0.515
-0.54
-0.57
-0.605
-0.64
-0.655
-0.585
-0.465
-0.315
-0.12
0.135
0.425
0.645
0.76
0.735
0.515
0.15
-0.23
-0.47
-0.575
-0.595
-0.55
-0.52
-0.49
-0.49
-0.495
-0.495
-0.49
-0.495
-0.48
-0.485
-0.485
-0.495
-0.49
-0.475
-0.47
-0.48
-0.48
-0.5
-0.49
-0.5
-0.49
-0.485
-0.495
-0.5
-0.495
-0.485
-0.48
-0.5
-0.5
-0.505
-0.495
-0.5
-0.48
-0.485
-0.49
-0.515
-0.495
-0.475
-0.485
-0.485
-0.495
-0.495
-0.5
-0.495
-0.48
-0.485
-0.495
-0.5
-0.51
-0.505
-0.485
-0.495
-0.505
-0.51
-0.51
-0.495
-0.48
-0.49
-0.49
-0.505
-0.485
-0.48
-0.48
-0.48
-0.475
-0.485
-0.47
-0.47
-0.465
-0.47
-0.47
-0.485
-0.495
-0.485
-0.49
-0.495
-0.505
-0.525
-0.51
-0.515
-0.515
-0.52
-0.54
-0.545
-0.54
-0.535
-0.53
-0.53
-0.55
-0.56
-0.55
-0.54
-0.53
-0.535
-0.54
-0.545
-0.545
-0.535
-0.525
-0.51
-0.51
-0.51
-0.505
-0.485
-0.46
-0.45
-0.45
-0.45
-0.445
-0.425
-0.415
-0.405
-0.415
-0.425
-0.41
-0.39
-0.385
-0.385
-0.395
-0.4
-0.39
-0.39
-0.375
-0.375
-0.385
-0.39
-0.385
-0.375
-0.38
-0.375
-0.4
-0.405
-0.41
-0.385
-0.38
-0.385
-0.405
-0.405
-0.405
-0.39
-0.385
-0.39
-0.405
-0.41
-0.405
-0.39
-0.385
-0.39
-0.39
-0.405
-0.4
-0.4
-0.4
-0.385
-0.405
-0.415
-0.415
-0.415
-0.41
-0.4
-0.42
-0.42
-0.415
-0.41
-0.405
-0.405
-0.41
-0.425
-0.42
-0.415
-0.405
-0.41
-0.415
-0.42
-0.42
-0.4
-0.4
-0.4
-0.41
-0.415
-0.415
-0.395
-0.385
-0.39
-0.39
-0.405
-0.4
-0.4
-0.395
-0.395
-0.42
-0.415
-0.405
-0.405
-0.395
-0.39
-0.4
-0.405
-0.405
-0.4
-0.395
-0.4
-0.405
-0.41
-0.41
-0.39
-0.39
-0.39
-0.385
-0.405
-0.39
-0.385
-0.37
-0.365
-0.365
-0.36
-0.345
-0.33
-0.325
-0.32
-0.335
-0.335
-0.32
-0.305
-0.295
-0.28
-0.29
-0.29
-0.285
-0.28
-0.27
-0.285
-0.295
-0.305
-0.3
-0.3
-0.275
-0.29
-0.3
-0.32
-0.295
-0.265
-0.24
-0.255
-0.285
-0.31
-0.32
-0.315
-0.32
-0.34
-0.365
-0.385
-0.38
-0.375
-0.38
-0.39
-0.38
-0.39
-0.39
-0.39
-0.38
-0.39
-0.395
-0.405
-0.405
-0.385
-0.385
-0.385
-0.395
-0.41
-0.395
-0.385
-0.375
-0.38
-0.39
-0.405
-0.41
-0.41
-0.43
-0.475
-0.51
-0.54
-0.58
-0.59
-0.57
-0.515
-0.405
-0.29
-0.16
-0.02
0.145
0.355
0.56
0.695
0.815
0.905
0.91
0.74
0.38
-0.025
-0.335
-0.475
-0.49
-0.475
-0.44
-0.42
-0.42
-0.415
-0.41
-0.41
-0.415
-0.42
-0.42
-0.425
-0.415
-0.42
-0.42
-0.435
-0.42
-0.425
-0.41
-0.415
-0.42
-0.435
-0.43
-0.42
-0.415
-0.405
-0.425
-0.435
-0.415
-0.415
-0.41
-0.415
-0.43
-0.43
-0.42
-0.43
-0.42
-0.415
-0.42
-0.43
-0.415
-0.41
-0.41
-0.41
-0.42
-0.425
-0.43
-0.42
-0.405
-0.415
-0.41
-0.425
-0.425
-0.4
-0.41
-0.41
-0.4
-0.41
-0.405
-0.395
-0.395
-0.39
-0.405
-0.42
-0.41
-0.4
-0.4
-0.405
-0.405
-0.425
-0.415
-0.4
-0.405
-0.39
-0.405
-0.42
-0.415
-0.405
-0.405
-0.405
-0.43
-0.445
-0.445
-0.43
-0.43
-0.44
-0.44
-0.445
-0.44
-0.425
-0.425
-0.435
-0.44
-0.455
-0.445
-0.445
-0.44
-0.435
-0.44
-0.43
-0.41
-0.385
-0.38
-0.38
-0.37
-0.365
-0.36
-0.345
-0.32
-0.32
-0.31
-0.32
-0.315
-0.295
-0.3
-0.29
-0.3
-0.295
-0.305
-0.285
-0.28
-0.285
-0.295
-0.3
-0.29
-0.275
-0.265
-0.27
-0.285
-0.295
-0.29
-0.275
-0.27
-0.285
-0.285
-0.3
-0.305
-0.3
-0.285
-0.29
-0.29
-0.305
-0.31
-0.295
-0.295
-0.29
-0.3
-0.305
-0.305
-0.295
-0.295
-0.29
-0.305
-0.31
-0.305
-0.315
-0.31
-0.315
-0.325
-0.335
-0.33
-0.32
-0.315
-0.31
-0.32
-0.345
-0.335
-0.315
-0.31
-0.31
-0.325
-0.33
-0.33
-0.32
-0.31
-0.3
-0.32
-0.325
-0.32
-0.32
-0.31
-0.32
-0.335
-0.335
-0.32
-0.33
-0.31
-0.315
-0.325
-0.345
-0.335
-0.315
-0.305
-0.305
-0.325
-0.325
-0.33
-0.32
-0.31
-0.32
-0.32
-0.33
-0.32
-0.31
-0.305
-0.305
-0.315
-0.325
-0.33
-0.31
-0.3
-0.305
-0.3
-0.295
-0.285
-0.26
-0.25
-0.25
-0.25
-0.255
-0.26
-0.24
-0.22
-0.225
-0.22
-0.23
-0.225
-0.205
-0.195
-0.2
-0.2
-0.215
-0.225
-0.22
-0.215
-0.215
-0.23
-0.23
-0.235
-0.24
-0.23
-0.22
-0.195
-0.195
-0.21
-0.225
-0.24
-0.255
-0.27
-0.3
-0.31
-0.305
-0.3
-0.305
-0.32
-0.335
-0.325
-0.32
-0.32
-0.315
-0.315
-0.34
-0.34
-0.335
-0.33
-0.335
-0.345
-0.35
-0.345
-0.34
-0.33
-0.335
-0.35
-0.355
-0.35
-0.34
-0.36
-0.385
-0.44
-0.48
-0.49
-0.515
-0.545
-0.56
-0.495
-0.36
-0.18
-0.01
0.215
0.49
0.75
0.895
0.94
0.825
0.515
0.075
-0.28
-0.455
-0.5
-0.455
-0.4
-0.375
-0.375
-0.39
-0.39
-0.37
-0.37
-0.365
-0.375
-0.385
-0.375
-0.37
-0.365
-0.365
-0.38
-0.38
-0.4
-0.385
-0.365
-0.375
-0.375
-0.385
-0.385
-0.38
-0.375
-0.37
-0.385
-0.39
-0.38
-0.375
-0.375
-0.365
-0.37
-0.38
-0.37
-0.36
-0.355
-0.355
-0.36
-0.38
-0.365
-0.365
-0.36
-0.36
-0.36
-0.375
-0.37
-0.37
-0.365
-0.36
-0.375
-0.38
-0.385
-0.365
-0.365
-0.36
-0.365
-0.39
-0.38
-0.375
-0.355
-0.37
-0.375
-0.375
-0.37
-0.36
-0.355
-0.355
-0.36
-0.375
-0.37
-0.365
-0.365
-0.36
-0.38
-0.38
-0.38
-0.37
-0.37
-0.375
-0.38
-0.385
-0.385
-0.375
-0.365
-0.37
-0.375
-0.385
-0.38
-0.365
-0.355
-0.35
-0.355
-0.355
-0.34
-0.33
-0.32
-0.315
-0.31
-0.325
-0.315
-0.29
-0.28
-0.275
-0.285
-0.29
-0.27
-0.265
-0.255
-0.26
-0.255
-0.265
-0.265
-0.26
-0.265
-0.26
-0.26
-0.275
-0.255
-0.25
-0.23
-0.24
-0.24
-0.26
-0.265
-0.26
-0.245
-0.25
-0.27
-0.28
-0.285
-0.27
-0.265
-0.265
-0.265
-0.285
-0.28
-0.27
-0.26
-0.265
-0.28
-0.29
-0.28
-0.275
-0.265
-0.27
-0.275
-0.29
-0.28
-0.28
-0.265
-0.275
-0.28
-0.285
-0.29
-0.285
-0.28
-0.28
-0.295
-0.31
-0.305
-0.295
-0.29
-0.29
-0.3
-0.315
-0.305
-0.305
-0.295
-0.285
-0.305
-0.32
-0.305
-0.3
-0.295
-0.285
-0.29
-0.3
-0.295
-0.285
-0.28
-0.295
-0.285
-0.31
-0.3
-0.3
-0.29
-0.29
-0.305
-0.3
-0.305
-0.3
-0.285
-0.29
-0.295
-0.305
-0.285
-0.275
-0.26
-0.25
-0.245
-0.24
-0.225
-0.225
-0.215
-0.21
-0.205
-0.2
-0.195
-0.18
-0.16
-0.165
-0.175
-0.195
-0.2
-0.205
-0.195
-0.205
-0.2
-0.215
-0.225
-0.21
-0.175
-0.165
-0.175
-0.21
-0.24
-0.25
-0.26
-0.265
-0.295
-0.3
-0.305
-0.305
-0.3
-0.3
-0.31
-0.325
-0.31
-0.305
-0.32
-0.31
-0.33
-0.33
-0.335
-0.325
-0.31
-0.315
-0.33
-0.33
-0.32
-0.315
-0.305
-0.31
-0.315
-0.33
-0.335
-0.32
-0.34
-0.375
-0.425
-0.455
-0.48
-0.515
-0.56
-0.54
-0.455
-0.33
-0.185
0.015
0.285
0.565
0.77
0.85
0.79
0.55
0.165
-0.22
-0.435
-0.5
-0.455
-0.39
-0.355
-0.36
-0.365
-0.375
-0.365
-0.36
-0.35
-0.34
-0.36
-0.375
-0.365
-0.355
-0.35
-0.355
-0.37
-0.38
-0.38
-0.385
-0.37
-0.37
-0.37
-0.38
-0.37
-0.37
-0.37
-0.365
-0.375
-0.385
-0.385
-0.38
-0.37
-0.375
-0.375
-0.39
-0.385
-0.37
-0.35
-0.355
-0.365
-0.38
-0.385
-0.385
-0.385
-0.395
-0.4
-0.41
-0.41
-0.4
-0.385
-0.385
-0.39
-0.39
-0.38
-0.37
-0.375
-0.38
-0.375
-0.39
-0.375
-0.38
-0.38
-0.38
-0.385
-0.395
-0.4
-0.385
-0.38
-0.39
-0.395
-0.405
-0.39
-0.39
-0.385
-0.385
-0.41
-0.42
-0.415
-0.405
-0.41
-0.4
-0.4
-0.42
-0.41
-0.405
-0.4
-0.395
-0.4
-0.415
-0.415
-0.415
-0.405
-0.42
-0.415
-0.41
-0.4
-0.385
-0.375
-0.365
-0.37
-0.37
-0.365
-0.345
-0.33
-0.335
-0.325
-0.33
-0.325
-0.315
-0.295
-0.31
-0.31
-0.32
-0.32
-0.315
-0.3
-0.305
-0.31
-0.33
-0.325
-0.32
-0.31
-0.315
-0.325
-0.345
-0.35
-0.335
-0.33
-0.345
-0.34
-0.345
-0.33
-0.325
-0.325
-0.33
-0.34
-0.355
-0.35
-0.345
-0.34
-0.345
-0.36
-0.365
-0.36
-0.35
-0.35
-0.35
-0.365
-0.385
-0.385
-0.375
-0.36
-0.37
-0.36
-0.38
-0.37
-0.36
-0.36
-0.36
-0.375
-0.375
-0.365
-0.355
-0.37
-0.365
-0.385
-0.385
-0.38
-0.38
-0.38
-0.375
-0.37
-0.395
-0.38
-0.375
-0.37
-0.355
-0.365
-0.385
-0.38
-0.385
-0.37
-0.37
-0.37
-0.37
-0.365
-0.375
-0.35
-0.345
-0.35
-0.355
-0.36
-0.34
-0.33
-0.315
-0.325
-0.32
-0.32
-0.315
-0.295
-0.295
-0.285
-0.27
-0.27
-0.265
-0.27
-0.265
-0.275
-0.29
-0.29
-0.285
-0.28
-0.29
-0.295
-0.315
-0.305
-0.28
-0.245
-0.26
-0.28
-0.325
-0.34
-0.35
-0.365
-0.38
-0.385
-0.395
-0.395
-0.395
-0.38
-0.39
-0.395
-0.41
-0.405
-0.395
-0.395
-0.395
-0.41
-0.415
-0.415
-0.42
-0.41
-0.41
-0.41
-0.425
-0.415
-0.405
-0.405
-0.425
-0.465
-0.51
-0.53
-0.555
-0.59
-0.61
-0.565
-0.465
-0.315
-0.145
0.08
0.36
0.62
0.775
0.82
0.675
0.33
-0.07
-0.365
-0.525
-0.565
-0.54
-0.485
-0.445
-0.44
-0.45
-0.44
-0.425
-0.42
-0.435
-0.445
-0.45
-0.45
-0.435
-0.435
-0.435
-0.445
-0.45
-0.445
-0.44
-0.435
-0.44
-0.44
-0.455
-0.455
-0.445
-0.425
-0.435
-0.435
-0.465
-0.465
-0.445
-0.43
-0.445
-0.45
-0.46
-0.455
-0.45
-0.46
-0.445
-0.455
-0.46
-0.445
-0.435
-0.43
-0.43
-0.43
-0.435
-0.44
-0.445
-0.43
-0.43
-0.445
-0.455
-0.455
-0.455
-0.46
-0.445
-0.445
-0.455
-0.45
-0.44
-0.435
-0.43
-0.445
-0.455
-0.46
-0.455
-0.455
-0.445
-0.445
-0.455
-0.46
-0.44
-0.42
-0.42
-0.435
-0.455
-0.45
-0.46
-0.465
-0.455
-0.47
-0.48
-0.505
-0.49
-0.49
-0.485
-0.495
-0.51
-0.505
-0.505
-0.5
-0.5
-0.51
-0.505
-0.505
-0.5
-0.475
-0.465
-0.47
-0.455
-0.44
-0.425
-0.39
-0.395
-0.385
-0.39
-0.385
-0.36
-0.35
-0.345
-0.345
-0.35
-0.34
-0.34
-0.335
-0.33
-0.335
-0.34
-0.34
-0.345
-0.33
-0.33
-0.34
-0.335
-0.34
-0.33
-0.32
-0.32
-0.335
-0.35
-0.33
-0.34
-0.325
-0.325
-0.33
-0.35
-0.35
-0.345
-0.34
-0.335
-0.34
-0.37
-0.365
-0.35
-0.345
-0.345
-0.36
-0.365
-0.36
-0.35
-0.345
-0.35
-0.355
-0.365
-0.365
-0.355
-0.34
-0.355
-0.365
-0.355
-0.365
-0.355
-0.35
-0.355
-0.365
-0.37
-0.37
-0.375
-0.37
-0.355
-0.36
-0.37
-0.375
-0.365
-0.36
-0.355
-0.365
-0.375
-0.37
-0.36
-0.345
-0.365
-0.36
-0.36
-0.35
-0.34
-0.345
-0.345
-0.34
-0.36
-0.35
-0.345
-0.33
-0.335
-0.34
-0.35
-0.35
-0.34
-0.335
-0.325
-0.325
-0.32
-0.305
-0.285
-0.27
-0.27
-0.27
-0.27
-0.275
-0.25
-0.24
-0.23
-0.21
-0.215
-0.22
-0.215
-0.21
-0.215
-0.225
-0.24
-0.245
-0.235
-0.24
-0.23
-0.25
-0.265
-0.265
-0.265
-0.235
-0.22
-0.225
-0.26
-0.28
-0.285
-0.295
-0.31
-0.33
-0.345
-0.35
-0.35
-0.35
-0.345
-0.35
-0.355
-0.355
-0.345
-0.335
-0.345
-0.36
-0.365
-0.37
-0.36
-0.35
-0.355
-0.37
-0.37
-0.365
-0.36
-0.355
-0.355
-0.35
-0.37
-0.365
-0.365
-0.37
-0.39
-0.45
-0.475
-0.495
-0.52
-0.54
-0.56
-0.51
-0.395
-0.25
-0.085
0.11
0.385
0.645
0.835
0.92
0.87
0.64
0.235
-0.16
-0.42
-0.515
-0.48
-0.425
-0.39
-0.38
-0.395
-0.38
-0.385
-0.365
-0.37
-0.4
-0.4
-0.405
-0.395
-0.385
-0.395
-0.4
-0.405
-0.41
-0.405
-0.39
-0.39
-0.405
-0.4
-0.4
-0.385
-0.39
-0.38
-0.395
-0.39
-0.38
-0.38
-0.38
-0.37
-0.385
-0.395
-0.385
-0.38
-0.375
-0.38
-0.385
-0.395
-0.395
-0.39
-0.38
-0.38
-0.39
-0.39
-0.395
-0.395
-0.385
-0.385
-0.39
-0.39
-0.4
-0.385
-0.375
-0.38
-0.39
-0.39
-0.375
-0.375
-0.365
-0.375
-0.37
-0.385
-0.395
-0.375
-0.38
-0.375
-0.385
-0.395
-0.395
-0.38
-0.365
-0.375
-0.38
-0.38
-0.4
-0.385
-0.38
-0.39
-0.4
-0.405
-0.405
-0.405
-0.39
-0.395
-0.415
-0.405
-0.42
-0.415
-0.395
-0.4
-0.4
-0.405
-0.41
-0.4
-0.38
-0.395
-0.395
-0.4
-0.385
-0.36
-0.34
-0.325
-0.33
-0.33
-0.325
-0.305
-0.29
-0.29
-0.29
-0.295
-0.295
-0.285
-0.27
-0.265
-0.285
-0.285
-0.275
-0.265
-0.26
-0.265
-0.27
-0.285
-0.275
-0.27
-0.265
-0.29
-0.295
-0.29
-0.29
-0.28
-0.285
-0.285
-0.28
-0.295
-0.3
-0.285
-0.28
-0.275
-0.285
-0.29
-0.295
-0.29
-0.27
-0.28
-0.29
-0.29
-0.3
-0.295
-0.285
-0.285
-0.29
-0.29
-0.31
-0.3
-0.3
-0.295
-0.31
-0.315
-0.34
-0.315
-0.305
-0.315
-0.335
-0.34
-0.335
-0.325
-0.315
-0.32
-0.335
-0.34
-0.345
-0.325
-0.305
-0.315
-0.32
-0.33
-0.335
-0.33
-0.31
-0.32
-0.335
-0.33
-0.325
-0.32
-0.305
-0.32
-0.33
-0.335
-0.335
-0.33
-0.315
-0.32
-0.335
-0.335
-0.34
-0.325
-0.305
-0.315
-0.32
-0.31
-0.31
-0.305
-0.305
-0.305
-0.315
-0.31
-0.305
-0.28
-0.25
-0.255
-0.25
-0.255
-0.255
-0.25
-0.22
-0.225
-0.21
-0.225
-0.22
-0.21
-0.205
-0.2
-0.21
-0.22
-0.23
-0.22
-0.195
-0.215
-0.225
-0.24
-0.23
-0.19
-0.18
-0.215
-0.25
-0.28
-0.29
-0.29
-0.295
-0.3
-0.31
-0.325
-0.33
-0.325
-0.315
-0.31
-0.335
-0.34
-0.345
-0.335
-0.34
-0.34
-0.355
-0.36
-0.355
-0.355
-0.345
-0.35
-0.345
-0.36
-0.36
-0.345
-0.34
-0.345
-0.345
-0.37
-0.39
-0.415
-0.435
-0.48
-0.5
-0.53
-0.56
-0.515
-0.395
-0.265
-0.145
-0.005
0.185
0.42
0.64
0.79
0.89
0.965
0.96
0.81
0.46
0.0
-0.355
-0.485
-0.485
-0.415
-0.375
-0.375
-0.38
-0.39
-0.405
-0.38
-0.365
-0.37
-0.375
-0.38
-0.385
-0.385
-0.375
-0.375
-0.38
-0.39
-0.395
-0.39
-0.375
-0.395
-0.4
-0.4
-0.42
-0.405
-0.39
-0.39
-0.405
-0.405
-0.405
-0.395
-0.38
-0.38
-0.4
-0.4
-0.4
-0.385
-0.385
-0.38
-0.38
-0.385
-0.39
-0.375
-0.375
-0.37
-0.38
-0.395
-0.395
-0.39
-0.375
-0.39
-0.4
-0.4
-0.4
-0.385
-0.38
-0.38
-0.395
-0.405
-0.39
-0.38
-0.37
-0.37
-0.385
-0.375
-0.37
-0.37
-0.37
-0.36
-0.375
-0.385
-0.39
-0.385
-0.365
-0.38
-0.385
-0.4
-0.4
-0.39
-0.38
-0.385
-0.385
-0.395
-0.4
-0.395
-0.385
-0.39
-0.395
-0.395
-0.405
-0.395
-0.395
-0.39
-0.39
-0.405
-0.4
-0.385
-0.365
-0.375
-0.37
-0.37
-0.375
-0.36
-0.345
-0.34
-0.34
-0.34
-0.335
-0.32
-0.32
-0.31
-0.31
-0.31
-0.315
-0.305
-0.29
-0.29
-0.295
-0.3
-0.3
-0.29
-0.29
-0.285
-0.295
-0.295
-0.295
-0.29
-0.28
-0.285
-0.285
-0.295
-0.29
-0.295
-0.285
-0.29
-0.295
-0.32
-0.325
-0.315
-0.3
-0.32
-0.305
-0.32
-0.32
-0.305
-0.295
-0.3
-0.3
-0.325
-0.33
-0.315
-0.315
-0.31
-0.325
-0.33
-0.345
-0.345
-0.325
-0.325
-0.335
-0.335
-0.345
-0.33
-0.325
-0.325
-0.335
-0.335
-0.34
-0.345
-0.33
-0.335
-0.355
-0.355
-0.365
-0.355
-0.345
-0.345
-0.35
-0.36
-0.36
-0.35
-0.335
-0.35
-0.35
-0.36
-0.36
-0.35
-0.335
-0.335
-0.34
-0.34
-0.355
-0.345
-0.33
-0.34
-0.33
-0.355
-0.345
-0.335
-0.33
-0.335
-0.335
-0.35
-0.345
-0.355
-0.34
-0.35
-0.35
-0.35
-0.335
-0.32
-0.295
-0.27
-0.28
-0.285
-0.295
-0.275
-0.265
-0.265
-0.265
-0.25
-0.24
-0.225
-0.22
-0.22
-0.235
-0.26
-0.25
-0.25
-0.255
-0.255
-0.265
-0.265
-0.27
-0.265
-0.25
-0.225
-0.225
-0.255
-0.29
-0.315
-0.325
-0.34
-0.37
-0.365
-0.36
-0.355
-0.35
-0.355
-0.36
-0.355
-0.36
-0.36
-0.35
-0.355
-0.375
-0.37
-0.4
-0.4
-0.395
-0.39
-0.41
-0.415
-0.4
-0.39
-0.385
-0.39
-0.4
-0.4
-0.405
-0.395
-0.395
-0.39
-0.405
-0.435
-0.475
-0.5
-0.505
-0.54
-0.59
-0.61
-0.58
-0.47
-0.34
-0.17
0.045
0.305
0.57
0.745
0.785
0.63
0.305
-0.09
-0.405
-0.54
-0.535
-0.495
-0.45
-0.435
-0.455
-0.44
-0.425
-0.42
-0.43
-0.435
-0.435
-0.435
-0.435
-0.435
-0.445
-0.455
-0.46
-0.455
-0.425
-0.44
-0.43
-0.445
-0.455
-0.45
-0.44
-0.425
-0.43
-0.44
-0.445
-0.44
-0.435
-0.435
-0.445
-0.46
-0.465
-0.455
-0.44
-0.445
-0.45
-0.445
-0.465
-0.46
-0.43
-0.445
-0.455
-0.45
-0.47
-0.455
-0.44
-0.44
-0.445
-0.445
-0.45
-0.455
-0.445
-0.435
-0.445
-0.45
-0.45
-0.445
-0.44
-0.425
-0.425
-0.445
-0.455
-0.45
-0.44
-0.445
-0.445
-0.455
-0.46
-0.44
-0.43
-0.43
-0.435
-0.435
-0.445
-0.45
-0.445
-0.445
-0.46
-0.475
-0.485
-0.47
-0.455
-0.47
-0.47
-0.48
-0.49
-0.475
-0.475
-0.475
-0.49
-0.51
-0.505
-0.49
-0.475
-0.465
-0.48
-0.475
-0.47
-0.445
-0.42
-0.415
-0.405
-0.42
-0.415
-0.4
-0.395
-0.395
-0.395
-0.385
-0.38
-0.37
-0.365
-0.375
-0.375
-0.375
-0.38
-0.355
-0.35
-0.355
-0.375
-0.37
-0.37
-0.355
-0.35
-0.37
-0.36
-0.365
-0.365
-0.37
-0.35
-0.365
-0.36
-0.375
-0.38
-0.375
-0.36
-0.36
-0.355
-0.37
-0.375
-0.375
-0.36
-0.37
-0.375
-0.375
-0.385
-0.39
-0.375
-0.38
-0.4
-0.415
-0.415
-0.4
-0.39
-0.395
-0.405
-0.42
-0.435
-0.435
-0.425
-0.415
-0.405
-0.42
-0.415
-0.41
-0.4
-0.41
-0.41
-0.42
-0.42
-0.41
-0.42
-0.425
-0.435
-0.445
-0.435
-0.43
-0.41
-0.415
-0.405
-0.415
-0.415
-0.42
-0.415
-0.415
-0.405
-0.415
-0.43
-0.425
-0.42
-0.425
-0.43
-0.425
-0.445
-0.435
-0.425
-0.41
-0.415
-0.415
-0.42
-0.41
-0.405
-0.415
-0.395
-0.385
-0.375
-0.37
-0.36
-0.36
-0.365
-0.365
-0.36
-0.335
-0.325
-0.315
-0.325
-0.32
-0.33
-0.32
-0.315
-0.32
-0.31
-0.33
-0.34
-0.33
-0.33
-0.34
-0.335
-0.36
-0.36
-0.36
-0.35
-0.335
-0.335
-0.35
-0.37
-0.38
-0.39
-0.39
-0.42
-0.44
-0.445
-0.445
-0.44
-0.44
-0.435
-0.445
-0.445
-0.445
-0.44
-0.44
-0.44
-0.46
-0.46
-0.46
-0.45
-0.455
-0.465
-0.46
-0.475
-0.46
-0.455
-0.46
-0.465
-0.48
-0.485
-0.495
-0.525
-0.555
-0.57
-0.605
-0.645
-0.65
-0.58
-0.475
-0.35
-0.205
0.0
0.275
0.555
0.735
0.805
0.715
0.435
0.05
-0.28
-0.49
-0.58
-0.6
-0.555
-0.52
-0.485
-0.485
-0.49
-0.48
-0.495
-0.48
-0.47
-0.475
-0.475
-0.485
-0.49
-0.485
-0.47
-0.465
-0.47
-0.475
-0.475
-0.465
-0.47
-0.465
-0.475
-0.475
-0.475
-0.47
-0.48
-0.47
-0.475
-0.49
-0.485
-0.485
-0.475
-0.48
-0.49
-0.49
-0.49
-0.495
-0.475
-0.485
-0.48
-0.49
-0.485
-0.485
-0.48
-0.48
-0.475
-0.48
-0.485
-0.47
-0.475
-0.48
-0.485
-0.485
-0.48
-0.475
-0.46
-0.47
-0.47
-0.48
-0.475
-0.47
-0.46
-0.475
-0.475
-0.47
-0.48
-0.47
-0.455
-0.465
-0.465
-0.465
-0.475
-0.465
-0.465
-0.455
-0.465
-0.48
-0.49
-0.48
-0.47
-0.475
-0.495
-0.495
-0.5
-0.485
-0.49
-0.49
-0.5
-0.505
-0.51
-0.505
-0.49
-0.485
-0.505
-0.505
-0.51
-0.505
-0.49
-0.49
-0.495
-0.495
-0.485
-0.465
-0.44
-0.43
-0.43
-0.435
-0.42
-0.395
-0.38
-0.37
-0.375
-0.37
-0.365
-0.355
-0.345
-0.345
-0.35
-0.345
-0.35
-0.335
-0.33
-0.33
-0.33
-0.345
-0.34
-0.335
-0.32
-0.325
-0.325
-0.335
-0.33
-0.33
-0.32
-0.325
-0.335
-0.345
-0.355
-0.335
-0.34
-0.335
-0.34
-0.345
-0.355
-0.35
-0.345
-0.345
-0.355
-0.355
-0.365
-0.35
-0.34
-0.345
-0.355
-0.365
-0.365
-0.36
-0.355
-0.35
-0.345
-0.365
-0.365
-0.355
-0.35
-0.355
-0.375
-0.39
-0.385
-0.385
-0.36
-0.36
-0.375
-0.38
-0.375
-0.375
-0.365
-0.365
-0.37
-0.38
-0.385
-0.375
-0.36
-0.36
-0.37
-0.38
-0.38
-0.36
-0.35
-0.36
-0.36
-0.37
-0.375
-0.36
-0.37
-0.35
-0.365
-0.365
-0.37
-0.365
-0.365
-0.365
-0.365
-0.375
-0.38
-0.365
-0.36
-0.36
-0.365
-0.375
-0.38
-0.365
-0.365
-0.35
-0.345
-0.33
-0.32
-0.305
-0.28
-0.275
-0.275
-0.29
-0.29
-0.275
-0.265
-0.25
-0.25
-0.26
-0.265
-0.26
-0.255
-0.265
-0.27
-0.285
-0.28
-0.27
-0.27
-0.28
-0.28
-0.26
-0.25
-0.24
-0.24
-0.265
-0.31
-0.32
-0.335
-0.34
-0.335
-0.34
-0.35
-0.365
-0.395
-0.37
-0.365
-0.355
-0.37
-0.38
-0.38
-0.38
-0.37
-0.375
-0.38
-0.39
-0.395
-0.375
-0.38
-0.37
-0.385
-0.385
-0.39
-0.385
-0.38
-0.385
-0.405
-0.445
-0.48
-0.5
-0.51
-0.53
-0.59
-0.575
-0.48
-0.32
-0.15
0.03
0.295
0.575
0.805
0.93
0.91
0.69
0.27
-0.155
-0.445
-0.545
-0.51
-0.455
-0.415
-0.4
-0.4
-0.395
-0.395
-0.4
-0.4
-0.415
-0.42
-0.425
-0.415
-0.415
-0.42
-0.435
-0.44
-0.425
-0.415
-0.41
-0.415
-0.425
-0.425
-0.425
-0.41
-0.41
-0.425
-0.42
-0.43
-0.43
-0.415
-0.4
-0.405
-0.425
-0.41
-0.41
-0.4
-0.41
-0.395
-0.41
-0.415
-0.395
-0.395
-0.395
-0.395
-0.4
-0.41
-0.4
-0.38
-0.38
-0.395
-0.405
-0.41
-0.405
-0.4
-0.4
-0.405
-0.415
-0.41
-0.405
-0.4
-0.395
-0.39
-0.395
-0.405
-0.39
-0.39
-0.38
-0.38
-0.385
-0.39
-0.385
-0.38
-0.375
-0.385
-0.385
-0.395
-0.39
-0.38
-0.38
-0.395
-0.4
-0.41
-0.395
-0.4
-0.39
-0.4
-0.41
-0.415
-0.39
-0.385
-0.39
-0.4
-0.4
-0.405
-0.385
-0.365
-0.36
-0.37
-0.365
-0.36
-0.345
-0.33
-0.31
-0.305
-0.32
-0.32
-0.315
-0.3
-0.285
-0.295
-0.31
-0.31
-0.3
-0.285
-0.29
-0.295
-0.305
-0.305
-0.295
-0.29
-0.29
-0.29
-0.29
-0.3
-0.275
-0.275
-0.28
-0.28
-0.285
-0.3
-0.295
-0.285
-0.295
-0.29
-0.3
-0.295
-0.3
-0.295
-0.29
-0.315
-0.315
-0.315
-0.31
-0.3
-0.3
-0.315
-0.31
-0.325
-0.31
-0.305
-0.305
-0.32
-0.32
-0.33
-0.325
-0.32
-0.32
-0.325
-0.335
-0.34
-0.335
-0.335
-0.33
-0.33
-0.34
-0.35
-0.34
-0.335
-0.34
-0.335
-0.34
-0.335
-0.33
-0.315
-0.32
-0.335
-0.335
-0.34
-0.33
-0.32
-0.325
-0.32
-0.32
-0.335
-0.33
-0.315
-0.315
-0.33
-0.34
-0.345
-0.335
-0.33
-0.33
-0.34
-0.34
-0.345
-0.335
-0.32
-0.32
-0.33
-0.33
-0.335
-0.33
-0.315
-0.3
-0.285
-0.285
-0.28
-0.255
-0.25
-0.255
-0.25
-0.26
-0.24
-0.225
-0.22
-0.215
-0.215
-0.225
-0.23
-0.22
-0.22
-0.225
-0.235
-0.245
-0.25
-0.255
-0.24
-0.24
-0.25
-0.265
-0.26
-0.235
-0.21
-0.22
-0.26
-0.3
-0.315
-0.305
-0.31
-0.32
-0.335
-0.34
-0.35
-0.355
-0.345
-0.34
-0.355
-0.36
-0.38
-0.355
-0.36
-0.36
-0.36
-0.37
-0.37
-0.355
-0.345
-0.35
-0.355
-0.355
-0.37
-0.365
-0.355
-0.365
-0.385
-0.435
-0.48
-0.49
-0.505
-0.55
-0.595
-0.575
-0.45
-0.305
-0.16
0.02
0.275
0.545
0.775
0.895
0.88
0.635
0.225
-0.195
-0.46
-0.525
-0.49
-0.43
-0.395
-0.4
-0.41
-0.395
-0.385
-0.375
-0.39
-0.385
-0.395
-0.39
-0.39
-0.385
-0.39
-0.395
-0.395
-0.39
-0.39
-0.38
-0.38
-0.385
-0.395
-0.395
-0.39
-0.39
-0.39
-0.405
-0.4
-0.39
-0.385
-0.39
-0.385
-0.38
-0.395
-0.385
-0.385
-0.385
-0.375
-0.39
-0.395
-0.39
-0.39
-0.4
-0.39
-0.395
-0.395
-0.39
-0.38
-0.38
-0.385
-0.395
-0.395
-0.385
-0.365
-0.365
-0.375
-0.38
-0.375
-0.37
-0.365
-0.37
-0.37
-0.375
-0.38
-0.375
-0.375
-0.375
-0.38
-0.39
-0.39
-0.375
-0.365
-0.38
-0.375
-0.38
-0.4
-0.385
-0.375
-0.365
-0.37
-0.395
-0.39
-0.39
-0.385
-0.39
-0.37
-0.375
-0.395
-0.385
-0.38
-0.375
-0.385
-0.395
-0.405
-0.395
-0.385
-0.375
-0.365
-0.355
-0.36
-0.36
-0.33
-0.335
-0.32
-0.33
-0.33
-0.31
-0.285
-0.29
-0.29
-0.3
-0.29
-0.295
-0.285
-0.275
-0.285
-0.295
-0.29
-0.295
-0.29
-0.28
-0.295
-0.3
-0.305
-0.285
-0.29
-0.29
-0.29
-0.31
-0.305
-0.305
-0.295
-0.295
-0.31
-0.315
-0.325
-0.305
-0.295
-0.3
-0.305
-0.315
-0.325
-0.315
-0.31
-0.32
-0.33
-0.335
-0.345
-0.34
-0.33
-0.33
-0.35
-0.35
-0.36
-0.345
-0.335
-0.325
-0.335
-0.35
-0.36
-0.355
-0.355
-0.355
-0.35
-0.355
-0.36
-0.355
-0.345
-0.34
-0.345
-0.365
-0.37
-0.37
-0.365
-0.36
-0.375
-0.375
-0.385
-0.37
-0.37
-0.365
-0.365
-0.36
-0.365
-0.35
-0.355
-0.35
-0.355
-0.36
-0.365
-0.35
-0.35
-0.365
-0.365
-0.37
-0.375
-0.37
-0.36
-0.365
-0.355
-0.37
-0.37
-0.35
-0.34
-0.305
-0.3
-0.31
-0.32
-0.31
-0.305
-0.29
-0.27
-0.27
-0.265
-0.25
-0.25
-0.25
-0.25
-0.265
-0.27
-0.275
-0.27
-0.27
-0.285
-0.3
-0.32
-0.31
-0.29
-0.25
-0.25
-0.275
-0.3
-0.315
-0.315
-0.325
-0.35
-0.375
-0.4
-0.375
-0.375
-0.375
-0.39
-0.375
-0.385
-0.375
-0.375
-0.39
-0.395
-0.415
-0.41
-0.405
-0.4
-0.395
-0.425
-0.425
-0.445
-0.41
-0.41
-0.405
-0.415
-0.42
-0.43
-0.44
-0.475
-0.505
-0.51
-0.54
-0.6
-0.62
-0.575
-0.47
-0.33
-0.17
0.035
0.31
0.58
0.77
0.87
0.875
0.775
0.555
0.255
-0.04
-0.305
-0.465
-0.55
-0.58
-0.555
-0.505
-0.475
-0.475
-0.48
-0.455
-0.45
-0.445
-0.45
-0.455
-0.47
-0.46
-0.45
-0.44
-0.45
-0.47
-0.475
-0.47
-0.455
-0.445
-0.445
-0.46
-0.475
-0.475
-0.47
-0.46
-0.46
-0.45
-0.46
-0.46
-0.46
-0.47
-0.465
-0.465
-0.48
-0.47
-0.445
-0.45
-0.45
-0.455
-0.475
-0.465
-0.465
-0.465
-0.47
-0.475
-0.49
-0.485
-0.475
-0.465
-0.48
-0.465
-0.485
-0.48
-0.475
-0.465
-0.47
-0.47
-0.48
-0.48
-0.47
-0.465
-0.455
-0.47
-0.47
-0.47
-0.46
-0.465
-0.475
-0.47
-0.48
-0.48
-0.46
-0.46
-0.46
-0.48
-0.495
-0.505
-0.51
-0.495
-0.505
-0.515
-0.525
-0.525
-0.51
-0.5
-0.51
-0.51
-0.515
-0.505
-0.5
-0.485
-0.475
-0.46
-0.46
-0.445
-0.425
-0.425
-0.425
-0.415
-0.42
-0.41
-0.395
-0.385
-0.39
-0.4
-0.395
-0.395
-0.375
-0.37
-0.355
-0.375
-0.38
-0.38
-0.375
-0.365
-0.36
-0.37
-0.385
-0.385
-0.37
-0.355
-0.355
-0.38
-0.395
-0.38
-0.38
-0.37
-0.38
-0.38
-0.4
-0.39
-0.39
-0.385
-0.39
-0.42
-0.415
-0.4
-0.4
-0.395
-0.4
-0.415
-0.42
-0.41
-0.395
-0.38
-0.39
-0.4
-0.425
-0.42
-0.425
-0.415
-0.41
-0.415
-0.435
-0.42
-0.415
-0.405
-0.415
-0.425
-0.45
-0.435
-0.41
-0.4
-0.405
-0.42
-0.43
-0.43
-0.415
-0.41
-0.41
-0.42
-0.42
-0.42
-0.425
-0.41
-0.41
-0.425
-0.435
-0.435
-0.43
-0.435
-0.435
-0.435
-0.44
-0.44
-0.42
-0.415
-0.42
-0.425
-0.42
-0.4
-0.385
-0.37
-0.365
-0.375
-0.38
-0.345
-0.335
-0.32
-0.33
-0.335
-0.335
-0.32
-0.325
-0.32
-0.325
-0.345
-0.345
-0.36
-0.34
-0.36
-0.365
-0.37
-0.375
-0.355
-0.335
-0.32
-0.315
-0.34
-0.38
-0.38
-0.395
-0.39
-0.41
-0.445
-0.44
-0.44
-0.44
-0.44
-0.45
-0.445
-0.45
-0.455
-0.46
-0.435
-0.445
-0.45
-0.47
-0.46
-0.465
-0.47
-0.45
-0.46
-0.475
-0.46
-0.455
-0.455
-0.46
-0.465
-0.475
-0.49
-0.515
-0.535
-0.56
-0.595
-0.625
-0.655
-0.61
-0.5
-0.345
-0.195
0.005
0.28
0.545
0.745
0.81
0.72
0.39
-0.035
-0.36
-0.52
-0.57
-0.555
-0.52
-0.485
-0.475
-0.46
-0.465
-0.465
-0.485
-0.485
-0.475
-0.47
-0.47
-0.475
-0.48
-0.48
-0.465
-0.47
-0.465
-0.475
-0.495
-0.47
-0.47
-0.47
-0.47
-0.485
-0.475
-0.465
-0.455
-0.445
-0.455
-0.465
-0.47
-0.47
-0.46
-0.455
-0.46
-0.465
-0.48
-0.47
-0.46
-0.46
-0.465
-0.47
-0.475
-0.47
-0.47
-0.465
-0.48
-0.485
-0.5
-0.485
-0.475
-0.47
-0.47
-0.485
-0.48
-0.475
-0.455
-0.45
-0.465
-0.47
-0.47
-0.465
-0.47
-0.45
-0.46
-0.475
-0.485
-0.48
-0.465
-0.455
-0.475
-0.48
-0.485
-0.48
-0.48
-0.48
-0.48
-0.5
-0.52
-0.51
-0.505
-0.485
-0.495
-0.505
-0.51
-0.505
-0.495
-0.49
-0.49
-0.495
-0.495
-0.49
