Lead II
-0.41
-0.415
-0.41
-0.405
-0.39
-0.37
-0.365
-0.345
-0.345
-0.335
-0.32
-0.315
-0.315
-0.32
-0.32
-0.31
-0.305
-0.3
-0.315
-0.31
-0.33
-0.35
-0.355
-0.39
-0.395
-0.43
-0.44
-0.45
-0.465
-0.47
-0.465
-0.485
-0.51
-0.5
-0.52
-0.535
-0.54
-0.545
-0.555
-0.565
-0.56
-0.56
-0.555
-0.555
-0.575
-0.57
-0.56
-0.575
-0.58
-0.57
-0.575
-0.555
-0.555
-0.535
-0.535
-0.525
-0.52
-0.52
-0.52
-0.515
-0.52
-0.51
-0.51
-0.49
-0.49
-0.485
-0.47
-0.465
-0.475
-0.47
-0.47
-0.465
-0.465
-0.48
-0.485
-0.485
-0.485
-0.47
-0.465
-0.455
-0.455
-0.465
-0.47
-0.48
-0.485
-0.5
-0.51
-0.515
-0.51
-0.505
-0.51
-0.51
-0.505
-0.495
-0.515
-0.525
-0.525
-0.535
-0.545
-0.55
-0.555
-0.565
-0.555
-0.555
-0.54
-0.55
-0.55
-0.56
-0.575
-0.575
-0.59
-0.605
-0.595
-0.585
-0.595
-0.585
-0.585
-0.575
-0.585
-0.6
-0.605
-0.615
-0.6
-0.61
-0.605
-0.6
-0.595
-0.585
-0.575
-0.585
-0.59
-0.59
-0.61
-0.62
-0.63
-0.63
-0.62
-0.61
-0.615
-0.595
-0.59
-0.595
-0.6
-0.605
-0.615
-0.62
-0.62
-0.615
-0.625
-0.61
-0.61
-0.595
-0.595
-0.595
-0.595
-0.61
-0.62
-0.615
-0.635
-0.63
-0.63
-0.625
-0.615
-0.59
-0.59
-0.59
-0.595
-0.615
-0.625
-0.63
-0.63
-0.625
-0.615
-0.615
-0.61
-0.6
-0.61
-0.605
-0.605
-0.615
-0.615
-0.615
-0.62
-0.62
-0.615
-0.6
-0.585
-0.57
-0.565
-0.555
-0.55
-0.55
-0.54
-0.54
-0.535
-0.535
-0.525
-0.51
-0.49
-0.485
-0.475
-0.48
-0.5
-0.53
-0.545
-0.565
-0.58
-0.575
-0.58
-0.565
-0.565
-0.55
-0.55
-0.545
-0.565
-0.585
-0.605
-0.625
-0.625
-0.62
-0.6
-0.59
-0.57
-0.55
-0.54
-0.52
-0.515
-0.48
-0.44
-0.37
-0.26
-0.075
0.15
0.42
0.735
1.03
1.225
1.305
1.23
0.94
0.42
-0.22
-0.86
-1.4
-1.545
-1.44
-1.21
-0.965
-0.795
-0.705
-0.69
-0.7
-0.725
-0.72
-0.71
-0.69
-0.675
-0.655
-0.65
-0.65
-0.65
-0.66
-0.665
-0.67
-0.665
-0.67
-0.66
-0.655
-0.65
-0.64
-0.63
-0.615
-0.62
-0.605
-0.6
-0.6
-0.605
-0.605
-0.61
-0.605
-0.605
-0.59
-0.575
-0.58
-0.565
-0.575
-0.565
-0.58
-0.58
-0.565
-0.565
-0.57
-0.545
-0.54
-0.535
-0.525
-0.515
-0.515
-0.515
-0.52
-0.535
-0.54
-0.515
-0.505
-0.5
-0.495
-0.49
-0.475
-0.47
-0.465
-0.455
-0.46
-0.465
-0.46
-0.465
-0.45
-0.44
-0.43
-0.425
-0.42
-0.415
-0.43
-0.43
-0.43
-0.445
-0.445
-0.445
-0.45
-0.44
-0.455
-0.445
-0.43
-0.425
-0.425
-0.435
-0.445
-0.44
-0.43
-0.42
-0.42
-0.385
-0.36
-0.36
-0.34
-0.335
-0.335
-0.345
-0.355
-0.37
-0.385
-0.395
-0.42
-0.425
-0.43
-0.44
-0.445
-0.45
-0.465
-0.49
-0.505
-0.535
-0.535
-0.55
-0.56
-0.555
-0.555
-0.545
-0.56
-0.56
-0.555
-0.565
-0.575
-0.575
-0.585
-0.59
-0.585
-0.58
-0.585
-0.575
-0.555
-0.55
-0.545
-0.555
-0.56
-0.575
-0.565
-0.55
-0.555
-0.535
-0.52
-0.505
-0.49
-0.48
-0.49
-0.475
-0.505
-0.505
-0.5
-0.49
-0.48
-0.485
-0.475
-0.48
-0.47
-0.47
-0.455
-0.47
-0.47
-0.48
-0.485
-0.485
-0.49
-0.5
-0.48
-0.48
-0.475
-0.47
-0.47
-0.475
-0.505
-0.51
-0.53
-0.525
-0.525
-0.515
-0.52
-0.515
-0.51
-0.53
-0.525
-0.52
-0.54
-0.54
-0.555
-0.555
-0.57
-0.57
-0.57
-0.565
-0.575
-0.57
-0.58
-0.57
-0.575
-0.585
-0.59
-0.595
-0.59
-0.585
-0.575
-0.575
-0.565
-0.575
-0.575
-0.59
-0.59
-0.595
-0.605
-0.605
-0.61
-0.61
-0.605
-0.59
-0.59
-0.585
-0.585
-0.6
-0.61
-0.605
-0.615
-0.63
-0.62
-0.615
-0.61
-0.61
-0.615
-0.605
-0.615
-0.6
-0.6
-0.61
-0.615
-0.61
-0.615
-0.605
-0.615
-0.6
-0.605
-0.61
-0.6
-0.605
-0.615
-0.62
-0.61
-0.605
-0.615
-0.615
-0.6
-0.61
-0.6
-0.605
-0.605
-0.61
-0.61
-0.615
-0.625
-0.615
-0.62
-0.615
-0.6
-0.605
-0.595
-0.585
-0.595
-0.585
-0.595
-0.605
-0.605
-0.6
-0.6
-0.585
-0.57
-0.565
-0.54
-0.515
-0.51
-0.52
-0.52
-0.515
-0.515
-0.52
-0.505
-0.5
-0.505
-0.515
-0.52
-0.535
-0.545
-0.55
-0.55
-0.55
-0.55
-0.545
-0.555
-0.56
-0.57
-0.585
-0.575
-0.585
-0.585
-0.59
-0.605
-0.595
-0.595
-0.595
-0.575
-0.56
-0.535
-0.5
-0.455
-0.41
-0.325
-0.18
0.015
0.27
0.585
0.9
1.18
1.35
1.375
1.215
0.84
0.205
-0.435
-1.075
-1.555
-1.615
-1.43
-1.155
-0.935
-0.76
-0.705
-0.7
-0.715
-0.715
-0.71
-0.685
-0.675
-0.655
-0.655
-0.665
-0.675
-0.68
-0.675
-0.675
-0.665
-0.66
-0.66
-0.645
-0.65
-0.645
-0.65
-0.645
-0.645
-0.645
-0.625
-0.615
-0.61
-0.6
-0.6
-0.6
-0.6
-0.61
-0.595
-0.61
-0.61
-0.575
-0.57
-0.56
-0.555
-0.56
-0.555
-0.55
-0.55
-0.545
-0.56
-0.565
-0.545
-0.54
-0.525
-0.515
-0.5
-0.5
-0.495
-0.485
-0.49
-0.49
-0.5
-0.495
-0.485
-0.47
-0.46
-0.445
-0.425
-0.43
-0.43
-0.425
-0.445
-0.45
-0.445
-0.45
-0.435
-0.43
-0.43
-0.42
-0.415
-0.415
-0.41
-0.415
-0.42
-0.42
-0.415
-0.425
-0.43
-0.42
-0.42
-0.415
-0.42
-0.405
-0.395
-0.395
-0.395
-0.405
-0.4
-0.39
-0.38
-0.365
-0.35
-0.335
-0.315
-0.305
-0.325
-0.32
-0.34
-0.375
-0.385
-0.415
-0.415
-0.425
-0.435
-0.44
-0.455
-0.47
-0.48
-0.495
-0.5
-0.515
-0.535
-0.545
-0.555
-0.56
-0.55
-0.55
-0.545
-0.545
-0.565
-0.57
-0.585
-0.6
-0.6
-0.6
-0.585
-0.6
-0.585
-0.58
-0.59
-0.575
-0.555
-0.56
-0.56
-0.56
-0.56
-0.56
-0.565
-0.55
-0.54
-0.54
-0.51
-0.505
-0.495
-0.51
-0.52
-0.51
-0.515
-0.505
-0.52
-0.505
-0.495
-0.475
-0.475
-0.49
-0.485
-0.49
-0.495
-0.505
-0.505
-0.505
-0.515
-0.49
-0.495
-0.49
-0.49
-0.485
-0.49
-0.49
-0.505
-0.51
-0.52
-0.535
-0.53
-0.535
-0.53
-0.53
-0.52
-0.52
-0.535
-0.545
-0.545
-0.545
-0.555
-0.56
-0.575
-0.56
-0.565
-0.57
-0.56
-0.565
-0.58
-0.575
-0.58
-0.59
-0.59
-0.595
-0.59
-0.595
-0.59
-0.595
-0.58
-0.585
-0.595
-0.6
-0.61
-0.625
-0.63
-0.625
-0.61
-0.615
-0.605
-0.595
-0.59
-0.585
-0.6
-0.6
-0.62
-0.62
-0.625
-0.63
-0.635
-0.635
-0.61
-0.6
-0.615
-0.605
-0.615
-0.615
-0.62
-0.62
-0.625
-0.63
-0.62
-0.625
-0.62
-0.615
-0.605
-0.6
-0.605
-0.615
-0.625
-0.625
-0.625
-0.64
-0.645
-0.635
-0.62
-0.61
-0.61
-0.61
-0.59
-0.615
-0.62
-0.62
-0.615
-0.63
-0.63
-0.62
-0.63
-0.63
-0.61
-0.615
-0.61
-0.605
-0.62
-0.605
-0.63
-0.63
-0.645
-0.63
-0.62
-0.605
-0.595
-0.595
-0.595
-0.595
-0.595
-0.6
-0.595
-0.595
-0.57
-0.56
-0.53
-0.52
-0.505
-0.52
-0.525
-0.515
-0.525
-0.515
-0.515
-0.53
-0.53
-0.55
-0.555
-0.565
-0.565
-0.57
-0.56
-0.56
-0.555
-0.565
-0.565
-0.58
-0.595
-0.605
-0.605
-0.605
-0.6
-0.6
-0.6
-0.59
-0.6
-0.6
-0.595
-0.585
-0.575
-0.54
-0.495
-0.44
-0.32
-0.15
0.09
0.41
0.77
1.1
1.33
1.41
1.35
1.085
0.6
-0.04
-0.68
-1.295
-1.575
-1.535
-1.305
-1.055
-0.865
-0.755
-0.74
-0.75
-0.74
-0.75
-0.71
-0.69
-0.665
-0.66
-0.67
-0.675
-0.7
-0.7
-0.715
-0.7
-0.7
-0.695
-0.68
-0.685
-0.67
-0.665
-0.67
-0.66
-0.675
-0.67
-0.68
-0.66
-0.655
-0.64
-0.635
-0.62
-0.615
-0.615
-0.615
-0.615
-0.615
-0.615
-0.615
-0.615
-0.6
-0.58
-0.58
-0.575
-0.57
-0.57
-0.57
-0.56
-0.57
-0.565
-0.57
-0.545
-0.55
-0.54
-0.54
-0.525
-0.525
-0.515
-0.52
-0.535
-0.525
-0.52
-0.5
-0.5
-0.49
-0.475
-0.46
-0.455
-0.465
-0.465
-0.46
-0.46
-0.455
-0.46
-0.445
-0.435
-0.44
-0.43
-0.415
-0.415
-0.42
-0.43
-0.435
-0.435
-0.435
-0.435
-0.44
-0.435
-0.42
-0.41
-0.39
-0.38
-0.38
-0.38
-0.385
-0.36
-0.355
-0.35
-0.33
-0.32
-0.31
-0.305
-0.29
-0.3
-0.325
-0.34
-0.355
-0.365
-0.39
-0.42
-0.43
-0.455
-0.46
-0.475
-0.465
-0.47
-0.495
-0.5
-0.515
-0.54
-0.555
-0.56
-0.565
-0.585
-0.575
-0.58
-0.57
-0.575
-0.58
-0.59
-0.59
-0.585
-0.585
-0.58
-0.585
-0.58
-0.575
-0.56
-0.55
-0.55
-0.535
-0.54
-0.54
-0.54
-0.555
-0.545
-0.535
-0.52
-0.505
-0.495
-0.49
-0.485
-0.49
-0.485
-0.49
-0.495
-0.495
-0.5
-0.5
-0.495
-0.49
-0.48
-0.48
-0.47
-0.485
-0.485
-0.48
-0.49
-0.5
-0.505
-0.5
-0.505
-0.505
-0.49
-0.49
-0.5
-0.49
-0.51
-0.52
-0.535
-0.545
-0.545
-0.55
-0.54
-0.54
-0.53
-0.54
-0.535
-0.545
-0.56
-0.56
-0.575
-0.565
-0.575
-0.58
-0.575
-0.575
-0.575
-0.575
-0.565
-0.565
-0.57
-0.58
-0.585
-0.595
-0.605
-0.6
-0.61
-0.605
-0.59
-0.59
-0.585
-0.59
-0.59
-0.605
-0.605
-0.615
-0.615
-0.605
-0.605
-0.6
-0.61
-0.6
-0.6
-0.605
-0.59
-0.605
-0.605
-0.62
-0.63
-0.625
-0.625
-0.62
-0.605
-0.595
-0.585
-0.59
-0.595
-0.605
-0.605
-0.62
-0.625
-0.615
-0.605
-0.62
-0.63
-0.61
-0.605
-0.605
-0.605
-0.605
-0.615
-0.615
-0.615
-0.62
-0.615
-0.615
-0.605
-0.6
-0.6
-0.605
-0.615
-0.62
-0.615
-0.62
-0.625
-0.61
-0.615
-0.595
-0.6
-0.6
-0.6
-0.6
-0.585
-0.6
-0.605
-0.605
-0.605
-0.595
-0.59
-0.565
-0.545
-0.545
-0.53
-0.525
-0.52
-0.52
-0.525
-0.525
-0.52
-0.51
-0.49
-0.51
-0.515
-0.53
-0.54
-0.555
-0.57
-0.57
-0.565
-0.56
-0.565
-0.575
-0.56
-0.56
-0.575
-0.58
-0.585
-0.595
-0.6
-0.6
-0.6
-0.595
-0.585
-0.575
-0.575
-0.555
-0.545
-0.515
-0.475
-0.44
-0.36
-0.245
-0.06
0.185
0.5
0.845
1.145
1.33
1.395
1.285
0.97
0.41
-0.23
-0.87
-1.47
-1.62
-1.5
-1.245
-1.0
-0.815
-0.72
-0.685
-0.69
-0.715
-0.705
-0.685
-0.675
-0.67
-0.675
-0.675
-0.68
-0.68
-0.685
-0.665
-0.67
-0.655
-0.66
-0.66
-0.655
-0.66
-0.64
-0.655
-0.64
-0.625
-0.62
-0.605
-0.61
-0.6
-0.595
-0.605
-0.605
-0.6
-0.595
-0.59
-0.585
-0.57
-0.565
-0.555
-0.545
-0.55
-0.545
-0.555
-0.55
-0.545
-0.535
-0.53
-0.515
-0.525
-0.515
-0.495
-0.495
-0.495
-0.49
-0.495
-0.5
-0.495
-0.49
-0.485
-0.485
-0.47
-0.455
-0.44
-0.44
-0.44
-0.45
-0.45
-0.45
-0.44
-0.445
-0.445
-0.43
-0.425
-0.42
-0.415
-0.415
-0.42
-0.445
-0.445
-0.45
-0.435
-0.445
-0.435
-0.44
-0.435
-0.425
-0.42
-0.41
-0.41
-0.41
-0.39
-0.4
-0.375
-0.375
-0.35
-0.345
-0.34
-0.335
-0.34
-0.355
-0.355
-0.385
-0.405
-0.43
-0.44
-0.45
-0.465
-0.475
-0.475
-0.485
-0.51
-0.515
-0.525
-0.56
-0.57
-0.565
-0.58
-0.585
-0.575
-0.58
-0.575
-0.575
-0.58
-0.565
-0.585
-0.585
-0.585
-0.58
-0.57
-0.575
-0.575
-0.565
-0.565
-0.555
-0.535
-0.535
-0.53
-0.52
-0.525
-0.535
-0.535
-0.535
-0.53
-0.51
-0.5
-0.49
-0.485
-0.47
-0.48
-0.475
-0.48
-0.485
-0.5
-0.48
-0.48
-0.485
-0.475
-0.465
-0.475
-0.455
-0.46
-0.46
-0.485
-0.485
-0.495
-0.5
-0.5
-0.505
-0.495
-0.5
-0.495
-0.49
-0.495
-0.52
-0.52
-0.525
-0.54
-0.54
-0.545
-0.545
-0.54
-0.555
-0.555
-0.55
-0.555
-0.575
-0.575
-0.575
-0.58
-0.595
-0.59
-0.575
-0.58
-0.575
-0.575
-0.57
-0.575
-0.58
-0.6
-0.595
-0.61
-0.61
-0.605
-0.605
-0.595
-0.595
-0.59
-0.595
-0.6
-0.61
-0.61
-0.615
-0.64
-0.645
-0.635
-0.64
-0.625
-0.615
-0.605
-0.605
-0.605
-0.605
-0.615
-0.615
-0.63
-0.625
-0.635
-0.625
-0.62
-0.615
-0.625
-0.62
-0.62
-0.63
-0.635
-0.645
-0.65
-0.645
-0.635
-0.635
-0.625
-0.63
-0.62
-0.615
-0.62
-0.63
-0.625
-0.63
-0.635
-0.64
-0.655
-0.645
-0.64
-0.64
-0.615
-0.615
-0.625
-0.625
-0.625
-0.625
-0.63
-0.625
-0.625
-0.625
-0.62
-0.61
-0.605
-0.595
-0.605
-0.605
-0.615
-0.61
-0.61
-0.605
-0.595
-0.58
-0.57
-0.55
-0.535
-0.535
-0.525
-0.515
-0.52
-0.505
-0.52
-0.52
-0.52
-0.55
-0.56
-0.555
-0.555
-0.54
-0.555
-0.56
-0.57
-0.575
-0.595
-0.605
-0.615
-0.62
-0.62
-0.62
-0.62
-0.61
-0.595
-0.595
-0.585
-0.58
-0.58
-0.56
-0.535
-0.495
-0.425
-0.305
-0.1
0.155
0.5
0.855
1.14
1.31
1.3
1.085
0.62
-0.02
-0.66
-1.3
-1.645
-1.58
-1.335
-1.07
-0.87
-0.75
-0.725
-0.72
-0.73
-0.73
-0.7
-0.675
-0.66
-0.645
-0.655
-0.675
-0.67
-0.675
-0.68
-0.67
-0.665
-0.66
-0.65
-0.65
-0.635
-0.625
-0.645
-0.635
-0.64
-0.645
-0.635
-0.635
-0.635
-0.62
-0.615
-0.61
-0.6
-0.59
-0.59
-0.6
-0.6
-0.6
-0.605
-0.6
-0.6
-0.585
-0.575
-0.555
-0.55
-0.55
-0.55
-0.555
-0.555
-0.55
-0.555
-0.555
-0.54
-0.53
-0.515
-0.49
-0.485
-0.475
-0.47
-0.47
-0.475
-0.47
-0.49
-0.49
-0.485
-0.465
-0.455
-0.445
-0.44
-0.44
-0.43
-0.43
-0.44
-0.44
-0.46
-0.465
-0.45
-0.455
-0.455
-0.44
-0.43
-0.435
-0.445
-0.45
-0.45
-0.455
-0.46
-0.445
-0.445
-0.45
-0.435
-0.44
-0.415
-0.405
-0.395
-0.39
-0.37
-0.37
-0.37
-0.37
-0.36
-0.37
-0.365
-0.37
-0.36
-0.375
-0.395
-0.415
-0.435
-0.455
-0.465
-0.48
-0.5
-0.515
-0.505
-0.53
-0.53
-0.54
-0.55
-0.56
-0.56
-0.575
-0.59
-0.6
-0.6
-0.605
-0.605
-0.595
-0.585
-0.585
-0.585
-0.605
-0.59
-0.595
-0.6
-0.595
-0.595
-0.575
-0.57
-0.575
-0.555
-0.555
-0.56
-0.56
-0.565
-0.56
-0.55
-0.55
-0.53
-0.535
-0.515
-0.505
-0.51
-0.485
-0.48
-0.485
-0.49
-0.49
-0.51
-0.51
-0.51
-0.495
-0.48
-0.47
-0.46
-0.46
-0.465
-0.47
-0.48
-0.47
-0.49
-0.485
-0.48
-0.5
-0.49
-0.485
-0.495
-0.495
-0.5
-0.52
-0.51
-0.52
-0.525
-0.54
-0.54
-0.545
-0.55
-0.55
-0.545
-0.53
-0.54
-0.55
-0.565
-0.575
-0.58
-0.575
-0.59
-0.585
-0.595
-0.59
-0.585
-0.57
-0.58
-0.58
-0.585
-0.585
-0.61
-0.61
-0.605
-0.605
-0.605
-0.6
-0.6
-0.6
-0.605
-0.6
-0.6
-0.61
-0.62
-0.64
-0.635
-0.63
-0.61
-0.61
-0.615
-0.61
-0.61
-0.615
-0.615
-0.64
-0.635
-0.645
-0.64
-0.635
-0.635
-0.625
-0.615
-0.615
-0.615
-0.605
-0.625
-0.64
-0.645
-0.655
-0.645
-0.655
-0.655
-0.635
-0.62
-0.615
-0.62
-0.64
-0.645
-0.655
-0.655
-0.655
-0.65
-0.645
-0.64
-0.64
-0.64
-0.64
-0.63
-0.63
-0.64
-0.64
-0.64
-0.645
-0.635
-0.63
-0.615
-0.595
-0.58
-0.58
-0.565
-0.57
-0.57
-0.58
-0.565
-0.56
-0.545
-0.54
-0.53
-0.535
-0.54
-0.555
-0.57
-0.575
-0.58
-0.59
-0.59
-0.605
-0.605
-0.605
-0.605
-0.615
-0.625
-0.63
-0.64
-0.64
-0.645
-0.645
-0.64
-0.635
-0.625
-0.615
-0.61
-0.6
-0.56
-0.525
-0.485
-0.4
-0.24
-0.04
0.23
0.565
0.905
1.175
1.34
1.36
1.18
0.76
0.12
-0.52
-1.16
-1.585
-1.585
-1.37
-1.105
-0.9
-0.765
-0.685
-0.685
-0.69
-0.695
-0.695
-0.705
-0.72
-0.715
-0.725
-0.73
-0.72
-0.715
-0.71
-0.7
-0.695
-0.695
-0.695
-0.705
-0.7
-0.695
-0.695
-0.71
-0.68
-0.685
-0.66
-0.66
-0.655
-0.665
-0.66
-0.655
-0.645
-0.64
-0.64
-0.645
-0.635
-0.62
-0.615
-0.61
-0.61
-0.605
-0.605
-0.61
-0.61
-0.62
-0.61
-0.615
-0.605
-0.58
-0.575
-0.555
-0.55
-0.545
-0.54
-0.55
-0.54
-0.545
-0.535
-0.525
-0.52
-0.51
-0.515
-0.5
-0.49
-0.47
-0.47
-0.475
-0.485
-0.485
-0.485
-0.465
-0.46
-0.45
-0.445
-0.43
-0.42
-0.43
-0.45
-0.44
-0.45
-0.445
-0.445
-0.435
-0.425
-0.435
-0.425
-0.405
-0.385
-0.4
-0.375
-0.37
-0.365
-0.36
-0.345
-0.34
-0.33
-0.315
-0.315
-0.325
-0.32
-0.335
-0.36
-0.375
-0.395
-0.415
-0.435
-0.44
-0.455
-0.465
-0.475
-0.505
-0.51
-0.525
-0.54
-0.55
-0.57
-0.58
-0.585
-0.595
-0.605
-0.61
-0.605
-0.6
-0.605
-0.61
-0.6
-0.62
-0.64
-0.64
-0.64
-0.635
-0.635
-0.635
-0.62
-0.625
-0.6
-0.6
-0.605
-0.605
-0.61
-0.61
-0.62
-0.605
-0.595
-0.585
-0.585
-0.57
-0.565
-0.57
-0.555
-0.575
-0.57
-0.57
-0.56
-0.57
-0.56
-0.55
-0.53
-0.53
-0.52
-0.515
-0.52
-0.53
-0.54
-0.555
-0.565
-0.545
-0.565
-0.56
-0.55
-0.54
-0.53
-0.545
-0.545
-0.555
-0.56
-0.56
-0.57
-0.56
-0.58
-0.575
-0.58
-0.585
-0.575
-0.585
-0.585
-0.595
-0.605
-0.61
-0.615
-0.625
-0.62
-0.625
-0.62
-0.615
-0.61
-0.62
-0.635
-0.635
-0.645
-0.635
-0.645
-0.655
-0.66
-0.645
-0.65
-0.64
-0.635
-0.635
-0.64
-0.635
-0.645
-0.65
-0.655
-0.66
-0.665
-0.655
-0.665
-0.655
-0.645
-0.64
-0.645
-0.66
-0.655
-0.685
-0.69
-0.685
-0.675
-0.67
-0.655
-0.665
-0.65
-0.655
-0.665
-0.67
-0.66
-0.67
-0.68
-0.67
-0.685
-0.665
-0.66
-0.645
-0.655
-0.64
-0.655
-0.66
-0.68
-0.685
-0.675
-0.67
-0.68
-0.665
-0.655
-0.645
-0.635
-0.64
-0.645
-0.65
-0.655
-0.65
-0.655
-0.66
-0.67
-0.65
-0.655
-0.635
-0.635
-0.64
-0.635
-0.635
-0.63
-0.64
-0.64
-0.63
-0.615
-0.59
-0.595
-0.585
-0.555
-0.56
-0.56
-0.565
-0.565
-0.57
-0.56
-0.535
-0.545
-0.55
-0.56
-0.59
-0.59
-0.6
-0.605
-0.6
-0.595
-0.605
-0.61
-0.61
-0.63
-0.65
-0.655
-0.645
-0.655
-0.65
-0.64
-0.63
-0.625
-0.625
-0.615
-0.61
-0.59
-0.555
-0.52
-0.46
-0.35
-0.155
0.1
0.43
0.805
1.15
1.385
1.46
1.355
1.04
0.465
-0.175
-0.815
-1.455
-1.585
-1.46
-1.22
-0.97
-0.81
-0.74
-0.715
-0.72
-0.735
-0.725
-0.7
-0.675
-0.67
-0.66
-0.68
-0.69
-0.7
-0.705
-0.715
-0.715
-0.695
-0.695
-0.685
-0.675
-0.68
-0.68
-0.665
-0.68
-0.69
-0.685
-0.67
-0.66
-0.665
-0.64
-0.63
-0.63
-0.63
-0.635
-0.635
-0.645
-0.65
-0.635
-0.625
-0.605
-0.6
-0.58
-0.58
-0.58
-0.58
-0.575
-0.565
-0.56
-0.57
-0.56
-0.555
-0.545
-0.54
-0.525
-0.515
-0.515
-0.505
-0.505
-0.505
-0.505
-0.505
-0.5
-0.49
-0.475
-0.46
-0.45
-0.45
-0.445
-0.445
-0.44
-0.445
-0.44
-0.435
-0.435
-0.43
-0.42
-0.415
-0.405
-0.395
-0.395
-0.405
-0.4
-0.405
-0.42
-0.425
-0.42
-0.42
-0.405
-0.4
-0.395
-0.37
-0.36
-0.355
-0.35
-0.34
-0.34
-0.32
-0.325
-0.315
-0.295
-0.29
-0.29
-0.29
-0.295
-0.32
-0.335
-0.375
-0.385
-0.405
-0.405
-0.425
-0.43
-0.455
-0.45
-0.46
-0.47
-0.49
-0.505
-0.545
-0.565
-0.565
-0.565
-0.57
-0.57
-0.58
-0.575
-0.565
-0.565
-0.565
-0.575
-0.58
-0.59
-0.585
-0.585
-0.575
-0.57
-0.555
-0.57
-0.56
-0.555
-0.555
-0.56
-0.54
-0.56
-0.555
-0.55
-0.545
-0.535
-0.51
-0.5
-0.495
-0.495
-0.505
-0.495
-0.51
-0.52
-0.52
-0.515
-0.495
-0.48
-0.475
-0.48
-0.475
-0.48
-0.47
-0.485
-0.49
-0.49
-0.495
-0.49
-0.515
-0.49
-0.49
-0.48
-0.485
-0.485
-0.485
-0.505
-0.51
-0.525
-0.535
-0.535
-0.54
-0.535
-0.525
-0.515
-0.515
-0.525
-0.53
-0.55
-0.56
-0.555
-0.58
-0.575
-0.565
-0.56
-0.56
-0.56
-0.555
-0.55
-0.555
-0.56
-0.585
-0.585
-0.595
-0.59
-0.6
-0.595
-0.595
-0.59
-0.58
-0.585
-0.59
-0.585
-0.59
-0.595
-0.595
-0.6
-0.61
-0.605
-0.61
-0.6
-0.595
-0.595
-0.585
-0.595
-0.6
-0.61
-0.615
-0.615
-0.61
-0.615
-0.605
-0.595
-0.58
-0.58
-0.575
-0.595
-0.595
-0.605
-0.62
-0.625
-0.625
-0.605
-0.6
-0.59
-0.575
-0.585
-0.59
-0.595
-0.595
-0.6
-0.605
-0.605
-0.61
-0.62
-0.6
-0.61
-0.59
-0.59
-0.59
-0.6
-0.605
-0.605
-0.63
-0.62
-0.605
-0.6
-0.59
-0.58
-0.58
-0.575
-0.58
-0.585
-0.58
-0.585
-0.585
-0.575
-0.565
-0.55
-0.535
-0.515
-0.49
-0.49
-0.495
-0.495
-0.505
-0.505
-0.505
-0.5
-0.5
-0.51
-0.52
-0.525
-0.525
-0.53
-0.545
-0.535
-0.535
-0.555
-0.555
-0.56
-0.565
-0.57
-0.58
-0.585
-0.585
-0.585
-0.58
-0.595
-0.59
-0.585
-0.575
-0.57
-0.55
-0.525
-0.475
-0.425
-0.35
-0.225
-0.05
0.205
0.51
0.86
1.17
1.37
1.41
1.24
0.785
0.145
-0.495
-1.135
-1.61
-1.57
-1.34
-1.07
-0.86
-0.74
-0.68
-0.68
-0.685
-0.68
-0.67
-0.665
-0.66
-0.66
-0.67
-0.68
-0.68
-0.68
-0.68
-0.67
-0.665
-0.64
-0.64
-0.635
-0.635
-0.635
-0.635
-0.64
-0.635
-0.63
-0.625
-0.62
-0.605
-0.595
-0.585
-0.575
-0.58
-0.585
-0.595
-0.59
-0.595
-0.575
-0.58
-0.59
-0.58
-0.555
-0.545
-0.545
-0.535
-0.55
-0.56
-0.555
-0.55
-0.545
-0.53
-0.52
-0.515
-0.5
-0.49
-0.48
-0.485
-0.48
-0.485
-0.49
-0.5
-0.49
-0.48
-0.46
-0.445
-0.43
-0.415
-0.425
-0.43
-0.445
-0.44
-0.445
-0.46
-0.455
-0.46
-0.44
-0.435
-0.43
-0.415
-0.41
-0.42
-0.43
-0.435
-0.425
-0.44
-0.445
-0.445
-0.43
-0.425
-0.405
-0.395
-0.38
-0.37
-0.37
-0.36
-0.36
-0.35
-0.345
-0.35
-0.345
-0.34
-0.345
-0.365
-0.37
-0.385
-0.395
-0.415
-0.43
-0.47
-0.47
-0.485
-0.5
-0.505
-0.515
-0.515
-0.515
-0.525
-0.54
-0.56
-0.57
-0.59
-0.59
-0.585
-0.585
-0.58
-0.575
-0.56
-0.56
-0.555
-0.555
-0.56
-0.565
-0.565
-0.575
-0.565
-0.57
-0.565
-0.54
-0.535
-0.52
-0.52
-0.5
-0.515
-0.515
-0.51
-0.505
-0.51
-0.49
-0.475
-0.48
-0.475
-0.46
-0.455
-0.46
-0.46
-0.465
-0.465
-0.48
-0.475
-0.485
-0.46
-0.465
-0.45
-0.46
-0.455
-0.47
-0.47
-0.495
-0.5
-0.5
-0.515
-0.505
-0.5
-0.51
-0.49
-0.495
-0.51
-0.5
-0.52
-0.53
-0.53
-0.54
-0.535
-0.54
-0.54
-0.53
-0.54
-0.535
-0.54
-0.55
-0.545
-0.56
-0.57
-0.585
-0.595
-0.575
-0.565
-0.575
-0.57
-0.57
-0.575
-0.575
-0.59
-0.605
-0.605
-0.605
-0.605
-0.605
-0.61
-0.6
-0.59
-0.59
-0.59
-0.6
-0.6
-0.6
-0.605
-0.615
-0.625
-0.61
-0.6
-0.59
-0.595
-0.59
-0.59
-0.595
-0.605
-0.605
-0.615
-0.615
-0.605
-0.61
-0.615
-0.605
-0.595
-0.59
-0.595
-0.595
-0.61
-0.615
-0.635
-0.615
-0.605
-0.6
-0.595
-0.59
-0.585
-0.595
-0.595
-0.6
-0.61
-0.615
-0.625
-0.625
-0.62
-0.6
-0.605
-0.595
-0.595
-0.59
-0.59
-0.595
-0.59
-0.605
-0.6
-0.605
-0.595
-0.595
-0.58
-0.555
-0.54
-0.53
-0.525
-0.52
-0.52
-0.52
-0.53
-0.525
-0.52
-0.505
-0.505
-0.51
-0.52
-0.54
-0.54
-0.55
-0.565
-0.555
-0.56
-0.56
-0.555
-0.57
-0.575
-0.59
-0.59
-0.585
-0.59
-0.6
-0.61
-0.6
-0.6
-0.59
-0.585
-0.565
-0.535
-0.505
-0.455
-0.39
-0.265
-0.11
0.145
0.44
0.78
1.08
1.3
1.39
1.28
0.945
0.365
-0.275
-0.915
-1.55
-1.675
-1.535
-1.27
-1.02
-0.825
-0.735
-0.72
-0.715
-0.735
-0.72
-0.705
-0.685
-0.665
-0.65
-0.66
-0.68
-0.67
-0.67
-0.67
-0.665
-0.66
-0.645
-0.64
-0.645
-0.65
-0.645
-0.64
-0.645
-0.65
-0.63
-0.635
-0.615
-0.6
-0.6
-0.6
-0.59
-0.595
-0.595
-0.605
-0.6
-0.585
-0.59
-0.575
-0.565
-0.57
-0.565
-0.565
-0.575
-0.57
-0.565
-0.58
-0.555
-0.56
-0.545
-0.535
-0.525
-0.51
-0.5
-0.505
-0.5
-0.49
-0.49
-0.485
-0.495
-0.485
-0.475
-0.455
-0.45
-0.445
-0.445
-0.44
-0.445
-0.45
-0.44
-0.44
-0.445
-0.445
-0.44
-0.435
-0.42
-0.43
-0.42
-0.415
-0.43
-0.43
-0.43
-0.445
-0.45
-0.45
-0.45
-0.435
-0.42
-0.42
-0.415
-0.41
-0.41
-0.41
-0.41
-0.395
-0.385
-0.365
-0.37
-0.345
-0.335
-0.325
-0.34
-0.355
-0.36
-0.39
-0.405
-0.435
-0.45
-0.455
-0.47
-0.47
-0.47
-0.47
-0.49
-0.495
-0.515
-0.535
-0.545
-0.56
-0.565
-0.57
-0.565
-0.555
-0.56
-0.545
-0.565
-0.565
-0.565
-0.57
-0.575
-0.59
-0.59
-0.595
-0.58
-0.58
-0.555
-0.545
-0.545
-0.545
-0.55
-0.55
-0.565
-0.57
-0.56
-0.55
-0.54
-0.515
-0.52
-0.505
-0.495
-0.495
-0.49
-0.495
-0.49
-0.485
-0.49
-0.5
-0.48
-0.465
-0.46
-0.445
-0.44
-0.455
-0.46
-0.465
-0.47
-0.48
-0.485
-0.485
-0.475
-0.485
-0.48
-0.47
-0.47
-0.47
-0.49
-0.49
-0.5
-0.51
-0.515
-0.52
-0.525
-0.515
-0.515
-0.505
-0.515
-0.52
-0.525
-0.54
-0.545
-0.55
-0.575
-0.56
-0.555
-0.565
-0.56
-0.565
-0.56
-0.565
-0.565
-0.59
-0.59
-0.595
-0.6
-0.6
-0.595
-0.595
-0.595
-0.58
-0.57
-0.575
-0.59
-0.6
-0.61
-0.62
-0.625
-0.63
-0.625
-0.61
-0.61
-0.605
-0.605
-0.605
-0.61
-0.625
-0.62
-0.625
-0.63
-0.625
-0.635
-0.625
-0.625
-0.615
-0.615
-0.61
-0.62
-0.615
-0.625
-0.63
-0.635
-0.645
-0.63
-0.63
-0.625
-0.615
-0.61
-0.62
-0.63
-0.645
-0.655
-0.65
-0.655
-0.655
-0.665
-0.645
-0.64
-0.63
-0.63
-0.64
-0.635
-0.635
-0.645
-0.635
-0.64
-0.645
-0.645
-0.63
-0.625
-0.63
-0.63
-0.63
-0.62
-0.625
-0.645
-0.65
-0.64
-0.645
-0.635
-0.62
-0.585
-0.57
-0.54
-0.545
-0.535
-0.55
-0.55
-0.555
-0.55
-0.565
-0.55
-0.555
-0.56
-0.56
-0.57
-0.585
-0.585
-0.595
-0.605
-0.6
-0.6
-0.61
-0.595
-0.595
-0.605
-0.61
-0.62
-0.625
-0.65
-0.63
-0.63
-0.62
-0.615
-0.615
-0.6
-0.58
-0.545
-0.515
-0.445
-0.345
-0.19
0.06
0.36
0.71
1.015
1.25
1.355
1.315
1.07
0.605
-0.035
-0.675
-1.315
-1.585
-1.54
-1.32
-1.075
-0.87
-0.76
-0.725
-0.735
-0.74
-0.75
-0.74
-0.71
-0.695
-0.68
-0.69
-0.705
-0.72
-0.73
-0.725
-0.71
-0.69
-0.695
-0.695
-0.69
-0.695
-0.7
-0.695
-0.7
-0.685
-0.68
-0.675
-0.665
-0.655
-0.65
-0.65
-0.66
-0.645
-0.64
-0.645
-0.645
-0.64
-0.64
-0.625
-0.62
-0.61
-0.615
-0.605
-0.595
-0.605
-0.615
-0.615
-0.605
-0.605
-0.585
-0.58
-0.56
-0.555
-0.54
-0.54
-0.555
-0.56
-0.55
-0.545
-0.545
-0.54
-0.525
-0.51
-0.515
-0.485
-0.475
-0.47
-0.465
-0.475
-0.48
-0.48
-0.485
-0.465
-0.46
-0.445
-0.435
-0.43
-0.43
-0.435
-0.43
-0.43
-0.435
-0.435
-0.435
-0.44
-0.445
-0.43
-0.41
-0.39
-0.39
-0.385
-0.375
-0.375
-0.37
-0.385
-0.38
-0.36
-0.34
-0.32
-0.32
-0.32
-0.33
-0.34
-0.35
-0.37
-0.4
-0.405
-0.435
-0.45
-0.475
-0.475
-0.475
-0.49
-0.5
-0.505
-0.52
-0.535
-0.555
-0.575
-0.585
-0.59
-0.595
-0.605
-0.605
-0.61
-0.59
-0.61
-0.61
-0.625
-0.63
-0.65
-0.63
-0.64
-0.62
-0.615
-0.61
-0.6
-0.595
-0.6
-0.625
-0.615
-0.625
-0.625
-0.615
-0.605
-0.595
-0.585
-0.575
-0.575
-0.57
-0.56
-0.565
-0.565
-0.57
-0.565
-0.575
-0.565
-0.565
-0.55
-0.545
-0.535
-0.535
-0.54
-0.54
-0.55
-0.565
-0.565
-0.57
-0.55
-0.545
-0.545
-0.535
-0.54
-0.55
-0.56
-0.565
-0.58
-0.58
-0.59
-0.595
-0.6
-0.595
-0.59
-0.585
-0.58
-0.58
-0.605
-0.615
-0.625
-0.625
-0.63
-0.64
-0.64
-0.63
-0.63
-0.64
-0.635
-0.625
-0.64
-0.64
-0.64
-0.66
-0.66
-0.67
-0.665
-0.665
-0.665
-0.66
-0.65
-0.64
-0.66
-0.67
-0.67
-0.68
-0.685
-0.685
-0.675
-0.67
-0.67
-0.67
-0.65
-0.66
-0.66
-0.665
-0.675
-0.69
-0.705
-0.69
-0.7
-0.705
-0.69
-0.67
-0.66
-0.655
-0.655
-0.665
-0.675
-0.68
-0.69
-0.71
-0.695
-0.7
-0.69
-0.69
-0.68
-0.69
-0.665
-0.675
-0.67
-0.685
-0.69
-0.685
-0.685
-0.685
-0.68
-0.675
-0.67
-0.67
-0.665
-0.69
-0.67
-0.685
-0.69
-0.685
-0.685
-0.68
-0.665
-0.655
-0.65
-0.65
-0.655
-0.655
-0.665
-0.675
-0.68
-0.68
-0.685
-0.67
-0.65
-0.65
-0.64
-0.615
-0.605
-0.595
-0.58
-0.59
-0.585
-0.6
-0.595
-0.595
-0.585
-0.575
-0.56
-0.59
-0.6
-0.615
-0.635
-0.645
-0.655
-0.65
-0.645
-0.63
-0.605
-0.605
-0.615
-0.63
-0.645
-0.655
-0.67
-0.665
-0.675
-0.66
-0.67
-0.65
-0.64
-0.62
-0.595
-0.56
-0.505
-0.445
-0.295
-0.085
0.195
0.545
0.89
1.185
1.345
1.33
1.14
0.67
0.03
-0.61
-1.25
-1.61
-1.56
-1.34
-1.065
-0.865
-0.765
-0.725
-0.735
-0.745
-0.755
-0.75
