Lead II
-0.725
-0.735
-0.72
-0.71
-0.71
-0.735
-0.75
-0.76
-0.765
-0.785
-0.78
-0.78
-0.79
-0.765
-0.75
-0.74
-0.75
-0.74
-0.74
-0.755
-0.765
-0.78
-0.78
-0.79
-0.775
-0.78
-0.765
-0.76
-0.76
-0.775
-0.77
-0.77
-0.785
-0.775
-0.79
-0.79
-0.8
-0.765
-0.77
-0.745
-0.755
-0.755
-0.765
-0.775
-0.78
-0.8
-0.8
-0.795
-0.795
-0.795
-0.785
-0.76
-0.765
-0.765
-0.775
-0.785
-0.775
-0.805
-0.81
-0.82
-0.785
-0.78
-0.77
-0.75
-0.76
-0.77
-0.78
-0.785
-0.795
-0.805
-0.805
-0.81
-0.795
-0.785
-0.77
-0.77
-0.76
-0.775
-0.77
-0.78
-0.795
-0.79
-0.795
-0.8
-0.785
-0.805
-0.795
-0.79
-0.78
-0.78
-0.78
-0.78
-0.8
-0.79
-0.8
-0.815
-0.8
-0.78
-0.79
-0.76
-0.75
-0.76
-0.76
-0.785
-0.8
-0.785
-0.81
-0.815
-0.8
-0.78
-0.775
-0.775
-0.77
-0.765
-0.765
-0.775
-0.765
-0.795
-0.785
-0.775
-0.78
-0.78
-0.785
-0.77
-0.78
-0.785
-0.785
-0.765
-0.77
-0.785
-0.785
-0.78
-0.765
-0.76
-0.745
-0.735
-0.705
-0.695
-0.695
-0.695
-0.71
-0.71
-0.715
-0.695
-0.685
-0.67
-0.645
-0.625
-0.61
-0.595
-0.605
-0.61
-0.63
-0.645
-0.655
-0.67
-0.67
-0.665
-0.685
-0.69
-0.7
-0.72
-0.72
-0.74
-0.75
-0.77
-0.8
-0.79
-0.79
-0.775
-0.785
-0.76
-0.765
-0.77
-0.785
-0.795
-0.805
-0.8
-0.8
-0.82
-0.825
-0.805
-0.8
-0.795
-0.78
-0.795
-0.795
-0.805
-0.79
-0.8
-0.795
-0.795
-0.785
-0.77
-0.765
-0.76
-0.735
-0.695
-0.625
-0.555
-0.47
-0.38
-0.27
-0.185
-0.125
-0.105
-0.125
-0.23
-0.415
-0.615
-0.84
-1.065
-1.265
-1.38
-1.42
-1.365
-1.27
-1.15
-1.075
-0.975
-0.93
-0.89
-0.84
-0.805
-0.775
-0.77
-0.78
-0.785
-0.775
-0.765
-0.755
-0.735
-0.735
-0.73
-0.75
-0.75
-0.755
-0.735
-0.74
-0.73
-0.725
-0.72
-0.715
-0.715
-0.7
-0.695
-0.69
-0.71
-0.705
-0.71
-0.71
-0.715
-0.7
-0.69
-0.675
-0.665
-0.655
-0.66
-0.66
-0.66
-0.665
-0.68
-0.69
-0.69
-0.67
-0.665
-0.64
-0.62
-0.625
-0.625
-0.605
-0.605
-0.605
-0.6
-0.595
-0.59
-0.58
-0.565
-0.54
-0.52
-0.515
-0.515
-0.5
-0.505
-0.5
-0.5
-0.48
-0.47
-0.445
-0.42
-0.405
-0.375
-0.37
-0.35
-0.345
-0.32
-0.305
-0.29
-0.28
-0.25
-0.235
-0.22
-0.2
-0.17
-0.16
-0.16
-0.155
-0.155
-0.175
-0.185
-0.17
-0.16
-0.14
-0.15
-0.13
-0.125
-0.135
-0.135
-0.16
-0.19
-0.22
-0.245
-0.255
-0.295
-0.335
-0.345
-0.345
-0.37
-0.395
-0.415
-0.45
-0.495
-0.52
-0.555
-0.58
-0.6
-0.625
-0.605
-0.63
-0.62
-0.655
-0.65
-0.675
-0.685
-0.705
-0.725
-0.75
-0.755
-0.76
-0.74
-0.725
-0.705
-0.73
-0.73
-0.735
-0.72
-0.74
-0.765
-0.755
-0.765
-0.76
-0.765
-0.75
-0.765
-0.76
-0.75
-0.755
-0.765
-0.765
-0.775
-0.78
-0.8
-0.77
-0.76
-0.74
-0.74
-0.735
-0.73
-0.755
-0.75
-0.76
-0.765
-0.77
-0.77
-0.765
-0.76
-0.75
-0.745
-0.74
-0.745
-0.75
-0.76
-0.755
-0.765
-0.78
-0.78
-0.765
-0.775
-0.77
-0.76
-0.755
-0.75
-0.755
-0.785
-0.775
-0.805
-0.83
-0.82
-0.82
-0.79
-0.785
-0.77
-0.77
-0.78
-0.785
-0.79
-0.805
-0.82
-0.835
-0.82
-0.815
-0.795
-0.815
-0.8
-0.8
-0.8
-0.805
-0.81
-0.825
-0.83
-0.83
-0.82
-0.815
-0.815
-0.805
-0.795
-0.81
-0.8
-0.795
-0.805
-0.805
-0.82
-0.83
-0.83
-0.835
-0.82
-0.805
-0.805
-0.785
-0.805
-0.8
-0.815
-0.82
-0.825
-0.835
-0.825
-0.83
-0.815
-0.825
-0.785
-0.81
-0.805
-0.81
-0.82
-0.82
-0.835
-0.845
-0.835
-0.84
-0.83
-0.815
-0.805
-0.8
-0.81
-0.825
-0.82
-0.83
-0.845
-0.83
-0.83
-0.835
-0.825
-0.825
-0.81
-0.8
-0.82
-0.83
-0.845
-0.86
-0.855
-0.865
-0.85
-0.84
-0.83
-0.83
-0.81
-0.8
-0.8
-0.8
-0.805
-0.835
-0.835
-0.855
-0.875
-0.87
-0.85
-0.845
-0.82
-0.815
-0.82
-0.835
-0.82
-0.83
-0.83
-0.83
-0.835
-0.83
-0.81
-0.81
-0.795
-0.8
-0.81
-0.82
-0.835
-0.83
-0.825
-0.84
-0.85
-0.84
-0.825
-0.815
-0.81
-0.81
-0.805
-0.81
-0.8
-0.825
-0.83
-0.83
-0.84
-0.815
-0.81
-0.82
-0.78
-0.77
-0.765
-0.735
-0.75
-0.75
-0.76
-0.765
-0.765
-0.745
-0.72
-0.705
-0.68
-0.66
-0.66
-0.655
-0.66
-0.68
-0.7
-0.73
-0.745
-0.725
-0.72
-0.715
-0.71
-0.715
-0.735
-0.74
-0.77
-0.79
-0.795
-0.835
-0.83
-0.81
-0.815
-0.81
-0.8
-0.8
-0.81
-0.82
-0.83
-0.855
-0.86
-0.87
-0.87
-0.885
-0.865
-0.84
-0.84
-0.84
-0.84
-0.835
-0.845
-0.845
-0.85
-0.845
-0.85
-0.855
-0.84
-0.83
-0.825
-0.83
-0.82
-0.795
-0.735
-0.655
-0.565
-0.445
-0.32
-0.18
-0.03
0.075
0.13
0.125
0.025
-0.12
-0.345
-0.565
-0.84
-1.095
-1.28
-1.36
-1.345
-1.265
-1.135
-1.04
-0.985
-0.94
-0.91
-0.885
-0.87
-0.845
-0.825
-0.805
-0.795
-0.8
-0.78
-0.795
-0.79
-0.795
-0.79
-0.795
-0.8
-0.81
-0.79
-0.785
-0.775
-0.775
-0.755
-0.76
-0.76
-0.76
-0.755
-0.765
-0.775
-0.795
-0.785
-0.76
-0.735
-0.74
-0.72
-0.72
-0.715
-0.725
-0.72
-0.74
-0.75
-0.745
-0.74
-0.72
-0.7
-0.705
-0.695
-0.69
-0.695
-0.69
-0.675
-0.68
-0.7
-0.685
-0.68
-0.66
-0.655
-0.655
-0.64
-0.625
-0.63
-0.61
-0.63
-0.615
-0.64
-0.635
-0.62
-0.59
-0.57
-0.545
-0.53
-0.5
-0.495
-0.495
-0.495
-0.465
-0.465
-0.455
-0.44
-0.42
-0.39
-0.38
-0.35
-0.34
-0.33
-0.325
-0.315
-0.315
-0.3
-0.285
-0.265
-0.265
-0.225
-0.22
-0.205
-0.215
-0.205
-0.2
-0.21
-0.235
-0.24
-0.26
-0.27
-0.285
-0.3
-0.305
-0.325
-0.345
-0.36
-0.41
-0.44
-0.475
-0.52
-0.56
-0.58
-0.605
-0.605
-0.64
-0.64
-0.655
-0.67
-0.695
-0.73
-0.75
-0.77
-0.8
-0.815
-0.8
-0.795
-0.79
-0.785
-0.775
-0.8
-0.795
-0.81
-0.82
-0.82
-0.83
-0.835
-0.825
-0.815
-0.81
-0.805
-0.805
-0.815
-0.825
-0.835
-0.84
-0.835
-0.845
-0.835
-0.85
-0.83
-0.825
-0.795
-0.79
-0.8
-0.8
-0.825
-0.825
-0.84
-0.825
-0.83
-0.815
-0.815
-0.805
-0.8
-0.795
-0.795
-0.795
-0.805
-0.79
-0.805
-0.815
-0.815
-0.82
-0.81
-0.805
-0.8
-0.805
-0.8
-0.81
-0.82
-0.825
-0.835
-0.845
-0.855
-0.85
-0.845
-0.825
-0.83
-0.825
-0.84
-0.84
-0.84
-0.855
-0.865
-0.865
-0.875
-0.86
-0.865
-0.85
-0.84
-0.85
-0.87
-0.89
-0.88
-0.875
-0.875
-0.87
-0.87
-0.87
-0.86
-0.88
-0.855
-0.855
-0.86
-0.865
-0.86
-0.875
-0.885
-0.89
-0.88
-0.88
-0.875
-0.89
-0.86
-0.87
-0.865
-0.86
-0.875
-0.865
-0.875
-0.895
-0.88
-0.885
-0.875
-0.87
-0.865
-0.865
-0.86
-0.865
-0.88
-0.91
-0.905
-0.89
-0.895
-0.895
-0.875
-0.875
-0.86
-0.875
-0.865
-0.87
-0.87
-0.88
-0.895
-0.895
-0.905
-0.89
-0.885
-0.89
-0.88
-0.875
-0.89
-0.875
-0.88
-0.905
-0.895
-0.9
-0.895
-0.885
-0.88
-0.865
-0.865
-0.86
-0.855
-0.86
-0.86
-0.865
-0.89
-0.895
-0.895
-0.88
-0.875
-0.87
-0.865
-0.85
-0.86
-0.86
-0.87
-0.875
-0.88
-0.885
-0.875
-0.87
-0.85
-0.87
-0.85
-0.85
-0.85
-0.85
-0.875
-0.87
-0.9
-0.9
-0.89
-0.88
-0.865
-0.85
-0.84
-0.83
-0.85
-0.835
-0.85
-0.865
-0.85
-0.86
-0.865
-0.865
-0.855
-0.855
-0.845
-0.85
-0.85
-0.85
-0.865
-0.86
-0.86
-0.87
-0.875
-0.855
-0.845
-0.85
-0.83
-0.835
-0.835
-0.82
-0.835
-0.84
-0.835
-0.84
-0.825
-0.82
-0.8
-0.775
-0.775
-0.765
-0.74
-0.74
-0.72
-0.725
-0.715
-0.695
-0.705
-0.695
-0.695
-0.695
-0.7
-0.695
-0.715
-0.72
-0.74
-0.745
-0.775
-0.795
-0.8
-0.815
-0.81
-0.81
-0.81
-0.8
-0.81
-0.83
-0.845
-0.835
-0.83
-0.84
-0.85
-0.85
-0.85
-0.85
-0.84
-0.83
-0.84
-0.85
-0.84
-0.83
-0.865
-0.85
-0.865
-0.845
-0.84
-0.835
-0.82
-0.8
-0.815
-0.805
-0.815
-0.82
-0.8
-0.755
-0.67
-0.58
-0.435
-0.31
-0.185
-0.075
-0.045
-0.055
-0.14
-0.29
-0.475
-0.69
-0.915
-1.11
-1.28
-1.4
-1.405
-1.325
-1.25
-1.145
-1.085
-1.035
-1.005
-0.96
-0.94
-0.885
-0.835
-0.795
-0.78
-0.775
-0.775
-0.795
-0.795
-0.82
-0.81
-0.82
-0.8
-0.8
-0.795
-0.78
-0.795
-0.78
-0.77
-0.765
-0.765
-0.765
-0.77
-0.795
-0.78
-0.775
-0.765
-0.745
-0.735
-0.735
-0.72
-0.73
-0.725
-0.72
-0.735
-0.75
-0.745
-0.73
-0.715
-0.715
-0.71
-0.705
-0.68
-0.69
-0.69
-0.685
-0.7
-0.67
-0.68
-0.68
-0.66
-0.635
-0.635
-0.62
-0.625
-0.61
-0.63
-0.635
-0.635
-0.62
-0.61
-0.585
-0.57
-0.555
-0.505
-0.49
-0.495
-0.49
-0.475
-0.47
-0.43
-0.425
-0.4
-0.39
-0.36
-0.34
-0.315
-0.295
-0.275
-0.265
-0.25
-0.235
-0.245
-0.23
-0.21
-0.2
-0.195
-0.18
-0.16
-0.155
-0.16
-0.165
-0.18
-0.185
-0.195
-0.205
-0.22
-0.24
-0.245
-0.265
-0.275
-0.305
-0.335
-0.355
-0.385
-0.415
-0.455
-0.525
-0.55
-0.54
-0.555
-0.59
-0.595
-0.6
-0.61
-0.64
-0.675
-0.675
-0.7
-0.72
-0.735
-0.73
-0.73
-0.73
-0.735
-0.735
-0.73
-0.74
-0.755
-0.76
-0.775
-0.79
-0.795
-0.8
-0.79
-0.79
-0.77
-0.775
-0.78
-0.765
-0.77
-0.79
-0.78
-0.79
-0.79
-0.79
-0.77
-0.77
-0.755
-0.755
-0.76
-0.77
-0.775
-0.775
-0.785
-0.795
-0.805
-0.795
-0.765
-0.765
-0.755
-0.765
-0.76
-0.75
-0.75
-0.755
-0.765
-0.785
-0.785
-0.78
-0.765
-0.755
-0.75
-0.755
-0.775
-0.78
-0.795
-0.795
-0.785
-0.805
-0.79
-0.79
-0.805
-0.79
-0.79
-0.785
-0.775
-0.775
-0.785
-0.795
-0.795
-0.815
-0.815
-0.805
-0.805
-0.805
-0.81
-0.8
-0.805
-0.79
-0.8
-0.8
-0.815
-0.815
-0.815
-0.815
-0.815
-0.82
-0.805
-0.795
-0.795
-0.795
-0.815
-0.82
-0.82
-0.84
-0.835
-0.84
-0.83
-0.83
-0.815
-0.805
-0.795
-0.81
-0.815
-0.81
-0.82
-0.82
-0.825
-0.82
-0.825
-0.81
-0.81
-0.79
-0.82
-0.8
-0.815
-0.81
-0.815
-0.825
-0.835
-0.815
-0.81
-0.805
-0.795
-0.795
-0.8
-0.805
-0.81
-0.82
-0.81
-0.825
-0.835
-0.83
-0.83
-0.82
-0.825
-0.81
-0.805
-0.825
-0.82
-0.815
-0.83
-0.81
-0.815
-0.815
-0.82
-0.815
-0.8
-0.785
-0.785
-0.785
-0.785
-0.81
-0.82
-0.82
-0.825
-0.82
-0.83
-0.82
-0.79
-0.79
-0.785
-0.79
-0.79
-0.81
-0.81
-0.81
-0.815
-0.815
-0.805
-0.795
-0.78
-0.795
-0.8
-0.79
-0.8
-0.805
-0.81
-0.805
-0.81
-0.805
-0.8
-0.79
-0.785
-0.78
-0.78
-0.78
-0.785
-0.79
-0.79
-0.785
-0.805
-0.795
-0.795
-0.78
-0.785
-0.765
-0.765
-0.745
-0.755
-0.745
-0.745
-0.74
-0.735
-0.73
-0.72
-0.72
-0.715
-0.705
-0.68
-0.66
-0.665
-0.65
-0.645
-0.67
-0.68
-0.68
-0.665
-0.67
-0.67
-0.66
-0.685
-0.695
-0.7
-0.715
-0.745
-0.76
-0.78
-0.775
-0.78
-0.765
-0.765
-0.79
-0.8
-0.785
-0.805
-0.81
-0.825
-0.825
-0.83
-0.835
-0.835
-0.815
-0.795
-0.79
-0.795
-0.785
-0.805
-0.805
-0.815
-0.82
-0.825
-0.825
-0.81
-0.8
-0.795
-0.8
-0.8
-0.78
-0.785
-0.765
-0.755
-0.71
-0.635
-0.525
-0.38
-0.235
-0.085
0.035
0.125
0.145
0.07
-0.08
-0.26
-0.525
-0.77
-1.015
-1.23
-1.345
-1.35
-1.275
-1.18
-1.085
-1.015
-0.965
-0.94
-0.91
-0.885
-0.845
-0.815
-0.77
-0.745
-0.75
-0.76
-0.775
-0.78
-0.785
-0.79
-0.79
-0.78
-0.785
-0.76
-0.745
-0.745
-0.74
-0.725
-0.72
-0.74
-0.74
-0.74
-0.74
-0.735
-0.74
-0.715
-0.705
-0.71
-0.71
-0.71
-0.7
-0.7
-0.71
-0.71
-0.7
-0.705
-0.695
-0.68
-0.685
-0.665
-0.65
-0.655
-0.65
-0.655
-0.665
-0.67
-0.665
-0.675
-0.67
-0.67
-0.65
-0.635
-0.605
-0.61
-0.62
-0.605
-0.59
-0.6
-0.6
-0.59
-0.585
-0.56
-0.545
-0.54
-0.505
-0.51
-0.495
-0.49
-0.495
-0.5
-0.46
-0.46
-0.43
-0.41
-0.39
-0.37
-0.34
-0.32
-0.305
-0.31
-0.3
-0.3
-0.295
-0.27
-0.235
-0.23
-0.21
-0.18
-0.165
-0.165
-0.155
-0.16
-0.175
-0.185
-0.18
-0.185
-0.205
-0.2
-0.195
-0.17
-0.185
-0.2
-0.23
-0.265
-0.305
-0.345
-0.37
-0.4
-0.43
-0.475
-0.48
-0.515
-0.535
-0.565
-0.585
-0.595
-0.625
-0.65
-0.68
-0.69
-0.71
-0.72
-0.725
-0.72
-0.725
-0.74
-0.745
-0.78
-0.77
-0.79
-0.81
-0.8
-0.795
-0.8
-0.785
-0.775
-0.785
-0.78
-0.8
-0.79
-0.8
-0.815
-0.805
-0.82
-0.815
-0.805
-0.8
-0.785
-0.78
-0.78
-0.785
-0.79
-0.795
-0.8
-0.795
-0.8
-0.795
-0.785
-0.795
-0.78
-0.77
-0.75
-0.76
-0.775
-0.79
-0.79
-0.79
-0.805
-0.79
-0.795
-0.79
-0.775
-0.775
-0.785
-0.785
-0.8
-0.8
-0.8
-0.805
-0.82
-0.8
-0.795
-0.785
-0.785
-0.775
-0.785
-0.785
-0.79
-0.81
-0.82
-0.825
-0.83
-0.825
-0.82
-0.815
-0.81
-0.805
-0.805
-0.795
-0.815
-0.83
-0.83
-0.84
-0.84
-0.845
-0.83
-0.835
-0.82
-0.815
-0.82
-0.815
-0.83
-0.84
-0.855
-0.865
-0.87
-0.86
-0.87
-0.85
-0.825
-0.81
-0.835
-0.82
-0.825
-0.835
-0.845
-0.855
-0.845
-0.87
-0.865
-0.84
-0.835
-0.825
-0.825
-0.825
-0.835
-0.84
-0.85
-0.86
-0.865
-0.865
-0.85
-0.845
-0.835
-0.825
-0.82
-0.82
-0.82
-0.85
-0.845
-0.86
-0.875
-0.87
-0.865
-0.855
-0.84
-0.825
-0.835
-0.83
-0.83
-0.845
-0.855
-0.855
-0.865
-0.855
-0.85
-0.84
-0.84
-0.82
-0.825
-0.83
-0.84
-0.845
-0.85
-0.87
-0.875
-0.86
-0.845
-0.84
-0.825
-0.825
-0.825
-0.825
-0.82
-0.835
-0.835
-0.845
-0.86
-0.84
-0.84
-0.835
-0.835
-0.82
-0.83
-0.84
-0.84
-0.84
-0.85
-0.835
-0.845
-0.84
-0.84
-0.825
-0.82
-0.8
-0.805
-0.8
-0.81
-0.83
-0.835
-0.835
-0.83
-0.83
-0.815
-0.825
-0.82
-0.8
-0.815
-0.805
-0.825
-0.825
-0.83
-0.82
-0.85
-0.835
-0.84
-0.82
-0.81
-0.795
-0.8
-0.81
-0.82
-0.825
-0.825
-0.825
-0.83
-0.82
-0.8
-0.8
-0.79
-0.76
-0.76
-0.745
-0.75
-0.74
-0.77
-0.77
-0.765
-0.745
-0.73
-0.72
-0.695
-0.665
-0.645
-0.64
-0.645
-0.655
-0.655
-0.66
-0.68
-0.685
-0.685
-0.69
-0.68
-0.68
-0.705
-0.74
-0.755
-0.79
-0.79
-0.81
-0.82
-0.83
-0.835
-0.815
-0.81
-0.78
-0.79
-0.82
-0.825
-0.83
-0.84
-0.84
-0.84
-0.85
-0.855
-0.825
-0.82
-0.82
-0.825
-0.825
-0.82
-0.855
-0.85
-0.85
-0.855
-0.855
-0.835
-0.81
-0.8
-0.79
-0.765
-0.73
-0.67
-0.62
-0.515
-0.4
-0.28
-0.135
-0.045
0.005
0.005
-0.085
-0.24
-0.43
-0.645
-0.885
-1.1
-1.27
-1.37
-1.37
-1.29
-1.175
-1.075
-0.995
-0.94
-0.89
-0.86
-0.85
-0.81
-0.785
-0.785
-0.78
-0.8
-0.78
-0.785
-0.775
-0.76
-0.755
-0.755
-0.75
-0.76
-0.76
-0.765
-0.755
-0.755
-0.75
-0.73
-0.73
-0.72
-0.705
-0.715
-0.72
-0.73
-0.73
-0.735
-0.745
-0.72
-0.705
-0.695
-0.68
-0.68
-0.69
-0.685
-0.695
-0.7
-0.69
-0.69
-0.705
-0.695
-0.675
-0.665
-0.655
-0.655
-0.65
-0.655
-0.67
-0.645
-0.65
-0.635
-0.62
-0.615
-0.6
-0.585
-0.575
-0.56
-0.555
-0.54
-0.555
-0.57
-0.55
-0.55
-0.53
-0.51
-0.485
-0.47
-0.445
-0.42
-0.415
-0.405
-0.385
-0.39
-0.37
-0.335
-0.325
-0.305
-0.27
-0.26
-0.215
-0.22
-0.195
-0.19
-0.185
-0.19
-0.18
-0.18
-0.165
-0.15
-0.135
-0.13
-0.125
-0.125
-0.115
-0.13
-0.155
-0.165
-0.17
-0.2
-0.22
-0.24
-0.255
-0.275
-0.29
-0.325
-0.36
-0.39
-0.43
-0.465
-0.485
-0.53
-0.545
-0.565
-0.59
-0.595
-0.61
-0.64
-0.64
-0.64
-0.67
-0.685
-0.7
-0.715
-0.73
-0.73
-0.74
-0.75
-0.73
-0.745
-0.765
-0.75
-0.76
-0.765
-0.77
-0.78
-0.77
-0.77
-0.76
-0.76
-0.745
-0.75
-0.75
-0.75
-0.77
-0.765
-0.785
-0.785
-0.79
-0.78
-0.765
-0.765
-0.74
-0.745
-0.755
-0.745
-0.74
-0.765
-0.765
-0.77
-0.78
-0.76
-0.745
-0.745
-0.74
-0.74
-0.735
-0.75
-0.745
-0.76
-0.765
-0.775
-0.775
-0.755
-0.76
-0.76
-0.75
-0.75
-0.755
-0.765
-0.76
-0.77
-0.785
-0.775
-0.785
-0.775
-0.79
-0.78
-0.78
-0.77
-0.795
-0.8
-0.81
-0.795
-0.805
-0.805
-0.815
-0.795
-0.785
-0.78
-0.765
-0.775
-0.765
-0.785
-0.785
-0.81
-0.805
-0.82
-0.825
-0.815
-0.795
-0.79
-0.8
-0.79
-0.79
-0.79
-0.795
-0.815
-0.82
-0.825
-0.845
-0.815
-0.805
-0.795
-0.78
-0.795
-0.8
-0.82
-0.83
-0.815
-0.82
-0.82
-0.825
-0.82
-0.8
-0.82
-0.795
-0.79
-0.79
-0.79
-0.81
-0.805
-0.815
-0.825
-0.82
-0.825
-0.815
-0.8
-0.8
-0.8
-0.8
-0.805
-0.82
-0.81
-0.825
-0.815
-0.83
-0.82
-0.805
-0.795
-0.795
-0.78
-0.81
-0.805
-0.82
-0.825
-0.825
-0.835
-0.83
-0.83
-0.8
-0.81
-0.8
-0.795
-0.8
-0.81
-0.82
-0.835
-0.815
-0.825
-0.825
-0.825
-0.82
-0.805
-0.79
-0.79
-0.795
-0.82
-0.825
-0.815
-0.815
-0.82
-0.815
-0.815
-0.805
-0.805
-0.785
-0.805
-0.8
-0.805
-0.8
-0.805
-0.815
-0.825
-0.83
-0.81
-0.8
-0.8
-0.79
-0.8
-0.795
-0.81
-0.815
-0.83
-0.83
-0.83
-0.82
-0.81
-0.81
-0.795
-0.79
-0.79
-0.805
-0.805
-0.815
-0.81
-0.815
-0.805
-0.815
-0.8
-0.79
-0.775
-0.75
-0.745
-0.735
-0.725
-0.725
-0.71
-0.735
-0.74
-0.745
-0.695
-0.685
-0.655
-0.645
-0.64
-0.62
-0.6
-0.625
-0.63
-0.64
-0.675
-0.69
-0.705
-0.69
-0.675
-0.665
-0.67
-0.69
-0.7
-0.72
-0.745
-0.765
-0.79
-0.785
-0.79
-0.785
-0.785
-0.77
-0.77
-0.78
-0.79
-0.81
-0.84
-0.85
-0.85
-0.845
-0.825
-0.825
-0.805
-0.805
-0.8
-0.8
-0.795
-0.82
-0.805
-0.81
-0.82
-0.815
-0.825
-0.805
-0.78
-0.765
-0.745
-0.695
-0.6
-0.515
-0.365
-0.22
-0.09
0.04
0.12
0.145
0.095
-0.045
-0.25
-0.525
-0.8
-1.07
-1.27
-1.37
-1.355
-1.265
-1.145
-1.035
-0.945
-0.88
-0.835
-0.81
-0.785
-0.765
-0.765
-0.765
-0.77
-0.8
-0.79
-0.785
-0.775
-0.765
-0.755
-0.75
-0.75
-0.745
-0.75
-0.75
-0.745
-0.735
-0.735
-0.725
-0.715
-0.72
-0.72
-0.705
-0.69
-0.705
-0.7
-0.7
-0.725
-0.725
-0.715
-0.695
-0.685
-0.675
-0.665
-0.66
-0.655
-0.675
-0.675
-0.675
-0.68
-0.68
-0.645
-0.655
-0.65
-0.625
-0.625
-0.62
-0.62
-0.61
-0.63
-0.62
-0.625
-0.62
-0.595
-0.58
-0.565
-0.545
-0.53
-0.53
-0.515
-0.52
-0.51
-0.53
-0.505
-0.5
-0.47
-0.455
-0.425
-0.405
-0.385
-0.375
-0.365
-0.355
-0.35
-0.34
-0.345
-0.32
-0.3
-0.28
-0.25
-0.22
-0.21
-0.18
-0.19
-0.19
-0.175
-0.165
-0.185
-0.18
-0.165
-0.15
-0.15
-0.14
-0.16
-0.165
-0.185
-0.205
-0.215
-0.235
-0.26
-0.28
-0.325
-0.33
-0.36
-0.37
-0.39
-0.435
-0.46
-0.49
-0.535
-0.57
-0.605
-0.615
-0.635
-0.64
-0.65
-0.65
-0.67
-0.67
-0.7
-0.705
-0.72
-0.735
-0.74
-0.75
-0.745
-0.735
-0.745
-0.745
-0.75
-0.755
-0.75
-0.765
-0.77
-0.775
-0.785
-0.785
-0.775
-0.765
-0.76
-0.74
-0.755
-0.755
-0.765
-0.765
-0.765
-0.77
-0.78
-0.79
-0.765
-0.775
-0.765
-0.775
-0.765
-0.75
-0.76
-0.77
-0.76
-0.765
-0.765
-0.775
-0.75
-0.755
-0.745
-0.735
-0.725
-0.735
-0.74
-0.745
-0.76
-0.76
-0.78
-0.775
-0.76
-0.765
-0.775
-0.755
-0.755
-0.745
-0.75
-0.77
-0.765
-0.8
-0.795
-0.795
-0.8
-0.775
-0.76
-0.765
-0.765
-0.785
-0.795
-0.795
-0.815
-0.82
-0.825
-0.825
-0.825
-0.81
-0.795
-0.785
-0.79
-0.8
-0.805
-0.81
-0.82
-0.82
-0.835
-0.835
-0.83
-0.83
-0.815
-0.815
-0.8
-0.81
-0.82
-0.825
-0.835
-0.845
-0.85
-0.85
-0.845
-0.82
-0.825
-0.81
-0.835
-0.835
-0.825
-0.83
-0.83
-0.835
-0.845
-0.84
-0.84
-0.825
-0.825
-0.805
-0.81
-0.81
-0.815
-0.825
-0.825
-0.835
-0.835
-0.84
-0.84
-0.835
-0.82
-0.815
-0.815
-0.8
-0.815
-0.82
-0.82
-0.85
-0.845
-0.845
-0.84
-0.835
-0.815
-0.815
-0.81
-0.81
-0.8
-0.805
-0.81
-0.825
-0.825
-0.815
-0.82
-0.815
-0.805
-0.805
-0.815
-0.805
-0.815
-0.815
-0.81
-0.82
-0.83
-0.82
-0.81
-0.815
-0.8
-0.795
-0.785
-0.795
-0.8
-0.815
-0.81
-0.815
-0.82
-0.815
-0.815
-0.81
-0.795
-0.785
-0.8
-0.795
-0.8
-0.79
-0.8
-0.815
-0.81
-0.81
-0.805
-0.79
-0.785
-0.78
-0.785
-0.785
-0.785
-0.8
-0.8
-0.82
-0.81
-0.81
-0.81
-0.8
-0.785
-0.775
-0.785
-0.785
-0.785
-0.78
-0.795
-0.81
-0.79
-0.795
-0.81
-0.78
-0.785
-0.77
-0.78
-0.785
-0.805
-0.79
-0.79
-0.79
-0.81
-0.79
-0.79
-0.785
-0.79
-0.785
-0.765
-0.765
-0.75
-0.755
-0.76
-0.745
-0.735
-0.725
-0.72
-0.735
-0.715
-0.715
-0.695
-0.655
-0.645
-0.635
-0.625
-0.635
-0.635
-0.63
-0.645
-0.64
-0.655
-0.64
-0.64
-0.65
-0.645
-0.675
-0.695
-0.735
-0.74
-0.765
-0.775
-0.765
-0.77
-0.75
-0.745
-0.765
-0.765
-0.79
-0.79
-0.8
-0.81
-0.82
-0.8
-0.8
-0.795
-0.785
-0.79
-0.805
-0.8
-0.805
-0.815
-0.83
-0.81
-0.805
-0.8
-0.8
-0.79
-0.775
-0.765
-0.76
-0.745
-0.725
-0.67
-0.595
-0.5
-0.365
-0.235
-0.08
0.055
0.15
0.185
0.15
0.055
-0.135
-0.355
-0.61
-0.865
-1.105
-1.255
-1.32
-1.275
-1.175
-1.075
-1.01
-0.945
-0.905
-0.88
-0.86
-0.83
-0.8
-0.77
-0.76
-0.73
-0.73
-0.72
-0.745
-0.735
-0.75
-0.745
-0.74
-0.74
-0.73
-0.72
-0.715
-0.7
-0.69
-0.685
-0.705
-0.705
-0.715
-0.705
-0.695
-0.71
-0.69
-0.685
-0.685
-0.67
-0.655
-0.665
-0.66
-0.66
-0.655
-0.645
-0.665
-0.66
-0.67
-0.665
-0.66
-0.655
-0.63
-0.625
-0.62
-0.625
-0.62
-0.625
-0.63
-0.625
-0.615
-0.6
-0.58
-0.58
-0.58
-0.57
-0.535
-0.535
-0.53
-0.535
-0.535
-0.535
-0.52
-0.52
-0.485
-0.465
-0.445
-0.43
-0.42
-0.415
-0.415
-0.395
-0.38
-0.365
-0.35
-0.325
-0.3
-0.295
-0.285
-0.26
-0.24
-0.22
-0.215
-0.2
-0.205
-0.195
-0.18
-0.16
-0.16
-0.15
-0.15
-0.12
-0.12
-0.125
-0.125
-0.125
-0.15
-0.16
-0.175
-0.195
-0.21
-0.215
-0.22
-0.245
-0.28
-0.31
-0.355
-0.375
-0.415
-0.455
-0.485
-0.49
-0.515
-0.535
-0.545
-0.55
-0.58
-0.605
-0.625
-0.645
-0.67
-0.71
-0.715
-0.715
-0.71
-0.69
-0.68
-0.7
-0.705
-0.705
-0.715
-0.72
-0.75
-0.745
-0.745
-0.735
-0.74
-0.73
-0.725
-0.74
-0.74
-0.73
-0.74
-0.735
-0.73
-0.745
-0.735
-0.74
-0.725
-0.715
-0.705
-0.71
-0.72
-0.72
-0.73
-0.725
-0.74
-0.74
-0.735
-0.74
-0.73
-0.725
-0.71
-0.705
-0.7
-0.695
-0.715
-0.71
-0.71
-0.73
-0.73
-0.72
-0.71
-0.705
-0.695
-0.68
-0.7
-0.7
-0.685
-0.71
-0.72
-0.725
-0.73
-0.735
-0.725
-0.745
-0.725
-0.72
-0.715
-0.715
-0.73
-0.745
-0.74
-0.765
-0.765
-0.775
-0.775
-0.75
-0.745
-0.755
-0.755
-0.74
-0.755
-0.78
-0.79
-0.785
-0.79
-0.795
-0.77
-0.775
-0.775
-0.76
-0.76
-0.77
-0.775
-0.76
-0.77
-0.78
-0.795
-0.795
-0.765
-0.765
-0.745
-0.75
-0.76
-0.77
-0.765
-0.78
-0.795
-0.8
-0.78
-0.78
-0.78
-0.77
-0.77
-0.75
-0.74
-0.765
-0.785
-0.78
-0.785
-0.78
-0.785
-0.8
-0.8
-0.795
-0.78
-0.775
-0.775
-0.77
-0.77
-0.775
-0.78
-0.775
-0.79
-0.79
-0.77
-0.77
-0.755
-0.755
-0.76
-0.755
-0.775
-0.775
-0.795
-0.785
-0.78
-0.795
-0.77
-0.77
-0.75
-0.73
-0.75
-0.75
-0.75
-0.76
-0.77
-0.77
-0.78
-0.765
-0.785
-0.775
-0.78
-0.75
-0.76
-0.755
-0.775
-0.765
-0.785
-0.79
-0.79
-0.79
-0.775
-0.775
-0.765
-0.755
-0.755
-0.755
-0.76
-0.78
-0.775
-0.79
-0.79
-0.785
-0.795
-0.785
-0.77
-0.755
-0.8
-0.78
-0.765
-0.77
-0.795
-0.775
-0.8
-0.775
-0.79
-0.76
-0.76
-0.755
-0.745
-0.75
-0.76
-0.765
-0.775
-0.79
-0.78
-0.785
-0.775
-0.76
-0.74
-0.725
-0.715
-0.71
-0.705
-0.705
-0.7
-0.715
-0.7
-0.69
-0.685
-0.65
-0.63
-0.615
-0.585
-0.62
-0.62
-0.605
-0.62
-0.64
-0.65
-0.67
-0.65
-0.66
-0.635
-0.64
-0.655
-0.685
-0.705
-0.73
-0.74
-0.765
-0.77
-0.775
-0.755
-0.755
-0.765
-0.76
-0.755
-0.765
-0.785
-0.79
-0.81
-0.8
-0.805
-0.8
-0.78
-0.795
-0.775
-0.765
-0.755
-0.765
-0.775
-0.795
-0.81
-0.805
-0.805
-0.805
-0.79
-0.78
-0.785
-0.745
-0.745
-0.735
-0.72
-0.655
-0.58
-0.47
-0.345
-0.215
-0.07
0.02
0.06
0.025
-0.095
-0.275
-0.5
-0.75
-1.005
-1.235
-1.365
-1.405
-1.34
-1.23
-1.115
-1.03
-0.955
-0.92
-0.895
-0.88
-0.86
-0.795
-0.785
-0.77
-0.77
-0.76
-0.76
-0.77
-0.77
-0.77
-0.76
-0.76
-0.75
-0.75
-0.74
-0.735
-0.715
-0.715
-0.7
-0.69
-0.685
-0.69
-0.695
-0.705
-0.71
-0.715
-0.705
-0.695
-0.705
-0.71
-0.695
-0.7
-0.685
-0.665
-0.685
-0.69
-0.675
-0.675
-0.68
-0.655
-0.65
-0.645
-0.64
-0.63
-0.62
-0.62
-0.63
-0.635
-0.64
-0.63
-0.625
-0.615
-0.605
-0.59
-0.575
-0.57
-0.565
-0.56
-0.55
-0.55
-0.54
-0.545
-0.525
-0.51
-0.5
-0.475
-0.455
-0.43
-0.42
-0.41
-0.43
-0.42
-0.4
-0.39
-0.37
-0.325
-0.315
-0.3
-0.265
-0.255
-0.24
-0.23
-0.235
-0.215
-0.22
-0.225
-0.2
-0.19
-0.175
-0.165
-0.15
-0.15
-0.145
-0.15
-0.165
-0.185
-0.175
-0.195
-0.205
-0.215
-0.23
-0.23
-0.26
-0.275
-0.31
-0.34
-0.365
-0.405
-0.425
-0.47
-0.5
-0.52
-0.54
-0.55
-0.57
-0.585
-0.6
-0.61
-0.65
-0.67
-0.69
-0.715
-0.73
-0.725
-0.72
-0.715
-0.715
-0.73
-0.73
-0.73
-0.74
-0.755
-0.765
-0.775
-0.77
-0.76
-0.765
-0.765
-0.735
-0.73
-0.74
-0.74
-0.75
-0.755
-0.77
-0.775
-0.775
-0.775
-0.76
-0.77
-0.75
-0.745
-0.765
-0.75
-0.755
-0.75
-0.755
-0.76
-0.79
-0.77
-0.755
-0.745
-0.735
-0.725
-0.74
-0.74
-0.73
-0.745
-0.745
-0.77
-0.785
-0.775
-0.74
-0.73
-0.73
-0.735
-0.74
-0.725
-0.745
-0.75
-0.77
-0.76
-0.77
-0.76
-0.76
-0.755
-0.755
-0.76
-0.765
-0.755
-0.77
-0.765
-0.785
-0.795
-0.805
-0.82
-0.81
-0.79
-0.785
-0.775
-0.785
-0.8
-0.81
-0.83
-0.83
-0.82
-0.825
-0.825
-0.8
-0.81
-0.81
-0.805
-0.805
-0.79
-0.81
-0.815
-0.84
-0.835
-0.84
-0.84
-0.82
-0.82
-0.81
-0.8
-0.81
-0.83
-0.835
-0.845
-0.835
-0.84
-0.84
-0.84
-0.83
-0.82
-0.815
-0.825
-0.825
-0.83
-0.84
-0.855
-0.85
-0.85
-0.85
-0.82
-0.825
-0.81
-0.795
-0.8
-0.795
-0.81
-0.81
-0.825
-0.83
-0.84
-0.845
-0.84
-0.845
-0.82
-0.82
-0.81
-0.81
-0.815
-0.815
-0.82
-0.825
-0.825
-0.83
-0.835
-0.835
-0.825
-0.82
-0.82
-0.815
-0.825
-0.83
-0.825
-0.86
-0.855
-0.875
-0.855
-0.83
-0.82
-0.815
-0.815
-0.81
-0.815
-0.81
-0.835
-0.85
-0.835
-0.83
-0.83
-0.83
-0.81
-0.805
-0.815
-0.79
-0.8
-0.83
-0.83
-0.835
-0.825
-0.84
-0.83
-0.815
-0.8
-0.8
-0.785
-0.785
-0.795
-0.8
-0.795
-0.815
-0.83
-0.835
-0.835
-0.815
-0.81
-0.81
-0.795
-0.79
-0.815
-0.82
-0.825
-0.835
-0.845
-0.83
-0.83
-0.81
-0.805
-0.8
-0.785
-0.795
-0.79
-0.815
-0.815
-0.825
-0.84
-0.825
-0.805
-0.8
-0.78
-0.76
-0.755
-0.73
-0.73
-0.73
-0.74
-0.74
-0.74
-0.73
-0.705
-0.665
-0.645
-0.635
-0.635
-0.62
-0.635
-0.66
-0.685
-0.705
-0.7
-0.715
-0.715
-0.72
-0.725
-0.745
-0.74
-0.75
-0.755
-0.76
-0.795
-0.83
-0.815
-0.82
-0.835
-0.82
-0.82
-0.825
-0.815
-0.845
-0.84
-0.84
-0.86
-0.87
-0.87
-0.85
-0.845
-0.845
-0.835
-0.815
-0.815
-0.805
-0.815
-0.82
-0.83
-0.83
-0.85
-0.845
-0.84
-0.83
-0.825
-0.825
-0.795
-0.735
-0.665
-0.575
-0.46
-0.345
-0.18
-0.045
0.075
0.14
0.12
0.02
-0.145
-0.375
-0.64
-0.93
-1.18
-1.32
-1.365
-1.315
-1.22
-1.095
-1.0
-0.935
-0.88
-0.845
-0.81
-0.805
-0.79
-0.795
-0.805
