Lead II
-0.04
0.005
0.04
0.07
0.105
0.155
0.23
0.31
0.42
0.54
0.69
0.875
1.085
1.285
1.46
1.595
1.74
1.955
2.23
2.44
2.52
2.485
2.29
1.875
1.305
0.81
0.505
0.305
0.155
0.065
0.005
-0.025
-0.01
0.0
-0.05
-0.145
-0.175
-0.15
-0.1
-0.125
-0.175
-0.185
-0.175
-0.165
-0.195
-0.2
-0.205
-0.18
-0.155
-0.145
-0.16
-0.205
-0.2
-0.17
-0.19
-0.245
-0.3
-0.31
-0.28
-0.255
-0.245
-0.26
-0.255
-0.28
-0.26
-0.245
-0.255
-0.245
-0.245
-0.26
-0.285
-0.3
-0.315
-0.295
-0.235
-0.22
-0.255
-0.3
-0.33
-0.325
-0.285
-0.255
-0.215
-0.22
-0.25
-0.29
-0.295
-0.31
-0.3
-0.27
-0.265
-0.29
-0.315
-0.33
-0.325
-0.31
-0.29
-0.275
-0.295
-0.295
-0.305
-0.29
-0.275
-0.27
-0.255
-0.23
-0.225
-0.225
-0.215
-0.215
-0.21
-0.19
-0.16
-0.13
-0.1
-0.11
-0.13
-0.145
-0.155
-0.12
-0.07
-0.02
0.015
0.02
0.045
0.06
0.08
0.14
0.165
0.175
0.145
0.115
0.09
0.105
0.11
0.065
0.005
0.0
0.07
0.145
0.175
0.135
0.08
0.035
0.025
0.045
0.035
0.03
0.02
0.03
0.02
0.02
0.025
0.025
0.035
0.03
0.035
0.05
0.045
0.03
0.015
0.005
0.035
0.065
0.1
0.09
0.05
0.015
-0.03
-0.035
0.0
0.03
0.035
0.015
0.01
0.02
0.035
0.04
0.045
0.065
0.055
0.02
-0.015
-0.04
-0.035
-0.005
0.04
0.07
0.03
0.0
-0.005
-0.005
-0.005
-0.025
-0.06
-0.05
-0.015
-0.01
0.01
0.025
0.035
0.005
0.005
0.0
0.02
0.04
0.05
0.06
0.055
0.04
0.01
-0.01
-0.015
0.01
0.025
0.045
0.03
0.03
0.045
0.04
0.04
-0.015
-0.065
-0.04
0.02
0.055
0.035
0.035
0.035
0.035
0.05
0.055
0.04
0.005
0.005
0.015
0.055
0.065
0.055
0.04
0.045
0.065
0.08
0.07
0.035
0.025
0.02
0.03
0.045
0.06
0.05
0.04
0.055
0.09
0.085
0.05
0.005
-0.005
0.01
0.01
0.035
0.055
0.06
0.055
0.03
0.005
0.025
0.065
0.065
0.005
0.01
0.045
0.08
0.085
0.07
0.06
0.06
0.075
0.08
0.075
0.08
0.09
0.1
0.11
0.095
0.08
0.05
0.02
0.015
0.015
0.03
0.04
0.035
0.04
0.06
0.065
0.07
0.09
0.095
0.085
0.09
0.085
0.08
0.06
0.055
0.05
0.07
0.09
0.1
0.08
0.07
0.075
0.09
0.145
0.135
0.095
0.03
0.005
0.035
0.075
0.09
0.065
0.06
0.075
0.09
0.085
0.095
0.09
0.105
0.145
0.185
0.16
0.065
-0.005
-0.03
0.045
0.13
0.165
0.195
0.22
0.27
0.35
0.42
0.505
0.615
0.76
0.91
1.02
1.16
1.305
1.425
1.58
1.76
1.965
2.16
2.2
2.05
1.69
1.19
0.72
0.39
0.22
0.125
0.075
0.07
0.04
0.045
0.03
0.05
0.07
0.065
0.035
0.03
0.035
0.035
-0.005
-0.03
-0.025
-0.005
0.03
0.03
0.02
-0.005
-0.025
-0.02
-0.01
-0.025
0.0
0.0
0.03
0.045
0.07
0.075
0.045
0.005
0.01
0.03
0.055
0.065
0.065
0.03
0.03
0.025
0.015
-0.005
-0.015
-0.015
0.015
0.03
0.025
0.01
-0.005
-0.005
0.0
0.01
0.0
0.0
-0.015
-0.02
0.01
0.04
0.045
0.035
0.02
0.005
0.025
0.05
0.045
0.01
-0.045
-0.02
0.04
0.09
0.085
0.04
-0.005
-0.015
0.01
0.025
0.05
0.06
0.055
0.035
0.065
0.095
0.11
0.095
0.065
0.04
0.065
0.085
0.11
0.115
0.115
0.12
0.125
0.165
0.2
0.195
0.165
0.165
0.185
0.23
0.26
0.26
0.245
0.265
0.28
0.315
0.335
0.335
0.33
0.33
0.34
0.35
0.355
0.36
0.335
0.305
0.295
0.325
0.35
0.345
0.315
0.295
0.295
0.295
0.3
0.305
0.295
0.23
0.18
0.16
0.2
0.195
0.2
0.205
0.21
0.21
0.195
0.19
0.19
0.18
0.18
0.205
0.21
0.205
0.175
0.14
0.145
0.145
0.17
0.175
0.18
0.16
0.155
0.14
0.15
0.16
0.14
0.13
0.135
0.17
0.175
0.18
0.16
0.135
0.125
0.12
0.125
0.145
0.145
0.13
0.12
0.14
0.155
0.165
0.16
0.135
0.12
0.11
0.105
0.135
0.13
0.12
0.1
0.1
0.1
0.11
0.105
0.1
0.075
0.075
0.09
0.08
0.09
0.09
0.09
0.095
0.105
0.125
0.105
0.095
0.075
0.055
0.045
0.06
0.08
0.095
0.1
0.07
0.06
0.06
0.055
0.04
0.015
0.04
0.09
0.125
0.13
0.11
0.08
0.07
0.085
0.115
0.13
0.125
0.105
0.035
-0.01
-0.025
-0.005
0.055
0.08
0.08
0.05
0.045
0.055
0.055
0.065
0.09
0.115
0.105
0.115
0.085
0.095
0.085
0.05
0.02
0.045
0.105
0.15
0.18
0.16
0.155
0.15
0.145
0.14
0.135
0.12
0.075
0.035
0.035
0.065
0.105
0.105
0.12
0.11
0.095
0.08
0.075
0.075
0.105
0.13
0.14
0.155
0.165
0.165
0.125
0.07
0.045
0.065
0.09
0.095
0.07
0.04
0.035
0.045
0.06
0.06
0.05
0.025
0.035
0.045
0.085
0.125
0.125
0.095
0.045
0.035
0.04
0.065
0.075
0.08
0.09
0.085
0.09
0.085
0.09
0.07
0.05
0.04
0.045
0.07
0.1
0.125
0.14
0.14
0.17
0.195
0.24
0.26
0.285
0.33
0.38
0.44
0.525
0.64
0.785
0.885
0.95
1.015
1.09
1.185
1.265
1.405
1.58
1.77
1.895
1.905
1.795
1.53
1.15
0.73
0.42
0.205
0.09
0.01
0.01
0.045
0.06
0.055
0.04
0.04
0.025
0.015
0.015
-0.025
-0.065
-0.075
-0.075
-0.05
-0.03
-0.045
-0.065
-0.085
-0.08
-0.065
-0.05
-0.055
-0.065
-0.105
-0.1
-0.1
-0.095
-0.09
-0.095
-0.08
-0.085
-0.075
-0.08
-0.08
-0.095
-0.105
-0.09
-0.08
-0.1
-0.145
-0.175
-0.195
-0.175
-0.14
-0.12
-0.13
-0.16
-0.17
-0.175
-0.145
-0.145
-0.145
-0.165
-0.17
-0.16
-0.145
-0.145
-0.15
-0.13
-0.115
-0.09
-0.1
-0.125
-0.18
-0.215
-0.195
-0.165
-0.145
-0.17
-0.195
-0.22
-0.245
-0.23
-0.19
-0.165
-0.155
-0.17
-0.2
-0.2
-0.19
-0.16
-0.16
-0.175
-0.175
-0.17
-0.145
-0.125
-0.145
-0.15
-0.145
-0.1
-0.09
-0.075
-0.07
-0.08
-0.09
-0.065
-0.03
0.015
0.015
-0.005
-0.01
0.03
0.055
0.07
0.09
0.085
0.11
0.135
0.155
0.155
0.14
0.12
0.095
0.095
0.1
0.115
0.115
0.105
0.095
0.085
0.075
0.07
0.065
0.055
0.045
0.06
0.075
0.075
0.06
0.04
0.035
0.02
0.04
0.05
0.06
0.06
0.04
0.025
0.0
0.0
0.025
0.015
0.01
0.015
0.03
0.06
0.065
0.05
0.035
0.025
0.02
0.025
-0.005
-0.03
-0.035
-0.01
0.02
0.05
0.05
0.045
0.015
0.045
0.07
0.02
-0.03
-0.055
-0.035
-0.005
0.025
0.03
0.05
0.045
0.005
-0.005
0.01
0.03
0.015
-0.01
0.005
0.04
0.055
0.03
0.005
-0.01
-0.005
0.0
0.0
-0.02
-0.02
-0.005
0.01
-0.01
-0.03
-0.045
-0.03
-0.005
0.025
0.01
-0.01
-0.035
-0.045
-0.045
-0.015
0.0
0.025
0.025
0.0
-0.035
-0.05
-0.05
-0.045
-0.01
0.02
0.015
0.005
-0.015
-0.025
-0.03
-0.02
-0.01
0.01
0.02
0.045
0.045
0.04
0.015
0.01
-0.005
-0.005
0.005
-0.01
-0.03
-0.035
-0.015
0.0
0.005
0.0
-0.02
-0.025
-0.01
0.005
0.01
0.025
0.03
0.015
-0.01
-0.005
0.0
0.02
0.03
0.025
0.04
0.06
0.07
0.045
0.025
0.03
0.035
0.035
0.04
0.035
0.035
0.055
0.05
0.04
0.055
0.045
0.06
0.07
0.07
0.065
0.08
0.11
0.1
0.105
0.1
0.1
0.095
0.085
0.06
0.085
0.105
0.12
0.12
0.1
0.1
0.105
0.095
0.11
0.1
0.095
0.08
0.065
0.065
0.085
0.105
0.12
0.125
0.115
0.12
0.1
0.1
0.065
0.06
0.065
0.08
0.1
0.095
0.05
0.03
0.045
0.085
0.115
0.09
0.065
0.04
0.025
0.03
0.05
0.07
0.08
0.08
0.065
0.07
0.065
0.045
0.025
0.025
0.055
0.13
0.16
0.14
0.13
0.125
0.135
0.175
0.27
0.35
0.42
0.46
0.5
0.605
0.77
0.93
1.115
1.3
1.45
1.615
1.805
2.05
2.295
2.425
2.425
2.24
1.855
1.295
0.755
0.405
0.235
0.175
0.17
0.155
0.12
0.125
0.115
0.14
0.145
0.105
0.04
-0.05
-0.07
-0.05
-0.005
-0.01
-0.01
-0.035
-0.05
-0.065
-0.055
-0.055
-0.06
-0.07
-0.05
-0.025
-0.035
-0.06
-0.085
-0.08
-0.07
-0.065
-0.055
-0.05
-0.04
-0.045
-0.065
-0.07
-0.06
-0.08
-0.11
-0.14
-0.11
-0.06
-0.05
-0.075
-0.105
-0.115
-0.105
-0.08
-0.075
-0.075
-0.105
-0.11
-0.1
-0.06
-0.06
-0.085
-0.12
-0.145
-0.12
-0.09
-0.055
-0.045
-0.04
-0.06
-0.075
-0.075
-0.06
-0.06
-0.07
-0.085
-0.08
-0.075
-0.08
-0.085
-0.075
-0.03
-0.01
-0.02
-0.04
-0.02
-0.005
-0.015
-0.01
-0.005
0.01
0.02
0.045
0.075
0.125
0.145
0.125
0.11
0.13
0.135
0.155
0.2
0.225
0.26
0.28
0.27
0.27
0.29
0.28
0.27
0.26
0.25
0.235
0.235
0.225
0.2
0.18
0.195
0.23
0.25
0.245
0.205
0.17
0.155
0.13
0.14
0.12
0.14
0.155
0.16
0.17
0.16
0.145
0.115
0.09
0.065
0.085
0.1
0.105
0.115
0.11
0.11
0.1
0.1
0.11
0.13
0.115
0.11
0.09
0.1
0.1
0.09
0.07
0.04
0.04
0.065
0.11
0.115
0.11
0.09
0.1
0.1
0.115
0.08
0.04
0.025
0.055
0.085
0.09
0.03
-0.005
0.005
0.04
0.09
0.11
0.115
0.07
0.05
0.07
0.105
0.095
0.065
0.025
0.03
0.06
0.08
0.095
0.105
0.1
0.075
0.055
0.055
0.05
0.03
0.04
0.055
0.08
0.105
0.11
0.095
0.075
0.065
0.05
0.06
0.07
0.06
0.04
0.045
0.055
0.08
0.115
0.105
0.09
0.065
0.055
0.06
0.06
0.09
0.1
0.105
0.085
0.085
0.075
0.035
0.045
0.025
0.035
0.06
0.065
0.075
0.065
0.045
0.035
0.04
0.055
0.07
0.075
0.045
0.015
0.01
0.035
0.055
0.08
0.075
0.075
0.045
0.05
0.04
0.045
0.04
0.045
0.06
0.065
0.07
0.06
0.055
0.055
0.055
0.05
0.045
0.05
0.07
0.07
0.065
0.06
0.1
0.095
0.085
0.085
0.11
0.11
0.11
0.105
0.105
0.09
0.095
0.12
0.11
0.045
0.0
0.0
0.05
0.08
0.085
0.075
0.025
0.01
0.03
0.075
0.06
0.065
0.07
0.06
0.06
0.055
0.045
0.025
0.025
0.04
0.035
0.04
0.03
0.035
0.01
0.0
0.015
0.035
0.02
0.02
0.005
0.02
0.04
0.07
0.06
0.04
0.03
0.035
0.05
0.06
0.075
0.055
0.035
0.035
0.05
0.07
0.09
0.12
0.155
0.23
0.315
0.385
0.44
0.525
0.635
0.81
0.985
1.165
1.295
1.44
1.595
1.8
2.045
2.225
2.23
2.025
1.58
0.99
0.515
0.24
0.105
0.07
0.045
0.03
0.06
0.06
0.07
0.06
0.035
0.0
-0.035
-0.065
-0.075
-0.07
-0.07
-0.065
-0.045
-0.025
-0.03
-0.06
-0.085
-0.07
-0.05
-0.03
-0.055
-0.085
-0.09
-0.085
-0.05
-0.045
-0.055
-0.06
-0.075
-0.075
-0.085
-0.09
-0.08
-0.075
-0.085
-0.085
-0.09
-0.085
-0.095
-0.115
-0.125
-0.13
-0.105
-0.05
-0.01
-0.02
-0.04
-0.05
-0.035
-0.02
-0.055
-0.125
-0.16
-0.135
-0.1
-0.05
-0.04
-0.035
-0.045
-0.06
-0.045
-0.04
-0.02
-0.03
-0.04
-0.04
-0.04
-0.015
-0.025
-0.045
-0.04
-0.03
0.005
0.04
0.04
0.02
0.015
0.035
0.07
0.085
0.095
0.095
0.115
0.115
0.125
0.135
0.15
0.19
0.205
0.23
0.24
0.265
0.28
0.28
0.275
0.265
0.285
0.295
0.285
0.27
0.255
0.255
0.255
0.27
0.275
0.26
0.23
0.22
0.215
0.205
0.165
0.145
0.125
0.135
0.165
0.175
0.165
0.145
0.1
0.09
0.1
0.12
0.12
0.1
0.08
0.095
0.095
0.085
0.08
0.08
0.1
0.125
0.135
0.155
0.14
0.1
0.04
0.01
0.02
0.085
0.095
0.095
0.06
0.025
0.045
0.085
0.09
0.07
0.03
-0.005
0.005
0.03
0.04
0.055
0.05
0.05
0.045
0.045
0.025
0.015
0.015
0.005
-0.005
0.015
0.015
0.035
0.03
0.04
0.02
0.045
0.03
-0.005
-0.01
-0.01
0.0
0.02
0.015
0.015
0.01
0.03
0.055
0.065
0.035
0.02
0.015
0.025
0.025
0.02
-0.005
0.005
0.01
0.035
0.05
0.055
0.03
0.005
-0.015
0.015
0.04
0.055
0.04
0.04
0.01
0.01
0.005
0.02
0.025
0.025
0.005
-0.01
-0.01
0.0
-0.005
-0.005
-0.005
-0.01
-0.01
0.015
0.035
0.015
-0.01
-0.035
-0.02
-0.015
0.0
-0.005
0.0
0.0
0.0
-0.005
-0.04
-0.05
-0.045
0.0
0.035
0.04
0.04
0.04
0.025
0.005
0.0
0.005
0.02
0.04
0.045
0.05
0.055
0.05
0.03
0.015
-0.005
-0.01
0.01
0.04
0.04
0.025
0.0
0.0
0.0
0.03
0.06
0.075
0.065
0.04
0.03
0.03
0.02
0.01
-0.01
-0.005
-0.005
-0.015
-0.02
-0.015
-0.01
0.0
0.0
0.0
-0.02
-0.025
-0.04
-0.06
-0.05
-0.04
-0.02
-0.015
-0.01
-0.005
-0.005
-0.005
-0.025
-0.025
-0.045
-0.025
-0.01
-0.005
0.0
-0.005
-0.035
-0.03
0.0
0.07
0.095
0.105
0.14
0.185
0.26
0.315
0.365
0.45
0.57
0.715
0.865
1.01
1.1
1.165
1.225
1.37
1.615
1.82
1.945
1.93
1.765
1.435
0.98
0.575
0.28
0.12
0.025
0.01
0.03
0.03
-0.015
-0.04
-0.075
-0.08
-0.075
-0.075
-0.1
-0.135
-0.175
-0.165
-0.15
-0.12
-0.12
-0.125
-0.16
-0.17
-0.17
-0.16
-0.15
-0.15
-0.15
-0.13
-0.125
-0.13
-0.155
-0.185
-0.19
-0.18
-0.18
-0.165
-0.15
-0.145
-0.15
-0.135
-0.145
-0.16
-0.185
-0.195
-0.2
-0.19
-0.18
-0.175
-0.17
-0.165
-0.175
-0.16
-0.16
-0.17
-0.185
-0.205
-0.22
-0.22
-0.2
-0.185
-0.165
-0.16
-0.155
-0.16
-0.15
-0.145
-0.155
-0.17
-0.18
-0.175
-0.16
-0.125
-0.13
-0.125
-0.16
-0.17
-0.17
-0.15
-0.16
-0.17
-0.195
-0.17
-0.16
-0.135
-0.13
-0.14
-0.15
-0.14
-0.125
-0.095
-0.075
-0.08
-0.08
-0.1
-0.085
-0.06
-0.035
-0.035
-0.04
-0.02
0.005
0.025
0.03
0.035
0.05
0.085
0.1
0.1
0.095
0.07
0.045
0.05
0.075
0.09
0.08
0.065
0.06
0.045
0.055
0.045
0.04
0.02
0.005
-0.02
-0.02
-0.005
-0.005
-0.01
-0.015
-0.02
0.0
0.01
0.0
-0.03
-0.045
-0.025
-0.025
-0.02
-0.025
-0.03
-0.06
-0.07
-0.06
-0.03
-0.015
-0.02
-0.04
-0.055
-0.04
-0.05
-0.04
-0.065
-0.065
-0.055
-0.065
-0.08
-0.08
-0.07
-0.065
-0.055
-0.055
-0.065
-0.07
-0.06
-0.05
-0.04
-0.04
-0.035
-0.055
-0.07
-0.095
-0.09
-0.06
-0.05
-0.04
-0.05
-0.06
-0.055
-0.035
-0.03
-0.055
-0.07
-0.085
-0.07
-0.06
-0.055
-0.05
-0.04
-0.06
-0.08
-0.095
-0.07
-0.045
-0.05
-0.06
-0.07
-0.06
-0.09
-0.105
-0.1
-0.105
-0.08
-0.075
-0.065
-0.075
-0.055
-0.055
-0.06
-0.085
-0.09
-0.095
-0.09
-0.09
-0.085
-0.055
-0.045
-0.065
-0.085
-0.12
-0.11
-0.08
-0.05
-0.05
-0.06
-0.075
-0.06
-0.055
-0.045
-0.075
-0.085
-0.085
-0.065
-0.045
-0.04
-0.04
-0.055
-0.07
-0.065
-0.06
-0.03
-0.03
-0.025
-0.04
-0.04
-0.035
-0.01
0.005
-0.005
-0.025
-0.045
-0.05
-0.01
0.015
0.0
-0.04
-0.04
-0.025
0.0
0.005
0.0
0.0
0.01
0.01
0.01
-0.01
-0.035
-0.035
-0.03
-0.005
0.025
0.01
0.0
-0.025
-0.025
-0.025
-0.015
-0.005
-0.015
-0.02
-0.025
-0.015
0.005
-0.01
-0.035
-0.05
-0.045
-0.025
-0.02
-0.02
-0.03
-0.05
-0.04
-0.025
-0.01
-0.02
-0.025
-0.02
-0.01
-0.025
-0.045
-0.055
-0.06
-0.055
-0.05
-0.05
-0.03
-0.03
-0.035
-0.025
-0.015
-0.005
0.015
0.035
0.055
0.09
0.15
0.235
0.305
0.34
0.4
0.52
0.685
0.87
1.015
1.155
1.285
1.415
1.64
1.895
2.095
2.18
2.1
1.855
1.415
0.925
0.52
0.255
0.09
0.0
-0.03
-0.015
0.005
0.005
-0.005
-0.02
-0.01
-0.025
-0.04
-0.065
-0.12
-0.135
-0.13
-0.11
-0.1
-0.12
-0.16
-0.175
-0.15
-0.12
-0.11
-0.13
-0.15
-0.175
-0.15
-0.135
-0.135
-0.17
-0.19
-0.2
-0.165
-0.16
-0.155
-0.145
-0.165
-0.165
-0.185
-0.19
-0.18
-0.19
-0.205
-0.21
-0.195
-0.17
-0.165
-0.17
-0.19
-0.215
-0.195
-0.2
-0.16
-0.15
-0.165
-0.18
-0.16
-0.175
-0.18
-0.17
-0.17
-0.17
-0.155
-0.15
-0.155
-0.185
-0.185
-0.17
-0.14
-0.13
-0.11
-0.12
-0.135
-0.145
-0.135
-0.12
-0.085
-0.075
-0.07
-0.085
-0.075
-0.045
-0.02
-0.005
0.005
-0.005
0.01
0.04
0.055
0.06
0.075
0.085
0.11
0.135
0.16
0.185
0.185
0.155
0.175
0.195
0.22
0.2
0.195
0.18
0.17
0.155
0.14
0.125
0.125
0.11
0.095
0.065
0.055
0.055
0.04
0.045
0.04
0.065
0.06
0.045
0.015
0.005
0.035
0.035
0.04
0.03
0.025
0.03
0.03
0.045
0.045
0.03
0.005
-0.01
-0.01
-0.015
0.005
0.005
0.015
0.005
0.005
0.005
-0.005
-0.01
-0.015
-0.02
-0.01
0.0
0.01
-0.01
-0.035
-0.035
-0.035
-0.02
0.0
0.01
0.005
-0.005
-0.02
-0.015
-0.005
-0.005
0.005
-0.005
0.01
0.03
0.02
-0.005
-0.02
-0.015
0.01
0.025
0.035
0.03
0.0
0.005
0.015
0.04
0.055
0.035
0.01
0.005
0.0
0.01
0.02
0.005
0.015
0.015
0.02
0.03
0.025
0.0
-0.025
-0.025
-0.01
0.005
0.01
0.005
0.01
0.015
0.015
0.005
0.01
0.025
0.01
0.01
0.0
0.0
-0.005
-0.005
-0.005
0.0
0.01
0.015
0.025
0.015
0.005
0.01
0.025
0.025
0.035
0.045
0.035
0.01
0.0
0.02
0.03
0.015
-0.005
0.005
0.005
0.03
0.04
0.035
0.035
0.03
0.035
0.05
0.06
0.055
0.045
0.035
0.055
0.075
0.085
0.07
0.075
0.07
0.055
0.075
0.075
0.045
0.035
0.04
0.05
0.055
0.065
0.045
0.04
0.045
0.06
0.075
0.075
0.06
0.025
-0.005
0.005
0.025
0.025
0.025
0.015
0.015
0.015
0.03
0.025
0.005
-0.01
0.0
0.01
0.025
0.035
0.02
0.01
0.005
-0.015
0.0
0.02
0.0
-0.005
-0.005
0.01
0.035
0.03
0.03
0.015
0.025
0.035
0.05
0.07
0.105
0.145
0.19
0.245
0.31
0.385
0.445
0.555
0.67
0.85
1.005
1.125
1.225
1.33
1.47
1.705
1.935
2.05
1.98
1.75
1.33
0.83
0.425
0.205
0.09
0.025
-0.02
-0.025
-0.015
0.0
-0.01
-0.045
-0.075
-0.075
-0.07
-0.055
-0.065
-0.08
-0.095
-0.11
-0.09
-0.08
-0.095
-0.1
-0.12
-0.115
-0.1
-0.09
-0.105
-0.125
-0.135
-0.12
-0.115
-0.095
-0.13
-0.155
-0.17
-0.18
-0.155
-0.125
-0.125
-0.15
-0.175
-0.17
-0.15
-0.14
-0.155
-0.145
-0.14
-0.135
-0.125
-0.135
-0.155
-0.16
-0.175
-0.145
-0.13
-0.105
-0.125
-0.14
-0.175
-0.16
-0.125
-0.095
-0.095
-0.11
-0.125
-0.115
-0.105
-0.07
-0.085
-0.095
-0.1
-0.075
-0.045
-0.02
-0.015
-0.035
-0.04
-0.015
0.0
0.01
0.015
0.025
0.035
0.055
0.07
0.085
0.105
0.11
0.105
0.115
0.13
0.15
0.155
0.155
0.155
0.18
0.19
0.195
0.16
0.135
0.105
0.085
0.115
0.13
0.12
0.07
0.035
0.015
0.03
0.06
0.04
0.035
0.01
0.005
0.02
0.03
0.015
0.01
0.015
-0.005
0.0
0.01
-0.02
-0.025
-0.015
-0.01
0.0
0.015
0.005
-0.015
-0.02
-0.015
-0.005
0.0
0.0
-0.025
-0.04
-0.045
-0.03
-0.03
-0.05
-0.06
-0.07
-0.075
-0.065
-0.06
-0.065
-0.1
-0.105
-0.1
-0.08
-0.06
-0.06
-0.065
-0.045
-0.045
-0.06
-0.035
-0.065
-0.08
-0.09
-0.085
-0.085
-0.065
-0.07
-0.075
-0.08
-0.085
-0.06
-0.065
-0.075
-0.08
-0.095
-0.09
-0.065
-0.06
-0.06
-0.075
-0.08
-0.075
-0.075
-0.06
-0.07
-0.085
-0.08
-0.09
-0.07
-0.07
-0.085
-0.1
-0.125
-0.115
-0.11
-0.1
-0.075
-0.09
-0.08
-0.08
-0.08
-0.07
-0.085
-0.11
-0.125
-0.12
-0.125
-0.135
-0.125
-0.125
-0.14
-0.145
-0.14
-0.1
-0.1
-0.115
-0.14
-0.14
-0.11
-0.09
-0.13
-0.175
-0.195
-0.175
-0.145
-0.11
-0.125
-0.15
-0.145
-0.145
-0.12
-0.095
-0.1
-0.13
-0.13
-0.14
-0.125
-0.115
-0.135
-0.16
-0.15
-0.145
-0.11
-0.11
-0.13
-0.14
-0.13
-0.1
-0.09
-0.085
-0.085
-0.1
-0.12
-0.12
-0.135
-0.12
-0.11
-0.095
-0.07
-0.06
-0.035
-0.025
-0.05
-0.085
-0.115
-0.12
-0.1
-0.06
-0.075
-0.105
-0.14
-0.16
-0.145
-0.11
-0.09
-0.1
-0.09
-0.1
-0.08
-0.09
-0.11
-0.125
-0.11
-0.115
-0.125
-0.135
-0.145
-0.145
-0.125
-0.1
-0.115
-0.11
-0.13
-0.15
-0.135
-0.14
-0.14
-0.12
-0.155
-0.18
-0.16
-0.13
-0.085
-0.07
-0.105
-0.145
-0.175
-0.175
-0.155
-0.115
-0.11
-0.105
-0.105
-0.09
-0.085
-0.085
-0.085
-0.125
-0.13
-0.11
-0.055
-0.005
0.05
0.085
0.14
0.205
0.28
0.36
0.47
0.605
0.735
0.895
1.055
1.2
1.305
1.41
1.55
1.755
1.97
2.14
2.16
2.015
1.66
1.165
0.67
0.335
0.11
-0.025
-0.08
-0.1
-0.105
-0.095
-0.105
-0.125
-0.14
-0.155
-0.16
-0.18
-0.2
-0.225
-0.255
-0.255
-0.235
-0.235
-0.22
-0.22
-0.225
-0.225
-0.245
-0.26
-0.27
-0.275
-0.275
-0.25
-0.24
-0.23
-0.25
-0.27
-0.27
-0.275
-0.275
-0.275
-0.285
-0.295
-0.31
-0.29
-0.265
-0.275
-0.295
-0.31
-0.305
-0.285
-0.275
-0.27
-0.285
-0.315
-0.33
-0.32
-0.315
-0.31
-0.305
-0.305
-0.305
-0.295
-0.285
-0.275
-0.27
-0.29
-0.305
-0.315
-0.29
-0.275
-0.285
-0.295
-0.3
-0.265
-0.26
-0.25
-0.26
-0.28
-0.29
-0.31
-0.325
-0.3
-0.275
-0.255
-0.25
-0.225
-0.225
-0.225
-0.23
-0.22
-0.215
-0.2
-0.205
-0.165
-0.125
-0.095
-0.095
-0.105
-0.135
-0.14
-0.12
-0.06
-0.02
0.0
0.02
0.035
0.035
0.045
0.065
0.075
0.085
0.085
0.095
0.065
0.05
0.03
0.035
0.04
0.05
0.035
0.0
-0.005
-0.01
-0.01
-0.02
-0.04
-0.025
-0.015
-0.005
-0.02
-0.045
-0.06
-0.065
-0.045
-0.04
-0.025
-0.03
-0.045
-0.07
-0.085
-0.055
-0.035
-0.03
-0.06
-0.095
-0.08
-0.06
-0.04
-0.06
-0.065
-0.075
-0.08
-0.065
-0.07
-0.09
-0.105
-0.1
-0.105
-0.065
-0.08
-0.08
-0.095
-0.1
-0.115
-0.105
-0.09
-0.105
-0.11
-0.115
-0.1
-0.065
-0.04
-0.05
-0.065
-0.085
-0.09
-0.09
-0.07
-0.08
-0.08
-0.105
-0.105
-0.09
-0.065
-0.07
-0.105
-0.11
-0.105
-0.08
-0.055
-0.04
-0.045
-0.055
-0.05
-0.045
-0.055
-0.045
-0.045
-0.07
-0.06
-0.045
-0.02
-0.03
-0.06
-0.055
-0.02
0.005
0.0
-0.025
-0.065
-0.1
-0.085
-0.06
-0.04
-0.04
-0.045
-0.055
-0.045
-0.02
-0.03
-0.02
-0.025
-0.045
-0.045
-0.045
-0.04
-0.055
-0.09
-0.09
-0.07
-0.055
-0.045
-0.045
-0.04
-0.015
-0.02
-0.03
-0.06
-0.09
-0.085
-0.105
-0.085
-0.06
-0.035
-0.025
-0.04
-0.03
-0.03
-0.025
-0.045
-0.06
-0.09
-0.08
-0.055
-0.01
-0.01
-0.015
-0.025
-0.035
-0.015
0.025
0.04
0.035
0.01
-0.015
-0.02
0.0
0.03
0.045
0.035
0.015
0.02
0.055
0.07
0.05
0.03
-0.015
0.0
0.025
0.045
0.03
0.01
0.005
0.015
0.025
0.025
0.01
0.02
0.025
0.04
0.06
0.045
0.05
0.045
0.045
0.045
0.03
0.035
0.035
0.035
0.01
0.005
0.005
0.03
0.03
0.035
0.005
0.0
0.005
0.045
0.045
0.03
0.0
0.005
0.025
0.055
0.03
-0.015
-0.035
-0.04
-0.015
0.02
0.02
0.005
0.01
0.025
0.06
0.09
0.145
0.185
0.245
0.305
0.36
0.44
0.545
0.68
0.86
1.055
1.24
1.41
1.535
1.65
1.79
2.01
2.195
2.305
2.245
2.015
1.595
1.075
0.62
0.33
0.14
0.05
0.015
0.025
0.05
0.06
0.035
-0.02
-0.035
-0.03
-0.02
-0.03
-0.07
-0.085
-0.11
-0.095
-0.06
-0.07
-0.085
-0.1
-0.11
-0.095
-0.09
-0.085
-0.095
-0.095
-0.11
-0.11
-0.07
-0.06
-0.05
-0.065
-0.105
-0.115
-0.13
-0.11
-0.105
-0.115
-0.09
-0.065
-0.04
-0.045
-0.075
-0.11
-0.12
-0.105
-0.07
-0.06
-0.07
-0.09
-0.11
-0.105
-0.075
-0.065
-0.075
-0.08
-0.095
-0.075
-0.065
-0.05
-0.08
-0.1
-0.12
-0.115
-0.08
-0.075
-0.07
-0.09
-0.075
-0.045
-0.01
0.025
-0.01
-0.04
-0.055
-0.03
-0.015
0.015
0.005
0.005
0.025
0.065
0.095
0.1
0.085
0.07
0.085
0.12
0.185
0.235
0.25
0.24
0.2
0.2
0.24
0.26
0.265
0.245
0.265
0.285
0.33
0.35
0.315
0.305
0.29
0.295
0.295
0.295
0.28
0.255
0.23
0.24
0.25
0.245
0.19
0.18
0.17
0.18
0.185
0.19
0.175
0.145
0.125
0.12
0.145
0.15
0.14
0.13
0.12
0.135
0.135
0.125
0.095
0.08
0.055
0.08
0.1
0.13
0.14
0.115
0.08
0.075
0.09
0.095
0.11
0.1
0.09
0.09
0.085
0.095
0.08
0.055
0.06
0.05
0.065
0.045
0.04
0.025
0.01
0.04
0.055
0.065
0.055
0.03
-0.005
0.02
0.035
0.04
0.03
0.015
0.005
0.03
0.035
0.04
0.03
0.02
0.015
0.03
0.035
0.055
0.04
0.005
0.0
0.005
0.025
0.045
0.03
0.025
0.01
0.025
0.035
0.035
0.005
-0.005
-0.005
0.005
0.025
0.04
0.02
-0.02
-0.03
-0.015
0.02
0.015
-0.01
-0.025
-0.02
0.005
0.015
0.015
-0.005
-0.02
-0.025
-0.03
-0.02
-0.005
-0.025
-0.035
-0.04
-0.025
-0.01
0.01
0.015
0.01
-0.025
-0.05
-0.05
-0.025
-0.01
-0.025
-0.03
-0.05
-0.045
-0.035
-0.03
-0.035
-0.05
-0.045
-0.035
-0.03
-0.025
-0.02
-0.005
0.005
0.03
0.03
0.015
-0.03
-0.05
-0.035
0.0
0.02
0.025
0.01
0.005
0.01
0.01
0.02
-0.005
0.0
0.0
0.0
0.025
0.015
0.0
-0.03
-0.03
-0.025
-0.03
-0.045
-0.04
-0.035
-0.025
-0.02
-0.015
-0.005
-0.03
-0.05
-0.07
-0.06
-0.06
-0.045
-0.05
-0.07
-0.09
-0.075
-0.05
-0.05
-0.035
-0.045
-0.065
-0.06
-0.05
-0.015
-0.03
-0.05
-0.05
-0.025
0.03
0.035
-0.005
-0.04
-0.05
-0.045
-0.035
-0.04
-0.07
-0.075
-0.045
-0.025
0.01
0.04
0.055
0.075
0.11
0.175
0.26
0.335
0.4
0.465
0.57
0.715
0.87
1.005
1.085
1.165
1.26
1.39
1.545
1.73
1.895
2.035
2.065
1.97
1.74
1.34
0.88
0.515
0.275
0.125
0.015
-0.075
-0.08
-0.08
-0.07
-0.06
-0.055
-0.06
-0.07
-0.09
-0.095
-0.095
-0.085
-0.095
-0.13
-0.17
-0.205
-0.235
-0.24
-0.205
-0.195
-0.195
-0.205
-0.195
-0.17
-0.16
-0.15
-0.18
-0.19
-0.2
-0.175
-0.135
-0.12
-0.145
-0.145
-0.175
-0.185
-0.215
-0.215
-0.24
-0.24
-0.225
-0.2
-0.19
-0.18
-0.2
-0.2
-0.2
-0.2
-0.215
-0.225
-0.24
-0.23
-0.22
-0.215
-0.2
-0.215
-0.24
-0.235
-0.23
-0.215
-0.2
-0.21
-0.23
-0.225
-0.225
-0.22
-0.235
-0.23
-0.235
-0.22
-0.21
-0.2
-0.205
-0.205
-0.205
-0.2
-0.175
-0.16
-0.145
-0.155
-0.16
-0.145
-0.16
-0.14
-0.15
-0.13
-0.135
-0.115
-0.095
-0.07
-0.055
-0.055
-0.06
-0.06
-0.035
0.005
0.035
0.025
0.015
0.05
0.095
0.12
0.135
0.12
0.105
0.095
0.1
0.12
0.12
0.1
0.065
0.055
0.065
0.07
0.07
0.055
0.025
0.035
0.04
0.05
0.05
0.03
0.0
-0.02
-0.015
-0.02
0.0
0.025
0.015
0.0
-0.01
-0.005
0.02
0.015
-0.01
-0.03
-0.01
-0.01
-0.02
-0.03
-0.05
-0.035
-0.02
-0.015
-0.035
-0.05
-0.04
-0.045
-0.05
-0.05
-0.035
-0.035
-0.055
-0.065
-0.05
-0.035
-0.045
-0.07
-0.06
-0.07
-0.06
-0.045
-0.04
-0.03
-0.055
-0.055
-0.055
