Lead II
-0.155
-0.14
-0.15
-0.145
-0.145
-0.155
-0.165
-0.15
-0.14
-0.135
-0.15
-0.155
-0.15
-0.135
-0.13
-0.135
-0.14
-0.15
-0.14
-0.14
-0.13
-0.115
-0.11
-0.1
-0.07
-0.035
-0.01
0.02
0.08
0.15
0.255
0.355
0.45
0.555
0.665
0.75
0.82
0.885
0.93
0.93
0.875
0.78
0.635
0.485
0.325
0.195
0.1
0.035
0.015
-0.015
-0.015
-0.02
-0.03
-0.045
-0.055
-0.06
-0.065
-0.075
-0.085
-0.11
-0.11
-0.115
-0.105
-0.11
-0.13
-0.15
-0.15
-0.145
-0.135
-0.135
-0.16
-0.17
-0.165
-0.16
-0.15
-0.145
-0.15
-0.16
-0.155
-0.15
-0.135
-0.14
-0.15
-0.16
-0.145
-0.145
-0.135
-0.135
-0.13
-0.155
-0.15
-0.14
-0.13
-0.13
-0.13
-0.14
-0.13
-0.115
-0.105
-0.11
-0.11
-0.115
-0.105
-0.105
-0.08
-0.085
-0.08
-0.075
-0.075
-0.06
-0.045
-0.04
-0.045
-0.05
-0.04
-0.035
-0.015
-0.01
-0.01
-0.015
-0.01
-0.01
0.0
0.01
0.0
-0.005
0.0
0.015
0.025
0.03
0.025
0.015
0.005
0.015
0.02
0.015
0.0
-0.015
-0.015
-0.025
-0.02
-0.035
-0.055
-0.075
-0.08
-0.1
-0.085
-0.11
-0.12
-0.14
-0.14
-0.135
-0.135
-0.145
-0.15
-0.145
-0.15
-0.165
-0.15
-0.155
-0.16
-0.18
-0.165
-0.165
-0.155
-0.15
-0.155
-0.16
-0.15
-0.145
-0.13
-0.135
-0.14
-0.15
-0.145
-0.13
-0.125
-0.125
-0.13
-0.13
-0.13
-0.13
-0.125
-0.125
-0.13
-0.115
-0.12
-0.11
-0.11
-0.125
-0.12
-0.12
-0.13
-0.125
-0.135
-0.135
-0.125
-0.145
-0.14
-0.135
-0.135
-0.135
-0.155
-0.16
-0.17
-0.155
-0.155
-0.16
-0.17
-0.185
-0.175
-0.165
-0.16
-0.165
-0.175
-0.19
-0.19
-0.18
-0.185
-0.17
-0.18
-0.185
-0.19
-0.18
-0.17
-0.18
-0.185
-0.185
-0.185
-0.185
-0.175
-0.175
-0.185
-0.185
-0.185
-0.175
-0.17
-0.17
-0.17
-0.185
-0.18
-0.18
-0.175
-0.17
-0.17
-0.165
-0.15
-0.15
-0.14
-0.14
-0.145
-0.155
-0.13
-0.125
-0.12
-0.115
-0.13
-0.14
-0.125
-0.12
-0.105
-0.105
-0.09
-0.06
-0.045
0.005
0.085
0.185
0.28
0.375
0.495
0.63
0.755
0.835
0.9
0.945
0.97
0.91
0.78
0.595
0.385
0.165
0.005
-0.1
-0.135
-0.165
-0.195
-0.17
-0.135
-0.125
-0.125
-0.145
-0.165
-0.17
-0.165
-0.17
-0.17
-0.175
-0.19
-0.21
-0.2
-0.2
-0.185
-0.185
-0.195
-0.2
-0.19
-0.18
-0.18
-0.165
-0.185
-0.185
-0.19
-0.18
-0.18
-0.175
-0.185
-0.175
-0.17
-0.15
-0.15
-0.15
-0.16
-0.16
-0.15
-0.145
-0.135
-0.135
-0.145
-0.155
-0.14
-0.14
-0.145
-0.155
-0.145
-0.16
-0.155
-0.135
-0.13
-0.13
-0.14
-0.155
-0.15
-0.15
-0.14
-0.13
-0.14
-0.15
-0.14
-0.13
-0.115
-0.115
-0.12
-0.115
-0.105
-0.095
-0.08
-0.085
-0.08
-0.095
-0.075
-0.065
-0.06
-0.05
-0.05
-0.065
-0.045
-0.05
-0.045
-0.06
-0.065
-0.085
-0.09
-0.08
-0.08
-0.085
-0.1
-0.115
-0.115
-0.12
-0.12
-0.13
-0.14
-0.16
-0.155
-0.17
-0.15
-0.16
-0.17
-0.175
-0.17
-0.175
-0.16
-0.17
-0.185
-0.195
-0.195
-0.19
-0.195
-0.2
-0.21
-0.235
-0.235
-0.225
-0.23
-0.23
-0.235
-0.25
-0.255
-0.245
-0.25
-0.255
-0.245
-0.255
-0.27
-0.265
-0.25
-0.255
-0.245
-0.245
-0.245
-0.235
-0.23
-0.24
-0.25
-0.26
-0.255
-0.24
-0.225
-0.225
-0.23
-0.23
-0.23
-0.23
-0.225
-0.24
-0.245
-0.25
-0.24
-0.23
-0.225
-0.225
-0.225
-0.225
-0.23
-0.225
-0.21
-0.21
-0.21
-0.225
-0.215
-0.195
-0.19
-0.18
-0.185
-0.195
-0.195
-0.18
-0.18
-0.175
-0.185
-0.195
-0.195
-0.185
-0.185
-0.195
-0.2
-0.205
-0.205
-0.195
-0.195
-0.205
-0.23
-0.23
-0.22
-0.22
-0.21
-0.225
-0.245
-0.25
-0.255
-0.245
-0.235
-0.245
-0.255
-0.265
-0.27
-0.255
-0.25
-0.25
-0.245
-0.25
-0.25
-0.24
-0.23
-0.235
-0.225
-0.235
-0.225
-0.22
-0.21
-0.22
-0.23
-0.23
-0.22
-0.2
-0.195
-0.205
-0.195
-0.195
-0.185
-0.18
-0.18
-0.175
-0.175
-0.18
-0.17
-0.15
-0.15
-0.155
-0.16
-0.16
-0.15
-0.14
-0.135
-0.135
-0.14
-0.16
-0.165
-0.165
-0.17
-0.165
-0.175
-0.185
-0.175
-0.175
-0.175
-0.185
-0.185
-0.19
-0.185
-0.185
-0.19
-0.185
-0.19
-0.2
-0.19
-0.165
-0.135
-0.115
-0.105
-0.07
0.025
0.14
0.27
0.385
0.515
0.64
0.76
0.865
0.95
0.975
0.895
0.705
0.47
0.245
0.055
-0.09
-0.165
-0.2
-0.2
-0.16
-0.125
-0.105
-0.12
-0.13
-0.14
-0.14
-0.135
-0.14
-0.15
-0.155
-0.155
-0.15
-0.145
-0.145
-0.155
-0.16
-0.155
-0.155
-0.155
-0.16
-0.185
-0.19
-0.185
-0.19
-0.185
-0.185
-0.205
-0.215
-0.22
-0.21
-0.21
-0.215
-0.215
-0.225
-0.235
-0.235
-0.22
-0.23
-0.235
-0.235
-0.21
-0.205
-0.19
-0.185
-0.185
-0.18
-0.165
-0.155
-0.14
-0.125
-0.125
-0.115
-0.115
-0.115
-0.1
-0.09
-0.09
-0.09
-0.09
-0.085
-0.08
-0.09
-0.08
-0.075
-0.07
-0.06
-0.06
-0.05
-0.05
-0.045
-0.05
-0.035
-0.02
-0.015
-0.005
-0.005
-0.005
0.0
0.015
0.02
0.015
-0.015
-0.02
-0.03
-0.04
-0.045
-0.07
-0.085
-0.09
-0.1
-0.105
-0.12
-0.15
-0.16
-0.165
-0.18
-0.175
-0.185
-0.2
-0.205
-0.205
-0.2
-0.21
-0.215
-0.23
-0.225
-0.22
-0.22
-0.215
-0.205
-0.2
-0.205
-0.195
-0.18
-0.165
-0.165
-0.165
-0.18
-0.16
-0.15
-0.135
-0.135
-0.135
-0.13
-0.125
-0.11
-0.11
-0.1
-0.1
-0.09
-0.085
-0.065
-0.055
-0.035
-0.035
0.0
0.06
0.155
0.285
0.42
0.515
0.615
0.73
0.87
0.97
1.015
1.02
0.975
0.88
0.74
0.555
0.315
0.11
0.005
0.0
0.005
-0.03
-0.07
-0.105
-0.115
-0.125
-0.14
-0.155
-0.19
-0.19
-0.205
-0.21
-0.205
-0.205
-0.225
-0.235
-0.245
-0.235
-0.23
-0.23
-0.23
-0.23
-0.23
-0.215
-0.2
-0.2
-0.215
-0.215
-0.225
-0.205
-0.195
-0.19
-0.185
-0.18
-0.185
-0.17
-0.155
-0.155
-0.15
-0.155
-0.15
-0.145
-0.13
-0.12
-0.125
-0.12
-0.12
-0.11
-0.095
-0.085
-0.085
-0.08
-0.08
-0.08
-0.075
-0.06
-0.06
-0.065
-0.065
-0.06
-0.055
-0.05
-0.045
-0.055
-0.045
-0.05
-0.04
-0.035
-0.03
-0.035
-0.035
-0.02
-0.03
-0.02
-0.015
-0.03
-0.05
-0.06
-0.07
-0.065
-0.07
-0.095
-0.12
-0.135
-0.125
-0.115
-0.115
-0.135
-0.15
-0.155
-0.155
-0.165
-0.165
-0.185
-0.19
-0.19
-0.16
-0.165
-0.17
-0.18
-0.18
-0.18
-0.17
-0.17
-0.165
-0.175
-0.175
-0.17
-0.15
-0.155
-0.16
-0.155
-0.15
-0.13
-0.105
-0.05
0.02
0.13
0.26
0.395
0.515
0.655
0.79
0.895
0.95
0.975
0.955
0.88
0.72
0.51
0.275
0.125
0.055
0.02
-0.03
-0.08
-0.11
-0.115
-0.12
-0.135
-0.155
-0.175
-0.2
-0.195
-0.205
-0.205
-0.22
-0.225
-0.23
-0.23
-0.22
-0.21
-0.215
-0.225
-0.23
-0.22
-0.215
-0.215
-0.225
-0.215
-0.22
-0.21
-0.21
-0.21
-0.22
-0.21
-0.22
-0.21
-0.2
-0.195
-0.19
-0.2
-0.21
-0.19
-0.17
-0.165
-0.17
-0.175
-0.175
-0.16
-0.14
-0.145
-0.145
-0.16
-0.175
-0.17
-0.155
-0.155
-0.165
-0.165
-0.16
-0.165
-0.145
-0.145
-0.145
-0.16
-0.145
-0.125
-0.095
-0.07
-0.055
-0.055
-0.05
-0.04
-0.04
-0.04
-0.06
-0.065
-0.075
-0.07
-0.08
-0.09
-0.1
-0.105
-0.125
-0.11
-0.125
-0.125
-0.13
-0.135
-0.15
-0.15
-0.145
-0.14
-0.15
-0.16
-0.16
-0.15
-0.14
-0.135
-0.135
-0.14
-0.15
-0.145
-0.135
-0.125
-0.135
-0.145
-0.145
-0.145
-0.135
-0.125
-0.125
-0.14
-0.15
-0.145
-0.14
-0.14
-0.15
-0.165
-0.175
-0.175
-0.175
-0.165
-0.18
-0.2
-0.205
-0.195
-0.19
-0.19
-0.195
-0.215
-0.22
-0.215
-0.21
-0.2
-0.21
-0.21
-0.215
-0.195
-0.18
-0.19
-0.205
-0.2
-0.2
-0.185
-0.185
-0.175
-0.18
-0.185
-0.18
-0.18
-0.185
-0.18
-0.175
-0.175
-0.17
-0.145
-0.115
-0.1
-0.075
-0.02
0.065
0.17
0.285
0.37
0.47
0.59
0.675
0.755
0.83
0.845
0.8
0.655
0.485
0.28
0.1
-0.015
-0.07
-0.1
-0.115
-0.1
-0.085
-0.085
-0.105
-0.12
-0.135
-0.145
-0.145
-0.155
-0.18
-0.2
-0.21
-0.225
-0.215
-0.22
-0.215
-0.23
-0.23
-0.225
-0.22
-0.22
-0.215
-0.215
-0.22
-0.21
-0.21
-0.2
-0.21
-0.205
-0.215
-0.205
-0.2
-0.19
-0.19
-0.185
-0.19
-0.18
-0.165
-0.16
-0.175
-0.185
-0.195
-0.2
-0.185
-0.165
-0.17
-0.17
-0.19
-0.18
-0.155
-0.15
-0.145
-0.15
-0.145
-0.135
-0.13
-0.125
-0.13
-0.115
-0.115
-0.1
-0.095
-0.085
-0.08
-0.08
-0.08
-0.075
-0.065
-0.07
-0.07
-0.08
-0.085
-0.065
-0.05
-0.04
-0.06
-0.065
-0.075
-0.075
-0.08
-0.09
-0.11
-0.14
-0.145
-0.15
-0.145
-0.16
-0.17
-0.18
-0.19
-0.185
-0.19
-0.19
-0.2
-0.21
-0.215
-0.205
-0.195
-0.19
-0.19
-0.19
-0.2
-0.19
-0.175
-0.18
-0.185
-0.2
-0.2
-0.2
-0.185
-0.18
-0.18
-0.2
-0.195
-0.175
-0.165
-0.165
-0.16
-0.17
-0.17
-0.155
-0.14
-0.15
-0.145
-0.145
-0.135
-0.135
-0.135
-0.14
-0.145
-0.14
-0.14
-0.135
-0.13
-0.135
-0.145
-0.15
-0.165
-0.155
-0.16
-0.165
-0.185
-0.19
-0.195
-0.18
-0.175
-0.185
-0.185
-0.21
-0.215
-0.195
-0.19
-0.195
-0.2
-0.215
-0.21
-0.19
-0.19
-0.19
-0.195
-0.21
-0.215
-0.21
-0.2
-0.2
-0.2
-0.215
-0.21
-0.19
-0.185
-0.185
-0.19
-0.205
-0.2
-0.19
-0.185
-0.185
-0.185
-0.18
-0.19
-0.175
-0.165
-0.155
-0.16
-0.145
-0.12
-0.09
-0.075
-0.055
-0.005
0.085
0.19
0.31
0.435
0.56
0.68
0.78
0.87
0.975
1.015
0.94
0.755
0.515
0.26
0.045
-0.095
-0.17
-0.235
-0.245
-0.235
-0.17
-0.135
-0.135
-0.165
-0.175
-0.2
-0.205
-0.2
-0.215
-0.225
-0.245
-0.24
-0.235
-0.24
-0.235
-0.24
-0.25
-0.245
-0.225
-0.22
-0.225
-0.23
-0.235
-0.23
-0.22
-0.215
-0.21
-0.215
-0.215
-0.215
-0.215
-0.215
-0.215
-0.225
-0.23
-0.22
-0.21
-0.205
-0.21
-0.215
-0.22
-0.22
-0.21
-0.2
-0.2
-0.19
-0.2
-0.205
-0.18
-0.175
-0.17
-0.165
-0.165
-0.16
-0.16
-0.135
-0.13
-0.135
-0.135
-0.135
-0.125
-0.11
-0.12
-0.13
-0.15
-0.15
-0.145
-0.135
-0.13
-0.135
-0.14
-0.14
-0.13
-0.125
-0.125
-0.125
-0.13
-0.14
-0.13
-0.12
-0.115
-0.12
-0.13
-0.14
-0.13
-0.13
-0.12
-0.13
-0.135
-0.14
-0.14
-0.13
-0.135
-0.13
-0.145
-0.155
-0.155
-0.15
-0.145
-0.145
-0.175
-0.165
-0.16
-0.165
-0.17
-0.185
-0.185
-0.185
-0.185
-0.18
-0.18
-0.175
-0.185
-0.175
-0.18
-0.17
-0.175
-0.175
-0.17
-0.17
-0.155
-0.145
-0.145
-0.14
-0.15
-0.15
-0.155
-0.145
-0.155
-0.145
-0.16
-0.15
-0.15
-0.145
-0.155
-0.155
-0.165
-0.17
-0.16
-0.155
-0.175
-0.175
-0.19
-0.19
-0.19
-0.19
-0.185
-0.2
-0.215
-0.225
-0.22
-0.21
-0.225
-0.22
-0.225
-0.225
-0.21
-0.215
-0.205
-0.21
-0.22
-0.22
-0.205
-0.185
-0.19
-0.195
-0.195
-0.19
-0.185
-0.18
-0.19
-0.205
-0.205
-0.21
-0.2
-0.195
-0.2
-0.205
-0.205
-0.21
-0.205
-0.19
-0.19
-0.21
-0.215
-0.215
-0.21
-0.195
-0.19
-0.18
-0.19
-0.2
-0.18
-0.16
-0.155
-0.155
-0.165
-0.165
-0.16
-0.135
-0.14
-0.15
-0.155
-0.175
-0.17
-0.145
-0.155
-0.155
-0.165
-0.175
-0.165
-0.17
-0.165
-0.165
-0.175
-0.18
-0.18
-0.175
-0.175
-0.18
-0.185
-0.19
-0.18
-0.175
-0.175
-0.17
-0.18
-0.19
-0.175
-0.16
-0.16
-0.145
-0.135
-0.12
-0.08
-0.03
0.005
0.055
0.125
0.21
0.31
0.405
0.495
0.595
0.705
0.78
0.835
0.885
0.905
0.855
0.75
0.59
0.415
0.22
0.09
0.0
-0.035
-0.06
-0.07
-0.07
-0.06
-0.055
-0.085
-0.105
-0.11
-0.12
-0.12
-0.13
-0.135
-0.14
-0.135
-0.13
-0.13
-0.13
-0.145
-0.16
-0.155
-0.15
-0.14
-0.15
-0.175
-0.175
-0.175
-0.18
-0.18
-0.19
-0.2
-0.205
-0.205
-0.205
-0.21
-0.215
-0.24
-0.24
-0.225
-0.225
-0.22
-0.225
-0.24
-0.24
-0.235
-0.225
-0.225
-0.23
-0.225
-0.21
-0.205
-0.19
-0.19
-0.185
-0.19
-0.185
-0.175
-0.17
-0.17
-0.175
-0.18
-0.19
-0.18
-0.175
-0.175
-0.17
-0.17
-0.17
-0.165
-0.16
-0.165
-0.16
-0.145
-0.135
-0.115
-0.105
-0.09
-0.08
-0.085
-0.085
-0.07
-0.055
-0.055
-0.05
-0.05
-0.045
-0.035
-0.015
-0.02
-0.04
-0.045
-0.04
-0.04
-0.035
-0.055
-0.065
-0.075
-0.075
-0.085
-0.075
-0.09
-0.1
-0.12
-0.12
-0.12
-0.125
-0.135
-0.14
-0.155
-0.155
-0.16
-0.16
-0.17
-0.175
-0.175
-0.18
-0.17
-0.185
-0.17
-0.17
-0.18
-0.17
-0.165
-0.15
-0.15
-0.155
-0.155
-0.15
-0.14
-0.14
-0.15
-0.145
-0.145
-0.155
-0.155
-0.145
-0.145
-0.16
-0.165
-0.165
-0.16
-0.16
-0.145
-0.145
-0.15
-0.14
-0.13
-0.11
-0.115
-0.12
-0.135
-0.13
-0.12
-0.12
-0.12
-0.125
-0.15
-0.145
-0.135
-0.13
-0.135
-0.15
-0.16
-0.165
-0.155
-0.16
-0.16
-0.165
-0.175
-0.175
-0.18
-0.16
-0.165
-0.185
-0.19
-0.2
-0.2
-0.2
-0.19
-0.2
-0.205
-0.21
-0.205
-0.19
-0.19
-0.21
-0.215
-0.225
-0.21
-0.205
-0.2
-0.195
-0.215
-0.22
-0.205
-0.19
-0.195
-0.195
-0.19
-0.19
-0.195
-0.17
-0.18
-0.175
-0.19
-0.195
-0.185
-0.175
-0.185
-0.175
-0.18
-0.18
-0.17
-0.175
-0.16
-0.14
-0.13
-0.1
-0.055
-0.02
0.04
0.14
0.22
0.315
0.39
0.5
0.605
0.71
0.78
0.835
0.9
0.935
0.91
0.82
0.71
0.57
0.405
0.245
0.12
0.055
0.01
-0.025
-0.04
-0.045
-0.04
-0.06
-0.065
-0.075
-0.095
-0.095
-0.11
-0.13
-0.15
-0.16
-0.145
-0.135
-0.15
-0.165
-0.175
-0.185
-0.185
-0.18
-0.175
-0.185
-0.2
-0.195
-0.18
-0.18
-0.18
-0.185
-0.185
-0.175
-0.18
-0.17
-0.165
-0.165
-0.17
-0.17
-0.155
-0.145
-0.16
-0.165
-0.17
-0.16
-0.16
-0.155
-0.165
-0.165
-0.175
-0.165
-0.165
-0.16
-0.165
-0.17
-0.155
-0.16
-0.14
-0.135
-0.135
-0.135
-0.135
-0.13
-0.12
-0.105
-0.115
-0.115
-0.125
-0.115
-0.115
-0.095
-0.1
-0.105
-0.115
-0.115
-0.11
-0.1
-0.11
-0.11
-0.115
-0.11
-0.1
-0.095
-0.095
-0.095
-0.105
-0.1
-0.09
-0.075
-0.085
-0.1
-0.11
-0.115
-0.11
-0.1
-0.115
-0.13
-0.15
-0.155
-0.155
-0.145
-0.145
-0.155
-0.17
-0.165
-0.155
-0.145
-0.155
-0.155
-0.17
-0.165
-0.17
-0.165
-0.165
-0.18
-0.18
-0.18
-0.175
-0.16
-0.155
-0.175
-0.175
-0.19
-0.185
-0.17
-0.18
-0.18
-0.185
-0.185
-0.16
-0.15
-0.16
-0.155
-0.18
-0.17
-0.17
-0.145
-0.14
-0.13
-0.135
-0.135
-0.115
-0.105
-0.1
-0.1
-0.12
-0.13
-0.125
-0.13
-0.135
-0.145
-0.16
-0.16
-0.165
-0.155
-0.17
-0.18
-0.195
-0.185
-0.185
-0.18
-0.18
-0.185
-0.19
-0.195
-0.19
-0.185
-0.175
-0.19
-0.2
-0.19
-0.18
-0.17
-0.175
-0.17
-0.18
-0.18
-0.17
-0.16
-0.15
-0.16
-0.17
-0.18
-0.175
-0.16
-0.17
-0.17
-0.185
-0.195
-0.19
-0.18
-0.18
-0.175
-0.18
-0.17
-0.165
-0.16
-0.145
-0.155
-0.165
-0.155
-0.135
-0.13
-0.115
-0.115
-0.125
-0.13
-0.125
-0.125
-0.125
-0.14
-0.15
-0.15
-0.145
-0.125
-0.135
-0.14
-0.155
-0.155
-0.155
-0.145
-0.16
-0.175
-0.17
-0.17
-0.18
-0.18
-0.18
-0.195
-0.22
-0.215
-0.215
-0.195
-0.195
-0.2
-0.205
-0.21
-0.2
-0.185
-0.17
-0.175
-0.16
-0.13
-0.09
-0.05
-0.035
0.005
0.07
0.18
0.3
0.4
0.53
0.645
0.735
0.815
0.885
0.915
0.86
0.72
0.535
0.345
0.155
0.02
-0.05
-0.09
-0.1
-0.09
-0.055
-0.02
-0.005
-0.025
-0.04
-0.05
-0.055
-0.06
-0.075
-0.1
-0.115
-0.11
-0.12
-0.11
-0.125
-0.145
-0.155
-0.16
-0.15
-0.145
-0.155
-0.175
-0.185
-0.195
-0.19
-0.185
-0.185
-0.2
-0.21
-0.205
-0.2
-0.2
-0.19
-0.19
-0.205
-0.2
-0.2
-0.19
-0.19
-0.205
-0.215
-0.2
-0.185
-0.17
-0.17
-0.18
-0.185
-0.185
-0.17
-0.155
-0.15
-0.155
-0.17
-0.165
-0.155
-0.135
-0.13
-0.14
-0.145
-0.14
-0.12
-0.105
-0.09
-0.09
-0.075
-0.065
-0.055
-0.035
-0.025
-0.025
-0.025
-0.01
0.005
0.025
0.035
0.03
0.02
0.025
0.03
0.04
0.05
0.05
0.025
0.025
0.02
0.025
0.005
-0.015
-0.02
-0.045
-0.06
-0.065
-0.075
-0.09
-0.105
-0.125
-0.125
-0.13
-0.14
-0.155
-0.175
-0.185
-0.185
-0.185
-0.18
-0.185
-0.205
-0.185
-0.19
-0.185
-0.175
-0.17
-0.185
-0.175
-0.175
-0.16
-0.175
-0.175
-0.17
-0.17
-0.17
-0.17
-0.16
-0.16
-0.16
-0.155
-0.15
-0.15
-0.15
-0.15
-0.15
-0.14
-0.12
-0.11
-0.095
-0.09
-0.09
-0.08
-0.075
-0.065
-0.065
-0.065
-0.08
-0.06
-0.045
-0.035
-0.045
-0.055
-0.05
-0.065
-0.075
-0.06
-0.08
-0.095
-0.095
-0.095
-0.105
-0.095
-0.11
-0.125
-0.14
-0.145
-0.14
-0.135
-0.155
-0.16
-0.16
-0.165
-0.155
-0.15
-0.17
-0.18
-0.185
-0.175
-0.17
-0.17
-0.17
-0.17
-0.17
-0.16
-0.16
-0.15
-0.155
-0.15
-0.165
-0.14
-0.125
-0.1
-0.08
-0.05
0.02
0.125
0.245
0.33
0.46
0.575
0.665
0.755
0.855
0.92
0.92
0.8
0.6
0.365
0.145
-0.005
-0.105
-0.155
-0.17
-0.14
-0.095
-0.04
-0.03
-0.045
-0.065
-0.065
-0.07
-0.065
-0.085
-0.095
-0.105
-0.115
-0.115
-0.105
-0.11
-0.115
-0.125
-0.135
-0.145
-0.145
-0.145
-0.15
-0.16
-0.165
-0.16
-0.155
-0.16
-0.165
-0.17
-0.165
-0.16
-0.16
-0.155
-0.15
-0.16
-0.15
-0.145
-0.135
-0.13
-0.13
-0.145
-0.135
-0.14
-0.115
-0.115
-0.11
-0.13
-0.13
-0.12
-0.095
-0.095
-0.095
-0.1
-0.095
-0.095
-0.07
-0.07
-0.055
-0.06
-0.065
-0.05
-0.035
-0.03
-0.03
-0.035
-0.03
-0.02
-0.01
0.0
-0.01
-0.02
-0.015
-0.015
-0.005
-0.02
-0.03
-0.045
-0.04
-0.04
-0.04
-0.05
-0.075
-0.105
-0.115
-0.115
-0.12
-0.115
-0.125
-0.13
-0.13
-0.13
-0.12
-0.13
-0.13
-0.145
-0.135
-0.145
-0.14
-0.13
-0.135
-0.135
-0.135
-0.12
-0.12
-0.115
-0.13
-0.14
-0.13
-0.13
-0.13
-0.135
-0.135
-0.155
-0.145
-0.15
-0.14
-0.145
-0.14
-0.14
-0.14
-0.13
-0.125
-0.125
-0.12
-0.12
-0.115
-0.095
-0.09
-0.095
-0.095
-0.11
-0.105
-0.09
-0.085
-0.09
-0.105
-0.105
-0.105
-0.105
-0.1
-0.105
-0.125
-0.13
-0.135
-0.125
-0.13
-0.14
-0.145
-0.155
-0.15
-0.155
-0.165
-0.18
-0.195
-0.22
-0.215
-0.21
-0.21
-0.22
-0.23
-0.24
-0.225
-0.2
-0.185
-0.165
-0.16
-0.17
-0.155
-0.145
-0.13
-0.135
-0.12
-0.125
-0.11
-0.1
-0.095
-0.105
-0.105
-0.125
-0.12
-0.115
-0.11
-0.12
-0.115
-0.12
-0.125
-0.115
-0.11
-0.115
-0.125
-0.135
-0.125
-0.11
-0.095
-0.11
-0.11
-0.125
-0.12
-0.11
-0.105
-0.095
-0.095
-0.115
-0.1
-0.1
-0.09
-0.11
-0.12
-0.13
-0.135
-0.13
-0.125
-0.13
-0.14
-0.145
-0.145
-0.135
-0.14
-0.145
-0.15
-0.165
-0.17
-0.165
-0.175
-0.18
-0.215
-0.215
-0.2
-0.2
-0.185
-0.195
-0.2
-0.19
-0.175
-0.165
-0.155
-0.15
-0.15
-0.155
-0.135
-0.11
-0.095
-0.1
-0.105
-0.11
-0.095
-0.075
-0.055
-0.045
-0.04
-0.02
0.01
0.045
0.085
0.135
0.21
0.29
0.39
0.49
0.61
0.73
0.825
0.87
0.92
0.96
0.94
0.835
0.675
0.48
0.305
0.185
0.145
0.105
0.075
0.02
0.015
0.0
-0.01
-0.03
-0.06
-0.095
-0.105
-0.105
-0.11
-0.135
-0.15
-0.17
-0.18
-0.19
-0.185
-0.21
-0.215
-0.22
-0.215
-0.21
-0.195
-0.195
-0.2
-0.21
-0.185
-0.17
-0.155
-0.165
-0.165
-0.16
-0.15
-0.135
-0.125
-0.13
-0.125
-0.135
-0.125
-0.115
-0.11
-0.11
-0.105
-0.1
-0.095
-0.08
-0.07
-0.08
-0.08
-0.08
-0.07
-0.07
-0.06
-0.04
-0.03
-0.03
-0.015
-0.015
-0.005
-0.005
-0.005
0.0
0.0
-0.005
0.005
0.0
-0.01
-0.025
-0.015
-0.02
-0.005
-0.005
-0.01
-0.015
-0.015
-0.01
-0.005
-0.01
-0.02
-0.035
-0.04
-0.035
-0.04
-0.065
-0.07
-0.095
-0.095
-0.1
-0.105
-0.115
-0.125
-0.15
-0.14
-0.13
-0.125
-0.12
-0.13
-0.145
-0.145
-0.14
-0.13
-0.135
-0.145
-0.145
-0.14
-0.135
-0.135
-0.135
-0.14
-0.145
-0.15
-0.14
-0.14
-0.14
-0.13
-0.13
-0.115
-0.11
-0.1
-0.125
-0.13
-0.135
-0.135
-0.115
-0.105
-0.085
-0.08
-0.085
-0.075
-0.065
-0.06
-0.075
-0.09
-0.09
-0.09
-0.09
-0.085
-0.1
-0.1
-0.13
-0.135
-0.125
-0.125
-0.135
-0.135
-0.155
-0.15
-0.15
-0.15
-0.15
-0.15
-0.165
-0.16
-0.155
-0.145
-0.15
-0.145
-0.14
-0.135
-0.135
-0.12
-0.135
-0.135
-0.15
-0.15
-0.14
-0.13
-0.125
-0.125
-0.13
-0.12
-0.1
-0.08
-0.065
-0.04
-0.025
0.04
0.12
0.215
0.315
0.38
0.485
0.605
0.715
0.785
0.855
0.89
0.85
0.75
0.595
0.43
0.255
0.115
0.035
-0.015
-0.06
-0.08
-0.08
-0.065
-0.08
-0.085
-0.11
-0.12
-0.14
-0.16
-0.18
-0.19
-0.19
-0.18
-0.19
-0.195
-0.185
-0.18
-0.17
-0.16
-0.155
-0.155
-0.17
-0.165
-0.155
-0.145
-0.155
-0.155
-0.15
-0.14
-0.135
-0.13
-0.13
-0.135
-0.145
-0.14
-0.145
-0.135
-0.135
-0.135
-0.145
-0.12
-0.12
-0.11
-0.11
-0.115
-0.115
-0.115
-0.1
-0.095
-0.075
-0.08
-0.095
-0.085
-0.065
-0.065
-0.06
-0.05
-0.045
-0.05
-0.04
-0.025
-0.015
-0.02
-0.03
-0.025
-0.02
-0.025
-0.025
-0.03
-0.04
-0.03
-0.01
0.005
0.005
-0.01
-0.025
-0.025
-0.035
-0.045
-0.055
-0.07
-0.095
-0.095
-0.115
-0.115
-0.14
-0.145
-0.16
-0.155
-0.15
-0.145
-0.15
-0.17
-0.18
-0.17
-0.175
-0.165
-0.17
-0.17
-0.175
-0.185
-0.18
-0.18
-0.19
-0.205
-0.205
-0.195
-0.19
-0.185
-0.18
-0.19
-0.195
-0.19
-0.19
-0.175
-0.175
-0.17
-0.175
-0.17
-0.16
-0.145
-0.15
-0.155
-0.165
-0.155
-0.145
-0.135
-0.145
-0.145
-0.155
-0.15
-0.14
-0.15
-0.16
-0.17
-0.17
-0.165
-0.145
-0.155
-0.155
-0.18
-0.195
-0.19
-0.19
-0.19
-0.205
-0.21
-0.22
-0.22
-0.215
-0.205
-0.21
-0.215
-0.21
-0.195
-0.195
-0.2
-0.2
-0.205
-0.2
-0.18
-0.17
-0.165
-0.18
-0.185
-0.19
-0.185
-0.185
-0.185
-0.2
-0.19
-0.2
-0.19
-0.175
-0.175
-0.18
-0.19
-0.195
-0.195
-0.175
-0.17
-0.17
-0.16
-0.165
-0.17
-0.175
-0.17
-0.16
-0.175
-0.175
-0.16
-0.17
-0.17
-0.18
-0.19
-0.195
-0.185
-0.19
-0.19
-0.195
-0.21
-0.215
-0.215
-0.225
-0.215
-0.24
-0.24
-0.24
-0.23
-0.23
-0.23
-0.23
-0.245
-0.26
-0.245
-0.24
-0.245
-0.235
-0.235
-0.23
-0.23
-0.22
-0.215
-0.21
-0.215
-0.23
-0.215
-0.21
-0.21
-0.21
-0.215
-0.225
-0.215
-0.205
-0.2
-0.2
-0.205
-0.21
-0.21
-0.2
-0.195
-0.2
-0.215
-0.215
-0.2
-0.185
-0.17
-0.185
-0.18
-0.185
-0.165
-0.155
-0.145
-0.155
-0.175
-0.17
-0.16
-0.155
-0.155
-0.16
-0.18
-0.19
-0.19
-0.195
-0.205
-0.21
-0.22
-0.22
-0.21
-0.2
-0.2
-0.21
-0.225
-0.225
-0.225
-0.22
-0.22
-0.225
-0.23
-0.23
-0.215
-0.21
-0.19
-0.195
-0.21
-0.205
-0.195
-0.195
-0.19
-0.185
-0.195
-0.2
-0.19
-0.18
-0.175
-0.19
-0.185
-0.195
-0.195
-0.195
-0.2
-0.195
-0.195
-0.19
-0.185
-0.165
-0.155
-0.155
-0.16
-0.16
-0.125
-0.1
-0.065
-0.045
-0.04
-0.01
0.05
0.135
0.24
0.35
0.455
0.565
0.69
0.78
0.88
0.975
1.035
1.01
0.9
0.73
0.5
0.245
0.055
-0.07
-0.16
-0.2
-0.22
-0.21
-0.18
-0.185
-0.165
-0.16
-0.17
-0.185
-0.195
-0.21
-0.205
-0.21
-0.21
-0.215
-0.22
-0.23
-0.225
-0.205
-0.205
-0.21
-0.215
-0.22
-0.21
-0.2
-0.2
-0.205
-0.22
-0.225
-0.22
-0.21
-0.215
-0.205
-0.215
-0.225
-0.22
-0.205
-0.21
-0.2
-0.225
-0.215
-0.185
-0.16
-0.15
-0.135
-0.13
-0.13
-0.115
-0.115
-0.105
-0.1
-0.1
-0.095
-0.085
-0.08
-0.07
-0.09
-0.085
-0.095
-0.08
-0.07
-0.08
-0.095
-0.085
-0.105
-0.11
-0.105
-0.115
-0.115
-0.125
-0.135
-0.125
-0.115
-0.11
-0.12
-0.125
-0.115
-0.1
-0.095
-0.1
-0.09
-0.095
-0.095
-0.08
-0.07
-0.06
-0.065
-0.075
-0.085
-0.08
-0.085
-0.08
-0.105
-0.12
-0.125
-0.13
-0.13
-0.14
-0.14
-0.155
-0.16
-0.16
-0.165
-0.175
-0.17
-0.165
-0.155
-0.145
-0.13
-0.135
-0.135
-0.14
-0.14
-0.125
-0.115
-0.11
-0.11
-0.115
-0.105
-0.105
-0.1
-0.105
-0.1
-0.11
-0.1
-0.08
-0.085
-0.095
-0.105
-0.125
-0.115
-0.115
-0.12
-0.125
-0.135
-0.14
-0.14
-0.145
-0.14
-0.145
-0.15
-0.155
-0.175
-0.16
-0.155
-0.17
-0.17
-0.185
-0.18
-0.165
-0.165
-0.16
-0.15
-0.16
-0.165
-0.165
-0.16
-0.155
-0.18
-0.19
-0.2
-0.185
-0.18
-0.17
-0.15
-0.13
-0.12
-0.065
0.005
0.11
0.23
0.32
0.415
0.54
0.67
0.75
0.78
0.805
0.795
0.73
0.6
0.405
0.205
0.08
0.04
0.03
0.01
-0.035
-0.08
-0.09
-0.08
-0.09
-0.095
-0.11
-0.145
-0.155
-0.17
-0.165
-0.17
-0.185
-0.185
-0.19
-0.205
-0.205
-0.21
-0.205
-0.21
-0.21
-0.21
-0.22
-0.215
-0.22
-0.215
-0.225
-0.225
-0.225
-0.22
-0.21
-0.21
-0.2
-0.205
-0.2
-0.2
-0.185
-0.195
-0.19
-0.19
-0.19
-0.185
-0.195
-0.205
-0.205
-0.205
-0.195
-0.18
-0.16
-0.155
-0.145
-0.15
-0.13
-0.12
-0.115
-0.115
-0.125
-0.125
-0.115
-0.1
-0.105
-0.105
-0.1
-0.09
-0.085
-0.065
-0.055
-0.06
-0.065
-0.065
-0.05
-0.04
-0.055
-0.075
-0.085
-0.095
-0.11
-0.125
-0.14
-0.155
-0.175
-0.18
-0.18
-0.175
-0.18
-0.195
-0.205
-0.225
-0.205
-0.21
-0.205
-0.225
-0.225
-0.22
-0.21
-0.205
-0.205
-0.21
-0.225
-0.225
-0.225
-0.225
-0.22
-0.215
-0.22
-0.215
-0.21
-0.2
-0.215
-0.225
-0.225
-0.22
-0.21
-0.2
-0.19
-0.19
-0.185
-0.175
-0.175
-0.165
-0.175
-0.185
-0.19
-0.19
-0.19
-0.19
-0.185
-0.195
-0.21
-0.205
-0.205
-0.2
-0.2
-0.2
-0.205
-0.21
-0.2
-0.21
-0.22
-0.23
-0.245
-0.245
-0.235
-0.24
-0.245
-0.245
-0.255
-0.255
-0.25
-0.25
-0.255
-0.265
-0.265
-0.275
-0.265
-0.255
-0.245
-0.255
-0.255
-0.27
-0.25
-0.25
-0.25
-0.245
-0.245
-0.245
-0.25
-0.25
-0.255
-0.255
-0.25
-0.255
-0.26
-0.255
-0.245
-0.255
-0.255
-0.25
-0.235
-0.23
-0.22
-0.195
-0.195
-0.205
-0.195
-0.19
-0.185
-0.19
-0.195
-0.19
-0.195
-0.18
-0.19
-0.195
-0.21
-0.21
-0.215
-0.215
-0.235
-0.225
-0.23
-0.23
-0.22
-0.205
-0.205
-0.2
-0.205
-0.21
-0.21
-0.2
-0.2
-0.21
-0.22
-0.215
-0.215
-0.215
-0.21
-0.215
-0.225
-0.23
-0.21
-0.21
-0.215
-0.21
-0.215
-0.21
-0.19
-0.17
-0.16
-0.14
-0.13
-0.105
-0.08
-0.04
0.025
0.115
0.205
0.29
0.4
0.52
0.62
0.705
0.755
0.8
0.815
0.765
0.645
0.47
0.29
0.12
0.005
-0.055
-0.085
-0.11
-0.125
-0.125
-0.095
-0.085
-0.085
-0.105
-0.125
-0.145
-0.15
-0.165
-0.17
-0.19
-0.195
-0.2
-0.195
-0.18
-0.195
-0.2
-0.21
-0.22
-0.215
-0.22
-0.22
-0.22
-0.235
-0.245
-0.245
-0.23
-0.24
-0.24
-0.245
-0.245
-0.245
-0.24
-0.235
-0.24
-0.255
-0.255
-0.245
-0.235
-0.23
-0.23
-0.24
-0.25
-0.24
-0.23
-0.225
-0.235
-0.24
-0.225
-0.22
-0.195
-0.205
-0.2
-0.21
-0.215
-0.19
-0.165
-0.165
-0.15
-0.155
-0.15
-0.12
-0.115
-0.115
-0.115
-0.1
-0.1
-0.08
-0.065
-0.055
-0.06
-0.06
-0.07
-0.04
-0.03
-0.035
-0.035
-0.04
-0.045
-0.035
-0.045
-0.065
-0.085
-0.095
-0.11
-0.11
-0.115
-0.125
-0.14
-0.16
-0.16
-0.175
-0.17
-0.18
-0.19
-0.205
-0.21
-0.225
-0.215
-0.23
-0.235
-0.24
-0.235
-0.225
-0.21
-0.215
-0.225
-0.235
-0.235
-0.23
-0.22
-0.22
-0.225
-0.23
-0.225
-0.225
-0.215
-0.225
-0.215
-0.225
-0.23
-0.21
-0.195
-0.195
-0.19
-0.185
-0.19
-0.19
-0.175
-0.19
-0.195
-0.185
-0.185
-0.175
