Lead II
-1.28
-1.26
-1.23
-1.2
-1.185
-1.175
-1.125
-1.0
-0.795
-0.51
-0.165
0.215
0.59
0.93
1.19
1.335
1.375
1.245
0.915
0.3
-0.34
-0.98
-1.62
-1.875
-1.825
-1.595
-1.31
-1.08
-0.95
-0.95
-0.985
-1.065
-1.16
-1.23
-1.275
-1.285
-1.255
-1.21
-1.17
-1.155
-1.15
-1.16
-1.165
-1.135
-1.12
-1.155
-1.2
-1.255
-1.28
-1.265
-1.19
-1.14
-1.095
-1.07
-1.065
-1.1
-1.14
-1.165
-1.165
-1.145
-1.145
-1.145
-1.175
-1.195
-1.2
-1.16
-1.115
-1.085
-1.05
-1.03
-1.02
-1.01
-0.99
-0.95
-0.915
-0.885
-0.855
-0.865
-0.9
-0.98
-1.01
-0.995
-0.96
-0.915
-0.88
-0.875
-0.84
-0.83
-0.81
-0.78
-0.71
-0.67
-0.67
-0.68
-0.715
-0.735
-0.755
-0.74
-0.725
-0.7
-0.705
-0.71
-0.72
-0.72
-0.715
-0.715
-0.72
-0.72
-0.7
-0.67
-0.65
-0.625
-0.65
-0.69
-0.75
-0.82
-0.845
-0.85
-0.83
-0.82
-0.795
-0.815
-0.85
-0.875
-0.915
-0.9
-0.88
-0.855
-0.82
-0.86
-0.91
-0.94
-0.955
-0.955
-0.9
-0.89
-0.87
-0.87
-0.87
-0.9
-0.915
-0.925
-0.93
-0.945
-0.955
-0.945
-0.935
-0.92
-0.9
-0.895
-0.89
-0.88
-0.885
-0.88
-0.865
-0.82
-0.77
-0.745
-0.75
-0.775
-0.81
-0.835
-0.84
-0.855
-0.84
-0.805
-0.76
-0.76
-0.795
-0.825
-0.87
-0.91
-0.95
-0.965
-0.96
-0.95
-0.925
-0.885
-0.875
-0.905
-0.99
-1.07
-1.1
-1.1
-1.025
-0.945
-0.875
-0.84
-0.86
-0.945
-1.08
-1.16
-1.245
-1.265
-1.29
-1.315
-1.31
-1.28
-1.28
-1.26
-1.225
-1.195
-1.105
-0.955
-0.79
-0.57
-0.34
-0.075
0.135
0.35
0.5
0.675
0.85
1.07
1.305
1.575
1.845
2.11
2.36
2.54
2.67
2.765
2.845
2.895
2.965
2.99
3.0
3.045
3.05
3.045
3.05
3.04
3.05
3.06
3.085
3.09
3.1
3.11
3.12
3.12
3.11
3.11
3.115
3.115
3.115
3.135
3.135
3.15
3.165
3.165
3.165
3.175
3.165
3.15
3.15
3.145
3.135
3.145
3.165
3.155
3.18
3.18
3.165
3.185
3.165
3.17
3.16
3.165
3.16
3.16
3.17
3.17
3.175
3.2
3.195
3.2
3.17
3.16
3.14
3.14
3.145
3.155
3.155
3.17
3.165
3.18
3.17
3.17
3.15
3.145
3.15
3.14
3.145
3.145
3.16
3.15
3.165
3.175
3.18
3.17
3.16
3.15
3.13
3.14
3.15
3.145
3.15
3.155
3.15
3.16
3.16
3.135
3.14
3.125
3.115
3.105
3.13
3.13
3.125
3.12
3.12
3.13
3.135
3.135
3.125
3.105
3.095
3.09
3.08
3.085
3.105
3.105
3.11
3.105
3.095
3.08
3.075
3.06
3.055
3.055
3.06
3.05
3.06
3.065
3.075
3.075
3.075
3.06
3.03
3.03
3.035
3.03
3.025
3.02
3.03
3.035
3.04
3.045
3.04
3.03
3.015
3.005
3.015
3.0
3.01
3.005
3.0
3.015
3.02
3.04
3.01
3.015
2.995
2.985
2.985
2.975
2.98
2.97
2.97
2.98
2.985
2.975
2.97
2.97
2.95
2.935
2.935
2.925
2.91
2.92
2.93
2.935
2.955
2.95
2.94
2.94
2.925
2.905
2.9
2.895
2.895
2.895
2.895
2.905
2.895
2.895
2.88
2.88
2.865
2.865
2.86
2.845
2.845
2.815
2.845
2.85
2.855
2.855
2.86
2.835
2.84
2.83
2.815
2.785
2.785
2.785
2.815
2.805
2.805
2.805
2.79
2.785
2.765
2.76
2.755
2.755
2.745
2.75
2.76
2.77
2.77
2.77
2.755
2.755
2.74
2.725
2.715
2.7
2.7
2.71
2.705
2.71
2.715
2.72
2.7
2.695
2.665
2.645
2.65
2.635
2.645
2.64
2.645
2.63
2.645
2.645
2.64
2.625
2.62
2.605
2.6
2.58
2.58
2.565
2.56
2.55
2.57
2.56
2.56
2.55
2.55
2.55
2.54
2.535
2.535
2.55
2.545
2.54
2.54
2.53
2.545
2.54
2.52
2.5
2.5
2.49
2.465
2.465
2.455
2.46
2.475
2.475
2.48
2.46
2.445
2.415
2.4
2.4
2.4
2.395
2.405
2.395
2.4
2.395
2.385
2.375
2.355
2.34
2.335
2.31
2.3
2.295
2.305
2.31
2.32
2.33
2.315
2.305
2.295
2.275
2.26
2.255
2.255
2.235
2.24
2.25
2.245
2.25
2.25
2.235
2.22
2.205
2.175
2.18
2.155
2.155
2.15
2.145
2.155
2.16
2.145
2.135
2.12
2.105
2.1
2.085
2.085
2.07
2.08
2.08
2.09
2.09
2.085
2.085
2.065
2.045
2.04
2.035
2.01
2.015
2.02
2.02
2.015
2.025
1.995
1.98
1.955
1.975
1.935
1.94
1.93
1.93
1.94
1.935
1.93
1.935
1.935
1.93
1.895
1.885
1.86
1.875
1.85
1.84
1.855
1.85
1.85
1.825
1.825
1.815
1.81
1.775
1.76
1.755
1.74
1.735
1.745
1.735
1.745
1.73
1.735
1.715
1.705
1.69
1.67
1.655
1.645
1.635
1.625
1.625
1.61
1.625
1.615
1.585
1.58
1.56
1.54
1.52
1.525
1.515
1.515
1.505
1.525
1.515
1.51
1.5
1.48
1.455
1.44
1.43
1.405
1.39
1.38
1.39
1.39
1.375
1.36
1.345
1.31
1.295
1.26
1.25
1.225
1.205
1.185
1.185
1.18
1.175
1.155
1.11
1.055
0.995
0.89
0.77
0.515
0.095
-0.545
-1.185
-1.825
-2.465
-3.105
-3.745
-4.385
-5.025
-5.12
-5.06
-5.095
-5.12
-5.12
-5.12
-5.12
-5.12
-5.12
-5.12
-5.12
-5.12
-5.12
-5.12
-5.12
-5.12
-5.12
-5.12
-5.12
-5.12
-5.12
-5.12
-5.12
-5.12
-5.12
-5.12
-5.12
-5.12
-5.12
-5.12
-5.12
-5.12
-5.12
-5.12
-5.12
-5.12
-5.12
-5.12
-5.12
-5.12
-5.12
-5.12
-5.12
-5.12
-5.12
-5.12
-5.12
-5.12
-5.12
-5.12
-5.12
-5.12
-5.12
-5.12
-5.12
-5.12
-5.12
-5.12
-5.12
-5.12
-5.12
-5.12
-5.12
-5.12
-5.12
-5.12
-5.12
-5.12
-5.12
-5.12
-5.12
-5.12
-5.12
-5.12
-5.12
-5.12
-5.12
-5.12
-5.12
-5.12
-5.12
-5.12
-5.12
-5.12
-5.12
-5.12
-5.12
-5.12
-5.12
-5.12
-5.12
-5.12
-5.12
-5.12
-5.12
-5.12
-5.12
-5.12
-5.12
-5.12
-5.12
-5.12
-5.12
-5.12
-5.12
-5.12
-5.12
-5.12
-5.12
-5.12
-5.12
-5.12
-5.12
-5.12
-5.12
-5.12
-5.12
-5.12
-5.12
-5.12
-5.12
-5.12
-5.12
-5.12
-5.12
-5.12
-5.12
-5.12
-5.12
-5.12
-5.12
-5.12
-5.12
-5.12
-5.12
-5.12
-5.12
-5.12
-5.12
-5.12
-5.12
-5.12
-5.12
-5.12
-5.12
-5.12
-5.12
-5.12
-5.12
-5.12
-4.85
-4.58
-4.43
-4.405
-4.57
-4.94
-5.12
-5.12
-5.12
-5.12
-5.12
-5.12
-5.12
-5.12
-5.12
-5.12
-5.12
-5.12
-5.12
-5.12
-5.12
-5.12
-5.12
-5.12
-5.12
-5.12
-5.12
-5.12
-5.12
-5.12
-5.12
-5.12
-5.12
-5.12
-5.12
-5.12
-5.12
-5.12
-5.12
-5.12
-5.12
-5.12
-5.12
-5.12
-5.12
-5.12
-5.12
-5.12
-5.12
-5.12
-5.12
-5.12
-5.12
-5.12
-5.12
-5.12
-5.12
-5.12
-5.12
-5.12
-5.12
-5.12
-5.12
-5.12
-5.12
-5.12
-5.12
-5.12
-5.12
-5.12
-5.12
-5.12
-5.12
-5.12
-5.12
-5.12
-5.12
-5.12
-5.12
-5.12
-5.12
-5.12
-5.12
-5.12
-5.12
-5.12
-5.12
-5.12
-5.12
-5.12
-5.12
-5.12
-5.12
-5.12
-5.12
-5.12
-5.12
-5.12
-5.12
-5.12
-5.12
-5.12
-5.12
-5.12
-5.12
-5.12
-5.12
-5.12
-5.12
-5.12
-5.12
-5.12
-5.12
-5.12
-5.12
-5.12
-5.12
-5.12
-5.12
-5.12
-5.12
-5.12
-5.12
-5.12
-5.12
-5.12
-5.12
-5.12
-5.12
-5.12
-5.12
-5.12
-5.12
-5.12
-5.12
-5.12
-5.12
-5.12
-5.12
-5.12
-5.12
-5.12
-5.12
-5.12
-5.12
-5.12
-5.12
-5.12
-5.12
-5.12
-5.12
-5.12
-5.12
-5.12
-5.12
-5.12
-5.12
-5.12
-5.12
-5.12
-5.12
-5.12
-5.12
-5.12
-5.12
-5.12
-5.12
-5.12
-5.12
-5.12
-5.12
-5.12
-5.12
-5.12
-5.12
-5.12
-5.12
-5.12
-5.12
-5.12
-5.12
-5.12
-5.12
-5.12
-5.12
-5.12
-5.12
-5.12
-5.12
-5.12
-5.12
-5.12
-5.12
-5.12
-5.12
-5.12
-5.12
-5.12
-5.12
-5.12
-5.12
-5.12
-5.12
-5.12
-5.12
-5.12
-5.12
-5.12
-5.12
-5.12
-5.12
-5.12
-5.12
-5.12
-5.12
-5.12
-5.12
-5.12
-5.12
-5.12
-5.12
-5.12
-5.12
-5.12
-5.12
-5.12
-5.12
-5.12
-5.12
-5.12
-5.12
-5.12
-5.12
-5.12
-5.12
-5.12
-5.12
-5.12
-5.12
-5.12
-5.12
-5.12
-5.12
-5.12
-5.12
-5.12
-5.12
-5.12
-5.12
-5.12
-5.12
-5.12
-5.12
-5.12
-5.12
-5.12
-5.12
-5.12
-5.12
-5.12
-5.12
-5.01
-4.83
-4.6
-4.31
-3.995
-3.62
-3.21
-2.83
-2.525
-2.35
-2.365
-2.625
-3.185
-3.825
-4.465
-5.105
-5.12
-5.12
-5.12
-5.12
-4.97
-4.87
-4.87
-4.915
-4.97
-5.02
-5.02
-5.01
-5.015
-5.0
-5.0
-5.01
-5.02
-5.015
-5.005
-4.985
-4.975
-4.96
-4.93
-4.92
-4.9
-4.915
-4.91
-4.92
-4.94
-4.92
-4.895
-4.905
-4.865
-4.845
-4.825
-4.82
-4.82
-4.81
-4.8
-4.78
-4.765
-4.75
-4.75
-4.75
-4.74
-4.72
-4.7
-4.665
-4.635
-4.625
-4.635
-4.625
-4.625
-4.615
-4.605
-4.605
-4.59
-4.555
-4.52
-4.48
-4.44
-4.44
-4.42
-4.4
-4.395
-4.365
-4.325
-4.29
-4.27
-4.25
-4.24
-4.26
-4.265
-4.26
-4.26
-4.225
-4.22
-4.21
-4.195
-4.205
-4.21
-4.215
-4.2
-4.21
-4.2
-4.225
-4.235
-4.245
-4.27
-4.28
-4.285
-4.305
-4.31
-4.33
-4.345
-4.365
-4.36
-4.37
-4.38
-4.38
-4.385
-4.39
-4.405
-4.425
-4.425
-4.415
-4.395
-4.385
-4.36
-4.35
-4.345
-4.345
-4.345
-4.355
-4.36
-4.365
-4.36
-4.33
-4.315
-4.295
-4.275
-4.29
-4.295
-4.305
-4.3
-4.3
-4.295
-4.29
-4.275
-4.265
-4.255
-4.235
-4.215
-4.22
-4.22
-4.235
-4.25
-4.26
-4.275
-4.295
-4.26
-4.23
-4.23
-4.215
-4.195
-4.21
-4.19
-4.195
-4.205
-4.205
-4.195
-4.215
-4.195
-4.19
-4.18
-4.175
-4.17
-4.16
-4.155
-4.15
-4.165
-4.175
-4.165
-4.165
-4.175
-4.145
-4.125
-4.115
-4.105
-4.1
-4.085
-4.07
-4.07
-4.07
-4.085
-4.095
-4.1
-4.11
-4.085
-4.05
-4.015
-3.98
-3.96
-3.985
-4.0
-4.05
-4.04
-4.03
-4.0
-3.975
-3.94
-3.945
-3.94
-3.945
-3.94
-3.92
-3.905
-3.9
-3.89
-3.88
-3.885
-3.89
-3.865
-3.84
-3.81
-3.805
-3.78
-3.77
-3.76
-3.785
-3.78
-3.785
-3.79
-3.775
-3.76
-3.755
-3.735
-3.73
-3.75
-3.76
-3.755
-3.765
-3.77
-3.79
-3.815
-3.835
-3.85
-3.86
-3.835
-3.815
-3.815
-3.845
-3.87
-3.875
-3.86
-3.84
-3.845
-3.805
-3.805
-3.78
-3.765
-3.78
-3.79
-3.775
-3.755
-3.705
-3.615
-3.475
-3.225
-2.93
-2.58
-2.2
-1.77
-1.36
-0.98
-0.705
-0.625
-0.87
-1.415
-2.055
-2.695
-3.335
-3.975
-4.245
-4.085
-3.815
-3.59
-3.465
-3.445
-3.495
-3.555
-3.605
-3.66
-3.665
-3.635
-3.635
-3.57
-3.56
-3.55
-3.555
-3.565
-3.575
-3.59
-3.625
-3.61
-3.595
-3.55
-3.52
-3.505
-3.505
-3.49
-3.5
-3.5
-3.505
-3.505
-3.5
-3.51
-3.49
-3.48
-3.465
-3.43
-3.43
-3.415
-3.415
-3.415
-3.415
-3.415
-3.42
-3.42
-3.385
-3.365
-3.34
-3.31
-3.285
-3.275
-3.26
-3.275
-3.26
-3.25
-3.245
-3.24
-3.215
-3.19
-3.17
-3.13
-3.11
-3.095
-3.1
-3.095
-3.09
-3.075
-3.04
-3.02
-2.99
-2.98
-2.96
-2.935
-2.93
-2.95
-2.965
-2.975
-2.995
-2.985
-2.97
-2.95
-2.945
-2.945
-2.95
-2.945
-2.95
-2.945
-2.965
-2.995
-3.035
-3.06
-3.085
-3.115
-3.14
-3.13
-3.13
-3.125
-3.135
-3.15
-3.16
-3.17
-3.185
-3.21
-3.24
-3.245
-3.215
-3.21
-3.2
-3.165
-3.175
-3.18
-3.195
-3.2
-3.195
-3.205
-3.195
-3.18
-3.175
-3.145
-3.145
-3.13
-3.15
-3.155
-3.15
-3.16
-3.145
-3.14
-3.125
-3.11
-3.075
-3.05
-3.045
-3.06
-3.1
-3.115
-3.125
-3.14
-3.125
-3.12
-3.12
-3.12
-3.11
-3.105
-3.075
-3.055
-3.05
-3.04
-3.05
-3.055
-3.06
-3.06
-3.07
-3.055
-3.065
-3.03
-3.065
-3.04
-3.04
-3.02
-3.035
-3.065
-3.08
-3.075
-3.07
-3.065
-3.025
-3.015
-3.005
-3.025
-3.03
-3.03
-3.02
-3.035
-3.0
-2.99
-2.98
-2.97
-2.975
-2.975
-2.955
-2.945
-2.935
-2.945
-2.97
-2.97
-2.97
-2.98
-2.98
-2.975
-2.965
-2.93
-2.915
-2.9
-2.875
-2.855
-2.845
-2.855
-2.855
-2.87
-2.88
-2.905
-2.91
-2.89
-2.85
-2.805
-2.78
-2.77
-2.775
-2.8
-2.795
-2.795
-2.785
-2.77
-2.725
-2.72
-2.675
-2.655
-2.635
-2.625
-2.64
-2.66
-2.695
-2.695
-2.71
-2.725
-2.725
-2.7
-2.68
-2.66
-2.66
-2.655
-2.67
-2.705
-2.755
-2.815
-2.845
-2.845
-2.825
-2.78
-2.755
-2.725
-2.705
-2.715
-2.705
-2.715
-2.705
-2.72
-2.725
-2.735
-2.745
-2.745
-2.74
-2.725
-2.705
-2.685
-2.655
-2.595
-2.49
-2.355
-2.14
-1.885
-1.57
-1.23
-0.825
-0.435
-0.105
0.06
0.0
-0.385
-1.025
-1.665
-2.305
-2.945
-3.225
-3.135
-2.91
-2.66
-2.475
-2.395
-2.39
-2.435
-2.515
-2.58
-2.605
-2.615
-2.595
-2.58
-2.56
-2.545
-2.525
-2.51
-2.5
-2.51
-2.505
-2.505
-2.52
-2.52
-2.535
-2.525
-2.525
-2.49
-2.46
-2.435
-2.43
-2.405
-2.43
-2.43
-2.435
-2.44
-2.405
-2.385
-2.355
-2.33
-2.32
-2.315
-2.305
-2.295
-2.29
-2.285
-2.29
-2.27
-2.245
-2.225
-2.235
-2.23
-2.21
-2.19
-2.17
-2.165
-2.15
-2.13
-2.12
-2.095
-2.07
-2.045
-2.03
-2.03
-2.0
-1.98
-1.97
-1.965
-1.95
-1.95
-1.97
-1.965
-1.95
-1.925
-1.905
-1.895
-1.9
-1.9
-1.91
-1.92
-1.935
-1.95
-1.97
-1.96
-1.97
-1.955
-1.945
-1.93
-1.915
-1.915
-1.94
-1.975
-2.015
-2.05
-2.09
-2.105
-2.115
-2.14
-2.14
-2.14
-2.12
-2.105
-2.12
-2.11
-2.11
-2.105
-2.1
-2.095
-2.1
-2.1
-2.09
-2.08
-2.07
-2.06
-2.05
-2.045
-2.045
-2.04
-2.055
-2.04
-2.045
-2.035
-2.01
-2.0
-1.96
-1.94
-1.93
-1.94
-1.935
-1.94
-1.99
-2.02
-2.045
-2.03
-2.03
-2.005
-1.985
-1.955
-1.95
-1.935
-1.94
-1.935
-1.935
-1.935
-1.92
-1.915
-1.915
-1.93
-1.94
-1.93
-1.935
-1.935
-1.935
-1.945
-1.935
-1.945
-1.935
-1.915
-1.915
-1.92
-1.905
-1.905
-1.915
-1.925
-1.925
-1.905
-1.905
-1.875
-1.855
-1.82
-1.83
-1.85
-1.865
-1.88
-1.88
-1.885
-1.89
-1.915
-1.89
-1.895
-1.875
-1.86
-1.845
-1.84
-1.82
-1.815
-1.805
-1.815
-1.825
-1.835
-1.835
-1.845
-1.82
-1.81
-1.805
-1.76
-1.745
-1.705
-1.695
-1.695
-1.7
-1.715
-1.715
-1.7
-1.71
-1.69
-1.69
-1.655
-1.635
-1.62
-1.62
-1.605
-1.61
-1.605
-1.625
-1.605
-1.605
-1.605
-1.61
-1.605
-1.6
-1.61
-1.62
-1.615
-1.64
-1.69
-1.715
-1.745
-1.755
-1.75
-1.755
-1.75
-1.745
-1.745
-1.735
-1.735
-1.74
-1.735
-1.73
-1.73
-1.74
-1.705
-1.705
-1.685
-1.68
-1.715
-1.7
-1.7
-1.67
-1.625
-1.525
-1.395
-1.215
-0.99
-0.715
-0.37
0.055
0.49
0.89
1.19
1.335
1.22
0.83
0.19
-0.45
-1.09
-1.73
-2.18
-2.155
-1.94
-1.685
-1.48
-1.355
-1.34
-1.405
-1.48
-1.565
-1.625
-1.64
-1.62
-1.58
-1.545
-1.52
-1.545
-1.575
-1.595
-1.58
-1.595
-1.58
-1.56
-1.545
-1.525
-1.515
-1.515
-1.535
-1.53
-1.55
-1.54
-1.53
-1.51
-1.48
-1.46
-1.46
-1.465
-1.465
-1.46
-1.46
-1.45
-1.435
-1.41
-1.39
-1.385
-1.36
-1.36
-1.35
-1.36
-1.34
-1.325
-1.32
-1.3
-1.295
-1.28
-1.25
-1.21
-1.17
-1.135
-1.155
-1.155
-1.165
-1.165
-1.135
-1.125
-1.095
-1.09
-1.055
-1.045
-1.04
-1.03
-1.045
-1.045
-1.04
-1.03
-1.03
-1.02
-1.03
-1.025
-1.025
-1.025
-1.015
-1.02
-1.025
-1.02
-1.025
-1.05
-1.075
-1.11
-1.145
-1.165
-1.19
-1.2
-1.235
-1.235
-1.225
-1.225
-1.23
-1.245
-1.25
-1.28
-1.28
-1.29
-1.305
-1.295
-1.265
-1.255
-1.265
-1.285
-1.325
-1.35
-1.37
-1.355
-1.325
-1.31
-1.3
-1.32
-1.32
-1.305
-1.3
-1.29
-1.265
-1.255
-1.26
-1.27
-1.27
-1.28
-1.285
-1.285
-1.28
-1.265
-1.28
-1.26
-1.24
-1.225
-1.23
-1.255
-1.255
-1.285
-1.295
-1.28
-1.265
-1.26
-1.245
-1.22
-1.21
-1.22
-1.24
-1.235
-1.25
-1.26
-1.235
-1.255
-1.265
-1.275
-1.28
-1.265
-1.26
-1.245
-1.24
-1.245
-1.265
-1.255
-1.24
-1.235
-1.215
-1.215
-1.225
-1.235
-1.25
-1.245
-1.25
-1.245
-1.245
-1.25
-1.245
-1.245
-1.235
-1.23
-1.22
-1.21
-1.21
-1.185
-1.175
-1.165
-1.18
-1.175
-1.185
-1.195
-1.21
-1.205
-1.23
-1.225
-1.205
-1.205
-1.185
-1.195
-1.17
-1.15
-1.135
-1.135
-1.1
-1.075
-1.065
-1.04
-1.035
-1.025
-1.03
-1.04
-1.05
-1.06
-1.045
-1.02
-1.0
-0.98
-0.96
-0.955
-0.955
-0.965
-0.96
-0.955
-0.965
-0.97
-0.97
-1.0
-1.03
-1.05
-1.05
-1.065
-1.06
-1.085
-1.105
-1.125
-1.135
-1.14
-1.145
-1.14
-1.13
-1.105
-1.09
-1.09
-1.08
-1.105
-1.125
-1.115
-1.105
-1.085
-1.105
-1.125
-1.13
-1.125
-1.13
-1.1
-1.055
-1.025
-0.96
-0.87
-0.755
-0.58
-0.35
-0.065
0.285
0.71
1.165
1.62
1.985
2.225
2.28
2.09
1.635
0.995
0.355
-0.285
-0.925
-1.565
-1.64
-1.465
-1.195
-0.975
-0.82
-0.785
-0.82
-0.905
-0.97
-1.025
-1.055
-1.05
-1.025
-1.005
-0.985
-0.97
-0.985
-0.995
-1.025
-1.01
-1.0
-0.995
-0.995
-0.985
-0.96
-0.94
-0.92
-0.92
-0.915
-0.955
-0.98
-0.995
-0.99
-0.975
-0.955
-0.935
-0.92
-0.9
-0.87
-0.87
-0.855
-0.865
-0.87
-0.88
-0.87
-0.875
-0.875
-0.86
-0.83
-0.795
-0.78
-0.74
-0.725
-0.74
-0.755
-0.765
-0.755
-0.755
-0.735
-0.72
-0.69
-0.67
-0.635
-0.63
-0.62
-0.605
-0.59
-0.57
-0.55
-0.535
-0.52
-0.495
-0.475
-0.465
-0.455
-0.455
-0.44
-0.44
-0.43
-0.43
-0.445
-0.455
-0.46
-0.475
-0.47
-0.49
-0.49
-0.495
-0.495
-0.53
-0.55
-0.59
-0.645
-0.65
-0.675
-0.68
-0.705
-0.72
-0.73
-0.735
-0.745
-0.76
-0.795
-0.805
-0.82
-0.85
-0.855
-0.84
-0.84
-0.83
-0.82
-0.83
-0.81
-0.82
-0.83
-0.84
-0.85
-0.84
-0.845
-0.835
-0.825
-0.795
-0.785
-0.78
-0.8
-0.81
-0.825
-0.825
-0.82
-0.815
-0.815
-0.81
-0.815
-0.81
-0.795
-0.78
-0.785
-0.785
-0.815
-0.82
-0.825
-0.825
-0.835
-0.805
-0.815
-0.815
-0.8
-0.77
-0.775
-0.785
-0.815
-0.825
-0.815
-0.825
-0.81
-0.815
-0.81
-0.815
-0.81
-0.81
-0.8
-0.795
-0.81
-0.825
-0.845
-0.875
-0.87
-0.86
-0.84
-0.825
-0.81
-0.805
-0.81
-0.815
-0.83
-0.83
-0.84
-0.83
-0.825
-0.815
-0.795
-0.79
-0.775
-0.78
-0.79
-0.795
-0.845
-0.865
-0.865
-0.85
-0.85
-0.825
-0.815
-0.81
-0.8
-0.8
-0.79
-0.785
-0.775
-0.765
-0.78
-0.775
-0.775
-0.735
-0.71
-0.7
-0.685
-0.69
-0.685
-0.69
-0.685
-0.685
-0.675
-0.675
-0.665
-0.67
-0.665
-0.66
-0.64
-0.64
-0.64
-0.675
-0.705
-0.725
-0.73
-0.745
-0.735
-0.73
-0.73
-0.725
-0.745
-0.755
-0.8
-0.81
-0.825
-0.855
-0.855
-0.865
-0.84
-0.82
-0.805
-0.795
-0.775
-0.78
-0.78
-0.795
-0.795
-0.81
-0.805
-0.815
-0.81
-0.79
-0.74
-0.665
-0.555
-0.39
-0.155
0.11
0.46
0.88
1.31
1.72
2.08
2.345
2.44
2.32
1.945
1.305
0.665
0.025
-0.615
-1.255
-1.35
-1.18
-0.935
-0.68
-0.53
-0.49
-0.52
-0.57
-0.635
-0.7
-0.71
-0.745
-0.745
-0.745
-0.73
-0.725
-0.73
-0.72
-0.7
-0.68
-0.675
-0.665
-0.68
-0.665
-0.665
-0.665
-0.64
-0.61
-0.61
-0.59
-0.585
-0.585
-0.58
-0.575
-0.58
-0.58
-0.57
-0.565
-0.56
-0.55
-0.525
-0.52
-0.495
-0.505
-0.48
-0.485
-0.48
-0.495
-0.495
-0.485
-0.475
-0.445
-0.425
-0.4
-0.38
-0.36
-0.34
-0.32
-0.315
-0.31
-0.31
-0.305
-0.29
-0.26
-0.27
-0.22
-0.2
-0.185
-0.17
-0.165
-0.175
-0.2
-0.185
-0.16
-0.155
-0.125
-0.14
-0.135
-0.145
-0.135
-0.15
-0.17
-0.18
-0.205
-0.225
-0.23
-0.25
-0.26
-0.265
-0.275
-0.28
-0.29
-0.315
-0.34
-0.365
-0.395
-0.39
-0.42
-0.41
-0.415
-0.415
-0.41
-0.405
-0.415
-0.43
-0.435
-0.435
-0.45
-0.455
-0.455
-0.45
-0.465
-0.44
-0.445
-0.435
-0.41
-0.415
-0.425
-0.42
-0.435
-0.43
-0.42
-0.41
-0.4
-0.39
-0.38
-0.385
-0.39
-0.405
-0.41
-0.425
-0.435
-0.42
-0.425
-0.425
-0.425
-0.405
-0.395
-0.38
-0.38
-0.395
-0.405
-0.42
-0.44
-0.435
-0.45
-0.455
-0.445
-0.435
-0.435
-0.415
-0.43
-0.43
-0.44
-0.45
-0.455
-0.475
-0.485
-0.48
-0.48
-0.47
-0.46
-0.445
-0.445
-0.43
-0.45
-0.43
-0.46
-0.46
-0.47
-0.49
-0.47
-0.465
-0.44
-0.435
-0.425
-0.43
-0.44
-0.445
-0.46
-0.46
-0.47
-0.445
-0.45
-0.45
-0.435
-0.42
-0.42
-0.405
-0.42
-0.42
-0.425
-0.425
-0.395
-0.4
-0.4
-0.36
-0.36
-0.35
-0.345
-0.365
-0.375
-0.37
-0.375
-0.355
-0.36
-0.35
-0.33
-0.32
-0.29
-0.26
-0.245
-0.235
-0.225
-0.245
-0.27
-0.275
-0.28
-0.265
-0.27
-0.275
-0.3
-0.29
-0.3
-0.32
-0.325
-0.355
-0.365
-0.39
-0.415
-0.425
-0.435
-0.44
-0.44
-0.44
-0.435
-0.44
-0.45
-0.445
-0.45
-0.46
-0.475
-0.485
-0.47
-0.465
-0.445
-0.435
-0.43
-0.425
-0.375
-0.32
-0.185
0.0
0.24
0.565
0.945
1.35
1.76
2.135
2.42
2.625
2.705
2.62
2.34
1.79
1.15
0.51
-0.13
-0.77
-0.99
-0.78
-0.53
-0.28
-0.17
-0.155
-0.22
-0.315
-0.395
-0.47
-0.475
-0.46
-0.445
-0.42
-0.415
-0.41
-0.425
-0.43
-0.435
-0.435
-0.445
-0.43
-0.41
-0.415
-0.4
-0.41
-0.375
-0.38
-0.375
-0.375
-0.38
-0.395
-0.4
-0.4
-0.39
-0.355
-0.315
-0.295
-0.295
-0.31
-0.33
-0.335
-0.335
-0.33
-0.325
-0.305
-0.3
-0.26
-0.235
-0.22
-0.22
-0.215
-0.205
-0.185
-0.185
-0.165
-0.155
-0.145
-0.14
-0.14
-0.11
-0.085
-0.075
-0.06
-0.045
-0.05
-0.02
0.0
0.015
0.02
0.02
0.02
0.025
0.04
0.04
0.045
0.035
0.03
0.02
-0.005
-0.015
-0.025
-0.025
-0.045
-0.07
-0.075
-0.1
-0.13
-0.155
-0.185
-0.2
-0.22
-0.245
-0.255
-0.275
-0.295
-0.3
-0.305
-0.3
-0.31
-0.325
-0.33
-0.34
-0.36
-0.355
-0.365
-0.36
-0.355
-0.355
-0.34
-0.345
-0.35
-0.345
-0.355
-0.345
-0.34
-0.34
-0.355
-0.345
-0.345
-0.345
-0.33
-0.345
-0.36
-0.355
-0.35
-0.365
-0.35
-0.365
-0.35
-0.335
-0.325
-0.31
-0.295
-0.3
-0.305
-0.315
-0.335
-0.345
-0.355
-0.355
-0.365
-0.37
-0.355
-0.355
-0.345
-0.335
-0.35
-0.35
-0.365
-0.375
-0.385
-0.39
-0.4
-0.39
-0.39
-0.385
-0.385
-0.355
-0.36
-0.36
-0.37
-0.365
-0.365
-0.385
-0.395
-0.39
-0.385
-0.39
-0.375
-0.36
-0.37
-0.365
-0.38
-0.405
-0.4
-0.41
-0.415
-0.39
-0.385
-0.37
-0.365
-0.365
-0.37
-0.385
-0.405
-0.405
-0.405
-0.41
-0.395
-0.395
-0.39
-0.4
-0.39
-0.39
-0.375
-0.385
-0.395
-0.395
-0.385
-0.38
-0.36
-0.335
-0.32
-0.32
-0.295
-0.29
-0.29
-0.29
-0.3
-0.3
-0.305
-0.315
-0.315
-0.29
-0.265
-0.24
-0.23
-0.215
-0.205
-0.215
-0.23
-0.235
-0.25
-0.265
-0.265
-0.265
-0.275
-0.275
-0.28
-0.29
-0.315
-0.345
-0.37
-0.395
-0.415
-0.45
-0.48
-0.475
-0.47
-0.47
-0.46
-0.445
-0.44
-0.44
-0.455
-0.46
-0.45
-0.455
-0.455
-0.43
-0.415
-0.42
-0.415
-0.44
-0.435
-0.41
-0.37
-0.31
-0.21
-0.075
0.09
0.325
0.59
0.885
1.26
1.64
2.03
2.395
2.685
2.83
2.825
2.545
1.985
1.345
0.705
0.065
-0.575
-0.99
-0.835
-0.545
-0.305
-0.135
-0.1
-0.16
-0.275
-0.355
-0.405
-0.43
-0.425
-0.41
-0.4
-0.395
-0.42
-0.42
-0.43
-0.435
-0.43
-0.43
-0.41
-0.395
-0.375
-0.375
-0.38
-0.365
-0.375
-0.38
-0.38
-0.39
-0.385
-0.39
-0.385
-0.375
-0.375
-0.335
-0.32
-0.305
-0.31
-0.315
-0.32
-0.33
-0.325
-0.31
-0.31
-0.275
-0.245
-0.22
-0.21
-0.21
-0.235
-0.245
-0.27
-0.26
-0.25
-0.21
-0.175
-0.15
-0.13
-0.11
-0.09
-0.085
-0.08
-0.065
-0.06
-0.04
-0.01
-0.005
0.03
0.045
0.055
0.055
0.065
0.065
0.06
0.055
0.04
0.035
0.04
0.05
0.04
0.035
0.04
0.035
0.005
-0.025
-0.035
-0.06
-0.07
-0.1
-0.125
-0.16
-0.185
-0.205
-0.23
-0.235
-0.25
-0.255
-0.27
-0.29
-0.315
-0.36
-0.38
-0.37
-0.365
-0.36
-0.34
-0.35
-0.345
-0.365
-0.365
-0.375
-0.4
-0.39
-0.4
-0.395
-0.375
-0.37
-0.345
-0.35
-0.34
-0.35
-0.355
-0.365
-0.36
-0.37
-0.365
-0.365
-0.36
-0.355
-0.35
-0.33
-0.35
-0.355
-0.36
-0.38
-0.39
-0.39
-0.395
-0.385
-0.37
-0.375
-0.375
-0.395
-0.38
-0.395
-0.395
-0.41
-0.41
-0.42
-0.435
-0.425
-0.41
-0.41
-0.405
-0.405
-0.415
-0.425
-0.445
-0.455
-0.45
-0.46
-0.46
-0.45
-0.44
-0.42
-0.41
-0.415
-0.41
-0.44
-0.445
-0.455
-0.44
-0.445
-0.445
-0.43
-0.43
-0.425
-0.42
-0.43
-0.455
-0.45
-0.45
-0.45
-0.44
-0.445
-0.46
-0.465
-0.445
-0.45
-0.425
-0.425
-0.43
-0.445
-0.435
-0.445
-0.445
-0.435
-0.425
-0.395
-0.375
-0.36
-0.355
-0.35
-0.335
-0.345
-0.35
-0.36
-0.365
-0.36
-0.37
-0.355
-0.335
-0.295
-0.28
-0.265
-0.26
-0.285
-0.315
-0.32
-0.34
-0.355
-0.36
-0.37
-0.38
-0.355
-0.365
-0.365
-0.385
-0.405
-0.435
-0.46
-0.48
-0.505
-0.52
-0.54
-0.56
-0.555
-0.535
-0.53
-0.5
-0.49
-0.5
-0.52
-0.54
-0.54
-0.55
-0.545
-0.54
-0.515
-0.515
-0.495
-0.515
-0.47
-0.42
-0.33
-0.18
0.035
0.29
0.62
0.965
1.35
1.75
2.14
2.48
2.72
2.82
2.73
2.325
1.685
1.045
0.405
-0.235
-0.875
-1.04
-0.825
-0.575
-0.37
-0.3
-0.29
-0.34
-0.42
-0.495
-0.53
-0.53
-0.51
-0.505
-0.5
-0.525
-0.51
-0.525
-0.53
-0.54
-0.545
-0.565
-0.555
-0.52
-0.51
-0.51
-0.485
-0.475
-0.475
-0.48
-0.495
-0.49
-0.495
-0.5
-0.49
-0.485
-0.46
-0.465
-0.455
-0.455
-0.45
-0.445
-0.445
-0.44
-0.44
-0.43
-0.42
-0.39
-0.36
-0.35
-0.35
-0.34
-0.335
-0.345
-0.34
-0.345
-0.345
-0.32
-0.32
-0.275
-0.265
-0.22
-0.19
-0.2
-0.17
-0.16
-0.155
-0.15
-0.14
-0.14
-0.125
-0.1
-0.095
-0.08
-0.055
-0.065
-0.07
-0.075
-0.06
-0.065
-0.075
-0.09
-0.1
-0.085
-0.09
-0.105
-0.125
-0.13
-0.155
-0.175
-0.21
-0.225
-0.26
-0.295
-0.315
-0.32
-0.36
-0.365
-0.38
-0.395
-0.415
-0.46
-0.465
-0.485
-0.5
-0.5
-0.505
-0.5
-0.495
-0.49
-0.485
-0.495
-0.495
-0.515
-0.535
-0.545
-0.545
-0.55
-0.535
-0.52
-0.51
-0.52
-0.515
-0.52
-0.52
-0.53
-0.525
-0.52
-0.525
-0.54
-0.525
-0.535
-0.525
-0.515
-0.51
-0.51
-0.51
-0.53
-0.555
-0.565
-0.565
-0.56
-0.555
-0.55
-0.54
-0.55
-0.55
-0.555
-0.56
-0.565
-0.585
-0.595
-0.605
-0.61
-0.61
-0.585
-0.595
-0.58
-0.6
-0.605
-0.61
-0.635
-0.65
-0.65
-0.67
-0.66
-0.65
-0.645
-0.62
-0.61
-0.625
-0.615
-0.625
-0.635
-0.65
-0.65
-0.665
-0.665
-0.65
-0.64
-0.63
-0.62
-0.61
-0.62
-0.64
-0.64
-0.635
-0.645
-0.625
-0.62
-0.62
-0.625
-0.625
-0.62
-0.605
-0.59
-0.575
-0.575
-0.55
-0.555
-0.55
-0.56
-0.565
-0.55
-0.555
-0.545
-0.53
-0.52
-0.515
-0.48
-0.475
-0.475
-0.49
-0.505
-0.51
-0.52
-0.5
-0.505
-0.5
-0.51
-0.525
-0.53
-0.555
-0.575
-0.605
-0.62
-0.645
-0.64
-0.655
-0.665
-0.655
-0.655
-0.655
-0.66
-0.665
-0.665
-0.655
-0.665
-0.66
-0.65
-0.64
-0.625
-0.615
-0.625
-0.62
-0.635
-0.64
-0.62
-0.565
-0.455
-0.31
-0.09
0.2
0.53
0.91
1.28
1.615
1.87
2.01
1.965
1.72
1.23
0.59
-0.05
-0.69
-1.14
-1.265
-1.145
-0.95
-0.71
-0.56
-0.48
-0.48
-0.52
-0.58
-0.61
-0.635
-0.625
-0.615
-0.595
-0.58
-0.585
-0.57
-0.59
-0.585
-0.595
-0.605
-0.595
-0.595
-0.565
-0.555
-0.54
-0.54
-0.52
-0.52
-0.52
-0.52
-0.525
-0.515
-0.51
-0.525
-0.5
-0.49
-0.5
-0.49
-0.48
-0.47
-0.485
-0.485
-0.475
-0.475
-0.445
-0.415
-0.405
-0.385
-0.38
-0.385
-0.385
-0.375
-0.39
-0.38
-0.37
-0.385
-0.35
-0.315
-0.3
-0.265
