Lead II
-0.335
-0.335
-0.325
-0.32
-0.33
-0.33
-0.32
-0.325
-0.32
-0.33
-0.325
-0.31
-0.315
-0.3
-0.28
-0.265
-0.25
-0.235
-0.225
-0.21
-0.2
-0.195
-0.2
-0.205
-0.21
-0.215
-0.22
-0.215
-0.195
-0.195
-0.2
-0.21
-0.23
-0.24
-0.27
-0.3
-0.32
-0.315
-0.315
-0.305
-0.3
-0.32
-0.335
-0.35
-0.355
-0.36
-0.365
-0.365
-0.36
-0.35
-0.34
-0.35
-0.355
-0.355
-0.355
-0.35
-0.355
-0.365
-0.375
-0.355
-0.36
-0.36
-0.36
-0.36
-0.355
-0.36
-0.345
-0.345
-0.345
-0.345
-0.34
-0.34
-0.35
-0.345
-0.34
-0.33
-0.32
-0.3
-0.25
-0.2
-0.09
0.05
0.22
0.425
0.665
0.915
1.15
1.33
1.385
1.295
1.045
0.65
0.175
-0.345
-0.825
-1.21
-1.435
-1.44
-1.305
-1.08
-0.84
-0.625
-0.455
-0.335
-0.26
-0.21
-0.21
-0.215
-0.24
-0.235
-0.235
-0.225
-0.225
-0.205
-0.19
-0.185
-0.185
-0.19
-0.195
-0.195
-0.195
-0.195
-0.19
-0.185
-0.16
-0.15
-0.135
-0.135
-0.13
-0.135
-0.14
-0.14
-0.15
-0.13
-0.115
-0.1
-0.09
-0.075
-0.065
-0.06
-0.06
-0.05
-0.065
-0.05
-0.025
-0.02
-0.01
0.015
0.02
0.035
0.055
0.06
0.065
0.08
0.095
0.095
0.125
0.135
0.15
0.165
0.18
0.205
0.215
0.225
0.235
0.24
0.25
0.245
0.245
0.245
0.255
0.25
0.26
0.27
0.28
0.285
0.28
0.27
0.265
0.25
0.24
0.225
0.22
0.225
0.195
0.2
0.175
0.145
0.12
0.085
0.05
0.005
-0.03
-0.05
-0.07
-0.085
-0.115
-0.125
-0.15
-0.18
-0.195
-0.215
-0.225
-0.245
-0.25
-0.255
-0.27
-0.28
-0.28
-0.285
-0.28
-0.285
-0.29
-0.29
-0.3
-0.3
-0.32
-0.31
-0.31
-0.3
-0.3
-0.295
-0.28
-0.29
-0.295
-0.31
-0.315
-0.31
-0.315
-0.32
-0.3
-0.295
-0.285
-0.26
-0.26
-0.265
-0.275
-0.28
-0.3
-0.305
-0.315
-0.31
-0.305
-0.295
-0.275
-0.275
-0.275
-0.285
-0.3
-0.305
-0.305
-0.32
-0.31
-0.305
-0.29
-0.28
-0.285
-0.28
-0.275
-0.28
-0.29
-0.29
-0.29
-0.295
-0.3
-0.3
-0.305
-0.315
-0.295
-0.3
-0.295
-0.305
-0.3
-0.31
-0.31
-0.32
-0.315
-0.335
-0.33
-0.33
-0.33
-0.325
-0.295
-0.29
-0.3
-0.31
-0.32
-0.32
-0.335
-0.335
-0.33
-0.33
-0.315
-0.31
-0.32
-0.325
-0.315
-0.325
-0.33
-0.33
-0.32
-0.32
-0.295
-0.29
-0.27
-0.245
-0.24
-0.23
-0.24
-0.225
-0.225
-0.205
-0.21
-0.205
-0.205
-0.21
-0.195
-0.195
-0.205
-0.195
-0.21
-0.235
-0.23
-0.265
-0.27
-0.3
-0.3
-0.305
-0.31
-0.305
-0.31
-0.32
-0.32
-0.36
-0.37
-0.38
-0.39
-0.395
-0.385
-0.375
-0.36
-0.36
-0.36
-0.36
-0.37
-0.38
-0.38
-0.385
-0.385
-0.385
-0.38
-0.38
-0.37
-0.36
-0.35
-0.35
-0.35
-0.365
-0.355
-0.375
-0.365
-0.36
-0.355
-0.335
-0.33
-0.32
-0.31
-0.29
-0.255
-0.185
-0.075
0.08
0.25
0.47
0.7
0.94
1.15
1.3
1.335
1.255
1.025
0.65
0.2
-0.28
-0.75
-1.15
-1.375
-1.43
-1.325
-1.125
-0.89
-0.675
-0.515
-0.395
-0.315
-0.27
-0.255
-0.23
-0.225
-0.24
-0.24
-0.24
-0.23
-0.235
-0.23
-0.22
-0.22
-0.205
-0.215
-0.21
-0.2
-0.195
-0.19
-0.185
-0.195
-0.185
-0.175
-0.16
-0.16
-0.15
-0.14
-0.14
-0.13
-0.13
-0.125
-0.115
-0.1
-0.095
-0.07
-0.08
-0.07
-0.075
-0.075
-0.065
-0.055
-0.055
-0.035
-0.025
0.005
0.01
0.03
0.03
0.035
0.04
0.045
0.06
0.065
0.09
0.11
0.135
0.15
0.165
0.175
0.17
0.175
0.18
0.195
0.205
0.215
0.215
0.235
0.245
0.25
0.26
0.26
0.26
0.255
0.255
0.25
0.25
0.255
0.245
0.24
0.235
0.225
0.215
0.195
0.17
0.145
0.105
0.075
0.025
0.01
-0.01
-0.035
-0.04
-0.065
-0.085
-0.115
-0.145
-0.17
-0.195
-0.22
-0.23
-0.23
-0.24
-0.24
-0.245
-0.25
-0.255
-0.265
-0.265
-0.275
-0.285
-0.285
-0.285
-0.285
-0.29
-0.285
-0.285
-0.29
-0.295
-0.295
-0.305
-0.285
-0.29
-0.29
-0.295
-0.305
-0.28
-0.28
-0.275
-0.265
-0.255
-0.265
-0.265
-0.26
-0.28
-0.275
-0.295
-0.295
-0.28
-0.28
-0.26
-0.245
-0.25
-0.255
-0.27
-0.28
-0.29
-0.295
-0.29
-0.29
-0.29
-0.28
-0.275
-0.285
-0.295
-0.29
-0.295
-0.295
-0.295
-0.305
-0.305
-0.31
-0.315
-0.31
-0.315
-0.315
-0.31
-0.305
-0.315
-0.325
-0.33
-0.345
-0.345
-0.345
-0.335
-0.335
-0.315
-0.31
-0.315
-0.33
-0.33
-0.345
-0.345
-0.355
-0.355
-0.355
-0.345
-0.33
-0.31
-0.315
-0.29
-0.29
-0.275
-0.29
-0.28
-0.26
-0.25
-0.23
-0.225
-0.22
-0.215
-0.2
-0.185
-0.195
-0.205
-0.215
-0.23
-0.24
-0.245
-0.265
-0.275
-0.285
-0.31
-0.3
-0.305
-0.315
-0.32
-0.33
-0.36
-0.375
-0.395
-0.405
-0.4
-0.395
-0.395
-0.375
-0.38
-0.39
-0.39
-0.4
-0.405
-0.42
-0.41
-0.415
-0.4
-0.395
-0.39
-0.39
-0.39
-0.4
-0.39
-0.395
-0.4
-0.4
-0.4
-0.385
-0.38
-0.375
-0.355
-0.35
-0.35
-0.345
-0.33
-0.32
-0.305
-0.27
-0.2
-0.09
0.06
0.24
0.465
0.705
0.95
1.155
1.29
1.31
1.19
0.94
0.58
0.135
-0.365
-0.855
-1.25
-1.455
-1.46
-1.3
-1.055
-0.81
-0.585
-0.415
-0.32
-0.255
-0.23
-0.235
-0.24
-0.255
-0.26
-0.27
-0.265
-0.26
-0.275
-0.255
-0.255
-0.25
-0.23
-0.23
-0.225
-0.22
-0.205
-0.205
-0.215
-0.2
-0.19
-0.185
-0.19
-0.19
-0.175
-0.165
-0.16
-0.155
-0.14
-0.15
-0.135
-0.13
-0.135
-0.13
-0.13
-0.125
-0.115
-0.09
-0.055
-0.04
-0.035
-0.025
-0.015
-0.03
-0.02
-0.025
-0.01
0.005
0.03
0.055
0.06
0.085
0.11
0.115
0.12
0.125
0.125
0.14
0.15
0.18
0.2
0.215
0.225
0.235
0.245
0.235
0.25
0.24
0.245
0.25
0.245
0.25
0.26
0.255
0.26
0.25
0.245
0.245
0.235
0.22
0.205
0.185
0.165
0.135
0.12
0.1
0.08
0.055
0.035
-0.005
-0.02
-0.055
-0.08
-0.095
-0.125
-0.155
-0.17
-0.19
-0.2
-0.2
-0.195
-0.205
-0.23
-0.245
-0.265
-0.285
-0.29
-0.31
-0.325
-0.3
-0.29
-0.28
-0.29
-0.29
-0.305
-0.32
-0.325
-0.32
-0.325
-0.315
-0.305
-0.3
-0.3
-0.295
-0.295
-0.295
-0.305
-0.305
-0.31
-0.295
-0.31
-0.305
-0.285
-0.305
-0.29
-0.3
-0.3
-0.295
-0.28
-0.29
-0.29
-0.3
-0.295
-0.305
-0.29
-0.28
-0.28
-0.27
-0.275
-0.275
-0.285
-0.29
-0.3
-0.305
-0.31
-0.31
-0.31
-0.305
-0.285
-0.28
-0.275
-0.285
-0.295
-0.305
-0.32
-0.33
-0.33
-0.325
-0.315
-0.325
-0.315
-0.305
-0.315
-0.32
-0.33
-0.33
-0.34
-0.345
-0.335
-0.335
-0.335
-0.33
-0.325
-0.315
-0.315
-0.315
-0.325
-0.325
-0.33
-0.33
-0.325
-0.32
-0.32
-0.295
-0.285
-0.275
-0.255
-0.245
-0.235
-0.245
-0.23
-0.22
-0.22
-0.2
-0.19
-0.185
-0.18
-0.17
-0.18
-0.185
-0.195
-0.215
-0.23
-0.235
-0.25
-0.27
-0.275
-0.285
-0.295
-0.3
-0.305
-0.305
-0.335
-0.345
-0.37
-0.385
-0.4
-0.4
-0.39
-0.39
-0.39
-0.39
-0.38
-0.38
-0.385
-0.405
-0.405
-0.405
-0.405
-0.4
-0.4
-0.395
-0.395
-0.38
-0.385
-0.38
-0.385
-0.385
-0.39
-0.415
-0.41
-0.4
-0.38
-0.375
-0.36
-0.355
-0.35
-0.33
-0.335
-0.325
-0.315
-0.285
-0.22
-0.105
0.04
0.255
0.495
0.765
1.02
1.215
1.33
1.32
1.16
0.865
0.44
-0.06
-0.6
-1.1
-1.45
-1.595
-1.495
-1.24
-0.94
-0.66
-0.425
-0.275
-0.215
-0.195
-0.215
-0.245
-0.26
-0.27
-0.27
-0.26
-0.24
-0.245
-0.24
-0.245
-0.24
-0.245
-0.24
-0.235
-0.205
-0.195
-0.18
-0.165
-0.175
-0.18
-0.19
-0.19
-0.19
-0.17
-0.16
-0.145
-0.135
-0.13
-0.12
-0.12
-0.115
-0.115
-0.115
-0.11
-0.105
-0.085
-0.08
-0.06
-0.055
-0.04
-0.03
-0.015
-0.02
0.0
-0.01
0.015
0.03
0.025
0.055
0.06
0.08
0.095
0.115
0.13
0.15
0.15
0.175
0.17
0.19
0.195
0.215
0.22
0.22
0.245
0.25
0.25
0.26
0.25
0.24
0.23
0.23
0.24
0.25
0.25
0.255
0.245
0.24
0.235
0.22
0.195
0.16
0.13
0.105
0.085
0.07
0.06
0.04
0.015
-0.02
-0.055
-0.075
-0.105
-0.135
-0.145
-0.175
-0.18
-0.2
-0.215
-0.23
-0.25
-0.255
-0.26
-0.26
-0.275
-0.27
-0.285
-0.295
-0.3
-0.3
-0.3
-0.305
-0.31
-0.305
-0.305
-0.305
-0.31
-0.31
-0.315
-0.315
-0.315
-0.33
-0.33
-0.32
-0.3
-0.295
-0.3
-0.305
-0.305
-0.31
-0.315
-0.31
-0.305
-0.305
-0.29
-0.275
-0.28
-0.28
-0.28
-0.29
-0.3
-0.31
-0.305
-0.31
-0.305
-0.295
-0.29
-0.29
-0.29
-0.285
-0.29
-0.305
-0.32
-0.315
-0.32
-0.325
-0.325
-0.315
-0.315
-0.32
-0.33
-0.325
-0.315
-0.335
-0.335
-0.33
-0.34
-0.34
-0.34
-0.355
-0.35
-0.355
-0.345
-0.355
-0.35
-0.345
-0.35
-0.355
-0.36
-0.38
-0.375
-0.38
-0.38
-0.37
-0.355
-0.365
-0.345
-0.36
-0.37
-0.375
-0.38
-0.385
-0.385
-0.375
-0.37
-0.36
-0.36
-0.365
-0.35
-0.36
-0.365
-0.37
-0.375
-0.375
-0.37
-0.365
-0.355
-0.35
-0.34
-0.33
-0.33
-0.33
-0.33
-0.32
-0.305
-0.3
-0.285
-0.27
-0.27
-0.255
-0.23
-0.23
-0.215
-0.205
-0.225
-0.23
-0.225
-0.245
-0.24
-0.24
-0.25
-0.26
-0.27
-0.275
-0.295
-0.31
-0.32
-0.33
-0.34
-0.355
-0.365
-0.385
-0.395
-0.395
-0.4
-0.405
-0.41
-0.405
-0.405
-0.42
-0.415
-0.41
-0.43
-0.43
-0.42
-0.415
-0.385
-0.395
-0.41
-0.4
-0.405
-0.41
-0.405
-0.42
-0.4
-0.405
-0.38
-0.375
-0.385
-0.375
-0.38
-0.37
-0.375
-0.39
-0.38
-0.375
-0.365
-0.35
-0.32
-0.29
-0.21
-0.095
0.065
0.27
0.49
0.735
0.97
1.165
1.285
1.295
1.17
0.945
0.6
0.175
-0.3
-0.77
-1.205
-1.485
-1.57
-1.44
-1.205
-0.915
-0.645
-0.44
-0.295
-0.225
-0.21
-0.225
-0.265
-0.28
-0.29
-0.29
-0.285
-0.265
-0.245
-0.22
-0.225
-0.215
-0.215
-0.22
-0.245
-0.245
-0.225
-0.225
-0.225
-0.205
-0.195
-0.18
-0.175
-0.17
-0.17
-0.165
-0.16
-0.17
-0.165
-0.155
-0.145
-0.13
-0.125
-0.115
-0.085
-0.09
-0.06
-0.06
-0.055
-0.055
-0.05
-0.06
-0.05
-0.025
-0.005
0.02
0.03
0.04
0.05
0.055
0.065
0.065
0.08
0.095
0.1
0.12
0.145
0.155
0.165
0.16
0.18
0.195
0.195
0.2
0.205
0.2
0.195
0.19
0.195
0.21
0.21
0.215
0.22
0.205
0.2
0.18
0.165
0.135
0.12
0.105
0.095
0.07
0.055
0.03
0.01
-0.025
-0.05
-0.1
-0.13
-0.155
-0.185
-0.175
-0.18
-0.195
-0.21
-0.225
-0.23
-0.25
-0.265
-0.275
-0.285
-0.295
-0.295
-0.305
-0.285
-0.29
-0.295
-0.3
-0.295
-0.295
-0.31
-0.315
-0.305
-0.31
-0.32
-0.315
-0.305
-0.3
-0.295
-0.31
-0.28
-0.29
-0.285
-0.29
-0.305
-0.3
-0.305
-0.31
-0.3
-0.29
-0.27
-0.28
-0.27
-0.275
-0.285
-0.3
-0.295
-0.305
-0.285
-0.29
-0.29
-0.28
-0.295
-0.285
-0.295
-0.305
-0.305
-0.315
-0.315
-0.32
-0.325
-0.32
-0.32
-0.325
-0.325
-0.32
-0.315
-0.31
-0.32
-0.325
-0.34
-0.345
-0.36
-0.35
-0.355
-0.345
-0.35
-0.345
-0.34
-0.34
-0.35
-0.365
-0.355
-0.37
-0.37
-0.37
-0.36
-0.36
-0.36
-0.36
-0.36
-0.35
-0.37
-0.37
-0.375
-0.37
-0.385
-0.385
-0.38
-0.37
-0.365
-0.375
-0.36
-0.375
-0.37
-0.38
-0.38
-0.39
-0.385
-0.38
-0.39
-0.375
-0.37
-0.36
-0.365
-0.365
-0.37
-0.37
-0.38
-0.385
-0.385
-0.395
-0.385
-0.38
-0.37
-0.365
-0.365
-0.365
-0.37
-0.38
-0.385
-0.4
-0.39
-0.385
-0.365
-0.35
-0.325
-0.315
-0.305
-0.295
-0.295
-0.305
-0.29
-0.285
-0.265
-0.245
-0.235
-0.23
-0.22
-0.22
-0.22
-0.235
-0.245
-0.245
-0.255
-0.265
-0.28
-0.3
-0.31
-0.31
-0.325
-0.34
-0.33
-0.345
-0.375
-0.38
-0.39
-0.415
-0.42
-0.43
-0.43
-0.425
-0.415
-0.405
-0.405
-0.4
-0.41
-0.42
-0.425
-0.425
-0.425
-0.42
-0.42
-0.405
-0.405
-0.39
-0.4
-0.4
-0.41
-0.41
-0.42
-0.415
-0.41
-0.385
-0.385
-0.38
-0.365
-0.365
-0.36
-0.36
-0.35
-0.335
-0.305
-0.25
-0.16
-0.025
0.135
0.325
0.56
0.77
0.98
1.125
1.175
1.1
0.9
0.59
0.185
-0.255
-0.68
-1.045
-1.27
-1.335
-1.25
-1.055
-0.83
-0.625
-0.455
-0.345
-0.295
-0.26
-0.255
-0.255
-0.26
-0.27
-0.26
-0.26
-0.265
-0.26
-0.255
-0.26
-0.25
-0.245
-0.235
-0.22
-0.21
-0.205
-0.215
-0.205
-0.215
-0.2
-0.2
-0.2
-0.195
-0.18
-0.175
-0.17
-0.165
-0.16
-0.16
-0.145
-0.135
-0.13
-0.135
-0.115
-0.11
-0.12
-0.1
-0.09
-0.08
-0.065
-0.055
-0.04
-0.035
-0.03
-0.03
-0.035
-0.03
0.0
0.005
0.035
0.05
0.055
0.07
0.085
0.09
0.085
0.085
0.095
0.1
0.13
0.13
0.15
0.16
0.17
0.175
0.17
0.16
0.16
0.165
0.155
0.15
0.16
0.155
0.16
0.17
0.165
0.17
0.15
0.14
0.13
0.11
0.105
0.075
0.055
0.04
0.005
0.01
-0.015
-0.04
-0.065
-0.09
-0.12
-0.145
-0.165
-0.195
-0.205
-0.215
-0.22
-0.235
-0.23
-0.24
-0.255
-0.26
-0.275
-0.295
-0.305
-0.315
-0.295
-0.295
-0.295
-0.29
-0.285
-0.285
-0.29
-0.3
-0.295
-0.32
-0.31
-0.32
-0.3
-0.295
-0.285
-0.285
-0.28
-0.275
-0.29
-0.3
-0.285
-0.285
-0.285
-0.285
-0.285
-0.29
-0.3
-0.275
-0.27
-0.26
-0.26
-0.265
-0.28
-0.28
-0.29
-0.305
-0.305
-0.29
-0.3
-0.285
-0.28
-0.285
-0.28
-0.29
-0.305
-0.31
-0.32
-0.32
-0.315
-0.305
-0.31
-0.3
-0.32
-0.315
-0.325
-0.335
-0.33
-0.335
-0.345
-0.34
-0.345
-0.345
-0.34
-0.325
-0.32
-0.33
-0.335
-0.34
-0.34
-0.345
-0.345
-0.355
-0.345
-0.345
-0.35
-0.365
-0.335
-0.345
-0.35
-0.36
-0.36
-0.36
-0.365
-0.375
-0.375
-0.365
-0.36
-0.35
-0.345
-0.34
-0.345
-0.35
-0.36
-0.355
-0.365
-0.375
-0.375
-0.36
-0.355
-0.345
-0.345
-0.355
-0.355
-0.355
-0.37
-0.365
-0.375
-0.38
-0.37
-0.38
-0.37
-0.37
-0.365
-0.37
-0.365
-0.365
-0.37
-0.375
-0.395
-0.39
-0.385
-0.375
-0.385
-0.355
-0.35
-0.35
-0.35
-0.35
-0.36
-0.365
-0.37
-0.365
-0.345
-0.325
-0.3
-0.285
-0.28
-0.28
-0.27
-0.26
-0.255
-0.255
-0.245
-0.25
-0.24
-0.23
-0.235
-0.24
-0.24
-0.25
-0.245
-0.265
-0.275
-0.29
-0.31
-0.325
-0.33
-0.335
-0.345
-0.34
-0.35
-0.37
-0.38
-0.39
-0.4
-0.415
-0.425
-0.42
-0.425
-0.42
-0.42
-0.405
-0.405
-0.405
-0.41
-0.41
-0.425
-0.425
-0.435
-0.43
-0.43
-0.425
-0.41
-0.405
-0.4
-0.39
-0.39
-0.4
-0.4
-0.39
-0.39
-0.385
-0.37
-0.345
-0.32
-0.3
-0.275
-0.22
-0.16
-0.065
0.04
0.165
0.31
0.47
0.625
0.73
0.76
0.725
0.59
0.37
0.095
-0.205
-0.51
-0.755
-0.905
-0.945
-0.915
-0.825
-0.7
-0.595
-0.49
-0.4
-0.335
-0.31
-0.295
-0.3
-0.315
-0.32
-0.3
-0.285
-0.3
-0.275
-0.27
-0.26
-0.255
-0.26
-0.26
-0.26
-0.255
-0.265
-0.245
-0.26
-0.235
-0.225
-0.215
-0.195
-0.195
-0.19
-0.195
-0.195
-0.19
-0.19
-0.17
-0.16
-0.15
-0.13
-0.12
-0.105
-0.1
-0.105
-0.105
-0.125
-0.1
-0.095
-0.09
-0.06
-0.06
-0.035
-0.02
-0.01
0.0
0.01
0.0
0.015
0.015
0.03
0.035
0.075
0.09
0.09
0.095
0.12
0.135
0.13
0.14
0.125
0.13
0.135
0.135
0.15
0.15
0.16
0.18
0.175
0.19
0.17
0.17
0.165
0.145
0.14
0.13
0.115
0.125
0.11
0.1
0.085
0.08
0.05
0.005
-0.025
-0.05
-0.075
-0.095
-0.105
-0.125
-0.145
-0.155
-0.17
-0.185
-0.22
-0.225
-0.255
-0.265
-0.27
-0.28
-0.29
-0.285
-0.29
-0.31
-0.305
-0.3
-0.305
-0.31
-0.315
-0.32
-0.315
-0.315
-0.315
-0.315
-0.31
-0.32
-0.295
-0.3
-0.29
-0.285
-0.3
-0.29
-0.305
-0.31
-0.305
-0.295
-0.3
-0.275
-0.275
-0.28
-0.285
-0.29
-0.3
-0.3
-0.315
-0.315
-0.305
-0.3
-0.285
-0.295
-0.29
-0.305
-0.305
-0.31
-0.31
-0.32
-0.325
-0.325
-0.315
-0.315
-0.305
-0.315
-0.315
-0.31
-0.325
-0.32
-0.33
-0.34
-0.34
-0.35
-0.345
-0.345
-0.34
-0.345
-0.335
-0.345
-0.34
-0.355
-0.345
-0.365
-0.375
-0.375
-0.37
-0.37
-0.365
-0.355
-0.355
-0.355
-0.35
-0.365
-0.365
-0.38
-0.385
-0.395
-0.385
-0.38
-0.365
-0.355
-0.355
-0.36
-0.38
-0.39
-0.38
-0.395
-0.39
-0.4
-0.38
-0.37
-0.38
-0.37
-0.37
-0.375
-0.37
-0.38
-0.38
-0.385
-0.38
-0.385
-0.385
-0.375
-0.38
-0.38
-0.375
-0.38
-0.38
-0.375
-0.38
-0.39
-0.385
-0.38
-0.385
-0.37
-0.365
-0.345
-0.325
-0.325
-0.32
-0.3
-0.31
-0.3
-0.285
-0.275
-0.265
-0.25
-0.24
-0.225
-0.24
-0.235
-0.225
-0.245
-0.245
-0.255
-0.27
-0.275
-0.285
-0.3
-0.305
-0.31
-0.325
-0.335
-0.34
-0.35
-0.36
-0.385
-0.39
-0.395
-0.415
-0.415
-0.395
-0.39
-0.39
-0.4
-0.39
-0.405
-0.41
-0.415
-0.4
-0.415
-0.415
-0.41
-0.395
-0.4
-0.385
-0.39
-0.4
-0.405
-0.395
-0.39
-0.395
-0.4
-0.38
-0.38
-0.36
-0.355
-0.35
-0.345
-0.35
-0.355
-0.345
-0.325
-0.29
-0.2
-0.09
0.05
0.22
0.42
0.635
0.855
1.05
1.185
1.225
1.155
0.965
0.655
0.265
-0.175
-0.615
-0.995
-1.23
-1.32
-1.27
-1.125
-0.945
-0.765
-0.625
-0.505
-0.405
-0.335
-0.28
-0.245
-0.245
-0.235
-0.235
-0.24
-0.25
-0.255
-0.25
-0.245
-0.23
-0.245
-0.215
-0.205
-0.19
-0.19
-0.195
-0.195
-0.195
-0.19
-0.195
-0.195
-0.175
-0.165
-0.155
-0.135
-0.13
-0.13
-0.125
-0.125
-0.13
-0.125
-0.125
-0.105
-0.095
-0.08
-0.065
-0.055
-0.05
-0.035
-0.035
-0.03
-0.025
-0.01
-0.005
0.0
0.01
0.02
0.03
0.055
0.08
0.09
0.11
0.11
0.115
0.125
0.125
0.135
0.15
0.17
0.19
0.2
0.205
0.21
0.225
0.205
0.195
0.2
0.2
0.2
0.21
0.21
0.215
0.22
0.22
0.215
0.205
0.19
0.175
0.165
0.145
0.135
0.115
0.1
0.08
0.065
0.035
0.025
-0.01
-0.025
-0.065
-0.085
-0.11
-0.13
-0.15
-0.17
-0.185
-0.185
-0.2
-0.22
-0.235
-0.245
-0.255
-0.26
-0.27
-0.29
-0.275
-0.275
-0.28
-0.27
-0.26
-0.265
-0.27
-0.275
-0.28
-0.285
-0.3
-0.295
-0.295
-0.29
-0.285
-0.275
-0.26
-0.26
-0.27
-0.275
-0.275
-0.285
-0.29
-0.285
-0.28
-0.26
-0.27
-0.255
-0.25
-0.25
-0.255
-0.26
-0.265
-0.27
-0.27
-0.265
-0.27
-0.255
-0.265
-0.265
-0.265
-0.27
-0.265
-0.28
-0.285
-0.29
-0.295
-0.3
-0.305
-0.295
-0.305
-0.295
-0.3
-0.305
-0.295
-0.3
-0.305
-0.315
-0.32
-0.325
-0.33
-0.325
-0.32
-0.305
-0.32
-0.325
-0.305
-0.315
-0.33
-0.33
-0.335
-0.34
-0.335
-0.34
-0.34
-0.33
-0.335
-0.34
-0.34
-0.35
-0.355
-0.355
-0.35
-0.35
-0.35
-0.345
-0.35
-0.345
-0.34
-0.33
-0.35
-0.345
-0.345
-0.355
-0.355
-0.35
-0.355
-0.35
-0.34
-0.345
-0.34
-0.335
-0.345
-0.34
-0.34
-0.345
-0.355
-0.365
-0.365
-0.365
-0.36
-0.34
-0.34
-0.325
-0.325
-0.33
-0.32
-0.325
-0.33
-0.315
-0.3
-0.285
-0.275
-0.26
-0.235
-0.225
-0.23
-0.225
-0.225
-0.22
-0.23
-0.23
-0.235
-0.235
-0.215
-0.22
-0.23
-0.245
-0.27
-0.28
-0.31
-0.33
-0.335
-0.34
-0.335
-0.33
-0.325
-0.335
-0.35
-0.37
-0.375
-0.38
-0.385
-0.385
-0.385
-0.395
-0.385
-0.4
-0.39
-0.38
-0.375
-0.385
-0.38
-0.375
-0.385
-0.39
-0.4
-0.405
-0.405
-0.395
-0.385
-0.38
-0.37
-0.365
-0.365
-0.375
-0.375
-0.37
-0.38
-0.37
-0.36
-0.35
-0.335
-0.315
-0.3
-0.25
-0.19
-0.105
0.025
0.2
0.41
0.635
0.9
1.125
1.28
1.36
1.285
1.07
0.75
0.325
-0.155
-0.66
-1.085
-1.35
-1.435
-1.335
-1.125
-0.885
-0.65
-0.44
-0.305
-0.235
-0.205
-0.215
-0.24
-0.255
-0.265
-0.27
-0.26
-0.24
-0.22
-0.21
-0.215
-0.195
-0.205
-0.22
-0.21
-0.23
-0.215
-0.195
-0.18
-0.16
-0.155
-0.15
-0.15
-0.16
-0.16
-0.16
-0.16
-0.16
-0.165
-0.135
-0.12
-0.115
-0.1
-0.105
-0.1
-0.1
-0.095
-0.09
-0.09
-0.075
-0.055
-0.045
-0.04
-0.03
-0.015
-0.005
0.01
0.015
0.035
0.03
0.055
0.06
0.07
0.08
0.09
0.11
0.115
0.14
0.16
0.155
0.165
0.17
0.175
0.185
0.19
0.205
0.215
0.215
0.24
0.24
0.23
0.22
0.215
0.2
0.2
0.2
0.195
0.195
0.2
0.18
0.17
0.16
0.135
0.12
0.08
0.06
0.04
0.015
-0.005
-0.015
-0.045
-0.07
-0.09
-0.11
-0.125
-0.15
-0.18
-0.2
-0.215
-0.225
-0.255
-0.25
-0.255
-0.265
-0.27
-0.27
-0.275
-0.275
-0.3
-0.305
-0.31
-0.32
-0.32
-0.315
-0.32
-0.31
-0.305
-0.305
-0.305
-0.305
-0.31
-0.32
-0.315
-0.32
-0.32
-0.295
-0.29
-0.28
-0.28
-0.28
-0.285
-0.285
-0.29
-0.295
-0.295
-0.285
-0.275
-0.28
-0.265
-0.265
-0.275
-0.27
-0.275
-0.275
-0.28
-0.28
-0.285
-0.29
-0.29
-0.285
-0.285
-0.275
-0.27
-0.27
-0.265
-0.27
-0.285
-0.295
-0.3
-0.315
-0.305
-0.31
-0.295
-0.295
-0.295
-0.29
-0.3
-0.31
-0.32
-0.33
-0.335
-0.35
-0.335
-0.33
-0.33
-0.33
-0.33
-0.33
-0.335
-0.34
-0.35
-0.36
-0.355
-0.36
-0.36
-0.36
-0.37
-0.365
-0.36
-0.37
-0.365
-0.37
-0.36
-0.365
-0.375
-0.38
-0.37
-0.385
-0.37
-0.365
-0.355
-0.365
-0.36
-0.36
-0.375
-0.37
-0.375
-0.385
-0.37
-0.37
-0.365
-0.345
-0.335
-0.34
-0.335
-0.345
-0.35
-0.355
-0.35
-0.35
-0.34
-0.335
-0.305
-0.295
-0.275
-0.275
-0.27
-0.26
-0.25
-0.245
-0.235
-0.23
-0.225
-0.23
-0.21
-0.21
-0.21
-0.21
-0.215
-0.225
-0.235
-0.245
-0.255
-0.275
-0.315
-0.305
-0.31
-0.31
-0.315
-0.305
-0.315
-0.335
-0.34
-0.36
-0.39
-0.41
-0.405
-0.4
-0.39
-0.385
-0.38
-0.365
-0.38
-0.38
-0.385
-0.39
-0.395
-0.405
-0.4
-0.39
-0.37
-0.37
-0.355
-0.35
-0.35
-0.36
-0.375
-0.38
-0.38
-0.375
-0.36
-0.355
-0.35
-0.335
-0.33
-0.32
-0.315
-0.31
-0.295
-0.27
-0.205
-0.12
0.015
0.2
0.425
0.675
0.93
1.155
1.31
1.375
1.305
1.09
0.755
0.325
-0.16
-0.65
-1.08
-1.33
-1.405
-1.275
-1.05
-0.79
-0.545
-0.37
-0.26
-0.205
-0.205
-0.22
-0.235
-0.25
-0.245
-0.24
-0.24
-0.235
-0.235
-0.225
-0.215
-0.215
-0.22
-0.21
-0.21
-0.195
-0.2
-0.19
-0.195
-0.185
-0.185
-0.175
-0.175
-0.185
-0.165
-0.155
-0.16
-0.145
-0.14
-0.125
-0.125
-0.1
-0.105
-0.105
-0.115
-0.105
-0.085
-0.07
-0.06
-0.04
-0.025
-0.015
0.0
-0.01
0.01
0.0
0.005
0.02
0.03
0.055
0.075
0.105
0.125
0.13
0.145
0.155
0.15
0.16
0.165
0.175
0.18
0.205
0.21
0.225
0.235
0.23
0.24
0.225
0.23
0.23
0.24
0.235
0.24
0.245
0.23
0.235
0.22
0.225
0.21
0.2
0.17
0.155
0.14
0.115
0.075
0.07
0.055
0.04
0.02
0.0
-0.025
-0.045
-0.085
-0.115
-0.145
-0.155
-0.165
-0.185
-0.19
-0.19
-0.2
-0.2
-0.215
-0.225
-0.245
-0.255
-0.265
-0.27
-0.255
-0.27
-0.255
-0.255
-0.26
-0.26
-0.255
-0.265
-0.265
-0.27
-0.27
-0.265
-0.265
-0.26
-0.26
-0.255
-0.25
-0.245
-0.24
-0.245
-0.25
-0.25
-0.26
-0.26
-0.26
-0.265
-0.26
-0.25
-0.23
-0.23
-0.23
-0.24
-0.25
-0.245
-0.26
-0.26
-0.26
-0.26
-0.255
-0.24
-0.245
-0.24
-0.245
-0.255
-0.26
-0.265
-0.27
-0.275
-0.26
-0.27
-0.275
-0.265
-0.27
-0.275
-0.285
-0.285
-0.295
-0.29
-0.305
-0.305
-0.305
-0.31
-0.305
-0.305
-0.305
-0.305
-0.295
-0.295
-0.305
-0.32
-0.33
-0.35
-0.345
-0.34
-0.335
-0.31
-0.31
-0.305
-0.3
-0.31
-0.34
-0.33
-0.345
-0.345
-0.34
-0.32
-0.325
-0.315
-0.315
-0.32
-0.32
-0.325
-0.335
-0.33
-0.33
-0.33
-0.335
-0.325
-0.32
-0.32
-0.315
-0.32
-0.31
-0.32
-0.31
-0.33
-0.33
-0.34
-0.345
-0.335
-0.335
-0.325
-0.305
-0.305
-0.305
-0.305
-0.315
-0.32
-0.32
-0.315
-0.315
-0.295
-0.28
-0.255
-0.245
-0.24
-0.235
-0.225
-0.215
-0.21
-0.205
-0.195
-0.18
-0.18
-0.17
-0.17
-0.165
-0.185
-0.195
-0.2
-0.185
-0.21
-0.225
-0.255
-0.28
-0.285
-0.285
-0.29
-0.285
-0.29
-0.31
-0.335
-0.365
-0.365
-0.385
-0.385
-0.375
-0.355
-0.355
-0.35
-0.34
-0.34
-0.345
-0.355
-0.365
-0.365
-0.36
-0.36
-0.365
-0.355
-0.35
-0.345
-0.35
-0.33
-0.325
-0.345
-0.33
-0.33
-0.32
-0.325
-0.31
-0.31
-0.28
-0.255
-0.215
-0.15
-0.04
0.085
0.265
0.445
0.685
0.915
1.12
1.265
1.315
1.24
1.035
0.71
0.305
-0.16
-0.635
-1.05
-1.31
-1.38
-1.265
-1.03
-0.76
-0.525
-0.34
-0.23
-0.185
-0.18
-0.205
-0.24
-0.255
-0.26
-0.265
-0.25
-0.23
-0.225
-0.21
-0.205
-0.195
-0.19
-0.21
-0.195
-0.205
-0.205
-0.2
-0.2
-0.185
-0.17
-0.15
-0.14
-0.145
-0.14
-0.14
-0.145
-0.15
-0.145
-0.135
-0.13
-0.115
-0.1
-0.095
-0.085
-0.085
-0.08
-0.07
-0.065
-0.055
-0.045
-0.025
-0.015
0.0
0.015
0.015
0.03
0.05
0.06
0.07
0.08
0.095
0.105
0.105
0.125
0.135
0.155
0.17
0.19
0.2
0.205
0.2
0.19
0.195
0.195
0.19
0.205
0.22
0.23
0.235
0.23
0.225
0.225
0.2
0.19
0.18
0.165
0.155
0.145
0.125
0.115
0.105
0.085
0.055
0.02
-0.01
-0.025
-0.045
-0.075
-0.11
-0.115
-0.14
-0.16
-0.17
-0.195
-0.2
-0.21
-0.24
-0.245
-0.255
-0.27
-0.285
-0.29
-0.29
-0.29
-0.28
-0.285
-0.275
-0.28
-0.285
-0.285
-0.29
-0.3
-0.31
-0.3
-0.295
-0.3
-0.29
-0.275
-0.27
-0.275
-0.27
-0.285
-0.295
-0.295
-0.295
-0.29
-0.275
-0.275
-0.265
-0.265
-0.27
-0.28
-0.29
-0.28
-0.28
-0.275
-0.285
-0.285
-0.28
-0.275
-0.275
-0.27
-0.275
-0.275
-0.28
-0.285
-0.275
-0.29
-0.29
-0.29
-0.285
-0.29
-0.285
-0.29
-0.275
-0.285
-0.285
-0.3
-0.3
-0.315
-0.315
-0.315
-0.3
-0.3
-0.29
-0.305
-0.3
-0.305
-0.325
-0.33
-0.33
-0.325
-0.33
-0.33
-0.33
-0.325
-0.34
-0.325
-0.335
-0.32
-0.33
-0.335
-0.34
-0.345
-0.345
-0.345
-0.345
-0.34
-0.34
-0.34
-0.335
-0.345
-0.355
-0.35
-0.365
-0.36
-0.365
-0.355
-0.345
-0.335
-0.33
-0.325
-0.335
-0.335
-0.35
-0.355
-0.36
-0.37
-0.365
-0.365
-0.35
-0.34
-0.345
-0.34
-0.345
-0.36
-0.355
-0.365
-0.355
-0.365
-0.355
-0.365
-0.355
-0.35
-0.345
-0.345
-0.335
-0.335
-0.345
-0.34
-0.355
-0.345
-0.335
-0.335
-0.32
-0.31
-0.29
-0.28
-0.265
-0.25
-0.245
-0.235
-0.24
-0.225
-0.23
-0.22
-0.21
-0.205
-0.205
-0.2
-0.195
-0.21
-0.23
-0.25
-0.265
-0.285
-0.31
-0.31
-0.31
-0.31
-0.315
-0.32
-0.345
-0.365
-0.375
-0.385
-0.39
-0.39
-0.385
-0.385
-0.385
-0.38
-0.375
-0.375
-0.37
-0.375
-0.375
-0.375
-0.38
-0.38
-0.39
-0.39
-0.38
-0.365
-0.36
-0.35
-0.35
-0.34
-0.345
-0.35
-0.365
-0.37
-0.365
-0.34
-0.335
-0.31
-0.3
-0.27
-0.225
-0.155
-0.07
0.06
0.225
0.42
0.64
0.86
1.08
1.23
1.305
1.225
1.045
0.755
0.375
-0.025
-0.475
-0.885
-1.19
-1.335
-1.32
-1.16
-0.935
-0.71
-0.505
-0.36
-0.26
-0.21
-0.195
-0.21
-0.235
-0.255
-0.26
-0.265
-0.24
-0.23
-0.215
-0.215
-0.2
-0.205
-0.205
-0.21
-0.21
-0.2
-0.2
-0.18
-0.165
-0.145
-0.145
-0.145
-0.145
-0.15
-0.15
-0.155
-0.15
-0.15
-0.13
-0.115
-0.11
-0.085
-0.08
-0.08
-0.09
-0.08
-0.08
-0.07
-0.06
-0.05
-0.04
-0.025
-0.015
0.0
0.015
0.02
0.025
0.05
0.045
0.06
0.065
0.09
0.095
0.105
0.13
0.15
0.165
0.18
0.195
0.195
0.195
0.2
0.195
0.205
0.215
0.23
0.235
0.245
0.24
0.245
0.245
0.235
0.225
0.21
0.205
0.2
0.22
0.22
0.21
0.2
0.19
0.165
