Lead II
0.585
0.35
0.235
0.18
0.075
-0.055
-0.16
-0.2
-0.24
-0.3
-0.36
-0.405
-0.44
-0.455
-0.485
-0.505
-0.505
-0.51
-0.51
-0.51
-0.5
-0.505
-0.525
-0.535
-0.54
-0.53
-0.505
-0.51
-0.52
-0.53
-0.545
-0.535
-0.525
-0.53
-0.53
-0.54
-0.55
-0.55
-0.54
-0.53
-0.535
-0.54
-0.53
-0.53
-0.52
-0.535
-0.53
-0.53
-0.525
-0.525
-0.51
-0.525
-0.535
-0.52
-0.535
-0.525
-0.515
-0.51
-0.52
-0.525
-0.525
-0.505
-0.51
-0.495
-0.5
-0.5
-0.505
-0.5
-0.49
-0.465
-0.48
-0.47
-0.48
-0.465
-0.445
-0.445
-0.445
-0.45
-0.445
-0.425
-0.41
-0.4
-0.405
-0.39
-0.39
-0.36
-0.345
-0.34
-0.34
-0.33
-0.32
-0.29
-0.27
-0.26
-0.245
-0.245
-0.25
-0.23
-0.22
-0.195
-0.2
-0.18
-0.18
-0.17
-0.155
-0.145
-0.15
-0.155
-0.14
-0.145
-0.14
-0.12
-0.14
-0.165
-0.16
-0.165
-0.18
-0.195
-0.21
-0.225
-0.25
-0.25
-0.255
-0.28
-0.3
-0.315
-0.34
-0.355
-0.355
-0.375
-0.385
-0.4
-0.41
-0.415
-0.405
-0.41
-0.415
-0.43
-0.43
-0.425
-0.425
-0.435
-0.435
-0.45
-0.445
-0.445
-0.44
-0.44
-0.45
-0.46
-0.45
-0.44
-0.435
-0.445
-0.455
-0.46
-0.47
-0.46
-0.445
-0.45
-0.465
-0.465
-0.465
-0.465
-0.46
-0.455
-0.47
-0.47
-0.455
-0.455
-0.44
-0.445
-0.45
-0.455
-0.46
-0.455
-0.445
-0.435
-0.45
-0.44
-0.45
-0.445
-0.435
-0.435
-0.42
-0.45
-0.44
-0.435
-0.425
-0.42
-0.425
-0.425
-0.43
-0.43
-0.415
-0.41
-0.415
-0.425
-0.435
-0.425
-0.415
-0.42
-0.425
-0.43
-0.435
-0.425
-0.425
-0.415
-0.415
-0.42
-0.43
-0.43
-0.42
-0.415
-0.425
-0.425
-0.435
-0.42
-0.42
-0.415
-0.425
-0.43
-0.43
-0.43
-0.42
-0.42
-0.42
-0.415
-0.435
-0.425
-0.41
-0.42
-0.435
-0.43
-0.43
-0.42
-0.405
-0.41
-0.415
-0.425
-0.425
-0.415
-0.41
-0.405
-0.415
-0.43
-0.43
-0.425
-0.405
-0.4
-0.41
-0.43
-0.43
-0.42
-0.41
-0.39
-0.405
-0.41
-0.415
-0.4
-0.405
-0.395
-0.4
-0.395
-0.41
-0.4
-0.4
-0.4
-0.405
-0.4
-0.415
-0.395
-0.39
-0.385
-0.385
-0.4
-0.39
-0.395
-0.385
-0.39
-0.385
-0.395
-0.395
-0.375
-0.35
-0.35
-0.35
-0.35
-0.335
-0.325
-0.345
-0.345
-0.335
-0.34
-0.345
-0.315
-0.3
-0.3
-0.28
-0.275
-0.25
-0.25
-0.235
-0.24
-0.255
-0.275
-0.285
-0.275
-0.275
-0.265
-0.27
-0.275
-0.29
-0.295
-0.305
-0.3
-0.315
-0.33
-0.355
-0.36
-0.355
-0.365
-0.375
-0.385
-0.395
-0.385
-0.385
-0.385
-0.395
-0.395
-0.4
-0.4
-0.395
-0.385
-0.4
-0.415
-0.4
-0.395
-0.385
-0.38
-0.4
-0.39
-0.4
-0.39
-0.395
-0.4
-0.395
-0.415
-0.45
-0.47
-0.46
-0.44
-0.38
-0.255
-0.04
0.215
0.52
0.835
1.14
1.335
1.385
1.295
1.07
0.795
0.55
0.37
0.295
0.245
0.165
0.065
-0.025
-0.07
-0.135
-0.19
-0.23
-0.27
-0.315
-0.355
-0.38
-0.4
-0.4
-0.39
-0.395
-0.415
-0.43
-0.425
-0.42
-0.42
-0.42
-0.425
-0.44
-0.44
-0.435
-0.425
-0.43
-0.425
-0.44
-0.435
-0.43
-0.42
-0.43
-0.445
-0.455
-0.44
-0.435
-0.43
-0.435
-0.455
-0.45
-0.45
-0.43
-0.43
-0.42
-0.425
-0.435
-0.43
-0.42
-0.425
-0.42
-0.43
-0.44
-0.425
-0.425
-0.425
-0.43
-0.435
-0.44
-0.43
-0.42
-0.41
-0.41
-0.415
-0.41
-0.4
-0.39
-0.385
-0.39
-0.405
-0.4
-0.385
-0.37
-0.38
-0.385
-0.385
-0.395
-0.365
-0.365
-0.34
-0.345
-0.33
-0.34
-0.315
-0.305
-0.3
-0.3
-0.295
-0.285
-0.265
-0.245
-0.24
-0.225
-0.225
-0.22
-0.195
-0.175
-0.17
-0.155
-0.14
-0.135
-0.125
-0.115
-0.105
-0.115
-0.11
-0.105
-0.085
-0.07
-0.05
-0.06
-0.07
-0.07
-0.05
-0.045
-0.055
-0.065
-0.075
-0.085
-0.085
-0.085
-0.1
-0.125
-0.15
-0.165
-0.17
-0.175
-0.2
-0.215
-0.25
-0.26
-0.26
-0.26
-0.265
-0.28
-0.29
-0.3
-0.305
-0.3
-0.305
-0.315
-0.325
-0.33
-0.325
-0.32
-0.315
-0.335
-0.34
-0.355
-0.345
-0.34
-0.33
-0.34
-0.35
-0.345
-0.345
-0.34
-0.36
-0.355
-0.37
-0.36
-0.375
-0.355
-0.35
-0.355
-0.355
-0.365
-0.365
-0.37
-0.36
-0.345
-0.36
-0.355
-0.355
-0.35
-0.35
-0.35
-0.35
-0.345
-0.35
-0.34
-0.34
-0.35
-0.36
-0.355
-0.345
-0.33
-0.325
-0.325
-0.34
-0.345
-0.335
-0.33
-0.32
-0.335
-0.33
-0.34
-0.33
-0.33
-0.32
-0.315
-0.33
-0.325
-0.33
-0.32
-0.325
-0.335
-0.325
-0.335
-0.33
-0.31
-0.32
-0.325
-0.335
-0.35
-0.33
-0.33
-0.315
-0.325
-0.335
-0.35
-0.33
-0.32
-0.335
-0.335
-0.335
-0.335
-0.33
-0.335
-0.325
-0.34
-0.345
-0.34
-0.34
-0.32
-0.33
-0.34
-0.35
-0.36
-0.345
-0.345
-0.345
-0.345
-0.35
-0.355
-0.325
-0.32
-0.32
-0.335
-0.36
-0.375
-0.37
-0.34
-0.335
-0.34
-0.35
-0.355
-0.34
-0.335
-0.35
-0.35
-0.35
-0.345
-0.34
-0.33
-0.335
-0.35
-0.355
-0.355
-0.345
-0.335
-0.335
-0.345
-0.355
-0.36
-0.375
-0.34
-0.35
-0.355
-0.35
-0.35
-0.33
-0.31
-0.315
-0.315
-0.32
-0.305
-0.3
-0.295
-0.295
-0.31
-0.315
-0.315
-0.315
-0.285
-0.28
-0.27
-0.27
-0.245
-0.22
-0.195
-0.2
-0.22
-0.235
-0.25
-0.255
-0.24
-0.245
-0.235
-0.265
-0.265
-0.265
-0.26
-0.275
-0.3
-0.31
-0.31
-0.29
-0.28
-0.305
-0.325
-0.345
-0.35
-0.35
-0.36
-0.355
-0.365
-0.35
-0.355
-0.36
-0.36
-0.365
-0.37
-0.395
-0.385
-0.38
-0.37
-0.36
-0.355
-0.365
-0.365
-0.355
-0.355
-0.36
-0.37
-0.39
-0.405
-0.415
-0.425
-0.47
-0.48
-0.47
-0.39
-0.23
-0.02
0.245
0.535
0.855
1.15
1.37
1.395
1.215
0.925
0.635
0.425
0.315
0.25
0.17
0.015
-0.11
-0.185
-0.19
-0.225
-0.265
-0.3
-0.34
-0.355
-0.37
-0.37
-0.375
-0.385
-0.41
-0.425
-0.41
-0.4
-0.4
-0.41
-0.43
-0.425
-0.42
-0.395
-0.39
-0.395
-0.405
-0.4
-0.4
-0.4
-0.41
-0.42
-0.415
-0.415
-0.4
-0.4
-0.41
-0.405
-0.405
-0.405
-0.4
-0.39
-0.39
-0.395
-0.42
-0.425
-0.425
-0.41
-0.42
-0.405
-0.42
-0.425
-0.41
-0.385
-0.395
-0.405
-0.405
-0.415
-0.41
-0.385
-0.38
-0.385
-0.405
-0.41
-0.39
-0.39
-0.375
-0.35
-0.36
-0.37
-0.37
-0.375
-0.37
-0.36
-0.36
-0.35
-0.355
-0.335
-0.335
-0.335
-0.33
-0.325
-0.3
-0.29
-0.285
-0.27
-0.27
-0.26
-0.25
-0.25
-0.245
-0.23
-0.215
-0.195
-0.16
-0.16
-0.155
-0.16
-0.17
-0.145
-0.12
-0.095
-0.09
-0.09
-0.105
-0.1
-0.075
-0.045
-0.02
-0.025
-0.04
-0.055
-0.055
-0.035
-0.01
-0.025
-0.05
-0.045
-0.07
-0.075
-0.085
-0.095
-0.125
-0.14
-0.145
-0.14
-0.145
-0.155
-0.17
-0.19
-0.19
-0.195
-0.2
-0.215
-0.225
-0.225
-0.215
-0.22
-0.23
-0.25
-0.28
-0.275
-0.27
-0.28
-0.28
-0.315
-0.325
-0.32
-0.31
-0.29
-0.295
-0.32
-0.335
-0.335
-0.31
-0.305
-0.32
-0.315
-0.315
-0.32
-0.315
-0.3
-0.305
-0.31
-0.31
-0.325
-0.325
-0.315
-0.305
-0.3
-0.305
-0.305
-0.3
-0.295
-0.3
-0.315
-0.335
-0.33
-0.31
-0.3
-0.295
-0.295
-0.305
-0.315
-0.31
-0.315
-0.315
-0.325
-0.325
-0.315
-0.32
-0.3
-0.315
-0.32
-0.33
-0.325
-0.29
-0.29
-0.29
-0.28
-0.295
-0.295
-0.285
-0.27
-0.275
-0.285
-0.305
-0.31
-0.31
-0.315
-0.31
-0.3
-0.295
-0.295
-0.285
-0.285
-0.275
-0.3
-0.305
-0.315
-0.315
-0.295
-0.31
-0.325
-0.325
-0.33
-0.32
-0.31
-0.32
-0.32
-0.345
-0.34
-0.33
-0.32
-0.315
-0.31
-0.315
-0.295
-0.28
-0.285
-0.29
-0.315
-0.335
-0.34
-0.34
-0.3
-0.29
-0.27
-0.28
-0.295
-0.295
-0.3
-0.3
-0.325
-0.33
-0.335
-0.32
-0.32
-0.32
-0.325
-0.33
-0.33
-0.325
-0.31
-0.305
-0.295
-0.305
-0.31
-0.305
-0.3
-0.295
-0.295
-0.3
-0.305
-0.28
-0.265
-0.25
-0.24
-0.23
-0.23
-0.22
-0.235
-0.25
-0.25
-0.25
-0.265
-0.26
-0.26
-0.26
-0.27
-0.28
-0.305
-0.295
-0.29
-0.3
-0.34
-0.355
-0.37
-0.365
-0.375
-0.385
-0.39
-0.4
-0.41
-0.4
-0.395
-0.39
-0.395
-0.41
-0.415
-0.41
-0.4
-0.405
-0.405
-0.415
-0.415
-0.405
-0.4
-0.39
-0.41
-0.405
-0.415
-0.405
-0.405
-0.445
-0.48
-0.52
-0.52
-0.475
-0.36
-0.14
0.11
0.41
0.76
1.12
1.375
1.43
1.265
0.935
0.59
0.36
0.255
0.2
0.095
-0.05
-0.175
-0.215
-0.235
-0.27
-0.315
-0.36
-0.375
-0.405
-0.415
-0.435
-0.44
-0.435
-0.45
-0.45
-0.44
-0.455
-0.46
-0.465
-0.475
-0.465
-0.46
-0.46
-0.455
-0.47
-0.47
-0.48
-0.455
-0.46
-0.47
-0.485
-0.48
-0.48
-0.47
-0.465
-0.475
-0.475
-0.47
-0.47
-0.47
-0.465
-0.47
-0.48
-0.48
-0.475
-0.46
-0.46
-0.475
-0.48
-0.48
-0.47
-0.465
-0.46
-0.47
-0.48
-0.49
-0.465
-0.465
-0.46
-0.465
-0.475
-0.47
-0.47
-0.45
-0.445
-0.45
-0.46
-0.465
-0.445
-0.43
-0.425
-0.43
-0.435
-0.42
-0.41
-0.39
-0.4
-0.405
-0.4
-0.41
-0.39
-0.365
-0.355
-0.36
-0.35
-0.34
-0.32
-0.305
-0.295
-0.295
-0.3
-0.295
-0.265
-0.235
-0.23
-0.225
-0.225
-0.21
-0.175
-0.15
-0.145
-0.145
-0.16
-0.155
-0.14
-0.13
-0.115
-0.105
-0.12
-0.12
-0.105
-0.11
-0.13
-0.15
-0.17
-0.2
-0.205
-0.215
-0.235
-0.265
-0.28
-0.305
-0.31
-0.32
-0.305
-0.32
-0.34
-0.355
-0.36
-0.355
-0.365
-0.375
-0.39
-0.405
-0.41
-0.41
-0.415
-0.425
-0.425
-0.445
-0.425
-0.43
-0.445
-0.45
-0.455
-0.455
-0.45
-0.44
-0.44
-0.45
-0.455
-0.45
-0.44
-0.43
-0.44
-0.455
-0.46
-0.455
-0.44
-0.435
-0.43
-0.44
-0.47
-0.47
-0.445
-0.45
-0.44
-0.435
-0.45
-0.445
-0.445
-0.43
-0.435
-0.44
-0.44
-0.445
-0.435
-0.42
-0.42
-0.42
-0.445
-0.445
-0.425
-0.41
-0.41
-0.425
-0.435
-0.43
-0.42
-0.41
-0.42
-0.43
-0.425
-0.425
-0.42
-0.415
-0.42
-0.43
-0.425
-0.435
-0.425
-0.42
-0.41
-0.43
-0.435
-0.43
-0.425
-0.41
-0.42
-0.425
-0.435
-0.43
-0.42
-0.41
-0.41
-0.41
-0.43
-0.43
-0.425
-0.41
-0.41
-0.415
-0.425
-0.42
-0.43
-0.415
-0.42
-0.425
-0.43
-0.425
-0.425
-0.41
-0.415
-0.415
-0.435
-0.42
-0.42
-0.41
-0.4
-0.405
-0.425
-0.44
-0.415
-0.405
-0.405
-0.41
-0.42
-0.41
-0.4
-0.39
-0.395
-0.395
-0.415
-0.41
-0.39
-0.39
-0.395
-0.39
-0.4
-0.39
-0.37
-0.35
-0.35
-0.36
-0.35
-0.345
-0.345
-0.345
-0.345
-0.35
-0.35
-0.33
-0.325
-0.295
-0.28
-0.26
-0.255
-0.26
-0.26
-0.265
-0.28
-0.28
-0.3
-0.305
-0.29
-0.29
-0.3
-0.31
-0.32
-0.32
-0.32
-0.32
-0.33
-0.345
-0.365
-0.39
-0.4
-0.395
-0.395
-0.405
-0.41
-0.42
-0.42
-0.41
-0.41
-0.42
-0.42
-0.42
-0.415
-0.415
-0.41
-0.425
-0.43
-0.425
-0.425
-0.4
-0.41
-0.42
-0.425
-0.415
-0.425
-0.43
-0.46
-0.495
-0.525
-0.535
-0.49
-0.37
-0.18
0.075
0.37
0.725
1.11
1.385
1.475
1.355
1.045
0.73
0.475
0.32
0.25
0.2
0.095
-0.02
-0.105
-0.135
-0.205
-0.275
-0.32
-0.37
-0.385
-0.415
-0.44
-0.445
-0.46
-0.465
-0.465
-0.455
-0.465
-0.47
-0.49
-0.485
-0.49
-0.49
-0.495
-0.5
-0.505
-0.5
-0.495
-0.485
-0.49
-0.5
-0.495
-0.51
-0.495
-0.49
-0.485
-0.49
-0.51
-0.51
-0.505
-0.495
-0.485
-0.49
-0.5
-0.51
-0.5
-0.495
-0.5
-0.51
-0.51
-0.505
-0.495
-0.495
-0.485
-0.5
-0.51
-0.515
-0.495
-0.48
-0.485
-0.485
-0.485
-0.49
-0.485
-0.46
-0.455
-0.46
-0.475
-0.46
-0.455
-0.435
-0.425
-0.435
-0.44
-0.43
-0.415
-0.4
-0.39
-0.395
-0.39
-0.375
-0.345
-0.335
-0.33
-0.315
-0.305
-0.3
-0.275
-0.255
-0.245
-0.24
-0.23
-0.22
-0.19
-0.175
-0.175
-0.17
-0.16
-0.175
-0.135
-0.12
-0.105
-0.11
-0.125
-0.13
-0.125
-0.12
-0.12
-0.14
-0.165
-0.175
-0.18
-0.175
-0.195
-0.225
-0.24
-0.26
-0.265
-0.275
-0.285
-0.31
-0.325
-0.345
-0.35
-0.35
-0.36
-0.39
-0.39
-0.4
-0.39
-0.38
-0.38
-0.395
-0.405
-0.415
-0.41
-0.405
-0.405
-0.405
-0.425
-0.42
-0.415
-0.415
-0.415
-0.435
-0.44
-0.43
-0.435
-0.44
-0.425
-0.435
-0.44
-0.455
-0.435
-0.435
-0.43
-0.43
-0.445
-0.45
-0.435
-0.43
-0.42
-0.425
-0.43
-0.425
-0.43
-0.425
-0.415
-0.415
-0.425
-0.42
-0.41
-0.405
-0.4
-0.415
-0.41
-0.42
-0.4
-0.4
-0.41
-0.39
-0.4
-0.41
-0.4
-0.395
-0.395
-0.395
-0.41
-0.415
-0.39
-0.385
-0.395
-0.405
-0.42
-0.405
-0.4
-0.4
-0.39
-0.405
-0.415
-0.415
-0.4
-0.39
-0.395
-0.405
-0.415
-0.41
-0.405
-0.385
-0.395
-0.39
-0.4
-0.405
-0.395
-0.4
-0.4
-0.415
-0.415
-0.405
-0.395
-0.385
-0.395
-0.39
-0.395
-0.405
-0.395
-0.38
-0.385
-0.4
-0.405
-0.42
-0.405
-0.4
-0.385
-0.39
-0.4
-0.405
-0.4
-0.385
-0.39
-0.395
-0.4
-0.41
-0.385
-0.39
-0.39
-0.405
-0.405
-0.4
-0.4
-0.39
-0.39
-0.4
-0.4
-0.41
-0.385
-0.375
-0.365
-0.36
-0.365
-0.365
-0.35
-0.325
-0.325
-0.34
-0.355
-0.36
-0.345
-0.325
-0.33
-0.315
-0.33
-0.31
-0.28
-0.255
-0.23
-0.245
-0.265
-0.28
-0.28
-0.285
-0.275
-0.29
-0.29
-0.3
-0.29
-0.29
-0.295
-0.3
-0.31
-0.315
-0.32
-0.335
-0.35
-0.365
-0.37
-0.385
-0.385
-0.385
-0.385
-0.395
-0.395
-0.415
-0.41
-0.395
-0.385
-0.4
-0.405
-0.415
-0.41
-0.4
-0.4
-0.405
-0.41
-0.4
-0.39
-0.37
-0.39
-0.395
-0.415
-0.455
-0.47
-0.475
-0.475
-0.41
-0.255
-0.035
0.245
0.575
0.955
1.27
1.39
1.26
0.965
0.645
0.38
0.225
0.17
0.105
0.0
-0.115
-0.18
-0.24
-0.29
-0.335
-0.37
-0.385
-0.415
-0.43
-0.44
-0.42
-0.44
-0.43
-0.44
-0.435
-0.445
-0.455
-0.45
-0.45
-0.43
-0.435
-0.45
-0.455
-0.445
-0.435
-0.445
-0.445
-0.46
-0.46
-0.445
-0.455
-0.44
-0.435
-0.455
-0.455
-0.455
-0.445
-0.45
-0.45
-0.45
-0.445
-0.455
-0.435
-0.45
-0.45
-0.465
-0.45
-0.445
-0.44
-0.445
-0.465
-0.455
-0.465
-0.455
-0.45
-0.45
-0.45
-0.455
-0.445
-0.43
-0.425
-0.41
-0.415
-0.43
-0.425
-0.42
-0.405
-0.4
-0.405
-0.405
-0.405
-0.385
-0.39
-0.375
-0.37
-0.36
-0.35
-0.335
-0.315
-0.305
-0.3
-0.295
-0.3
-0.28
-0.27
-0.265
-0.245
-0.235
-0.225
-0.205
-0.19
-0.195
-0.175
-0.175
-0.165
-0.145
-0.12
-0.12
-0.105
-0.115
-0.12
-0.1
-0.1
-0.105
-0.1
-0.11
-0.11
-0.1
-0.095
-0.125
-0.145
-0.16
-0.17
-0.175
-0.18
-0.19
-0.21
-0.23
-0.25
-0.245
-0.25
-0.255
-0.265
-0.27
-0.275
-0.285
-0.285
-0.3
-0.305
-0.305
-0.32
-0.31
-0.29
-0.305
-0.31
-0.32
-0.325
-0.325
-0.315
-0.32
-0.33
-0.335
-0.34
-0.315
-0.31
-0.305
-0.315
-0.33
-0.325
-0.32
-0.32
-0.325
-0.335
-0.345
-0.35
-0.345
-0.34
-0.32
-0.31
-0.32
-0.335
-0.335
-0.32
-0.32
-0.32
-0.34
-0.34
-0.32
-0.315
-0.31
-0.305
-0.315
-0.315
-0.295
-0.3
-0.305
-0.305
-0.305
-0.31
-0.305
-0.29
-0.295
-0.29
-0.3
-0.295
-0.29
-0.265
-0.265
-0.28
-0.28
-0.29
-0.285
-0.28
-0.28
-0.285
-0.29
-0.3
-0.29
-0.275
-0.27
-0.28
-0.29
-0.295
-0.285
-0.28
-0.27
-0.265
-0.265
-0.275
-0.28
-0.275
-0.275
-0.29
-0.285
-0.29
-0.285
-0.27
-0.265
-0.265
-0.265
-0.26
-0.25
-0.25
-0.275
-0.285
-0.31
-0.305
-0.285
-0.26
-0.26
-0.275
-0.295
-0.28
-0.265
-0.255
-0.255
-0.26
-0.27
-0.27
-0.26
-0.255
-0.26
-0.255
-0.27
-0.275
-0.26
-0.24
-0.24
-0.245
-0.27
-0.275
-0.255
-0.245
-0.255
-0.245
-0.25
-0.24
-0.22
-0.205
-0.19
-0.195
-0.21
-0.235
-0.23
-0.195
-0.185
-0.17
-0.17
-0.185
-0.16
-0.13
-0.1
-0.095
-0.11
-0.13
-0.125
-0.125
-0.135
-0.135
-0.155
-0.16
-0.145
-0.15
-0.155
-0.175
-0.19
-0.19
-0.175
-0.175
-0.185
-0.22
-0.255
-0.27
-0.265
-0.26
-0.26
-0.255
-0.265
-0.28
-0.27
-0.26
-0.26
-0.25
-0.27
-0.27
-0.26
-0.26
-0.255
-0.275
-0.29
-0.29
-0.28
-0.265
-0.265
-0.265
-0.27
-0.28
-0.285
-0.285
-0.32
-0.365
-0.38
-0.35
-0.24
-0.03
0.25
0.555
0.91
1.28
1.57
1.665
1.53
1.23
0.88
0.565
0.37
0.28
0.215
0.095
-0.045
-0.125
-0.155
-0.18
-0.22
-0.24
-0.255
-0.285
-0.295
-0.305
-0.305
-0.32
-0.32
-0.32
-0.315
-0.315
-0.325
-0.33
-0.335
-0.345
-0.33
-0.325
-0.33
-0.335
-0.34
-0.35
-0.35
-0.34
-0.345
-0.355
-0.355
-0.365
-0.35
-0.335
-0.34
-0.34
-0.36
-0.375
-0.355
-0.35
-0.34
-0.35
-0.35
-0.355
-0.355
-0.35
-0.35
-0.35
-0.36
-0.37
-0.36
-0.345
-0.34
-0.35
-0.36
-0.36
-0.35
-0.355
-0.345
-0.345
-0.355
-0.355
-0.36
-0.35
-0.35
-0.355
-0.35
-0.355
-0.33
-0.32
-0.32
-0.325
-0.33
-0.32
-0.3
-0.295
-0.29
-0.295
-0.29
-0.295
-0.28
-0.265
-0.245
-0.25
-0.25
-0.22
-0.2
-0.215
-0.19
-0.175
-0.17
-0.165
-0.155
-0.14
-0.14
-0.13
-0.13
-0.125
-0.1
-0.09
-0.085
-0.1
-0.1
-0.11
-0.1
-0.075
-0.09
-0.1
-0.12
-0.145
-0.145
-0.145
-0.145
-0.17
-0.195
-0.215
-0.215
-0.23
-0.245
-0.245
-0.265
-0.285
-0.285
-0.275
-0.29
-0.305
-0.33
-0.315
-0.325
-0.325
-0.33
-0.34
-0.35
-0.345
-0.345
-0.335
-0.345
-0.345
-0.355
-0.365
-0.355
-0.35
-0.355
-0.365
-0.37
-0.37
-0.37
-0.365
-0.36
-0.365
-0.37
-0.375
-0.37
-0.37
-0.355
-0.37
-0.385
-0.375
-0.37
-0.36
-0.36
-0.36
-0.38
-0.365
-0.36
-0.35
-0.35
-0.36
-0.355
-0.365
-0.355
-0.34
-0.34
-0.35
-0.35
-0.355
-0.35
-0.34
-0.345
-0.34
-0.34
-0.36
-0.355
-0.335
-0.34
-0.35
-0.36
-0.36
-0.36
-0.35
-0.35
-0.35
-0.355
-0.36
-0.355
-0.345
-0.33
-0.345
-0.36
-0.36
-0.36
-0.34
-0.345
-0.345
-0.36
-0.365
-0.35
-0.35
-0.34
-0.36
-0.365
-0.37
-0.36
-0.35
-0.355
-0.36
-0.365
-0.37
-0.365
-0.355
-0.36
-0.355
-0.365
-0.37
-0.37
-0.355
-0.365
-0.375
-0.375
-0.375
-0.355
-0.35
-0.36
-0.365
-0.365
-0.37
-0.36
-0.35
-0.355
-0.36
-0.365
-0.365
-0.365
-0.355
-0.36
-0.36
-0.365
-0.37
-0.355
-0.355
-0.35
-0.355
-0.355
-0.36
-0.35
-0.33
-0.325
-0.325
-0.33
-0.325
-0.315
-0.31
-0.32
-0.305
-0.325
-0.315
-0.295
-0.29
-0.27
-0.265
-0.25
-0.24
-0.235
-0.235
-0.25
-0.255
-0.275
-0.29
-0.275
-0.265
-0.265
-0.285
-0.305
-0.3
-0.305
-0.295
-0.3
-0.325
-0.355
-0.36
-0.365
-0.38
-0.37
-0.39
-0.405
-0.41
-0.395
-0.385
-0.385
-0.395
-0.405
-0.405
-0.405
-0.395
-0.395
-0.395
-0.395
-0.41
-0.415
-0.4
-0.4
-0.395
-0.405
-0.405
-0.385
-0.395
-0.415
-0.455
-0.495
-0.52
-0.495
-0.42
-0.26
-0.02
0.275
0.645
1.04
1.355
1.505
1.415
1.13
0.795
0.515
0.335
0.26
0.195
0.09
-0.02
-0.09
-0.125
-0.18
-0.245
-0.295
-0.33
-0.36
-0.375
-0.405
-0.42
-0.425
-0.43
-0.425
-0.42
-0.43
-0.45
-0.45
-0.45
-0.445
-0.435
-0.445
-0.45
-0.455
-0.46
-0.45
-0.44
-0.455
-0.43
-0.455
-0.455
-0.455
-0.44
-0.445
-0.45
-0.46
-0.465
-0.45
-0.44
-0.45
-0.46
-0.46
-0.465
-0.46
-0.435
-0.45
-0.46
-0.46
-0.46
-0.455
-0.445
-0.445
-0.455
-0.465
-0.47
-0.46
-0.445
-0.445
-0.45
-0.445
-0.455
-0.44
-0.425
-0.425
-0.435
-0.425
-0.435
-0.41
-0.41
-0.415
-0.405
-0.405
-0.4
-0.395
-0.385
-0.385
-0.375
-0.385
-0.37
-0.345
-0.345
-0.335
-0.315
-0.32
-0.31
-0.3
-0.28
-0.27
-0.26
-0.245
-0.245
-0.22
-0.2
-0.19
-0.19
-0.185
-0.175
-0.15
-0.13
-0.14
-0.135
-0.135
-0.125
-0.105
-0.1
-0.11
-0.095
-0.095
-0.1
-0.095
-0.08
-0.095
-0.105
-0.115
-0.13
-0.15
-0.145
-0.155
-0.185
-0.205
-0.225
-0.24
-0.24
-0.25
-0.27
-0.285
-0.3
-0.305
-0.305
-0.32
-0.33
-0.345
-0.345
-0.345
-0.335
-0.345
-0.35
-0.36
-0.365
-0.37
-0.36
-0.36
-0.37
-0.375
-0.385
-0.375
-0.37
-0.375
-0.38
-0.39
-0.385
-0.38
-0.375
-0.375
-0.38
-0.395
-0.395
-0.395
-0.375
-0.38
-0.385
-0.4
-0.41
-0.38
-0.37
-0.37
-0.38
-0.395
-0.4
-0.395
-0.375
-0.37
-0.375
-0.385
-0.395
-0.38
-0.375
-0.38
-0.38
-0.375
-0.385
-0.38
-0.35
-0.36
-0.365
-0.37
-0.38
-0.365
-0.36
-0.355
-0.365
-0.37
-0.385
-0.37
-0.35
-0.36
-0.37
-0.385
-0.38
-0.365
-0.365
-0.365
-0.375
-0.38
-0.385
-0.375
-0.38
-0.37
-0.375
-0.365
-0.375
-0.37
-0.37
-0.365
-0.38
-0.385
-0.39
-0.375
-0.365
-0.365
-0.365
-0.37
-0.375
-0.375
-0.36
-0.365
-0.37
-0.37
-0.385
-0.37
-0.36
-0.365
-0.36
-0.375
-0.39
-0.365
-0.355
-0.355
-0.365
-0.375
-0.375
-0.37
-0.375
-0.375
-0.37
-0.375
-0.38
-0.37
-0.365
-0.37
-0.37
-0.39
-0.39
-0.38
-0.365
-0.365
-0.375
-0.38
-0.385
-0.38
-0.375
-0.365
-0.37
-0.38
-0.39
-0.37
-0.365
-0.375
-0.385
-0.4
-0.39
-0.38
-0.365
-0.365
-0.38
-0.37
-0.37
-0.36
-0.34
-0.34
-0.33
-0.335
-0.335
-0.315
-0.31
-0.315
-0.325
-0.325
-0.325
-0.32
-0.3
-0.29
-0.28
-0.265
-0.245
-0.22
-0.23
-0.24
-0.25
-0.26
-0.275
-0.27
-0.26
-0.265
-0.27
-0.275
-0.295
-0.28
-0.28
-0.295
-0.31
-0.325
-0.35
-0.345
-0.36
-0.375
-0.385
-0.395
-0.405
-0.405
-0.38
-0.38
-0.4
-0.4
-0.405
-0.405
-0.395
-0.4
-0.405
-0.4
-0.42
-0.41
-0.405
-0.405
-0.41
-0.415
-0.41
-0.405
-0.395
-0.405
-0.42
-0.435
-0.485
-0.505
-0.52
-0.495
-0.435
-0.315
-0.105
0.15
0.465
0.82
1.17
1.395
1.445
1.305
1.035
0.715
0.45
0.305
0.24
0.195
0.1
-0.01
-0.08
-0.14
-0.205
-0.255
-0.295
-0.33
-0.37
-0.41
-0.43
-0.435
-0.42
-0.42
-0.435
-0.445
-0.455
-0.455
-0.445
-0.465
-0.455
-0.465
-0.475
-0.465
-0.45
-0.46
-0.455
-0.475
-0.475
-0.47
-0.45
-0.45
-0.455
-0.465
-0.485
-0.475
-0.475
-0.475
-0.475
-0.48
-0.485
-0.465
-0.455
-0.465
-0.485
-0.485
-0.47
-0.465
-0.455
-0.455
-0.475
-0.48
-0.49
-0.475
-0.46
-0.455
-0.47
-0.465
-0.47
-0.465
-0.46
-0.455
-0.475
-0.465
-0.465
-0.45
-0.445
-0.45
-0.45
-0.45
-0.455
-0.445
-0.445
-0.425
-0.435
-0.43
-0.42
-0.405
-0.39
-0.395
-0.38
-0.38
-0.39
-0.37
-0.355
-0.34
-0.345
-0.335
-0.325
-0.31
-0.285
-0.28
-0.27
-0.265
-0.25
-0.24
-0.215
-0.205
-0.2
-0.195
-0.19
-0.165
-0.15
-0.145
-0.155
-0.14
-0.135
-0.12
-0.11
-0.105
-0.11
-0.11
-0.13
-0.115
-0.1
-0.11
-0.13
-0.13
-0.145
-0.14
-0.145
-0.155
-0.18
-0.205
-0.215
-0.22
-0.225
-0.25
-0.255
-0.28
-0.31
-0.3
-0.295
-0.315
-0.32
-0.325
-0.345
-0.34
-0.34
-0.355
-0.355
-0.37
-0.37
-0.37
-0.36
-0.36
-0.375
-0.38
-0.385
-0.375
-0.38
-0.38
-0.385
-0.385
-0.4
-0.38
-0.385
-0.38
-0.395
-0.395
-0.42
-0.405
-0.38
-0.405
-0.405
-0.4
-0.41
-0.405
-0.39
-0.395
-0.39
-0.405
-0.4
-0.395
-0.395
-0.395
-0.405
-0.4
-0.4
-0.395
-0.375
-0.375
-0.385
-0.385
-0.395
-0.385
-0.375
-0.39
-0.38
-0.375
-0.385
-0.365
-0.36
-0.365
-0.365
-0.38
-0.375
-0.365
-0.355
-0.36
-0.37
-0.38
-0.385
-0.39
-0.365
-0.36
-0.365
-0.375
-0.385
-0.37
-0.365
-0.375
-0.375
-0.38
-0.39
-0.375
-0.36
-0.36
-0.37
-0.38
-0.38
-0.385
-0.365
-0.37
-0.375
-0.38
-0.38
-0.37
-0.37
-0.37
-0.38
-0.38
-0.385
-0.375
-0.37
-0.38
-0.38
-0.375
-0.385
-0.38
-0.36
-0.37
-0.375
-0.38
-0.39
-0.385
-0.385
-0.39
-0.385
-0.38
-0.38
-0.38
-0.36
-0.36
-0.375
-0.38
-0.395
-0.38
-0.37
-0.365
-0.37
-0.375
-0.375
-0.36
-0.355
-0.365
-0.38
-0.38
-0.375
-0.37
-0.355
-0.355
-0.37
-0.37
-0.38
-0.365
-0.36
-0.36
-0.36
-0.37
-0.375
-0.37
-0.36
-0.355
-0.365
-0.38
-0.375
-0.355
-0.34
-0.345
-0.365
-0.375
-0.385
-0.355
-0.34
-0.335
-0.325
-0.33
-0.325
-0.305
-0.3
-0.305
-0.315
-0.31
-0.32
-0.305
-0.295
-0.3
-0.275
-0.265
-0.25
-0.225
-0.21
-0.215
-0.235
-0.25
-0.255
-0.255
-0.255
-0.255
-0.265
-0.27
-0.275
-0.28
-0.275
-0.275
-0.295
-0.305
-0.305
-0.295
-0.305
-0.33
-0.355
-0.365
-0.37
-0.385
-0.37
-0.37
-0.38
-0.395
-0.395
-0.385
-0.385
-0.38
-0.385
-0.4
-0.4
-0.39
-0.375
-0.375
-0.385
-0.395
-0.395
-0.38
-0.37
-0.375
-0.385
-0.385
-0.41
-0.415
-0.445
-0.475
-0.5
-0.48
-0.43
-0.295
-0.09
0.135
0.405
0.7
1.02
1.295
1.405
1.315
1.045
0.725
0.425
0.27
0.19
0.14
0.05
-0.06
-0.15
-0.185
-0.215
-0.28
-0.33
-0.365
-0.395
-0.425
-0.43
-0.44
-0.435
-0.445
-0.445
-0.435
-0.44
-0.445
-0.45
-0.465
-0.465
-0.465
-0.44
-0.445
-0.465
-0.465
-0.46
-0.47
-0.45
-0.45
-0.46
-0.455
-0.465
-0.455
-0.44
-0.455
-0.465
-0.465
-0.46
-0.45
-0.455
-0.45
-0.46
-0.465
-0.48
-0.465
-0.45
-0.45
-0.46
-0.46
-0.48
-0.46
-0.455
-0.455
-0.465
-0.47
-0.475
-0.465
-0.445
-0.46
-0.455
-0.47
-0.47
-0.46
-0.45
-0.44
-0.445
-0.44
-0.435
-0.43
-0.415
-0.415
-0.425
-0.425
-0.425
-0.41
-0.395
-0.39
-0.4
-0.39
-0.4
-0.38
-0.36
-0.36
-0.35
-0.345
-0.335
-0.32
-0.3
-0.3
-0.3
-0.295
-0.28
-0.26
-0.235
-0.225
-0.22
-0.225
-0.205
-0.195
-0.18
-0.17
-0.16
-0.15
-0.145
-0.135
-0.12
-0.115
-0.115
-0.115
-0.125
-0.115
-0.095
-0.105
-0.115
-0.135
-0.145
-0.155
-0.135
-0.15
-0.165
-0.18
-0.205
-0.205
-0.2
-0.22
-0.24
-0.27
-0.265
-0.285
-0.29
-0.295
-0.315
-0.32
-0.33
-0.33
-0.34
-0.345
-0.345
-0.365
-0.36
-0.335
-0.33
-0.34
-0.35
-0.355
-0.355
-0.36
-0.345
-0.35
-0.35
-0.36
-0.37
-0.36
-0.35
-0.36
-0.36
-0.37
-0.375
-0.375
-0.355
-0.36
-0.37
-0.38
-0.38
-0.36
-0.36
-0.375
-0.38
-0.38
-0.37
-0.36
-0.355
-0.355
-0.37
-0.37
-0.375
-0.37
-0.37
-0.365
-0.35
-0.365
-0.36
-0.34
-0.325
-0.34
-0.35
-0.35
-0.35
-0.335
-0.335
-0.33
-0.345
-0.345
-0.35
-0.335
-0.325
-0.34
-0.34
-0.35
-0.36
-0.34
-0.34
-0.335
-0.34
-0.34
-0.345
-0.335
-0.325
-0.325
-0.33
-0.34
-0.35
-0.35
-0.335
-0.335
-0.345
-0.345
-0.345
-0.32
-0.315
-0.33
-0.335
-0.345
-0.35
-0.345
-0.325
-0.325
-0.335
-0.335
-0.355
-0.34
-0.33
-0.34
-0.34
-0.36
-0.35
-0.335
-0.335
-0.34
-0.345
-0.34
-0.35
-0.335
-0.325
-0.32
-0.325
-0.325
-0.345
-0.34
-0.345
-0.345
-0.35
-0.345
-0.355
-0.345
-0.32
-0.335
-0.345
-0.36
-0.355
-0.34
-0.34
-0.345
-0.34
-0.345
-0.355
-0.355
-0.345
-0.34
-0.345
-0.35
-0.335
-0.345
-0.325
-0.32
-0.33
-0.335
-0.325
-0.325
-0.305
-0.3
-0.31
-0.305
-0.32
-0.32
-0.3
-0.295
-0.3
-0.285
-0.27
-0.25
-0.225
-0.22
-0.2
-0.2
-0.205
-0.2
-0.215
-0.225
-0.235
-0.245
-0.26
-0.25
-0.245
-0.26
-0.26
-0.28
-0.29
-0.29
-0.285
-0.295
-0.305
-0.32
-0.345
-0.345
-0.345
-0.365
-0.365
-0.38
-0.38
-0.38
-0.375
-0.375
-0.38
-0.385
-0.4
-0.385
-0.385
-0.37
-0.38
-0.385
-0.395
-0.39
-0.37
-0.375
-0.38
-0.385
-0.4
-0.375
-0.405
-0.43
-0.485
-0.52
-0.51
-0.475
-0.345
-0.135
0.115
0.415
0.765
1.12
1.36
1.39
1.2
0.89
0.55
0.325
0.21
0.165
0.055
-0.085
-0.19
-0.21
-0.22
-0.27
-0.32
-0.365
-0.385
-0.405
-0.425
-0.415
-0.425
-0.435
-0.455
-0.445
-0.43
-0.445
-0.45
-0.46
-0.465
-0.465
-0.45
-0.465
-0.455
-0.465
-0.48
-0.475
-0.47
-0.465
-0.47
-0.475
-0.47
-0.47
-0.46
-0.465
-0.475
-0.475
-0.48
-0.465
-0.445
-0.465
-0.465
-0.485
-0.485
-0.475
-0.465
-0.47
-0.485
-0.48
-0.48
-0.47
-0.465
-0.465
-0.47
-0.48
-0.475
-0.47
-0.46
-0.455
-0.465
-0.48
