Lead II
-1.125
-1.14
-1.13
-1.135
-1.125
-1.125
-1.125
-1.125
-1.13
-1.12
-1.125
-1.145
-1.14
-1.14
-1.145
-1.145
-1.15
-1.13
-1.135
-1.115
-1.115
-1.13
-1.14
-1.15
-1.15
-1.155
-1.15
-1.135
-1.125
-1.125
-1.12
-1.125
-1.13
-1.12
-1.125
-1.14
-1.145
-1.135
-1.135
-1.135
-1.125
-1.125
-1.115
-1.115
-1.13
-1.12
-1.13
-1.15
-1.15
-1.145
-1.135
-1.13
-1.125
-1.115
-1.105
-1.11
-1.115
-1.115
-1.115
-1.13
-1.14
-1.14
-1.115
-1.11
-1.12
-1.11
-1.1
-1.1
-1.12
-1.125
-1.125
-1.14
-1.155
-1.14
-1.14
-1.115
-1.1
-1.105
-1.09
-1.09
-1.1
-1.1
-1.115
-1.14
-1.145
-1.145
-1.135
-1.125
-1.11
-1.1
-1.11
-1.1
-1.105
-1.12
-1.12
-1.115
-1.115
-1.115
-1.12
-1.105
-1.095
-1.105
-1.08
-1.075
-1.065
-1.1
-1.08
-1.065
-1.075
-1.06
-1.055
-1.045
-1.03
-1.01
-1.01
-0.985
-0.97
-0.98
-0.98
-0.985
-0.97
-0.985
-0.975
-0.98
-0.99
-0.99
-0.98
-0.995
-0.995
-1.02
-1.04
-1.04
-1.06
-1.07
-1.06
-1.08
-1.08
-1.08
-1.075
-1.09
-1.09
-1.095
-1.105
-1.115
-1.12
-1.13
-1.135
-1.13
-1.12
-1.125
-1.11
-1.11
-1.12
-1.135
-1.13
-1.14
-1.155
-1.14
-1.14
-1.14
-1.13
-1.12
-1.105
-1.105
-1.09
-1.115
-1.12
-1.125
-1.09
-1.05
-0.96
-0.85
-0.7
-0.555
-0.395
-0.27
-0.165
-0.155
-0.22
-0.38
-0.59
-0.84
-1.105
-1.355
-1.545
-1.615
-1.59
-1.51
-1.405
-1.345
-1.265
-1.225
-1.22
-1.175
-1.145
-1.105
-1.07
-1.045
-1.05
-1.05
-1.07
-1.085
-1.085
-1.085
-1.095
-1.1
-1.075
-1.065
-1.065
-1.055
-1.05
-1.045
-1.045
-1.05
-1.045
-1.065
-1.06
-1.055
-1.055
-1.04
-1.04
-1.01
-1.015
-1.005
-1.0
-1.015
-1.035
-1.035
-1.015
-1.03
-1.015
-1.0
-0.99
-0.985
-0.99
-0.99
-1.005
-1.01
-1.015
-1.0
-1.01
-0.995
-0.99
-0.975
-0.955
-0.95
-0.92
-0.915
-0.91
-0.91
-0.91
-0.91
-0.91
-0.895
-0.89
-0.86
-0.86
-0.85
-0.815
-0.815
-0.805
-0.8
-0.79
-0.79
-0.785
-0.77
-0.755
-0.735
-0.715
-0.68
-0.67
-0.66
-0.65
-0.655
-0.64
-0.64
-0.635
-0.63
-0.605
-0.59
-0.575
-0.56
-0.54
-0.54
-0.515
-0.545
-0.52
-0.53
-0.54
-0.535
-0.525
-0.515
-0.515
-0.515
-0.525
-0.535
-0.56
-0.59
-0.61
-0.635
-0.67
-0.705
-0.725
-0.76
-0.77
-0.78
-0.8
-0.845
-0.865
-0.89
-0.915
-0.95
-0.97
-1.0
-1.01
-1.025
-1.02
-1.03
-1.03
-1.05
-1.045
-1.07
-1.075
-1.095
-1.09
-1.095
-1.095
-1.08
-1.085
-1.06
-1.075
-1.065
-1.095
-1.085
-1.09
-1.105
-1.1
-1.105
-1.1
-1.085
-1.08
-1.065
-1.065
-1.08
-1.085
-1.09
-1.085
-1.085
-1.105
-1.125
-1.095
-1.09
-1.08
-1.065
-1.05
-1.06
-1.07
-1.08
-1.095
-1.095
-1.09
-1.09
-1.09
-1.1
-1.08
-1.07
-1.07
-1.08
-1.075
-1.075
-1.085
-1.1
-1.115
-1.11
-1.105
-1.12
-1.105
-1.09
-1.095
-1.095
-1.1
-1.1
-1.115
-1.125
-1.13
-1.135
-1.14
-1.15
-1.13
-1.13
-1.125
-1.12
-1.115
-1.125
-1.14
-1.14
-1.15
-1.16
-1.16
-1.145
-1.135
-1.13
-1.14
-1.13
-1.13
-1.13
-1.145
-1.145
-1.15
-1.16
-1.17
-1.155
-1.175
-1.13
-1.13
-1.125
-1.125
-1.155
-1.15
-1.155
-1.17
-1.165
-1.185
-1.155
-1.185
-1.14
-1.155
-1.16
-1.16
-1.155
-1.165
-1.175
-1.17
-1.19
-1.18
-1.17
-1.17
-1.145
-1.14
-1.135
-1.145
-1.15
-1.15
-1.155
-1.165
-1.155
-1.155
-1.165
-1.15
-1.13
-1.13
-1.13
-1.125
-1.125
-1.15
-1.14
-1.155
-1.165
-1.17
-1.17
-1.16
-1.155
-1.145
-1.145
-1.15
-1.16
-1.175
-1.18
-1.175
-1.17
-1.17
-1.17
-1.16
-1.145
-1.135
-1.13
-1.14
-1.135
-1.155
-1.165
-1.18
-1.17
-1.15
-1.14
-1.16
-1.14
-1.13
-1.125
-1.15
-1.16
-1.16
-1.155
-1.16
-1.145
-1.15
-1.145
-1.145
-1.125
-1.115
-1.135
-1.15
-1.16
-1.16
-1.16
-1.155
-1.15
-1.145
-1.15
-1.145
-1.15
-1.14
-1.145
-1.14
-1.14
-1.155
-1.15
-1.165
-1.175
-1.17
-1.15
-1.14
-1.135
-1.12
-1.125
-1.12
-1.135
-1.15
-1.145
-1.165
-1.185
-1.165
-1.16
-1.13
-1.125
-1.115
-1.105
-1.125
-1.14
-1.15
-1.16
-1.17
-1.18
-1.165
-1.145
-1.14
-1.135
-1.145
-1.125
-1.14
-1.13
-1.13
-1.145
-1.155
-1.155
-1.14
-1.135
-1.14
-1.13
-1.11
-1.115
-1.12
-1.135
-1.135
-1.15
-1.145
-1.14
-1.12
-1.11
-1.09
-1.08
-1.07
-1.08
-1.075
-1.06
-1.065
-1.065
-1.05
-1.055
-1.04
-1.01
-1.0
-1.01
-0.995
-0.985
-1.015
-1.02
-1.04
-1.055
-1.055
-1.055
-1.055
-1.06
-1.06
-1.07
-1.07
-1.085
-1.09
-1.1
-1.13
-1.145
-1.155
-1.155
-1.16
-1.15
-1.145
-1.135
-1.13
-1.14
-1.155
-1.16
-1.175
-1.19
-1.185
-1.2
-1.205
-1.19
-1.18
-1.16
-1.16
-1.16
-1.17
-1.17
-1.175
-1.175
-1.185
-1.175
-1.175
-1.17
-1.175
-1.125
-1.08
-1.015
-0.91
-0.805
-0.675
-0.545
-0.435
-0.36
-0.325
-0.35
-0.435
-0.6
-0.81
-1.03
-1.255
-1.46
-1.625
-1.7
-1.695
-1.635
-1.53
-1.45
-1.38
-1.335
-1.285
-1.25
-1.215
-1.2
-1.165
-1.155
-1.155
-1.165
-1.175
-1.175
-1.16
-1.155
-1.135
-1.12
-1.115
-1.125
-1.125
-1.125
-1.125
-1.13
-1.135
-1.11
-1.105
-1.1
-1.095
-1.075
-1.08
-1.09
-1.09
-1.1
-1.1
-1.1
-1.095
-1.09
-1.08
-1.065
-1.06
-1.055
-1.06
-1.07
-1.07
-1.07
-1.075
-1.07
-1.085
-1.07
-1.05
-1.035
-1.015
-1.015
-1.01
-1.0
-1.02
-1.025
-1.025
-1.02
-1.005
-0.985
-0.975
-0.97
-0.955
-0.94
-0.935
-0.94
-0.935
-0.94
-0.93
-0.905
-0.895
-0.88
-0.87
-0.835
-0.825
-0.81
-0.8
-0.8
-0.79
-0.79
-0.785
-0.765
-0.75
-0.715
-0.7
-0.7
-0.665
-0.645
-0.635
-0.635
-0.62
-0.615
-0.61
-0.61
-0.6
-0.58
-0.565
-0.56
-0.545
-0.545
-0.545
-0.56
-0.58
-0.58
-0.61
-0.63
-0.655
-0.66
-0.675
-0.695
-0.71
-0.75
-0.78
-0.805
-0.855
-0.895
-0.91
-0.955
-0.985
-0.995
-1.01
-1.02
-1.015
-1.035
-1.055
-1.07
-1.08
-1.11
-1.12
-1.13
-1.145
-1.14
-1.13
-1.125
-1.135
-1.115
-1.115
-1.135
-1.17
-1.155
-1.175
-1.175
-1.165
-1.155
-1.14
-1.135
-1.13
-1.145
-1.15
-1.145
-1.15
-1.15
-1.165
-1.16
-1.16
-1.175
-1.145
-1.135
-1.135
-1.13
-1.12
-1.135
-1.155
-1.15
-1.165
-1.175
-1.165
-1.145
-1.145
-1.13
-1.115
-1.11
-1.12
-1.13
-1.14
-1.15
-1.155
-1.175
-1.19
-1.18
-1.155
-1.155
-1.14
-1.15
-1.135
-1.155
-1.175
-1.185
-1.19
-1.205
-1.195
-1.18
-1.175
-1.175
-1.17
-1.175
-1.185
-1.19
-1.205
-1.21
-1.21
-1.21
-1.22
-1.2
-1.21
-1.185
-1.175
-1.175
-1.165
-1.185
-1.19
-1.185
-1.2
-1.195
-1.19
-1.195
-1.19
-1.19
-1.185
-1.18
-1.165
-1.175
-1.195
-1.185
-1.21
-1.22
-1.225
-1.225
-1.2
-1.185
-1.185
-1.175
-1.195
-1.205
-1.2
-1.2
-1.215
-1.205
-1.195
-1.215
-1.22
-1.185
-1.175
-1.175
-1.19
-1.2
-1.195
-1.205
-1.21
-1.215
-1.215
-1.205
-1.2
-1.19
-1.18
-1.19
-1.18
-1.2
-1.2
-1.21
-1.225
-1.225
-1.22
-1.24
-1.205
-1.195
-1.18
-1.18
-1.205
-1.21
-1.21
-1.2
-1.22
-1.215
-1.22
-1.21
-1.195
-1.205
-1.195
-1.19
-1.18
-1.195
-1.195
-1.2
-1.22
-1.215
-1.215
-1.21
-1.205
-1.21
-1.19
-1.17
-1.19
-1.19
-1.215
-1.22
-1.21
-1.215
-1.225
-1.205
-1.21
-1.195
-1.195
-1.19
-1.195
-1.205
-1.22
-1.225
-1.225
-1.225
-1.225
-1.215
-1.205
-1.195
-1.185
-1.195
-1.2
-1.19
-1.19
-1.21
-1.215
-1.22
-1.195
-1.205
-1.205
-1.175
-1.195
-1.195
-1.18
-1.185
-1.205
-1.2
-1.21
-1.205
-1.215
-1.205
-1.21
-1.195
-1.2
-1.205
-1.205
-1.2
-1.205
-1.21
-1.21
-1.22
-1.22
-1.2
-1.2
-1.185
-1.16
-1.16
-1.15
-1.135
-1.145
-1.145
-1.14
-1.135
-1.15
-1.13
-1.105
-1.1
-1.08
-1.07
-1.065
-1.05
-1.04
-1.04
-1.035
-1.04
-1.06
-1.065
-1.065
-1.075
-1.06
-1.065
-1.08
-1.1
-1.14
-1.14
-1.15
-1.175
-1.175
-1.18
-1.185
-1.18
-1.165
-1.18
-1.185
-1.19
-1.19
-1.205
-1.22
-1.225
-1.225
-1.22
-1.21
-1.185
-1.18
-1.2
-1.195
-1.185
-1.2
-1.21
-1.21
-1.225
-1.215
-1.2
-1.19
-1.175
-1.17
-1.165
-1.17
-1.19
-1.165
-1.13
-1.045
-0.96
-0.85
-0.705
-0.56
-0.425
-0.31
-0.27
-0.275
-0.38
-0.545
-0.74
-0.98
-1.24
-1.465
-1.64
-1.745
-1.74
-1.655
-1.58
-1.485
-1.415
-1.36
-1.335
-1.305
-1.27
-1.24
-1.195
-1.15
-1.14
-1.14
-1.145
-1.155
-1.16
-1.16
-1.18
-1.17
-1.175
-1.16
-1.16
-1.155
-1.135
-1.14
-1.145
-1.145
-1.165
-1.145
-1.125
-1.13
-1.14
-1.12
-1.115
-1.12
-1.1
-1.085
-1.075
-1.075
-1.095
-1.095
-1.08
-1.09
-1.1
-1.095
-1.085
-1.06
-1.065
-1.05
-1.04
-1.04
-1.045
-1.055
-1.055
-1.04
-1.055
-1.04
-1.035
-1.04
-1.02
-1.0
-0.99
-0.99
-0.985
-0.985
-0.99
-0.985
-0.975
-0.985
-0.98
-0.955
-0.91
-0.895
-0.89
-0.865
-0.875
-0.865
-0.865
-0.86
-0.85
-0.845
-0.82
-0.8
-0.78
-0.74
-0.74
-0.725
-0.72
-0.705
-0.695
-0.68
-0.68
-0.67
-0.65
-0.645
-0.615
-0.61
-0.61
-0.595
-0.615
-0.625
-0.625
-0.615
-0.62
-0.625
-0.63
-0.635
-0.64
-0.645
-0.665
-0.695
-0.725
-0.75
-0.785
-0.81
-0.845
-0.87
-0.895
-0.92
-0.95
-0.96
-0.99
-1.005
-1.02
-1.07
-1.075
-1.09
-1.13
-1.14
-1.13
-1.14
-1.13
-1.13
-1.155
-1.15
-1.16
-1.185
-1.175
-1.185
-1.18
-1.2
-1.205
-1.21
-1.175
-1.17
-1.18
-1.18
-1.185
-1.185
-1.19
-1.215
-1.22
-1.205
-1.205
-1.18
-1.185
-1.16
-1.16
-1.155
-1.165
-1.165
-1.19
-1.185
-1.21
-1.2
-1.195
-1.195
-1.175
-1.15
-1.15
-1.16
-1.16
-1.175
-1.185
-1.17
-1.19
-1.2
-1.205
-1.21
-1.19
-1.18
-1.18
-1.185
-1.185
-1.19
-1.195
-1.21
-1.235
-1.22
-1.2
-1.215
-1.195
-1.205
-1.205
-1.195
-1.2
-1.21
-1.21
-1.23
-1.235
-1.245
-1.235
-1.22
-1.225
-1.215
-1.22
-1.225
-1.23
-1.24
-1.25
-1.27
-1.27
-1.265
-1.28
-1.255
-1.26
-1.245
-1.24
-1.255
-1.25
-1.265
-1.27
-1.28
-1.265
-1.26
-1.245
-1.24
-1.225
-1.215
-1.225
-1.235
-1.235
-1.245
-1.25
-1.265
-1.27
-1.26
-1.25
-1.25
-1.24
-1.235
-1.245
-1.235
-1.235
-1.24
-1.26
-1.265
-1.28
-1.275
-1.275
-1.255
-1.265
-1.245
-1.235
-1.255
-1.25
-1.26
-1.27
-1.285
-1.285
-1.285
-1.26
-1.255
-1.24
-1.23
-1.23
-1.24
-1.235
-1.25
-1.25
-1.25
-1.265
-1.27
-1.26
-1.265
-1.24
-1.225
-1.24
-1.24
-1.235
-1.235
-1.25
-1.26
-1.26
-1.26
-1.25
-1.255
-1.245
-1.225
-1.24
-1.24
-1.235
-1.25
-1.26
-1.29
-1.285
-1.28
-1.285
-1.265
-1.255
-1.26
-1.24
-1.265
-1.25
-1.25
-1.25
-1.265
-1.265
-1.275
-1.265
-1.245
-1.24
-1.25
-1.23
-1.23
-1.24
-1.245
-1.235
-1.245
-1.26
-1.265
-1.255
-1.255
-1.26
-1.235
-1.235
-1.245
-1.25
-1.275
-1.28
-1.275
-1.27
-1.27
-1.265
-1.255
-1.24
-1.23
-1.225
-1.23
-1.215
-1.235
-1.24
-1.25
-1.255
-1.255
-1.275
-1.25
-1.24
-1.225
-1.22
-1.225
-1.225
-1.225
-1.24
-1.23
-1.24
-1.24
-1.22
-1.215
-1.205
-1.195
-1.2
-1.21
-1.195
-1.195
-1.2
-1.19
-1.185
-1.195
-1.17
-1.16
-1.155
-1.135
-1.135
-1.125
-1.13
-1.125
-1.115
-1.105
-1.105
-1.1
-1.095
-1.095
-1.08
-1.105
-1.11
-1.11
-1.11
-1.125
-1.165
-1.16
-1.215
-1.215
-1.2
-1.21
-1.19
-1.19
-1.21
-1.205
-1.21
-1.23
-1.235
-1.235
-1.24
-1.25
-1.24
-1.24
-1.24
-1.235
-1.23
-1.245
-1.24
-1.255
-1.255
-1.27
-1.275
-1.27
-1.25
-1.25
-1.245
-1.235
-1.23
-1.235
-1.23
-1.24
-1.245
-1.22
-1.185
-1.12
-1.02
-0.91
-0.77
-0.64
-0.52
-0.425
-0.385
-0.395
-0.48
-0.645
-0.84
-1.055
-1.28
-1.495
-1.645
-1.735
-1.725
-1.68
-1.59
-1.495
-1.44
-1.385
-1.36
-1.325
-1.28
-1.24
-1.205
-1.17
-1.155
-1.16
-1.18
-1.185
-1.205
-1.205
-1.205
-1.19
-1.18
-1.17
-1.16
-1.15
-1.145
-1.14
-1.155
-1.17
-1.16
-1.17
-1.17
-1.17
-1.155
-1.14
-1.135
-1.115
-1.115
-1.13
-1.12
-1.125
-1.135
-1.14
-1.145
-1.145
-1.125
-1.115
-1.1
-1.075
-1.09
-1.08
-1.08
-1.085
-1.085
-1.09
-1.095
-1.095
-1.09
-1.07
-1.05
-1.04
-1.025
-1.03
-1.035
-1.025
-1.02
-1.035
-1.025
-1.015
-0.995
-0.98
-0.95
-0.95
-0.945
-0.94
-0.935
-0.94
-0.93
-0.905
-0.91
-0.905
-0.88
-0.855
-0.84
-0.795
-0.785
-0.78
-0.75
-0.755
-0.74
-0.725
-0.72
-0.705
-0.68
-0.66
-0.655
-0.625
-0.64
-0.595
-0.59
-0.595
-0.605
-0.605
-0.6
-0.6
-0.605
-0.585
-0.595
-0.58
-0.575
-0.6
-0.61
-0.65
-0.69
-0.72
-0.745
-0.795
-0.79
-0.805
-0.82
-0.835
-0.845
-0.885
-0.9
-0.935
-0.98
-1.005
-1.015
-1.025
-1.04
-1.07
-1.065
-1.06
-1.05
-1.075
-1.1
-1.115
-1.12
-1.13
-1.15
-1.155
-1.14
-1.135
-1.125
-1.125
-1.125
-1.12
-1.13
-1.155
-1.16
-1.165
-1.165
-1.18
-1.165
-1.15
-1.145
-1.135
-1.14
-1.125
-1.135
-1.155
-1.15
-1.18
-1.175
-1.18
-1.175
-1.16
-1.15
-1.145
-1.15
-1.14
-1.145
-1.16
-1.15
-1.145
-1.15
-1.135
-1.125
-1.14
-1.135
-1.125
-1.125
-1.12
-1.135
-1.145
-1.15
-1.17
-1.16
-1.17
-1.15
-1.165
-1.155
-1.15
-1.145
-1.155
-1.165
-1.185
-1.19
-1.2
-1.195
-1.19
-1.19
-1.18
-1.195
-1.18
-1.155
-1.16
-1.17
-1.17
-1.19
-1.195
-1.195
-1.2
-1.18
-1.165
-1.175
-1.15
-1.16
-1.175
-1.175
-1.185
-1.205
-1.19
-1.205
-1.205
-1.195
-1.185
-1.165
-1.165
-1.175
-1.185
-1.17
-1.18
-1.2
-1.21
-1.205
-1.205
-1.21
-1.195
-1.18
-1.16
-1.165
-1.155
-1.175
-1.17
-1.19
-1.2
-1.2
-1.19
-1.175
-1.17
-1.185
-1.17
-1.175
-1.175
-1.165
-1.175
-1.17
-1.185
-1.185
-1.195
-1.21
-1.17
-1.18
-1.17
-1.18
-1.165
-1.175
-1.18
-1.185
-1.2
-1.205
-1.205
-1.205
-1.185
-1.175
-1.165
-1.165
-1.16
-1.17
-1.18
-1.175
-1.175
-1.18
-1.185
-1.185
-1.175
-1.175
-1.17
-1.155
-1.155
-1.155
-1.16
-1.17
-1.18
-1.19
-1.19
-1.19
-1.165
-1.15
-1.145
-1.14
-1.145
-1.15
-1.165
-1.175
-1.18
-1.17
-1.175
-1.18
-1.145
-1.16
-1.14
-1.135
-1.145
-1.135
-1.15
-1.15
-1.15
-1.155
-1.15
-1.165
-1.155
-1.15
-1.12
-1.12
-1.11
-1.105
-1.13
-1.13
-1.14
-1.135
-1.14
-1.15
-1.135
-1.125
-1.12
-1.11
-1.12
-1.12
-1.13
-1.145
-1.155
-1.155
-1.14
-1.145
-1.155
-1.15
-1.13
-1.11
-1.105
-1.12
-1.115
-1.13
-1.13
-1.115
-1.125
-1.1
-1.11
-1.09
-1.07
-1.05
-1.045
-1.05
-1.045
-1.035
-1.05
-1.035
-1.05
-1.015
-0.98
-0.97
-0.945
-0.935
-0.935
-0.94
-0.965
-0.97
-1.005
-1.025
-1.02
-1.025
-1.025
-1.025
-1.02
-1.035
-1.05
-1.055
-1.07
-1.085
-1.1
-1.115
-1.1
-1.11
-1.11
-1.1
-1.115
-1.11
-1.105
-1.12
-1.135
-1.125
-1.13
-1.15
-1.145
-1.13
-1.125
-1.115
-1.1
-1.105
-1.095
-1.1
-1.105
-1.125
-1.12
-1.135
-1.125
-1.125
-1.11
-1.11
-1.085
-1.05
-1.02
-0.945
-0.86
-0.765
-0.63
-0.5
-0.365
-0.265
-0.2
-0.23
-0.315
-0.475
-0.705
-0.955
-1.21
-1.44
-1.6
-1.65
-1.615
-1.53
-1.415
-1.33
-1.25
-1.21
-1.165
-1.14
-1.115
-1.085
-1.075
-1.07
-1.065
-1.065
-1.065
-1.075
-1.065
-1.05
-1.05
-1.07
-1.04
-1.065
-1.055
-1.065
-1.065
-1.065
-1.035
-1.02
-1.015
-1.0
-1.0
-1.005
-1.01
-1.01
-1.02
-1.02
-1.015
-1.01
-0.995
-1.0
-0.985
-0.985
-0.975
-0.985
-0.985
-0.975
-0.985
-0.985
-0.99
-0.975
-0.965
-0.96
-0.945
-0.95
-0.925
-0.93
-0.935
-0.935
-0.94
-0.935
-0.935
-0.925
-0.91
-0.895
-0.88
-0.865
-0.87
-0.865
-0.865
-0.855
-0.86
-0.855
-0.84
-0.83
-0.805
-0.79
-0.76
-0.755
-0.74
-0.725
-0.735
-0.72
-0.715
-0.695
-0.705
-0.685
-0.655
-0.615
-0.61
-0.59
-0.585
-0.57
-0.575
-0.55
-0.56
-0.56
-0.54
-0.55
-0.535
-0.51
-0.505
-0.49
-0.485
-0.49
-0.5
-0.505
-0.535
-0.55
-0.54
-0.555
-0.545
-0.555
-0.565
-0.575
-0.61
-0.62
-0.68
-0.715
-0.74
-0.765
-0.805
-0.81
-0.82
-0.83
-0.84
-0.865
-0.885
-0.915
-0.945
-0.985
-1.0
-1.02
-1.02
-1.015
-1.015
-1.03
-1.025
-1.015
-1.035
-1.04
-1.035
-1.045
-1.065
-1.06
-1.065
-1.065
-1.05
-1.02
-1.02
-1.015
-1.025
-1.025
-1.04
-1.025
-1.035
-1.035
-1.035
-1.045
-1.02
-1.015
-1.01
-1.0
-1.0
-1.0
-1.015
-1.025
-1.02
-1.03
-1.035
-1.03
-1.03
-1.02
-1.005
-1.0
-1.005
-1.01
-1.025
-1.03
-1.03
-1.04
-1.045
-1.04
-1.035
-1.025
-1.02
-1.02
-1.02
-1.035
-1.06
-1.06
-1.06
-1.07
-1.09
-1.07
-1.07
-1.06
-1.035
-1.04
-1.045
-1.065
-1.055
-1.065
-1.08
-1.085
-1.085
-1.085
-1.075
-1.075
-1.07
-1.07
-1.06
-1.075
-1.09
-1.095
-1.11
-1.11
-1.115
-1.105
-1.09
-1.095
-1.08
-1.07
-1.07
-1.095
-1.1
-1.09
-1.09
-1.1
-1.105
-1.1
-1.1
-1.095
-1.115
-1.11
-1.085
-1.085
-1.09
-1.1
-1.125
-1.135
-1.125
-1.125
-1.105
-1.105
-1.1
-1.085
-1.095
-1.095
-1.11
-1.125
-1.12
-1.125
-1.13
-1.12
-1.12
-1.11
-1.095
-1.1
-1.1
-1.1
-1.11
-1.11
-1.125
-1.125
-1.13
-1.11
-1.105
-1.095
-1.105
-1.09
-1.09
-1.085
-1.1
-1.105
-1.11
-1.125
-1.11
-1.115
-1.105
-1.095
-1.095
-1.09
-1.095
-1.1
-1.11
-1.115
-1.12
-1.135
-1.13
-1.125
-1.125
-1.125
-1.11
-1.09
-1.09
-1.095
-1.105
-1.11
-1.12
-1.12
-1.115
-1.125
-1.125
-1.115
-1.11
-1.115
-1.105
-1.105
-1.105
-1.12
-1.125
-1.12
-1.125
-1.13
-1.115
-1.12
-1.1
-1.095
-1.1
-1.1
-1.105
-1.115
-1.13
-1.135
-1.135
-1.12
-1.12
-1.115
-1.12
-1.11
-1.105
-1.11
-1.135
-1.145
-1.145
-1.14
-1.115
-1.115
-1.105
-1.105
-1.11
-1.08
-1.075
-1.09
-1.085
-1.09
-1.1
-1.1
-1.11
-1.105
-1.095
-1.09
-1.09
-1.09
-1.095
-1.08
-1.1
-1.085
-1.11
-1.11
-1.13
-1.115
-1.1
-1.085
-1.07
-1.08
-1.065
-1.065
-1.07
-1.08
-1.065
-1.055
-1.05
-1.025
-1.005
-1.0
-0.975
-0.955
-0.95
-0.945
-0.95
-0.95
-0.965
-0.975
-0.985
-1.005
-0.995
-0.99
-0.995
-0.995
-1.005
-1.02
-1.035
-1.055
-1.085
-1.1
-1.1
-1.095
-1.09
-1.09
-1.095
-1.09
-1.085
-1.1
-1.115
-1.12
-1.125
-1.135
-1.145
-1.135
-1.115
-1.105
-1.1
-1.095
-1.09
-1.1
-1.105
-1.1
-1.115
-1.12
-1.13
-1.11
-1.095
-1.095
-1.075
-1.065
-1.035
-0.985
-0.91
-0.815
-0.725
-0.61
-0.47
-0.345
-0.235
-0.19
-0.195
-0.275
-0.41
-0.615
-0.85
-1.085
-1.305
-1.495
-1.585
-1.585
-1.525
-1.42
-1.33
-1.25
-1.195
-1.17
-1.155
-1.12
-1.1
-1.09
-1.065
-1.07
-1.055
-1.055
-1.06
-1.045
-1.035
-1.04
-1.045
-1.05
-1.05
-1.045
-1.055
-1.055
-1.03
-1.02
-1.035
-1.01
-1.02
-1.015
-1.015
-1.02
-1.035
-1.045
-1.04
-1.035
-1.015
-1.015
-0.99
-0.99
-0.98
-0.97
-0.97
-0.98
-0.99
-0.995
-1.0
-0.98
-0.97
-0.95
-0.945
-0.935
-0.95
-0.93
-0.955
-0.94
-0.94
-0.94
-0.935
-0.92
-0.925
-0.9
-0.885
-0.88
-0.88
-0.89
-0.865
-0.885
-0.89
-0.885
-0.86
-0.84
-0.815
-0.815
-0.795
-0.775
-0.765
-0.755
-0.74
-0.735
-0.74
-0.745
-0.715
-0.695
-0.665
-0.635
-0.615
-0.595
-0.59
-0.59
-0.575
-0.58
-0.58
-0.585
-0.555
-0.565
-0.545
-0.515
-0.5
-0.5
-0.495
-0.51
-0.53
-0.54
-0.555
-0.575
-0.6
-0.61
-0.625
-0.645
-0.635
-0.655
-0.665
-0.695
-0.74
-0.76
-0.775
-0.815
-0.845
-0.855
-0.875
-0.89
-0.9
-0.9
-0.915
-0.94
-0.955
-0.97
-1.005
-1.015
-1.025
-1.035
-1.03
-1.03
-1.035
-1.02
-1.035
-1.035
-1.045
-1.065
-1.075
-1.07
-1.07
-1.07
-1.05
-1.045
-1.035
-1.03
-1.02
-1.015
-1.035
-1.055
-1.06
-1.06
-1.07
-1.055
-1.04
-1.03
-1.025
-1.01
-1.015
-1.015
-1.03
-1.035
-1.05
-1.05
-1.045
-1.045
-1.03
-1.02
-1.02
-1.005
-1.03
-1.015
-1.035
-1.045
-1.05
-1.07
-1.08
-1.06
-1.065
-1.06
-1.04
-1.05
-1.045
-1.055
-1.065
-1.06
-1.07
-1.06
-1.075
-1.06
-1.06
-1.055
-1.055
-1.035
-1.045
-1.045
-1.05
-1.07
-1.09
-1.08
-1.085
-1.08
-1.09
-1.075
-1.075
-1.055
-1.06
-1.065
-1.08
-1.075
-1.09
-1.1
-1.105
-1.105
-1.085
-1.09
-1.075
-1.08
-1.065
-1.065
-1.075
-1.09
-1.1
-1.115
-1.115
-1.11
-1.11
-1.095
-1.095
-1.085
-1.08
-1.075
-1.08
-1.08
-1.09
-1.1
-1.1
-1.095
-1.085
-1.085
-1.08
-1.075
-1.075
-1.075
-1.085
-1.08
-1.1
-1.095
-1.115
-1.095
-1.095
-1.09
-1.095
-1.095
-1.085
-1.08
-1.085
-1.1
-1.11
-1.11
-1.12
-1.115
-1.105
-1.11
-1.095
-1.09
-1.08
-1.09
-1.09
-1.1
-1.115
-1.125
-1.125
-1.125
-1.12
-1.11
-1.085
-1.075
-1.09
-1.105
-1.105
-1.095
-1.115
-1.11
-1.11
-1.1
-1.08
-1.075
-1.08
-1.075
-1.075
-1.075
-1.085
-1.095
-1.11
-1.115
-1.11
-1.105
-1.095
-1.1
-1.085
-1.08
-1.07
-1.06
-1.07
-1.085
-1.105
-1.1
-1.1
-1.105
-1.1
-1.08
-1.065
-1.065
-1.065
-1.07
-1.09
-1.08
-1.095
-1.1
-1.1
-1.105
-1.1
-1.095
-1.08
-1.075
-1.07
-1.095
-1.085
-1.1
-1.105
-1.115
-1.115
-1.095
-1.08
-1.1
-1.07
-1.065
-1.065
-1.06
-1.07
-1.07
-1.075
-1.085
-1.075
-1.085
-1.08
-1.065
-1.05
-1.045
-1.045
-1.045
-1.05
-1.065
-1.07
-1.07
-1.06
-1.035
-1.03
-1.015
-0.99
-0.98
-0.98
-0.98
-0.96
-0.96
-0.96
-0.95
-0.93
-0.94
-0.95
-0.95
-0.945
-0.95
-0.955
-0.975
-0.975
-0.97
-0.995
-1.01
-1.045
-1.035
-1.045
-1.045
-1.055
-1.05
-1.06
-1.05
-1.065
-1.07
-1.08
-1.095
-1.09
-1.115
-1.1
-1.1
-1.09
-1.08
-1.08
-1.08
-1.095
-1.09
-1.09
-1.105
-1.12
-1.12
-1.11
-1.09
-1.085
-1.06
-1.07
-1.085
-1.105
-1.105
-1.08
-1.07
-0.99
-0.915
-0.815
-0.7
-0.57
-0.455
-0.375
-0.34
-0.39
-0.5
-0.66
-0.87
-1.085
-1.31
-1.53
-1.675
-1.725
-1.72
-1.62
-1.515
-1.43
-1.36
-1.325
-1.29
-1.235
-1.2
-1.15
-1.105
-1.075
-1.06
-1.065
-1.07
-1.07
-1.085
-1.09
-1.085
-1.085
-1.075
-1.06
-1.025
-1.025
-1.01
-1.01
-1.015
-1.02
-1.01
-1.02
-1.03
-1.035
-1.025
-1.02
-1.0
-0.995
-0.985
-0.995
-0.985
-0.995
-0.995
-0.995
-1.02
-1.0
-1.005
-0.995
-0.98
-0.955
-0.96
-0.95
-0.95
-0.98
-0.98
-0.98
-0.98
-0.98
-0.97
-0.97
-0.945
-0.935
-0.905
-0.925
-0.895
-0.895
-0.905
-0.915
-0.895
-0.895
-0.885
-0.865
-0.845
-0.835
-0.815
-0.815
-0.8
-0.795
-0.795
-0.795
-0.785
-0.785
-0.74
-0.725
-0.7
-0.675
-0.655
-0.645
-0.63
-0.625
-0.64
-0.625
-0.605
-0.61
-0.605
-0.61
-0.59
-0.565
-0.55
-0.525
-0.505
-0.535
-0.545
-0.555
-0.56
-0.56
-0.56
-0.575
-0.575
-0.565
-0.56
-0.575
-0.59
-0.63
-0.66
-0.695
-0.725
-0.75
-0.765
-0.79
-0.805
-0.81
-0.82
-0.835
-0.865
-0.885
-0.92
-0.94
-0.97
-0.98
-0.99
-0.985
-0.99
-0.99
-0.975
-0.99
-1.01
-1.01
-1.04
-1.065
-1.05
-1.06
-1.065
-1.05
-1.04
-1.035
-1.035
-1.03
-1.04
-1.05
-1.045
-1.05
-1.06
-1.065
-1.065
-1.045
-1.04
-1.035
-1.05
-1.045
-1.05
-1.045
-1.055
-1.045
-1.045
-1.055
-1.06
-1.05
-1.055
-1.03
-1.025
-1.025
-1.04
-1.045
-1.07
-1.07
-1.06
-1.07
-1.07
-1.06
-1.045
-1.04
-1.02
-1.025
-1.035
-1.04
-1.06
-1.06
-1.06
-1.08
-1.075
-1.065
-1.07
-1.055
-1.06
-1.06
-1.065
-1.08
-1.075
-1.07
-1.09
-1.095
-1.095
-1.1
-1.09
-1.075
-1.07
-1.08
-1.095
-1.1
-1.105
-1.125
-1.12
-1.135
-1.12
-1.11
-1.105
-1.11
-1.085
-1.09
-1.1
-1.1
-1.11
-1.12
-1.13
-1.13
-1.125
-1.125
-1.1
-1.09
-1.095
-1.09
-1.095
-1.105
-1.11
-1.115
-1.12
-1.14
-1.125
-1.12
-1.11
-1.115
-1.095
-1.105
-1.1
-1.115
-1.115
-1.13
-1.125
-1.125
-1.125
-1.12
-1.125
-1.105
-1.1
-1.11
-1.115
-1.115
-1.115
-1.115
-1.135
-1.135
-1.125
-1.115
-1.12
-1.105
-1.1
-1.105
-1.1
-1.115
-1.12
-1.13
-1.135
-1.155
-1.135
-1.125
-1.115
-1.095
-1.085
-1.095
-1.085
-1.1
-1.115
-1.105
-1.13
-1.145
-1.14
-1.145
-1.125
-1.115
-1.095
-1.09
-1.1
-1.095
-1.11
-1.11
-1.115
-1.12
-1.135
-1.12
-1.12
-1.105
-1.095
-1.105
-1.1
-1.1
-1.105
-1.125
-1.125
-1.11
-1.12
-1.115
-1.095
-1.085
-1.08
-1.085
-1.075
-1.09
-1.09
-1.125
-1.115
-1.135
-1.145
-1.135
-1.12
-1.1
-1.095
-1.11
-1.115
-1.115
-1.125
-1.13
-1.13
-1.135
-1.14
-1.115
-1.115
-1.085
-1.08
-1.09
-1.085
-1.085
-1.095
-1.1
-1.1
-1.11
-1.11
-1.11
-1.085
-1.08
-1.095
-1.07
-1.075
-1.075
-1.1
-1.1
-1.105
-1.115
-1.115
-1.105
-1.085
-1.075
-1.08
-1.09
-1.1
-1.065
-1.075
-1.075
-1.065
-1.105
-1.085
-1.07
-1.065
-1.035
-1.005
-1.005
-0.99
-0.97
-0.965
-0.96
-0.94
-0.945
-0.945
-0.935
-0.935
-0.95
-0.94
-0.955
-0.96
-0.96
-0.96
-0.995
-1.015
-1.04
-1.04
-1.05
-1.04
-1.05
-1.045
-1.065
-1.065
-1.07
-1.075
-1.11
-1.1
-1.12
-1.11
-1.115
-1.11
-1.1
-1.09
-1.095
-1.09
-1.095
-1.11
-1.11
-1.11
-1.13
-1.105
-1.1
-1.1
-1.09
-1.05
-1.055
-1.065
-1.055
-1.06
-1.09
-1.06
-1.045
-0.985
-0.9
-0.805
-0.68
-0.52
-0.385
-0.24
-0.135
-0.095
-0.11
-0.21
-0.41
-0.645
-0.92
-1.185
-1.41
-1.545
-1.595
-1.565
-1.465
-1.37
-1.29
-1.205
-1.16
-1.13
-1.095
-1.045
-1.025
-1.005
-1.015
-1.02
-1.05
-1.05
-1.055
-1.055
-1.06
-1.055
-1.05
-1.03
-1.02
-0.99
-0.99
-1.01
-1.01
-1.015
-1.025
-1.01
-1.03
-1.035
-1.025
-1.015
-0.995
-0.995
-0.985
-0.98
-0.985
-0.975
-0.99
-0.995
-0.99
-0.99
-0.985
-0.96
-0.98
-0.955
-0.945
-0.935
-0.94
-0.935
-0.95
-0.95
-0.95
-0.945
-0.93
-0.915
-0.905
-0.88
-0.895
-0.885
-0.885
-0.885
-0.88
-0.895
-0.88
-0.88
-0.865
-0.84
-0.825
-0.8
-0.805
-0.795
-0.785
-0.795
-0.78
-0.78
-0.785
-0.76
-0.745
-0.72
-0.7
-0.665
-0.66
-0.635
-0.63
-0.64
-0.63
-0.62
-0.605
-0.59
-0.575
-0.56
-0.535
-0.515
-0.52
-0.495
-0.505
-0.515
-0.505
-0.505
-0.515
-0.52
-0.515
-0.515
-0.505
-0.505
-0.52
-0.55
-0.58
-0.6
-0.645
-0.665
-0.695
-0.725
-0.74
-0.765
-0.78
-0.79
-0.81
-0.84
-0.87
-0.905
-0.935
-0.94
-0.97
-0.975
-0.975
-0.975
-0.98
-0.975
-0.99
-1.005
-1.01
-1.02
-1.035
-1.045
-1.05
-1.055
-1.045
-1.025
-1.035
-1.025
-1.03
-1.02
-1.035
-1.035
-1.07
-1.075
-1.07
-1.08
-1.045
-1.055
-1.03
-1.02
-1.02
-1.03
-1.05
-1.035
-1.035
-1.035
-1.055
-1.06
-1.045
-1.04
-1.015
-1.015
-1.02
-1.015
-1.03
-1.04
-1.04
-1.065
-1.055
-1.055
-1.045
-1.03
-1.035
-1.005
-1.01
-1.03
-1.03
-1.03
-1.035
-1.045
-1.08
-1.05
-1.065
-1.065
-1.06
-1.06
-1.065
-1.06
-1.065
-1.06
-1.07
-1.085
-1.1
-1.105
-1.09
-1.08
-1.07
-1.06
-1.06
-1.06
-1.08
-1.09
-1.085
-1.095
-1.1
-1.1
-1.08
-1.065
-1.075
-1.08
-1.065
-1.06
-1.07
-1.085
-1.105
-1.09
-1.11
-1.125
-1.13
-1.115
-1.095
-1.065
-1.08
-1.085
-1.08
-1.095
-1.095
-1.105
-1.115
-1.1
-1.1
-1.095
-1.095
-1.08
-1.08
-1.065
-1.065
-1.09
-1.085
-1.08
-1.095
-1.09
-1.1
-1.1
-1.075
-1.065
-1.065
-1.07
-1.08
-1.09
-1.105
-1.1
-1.1
-1.11
-1.09
-1.09
-1.07
-1.055
-1.055
-1.065
-1.06
-1.07
-1.095
-1.09
-1.105
-1.11
-1.095
-1.085
-1.075
-1.055
-1.05
-1.045
-1.065
-1.075
-1.075
-1.085
-1.075
-1.075
-1.055
-1.075
-1.06
-1.055
-1.065
-1.05
-1.055
-1.05
-1.07
-1.08
-1.085
-1.065
-1.065
-1.07
-1.035
-1.05
-1.05
-1.06
-1.065
-1.065
