Lead II
-0.385
-0.395
-0.405
-0.42
-0.415
-0.41
-0.415
-0.42
-0.42
-0.435
-0.44
-0.425
-0.43
-0.42
-0.425
-0.435
-0.45
-0.45
-0.435
-0.425
-0.43
-0.445
-0.45
-0.445
-0.445
-0.45
-0.435
-0.43
-0.45
-0.445
-0.44
-0.435
-0.445
-0.445
-0.46
-0.455
-0.445
-0.435
-0.435
-0.45
-0.46
-0.45
-0.44
-0.445
-0.45
-0.455
-0.455
-0.46
-0.44
-0.435
-0.44
-0.455
-0.46
-0.445
-0.435
-0.435
-0.425
-0.44
-0.445
-0.43
-0.42
-0.43
-0.42
-0.42
-0.43
-0.435
-0.415
-0.395
-0.38
-0.405
-0.4
-0.4
-0.38
-0.36
-0.345
-0.345
-0.355
-0.335
-0.31
-0.29
-0.29
-0.3
-0.295
-0.28
-0.25
-0.24
-0.24
-0.23
-0.23
-0.215
-0.195
-0.185
-0.175
-0.175
-0.195
-0.17
-0.15
-0.145
-0.145
-0.15
-0.15
-0.15
-0.15
-0.145
-0.145
-0.155
-0.16
-0.175
-0.175
-0.19
-0.205
-0.215
-0.245
-0.25
-0.255
-0.26
-0.28
-0.305
-0.315
-0.32
-0.33
-0.325
-0.34
-0.35
-0.355
-0.375
-0.375
-0.37
-0.37
-0.385
-0.4
-0.395
-0.38
-0.385
-0.4
-0.405
-0.41
-0.405
-0.395
-0.4
-0.415
-0.42
-0.43
-0.415
-0.405
-0.4
-0.405
-0.425
-0.435
-0.435
-0.425
-0.425
-0.415
-0.41
-0.42
-0.415
-0.395
-0.4
-0.395
-0.405
-0.41
-0.4
-0.39
-0.39
-0.395
-0.4
-0.41
-0.395
-0.385
-0.385
-0.38
-0.385
-0.4
-0.385
-0.375
-0.38
-0.39
-0.385
-0.395
-0.395
-0.38
-0.375
-0.375
-0.375
-0.4
-0.39
-0.385
-0.375
-0.375
-0.37
-0.38
-0.38
-0.375
-0.38
-0.375
-0.385
-0.395
-0.39
-0.375
-0.37
-0.385
-0.39
-0.39
-0.39
-0.365
-0.37
-0.395
-0.385
-0.405
-0.405
-0.38
-0.38
-0.385
-0.395
-0.395
-0.385
-0.37
-0.375
-0.385
-0.39
-0.4
-0.395
-0.385
-0.385
-0.38
-0.385
-0.405
-0.4
-0.385
-0.385
-0.38
-0.385
-0.39
-0.39
-0.37
-0.37
-0.38
-0.395
-0.4
-0.385
-0.385
-0.375
-0.38
-0.375
-0.385
-0.38
-0.385
-0.385
-0.385
-0.39
-0.4
-0.395
-0.39
-0.375
-0.38
-0.39
-0.395
-0.4
-0.385
-0.38
-0.385
-0.38
-0.4
-0.385
-0.385
-0.37
-0.385
-0.395
-0.41
-0.405
-0.385
-0.385
-0.385
-0.39
-0.41
-0.4
-0.405
-0.385
-0.38
-0.375
-0.38
-0.37
-0.35
-0.34
-0.34
-0.345
-0.345
-0.33
-0.32
-0.32
-0.32
-0.32
-0.335
-0.33
-0.305
-0.305
-0.29
-0.28
-0.26
-0.23
-0.22
-0.225
-0.26
-0.27
-0.295
-0.29
-0.29
-0.29
-0.285
-0.295
-0.29
-0.3
-0.31
-0.31
-0.32
-0.335
-0.36
-0.365
-0.38
-0.38
-0.39
-0.4
-0.415
-0.41
-0.41
-0.395
-0.41
-0.415
-0.425
-0.43
-0.425
-0.425
-0.42
-0.42
-0.43
-0.43
-0.42
-0.4
-0.405
-0.42
-0.425
-0.425
-0.405
-0.41
-0.425
-0.45
-0.5
-0.51
-0.505
-0.43
-0.27
-0.045
0.23
0.57
0.935
1.28
1.445
1.4
1.145
0.79
0.5
0.305
0.22
0.165
0.065
-0.055
-0.135
-0.175
-0.205
-0.26
-0.31
-0.345
-0.375
-0.395
-0.415
-0.435
-0.445
-0.45
-0.435
-0.435
-0.445
-0.46
-0.475
-0.465
-0.46
-0.45
-0.445
-0.445
-0.475
-0.48
-0.47
-0.47
-0.48
-0.485
-0.485
-0.47
-0.455
-0.465
-0.47
-0.465
-0.465
-0.465
-0.475
-0.46
-0.46
-0.48
-0.485
-0.475
-0.48
-0.455
-0.46
-0.455
-0.485
-0.47
-0.455
-0.45
-0.465
-0.475
-0.49
-0.47
-0.46
-0.47
-0.475
-0.48
-0.475
-0.465
-0.46
-0.45
-0.445
-0.455
-0.47
-0.46
-0.435
-0.445
-0.44
-0.435
-0.435
-0.425
-0.425
-0.405
-0.4
-0.4
-0.405
-0.405
-0.39
-0.375
-0.365
-0.375
-0.385
-0.37
-0.35
-0.33
-0.325
-0.32
-0.32
-0.295
-0.275
-0.275
-0.26
-0.265
-0.255
-0.245
-0.215
-0.195
-0.185
-0.18
-0.185
-0.165
-0.145
-0.14
-0.14
-0.15
-0.15
-0.13
-0.125
-0.105
-0.105
-0.115
-0.125
-0.115
-0.115
-0.115
-0.135
-0.145
-0.17
-0.18
-0.175
-0.18
-0.195
-0.21
-0.23
-0.235
-0.245
-0.24
-0.27
-0.29
-0.325
-0.325
-0.325
-0.31
-0.32
-0.335
-0.355
-0.365
-0.36
-0.36
-0.36
-0.36
-0.375
-0.375
-0.375
-0.36
-0.365
-0.37
-0.39
-0.385
-0.385
-0.385
-0.39
-0.395
-0.39
-0.39
-0.395
-0.39
-0.4
-0.395
-0.405
-0.395
-0.39
-0.385
-0.385
-0.39
-0.4
-0.4
-0.39
-0.4
-0.395
-0.395
-0.405
-0.39
-0.38
-0.39
-0.39
-0.39
-0.405
-0.405
-0.395
-0.385
-0.38
-0.385
-0.385
-0.37
-0.38
-0.37
-0.37
-0.385
-0.38
-0.385
-0.38
-0.365
-0.375
-0.37
-0.385
-0.37
-0.36
-0.365
-0.37
-0.37
-0.385
-0.385
-0.37
-0.375
-0.375
-0.375
-0.38
-0.385
-0.375
-0.375
-0.365
-0.375
-0.38
-0.375
-0.37
-0.375
-0.385
-0.385
-0.405
-0.385
-0.37
-0.365
-0.375
-0.39
-0.39
-0.385
-0.37
-0.355
-0.375
-0.395
-0.385
-0.365
-0.365
-0.375
-0.375
-0.38
-0.395
-0.38
-0.375
-0.375
-0.37
-0.375
-0.385
-0.39
-0.37
-0.37
-0.38
-0.38
-0.39
-0.39
-0.37
-0.365
-0.355
-0.375
-0.385
-0.385
-0.38
-0.38
-0.38
-0.39
-0.385
-0.385
-0.38
-0.36
-0.365
-0.37
-0.385
-0.375
-0.36
-0.36
-0.365
-0.38
-0.375
-0.37
-0.365
-0.36
-0.36
-0.375
-0.37
-0.37
-0.355
-0.35
-0.35
-0.355
-0.36
-0.355
-0.355
-0.35
-0.35
-0.36
-0.355
-0.34
-0.325
-0.3
-0.285
-0.295
-0.31
-0.315
-0.31
-0.29
-0.31
-0.32
-0.315
-0.295
-0.275
-0.255
-0.23
-0.215
-0.2
-0.205
-0.205
-0.225
-0.245
-0.26
-0.27
-0.27
-0.255
-0.25
-0.27
-0.275
-0.29
-0.28
-0.28
-0.265
-0.285
-0.31
-0.345
-0.365
-0.365
-0.37
-0.38
-0.385
-0.395
-0.385
-0.38
-0.36
-0.375
-0.39
-0.395
-0.4
-0.385
-0.385
-0.37
-0.375
-0.4
-0.38
-0.38
-0.38
-0.39
-0.395
-0.4
-0.425
-0.455
-0.475
-0.505
-0.5
-0.41
-0.215
0.055
0.43
0.84
1.22
1.435
1.375
1.055
0.655
0.36
0.225
0.165
0.1
-0.015
-0.11
-0.175
-0.235
-0.29
-0.335
-0.345
-0.375
-0.41
-0.43
-0.455
-0.445
-0.415
-0.41
-0.43
-0.43
-0.445
-0.435
-0.425
-0.43
-0.44
-0.44
-0.445
-0.435
-0.435
-0.43
-0.445
-0.455
-0.45
-0.45
-0.445
-0.455
-0.455
-0.45
-0.45
-0.435
-0.435
-0.43
-0.445
-0.455
-0.46
-0.455
-0.45
-0.44
-0.44
-0.445
-0.45
-0.44
-0.45
-0.445
-0.45
-0.46
-0.475
-0.47
-0.465
-0.455
-0.45
-0.45
-0.45
-0.45
-0.445
-0.445
-0.45
-0.44
-0.455
-0.44
-0.44
-0.43
-0.425
-0.435
-0.425
-0.415
-0.4
-0.39
-0.39
-0.39
-0.385
-0.365
-0.355
-0.345
-0.34
-0.335
-0.34
-0.325
-0.3
-0.29
-0.28
-0.275
-0.27
-0.26
-0.25
-0.225
-0.215
-0.205
-0.2
-0.195
-0.18
-0.15
-0.15
-0.16
-0.165
-0.15
-0.13
-0.135
-0.14
-0.14
-0.15
-0.145
-0.145
-0.15
-0.18
-0.19
-0.215
-0.21
-0.21
-0.23
-0.24
-0.26
-0.28
-0.28
-0.29
-0.29
-0.31
-0.32
-0.335
-0.345
-0.345
-0.345
-0.35
-0.375
-0.38
-0.385
-0.375
-0.365
-0.375
-0.395
-0.395
-0.405
-0.4
-0.39
-0.395
-0.385
-0.41
-0.4
-0.395
-0.39
-0.405
-0.425
-0.43
-0.425
-0.41
-0.405
-0.4
-0.41
-0.42
-0.42
-0.415
-0.41
-0.415
-0.43
-0.415
-0.41
-0.395
-0.4
-0.39
-0.405
-0.42
-0.41
-0.395
-0.39
-0.385
-0.4
-0.41
-0.4
-0.405
-0.39
-0.385
-0.385
-0.4
-0.395
-0.385
-0.375
-0.37
-0.39
-0.395
-0.395
-0.385
-0.38
-0.38
-0.385
-0.38
-0.375
-0.365
-0.375
-0.385
-0.39
-0.385
-0.39
-0.385
-0.38
-0.39
-0.385
-0.4
-0.385
-0.375
-0.375
-0.375
-0.375
-0.385
-0.385
-0.38
-0.375
-0.37
-0.39
-0.4
-0.395
-0.385
-0.375
-0.4
-0.405
-0.4
-0.41
-0.39
-0.39
-0.385
-0.385
-0.395
-0.395
-0.385
-0.375
-0.38
-0.395
-0.4
-0.39
-0.385
-0.39
-0.39
-0.395
-0.4
-0.4
-0.4
-0.375
-0.375
-0.38
-0.395
-0.39
-0.39
-0.39
-0.395
-0.4
-0.395
-0.39
-0.39
-0.38
-0.38
-0.385
-0.395
-0.395
-0.38
-0.375
-0.385
-0.38
-0.38
-0.38
-0.37
-0.37
-0.38
-0.38
-0.385
-0.375
-0.36
-0.34
-0.33
-0.33
-0.335
-0.33
-0.31
-0.305
-0.315
-0.33
-0.34
-0.325
-0.31
-0.28
-0.25
-0.235
-0.215
-0.205
-0.2
-0.225
-0.23
-0.245
-0.265
-0.27
-0.275
-0.285
-0.28
-0.29
-0.31
-0.315
-0.325
-0.295
-0.33
-0.37
-0.385
-0.38
-0.375
-0.39
-0.405
-0.41
-0.425
-0.42
-0.405
-0.385
-0.385
-0.405
-0.41
-0.42
-0.415
-0.41
-0.39
-0.395
-0.395
-0.405
-0.41
-0.415
-0.445
-0.465
-0.515
-0.51
-0.45
-0.31
-0.065
0.23
0.585
0.98
1.31
1.415
1.26
0.89
0.49
0.225
0.12
0.095
-0.005
-0.145
-0.245
-0.265
-0.29
-0.32
-0.375
-0.395
-0.435
-0.455
-0.445
-0.43
-0.43
-0.45
-0.455
-0.45
-0.445
-0.445
-0.455
-0.46
-0.475
-0.47
-0.47
-0.46
-0.46
-0.47
-0.465
-0.47
-0.45
-0.465
-0.47
-0.47
-0.475
-0.475
-0.46
-0.47
-0.475
-0.485
-0.48
-0.46
-0.465
-0.465
-0.485
-0.495
-0.5
-0.495
-0.475
-0.47
-0.49
-0.475
-0.49
-0.48
-0.47
-0.46
-0.465
-0.48
-0.485
-0.485
-0.465
-0.465
-0.465
-0.465
-0.465
-0.455
-0.46
-0.45
-0.435
-0.435
-0.43
-0.42
-0.405
-0.405
-0.4
-0.395
-0.41
-0.38
-0.375
-0.355
-0.34
-0.34
-0.345
-0.315
-0.32
-0.295
-0.285
-0.27
-0.28
-0.25
-0.235
-0.22
-0.22
-0.215
-0.21
-0.195
-0.19
-0.175
-0.16
-0.16
-0.16
-0.15
-0.14
-0.14
-0.15
-0.145
-0.16
-0.16
-0.155
-0.16
-0.17
-0.18
-0.205
-0.21
-0.205
-0.21
-0.235
-0.245
-0.27
-0.275
-0.27
-0.28
-0.3
-0.305
-0.315
-0.33
-0.325
-0.345
-0.35
-0.36
-0.38
-0.375
-0.365
-0.355
-0.37
-0.38
-0.385
-0.38
-0.375
-0.37
-0.39
-0.405
-0.41
-0.405
-0.395
-0.385
-0.4
-0.41
-0.42
-0.4
-0.395
-0.39
-0.405
-0.4
-0.405
-0.41
-0.39
-0.39
-0.4
-0.405
-0.4
-0.395
-0.39
-0.38
-0.395
-0.405
-0.41
-0.385
-0.385
-0.38
-0.385
-0.39
-0.39
-0.39
-0.385
-0.38
-0.38
-0.39
-0.4
-0.39
-0.395
-0.385
-0.39
-0.4
-0.405
-0.4
-0.385
-0.39
-0.39
-0.38
-0.38
-0.375
-0.375
-0.37
-0.385
-0.405
-0.41
-0.405
-0.385
-0.375
-0.375
-0.4
-0.415
-0.4
-0.395
-0.38
-0.39
-0.385
-0.4
-0.395
-0.39
-0.395
-0.4
-0.405
-0.405
-0.4
-0.395
-0.38
-0.4
-0.41
-0.405
-0.395
-0.4
-0.39
-0.4
-0.41
-0.405
-0.395
-0.39
-0.385
-0.395
-0.4
-0.405
-0.405
-0.39
-0.39
-0.4
-0.415
-0.43
-0.41
-0.4
-0.39
-0.39
-0.405
-0.41
-0.4
-0.395
-0.41
-0.41
-0.41
-0.42
-0.41
-0.405
-0.405
-0.405
-0.4
-0.42
-0.4
-0.395
-0.395
-0.41
-0.4
-0.4
-0.395
-0.395
-0.4
-0.39
-0.37
-0.37
-0.355
-0.35
-0.335
-0.335
-0.345
-0.355
-0.36
-0.35
-0.325
-0.31
-0.295
-0.295
-0.265
-0.245
-0.245
-0.25
-0.275
-0.3
-0.295
-0.29
-0.285
-0.3
-0.31
-0.325
-0.315
-0.3
-0.305
-0.315
-0.335
-0.36
-0.365
-0.37
-0.385
-0.41
-0.415
-0.425
-0.43
-0.43
-0.415
-0.415
-0.44
-0.45
-0.455
-0.44
-0.425
-0.43
-0.44
-0.45
-0.44
-0.435
-0.425
-0.435
-0.44
-0.44
-0.44
-0.425
-0.44
-0.46
-0.505
-0.535
-0.555
-0.525
-0.415
-0.22
0.06
0.4
0.81
1.18
1.41
1.41
1.18
0.795
0.465
0.27
0.195
0.135
0.03
-0.09
-0.175
-0.225
-0.245
-0.285
-0.345
-0.385
-0.41
-0.425
-0.46
-0.475
-0.475
-0.47
-0.465
-0.475
-0.475
-0.49
-0.5
-0.505
-0.485
-0.485
-0.485
-0.48
-0.505
-0.495
-0.51
-0.5
-0.49
-0.485
-0.5
-0.5
-0.5
-0.5
-0.5
-0.505
-0.51
-0.51
-0.5
-0.48
-0.495
-0.49
-0.505
-0.52
-0.515
-0.495
-0.505
-0.505
-0.525
-0.525
-0.525
-0.51
-0.515
-0.49
-0.51
-0.525
-0.515
-0.51
-0.49
-0.49
-0.495
-0.505
-0.505
-0.5
-0.49
-0.495
-0.49
-0.5
-0.49
-0.47
-0.48
-0.48
-0.485
-0.485
-0.465
-0.455
-0.45
-0.44
-0.415
-0.425
-0.415
-0.405
-0.385
-0.39
-0.385
-0.37
-0.36
-0.34
-0.335
-0.34
-0.315
-0.315
-0.285
-0.265
-0.255
-0.24
-0.24
-0.235
-0.225
-0.2
-0.195
-0.195
-0.185
-0.175
-0.155
-0.155
-0.15
-0.14
-0.14
-0.16
-0.16
-0.145
-0.155
-0.155
-0.175
-0.19
-0.2
-0.215
-0.225
-0.24
-0.25
-0.275
-0.28
-0.29
-0.31
-0.33
-0.345
-0.37
-0.37
-0.37
-0.375
-0.385
-0.4
-0.405
-0.4
-0.405
-0.405
-0.41
-0.42
-0.43
-0.415
-0.425
-0.435
-0.435
-0.425
-0.43
-0.42
-0.41
-0.42
-0.435
-0.44
-0.445
-0.435
-0.435
-0.425
-0.44
-0.44
-0.45
-0.435
-0.415
-0.42
-0.42
-0.435
-0.45
-0.44
-0.43
-0.43
-0.435
-0.43
-0.44
-0.425
-0.415
-0.405
-0.41
-0.42
-0.43
-0.425
-0.405
-0.4
-0.4
-0.41
-0.41
-0.4
-0.39
-0.39
-0.4
-0.395
-0.4
-0.395
-0.39
-0.385
-0.39
-0.4
-0.41
-0.4
-0.39
-0.39
-0.39
-0.4
-0.4
-0.395
-0.385
-0.385
-0.39
-0.395
-0.405
-0.41
-0.395
-0.39
-0.38
-0.39
-0.4
-0.39
-0.38
-0.385
-0.39
-0.4
-0.4
-0.39
-0.385
-0.38
-0.375
-0.39
-0.405
-0.4
-0.385
-0.39
-0.39
-0.395
-0.405
-0.395
-0.38
-0.38
-0.385
-0.39
-0.4
-0.395
-0.39
-0.385
-0.375
-0.38
-0.375
-0.38
-0.385
-0.385
-0.395
-0.395
-0.39
-0.385
-0.375
-0.37
-0.375
-0.385
-0.395
-0.39
-0.37
-0.375
-0.38
-0.385
-0.385
-0.375
-0.375
-0.37
-0.37
-0.375
-0.37
-0.37
-0.365
-0.36
-0.375
-0.375
-0.39
-0.385
-0.37
-0.365
-0.36
-0.375
-0.395
-0.375
-0.37
-0.35
-0.35
-0.35
-0.335
-0.34
-0.33
-0.305
-0.295
-0.3
-0.31
-0.31
-0.305
-0.3
-0.29
-0.285
-0.3
-0.27
-0.25
-0.23
-0.2
-0.19
-0.205
-0.21
-0.215
-0.235
-0.235
-0.235
-0.265
-0.25
-0.255
-0.25
-0.255
-0.265
-0.285
-0.28
-0.255
-0.27
-0.28
-0.315
-0.34
-0.36
-0.355
-0.355
-0.365
-0.37
-0.385
-0.375
-0.37
-0.37
-0.37
-0.38
-0.38
-0.385
-0.375
-0.37
-0.37
-0.385
-0.385
-0.375
-0.375
-0.37
-0.385
-0.38
-0.39
-0.38
-0.385
-0.405
-0.425
-0.465
-0.485
-0.46
-0.38
-0.215
0.005
0.28
0.61
0.98
1.3
1.46
1.42
1.175
0.84
0.55
0.36
0.27
0.2
0.135
0.015
-0.085
-0.135
-0.17
-0.22
-0.275
-0.325
-0.355
-0.37
-0.395
-0.405
-0.4
-0.41
-0.41
-0.405
-0.41
-0.41
-0.415
-0.435
-0.425
-0.42
-0.415
-0.425
-0.42
-0.435
-0.43
-0.425
-0.425
-0.425
-0.425
-0.43
-0.44
-0.41
-0.415
-0.425
-0.435
-0.445
-0.44
-0.43
-0.425
-0.435
-0.44
-0.45
-0.44
-0.435
-0.43
-0.44
-0.445
-0.46
-0.455
-0.435
-0.435
-0.435
-0.445
-0.445
-0.435
-0.445
-0.435
-0.44
-0.43
-0.455
-0.44
-0.425
-0.42
-0.425
-0.435
-0.435
-0.43
-0.415
-0.405
-0.405
-0.4
-0.405
-0.395
-0.395
-0.385
-0.385
-0.395
-0.39
-0.37
-0.36
-0.35
-0.345
-0.335
-0.345
-0.32
-0.305
-0.29
-0.285
-0.275
-0.295
-0.26
-0.245
-0.23
-0.215
-0.215
-0.205
-0.19
-0.175
-0.155
-0.145
-0.15
-0.145
-0.125
-0.11
-0.095
-0.09
-0.1
-0.11
-0.09
-0.08
-0.07
-0.085
-0.09
-0.105
-0.095
-0.115
-0.115
-0.115
-0.135
-0.155
-0.155
-0.16
-0.175
-0.195
-0.225
-0.235
-0.245
-0.245
-0.265
-0.265
-0.28
-0.295
-0.285
-0.295
-0.3
-0.31
-0.32
-0.32
-0.335
-0.325
-0.325
-0.345
-0.35
-0.36
-0.355
-0.34
-0.345
-0.345
-0.345
-0.35
-0.345
-0.34
-0.33
-0.34
-0.355
-0.375
-0.375
-0.37
-0.36
-0.365
-0.375
-0.375
-0.37
-0.355
-0.365
-0.355
-0.365
-0.37
-0.36
-0.35
-0.34
-0.35
-0.365
-0.37
-0.36
-0.345
-0.33
-0.335
-0.34
-0.345
-0.345
-0.345
-0.34
-0.335
-0.34
-0.33
-0.32
-0.31
-0.315
-0.32
-0.325
-0.34
-0.315
-0.31
-0.315
-0.32
-0.33
-0.335
-0.325
-0.33
-0.325
-0.32
-0.32
-0.325
-0.33
-0.32
-0.32
-0.315
-0.315
-0.32
-0.31
-0.305
-0.31
-0.315
-0.32
-0.325
-0.31
-0.315
-0.31
-0.32
-0.33
-0.325
-0.325
-0.33
-0.32
-0.31
-0.325
-0.315
-0.325
-0.325
-0.33
-0.325
-0.32
-0.335
-0.335
-0.32
-0.305
-0.31
-0.32
-0.335
-0.32
-0.31
-0.295
-0.305
-0.32
-0.315
-0.32
-0.305
-0.3
-0.305
-0.31
-0.315
-0.305
-0.305
-0.3
-0.305
-0.305
-0.305
-0.3
-0.295
-0.305
-0.3
-0.31
-0.315
-0.305
-0.31
-0.3
-0.31
-0.32
-0.33
-0.32
-0.295
-0.3
-0.31
-0.31
-0.32
-0.32
-0.31
-0.305
-0.31
-0.325
-0.32
-0.32
-0.31
-0.3
-0.31
-0.315
-0.315
-0.305
-0.305
-0.295
-0.295
-0.31
-0.3
-0.3
-0.28
-0.275
-0.28
-0.265
-0.265
-0.26
-0.25
-0.24
-0.245
-0.24
-0.255
-0.24
-0.24
-0.22
-0.22
-0.2
-0.2
-0.185
-0.155
-0.135
-0.145
-0.16
-0.185
-0.19
-0.175
-0.17
-0.185
-0.195
-0.21
-0.215
-0.2
-0.215
-0.22
-0.23
-0.235
-0.235
-0.24
-0.25
-0.255
-0.28
-0.3
-0.295
-0.305
-0.3
-0.31
-0.315
-0.315
-0.31
-0.305
-0.31
-0.32
-0.325
-0.32
-0.32
-0.315
-0.315
-0.32
-0.315
-0.325
-0.325
-0.31
-0.305
-0.295
-0.3
-0.325
-0.325
-0.325
-0.355
-0.38
-0.405
-0.385
-0.305
-0.19
0.005
0.245
0.5
0.805
1.12
1.33
1.37
1.205
0.93
0.63
0.39
0.265
0.235
0.19
0.09
-0.035
-0.115
-0.145
-0.165
-0.215
-0.255
-0.3
-0.32
-0.335
-0.335
-0.335
-0.34
-0.33
-0.335
-0.325
-0.335
-0.345
-0.355
-0.37
-0.35
-0.35
-0.33
-0.33
-0.34
-0.36
-0.35
-0.335
-0.335
-0.34
-0.365
-0.355
-0.345
-0.335
-0.34
-0.33
-0.35
-0.35
-0.36
-0.345
-0.345
-0.335
-0.345
-0.345
-0.34
-0.335
-0.32
-0.34
-0.345
-0.355
-0.345
-0.335
-0.32
-0.335
-0.335
-0.345
-0.34
-0.33
-0.345
-0.345
-0.33
-0.34
-0.325
-0.325
-0.325
-0.32
-0.335
-0.34
-0.345
-0.32
-0.325
-0.335
-0.33
-0.33
-0.32
-0.3
-0.3
-0.295
-0.305
-0.29
-0.275
-0.265
-0.265
-0.265
-0.25
-0.255
-0.25
-0.235
-0.225
-0.22
-0.22
-0.22
-0.2
-0.185
-0.165
-0.15
-0.145
-0.15
-0.14
-0.125
-0.105
-0.09
-0.065
-0.065
-0.065
-0.05
-0.045
-0.055
-0.045
-0.045
-0.02
-0.01
-0.005
-0.01
-0.015
-0.02
-0.005
0.01
0.005
-0.01
-0.03
-0.04
-0.055
-0.05
-0.065
-0.085
-0.115
-0.12
-0.115
-0.125
-0.135
-0.145
-0.16
-0.175
-0.185
-0.19
-0.19
-0.185
-0.205
-0.225
-0.215
-0.22
-0.215
-0.225
-0.23
-0.245
-0.24
-0.23
-0.24
-0.23
-0.23
-0.225
-0.235
-0.23
-0.24
-0.22
-0.235
-0.24
-0.25
-0.245
-0.23
-0.235
-0.235
-0.24
-0.235
-0.23
-0.235
-0.24
-0.23
-0.235
-0.215
-0.21
-0.225
-0.235
-0.25
-0.245
-0.24
-0.24
-0.23
-0.26
-0.25
-0.24
-0.22
-0.2
-0.215
-0.22
-0.21
-0.205
-0.2
-0.195
-0.205
-0.21
-0.215
-0.225
-0.215
-0.205
-0.205
-0.2
-0.205
-0.21
-0.22
-0.2
-0.18
-0.195
-0.205
-0.2
-0.195
-0.2
-0.19
-0.19
-0.19
-0.2
-0.205
-0.2
-0.195
-0.19
-0.185
-0.195
-0.205
-0.215
-0.185
-0.175
-0.175
-0.195
-0.19
-0.195
-0.2
-0.195
-0.21
-0.225
-0.225
-0.215
-0.185
-0.195
-0.215
-0.23
-0.215
-0.19
-0.205
-0.21
-0.205
-0.21
-0.195
-0.2
-0.2
-0.2
-0.21
-0.215
-0.2
-0.195
-0.195
-0.205
-0.21
-0.23
-0.215
-0.215
-0.21
-0.2
-0.19
-0.205
-0.19
-0.18
-0.18
-0.21
-0.225
-0.225
-0.225
-0.21
-0.22
-0.22
-0.215
-0.215
-0.21
-0.215
-0.21
-0.215
-0.215
-0.21
-0.2
-0.195
-0.19
-0.205
-0.2
-0.21
-0.195
-0.18
-0.17
-0.17
-0.17
-0.19
-0.175
-0.165
-0.15
-0.14
-0.15
-0.16
-0.145
-0.12
-0.095
-0.085
-0.085
-0.075
-0.07
-0.065
-0.07
-0.095
-0.105
-0.13
-0.135
-0.13
-0.12
-0.125
-0.13
-0.155
-0.165
-0.155
-0.15
-0.165
-0.185
-0.22
-0.235
-0.24
-0.255
-0.26
-0.265
-0.275
-0.265
-0.26
-0.255
-0.26
-0.255
-0.265
-0.265
-0.25
-0.275
-0.275
-0.29
-0.285
-0.285
-0.28
-0.275
-0.28
-0.285
-0.295
-0.29
-0.29
-0.295
-0.335
-0.375
-0.42
-0.4
-0.33
-0.135
0.135
0.445
0.785
1.17
1.49
1.625
1.55
1.275
0.905
0.565
0.375
0.275
0.22
0.105
-0.035
-0.115
-0.145
-0.15
-0.185
-0.245
-0.28
-0.29
-0.29
-0.31
-0.305
-0.325
-0.33
-0.31
-0.305
-0.325
-0.35
-0.345
-0.35
-0.33
-0.335
-0.34
-0.335
-0.35
-0.355
-0.355
-0.335
-0.34
-0.35
-0.36
-0.365
-0.355
-0.355
-0.345
-0.345
-0.35
-0.37
-0.36
-0.35
-0.355
-0.355
-0.355
-0.355
-0.355
-0.345
-0.345
-0.33
-0.34
-0.36
-0.36
-0.355
-0.34
-0.34
-0.345
-0.365
-0.355
-0.335
-0.33
-0.34
-0.345
-0.345
-0.33
-0.325
-0.325
-0.33
-0.325
-0.33
-0.325
-0.3
-0.285
-0.295
-0.3
-0.31
-0.31
-0.285
-0.275
-0.255
-0.27
-0.27
-0.26
-0.24
-0.22
-0.215
-0.22
-0.205
-0.2
-0.185
-0.165
-0.165
-0.145
-0.15
-0.145
-0.12
-0.11
-0.1
-0.09
-0.08
-0.08
-0.065
-0.05
-0.03
-0.03
-0.04
-0.02
-0.015
0.0
0.01
0.0
-0.015
-0.02
0.0
-0.005
-0.01
-0.03
-0.03
-0.03
-0.03
-0.045
-0.055
-0.08
-0.115
-0.125
-0.13
-0.125
-0.14
-0.17
-0.21
-0.22
-0.22
-0.225
-0.235
-0.255
-0.265
-0.26
-0.265
-0.26
-0.265
-0.29
-0.295
-0.295
-0.29
-0.3
-0.305
-0.325
-0.32
-0.325
-0.33
-0.31
-0.31
-0.345
-0.34
-0.34
-0.335
-0.325
-0.33
-0.345
-0.355
-0.35
-0.33
-0.325
-0.33
-0.34
-0.345
-0.345
-0.33
-0.32
-0.335
-0.335
-0.35
-0.33
-0.31
-0.305
-0.325
-0.325
-0.325
-0.315
-0.305
-0.305
-0.305
-0.325
-0.335
-0.33
-0.32
-0.32
-0.31
-0.325
-0.325
-0.32
-0.325
-0.31
-0.32
-0.32
-0.335
-0.34
-0.325
-0.32
-0.335
-0.35
-0.35
-0.34
-0.325
-0.325
-0.33
-0.335
-0.34
-0.345
-0.345
-0.335
-0.34
-0.34
-0.36
-0.355
-0.345
-0.34
-0.34
-0.345
-0.355
-0.34
-0.335
-0.355
-0.365
-0.36
-0.35
-0.35
-0.35
-0.365
-0.345
-0.35
-0.37
-0.37
-0.355
-0.35
-0.34
-0.355
-0.365
-0.37
-0.37
-0.355
-0.365
-0.365
-0.38
-0.37
-0.36
-0.35
-0.35
-0.365
-0.37
-0.37
-0.365
-0.37
-0.37
-0.38
-0.375
-0.365
-0.365
-0.35
-0.36
-0.37
-0.385
-0.38
-0.375
-0.365
-0.375
-0.375
-0.39
-0.365
-0.355
-0.355
-0.36
-0.355
-0.35
-0.335
-0.325
-0.31
-0.3
-0.305
-0.325
-0.32
-0.305
-0.305
-0.305
-0.305
-0.3
-0.265
-0.235
-0.22
-0.235
-0.25
-0.275
-0.295
-0.28
-0.265
-0.265
-0.275
-0.29
-0.29
-0.28
-0.275
-0.29
-0.305
-0.32
-0.34
-0.345
-0.355
-0.38
-0.405
-0.435
-0.44
-0.435
-0.42
-0.425
-0.445
-0.44
-0.435
-0.425
-0.43
-0.43
-0.44
-0.455
-0.43
-0.42
-0.425
-0.425
-0.42
-0.45
-0.455
-0.44
-0.465
-0.505
-0.545
-0.55
-0.525
-0.425
-0.245
0.05
0.4
0.79
1.195
1.475
1.56
1.395
1.065
0.67
0.345
0.175
0.12
0.06
-0.05
-0.155
-0.215
-0.26
-0.31
-0.35
-0.39
-0.425
-0.465
-0.455
-0.445
-0.45
-0.46
-0.48
-0.46
-0.46
-0.48
-0.49
-0.49
-0.49
-0.48
-0.47
-0.465
-0.46
-0.46
-0.48
-0.505
-0.495
-0.5
-0.49
-0.495
-0.495
-0.49
-0.485
-0.475
-0.485
-0.48
-0.485
-0.49
-0.485
-0.485
-0.485
-0.51
-0.505
-0.5
-0.48
-0.485
-0.48
-0.495
-0.505
-0.485
-0.475
-0.465
-0.475
-0.49
-0.495
-0.485
-0.48
-0.49
-0.48
-0.485
-0.49
-0.485
-0.475
-0.46
-0.455
-0.46
-0.48
-0.47
-0.45
-0.44
-0.44
-0.445
-0.44
-0.41
-0.4
-0.385
-0.39
-0.39
-0.395
-0.37
-0.345
-0.34
-0.335
-0.325
-0.3
-0.305
-0.295
-0.265
-0.25
-0.245
-0.24
-0.23
-0.22
-0.205
-0.19
-0.19
-0.19
-0.175
-0.16
-0.145
-0.155
-0.175
-0.175
-0.165
-0.145
-0.14
-0.135
-0.14
-0.16
-0.175
-0.18
-0.19
-0.215
-0.23
-0.25
-0.25
-0.255
-0.265
-0.295
-0.32
-0.345
-0.35
-0.34
-0.345
-0.35
-0.375
-0.395
-0.385
-0.37
-0.37
-0.375
-0.405
-0.42
-0.41
-0.4
-0.405
-0.41
-0.415
-0.415
-0.405
-0.4
-0.405
-0.42
-0.415
-0.425
-0.425
-0.41
-0.405
-0.41
-0.435
-0.445
-0.425
-0.42
-0.41
-0.405
-0.42
-0.42
-0.4
-0.41
-0.425
-0.415
-0.42
-0.43
-0.41
-0.4
-0.395
-0.405
-0.41
-0.405
-0.395
-0.39
-0.38
-0.385
-0.385
-0.39
-0.365
-0.365
-0.37
-0.375
-0.375
-0.375
-0.36
-0.36
-0.355
-0.365
-0.36
-0.375
-0.375
-0.36
-0.35
-0.35
-0.355
-0.38
-0.38
-0.37
-0.365
-0.365
-0.375
-0.38
-0.37
-0.35
-0.36
-0.36
-0.37
-0.375
-0.37
-0.365
-0.37
-0.37
-0.37
-0.375
-0.38
-0.365
-0.36
-0.36
-0.365
-0.38
-0.375
-0.37
-0.35
-0.36
-0.37
-0.37
-0.375
-0.37
-0.36
-0.37
-0.37
-0.385
-0.375
-0.355
-0.36
-0.365
-0.375
-0.365
-0.365
-0.365
-0.36
-0.38
-0.385
-0.385
-0.37
-0.365
-0.355
-0.36
-0.37
-0.385
-0.37
-0.355
-0.355
-0.36
-0.37
-0.37
-0.365
-0.375
-0.36
-0.375
-0.375
-0.385
-0.37
-0.355
-0.345
-0.34
-0.35
-0.34
-0.325
-0.305
-0.285
-0.285
-0.275
-0.3
-0.3
-0.31
-0.315
-0.31
-0.315
-0.295
-0.275
-0.265
-0.24
-0.215
-0.215
-0.215
-0.23
-0.25
-0.245
-0.24
-0.235
-0.255
-0.25
-0.24
-0.235
-0.25
-0.26
-0.28
-0.27
-0.255
-0.285
-0.31
-0.31
-0.355
-0.36
-0.35
-0.355
-0.35
-0.37
-0.385
-0.385
-0.375
-0.37
-0.39
-0.39
-0.39
-0.375
-0.365
-0.37
-0.375
-0.39
-0.39
-0.375
-0.37
-0.375
-0.39
-0.39
-0.4
-0.39
-0.395
-0.42
-0.465
-0.49
-0.485
-0.415
-0.24
0.035
0.375
0.73
1.105
1.41
1.545
1.425
1.115
0.74
0.425
0.225
0.165
0.125
0.03
-0.065
-0.15
-0.19
-0.225
-0.26
-0.31
-0.345
-0.385
-0.395
-0.39
-0.39
-0.395
-0.405
-0.41
-0.405
-0.41
-0.415
-0.41
-0.41
-0.425
-0.4
-0.405
-0.41
-0.425
-0.425
-0.425
-0.42
-0.41
-0.4
-0.405
-0.415
-0.42
-0.41
-0.405
-0.41
-0.405
-0.415
-0.4
-0.39
-0.385
-0.4
-0.41
-0.425
-0.425
-0.435
-0.425
-0.42
-0.43
-0.42
-0.43
-0.415
-0.4
-0.405
-0.405
-0.41
-0.41
-0.39
-0.38
-0.37
-0.385
-0.405
-0.425
-0.425
-0.405
-0.375
-0.375
-0.385
-0.395
-0.39
-0.375
-0.36
-0.35
-0.345
-0.33
-0.325
-0.325
-0.335
-0.3
-0.29
-0.285
-0.275
-0.255
-0.245
-0.25
-0.25
-0.245
-0.22
-0.2
-0.18
-0.17
-0.16
-0.17
-0.145
-0.125
-0.125
-0.1
-0.09
-0.095
-0.08
-0.07
-0.06
-0.055
-0.06
-0.075
-0.055
-0.035
-0.025
-0.03
-0.045
-0.055
-0.065
-0.07
-0.06
-0.08
-0.1
-0.115
-0.12
-0.125
-0.155
-0.17
-0.19
-0.21
-0.235
-0.22
-0.245
-0.255
-0.28
-0.285
-0.28
-0.27
-0.275
-0.28
-0.28
-0.29
-0.29
-0.29
-0.285
-0.285
-0.32
-0.33
-0.31
-0.29
-0.285
-0.3
-0.305
-0.32
-0.315
-0.315
-0.31
-0.31
-0.32
-0.33
-0.32
-0.32
-0.315
-0.31
-0.315
-0.33
-0.325
-0.315
-0.305
-0.3
-0.315
-0.315
-0.31
-0.29
-0.305
-0.285
-0.32
-0.32
-0.305
-0.3
-0.29
-0.29
-0.295
-0.3
-0.295
-0.28
-0.28
-0.28
-0.28
-0.29
-0.275
-0.275
-0.265
-0.275
-0.28
-0.285
-0.28
-0.27
-0.27
-0.27
-0.285
-0.28
-0.285
-0.28
-0.27
-0.28
-0.285
-0.29
-0.28
-0.28
-0.275
-0.28
-0.285
-0.305
-0.29
-0.285
-0.28
-0.285
-0.28
-0.29
-0.275
-0.28
-0.275
-0.285
-0.295
-0.295
-0.29
-0.275
-0.27
-0.265
-0.295
-0.31
-0.31
-0.295
-0.28
-0.29
-0.28
-0.285
-0.285
-0.285
-0.28
-0.275
-0.285
-0.29
-0.29
-0.285
-0.28
-0.285
-0.285
-0.285
-0.275
-0.28
-0.285
-0.3
-0.29
-0.295
-0.29
-0.29
-0.275
-0.275
-0.275
-0.295
-0.3
-0.29
-0.295
-0.29
-0.285
-0.285
-0.285
-0.285
-0.28
-0.285
-0.275
-0.27
-0.26
-0.235
-0.23
-0.235
-0.23
-0.24
-0.225
-0.22
-0.21
-0.23
-0.235
-0.23
-0.205
-0.19
-0.165
-0.155
-0.13
-0.135
-0.145
-0.15
-0.17
-0.165
-0.18
-0.195
-0.2
-0.195
-0.185
-0.18
-0.19
-0.205
-0.2
-0.205
-0.225
-0.25
-0.28
-0.285
-0.29
-0.295
-0.3
-0.32
-0.315
-0.32
-0.295
-0.3
-0.31
-0.305
-0.315
-0.315
-0.295
-0.29
-0.295
-0.31
-0.315
-0.32
-0.31
-0.295
-0.29
-0.3
-0.315
-0.355
-0.37
-0.395
-0.395
-0.38
-0.3
-0.135
0.12
0.435
0.77
1.14
1.405
1.5
1.405
1.135
0.81
0.5
0.295
0.205
0.185
0.12
0.02
-0.06
-0.115
-0.165
-0.205
-0.22
-0.265
-0.305
-0.315
-0.325
-0.325
-0.305
-0.3
-0.31
-0.315
-0.32
-0.31
