Lead II
-0.295
-0.295
-0.275
-0.235
-0.225
-0.235
-0.245
-0.215
-0.175
-0.175
-0.2
-0.23
-0.215
-0.19
-0.145
-0.115
-0.125
-0.155
-0.165
-0.13
-0.09
-0.09
-0.08
-0.065
-0.045
-0.015
0.01
0.035
0.045
0.065
0.075
0.09
0.095
0.1
0.11
0.115
0.115
0.13
0.15
0.175
0.185
0.18
0.165
0.16
0.17
0.18
0.17
0.155
0.14
0.12
0.12
0.065
0.045
-0.005
-0.01
-0.02
-0.02
-0.045
-0.075
-0.13
-0.16
-0.19
-0.18
-0.19
-0.215
-0.22
-0.225
-0.24
-0.225
-0.245
-0.28
-0.31
-0.32
-0.295
-0.27
-0.27
-0.28
-0.305
-0.31
-0.305
-0.29
-0.28
-0.3
-0.32
-0.32
-0.305
-0.3
-0.29
-0.295
-0.305
-0.305
-0.3
-0.295
-0.27
-0.27
-0.285
-0.31
-0.33
-0.305
-0.265
-0.26
-0.245
-0.24
-0.245
-0.23
-0.19
-0.2
-0.23
-0.265
-0.275
-0.275
-0.29
-0.295
-0.295
-0.31
-0.3
-0.305
-0.31
-0.31
-0.305
-0.295
-0.315
-0.33
-0.36
-0.395
-0.39
-0.395
-0.375
-0.37
-0.345
-0.34
-0.35
-0.355
-0.355
-0.335
-0.33
-0.345
-0.355
-0.35
-0.335
-0.32
-0.35
-0.365
-0.4
-0.405
-0.36
-0.345
-0.32
-0.33
-0.36
-0.36
-0.345
-0.33
-0.335
-0.345
-0.355
-0.355
-0.335
-0.33
-0.335
-0.365
-0.39
-0.39
-0.365
-0.295
-0.19
-0.035
0.145
0.325
0.53
0.73
0.895
0.91
0.8
0.6
0.375
0.075
-0.305
-0.64
-0.885
-0.935
-0.855
-0.745
-0.655
-0.56
-0.505
-0.435
-0.395
-0.345
-0.34
-0.345
-0.365
-0.355
-0.33
-0.315
-0.32
-0.325
-0.335
-0.34
-0.325
-0.305
-0.285
-0.27
-0.275
-0.26
-0.23
-0.195
-0.19
-0.19
-0.23
-0.235
-0.225
-0.195
-0.165
-0.155
-0.14
-0.13
-0.105
-0.075
-0.055
-0.04
-0.02
0.0
0.01
0.03
0.04
0.045
0.055
0.065
0.085
0.095
0.1
0.095
0.09
0.09
0.095
0.115
0.11
0.09
0.065
0.045
0.04
0.03
0.015
-0.035
-0.08
-0.12
-0.125
-0.12
-0.14
-0.19
-0.225
-0.265
-0.27
-0.28
-0.275
-0.29
-0.305
-0.325
-0.325
-0.315
-0.3
-0.325
-0.35
-0.38
-0.355
-0.35
-0.355
-0.36
-0.38
-0.4
-0.39
-0.37
-0.36
-0.365
-0.37
-0.39
-0.405
-0.39
-0.345
-0.33
-0.33
-0.34
-0.34
-0.345
-0.34
-0.32
-0.29
-0.275
-0.27
-0.26
-0.255
-0.285
-0.31
-0.32
-0.325
-0.315
-0.31
-0.32
-0.325
-0.345
-0.36
-0.36
-0.35
-0.36
-0.375
-0.385
-0.39
-0.405
-0.4
-0.425
-0.42
-0.42
-0.44
-0.43
-0.425
-0.415
-0.43
-0.44
-0.43
-0.425
-0.425
-0.43
-0.415
-0.43
-0.41
-0.4
-0.4
-0.415
-0.4
-0.405
-0.405
-0.39
-0.4
-0.42
-0.435
-0.45
-0.445
-0.43
-0.415
-0.405
-0.4
-0.415
-0.4
-0.395
-0.395
-0.405
-0.395
-0.365
-0.26
-0.125
0.05
0.2
0.365
0.54
0.705
0.795
0.795
0.67
0.485
0.295
0.01
-0.29
-0.6
-0.865
-1.0
-0.975
-0.87
-0.74
-0.655
-0.59
-0.555
-0.51
-0.465
-0.425
-0.395
-0.39
-0.41
-0.44
-0.42
-0.395
-0.365
-0.37
-0.375
-0.38
-0.36
-0.345
-0.34
-0.335
-0.345
-0.335
-0.335
-0.305
-0.275
-0.28
-0.295
-0.295
-0.265
-0.23
-0.215
-0.22
-0.21
-0.205
-0.165
-0.135
-0.115
-0.095
-0.095
-0.085
-0.065
-0.04
-0.03
-0.035
-0.05
-0.03
0.005
0.03
0.04
0.045
0.035
0.055
0.08
0.075
0.06
0.045
0.04
0.02
0.03
0.03
0.035
0.01
-0.03
-0.055
-0.065
-0.075
-0.09
-0.14
-0.18
-0.225
-0.225
-0.225
-0.255
-0.295
-0.31
-0.305
-0.275
-0.29
-0.305
-0.335
-0.38
-0.39
-0.39
-0.375
-0.395
-0.41
-0.435
-0.46
-0.425
-0.41
-0.41
-0.415
-0.42
-0.42
-0.43
-0.43
-0.425
-0.415
-0.435
-0.425
-0.395
-0.395
-0.41
-0.415
-0.425
-0.41
-0.395
-0.38
-0.375
-0.38
-0.39
-0.395
-0.385
-0.35
-0.335
-0.34
-0.34
-0.345
-0.325
-0.32
-0.31
-0.335
-0.365
-0.385
-0.365
-0.365
-0.375
-0.395
-0.405
-0.415
-0.41
-0.4
-0.41
-0.41
-0.42
-0.425
-0.445
-0.445
-0.44
-0.45
-0.47
-0.47
-0.44
-0.42
-0.43
-0.445
-0.46
-0.455
-0.45
-0.45
-0.46
-0.465
-0.465
-0.46
-0.45
-0.43
-0.42
-0.41
-0.43
-0.43
-0.435
-0.43
-0.425
-0.425
-0.455
-0.465
-0.45
-0.435
-0.41
-0.415
-0.435
-0.44
-0.465
-0.46
-0.445
-0.42
-0.355
-0.225
-0.055
0.125
0.3
0.475
0.61
0.72
0.785
0.75
0.6
0.39
0.12
-0.23
-0.56
-0.81
-0.965
-0.96
-0.88
-0.785
-0.695
-0.615
-0.565
-0.51
-0.465
-0.46
-0.425
-0.425
-0.395
-0.385
-0.39
-0.395
-0.39
-0.38
-0.375
-0.37
-0.39
-0.38
-0.35
-0.33
-0.325
-0.33
-0.33
-0.32
-0.295
-0.26
-0.26
-0.245
-0.25
-0.25
-0.23
-0.185
-0.17
-0.165
-0.17
-0.17
-0.12
-0.085
-0.07
-0.065
-0.065
-0.06
-0.025
0.015
0.025
0.035
0.015
0.015
0.025
0.055
0.07
0.06
0.04
0.045
0.05
0.055
0.045
0.035
0.015
0.005
0.0
0.015
-0.01
-0.06
-0.09
-0.115
-0.11
-0.1
-0.14
-0.195
-0.25
-0.275
-0.27
-0.25
-0.245
-0.27
-0.305
-0.325
-0.33
-0.345
-0.36
-0.385
-0.415
-0.41
-0.375
-0.36
-0.365
-0.4
-0.445
-0.445
-0.43
-0.41
-0.395
-0.395
-0.405
-0.41
-0.41
-0.405
-0.39
-0.405
-0.43
-0.435
-0.4
-0.355
-0.33
-0.34
-0.36
-0.385
-0.405
-0.39
-0.365
-0.34
-0.33
-0.32
-0.315
-0.3
-0.28
-0.26
-0.25
-0.255
-0.275
-0.305
-0.355
-0.39
-0.42
-0.43
-0.405
-0.38
-0.37
-0.36
-0.37
-0.39
-0.39
-0.36
-0.355
-0.405
-0.48
-0.495
-0.485
-0.48
-0.46
-0.45
-0.44
-0.435
-0.43
-0.435
-0.435
-0.46
-0.475
-0.45
-0.415
-0.39
-0.395
-0.43
-0.465
-0.465
-0.445
-0.41
-0.405
-0.41
-0.4
-0.405
-0.41
-0.405
-0.42
-0.42
-0.41
-0.41
-0.4
-0.385
-0.39
-0.41
-0.42
-0.415
-0.41
-0.405
-0.405
-0.395
-0.375
-0.31
-0.17
0.005
0.175
0.31
0.475
0.63
0.755
0.785
0.655
0.45
0.24
0.005
-0.275
-0.545
-0.78
-0.95
-0.99
-0.935
-0.81
-0.73
-0.67
-0.645
-0.625
-0.58
-0.505
-0.43
-0.415
-0.4
-0.38
-0.35
-0.33
-0.36
-0.39
-0.425
-0.435
-0.415
-0.4
-0.38
-0.38
-0.37
-0.36
-0.345
-0.335
-0.305
-0.305
-0.295
-0.28
-0.275
-0.245
-0.225
-0.22
-0.235
-0.255
-0.255
-0.225
-0.205
-0.17
-0.145
-0.11
-0.08
-0.075
-0.065
-0.065
-0.06
-0.075
-0.085
-0.05
0.0
0.04
0.035
0.01
0.0
-0.005
0.02
0.03
0.04
0.04
0.04
0.08
0.095
0.115
0.095
0.095
0.05
0.045
0.045
0.045
0.01
-0.055
-0.095
-0.095
-0.1
-0.115
-0.145
-0.175
-0.19
-0.2
-0.195
-0.215
-0.245
-0.27
-0.285
-0.295
-0.3
-0.315
-0.32
-0.34
-0.35
-0.345
-0.365
-0.37
-0.385
-0.38
-0.38
-0.385
-0.365
-0.37
-0.375
-0.385
-0.39
-0.39
-0.375
-0.37
-0.385
-0.41
-0.405
-0.38
-0.355
-0.335
-0.315
-0.32
-0.32
-0.33
-0.325
-0.335
-0.355
-0.37
-0.365
-0.34
-0.325
-0.31
-0.305
-0.31
-0.285
-0.25
-0.215
-0.22
-0.265
-0.3
-0.305
-0.305
-0.305
-0.315
-0.355
-0.36
-0.37
-0.365
-0.35
-0.335
-0.335
-0.365
-0.4
-0.405
-0.405
-0.395
-0.39
-0.4
-0.365
-0.34
-0.325
-0.36
-0.425
-0.455
-0.435
-0.41
-0.395
-0.395
-0.405
-0.41
-0.4
-0.395
-0.38
-0.375
-0.37
-0.365
-0.36
-0.37
-0.39
-0.4
-0.405
-0.42
-0.41
-0.395
-0.365
-0.355
-0.355
-0.375
-0.4
-0.415
-0.39
-0.31
-0.21
-0.06
0.08
0.25
0.425
0.56
0.645
0.665
0.595
0.485
0.345
0.135
-0.185
-0.53
-0.82
-0.975
-0.985
-0.875
-0.745
-0.69
-0.65
-0.6
-0.525
-0.465
-0.435
-0.43
-0.42
-0.38
-0.345
-0.345
-0.35
-0.35
-0.35
-0.32
-0.3
-0.255
-0.245
-0.225
-0.24
-0.27
-0.305
-0.335
-0.32
-0.305
-0.275
-0.24
-0.205
-0.175
-0.18
-0.175
-0.17
-0.14
-0.13
-0.105
-0.09
-0.1
-0.085
-0.055
-0.005
0.01
0.0
-0.03
-0.025
0.025
0.055
0.07
0.04
0.035
0.035
0.06
0.085
0.1
0.075
0.08
0.07
0.09
0.12
0.12
0.085
0.06
0.035
0.03
0.03
0.005
-0.03
-0.04
-0.045
-0.05
-0.075
-0.11
-0.135
-0.15
-0.185
-0.195
-0.22
-0.26
-0.3
-0.33
-0.335
-0.33
-0.33
-0.335
-0.34
-0.36
-0.365
-0.35
-0.325
-0.33
-0.345
-0.355
-0.36
-0.36
-0.355
-0.355
-0.36
-0.355
-0.37
-0.365
-0.36
-0.365
-0.375
-0.385
-0.385
-0.38
-0.35
-0.355
-0.355
-0.38
-0.375
-0.36
-0.325
-0.32
-0.31
-0.31
-0.29
-0.19
-0.155
-0.23
-0.355
-0.43
-0.42
-0.36
-0.32
-0.29
-0.295
-0.305
-0.31
-0.31
-0.305
-0.295
-0.305
-0.31
-0.32
-0.325
-0.34
-0.36
-0.365
-0.37
-0.36
-0.335
-0.325
-0.37
-0.385
-0.41
-0.4
-0.375
-0.365
-0.38
-0.38
-0.37
-0.375
-0.37
-0.375
-0.375
-0.385
-0.405
-0.39
-0.385
-0.375
-0.375
-0.375
-0.385
-0.4
-0.395
-0.38
-0.38
-0.39
-0.405
-0.415
-0.375
-0.355
-0.36
-0.355
-0.365
-0.36
-0.345
-0.33
-0.365
-0.405
-0.445
-0.45
-0.435
-0.42
-0.41
-0.395
-0.355
-0.28
-0.135
0.005
0.13
0.255
0.385
0.52
0.61
0.68
0.665
0.55
0.4
0.22
-0.03
-0.325
-0.59
-0.84
-0.995
-1.01
-0.91
-0.795
-0.71
-0.665
-0.61
-0.525
-0.46
-0.41
-0.37
-0.365
-0.38
-0.37
-0.35
-0.325
-0.32
-0.345
-0.345
-0.33
-0.31
-0.3
-0.29
-0.265
-0.245
-0.24
-0.24
-0.255
-0.27
-0.275
-0.3
-0.26
-0.22
-0.17
-0.15
-0.165
-0.16
-0.15
-0.12
-0.1
-0.09
-0.105
-0.095
-0.1
-0.065
0.0
0.035
0.01
0.0
-0.01
-0.005
0.02
0.06
0.065
0.065
0.06
0.07
0.095
0.125
0.14
0.14
0.12
0.09
0.085
0.11
0.105
0.075
0.025
0.015
-0.005
-0.025
-0.065
-0.095
-0.11
-0.11
-0.115
-0.14
-0.18
-0.215
-0.23
-0.23
-0.215
-0.215
-0.235
-0.295
-0.33
-0.33
-0.32
-0.325
-0.34
-0.38
-0.38
-0.365
-0.355
-0.35
-0.36
-0.365
-0.355
-0.35
-0.36
-0.345
-0.34
-0.335
-0.35
-0.355
-0.37
-0.36
-0.37
-0.37
-0.38
-0.365
-0.345
-0.32
-0.32
-0.34
-0.355
-0.36
-0.33
-0.325
-0.32
-0.33
-0.32
-0.295
-0.25
-0.24
-0.23
-0.255
-0.28
-0.3
-0.285
-0.255
-0.255
-0.31
-0.385
-0.445
-0.43
-0.39
-0.37
-0.36
-0.355
-0.335
-0.345
-0.365
-0.375
-0.39
-0.39
-0.37
-0.355
-0.36
-0.365
-0.38
-0.395
-0.38
-0.355
-0.335
-0.345
-0.365
-0.355
-0.35
-0.35
-0.35
-0.35
-0.365
-0.365
-0.38
-0.37
-0.345
-0.345
-0.37
-0.38
-0.375
-0.35
-0.345
-0.365
-0.38
-0.38
-0.36
-0.36
-0.365
-0.385
-0.345
-0.26
-0.11
0.055
0.23
0.365
0.525
0.66
0.77
0.825
0.78
0.61
0.415
0.175
-0.175
-0.52
-0.795
-0.95
-0.97
-0.865
-0.735
-0.635
-0.585
-0.56
-0.545
-0.5
-0.455
-0.395
-0.365
-0.36
-0.345
-0.32
-0.305
-0.29
-0.295
-0.305
-0.32
-0.325
-0.34
-0.315
-0.305
-0.285
-0.28
-0.275
-0.255
-0.23
-0.225
-0.23
-0.22
-0.21
-0.17
-0.14
-0.115
-0.11
-0.135
-0.14
-0.11
-0.075
-0.035
-0.04
-0.045
-0.055
-0.045
-0.01
0.025
0.045
0.035
0.045
0.07
0.09
0.115
0.095
0.08
0.055
0.07
0.09
0.125
0.135
0.115
0.095
0.095
0.1
0.075
0.065
0.02
0.0
-0.015
-0.015
-0.01
-0.045
-0.07
-0.1
-0.13
-0.19
-0.215
-0.25
-0.26
-0.27
-0.275
-0.26
-0.28
-0.285
-0.31
-0.325
-0.32
-0.305
-0.3
-0.305
-0.33
-0.34
-0.33
-0.32
-0.325
-0.36
-0.385
-0.4
-0.375
-0.345
-0.345
-0.345
-0.35
-0.335
-0.315
-0.305
-0.335
-0.345
-0.335
-0.315
-0.32
-0.33
-0.35
-0.36
-0.335
-0.305
-0.27
-0.245
-0.235
-0.205
-0.175
-0.17
-0.215
-0.26
-0.3
-0.32
-0.33
-0.365
-0.35
-0.33
-0.335
-0.345
-0.35
-0.34
-0.32
-0.305
-0.325
-0.365
-0.38
-0.38
-0.365
-0.38
-0.42
-0.465
-0.47
-0.45
-0.42
-0.39
-0.395
-0.41
-0.435
-0.43
-0.415
-0.405
-0.42
-0.415
-0.395
-0.385
-0.37
-0.385
-0.395
-0.41
-0.415
-0.4
-0.395
-0.39
-0.395
-0.4
-0.42
-0.41
-0.39
-0.37
-0.36
-0.365
-0.405
-0.42
-0.405
-0.355
-0.26
-0.14
0.015
0.18
0.36
0.54
0.7
0.77
0.755
0.64
0.47
0.255
-0.07
-0.465
-0.81
-1.005
-1.04
-0.935
-0.835
-0.74
-0.655
-0.575
-0.48
-0.42
-0.395
-0.41
-0.4
-0.385
-0.355
-0.355
-0.35
-0.355
-0.37
-0.38
-0.375
-0.355
-0.345
-0.325
-0.315
-0.31
-0.275
-0.225
-0.205
-0.215
-0.24
-0.27
-0.255
-0.22
-0.195
-0.18
-0.17
-0.155
-0.1
-0.06
-0.035
-0.035
-0.04
-0.035
0.005
0.03
0.055
0.06
0.065
0.06
0.055
0.09
0.12
0.135
0.125
0.115
0.125
0.17
0.19
0.13
0.04
-0.025
-0.01
0.015
0.02
-0.015
-0.05
-0.08
-0.07
-0.09
-0.125
-0.165
-0.205
-0.225
-0.215
-0.2
-0.2
-0.21
-0.245
-0.33
-0.41
-0.415
-0.39
-0.37
-0.375
-0.36
-0.365
-0.35
-0.345
-0.35
-0.37
-0.36
-0.355
-0.33
-0.305
-0.305
-0.33
-0.375
-0.375
-0.35
-0.345
-0.37
-0.38
-0.355
-0.31
-0.3
-0.29
-0.295
-0.27
-0.255
-0.265
-0.275
-0.295
-0.285
-0.28
-0.285
-0.28
-0.295
-0.3
-0.31
-0.325
-0.34
-0.345
-0.335
-0.325
-0.33
-0.33
-0.325
-0.35
-0.38
-0.4
-0.4
-0.39
-0.355
-0.32
-0.31
-0.35
-0.385
-0.38
-0.34
-0.335
-0.37
-0.4
-0.395
-0.395
-0.39
-0.4
-0.375
-0.345
-0.335
-0.355
-0.38
-0.37
-0.355
-0.35
-0.37
-0.37
-0.36
-0.35
-0.34
-0.335
-0.335
-0.355
-0.335
-0.29
-0.25
-0.215
-0.135
0.0
0.215
0.42
0.61
0.735
0.78
0.75
0.58
0.415
0.225
-0.065
-0.445
-0.78
-0.985
-1.025
-0.91
-0.765
-0.655
-0.565
-0.49
-0.415
-0.38
-0.375
-0.345
-0.33
-0.32
-0.3
-0.3
-0.315
-0.345
-0.34
-0.315
-0.27
-0.225
-0.215
-0.235
-0.265
-0.275
-0.24
-0.185
-0.155
-0.195
-0.21
-0.18
-0.12
-0.065
-0.01
-0.025
-0.13
-0.2
-0.19
-0.125
-0.09
-0.075
-0.055
-0.015
0.03
0.06
0.06
0.06
0.085
0.11
0.12
0.125
0.125
0.125
0.115
0.11
0.115
0.12
0.125
0.11
0.08
0.075
0.07
0.09
0.085
0.055
0.005
-0.02
-0.04
-0.07
-0.11
-0.15
-0.18
-0.19
-0.195
-0.19
-0.215
-0.25
-0.27
-0.265
-0.255
-0.26
-0.26
-0.285
-0.3
-0.295
-0.27
-0.275
-0.305
-0.345
-0.355
-0.34
-0.335
-0.33
-0.325
-0.34
-0.34
-0.33
-0.31
-0.29
-0.28
-0.28
-0.29
-0.285
-0.295
-0.275
-0.275
-0.27
-0.275
-0.29
-0.29
-0.275
-0.28
-0.29
-0.295
-0.275
-0.26
-0.265
-0.27
-0.275
-0.28
-0.27
-0.26
-0.26
-0.295
-0.33
-0.35
-0.34
-0.34
-0.3
-0.285
-0.3
-0.3
-0.31
-0.35
-0.405
-0.425
-0.405
-0.39
-0.375
-0.37
-0.35
-0.35
-0.345
-0.35
-0.34
-0.34
-0.335
-0.35
-0.36
-0.36
-0.38
-0.365
-0.36
-0.35
-0.345
-0.29
-0.28
-0.275
-0.285
-0.325
-0.39
-0.435
-0.4
-0.37
-0.335
-0.325
-0.355
-0.34
-0.3
-0.2
-0.04
0.135
0.315
0.47
0.63
0.75
0.8
0.68
0.435
0.21
-0.06
-0.365
-0.665
-0.885
-0.94
-0.895
-0.805
-0.71
-0.615
-0.51
-0.425
-0.39
-0.365
-0.335
-0.32
-0.3
-0.315
-0.305
-0.315
-0.29
-0.275
-0.25
-0.26
-0.28
-0.285
-0.275
-0.235
-0.235
-0.23
-0.23
-0.21
-0.205
-0.175
-0.145
-0.11
-0.1
-0.12
-0.12
-0.105
-0.095
-0.08
-0.05
-0.025
0.0
0.02
0.03
0.065
0.095
0.135
0.17
0.16
0.125
0.095
0.07
0.065
0.09
0.135
0.16
0.165
0.155
0.15
0.185
0.185
0.175
0.135
0.08
0.03
-0.01
-0.02
-0.055
-0.08
-0.1
-0.09
-0.105
-0.11
-0.155
-0.19
-0.22
-0.22
-0.21
-0.215
-0.225
-0.22
-0.265
-0.285
-0.29
-0.28
-0.28
-0.285
-0.305
-0.325
-0.325
-0.305
-0.28
-0.275
-0.305
-0.335
-0.315
-0.295
-0.29
-0.315
-0.315
-0.305
-0.29
-0.28
-0.28
-0.27
-0.29
-0.3
-0.29
-0.235
-0.22
-0.25
-0.285
-0.27
-0.215
-0.185
-0.18
-0.21
-0.24
-0.255
-0.25
-0.255
-0.27
-0.305
-0.31
-0.3
-0.275
-0.27
-0.28
-0.29
-0.32
-0.33
-0.34
-0.325
-0.32
-0.33
-0.335
-0.33
-0.305
-0.315
-0.3
-0.295
-0.295
-0.33
-0.355
-0.35
-0.34
-0.34
-0.345
-0.345
-0.32
-0.3
-0.29
-0.285
-0.29
-0.31
-0.3
-0.27
-0.27
-0.27
-0.285
-0.34
-0.365
-0.35
-0.325
-0.315
-0.325
-0.32
-0.26
-0.195
-0.1
0.035
0.18
0.37
0.57
0.73
0.805
0.785
0.605
0.4
0.13
-0.21
-0.605
-0.905
-1.025
-0.945
-0.775
-0.645
-0.58
-0.52
-0.455
-0.38
-0.335
-0.305
-0.305
-0.28
-0.29
-0.29
-0.27
-0.24
-0.24
-0.26
-0.285
-0.305
-0.26
-0.205
-0.175
-0.16
-0.15
-0.145
-0.15
-0.155
-0.16
-0.185
-0.175
-0.155
-0.095
-0.045
-0.035
-0.03
0.0
0.025
0.045
0.065
0.085
0.105
0.105
0.09
0.105
0.135
0.15
0.165
0.175
0.195
0.225
0.235
0.215
0.17
0.13
0.125
0.155
0.165
0.14
0.115
0.105
0.075
0.065
0.075
0.075
0.06
-0.01
-0.08
-0.135
-0.15
-0.15
-0.145
-0.155
-0.175
-0.165
-0.17
-0.185
-0.23
-0.265
-0.285
-0.275
-0.235
-0.225
-0.225
-0.27
-0.32
-0.305
-0.25
-0.225
-0.25
-0.285
-0.305
-0.3
-0.26
-0.255
-0.28
-0.33
-0.34
-0.335
-0.29
-0.28
-0.28
-0.265
-0.22
-0.2
-0.2
-0.25
-0.28
-0.26
-0.22
-0.16
-0.16
-0.205
-0.215
-0.2
-0.185
-0.17
-0.16
-0.17
-0.195
-0.18
-0.19
-0.235
-0.28
-0.325
-0.315
-0.28
-0.255
-0.235
-0.26
-0.285
-0.3
-0.295
-0.29
-0.27
-0.26
-0.245
-0.24
-0.265
-0.295
-0.31
-0.315
-0.31
-0.3
-0.32
-0.325
-0.315
-0.285
-0.285
-0.29
-0.3
-0.29
-0.295
-0.28
-0.275
-0.3
-0.285
-0.295
-0.285
-0.275
-0.315
-0.31
-0.295
-0.27
-0.285
-0.285
-0.285
-0.285
-0.315
-0.335
-0.315
-0.235
-0.11
0.045
0.205
0.365
0.54
0.7
0.795
0.805
0.725
0.56
0.38
0.12
-0.245
-0.61
-0.885
-0.99
-0.9
-0.74
-0.63
-0.555
-0.495
-0.44
-0.39
-0.345
-0.315
-0.295
-0.275
-0.25
-0.225
-0.215
-0.225
-0.255
-0.28
-0.295
-0.27
-0.25
-0.235
-0.225
-0.195
-0.17
-0.145
-0.145
-0.155
-0.2
-0.22
-0.19
-0.115
-0.07
-0.07
-0.08
-0.085
-0.05
-0.02
-0.005
0.01
0.02
0.03
0.045
0.06
0.06
0.07
0.1
0.115
0.145
0.17
0.18
0.185
0.165
0.16
0.15
0.175
0.185
0.17
0.165
0.155
0.15
0.155
0.16
0.14
0.1
0.035
-0.015
-0.02
0.015
0.03
0.02
-0.025
-0.11
-0.18
-0.23
-0.235
-0.25
-0.245
-0.235
-0.225
-0.21
-0.25
-0.27
-0.27
-0.26
-0.24
-0.205
-0.22
-0.255
-0.3
-0.305
-0.305
-0.28
-0.27
-0.295
-0.315
-0.325
-0.3
-0.27
-0.275
-0.28
-0.28
-0.27
-0.27
-0.265
-0.275
-0.29
-0.295
-0.25
-0.21
-0.17
-0.185
-0.23
-0.28
-0.31
-0.265
-0.23
-0.19
-0.165
-0.17
-0.18
-0.18
-0.195
-0.23
-0.265
-0.285
-0.26
-0.255
-0.255
-0.285
-0.31
-0.3
-0.265
-0.23
-0.205
-0.19
-0.235
-0.305
-0.345
-0.375
-0.35
-0.345
-0.325
-0.335
-0.31
-0.295
-0.31
-0.345
-0.335
-0.335
-0.315
-0.29
-0.255
-0.245
-0.265
-0.3
-0.32
-0.315
-0.29
-0.305
-0.345
-0.385
-0.37
-0.33
-0.31
-0.325
-0.345
-0.33
-0.31
-0.285
-0.29
-0.315
-0.335
-0.325
-0.325
-0.315
-0.31
-0.305
-0.275
-0.205
-0.055
0.135
0.315
0.445
0.585
0.72
0.815
0.875
0.83
0.68
0.505
0.31
0.055
-0.28
-0.575
-0.835
-1.005
-1.0
-0.895
-0.765
-0.645
-0.565
-0.515
-0.485
-0.435
-0.375
-0.31
-0.285
-0.305
-0.32
-0.32
-0.315
-0.3
-0.315
-0.305
-0.315
-0.31
-0.28
-0.235
-0.22
-0.22
-0.245
-0.235
-0.235
-0.19
-0.165
-0.155
-0.19
-0.21
-0.18
-0.125
-0.085
-0.05
-0.025
-0.04
-0.04
-0.02
0.005
0.01
-0.015
-0.035
-0.005
0.025
0.03
0.025
0.015
0.015
0.045
0.1
0.12
0.125
0.135
0.15
0.18
0.21
0.195
0.16
0.12
0.12
0.15
0.165
0.16
0.14
0.13
0.145
0.15
0.105
0.025
-0.055
-0.07
-0.065
-0.045
-0.055
-0.08
-0.12
-0.17
-0.185
-0.19
-0.18
-0.22
-0.25
-0.285
-0.28
-0.255
-0.235
-0.23
-0.235
-0.25
-0.28
-0.3
-0.285
-0.285
-0.325
-0.39
-0.42
-0.4
-0.36
-0.34
-0.34
-0.33
-0.32
-0.28
-0.25
-0.26
-0.315
-0.33
-0.345
-0.345
-0.325
-0.345
-0.33
-0.3
-0.28
-0.245
-0.205
-0.195
-0.22
-0.285
-0.32
-0.3
-0.275
-0.28
-0.29
-0.285
-0.275
-0.25
-0.23
-0.23
-0.265
-0.29
-0.305
-0.295
-0.28
-0.29
-0.325
-0.355
-0.345
-0.32
-0.28
-0.255
-0.265
-0.305
-0.37
-0.395
-0.38
-0.365
-0.345
-0.34
-0.365
-0.38
-0.385
-0.405
-0.4
-0.4
-0.38
-0.345
-0.32
-0.335
-0.375
-0.42
-0.4
-0.36
-0.345
-0.365
-0.385
-0.4
-0.395
-0.375
-0.34
-0.325
-0.325
-0.315
-0.33
-0.35
-0.335
-0.345
-0.365
-0.375
-0.365
-0.345
-0.325
-0.34
-0.385
-0.405
-0.375
-0.26
-0.115
0.015
0.18
0.33
0.51
0.665
0.765
0.785
0.735
0.635
0.495
0.37
0.24
-0.015
-0.36
-0.68
-0.93
-1.045
-1.015
-0.895
-0.79
-0.725
-0.68
-0.6
-0.5
-0.415
-0.38
-0.41
-0.39
-0.355
-0.33
-0.345
-0.38
-0.415
-0.42
-0.365
-0.3
-0.28
-0.28
-0.305
-0.315
-0.29
-0.225
-0.21
-0.245
-0.31
-0.32
-0.295
-0.22
-0.18
-0.19
-0.205
-0.19
-0.16
-0.135
-0.12
-0.145
-0.14
-0.095
-0.04
0.0
0.01
0.025
0.045
0.04
0.04
0.085
0.08
0.04
-0.01
0.01
0.075
0.135
0.15
0.135
0.12
0.1
0.11
0.125
0.11
0.085
0.075
0.06
0.055
0.045
0.02
-0.01
-0.035
-0.055
-0.055
-0.065
-0.085
-0.11
-0.135
-0.165
-0.18
-0.2
-0.195
-0.185
-0.195
-0.21
-0.24
-0.245
-0.25
-0.29
-0.345
-0.4
-0.42
-0.39
-0.37
-0.365
-0.36
-0.35
-0.34
-0.355
-0.365
-0.36
-0.35
-0.38
-0.385
-0.375
-0.34
-0.365
-0.405
-0.415
-0.385
-0.325
-0.325
-0.385
-0.395
-0.375
-0.34
-0.325
-0.325
-0.33
-0.315
-0.295
-0.23
-0.195
-0.23
-0.265
-0.28
-0.28
-0.28
-0.275
-0.285
-0.325
-0.365
-0.39
-0.38
-0.37
-0.36
-0.35
-0.33
-0.3
-0.295
-0.31
-0.375
-0.445
-0.48
-0.475
-0.425
-0.385
-0.34
-0.335
-0.385
-0.425
-0.435
-0.415
-0.395
-0.4
-0.405
-0.4
-0.4
-0.37
-0.365
-0.365
-0.37
-0.385
-0.38
-0.365
-0.365
-0.37
-0.375
-0.385
-0.365
-0.355
-0.35
-0.355
-0.37
-0.365
-0.34
-0.315
-0.315
-0.375
-0.445
-0.47
-0.45
-0.4
-0.375
-0.325
-0.235
-0.05
0.13
0.285
0.4
0.5
0.595
0.67
0.755
0.735
0.6
0.42
0.25
0.025
-0.285
-0.585
-0.835
-0.99
-1.005
-0.925
-0.815
-0.745
-0.69
-0.625
-0.545
-0.49
-0.445
-0.42
-0.39
-0.37
-0.355
-0.335
-0.29
-0.27
-0.245
-0.265
-0.29
-0.32
-0.315
-0.32
-0.315
-0.325
-0.31
-0.295
-0.285
-0.27
-0.27
-0.255
-0.23
-0.225
-0.195
-0.18
-0.165
-0.175
-0.19
-0.17
-0.125
-0.085
-0.075
-0.085
-0.07
-0.05
0.0
0.035
0.05
0.04
0.02
0.03
0.045
0.075
0.075
0.07
0.085
0.105
0.135
0.125
0.11
0.12
0.14
0.15
0.14
0.125
0.115
0.095
0.075
0.06
0.07
0.055
0.03
-0.005
-0.015
-0.03
-0.035
-0.045
-0.075
-0.11
-0.155
-0.155
-0.15
-0.15
-0.185
-0.215
-0.275
-0.3
-0.3
-0.3
-0.32
-0.335
-0.33
-0.315
-0.325
-0.335
-0.345
-0.34
-0.3
-0.315
-0.34
-0.38
-0.405
-0.4
-0.395
-0.38
-0.36
-0.355
-0.37
-0.38
-0.375
-0.37
-0.35
-0.335
-0.345
-0.35
-0.36
-0.355
-0.335
-0.31
-0.31
-0.33
-0.35
-0.34
-0.32
-0.315
-0.31
-0.325
-0.33
-0.305
-0.28
-0.255
-0.235
-0.25
-0.255
-0.265
-0.27
-0.25
-0.26
-0.285
-0.31
-0.34
-0.345
-0.315
-0.315
-0.32
-0.36
-0.37
-0.345
-0.325
-0.32
-0.325
-0.34
-0.36
-0.355
-0.365
-0.365
-0.395
-0.385
-0.385
-0.355
-0.36
-0.39
-0.405
-0.4
-0.41
-0.395
-0.385
-0.395
-0.4
-0.39
-0.38
-0.355
-0.345
-0.36
-0.38
-0.4
-0.39
-0.37
-0.33
-0.33
-0.365
-0.395
-0.395
-0.365
-0.345
-0.345
-0.355
-0.37
-0.355
-0.37
-0.35
-0.35
-0.345
-0.355
-0.295
-0.165
-0.01
0.12
0.225
0.335
0.48
0.615
0.685
0.625
0.475
0.305
0.06
-0.26
-0.59
-0.88
-1.045
-1.07
-0.975
-0.86
-0.745
-0.675
-0.615
-0.545
-0.465
-0.365
-0.33
-0.335
-0.37
-0.38
-0.385
-0.36
-0.35
-0.36
-0.365
-0.335
-0.32
-0.285
-0.275
-0.27
-0.29
-0.3
-0.31
-0.295
-0.25
-0.22
-0.21
-0.23
-0.24
-0.23
-0.195
-0.165
-0.145
-0.155
-0.16
-0.15
-0.105
-0.095
-0.085
-0.055
-0.045
-0.03
-0.005
-0.025
-0.02
-0.005
0.03
0.055
0.08
0.12
0.115
0.075
0.06
0.09
0.135
0.14
0.125
0.09
0.085
0.095
0.1
0.085
0.065
0.04
0.04
0.035
0.04
-0.005
-0.05
-0.085
-0.1
-0.1
-0.105
-0.105
-0.13
-0.15
-0.22
-0.275
-0.295
-0.29
-0.295
-0.29
-0.275
-0.255
-0.275
-0.335
-0.39
-0.395
-0.365
-0.335
-0.33
-0.35
-0.375
-0.4
-0.405
-0.375
-0.36
-0.35
-0.365
-0.385
-0.365
-0.335
-0.33
-0.355
-0.37
-0.36
-0.36
-0.345
-0.335
-0.33
-0.32
-0.325
-0.32
-0.295
-0.28
-0.29
-0.29
-0.3
-0.285
-0.265
-0.25
-0.25
-0.23
-0.245
-0.245
-0.25
-0.26
-0.29
-0.31
-0.325
-0.34
-0.305
-0.285
-0.27
-0.25
-0.24
-0.275
-0.34
-0.395
-0.42
-0.415
-0.395
-0.38
-0.38
-0.375
-0.37
-0.38
-0.37
-0.36
-0.345
-0.315
-0.305
-0.32
-0.345
-0.36
-0.365
-0.38
-0.38
-0.405
-0.4
-0.385
-0.35
-0.33
-0.315
-0.325
-0.35
-0.38
-0.38
-0.37
-0.37
-0.365
-0.375
-0.37
-0.37
-0.365
-0.365
-0.385
-0.385
-0.35
-0.29
-0.19
-0.065
0.105
0.23
0.39
0.555
0.675
0.72
0.705
0.595
0.465
0.31
0.07
-0.3
-0.67
-0.92
-1.025
-0.97
-0.8
-0.705
-0.64
-0.59
-0.505
-0.41
-0.375
-0.4
-0.385
-0.35
-0.3
-0.295
-0.305
-0.325
-0.335
-0.315
-0.285
-0.26
-0.23
-0.255
-0.28
-0.3
-0.295
-0.25
-0.22
-0.23
-0.245
-0.205
-0.185
-0.17
-0.155
-0.135
-0.145
-0.15
-0.145
-0.125
-0.09
-0.055
-0.055
-0.045
-0.015
0.005
0.04
0.04
0.02
0.03
0.065
0.12
0.165
0.15
0.115
0.07
0.075
0.12
0.145
0.155
0.135
0.115
0.105
0.12
0.12
0.11
0.09
0.065
0.08
0.095
0.11
0.055
-0.005
-0.065
-0.075
-0.06
-0.06
-0.115
-0.14
-0.185
-0.19
-0.18
-0.21
-0.245
-0.26
-0.26
-0.25
-0.245
-0.26
-0.27
-0.255
-0.255
-0.295
-0.35
-0.375
-0.375
-0.345
-0.32
-0.3
-0.305
-0.265
-0.25
-0.26
-0.285
-0.31
-0.325
-0.345
-0.335
-0.345
-0.375
-0.39
-0.39
-0.37
-0.355
-0.34
-0.325
-0.28
-0.265
-0.235
-0.23
-0.22
-0.205
-0.16
-0.11
-0.135
-0.205
-0.245
-0.265
-0.265
-0.28
-0.29
-0.28
-0.275
-0.28
-0.355
-0.37
-0.35
-0.32
-0.3
-0.3
-0.29
-0.295
-0.295
-0.32
-0.34
-0.365
-0.35
-0.33
-0.3
-0.3
-0.345
-0.38
-0.355
-0.325
-0.29
-0.305
-0.33
-0.355
-0.365
-0.31
-0.26
-0.27
-0.33
-0.4
-0.42
-0.385
-0.355
-0.335
-0.35
-0.36
-0.365
-0.32
-0.285
-0.3
-0.34
-0.355
-0.345
-0.34
-0.325
-0.31
-0.325
-0.33
-0.305
-0.23
-0.135
-0.01
0.125
0.275
0.455
0.645
0.795
0.84
0.755
0.595
0.41
0.23
-0.05
-0.415
-0.74
-0.955
-1.0
-0.9
-0.76
-0.65
-0.56
-0.495
-0.415
-0.325
-0.275
-0.27
-0.29
-0.325
-0.31
-0.305
-0.27
-0.28
-0.32
-0.35
-0.335
-0.28
-0.215
-0.23
-0.275
-0.3
-0.28
-0.22
-0.145
-0.12
-0.155
-0.205
-0.205
-0.19
-0.125
-0.105
-0.08
-0.07
-0.045
-0.015
0.01
0.01
0.02
0.015
0.01
0.05
0.08
0.105
0.11
0.1
0.125
0.145
0.17
0.185
0.185
0.15
0.13
0.135
0.135
0.11
0.07
0.055
0.065
0.065
0.06
0.01
-0.025
-0.045
-0.05
-0.045
-0.045
-0.08
-0.135
-0.2
-0.24
-0.255
-0.25
-0.245
-0.235
-0.25
-0.285
-0.33
-0.335
-0.31
-0.3
-0.29
-0.285
-0.27
-0.275
-0.3
-0.34
-0.36
-0.345
-0.32
-0.305
-0.305
-0.335
-0.35
