Lead II
-0.525
-0.535
-0.535
-0.545
-0.545
-0.56
-0.57
-0.59
-0.585
-0.595
-0.61
-0.615
-0.625
-0.63
-0.65
-0.65
-0.65
-0.645
-0.635
-0.645
-0.65
-0.64
-0.635
-0.615
-0.585
-0.55
-0.5
-0.435
-0.325
-0.14
0.12
0.435
0.78
1.075
1.255
1.26
1.06
0.605
-0.035
-0.675
-1.315
-1.575
-1.495
-1.26
-1.005
-0.825
-0.75
-0.73
-0.745
-0.765
-0.755
-0.745
-0.745
-0.715
-0.72
-0.74
-0.765
-0.755
-0.755
-0.76
-0.75
-0.74
-0.73
-0.735
-0.725
-0.735
-0.735
-0.74
-0.745
-0.73
-0.75
-0.72
-0.72
-0.71
-0.695
-0.69
-0.69
-0.7
-0.695
-0.685
-0.69
-0.685
-0.69
-0.67
-0.66
-0.64
-0.635
-0.63
-0.63
-0.635
-0.64
-0.635
-0.645
-0.645
-0.62
-0.615
-0.61
-0.605
-0.605
-0.595
-0.595
-0.59
-0.6
-0.605
-0.605
-0.605
-0.585
-0.565
-0.56
-0.545
-0.54
-0.55
-0.55
-0.55
-0.565
-0.58
-0.58
-0.575
-0.58
-0.57
-0.555
-0.545
-0.535
-0.555
-0.555
-0.56
-0.56
-0.55
-0.56
-0.555
-0.545
-0.545
-0.525
-0.5
-0.485
-0.475
-0.46
-0.455
-0.455
-0.445
-0.45
-0.42
-0.44
-0.425
-0.43
-0.43
-0.445
-0.455
-0.475
-0.49
-0.5
-0.52
-0.535
-0.54
-0.545
-0.54
-0.565
-0.56
-0.56
-0.58
-0.595
-0.61
-0.63
-0.625
-0.635
-0.635
-0.63
-0.615
-0.6
-0.585
-0.58
-0.605
-0.6
-0.615
-0.605
-0.61
-0.615
-0.605
-0.595
-0.595
-0.59
-0.585
-0.585
-0.59
-0.58
-0.58
-0.58
-0.575
-0.585
-0.575
-0.58
-0.57
-0.555
-0.545
-0.55
-0.545
-0.535
-0.55
-0.56
-0.55
-0.56
-0.555
-0.555
-0.55
-0.545
-0.545
-0.535
-0.535
-0.54
-0.545
-0.555
-0.565
-0.56
-0.565
-0.56
-0.55
-0.55
-0.55
-0.555
-0.56
-0.57
-0.575
-0.59
-0.595
-0.605
-0.6
-0.605
-0.6
-0.605
-0.615
-0.61
-0.6
-0.6
-0.61
-0.615
-0.625
-0.63
-0.64
-0.64
-0.635
-0.63
-0.635
-0.63
-0.635
-0.62
-0.645
-0.625
-0.66
-0.665
-0.665
-0.655
-0.65
-0.645
-0.645
-0.645
-0.64
-0.655
-0.675
-0.665
-0.66
-0.67
-0.665
-0.65
-0.65
-0.645
-0.645
-0.64
-0.645
-0.65
-0.65
-0.655
-0.66
-0.66
-0.67
-0.665
-0.65
-0.64
-0.64
-0.63
-0.635
-0.64
-0.645
-0.645
-0.66
-0.645
-0.645
-0.62
-0.615
-0.605
-0.59
-0.58
-0.565
-0.555
-0.555
-0.545
-0.53
-0.545
-0.545
-0.545
-0.555
-0.56
-0.555
-0.56
-0.555
-0.555
-0.565
-0.59
-0.595
-0.605
-0.615
-0.625
-0.635
-0.63
-0.65
-0.64
-0.65
-0.645
-0.655
-0.655
-0.655
-0.65
-0.64
-0.625
-0.58
-0.525
-0.45
-0.33
-0.175
0.045
0.355
0.705
1.015
1.235
1.265
1.105
0.665
0.025
-0.615
-1.255
-1.575
-1.51
-1.255
-1.0
-0.82
-0.75
-0.735
-0.745
-0.765
-0.76
-0.745
-0.735
-0.745
-0.75
-0.76
-0.765
-0.775
-0.765
-0.79
-0.785
-0.775
-0.76
-0.745
-0.74
-0.74
-0.735
-0.735
-0.755
-0.75
-0.745
-0.745
-0.735
-0.74
-0.735
-0.72
-0.705
-0.705
-0.695
-0.7
-0.695
-0.695
-0.7
-0.695
-0.68
-0.675
-0.665
-0.66
-0.64
-0.645
-0.66
-0.675
-0.66
-0.65
-0.665
-0.655
-0.655
-0.635
-0.62
-0.62
-0.6
-0.595
-0.595
-0.59
-0.59
-0.605
-0.595
-0.6
-0.585
-0.58
-0.57
-0.56
-0.555
-0.56
-0.56
-0.565
-0.56
-0.565
-0.57
-0.565
-0.56
-0.555
-0.565
-0.55
-0.545
-0.55
-0.545
-0.53
-0.525
-0.53
-0.52
-0.515
-0.495
-0.48
-0.46
-0.44
-0.41
-0.405
-0.425
-0.43
-0.42
-0.44
-0.445
-0.455
-0.455
-0.465
-0.47
-0.47
-0.475
-0.5
-0.51
-0.525
-0.535
-0.555
-0.58
-0.575
-0.6
-0.6
-0.595
-0.6
-0.605
-0.61
-0.615
-0.62
-0.63
-0.64
-0.645
-0.635
-0.64
-0.63
-0.62
-0.61
-0.605
-0.61
-0.615
-0.615
-0.615
-0.625
-0.63
-0.61
-0.62
-0.62
-0.615
-0.605
-0.58
-0.585
-0.585
-0.58
-0.58
-0.595
-0.6
-0.59
-0.575
-0.575
-0.565
-0.55
-0.545
-0.555
-0.55
-0.565
-0.58
-0.585
-0.585
-0.585
-0.58
-0.57
-0.57
-0.58
-0.57
-0.565
-0.57
-0.585
-0.585
-0.6
-0.62
-0.625
-0.62
-0.595
-0.595
-0.595
-0.59
-0.605
-0.605
-0.615
-0.62
-0.645
-0.635
-0.635
-0.635
-0.635
-0.635
-0.63
-0.63
-0.64
-0.64
-0.645
-0.65
-0.655
-0.66
-0.675
-0.665
-0.655
-0.65
-0.655
-0.65
-0.65
-0.665
-0.67
-0.66
-0.675
-0.68
-0.675
-0.675
-0.665
-0.665
-0.66
-0.66
-0.66
-0.665
-0.67
-0.675
-0.685
-0.685
-0.695
-0.69
-0.68
-0.68
-0.665
-0.655
-0.66
-0.66
-0.67
-0.67
-0.67
-0.685
-0.68
-0.675
-0.665
-0.655
-0.65
-0.645
-0.645
-0.66
-0.655
-0.655
-0.65
-0.65
-0.625
-0.62
-0.605
-0.6
-0.58
-0.555
-0.545
-0.545
-0.55
-0.525
-0.55
-0.575
-0.585
-0.595
-0.6
-0.6
-0.59
-0.59
-0.58
-0.595
-0.61
-0.625
-0.65
-0.655
-0.67
-0.67
-0.665
-0.67
-0.665
-0.65
-0.65
-0.64
-0.655
-0.66
-0.65
-0.625
-0.595
-0.555
-0.465
-0.34
-0.125
0.16
0.495
0.845
1.135
1.28
1.265
1.055
0.605
-0.03
-0.67
-1.25
-1.48
-1.41
-1.175
-0.94
-0.77
-0.685
-0.7
-0.73
-0.77
-0.775
-0.775
-0.76
-0.74
-0.725
-0.73
-0.745
-0.765
-0.775
-0.77
-0.78
-0.79
-0.775
-0.77
-0.76
-0.74
-0.745
-0.735
-0.735
-0.735
-0.735
-0.76
-0.765
-0.75
-0.745
-0.725
-0.725
-0.715
-0.7
-0.705
-0.695
-0.69
-0.69
-0.705
-0.71
-0.695
-0.68
-0.675
-0.665
-0.655
-0.65
-0.655
-0.655
-0.655
-0.66
-0.655
-0.65
-0.64
-0.625
-0.61
-0.6
-0.6
-0.59
-0.6
-0.59
-0.59
-0.59
-0.6
-0.605
-0.605
-0.6
-0.58
-0.57
-0.555
-0.545
-0.54
-0.54
-0.555
-0.56
-0.565
-0.56
-0.56
-0.555
-0.555
-0.55
-0.54
-0.535
-0.53
-0.53
-0.535
-0.525
-0.52
-0.515
-0.52
-0.49
-0.475
-0.45
-0.445
-0.425
-0.405
-0.4
-0.4
-0.41
-0.43
-0.435
-0.445
-0.46
-0.44
-0.46
-0.465
-0.455
-0.475
-0.495
-0.515
-0.53
-0.545
-0.565
-0.575
-0.585
-0.58
-0.58
-0.585
-0.59
-0.605
-0.615
-0.615
-0.615
-0.63
-0.64
-0.635
-0.63
-0.64
-0.63
-0.63
-0.615
-0.615
-0.625
-0.615
-0.63
-0.635
-0.635
-0.64
-0.625
-0.61
-0.6
-0.595
-0.575
-0.575
-0.59
-0.585
-0.59
-0.595
-0.6
-0.595
-0.59
-0.59
-0.585
-0.575
-0.58
-0.58
-0.57
-0.575
-0.58
-0.585
-0.59
-0.59
-0.605
-0.595
-0.575
-0.58
-0.575
-0.575
-0.59
-0.605
-0.605
-0.62
-0.615
-0.625
-0.63
-0.62
-0.62
-0.605
-0.595
-0.6
-0.61
-0.62
-0.62
-0.64
-0.645
-0.655
-0.65
-0.64
-0.64
-0.65
-0.635
-0.635
-0.635
-0.645
-0.65
-0.66
-0.67
-0.67
-0.675
-0.675
-0.665
-0.655
-0.65
-0.65
-0.65
-0.67
-0.68
-0.67
-0.675
-0.68
-0.675
-0.665
-0.67
-0.65
-0.655
-0.66
-0.675
-0.68
-0.675
-0.695
-0.695
-0.695
-0.695
-0.695
-0.675
-0.67
-0.68
-0.65
-0.655
-0.655
-0.67
-0.68
-0.685
-0.695
-0.695
-0.69
-0.695
-0.68
-0.675
-0.66
-0.655
-0.67
-0.655
-0.64
-0.64
-0.63
-0.625
-0.605
-0.595
-0.59
-0.575
-0.555
-0.55
-0.545
-0.545
-0.54
-0.565
-0.585
-0.6
-0.605
-0.605
-0.6
-0.595
-0.58
-0.595
-0.605
-0.62
-0.635
-0.655
-0.67
-0.685
-0.685
-0.68
-0.68
-0.665
-0.67
-0.655
-0.655
-0.65
-0.64
-0.63
-0.61
-0.575
-0.525
-0.415
-0.285
-0.05
0.225
0.57
0.895
1.155
1.285
1.245
1.075
0.675
0.065
-0.575
-1.17
-1.475
-1.49
-1.29
-1.05
-0.85
-0.755
-0.75
-0.77
-0.8
-0.81
-0.815
-0.785
-0.755
-0.75
-0.73
-0.745
-0.765
-0.78
-0.79
-0.795
-0.79
-0.785
-0.775
-0.76
-0.75
-0.745
-0.76
-0.765
-0.77
-0.77
-0.775
-0.775
-0.765
-0.745
-0.73
-0.705
-0.71
-0.705
-0.705
-0.705
-0.705
-0.7
-0.71
-0.71
-0.7
-0.685
-0.675
-0.665
-0.66
-0.64
-0.645
-0.64
-0.645
-0.65
-0.67
-0.66
-0.655
-0.635
-0.625
-0.615
-0.59
-0.59
-0.585
-0.59
-0.595
-0.605
-0.61
-0.595
-0.595
-0.58
-0.585
-0.565
-0.57
-0.57
-0.56
-0.565
-0.565
-0.57
-0.58
-0.58
-0.575
-0.59
-0.57
-0.57
-0.57
-0.55
-0.545
-0.56
-0.545
-0.555
-0.57
-0.57
-0.56
-0.55
-0.54
-0.52
-0.505
-0.5
-0.495
-0.49
-0.48
-0.48
-0.465
-0.455
-0.45
-0.44
-0.435
-0.435
-0.44
-0.45
-0.455
-0.475
-0.5
-0.515
-0.535
-0.55
-0.575
-0.565
-0.575
-0.565
-0.57
-0.585
-0.61
-0.615
-0.63
-0.64
-0.655
-0.645
-0.645
-0.635
-0.635
-0.64
-0.62
-0.625
-0.62
-0.62
-0.625
-0.63
-0.64
-0.635
-0.635
-0.625
-0.62
-0.605
-0.595
-0.585
-0.575
-0.58
-0.6
-0.59
-0.605
-0.59
-0.595
-0.585
-0.565
-0.57
-0.57
-0.56
-0.555
-0.56
-0.56
-0.565
-0.575
-0.575
-0.58
-0.57
-0.57
-0.57
-0.565
-0.555
-0.56
-0.575
-0.575
-0.58
-0.595
-0.605
-0.6
-0.595
-0.585
-0.585
-0.585
-0.6
-0.6
-0.605
-0.615
-0.63
-0.63
-0.63
-0.635
-0.645
-0.645
-0.63
-0.625
-0.63
-0.635
-0.655
-0.65
-0.67
-0.665
-0.665
-0.66
-0.66
-0.645
-0.65
-0.655
-0.65
-0.65
-0.67
-0.665
-0.68
-0.685
-0.685
-0.675
-0.68
-0.675
-0.655
-0.645
-0.655
-0.66
-0.67
-0.67
-0.68
-0.69
-0.705
-0.7
-0.69
-0.68
-0.69
-0.67
-0.67
-0.675
-0.66
-0.665
-0.675
-0.685
-0.68
-0.68
-0.675
-0.675
-0.665
-0.66
-0.67
-0.67
-0.67
-0.675
-0.675
-0.675
-0.66
-0.665
-0.645
-0.635
-0.615
-0.59
-0.56
-0.555
-0.55
-0.555
-0.555
-0.555
-0.55
-0.55
-0.555
-0.555
-0.555
-0.56
-0.56
-0.555
-0.57
-0.595
-0.605
-0.615
-0.63
-0.66
-0.675
-0.67
-0.67
-0.66
-0.65
-0.66
-0.66
-0.665
-0.665
-0.66
-0.655
-0.645
-0.62
-0.58
-0.525
-0.45
-0.34
-0.185
0.035
0.34
0.67
0.98
1.21
1.285
1.21
0.97
0.475
-0.165
-0.805
-1.395
-1.615
-1.54
-1.31
-1.035
-0.86
-0.78
-0.765
-0.79
-0.815
-0.81
-0.795
-0.77
-0.745
-0.745
-0.745
-0.78
-0.785
-0.78
-0.78
-0.775
-0.76
-0.755
-0.75
-0.755
-0.76
-0.775
-0.78
-0.79
-0.765
-0.755
-0.755
-0.75
-0.735
-0.71
-0.695
-0.695
-0.695
-0.7
-0.705
-0.705
-0.7
-0.71
-0.7
-0.695
-0.675
-0.67
-0.67
-0.665
-0.68
-0.68
-0.68
-0.675
-0.66
-0.655
-0.65
-0.62
-0.625
-0.615
-0.615
-0.61
-0.62
-0.615
-0.635
-0.63
-0.615
-0.595
-0.595
-0.58
-0.555
-0.545
-0.545
-0.56
-0.56
-0.565
-0.575
-0.57
-0.58
-0.59
-0.585
-0.565
-0.565
-0.545
-0.55
-0.55
-0.56
-0.57
-0.56
-0.565
-0.57
-0.57
-0.57
-0.56
-0.555
-0.54
-0.525
-0.515
-0.51
-0.505
-0.49
-0.48
-0.47
-0.45
-0.445
-0.43
-0.425
-0.415
-0.435
-0.46
-0.465
-0.475
-0.5
-0.525
-0.53
-0.53
-0.545
-0.55
-0.565
-0.57
-0.58
-0.585
-0.59
-0.605
-0.615
-0.62
-0.615
-0.64
-0.63
-0.64
-0.63
-0.62
-0.615
-0.615
-0.62
-0.625
-0.63
-0.64
-0.635
-0.64
-0.63
-0.615
-0.61
-0.6
-0.59
-0.595
-0.605
-0.605
-0.605
-0.61
-0.595
-0.595
-0.59
-0.585
-0.58
-0.57
-0.565
-0.56
-0.56
-0.56
-0.565
-0.575
-0.575
-0.57
-0.57
-0.575
-0.555
-0.56
-0.555
-0.565
-0.575
-0.575
-0.57
-0.59
-0.585
-0.59
-0.585
-0.57
-0.565
-0.57
-0.575
-0.585
-0.59
-0.59
-0.62
-0.625
-0.62
-0.635
-0.625
-0.615
-0.61
-0.61
-0.61
-0.625
-0.64
-0.645
-0.66
-0.66
-0.665
-0.66
-0.66
-0.665
-0.665
-0.66
-0.655
-0.655
-0.65
-0.645
-0.665
-0.68
-0.67
-0.68
-0.685
-0.665
-0.66
-0.645
-0.665
-0.675
-0.665
-0.675
-0.695
-0.69
-0.695
-0.69
-0.67
-0.675
-0.665
-0.65
-0.65
-0.655
-0.665
-0.68
-0.69
-0.695
-0.705
-0.7
-0.695
-0.695
-0.685
-0.675
-0.665
-0.66
-0.66
-0.665
-0.675
-0.68
-0.68
-0.67
-0.655
-0.64
-0.64
-0.625
-0.62
-0.61
-0.615
-0.6
-0.585
-0.58
-0.565
-0.555
-0.545
-0.535
-0.54
-0.55
-0.57
-0.575
-0.575
-0.59
-0.59
-0.605
-0.61
-0.62
-0.63
-0.635
-0.645
-0.64
-0.65
-0.66
-0.665
-0.67
-0.67
-0.67
-0.67
-0.66
-0.645
-0.64
-0.63
-0.595
-0.57
-0.545
-0.49
-0.385
-0.24
-0.025
0.285
0.625
0.955
1.21
1.335
1.3
1.07
0.625
-0.015
-0.655
-1.295
-1.615
-1.565
-1.33
-1.065
-0.87
-0.775
-0.74
-0.775
-0.805
-0.805
-0.8
-0.775
-0.765
-0.74
-0.76
-0.76
-0.76
-0.765
-0.765
-0.765
-0.76
-0.77
-0.78
-0.785
-0.78
-0.77
-0.775
-0.765
-0.745
-0.725
-0.72
-0.71
-0.715
-0.715
-0.725
-0.73
-0.735
-0.725
-0.725
-0.72
-0.725
-0.685
-0.67
-0.68
-0.655
-0.66
-0.665
-0.655
-0.655
-0.665
-0.67
-0.655
-0.655
-0.64
-0.63
-0.625
-0.62
-0.635
-0.64
-0.63
-0.63
-0.635
-0.625
-0.61
-0.595
-0.585
-0.58
-0.575
-0.57
-0.575
-0.575
-0.575
-0.58
-0.585
-0.595
-0.585
-0.575
-0.575
-0.56
-0.55
-0.555
-0.555
-0.56
-0.56
-0.565
-0.565
-0.56
-0.545
-0.54
-0.535
-0.515
-0.52
-0.51
-0.505
-0.495
-0.48
-0.475
-0.455
-0.45
-0.43
-0.43
-0.425
-0.42
-0.435
-0.44
-0.46
-0.485
-0.505
-0.515
-0.535
-0.54
-0.545
-0.55
-0.555
-0.55
-0.565
-0.57
-0.59
-0.605
-0.615
-0.625
-0.62
-0.62
-0.625
-0.62
-0.615
-0.62
-0.615
-0.63
-0.63
-0.635
-0.635
-0.64
-0.65
-0.655
-0.635
-0.63
-0.615
-0.615
-0.605
-0.595
-0.6
-0.61
-0.615
-0.615
-0.62
-0.61
-0.595
-0.585
-0.58
-0.565
-0.585
-0.585
-0.58
-0.58
-0.6
-0.595
-0.585
-0.585
-0.59
-0.59
-0.585
-0.57
-0.575
-0.57
-0.57
-0.57
-0.595
-0.595
-0.59
-0.595
-0.59
-0.59
-0.585
-0.585
-0.59
-0.6
-0.615
-0.63
-0.63
-0.625
-0.625
-0.65
-0.635
-0.63
-0.635
-0.625
-0.615
-0.62
-0.615
-0.64
-0.655
-0.655
-0.665
-0.665
-0.655
-0.645
-0.65
-0.64
-0.66
-0.655
-0.655
-0.66
-0.66
-0.665
-0.67
-0.675
-0.67
-0.67
-0.67
-0.655
-0.65
-0.66
-0.665
-0.67
-0.685
-0.68
-0.68
-0.685
-0.685
-0.675
-0.665
-0.65
-0.655
-0.66
-0.67
-0.67
-0.67
-0.685
-0.685
-0.675
-0.675
-0.675
-0.67
-0.66
-0.66
-0.67
-0.665
-0.67
-0.685
-0.675
-0.685
-0.68
-0.67
-0.67
-0.655
-0.635
-0.625
-0.625
-0.61
-0.615
-0.595
-0.585
-0.58
-0.58
-0.55
-0.545
-0.535
-0.53
-0.535
-0.55
-0.565
-0.58
-0.59
-0.605
-0.605
-0.6
-0.595
-0.605
-0.6
-0.6
-0.62
-0.64
-0.66
-0.675
-0.675
-0.675
-0.67
-0.655
-0.655
-0.65
-0.635
-0.63
-0.615
-0.575
-0.545
-0.5
-0.4
-0.265
0.005
0.32
0.705
1.015
1.235
1.32
1.24
0.945
0.425
-0.215
-0.855
-1.33
-1.495
-1.38
-1.135
-0.89
-0.74
-0.675
-0.685
-0.715
-0.765
-0.77
-0.765
-0.76
-0.755
-0.76
-0.76
-0.76
-0.755
-0.755
-0.765
-0.76
-0.75
-0.755
-0.76
-0.77
-0.76
-0.745
-0.745
-0.73
-0.73
-0.72
-0.72
-0.72
-0.72
-0.71
-0.715
-0.72
-0.72
-0.71
-0.705
-0.695
-0.685
-0.675
-0.665
-0.66
-0.655
-0.65
-0.655
-0.665
-0.67
-0.675
-0.67
-0.655
-0.645
-0.635
-0.61
-0.62
-0.62
-0.62
-0.615
-0.615
-0.615
-0.6
-0.595
-0.585
-0.575
-0.57
-0.57
-0.565
-0.565
-0.565
-0.57
-0.565
-0.56
-0.58
-0.58
-0.545
-0.55
-0.54
-0.545
-0.535
-0.53
-0.535
-0.535
-0.54
-0.555
-0.54
-0.545
-0.525
-0.515
-0.51
-0.51
-0.495
-0.475
-0.465
-0.47
-0.46
-0.445
-0.435
-0.42
-0.415
-0.4
-0.395
-0.39
-0.395
-0.405
-0.42
-0.43
-0.45
-0.47
-0.48
-0.485
-0.5
-0.5
-0.505
-0.5
-0.525
-0.545
-0.555
-0.58
-0.59
-0.61
-0.6
-0.595
-0.595
-0.595
-0.595
-0.59
-0.595
-0.6
-0.605
-0.605
-0.615
-0.61
-0.615
-0.61
-0.605
-0.6
-0.585
-0.58
-0.585
-0.585
-0.6
-0.6
-0.6
-0.6
-0.585
-0.58
-0.57
-0.57
-0.55
-0.55
-0.555
-0.565
-0.56
-0.575
-0.57
-0.57
-0.57
-0.56
-0.56
-0.56
-0.55
-0.54
-0.54
-0.54
-0.56
-0.56
-0.57
-0.575
-0.575
-0.57
-0.565
-0.575
-0.56
-0.565
-0.575
-0.58
-0.585
-0.585
-0.595
-0.61
-0.6
-0.595
-0.61
-0.605
-0.59
-0.595
-0.6
-0.615
-0.625
-0.62
-0.625
-0.635
-0.63
-0.63
-0.635
-0.625
-0.62
-0.62
-0.615
-0.615
-0.635
-0.64
-0.645
-0.66
-0.655
-0.65
-0.64
-0.635
-0.625
-0.63
-0.64
-0.645
-0.65
-0.66
-0.66
-0.665
-0.665
-0.655
-0.65
-0.655
-0.645
-0.655
-0.645
-0.645
-0.65
-0.665
-0.67
-0.68
-0.675
-0.68
-0.66
-0.655
-0.645
-0.64
-0.645
-0.655
-0.665
-0.675
-0.665
-0.67
-0.665
-0.655
-0.665
-0.66
-0.645
-0.635
-0.635
-0.62
-0.615
-0.61
-0.605
-0.61
-0.605
-0.58
-0.575
-0.56
-0.53
-0.53
-0.52
-0.515
-0.525
-0.56
-0.575
-0.595
-0.595
-0.595
-0.58
-0.575
-0.565
-0.585
-0.585
-0.6
-0.615
-0.635
-0.66
-0.665
-0.67
-0.67
-0.665
-0.655
-0.64
-0.645
-0.63
-0.63
-0.62
-0.625
-0.625
-0.59
-0.55
-0.47
-0.345
-0.16
0.11
0.415
0.75
1.045
1.235
1.285
1.205
0.93
0.44
-0.2
-0.84
-1.32
-1.45
-1.34
-1.105
-0.885
-0.75
-0.715
-0.715
-0.75
-0.79
-0.795
-0.765
-0.75
-0.74
-0.73
-0.74
-0.75
-0.77
-0.78
-0.795
-0.79
-0.79
-0.78
-0.77
-0.755
-0.755
-0.75
-0.75
-0.75
-0.76
-0.755
-0.755
-0.75
-0.75
-0.745
-0.735
-0.73
-0.72
-0.7
-0.695
-0.705
-0.69
-0.7
-0.7
-0.71
-0.705
-0.705
-0.685
-0.675
-0.66
-0.65
-0.66
-0.655
-0.66
-0.665
-0.66
-0.65
-0.645
-0.64
-0.63
-0.625
-0.605
-0.61
-0.61
-0.615
-0.615
-0.62
-0.605
-0.605
-0.6
-0.59
-0.58
-0.575
-0.56
-0.565
-0.555
-0.57
-0.565
-0.55
-0.565
-0.57
-0.57
-0.565
-0.55
-0.565
-0.545
-0.545
-0.56
-0.565
-0.56
-0.55
-0.55
-0.54
-0.54
-0.525
-0.5
-0.49
-0.475
-0.46
-0.45
-0.445
-0.425
-0.43
-0.42
-0.425
-0.43
-0.445
-0.44
-0.45
-0.46
-0.45
-0.475
-0.485
-0.51
-0.515
-0.53
-0.54
-0.54
-0.555
-0.555
-0.56
-0.57
-0.575
-0.595
-0.605
-0.61
-0.62
-0.625
-0.625
-0.615
-0.61
-0.61
-0.605
-0.61
-0.595
-0.605
-0.615
-0.62
-0.62
-0.615
-0.62
-0.615
-0.61
-0.605
-0.59
-0.59
-0.575
-0.565
-0.57
-0.585
-0.58
-0.575
-0.57
-0.57
-0.565
-0.56
-0.545
-0.55
-0.54
-0.54
-0.545
-0.555
-0.565
-0.565
-0.575
-0.57
-0.56
-0.54
-0.545
-0.53
-0.535
-0.53
-0.55
-0.57
-0.575
-0.585
-0.585
-0.58
-0.595
-0.575
-0.58
-0.56
-0.56
-0.57
-0.585
-0.59
-0.6
-0.615
-0.62
-0.615
-0.63
-0.62
-0.615
-0.6
-0.615
-0.62
-0.61
-0.625
-0.63
-0.64
-0.645
-0.655
-0.655
-0.645
-0.635
-0.625
-0.625
-0.625
-0.625
-0.64
-0.65
-0.66
-0.66
-0.66
-0.665
-0.66
-0.635
-0.64
-0.64
-0.64
-0.635
-0.64
-0.645
-0.66
-0.665
-0.67
-0.665
-0.655
-0.655
-0.635
-0.64
-0.64
-0.64
-0.65
-0.655
-0.665
-0.655
-0.665
-0.65
-0.65
-0.655
-0.645
-0.645
-0.645
-0.655
-0.65
-0.65
-0.65
-0.645
-0.66
-0.645
-0.62
-0.625
-0.61
-0.59
-0.58
-0.57
-0.565
-0.57
-0.555
-0.55
-0.535
-0.52
-0.515
-0.51
-0.515
-0.53
-0.55
-0.57
-0.575
-0.575
-0.58
-0.575
-0.575
-0.585
-0.585
-0.605
-0.61
-0.625
-0.635
-0.635
-0.64
-0.65
-0.66
-0.67
-0.66
-0.66
-0.635
-0.63
-0.6
-0.575
-0.545
-0.5
-0.45
-0.35
-0.18
0.055
0.385
0.73
1.065
1.285
1.375
1.315
1.04
0.54
-0.1
-0.74
-1.38
-1.6
-1.5
-1.245
-0.985
-0.805
-0.715
-0.715
-0.745
-0.76
-0.78
-0.775
-0.755
-0.735
-0.73
-0.73
-0.735
-0.73
-0.735
-0.74
-0.74
-0.74
-0.745
-0.755
-0.745
-0.755
-0.745
-0.74
-0.725
-0.715
-0.71
-0.71
-0.71
-0.715
-0.7
-0.715
-0.695
-0.71
-0.7
-0.68
-0.67
-0.66
-0.66
-0.65
-0.645
-0.645
-0.64
-0.655
-0.655
-0.66
-0.65
-0.655
-0.635
-0.62
-0.61
-0.595
-0.59
-0.6
-0.61
-0.6
-0.62
-0.605
-0.605
-0.595
-0.575
-0.585
-0.56
-0.55
-0.545
-0.535
-0.535
-0.53
-0.54
-0.53
-0.535
-0.525
-0.52
-0.53
-0.52
-0.51
-0.51
-0.505
-0.515
-0.525
-0.525
-0.525
-0.525
-0.53
-0.52
-0.51
-0.5
-0.49
-0.495
-0.495
-0.485
-0.48
-0.475
-0.455
-0.445
-0.425
-0.4
-0.395
-0.385
-0.39
-0.395
-0.4
-0.41
-0.42
-0.435
-0.45
-0.46
-0.465
-0.47
-0.475
-0.49
-0.51
-0.53
-0.545
-0.57
-0.58
-0.585
-0.59
-0.58
-0.59
-0.59
-0.575
-0.57
-0.565
-0.575
-0.575
-0.585
-0.595
-0.615
-0.615
-0.615
-0.62
-0.615
-0.595
-0.58
-0.555
-0.56
-0.56
-0.565
-0.565
-0.585
-0.565
-0.56
-0.565
-0.555
-0.545
-0.53
-0.52
-0.52
-0.52
-0.525
-0.525
-0.53
-0.535
-0.535
-0.525
-0.515
-0.515
-0.51
-0.495
-0.505
-0.5
-0.51
-0.515
-0.53
-0.53
-0.53
-0.525
-0.535
-0.53
-0.525
-0.52
-0.535
-0.525
-0.54
-0.55
-0.555
-0.55
-0.55
-0.56
-0.555
-0.545
-0.55
-0.55
-0.565
-0.575
-0.58
-0.59
-0.595
-0.605
-0.605
-0.6
-0.59
-0.58
-0.58
-0.585
-0.585
-0.59
-0.59
-0.6
-0.6
-0.615
-0.615
-0.615
-0.615
-0.615
-0.615
-0.585
-0.585
-0.59
-0.605
-0.6
-0.605
-0.61
-0.61
-0.61
-0.605
-0.615
-0.595
-0.61
-0.615
-0.615
-0.61
-0.615
-0.61
-0.61
-0.6
-0.605
-0.61
-0.6
-0.595
-0.59
-0.595
-0.61
-0.61
-0.62
-0.61
-0.62
-0.6
-0.585
-0.57
-0.57
-0.54
-0.53
-0.52
-0.515
-0.505
-0.51
-0.52
-0.495
-0.495
-0.48
-0.475
-0.47
-0.48
-0.49
-0.49
-0.495
-0.505
-0.51
-0.515
-0.545
-0.545
-0.545
-0.555
-0.56
-0.57
-0.57
-0.585
-0.595
-0.595
-0.6
-0.605
-0.6
-0.605
-0.59
-0.57
-0.56
-0.54
-0.51
-0.455
-0.385
-0.275
-0.11
0.135
0.445
0.78
1.08
1.275
1.335
1.255
0.945
0.38
-0.26
-0.9
-1.48
-1.595
-1.42
-1.16
-0.91
-0.75
-0.685
-0.695
-0.73
-0.76
-0.745
-0.725
-0.7
-0.68
-0.695
-0.69
-0.695
-0.715
-0.715
-0.705
-0.71
-0.69
-0.7
-0.69
-0.685
-0.685
-0.69
-0.695
-0.685
-0.68
-0.685
-0.665
-0.665
-0.655
-0.655
-0.66
-0.655
-0.655
-0.655
-0.645
-0.64
-0.625
-0.615
-0.6
-0.595
-0.595
-0.6
-0.61
-0.615
-0.615
-0.615
-0.61
-0.59
-0.59
-0.57
-0.56
-0.545
-0.555
-0.55
-0.55
-0.545
-0.555
-0.555
-0.555
-0.55
-0.53
-0.515
-0.495
-0.485
-0.5
-0.5
-0.5
-0.495
-0.495
-0.5
-0.49
-0.495
-0.49
-0.485
-0.485
-0.475
-0.475
-0.485
-0.485
-0.5
-0.49
-0.51
-0.495
-0.5
-0.48
-0.475
-0.46
-0.455
-0.46
-0.44
-0.43
-0.435
-0.42
-0.415
-0.4
-0.39
-0.395
-0.375
-0.36
-0.36
-0.365
-0.375
-0.4
-0.42
-0.43
-0.45
-0.455
-0.46
-0.475
-0.48
-0.485
-0.5
-0.51
-0.52
-0.525
-0.53
-0.55
-0.55
-0.55
-0.555
-0.56
-0.57
-0.555
-0.555
-0.565
-0.565
-0.57
-0.56
-0.565
-0.585
-0.585
-0.585
-0.575
-0.565
-0.545
-0.535
-0.535
-0.54
-0.54
-0.55
-0.555
-0.54
-0.54
-0.535
-0.52
-0.51
-0.5
-0.505
-0.515
-0.515
-0.505
-0.52
-0.505
-0.51
-0.51
-0.515
-0.505
-0.5
-0.495
-0.49
-0.49
-0.485
-0.5
-0.505
-0.525
-0.525
-0.525
-0.525
-0.52
-0.515
-0.5
-0.495
-0.51
-0.52
-0.525
-0.54
-0.545
-0.545
-0.54
-0.56
-0.55
-0.55
-0.535
-0.535
-0.555
-0.555
-0.57
-0.58
-0.59
-0.6
-0.59
-0.59
-0.58
-0.57
-0.56
-0.57
-0.57
-0.575
-0.595
-0.595
-0.615
-0.615
-0.61
-0.605
-0.595
-0.585
-0.59
-0.585
-0.59
-0.595
-0.595
-0.6
-0.6
-0.615
-0.61
-0.615
-0.615
-0.615
-0.595
-0.585
-0.585
-0.585
-0.59
-0.59
-0.605
-0.615
-0.615
-0.605
-0.6
-0.595
-0.59
-0.6
-0.6
-0.615
-0.635
-0.62
-0.625
-0.63
-0.625
-0.625
-0.615
-0.61
-0.605
-0.6
-0.585
-0.56
-0.555
-0.56
-0.555
-0.555
-0.55
-0.535
-0.52
-0.505
-0.475
-0.46
-0.455
-0.46
-0.485
-0.505
-0.525
-0.54
-0.535
-0.535
-0.515
-0.51
-0.515
-0.53
-0.54
-0.56
-0.575
-0.605
-0.625
-0.625
-0.63
-0.63
-0.615
-0.6
-0.595
-0.585
-0.57
-0.565
-0.57
-0.53
-0.505
-0.45
-0.355
-0.205
0.01
0.295
0.645
0.985
1.235
1.365
1.35
1.155
0.745
0.13
-0.51
-1.15
-1.525
-1.55
-1.345
-1.075
-0.855
-0.725
-0.715
-0.75
-0.78
-0.805
-0.8
-0.785
-0.745
-0.705
-0.685
-0.675
-0.7
-0.725
-0.74
-0.75
-0.75
-0.76
-0.755
-0.75
-0.735
-0.725
-0.72
-0.715
-0.715
-0.725
-0.71
-0.72
-0.725
-0.715
-0.715
-0.705
-0.695
-0.685
-0.685
-0.675
-0.665
-0.66
-0.67
-0.675
-0.665
-0.675
-0.68
-0.67
-0.665
-0.64
-0.625
-0.605
-0.61
-0.605
-0.62
-0.61
-0.605
-0.61
-0.595
-0.595
-0.595
-0.585
-0.575
-0.56
-0.56
-0.545
-0.545
-0.545
-0.54
-0.555
-0.555
-0.535
-0.525
-0.525
-0.515
-0.515
-0.515
-0.525
-0.515
-0.525
-0.53
-0.525
-0.525
-0.53
-0.515
-0.505
-0.505
-0.49
-0.47
-0.47
-0.47
-0.465
-0.445
-0.445
-0.43
-0.415
-0.39
-0.375
-0.355
-0.355
-0.36
-0.37
-0.39
-0.4
-0.41
-0.42
-0.43
-0.445
-0.455
-0.465
-0.47
-0.48
-0.5
-0.52
-0.525
-0.555
-0.55
-0.565
-0.565
-0.575
-0.565
-0.57
-0.57
-0.565
-0.575
-0.58
-0.595
-0.6
-0.595
-0.61
-0.605
-0.61
-0.585
-0.58
-0.575
-0.57
-0.575
-0.57
-0.56
-0.555
-0.565
-0.575
-0.57
-0.575
-0.555
-0.555
-0.545
-0.54
-0.53
-0.525
-0.53
-0.53
-0.54
-0.545
-0.54
-0.54
-0.53
-0.525
-0.52
-0.515
-0.515
-0.525
-0.53
-0.535
-0.535
-0.535
-0.535
-0.54
-0.54
-0.54
-0.535
-0.52
-0.525
-0.525
-0.545
-0.555
-0.545
-0.565
-0.575
-0.57
-0.555
-0.575
-0.57
-0.555
-0.565
-0.575
-0.585
-0.6
-0.6
-0.595
-0.595
-0.595
-0.585
-0.59
-0.58
-0.585
-0.595
-0.585
-0.59
-0.615
-0.62
-0.635
-0.62
-0.62
-0.615
-0.61
-0.61
-0.605
-0.6
-0.595
-0.605
-0.615
-0.625
-0.63
-0.625
-0.625
-0.625
-0.615
-0.605
-0.6
-0.62
-0.61
-0.62
-0.62
-0.625
-0.64
-0.63
-0.635
-0.62
-0.615
-0.61
-0.605
-0.6
-0.6
-0.605
-0.615
-0.63
-0.635
-0.64
-0.64
-0.635
-0.625
-0.615
-0.61
-0.61
-0.625
-0.615
-0.62
-0.625
-0.625
-0.61
-0.595
-0.58
-0.56
-0.55
-0.555
-0.54
-0.535
-0.525
-0.525
-0.515
-0.5
-0.495
-0.495
-0.49
-0.505
-0.52
-0.525
-0.535
-0.53
-0.53
-0.54
-0.555
-0.57
-0.575
-0.58
-0.6
-0.6
-0.6
-0.6
-0.61
-0.605
-0.615
-0.62
-0.62
-0.615
-0.62
-0.615
-0.615
-0.605
-0.58
-0.565
-0.53
-0.51
-0.47
-0.4
-0.25
-0.065
0.215
0.565
0.94
1.23
1.41
1.41
1.25
0.845
0.235
-0.405
-1.045
-1.435
-1.46
-1.255
-0.99
-0.785
-0.67
-0.635
-0.685
-0.725
-0.745
-0.75
-0.74
-0.715
-0.695
-0.69
-0.695
-0.705
-0.715
-0.72
-0.72
-0.72
-0.72
-0.73
-0.725
-0.725
-0.73
-0.715
-0.71
-0.7
-0.69
-0.675
-0.67
-0.665
-0.675
-0.68
-0.685
-0.685
-0.69
-0.675
-0.655
-0.665
-0.66
-0.645
-0.64
-0.635
-0.625
-0.63
-0.63
-0.63
-0.625
-0.62
-0.61
-0.6
-0.6
-0.585
-0.575
-0.57
-0.58
-0.585
-0.59
-0.595
-0.56
-0.565
-0.545
-0.54
-0.545
-0.535
-0.515
-0.52
-0.53
-0.515
-0.53
-0.525
-0.52
-0.515
-0.515
-0.515
-0.51
-0.495
-0.495
-0.495
-0.495
-0.5
-0.515
-0.51
-0.515
-0.51
-0.48
-0.48
-0.475
-0.46
-0.455
-0.445
-0.435
-0.435
-0.425
-0.425
-0.405
-0.38
-0.37
-0.365
-0.355
-0.36
-0.365
-0.37
-0.39
-0.41
-0.435
-0.44
-0.465
-0.46
-0.47
-0.485
-0.5
-0.5
-0.5
-0.525
-0.535
-0.545
-0.56
-0.575
-0.58
-0.58
-0.575
-0.575
-0.575
-0.565
-0.575
-0.57
-0.58
-0.6
-0.595
-0.6
-0.585
-0.575
-0.585
-0.59
-0.58
-0.57
-0.56
-0.555
-0.56
-0.56
-0.565
-0.575
-0.575
-0.575
-0.565
-0.565
-0.535
-0.525
-0.515
-0.515
-0.52
-0.535
-0.535
-0.54
-0.54
-0.54
-0.525
-0.54
-0.525
-0.52
-0.52
-0.525
-0.535
-0.535
-0.545
-0.555
-0.555
-0.545
-0.54
-0.54
-0.53
-0.525
-0.52
-0.55
-0.54
-0.55
-0.57
-0.585
-0.595
-0.595
-0.575
-0.575
-0.545
-0.55
-0.55
-0.57
-0.575
-0.585
-0.59
-0.6
-0.6
-0.595
-0.585
-0.6
-0.59
-0.585
-0.59
-0.59
-0.61
-0.61
-0.615
-0.62
-0.63
-0.635
-0.615
-0.615
-0.605
-0.605
-0.6
-0.595
-0.61
-0.615
-0.63
-0.635
-0.635
-0.63
-0.62
-0.615
-0.6
-0.6
-0.595
-0.605
-0.61
-0.615
-0.62
-0.62
-0.635
-0.635
