Lead II
-0.985
-0.99
-0.995
-0.99
-1.005
-0.99
-0.975
-0.95
-0.965
-0.975
-0.975
-0.985
-0.985
-0.98
-0.98
-0.99
-0.99
-0.97
-0.955
-0.925
-0.93
-0.95
-0.965
-0.985
-0.985
-0.995
-0.985
-0.985
-0.99
-0.985
-0.965
-0.935
-0.94
-0.955
-0.97
-0.955
-0.945
-0.945
-0.95
-0.955
-0.96
-0.94
-0.925
-0.89
-0.895
-0.91
-0.915
-0.915
-0.895
-0.905
-0.91
-0.91
-0.905
-0.9
-0.885
-0.875
-0.855
-0.87
-0.87
-0.89
-0.86
-0.855
-0.865
-0.87
-0.865
-0.85
-0.84
-0.83
-0.83
-0.82
-0.84
-0.85
-0.85
-0.855
-0.835
-0.85
-0.87
-0.845
-0.82
-0.795
-0.8
-0.82
-0.835
-0.84
-0.84
-0.835
-0.83
-0.835
-0.855
-0.855
-0.85
-0.82
-0.81
-0.825
-0.855
-0.865
-0.85
-0.845
-0.86
-0.88
-0.88
-0.875
-0.865
-0.87
-0.865
-0.875
-0.88
-0.845
-0.86
-0.875
-0.89
-0.905
-0.91
-0.89
-0.87
-0.885
-0.895
-0.915
-0.915
-0.92
-0.91
-0.925
-0.94
-0.96
-0.96
-0.93
-0.905
-0.88
-0.89
-0.915
-0.905
-0.905
-0.89
-0.905
-0.925
-0.94
-0.91
-0.89
-0.89
-0.88
-0.88
-0.89
-0.9
-0.9
-0.89
-0.885
-0.9
-0.905
-0.885
-0.88
-0.845
-0.835
-0.845
-0.85
-0.865
-0.865
-0.875
-0.855
-0.86
-0.875
-0.865
-0.85
-0.83
-0.8
-0.81
-0.81
-0.82
-0.835
-0.83
-0.82
-0.815
-0.83
-0.83
-0.81
-0.76
-0.725
-0.71
-0.7
-0.705
-0.69
-0.66
-0.655
-0.665
-0.655
-0.65
-0.63
-0.625
-0.61
-0.6
-0.635
-0.665
-0.655
-0.66
-0.675
-0.7
-0.725
-0.725
-0.73
-0.72
-0.73
-0.77
-0.79
-0.815
-0.835
-0.845
-0.845
-0.865
-0.88
-0.89
-0.88
-0.87
-0.85
-0.865
-0.87
-0.895
-0.88
-0.895
-0.875
-0.875
-0.89
-0.895
-0.89
-0.875
-0.865
-0.86
-0.895
-0.935
-0.99
-1.025
-1.06
-1.085
-1.1
-1.07
-0.985
-0.84
-0.655
-0.46
-0.26
-0.11
0.02
0.165
0.32
0.485
0.63
0.715
0.795
0.845
0.885
0.88
0.84
0.74
0.615
0.4
0.11
-0.195
-0.495
-0.705
-0.82
-0.83
-0.775
-0.7
-0.645
-0.66
-0.725
-0.775
-0.84
-0.875
-0.905
-0.925
-0.94
-0.945
-0.955
-0.945
-0.93
-0.93
-0.95
-0.97
-0.98
-0.975
-0.955
-0.95
-0.935
-0.93
-0.935
-0.93
-0.915
-0.92
-0.925
-0.95
-0.975
-0.97
-0.96
-0.95
-0.935
-0.92
-0.92
-0.915
-0.92
-0.93
-0.935
-0.95
-0.96
-0.965
-0.925
-0.92
-0.92
-0.915
-0.92
-0.92
-0.915
-0.915
-0.905
-0.915
-0.94
-0.95
-0.945
-0.905
-0.89
-0.88
-0.88
-0.865
-0.855
-0.855
-0.865
-0.86
-0.875
-0.895
-0.89
-0.855
-0.85
-0.845
-0.845
-0.86
-0.845
-0.82
-0.83
-0.845
-0.845
-0.845
-0.83
-0.805
-0.78
-0.785
-0.79
-0.8
-0.795
-0.8
-0.785
-0.785
-0.8
-0.795
-0.81
-0.81
-0.78
-0.77
-0.77
-0.775
-0.775
-0.785
-0.77
-0.785
-0.81
-0.835
-0.855
-0.85
-0.795
-0.785
-0.775
-0.775
-0.8
-0.815
-0.83
-0.82
-0.81
-0.825
-0.835
-0.85
-0.845
-0.835
-0.82
-0.8
-0.815
-0.84
-0.85
-0.855
-0.845
-0.83
-0.83
-0.85
-0.855
-0.845
-0.845
-0.825
-0.825
-0.84
-0.865
-0.885
-0.89
-0.87
-0.87
-0.87
-0.89
-0.88
-0.89
-0.88
-0.88
-0.905
-0.915
-0.925
-0.89
-0.88
-0.875
-0.88
-0.895
-0.895
-0.87
-0.855
-0.83
-0.835
-0.855
-0.875
-0.88
-0.87
-0.865
-0.85
-0.865
-0.86
-0.845
-0.83
-0.85
-0.865
-0.87
-0.89
-0.89
-0.885
-0.88
-0.85
-0.855
-0.85
-0.835
-0.815
-0.805
-0.78
-0.78
-0.8
-0.8
-0.8
-0.78
-0.755
-0.745
-0.745
-0.725
-0.71
-0.675
-0.655
-0.655
-0.66
-0.64
-0.65
-0.645
-0.645
-0.625
-0.63
-0.635
-0.645
-0.635
-0.635
-0.665
-0.675
-0.695
-0.715
-0.735
-0.73
-0.74
-0.76
-0.77
-0.78
-0.78
-0.8
-0.815
-0.855
-0.89
-0.88
-0.885
-0.87
-0.86
-0.87
-0.885
-0.865
-0.855
-0.855
-0.88
-0.9
-0.895
-0.905
-0.91
-0.885
-0.9
-0.905
-0.935
-0.96
-1.0
-1.06
-1.09
-1.11
-1.1
-1.005
-0.86
-0.675
-0.47
-0.29
-0.13
0.015
0.15
0.31
0.465
0.615
0.705
0.775
0.81
0.84
0.85
0.825
0.735
0.61
0.43
0.175
-0.135
-0.435
-0.68
-0.825
-0.88
-0.85
-0.79
-0.7
-0.68
-0.705
-0.755
-0.81
-0.84
-0.9
-0.925
-0.955
-0.97
-0.97
-0.955
-0.94
-0.96
-0.95
-0.95
-0.95
-0.945
-0.93
-0.96
-0.95
-0.94
-0.96
-0.935
-0.94
-0.935
-0.94
-0.945
-0.925
-0.93
-0.945
-0.965
-0.97
-0.97
-0.945
-0.94
-0.94
-0.945
-0.92
-0.925
-0.94
-0.935
-0.925
-0.95
-0.94
-0.94
-0.93
-0.92
-0.915
-0.925
-0.925
-0.91
-0.905
-0.91
-0.9
-0.92
-0.925
-0.915
-0.895
-0.89
-0.87
-0.875
-0.87
-0.855
-0.865
-0.865
-0.88
-0.895
-0.895
-0.865
-0.865
-0.84
-0.83
-0.845
-0.85
-0.845
-0.83
-0.825
-0.835
-0.85
-0.86
-0.85
-0.83
-0.815
-0.8
-0.805
-0.81
-0.8
-0.805
-0.84
-0.85
-0.865
-0.855
-0.85
-0.82
-0.835
-0.825
-0.84
-0.815
-0.805
-0.8
-0.83
-0.855
-0.86
-0.845
-0.85
-0.85
-0.865
-0.855
-0.845
-0.83
-0.825
-0.83
-0.855
-0.87
-0.875
-0.885
-0.875
-0.895
-0.89
-0.895
-0.895
-0.875
-0.86
-0.875
-0.905
-0.94
-0.935
-0.9
-0.91
-0.9
-0.91
-0.91
-0.915
-0.885
-0.885
-0.89
-0.915
-0.94
-0.915
-0.91
-0.9
-0.91
-0.915
-0.915
-0.895
-0.885
-0.865
-0.89
-0.895
-0.925
-0.92
-0.9
-0.895
-0.905
-0.905
-0.91
-0.87
-0.865
-0.865
-0.88
-0.89
-0.88
-0.9
-0.9
-0.895
-0.885
-0.87
-0.845
-0.825
-0.815
-0.82
-0.84
-0.835
-0.805
-0.79
-0.765
-0.785
-0.775
-0.74
-0.7
-0.675
-0.645
-0.645
-0.675
-0.655
-0.655
-0.65
-0.66
-0.69
-0.705
-0.69
-0.695
-0.67
-0.685
-0.705
-0.725
-0.735
-0.73
-0.74
-0.77
-0.81
-0.845
-0.85
-0.855
-0.85
-0.85
-0.87
-0.89
-0.9
-0.92
-0.915
-0.92
-0.93
-0.945
-0.95
-0.94
-0.91
-0.91
-0.89
-0.905
-0.91
-0.925
-0.935
-0.92
-0.935
-0.955
-0.98
-0.995
-1.02
-1.065
-1.085
-1.105
-1.065
-0.96
-0.78
-0.565
-0.33
-0.125
0.08
0.3
0.485
0.64
0.73
0.785
0.8
0.79
0.755
0.695
0.625
0.505
0.33
0.105
-0.185
-0.465
-0.69
-0.835
-0.905
-0.865
-0.81
-0.76
-0.775
-0.81
-0.85
-0.89
-0.915
-0.94
-0.975
-1.005
-1.02
-1.0
-0.99
-0.99
-0.995
-1.01
-1.025
-0.995
-1.0
-0.98
-0.97
-0.97
-0.995
-0.995
-1.0
-0.985
-1.005
-1.015
-1.025
-0.995
-0.975
-0.955
-0.955
-0.97
-0.99
-1.0
-0.99
-1.0
-0.99
-1.01
-1.005
-0.995
-0.975
-0.96
-0.965
-0.97
-0.97
-0.975
-0.965
-0.96
-0.97
-0.98
-0.97
-0.96
-0.935
-0.925
-0.945
-0.94
-0.92
-0.925
-0.92
-0.945
-0.94
-0.945
-0.93
-0.905
-0.895
-0.87
-0.89
-0.905
-0.905
-0.905
-0.91
-0.895
-0.91
-0.915
-0.905
-0.875
-0.86
-0.865
-0.875
-0.87
-0.89
-0.89
-0.88
-0.865
-0.875
-0.88
-0.885
-0.87
-0.855
-0.845
-0.85
-0.87
-0.885
-0.88
-0.885
-0.885
-0.88
-0.9
-0.895
-0.885
-0.87
-0.86
-0.865
-0.88
-0.905
-0.915
-0.895
-0.905
-0.9
-0.925
-0.93
-0.915
-0.895
-0.905
-0.885
-0.905
-0.925
-0.935
-0.93
-0.94
-0.94
-0.965
-0.975
-0.95
-0.945
-0.95
-0.95
-0.965
-0.965
-0.97
-0.975
-0.995
-0.99
-1.005
-0.995
-0.97
-0.97
-0.965
-0.995
-1.005
-0.995
-0.995
-0.995
-0.98
-0.995
-0.99
-0.985
-0.97
-0.955
-0.94
-0.95
-0.97
-0.975
-0.98
-0.965
-0.96
-0.97
-0.975
-0.975
-0.96
-0.95
-0.92
-0.92
-0.96
-0.96
-0.96
-0.965
-0.945
-0.95
-0.955
-0.96
-0.95
-0.94
-0.9
-0.88
-0.88
-0.9
-0.91
-0.905
-0.89
-0.89
-0.895
-0.89
-0.86
-0.815
-0.795
-0.765
-0.765
-0.765
-0.775
-0.745
-0.745
-0.725
-0.735
-0.73
-0.735
-0.725
-0.7
-0.705
-0.74
-0.77
-0.795
-0.79
-0.785
-0.79
-0.815
-0.86
-0.885
-0.87
-0.89
-0.91
-0.935
-0.95
-0.98
-0.975
-0.965
-0.97
-0.99
-1.0
-1.0
-0.98
-0.965
-0.965
-0.98
-0.985
-0.975
-0.97
-0.975
-0.985
-1.01
-1.02
-1.01
-1.01
-1.035
-1.095
-1.145
-1.175
-1.15
-1.08
-0.97
-0.83
-0.645
-0.425
-0.19
0.01
0.195
0.355
0.49
0.61
0.685
0.715
0.73
0.695
0.64
0.57
0.485
0.345
0.13
-0.18
-0.475
-0.72
-0.87
-0.94
-0.94
-0.92
-0.875
-0.86
-0.865
-0.92
-0.965
-1.005
-1.055
-1.065
-1.075
-1.09
-1.095
-1.095
-1.085
-1.06
-1.045
-1.055
-1.05
-1.05
-1.025
-1.02
-1.045
-1.055
-1.065
-1.1
-1.075
-1.06
-1.045
-1.05
-1.06
-1.07
-1.045
-1.025
-1.035
-1.04
-1.065
-1.07
-1.045
-1.04
-1.025
-1.025
-1.025
-1.025
-1.01
-1.01
-1.005
-1.025
-1.05
-1.05
-1.035
-1.015
-0.995
-1.0
-1.02
-0.995
-0.98
-0.965
-0.96
-0.965
-0.97
-0.995
-0.985
-0.975
-0.955
-0.94
-0.945
-0.945
-0.94
-0.935
-0.93
-0.95
-0.95
-0.955
-0.94
-0.925
-0.925
-0.92
-0.92
-0.9
-0.88
-0.9
-0.905
-0.93
-0.925
-0.91
-0.91
-0.92
-0.92
-0.92
-0.91
-0.885
-0.88
-0.9
-0.925
-0.935
-0.935
-0.935
-0.92
-0.94
-0.94
-0.925
-0.905
-0.89
-0.925
-0.93
-0.935
-0.93
-0.94
-0.945
-0.94
-0.95
-0.96
-0.935
-0.92
-0.91
-0.93
-0.945
-0.965
-0.98
-0.97
-0.975
-0.99
-1.01
-1.015
-0.995
-0.97
-0.97
-0.995
-1.015
-1.02
-1.005
-1.01
-1.025
-1.03
-1.035
-1.01
-1.005
-1.0
-1.0
-1.0
-0.99
-0.995
-0.99
-1.005
-1.015
-1.025
-1.015
-0.985
-0.985
-0.99
-0.98
-0.99
-0.975
-0.975
-0.98
-0.995
-1.015
-1.0
-0.99
-0.965
-0.955
-0.965
-0.975
-0.985
-0.97
-0.965
-0.96
-0.98
-0.98
-0.98
-0.965
-0.94
-0.915
-0.885
-0.89
-0.895
-0.89
-0.87
-0.845
-0.82
-0.82
-0.82
-0.805
-0.775
-0.75
-0.725
-0.73
-0.725
-0.755
-0.77
-0.755
-0.755
-0.78
-0.805
-0.815
-0.805
-0.81
-0.805
-0.805
-0.84
-0.865
-0.875
-0.88
-0.905
-0.935
-0.97
-0.965
-0.98
-0.97
-0.945
-0.955
-0.97
-0.985
-1.015
-1.005
-1.0
-1.015
-1.03
-1.02
-1.01
-0.98
-0.98
-0.99
-0.99
-1.01
-1.025
-1.045
-1.06
-1.09
-1.16
-1.22
-1.225
-1.21
-1.16
-1.08
-0.96
-0.805
-0.615
-0.415
-0.22
-0.055
0.1
0.255
0.425
0.58
0.68
0.74
0.74
0.69
0.635
0.57
0.48
0.32
0.095
-0.195
-0.475
-0.695
-0.825
-0.895
-0.915
-0.89
-0.87
-0.85
-0.845
-0.885
-0.95
-1.02
-1.055
-1.085
-1.08
-1.07
-1.09
-1.1
-1.11
-1.1
-1.095
-1.09
-1.09
-1.095
-1.095
-1.085
-1.065
-1.08
-1.08
-1.095
-1.095
-1.125
-1.09
-1.1
-1.085
-1.095
-1.09
-1.095
-1.08
-1.05
-1.055
-1.08
-1.075
-1.08
-1.08
-1.07
-1.075
-1.075
-1.075
-1.06
-1.065
-1.035
-1.045
-1.05
-1.075
-1.075
-1.055
-1.04
-1.035
-1.055
-1.05
-1.05
-1.045
-1.025
-1.025
-1.03
-1.025
-1.04
-1.025
-1.015
-1.005
-1.01
-1.005
-1.0
-0.99
-0.97
-0.955
-0.97
-0.98
-0.99
-0.99
-0.975
-0.96
-0.95
-0.98
-0.99
-0.96
-0.94
-0.92
-0.93
-0.96
-0.96
-0.96
-0.95
-0.95
-0.94
-0.94
-0.935
-0.92
-0.915
-0.91
-0.915
-0.925
-0.95
-0.95
-0.95
-0.945
-0.955
-0.96
-0.99
-0.955
-0.925
-0.92
-0.94
-0.965
-0.965
-0.97
-0.965
-0.975
-0.985
-1.005
-0.98
-0.97
-0.95
-0.955
-0.98
-1.0
-1.0
-0.995
-0.985
-1.0
-1.02
-1.03
-1.02
-1.02
-0.985
-0.995
-1.015
-1.035
-1.035
-1.03
-1.02
-1.03
-1.04
-1.035
-1.03
-1.015
-1.005
-0.995
-1.015
-1.045
-1.065
-1.055
-1.04
-1.025
-1.025
-1.02
-1.01
-1.0
-0.99
-0.98
-0.995
-1.015
-1.035
-1.02
-1.0
-0.995
-0.995
-0.995
-0.99
-0.985
-0.965
-0.955
-0.95
-0.97
-0.99
-0.995
-0.98
-0.98
-0.975
-0.975
-0.965
-0.935
-0.895
-0.89
-0.89
-0.915
-0.93
-0.92
-0.905
-0.89
-0.87
-0.84
-0.815
-0.785
-0.73
-0.73
-0.755
-0.775
-0.78
-0.77
-0.745
-0.75
-0.745
-0.755
-0.765
-0.755
-0.745
-0.765
-0.805
-0.825
-0.83
-0.82
-0.845
-0.87
-0.885
-0.915
-0.915
-0.915
-0.93
-0.94
-0.96
-0.98
-0.99
-0.97
-0.97
-0.98
-1.01
-0.985
-0.99
-0.965
-0.945
-0.965
-0.965
-0.985
-1.005
-0.99
-0.995
-0.995
-1.03
-1.045
-1.075
-1.095
-1.125
-1.18
-1.185
-1.185
-1.11
-0.965
-0.76
-0.56
-0.335
-0.15
0.035
0.225
0.415
0.565
0.67
0.725
0.76
0.76
0.705
0.595
0.425
0.195
-0.08
-0.4
-0.655
-0.835
-0.94
-0.925
-0.875
-0.825
-0.815
-0.84
-0.875
-0.925
-0.955
-0.98
-1.015
-1.065
-1.085
-1.085
-1.075
-1.055
-1.05
-1.065
-1.07
-1.05
-1.035
-1.015
-1.02
-1.04
-1.05
-1.075
-1.06
-1.06
-1.05
-1.075
-1.09
-1.075
-1.06
-1.035
-1.035
-1.06
-1.055
-1.05
-1.04
-1.02
-1.045
-1.045
-1.06
-1.05
-1.03
-1.02
-1.025
-1.04
-1.04
-1.03
-1.04
-1.025
-1.035
-1.055
-1.075
-1.045
-1.005
-0.985
-0.995
-1.02
-1.02
-1.04
-1.015
-0.995
-0.995
-1.005
-0.99
-0.965
-0.975
-0.95
-0.93
-0.95
-0.95
-0.94
-0.95
-0.945
-0.955
-0.975
-0.965
-0.935
-0.91
-0.9
-0.91
-0.92
-0.92
-0.91
-0.91
-0.905
-0.92
-0.92
-0.915
-0.9
-0.875
-0.865
-0.875
-0.9
-0.9
-0.905
-0.885
-0.89
-0.915
-0.945
-0.95
-0.925
-0.9
-0.895
-0.895
-0.92
-0.935
-0.93
-0.94
-0.925
-0.935
-0.94
-0.96
-0.94
-0.92
-0.91
-0.92
-0.935
-0.945
-0.945
-0.965
-0.96
-0.96
-0.975
-0.975
-0.97
-0.945
-0.94
-0.96
-0.97
-0.995
-0.98
-0.975
-0.98
-1.0
-1.025
-1.035
-1.015
-0.995
-0.985
-1.0
-0.995
-1.0
-0.995
-0.98
-0.985
-1.01
-1.02
-1.01
-0.985
-0.99
-0.96
-0.98
-0.985
-0.995
-0.99
-0.995
-0.99
-1.0
-1.005
-0.975
-0.975
-0.95
-0.945
-0.95
-0.96
-0.965
-0.95
-0.95
-0.945
-0.95
-0.98
-0.96
-0.935
-0.91
-0.89
-0.895
-0.905
-0.905
-0.9
-0.89
-0.895
-0.9
-0.88
-0.855
-0.82
-0.795
-0.76
-0.74
-0.73
-0.725
-0.715
-0.71
-0.72
-0.74
-0.75
-0.76
-0.74
-0.74
-0.725
-0.775
-0.78
-0.78
-0.77
-0.775
-0.79
-0.825
-0.855
-0.865
-0.875
-0.895
-0.89
-0.905
-0.92
-0.925
-0.92
-0.94
-0.97
-0.995
-1.01
-1.01
-0.985
-0.98
-0.965
-0.985
-0.98
-0.975
-0.965
-0.945
-0.96
-0.965
-0.995
-1.0
-1.005
-1.01
-1.04
-1.09
-1.16
-1.19
-1.19
-1.14
-1.05
-0.955
-0.805
-0.605
-0.405
-0.185
0.005
0.165
0.31
0.45
0.575
0.7
0.765
0.79
0.77
0.735
0.675
0.615
0.5
0.29
-0.005
-0.335
-0.605
-0.78
-0.875
-0.915
-0.895
-0.83
-0.8
-0.79
-0.79
-0.825
-0.91
-0.985
-1.015
-1.04
-1.04
-1.055
-1.075
-1.085
-1.07
-1.035
-1.05
-1.025
-1.025
-1.03
-1.04
-1.04
-1.04
-1.05
-1.05
-1.06
-1.045
-1.03
-1.005
-1.015
-1.035
-1.04
-1.035
-1.03
-1.02
-1.025
-1.045
-1.045
-1.035
-1.015
-1.02
-1.025
-1.03
-1.025
-1.035
-1.01
-1.01
-1.03
-1.04
-1.045
-1.025
-0.99
-0.975
-0.97
-0.985
-0.985
-0.98
-0.975
-0.975
-0.97
-0.99
-0.985
-0.985
-0.95
-0.945
-0.94
-0.945
-0.95
-0.945
-0.94
-0.925
-0.945
-0.945
-0.97
-0.96
-0.935
-0.925
-0.935
-0.925
-0.925
-0.93
-0.935
-0.915
-0.925
-0.93
-0.925
-0.925
-0.89
-0.9
-0.875
-0.885
-0.89
-0.89
-0.895
-0.895
-0.91
-0.94
-0.945
-0.925
-0.9
-0.895
-0.895
-0.905
-0.93
-0.935
-0.93
-0.925
-0.935
-0.955
-0.975
-0.95
-0.94
-0.925
-0.925
-0.935
-0.945
-0.95
-0.945
-0.95
-0.955
-0.96
-0.99
-0.985
-0.975
-0.955
-0.945
-0.935
-0.98
-0.99
-0.995
-1.0
-1.02
-1.025
-1.02
-1.04
-1.02
-1.0
-0.98
-0.98
-0.995
-1.01
-1.015
-1.015
-1.005
-1.02
-1.03
-1.02
-1.02
-1.005
-0.99
-0.975
-0.975
-0.99
-0.995
-0.995
-1.0
-0.995
-1.02
-1.015
-0.99
-0.985
-0.98
-0.965
-0.99
-1.0
-0.99
-0.995
-0.995
-0.995
-1.01
-1.02
-0.995
-0.965
-0.97
-0.98
-0.985
-1.0
-1.0
-0.97
-0.955
-0.98
-0.965
-0.955
-0.95
-0.92
-0.9
-0.885
-0.91
-0.905
-0.89
-0.855
-0.83
-0.82
-0.825
-0.815
-0.795
-0.78
-0.745
-0.74
-0.745
-0.765
-0.78
-0.775
-0.765
-0.79
-0.805
-0.83
-0.825
-0.835
-0.82
-0.805
-0.835
-0.865
-0.9
-0.925
-0.935
-0.965
-0.97
-0.985
-1.0
-0.995
-0.97
-0.985
-0.99
-1.015
-1.04
-1.05
-1.05
-1.045
-1.065
-1.045
-1.045
-1.035
-1.005
-1.01
-1.035
-1.03
-1.06
-1.075
-1.065
-1.09
-1.14
-1.19
-1.23
-1.235
-1.2
-1.12
-1.035
-0.91
-0.74
-0.545
-0.345
-0.16
0.015
0.18
0.34
0.485
0.6
0.67
0.69
0.65
0.595
0.56
0.48
0.37
0.16
-0.11
-0.42
-0.68
-0.855
-0.96
-0.98
-0.97
-0.935
-0.895
-0.915
-0.93
-0.98
-1.05
-1.085
-1.095
-1.1
-1.1
-1.12
-1.13
-1.125
-1.135
-1.13
-1.12
-1.12
-1.135
-1.13
-1.12
-1.085
-1.095
-1.105
-1.14
-1.14
-1.14
-1.125
-1.12
-1.13
-1.135
-1.13
-1.105
-1.07
-1.075
-1.1
-1.12
-1.115
-1.1
-1.1
-1.135
-1.155
-1.115
-1.105
-1.075
-1.075
-1.085
-1.085
-1.095
-1.09
-1.08
-1.085
-1.1
-1.105
-1.095
-1.065
-1.055
-1.04
-1.03
-1.04
-1.045
-1.045
-1.03
-1.035
-1.045
-1.05
-1.025
-1.03
-0.985
-0.99
-0.985
-0.985
-0.995
-1.01
-0.99
-0.975
-0.975
-0.975
-0.97
-0.985
-0.965
-0.945
-0.94
-0.95
-0.96
-0.99
-0.98
-0.97
-0.965
-0.96
-0.97
-0.96
-0.95
-0.94
-0.925
-0.93
-0.94
-0.955
-0.98
-0.99
-0.995
-0.97
-0.99
-0.98
-0.98
-0.965
-0.94
-0.965
-0.98
-0.995
-1.005
-1.005
-1.0
-1.0
-1.0
-1.02
-1.02
-0.995
-0.975
-0.985
-1.035
-1.05
-1.04
-1.055
-1.035
-1.035
-1.065
-1.055
-1.045
-1.035
-1.035
-1.04
-1.05
-1.065
-1.085
-1.08
-1.08
-1.1
-1.09
-1.09
-1.09
-1.065
-1.06
-1.055
-1.06
-1.095
-1.1
-1.1
-1.075
-1.065
-1.08
-1.07
-1.07
-1.055
-1.045
-1.035
-1.045
-1.07
-1.085
-1.085
-1.075
-1.055
-1.055
-1.055
-1.06
-1.055
-1.045
-1.02
-1.03
-1.045
-1.065
-1.06
-1.065
-1.06
-1.045
-1.045
-1.055
-1.03
-1.015
-0.995
-1.005
-1.02
-1.015
-1.015
-1.01
-0.995
-0.99
-0.985
-0.975
-0.94
-0.92
-0.89
-0.895
-0.895
-0.91
-0.895
-0.865
-0.825
-0.81
-0.82
-0.825
-0.82
-0.805
-0.8
-0.805
-0.83
-0.865
-0.875
-0.875
-0.88
-0.885
-0.89
-0.905
-0.895
-0.91
-0.935
-0.965
-1.01
-1.02
-1.045
-1.055
-1.045
-1.045
-1.04
-1.06
-1.07
-1.06
-1.065
-1.065
-1.075
-1.095
-1.105
-1.105
-1.105
-1.075
-1.055
-1.055
-1.07
-1.065
-1.05
-1.05
-1.05
-1.065
-1.13
-1.165
-1.19
-1.23
-1.265
-1.27
-1.25
-1.19
-1.08
-0.91
-0.705
-0.495
-0.31
-0.12
0.075
0.26
0.45
0.57
0.63
0.66
0.665
0.635
0.595
0.5
0.39
0.24
0.04
-0.195
-0.47
-0.72
-0.905
-1.025
-1.035
-1.01
-0.955
-0.92
-0.93
-0.965
-1.03
-1.065
-1.1
-1.11
-1.14
-1.145
-1.15
-1.14
-1.16
-1.135
-1.14
-1.18
-1.195
-1.175
-1.145
-1.12
-1.11
-1.1
-1.135
-1.135
-1.14
-1.12
-1.135
-1.14
-1.15
-1.16
-1.155
-1.13
-1.105
-1.105
-1.13
-1.145
-1.16
-1.145
-1.13
-1.135
-1.14
-1.15
-1.15
-1.125
-1.1
-1.09
-1.115
-1.13
-1.14
-1.135
-1.125
-1.12
-1.13
-1.13
-1.13
-1.09
-1.07
-1.075
-1.09
-1.095
-1.1
-1.07
-1.075
-1.08
-1.09
-1.08
-1.065
-1.03
-1.04
-1.04
-1.04
-1.045
-1.04
-1.035
-1.035
-1.045
-1.06
-1.07
-1.045
-1.03
-1.025
-1.02
-1.035
-1.035
-1.005
-1.015
-1.015
-1.015
-1.04
-1.035
-1.03
-0.99
-0.98
-0.985
-1.01
-1.015
-1.01
-0.995
-1.01
-1.025
-1.045
-1.05
-1.025
-1.005
-0.995
-1.0
-1.03
-1.025
-1.045
-1.05
-1.035
-1.055
-1.065
-1.075
-1.05
-1.035
-1.02
-1.03
-1.05
-1.095
-1.085
-1.095
-1.075
-1.09
-1.12
-1.11
-1.115
-1.11
-1.09
-1.085
-1.125
-1.12
-1.12
-1.13
-1.13
-1.15
-1.175
-1.185
-1.145
-1.135
-1.12
-1.135
-1.135
-1.14
-1.135
-1.145
-1.145
-1.145
-1.155
-1.165
-1.14
-1.12
-1.115
-1.12
-1.135
-1.145
-1.155
-1.115
-1.125
-1.105
-1.115
-1.105
-1.1
-1.08
-1.09
-1.07
-1.085
-1.1
-1.105
-1.095
-1.11
-1.105
-1.13
-1.145
-1.12
-1.095
-1.07
-1.08
-1.095
-1.12
-1.105
-1.095
-1.08
-1.09
-1.1
-1.09
-1.09
-1.065
-1.05
-1.03
-1.035
-1.04
-1.03
-1.005
-1.0
-0.985
-0.99
-0.97
-0.945
-0.915
-0.895
-0.89
-0.925
-0.94
-0.92
-0.92
-0.93
-0.965
-0.995
-1.005
-0.99
-0.975
-0.98
-0.985
-1.015
-1.05
-1.06
-1.08
-1.12
-1.145
-1.175
-1.19
-1.175
-1.18
-1.19
-1.19
-1.205
-1.2
-1.225
-1.22
-1.23
-1.23
-1.23
-1.22
-1.205
-1.215
-1.22
-1.235
-1.24
-1.225
-1.245
-1.25
-1.295
-1.335
-1.38
-1.405
-1.44
-1.465
-1.455
-1.41
-1.345
-1.23
-1.05
-0.86
-0.695
-0.515
-0.35
-0.185
-0.01
0.155
0.295
0.395
0.455
0.485
0.47
0.455
0.375
0.26
0.1
-0.145
-0.465
-0.78
-1.055
-1.24
-1.325
-1.315
-1.265
-1.215
-1.2
-1.25
-1.295
-1.355
-1.365
-1.4
-1.42
-1.445
-1.48
-1.44
-1.45
-1.47
-1.465
-1.485
-1.485
-1.48
-1.47
-1.44
-1.43
-1.45
-1.46
-1.455
-1.43
-1.435
-1.47
-1.48
-1.505
-1.49
-1.465
-1.455
-1.45
-1.46
-1.465
-1.47
-1.465
-1.46
-1.475
-1.485
-1.495
-1.495
-1.465
-1.455
-1.44
-1.455
-1.455
-1.47
-1.47
-1.46
-1.47
-1.465
-1.49
-1.47
-1.46
-1.42
-1.415
-1.44
-1.46
-1.44
-1.43
-1.41
-1.43
-1.445
-1.43
-1.43
-1.395
-1.39
-1.38
-1.38
-1.385
-1.38
-1.36
-1.37
-1.395
-1.405
-1.395
-1.38
-1.36
-1.345
-1.36
-1.355
-1.37
-1.36
-1.345
-1.35
-1.365
-1.375
-1.39
-1.375
-1.345
-1.345
-1.355
-1.34
-1.355
-1.35
-1.33
-1.335
-1.355
-1.4
-1.39
-1.405
-1.37
-1.365
-1.36
-1.36
-1.395
-1.39
-1.37
-1.37
-1.38
-1.375
-1.395
-1.4
-1.38
-1.365
-1.345
-1.355
-1.375
-1.395
-1.385
-1.4
-1.4
-1.41
-1.435
-1.445
-1.45
-1.415
-1.4
-1.385
-1.39
-1.43
-1.445
-1.44
-1.44
-1.435
-1.46
-1.465
-1.46
-1.44
-1.415
-1.415
-1.435
-1.44
-1.46
-1.445
-1.425
-1.46
-1.48
-1.485
-1.46
-1.44
-1.42
-1.405
-1.425
-1.42
-1.41
-1.4
-1.415
-1.425
-1.44
-1.45
-1.425
-1.42
-1.375
-1.375
-1.39
-1.405
-1.405
-1.405
-1.39
-1.385
-1.41
-1.41
-1.395
-1.365
-1.355
-1.35
-1.375
-1.375
-1.35
-1.355
-1.34
-1.35
-1.36
-1.335
-1.32
-1.295
-1.265
-1.23
-1.24
-1.245
-1.235
-1.215
-1.175
-1.17
-1.17
-1.17
-1.165
-1.145
-1.125
-1.105
-1.125
-1.15
-1.165
-1.18
-1.205
-1.22
-1.225
-1.22
-1.22
-1.225
-1.255
-1.265
-1.3
-1.35
-1.355
-1.375
-1.37
-1.39
-1.41
-1.415
-1.4
-1.375
-1.37
-1.37
-1.38
-1.39
-1.385
-1.385
-1.39
-1.4
-1.415
-1.435
-1.415
-1.395
-1.37
-1.365
-1.39
-1.41
-1.425
-1.445
-1.485
-1.545
-1.595
-1.61
-1.6
-1.495
-1.375
-1.21
-1.03
-0.82
-0.63
-0.455
-0.29
-0.12
0.035
0.185
0.31
0.4
0.44
0.465
0.44
0.365
0.28
0.15
-0.05
-0.32
-0.66
-0.955
-1.185
-1.315
-1.345
-1.29
-1.245
-1.195
-1.18
-1.205
-1.255
-1.31
-1.35
-1.395
-1.425
-1.445
-1.45
-1.43
-1.43
-1.44
-1.45
-1.45
-1.44
-1.43
-1.42
-1.405
-1.425
-1.405
-1.405
-1.4
-1.39
-1.41
-1.44
-1.455
-1.44
-1.43
-1.43
-1.41
-1.445
-1.42
-1.405
-1.39
-1.395
-1.4
-1.425
-1.4
-1.395
-1.385
-1.39
-1.405
-1.41
-1.39
-1.395
-1.355
-1.365
-1.375
-1.385
-1.4
-1.395
-1.365
-1.37
-1.365
-1.35
-1.335
-1.32
-1.3
-1.305
-1.31
-1.325
-1.34
-1.31
-1.295
-1.28
-1.285
-1.29
-1.285
-1.28
-1.26
-1.235
-1.25
-1.25
-1.26
-1.255
-1.245
-1.245
-1.23
-1.24
-1.23
-1.215
-1.18
-1.175
-1.175
-1.19
-1.185
-1.175
-1.195
-1.19
-1.205
-1.19
-1.18
-1.16
-1.145
-1.18
-1.185
-1.19
-1.19
-1.18
-1.185
-1.19
-1.205
-1.21
-1.19
-1.18
-1.16
-1.165
-1.2
-1.22
-1.225
-1.22
-1.205
-1.215
-1.235
-1.23
-1.215
-1.18
-1.185
-1.195
-1.205
-1.215
-1.23
-1.235
-1.21
-1.225
-1.245
-1.25
-1.235
-1.225
-1.21
-1.21
-1.23
-1.245
-1.25
-1.235
-1.24
-1.24
-1.265
-1.24
-1.24
-1.215
-1.19
-1.195
-1.215
-1.225
-1.225
-1.215
-1.205
-1.215
-1.24
-1.21
-1.21
-1.185
-1.18
-1.18
-1.2
-1.205
-1.185
-1.175
-1.17
-1.19
-1.195
-1.165
-1.14
-1.145
-1.135
-1.14
-1.155
-1.15
-1.17
-1.13
-1.13
-1.135
-1.13
-1.13
-1.1
-1.085
-1.085
-1.09
-1.085
-1.075
-1.035
-1.005
-0.995
-0.98
-0.995
-0.96
-0.925
-0.905
-0.88
-0.89
-0.91
-0.925
-0.935
-0.93
-0.915
-0.92
-0.95
-0.96
-0.965
-0.965
-0.94
-0.97
-0.965
-1.015
-1.025
-1.035
-1.065
-1.09
-1.115
-1.13
-1.135
-1.115
-1.105
-1.095
-1.115
-1.14
-1.15
-1.145
-1.145
-1.15
-1.16
-1.145
-1.13
-1.1
-1.085
-1.095
-1.105
-1.115
-1.12
-1.12
-1.11
-1.135
-1.18
-1.23
-1.245
-1.27
-1.255
-1.23
-1.19
-1.045
-0.87
-0.665
-0.465
-0.275
-0.11
0.055
0.22
0.37
0.5
0.6
0.625
0.63
0.615
0.58
0.515
0.435
0.28
0.075
-0.19
-0.5
-0.76
-0.95
-1.065
-1.09
-1.06
-0.99
-0.945
-0.96
-0.98
-1.04
-1.1
-1.115
-1.13
-1.13
-1.16
-1.185
-1.21
-1.195
-1.19
-1.19
-1.205
-1.21
-1.185
-1.16
-1.125
-1.12
-1.115
-1.135
-1.17
-1.185
-1.175
-1.155
-1.155
-1.145
-1.15
-1.135
-1.135
-1.115
-1.115
-1.125
-1.14
-1.155
-1.145
-1.15
-1.145
-1.125
-1.15
-1.15
-1.13
-1.11
-1.11
-1.12
-1.14
-1.15
-1.145
-1.135
-1.115
-1.105
-1.1
-1.115
-1.105
-1.1
-1.085
-1.085
-1.085
-1.1
-1.12
-1.1
-1.085
-1.075
-1.055
-1.08
-1.055
-1.06
-1.035
-1.035
-1.045
-1.055
-1.09
-1.075
-1.06
-1.03
-1.015
-1.015
-1.02
-1.03
-1.015
-0.995
-1.0
-1.01
-1.015
-1.03
-1.01
-1.005
-0.975
-0.975
-0.975
-1.02
-1.015
-0.995
-0.995
-0.98
-0.99
-1.01
-1.015
-1.02
-1.0
-0.995
-0.985
-0.975
-0.985
-0.995
-1.005
-1.015
-1.01
-1.015
-1.02
-1.015
-1.01
-0.995
-0.995
-0.995
-1.01
-1.015
-1.015
-1.015
-1.005
-1.03
-1.06
-1.05
-1.035
-1.03
-0.995
-1.0
-1.015
-1.045
-1.05
-1.05
-1.055
-1.05
-1.07
-1.085
-1.075
-1.08
-1.055
-1.05
-1.055
-1.075
-1.09
-1.085
-1.075
-1.075
-1.09
-1.085
-1.095
-1.085
-1.07
-1.05
-1.04
-1.05
-1.075
-1.085
-1.1
-1.085
-1.05
-1.055
-1.065
-1.065
-1.055
-1.035
-1.03
-1.045
-1.05
-1.07
-1.065
-1.065
-1.05
-1.03
-1.02
-1.035
-1.04
-1.045
-1.04
-1.015
-1.02
-1.035
-1.065
-1.045
-1.055
-1.025
-1.015
-1.005
-1.02
-1.02
-1.005
-0.99
-1.0
-1.005
-1.015
-1.005
-0.995
-0.955
-0.925
-0.915
-0.895
-0.875
-0.85
-0.83
-0.825
-0.825
-0.82
-0.835
-0.815
-0.785
-0.78
-0.79
-0.805
-0.81
-0.815
-0.835
-0.855
-0.875
-0.885
-0.9
-0.89
-0.875
-0.86
-0.88
-0.935
-0.955
-0.98
-0.995
-0.99
-1.01
-1.025
-1.045
-1.05
-1.055
-1.04
-1.05
-1.025
-1.03
-1.04
-1.05
-1.04
-1.025
-1.035
-1.07
-1.075
-1.04
-1.045
-1.025
-1.03
-1.035
-1.065
-1.095
-1.105
-1.135
-1.215
-1.245
-1.235
-1.17
-1.055
-0.9
-0.725
-0.52
-0.335
-0.12
0.065
0.255
0.395
0.555
0.645
0.705
0.745
0.725
0.675
0.575
0.445
0.27
0.0
-0.305
-0.625
-0.855
-0.97
-1.0
-0.965
-0.895
-0.85
-0.855
-0.885
-0.925
-0.97
-1.025
-1.075
-1.13
-1.125
-1.13
-1.095
-1.08
-1.08
-1.105
-1.11
-1.115
-1.11
-1.095
-1.085
-1.095
-1.115
-1.115
-1.08
-1.07
-1.06
-1.06
-1.07
-1.085
-1.085
-1.08
-1.08
-1.08
-1.085
-1.095
-1.09
-1.08
-1.055
-1.05
-1.05
-1.075
-1.08
-1.08
-1.075
-1.065
-1.055
-1.07
-1.065
-1.06
-1.055
-1.02
-1.02
-1.03
-1.04
-1.045
-1.04
-1.02
-1.045
-1.02
-1.01
-0.985
-0.995
-0.98
-1.005
-1.01
-0.97
-0.965
-0.96
-0.975
-0.985
-0.99
-0.96
-0.95
-0.925
-0.925
-0.93
-0.94
-0.92
-0.915
-0.92
-0.935
-0.955
-0.935
-0.905
-0.89
-0.89
-0.895
-0.895
-0.91
-0.905
-0.9
-0.9
-0.91
-0.91
-0.925
-0.915
-0.91
-0.905
-0.905
