Lead II
-0.74
-0.745
-0.745
-0.755
-0.77
-0.785
-0.795
-0.77
-0.76
-0.755
-0.76
-0.78
-0.785
-0.795
-0.81
-0.8
-0.8
-0.83
-0.83
-0.84
-0.83
-0.835
-0.815
-0.805
-0.815
-0.835
-0.85
-0.865
-0.86
-0.845
-0.86
-0.86
-0.87
-0.845
-0.84
-0.845
-0.845
-0.865
-0.855
-0.87
-0.865
-0.875
-0.875
-0.875
-0.86
-0.85
-0.825
-0.825
-0.84
-0.845
-0.835
-0.845
-0.825
-0.84
-0.835
-0.845
-0.83
-0.825
-0.82
-0.805
-0.83
-0.825
-0.83
-0.845
-0.825
-0.83
-0.82
-0.825
-0.795
-0.785
-0.755
-0.745
-0.74
-0.745
-0.75
-0.725
-0.715
-0.695
-0.69
-0.68
-0.64
-0.62
-0.59
-0.575
-0.58
-0.565
-0.575
-0.59
-0.59
-0.61
-0.62
-0.635
-0.64
-0.62
-0.65
-0.65
-0.635
-0.655
-0.685
-0.71
-0.735
-0.775
-0.79
-0.815
-0.82
-0.815
-0.805
-0.8
-0.825
-0.835
-0.835
-0.855
-0.84
-0.845
-0.86
-0.85
-0.855
-0.85
-0.845
-0.82
-0.835
-0.85
-0.86
-0.86
-0.87
-0.89
-0.93
-0.965
-1.01
-1.045
-1.065
-1.045
-1.0
-0.895
-0.77
-0.58
-0.365
-0.165
0.03
0.23
0.425
0.625
0.77
0.88
0.91
0.88
0.875
0.815
0.765
0.685
0.55
0.335
0.045
-0.245
-0.515
-0.695
-0.81
-0.835
-0.825
-0.76
-0.72
-0.72
-0.755
-0.81
-0.865
-0.89
-0.905
-0.925
-0.935
-0.94
-0.93
-0.94
-0.94
-0.945
-0.96
-0.96
-0.935
-0.925
-0.91
-0.91
-0.905
-0.92
-0.93
-0.935
-0.93
-0.935
-0.955
-0.965
-0.94
-0.93
-0.935
-0.93
-0.93
-0.935
-0.935
-0.95
-0.965
-0.975
-0.965
-0.975
-0.965
-0.945
-0.935
-0.935
-0.95
-0.945
-0.95
-0.955
-0.95
-0.965
-0.965
-0.96
-0.955
-0.93
-0.94
-0.935
-0.945
-0.945
-0.945
-0.935
-0.94
-0.95
-0.955
-0.955
-0.945
-0.91
-0.91
-0.905
-0.92
-0.915
-0.905
-0.905
-0.9
-0.915
-0.915
-0.91
-0.9
-0.885
-0.865
-0.86
-0.835
-0.835
-0.83
-0.83
-0.83
-0.85
-0.85
-0.85
-0.83
-0.825
-0.81
-0.79
-0.8
-0.81
-0.81
-0.81
-0.825
-0.825
-0.83
-0.835
-0.82
-0.815
-0.81
-0.805
-0.81
-0.815
-0.815
-0.81
-0.825
-0.85
-0.845
-0.845
-0.83
-0.82
-0.82
-0.84
-0.845
-0.865
-0.86
-0.87
-0.85
-0.865
-0.88
-0.9
-0.89
-0.87
-0.87
-0.88
-0.88
-0.91
-0.92
-0.925
-0.9
-0.925
-0.93
-0.93
-0.93
-0.92
-0.91
-0.89
-0.885
-0.89
-0.9
-0.915
-0.9
-0.905
-0.92
-0.935
-0.925
-0.895
-0.89
-0.875
-0.885
-0.885
-0.895
-0.895
-0.89
-0.88
-0.89
-0.895
-0.89
-0.875
-0.865
-0.845
-0.85
-0.865
-0.855
-0.865
-0.87
-0.875
-0.88
-0.87
-0.865
-0.84
-0.83
-0.815
-0.83
-0.83
-0.81
-0.795
-0.795
-0.78
-0.77
-0.745
-0.725
-0.675
-0.655
-0.64
-0.64
-0.64
-0.63
-0.625
-0.63
-0.645
-0.645
-0.655
-0.64
-0.66
-0.66
-0.665
-0.685
-0.7
-0.7
-0.7
-0.72
-0.74
-0.775
-0.79
-0.805
-0.82
-0.825
-0.825
-0.835
-0.86
-0.855
-0.865
-0.865
-0.89
-0.915
-0.905
-0.91
-0.885
-0.865
-0.85
-0.865
-0.88
-0.89
-0.89
-0.89
-0.895
-0.9
-0.89
-0.9
-0.925
-0.935
-0.93
-0.97
-1.015
-1.075
-1.1
-1.065
-1.005
-0.88
-0.71
-0.485
-0.26
0.0
0.21
0.39
0.585
0.735
0.845
0.9
0.9
0.88
0.845
0.755
0.685
0.57
0.365
0.085
-0.245
-0.535
-0.73
-0.835
-0.83
-0.82
-0.76
-0.715
-0.715
-0.735
-0.78
-0.845
-0.89
-0.925
-0.96
-0.975
-0.975
-0.98
-0.975
-0.965
-0.96
-0.95
-0.94
-0.94
-0.95
-0.94
-0.95
-0.945
-0.94
-0.955
-0.985
-0.96
-0.97
-0.95
-0.935
-0.935
-0.94
-0.96
-0.97
-0.96
-0.955
-0.965
-0.96
-0.965
-0.96
-0.945
-0.93
-0.925
-0.935
-0.955
-0.95
-0.94
-0.945
-0.95
-0.955
-0.955
-0.945
-0.94
-0.935
-0.925
-0.925
-0.935
-0.935
-0.93
-0.945
-0.955
-0.955
-0.955
-0.93
-0.92
-0.91
-0.905
-0.92
-0.9
-0.92
-0.91
-0.91
-0.905
-0.905
-0.9
-0.905
-0.87
-0.86
-0.83
-0.845
-0.835
-0.82
-0.83
-0.83
-0.83
-0.82
-0.825
-0.805
-0.795
-0.755
-0.75
-0.755
-0.775
-0.785
-0.79
-0.785
-0.775
-0.785
-0.79
-0.785
-0.76
-0.74
-0.76
-0.775
-0.765
-0.77
-0.78
-0.78
-0.78
-0.8
-0.81
-0.81
-0.79
-0.775
-0.77
-0.78
-0.805
-0.815
-0.8
-0.81
-0.81
-0.81
-0.83
-0.85
-0.835
-0.83
-0.825
-0.835
-0.835
-0.85
-0.86
-0.86
-0.86
-0.875
-0.875
-0.865
-0.87
-0.865
-0.86
-0.875
-0.87
-0.865
-0.88
-0.88
-0.885
-0.875
-0.875
-0.855
-0.845
-0.845
-0.85
-0.85
-0.865
-0.865
-0.855
-0.84
-0.855
-0.845
-0.85
-0.83
-0.82
-0.805
-0.805
-0.825
-0.835
-0.84
-0.84
-0.84
-0.835
-0.85
-0.835
-0.82
-0.8
-0.79
-0.78
-0.77
-0.77
-0.775
-0.77
-0.765
-0.775
-0.8
-0.775
-0.755
-0.74
-0.685
-0.68
-0.665
-0.665
-0.635
-0.615
-0.61
-0.61
-0.62
-0.61
-0.61
-0.575
-0.56
-0.58
-0.59
-0.6
-0.615
-0.645
-0.645
-0.675
-0.65
-0.67
-0.695
-0.695
-0.73
-0.755
-0.78
-0.77
-0.78
-0.805
-0.835
-0.83
-0.815
-0.82
-0.795
-0.815
-0.795
-0.79
-0.795
-0.79
-0.805
-0.81
-0.835
-0.845
-0.83
-0.825
-0.82
-0.835
-0.875
-0.915
-0.96
-1.005
-1.03
-1.02
-0.98
-0.895
-0.74
-0.55
-0.33
-0.135
0.05
0.255
0.445
0.63
0.775
0.87
0.94
0.98
0.97
0.945
0.905
0.815
0.66
0.43
0.11
-0.215
-0.505
-0.695
-0.77
-0.775
-0.715
-0.655
-0.625
-0.665
-0.68
-0.73
-0.81
-0.83
-0.875
-0.895
-0.905
-0.905
-0.915
-0.905
-0.885
-0.87
-0.85
-0.83
-0.85
-0.855
-0.86
-0.88
-0.865
-0.87
-0.865
-0.87
-0.865
-0.86
-0.855
-0.865
-0.89
-0.885
-0.9
-0.9
-0.89
-0.895
-0.885
-0.885
-0.88
-0.88
-0.87
-0.865
-0.86
-0.88
-0.925
-0.92
-0.92
-0.925
-0.915
-0.915
-0.89
-0.89
-0.875
-0.865
-0.865
-0.875
-0.885
-0.905
-0.9
-0.895
-0.9
-0.89
-0.88
-0.865
-0.86
-0.835
-0.84
-0.835
-0.84
-0.85
-0.845
-0.835
-0.825
-0.82
-0.815
-0.81
-0.78
-0.76
-0.76
-0.765
-0.765
-0.75
-0.74
-0.74
-0.745
-0.745
-0.73
-0.72
-0.69
-0.68
-0.66
-0.68
-0.68
-0.705
-0.71
-0.71
-0.72
-0.715
-0.73
-0.72
-0.685
-0.69
-0.685
-0.68
-0.71
-0.745
-0.73
-0.72
-0.71
-0.705
-0.71
-0.705
-0.695
-0.685
-0.695
-0.715
-0.74
-0.75
-0.75
-0.76
-0.745
-0.77
-0.765
-0.755
-0.76
-0.74
-0.74
-0.735
-0.755
-0.775
-0.8
-0.765
-0.775
-0.775
-0.78
-0.775
-0.775
-0.78
-0.765
-0.76
-0.76
-0.775
-0.775
-0.785
-0.785
-0.78
-0.77
-0.77
-0.755
-0.755
-0.74
-0.74
-0.74
-0.74
-0.75
-0.765
-0.75
-0.75
-0.75
-0.735
-0.73
-0.715
-0.715
-0.7
-0.72
-0.735
-0.74
-0.755
-0.73
-0.715
-0.695
-0.67
-0.675
-0.675
-0.675
-0.67
-0.67
-0.66
-0.66
-0.64
-0.61
-0.59
-0.565
-0.54
-0.53
-0.515
-0.485
-0.47
-0.465
-0.48
-0.485
-0.495
-0.51
-0.49
-0.475
-0.47
-0.49
-0.505
-0.525
-0.525
-0.54
-0.55
-0.585
-0.615
-0.63
-0.655
-0.655
-0.66
-0.665
-0.69
-0.71
-0.7
-0.725
-0.71
-0.75
-0.745
-0.735
-0.74
-0.73
-0.725
-0.725
-0.735
-0.725
-0.705
-0.715
-0.705
-0.745
-0.735
-0.74
-0.76
-0.785
-0.86
-0.915
-0.97
-0.99
-0.95
-0.89
-0.77
-0.625
-0.46
-0.25
-0.035
0.155
0.335
0.505
0.675
0.795
0.915
0.98
1.015
0.99
0.975
0.9
0.805
0.62
0.365
0.02
-0.3
-0.535
-0.685
-0.71
-0.715
-0.65
-0.6
-0.56
-0.545
-0.555
-0.595
-0.67
-0.72
-0.775
-0.795
-0.795
-0.79
-0.8
-0.81
-0.83
-0.82
-0.81
-0.805
-0.78
-0.77
-0.775
-0.77
-0.775
-0.775
-0.785
-0.79
-0.82
-0.815
-0.805
-0.785
-0.765
-0.775
-0.79
-0.81
-0.795
-0.795
-0.795
-0.8
-0.81
-0.8
-0.8
-0.79
-0.8
-0.805
-0.815
-0.84
-0.83
-0.815
-0.805
-0.805
-0.825
-0.795
-0.785
-0.785
-0.765
-0.77
-0.775
-0.775
-0.79
-0.785
-0.79
-0.795
-0.8
-0.785
-0.78
-0.765
-0.745
-0.745
-0.745
-0.765
-0.75
-0.745
-0.755
-0.77
-0.765
-0.765
-0.745
-0.705
-0.71
-0.695
-0.695
-0.705
-0.7
-0.68
-0.71
-0.695
-0.695
-0.715
-0.68
-0.645
-0.63
-0.605
-0.615
-0.615
-0.615
-0.63
-0.615
-0.645
-0.645
-0.65
-0.625
-0.61
-0.605
-0.59
-0.61
-0.625
-0.625
-0.63
-0.635
-0.645
-0.66
-0.655
-0.645
-0.65
-0.64
-0.635
-0.635
-0.66
-0.66
-0.675
-0.695
-0.695
-0.7
-0.695
-0.71
-0.72
-0.735
-0.73
-0.705
-0.7
-0.705
-0.72
-0.73
-0.73
-0.74
-0.725
-0.715
-0.705
-0.725
-0.715
-0.715
-0.705
-0.705
-0.71
-0.73
-0.735
-0.735
-0.73
-0.705
-0.695
-0.695
-0.695
-0.685
-0.7
-0.695
-0.69
-0.71
-0.71
-0.725
-0.715
-0.69
-0.66
-0.67
-0.655
-0.67
-0.67
-0.66
-0.675
-0.675
-0.695
-0.695
-0.7
-0.66
-0.64
-0.625
-0.62
-0.615
-0.61
-0.585
-0.565
-0.565
-0.545
-0.535
-0.5
-0.48
-0.475
-0.445
-0.44
-0.43
-0.465
-0.49
-0.515
-0.515
-0.52
-0.53
-0.535
-0.52
-0.515
-0.525
-0.525
-0.545
-0.575
-0.59
-0.645
-0.67
-0.68
-0.69
-0.695
-0.69
-0.705
-0.71
-0.695
-0.71
-0.705
-0.725
-0.735
-0.755
-0.74
-0.73
-0.74
-0.725
-0.725
-0.725
-0.725
-0.715
-0.73
-0.745
-0.79
-0.83
-0.895
-0.925
-0.965
-0.925
-0.875
-0.75
-0.565
-0.365
-0.16
0.035
0.21
0.375
0.545
0.7
0.825
0.925
0.975
0.985
0.96
0.915
0.84
0.735
0.54
0.265
-0.08
-0.415
-0.655
-0.77
-0.795
-0.735
-0.655
-0.63
-0.64
-0.685
-0.73
-0.755
-0.805
-0.84
-0.86
-0.865
-0.855
-0.84
-0.83
-0.83
-0.85
-0.855
-0.875
-0.875
-0.87
-0.885
-0.855
-0.87
-0.865
-0.86
-0.82
-0.835
-0.85
-0.86
-0.875
-0.865
-0.87
-0.875
-0.875
-0.885
-0.865
-0.84
-0.845
-0.845
-0.845
-0.875
-0.87
-0.88
-0.875
-0.865
-0.88
-0.895
-0.905
-0.89
-0.85
-0.855
-0.86
-0.88
-0.895
-0.91
-0.9
-0.9
-0.89
-0.895
-0.87
-0.865
-0.845
-0.86
-0.87
-0.88
-0.885
-0.87
-0.87
-0.88
-0.87
-0.875
-0.875
-0.845
-0.815
-0.84
-0.82
-0.835
-0.825
-0.82
-0.815
-0.825
-0.825
-0.805
-0.78
-0.755
-0.745
-0.745
-0.75
-0.77
-0.765
-0.765
-0.77
-0.77
-0.765
-0.74
-0.74
-0.735
-0.74
-0.735
-0.745
-0.75
-0.745
-0.765
-0.75
-0.755
-0.78
-0.785
-0.77
-0.75
-0.73
-0.735
-0.76
-0.78
-0.78
-0.77
-0.785
-0.805
-0.805
-0.805
-0.79
-0.765
-0.77
-0.77
-0.795
-0.8
-0.82
-0.825
-0.825
-0.845
-0.85
-0.84
-0.835
-0.82
-0.815
-0.82
-0.84
-0.855
-0.86
-0.855
-0.85
-0.87
-0.875
-0.87
-0.845
-0.81
-0.82
-0.82
-0.83
-0.84
-0.835
-0.845
-0.855
-0.855
-0.855
-0.845
-0.845
-0.825
-0.815
-0.83
-0.845
-0.845
-0.845
-0.84
-0.84
-0.855
-0.87
-0.835
-0.815
-0.81
-0.79
-0.8
-0.805
-0.8
-0.805
-0.805
-0.785
-0.8
-0.8
-0.79
-0.76
-0.74
-0.695
-0.685
-0.665
-0.68
-0.645
-0.63
-0.605
-0.61
-0.605
-0.605
-0.59
-0.59
-0.58
-0.605
-0.61
-0.645
-0.66
-0.665
-0.68
-0.7
-0.7
-0.68
-0.68
-0.7
-0.73
-0.765
-0.785
-0.815
-0.84
-0.835
-0.85
-0.87
-0.875
-0.865
-0.86
-0.87
-0.86
-0.86
-0.865
-0.85
-0.85
-0.865
-0.87
-0.885
-0.87
-0.885
-0.89
-0.89
-0.925
-0.965
-1.01
-1.05
-1.07
-1.05
-0.99
-0.875
-0.71
-0.505
-0.295
-0.095
0.1
0.275
0.47
0.63
0.765
0.845
0.89
0.89
0.855
0.825
0.76
0.68
0.555
0.325
0.02
-0.32
-0.585
-0.765
-0.865
-0.88
-0.815
-0.77
-0.715
-0.725
-0.765
-0.815
-0.87
-0.92
-0.95
-0.98
-0.98
-1.0
-1.005
-0.965
-0.945
-0.955
-0.96
-0.95
-0.95
-0.94
-0.94
-0.945
-0.96
-0.97
-0.97
-0.955
-0.95
-0.95
-0.955
-0.94
-0.96
-0.955
-0.975
-0.965
-0.97
-0.975
-0.97
-0.955
-0.96
-0.955
-0.945
-0.96
-0.945
-0.94
-0.96
-0.97
-0.98
-0.97
-0.96
-0.945
-0.94
-0.945
-0.96
-0.955
-0.935
-0.94
-0.935
-0.955
-0.965
-0.97
-0.955
-0.945
-0.935
-0.935
-0.935
-0.92
-0.92
-0.92
-0.915
-0.915
-0.925
-0.94
-0.915
-0.89
-0.87
-0.885
-0.88
-0.865
-0.86
-0.845
-0.86
-0.87
-0.87
-0.88
-0.855
-0.84
-0.83
-0.815
-0.81
-0.82
-0.81
-0.785
-0.79
-0.79
-0.8
-0.8
-0.805
-0.8
-0.78
-0.785
-0.79
-0.805
-0.795
-0.785
-0.8
-0.805
-0.805
-0.805
-0.82
-0.805
-0.815
-0.81
-0.825
-0.83
-0.81
-0.82
-0.835
-0.85
-0.84
-0.855
-0.86
-0.85
-0.85
-0.845
-0.85
-0.865
-0.86
-0.86
-0.865
-0.875
-0.9
-0.915
-0.91
-0.905
-0.9
-0.895
-0.895
-0.91
-0.915
-0.91
-0.915
-0.92
-0.925
-0.92
-0.92
-0.895
-0.885
-0.885
-0.88
-0.905
-0.88
-0.89
-0.88
-0.895
-0.91
-0.925
-0.92
-0.9
-0.885
-0.865
-0.87
-0.87
-0.865
-0.865
-0.865
-0.865
-0.875
-0.875
-0.885
-0.855
-0.83
-0.825
-0.82
-0.795
-0.805
-0.805
-0.835
-0.85
-0.84
-0.82
-0.79
-0.755
-0.725
-0.715
-0.7
-0.67
-0.645
-0.625
-0.63
-0.64
-0.655
-0.66
-0.665
-0.635
-0.62
-0.625
-0.63
-0.65
-0.66
-0.685
-0.69
-0.7
-0.715
-0.735
-0.73
-0.735
-0.75
-0.765
-0.775
-0.805
-0.825
-0.825
-0.85
-0.85
-0.88
-0.885
-0.895
-0.905
-0.885
-0.875
-0.87
-0.87
-0.88
-0.875
-0.88
-0.885
-0.88
-0.885
-0.895
-0.905
-0.885
-0.885
-0.885
-0.915
-0.94
-1.0
-1.055
-1.105
-1.115
-1.095
-1.02
-0.88
-0.68
-0.465
-0.23
-0.02
0.16
0.36
0.53
0.705
0.825
0.9
0.945
0.96
0.93
0.87
0.76
0.595
0.35
0.02
-0.325
-0.585
-0.755
-0.835
-0.855
-0.78
-0.705
-0.665
-0.66
-0.7
-0.755
-0.805
-0.89
-0.935
-0.98
-1.005
-0.99
-0.995
-0.97
-0.965
-0.945
-0.95
-0.945
-0.95
-0.93
-0.925
-0.925
-0.945
-0.96
-0.96
-0.945
-0.945
-0.93
-0.93
-0.965
-0.965
-0.96
-0.96
-0.95
-0.955
-0.95
-0.95
-0.95
-0.93
-0.925
-0.915
-0.92
-0.92
-0.94
-0.945
-0.945
-0.97
-0.96
-0.965
-0.95
-0.925
-0.925
-0.92
-0.93
-0.935
-0.94
-0.94
-0.955
-0.97
-0.975
-0.965
-0.935
-0.91
-0.915
-0.915
-0.91
-0.92
-0.905
-0.895
-0.9
-0.915
-0.915
-0.9
-0.885
-0.855
-0.835
-0.825
-0.845
-0.85
-0.845
-0.845
-0.835
-0.825
-0.83
-0.82
-0.82
-0.785
-0.775
-0.75
-0.755
-0.75
-0.77
-0.765
-0.755
-0.755
-0.76
-0.765
-0.75
-0.755
-0.73
-0.73
-0.73
-0.745
-0.765
-0.765
-0.76
-0.76
-0.765
-0.76
-0.76
-0.76
-0.745
-0.745
-0.75
-0.76
-0.765
-0.775
-0.805
-0.785
-0.785
-0.79
-0.79
-0.775
-0.77
-0.75
-0.775
-0.785
-0.795
-0.81
-0.825
-0.825
-0.825
-0.825
-0.82
-0.825
-0.84
-0.815
-0.81
-0.825
-0.85
-0.85
-0.85
-0.865
-0.855
-0.84
-0.84
-0.84
-0.845
-0.81
-0.81
-0.825
-0.835
-0.83
-0.855
-0.85
-0.835
-0.82
-0.825
-0.815
-0.805
-0.8
-0.785
-0.785
-0.81
-0.825
-0.83
-0.83
-0.81
-0.78
-0.78
-0.765
-0.775
-0.78
-0.77
-0.75
-0.745
-0.76
-0.765
-0.755
-0.735
-0.705
-0.675
-0.66
-0.63
-0.62
-0.595
-0.595
-0.6
-0.585
-0.59
-0.59
-0.58
-0.58
-0.555
-0.56
-0.565
-0.56
-0.565
-0.565
-0.58
-0.61
-0.615
-0.64
-0.65
-0.655
-0.67
-0.715
-0.725
-0.735
-0.745
-0.755
-0.78
-0.805
-0.815
-0.83
-0.835
-0.82
-0.79
-0.795
-0.8
-0.805
-0.82
-0.82
-0.835
-0.82
-0.84
-0.845
-0.85
-0.845
-0.835
-0.825
-0.82
-0.835
-0.885
-0.925
-0.985
-1.025
-1.05
-1.04
-0.99
-0.885
-0.72
-0.54
-0.34
-0.125
0.05
0.21
0.375
0.525
0.69
0.8
0.89
0.94
0.945
0.955
0.91
0.82
0.67
0.465
0.155
-0.18
-0.49
-0.7
-0.79
-0.795
-0.73
-0.66
-0.635
-0.635
-0.67
-0.71
-0.77
-0.82
-0.865
-0.9
-0.91
-0.91
-0.91
-0.885
-0.885
-0.875
-0.865
-0.86
-0.86
-0.865
-0.87
-0.875
-0.88
-0.865
-0.845
-0.845
-0.85
-0.855
-0.855
-0.855
-0.85
-0.88
-0.92
-0.91
-0.91
-0.885
-0.88
-0.865
-0.87
-0.86
-0.88
-0.87
-0.87
-0.89
-0.895
-0.91
-0.925
-0.905
-0.895
-0.875
-0.86
-0.86
-0.87
-0.865
-0.885
-0.89
-0.9
-0.91
-0.91
-0.895
-0.875
-0.86
-0.85
-0.84
-0.855
-0.85
-0.85
-0.83
-0.845
-0.845
-0.865
-0.86
-0.83
-0.805
-0.795
-0.79
-0.8
-0.8
-0.8
-0.795
-0.785
-0.79
-0.775
-0.76
-0.745
-0.725
-0.725
-0.715
-0.71
-0.71
-0.705
-0.715
-0.715
-0.725
-0.73
-0.71
-0.705
-0.69
-0.7
-0.695
-0.7
-0.695
-0.71
-0.715
-0.72
-0.745
-0.73
-0.72
-0.74
-0.73
-0.725
-0.72
-0.73
-0.735
-0.745
-0.755
-0.77
-0.755
-0.77
-0.76
-0.75
-0.75
-0.765
-0.775
-0.77
-0.77
-0.785
-0.795
-0.81
-0.83
-0.85
-0.825
-0.815
-0.805
-0.81
-0.805
-0.83
-0.805
-0.8
-0.81
-0.84
-0.84
-0.845
-0.82
-0.81
-0.795
-0.795
-0.8
-0.805
-0.79
-0.79
-0.815
-0.825
-0.815
-0.805
-0.81
-0.78
-0.785
-0.78
-0.765
-0.775
-0.765
-0.78
-0.79
-0.79
-0.805
-0.775
-0.77
-0.765
-0.76
-0.74
-0.725
-0.715
-0.685
-0.695
-0.705
-0.68
-0.665
-0.65
-0.63
-0.6
-0.565
-0.555
-0.545
-0.54
-0.54
-0.555
-0.565
-0.575
-0.58
-0.585
-0.59
-0.605
-0.615
-0.6
-0.6
-0.6
-0.62
-0.65
-0.69
-0.725
-0.745
-0.76
-0.76
-0.76
-0.78
-0.785
-0.79
-0.8
-0.805
-0.83
-0.835
-0.835
-0.845
-0.835
-0.855
-0.84
-0.85
-0.825
-0.82
-0.82
-0.835
-0.84
-0.84
-0.86
-0.875
-0.915
-0.94
-0.995
-1.035
-1.025
-0.965
-0.85
-0.68
-0.495
-0.24
-0.01
0.195
0.385
0.57
0.72
0.83
0.895
0.945
0.915
0.86
0.805
0.745
0.66
0.55
0.325
0.01
-0.32
-0.58
-0.755
-0.815
-0.805
-0.76
-0.715
-0.705
-0.725
-0.75
-0.795
-0.85
-0.87
-0.9
-0.915
-0.93
-0.92
-0.92
-0.93
-0.955
-0.975
-0.975
-0.97
-0.95
-0.925
-0.93
-0.925
-0.91
-0.94
-0.935
-0.955
-0.95
-0.975
-0.98
-0.96
-0.945
-0.935
-0.95
-0.95
-0.955
-0.94
-0.94
-0.93
-0.955
-0.975
-0.985
-0.97
-0.96
-0.965
-0.955
-0.955
-0.95
-0.95
-0.945
-0.955
-0.955
-0.975
-0.975
-0.97
-0.96
-0.97
-0.97
-0.955
-0.94
-0.96
-0.955
-0.945
-0.97
-0.97
-0.975
-0.955
-0.935
-0.925
-0.935
-0.925
-0.915
-0.91
-0.905
-0.925
-0.94
-0.92
-0.92
-0.9
-0.88
-0.875
-0.87
-0.86
-0.845
-0.825
-0.835
-0.825
-0.835
-0.85
-0.845
-0.845
-0.825
-0.825
-0.81
-0.8
-0.78
-0.78
-0.79
-0.795
-0.82
-0.81
-0.815
-0.81
-0.8
-0.82
-0.81
-0.815
-0.81
-0.81
-0.795
-0.81
-0.83
-0.85
-0.845
-0.85
-0.85
-0.84
-0.85
-0.855
-0.83
-0.855
-0.85
-0.865
-0.89
-0.905
-0.9
-0.905
-0.91
-0.91
-0.91
-0.905
-0.895
-0.905
-0.925
-0.935
-0.95
-0.945
-0.94
-0.945
-0.95
-0.96
-0.97
-0.945
-0.915
-0.915
-0.92
-0.925
-0.945
-0.965
-0.96
-0.94
-0.925
-0.915
-0.925
-0.92
-0.91
-0.915
-0.9
-0.925
-0.92
-0.925
-0.93
-0.925
-0.905
-0.9
-0.885
-0.895
-0.875
-0.88
-0.875
-0.88
-0.89
-0.905
-0.895
-0.88
-0.855
-0.845
-0.86
-0.87
-0.845
-0.84
-0.82
-0.805
-0.785
-0.785
-0.775
-0.745
-0.72
-0.705
-0.67
-0.67
-0.665
-0.655
-0.67
-0.685
-0.71
-0.72
-0.705
-0.72
-0.73
-0.73
-0.74
-0.725
-0.74
-0.755
-0.78
-0.815
-0.865
-0.87
-0.905
-0.895
-0.905
-0.91
-0.91
-0.905
-0.9
-0.91
-0.92
-0.925
-0.95
-0.955
-0.95
-0.96
-0.945
-0.96
-0.935
-0.94
-0.935
-0.945
-0.96
-0.985
-0.99
-1.02
-1.075
-1.105
-1.155
-1.16
-1.14
-1.07
-0.925
-0.77
-0.57
-0.38
-0.185
0.0
0.2
0.385
0.56
0.69
0.775
0.845
0.84
0.8
0.745
0.655
0.535
0.34
0.06
-0.285
-0.615
-0.835
-0.95
-0.95
-0.9
-0.83
-0.805
-0.815
-0.84
-0.89
-0.96
-1.005
-1.025
-1.065
-1.04
-1.025
-1.01
-1.02
-1.035
-1.055
-1.05
-1.035
-1.04
-1.035
-1.025
-1.02
-1.025
-1.02
-1.005
-1.025
-1.02
-1.03
-1.035
-1.04
-1.04
-1.045
-1.03
-1.035
-1.03
-1.05
-1.02
-1.025
-1.045
-1.035
-1.045
-1.065
-1.055
-1.03
-1.03
-1.03
-1.045
-1.04
-1.04
-1.025
-1.01
-1.02
-1.03
-1.04
-1.035
-1.035
-1.03
-1.025
-1.025
-1.015
-0.99
-0.995
-0.995
-1.005
-1.02
-1.02
-1.015
-1.01
-1.005
-1.0
-0.99
-0.985
-0.985
-0.965
-0.965
-0.96
-0.98
-0.965
-0.98
-0.97
-0.965
-0.94
-0.94
-0.925
-0.895
-0.9
-0.875
-0.9
-0.905
-0.895
-0.89
-0.895
-0.895
-0.885
-0.87
-0.87
-0.85
-0.865
-0.855
-0.88
-0.89
-0.895
-0.9
-0.9
-0.895
-0.895
-0.885
-0.875
-0.86
-0.865
-0.87
-0.895
-0.9
-0.91
-0.91
-0.905
-0.91
-0.905
-0.905
-0.905
-0.91
-0.905
-0.91
-0.925
-0.945
-0.95
-0.965
-0.975
-0.97
-0.97
-0.97
-0.965
-0.94
-0.95
-0.975
-0.975
-0.99
-0.985
-0.995
-0.98
-0.98
-0.965
-0.98
-0.965
-0.975
-0.96
-0.97
-0.965
-0.98
-0.985
-0.98
-0.975
-0.965
-0.96
-0.96
-0.94
-0.94
-0.945
-0.94
-0.965
-0.965
-0.97
-0.975
-0.95
-0.955
-0.945
-0.935
-0.93
-0.925
-0.915
-0.905
-0.925
-0.93
-0.91
-0.895
-0.895
-0.89
-0.89
-0.88
-0.86
-0.825
-0.81
-0.785
-0.8
-0.78
-0.76
-0.74
-0.715
-0.695
-0.705
-0.705
-0.715
-0.695
-0.685
-0.71
-0.695
-0.74
-0.735
-0.775
-0.75
-0.77
-0.775
-0.765
-0.78
-0.785
-0.815
-0.83
-0.86
-0.89
-0.91
-0.9
-0.935
-0.93
-0.93
-0.94
-0.935
-0.92
-0.925
-0.925
-0.96
-0.955
-0.975
-0.96
-0.955
-0.94
-0.95
-0.94
-0.95
-0.94
-0.96
-0.995
-1.035
-1.095
-1.145
-1.18
-1.165
-1.12
-1.03
-0.895
-0.735
-0.54
-0.34
-0.155
0.015
0.155
0.295
0.465
0.61
0.72
0.79
0.825
0.82
0.785
0.71
0.63
0.53
0.335
0.07
-0.23
-0.535
-0.75
-0.87
-0.905
-0.895
-0.82
-0.775
-0.76
-0.77
-0.82
-0.89
-0.95
-0.995
-1.025
-1.04
-1.02
-1.02
-1.01
-1.02
-1.02
-1.03
-1.035
-1.035
-1.045
-1.06
-1.045
-1.015
-0.99
-0.995
-0.99
-1.01
-1.015
-1.005
-1.015
-1.025
-1.06
-1.07
-1.05
-1.035
-1.015
-1.015
-1.01
-1.01
-1.015
-1.015
-1.01
-1.015
-1.025
-1.03
-1.03
-1.01
-1.0
-1.0
-0.985
-1.005
-1.02
-1.025
-1.045
-1.025
-1.025
-1.04
-1.055
-1.04
-1.03
-1.0
-0.995
-1.0
-1.005
-1.02
-1.025
-1.035
-1.035
-1.04
-1.025
-1.02
-0.99
-0.96
-0.95
-0.96
-0.98
-0.97
-0.965
-0.96
-0.965
-0.955
-0.96
-0.95
-0.925
-0.9
-0.88
-0.875
-0.89
-0.9
-0.905
-0.885
-0.87
-0.87
-0.88
-0.87
-0.86
-0.84
-0.82
-0.825
-0.815
-0.83
-0.85
-0.85
-0.845
-0.855
-0.855
-0.87
-0.85
-0.825
-0.825
-0.84
-0.84
-0.855
-0.85
-0.85
-0.87
-0.865
-0.885
-0.89
-0.88
-0.865
-0.855
-0.855
-0.865
-0.88
-0.89
-0.905
-0.9
-0.895
-0.885
-0.91
-0.905
-0.915
-0.89
-0.895
-0.925
-0.92
-0.94
-0.945
-0.935
-0.935
-0.935
-0.94
-0.93
-0.94
-0.925
-0.92
-0.93
-0.94
-0.965
-0.955
-0.935
-0.935
-0.935
-0.915
-0.93
-0.93
-0.89
-0.895
-0.895
-0.905
-0.93
-0.945
-0.935
-0.925
-0.935
-0.93
-0.925
-0.905
-0.89
-0.875
-0.885
-0.89
-0.9
-0.9
-0.91
-0.895
-0.9
-0.895
-0.88
-0.86
-0.845
-0.825
-0.84
-0.845
-0.865
-0.855
-0.825
-0.82
-0.8
-0.78
-0.755
-0.73
-0.7
-0.65
-0.635
-0.645
-0.69
-0.68
-0.685
-0.68
-0.675
-0.675
-0.68
-0.68
-0.675
-0.68
-0.685
-0.71
-0.725
-0.755
-0.76
-0.775
-0.785
-0.8
-0.835
-0.845
-0.845
-0.86
-0.86
-0.875
-0.885
-0.92
-0.925
-0.945
-0.92
-0.905
-0.905
-0.91
-0.91
-0.89
-0.9
-0.905
-0.9
-0.92
-0.925
-0.925
-0.935
-0.915
-0.92
-0.94
-0.975
-1.015
-1.085
-1.105
-1.125
-1.09
-1.025
-0.895
-0.72
-0.495
-0.275
-0.07
0.135
0.315
0.52
0.685
0.815
0.885
0.91
0.9
0.845
0.75
0.555
0.245
-0.07
-0.385
-0.63
-0.795
-0.86
-0.835
-0.785
-0.72
-0.7
-0.715
-0.765
-0.82
-0.87
-0.915
-0.935
-0.96
-0.98
-0.98
-0.995
-0.985
-0.98
-0.965
-0.95
-0.945
-0.94
-0.925
-0.92
-0.935
-0.955
-0.945
-0.97
-0.96
-0.955
-0.96
-0.955
-0.96
-0.95
-0.965
-0.95
-0.95
-0.95
-0.97
-0.975
-0.985
-0.98
-0.96
-0.955
-0.99
-0.975
-0.965
-0.96
-0.955
-0.965
-0.975
-0.99
-0.97
-0.95
-0.96
-0.94
-0.955
-0.945
-0.945
-0.935
-0.945
-0.95
-0.96
-0.965
-0.965
-0.95
-0.935
-0.925
-0.925
-0.895
-0.895
-0.9
-0.91
-0.905
-0.905
-0.895
-0.895
-0.87
-0.86
-0.87
-0.87
-0.84
-0.83
-0.825
-0.83
-0.84
-0.835
-0.825
-0.82
-0.81
-0.795
-0.78
-0.78
-0.76
-0.75
-0.755
-0.76
-0.765
-0.775
-0.79
-0.78
-0.765
-0.765
-0.775
-0.78
-0.79
-0.79
-0.79
-0.78
-0.78
-0.8
-0.805
-0.8
-0.795
-0.775
-0.765
-0.775
-0.785
-0.78
-0.78
-0.79
-0.805
-0.82
-0.835
-0.845
-0.835
-0.805
-0.8
-0.815
-0.815
-0.845
-0.84
-0.85
-0.855
-0.865
-0.865
-0.885
-0.885
-0.89
-0.885
-0.865
-0.855
-0.85
-0.835
-0.85
-0.86
-0.88
-0.87
-0.87
-0.87
-0.875
-0.875
-0.865
-0.845
-0.83
-0.82
-0.81
-0.825
-0.855
-0.86
-0.85
-0.845
-0.855
-0.845
-0.845
-0.835
-0.82
-0.825
-0.815
-0.82
-0.84
-0.855
-0.84
-0.81
-0.79
-0.775
-0.765
-0.765
-0.76
-0.76
-0.755
-0.765
-0.75
-0.735
-0.72
-0.68
-0.66
-0.65
-0.615
-0.605
-0.595
-0.585
-0.58
-0.58
-0.59
-0.61
-0.61
-0.6
-0.61
-0.6
-0.61
-0.63
-0.64
-0.64
-0.65
-0.665
-0.69
-0.725
-0.75
-0.75
-0.77
-0.775
-0.785
-0.79
-0.79
-0.79
-0.79
-0.825
-0.835
-0.855
-0.87
-0.865
-0.86
-0.84
-0.84
-0.845
-0.85
-0.84
-0.835
-0.84
-0.85
-0.88
-0.9
-0.91
-0.93
-0.92
-0.985
-1.045
-1.09
-1.095
-1.06
-1.005
-0.895
-0.775
-0.59
-0.395
-0.19
0.0
0.16
0.3
0.43
0.575
0.73
0.805
0.875
0.895
0.87
0.83
0.77
0.69
0.545
0.28
-0.06
-0.38
-0.625
-0.78
-0.825
-0.815
-0.78
-0.735
-0.705
-0.7
-0.73
-0.77
-0.815
-0.87
-0.915
-0.955
-0.96
-0.965
-0.97
-0.965
-0.95
-0.925
-0.93
-0.92
-0.935
-0.925
-0.925
-0.92
-0.92
-0.95
-0.965
-0.95
-0.955
-0.95
-0.92
-0.92
-0.925
-0.925
-0.955
-0.955
-0.945
-0.935
-0.94
-0.945
-0.95
-0.94
-0.925
-0.915
-0.925
-0.93
-0.94
-0.94
-0.945
-0.945
-0.965
-0.965
-0.97
-0.945
-0.945
-0.925
-0.905
-0.905
-0.92
-0.94
-0.95
-0.95
-0.95
-0.95
-0.95
-0.945
-0.935
-0.905
-0.885
-0.89
-0.88
-0.915
-0.905
-0.915
-0.905
-0.89
-0.89
-0.885
-0.86
-0.86
-0.84
-0.84
-0.835
-0.85
-0.845
-0.85
-0.835
-0.82
-0.815
-0.815
-0.805
-0.795
-0.77
-0.765
-0.775
-0.79
-0.795
-0.78
-0.785
-0.78
-0.78
-0.775
-0.775
-0.76
-0.75
-0.745
-0.755
-0.765
-0.78
-0.785
-0.785
-0.785
-0.79
-0.795
-0.795
-0.775
-0.775
-0.78
-0.785
-0.795
-0.82
-0.845
-0.835
-0.825
-0.855
-0.83
-0.825
-0.805
-0.81
-0.805
-0.83
-0.86
-0.87
-0.89
-0.88
-0.87
-0.86
-0.875
-0.875
-0.86
-0.855
-0.85
-0.86
-0.865
-0.87
-0.88
-0.88
-0.86
-0.865
-0.855
-0.855
-0.855
-0.86
-0.86
-0.84
-0.845
-0.87
-0.865
-0.855
-0.865
-0.865
-0.84
-0.84
-0.825
-0.815
-0.82
-0.825
-0.84
-0.84
-0.845
-0.83
-0.835
-0.835
-0.835
-0.83
-0.835
-0.82
-0.81
-0.815
-0.815
-0.825
-0.81
-0.795
-0.79
-0.78
-0.77
-0.755
-0.735
-0.695
-0.68
-0.675
-0.67
-0.665
-0.625
-0.615
-0.6
-0.595
-0.61
-0.6
-0.6
-0.6
-0.585
-0.605
-0.64
-0.65
-0.675
-0.69
-0.68
-0.685
-0.68
-0.7
-0.715
-0.74
-0.755
-0.775
-0.805
-0.84
-0.85
-0.865
-0.865
-0.855
-0.865
-0.855
-0.855
-0.855
-0.865
-0.86
-0.87
-0.885
-0.89
-0.895
-0.885
-0.87
-0.875
-0.895
-0.88
-0.895
-0.9
-0.93
-0.975
-1.05
-1.115
-1.125
-1.085
-1.02
-0.89
-0.725
-0.52
-0.3
-0.1
0.09
0.265
0.43
0.57
0.72
0.815
0.88
0.895
0.88
0.835
0.765
0.63
0.41
0.1
-0.24
-0.54
-0.745
-0.88
-0.885
-0.855
-0.8
-0.765
-0.73
-0.75
-0.795
-0.885
-0.93
-0.98
-1.005
-1.01
-1.005
-1.0
