Lead II
-0.75
-0.755
-0.755
-0.74
-0.725
-0.715
-0.705
-0.7
-0.7
-0.7
-0.705
-0.705
-0.715
-0.705
-0.705
-0.7
-0.685
-0.685
-0.685
-0.68
-0.665
-0.665
-0.675
-0.685
-0.69
-0.695
-0.685
-0.69
-0.675
-0.69
-0.69
-0.67
-0.67
-0.675
-0.685
-0.695
-0.69
-0.69
-0.695
-0.71
-0.695
-0.685
-0.68
-0.68
-0.685
-0.7
-0.705
-0.715
-0.715
-0.72
-0.715
-0.725
-0.72
-0.71
-0.71
-0.7
-0.7
-0.705
-0.705
-0.72
-0.725
-0.725
-0.73
-0.725
-0.725
-0.715
-0.705
-0.71
-0.705
-0.705
-0.715
-0.73
-0.72
-0.735
-0.725
-0.74
-0.72
-0.715
-0.7
-0.685
-0.695
-0.69
-0.685
-0.675
-0.675
-0.665
-0.655
-0.645
-0.63
-0.615
-0.6
-0.59
-0.575
-0.56
-0.57
-0.55
-0.54
-0.55
-0.555
-0.565
-0.56
-0.565
-0.565
-0.545
-0.545
-0.545
-0.55
-0.56
-0.575
-0.59
-0.605
-0.61
-0.625
-0.64
-0.65
-0.66
-0.67
-0.69
-0.695
-0.71
-0.71
-0.71
-0.715
-0.705
-0.705
-0.705
-0.695
-0.69
-0.685
-0.695
-0.7
-0.705
-0.72
-0.725
-0.73
-0.715
-0.715
-0.7
-0.695
-0.69
-0.685
-0.69
-0.69
-0.69
-0.695
-0.7
-0.69
-0.685
-0.68
-0.67
-0.655
-0.625
-0.62
-0.62
-0.61
-0.59
-0.545
-0.455
-0.32
-0.11
0.185
0.555
0.955
1.365
1.655
1.82
1.76
1.495
1.025
0.385
-0.255
-0.895
-1.345
-1.505
-1.435
-1.23
-0.98
-0.75
-0.58
-0.5
-0.48
-0.495
-0.525
-0.56
-0.57
-0.575
-0.57
-0.575
-0.565
-0.555
-0.55
-0.555
-0.55
-0.55
-0.565
-0.56
-0.55
-0.55
-0.535
-0.545
-0.525
-0.53
-0.535
-0.54
-0.54
-0.54
-0.54
-0.535
-0.535
-0.53
-0.52
-0.505
-0.51
-0.505
-0.51
-0.51
-0.515
-0.52
-0.525
-0.52
-0.515
-0.515
-0.51
-0.5
-0.5
-0.495
-0.5
-0.495
-0.505
-0.51
-0.505
-0.505
-0.5
-0.49
-0.495
-0.485
-0.475
-0.47
-0.47
-0.49
-0.48
-0.5
-0.5
-0.505
-0.485
-0.465
-0.465
-0.455
-0.455
-0.46
-0.46
-0.455
-0.455
-0.45
-0.44
-0.45
-0.435
-0.43
-0.42
-0.405
-0.415
-0.4
-0.41
-0.42
-0.425
-0.425
-0.425
-0.425
-0.4
-0.385
-0.38
-0.36
-0.36
-0.365
-0.365
-0.37
-0.375
-0.365
-0.37
-0.37
-0.35
-0.335
-0.325
-0.315
-0.32
-0.32
-0.325
-0.325
-0.32
-0.325
-0.335
-0.335
-0.325
-0.315
-0.32
-0.305
-0.305
-0.3
-0.31
-0.31
-0.315
-0.33
-0.315
-0.325
-0.32
-0.325
-0.33
-0.345
-0.355
-0.37
-0.39
-0.41
-0.435
-0.47
-0.465
-0.485
-0.505
-0.485
-0.495
-0.51
-0.515
-0.535
-0.545
-0.555
-0.56
-0.58
-0.57
-0.585
-0.58
-0.585
-0.57
-0.565
-0.58
-0.58
-0.58
-0.585
-0.6
-0.595
-0.59
-0.595
-0.585
-0.57
-0.56
-0.56
-0.555
-0.55
-0.57
-0.575
-0.575
-0.565
-0.575
-0.56
-0.555
-0.545
-0.54
-0.525
-0.52
-0.52
-0.535
-0.525
-0.545
-0.545
-0.555
-0.54
-0.53
-0.525
-0.525
-0.515
-0.515
-0.515
-0.515
-0.515
-0.525
-0.53
-0.545
-0.535
-0.53
-0.53
-0.515
-0.51
-0.51
-0.52
-0.525
-0.53
-0.535
-0.545
-0.545
-0.55
-0.545
-0.55
-0.545
-0.53
-0.535
-0.53
-0.535
-0.545
-0.555
-0.555
-0.57
-0.56
-0.55
-0.545
-0.545
-0.535
-0.54
-0.535
-0.54
-0.56
-0.56
-0.57
-0.575
-0.585
-0.58
-0.58
-0.55
-0.545
-0.535
-0.54
-0.545
-0.54
-0.52
-0.51
-0.505
-0.49
-0.485
-0.48
-0.455
-0.445
-0.415
-0.41
-0.4
-0.395
-0.405
-0.42
-0.435
-0.43
-0.425
-0.415
-0.415
-0.405
-0.4
-0.415
-0.415
-0.44
-0.46
-0.475
-0.5
-0.525
-0.55
-0.555
-0.575
-0.565
-0.555
-0.565
-0.575
-0.58
-0.585
-0.59
-0.605
-0.61
-0.61
-0.585
-0.585
-0.585
-0.585
-0.595
-0.61
-0.605
-0.61
-0.615
-0.62
-0.635
-0.635
-0.615
-0.605
-0.595
-0.585
-0.575
-0.575
-0.59
-0.58
-0.575
-0.585
-0.565
-0.55
-0.54
-0.525
-0.52
-0.485
-0.455
-0.39
-0.28
-0.115
0.13
0.46
0.86
1.265
1.61
1.78
1.745
1.435
0.875
0.235
-0.405
-1.045
-1.41
-1.45
-1.295
-1.03
-0.78
-0.565
-0.44
-0.39
-0.385
-0.41
-0.445
-0.48
-0.5
-0.525
-0.515
-0.505
-0.5
-0.48
-0.47
-0.475
-0.47
-0.465
-0.48
-0.475
-0.495
-0.505
-0.495
-0.49
-0.475
-0.46
-0.455
-0.455
-0.46
-0.47
-0.49
-0.485
-0.495
-0.495
-0.49
-0.49
-0.475
-0.475
-0.455
-0.46
-0.465
-0.475
-0.46
-0.465
-0.47
-0.48
-0.47
-0.46
-0.465
-0.45
-0.445
-0.45
-0.455
-0.46
-0.47
-0.475
-0.475
-0.48
-0.48
-0.465
-0.46
-0.45
-0.445
-0.445
-0.445
-0.445
-0.455
-0.47
-0.49
-0.475
-0.47
-0.46
-0.445
-0.43
-0.43
-0.435
-0.425
-0.425
-0.43
-0.43
-0.44
-0.435
-0.435
-0.43
-0.43
-0.41
-0.41
-0.39
-0.39
-0.385
-0.395
-0.41
-0.405
-0.41
-0.4
-0.385
-0.38
-0.365
-0.355
-0.35
-0.36
-0.345
-0.36
-0.365
-0.375
-0.39
-0.385
-0.37
-0.36
-0.35
-0.355
-0.35
-0.34
-0.34
-0.34
-0.36
-0.35
-0.37
-0.36
-0.34
-0.325
-0.325
-0.325
-0.325
-0.34
-0.335
-0.375
-0.39
-0.41
-0.425
-0.435
-0.45
-0.46
-0.48
-0.475
-0.48
-0.5
-0.525
-0.56
-0.57
-0.585
-0.6
-0.61
-0.615
-0.615
-0.615
-0.62
-0.615
-0.63
-0.625
-0.64
-0.64
-0.64
-0.66
-0.65
-0.655
-0.655
-0.655
-0.64
-0.635
-0.625
-0.635
-0.635
-0.635
-0.64
-0.645
-0.635
-0.63
-0.63
-0.615
-0.615
-0.605
-0.625
-0.635
-0.63
-0.62
-0.635
-0.625
-0.615
-0.62
-0.62
-0.6
-0.6
-0.59
-0.585
-0.59
-0.605
-0.6
-0.62
-0.63
-0.63
-0.62
-0.615
-0.61
-0.61
-0.605
-0.605
-0.615
-0.615
-0.635
-0.645
-0.655
-0.65
-0.655
-0.655
-0.645
-0.645
-0.645
-0.645
-0.64
-0.65
-0.64
-0.655
-0.665
-0.665
-0.665
-0.655
-0.65
-0.63
-0.62
-0.62
-0.615
-0.605
-0.595
-0.595
-0.6
-0.595
-0.58
-0.555
-0.53
-0.515
-0.5
-0.495
-0.5
-0.515
-0.53
-0.54
-0.55
-0.54
-0.535
-0.53
-0.52
-0.51
-0.52
-0.53
-0.555
-0.58
-0.6
-0.63
-0.66
-0.68
-0.695
-0.705
-0.7
-0.695
-0.7
-0.685
-0.69
-0.695
-0.7
-0.715
-0.73
-0.735
-0.74
-0.72
-0.73
-0.72
-0.71
-0.715
-0.72
-0.735
-0.72
-0.735
-0.735
-0.735
-0.735
-0.73
-0.725
-0.71
-0.705
-0.7
-0.695
-0.695
-0.695
-0.695
-0.7
-0.695
-0.68
-0.67
-0.64
-0.58
-0.495
-0.36
-0.165
0.12
0.47
0.89
1.29
1.56
1.635
1.41
0.86
0.22
-0.42
-1.06
-1.59
-1.55
-1.325
-1.02
-0.77
-0.58
-0.49
-0.485
-0.52
-0.575
-0.63
-0.65
-0.655
-0.66
-0.645
-0.635
-0.63
-0.63
-0.63
-0.645
-0.64
-0.63
-0.62
-0.61
-0.61
-0.62
-0.625
-0.63
-0.64
-0.625
-0.625
-0.615
-0.61
-0.605
-0.605
-0.6
-0.6
-0.605
-0.615
-0.615
-0.62
-0.62
-0.625
-0.62
-0.625
-0.61
-0.615
-0.61
-0.605
-0.62
-0.625
-0.62
-0.62
-0.61
-0.6
-0.6
-0.6
-0.59
-0.595
-0.585
-0.595
-0.605
-0.6
-0.59
-0.605
-0.6
-0.6
-0.595
-0.59
-0.575
-0.565
-0.565
-0.57
-0.57
-0.58
-0.585
-0.585
-0.575
-0.57
-0.57
-0.555
-0.55
-0.545
-0.545
-0.54
-0.54
-0.545
-0.545
-0.555
-0.55
-0.545
-0.545
-0.525
-0.52
-0.505
-0.505
-0.5
-0.51
-0.515
-0.515
-0.52
-0.53
-0.51
-0.5
-0.505
-0.495
-0.485
-0.485
-0.495
-0.495
-0.51
-0.515
-0.525
-0.515
-0.52
-0.51
-0.495
-0.49
-0.49
-0.5
-0.515
-0.52
-0.51
-0.52
-0.535
-0.535
-0.56
-0.565
-0.59
-0.605
-0.61
-0.63
-0.66
-0.685
-0.685
-0.705
-0.72
-0.74
-0.75
-0.755
-0.755
-0.75
-0.765
-0.77
-0.78
-0.785
-0.8
-0.805
-0.8
-0.805
-0.81
-0.8
-0.795
-0.79
-0.78
-0.785
-0.785
-0.79
-0.805
-0.81
-0.815
-0.81
-0.8
-0.8
-0.795
-0.795
-0.78
-0.78
-0.785
-0.78
-0.79
-0.785
-0.785
-0.79
-0.795
-0.765
-0.765
-0.755
-0.74
-0.74
-0.74
-0.75
-0.76
-0.76
-0.78
-0.765
-0.77
-0.76
-0.755
-0.75
-0.745
-0.745
-0.75
-0.755
-0.77
-0.785
-0.78
-0.785
-0.78
-0.77
-0.78
-0.765
-0.76
-0.77
-0.78
-0.79
-0.795
-0.81
-0.805
-0.815
-0.8
-0.795
-0.81
-0.79
-0.785
-0.775
-0.77
-0.765
-0.765
-0.76
-0.75
-0.75
-0.735
-0.72
-0.7
-0.685
-0.665
-0.65
-0.645
-0.66
-0.675
-0.69
-0.69
-0.695
-0.695
-0.675
-0.67
-0.67
-0.655
-0.68
-0.68
-0.7
-0.735
-0.76
-0.785
-0.8
-0.815
-0.83
-0.825
-0.82
-0.825
-0.82
-0.83
-0.835
-0.84
-0.85
-0.85
-0.875
-0.88
-0.86
-0.86
-0.85
-0.86
-0.86
-0.865
-0.87
-0.86
-0.865
-0.865
-0.865
-0.875
-0.875
-0.85
-0.855
-0.835
-0.83
-0.83
-0.835
-0.83
-0.83
-0.82
-0.82
-0.795
-0.775
-0.765
-0.72
-0.645
-0.545
-0.365
-0.13
0.225
0.655
1.075
1.44
1.645
1.585
1.27
0.72
0.08
-0.56
-1.2
-1.66
-1.73
-1.575
-1.325
-1.065
-0.855
-0.725
-0.645
-0.635
-0.66
-0.69
-0.715
-0.75
-0.76
-0.765
-0.76
-0.76
-0.76
-0.75
-0.745
-0.73
-0.715
-0.715
-0.715
-0.725
-0.73
-0.735
-0.74
-0.735
-0.735
-0.73
-0.725
-0.715
-0.715
-0.715
-0.72
-0.71
-0.715
-0.715
-0.735
-0.73
-0.725
-0.72
-0.715
-0.705
-0.705
-0.69
-0.695
-0.7
-0.71
-0.71
-0.715
-0.715
-0.725
-0.715
-0.7
-0.69
-0.68
-0.695
-0.685
-0.695
-0.705
-0.7
-0.705
-0.685
-0.69
-0.685
-0.675
-0.66
-0.66
-0.65
-0.65
-0.66
-0.665
-0.67
-0.675
-0.665
-0.66
-0.665
-0.64
-0.63
-0.62
-0.62
-0.62
-0.63
-0.64
-0.63
-0.625
-0.63
-0.62
-0.595
-0.585
-0.58
-0.575
-0.585
-0.575
-0.58
-0.57
-0.565
-0.565
-0.56
-0.55
-0.545
-0.535
-0.51
-0.505
-0.525
-0.515
-0.515
-0.52
-0.525
-0.53
-0.525
-0.515
-0.5
-0.505
-0.495
-0.475
-0.485
-0.475
-0.49
-0.495
-0.485
-0.49
-0.505
-0.505
-0.51
-0.515
-0.525
-0.525
-0.55
-0.555
-0.59
-0.62
-0.645
-0.67
-0.69
-0.705
-0.715
-0.73
-0.73
-0.745
-0.76
-0.77
-0.79
-0.795
-0.805
-0.81
-0.82
-0.825
-0.82
-0.815
-0.825
-0.81
-0.815
-0.815
-0.83
-0.825
-0.84
-0.84
-0.84
-0.84
-0.84
-0.83
-0.81
-0.81
-0.805
-0.805
-0.81
-0.82
-0.82
-0.825
-0.82
-0.82
-0.81
-0.8
-0.79
-0.77
-0.78
-0.775
-0.765
-0.775
-0.78
-0.775
-0.78
-0.77
-0.765
-0.785
-0.765
-0.755
-0.76
-0.755
-0.76
-0.765
-0.765
-0.78
-0.785
-0.77
-0.77
-0.765
-0.765
-0.755
-0.755
-0.755
-0.775
-0.77
-0.79
-0.8
-0.81
-0.81
-0.81
-0.79
-0.785
-0.78
-0.775
-0.775
-0.785
-0.8
-0.805
-0.8
-0.805
-0.81
-0.805
-0.8
-0.79
-0.79
-0.795
-0.8
-0.8
-0.8
-0.805
-0.815
-0.815
-0.81
-0.805
-0.795
-0.79
-0.78
-0.785
-0.765
-0.77
-0.765
-0.755
-0.75
-0.75
-0.73
-0.71
-0.69
-0.68
-0.665
-0.66
-0.64
-0.63
-0.635
-0.64
-0.64
-0.655
-0.65
-0.655
-0.65
-0.655
-0.655
-0.64
-0.65
-0.65
-0.68
-0.685
-0.71
-0.735
-0.765
-0.765
-0.785
-0.79
-0.79
-0.795
-0.795
-0.795
-0.8
-0.805
-0.825
-0.815
-0.82
-0.815
-0.81
-0.8
-0.81
-0.815
-0.8
-0.81
-0.82
-0.835
-0.82
-0.825
-0.825
-0.83
-0.805
-0.795
-0.795
-0.795
-0.795
-0.795
-0.79
-0.795
-0.79
-0.79
-0.785
-0.775
-0.76
-0.745
-0.735
-0.725
-0.67
-0.61
-0.51
-0.37
-0.185
0.075
0.375
0.74
1.09
1.41
1.635
1.7
1.525
1.135
0.53
-0.11
-0.75
-1.35
-1.605
-1.6
-1.395
-1.125
-0.865
-0.68
-0.58
-0.555
-0.575
-0.625
-0.67
-0.7
-0.725
-0.715
-0.705
-0.69
-0.68
-0.665
-0.67
-0.67
-0.68
-0.685
-0.69
-0.685
-0.675
-0.68
-0.68
-0.665
-0.665
-0.655
-0.65
-0.66
-0.67
-0.665
-0.67
-0.67
-0.66
-0.66
-0.655
-0.65
-0.64
-0.64
-0.64
-0.655
-0.66
-0.645
-0.66
-0.655
-0.655
-0.645
-0.635
-0.63
-0.63
-0.63
-0.635
-0.64
-0.64
-0.65
-0.665
-0.65
-0.64
-0.64
-0.62
-0.62
-0.62
-0.615
-0.6
-0.615
-0.615
-0.625
-0.625
-0.63
-0.63
-0.62
-0.61
-0.595
-0.595
-0.595
-0.6
-0.595
-0.605
-0.59
-0.605
-0.6
-0.595
-0.6
-0.59
-0.57
-0.55
-0.555
-0.55
-0.56
-0.565
-0.565
-0.56
-0.545
-0.555
-0.545
-0.535
-0.525
-0.505
-0.5
-0.515
-0.51
-0.505
-0.5
-0.5
-0.495
-0.495
-0.49
-0.49
-0.485
-0.46
-0.455
-0.46
-0.465
-0.47
-0.47
-0.475
-0.475
-0.48
-0.46
-0.46
-0.46
-0.445
-0.46
-0.46
-0.465
-0.48
-0.485
-0.515
-0.52
-0.545
-0.55
-0.565
-0.57
-0.585
-0.59
-0.605
-0.635
-0.655
-0.675
-0.69
-0.69
-0.7
-0.7
-0.7
-0.705
-0.695
-0.7
-0.715
-0.715
-0.73
-0.74
-0.745
-0.745
-0.745
-0.745
-0.73
-0.73
-0.73
-0.735
-0.73
-0.74
-0.735
-0.75
-0.745
-0.755
-0.765
-0.755
-0.745
-0.73
-0.725
-0.715
-0.71
-0.71
-0.71
-0.715
-0.71
-0.72
-0.715
-0.705
-0.7
-0.685
-0.685
-0.68
-0.675
-0.675
-0.685
-0.7
-0.7
-0.695
-0.7
-0.695
-0.705
-0.685
-0.68
-0.675
-0.685
-0.7
-0.695
-0.705
-0.695
-0.715
-0.72
-0.71
-0.705
-0.69
-0.695
-0.68
-0.695
-0.72
-0.72
-0.72
-0.73
-0.73
-0.72
-0.73
-0.72
-0.715
-0.7
-0.705
-0.71
-0.735
-0.72
-0.725
-0.735
-0.735
-0.745
-0.73
-0.725
-0.715
-0.71
-0.71
-0.715
-0.72
-0.725
-0.725
-0.73
-0.725
-0.735
-0.725
-0.735
-0.715
-0.7
-0.715
-0.71
-0.705
-0.72
-0.72
-0.73
-0.735
-0.74
-0.735
-0.725
-0.725
-0.71
-0.705
-0.695
-0.695
-0.695
-0.705
-0.715
-0.695
-0.685
-0.665
-0.65
-0.64
-0.62
-0.605
-0.61
-0.605
-0.605
-0.59
-0.595
-0.585
-0.57
-0.575
-0.56
-0.56
-0.57
-0.565
-0.575
-0.57
-0.57
-0.585
-0.585
-0.585
-0.59
-0.595
-0.585
-0.6
-0.6
-0.615
-0.645
-0.66
-0.67
-0.695
-0.72
-0.725
-0.725
-0.73
-0.73
-0.725
-0.705
-0.705
-0.7
-0.705
-0.72
-0.72
-0.73
-0.74
-0.75
-0.745
-0.735
-0.71
-0.72
-0.71
-0.7
-0.7
-0.71
-0.715
-0.71
-0.715
-0.72
-0.71
-0.695
-0.685
-0.675
-0.665
-0.66
-0.665
-0.655
-0.655
-0.66
-0.65
-0.625
-0.59
-0.515
-0.4
-0.225
0.01
0.34
0.705
1.1
1.465
1.69
1.72
1.515
1.065
0.45
-0.19
-0.83
-1.285
-1.505
-1.485
-1.3
-1.06
-0.84
-0.665
-0.565
-0.53
-0.525
-0.535
-0.56
-0.57
-0.575
-0.595
-0.605
-0.605
-0.6
-0.605
-0.605
-0.6
-0.595
-0.595
-0.585
-0.585
-0.585
-0.58
-0.585
-0.575
-0.595
-0.59
-0.59
-0.585
-0.59
-0.57
-0.56
-0.565
-0.56
-0.57
-0.565
-0.575
-0.575
-0.58
-0.58
-0.58
-0.57
-0.555
-0.56
-0.55
-0.565
-0.55
-0.565
-0.565
-0.57
-0.57
-0.57
-0.57
-0.565
-0.555
-0.55
-0.54
-0.54
-0.56
-0.565
-0.565
-0.555
-0.57
-0.565
-0.575
-0.545
-0.53
-0.525
-0.53
-0.53
-0.525
-0.525
-0.54
-0.54
-0.545
-0.54
-0.53
-0.53
-0.515
-0.505
-0.495
-0.495
-0.505
-0.51
-0.495
-0.5
-0.5
-0.5
-0.495
-0.5
-0.495
-0.465
-0.455
-0.46
-0.45
-0.465
-0.46
-0.465
-0.47
-0.48
-0.475
-0.465
-0.46
-0.46
-0.46
-0.45
-0.445
-0.45
-0.435
-0.435
-0.45
-0.445
-0.44
-0.45
-0.435
-0.42
-0.42
-0.415
-0.415
-0.415
-0.43
-0.42
-0.435
-0.43
-0.425
-0.42
-0.43
-0.425
-0.445
-0.465
-0.485
-0.5
-0.51
-0.53
-0.555
-0.565
-0.58
-0.595
-0.61
-0.615
-0.61
-0.615
-0.63
-0.645
-0.655
-0.66
-0.68
-0.685
-0.67
-0.675
-0.665
-0.655
-0.65
-0.66
-0.665
-0.675
-0.675
-0.7
-0.705
-0.695
-0.69
-0.685
-0.675
-0.665
-0.645
-0.66
-0.66
-0.665
-0.665
-0.67
-0.67
-0.67
-0.66
-0.655
-0.64
-0.645
-0.63
-0.63
-0.635
-0.64
-0.635
-0.635
-0.65
-0.63
-0.635
-0.625
-0.615
-0.615
-0.605
-0.605
-0.61
-0.63
-0.63
-0.64
-0.64
-0.645
-0.635
-0.635
-0.635
-0.635
-0.635
-0.635
-0.63
-0.635
-0.64
-0.65
-0.66
-0.66
-0.67
-0.67
-0.655
-0.655
-0.65
-0.655
-0.665
-0.665
-0.665
-0.685
-0.665
-0.68
-0.68
-0.67
-0.675
-0.655
-0.655
-0.645
-0.64
-0.65
-0.65
-0.64
-0.63
-0.625
-0.6
-0.595
-0.585
-0.585
-0.56
-0.565
-0.535
-0.53
-0.52
-0.515
-0.51
-0.515
-0.52
-0.515
-0.53
-0.52
-0.52
-0.515
-0.51
-0.515
-0.53
-0.545
-0.57
-0.585
-0.61
-0.625
-0.645
-0.655
-0.665
-0.67
-0.665
-0.67
-0.675
-0.675
-0.69
-0.7
-0.695
-0.705
-0.705
-0.7
-0.685
-0.69
-0.68
-0.695
-0.695
-0.705
-0.715
-0.705
-0.695
-0.695
-0.7
-0.695
-0.685
-0.68
-0.68
-0.68
-0.695
-0.69
-0.685
-0.675
-0.675
-0.665
-0.65
-0.645
-0.63
-0.63
-0.615
-0.615
-0.6
-0.555
-0.495
-0.385
-0.205
0.04
0.375
0.805
1.23
1.59
1.795
1.75
1.395
0.755
0.115
-0.525
-1.165
-1.555
-1.45
-1.185
-0.885
-0.62
-0.475
-0.425
-0.445
-0.5
-0.555
-0.605
-0.61
-0.615
-0.6
-0.575
-0.55
-0.54
-0.54
-0.545
-0.56
-0.56
-0.57
-0.57
-0.575
-0.56
-0.55
-0.545
-0.525
-0.545
-0.55
-0.545
-0.545
-0.55
-0.545
-0.55
-0.555
-0.54
-0.53
-0.535
-0.53
-0.525
-0.525
-0.53
-0.525
-0.53
-0.535
-0.54
-0.545
-0.53
-0.53
-0.52
-0.52
-0.52
-0.51
-0.515
-0.525
-0.535
-0.54
-0.55
-0.535
-0.535
-0.53
-0.51
-0.52
-0.51
-0.505
-0.505
-0.52
-0.53
-0.525
-0.515
-0.51
-0.51
-0.49
-0.485
-0.475
-0.47
-0.475
-0.475
-0.48
-0.47
-0.47
-0.48
-0.46
-0.45
-0.46
-0.445
-0.435
-0.435
-0.425
-0.425
-0.435
-0.43
-0.435
-0.44
-0.43
-0.42
-0.405
-0.395
-0.385
-0.38
-0.39
-0.395
-0.395
-0.41
-0.4
-0.41
-0.395
-0.395
-0.395
-0.39
-0.385
-0.395
-0.385
-0.385
-0.395
-0.395
-0.395
-0.385
-0.4
-0.405
-0.4
-0.405
-0.42
-0.42
-0.45
-0.465
-0.475
-0.51
-0.52
-0.53
-0.545
-0.56
-0.575
-0.565
-0.58
-0.605
-0.625
-0.63
-0.645
-0.665
-0.67
-0.67
-0.67
-0.675
-0.665
-0.65
-0.65
-0.655
-0.66
-0.67
-0.68
-0.685
-0.69
-0.69
-0.69
-0.67
-0.675
-0.665
-0.66
-0.65
-0.665
-0.69
-0.665
-0.665
-0.67
-0.665
-0.665
-0.67
-0.655
-0.64
-0.63
-0.635
-0.635
-0.65
-0.645
-0.65
-0.655
-0.64
-0.63
-0.625
-0.615
-0.615
-0.615
-0.615
-0.625
-0.635
-0.635
-0.63
-0.64
-0.655
-0.655
-0.64
-0.635
-0.63
-0.625
-0.615
-0.625
-0.63
-0.645
-0.65
-0.655
-0.67
-0.66
-0.65
-0.65
-0.645
-0.645
-0.64
-0.64
-0.645
-0.675
-0.675
-0.68
-0.665
-0.67
-0.655
-0.645
-0.63
-0.61
-0.6
-0.59
-0.595
-0.595
-0.59
-0.585
-0.58
-0.57
-0.545
-0.53
-0.52
-0.51
-0.505
-0.51
-0.525
-0.535
-0.54
-0.535
-0.54
-0.535
-0.53
-0.53
-0.525
-0.54
-0.56
-0.565
-0.605
-0.625
-0.665
-0.685
-0.7
-0.685
-0.685
-0.68
-0.67
-0.67
-0.665
-0.68
-0.675
-0.685
-0.7
-0.705
-0.7
-0.705
-0.7
-0.69
-0.685
-0.685
-0.675
-0.67
-0.685
-0.695
-0.695
-0.7
-0.695
-0.7
-0.69
-0.685
-0.67
-0.67
-0.66
-0.65
-0.64
-0.655
-0.645
-0.645
-0.64
-0.62
-0.595
-0.555
-0.46
-0.31
-0.1
0.205
0.59
1.025
1.435
1.745
1.855
1.71
1.275
0.635
-0.005
-0.645
-1.285
-1.55
-1.435
-1.185
-0.885
-0.655
-0.495
-0.435
-0.435
-0.47
-0.52
-0.56
-0.585
-0.595
-0.59
-0.58
-0.58
-0.575
-0.575
-0.57
-0.56
-0.565
-0.555
-0.555
-0.56
-0.565
-0.56
-0.56
-0.56
-0.58
-0.575
-0.575
-0.56
-0.57
-0.555
-0.54
-0.54
-0.545
-0.555
-0.56
-0.565
-0.565
-0.56
-0.565
-0.57
-0.55
-0.54
-0.545
-0.525
-0.545
-0.545
-0.55
-0.56
-0.555
-0.55
-0.55
-0.54
-0.54
-0.525
-0.54
-0.535
-0.535
-0.535
-0.54
-0.54
-0.54
-0.54
-0.55
-0.535
-0.53
-0.525
-0.52
-0.52
-0.505
-0.495
-0.49
-0.505
-0.515
-0.505
-0.49
-0.49
-0.475
-0.47
-0.455
-0.45
-0.455
-0.445
-0.45
-0.45
-0.45
-0.44
-0.435
-0.44
-0.43
-0.42
-0.415
-0.395
-0.39
-0.39
-0.39
-0.385
-0.38
-0.385
-0.375
-0.375
-0.355
-0.35
-0.33
-0.315
-0.32
-0.33
-0.325
-0.335
-0.345
-0.335
-0.34
-0.33
-0.32
-0.31
-0.31
-0.3
-0.305
-0.31
-0.325
-0.345
-0.37
-0.38
-0.405
-0.425
-0.435
-0.445
-0.455
-0.485
-0.505
-0.53
-0.545
-0.57
-0.58
-0.6
-0.615
-0.615
-0.625
-0.625
-0.62
-0.635
-0.64
-0.65
-0.66
-0.675
-0.68
-0.695
-0.695
-0.695
-0.69
-0.685
-0.68
-0.67
-0.67
-0.67
-0.68
-0.69
-0.685
-0.685
-0.685
-0.685
-0.68
-0.675
-0.66
-0.66
-0.65
-0.655
-0.65
-0.655
-0.665
-0.66
-0.66
-0.645
-0.63
-0.65
-0.63
-0.62
-0.625
-0.635
-0.62
-0.625
-0.625
-0.63
-0.63
-0.62
-0.625
-0.615
-0.605
-0.615
-0.61
-0.61
-0.635
-0.63
-0.64
-0.65
-0.655
-0.65
-0.64
-0.645
-0.62
-0.64
-0.63
-0.64
-0.635
-0.65
-0.66
-0.665
-0.66
-0.66
-0.66
-0.66
-0.645
-0.65
-0.66
-0.665
-0.66
-0.67
-0.675
-0.675
-0.675
-0.68
-0.68
-0.66
-0.67
-0.66
-0.665
-0.665
-0.66
-0.685
-0.675
-0.68
-0.67
-0.66
-0.645
-0.635
-0.615
-0.61
-0.605
-0.6
-0.6
-0.59
-0.595
-0.59
-0.595
-0.575
-0.55
-0.525
-0.515
-0.505
-0.495
-0.505
-0.51
-0.52
-0.53
-0.535
-0.535
-0.53
-0.52
-0.52
-0.515
-0.51
-0.515
-0.535
-0.555
-0.565
-0.59
-0.625
-0.64
-0.645
-0.65
-0.66
-0.655
-0.655
-0.665
-0.66
-0.67
-0.68
-0.68
-0.695
-0.685
-0.695
-0.685
-0.67
-0.675
-0.665
-0.67
-0.675
-0.685
-0.69
-0.685
-0.69
-0.685
-0.68
-0.685
-0.66
-0.65
-0.655
-0.655
-0.645
-0.645
-0.635
-0.635
-0.635
-0.635
-0.615
-0.6
-0.565
-0.525
-0.47
-0.355
-0.205
0.01
0.335
0.69
1.105
1.485
1.755
1.83
1.665
1.275
0.7
0.06
-0.58
-1.165
-1.435
-1.465
-1.315
-1.085
-0.835
-0.645
-0.535
-0.475
-0.465
-0.495
-0.515
-0.54
-0.555
-0.575
-0.565
-0.57
-0.565
-0.56
-0.55
-0.54
-0.54
-0.535
-0.55
-0.55
-0.565
-0.55
-0.565
-0.565
-0.555
-0.55
-0.545
-0.535
-0.525
-0.53
-0.54
-0.545
-0.545
-0.56
-0.56
-0.56
-0.545
-0.54
-0.535
-0.535
-0.53
-0.52
-0.52
-0.525
-0.54
-0.545
-0.55
-0.55
-0.535
-0.525
-0.525
-0.52
-0.51
-0.51
-0.525
-0.525
-0.525
-0.53
-0.525
-0.52
-0.525
-0.515
-0.505
-0.49
-0.49
-0.49
-0.485
-0.495
-0.5
-0.495
-0.5
-0.51
-0.5
-0.5
-0.49
-0.465
-0.475
-0.47
-0.48
-0.485
-0.5
-0.495
-0.475
-0.49
-0.47
-0.46
-0.46
-0.445
-0.435
-0.44
-0.435
-0.435
-0.44
-0.425
-0.435
-0.43
-0.415
-0.4
-0.395
-0.385
-0.375
-0.395
-0.39
-0.385
-0.37
-0.375
-0.375
-0.36
-0.36
-0.36
-0.345
-0.34
-0.335
-0.335
-0.325
-0.335
-0.34
-0.34
-0.335
-0.33
-0.335
-0.315
-0.33
-0.305
-0.31
-0.335
-0.34
-0.36
-0.38
-0.4
-0.405
-0.425
-0.45
-0.465
-0.485
-0.49
-0.5
-0.52
-0.53
-0.55
-0.57
-0.575
-0.595
-0.61
-0.6
-0.59
-0.615
-0.605
-0.6
-0.62
-0.62
-0.64
-0.635
-0.645
-0.65
-0.635
-0.645
-0.64
-0.65
-0.63
-0.635
-0.63
-0.64
-0.66
-0.65
-0.655
-0.655
-0.655
-0.65
-0.63
-0.635
-0.615
-0.61
-0.615
-0.62
-0.625
-0.625
-0.625
-0.63
-0.625
-0.62
-0.61
-0.6
-0.59
-0.595
-0.585
-0.585
-0.595
-0.59
-0.6
-0.61
-0.6
-0.605
-0.595
-0.595
-0.585
-0.58
-0.575
-0.58
-0.595
-0.6
-0.605
-0.625
-0.635
-0.62
-0.61
-0.605
-0.6
-0.585
-0.615
-0.605
-0.62
-0.615
-0.615
-0.63
-0.625
-0.63
-0.61
-0.605
-0.59
-0.585
-0.58
-0.57
-0.57
-0.565
-0.555
-0.555
-0.55
-0.535
-0.515
-0.505
-0.465
-0.47
-0.46
-0.465
-0.48
-0.485
-0.51
-0.5
-0.49
-0.485
-0.485
-0.48
-0.49
-0.495
-0.505
-0.525
-0.545
-0.57
-0.585
-0.61
-0.635
-0.645
-0.645
-0.64
-0.635
-0.63
-0.62
-0.63
-0.645
-0.65
-0.665
-0.675
-0.68
-0.67
-0.655
-0.655
-0.655
-0.635
-0.635
-0.65
-0.65
-0.66
-0.675
-0.69
-0.68
-0.68
-0.655
-0.645
-0.63
-0.62
-0.615
-0.605
-0.61
-0.605
-0.595
-0.595
-0.6
-0.585
-0.565
-0.52
-0.41
-0.27
-0.065
0.235
0.61
1.025
1.43
1.71
1.785
1.62
1.175
0.535
-0.105
-0.745
-1.33
-1.5
-1.425
-1.18
-0.92
-0.685
-0.54
-0.47
-0.445
-0.46
-0.49
-0.525
-0.55
-0.555
-0.55
-0.555
-0.545
-0.545
-0.55
-0.545
-0.545
-0.525
-0.52
-0.515
-0.515
-0.51
-0.51
-0.515
-0.525
-0.525
-0.53
-0.53
-0.515
-0.525
-0.515
-0.51
-0.505
-0.51
-0.505
-0.51
-0.515
-0.52
-0.52
-0.52
-0.535
-0.51
-0.515
-0.505
-0.52
-0.515
-0.53
-0.53
-0.52
-0.52
-0.505
-0.495
-0.495
-0.485
-0.48
-0.48
-0.475
-0.49
-0.495
-0.495
-0.5
-0.5
-0.495
-0.5
-0.485
-0.465
-0.47
-0.445
-0.46
-0.45
-0.465
-0.47
-0.47
-0.475
-0.475
-0.475
-0.46
-0.435
-0.43
-0.42
-0.425
-0.425
-0.425
-0.42
-0.43
-0.42
-0.415
-0.41
-0.4
-0.395
-0.385
-0.38
-0.375
-0.38
-0.365
-0.365
-0.365
-0.365
-0.365
-0.365
-0.355
-0.35
-0.34
-0.33
-0.345
-0.35
-0.335
-0.355
-0.345
-0.345
-0.345
-0.335
-0.33
-0.33
-0.325
-0.305
-0.335
-0.33
-0.34
-0.355
-0.39
-0.405
-0.425
-0.425
-0.43
-0.44
-0.45
-0.465
-0.51
-0.53
-0.55
-0.57
-0.59
-0.6
-0.605
-0.61
-0.62
-0.615
-0.62
-0.61
-0.62
-0.625
-0.625
-0.645
-0.645
-0.655
-0.665
-0.655
-0.665
-0.65
-0.65
-0.65
-0.645
-0.655
-0.645
-0.65
-0.65
-0.655
-0.65
-0.66
-0.65
-0.65
-0.64
-0.62
-0.605
-0.61
-0.605
-0.615
-0.625
-0.62
-0.615
-0.595
-0.61
-0.61
-0.6
-0.595
-0.595
-0.605
-0.605
-0.6
-0.6
-0.605
-0.61
-0.605
-0.605
-0.595
-0.595
-0.59
-0.595
-0.6
-0.61
-0.62
-0.62
-0.625
-0.63
-0.635
-0.63
-0.625
-0.61
-0.61
-0.61
-0.63
-0.63
-0.625
-0.64
-0.64
-0.63
-0.615
-0.605
-0.59
-0.57
-0.555
-0.545
-0.535
-0.54
-0.535
-0.535
-0.52
-0.5
-0.49
-0.485
-0.48
-0.48
-0.475
-0.485
-0.49
-0.5
-0.5
-0.51
-0.515
-0.515
-0.52
-0.53
-0.535
-0.56
-0.565
-0.6
-0.61
-0.635
-0.66
-0.675
-0.675
-0.68
-0.675
-0.66
-0.65
-0.65
-0.655
-0.66
-0.67
-0.685
-0.69
-0.7
-0.705
-0.69
-0.71
-0.69
-0.68
-0.675
-0.66
-0.665
-0.665
-0.675
-0.665
-0.675
-0.69
-0.67
-0.665
-0.66
-0.645
-0.645
-0.635
-0.62
-0.62
-0.6
-0.58
-0.555
-0.495
-0.385
-0.22
0.055
0.395
0.83
1.265
1.62
1.845
1.82
1.485
0.895
0.255
-0.385
-1.025
-1.5
-1.505
-1.305
-1.02
-0.76
-0.56
-0.465
-0.43
-0.47
-0.52
-0.56
-0.595
-0.6
-0.61
-0.58
-0.565
-0.55
-0.55
-0.555
-0.56
-0.57
-0.585
-0.58
-0.565
-0.555
-0.55
-0.54
-0.545
-0.55
-0.54
-0.55
-0.545
-0.565
-0.575
-0.575
-0.565
-0.56
-0.54
-0.54
-0.525
-0.535
-0.53
-0.54
-0.53
-0.55
-0.555
-0.545
-0.55
-0.545
-0.54
-0.53
-0.53
-0.53
-0.545
-0.535
-0.535
-0.55
-0.55
-0.55
-0.555
-0.54
-0.525
-0.515
-0.52
-0.505
-0.505
-0.505
-0.515
-0.52
-0.53
-0.52
-0.52
-0.505
-0.495
-0.48
-0.485
-0.49
-0.485
-0.49
-0.48
-0.48
-0.49
-0.49
-0.47
-0.46
-0.45
-0.445
-0.425
-0.43
-0.42
-0.415
-0.415
-0.42
-0.415
-0.43
-0.415
-0.4
-0.385
-0.385
-0.375
-0.37
-0.365
-0.36
-0.37
-0.38
-0.39
-0.39
-0.385
-0.375
-0.36
-0.355
-0.36
-0.355
-0.36
-0.365
-0.375
-0.385
-0.4
-0.41
-0.42
-0.44
-0.44
-0.445
-0.46
-0.475
-0.505
-0.515
-0.535
-0.555
-0.57
-0.6
-0.61
-0.61
-0.61
-0.625
-0.625
-0.625
-0.64
-0.655
-0.66
-0.675
-0.68
-0.7
-0.705
-0.695
-0.705
-0.7
-0.68
-0.7
-0.69
-0.71
-0.72
-0.725
-0.725
-0.71
-0.72
-0.71
-0.69
-0.69
-0.685
-0.68
-0.685
-0.69
-0.69
-0.695
-0.69
-0.68
-0.68
-0.675
-0.675
-0.67
-0.65
-0.65
-0.635
-0.64
-0.655
-0.655
-0.67
-0.66
-0.655
-0.65
-0.655
-0.645
-0.63
-0.63
-0.635
-0.635
-0.635
-0.645
-0.65
-0.665
-0.66
-0.66
-0.66
-0.655
-0.64
-0.645
-0.655
-0.665
-0.655
-0.66
-0.665
-0.685
-0.67
-0.665
-0.655
-0.65
-0.65
-0.67
-0.67
-0.665
-0.67
-0.675
-0.67
-0.665
-0.67
-0.65
-0.635
-0.615
-0.605
-0.59
-0.59
-0.585
-0.585
-0.58
-0.565
-0.55
-0.54
-0.535
-0.525
-0.53
-0.54
-0.545
-0.545
-0.55
-0.555
-0.565
-0.58
-0.575
-0.585
-0.59
-0.615
-0.615
-0.635
-0.655
