Lead II
-1.145
-1.155
-1.18
-1.185
-1.225
-1.245
-1.26
-1.285
-1.295
-1.295
-1.3
-1.295
-1.29
-1.28
-1.265
-1.25
-1.255
-1.25
-1.26
-1.285
-1.295
-1.315
-1.33
-1.32
-1.3
-1.245
-1.185
-1.08
-0.94
-0.71
-0.405
-0.02
0.41
0.86
1.325
1.72
2.025
2.135
2.08
1.765
1.16
0.52
-0.12
-0.76
-1.4
-1.905
-1.74
-1.46
-1.17
-0.985
-0.93
-0.98
-1.075
-1.18
-1.255
-1.295
-1.315
-1.29
-1.295
-1.29
-1.28
-1.265
-1.255
-1.23
-1.235
-1.23
-1.22
-1.225
-1.24
-1.245
-1.245
-1.245
-1.24
-1.205
-1.2
-1.19
-1.17
-1.17
-1.175
-1.175
-1.175
-1.185
-1.17
-1.17
-1.17
-1.15
-1.145
-1.125
-1.1
-1.09
-1.075
-1.08
-1.07
-1.05
-1.045
-1.025
-0.995
-0.965
-0.945
-0.92
-0.89
-0.87
-0.865
-0.855
-0.835
-0.815
-0.81
-0.765
-0.745
-0.725
-0.69
-0.65
-0.63
-0.61
-0.615
-0.605
-0.605
-0.59
-0.585
-0.59
-0.575
-0.57
-0.57
-0.57
-0.58
-0.595
-0.63
-0.66
-0.71
-0.78
-0.835
-0.875
-0.915
-0.95
-0.985
-1.015
-1.03
-1.055
-1.095
-1.115
-1.145
-1.17
-1.185
-1.205
-1.215
-1.215
-1.21
-1.205
-1.21
-1.215
-1.235
-1.25
-1.27
-1.275
-1.265
-1.27
-1.28
-1.27
-1.25
-1.24
-1.235
-1.23
-1.23
-1.25
-1.25
-1.265
-1.265
-1.275
-1.29
-1.275
-1.255
-1.24
-1.235
-1.225
-1.22
-1.21
-1.205
-1.21
-1.215
-1.21
-1.22
-1.21
-1.215
-1.2
-1.195
-1.21
-1.21
-1.225
-1.24
-1.255
-1.245
-1.255
-1.24
-1.23
-1.21
-1.21
-1.2
-1.215
-1.225
-1.24
-1.255
-1.265
-1.265
-1.27
-1.265
-1.26
-1.265
-1.26
-1.27
-1.255
-1.27
-1.275
-1.265
-1.28
-1.28
-1.28
-1.275
-1.27
-1.265
-1.255
-1.265
-1.27
-1.28
-1.28
-1.285
-1.29
-1.29
-1.29
-1.285
-1.27
-1.285
-1.265
-1.27
-1.26
-1.265
-1.275
-1.28
-1.295
-1.305
-1.3
-1.315
-1.3
-1.275
-1.255
-1.26
-1.255
-1.27
-1.27
-1.275
-1.27
-1.27
-1.27
-1.26
-1.235
-1.215
-1.205
-1.17
-1.16
-1.17
-1.175
-1.21
-1.19
-1.18
-1.185
-1.16
-1.145
-1.13
-1.125
-1.1
-1.08
-1.08
-1.115
-1.115
-1.125
-1.12
-1.15
-1.135
-1.14
-1.15
-1.155
-1.16
-1.155
-1.165
-1.17
-1.2
-1.21
-1.235
-1.28
-1.315
-1.32
-1.335
-1.35
-1.335
-1.335
-1.325
-1.335
-1.325
-1.335
-1.325
-1.33
-1.32
-1.315
-1.3
-1.31
-1.305
-1.31
-1.315
-1.32
-1.305
-1.28
-1.225
-1.135
-0.99
-0.765
-0.485
-0.12
0.295
0.75
1.21
1.605
1.94
2.12
2.135
1.94
1.465
0.825
0.185
-0.455
-1.095
-1.735
-1.875
-1.635
-1.355
-1.13
-1.005
-0.995
-1.075
-1.15
-1.24
-1.28
-1.295
-1.295
-1.3
-1.295
-1.31
-1.32
-1.325
-1.305
-1.315
-1.295
-1.285
-1.27
-1.25
-1.245
-1.24
-1.25
-1.255
-1.26
-1.255
-1.26
-1.25
-1.23
-1.23
-1.215
-1.185
-1.19
-1.175
-1.175
-1.185
-1.185
-1.175
-1.16
-1.155
-1.125
-1.12
-1.09
-1.07
-1.055
-1.06
-1.06
-1.03
-1.015
-0.995
-0.975
-0.96
-0.93
-0.89
-0.87
-0.835
-0.815
-0.79
-0.77
-0.74
-0.74
-0.71
-0.695
-0.675
-0.635
-0.615
-0.575
-0.55
-0.535
-0.535
-0.52
-0.54
-0.54
-0.545
-0.53
-0.555
-0.56
-0.555
-0.59
-0.605
-0.62
-0.66
-0.685
-0.74
-0.775
-0.825
-0.845
-0.885
-0.915
-0.955
-0.975
-1.02
-1.055
-1.095
-1.135
-1.165
-1.195
-1.22
-1.21
-1.23
-1.235
-1.205
-1.21
-1.2
-1.225
-1.22
-1.24
-1.255
-1.265
-1.27
-1.28
-1.27
-1.255
-1.25
-1.235
-1.22
-1.22
-1.22
-1.235
-1.23
-1.245
-1.235
-1.245
-1.215
-1.22
-1.205
-1.205
-1.205
-1.185
-1.185
-1.195
-1.205
-1.205
-1.22
-1.215
-1.215
-1.205
-1.195
-1.205
-1.185
-1.21
-1.215
-1.21
-1.215
-1.22
-1.23
-1.25
-1.235
-1.235
-1.235
-1.23
-1.225
-1.23
-1.245
-1.26
-1.27
-1.27
-1.27
-1.265
-1.25
-1.25
-1.24
-1.23
-1.225
-1.215
-1.23
-1.235
-1.245
-1.25
-1.27
-1.27
-1.28
-1.265
-1.255
-1.255
-1.23
-1.225
-1.23
-1.24
-1.255
-1.26
-1.275
-1.27
-1.27
-1.255
-1.255
-1.25
-1.24
-1.24
-1.235
-1.24
-1.26
-1.265
-1.265
-1.255
-1.25
-1.25
-1.225
-1.22
-1.19
-1.185
-1.165
-1.16
-1.17
-1.16
-1.155
-1.145
-1.15
-1.135
-1.105
-1.13
-1.095
-1.09
-1.09
-1.085
-1.06
-1.08
-1.065
-1.07
-1.065
-1.06
-1.055
-1.065
-1.065
-1.08
-1.085
-1.085
-1.085
-1.08
-1.07
-1.075
-1.085
-1.095
-1.135
-1.145
-1.165
-1.185
-1.2
-1.24
-1.245
-1.26
-1.265
-1.255
-1.235
-1.21
-1.195
-1.175
-1.165
-1.18
-1.19
-1.18
-1.195
-1.21
-1.22
-1.21
-1.19
-1.165
-1.1
-1.01
-0.85
-0.615
-0.325
0.025
0.42
0.85
1.27
1.67
1.965
2.195
2.29
2.265
2.09
1.68
1.04
0.4
-0.24
-0.88
-1.52
-1.705
-1.525
-1.255
-1.04
-0.915
-0.91
-0.94
-1.01
-1.085
-1.145
-1.16
-1.175
-1.15
-1.15
-1.145
-1.14
-1.13
-1.115
-1.115
-1.1
-1.12
-1.13
-1.155
-1.145
-1.115
-1.095
-1.08
-1.06
-1.05
-1.045
-1.04
-1.045
-1.035
-1.03
-1.015
-1.025
-1.03
-1.03
-1.01
-1.0
-0.995
-0.97
-0.96
-0.945
-0.935
-0.94
-0.92
-0.925
-0.905
-0.895
-0.875
-0.86
-0.83
-0.785
-0.775
-0.78
-0.765
-0.74
-0.725
-0.7
-0.65
-0.615
-0.565
-0.53
-0.51
-0.49
-0.48
-0.45
-0.45
-0.425
-0.41
-0.395
-0.375
-0.355
-0.355
-0.355
-0.345
-0.32
-0.315
-0.33
-0.345
-0.37
-0.4
-0.425
-0.46
-0.51
-0.53
-0.57
-0.6
-0.655
-0.69
-0.74
-0.785
-0.825
-0.84
-0.895
-0.925
-0.93
-0.925
-0.945
-0.94
-0.94
-0.955
-0.98
-1.0
-1.01
-1.03
-1.035
-1.055
-1.06
-1.05
-1.045
-1.035
-1.03
-1.04
-1.045
-1.05
-1.055
-1.06
-1.05
-1.055
-1.06
-1.045
-1.03
-1.02
-1.005
-0.995
-1.015
-1.015
-1.015
-1.03
-1.02
-1.02
-1.015
-0.995
-0.995
-0.985
-0.975
-0.945
-0.96
-0.965
-0.99
-0.99
-1.0
-0.99
-0.995
-0.985
-0.98
-0.97
-0.965
-0.97
-0.98
-1.0
-1.005
-1.005
-1.03
-1.025
-1.02
-1.01
-1.0
-0.985
-0.995
-0.985
-1.0
-1.005
-1.015
-1.015
-1.035
-1.03
-1.035
-1.03
-1.01
-1.005
-1.0
-1.005
-0.99
-1.0
-1.02
-1.01
-1.025
-1.025
-1.045
-1.025
-1.025
-1.0
-0.995
-0.995
-0.99
-0.99
-1.005
-1.005
-1.04
-1.06
-1.05
-1.05
-1.025
-1.005
-0.98
-0.98
-0.965
-0.985
-1.0
-1.0
-1.01
-1.0
-0.995
-0.95
-0.925
-0.89
-0.87
-0.87
-0.87
-0.875
-0.875
-0.88
-0.88
-0.875
-0.86
-0.835
-0.82
-0.805
-0.78
-0.77
-0.78
-0.8
-0.82
-0.85
-0.87
-0.875
-0.87
-0.86
-0.845
-0.845
-0.85
-0.855
-0.89
-0.93
-0.95
-0.985
-1.0
-1.015
-1.025
-1.02
-1.02
-1.0
-0.995
-0.995
-1.0
-0.995
-1.005
-1.01
-1.01
-1.03
-1.045
-1.03
-1.025
-1.01
-0.98
-0.935
-0.87
-0.79
-0.61
-0.35
-0.01
0.385
0.82
1.29
1.73
2.135
2.405
2.52
2.435
2.1
1.5
0.86
0.22
-0.42
-1.06
-1.58
-1.385
-1.09
-0.805
-0.635
-0.605
-0.66
-0.795
-0.89
-0.97
-1.005
-1.005
-1.0
-0.97
-0.965
-0.94
-0.94
-0.95
-0.935
-0.96
-0.96
-0.975
-0.965
-0.965
-0.945
-0.93
-0.92
-0.925
-0.91
-0.905
-0.92
-0.9
-0.895
-0.9
-0.89
-0.88
-0.875
-0.865
-0.85
-0.835
-0.81
-0.805
-0.785
-0.795
-0.795
-0.785
-0.77
-0.775
-0.75
-0.75
-0.725
-0.705
-0.7
-0.685
-0.66
-0.64
-0.645
-0.625
-0.59
-0.56
-0.525
-0.485
-0.455
-0.43
-0.405
-0.375
-0.355
-0.35
-0.335
-0.315
-0.31
-0.28
-0.245
-0.215
-0.19
-0.165
-0.16
-0.15
-0.165
-0.17
-0.19
-0.22
-0.24
-0.25
-0.26
-0.27
-0.29
-0.315
-0.34
-0.385
-0.415
-0.485
-0.525
-0.585
-0.62
-0.665
-0.69
-0.7
-0.725
-0.755
-0.765
-0.8
-0.81
-0.845
-0.865
-0.865
-0.89
-0.9
-0.9
-0.905
-0.89
-0.895
-0.875
-0.89
-0.9
-0.93
-0.93
-0.945
-0.955
-0.955
-0.935
-0.92
-0.925
-0.91
-0.925
-0.92
-0.925
-0.93
-0.93
-0.92
-0.91
-0.905
-0.9
-0.885
-0.88
-0.88
-0.875
-0.865
-0.875
-0.885
-0.89
-0.9
-0.92
-0.9
-0.9
-0.885
-0.88
-0.875
-0.86
-0.86
-0.885
-0.885
-0.9
-0.92
-0.91
-0.92
-0.89
-0.895
-0.895
-0.885
-0.885
-0.9
-0.91
-0.92
-0.945
-0.945
-0.945
-0.945
-0.945
-0.935
-0.925
-0.925
-0.92
-0.92
-0.93
-0.955
-0.96
-0.96
-0.99
-0.97
-0.965
-0.955
-0.945
-0.935
-0.94
-0.96
-0.99
-1.0
-0.995
-0.985
-0.97
-0.965
-0.955
-0.94
-0.94
-0.935
-0.94
-0.95
-0.955
-0.96
-0.99
-0.995
-1.005
-1.0
-0.99
-0.995
-0.965
-0.945
-0.955
-0.95
-0.96
-0.97
-0.975
-0.99
-0.98
-0.975
-0.95
-0.925
-0.9
-0.87
-0.855
-0.845
-0.86
-0.855
-0.855
-0.87
-0.87
-0.875
-0.845
-0.83
-0.815
-0.775
-0.76
-0.755
-0.76
-0.78
-0.8
-0.825
-0.825
-0.825
-0.82
-0.825
-0.815
-0.815
-0.81
-0.84
-0.875
-0.905
-0.945
-0.985
-1.015
-1.035
-1.025
-1.015
-1.005
-0.98
-0.985
-0.98
-0.97
-0.98
-0.99
-1.01
-1.015
-1.025
-1.0
-0.995
-0.995
-0.99
-0.995
-0.96
-0.895
-0.79
-0.635
-0.395
-0.095
0.255
0.615
1.045
1.485
1.915
2.275
2.495
2.525
2.305
1.775
1.135
0.495
-0.145
-0.785
-1.425
-1.4
-1.115
-0.845
-0.69
-0.645
-0.7
-0.82
-0.915
-0.98
-1.005
-1.015
-1.0
-0.985
-0.955
-0.945
-0.955
-0.95
-0.965
-0.97
-0.985
-1.0
-1.0
-0.99
-0.96
-0.93
-0.925
-0.9
-0.92
-0.925
-0.935
-0.94
-0.93
-0.925
-0.925
-0.915
-0.89
-0.885
-0.89
-0.875
-0.875
-0.87
-0.86
-0.87
-0.85
-0.84
-0.825
-0.8
-0.78
-0.765
-0.735
-0.735
-0.725
-0.71
-0.7
-0.695
-0.68
-0.67
-0.65
-0.6
-0.56
-0.53
-0.5
-0.47
-0.435
-0.425
-0.4
-0.37
-0.36
-0.345
-0.325
-0.295
-0.275
-0.245
-0.22
-0.22
-0.21
-0.235
-0.255
-0.275
-0.285
-0.3
-0.305
-0.315
-0.335
-0.365
-0.405
-0.445
-0.505
-0.55
-0.61
-0.645
-0.69
-0.73
-0.77
-0.795
-0.81
-0.83
-0.83
-0.855
-0.89
-0.91
-0.93
-0.95
-0.96
-0.96
-0.96
-0.96
-0.96
-0.965
-0.955
-0.97
-0.975
-0.97
-0.99
-0.995
-1.0
-0.99
-0.995
-0.985
-0.965
-0.96
-0.945
-0.95
-0.95
-0.96
-0.975
-0.975
-0.97
-0.97
-0.975
-0.955
-0.96
-0.965
-0.94
-0.93
-0.945
-0.935
-0.955
-0.98
-0.975
-0.995
-1.005
-1.005
-0.985
-0.98
-0.97
-0.965
-0.97
-0.98
-0.985
-1.0
-0.995
-0.995
-0.99
-0.98
-0.985
-0.99
-0.98
-0.985
-0.985
-0.99
-0.995
-1.005
-1.02
-1.02
-1.015
-1.015
-1.0
-1.0
-0.995
-1.005
-1.02
-1.015
-1.02
-1.025
-1.035
-1.05
-1.055
-1.045
-1.045
-1.045
-1.02
-1.03
-1.03
-1.015
-1.03
-1.04
-1.05
-1.06
-1.05
-1.035
-1.03
-1.04
-1.035
-1.035
-1.05
-1.02
-1.04
-1.035
-1.035
-1.04
-1.025
-1.03
-1.015
-1.015
-1.0
-1.005
-0.99
-0.975
-0.97
-0.965
-0.95
-0.955
-0.94
-0.925
-0.91
-0.895
-0.89
-0.9
-0.895
-0.895
-0.89
-0.895
-0.865
-0.865
-0.855
-0.845
-0.835
-0.845
-0.84
-0.855
-0.86
-0.86
-0.9
-0.9
-0.91
-0.925
-0.945
-0.95
-0.98
-1.0
-1.005
-1.02
-1.035
-1.055
-1.065
-1.06
-1.07
-1.07
-1.065
-1.065
-1.05
-1.025
-1.005
-1.005
-1.01
-1.015
-1.045
-1.065
-1.06
-1.065
-1.055
-1.0
-0.935
-0.84
-0.68
-0.47
-0.19
0.105
0.45
0.81
1.215
1.63
2.0
2.26
2.355
2.23
1.805
1.165
0.525
-0.115
-0.755
-1.395
-1.56
-1.335
-1.05
-0.825
-0.71
-0.695
-0.735
-0.84
-0.915
-0.96
-0.995
-1.015
-1.02
-1.0
-0.99
-0.98
-1.0
-0.995
-0.98
-0.985
-0.975
-0.975
-0.975
-0.98
-0.96
-0.96
-0.965
-0.945
-0.93
-0.915
-0.905
-0.905
-0.9
-0.91
-0.905
-0.905
-0.915
-0.91
-0.915
-0.89
-0.865
-0.845
-0.82
-0.805
-0.805
-0.795
-0.8
-0.8
-0.79
-0.795
-0.78
-0.745
-0.73
-0.7
-0.68
-0.67
-0.655
-0.64
-0.625
-0.61
-0.565
-0.55
-0.51
-0.465
-0.42
-0.405
-0.375
-0.36
-0.355
-0.33
-0.315
-0.32
-0.295
-0.29
-0.27
-0.27
-0.225
-0.2
-0.175
-0.175
-0.185
-0.205
-0.225
-0.255
-0.285
-0.32
-0.36
-0.405
-0.455
-0.48
-0.515
-0.555
-0.595
-0.62
-0.645
-0.675
-0.715
-0.765
-0.81
-0.82
-0.815
-0.83
-0.87
-0.87
-0.885
-0.88
-0.915
-0.925
-0.93
-0.94
-0.955
-0.935
-0.945
-0.945
-0.93
-0.95
-0.965
-0.955
-0.975
-0.965
-0.98
-0.975
-0.995
-0.97
-0.96
-0.95
-0.935
-0.955
-0.97
-0.945
-0.94
-0.94
-0.95
-0.965
-0.96
-0.945
-0.915
-0.93
-0.895
-0.895
-0.895
-0.915
-0.93
-0.92
-0.92
-0.93
-0.94
-0.915
-0.91
-0.895
-0.895
-0.89
-0.915
-0.915
-0.935
-0.935
-0.93
-0.955
-0.94
-0.945
-0.945
-0.93
-0.935
-0.94
-0.94
-0.945
-0.96
-0.965
-0.965
-0.98
-0.99
-0.975
-0.965
-0.985
-0.96
-0.96
-0.95
-0.95
-0.965
-0.97
-0.985
-1.01
-1.03
-1.01
-1.005
-0.98
-0.98
-0.98
-0.99
-0.99
-0.995
-1.015
-1.005
-1.0
-1.01
-1.0
-0.995
-0.985
-0.98
-0.985
-0.98
-0.975
-0.985
-0.99
-0.985
-0.995
-0.995
-1.01
-0.995
-0.99
-0.98
-0.975
-0.965
-0.96
-0.95
-0.96
-0.965
-0.945
-0.915
-0.905
-0.88
-0.86
-0.86
-0.84
-0.855
-0.865
-0.885
-0.895
-0.885
-0.89
-0.89
-0.865
-0.845
-0.83
-0.805
-0.8
-0.805
-0.81
-0.825
-0.835
-0.855
-0.865
-0.88
-0.875
-0.88
-0.88
-0.885
-0.9
-0.935
-0.945
-0.965
-1.005
-1.03
-1.045
-1.07
-1.065
-1.06
-1.05
-1.04
-1.04
-1.03
-1.03
-1.035
-1.04
-1.045
-1.055
-1.065
-1.05
-1.03
-1.02
-1.01
-1.01
-1.005
-1.02
-1.0
-0.95
-0.86
-0.69
-0.44
-0.095
0.325
0.78
1.27
1.75
2.16
2.435
2.55
2.475
2.22
1.725
1.085
0.445
-0.195
-0.835
-1.475
-1.555
-1.31
-1.01
-0.785
-0.705
-0.725
-0.82
-0.925
-1.015
-1.05
-1.065
-1.045
-1.025
-1.0
-0.995
-1.005
-1.035
-1.04
-1.045
-1.035
-1.035
-1.03
-1.025
-1.01
-1.01
-1.015
-1.01
-1.0
-1.01
-1.01
-1.015
-1.005
-0.985
-0.975
-0.965
-0.955
-0.945
-0.935
-0.935
-0.93
-0.94
-0.925
-0.93
-0.93
-0.91
-0.885
-0.87
-0.865
-0.845
-0.845
-0.825
-0.82
-0.815
-0.78
-0.775
-0.755
-0.74
-0.7
-0.685
-0.64
-0.6
-0.58
-0.565
-0.54
-0.515
-0.495
-0.49
-0.48
-0.44
-0.41
-0.38
-0.355
-0.325
-0.32
-0.305
-0.305
-0.3
-0.295
-0.3
-0.31
-0.32
-0.325
-0.325
-0.35
-0.375
-0.41
-0.455
-0.51
-0.55
-0.595
-0.655
-0.705
-0.745
-0.77
-0.815
-0.83
-0.85
-0.895
-0.915
-0.95
-0.985
-1.02
-1.035
-1.045
-1.045
-1.04
-1.06
-1.05
-1.055
-1.03
-1.045
-1.055
-1.06
-1.09
-1.105
-1.105
-1.09
-1.085
-1.07
-1.065
-1.08
-1.055
-1.075
-1.075
-1.085
-1.085
-1.095
-1.09
-1.08
-1.07
-1.06
-1.07
-1.055
-1.06
-1.045
-1.07
-1.075
-1.07
-1.075
-1.08
-1.075
-1.06
-1.045
-1.055
-1.05
-1.05
-1.04
-1.055
-1.065
-1.08
-1.085
-1.095
-1.105
-1.095
-1.105
-1.075
-1.07
-1.08
-1.09
-1.105
-1.105
-1.11
-1.125
-1.125
-1.13
-1.135
-1.13
-1.11
-1.095
-1.11
-1.12
-1.135
-1.15
-1.16
-1.185
-1.19
-1.19
-1.17
-1.15
-1.145
-1.13
-1.14
-1.14
-1.165
-1.165
-1.165
-1.19
-1.19
-1.185
-1.17
-1.17
-1.165
-1.17
-1.15
-1.16
-1.165
-1.195
-1.2
-1.2
-1.19
-1.19
-1.175
-1.165
-1.14
-1.155
-1.135
-1.13
-1.14
-1.13
-1.12
-1.1
-1.095
-1.08
-1.06
-1.055
-1.055
-1.055
-1.065
-1.075
-1.09
-1.08
-1.06
-1.055
-1.045
-1.0
-0.995
-0.99
-0.98
-1.005
-1.015
-1.035
-1.05
-1.08
-1.095
-1.095
-1.085
-1.085
-1.08
-1.085
-1.095
-1.125
-1.15
-1.17
-1.2
-1.23
-1.24
-1.26
-1.25
-1.245
-1.22
-1.225
-1.22
-1.21
-1.21
-1.22
-1.225
-1.225
-1.225
-1.225
-1.23
-1.24
-1.225
-1.205
-1.16
-1.125
-1.05
-0.925
-0.74
-0.49
-0.145
0.25
0.71
1.18
1.67
2.05
2.3
2.35
2.135
1.63
0.99
0.35
-0.29
-0.93
-1.57
-1.815
-1.55
-1.27
-1.04
-0.935
-0.955
-1.025
-1.135
-1.215
-1.26
-1.275
-1.27
-1.24
-1.235
-1.215
-1.21
-1.21
-1.215
-1.225
-1.23
-1.235
-1.235
-1.24
-1.23
-1.21
-1.2
-1.175
-1.155
-1.165
-1.165
-1.16
-1.17
-1.175
-1.18
-1.175
-1.175
-1.165
-1.135
-1.115
-1.11
-1.1
-1.085
-1.08
-1.08
-1.07
-1.065
-1.075
-1.055
-1.035
-1.005
-0.99
-0.955
-0.955
-0.935
-0.91
-0.92
-0.885
-0.875
-0.87
-0.84
-0.815
-0.78
-0.73
-0.705
-0.675
-0.645
-0.635
-0.615
-0.61
-0.605
-0.6
-0.58
-0.54
-0.52
-0.505
-0.47
-0.465
-0.48
-0.48
-0.515
-0.545
-0.58
-0.605
-0.635
-0.66
-0.69
-0.73
-0.755
-0.79
-0.84
-0.89
-0.935
-0.985
-1.025
-1.07
-1.105
-1.12
-1.13
-1.145
-1.14
-1.15
-1.165
-1.165
-1.195
-1.2
-1.22
-1.24
-1.24
-1.235
-1.225
-1.21
-1.21
-1.21
-1.225
-1.23
-1.245
-1.24
-1.245
-1.25
-1.24
-1.24
-1.24
-1.22
-1.21
-1.2
-1.215
-1.205
-1.205
-1.215
-1.225
-1.215
-1.225
-1.22
-1.19
-1.19
-1.185
-1.165
-1.16
-1.17
-1.18
-1.19
-1.2
-1.21
-1.215
-1.22
-1.195
-1.195
-1.18
-1.165
-1.18
-1.18
-1.205
-1.225
-1.22
-1.23
-1.23
-1.225
-1.22
-1.205
-1.185
-1.18
-1.18
-1.17
-1.17
-1.19
-1.205
-1.23
-1.24
-1.225
-1.21
-1.21
-1.195
-1.195
-1.195
-1.205
-1.215
-1.215
-1.22
-1.22
-1.205
-1.195
-1.185
-1.18
-1.19
-1.18
-1.185
-1.185
-1.2
-1.21
-1.23
-1.235
-1.235
-1.21
-1.195
-1.185
-1.17
-1.155
-1.155
-1.16
-1.185
-1.19
-1.19
-1.19
-1.18
-1.165
-1.18
-1.15
-1.135
-1.11
-1.085
-1.065
-1.06
-1.06
-1.06
-1.06
-1.065
-1.05
-1.04
-1.03
-1.015
-1.0
-1.0
-0.985
-0.99
-0.96
-0.97
-0.98
-0.97
-0.985
-0.985
-0.99
-0.975
-0.97
-0.98
-0.995
-1.0
-1.03
-1.04
-1.05
-1.08
-1.105
-1.11
-1.125
-1.125
-1.12
-1.16
-1.145
-1.165
-1.175
-1.19
-1.2
-1.2
-1.19
-1.17
-1.16
-1.14
-1.135
-1.125
-1.125
-1.13
-1.145
-1.15
-1.135
-1.125
-1.09
-1.04
-0.96
-0.84
-0.64
-0.4
-0.075
0.33
0.775
1.245
1.71
2.075
2.325
2.385
2.22
1.76
1.12
0.48
-0.16
-0.8
-1.44
-1.62
-1.37
-1.08
-0.88
-0.785
-0.825
-0.88
-0.955
-1.04
-1.085
-1.105
-1.11
-1.105
-1.1
-1.095
-1.09
-1.085
-1.08
-1.05
-1.045
-1.035
-1.045
-1.04
-1.045
-1.05
-1.05
-1.05
-1.045
-1.03
-1.01
-0.99
-0.97
-0.975
-0.975
-0.97
-0.955
-0.97
-0.96
-0.955
-0.955
-0.945
-0.915
-0.91
-0.885
-0.87
-0.875
-0.885
-0.87
-0.86
-0.85
-0.84
-0.82
-0.8
-0.77
-0.73
-0.7
-0.665
-0.655
-0.63
-0.62
-0.59
-0.57
-0.55
-0.54
-0.505
-0.48
-0.45
-0.42
-0.395
-0.375
-0.365
-0.36
-0.355
-0.33
-0.32
-0.3
-0.28
-0.26
-0.255
-0.265
-0.28
-0.295
-0.325
-0.365
-0.39
-0.425
-0.455
-0.48
-0.51
-0.52
-0.545
-0.59
-0.635
-0.665
-0.7
-0.75
-0.79
-0.84
-0.88
-0.89
-0.91
-0.925
-0.945
-0.965
-0.97
-0.985
-0.985
-0.99
-1.01
-1.01
-1.015
-1.03
-1.02
-1.025
-1.035
-1.025
-1.025
-1.03
-1.025
-1.05
-1.04
-1.035
-1.05
-1.045
-1.03
-1.015
-1.015
-1.025
-1.025
-1.02
-1.025
-1.02
-1.035
-1.04
-1.045
-1.04
-1.025
-1.02
-1.01
-0.99
-0.99
-0.99
-1.01
-1.0
-1.01
-1.01
-1.02
-1.01
-1.0
-0.995
-0.98
-0.995
-0.98
-1.005
-1.015
-1.04
-1.06
-1.055
-1.055
-1.05
-1.04
-1.02
-1.005
-1.015
-1.015
-1.02
-1.045
-1.065
-1.065
-1.08
-1.08
-1.08
-1.085
-1.09
-1.075
-1.06
-1.04
-1.035
-1.04
-1.05
-1.065
-1.075
-1.095
-1.09
-1.09
-1.075
-1.075
-1.065
-1.085
-1.095
-1.09
-1.115
-1.115
-1.09
-1.1
-1.11
-1.105
-1.09
-1.095
-1.085
-1.08
-1.08
-1.085
-1.095
-1.11
-1.105
-1.115
-1.115
-1.115
-1.105
-1.07
-1.065
-1.055
-1.065
-1.075
-1.06
-1.065
-1.05
-1.04
-1.02
-0.985
-0.965
-0.945
-0.925
-0.925
-0.93
-0.95
-0.97
-0.975
-0.965
-0.95
-0.945
-0.91
-0.905
-0.885
-0.9
-0.87
-0.88
-0.905
-0.93
-0.945
-0.955
-0.95
-0.955
-0.945
-0.935
-0.95
-0.96
-0.99
-1.01
-1.045
-1.075
-1.115
-1.13
-1.13
-1.13
-1.125
-1.11
-1.095
-1.105
-1.085
-1.11
-1.11
-1.11
-1.105
-1.11
-1.125
-1.13
-1.1
-1.095
-1.08
-1.03
-0.965
-0.845
-0.665
-0.4
-0.085
0.32
0.735
1.17
1.625
2.02
2.3
2.46
2.455
2.265
1.86
1.22
0.58
-0.06
-0.7
-1.34
-1.575
-1.405
-1.125
-0.89
-0.775
-0.765
-0.87
-0.985
-1.065
-1.125
-1.145
-1.125
-1.11
-1.085
-1.06
-1.06
-1.065
-1.08
-1.1
-1.095
-1.12
-1.12
-1.11
-1.1
-1.085
-1.065
-1.05
-1.045
-1.04
-1.04
-1.055
-1.05
-1.065
-1.07
-1.055
-1.05
-1.035
-1.005
-1.005
-0.99
-0.98
-0.975
-0.965
-0.975
-0.99
-0.975
-0.955
-0.955
-0.91
-0.885
-0.865
-0.845
-0.835
-0.8
-0.805
-0.79
-0.78
-0.77
-0.745
-0.715
-0.68
-0.65
-0.61
-0.565
-0.54
-0.51
-0.51
-0.505
-0.475
-0.46
-0.445
-0.445
-0.435
-0.425
-0.415
-0.4
-0.4
-0.425
-0.45
-0.48
-0.51
-0.565
-0.615
-0.645
-0.695
-0.72
-0.765
-0.795
-0.855
-0.9
-0.95
-1.01
-1.045
-1.07
-1.095
-1.115
-1.125
-1.13
-1.135
-1.14
-1.155
-1.175
-1.19
-1.205
-1.21
-1.21
-1.22
-1.21
-1.21
-1.195
-1.19
-1.185
-1.195
-1.205
-1.205
-1.225
-1.235
-1.25
-1.245
-1.23
-1.22
-1.21
-1.205
-1.2
-1.21
-1.22
-1.22
-1.22
-1.225
-1.22
-1.235
-1.22
-1.21
-1.205
-1.2
-1.19
-1.195
-1.19
-1.225
-1.22
-1.225
-1.215
-1.235
-1.225
-1.225
-1.205
-1.205
-1.195
-1.2
-1.195
-1.205
-1.215
-1.225
-1.24
-1.27
-1.255
-1.255
-1.24
-1.24
-1.24
-1.23
-1.235
-1.245
-1.25
-1.27
-1.275
-1.28
-1.265
-1.265
-1.25
-1.245
-1.265
-1.255
-1.255
-1.275
-1.26
-1.265
-1.27
-1.26
-1.27
-1.285
-1.29
-1.27
-1.25
-1.265
-1.265
-1.28
-1.3
-1.305
-1.31
-1.3
-1.29
-1.27
-1.265
-1.275
-1.265
-1.275
-1.285
-1.28
-1.295
-1.29
-1.295
-1.275
-1.275
-1.25
-1.22
-1.205
-1.18
-1.18
-1.18
-1.17
-1.17
-1.175
-1.195
-1.2
-1.17
-1.185
-1.15
-1.13
-1.095
-1.075
-1.065
-1.07
-1.105
-1.125
-1.145
-1.16
-1.16
-1.165
-1.16
-1.15
-1.15
-1.145
-1.16
-1.17
-1.195
-1.23
-1.25
-1.285
-1.3
-1.34
-1.335
-1.32
-1.295
-1.29
-1.29
-1.295
-1.305
-1.335
-1.34
-1.35
-1.35
-1.335
-1.32
-1.305
-1.31
-1.29
-1.295
-1.265
-1.23
-1.165
-1.055
-0.88
-0.63
-0.35
-0.03
0.27
0.6
0.935
1.27
1.595
1.835
1.965
1.885
1.565
0.96
0.32
-0.32
-0.96
-1.6
-1.87
-1.725
-1.51
-1.28
-1.16
-1.115
-1.14
-1.205
-1.265
-1.305
-1.305
-1.305
-1.3
-1.29
-1.31
-1.31
-1.33
-1.35
-1.35
-1.345
-1.325
-1.31
-1.31
-1.27
-1.265
-1.26
-1.26
-1.27
-1.28
-1.285
-1.275
-1.28
-1.26
-1.255
-1.24
-1.22
-1.22
-1.225
-1.235
-1.23
-1.22
-1.2
-1.18
-1.175
-1.145
-1.15
-1.14
-1.095
-1.105
-1.075
-1.075
-1.065
-1.06
-1.035
-1.02
-0.985
-0.945
-0.91
-0.885
-0.845
-0.84
-0.815
-0.81
-0.78
-0.765
-0.745
-0.73
-0.71
-0.675
-0.635
-0.615
-0.59
-0.585
-0.59
-0.615
-0.61
-0.62
-0.63
-0.64
-0.66
-0.655
-0.685
-0.695
-0.705
-0.735
-0.78
-0.815
-0.865
-0.895
-0.93
-0.97
-1.01
-1.03
-1.055
-1.075
-1.095
-1.11
-1.13
-1.16
-1.19
-1.2
-1.215
-1.22
-1.2
-1.195
-1.195
-1.19
-1.18
-1.18
-1.205
-1.205
-1.22
-1.225
-1.22
-1.23
-1.22
-1.195
-1.185
-1.175
-1.145
-1.145
-1.14
-1.135
-1.15
-1.155
-1.175
-1.17
-1.175
-1.165
-1.145
-1.14
-1.13
-1.125
-1.135
-1.135
-1.14
-1.16
-1.155
-1.155
-1.175
-1.15
-1.125
-1.11
-1.11
-1.095
-1.115
-1.145
-1.165
-1.16
-1.165
-1.15
-1.155
-1.14
-1.13
-1.13
-1.125
-1.135
-1.15
-1.17
-1.165
-1.195
-1.18
-1.2
-1.185
-1.165
-1.15
-1.14
-1.125
-1.125
-1.125
-1.13
-1.14
-1.15
-1.165
-1.165
-1.165
-1.15
-1.145
-1.155
-1.14
-1.14
-1.145
-1.115
-1.11
-1.11
-1.12
-1.145
-1.155
-1.14
-1.15
-1.13
-1.105
-1.115
-1.105
-1.13
-1.13
-1.14
-1.13
-1.135
-1.115
-1.09
-1.065
-1.025
-0.98
-0.97
-0.955
-0.965
-0.97
-0.985
-1.005
-1.01
-1.005
-0.98
-0.95
-0.925
-0.895
-0.885
-0.87
-0.875
-0.895
-0.91
-0.945
-0.95
-0.975
-0.94
-0.935
-0.92
-0.925
-0.935
-0.96
-0.985
-1.015
-1.035
-1.075
-1.09
-1.11
-1.115
-1.12
-1.11
-1.1
-1.1
-1.095
-1.085
-1.09
-1.1
-1.11
-1.115
-1.11
-1.095
-1.085
-1.085
-1.05
-1.065
-1.065
-1.065
-1.06
-1.045
-0.97
-0.85
-0.665
-0.385
-0.06
0.3
0.69
1.085
1.48
1.82
2.07
2.205
2.21
2.0
1.59
1.01
0.37
-0.27
-0.91
-1.46
-1.555
-1.415
-1.175
-0.95
-0.825
-0.775
-0.825
-0.89
-0.98
-1.015
-1.04
-1.04
-1.025
-1.015
-1.015
-1.025
-1.04
-1.055
-1.055
-1.055
-1.015
-1.005
-0.985
-0.975
-0.97
-0.98
-0.99
-1.015
-0.995
-0.98
-0.97
-0.95
-0.965
-0.96
-0.93
-0.93
-0.91
-0.91
-0.905
-0.915
-0.915
-0.92
-0.91
-0.895
-0.88
-0.845
-0.82
-0.815
-0.825
-0.82
-0.81
-0.795
-0.775
-0.765
-0.755
-0.72
-0.7
-0.68
-0.65
-0.635
-0.615
-0.605
-0.595
-0.58
-0.54
-0.51
-0.5
-0.445
-0.415
-0.395
-0.365
-0.35
-0.335
-0.335
-0.325
-0.325
-0.315
-0.305
-0.3
-0.29
-0.28
-0.305
-0.3
-0.295
-0.305
-0.32
-0.37
-0.405
-0.435
-0.485
-0.54
-0.575
-0.595
-0.62
-0.64
-0.665
-0.705
-0.76
-0.81
-0.845
-0.86
-0.885
-0.905
-0.905
-0.915
-0.905
-0.885
-0.905
-0.9
-0.935
-0.94
-0.945
-0.975
-0.98
-0.975
-0.98
-0.965
-0.965
-0.955
-0.95
-0.955
-0.95
-0.94
-0.96
-0.945
-0.95
-0.955
-0.945
-0.92
-0.92
-0.915
-0.91
-0.905
-0.925
-0.955
-0.95
-0.965
-0.97
-0.96
-0.93
-0.92
-0.9
-0.895
-0.9
-0.905
-0.935
-0.95
-0.975
-0.98
-0.96
-0.965
-0.95
-0.935
-0.925
-0.935
-0.93
-0.93
-0.945
-0.95
-0.95
-0.965
-0.985
-0.985
-0.985
-0.98
-0.97
-0.945
-0.955
-0.96
-0.965
-0.985
-0.995
-0.99
-0.99
-1.0
-1.005
-1.005
-1.015
-0.98
-0.975
-0.98
-1.0
-0.995
-1.0
-0.995
-1.0
-0.995
-0.995
-0.99
-0.995
-0.98
-0.98
-1.005
-1.015
-1.02
-1.03
-1.015
-1.055
-1.045
-1.05
-1.025
-1.01
-0.985
-0.975
-0.975
-0.965
-0.96
-0.95
-0.94
-0.935
-0.91
-0.905
-0.895
-0.885
-0.89
-0.885
-0.895
-0.9
-0.91
-0.9
-0.87
-0.865
-0.875
-0.87
-0.855
-0.875
-0.875
-0.905
-0.905
-0.925
-0.93
-0.93
-0.94
-0.97
-0.995
-1.0
-1.015
-1.02
-1.025
-1.04
-1.065
-1.085
-1.12
-1.14
-1.125
-1.14
-1.12
-1.11
-1.11
-1.11
-1.085
-1.09
-1.1
-1.105
-1.115
-1.135
-1.155
-1.145
-1.145
-1.095
-1.05
-0.95
-0.79
-0.595
-0.32
0.025
0.4
0.82
1.25
1.65
1.985
2.165
2.19
2.005
1.545
0.905
0.265
-0.375
-1.015
-1.655
-1.68
-1.45
-1.175
-0.975
-0.875
-0.88
-0.94
-1.015
-1.09
-1.145
-1.18
-1.19
-1.185
-1.185
-1.17
-1.15
-1.15
-1.135
-1.125
-1.125
-1.14
-1.145
-1.17
-1.16
-1.17
-1.17
-1.17
-1.185
-1.17
-1.145
-1.125
-1.13
-1.13
-1.14
-1.15
-1.145
-1.15
-1.16
-1.145
-1.12
-1.095
-1.075
-1.05
-1.065
-1.04
-1.04
-1.03
-1.02
-1.02
-1.02
-1.0
-0.98
-0.955
-0.93
-0.905
-0.88
-0.88
-0.87
-0.86
-0.85
-0.83
-0.805
-0.79
-0.755
-0.725
-0.69
-0.665
-0.65
-0.62
-0.61
-0.6
-0.61
-0.625
-0.615
-0.62
-0.595
-0.585
-0.575
-0.57
-0.59
-0.615
-0.625
-0.68
-0.73
-0.765
-0.825
-0.875
-0.915
-0.96
-0.995
-1.025
-1.07
-1.105
-1.135
-1.16
-1.185
-1.2
-1.24
-1.265
-1.285
-1.28
-1.305
-1.295
-1.3
-1.315
-1.35
-1.37
-1.375
-1.395
-1.395
-1.385
-1.39
-1.365
-1.365
-1.35
-1.37
-1.365
-1.38
-1.37
-1.36
-1.365
-1.365
-1.38
-1.38
-1.385
-1.38
-1.375
-1.375
-1.355
-1.36
-1.375
-1.4
-1.405
-1.41
-1.395
-1.405
-1.39
-1.36
-1.345
-1.335
-1.36
-1.39
-1.4
-1.415
-1.425
