Lead II
-0.265
-0.28
-0.3
-0.31
-0.325
-0.34
-0.365
-0.385
-0.41
-0.43
-0.455
-0.465
-0.47
-0.48
-0.475
-0.475
-0.485
-0.52
-0.52
-0.525
-0.545
-0.545
-0.55
-0.555
-0.55
-0.555
-0.565
-0.55
-0.56
-0.57
-0.575
-0.575
-0.57
-0.58
-0.585
-0.575
-0.565
-0.57
-0.575
-0.555
-0.56
-0.56
-0.55
-0.555
-0.55
-0.555
-0.54
-0.53
-0.53
-0.52
-0.515
-0.5
-0.515
-0.5
-0.505
-0.51
-0.515
-0.505
-0.515
-0.505
-0.505
-0.505
-0.49
-0.485
-0.49
-0.495
-0.495
-0.505
-0.525
-0.525
-0.52
-0.52
-0.515
-0.52
-0.505
-0.505
-0.52
-0.525
-0.535
-0.53
-0.54
-0.55
-0.56
-0.55
-0.54
-0.545
-0.55
-0.535
-0.535
-0.535
-0.545
-0.56
-0.57
-0.575
-0.575
-0.57
-0.565
-0.575
-0.565
-0.565
-0.57
-0.565
-0.565
-0.58
-0.585
-0.585
-0.585
-0.59
-0.575
-0.575
-0.57
-0.57
-0.57
-0.57
-0.6
-0.595
-0.59
-0.595
-0.605
-0.595
-0.595
-0.59
-0.565
-0.56
-0.555
-0.54
-0.53
-0.53
-0.54
-0.525
-0.515
-0.495
-0.485
-0.465
-0.44
-0.415
-0.415
-0.41
-0.41
-0.43
-0.445
-0.455
-0.45
-0.45
-0.44
-0.435
-0.44
-0.44
-0.45
-0.475
-0.51
-0.525
-0.54
-0.575
-0.595
-0.595
-0.61
-0.61
-0.61
-0.6
-0.605
-0.605
-0.61
-0.615
-0.64
-0.65
-0.655
-0.65
-0.625
-0.63
-0.63
-0.62
-0.63
-0.64
-0.645
-0.64
-0.65
-0.65
-0.655
-0.655
-0.635
-0.64
-0.64
-0.625
-0.62
-0.615
-0.61
-0.605
-0.605
-0.605
-0.61
-0.59
-0.57
-0.545
-0.5
-0.425
-0.29
-0.095
0.16
0.515
0.905
1.29
1.62
1.78
1.725
1.4
0.84
0.2
-0.44
-1.08
-1.42
-1.44
-1.265
-0.985
-0.725
-0.54
-0.415
-0.405
-0.43
-0.485
-0.535
-0.57
-0.59
-0.6
-0.6
-0.59
-0.56
-0.565
-0.555
-0.555
-0.555
-0.535
-0.54
-0.54
-0.545
-0.565
-0.565
-0.565
-0.56
-0.56
-0.56
-0.555
-0.55
-0.535
-0.545
-0.55
-0.545
-0.555
-0.55
-0.56
-0.545
-0.565
-0.555
-0.55
-0.54
-0.535
-0.545
-0.555
-0.555
-0.555
-0.57
-0.57
-0.565
-0.565
-0.565
-0.55
-0.54
-0.535
-0.55
-0.54
-0.55
-0.545
-0.555
-0.555
-0.555
-0.55
-0.545
-0.53
-0.53
-0.52
-0.52
-0.52
-0.53
-0.525
-0.52
-0.525
-0.52
-0.525
-0.51
-0.5
-0.495
-0.485
-0.485
-0.475
-0.485
-0.485
-0.48
-0.48
-0.48
-0.48
-0.455
-0.46
-0.445
-0.44
-0.44
-0.435
-0.43
-0.435
-0.435
-0.44
-0.43
-0.435
-0.425
-0.415
-0.41
-0.4
-0.41
-0.42
-0.425
-0.425
-0.42
-0.425
-0.435
-0.425
-0.42
-0.4
-0.4
-0.405
-0.415
-0.425
-0.45
-0.475
-0.505
-0.535
-0.545
-0.57
-0.58
-0.595
-0.605
-0.605
-0.615
-0.63
-0.645
-0.66
-0.68
-0.695
-0.695
-0.705
-0.715
-0.695
-0.695
-0.695
-0.7
-0.71
-0.72
-0.73
-0.74
-0.75
-0.745
-0.75
-0.745
-0.745
-0.735
-0.72
-0.725
-0.73
-0.735
-0.735
-0.75
-0.755
-0.75
-0.745
-0.745
-0.74
-0.735
-0.71
-0.7
-0.72
-0.72
-0.715
-0.725
-0.725
-0.72
-0.715
-0.71
-0.7
-0.69
-0.695
-0.68
-0.69
-0.695
-0.705
-0.705
-0.71
-0.715
-0.715
-0.71
-0.7
-0.7
-0.69
-0.685
-0.695
-0.705
-0.72
-0.725
-0.725
-0.73
-0.74
-0.74
-0.725
-0.715
-0.71
-0.71
-0.715
-0.71
-0.73
-0.74
-0.74
-0.74
-0.75
-0.74
-0.74
-0.74
-0.74
-0.735
-0.74
-0.74
-0.765
-0.75
-0.755
-0.76
-0.755
-0.755
-0.75
-0.74
-0.735
-0.74
-0.75
-0.745
-0.75
-0.765
-0.77
-0.765
-0.77
-0.765
-0.76
-0.755
-0.75
-0.755
-0.76
-0.765
-0.765
-0.775
-0.775
-0.775
-0.77
-0.775
-0.78
-0.75
-0.75
-0.75
-0.755
-0.76
-0.76
-0.765
-0.78
-0.775
-0.785
-0.765
-0.77
-0.77
-0.76
-0.76
-0.755
-0.77
-0.785
-0.785
-0.775
-0.79
-0.79
-0.78
-0.78
-0.77
-0.775
-0.77
-0.78
-0.785
-0.785
-0.79
-0.795
-0.79
-0.775
-0.78
-0.77
-0.755
-0.755
-0.765
-0.78
-0.775
-0.78
-0.785
-0.785
-0.78
-0.775
-0.775
-0.765
-0.75
-0.74
-0.745
-0.75
-0.735
-0.735
-0.735
-0.73
-0.72
-0.695
-0.68
-0.67
-0.655
-0.645
-0.645
-0.635
-0.63
-0.625
-0.63
-0.635
-0.635
-0.65
-0.65
-0.65
-0.65
-0.64
-0.635
-0.635
-0.64
-0.66
-0.67
-0.7
-0.7
-0.71
-0.715
-0.73
-0.73
-0.735
-0.74
-0.75
-0.755
-0.76
-0.775
-0.775
-0.77
-0.78
-0.78
-0.775
-0.775
-0.765
-0.765
-0.775
-0.77
-0.77
-0.78
-0.775
-0.785
-0.8
-0.78
-0.78
-0.775
-0.76
-0.755
-0.75
-0.765
-0.765
-0.77
-0.77
-0.775
-0.745
-0.73
-0.73
-0.715
-0.72
-0.705
-0.68
-0.65
-0.595
-0.505
-0.365
-0.175
0.08
0.405
0.77
1.16
1.455
1.625
1.58
1.31
0.815
0.19
-0.45
-1.035
-1.42
-1.57
-1.505
-1.305
-1.07
-0.85
-0.7
-0.625
-0.595
-0.605
-0.64
-0.665
-0.69
-0.695
-0.695
-0.695
-0.68
-0.67
-0.66
-0.67
-0.68
-0.675
-0.675
-0.685
-0.68
-0.68
-0.67
-0.66
-0.655
-0.66
-0.665
-0.665
-0.67
-0.665
-0.675
-0.67
-0.665
-0.665
-0.655
-0.645
-0.645
-0.64
-0.645
-0.65
-0.66
-0.66
-0.655
-0.66
-0.67
-0.66
-0.645
-0.635
-0.635
-0.64
-0.645
-0.635
-0.645
-0.655
-0.65
-0.65
-0.655
-0.64
-0.635
-0.63
-0.62
-0.625
-0.635
-0.63
-0.64
-0.655
-0.645
-0.65
-0.665
-0.645
-0.64
-0.62
-0.63
-0.615
-0.62
-0.615
-0.62
-0.625
-0.625
-0.635
-0.635
-0.635
-0.615
-0.615
-0.605
-0.59
-0.595
-0.6
-0.615
-0.615
-0.62
-0.605
-0.61
-0.59
-0.585
-0.57
-0.57
-0.565
-0.565
-0.565
-0.58
-0.57
-0.585
-0.575
-0.575
-0.56
-0.555
-0.555
-0.54
-0.555
-0.54
-0.565
-0.565
-0.58
-0.585
-0.585
-0.575
-0.575
-0.56
-0.555
-0.54
-0.545
-0.56
-0.545
-0.555
-0.56
-0.57
-0.565
-0.58
-0.58
-0.58
-0.58
-0.59
-0.59
-0.605
-0.625
-0.63
-0.665
-0.675
-0.705
-0.715
-0.73
-0.725
-0.735
-0.73
-0.725
-0.735
-0.74
-0.755
-0.755
-0.76
-0.77
-0.77
-0.77
-0.775
-0.765
-0.76
-0.76
-0.76
-0.765
-0.77
-0.775
-0.775
-0.78
-0.775
-0.765
-0.75
-0.75
-0.735
-0.74
-0.745
-0.735
-0.755
-0.75
-0.76
-0.75
-0.76
-0.74
-0.73
-0.72
-0.715
-0.71
-0.715
-0.705
-0.71
-0.71
-0.71
-0.72
-0.72
-0.715
-0.715
-0.71
-0.71
-0.7
-0.7
-0.705
-0.715
-0.705
-0.715
-0.715
-0.72
-0.72
-0.71
-0.71
-0.7
-0.705
-0.71
-0.71
-0.72
-0.725
-0.72
-0.74
-0.745
-0.735
-0.74
-0.73
-0.725
-0.72
-0.73
-0.725
-0.74
-0.77
-0.775
-0.775
-0.75
-0.75
-0.735
-0.745
-0.74
-0.725
-0.735
-0.735
-0.74
-0.74
-0.74
-0.76
-0.745
-0.75
-0.75
-0.75
-0.75
-0.75
-0.76
-0.76
-0.74
-0.74
-0.735
-0.74
-0.725
-0.705
-0.695
-0.68
-0.665
-0.655
-0.65
-0.64
-0.65
-0.63
-0.625
-0.615
-0.595
-0.58
-0.57
-0.575
-0.58
-0.58
-0.58
-0.585
-0.58
-0.58
-0.6
-0.6
-0.625
-0.63
-0.625
-0.64
-0.64
-0.655
-0.685
-0.7
-0.72
-0.725
-0.74
-0.735
-0.73
-0.745
-0.72
-0.715
-0.71
-0.7
-0.705
-0.705
-0.73
-0.725
-0.745
-0.75
-0.765
-0.75
-0.745
-0.725
-0.72
-0.705
-0.705
-0.715
-0.715
-0.72
-0.715
-0.71
-0.715
-0.7
-0.685
-0.665
-0.66
-0.65
-0.64
-0.65
-0.64
-0.625
-0.59
-0.515
-0.385
-0.185
0.1
0.455
0.89
1.275
1.56
1.665
1.48
1.045
0.405
-0.235
-0.875
-1.37
-1.49
-1.375
-1.13
-0.865
-0.665
-0.53
-0.475
-0.475
-0.51
-0.545
-0.565
-0.58
-0.58
-0.575
-0.55
-0.55
-0.55
-0.565
-0.565
-0.575
-0.57
-0.57
-0.545
-0.555
-0.545
-0.53
-0.52
-0.51
-0.515
-0.515
-0.515
-0.515
-0.525
-0.53
-0.515
-0.52
-0.51
-0.505
-0.495
-0.505
-0.505
-0.49
-0.5
-0.495
-0.52
-0.51
-0.51
-0.51
-0.51
-0.5
-0.48
-0.47
-0.47
-0.465
-0.485
-0.49
-0.495
-0.515
-0.51
-0.48
-0.48
-0.475
-0.465
-0.455
-0.46
-0.47
-0.475
-0.485
-0.48
-0.485
-0.48
-0.47
-0.45
-0.445
-0.445
-0.43
-0.425
-0.415
-0.42
-0.425
-0.43
-0.425
-0.43
-0.415
-0.41
-0.4
-0.385
-0.385
-0.38
-0.38
-0.375
-0.39
-0.4
-0.4
-0.4
-0.39
-0.37
-0.36
-0.35
-0.33
-0.34
-0.335
-0.34
-0.335
-0.345
-0.345
-0.34
-0.345
-0.335
-0.34
-0.315
-0.315
-0.325
-0.335
-0.335
-0.335
-0.355
-0.355
-0.35
-0.345
-0.345
-0.35
-0.345
-0.34
-0.345
-0.35
-0.375
-0.39
-0.405
-0.43
-0.44
-0.45
-0.46
-0.47
-0.495
-0.51
-0.52
-0.54
-0.565
-0.58
-0.585
-0.59
-0.595
-0.595
-0.595
-0.59
-0.6
-0.585
-0.605
-0.61
-0.615
-0.62
-0.615
-0.63
-0.64
-0.63
-0.625
-0.63
-0.61
-0.61
-0.615
-0.615
-0.625
-0.625
-0.63
-0.625
-0.63
-0.625
-0.615
-0.605
-0.585
-0.58
-0.58
-0.585
-0.59
-0.59
-0.6
-0.59
-0.59
-0.585
-0.575
-0.57
-0.57
-0.56
-0.57
-0.565
-0.57
-0.575
-0.57
-0.57
-0.58
-0.585
-0.585
-0.58
-0.585
-0.585
-0.585
-0.59
-0.595
-0.6
-0.615
-0.62
-0.615
-0.61
-0.61
-0.605
-0.61
-0.6
-0.61
-0.615
-0.61
-0.615
-0.62
-0.635
-0.635
-0.63
-0.64
-0.635
-0.615
-0.61
-0.61
-0.615
-0.625
-0.64
-0.64
-0.645
-0.635
-0.64
-0.635
-0.635
-0.62
-0.6
-0.615
-0.605
-0.615
-0.59
-0.59
-0.58
-0.57
-0.545
-0.545
-0.515
-0.505
-0.475
-0.48
-0.46
-0.475
-0.5
-0.51
-0.505
-0.515
-0.51
-0.495
-0.495
-0.495
-0.52
-0.515
-0.525
-0.55
-0.58
-0.605
-0.625
-0.645
-0.65
-0.65
-0.66
-0.665
-0.64
-0.64
-0.64
-0.64
-0.655
-0.67
-0.685
-0.685
-0.68
-0.675
-0.68
-0.68
-0.675
-0.665
-0.67
-0.69
-0.69
-0.685
-0.68
-0.685
-0.685
-0.67
-0.65
-0.64
-0.63
-0.625
-0.62
-0.61
-0.62
-0.615
-0.605
-0.61
-0.585
-0.525
-0.425
-0.27
-0.04
0.255
0.64
1.055
1.42
1.705
1.795
1.62
1.205
0.565
-0.075
-0.715
-1.285
-1.475
-1.41
-1.195
-0.93
-0.71
-0.545
-0.46
-0.45
-0.46
-0.495
-0.52
-0.555
-0.575
-0.575
-0.575
-0.57
-0.57
-0.57
-0.565
-0.56
-0.56
-0.56
-0.555
-0.535
-0.535
-0.55
-0.555
-0.56
-0.565
-0.55
-0.57
-0.56
-0.555
-0.54
-0.535
-0.525
-0.515
-0.525
-0.53
-0.54
-0.54
-0.545
-0.535
-0.53
-0.53
-0.53
-0.525
-0.525
-0.515
-0.515
-0.52
-0.525
-0.54
-0.54
-0.55
-0.535
-0.52
-0.525
-0.52
-0.5
-0.51
-0.495
-0.505
-0.5
-0.51
-0.515
-0.51
-0.505
-0.505
-0.485
-0.475
-0.47
-0.465
-0.465
-0.47
-0.47
-0.48
-0.475
-0.485
-0.475
-0.45
-0.455
-0.43
-0.43
-0.435
-0.435
-0.435
-0.435
-0.445
-0.45
-0.435
-0.42
-0.39
-0.385
-0.375
-0.365
-0.355
-0.355
-0.365
-0.37
-0.375
-0.37
-0.37
-0.36
-0.345
-0.33
-0.325
-0.32
-0.31
-0.32
-0.325
-0.335
-0.34
-0.34
-0.35
-0.34
-0.34
-0.33
-0.345
-0.335
-0.345
-0.345
-0.36
-0.375
-0.38
-0.415
-0.435
-0.445
-0.46
-0.48
-0.485
-0.505
-0.51
-0.53
-0.545
-0.565
-0.585
-0.605
-0.62
-0.62
-0.625
-0.635
-0.63
-0.63
-0.63
-0.65
-0.65
-0.65
-0.66
-0.66
-0.66
-0.665
-0.68
-0.665
-0.665
-0.65
-0.65
-0.655
-0.66
-0.66
-0.67
-0.675
-0.68
-0.67
-0.665
-0.655
-0.655
-0.64
-0.645
-0.635
-0.635
-0.625
-0.63
-0.625
-0.625
-0.625
-0.615
-0.595
-0.595
-0.585
-0.59
-0.59
-0.59
-0.6
-0.61
-0.615
-0.615
-0.625
-0.615
-0.6
-0.605
-0.585
-0.585
-0.595
-0.61
-0.6
-0.62
-0.63
-0.625
-0.63
-0.62
-0.625
-0.615
-0.61
-0.615
-0.625
-0.63
-0.655
-0.675
-0.67
-0.66
-0.66
-0.65
-0.64
-0.64
-0.63
-0.64
-0.635
-0.635
-0.635
-0.665
-0.67
-0.665
-0.66
-0.66
-0.655
-0.655
-0.65
-0.65
-0.66
-0.665
-0.675
-0.67
-0.675
-0.68
-0.67
-0.66
-0.65
-0.65
-0.63
-0.625
-0.615
-0.61
-0.605
-0.595
-0.595
-0.58
-0.57
-0.565
-0.54
-0.53
-0.52
-0.525
-0.505
-0.5
-0.515
-0.52
-0.525
-0.54
-0.53
-0.53
-0.52
-0.515
-0.495
-0.52
-0.525
-0.545
-0.565
-0.585
-0.61
-0.645
-0.655
-0.66
-0.665
-0.685
-0.665
-0.67
-0.67
-0.685
-0.675
-0.685
-0.69
-0.7
-0.71
-0.695
-0.7
-0.7
-0.685
-0.69
-0.69
-0.705
-0.705
-0.71
-0.715
-0.72
-0.715
-0.71
-0.715
-0.695
-0.685
-0.685
-0.69
-0.7
-0.69
-0.68
-0.69
-0.69
-0.675
-0.645
-0.65
-0.635
-0.62
-0.61
-0.585
-0.535
-0.44
-0.3
-0.085
0.205
0.57
0.99
1.39
1.685
1.805
1.665
1.285
0.65
0.01
-0.63
-1.27
-1.53
-1.48
-1.265
-0.98
-0.73
-0.56
-0.47
-0.455
-0.485
-0.545
-0.585
-0.62
-0.625
-0.62
-0.625
-0.61
-0.6
-0.575
-0.575
-0.58
-0.59
-0.595
-0.585
-0.6
-0.6
-0.605
-0.6
-0.58
-0.585
-0.57
-0.575
-0.57
-0.58
-0.575
-0.585
-0.59
-0.585
-0.59
-0.585
-0.57
-0.57
-0.565
-0.565
-0.58
-0.59
-0.585
-0.585
-0.6
-0.6
-0.6
-0.595
-0.59
-0.595
-0.58
-0.57
-0.575
-0.57
-0.585
-0.585
-0.59
-0.585
-0.585
-0.59
-0.585
-0.57
-0.57
-0.57
-0.56
-0.55
-0.575
-0.575
-0.585
-0.575
-0.585
-0.57
-0.565
-0.55
-0.535
-0.525
-0.52
-0.52
-0.53
-0.535
-0.545
-0.54
-0.53
-0.535
-0.515
-0.505
-0.49
-0.49
-0.495
-0.49
-0.505
-0.505
-0.51
-0.51
-0.5
-0.5
-0.48
-0.465
-0.455
-0.46
-0.455
-0.46
-0.455
-0.46
-0.455
-0.46
-0.455
-0.445
-0.435
-0.43
-0.415
-0.42
-0.43
-0.42
-0.43
-0.43
-0.44
-0.44
-0.435
-0.435
-0.425
-0.425
-0.415
-0.41
-0.415
-0.425
-0.435
-0.45
-0.47
-0.49
-0.51
-0.51
-0.525
-0.545
-0.555
-0.575
-0.59
-0.61
-0.645
-0.645
-0.665
-0.675
-0.68
-0.69
-0.7
-0.7
-0.695
-0.7
-0.705
-0.715
-0.71
-0.735
-0.75
-0.75
-0.735
-0.74
-0.735
-0.725
-0.71
-0.72
-0.73
-0.72
-0.73
-0.735
-0.73
-0.74
-0.73
-0.73
-0.715
-0.705
-0.695
-0.69
-0.7
-0.695
-0.695
-0.705
-0.705
-0.71
-0.71
-0.685
-0.705
-0.69
-0.68
-0.665
-0.66
-0.665
-0.695
-0.69
-0.69
-0.69
-0.69
-0.68
-0.68
-0.675
-0.665
-0.68
-0.675
-0.68
-0.685
-0.695
-0.7
-0.71
-0.71
-0.71
-0.71
-0.71
-0.695
-0.695
-0.705
-0.705
-0.73
-0.725
-0.73
-0.74
-0.75
-0.735
-0.725
-0.72
-0.715
-0.71
-0.715
-0.72
-0.725
-0.74
-0.74
-0.74
-0.745
-0.745
-0.735
-0.725
-0.73
-0.72
-0.72
-0.725
-0.72
-0.735
-0.745
-0.74
-0.735
-0.765
-0.745
-0.72
-0.72
-0.71
-0.705
-0.69
-0.665
-0.675
-0.66
-0.655
-0.655
-0.64
-0.62
-0.605
-0.585
-0.575
-0.56
-0.56
-0.56
-0.59
-0.605
-0.6
-0.605
-0.6
-0.595
-0.585
-0.59
-0.58
-0.575
-0.595
-0.61
-0.635
-0.66
-0.685
-0.705
-0.72
-0.725
-0.72
-0.715
-0.715
-0.715
-0.725
-0.73
-0.74
-0.75
-0.755
-0.755
-0.75
-0.77
-0.77
-0.745
-0.725
-0.74
-0.73
-0.745
-0.75
-0.76
-0.76
-0.765
-0.765
-0.755
-0.755
-0.725
-0.72
-0.72
-0.715
-0.715
-0.705
-0.71
-0.72
-0.715
-0.695
-0.68
-0.67
-0.665
-0.625
-0.575
-0.49
-0.37
-0.185
0.055
0.385
0.74
1.12
1.435
1.64
1.645
1.435
0.98
0.36
-0.28
-0.92
-1.385
-1.56
-1.495
-1.28
-1.01
-0.785
-0.62
-0.53
-0.52
-0.54
-0.585
-0.625
-0.66
-0.66
-0.67
-0.65
-0.635
-0.62
-0.62
-0.61
-0.62
-0.62
-0.62
-0.625
-0.63
-0.64
-0.635
-0.635
-0.61
-0.605
-0.605
-0.6
-0.6
-0.615
-0.61
-0.63
-0.635
-0.615
-0.615
-0.615
-0.6
-0.6
-0.59
-0.59
-0.595
-0.6
-0.595
-0.61
-0.61
-0.605
-0.605
-0.6
-0.59
-0.58
-0.585
-0.575
-0.575
-0.585
-0.585
-0.585
-0.6
-0.6
-0.6
-0.59
-0.605
-0.575
-0.565
-0.575
-0.57
-0.575
-0.57
-0.575
-0.575
-0.57
-0.57
-0.575
-0.57
-0.55
-0.54
-0.535
-0.545
-0.55
-0.54
-0.545
-0.54
-0.555
-0.55
-0.53
-0.535
-0.52
-0.51
-0.505
-0.5
-0.515
-0.515
-0.515
-0.52
-0.51
-0.51
-0.505
-0.48
-0.48
-0.47
-0.455
-0.48
-0.47
-0.46
-0.47
-0.47
-0.49
-0.47
-0.465
-0.46
-0.44
-0.43
-0.43
-0.445
-0.45
-0.46
-0.46
-0.46
-0.46
-0.455
-0.445
-0.44
-0.445
-0.425
-0.425
-0.435
-0.45
-0.465
-0.48
-0.495
-0.505
-0.53
-0.54
-0.555
-0.575
-0.58
-0.59
-0.62
-0.63
-0.65
-0.665
-0.69
-0.69
-0.695
-0.685
-0.69
-0.695
-0.685
-0.69
-0.705
-0.705
-0.715
-0.735
-0.74
-0.74
-0.73
-0.73
-0.715
-0.71
-0.71
-0.7
-0.69
-0.71
-0.705
-0.7
-0.71
-0.715
-0.71
-0.7
-0.7
-0.69
-0.69
-0.675
-0.675
-0.69
-0.685
-0.685
-0.69
-0.68
-0.7
-0.695
-0.68
-0.665
-0.655
-0.665
-0.655
-0.665
-0.665
-0.665
-0.68
-0.69
-0.695
-0.7
-0.68
-0.68
-0.67
-0.67
-0.67
-0.665
-0.685
-0.69
-0.7
-0.715
-0.705
-0.725
-0.71
-0.7
-0.7
-0.695
-0.695
-0.695
-0.7
-0.71
-0.705
-0.725
-0.73
-0.73
-0.73
-0.715
-0.705
-0.705
-0.705
-0.695
-0.715
-0.71
-0.715
-0.71
-0.7
-0.69
-0.675
-0.67
-0.64
-0.635
-0.635
-0.625
-0.615
-0.6
-0.59
-0.58
-0.585
-0.58
-0.59
-0.59
-0.58
-0.575
-0.57
-0.575
-0.575
-0.57
-0.59
-0.605
-0.605
-0.625
-0.63
-0.64
-0.65
-0.67
-0.685
-0.695
-0.715
-0.725
-0.735
-0.745
-0.74
-0.75
-0.745
-0.735
-0.74
-0.735
-0.745
-0.74
-0.735
-0.745
-0.75
-0.76
-0.765
-0.755
-0.76
-0.75
-0.745
-0.755
-0.75
-0.75
-0.755
-0.755
-0.755
-0.755
-0.75
-0.75
-0.73
-0.72
-0.7
-0.695
-0.695
-0.695
-0.685
-0.695
-0.695
-0.69
-0.67
-0.67
-0.63
-0.565
-0.475
-0.295
-0.035
0.285
0.695
1.11
1.455
1.68
1.685
1.45
0.975
0.335
-0.305
-0.945
-1.42
-1.545
-1.445
-1.205
-0.95
-0.725
-0.595
-0.535
-0.535
-0.555
-0.585
-0.6
-0.62
-0.62
-0.63
-0.63
-0.63
-0.615
-0.62
-0.605
-0.595
-0.595
-0.58
-0.58
-0.59
-0.595
-0.6
-0.595
-0.59
-0.59
-0.59
-0.585
-0.585
-0.58
-0.585
-0.585
-0.575
-0.58
-0.58
-0.59
-0.59
-0.59
-0.585
-0.59
-0.575
-0.565
-0.575
-0.555
-0.575
-0.57
-0.58
-0.575
-0.575
-0.58
-0.575
-0.57
-0.565
-0.565
-0.56
-0.555
-0.55
-0.55
-0.55
-0.555
-0.56
-0.55
-0.545
-0.54
-0.55
-0.54
-0.54
-0.525
-0.51
-0.525
-0.535
-0.535
-0.53
-0.53
-0.53
-0.515
-0.52
-0.52
-0.5
-0.49
-0.495
-0.495
-0.5
-0.49
-0.5
-0.485
-0.475
-0.47
-0.47
-0.46
-0.45
-0.44
-0.445
-0.43
-0.435
-0.45
-0.44
-0.43
-0.425
-0.42
-0.42
-0.405
-0.395
-0.39
-0.395
-0.395
-0.4
-0.405
-0.405
-0.425
-0.425
-0.425
-0.425
-0.405
-0.405
-0.395
-0.4
-0.39
-0.405
-0.4
-0.415
-0.425
-0.435
-0.44
-0.44
-0.45
-0.46
-0.47
-0.49
-0.51
-0.53
-0.56
-0.575
-0.595
-0.62
-0.615
-0.63
-0.64
-0.645
-0.645
-0.655
-0.665
-0.685
-0.695
-0.705
-0.71
-0.705
-0.715
-0.7
-0.705
-0.7
-0.695
-0.7
-0.705
-0.705
-0.715
-0.735
-0.74
-0.725
-0.725
-0.715
-0.705
-0.71
-0.69
-0.69
-0.69
-0.695
-0.695
-0.705
-0.695
-0.7
-0.71
-0.685
-0.685
-0.67
-0.68
-0.665
-0.67
-0.67
-0.675
-0.68
-0.68
-0.67
-0.67
-0.67
-0.66
-0.66
-0.655
-0.655
-0.66
-0.67
-0.67
-0.685
-0.685
-0.695
-0.695
-0.695
-0.7
-0.7
-0.695
-0.695
-0.695
-0.705
-0.72
-0.725
-0.72
-0.73
-0.73
-0.72
-0.72
-0.715
-0.695
-0.705
-0.71
-0.705
-0.7
-0.695
-0.69
-0.685
-0.67
-0.65
-0.63
-0.615
-0.605
-0.6
-0.58
-0.565
-0.57
-0.575
-0.585
-0.6
-0.61
-0.605
-0.595
-0.585
-0.575
-0.58
-0.575
-0.585
-0.6
-0.615
-0.64
-0.645
-0.66
-0.675
-0.715
-0.695
-0.705
-0.725
-0.73
-0.73
-0.76
-0.755
-0.765
-0.77
-0.76
-0.755
-0.76
-0.765
-0.755
-0.765
-0.76
-0.765
-0.775
-0.77
-0.775
-0.775
-0.775
-0.77
-0.76
-0.76
-0.755
-0.755
-0.75
-0.76
-0.755
-0.76
-0.765
-0.765
-0.755
-0.745
-0.735
-0.72
-0.705
-0.71
-0.7
-0.69
-0.67
-0.62
-0.535
-0.37
-0.135
0.185
0.585
1.03
1.425
1.71
1.795
1.635
1.215
0.585
-0.055
-0.695
-1.335
-1.575
-1.57
-1.37
-1.1
-0.855
-0.675
-0.58
-0.545
-0.565
-0.6
-0.645
-0.68
-0.685
-0.685
-0.67
-0.65
-0.65
-0.64
-0.64
-0.645
-0.66
-0.67
-0.67
-0.675
-0.665
-0.66
-0.66
-0.635
-0.63
-0.63
-0.64
-0.645
-0.655
-0.665
-0.655
-0.66
-0.66
-0.64
-0.635
-0.63
-0.635
-0.63
-0.63
-0.64
-0.64
-0.645
-0.64
-0.64
-0.62
-0.625
-0.62
-0.615
-0.605
-0.615
-0.61
-0.605
-0.625
-0.625
-0.625
-0.63
-0.61
-0.61
-0.61
-0.6
-0.59
-0.59
-0.595
-0.605
-0.61
-0.625
-0.615
-0.605
-0.59
-0.57
-0.56
-0.55
-0.55
-0.55
-0.545
-0.55
-0.565
-0.56
-0.565
-0.55
-0.55
-0.535
-0.53
-0.515
-0.51
-0.505
-0.5
-0.5
-0.505
-0.505
-0.495
-0.485
-0.49
-0.47
-0.465
-0.44
-0.44
-0.425
-0.43
-0.435
-0.425
-0.43
-0.425
-0.425
-0.4
-0.4
-0.4
-0.38
-0.38
-0.38
-0.38
-0.39
-0.395
-0.405
-0.39
-0.395
-0.395
-0.4
-0.41
-0.405
-0.435
-0.45
-0.47
-0.505
-0.525
-0.545
-0.575
-0.585
-0.605
-0.625
-0.63
-0.635
-0.63
-0.66
-0.675
-0.685
-0.715
-0.725
-0.725
-0.72
-0.73
-0.73
-0.725
-0.71
-0.725
-0.715
-0.725
-0.74
-0.735
-0.735
-0.76
-0.745
-0.76
-0.74
-0.735
-0.73
-0.735
-0.725
-0.74
-0.74
-0.74
-0.735
-0.735
-0.73
-0.72
-0.72
-0.705
-0.695
-0.695
-0.695
-0.685
-0.69
-0.695
-0.705
-0.7
-0.685
-0.68
-0.68
-0.67
-0.665
-0.65
-0.65
-0.67
-0.67
-0.68
-0.675
-0.675
-0.67
-0.66
-0.66
-0.655
-0.655
-0.655
-0.65
-0.66
-0.665
-0.68
-0.69
-0.695
-0.69
-0.675
-0.68
-0.68
-0.67
-0.68
-0.69
-0.7
-0.705
-0.705
-0.72
-0.71
-0.7
-0.695
-0.69
-0.685
-0.675
-0.67
-0.68
-0.685
-0.705
-0.695
-0.7
-0.7
-0.705
-0.705
-0.695
-0.69
-0.695
-0.685
-0.7
-0.7
-0.71
-0.715
-0.71
-0.705
-0.71
-0.695
-0.7
-0.695
-0.695
-0.695
-0.69
-0.695
-0.715
-0.705
-0.71
-0.715
-0.71
-0.695
-0.7
-0.69
-0.685
-0.685
-0.675
-0.69
-0.695
-0.71
-0.705
-0.695
-0.685
-0.675
-0.645
-0.62
-0.605
-0.595
-0.58
-0.585
-0.58
-0.585
-0.575
-0.565
-0.545
-0.555
-0.535
-0.545
-0.54
-0.545
-0.555
-0.555
-0.555
-0.56
-0.56
-0.565
-0.575
-0.585
-0.59
-0.595
-0.615
-0.63
-0.645
-0.665
-0.675
-0.685
-0.68
-0.69
-0.685
-0.69
-0.68
-0.68
-0.68
-0.68
-0.685
-0.69
-0.695
-0.695
-0.7
-0.71
-0.71
-0.7
-0.695
-0.695
-0.68
-0.685
-0.685
-0.69
-0.685
-0.695
-0.7
-0.695
-0.69
-0.67
-0.655
-0.655
-0.635
-0.625
-0.62
-0.61
-0.605
-0.61
-0.58
-0.505
-0.375
-0.15
0.15
0.535
0.975
1.395
1.72
1.865
1.77
1.39
0.785
0.145
-0.495
-1.135
-1.5
-1.475
-1.255
-0.97
-0.725
-0.54
-0.445
-0.435
-0.485
-0.55
-0.585
-0.62
-0.62
-0.62
-0.605
-0.59
-0.57
-0.565
-0.56
-0.58
-0.595
-0.585
-0.59
-0.585
-0.575
-0.58
-0.575
-0.565
-0.57
-0.575
-0.58
-0.58
-0.585
-0.585
-0.585
-0.585
-0.57
-0.58
-0.56
-0.56
-0.575
-0.57
-0.565
-0.575
-0.58
-0.59
-0.59
-0.585
-0.575
-0.565
-0.56
-0.555
-0.57
-0.57
-0.58
-0.585
-0.59
-0.59
-0.58
-0.565
-0.56
-0.555
-0.55
-0.54
-0.55
-0.545
-0.555
-0.56
-0.565
-0.575
-0.565
-0.54
-0.55
-0.535
-0.53
-0.53
-0.515
-0.52
-0.525
-0.525
-0.53
-0.54
-0.53
-0.55
-0.515
-0.515
-0.49
-0.49
-0.49
-0.49
-0.485
-0.485
-0.49
-0.5
-0.49
-0.49
-0.47
-0.46
-0.46
-0.445
-0.44
-0.44
-0.445
-0.445
-0.45
-0.455
-0.455
-0.445
-0.44
-0.435
-0.415
-0.41
-0.425
-0.42
-0.415
-0.43
-0.44
-0.435
-0.435
-0.425
-0.42
-0.41
-0.395
-0.405
-0.41
-0.42
-0.44
-0.45
-0.475
-0.5
-0.5
-0.52
-0.53
-0.53
-0.545
-0.55
-0.575
-0.585
-0.6
-0.625
-0.64
-0.66
-0.66
-0.66
-0.66
-0.665
-0.68
-0.675
-0.685
-0.685
-0.69
-0.695
-0.7
-0.71
-0.72
-0.7
-0.7
-0.705
-0.69
-0.69
-0.69
-0.68
-0.7
-0.7
-0.705
-0.71
-0.715
-0.7
-0.69
-0.685
-0.675
-0.67
-0.685
-0.675
-0.67
-0.67
-0.67
-0.675
-0.665
-0.67
-0.66
-0.65
-0.64
-0.65
-0.645
-0.64
-0.635
-0.635
-0.645
-0.645
-0.65
-0.645
-0.625
-0.63
-0.625
-0.625
-0.62
-0.64
-0.64
-0.65
-0.66
-0.66
-0.655
-0.655
-0.65
-0.64
-0.64
-0.635
-0.645
-0.665
-0.675
-0.675
-0.675
-0.685
-0.67
-0.67
-0.67
-0.665
-0.665
-0.665
-0.675
-0.665
-0.675
-0.685
-0.685
-0.69
-0.695
-0.695
-0.695
-0.685
-0.68
-0.68
-0.675
-0.675
-0.685
-0.685
-0.695
-0.69
-0.69
-0.69
-0.685
-0.685
-0.68
-0.68
-0.67
-0.685
-0.685
-0.69
-0.69
-0.705
-0.695
-0.7
-0.69
-0.695
-0.675
-0.66
-0.665
-0.67
-0.68
-0.68
-0.69
-0.69
-0.69
-0.695
-0.68
-0.675
-0.67
-0.665
-0.665
-0.675
-0.67
-0.66
-0.665
-0.645
-0.63
-0.61
-0.59
-0.585
-0.57
-0.555
-0.545
-0.53
-0.53
-0.525
-0.54
-0.545
-0.55
-0.55
-0.55
-0.555
-0.54
-0.535
-0.535
-0.53
-0.53
-0.555
-0.555
-0.565
-0.59
-0.61
-0.615
-0.625
-0.63
-0.65
-0.65
-0.655
-0.67
-0.665
-0.675
-0.675
-0.675
-0.685
-0.69
-0.685
-0.685
-0.68
-0.69
-0.695
-0.7
-0.7
-0.7
-0.695
-0.695
-0.69
-0.69
-0.68
-0.685
-0.68
-0.68
-0.695
-0.705
-0.695
-0.7
-0.695
-0.69
-0.685
-0.66
-0.65
-0.635
-0.64
-0.63
-0.63
-0.625
-0.63
-0.625
-0.615
-0.6
-0.555
-0.5
-0.37
-0.19
0.075
0.435
0.84
1.255
1.6
1.76
1.66
1.265
0.645
0.005
-0.635
-1.275
-1.505
-1.455
-1.255
-0.985
-0.75
-0.59
-0.495
-0.48
-0.49
-0.52
-0.55
-0.565
-0.58
-0.575
-0.57
-0.56
-0.57
-0.565
-0.57
-0.565
-0.565
-0.555
-0.555
-0.55
-0.545
-0.54
-0.545
-0.545
-0.545
-0.545
-0.555
-0.56
-0.535
-0.555
-0.54
-0.535
-0.53
-0.52
-0.53
-0.53
-0.535
-0.55
-0.55
-0.54
-0.545
-0.54
-0.54
-0.525
-0.525
-0.525
-0.54
-0.545
-0.54
-0.545
-0.55
-0.56
-0.53
-0.525
-0.53
-0.52
-0.52
-0.51
-0.51
-0.51
-0.51
-0.52
-0.53
-0.53
-0.53
-0.535
-0.52
-0.525
-0.51
-0.505
-0.505
-0.515
-0.52
-0.51
-0.515
-0.5
-0.505
-0.485
-0.475
-0.47
-0.46
-0.465
-0.465
-0.475
-0.47
-0.475
-0.475
-0.47
-0.455
-0.455
-0.45
-0.43
-0.425
-0.43
-0.43
-0.435
-0.43
-0.43
-0.44
-0.425
-0.41
-0.41
-0.4
-0.39
-0.38
-0.39
-0.4
-0.405
-0.395
-0.405
-0.425
-0.41
-0.425
-0.41
-0.395
-0.405
-0.38
-0.38
-0.375
-0.375
-0.385
-0.39
-0.4
-0.405
-0.41
-0.41
-0.415
-0.42
-0.425
-0.42
-0.435
-0.465
-0.485
-0.51
-0.525
-0.555
-0.575
-0.565
-0.58
-0.595
-0.59
-0.6
-0.61
-0.61
-0.625
-0.63
-0.645
-0.655
-0.65
-0.655
-0.655
-0.65
-0.635
-0.635
-0.645
-0.65
-0.645
-0.66
-0.66
-0.665
-0.66
-0.655
-0.63
-0.635
-0.625
-0.64
-0.63
-0.635
-0.645
-0.655
-0.65
-0.645
-0.645
-0.63
-0.635
-0.625
-0.605
-0.6
-0.605
-0.605
-0.585
-0.615
-0.615
-0.615
-0.62
-0.605
-0.605
-0.6
-0.585
-0.6
-0.585
-0.595
-0.6
-0.615
-0.615
-0.62
-0.625
-0.63
-0.62
-0.605
-0.605
-0.615
-0.63
-0.64
-0.64
-0.635
-0.635
-0.64
-0.645
-0.635
-0.63
-0.63
-0.625
-0.635
-0.64
-0.65
-0.655
-0.66
-0.66
-0.67
-0.675
-0.67
-0.665
-0.665
-0.65
-0.655
-0.66
-0.655
-0.66
-0.66
-0.65
-0.645
-0.64
-0.62
-0.595
-0.575
-0.57
-0.565
-0.555
-0.555
-0.545
-0.53
-0.53
-0.525
-0.515
-0.505
-0.52
-0.52
-0.505
-0.505
-0.505
-0.51
-0.51
-0.53
-0.56
-0.57
-0.57
-0.585
-0.6
-0.61
-0.62
-0.65
-0.655
-0.68
-0.685
-0.695
-0.695
-0.695
-0.68
-0.685
-0.68
-0.675
-0.67
-0.68
-0.69
-0.695
-0.7
-0.715
-0.73
-0.72
-0.715
-0.705
-0.705
-0.7
-0.68
-0.685
-0.69
-0.69
-0.695
-0.685
-0.685
-0.68
-0.675
-0.665
-0.65
-0.635
-0.625
-0.625
-0.615
-0.605
-0.59
-0.55
-0.47
-0.335
-0.13
0.15
0.5
0.885
1.285
1.6
1.75
1.665
1.325
0.74
0.1
-0.54
-1.18
-1.505
-1.49
-1.3
-1.01
-0.75
-0.57
-0.5
-0.48
-0.5
-0.54
-0.565
-0.57
-0.58
-0.57
-0.57
-0.555
-0.55
-0.54
-0.555
-0.565
-0.57
