Lead II
-0.96
-0.975
-0.97
-0.985
-1.0
-0.995
-0.985
-0.985
-0.98
-0.965
-0.975
-0.965
-0.965
-0.98
-0.995
-1.045
-1.095
-1.145
-1.225
-1.205
-1.155
-1.055
-0.92
-0.715
-0.49
-0.25
-0.01
0.195
0.37
0.53
0.67
0.75
0.785
0.785
0.745
0.695
0.63
0.55
0.395
0.145
-0.15
-0.505
-0.77
-0.925
-1.01
-1.005
-0.96
-0.9
-0.865
-0.85
-0.9
-0.95
-1.025
-1.065
-1.09
-1.09
-1.095
-1.09
-1.095
-1.085
-1.075
-1.06
-1.075
-1.065
-1.1
-1.095
-1.09
-1.07
-1.07
-1.06
-1.055
-1.065
-1.055
-1.055
-1.07
-1.07
-1.085
-1.1
-1.09
-1.075
-1.075
-1.065
-1.075
-1.06
-1.07
-1.07
-1.085
-1.085
-1.105
-1.09
-1.085
-1.09
-1.08
-1.09
-1.08
-1.085
-1.085
-1.075
-1.07
-1.09
-1.11
-1.105
-1.085
-1.08
-1.065
-1.08
-1.055
-1.05
-1.04
-1.05
-1.05
-1.07
-1.075
-1.07
-1.055
-1.045
-1.02
-1.015
-1.015
-1.015
-1.005
-0.99
-0.985
-0.99
-0.995
-1.0
-0.99
-0.97
-0.95
-0.955
-0.945
-0.935
-0.945
-0.935
-0.925
-0.91
-0.935
-0.945
-0.94
-0.935
-0.925
-0.925
-0.94
-0.94
-0.95
-0.94
-0.94
-0.965
-1.005
-0.985
-0.97
-0.98
-0.965
-0.97
-0.975
-0.975
-0.95
-0.965
-0.975
-1.0
-1.025
-1.025
-1.03
-1.02
-1.01
-1.025
-1.025
-1.02
-1.035
-1.04
-1.055
-1.06
-1.08
-1.07
-1.08
-1.085
-1.095
-1.095
-1.08
-1.075
-1.08
-1.095
-1.095
-1.11
-1.115
-1.105
-1.105
-1.115
-1.11
-1.085
-1.085
-1.05
-1.04
-1.05
-1.065
-1.08
-1.08
-1.07
-1.06
-1.065
-1.055
-1.055
-1.05
-1.025
-1.035
-1.045
-1.045
-1.06
-1.055
-1.05
-1.05
-1.05
-1.035
-1.015
-0.995
-1.0
-0.985
-1.0
-0.99
-0.99
-0.955
-0.94
-0.91
-0.905
-0.89
-0.85
-0.825
-0.81
-0.8
-0.81
-0.83
-0.835
-0.835
-0.835
-0.84
-0.85
-0.865
-0.87
-0.87
-0.865
-0.875
-0.885
-0.905
-0.95
-0.975
-1.0
-1.04
-1.04
-1.05
-1.045
-1.045
-1.05
-1.055
-1.07
-1.085
-1.09
-1.095
-1.1
-1.09
-1.11
-1.12
-1.1
-1.075
-1.075
-1.065
-1.08
-1.115
-1.13
-1.15
-1.16
-1.21
-1.25
-1.32
-1.33
-1.315
-1.255
-1.155
-1.025
-0.865
-0.685
-0.485
-0.28
-0.075
0.115
0.3
0.465
0.59
0.685
0.705
0.695
0.645
0.57
0.485
0.37
0.145
-0.165
-0.515
-0.795
-0.995
-1.075
-1.07
-1.035
-0.97
-0.975
-0.965
-0.98
-1.035
-1.105
-1.145
-1.155
-1.175
-1.17
-1.19
-1.185
-1.195
-1.205
-1.195
-1.205
-1.22
-1.205
-1.195
-1.16
-1.14
-1.13
-1.145
-1.145
-1.175
-1.185
-1.175
-1.165
-1.17
-1.185
-1.2
-1.185
-1.175
-1.16
-1.165
-1.165
-1.16
-1.19
-1.195
-1.195
-1.195
-1.2
-1.17
-1.175
-1.17
-1.155
-1.16
-1.155
-1.175
-1.185
-1.185
-1.185
-1.18
-1.18
-1.175
-1.175
-1.165
-1.155
-1.145
-1.15
-1.16
-1.17
-1.18
-1.18
-1.17
-1.145
-1.145
-1.14
-1.125
-1.135
-1.11
-1.105
-1.11
-1.1
-1.12
-1.125
-1.11
-1.1
-1.075
-1.06
-1.06
-1.035
-1.04
-1.03
-1.03
-1.04
-1.055
-1.055
-1.055
-1.03
-1.025
-1.015
-1.015
-1.005
-1.0
-1.025
-1.01
-1.03
-1.05
-1.07
-1.07
-1.04
-1.02
-1.02
-1.03
-1.025
-1.035
-1.04
-1.04
-1.045
-1.065
-1.07
-1.075
-1.075
-1.08
-1.065
-1.045
-1.065
-1.075
-1.075
-1.095
-1.085
-1.1
-1.13
-1.135
-1.125
-1.125
-1.095
-1.1
-1.095
-1.115
-1.125
-1.13
-1.12
-1.13
-1.145
-1.155
-1.165
-1.17
-1.16
-1.145
-1.13
-1.13
-1.13
-1.14
-1.14
-1.14
-1.135
-1.145
-1.135
-1.125
-1.135
-1.11
-1.11
-1.115
-1.125
-1.14
-1.165
-1.14
-1.125
-1.135
-1.13
-1.125
-1.095
-1.09
-1.075
-1.08
-1.095
-1.1
-1.12
-1.1
-1.105
-1.105
-1.105
-1.11
-1.095
-1.05
-1.02
-1.015
-1.035
-1.055
-1.075
-1.08
-1.075
-1.045
-1.03
-0.99
-0.965
-0.955
-0.915
-0.9
-0.87
-0.875
-0.865
-0.875
-0.87
-0.885
-0.89
-0.875
-0.9
-0.885
-0.875
-0.875
-0.91
-0.935
-0.94
-0.965
-0.965
-0.965
-0.965
-0.995
-1.025
-1.025
-1.045
-1.05
-1.06
-1.07
-1.11
-1.14
-1.135
-1.13
-1.145
-1.135
-1.145
-1.135
-1.12
-1.12
-1.115
-1.12
-1.125
-1.15
-1.155
-1.145
-1.155
-1.195
-1.22
-1.27
-1.295
-1.315
-1.305
-1.245
-1.14
-0.985
-0.73
-0.51
-0.325
-0.135
0.035
0.2
0.395
0.535
0.615
0.66
0.665
0.675
0.645
0.6
0.525
0.39
0.175
-0.145
-0.465
-0.775
-0.98
-1.095
-1.125
-1.085
-1.015
-0.965
-0.945
-0.965
-1.025
-1.08
-1.14
-1.175
-1.2
-1.22
-1.225
-1.245
-1.235
-1.225
-1.225
-1.2
-1.2
-1.2
-1.21
-1.205
-1.215
-1.205
-1.2
-1.225
-1.215
-1.22
-1.205
-1.205
-1.21
-1.215
-1.21
-1.215
-1.2
-1.195
-1.19
-1.22
-1.225
-1.22
-1.21
-1.195
-1.205
-1.2
-1.195
-1.195
-1.19
-1.2
-1.225
-1.23
-1.22
-1.215
-1.22
-1.21
-1.21
-1.21
-1.19
-1.195
-1.18
-1.2
-1.21
-1.2
-1.215
-1.21
-1.195
-1.195
-1.19
-1.15
-1.14
-1.13
-1.13
-1.135
-1.155
-1.135
-1.125
-1.135
-1.115
-1.095
-1.095
-1.09
-1.085
-1.07
-1.07
-1.075
-1.09
-1.11
-1.1
-1.07
-1.05
-1.02
-1.02
-1.045
-1.025
-1.015
-1.025
-1.02
-1.025
-1.04
-1.045
-1.035
-1.035
-1.055
-1.05
-1.055
-1.05
-1.055
-1.05
-1.06
-1.07
-1.08
-1.1
-1.085
-1.075
-1.055
-1.05
-1.065
-1.065
-1.06
-1.07
-1.08
-1.09
-1.085
-1.1
-1.125
-1.135
-1.135
-1.13
-1.125
-1.115
-1.115
-1.125
-1.135
-1.15
-1.17
-1.16
-1.16
-1.17
-1.15
-1.16
-1.17
-1.145
-1.125
-1.125
-1.125
-1.125
-1.13
-1.14
-1.135
-1.15
-1.155
-1.155
-1.145
-1.125
-1.105
-1.1
-1.115
-1.125
-1.13
-1.12
-1.135
-1.125
-1.115
-1.12
-1.11
-1.095
-1.09
-1.085
-1.085
-1.095
-1.095
-1.08
-1.06
-1.06
-1.06
-1.05
-1.045
-1.035
-1.04
-1.025
-1.02
-0.995
-0.965
-0.94
-0.905
-0.895
-0.86
-0.865
-0.855
-0.84
-0.835
-0.845
-0.865
-0.855
-0.865
-0.89
-0.905
-0.915
-0.905
-0.895
-0.9
-0.895
-0.925
-0.975
-1.01
-1.03
-1.045
-1.045
-1.07
-1.1
-1.09
-1.08
-1.065
-1.055
-1.08
-1.1
-1.105
-1.105
-1.115
-1.115
-1.13
-1.115
-1.09
-1.065
-1.07
-1.07
-1.105
-1.125
-1.165
-1.21
-1.255
-1.31
-1.33
-1.315
-1.255
-1.135
-0.96
-0.745
-0.55
-0.335
-0.145
0.025
0.205
0.37
0.48
0.605
0.63
0.67
0.68
0.66
0.595
0.495
0.335
0.095
-0.22
-0.535
-0.825
-1.01
-1.105
-1.1
-1.02
-0.955
-0.93
-0.935
-0.98
-1.05
-1.08
-1.115
-1.155
-1.18
-1.19
-1.17
-1.16
-1.15
-1.155
-1.155
-1.165
-1.18
-1.165
-1.155
-1.16
-1.17
-1.175
-1.185
-1.165
-1.145
-1.14
-1.14
-1.165
-1.17
-1.19
-1.18
-1.16
-1.18
-1.165
-1.17
-1.175
-1.135
-1.14
-1.135
-1.155
-1.17
-1.195
-1.17
-1.175
-1.175
-1.18
-1.17
-1.15
-1.14
-1.14
-1.155
-1.16
-1.17
-1.175
-1.17
-1.17
-1.16
-1.16
-1.14
-1.14
-1.115
-1.1
-1.11
-1.115
-1.125
-1.115
-1.12
-1.1
-1.11
-1.11
-1.09
-1.09
-1.095
-1.085
-1.065
-1.08
-1.07
-1.05
-1.045
-1.05
-1.025
-1.01
-0.995
-0.98
-0.97
-0.97
-0.97
-0.98
-0.985
-0.985
-0.98
-0.98
-0.995
-1.005
-0.995
-1.0
-0.98
-0.985
-0.995
-1.015
-1.02
-1.015
-1.02
-1.025
-1.035
-1.045
-1.02
-0.99
-0.995
-0.995
-1.0
-1.035
-1.04
-1.03
-1.03
-1.06
-1.055
-1.07
-1.065
-1.045
-1.03
-1.05
-1.06
-1.075
-1.105
-1.095
-1.105
-1.095
-1.095
-1.105
-1.1
-1.105
-1.075
-1.085
-1.085
-1.085
-1.1
-1.115
-1.11
-1.115
-1.115
-1.095
-1.08
-1.09
-1.06
-1.065
-1.095
-1.075
-1.09
-1.08
-1.09
-1.09
-1.09
-1.08
-1.085
-1.08
-1.065
-1.06
-1.085
-1.095
-1.1
-1.085
-1.07
-1.08
-1.085
-1.085
-1.075
-1.045
-1.02
-1.01
-1.02
-1.035
-1.04
-1.045
-1.02
-1.02
-1.02
-0.985
-0.955
-0.915
-0.895
-0.875
-0.855
-0.865
-0.865
-0.86
-0.84
-0.87
-0.845
-0.84
-0.84
-0.835
-0.83
-0.84
-0.85
-0.88
-0.91
-0.92
-0.925
-0.925
-0.945
-0.97
-0.99
-1.01
-1.015
-1.025
-1.04
-1.06
-1.085
-1.105
-1.1
-1.105
-1.12
-1.13
-1.13
-1.115
-1.105
-1.1
-1.105
-1.12
-1.12
-1.11
-1.11
-1.11
-1.13
-1.15
-1.185
-1.225
-1.265
-1.295
-1.285
-1.21
-1.075
-0.88
-0.645
-0.43
-0.21
0.0
0.185
0.355
0.505
0.605
0.67
0.68
0.68
0.63
0.58
0.495
0.355
0.115
-0.21
-0.545
-0.84
-1.03
-1.13
-1.105
-1.06
-0.98
-0.965
-0.965
-1.01
-1.065
-1.1
-1.125
-1.135
-1.175
-1.205
-1.19
-1.195
-1.185
-1.185
-1.195
-1.19
-1.195
-1.17
-1.16
-1.135
-1.16
-1.145
-1.145
-1.155
-1.155
-1.165
-1.19
-1.175
-1.16
-1.16
-1.16
-1.17
-1.16
-1.16
-1.145
-1.14
-1.145
-1.16
-1.165
-1.16
-1.145
-1.145
-1.15
-1.14
-1.14
-1.13
-1.125
-1.14
-1.17
-1.17
-1.16
-1.15
-1.145
-1.135
-1.135
-1.125
-1.12
-1.115
-1.1
-1.11
-1.135
-1.135
-1.115
-1.105
-1.095
-1.095
-1.08
-1.085
-1.065
-1.05
-1.055
-1.07
-1.08
-1.08
-1.07
-1.045
-1.025
-1.03
-1.02
-1.035
-1.02
-0.995
-0.98
-0.99
-1.005
-1.005
-1.02
-0.99
-0.99
-0.98
-0.98
-0.985
-0.975
-0.975
-0.98
-0.98
-0.985
-1.0
-1.005
-1.0
-0.99
-0.985
-0.99
-0.99
-0.98
-0.985
-0.99
-1.015
-1.01
-1.03
-1.03
-1.025
-1.04
-1.045
-1.04
-1.045
-1.03
-1.035
-1.055
-1.085
-1.085
-1.085
-1.095
-1.095
-1.09
-1.1
-1.095
-1.085
-1.09
-1.11
-1.1
-1.11
-1.115
-1.115
-1.115
-1.115
-1.13
-1.12
-1.1
-1.085
-1.075
-1.095
-1.105
-1.09
-1.105
-1.095
-1.09
-1.085
-1.085
-1.085
-1.085
-1.065
-1.065
-1.075
-1.085
-1.085
-1.095
-1.09
-1.09
-1.09
-1.11
-1.11
-1.085
-1.06
-1.06
-1.06
-1.05
-1.065
-1.05
-1.04
-1.04
-1.035
-1.045
-1.03
-1.0
-0.965
-0.94
-0.925
-0.92
-0.915
-0.9
-0.885
-0.865
-0.865
-0.86
-0.855
-0.84
-0.84
-0.85
-0.85
-0.865
-0.885
-0.895
-0.915
-0.915
-0.92
-0.945
-0.945
-0.935
-0.93
-0.965
-1.015
-1.04
-1.075
-1.085
-1.09
-1.085
-1.095
-1.085
-1.09
-1.08
-1.085
-1.075
-1.075
-1.09
-1.115
-1.11
-1.115
-1.105
-1.11
-1.115
-1.11
-1.1
-1.1
-1.105
-1.14
-1.165
-1.225
-1.285
-1.325
-1.325
-1.29
-1.2
-1.055
-0.87
-0.66
-0.46
-0.255
-0.075
0.075
0.23
0.38
0.515
0.61
0.68
0.695
0.685
0.64
0.58
0.47
0.3
0.01
-0.335
-0.665
-0.94
-1.07
-1.12
-1.07
-1.03
-0.96
-0.94
-0.965
-1.01
-1.075
-1.135
-1.165
-1.18
-1.19
-1.205
-1.19
-1.19
-1.175
-1.185
-1.175
-1.175
-1.18
-1.195
-1.2
-1.18
-1.17
-1.175
-1.165
-1.165
-1.16
-1.155
-1.145
-1.145
-1.155
-1.165
-1.19
-1.18
-1.18
-1.165
-1.175
-1.185
-1.175
-1.165
-1.165
-1.175
-1.175
-1.18
-1.195
-1.205
-1.195
-1.185
-1.17
-1.17
-1.17
-1.145
-1.15
-1.14
-1.145
-1.18
-1.185
-1.175
-1.19
-1.17
-1.14
-1.13
-1.145
-1.14
-1.145
-1.145
-1.15
-1.13
-1.125
-1.14
-1.14
-1.13
-1.12
-1.095
-1.1
-1.105
-1.095
-1.08
-1.095
-1.08
-1.07
-1.085
-1.08
-1.06
-1.04
-1.02
-1.005
-1.015
-1.015
-1.025
-1.02
-1.01
-1.03
-1.025
-1.04
-1.035
-1.01
-1.015
-0.99
-1.0
-1.02
-1.03
-1.015
-1.005
-1.02
-1.035
-1.045
-1.05
-1.035
-1.025
-1.01
-1.005
-1.005
-1.025
-1.04
-1.035
-1.05
-1.035
-1.065
-1.085
-1.075
-1.05
-1.035
-1.045
-1.06
-1.065
-1.09
-1.08
-1.095
-1.085
-1.09
-1.105
-1.105
-1.095
-1.105
-1.085
-1.1
-1.11
-1.125
-1.135
-1.135
-1.135
-1.14
-1.12
-1.115
-1.105
-1.095
-1.095
-1.115
-1.125
-1.13
-1.115
-1.115
-1.13
-1.13
-1.12
-1.105
-1.095
-1.085
-1.085
-1.09
-1.1
-1.085
-1.095
-1.085
-1.105
-1.105
-1.105
-1.08
-1.08
-1.06
-1.045
-1.055
-1.075
-1.065
-1.06
-1.055
-1.07
-1.06
-1.06
-1.045
-1.02
-0.995
-0.97
-0.96
-0.955
-0.955
-0.93
-0.92
-0.915
-0.89
-0.875
-0.86
-0.84
-0.835
-0.825
-0.82
-0.835
-0.865
-0.855
-0.87
-0.89
-0.895
-0.9
-0.915
-0.885
-0.88
-0.88
-0.895
-0.95
-0.99
-1.025
-1.03
-1.065
-1.07
-1.06
-1.06
-1.075
-1.055
-1.07
-1.08
-1.11
-1.13
-1.135
-1.12
-1.11
-1.11
-1.105
-1.1
-1.08
-1.065
-1.08
-1.095
-1.12
-1.145
-1.195
-1.25
-1.295
-1.32
-1.31
-1.23
-1.08
-0.9
-0.675
-0.46
-0.265
-0.06
0.135
0.315
0.46
0.6
0.68
0.765
0.785
0.765
0.71
0.615
0.495
0.285
0.01
-0.315
-0.64
-0.875
-1.025
-1.065
-1.025
-0.975
-0.925
-0.93
-0.955
-1.01
-1.06
-1.125
-1.17
-1.21
-1.21
-1.205
-1.2
-1.17
-1.18
-1.175
-1.185
-1.185
-1.195
-1.19
-1.185
-1.195
-1.185
-1.155
-1.175
-1.175
-1.185
-1.195
-1.19
-1.19
-1.175
-1.205
-1.205
-1.19
-1.185
-1.17
-1.15
-1.175
-1.185
-1.165
-1.155
-1.165
-1.16
-1.175
-1.2
-1.21
-1.19
-1.175
-1.15
-1.15
-1.155
-1.15
-1.17
-1.155
-1.155
-1.16
-1.18
-1.175
-1.175
-1.145
-1.125
-1.13
-1.11
-1.115
-1.105
-1.11
-1.105
-1.12
-1.13
-1.135
-1.105
-1.09
-1.075
-1.065
-1.065
-1.06
-1.05
-1.04
-1.03
-1.035
-1.05
-1.045
-1.03
-0.995
-0.975
-0.97
-0.96
-0.97
-0.96
-0.965
-0.975
-0.985
-0.995
-0.995
-0.975
-0.96
-0.945
-0.955
-0.95
-0.965
-0.965
-0.965
-0.955
-0.98
-1.0
-0.99
-0.99
-0.97
-0.965
-0.955
-0.97
-0.99
-1.0
-1.01
-1.0
-1.025
-1.03
-1.04
-1.035
-1.015
-1.03
-1.025
-1.03
-1.035
-1.035
-1.05
-1.04
-1.035
-1.055
-1.07
-1.065
-1.075
-1.06
-1.065
-1.085
-1.08
-1.065
-1.06
-1.055
-1.07
-1.095
-1.09
-1.085
-1.075
-1.055
-1.065
-1.06
-1.055
-1.055
-1.04
-1.04
-1.045
-1.045
-1.065
-1.055
-1.05
-1.045
-1.035
-1.01
-1.01
-1.015
-1.005
-1.01
-1.025
-1.035
-1.025
-1.02
-1.01
-0.99
-0.98
-0.96
-0.955
-0.93
-0.93
-0.905
-0.895
-0.9
-0.86
-0.835
-0.81
-0.795
-0.77
-0.78
-0.78
-0.765
-0.76
-0.75
-0.795
-0.8
-0.815
-0.82
-0.83
-0.825
-0.82
-0.825
-0.83
-0.84
-0.87
-0.915
-0.965
-0.965
-0.97
-0.97
-0.97
-0.985
-1.005
-1.02
-1.005
-1.015
-1.01
-1.02
-1.025
-1.035
-1.04
-1.045
-1.02
-1.02
-1.025
-1.02
-1.04
-1.03
-1.05
-1.08
-1.13
-1.195
-1.25
-1.27
-1.245
-1.2
-1.115
-0.98
-0.785
-0.54
-0.335
-0.125
0.045
0.235
0.42
0.575
0.705
0.775
0.8
0.785
0.77
0.68
0.53
0.265
-0.075
-0.435
-0.74
-0.945
-1.025
-1.005
-0.95
-0.875
-0.835
-0.85
-0.885
-0.955
-1.02
-1.065
-1.09
-1.11
-1.105
-1.105
-1.11
-1.095
-1.08
-1.08
-1.08
-1.09
-1.095
-1.075
-1.09
-1.07
-1.08
-1.09
-1.085
-1.07
-1.085
-1.07
-1.07
-1.09
-1.085
-1.08
-1.065
-1.07
-1.075
-1.08
-1.075
-1.07
-1.055
-1.055
-1.055
-1.07
-1.075
-1.08
-1.09
-1.075
-1.075
-1.095
-1.095
-1.07
-1.04
-1.06
-1.06
-1.08
-1.1
-1.105
-1.09
-1.085
-1.065
-1.06
-1.07
-1.045
-1.04
-1.02
-1.03
-1.035
-1.03
-1.035
-1.03
-1.02
-1.02
-1.01
-0.995
-0.97
-0.98
-0.97
-0.965
-0.97
-0.96
-0.955
-0.94
-0.945
-0.925
-0.93
-0.92
-0.91
-0.9
-0.88
-0.895
-0.9
-0.905
-0.895
-0.895
-0.895
-0.885
-0.89
-0.89
-0.875
-0.89
-0.9
-0.905
-0.925
-0.94
-0.91
-0.905
-0.91
-0.91
-0.905
-0.91
-0.89
-0.895
-0.905
-0.915
-0.93
-0.95
-0.94
-0.94
-0.95
-0.935
-0.945
-0.96
-0.965
-0.965
-0.945
-0.965
-0.975
-0.995
-0.99
-0.99
-0.98
-0.99
-1.025
-1.02
-1.01
-1.0
-0.985
-0.99
-0.995
-1.01
-1.015
-1.015
-1.005
-0.995
-0.98
-0.985
-0.965
-0.955
-0.965
-0.98
-0.99
-0.99
-0.99
-0.985
-0.975
-0.98
-0.975
-0.96
-0.955
-0.955
-0.95
-0.96
-0.97
-0.99
-0.975
-0.96
-0.95
-0.93
-0.915
-0.92
-0.92
-0.91
-0.9
-0.885
-0.89
-0.885
-0.865
-0.845
-0.82
-0.785
-0.755
-0.745
-0.73
-0.73
-0.72
-0.72
-0.715
-0.735
-0.72
-0.74
-0.745
-0.735
-0.75
-0.76
-0.745
-0.78
-0.77
-0.775
-0.82
-0.86
-0.9
-0.9
-0.92
-0.925
-0.93
-0.94
-0.94
-0.945
-0.95
-0.955
-0.985
-0.99
-1.01
-1.01
-1.005
-1.005
-1.0
-0.995
-0.965
-0.965
-0.965
-0.985
-1.0
-1.045
-1.08
-1.14
-1.19
-1.205
-1.215
-1.175
-1.09
-0.965
-0.81
-0.605
-0.41
-0.22
-0.04
0.145
0.335
0.5
0.64
0.735
0.785
0.785
0.765
0.73
0.655
0.555
0.385
0.155
-0.16
-0.455
-0.71
-0.885
-0.955
-0.955
-0.91
-0.84
-0.81
-0.825
-0.855
-0.92
-0.965
-1.005
-1.03
-1.055
-1.06
-1.065
-1.085
-1.085
-1.07
-1.08
-1.095
-1.09
-1.095
-1.065
-1.055
-1.04
-1.04
-1.04
-1.045
-1.055
-1.065
-1.065
-1.07
-1.095
-1.08
-1.07
-1.06
-1.055
-1.045
-1.07
-1.065
-1.07
-1.08
-1.075
-1.075
-1.085
-1.09
-1.06
-1.055
-1.045
-1.045
-1.065
-1.075
-1.07
-1.055
-1.07
-1.06
-1.07
-1.08
-1.06
-1.04
-1.045
-1.025
-1.045
-1.045
-1.04
-1.035
-1.03
-1.02
-1.025
-1.03
-1.025
-0.99
-0.985
-0.96
-0.975
-0.985
-0.98
-0.99
-0.98
-0.99
-1.0
-0.98
-0.965
-0.945
-0.915
-0.9
-0.915
-0.905
-0.9
-0.905
-0.895
-0.895
-0.905
-0.905
-0.895
-0.875
-0.86
-0.865
-0.875
-0.89
-0.89
-0.885
-0.88
-0.9
-0.91
-0.915
-0.9
-0.905
-0.895
-0.895
-0.895
-0.9
-0.905
-0.925
-0.945
-0.94
-0.965
-0.94
-0.945
-0.935
-0.955
-0.945
-0.945
-0.95
-0.97
-0.97
-0.975
-0.99
-1.01
-1.01
-0.995
-0.985
-0.975
-0.965
-0.995
-0.995
-0.995
-1.0
-1.005
-1.005
-1.025
-1.015
-1.0
-0.995
-0.985
-0.985
-0.995
-0.995
-0.995
-1.005
-1.015
-1.005
-1.035
-1.025
-1.015
-0.985
-0.975
-0.96
-0.985
-1.01
-1.005
-0.99
-0.99
-0.985
-0.995
-1.005
-1.0
-0.995
-0.98
-0.965
-0.985
-0.98
-0.975
-0.975
-0.96
-0.965
-0.965
-0.97
-0.945
-0.94
-0.92
-0.9
-0.905
-0.905
-0.88
-0.845
-0.835
-0.815
-0.805
-0.8
-0.775
-0.755
-0.76
-0.75
-0.75
-0.76
-0.765
-0.795
-0.785
-0.785
-0.81
-0.82
-0.82
-0.825
-0.82
-0.805
-0.84
-0.86
-0.885
-0.95
-0.965
-0.97
-0.985
-1.005
-1.005
-1.01
-0.985
-0.985
-0.985
-1.0
-1.015
-1.035
-1.045
-1.045
-1.04
-1.045
-1.04
-1.035
-1.015
-1.01
-1.01
-1.035
-1.08
-1.125
-1.175
-1.225
-1.245
-1.245
-1.2
-1.125
-0.995
-0.815
-0.595
-0.4
-0.19
0.0
0.175
0.345
0.495
0.62
0.7
0.75
0.765
0.745
0.68
0.595
0.48
0.26
-0.025
-0.37
-0.665
-0.895
-1.02
-1.05
-1.0
-0.93
-0.87
-0.845
-0.87
-0.935
-1.01
-1.065
-1.085
-1.1
-1.105
-1.105
-1.12
-1.125
-1.135
-1.135
-1.115
-1.125
-1.13
-1.135
-1.125
-1.115
-1.11
-1.105
-1.1
-1.1
-1.1
-1.1
-1.11
-1.125
-1.145
-1.145
-1.16
-1.13
-1.115
-1.12
-1.125
-1.115
-1.09
-1.095
-1.09
-1.1
-1.105
-1.12
-1.14
-1.135
-1.105
-1.09
-1.085
-1.085
-1.105
-1.105
-1.105
-1.11
-1.105
-1.105
-1.115
-1.125
-1.105
-1.105
-1.09
-1.08
-1.09
-1.08
-1.08
-1.095
-1.095
-1.1
-1.1
-1.105
-1.075
-1.045
-1.065
-1.045
-1.03
-1.03
-1.015
-1.03
-1.01
-1.02
-1.025
-1.02
-0.99
-0.995
-0.97
-0.945
-0.945
-0.96
-0.95
-0.945
-0.935
-0.94
-0.95
-0.94
-0.93
-0.91
-0.91
-0.9
-0.91
-0.9
-0.93
-0.915
-0.92
-0.92
-0.93
-0.94
-0.96
-0.935
-0.93
-0.925
-0.915
-0.935
-0.95
-0.95
-0.955
-0.965
-0.97
-0.985
-0.96
-0.96
-0.945
-0.935
-0.95
-0.96
-0.965
-0.99
-1.02
-1.015
-1.02
-1.025
-1.045
-1.025
-1.015
-1.0
-1.015
-1.02
-1.045
-1.05
-1.06
-1.055
-1.075
-1.08
-1.075
-1.05
-1.03
-1.035
-1.025
-1.04
-1.035
-1.04
-1.04
-1.04
-1.04
-1.055
-1.04
-1.025
-1.03
-1.0
-1.005
-1.01
-1.015
-1.01
-1.03
-1.025
-1.045
-1.025
-1.025
-1.01
-1.015
-0.98
-0.98
-0.995
-1.005
-0.98
-0.975
-0.96
-0.97
-0.97
-0.98
-0.955
-0.91
-0.885
-0.865
-0.87
-0.855
-0.845
-0.835
-0.82
-0.81
-0.785
-0.775
-0.775
-0.76
-0.755
-0.765
-0.77
-0.795
-0.805
-0.82
-0.835
-0.865
-0.845
-0.855
-0.855
-0.855
-0.87
-0.885
-0.94
-0.965
-0.985
-1.01
-1.015
-1.03
-1.055
-1.055
-1.05
-1.03
-1.035
-1.04
-1.055
-1.055
-1.03
-1.045
-1.075
-1.085
-1.085
-1.085
-1.08
-1.085
-1.125
-1.175
-1.245
-1.255
-1.255
-1.19
-1.085
-0.93
-0.73
-0.5
-0.26
-0.04
0.14
0.305
0.455
0.585
0.68
0.735
0.74
0.72
0.665
0.595
0.545
0.46
0.255
-0.045
-0.38
-0.695
-0.91
-1.025
-1.055
-1.025
-0.975
-0.915
-0.895
-0.905
-0.945
-1.005
-1.08
-1.12
-1.145
-1.155
-1.145
-1.145
-1.15
-1.14
-1.14
-1.13
-1.115
-1.125
-1.11
-1.115
-1.12
-1.125
-1.135
-1.145
-1.145
-1.15
-1.14
-1.115
-1.125
-1.13
-1.125
-1.14
-1.14
-1.145
-1.14
-1.15
-1.145
-1.13
-1.12
-1.12
-1.115
-1.115
-1.125
-1.12
-1.115
-1.125
-1.13
-1.15
-1.135
-1.13
-1.11
-1.11
-1.1
-1.1
-1.11
-1.11
-1.11
-1.105
-1.12
-1.125
-1.125
-1.12
-1.115
-1.08
-1.08
-1.095
-1.095
-1.085
-1.075
-1.08
-1.085
-1.09
-1.09
-1.065
-1.04
-1.025
-1.015
-1.01
-1.01
-1.0
-0.99
-0.975
-1.0
-1.01
-1.005
-0.98
-0.975
-0.96
-0.95
-0.945
-0.95
-0.955
-0.96
-0.965
-0.96
-0.965
-0.98
-0.995
-0.98
-0.965
-0.96
-0.97
-0.96
-0.96
-0.965
-0.975
-0.99
-1.005
-1.025
-1.005
-0.985
-0.99
-1.005
-0.995
-1.01
-1.005
-1.01
-1.02
-1.04
-1.06
-1.06
-1.055
-1.03
-1.045
-1.055
-1.08
-1.075
-1.085
-1.06
-1.075
-1.1
-1.125
-1.115
-1.1
-1.09
-1.08
-1.09
-1.075
-1.08
-1.065
-1.065
-1.08
-1.1
-1.11
-1.085
-1.075
-1.06
-1.06
-1.055
-1.045
-1.045
-1.045
-1.05
-1.06
-1.07
-1.08
-1.065
-1.05
-1.03
-1.04
-1.025
-1.015
-0.995
-0.995
-0.995
-0.995
-1.015
-0.995
-0.985
-0.965
-0.945
-0.935
-0.9
-0.89
-0.865
-0.855
-0.86
-0.83
-0.84
-0.81
-0.795
-0.785
-0.79
-0.8
-0.805
-0.795
-0.81
-0.82
-0.84
-0.865
-0.875
-0.89
-0.865
-0.86
-0.875
-0.895
-0.935
-0.95
-0.97
-0.99
-0.99
-1.03
-1.03
-1.045
-1.05
-1.035
-1.035
-1.035
-1.055
-1.04
-1.04
-1.045
-1.055
-1.07
-1.075
-1.07
-1.075
-1.05
-1.045
-1.06
-1.08
-1.085
-1.125
-1.155
-1.2
-1.25
-1.275
-1.27
-1.19
-1.06
-0.87
-0.66
-0.43
-0.225
-0.025
0.17
0.355
0.515
0.655
0.74
0.785
0.775
0.735
0.665
0.55
0.36
0.07
-0.29
-0.63
-0.885
-1.025
-1.065
-1.015
-0.935
-0.875
-0.875
-0.89
-0.925
-0.99
-1.06
-1.075
-1.12
-1.16
-1.17
-1.165
-1.145
-1.135
-1.15
-1.135
-1.135
-1.135
-1.11
-1.125
-1.135
-1.16
-1.16
-1.155
-1.14
-1.14
-1.14
-1.125
-1.14
-1.145
-1.135
-1.135
-1.135
-1.15
-1.16
-1.145
-1.13
-1.125
-1.125
-1.145
-1.145
-1.155
-1.165
-1.135
-1.13
-1.14
-1.145
-1.15
-1.13
-1.135
-1.12
-1.12
-1.145
-1.145
-1.12
-1.12
-1.13
-1.13
-1.155
-1.135
-1.12
-1.115
-1.11
-1.11
-1.095
-1.09
-1.09
-1.095
-1.105
-1.1
-1.105
-1.08
-1.045
-1.025
-1.03
-1.02
-1.025
-1.02
-0.97
-0.975
-0.985
-0.99
-0.975
-0.96
-0.965
-0.95
-0.96
-0.95
-0.945
-0.955
-0.93
-0.94
-0.955
-0.96
-0.965
-0.945
-0.93
-0.92
-0.905
-0.915
-0.915
-0.935
-0.925
-0.935
-0.96
-0.965
-0.97
-0.99
-0.975
-0.96
-0.965
-0.96
-0.97
-0.955
-0.955
-0.955
-0.96
-0.96
-0.98
-0.98
-0.975
-0.98
-0.965
-0.99
-0.985
-0.995
-1.005
-1.005
-1.0
-1.025
-1.035
-1.015
-1.04
-1.02
-1.025
-1.04
-1.04
-1.05
-1.045
-1.06
-1.055
-1.07
-1.075
-1.06
-1.05
-1.02
-1.005
-1.01
-1.015
-1.015
-1.01
-1.005
-1.015
-1.015
-1.02
-1.025
-1.01
-0.995
-0.985
-0.98
-0.98
-1.0
-0.98
-0.98
-0.995
-1.0
-1.0
-1.0
-0.97
-0.955
-0.935
-0.94
-0.935
-0.935
-0.92
-0.9
-0.875
-0.865
-0.87
-0.84
-0.81
-0.795
-0.78
-0.755
-0.74
-0.75
-0.74
-0.75
-0.745
-0.76
-0.78
-0.8
-0.805
-0.795
-0.8
-0.785
-0.815
-0.81
-0.82
-0.865
-0.89
-0.945
-0.96
-0.965
-0.965
-0.97
-0.98
-0.985
-0.97
-1.0
-0.98
-0.97
-0.97
-0.99
-0.995
-0.995
-0.995
-0.98
-0.98
-0.97
-0.98
-0.995
-0.995
-1.015
-1.06
-1.13
-1.18
-1.235
-1.245
-1.205
-1.13
-1.005
-0.84
-0.65
-0.43
-0.22
-0.045
0.115
0.275
0.43
0.57
0.715
0.79
0.835
0.855
0.825
0.78
0.695
0.555
0.32
0.0
-0.35
-0.66
-0.845
-0.945
-0.945
-0.9
-0.85
-0.84
-0.83
-0.85
-0.915
-0.97
-1.025
-1.06
-1.075
-1.065
-1.08
-1.06
-1.07
-1.06
-1.08
-1.065
-1.08
-1.075
-1.075
-1.075
-1.05
-1.035
-1.045
-1.055
-1.055
-1.07
-1.07
-1.06
-1.085
-1.105
-1.105
-1.095
-1.08
-1.07
-1.045
-1.08
-1.07
-1.045
-1.05
-1.065
-1.07
-1.075
-1.055
-1.05
-1.04
-1.03
-1.045
-1.06
-1.075
-1.065
-1.065
-1.065
-1.075
-1.08
-1.07
-1.075
-1.055
-1.015
-1.025
-1.02
-1.05
-1.045
-1.045
-1.025
-1.03
-1.025
-1.02
-1.025
-1.005
-0.985
-0.97
-0.965
-0.97
-0.965
-0.96
-0.96
-0.945
-0.955
-0.95
-0.95
-0.945
-0.905
-0.895
-0.87
-0.875
-0.87
-0.9
-0.9
-0.88
-0.885
-0.89
-0.9
-0.875
-0.855
-0.845
-0.855
-0.87
-0.875
-0.9
-0.92
-0.905
-0.915
-0.895
-0.91
-0.895
-0.875
-0.855
-0.85
-0.86
-0.895
-0.905
-0.905
-0.92
-0.905
-0.905
-0.92
-0.92
-0.915
-0.895
-0.89
-0.925
-0.945
-0.935
-0.94
-0.945
-0.94
-0.96
-0.97
-0.975
-0.97
-0.96
-0.95
-0.945
-0.97
-0.98
-0.99
-0.995
-0.995
-0.985
-1.0
-0.99
-0.98
-0.96
-0.935
-0.955
-0.955
-0.97
-0.985
-0.985
-0.95
-0.95
-0.96
-0.955
-0.955
-0.93
-0.925
-0.935
-0.93
-0.93
-0.95
-0.93
-0.94
-0.935
-0.92
-0.915
-0.915
-0.895
-0.88
-0.875
-0.875
-0.885
-0.87
-0.865
-0.835
-0.805
-0.78
-0.76
-0.72
-0.715
-0.69
-0.675
-0.67
-0.68
-0.69
-0.695
-0.68
-0.69
-0.68
-0.68
-0.7
-0.695
-0.695
-0.695
-0.705
-0.735
-0.745
-0.77
-0.805
-0.83
-0.84
-0.87
-0.89
-0.92
-0.89
-0.89
-0.88
-0.89
-0.91
-0.93
-0.94
-0.95
-0.925
-0.93
-0.925
-0.935
-0.925
-0.935
-0.935
-0.93
-0.95
-0.965
-0.965
-0.975
-0.99
-1.0
-1.045
-1.08
-1.14
-1.175
-1.17
-1.13
-1.05
-0.935
-0.77
-0.56
-0.345
-0.115
0.055
0.24
0.405
0.56
0.67
0.77
0.8
0.815
0.79
0.735
0.655
0.495
0.275
-0.045
-0.39
-0.67
-0.865
-0.945
-0.94
-0.89
-0.85
-0.815
-0.8
-0.81
-0.835
-0.895
-0.93
-0.985
-1.01
-1.04
-1.055
-1.03
-1.03
-1.055
-1.075
-1.06
-1.045
-1.015
-1.005
-1.005
-1.01
-1.015
-1.015
-1.02
-1.025
-1.015
-1.025
-1.03
-1.025
-1.02
-1.005
-1.005
-1.025
-1.01
-1.03
-1.02
-1.035
-1.035
-1.025
-1.045
-1.02
-1.01
-1.0
-1.0
-1.01
-1.02
-1.04
-1.04
-1.03
-1.025
-1.02
-1.03
-1.015
-1.015
-1.0
-1.0
-1.005
-1.01
-1.035
-1.03
-1.025
-1.025
-1.02
-1.005
-1.005
-0.975
-0.95
-0.95
-0.965
-0.96
-0.965
-0.955
-0.96
-0.96
-0.955
-0.96
-0.93
-0.91
-0.89
-0.89
-0.89
-0.89
-0.905
-0.9
-0.885
-0.88
-0.88
-0.885
-0.885
-0.86
-0.83
-0.835
-0.84
-0.86
-0.86
-0.86
-0.855
-0.86
-0.86
-0.855
-0.855
-0.85
-0.84
-0.835
-0.84
-0.855
-0.88
-0.89
-0.885
-0.885
-0.9
-0.905
-0.9
-0.88
-0.875
-0.865
-0.87
-0.89
-0.915
-0.915
-0.905
-0.925
-0.94
-0.945
-0.95
-0.93
-0.915
-0.925
-0.93
-0.945
-0.965
-0.955
-0.985
-0.985
-0.96
-0.975
-0.97
-0.96
-0.955
-0.97
-0.97
-0.97
-0.955
-0.955
-0.965
-0.975
-0.97
-0.945
-0.94
-0.925
-0.92
-0.935
-0.95
-0.945
-0.945
-0.935
-0.95
-0.96
-0.955
-0.945
-0.945
-0.935
-0.92
-0.93
-0.93
-0.93
-0.915
-0.9
-0.915
-0.93
-0.895
-0.875
-0.865
-0.835
-0.81
-0.805
-0.795
-0.8
-0.775
-0.77
-0.745
-0.745
-0.735
-0.73
-0.725
-0.7
-0.715
-0.735
-0.745
-0.77
-0.755
-0.77
-0.785
-0.8
-0.805
-0.8
-0.8
