Lead II
-0.935
-0.945
-0.935
-0.935
-0.94
-0.94
-0.93
-0.925
-0.92
-0.91
-0.92
-0.925
-0.945
-0.945
-0.945
-0.96
-0.95
-0.925
-0.94
-0.93
-0.935
-0.935
-0.92
-0.935
-0.945
-0.945
-0.95
-0.94
-0.945
-0.93
-0.925
-0.925
-0.91
-0.91
-0.925
-0.935
-0.96
-0.955
-0.965
-0.97
-0.95
-0.945
-0.925
-0.905
-0.915
-0.91
-0.91
-0.92
-0.915
-0.935
-0.94
-0.95
-0.94
-0.93
-0.91
-0.895
-0.89
-0.89
-0.905
-0.905
-0.91
-0.905
-0.885
-0.88
-0.86
-0.83
-0.835
-0.81
-0.81
-0.82
-0.785
-0.77
-0.775
-0.765
-0.755
-0.74
-0.75
-0.755
-0.745
-0.76
-0.78
-0.785
-0.8
-0.795
-0.805
-0.825
-0.84
-0.855
-0.885
-0.91
-0.91
-0.915
-0.91
-0.915
-0.915
-0.925
-0.935
-0.94
-0.955
-0.955
-0.965
-0.96
-0.96
-0.95
-0.95
-0.955
-0.965
-0.97
-0.97
-0.985
-1.0
-0.995
-0.975
-0.975
-0.96
-0.95
-0.945
-0.935
-0.95
-0.935
-0.95
-0.95
-0.935
-0.925
-0.86
-0.775
-0.7
-0.59
-0.455
-0.345
-0.215
-0.15
-0.16
-0.25
-0.425
-0.65
-0.91
-1.155
-1.37
-1.54
-1.68
-1.75
-1.755
-1.69
-1.61
-1.51
-1.415
-1.345
-1.26
-1.175
-1.115
-1.02
-0.945
-0.905
-0.89
-0.9
-0.915
-0.93
-0.93
-0.92
-0.91
-0.895
-0.865
-0.855
-0.835
-0.84
-0.845
-0.845
-0.845
-0.845
-0.85
-0.855
-0.845
-0.83
-0.81
-0.815
-0.815
-0.8
-0.805
-0.805
-0.83
-0.82
-0.83
-0.83
-0.815
-0.8
-0.775
-0.76
-0.77
-0.76
-0.78
-0.78
-0.78
-0.79
-0.78
-0.775
-0.78
-0.775
-0.735
-0.72
-0.705
-0.705
-0.71
-0.7
-0.695
-0.7
-0.7
-0.68
-0.69
-0.65
-0.64
-0.625
-0.61
-0.605
-0.585
-0.58
-0.58
-0.56
-0.55
-0.535
-0.51
-0.5
-0.475
-0.455
-0.43
-0.415
-0.405
-0.38
-0.4
-0.39
-0.37
-0.36
-0.33
-0.325
-0.3
-0.28
-0.26
-0.26
-0.245
-0.235
-0.24
-0.24
-0.25
-0.24
-0.235
-0.235
-0.215
-0.205
-0.2
-0.235
-0.235
-0.255
-0.28
-0.3
-0.325
-0.35
-0.375
-0.395
-0.43
-0.45
-0.47
-0.51
-0.545
-0.58
-0.61
-0.655
-0.695
-0.695
-0.72
-0.74
-0.74
-0.745
-0.74
-0.755
-0.765
-0.785
-0.81
-0.83
-0.845
-0.855
-0.86
-0.85
-0.845
-0.825
-0.84
-0.825
-0.845
-0.86
-0.87
-0.87
-0.87
-0.88
-0.88
-0.865
-0.86
-0.845
-0.84
-0.845
-0.835
-0.85
-0.85
-0.865
-0.865
-0.865
-0.865
-0.86
-0.845
-0.84
-0.835
-0.835
-0.84
-0.845
-0.845
-0.875
-0.865
-0.87
-0.86
-0.855
-0.855
-0.84
-0.835
-0.835
-0.84
-0.835
-0.87
-0.865
-0.885
-0.885
-0.895
-0.875
-0.87
-0.865
-0.86
-0.86
-0.86
-0.87
-0.88
-0.875
-0.895
-0.9
-0.9
-0.895
-0.885
-0.88
-0.885
-0.88
-0.9
-0.915
-0.915
-0.925
-0.925
-0.925
-0.915
-0.91
-0.905
-0.89
-0.9
-0.895
-0.89
-0.905
-0.92
-0.945
-0.945
-0.94
-0.945
-0.92
-0.92
-0.91
-0.895
-0.905
-0.895
-0.905
-0.915
-0.92
-0.93
-0.935
-0.95
-0.925
-0.92
-0.905
-0.9
-0.92
-0.925
-0.905
-0.925
-0.93
-0.965
-0.945
-0.945
-0.945
-0.935
-0.905
-0.9
-0.905
-0.905
-0.92
-0.935
-0.94
-0.95
-0.95
-0.94
-0.935
-0.925
-0.905
-0.905
-0.91
-0.91
-0.915
-0.935
-0.94
-0.94
-0.945
-0.96
-0.94
-0.94
-0.93
-0.915
-0.92
-0.91
-0.945
-0.93
-0.92
-0.94
-0.935
-0.93
-0.925
-0.915
-0.92
-0.9
-0.905
-0.91
-0.915
-0.92
-0.925
-0.945
-0.94
-0.935
-0.925
-0.91
-0.9
-0.895
-0.905
-0.905
-0.91
-0.92
-0.935
-0.94
-0.945
-0.945
-0.92
-0.915
-0.91
-0.895
-0.895
-0.91
-0.91
-0.92
-0.93
-0.915
-0.94
-0.94
-0.92
-0.91
-0.895
-0.89
-0.895
-0.905
-0.9
-0.905
-0.925
-0.925
-0.925
-0.915
-0.91
-0.9
-0.895
-0.88
-0.885
-0.87
-0.885
-0.885
-0.87
-0.87
-0.85
-0.835
-0.83
-0.815
-0.805
-0.81
-0.785
-0.775
-0.76
-0.77
-0.765
-0.75
-0.75
-0.74
-0.75
-0.745
-0.76
-0.755
-0.765
-0.775
-0.775
-0.8
-0.82
-0.84
-0.86
-0.89
-0.885
-0.89
-0.895
-0.89
-0.895
-0.9
-0.9
-0.91
-0.925
-0.92
-0.93
-0.95
-0.95
-0.95
-0.94
-0.925
-0.92
-0.92
-0.93
-0.945
-0.96
-0.96
-0.965
-0.955
-0.935
-0.92
-0.915
-0.895
-0.89
-0.905
-0.9
-0.905
-0.905
-0.9
-0.87
-0.795
-0.72
-0.585
-0.425
-0.25
-0.12
-0.03
-0.035
-0.175
-0.41
-0.7
-1.025
-1.335
-1.59
-1.73
-1.75
-1.685
-1.545
-1.42
-1.3
-1.205
-1.145
-1.085
-1.025
-0.97
-0.905
-0.865
-0.85
-0.835
-0.845
-0.845
-0.865
-0.87
-0.865
-0.86
-0.845
-0.84
-0.82
-0.81
-0.8
-0.785
-0.785
-0.78
-0.79
-0.805
-0.795
-0.795
-0.8
-0.8
-0.79
-0.775
-0.775
-0.745
-0.745
-0.75
-0.74
-0.75
-0.75
-0.75
-0.755
-0.77
-0.735
-0.725
-0.735
-0.72
-0.705
-0.71
-0.71
-0.72
-0.705
-0.7
-0.695
-0.695
-0.685
-0.655
-0.65
-0.64
-0.625
-0.625
-0.615
-0.625
-0.615
-0.615
-0.605
-0.59
-0.57
-0.555
-0.55
-0.505
-0.505
-0.485
-0.47
-0.46
-0.465
-0.45
-0.435
-0.43
-0.395
-0.385
-0.37
-0.3
-0.295
-0.275
-0.275
-0.26
-0.235
-0.24
-0.225
-0.215
-0.2
-0.19
-0.175
-0.15
-0.16
-0.17
-0.175
-0.165
-0.18
-0.19
-0.22
-0.25
-0.235
-0.245
-0.26
-0.28
-0.305
-0.345
-0.38
-0.42
-0.46
-0.475
-0.505
-0.545
-0.55
-0.565
-0.585
-0.6
-0.63
-0.68
-0.69
-0.715
-0.74
-0.755
-0.78
-0.79
-0.785
-0.78
-0.785
-0.78
-0.8
-0.805
-0.795
-0.81
-0.825
-0.825
-0.83
-0.83
-0.825
-0.84
-0.84
-0.81
-0.795
-0.82
-0.815
-0.84
-0.85
-0.85
-0.855
-0.84
-0.83
-0.82
-0.82
-0.805
-0.825
-0.81
-0.81
-0.825
-0.83
-0.84
-0.82
-0.835
-0.82
-0.82
-0.8
-0.795
-0.78
-0.8
-0.8
-0.815
-0.825
-0.83
-0.835
-0.835
-0.825
-0.815
-0.8
-0.795
-0.81
-0.82
-0.83
-0.83
-0.85
-0.855
-0.85
-0.85
-0.85
-0.845
-0.835
-0.83
-0.835
-0.845
-0.845
-0.865
-0.875
-0.875
-0.885
-0.885
-0.885
-0.875
-0.87
-0.86
-0.86
-0.845
-0.855
-0.86
-0.87
-0.88
-0.905
-0.9
-0.875
-0.875
-0.88
-0.87
-0.855
-0.87
-0.87
-0.895
-0.885
-0.89
-0.91
-0.91
-0.91
-0.89
-0.895
-0.875
-0.87
-0.875
-0.875
-0.885
-0.895
-0.885
-0.9
-0.895
-0.89
-0.88
-0.865
-0.855
-0.87
-0.875
-0.875
-0.885
-0.895
-0.905
-0.91
-0.905
-0.905
-0.89
-0.885
-0.875
-0.88
-0.9
-0.89
-0.885
-0.905
-0.9
-0.9
-0.905
-0.91
-0.9
-0.88
-0.875
-0.88
-0.88
-0.88
-0.885
-0.91
-0.91
-0.93
-0.91
-0.905
-0.915
-0.895
-0.885
-0.885
-0.895
-0.89
-0.89
-0.92
-0.915
-0.915
-0.93
-0.91
-0.905
-0.89
-0.875
-0.87
-0.87
-0.88
-0.89
-0.89
-0.91
-0.93
-0.905
-0.895
-0.885
-0.895
-0.88
-0.89
-0.885
-0.88
-0.885
-0.905
-0.905
-0.915
-0.9
-0.895
-0.885
-0.865
-0.85
-0.865
-0.87
-0.865
-0.875
-0.89
-0.895
-0.9
-0.895
-0.9
-0.87
-0.865
-0.855
-0.855
-0.865
-0.86
-0.87
-0.89
-0.885
-0.885
-0.89
-0.88
-0.865
-0.87
-0.845
-0.87
-0.855
-0.87
-0.875
-0.875
-0.885
-0.89
-0.89
-0.89
-0.855
-0.845
-0.825
-0.825
-0.815
-0.81
-0.8
-0.79
-0.78
-0.785
-0.785
-0.78
-0.75
-0.74
-0.705
-0.69
-0.685
-0.665
-0.665
-0.68
-0.69
-0.71
-0.715
-0.73
-0.73
-0.74
-0.72
-0.735
-0.745
-0.755
-0.785
-0.82
-0.835
-0.87
-0.87
-0.87
-0.865
-0.855
-0.845
-0.865
-0.865
-0.87
-0.88
-0.91
-0.935
-0.94
-0.935
-0.915
-0.91
-0.895
-0.88
-0.875
-0.88
-0.88
-0.915
-0.92
-0.915
-0.92
-0.92
-0.895
-0.88
-0.87
-0.85
-0.845
-0.835
-0.825
-0.8
-0.755
-0.67
-0.57
-0.44
-0.28
-0.12
-0.015
0.035
-0.02
-0.175
-0.4
-0.68
-0.965
-1.22
-1.48
-1.625
-1.685
-1.665
-1.565
-1.42
-1.28
-1.195
-1.12
-1.04
-0.995
-0.945
-0.89
-0.855
-0.83
-0.815
-0.81
-0.8
-0.805
-0.81
-0.81
-0.815
-0.83
-0.805
-0.805
-0.795
-0.795
-0.775
-0.77
-0.765
-0.76
-0.755
-0.755
-0.765
-0.775
-0.785
-0.77
-0.785
-0.77
-0.74
-0.745
-0.705
-0.685
-0.71
-0.725
-0.71
-0.73
-0.725
-0.74
-0.72
-0.71
-0.7
-0.7
-0.695
-0.675
-0.67
-0.67
-0.675
-0.685
-0.685
-0.675
-0.675
-0.66
-0.67
-0.66
-0.63
-0.635
-0.63
-0.59
-0.6
-0.59
-0.59
-0.585
-0.57
-0.56
-0.535
-0.515
-0.5
-0.48
-0.475
-0.455
-0.455
-0.45
-0.41
-0.425
-0.4
-0.36
-0.34
-0.315
-0.29
-0.275
-0.255
-0.255
-0.235
-0.225
-0.215
-0.205
-0.19
-0.175
-0.16
-0.15
-0.125
-0.12
-0.135
-0.125
-0.13
-0.15
-0.155
-0.17
-0.185
-0.18
-0.21
-0.215
-0.21
-0.245
-0.27
-0.305
-0.345
-0.375
-0.415
-0.465
-0.5
-0.505
-0.53
-0.53
-0.565
-0.59
-0.615
-0.63
-0.66
-0.685
-0.715
-0.72
-0.74
-0.735
-0.75
-0.765
-0.755
-0.755
-0.75
-0.77
-0.785
-0.81
-0.81
-0.82
-0.825
-0.815
-0.805
-0.805
-0.785
-0.79
-0.805
-0.8
-0.81
-0.825
-0.835
-0.83
-0.835
-0.81
-0.83
-0.805
-0.8
-0.79
-0.8
-0.83
-0.815
-0.815
-0.81
-0.825
-0.83
-0.815
-0.79
-0.795
-0.79
-0.79
-0.785
-0.81
-0.805
-0.815
-0.82
-0.82
-0.815
-0.81
-0.81
-0.805
-0.8
-0.81
-0.825
-0.82
-0.82
-0.83
-0.84
-0.855
-0.86
-0.83
-0.845
-0.845
-0.83
-0.83
-0.835
-0.85
-0.85
-0.85
-0.855
-0.865
-0.865
-0.855
-0.86
-0.86
-0.865
-0.865
-0.855
-0.865
-0.885
-0.87
-0.875
-0.885
-0.89
-0.885
-0.88
-0.885
-0.86
-0.86
-0.855
-0.87
-0.91
-0.905
-0.915
-0.925
-0.935
-0.91
-0.91
-0.885
-0.875
-0.875
-0.88
-0.875
-0.89
-0.895
-0.93
-0.94
-0.92
-0.915
-0.895
-0.885
-0.875
-0.87
-0.89
-0.89
-0.905
-0.885
-0.89
-0.895
-0.905
-0.905
-0.88
-0.89
-0.875
-0.88
-0.88
-0.875
-0.875
-0.89
-0.895
-0.89
-0.89
-0.885
-0.885
-0.865
-0.87
-0.87
-0.885
-0.885
-0.89
-0.88
-0.875
-0.89
-0.9
-0.88
-0.885
-0.88
-0.87
-0.87
-0.88
-0.88
-0.895
-0.9
-0.905
-0.905
-0.91
-0.885
-0.885
-0.875
-0.87
-0.875
-0.895
-0.885
-0.895
-0.915
-0.915
-0.915
-0.905
-0.925
-0.91
-0.9
-0.89
-0.88
-0.88
-0.885
-0.9
-0.9
-0.91
-0.925
-0.92
-0.91
-0.905
-0.895
-0.88
-0.9
-0.89
-0.905
-0.895
-0.905
-0.905
-0.905
-0.905
-0.905
-0.89
-0.9
-0.89
-0.875
-0.885
-0.88
-0.895
-0.905
-0.91
-0.915
-0.905
-0.905
-0.89
-0.885
-0.88
-0.885
-0.88
-0.885
-0.895
-0.91
-0.905
-0.905
-0.905
-0.885
-0.9
-0.88
-0.875
-0.9
-0.895
-0.9
-0.905
-0.9
-0.89
-0.915
-0.905
-0.89
-0.875
-0.87
-0.84
-0.845
-0.835
-0.82
-0.845
-0.84
-0.805
-0.815
-0.81
-0.795
-0.775
-0.735
-0.715
-0.7
-0.685
-0.69
-0.7
-0.725
-0.74
-0.75
-0.76
-0.785
-0.775
-0.765
-0.76
-0.765
-0.8
-0.825
-0.84
-0.875
-0.9
-0.9
-0.905
-0.91
-0.9
-0.885
-0.87
-0.885
-0.885
-0.9
-0.925
-0.935
-0.925
-0.95
-0.945
-0.92
-0.905
-0.915
-0.905
-0.9
-0.915
-0.905
-0.9
-0.91
-0.905
-0.925
-0.915
-0.915
-0.9
-0.88
-0.87
-0.86
-0.83
-0.795
-0.725
-0.645
-0.535
-0.405
-0.27
-0.13
-0.07
-0.09
-0.235
-0.47
-0.765
-1.1
-1.39
-1.625
-1.775
-1.855
-1.78
-1.66
-1.495
-1.355
-1.265
-1.195
-1.1
-1.045
-0.97
-0.91
-0.895
-0.885
-0.87
-0.87
-0.865
-0.845
-0.825
-0.81
-0.805
-0.805
-0.825
-0.825
-0.8
-0.82
-0.805
-0.805
-0.79
-0.785
-0.765
-0.78
-0.775
-0.77
-0.755
-0.76
-0.76
-0.76
-0.765
-0.76
-0.745
-0.74
-0.72
-0.72
-0.71
-0.725
-0.72
-0.73
-0.74
-0.74
-0.73
-0.725
-0.71
-0.7
-0.675
-0.665
-0.665
-0.67
-0.67
-0.685
-0.665
-0.675
-0.66
-0.65
-0.635
-0.615
-0.585
-0.58
-0.59
-0.57
-0.585
-0.565
-0.555
-0.55
-0.535
-0.51
-0.48
-0.445
-0.415
-0.4
-0.375
-0.36
-0.36
-0.335
-0.345
-0.33
-0.28
-0.28
-0.24
-0.21
-0.18
-0.165
-0.155
-0.17
-0.155
-0.17
-0.16
-0.14
-0.14
-0.14
-0.125
-0.14
-0.14
-0.145
-0.155
-0.195
-0.205
-0.23
-0.27
-0.28
-0.31
-0.33
-0.34
-0.365
-0.38
-0.425
-0.44
-0.485
-0.515
-0.555
-0.58
-0.595
-0.64
-0.64
-0.65
-0.655
-0.66
-0.675
-0.69
-0.71
-0.735
-0.74
-0.75
-0.77
-0.76
-0.755
-0.75
-0.755
-0.74
-0.75
-0.745
-0.755
-0.77
-0.775
-0.79
-0.785
-0.785
-0.785
-0.775
-0.76
-0.765
-0.76
-0.755
-0.76
-0.775
-0.78
-0.8
-0.8
-0.8
-0.785
-0.77
-0.76
-0.77
-0.775
-0.76
-0.79
-0.78
-0.785
-0.79
-0.785
-0.795
-0.79
-0.785
-0.78
-0.78
-0.77
-0.775
-0.78
-0.77
-0.77
-0.785
-0.79
-0.795
-0.8
-0.79
-0.78
-0.795
-0.77
-0.78
-0.765
-0.79
-0.79
-0.805
-0.81
-0.82
-0.825
-0.815
-0.82
-0.805
-0.79
-0.8
-0.815
-0.82
-0.825
-0.825
-0.83
-0.835
-0.82
-0.83
-0.825
-0.805
-0.805
-0.815
-0.825
-0.82
-0.835
-0.835
-0.86
-0.865
-0.855
-0.83
-0.825
-0.82
-0.82
-0.825
-0.835
-0.835
-0.855
-0.85
-0.85
-0.86
-0.86
-0.86
-0.84
-0.85
-0.82
-0.845
-0.85
-0.855
-0.87
-0.85
-0.86
-0.855
-0.86
-0.85
-0.84
-0.835
-0.835
-0.835
-0.83
-0.835
-0.85
-0.86
-0.865
-0.88
-0.85
-0.835
-0.83
-0.82
-0.82
-0.83
-0.825
-0.84
-0.845
-0.845
-0.85
-0.86
-0.845
-0.84
-0.84
-0.83
-0.825
-0.83
-0.84
-0.85
-0.855
-0.86
-0.865
-0.85
-0.86
-0.845
-0.85
-0.825
-0.835
-0.82
-0.825
-0.84
-0.855
-0.845
-0.855
-0.86
-0.845
-0.84
-0.83
-0.835
-0.81
-0.82
-0.83
-0.835
-0.845
-0.845
-0.875
-0.86
-0.855
-0.845
-0.84
-0.83
-0.82
-0.835
-0.835
-0.85
-0.845
-0.86
-0.865
-0.87
-0.855
-0.86
-0.835
-0.825
-0.82
-0.835
-0.82
-0.835
-0.845
-0.85
-0.87
-0.855
-0.84
-0.84
-0.84
-0.83
-0.825
-0.835
-0.825
-0.835
-0.835
-0.84
-0.845
-0.84
-0.835
-0.83
-0.825
-0.83
-0.825
-0.805
-0.825
-0.825
-0.825
-0.845
-0.83
-0.81
-0.8
-0.775
-0.75
-0.725
-0.725
-0.72
-0.72
-0.715
-0.735
-0.73
-0.735
-0.72
-0.67
-0.66
-0.66
-0.635
-0.635
-0.655
-0.665
-0.675
-0.69
-0.71
-0.715
-0.72
-0.715
-0.73
-0.73
-0.755
-0.765
-0.77
-0.79
-0.825
-0.84
-0.83
-0.84
-0.845
-0.855
-0.835
-0.85
-0.835
-0.85
-0.84
-0.865
-0.855
-0.87
-0.885
-0.885
-0.86
-0.87
-0.865
-0.855
-0.85
-0.85
-0.85
-0.85
-0.86
-0.865
-0.86
-0.87
-0.87
-0.84
-0.825
-0.795
-0.73
-0.64
-0.555
-0.415
-0.27
-0.12
0.0
0.055
0.02
-0.08
-0.27
-0.535
-0.8
-1.08
-1.33
-1.525
-1.63
-1.63
-1.565
-1.435
-1.31
-1.2
-1.105
-1.005
-0.925
-0.88
-0.83
-0.815
-0.79
-0.805
-0.805
-0.825
-0.825
-0.825
-0.805
-0.795
-0.77
-0.76
-0.75
-0.74
-0.75
-0.76
-0.765
-0.75
-0.755
-0.765
-0.745
-0.735
-0.715
-0.715
-0.72
-0.725
-0.73
-0.715
-0.71
-0.725
-0.725
-0.705
-0.695
-0.67
-0.67
-0.675
-0.67
-0.67
-0.67
-0.67
-0.67
-0.67
-0.655
-0.65
-0.655
-0.63
-0.61
-0.6
-0.605
-0.595
-0.6
-0.595
-0.6
-0.61
-0.6
-0.58
-0.56
-0.55
-0.535
-0.52
-0.51
-0.49
-0.475
-0.465
-0.455
-0.45
-0.435
-0.42
-0.39
-0.36
-0.35
-0.325
-0.3
-0.28
-0.27
-0.265
-0.24
-0.23
-0.22
-0.205
-0.175
-0.16
-0.15
-0.12
-0.105
-0.09
-0.105
-0.095
-0.11
-0.11
-0.125
-0.125
-0.095
-0.1
-0.105
-0.12
-0.155
-0.18
-0.195
-0.24
-0.27
-0.315
-0.345
-0.375
-0.405
-0.41
-0.44
-0.465
-0.49
-0.54
-0.57
-0.59
-0.62
-0.645
-0.67
-0.655
-0.67
-0.675
-0.675
-0.675
-0.695
-0.715
-0.72
-0.73
-0.75
-0.755
-0.765
-0.75
-0.75
-0.745
-0.755
-0.745
-0.74
-0.74
-0.76
-0.76
-0.775
-0.785
-0.78
-0.775
-0.785
-0.755
-0.735
-0.735
-0.74
-0.73
-0.75
-0.75
-0.76
-0.78
-0.775
-0.77
-0.76
-0.755
-0.755
-0.735
-0.74
-0.745
-0.755
-0.77
-0.77
-0.775
-0.765
-0.775
-0.78
-0.765
-0.765
-0.765
-0.765
-0.765
-0.76
-0.775
-0.785
-0.8
-0.795
-0.795
-0.805
-0.79
-0.775
-0.79
-0.785
-0.79
-0.8
-0.83
-0.815
-0.84
-0.83
-0.835
-0.825
-0.83
-0.835
-0.83
-0.82
-0.815
-0.83
-0.83
-0.84
-0.865
-0.85
-0.84
-0.83
-0.835
-0.83
-0.825
-0.84
-0.845
-0.845
-0.855
-0.86
-0.855
-0.855
-0.845
-0.835
-0.83
-0.825
-0.82
-0.82
-0.815
-0.82
-0.83
-0.84
-0.85
-0.85
-0.845
-0.835
-0.84
-0.825
-0.84
-0.82
-0.835
-0.835
-0.85
-0.84
-0.855
-0.855
-0.86
-0.845
-0.84
-0.84
-0.82
-0.82
-0.825
-0.825
-0.84
-0.84
-0.855
-0.83
-0.845
-0.84
-0.805
-0.81
-0.825
-0.805
-0.815
-0.82
-0.835
-0.85
-0.85
-0.84
-0.855
-0.835
-0.835
-0.82
-0.83
-0.815
-0.825
-0.85
-0.85
-0.87
-0.865
-0.86
-0.865
-0.845
-0.845
-0.83
-0.82
-0.815
-0.825
-0.835
-0.855
-0.85
-0.85
-0.845
-0.845
-0.835
-0.835
-0.82
-0.82
-0.835
-0.825
-0.835
-0.84
-0.845
-0.85
-0.86
-0.835
-0.84
-0.85
-0.825
-0.825
-0.825
-0.835
-0.845
-0.83
-0.84
-0.86
-0.86
-0.88
-0.85
-0.84
-0.82
-0.83
-0.82
-0.815
-0.835
-0.84
-0.85
-0.85
-0.85
-0.855
-0.83
-0.845
-0.825
-0.81
-0.81
-0.82
-0.83
-0.83
-0.835
-0.855
-0.845
-0.84
-0.845
-0.825
-0.805
-0.81
-0.795
-0.815
-0.82
-0.82
-0.84
-0.85
-0.84
-0.84
-0.83
-0.81
-0.815
-0.81
-0.8
-0.8
-0.8
-0.8
-0.81
-0.795
-0.78
-0.76
-0.745
-0.745
-0.72
-0.715
-0.71
-0.7
-0.695
-0.68
-0.67
-0.67
-0.665
-0.645
-0.635
-0.645
-0.64
-0.645
-0.675
-0.685
-0.68
-0.705
-0.725
-0.75
-0.765
-0.79
-0.8
-0.81
-0.805
-0.8
-0.82
-0.815
-0.825
-0.835
-0.84
-0.855
-0.855
-0.865
-0.865
-0.865
-0.86
-0.85
-0.86
-0.85
-0.85
-0.875
-0.87
-0.875
-0.88
-0.89
-0.865
-0.86
-0.86
-0.845
-0.83
-0.835
-0.845
-0.85
-0.855
-0.85
-0.84
-0.83
-0.755
-0.71
-0.625
-0.51
-0.385
-0.265
-0.135
-0.055
-0.04
-0.11
-0.255
-0.475
-0.72
-0.975
-1.205
-1.4
-1.555
-1.605
-1.59
-1.515
-1.415
-1.31
-1.215
-1.12
-1.03
-0.965
-0.885
-0.83
-0.795
-0.8
-0.79
-0.8
-0.81
-0.815
-0.82
-0.805
-0.795
-0.765
-0.755
-0.74
-0.76
-0.775
-0.76
-0.755
-0.77
-0.775
-0.77
-0.75
-0.74
-0.74
-0.725
-0.725
-0.72
-0.735
-0.735
-0.74
-0.74
-0.745
-0.72
-0.71
-0.7
-0.7
-0.675
-0.665
-0.665
-0.665
-0.67
-0.695
-0.69
-0.7
-0.69
-0.685
-0.665
-0.635
-0.64
-0.61
-0.615
-0.605
-0.615
-0.62
-0.615
-0.605
-0.61
-0.59
-0.575
-0.555
-0.535
-0.52
-0.505
-0.5
-0.495
-0.485
-0.475
-0.465
-0.44
-0.42
-0.41
-0.375
-0.365
-0.34
-0.315
-0.3
-0.3
-0.29
-0.29
-0.3
-0.265
-0.235
-0.21
-0.185
-0.155
-0.15
-0.13
-0.135
-0.13
-0.15
-0.15
-0.16
-0.155
-0.14
-0.14
-0.155
-0.175
-0.175
-0.21
-0.23
-0.265
-0.29
-0.33
-0.375
-0.4
-0.445
-0.445
-0.47
-0.48
-0.5
-0.54
-0.57
-0.58
-0.615
-0.64
-0.645
-0.68
-0.7
-0.675
-0.69
-0.69
-0.7
-0.695
-0.71
-0.715
-0.745
-0.755
-0.755
-0.765
-0.76
-0.76
-0.765
-0.75
-0.74
-0.74
-0.735
-0.745
-0.765
-0.78
-0.78
-0.795
-0.795
-0.785
-0.775
-0.765
-0.745
-0.745
-0.75
-0.76
-0.76
-0.78
-0.8
-0.785
-0.78
-0.8
-0.79
-0.765
-0.76
-0.76
-0.755
-0.765
-0.765
-0.78
-0.78
-0.775
-0.78
-0.77
-0.77
-0.755
-0.755
-0.76
-0.775
-0.765
-0.78
-0.785
-0.8
-0.81
-0.795
-0.795
-0.79
-0.775
-0.785
-0.785
-0.795
-0.82
-0.845
-0.85
-0.84
-0.845
-0.835
-0.825
-0.82
-0.815
-0.815
-0.825
-0.805
-0.815
-0.83
-0.84
-0.855
-0.855
-0.86
-0.84
-0.835
-0.835
-0.825
-0.815
-0.835
-0.845
-0.845
-0.85
-0.85
-0.86
-0.865
-0.85
-0.845
-0.835
-0.84
-0.835
-0.845
-0.85
-0.86
-0.87
-0.87
-0.87
-0.865
-0.85
-0.85
-0.84
-0.84
-0.845
-0.845
-0.85
-0.86
-0.865
-0.865
-0.87
-0.875
-0.865
-0.86
-0.85
-0.86
-0.85
-0.85
-0.85
-0.865
-0.875
-0.89
-0.9
-0.88
-0.88
-0.87
-0.865
-0.865
-0.85
-0.875
-0.865
-0.875
-0.89
-0.88
-0.88
-0.87
-0.88
-0.855
-0.835
-0.84
-0.84
-0.84
-0.85
-0.855
-0.855
-0.88
-0.88
-0.855
-0.855
-0.85
-0.835
-0.835
-0.84
-0.855
-0.845
-0.855
-0.87
-0.87
-0.87
-0.86
-0.86
-0.855
-0.86
-0.84
-0.85
-0.845
-0.865
-0.875
-0.875
-0.89
-0.89
-0.895
-0.87
-0.87
-0.845
-0.83
-0.83
-0.84
-0.845
-0.85
-0.865
-0.86
-0.865
-0.865
-0.865
-0.865
-0.855
-0.835
-0.825
-0.835
-0.85
-0.86
-0.87
-0.87
-0.87
-0.88
-0.855
-0.825
-0.835
-0.835
-0.845
-0.83
-0.84
-0.83
-0.84
-0.855
-0.86
-0.855
-0.83
-0.82
-0.81
-0.785
-0.77
-0.75
-0.765
-0.76
-0.765
-0.765
-0.745
-0.73
-0.705
-0.685
-0.65
-0.64
-0.635
-0.645
-0.655
-0.66
-0.695
-0.71
-0.72
-0.735
-0.735
-0.73
-0.735
-0.735
-0.755
-0.775
-0.815
-0.835
-0.855
-0.875
-0.88
-0.885
-0.87
-0.855
-0.865
-0.865
-0.85
-0.855
-0.875
-0.895
-0.915
-0.91
-0.91
-0.905
-0.905
-0.88
-0.875
-0.875
-0.87
-0.86
-0.87
-0.885
-0.88
-0.88
-0.88
-0.875
-0.875
-0.845
-0.845
-0.83
-0.805
-0.78
-0.725
-0.675
-0.585
-0.48
-0.34
-0.195
-0.065
-0.005
-0.04
-0.155
-0.36
-0.64
-0.925
-1.19
-1.45
-1.645
-1.765
-1.78
-1.705
-1.59
-1.46
-1.34
-1.255
-1.17
-1.1
-1.015
-0.965
-0.915
-0.855
-0.815
-0.795
-0.8
-0.78
-0.78
-0.79
-0.79
-0.785
-0.785
-0.78
-0.79
-0.77
-0.775
-0.755
-0.74
-0.725
-0.71
-0.715
-0.71
-0.72
-0.725
-0.73
-0.72
-0.725
-0.705
-0.71
-0.695
-0.695
-0.68
-0.67
-0.675
-0.695
-0.675
-0.685
-0.685
-0.68
-0.68
-0.67
-0.66
-0.65
-0.635
-0.63
-0.63
-0.63
-0.62
-0.64
-0.63
-0.63
-0.62
-0.605
-0.59
-0.575
-0.555
-0.55
-0.525
-0.525
-0.535
-0.545
-0.53
-0.52
-0.515
-0.48
-0.46
-0.46
-0.435
-0.41
-0.395
-0.385
-0.385
-0.37
-0.35
-0.35
-0.315
-0.29
-0.285
-0.24
-0.23
-0.2
-0.185
-0.19
-0.185
-0.19
-0.18
-0.185
-0.16
-0.15
-0.125
-0.105
-0.1
-0.105
-0.115
-0.115
-0.125
-0.155
-0.165
-0.185
-0.205
-0.205
-0.235
-0.25
-0.25
-0.28
-0.315
-0.36
-0.405
-0.43
-0.465
-0.505
-0.52
-0.535
-0.555
-0.565
-0.58
-0.615
-0.635
-0.64
-0.66
-0.685
-0.7
-0.71
-0.705
-0.71
-0.725
-0.705
-0.69
-0.705
-0.705
-0.71
-0.715
-0.725
-0.755
-0.76
-0.76
-0.75
-0.745
-0.74
-0.725
-0.735
-0.74
-0.75
-0.74
-0.755
-0.75
-0.76
-0.75
-0.755
-0.745
-0.735
-0.725
-0.74
-0.745
-0.75
-0.75
-0.79
-0.785
-0.79
-0.785
-0.765
-0.755
-0.735
-0.73
-0.75
-0.725
-0.74
-0.755
-0.755
-0.77
-0.77
-0.78
-0.765
-0.77
-0.765
-0.755
-0.76
-0.775
-0.78
-0.78
-0.78
-0.805
-0.81
-0.825
-0.8
-0.8
-0.785
-0.79
-0.785
-0.8
-0.8
-0.815
-0.83
-0.83
-0.825
-0.83
-0.82
-0.805
-0.81
-0.795
-0.81
-0.8
-0.815
-0.825
-0.845
-0.835
-0.85
-0.855
-0.845
-0.83
-0.815
-0.82
-0.84
-0.84
-0.835
-0.835
-0.865
-0.88
-0.875
-0.87
-0.845
-0.84
-0.83
-0.815
-0.83
-0.845
-0.84
-0.855
-0.865
-0.875
-0.885
-0.875
-0.87
-0.845
-0.845
-0.845
-0.845
-0.84
-0.855
-0.86
-0.88
-0.875
-0.875
-0.87
-0.87
-0.86
-0.86
-0.85
-0.85
-0.85
-0.865
-0.865
-0.87
-0.875
-0.88
-0.905
-0.89
-0.885
-0.87
-0.865
-0.865
-0.87
-0.865
-0.885
-0.885
-0.875
-0.885
-0.89
-0.87
-0.86
-0.86
-0.865
-0.855
-0.86
-0.86
-0.87
-0.885
-0.895
-0.9
-0.89
-0.875
-0.87
-0.865
-0.87
-0.86
-0.865
-0.87
-0.875
-0.885
-0.88
-0.89
-0.88
-0.88
-0.875
-0.875
-0.855
-0.86
-0.855
-0.87
-0.88
-0.89
-0.885
-0.9
-0.895
-0.88
-0.87
-0.88
-0.86
-0.85
-0.855
-0.87
-0.88
-0.905
-0.89
-0.895
-0.885
-0.885
-0.865
-0.88
-0.855
-0.855
-0.86
-0.885
-0.89
-0.88
-0.905
-0.895
-0.89
-0.87
-0.865
-0.86
-0.845
-0.85
-0.855
-0.865
-0.86
-0.86
-0.87
-0.87
-0.885
-0.885
-0.855
-0.855
-0.84
-0.835
-0.83
-0.855
-0.85
-0.845
-0.84
-0.82
-0.84
-0.81
-0.77
-0.765
-0.745
-0.765
-0.765
-0.75
-0.74
-0.735
-0.715
-0.725
-0.695
-0.69
-0.69
-0.69
-0.69
-0.705
-0.735
-0.745
-0.76
-0.775
-0.785
-0.785
-0.785
-0.795
-0.795
-0.815
-0.83
-0.835
-0.835
-0.86
-0.87
-0.86
-0.885
-0.88
-0.88
-0.89
-0.875
-0.88
-0.875
-0.87
-0.885
-0.89
-0.905
-0.91
-0.92
-0.925
-0.92
-0.91
-0.885
-0.89
-0.875
-0.88
-0.875
-0.87
-0.875
-0.875
-0.865
-0.865
-0.86
-0.82
-0.76
-0.69
-0.58
-0.475
-0.355
-0.215
-0.09
-0.005
-0.01
-0.09
-0.23
-0.44
-0.68
-0.925
-1.145
-1.355
-1.52
-1.61
-1.62
-1.54
-1.455
-1.345
-1.25
-1.15
-1.06
-0.985
-0.92
-0.875
-0.83
-0.82
-0.81
-0.83
-0.84
-0.85
-0.83
-0.825
-0.82
-0.805
-0.795
-0.78
-0.765
-0.77
-0.775
-0.77
-0.785
-0.78
-0.77
-0.775
-0.77
-0.75
-0.75
-0.74
-0.725
-0.725
-0.74
-0.74
-0.74
-0.74
-0.74
-0.72
-0.705
-0.705
-0.7
-0.68
-0.685
-0.695
-0.705
-0.7
-0.72
-0.715
-0.71
-0.695
-0.675
-0.68
-0.645
-0.655
-0.645
-0.635
-0.635
-0.635
-0.63
-0.635
-0.615
-0.615
-0.595
-0.575
-0.55
-0.54
-0.54
-0.54
-0.535
-0.525
-0.515
-0.5
-0.49
-0.49
-0.46
-0.44
-0.4
-0.385
-0.385
-0.37
-0.365
-0.355
-0.345
-0.335
-0.3
-0.28
-0.26
-0.235
-0.21
-0.21
-0.205
-0.205
-0.19
-0.17
-0.175
-0.18
-0.165
-0.15
-0.145
-0.13
-0.12
-0.135
-0.14
-0.17
-0.19
-0.22
-0.24
-0.26
-0.285
-0.305
-0.32
-0.335
-0.365
-0.39
-0.425
-0.465
-0.52
-0.54
-0.585
-0.605
-0.62
-0.625
-0.635
-0.65
-0.65
-0.67
-0.675
-0.705
-0.725
-0.73
-0.745
-0.77
-0.775
-0.765
-0.77
-0.77
-0.785
-0.775
-0.775
-0.78
-0.795
-0.79
-0.81
-0.81
-0.8
-0.805
-0.81
-0.805
-0.79
-0.78
-0.785
-0.785
-0.81
-0.81
-0.795
-0.805
-0.8
-0.795
-0.785
-0.78
-0.76
-0.77
-0.77
-0.785
-0.795
-0.8
-0.82
-0.825
-0.825
-0.8
-0.795
-0.785
-0.785
-0.8
-0.795
-0.815
-0.81
-0.82
-0.83
-0.83
-0.85
-0.84
-0.82
-0.8
-0.8
-0.82
-0.825
-0.82
-0.84
-0.835
-0.84
-0.84
-0.855
-0.855
-0.845
-0.83
-0.825
-0.835
-0.845
-0.865
-0.86
-0.86
-0.855
-0.87
-0.89
-0.89
-0.87
-0.855
-0.86
-0.885
-0.895
-0.885
-0.87
-0.88
-0.885
-0.9
-0.885
-0.88
-0.885
-0.87
-0.865
-0.87
-0.875
-0.875
-0.88
-0.89
-0.905
-0.895
-0.895
-0.895
-0.89
-0.885
-0.865
-0.88
-0.87
-0.89
-0.89
-0.895
-0.9
-0.905
-0.905
-0.88
-0.875
-0.865
-0.865
-0.875
-0.875
-0.885
-0.89
-0.895
-0.91
-0.92
-0.91
-0.905
-0.895
-0.89
-0.885
-0.905
-0.89
-0.88
-0.89
-0.9
-0.9
-0.91
-0.91
-0.895
-0.915
-0.89
-0.88
-0.89
-0.885
-0.895
-0.91
-0.92
-0.915
-0.925
-0.925
-0.905
-0.895
-0.895
-0.88
-0.89
-0.895
-0.895
-0.895
-0.905
-0.91
-0.905
-0.905
-0.905
-0.895
-0.89
-0.88
-0.875
-0.885
-0.885
-0.895
-0.915
-0.92
-0.94
-0.945
-0.925
-0.925
-0.91
-0.885
-0.895
-0.9
-0.9
-0.89
-0.905
-0.905
-0.925
-0.925
-0.92
-0.915
-0.905
-0.885
-0.885
-0.885
-0.895
-0.9
-0.9
-0.92
-0.925
-0.915
-0.9
-0.91
-0.9
-0.865
-0.86
-0.87
-0.875
-0.895
-0.9
-0.91
-0.935
-0.925
-0.905
-0.905
-0.885
-0.86
-0.87
-0.86
-0.88
-0.89
-0.9
-0.89
-0.91
-0.905
-0.89
-0.88
-0.865
-0.835
-0.85
-0.835
-0.825
-0.825
-0.825
-0.81
-0.82
-0.825
-0.805
-0.8
-0.775
-0.755
-0.76
-0.735
-0.72
-0.72
-0.725
-0.74
-0.735
-0.745
-0.75
-0.75
-0.765
-0.765
-0.78
-0.785
-0.8
-0.815
-0.835
-0.855
-0.905
-0.91
-0.9
-0.895
-0.88
-0.875
-0.905
-0.885
-0.905
-0.91
-0.915
-0.93
-0.945
-0.945
-0.925
-0.925
-0.925
-0.91
-0.93
-0.91
-0.92
-0.91
-0.925
-0.915
-0.925
-0.925
-0.915
-0.91
-0.885
-0.87
-0.875
-0.88
-0.88
-0.875
-0.87
-0.84
-0.8
-0.71
-0.625
-0.505
-0.37
-0.25
-0.155
-0.125
