Lead II
-0.23
-0.235
-0.215
-0.205
-0.215
-0.21
-0.235
-0.25
-0.23
-0.225
-0.235
-0.235
-0.26
-0.26
-0.25
-0.235
-0.25
-0.25
-0.28
-0.26
-0.25
-0.23
-0.23
-0.255
-0.285
-0.27
-0.265
-0.25
-0.245
-0.26
-0.27
-0.285
-0.275
-0.26
-0.255
-0.26
-0.275
-0.26
-0.275
-0.25
-0.24
-0.25
-0.265
-0.265
-0.265
-0.265
-0.25
-0.27
-0.285
-0.3
-0.28
-0.26
-0.25
-0.265
-0.285
-0.3
-0.265
-0.265
-0.255
-0.255
-0.27
-0.28
-0.27
-0.265
-0.26
-0.285
-0.275
-0.28
-0.28
-0.255
-0.25
-0.265
-0.27
-0.27
-0.26
-0.255
-0.245
-0.245
-0.27
-0.27
-0.26
-0.245
-0.24
-0.255
-0.275
-0.27
-0.26
-0.235
-0.225
-0.24
-0.24
-0.25
-0.24
-0.225
-0.205
-0.215
-0.23
-0.23
-0.22
-0.185
-0.17
-0.17
-0.17
-0.165
-0.15
-0.125
-0.11
-0.11
-0.09
-0.075
-0.06
-0.05
-0.04
-0.06
-0.085
-0.095
-0.1
-0.095
-0.08
-0.095
-0.12
-0.145
-0.16
-0.14
-0.14
-0.175
-0.17
-0.19
-0.195
-0.17
-0.18
-0.195
-0.2
-0.2
-0.19
-0.16
-0.15
-0.165
-0.185
-0.19
-0.17
-0.16
-0.175
-0.195
-0.18
-0.11
0.035
0.255
0.495
0.76
0.96
1.125
1.22
1.26
1.27
1.23
1.15
1.01
0.76
0.435
0.1
-0.09
-0.115
-0.105
-0.105
-0.125
-0.15
-0.18
-0.195
-0.205
-0.215
-0.23
-0.23
-0.25
-0.28
-0.29
-0.295
-0.285
-0.305
-0.305
-0.32
-0.32
-0.31
-0.3
-0.3
-0.32
-0.34
-0.345
-0.34
-0.325
-0.32
-0.325
-0.335
-0.345
-0.335
-0.315
-0.31
-0.315
-0.325
-0.335
-0.315
-0.305
-0.295
-0.29
-0.3
-0.32
-0.305
-0.295
-0.28
-0.28
-0.29
-0.29
-0.27
-0.26
-0.255
-0.26
-0.265
-0.26
-0.23
-0.22
-0.21
-0.2
-0.23
-0.205
-0.195
-0.17
-0.145
-0.145
-0.135
-0.13
-0.115
-0.09
-0.08
-0.07
-0.065
-0.055
-0.035
0.0
0.035
0.03
0.055
0.075
0.095
0.11
0.14
0.175
0.18
0.205
0.23
0.26
0.29
0.29
0.285
0.305
0.335
0.355
0.375
0.37
0.365
0.36
0.355
0.375
0.37
0.355
0.325
0.31
0.295
0.285
0.285
0.255
0.22
0.2
0.185
0.15
0.155
0.12
0.08
0.065
0.045
0.02
0.02
0.005
-0.05
-0.07
-0.065
-0.065
-0.085
-0.105
-0.125
-0.13
-0.145
-0.135
-0.145
-0.165
-0.19
-0.205
-0.195
-0.2
-0.205
-0.21
-0.225
-0.24
-0.24
-0.24
-0.23
-0.255
-0.265
-0.265
-0.26
-0.26
-0.255
-0.27
-0.29
-0.295
-0.295
-0.275
-0.275
-0.285
-0.29
-0.31
-0.295
-0.28
-0.28
-0.275
-0.3
-0.31
-0.295
-0.3
-0.26
-0.28
-0.285
-0.275
-0.28
-0.255
-0.25
-0.27
-0.29
-0.27
-0.28
-0.265
-0.235
-0.245
-0.25
-0.265
-0.26
-0.24
-0.245
-0.24
-0.255
-0.26
-0.255
-0.25
-0.25
-0.235
-0.255
-0.26
-0.265
-0.25
-0.24
-0.24
-0.26
-0.265
-0.26
-0.27
-0.24
-0.245
-0.26
-0.265
-0.265
-0.25
-0.25
-0.26
-0.27
-0.28
-0.275
-0.26
-0.27
-0.26
-0.28
-0.3
-0.275
-0.27
-0.265
-0.27
-0.28
-0.29
-0.285
-0.27
-0.28
-0.28
-0.285
-0.295
-0.285
-0.27
-0.27
-0.275
-0.295
-0.305
-0.295
-0.285
-0.265
-0.275
-0.29
-0.29
-0.29
-0.28
-0.285
-0.29
-0.31
-0.31
-0.29
-0.275
-0.27
-0.285
-0.295
-0.29
-0.28
-0.28
-0.26
-0.275
-0.29
-0.305
-0.29
-0.28
-0.28
-0.29
-0.29
-0.29
-0.28
-0.27
-0.275
-0.275
-0.275
-0.285
-0.275
-0.27
-0.255
-0.265
-0.27
-0.28
-0.265
-0.255
-0.27
-0.265
-0.285
-0.28
-0.27
-0.255
-0.26
-0.26
-0.27
-0.27
-0.26
-0.265
-0.245
-0.25
-0.27
-0.265
-0.275
-0.265
-0.24
-0.255
-0.26
-0.27
-0.25
-0.24
-0.235
-0.24
-0.25
-0.265
-0.25
-0.235
-0.24
-0.235
-0.25
-0.25
-0.24
-0.22
-0.21
-0.22
-0.21
-0.22
-0.21
-0.2
-0.19
-0.17
-0.2
-0.165
-0.15
-0.115
-0.105
-0.095
-0.11
-0.095
-0.07
-0.03
-0.02
-0.035
-0.035
-0.055
-0.055
-0.055
-0.06
-0.055
-0.095
-0.1
-0.12
-0.115
-0.105
-0.12
-0.14
-0.16
-0.16
-0.16
-0.145
-0.155
-0.19
-0.18
-0.17
-0.155
-0.15
-0.145
-0.155
-0.16
-0.16
-0.15
-0.175
-0.18
-0.19
-0.11
0.02
0.27
0.545
0.815
1.04
1.18
1.265
1.305
1.28
1.195
1.035
0.76
0.385
0.065
-0.06
-0.06
-0.06
-0.095
-0.12
-0.145
-0.14
-0.155
-0.19
-0.225
-0.23
-0.24
-0.24
-0.26
-0.265
-0.285
-0.285
-0.295
-0.3
-0.295
-0.305
-0.31
-0.315
-0.29
-0.285
-0.31
-0.31
-0.32
-0.305
-0.3
-0.295
-0.295
-0.315
-0.315
-0.315
-0.315
-0.29
-0.295
-0.305
-0.3
-0.3
-0.29
-0.275
-0.285
-0.285
-0.28
-0.26
-0.25
-0.23
-0.235
-0.24
-0.23
-0.23
-0.21
-0.22
-0.22
-0.215
-0.21
-0.19
-0.155
-0.145
-0.14
-0.14
-0.145
-0.135
-0.105
-0.085
-0.095
-0.075
-0.075
-0.03
-0.015
0.03
0.035
0.04
0.045
0.09
0.14
0.16
0.185
0.165
0.195
0.22
0.255
0.295
0.3
0.305
0.31
0.335
0.35
0.38
0.395
0.38
0.36
0.38
0.39
0.38
0.38
0.35
0.325
0.305
0.32
0.305
0.27
0.235
0.195
0.185
0.175
0.17
0.13
0.085
0.045
0.03
0.035
0.015
0.0
-0.025
-0.04
-0.075
-0.05
-0.06
-0.075
-0.105
-0.125
-0.125
-0.12
-0.115
-0.14
-0.16
-0.175
-0.18
-0.17
-0.17
-0.18
-0.205
-0.205
-0.215
-0.205
-0.205
-0.205
-0.225
-0.23
-0.225
-0.22
-0.21
-0.215
-0.23
-0.255
-0.24
-0.23
-0.225
-0.235
-0.245
-0.255
-0.25
-0.23
-0.225
-0.24
-0.24
-0.235
-0.255
-0.215
-0.225
-0.22
-0.23
-0.25
-0.245
-0.23
-0.23
-0.225
-0.24
-0.235
-0.21
-0.195
-0.195
-0.2
-0.225
-0.215
-0.21
-0.195
-0.2
-0.19
-0.2
-0.21
-0.215
-0.205
-0.195
-0.19
-0.21
-0.22
-0.215
-0.205
-0.19
-0.205
-0.215
-0.215
-0.2
-0.195
-0.195
-0.215
-0.235
-0.22
-0.215
-0.205
-0.2
-0.205
-0.22
-0.24
-0.235
-0.23
-0.205
-0.22
-0.24
-0.24
-0.245
-0.225
-0.215
-0.22
-0.235
-0.235
-0.23
-0.22
-0.225
-0.21
-0.23
-0.24
-0.24
-0.22
-0.21
-0.22
-0.24
-0.245
-0.23
-0.225
-0.22
-0.21
-0.235
-0.245
-0.23
-0.23
-0.225
-0.235
-0.235
-0.235
-0.23
-0.235
-0.22
-0.21
-0.225
-0.25
-0.24
-0.23
-0.23
-0.225
-0.235
-0.25
-0.24
-0.215
-0.22
-0.215
-0.225
-0.235
-0.225
-0.2
-0.2
-0.215
-0.22
-0.235
-0.22
-0.205
-0.2
-0.215
-0.22
-0.24
-0.225
-0.21
-0.215
-0.205
-0.225
-0.22
-0.22
-0.215
-0.195
-0.2
-0.22
-0.225
-0.23
-0.2
-0.195
-0.2
-0.215
-0.225
-0.21
-0.195
-0.185
-0.185
-0.2
-0.215
-0.195
-0.185
-0.185
-0.19
-0.195
-0.205
-0.195
-0.18
-0.17
-0.195
-0.205
-0.195
-0.195
-0.175
-0.17
-0.175
-0.195
-0.2
-0.175
-0.165
-0.15
-0.16
-0.165
-0.165
-0.16
-0.125
-0.12
-0.11
-0.12
-0.13
-0.1
-0.08
-0.055
-0.04
-0.05
-0.045
-0.01
0.0
0.035
0.04
0.015
-0.02
-0.025
0.0
-0.005
-0.015
-0.03
-0.05
-0.07
-0.065
-0.075
-0.095
-0.115
-0.14
-0.125
-0.135
-0.125
-0.13
-0.14
-0.15
-0.125
-0.11
-0.095
-0.1
-0.13
-0.125
-0.14
-0.135
-0.135
-0.135
-0.11
0.01
0.205
0.465
0.735
0.975
1.155
1.255
1.28
1.3
1.27
1.17
0.99
0.67
0.285
0.015
-0.06
-0.035
-0.06
-0.095
-0.125
-0.135
-0.14
-0.15
-0.175
-0.21
-0.21
-0.215
-0.215
-0.235
-0.25
-0.275
-0.265
-0.245
-0.255
-0.26
-0.265
-0.29
-0.28
-0.265
-0.25
-0.255
-0.265
-0.275
-0.285
-0.255
-0.24
-0.25
-0.26
-0.265
-0.255
-0.245
-0.245
-0.235
-0.25
-0.255
-0.25
-0.225
-0.205
-0.215
-0.22
-0.23
-0.21
-0.195
-0.165
-0.175
-0.19
-0.185
-0.17
-0.14
-0.135
-0.135
-0.145
-0.14
-0.12
-0.09
-0.08
-0.09
-0.075
-0.065
-0.045
-0.015
-0.01
0.01
0.015
0.02
0.045
0.07
0.1
0.115
0.13
0.13
0.16
0.205
0.225
0.23
0.24
0.26
0.28
0.335
0.365
0.39
0.38
0.4
0.425
0.445
0.46
0.455
0.465
0.45
0.455
0.46
0.475
0.455
0.445
0.425
0.415
0.4
0.39
0.375
0.335
0.305
0.3
0.295
0.28
0.25
0.195
0.16
0.155
0.14
0.145
0.125
0.095
0.07
0.05
0.045
0.055
0.03
0.015
-0.01
-0.02
-0.01
-0.015
-0.025
-0.06
-0.075
-0.08
-0.075
-0.07
-0.08
-0.1
-0.115
-0.125
-0.085
-0.09
-0.1
-0.115
-0.135
-0.125
-0.115
-0.12
-0.12
-0.125
-0.145
-0.13
-0.11
-0.1
-0.12
-0.13
-0.13
-0.125
-0.115
-0.105
-0.115
-0.125
-0.125
-0.125
-0.105
-0.095
-0.1
-0.12
-0.115
-0.105
-0.09
-0.09
-0.1
-0.115
-0.105
-0.105
-0.085
-0.08
-0.1
-0.11
-0.115
-0.1
-0.09
-0.08
-0.09
-0.105
-0.115
-0.11
-0.1
-0.095
-0.105
-0.13
-0.135
-0.125
-0.115
-0.11
-0.125
-0.135
-0.135
-0.135
-0.115
-0.12
-0.14
-0.16
-0.16
-0.155
-0.145
-0.135
-0.14
-0.155
-0.17
-0.165
-0.16
-0.155
-0.155
-0.17
-0.185
-0.175
-0.18
-0.165
-0.16
-0.18
-0.18
-0.18
-0.185
-0.16
-0.175
-0.2
-0.2
-0.2
-0.17
-0.175
-0.18
-0.19
-0.2
-0.19
-0.175
-0.165
-0.165
-0.19
-0.195
-0.19
-0.19
-0.175
-0.18
-0.205
-0.205
-0.195
-0.185
-0.185
-0.205
-0.21
-0.215
-0.205
-0.185
-0.18
-0.19
-0.2
-0.215
-0.2
-0.2
-0.19
-0.195
-0.205
-0.205
-0.215
-0.2
-0.185
-0.18
-0.21
-0.21
-0.21
-0.195
-0.195
-0.195
-0.21
-0.225
-0.195
-0.2
-0.185
-0.19
-0.195
-0.2
-0.22
-0.19
-0.18
-0.185
-0.22
-0.22
-0.205
-0.18
-0.18
-0.185
-0.21
-0.21
-0.2
-0.195
-0.185
-0.19
-0.195
-0.21
-0.195
-0.18
-0.17
-0.175
-0.2
-0.195
-0.19
-0.175
-0.155
-0.145
-0.16
-0.15
-0.155
-0.12
-0.105
-0.1
-0.12
-0.12
-0.085
-0.065
-0.04
-0.01
-0.005
-0.01
-0.005
-0.005
0.01
-0.02
-0.04
-0.045
-0.04
-0.04
-0.05
-0.07
-0.105
-0.115
-0.115
-0.115
-0.11
-0.125
-0.15
-0.16
-0.15
-0.15
-0.135
-0.13
-0.145
-0.15
-0.14
-0.135
-0.115
-0.13
-0.155
-0.185
-0.165
-0.11
0.02
0.2
0.44
0.705
0.94
1.14
1.265
1.295
1.27
1.2
1.12
0.915
0.585
0.18
-0.095
-0.155
-0.125
-0.095
-0.11
-0.155
-0.175
-0.175
-0.185
-0.195
-0.185
-0.205
-0.24
-0.265
-0.255
-0.26
-0.265
-0.265
-0.28
-0.285
-0.285
-0.265
-0.27
-0.27
-0.29
-0.305
-0.3
-0.285
-0.275
-0.265
-0.29
-0.3
-0.3
-0.29
-0.28
-0.265
-0.275
-0.285
-0.28
-0.265
-0.25
-0.255
-0.26
-0.265
-0.265
-0.245
-0.225
-0.215
-0.235
-0.245
-0.23
-0.205
-0.21
-0.215
-0.2
-0.2
-0.195
-0.175
-0.16
-0.155
-0.18
-0.165
-0.15
-0.13
-0.115
-0.105
-0.105
-0.09
-0.085
-0.05
-0.035
-0.03
-0.025
-0.015
0.015
0.04
0.075
0.075
0.09
0.11
0.125
0.165
0.215
0.215
0.235
0.24
0.275
0.3
0.33
0.34
0.345
0.335
0.35
0.37
0.38
0.38
0.375
0.355
0.36
0.35
0.34
0.35
0.295
0.28
0.27
0.25
0.255
0.23
0.185
0.15
0.13
0.115
0.11
0.08
0.04
0.015
0.01
0.0
0.0
-0.03
-0.055
-0.08
-0.09
-0.1
-0.09
-0.115
-0.14
-0.165
-0.165
-0.165
-0.16
-0.17
-0.185
-0.205
-0.205
-0.205
-0.2
-0.225
-0.235
-0.25
-0.26
-0.235
-0.225
-0.235
-0.25
-0.26
-0.255
-0.24
-0.245
-0.245
-0.25
-0.265
-0.255
-0.245
-0.245
-0.24
-0.245
-0.27
-0.265
-0.245
-0.235
-0.24
-0.25
-0.26
-0.25
-0.235
-0.225
-0.22
-0.23
-0.245
-0.24
-0.23
-0.205
-0.225
-0.225
-0.23
-0.24
-0.21
-0.21
-0.225
-0.225
-0.235
-0.23
-0.23
-0.21
-0.22
-0.245
-0.235
-0.24
-0.225
-0.215
-0.23
-0.24
-0.255
-0.245
-0.235
-0.23
-0.235
-0.245
-0.255
-0.245
-0.245
-0.24
-0.24
-0.255
-0.255
-0.265
-0.26
-0.235
-0.26
-0.265
-0.275
-0.275
-0.26
-0.255
-0.26
-0.27
-0.28
-0.27
-0.27
-0.27
-0.28
-0.29
-0.29
-0.305
-0.275
-0.27
-0.28
-0.3
-0.305
-0.295
-0.29
-0.28
-0.28
-0.3
-0.295
-0.3
-0.285
-0.275
-0.275
-0.29
-0.305
-0.31
-0.28
-0.265
-0.265
-0.295
-0.305
-0.305
-0.29
-0.28
-0.285
-0.295
-0.31
-0.315
-0.29
-0.295
-0.295
-0.31
-0.31
-0.32
-0.315
-0.285
-0.295
-0.3
-0.31
-0.315
-0.295
-0.3
-0.3
-0.31
-0.32
-0.31
-0.31
-0.29
-0.3
-0.305
-0.33
-0.32
-0.31
-0.285
-0.3
-0.305
-0.32
-0.315
-0.29
-0.28
-0.295
-0.305
-0.325
-0.31
-0.3
-0.285
-0.295
-0.3
-0.305
-0.305
-0.29
-0.29
-0.28
-0.295
-0.325
-0.305
-0.29
-0.295
-0.28
-0.295
-0.305
-0.295
-0.27
-0.26
-0.26
-0.27
-0.275
-0.26
-0.25
-0.235
-0.225
-0.225
-0.23
-0.215
-0.185
-0.175
-0.16
-0.165
-0.17
-0.135
-0.095
-0.075
-0.075
-0.09
-0.11
-0.115
-0.12
-0.105
-0.135
-0.135
-0.16
-0.155
-0.155
-0.16
-0.18
-0.2
-0.23
-0.24
-0.23
-0.225
-0.235
-0.25
-0.26
-0.255
-0.23
-0.21
-0.23
-0.225
-0.235
-0.245
-0.215
-0.21
-0.225
-0.25
-0.26
-0.28
-0.24
-0.16
-0.03
0.135
0.395
0.665
0.895
1.08
1.17
1.205
1.195
1.165
1.09
0.925
0.62
0.235
-0.065
-0.2
-0.175
-0.16
-0.175
-0.215
-0.24
-0.265
-0.255
-0.255
-0.27
-0.305
-0.325
-0.335
-0.335
-0.335
-0.35
-0.355
-0.38
-0.39
-0.38
-0.36
-0.365
-0.375
-0.385
-0.39
-0.39
-0.38
-0.385
-0.385
-0.395
-0.405
-0.385
-0.38
-0.37
-0.39
-0.39
-0.39
-0.37
-0.37
-0.39
-0.37
-0.38
-0.375
-0.375
-0.355
-0.355
-0.35
-0.365
-0.355
-0.345
-0.32
-0.325
-0.335
-0.34
-0.325
-0.315
-0.29
-0.285
-0.295
-0.31
-0.29
-0.265
-0.255
-0.26
-0.25
-0.255
-0.24
-0.225
-0.185
-0.195
-0.195
-0.195
-0.16
-0.145
-0.12
-0.11
-0.105
-0.11
-0.08
-0.045
-0.015
-0.005
0.0
0.015
0.05
0.08
0.105
0.115
0.12
0.13
0.16
0.205
0.22
0.23
0.225
0.24
0.26
0.285
0.3
0.305
0.285
0.28
0.29
0.295
0.3
0.28
0.25
0.24
0.225
0.215
0.215
0.185
0.14
0.12
0.1
0.085
0.08
0.055
0.035
0.0
-0.015
-0.015
-0.025
-0.055
-0.075
-0.1
-0.105
-0.13
-0.115
-0.135
-0.16
-0.185
-0.19
-0.19
-0.18
-0.19
-0.24
-0.255
-0.255
-0.255
-0.255
-0.245
-0.275
-0.29
-0.31
-0.28
-0.28
-0.295
-0.3
-0.315
-0.305
-0.295
-0.295
-0.305
-0.31
-0.325
-0.32
-0.295
-0.295
-0.305
-0.315
-0.345
-0.315
-0.31
-0.305
-0.3
-0.31
-0.32
-0.325
-0.32
-0.3
-0.3
-0.31
-0.305
-0.31
-0.285
-0.29
-0.295
-0.29
-0.305
-0.3
-0.29
-0.275
-0.28
-0.285
-0.295
-0.295
-0.29
-0.285
-0.28
-0.29
-0.295
-0.295
-0.28
-0.28
-0.28
-0.295
-0.31
-0.3
-0.285
-0.28
-0.275
-0.31
-0.33
-0.32
-0.31
-0.29
-0.29
-0.3
-0.315
-0.305
-0.305
-0.28
-0.3
-0.315
-0.315
-0.305
-0.305
-0.29
-0.3
-0.31
-0.33
-0.33
-0.315
-0.295
-0.3
-0.33
-0.33
-0.335
-0.33
-0.315
-0.32
-0.33
-0.34
-0.34
-0.32
-0.31
-0.33
-0.335
-0.345
-0.335
-0.315
-0.31
-0.315
-0.34
-0.35
-0.34
-0.325
-0.32
-0.325
-0.34
-0.335
-0.345
-0.325
-0.31
-0.32
-0.325
-0.345
-0.335
-0.325
-0.315
-0.32
-0.33
-0.33
-0.325
-0.31
-0.325
-0.315
-0.335
-0.35
-0.35
-0.335
-0.31
-0.32
-0.325
-0.345
-0.335
-0.32
-0.315
-0.31
-0.35
-0.345
-0.345
-0.325
-0.315
-0.315
-0.335
-0.34
-0.335
-0.32
-0.305
-0.315
-0.33
-0.33
-0.34
-0.31
-0.3
-0.31
-0.315
-0.325
-0.315
-0.31
-0.29
-0.295
-0.32
-0.32
-0.315
-0.315
-0.3
-0.3
-0.31
-0.33
-0.305
-0.305
-0.29
-0.29
-0.3
-0.315
-0.3
-0.29
-0.27
-0.285
-0.295
-0.315
-0.305
-0.275
-0.26
-0.255
-0.265
-0.275
-0.265
-0.245
-0.23
-0.23
-0.225
-0.22
-0.2
-0.18
-0.16
-0.16
-0.155
-0.125
-0.11
-0.07
-0.055
-0.06
-0.105
-0.125
-0.125
-0.105
-0.09
-0.1
-0.135
-0.15
-0.165
-0.16
-0.165
-0.18
-0.2
-0.23
-0.245
-0.24
-0.21
-0.22
-0.24
-0.255
-0.255
-0.235
-0.22
-0.21
-0.23
-0.235
-0.22
-0.21
-0.2
-0.2
-0.23
-0.25
-0.22
-0.16
-0.02
0.145
0.355
0.585
0.84
1.03
1.145
1.195
1.185
1.15
1.09
0.96
0.735
0.39
0.06
-0.13
-0.16
-0.13
-0.135
-0.175
-0.225
-0.255
-0.255
-0.27
-0.265
-0.28
-0.315
-0.34
-0.34
-0.355
-0.35
-0.345
-0.365
-0.385
-0.38
-0.355
-0.37
-0.37
-0.39
-0.4
-0.385
-0.375
-0.37
-0.375
-0.385
-0.39
-0.395
-0.37
-0.37
-0.36
-0.375
-0.385
-0.385
-0.37
-0.36
-0.365
-0.37
-0.38
-0.37
-0.355
-0.345
-0.345
-0.34
-0.355
-0.345
-0.33
-0.315
-0.31
-0.315
-0.31
-0.31
-0.29
-0.295
-0.285
-0.285
-0.28
-0.27
-0.255
-0.23
-0.24
-0.25
-0.26
-0.235
-0.21
-0.19
-0.185
-0.175
-0.185
-0.16
-0.135
-0.115
-0.095
-0.085
-0.1
-0.07
-0.045
-0.01
-0.005
0.005
0.01
0.03
0.075
0.13
0.13
0.135
0.14
0.17
0.2
0.23
0.235
0.225
0.24
0.27
0.285
0.305
0.305
0.305
0.285
0.285
0.295
0.3
0.295
0.26
0.255
0.24
0.23
0.235
0.195
0.17
0.145
0.125
0.11
0.12
0.09
0.05
0.035
0.01
-0.02
0.0
-0.025
-0.065
-0.08
-0.085
-0.1
-0.095
-0.11
-0.13
-0.165
-0.16
-0.185
-0.17
-0.18
-0.195
-0.23
-0.22
-0.22
-0.215
-0.22
-0.24
-0.27
-0.26
-0.25
-0.25
-0.255
-0.285
-0.3
-0.295
-0.285
-0.28
-0.29
-0.295
-0.31
-0.32
-0.295
-0.285
-0.285
-0.3
-0.31
-0.31
-0.3
-0.28
-0.285
-0.285
-0.305
-0.285
-0.275
-0.255
-0.265
-0.275
-0.275
-0.285
-0.27
-0.26
-0.245
-0.26
-0.27
-0.27
-0.255
-0.245
-0.23
-0.245
-0.265
-0.255
-0.235
-0.235
-0.22
-0.24
-0.25
-0.25
-0.24
-0.22
-0.225
-0.25
-0.245
-0.25
-0.23
-0.22
-0.235
-0.26
-0.26
-0.26
-0.25
-0.235
-0.255
-0.245
-0.275
-0.265
-0.255
-0.245
-0.245
-0.265
-0.28
-0.275
-0.27
-0.245
-0.26
-0.26
-0.275
-0.285
-0.28
-0.27
-0.26
-0.275
-0.29
-0.28
-0.265
-0.25
-0.27
-0.28
-0.285
-0.285
-0.28
-0.26
-0.26
-0.285
-0.29
-0.285
-0.265
-0.25
-0.25
-0.26
-0.275
-0.275
-0.265
-0.25
-0.26
-0.275
-0.275
-0.26
-0.25
-0.245
-0.25
-0.27
-0.285
-0.255
-0.25
-0.265
-0.245
-0.25
-0.27
-0.27
-0.255
-0.235
-0.24
-0.255
-0.275
-0.24
-0.25
-0.23
-0.235
-0.245
-0.26
-0.265
-0.245
-0.23
-0.24
-0.245
-0.26
-0.26
-0.255
-0.24
-0.235
-0.25
-0.255
-0.25
-0.24
-0.225
-0.225
-0.23
-0.25
-0.24
-0.235
-0.21
-0.21
-0.215
-0.22
-0.215
-0.21
-0.185
-0.17
-0.175
-0.18
-0.175
-0.16
-0.13
-0.115
-0.12
-0.11
-0.085
-0.055
-0.025
-0.005
-0.005
-0.03
-0.05
-0.025
-0.03
-0.035
-0.055
-0.07
-0.07
-0.095
-0.08
-0.11
-0.15
-0.155
-0.16
-0.16
-0.15
-0.18
-0.185
-0.195
-0.195
-0.18
-0.16
-0.16
-0.175
-0.175
-0.175
-0.16
-0.14
-0.145
-0.155
-0.18
-0.185
-0.175
-0.145
-0.08
0.03
0.19
0.42
0.695
0.95
1.135
1.25
1.275
1.305
1.28
1.22
1.075
0.795
0.415
0.02
-0.195
-0.215
-0.19
-0.19
-0.225
-0.245
-0.245
-0.24
-0.23
-0.245
-0.275
-0.275
-0.28
-0.265
-0.29
-0.31
-0.305
-0.305
-0.3
-0.29
-0.285
-0.31
-0.32
-0.31
-0.305
-0.3
-0.31
-0.31
-0.315
-0.32
-0.305
-0.295
-0.31
-0.325
-0.32
-0.31
-0.29
-0.285
-0.29
-0.3
-0.31
-0.305
-0.285
-0.27
-0.27
-0.285
-0.29
-0.285
-0.275
-0.265
-0.265
-0.27
-0.26
-0.26
-0.24
-0.24
-0.245
-0.22
-0.235
-0.215
-0.205
-0.19
-0.185
-0.185
-0.18
-0.18
-0.16
-0.135
-0.13
-0.125
-0.125
-0.115
-0.085
-0.06
-0.05
-0.04
-0.04
-0.025
-0.005
0.035
0.05
0.05
0.055
0.08
0.125
0.16
0.17
0.17
0.18
0.2
0.22
0.265
0.28
0.285
0.285
0.31
0.33
0.355
0.355
0.35
0.34
0.345
0.33
0.34
0.35
0.33
0.3
0.285
0.28
0.27
0.25
0.21
0.18
0.145
0.14
0.115
0.11
0.07
0.025
0.015
0.005
-0.01
-0.025
-0.06
-0.09
-0.105
-0.115
-0.115
-0.145
-0.16
-0.18
-0.19
-0.18
-0.19
-0.195
-0.22
-0.24
-0.24
-0.245
-0.24
-0.235
-0.25
-0.27
-0.27
-0.27
-0.255
-0.255
-0.275
-0.285
-0.28
-0.265
-0.25
-0.265
-0.27
-0.275
-0.265
-0.25
-0.255
-0.25
-0.265
-0.29
-0.265
-0.255
-0.225
-0.23
-0.245
-0.255
-0.26
-0.24
-0.23
-0.23
-0.23
-0.245
-0.235
-0.23
-0.21
-0.215
-0.21
-0.23
-0.22
-0.22
-0.195
-0.205
-0.215
-0.225
-0.215
-0.215
-0.2
-0.2
-0.235
-0.245
-0.235
-0.235
-0.23
-0.22
-0.235
-0.265
-0.255
-0.25
-0.235
-0.245
-0.265
-0.285
-0.28
-0.285
-0.255
-0.25
-0.265
-0.3
-0.29
-0.29
-0.265
-0.28
-0.285
-0.305
-0.3
-0.3
-0.28
-0.295
-0.31
-0.315
-0.33
-0.305
-0.295
-0.29
-0.32
-0.335
-0.315
-0.31
-0.295
-0.305
-0.315
-0.32
-0.325
-0.315
-0.31
-0.305
-0.325
-0.33
-0.33
-0.315
-0.305
-0.315
-0.335
-0.33
-0.35
-0.32
-0.32
-0.315
-0.33
-0.345
-0.33
-0.325
-0.31
-0.31
-0.315
-0.34
-0.345
-0.32
-0.315
-0.315
-0.335
-0.345
-0.33
-0.33
-0.305
-0.31
-0.32
-0.335
-0.33
-0.315
-0.31
-0.31
-0.325
-0.33
-0.33
-0.31
-0.3
-0.305
-0.315
-0.335
-0.325
-0.31
-0.305
-0.3
-0.31
-0.33
-0.325
-0.305
-0.285
-0.29
-0.29
-0.29
-0.29
-0.27
-0.26
-0.245
-0.25
-0.25
-0.23
-0.21
-0.18
-0.165
-0.16
-0.155
-0.115
-0.075
-0.055
-0.065
-0.09
-0.115
-0.12
-0.13
-0.13
-0.135
-0.16
-0.19
-0.2
-0.205
-0.2
-0.205
-0.235
-0.255
-0.28
-0.275
-0.255
-0.275
-0.275
-0.275
-0.28
-0.26
-0.245
-0.245
-0.255
-0.265
-0.265
-0.255
-0.26
-0.285
-0.3
-0.25
-0.12
0.105
0.38
0.685
0.935
1.11
1.22
1.275
1.28
1.23
1.115
0.925
0.585
0.17
-0.125
-0.22
-0.21
-0.2
-0.215
-0.24
-0.245
-0.26
-0.285
-0.325
-0.35
-0.35
-0.35
-0.365
-0.395
-0.415
-0.42
-0.41
-0.4
-0.4
-0.4
-0.41
-0.415
-0.405
-0.39
-0.395
-0.41
-0.425
-0.415
-0.4
-0.395
-0.39
-0.405
-0.4
-0.405
-0.39
-0.38
-0.38
-0.4
-0.38
-0.39
-0.385
-0.36
-0.37
-0.355
-0.375
-0.37
-0.355
-0.33
-0.335
-0.335
-0.335
-0.325
-0.325
-0.3
-0.295
-0.31
-0.31
-0.3
-0.285
-0.25
-0.25
-0.245
-0.24
-0.225
-0.215
-0.19
-0.175
-0.175
-0.17
-0.14
-0.12
-0.09
-0.07
-0.065
-0.045
-0.03
0.005
0.05
0.065
0.07
0.095
0.115
0.155
0.195
0.225
0.225
0.235
0.255
0.26
0.305
0.31
0.315
0.3
0.31
0.32
0.33
0.315
0.3
0.27
0.27
0.25
0.255
0.22
0.19
0.145
0.135
0.12
0.105
0.085
0.065
0.035
0.005
-0.005
-0.01
-0.035
-0.07
-0.11
-0.11
-0.115
-0.115
-0.15
-0.16
-0.19
-0.195
-0.2
-0.2
-0.215
-0.235
-0.245
-0.25
-0.26
-0.25
-0.26
-0.285
-0.3
-0.295
-0.3
-0.29
-0.31
-0.315
-0.345
-0.34
-0.335
-0.32
-0.33
-0.355
-0.37
-0.355
-0.34
-0.34
-0.33
-0.355
-0.35
-0.365
-0.35
-0.335
-0.325
-0.35
-0.35
-0.355
-0.335
-0.325
-0.305
-0.315
-0.32
-0.31
-0.305
-0.29
-0.3
-0.3
-0.31
-0.325
-0.32
-0.295
-0.305
-0.3
-0.32
-0.305
-0.305
-0.29
-0.285
-0.3
-0.32
-0.32
-0.32
-0.295
-0.3
-0.3
-0.32
-0.325
-0.29
-0.29
-0.29
-0.305
-0.32
-0.315
-0.305
-0.31
-0.295
-0.31
-0.32
-0.325
-0.32
-0.31
-0.32
-0.32
-0.335
-0.335
-0.325
-0.305
-0.315
-0.33
-0.335
-0.335
-0.32
-0.31
-0.32
-0.33
-0.355
-0.35
-0.345
-0.315
-0.325
-0.33
-0.34
-0.34
-0.335
-0.315
-0.325
-0.34
-0.35
-0.35
-0.34
-0.335
-0.325
-0.32
-0.34
-0.355
-0.345
-0.325
-0.32
-0.34
-0.345
-0.35
-0.345
-0.33
-0.325
-0.34
-0.335
-0.345
-0.33
-0.32
-0.315
-0.32
-0.34
-0.34
-0.325
-0.32
-0.335
-0.33
-0.33
-0.34
-0.345
-0.33
-0.33
-0.33
-0.34
-0.35
-0.335
-0.32
-0.32
-0.345
-0.335
-0.33
-0.325
-0.3
-0.3
-0.325
-0.33
-0.33
-0.31
-0.315
-0.28
-0.305
-0.32
-0.305
-0.29
-0.275
-0.26
-0.26
-0.27
-0.255
-0.235
-0.215
-0.2
-0.2
-0.185
-0.165
-0.14
-0.095
-0.07
-0.085
-0.1
-0.13
-0.13
-0.115
-0.135
-0.14
-0.16
-0.175
-0.185
-0.185
-0.205
-0.225
-0.245
-0.245
-0.245
-0.245
-0.245
-0.255
-0.26
-0.26
-0.255
-0.235
-0.235
-0.245
-0.25
-0.245
-0.245
-0.24
-0.26
-0.28
-0.255
-0.14
0.05
0.33
0.615
0.885
1.08
1.22
1.29
1.315
1.26
1.16
0.985
0.685
0.31
-0.005
-0.145
-0.165
-0.17
-0.19
-0.22
-0.24
-0.27
-0.285
-0.285
-0.3
-0.305
-0.3
-0.315
-0.33
-0.36
-0.375
-0.36
-0.345
-0.35
-0.365
-0.375
-0.38
-0.36
-0.36
-0.35
-0.36
-0.365
-0.365
-0.37
-0.345
-0.34
-0.365
-0.37
-0.38
-0.35
-0.35
-0.33
-0.335
-0.35
-0.355
-0.34
-0.31
-0.32
-0.33
-0.33
-0.33
-0.32
-0.295
-0.3
-0.295
-0.305
-0.31
-0.27
-0.255
-0.25
-0.255
-0.27
-0.245
-0.235
-0.21
-0.205
-0.205
-0.205
-0.2
-0.165
-0.145
-0.15
-0.145
-0.14
-0.125
-0.085
-0.055
-0.04
-0.035
-0.015
-0.005
0.03
0.065
0.095
0.1
0.11
0.14
0.185
0.22
0.24
0.25
0.26
0.29
0.32
0.35
0.365
0.37
0.365
0.375
0.395
0.4
0.41
0.39
0.37
0.36
0.36
0.35
0.34
0.3
0.26
0.24
0.215
0.205
0.185
0.15
0.12
0.08
0.075
0.06
0.04
0.02
-0.005
-0.03
-0.04
-0.04
-0.06
-0.08
-0.12
-0.13
-0.125
-0.115
-0.12
-0.135
-0.16
-0.17
-0.17
-0.175
-0.18
-0.2
-0.21
-0.225
-0.21
-0.21
-0.215
-0.225
-0.24
-0.23
-0.225
-0.215
-0.215
-0.22
-0.23
-0.24
-0.22
-0.2
-0.21
-0.22
-0.235
-0.225
-0.2
-0.19
-0.19
-0.21
-0.215
-0.225
-0.2
-0.175
-0.185
-0.18
-0.195
-0.195
-0.185
-0.16
-0.155
-0.16
-0.175
-0.175
-0.165
-0.14
-0.16
-0.15
-0.17
-0.16
-0.15
-0.14
-0.14
-0.145
-0.16
-0.15
-0.15
-0.12
-0.135
-0.145
-0.175
-0.165
-0.155
-0.15
-0.145
-0.155
-0.17
-0.17
-0.16
-0.145
-0.15
-0.17
-0.19
-0.19
-0.165
-0.16
-0.165
-0.19
-0.205
-0.195
-0.19
-0.19
-0.175
-0.185
-0.21
-0.19
-0.19
-0.17
-0.18
-0.205
-0.2
-0.2
-0.18
-0.17
-0.17
-0.185
-0.205
-0.21
-0.21
-0.2
-0.175
-0.2
-0.2
-0.205
-0.19
-0.19
-0.19
-0.205
-0.21
-0.205
-0.195
-0.18
-0.18
-0.195
-0.21
-0.21
-0.195
-0.18
-0.19
-0.195
-0.22
-0.215
-0.2
-0.18
-0.185
-0.195
-0.195
-0.205
-0.19
-0.175
-0.17
-0.18
-0.195
-0.19
-0.175
-0.175
-0.155
-0.17
-0.18
-0.185
-0.17
-0.135
-0.13
-0.15
-0.145
-0.145
-0.115
-0.1
-0.095
-0.085
-0.08
-0.08
-0.05
-0.015
0.0
0.0
0.005
0.015
0.01
0.03
-0.005
-0.01
-0.025
-0.045
-0.05
-0.04
-0.045
-0.075
-0.095
-0.115
-0.11
-0.12
-0.125
-0.135
-0.15
-0.15
-0.14
-0.12
-0.135
-0.15
-0.14
-0.135
-0.115
-0.11
-0.11
-0.125
-0.14
-0.145
-0.155
-0.135
-0.11
-0.035
0.105
0.335
0.605
0.88
1.12
1.26
1.33
1.34
1.305
1.23
1.06
0.735
0.375
0.03
-0.14
-0.14
-0.125
-0.14
-0.19
-0.21
-0.195
-0.195
-0.21
-0.235
-0.25
-0.28
-0.25
-0.245
-0.255
-0.275
-0.295
-0.3
-0.29
-0.285
-0.275
-0.295
-0.305
-0.31
-0.295
-0.28
-0.295
-0.295
-0.3
-0.3
-0.285
-0.295
-0.285
-0.28
-0.305
-0.3
-0.285
-0.27
-0.28
-0.285
-0.3
-0.28
-0.28
-0.265
-0.265
-0.265
-0.275
-0.26
-0.255
-0.215
-0.22
-0.225
-0.245
-0.23
-0.22
-0.19
-0.19
-0.195
-0.19
-0.19
-0.175
-0.16
-0.15
-0.155
-0.175
-0.16
-0.135
-0.1
-0.085
-0.095
-0.085
-0.08
-0.06
-0.025
-0.005
0.005
0.01
0.025
0.055
0.09
0.12
0.13
0.13
0.165
0.205
0.24
0.27
0.275
0.29
0.305
0.335
0.365
0.39
0.385
0.38
0.38
0.405
0.42
0.415
0.41
0.395
0.39
0.385
0.385
0.365
0.34
0.315
0.28
0.285
0.27
0.24
0.205
0.175
0.145
0.13
0.125
0.1
0.065
0.035
0.005
0.0
-0.005
-0.015
