Lead II
-0.2
-0.2
-0.205
-0.215
-0.205
-0.22
-0.215
-0.21
-0.195
-0.215
-0.195
-0.215
-0.215
-0.21
-0.21
-0.205
-0.215
-0.21
-0.21
-0.205
-0.2
-0.195
-0.195
-0.2
-0.19
-0.2
-0.2
-0.21
-0.22
-0.215
-0.225
-0.225
-0.22
-0.205
-0.19
-0.195
-0.185
-0.2
-0.205
-0.215
-0.21
-0.215
-0.225
-0.21
-0.195
-0.18
-0.17
-0.15
-0.14
-0.135
-0.13
-0.135
-0.11
-0.1
-0.08
-0.085
-0.07
-0.08
-0.07
-0.07
-0.065
-0.065
-0.065
-0.085
-0.09
-0.105
-0.14
-0.165
-0.185
-0.205
-0.225
-0.23
-0.245
-0.245
-0.27
-0.28
-0.29
-0.295
-0.315
-0.32
-0.32
-0.31
-0.31
-0.305
-0.305
-0.31
-0.32
-0.305
-0.33
-0.34
-0.35
-0.37
-0.375
-0.36
-0.315
-0.225
-0.12
0.025
0.22
0.43
0.685
0.94
1.17
1.355
1.45
1.43
1.28
1.015
0.68
0.34
0.035
-0.18
-0.315
-0.385
-0.4
-0.375
-0.34
-0.325
-0.305
-0.325
-0.345
-0.375
-0.415
-0.44
-0.435
-0.44
-0.44
-0.435
-0.435
-0.435
-0.445
-0.425
-0.42
-0.42
-0.43
-0.435
-0.44
-0.445
-0.455
-0.465
-0.465
-0.46
-0.455
-0.435
-0.425
-0.42
-0.425
-0.435
-0.455
-0.46
-0.455
-0.465
-0.465
-0.455
-0.44
-0.43
-0.42
-0.42
-0.41
-0.415
-0.42
-0.41
-0.425
-0.435
-0.43
-0.43
-0.415
-0.415
-0.39
-0.39
-0.395
-0.395
-0.38
-0.39
-0.39
-0.39
-0.385
-0.385
-0.375
-0.37
-0.365
-0.355
-0.355
-0.365
-0.355
-0.35
-0.355
-0.375
-0.37
-0.365
-0.37
-0.36
-0.355
-0.355
-0.36
-0.36
-0.36
-0.37
-0.365
-0.345
-0.34
-0.325
-0.305
-0.285
-0.29
-0.295
-0.3
-0.305
-0.31
-0.32
-0.32
-0.325
-0.33
-0.32
-0.32
-0.32
-0.315
-0.325
-0.335
-0.345
-0.345
-0.365
-0.365
-0.37
-0.36
-0.345
-0.345
-0.33
-0.335
-0.34
-0.34
-0.35
-0.355
-0.36
-0.375
-0.385
-0.37
-0.365
-0.36
-0.35
-0.335
-0.34
-0.34
-0.335
-0.34
-0.35
-0.37
-0.365
-0.36
-0.365
-0.355
-0.345
-0.345
-0.35
-0.335
-0.335
-0.35
-0.355
-0.365
-0.365
-0.37
-0.355
-0.355
-0.35
-0.345
-0.335
-0.34
-0.34
-0.345
-0.355
-0.365
-0.37
-0.38
-0.365
-0.355
-0.355
-0.325
-0.315
-0.3
-0.295
-0.29
-0.29
-0.295
-0.285
-0.275
-0.255
-0.235
-0.22
-0.195
-0.19
-0.185
-0.195
-0.2
-0.21
-0.22
-0.215
-0.215
-0.22
-0.23
-0.25
-0.275
-0.305
-0.33
-0.34
-0.36
-0.375
-0.395
-0.415
-0.415
-0.415
-0.43
-0.43
-0.43
-0.445
-0.445
-0.45
-0.46
-0.47
-0.475
-0.48
-0.465
-0.455
-0.475
-0.47
-0.475
-0.49
-0.51
-0.48
-0.445
-0.385
-0.31
-0.175
0.01
0.26
0.525
0.79
1.04
1.235
1.335
1.3
1.13
0.85
0.505
0.16
-0.125
-0.325
-0.45
-0.49
-0.485
-0.47
-0.445
-0.44
-0.455
-0.49
-0.52
-0.545
-0.56
-0.57
-0.565
-0.555
-0.545
-0.53
-0.545
-0.545
-0.54
-0.55
-0.575
-0.58
-0.58
-0.57
-0.575
-0.555
-0.545
-0.54
-0.545
-0.535
-0.55
-0.545
-0.555
-0.565
-0.57
-0.565
-0.55
-0.54
-0.53
-0.54
-0.54
-0.53
-0.525
-0.53
-0.53
-0.545
-0.54
-0.54
-0.53
-0.52
-0.51
-0.515
-0.5
-0.505
-0.495
-0.49
-0.495
-0.495
-0.495
-0.49
-0.495
-0.485
-0.48
-0.465
-0.46
-0.465
-0.46
-0.46
-0.465
-0.455
-0.455
-0.45
-0.445
-0.445
-0.435
-0.44
-0.43
-0.435
-0.45
-0.45
-0.455
-0.47
-0.465
-0.45
-0.425
-0.415
-0.41
-0.4
-0.395
-0.395
-0.4
-0.4
-0.41
-0.405
-0.415
-0.395
-0.395
-0.395
-0.395
-0.39
-0.39
-0.4
-0.41
-0.415
-0.435
-0.445
-0.41
-0.41
-0.415
-0.425
-0.405
-0.415
-0.415
-0.43
-0.435
-0.445
-0.445
-0.435
-0.43
-0.43
-0.415
-0.41
-0.395
-0.4
-0.4
-0.42
-0.43
-0.445
-0.435
-0.45
-0.435
-0.42
-0.42
-0.42
-0.41
-0.41
-0.415
-0.415
-0.42
-0.425
-0.42
-0.43
-0.425
-0.43
-0.42
-0.4
-0.395
-0.39
-0.39
-0.4
-0.405
-0.425
-0.43
-0.435
-0.44
-0.44
-0.425
-0.41
-0.395
-0.38
-0.37
-0.37
-0.37
-0.365
-0.355
-0.355
-0.35
-0.33
-0.33
-0.305
-0.28
-0.255
-0.235
-0.23
-0.225
-0.235
-0.265
-0.28
-0.265
-0.275
-0.27
-0.27
-0.285
-0.295
-0.33
-0.355
-0.38
-0.4
-0.425
-0.445
-0.46
-0.47
-0.47
-0.47
-0.47
-0.47
-0.465
-0.465
-0.48
-0.485
-0.49
-0.505
-0.51
-0.5
-0.495
-0.495
-0.495
-0.505
-0.51
-0.505
-0.485
-0.44
-0.35
-0.24
-0.06
0.15
0.425
0.72
1.0
1.215
1.325
1.285
1.125
0.83
0.475
0.12
-0.185
-0.395
-0.52
-0.565
-0.565
-0.525
-0.5
-0.47
-0.48
-0.495
-0.525
-0.555
-0.565
-0.57
-0.555
-0.555
-0.545
-0.555
-0.55
-0.56
-0.565
-0.565
-0.59
-0.59
-0.57
-0.565
-0.56
-0.55
-0.55
-0.56
-0.56
-0.555
-0.575
-0.575
-0.57
-0.56
-0.545
-0.54
-0.545
-0.52
-0.52
-0.52
-0.525
-0.525
-0.525
-0.525
-0.535
-0.545
-0.54
-0.525
-0.505
-0.495
-0.49
-0.49
-0.49
-0.48
-0.485
-0.485
-0.49
-0.5
-0.485
-0.475
-0.46
-0.455
-0.435
-0.445
-0.435
-0.43
-0.43
-0.435
-0.445
-0.45
-0.46
-0.45
-0.43
-0.415
-0.41
-0.41
-0.405
-0.405
-0.42
-0.425
-0.435
-0.46
-0.45
-0.425
-0.415
-0.385
-0.37
-0.355
-0.36
-0.35
-0.345
-0.355
-0.36
-0.37
-0.365
-0.35
-0.345
-0.335
-0.335
-0.33
-0.325
-0.33
-0.34
-0.345
-0.35
-0.375
-0.375
-0.37
-0.37
-0.365
-0.37
-0.365
-0.375
-0.38
-0.375
-0.38
-0.37
-0.38
-0.38
-0.365
-0.355
-0.355
-0.355
-0.365
-0.365
-0.355
-0.36
-0.355
-0.36
-0.36
-0.36
-0.355
-0.355
-0.34
-0.34
-0.345
-0.35
-0.35
-0.355
-0.36
-0.355
-0.355
-0.35
-0.345
-0.34
-0.325
-0.33
-0.335
-0.335
-0.345
-0.34
-0.335
-0.345
-0.345
-0.35
-0.34
-0.33
-0.325
-0.315
-0.325
-0.345
-0.34
-0.335
-0.34
-0.325
-0.315
-0.305
-0.305
-0.275
-0.26
-0.25
-0.24
-0.245
-0.22
-0.205
-0.19
-0.185
-0.17
-0.18
-0.165
-0.165
-0.175
-0.165
-0.16
-0.155
-0.16
-0.18
-0.2
-0.23
-0.25
-0.28
-0.295
-0.31
-0.32
-0.325
-0.345
-0.35
-0.35
-0.36
-0.385
-0.385
-0.39
-0.4
-0.41
-0.405
-0.38
-0.385
-0.375
-0.395
-0.375
-0.38
-0.375
-0.385
-0.405
-0.43
-0.425
-0.405
-0.35
-0.25
-0.115
0.06
0.28
0.52
0.775
1.03
1.245
1.38
1.415
1.315
1.12
0.82
0.48
0.145
-0.11
-0.295
-0.415
-0.47
-0.46
-0.425
-0.385
-0.355
-0.34
-0.345
-0.38
-0.415
-0.44
-0.475
-0.485
-0.48
-0.48
-0.49
-0.47
-0.455
-0.445
-0.44
-0.44
-0.45
-0.45
-0.46
-0.47
-0.47
-0.475
-0.47
-0.46
-0.455
-0.445
-0.435
-0.435
-0.435
-0.455
-0.455
-0.45
-0.475
-0.465
-0.45
-0.45
-0.46
-0.44
-0.425
-0.41
-0.41
-0.415
-0.43
-0.42
-0.43
-0.425
-0.425
-0.42
-0.415
-0.41
-0.39
-0.39
-0.385
-0.375
-0.38
-0.39
-0.395
-0.4
-0.41
-0.39
-0.38
-0.38
-0.36
-0.36
-0.34
-0.335
-0.34
-0.34
-0.345
-0.35
-0.35
-0.355
-0.345
-0.36
-0.355
-0.36
-0.35
-0.345
-0.345
-0.34
-0.335
-0.335
-0.32
-0.31
-0.315
-0.305
-0.295
-0.28
-0.27
-0.27
-0.28
-0.275
-0.285
-0.295
-0.275
-0.275
-0.27
-0.25
-0.25
-0.265
-0.255
-0.275
-0.275
-0.29
-0.29
-0.295
-0.3
-0.305
-0.295
-0.28
-0.28
-0.28
-0.275
-0.28
-0.29
-0.3
-0.31
-0.315
-0.31
-0.305
-0.295
-0.285
-0.27
-0.27
-0.27
-0.27
-0.27
-0.28
-0.285
-0.3
-0.305
-0.31
-0.305
-0.285
-0.275
-0.265
-0.26
-0.265
-0.26
-0.265
-0.265
-0.275
-0.29
-0.295
-0.28
-0.275
-0.265
-0.265
-0.265
-0.25
-0.27
-0.27
-0.265
-0.26
-0.27
-0.27
-0.28
-0.275
-0.275
-0.27
-0.27
-0.275
-0.275
-0.29
-0.285
-0.275
-0.27
-0.26
-0.245
-0.23
-0.23
-0.23
-0.225
-0.215
-0.205
-0.21
-0.215
-0.19
-0.17
-0.15
-0.115
-0.11
-0.105
-0.11
-0.11
-0.12
-0.13
-0.13
-0.145
-0.155
-0.15
-0.16
-0.185
-0.2
-0.205
-0.23
-0.245
-0.265
-0.285
-0.315
-0.345
-0.355
-0.37
-0.365
-0.355
-0.35
-0.335
-0.34
-0.36
-0.365
-0.37
-0.38
-0.39
-0.41
-0.405
-0.405
-0.415
-0.42
-0.415
-0.42
-0.405
-0.375
-0.31
-0.22
-0.105
0.055
0.275
0.515
0.795
1.06
1.285
1.45
1.49
1.395
1.19
0.89
0.55
0.21
-0.05
-0.24
-0.35
-0.4
-0.395
-0.39
-0.38
-0.37
-0.37
-0.385
-0.415
-0.43
-0.46
-0.475
-0.47
-0.465
-0.46
-0.46
-0.46
-0.47
-0.475
-0.48
-0.485
-0.48
-0.475
-0.47
-0.46
-0.48
-0.44
-0.445
-0.465
-0.48
-0.475
-0.47
-0.47
-0.475
-0.475
-0.46
-0.465
-0.455
-0.45
-0.445
-0.465
-0.465
-0.475
-0.48
-0.475
-0.475
-0.46
-0.45
-0.435
-0.43
-0.415
-0.41
-0.42
-0.42
-0.445
-0.44
-0.435
-0.445
-0.43
-0.425
-0.4
-0.39
-0.38
-0.375
-0.38
-0.385
-0.38
-0.38
-0.38
-0.395
-0.395
-0.385
-0.365
-0.355
-0.355
-0.355
-0.36
-0.36
-0.37
-0.37
-0.385
-0.38
-0.375
-0.365
-0.34
-0.335
-0.33
-0.32
-0.305
-0.295
-0.295
-0.31
-0.305
-0.315
-0.31
-0.31
-0.315
-0.315
-0.305
-0.315
-0.3
-0.32
-0.32
-0.315
-0.325
-0.335
-0.335
-0.32
-0.31
-0.325
-0.32
-0.315
-0.32
-0.33
-0.335
-0.335
-0.35
-0.36
-0.345
-0.34
-0.33
-0.32
-0.31
-0.315
-0.31
-0.325
-0.325
-0.35
-0.35
-0.35
-0.33
-0.32
-0.31
-0.31
-0.3
-0.31
-0.305
-0.315
-0.31
-0.32
-0.34
-0.34
-0.355
-0.345
-0.33
-0.315
-0.3
-0.295
-0.305
-0.305
-0.315
-0.32
-0.325
-0.335
-0.335
-0.33
-0.32
-0.315
-0.305
-0.3
-0.3
-0.3
-0.31
-0.3
-0.305
-0.295
-0.29
-0.285
-0.275
-0.26
-0.235
-0.225
-0.21
-0.21
-0.195
-0.175
-0.155
-0.15
-0.16
-0.165
-0.17
-0.165
-0.16
-0.16
-0.165
-0.18
-0.18
-0.2
-0.23
-0.25
-0.28
-0.3
-0.305
-0.31
-0.325
-0.36
-0.38
-0.38
-0.395
-0.39
-0.39
-0.4
-0.395
-0.405
-0.405
-0.405
-0.41
-0.41
-0.415
-0.415
-0.425
-0.425
-0.445
-0.455
-0.45
-0.44
-0.41
-0.335
-0.245
-0.13
0.02
0.215
0.435
0.715
0.99
1.24
1.375
1.405
1.295
1.06
0.765
0.44
0.115
-0.145
-0.335
-0.435
-0.47
-0.465
-0.435
-0.41
-0.385
-0.395
-0.405
-0.43
-0.45
-0.48
-0.505
-0.505
-0.515
-0.52
-0.52
-0.52
-0.515
-0.51
-0.505
-0.5
-0.49
-0.495
-0.5
-0.505
-0.51
-0.52
-0.515
-0.5
-0.515
-0.515
-0.515
-0.51
-0.475
-0.475
-0.485
-0.49
-0.5
-0.505
-0.5
-0.495
-0.49
-0.475
-0.475
-0.465
-0.46
-0.445
-0.45
-0.45
-0.465
-0.46
-0.455
-0.46
-0.45
-0.44
-0.43
-0.445
-0.425
-0.42
-0.425
-0.42
-0.425
-0.42
-0.425
-0.405
-0.405
-0.4
-0.385
-0.38
-0.38
-0.38
-0.385
-0.385
-0.395
-0.4
-0.385
-0.39
-0.385
-0.375
-0.375
-0.375
-0.375
-0.38
-0.38
-0.38
-0.37
-0.36
-0.36
-0.34
-0.33
-0.32
-0.305
-0.3
-0.31
-0.295
-0.31
-0.325
-0.32
-0.31
-0.3
-0.315
-0.31
-0.305
-0.31
-0.305
-0.315
-0.33
-0.345
-0.345
-0.345
-0.355
-0.34
-0.345
-0.33
-0.33
-0.33
-0.32
-0.33
-0.335
-0.35
-0.35
-0.345
-0.35
-0.345
-0.345
-0.34
-0.32
-0.32
-0.32
-0.33
-0.34
-0.335
-0.33
-0.34
-0.345
-0.355
-0.34
-0.33
-0.325
-0.32
-0.325
-0.32
-0.32
-0.33
-0.32
-0.335
-0.34
-0.35
-0.345
-0.33
-0.31
-0.32
-0.315
-0.32
-0.335
-0.34
-0.33
-0.335
-0.34
-0.32
-0.305
-0.285
-0.265
-0.24
-0.23
-0.24
-0.225
-0.23
-0.23
-0.21
-0.195
-0.165
-0.17
-0.165
-0.16
-0.155
-0.165
-0.17
-0.18
-0.195
-0.23
-0.235
-0.26
-0.29
-0.305
-0.31
-0.315
-0.32
-0.325
-0.345
-0.35
-0.38
-0.38
-0.4
-0.405
-0.41
-0.41
-0.415
-0.41
-0.395
-0.385
-0.38
-0.38
-0.39
-0.405
-0.42
-0.445
-0.455
-0.445
-0.41
-0.34
-0.245
-0.08
0.105
0.325
0.585
0.82
1.06
1.245
1.315
1.285
1.105
0.83
0.5
0.195
-0.07
-0.27
-0.4
-0.45
-0.455
-0.42
-0.385
-0.375
-0.375
-0.405
-0.43
-0.45
-0.45
-0.46
-0.48
-0.48
-0.48
-0.47
-0.47
-0.46
-0.475
-0.47
-0.455
-0.445
-0.45
-0.45
-0.46
-0.455
-0.46
-0.475
-0.465
-0.465
-0.45
-0.445
-0.45
-0.435
-0.435
-0.435
-0.435
-0.445
-0.44
-0.435
-0.42
-0.43
-0.435
-0.42
-0.425
-0.42
-0.425
-0.425
-0.43
-0.44
-0.43
-0.425
-0.41
-0.42
-0.41
-0.405
-0.395
-0.38
-0.385
-0.38
-0.385
-0.38
-0.4
-0.4
-0.38
-0.37
-0.375
-0.35
-0.355
-0.345
-0.345
-0.35
-0.36
-0.38
-0.385
-0.375
-0.37
-0.355
-0.35
-0.34
-0.325
-0.335
-0.32
-0.32
-0.345
-0.345
-0.35
-0.345
-0.33
-0.325
-0.31
-0.295
-0.3
-0.27
-0.265
-0.255
-0.26
-0.265
-0.275
-0.285
-0.29
-0.295
-0.3
-0.305
-0.305
-0.28
-0.29
-0.28
-0.28
-0.295
-0.3
-0.305
-0.315
-0.31
-0.305
-0.31
-0.3
-0.295
-0.295
-0.29
-0.29
-0.295
-0.295
-0.3
-0.31
-0.295
-0.31
-0.295
-0.29
-0.27
-0.285
-0.295
-0.31
-0.305
-0.295
-0.305
-0.3
-0.295
-0.29
-0.295
-0.29
-0.29
-0.29
-0.295
-0.295
-0.295
-0.3
-0.295
-0.29
-0.29
-0.285
-0.29
-0.3
-0.295
-0.305
-0.295
-0.295
-0.305
-0.295
-0.3
-0.285
-0.28
-0.27
-0.27
-0.26
-0.25
-0.245
-0.225
-0.225
-0.21
-0.205
-0.2
-0.175
-0.16
-0.145
-0.13
-0.115
-0.11
-0.11
-0.125
-0.135
-0.135
-0.15
-0.145
-0.16
-0.18
-0.195
-0.225
-0.24
-0.255
-0.275
-0.295
-0.315
-0.33
-0.35
-0.36
-0.365
-0.36
-0.345
-0.35
-0.335
-0.345
-0.35
-0.355
-0.375
-0.385
-0.38
-0.385
-0.395
-0.395
-0.4
-0.4
-0.375
-0.345
-0.28
-0.195
-0.065
0.12
0.33
0.585
0.86
1.12
1.31
1.4
1.35
1.18
0.885
0.55
0.205
-0.095
-0.3
-0.415
-0.46
-0.455
-0.415
-0.355
-0.325
-0.31
-0.355
-0.385
-0.41
-0.435
-0.445
-0.455
-0.465
-0.455
-0.445
-0.435
-0.44
-0.42
-0.415
-0.425
-0.425
-0.435
-0.44
-0.445
-0.45
-0.47
-0.455
-0.445
-0.455
-0.435
-0.43
-0.425
-0.43
-0.425
-0.43
-0.435
-0.44
-0.43
-0.43
-0.44
-0.43
-0.415
-0.41
-0.405
-0.415
-0.42
-0.43
-0.425
-0.4
-0.405
-0.4
-0.405
-0.4
-0.385
-0.375
-0.39
-0.375
-0.38
-0.385
-0.38
-0.37
-0.365
-0.35
-0.355
-0.35
-0.35
-0.355
-0.345
-0.345
-0.37
-0.355
-0.36
-0.355
-0.345
-0.325
-0.325
-0.33
-0.32
-0.32
-0.33
-0.335
-0.335
-0.355
-0.35
-0.34
-0.325
-0.305
-0.295
-0.275
-0.26
-0.25
-0.265
-0.265
-0.255
-0.265
-0.28
-0.275
-0.285
-0.285
-0.28
-0.27
-0.26
-0.27
-0.26
-0.265
-0.275
-0.285
-0.29
-0.3
-0.295
-0.285
-0.275
-0.27
-0.265
-0.265
-0.27
-0.285
-0.31
-0.315
-0.325
-0.315
-0.31
-0.295
-0.285
-0.28
-0.275
-0.29
-0.28
-0.28
-0.285
-0.285
-0.29
-0.31
-0.31
-0.305
-0.28
-0.285
-0.285
-0.28
-0.28
-0.28
-0.27
-0.275
-0.285
-0.29
-0.29
-0.295
-0.295
-0.28
-0.28
-0.305
-0.29
-0.295
-0.29
-0.29
-0.29
-0.29
-0.285
-0.29
-0.29
-0.28
-0.27
-0.275
-0.28
-0.28
-0.275
-0.27
-0.255
-0.25
-0.24
-0.225
-0.205
-0.195
-0.185
-0.185
-0.18
-0.17
-0.15
-0.14
-0.135
-0.14
-0.15
-0.14
-0.145
-0.145
-0.13
-0.14
-0.16
-0.19
-0.22
-0.25
-0.27
-0.28
-0.3
-0.31
-0.305
-0.31
-0.31
-0.325
-0.34
-0.36
-0.37
-0.37
-0.375
-0.38
-0.4
-0.39
-0.39
-0.375
-0.35
-0.36
-0.365
-0.385
-0.42
-0.435
-0.42
-0.38
-0.285
-0.145
0.06
0.31
0.605
0.915
1.18
1.35
1.385
1.23
0.965
0.6
0.22
-0.09
-0.32
-0.425
-0.46
-0.445
-0.405
-0.37
-0.37
-0.375
-0.415
-0.445
-0.46
-0.465
-0.47
-0.475
-0.46
-0.44
-0.435
-0.45
-0.47
-0.47
-0.475
-0.485
-0.475
-0.47
-0.46
-0.455
-0.445
-0.435
-0.44
-0.44
-0.455
-0.455
-0.46
-0.455
-0.46
-0.47
-0.46
-0.435
-0.425
-0.43
-0.42
-0.42
-0.425
-0.43
-0.45
-0.445
-0.45
-0.435
-0.42
-0.405
-0.39
-0.4
-0.4
-0.395
-0.395
-0.39
-0.385
-0.39
-0.385
-0.37
-0.365
-0.365
-0.36
-0.37
-0.365
-0.365
-0.37
-0.365
-0.36
-0.355
-0.355
-0.345
-0.335
-0.325
-0.325
-0.325
-0.345
-0.345
-0.36
-0.35
-0.355
-0.36
-0.33
-0.32
-0.315
-0.3
-0.29
-0.29
-0.285
-0.28
-0.285
-0.285
-0.285
-0.285
-0.28
-0.27
-0.26
-0.265
-0.245
-0.25
-0.265
-0.27
-0.285
-0.295
-0.3
-0.305
-0.31
-0.3
-0.29
-0.285
-0.275
-0.275
-0.275
-0.28
-0.29
-0.31
-0.31
-0.315
-0.32
-0.325
-0.32
-0.295
-0.28
-0.27
-0.27
-0.29
-0.29
-0.29
-0.31
-0.305
-0.31
-0.305
-0.3
-0.3
-0.29
-0.28
-0.265
-0.26
-0.27
-0.285
-0.295
-0.29
-0.285
-0.29
-0.285
-0.285
-0.285
-0.285
-0.29
-0.28
-0.28
-0.285
-0.3
-0.285
-0.295
-0.295
-0.285
-0.295
-0.29
-0.28
-0.265
-0.255
-0.255
-0.25
-0.245
-0.235
-0.215
-0.195
-0.19
-0.19
-0.18
-0.17
-0.17
-0.15
-0.14
-0.14
-0.125
-0.12
-0.11
-0.105
-0.115
-0.115
-0.115
-0.13
-0.14
-0.15
-0.175
-0.19
-0.215
-0.22
-0.245
-0.24
-0.26
-0.265
-0.275
-0.295
-0.31
-0.34
-0.34
-0.33
-0.34
-0.365
-0.365
-0.35
-0.335
-0.32
-0.315
-0.305
-0.31
-0.32
-0.33
-0.345
-0.37
-0.385
-0.4
-0.38
-0.35
-0.26
-0.145
0.005
0.205
0.435
0.695
0.95
1.17
1.325
1.375
1.29
1.095
0.805
0.49
0.16
-0.095
-0.27
-0.375
-0.43
-0.42
-0.38
-0.335
-0.31
-0.305
-0.31
-0.32
-0.35
-0.37
-0.38
-0.385
-0.385
-0.38
-0.39
-0.4
-0.41
-0.405
-0.405
-0.385
-0.39
-0.37
-0.385
-0.375
-0.39
-0.375
-0.385
-0.38
-0.375
-0.365
-0.355
-0.35
-0.355
-0.355
-0.355
-0.36
-0.355
-0.365
-0.365
-0.36
-0.36
-0.345
-0.35
-0.34
-0.34
-0.355
-0.34
-0.335
-0.335
-0.34
-0.33
-0.32
-0.31
-0.305
-0.3
-0.295
-0.3
-0.29
-0.295
-0.285
-0.28
-0.29
-0.285
-0.27
-0.265
-0.265
-0.26
-0.265
-0.265
-0.255
-0.26
-0.26
-0.255
-0.26
-0.265
-0.275
-0.26
-0.255
-0.245
-0.24
-0.225
-0.235
-0.235
-0.225
-0.215
-0.21
-0.21
-0.195
-0.175
-0.155
-0.14
-0.13
-0.135
-0.135
-0.135
-0.13
-0.145
-0.15
-0.17
-0.17
-0.17
-0.165
-0.155
-0.16
-0.155
-0.165
-0.165
-0.165
-0.175
-0.19
-0.18
-0.185
-0.19
-0.165
-0.145
-0.125
-0.135
-0.125
-0.135
-0.145
-0.145
-0.16
-0.165
-0.18
-0.165
-0.165
-0.155
-0.15
-0.145
-0.15
-0.14
-0.125
-0.135
-0.14
-0.155
-0.16
-0.155
-0.155
-0.145
-0.125
-0.145
-0.135
-0.125
-0.12
-0.12
-0.125
-0.14
-0.145
-0.15
-0.13
-0.12
-0.12
-0.13
-0.135
-0.155
-0.14
-0.145
-0.16
-0.145
-0.145
-0.13
-0.115
-0.1
-0.08
-0.07
-0.07
-0.075
-0.07
-0.07
-0.06
-0.045
-0.025
-0.005
0.02
0.04
0.065
0.06
0.05
0.035
0.025
0.015
0.015
0.025
0.01
0.005
-0.015
-0.03
-0.05
-0.075
-0.1
-0.13
-0.155
-0.16
-0.175
-0.18
-0.18
-0.17
-0.17
-0.175
-0.17
-0.17
-0.16
-0.185
-0.195
-0.195
-0.195
-0.185
-0.195
-0.21
-0.215
-0.225
-0.205
-0.175
-0.12
-0.035
0.085
0.24
0.445
0.68
0.935
1.185
1.43
1.59
1.645
1.565
1.365
1.075
0.74
0.41
0.13
-0.075
-0.2
-0.26
-0.265
-0.225
-0.17
-0.14
-0.125
-0.15
-0.19
-0.205
-0.225
-0.245
-0.26
-0.25
-0.255
-0.25
-0.235
-0.22
-0.215
-0.22
-0.225
-0.24
-0.25
-0.25
-0.245
-0.235
-0.255
-0.23
-0.215
-0.215
-0.21
-0.225
-0.225
-0.22
-0.27
-0.265
-0.255
-0.23
-0.22
-0.215
-0.205
-0.2
-0.21
-0.22
-0.23
-0.23
-0.245
-0.22
-0.21
-0.2
-0.205
-0.19
-0.18
-0.185
-0.175
-0.17
-0.175
-0.2
-0.195
-0.195
-0.195
-0.185
-0.175
-0.155
-0.14
-0.15
-0.155
-0.155
-0.155
-0.16
-0.16
-0.16
-0.155
-0.155
-0.14
-0.135
-0.14
-0.135
-0.14
-0.135
-0.135
-0.145
-0.15
-0.165
-0.16
-0.15
-0.13
-0.135
-0.12
-0.11
-0.115
-0.105
-0.095
-0.09
-0.095
-0.085
-0.1
-0.08
-0.065
-0.07
-0.075
-0.085
-0.09
-0.09
-0.085
-0.095
-0.1
-0.105
-0.11
-0.11
-0.1
-0.095
-0.08
-0.08
-0.105
-0.115
-0.105
-0.105
-0.11
-0.12
-0.125
-0.12
-0.11
-0.105
-0.095
-0.1
-0.1
-0.11
-0.11
-0.105
-0.11
-0.115
-0.115
-0.11
-0.095
-0.105
-0.105
-0.11
-0.105
-0.1
-0.09
-0.1
-0.105
-0.11
-0.1
-0.1
-0.08
-0.075
-0.07
-0.075
-0.08
-0.095
-0.095
-0.11
-0.105
-0.105
-0.1
-0.095
-0.08
-0.085
-0.08
-0.08
-0.075
-0.085
-0.085
-0.085
-0.095
-0.085
-0.07
-0.05
-0.03
-0.015
0.015
0.015
0.015
0.02
0.035
0.04
0.03
0.04
0.03
0.04
0.05
0.045
0.055
0.045
0.05
0.025
0.0
-0.03
-0.07
-0.105
-0.115
-0.12
-0.125
-0.125
-0.14
-0.15
-0.15
-0.16
-0.165
-0.19
-0.195
-0.21
-0.21
-0.2
-0.195
-0.185
-0.175
-0.18
-0.185
-0.205
-0.22
-0.245
-0.26
-0.245
-0.21
-0.125
-0.015
0.11
0.295
0.52
0.77
1.035
1.275
1.48
1.585
1.585
1.46
1.205
0.875
0.52
0.23
-0.005
-0.145
-0.215
-0.245
-0.245
-0.225
-0.22
-0.22
-0.225
-0.25
-0.28
-0.3
-0.31
-0.32
-0.325
-0.305
-0.32
-0.325
-0.32
-0.33
-0.33
-0.33
-0.33
-0.325
-0.32
-0.325
-0.335
-0.33
-0.335
-0.34
-0.33
-0.325
-0.31
-0.31
-0.305
-0.31
-0.315
-0.31
-0.315
-0.32
-0.325
-0.315
-0.31
-0.32
-0.295
-0.29
-0.29
-0.29
-0.27
-0.275
-0.285
-0.28
-0.305
-0.29
-0.285
-0.28
-0.275
-0.27
-0.26
-0.24
-0.265
-0.26
-0.255
-0.28
-0.275
-0.27
-0.265
-0.25
-0.24
-0.23
-0.225
-0.215
-0.215
-0.21
-0.195
-0.21
-0.225
-0.225
-0.245
-0.245
-0.245
-0.23
-0.21
-0.215
-0.22
-0.22
-0.205
-0.215
-0.21
-0.22
-0.21
-0.215
-0.195
-0.17
-0.17
-0.15
-0.16
-0.165
-0.175
-0.18
-0.185
-0.185
-0.2
-0.195
-0.185
-0.19
-0.18
-0.18
-0.175
-0.18
-0.185
-0.19
-0.195
-0.205
-0.21
-0.215
-0.22
-0.215
-0.21
-0.19
-0.195
-0.195
-0.19
-0.185
-0.185
-0.21
-0.21
-0.205
-0.215
-0.18
-0.175
-0.165
-0.185
-0.18
-0.19
-0.185
-0.185
-0.185
-0.18
-0.18
-0.195
-0.185
-0.18
-0.165
-0.175
-0.195
-0.195
-0.195
-0.19
-0.185
-0.195
-0.2
-0.18
-0.175
-0.17
-0.17
-0.175
-0.17
-0.185
-0.195
-0.205
-0.205
-0.205
-0.205
-0.185
-0.18
-0.15
-0.145
-0.135
-0.13
-0.135
-0.125
-0.13
-0.12
-0.115
-0.115
-0.095
-0.065
-0.055
-0.025
-0.01
-0.03
-0.04
-0.055
-0.055
-0.085
-0.09
-0.08
-0.09
-0.085
-0.095
-0.095
-0.12
-0.15
-0.185
-0.205
-0.22
-0.235
-0.255
-0.27
-0.285
-0.275
-0.27
-0.27
-0.255
-0.265
-0.265
-0.29
-0.3
-0.32
-0.325
-0.325
-0.315
-0.32
-0.31
-0.31
-0.305
-0.285
-0.25
-0.17
-0.06
0.075
0.255
0.48
0.74
1.02
1.265
1.45
1.49
1.405
1.19
0.875
0.53
0.19
-0.08
-0.265
-0.35
-0.375
-0.355
-0.315
-0.275
-0.275
-0.28
-0.3
-0.33
-0.365
-0.39
-0.415
-0.4
-0.405
-0.395
-0.375
-0.365
-0.375
-0.38
-0.385
-0.395
-0.395
-0.395
-0.405
-0.4
-0.395
-0.4
-0.365
-0.375
-0.38
-0.39
-0.395
-0.395
-0.395
-0.395
-0.39
-0.39
-0.385
-0.375
-0.365
-0.38
-0.39
-0.38
-0.38
-0.38
-0.375
-0.39
-0.38
-0.38
-0.37
-0.355
-0.345
-0.345
-0.335
-0.34
-0.35
-0.35
-0.355
-0.345
-0.32
-0.33
-0.315
-0.3
-0.295
-0.295
-0.295
-0.29
-0.29
-0.305
-0.305
-0.305
-0.295
-0.285
-0.285
-0.275
-0.275
-0.285
-0.285
-0.28
-0.28
-0.285
-0.295
-0.295
-0.29
-0.275
-0.27
-0.24
-0.225
-0.225
-0.225
-0.22
-0.235
-0.225
-0.235
-0.235
-0.24
-0.24
-0.235
-0.225
-0.235
-0.23
-0.225
-0.235
-0.24
-0.25
-0.255
-0.265
-0.26
-0.255
-0.25
-0.24
-0.235
-0.235
-0.245
-0.245
-0.26
-0.26
-0.275
-0.27
-0.265
-0.25
-0.25
-0.225
-0.225
-0.23
-0.235
-0.22
-0.25
-0.265
-0.265
-0.25
-0.24
-0.235
-0.22
-0.23
-0.225
-0.22
-0.22
-0.22
-0.225
-0.23
-0.235
-0.25
-0.24
-0.245
-0.235
-0.24
-0.24
-0.22
-0.22
-0.205
-0.22
-0.22
-0.23
-0.235
-0.245
-0.235
-0.235
-0.23
-0.215
-0.205
-0.2
-0.185
-0.185
-0.175
-0.17
-0.17
-0.16
-0.15
-0.135
-0.135
-0.11
-0.1
-0.085
-0.07
-0.075
-0.085
-0.11
-0.115
-0.115
-0.12
-0.12
-0.125
-0.13
-0.15
-0.175
-0.195
-0.235
-0.24
-0.275
-0.29
-0.315
-0.305
-0.305
-0.295
-0.295
-0.295
-0.3
-0.3
-0.315
-0.335
-0.34
-0.345
-0.36
-0.35
-0.345
-0.33
-0.325
-0.32
-0.335
-0.35
-0.36
-0.36
-0.325
-0.26
-0.145
0.01
0.22
0.47
0.735
0.995
1.225
1.375
1.405
1.31
1.1
0.78
0.435
0.12
-0.11
-0.27
-0.355
-0.375
-0.355
-0.335
-0.31
-0.31
-0.33
-0.35
-0.4
-0.42
-0.425
-0.43
-0.425
-0.425
-0.42
-0.415
-0.425
-0.425
-0.43
-0.44
-0.445
-0.445
-0.435
-0.445
-0.435
-0.445
-0.43
-0.43
-0.425
-0.425
-0.425
-0.43
-0.425
-0.435
-0.42
-0.425
-0.42
-0.415
-0.41
-0.41
-0.41
-0.4
-0.405
-0.415
-0.41
-0.42
-0.405
-0.39
-0.395
-0.39
-0.385
-0.395
-0.395
-0.39
-0.39
-0.385
-0.38
-0.37
-0.375
-0.365
-0.36
-0.365
-0.35
-0.35
-0.35
-0.35
-0.35
-0.35
-0.36
-0.345
-0.34
-0.325
-0.33
-0.33
-0.335
-0.33
-0.33
-0.34
-0.35
-0.355
-0.35
-0.34
-0.33
-0.32
-0.315
-0.305
-0.305
-0.3
-0.295
-0.29
-0.3
-0.305
-0.31
-0.285
-0.27
-0.265
-0.265
-0.265
-0.265
-0.28
-0.285
-0.275
-0.295
-0.31
-0.31
-0.305
-0.315
-0.305
-0.295
-0.3
-0.29
-0.295
-0.305
-0.305
-0.32
-0.32
-0.33
-0.325
-0.31
-0.3
-0.295
-0.29
-0.3
-0.295
-0.29
-0.3
-0.305
-0.32
-0.32
-0.33
-0.315
-0.315
-0.3
-0.295
-0.29
-0.285
-0.285
-0.3
-0.305
-0.31
-0.32
-0.325
-0.315
-0.305
-0.305
-0.29
-0.305
-0.3
-0.305
-0.305
-0.31
-0.325
-0.32
-0.315
-0.315
-0.31
-0.315
-0.31
-0.3
-0.305
-0.3
-0.305
-0.31
-0.31
-0.3
-0.295
-0.27
-0.265
-0.245
-0.245
-0.245
-0.235
-0.225
-0.22
-0.205
-0.195
-0.165
-0.16
-0.16
-0.15
-0.145
-0.155
-0.16
-0.17
-0.185
-0.19
-0.205
-0.23
-0.23
-0.26
-0.265
-0.275
-0.27
-0.29
-0.305
-0.32
-0.34
-0.36
-0.375
-0.39
-0.39
-0.375
-0.37
-0.365
-0.355
-0.37
-0.385
-0.38
-0.4
-0.405
-0.4
-0.4
-0.415
-0.425
-0.42
-0.42
-0.42
-0.405
-0.38
-0.33
-0.25
-0.14
0.005
0.2
0.43
0.695
0.975
1.2
1.365
1.405
1.295
1.085
0.805
0.47
0.155
-0.09
-0.29
-0.415
-0.455
-0.445
-0.425
-0.38
-0.365
-0.36
-0.375
-0.41
-0.43
-0.46
-0.465
-0.485
-0.47
-0.475
-0.465
-0.46
-0.455
-0.455
-0.465
-0.475
-0.47
-0.485
-0.485
-0.47
-0.47
-0.475
-0.455
-0.45
-0.45
-0.45
-0.445
-0.46
-0.46
-0.47
-0.475
-0.465
-0.45
-0.43
-0.425
-0.415
-0.435
-0.435
-0.44
-0.45
-0.465
-0.465
-0.455
-0.45
-0.435
-0.435
-0.415
-0.405
-0.42
-0.4
-0.41
-0.415
-0.425
-0.415
-0.415
-0.415
-0.39
-0.385
-0.37
-0.35
-0.35
-0.355
-0.35
-0.355
-0.36
-0.37
-0.37
-0.375
-0.37
-0.36
-0.345
-0.33
-0.33
-0.33
-0.345
-0.34
-0.35
-0.345
-0.34
-0.345
-0.345
-0.335
-0.32
-0.315
-0.315
-0.31
-0.305
-0.295
-0.285
-0.27
-0.265
-0.27
-0.265
-0.255
-0.255
-0.235
-0.26
-0.245
-0.255
-0.27
-0.275
-0.275
-0.275
-0.275
-0.275
-0.27
-0.27
-0.265
-0.27
-0.275
-0.28
-0.275
-0.28
-0.28
-0.295
-0.29
-0.29
-0.29
-0.275
-0.27
-0.275
-0.28
-0.285
-0.285
-0.295
-0.3
-0.295
-0.3
-0.29
-0.285
-0.27
-0.27
-0.27
-0.28
-0.29
-0.29
-0.28
-0.275
-0.27
-0.275
-0.265
-0.275
-0.27
-0.26
-0.275
-0.285
-0.27
-0.285
-0.295
-0.29
-0.285
-0.27
-0.26
-0.25
-0.24
-0.245
-0.26
-0.27
-0.285
-0.3
-0.285
-0.285
-0.27
-0.255
-0.23
-0.225
-0.195
-0.19
-0.19
-0.175
-0.175
-0.17
-0.18
-0.165
-0.15
-0.125
-0.1
-0.075
-0.065
-0.065
-0.085
-0.11
-0.115
-0.115
-0.135
-0.15
-0.165
-0.19
-0.205
-0.23
-0.23
-0.245
-0.245
-0.26
-0.27
-0.295
-0.305
-0.325
-0.32
-0.32
-0.315
-0.305
-0.29
-0.295
-0.295
-0.305
-0.315
-0.32
-0.33
-0.34
-0.345
-0.37
-0.365
