Lead II
-0.915
-0.905
-0.905
-0.89
-0.89
-0.915
-0.93
-0.98
-0.995
-1.03
-1.035
-1.04
-1.045
-1.025
-1.025
-1.025
-1.045
-1.07
-1.1
-1.145
-1.16
-1.185
-1.185
-1.2
-1.195
-1.17
-1.16
-1.15
-1.105
-1.125
-1.11
-1.115
-1.13
-1.12
-1.135
-1.13
-1.115
-1.1
-1.055
-1.0
-0.88
-0.72
-0.515
-0.23
0.105
0.46
0.845
1.26
1.675
2.02
2.26
2.365
2.225
1.76
1.12
0.48
-0.16
-0.8
-1.44
-1.545
-1.28
-1.0
-0.815
-0.745
-0.78
-0.875
-0.985
-1.08
-1.115
-1.115
-1.11
-1.11
-1.105
-1.1
-1.105
-1.095
-1.105
-1.1
-1.095
-1.1
-1.095
-1.095
-1.085
-1.08
-1.075
-1.06
-1.055
-1.04
-1.03
-1.015
-1.01
-1.01
-1.02
-1.03
-1.025
-1.03
-1.025
-1.025
-1.005
-0.975
-0.95
-0.945
-0.935
-0.935
-0.945
-0.93
-0.92
-0.905
-0.89
-0.86
-0.835
-0.795
-0.785
-0.76
-0.745
-0.745
-0.72
-0.69
-0.675
-0.67
-0.645
-0.595
-0.555
-0.52
-0.48
-0.455
-0.43
-0.41
-0.39
-0.39
-0.365
-0.34
-0.31
-0.26
-0.24
-0.215
-0.2
-0.195
-0.19
-0.195
-0.205
-0.215
-0.225
-0.235
-0.245
-0.22
-0.24
-0.25
-0.27
-0.31
-0.36
-0.41
-0.445
-0.49
-0.535
-0.58
-0.605
-0.62
-0.65
-0.66
-0.7
-0.74
-0.76
-0.78
-0.79
-0.81
-0.85
-0.85
-0.87
-0.88
-0.875
-0.865
-0.87
-0.855
-0.865
-0.855
-0.86
-0.87
-0.87
-0.88
-0.89
-0.885
-0.87
-0.86
-0.845
-0.85
-0.83
-0.845
-0.855
-0.865
-0.87
-0.86
-0.86
-0.86
-0.875
-0.86
-0.835
-0.84
-0.84
-0.85
-0.885
-0.9
-0.89
-0.89
-0.89
-0.895
-0.895
-0.885
-0.89
-0.895
-0.9
-0.905
-0.925
-0.945
-0.93
-0.95
-0.95
-0.945
-0.93
-0.925
-0.915
-0.93
-0.93
-0.94
-0.96
-0.98
-1.01
-1.0
-1.025
-0.99
-0.97
-0.975
-0.97
-0.98
-0.985
-1.015
-1.005
-1.015
-1.02
-1.03
-1.055
-1.045
-1.03
-1.045
-1.01
-1.01
-1.01
-1.01
-1.035
-1.02
-1.015
-1.015
-0.995
-0.98
-0.945
-0.935
-0.935
-0.925
-0.93
-0.94
-0.945
-0.95
-0.965
-0.945
-0.945
-0.95
-0.925
-0.9
-0.865
-0.86
-0.865
-0.885
-0.91
-0.94
-0.93
-0.945
-0.96
-0.96
-0.95
-0.95
-0.945
-0.955
-0.965
-1.005
-1.035
-1.06
-1.095
-1.125
-1.155
-1.145
-1.13
-1.115
-1.12
-1.1
-1.11
-1.115
-1.135
-1.14
-1.13
-1.145
-1.135
-1.15
-1.155
-1.145
-1.14
-1.12
-1.095
-1.02
-0.91
-0.705
-0.445
-0.11
0.28
0.715
1.18
1.625
2.005
2.26
2.34
2.175
1.72
1.08
0.44
-0.2
-0.84
-1.48
-1.635
-1.405
-1.105
-0.89
-0.79
-0.795
-0.875
-0.995
-1.075
-1.13
-1.155
-1.135
-1.125
-1.095
-1.075
-1.085
-1.11
-1.12
-1.135
-1.16
-1.15
-1.155
-1.145
-1.14
-1.14
-1.115
-1.115
-1.115
-1.155
-1.175
-1.205
-1.22
-1.225
-1.225
-1.22
-1.195
-1.185
-1.175
-1.135
-1.145
-1.13
-1.14
-1.14
-1.15
-1.155
-1.15
-1.12
-1.09
-1.065
-1.05
-1.035
-1.02
-1.015
-1.0
-1.01
-1.0
-0.99
-0.96
-0.965
-0.925
-0.88
-0.85
-0.825
-0.81
-0.805
-0.8
-0.8
-0.795
-0.785
-0.785
-0.77
-0.74
-0.725
-0.72
-0.72
-0.715
-0.745
-0.75
-0.77
-0.785
-0.81
-0.82
-0.825
-0.83
-0.855
-0.88
-0.895
-0.95
-0.985
-1.025
-1.06
-1.1
-1.12
-1.145
-1.17
-1.17
-1.225
-1.25
-1.245
-1.275
-1.29
-1.335
-1.38
-1.455
-1.49
-1.5
-1.5
-1.485
-1.475
-1.46
-1.46
-1.455
-1.475
-1.495
-1.5
-1.51
-1.5
-1.515
-1.505
-1.49
-1.475
-1.46
-1.435
-1.435
-1.425
-1.425
-1.425
-1.43
-1.44
-1.435
-1.45
-1.445
-1.43
-1.435
-1.41
-1.4
-1.385
-1.38
-1.385
-1.39
-1.4
-1.4
-1.4
-1.405
-1.4
-1.38
-1.37
-1.38
-1.39
-1.395
-1.415
-1.42
-1.42
-1.415
-1.405
-1.405
-1.4
-1.385
-1.38
-1.375
-1.355
-1.375
-1.385
-1.405
-1.415
-1.425
-1.435
-1.415
-1.405
-1.39
-1.37
-1.37
-1.375
-1.385
-1.385
-1.345
-1.29
-1.26
-1.22
-1.215
-1.215
-1.235
-1.225
-1.22
-1.235
-1.245
-1.25
-1.265
-1.285
-1.265
-1.275
-1.26
-1.255
-1.225
-1.23
-1.23
-1.215
-1.21
-1.215
-1.215
-1.215
-1.205
-1.205
-1.16
-1.145
-1.145
-1.14
-1.14
-1.13
-1.115
-1.105
-1.095
-1.095
-1.11
-1.09
-1.065
-1.055
-1.065
-1.075
-1.07
-1.095
-1.1
-1.11
-1.12
-1.125
-1.125
-1.12
-1.12
-1.155
-1.155
-1.17
-1.165
-1.175
-1.215
-1.25
-1.26
-1.27
-1.275
-1.265
-1.235
-1.22
-1.195
-1.205
-1.195
-1.2
-1.215
-1.21
-1.22
-1.215
-1.24
-1.245
-1.235
-1.205
-1.155
-1.07
-0.96
-0.795
-0.6
-0.35
-0.035
0.33
0.715
1.14
1.56
1.91
2.14
2.19
2.02
1.575
0.935
0.295
-0.345
-0.985
-1.625
-1.795
-1.645
-1.385
-1.155
-0.98
-0.935
-0.93
-0.985
-1.065
-1.12
-1.16
-1.17
-1.165
-1.13
-1.1
-1.075
-1.075
-1.075
-1.08
-1.09
-1.1
-1.095
-1.095
-1.1
-1.09
-1.085
-1.055
-1.035
-1.02
-0.995
-0.99
-0.995
-1.005
-1.01
-1.0
-0.995
-0.985
-0.965
-0.94
-0.935
-0.915
-0.91
-0.885
-0.88
-0.88
-0.89
-0.88
-0.875
-0.865
-0.825
-0.81
-0.795
-0.765
-0.74
-0.73
-0.705
-0.685
-0.67
-0.665
-0.64
-0.61
-0.58
-0.56
-0.505
-0.48
-0.455
-0.44
-0.43
-0.43
-0.42
-0.415
-0.39
-0.385
-0.385
-0.365
-0.36
-0.375
-0.38
-0.4
-0.405
-0.435
-0.475
-0.495
-0.53
-0.55
-0.58
-0.6
-0.64
-0.69
-0.72
-0.76
-0.805
-0.815
-0.845
-0.85
-0.88
-0.905
-0.915
-0.94
-0.95
-0.935
-0.93
-0.935
-0.955
-0.965
-0.985
-1.005
-1.01
-1.01
-0.99
-0.975
-0.975
-0.96
-0.96
-0.965
-0.95
-0.99
-0.99
-0.975
-0.975
-0.975
-0.97
-0.945
-0.94
-0.925
-0.925
-0.95
-0.96
-0.98
-0.97
-0.97
-0.965
-0.955
-0.93
-0.925
-0.92
-0.92
-0.91
-0.93
-0.95
-0.96
-0.955
-0.965
-0.975
-0.965
-0.95
-0.945
-0.945
-0.94
-0.945
-0.96
-0.955
-0.965
-0.975
-0.985
-1.0
-1.005
-1.015
-0.995
-0.99
-0.995
-0.985
-0.995
-0.995
-1.015
-1.025
-1.035
-1.03
-1.01
-1.0
-1.0
-1.0
-0.99
-0.98
-0.99
-0.995
-1.02
-1.04
-1.045
-1.065
-1.055
-1.035
-1.02
-1.02
-1.015
-1.02
-1.015
-1.03
-1.04
-1.04
-1.03
-1.025
-1.005
-0.985
-0.965
-0.94
-0.915
-0.895
-0.9
-0.91
-0.935
-0.94
-0.925
-0.93
-0.915
-0.9
-0.87
-0.84
-0.815
-0.81
-0.805
-0.82
-0.86
-0.88
-0.89
-0.905
-0.905
-0.89
-0.88
-0.87
-0.865
-0.88
-0.9
-0.93
-0.97
-1.03
-1.065
-1.09
-1.095
-1.095
-1.1
-1.075
-1.055
-1.07
-1.055
-1.04
-1.045
-1.045
-1.06
-1.06
-1.075
-1.065
-1.045
-1.045
-1.04
-1.025
-1.0
-0.97
-0.905
-0.78
-0.605
-0.375
-0.07
0.27
0.635
1.03
1.45
1.86
2.19
2.405
2.49
2.39
2.045
1.405
0.765
0.125
-0.515
-1.155
-1.545
-1.345
-1.06
-0.815
-0.72
-0.73
-0.795
-0.905
-0.995
-1.055
-1.065
-1.055
-1.01
-1.01
-1.015
-1.015
-1.035
-1.04
-1.045
-1.05
-1.04
-1.01
-1.005
-1.0
-0.99
-1.005
-1.005
-1.0
-1.005
-1.005
-0.995
-0.985
-0.995
-0.985
-0.96
-0.96
-0.945
-0.925
-0.93
-0.92
-0.915
-0.905
-0.89
-0.885
-0.885
-0.88
-0.855
-0.835
-0.81
-0.78
-0.77
-0.76
-0.75
-0.76
-0.75
-0.75
-0.74
-0.71
-0.665
-0.635
-0.595
-0.585
-0.58
-0.555
-0.54
-0.515
-0.485
-0.475
-0.425
-0.4
-0.385
-0.375
-0.355
-0.335
-0.335
-0.34
-0.35
-0.365
-0.37
-0.39
-0.39
-0.39
-0.395
-0.435
-0.465
-0.515
-0.58
-0.635
-0.675
-0.72
-0.765
-0.795
-0.83
-0.855
-0.865
-0.865
-0.88
-0.895
-0.92
-0.925
-0.95
-0.985
-0.985
-1.0
-1.03
-1.01
-1.015
-1.025
-1.02
-1.02
-1.03
-1.05
-1.085
-1.08
-1.1
-1.1
-1.09
-1.05
-1.04
-1.03
-1.04
-1.025
-1.045
-1.045
-1.06
-1.05
-1.04
-1.04
-1.055
-1.035
-1.02
-1.015
-0.99
-0.985
-1.0
-1.005
-1.03
-1.03
-1.035
-1.05
-1.065
-1.065
-1.06
-1.05
-1.04
-1.035
-1.045
-1.065
-1.06
-1.07
-1.09
-1.115
-1.11
-1.12
-1.11
-1.11
-1.1
-1.11
-1.12
-1.12
-1.12
-1.125
-1.12
-1.14
-1.13
-1.14
-1.14
-1.14
-1.145
-1.15
-1.17
-1.225
-1.265
-1.295
-1.315
-1.315
-1.325
-1.3
-1.275
-1.27
-1.27
-1.27
-1.255
-1.27
-1.3
-1.325
-1.315
-1.32
-1.305
-1.3
-1.255
-1.235
-1.23
-1.225
-1.215
-1.205
-1.215
-1.21
-1.22
-1.225
-1.215
-1.2
-1.165
-1.145
-1.105
-1.12
-1.115
-1.135
-1.165
-1.17
-1.185
-1.195
-1.215
-1.22
-1.225
-1.225
-1.23
-1.245
-1.27
-1.295
-1.33
-1.355
-1.385
-1.405
-1.42
-1.415
-1.375
-1.365
-1.355
-1.345
-1.35
-1.365
-1.38
-1.38
-1.38
-1.38
-1.4
-1.385
-1.395
-1.36
-1.315
-1.255
-1.165
-1.05
-0.88
-0.655
-0.375
-0.01
0.38
0.835
1.26
1.65
1.98
2.21
2.315
2.19
1.81
1.17
0.53
-0.11
-0.75
-1.39
-1.9
-1.725
-1.435
-1.195
-1.065
-1.05
-1.115
-1.205
-1.28
-1.335
-1.355
-1.36
-1.345
-1.335
-1.32
-1.33
-1.335
-1.355
-1.37
-1.37
-1.395
-1.37
-1.36
-1.33
-1.315
-1.295
-1.27
-1.28
-1.28
-1.285
-1.295
-1.31
-1.31
-1.32
-1.32
-1.305
-1.26
-1.245
-1.22
-1.21
-1.205
-1.215
-1.23
-1.22
-1.21
-1.2
-1.185
-1.16
-1.14
-1.13
-1.1
-1.11
-1.08
-1.075
-1.065
-1.045
-1.025
-1.045
-1.015
-0.985
-0.96
-0.92
-0.88
-0.845
-0.82
-0.805
-0.8
-0.78
-0.76
-0.755
-0.73
-0.71
-0.685
-0.66
-0.645
-0.64
-0.65
-0.635
-0.645
-0.64
-0.65
-0.665
-0.685
-0.69
-0.695
-0.705
-0.73
-0.775
-0.815
-0.855
-0.91
-0.945
-0.985
-1.02
-1.065
-1.09
-1.105
-1.135
-1.155
-1.155
-1.18
-1.21
-1.235
-1.27
-1.295
-1.31
-1.33
-1.335
-1.335
-1.315
-1.3
-1.32
-1.31
-1.315
-1.325
-1.345
-1.345
-1.35
-1.355
-1.35
-1.34
-1.335
-1.305
-1.27
-1.27
-1.285
-1.31
-1.32
-1.32
-1.34
-1.33
-1.33
-1.315
-1.305
-1.285
-1.29
-1.295
-1.285
-1.275
-1.29
-1.285
-1.285
-1.3
-1.28
-1.27
-1.265
-1.25
-1.25
-1.265
-1.27
-1.27
-1.28
-1.3
-1.3
-1.32
-1.325
-1.31
-1.295
-1.28
-1.29
-1.295
-1.295
-1.285
-1.29
-1.3
-1.31
-1.31
-1.31
-1.295
-1.295
-1.285
-1.27
-1.28
-1.28
-1.27
-1.28
-1.28
-1.29
-1.3
-1.295
-1.305
-1.275
-1.275
-1.265
-1.255
-1.265
-1.275
-1.275
-1.28
-1.295
-1.28
-1.275
-1.26
-1.255
-1.23
-1.235
-1.215
-1.205
-1.205
-1.18
-1.18
-1.18
-1.165
-1.17
-1.155
-1.165
-1.145
-1.115
-1.12
-1.09
-1.08
-1.08
-1.08
-1.075
-1.065
-1.06
-1.05
-1.04
-1.035
-1.04
-1.05
-1.075
-1.1
-1.125
-1.11
-1.1
-1.105
-1.13
-1.14
-1.135
-1.145
-1.17
-1.195
-1.195
-1.225
-1.24
-1.255
-1.265
-1.255
-1.235
-1.215
-1.195
-1.185
-1.175
-1.185
-1.18
-1.205
-1.21
-1.215
-1.205
-1.19
-1.135
-1.03
-0.895
-0.69
-0.425
-0.105
0.295
0.725
1.195
1.66
2.055
2.305
2.355
2.15
1.615
0.975
0.335
-0.305
-0.945
-1.585
-1.735
-1.5
-1.205
-0.99
-0.85
-0.86
-0.915
-0.995
-1.075
-1.125
-1.145
-1.155
-1.15
-1.145
-1.145
-1.135
-1.14
-1.13
-1.13
-1.125
-1.11
-1.115
-1.11
-1.12
-1.13
-1.135
-1.125
-1.125
-1.125
-1.095
-1.095
-1.08
-1.06
-1.065
-1.065
-1.07
-1.075
-1.055
-1.05
-1.04
-1.025
-1.005
-0.985
-0.955
-0.945
-0.94
-0.95
-0.945
-0.94
-0.935
-0.925
-0.89
-0.87
-0.835
-0.8
-0.79
-0.765
-0.74
-0.715
-0.69
-0.665
-0.655
-0.635
-0.615
-0.61
-0.58
-0.545
-0.52
-0.505
-0.5
-0.48
-0.46
-0.455
-0.45
-0.455
-0.44
-0.435
-0.435
-0.42
-0.425
-0.435
-0.455
-0.495
-0.51
-0.56
-0.6
-0.64
-0.675
-0.71
-0.73
-0.76
-0.775
-0.805
-0.835
-0.865
-0.905
-0.945
-0.965
-1.005
-1.015
-1.04
-1.045
-1.04
-1.035
-1.035
-1.05
-1.07
-1.09
-1.105
-1.105
-1.11
-1.115
-1.125
-1.115
-1.105
-1.095
-1.075
-1.075
-1.07
-1.09
-1.085
-1.11
-1.105
-1.105
-1.09
-1.075
-1.06
-1.045
-1.035
-1.035
-1.04
-1.05
-1.065
-1.07
-1.065
-1.075
-1.06
-1.04
-1.02
-1.015
-1.005
-1.01
-1.025
-1.04
-1.05
-1.07
-1.09
-1.09
-1.075
-1.065
-1.065
-1.05
-1.05
-1.065
-1.05
-1.07
-1.095
-1.095
-1.095
-1.095
-1.09
-1.09
-1.08
-1.065
-1.045
-1.06
-1.06
-1.065
-1.075
-1.095
-1.1
-1.11
-1.105
-1.105
-1.095
-1.085
-1.085
-1.085
-1.095
-1.09
-1.105
-1.115
-1.125
-1.12
-1.12
-1.105
-1.09
-1.08
-1.07
-1.075
-1.075
-1.085
-1.095
-1.1
-1.1
-1.095
-1.08
-1.045
-1.015
-0.995
-0.99
-0.965
-0.965
-0.975
-0.99
-1.0
-1.0
-1.005
-0.985
-0.96
-0.945
-0.91
-0.89
-0.87
-0.885
-0.885
-0.91
-0.935
-0.95
-0.96
-0.97
-0.975
-0.965
-0.97
-0.965
-0.985
-1.015
-1.045
-1.08
-1.095
-1.115
-1.14
-1.14
-1.145
-1.15
-1.16
-1.13
-1.12
-1.115
-1.12
-1.125
-1.14
-1.17
-1.155
-1.16
-1.14
-1.14
-1.15
-1.11
-1.085
-1.045
-0.98
-0.85
-0.65
-0.36
0.0
0.42
0.91
1.435
1.935
2.32
2.545
2.555
2.305
1.73
1.09
0.45
-0.19
-0.83
-1.47
-1.6
-1.275
-0.975
-0.77
-0.715
-0.79
-0.895
-1.01
-1.1
-1.145
-1.145
-1.12
-1.095
-1.08
-1.05
-1.05
-1.065
-1.075
-1.09
-1.105
-1.1
-1.1
-1.095
-1.075
-1.065
-1.04
-1.04
-1.035
-1.025
-1.03
-1.025
-1.03
-1.025
-1.03
-1.02
-1.005
-1.0
-1.0
-0.98
-0.97
-0.955
-0.95
-0.93
-0.945
-0.94
-0.94
-0.925
-0.91
-0.885
-0.855
-0.835
-0.805
-0.78
-0.78
-0.785
-0.77
-0.73
-0.72
-0.695
-0.635
-0.615
-0.57
-0.555
-0.53
-0.53
-0.52
-0.525
-0.52
-0.49
-0.465
-0.425
-0.385
-0.37
-0.335
-0.33
-0.33
-0.335
-0.35
-0.375
-0.37
-0.405
-0.42
-0.455
-0.475
-0.505
-0.515
-0.55
-0.595
-0.63
-0.69
-0.74
-0.785
-0.835
-0.875
-0.905
-0.925
-0.955
-0.975
-0.98
-1.0
-1.01
-1.03
-1.045
-1.06
-1.075
-1.08
-1.08
-1.07
-1.07
-1.07
-1.075
-1.075
-1.08
-1.1
-1.11
-1.11
-1.125
-1.115
-1.1
-1.085
-1.085
-1.075
-1.065
-1.07
-1.065
-1.07
-1.07
-1.085
-1.08
-1.095
-1.095
-1.105
-1.075
-1.075
-1.065
-1.045
-1.045
-1.065
-1.075
-1.1
-1.1
-1.105
-1.11
-1.105
-1.09
-1.105
-1.075
-1.095
-1.1
-1.09
-1.095
-1.11
-1.125
-1.125
-1.14
-1.135
-1.14
-1.135
-1.12
-1.13
-1.13
-1.15
-1.155
-1.175
-1.185
-1.175
-1.17
-1.165
-1.145
-1.135
-1.115
-1.135
-1.145
-1.125
-1.145
-1.17
-1.185
-1.19
-1.2
-1.19
-1.175
-1.18
-1.16
-1.165
-1.18
-1.17
-1.18
-1.17
-1.17
-1.18
-1.18
-1.165
-1.17
-1.14
-1.125
-1.11
-1.105
-1.105
-1.095
-1.1
-1.105
-1.095
-1.105
-1.08
-1.09
-1.075
-1.065
-1.04
-1.055
-1.035
-1.03
-1.04
-1.025
-1.01
-1.005
-0.995
-0.99
-1.0
-1.0
-0.995
-1.015
-1.035
-1.05
-1.055
-1.065
-1.07
-1.09
-1.11
-1.125
-1.15
-1.175
-1.195
-1.215
-1.23
-1.245
-1.25
-1.255
-1.265
-1.245
-1.225
-1.22
-1.21
-1.205
-1.19
-1.195
-1.195
-1.2
-1.22
-1.225
-1.235
-1.23
-1.215
-1.165
-1.1
-0.985
-0.845
-0.65
-0.405
-0.115
0.2
0.575
0.96
1.375
1.78
2.115
2.335
2.43
2.325
1.95
1.31
0.67
0.03
-0.61
-1.25
-1.75
-1.585
-1.3
-1.07
-0.905
-0.89
-0.93
-1.015
-1.12
-1.19
-1.22
-1.235
-1.23
-1.22
-1.2
-1.19
-1.19
-1.175
-1.185
-1.195
-1.205
-1.205
-1.21
-1.215
-1.205
-1.19
-1.18
-1.165
-1.13
-1.15
-1.145
-1.15
-1.15
-1.145
-1.15
-1.135
-1.125
-1.125
-1.13
-1.115
-1.1
-1.085
-1.085
-1.085
-1.1
-1.095
-1.075
-1.07
-1.05
-1.03
-1.0
-0.97
-0.955
-0.945
-0.935
-0.935
-0.92
-0.915
-0.895
-0.88
-0.87
-0.84
-0.81
-0.775
-0.72
-0.695
-0.665
-0.645
-0.65
-0.625
-0.605
-0.595
-0.595
-0.575
-0.57
-0.545
-0.525
-0.52
-0.52
-0.52
-0.52
-0.54
-0.55
-0.575
-0.58
-0.6
-0.63
-0.665
-0.685
-0.715
-0.765
-0.795
-0.835
-0.865
-0.905
-0.955
-0.985
-1.03
-1.055
-1.08
-1.085
-1.1
-1.11
-1.13
-1.15
-1.16
-1.185
-1.195
-1.19
-1.185
-1.17
-1.175
-1.17
-1.175
-1.185
-1.205
-1.205
-1.21
-1.22
-1.225
-1.215
-1.205
-1.185
-1.17
-1.155
-1.155
-1.165
-1.175
-1.19
-1.215
-1.21
-1.205
-1.2
-1.205
-1.19
-1.185
-1.18
-1.175
-1.18
-1.18
-1.185
-1.18
-1.18
-1.175
-1.19
-1.19
-1.185
-1.185
-1.185
-1.18
-1.175
-1.185
-1.17
-1.195
-1.19
-1.185
-1.185
-1.175
-1.165
-1.165
-1.15
-1.155
-1.17
-1.175
-1.19
-1.19
-1.185
-1.195
-1.19
-1.175
-1.185
-1.175
-1.155
-1.135
-1.135
-1.145
-1.165
-1.175
-1.18
-1.185
-1.18
-1.165
-1.155
-1.15
-1.14
-1.135
-1.13
-1.135
-1.145
-1.16
-1.145
-1.145
-1.14
-1.135
-1.145
-1.15
-1.15
-1.15
-1.125
-1.13
-1.135
-1.125
-1.115
-1.09
-1.075
-1.05
-1.025
-1.015
-0.99
-1.0
-1.0
-1.0
-1.005
-0.995
-0.995
-1.0
-0.97
-0.94
-0.925
-0.905
-0.895
-0.91
-0.925
-0.93
-0.97
-0.975
-0.99
-1.0
-1.005
-0.995
-1.01
-1.04
-1.04
-1.055
-1.075
-1.08
-1.1
-1.13
-1.14
-1.155
-1.17
-1.16
-1.14
-1.12
-1.105
-1.1
-1.09
-1.095
-1.105
-1.105
-1.095
-1.095
-1.11
-1.11
-1.105
-1.07
-1.03
-0.96
-0.86
-0.705
-0.49
-0.19
0.185
0.605
1.09
1.565
2.02
2.34
2.565
2.58
2.38
1.91
1.27
0.63
-0.01
-0.65
-1.29
-1.615
-1.38
-1.075
-0.83
-0.705
-0.72
-0.79
-0.915
-1.0
-1.04
-1.095
-1.07
-1.045
-1.02
-1.01
-0.995
-1.005
-1.005
-1.02
-1.03
-1.035
-1.055
-1.035
-1.04
-1.005
-0.985
-0.98
-0.975
-0.975
-0.96
-0.96
-0.96
-0.955
-0.955
-0.965
-0.94
-0.935
-0.915
-0.91
-0.88
-0.88
-0.86
-0.855
-0.865
-0.855
-0.845
-0.83
-0.81
-0.795
-0.78
-0.765
-0.735
-0.715
-0.69
-0.69
-0.665
-0.665
-0.62
-0.61
-0.585
-0.56
-0.54
-0.505
-0.46
-0.44
-0.44
-0.4
-0.385
-0.355
-0.345
-0.32
-0.305
-0.285
-0.26
-0.25
-0.23
-0.235
-0.26
-0.275
-0.29
-0.31
-0.33
-0.345
-0.36
-0.38
-0.395
-0.425
-0.45
-0.475
-0.525
-0.575
-0.635
-0.675
-0.74
-0.785
-0.805
-0.815
-0.825
-0.85
-0.845
-0.865
-0.89
-0.895
-0.92
-0.93
-0.935
-0.955
-0.96
-0.95
-0.94
-0.94
-0.93
-0.93
-0.93
-0.915
-0.93
-0.92
-0.92
-0.93
-0.935
-0.935
-0.925
-0.91
-0.89
-0.885
-0.9
-0.905
-0.91
-0.905
-0.905
-0.905
-0.895
-0.885
-0.885
-0.885
-0.845
-0.84
-0.84
-0.85
-0.87
-0.88
-0.895
-0.9
-0.915
-0.9
-0.9
-0.885
-0.875
-0.875
-0.875
-0.88
-0.89
-0.905
-0.91
-0.92
-0.92
-0.925
-0.905
-0.925
-0.91
-0.92
-0.915
-0.925
-0.95
-0.935
-0.935
-0.955
-0.96
-0.965
-0.93
-0.91
-0.9
-0.9
-0.9
-0.935
-0.95
-0.96
-0.955
-0.98
-0.97
-0.96
-0.955
-0.955
-0.935
-0.94
-0.945
-0.945
-0.955
-0.945
-0.945
-0.95
-0.955
-0.955
-0.95
-0.94
-0.92
-0.92
-0.9
-0.89
-0.865
-0.87
-0.85
-0.855
-0.875
-0.85
-0.835
-0.835
-0.81
-0.8
-0.8
-0.8
-0.815
-0.8
-0.79
-0.77
-0.77
-0.765
-0.725
-0.735
-0.725
-0.74
-0.755
-0.755
-0.775
-0.8
-0.81
-0.835
-0.86
-0.855
-0.855
-0.865
-0.895
-0.92
-0.95
-0.985
-1.005
-1.03
-1.015
-1.01
-0.995
-0.99
-0.965
-0.96
-0.95
-0.96
-0.96
-0.97
-1.0
-0.995
-1.01
-1.01
-0.995
-0.965
-0.915
-0.825
-0.67
-0.455
-0.205
0.13
0.475
0.835
1.25
1.665
2.06
2.375
2.56
2.615
2.46
2.025
1.385
0.745
0.105
-0.535
-1.175
-1.4
-1.185
-0.915
-0.73
-0.675
-0.695
-0.77
-0.88
-0.955
-1.005
-1.04
-1.04
-1.04
-1.03
-1.01
-1.02
-1.005
-0.99
-0.99
-1.0
-0.985
-0.99
-1.005
-1.005
-1.0
-1.025
-1.015
-0.995
-0.98
-0.965
-0.96
-0.965
-0.965
-0.98
-0.975
-0.985
-0.95
-0.95
-0.925
-0.91
-0.885
-0.86
-0.875
-0.865
-0.87
-0.865
-0.865
-0.83
-0.825
-0.82
-0.79
-0.775
-0.75
-0.71
-0.7
-0.68
-0.67
-0.645
-0.625
-0.615
-0.605
-0.6
-0.57
-0.545
-0.505
-0.465
-0.42
-0.4
-0.38
-0.385
-0.375
-0.38
-0.37
-0.375
-0.38
-0.355
-0.35
-0.335
-0.335
-0.36
-0.38
-0.405
-0.44
-0.485
-0.52
-0.55
-0.585
-0.61
-0.655
-0.685
-0.71
-0.735
-0.775
-0.815
-0.865
-0.91
-0.935
-0.96
-1.0
-1.01
-1.025
-1.025
-1.03
-1.04
-1.05
-1.065
-1.075
-1.09
-1.11
-1.135
-1.115
-1.11
-1.135
-1.12
-1.125
-1.12
-1.115
-1.12
-1.145
-1.135
-1.15
-1.15
-1.14
-1.12
-1.11
-1.095
-1.1
-1.105
-1.105
-1.12
-1.115
-1.12
-1.12
-1.135
-1.125
-1.12
-1.105
-1.11
-1.115
-1.13
-1.125
-1.14
-1.145
-1.155
-1.165
-1.17
-1.165
-1.155
-1.15
-1.14
-1.15
-1.16
-1.17
-1.175
-1.205
-1.195
-1.195
-1.215
-1.215
-1.21
-1.195
-1.19
-1.19
-1.2
-1.225
-1.22
-1.235
-1.23
-1.23
-1.215
-1.21
-1.2
-1.2
-1.185
-1.2
-1.2
-1.22
-1.22
-1.215
-1.235
-1.25
-1.235
-1.23
-1.225
-1.22
-1.205
-1.21
-1.225
-1.225
-1.24
-1.26
-1.27
-1.275
-1.265
-1.25
-1.25
-1.235
-1.235
-1.225
-1.22
-1.22
-1.195
-1.195
-1.185
-1.165
-1.16
-1.15
-1.145
-1.14
-1.14
-1.14
-1.13
-1.12
-1.115
-1.115
-1.115
-1.105
-1.085
-1.065
-1.075
-1.05
-1.04
-1.06
-1.05
-1.065
-1.065
-1.095
-1.11
-1.13
-1.13
-1.125
-1.12
-1.13
-1.125
-1.145
-1.175
-1.195
-1.25
-1.265
-1.275
-1.28
-1.26
-1.25
-1.23
-1.21
-1.19
-1.195
-1.185
-1.185
-1.195
-1.215
-1.21
-1.21
-1.205
-1.195
-1.17
-1.135
-1.045
-0.925
-0.745
-0.49
-0.19
0.205
0.64
1.085
1.53
1.905
2.16
2.21
2.015
1.49
0.85
0.21
-0.43
-1.07
-1.71
-1.785
-1.545
-1.245
-1.015
-0.895
-0.885
-0.935
-1.015
-1.095
-1.14
-1.165
-1.17
-1.165
-1.15
-1.145
-1.14
-1.125
-1.105
-1.1
-1.08
-1.08
-1.075
-1.085
-1.09
-1.09
-1.08
-1.07
-1.06
-1.055
-1.04
-1.03
-1.015
-1.02
-1.015
-1.01
-1.015
-1.005
-1.0
-0.975
-0.955
-0.94
-0.935
-0.9
-0.9
-0.885
-0.885
-0.885
-0.88
-0.865
-0.845
-0.82
-0.775
-0.77
-0.735
-0.715
-0.7
-0.675
-0.68
-0.655
-0.64
-0.63
-0.615
-0.575
-0.53
-0.505
-0.46
-0.44
-0.42
-0.41
-0.405
-0.4
-0.395
-0.39
-0.385
-0.38
-0.37
-0.385
-0.36
-0.385
-0.39
-0.4
-0.43
-0.48
-0.52
-0.535
-0.565
-0.595
-0.63
-0.655
-0.695
-0.72
-0.755
-0.795
-0.835
-0.855
-0.875
-0.915
-0.93
-0.945
-0.945
-0.945
-0.925
-0.925
-0.94
-0.965
-0.985
-0.995
-0.99
-1.005
-1.0
-0.99
-0.99
-0.975
-0.96
-0.94
-0.95
-0.935
-0.965
-0.965
-0.975
-0.96
-0.97
-0.965
-0.94
-0.935
-0.945
-0.925
-0.925
-0.925
-0.94
-0.95
-0.945
-0.945
-0.95
-0.955
-0.955
-0.95
-0.945
-0.93
-0.92
-0.925
-0.935
-0.95
-0.97
-0.99
-0.955
-0.98
-0.96
-0.96
-0.98
-0.97
-0.99
-0.985
-0.985
-1.01
-1.02
-1.005
-1.01
-1.015
-1.03
-1.015
-1.005
-0.975
-0.97
-0.975
-0.98
-0.985
-0.98
-0.995
-1.005
-1.005
-1.0
-0.99
-0.995
-0.995
-0.995
-1.015
-1.02
-1.015
-1.015
-1.015
-1.02
-1.02
-1.005
-1.005
-0.985
-0.985
-0.99
-1.005
-1.02
-1.035
-1.055
-1.04
-1.03
-1.03
-1.02
-1.01
-1.005
-1.0
-0.985
-0.985
-0.995
-0.995
-0.97
-0.945
-0.95
-0.94
-0.925
-0.91
-0.925
-0.885
-0.895
-0.9
-0.89
-0.89
-0.895
-0.885
-0.875
-0.85
-0.835
-0.835
-0.825
-0.82
-0.83
-0.835
-0.85
-0.865
-0.875
-0.895
-0.91
-0.915
-0.915
-0.935
-0.95
-0.985
-1.01
-1.04
-1.055
-1.065
-1.085
-1.095
-1.1
-1.085
-1.09
-1.08
-1.055
-1.05
-1.045
-1.07
-1.09
-1.095
-1.105
-1.085
-1.11
-1.1
-1.08
-1.105
-1.055
-0.99
-0.915
-0.785
-0.61
-0.35
-0.035
0.31
0.72
1.13
1.535
1.92
2.24
2.46
2.56
2.53
2.315
1.865
1.225
0.585
-0.055
-0.695
-1.335
-1.495
-1.235
-0.96
-0.77
-0.7
-0.755
-0.85
-0.965
-1.04
-1.075
-1.085
-1.065
-1.04
-1.045
-1.03
-1.055
-1.065
-1.075
-1.085
-1.08
-1.07
-1.05
-1.045
-1.05
-1.03
-1.05
-1.035
-1.045
-1.03
-1.045
-1.035
-1.04
-1.04
-1.04
-1.03
-1.015
-1.01
-0.995
-0.98
-0.97
-0.965
-0.955
-0.945
-0.93
-0.92
-0.91
-0.9
-0.885
-0.865
-0.83
-0.81
-0.785
-0.775
-0.77
-0.75
-0.735
-0.73
-0.705
-0.665
-0.635
-0.59
-0.57
-0.53
-0.505
-0.48
-0.475
-0.455
-0.445
-0.415
-0.42
-0.39
-0.385
-0.375
-0.355
-0.35
-0.325
-0.325
-0.325
-0.345
-0.365
-0.39
-0.435
-0.46
-0.495
-0.535
-0.57
-0.6
-0.635
-0.68
-0.715
-0.76
-0.795
-0.84
-0.87
-0.9
-0.92
-0.935
-0.94
-0.94
-0.965
-0.98
-0.995
-1.025
-1.05
-1.045
-1.05
-1.045
-1.035
-1.045
-1.03
-1.015
-1.025
-1.03
-1.05
-1.055
-1.05
-1.06
-1.035
-1.03
-1.025
-1.025
-1.005
-0.99
-0.985
-0.985
-1.0
-0.995
-1.005
-0.995
-1.005
-1.015
-0.975
-0.99
-0.98
-0.985
-0.99
-0.99
-1.0
-1.01
-1.015
-1.01
-1.025
-1.005
-1.015
-0.995
-1.0
-0.995
-1.0
-1.015
-1.03
-1.035
-1.045
-1.07
-1.055
-1.065
-1.055
-1.045
-1.035
-1.03
-1.045
-1.05
-1.07
-1.075
-1.07
-1.06
-1.07
-1.065
-1.07
-1.065
-1.055
-1.05
-1.055
-1.045
-1.05
-1.055
-1.075
-1.08
-1.095
-1.11
-1.1
-1.095
-1.09
-1.08
-1.065
-1.085
-1.085
-1.125
-1.13
-1.125
-1.135
-1.135
-1.105
-1.085
-1.08
-1.065
-1.045
-1.035
-1.02
-1.01
-1.01
-1.01
-1.005
-1.02
-0.995
-0.99
-0.99
-0.995
-0.975
-0.965
-0.95
-0.925
-0.93
-0.93
-0.935
-0.94
-0.95
-0.98
-0.975
-0.98
-0.975
-0.98
-0.985
-0.995
-1.02
-1.04
-1.075
-1.095
-1.095
-1.12
-1.125
-1.14
-1.16
-1.175
-1.185
-1.195
-1.2
-1.2
-1.195
-1.18
-1.155
-1.155
-1.135
-1.135
-1.13
-1.145
-1.14
-1.15
-1.175
-1.175
-1.17
-1.115
-1.0
-0.855
-0.605
-0.29
0.07
0.46
0.88
1.325
1.74
2.105
2.375
2.49
2.435
2.16
1.63
0.99
0.35
-0.29
-0.93
-1.57
-1.73
-1.485
-1.18
-0.965
-0.83
-0.84
-0.91
-1.005
-1.11
-1.16
-1.2
-1.2
-1.19
-1.17
-1.175
-1.155
-1.165
-1.165
-1.145
-1.13
-1.15
-1.125
-1.145
-1.15
-1.16
-1.155
-1.17
-1.15
-1.155
-1.15
-1.125
-1.085
-1.105
-1.105
-1.1
-1.095
-1.1
-1.09
-1.095
-1.085
-1.05
-1.055
-1.045
-1.04
-1.03
-1.04
-1.025
-1.005
-1.005
-0.99
-0.985
-0.97
-0.945
-0.93
-0.88
-0.885
-0.86
-0.835
-0.825
-0.815
-0.8
-0.795
-0.775
-0.74
-0.705
-0.695
-0.645
-0.62
-0.59
-0.575
-0.555
-0.55
-0.54
-0.54
-0.54
-0.52
-0.5
-0.5
-0.475
-0.45
-0.465
-0.475
-0.5
-0.52
-0.51
-0.525
-0.555
-0.58
-0.61
-0.655
-0.685
-0.73
-0.77
-0.825
-0.87
-0.905
-0.94
-0.97
-1.005
-1.02
-1.04
-1.05
-1.065
-1.095
-1.115
-1.13
-1.145
-1.165
-1.185
-1.185
-1.19
-1.18
-1.18
-1.18
-1.17
-1.165
-1.165
-1.16
-1.165
-1.175
-1.195
-1.21
-1.205
-1.2
-1.185
-1.16
-1.165
-1.145
-1.14
-1.145
-1.15
-1.16
-1.145
-1.17
-1.17
-1.185
-1.17
-1.175
-1.18
-1.165
-1.145
-1.145
-1.155
-1.175
-1.195
-1.215
-1.2
-1.2
-1.205
-1.18
-1.16
-1.165
-1.18
-1.185
-1.21
-1.225
-1.235
-1.25
-1.235
-1.24
-1.22
-1.225
-1.225
-1.22
-1.225
-1.22
-1.225
-1.24
-1.25
-1.26
-1.275
-1.27
-1.275
-1.255
-1.245
-1.23
-1.235
-1.24
-1.25
-1.255
-1.27
-1.27
-1.285
-1.28
-1.28
-1.25
-1.25
-1.265
-1.225
-1.24
-1.25
-1.275
-1.26
-1.27
-1.265
-1.27
-1.245
-1.235
-1.23
-1.21
-1.2
-1.175
-1.17
-1.18
-1.18
-1.2
-1.195
-1.195
-1.17
-1.15
-1.135
-1.115
-1.1
-1.09
-1.085
-1.08
-1.085
-1.08
-1.095
-1.08
-1.075
-1.08
-1.07
-1.08
-1.08
-1.095
-1.105
-1.13
-1.14
-1.16
-1.165
-1.185
-1.215
-1.225
-1.255
-1.27
-1.28
-1.28
-1.27
-1.26
-1.25
-1.265
-1.265
-1.26
-1.255
-1.255
-1.23
-1.23
-1.21
-1.215
-1.225
-1.215
-1.2
-1.145
-1.04
-0.885
-0.66
-0.38
-0.065
0.285
0.675
1.125
1.57
1.95
2.23
2.325
2.16
1.65
1.01
0.37
-0.27
-0.91
-1.55
-1.67
-1.385
-1.12
-0.935
