Lead II
-1.245
-1.255
-1.255
-1.25
-1.255
-1.245
-1.24
-1.245
-1.245
-1.235
-1.24
-1.25
-1.265
-1.275
-1.265
-1.275
-1.28
-1.275
-1.25
-1.235
-1.225
-1.235
-1.23
-1.24
-1.255
-1.275
-1.285
-1.305
-1.305
-1.31
-1.305
-1.295
-1.28
-1.265
-1.235
-1.225
-1.24
-1.27
-1.285
-1.29
-1.29
-1.305
-1.32
-1.305
-1.3
-1.275
-1.275
-1.25
-1.27
-1.27
-1.285
-1.3
-1.305
-1.31
-1.3
-1.285
-1.275
-1.265
-1.275
-1.265
-1.265
-1.265
-1.27
-1.28
-1.275
-1.285
-1.285
-1.275
-1.24
-1.205
-1.18
-1.17
-1.155
-1.165
-1.16
-1.175
-1.195
-1.185
-1.175
-1.16
-1.135
-1.115
-1.08
-1.07
-1.05
-1.05
-1.065
-1.085
-1.11
-1.125
-1.155
-1.155
-1.145
-1.14
-1.135
-1.12
-1.115
-1.135
-1.175
-1.205
-1.245
-1.27
-1.3
-1.305
-1.33
-1.33
-1.325
-1.33
-1.335
-1.34
-1.34
-1.33
-1.325
-1.3
-1.3
-1.315
-1.305
-1.285
-1.27
-1.24
-1.19
-1.095
-0.91
-0.69
-0.395
-0.065
0.275
0.64
1.005
1.395
1.77
2.075
2.29
2.34
2.185
1.78
1.14
0.5
-0.14
-0.78
-1.42
-1.7
-1.47
-1.22
-1.035
-0.95
-1.01
-1.09
-1.195
-1.26
-1.28
-1.31
-1.295
-1.295
-1.265
-1.275
-1.275
-1.27
-1.28
-1.285
-1.295
-1.315
-1.3
-1.29
-1.275
-1.26
-1.25
-1.245
-1.25
-1.255
-1.255
-1.26
-1.25
-1.245
-1.215
-1.22
-1.205
-1.205
-1.17
-1.17
-1.16
-1.15
-1.14
-1.15
-1.14
-1.13
-1.11
-1.085
-1.04
-1.025
-0.98
-0.97
-0.97
-0.965
-0.955
-0.95
-0.94
-0.93
-0.905
-0.875
-0.835
-0.81
-0.77
-0.735
-0.695
-0.66
-0.65
-0.62
-0.615
-0.58
-0.555
-0.515
-0.48
-0.465
-0.44
-0.42
-0.405
-0.4
-0.39
-0.385
-0.39
-0.4
-0.405
-0.405
-0.4
-0.43
-0.44
-0.46
-0.505
-0.55
-0.595
-0.655
-0.705
-0.74
-0.79
-0.82
-0.84
-0.89
-0.91
-0.95
-1.0
-1.035
-1.065
-1.08
-1.11
-1.135
-1.155
-1.185
-1.185
-1.175
-1.155
-1.16
-1.15
-1.185
-1.17
-1.2
-1.195
-1.2
-1.21
-1.195
-1.19
-1.17
-1.17
-1.175
-1.175
-1.19
-1.205
-1.205
-1.205
-1.205
-1.215
-1.2
-1.18
-1.185
-1.175
-1.17
-1.175
-1.185
-1.17
-1.165
-1.15
-1.155
-1.165
-1.175
-1.17
-1.18
-1.165
-1.175
-1.175
-1.17
-1.195
-1.19
-1.21
-1.225
-1.225
-1.22
-1.225
-1.225
-1.215
-1.21
-1.22
-1.23
-1.255
-1.265
-1.245
-1.245
-1.25
-1.25
-1.245
-1.23
-1.245
-1.235
-1.23
-1.255
-1.25
-1.27
-1.265
-1.275
-1.275
-1.255
-1.25
-1.25
-1.245
-1.25
-1.235
-1.24
-1.25
-1.27
-1.3
-1.305
-1.295
-1.28
-1.25
-1.22
-1.18
-1.14
-1.135
-1.135
-1.155
-1.165
-1.165
-1.175
-1.175
-1.155
-1.15
-1.13
-1.105
-1.085
-1.075
-1.07
-1.05
-1.05
-1.04
-1.045
-1.065
-1.07
-1.085
-1.07
-1.075
-1.09
-1.095
-1.105
-1.125
-1.135
-1.15
-1.17
-1.2
-1.215
-1.235
-1.23
-1.235
-1.25
-1.285
-1.295
-1.295
-1.3
-1.3
-1.285
-1.28
-1.26
-1.235
-1.235
-1.215
-1.21
-1.24
-1.26
-1.275
-1.24
-1.205
-1.13
-1.03
-0.84
-0.615
-0.305
0.075
0.525
1.015
1.515
1.965
2.26
2.395
2.315
1.965
1.325
0.685
0.045
-0.595
-1.235
-1.815
-1.61
-1.285
-1.02
-0.89
-0.85
-0.92
-1.0
-1.095
-1.16
-1.17
-1.17
-1.16
-1.15
-1.16
-1.175
-1.18
-1.175
-1.18
-1.155
-1.14
-1.13
-1.1
-1.11
-1.1
-1.1
-1.115
-1.115
-1.11
-1.105
-1.1
-1.08
-1.075
-1.06
-1.055
-1.03
-1.03
-1.03
-1.035
-1.03
-0.995
-1.005
-1.0
-0.96
-0.955
-0.935
-0.915
-0.89
-0.88
-0.905
-0.895
-0.905
-0.88
-0.865
-0.825
-0.78
-0.74
-0.705
-0.67
-0.63
-0.62
-0.63
-0.595
-0.585
-0.585
-0.555
-0.54
-0.49
-0.445
-0.425
-0.39
-0.385
-0.38
-0.375
-0.38
-0.365
-0.365
-0.37
-0.365
-0.375
-0.38
-0.42
-0.45
-0.49
-0.545
-0.605
-0.65
-0.67
-0.71
-0.74
-0.775
-0.785
-0.81
-0.835
-0.86
-0.9
-0.93
-0.96
-0.995
-1.015
-1.035
-1.045
-1.07
-1.06
-1.06
-1.08
-1.075
-1.09
-1.105
-1.1
-1.1
-1.1
-1.095
-1.1
-1.11
-1.105
-1.085
-1.1
-1.1
-1.095
-1.105
-1.11
-1.11
-1.12
-1.11
-1.115
-1.115
-1.1
-1.095
-1.07
-1.055
-1.075
-1.065
-1.065
-1.065
-1.085
-1.095
-1.1
-1.11
-1.105
-1.09
-1.095
-1.065
-1.06
-1.065
-1.09
-1.08
-1.09
-1.105
-1.115
-1.105
-1.11
-1.1
-1.09
-1.095
-1.115
-1.135
-1.16
-1.17
-1.18
-1.18
-1.175
-1.175
-1.165
-1.15
-1.135
-1.135
-1.125
-1.14
-1.145
-1.17
-1.16
-1.195
-1.185
-1.2
-1.185
-1.155
-1.14
-1.135
-1.135
-1.15
-1.18
-1.19
-1.2
-1.2
-1.21
-1.21
-1.19
-1.175
-1.165
-1.16
-1.155
-1.17
-1.18
-1.185
-1.18
-1.17
-1.17
-1.15
-1.135
-1.1
-1.085
-1.095
-1.105
-1.11
-1.11
-1.105
-1.105
-1.1
-1.085
-1.06
-1.035
-1.02
-1.005
-0.985
-0.995
-1.02
-1.035
-1.06
-1.095
-1.095
-1.115
-1.1
-1.105
-1.09
-1.085
-1.11
-1.11
-1.13
-1.165
-1.195
-1.205
-1.245
-1.275
-1.295
-1.3
-1.285
-1.295
-1.28
-1.26
-1.25
-1.265
-1.26
-1.295
-1.28
-1.28
-1.27
-1.265
-1.26
-1.25
-1.25
-1.23
-1.2
-1.13
-1.015
-0.83
-0.565
-0.21
0.205
0.665
1.145
1.605
2.005
2.295
2.45
2.48
2.405
2.21
1.825
1.195
0.555
-0.085
-0.725
-1.365
-1.715
-1.535
-1.28
-1.04
-0.915
-0.91
-0.965
-1.085
-1.175
-1.245
-1.27
-1.265
-1.23
-1.215
-1.21
-1.215
-1.245
-1.245
-1.25
-1.24
-1.235
-1.24
-1.245
-1.235
-1.21
-1.2
-1.2
-1.21
-1.21
-1.215
-1.2
-1.2
-1.195
-1.175
-1.155
-1.14
-1.12
-1.125
-1.13
-1.14
-1.145
-1.15
-1.125
-1.12
-1.09
-1.075
-1.035
-1.015
-0.975
-0.965
-0.97
-0.965
-0.945
-0.965
-0.94
-0.925
-0.885
-0.865
-0.845
-0.82
-0.785
-0.77
-0.76
-0.72
-0.685
-0.655
-0.615
-0.59
-0.59
-0.58
-0.555
-0.52
-0.515
-0.5
-0.48
-0.48
-0.495
-0.49
-0.515
-0.54
-0.54
-0.54
-0.545
-0.56
-0.57
-0.615
-0.67
-0.735
-0.815
-0.875
-0.94
-1.01
-1.045
-1.06
-1.07
-1.09
-1.1
-1.13
-1.15
-1.18
-1.22
-1.24
-1.26
-1.275
-1.29
-1.29
-1.29
-1.295
-1.285
-1.305
-1.325
-1.33
-1.335
-1.33
-1.305
-1.305
-1.305
-1.305
-1.295
-1.305
-1.285
-1.285
-1.295
-1.295
-1.3
-1.3
-1.305
-1.295
-1.295
-1.28
-1.275
-1.265
-1.26
-1.265
-1.285
-1.28
-1.3
-1.3
-1.285
-1.28
-1.285
-1.295
-1.27
-1.27
-1.265
-1.26
-1.265
-1.27
-1.27
-1.275
-1.305
-1.32
-1.325
-1.32
-1.315
-1.315
-1.3
-1.32
-1.32
-1.325
-1.335
-1.345
-1.345
-1.35
-1.33
-1.315
-1.32
-1.31
-1.31
-1.315
-1.33
-1.34
-1.35
-1.365
-1.36
-1.385
-1.37
-1.36
-1.37
-1.35
-1.335
-1.33
-1.335
-1.335
-1.35
-1.36
-1.365
-1.365
-1.36
-1.35
-1.34
-1.315
-1.285
-1.27
-1.265
-1.26
-1.26
-1.275
-1.265
-1.29
-1.285
-1.26
-1.245
-1.21
-1.19
-1.175
-1.165
-1.165
-1.185
-1.205
-1.22
-1.22
-1.23
-1.235
-1.24
-1.245
-1.25
-1.255
-1.27
-1.3
-1.315
-1.345
-1.37
-1.4
-1.41
-1.42
-1.41
-1.415
-1.38
-1.38
-1.39
-1.4
-1.41
-1.405
-1.415
-1.425
-1.42
-1.415
-1.42
-1.415
-1.365
-1.32
-1.265
-1.175
-1.075
-0.93
-0.74
-0.485
-0.19
0.17
0.555
1.005
1.44
1.8
2.02
2.04
1.74
1.14
0.5
-0.14
-0.78
-1.42
-2.01
-1.845
-1.56
-1.32
-1.15
-1.1
-1.14
-1.235
-1.315
-1.37
-1.42
-1.41
-1.385
-1.365
-1.345
-1.34
-1.345
-1.36
-1.37
-1.365
-1.375
-1.36
-1.36
-1.355
-1.345
-1.33
-1.31
-1.31
-1.305
-1.29
-1.31
-1.305
-1.31
-1.305
-1.305
-1.275
-1.27
-1.235
-1.215
-1.205
-1.195
-1.19
-1.195
-1.185
-1.19
-1.165
-1.165
-1.14
-1.115
-1.095
-1.08
-1.05
-1.04
-1.025
-1.025
-1.005
-0.99
-0.98
-0.96
-0.935
-0.895
-0.865
-0.805
-0.77
-0.75
-0.735
-0.725
-0.725
-0.715
-0.72
-0.715
-0.705
-0.69
-0.67
-0.65
-0.645
-0.64
-0.64
-0.66
-0.675
-0.7
-0.72
-0.76
-0.795
-0.825
-0.875
-0.9
-0.94
-0.975
-1.02
-1.075
-1.11
-1.14
-1.155
-1.17
-1.185
-1.2
-1.225
-1.24
-1.25
-1.26
-1.285
-1.32
-1.35
-1.34
-1.345
-1.37
-1.365
-1.345
-1.36
-1.34
-1.33
-1.325
-1.335
-1.345
-1.355
-1.365
-1.38
-1.395
-1.38
-1.375
-1.355
-1.355
-1.355
-1.325
-1.325
-1.33
-1.345
-1.33
-1.325
-1.33
-1.325
-1.325
-1.3
-1.305
-1.3
-1.305
-1.315
-1.305
-1.305
-1.305
-1.315
-1.315
-1.315
-1.31
-1.315
-1.31
-1.31
-1.3
-1.295
-1.32
-1.33
-1.335
-1.33
-1.345
-1.34
-1.335
-1.31
-1.315
-1.325
-1.325
-1.35
-1.355
-1.365
-1.375
-1.39
-1.375
-1.385
-1.36
-1.345
-1.345
-1.33
-1.33
-1.35
-1.38
-1.38
-1.385
-1.385
-1.36
-1.36
-1.34
-1.325
-1.335
-1.34
-1.325
-1.34
-1.36
-1.37
-1.355
-1.35
-1.32
-1.28
-1.255
-1.245
-1.215
-1.225
-1.21
-1.205
-1.215
-1.235
-1.24
-1.26
-1.265
-1.245
-1.21
-1.175
-1.14
-1.12
-1.135
-1.135
-1.16
-1.165
-1.19
-1.2
-1.21
-1.21
-1.22
-1.225
-1.23
-1.225
-1.24
-1.23
-1.275
-1.305
-1.335
-1.37
-1.38
-1.39
-1.375
-1.385
-1.36
-1.35
-1.345
-1.36
-1.365
-1.36
-1.375
-1.375
-1.36
-1.36
-1.355
-1.345
-1.33
-1.31
-1.26
-1.185
-1.075
-0.905
-0.665
-0.395
-0.055
0.315
0.755
1.165
1.515
1.745
1.79
1.61
1.11
0.47
-0.17
-0.81
-1.45
-2.005
-1.9
-1.63
-1.345
-1.15
-1.085
-1.105
-1.185
-1.26
-1.335
-1.38
-1.36
-1.34
-1.305
-1.285
-1.28
-1.305
-1.305
-1.305
-1.295
-1.32
-1.345
-1.34
-1.34
-1.295
-1.275
-1.275
-1.25
-1.265
-1.28
-1.28
-1.29
-1.295
-1.3
-1.305
-1.295
-1.265
-1.245
-1.225
-1.18
-1.18
-1.175
-1.175
-1.15
-1.16
-1.155
-1.15
-1.145
-1.155
-1.12
-1.1
-1.07
-1.07
-1.055
-1.025
-1.025
-1.0
-0.98
-0.975
-0.95
-0.925
-0.895
-0.88
-0.855
-0.83
-0.815
-0.785
-0.775
-0.755
-0.75
-0.74
-0.71
-0.685
-0.66
-0.64
-0.64
-0.645
-0.65
-0.66
-0.645
-0.68
-0.7
-0.715
-0.745
-0.76
-0.765
-0.78
-0.8
-0.83
-0.895
-0.94
-0.99
-1.015
-1.04
-1.075
-1.12
-1.135
-1.16
-1.185
-1.2
-1.24
-1.245
-1.245
-1.26
-1.285
-1.285
-1.305
-1.31
-1.315
-1.3
-1.295
-1.29
-1.29
-1.3
-1.32
-1.33
-1.345
-1.355
-1.375
-1.375
-1.375
-1.355
-1.34
-1.31
-1.31
-1.305
-1.31
-1.325
-1.34
-1.335
-1.345
-1.36
-1.345
-1.335
-1.325
-1.31
-1.32
-1.32
-1.33
-1.345
-1.345
-1.335
-1.335
-1.33
-1.31
-1.3
-1.29
-1.28
-1.28
-1.29
-1.31
-1.305
-1.315
-1.325
-1.33
-1.34
-1.33
-1.31
-1.3
-1.275
-1.27
-1.28
-1.28
-1.3
-1.335
-1.35
-1.36
-1.35
-1.32
-1.31
-1.305
-1.295
-1.295
-1.295
-1.3
-1.305
-1.315
-1.315
-1.33
-1.33
-1.32
-1.315
-1.31
-1.31
-1.305
-1.305
-1.31
-1.325
-1.31
-1.31
-1.315
-1.315
-1.3
-1.295
-1.29
-1.29
-1.275
-1.27
-1.255
-1.245
-1.25
-1.24
-1.24
-1.24
-1.215
-1.19
-1.165
-1.135
-1.135
-1.13
-1.145
-1.15
-1.155
-1.15
-1.155
-1.12
-1.095
-1.065
-1.04
-1.025
-1.03
-1.035
-1.055
-1.06
-1.085
-1.115
-1.11
-1.12
-1.12
-1.115
-1.13
-1.13
-1.16
-1.19
-1.22
-1.24
-1.255
-1.28
-1.295
-1.31
-1.29
-1.26
-1.245
-1.225
-1.225
-1.23
-1.22
-1.235
-1.245
-1.245
-1.265
-1.265
-1.24
-1.225
-1.17
-1.085
-0.985
-0.83
-0.64
-0.405
-0.135
0.19
0.555
0.955
1.355
1.7
1.925
1.955
1.66
1.025
0.385
-0.255
-0.895
-1.535
-1.915
-1.725
-1.4
-1.12
-0.955
-0.905
-0.93
-1.035
-1.115
-1.19
-1.225
-1.24
-1.23
-1.21
-1.185
-1.16
-1.145
-1.135
-1.13
-1.135
-1.13
-1.14
-1.15
-1.15
-1.16
-1.155
-1.17
-1.155
-1.135
-1.11
-1.105
-1.1
-1.09
-1.08
-1.085
-1.085
-1.085
-1.08
-1.07
-1.065
-1.04
-1.02
-1.01
-1.0
-0.975
-0.965
-0.97
-0.95
-0.955
-0.935
-0.92
-0.9
-0.875
-0.84
-0.82
-0.77
-0.76
-0.745
-0.735
-0.73
-0.715
-0.68
-0.65
-0.605
-0.58
-0.545
-0.535
-0.52
-0.515
-0.51
-0.495
-0.48
-0.48
-0.48
-0.48
-0.47
-0.46
-0.445
-0.455
-0.455
-0.48
-0.52
-0.565
-0.585
-0.635
-0.7
-0.725
-0.755
-0.795
-0.815
-0.85
-0.905
-0.95
-0.98
-1.025
-1.04
-1.04
-1.055
-1.075
-1.065
-1.095
-1.07
-1.09
-1.085
-1.09
-1.12
-1.13
-1.155
-1.155
-1.18
-1.16
-1.16
-1.145
-1.13
-1.12
-1.13
-1.13
-1.145
-1.165
-1.165
-1.165
-1.175
-1.175
-1.155
-1.15
-1.125
-1.14
-1.135
-1.14
-1.145
-1.135
-1.135
-1.155
-1.145
-1.14
-1.125
-1.125
-1.1
-1.1
-1.105
-1.105
-1.11
-1.115
-1.095
-1.095
-1.095
-1.095
-1.085
-1.09
-1.09
-1.09
-1.095
-1.105
-1.12
-1.135
-1.135
-1.155
-1.175
-1.145
-1.135
-1.13
-1.13
-1.125
-1.12
-1.14
-1.15
-1.165
-1.16
-1.17
-1.17
-1.165
-1.15
-1.16
-1.14
-1.135
-1.135
-1.16
-1.18
-1.2
-1.2
-1.195
-1.195
-1.195
-1.19
-1.185
-1.185
-1.175
-1.18
-1.15
-1.17
-1.16
-1.145
-1.145
-1.14
-1.13
-1.09
-1.085
-1.07
-1.065
-1.06
-1.07
-1.085
-1.09
-1.085
-1.09
-1.07
-1.045
-1.015
-0.99
-0.965
-0.97
-0.99
-1.015
-1.035
-1.05
-1.085
-1.07
-1.09
-1.075
-1.07
-1.08
-1.085
-1.105
-1.12
-1.15
-1.19
-1.235
-1.25
-1.275
-1.285
-1.285
-1.27
-1.26
-1.25
-1.235
-1.245
-1.245
-1.255
-1.255
-1.275
-1.27
-1.26
-1.25
-1.235
-1.21
-1.185
-1.13
-1.05
-0.93
-0.76
-0.55
-0.295
-0.025
0.26
0.6
0.965
1.32
1.65
1.895
2.03
2.01
1.765
1.235
0.595
-0.045
-0.685
-1.325
-1.81
-1.67
-1.39
-1.125
-0.97
-0.92
-0.975
-1.06
-1.155
-1.205
-1.22
-1.205
-1.17
-1.175
-1.15
-1.16
-1.15
-1.16
-1.175
-1.185
-1.17
-1.17
-1.195
-1.16
-1.135
-1.11
-1.1
-1.095
-1.09
-1.09
-1.095
-1.09
-1.11
-1.095
-1.095
-1.075
-1.055
-1.05
-1.025
-1.04
-1.03
-1.02
-1.02
-0.99
-0.97
-0.955
-0.945
-0.93
-0.905
-0.885
-0.865
-0.845
-0.83
-0.825
-0.81
-0.8
-0.775
-0.75
-0.71
-0.68
-0.645
-0.62
-0.575
-0.55
-0.535
-0.505
-0.495
-0.49
-0.49
-0.48
-0.485
-0.45
-0.44
-0.41
-0.38
-0.38
-0.39
-0.405
-0.43
-0.485
-0.52
-0.565
-0.6
-0.635
-0.66
-0.705
-0.735
-0.78
-0.81
-0.855
-0.89
-0.92
-0.95
-0.99
-1.01
-1.02
-1.03
-1.05
-1.06
-1.05
-1.055
-1.075
-1.095
-1.095
-1.11
-1.115
-1.12
-1.12
-1.12
-1.11
-1.09
-1.085
-1.08
-1.08
-1.095
-1.09
-1.085
-1.1
-1.11
-1.1
-1.095
-1.085
-1.07
-1.065
-1.06
-1.075
-1.08
-1.085
-1.075
-1.09
-1.095
-1.075
-1.065
-1.06
-1.05
-1.04
-1.04
-1.05
-1.055
-1.065
-1.07
-1.09
-1.1
-1.1
-1.085
-1.08
-1.065
-1.06
-1.055
-1.06
-1.08
-1.09
-1.105
-1.12
-1.145
-1.135
-1.13
-1.11
-1.105
-1.09
-1.08
-1.09
-1.115
-1.11
-1.135
-1.14
-1.15
-1.15
-1.145
-1.135
-1.14
-1.13
-1.12
-1.125
-1.135
-1.14
-1.14
-1.13
-1.14
-1.13
-1.125
-1.115
-1.11
-1.13
-1.15
-1.14
-1.145
-1.155
-1.165
-1.145
-1.135
-1.11
-1.075
-1.04
-1.0
-0.98
-0.975
-0.99
-0.995
-1.015
-1.04
-1.035
-1.04
-1.005
-0.97
-0.935
-0.915
-0.895
-0.905
-0.935
-0.95
-0.965
-0.975
-0.995
-1.015
-1.02
-1.02
-1.02
-1.035
-1.055
-1.085
-1.125
-1.15
-1.165
-1.185
-1.2
-1.215
-1.195
-1.195
-1.17
-1.165
-1.165
-1.16
-1.18
-1.18
-1.18
-1.205
-1.18
-1.19
-1.17
-1.145
-1.13
-1.09
-1.07
-0.99
-0.875
-0.72
-0.495
-0.205
0.12
0.515
0.915
1.325
1.72
2.025
2.21
2.24
2.025
1.515
0.875
0.235
-0.405
-1.045
-1.685
-1.775
-1.56
-1.26
-1.0
-0.875
-0.86
-0.905
-0.99
-1.09
-1.145
-1.155
-1.14
-1.145
-1.13
-1.13
-1.14
-1.13
-1.13
-1.125
-1.12
-1.12
-1.12
-1.125
-1.125
-1.125
-1.105
-1.105
-1.085
-1.07
-1.065
-1.065
-1.065
-1.06
-1.07
-1.06
-1.045
-1.035
-1.02
-1.01
-1.005
-0.995
-0.98
-0.985
-0.985
-0.995
-0.98
-0.995
-0.965
-0.96
-0.92
-0.905
-0.87
-0.85
-0.845
-0.84
-0.825
-0.82
-0.805
-0.8
-0.76
-0.745
-0.71
-0.685
-0.655
-0.625
-0.605
-0.58
-0.56
-0.535
-0.53
-0.505
-0.48
-0.465
-0.455
-0.435
-0.41
-0.415
-0.415
-0.42
-0.42
-0.41
-0.425
-0.435
-0.425
-0.45
-0.45
-0.475
-0.485
-0.53
-0.57
-0.62
-0.65
-0.705
-0.74
-0.785
-0.815
-0.84
-0.87
-0.88
-0.89
-0.91
-0.935
-0.965
-0.99
-1.015
-1.025
-1.045
-1.04
-1.045
-1.05
-1.03
-1.06
-1.045
-1.06
-1.06
-1.075
-1.105
-1.1
-1.09
-1.09
-1.09
-1.06
-1.05
-1.04
-1.045
-1.07
-1.075
-1.07
-1.085
-1.085
-1.07
-1.065
-1.055
-1.04
-1.02
-1.0
-1.01
-1.005
-1.03
-1.035
-1.04
-1.06
-1.05
-1.06
-1.05
-1.04
-1.03
-1.03
-1.045
-1.035
-1.05
-1.045
-1.045
-1.05
-1.06
-1.055
-1.055
-1.055
-1.05
-1.05
-1.065
-1.07
-1.095
-1.11
-1.12
-1.105
-1.125
-1.095
-1.085
-1.075
-1.07
-1.06
-1.07
-1.07
-1.085
-1.105
-1.115
-1.11
-1.115
-1.105
-1.105
-1.125
-1.13
-1.095
-1.085
-1.085
-1.085
-1.09
-1.115
-1.11
-1.13
-1.125
-1.115
-1.095
-1.105
-1.095
-1.095
-1.085
-1.08
-1.065
-1.03
-0.995
-0.975
-0.965
-0.955
-0.95
-0.935
-0.93
-0.935
-0.94
-0.945
-0.955
-0.945
-0.91
-0.885
-0.85
-0.835
-0.83
-0.84
-0.855
-0.865
-0.865
-0.895
-0.905
-0.955
-0.97
-1.0
-1.01
-1.02
-1.065
-1.075
-1.095
-1.1
-1.115
-1.125
-1.125
-1.125
-1.155
-1.15
-1.14
-1.115
-1.11
-1.09
-1.09
-1.1
-1.11
-1.11
-1.125
-1.115
-1.135
-1.125
-1.105
-1.055
-0.98
-0.84
-0.675
-0.43
-0.11
0.24
0.625
1.02
1.46
1.855
2.19
2.4
2.5
2.395
2.02
1.38
0.74
0.1
-0.54
-1.18
-1.75
-1.51
-1.175
-0.885
-0.73
-0.725
-0.8
-0.9
-1.01
-1.07
-1.1
-1.125
-1.115
-1.105
-1.09
-1.075
-1.075
-1.08
-1.065
-1.075
-1.06
-1.06
-1.065
-1.07
-1.055
-1.05
-1.045
-1.04
-1.025
-1.02
-1.005
-1.005
-1.005
-1.01
-1.015
-1.02
-1.015
-0.985
-0.965
-0.94
-0.915
-0.905
-0.89
-0.88
-0.89
-0.87
-0.865
-0.865
-0.855
-0.84
-0.845
-0.815
-0.79
-0.76
-0.725
-0.69
-0.68
-0.655
-0.635
-0.635
-0.62
-0.59
-0.57
-0.535
-0.51
-0.475
-0.46
-0.42
-0.405
-0.39
-0.385
-0.365
-0.355
-0.35
-0.365
-0.335
-0.335
-0.35
-0.35
-0.35
-0.36
-0.375
-0.42
-0.46
-0.5
-0.545
-0.595
-0.625
-0.655
-0.685
-0.71
-0.745
-0.79
-0.845
-0.88
-0.925
-0.95
-0.98
-0.98
-0.975
-1.0
-0.985
-0.985
-1.005
-1.005
-1.015
-1.05
-1.045
-1.065
-1.075
-1.08
-1.05
-1.055
-1.025
-1.035
-1.03
-1.025
-1.04
-1.01
-1.025
-1.035
-1.045
-1.045
-1.025
-1.025
-1.015
-1.015
-1.005
-1.01
-1.0
-1.0
-1.0
-0.995
-1.01
-1.01
-1.0
-0.995
-1.0
-1.0
-1.01
-1.0
-1.01
-1.025
-1.04
-1.045
-1.05
-1.035
-1.025
-1.03
-1.015
-1.03
-1.045
-1.055
-1.06
-1.075
-1.115
-1.11
-1.115
-1.11
-1.075
-1.065
-1.075
-1.075
-1.075
-1.085
-1.1
-1.12
-1.135
-1.155
-1.155
-1.15
-1.11
-1.11
-1.1
-1.105
-1.115
-1.12
-1.125
-1.145
-1.15
-1.145
-1.145
-1.13
-1.125
-1.125
-1.12
-1.115
-1.115
-1.12
-1.14
-1.145
-1.155
-1.15
-1.14
-1.115
-1.095
-1.08
-1.05
-1.02
-1.025
-1.03
-1.02
-1.04
-1.03
-1.05
-1.05
-1.055
-1.055
-1.055
-1.03
-0.995
-0.97
-0.945
-0.925
-0.915
-0.935
-0.935
-0.955
-0.97
-0.975
-0.985
-0.99
-0.98
-1.005
-1.025
-1.045
-1.07
-1.105
-1.15
-1.17
-1.205
-1.215
-1.21
-1.215
-1.195
-1.19
-1.185
-1.185
-1.185
-1.21
-1.21
-1.205
-1.2
-1.19
-1.185
-1.175
-1.175
-1.165
-1.17
-1.14
-1.075
-0.97
-0.79
-0.525
-0.185
0.23
0.675
1.145
1.62
2.025
2.325
2.5
2.545
2.475
2.21
1.71
1.07
0.43
-0.21
-0.85
-1.49
-1.675
-1.41
-1.135
-0.945
-0.875
-0.905
-1.005
-1.11
-1.155
-1.205
-1.2
-1.19
-1.175
-1.175
-1.175
-1.175
-1.185
-1.185
-1.2
-1.19
-1.185
-1.175
-1.165
-1.15
-1.15
-1.16
-1.155
-1.135
-1.13
-1.115
-1.115
-1.11
-1.095
-1.08
-1.085
-1.075
-1.065
-1.075
-1.07
-1.075
-1.075
-1.065
-1.065
-1.05
-1.03
-1.01
-0.96
-0.93
-0.905
-0.89
-0.895
-0.87
-0.88
-0.87
-0.84
-0.82
-0.8
-0.785
-0.755
-0.73
-0.715
-0.695
-0.67
-0.635
-0.625
-0.605
-0.585
-0.56
-0.535
-0.51
-0.495
-0.47
-0.475
-0.465
-0.5
-0.49
-0.49
-0.495
-0.52
-0.52
-0.515
-0.525
-0.545
-0.56
-0.59
-0.63
-0.66
-0.715
-0.75
-0.81
-0.85
-0.9
-0.935
-0.955
-0.98
-0.985
-1.01
-1.045
-1.065
-1.105
-1.11
-1.12
-1.115
-1.135
-1.13
-1.14
-1.135
-1.145
-1.15
-1.155
-1.165
-1.175
-1.175
-1.195
-1.175
-1.145
-1.14
-1.145
-1.155
-1.155
-1.14
-1.14
-1.14
-1.135
-1.15
-1.145
-1.15
-1.15
-1.145
-1.14
-1.115
-1.1
-1.105
-1.11
-1.115
-1.135
-1.145
-1.16
-1.15
-1.18
-1.155
-1.145
-1.15
-1.13
-1.125
-1.13
-1.13
-1.15
-1.15
-1.16
-1.165
-1.17
-1.17
-1.185
-1.185
-1.185
-1.185
-1.205
-1.215
-1.2
-1.21
-1.205
-1.21
-1.23
-1.22
-1.21
-1.19
-1.175
-1.19
-1.195
-1.21
-1.23
-1.245
-1.245
-1.255
-1.25
-1.25
-1.22
-1.22
-1.2
-1.205
-1.215
-1.215
-1.24
-1.245
-1.26
-1.265
-1.265
-1.26
-1.235
-1.23
-1.205
-1.195
-1.185
-1.185
-1.19
-1.21
-1.21
-1.205
-1.19
-1.175
-1.165
-1.135
-1.125
-1.125
-1.13
-1.145
-1.13
-1.135
-1.125
-1.105
-1.08
-1.05
-1.035
-1.025
-1.01
-1.025
-1.04
-1.05
-1.075
-1.09
-1.105
-1.12
-1.125
-1.125
-1.11
-1.115
-1.13
-1.18
-1.195
-1.22
-1.255
-1.28
-1.29
-1.31
-1.295
-1.275
-1.245
-1.235
-1.225
-1.22
-1.23
-1.225
-1.23
-1.245
-1.255
-1.265
-1.245
-1.24
-1.22
-1.195
-1.18
-1.11
-0.98
-0.825
-0.61
-0.35
-0.015
0.345
0.74
1.15
1.555
1.9
2.145
2.25
2.145
1.745
1.105
0.465
-0.175
-0.815
-1.455
-1.875
-1.67
-1.37
-1.11
-0.975
-0.935
-0.98
-1.04
-1.135
-1.18
-1.2
-1.21
-1.215
-1.19
-1.19
-1.19
-1.165
-1.175
-1.18
-1.19
-1.205
-1.195
-1.205
-1.21
-1.19
-1.175
-1.165
-1.155
-1.16
-1.16
-1.145
-1.14
-1.14
-1.125
-1.125
-1.115
-1.095
-1.085
-1.08
-1.055
-1.06
-1.04
-1.03
-1.04
-1.05
-1.045
-1.04
-1.035
-1.005
-0.99
-0.93
-0.9
-0.89
-0.87
-0.85
-0.87
-0.87
-0.845
-0.83
-0.82
-0.78
-0.75
-0.71
-0.67
-0.655
-0.63
-0.61
-0.6
-0.58
-0.575
-0.555
-0.53
-0.52
-0.51
-0.495
-0.46
-0.455
-0.47
-0.48
-0.505
-0.525
-0.54
-0.545
-0.55
-0.56
-0.585
-0.605
-0.635
-0.66
-0.705
-0.735
-0.78
-0.825
-0.86
-0.895
-0.93
-0.945
-0.96
-0.96
-0.965
-0.99
-1.015
-1.05
-1.08
-1.12
-1.13
-1.125
-1.115
-1.115
-1.11
-1.11
-1.095
-1.09
-1.075
-1.085
-1.085
-1.085
-1.095
-1.085
-1.08
-1.075
-1.075
-1.06
-1.05
-1.04
-1.04
-1.05
-1.06
-1.07
-1.075
-1.08
-1.065
-1.06
-1.04
-1.035
-1.025
-1.03
-1.035
-1.045
-1.055
-1.06
-1.065
-1.065
-1.06
-1.055
-1.035
-1.035
-1.03
-1.025
-1.04
-1.045
-1.065
-1.07
-1.075
-1.07
-1.08
-1.105
-1.125
-1.145
-1.14
-1.145
-1.12
-1.115
-1.095
-1.105
-1.11
-1.125
-1.14
-1.13
-1.13
-1.1
-1.1
-1.095
-1.085
-1.09
-1.125
-1.115
-1.135
-1.14
-1.15
-1.14
-1.13
-1.11
-1.08
-1.065
-1.075
-1.085
-1.1
-1.115
-1.13
-1.17
-1.165
-1.145
-1.13
-1.115
-1.095
-1.09
-1.08
-1.065
-1.07
-1.07
-1.05
-1.055
-1.035
-1.02
-1.02
-1.015
-1.02
-1.015
-1.0
-1.005
-1.0
-1.0
-1.0
-0.995
-0.98
-0.95
-0.935
-0.92
-0.915
-0.915
-0.93
-0.96
-0.965
-1.015
-1.025
-1.03
-1.055
-1.06
-1.07
-1.085
-1.095
-1.095
-1.125
-1.14
-1.185
-1.215
-1.22
-1.235
-1.21
-1.21
-1.195
-1.19
-1.175
-1.16
-1.16
-1.165
-1.175
-1.17
-1.175
-1.19
-1.195
-1.18
-1.135
-1.1
-1.01
-0.85
-0.61
-0.305
0.05
0.48
0.935
1.41
1.84
2.22
2.46
2.525
2.375
2.0
1.36
0.72
0.08
-0.56
-1.2
-1.84
-1.58
-1.25
-0.94
-0.79
-0.775
-0.855
-0.97
-1.07
-1.125
-1.175
-1.18
-1.17
-1.14
-1.145
-1.12
-1.115
-1.1
-1.095
-1.1
-1.105
-1.095
-1.1
-1.105
-1.1
-1.095
-1.095
-1.08
-1.07
-1.065
-1.055
-1.035
-1.03
-1.025
-1.01
-1.01
-0.995
-0.995
-0.995
-0.97
-0.96
-0.935
-0.92
-0.92
-0.92
-0.925
-0.92
-0.905
-0.895
-0.87
-0.84
-0.81
-0.785
-0.75
-0.735
-0.705
-0.68
-0.66
-0.645
-0.625
-0.615
-0.59
-0.565
-0.54
-0.5
-0.48
-0.45
-0.44
-0.43
-0.405
-0.415
-0.42
-0.4
-0.38
-0.375
-0.36
-0.36
-0.355
-0.36
-0.38
-0.395
-0.44
-0.48
-0.52
-0.56
-0.6
-0.62
-0.64
-0.68
-0.685
-0.705
-0.76
-0.785
-0.845
-0.88
-0.92
-0.945
-0.95
-0.97
-0.975
-0.975
-0.955
-0.985
-0.99
-1.01
-1.05
-1.05
-1.07
-1.085
-1.07
-1.06
-1.035
-1.02
-1.01
-1.015
-1.025
-1.035
-1.065
-1.08
-1.075
-1.08
-1.06
-1.045
-1.03
-1.02
-1.01
-1.015
-1.01
-1.01
-1.01
-1.02
-1.035
-1.015
-1.02
-1.0
-0.99
-0.995
-0.98
-0.99
-0.99
-0.99
-1.03
-1.05
-1.075
-1.075
-1.095
-1.07
-1.045
-1.035
-1.015
-1.03
-1.03
-1.045
-1.07
-1.085
-1.09
-1.09
-1.1
-1.095
-1.075
-1.07
-1.055
-1.06
-1.075
-1.08
-1.105
-1.11
-1.13
-1.12
-1.11
-1.11
-1.1
-1.095
-1.085
-1.095
-1.095
-1.09
-1.12
-1.115
-1.11
-1.11
-1.135
-1.115
-1.1
-1.1
-1.09
-1.095
-1.09
-1.11
-1.12
-1.125
-1.12
-1.105
-1.115
-1.085
-1.06
-1.03
-1.0
-0.99
-1.0
-1.005
-1.015
-1.03
-1.015
-1.02
-1.025
-1.01
-0.975
-0.935
-0.905
-0.88
-0.855
-0.86
-0.875
-0.9
-0.92
-0.945
-0.955
-0.95
-0.95
-0.965
-0.945
-0.955
-0.975
-0.985
-1.025
-1.055
-1.09
-1.15
-1.16
-1.165
-1.175
-1.175
-1.16
-1.155
-1.15
-1.165
-1.17
-1.165
-1.16
-1.15
-1.15
-1.15
-1.135
-1.15
-1.15
-1.155
-1.165
-1.17
-1.14
-1.07
-0.945
-0.735
-0.45
-0.085
0.345
0.815
1.285
1.765
2.15
2.425
2.56
2.535
2.37
1.965
1.325
0.685
0.045
-0.595
-1.235
-1.66
-1.46
-1.16
-0.92
-0.795
-0.79
-0.885
-1.0
-1.09
-1.16
-1.155
-1.15
-1.14
-1.135
-1.14
-1.135
-1.15
-1.155
-1.165
-1.155
-1.14
-1.12
-1.105
-1.085
-1.085
-1.09
-1.08
-1.075
-1.09
-1.09
-1.09
-1.1
-1.09
-1.045
-1.035
-1.01
-1.005
-1.005
-1.0
-0.995
-0.995
-0.985
-0.98
-0.975
-0.95
-0.925
-0.905
-0.88
-0.855
-0.835
-0.835
-0.82
-0.8
-0.785
-0.765
-0.745
-0.715
-0.68
-0.665
-0.635
-0.625
-0.6
-0.57
-0.565
-0.555
-0.535
-0.52
-0.495
-0.465
-0.445
-0.41
-0.395
-0.385
-0.385
-0.385
-0.385
-0.42
-0.435
-0.44
-0.46
-0.47
-0.475
-0.49
-0.49
-0.525
-0.57
-0.62
-0.665
-0.725
-0.765
-0.81
-0.845
-0.885
-0.9
-0.91
-0.94
-0.97
-1.005
-1.03
-1.075
-1.1
-1.115
-1.115
-1.135
-1.13
-1.13
-1.125
-1.11
-1.095
-1.09
-1.12
-1.12
-1.135
-1.14
-1.15
-1.16
-1.145
-1.125
-1.135
-1.115
-1.105
-1.105
-1.105
-1.11
-1.11
-1.11
-1.115
-1.115
-1.115
-1.1
-1.085
-1.09
-1.1
-1.105
-1.11
-1.125
-1.135
-1.135
-1.14
-1.135
-1.125
-1.115
-1.11
-1.105
-1.1
-1.105
-1.12
-1.135
-1.14
-1.14
-1.135
-1.145
-1.145
-1.13
-1.13
-1.12
-1.14
-1.14
-1.15
-1.16
-1.175
-1.18
-1.2
-1.195
-1.185
-1.17
-1.17
-1.17
-1.175
-1.195
-1.18
-1.185
-1.205
-1.215
-1.225
-1.23
-1.225
-1.205
-1.19
-1.165
-1.165
-1.17
-1.175
-1.185
-1.21
-1.22
-1.235
-1.235
-1.235
-1.215
-1.195
-1.175
-1.17
-1.19
-1.19
-1.2
-1.205
-1.205
-1.195
-1.195
-1.175
-1.125
-1.11
-1.07
-1.075
-1.095
-1.09
-1.125
-1.125
-1.115
-1.13
-1.13
-1.12
-1.07
-1.025
-0.995
-0.975
-0.96
-0.96
-0.985
-1.01
-1.03
-1.04
-1.055
-1.055
-1.065
-1.055
-1.06
