Lead II
-0.39
-0.395
-0.385
-0.385
-0.37
-0.37
-0.35
-0.34
-0.325
-0.325
-0.32
-0.32
-0.315
-0.31
-0.32
-0.32
-0.32
-0.31
-0.31
-0.315
-0.32
-0.315
-0.31
-0.32
-0.32
-0.315
-0.305
-0.295
-0.27
-0.255
-0.23
-0.23
-0.23
-0.245
-0.26
-0.27
-0.275
-0.29
-0.28
-0.275
-0.285
-0.28
-0.28
-0.265
-0.265
-0.26
-0.255
-0.265
-0.265
-0.27
-0.275
-0.28
-0.27
-0.275
-0.27
-0.265
-0.26
-0.275
-0.26
-0.265
-0.265
-0.285
-0.295
-0.275
-0.28
-0.275
-0.265
-0.26
-0.25
-0.255
-0.26
-0.27
-0.265
-0.27
-0.27
-0.265
-0.275
-0.26
-0.24
-0.215
-0.205
-0.195
-0.2
-0.2
-0.195
-0.21
-0.21
-0.235
-0.225
-0.225
-0.24
-0.245
-0.26
-0.26
-0.265
-0.265
-0.27
-0.275
-0.25
-0.26
-0.235
-0.22
-0.2
-0.185
-0.185
-0.195
-0.185
-0.205
-0.21
-0.22
-0.23
-0.23
-0.225
-0.225
-0.225
-0.215
-0.22
-0.235
-0.235
-0.24
-0.255
-0.265
-0.265
-0.275
-0.265
-0.255
-0.25
-0.235
-0.23
-0.235
-0.24
-0.255
-0.255
-0.275
-0.265
-0.27
-0.265
-0.26
-0.26
-0.24
-0.24
-0.245
-0.27
-0.285
-0.325
-0.35
-0.34
-0.28
-0.175
-0.02
0.185
0.425
0.675
0.92
1.16
1.34
1.435
1.455
1.44
1.41
1.355
1.245
1.035
0.7
0.29
-0.085
-0.35
-0.465
-0.485
-0.44
-0.355
-0.3
-0.265
-0.265
-0.27
-0.275
-0.285
-0.29
-0.29
-0.3
-0.305
-0.31
-0.34
-0.35
-0.355
-0.355
-0.36
-0.35
-0.35
-0.37
-0.375
-0.39
-0.395
-0.415
-0.425
-0.43
-0.43
-0.425
-0.44
-0.44
-0.44
-0.43
-0.435
-0.445
-0.455
-0.47
-0.485
-0.49
-0.49
-0.49
-0.495
-0.49
-0.495
-0.505
-0.505
-0.525
-0.525
-0.535
-0.535
-0.535
-0.535
-0.54
-0.535
-0.535
-0.53
-0.54
-0.55
-0.555
-0.56
-0.555
-0.565
-0.56
-0.555
-0.56
-0.575
-0.59
-0.61
-0.635
-0.665
-0.68
-0.71
-0.72
-0.735
-0.755
-0.755
-0.76
-0.775
-0.775
-0.785
-0.79
-0.795
-0.81
-0.83
-0.84
-0.87
-0.88
-0.875
-0.875
-0.87
-0.875
-0.85
-0.84
-0.835
-0.815
-0.815
-0.78
-0.77
-0.73
-0.715
-0.68
-0.645
-0.62
-0.585
-0.565
-0.55
-0.53
-0.51
-0.5
-0.495
-0.48
-0.465
-0.445
-0.435
-0.435
-0.425
-0.41
-0.425
-0.435
-0.425
-0.43
-0.425
-0.42
-0.415
-0.41
-0.395
-0.39
-0.385
-0.365
-0.375
-0.375
-0.38
-0.385
-0.385
-0.38
-0.365
-0.355
-0.33
-0.315
-0.31
-0.315
-0.32
-0.33
-0.345
-0.35
-0.365
-0.385
-0.365
-0.36
-0.35
-0.35
-0.33
-0.335
-0.335
-0.34
-0.33
-0.325
-0.315
-0.31
-0.315
-0.31
-0.325
-0.335
-0.335
-0.335
-0.35
-0.355
-0.365
-0.375
-0.39
-0.38
-0.365
-0.375
-0.365
-0.355
-0.36
-0.385
-0.39
-0.405
-0.4
-0.415
-0.435
-0.425
-0.415
-0.415
-0.415
-0.42
-0.41
-0.41
-0.42
-0.425
-0.425
-0.435
-0.435
-0.435
-0.435
-0.425
-0.425
-0.42
-0.43
-0.44
-0.465
-0.465
-0.435
-0.37
-0.225
-0.04
0.16
0.39
0.625
0.85
1.065
1.225
1.33
1.36
1.335
1.305
1.23
1.11
0.905
0.57
0.175
-0.205
-0.495
-0.64
-0.665
-0.63
-0.58
-0.52
-0.5
-0.485
-0.49
-0.495
-0.495
-0.505
-0.51
-0.52
-0.535
-0.55
-0.565
-0.585
-0.61
-0.63
-0.635
-0.635
-0.635
-0.63
-0.635
-0.64
-0.655
-0.67
-0.67
-0.675
-0.695
-0.71
-0.705
-0.695
-0.705
-0.7
-0.705
-0.72
-0.72
-0.73
-0.73
-0.75
-0.77
-0.77
-0.765
-0.76
-0.765
-0.765
-0.765
-0.78
-0.78
-0.785
-0.8
-0.815
-0.815
-0.805
-0.81
-0.82
-0.82
-0.825
-0.81
-0.84
-0.835
-0.84
-0.83
-0.845
-0.85
-0.855
-0.87
-0.87
-0.89
-0.905
-0.92
-0.945
-0.955
-0.975
-0.995
-1.015
-1.03
-1.04
-1.06
-1.055
-1.06
-1.05
-1.07
-1.075
-1.08
-1.105
-1.12
-1.13
-1.145
-1.16
-1.14
-1.135
-1.105
-1.09
-1.06
-1.045
-1.01
-0.975
-0.955
-0.94
-0.92
-0.89
-0.855
-0.83
-0.8
-0.785
-0.77
-0.75
-0.74
-0.74
-0.74
-0.74
-0.735
-0.73
-0.725
-0.715
-0.71
-0.705
-0.68
-0.67
-0.67
-0.675
-0.69
-0.68
-0.695
-0.695
-0.675
-0.665
-0.66
-0.635
-0.63
-0.615
-0.62
-0.625
-0.63
-0.65
-0.645
-0.655
-0.66
-0.66
-0.675
-0.67
-0.67
-0.67
-0.675
-0.67
-0.66
-0.655
-0.645
-0.635
-0.62
-0.62
-0.63
-0.62
-0.63
-0.63
-0.655
-0.66
-0.67
-0.68
-0.7
-0.705
-0.695
-0.7
-0.695
-0.68
-0.69
-0.695
-0.71
-0.71
-0.72
-0.73
-0.745
-0.735
-0.745
-0.74
-0.74
-0.725
-0.73
-0.72
-0.735
-0.755
-0.76
-0.77
-0.775
-0.76
-0.765
-0.755
-0.75
-0.745
-0.735
-0.735
-0.74
-0.74
-0.755
-0.76
-0.76
-0.745
-0.74
-0.74
-0.73
-0.735
-0.725
-0.745
-0.765
-0.785
-0.8
-0.805
-0.76
-0.64
-0.455
-0.24
-0.005
0.275
0.555
0.815
1.055
1.195
1.245
1.22
1.17
1.05
0.835
0.52
0.075
-0.375
-0.725
-0.925
-0.965
-0.925
-0.845
-0.77
-0.735
-0.735
-0.765
-0.795
-0.825
-0.82
-0.82
-0.835
-0.835
-0.85
-0.86
-0.89
-0.9
-0.915
-0.925
-0.925
-0.92
-0.92
-0.935
-0.95
-0.955
-0.96
-0.97
-0.99
-0.99
-1.005
-1.02
-1.015
-1.01
-1.01
-1.015
-1.01
-1.015
-1.03
-1.035
-1.05
-1.06
-1.065
-1.07
-1.065
-1.07
-1.065
-1.06
-1.07
-1.08
-1.09
-1.095
-1.105
-1.115
-1.125
-1.125
-1.125
-1.125
-1.13
-1.13
-1.135
-1.14
-1.155
-1.18
-1.205
-1.215
-1.245
-1.26
-1.255
-1.265
-1.265
-1.27
-1.285
-1.295
-1.315
-1.325
-1.335
-1.345
-1.355
-1.375
-1.38
-1.395
-1.39
-1.41
-1.425
-1.435
-1.445
-1.455
-1.46
-1.45
-1.44
-1.425
-1.395
-1.375
-1.35
-1.31
-1.275
-1.25
-1.215
-1.2
-1.18
-1.15
-1.14
-1.105
-1.07
-1.045
-1.03
-1.01
-1.005
-0.995
-0.985
-1.0
-0.985
-0.985
-0.985
-0.96
-0.965
-0.95
-0.945
-0.925
-0.935
-0.94
-0.935
-0.93
-0.955
-0.955
-0.955
-0.94
-0.94
-0.945
-0.92
-0.925
-0.925
-0.935
-0.95
-0.97
-0.97
-0.98
-0.965
-0.95
-0.93
-0.92
-0.895
-0.87
-0.86
-0.855
-0.86
-0.865
-0.875
-0.865
-0.87
-0.855
-0.855
-0.855
-0.85
-0.835
-0.825
-0.825
-0.82
-0.82
-0.82
-0.815
-0.805
-0.8
-0.815
-0.8
-0.8
-0.79
-0.785
-0.805
-0.8
-0.825
-0.835
-0.855
-0.84
-0.845
-0.84
-0.85
-0.83
-0.84
-0.845
-0.85
-0.865
-0.855
-0.875
-0.88
-0.89
-0.895
-0.89
-0.88
-0.87
-0.88
-0.875
-0.895
-0.89
-0.905
-0.915
-0.925
-0.925
-0.92
-0.92
-0.91
-0.92
-0.91
-0.91
-0.91
-0.92
-0.92
-0.935
-0.95
-0.96
-0.96
-0.97
-0.97
-0.955
-0.945
-0.955
-0.95
-0.95
-0.94
-0.935
-0.94
-0.945
-0.94
-0.94
-0.94
-0.945
-0.95
-0.955
-0.96
-0.95
-0.945
-0.935
-0.945
-0.92
-0.915
-0.89
-0.875
-0.87
-0.86
-0.865
-0.865
-0.88
-0.88
-0.895
-0.9
-0.895
-0.885
-0.885
-0.875
-0.88
-0.885
-0.9
-0.885
-0.89
-0.905
-0.91
-0.91
-0.91
-0.915
-0.91
-0.905
-0.92
-0.93
-0.935
-0.955
-0.995
-1.01
-1.02
-0.96
-0.81
-0.61
-0.335
-0.025
0.32
0.65
0.94
1.135
1.24
1.235
1.165
1.01
0.74
0.32
-0.175
-0.65
-0.965
-1.12
-1.17
-1.13
-1.065
-1.015
-1.0
-1.01
-1.045
-1.065
-1.075
-1.07
-1.055
-1.04
-1.04
-1.05
-1.065
-1.08
-1.09
-1.11
-1.12
-1.115
-1.125
-1.12
-1.115
-1.115
-1.14
-1.14
-1.15
-1.165
-1.185
-1.185
-1.19
-1.2
-1.2
-1.205
-1.2
-1.205
-1.215
-1.225
-1.22
-1.235
-1.24
-1.25
-1.25
-1.265
-1.275
-1.275
-1.27
-1.265
-1.255
-1.26
-1.28
-1.28
-1.285
-1.295
-1.305
-1.305
-1.31
-1.3
-1.295
-1.295
-1.3
-1.305
-1.305
-1.33
-1.345
-1.39
-1.39
-1.405
-1.42
-1.42
-1.44
-1.455
-1.48
-1.49
-1.52
-1.535
-1.53
-1.55
-1.55
-1.56
-1.555
-1.575
-1.595
-1.595
-1.62
-1.61
-1.62
-1.63
-1.625
-1.62
-1.61
-1.575
-1.545
-1.515
-1.475
-1.43
-1.405
-1.37
-1.33
-1.31
-1.29
-1.275
-1.25
-1.235
-1.195
-1.2
-1.16
-1.145
-1.12
-1.105
-1.105
-1.105
-1.095
-1.09
-1.085
-1.065
-1.055
-1.05
-1.04
-1.025
-1.015
-1.015
-1.025
-1.025
-1.02
-1.005
-1.0
-0.99
-0.965
-0.95
-0.925
-0.92
-0.92
-0.915
-0.93
-0.955
-0.96
-0.975
-0.985
-0.98
-0.985
-0.975
-0.97
-0.955
-0.955
-0.945
-0.93
-0.93
-0.925
-0.93
-0.945
-0.945
-0.955
-0.955
-0.965
-0.965
-0.975
-0.97
-0.97
-0.98
-0.99
-0.985
-0.985
-0.985
-0.98
-1.0
-0.995
-0.985
-0.995
-1.0
-1.0
-1.015
-1.025
-1.03
-1.025
-1.02
-1.02
-1.015
-1.015
-1.01
-1.015
-1.01
-1.015
-1.03
-1.03
-1.035
-1.03
-1.015
-1.01
-1.01
-0.995
-0.99
-1.015
-1.005
-1.015
-1.0
-0.99
-0.98
-0.965
-0.98
-0.97
-0.955
-0.955
-0.96
-0.965
-0.98
-1.0
-1.03
-1.035
-1.055
-1.04
-1.04
-1.025
-1.01
-0.995
-0.975
-0.975
-0.96
-0.97
-0.965
-0.975
-0.985
-0.99
-1.0
-1.005
-1.005
-0.985
-0.985
-0.98
-0.98
-0.99
-1.0
-1.015
-1.015
-1.025
-1.02
-1.02
-1.03
-1.02
-1.02
-1.03
-1.04
-1.035
-1.045
-1.05
-1.055
-1.065
-1.06
-1.055
-1.05
-1.055
-1.045
-1.045
-1.04
-1.045
-1.045
-1.04
-1.055
-1.05
-1.045
-1.03
-1.03
-1.01
-0.995
-0.975
-0.985
-0.975
-0.98
-0.97
-0.975
-0.985
-1.0
-0.995
-1.005
-1.01
-1.02
-1.025
-1.025
-1.03
-1.045
-1.025
-1.02
-1.01
-1.005
-0.98
-0.98
-0.975
-0.965
-0.985
-0.99
-0.995
-0.995
-1.0
-1.005
-1.01
-1.0
-1.0
-0.985
-0.98
-0.97
-0.98
-0.985
-1.0
-1.0
-1.025
-1.06
-1.075
-1.09
-1.07
-0.98
-0.835
-0.635
-0.415
-0.135
0.155
0.46
0.755
0.995
1.165
1.28
1.31
1.285
1.175
0.995
0.665
0.21
-0.32
-0.785
-1.085
-1.23
-1.24
-1.185
-1.115
-1.045
-1.0
-0.995
-1.005
-1.04
-1.06
-1.075
-1.1
-1.115
-1.115
-1.12
-1.13
-1.14
-1.155
-1.16
-1.155
-1.16
-1.16
-1.165
-1.17
-1.155
-1.15
-1.155
-1.145
-1.155
-1.16
-1.165
-1.18
-1.19
-1.205
-1.23
-1.235
-1.255
-1.255
-1.25
-1.26
-1.26
-1.265
-1.26
-1.275
-1.285
-1.285
-1.305
-1.325
-1.335
-1.345
-1.35
-1.35
-1.35
-1.365
-1.355
-1.355
-1.365
-1.37
-1.385
-1.4
-1.41
-1.415
-1.435
-1.42
-1.425
-1.415
-1.415
-1.425
-1.43
-1.445
-1.455
-1.475
-1.505
-1.505
-1.5
-1.505
-1.5
-1.5
-1.485
-1.495
-1.505
-1.53
-1.555
-1.58
-1.6
-1.63
-1.635
-1.65
-1.655
-1.655
-1.65
-1.655
-1.65
-1.65
-1.64
-1.63
-1.625
-1.59
-1.565
-1.55
-1.525
-1.5
-1.475
-1.455
-1.425
-1.405
-1.375
-1.36
-1.345
-1.31
-1.28
-1.26
-1.23
-1.205
-1.185
-1.165
-1.155
-1.15
-1.15
-1.155
-1.135
-1.135
-1.135
-1.125
-1.12
-1.115
-1.105
-1.1
-1.095
-1.1
-1.105
-1.11
-1.11
-1.1
-1.085
-1.08
-1.065
-1.055
-1.05
-1.06
-1.055
-1.065
-1.065
-1.065
-1.055
-1.03
-1.025
-1.0
-0.98
-0.965
-0.96
-0.955
-0.96
-0.97
-0.99
-1.0
-1.01
-1.01
-1.01
-1.005
-1.02
-1.005
-0.995
-0.98
-0.97
-0.97
-0.97
-0.97
-0.975
-0.975
-0.98
-0.995
-1.0
-1.005
-1.0
-1.015
-1.015
-1.025
-1.035
-1.04
-1.045
-1.06
-1.065
-1.07
-1.07
-1.07
-1.075
-1.065
-1.065
-1.06
-1.07
-1.075
-1.075
-1.07
-1.075
-1.065
-1.055
-1.05
-1.04
-1.045
-1.045
-1.04
-1.045
-1.065
-1.085
-1.095
-1.095
-1.045
-0.935
-0.755
-0.53
-0.285
0.0
0.315
0.64
0.935
1.17
1.31
1.355
1.335
1.23
1.01
0.665
0.185
-0.35
-0.815
-1.14
-1.27
-1.275
-1.21
-1.11
-1.045
-1.0
-1.005
-1.025
-1.035
-1.055
-1.075
-1.08
-1.09
-1.105
-1.115
-1.125
-1.125
-1.135
-1.13
-1.13
-1.14
-1.145
-1.16
-1.17
-1.18
-1.195
-1.2
-1.21
-1.22
-1.22
-1.225
-1.215
-1.225
-1.225
-1.235
-1.23
-1.255
-1.26
-1.255
-1.26
-1.27
-1.26
-1.26
-1.25
-1.255
-1.26
-1.265
-1.275
-1.28
-1.295
-1.295
-1.295
-1.29
-1.285
-1.28
-1.27
-1.265
-1.27
-1.275
-1.28
-1.285
-1.305
-1.315
-1.34
-1.34
-1.35
-1.35
-1.35
-1.375
-1.375
-1.39
-1.405
-1.425
-1.44
-1.44
-1.44
-1.435
-1.435
-1.46
-1.45
-1.47
-1.485
-1.505
-1.535
-1.54
-1.555
-1.55
-1.565
-1.57
-1.56
-1.54
-1.53
-1.51
-1.49
-1.475
-1.45
-1.435
-1.405
-1.395
-1.35
-1.325
-1.295
-1.255
-1.24
-1.22
-1.21
-1.195
-1.185
-1.175
-1.175
-1.165
-1.155
-1.135
-1.12
-1.12
-1.1
-1.09
-1.085
-1.08
-1.085
-1.1
-1.095
-1.095
-1.085
-1.07
-1.06
-1.06
-1.045
-1.035
-1.03
-1.02
-1.01
-1.01
-1.0
-1.005
-0.995
-1.005
-1.005
-0.995
-0.995
-0.995
-1.005
-1.02
-1.025
-1.02
-1.0
-1.0
-0.985
-0.96
-0.945
-0.945
-0.94
-0.94
-0.955
-0.965
-0.975
-1.01
-0.99
-1.01
-1.005
-0.99
-0.98
-0.985
-0.975
-0.975
-0.975
-0.985
-0.995
-1.0
-1.01
-1.005
-1.01
-1.005
-1.005
-1.0
-1.005
-1.005
-1.005
-1.01
-1.015
-1.01
-1.02
-1.025
-1.015
-1.015
-1.005
-0.985
-0.985
-0.98
-0.99
-0.99
-0.99
-0.985
-0.99
-0.985
-0.98
-0.97
-0.955
-0.94
-0.935
-0.905
-0.895
-0.895
-0.895
-0.9
-0.91
-0.91
-0.925
-0.925
-0.93
-0.93
-0.925
-0.935
-0.935
-0.94
-0.935
-0.945
-0.945
-0.94
-0.93
-0.92
-0.885
-0.87
-0.85
-0.85
-0.85
-0.865
-0.865
-0.87
-0.87
-0.875
-0.87
-0.865
-0.86
-0.855
-0.85
-0.85
-0.855
-0.84
-0.84
-0.86
-0.855
-0.855
-0.85
-0.84
-0.835
-0.835
-0.82
-0.82
-0.83
-0.84
-0.835
-0.845
-0.86
-0.885
-0.91
-0.905
-0.875
-0.765
-0.615
-0.42
-0.175
0.12
0.42
0.725
1.015
1.275
1.435
1.525
1.535
1.48
1.35
1.09
0.7
0.19
-0.325
-0.725
-0.94
-0.995
-0.98
-0.91
-0.84
-0.8
-0.79
-0.79
-0.83
-0.865
-0.875
-0.89
-0.87
-0.86
-0.855
-0.84
-0.845
-0.855
-0.86
-0.87
-0.89
-0.895
-0.905
-0.925
-0.92
-0.94
-0.94
-0.945
-0.945
-0.95
-0.94
-0.945
-0.955
-0.96
-0.965
-0.985
-0.985
-0.985
-0.985
-0.995
-0.98
-0.985
-0.985
-0.98
-0.98
-1.0
-1.01
-1.015
-1.015
-1.015
-1.015
-1.005
-1.0
-0.995
-0.985
-0.99
-1.005
-1.01
-1.01
-1.015
-1.01
-1.01
-1.0
-1.0
-0.985
-0.99
-0.99
-0.995
-1.005
-1.025
-1.05
-1.07
-1.08
-1.11
-1.12
-1.125
-1.135
-1.13
-1.145
-1.15
-1.145
-1.155
-1.155
-1.17
-1.195
-1.205
-1.205
-1.22
-1.215
-1.22
-1.225
-1.225
-1.21
-1.2
-1.195
-1.175
-1.165
-1.135
-1.095
-1.05
-1.02
-0.98
-0.94
-0.905
-0.865
-0.835
-0.81
-0.795
-0.78
-0.755
-0.75
-0.725
-0.695
-0.685
-0.67
-0.66
-0.655
-0.63
-0.64
-0.635
-0.64
-0.625
-0.615
-0.605
-0.6
-0.595
-0.585
-0.57
-0.57
-0.57
-0.57
-0.555
-0.56
-0.535
-0.53
-0.51
-0.49
-0.485
-0.47
-0.475
-0.485
-0.49
-0.495
-0.505
-0.51
-0.52
-0.515
-0.515
-0.515
-0.51
-0.485
-0.475
-0.46
-0.435
-0.43
-0.45
-0.47
-0.475
-0.485
-0.49
-0.485
-0.475
-0.465
-0.465
-0.46
-0.46
-0.455
-0.46
-0.465
-0.46
-0.47
-0.455
-0.46
-0.455
-0.45
-0.465
-0.445
-0.445
-0.46
-0.465
-0.475
-0.48
-0.475
-0.47
-0.465
-0.46
-0.455
-0.455
-0.465
-0.465
-0.465
-0.475
-0.48
-0.48
-0.475
-0.475
-0.445
-0.44
-0.425
-0.425
-0.425
-0.425
-0.43
-0.425
-0.42
-0.405
-0.4
-0.385
-0.375
-0.355
-0.35
-0.36
-0.37
-0.37
-0.39
-0.425
-0.435
-0.45
-0.44
-0.445
-0.425
-0.405
-0.38
-0.375
-0.36
-0.355
-0.35
-0.335
-0.33
-0.33
-0.345
-0.355
-0.365
-0.37
-0.4
-0.405
-0.4
-0.355
-0.26
-0.11
0.08
0.305
0.58
0.865
1.145
1.395
1.57
1.665
1.685
1.645
1.555
1.39
1.125
0.735
0.28
-0.14
-0.425
-0.565
-0.58
-0.53
-0.475
-0.43
-0.42
-0.43
-0.455
-0.485
-0.5
-0.505
-0.485
-0.5
-0.49
-0.47
-0.485
-0.485
-0.49
-0.485
-0.49
-0.485
-0.475
-0.46
-0.46
-0.445
-0.45
-0.465
-0.48
-0.51
-0.525
-0.54
-0.565
-0.57
-0.55
-0.54
-0.535
-0.525
-0.525
-0.51
-0.51
-0.5
-0.505
-0.525
-0.545
-0.56
-0.575
-0.58
-0.585
-0.59
-0.57
-0.565
-0.58
-0.605
-0.615
-0.63
-0.65
-0.665
-0.665
-0.685
-0.68
-0.68
-0.68
-0.685
-0.715
-0.72
-0.745
-0.76
-0.78
-0.81
-0.81
-0.835
-0.825
-0.83
-0.835
-0.84
-0.86
-0.875
-0.89
-0.905
-0.915
-0.93
-0.93
-0.925
-0.915
-0.895
-0.89
-0.865
-0.84
-0.825
-0.775
-0.74
-0.72
-0.7
-0.67
-0.645
-0.62
-0.595
-0.565
-0.53
-0.51
-0.485
-0.465
-0.445
-0.43
-0.405
-0.39
-0.375
-0.365
-0.355
-0.34
-0.355
-0.37
-0.385
-0.385
-0.38
-0.39
-0.395
-0.39
-0.385
-0.375
-0.385
-0.375
-0.385
-0.385
-0.365
-0.38
-0.385
-0.395
-0.395
-0.39
-0.395
-0.39
-0.37
-0.395
-0.39
-0.385
-0.385
-0.39
-0.395
-0.4
-0.41
-0.415
-0.415
-0.395
-0.395
-0.385
-0.36
-0.37
-0.385
-0.37
-0.375
-0.38
-0.375
-0.37
-0.365
-0.35
-0.33
-0.31
-0.3
-0.3
-0.29
-0.29
-0.305
-0.315
-0.33
-0.33
-0.335
-0.34
-0.345
-0.355
-0.345
-0.355
-0.36
-0.355
-0.36
-0.35
-0.355
-0.345
-0.33
-0.33
-0.33
-0.32
-0.32
-0.335
-0.345
-0.36
-0.36
-0.375
-0.365
-0.38
-0.375
-0.38
-0.37
-0.365
-0.36
-0.37
-0.375
-0.385
-0.385
-0.385
-0.385
-0.385
-0.385
-0.39
-0.38
-0.38
-0.37
-0.38
-0.4
-0.42
-0.44
-0.445
-0.41
-0.305
-0.16
0.035
0.27
0.52
0.775
1.04
1.275
1.435
1.525
1.54
1.505
1.44
1.31
1.095
0.78
0.395
0.015
-0.275
-0.455
-0.53
-0.525
-0.5
-0.47
-0.465
-0.475
-0.48
-0.495
-0.485
-0.495
-0.485
-0.485
-0.49
-0.485
-0.5
-0.51
-0.51
-0.52
-0.535
-0.54
-0.545
-0.555
-0.575
-0.57
-0.59
-0.6
-0.62
-0.625
-0.635
-0.655
-0.65
-0.66
-0.66
-0.66
-0.68
-0.685
-0.7
-0.705
-0.715
-0.715
-0.72
-0.73
-0.73
-0.73
-0.74
-0.74
-0.75
-0.755
-0.77
-0.785
-0.79
-0.8
-0.805
-0.805
-0.8
-0.795
-0.795
-0.79
-0.8
-0.805
-0.82
-0.83
-0.84
-0.84
-0.845
-0.835
-0.83
-0.83
-0.835
-0.84
-0.86
-0.885
-0.915
-0.93
-0.96
-0.985
-1.0
-1.025
-1.03
-1.04
-1.03
-1.04
-1.04
-1.05
-1.055
-1.05
-1.055
-1.065
-1.07
-1.075
-1.065
-1.035
-1.015
-0.99
-0.96
-0.925
-0.915
-0.88
-0.855
-0.83
-0.81
-0.775
-0.755
-0.73
-0.705
-0.685
-0.69
-0.665
-0.665
-0.665
-0.665
-0.66
-0.66
-0.65
-0.645
-0.64
-0.62
-0.605
-0.615
-0.605
-0.615
-0.615
-0.62
-0.62
-0.61
-0.59
-0.59
-0.615
-0.59
-0.57
-0.565
-0.545
-0.55
-0.55
-0.545
-0.54
-0.535
-0.53
-0.52
-0.525
-0.52
-0.515
-0.535
-0.54
-0.555
-0.565
-0.565
-0.585
-0.58
-0.565
-0.565
-0.55
-0.54
-0.53
-0.54
-0.56
-0.57
-0.585
-0.6
-0.61
-0.615
-0.62
-0.61
-0.61
-0.6
-0.6
-0.605
-0.605
-0.615
-0.64
-0.64
-0.64
-0.635
-0.63
-0.63
-0.625
-0.62
-0.615
-0.62
-0.63
-0.64
-0.65
-0.645
-0.68
-0.68
-0.665
-0.66
-0.655
-0.645
-0.64
-0.66
-0.655
-0.655
-0.665
-0.67
-0.675
-0.675
-0.665
-0.665
-0.655
-0.64
-0.625
-0.615
-0.605
-0.605
-0.61
-0.605
-0.625
-0.63
-0.645
-0.66
-0.665
-0.675
-0.68
-0.695
-0.69
-0.69
-0.69
-0.68
-0.68
-0.665
-0.66
-0.635
-0.625
-0.625
-0.62
-0.625
-0.65
-0.66
-0.675
-0.685
-0.685
-0.695
-0.68
-0.68
-0.685
-0.685
-0.685
-0.7
-0.705
-0.715
-0.72
-0.73
-0.74
-0.745
-0.745
-0.725
-0.735
-0.73
-0.72
-0.73
-0.735
-0.745
-0.745
-0.75
-0.765
-0.765
-0.755
-0.745
-0.74
-0.73
-0.715
-0.725
-0.715
-0.735
-0.75
-0.77
-0.77
-0.78
-0.8
-0.79
-0.76
-0.69
-0.56
-0.41
-0.21
0.03
0.29
0.56
0.82
1.04
1.22
1.315
1.335
1.3
1.19
0.985
0.67
0.23
-0.24
-0.645
-0.895
-0.97
-0.965
-0.89
-0.815
-0.77
-0.755
-0.79
-0.805
-0.855
-0.885
-0.905
-0.915
-0.915
-0.91
-0.91
-0.925
-0.92
-0.915
-0.935
-0.945
-0.965
-0.96
-0.98
-1.0
-1.015
-1.025
-1.025
-1.03
-1.03
-1.025
-1.045
-1.045
-1.05
-1.06
-1.075
-1.09
-1.085
-1.08
-1.08
-1.085
-1.08
-1.07
-1.085
-1.09
-1.105
-1.105
-1.125
-1.125
-1.115
-1.125
-1.11
-1.085
-1.07
-1.075
-1.09
-1.085
-1.125
-1.135
-1.15
-1.16
-1.165
-1.19
-1.185
-1.195
-1.19
-1.2
-1.215
-1.225
-1.23
-1.235
-1.245
-1.25
-1.26
-1.275
-1.285
-1.305
-1.33
-1.335
-1.355
-1.385
-1.39
-1.41
-1.43
-1.44
-1.465
-1.485
-1.49
-1.495
-1.485
-1.49
-1.5
-1.5
-1.5
-1.5
-1.495
-1.48
-1.47
-1.445
-1.425
-1.39
-1.35
-1.295
-1.28
-1.255
-1.23
-1.21
-1.195
-1.18
-1.145
-1.13
-1.12
-1.08
-1.055
-1.025
-1.025
-1.005
-0.99
-0.99
-0.985
-0.98
-0.975
-0.95
-0.935
-0.92
-0.905
-0.88
-0.88
-0.885
-0.885
-0.9
-0.9
-0.905
-0.915
-0.915
-0.915
-0.91
-0.9
-0.895
-0.895
-0.895
-0.9
-0.895
-0.9
-0.89
-0.89
-0.89
-0.905
-0.895
-0.915
-0.925
-0.925
-0.935
-0.94
-0.94
-0.945
-0.955
-0.96
-0.945
-0.945
-0.94
-0.94
-0.935
-0.94
-0.945
-0.95
-0.965
-0.995
-1.0
-1.01
-1.005
-1.005
-1.0
-0.99
-0.99
-0.985
-0.995
-1.005
-1.005
-1.005
-1.01
-1.01
-1.01
-1.005
-0.995
-0.985
-0.985
-0.98
-0.985
-0.995
-1.0
-1.0
-0.995
-0.98
-0.96
-0.945
-0.935
-0.92
-0.925
-0.925
-0.93
-0.945
-0.965
-0.98
-1.0
-1.0
-1.015
-1.005
-1.01
-1.005
-1.0
-0.99
-0.975
-0.975
-0.995
-0.975
-0.995
-0.97
-0.97
-0.97
-0.97
-0.97
-0.965
-0.96
-0.975
-0.98
-0.98
-0.99
-0.995
-1.0
-1.01
-1.005
-1.0
-0.995
-0.985
-0.99
-0.995
-1.0
-1.015
-1.02
-1.03
-1.025
-1.035
-1.03
-1.035
-1.03
-1.025
-1.025
-1.025
-1.035
-1.03
-1.04
-1.05
-1.045
-1.05
-1.035
-1.025
-1.015
-1.025
-1.035
-1.04
-1.03
-1.03
-1.02
-1.015
-1.025
-1.0
-0.98
-0.97
-0.96
-0.94
-0.93
-0.93
-0.955
-0.975
-0.99
-1.005
-1.03
-1.055
-1.085
-1.105
-1.1
-1.05
-0.95
-0.805
-0.585
-0.35
-0.07
0.245
0.57
0.845
1.07
1.19
1.235
1.215
1.125
0.97
0.715
0.32
-0.17
-0.675
-1.025
-1.215
-1.26
-1.23
-1.15
-1.075
-1.05
-1.04
-1.07
-1.11
-1.15
-1.18
-1.2
-1.205
-1.205
-1.195
-1.185
-1.19
-1.21
-1.205
-1.22
-1.235
-1.245
-1.255
-1.25
-1.255
-1.255
-1.255
-1.245
-1.235
-1.24
-1.24
-1.245
-1.25
-1.26
-1.265
-1.26
-1.255
-1.25
-1.255
-1.235
-1.22
-1.22
-1.22
-1.235
-1.23
-1.25
-1.27
-1.29
-1.305
-1.31
-1.305
-1.3
-1.295
-1.295
-1.305
-1.315
-1.315
-1.34
-1.33
-1.33
-1.33
-1.325
-1.32
-1.33
-1.33
-1.36
-1.37
-1.38
-1.405
-1.42
-1.44
-1.445
-1.47
-1.49
-1.5
-1.5
-1.505
-1.51
-1.54
-1.555
-1.575
-1.59
-1.615
-1.64
-1.64
-1.655
-1.66
-1.665
-1.675
-1.68
-1.69
-1.69
-1.72
-1.725
-1.725
-1.705
-1.7
-1.67
-1.655
-1.625
-1.6
-1.57
-1.56
-1.515
-1.49
-1.455
-1.43
-1.39
-1.355
-1.32
-1.28
-1.225
-1.18
-1.155
-1.13
-1.13
-1.135
-1.145
-1.15
-1.14
-1.135
-1.12
-1.11
-1.105
-1.105
-1.095
-1.095
-1.095
-1.1
-1.09
-1.075
-1.07
-1.07
-1.065
-1.075
-1.08
-1.085
-1.085
-1.09
-1.1
-1.105
-1.105
-1.1
-1.11
-1.11
-1.11
-1.11
-1.085
-1.08
-1.09
-1.085
-1.08
-1.09
-1.095
-1.11
-1.105
-1.1
-1.095
-1.095
-1.075
-1.08
-1.07
-1.085
-1.09
-1.09
-1.1
-1.105
-1.11
-1.1
-1.085
-1.07
-1.055
-1.055
-1.06
-1.055
-1.075
-1.065
-1.075
-1.075
-1.07
-1.055
-1.05
-1.025
-1.01
-1.0
-1.0
-1.015
-1.025
-1.05
-1.055
-1.08
-1.095
-1.105
-1.115
-1.105
-1.1
-1.09
-1.08
-1.08
-1.075
-1.07
-1.07
-1.06
-1.06
-1.055
-1.05
-1.065
-1.06
-1.05
-1.06
-1.065
-1.07
-1.08
-1.09
-1.095
-1.095
-1.11
-1.12
-1.115
-1.09
-1.08
-1.1
-1.095
-1.12
-1.13
-1.13
-1.145
-1.15
-1.14
-1.13
-1.13
-1.125
-1.12
-1.125
-1.11
-1.12
-1.125
-1.135
-1.15
-1.145
-1.14
-1.125
-1.115
-1.1
-1.085
-1.09
-1.09
-1.09
-1.105
-1.09
-1.075
-1.06
-1.045
-1.03
-1.02
-1.015
-1.005
-1.02
-1.045
-1.07
-1.105
-1.145
-1.17
-1.145
-1.06
-0.915
-0.705
-0.435
-0.135
0.2
0.535
0.85
1.1
1.245
1.29
1.255
1.145
0.95
0.63
0.17
-0.36
-0.85
-1.175
-1.305
-1.325
-1.275
-1.2
-1.14
-1.105
-1.11
-1.14
-1.17
-1.195
-1.2
-1.205
-1.21
-1.215
-1.215
-1.25
-1.255
-1.26
-1.265
-1.255
-1.265
-1.265
-1.265
-1.275
-1.27
-1.29
-1.285
-1.29
-1.3
-1.3
-1.295
-1.29
-1.285
-1.28
-1.275
-1.28
-1.28
-1.28
-1.295
-1.28
-1.28
-1.26
-1.26
-1.255
-1.26
-1.26
-1.27
-1.285
-1.305
-1.325
-1.34
-1.345
-1.35
-1.35
-1.35
-1.335
-1.32
-1.31
-1.31
-1.31
-1.335
-1.33
-1.355
-1.385
-1.405
-1.42
-1.425
-1.435
-1.435
-1.43
-1.45
-1.46
-1.485
-1.505
-1.525
-1.54
-1.555
-1.57
-1.585
-1.595
-1.605
-1.605
-1.63
-1.63
-1.65
-1.66
-1.675
-1.69
-1.69
-1.69
-1.675
-1.675
-1.655
-1.635
-1.62
-1.605
-1.585
-1.55
-1.535
-1.5
-1.46
-1.43
-1.39
-1.35
-1.32
-1.28
-1.265
-1.245
-1.21
-1.2
-1.18
-1.165
-1.135
-1.115
-1.095
-1.08
-1.07
-1.06
-1.07
-1.07
-1.07
-1.075
-1.08
-1.085
-1.085
-1.075
-1.07
-1.075
-1.05
-1.035
-1.015
-1.015
-1.01
-1.02
-1.045
-1.05
-1.065
-1.08
-1.065
-1.05
-1.035
-1.03
-1.03
-1.035
-1.04
-1.04
-1.045
-1.06
-1.055
-1.05
-1.06
-1.04
-1.04
-1.025
-1.035
-1.055
-1.065
-1.065
-1.06
-1.075
-1.07
-1.08
-1.075
-1.07
-1.055
-1.045
-1.04
-1.055
-1.06
-1.05
-1.055
-1.065
-1.065
-1.045
-1.05
-1.045
-1.045
-1.03
-1.01
-1.01
-1.005
-1.0
-1.0
-0.99
-0.99
-0.995
-1.005
-0.995
-1.0
-1.0
-1.005
-1.025
-1.045
-1.045
-1.055
-1.05
-1.05
-1.025
-1.005
-0.995
-0.97
-0.96
-0.95
-0.945
-0.955
-0.965
-0.98
-0.98
-0.985
-0.985
-0.985
-0.98
-0.97
-0.96
-0.965
-0.97
-0.975
-0.99
-1.0
-1.005
-1.01
-1.01
-1.005
-1.0
-0.99
-0.975
-0.975
-0.98
-0.98
-0.99
-0.985
-0.995
-0.995
-0.985
-0.985
-0.975
-0.975
-0.98
-1.0
-1.015
-1.03
-1.015
-0.945
-0.82
-0.62
-0.37
-0.065
0.27
0.625
0.95
1.23
1.445
1.525
1.5
1.39
1.155
0.77
0.215
-0.37
-0.855
-1.155
-1.255
-1.235
-1.14
-1.05
-0.985
-0.99
-0.99
-1.005
-1.02
-1.02
-1.02
-1.015
-1.015
-1.025
-1.03
-1.045
-1.06
-1.075
-1.09
-1.095
-1.085
-1.08
-1.09
-1.095
-1.1
-1.105
-1.105
-1.12
-1.135
-1.14
-1.165
-1.165
-1.165
-1.165
-1.155
-1.165
-1.16
-1.165
-1.165
-1.18
-1.18
-1.2
-1.21
-1.195
-1.205
-1.195
-1.2
-1.185
-1.18
-1.185
-1.185
-1.19
-1.19
-1.21
-1.205
-1.195
-1.195
-1.185
-1.18
-1.185
-1.185
-1.195
-1.215
-1.23
-1.26
-1.29
-1.31
-1.32
-1.325
-1.325
-1.325
-1.33
-1.33
-1.34
-1.345
-1.35
-1.37
-1.38
-1.395
-1.41
-1.425
-1.435
-1.455
-1.455
-1.435
-1.435
-1.435
-1.44
-1.44
-1.44
-1.43
-1.44
-1.39
-1.35
-1.32
-1.3
-1.255
-1.225
-1.195
-1.175
-1.16
-1.135
-1.13
-1.13
-1.1
-1.075
-1.055
-1.035
-1.005
-1.01
-1.005
-0.995
-0.99
-0.98
-0.985
-0.97
-0.96
-0.945
-0.94
-0.93
-0.925
-0.915
-0.915
-0.91
-0.905
-0.905
-0.895
-0.89
-0.87
-0.855
-0.84
-0.845
-0.845
-0.85
-0.85
-0.87
-0.88
-0.89
-0.885
-0.89
-0.885
-0.88
-0.87
-0.855
-0.84
-0.825
-0.81
-0.805
-0.825
-0.82
-0.835
-0.855
-0.86
-0.865
-0.875
-0.865
-0.85
-0.85
-0.845
-0.855
-0.87
-0.86
-0.865
-0.865
-0.87
-0.87
-0.865
-0.85
-0.84
-0.83
-0.83
-0.845
-0.865
-0.875
-0.875
-0.885
-0.87
-0.855
-0.84
-0.845
-0.835
-0.84
-0.835
-0.86
-0.86
-0.845
-0.855
-0.865
-0.885
-0.87
-0.83
-0.715
-0.55
-0.345
-0.095
0.175
0.48
0.805
1.12
1.4
1.61
1.725
1.745
1.685
1.51
1.23
0.8
0.25
-0.31
-0.735
-0.99
-1.055
-1.005
-0.92
-0.825
-0.775
-0.75
-0.77
-0.79
-0.82
-0.85
-0.865
-0.86
-0.865
-0.87
-0.88
-0.885
-0.89
-0.88
-0.895
-0.895
