Lead II
-0.52
-0.5
-0.5
-0.49
-0.485
-0.495
-0.47
-0.44
-0.435
-0.405
-0.385
-0.375
-0.36
-0.345
-0.33
-0.33
-0.315
-0.305
-0.28
-0.245
-0.225
-0.205
-0.2
-0.19
-0.195
-0.185
-0.19
-0.2
-0.205
-0.19
-0.155
-0.135
-0.145
-0.135
-0.115
-0.105
-0.11
-0.115
-0.13
-0.135
-0.145
-0.145
-0.15
-0.16
-0.18
-0.185
-0.215
-0.23
-0.265
-0.29
-0.33
-0.375
-0.4
-0.44
-0.435
-0.46
-0.48
-0.48
-0.515
-0.55
-0.565
-0.585
-0.605
-0.625
-0.645
-0.65
-0.655
-0.655
-0.64
-0.64
-0.655
-0.665
-0.67
-0.67
-0.7
-0.695
-0.705
-0.7
-0.715
-0.715
-0.68
-0.68
-0.675
-0.67
-0.69
-0.685
-0.69
-0.705
-0.72
-0.71
-0.69
-0.705
-0.71
-0.68
-0.675
-0.68
-0.69
-0.7
-0.695
-0.705
-0.7
-0.695
-0.7
-0.675
-0.69
-0.675
-0.68
-0.675
-0.67
-0.68
-0.685
-0.7
-0.7
-0.705
-0.7
-0.685
-0.67
-0.67
-0.67
-0.665
-0.69
-0.69
-0.705
-0.705
-0.71
-0.725
-0.715
-0.71
-0.72
-0.705
-0.695
-0.7
-0.71
-0.73
-0.75
-0.75
-0.76
-0.755
-0.75
-0.74
-0.74
-0.73
-0.735
-0.735
-0.745
-0.755
-0.76
-0.77
-0.78
-0.785
-0.77
-0.765
-0.77
-0.75
-0.76
-0.75
-0.765
-0.765
-0.77
-0.785
-0.765
-0.765
-0.77
-0.74
-0.745
-0.745
-0.755
-0.75
-0.75
-0.755
-0.76
-0.775
-0.77
-0.765
-0.77
-0.76
-0.765
-0.735
-0.74
-0.74
-0.74
-0.76
-0.775
-0.775
-0.78
-0.785
-0.78
-0.76
-0.77
-0.765
-0.745
-0.755
-0.75
-0.775
-0.765
-0.775
-0.775
-0.765
-0.77
-0.75
-0.76
-0.735
-0.74
-0.75
-0.735
-0.755
-0.77
-0.76
-0.77
-0.77
-0.765
-0.76
-0.745
-0.74
-0.74
-0.735
-0.745
-0.765
-0.765
-0.77
-0.77
-0.77
-0.78
-0.75
-0.74
-0.73
-0.72
-0.745
-0.74
-0.75
-0.755
-0.76
-0.765
-0.78
-0.77
-0.765
-0.755
-0.745
-0.735
-0.735
-0.745
-0.765
-0.755
-0.77
-0.775
-0.77
-0.765
-0.765
-0.745
-0.74
-0.74
-0.74
-0.75
-0.755
-0.755
-0.765
-0.775
-0.765
-0.755
-0.74
-0.735
-0.725
-0.725
-0.725
-0.725
-0.745
-0.74
-0.755
-0.77
-0.76
-0.75
-0.74
-0.725
-0.715
-0.72
-0.705
-0.695
-0.71
-0.695
-0.695
-0.685
-0.68
-0.67
-0.67
-0.65
-0.62
-0.615
-0.605
-0.595
-0.605
-0.615
-0.635
-0.65
-0.635
-0.645
-0.655
-0.66
-0.66
-0.665
-0.675
-0.695
-0.705
-0.735
-0.745
-0.76
-0.76
-0.765
-0.78
-0.765
-0.77
-0.77
-0.755
-0.755
-0.78
-0.8
-0.805
-0.82
-0.8
-0.795
-0.785
-0.785
-0.77
-0.775
-0.77
-0.78
-0.81
-0.795
-0.805
-0.8
-0.8
-0.795
-0.775
-0.77
-0.755
-0.765
-0.775
-0.765
-0.77
-0.73
-0.685
-0.595
-0.48
-0.34
-0.185
-0.04
0.075
0.14
0.1
0.005
-0.18
-0.41
-0.68
-0.945
-1.175
-1.315
-1.335
-1.275
-1.175
-1.06
-0.985
-0.915
-0.88
-0.85
-0.83
-0.805
-0.77
-0.75
-0.74
-0.74
-0.73
-0.735
-0.73
-0.73
-0.745
-0.755
-0.75
-0.755
-0.745
-0.73
-0.71
-0.71
-0.71
-0.695
-0.7
-0.695
-0.705
-0.71
-0.71
-0.715
-0.725
-0.72
-0.71
-0.69
-0.67
-0.675
-0.68
-0.68
-0.675
-0.685
-0.675
-0.685
-0.695
-0.67
-0.645
-0.65
-0.64
-0.635
-0.64
-0.64
-0.645
-0.65
-0.65
-0.645
-0.64
-0.635
-0.615
-0.61
-0.595
-0.6
-0.58
-0.575
-0.59
-0.585
-0.595
-0.595
-0.57
-0.56
-0.55
-0.535
-0.52
-0.5
-0.495
-0.495
-0.48
-0.47
-0.465
-0.47
-0.455
-0.43
-0.415
-0.39
-0.35
-0.35
-0.33
-0.32
-0.315
-0.315
-0.315
-0.31
-0.295
-0.26
-0.25
-0.235
-0.215
-0.21
-0.205
-0.205
-0.205
-0.21
-0.205
-0.215
-0.21
-0.21
-0.195
-0.19
-0.19
-0.21
-0.225
-0.235
-0.27
-0.325
-0.345
-0.375
-0.385
-0.415
-0.445
-0.45
-0.455
-0.47
-0.51
-0.54
-0.58
-0.605
-0.645
-0.65
-0.67
-0.68
-0.675
-0.69
-0.7
-0.715
-0.725
-0.73
-0.74
-0.74
-0.765
-0.77
-0.77
-0.76
-0.76
-0.75
-0.745
-0.755
-0.765
-0.775
-0.79
-0.765
-0.77
-0.77
-0.78
-0.775
-0.765
-0.76
-0.745
-0.745
-0.745
-0.75
-0.765
-0.765
-0.77
-0.765
-0.765
-0.765
-0.74
-0.745
-0.735
-0.725
-0.73
-0.72
-0.735
-0.75
-0.755
-0.75
-0.745
-0.745
-0.74
-0.73
-0.73
-0.73
-0.735
-0.74
-0.735
-0.765
-0.77
-0.775
-0.79
-0.785
-0.77
-0.765
-0.755
-0.76
-0.77
-0.79
-0.78
-0.785
-0.795
-0.81
-0.81
-0.805
-0.795
-0.795
-0.78
-0.775
-0.79
-0.79
-0.785
-0.8
-0.815
-0.82
-0.815
-0.8
-0.815
-0.805
-0.795
-0.785
-0.785
-0.8
-0.81
-0.82
-0.815
-0.84
-0.84
-0.82
-0.82
-0.815
-0.81
-0.8
-0.805
-0.805
-0.815
-0.82
-0.82
-0.845
-0.85
-0.845
-0.83
-0.815
-0.82
-0.81
-0.81
-0.82
-0.82
-0.83
-0.83
-0.84
-0.85
-0.83
-0.825
-0.825
-0.82
-0.805
-0.805
-0.81
-0.835
-0.82
-0.83
-0.85
-0.84
-0.84
-0.83
-0.825
-0.81
-0.83
-0.815
-0.82
-0.825
-0.83
-0.86
-0.85
-0.85
-0.84
-0.835
-0.83
-0.82
-0.825
-0.815
-0.82
-0.835
-0.84
-0.835
-0.86
-0.85
-0.835
-0.82
-0.835
-0.805
-0.81
-0.81
-0.815
-0.83
-0.84
-0.835
-0.845
-0.86
-0.855
-0.83
-0.835
-0.805
-0.8
-0.8
-0.8
-0.805
-0.82
-0.83
-0.835
-0.855
-0.835
-0.81
-0.79
-0.78
-0.8
-0.8
-0.81
-0.825
-0.815
-0.84
-0.85
-0.825
-0.825
-0.815
-0.815
-0.805
-0.8
-0.805
-0.805
-0.815
-0.815
-0.835
-0.84
-0.845
-0.84
-0.825
-0.81
-0.805
-0.81
-0.82
-0.82
-0.825
-0.82
-0.835
-0.845
-0.845
-0.855
-0.84
-0.84
-0.82
-0.805
-0.795
-0.8
-0.81
-0.805
-0.82
-0.825
-0.815
-0.8
-0.78
-0.76
-0.74
-0.735
-0.73
-0.715
-0.725
-0.735
-0.745
-0.725
-0.7
-0.685
-0.66
-0.665
-0.65
-0.645
-0.65
-0.665
-0.695
-0.71
-0.71
-0.735
-0.735
-0.73
-0.75
-0.77
-0.745
-0.75
-0.755
-0.785
-0.79
-0.81
-0.82
-0.82
-0.82
-0.83
-0.82
-0.815
-0.8
-0.81
-0.82
-0.825
-0.82
-0.825
-0.83
-0.84
-0.83
-0.83
-0.825
-0.815
-0.805
-0.81
-0.805
-0.825
-0.82
-0.825
-0.825
-0.835
-0.83
-0.83
-0.81
-0.79
-0.735
-0.675
-0.58
-0.46
-0.34
-0.225
-0.105
-0.02
0.025
0.015
-0.1
-0.26
-0.455
-0.705
-0.955
-1.17
-1.285
-1.325
-1.29
-1.19
-1.105
-1.025
-0.95
-0.9
-0.865
-0.83
-0.8
-0.78
-0.78
-0.785
-0.79
-0.805
-0.81
-0.795
-0.79
-0.775
-0.765
-0.765
-0.765
-0.78
-0.765
-0.765
-0.775
-0.775
-0.77
-0.77
-0.76
-0.74
-0.735
-0.735
-0.73
-0.735
-0.735
-0.755
-0.75
-0.75
-0.75
-0.735
-0.72
-0.705
-0.7
-0.7
-0.7
-0.69
-0.69
-0.705
-0.715
-0.725
-0.735
-0.735
-0.71
-0.7
-0.68
-0.66
-0.665
-0.665
-0.675
-0.655
-0.655
-0.65
-0.66
-0.645
-0.645
-0.635
-0.61
-0.605
-0.595
-0.575
-0.58
-0.58
-0.565
-0.58
-0.565
-0.53
-0.51
-0.5
-0.48
-0.47
-0.455
-0.445
-0.41
-0.41
-0.395
-0.395
-0.38
-0.36
-0.36
-0.325
-0.305
-0.275
-0.27
-0.26
-0.275
-0.265
-0.275
-0.275
-0.27
-0.255
-0.23
-0.235
-0.215
-0.21
-0.225
-0.23
-0.26
-0.275
-0.29
-0.31
-0.325
-0.335
-0.34
-0.365
-0.36
-0.38
-0.405
-0.435
-0.475
-0.495
-0.525
-0.565
-0.59
-0.6
-0.6
-0.615
-0.63
-0.645
-0.655
-0.67
-0.695
-0.705
-0.745
-0.735
-0.75
-0.745
-0.755
-0.765
-0.74
-0.735
-0.74
-0.745
-0.765
-0.765
-0.775
-0.77
-0.785
-0.78
-0.775
-0.78
-0.76
-0.755
-0.77
-0.77
-0.77
-0.775
-0.79
-0.79
-0.79
-0.785
-0.78
-0.765
-0.75
-0.76
-0.75
-0.75
-0.765
-0.78
-0.78
-0.78
-0.785
-0.785
-0.775
-0.76
-0.75
-0.745
-0.745
-0.735
-0.745
-0.755
-0.765
-0.795
-0.795
-0.77
-0.765
-0.75
-0.755
-0.755
-0.755
-0.775
-0.785
-0.795
-0.8
-0.815
-0.81
-0.795
-0.795
-0.795
-0.795
-0.805
-0.785
-0.8
-0.795
-0.81
-0.835
-0.835
-0.83
-0.84
-0.825
-0.825
-0.81
-0.8
-0.805
-0.82
-0.81
-0.815
-0.83
-0.845
-0.825
-0.825
-0.815
-0.805
-0.795
-0.825
-0.805
-0.81
-0.815
-0.83
-0.84
-0.84
-0.835
-0.825
-0.82
-0.82
-0.815
-0.815
-0.825
-0.82
-0.805
-0.815
-0.82
-0.825
-0.83
-0.835
-0.815
-0.81
-0.8
-0.8
-0.8
-0.805
-0.835
-0.84
-0.83
-0.825
-0.825
-0.82
-0.82
-0.82
-0.815
-0.785
-0.785
-0.81
-0.815
-0.81
-0.825
-0.835
-0.83
-0.83
-0.815
-0.815
-0.82
-0.805
-0.81
-0.8
-0.81
-0.815
-0.825
-0.835
-0.835
-0.815
-0.81
-0.815
-0.8
-0.79
-0.805
-0.81
-0.81
-0.81
-0.815
-0.82
-0.82
-0.815
-0.81
-0.8
-0.795
-0.79
-0.795
-0.815
-0.815
-0.815
-0.81
-0.815
-0.825
-0.82
-0.825
-0.815
-0.81
-0.78
-0.79
-0.795
-0.81
-0.81
-0.82
-0.825
-0.83
-0.805
-0.8
-0.8
-0.785
-0.805
-0.785
-0.79
-0.8
-0.805
-0.815
-0.805
-0.82
-0.81
-0.8
-0.8
-0.795
-0.785
-0.78
-0.785
-0.805
-0.81
-0.83
-0.83
-0.825
-0.83
-0.82
-0.8
-0.775
-0.76
-0.765
-0.76
-0.755
-0.75
-0.77
-0.765
-0.76
-0.73
-0.72
-0.695
-0.675
-0.65
-0.655
-0.645
-0.65
-0.665
-0.67
-0.7
-0.71
-0.705
-0.71
-0.7
-0.71
-0.705
-0.735
-0.745
-0.775
-0.785
-0.795
-0.81
-0.82
-0.825
-0.81
-0.81
-0.805
-0.785
-0.795
-0.805
-0.815
-0.835
-0.835
-0.86
-0.855
-0.85
-0.835
-0.82
-0.82
-0.815
-0.805
-0.815
-0.82
-0.84
-0.835
-0.84
-0.83
-0.825
-0.815
-0.815
-0.8
-0.775
-0.73
-0.68
-0.605
-0.51
-0.41
-0.315
-0.205
-0.125
-0.085
-0.125
-0.21
-0.36
-0.565
-0.77
-1.0
-1.205
-1.355
-1.405
-1.375
-1.265
-1.18
-1.085
-1.005
-0.965
-0.93
-0.895
-0.845
-0.82
-0.81
-0.805
-0.8
-0.795
-0.795
-0.785
-0.785
-0.77
-0.77
-0.76
-0.755
-0.755
-0.765
-0.76
-0.765
-0.76
-0.755
-0.75
-0.735
-0.72
-0.725
-0.735
-0.74
-0.725
-0.735
-0.74
-0.74
-0.74
-0.72
-0.715
-0.705
-0.695
-0.685
-0.705
-0.69
-0.725
-0.725
-0.725
-0.725
-0.715
-0.69
-0.685
-0.68
-0.655
-0.665
-0.655
-0.655
-0.67
-0.665
-0.665
-0.665
-0.66
-0.635
-0.615
-0.6
-0.585
-0.595
-0.585
-0.575
-0.58
-0.575
-0.585
-0.565
-0.555
-0.53
-0.505
-0.49
-0.46
-0.455
-0.445
-0.455
-0.425
-0.425
-0.425
-0.395
-0.39
-0.38
-0.355
-0.345
-0.31
-0.31
-0.31
-0.305
-0.29
-0.3
-0.3
-0.3
-0.28
-0.275
-0.27
-0.245
-0.245
-0.245
-0.265
-0.285
-0.3
-0.32
-0.35
-0.355
-0.365
-0.365
-0.38
-0.415
-0.425
-0.455
-0.465
-0.49
-0.53
-0.56
-0.585
-0.61
-0.625
-0.635
-0.665
-0.66
-0.655
-0.675
-0.69
-0.71
-0.735
-0.755
-0.78
-0.79
-0.785
-0.785
-0.79
-0.785
-0.79
-0.795
-0.795
-0.81
-0.81
-0.825
-0.85
-0.84
-0.84
-0.83
-0.835
-0.825
-0.83
-0.825
-0.825
-0.83
-0.835
-0.855
-0.87
-0.865
-0.85
-0.84
-0.84
-0.815
-0.805
-0.815
-0.825
-0.815
-0.83
-0.84
-0.85
-0.855
-0.845
-0.83
-0.815
-0.83
-0.81
-0.815
-0.81
-0.82
-0.845
-0.86
-0.835
-0.845
-0.845
-0.83
-0.83
-0.84
-0.845
-0.845
-0.845
-0.845
-0.85
-0.875
-0.87
-0.88
-0.885
-0.885
-0.89
-0.875
-0.87
-0.87
-0.87
-0.88
-0.89
-0.885
-0.91
-0.91
-0.915
-0.9
-0.885
-0.885
-0.88
-0.87
-0.885
-0.9
-0.91
-0.915
-0.93
-0.935
-0.925
-0.92
-0.915
-0.9
-0.9
-0.895
-0.9
-0.925
-0.94
-0.95
-0.95
-0.945
-0.94
-0.945
-0.925
-0.9
-0.91
-0.905
-0.905
-0.91
-0.93
-0.945
-0.935
-0.95
-0.945
-0.935
-0.925
-0.94
-0.93
-0.925
-0.94
-0.925
-0.93
-0.955
-0.955
-0.955
-0.945
-0.945
-0.95
-0.915
-0.925
-0.93
-0.92
-0.93
-0.93
-0.95
-0.96
-0.955
-0.945
-0.935
-0.93
-0.92
-0.915
-0.92
-0.92
-0.945
-0.945
-0.955
-0.95
-0.95
-0.945
-0.94
-0.945
-0.94
-0.93
-0.93
-0.935
-0.945
-0.95
-0.96
-0.98
-0.96
-0.97
-0.96
-0.95
-0.94
-0.935
-0.94
-0.945
-0.94
-0.95
-0.96
-0.97
-0.975
-0.97
-0.97
-0.96
-0.965
-0.955
-0.94
-0.945
-0.96
-0.96
-0.965
-0.965
-0.96
-0.965
-0.96
-0.945
-0.945
-0.945
-0.935
-0.95
-0.96
-0.96
-0.98
-0.975
-0.98
-0.98
-0.965
-0.95
-0.94
-0.95
-0.945
-0.93
-0.935
-0.95
-0.955
-0.955
-0.945
-0.96
-0.965
-0.95
-0.955
-0.935
-0.94
-0.945
-0.945
-0.96
-0.96
-0.97
-0.96
-0.965
-0.96
-0.96
-0.94
-0.925
-0.915
-0.915
-0.91
-0.94
-0.925
-0.9
-0.895
-0.89
-0.895
-0.88
-0.865
-0.86
-0.83
-0.82
-0.815
-0.815
-0.8
-0.805
-0.805
-0.83
-0.815
-0.8
-0.815
-0.825
-0.82
-0.835
-0.86
-0.865
-0.89
-0.91
-0.915
-0.93
-0.93
-0.94
-0.905
-0.915
-0.92
-0.92
-0.935
-0.935
-0.94
-0.96
-0.97
-0.99
-0.985
-0.965
-0.96
-0.955
-0.955
-0.955
-0.965
-0.96
-0.965
-0.97
-0.965
-0.955
-0.945
-0.94
-0.94
-0.915
-0.925
-0.93
-0.925
-0.91
-0.855
-0.79
-0.7
-0.59
-0.47
-0.335
-0.185
-0.065
0.005
-0.005
-0.075
-0.23
-0.44
-0.68
-0.93
-1.16
-1.325
-1.405
-1.37
-1.295
-1.215
-1.125
-1.07
-1.025
-1.005
-0.95
-0.935
-0.93
-0.895
-0.89
-0.875
-0.88
-0.89
-0.885
-0.885
-0.9
-0.905
-0.89
-0.89
-0.89
-0.88
-0.865
-0.85
-0.84
-0.845
-0.84
-0.85
-0.845
-0.85
-0.87
-0.865
-0.855
-0.855
-0.84
-0.835
-0.83
-0.83
-0.83
-0.835
-0.83
-0.825
-0.835
-0.83
-0.82
-0.82
-0.805
-0.785
-0.77
-0.77
-0.78
-0.785
-0.785
-0.79
-0.8
-0.785
-0.785
-0.775
-0.76
-0.75
-0.735
-0.73
-0.74
-0.735
-0.74
-0.73
-0.725
-0.725
-0.705
-0.675
-0.665
-0.675
-0.65
-0.645
-0.615
-0.605
-0.61
-0.59
-0.59
-0.565
-0.555
-0.53
-0.525
-0.51
-0.48
-0.46
-0.45
-0.44
-0.445
-0.435
-0.44
-0.43
-0.395
-0.39
-0.39
-0.365
-0.36
-0.335
-0.335
-0.345
-0.35
-0.365
-0.37
-0.38
-0.385
-0.4
-0.4
-0.415
-0.44
-0.455
-0.485
-0.51
-0.545
-0.565
-0.595
-0.625
-0.655
-0.68
-0.69
-0.695
-0.72
-0.725
-0.745
-0.775
-0.8
-0.83
-0.83
-0.815
-0.83
-0.815
-0.84
-0.83
-0.815
-0.82
-0.835
-0.845
-0.845
-0.86
-0.885
-0.875
-0.87
-0.875
-0.865
-0.85
-0.845
-0.85
-0.855
-0.845
-0.87
-0.875
-0.875
-0.885
-0.89
-0.89
-0.87
-0.87
-0.865
-0.86
-0.85
-0.855
-0.86
-0.875
-0.88
-0.87
-0.88
-0.875
-0.86
-0.855
-0.845
-0.835
-0.825
-0.845
-0.85
-0.845
-0.865
-0.87
-0.87
-0.85
-0.845
-0.83
-0.85
-0.85
-0.855
-0.86
-0.865
-0.87
-0.9
-0.9
-0.895
-0.875
-0.875
-0.86
-0.855
-0.855
-0.87
-0.885
-0.89
-0.895
-0.905
-0.895
-0.9
-0.89
-0.875
-0.875
-0.855
-0.86
-0.875
-0.88
-0.885
-0.905
-0.915
-0.915
-0.91
-0.9
-0.9
-0.89
-0.885
-0.885
-0.905
-0.91
-0.905
-0.915
-0.905
-0.91
-0.9
-0.89
-0.885
-0.88
-0.885
-0.89
-0.88
-0.895
-0.89
-0.895
-0.895
-0.9
-0.9
-0.89
-0.88
-0.87
-0.88
-0.855
-0.87
-0.88
-0.89
-0.895
-0.91
-0.905
-0.9
-0.9
-0.88
-0.87
-0.87
-0.87
-0.885
-0.905
-0.895
-0.885
-0.89
-0.9
-0.905
-0.895
-0.895
-0.88
-0.865
-0.87
-0.86
-0.865
-0.895
-0.9
-0.9
-0.9
-0.91
-0.89
-0.875
-0.875
-0.855
-0.86
-0.86
-0.87
-0.86
-0.88
-0.89
-0.89
-0.885
-0.87
-0.865
-0.86
-0.855
-0.86
-0.865
-0.855
-0.885
-0.89
-0.895
-0.905
-0.915
-0.88
-0.87
-0.88
-0.85
-0.85
-0.87
-0.87
-0.875
-0.875
-0.875
-0.88
-0.86
-0.87
-0.855
-0.85
-0.855
-0.85
-0.84
-0.865
-0.855
-0.875
-0.875
-0.88
-0.875
-0.865
-0.855
-0.845
-0.84
-0.85
-0.85
-0.855
-0.86
-0.885
-0.86
-0.875
-0.87
-0.87
-0.85
-0.83
-0.82
-0.82
-0.82
-0.82
-0.835
-0.845
-0.845
-0.845
-0.845
-0.825
-0.805
-0.795
-0.775
-0.765
-0.785
-0.775
-0.8
-0.79
-0.775
-0.775
-0.755
-0.735
-0.705
-0.69
-0.66
-0.66
-0.655
-0.68
-0.695
-0.715
-0.735
-0.74
-0.74
-0.745
-0.75
-0.765
-0.765
-0.785
-0.81
-0.81
-0.815
-0.84
-0.83
-0.845
-0.85
-0.84
-0.84
-0.83
-0.82
-0.84
-0.86
-0.845
-0.85
-0.865
-0.85
-0.86
-0.885
-0.855
-0.835
-0.84
-0.825
-0.83
-0.815
-0.835
-0.83
-0.85
-0.85
-0.83
-0.835
-0.83
-0.81
-0.805
-0.74
-0.69
-0.62
-0.54
-0.47
-0.365
-0.275
-0.2
-0.165
-0.185
-0.275
-0.405
-0.565
-0.765
-0.96
-1.14
-1.31
-1.44
-1.465
-1.435
-1.38
-1.255
-1.175
-1.085
-1.06
-1.015
-0.975
-0.93
-0.89
-0.845
-0.825
-0.79
-0.79
-0.795
-0.79
-0.775
-0.775
-0.77
-0.78
-0.765
-0.77
-0.775
-0.77
-0.785
-0.775
-0.755
-0.735
-0.72
-0.71
-0.71
-0.705
-0.705
-0.735
-0.735
-0.73
-0.73
-0.735
-0.73
-0.705
-0.69
-0.675
-0.685
-0.68
-0.685
-0.685
-0.68
-0.715
-0.71
-0.71
-0.685
-0.67
-0.655
-0.645
-0.635
-0.635
-0.635
-0.645
-0.64
-0.63
-0.635
-0.62
-0.62
-0.61
-0.59
-0.565
-0.56
-0.545
-0.565
-0.55
-0.56
-0.545
-0.545
-0.53
-0.515
-0.485
-0.48
-0.46
-0.445
-0.44
-0.425
-0.42
-0.415
-0.39
-0.39
-0.37
-0.37
-0.345
-0.325
-0.3
-0.295
-0.29
-0.26
-0.26
-0.26
-0.255
-0.25
-0.255
-0.23
-0.23
-0.22
-0.215
-0.22
-0.22
-0.22
-0.25
-0.26
-0.275
-0.28
-0.3
-0.31
-0.315
-0.32
-0.335
-0.365
-0.41
-0.43
-0.45
-0.485
-0.53
-0.54
-0.545
-0.565
-0.57
-0.575
-0.6
-0.61
-0.635
-0.64
-0.65
-0.67
-0.695
-0.71
-0.7
-0.695
-0.695
-0.685
-0.68
-0.68
-0.7
-0.72
-0.71
-0.715
-0.73
-0.74
-0.74
-0.735
-0.725
-0.7
-0.71
-0.705
-0.71
-0.72
-0.74
-0.745
-0.76
-0.75
-0.75
-0.73
-0.72
-0.71
-0.71
-0.705
-0.71
-0.705
-0.715
-0.725
-0.72
-0.73
-0.725
-0.72
-0.705
-0.695
-0.67
-0.68
-0.69
-0.71
-0.715
-0.71
-0.72
-0.73
-0.725
-0.715
-0.725
-0.705
-0.695
-0.695
-0.71
-0.71
-0.72
-0.73
-0.715
-0.745
-0.745
-0.725
-0.735
-0.715
-0.72
-0.71
-0.73
-0.73
-0.725
-0.735
-0.75
-0.76
-0.78
-0.78
-0.78
-0.78
-0.76
-0.755
-0.755
-0.755
-0.78
-0.78
-0.78
-0.8
-0.795
-0.77
-0.765
-0.775
-0.745
-0.75
-0.735
-0.75
-0.755
-0.765
-0.775
-0.785
-0.785
-0.78
-0.765
-0.75
-0.75
-0.735
-0.745
-0.745
-0.76
-0.765
-0.765
-0.765
-0.79
-0.785
-0.785
-0.765
-0.745
-0.745
-0.75
-0.755
-0.76
-0.77
-0.77
-0.78
-0.775
-0.785
-0.79
-0.76
-0.745
-0.75
-0.755
-0.76
-0.76
-0.775
-0.785
-0.79
-0.78
-0.77
-0.78
-0.78
-0.75
-0.76
-0.75
-0.745
-0.765
-0.76
-0.78
-0.765
-0.77
-0.755
-0.75
-0.745
-0.74
-0.74
-0.74
-0.735
-0.75
-0.75
-0.76
-0.765
-0.765
-0.75
-0.755
-0.745
-0.735
-0.73
-0.735
-0.76
-0.76
-0.765
-0.765
-0.78
-0.79
-0.77
-0.76
-0.745
-0.74
-0.745
-0.765
-0.755
-0.765
-0.765
-0.765
-0.775
-0.765
-0.785
-0.765
-0.755
-0.75
-0.745
-0.755
-0.75
-0.775
-0.77
-0.77
-0.77
-0.765
-0.77
-0.76
-0.74
-0.75
-0.74
-0.735
-0.74
-0.75
-0.745
-0.755
-0.765
-0.775
-0.75
-0.73
-0.72
-0.72
-0.715
-0.725
-0.72
-0.745
-0.75
-0.755
-0.77
-0.765
-0.755
-0.73
-0.72
-0.725
-0.715
-0.715
-0.715
-0.735
-0.715
-0.725
-0.73
-0.725
-0.71
-0.69
-0.7
-0.655
-0.66
-0.665
-0.655
-0.655
-0.645
-0.65
-0.655
-0.63
-0.62
-0.605
-0.595
-0.57
-0.59
-0.605
-0.63
-0.635
-0.655
-0.655
-0.67
-0.68
-0.675
-0.68
-0.68
-0.68
-0.695
-0.695
-0.71
-0.735
-0.735
-0.775
-0.76
-0.755
-0.755
-0.74
-0.75
-0.755
-0.76
-0.76
-0.755
-0.76
-0.765
-0.78
-0.79
-0.78
-0.765
-0.765
-0.75
-0.745
-0.75
-0.74
-0.755
-0.76
-0.765
-0.77
-0.75
-0.7
-0.615
-0.51
-0.42
-0.28
-0.145
-0.01
0.11
0.185
0.21
0.15
0.025
-0.16
-0.365
-0.595
-0.82
-1.035
-1.165
-1.215
-1.175
-1.125
-1.005
-0.94
-0.885
-0.84
-0.805
-0.77
-0.74
-0.7
-0.68
-0.68
-0.695
-0.7
-0.715
-0.72
-0.745
-0.735
-0.71
-0.69
-0.685
-0.67
-0.67
-0.675
-0.67
-0.675
-0.695
-0.69
-0.7
-0.71
-0.675
-0.665
-0.66
-0.64
-0.64
-0.63
-0.65
-0.63
-0.65
-0.655
-0.65
-0.645
-0.64
-0.62
-0.61
-0.6
-0.62
-0.61
-0.605
-0.61
-0.615
-0.62
-0.62
-0.605
-0.605
-0.59
-0.595
-0.565
-0.565
-0.565
-0.555
-0.555
-0.56
-0.555
-0.57
-0.565
-0.55
-0.53
-0.515
-0.495
-0.49
-0.485
-0.475
-0.485
-0.475
-0.475
-0.455
-0.45
-0.44
-0.4
-0.39
-0.365
-0.35
-0.335
-0.32
-0.33
-0.32
-0.31
-0.3
-0.29
-0.275
-0.255
-0.245
-0.22
-0.205
-0.2
-0.195
-0.205
-0.2
-0.205
-0.22
-0.24
-0.225
-0.2
-0.195
-0.19
-0.205
-0.23
-0.245
-0.275
-0.305
-0.34
-0.37
-0.395
-0.405
-0.43
-0.44
-0.46
-0.49
-0.515
-0.53
-0.565
-0.575
-0.605
-0.635
-0.66
-0.65
-0.665
-0.66
-0.665
-0.65
-0.66
-0.665
-0.67
-0.695
-0.7
-0.705
-0.7
-0.705
-0.705
-0.705
-0.685
-0.69
-0.705
-0.72
-0.72
-0.715
-0.73
-0.72
-0.73
-0.725
-0.715
-0.7
-0.685
-0.685
-0.685
-0.71
-0.7
-0.72
-0.725
-0.74
-0.72
-0.71
-0.71
-0.7
-0.69
-0.675
-0.71
-0.71
-0.705
-0.715
-0.705
-0.715
-0.71
-0.71
-0.705
-0.7
-0.685
-0.695
-0.7
-0.695
-0.715
-0.72
-0.735
-0.75
-0.745
-0.735
-0.725
-0.73
-0.72
-0.71
-0.725
-0.725
-0.73
-0.745
-0.77
-0.76
-0.765
-0.755
-0.75
-0.75
-0.725
-0.73
-0.745
-0.74
-0.75
-0.77
-0.755
-0.77
-0.775
-0.775
-0.765
-0.745
-0.735
-0.745
-0.75
-0.745
-0.755
-0.765
-0.76
-0.795
-0.795
-0.785
-0.77
-0.785
-0.75
-0.76
-0.755
-0.765
-0.765
-0.775
-0.795
-0.79
-0.795
-0.775
-0.78
-0.76
-0.76
-0.755
-0.755
-0.76
-0.77
-0.78
-0.785
-0.8
-0.795
-0.775
-0.765
-0.76
-0.76
-0.75
-0.75
-0.765
-0.775
-0.77
-0.78
-0.79
-0.775
-0.79
-0.765
-0.77
-0.755
-0.75
-0.745
-0.765
-0.77
-0.78
-0.795
-0.8
-0.795
-0.805
-0.79
-0.785
-0.765
-0.765
-0.765
-0.77
-0.77
-0.785
-0.785
-0.805
-0.79
-0.78
-0.78
-0.775
-0.765
-0.77
-0.755
-0.75
-0.755
-0.765
-0.775
-0.79
-0.795
-0.8
-0.785
-0.77
-0.76
-0.755
-0.765
-0.75
-0.755
-0.77
-0.785
-0.79
-0.785
-0.785
-0.795
-0.76
-0.75
-0.76
-0.76
-0.77
-0.76
-0.775
-0.785
-0.78
-0.775
-0.77
-0.755
-0.745
-0.745
-0.75
-0.735
-0.745
-0.775
-0.765
-0.775
-0.795
-0.78
-0.77
-0.765
-0.785
-0.745
-0.745
-0.755
-0.75
-0.765
-0.78
-0.795
-0.8
-0.79
-0.79
-0.785
-0.77
-0.745
-0.735
-0.73
-0.75
-0.745
-0.755
-0.745
-0.765
-0.765
-0.745
-0.73
-0.72
-0.69
-0.705
-0.685
-0.675
-0.675
-0.68
-0.665
-0.665
-0.635
-0.635
-0.6
-0.605
-0.575
-0.58
-0.585
-0.615
-0.625
-0.645
-0.65
-0.655
-0.665
-0.67
-0.69
-0.7
-0.715
-0.73
-0.74
-0.735
-0.76
-0.765
-0.775
-0.765
-0.775
-0.78
-0.785
-0.77
-0.775
-0.765
-0.765
-0.765
-0.765
-0.77
-0.775
-0.79
-0.79
-0.785
-0.775
-0.78
-0.76
-0.755
-0.745
-0.75
-0.755
-0.755
-0.77
-0.765
-0.76
-0.73
-0.68
-0.62
-0.53
-0.43
-0.345
-0.25
-0.155
-0.1
-0.12
-0.19
-0.305
-0.445
-0.625
-0.83
-1.005
-1.17
-1.285
-1.35
-1.32
-1.245
-1.16
-1.095
-1.02
-0.965
-0.93
-0.87
-0.82
-0.79
-0.755
-0.73
-0.73
-0.715
-0.75
-0.75
-0.755
-0.75
-0.735
-0.73
-0.695
-0.7
-0.685
-0.7
-0.7
-0.69
-0.695
-0.68
-0.705
-0.685
-0.68
-0.675
-0.645
-0.65
-0.64
-0.655
-0.65
-0.655
-0.68
-0.665
-0.67
-0.645
-0.63
-0.615
-0.605
-0.605
-0.6
-0.62
-0.62
-0.625
-0.635
-0.63
-0.645
-0.625
-0.61
-0.59
-0.585
-0.575
-0.585
-0.575
-0.585
-0.585
-0.58
-0.585
-0.58
-0.555
-0.525
-0.51
-0.49
-0.485
-0.485
-0.475
-0.475
-0.435
-0.45
-0.435
-0.43
-0.405
-0.38
-0.375
-0.355
-0.34
-0.32
-0.31
-0.3
-0.285
-0.27
-0.26
-0.255
-0.235
-0.205
-0.185
-0.16
-0.155
-0.145
-0.135
-0.135
-0.145
-0.14
-0.145
-0.14
-0.145
-0.145
-0.14
-0.13
-0.135
-0.135
-0.165
-0.19
-0.21
-0.255
-0.295
-0.33
-0.355
-0.375
-0.39
-0.395
-0.415
-0.445
-0.485
-0.495
-0.535
-0.555
-0.575
-0.595
-0.6
-0.595
-0.6
-0.615
-0.61
-0.64
-0.65
-0.67
-0.67
-0.69
-0.69
-0.69
-0.685
-0.68
-0.67
-0.665
-0.67
-0.67
-0.67
-0.69
-0.705
-0.69
-0.705
-0.7
-0.705
-0.69
-0.685
-0.675
-0.67
-0.665
-0.68
-0.7
-0.715
-0.715
-0.7
-0.715
-0.72
-0.715
-0.69
-0.67
-0.68
-0.68
-0.695
-0.72
-0.715
-0.72
-0.725
-0.73
-0.72
-0.7
-0.705
-0.695
-0.675
-0.685
-0.68
-0.7
-0.71
-0.72
-0.745
-0.74
-0.73
-0.725
-0.72
-0.715
-0.73
-0.74
-0.74
-0.74
-0.75
-0.75
-0.76
-0.765
-0.755
-0.76
-0.74
-0.73
-0.73
-0.735
-0.73
-0.74
-0.77
-0.77
-0.76
-0.77
-0.765
-0.775
-0.77
-0.775
-0.75
-0.755
-0.76
-0.775
-0.78
-0.78
-0.785
-0.795
-0.78
-0.775
-0.785
-0.765
-0.77
-0.765
-0.755
-0.795
-0.795
-0.805
-0.795
-0.78
-0.785
-0.775
-0.775
-0.76
-0.755
-0.765
-0.765
-0.78
-0.8
-0.8
-0.805
-0.805
-0.8
-0.77
-0.765
-0.75
-0.755
-0.75
-0.775
-0.785
-0.795
-0.805
-0.81
-0.8
-0.8
-0.795
-0.78
-0.78
-0.77
-0.775
-0.78
-0.78
-0.81
-0.82
-0.82
-0.83
-0.81
-0.8
-0.79
-0.78
-0.76
-0.775
-0.77
-0.78
-0.785
-0.785
-0.785
-0.795
-0.79
-0.79
-0.785
-0.765
-0.76
-0.77
-0.79
-0.775
-0.795
-0.78
-0.8
-0.795
-0.79
-0.795
-0.795
-0.78
-0.79
-0.78
-0.775
-0.795
-0.795
-0.79
-0.8
-0.805
-0.8
-0.795
-0.79
-0.76
-0.77
-0.785
-0.795
-0.795
-0.79
-0.805
-0.805
-0.8
-0.8
-0.79
-0.78
-0.775
-0.775
-0.775
-0.775
-0.79
-0.79
-0.8
-0.8
-0.795
-0.8
-0.795
-0.79
-0.79
-0.78
-0.79
-0.775
-0.785
-0.78
-0.79
-0.815
-0.8
-0.785
-0.785
-0.775
-0.775
-0.76
-0.77
-0.76
-0.765
-0.75
-0.74
-0.74
-0.745
-0.73
-0.72
-0.685
-0.68
-0.665
-0.68
-0.67
-0.67
-0.66
-0.665
-0.67
-0.655
-0.64
-0.63
-0.63
-0.64
-0.65
-0.67
-0.665
-0.685
-0.69
-0.7
-0.715
-0.72
-0.725
-0.755
-0.735
-0.75
-0.745
-0.755
-0.77
-0.785
-0.795
-0.815
-0.815
-0.8
-0.805
-0.815
-0.825
-0.82
-0.795
-0.81
-0.8
-0.8
-0.815
-0.825
-0.825
-0.825
-0.815
-0.805
-0.8
-0.795
-0.775
-0.795
-0.775
-0.795
-0.795
-0.81
-0.8
-0.785
-0.72
-0.63
-0.525
-0.39
-0.25
-0.115
-0.005
0.09
0.13
0.08
-0.035
-0.23
-0.435
-0.685
-0.91
-1.12
-1.26
-1.325
-1.29
-1.205
-1.1
-1.05
-0.965
-0.95
-0.9
-0.86
-0.835
-0.79
-0.775
-0.76
-0.75
-0.75
-0.77
-0.775
-0.77
-0.78
-0.79
-0.775
-0.76
-0.735
-0.74
-0.73
-0.72
-0.73
-0.725
-0.76
-0.76
-0.76
-0.735
-0.725
-0.72
-0.7
-0.71
-0.695
-0.705
-0.72
-0.705
-0.72
-0.725
-0.71
-0.705
-0.7
-0.685
-0.67
-0.67
-0.66
-0.665
-0.675
-0.66
-0.67
-0.67
-0.665
-0.66
-0.64
-0.625
-0.62
-0.605
-0.605
-0.615
-0.625
-0.62
-0.6
-0.61
-0.59
-0.59
-0.57
-0.56
-0.545
-0.525
-0.525
-0.515
-0.515
-0.51
-0.51
-0.495
-0.485
-0.46
-0.455
-0.44
-0.42
-0.39
-0.37
-0.36
-0.36
-0.37
-0.365
-0.35
-0.325
-0.315
-0.305
-0.285
-0.265
-0.24
-0.24
-0.245
-0.25
-0.25
-0.25
-0.255
-0.255
-0.27
-0.25
-0.25
-0.25
-0.24
-0.26
-0.275
-0.3
-0.325
-0.355
-0.385
-0.405
-0.43
-0.455
-0.465
-0.475
-0.51
-0.53
-0.56
-0.58
-0.62
-0.63
-0.655
-0.685
-0.685
-0.69
-0.7
-0.7
-0.705
-0.715
-0.735
-0.735
-0.74
-0.745
-0.755
-0.775
-0.77
-0.765
-0.76
-0.765
-0.765
-0.76
-0.775
-0.78
-0.785
-0.79
-0.795
-0.79
-0.79
-0.79
-0.78
-0.785
-0.76
-0.77
-0.765
-0.77
-0.775
-0.79
-0.805
-0.81
-0.795
-0.79
-0.79
-0.765
-0.755
-0.765
-0.775
-0.77
-0.77
-0.765
-0.78
-0.775
-0.775
-0.76
-0.745
-0.75
-0.755
-0.75
-0.765
-0.76
-0.765
-0.785
-0.785
-0.78
-0.78
-0.785
-0.79
-0.765
-0.765
-0.785
-0.78
-0.795
-0.8
-0.805
-0.82
-0.82
-0.825
-0.815
-0.79
-0.8
-0.8
-0.805
-0.785
-0.815
-0.82
-0.82
-0.83
-0.835
-0.845
-0.845
-0.84
-0.825
-0.815
