Lead II
-0.295
-0.295
-0.305
-0.325
-0.335
-0.355
-0.37
-0.37
-0.38
-0.385
-0.385
-0.375
-0.37
-0.375
-0.365
-0.385
-0.405
-0.435
-0.435
-0.445
-0.46
-0.46
-0.45
-0.445
-0.44
-0.425
-0.425
-0.425
-0.43
-0.43
-0.435
-0.44
-0.455
-0.445
-0.43
-0.43
-0.415
-0.415
-0.435
-0.455
-0.48
-0.495
-0.475
-0.41
-0.32
-0.17
0.015
0.21
0.425
0.62
0.75
0.755
0.615
0.375
0.085
-0.19
-0.38
-0.45
-0.445
-0.375
-0.31
-0.275
-0.26
-0.28
-0.31
-0.35
-0.375
-0.405
-0.415
-0.405
-0.405
-0.4
-0.4
-0.395
-0.395
-0.395
-0.4
-0.415
-0.415
-0.42
-0.43
-0.42
-0.41
-0.4
-0.4
-0.41
-0.4
-0.4
-0.405
-0.41
-0.41
-0.425
-0.41
-0.405
-0.405
-0.395
-0.375
-0.38
-0.38
-0.375
-0.375
-0.39
-0.385
-0.395
-0.395
-0.4
-0.385
-0.39
-0.38
-0.38
-0.38
-0.38
-0.385
-0.385
-0.385
-0.395
-0.385
-0.385
-0.375
-0.37
-0.36
-0.36
-0.36
-0.365
-0.37
-0.37
-0.385
-0.38
-0.385
-0.38
-0.375
-0.37
-0.36
-0.355
-0.35
-0.355
-0.36
-0.365
-0.37
-0.365
-0.375
-0.365
-0.355
-0.345
-0.325
-0.315
-0.305
-0.295
-0.29
-0.29
-0.29
-0.295
-0.295
-0.295
-0.275
-0.275
-0.27
-0.27
-0.275
-0.27
-0.295
-0.305
-0.32
-0.32
-0.33
-0.335
-0.34
-0.34
-0.34
-0.335
-0.34
-0.345
-0.355
-0.365
-0.365
-0.375
-0.385
-0.375
-0.37
-0.37
-0.37
-0.365
-0.365
-0.365
-0.375
-0.385
-0.38
-0.395
-0.395
-0.4
-0.39
-0.39
-0.385
-0.395
-0.385
-0.395
-0.385
-0.4
-0.41
-0.41
-0.41
-0.415
-0.41
-0.395
-0.395
-0.39
-0.395
-0.4
-0.41
-0.425
-0.415
-0.415
-0.42
-0.425
-0.415
-0.425
-0.405
-0.4
-0.405
-0.415
-0.42
-0.425
-0.435
-0.43
-0.425
-0.415
-0.41
-0.405
-0.385
-0.375
-0.37
-0.355
-0.36
-0.355
-0.36
-0.365
-0.36
-0.36
-0.345
-0.335
-0.32
-0.3
-0.295
-0.295
-0.305
-0.325
-0.355
-0.375
-0.38
-0.38
-0.375
-0.36
-0.37
-0.365
-0.365
-0.37
-0.38
-0.39
-0.405
-0.41
-0.42
-0.435
-0.44
-0.44
-0.435
-0.445
-0.44
-0.44
-0.44
-0.45
-0.45
-0.45
-0.455
-0.45
-0.445
-0.44
-0.435
-0.425
-0.425
-0.43
-0.435
-0.46
-0.485
-0.505
-0.505
-0.465
-0.38
-0.26
-0.105
0.08
0.29
0.49
0.655
0.74
0.68
0.51
0.245
-0.03
-0.265
-0.41
-0.45
-0.435
-0.38
-0.32
-0.305
-0.31
-0.315
-0.36
-0.365
-0.395
-0.405
-0.41
-0.4
-0.4
-0.4
-0.4
-0.41
-0.42
-0.435
-0.445
-0.445
-0.435
-0.43
-0.42
-0.415
-0.42
-0.405
-0.415
-0.42
-0.42
-0.425
-0.435
-0.44
-0.435
-0.425
-0.415
-0.41
-0.4
-0.4
-0.405
-0.4
-0.405
-0.415
-0.42
-0.425
-0.41
-0.405
-0.4
-0.4
-0.39
-0.39
-0.38
-0.395
-0.395
-0.4
-0.415
-0.405
-0.4
-0.4
-0.4
-0.405
-0.395
-0.385
-0.385
-0.39
-0.385
-0.39
-0.41
-0.405
-0.405
-0.405
-0.395
-0.385
-0.385
-0.38
-0.375
-0.39
-0.385
-0.395
-0.395
-0.4
-0.395
-0.375
-0.375
-0.37
-0.36
-0.355
-0.355
-0.35
-0.35
-0.35
-0.345
-0.34
-0.325
-0.315
-0.3
-0.29
-0.275
-0.28
-0.285
-0.285
-0.295
-0.305
-0.32
-0.325
-0.325
-0.335
-0.33
-0.335
-0.34
-0.355
-0.34
-0.355
-0.37
-0.375
-0.385
-0.395
-0.39
-0.39
-0.385
-0.385
-0.385
-0.385
-0.38
-0.395
-0.41
-0.425
-0.415
-0.42
-0.41
-0.42
-0.42
-0.4
-0.4
-0.405
-0.415
-0.415
-0.43
-0.44
-0.44
-0.44
-0.44
-0.425
-0.425
-0.42
-0.41
-0.405
-0.41
-0.415
-0.415
-0.435
-0.44
-0.45
-0.45
-0.445
-0.43
-0.43
-0.425
-0.42
-0.42
-0.425
-0.435
-0.44
-0.44
-0.44
-0.44
-0.415
-0.405
-0.395
-0.385
-0.38
-0.37
-0.38
-0.37
-0.39
-0.38
-0.38
-0.365
-0.36
-0.335
-0.335
-0.325
-0.33
-0.345
-0.36
-0.38
-0.395
-0.4
-0.41
-0.405
-0.4
-0.405
-0.4
-0.395
-0.4
-0.405
-0.42
-0.435
-0.45
-0.465
-0.475
-0.48
-0.475
-0.47
-0.46
-0.46
-0.46
-0.46
-0.47
-0.475
-0.48
-0.48
-0.485
-0.47
-0.465
-0.45
-0.45
-0.435
-0.445
-0.46
-0.49
-0.51
-0.51
-0.48
-0.415
-0.32
-0.19
-0.015
0.175
0.385
0.585
0.725
0.755
0.655
0.45
0.195
-0.065
-0.27
-0.405
-0.45
-0.415
-0.375
-0.345
-0.325
-0.335
-0.345
-0.37
-0.39
-0.42
-0.43
-0.43
-0.43
-0.435
-0.43
-0.43
-0.44
-0.445
-0.46
-0.455
-0.465
-0.455
-0.45
-0.435
-0.43
-0.425
-0.42
-0.42
-0.42
-0.42
-0.425
-0.445
-0.44
-0.435
-0.44
-0.43
-0.425
-0.41
-0.42
-0.42
-0.4
-0.415
-0.425
-0.425
-0.43
-0.43
-0.435
-0.435
-0.415
-0.41
-0.395
-0.39
-0.38
-0.395
-0.4
-0.405
-0.415
-0.42
-0.405
-0.41
-0.4
-0.39
-0.39
-0.385
-0.38
-0.395
-0.4
-0.4
-0.405
-0.41
-0.395
-0.385
-0.375
-0.37
-0.36
-0.36
-0.36
-0.365
-0.37
-0.375
-0.385
-0.385
-0.385
-0.375
-0.365
-0.34
-0.325
-0.315
-0.31
-0.32
-0.315
-0.315
-0.315
-0.31
-0.295
-0.29
-0.285
-0.265
-0.26
-0.265
-0.255
-0.265
-0.285
-0.29
-0.305
-0.315
-0.33
-0.335
-0.335
-0.335
-0.325
-0.335
-0.335
-0.335
-0.345
-0.355
-0.375
-0.375
-0.38
-0.37
-0.375
-0.375
-0.375
-0.375
-0.36
-0.37
-0.38
-0.385
-0.385
-0.395
-0.395
-0.4
-0.395
-0.395
-0.385
-0.385
-0.385
-0.38
-0.38
-0.395
-0.395
-0.41
-0.41
-0.4
-0.39
-0.4
-0.405
-0.385
-0.385
-0.395
-0.415
-0.425
-0.425
-0.425
-0.42
-0.4
-0.405
-0.405
-0.395
-0.405
-0.395
-0.41
-0.415
-0.425
-0.42
-0.42
-0.41
-0.4
-0.39
-0.365
-0.355
-0.34
-0.345
-0.345
-0.35
-0.36
-0.36
-0.355
-0.33
-0.32
-0.305
-0.3
-0.3
-0.31
-0.32
-0.335
-0.355
-0.355
-0.37
-0.37
-0.38
-0.38
-0.38
-0.375
-0.37
-0.375
-0.385
-0.39
-0.415
-0.435
-0.45
-0.455
-0.46
-0.45
-0.44
-0.435
-0.43
-0.43
-0.425
-0.425
-0.435
-0.44
-0.445
-0.45
-0.45
-0.435
-0.445
-0.44
-0.44
-0.465
-0.49
-0.5
-0.485
-0.445
-0.35
-0.22
-0.045
0.165
0.38
0.6
0.785
0.855
0.78
0.59
0.33
0.04
-0.185
-0.345
-0.42
-0.415
-0.375
-0.345
-0.315
-0.31
-0.315
-0.335
-0.36
-0.39
-0.415
-0.425
-0.43
-0.43
-0.42
-0.42
-0.41
-0.41
-0.415
-0.41
-0.415
-0.42
-0.425
-0.425
-0.425
-0.42
-0.415
-0.42
-0.415
-0.405
-0.405
-0.405
-0.405
-0.415
-0.425
-0.43
-0.43
-0.435
-0.42
-0.415
-0.4
-0.41
-0.405
-0.405
-0.405
-0.41
-0.41
-0.4
-0.41
-0.4
-0.405
-0.39
-0.38
-0.38
-0.375
-0.37
-0.385
-0.395
-0.395
-0.41
-0.415
-0.41
-0.415
-0.415
-0.41
-0.405
-0.39
-0.405
-0.4
-0.4
-0.405
-0.415
-0.41
-0.41
-0.41
-0.395
-0.385
-0.39
-0.385
-0.385
-0.39
-0.39
-0.39
-0.4
-0.395
-0.385
-0.37
-0.365
-0.35
-0.35
-0.34
-0.34
-0.33
-0.33
-0.325
-0.335
-0.335
-0.315
-0.31
-0.295
-0.305
-0.305
-0.3
-0.305
-0.32
-0.315
-0.325
-0.33
-0.35
-0.35
-0.34
-0.35
-0.34
-0.345
-0.345
-0.35
-0.37
-0.37
-0.385
-0.38
-0.375
-0.385
-0.37
-0.37
-0.365
-0.365
-0.37
-0.38
-0.4
-0.395
-0.405
-0.405
-0.41
-0.405
-0.395
-0.4
-0.385
-0.39
-0.385
-0.38
-0.39
-0.4
-0.395
-0.405
-0.415
-0.41
-0.405
-0.405
-0.395
-0.4
-0.41
-0.415
-0.415
-0.425
-0.42
-0.43
-0.435
-0.435
-0.435
-0.42
-0.42
-0.42
-0.415
-0.42
-0.425
-0.435
-0.445
-0.455
-0.435
-0.43
-0.415
-0.4
-0.39
-0.38
-0.365
-0.37
-0.38
-0.39
-0.39
-0.385
-0.4
-0.37
-0.345
-0.335
-0.32
-0.32
-0.34
-0.35
-0.365
-0.385
-0.39
-0.4
-0.395
-0.39
-0.395
-0.395
-0.395
-0.39
-0.4
-0.415
-0.445
-0.45
-0.455
-0.465
-0.47
-0.475
-0.465
-0.455
-0.435
-0.445
-0.43
-0.44
-0.45
-0.46
-0.46
-0.465
-0.475
-0.46
-0.47
-0.465
-0.48
-0.5
-0.505
-0.485
-0.445
-0.365
-0.235
-0.075
0.125
0.355
0.565
0.715
0.79
0.725
0.53
0.25
-0.035
-0.28
-0.425
-0.49
-0.48
-0.42
-0.38
-0.355
-0.335
-0.34
-0.345
-0.365
-0.39
-0.405
-0.425
-0.445
-0.44
-0.435
-0.42
-0.42
-0.415
-0.42
-0.415
-0.42
-0.42
-0.44
-0.435
-0.44
-0.435
-0.435
-0.435
-0.415
-0.405
-0.405
-0.405
-0.405
-0.405
-0.425
-0.425
-0.42
-0.42
-0.41
-0.41
-0.4
-0.39
-0.39
-0.385
-0.39
-0.395
-0.405
-0.41
-0.415
-0.4
-0.4
-0.4
-0.385
-0.38
-0.38
-0.375
-0.38
-0.38
-0.395
-0.395
-0.4
-0.4
-0.4
-0.4
-0.39
-0.39
-0.395
-0.385
-0.39
-0.395
-0.41
-0.4
-0.41
-0.41
-0.4
-0.4
-0.385
-0.38
-0.365
-0.37
-0.375
-0.385
-0.375
-0.38
-0.375
-0.38
-0.375
-0.355
-0.34
-0.34
-0.325
-0.315
-0.31
-0.315
-0.32
-0.32
-0.315
-0.31
-0.305
-0.3
-0.295
-0.285
-0.28
-0.29
-0.29
-0.3
-0.315
-0.325
-0.34
-0.34
-0.335
-0.34
-0.335
-0.33
-0.33
-0.345
-0.345
-0.36
-0.365
-0.375
-0.38
-0.385
-0.38
-0.38
-0.38
-0.36
-0.365
-0.37
-0.38
-0.385
-0.38
-0.385
-0.395
-0.4
-0.39
-0.38
-0.385
-0.37
-0.375
-0.375
-0.38
-0.39
-0.395
-0.395
-0.4
-0.4
-0.4
-0.395
-0.39
-0.375
-0.38
-0.37
-0.38
-0.385
-0.39
-0.4
-0.405
-0.41
-0.41
-0.395
-0.395
-0.375
-0.38
-0.385
-0.385
-0.395
-0.395
-0.4
-0.405
-0.385
-0.385
-0.37
-0.355
-0.34
-0.335
-0.33
-0.325
-0.345
-0.34
-0.34
-0.35
-0.345
-0.32
-0.305
-0.295
-0.285
-0.295
-0.295
-0.32
-0.35
-0.36
-0.37
-0.365
-0.37
-0.37
-0.37
-0.37
-0.355
-0.365
-0.375
-0.38
-0.385
-0.405
-0.43
-0.44
-0.45
-0.44
-0.435
-0.435
-0.42
-0.42
-0.415
-0.42
-0.415
-0.425
-0.43
-0.43
-0.43
-0.43
-0.42
-0.42
-0.41
-0.415
-0.43
-0.46
-0.48
-0.47
-0.43
-0.36
-0.245
-0.095
0.075
0.285
0.485
0.66
0.77
0.745
0.585
0.345
0.07
-0.18
-0.36
-0.43
-0.41
-0.36
-0.3
-0.275
-0.255
-0.27
-0.305
-0.335
-0.365
-0.39
-0.405
-0.405
-0.4
-0.385
-0.39
-0.385
-0.39
-0.39
-0.405
-0.405
-0.41
-0.41
-0.41
-0.405
-0.4
-0.39
-0.39
-0.39
-0.39
-0.385
-0.395
-0.395
-0.4
-0.395
-0.4
-0.39
-0.39
-0.38
-0.37
-0.365
-0.36
-0.365
-0.37
-0.38
-0.38
-0.385
-0.385
-0.385
-0.375
-0.37
-0.355
-0.35
-0.355
-0.355
-0.36
-0.36
-0.37
-0.37
-0.385
-0.37
-0.365
-0.36
-0.355
-0.36
-0.35
-0.35
-0.36
-0.37
-0.38
-0.37
-0.375
-0.36
-0.355
-0.355
-0.345
-0.345
-0.345
-0.34
-0.35
-0.35
-0.35
-0.355
-0.36
-0.345
-0.335
-0.325
-0.315
-0.305
-0.285
-0.29
-0.285
-0.285
-0.29
-0.29
-0.295
-0.28
-0.275
-0.26
-0.26
-0.255
-0.26
-0.26
-0.27
-0.28
-0.29
-0.305
-0.31
-0.305
-0.31
-0.31
-0.31
-0.32
-0.32
-0.32
-0.335
-0.345
-0.365
-0.365
-0.37
-0.36
-0.365
-0.36
-0.35
-0.355
-0.35
-0.365
-0.365
-0.37
-0.38
-0.385
-0.39
-0.39
-0.37
-0.37
-0.365
-0.365
-0.365
-0.365
-0.365
-0.39
-0.395
-0.395
-0.395
-0.39
-0.395
-0.395
-0.39
-0.39
-0.38
-0.385
-0.395
-0.4
-0.41
-0.425
-0.42
-0.425
-0.41
-0.41
-0.4
-0.4
-0.395
-0.405
-0.41
-0.415
-0.415
-0.43
-0.425
-0.43
-0.415
-0.415
-0.415
-0.41
-0.405
-0.4
-0.41
-0.395
-0.39
-0.395
-0.38
-0.375
-0.36
-0.365
-0.35
-0.345
-0.34
-0.34
-0.33
-0.325
-0.32
-0.315
-0.33
-0.33
-0.33
-0.345
-0.36
-0.365
-0.36
-0.365
-0.38
-0.385
-0.39
-0.4
-0.405
-0.405
-0.39
-0.405
-0.42
-0.43
-0.44
-0.44
-0.45
-0.465
-0.46
-0.455
-0.46
-0.44
-0.435
-0.435
-0.435
-0.43
-0.435
-0.435
-0.445
-0.445
-0.45
-0.455
-0.46
-0.455
-0.465
-0.475
-0.485
-0.485
-0.46
-0.4
-0.32
-0.21
-0.07
0.115
0.305
0.485
0.645
0.73
0.68
0.525
0.29
0.01
-0.225
-0.39
-0.45
-0.445
-0.405
-0.34
-0.305
-0.3
-0.305
-0.32
-0.35
-0.375
-0.4
-0.425
-0.44
-0.44
-0.445
-0.435
-0.42
-0.41
-0.415
-0.405
-0.4
-0.415
-0.41
-0.415
-0.425
-0.43
-0.43
-0.42
-0.415
-0.41
-0.405
-0.4
-0.39
-0.385
-0.395
-0.405
-0.41
-0.415
-0.405
-0.41
-0.395
-0.39
-0.385
-0.375
-0.38
-0.38
-0.385
-0.385
-0.39
-0.395
-0.39
-0.39
-0.395
-0.375
-0.375
-0.37
-0.365
-0.365
-0.38
-0.38
-0.39
-0.385
-0.385
-0.38
-0.38
-0.375
-0.37
-0.36
-0.36
-0.365
-0.37
-0.375
-0.37
-0.38
-0.385
-0.37
-0.375
-0.36
-0.365
-0.36
-0.35
-0.35
-0.35
-0.35
-0.36
-0.36
-0.35
-0.34
-0.335
-0.325
-0.31
-0.305
-0.3
-0.285
-0.285
-0.285
-0.29
-0.295
-0.3
-0.3
-0.295
-0.29
-0.285
-0.28
-0.285
-0.285
-0.29
-0.31
-0.31
-0.335
-0.34
-0.345
-0.345
-0.335
-0.345
-0.34
-0.345
-0.34
-0.35
-0.37
-0.375
-0.375
-0.395
-0.395
-0.375
-0.37
-0.365
-0.36
-0.365
-0.36
-0.37
-0.38
-0.385
-0.39
-0.39
-0.385
-0.39
-0.38
-0.38
-0.375
-0.37
-0.375
-0.38
-0.395
-0.4
-0.415
-0.41
-0.41
-0.42
-0.415
-0.415
-0.405
-0.405
-0.41
-0.41
-0.415
-0.41
-0.42
-0.425
-0.425
-0.42
-0.415
-0.4
-0.395
-0.385
-0.39
-0.395
-0.4
-0.4
-0.385
-0.385
-0.38
-0.36
-0.355
-0.345
-0.335
-0.335
-0.33
-0.33
-0.33
-0.31
-0.305
-0.3
-0.305
-0.31
-0.33
-0.34
-0.345
-0.35
-0.36
-0.36
-0.365
-0.37
-0.38
-0.385
-0.38
-0.385
-0.39
-0.39
-0.415
-0.415
-0.44
-0.435
-0.445
-0.445
-0.44
-0.44
-0.435
-0.43
-0.42
-0.42
-0.41
-0.415
-0.42
-0.43
-0.435
-0.44
-0.445
-0.46
-0.47
-0.485
-0.485
-0.465
-0.405
-0.315
-0.19
-0.045
0.14
0.345
0.555
0.73
0.815
0.775
0.605
0.365
0.095
-0.145
-0.31
-0.405
-0.415
-0.395
-0.355
-0.33
-0.325
-0.32
-0.325
-0.34
-0.35
-0.37
-0.38
-0.39
-0.405
-0.415
-0.42
-0.43
-0.43
-0.425
-0.42
-0.415
-0.41
-0.41
-0.41
-0.415
-0.415
-0.42
-0.425
-0.43
-0.43
-0.43
-0.42
-0.415
-0.395
-0.395
-0.395
-0.395
-0.41
-0.405
-0.415
-0.425
-0.42
-0.405
-0.4
-0.385
-0.385
-0.385
-0.395
-0.39
-0.405
-0.4
-0.4
-0.4
-0.39
-0.395
-0.395
-0.385
-0.39
-0.385
-0.39
-0.39
-0.39
-0.4
-0.39
-0.4
-0.395
-0.39
-0.38
-0.375
-0.365
-0.37
-0.375
-0.38
-0.385
-0.38
-0.39
-0.385
-0.39
-0.385
-0.375
-0.375
-0.38
-0.37
-0.365
-0.355
-0.355
-0.36
-0.355
-0.365
-0.345
-0.335
-0.32
-0.3
-0.3
-0.285
-0.285
-0.29
-0.285
-0.285
-0.295
-0.295
-0.29
-0.285
-0.29
-0.28
-0.28
-0.27
-0.29
-0.305
-0.315
-0.33
-0.335
-0.355
-0.365
-0.365
-0.365
-0.36
-0.355
-0.345
-0.34
-0.345
-0.365
-0.38
-0.38
-0.39
-0.395
-0.39
-0.38
-0.375
-0.365
-0.365
-0.365
-0.375
-0.39
-0.4
-0.41
-0.405
-0.405
-0.4
-0.395
-0.385
-0.38
-0.375
-0.38
-0.39
-0.395
-0.41
-0.405
-0.415
-0.405
-0.4
-0.4
-0.4
-0.395
-0.405
-0.415
-0.41
-0.425
-0.42
-0.43
-0.43
-0.435
-0.435
-0.415
-0.415
-0.405
-0.41
-0.4
-0.42
-0.425
-0.425
-0.43
-0.42
-0.41
-0.405
-0.395
-0.38
-0.37
-0.365
-0.355
-0.36
-0.37
-0.38
-0.365
-0.36
-0.335
-0.315
-0.31
-0.315
-0.325
-0.35
-0.37
-0.37
-0.385
-0.39
-0.385
-0.395
-0.39
-0.39
-0.385
-0.375
-0.385
-0.39
-0.41
-0.43
-0.46
-0.46
-0.47
-0.47
-0.465
-0.45
-0.435
-0.435
-0.425
-0.425
-0.43
-0.44
-0.445
-0.455
-0.455
-0.46
-0.455
-0.45
-0.46
-0.455
-0.475
-0.485
-0.48
-0.435
-0.365
-0.26
-0.105
0.09
0.31
0.54
0.75
0.875
0.84
0.675
0.4
0.095
-0.175
-0.365
-0.45
-0.455
-0.42
-0.37
-0.34
-0.325
-0.325
-0.335
-0.35
-0.375
-0.405
-0.415
-0.43
-0.425
-0.435
-0.445
-0.425
-0.42
-0.42
-0.415
-0.41
-0.41
-0.41
-0.425
-0.445
-0.445
-0.445
-0.435
-0.42
-0.41
-0.405
-0.395
-0.39
-0.405
-0.405
-0.41
-0.415
-0.425
-0.425
-0.425
-0.425
-0.415
-0.4
-0.395
-0.395
-0.39
-0.395
-0.4
-0.405
-0.415
-0.41
-0.4
-0.385
-0.39
-0.395
-0.395
-0.405
-0.41
-0.41
-0.41
-0.405
-0.405
-0.395
-0.395
-0.4
-0.39
-0.405
-0.4
-0.395
-0.395
-0.39
-0.39
-0.39
-0.395
-0.395
-0.39
-0.385
-0.38
-0.375
-0.37
-0.37
-0.365
-0.365
-0.36
-0.355
-0.35
-0.345
-0.33
-0.31
-0.305
-0.305
-0.285
-0.285
-0.29
-0.29
-0.295
-0.295
-0.31
-0.315
-0.31
-0.31
-0.315
-0.315
-0.305
-0.32
-0.33
-0.35
-0.35
-0.36
-0.375
-0.375
-0.375
-0.375
-0.38
-0.37
-0.37
-0.375
-0.38
-0.385
-0.41
-0.42
-0.415
-0.405
-0.41
-0.405
-0.395
-0.39
-0.39
-0.395
-0.4
-0.4
-0.42
-0.42
-0.43
-0.425
-0.43
-0.425
-0.425
-0.415
-0.415
-0.415
-0.42
-0.425
-0.425
-0.425
-0.43
-0.435
-0.43
-0.425
-0.425
-0.425
-0.42
-0.415
-0.42
-0.425
-0.44
-0.445
-0.46
-0.46
-0.445
-0.435
-0.425
-0.42
-0.42
-0.415
-0.405
-0.41
-0.405
-0.395
-0.395
-0.395
-0.39
-0.385
-0.38
-0.37
-0.36
-0.355
-0.355
-0.345
-0.34
-0.355
-0.37
-0.385
-0.395
-0.385
-0.385
-0.375
-0.38
-0.385
-0.4
-0.405
-0.405
-0.41
-0.43
-0.435
-0.44
-0.445
-0.455
-0.455
-0.45
-0.45
-0.46
-0.465
-0.47
-0.47
-0.48
-0.475
-0.465
-0.465
-0.455
-0.46
-0.45
-0.44
-0.435
-0.445
-0.455
-0.465
-0.485
-0.51
-0.53
-0.535
-0.485
-0.43
-0.325
-0.19
-0.02
0.16
0.36
0.555
0.705
0.765
0.705
0.52
0.26
-0.015
-0.25
-0.415
-0.475
-0.46
-0.42
-0.385
-0.35
-0.34
-0.355
-0.36
-0.375
-0.385
-0.395
-0.4
-0.42
-0.415
-0.42
-0.425
-0.435
-0.43
-0.43
-0.425
-0.425
-0.42
-0.42
-0.42
-0.42
-0.425
-0.435
-0.435
-0.445
-0.435
-0.425
-0.42
-0.415
-0.405
-0.405
-0.41
-0.4
-0.41
-0.42
-0.42
-0.415
-0.415
-0.41
-0.4
-0.385
-0.38
-0.385
-0.38
-0.38
-0.39
-0.4
-0.4
-0.41
-0.41
-0.395
-0.39
-0.38
-0.37
-0.375
-0.37
-0.375
-0.38
-0.38
-0.39
-0.395
-0.39
-0.39
-0.385
-0.375
-0.37
-0.355
-0.37
-0.375
-0.38
-0.385
-0.395
-0.4
-0.405
-0.4
-0.385
-0.385
-0.375
-0.365
-0.365
-0.365
-0.365
-0.375
-0.37
-0.355
-0.36
-0.345
-0.34
-0.315
-0.305
-0.305
-0.295
-0.3
-0.305
-0.305
-0.305
-0.305
-0.31
-0.3
-0.3
-0.295
-0.29
-0.29
-0.295
-0.305
-0.33
-0.34
-0.35
-0.35
-0.36
-0.355
-0.35
-0.35
-0.345
-0.35
-0.355
-0.35
-0.36
-0.37
-0.375
-0.39
-0.38
-0.38
-0.38
-0.38
-0.375
-0.375
-0.375
-0.375
-0.39
-0.395
-0.4
-0.41
-0.4
-0.4
-0.39
-0.385
-0.385
-0.385
-0.38
-0.39
-0.39
-0.405
-0.41
-0.415
-0.42
-0.415
-0.415
-0.41
-0.4
-0.405
-0.4
-0.41
-0.405
-0.415
-0.42
-0.42
-0.43
-0.415
-0.415
-0.405
-0.4
-0.41
-0.4
-0.41
-0.415
-0.42
-0.425
-0.415
-0.41
-0.4
-0.38
-0.38
-0.355
-0.355
-0.345
-0.345
-0.35
-0.35
-0.35
-0.36
-0.345
-0.325
-0.325
-0.295
-0.29
-0.305
-0.31
-0.335
-0.355
-0.36
-0.38
-0.385
-0.38
-0.38
-0.375
-0.375
-0.375
-0.385
-0.38
-0.395
-0.415
-0.43
-0.445
-0.45
-0.455
-0.45
-0.445
-0.44
-0.43
-0.44
-0.43
-0.43
-0.43
-0.435
-0.44
-0.45
-0.445
-0.435
-0.44
-0.425
-0.43
-0.44
-0.46
-0.48
-0.49
-0.475
-0.425
-0.34
-0.215
-0.06
0.12
0.325
0.525
0.67
0.745
0.69
0.525
0.28
0.005
-0.23
-0.38
-0.43
-0.415
-0.36
-0.305
-0.28
-0.27
-0.28
-0.315
-0.345
-0.375
-0.405
-0.41
-0.41
-0.4
-0.4
-0.395
-0.395
-0.4
-0.4
-0.405
-0.42
-0.425
-0.425
-0.43
-0.42
-0.415
-0.405
-0.405
-0.4
-0.4
-0.4
-0.4
-0.405
-0.41
-0.41
-0.42
-0.4
-0.395
-0.395
-0.38
-0.37
-0.365
-0.38
-0.375
-0.385
-0.395
-0.4
-0.395
-0.385
-0.375
-0.375
-0.37
-0.36
-0.37
-0.37
-0.37
-0.385
-0.39
-0.39
-0.385
-0.385
-0.38
-0.375
-0.355
-0.36
-0.36
-0.355
-0.36
-0.375
-0.37
-0.375
-0.395
-0.38
-0.37
-0.355
-0.355
-0.35
-0.355
-0.365
-0.365
-0.37
-0.365
-0.365
-0.38
-0.37
-0.355
-0.345
-0.32
-0.32
-0.31
-0.315
-0.315
-0.315
-0.32
-0.31
-0.31
-0.3
-0.285
-0.27
-0.255
-0.26
-0.25
-0.255
-0.265
-0.265
-0.29
-0.29
-0.3
-0.295
-0.295
-0.29
-0.29
-0.3
-0.315
-0.315
-0.325
-0.335
-0.345
-0.355
-0.36
-0.355
-0.36
-0.345
-0.355
-0.35
-0.345
-0.36
-0.365
-0.375
-0.375
-0.39
-0.395
-0.39
-0.38
-0.365
-0.365
-0.37
-0.36
-0.37
-0.38
-0.38
-0.395
-0.4
-0.395
-0.38
-0.385
-0.375
-0.37
-0.365
-0.375
-0.38
-0.38
-0.4
-0.4
-0.405
-0.4
-0.4
-0.395
-0.39
-0.39
-0.395
-0.395
-0.4
-0.405
-0.41
-0.425
-0.42
-0.42
-0.405
-0.405
-0.4
-0.395
-0.375
-0.37
-0.365
-0.375
-0.37
-0.365
-0.37
-0.36
-0.355
-0.345
-0.33
-0.32
-0.315
-0.305
-0.3
-0.29
-0.3
-0.3
-0.315
-0.32
-0.335
-0.35
-0.345
-0.35
-0.345
-0.345
-0.345
-0.36
-0.36
-0.375
-0.38
-0.395
-0.395
-0.4
-0.4
-0.415
-0.42
-0.425
-0.43
-0.42
-0.44
-0.425
-0.435
-0.435
-0.425
-0.42
-0.415
-0.41
-0.4
-0.4
-0.395
-0.415
-0.425
-0.44
-0.455
-0.475
-0.49
-0.465
-0.42
-0.34
-0.23
-0.08
0.1
0.295
0.495
0.65
0.71
0.66
0.46
0.21
-0.035
-0.265
-0.395
-0.425
-0.395
-0.345
-0.31
-0.295
-0.295
-0.305
-0.33
-0.345
-0.365
-0.37
-0.37
-0.37
-0.385
-0.38
-0.395
-0.395
-0.395
-0.405
-0.405
-0.395
-0.395
-0.395
-0.385
-0.38
-0.385
-0.395
-0.4
-0.395
-0.405
-0.4
-0.385
-0.385
-0.385
-0.375
-0.375
-0.365
-0.37
-0.38
-0.39
-0.39
-0.395
-0.395
-0.39
-0.385
-0.375
-0.38
-0.37
-0.36
-0.37
-0.37
-0.38
-0.385
-0.38
-0.39
-0.38
-0.37
-0.37
-0.36
-0.35
-0.35
-0.355
-0.36
-0.365
-0.37
-0.375
-0.37
-0.38
-0.37
-0.36
-0.36
-0.355
-0.365
-0.36
-0.355
-0.36
-0.37
-0.365
-0.37
-0.36
-0.355
-0.35
-0.335
-0.34
-0.325
-0.335
-0.34
-0.34
-0.335
-0.335
-0.335
-0.32
-0.305
-0.29
-0.28
-0.285
-0.28
-0.285
-0.27
-0.28
-0.28
-0.28
-0.285
-0.285
-0.29
-0.28
-0.29
-0.29
-0.295
-0.3
-0.31
-0.335
-0.34
-0.345
-0.355
-0.355
-0.355
-0.355
-0.355
-0.35
-0.355
-0.355
-0.36
-0.375
-0.37
-0.37
-0.385
-0.37
-0.38
-0.37
-0.36
-0.36
-0.36
-0.375
-0.38
-0.39
-0.4
-0.395
-0.395
-0.395
-0.39
-0.38
-0.385
-0.375
-0.38
-0.385
-0.385
-0.39
-0.405
-0.4
-0.405
-0.4
-0.39
-0.39
-0.39
-0.385
-0.39
-0.39
-0.405
-0.415
-0.415
-0.415
-0.42
-0.42
-0.41
-0.4
-0.385
-0.4
-0.395
-0.4
-0.41
-0.415
-0.415
-0.41
-0.4
-0.385
-0.375
-0.36
-0.345
-0.36
-0.34
-0.335
-0.345
-0.345
-0.35
-0.34
-0.335
-0.32
-0.32
-0.32
-0.33
-0.325
-0.34
-0.355
-0.365
-0.365
-0.375
-0.37
-0.385
-0.375
-0.38
-0.38
-0.38
-0.38
-0.39
-0.41
-0.425
-0.445
-0.455
-0.465
-0.46
-0.445
-0.44
-0.425
-0.415
-0.415
-0.415
-0.425
-0.43
-0.43
-0.435
-0.435
-0.44
-0.435
-0.435
-0.435
-0.455
-0.475
-0.47
-0.44
-0.375
-0.295
-0.17
0.005
0.215
0.44
0.645
0.78
0.795
0.655
0.435
0.15
-0.105
-0.305
-0.405
-0.425
-0.385
-0.345
-0.315
-0.295
-0.3
-0.305
-0.32
-0.34
-0.365
-0.38
-0.395
-0.415
-0.415
-0.42
-0.405
-0.405
-0.39
-0.39
-0.39
-0.39
-0.395
-0.4
-0.405
-0.415
-0.41
-0.405
-0.39
-0.39
-0.385
-0.38
-0.38
-0.38
-0.39
-0.395
-0.41
-0.415
-0.405
-0.405
-0.405
-0.39
-0.4
-0.395
-0.385
-0.385
-0.395
-0.395
-0.395
-0.385
-0.4
-0.395
-0.405
-0.39
-0.39
-0.37
-0.36
-0.35
-0.355
-0.36
-0.365
-0.37
-0.38
-0.38
-0.375
-0.375
-0.375
-0.365
-0.37
-0.365
-0.37
-0.365
-0.375
-0.375
-0.385
-0.385
-0.375
-0.355
-0.345
-0.335
-0.32
-0.32
-0.315
-0.325
-0.325
-0.34
-0.335
-0.325
-0.31
-0.295
-0.29
-0.275
-0.26
-0.255
-0.27
-0.27
-0.28
-0.295
-0.305
-0.31
-0.31
-0.305
-0.305
-0.305
-0.31
-0.315
-0.33
-0.34
-0.345
-0.36
-0.355
-0.365
-0.37
-0.375
-0.375
-0.375
-0.37
-0.365
-0.38
-0.375
-0.37
-0.37
-0.385
-0.39
-0.385
-0.39
-0.385
-0.385
-0.39
-0.385
-0.39
-0.4
-0.4
-0.4
-0.41
-0.405
-0.405
-0.4
-0.39
-0.395
-0.4
-0.4
-0.405
-0.41
-0.415
-0.43
-0.43
-0.435
-0.43
-0.43
-0.42
-0.415
-0.41
-0.415
-0.415
-0.425
-0.43
-0.43
-0.435
-0.43
-0.445
-0.42
-0.41
-0.405
-0.41
-0.41
-0.41
-0.415
-0.41
-0.395
-0.405
-0.39
-0.39
-0.38
-0.365
-0.365
-0.36
-0.36
-0.35
-0.335
-0.33
-0.33
-0.34
-0.34
-0.345
-0.37
-0.355
-0.365
-0.365
-0.355
-0.365
-0.37
-0.385
-0.39
-0.4
-0.405
-0.4
-0.395
-0.39
-0.4
-0.415
-0.42
-0.43
-0.445
-0.46
-0.455
-0.45
-0.45
-0.44
-0.435
-0.445
-0.44
-0.445
-0.445
-0.44
-0.445
-0.455
-0.45
-0.45
-0.455
-0.465
-0.48
-0.495
-0.49
-0.46
-0.38
-0.275
-0.13
0.06
0.27
0.505
0.71
0.83
0.82
0.665
0.405
0.115
-0.15
-0.345
-0.435
-0.44
-0.405
-0.37
-0.345
-0.34
-0.33
-0.335
-0.36
-0.365
-0.385
-0.41
-0.415
-0.42
-0.435
-0.435
-0.435
-0.425
-0.435
-0.415
-0.415
-0.415
-0.415
-0.42
-0.415
-0.43
-0.43
-0.435
-0.44
-0.43
-0.425
-0.415
-0.4
-0.39
-0.39
-0.395
-0.4
-0.41
-0.415
-0.43
-0.425
-0.415
-0.42
-0.415
-0.4
-0.4
-0.395
-0.39
-0.4
-0.4
-0.4
-0.395
-0.405
-0.4
-0.41
-0.39
-0.395
-0.375
-0.375
-0.37
-0.38
-0.39
-0.39
-0.4
-0.39
-0.4
-0.4
-0.39
-0.39
-0.4
-0.385
-0.385
-0.385
-0.38
-0.38
-0.38
-0.385
-0.375
-0.385
-0.385
-0.375
-0.365
-0.365
-0.36
-0.36
-0.355
-0.35
-0.34
-0.32
-0.315
-0.31
-0.295
-0.29
-0.28
-0.275
-0.27
-0.285
-0.29
-0.295
-0.295
-0.295
-0.28
-0.29
-0.29
-0.295
-0.305
-0.315
-0.33
-0.345
-0.355
-0.355
-0.36
-0.36
-0.36
-0.36
-0.355
-0.365
-0.37
-0.37
-0.365
-0.39
-0.395
-0.405
-0.415
-0.4
-0.385
-0.375
-0.365
-0.365
-0.37
-0.36
-0.375
-0.39
-0.39
-0.385
-0.395
-0.4
-0.4
-0.4
-0.39
-0.38
-0.38
-0.38
-0.38
-0.385
-0.4
-0.4
-0.405
-0.41
-0.4
-0.4
-0.39
-0.395
-0.39
-0.395
-0.405
-0.405
-0.41
-0.42
-0.42
-0.42
-0.425
-0.41
-0.4
-0.395
-0.395
-0.4
-0.405
-0.405
-0.4
-0.4
-0.4
-0.385
-0.37
-0.365
-0.35
-0.34
-0.34
-0.34
-0.34
-0.34
-0.345
-0.34
-0.32
-0.315
-0.32
-0.31
-0.32
-0.335
-0.35
-0.35
-0.35
-0.355
-0.36
-0.365
-0.37
-0.375
-0.38
-0.375
-0.38
-0.375
-0.385
-0.395
-0.405
-0.43
-0.435
-0.44
-0.44
-0.435
-0.43
-0.42
-0.42
-0.41
-0.405
-0.41
-0.405
-0.42
-0.415
-0.43
-0.43
-0.435
-0.44
-0.445
-0.455
-0.46
-0.475
-0.48
-0.45
-0.38
-0.28
-0.155
0.02
0.205
0.42
0.61
0.75
0.8
0.73
0.53
0.275
0.005
-0.215
-0.37
-0.435
-0.43
-0.39
-0.34
-0.31
-0.3
-0.3
-0.325
-0.34
-0.36
-0.38
-0.39
-0.4
-0.405
-0.41
-0.39
-0.385
-0.38
-0.375
-0.38
-0.385
-0.4
-0.395
-0.405
-0.405
-0.405
-0.4
-0.395
-0.38
-0.385
-0.375
-0.37
-0.385
-0.39
-0.395
-0.395
-0.395
-0.405
-0.395
-0.38
-0.37
-0.36
-0.36
-0.355
-0.36
-0.365
-0.365
-0.365
-0.375
-0.365
-0.365
-0.355
-0.345
-0.35
-0.34
-0.345
-0.345
-0.355
-0.36
-0.36
-0.365
-0.36
-0.355
-0.35
-0.34
-0.345
-0.345
-0.335
-0.34
-0.35
-0.36
-0.36
-0.36
-0.35
-0.345
-0.345
-0.325
-0.32
-0.325
-0.315
-0.32
-0.33
-0.345
-0.345
-0.345
-0.34
-0.34
-0.32
-0.31
-0.295
-0.285
-0.275
-0.27
-0.27
-0.28
-0.27
-0.26
-0.26
-0.25
-0.245
-0.235
-0.235
-0.24
-0.245
-0.245
-0.26
-0.26
-0.27
-0.28
-0.28
-0.28
-0.285
-0.285
-0.28
-0.29
-0.29
-0.3
-0.31
-0.32
-0.325
-0.335
-0.325
-0.325
-0.335
-0.325
-0.325
-0.325
-0.33
-0.33
-0.335
-0.345
-0.355
-0.355
-0.355
-0.35
-0.34
-0.34
-0.34
-0.34
-0.35
-0.36
-0.365
-0.36
-0.375
-0.385
-0.365
-0.365
-0.36
-0.36
-0.355
-0.35
-0.36
-0.37
-0.38
-0.385
-0.375
-0.38
-0.38
