Lead II
-0.725
-0.7
-0.735
-0.775
-0.795
-0.775
-0.76
-0.745
-0.77
-0.795
-0.805
-0.78
-0.75
-0.73
-0.745
-0.755
-0.785
-0.795
-0.785
-0.785
-0.78
-0.78
-0.79
-0.77
-0.765
-0.755
-0.75
-0.755
-0.765
-0.795
-0.81
-0.81
-0.8
-0.785
-0.76
-0.755
-0.76
-0.79
-0.805
-0.8
-0.765
-0.75
-0.745
-0.77
-0.785
-0.785
-0.785
-0.775
-0.755
-0.72
-0.73
-0.74
-0.745
-0.74
-0.73
-0.725
-0.745
-0.755
-0.78
-0.775
-0.755
-0.745
-0.73
-0.715
-0.73
-0.715
-0.685
-0.65
-0.65
-0.69
-0.715
-0.705
-0.66
-0.615
-0.61
-0.61
-0.595
-0.575
-0.53
-0.48
-0.495
-0.525
-0.545
-0.525
-0.475
-0.45
-0.44
-0.45
-0.44
-0.425
-0.385
-0.375
-0.36
-0.395
-0.44
-0.445
-0.435
-0.4
-0.375
-0.38
-0.405
-0.405
-0.395
-0.36
-0.39
-0.4
-0.415
-0.415
-0.4
-0.39
-0.4
-0.39
-0.38
-0.385
-0.395
-0.4
-0.4
-0.39
-0.4
-0.37
-0.345
-0.315
-0.315
-0.33
-0.38
-0.405
-0.38
-0.36
-0.35
-0.37
-0.39
-0.365
-0.315
-0.27
-0.29
-0.345
-0.39
-0.355
-0.32
-0.3
-0.32
-0.325
-0.315
-0.305
-0.275
-0.27
-0.26
-0.24
-0.225
-0.25
-0.29
-0.3
-0.26
-0.245
-0.255
-0.28
-0.31
-0.285
-0.245
-0.225
-0.225
-0.23
-0.205
-0.195
-0.19
-0.19
-0.225
-0.225
-0.215
-0.17
-0.16
-0.175
-0.21
-0.24
-0.22
-0.195
-0.175
-0.17
-0.18
-0.155
-0.14
-0.12
-0.135
-0.14
-0.185
-0.205
-0.155
-0.11
-0.115
-0.12
-0.125
-0.125
-0.095
-0.085
-0.105
-0.145
-0.19
-0.16
-0.13
-0.09
-0.075
-0.075
-0.105
-0.13
-0.13
-0.095
-0.08
-0.095
-0.07
-0.06
-0.025
-0.025
-0.01
-0.025
0.0
0.025
0.04
0.04
0.005
-0.05
-0.075
-0.05
-0.005
0.045
0.03
0.01
0.005
0.02
0.025
0.025
0.02
0.03
0.055
0.055
0.02
-0.015
-0.035
-0.035
-0.02
-0.03
-0.02
0.005
0.01
0.0
-0.01
0.005
0.035
0.055
0.04
0.005
0.005
0.01
0.015
-0.01
-0.03
-0.005
0.0
0.0
0.015
0.03
0.04
0.045
0.015
0.025
0.02
0.025
0.04
0.03
0.03
0.03
0.085
0.15
0.195
0.235
0.285
0.385
0.46
0.55
0.665
0.83
1.02
1.255
1.44
1.57
1.66
1.755
1.93
2.14
2.32
2.425
2.395
2.225
1.925
1.48
1.03
0.675
0.445
0.3
0.22
0.145
0.1
0.055
0.035
0.005
-0.005
-0.005
-0.005
0.0
-0.025
-0.03
-0.03
-0.03
-0.05
-0.075
-0.11
-0.13
-0.125
-0.1
-0.075
-0.065
-0.08
-0.085
-0.09
-0.08
-0.075
-0.08
-0.115
-0.11
-0.115
-0.09
-0.05
-0.055
-0.07
-0.11
-0.145
-0.16
-0.145
-0.105
-0.095
-0.09
-0.12
-0.125
-0.12
-0.11
-0.12
-0.125
-0.125
-0.13
-0.13
-0.135
-0.15
-0.15
-0.155
-0.145
-0.11
-0.12
-0.15
-0.17
-0.16
-0.135
-0.13
-0.16
-0.18
-0.18
-0.18
-0.17
-0.155
-0.155
-0.16
-0.18
-0.195
-0.205
-0.19
-0.175
-0.195
-0.215
-0.225
-0.215
-0.165
-0.15
-0.16
-0.19
-0.2
-0.18
-0.145
-0.105
-0.11
-0.125
-0.12
-0.095
-0.05
-0.045
-0.065
-0.08
-0.045
0.0
0.045
0.065
0.065
0.085
0.105
0.14
0.135
0.13
0.12
0.15
0.175
0.205
0.205
0.165
0.115
0.07
0.08
0.12
0.165
0.155
0.15
0.13
0.125
0.13
0.135
0.155
0.14
0.11
0.095
0.115
0.135
0.15
0.135
0.125
0.135
0.15
0.155
0.125
0.07
0.07
0.09
0.13
0.15
0.135
0.085
0.065
0.09
0.095
0.11
0.1
0.095
0.08
0.075
0.08
0.09
0.11
0.12
0.125
0.12
0.095
0.08
0.06
0.07
0.075
0.09
0.105
0.11
0.125
0.12
0.105
0.08
0.075
0.08
0.1
0.1
0.1
0.105
0.125
0.13
0.145
0.135
0.125
0.1
0.08
0.075
0.095
0.1
0.105
0.11
0.095
0.1
0.125
0.135
0.13
0.115
0.09
0.08
0.095
0.095
0.07
0.055
0.065
0.095
0.12
0.13
0.125
0.115
0.105
0.1
0.09
0.115
0.125
0.11
0.065
0.04
0.07
0.1
0.12
0.105
0.095
0.095
0.07
0.07
0.065
0.075
0.11
0.135
0.13
0.12
0.105
0.13
0.17
0.18
0.135
0.1
0.1
0.13
0.13
0.135
0.11
0.11
0.105
0.105
0.1
0.12
0.14
0.14
0.145
0.135
0.12
0.105
0.12
0.125
0.085
0.065
0.07
0.095
0.1
0.07
0.04
0.01
0.025
0.065
0.08
0.085
0.065
0.05
0.015
0.0
0.015
0.035
0.035
0.025
0.01
0.01
0.025
0.025
0.02
0.005
0.015
0.035
0.05
0.005
-0.045
-0.005
0.045
0.045
0.03
0.01
0.025
0.07
0.165
0.235
0.29
0.325
0.395
0.56
0.8
1.09
1.32
1.51
1.65
1.81
1.995
2.185
2.265
2.19
1.92
1.465
0.995
0.675
0.445
0.28
0.11
0.0
-0.02
-0.005
-0.02
-0.075
-0.145
-0.16
-0.135
-0.115
-0.135
-0.175
-0.215
-0.225
-0.19
-0.195
-0.225
-0.27
-0.29
-0.275
-0.25
-0.245
-0.235
-0.255
-0.255
-0.27
-0.265
-0.26
-0.255
-0.27
-0.27
-0.28
-0.31
-0.325
-0.32
-0.31
-0.29
-0.295
-0.285
-0.3
-0.325
-0.34
-0.34
-0.34
-0.345
-0.34
-0.355
-0.37
-0.385
-0.37
-0.335
-0.315
-0.32
-0.335
-0.335
-0.345
-0.37
-0.4
-0.405
-0.415
-0.405
-0.39
-0.38
-0.37
-0.375
-0.38
-0.395
-0.4
-0.41
-0.395
-0.405
-0.405
-0.42
-0.425
-0.415
-0.395
-0.39
-0.385
-0.38
-0.4
-0.41
-0.405
-0.405
-0.4
-0.4
-0.395
-0.375
-0.355
-0.34
-0.335
-0.335
-0.34
-0.32
-0.28
-0.255
-0.245
-0.235
-0.22
-0.185
-0.15
-0.14
-0.165
-0.21
-0.22
-0.19
-0.12
-0.1
-0.135
-0.185
-0.225
-0.205
-0.175
-0.155
-0.16
-0.18
-0.21
-0.225
-0.22
-0.21
-0.235
-0.24
-0.235
-0.21
-0.195
-0.185
-0.2
-0.205
-0.215
-0.195
-0.175
-0.215
-0.275
-0.31
-0.28
-0.25
-0.235
-0.23
-0.23
-0.235
-0.255
-0.25
-0.24
-0.23
-0.22
-0.24
-0.275
-0.275
-0.235
-0.215
-0.235
-0.3
-0.31
-0.265
-0.245
-0.25
-0.265
-0.275
-0.255
-0.255
-0.245
-0.235
-0.22
-0.225
-0.255
-0.275
-0.26
-0.235
-0.24
-0.255
-0.25
-0.24
-0.205
-0.185
-0.17
-0.225
-0.275
-0.275
-0.235
-0.23
-0.245
-0.265
-0.245
-0.215
-0.19
-0.205
-0.22
-0.235
-0.26
-0.26
-0.215
-0.18
-0.165
-0.205
-0.28
-0.315
-0.28
-0.245
-0.21
-0.23
-0.23
-0.215
-0.215
-0.24
-0.28
-0.28
-0.245
-0.23
-0.205
-0.205
-0.21
-0.245
-0.27
-0.26
-0.255
-0.25
-0.265
-0.255
-0.23
-0.23
-0.215
-0.205
-0.205
-0.22
-0.225
-0.2
-0.19
-0.2
-0.185
-0.175
-0.175
-0.15
-0.125
-0.14
-0.165
-0.205
-0.235
-0.22
-0.185
-0.19
-0.18
-0.18
-0.175
-0.17
-0.155
-0.135
-0.14
-0.175
-0.21
-0.185
-0.15
-0.125
-0.16
-0.2
-0.22
-0.245
-0.22
-0.18
-0.185
-0.2
-0.195
-0.165
-0.125
-0.12
-0.195
-0.255
-0.245
-0.205
-0.175
-0.165
-0.18
-0.185
-0.205
-0.175
-0.135
-0.12
-0.13
-0.15
-0.17
-0.155
-0.135
-0.135
-0.115
-0.12
-0.09
-0.07
-0.025
0.025
0.065
0.125
0.21
0.31
0.425
0.595
0.765
0.96
1.16
1.34
1.485
1.62
1.745
1.92
2.115
2.295
2.33
2.21
1.9
1.435
0.935
0.54
0.305
0.155
0.07
0.04
-0.01
-0.04
-0.045
-0.055
-0.08
-0.1
-0.11
-0.13
-0.14
-0.15
-0.14
-0.14
-0.15
-0.155
-0.125
-0.11
-0.11
-0.11
-0.13
-0.165
-0.175
-0.175
-0.15
-0.14
-0.145
-0.155
-0.145
-0.14
-0.135
-0.13
-0.13
-0.12
-0.095
-0.09
-0.115
-0.155
-0.15
-0.105
-0.085
-0.07
-0.07
-0.1
-0.115
-0.125
-0.105
-0.105
-0.125
-0.13
-0.11
-0.09
-0.08
-0.07
-0.06
-0.065
-0.075
-0.08
-0.08
-0.08
-0.08
-0.1
-0.08
-0.07
-0.05
-0.06
-0.065
-0.06
-0.06
-0.06
-0.045
-0.035
-0.03
-0.02
-0.04
-0.035
-0.02
0.0
0.02
0.025
0.045
0.045
0.07
0.09
0.11
0.12
0.135
0.19
0.24
0.29
0.265
0.23
0.21
0.24
0.3
0.315
0.325
0.33
0.335
0.365
0.37
0.335
0.305
0.295
0.33
0.335
0.325
0.305
0.315
0.32
0.325
0.31
0.315
0.31
0.315
0.32
0.32
0.335
0.35
0.36
0.34
0.31
0.3
0.34
0.365
0.375
0.355
0.33
0.295
0.305
0.345
0.37
0.355
0.325
0.315
0.34
0.37
0.395
0.39
0.375
0.335
0.325
0.345
0.36
0.35
0.34
0.335
0.355
0.365
0.365
0.375
0.365
0.365
0.38
0.4
0.42
0.4
0.375
0.365
0.37
0.385
0.385
0.38
0.36
0.345
0.36
0.395
0.42
0.4
0.39
0.39
0.4
0.39
0.38
0.395
0.39
0.37
0.35
0.365
0.4
0.405
0.395
0.37
0.39
0.39
0.4
0.41
0.385
0.37
0.37
0.42
0.455
0.455
0.42
0.335
0.3
0.33
0.385
0.405
0.405
0.41
0.44
0.45
0.46
0.425
0.42
0.45
0.475
0.51
0.51
0.5
0.485
0.475
0.455
0.455
0.425
0.41
0.405
0.435
0.465
0.495
0.505
0.48
0.46
0.465
0.48
0.475
0.455
0.43
0.42
0.405
0.43
0.475
0.475
0.445
0.39
0.38
0.4
0.44
0.46
0.44
0.385
0.37
0.39
0.42
0.425
0.41
0.395
0.385
0.41
0.45
0.47
0.44
0.395
0.37
0.405
0.445
0.46
0.44
0.42
0.42
0.485
0.55
0.57
0.54
0.57
0.7
0.83
0.985
1.105
1.29
1.49
1.685
1.865
2.015
2.135
2.265
2.42
2.57
2.71
2.76
2.715
2.505
2.095
1.565
1.16
0.925
0.765
0.635
0.51
0.45
0.43
0.455
0.45
0.395
0.31
0.26
0.295
0.325
0.3
0.235
0.21
0.235
0.26
0.275
0.245
0.215
0.21
0.185
0.195
0.22
0.25
0.26
0.225
0.175
0.16
0.215
0.23
0.21
0.17
0.14
0.17
0.19
0.195
0.16
0.135
0.135
0.155
0.165
0.185
0.18
0.15
0.14
0.13
0.13
0.15
0.165
0.15
0.135
0.12
0.115
0.105
0.12
0.11
0.105
0.125
0.12
0.125
0.12
0.13
0.125
0.12
0.085
0.025
0.02
0.05
0.075
0.11
0.12
0.095
0.07
0.04
0.045
0.065
0.09
0.1
0.105
0.09
0.095
0.145
0.19
0.205
0.18
0.155
0.18
0.215
0.27
0.3
0.305
0.33
0.36
0.395
0.42
0.36
0.31
0.305
0.32
0.37
0.39
0.39
0.36
0.355
0.37
0.36
0.365
0.33
0.305
0.3
0.295
0.31
0.355
0.375
0.34
0.26
0.22
0.225
0.255
0.275
0.27
0.255
0.26
0.295
0.305
0.285
0.245
0.225
0.185
0.17
0.19
0.215
0.22
0.21
0.21
0.22
0.23
0.21
0.17
0.16
0.19
0.22
0.215
0.18
0.135
0.12
0.14
0.18
0.195
0.17
0.15
0.13
0.13
0.135
0.16
0.165
0.16
0.135
0.115
0.11
0.11
0.105
0.1
0.1
0.13
0.165
0.17
0.17
0.13
0.095
0.1
0.09
0.095
0.105
0.11
0.09
0.075
0.07
0.08
0.085
0.09
0.08
0.085
0.11
0.125
0.12
0.085
0.045
0.035
0.045
0.08
0.08
0.065
0.05
0.04
0.035
0.035
0.045
0.035
0.03
0.05
0.06
0.05
0.03
0.005
0.01
0.065
0.07
0.025
-0.035
-0.055
-0.04
-0.01
-0.02
-0.01
-0.005
0.0
-0.005
0.0
0.01
0.025
0.025
0.005
-0.02
0.0
0.01
0.04
0.04
0.025
0.025
0.04
0.06
0.04
-0.015
-0.045
-0.015
0.025
0.035
0.03
-0.005
-0.025
-0.03
-0.01
-0.02
-0.005
0.0
-0.005
-0.01
-0.025
-0.01
-0.035
-0.06
-0.09
-0.09
-0.09
-0.04
0.0
0.0
-0.025
-0.085
-0.12
-0.13
-0.105
-0.07
-0.095
-0.105
-0.1
-0.08
-0.06
-0.075
-0.095
-0.1
-0.085
-0.085
-0.08
-0.06
-0.095
-0.105
-0.11
-0.09
-0.07
-0.07
-0.035
-0.015
0.015
0.05
0.08
0.12
0.185
0.28
0.445
0.655
0.885
1.05
1.195
1.3
1.435
1.595
1.765
1.93
2.095
2.21
2.235
2.12
1.87
1.445
0.965
0.555
0.295
0.13
0.05
-0.025
-0.05
-0.07
-0.125
-0.18
-0.2
-0.195
-0.22
-0.25
-0.29
-0.295
-0.295
-0.28
-0.29
-0.31
-0.33
-0.335
-0.335
-0.325
-0.33
-0.34
-0.34
-0.34
-0.335
-0.355
-0.355
-0.37
-0.375
-0.365
-0.345
-0.365
-0.4
-0.39
-0.355
-0.34
-0.35
-0.39
-0.41
-0.405
-0.41
-0.41
-0.41
-0.4
-0.395
-0.41
-0.4
-0.405
-0.4
-0.4
-0.415
-0.445
-0.435
-0.425
-0.405
-0.395
-0.405
-0.42
-0.42
-0.4
-0.39
-0.415
-0.425
-0.425
-0.395
-0.395
-0.42
-0.445
-0.425
-0.41
-0.4
-0.415
-0.395
-0.38
-0.355
-0.35
-0.32
-0.305
-0.295
-0.29
-0.26
-0.23
-0.195
-0.195
-0.205
-0.2
-0.17
-0.155
-0.155
-0.17
-0.155
-0.145
-0.14
-0.15
-0.155
-0.16
-0.17
-0.155
-0.16
-0.175
-0.19
-0.18
-0.155
-0.155
-0.16
-0.16
-0.17
-0.185
-0.185
-0.185
-0.165
-0.15
-0.14
-0.12
-0.125
-0.175
-0.205
-0.195
-0.19
-0.175
-0.15
-0.13
-0.135
-0.165
-0.175
-0.18
-0.15
-0.125
-0.115
-0.12
-0.14
-0.15
-0.165
-0.165
-0.165
-0.16
-0.145
-0.125
-0.105
-0.095
-0.12
-0.15
-0.14
-0.12
-0.08
-0.08
-0.095
-0.105
-0.11
-0.105
-0.085
-0.08
-0.085
-0.105
-0.105
-0.075
-0.06
-0.05
-0.06
-0.08
-0.065
-0.05
-0.04
-0.03
-0.045
-0.06
-0.065
-0.045
-0.025
0.005
0.0
-0.005
-0.015
-0.005
-0.005
-0.005
0.01
0.005
0.005
0.01
0.01
0.005
0.0
0.01
0.015
0.02
0.035
0.025
0.01
-0.01
0.0
0.025
0.05
0.045
0.065
0.065
0.065
0.07
0.075
0.085
0.1
0.09
0.085
0.08
0.105
0.13
0.155
0.165
0.15
0.165
0.17
0.165
0.175
0.15
0.16
0.185
0.2
0.21
0.195
0.21
0.22
0.22
0.235
0.225
0.235
0.245
0.255
0.22
0.2
0.205
0.23
0.215
0.205
0.195
0.215
0.23
0.23
0.2
0.195
0.2
0.23
0.24
0.25
0.25
0.255
0.265
0.28
0.29
0.255
0.225
0.205
0.21
0.245
0.245
0.255
0.255
0.28
0.295
0.315
0.315
0.29
0.27
0.26
0.3
0.32
0.325
0.33
0.335
0.37
0.415
0.485
0.575
0.65
0.685
0.74
0.865
1.065
1.275
1.49
1.665
1.815
1.955
2.09
2.21
2.375
2.54
2.655
2.705
2.705
2.58
2.28
1.865
1.405
1.05
0.845
0.66
0.57
0.485
0.41
0.35
0.31
0.275
0.265
0.27
0.29
0.28
0.255
0.22
0.2
0.165
0.155
0.18
0.215
0.23
0.19
0.145
0.145
0.18
0.2
0.165
0.15
0.14
0.16
0.18
0.19
0.16
0.13
0.135
0.145
0.17
0.185
0.18
0.16
0.13
0.105
0.12
0.155
0.16
0.15
0.13
0.13
0.145
0.15
0.145
0.155
0.155
0.125
0.095
0.105
0.135
0.16
0.15
0.145
0.11
0.11
0.1
0.095
0.07
0.075
0.08
0.09
0.09
0.065
0.045
0.05
0.075
0.125
0.105
0.085
0.07
0.065
0.065
0.07
0.075
0.065
0.03
0.06
0.115
0.145
0.16
0.15
0.165
0.2
0.23
0.245
0.29
0.33
0.32
0.31
0.315
0.345
0.39
0.41
0.395
0.42
0.445
0.445
0.445
0.435
0.42
0.415
0.42
0.435
0.425
0.39
0.39
0.42
0.435
0.38
0.335
0.32
0.34
0.395
0.415
0.425
0.435
0.42
0.37
0.33
0.305
0.345
0.39
0.375
0.335
0.33
0.35
0.385
0.385
0.355
0.335
0.345
0.365
0.375
0.37
0.34
0.295
0.275
0.3
0.33
0.365
0.38
0.38
0.355
0.31
0.285
0.29
0.315
0.33
0.33
0.345
0.35
0.33
0.335
0.345
0.37
0.37
0.345
0.325
0.3
0.31
0.325
0.34
0.355
0.345
0.32
0.315
0.31
0.325
0.355
0.34
0.32
0.315
0.345
0.385
0.39
0.335
0.315
0.315
0.33
0.345
0.345
0.34
0.325
0.34
0.335
0.315
0.305
0.32
0.37
0.375
0.36
0.34
0.325
0.3
0.305
0.325
0.33
0.34
0.345
0.345
0.35
0.34
0.33
0.295
0.305
0.31
0.35
0.37
0.38
0.355
0.34
0.335
0.365
0.37
0.37
0.375
0.395
0.4
0.39
0.405
0.385
0.37
0.365
0.375
0.375
0.34
0.34
0.34
0.36
0.355
0.36
0.35
0.365
0.385
0.425
0.42
0.41
0.375
0.355
0.36
0.375
0.345
0.305
0.26
0.26
0.28
0.325
0.315
0.295
0.27
0.255
0.265
0.28
0.28
0.275
0.26
0.24
0.24
0.26
0.275
0.27
0.26
0.24
0.235
0.26
0.245
0.24
0.22
0.215
0.245
0.25
0.225
0.21
0.2
0.205
0.25
0.31
0.355
0.38
0.435
0.51
0.625
0.755
0.875
1.03
1.195
1.39
1.59
1.76
1.895
1.99
2.075
2.205
2.35
2.435
2.415
2.165
1.75
1.275
0.895
0.68
0.52
0.35
0.23
0.19
0.175
0.16
0.075
0.035
0.02
0.06
0.075
0.035
-0.055
-0.1
-0.115
-0.08
-0.04
-0.03
-0.055
-0.075
-0.1
-0.095
-0.085
-0.05
-0.05
-0.065
-0.125
-0.16
-0.155
-0.115
-0.09
-0.09
-0.115
-0.15
-0.17
-0.155
-0.175
-0.165
-0.155
-0.155
-0.17
-0.18
-0.195
-0.2
-0.2
-0.185
-0.165
-0.16
-0.16
-0.205
-0.29
-0.3
-0.27
-0.225
-0.23
-0.235
-0.23
-0.22
-0.225
-0.24
-0.255
-0.255
-0.245
-0.245
-0.275
-0.3
-0.325
-0.33
-0.325
-0.305
-0.3
-0.31
-0.3
-0.29
-0.29
-0.305
-0.345
-0.355
-0.36
-0.34
-0.335
-0.305
-0.26
-0.22
-0.22
-0.245
-0.265
-0.24
-0.18
-0.15
-0.15
-0.19
-0.185
-0.14
-0.05
-0.04
-0.075
-0.11
-0.11
-0.08
-0.05
-0.025
-0.015
-0.02
-0.005
-0.025
-0.035
-0.035
-0.04
-0.065
-0.105
-0.105
-0.075
-0.045
-0.05
-0.07
-0.115
-0.13
-0.12
-0.125
-0.12
-0.13
-0.135
-0.11
-0.075
-0.06
-0.05
-0.06
-0.08
-0.105
-0.14
-0.16
-0.165
-0.135
-0.135
-0.145
-0.15
-0.155
-0.135
-0.135
-0.13
-0.145
-0.13
-0.105
-0.1
-0.115
-0.155
-0.175
-0.19
-0.175
-0.16
-0.145
-0.145
-0.165
-0.17
-0.155
-0.16
-0.165
-0.165
-0.15
-0.14
-0.13
-0.16
-0.165
-0.155
-0.14
-0.09
-0.095
-0.155
-0.205
-0.195
-0.19
-0.175
-0.17
-0.15
-0.15
-0.17
-0.175
-0.165
-0.145
-0.145
-0.15
-0.16
-0.135
-0.12
-0.12
-0.14
-0.18
-0.185
-0.165
-0.135
-0.095
-0.115
-0.145
-0.185
-0.215
-0.185
-0.14
-0.145
-0.16
-0.17
-0.175
-0.155
-0.13
-0.13
-0.145
-0.165
-0.165
-0.155
-0.16
-0.17
-0.14
-0.155
-0.165
-0.185
-0.205
-0.195
-0.185
-0.175
-0.17
-0.14
-0.11
-0.1
-0.125
-0.175
-0.19
-0.165
-0.135
-0.145
-0.175
-0.165
-0.135
-0.105
-0.11
-0.125
-0.135
-0.135
-0.11
-0.075
-0.055
-0.06
-0.07
-0.065
-0.07
-0.065
-0.065
-0.095
-0.09
-0.085
-0.08
-0.085
-0.065
-0.06
-0.055
-0.055
-0.04
-0.05
-0.05
-0.055
-0.07
-0.08
-0.08
-0.07
-0.06
-0.1
-0.13
-0.12
-0.085
-0.07
-0.065
-0.055
-0.075
-0.055
-0.065
-0.09
-0.09
-0.085
-0.075
-0.06
-0.05
-0.045
-0.03
-0.04
-0.07
-0.1
-0.075
-0.025
0.025
0.035
0.04
0.02
0.05
0.1
0.165
0.23
0.31
0.42
0.53
0.69
0.89
1.1
1.29
1.43
1.58
1.725
1.895
2.045
2.195
2.3
2.335
2.235
1.95
1.515
1.035
0.69
0.48
0.345
0.235
0.14
0.08
0.05
0.04
0.04
0.055
0.055
0.02
-0.02
-0.03
-0.02
-0.015
-0.01
-0.04
-0.05
-0.055
-0.05
-0.02
-0.035
-0.065
-0.065
-0.05
-0.025
-0.01
-0.015
-0.045
-0.05
-0.015
-0.005
-0.005
-0.02
-0.045
-0.065
-0.055
-0.03
-0.03
-0.045
-0.065
-0.065
-0.04
-0.02
0.005
-0.02
-0.035
-0.055
-0.05
-0.035
-0.015
-0.02
-0.035
-0.06
-0.045
-0.01
0.015
0.025
0.01
0.005
0.01
0.0
-0.015
-0.035
-0.055
-0.06
-0.05
-0.025
-0.03
-0.045
-0.045
-0.075
-0.07
-0.035
-0.03
-0.02
-0.04
-0.05
-0.035
-0.005
0.02
0.02
0.01
0.01
0.025
0.06
0.08
0.085
0.07
0.065
0.09
0.115
0.145
0.155
0.18
0.19
0.22
0.26
0.285
0.295
0.295
0.3
0.315
0.355
0.38
0.365
0.355
0.36
0.355
0.38
0.41
0.4
0.36
0.335
0.325
0.345
0.37
0.37
0.38
0.38
0.385
0.385
0.36
0.325
0.31
0.325
0.35
0.355
0.335
0.325
0.31
0.3
0.31
0.325
0.34
0.325
0.325
0.335
0.335
0.35
0.355
0.34
0.325
0.34
0.375
0.43
0.445
0.38
0.285
0.24
0.26
0.31
0.355
0.355
0.345
0.35
0.34
0.325
0.34
0.325
0.33
0.32
0.34
0.35
0.38
0.38
0.405
0.41
0.385
0.34
0.335
0.315
0.325
0.345
0.355
0.36
0.35
0.34
0.335
0.335
0.36
0.365
0.375
0.365
0.35
0.345
0.365
0.38
0.395
0.37
0.335
0.325
0.345
0.36
0.38
0.37
0.35
0.34
0.365
0.37
0.385
0.385
0.39
0.385
0.35
0.34
0.365
0.375
0.37
0.335
0.32
0.33
0.36
0.365
0.39
0.395
0.405
0.41
0.41
0.41
0.385
0.37
0.39
0.43
0.465
0.48
0.46
0.42
0.39
0.375
0.4
0.41
0.415
0.41
0.405
0.42
0.46
0.47
0.44
0.405
0.385
0.39
0.41
0.4
0.385
0.38
0.385
0.385
0.345
0.315
0.31
0.315
0.325
0.33
0.355
0.36
0.355
0.34
0.355
0.36
0.375
0.36
0.315
0.305
0.32
0.36
0.375
0.365
0.335
0.31
0.31
0.335
0.32
0.31
0.31
0.325
0.395
0.44
0.45
0.45
0.49
0.59
0.69
0.815
0.94
1.12
1.305
1.49
1.68
1.865
2.005
2.115
2.255
2.425
2.575
2.65
2.615
2.42
2.01
1.535
1.125
0.87
0.715
0.555
0.4
0.28
0.245
0.235
0.245
0.23
0.2
0.2
0.2
0.19
0.155
0.13
0.095
0.08
0.11
0.145
0.17
0.11
0.005
-0.03
0.0
0.025
0.06
0.065
0.065
0.035
0.01
0.01
0.025
0.045
0.04
0.01
-0.005
-0.015
0.005
0.01
0.01
0.0
-0.02
-0.05
-0.05
-0.025
-0.035
-0.06
-0.075
-0.075
-0.08
-0.08
-0.095
-0.1
-0.1
-0.085
-0.085
-0.095
-0.095
-0.08
-0.07
-0.075
-0.1
-0.15
-0.165
-0.17
-0.145
-0.135
-0.14
-0.165
-0.175
-0.185
-0.17
-0.16
-0.15
-0.16
-0.175
-0.19
-0.15
-0.14
-0.135
-0.15
-0.17
-0.17
-0.155
-0.125
-0.1
-0.07
-0.07
-0.075
-0.065
-0.025
-0.005
0.005
0.005
0.0
0.025
0.045
0.075
0.105
0.095
0.1
0.115
0.125
0.125
0.1
0.11
0.115
0.125
0.1
0.06
0.02
0.025
0.015
0.04
0.05
0.065
0.065
0.065
0.065
0.05
0.03
0.015
-0.01
-0.02
-0.015
0.015
0.06
0.06
0.03
-0.005
-0.015
-0.02
-0.005
0.015
0.03
-0.005
-0.04
-0.045
-0.03
-0.025
-0.025
-0.04
-0.05
-0.035
-0.015
-0.005
-0.03
-0.06
-0.065
-0.07
-0.035
-0.01
-0.045
-0.085
-0.105
-0.085
-0.065
-0.035
-0.04
-0.07
-0.09
-0.09
-0.065
-0.05
-0.04
-0.07
-0.09
-0.11
-0.09
-0.075
-0.09
-0.09
-0.1
-0.105
-0.085
-0.07
-0.07
-0.075
-0.08
-0.06
-0.06
-0.08
-0.1
-0.115
-0.115
-0.095
-0.075
-0.065
-0.085
-0.105
-0.1
-0.065
-0.03
-0.04
-0.1
-0.155
-0.155
-0.115
-0.085
-0.085
-0.08
-0.105
-0.125
-0.12
-0.11
-0.095
-0.1
-0.135
-0.14
-0.14
-0.125
-0.11
-0.11
-0.11
-0.11
-0.115
-0.12
-0.13
-0.13
-0.13
-0.145
-0.125
-0.115
-0.105
-0.11
-0.1
-0.11
-0.105
-0.11
-0.105
-0.09
-0.08
-0.07
-0.055
-0.05
-0.05
-0.09
-0.105
-0.1
-0.105
-0.09
-0.06
-0.05
-0.045
-0.045
-0.015
-0.02
-0.02
-0.065
-0.11
-0.155
-0.165
-0.14
-0.13
-0.13
-0.13
-0.13
-0.125
-0.12
-0.115
-0.125
-0.135
-0.145
-0.14
-0.13
-0.125
-0.13
-0.14
-0.13
-0.125
-0.105
-0.12
-0.14
-0.155
-0.15
-0.14
-0.12
-0.11
-0.115
-0.14
-0.15
-0.14
-0.125
-0.09
-0.04
-0.015
0.015
0.04
0.095
0.18
0.27
0.375
0.505
0.685
0.865
1.06
1.22
1.35
1.49
1.61
1.805
1.965
2.1
2.165
2.115
1.915
1.52
1.025
0.575
0.3
0.135
0.035
-0.025
-0.065
-0.125
-0.18
-0.185
-0.165
-0.16
-0.17
-0.2
-0.225
-0.255
-0.275
-0.255
-0.24
-0.245
-0.27
-0.265
-0.235
-0.225
-0.245
-0.28
-0.315
-0.31
-0.29
-0.275
-0.265
-0.275
-0.275
-0.27
-0.285
-0.275
-0.27
-0.265
-0.275
-0.29
-0.3
-0.29
-0.265
-0.26
-0.275
-0.285
-0.28
-0.27
-0.265
-0.265
-0.28
-0.28
-0.275
-0.265
-0.235
-0.25
-0.27
-0.265
-0.275
-0.275
-0.26
-0.265
-0.275
-0.275
-0.265
-0.255
-0.215
-0.205
-0.205
-0.23
-0.26
-0.26
-0.24
-0.23
-0.23
-0.225
-0.205
-0.185
-0.185
-0.2
-0.215
-0.21
-0.17
-0.16
-0.15
-0.165
-0.165
-0.15
-0.115
-0.07
-0.03
-0.025
-0.025
-0.015
0.01
0.05
0.075
0.09
0.08
0.08
0.12
0.13
0.13
0.135
0.125
0.135
0.16
0.19
0.17
0.13
0.11
0.125
0.145
0.18
0.185
0.15
0.115
0.095
0.11
0.14
0.15
0.165
0.145
0.13
0.155
0.19
0.195
0.185
0.155
0.15
0.155
0.175
0.19
0.18
0.15
0.14
0.15
0.155
0.16
0.17
0.175
0.18
0.19
0.195
0.215
0.225
0.21
0.18
0.135
0.175
0.215
0.23
0.205
0.185
0.2
0.245
0.26
0.255
0.22
0.205
0.23
0.27
0.29
0.29
0.255
0.245
0.265
0.27
0.27
0.27
0.265
0.285
0.325
0.36
0.38
0.345
0.295
0.265
0.275
0.305
0.31
0.27
0.25
0.255
0.275
0.315
0.335
0.33
0.305
0.3
0.32
0.35
0.355
0.365
0.365
0.345
0.355
0.375
0.36
0.315
0.28
0.29
0.335
0.365
0.365
0.355
0.38
0.415
0.455
0.43
0.37
0.325
0.345
0.41
0.44
0.45
0.425
0.4
0.395
0.4
0.435
0.44
0.43
0.4
0.405
0.425
0.455
0.495
0.465
0.45
0.43
0.41
0.4
0.395
0.405
0.39
0.375
0.35
0.36
0.39
0.41
0.4
0.37
0.37
0.4
0.42
0.41
0.39
0.395
0.385
0.375
0.35
0.34
0.345
0.36
0.36
0.37
0.4
0.41
0.41
0.395
0.385
0.415
0.445
0.46
0.45
0.455
0.51
0.605
0.705
0.815
0.955
1.105
1.265
1.485
1.705
1.855
1.96
2.04
2.165
2.375
2.59
2.7
2.695
2.52
2.18
1.725
1.27
0.94
0.695
0.54
0.485
0.48
0.455
0.41
0.34
0.325
0.31
0.305
0.3
0.27
0.23
0.205
0.205
0.235
0.265
0.235
0.205
0.21
0.215
0.215
0.2
0.175
0.165
0.17
0.18
0.21
0.22
0.22
0.23
0.21
0.175
0.145
0.14
0.175
0.195
0.18
0.155
0.155
0.19
0.215
0.2
0.135
0.075
0.075
0.11
0.135
0.125
0.125
0.12
0.15
0.16
0.135
0.11
0.095
0.085
0.08
0.075
0.08
0.085
0.07
0.06
0.09
0.12
0.105
0.04
-0.015
0.005
0.04
0.06
0.065
0.04
0.05
0.055
0.05
0.055
0.09
0.12
0.145
0.135
0.14
0.175
0.24
0.265
0.255
0.255
0.265
0.275
0.295
0.295
0.32
0.355
0.395
0.435
0.455
0.46
0.435
0.415
0.385
0.375
0.38
0.4
0.39
0.39
0.395
0.405
0.405
0.39
0.355
0.345
0.365
0.395
0.39
0.38
0.34
0.36
0.37
0.365
0.345
0.325
0.315
0.315
0.3
0.32
0.32
0.325
0.31
0.3
0.305
0.325
0.355
0.35
0.305
0.25
0.225
0.255
0.29
0.305
0.295
0.285
0.275
0.295
0.275
0.285
0.255
0.225
0.225
0.255
0.285
0.305
0.27
0.23
0.22
0.22
0.225
0.205
0.195
0.215
0.225
0.23
0.225
0.24
0.26
0.25
0.255
0.265
0.245
0.22
0.215
0.245
0.27
0.25
0.215
0.175
0.17
0.2
0.21
0.2
0.19
0.17
0.17
0.18
0.185
0.19
0.195
0.195
0.205
0.205
0.185
0.13
0.145
0.15
0.185
0.165
0.155
0.15
0.165
0.15
0.12
0.095
0.125
0.145
0.135
0.125
0.1
0.115
0.155
0.195
0.2
0.17
0.11
0.07
0.09
0.14
0.175
0.18
0.165
0.17
0.19
0.195
0.215
0.205
0.16
0.11
0.1
0.135
0.18
0.175
0.15
0.135
0.125
0.14
0.14
0.13
0.12
0.135
0.125
0.115
0.11
0.105
0.09
0.08
0.075
0.075
0.055
0.035
0.025
0.03
0.045
0.045
0.055
0.05
0.03
0.015
0.02
0.045
0.02
-0.005
-0.02
-0.01
0.015
0.025
0.04
0.035
0.04
0.015
0.005
-0.005
