Lead II
-0.585
-0.595
-0.59
-0.61
-0.605
-0.59
-0.595
-0.585
-0.575
-0.555
-0.55
-0.53
-0.52
-0.525
-0.51
-0.52
-0.51
-0.495
-0.48
-0.46
-0.445
-0.445
-0.45
-0.46
-0.47
-0.475
-0.495
-0.47
-0.485
-0.48
-0.475
-0.48
-0.47
-0.475
-0.485
-0.5
-0.525
-0.54
-0.56
-0.58
-0.585
-0.59
-0.585
-0.585
-0.58
-0.565
-0.57
-0.575
-0.575
-0.585
-0.6
-0.6
-0.605
-0.605
-0.59
-0.585
-0.575
-0.57
-0.565
-0.555
-0.58
-0.58
-0.59
-0.59
-0.59
-0.58
-0.57
-0.565
-0.555
-0.54
-0.525
-0.515
-0.535
-0.53
-0.52
-0.5
-0.495
-0.475
-0.43
-0.335
-0.21
-0.02
0.25
0.585
0.96
1.29
1.53
1.555
1.31
0.8
0.16
-0.48
-1.015
-1.245
-1.235
-1.065
-0.825
-0.625
-0.47
-0.395
-0.39
-0.42
-0.465
-0.485
-0.505
-0.495
-0.49
-0.485
-0.48
-0.48
-0.5
-0.495
-0.495
-0.485
-0.49
-0.49
-0.485
-0.465
-0.465
-0.465
-0.465
-0.475
-0.48
-0.49
-0.48
-0.485
-0.48
-0.485
-0.46
-0.455
-0.46
-0.46
-0.465
-0.48
-0.485
-0.48
-0.48
-0.485
-0.485
-0.47
-0.465
-0.455
-0.455
-0.45
-0.455
-0.465
-0.48
-0.47
-0.475
-0.475
-0.47
-0.465
-0.475
-0.455
-0.455
-0.45
-0.46
-0.46
-0.46
-0.455
-0.46
-0.465
-0.465
-0.455
-0.445
-0.43
-0.425
-0.435
-0.44
-0.445
-0.45
-0.46
-0.47
-0.445
-0.445
-0.435
-0.42
-0.405
-0.42
-0.415
-0.4
-0.395
-0.41
-0.41
-0.41
-0.405
-0.4
-0.395
-0.385
-0.375
-0.375
-0.375
-0.385
-0.375
-0.385
-0.39
-0.385
-0.38
-0.38
-0.385
-0.37
-0.365
-0.365
-0.37
-0.375
-0.375
-0.385
-0.39
-0.38
-0.38
-0.385
-0.36
-0.355
-0.36
-0.355
-0.36
-0.37
-0.39
-0.4
-0.41
-0.43
-0.44
-0.44
-0.445
-0.465
-0.47
-0.475
-0.49
-0.51
-0.52
-0.53
-0.55
-0.56
-0.56
-0.56
-0.56
-0.555
-0.555
-0.555
-0.55
-0.555
-0.575
-0.58
-0.585
-0.58
-0.58
-0.575
-0.57
-0.56
-0.55
-0.535
-0.555
-0.55
-0.56
-0.555
-0.565
-0.565
-0.56
-0.555
-0.545
-0.545
-0.53
-0.51
-0.525
-0.525
-0.515
-0.525
-0.525
-0.525
-0.525
-0.53
-0.52
-0.525
-0.52
-0.505
-0.505
-0.52
-0.52
-0.515
-0.515
-0.52
-0.525
-0.515
-0.515
-0.515
-0.515
-0.51
-0.515
-0.53
-0.54
-0.535
-0.545
-0.545
-0.555
-0.535
-0.535
-0.535
-0.515
-0.525
-0.525
-0.52
-0.54
-0.55
-0.56
-0.56
-0.56
-0.555
-0.55
-0.54
-0.535
-0.525
-0.53
-0.535
-0.545
-0.54
-0.56
-0.565
-0.575
-0.555
-0.54
-0.55
-0.54
-0.53
-0.535
-0.525
-0.54
-0.55
-0.555
-0.57
-0.575
-0.56
-0.565
-0.54
-0.545
-0.54
-0.54
-0.535
-0.545
-0.55
-0.57
-0.565
-0.555
-0.56
-0.55
-0.55
-0.545
-0.54
-0.535
-0.53
-0.54
-0.55
-0.55
-0.56
-0.555
-0.565
-0.545
-0.54
-0.535
-0.525
-0.52
-0.525
-0.53
-0.545
-0.55
-0.57
-0.565
-0.555
-0.55
-0.53
-0.525
-0.525
-0.52
-0.525
-0.545
-0.545
-0.55
-0.545
-0.54
-0.525
-0.505
-0.49
-0.475
-0.47
-0.455
-0.45
-0.45
-0.435
-0.435
-0.43
-0.415
-0.405
-0.41
-0.405
-0.4
-0.415
-0.43
-0.425
-0.425
-0.43
-0.44
-0.43
-0.435
-0.44
-0.44
-0.445
-0.455
-0.455
-0.475
-0.495
-0.505
-0.515
-0.525
-0.54
-0.54
-0.545
-0.535
-0.535
-0.51
-0.505
-0.52
-0.535
-0.535
-0.555
-0.56
-0.57
-0.565
-0.57
-0.565
-0.555
-0.55
-0.53
-0.54
-0.54
-0.545
-0.545
-0.55
-0.55
-0.545
-0.54
-0.53
-0.52
-0.515
-0.495
-0.49
-0.485
-0.48
-0.475
-0.48
-0.48
-0.48
-0.45
-0.415
-0.35
-0.26
-0.115
0.08
0.36
0.69
1.045
1.35
1.525
1.515
1.26
0.805
0.22
-0.37
-0.85
-1.13
-1.16
-1.06
-0.87
-0.68
-0.54
-0.455
-0.415
-0.4
-0.415
-0.435
-0.44
-0.445
-0.46
-0.465
-0.455
-0.465
-0.455
-0.455
-0.46
-0.445
-0.445
-0.43
-0.435
-0.435
-0.43
-0.44
-0.44
-0.44
-0.445
-0.45
-0.445
-0.43
-0.43
-0.42
-0.41
-0.42
-0.42
-0.43
-0.435
-0.445
-0.445
-0.44
-0.435
-0.44
-0.425
-0.42
-0.43
-0.425
-0.42
-0.43
-0.415
-0.425
-0.45
-0.435
-0.445
-0.435
-0.43
-0.425
-0.42
-0.43
-0.42
-0.425
-0.44
-0.43
-0.445
-0.445
-0.44
-0.435
-0.43
-0.42
-0.41
-0.41
-0.41
-0.41
-0.41
-0.425
-0.43
-0.41
-0.415
-0.415
-0.395
-0.385
-0.385
-0.4
-0.38
-0.39
-0.39
-0.395
-0.41
-0.395
-0.4
-0.375
-0.37
-0.355
-0.35
-0.35
-0.355
-0.355
-0.365
-0.365
-0.37
-0.37
-0.36
-0.355
-0.35
-0.355
-0.34
-0.355
-0.355
-0.36
-0.355
-0.36
-0.365
-0.36
-0.36
-0.355
-0.35
-0.345
-0.345
-0.355
-0.355
-0.355
-0.365
-0.37
-0.37
-0.365
-0.365
-0.35
-0.34
-0.335
-0.34
-0.345
-0.355
-0.37
-0.39
-0.41
-0.405
-0.41
-0.425
-0.43
-0.43
-0.44
-0.43
-0.45
-0.46
-0.475
-0.485
-0.5
-0.51
-0.515
-0.525
-0.515
-0.525
-0.53
-0.52
-0.53
-0.515
-0.53
-0.55
-0.56
-0.55
-0.565
-0.545
-0.53
-0.53
-0.525
-0.52
-0.515
-0.535
-0.525
-0.53
-0.53
-0.54
-0.54
-0.535
-0.525
-0.525
-0.52
-0.51
-0.5
-0.5
-0.5
-0.505
-0.5
-0.51
-0.5
-0.5
-0.5
-0.485
-0.49
-0.48
-0.475
-0.48
-0.485
-0.495
-0.5
-0.515
-0.505
-0.5
-0.495
-0.49
-0.485
-0.48
-0.48
-0.485
-0.5
-0.51
-0.515
-0.525
-0.525
-0.515
-0.515
-0.495
-0.495
-0.5
-0.495
-0.5
-0.51
-0.52
-0.525
-0.535
-0.545
-0.54
-0.53
-0.52
-0.525
-0.51
-0.52
-0.52
-0.53
-0.545
-0.55
-0.555
-0.555
-0.555
-0.55
-0.565
-0.545
-0.535
-0.525
-0.52
-0.53
-0.535
-0.55
-0.545
-0.56
-0.555
-0.545
-0.535
-0.535
-0.535
-0.535
-0.52
-0.535
-0.545
-0.55
-0.565
-0.555
-0.55
-0.55
-0.535
-0.525
-0.515
-0.505
-0.505
-0.5
-0.505
-0.5
-0.51
-0.485
-0.47
-0.455
-0.44
-0.43
-0.405
-0.41
-0.405
-0.405
-0.405
-0.42
-0.42
-0.43
-0.435
-0.425
-0.41
-0.41
-0.395
-0.4
-0.415
-0.415
-0.43
-0.45
-0.465
-0.485
-0.5
-0.51
-0.515
-0.525
-0.52
-0.51
-0.515
-0.52
-0.535
-0.54
-0.555
-0.56
-0.57
-0.545
-0.545
-0.54
-0.535
-0.545
-0.535
-0.555
-0.555
-0.555
-0.565
-0.555
-0.55
-0.535
-0.53
-0.515
-0.51
-0.515
-0.515
-0.515
-0.515
-0.515
-0.505
-0.49
-0.475
-0.465
-0.45
-0.44
-0.42
-0.385
-0.35
-0.29
-0.175
-0.005
0.235
0.535
0.905
1.28
1.58
1.745
1.715
1.45
0.925
0.285
-0.355
-0.9
-1.16
-1.155
-0.995
-0.75
-0.54
-0.37
-0.29
-0.275
-0.295
-0.335
-0.365
-0.4
-0.405
-0.415
-0.4
-0.4
-0.38
-0.365
-0.355
-0.35
-0.345
-0.37
-0.37
-0.385
-0.39
-0.38
-0.37
-0.355
-0.335
-0.34
-0.335
-0.335
-0.34
-0.325
-0.34
-0.34
-0.34
-0.33
-0.345
-0.335
-0.315
-0.315
-0.315
-0.31
-0.315
-0.305
-0.305
-0.305
-0.31
-0.305
-0.295
-0.285
-0.295
-0.275
-0.27
-0.27
-0.265
-0.275
-0.27
-0.275
-0.3
-0.275
-0.265
-0.265
-0.26
-0.25
-0.24
-0.24
-0.245
-0.235
-0.23
-0.245
-0.24
-0.24
-0.235
-0.215
-0.21
-0.2
-0.185
-0.185
-0.185
-0.18
-0.18
-0.185
-0.19
-0.18
-0.165
-0.15
-0.14
-0.13
-0.11
-0.13
-0.12
-0.11
-0.11
-0.115
-0.115
-0.115
-0.11
-0.095
-0.08
-0.07
-0.055
-0.055
-0.055
-0.06
-0.05
-0.045
-0.06
-0.055
-0.045
-0.05
-0.05
-0.03
-0.025
-0.02
-0.035
-0.035
-0.04
-0.055
-0.035
-0.035
-0.035
-0.03
-0.01
0.0
0.005
-0.015
-0.02
-0.025
-0.03
-0.045
-0.065
-0.075
-0.08
-0.1
-0.1
-0.1
-0.105
-0.1
-0.105
-0.135
-0.155
-0.17
-0.185
-0.185
-0.18
-0.175
-0.175
-0.175
-0.17
-0.165
-0.175
-0.17
-0.185
-0.185
-0.185
-0.19
-0.19
-0.18
-0.17
-0.16
-0.15
-0.145
-0.15
-0.155
-0.155
-0.16
-0.155
-0.14
-0.145
-0.135
-0.12
-0.115
-0.1
-0.09
-0.09
-0.09
-0.095
-0.085
-0.09
-0.08
-0.075
-0.07
-0.055
-0.045
-0.035
-0.045
-0.03
-0.035
-0.035
-0.04
-0.06
-0.045
-0.065
-0.045
-0.035
-0.03
-0.01
-0.015
-0.005
-0.015
-0.015
-0.03
-0.03
-0.03
-0.04
-0.03
-0.015
-0.015
0.005
-0.005
-0.02
-0.02
-0.02
-0.035
-0.03
-0.035
-0.025
-0.01
-0.005
-0.005
0.005
0.005
0.005
0.0
0.005
-0.005
-0.015
-0.015
-0.015
0.0
0.0
0.0
0.02
0.025
0.03
0.025
0.015
0.015
-0.005
0.005
0.01
0.01
0.03
0.035
0.04
0.05
0.05
0.035
0.035
0.04
0.025
0.035
0.04
0.045
0.06
0.05
0.065
0.07
0.07
0.055
0.06
0.065
0.045
0.065
0.06
0.065
0.07
0.075
0.09
0.1
0.08
0.09
0.09
0.085
0.08
0.085
0.09
0.1
0.125
0.125
0.165
0.175
0.19
0.195
0.205
0.205
0.21
0.22
0.225
0.245
0.255
0.26
0.275
0.27
0.255
0.255
0.24
0.24
0.245
0.25
0.245
0.255
0.24
0.25
0.245
0.235
0.205
0.195
0.175
0.155
0.15
0.14
0.15
0.13
0.15
0.165
0.165
0.165
0.165
0.16
0.16
0.155
0.15
0.135
0.145
0.15
0.165
0.17
0.18
0.175
0.195
0.185
0.18
0.18
0.18
0.185
0.185
0.21
0.225
0.235
0.255
0.26
0.275
0.295
0.315
0.385
0.495
0.685
0.925
1.225
1.565
1.87
2.095
2.17
2.055
1.71
1.17
0.56
0.0
-0.365
-0.505
-0.425
-0.21
0.02
0.235
0.38
0.445
0.43
0.395
0.35
0.305
0.285
0.275
0.29
0.305
0.325
0.345
0.335
0.345
0.34
0.325
0.325
0.32
0.325
0.32
0.33
0.335
0.345
0.34
0.355
0.345
0.335
0.32
0.32
0.315
0.335
0.33
0.33
0.345
0.355
0.36
0.375
0.365
0.365
0.35
0.355
0.35
0.35
0.35
0.34
0.345
0.37
0.38
0.37
0.385
0.375
0.37
0.36
0.355
0.355
0.35
0.355
0.37
0.375
0.38
0.375
0.39
0.395
0.375
0.385
0.37
0.375
0.375
0.375
0.39
0.395
0.4
0.415
0.385
0.395
0.395
0.4
0.38
0.375
0.39
0.39
0.41
0.415
0.425
0.42
0.42
0.435
0.43
0.425
0.43
0.415
0.43
0.43
0.435
0.43
0.445
0.45
0.455
0.44
0.445
0.44
0.435
0.43
0.44
0.435
0.445
0.455
0.455
0.46
0.46
0.445
0.45
0.44
0.435
0.445
0.435
0.43
0.45
0.465
0.475
0.47
0.46
0.46
0.45
0.43
0.425
0.415
0.405
0.38
0.395
0.385
0.375
0.365
0.35
0.325
0.31
0.295
0.27
0.25
0.25
0.26
0.255
0.255
0.255
0.23
0.24
0.24
0.23
0.215
0.225
0.22
0.22
0.215
0.225
0.225
0.23
0.23
0.235
0.23
0.23
0.225
0.21
0.215
0.225
0.22
0.24
0.23
0.25
0.24
0.25
0.255
0.25
0.245
0.24
0.23
0.235
0.245
0.235
0.255
0.265
0.265
0.255
0.26
0.26
0.255
0.255
0.25
0.245
0.25
0.25
0.25
0.255
0.255
0.24
0.255
0.245
0.235
0.21
0.21
0.21
0.21
0.21
0.22
0.24
0.23
0.225
0.21
0.22
0.21
0.195
0.19
0.195
0.19
0.19
0.195
0.195
0.195
0.19
0.195
0.185
0.18
0.165
0.16
0.17
0.165
0.165
0.165
0.18
0.185
0.18
0.17
0.155
0.16
0.165
0.145
0.145
0.155
0.16
0.155
0.175
0.17
0.165
0.16
0.15
0.15
0.14
0.13
0.13
0.135
0.14
0.145
0.15
0.15
0.15
0.145
0.135
0.135
0.13
0.12
0.13
0.125
0.13
0.155
0.16
0.175
0.175
0.185
0.185
0.18
0.185
0.175
0.205
0.21
0.225
0.23
0.255
0.27
0.265
0.275
0.27
0.24
0.24
0.23
0.225
0.23
0.24
0.23
0.24
0.245
0.24
0.22
0.21
0.195
0.175
0.155
0.15
0.135
0.13
0.125
0.125
0.125
0.115
0.115
0.1
0.095
0.095
0.085
0.075
0.06
0.07
0.07
0.065
0.07
0.09
0.095
0.075
0.075
0.06
0.06
0.055
0.06
0.07
0.08
0.085
0.095
0.095
0.09
0.085
0.085
0.095
0.09
0.1
0.105
0.115
0.12
0.14
0.145
0.17
0.21
0.28
0.37
0.52
0.725
0.975
1.28
1.585
1.805
1.92
1.845
1.555
1.095
0.52
-0.06
-0.475
-0.64
-0.61
-0.44
-0.215
-0.015
0.14
0.22
0.235
0.21
0.16
0.125
0.09
0.08
0.09
0.1
0.11
0.11
0.125
0.13
0.125
0.13
0.115
0.115
0.095
0.11
0.11
0.105
0.12
0.12
0.125
0.13
0.12
0.115
0.105
0.105
0.105
0.095
0.1
0.095
0.1
0.095
0.105
0.12
0.11
0.105
0.105
0.1
0.09
0.095
0.09
0.09
0.1
0.11
0.1
0.105
0.105
0.1
0.105
0.09
0.085
0.07
0.08
0.075
0.085
0.085
0.095
0.095
0.095
0.07
0.08
0.085
0.085
0.075
0.075
0.085
0.09
0.1
0.1
0.115
0.11
0.115
0.095
0.095
0.095
0.085
0.085
0.075
0.095
0.11
0.125
0.125
0.125
0.12
0.115
0.11
0.105
0.11
0.1
0.105
0.125
0.125
0.135
0.145
0.14
0.14
0.13
0.14
0.125
0.105
0.105
0.105
0.125
0.125
0.145
0.145
0.14
0.14
0.12
0.11
0.095
0.105
0.115
0.105
0.115
0.12
0.125
0.145
0.13
0.12
0.11
0.095
0.075
0.055
0.055
0.035
0.03
0.02
0.015
0.005
-0.015
-0.025
-0.035
-0.055
-0.085
-0.085
-0.1
-0.1
-0.12
-0.105
-0.09
-0.105
-0.11
-0.11
-0.12
-0.125
-0.15
-0.155
-0.155
-0.145
-0.145
-0.14
-0.13
-0.115
-0.115
-0.115
-0.12
-0.125
-0.125
-0.15
-0.145
-0.145
-0.145
-0.135
-0.115
-0.115
-0.125
-0.115
-0.125
-0.12
-0.125
-0.135
-0.13
-0.115
-0.115
-0.115
-0.115
-0.12
-0.105
-0.115
-0.135
-0.135
-0.13
-0.15
-0.145
-0.15
-0.15
-0.14
-0.135
-0.13
-0.135
-0.135
-0.145
-0.16
-0.155
-0.18
-0.185
-0.18
-0.175
-0.17
-0.18
-0.18
-0.185
-0.185
-0.185
-0.19
-0.2
-0.215
-0.21
-0.21
-0.21
-0.205
-0.205
-0.205
-0.2
-0.21
-0.22
-0.225
-0.23
-0.225
-0.23
-0.225
-0.225
-0.225
-0.215
-0.215
-0.21
-0.205
-0.23
-0.22
-0.235
-0.24
-0.235
-0.225
-0.215
-0.205
-0.195
-0.18
-0.19
-0.17
-0.17
-0.17
-0.16
-0.16
-0.14
-0.13
-0.125
-0.12
-0.1
-0.09
-0.095
-0.105
-0.12
-0.125
-0.13
-0.15
-0.145
-0.145
-0.125
-0.13
-0.14
-0.14
-0.145
-0.16
-0.18
-0.2
-0.225
-0.245
-0.265
-0.27
-0.27
-0.285
-0.265
-0.255
-0.26
-0.26
-0.28
-0.29
-0.295
-0.32
-0.34
-0.33
-0.31
-0.31
-0.305
-0.305
-0.305
-0.31
-0.305
-0.31
-0.32
-0.325
-0.32
-0.33
-0.32
-0.31
-0.3
-0.295
-0.295
-0.29
-0.29
-0.295
-0.29
-0.295
-0.285
-0.275
-0.28
-0.26
-0.245
-0.225
-0.195
-0.14
-0.07
0.035
0.18
0.39
0.655
0.955
1.255
1.485
1.585
1.52
1.255
0.795
0.22
-0.355
-0.795
-1.035
-1.045
-0.92
-0.7
-0.505
-0.355
-0.26
-0.22
-0.215
-0.235
-0.26
-0.28
-0.295
-0.3
-0.285
-0.275
-0.28
-0.265
-0.25
-0.255
-0.255
-0.275
-0.28
-0.295
-0.295
-0.295
-0.285
-0.285
-0.275
-0.265
-0.265
-0.265
-0.26
-0.27
-0.285
-0.29
-0.29
-0.29
-0.28
-0.27
-0.27
-0.26
-0.255
-0.265
-0.275
-0.275
-0.285
-0.3
-0.295
-0.29
-0.285
-0.29
-0.28
-0.285
-0.275
-0.275
-0.265
-0.275
-0.28
-0.29
-0.3
-0.285
-0.285
-0.29
-0.27
-0.27
-0.27
-0.265
-0.265
-0.285
-0.295
-0.3
-0.29
-0.29
-0.29
-0.29
-0.285
-0.27
-0.26
-0.26
-0.255
-0.265
-0.27
-0.28
-0.27
-0.285
-0.295
-0.28
-0.27
-0.265
-0.26
-0.265
-0.26
-0.265
-0.26
-0.26
-0.26
-0.26
-0.25
-0.26
-0.245
-0.25
-0.22
-0.23
-0.225
-0.235
-0.23
-0.235
-0.25
-0.25
-0.245
-0.23
-0.235
-0.225
-0.225
-0.225
-0.235
-0.235
-0.25
-0.265
-0.27
-0.27
-0.265
-0.265
-0.25
-0.24
-0.245
-0.24
-0.255
-0.28
-0.29
-0.31
-0.315
-0.33
-0.355
-0.35
-0.36
-0.375
-0.385
-0.4
-0.415
-0.43
-0.445
-0.45
-0.47
-0.475
-0.475
-0.485
-0.47
-0.485
-0.48
-0.5
-0.51
-0.495
-0.515
-0.505
-0.51
-0.505
-0.495
-0.5
-0.5
-0.495
-0.49
-0.48
-0.49
-0.495
-0.495
-0.505
-0.5
-0.5
-0.505
-0.49
-0.475
-0.48
-0.465
-0.465
-0.47
-0.465
-0.48
-0.48
-0.48
-0.485
-0.485
-0.48
-0.475
-0.465
-0.465
-0.46
-0.455
-0.465
-0.485
-0.505
-0.5
-0.5
-0.505
-0.5
-0.5
-0.49
-0.485
-0.485
-0.485
-0.49
-0.51
-0.51
-0.515
-0.52
-0.525
-0.525
-0.515
-0.525
-0.505
-0.525
-0.52
-0.525
-0.54
-0.545
-0.54
-0.55
-0.56
-0.56
-0.555
-0.535
-0.525
-0.51
-0.505
-0.505
-0.505
-0.5
-0.5
-0.495
-0.48
-0.47
-0.455
-0.44
-0.425
-0.415
-0.405
-0.405
-0.415
-0.42
-0.43
-0.45
-0.445
-0.44
-0.43
-0.415
-0.415
-0.415
-0.42
-0.43
-0.46
-0.485
-0.51
-0.525
-0.54
-0.555
-0.555
-0.57
-0.56
-0.565
-0.58
-0.575
-0.595
-0.6
-0.61
-0.62
-0.625
-0.62
-0.615
-0.615
-0.595
-0.6
-0.605
-0.615
-0.62
-0.63
-0.635
-0.645
-0.63
-0.635
-0.625
-0.61
-0.595
-0.605
-0.605
-0.605
-0.61
-0.61
-0.605
-0.6
-0.6
-0.585
-0.565
-0.555
-0.535
-0.52
-0.51
-0.48
-0.44
-0.355
-0.235
-0.065
0.185
0.47
0.805
1.095
1.325
1.44
1.385
1.13
0.705
0.15
-0.425
-0.93
-1.22
-1.32
-1.22
-1.03
-0.8
-0.63
-0.525
-0.485
-0.49
-0.505
-0.535
-0.56
-0.565
-0.565
-0.55
-0.545
-0.545
-0.535
-0.54
-0.545
-0.55
-0.555
-0.565
-0.56
-0.56
-0.55
-0.545
-0.54
-0.53
-0.53
-0.53
-0.53
-0.55
-0.535
-0.555
-0.56
-0.545
-0.535
-0.55
-0.53
-0.525
-0.525
-0.535
-0.54
-0.545
-0.545
-0.55
-0.57
-0.555
-0.55
-0.55
-0.53
-0.53
-0.525
-0.53
-0.545
-0.53
-0.535
-0.54
-0.54
-0.545
-0.53
-0.53
-0.535
-0.52
-0.53
-0.535
-0.525
-0.54
-0.54
-0.555
-0.545
-0.55
-0.525
-0.525
-0.52
-0.515
-0.505
-0.51
-0.51
-0.51
-0.515
-0.515
-0.52
-0.515
-0.51
-0.5
-0.49
-0.485
-0.47
-0.47
-0.47
-0.48
-0.48
-0.49
-0.48
-0.48
-0.475
-0.47
-0.455
-0.44
-0.44
-0.435
-0.43
-0.44
-0.44
-0.45
-0.445
-0.44
-0.435
-0.435
-0.425
-0.425
-0.415
-0.42
-0.425
-0.435
-0.435
-0.445
-0.45
-0.445
-0.445
-0.445
-0.44
-0.435
-0.435
-0.45
-0.46
-0.475
-0.5
-0.515
-0.545
-0.565
-0.57
-0.58
-0.59
-0.6
-0.61
-0.63
-0.65
-0.66
-0.675
-0.69
-0.7
-0.71
-0.715
-0.715
-0.715
-0.715
-0.72
-0.715
-0.715
-0.735
-0.735
-0.745
-0.755
-0.755
-0.75
-0.74
-0.73
-0.73
-0.73
-0.735
-0.725
-0.74
-0.74
-0.74
-0.735
-0.735
-0.735
-0.72
-0.72
-0.71
-0.705
-0.705
-0.705
-0.7
-0.71
-0.72
-0.72
-0.72
-0.7
-0.695
-0.69
-0.685
-0.69
-0.695
-0.705
-0.69
-0.695
-0.705
-0.715
-0.715
-0.715
-0.705
-0.695
-0.7
-0.705
-0.7
-0.705
-0.73
-0.73
-0.74
-0.75
-0.74
-0.745
-0.745
-0.73
-0.72
-0.725
-0.73
-0.735
-0.745
-0.755
-0.755
-0.765
-0.775
-0.765
-0.76
-0.75
-0.74
-0.74
-0.745
-0.75
-0.745
-0.76
-0.775
-0.78
-0.765
-0.76
-0.755
-0.755
-0.74
-0.745
-0.755
-0.75
-0.75
-0.745
-0.745
-0.735
-0.725
-0.725
-0.7
-0.685
-0.675
-0.66
-0.66
-0.635
-0.65
-0.635
-0.64
-0.645
-0.65
-0.645
-0.655
-0.65
-0.64
-0.64
-0.64
-0.64
-0.65
-0.66
-0.67
-0.695
-0.695
-0.71
-0.725
-0.735
-0.75
-0.745
-0.765
-0.785
-0.795
-0.795
-0.8
-0.8
-0.81
-0.805
-0.805
-0.79
-0.79
-0.79
-0.795
-0.805
-0.82
-0.81
-0.825
-0.825
-0.825
-0.83
-0.81
-0.805
-0.795
-0.795
-0.785
-0.795
-0.795
-0.79
-0.8
-0.8
-0.79
-0.79
-0.78
-0.765
-0.75
-0.745
-0.74
-0.725
-0.73
-0.72
-0.69
-0.64
-0.535
-0.365
-0.125
0.205
0.59
0.95
1.205
1.295
1.145
0.75
0.18
-0.46
-1.035
-1.395
-1.525
-1.445
-1.245
-1.005
-0.82
-0.705
-0.655
-0.65
-0.665
-0.705
-0.73
-0.75
-0.75
-0.755
-0.73
-0.725
-0.72
-0.715
-0.73
-0.725
-0.735
-0.74
-0.74
-0.745
-0.735
-0.74
-0.72
-0.705
-0.715
-0.71
-0.72
-0.73
-0.74
-0.735
-0.735
-0.74
-0.73
-0.725
-0.715
-0.715
-0.71
-0.725
-0.725
-0.73
-0.73
-0.74
-0.73
-0.73
-0.72
-0.725
-0.72
-0.715
-0.72
-0.715
-0.73
-0.74
-0.745
-0.745
-0.735
-0.74
-0.73
-0.725
-0.71
-0.74
-0.735
-0.72
-0.715
-0.72
-0.74
-0.74
-0.74
-0.715
-0.705
-0.71
-0.7
-0.69
-0.685
-0.7
-0.69
-0.69
-0.695
-0.7
-0.69
-0.685
-0.675
-0.675
-0.665
-0.665
-0.655
-0.66
-0.665
-0.66
-0.67
-0.665
-0.655
-0.65
-0.65
-0.63
-0.62
-0.61
-0.625
-0.615
-0.615
-0.615
-0.625
-0.63
-0.62
-0.625
-0.625
-0.605
-0.595
-0.6
-0.595
-0.6
-0.605
-0.61
-0.615
-0.615
-0.61
-0.61
-0.605
-0.62
-0.615
-0.615
-0.635
-0.655
-0.675
-0.69
-0.72
-0.74
-0.76
-0.77
-0.78
-0.785
-0.8
-0.8
-0.81
-0.825
-0.845
-0.855
-0.88
-0.885
-0.885
-0.895
-0.9
-0.895
-0.875
-0.885
-0.885
-0.89
-0.89
-0.9
-0.895
-0.915
-0.895
-0.9
-0.89
-0.9
-0.895
-0.885
-0.885
-0.88
-0.89
-0.885
-0.9
-0.9
-0.9
-0.885
-0.88
-0.87
-0.875
-0.86
-0.87
-0.87
-0.875
-0.87
-0.875
-0.88
-0.875
-0.865
-0.86
-0.86
-0.845
-0.845
-0.84
-0.85
-0.855
-0.86
-0.87
-0.875
-0.89
-0.885
-0.88
-0.865
-0.865
-0.86
-0.865
-0.87
-0.87
-0.88
-0.895
-0.9
-0.9
-0.895
-0.895
-0.89
-0.885
-0.885
-0.895
-0.885
-0.89
-0.9
-0.905
-0.915
-0.92
-0.91
-0.9
-0.9
-0.91
-0.89
-0.9
-0.905
-0.91
-0.92
-0.915
-0.93
-0.93
-0.915
-0.92
-0.92
-0.905
-0.895
-0.9
-0.89
-0.905
-0.91
-0.91
-0.895
-0.89
-0.88
-0.86
-0.84
-0.83
-0.81
-0.82
-0.81
-0.815
-0.815
-0.8
-0.8
-0.795
-0.78
-0.775
-0.785
-0.785
-0.775
-0.79
-0.78
-0.795
-0.785
-0.8
-0.8
-0.815
-0.815
-0.825
-0.83
-0.845
-0.865
-0.87
-0.895
-0.91
-0.92
-0.935
-0.935
-0.935
-0.925
-0.935
-0.935
-0.925
-0.935
-0.915
-0.93
-0.935
-0.94
-0.96
-0.955
-0.95
-0.95
-0.955
-0.95
-0.94
-0.93
-0.935
-0.915
-0.94
-0.935
-0.935
-0.94
-0.92
-0.93
-0.91
-0.915
-0.895
-0.89
-0.875
-0.895
-0.88
-0.86
-0.855
-0.84
-0.81
-0.75
-0.66
-0.51
-0.325
-0.06
0.225
0.57
0.875
1.08
1.16
1.045
0.715
0.21
-0.365
-0.93
-1.34
-1.545
-1.545
-1.4
-1.2
-1.025
-0.875
-0.8
-0.76
-0.77
-0.8
-0.82
-0.84
-0.855
-0.85
-0.86
-0.855
-0.835
-0.85
-0.85
-0.845
-0.845
-0.84
-0.84
-0.83
-0.815
-0.815
-0.81
-0.81
-0.82
-0.83
-0.84
-0.835
-0.84
-0.83
-0.83
-0.82
-0.82
-0.815
-0.83
-0.82
-0.83
-0.835
-0.845
-0.835
-0.845
-0.835
-0.83
-0.815
-0.8
-0.805
-0.81
-0.815
-0.825
-0.83
-0.83
-0.835
-0.835
-0.825
-0.825
-0.81
-0.81
-0.805
-0.81
-0.8
-0.815
-0.825
-0.82
-0.83
-0.82
-0.82
-0.82
-0.795
-0.785
-0.785
-0.78
-0.78
-0.78
-0.785
-0.795
-0.81
-0.805
-0.795
-0.78
-0.76
-0.75
-0.745
-0.75
-0.755
-0.745
-0.75
-0.755
-0.745
-0.745
-0.735
-0.725
-0.72
-0.72
-0.715
-0.71
-0.71
-0.715
-0.71
-0.71
-0.715
-0.715
-0.7
-0.695
-0.69
-0.675
-0.69
-0.68
-0.69
-0.695
-0.7
-0.705
-0.69
-0.685
-0.68
-0.67
-0.675
-0.67
-0.665
-0.665
-0.67
-0.68
-0.69
-0.705
-0.715
-0.72
-0.715
-0.73
-0.735
-0.755
-0.76
-0.775
-0.785
-0.815
-0.845
-0.86
-0.86
-0.88
-0.9
-0.885
-0.885
-0.89
-0.89
-0.89
-0.915
-0.915
-0.92
-0.94
-0.935
-0.935
-0.945
-0.935
-0.93
-0.915
-0.92
-0.93
-0.93
-0.93
-0.945
-0.94
-0.945
-0.945
-0.935
-0.93
-0.93
-0.92
-0.915
-0.925
-0.92
-0.93
-0.935
-0.94
-0.935
-0.935
-0.925
-0.915
-0.91
-0.895
-0.895
-0.9
-0.915
-0.91
-0.915
-0.91
-0.92
-0.915
-0.9
-0.895
-0.89
-0.875
-0.89
-0.885
-0.895
-0.91
-0.92
-0.92
-0.925
-0.925
-0.915
-0.91
-0.9
-0.905
-0.9
-0.9
-0.91
-0.935
-0.925
-0.94
-0.95
-0.94
-0.935
-0.945
-0.925
-0.925
-0.925
-0.935
-0.93
-0.92
-0.935
-0.945
-0.935
-0.935
-0.93
-0.92
-0.91
-0.9
-0.895
-0.89
-0.87
-0.875
-0.88
-0.88
-0.86
-0.855
-0.835
-0.81
-0.795
-0.77
-0.78
-0.79
-0.795
-0.81
-0.825
-0.83
-0.825
-0.815
-0.81
-0.81
-0.81
-0.815
-0.825
-0.84
-0.86
-0.88
-0.915
-0.935
-0.945
-0.95
-0.955
-0.95
-0.945
-0.94
-0.935
-0.945
-0.95
-0.96
-0.965
-0.98
-0.97
-0.98
-0.975
-0.985
-0.975
-0.965
-0.965
-0.97
-0.965
-0.97
-0.97
-0.975
-0.985
-0.99
-0.98
-0.97
-0.955
-0.945
-0.945
-0.935
-0.935
-0.925
-0.93
-0.935
-0.925
-0.91
-0.9
-0.9
-0.885
-0.87
-0.855
-0.82
-0.775
-0.71
-0.58
-0.415
-0.175
0.15
0.495
0.815
1.05
1.14
0.985
0.625
0.08
-0.555
-1.125
-1.495
-1.63
-1.54
-1.345
-1.12
-0.93
-0.815
-0.775
-0.765
-0.795
-0.83
-0.86
-0.885
-0.885
-0.89
-0.88
-0.87
-0.85
-0.835
-0.84
-0.835
-0.85
-0.855
-0.86
-0.87
-0.865
-0.855
-0.85
-0.85
-0.84
-0.835
-0.84
-0.83
-0.835
-0.835
-0.83
-0.835
-0.84
-0.84
-0.83
-0.83
-0.825
-0.82
-0.81
-0.82
-0.825
-0.83
-0.83
-0.845
-0.835
-0.83
-0.825
-0.825
-0.81
-0.81
-0.795
-0.795
-0.815
-0.82
-0.815
-0.82
-0.815
-0.82
-0.815
-0.82
-0.8
-0.79
-0.79
-0.8
-0.795
-0.785
-0.79
-0.8
-0.8
-0.805
-0.79
-0.78
-0.77
-0.76
-0.755
-0.755
-0.755
-0.765
-0.77
-0.76
-0.775
-0.765
-0.745
-0.74
-0.735
-0.735
-0.74
-0.745
-0.735
-0.735
-0.745
-0.74
-0.745
-0.73
-0.72
-0.71
-0.705
-0.7
-0.695
-0.685
-0.685
-0.695
-0.69
-0.685
-0.685
-0.685
-0.675
-0.67
-0.66
-0.66
-0.67
-0.665
-0.665
-0.68
-0.68
-0.685
-0.68
-0.7
-0.69
-0.68
-0.68
-0.665
-0.66
-0.665
-0.675
-0.7
-0.71
-0.725
-0.75
-0.77
-0.785
-0.78
-0.795
-0.81
-0.82
-0.84
-0.84
-0.87
-0.89
-0.9
-0.915
-0.925
-0.92
-0.925
-0.925
-0.92
-0.935
-0.93
-0.935
-0.945
-0.95
-0.965
-0.965
-0.965
-0.955
-0.96
-0.94
-0.935
-0.935
-0.935
-0.935
-0.935
-0.94
-0.955
-0.945
-0.935
-0.935
-0.925
-0.915
-0.905
-0.9
-0.91
-0.91
-0.915
-0.915
-0.915
-0.915
-0.915
-0.9
-0.895
-0.885
-0.88
-0.89
-0.88
-0.885
-0.89
-0.895
-0.915
-0.91
-0.915
-0.91
-0.915
-0.895
-0.885
-0.895
-0.89
-0.895
-0.925
-0.935
-0.925
-0.93
-0.925
-0.915
-0.915
-0.92
-0.905
-0.91
-0.905
-0.92
-0.93
-0.93
-0.94
-0.955
-0.94
-0.925
-0.915
-0.92
-0.9
-0.895
-0.89
-0.895
-0.885
-0.89
-0.875
-0.885
-0.86
-0.86
-0.84
-0.825
-0.8
-0.785
-0.79
-0.78
-0.785
-0.79
-0.81
-0.825
-0.82
-0.815
-0.8
-0.795
-0.795
-0.79
-0.785
-0.81
-0.83
-0.845
-0.885
-0.895
-0.91
-0.93
-0.93
-0.925
-0.925
-0.925
-0.93
-0.93
-0.945
-0.94
-0.945
-0.95
-0.955
-0.965
-0.96
-0.95
-0.94
-0.945
-0.935
-0.94
-0.96
-0.96
-0.955
-0.95
-0.965
-0.96
-0.945
-0.935
-0.92
-0.92
-0.915
-0.915
-0.91
-0.915
-0.905
-0.9
-0.895
-0.885
-0.875
-0.85
-0.8
-0.765
-0.67
-0.54
-0.365
-0.105
0.2
0.56
0.895
1.14
1.23
1.11
0.725
0.17
-0.47
-1.06
-1.455
-1.61
-1.56
-1.36
-1.15
-0.945
-0.81
-0.75
-0.735
-0.76
-0.8
-0.845
-0.85
-0.87
-0.875
-0.875
-0.87
-0.845
-0.84
-0.835
-0.835
-0.84
-0.83
-0.83
-0.845
-0.835
-0.835
-0.835
-0.84
-0.83
-0.82
-0.825
-0.8
-0.805
-0.825
-0.815
-0.815
-0.815
-0.825
-0.825
-0.84
-0.84
-0.815
-0.82
-0.81
-0.8
-0.81
-0.805
-0.81
-0.82
-0.83
-0.83
-0.825
-0.825
-0.81
-0.81
-0.8
-0.8
-0.8
-0.795
-0.795
-0.8
-0.81
-0.815
-0.805
-0.795
-0.78
-0.78
-0.76
-0.76
-0.77
-0.775
-0.765
-0.765
-0.775
-0.78
-0.775
-0.77
-0.765
-0.745
-0.745
-0.73
-0.745
-0.74
-0.735
-0.75
-0.75
-0.75
-0.755
-0.745
-0.73
-0.71
-0.705
-0.69
-0.69
-0.695
-0.705
-0.71
-0.695
-0.7
-0.695
-0.685
-0.68
-0.67
-0.655
-0.645
-0.65
-0.645
-0.645
-0.66
-0.655
-0.655
-0.65
-0.655
-0.635
-0.65
-0.64
-0.625
-0.63
-0.635
-0.64
-0.645
-0.64
-0.655
-0.64
-0.645
-0.65
-0.65
