Lead II
-0.545
-0.485
-0.45
-0.44
-0.445
-0.43
-0.43
-0.44
-0.445
-0.44
-0.435
-0.425
-0.42
-0.43
-0.45
-0.445
-0.455
-0.44
-0.435
-0.445
-0.44
-0.445
-0.45
-0.445
-0.445
-0.44
-0.445
-0.45
-0.46
-0.445
-0.425
-0.425
-0.435
-0.44
-0.45
-0.43
-0.425
-0.425
-0.44
-0.45
-0.45
-0.43
-0.43
-0.425
-0.43
-0.455
-0.435
-0.435
-0.425
-0.425
-0.435
-0.44
-0.45
-0.44
-0.43
-0.435
-0.435
-0.455
-0.46
-0.445
-0.43
-0.425
-0.44
-0.455
-0.45
-0.45
-0.44
-0.435
-0.435
-0.44
-0.44
-0.435
-0.435
-0.445
-0.46
-0.455
-0.46
-0.455
-0.445
-0.44
-0.45
-0.45
-0.465
-0.45
-0.46
-0.455
-0.47
-0.48
-0.485
-0.475
-0.455
-0.45
-0.44
-0.455
-0.455
-0.45
-0.445
-0.435
-0.435
-0.435
-0.445
-0.425
-0.405
-0.39
-0.385
-0.385
-0.375
-0.365
-0.345
-0.345
-0.345
-0.35
-0.355
-0.34
-0.335
-0.335
-0.335
-0.335
-0.335
-0.33
-0.32
-0.32
-0.34
-0.345
-0.365
-0.35
-0.335
-0.34
-0.35
-0.35
-0.365
-0.355
-0.345
-0.345
-0.345
-0.345
-0.345
-0.33
-0.335
-0.34
-0.35
-0.36
-0.365
-0.365
-0.345
-0.355
-0.36
-0.37
-0.375
-0.375
-0.375
-0.38
-0.39
-0.39
-0.4
-0.38
-0.37
-0.38
-0.385
-0.39
-0.395
-0.39
-0.39
-0.405
-0.41
-0.405
-0.41
-0.39
-0.385
-0.37
-0.385
-0.39
-0.4
-0.385
-0.39
-0.385
-0.39
-0.4
-0.405
-0.385
-0.38
-0.38
-0.38
-0.39
-0.395
-0.385
-0.375
-0.375
-0.37
-0.39
-0.41
-0.39
-0.385
-0.39
-0.405
-0.415
-0.4
-0.39
-0.37
-0.37
-0.37
-0.375
-0.39
-0.38
-0.365
-0.37
-0.36
-0.37
-0.37
-0.34
-0.335
-0.33
-0.33
-0.34
-0.33
-0.325
-0.31
-0.31
-0.305
-0.305
-0.3
-0.295
-0.265
-0.265
-0.265
-0.275
-0.275
-0.275
-0.26
-0.26
-0.27
-0.285
-0.29
-0.285
-0.275
-0.26
-0.27
-0.265
-0.285
-0.295
-0.315
-0.315
-0.34
-0.355
-0.385
-0.4
-0.385
-0.39
-0.395
-0.405
-0.42
-0.425
-0.41
-0.405
-0.4
-0.4
-0.41
-0.405
-0.395
-0.39
-0.405
-0.415
-0.415
-0.42
-0.43
-0.415
-0.42
-0.435
-0.43
-0.425
-0.435
-0.46
-0.495
-0.52
-0.55
-0.585
-0.615
-0.58
-0.505
-0.39
-0.255
-0.08
0.15
0.415
0.655
0.795
0.82
0.72
0.45
0.05
-0.29
-0.495
-0.575
-0.58
-0.565
-0.525
-0.485
-0.49
-0.485
-0.47
-0.465
-0.465
-0.47
-0.475
-0.485
-0.47
-0.465
-0.465
-0.47
-0.485
-0.495
-0.495
-0.485
-0.48
-0.47
-0.485
-0.485
-0.475
-0.45
-0.455
-0.47
-0.475
-0.5
-0.485
-0.48
-0.485
-0.475
-0.48
-0.485
-0.46
-0.46
-0.45
-0.455
-0.475
-0.47
-0.46
-0.46
-0.47
-0.465
-0.47
-0.485
-0.47
-0.475
-0.47
-0.49
-0.485
-0.49
-0.475
-0.475
-0.47
-0.485
-0.49
-0.5
-0.485
-0.46
-0.455
-0.47
-0.47
-0.485
-0.48
-0.475
-0.485
-0.49
-0.495
-0.49
-0.495
-0.495
-0.495
-0.495
-0.51
-0.51
-0.49
-0.49
-0.49
-0.5
-0.515
-0.535
-0.515
-0.51
-0.51
-0.53
-0.54
-0.55
-0.54
-0.535
-0.545
-0.54
-0.55
-0.535
-0.54
-0.525
-0.505
-0.5
-0.5
-0.5
-0.47
-0.445
-0.43
-0.42
-0.415
-0.415
-0.405
-0.385
-0.38
-0.38
-0.38
-0.375
-0.36
-0.36
-0.345
-0.35
-0.345
-0.365
-0.35
-0.34
-0.34
-0.345
-0.36
-0.355
-0.34
-0.34
-0.34
-0.34
-0.35
-0.345
-0.335
-0.32
-0.325
-0.32
-0.335
-0.335
-0.33
-0.32
-0.32
-0.33
-0.34
-0.355
-0.345
-0.335
-0.34
-0.35
-0.355
-0.365
-0.355
-0.355
-0.35
-0.355
-0.365
-0.365
-0.36
-0.355
-0.35
-0.345
-0.365
-0.375
-0.35
-0.34
-0.35
-0.36
-0.37
-0.37
-0.355
-0.345
-0.34
-0.35
-0.355
-0.36
-0.35
-0.325
-0.335
-0.335
-0.35
-0.355
-0.355
-0.35
-0.345
-0.345
-0.345
-0.355
-0.33
-0.34
-0.34
-0.325
-0.335
-0.345
-0.33
-0.325
-0.33
-0.335
-0.35
-0.355
-0.345
-0.325
-0.33
-0.36
-0.35
-0.355
-0.34
-0.335
-0.33
-0.325
-0.335
-0.34
-0.32
-0.305
-0.3
-0.295
-0.31
-0.305
-0.295
-0.28
-0.275
-0.275
-0.275
-0.285
-0.27
-0.255
-0.255
-0.255
-0.25
-0.25
-0.23
-0.23
-0.22
-0.23
-0.245
-0.265
-0.245
-0.23
-0.225
-0.235
-0.245
-0.23
-0.2
-0.195
-0.21
-0.255
-0.29
-0.315
-0.305
-0.315
-0.325
-0.34
-0.37
-0.37
-0.35
-0.34
-0.345
-0.355
-0.36
-0.375
-0.365
-0.365
-0.36
-0.365
-0.375
-0.39
-0.375
-0.375
-0.38
-0.375
-0.38
-0.385
-0.38
-0.375
-0.375
-0.415
-0.45
-0.49
-0.51
-0.52
-0.565
-0.59
-0.57
-0.485
-0.375
-0.275
-0.2
-0.125
-0.04
0.065
0.24
0.435
0.655
0.835
0.915
0.9
0.69
0.35
-0.065
-0.385
-0.52
-0.515
-0.455
-0.415
-0.405
-0.41
-0.42
-0.425
-0.415
-0.405
-0.42
-0.415
-0.42
-0.44
-0.425
-0.43
-0.43
-0.425
-0.43
-0.44
-0.44
-0.43
-0.42
-0.435
-0.44
-0.435
-0.42
-0.41
-0.415
-0.415
-0.42
-0.42
-0.41
-0.415
-0.415
-0.42
-0.435
-0.435
-0.445
-0.42
-0.42
-0.435
-0.445
-0.43
-0.425
-0.425
-0.425
-0.44
-0.44
-0.445
-0.435
-0.44
-0.42
-0.435
-0.435
-0.445
-0.42
-0.42
-0.415
-0.425
-0.435
-0.435
-0.425
-0.425
-0.415
-0.43
-0.435
-0.445
-0.43
-0.43
-0.435
-0.435
-0.445
-0.45
-0.445
-0.435
-0.445
-0.445
-0.46
-0.465
-0.46
-0.445
-0.455
-0.46
-0.465
-0.47
-0.46
-0.46
-0.45
-0.45
-0.445
-0.455
-0.45
-0.44
-0.435
-0.43
-0.44
-0.445
-0.44
-0.44
-0.435
-0.435
-0.44
-0.445
-0.415
-0.395
-0.375
-0.37
-0.38
-0.365
-0.355
-0.335
-0.33
-0.33
-0.325
-0.33
-0.32
-0.305
-0.3
-0.3
-0.3
-0.31
-0.295
-0.29
-0.285
-0.285
-0.31
-0.305
-0.31
-0.295
-0.3
-0.3
-0.31
-0.32
-0.31
-0.295
-0.305
-0.305
-0.31
-0.32
-0.315
-0.31
-0.305
-0.315
-0.325
-0.335
-0.325
-0.31
-0.315
-0.315
-0.325
-0.33
-0.32
-0.315
-0.31
-0.32
-0.33
-0.35
-0.34
-0.34
-0.33
-0.34
-0.34
-0.345
-0.34
-0.34
-0.34
-0.355
-0.355
-0.355
-0.345
-0.33
-0.335
-0.335
-0.345
-0.355
-0.34
-0.34
-0.335
-0.345
-0.355
-0.36
-0.36
-0.345
-0.35
-0.34
-0.355
-0.355
-0.35
-0.33
-0.35
-0.345
-0.35
-0.35
-0.34
-0.325
-0.32
-0.325
-0.32
-0.32
-0.3
-0.285
-0.28
-0.285
-0.285
-0.28
-0.27
-0.255
-0.255
-0.25
-0.25
-0.24
-0.235
-0.215
-0.215
-0.22
-0.24
-0.255
-0.25
-0.245
-0.23
-0.235
-0.245
-0.245
-0.225
-0.195
-0.185
-0.215
-0.24
-0.28
-0.28
-0.285
-0.29
-0.305
-0.32
-0.335
-0.34
-0.35
-0.355
-0.36
-0.365
-0.365
-0.37
-0.365
-0.365
-0.37
-0.38
-0.395
-0.385
-0.375
-0.38
-0.385
-0.395
-0.4
-0.385
-0.365
-0.36
-0.37
-0.385
-0.39
-0.38
-0.4
-0.435
-0.475
-0.5
-0.525
-0.555
-0.6
-0.57
-0.495
-0.37
-0.23
-0.055
0.155
0.43
0.685
0.85
0.915
0.87
0.66
0.295
-0.125
-0.415
-0.525
-0.495
-0.44
-0.4
-0.395
-0.405
-0.41
-0.41
-0.405
-0.405
-0.42
-0.43
-0.43
-0.435
-0.415
-0.41
-0.415
-0.44
-0.445
-0.445
-0.43
-0.425
-0.42
-0.43
-0.45
-0.44
-0.42
-0.435
-0.435
-0.44
-0.445
-0.435
-0.425
-0.425
-0.415
-0.415
-0.425
-0.42
-0.42
-0.405
-0.415
-0.415
-0.42
-0.42
-0.41
-0.415
-0.43
-0.425
-0.435
-0.415
-0.415
-0.41
-0.42
-0.42
-0.425
-0.425
-0.415
-0.4
-0.4
-0.41
-0.415
-0.41
-0.41
-0.41
-0.41
-0.425
-0.425
-0.415
-0.435
-0.425
-0.425
-0.425
-0.44
-0.43
-0.41
-0.42
-0.43
-0.435
-0.445
-0.43
-0.43
-0.435
-0.43
-0.43
-0.44
-0.435
-0.425
-0.425
-0.425
-0.43
-0.445
-0.425
-0.43
-0.41
-0.42
-0.42
-0.43
-0.42
-0.405
-0.405
-0.41
-0.41
-0.405
-0.385
-0.38
-0.375
-0.365
-0.37
-0.365
-0.335
-0.325
-0.315
-0.32
-0.32
-0.33
-0.315
-0.29
-0.29
-0.29
-0.305
-0.305
-0.285
-0.275
-0.29
-0.29
-0.285
-0.295
-0.3
-0.29
-0.285
-0.29
-0.305
-0.3
-0.305
-0.29
-0.295
-0.305
-0.31
-0.315
-0.31
-0.295
-0.295
-0.295
-0.305
-0.3
-0.305
-0.31
-0.3
-0.3
-0.305
-0.31
-0.31
-0.3
-0.305
-0.3
-0.32
-0.325
-0.325
-0.32
-0.305
-0.315
-0.325
-0.335
-0.325
-0.315
-0.32
-0.335
-0.35
-0.345
-0.335
-0.33
-0.32
-0.33
-0.335
-0.34
-0.33
-0.315
-0.32
-0.31
-0.315
-0.335
-0.32
-0.315
-0.315
-0.31
-0.325
-0.325
-0.335
-0.335
-0.325
-0.325
-0.335
-0.345
-0.34
-0.32
-0.325
-0.325
-0.335
-0.35
-0.335
-0.32
-0.33
-0.325
-0.325
-0.34
-0.325
-0.305
-0.29
-0.275
-0.29
-0.28
-0.27
-0.26
-0.245
-0.255
-0.25
-0.245
-0.235
-0.205
-0.2
-0.21
-0.205
-0.205
-0.21
-0.2
-0.215
-0.22
-0.215
-0.22
-0.21
-0.205
-0.2
-0.19
-0.175
-0.19
-0.22
-0.24
-0.25
-0.26
-0.28
-0.3
-0.315
-0.315
-0.33
-0.33
-0.335
-0.34
-0.325
-0.33
-0.31
-0.31
-0.315
-0.32
-0.32
-0.315
-0.32
-0.325
-0.345
-0.35
-0.34
-0.335
-0.335
-0.335
-0.35
-0.35
-0.345
-0.33
-0.335
-0.35
-0.36
-0.375
-0.405
-0.435
-0.47
-0.51
-0.565
-0.58
-0.53
-0.41
-0.27
-0.115
0.06
0.285
0.57
0.795
0.93
0.935
0.765
0.405
0.0
-0.32
-0.465
-0.485
-0.45
-0.41
-0.385
-0.38
-0.375
-0.385
-0.38
-0.385
-0.39
-0.39
-0.385
-0.39
-0.4
-0.4
-0.39
-0.38
-0.385
-0.385
-0.395
-0.395
-0.385
-0.375
-0.37
-0.375
-0.39
-0.39
-0.38
-0.36
-0.37
-0.38
-0.39
-0.41
-0.4
-0.385
-0.385
-0.375
-0.395
-0.395
-0.385
-0.38
-0.36
-0.365
-0.37
-0.37
-0.365
-0.36
-0.36
-0.375
-0.385
-0.385
-0.375
-0.37
-0.36
-0.36
-0.37
-0.375
-0.37
-0.365
-0.365
-0.37
-0.375
-0.38
-0.385
-0.375
-0.375
-0.38
-0.38
-0.39
-0.38
-0.385
-0.37
-0.385
-0.38
-0.395
-0.39
-0.375
-0.385
-0.385
-0.385
-0.4
-0.38
-0.38
-0.39
-0.385
-0.405
-0.41
-0.415
-0.415
-0.405
-0.415
-0.41
-0.415
-0.405
-0.395
-0.395
-0.405
-0.41
-0.415
-0.39
-0.37
-0.345
-0.35
-0.335
-0.34
-0.33
-0.315
-0.32
-0.3
-0.305
-0.31
-0.295
-0.285
-0.27
-0.275
-0.29
-0.29
-0.285
-0.27
-0.275
-0.285
-0.285
-0.3
-0.285
-0.29
-0.28
-0.275
-0.28
-0.29
-0.305
-0.28
-0.28
-0.28
-0.285
-0.29
-0.275
-0.275
-0.265
-0.27
-0.285
-0.295
-0.29
-0.295
-0.285
-0.285
-0.29
-0.305
-0.3
-0.3
-0.3
-0.31
-0.32
-0.32
-0.315
-0.315
-0.31
-0.32
-0.33
-0.325
-0.32
-0.315
-0.31
-0.32
-0.32
-0.315
-0.305
-0.305
-0.305
-0.325
-0.34
-0.355
-0.35
-0.345
-0.335
-0.34
-0.335
-0.34
-0.325
-0.325
-0.34
-0.35
-0.35
-0.36
-0.335
-0.32
-0.32
-0.32
-0.34
-0.33
-0.32
-0.32
-0.32
-0.315
-0.325
-0.34
-0.34
-0.325
-0.32
-0.325
-0.34
-0.33
-0.33
-0.32
-0.335
-0.345
-0.345
-0.345
-0.34
-0.315
-0.315
-0.325
-0.32
-0.31
-0.305
-0.305
-0.3
-0.3
-0.285
-0.29
-0.27
-0.255
-0.245
-0.255
-0.26
-0.275
-0.255
-0.24
-0.24
-0.235
-0.245
-0.235
-0.22
-0.2
-0.2
-0.225
-0.245
-0.245
-0.235
-0.22
-0.23
-0.23
-0.23
-0.235
-0.2
-0.19
-0.21
-0.255
-0.295
-0.305
-0.305
-0.33
-0.325
-0.34
-0.35
-0.36
-0.355
-0.335
-0.36
-0.355
-0.375
-0.385
-0.37
-0.345
-0.34
-0.34
-0.36
-0.375
-0.37
-0.37
-0.365
-0.38
-0.38
-0.39
-0.38
-0.385
-0.395
-0.425
-0.46
-0.49
-0.505
-0.54
-0.545
-0.49
-0.385
-0.24
-0.07
0.145
0.43
0.67
0.84
0.895
0.805
0.55
0.17
-0.145
-0.35
-0.47
-0.525
-0.545
-0.555
-0.56
-0.55
-0.52
-0.475
-0.455
-0.435
-0.445
-0.45
-0.44
-0.425
-0.415
-0.415
-0.425
-0.44
-0.44
-0.41
-0.42
-0.415
-0.415
-0.42
-0.425
-0.415
-0.4
-0.415
-0.42
-0.42
-0.435
-0.435
-0.435
-0.43
-0.435
-0.435
-0.445
-0.42
-0.445
-0.435
-0.42
-0.445
-0.44
-0.43
-0.42
-0.41
-0.425
-0.425
-0.435
-0.42
-0.425
-0.425
-0.42
-0.43
-0.44
-0.425
-0.425
-0.425
-0.435
-0.44
-0.445
-0.43
-0.41
-0.41
-0.41
-0.415
-0.43
-0.42
-0.4
-0.405
-0.42
-0.44
-0.45
-0.435
-0.45
-0.43
-0.45
-0.465
-0.485
-0.48
-0.475
-0.47
-0.48
-0.475
-0.5
-0.5
-0.49
-0.5
-0.5
-0.515
-0.53
-0.52
-0.505
-0.495
-0.485
-0.48
-0.48
-0.465
-0.455
-0.42
-0.42
-0.405
-0.4
-0.37
-0.36
-0.345
-0.345
-0.335
-0.335
-0.32
-0.31
-0.305
-0.31
-0.32
-0.325
-0.305
-0.285
-0.28
-0.285
-0.295
-0.295
-0.285
-0.285
-0.29
-0.285
-0.295
-0.305
-0.295
-0.285
-0.295
-0.28
-0.3
-0.3
-0.3
-0.295
-0.29
-0.305
-0.305
-0.31
-0.305
-0.29
-0.29
-0.295
-0.31
-0.315
-0.31
-0.3
-0.29
-0.295
-0.305
-0.315
-0.3
-0.285
-0.295
-0.305
-0.315
-0.33
-0.325
-0.305
-0.31
-0.31
-0.315
-0.315
-0.31
-0.305
-0.305
-0.3
-0.305
-0.305
-0.305
-0.29
-0.295
-0.285
-0.295
-0.3
-0.31
-0.295
-0.295
-0.29
-0.295
-0.315
-0.3
-0.295
-0.29
-0.3
-0.31
-0.315
-0.305
-0.305
-0.3
-0.295
-0.305
-0.305
-0.295
-0.29
-0.285
-0.285
-0.29
-0.3
-0.285
-0.285
-0.28
-0.295
-0.305
-0.295
-0.29
-0.26
-0.25
-0.265
-0.27
-0.27
-0.255
-0.23
-0.225
-0.23
-0.24
-0.23
-0.21
-0.19
-0.175
-0.185
-0.195
-0.195
-0.17
-0.175
-0.175
-0.19
-0.21
-0.205
-0.205
-0.19
-0.185
-0.195
-0.19
-0.185
-0.17
-0.185
-0.205
-0.24
-0.255
-0.275
-0.285
-0.3
-0.3
-0.305
-0.32
-0.325
-0.32
-0.3
-0.3
-0.31
-0.315
-0.33
-0.335
-0.325
-0.33
-0.33
-0.33
-0.35
-0.34
-0.335
-0.335
-0.33
-0.345
-0.355
-0.375
-0.39
-0.425
-0.46
-0.48
-0.525
-0.53
-0.47
-0.34
-0.175
-0.005
0.225
0.535
0.81
0.965
0.99
0.79
0.39
-0.055
-0.375
-0.49
-0.47
-0.425
-0.395
-0.37
-0.365
-0.37
-0.375
-0.375
-0.385
-0.375
-0.375
-0.375
-0.375
-0.39
-0.385
-0.39
-0.38
-0.375
-0.375
-0.385
-0.395
-0.385
-0.385
-0.39
-0.385
-0.395
-0.39
-0.39
-0.375
-0.385
-0.395
-0.405
-0.41
-0.4
-0.385
-0.38
-0.39
-0.385
-0.4
-0.38
-0.375
-0.37
-0.39
-0.395
-0.395
-0.395
-0.375
-0.375
-0.38
-0.39
-0.4
-0.39
-0.385
-0.385
-0.39
-0.405
-0.4
-0.395
-0.39
-0.385
-0.385
-0.39
-0.39
-0.38
-0.37
-0.375
-0.385
-0.385
-0.4
-0.385
-0.39
-0.385
-0.385
-0.395
-0.4
-0.405
-0.4
-0.4
-0.405
-0.43
-0.435
-0.42
-0.41
-0.405
-0.42
-0.41
-0.42
-0.41
-0.39
-0.4
-0.39
-0.395
-0.39
-0.385
-0.355
-0.35
-0.34
-0.325
-0.32
-0.295
-0.285
-0.28
-0.28
-0.285
-0.3
-0.275
-0.27
-0.245
-0.25
-0.255
-0.245
-0.245
-0.245
-0.235
-0.24
-0.255
-0.26
-0.255
-0.24
-0.245
-0.245
-0.265
-0.255
-0.25
-0.24
-0.26
-0.255
-0.265
-0.27
-0.26
-0.245
-0.245
-0.245
-0.255
-0.26
-0.26
-0.255
-0.245
-0.265
-0.275
-0.275
-0.275
-0.26
-0.26
-0.27
-0.28
-0.29
-0.275
-0.285
-0.275
-0.285
-0.29
-0.3
-0.3
-0.295
-0.285
-0.285
-0.29
-0.3
-0.3
-0.29
-0.29
-0.3
-0.305
-0.32
-0.295
-0.3
-0.29
-0.29
-0.3
-0.305
-0.3
-0.305
-0.3
-0.295
-0.32
-0.315
-0.305
-0.295
-0.29
-0.285
-0.285
-0.29
-0.28
-0.27
-0.25
-0.245
-0.245
-0.255
-0.24
-0.22
-0.215
-0.225
-0.23
-0.23
-0.21
-0.185
-0.18
-0.18
-0.185
-0.19
-0.185
-0.18
-0.185
-0.185
-0.195
-0.195
-0.175
-0.165
-0.17
-0.15
-0.135
-0.16
-0.195
-0.225
-0.225
-0.23
-0.265
-0.285
-0.285
-0.295
-0.29
-0.3
-0.32
-0.33
-0.305
-0.305
-0.305
-0.305
-0.325
-0.325
-0.315
-0.31
-0.31
-0.32
-0.335
-0.335
-0.33
-0.335
-0.315
-0.34
-0.335
-0.34
-0.34
-0.335
-0.35
-0.365
-0.4
-0.445
-0.455
-0.445
-0.455
-0.495
-0.55
-0.55
-0.455
-0.285
-0.115
0.08
0.33
0.615
0.865
1.0
0.965
0.705
0.275
-0.19
-0.455
-0.49
-0.42
-0.36
-0.355
-0.385
-0.385
-0.365
-0.355
-0.365
-0.375
-0.39
-0.385
-0.39
-0.38
-0.385
-0.395
-0.405
-0.405
-0.4
-0.39
-0.39
-0.39
-0.4
-0.395
-0.39
-0.385
-0.38
-0.39
-0.385
-0.38
-0.37
-0.365
-0.375
-0.375
-0.385
-0.375
-0.37
-0.37
-0.375
-0.375
-0.39
-0.38
-0.38
-0.37
-0.37
-0.385
-0.395
-0.385
-0.38
-0.375
-0.38
-0.385
-0.385
-0.37
-0.365
-0.36
-0.35
-0.37
-0.365
-0.355
-0.355
-0.355
-0.355
-0.365
-0.38
-0.37
-0.375
-0.365
-0.375
-0.375
-0.395
-0.38
-0.375
-0.375
-0.375
-0.39
-0.395
-0.39
-0.385
-0.38
-0.385
-0.395
-0.395
-0.385
-0.38
-0.37
-0.38
-0.365
-0.38
-0.36
-0.345
-0.34
-0.33
-0.325
-0.33
-0.315
-0.295
-0.285
-0.28
-0.29
-0.29
-0.28
-0.255
-0.25
-0.25
-0.25
-0.255
-0.25
-0.235
-0.225
-0.24
-0.245
-0.255
-0.255
-0.25
-0.25
-0.245
-0.255
-0.265
-0.255
-0.25
-0.25
-0.255
-0.255
-0.275
-0.265
-0.255
-0.26
-0.265
-0.28
-0.28
-0.255
-0.25
-0.24
-0.25
-0.255
-0.265
-0.27
-0.265
-0.255
-0.26
-0.27
-0.275
-0.26
-0.265
-0.27
-0.275
-0.29
-0.29
-0.29
-0.28
-0.27
-0.285
-0.29
-0.31
-0.315
-0.305
-0.31
-0.31
-0.305
-0.31
-0.315
-0.295
-0.295
-0.295
-0.3
-0.31
-0.295
-0.305
-0.3
-0.3
-0.3
-0.31
-0.305
-0.295
-0.29
-0.295
-0.305
-0.3
-0.31
-0.285
-0.28
-0.285
-0.285
-0.295
-0.285
-0.265
-0.255
-0.255
-0.255
-0.255
-0.24
-0.225
-0.225
-0.215
-0.225
-0.235
-0.22
-0.21
-0.19
-0.18
-0.185
-0.18
-0.175
-0.17
-0.17
-0.17
-0.195
-0.215
-0.195
-0.17
-0.165
-0.18
-0.18
-0.165
-0.135
-0.13
-0.11
-0.135
-0.18
-0.215
-0.225
-0.23
-0.22
-0.245
-0.25
-0.275
-0.275
-0.285
-0.285
-0.295
-0.295
-0.31
-0.305
-0.3
-0.29
-0.305
-0.32
-0.32
-0.32
-0.32
-0.31
-0.315
-0.325
-0.335
-0.335
-0.31
-0.315
-0.325
-0.33
-0.335
-0.345
-0.36
-0.395
-0.43
-0.445
-0.5
-0.535
-0.53
-0.435
-0.295
-0.155
0.035
0.285
0.575
0.82
0.965
0.97
0.795
0.45
0.04
-0.285
-0.46
-0.46
-0.405
-0.355
-0.34
-0.35
-0.36
-0.35
-0.355
-0.36
-0.35
-0.345
-0.36
-0.365
-0.38
-0.365
-0.355
-0.35
-0.36
-0.365
-0.375
-0.37
-0.36
-0.36
-0.365
-0.37
-0.38
-0.37
-0.355
-0.355
-0.365
-0.365
-0.375
-0.37
-0.36
-0.35
-0.36
-0.365
-0.375
-0.37
-0.355
-0.345
-0.345
-0.355
-0.36
-0.355
-0.335
-0.34
-0.35
-0.345
-0.355
-0.345
-0.335
-0.34
-0.35
-0.355
-0.375
-0.365
-0.365
-0.355
-0.355
-0.37
-0.37
-0.37
-0.36
-0.345
-0.35
-0.36
-0.365
-0.37
-0.36
-0.35
-0.365
-0.38
-0.38
-0.38
-0.375
-0.375
-0.375
-0.385
-0.39
-0.375
-0.375
-0.365
-0.38
-0.375
-0.385
-0.37
-0.375
-0.355
-0.36
-0.365
-0.37
-0.375
-0.36
-0.355
-0.355
-0.35
-0.35
-0.335
-0.32
-0.3
-0.295
-0.295
-0.29
-0.265
-0.265
-0.245
-0.25
-0.26
-0.265
-0.25
-0.25
-0.235
-0.25
-0.25
-0.265
-0.265
-0.24
-0.235
-0.25
-0.255
-0.265
-0.255
-0.245
-0.24
-0.24
-0.245
-0.27
-0.25
-0.24
-0.23
-0.245
-0.26
-0.265
-0.26
-0.25
-0.23
-0.24
-0.255
-0.28
-0.27
-0.25
-0.245
-0.255
-0.26
-0.26
-0.265
-0.265
-0.27
-0.275
-0.275
-0.3
-0.28
-0.275
-0.27
-0.275
-0.28
-0.28
-0.295
-0.29
-0.285
-0.29
-0.29
-0.31
-0.3
-0.29
-0.285
-0.28
-0.28
-0.29
-0.28
-0.28
-0.28
-0.285
-0.305
-0.33
-0.315
-0.3
-0.295
-0.305
-0.305
-0.31
-0.315
-0.315
-0.3
-0.3
-0.31
-0.325
-0.32
-0.31
-0.305
-0.3
-0.31
-0.3
-0.315
-0.285
-0.295
-0.295
-0.29
-0.315
-0.31
-0.3
-0.3
-0.29
-0.29
-0.305
-0.305
-0.305
-0.3
-0.3
-0.31
-0.315
-0.295
-0.275
-0.255
-0.255
-0.255
-0.26
-0.255
-0.235
-0.23
-0.215
-0.24
-0.24
-0.23
-0.215
-0.215
-0.21
-0.22
-0.23
-0.2
-0.195
-0.19
-0.19
-0.2
-0.22
-0.21
-0.195
-0.19
-0.19
-0.195
-0.19
-0.175
-0.18
-0.21
-0.235
-0.255
-0.275
-0.295
-0.31
-0.305
-0.315
-0.32
-0.34
-0.335
-0.325
-0.315
-0.32
-0.325
-0.345
-0.35
-0.335
-0.335
-0.34
-0.33
-0.33
-0.325
-0.33
-0.31
-0.305
-0.325
-0.34
-0.33
-0.325
-0.325
-0.325
-0.335
-0.35
-0.355
-0.35
-0.35
-0.38
-0.43
-0.465
-0.475
-0.51
-0.54
-0.515
-0.45
-0.34
-0.185
-0.035
0.165
0.4
0.62
0.785
0.88
0.865
0.655
0.325
-0.01
-0.26
-0.405
-0.445
-0.435
-0.4
-0.395
-0.395
-0.39
-0.375
-0.365
-0.37
-0.37
-0.38
-0.38
-0.385
-0.38
-0.395
-0.405
-0.385
-0.38
-0.375
-0.37
-0.375
-0.38
-0.4
-0.38
-0.375
-0.36
-0.355
-0.36
-0.37
-0.37
-0.365
-0.37
-0.375
-0.385
-0.395
-0.39
-0.39
-0.375
-0.375
-0.39
-0.395
-0.385
-0.39
-0.385
-0.395
-0.385
-0.385
-0.38
-0.375
-0.38
-0.38
-0.38
-0.39
-0.385
-0.36
-0.355
-0.355
-0.37
-0.385
-0.38
-0.365
-0.365
-0.375
-0.385
-0.4
-0.385
-0.385
-0.375
-0.38
-0.375
-0.4
-0.39
-0.395
-0.385
-0.38
-0.4
-0.42
-0.395
-0.385
-0.375
-0.38
-0.405
-0.43
-0.42
-0.41
-0.415
-0.41
-0.43
-0.46
-0.455
-0.44
-0.435
-0.425
-0.43
-0.445
-0.46
-0.45
-0.44
-0.43
-0.42
-0.41
-0.39
-0.385
-0.365
-0.345
-0.345
-0.335
-0.32
-0.29
-0.29
-0.285
-0.305
-0.315
-0.305
-0.28
-0.265
-0.255
-0.26
-0.27
-0.26
-0.255
-0.245
-0.265
-0.27
-0.28
-0.275
-0.28
-0.265
-0.26
-0.26
-0.27
-0.27
-0.27
-0.255
-0.255
-0.265
-0.27
-0.265
-0.275
-0.27
-0.28
-0.275
-0.28
-0.27
-0.265
-0.26
-0.285
-0.29
-0.305
-0.29
-0.285
-0.29
-0.275
-0.295
-0.3
-0.31
-0.28
-0.28
-0.275
-0.3
-0.315
-0.31
-0.31
-0.3
-0.305
-0.305
-0.315
-0.315
-0.295
-0.295
-0.305
-0.32
-0.33
-0.325
-0.31
-0.305
-0.315
-0.32
-0.33
-0.325
-0.31
-0.305
-0.3
-0.305
-0.315
-0.3
-0.3
-0.29
-0.295
-0.3
-0.305
-0.3
-0.3
-0.295
-0.29
-0.3
-0.32
-0.31
-0.295
-0.29
-0.29
-0.295
-0.315
-0.31
-0.3
-0.31
-0.3
-0.315
-0.315
-0.31
-0.3
-0.3
-0.295
-0.3
-0.29
-0.29
-0.275
-0.27
-0.25
-0.26
-0.28
-0.265
-0.245
-0.215
-0.225
-0.23
-0.235
-0.22
-0.205
-0.19
-0.185
-0.19
-0.2
-0.185
-0.18
-0.185
-0.19
-0.205
-0.205
-0.19
-0.175
-0.165
-0.18
-0.18
-0.18
-0.165
-0.175
-0.2
-0.22
-0.235
-0.255
-0.265
-0.275
-0.275
-0.29
-0.305
-0.32
-0.31
-0.305
-0.305
-0.295
-0.31
-0.315
-0.31
-0.3
-0.295
-0.305
-0.32
-0.325
-0.32
-0.315
-0.315
-0.325
-0.325
-0.34
-0.335
-0.325
-0.31
-0.325
-0.335
-0.35
-0.36
-0.385
-0.41
-0.435
-0.47
-0.5
-0.535
-0.545
-0.51
-0.435
-0.345
-0.24
-0.11
0.02
0.2
0.43
0.64
0.8
0.93
0.98
0.91
0.66
0.27
-0.11
-0.35
-0.45
-0.455
-0.43
-0.405
-0.385
-0.375
-0.365
-0.38
-0.37
-0.375
-0.38
-0.38
-0.38
-0.375
-0.375
-0.375
-0.385
-0.38
-0.375
-0.37
-0.375
-0.385
-0.385
-0.385
-0.365
-0.365
-0.38
-0.385
-0.395
-0.385
-0.38
-0.37
-0.375
-0.405
-0.41
-0.405
-0.385
-0.385
-0.385
-0.395
-0.41
-0.395
-0.395
-0.38
-0.385
-0.385
-0.395
-0.385
-0.375
-0.37
-0.375
-0.38
-0.395
-0.385
-0.385
-0.38
-0.385
-0.385
-0.395
-0.385
-0.39
-0.375
-0.385
-0.395
-0.4
-0.4
-0.385
-0.375
-0.38
-0.39
-0.395
-0.39
-0.39
-0.38
-0.38
-0.385
-0.385
-0.395
-0.395
-0.38
-0.4
-0.405
-0.425
-0.425
-0.42
-0.415
-0.415
-0.43
-0.43
-0.44
-0.44
-0.425
-0.43
-0.435
-0.445
-0.435
-0.435
-0.42
-0.415
-0.405
-0.4
-0.38
-0.36
-0.35
-0.335
-0.325
-0.325
-0.31
-0.305
-0.275
-0.28
-0.295
-0.295
-0.275
-0.27
-0.255
-0.255
-0.265
-0.28
-0.27
-0.265
-0.245
-0.25
-0.26
-0.275
-0.255
-0.255
-0.25
-0.24
-0.255
-0.265
-0.265
-0.26
-0.255
-0.25
-0.24
-0.255
-0.255
-0.245
-0.255
-0.255
-0.26
-0.27
-0.27
-0.275
-0.255
-0.245
-0.26
-0.285
-0.265
-0.275
-0.275
-0.275
-0.285
-0.295
-0.29
-0.29
-0.29
-0.29
-0.295
-0.305
-0.29
-0.295
-0.285
-0.285
-0.285
-0.295
-0.295
-0.285
-0.3
-0.3
-0.295
-0.315
-0.31
-0.295
-0.3
-0.305
-0.31
-0.315
-0.315
-0.32
-0.3
-0.305
-0.315
-0.325
-0.315
-0.3
-0.3
-0.3
-0.31
-0.31
-0.3
-0.29
-0.275
-0.275
-0.275
-0.275
-0.27
-0.255
-0.235
-0.235
-0.245
-0.25
-0.24
-0.225
-0.205
-0.205
-0.195
-0.2
-0.19
-0.19
-0.19
-0.21
-0.215
-0.21
-0.205
-0.2
-0.19
-0.17
-0.155
-0.165
-0.185
-0.2
-0.225
-0.25
-0.26
-0.26
-0.265
-0.265
-0.28
-0.29
-0.305
-0.33
-0.34
-0.325
-0.32
-0.32
-0.32
-0.34
-0.335
-0.33
-0.325
-0.33
-0.345
-0.345
-0.36
-0.34
-0.34
-0.34
-0.355
-0.375
-0.36
-0.355
-0.345
-0.355
-0.375
-0.39
-0.43
-0.46
-0.475
-0.515
-0.565
-0.585
-0.52
-0.415
-0.275
-0.16
-0.045
0.085
0.295
0.55
0.8
0.985
1.055
0.97
0.7
0.27
-0.15
-0.405
-0.475
-0.445
-0.4
-0.365
-0.37
-0.385
-0.395
-0.4
-0.395
-0.385
-0.375
-0.39
-0.395
-0.41
-0.41
-0.4
-0.395
-0.405
-0.4
-0.415
-0.41
-0.395
-0.4
-0.4
-0.41
-0.42
-0.41
-0.405
-0.405
-0.41
-0.415
-0.425
-0.415
-0.405
-0.405
-0.4
-0.415
-0.415
-0.41
-0.41
-0.39
-0.39
-0.4
-0.405
-0.405
-0.4
-0.385
-0.385
-0.405
-0.425
-0.41
-0.405
-0.395
-0.4
-0.415
-0.425
-0.42
-0.41
-0.39
-0.4
-0.41
-0.425
-0.405
-0.405
-0.395
-0.395
-0.415
-0.415
-0.415
-0.405
-0.4
-0.385
-0.4
-0.41
-0.4
-0.39
-0.395
-0.4
-0.4
-0.415
-0.41
-0.41
-0.4
-0.4
-0.41
-0.425
-0.415
-0.42
-0.415
-0.415
-0.42
-0.42
-0.425
-0.405
-0.4
-0.405
-0.41
-0.415
-0.395
-0.375
-0.365
-0.35
-0.345
-0.35
-0.335
-0.32
-0.3
-0.3
-0.3
-0.305
-0.3
-0.29
-0.285
-0.29
-0.29
-0.29
-0.29
-0.28
-0.275
-0.275
-0.285
-0.285
-0.28
-0.265
-0.27
-0.27
-0.285
-0.285
-0.29
-0.275
-0.26
-0.275
-0.285
-0.295
-0.29
-0.29
-0.27
-0.285
-0.295
-0.31
-0.31
-0.31
-0.3
-0.3
-0.305
-0.32
-0.31
-0.305
-0.29
-0.3
-0.32
-0.325
-0.32
-0.315
-0.31
-0.315
-0.32
-0.34
-0.33
-0.315
-0.315
-0.325
-0.32
-0.335
-0.33
-0.32
-0.31
-0.32
-0.325
-0.335
-0.33
-0.325
-0.32
-0.315
-0.33
-0.34
-0.34
-0.325
-0.315
-0.325
-0.335
-0.34
-0.34
-0.33
-0.32
-0.32
-0.335
-0.335
-0.34
-0.335
-0.32
-0.325
-0.33
-0.33
-0.32
-0.305
-0.305
-0.305
-0.295
-0.275
-0.285
-0.255
-0.25
-0.245
-0.245
-0.25
-0.245
-0.235
-0.23
-0.21
-0.225
-0.225
-0.215
-0.2
-0.195
-0.195
-0.21
-0.22
-0.215
-0.215
-0.195
-0.2
-0.205
-0.2
-0.18
-0.155
-0.165
-0.215
-0.245
-0.27
-0.275
-0.28
-0.3
-0.335
-0.34
-0.355
-0.355
-0.335
-0.325
-0.33
-0.35
-0.35
-0.345
-0.34
-0.335
-0.335
-0.34
-0.365
-0.36
-0.355
-0.345
-0.355
-0.35
-0.37
-0.355
-0.365
-0.365
-0.36
-0.355
-0.375
-0.365
-0.38
-0.4
-0.44
-0.485
-0.52
-0.545
-0.58
-0.535
-0.415
-0.265
-0.1
0.1
0.36
0.635
0.84
0.945
0.92
0.73
0.385
-0.02
-0.35
-0.485
-0.48
-0.43
-0.385
-0.38
-0.38
-0.395
-0.41
-0.405
-0.39
-0.395
-0.395
-0.4
-0.405
-0.41
-0.4
-0.395
-0.395
-0.4
-0.415
-0.41
-0.4
-0.4
-0.395
-0.4
-0.405
-0.41
-0.41
-0.4
-0.39
-0.4
-0.415
-0.405
-0.41
-0.395
-0.395
-0.41
-0.415
-0.415
-0.405
-0.395
-0.39
-0.4
-0.41
-0.41
-0.405
-0.39
-0.39
-0.41
-0.405
-0.41
-0.395
-0.385
-0.395
-0.4
-0.415
-0.4
-0.395
-0.385
-0.395
-0.4
-0.405
-0.415
-0.405
-0.4
-0.4
-0.405
-0.42
-0.41
-0.405
-0.39
-0.4
-0.41
-0.425
-0.415
-0.405
-0.405
-0.425
-0.43
-0.435
-0.435
-0.425
-0.415
-0.41
-0.415
-0.425
-0.425
-0.4
-0.41
-0.41
-0.43
-0.42
-0.415
-0.385
-0.38
-0.37
-0.385
-0.385
-0.38
-0.36
-0.355
-0.34
-0.34
-0.345
-0.34
-0.315
-0.3
-0.3
-0.295
-0.31
-0.29
-0.285
-0.275
-0.28
-0.29
-0.29
-0.28
-0.265
-0.27
-0.27
-0.275
-0.285
-0.285
-0.29
-0.29
-0.285
-0.3
-0.305
-0.3
-0.29
-0.285
-0.295
-0.295
-0.3
-0.295
-0.29
-0.29
-0.29
-0.295
-0.305
-0.31
