Lead II
-0.415
-0.41
-0.4
-0.39
-0.385
-0.395
-0.39
-0.38
-0.38
-0.36
-0.355
-0.39
-0.385
-0.385
-0.38
-0.375
-0.37
-0.38
-0.4
-0.415
-0.42
-0.41
-0.425
-0.44
-0.46
-0.465
-0.45
-0.45
-0.445
-0.45
-0.45
-0.455
-0.44
-0.435
-0.425
-0.44
-0.445
-0.45
-0.43
-0.42
-0.42
-0.425
-0.44
-0.43
-0.405
-0.395
-0.39
-0.4
-0.45
-0.465
-0.465
-0.48
-0.495
-0.52
-0.515
-0.47
-0.34
-0.105
0.28
0.73
1.16
1.51
1.72
1.785
1.62
1.16
0.52
-0.12
-0.7
-0.705
-0.6
-0.545
-0.56
-0.575
-0.56
-0.525
-0.515
-0.5
-0.485
-0.44
-0.395
-0.36
-0.36
-0.36
-0.37
-0.365
-0.355
-0.355
-0.34
-0.35
-0.36
-0.37
-0.365
-0.325
-0.325
-0.33
-0.35
-0.35
-0.34
-0.33
-0.32
-0.31
-0.34
-0.33
-0.32
-0.31
-0.31
-0.31
-0.325
-0.315
-0.3
-0.29
-0.28
-0.29
-0.305
-0.3
-0.285
-0.28
-0.275
-0.285
-0.285
-0.29
-0.27
-0.265
-0.24
-0.26
-0.275
-0.25
-0.24
-0.23
-0.225
-0.225
-0.25
-0.235
-0.21
-0.205
-0.2
-0.22
-0.21
-0.205
-0.19
-0.165
-0.165
-0.15
-0.17
-0.17
-0.145
-0.115
-0.1
-0.1
-0.11
-0.09
-0.065
-0.05
-0.035
-0.03
-0.03
-0.015
0.0
0.04
0.065
0.06
0.075
0.09
0.12
0.155
0.18
0.2
0.215
0.235
0.265
0.3
0.325
0.355
0.365
0.38
0.41
0.445
0.48
0.49
0.505
0.515
0.555
0.58
0.595
0.61
0.62
0.625
0.65
0.665
0.645
0.625
0.59
0.56
0.52
0.49
0.435
0.385
0.315
0.275
0.22
0.18
0.125
0.07
-0.005
-0.05
-0.08
-0.12
-0.175
-0.21
-0.26
-0.28
-0.31
-0.315
-0.33
-0.37
-0.385
-0.405
-0.405
-0.4
-0.41
-0.42
-0.44
-0.45
-0.435
-0.435
-0.44
-0.44
-0.455
-0.47
-0.46
-0.44
-0.44
-0.45
-0.465
-0.465
-0.445
-0.435
-0.435
-0.44
-0.45
-0.46
-0.455
-0.435
-0.43
-0.435
-0.455
-0.45
-0.435
-0.425
-0.435
-0.435
-0.45
-0.455
-0.445
-0.43
-0.44
-0.445
-0.455
-0.465
-0.43
-0.42
-0.42
-0.435
-0.445
-0.455
-0.44
-0.425
-0.42
-0.43
-0.43
-0.435
-0.435
-0.42
-0.43
-0.44
-0.46
-0.445
-0.445
-0.425
-0.43
-0.45
-0.45
-0.455
-0.445
-0.44
-0.425
-0.445
-0.46
-0.46
-0.445
-0.445
-0.45
-0.455
-0.475
-0.47
-0.455
-0.445
-0.455
-0.455
-0.475
-0.465
-0.45
-0.44
-0.445
-0.455
-0.465
-0.47
-0.455
-0.45
-0.465
-0.46
-0.46
-0.46
-0.46
-0.44
-0.445
-0.445
-0.45
-0.46
-0.44
-0.44
-0.45
-0.455
-0.455
-0.455
-0.44
-0.44
-0.435
-0.455
-0.465
-0.465
-0.445
-0.445
-0.445
-0.445
-0.455
-0.46
-0.45
-0.44
-0.425
-0.44
-0.45
-0.45
-0.45
-0.435
-0.43
-0.445
-0.455
-0.455
-0.435
-0.435
-0.42
-0.435
-0.44
-0.445
-0.44
-0.42
-0.43
-0.435
-0.435
-0.435
-0.43
-0.415
-0.415
-0.425
-0.435
-0.445
-0.44
-0.425
-0.41
-0.41
-0.425
-0.43
-0.41
-0.395
-0.38
-0.38
-0.39
-0.38
-0.365
-0.35
-0.345
-0.37
-0.355
-0.355
-0.345
-0.33
-0.335
-0.35
-0.355
-0.37
-0.345
-0.34
-0.36
-0.37
-0.395
-0.4
-0.41
-0.4
-0.395
-0.405
-0.43
-0.43
-0.42
-0.405
-0.395
-0.395
-0.41
-0.41
-0.385
-0.375
-0.39
-0.385
-0.385
-0.395
-0.38
-0.37
-0.36
-0.36
-0.37
-0.375
-0.375
-0.375
-0.4
-0.445
-0.48
-0.505
-0.47
-0.39
-0.235
0.06
0.47
0.915
1.345
1.665
1.83
1.83
1.635
1.195
0.555
-0.085
-0.55
-0.67
-0.61
-0.54
-0.525
-0.535
-0.525
-0.515
-0.515
-0.49
-0.445
-0.385
-0.35
-0.33
-0.335
-0.325
-0.325
-0.3
-0.29
-0.305
-0.325
-0.305
-0.3
-0.28
-0.285
-0.295
-0.315
-0.3
-0.28
-0.265
-0.27
-0.285
-0.295
-0.28
-0.27
-0.25
-0.255
-0.26
-0.285
-0.27
-0.255
-0.23
-0.23
-0.23
-0.245
-0.255
-0.25
-0.22
-0.22
-0.225
-0.24
-0.24
-0.225
-0.21
-0.2
-0.2
-0.21
-0.215
-0.21
-0.18
-0.165
-0.18
-0.185
-0.18
-0.17
-0.155
-0.15
-0.14
-0.145
-0.145
-0.125
-0.1
-0.11
-0.12
-0.115
-0.105
-0.075
-0.075
-0.05
-0.055
-0.045
-0.04
-0.025
-0.005
0.03
0.02
0.04
0.04
0.055
0.095
0.115
0.13
0.135
0.16
0.2
0.24
0.26
0.27
0.28
0.305
0.345
0.395
0.42
0.435
0.445
0.475
0.5
0.545
0.58
0.6
0.605
0.62
0.655
0.68
0.695
0.705
0.7
0.695
0.67
0.685
0.65
0.605
0.535
0.48
0.43
0.395
0.33
0.26
0.18
0.115
0.07
0.025
-0.025
-0.09
-0.145
-0.19
-0.22
-0.23
-0.25
-0.275
-0.32
-0.335
-0.325
-0.34
-0.34
-0.355
-0.37
-0.38
-0.36
-0.36
-0.355
-0.375
-0.4
-0.41
-0.39
-0.37
-0.385
-0.385
-0.405
-0.405
-0.395
-0.39
-0.395
-0.405
-0.4
-0.4
-0.4
-0.4
-0.39
-0.395
-0.4
-0.415
-0.395
-0.385
-0.38
-0.39
-0.4
-0.405
-0.39
-0.385
-0.375
-0.385
-0.395
-0.4
-0.395
-0.38
-0.375
-0.385
-0.405
-0.41
-0.395
-0.385
-0.385
-0.4
-0.415
-0.41
-0.4
-0.375
-0.38
-0.395
-0.4
-0.41
-0.405
-0.395
-0.4
-0.4
-0.41
-0.42
-0.42
-0.405
-0.405
-0.405
-0.42
-0.44
-0.415
-0.4
-0.415
-0.425
-0.455
-0.455
-0.425
-0.41
-0.425
-0.42
-0.43
-0.43
-0.42
-0.415
-0.41
-0.43
-0.445
-0.445
-0.445
-0.415
-0.425
-0.425
-0.44
-0.445
-0.43
-0.415
-0.415
-0.43
-0.44
-0.445
-0.43
-0.42
-0.415
-0.43
-0.44
-0.455
-0.425
-0.42
-0.415
-0.44
-0.44
-0.445
-0.435
-0.42
-0.41
-0.43
-0.445
-0.435
-0.435
-0.395
-0.405
-0.41
-0.415
-0.425
-0.41
-0.4
-0.4
-0.405
-0.425
-0.43
-0.41
-0.405
-0.405
-0.405
-0.415
-0.425
-0.395
-0.385
-0.395
-0.405
-0.415
-0.415
-0.415
-0.405
-0.41
-0.42
-0.425
-0.42
-0.4
-0.395
-0.41
-0.405
-0.42
-0.42
-0.4
-0.39
-0.39
-0.4
-0.405
-0.42
-0.395
-0.38
-0.395
-0.395
-0.4
-0.405
-0.395
-0.38
-0.38
-0.4
-0.405
-0.405
-0.4
-0.38
-0.375
-0.38
-0.385
-0.385
-0.375
-0.355
-0.37
-0.37
-0.37
-0.36
-0.355
-0.315
-0.315
-0.33
-0.345
-0.345
-0.32
-0.295
-0.295
-0.305
-0.325
-0.32
-0.31
-0.3
-0.3
-0.305
-0.33
-0.355
-0.35
-0.33
-0.345
-0.375
-0.4
-0.395
-0.365
-0.36
-0.355
-0.365
-0.38
-0.38
-0.375
-0.345
-0.35
-0.36
-0.375
-0.375
-0.365
-0.34
-0.34
-0.335
-0.34
-0.35
-0.325
-0.315
-0.31
-0.34
-0.385
-0.425
-0.44
-0.46
-0.44
-0.4
-0.295
-0.05
0.32
0.81
1.275
1.64
1.835
1.875
1.705
1.245
0.605
-0.035
-0.67
-0.655
-0.52
-0.455
-0.455
-0.48
-0.5
-0.475
-0.43
-0.37
-0.32
-0.285
-0.29
-0.275
-0.28
-0.26
-0.26
-0.26
-0.28
-0.285
-0.265
-0.255
-0.255
-0.255
-0.27
-0.26
-0.245
-0.225
-0.225
-0.235
-0.25
-0.24
-0.235
-0.2
-0.21
-0.22
-0.24
-0.23
-0.21
-0.21
-0.205
-0.2
-0.21
-0.21
-0.195
-0.175
-0.175
-0.195
-0.195
-0.185
-0.175
-0.155
-0.15
-0.165
-0.17
-0.16
-0.145
-0.125
-0.12
-0.13
-0.135
-0.125
-0.105
-0.085
-0.08
-0.085
-0.1
-0.085
-0.05
-0.03
-0.02
-0.02
-0.02
-0.015
0.01
0.05
0.055
0.065
0.065
0.085
0.115
0.15
0.15
0.16
0.18
0.195
0.24
0.26
0.28
0.28
0.295
0.325
0.36
0.405
0.44
0.45
0.46
0.48
0.53
0.56
0.585
0.595
0.62
0.625
0.665
0.695
0.715
0.72
0.715
0.71
0.705
0.71
0.67
0.615
0.57
0.52
0.475
0.425
0.37
0.305
0.25
0.185
0.14
0.1
0.04
-0.015
-0.055
-0.115
-0.13
-0.15
-0.17
-0.205
-0.245
-0.265
-0.27
-0.28
-0.3
-0.31
-0.32
-0.335
-0.335
-0.33
-0.325
-0.35
-0.355
-0.365
-0.34
-0.34
-0.35
-0.35
-0.365
-0.36
-0.355
-0.35
-0.345
-0.355
-0.37
-0.37
-0.345
-0.335
-0.345
-0.35
-0.36
-0.365
-0.35
-0.34
-0.34
-0.345
-0.365
-0.355
-0.335
-0.325
-0.34
-0.34
-0.36
-0.35
-0.345
-0.34
-0.335
-0.34
-0.34
-0.345
-0.335
-0.325
-0.345
-0.355
-0.35
-0.35
-0.335
-0.325
-0.33
-0.335
-0.35
-0.355
-0.34
-0.335
-0.335
-0.345
-0.355
-0.385
-0.365
-0.35
-0.36
-0.345
-0.36
-0.36
-0.36
-0.34
-0.34
-0.345
-0.355
-0.36
-0.35
-0.34
-0.34
-0.355
-0.365
-0.36
-0.365
-0.34
-0.36
-0.355
-0.365
-0.355
-0.345
-0.34
-0.33
-0.365
-0.365
-0.365
-0.36
-0.34
-0.345
-0.36
-0.35
-0.37
-0.345
-0.34
-0.33
-0.345
-0.365
-0.375
-0.355
-0.345
-0.34
-0.35
-0.36
-0.365
-0.37
-0.35
-0.34
-0.35
-0.36
-0.365
-0.355
-0.325
-0.335
-0.35
-0.345
-0.345
-0.345
-0.315
-0.335
-0.34
-0.34
-0.34
-0.335
-0.325
-0.33
-0.335
-0.345
-0.345
-0.34
-0.33
-0.33
-0.335
-0.335
-0.34
-0.33
-0.325
-0.345
-0.355
-0.36
-0.335
-0.325
-0.32
-0.315
-0.335
-0.34
-0.32
-0.31
-0.29
-0.285
-0.3
-0.295
-0.29
-0.27
-0.255
-0.265
-0.29
-0.29
-0.265
-0.25
-0.235
-0.235
-0.265
-0.27
-0.26
-0.26
-0.245
-0.245
-0.27
-0.305
-0.31
-0.305
-0.29
-0.3
-0.3
-0.31
-0.31
-0.295
-0.28
-0.285
-0.29
-0.31
-0.305
-0.305
-0.28
-0.29
-0.29
-0.3
-0.285
-0.275
-0.27
-0.26
-0.265
-0.285
-0.31
-0.34
-0.375
-0.395
-0.41
-0.395
-0.295
-0.11
0.25
0.695
1.155
1.54
1.8
1.88
1.725
1.21
0.57
-0.07
-0.655
-0.585
-0.435
-0.38
-0.42
-0.435
-0.445
-0.425
-0.35
-0.32
-0.29
-0.26
-0.23
-0.2
-0.185
-0.185
-0.2
-0.21
-0.215
-0.195
-0.18
-0.18
-0.195
-0.195
-0.19
-0.18
-0.15
-0.155
-0.16
-0.165
-0.17
-0.15
-0.135
-0.125
-0.16
-0.16
-0.145
-0.13
-0.125
-0.12
-0.125
-0.14
-0.135
-0.13
-0.095
-0.095
-0.11
-0.115
-0.12
-0.105
-0.075
-0.065
-0.085
-0.08
-0.075
-0.065
-0.05
-0.05
-0.055
-0.055
-0.055
-0.03
-0.01
0.0
-0.015
-0.015
-0.005
0.015
0.03
0.05
0.045
0.04
0.05
0.085
0.1
0.11
0.11
0.11
0.13
0.16
0.205
0.21
0.225
0.22
0.25
0.27
0.3
0.325
0.345
0.33
0.365
0.415
0.42
0.465
0.48
0.495
0.53
0.56
0.59
0.615
0.625
0.64
0.665
0.7
0.75
0.765
0.78
0.78
0.8
0.835
0.835
0.84
0.8
0.78
0.75
0.715
0.7
0.65
0.575
0.485
0.425
0.38
0.33
0.27
0.215
0.15
0.095
0.06
0.025
-0.015
-0.055
-0.11
-0.135
-0.15
-0.155
-0.17
-0.21
-0.24
-0.25
-0.25
-0.235
-0.255
-0.265
-0.3
-0.295
-0.295
-0.27
-0.28
-0.305
-0.315
-0.31
-0.3
-0.3
-0.29
-0.31
-0.315
-0.315
-0.3
-0.29
-0.29
-0.31
-0.325
-0.31
-0.325
-0.315
-0.28
-0.295
-0.32
-0.305
-0.3
-0.29
-0.285
-0.28
-0.3
-0.29
-0.285
-0.28
-0.28
-0.275
-0.31
-0.295
-0.28
-0.265
-0.265
-0.27
-0.28
-0.28
-0.27
-0.27
-0.26
-0.27
-0.275
-0.28
-0.275
-0.265
-0.265
-0.29
-0.305
-0.295
-0.285
-0.28
-0.28
-0.29
-0.3
-0.32
-0.305
-0.295
-0.305
-0.325
-0.325
-0.325
-0.325
-0.305
-0.305
-0.315
-0.32
-0.315
-0.3
-0.3
-0.29
-0.31
-0.325
-0.31
-0.3
-0.3
-0.3
-0.32
-0.345
-0.345
-0.335
-0.315
-0.325
-0.33
-0.345
-0.355
-0.335
-0.32
-0.33
-0.335
-0.335
-0.34
-0.315
-0.3
-0.305
-0.32
-0.33
-0.33
-0.32
-0.315
-0.305
-0.34
-0.35
-0.345
-0.33
-0.31
-0.315
-0.32
-0.325
-0.325
-0.305
-0.295
-0.295
-0.32
-0.315
-0.34
-0.315
-0.31
-0.32
-0.315
-0.325
-0.32
-0.315
-0.3
-0.315
-0.33
-0.335
-0.325
-0.31
-0.29
-0.295
-0.285
-0.285
-0.275
-0.24
-0.235
-0.245
-0.25
-0.275
-0.24
-0.23
-0.215
-0.215
-0.23
-0.25
-0.255
-0.24
-0.22
-0.235
-0.245
-0.275
-0.285
-0.295
-0.28
-0.295
-0.31
-0.315
-0.325
-0.3
-0.3
-0.29
-0.31
-0.325
-0.32
-0.31
-0.29
-0.29
-0.305
-0.32
-0.305
-0.285
-0.26
-0.275
-0.265
-0.275
-0.28
-0.29
-0.315
-0.35
-0.385
-0.405
-0.39
-0.285
-0.07
0.29
0.755
1.235
1.65
1.925
1.975
1.73
1.16
0.52
-0.12
-0.655
-0.56
-0.445
-0.42
-0.455
-0.47
-0.43
-0.385
-0.345
-0.31
-0.265
-0.26
-0.24
-0.23
-0.23
-0.24
-0.24
-0.245
-0.235
-0.22
-0.205
-0.225
-0.235
-0.235
-0.21
-0.195
-0.21
-0.215
-0.21
-0.2
-0.185
-0.19
-0.175
-0.205
-0.205
-0.21
-0.17
-0.175
-0.17
-0.16
-0.175
-0.165
-0.16
-0.145
-0.14
-0.15
-0.16
-0.145
-0.12
-0.125
-0.12
-0.12
-0.125
-0.125
-0.11
-0.085
-0.085
-0.085
-0.1
-0.095
-0.075
-0.05
-0.04
-0.05
-0.055
-0.04
-0.015
0.005
0.02
0.005
0.005
0.02
0.045
0.07
0.08
0.08
0.09
0.1
0.14
0.16
0.185
0.185
0.21
0.225
0.265
0.29
0.315
0.325
0.34
0.38
0.415
0.455
0.48
0.495
0.515
0.54
0.58
0.625
0.645
0.655
0.675
0.69
0.735
0.765
0.78
0.76
0.75
0.755
0.75
0.72
0.665
0.59
0.515
0.45
0.385
0.315
0.23
0.13
0.05
-0.015
-0.075
-0.12
-0.15
-0.195
-0.245
-0.27
-0.29
-0.275
-0.29
-0.315
-0.34
-0.34
-0.335
-0.335
-0.34
-0.34
-0.36
-0.36
-0.35
-0.365
-0.36
-0.38
-0.38
-0.375
-0.355
-0.345
-0.345
-0.355
-0.375
-0.365
-0.36
-0.35
-0.36
-0.355
-0.37
-0.365
-0.36
-0.35
-0.33
-0.345
-0.365
-0.37
-0.35
-0.345
-0.345
-0.365
-0.365
-0.375
-0.35
-0.335
-0.345
-0.36
-0.38
-0.37
-0.365
-0.345
-0.35
-0.36
-0.385
-0.395
-0.37
-0.355
-0.36
-0.38
-0.38
-0.385
-0.375
-0.355
-0.36
-0.385
-0.4
-0.395
-0.38
-0.38
-0.39
-0.375
-0.38
-0.39
-0.39
-0.365
-0.37
-0.38
-0.4
-0.39
-0.385
-0.38
-0.385
-0.39
-0.41
-0.42
-0.395
-0.385
-0.385
-0.395
-0.415
-0.4
-0.39
-0.375
-0.39
-0.41
-0.415
-0.42
-0.41
-0.4
-0.385
-0.4
-0.405
-0.405
-0.395
-0.38
-0.39
-0.39
-0.405
-0.405
-0.39
-0.385
-0.395
-0.395
-0.415
-0.405
-0.4
-0.38
-0.385
-0.4
-0.4
-0.395
-0.4
-0.385
-0.385
-0.4
-0.42
-0.415
-0.405
-0.4
-0.4
-0.4
-0.4
-0.405
-0.395
-0.375
-0.39
-0.39
-0.41
-0.405
-0.405
-0.39
-0.39
-0.395
-0.41
-0.405
-0.39
-0.37
-0.39
-0.39
-0.405
-0.4
-0.385
-0.375
-0.375
-0.4
-0.405
-0.4
-0.4
-0.375
-0.385
-0.4
-0.405
-0.405
-0.395
-0.38
-0.4
-0.42
-0.41
-0.4
-0.39
-0.38
-0.38
-0.39
-0.4
-0.395
-0.39
-0.375
-0.38
-0.39
-0.39
-0.385
-0.385
-0.37
-0.36
-0.375
-0.38
-0.36
-0.335
-0.3
-0.31
-0.33
-0.345
-0.325
-0.305
-0.295
-0.305
-0.325
-0.34
-0.35
-0.33
-0.315
-0.315
-0.35
-0.365
-0.37
-0.365
-0.36
-0.37
-0.395
-0.395
-0.385
-0.375
-0.37
-0.37
-0.38
-0.385
-0.38
-0.365
-0.355
-0.355
-0.36
-0.38
-0.37
-0.345
-0.33
-0.33
-0.34
-0.35
-0.345
-0.355
-0.385
-0.41
-0.45
-0.48
-0.455
-0.375
-0.2
0.1
0.525
0.98
1.405
1.71
1.85
1.81
1.58
1.055
0.415
-0.225
-0.625
-0.64
-0.565
-0.505
-0.53
-0.525
-0.49
-0.49
-0.475
-0.45
-0.39
-0.33
-0.29
-0.295
-0.31
-0.325
-0.325
-0.305
-0.285
-0.29
-0.3
-0.3
-0.31
-0.29
-0.27
-0.265
-0.29
-0.305
-0.285
-0.275
-0.26
-0.265
-0.27
-0.27
-0.265
-0.255
-0.24
-0.235
-0.26
-0.27
-0.25
-0.245
-0.23
-0.235
-0.235
-0.24
-0.235
-0.225
-0.205
-0.225
-0.225
-0.235
-0.235
-0.21
-0.205
-0.2
-0.195
-0.21
-0.185
-0.175
-0.16
-0.16
-0.17
-0.175
-0.175
-0.16
-0.13
-0.12
-0.13
-0.13
-0.12
-0.09
-0.085
-0.08
-0.07
-0.075
-0.07
-0.035
-0.025
-0.015
-0.015
-0.01
0.005
0.035
0.055
0.075
0.06
0.085
0.105
0.135
0.175
0.175
0.18
0.2
0.235
0.26
0.3
0.31
0.325
0.335
0.355
0.39
0.43
0.455
0.455
0.465
0.49
0.505
0.555
0.575
0.585
0.575
0.615
0.645
0.68
0.685
0.67
0.65
0.64
0.625
0.63
0.57
0.525
0.475
0.425
0.385
0.345
0.285
0.205
0.14
0.095
0.06
0.03
-0.025
-0.095
-0.14
-0.175
-0.2
-0.225
-0.23
-0.27
-0.295
-0.31
-0.315
-0.315
-0.335
-0.35
-0.375
-0.375
-0.375
-0.36
-0.385
-0.395
-0.405
-0.41
-0.39
-0.395
-0.4
-0.405
-0.43
-0.435
-0.42
-0.4
-0.4
-0.425
-0.42
-0.41
-0.41
-0.395
-0.42
-0.425
-0.44
-0.43
-0.42
-0.405
-0.41
-0.425
-0.44
-0.435
-0.43
-0.41
-0.41
-0.425
-0.44
-0.43
-0.415
-0.41
-0.41
-0.42
-0.435
-0.43
-0.41
-0.405
-0.41
-0.435
-0.43
-0.445
-0.42
-0.415
-0.42
-0.43
-0.44
-0.445
-0.425
-0.415
-0.43
-0.44
-0.44
-0.45
-0.425
-0.435
-0.42
-0.44
-0.42
-0.44
-0.425
-0.425
-0.415
-0.43
-0.46
-0.445
-0.44
-0.43
-0.43
-0.45
-0.465
-0.455
-0.445
-0.43
-0.43
-0.45
-0.465
-0.46
-0.45
-0.445
-0.435
-0.455
-0.46
-0.455
-0.43
-0.43
-0.425
-0.45
-0.455
-0.445
-0.445
-0.43
-0.45
-0.445
-0.455
-0.455
-0.455
-0.435
-0.445
-0.455
-0.48
-0.475
-0.45
-0.44
-0.445
-0.46
-0.455
-0.46
-0.445
-0.44
-0.44
-0.45
-0.465
-0.47
-0.455
-0.45
-0.445
-0.455
-0.465
-0.46
-0.46
-0.44
-0.445
-0.455
-0.47
-0.465
-0.45
-0.44
-0.46
-0.455
-0.46
-0.465
-0.46
-0.435
-0.435
-0.46
-0.475
-0.45
-0.455
-0.43
-0.42
-0.45
-0.48
-0.465
-0.45
-0.445
-0.44
-0.465
-0.475
-0.475
-0.46
-0.46
-0.445
-0.465
-0.46
-0.46
-0.465
-0.45
-0.435
-0.465
-0.46
-0.455
-0.435
-0.43
-0.44
-0.45
-0.455
-0.445
-0.445
-0.435
-0.43
-0.45
-0.46
-0.445
-0.43
-0.425
-0.43
-0.445
-0.45
-0.445
-0.43
-0.41
-0.415
-0.44
-0.445
-0.43
-0.425
-0.415
-0.405
-0.43
-0.43
-0.43
-0.415
-0.395
-0.4
-0.395
-0.395
-0.385
-0.375
-0.365
-0.375
-0.375
-0.375
-0.36
-0.35
-0.345
-0.35
-0.38
-0.38
-0.375
-0.375
-0.36
-0.385
-0.395
-0.41
-0.43
-0.425
-0.425
-0.425
-0.435
-0.45
-0.44
-0.435
-0.42
-0.415
-0.44
-0.44
-0.45
-0.42
-0.41
-0.425
-0.425
-0.435
-0.42
-0.405
-0.4
-0.41
-0.42
-0.415
-0.405
-0.39
-0.39
-0.41
-0.45
-0.49
-0.52
-0.515
-0.505
-0.48
-0.405
-0.24
0.065
0.48
0.9
1.295
1.57
1.75
1.805
1.71
1.37
0.765
0.125
-0.515
-0.73
-0.67
-0.57
-0.565
-0.58
-0.58
-0.575
-0.555
-0.53
-0.49
-0.445
-0.415
-0.375
-0.36
-0.335
-0.335
-0.36
-0.375
-0.375
-0.345
-0.335
-0.345
-0.345
-0.35
-0.34
-0.33
-0.32
-0.31
-0.325
-0.34
-0.33
-0.32
-0.29
-0.295
-0.295
-0.325
-0.32
-0.295
-0.28
-0.28
-0.295
-0.315
-0.305
-0.29
-0.265
-0.265
-0.28
-0.285
-0.28
-0.265
-0.245
-0.255
-0.255
-0.265
-0.26
-0.24
-0.245
-0.24
-0.25
-0.26
-0.24
-0.245
-0.225
-0.215
-0.215
-0.225
-0.225
-0.195
-0.18
-0.18
-0.195
-0.2
-0.18
-0.17
-0.145
-0.15
-0.15
-0.16
-0.14
-0.13
-0.115
-0.095
-0.11
-0.1
-0.085
-0.065
-0.03
-0.025
-0.02
-0.025
0.01
0.025
0.055
0.065
0.07
0.07
0.1
0.14
0.16
0.18
0.18
0.19
0.225
0.255
0.285
0.29
0.32
0.33
0.365
0.4
0.435
0.45
0.455
0.48
0.505
0.55
0.575
0.57
0.58
0.59
0.62
0.64
0.66
0.66
0.64
0.605
0.61
0.6
0.59
0.545
0.49
0.43
0.375
0.325
0.29
0.225
0.15
0.07
0.015
-0.01
-0.035
-0.1
-0.135
-0.195
-0.22
-0.24
-0.255
-0.29
-0.325
-0.345
-0.36
-0.365
-0.38
-0.385
-0.41
-0.425
-0.42
-0.425
-0.41
-0.42
-0.43
-0.45
-0.445
-0.445
-0.43
-0.435
-0.45
-0.465
-0.46
-0.445
-0.435
-0.45
-0.46
-0.465
-0.465
-0.445
-0.435
-0.445
-0.47
-0.47
-0.475
-0.45
-0.435
-0.43
-0.45
-0.47
-0.46
-0.45
-0.44
-0.435
-0.44
-0.46
-0.45
-0.435
-0.425
-0.425
-0.435
-0.45
-0.445
-0.425
-0.415
-0.43
-0.445
-0.465
-0.45
-0.435
-0.43
-0.44
-0.45
-0.45
-0.46
-0.46
-0.44
-0.455
-0.46
-0.47
-0.465
-0.445
-0.445
-0.44
-0.455
-0.47
-0.455
-0.45
-0.44
-0.45
-0.455
-0.475
-0.47
-0.455
-0.445
-0.465
-0.465
-0.485
-0.465
-0.46
-0.45
-0.45
-0.455
-0.46
-0.46
-0.46
-0.46
-0.465
-0.47
-0.49
-0.48
-0.465
-0.445
-0.455
-0.475
-0.485
-0.47
-0.455
-0.455
-0.45
-0.475
-0.48
-0.465
-0.465
-0.455
-0.465
-0.46
-0.475
-0.475
-0.46
-0.455
-0.465
-0.47
-0.49
-0.475
-0.455
-0.465
-0.445
-0.475
-0.48
-0.475
-0.465
-0.455
-0.46
-0.46
-0.48
-0.465
-0.455
-0.45
-0.45
-0.465
-0.485
-0.47
-0.445
-0.445
-0.465
-0.455
-0.465
-0.465
-0.45
-0.43
-0.44
-0.45
-0.46
-0.45
-0.44
-0.405
-0.415
-0.415
-0.435
-0.4
-0.39
-0.38
-0.405
-0.405
-0.41
-0.39
-0.375
-0.37
-0.39
-0.395
-0.4
-0.395
-0.38
-0.375
-0.395
-0.4
-0.44
-0.435
-0.43
-0.425
-0.435
-0.44
-0.45
-0.45
-0.43
-0.425
-0.43
-0.445
-0.455
-0.45
-0.44
-0.43
-0.435
-0.45
-0.455
-0.445
-0.435
-0.405
-0.41
-0.425
-0.43
-0.42
-0.425
-0.435
-0.46
-0.515
-0.55
-0.565
-0.54
-0.45
-0.29
-0.025
0.36
0.79
1.185
1.505
1.695
1.705
1.535
1.07
0.43
-0.21
-0.735
-0.785
-0.665
-0.575
-0.565
-0.575
-0.595
-0.585
-0.58
-0.54
-0.485
-0.42
-0.385
-0.375
-0.405
-0.38
-0.375
-0.36
-0.365
-0.365
-0.36
-0.355
-0.345
-0.32
-0.335
-0.34
-0.36
-0.355
-0.32
-0.32
-0.325
-0.325
-0.34
-0.33
-0.315
-0.3
-0.3
-0.3
-0.32
-0.31
-0.3
-0.29
-0.295
-0.3
-0.31
-0.295
-0.285
-0.26
-0.265
-0.26
-0.275
-0.275
-0.255
-0.245
-0.25
-0.25
-0.25
-0.245
-0.225
-0.21
-0.2
-0.23
-0.235
-0.21
-0.195
-0.17
-0.175
-0.18
-0.175
-0.17
-0.145
-0.12
-0.12
-0.135
-0.135
-0.11
-0.105
-0.07
-0.07
-0.065
-0.065
-0.055
-0.01
0.025
0.035
0.04
0.045
0.065
0.115
0.135
0.145
0.15
0.165
0.205
0.25
0.29
0.305
0.325
0.34
0.375
0.405
0.44
0.46
0.475
0.485
0.515
0.56
0.585
0.61
0.6
0.615
0.645
0.655
0.67
0.655
0.605
0.58
0.545
0.51
0.47
0.41
0.335
0.275
0.205
0.165
0.105
0.045
-0.02
-0.085
-0.14
-0.16
-0.2
-0.245
-0.305
-0.33
-0.33
-0.34
-0.355
-0.37
-0.4
-0.425
-0.43
-0.425
-0.425
-0.45
-0.45
-0.465
-0.465
-0.465
-0.445
-0.445
-0.47
-0.47
-0.47
-0.45
-0.445
-0.445
-0.47
-0.465
-0.46
-0.435
-0.435
-0.45
-0.455
-0.465
-0.455
-0.44
-0.43
-0.43
-0.455
-0.475
-0.455
-0.435
-0.42
-0.435
-0.44
-0.445
-0.445
-0.435
-0.44
-0.445
-0.455
-0.455
-0.45
-0.445
-0.435
-0.44
-0.45
-0.455
-0.45
-0.44
-0.45
-0.455
-0.46
-0.48
-0.465
-0.435
-0.425
-0.43
-0.46
-0.465
-0.46
-0.44
-0.44
-0.45
-0.465
-0.445
-0.455
-0.455
-0.435
-0.455
-0.465
-0.48
-0.465
-0.455
-0.45
-0.45
-0.46
-0.475
-0.455
-0.445
-0.455
-0.455
-0.46
-0.475
-0.48
-0.45
-0.44
-0.45
-0.455
-0.465
-0.465
-0.45
-0.45
-0.455
-0.465
-0.48
-0.465
-0.455
-0.45
-0.435
-0.455
-0.455
-0.44
-0.41
-0.39
-0.39
-0.395
-0.41
-0.39
-0.385
-0.36
-0.345
-0.345
-0.36
-0.345
-0.325
-0.33
-0.35
-0.375
-0.41
-0.415
-0.41
-0.39
-0.415
-0.435
-0.455
-0.45
-0.45
-0.435
-0.445
-0.45
-0.46
-0.455
-0.445
-0.425
-0.445
-0.445
-0.445
-0.445
-0.435
-0.415
-0.42
-0.435
-0.44
-0.425
-0.41
-0.395
-0.4
-0.41
-0.435
-0.445
-0.475
-0.5
-0.535
-0.53
-0.49
-0.34
-0.06
0.375
0.855
1.285
1.6
1.775
1.755
1.445
0.83
0.19
-0.45
-0.77
-0.68
-0.585
-0.545
-0.565
-0.58
-0.57
-0.53
-0.495
-0.465
-0.43
-0.405
-0.365
-0.345
-0.35
-0.34
-0.37
-0.36
-0.34
-0.335
-0.33
-0.345
-0.345
-0.355
-0.335
-0.33
-0.32
-0.325
-0.33
-0.345
-0.35
-0.32
-0.305
-0.315
-0.33
-0.33
-0.315
-0.315
-0.295
-0.29
-0.3
-0.3
-0.3
-0.29
-0.27
-0.26
-0.28
-0.285
-0.27
-0.27
-0.27
-0.265
-0.265
-0.255
-0.255
-0.24
-0.24
-0.23
-0.23
-0.24
-0.215
-0.21
-0.21
-0.195
-0.2
-0.195
-0.185
-0.16
-0.15
-0.14
-0.15
-0.15
-0.135
-0.11
-0.09
-0.085
-0.09
-0.085
-0.065
-0.065
-0.04
-0.015
-0.015
0.0
0.025
0.045
0.055
0.07
0.09
0.1
0.125
0.175
0.2
0.215
0.225
0.255
0.28
0.33
0.365
0.38
0.385
0.41
0.44
0.49
0.515
0.545
0.555
0.56
0.595
0.63
0.65
0.66
0.65
0.635
0.625
0.605
0.59
0.54
0.47
0.41
0.355
0.31
0.265
0.185
0.11
0.04
-0.015
-0.065
-0.105
-0.15
-0.2
-0.25
-0.29
-0.295
-0.32
-0.345
-0.365
-0.4
-0.41
-0.395
-0.405
-0.425
-0.44
-0.46
-0.46
-0.445
-0.445
-0.455
-0.465
-0.475
-0.48
-0.45
-0.46
-0.465
-0.485
-0.485
-0.475
-0.46
-0.455
-0.465
-0.475
-0.495
-0.485
-0.45
-0.45
-0.455
-0.46
-0.48
-0.465
-0.45
-0.435
-0.455
-0.47
-0.47
-0.455
-0.45
-0.44
-0.44
-0.455
-0.45
-0.445
-0.435
-0.435
-0.435
-0.445
-0.46
-0.445
-0.455
-0.435
-0.445
-0.455
-0.465
-0.47
-0.455
-0.44
-0.46
-0.455
-0.475
-0.46
-0.465
-0.455
-0.46
-0.47
-0.495
-0.48
-0.465
-0.465
-0.47
-0.49
-0.49
-0.495
-0.46
-0.46
-0.475
-0.49
-0.485
-0.485
-0.485
-0.48
-0.49
-0.505
-0.505
-0.485
-0.475
-0.47
-0.48
-0.485
-0.49
-0.485
-0.475
-0.48
-0.47
-0.485
-0.5
-0.495
-0.5
-0.49
-0.465
-0.485
-0.505
-0.48
-0.47
-0.455
-0.465
-0.485
-0.49
-0.485
-0.485
-0.46
-0.465
-0.48
-0.485
-0.485
-0.475
-0.485
-0.47
-0.49
-0.49
-0.495
-0.485
-0.465
-0.47
-0.485
-0.485
-0.495
-0.455
-0.46
-0.455
-0.475
-0.48
-0.475
-0.465
-0.45
-0.465
-0.465
-0.475
-0.48
-0.47
-0.455
-0.465
-0.475
-0.48
-0.48
-0.47
-0.47
-0.46
-0.47
-0.47
-0.47
-0.445
-0.44
-0.43
-0.44
-0.435
-0.41
-0.39
-0.39
-0.38
-0.4
-0.405
-0.385
-0.35
-0.34
-0.355
-0.38
-0.395
-0.395
-0.365
-0.355
-0.365
-0.385
-0.405
-0.405
-0.415
-0.425
-0.435
-0.445
-0.455
-0.445
-0.44
-0.43
-0.45
-0.46
-0.465
-0.44
-0.43
-0.435
-0.42
-0.43
-0.44
-0.435
-0.405
-0.4
-0.415
-0.425
-0.415
-0.405
-0.395
-0.39
-0.415
-0.47
-0.5
-0.52
-0.525
-0.485
-0.43
-0.28
0.025
0.45
0.955
1.375
1.67
1.82
1.81
1.555
1.0
0.36
-0.28
-0.81
-0.735
-0.62
-0.57
-0.555
-0.58
-0.59
-0.555
-0.525
-0.455
-0.415
-0.38
-0.385
-0.385
-0.375
-0.36
-0.365
-0.36
-0.37
-0.385
-0.36
-0.345
-0.345
-0.345
-0.345
-0.355
-0.36
-0.34
-0.32
-0.33
-0.33
-0.34
-0.325
-0.325
-0.305
-0.3
-0.335
-0.32
-0.31
-0.305
-0.29
-0.3
-0.31
-0.31
-0.295
-0.285
-0.275
-0.285
-0.295
-0.275
-0.27
-0.27
-0.245
-0.245
-0.25
-0.245
-0.235
-0.225
-0.205
-0.205
-0.215
-0.22
-0.195
-0.18
-0.155
-0.16
-0.175
-0.165
-0.15
-0.135
-0.12
-0.1
-0.105
-0.09
-0.08
-0.05
-0.03
-0.015
-0.02
-0.005
0.01
0.045
0.06
0.085
0.09
0.085
0.13
0.17
0.185
0.21
0.21
0.255
0.285
0.325
0.355
0.375
0.39
0.425
0.445
0.505
0.54
0.56
0.565
0.575
0.615
0.645
0.655
0.655
0.635
0.615
0.59
0.58
0.52
0.465
0.4
0.34
0.285
0.235
0.165
0.105
0.03
-0.04
-0.08
-0.12
-0.155
-0.2
-0.235
-0.28
-0.3
-0.305
-0.325
-0.345
-0.37
-0.385
-0.395
-0.385
-0.41
-0.41
-0.43
-0.435
-0.44
-0.435
-0.425
-0.445
-0.455
-0.455
-0.455
-0.44
-0.435
-0.445
-0.44
-0.46
-0.45
-0.435
-0.425
-0.43
-0.44
-0.44
-0.45
-0.44
-0.43
-0.43
-0.44
-0.44
-0.43
-0.435
-0.44
-0.42
-0.445
-0.455
-0.44
-0.435
-0.43
-0.42
-0.445
-0.45
-0.435
-0.42
-0.425
-0.435
-0.46
-0.45
-0.445
-0.435
-0.425
-0.44
-0.435
-0.45
-0.455
-0.45
-0.445
-0.45
-0.455
-0.46
-0.45
-0.45
-0.445
-0.43
-0.455
-0.46
-0.455
-0.46
-0.445
-0.46
-0.47
-0.47
-0.46
-0.455
-0.435
-0.46
-0.47
-0.475
-0.47
-0.455
-0.445
-0.455
-0.465
-0.475
-0.485
-0.46
-0.445
-0.46
-0.465
-0.475
-0.465
-0.465
-0.455
-0.465
-0.47
-0.48
-0.465
-0.45
-0.445
-0.45
-0.455
-0.46
-0.465
-0.455
-0.445
-0.465
-0.475
