Lead II
-0.79
-0.77
-0.76
-0.745
-0.74
-0.755
-0.74
-0.75
-0.745
-0.745
-0.73
-0.73
-0.685
-0.685
-0.65
-0.645
-0.625
-0.62
-0.615
-0.615
-0.59
-0.595
-0.555
-0.545
-0.525
-0.5
-0.47
-0.465
-0.46
-0.435
-0.425
-0.425
-0.41
-0.395
-0.405
-0.4
-0.38
-0.355
-0.33
-0.33
-0.335
-0.34
-0.345
-0.35
-0.365
-0.375
-0.385
-0.395
-0.425
-0.45
-0.46
-0.47
-0.51
-0.55
-0.59
-0.615
-0.65
-0.69
-0.73
-0.755
-0.77
-0.775
-0.785
-0.81
-0.84
-0.845
-0.87
-0.895
-0.9
-0.925
-0.93
-0.93
-0.925
-0.92
-0.925
-0.93
-0.93
-0.945
-0.96
-0.96
-0.975
-0.985
-0.99
-1.01
-0.98
-0.97
-0.97
-0.99
-0.965
-0.975
-0.97
-0.965
-0.975
-0.98
-0.97
-0.99
-0.975
-0.98
-0.97
-0.97
-0.96
-0.945
-0.95
-0.975
-0.97
-0.965
-0.96
-0.96
-0.975
-0.98
-0.97
-0.95
-0.95
-0.94
-0.955
-0.97
-0.985
-1.005
-0.98
-0.975
-0.98
-0.96
-0.96
-0.97
-0.965
-0.975
-0.985
-0.995
-0.99
-1.005
-1.005
-1.005
-1.015
-0.99
-0.995
-0.99
-1.0
-1.0
-1.015
-1.015
-1.03
-1.03
-1.045
-1.025
-1.01
-1.01
-1.0
-1.0
-1.005
-1.005
-1.015
-1.025
-1.03
-1.025
-1.035
-1.025
-1.03
-1.015
-1.02
-1.02
-1.02
-1.02
-1.035
-1.035
-1.035
-1.045
-1.05
-1.055
-1.04
-1.04
-1.035
-1.015
-1.02
-1.02
-1.04
-1.04
-1.07
-1.07
-1.055
-1.06
-1.055
-1.05
-1.035
-1.04
-1.03
-1.035
-1.04
-1.055
-1.055
-1.06
-1.06
-1.045
-1.045
-1.04
-1.025
-1.045
-1.03
-1.045
-1.045
-1.05
-1.055
-1.05
-1.065
-1.065
-1.055
-1.04
-1.035
-1.04
-1.035
-1.04
-1.055
-1.06
-1.075
-1.075
-1.07
-1.06
-1.05
-1.035
-1.025
-1.02
-1.03
-1.02
-1.035
-1.04
-1.05
-1.055
-1.06
-1.045
-1.035
-1.03
-1.01
-1.015
-1.01
-1.025
-1.035
-1.05
-1.05
-1.04
-1.045
-1.04
-1.035
-1.04
-1.045
-1.03
-1.025
-1.045
-1.045
-1.055
-1.045
-1.065
-1.06
-1.05
-1.03
-1.035
-1.035
-1.02
-1.015
-1.01
-1.025
-1.04
-1.04
-1.045
-1.06
-1.04
-1.055
-1.025
-1.025
-1.025
-1.02
-1.03
-1.05
-1.06
-1.065
-1.045
-1.055
-1.045
-1.035
-1.015
-1.01
-1.005
-1.0
-0.995
-1.005
-1.0
-0.995
-0.99
-0.98
-0.97
-0.955
-0.96
-0.93
-0.915
-0.895
-0.89
-0.89
-0.855
-0.86
-0.85
-0.86
-0.855
-0.865
-0.86
-0.865
-0.89
-0.89
-0.89
-0.905
-0.92
-0.94
-0.965
-0.995
-1.005
-0.995
-1.005
-1.01
-0.99
-1.01
-1.01
-1.02
-1.045
-1.055
-1.055
-1.05
-1.05
-1.05
-1.045
-1.035
-1.03
-1.03
-1.045
-1.055
-1.065
-1.065
-1.075
-1.07
-1.07
-1.045
-1.045
-1.015
-1.005
-1.015
-1.02
-1.025
-1.02
-1.015
-0.98
-0.92
-0.85
-0.73
-0.61
-0.455
-0.355
-0.295
-0.285
-0.365
-0.515
-0.72
-0.955
-1.22
-1.435
-1.61
-1.71
-1.715
-1.645
-1.535
-1.435
-1.35
-1.3
-1.265
-1.23
-1.18
-1.135
-1.05
-1.03
-0.99
-0.975
-0.995
-0.995
-1.015
-1.015
-1.03
-1.03
-1.015
-1.005
-0.975
-0.965
-0.95
-0.955
-0.955
-0.94
-0.945
-0.96
-0.965
-0.96
-0.95
-0.935
-0.935
-0.92
-0.92
-0.915
-0.93
-0.925
-0.925
-0.945
-0.93
-0.935
-0.95
-0.92
-0.92
-0.905
-0.895
-0.88
-0.87
-0.88
-0.87
-0.88
-0.865
-0.875
-0.865
-0.86
-0.855
-0.845
-0.825
-0.82
-0.825
-0.81
-0.815
-0.83
-0.815
-0.805
-0.8
-0.77
-0.765
-0.755
-0.725
-0.715
-0.7
-0.695
-0.68
-0.675
-0.67
-0.67
-0.65
-0.635
-0.625
-0.605
-0.58
-0.56
-0.53
-0.515
-0.505
-0.505
-0.51
-0.5
-0.47
-0.445
-0.395
-0.395
-0.37
-0.36
-0.36
-0.35
-0.36
-0.36
-0.365
-0.355
-0.355
-0.345
-0.35
-0.335
-0.33
-0.325
-0.34
-0.35
-0.38
-0.4
-0.43
-0.465
-0.48
-0.51
-0.53
-0.545
-0.56
-0.58
-0.605
-0.64
-0.665
-0.715
-0.73
-0.77
-0.785
-0.805
-0.825
-0.84
-0.84
-0.845
-0.865
-0.88
-0.895
-0.905
-0.94
-0.95
-0.96
-0.945
-0.945
-0.93
-0.925
-0.925
-0.93
-0.935
-0.93
-0.96
-0.965
-0.97
-0.975
-0.97
-0.95
-0.955
-0.945
-0.94
-0.945
-0.955
-0.955
-0.965
-0.975
-0.97
-0.97
-0.955
-0.95
-0.94
-0.945
-0.93
-0.95
-0.96
-0.975
-0.97
-0.955
-0.975
-0.98
-0.965
-0.965
-0.955
-0.94
-0.94
-0.93
-0.945
-0.95
-0.955
-0.955
-0.98
-0.975
-0.965
-0.97
-0.985
-0.975
-0.965
-0.955
-0.965
-0.97
-0.985
-0.995
-1.015
-1.01
-1.005
-1.01
-0.995
-0.985
-0.98
-0.975
-0.985
-1.0
-1.015
-1.01
-1.02
-1.015
-0.995
-1.0
-1.0
-0.99
-0.985
-0.995
-1.02
-1.0
-1.005
-1.025
-1.025
-1.02
-1.015
-1.025
-1.005
-1.01
-0.995
-1.0
-1.005
-1.015
-1.015
-1.015
-1.035
-1.035
-1.03
-1.02
-1.015
-1.005
-0.99
-0.99
-1.0
-1.0
-1.015
-1.025
-1.025
-1.02
-1.03
-1.01
-1.015
-1.005
-1.01
-1.01
-1.005
-1.0
-1.04
-1.02
-1.035
-1.04
-1.035
-1.025
-1.015
-1.01
-1.01
-0.995
-0.995
-1.005
-1.025
-1.02
-1.02
-1.03
-1.025
-1.035
-1.015
-0.99
-0.985
-0.995
-0.995
-0.995
-1.02
-1.02
-1.03
-1.01
-1.005
-1.0
-1.0
-0.985
-0.98
-1.0
-0.995
-0.995
-0.995
-1.005
-1.01
-1.01
-1.0
-0.98
-0.985
-0.985
-0.975
-0.97
-0.98
-0.985
-1.01
-1.01
-1.015
-1.025
-1.0
-0.99
-0.985
-0.98
-0.98
-0.975
-0.97
-0.99
-0.99
-0.98
-0.99
-0.995
-0.985
-0.99
-0.99
-0.98
-0.965
-0.99
-0.97
-0.965
-0.975
-0.975
-0.99
-0.99
-0.975
-0.985
-0.965
-0.945
-0.93
-0.925
-0.91
-0.91
-0.905
-0.905
-0.9
-0.905
-0.885
-0.865
-0.845
-0.83
-0.81
-0.805
-0.79
-0.79
-0.82
-0.84
-0.865
-0.875
-0.875
-0.87
-0.865
-0.86
-0.87
-0.88
-0.9
-0.925
-0.945
-0.945
-0.965
-1.0
-1.01
-0.985
-0.99
-0.99
-0.97
-0.965
-0.98
-0.99
-0.995
-1.0
-1.005
-1.03
-1.025
-1.015
-1.01
-1.005
-0.985
-0.975
-0.97
-0.985
-0.975
-1.015
-1.005
-0.995
-0.99
-0.975
-0.98
-0.955
-0.96
-0.935
-0.91
-0.855
-0.78
-0.675
-0.545
-0.405
-0.235
-0.095
0.005
0.005
-0.07
-0.25
-0.495
-0.79
-1.08
-1.355
-1.545
-1.61
-1.555
-1.45
-1.32
-1.205
-1.105
-1.045
-1.01
-0.98
-0.955
-0.935
-0.94
-0.935
-0.94
-0.93
-0.92
-0.92
-0.9
-0.895
-0.895
-0.895
-0.905
-0.92
-0.91
-0.9
-0.93
-0.905
-0.9
-0.885
-0.88
-0.875
-0.865
-0.88
-0.885
-0.89
-0.895
-0.87
-0.875
-0.855
-0.86
-0.835
-0.845
-0.86
-0.845
-0.835
-0.835
-0.85
-0.84
-0.87
-0.84
-0.82
-0.81
-0.8
-0.79
-0.79
-0.785
-0.795
-0.8
-0.81
-0.795
-0.78
-0.77
-0.755
-0.73
-0.7
-0.7
-0.695
-0.68
-0.675
-0.68
-0.675
-0.665
-0.66
-0.645
-0.625
-0.61
-0.58
-0.56
-0.535
-0.515
-0.52
-0.51
-0.515
-0.51
-0.475
-0.45
-0.435
-0.425
-0.39
-0.38
-0.355
-0.35
-0.345
-0.335
-0.335
-0.32
-0.345
-0.335
-0.31
-0.3
-0.295
-0.285
-0.285
-0.29
-0.31
-0.33
-0.37
-0.39
-0.395
-0.43
-0.44
-0.465
-0.48
-0.505
-0.53
-0.545
-0.585
-0.615
-0.665
-0.685
-0.72
-0.735
-0.75
-0.755
-0.77
-0.78
-0.795
-0.82
-0.84
-0.86
-0.885
-0.89
-0.905
-0.91
-0.905
-0.915
-0.895
-0.89
-0.895
-0.9
-0.92
-0.93
-0.945
-0.95
-0.965
-0.965
-0.94
-0.935
-0.925
-0.93
-0.925
-0.92
-0.935
-0.925
-0.945
-0.955
-0.94
-0.945
-0.935
-0.92
-0.915
-0.89
-0.92
-0.93
-0.93
-0.93
-0.92
-0.935
-0.94
-0.935
-0.92
-0.905
-0.9
-0.9
-0.9
-0.895
-0.9
-0.91
-0.925
-0.94
-0.935
-0.925
-0.915
-0.9
-0.905
-0.905
-0.9
-0.915
-0.93
-0.935
-0.965
-0.96
-0.97
-0.985
-0.955
-0.955
-0.945
-0.94
-0.945
-0.965
-0.96
-0.965
-0.985
-0.98
-0.985
-0.975
-0.98
-0.97
-0.965
-0.96
-0.975
-0.985
-0.98
-0.995
-0.995
-1.015
-1.015
-1.0
-0.99
-0.985
-0.98
-0.985
-0.98
-0.98
-0.98
-0.99
-1.005
-1.025
-1.025
-1.015
-1.015
-0.99
-0.985
-0.995
-0.99
-0.985
-0.995
-0.99
-1.0
-1.0
-0.995
-0.99
-0.995
-0.97
-0.985
-0.985
-0.98
-0.97
-0.975
-0.985
-0.99
-0.99
-1.015
-0.98
-0.98
-0.985
-0.975
-0.975
-0.98
-0.965
-1.0
-0.99
-1.0
-1.005
-1.02
-1.02
-1.015
-1.0
-0.99
-0.97
-0.99
-0.985
-0.995
-0.985
-0.995
-1.015
-1.0
-0.995
-1.0
-1.0
-0.975
-0.97
-0.98
-0.99
-0.985
-0.99
-0.995
-1.0
-1.0
-0.99
-0.98
-0.98
-0.975
-0.97
-0.98
-1.0
-0.995
-0.99
-0.995
-0.985
-0.985
-0.985
-0.97
-0.985
-0.97
-0.965
-0.98
-0.995
-0.995
-0.985
-0.99
-0.99
-0.99
-0.985
-0.99
-0.99
-0.97
-0.965
-0.97
-0.97
-0.985
-0.985
-0.985
-1.015
-1.0
-0.985
-0.98
-0.965
-0.97
-0.96
-0.965
-0.965
-0.97
-0.98
-0.98
-1.0
-0.99
-0.985
-0.985
-0.965
-0.95
-0.945
-0.945
-0.94
-0.96
-0.955
-0.97
-0.95
-0.945
-0.92
-0.89
-0.895
-0.9
-0.87
-0.865
-0.865
-0.865
-0.85
-0.845
-0.83
-0.815
-0.795
-0.79
-0.785
-0.795
-0.81
-0.825
-0.835
-0.85
-0.86
-0.885
-0.895
-0.915
-0.92
-0.92
-0.915
-0.915
-0.94
-0.945
-0.955
-0.97
-0.97
-0.975
-1.0
-1.0
-0.995
-1.01
-0.99
-0.995
-1.0
-0.98
-1.0
-1.0
-0.995
-1.02
-1.025
-1.02
-1.005
-1.015
-1.005
-0.99
-0.98
-0.98
-0.98
-0.975
-0.995
-0.995
-0.96
-0.955
-0.9
-0.795
-0.675
-0.525
-0.38
-0.225
-0.105
-0.015
-0.02
-0.075
-0.225
-0.445
-0.695
-0.96
-1.21
-1.41
-1.5
-1.48
-1.395
-1.285
-1.18
-1.13
-1.08
-1.065
-1.005
-0.965
-0.93
-0.915
-0.92
-0.935
-0.945
-0.95
-0.95
-0.96
-0.96
-0.96
-0.94
-0.935
-0.935
-0.915
-0.91
-0.91
-0.91
-0.94
-0.93
-0.94
-0.935
-0.94
-0.91
-0.91
-0.91
-0.895
-0.88
-0.875
-0.88
-0.91
-0.91
-0.9
-0.9
-0.915
-0.88
-0.875
-0.86
-0.855
-0.85
-0.84
-0.86
-0.855
-0.85
-0.865
-0.865
-0.865
-0.86
-0.845
-0.825
-0.8
-0.785
-0.795
-0.785
-0.785
-0.795
-0.79
-0.785
-0.775
-0.765
-0.735
-0.725
-0.705
-0.695
-0.67
-0.675
-0.67
-0.655
-0.655
-0.635
-0.625
-0.62
-0.59
-0.57
-0.55
-0.515
-0.5
-0.495
-0.485
-0.49
-0.46
-0.46
-0.465
-0.46
-0.43
-0.43
-0.405
-0.39
-0.38
-0.38
-0.38
-0.395
-0.395
-0.405
-0.405
-0.41
-0.435
-0.44
-0.44
-0.455
-0.49
-0.51
-0.56
-0.595
-0.63
-0.66
-0.695
-0.715
-0.74
-0.755
-0.775
-0.79
-0.81
-0.85
-0.87
-0.885
-0.905
-0.925
-0.93
-0.94
-0.935
-0.94
-0.945
-0.94
-0.95
-0.955
-0.965
-0.985
-1.015
-1.01
-1.02
-1.015
-1.015
-0.99
-0.995
-0.985
-0.99
-0.99
-0.995
-1.02
-1.02
-1.03
-1.04
-1.04
-1.025
-1.01
-1.005
-0.99
-1.01
-0.995
-1.005
-1.01
-1.035
-1.045
-1.03
-1.035
-1.03
-1.01
-0.985
-0.975
-0.98
-0.995
-1.01
-1.01
-1.03
-1.035
-1.025
-1.025
-1.015
-1.005
-1.0
-1.02
-1.025
-1.01
-1.02
-1.03
-1.04
-1.045
-1.065
-1.035
-1.045
-1.035
-1.025
-1.03
-1.035
-1.045
-1.07
-1.06
-1.085
-1.075
-1.09
-1.085
-1.075
-1.06
-1.065
-1.06
-1.07
-1.06
-1.075
-1.075
-1.1
-1.105
-1.105
-1.09
-1.09
-1.08
-1.08
-1.07
-1.065
-1.06
-1.08
-1.085
-1.1
-1.105
-1.095
-1.09
-1.105
-1.09
-1.085
-1.075
-1.07
-1.075
-1.11
-1.1
-1.105
-1.105
-1.09
-1.105
-1.095
-1.065
-1.075
-1.065
-1.065
-1.08
-1.09
-1.1
-1.13
-1.145
-1.13
-1.125
-1.12
-1.12
-1.11
-1.095
-1.085
-1.105
-1.12
-1.12
-1.12
-1.12
-1.12
-1.115
-1.095
-1.1
-1.09
-1.09
-1.09
-1.085
-1.105
-1.115
-1.115
-1.115
-1.115
-1.125
-1.125
-1.125
-1.11
-1.115
-1.12
-1.095
-1.095
-1.115
-1.12
-1.1
-1.125
-1.125
-1.105
-1.09
-1.095
-1.085
-1.085
-1.085
-1.09
-1.1
-1.105
-1.115
-1.115
-1.12
-1.105
-1.09
-1.085
-1.075
-1.08
-1.08
-1.085
-1.095
-1.1
-1.105
-1.12
-1.115
-1.105
-1.1
-1.085
-1.08
-1.075
-1.055
-1.07
-1.08
-1.085
-1.12
-1.11
-1.105
-1.085
-1.08
-1.065
-1.06
-1.06
-1.08
-1.075
-1.075
-1.09
-1.085
-1.095
-1.085
-1.075
-1.07
-1.04
-1.03
-1.01
-1.015
-1.015
-1.005
-1.02
-1.02
-1.02
-0.995
-0.965
-0.945
-0.92
-0.875
-0.89
-0.89
-0.9
-0.925
-0.94
-0.965
-0.96
-0.985
-0.96
-0.965
-0.96
-0.97
-1.005
-1.025
-1.035
-1.055
-1.075
-1.08
-1.085
-1.085
-1.07
-1.055
-1.055
-1.05
-1.07
-1.07
-1.1
-1.095
-1.1
-1.11
-1.12
-1.095
-1.095
-1.09
-1.09
-1.07
-1.085
-1.08
-1.075
-1.105
-1.095
-1.095
-1.1
-1.08
-1.08
-1.05
-0.995
-0.925
-0.835
-0.74
-0.615
-0.515
-0.42
-0.39
-0.43
-0.53
-0.695
-0.89
-1.13
-1.365
-1.58
-1.735
-1.81
-1.805
-1.69
-1.585
-1.49
-1.405
-1.335
-1.29
-1.245
-1.165
-1.135
-1.095
-1.06
-1.05
-1.06
-1.06
-1.065
-1.06
-1.055
-1.035
-1.015
-1.005
-1.01
-1.005
-0.995
-1.005
-1.015
-1.01
-1.005
-0.995
-1.0
-0.99
-0.96
-0.975
-0.955
-0.965
-0.97
-0.965
-0.97
-0.965
-0.965
-0.96
-0.94
-0.935
-0.925
-0.91
-0.91
-0.915
-0.905
-0.91
-0.93
-0.92
-0.915
-0.9
-0.9
-0.865
-0.85
-0.84
-0.855
-0.84
-0.83
-0.825
-0.83
-0.82
-0.845
-0.82
-0.81
-0.785
-0.76
-0.75
-0.765
-0.73
-0.715
-0.71
-0.715
-0.68
-0.68
-0.675
-0.64
-0.61
-0.6
-0.56
-0.55
-0.54
-0.535
-0.53
-0.53
-0.52
-0.52
-0.515
-0.485
-0.46
-0.45
-0.42
-0.42
-0.415
-0.425
-0.43
-0.425
-0.415
-0.425
-0.415
-0.405
-0.4
-0.42
-0.415
-0.425
-0.43
-0.465
-0.475
-0.51
-0.545
-0.565
-0.59
-0.615
-0.63
-0.655
-0.67
-0.705
-0.73
-0.755
-0.8
-0.83
-0.845
-0.87
-0.88
-0.895
-0.9
-0.91
-0.9
-0.91
-0.91
-0.95
-0.965
-0.965
-0.97
-0.96
-0.965
-0.96
-0.94
-0.955
-0.945
-0.945
-0.955
-0.95
-0.955
-0.965
-0.96
-0.975
-0.965
-0.965
-0.95
-0.945
-0.945
-0.935
-0.945
-0.955
-0.955
-0.965
-0.955
-0.955
-0.965
-0.94
-0.94
-0.94
-0.92
-0.925
-0.93
-0.925
-0.945
-0.945
-0.96
-0.95
-0.95
-0.95
-0.935
-0.925
-0.9
-0.91
-0.93
-0.935
-0.94
-0.95
-0.97
-0.97
-0.96
-0.975
-0.955
-0.955
-0.94
-0.94
-0.95
-0.955
-0.97
-0.965
-0.965
-0.995
-1.015
-1.0
-0.99
-0.985
-0.965
-0.985
-0.98
-0.995
-0.995
-1.015
-0.995
-1.01
-1.025
-1.005
-1.005
-0.99
-0.985
-0.985
-0.985
-0.99
-1.0
-0.99
-1.015
-1.01
-1.01
-1.01
-0.995
-1.005
-0.995
-1.0
-0.99
-0.99
-1.01
-1.01
-1.035
-1.035
-1.02
-1.015
-0.99
-0.98
-0.985
-0.98
-0.985
-0.995
-1.01
-1.025
-1.0
-1.015
-1.015
-1.015
-1.01
-1.005
-0.985
-1.0
-0.99
-0.985
-1.0
-1.01
-1.0
-1.02
-1.03
-1.01
-1.015
-0.99
-0.985
-0.975
-0.985
-1.005
-1.01
-1.025
-1.015
-1.02
-1.01
-0.995
-0.99
-0.985
-0.98
-0.975
-0.98
-0.985
-0.995
-1.005
-1.02
-1.02
-1.0
-1.01
-1.015
-1.025
-1.005
-1.015
-0.995
-0.995
-1.005
-1.01
-1.0
-1.02
-1.01
-1.005
-1.0
-1.005
-0.975
-0.975
-0.98
-0.99
-0.98
-0.995
-1.01
-1.01
-1.0
-0.99
-0.985
-0.98
-0.975
-0.97
-0.98
-0.975
-0.98
-0.995
-0.985
-1.0
-1.015
-0.995
-0.98
-0.995
-0.965
-0.96
-0.955
-0.96
-0.965
-0.985
-0.97
-0.995
-0.995
-0.99
-0.975
-0.96
-0.95
-0.955
-0.96
-0.955
-0.96
-0.965
-0.975
-0.975
-0.975
-0.94
-0.915
-0.915
-0.9
-0.915
-0.87
-0.88
-0.885
-0.875
-0.875
-0.855
-0.85
-0.825
-0.805
-0.79
-0.78
-0.81
-0.825
-0.85
-0.86
-0.86
-0.86
-0.87
-0.89
-0.905
-0.915
-0.92
-0.915
-0.92
-0.93
-0.93
-0.955
-0.965
-0.975
-1.0
-0.985
-0.995
-0.99
-0.99
-0.955
-0.98
-0.985
-1.0
-1.01
-1.01
-1.025
-1.025
-1.01
-0.995
-1.0
-0.985
-0.97
-0.975
-0.965
-0.98
-0.98
-0.995
-0.985
-0.995
-1.0
-0.985
-0.95
-0.87
-0.78
-0.68
-0.545
-0.395
-0.245
-0.11
-0.025
0.02
-0.05
-0.18
-0.4
-0.65
-0.925
-1.195
-1.395
-1.495
-1.51
-1.425
-1.32
-1.215
-1.145
-1.075
-1.035
-1.0
-0.955
-0.94
-0.915
-0.93
-0.935
-0.96
-0.95
-0.96
-0.95
-0.94
-0.94
-0.93
-0.905
-0.915
-0.895
-0.905
-0.915
-0.915
-0.915
-0.905
-0.905
-0.905
-0.88
-0.865
-0.87
-0.865
-0.875
-0.885
-0.875
-0.87
-0.87
-0.885
-0.87
-0.865
-0.845
-0.835
-0.815
-0.815
-0.815
-0.83
-0.83
-0.83
-0.83
-0.83
-0.83
-0.825
-0.815
-0.8
-0.78
-0.78
-0.79
-0.795
-0.78
-0.77
-0.78
-0.79
-0.785
-0.74
-0.735
-0.71
-0.695
-0.695
-0.69
-0.67
-0.665
-0.65
-0.645
-0.64
-0.63
-0.59
-0.585
-0.56
-0.535
-0.52
-0.51
-0.51
-0.49
-0.47
-0.455
-0.45
-0.45
-0.42
-0.41
-0.41
-0.37
-0.36
-0.345
-0.345
-0.355
-0.35
-0.355
-0.35
-0.34
-0.34
-0.335
-0.33
-0.32
-0.335
-0.35
-0.38
-0.395
-0.425
-0.455
-0.485
-0.51
-0.54
-0.575
-0.57
-0.59
-0.63
-0.655
-0.665
-0.695
-0.725
-0.745
-0.77
-0.8
-0.815
-0.81
-0.835
-0.835
-0.86
-0.865
-0.88
-0.905
-0.905
-0.925
-0.94
-0.935
-0.905
-0.915
-0.925
-0.915
-0.91
-0.915
-0.92
-0.935
-0.93
-0.935
-0.95
-0.96
-0.95
-0.945
-0.925
-0.915
-0.92
-0.915
-0.925
-0.92
-0.935
-0.935
-0.94
-0.945
-0.94
-0.925
-0.93
-0.905
-0.91
-0.915
-0.915
-0.925
-0.93
-0.935
-0.945
-0.935
-0.92
-0.905
-0.91
-0.895
-0.895
-0.905
-0.915
-0.915
-0.925
-0.93
-0.94
-0.955
-0.95
-0.94
-0.935
-0.925
-0.915
-0.93
-0.92
-0.94
-0.955
-0.955
-0.975
-0.965
-0.965
-0.955
-0.95
-0.945
-0.96
-0.96
-0.96
-0.96
-0.98
-0.97
-0.98
-0.985
-0.98
-0.965
-0.965
-0.955
-0.955
-0.955
-0.96
-0.975
-0.98
-0.965
-1.005
-0.985
-0.98
-0.985
-0.97
-0.975
-0.97
-0.96
-0.98
-0.985
-0.995
-1.005
-1.025
-1.03
-1.0
-0.98
-0.99
-0.97
-0.965
-0.97
-0.985
-0.985
-0.99
-0.995
-1.0
-1.0
-0.995
-0.98
-0.985
-0.975
-0.96
-0.98
-0.985
-0.99
-0.995
-1.0
-1.01
-1.015
-1.005
-0.985
-0.98
-0.975
-0.965
-0.98
-0.965
-0.985
-0.995
-1.0
-1.005
-1.01
-1.0
-1.005
-0.985
-0.98
-0.985
-0.975
-0.98
-0.995
-1.01
-1.02
-1.01
-1.01
-1.0
-0.99
-0.975
-0.965
-0.97
-0.975
-0.975
-0.975
-0.99
-0.985
-0.99
-0.985
-0.98
-0.98
-0.98
-0.96
-0.955
-0.965
-0.965
-0.965
-0.985
-1.015
-1.005
-0.995
-0.99
-0.975
-0.965
-0.955
-0.96
-0.975
-0.985
-0.98
-0.985
-0.99
-1.005
-0.995
-0.995
-0.985
-0.97
-0.955
-0.96
-0.955
-0.97
-0.985
-0.99
-0.995
-0.985
-0.99
-0.99
-0.97
-0.97
-0.96
-0.95
-0.96
-0.955
-0.985
-0.985
-0.975
-0.985
-0.985
-0.975
-0.965
-0.96
-0.965
-0.965
-0.965
-0.965
-0.965
-0.97
-0.97
-0.975
-0.955
-0.955
-0.925
-0.91
-0.885
-0.885
-0.885
-0.89
-0.9
-0.895
-0.89
-0.87
-0.855
-0.825
-0.8
-0.79
-0.77
-0.785
-0.79
-0.815
-0.83
-0.845
-0.86
-0.87
-0.89
-0.88
-0.895
-0.9
-0.885
-0.895
-0.91
-0.925
-0.935
-0.97
-0.97
-0.98
-0.975
-0.97
-0.96
-0.955
-0.955
-0.96
-0.97
-0.985
-1.01
-0.995
-1.0
-1.02
-1.02
-1.0
-0.99
-0.98
-0.96
-0.955
-0.965
-0.96
-0.97
-0.99
-0.985
-0.985
-0.99
-0.985
-0.965
-0.94
-0.9
-0.845
-0.765
-0.66
-0.55
-0.435
-0.34
-0.255
-0.225
-0.295
-0.445
-0.64
-0.86
-1.09
-1.32
-1.485
-1.575
-1.555
-1.475
-1.37
-1.27
-1.185
-1.115
-1.07
-1.04
-1.02
-0.96
-0.935
-0.915
-0.925
-0.93
-0.945
-0.94
-0.945
-0.925
-0.935
-0.91
-0.9
-0.885
-0.885
-0.895
-0.895
-0.9
-0.905
-0.895
-0.89
-0.87
-0.86
-0.84
-0.86
-0.855
-0.86
-0.875
-0.87
-0.87
-0.87
-0.875
-0.86
-0.84
-0.84
-0.825
-0.83
-0.81
-0.825
-0.83
-0.81
-0.825
-0.82
-0.825
-0.815
-0.805
-0.78
-0.77
-0.765
-0.76
-0.755
-0.755
-0.765
-0.765
-0.77
-0.75
-0.735
-0.705
-0.705
-0.69
-0.66
-0.665
-0.655
-0.65
-0.64
-0.63
-0.625
-0.6
-0.57
-0.555
-0.525
-0.5
-0.495
-0.495
-0.465
-0.455
-0.435
-0.445
-0.43
-0.42
-0.395
-0.36
-0.345
-0.33
-0.32
-0.305
-0.305
-0.315
-0.31
-0.31
-0.31
-0.31
-0.295
-0.29
-0.29
-0.29
-0.305
-0.32
-0.35
-0.35
-0.39
-0.41
-0.43
-0.455
-0.46
-0.495
-0.51
-0.515
-0.545
-0.575
-0.615
-0.635
-0.66
-0.685
-0.725
-0.745
-0.77
-0.76
-0.775
-0.76
-0.78
-0.78
-0.815
-0.825
-0.855
-0.86
-0.88
-0.87
-0.87
-0.86
-0.85
-0.84
-0.85
-0.835
-0.845
-0.855
-0.86
-0.855
-0.86
-0.865
-0.865
-0.855
-0.85
-0.835
-0.835
-0.845
-0.84
-0.85
-0.87
-0.875
-0.865
-0.88
-0.88
-0.865
-0.855
-0.85
-0.86
-0.85
-0.855
-0.855
-0.87
-0.875
-0.87
-0.875
-0.88
-0.865
-0.85
-0.845
-0.83
-0.835
-0.85
-0.865
-0.875
-0.88
-0.895
-0.885
-0.885
-0.88
-0.885
-0.86
-0.865
-0.875
-0.87
-0.875
-0.895
-0.915
-0.91
-0.925
-0.93
-0.92
-0.905
-0.9
-0.89
-0.905
-0.91
-0.915
-0.925
-0.935
-0.935
-0.94
-0.955
-0.945
-0.925
-0.9
-0.905
-0.91
-0.91
-0.925
-0.925
-0.935
-0.93
-0.935
-0.935
-0.925
-0.92
-0.9
-0.92
-0.93
-0.92
-0.925
-0.95
-0.955
-0.95
-0.945
-0.945
-0.935
-0.935
-0.905
-0.905
-0.91
-0.93
-0.93
-0.93
-0.945
-0.955
-0.955
-0.945
-0.95
-0.945
-0.925
-0.93
-0.93
-0.935
-0.95
-0.94
-0.945
-0.955
-0.955
-0.94
-0.935
-0.935
-0.925
-0.92
-0.92
-0.925
-0.94
-0.94
-0.95
-0.955
-0.945
-0.955
-0.935
-0.945
-0.93
-0.92
-0.93
-0.935
-0.93
-0.94
-0.95
-0.965
-0.96
-0.96
-0.965
-0.945
-0.915
-0.925
-0.935
-0.935
-0.965
-0.945
-0.95
-0.97
-0.96
-0.955
-0.95
-0.94
-0.93
-0.93
-0.935
-0.945
-0.955
-0.955
-0.97
-0.98
-0.98
-0.95
-0.955
-0.935
-0.92
-0.93
-0.925
-0.92
-0.935
-0.955
-0.95
-0.965
-0.955
-0.96
-0.93
-0.93
-0.92
-0.915
-0.925
-0.92
-0.925
-0.94
-0.945
-0.95
-0.96
-0.95
-0.935
-0.915
-0.92
-0.91
-0.91
-0.905
-0.925
-0.925
-0.905
-0.895
-0.885
-0.88
-0.875
-0.85
-0.84
-0.83
-0.825
-0.805
-0.805
-0.8
-0.805
-0.79
-0.8
-0.785
-0.79
-0.8
-0.79
-0.795
-0.82
-0.82
-0.845
-0.865
-0.875
-0.91
-0.915
-0.92
-0.905
-0.915
-0.92
-0.915
-0.925
-0.94
-0.96
-0.965
-0.98
-0.99
-0.995
-0.985
-0.98
-0.975
-0.97
-0.965
-0.985
-0.97
-0.975
-0.995
-1.01
-0.99
-1.015
-0.99
-0.985
-0.965
-0.965
-0.94
-0.95
-0.955
-0.955
-0.95
-0.92
-0.855
-0.775
-0.665
-0.54
-0.4
-0.285
-0.16
-0.08
-0.065
-0.115
-0.225
-0.4
-0.63
-0.86
-1.1
-1.3
-1.47
-1.51
-1.49
-1.41
-1.315
-1.225
-1.175
-1.14
-1.09
-1.045
-1.01
-0.97
-0.925
-0.915
-0.91
-0.905
-0.91
-0.925
-0.93
-0.94
-0.935
-0.925
-0.91
-0.9
-0.89
-0.885
-0.875
-0.87
-0.88
-0.885
-0.885
-0.89
-0.885
-0.895
-0.88
-0.875
-0.87
-0.85
-0.84
-0.84
-0.84
-0.85
-0.86
-0.855
-0.87
-0.855
-0.835
-0.83
-0.825
-0.81
-0.8
-0.79
-0.8
-0.795
-0.82
-0.825
-0.825
-0.815
-0.8
-0.775
-0.76
-0.76
-0.75
-0.74
-0.745
-0.75
-0.74
-0.74
-0.74
-0.72
-0.7
-0.705
-0.695
-0.665
-0.655
-0.65
-0.645
-0.635
-0.63
-0.605
-0.615
-0.595
-0.57
-0.54
-0.54
-0.5
-0.5
-0.47
-0.46
-0.465
-0.455
-0.435
-0.435
-0.425
-0.41
-0.39
-0.385
-0.365
-0.36
-0.345
-0.345
-0.345
-0.365
-0.365
-0.395
-0.385
-0.37
-0.38
-0.4
-0.39
-0.42
-0.445
-0.48
-0.5
-0.53
-0.555
-0.595
-0.615
-0.645
-0.66
-0.69
-0.705
-0.725
-0.745
-0.78
-0.8
-0.835
-0.86
-0.88
-0.89
-0.875
-0.87
-0.885
-0.885
-0.88
-0.91
-0.9
-0.905
-0.93
-0.925
-0.93
-0.935
-0.94
-0.925
-0.925
-0.92
-0.92
-0.915
-0.915
-0.925
-0.945
-0.965
-0.965
-0.95
-0.95
-0.955
-0.95
-0.925
-0.92
-0.92
-0.945
-0.94
-0.93
-0.925
-0.935
-0.935
-0.93
-0.94
-0.935
-0.925
-0.9
-0.91
-0.905
-0.925
-0.925
-0.925
-0.945
-0.965
-0.96
-0.95
-0.915
-0.915
-0.905
-0.925
-0.94
-0.945
-0.94
-0.95
-0.955
-0.96
-0.97
-0.955
-0.95
-0.93
-0.93
-0.94
-0.95
-0.965
-0.965
-0.965
-0.97
-0.975
-0.965
-0.98
-0.97
-0.97
-0.96
-0.95
-0.96
-0.955
-0.955
-0.975
-0.985
-0.99
-0.985
-0.985
-0.975
-0.96
-0.95
-0.955
-0.97
-0.975
-0.985
-1.0
-1.005
-1.0
-1.0
-0.995
-1.005
-0.985
-0.965
-0.965
-0.98
-0.995
-1.0
-1.015
-1.005
-1.0
-1.005
-0.995
-0.995
-0.98
-0.97
-0.98
-0.98
-1.0
-1.01
-1.01
-1.02
-1.015
-1.025
-1.005
-0.995
-0.995
-0.985
-0.98
-0.985
-0.99
-0.995
-1.0
-1.005
-1.005
-1.01
-0.99
-0.985
-0.975
-0.97
-0.98
-0.995
-0.975
-0.995
-0.995
-0.995
-1.005
-0.995
-0.985
-0.995
-0.98
-0.98
-0.985
-0.99
-0.995
-0.99
-1.0
-1.005
-1.0
-0.99
-0.985
-0.97
-0.965
-0.97
-0.97
-0.975
-0.97
-0.97
-0.98
-0.99
-0.995
-1.005
-1.005
-0.975
-0.96
-0.96
-0.97
-0.97
-0.965
-0.97
-0.995
-0.98
-0.985
-0.99
-0.975
-0.97
-0.965
-0.965
-0.96
-0.965
-0.96
-0.97
-0.98
-0.98
-0.99
-0.995
-0.985
-0.965
-0.965
-0.965
-0.95
-0.955
-0.95
-0.965
-0.96
-0.975
-0.97
-0.97
-0.965
-0.955
-0.95
-0.945
-0.95
-0.97
-0.95
-0.975
-0.99
-0.975
-0.985
-0.975
-0.975
-0.96
-0.94
-0.92
-0.925
-0.915
-0.905
-0.915
-0.915
-0.92
-0.915
-0.91
-0.895
-0.87
-0.84
-0.825
-0.815
-0.8
-0.805
-0.815
-0.81
-0.825
-0.83
-0.855
-0.86
-0.865
-0.84
-0.84
-0.84
-0.855
-0.89
-0.905
-0.93
-0.95
-0.94
-0.96
-0.975
-0.97
-0.955
-0.965
-0.96
-0.97
-0.98
-0.985
-0.995
-1.0
-1.01
-1.005
-1.015
-0.995
-0.975
-0.965
-0.965
-0.975
-0.98
-1.0
-1.01
-1.03
-1.02
-0.975
-0.985
-0.97
-0.96
-0.95
-0.945
-0.96
-0.95
-0.94
-0.875
-0.805
-0.705
-0.58
-0.44
-0.295
-0.175
-0.075
-0.055
-0.06
-0.165
-0.345
-0.56
-0.81
-1.045
-1.255
-1.395
-1.465
-1.445
-1.36
-1.275
-1.21
-1.155
-1.115
-1.075
-1.06
-1.03
-0.985
-0.95
-0.915
-0.905
-0.915
-0.92
-0.955
-0.955
-0.96
-0.95
-0.96
-0.96
-0.945
-0.93
-0.92
-0.91
-0.9
-0.895
-0.905
-0.915
-0.905
-0.925
-0.915
-0.915
-0.925
-0.9
-0.885
-0.875
-0.875
-0.875
-0.885
-0.87
-0.88
-0.89
-0.89
-0.885
-0.885
-0.88
-0.86
-0.85
-0.855
-0.825
-0.835
-0.84
-0.835
-0.845
-0.84
-0.845
-0.835
-0.825
-0.815
-0.82
-0.805
-0.8
-0.79
-0.795
-0.805
-0.805
-0.795
-0.775
-0.775
-0.74
-0.725
-0.72
-0.7
-0.68
-0.675
-0.685
-0.68
-0.675
-0.655
-0.67
-0.645
-0.615
-0.58
-0.56
-0.535
-0.525
-0.51
-0.505
-0.5
-0.515
-0.49
-0.495
-0.46
-0.425
-0.42
-0.39
-0.395
-0.4
-0.39
-0.39
-0.385
-0.39
-0.385
-0.39
-0.4
-0.395
-0.39
-0.39
-0.405
-0.42
-0.435
-0.475
-0.495
-0.52
-0.555
-0.59
-0.615
-0.62
-0.65
-0.655
-0.675
-0.71
-0.73
-0.755
-0.79
-0.825
-0.845
-0.88
-0.87
-0.865
-0.87
-0.855
-0.855
-0.87
-0.895
-0.885
-0.92
-0.935
-0.94
-0.92
-0.935
-0.92
-0.92
-0.91
-0.905
-0.9
-0.915
-0.925
-0.94
-0.935
-0.96
-0.965
-0.945
-0.93
-0.94
-0.93
-0.93
-0.925
-0.925
-0.915
-0.925
-0.94
-0.93
-0.935
-0.93
-0.925
-0.905
-0.905
-0.905
-0.895
-0.905
-0.92
-0.935
-0.92
-0.925
-0.92
-0.925
-0.93
-0.915
-0.91
-0.905
-0.9
-0.905
-0.92
-0.93
-0.935
-0.935
-0.935
-0.945
-0.93
-0.925
-0.925
-0.925
-0.915
-0.93
-0.945
-0.955
-0.965
-0.965
-0.975
-0.965
-0.965
-0.955
-0.935
-0.94
-0.955
-0.95
-0.955
-0.97
-0.985
-0.985
-0.98
-0.98
-0.98
-0.965
-0.965
-0.965
-0.975
-0.97
-0.965
-0.98
-0.985
-0.985
-0.98
-0.975
-0.985
-0.99
-0.965
-0.975
-0.965
-0.96
-0.97
-0.99
-0.985
-1.005
-0.99
-0.99
-0.975
-0.97
-0.965
-0.96
-0.945
-0.955
-0.955
-0.975
-0.985
-0.98
-0.975
-0.99
-0.97
-0.955
-0.955
-0.965
-0.96
-0.955
-0.975
-0.975
-0.97
-0.985
-0.99
-1.0
-0.97
-0.965
-0.945
-0.94
-0.935
-0.96
-0.975
-0.98
-0.99
-1.0
-0.985
-0.99
-0.99
-0.995
-0.99
-0.97
-0.97
-0.965
-0.975
-0.97
-0.975
-0.97
-0.985
