Lead II
-0.625
-0.64
-0.655
-0.66
-0.66
-0.67
-0.675
-0.675
-0.675
-0.69
-0.705
-0.71
-0.73
-0.755
-0.77
-0.76
-0.765
-0.765
-0.77
-0.755
-0.755
-0.765
-0.775
-0.78
-0.78
-0.795
-0.795
-0.8
-0.805
-0.795
-0.8
-0.79
-0.775
-0.785
-0.79
-0.79
-0.785
-0.8
-0.8
-0.815
-0.81
-0.805
-0.795
-0.79
-0.79
-0.8
-0.8
-0.8
-0.795
-0.805
-0.815
-0.825
-0.825
-0.815
-0.815
-0.8
-0.795
-0.795
-0.8
-0.81
-0.815
-0.815
-0.82
-0.82
-0.835
-0.825
-0.82
-0.815
-0.805
-0.805
-0.8
-0.815
-0.825
-0.83
-0.835
-0.83
-0.84
-0.83
-0.82
-0.82
-0.8
-0.8
-0.805
-0.81
-0.825
-0.83
-0.83
-0.83
-0.83
-0.825
-0.825
-0.81
-0.81
-0.805
-0.805
-0.81
-0.825
-0.82
-0.835
-0.845
-0.845
-0.83
-0.82
-0.81
-0.805
-0.795
-0.8
-0.8
-0.81
-0.81
-0.815
-0.83
-0.835
-0.83
-0.81
-0.805
-0.805
-0.805
-0.805
-0.81
-0.81
-0.815
-0.825
-0.83
-0.815
-0.815
-0.805
-0.805
-0.795
-0.805
-0.795
-0.8
-0.815
-0.835
-0.82
-0.83
-0.82
-0.81
-0.8
-0.79
-0.775
-0.78
-0.785
-0.785
-0.8
-0.8
-0.8
-0.805
-0.805
-0.8
-0.8
-0.79
-0.785
-0.785
-0.79
-0.795
-0.81
-0.815
-0.8
-0.81
-0.81
-0.805
-0.79
-0.795
-0.78
-0.78
-0.78
-0.795
-0.795
-0.81
-0.805
-0.795
-0.805
-0.8
-0.795
-0.785
-0.785
-0.785
-0.785
-0.8
-0.79
-0.79
-0.8
-0.805
-0.8
-0.795
-0.785
-0.785
-0.77
-0.775
-0.785
-0.77
-0.78
-0.79
-0.8
-0.795
-0.79
-0.785
-0.79
-0.775
-0.78
-0.765
-0.775
-0.775
-0.785
-0.79
-0.78
-0.77
-0.76
-0.75
-0.735
-0.725
-0.71
-0.715
-0.725
-0.73
-0.745
-0.745
-0.75
-0.74
-0.745
-0.73
-0.73
-0.73
-0.725
-0.725
-0.72
-0.73
-0.745
-0.74
-0.75
-0.76
-0.755
-0.76
-0.75
-0.74
-0.745
-0.765
-0.765
-0.775
-0.79
-0.79
-0.8
-0.81
-0.8
-0.785
-0.785
-0.785
-0.77
-0.775
-0.775
-0.77
-0.78
-0.775
-0.775
-0.77
-0.765
-0.735
-0.7
-0.65
-0.58
-0.505
-0.425
-0.34
-0.28
-0.225
-0.18
-0.145
-0.11
-0.075
-0.035
-0.005
0.03
0.03
-0.01
-0.075
-0.16
-0.25
-0.34
-0.42
-0.485
-0.54
-0.605
-0.635
-0.665
-0.705
-0.735
-0.755
-0.77
-0.775
-0.795
-0.8
-0.78
-0.78
-0.75
-0.765
-0.765
-0.75
-0.745
-0.745
-0.75
-0.75
-0.76
-0.76
-0.755
-0.75
-0.745
-0.73
-0.715
-0.715
-0.72
-0.725
-0.73
-0.73
-0.73
-0.735
-0.73
-0.715
-0.705
-0.7
-0.695
-0.7
-0.695
-0.69
-0.705
-0.715
-0.72
-0.72
-0.71
-0.705
-0.695
-0.7
-0.68
-0.675
-0.68
-0.7
-0.69
-0.69
-0.695
-0.695
-0.69
-0.685
-0.68
-0.68
-0.66
-0.67
-0.665
-0.66
-0.66
-0.67
-0.67
-0.675
-0.675
-0.66
-0.645
-0.635
-0.635
-0.63
-0.62
-0.63
-0.63
-0.62
-0.635
-0.645
-0.645
-0.63
-0.62
-0.625
-0.615
-0.605
-0.605
-0.605
-0.62
-0.62
-0.63
-0.64
-0.635
-0.64
-0.645
-0.635
-0.635
-0.645
-0.655
-0.66
-0.675
-0.68
-0.7
-0.715
-0.715
-0.725
-0.715
-0.725
-0.725
-0.74
-0.75
-0.775
-0.785
-0.785
-0.79
-0.785
-0.79
-0.795
-0.785
-0.775
-0.765
-0.77
-0.775
-0.78
-0.79
-0.8
-0.82
-0.805
-0.805
-0.795
-0.79
-0.79
-0.78
-0.795
-0.79
-0.81
-0.81
-0.815
-0.825
-0.825
-0.82
-0.815
-0.815
-0.805
-0.8
-0.795
-0.8
-0.815
-0.815
-0.82
-0.825
-0.83
-0.83
-0.82
-0.82
-0.82
-0.81
-0.81
-0.82
-0.835
-0.84
-0.84
-0.85
-0.85
-0.85
-0.845
-0.825
-0.835
-0.825
-0.815
-0.825
-0.825
-0.835
-0.845
-0.855
-0.855
-0.845
-0.835
-0.84
-0.83
-0.82
-0.825
-0.825
-0.825
-0.83
-0.835
-0.845
-0.87
-0.865
-0.845
-0.84
-0.82
-0.805
-0.81
-0.815
-0.815
-0.815
-0.825
-0.815
-0.835
-0.84
-0.825
-0.82
-0.8
-0.805
-0.79
-0.8
-0.8
-0.8
-0.81
-0.815
-0.815
-0.83
-0.81
-0.815
-0.795
-0.79
-0.8
-0.795
-0.795
-0.8
-0.8
-0.805
-0.8
-0.81
-0.795
-0.8
-0.79
-0.8
-0.785
-0.79
-0.795
-0.805
-0.805
-0.795
-0.81
-0.805
-0.8
-0.795
-0.79
-0.775
-0.77
-0.77
-0.78
-0.785
-0.785
-0.79
-0.8
-0.805
-0.79
-0.77
-0.775
-0.76
-0.765
-0.765
-0.765
-0.765
-0.78
-0.775
-0.775
-0.77
-0.77
-0.76
-0.76
-0.75
-0.75
-0.75
-0.75
-0.76
-0.755
-0.755
-0.755
-0.765
-0.755
-0.75
-0.76
-0.74
-0.745
-0.73
-0.73
-0.745
-0.75
-0.755
-0.76
-0.755
-0.745
-0.74
-0.735
-0.72
-0.71
-0.72
-0.715
-0.72
-0.735
-0.73
-0.74
-0.73
-0.725
-0.715
-0.7
-0.7
-0.675
-0.66
-0.66
-0.66
-0.68
-0.685
-0.685
-0.69
-0.68
-0.67
-0.665
-0.66
-0.65
-0.65
-0.65
-0.665
-0.675
-0.695
-0.695
-0.685
-0.68
-0.685
-0.67
-0.66
-0.65
-0.665
-0.67
-0.675
-0.685
-0.7
-0.715
-0.73
-0.74
-0.72
-0.73
-0.72
-0.71
-0.705
-0.705
-0.715
-0.715
-0.725
-0.745
-0.74
-0.735
-0.72
-0.705
-0.685
-0.675
-0.665
-0.65
-0.61
-0.56
-0.495
-0.41
-0.305
-0.21
-0.135
-0.055
0.01
0.055
0.09
0.125
0.15
0.155
0.15
0.115
0.05
-0.025
-0.1
-0.17
-0.22
-0.3
-0.38
-0.455
-0.525
-0.595
-0.635
-0.685
-0.71
-0.73
-0.72
-0.715
-0.69
-0.685
-0.675
-0.665
-0.685
-0.685
-0.695
-0.705
-0.7
-0.7
-0.685
-0.675
-0.665
-0.665
-0.655
-0.655
-0.675
-0.675
-0.675
-0.675
-0.68
-0.67
-0.665
-0.645
-0.64
-0.635
-0.64
-0.655
-0.665
-0.655
-0.655
-0.66
-0.655
-0.645
-0.635
-0.63
-0.63
-0.615
-0.62
-0.63
-0.63
-0.635
-0.645
-0.64
-0.63
-0.635
-0.63
-0.62
-0.61
-0.615
-0.6
-0.6
-0.61
-0.605
-0.625
-0.62
-0.615
-0.605
-0.6
-0.59
-0.58
-0.57
-0.575
-0.575
-0.575
-0.595
-0.58
-0.59
-0.575
-0.56
-0.565
-0.56
-0.54
-0.53
-0.535
-0.54
-0.54
-0.545
-0.565
-0.57
-0.57
-0.57
-0.565
-0.55
-0.54
-0.535
-0.55
-0.555
-0.57
-0.58
-0.605
-0.6
-0.605
-0.61
-0.61
-0.61
-0.6
-0.61
-0.63
-0.64
-0.66
-0.675
-0.695
-0.695
-0.695
-0.7
-0.715
-0.7
-0.705
-0.7
-0.715
-0.72
-0.73
-0.745
-0.76
-0.76
-0.78
-0.76
-0.76
-0.75
-0.735
-0.73
-0.74
-0.74
-0.75
-0.745
-0.745
-0.76
-0.765
-0.765
-0.755
-0.75
-0.75
-0.74
-0.755
-0.755
-0.76
-0.765
-0.77
-0.78
-0.775
-0.775
-0.77
-0.76
-0.76
-0.765
-0.755
-0.765
-0.77
-0.79
-0.785
-0.795
-0.805
-0.79
-0.79
-0.79
-0.785
-0.775
-0.78
-0.775
-0.79
-0.8
-0.81
-0.81
-0.815
-0.805
-0.81
-0.815
-0.8
-0.8
-0.8
-0.795
-0.795
-0.82
-0.825
-0.825
-0.82
-0.825
-0.82
-0.805
-0.805
-0.785
-0.795
-0.805
-0.815
-0.825
-0.825
-0.825
-0.83
-0.825
-0.81
-0.82
-0.82
-0.81
-0.81
-0.81
-0.815
-0.815
-0.82
-0.82
-0.825
-0.825
-0.82
-0.82
-0.805
-0.795
-0.795
-0.795
-0.805
-0.82
-0.82
-0.825
-0.81
-0.825
-0.81
-0.805
-0.79
-0.795
-0.805
-0.8
-0.81
-0.82
-0.82
-0.82
-0.835
-0.825
-0.81
-0.81
-0.81
-0.8
-0.795
-0.81
-0.81
-0.815
-0.835
-0.825
-0.835
-0.82
-0.815
-0.81
-0.805
-0.79
-0.8
-0.795
-0.805
-0.81
-0.82
-0.83
-0.825
-0.815
-0.815
-0.815
-0.815
-0.805
-0.805
-0.805
-0.81
-0.825
-0.84
-0.83
-0.835
-0.825
-0.82
-0.81
-0.8
-0.795
-0.805
-0.81
-0.825
-0.835
-0.825
-0.84
-0.83
-0.835
-0.83
-0.825
-0.805
-0.81
-0.805
-0.805
-0.82
-0.825
-0.83
-0.845
-0.84
-0.835
-0.825
-0.815
-0.8
-0.785
-0.78
-0.765
-0.77
-0.76
-0.78
-0.785
-0.775
-0.79
-0.78
-0.785
-0.77
-0.755
-0.77
-0.775
-0.775
-0.79
-0.79
-0.81
-0.81
-0.805
-0.79
-0.78
-0.77
-0.775
-0.775
-0.77
-0.8
-0.8
-0.8
-0.82
-0.84
-0.85
-0.84
-0.84
-0.83
-0.825
-0.83
-0.815
-0.835
-0.825
-0.84
-0.845
-0.85
-0.84
-0.835
-0.825
-0.82
-0.815
-0.795
-0.805
-0.8
-0.8
-0.78
-0.735
-0.7
-0.63
-0.545
-0.45
-0.365
-0.275
-0.215
-0.155
-0.12
-0.08
-0.08
-0.06
-0.03
0.0
0.025
0.015
-0.04
-0.1
-0.175
-0.265
-0.365
-0.455
-0.545
-0.63
-0.69
-0.75
-0.785
-0.825
-0.83
-0.825
-0.825
-0.815
-0.805
-0.81
-0.815
-0.82
-0.81
-0.815
-0.805
-0.81
-0.8
-0.8
-0.795
-0.8
-0.8
-0.8
-0.805
-0.81
-0.805
-0.805
-0.8
-0.785
-0.78
-0.785
-0.775
-0.765
-0.79
-0.785
-0.78
-0.78
-0.775
-0.78
-0.78
-0.77
-0.74
-0.75
-0.75
-0.745
-0.75
-0.755
-0.765
-0.76
-0.755
-0.755
-0.745
-0.74
-0.725
-0.725
-0.715
-0.72
-0.725
-0.735
-0.745
-0.745
-0.74
-0.73
-0.725
-0.725
-0.71
-0.695
-0.71
-0.71
-0.72
-0.735
-0.72
-0.715
-0.72
-0.7
-0.695
-0.69
-0.675
-0.67
-0.67
-0.67
-0.69
-0.69
-0.695
-0.695
-0.69
-0.705
-0.685
-0.685
-0.7
-0.7
-0.685
-0.7
-0.715
-0.725
-0.74
-0.745
-0.75
-0.76
-0.745
-0.755
-0.755
-0.755
-0.76
-0.775
-0.785
-0.815
-0.82
-0.825
-0.845
-0.84
-0.835
-0.835
-0.84
-0.845
-0.845
-0.86
-0.86
-0.88
-0.89
-0.89
-0.875
-0.88
-0.88
-0.87
-0.875
-0.86
-0.855
-0.86
-0.87
-0.875
-0.88
-0.885
-0.895
-0.89
-0.885
-0.885
-0.895
-0.87
-0.875
-0.875
-0.88
-0.89
-0.905
-0.9
-0.9
-0.9
-0.89
-0.89
-0.88
-0.885
-0.89
-0.885
-0.895
-0.905
-0.91
-0.9
-0.92
-0.92
-0.905
-0.91
-0.905
-0.895
-0.9
-0.895
-0.905
-0.91
-0.925
-0.93
-0.93
-0.92
-0.91
-0.905
-0.905
-0.91
-0.905
-0.92
-0.92
-0.94
-0.925
-0.93
-0.935
-0.95
-0.935
-0.93
-0.905
-0.915
-0.905
-0.905
-0.915
-0.925
-0.935
-0.93
-0.925
-0.93
-0.915
-0.91
-0.91
-0.905
-0.895
-0.91
-0.915
-0.92
-0.93
-0.93
-0.94
-0.94
-0.915
-0.905
-0.9
-0.895
-0.9
-0.915
-0.915
-0.92
-0.925
-0.925
-0.925
-0.92
-0.92
-0.915
-0.91
-0.895
-0.895
-0.895
-0.895
-0.9
-0.91
-0.92
-0.915
-0.92
-0.91
-0.9
-0.895
-0.885
-0.89
-0.89
-0.9
-0.905
-0.91
-0.905
-0.91
-0.895
-0.89
-0.89
-0.89
-0.885
-0.88
-0.88
-0.885
-0.89
-0.905
-0.905
-0.91
-0.9
-0.895
-0.905
-0.885
-0.88
-0.875
-0.88
-0.895
-0.89
-0.895
-0.91
-0.9
-0.91
-0.89
-0.885
-0.875
-0.875
-0.88
-0.88
-0.89
-0.89
-0.9
-0.9
-0.905
-0.9
-0.89
-0.89
-0.88
-0.875
-0.875
-0.885
-0.885
-0.89
-0.895
-0.9
-0.9
-0.885
-0.875
-0.845
-0.84
-0.815
-0.81
-0.815
-0.845
-0.85
-0.85
-0.855
-0.855
-0.85
-0.85
-0.835
-0.835
-0.825
-0.83
-0.84
-0.86
-0.87
-0.87
-0.875
-0.865
-0.865
-0.855
-0.855
-0.85
-0.85
-0.85
-0.86
-0.875
-0.885
-0.89
-0.905
-0.9
-0.905
-0.905
-0.905
-0.89
-0.89
-0.9
-0.895
-0.905
-0.905
-0.91
-0.905
-0.91
-0.89
-0.89
-0.875
-0.86
-0.845
-0.82
-0.785
-0.745
-0.68
-0.605
-0.53
-0.46
-0.38
-0.3
-0.235
-0.2
-0.165
-0.13
-0.095
-0.09
-0.08
-0.105
-0.165
-0.235
-0.315
-0.385
-0.475
-0.555
-0.635
-0.7
-0.755
-0.805
-0.84
-0.875
-0.895
-0.9
-0.9
-0.88
-0.865
-0.865
-0.85
-0.845
-0.85
-0.86
-0.86
-0.87
-0.875
-0.88
-0.875
-0.875
-0.865
-0.86
-0.86
-0.84
-0.85
-0.845
-0.855
-0.86
-0.87
-0.86
-0.85
-0.845
-0.84
-0.835
-0.83
-0.83
-0.82
-0.82
-0.83
-0.85
-0.845
-0.84
-0.84
-0.83
-0.83
-0.81
-0.815
-0.81
-0.82
-0.81
-0.815
-0.825
-0.835
-0.835
-0.83
-0.82
-0.81
-0.805
-0.795
-0.79
-0.805
-0.805
-0.805
-0.815
-0.81
-0.815
-0.79
-0.775
-0.78
-0.765
-0.76
-0.76
-0.75
-0.745
-0.76
-0.765
-0.755
-0.77
-0.755
-0.76
-0.75
-0.74
-0.725
-0.74
-0.725
-0.745
-0.755
-0.765
-0.76
-0.76
-0.765
-0.76
-0.755
-0.755
-0.76
-0.76
-0.77
-0.785
-0.8
-0.82
-0.83
-0.825
-0.84
-0.835
-0.84
-0.845
-0.845
-0.845
-0.865
-0.875
-0.885
-0.905
-0.925
-0.925
-0.93
-0.925
-0.915
-0.91
-0.91
-0.915
-0.92
-0.93
-0.94
-0.95
-0.96
-0.95
-0.94
-0.94
-0.94
-0.935
-0.93
-0.925
-0.925
-0.925
-0.955
-0.95
-0.96
-0.955
-0.95
-0.95
-0.94
-0.935
-0.925
-0.94
-0.94
-0.95
-0.96
-0.965
-0.975
-0.97
-0.97
-0.975
-0.955
-0.955
-0.95
-0.955
-0.96
-0.96
-0.97
-0.985
-0.98
-0.98
-0.98
-0.98
-0.975
-0.965
-0.965
-0.97
-0.98
-0.985
-0.99
-0.995
-1.005
-1.005
-0.995
-0.98
-0.98
-0.975
-0.965
-0.965
-0.965
-0.97
-0.98
-0.99
-0.985
-0.99
-0.99
-0.98
-0.97
-0.965
-0.96
-0.96
-0.965
-0.975
-0.975
-0.975
-0.985
-0.985
-0.98
-0.985
-0.975
-0.975
-0.965
-0.96
-0.975
-0.965
-0.99
-0.975
-0.975
-0.975
-0.98
-0.97
-0.955
-0.94
-0.945
-0.945
-0.96
-0.97
-0.975
-0.98
-0.975
-0.97
-0.96
-0.97
-0.965
-0.945
-0.935
-0.94
-0.945
-0.95
-0.95
-0.96
-0.955
-0.96
-0.95
-0.95
-0.94
-0.935
-0.94
-0.935
-0.94
-0.945
-0.945
-0.96
-0.97
-0.98
-0.97
-0.965
-0.955
-0.945
-0.94
-0.935
-0.94
-0.94
-0.95
-0.96
-0.965
-0.955
-0.95
-0.945
-0.95
-0.935
-0.925
-0.925
-0.945
-0.935
-0.945
-0.94
-0.945
-0.945
-0.95
-0.935
-0.94
-0.925
-0.91
-0.915
-0.915
-0.915
-0.92
-0.925
-0.93
-0.94
-0.925
-0.925
-0.91
-0.9
-0.895
-0.895
-0.895
-0.895
-0.895
-0.895
-0.885
-0.875
-0.865
-0.855
-0.855
-0.85
-0.84
-0.85
-0.845
-0.85
-0.865
-0.86
-0.865
-0.88
-0.855
-0.865
-0.87
-0.855
-0.855
-0.85
-0.84
-0.85
-0.86
-0.865
-0.865
-0.87
-0.875
-0.88
-0.875
-0.885
-0.875
-0.885
-0.89
-0.89
-0.92
-0.92
-0.92
-0.925
-0.91
-0.895
-0.9
-0.89
-0.885
-0.885
-0.895
-0.89
-0.905
-0.895
-0.89
-0.88
-0.865
-0.85
-0.815
-0.76
-0.695
-0.63
-0.54
-0.475
-0.405
-0.345
-0.29
-0.245
-0.215
-0.185
-0.145
-0.105
-0.04
-0.04
-0.07
-0.13
-0.2
-0.28
-0.37
-0.45
-0.53
-0.605
-0.665
-0.73
-0.775
-0.81
-0.84
-0.875
-0.89
-0.88
-0.885
-0.875
-0.87
-0.87
-0.86
-0.85
-0.845
-0.845
-0.85
-0.85
-0.86
-0.86
-0.865
-0.86
-0.855
-0.84
-0.845
-0.825
-0.82
-0.82
-0.81
-0.82
-0.825
-0.83
-0.845
-0.83
-0.825
-0.815
-0.815
-0.805
-0.8
-0.805
-0.79
-0.79
-0.81
-0.82
-0.825
-0.815
-0.805
-0.795
-0.785
-0.775
-0.775
-0.76
-0.77
-0.785
-0.78
-0.775
-0.78
-0.79
-0.79
-0.78
-0.775
-0.76
-0.745
-0.75
-0.74
-0.75
-0.76
-0.77
-0.76
-0.765
-0.775
-0.765
-0.745
-0.735
-0.745
-0.72
-0.72
-0.715
-0.72
-0.72
-0.72
-0.73
-0.725
-0.72
-0.71
-0.705
-0.7
-0.705
-0.695
-0.7
-0.705
-0.72
-0.715
-0.725
-0.725
-0.72
-0.715
-0.73
-0.725
-0.715
-0.73
-0.745
-0.745
-0.76
-0.765
-0.78
-0.8
-0.79
-0.79
-0.79
-0.795
-0.815
-0.81
-0.825
-0.845
-0.855
-0.865
-0.87
-0.875
-0.875
-0.865
-0.86
-0.86
-0.865
-0.885
-0.885
-0.89
-0.89
-0.885
-0.895
-0.89
-0.89
-0.885
-0.875
-0.88
-0.88
-0.88
-0.885
-0.895
-0.9
-0.915
-0.905
-0.9
-0.895
-0.885
-0.88
-0.885
-0.87
-0.885
-0.9
-0.905
-0.905
-0.91
-0.92
-0.9
-0.885
-0.89
-0.895
-0.895
-0.885
-0.89
-0.89
-0.89
-0.91
-0.91
-0.915
-0.925
-0.915
-0.925
-0.91
-0.895
-0.91
-0.905
-0.895
-0.91
-0.92
-0.92
-0.92
-0.92
-0.905
-0.9
-0.895
-0.89
-0.885
-0.89
-0.895
-0.905
-0.905
-0.915
-0.92
-0.91
-0.91
-0.91
-0.905
-0.9
-0.89
-0.885
-0.89
-0.905
-0.9
-0.905
-0.915
-0.915
-0.91
-0.91
-0.89
-0.885
-0.885
-0.9
-0.885
-0.885
-0.89
-0.895
-0.9
-0.895
-0.895
-0.9
-0.89
-0.88
-0.875
-0.88
-0.88
-0.89
-0.885
-0.89
-0.895
-0.895
-0.88
-0.865
-0.865
-0.855
-0.865
-0.865
-0.88
-0.885
-0.885
-0.885
-0.89
-0.875
-0.87
-0.87
-0.86
-0.845
-0.85
-0.86
-0.85
-0.865
-0.88
-0.86
-0.87
-0.865
-0.875
-0.865
-0.84
-0.835
-0.86
-0.855
-0.86
-0.865
-0.87
-0.875
-0.87
-0.88
-0.875
-0.86
-0.855
-0.845
-0.845
-0.84
-0.87
-0.86
-0.87
-0.87
-0.88
-0.87
-0.865
-0.85
-0.845
-0.83
-0.83
-0.83
-0.845
-0.845
-0.84
-0.85
-0.85
-0.86
-0.86
-0.845
-0.835
-0.835
-0.835
-0.835
-0.835
-0.84
-0.845
-0.85
-0.84
-0.845
-0.835
-0.805
-0.785
-0.775
-0.785
-0.77
-0.785
-0.78
-0.79
-0.79
-0.795
-0.775
-0.785
-0.79
-0.785
-0.775
-0.77
-0.775
-0.78
-0.79
-0.815
-0.81
-0.8
-0.8
-0.79
-0.795
-0.79
-0.785
-0.8
-0.8
-0.815
-0.83
-0.835
-0.855
-0.855
-0.865
-0.835
-0.845
-0.83
-0.82
-0.825
-0.825
-0.82
-0.84
-0.845
-0.845
-0.85
-0.845
-0.835
-0.82
-0.81
-0.8
-0.79
-0.775
-0.755
-0.72
-0.67
-0.59
-0.51
-0.415
-0.325
-0.25
-0.18
-0.15
-0.11
-0.07
-0.045
-0.025
-0.03
-0.1
-0.16
-0.24
-0.32
-0.395
-0.47
-0.515
-0.595
-0.645
-0.7
-0.74
-0.77
-0.805
-0.825
-0.835
-0.82
-0.81
-0.81
-0.79
-0.795
-0.8
-0.8
-0.805
-0.805
-0.82
-0.825
-0.81
-0.805
-0.785
-0.775
-0.78
-0.775
-0.795
-0.805
-0.79
-0.79
-0.79
-0.785
-0.795
-0.785
-0.775
-0.77
-0.77
-0.765
-0.765
-0.765
-0.77
-0.785
-0.785
-0.785
-0.805
-0.8
-0.77
-0.76
-0.75
-0.75
-0.755
-0.745
-0.755
-0.77
-0.77
-0.765
-0.77
-0.77
-0.74
-0.735
-0.735
-0.73
-0.73
-0.74
-0.75
-0.75
-0.75
-0.74
-0.74
-0.72
-0.725
-0.72
-0.72
-0.715
-0.71
-0.71
-0.71
-0.7
-0.695
-0.705
-0.69
-0.685
-0.685
-0.68
-0.68
-0.68
-0.675
-0.685
-0.685
-0.705
-0.7
-0.71
-0.71
-0.705
-0.695
-0.7
-0.71
-0.725
-0.71
-0.725
-0.73
-0.755
-0.755
-0.76
-0.76
-0.77
-0.775
-0.77
-0.77
-0.795
-0.795
-0.795
-0.805
-0.825
-0.835
-0.84
-0.85
-0.835
-0.83
-0.835
-0.83
-0.835
-0.84
-0.845
-0.85
-0.855
-0.86
-0.865
-0.88
-0.865
-0.86
-0.865
-0.84
-0.85
-0.85
-0.85
-0.855
-0.865
-0.865
-0.87
-0.875
-0.875
-0.86
-0.865
-0.85
-0.855
-0.87
-0.865
-0.87
-0.885
-0.88
-0.885
-0.885
-0.87
-0.875
-0.865
-0.865
-0.88
-0.865
-0.86
-0.87
-0.86
-0.885
-0.885
-0.885
-0.89
-0.885
-0.89
-0.88
-0.885
-0.88
-0.875
-0.895
-0.895
-0.89
-0.89
-0.895
-0.885
-0.885
-0.875
-0.88
-0.875
-0.875
-0.87
-0.89
-0.88
-0.89
-0.895
-0.9
-0.89
-0.88
-0.87
-0.865
-0.87
-0.87
-0.87
-0.87
-0.875
-0.89
-0.88
-0.89
-0.885
-0.875
-0.87
-0.865
-0.84
-0.87
-0.875
-0.86
-0.865
-0.86
-0.87
-0.865
-0.86
-0.865
-0.86
-0.84
-0.84
-0.85
-0.855
-0.855
-0.85
-0.865
-0.875
-0.865
-0.865
-0.855
-0.86
-0.845
-0.84
-0.83
-0.84
-0.84
-0.85
-0.855
-0.86
-0.845
-0.845
-0.845
-0.84
-0.82
-0.82
-0.835
-0.83
-0.84
-0.855
-0.85
-0.855
-0.845
-0.845
-0.835
-0.835
-0.825
-0.835
-0.84
-0.845
-0.835
-0.84
-0.835
-0.845
-0.84
-0.835
-0.825
-0.815
-0.815
-0.805
-0.82
-0.82
-0.83
-0.84
-0.85
-0.85
-0.84
-0.83
-0.815
-0.815
-0.81
-0.8
-0.82
-0.815
-0.82
-0.825
-0.815
-0.825
-0.8
-0.795
-0.775
-0.76
-0.75
-0.75
-0.745
-0.745
-0.745
-0.745
-0.755
-0.74
-0.735
-0.735
-0.725
-0.705
-0.71
-0.715
-0.715
-0.715
-0.715
-0.735
-0.735
-0.75
-0.75
-0.755
-0.755
-0.75
-0.75
-0.745
-0.755
-0.75
-0.78
-0.79
-0.81
-0.825
-0.835
-0.83
-0.845
-0.825
-0.815
-0.815
-0.815
-0.825
-0.825
-0.835
-0.83
-0.835
-0.845
-0.83
-0.83
-0.815
-0.8
-0.79
-0.785
-0.79
-0.78
-0.775
-0.735
-0.7
-0.635
-0.56
-0.455
-0.355
-0.255
-0.175
-0.1
-0.045
-0.02
0.0
0.03
0.04
0.03
-0.015
-0.075
-0.145
-0.22
-0.3
-0.39
-0.475
-0.56
-0.64
-0.7
-0.75
-0.78
-0.81
-0.815
-0.815
-0.8
-0.8
-0.79
-0.795
-0.795
-0.805
-0.815
-0.805
-0.81
-0.8
-0.81
-0.795
-0.78
-0.785
-0.785
-0.79
-0.795
-0.79
-0.81
-0.8
-0.8
-0.795
-0.785
-0.775
-0.765
-0.76
-0.765
-0.785
-0.775
-0.78
-0.785
-0.78
-0.785
-0.775
-0.775
-0.77
-0.755
-0.765
-0.76
-0.76
-0.77
-0.775
-0.78
-0.785
-0.78
-0.765
-0.75
-0.745
-0.735
-0.74
-0.74
-0.73
-0.74
-0.745
-0.735
-0.745
-0.75
-0.74
-0.73
-0.725
-0.715
-0.715
-0.705
-0.715
-0.71
-0.72
-0.715
-0.72
-0.72
-0.715
-0.69
-0.675
-0.665
-0.655
-0.67
-0.665
-0.69
-0.695
-0.69
-0.7
-0.705
-0.695
-0.705
-0.695
-0.685
-0.7
-0.72
-0.725
-0.73
-0.73
-0.74
-0.74
-0.75
-0.755
-0.75
-0.75
-0.76
-0.775
-0.78
-0.795
-0.81
-0.83
-0.835
-0.85
-0.87
-0.85
-0.85
-0.845
-0.84
-0.835
-0.85
-0.845
-0.86
-0.87
-0.885
-0.89
-0.875
-0.87
-0.87
-0.86
-0.855
-0.865
-0.845
-0.85
-0.86
-0.875
-0.885
-0.87
-0.875
-0.875
-0.865
-0.865
-0.85
-0.855
-0.85
-0.855
-0.88
-0.88
-0.875
-0.875
-0.88
-0.885
-0.89
-0.88
-0.875
-0.865
-0.865
-0.88
-0.88
-0.895
-0.905
-0.915
-0.905
-0.905
-0.905
-0.895
-0.885
-0.885
-0.88
-0.885
-0.895
-0.895
-0.905
-0.915
-0.925
-0.905
-0.9
-0.895
-0.89
-0.885
-0.88
-0.89
-0.9
-0.91
-0.905
-0.915
-0.9
-0.91
-0.895
-0.885
-0.88
-0.885
-0.89
-0.885
-0.89
-0.905
-0.91
-0.91
-0.9
-0.91
-0.895
-0.895
-0.89
-0.885
-0.89
-0.89
-0.895
-0.9
-0.905
-0.9
-0.905
-0.895
-0.885
-0.885
-0.87
-0.875
-0.88
-0.88
-0.895
-0.89
-0.885
-0.895
-0.9
-0.885
-0.875
-0.87
-0.87
-0.86
-0.87
-0.885
-0.895
-0.895
-0.895
-0.91
-0.9
-0.895
-0.89
-0.88
-0.87
-0.87
-0.875
-0.895
-0.885
-0.895
-0.9
-0.895
-0.895
-0.89
-0.88
-0.87
-0.865
-0.865
-0.855
-0.87
-0.875
-0.885
-0.895
-0.9
-0.895
-0.9
-0.875
-0.875
-0.86
-0.855
-0.86
-0.87
-0.88
-0.88
-0.895
-0.89
-0.895
-0.895
-0.875
-0.865
-0.85
-0.84
-0.835
-0.825
-0.83
-0.82
-0.82
-0.825
-0.81
-0.805
-0.795
-0.77
-0.755
-0.745
-0.735
-0.725
-0.735
-0.735
-0.75
-0.75
-0.745
-0.74
-0.74
-0.74
-0.73
-0.735
-0.73
-0.75
-0.77
-0.77
-0.79
-0.8
-0.8
-0.795
-0.805
-0.805
-0.83
-0.85
-0.86
-0.87
-0.88
-0.895
-0.895
-0.91
-0.9
-0.895
-0.895
-0.89
-0.88
-0.875
-0.865
-0.87
-0.885
-0.88
-0.885
-0.89
-0.875
-0.86
-0.84
-0.8
-0.77
-0.695
-0.635
-0.545
-0.475
-0.4
-0.35
-0.295
-0.255
-0.215
-0.17
-0.13
-0.08
-0.04
-0.02
-0.03
-0.095
-0.17
-0.265
-0.34
-0.42
-0.51
-0.57
-0.655
-0.695
-0.76
-0.8
-0.825
-0.87
-0.89
-0.89
-0.885
-0.885
-0.87
-0.87
-0.85
-0.845
-0.85
-0.855
-0.845
-0.86
-0.855
-0.86
-0.865
-0.86
-0.855
-0.845
-0.835
-0.84
-0.835
-0.84
-0.835
-0.84
-0.85
-0.855
-0.86
-0.85
-0.845
-0.84
-0.84
-0.815
-0.81
-0.81
-0.81
-0.815
-0.82
-0.83
-0.845
-0.83
-0.825
-0.815
-0.8
-0.8
-0.79
-0.785
-0.795
-0.8
-0.8
-0.82
-0.8
-0.805
-0.805
-0.795
-0.79
-0.78
-0.775
-0.765
-0.775
-0.775
-0.785
-0.785
-0.785
-0.775
-0.77
-0.77
-0.755
-0.75
-0.735
-0.735
-0.735
-0.735
-0.74
-0.74
-0.745
-0.75
-0.735
-0.72
-0.715
-0.71
-0.71
-0.71
-0.7
-0.715
-0.725
-0.73
-0.745
-0.74
-0.735
-0.74
-0.75
-0.74
-0.745
-0.755
-0.75
-0.76
-0.77
-0.8
-0.8
-0.815
-0.815
-0.815
-0.81
-0.815
-0.83
-0.83
-0.835
-0.855
-0.86
-0.88
-0.885
-0.885
-0.9
-0.89
-0.89
-0.88
-0.875
-0.885
-0.9
-0.905
-0.91
-0.905
-0.91
-0.9
-0.895
-0.89
-0.885
-0.88
-0.87
-0.87
-0.87
-0.885
-0.885
-0.905
-0.905
-0.91
-0.9
-0.88
-0.885
-0.875
-0.87
-0.885
-0.895
-0.89
-0.905
-0.905
-0.91
-0.9
-0.905
-0.905
-0.895
-0.885
-0.89
-0.885
-0.89
-0.905
-0.905
-0.915
-0.925
-0.935
-0.93
-0.91
-0.915
-0.89
-0.9
-0.905
-0.9
-0.915
-0.915
-0.94
-0.94
-0.935
-0.92
-0.91
-0.91
-0.89
-0.905
-0.89
-0.895
-0.91
-0.905
-0.915
-0.925
-0.92
-0.915
-0.905
-0.9
-0.9
-0.9
-0.9
-0.91
-0.905
-0.915
-0.92
-0.91
-0.915
-0.905
-0.905
-0.895
-0.88
-0.885
-0.88
-0.885
-0.9
-0.905
-0.9
-0.905
-0.925
-0.915
-0.905
-0.89
-0.89
-0.895
-0.89
-0.885
-0.895
-0.895
-0.91
-0.905
-0.91
-0.915
-0.915
-0.895
-0.885
-0.88
-0.885
-0.895
-0.895
-0.89
-0.89
-0.895
-0.89
-0.88
-0.88
-0.865
-0.87
-0.875
-0.88
-0.875
-0.88
-0.875
-0.89
-0.89
-0.885
-0.88
-0.87
-0.875
-0.86
-0.855
-0.86
-0.86
-0.88
-0.87
-0.88
-0.895
-0.885
-0.88
-0.895
-0.885
-0.875
-0.87
-0.87
-0.855
-0.86
-0.865
-0.865
-0.87
-0.865
-0.855
-0.845
-0.84
-0.835
-0.835
-0.83
-0.83
-0.84
-0.83
-0.835
-0.825
-0.81
-0.805
-0.795
-0.785
-0.775
-0.76
-0.745
-0.74
-0.745
-0.745
-0.735
-0.73
-0.715
-0.72
-0.705
-0.705
-0.7
-0.7
-0.705
-0.715
-0.74
-0.75
-0.76
-0.775
-0.775
-0.785
-0.775
-0.785
-0.765
-0.79
-0.81
-0.825
-0.845
-0.855
-0.885
-0.88
-0.875
-0.87
-0.85
-0.85
-0.845
-0.85
-0.845
-0.845
-0.845
-0.855
-0.855
-0.87
-0.865
-0.85
-0.825
-0.8
-0.78
-0.745
-0.7
-0.62
-0.535
-0.46
-0.4
-0.33
-0.295
-0.24
-0.21
-0.17
-0.13
-0.085
-0.055
-0.025
-0.03
-0.09
-0.155
-0.24
-0.325
-0.395
-0.48
-0.545
-0.625
-0.68
-0.745
-0.79
-0.83
-0.86
-0.875
-0.885
-0.88
-0.875
-0.855
-0.85
-0.835
-0.835
-0.83
-0.835
-0.835
-0.845
-0.855
-0.855
-0.85
-0.845
-0.85
-0.83
-0.825
-0.82
-0.835
-0.815
-0.82
-0.815
-0.82
-0.83
-0.825
-0.825
-0.81
-0.805
-0.795
-0.795
-0.8
-0.8
-0.795
-0.81
-0.805
-0.805
-0.815
-0.805
-0.795
-0.795
-0.78
-0.775
-0.775
-0.775
-0.78
-0.785
-0.79
-0.795
-0.795
-0.78
-0.775
-0.77
-0.775
-0.755
-0.755
-0.765
-0.77
-0.765
-0.775
-0.785
-0.76
-0.76
-0.745
-0.74
-0.725
-0.725
-0.72
-0.72
-0.715
-0.715
-0.72
-0.72
-0.72
-0.71
-0.72
-0.71
-0.705
-0.7
-0.685
-0.7
-0.705
-0.705
-0.71
-0.725
-0.745
-0.725
-0.73
-0.72
-0.72
-0.725
-0.73
-0.735
-0.745
-0.755
-0.77
-0.78
-0.79
-0.79
-0.795
-0.8
-0.805
-0.8
-0.825
-0.825
-0.83
-0.855
-0.86
-0.865
-0.88
-0.875
-0.875
-0.86
-0.85
-0.865
-0.865
-0.85
-0.855
-0.865
-0.865
-0.885
-0.88
-0.88
-0.87
-0.86
-0.855
-0.855
-0.86
-0.845
-0.875
-0.875
-0.875
-0.875
-0.87
-0.875
-0.86
-0.86
-0.86
-0.86
-0.86
-0.86
-0.875
-0.875
-0.885
-0.9
-0.89
-0.88
-0.885
-0.875
-0.865
-0.88
-0.87
-0.88
-0.88
-0.89
-0.895
-0.91
-0.905
-0.89
-0.88
-0.89
-0.88
-0.87
-0.88
-0.885
-0.885
-0.895
-0.9
-0.91
-0.905
-0.89
-0.9
-0.89
-0.88
-0.885
-0.88
-0.88
-0.885
-0.9
-0.905
-0.91
-0.895
-0.885
-0.88
-0.88
-0.875
-0.865
-0.88
-0.875
-0.88
-0.88
-0.895
-0.89
-0.885
-0.9
-0.885
-0.88
-0.88
-0.88
-0.885
-0.87
-0.865
-0.875
-0.88
-0.895
-0.895
-0.89
-0.88
-0.87
-0.865
-0.86
-0.86
-0.865
-0.86
-0.875
-0.9
-0.9
-0.865
-0.865
-0.86
-0.845
-0.84
-0.835
-0.845
-0.835
-0.85
-0.85
-0.865
-0.87
-0.865
-0.865
-0.86
-0.85
-0.84
-0.845
-0.865
-0.855
-0.855
-0.87
-0.865
-0.865
-0.86
-0.855
-0.85
-0.84
-0.835
-0.825
-0.825
-0.84
-0.845
-0.855
-0.865
-0.865
-0.845
-0.845
-0.845
-0.825
-0.835
-0.825
-0.825
-0.835
-0.825
-0.835
-0.84
-0.845
-0.85
-0.84
-0.82
-0.825
-0.815
-0.81
-0.815
-0.81
-0.82
-0.825
-0.835
-0.825
-0.835
-0.83
-0.825
-0.805
-0.795
-0.785
-0.775
-0.77
-0.77
-0.765
-0.765
-0.76
-0.76
-0.74
-0.72
-0.71
-0.695
-0.69
-0.685
-0.67
-0.66
-0.67
-0.675
-0.685
-0.705
-0.69
-0.7
-0.685
-0.69
-0.68
-0.69
-0.71
-0.72
-0.725
-0.745
-0.745
-0.75
-0.775
-0.78
-0.785
-0.795
-0.79
-0.8
-0.805
-0.8
-0.815
-0.825
-0.825
-0.825
-0.82
-0.815
-0.805
-0.8
-0.795
-0.795
-0.795
-0.8
-0.8
-0.795
-0.79
-0.77
-0.725
-0.66
-0.595
-0.52
-0.405
-0.325
-0.24
-0.185
-0.125
-0.085
-0.06
-0.02
0.01
0.045
0.06
0.035
-0.01
-0.085
-0.17
-0.25
-0.33
-0.405
-0.49
-0.56
-0.61
-0.67
-0.71
-0.745
-0.76
-0.78
