Lead II
-0.34
-0.29
-0.26
-0.29
-0.345
-0.355
-0.325
-0.255
-0.23
-0.24
-0.29
-0.315
-0.3
-0.26
-0.265
-0.28
-0.335
-0.39
-0.4
-0.37
-0.355
-0.345
-0.34
-0.34
-0.335
-0.355
-0.38
-0.4
-0.4
-0.39
-0.375
-0.345
-0.365
-0.35
-0.36
-0.395
-0.41
-0.42
-0.41
-0.395
-0.375
-0.365
-0.365
-0.38
-0.385
-0.38
-0.375
-0.38
-0.385
-0.385
-0.38
-0.395
-0.4
-0.395
-0.385
-0.35
-0.33
-0.335
-0.37
-0.39
-0.395
-0.365
-0.3
-0.175
0.0
0.185
0.33
0.485
0.625
0.75
0.795
0.76
0.6
0.415
0.125
-0.23
-0.6
-0.855
-0.945
-0.895
-0.795
-0.715
-0.635
-0.535
-0.45
-0.375
-0.335
-0.3
-0.315
-0.365
-0.38
-0.365
-0.365
-0.355
-0.36
-0.36
-0.355
-0.32
-0.295
-0.265
-0.28
-0.29
-0.315
-0.295
-0.265
-0.265
-0.25
-0.215
-0.185
-0.14
-0.14
-0.175
-0.175
-0.155
-0.115
-0.06
0.005
0.02
-0.01
-0.035
-0.03
-0.005
-0.005
-0.02
0.0
0.015
0.05
0.085
0.125
0.11
0.11
0.115
0.115
0.135
0.115
0.1
0.065
0.025
0.015
0.035
0.035
-0.015
-0.11
-0.19
-0.215
-0.2
-0.19
-0.215
-0.235
-0.245
-0.25
-0.25
-0.29
-0.325
-0.335
-0.32
-0.31
-0.325
-0.32
-0.315
-0.325
-0.37
-0.405
-0.375
-0.35
-0.32
-0.325
-0.37
-0.4
-0.375
-0.365
-0.365
-0.39
-0.405
-0.375
-0.37
-0.35
-0.335
-0.355
-0.35
-0.345
-0.325
-0.34
-0.355
-0.35
-0.325
-0.295
-0.255
-0.255
-0.26
-0.295
-0.335
-0.325
-0.305
-0.295
-0.295
-0.315
-0.35
-0.365
-0.345
-0.31
-0.3
-0.345
-0.4
-0.425
-0.425
-0.42
-0.43
-0.44
-0.45
-0.435
-0.4
-0.395
-0.395
-0.405
-0.39
-0.37
-0.4
-0.43
-0.45
-0.425
-0.405
-0.415
-0.425
-0.41
-0.395
-0.415
-0.415
-0.395
-0.38
-0.355
-0.37
-0.395
-0.395
-0.365
-0.335
-0.34
-0.375
-0.425
-0.465
-0.43
-0.375
-0.355
-0.405
-0.45
-0.415
-0.27
-0.04
0.16
0.34
0.51
0.67
0.79
0.825
0.73
0.52
0.325
0.1
-0.225
-0.55
-0.86
-1.025
-1.02
-0.9
-0.77
-0.66
-0.565
-0.495
-0.435
-0.425
-0.395
-0.355
-0.35
-0.39
-0.405
-0.38
-0.325
-0.295
-0.31
-0.305
-0.33
-0.34
-0.345
-0.325
-0.33
-0.35
-0.365
-0.335
-0.28
-0.25
-0.24
-0.23
-0.24
-0.225
-0.215
-0.165
-0.155
-0.145
-0.175
-0.15
-0.1
-0.05
-0.025
0.0
0.02
0.03
0.07
0.09
0.075
0.06
0.035
0.055
0.1
0.135
0.105
0.06
0.045
0.035
0.055
0.075
0.095
0.1
0.055
0.005
-0.03
-0.06
-0.075
-0.1
-0.085
-0.08
-0.09
-0.145
-0.26
-0.325
-0.375
-0.36
-0.32
-0.27
-0.265
-0.32
-0.37
-0.34
-0.29
-0.26
-0.295
-0.35
-0.35
-0.33
-0.32
-0.355
-0.385
-0.395
-0.38
-0.38
-0.405
-0.415
-0.41
-0.415
-0.405
-0.38
-0.39
-0.385
-0.38
-0.36
-0.34
-0.285
-0.27
-0.3
-0.32
-0.34
-0.365
-0.385
-0.365
-0.34
-0.295
-0.27
-0.295
-0.31
-0.32
-0.3
-0.3
-0.32
-0.335
-0.335
-0.32
-0.3
-0.305
-0.36
-0.41
-0.415
-0.395
-0.375
-0.4
-0.43
-0.45
-0.415
-0.365
-0.31
-0.3
-0.345
-0.405
-0.455
-0.475
-0.455
-0.455
-0.42
-0.42
-0.405
-0.385
-0.36
-0.37
-0.415
-0.445
-0.44
-0.405
-0.375
-0.385
-0.405
-0.42
-0.415
-0.395
-0.365
-0.325
-0.32
-0.355
-0.405
-0.41
-0.35
-0.27
-0.15
-0.025
0.12
0.28
0.47
0.64
0.725
0.71
0.62
0.43
0.245
0.005
-0.335
-0.665
-0.925
-1.035
-0.98
-0.86
-0.755
-0.68
-0.605
-0.515
-0.42
-0.33
-0.27
-0.275
-0.295
-0.36
-0.395
-0.42
-0.4
-0.38
-0.375
-0.355
-0.34
-0.34
-0.34
-0.33
-0.31
-0.31
-0.325
-0.32
-0.3
-0.27
-0.255
-0.22
-0.185
-0.155
-0.16
-0.185
-0.18
-0.125
-0.09
-0.075
-0.065
-0.065
-0.045
-0.015
0.035
0.07
0.03
0.01
0.005
0.04
0.09
0.105
0.095
0.06
0.045
0.045
0.09
0.105
0.1
0.065
0.02
0.02
0.04
0.025
0.01
-0.005
-0.02
-0.08
-0.15
-0.225
-0.28
-0.28
-0.26
-0.265
-0.235
-0.245
-0.27
-0.305
-0.31
-0.27
-0.235
-0.235
-0.3
-0.375
-0.395
-0.34
-0.315
-0.315
-0.36
-0.385
-0.38
-0.35
-0.31
-0.325
-0.375
-0.39
-0.36
-0.325
-0.32
-0.32
-0.345
-0.325
-0.32
-0.32
-0.345
-0.38
-0.375
-0.36
-0.36
-0.335
-0.31
-0.285
-0.275
-0.255
-0.24
-0.23
-0.23
-0.235
-0.265
-0.31
-0.32
-0.29
-0.28
-0.315
-0.35
-0.38
-0.375
-0.38
-0.345
-0.34
-0.34
-0.35
-0.34
-0.295
-0.27
-0.305
-0.365
-0.43
-0.48
-0.48
-0.435
-0.39
-0.38
-0.375
-0.35
-0.315
-0.315
-0.345
-0.37
-0.38
-0.395
-0.41
-0.44
-0.425
-0.395
-0.36
-0.345
-0.33
-0.355
-0.375
-0.38
-0.375
-0.37
-0.37
-0.365
-0.37
-0.39
-0.405
-0.395
-0.36
-0.335
-0.34
-0.36
-0.335
-0.215
-0.02
0.195
0.345
0.49
0.57
0.62
0.565
0.43
0.3
0.125
-0.14
-0.485
-0.755
-0.945
-1.04
-0.995
-0.88
-0.75
-0.65
-0.565
-0.47
-0.415
-0.38
-0.36
-0.365
-0.34
-0.35
-0.385
-0.41
-0.395
-0.355
-0.335
-0.365
-0.37
-0.345
-0.295
-0.225
-0.205
-0.23
-0.265
-0.285
-0.275
-0.26
-0.23
-0.23
-0.22
-0.235
-0.215
-0.165
-0.115
-0.085
-0.085
-0.07
-0.07
-0.08
-0.065
-0.075
-0.05
-0.015
0.015
0.04
0.055
0.06
0.08
0.075
0.07
0.06
0.08
0.09
0.075
0.065
0.07
0.075
0.075
0.03
-0.01
-0.05
-0.1
-0.11
-0.1
-0.135
-0.195
-0.25
-0.25
-0.22
-0.21
-0.215
-0.23
-0.245
-0.29
-0.32
-0.29
-0.305
-0.335
-0.345
-0.345
-0.32
-0.28
-0.28
-0.305
-0.345
-0.355
-0.355
-0.355
-0.385
-0.45
-0.485
-0.45
-0.415
-0.37
-0.35
-0.38
-0.385
-0.37
-0.37
-0.355
-0.36
-0.345
-0.325
-0.325
-0.315
-0.295
-0.3
-0.335
-0.395
-0.4
-0.355
-0.275
-0.23
-0.23
-0.235
-0.26
-0.28
-0.29
-0.31
-0.36
-0.39
-0.39
-0.33
-0.32
-0.365
-0.37
-0.365
-0.335
-0.325
-0.31
-0.33
-0.38
-0.44
-0.465
-0.4
-0.345
-0.335
-0.37
-0.425
-0.445
-0.445
-0.42
-0.395
-0.385
-0.405
-0.4
-0.4
-0.39
-0.365
-0.33
-0.33
-0.335
-0.34
-0.36
-0.385
-0.39
-0.37
-0.38
-0.405
-0.41
-0.4
-0.39
-0.39
-0.355
-0.33
-0.27
-0.26
-0.265
-0.255
-0.145
0.04
0.22
0.39
0.53
0.605
0.63
0.6
0.51
0.375
0.21
-0.025
-0.33
-0.635
-0.865
-0.97
-0.955
-0.895
-0.805
-0.705
-0.605
-0.545
-0.505
-0.445
-0.39
-0.335
-0.285
-0.33
-0.355
-0.39
-0.365
-0.355
-0.345
-0.385
-0.385
-0.34
-0.29
-0.26
-0.235
-0.215
-0.195
-0.205
-0.255
-0.28
-0.29
-0.3
-0.285
-0.28
-0.235
-0.185
-0.135
-0.1
-0.085
-0.055
-0.02
0.0
-0.02
-0.055
-0.05
-0.025
-0.03
-0.035
-0.005
0.02
0.06
0.08
0.09
0.1
0.095
0.11
0.105
0.1
0.075
0.055
0.055
0.055
0.035
0.02
-0.015
-0.015
-0.025
-0.04
-0.04
-0.035
-0.02
-0.035
-0.135
-0.27
-0.385
-0.405
-0.365
-0.32
-0.31
-0.32
-0.33
-0.315
-0.31
-0.33
-0.34
-0.35
-0.37
-0.39
-0.375
-0.32
-0.27
-0.255
-0.28
-0.34
-0.425
-0.445
-0.425
-0.4
-0.395
-0.37
-0.35
-0.335
-0.345
-0.385
-0.405
-0.4
-0.37
-0.33
-0.33
-0.37
-0.395
-0.395
-0.38
-0.355
-0.3
-0.275
-0.295
-0.35
-0.35
-0.31
-0.275
-0.28
-0.285
-0.315
-0.34
-0.325
-0.275
-0.275
-0.315
-0.35
-0.385
-0.38
-0.35
-0.34
-0.335
-0.35
-0.355
-0.335
-0.365
-0.395
-0.425
-0.425
-0.39
-0.365
-0.36
-0.365
-0.385
-0.4
-0.4
-0.365
-0.345
-0.33
-0.345
-0.36
-0.385
-0.375
-0.34
-0.31
-0.3
-0.28
-0.285
-0.31
-0.35
-0.385
-0.42
-0.44
-0.45
-0.44
-0.415
-0.395
-0.395
-0.38
-0.375
-0.36
-0.35
-0.32
-0.255
-0.155
-0.015
0.12
0.25
0.41
0.555
0.66
0.7
0.69
0.58
0.39
0.11
-0.28
-0.64
-0.85
-0.935
-0.915
-0.81
-0.69
-0.58
-0.5
-0.46
-0.47
-0.47
-0.475
-0.445
-0.395
-0.35
-0.315
-0.31
-0.31
-0.295
-0.29
-0.29
-0.31
-0.315
-0.305
-0.28
-0.255
-0.255
-0.27
-0.27
-0.245
-0.21
-0.175
-0.155
-0.17
-0.185
-0.185
-0.135
-0.095
-0.08
-0.11
-0.105
-0.085
-0.06
-0.055
-0.06
-0.02
0.01
0.05
0.105
0.155
0.215
0.155
0.075
0.025
0.045
0.105
0.115
0.09
0.08
0.1
0.13
0.155
0.155
0.085
0.005
-0.03
-0.01
0.015
0.01
-0.03
-0.085
-0.14
-0.2
-0.205
-0.2
-0.22
-0.255
-0.275
-0.27
-0.245
-0.215
-0.235
-0.285
-0.325
-0.325
-0.28
-0.27
-0.28
-0.28
-0.285
-0.28
-0.32
-0.325
-0.355
-0.37
-0.37
-0.35
-0.32
-0.315
-0.33
-0.33
-0.33
-0.305
-0.31
-0.32
-0.32
-0.325
-0.32
-0.305
-0.275
-0.245
-0.27
-0.305
-0.3
-0.26
-0.24
-0.245
-0.26
-0.26
-0.25
-0.235
-0.225
-0.24
-0.27
-0.295
-0.285
-0.265
-0.27
-0.31
-0.35
-0.375
-0.365
-0.325
-0.28
-0.25
-0.24
-0.26
-0.32
-0.335
-0.315
-0.295
-0.325
-0.36
-0.395
-0.38
-0.345
-0.33
-0.305
-0.3
-0.32
-0.335
-0.345
-0.365
-0.36
-0.34
-0.33
-0.34
-0.29
-0.29
-0.285
-0.305
-0.34
-0.335
-0.32
-0.29
-0.315
-0.355
-0.355
-0.35
-0.325
-0.335
-0.335
-0.33
-0.3
-0.25
-0.225
-0.195
-0.075
0.12
0.345
0.505
0.575
0.665
0.75
0.795
0.75
0.61
0.43
0.195
-0.17
-0.52
-0.795
-0.925
-0.885
-0.74
-0.605
-0.525
-0.48
-0.43
-0.375
-0.335
-0.335
-0.35
-0.35
-0.345
-0.325
-0.3
-0.305
-0.315
-0.3
-0.285
-0.255
-0.245
-0.26
-0.24
-0.235
-0.21
-0.19
-0.175
-0.18
-0.2
-0.2
-0.205
-0.185
-0.19
-0.2
-0.195
-0.16
-0.08
-0.025
-0.005
-0.025
-0.045
-0.015
0.03
0.07
0.125
0.14
0.125
0.11
0.095
0.095
0.105
0.135
0.16
0.165
0.175
0.18
0.2
0.205
0.19
0.14
0.085
0.07
0.08
0.085
0.1
0.09
0.055
0.005
-0.045
-0.12
-0.17
-0.185
-0.17
-0.145
-0.13
-0.185
-0.255
-0.32
-0.33
-0.285
-0.225
-0.215
-0.255
-0.315
-0.33
-0.305
-0.27
-0.285
-0.34
-0.36
-0.35
-0.335
-0.335
-0.355
-0.37
-0.36
-0.33
-0.28
-0.24
-0.23
-0.25
-0.31
-0.34
-0.335
-0.33
-0.32
-0.305
-0.325
-0.315
-0.28
-0.255
-0.25
-0.275
-0.27
-0.265
-0.235
-0.2
-0.185
-0.21
-0.25
-0.295
-0.295
-0.275
-0.26
-0.29
-0.33
-0.355
-0.335
-0.295
-0.29
-0.31
-0.335
-0.335
-0.315
-0.315
-0.34
-0.385
-0.405
-0.385
-0.35
-0.325
-0.32
-0.325
-0.305
-0.29
-0.275
-0.3
-0.31
-0.335
-0.34
-0.36
-0.38
-0.39
-0.385
-0.355
-0.32
-0.32
-0.325
-0.34
-0.365
-0.39
-0.41
-0.39
-0.335
-0.285
-0.305
-0.33
-0.37
-0.34
-0.32
-0.29
-0.285
-0.3
-0.3
-0.27
-0.205
-0.09
0.05
0.215
0.38
0.575
0.76
0.86
0.895
0.83
0.69
0.52
0.355
0.09
-0.245
-0.575
-0.81
-0.925
-0.89
-0.775
-0.67
-0.615
-0.575
-0.53
-0.485
-0.435
-0.405
-0.375
-0.35
-0.315
-0.295
-0.28
-0.275
-0.245
-0.215
-0.22
-0.23
-0.27
-0.3
-0.28
-0.245
-0.205
-0.185
-0.19
-0.215
-0.24
-0.23
-0.21
-0.185
-0.185
-0.195
-0.18
-0.145
-0.1
-0.065
-0.075
-0.095
-0.08
-0.055
-0.005
0.03
0.035
0.04
0.03
0.045
0.065
0.1
0.135
0.145
0.14
0.12
0.125
0.15
0.195
0.21
0.18
0.155
0.135
0.16
0.155
0.135
0.105
0.07
0.065
0.08
0.07
0.025
0.005
-0.035
-0.055
-0.05
-0.045
-0.045
-0.075
-0.145
-0.225
-0.235
-0.23
-0.2
-0.215
-0.25
-0.245
-0.225
-0.205
-0.225
-0.29
-0.33
-0.33
-0.31
-0.28
-0.285
-0.29
-0.325
-0.34
-0.32
-0.29
-0.305
-0.35
-0.39
-0.395
-0.345
-0.31
-0.32
-0.34
-0.355
-0.345
-0.315
-0.285
-0.3
-0.285
-0.285
-0.29
-0.3
-0.3
-0.29
-0.285
-0.29
-0.26
-0.22
-0.195
-0.19
-0.19
-0.165
-0.115
-0.085
-0.105
-0.185
-0.295
-0.375
-0.39
-0.355
-0.32
-0.305
-0.34
-0.385
-0.405
-0.39
-0.345
-0.31
-0.3
-0.31
-0.315
-0.33
-0.33
-0.34
-0.325
-0.34
-0.365
-0.405
-0.39
-0.365
-0.35
-0.35
-0.34
-0.34
-0.325
-0.335
-0.345
-0.355
-0.35
-0.32
-0.3
-0.265
-0.28
-0.28
-0.295
-0.35
-0.39
-0.44
-0.435
-0.4
-0.365
-0.325
-0.32
-0.32
-0.315
-0.29
-0.315
-0.355
-0.375
-0.415
-0.385
-0.33
-0.255
-0.17
-0.045
0.105
0.25
0.385
0.545
0.68
0.735
0.745
0.69
0.545
0.375
0.225
-0.005
-0.31
-0.6
-0.805
-0.925
-0.905
-0.815
-0.72
-0.67
-0.64
-0.605
-0.545
-0.47
-0.425
-0.395
-0.37
-0.355
-0.34
-0.3
-0.28
-0.29
-0.335
-0.36
-0.355
-0.32
-0.29
-0.26
-0.24
-0.215
-0.185
-0.165
-0.18
-0.205
-0.24
-0.245
-0.225
-0.18
-0.185
-0.185
-0.175
-0.13
-0.075
-0.025
-0.01
-0.045
-0.095
-0.16
-0.195
-0.125
-0.05
0.03
0.07
0.07
0.05
0.055
0.055
0.055
0.05
0.06
0.075
0.095
0.13
0.125
0.13
0.135
0.145
0.18
0.195
0.19
0.155
0.105
0.06
0.045
0.045
0.045
0.04
0.03
0.005
-0.025
-0.06
-0.08
-0.08
-0.065
-0.08
-0.1
-0.15
-0.22
-0.255
-0.29
-0.27
-0.27
-0.29
-0.33
-0.34
-0.33
-0.3
-0.275
-0.265
-0.29
-0.305
-0.325
-0.315
-0.29
-0.3
-0.33
-0.335
-0.325
-0.325
-0.32
-0.31
-0.305
-0.32
-0.33
-0.325
-0.305
-0.31
-0.315
-0.315
-0.29
-0.24
-0.21
-0.21
-0.23
-0.27
-0.255
-0.255
-0.29
-0.325
-0.34
-0.3
-0.265
-0.255
-0.245
-0.21
-0.2
-0.205
-0.24
-0.28
-0.295
-0.315
-0.33
-0.32
-0.32
-0.3
-0.27
-0.265
-0.265
-0.285
-0.295
-0.3
-0.315
-0.34
-0.345
-0.35
-0.305
-0.28
-0.27
-0.305
-0.34
-0.35
-0.345
-0.32
-0.32
-0.325
-0.31
-0.285
-0.27
-0.27
-0.305
-0.355
-0.38
-0.39
-0.38
-0.36
-0.35
-0.345
-0.345
-0.345
-0.33
-0.32
-0.305
-0.305
-0.315
-0.3
-0.27
-0.255
-0.27
-0.325
-0.34
-0.35
-0.335
-0.31
-0.305
-0.3
-0.31
-0.325
-0.35
-0.34
-0.29
-0.265
-0.29
-0.34
-0.35
-0.3
-0.19
-0.025
0.11
0.25
0.395
0.53
0.62
0.66
0.65
0.57
0.465
0.35
0.18
-0.09
-0.39
-0.645
-0.825
-0.905
-0.85
-0.77
-0.73
-0.685
-0.6
-0.49
-0.41
-0.385
-0.4
-0.385
-0.385
-0.365
-0.335
-0.31
-0.3
-0.295
-0.27
-0.25
-0.23
-0.23
-0.245
-0.225
-0.2
-0.18
-0.18
-0.235
-0.28
-0.27
-0.23
-0.165
-0.14
-0.115
-0.115
-0.125
-0.14
-0.135
-0.095
-0.07
-0.07
-0.095
-0.105
-0.095
-0.08
-0.075
-0.05
-0.06
-0.03
0.01
0.065
0.09
0.1
0.12
0.135
0.135
0.125
0.13
0.16
0.17
0.15
0.12
0.115
0.13
0.145
0.14
0.14
0.19
0.24
0.25
0.19
0.08
0.005
-0.06
-0.055
-0.055
-0.08
-0.1
-0.12
-0.11
-0.11
-0.09
-0.105
-0.12
-0.135
-0.13
-0.175
-0.26
-0.345
-0.385
-0.365
-0.325
-0.275
-0.26
-0.275
-0.31
-0.325
-0.29
-0.28
-0.275
-0.29
-0.26
-0.21
-0.195
-0.25
-0.315
-0.33
-0.32
-0.285
-0.275
-0.265
-0.3
-0.35
-0.37
-0.38
-0.36
-0.325
-0.295
-0.29
-0.28
-0.26
-0.22
-0.18
-0.19
-0.235
-0.285
-0.25
-0.19
-0.15
-0.14
-0.145
-0.18
-0.205
-0.24
-0.275
-0.27
-0.28
-0.28
-0.275
-0.265
-0.275
-0.29
-0.295
-0.285
-0.27
-0.25
-0.245
-0.265
-0.28
-0.3
-0.3
-0.285
-0.275
-0.29
-0.31
-0.33
-0.305
-0.275
-0.255
-0.255
-0.28
-0.285
-0.29
-0.295
-0.295
-0.315
-0.3
-0.265
-0.225
-0.225
-0.255
-0.3
-0.33
-0.335
-0.31
-0.315
-0.305
-0.305
-0.3
-0.275
-0.21
-0.145
-0.135
-0.185
-0.275
-0.31
-0.285
-0.22
-0.215
-0.245
-0.265
-0.24
-0.17
-0.065
0.09
0.255
0.455
0.63
0.74
0.745
0.625
0.42
0.17
-0.155
-0.485
-0.725
-0.835
-0.84
-0.755
-0.655
-0.57
-0.48
-0.425
-0.37
-0.35
-0.33
-0.32
-0.315
-0.32
-0.31
-0.32
-0.31
-0.275
-0.22
-0.16
-0.125
-0.14
-0.185
-0.205
-0.185
-0.14
-0.135
-0.145
-0.175
-0.175
-0.18
-0.195
-0.18
-0.14
-0.1
-0.04
0.035
0.045
0.02
-0.02
-0.065
-0.08
-0.05
0.0
0.025
0.05
0.095
0.145
0.18
0.19
0.18
0.155
0.145
0.14
0.165
0.16
0.135
0.12
0.13
0.155
0.18
0.19
0.2
0.18
0.17
0.16
0.135
0.1
0.075
0.055
0.0
-0.035
-0.06
-0.055
-0.07
-0.07
-0.07
-0.06
-0.065
-0.09
-0.12
-0.155
-0.19
-0.19
-0.205
-0.225
-0.235
-0.255
-0.23
-0.2
-0.18
-0.175
-0.17
-0.185
-0.195
-0.225
-0.25
-0.25
-0.27
-0.27
-0.295
-0.3
-0.31
-0.3
-0.295
-0.3
-0.31
-0.3
-0.255
-0.21
-0.18
-0.185
-0.19
-0.2
-0.215
-0.225
-0.24
-0.245
-0.25
-0.245
-0.24
-0.265
-0.25
-0.245
-0.22
-0.185
-0.165
-0.16
-0.175
-0.19
-0.195
-0.18
-0.16
-0.17
-0.19
-0.215
-0.24
-0.245
-0.26
-0.245
-0.23
-0.22
-0.23
-0.235
-0.21
-0.22
-0.275
-0.315
-0.31
-0.28
-0.27
-0.29
-0.31
-0.32
-0.315
-0.305
-0.275
-0.28
-0.275
-0.31
-0.325
-0.315
-0.275
-0.23
-0.21
-0.24
-0.285
-0.315
-0.29
-0.27
-0.255
-0.27
-0.265
-0.26
-0.235
-0.24
-0.27
-0.315
-0.31
-0.285
-0.245
-0.275
-0.315
-0.34
-0.305
-0.21
-0.075
0.09
0.25
0.39
0.54
0.655
0.75
0.78
0.75
0.62
0.47
0.29
0.045
-0.27
-0.565
-0.785
-0.855
-0.79
-0.675
-0.585
-0.495
-0.425
-0.425
-0.445
-0.44
-0.39
-0.33
-0.295
-0.31
-0.31
-0.3
-0.275
-0.25
-0.225
-0.225
-0.23
-0.225
-0.205
-0.2
-0.195
-0.185
-0.18
-0.185
-0.175
-0.165
-0.15
-0.12
-0.085
-0.07
-0.055
-0.055
-0.065
-0.03
0.02
0.07
0.09
0.065
-0.005
-0.05
-0.02
0.045
0.095
0.105
0.115
0.145
0.17
0.16
0.135
0.12
0.125
0.17
0.17
0.19
0.2
0.175
0.145
0.125
0.11
0.095
0.05
0.01
-0.01
-0.005
-0.015
-0.04
-0.06
-0.095
-0.135
-0.16
-0.165
-0.17
-0.18
-0.205
-0.23
-0.225
-0.23
-0.22
-0.2
-0.2
-0.235
-0.265
-0.27
-0.245
-0.235
-0.25
-0.225
-0.205
-0.185
-0.225
-0.3
-0.355
-0.375
-0.36
-0.325
-0.31
-0.3
-0.275
-0.265
-0.245
-0.205
-0.17
-0.17
-0.225
-0.28
-0.31
-0.285
-0.245
-0.215
-0.225
-0.26
-0.245
-0.21
-0.175
-0.2
-0.22
-0.23
-0.23
-0.225
-0.215
-0.225
-0.235
-0.22
-0.22
-0.255
-0.3
-0.35
-0.37
-0.37
-0.34
-0.315
-0.295
-0.305
-0.345
-0.345
-0.35
-0.315
-0.3
-0.265
-0.28
-0.32
-0.345
-0.315
-0.285
-0.26
-0.26
-0.275
-0.28
-0.285
-0.29
-0.31
-0.335
-0.345
-0.33
-0.275
-0.23
-0.235
-0.275
-0.305
-0.28
-0.3
-0.31
-0.25
-0.1
0.095
0.3
0.465
0.605
0.76
0.87
0.88
0.735
0.5
0.21
-0.1
-0.45
-0.725
-0.895
-0.895
-0.8
-0.66
-0.53
-0.425
-0.395
-0.405
-0.37
-0.35
-0.325
-0.315
-0.31
-0.295
-0.265
-0.255
-0.245
-0.25
-0.265
-0.27
-0.265
-0.26
-0.24
-0.225
-0.16
-0.125
-0.145
-0.195
-0.225
-0.2
-0.145
-0.095
-0.075
-0.07
-0.08
-0.1
-0.085
-0.075
-0.055
-0.03
-0.005
0.035
0.095
0.14
0.14
0.12
0.11
0.095
0.1
0.11
0.14
0.15
0.18
0.185
0.165
0.175
0.195
0.195
0.125
0.06
0.005
0.005
0.025
0.025
-0.005
-0.05
-0.08
-0.105
-0.11
-0.125
-0.165
-0.2
-0.24
-0.22
-0.2
-0.19
-0.215
-0.25
-0.25
-0.26
-0.25
-0.27
-0.315
-0.325
-0.31
-0.255
-0.225
-0.27
-0.32
-0.36
-0.35
-0.315
-0.27
-0.265
-0.29
-0.33
-0.34
-0.32
-0.305
-0.31
-0.335
-0.325
-0.295
-0.27
-0.27
-0.285
-0.26
-0.215
-0.18
-0.19
-0.215
-0.235
-0.25
-0.27
-0.25
-0.235
-0.23
-0.265
-0.3
-0.335
-0.34
-0.33
-0.305
-0.29
-0.275
-0.305
-0.32
-0.355
-0.365
-0.36
-0.37
-0.35
-0.35
-0.33
-0.325
-0.34
-0.365
-0.385
-0.38
-0.34
-0.305
-0.33
-0.365
-0.4
-0.4
-0.37
-0.345
-0.345
-0.365
-0.38
-0.37
-0.33
-0.29
-0.295
-0.3
-0.32
-0.32
-0.32
-0.33
-0.355
-0.36
-0.35
-0.325
-0.335
-0.365
-0.36
-0.275
-0.125
0.045
0.23
0.405
0.585
0.715
0.755
0.74
0.605
0.465
0.27
-0.02
-0.39
-0.715
-0.92
-0.955
-0.84
-0.7
-0.605
-0.57
-0.525
-0.46
-0.4
-0.36
-0.355
-0.37
-0.34
-0.285
-0.305
-0.32
-0.34
-0.325
-0.315
-0.28
-0.27
-0.285
-0.305
-0.29
-0.275
-0.265
-0.27
-0.25
-0.215
-0.17
-0.165
-0.165
-0.145
-0.1
-0.04
-0.01
-0.035
-0.065
-0.08
-0.09
-0.08
-0.04
0.015
0.08
0.105
0.105
0.075
0.045
0.03
0.075
0.12
0.125
0.085
0.075
0.115
0.2
0.21
0.165
0.075
0.02
-0.02
-0.01
-0.01
-0.04
-0.12
-0.185
-0.21
-0.185
-0.19
-0.195
-0.215
-0.24
-0.26
-0.23
-0.245
-0.29
-0.32
-0.315
-0.29
-0.31
-0.36
-0.4
-0.39
-0.38
-0.335
-0.315
-0.31
-0.34
-0.365
-0.385
-0.36
-0.32
-0.305
-0.3
-0.31
-0.33
-0.32
-0.285
-0.28
-0.31
-0.36
-0.365
-0.325
-0.28
-0.28
-0.265
-0.265
-0.27
-0.27
-0.275
-0.275
-0.265
-0.24
-0.235
-0.24
-0.23
-0.24
-0.29
-0.32
-0.32
-0.33
-0.33
-0.345
-0.335
-0.33
-0.35
-0.37
-0.4
-0.42
-0.435
-0.425
-0.405
-0.375
-0.335
-0.32
-0.32
-0.325
-0.335
-0.33
-0.345
-0.38
-0.425
-0.465
-0.495
-0.46
-0.405
-0.36
-0.345
-0.295
-0.28
-0.265
-0.285
-0.325
-0.38
-0.4
-0.405
-0.37
-0.315
-0.265
-0.28
-0.355
-0.38
-0.355
-0.28
-0.195
-0.045
0.11
0.27
0.435
0.585
0.655
0.64
0.53
0.4
0.28
0.065
-0.275
-0.68
-0.97
-1.07
-0.97
-0.81
-0.705
-0.625
-0.575
-0.525
-0.485
-0.45
-0.415
-0.37
-0.365
-0.375
-0.355
-0.35
-0.32
-0.32
-0.345
-0.33
-0.31
-0.265
-0.24
-0.23
-0.255
-0.26
-0.25
-0.235
-0.22
-0.225
-0.22
-0.215
-0.19
-0.145
-0.115
-0.1
-0.125
-0.13
-0.115
-0.08
-0.04
-0.005
0.005
0.035
0.065
0.07
0.065
0.06
0.03
0.03
0.06
0.09
0.085
0.07
0.075
0.075
0.095
0.13
0.14
0.12
0.09
0.055
0.03
0.015
-0.015
-0.04
-0.06
-0.035
-0.025
-0.045
-0.09
-0.165
-0.21
-0.225
-0.225
-0.235
-0.24
-0.245
-0.24
-0.215
-0.195
-0.19
-0.23
-0.285
-0.355
-0.4
-0.37
-0.325
-0.29
-0.315
-0.345
-0.355
-0.345
-0.345
-0.345
-0.35
-0.335
-0.3
-0.27
-0.28
-0.32
-0.31
-0.275
-0.22
-0.23
-0.29
-0.34
-0.38
-0.385
-0.35
-0.305
-0.285
-0.27
-0.245
-0.215
-0.18
-0.175
-0.2
-0.215
-0.22
-0.23
-0.245
-0.26
-0.23
-0.22
-0.26
-0.345
-0.385
-0.345
-0.295
-0.3
-0.305
-0.33
-0.335
-0.35
-0.36
-0.345
-0.35
-0.36
-0.37
-0.36
-0.35
-0.36
-0.375
-0.37
-0.39
-0.37
-0.34
-0.325
-0.325
-0.34
-0.365
-0.355
-0.325
-0.295
-0.275
-0.3
-0.335
-0.395
-0.395
-0.37
-0.35
-0.36
-0.36
-0.325
-0.285
-0.27
-0.295
-0.36
-0.39
-0.38
-0.33
-0.265
-0.17
-0.065
0.05
0.21
0.38
0.54
0.625
0.665
0.625
0.5
0.33
0.07
-0.305
-0.655
-0.875
-0.94
-0.895
-0.795
-0.705
-0.62
-0.495
-0.395
-0.37
-0.385
-0.385
-0.33
-0.3
-0.32
-0.345
-0.34
-0.35
-0.36
-0.35
-0.3
-0.245
-0.19
-0.15
-0.16
-0.205
-0.245
-0.27
-0.23
-0.225
-0.21
-0.195
-0.18
-0.15
-0.12
-0.075
-0.03
0.02
0.035
-0.03
-0.105
-0.11
-0.04
0.035
0.075
0.105
0.11
0.115
0.085
0.09
0.12
0.125
0.105
0.065
0.06
0.085
0.12
0.135
0.13
0.115
0.065
-0.015
-0.035
-0.02
-0.025
-0.08
-0.14
-0.18
-0.18
-0.155
-0.12
-0.12
-0.18
-0.225
-0.225
-0.255
-0.27
-0.345
-0.385
-0.37
-0.325
-0.28
-0.29
-0.285
-0.28
-0.285
-0.295
-0.34
-0.345
-0.32
-0.335
-0.345
-0.325
-0.285
-0.29
-0.32
-0.34
-0.33
-0.29
-0.26
-0.275
-0.32
-0.36
-0.33
-0.305
-0.29
-0.265
-0.265
-0.265
-0.285
-0.275
-0.23
-0.18
-0.135
-0.14
-0.21
-0.295
-0.32
-0.295
-0.245
-0.18
-0.165
-0.24
-0.35
-0.43
-0.43
-0.38
-0.32
-0.275
-0.27
-0.3
-0.355
-0.385
-0.4
-0.415
-0.41
-0.395
-0.395
-0.375
-0.37
-0.36
-0.345
-0.35
-0.33
-0.305
-0.285
-0.275
-0.305
-0.355
-0.37
-0.335
-0.27
-0.215
-0.235
-0.31
-0.37
-0.39
-0.405
-0.41
-0.385
-0.35
-0.345
-0.37
-0.415
-0.435
-0.415
-0.4
-0.33
-0.225
-0.08
0.07
0.215
0.36
0.5
0.615
0.675
0.715
0.635
0.49
0.33
0.075
-0.26
-0.57
-0.8
-0.92
-0.905
-0.845
-0.76
-0.695
-0.59
-0.5
-0.445
-0.405
-0.38
-0.34
-0.3
-0.275
-0.285
-0.34
-0.4
-0.39
-0.355
-0.34
-0.33
-0.335
-0.31
-0.275
-0.24
-0.225
-0.27
-0.305
-0.325
-0.305
-0.26
-0.25
-0.245
-0.23
-0.195
-0.16
-0.145
-0.155
-0.145
-0.125
-0.135
-0.135
-0.12
-0.085
-0.04
-0.005
0.015
0.06
0.07
0.06
0.05
0.06
0.065
0.05
0.06
0.085
0.105
0.09
0.065
0.06
0.05
0.045
0.045
0.045
0.075
0.1
0.1
0.05
-0.065
-0.165
-0.205
-0.15
-0.115
-0.11
-0.17
-0.235
-0.265
-0.245
-0.195
-0.16
-0.185
-0.25
-0.285
-0.31
-0.285
-0.28
-0.315
-0.395
-0.445
-0.44
-0.41
-0.405
-0.375
-0.37
-0.365
-0.35
-0.36
-0.385
-0.395
-0.415
-0.425
-0.43
-0.41
-0.41
-0.405
-0.405
-0.395
-0.365
-0.33
-0.3
-0.33
-0.33
-0.32
-0.315
-0.335
-0.335
-0.33
-0.335
-0.32
-0.31
-0.29
-0.285
-0.255
-0.255
-0.265
-0.275
-0.305
-0.32
-0.32
-0.315
-0.33
-0.335
-0.38
-0.41
-0.43
-0.43
-0.405
-0.38
-0.36
-0.37
-0.375
-0.385
-0.405
-0.4
-0.395
-0.375
-0.38
-0.375
-0.37
-0.355
-0.345
-0.35
-0.37
-0.39
-0.4
-0.375
-0.315
-0.305
-0.33
-0.4
-0.44
-0.455
-0.435
-0.41
-0.355
-0.34
-0.345
-0.375
-0.395
-0.38
-0.34
-0.32
-0.33
-0.37
-0.4
-0.415
-0.4
-0.4
-0.385
-0.315
-0.19
-0.055
0.105
0.245
0.42
0.61
0.75
0.82
0.825
0.715
0.545
0.305
-0.03
-0.43
-0.755
-0.975
-1.025
-0.945
-0.795
-0.655
-0.545
-0.46
-0.4
-0.37
-0.385
-0.43
-0.44
-0.43
-0.385
-0.32
-0.265
-0.27
-0.305
-0.35
-0.345
-0.325
-0.33
-0.35
-0.355
-0.355
-0.325
-0.27
-0.23
-0.195
-0.225
-0.23
-0.23
-0.235
-0.255
-0.255
-0.265
-0.24
-0.17
-0.13
-0.075
-0.075
-0.07
-0.05
-0.03
0.03
0.075
0.095
0.09
0.075
0.07
0.09
0.095
0.065
0.05
0.065
0.09
0.13
0.155
0.13
0.115
0.085
0.05
0.045
0.06
0.09
0.085
0.04
-0.02
-0.03
-0.015
-0.03
-0.1
-0.155
-0.19
-0.16
-0.135
-0.14
-0.2
-0.28
-0.32
-0.32
-0.3
-0.315
-0.365
-0.4
-0.395
-0.37
-0.355
-0.35
-0.35
-0.385
-0.41
-0.4
-0.39
-0.355
-0.35
-0.35
-0.33
-0.315
-0.31
-0.315
-0.365
-0.425
-0.475
-0.45
-0.405
-0.36
-0.335
-0.33
-0.34
-0.35
-0.34
-0.335
-0.315
-0.3
-0.3
-0.315
-0.31
-0.28
-0.265
-0.26
-0.255
-0.245
-0.27
-0.33
-0.37
-0.375
-0.335
-0.33
-0.33
-0.34
-0.36
-0.4
-0.43
-0.425
-0.4
-0.37
-0.365
-0.35
-0.35
-0.33
-0.34
-0.395
-0.46
-0.505
-0.49
-0.465
-0.41
-0.385
-0.38
-0.395
-0.425
-0.435
-0.415
-0.4
-0.385
-0.39
-0.385
-0.41
-0.385
-0.4
-0.41
-0.415
-0.425
-0.4
-0.375
-0.37
-0.395
-0.41
-0.41
-0.4
-0.385
-0.375
-0.37
-0.355
-0.34
-0.325
-0.33
-0.335
-0.325
-0.305
-0.25
-0.16
-0.055
0.035
0.125
0.235
0.425
0.635
0.77
0.825
0.775
0.635
0.475
0.33
0.09
-0.22
-0.53
-0.765
-0.9
-0.91
-0.875
-0.8
-0.75
-0.675
-0.575
-0.5
-0.47
-0.435
-0.43
-0.42
-0.39
-0.365
-0.345
-0.335
-0.325
-0.34
-0.37
-0.37
-0.325
-0.3
-0.3
-0.305
-0.315
-0.305
-0.285
-0.27
-0.275
-0.265
-0.265
-0.225
-0.185
-0.19
-0.215
-0.215
-0.19
-0.135
-0.1
-0.075
-0.07
-0.095
-0.1
-0.095
-0.075
-0.025
0.015
0.035
0.025
0.0
-0.02
-0.015
-0.02
-0.01
0.0
0.025
0.05
0.095
0.105
0.11
0.1
0.095
0.13
0.16
0.17
0.17
0.165
0.135
0.095
0.065
0.06
0.045
0.015
-0.005
-0.01
0.0
-0.02
-0.045
-0.105
-0.145
