Lead II
-0.13
-0.135
-0.115
-0.105
-0.065
-0.075
-0.075
-0.085
-0.105
-0.085
-0.07
-0.065
-0.065
-0.065
-0.05
-0.055
-0.05
-0.08
-0.1
-0.12
-0.115
-0.115
-0.095
-0.105
-0.135
-0.14
-0.13
-0.115
-0.12
-0.135
-0.16
-0.18
-0.175
-0.17
-0.145
-0.175
-0.18
-0.19
-0.195
-0.165
-0.165
-0.17
-0.18
-0.185
-0.185
-0.175
-0.165
-0.165
-0.18
-0.175
-0.17
-0.145
-0.15
-0.155
-0.18
-0.175
-0.16
-0.125
-0.11
-0.125
-0.14
-0.125
-0.07
-0.035
0.015
0.03
0.06
0.125
0.23
0.35
0.475
0.59
0.7
0.825
0.94
1.065
1.22
1.34
1.36
1.295
1.155
0.985
0.77
0.55
0.335
0.145
0.025
-0.065
-0.095
-0.11
-0.105
-0.095
-0.085
-0.095
-0.09
-0.105
-0.14
-0.15
-0.145
-0.145
-0.145
-0.17
-0.175
-0.18
-0.16
-0.155
-0.155
-0.18
-0.195
-0.2
-0.19
-0.165
-0.155
-0.16
-0.19
-0.18
-0.175
-0.16
-0.15
-0.155
-0.16
-0.175
-0.155
-0.145
-0.155
-0.135
-0.15
-0.145
-0.14
-0.125
-0.115
-0.13
-0.13
-0.135
-0.125
-0.09
-0.095
-0.085
-0.095
-0.095
-0.09
-0.08
-0.055
-0.065
-0.065
-0.05
-0.05
-0.025
-0.015
-0.01
-0.01
0.0
0.01
0.03
0.05
0.035
0.035
0.055
0.075
0.11
0.115
0.125
0.125
0.13
0.15
0.18
0.2
0.195
0.185
0.2
0.225
0.245
0.25
0.25
0.255
0.255
0.255
0.29
0.28
0.295
0.27
0.265
0.27
0.275
0.26
0.245
0.205
0.19
0.17
0.165
0.145
0.13
0.08
0.07
0.05
0.05
0.035
0.02
-0.02
-0.035
-0.04
-0.03
-0.04
-0.06
-0.085
-0.09
-0.095
-0.085
-0.085
-0.09
-0.12
-0.13
-0.115
-0.11
-0.1
-0.105
-0.12
-0.145
-0.14
-0.1
-0.11
-0.115
-0.125
-0.15
-0.135
-0.115
-0.115
-0.12
-0.125
-0.155
-0.12
-0.11
-0.095
-0.11
-0.115
-0.13
-0.125
-0.105
-0.095
-0.095
-0.105
-0.12
-0.12
-0.095
-0.095
-0.1
-0.105
-0.105
-0.085
-0.08
-0.075
-0.075
-0.095
-0.1
-0.095
-0.085
-0.075
-0.075
-0.085
-0.1
-0.08
-0.09
-0.095
-0.09
-0.105
-0.125
-0.1
-0.085
-0.09
-0.11
-0.1
-0.105
-0.1
-0.095
-0.09
-0.1
-0.115
-0.13
-0.105
-0.105
-0.105
-0.11
-0.125
-0.135
-0.13
-0.11
-0.115
-0.125
-0.135
-0.155
-0.125
-0.11
-0.1
-0.12
-0.125
-0.135
-0.125
-0.12
-0.105
-0.11
-0.13
-0.145
-0.155
-0.12
-0.135
-0.125
-0.14
-0.14
-0.155
-0.13
-0.12
-0.135
-0.16
-0.155
-0.135
-0.14
-0.135
-0.15
-0.165
-0.165
-0.15
-0.14
-0.135
-0.15
-0.155
-0.155
-0.165
-0.14
-0.145
-0.145
-0.145
-0.16
-0.145
-0.145
-0.135
-0.14
-0.16
-0.16
-0.155
-0.14
-0.14
-0.15
-0.155
-0.165
-0.16
-0.145
-0.145
-0.155
-0.175
-0.18
-0.16
-0.15
-0.155
-0.165
-0.17
-0.165
-0.17
-0.14
-0.145
-0.14
-0.155
-0.175
-0.165
-0.145
-0.145
-0.15
-0.17
-0.16
-0.15
-0.145
-0.14
-0.145
-0.16
-0.17
-0.155
-0.135
-0.135
-0.155
-0.175
-0.165
-0.15
-0.15
-0.135
-0.155
-0.16
-0.19
-0.17
-0.15
-0.145
-0.155
-0.155
-0.165
-0.15
-0.13
-0.13
-0.135
-0.145
-0.135
-0.11
-0.09
-0.085
-0.09
-0.08
-0.085
-0.075
-0.065
-0.055
-0.07
-0.075
-0.07
-0.05
-0.04
-0.04
-0.05
-0.06
-0.075
-0.07
-0.06
-0.075
-0.095
-0.11
-0.105
-0.11
-0.11
-0.11
-0.13
-0.155
-0.165
-0.175
-0.16
-0.15
-0.18
-0.19
-0.205
-0.2
-0.16
-0.175
-0.19
-0.2
-0.2
-0.19
-0.195
-0.18
-0.185
-0.19
-0.205
-0.18
-0.18
-0.175
-0.17
-0.19
-0.19
-0.18
-0.175
-0.16
-0.17
-0.19
-0.195
-0.18
-0.17
-0.155
-0.155
-0.155
-0.145
-0.115
-0.07
-0.06
-0.05
0.005
0.065
0.175
0.295
0.415
0.525
0.64
0.755
0.87
0.98
1.1
1.235
1.315
1.33
1.285
1.135
0.965
0.745
0.515
0.325
0.165
0.045
-0.035
-0.12
-0.145
-0.145
-0.14
-0.135
-0.125
-0.13
-0.165
-0.195
-0.175
-0.18
-0.19
-0.205
-0.235
-0.22
-0.22
-0.205
-0.2
-0.225
-0.235
-0.24
-0.23
-0.215
-0.22
-0.225
-0.235
-0.245
-0.255
-0.22
-0.225
-0.235
-0.24
-0.26
-0.245
-0.21
-0.21
-0.21
-0.23
-0.23
-0.23
-0.215
-0.21
-0.21
-0.215
-0.22
-0.21
-0.2
-0.19
-0.19
-0.2
-0.205
-0.185
-0.17
-0.165
-0.165
-0.18
-0.175
-0.15
-0.155
-0.14
-0.135
-0.145
-0.15
-0.135
-0.11
-0.12
-0.105
-0.105
-0.105
-0.095
-0.075
-0.055
-0.06
-0.07
-0.055
-0.025
-0.015
0.01
0.01
0.01
0.025
0.035
0.055
0.065
0.09
0.075
0.09
0.1
0.12
0.13
0.14
0.145
0.145
0.165
0.175
0.17
0.16
0.155
0.16
0.17
0.175
0.16
0.145
0.115
0.105
0.08
0.085
0.06
0.045
0.01
-0.005
-0.02
-0.025
-0.035
-0.075
-0.11
-0.145
-0.135
-0.145
-0.145
-0.175
-0.205
-0.215
-0.215
-0.2
-0.21
-0.215
-0.235
-0.24
-0.235
-0.24
-0.245
-0.245
-0.27
-0.28
-0.255
-0.245
-0.24
-0.24
-0.265
-0.26
-0.255
-0.25
-0.24
-0.235
-0.245
-0.245
-0.245
-0.23
-0.23
-0.245
-0.25
-0.265
-0.25
-0.23
-0.235
-0.25
-0.24
-0.25
-0.24
-0.215
-0.225
-0.225
-0.24
-0.255
-0.24
-0.22
-0.21
-0.225
-0.235
-0.245
-0.24
-0.22
-0.215
-0.225
-0.24
-0.24
-0.23
-0.225
-0.22
-0.225
-0.235
-0.26
-0.24
-0.215
-0.215
-0.23
-0.245
-0.26
-0.23
-0.22
-0.225
-0.24
-0.245
-0.26
-0.255
-0.23
-0.225
-0.235
-0.24
-0.265
-0.245
-0.24
-0.225
-0.245
-0.27
-0.265
-0.26
-0.24
-0.235
-0.245
-0.245
-0.255
-0.255
-0.235
-0.245
-0.26
-0.26
-0.26
-0.26
-0.245
-0.245
-0.25
-0.26
-0.265
-0.26
-0.25
-0.25
-0.255
-0.265
-0.25
-0.245
-0.24
-0.245
-0.26
-0.26
-0.265
-0.26
-0.24
-0.245
-0.245
-0.265
-0.28
-0.27
-0.245
-0.235
-0.265
-0.27
-0.27
-0.27
-0.25
-0.245
-0.25
-0.265
-0.255
-0.255
-0.235
-0.24
-0.265
-0.26
-0.25
-0.255
-0.24
-0.24
-0.245
-0.26
-0.27
-0.25
-0.235
-0.245
-0.24
-0.255
-0.265
-0.25
-0.245
-0.23
-0.245
-0.25
-0.26
-0.25
-0.245
-0.23
-0.245
-0.255
-0.265
-0.245
-0.23
-0.24
-0.235
-0.26
-0.265
-0.25
-0.235
-0.24
-0.23
-0.245
-0.25
-0.245
-0.23
-0.23
-0.245
-0.25
-0.26
-0.25
-0.215
-0.215
-0.23
-0.225
-0.23
-0.23
-0.235
-0.215
-0.215
-0.225
-0.215
-0.205
-0.175
-0.165
-0.145
-0.155
-0.15
-0.14
-0.125
-0.11
-0.1
-0.12
-0.13
-0.125
-0.105
-0.105
-0.075
-0.09
-0.105
-0.115
-0.115
-0.125
-0.125
-0.145
-0.155
-0.16
-0.14
-0.14
-0.16
-0.175
-0.185
-0.175
-0.17
-0.2
-0.205
-0.22
-0.23
-0.23
-0.215
-0.205
-0.22
-0.245
-0.25
-0.23
-0.215
-0.22
-0.22
-0.235
-0.245
-0.24
-0.225
-0.215
-0.215
-0.225
-0.23
-0.225
-0.215
-0.195
-0.215
-0.22
-0.225
-0.215
-0.2
-0.17
-0.19
-0.185
-0.17
-0.14
-0.095
-0.08
-0.06
-0.015
0.07
0.17
0.29
0.405
0.54
0.65
0.765
0.875
0.995
1.135
1.225
1.255
1.175
1.075
0.92
0.71
0.49
0.285
0.11
-0.02
-0.095
-0.14
-0.145
-0.175
-0.16
-0.135
-0.135
-0.145
-0.175
-0.215
-0.21
-0.22
-0.215
-0.215
-0.235
-0.235
-0.245
-0.235
-0.23
-0.225
-0.24
-0.24
-0.235
-0.24
-0.24
-0.215
-0.22
-0.23
-0.23
-0.225
-0.215
-0.205
-0.21
-0.21
-0.22
-0.21
-0.2
-0.19
-0.195
-0.205
-0.195
-0.18
-0.18
-0.16
-0.155
-0.175
-0.165
-0.145
-0.135
-0.13
-0.145
-0.13
-0.13
-0.12
-0.105
-0.09
-0.095
-0.095
-0.095
-0.065
-0.06
-0.045
-0.04
-0.055
-0.05
-0.035
-0.015
-0.005
-0.01
-0.01
-0.01
0.01
0.05
0.045
0.04
0.06
0.08
0.1
0.11
0.14
0.145
0.14
0.14
0.15
0.175
0.195
0.19
0.2
0.21
0.215
0.235
0.235
0.215
0.22
0.21
0.225
0.235
0.215
0.205
0.17
0.14
0.125
0.125
0.11
0.065
0.035
0.01
-0.005
-0.005
-0.02
-0.045
-0.07
-0.105
-0.095
-0.095
-0.105
-0.11
-0.135
-0.145
-0.15
-0.135
-0.145
-0.145
-0.165
-0.175
-0.17
-0.175
-0.16
-0.16
-0.18
-0.185
-0.195
-0.18
-0.17
-0.185
-0.18
-0.195
-0.18
-0.165
-0.155
-0.155
-0.17
-0.18
-0.155
-0.155
-0.15
-0.165
-0.17
-0.19
-0.165
-0.15
-0.125
-0.145
-0.155
-0.165
-0.15
-0.145
-0.145
-0.15
-0.165
-0.165
-0.15
-0.135
-0.115
-0.14
-0.155
-0.15
-0.145
-0.135
-0.13
-0.135
-0.14
-0.15
-0.155
-0.13
-0.135
-0.145
-0.165
-0.15
-0.145
-0.125
-0.13
-0.145
-0.16
-0.165
-0.15
-0.135
-0.135
-0.13
-0.14
-0.15
-0.145
-0.135
-0.13
-0.14
-0.15
-0.15
-0.14
-0.125
-0.135
-0.14
-0.16
-0.15
-0.145
-0.14
-0.13
-0.125
-0.14
-0.155
-0.145
-0.135
-0.125
-0.13
-0.15
-0.14
-0.135
-0.145
-0.13
-0.13
-0.15
-0.155
-0.145
-0.12
-0.125
-0.135
-0.14
-0.155
-0.165
-0.12
-0.11
-0.125
-0.125
-0.14
-0.13
-0.125
-0.12
-0.125
-0.145
-0.13
-0.125
-0.105
-0.105
-0.125
-0.135
-0.15
-0.135
-0.135
-0.125
-0.13
-0.135
-0.145
-0.145
-0.11
-0.105
-0.12
-0.13
-0.135
-0.12
-0.105
-0.1
-0.1
-0.13
-0.125
-0.13
-0.1
-0.1
-0.1
-0.115
-0.12
-0.13
-0.105
-0.095
-0.1
-0.115
-0.125
-0.11
-0.1
-0.105
-0.095
-0.11
-0.12
-0.12
-0.095
-0.09
-0.095
-0.11
-0.11
-0.09
-0.085
-0.07
-0.08
-0.09
-0.09
-0.065
-0.05
-0.045
-0.03
-0.035
-0.025
-0.02
0.005
0.02
0.015
-0.01
0.005
0.02
0.04
0.03
0.04
0.025
0.015
0.02
0.015
0.01
-0.02
-0.03
-0.055
-0.04
-0.035
-0.05
-0.05
-0.075
-0.1
-0.085
-0.085
-0.085
-0.09
-0.105
-0.105
-0.11
-0.1
-0.095
-0.1
-0.12
-0.125
-0.115
-0.085
-0.095
-0.1
-0.125
-0.11
-0.11
-0.095
-0.09
-0.085
-0.09
-0.1
-0.095
-0.08
-0.065
-0.075
-0.085
-0.085
-0.045
-0.025
0.005
0.02
0.04
0.09
0.17
0.31
0.445
0.59
0.71
0.86
1.015
1.165
1.315
1.44
1.49
1.455
1.325
1.15
0.905
0.625
0.38
0.19
0.05
-0.035
-0.065
-0.07
-0.09
-0.06
-0.05
-0.055
-0.06
-0.085
-0.11
-0.125
-0.115
-0.11
-0.115
-0.12
-0.145
-0.16
-0.14
-0.135
-0.12
-0.125
-0.14
-0.145
-0.125
-0.115
-0.115
-0.12
-0.135
-0.145
-0.12
-0.115
-0.115
-0.115
-0.125
-0.12
-0.11
-0.1
-0.11
-0.105
-0.12
-0.12
-0.105
-0.085
-0.08
-0.075
-0.085
-0.085
-0.07
-0.065
-0.04
-0.035
-0.04
-0.035
-0.035
-0.025
0.0
-0.01
-0.005
-0.005
0.015
0.045
0.055
0.05
0.05
0.05
0.07
0.1
0.115
0.125
0.125
0.12
0.145
0.155
0.17
0.185
0.185
0.17
0.19
0.21
0.235
0.245
0.245
0.235
0.255
0.28
0.29
0.29
0.265
0.255
0.255
0.26
0.245
0.22
0.19
0.165
0.16
0.155
0.13
0.105
0.075
0.035
0.03
0.03
0.01
-0.005
-0.04
-0.045
-0.055
-0.065
-0.06
-0.075
-0.09
-0.115
-0.12
-0.1
-0.1
-0.125
-0.135
-0.13
-0.125
-0.11
-0.115
-0.125
-0.13
-0.14
-0.13
-0.125
-0.12
-0.135
-0.145
-0.15
-0.145
-0.125
-0.12
-0.12
-0.14
-0.14
-0.12
-0.11
-0.1
-0.115
-0.125
-0.135
-0.12
-0.105
-0.105
-0.095
-0.11
-0.12
-0.11
-0.095
-0.095
-0.1
-0.13
-0.11
-0.11
-0.1
-0.095
-0.105
-0.12
-0.13
-0.11
-0.1
-0.095
-0.105
-0.12
-0.14
-0.145
-0.125
-0.12
-0.125
-0.135
-0.145
-0.14
-0.135
-0.13
-0.13
-0.15
-0.155
-0.16
-0.15
-0.145
-0.145
-0.18
-0.175
-0.17
-0.15
-0.155
-0.165
-0.18
-0.18
-0.175
-0.155
-0.17
-0.18
-0.175
-0.19
-0.185
-0.17
-0.165
-0.175
-0.185
-0.175
-0.175
-0.145
-0.145
-0.17
-0.16
-0.175
-0.165
-0.16
-0.15
-0.16
-0.17
-0.185
-0.175
-0.155
-0.15
-0.17
-0.19
-0.175
-0.16
-0.155
-0.15
-0.17
-0.19
-0.185
-0.155
-0.145
-0.14
-0.15
-0.175
-0.18
-0.165
-0.15
-0.14
-0.165
-0.185
-0.18
-0.155
-0.165
-0.155
-0.16
-0.18
-0.185
-0.16
-0.14
-0.16
-0.155
-0.17
-0.185
-0.16
-0.165
-0.155
-0.155
-0.18
-0.185
-0.17
-0.155
-0.145
-0.15
-0.17
-0.165
-0.165
-0.155
-0.155
-0.155
-0.175
-0.17
-0.17
-0.15
-0.145
-0.155
-0.165
-0.175
-0.165
-0.145
-0.145
-0.155
-0.165
-0.175
-0.16
-0.145
-0.145
-0.155
-0.155
-0.15
-0.12
-0.09
-0.065
-0.07
-0.07
-0.075
-0.07
-0.045
-0.045
-0.06
-0.075
-0.085
-0.045
-0.03
-0.02
-0.04
-0.07
-0.065
-0.085
-0.055
-0.065
-0.07
-0.095
-0.11
-0.13
-0.13
-0.125
-0.135
-0.15
-0.175
-0.16
-0.16
-0.155
-0.16
-0.18
-0.185
-0.185
-0.175
-0.155
-0.165
-0.175
-0.175
-0.165
-0.15
-0.15
-0.18
-0.185
-0.19
-0.175
-0.16
-0.14
-0.15
-0.17
-0.18
-0.16
-0.15
-0.14
-0.13
-0.15
-0.14
-0.12
-0.085
-0.05
-0.04
-0.005
0.085
0.19
0.305
0.43
0.565
0.7
0.845
0.975
1.11
1.245
1.33
1.27
1.13
0.945
0.735
0.525
0.305
0.12
-0.01
-0.08
-0.095
-0.09
-0.11
-0.11
-0.13
-0.135
-0.14
-0.14
-0.16
-0.19
-0.195
-0.2
-0.205
-0.2
-0.195
-0.22
-0.225
-0.22
-0.21
-0.21
-0.205
-0.23
-0.24
-0.22
-0.21
-0.2
-0.21
-0.215
-0.225
-0.215
-0.195
-0.185
-0.195
-0.205
-0.215
-0.205
-0.195
-0.185
-0.19
-0.19
-0.205
-0.185
-0.17
-0.155
-0.165
-0.19
-0.17
-0.16
-0.155
-0.145
-0.125
-0.14
-0.14
-0.115
-0.1
-0.085
-0.085
-0.095
-0.08
-0.07
-0.05
-0.04
-0.035
-0.04
-0.035
-0.015
0.02
0.045
0.03
0.035
0.05
0.065
0.095
0.105
0.095
0.1
0.105
0.135
0.155
0.17
0.175
0.155
0.175
0.185
0.205
0.215
0.205
0.19
0.16
0.175
0.175
0.15
0.125
0.105
0.065
0.045
0.025
0.015
-0.005
-0.035
-0.06
-0.075
-0.09
-0.095
-0.12
-0.145
-0.18
-0.165
-0.155
-0.165
-0.18
-0.195
-0.21
-0.22
-0.195
-0.2
-0.21
-0.23
-0.235
-0.225
-0.205
-0.2
-0.22
-0.22
-0.235
-0.21
-0.195
-0.205
-0.205
-0.22
-0.225
-0.215
-0.195
-0.195
-0.2
-0.22
-0.225
-0.22
-0.205
-0.205
-0.215
-0.225
-0.215
-0.205
-0.185
-0.185
-0.185
-0.22
-0.22
-0.205
-0.195
-0.185
-0.19
-0.205
-0.21
-0.22
-0.195
-0.195
-0.195
-0.215
-0.22
-0.21
-0.205
-0.205
-0.2
-0.235
-0.225
-0.205
-0.195
-0.19
-0.2
-0.21
-0.225
-0.22
-0.2
-0.215
-0.21
-0.235
-0.245
-0.23
-0.215
-0.215
-0.215
-0.24
-0.245
-0.245
-0.25
-0.23
-0.225
-0.25
-0.26
-0.235
-0.235
-0.24
-0.255
-0.26
-0.26
-0.24
-0.23
-0.225
-0.24
-0.255
-0.265
-0.255
-0.24
-0.23
-0.24
-0.245
-0.255
-0.25
-0.24
-0.225
-0.245
-0.25
-0.24
-0.25
-0.215
-0.22
-0.24
-0.23
-0.24
-0.255
-0.235
-0.23
-0.24
-0.23
-0.245
-0.235
-0.215
-0.22
-0.235
-0.24
-0.245
-0.245
-0.235
-0.22
-0.225
-0.25
-0.245
-0.23
-0.23
-0.215
-0.22
-0.23
-0.25
-0.235
-0.21
-0.21
-0.225
-0.245
-0.24
-0.245
-0.22
-0.225
-0.23
-0.235
-0.24
-0.235
-0.22
-0.22
-0.23
-0.235
-0.245
-0.24
-0.22
-0.205
-0.21
-0.23
-0.24
-0.22
-0.2
-0.205
-0.205
-0.23
-0.225
-0.21
-0.2
-0.195
-0.205
-0.215
-0.22
-0.2
-0.2
-0.19
-0.19
-0.195
-0.22
-0.195
-0.175
-0.17
-0.145
-0.15
-0.145
-0.125
-0.105
-0.09
-0.085
-0.1
-0.11
-0.095
-0.075
-0.07
-0.065
-0.075
-0.095
-0.085
-0.08
-0.1
-0.105
-0.115
-0.14
-0.125
-0.11
-0.115
-0.155
-0.165
-0.185
-0.185
-0.175
-0.175
-0.195
-0.21
-0.23
-0.205
-0.205
-0.2
-0.22
-0.245
-0.235
-0.22
-0.21
-0.21
-0.22
-0.225
-0.24
-0.235
-0.215
-0.225
-0.21
-0.25
-0.235
-0.225
-0.21
-0.205
-0.215
-0.235
-0.215
-0.195
-0.185
-0.175
-0.155
-0.155
-0.115
-0.075
-0.045
0.015
0.115
0.205
0.31
0.43
0.58
0.715
0.845
0.935
1.05
1.17
1.22
1.165
1.05
0.875
0.675
0.465
0.275
0.12
-0.02
-0.125
-0.165
-0.165
-0.15
-0.14
-0.135
-0.155
-0.185
-0.185
-0.19
-0.18
-0.205
-0.23
-0.245
-0.245
-0.235
-0.235
-0.24
-0.24
-0.25
-0.24
-0.215
-0.23
-0.22
-0.235
-0.25
-0.225
-0.23
-0.22
-0.215
-0.235
-0.225
-0.225
-0.19
-0.185
-0.205
-0.21
-0.21
-0.2
-0.2
-0.185
-0.185
-0.195
-0.185
-0.185
-0.16
-0.14
-0.14
-0.15
-0.16
-0.145
-0.125
-0.12
-0.11
-0.115
-0.115
-0.095
-0.075
-0.05
-0.065
-0.075
-0.07
-0.05
-0.03
-0.02
-0.015
-0.03
-0.02
0.01
0.045
0.055
0.07
0.065
0.07
0.09
0.115
0.115
0.14
0.14
0.145
0.16
0.19
0.19
0.2
0.2
0.195
0.215
0.24
0.235
0.235
0.225
0.225
0.225
0.22
0.225
0.2
0.145
0.135
0.12
0.1
0.085
0.06
0.03
0.0
-0.01
-0.025
-0.03
-0.045
-0.065
-0.095
-0.09
-0.095
-0.1
-0.11
-0.12
-0.13
-0.15
-0.15
-0.13
-0.15
-0.185
-0.175
-0.19
-0.16
-0.15
-0.17
-0.18
-0.195
-0.17
-0.165
-0.17
-0.16
-0.175
-0.18
-0.185
-0.185
-0.17
-0.175
-0.185
-0.185
-0.175
-0.155
-0.155
-0.15
-0.17
-0.19
-0.18
-0.165
-0.15
-0.16
-0.185
-0.19
-0.175
-0.145
-0.14
-0.15
-0.16
-0.175
-0.17
-0.165
-0.15
-0.145
-0.145
-0.145
-0.145
-0.15
-0.135
-0.14
-0.15
-0.165
-0.17
-0.14
-0.14
-0.14
-0.16
-0.175
-0.16
-0.155
-0.135
-0.16
-0.155
-0.175
-0.165
-0.135
-0.145
-0.15
-0.175
-0.175
-0.165
-0.16
-0.15
-0.17
-0.185
-0.18
-0.185
-0.16
-0.16
-0.165
-0.19
-0.175
-0.17
-0.165
-0.16
-0.18
-0.18
-0.18
-0.175
-0.15
-0.145
-0.155
-0.17
-0.17
-0.175
-0.155
-0.155
-0.16
-0.175
-0.19
-0.16
-0.165
-0.155
-0.17
-0.185
-0.185
-0.165
-0.155
-0.15
-0.17
-0.17
-0.175
-0.165
-0.165
-0.155
-0.16
-0.17
-0.175
-0.18
-0.155
-0.15
-0.15
-0.18
-0.19
-0.175
-0.17
-0.15
-0.165
-0.18
-0.18
-0.175
-0.155
-0.155
-0.155
-0.165
-0.175
-0.165
-0.15
-0.16
-0.155
-0.175
-0.175
-0.165
-0.15
-0.15
-0.165
-0.165
-0.18
-0.165
-0.16
-0.155
-0.16
-0.17
-0.18
-0.17
-0.17
-0.155
-0.155
-0.16
-0.17
-0.155
-0.15
-0.165
-0.145
-0.17
-0.17
-0.165
-0.155
-0.145
-0.15
-0.165
-0.165
-0.155
-0.135
-0.13
-0.145
-0.15
-0.16
-0.135
-0.105
-0.1
-0.085
-0.095
-0.105
-0.1
-0.07
-0.065
-0.055
-0.07
-0.08
-0.075
-0.06
-0.05
-0.025
-0.045
-0.055
-0.045
-0.045
-0.045
-0.055
-0.08
-0.1
-0.085
-0.08
-0.07
-0.085
-0.105
-0.115
-0.12
-0.115
-0.12
-0.145
-0.155
-0.165
-0.155
-0.155
-0.165
-0.18
-0.185
-0.19
-0.175
-0.175
-0.175
-0.165
-0.18
-0.195
-0.19
-0.17
-0.155
-0.17
-0.205
-0.2
-0.185
-0.165
-0.17
-0.175
-0.19
-0.185
-0.18
-0.17
-0.17
-0.155
-0.175
-0.155
-0.15
-0.15
-0.13
-0.115
-0.1
-0.08
-0.03
0.035
0.125
0.225
0.31
0.405
0.535
0.675
0.82
0.94
1.055
1.16
1.31
1.41
1.4
1.275
1.095
0.875
0.66
0.46
0.265
0.115
-0.035
-0.095
-0.12
-0.1
-0.095
-0.115
-0.12
-0.15
-0.145
-0.15
-0.17
-0.18
-0.205
-0.225
-0.22
-0.205
-0.215
-0.225
-0.245
-0.26
-0.24
-0.215
-0.22
-0.23
-0.25
-0.245
-0.245
-0.23
-0.23
-0.245
-0.25
-0.245
-0.235
-0.22
-0.235
-0.235
-0.24
-0.24
-0.23
-0.215
-0.2
-0.21
-0.225
-0.23
-0.22
-0.205
-0.185
-0.205
-0.195
-0.205
-0.195
-0.175
-0.17
-0.165
-0.17
-0.165
-0.17
-0.145
-0.13
-0.13
-0.14
-0.145
-0.135
-0.1
-0.095
-0.095
-0.115
-0.115
-0.09
-0.065
-0.06
-0.05
-0.06
-0.06
-0.035
0.0
0.01
0.005
0.015
0.025
0.05
0.055
0.07
0.075
0.07
0.075
0.085
0.115
0.12
0.13
0.125
0.125
0.135
0.165
0.17
0.165
0.17
0.17
0.185
0.2
0.195
0.185
0.16
0.155
0.15
0.145
0.13
0.105
0.065
0.035
0.025
0.025
0.01
-0.02
-0.055
-0.06
-0.07
-0.07
-0.085
-0.105
-0.125
-0.14
-0.16
-0.14
-0.155
-0.17
-0.185
-0.19
-0.195
-0.18
-0.18
-0.19
-0.205
-0.225
-0.21
-0.19
-0.185
-0.19
-0.215
-0.22
-0.21
-0.2
-0.2
-0.21
-0.21
-0.225
-0.215
-0.19
-0.195
-0.21
-0.225
-0.22
-0.22
-0.19
-0.195
-0.205
-0.215
-0.225
-0.21
-0.215
-0.195
-0.2
-0.215
-0.21
-0.2
-0.19
-0.19
-0.195
-0.22
-0.215
-0.215
-0.21
-0.195
-0.2
-0.22
-0.22
-0.21
-0.215
-0.195
-0.21
-0.225
-0.22
-0.21
-0.195
-0.195
-0.205
-0.21
-0.225
-0.21
-0.195
-0.18
-0.195
-0.235
-0.235
-0.215
-0.205
-0.19
-0.2
-0.22
-0.225
-0.22
-0.225
-0.21
-0.2
-0.22
-0.23
-0.23
-0.22
-0.215
-0.225
-0.245
-0.245
-0.225
-0.205
-0.22
-0.225
-0.24
-0.245
-0.235
-0.22
-0.21
-0.22
-0.24
-0.25
-0.235
-0.23
-0.24
-0.235
-0.255
-0.24
-0.235
-0.22
-0.21
-0.24
-0.255
-0.26
-0.235
-0.215
-0.21
-0.22
-0.235
-0.25
-0.245
-0.235
-0.23
-0.235
-0.255
-0.255
-0.25
-0.245
-0.235
-0.23
-0.25
-0.255
-0.24
-0.225
-0.21
-0.22
-0.24
-0.24
-0.255
-0.235
-0.235
-0.245
-0.23
-0.245
-0.225
-0.215
-0.215
-0.23
-0.24
-0.245
-0.235
-0.23
-0.23
-0.23
-0.25
-0.25
-0.23
-0.215
-0.205
-0.22
-0.24
-0.235
-0.23
-0.215
-0.205
-0.21
-0.235
-0.235
-0.21
-0.205
-0.215
-0.22
-0.22
-0.23
-0.235
-0.225
-0.23
-0.215
-0.245
-0.245
-0.23
-0.22
-0.205
-0.23
-0.23
-0.235
-0.235
-0.205
-0.205
-0.21
-0.215
-0.225
-0.205
-0.2
-0.205
-0.2
-0.215
-0.22
-0.205
-0.215
-0.195
-0.22
-0.21
-0.2
-0.18
-0.155
-0.15
-0.135
-0.15
-0.155
-0.125
-0.11
-0.095
-0.115
-0.125
-0.13
-0.11
-0.1
-0.085
-0.08
-0.12
-0.12
-0.145
-0.12
-0.12
-0.125
-0.155
-0.17
-0.165
-0.15
-0.15
-0.16
-0.175
-0.19
-0.195
-0.185
-0.195
-0.205
-0.245
-0.25
-0.235
-0.225
-0.23
-0.235
-0.25
-0.255
-0.23
-0.22
-0.225
-0.235
-0.26
-0.265
-0.26
-0.23
-0.225
-0.25
-0.25
-0.265
-0.25
-0.235
-0.225
-0.23
-0.245
-0.245
-0.23
-0.22
-0.205
-0.19
-0.19
-0.175
-0.15
-0.105
-0.05
-0.015
0.055
0.155
0.255
0.37
0.51
0.635
0.735
0.83
0.96
1.075
1.185
1.19
1.09
0.935
0.74
0.52
0.315
0.115
-0.03
-0.135
-0.175
-0.185
-0.165
-0.155
-0.165
-0.19
-0.195
-0.2
-0.215
-0.225
-0.25
-0.27
-0.25
-0.255
-0.25
-0.275
-0.28
-0.29
-0.275
-0.265
-0.26
-0.27
-0.275
-0.275
-0.26
-0.25
-0.26
-0.265
-0.28
-0.27
-0.24
-0.24
-0.235
-0.24
-0.25
-0.255
-0.25
-0.23
-0.22
-0.22
-0.22
-0.22
-0.21
-0.19
-0.19
-0.21
-0.215
-0.205
-0.195
-0.17
-0.155
-0.16
-0.18
-0.185
-0.15
-0.13
-0.125
-0.135
-0.14
-0.145
-0.13
-0.085
-0.08
-0.09
-0.09
-0.085
-0.06
-0.04
-0.035
-0.035
-0.03
-0.025
-0.01
0.02
0.03
0.035
0.035
0.045
0.05
0.09
0.095
0.1
0.1
0.1
0.11
0.135
0.15
0.155
0.14
0.14
0.155
0.17
0.165
0.15
0.15
0.125
0.13
0.135
0.115
0.09
0.04
0.02
0.01
0.0
-0.005
-0.03
-0.06
-0.085
-0.095
-0.1
-0.095
-0.13
-0.155
-0.165
-0.17
-0.165
-0.18
-0.195
-0.205
-0.225
-0.21
-0.21
-0.205
-0.23
-0.23
-0.255
-0.245
-0.23
-0.225
-0.24
-0.26
-0.265
-0.25
-0.245
-0.235
-0.25
-0.25
-0.265
-0.23
-0.23
-0.23
-0.24
-0.245
-0.255
-0.245
-0.235
-0.225
-0.235
-0.255
-0.25
-0.235
-0.22
-0.215
-0.225
-0.235
-0.25
-0.235
-0.23
-0.225
-0.215
-0.23
-0.245
-0.225
-0.215
-0.2
-0.23
-0.245
-0.24
-0.24
-0.21
-0.205
-0.215
-0.235
-0.23
-0.225
-0.215
-0.2
-0.215
-0.22
-0.235
-0.22
-0.205
-0.215
-0.235
-0.235
-0.23
-0.225
-0.22
-0.22
-0.22
-0.245
-0.245
-0.23
-0.22
-0.22
-0.225
-0.245
-0.25
-0.235
-0.23
-0.235
-0.25
-0.245
-0.24
-0.24
-0.22
-0.225
-0.225
-0.24
-0.23
-0.25
-0.23
-0.24
-0.24
-0.245
-0.245
-0.235
-0.205
-0.2
-0.21
-0.225
-0.225
-0.235
-0.2
-0.21
-0.205
-0.215
-0.25
-0.235
-0.205
-0.205
-0.215
-0.23
-0.225
-0.215
-0.19
-0.185
-0.185
-0.21
-0.21
-0.215
-0.2
-0.19
-0.19
-0.205
-0.215
-0.2
-0.2
-0.195
-0.195
-0.21
-0.21
-0.2
-0.195
-0.18
-0.19
-0.195
-0.215
-0.19
-0.18
-0.175
-0.18
-0.19
-0.195
-0.195
-0.175
-0.175
-0.18
-0.195
-0.21
-0.19
-0.165
-0.175
-0.18
-0.19
-0.205
-0.19
-0.16
-0.165
-0.16
-0.175
-0.185
-0.19
-0.155
-0.165
-0.17
-0.185
-0.175
-0.16
-0.155
-0.145
-0.155
-0.165
-0.175
-0.17
-0.155
-0.155
-0.155
-0.155
-0.16
-0.155
-0.135
-0.125
-0.125
-0.135
-0.125
-0.1
-0.075
-0.07
-0.07
-0.08
-0.075
-0.045
-0.045
-0.04
-0.05
-0.07
-0.06
-0.04
-0.03
-0.01
-0.035
-0.065
-0.065
-0.05
-0.04
-0.04
-0.065
-0.07
-0.08
-0.08
-0.09
-0.08
-0.1
-0.12
-0.14
-0.145
-0.14
-0.125
-0.12
-0.14
-0.15
-0.145
-0.135
-0.12
-0.14
-0.14
-0.145
-0.135
-0.12
-0.12
-0.13
-0.135
-0.13
-0.125
-0.125
-0.11
-0.12
-0.125
-0.125
-0.12
-0.12
-0.1
-0.1
-0.105
-0.115
-0.105
-0.075
-0.035
-0.015
0.005
0.02
0.07
0.16
0.29
0.41
0.535
0.69
0.86
1.005
1.145
1.295
1.395
1.475
1.435
1.29
1.075
0.8
0.52
0.315
0.15
0.03
-0.055
-0.1
-0.105
-0.1
-0.085
-0.06
-0.06
-0.085
-0.095
-0.125
-0.115
-0.105
-0.11
-0.125
-0.155
-0.14
-0.15
-0.135
-0.13
-0.155
-0.165
-0.15
-0.15
-0.135
-0.13
-0.14
-0.145
-0.15
-0.14
-0.14
-0.13
-0.12
-0.135
-0.15
-0.145
-0.13
-0.105
-0.115
-0.13
-0.14
-0.115
-0.095
-0.075
-0.095
-0.09
-0.1
-0.095
-0.09
-0.085
-0.07
-0.08
-0.09
-0.075
-0.05
-0.045
-0.045
-0.04
-0.045
-0.03
-0.005
0.01
0.01
0.02
0.015
0.03
0.045
0.065
0.08
0.045
0.08
0.105
0.13
0.145
0.15
0.14
0.14
0.16
0.195
0.21
0.22
0.2
0.21
0.235
0.25
0.265
0.265
0.235
0.245
0.24
0.26
0.27
0.24
0.235
0.2
0.195
0.185
0.175
0.14
0.115
0.09
0.07
0.075
0.045
0.025
-0.005
-0.03
-0.055
-0.06
-0.065
-0.085
-0.115
-0.13
-0.125
-0.125
-0.135
-0.145
-0.16
-0.175
-0.165
-0.15
-0.155
-0.175
-0.19
-0.19
-0.185
-0.175
-0.18
-0.185
-0.185
-0.2
-0.19
-0.18
-0.165
-0.175
-0.2
-0.19
-0.195
-0.185
-0.185
-0.185
-0.19
-0.21
-0.185
-0.17
-0.16
-0.175
-0.195
-0.19
-0.18
-0.18
-0.175
-0.17
-0.185
-0.185
-0.18
-0.16
-0.165
-0.155
-0.175
-0.19
-0.17
-0.165
-0.155
-0.16
-0.195
-0.2
-0.185
-0.18
-0.16
-0.18
-0.185
-0.19
-0.185
-0.165
-0.175
-0.185
-0.195
-0.205
-0.2
-0.185
-0.18
-0.215
-0.215
-0.22
-0.225
-0.21
-0.2
-0.215
-0.23
-0.225
-0.22
-0.225
-0.215
-0.215
-0.235
-0.245
-0.225
-0.235
-0.235
-0.24
-0.245
-0.265
-0.24
-0.215
-0.22
-0.24
-0.25
-0.27
-0.24
-0.22
-0.225
-0.225
-0.24
-0.25
-0.255
-0.235
-0.22
-0.235
-0.235
-0.24
-0.24
-0.225
-0.23
-0.235
-0.24
-0.245
-0.235
-0.21
-0.225
-0.235
-0.235
-0.255
-0.22
-0.22
-0.22
-0.225
-0.245
-0.265
-0.255
-0.23
-0.225
-0.23
-0.24
-0.235
-0.22
-0.22
-0.215
-0.225
-0.235
-0.245
-0.235
-0.22
-0.21
-0.22
-0.235
-0.25
-0.235
-0.21
-0.2
-0.21
-0.21
-0.215
-0.22
-0.205
-0.2
-0.205
-0.22
-0.23
-0.215
-0.2
-0.19
-0.195
-0.22
-0.23
-0.21
-0.195
-0.19
-0.19
-0.215
-0.195
-0.19
-0.185
-0.185
-0.2
-0.205
-0.205
-0.19
-0.175
-0.185
-0.18
-0.19
-0.205
-0.185
-0.175
-0.165
-0.16
-0.18
-0.19
-0.16
-0.145
-0.125
-0.12
-0.12
-0.125
-0.115
-0.1
-0.09
-0.085
-0.105
-0.125
-0.095
-0.075
-0.06
-0.065
-0.075
-0.09
-0.095
-0.08
-0.095
-0.1
-0.11
-0.135
-0.125
-0.11
-0.125
-0.13
-0.15
-0.18
-0.15
-0.155
-0.165
-0.185
-0.205
-0.19
-0.205
-0.175
-0.17
-0.19
-0.2
-0.2
-0.195
-0.19
-0.18
-0.18
-0.205
-0.205
-0.19
-0.185
-0.185
-0.205
-0.205
-0.21
-0.18
-0.18
-0.165
-0.175
-0.175
-0.18
-0.18
-0.15
-0.13
-0.12
-0.11
-0.085
-0.055
0.005
0.075
0.175
0.275
0.395
0.54
0.7
0.83
0.95
1.06
1.19
1.31
1.325
1.205
1.015
