Lead II
-0.855
-0.84
-0.835
-0.83
-0.83
-0.83
-0.84
-0.835
-0.85
-0.86
-0.86
-0.825
-0.82
-0.81
-0.805
-0.805
-0.805
-0.8
-0.805
-0.815
-0.8
-0.82
-0.805
-0.805
-0.795
-0.79
-0.785
-0.78
-0.785
-0.795
-0.785
-0.785
-0.795
-0.8
-0.8
-0.795
-0.79
-0.79
-0.76
-0.76
-0.76
-0.76
-0.765
-0.76
-0.77
-0.775
-0.755
-0.76
-0.75
-0.74
-0.735
-0.735
-0.74
-0.74
-0.735
-0.735
-0.745
-0.74
-0.74
-0.75
-0.745
-0.725
-0.72
-0.705
-0.7
-0.705
-0.705
-0.715
-0.725
-0.74
-0.725
-0.715
-0.705
-0.71
-0.705
-0.715
-0.71
-0.72
-0.725
-0.735
-0.745
-0.765
-0.765
-0.77
-0.77
-0.755
-0.75
-0.755
-0.76
-0.78
-0.78
-0.79
-0.805
-0.825
-0.825
-0.825
-0.825
-0.84
-0.83
-0.84
-0.845
-0.845
-0.855
-0.865
-0.89
-0.885
-0.885
-0.875
-0.865
-0.885
-0.865
-0.87
-0.875
-0.885
-0.895
-0.88
-0.905
-0.91
-0.92
-0.905
-0.9
-0.905
-0.89
-0.89
-0.895
-0.9
-0.925
-0.935
-0.93
-0.93
-0.93
-0.92
-0.92
-0.915
-0.915
-0.905
-0.915
-0.925
-0.92
-0.93
-0.94
-0.95
-0.965
-0.955
-0.95
-0.945
-0.935
-0.94
-0.94
-0.935
-0.945
-0.955
-0.955
-0.96
-0.955
-0.945
-0.935
-0.93
-0.915
-0.91
-0.915
-0.92
-0.93
-0.93
-0.93
-0.95
-0.95
-0.95
-0.94
-0.915
-0.91
-0.91
-0.92
-0.915
-0.925
-0.925
-0.935
-0.93
-0.945
-0.935
-0.935
-0.92
-0.905
-0.91
-0.91
-0.91
-0.92
-0.92
-0.92
-0.915
-0.915
-0.915
-0.895
-0.9
-0.885
-0.875
-0.875
-0.89
-0.9
-0.9
-0.91
-0.9
-0.9
-0.905
-0.89
-0.89
-0.895
-0.875
-0.87
-0.88
-0.88
-0.895
-0.9
-0.905
-0.895
-0.89
-0.89
-0.88
-0.875
-0.875
-0.88
-0.87
-0.88
-0.89
-0.895
-0.895
-0.89
-0.88
-0.875
-0.865
-0.865
-0.86
-0.86
-0.865
-0.865
-0.875
-0.89
-0.895
-0.89
-0.885
-0.88
-0.875
-0.875
-0.865
-0.87
-0.865
-0.87
-0.875
-0.88
-0.895
-0.895
-0.895
-0.885
-0.865
-0.86
-0.85
-0.855
-0.855
-0.87
-0.875
-0.89
-0.875
-0.875
-0.87
-0.875
-0.875
-0.865
-0.855
-0.88
-0.865
-0.87
-0.865
-0.875
-0.885
-0.885
-0.86
-0.855
-0.845
-0.83
-0.805
-0.795
-0.795
-0.78
-0.78
-0.795
-0.795
-0.81
-0.8
-0.79
-0.775
-0.765
-0.765
-0.78
-0.78
-0.785
-0.805
-0.805
-0.82
-0.815
-0.805
-0.795
-0.795
-0.785
-0.775
-0.785
-0.8
-0.81
-0.82
-0.83
-0.835
-0.85
-0.86
-0.855
-0.87
-0.85
-0.85
-0.84
-0.84
-0.85
-0.87
-0.865
-0.86
-0.865
-0.855
-0.84
-0.835
-0.84
-0.84
-0.825
-0.82
-0.815
-0.805
-0.805
-0.77
-0.72
-0.65
-0.555
-0.455
-0.36
-0.275
-0.215
-0.165
-0.15
-0.125
-0.085
-0.07
-0.03
-0.05
-0.08
-0.145
-0.22
-0.285
-0.375
-0.47
-0.545
-0.605
-0.685
-0.725
-0.77
-0.805
-0.815
-0.835
-0.835
-0.83
-0.84
-0.82
-0.825
-0.82
-0.82
-0.825
-0.835
-0.83
-0.83
-0.83
-0.815
-0.81
-0.8
-0.805
-0.81
-0.815
-0.82
-0.815
-0.81
-0.8
-0.795
-0.785
-0.795
-0.78
-0.785
-0.79
-0.785
-0.795
-0.795
-0.795
-0.79
-0.79
-0.775
-0.765
-0.75
-0.76
-0.76
-0.75
-0.765
-0.765
-0.77
-0.77
-0.775
-0.775
-0.76
-0.745
-0.74
-0.735
-0.74
-0.74
-0.755
-0.755
-0.755
-0.745
-0.75
-0.745
-0.735
-0.725
-0.72
-0.71
-0.715
-0.71
-0.715
-0.72
-0.73
-0.73
-0.715
-0.715
-0.72
-0.71
-0.71
-0.695
-0.69
-0.685
-0.685
-0.695
-0.695
-0.705
-0.71
-0.71
-0.695
-0.675
-0.665
-0.67
-0.67
-0.685
-0.69
-0.7
-0.7
-0.705
-0.715
-0.71
-0.715
-0.71
-0.7
-0.705
-0.73
-0.745
-0.75
-0.755
-0.765
-0.78
-0.775
-0.79
-0.79
-0.795
-0.8
-0.79
-0.81
-0.81
-0.82
-0.835
-0.845
-0.85
-0.86
-0.85
-0.85
-0.85
-0.86
-0.855
-0.855
-0.855
-0.86
-0.875
-0.88
-0.89
-0.905
-0.9
-0.89
-0.89
-0.89
-0.875
-0.88
-0.885
-0.895
-0.9
-0.915
-0.915
-0.91
-0.91
-0.915
-0.905
-0.895
-0.9
-0.895
-0.895
-0.9
-0.9
-0.925
-0.93
-0.935
-0.915
-0.915
-0.92
-0.91
-0.9
-0.905
-0.905
-0.91
-0.915
-0.915
-0.925
-0.93
-0.92
-0.915
-0.915
-0.915
-0.915
-0.91
-0.905
-0.92
-0.92
-0.925
-0.925
-0.92
-0.925
-0.92
-0.925
-0.915
-0.91
-0.9
-0.895
-0.905
-0.915
-0.925
-0.92
-0.92
-0.92
-0.915
-0.9
-0.905
-0.89
-0.89
-0.89
-0.9
-0.905
-0.91
-0.91
-0.91
-0.91
-0.9
-0.9
-0.885
-0.885
-0.88
-0.875
-0.87
-0.885
-0.895
-0.885
-0.9
-0.885
-0.89
-0.875
-0.88
-0.87
-0.875
-0.875
-0.88
-0.88
-0.895
-0.895
-0.9
-0.895
-0.9
-0.895
-0.89
-0.88
-0.875
-0.885
-0.89
-0.89
-0.905
-0.91
-0.905
-0.905
-0.9
-0.88
-0.885
-0.875
-0.87
-0.875
-0.875
-0.885
-0.89
-0.895
-0.905
-0.89
-0.89
-0.89
-0.885
-0.875
-0.87
-0.88
-0.89
-0.895
-0.9
-0.91
-0.9
-0.89
-0.895
-0.885
-0.88
-0.88
-0.875
-0.885
-0.885
-0.895
-0.9
-0.905
-0.9
-0.895
-0.89
-0.895
-0.885
-0.885
-0.89
-0.88
-0.89
-0.9
-0.895
-0.895
-0.91
-0.89
-0.88
-0.87
-0.87
-0.85
-0.855
-0.84
-0.84
-0.845
-0.84
-0.835
-0.835
-0.84
-0.835
-0.825
-0.83
-0.81
-0.83
-0.805
-0.83
-0.82
-0.84
-0.845
-0.85
-0.85
-0.86
-0.85
-0.835
-0.83
-0.825
-0.83
-0.83
-0.845
-0.86
-0.865
-0.87
-0.87
-0.875
-0.885
-0.89
-0.885
-0.89
-0.88
-0.895
-0.9
-0.905
-0.915
-0.915
-0.895
-0.895
-0.885
-0.88
-0.885
-0.885
-0.87
-0.87
-0.87
-0.865
-0.855
-0.835
-0.775
-0.7
-0.605
-0.49
-0.385
-0.29
-0.235
-0.185
-0.155
-0.125
-0.105
-0.08
-0.1
-0.155
-0.22
-0.285
-0.365
-0.445
-0.525
-0.62
-0.69
-0.755
-0.8
-0.84
-0.865
-0.885
-0.9
-0.885
-0.865
-0.865
-0.865
-0.855
-0.865
-0.855
-0.875
-0.87
-0.88
-0.875
-0.86
-0.855
-0.855
-0.855
-0.845
-0.845
-0.855
-0.845
-0.865
-0.88
-0.865
-0.86
-0.855
-0.845
-0.835
-0.85
-0.845
-0.835
-0.84
-0.84
-0.85
-0.85
-0.835
-0.825
-0.83
-0.83
-0.805
-0.815
-0.8
-0.805
-0.82
-0.835
-0.83
-0.82
-0.82
-0.81
-0.805
-0.8
-0.785
-0.795
-0.785
-0.795
-0.785
-0.8
-0.795
-0.795
-0.79
-0.785
-0.78
-0.77
-0.755
-0.75
-0.755
-0.75
-0.755
-0.75
-0.75
-0.745
-0.735
-0.725
-0.725
-0.725
-0.72
-0.715
-0.71
-0.695
-0.71
-0.715
-0.715
-0.715
-0.705
-0.695
-0.695
-0.69
-0.695
-0.705
-0.7
-0.705
-0.72
-0.735
-0.745
-0.745
-0.74
-0.74
-0.74
-0.745
-0.745
-0.76
-0.765
-0.78
-0.79
-0.805
-0.825
-0.825
-0.83
-0.825
-0.835
-0.835
-0.83
-0.855
-0.87
-0.87
-0.89
-0.895
-0.9
-0.895
-0.885
-0.885
-0.87
-0.865
-0.87
-0.88
-0.88
-0.88
-0.905
-0.9
-0.92
-0.925
-0.91
-0.9
-0.89
-0.89
-0.89
-0.895
-0.895
-0.905
-0.905
-0.915
-0.915
-0.925
-0.91
-0.91
-0.91
-0.905
-0.9
-0.905
-0.905
-0.905
-0.905
-0.92
-0.925
-0.93
-0.93
-0.935
-0.93
-0.925
-0.915
-0.92
-0.925
-0.92
-0.935
-0.93
-0.94
-0.94
-0.935
-0.93
-0.925
-0.91
-0.91
-0.91
-0.915
-0.93
-0.935
-0.94
-0.93
-0.945
-0.94
-0.93
-0.925
-0.92
-0.91
-0.915
-0.915
-0.925
-0.935
-0.935
-0.945
-0.925
-0.93
-0.93
-0.92
-0.925
-0.91
-0.9
-0.905
-0.905
-0.91
-0.915
-0.94
-0.92
-0.92
-0.92
-0.91
-0.905
-0.895
-0.895
-0.895
-0.895
-0.91
-0.925
-0.945
-0.95
-0.925
-0.915
-0.905
-0.895
-0.9
-0.895
-0.9
-0.9
-0.9
-0.91
-0.905
-0.91
-0.91
-0.905
-0.905
-0.885
-0.87
-0.88
-0.885
-0.895
-0.91
-0.905
-0.925
-0.925
-0.91
-0.91
-0.895
-0.895
-0.895
-0.895
-0.895
-0.895
-0.905
-0.905
-0.91
-0.91
-0.9
-0.895
-0.885
-0.88
-0.86
-0.87
-0.875
-0.89
-0.89
-0.895
-0.895
-0.9
-0.9
-0.89
-0.885
-0.885
-0.88
-0.88
-0.885
-0.885
-0.89
-0.88
-0.885
-0.875
-0.875
-0.865
-0.845
-0.83
-0.81
-0.805
-0.81
-0.805
-0.805
-0.815
-0.815
-0.81
-0.81
-0.8
-0.79
-0.785
-0.785
-0.785
-0.785
-0.785
-0.81
-0.82
-0.82
-0.815
-0.815
-0.805
-0.79
-0.795
-0.78
-0.785
-0.805
-0.81
-0.83
-0.845
-0.865
-0.875
-0.88
-0.865
-0.86
-0.855
-0.85
-0.86
-0.86
-0.855
-0.865
-0.87
-0.875
-0.88
-0.885
-0.85
-0.855
-0.835
-0.815
-0.82
-0.805
-0.805
-0.79
-0.76
-0.71
-0.635
-0.545
-0.445
-0.35
-0.26
-0.17
-0.13
-0.1
-0.08
-0.045
-0.005
0.03
0.035
0.0
-0.045
-0.115
-0.21
-0.305
-0.425
-0.525
-0.62
-0.695
-0.76
-0.8
-0.835
-0.845
-0.84
-0.825
-0.81
-0.805
-0.8
-0.8
-0.79
-0.805
-0.805
-0.81
-0.815
-0.81
-0.8
-0.795
-0.785
-0.775
-0.78
-0.78
-0.775
-0.785
-0.8
-0.79
-0.795
-0.795
-0.775
-0.77
-0.765
-0.765
-0.765
-0.765
-0.77
-0.775
-0.775
-0.775
-0.77
-0.77
-0.765
-0.755
-0.755
-0.745
-0.745
-0.745
-0.745
-0.75
-0.75
-0.75
-0.755
-0.755
-0.745
-0.73
-0.73
-0.71
-0.715
-0.715
-0.73
-0.73
-0.735
-0.735
-0.755
-0.75
-0.735
-0.725
-0.71
-0.7
-0.705
-0.705
-0.695
-0.7
-0.71
-0.72
-0.73
-0.7
-0.69
-0.685
-0.69
-0.68
-0.675
-0.67
-0.68
-0.69
-0.7
-0.71
-0.72
-0.715
-0.705
-0.705
-0.705
-0.7
-0.705
-0.71
-0.725
-0.73
-0.75
-0.75
-0.745
-0.76
-0.77
-0.77
-0.77
-0.77
-0.77
-0.78
-0.79
-0.805
-0.83
-0.83
-0.845
-0.855
-0.845
-0.84
-0.83
-0.835
-0.83
-0.84
-0.84
-0.85
-0.855
-0.86
-0.865
-0.855
-0.865
-0.855
-0.855
-0.855
-0.845
-0.85
-0.845
-0.865
-0.86
-0.875
-0.88
-0.88
-0.885
-0.88
-0.87
-0.855
-0.86
-0.875
-0.87
-0.865
-0.89
-0.885
-0.91
-0.9
-0.9
-0.89
-0.885
-0.88
-0.89
-0.895
-0.91
-0.91
-0.925
-0.925
-0.915
-0.905
-0.905
-0.91
-0.91
-0.905
-0.915
-0.9
-0.905
-0.905
-0.905
-0.915
-0.91
-0.92
-0.905
-0.895
-0.89
-0.88
-0.895
-0.89
-0.895
-0.885
-0.92
-0.915
-0.915
-0.91
-0.905
-0.885
-0.885
-0.885
-0.89
-0.875
-0.875
-0.9
-0.9
-0.9
-0.9
-0.905
-0.9
-0.905
-0.885
-0.875
-0.87
-0.885
-0.885
-0.89
-0.89
-0.89
-0.895
-0.885
-0.88
-0.875
-0.875
-0.865
-0.85
-0.855
-0.865
-0.875
-0.885
-0.89
-0.89
-0.895
-0.88
-0.865
-0.86
-0.855
-0.86
-0.87
-0.875
-0.875
-0.89
-0.9
-0.9
-0.885
-0.88
-0.87
-0.87
-0.865
-0.875
-0.865
-0.865
-0.875
-0.875
-0.88
-0.89
-0.885
-0.885
-0.875
-0.87
-0.865
-0.855
-0.86
-0.87
-0.89
-0.885
-0.88
-0.88
-0.885
-0.875
-0.865
-0.86
-0.85
-0.865
-0.865
-0.865
-0.875
-0.88
-0.88
-0.89
-0.88
-0.87
-0.86
-0.865
-0.865
-0.87
-0.87
-0.855
-0.865
-0.865
-0.875
-0.875
-0.85
-0.845
-0.835
-0.835
-0.8
-0.815
-0.785
-0.8
-0.795
-0.785
-0.8
-0.785
-0.77
-0.765
-0.76
-0.76
-0.745
-0.75
-0.74
-0.745
-0.745
-0.745
-0.755
-0.775
-0.775
-0.755
-0.765
-0.76
-0.76
-0.77
-0.785
-0.785
-0.79
-0.8
-0.815
-0.84
-0.855
-0.87
-0.85
-0.855
-0.845
-0.845
-0.86
-0.85
-0.85
-0.87
-0.87
-0.875
-0.875
-0.865
-0.855
-0.85
-0.835
-0.845
-0.845
-0.85
-0.84
-0.845
-0.84
-0.815
-0.8
-0.74
-0.67
-0.585
-0.485
-0.395
-0.32
-0.255
-0.22
-0.195
-0.165
-0.14
-0.08
-0.03
-0.025
-0.045
-0.095
-0.17
-0.245
-0.34
-0.43
-0.515
-0.61
-0.675
-0.725
-0.76
-0.795
-0.81
-0.835
-0.84
-0.83
-0.845
-0.855
-0.84
-0.835
-0.845
-0.835
-0.83
-0.83
-0.82
-0.825
-0.82
-0.82
-0.83
-0.825
-0.825
-0.84
-0.825
-0.83
-0.835
-0.825
-0.815
-0.8
-0.795
-0.795
-0.79
-0.79
-0.805
-0.805
-0.81
-0.81
-0.8
-0.795
-0.795
-0.765
-0.775
-0.78
-0.78
-0.78
-0.78
-0.79
-0.8
-0.795
-0.795
-0.78
-0.775
-0.765
-0.765
-0.755
-0.75
-0.76
-0.775
-0.785
-0.765
-0.76
-0.76
-0.75
-0.745
-0.74
-0.74
-0.745
-0.745
-0.75
-0.75
-0.75
-0.755
-0.745
-0.735
-0.72
-0.71
-0.72
-0.705
-0.705
-0.71
-0.725
-0.72
-0.73
-0.73
-0.725
-0.72
-0.7
-0.705
-0.705
-0.7
-0.7
-0.69
-0.705
-0.73
-0.725
-0.73
-0.735
-0.735
-0.73
-0.735
-0.735
-0.73
-0.735
-0.75
-0.76
-0.775
-0.78
-0.79
-0.8
-0.805
-0.795
-0.8
-0.79
-0.815
-0.82
-0.825
-0.83
-0.845
-0.855
-0.855
-0.865
-0.86
-0.85
-0.85
-0.825
-0.835
-0.845
-0.86
-0.87
-0.88
-0.865
-0.885
-0.875
-0.87
-0.865
-0.87
-0.855
-0.87
-0.87
-0.885
-0.895
-0.89
-0.895
-0.91
-0.9
-0.915
-0.915
-0.905
-0.89
-0.89
-0.9
-0.905
-0.915
-0.915
-0.92
-0.935
-0.935
-0.935
-0.93
-0.92
-0.915
-0.915
-0.925
-0.925
-0.94
-0.945
-0.945
-0.95
-0.935
-0.935
-0.925
-0.925
-0.92
-0.92
-0.915
-0.925
-0.92
-0.925
-0.945
-0.95
-0.96
-0.96
-0.95
-0.93
-0.915
-0.905
-0.915
-0.91
-0.92
-0.915
-0.92
-0.93
-0.93
-0.925
-0.925
-0.92
-0.905
-0.9
-0.905
-0.9
-0.9
-0.91
-0.915
-0.92
-0.925
-0.915
-0.91
-0.905
-0.9
-0.89
-0.895
-0.895
-0.92
-0.91
-0.92
-0.91
-0.91
-0.915
-0.9
-0.9
-0.895
-0.88
-0.89
-0.9
-0.905
-0.905
-0.91
-0.92
-0.915
-0.91
-0.91
-0.91
-0.895
-0.885
-0.89
-0.895
-0.895
-0.905
-0.915
-0.915
-0.905
-0.9
-0.9
-0.9
-0.885
-0.885
-0.88
-0.885
-0.89
-0.895
-0.905
-0.905
-0.91
-0.915
-0.905
-0.89
-0.88
-0.895
-0.885
-0.885
-0.895
-0.885
-0.895
-0.91
-0.915
-0.91
-0.905
-0.89
-0.875
-0.87
-0.88
-0.885
-0.89
-0.9
-0.905
-0.925
-0.915
-0.92
-0.89
-0.895
-0.87
-0.88
-0.88
-0.875
-0.885
-0.875
-0.88
-0.875
-0.865
-0.855
-0.845
-0.83
-0.82
-0.805
-0.795
-0.79
-0.805
-0.81
-0.81
-0.805
-0.805
-0.785
-0.77
-0.765
-0.755
-0.765
-0.775
-0.77
-0.785
-0.805
-0.825
-0.835
-0.845
-0.845
-0.845
-0.84
-0.84
-0.855
-0.85
-0.865
-0.895
-0.91
-0.93
-0.93
-0.915
-0.91
-0.9
-0.9
-0.9
-0.89
-0.895
-0.9
-0.895
-0.905
-0.925
-0.925
-0.91
-0.91
-0.885
-0.87
-0.86
-0.84
-0.81
-0.765
-0.7
-0.63
-0.545
-0.455
-0.375
-0.3
-0.245
-0.205
-0.18
-0.145
-0.11
-0.095
-0.105
-0.15
-0.22
-0.315
-0.395
-0.48
-0.555
-0.62
-0.675
-0.73
-0.785
-0.82
-0.86
-0.88
-0.895
-0.91
-0.9
-0.885
-0.88
-0.865
-0.87
-0.87
-0.87
-0.87
-0.865
-0.87
-0.89
-0.885
-0.89
-0.885
-0.875
-0.87
-0.85
-0.85
-0.855
-0.85
-0.865
-0.855
-0.865
-0.88
-0.865
-0.865
-0.86
-0.845
-0.83
-0.83
-0.82
-0.82
-0.84
-0.84
-0.845
-0.845
-0.845
-0.84
-0.835
-0.82
-0.815
-0.81
-0.805
-0.81
-0.83
-0.825
-0.835
-0.83
-0.83
-0.835
-0.82
-0.81
-0.8
-0.805
-0.8
-0.805
-0.8
-0.83
-0.815
-0.82
-0.81
-0.805
-0.795
-0.775
-0.78
-0.76
-0.765
-0.76
-0.765
-0.77
-0.785
-0.79
-0.775
-0.765
-0.765
-0.76
-0.76
-0.76
-0.76
-0.745
-0.76
-0.75
-0.76
-0.76
-0.765
-0.76
-0.785
-0.79
-0.785
-0.78
-0.76
-0.77
-0.785
-0.795
-0.81
-0.815
-0.83
-0.835
-0.84
-0.85
-0.835
-0.85
-0.845
-0.865
-0.875
-0.89
-0.91
-0.905
-0.925
-0.92
-0.915
-0.91
-0.905
-0.91
-0.91
-0.915
-0.925
-0.935
-0.935
-0.945
-0.94
-0.94
-0.93
-0.925
-0.92
-0.915
-0.915
-0.935
-0.935
-0.96
-0.96
-0.96
-0.965
-0.95
-0.955
-0.95
-0.945
-0.94
-0.95
-0.96
-0.95
-0.955
-0.965
-0.97
-0.96
-0.965
-0.96
-0.955
-0.955
-0.955
-0.955
-0.96
-0.96
-0.97
-0.97
-0.98
-0.975
-0.99
-0.98
-0.97
-0.965
-0.98
-0.975
-0.97
-0.97
-0.97
-0.98
-0.99
-0.975
-0.98
-0.98
-0.975
-0.975
-0.965
-0.96
-0.965
-0.97
-0.975
-0.975
-0.98
-0.985
-0.99
-0.975
-0.965
-0.96
-0.96
-0.95
-0.96
-0.96
-0.97
-0.995
-0.99
-0.985
-0.975
-0.965
-0.965
-0.965
-0.97
-0.955
-0.965
-0.965
-0.975
-0.97
-0.985
-0.98
-0.975
-0.975
-0.96
-0.95
-0.945
-0.955
-0.96
-0.965
-0.965
-0.975
-0.975
-0.98
-0.98
-0.965
-0.96
-0.955
-0.95
-0.95
-0.955
-0.96
-0.97
-0.98
-0.97
-0.975
-0.97
-0.965
-0.965
-0.965
-0.955
-0.955
-0.96
-0.965
-0.975
-0.97
-0.975
-0.97
-0.965
-0.95
-0.95
-0.95
-0.95
-0.94
-0.955
-0.96
-0.97
-0.97
-0.975
-0.98
-0.97
-0.975
-0.96
-0.96
-0.95
-0.95
-0.95
-0.955
-0.97
-0.98
-0.985
-0.985
-0.985
-0.975
-0.965
-0.945
-0.94
-0.945
-0.95
-0.96
-0.955
-0.96
-0.975
-0.965
-0.955
-0.94
-0.935
-0.935
-0.92
-0.91
-0.905
-0.9
-0.905
-0.905
-0.91
-0.89
-0.88
-0.87
-0.865
-0.855
-0.83
-0.84
-0.83
-0.83
-0.83
-0.83
-0.84
-0.845
-0.855
-0.855
-0.85
-0.855
-0.865
-0.875
-0.885
-0.89
-0.89
-0.9
-0.93
-0.94
-0.94
-0.945
-0.95
-0.945
-0.945
-0.95
-0.945
-0.95
-0.96
-0.96
-0.965
-0.98
-0.965
-0.965
-0.96
-0.945
-0.93
-0.945
-0.945
-0.935
-0.945
-0.94
-0.94
-0.915
-0.895
-0.84
-0.77
-0.69
-0.6
-0.51
-0.41
-0.345
-0.3
-0.27
-0.25
-0.22
-0.18
-0.165
-0.175
-0.21
-0.27
-0.35
-0.435
-0.53
-0.61
-0.685
-0.755
-0.8
-0.84
-0.865
-0.895
-0.91
-0.92
-0.935
-0.95
-0.95
-0.955
-0.95
-0.965
-0.945
-0.94
-0.925
-0.915
-0.945
-0.92
-0.915
-0.925
-0.93
-0.92
-0.92
-0.925
-0.935
-0.92
-0.925
-0.905
-0.905
-0.89
-0.895
-0.89
-0.905
-0.915
-0.915
-0.905
-0.905
-0.9
-0.89
-0.885
-0.87
-0.87
-0.875
-0.875
-0.875
-0.875
-0.885
-0.89
-0.89
-0.88
-0.875
-0.865
-0.85
-0.85
-0.855
-0.845
-0.86
-0.845
-0.86
-0.86
-0.855
-0.855
-0.855
-0.845
-0.835
-0.825
-0.815
-0.82
-0.82
-0.825
-0.84
-0.835
-0.83
-0.82
-0.805
-0.81
-0.795
-0.79
-0.79
-0.785
-0.795
-0.8
-0.805
-0.815
-0.805
-0.8
-0.795
-0.78
-0.795
-0.76
-0.78
-0.77
-0.785
-0.79
-0.795
-0.81
-0.82
-0.81
-0.82
-0.825
-0.8
-0.81
-0.82
-0.81
-0.83
-0.835
-0.85
-0.87
-0.87
-0.875
-0.895
-0.88
-0.89
-0.885
-0.895
-0.895
-0.915
-0.915
-0.93
-0.94
-0.94
-0.94
-0.945
-0.945
-0.94
-0.92
-0.935
-0.93
-0.935
-0.95
-0.955
-0.96
-0.965
-0.955
-0.955
-0.955
-0.95
-0.93
-0.945
-0.94
-0.95
-0.955
-0.96
-0.97
-0.97
-0.97
-0.96
-0.965
-0.95
-0.955
-0.965
-0.955
-0.97
-0.97
-0.99
-0.985
-0.98
-0.975
-0.97
-0.97
-0.965
-0.965
-0.975
-0.97
-0.985
-0.98
-0.985
-0.99
-0.99
-0.995
-0.99
-0.99
-0.975
-0.965
-0.975
-0.975
-0.975
-0.995
-0.995
-0.99
-0.99
-0.995
-0.99
-0.975
-0.97
-0.96
-0.96
-0.97
-0.965
-0.97
-0.98
-0.98
-0.98
-0.985
-0.975
-0.955
-0.95
-0.94
-0.95
-0.95
-0.95
-0.965
-0.975
-0.975
-0.98
-0.97
-0.97
-0.955
-0.945
-0.95
-0.96
-0.945
-0.95
-0.94
-0.96
-0.96
-0.965
-0.97
-0.96
-0.945
-0.94
-0.935
-0.93
-0.93
-0.945
-0.945
-0.955
-0.95
-0.965
-0.96
-0.96
-0.95
-0.945
-0.955
-0.945
-0.945
-0.945
-0.945
-0.955
-0.95
-0.965
-0.95
-0.955
-0.95
-0.925
-0.92
-0.92
-0.925
-0.93
-0.93
-0.945
-0.945
-0.945
-0.93
-0.92
-0.92
-0.92
-0.91
-0.905
-0.915
-0.935
-0.92
-0.915
-0.925
-0.93
-0.925
-0.94
-0.92
-0.91
-0.905
-0.9
-0.905
-0.905
-0.91
-0.93
-0.93
-0.93
-0.92
-0.91
-0.9
-0.905
-0.895
-0.895
-0.895
-0.9
-0.91
-0.915
-0.905
-0.9
-0.885
-0.875
-0.865
-0.85
-0.835
-0.84
-0.835
-0.84
-0.84
-0.835
-0.83
-0.82
-0.825
-0.805
-0.805
-0.79
-0.76
-0.75
-0.755
-0.775
-0.79
-0.805
-0.815
-0.82
-0.835
-0.835
-0.845
-0.845
-0.835
-0.83
-0.85
-0.865
-0.865
-0.895
-0.915
-0.93
-0.935
-0.92
-0.905
-0.905
-0.895
-0.895
-0.895
-0.895
-0.9
-0.9
-0.915
-0.91
-0.91
-0.905
-0.89
-0.875
-0.87
-0.86
-0.865
-0.86
-0.85
-0.82
-0.785
-0.725
-0.635
-0.53
-0.425
-0.32
-0.23
-0.155
-0.1
-0.065
-0.035
-0.02
-0.02
-0.05
-0.1
-0.165
-0.24
-0.31
-0.38
-0.445
-0.525
-0.585
-0.645
-0.705
-0.76
-0.81
-0.85
-0.855
-0.875
-0.865
-0.865
-0.85
-0.84
-0.845
-0.855
-0.86
-0.86
-0.86
-0.845
-0.845
-0.83
-0.83
-0.825
-0.83
-0.82
-0.835
-0.835
-0.835
-0.84
-0.85
-0.835
-0.83
-0.825
-0.815
-0.8
-0.8
-0.805
-0.815
-0.815
-0.815
-0.81
-0.815
-0.81
-0.805
-0.805
-0.795
-0.78
-0.775
-0.78
-0.775
-0.785
-0.79
-0.795
-0.79
-0.805
-0.795
-0.785
-0.77
-0.76
-0.755
-0.755
-0.77
-0.77
-0.77
-0.77
-0.76
-0.775
-0.765
-0.75
-0.755
-0.735
-0.725
-0.735
-0.725
-0.74
-0.745
-0.745
-0.75
-0.745
-0.735
-0.725
-0.705
-0.705
-0.7
-0.705
-0.71
-0.72
-0.72
-0.73
-0.73
-0.72
-0.73
-0.71
-0.715
-0.7
-0.705
-0.705
-0.72
-0.72
-0.72
-0.73
-0.735
-0.75
-0.735
-0.74
-0.74
-0.745
-0.755
-0.775
-0.785
-0.79
-0.795
-0.795
-0.795
-0.81
-0.81
-0.825
-0.82
-0.84
-0.845
-0.825
-0.84
-0.845
-0.855
-0.86
-0.87
-0.865
-0.875
-0.875
-0.865
-0.86
-0.86
-0.865
-0.865
-0.87
-0.88
-0.88
-0.88
-0.865
-0.865
-0.85
-0.845
-0.84
-0.86
-0.875
-0.875
-0.89
-0.885
-0.895
-0.9
-0.9
-0.885
-0.865
-0.865
-0.86
-0.87
-0.86
-0.875
-0.88
-0.89
-0.885
-0.9
-0.89
-0.88
-0.87
-0.865
-0.875
-0.87
-0.875
-0.875
-0.88
-0.88
-0.885
-0.895
-0.895
-0.895
-0.865
-0.865
-0.86
-0.875
-0.865
-0.885
-0.885
-0.88
-0.88
-0.89
-0.89
-0.875
-0.87
-0.865
-0.85
-0.89
-0.875
-0.89
-0.895
-0.885
-0.885
-0.885
-0.885
-0.875
-0.87
-0.865
-0.865
-0.855
-0.855
-0.865
-0.87
-0.87
-0.885
-0.88
-0.87
-0.865
-0.86
-0.85
-0.845
-0.845
-0.845
-0.85
-0.86
-0.865
-0.875
-0.885
-0.88
-0.865
-0.855
-0.845
-0.845
-0.83
-0.825
-0.84
-0.86
-0.88
-0.875
-0.88
-0.875
-0.86
-0.855
-0.85
-0.84
-0.835
-0.835
-0.85
-0.86
-0.87
-0.86
-0.85
-0.845
-0.835
-0.835
-0.84
-0.84
-0.845
-0.83
-0.855
-0.85
-0.86
-0.86
-0.85
-0.84
-0.845
-0.84
-0.83
-0.825
-0.825
-0.83
-0.845
-0.845
-0.845
-0.84
-0.84
-0.84
-0.85
-0.835
-0.84
-0.82
-0.815
-0.815
-0.825
-0.825
-0.835
-0.84
-0.84
-0.84
-0.83
-0.835
-0.815
-0.8
-0.805
-0.82
-0.81
-0.81
-0.82
-0.82
-0.81
-0.795
-0.77
-0.75
-0.74
-0.735
-0.73
-0.74
-0.74
-0.73
-0.735
-0.725
-0.735
-0.735
-0.72
-0.72
-0.71
-0.7
-0.695
-0.695
-0.695
-0.71
-0.715
-0.735
-0.745
-0.75
-0.755
-0.755
-0.75
-0.745
-0.745
-0.755
-0.77
-0.795
-0.815
-0.835
-0.84
-0.835
-0.835
-0.82
-0.815
-0.8
-0.795
-0.805
-0.8
-0.815
-0.825
-0.82
-0.825
-0.825
-0.8
-0.8
-0.795
-0.79
-0.775
-0.755
-0.715
-0.655
-0.565
-0.46
-0.335
-0.22
-0.11
-0.025
0.04
0.085
0.11
0.12
0.11
0.06
0.01
-0.065
-0.12
-0.165
-0.22
-0.265
-0.345
-0.4
-0.485
-0.555
-0.645
-0.705
-0.75
-0.785
-0.805
-0.805
-0.805
-0.805
-0.775
-0.775
-0.775
-0.77
-0.775
-0.78
-0.78
-0.785
-0.795
-0.785
-0.775
-0.765
-0.76
-0.75
-0.755
-0.755
-0.76
-0.77
-0.775
-0.765
-0.765
-0.765
-0.765
-0.765
-0.765
-0.755
-0.745
-0.745
-0.745
-0.76
-0.755
-0.755
-0.76
-0.745
-0.735
-0.735
-0.725
-0.71
-0.71
-0.725
-0.725
-0.73
-0.735
-0.73
-0.74
-0.735
-0.71
-0.71
-0.695
-0.685
-0.685
-0.68
-0.695
-0.685
-0.7
-0.69
-0.7
-0.71
-0.715
-0.705
-0.685
-0.675
-0.665
-0.665
-0.68
-0.68
-0.675
-0.67
-0.68
-0.66
-0.66
-0.655
-0.645
-0.64
-0.64
-0.645
-0.65
-0.655
-0.655
-0.67
-0.675
-0.675
-0.665
-0.675
-0.68
-0.675
-0.68
-0.7
-0.71
-0.72
-0.73
-0.74
-0.755
-0.75
-0.755
-0.765
-0.76
-0.76
-0.785
-0.785
-0.81
-0.82
-0.83
-0.85
-0.85
-0.865
-0.86
-0.875
-0.88
-0.875
-0.88
-0.895
-0.895
-0.9
-0.91
-0.925
-0.94
-0.945
-0.945
-0.945
-0.935
-0.93
-0.935
-0.945
-0.945
-0.97
-0.97
-0.99
-0.995
-0.995
-0.995
-0.995
-1.0
-0.995
-1.015
-1.03
-1.06
-1.08
-1.095
-1.105
-1.115
-1.115
-1.115
-1.115
-1.12
-1.135
-1.155
-1.17
-1.18
-1.195
-1.205
-1.215
-1.23
-1.23
-1.24
-1.235
-1.235
-1.23
-1.245
-1.265
-1.28
-1.28
-1.29
-1.29
-1.3
-1.315
-1.31
-1.3
-1.29
-1.29
-1.29
-1.285
-1.3
-1.305
-1.31
-1.31
-1.32
-1.305
-1.3
-1.31
-1.295
-1.285
-1.295
-1.315
-1.315
-1.315
-1.32
-1.32
-1.325
-1.315
-1.315
-1.325
-1.315
-1.29
-1.295
-1.295
-1.315
-1.31
-1.305
-1.305
-1.31
-1.295
-1.295
-1.295
-1.285
-1.28
-1.27
-1.28
-1.28
-1.29
-1.28
-1.285
-1.27
-1.26
-1.245
-1.245
-1.24
-1.225
-1.225
-1.23
-1.22
-1.21
-1.22
-1.215
-1.22
-1.2
-1.185
-1.16
-1.15
-1.13
-1.125
-1.125
-1.13
-1.125
-1.13
-1.11
-1.095
-1.095
-1.07
-1.065
-1.06
-1.05
-1.06
-1.06
-1.055
-1.05
-1.05
-1.05
-1.055
-1.045
-1.03
-1.035
-1.035
-1.03
-1.03
-1.02
-1.01
-1.015
-1.005
-1.005
-0.995
-0.995
-0.985
-0.975
-0.965
-0.945
-0.925
-0.925
-0.91
-0.895
-0.895
-0.895
-0.91
-0.905
-0.905
-0.895
-0.875
-0.85
-0.84
-0.84
-0.845
-0.875
-0.865
-0.875
-0.885
-0.885
-0.88
-0.875
-0.865
-0.845
-0.84
-0.83
-0.84
-0.865
-0.885
-0.91
-0.925
-0.92
-0.92
-0.93
-0.915
-0.905
-0.91
-0.89
-0.89
-0.9
-0.91
-0.93
-0.95
-0.935
-0.91
-0.89
-0.87
-0.88
-0.88
-0.885
-0.88
-0.865
-0.845
-0.795
-0.73
-0.64
-0.535
-0.42
-0.28
-0.14
-0.015
0.065
0.085
0.075
0.07
0.07
0.07
0.07
0.085
0.07
0.035
-0.05
-0.185
-0.36
-0.525
-0.685
-0.765
-0.82
-0.85
-0.85
-0.825
-0.815
-0.81
-0.81
-0.815
-0.81
-0.825
-0.825
-0.835
-0.83
-0.83
-0.83
-0.835
-0.835
-0.815
-0.805
-0.785
-0.78
-0.785
-0.79
-0.795
-0.795
-0.785
-0.775
-0.775
-0.765
-0.75
-0.75
-0.755
-0.77
-0.79
-0.8
-0.8
-0.785
-0.77
-0.745
-0.76
-0.75
-0.76
-0.755
-0.76
-0.77
-0.755
-0.745
-0.745
-0.74
-0.73
-0.75
-0.755
-0.755
-0.74
-0.735
-0.725
-0.71
-0.695
-0.69
-0.695
-0.72
-0.745
-0.755
-0.755
-0.745
-0.73
-0.695
-0.68
-0.675
-0.66
-0.65
-0.655
-0.67
-0.695
-0.705
-0.71
-0.71
-0.68
-0.665
-0.66
-0.65
-0.635
-0.65
-0.65
-0.67
-0.67
-0.675
-0.67
-0.675
-0.675
-0.65
-0.665
-0.67
-0.685
-0.705
-0.715
-0.725
-0.73
-0.73
-0.72
-0.72
-0.745
-0.74
-0.75
-0.75
-0.75
-0.765
-0.775
-0.795
-0.81
-0.805
-0.8
-0.8
-0.815
-0.82
-0.825
-0.825
-0.82
-0.805
-0.805
-0.8
-0.82
-0.82
-0.81
-0.8
-0.78
-0.775
-0.775
-0.785
-0.8
-0.825
-0.83
-0.825
-0.8
-0.805
-0.79
-0.78
-0.785
-0.78
-0.785
-0.795
-0.795
-0.8
-0.8
-0.81
-0.81
-0.805
-0.805
-0.79
-0.795
-0.79
-0.8
-0.81
-0.815
-0.82
-0.82
-0.825
-0.82
-0.815
-0.83
-0.83
-0.83
-0.825
-0.83
-0.815
-0.805
-0.805
-0.815
-0.83
-0.84
-0.86
-0.845
-0.84
-0.825
-0.82
-0.825
-0.845
-0.85
-0.84
-0.835
-0.84
-0.835
-0.845
-0.845
-0.845
-0.84
-0.845
-0.835
-0.845
-0.85
-0.86
-0.87
-0.85
-0.845
-0.84
-0.835
-0.84
-0.83
-0.825
-0.815
-0.825
-0.835
-0.845
-0.85
-0.85
-0.855
-0.86
-0.84
-0.835
-0.825
-0.815
-0.82
-0.825
-0.825
-0.83
-0.835
-0.85
-0.85
-0.845
-0.84
-0.83
-0.805
-0.79
-0.79
-0.805
-0.82
-0.83
-0.83
-0.835
-0.835
-0.815
-0.82
-0.81
-0.8
-0.79
-0.8
-0.815
-0.82
-0.82
-0.83
-0.83
-0.83
-0.81
-0.795
-0.775
-0.78
-0.765
-0.78
-0.8
-0.805
-0.795
-0.815
-0.815
-0.82
-0.825
-0.825
-0.825
-0.805
-0.805
-0.795
-0.795
-0.81
-0.81
-0.81
-0.81
-0.825
-0.82
-0.8
-0.785
-0.785
-0.785
-0.815
-0.805
-0.805
-0.805
-0.82
-0.79
-0.815
-0.825
-0.81
-0.805
-0.8
-0.785
-0.77
-0.765
-0.77
-0.78
-0.805
-0.82
-0.81
-0.775
-0.765
-0.73
-0.71
-0.7
-0.695
-0.7
-0.71
-0.72
-0.705
-0.705
-0.69
-0.685
-0.67
-0.675
-0.685
-0.69
-0.69
-0.69
-0.7
-0.705
-0.725
-0.745
-0.74
-0.73
-0.715
-0.725
-0.71
-0.72
-0.745
-0.78
-0.8
-0.83
-0.84
-0.835
-0.83
