Lead II
-0.355
-0.345
-0.335
-0.325
-0.325
-0.315
-0.32
-0.325
-0.33
-0.335
-0.33
-0.335
-0.315
-0.32
-0.32
-0.31
-0.29
-0.29
-0.285
-0.28
-0.265
-0.27
-0.25
-0.26
-0.255
-0.23
-0.22
-0.21
-0.195
-0.17
-0.155
-0.14
-0.14
-0.13
-0.135
-0.135
-0.125
-0.13
-0.12
-0.105
-0.09
-0.105
-0.1
-0.105
-0.125
-0.135
-0.145
-0.155
-0.165
-0.165
-0.17
-0.165
-0.17
-0.185
-0.215
-0.22
-0.22
-0.225
-0.23
-0.235
-0.235
-0.24
-0.255
-0.25
-0.235
-0.215
-0.19
-0.19
-0.175
-0.19
-0.225
-0.245
-0.29
-0.315
-0.32
-0.325
-0.295
-0.265
-0.235
-0.22
-0.245
-0.265
-0.285
-0.3
-0.305
-0.295
-0.28
-0.27
-0.255
-0.255
-0.245
-0.24
-0.23
-0.225
-0.235
-0.245
-0.24
-0.255
-0.26
-0.25
-0.25
-0.24
-0.225
-0.215
-0.195
-0.195
-0.2
-0.215
-0.23
-0.255
-0.27
-0.27
-0.275
-0.27
-0.245
-0.23
-0.215
-0.23
-0.245
-0.25
-0.27
-0.27
-0.295
-0.29
-0.265
-0.26
-0.265
-0.285
-0.295
-0.31
-0.31
-0.305
-0.305
-0.295
-0.29
-0.285
-0.29
-0.295
-0.285
-0.28
-0.265
-0.265
-0.245
-0.225
-0.23
-0.23
-0.23
-0.23
-0.215
-0.205
-0.175
-0.145
-0.12
-0.11
-0.12
-0.13
-0.165
-0.185
-0.205
-0.2
-0.185
-0.17
-0.16
-0.165
-0.185
-0.22
-0.255
-0.285
-0.285
-0.27
-0.265
-0.245
-0.23
-0.225
-0.24
-0.25
-0.27
-0.29
-0.31
-0.315
-0.305
-0.305
-0.29
-0.265
-0.265
-0.255
-0.25
-0.23
-0.215
-0.2
-0.185
-0.175
-0.16
-0.14
-0.105
-0.065
-0.025
0.03
0.105
0.155
0.195
0.21
0.205
0.195
0.19
0.21
0.25
0.32
0.4
0.505
0.635
0.82
1.04
1.3
1.58
1.855
2.065
2.165
2.135
1.945
1.6
1.11
0.54
-0.06
-0.585
-0.95
-1.085
-1.025
-0.86
-0.64
-0.425
-0.265
-0.19
-0.145
-0.18
-0.225
-0.265
-0.31
-0.37
-0.395
-0.38
-0.35
-0.325
-0.295
-0.265
-0.245
-0.225
-0.235
-0.24
-0.275
-0.29
-0.31
-0.32
-0.325
-0.31
-0.3
-0.265
-0.235
-0.22
-0.21
-0.205
-0.21
-0.23
-0.245
-0.25
-0.275
-0.3
-0.285
-0.275
-0.24
-0.245
-0.23
-0.23
-0.24
-0.235
-0.24
-0.24
-0.22
-0.185
-0.165
-0.135
-0.12
-0.095
-0.105
-0.12
-0.16
-0.2
-0.225
-0.25
-0.265
-0.245
-0.215
-0.145
-0.075
-0.03
-0.035
-0.075
-0.12
-0.15
-0.155
-0.155
-0.135
-0.12
-0.06
-0.015
-0.005
-0.005
-0.035
-0.045
-0.06
-0.055
-0.04
-0.015
0.035
0.07
0.115
0.1
0.015
-0.08
-0.185
-0.24
-0.22
-0.19
-0.155
-0.155
-0.16
-0.18
-0.21
-0.23
-0.215
-0.19
-0.16
-0.125
-0.13
-0.165
-0.2
-0.23
-0.235
-0.25
-0.225
-0.21
-0.185
-0.17
-0.16
-0.15
-0.17
-0.165
-0.15
-0.145
-0.155
-0.14
-0.14
-0.15
-0.16
-0.15
-0.145
-0.14
-0.13
-0.14
-0.135
-0.14
-0.135
-0.155
-0.155
-0.155
-0.15
-0.16
-0.165
-0.14
-0.135
-0.13
-0.125
-0.14
-0.13
-0.13
-0.135
-0.125
-0.125
-0.13
-0.135
-0.155
-0.155
-0.155
-0.145
-0.14
-0.14
-0.135
-0.125
-0.135
-0.14
-0.14
-0.15
-0.175
-0.185
-0.185
-0.19
-0.2
-0.19
-0.18
-0.185
-0.17
-0.165
-0.17
-0.17
-0.18
-0.2
-0.22
-0.225
-0.22
-0.22
-0.22
-0.205
-0.205
-0.205
-0.195
-0.2
-0.2
-0.175
-0.16
-0.155
-0.155
-0.16
-0.165
-0.18
-0.175
-0.16
-0.145
-0.12
-0.11
-0.09
-0.075
-0.06
-0.05
-0.065
-0.1
-0.125
-0.15
-0.165
-0.18
-0.17
-0.155
-0.14
-0.125
-0.14
-0.16
-0.185
-0.2
-0.2
-0.2
-0.21
-0.23
-0.25
-0.27
-0.275
-0.275
-0.27
-0.26
-0.25
-0.24
-0.235
-0.235
-0.24
-0.245
-0.235
-0.2
-0.135
-0.09
-0.065
-0.07
-0.09
-0.14
-0.175
-0.17
-0.155
-0.12
-0.05
-0.02
0.025
0.065
0.095
0.145
0.23
0.285
0.35
0.41
0.455
0.5
0.58
0.7
0.88
1.13
1.425
1.73
1.98
2.11
2.09
1.91
1.595
1.185
0.69
0.13
-0.41
-0.84
-1.065
-1.075
-0.955
-0.77
-0.545
-0.355
-0.205
-0.135
-0.11
-0.11
-0.125
-0.16
-0.19
-0.23
-0.255
-0.28
-0.28
-0.275
-0.265
-0.245
-0.24
-0.255
-0.285
-0.32
-0.335
-0.325
-0.28
-0.245
-0.215
-0.185
-0.175
-0.195
-0.24
-0.27
-0.305
-0.295
-0.27
-0.25
-0.25
-0.275
-0.275
-0.255
-0.23
-0.205
-0.2
-0.225
-0.205
-0.175
-0.13
-0.12
-0.11
-0.155
-0.235
-0.31
-0.41
-0.45
-0.42
-0.385
-0.31
-0.245
-0.19
-0.16
-0.135
-0.11
-0.1
-0.1
-0.115
-0.125
-0.125
-0.115
-0.095
-0.07
-0.045
-0.025
-0.02
-0.035
-0.055
-0.075
-0.095
-0.095
-0.09
-0.07
-0.035
-0.02
-0.025
-0.045
-0.07
-0.1
-0.115
-0.135
-0.125
-0.12
-0.11
-0.12
-0.13
-0.14
-0.155
-0.16
-0.175
-0.175
-0.195
-0.19
-0.185
-0.165
-0.14
-0.11
-0.11
-0.115
-0.155
-0.21
-0.245
-0.215
-0.19
-0.15
-0.12
-0.135
-0.175
-0.215
-0.255
-0.27
-0.255
-0.235
-0.215
-0.205
-0.185
-0.18
-0.17
-0.19
-0.17
-0.175
-0.175
-0.175
-0.175
-0.18
-0.175
-0.185
-0.18
-0.175
-0.155
-0.145
-0.105
-0.08
-0.05
-0.045
-0.055
-0.065
-0.095
-0.08
-0.09
-0.12
-0.17
-0.23
-0.275
-0.3
-0.29
-0.29
-0.245
-0.225
-0.21
-0.21
-0.21
-0.215
-0.215
-0.225
-0.24
-0.225
-0.22
-0.22
-0.215
-0.215
-0.215
-0.225
-0.235
-0.235
-0.235
-0.23
-0.21
-0.205
-0.195
-0.205
-0.21
-0.215
-0.215
-0.225
-0.23
-0.21
-0.21
-0.21
-0.205
-0.205
-0.195
-0.19
-0.19
-0.195
-0.19
-0.175
-0.16
-0.135
-0.12
-0.105
-0.105
-0.1
-0.115
-0.105
-0.105
-0.09
-0.08
-0.085
-0.085
-0.105
-0.13
-0.14
-0.15
-0.165
-0.17
-0.16
-0.155
-0.16
-0.16
-0.185
-0.2
-0.225
-0.245
-0.25
-0.25
-0.25
-0.27
-0.265
-0.265
-0.26
-0.25
-0.24
-0.225
-0.215
-0.2
-0.175
-0.15
-0.145
-0.13
-0.125
-0.125
-0.11
-0.11
-0.085
-0.065
-0.05
-0.015
0.01
0.045
0.08
0.12
0.18
0.235
0.26
0.295
0.325
0.345
0.405
0.5
0.635
0.81
1.005
1.22
1.43
1.61
1.73
1.77
1.7
1.545
1.255
0.88
0.445
-0.025
-0.465
-0.8
-0.96
-0.97
-0.87
-0.695
-0.525
-0.385
-0.275
-0.22
-0.2
-0.2
-0.21
-0.22
-0.215
-0.23
-0.24
-0.25
-0.285
-0.3
-0.315
-0.325
-0.33
-0.315
-0.31
-0.305
-0.305
-0.29
-0.275
-0.28
-0.285
-0.29
-0.3
-0.3
-0.28
-0.27
-0.25
-0.245
-0.24
-0.25
-0.26
-0.28
-0.295
-0.3
-0.305
-0.29
-0.265
-0.24
-0.22
-0.2
-0.19
-0.205
-0.23
-0.28
-0.305
-0.3
-0.29
-0.27
-0.24
-0.205
-0.205
-0.215
-0.245
-0.245
-0.245
-0.235
-0.215
-0.175
-0.145
-0.125
-0.115
-0.115
-0.135
-0.155
-0.165
-0.155
-0.15
-0.12
-0.13
-0.13
-0.12
-0.12
-0.11
-0.09
-0.11
-0.115
-0.125
-0.125
-0.115
-0.105
-0.1
-0.085
-0.075
-0.065
-0.085
-0.105
-0.12
-0.145
-0.16
-0.17
-0.175
-0.17
-0.17
-0.17
-0.17
-0.16
-0.165
-0.165
-0.175
-0.17
-0.185
-0.2
-0.215
-0.225
-0.245
-0.26
-0.27
-0.27
-0.265
-0.255
-0.25
-0.235
-0.21
-0.19
-0.19
-0.19
-0.22
-0.22
-0.215
-0.205
-0.18
-0.145
-0.145
-0.13
-0.14
-0.155
-0.165
-0.155
-0.16
-0.16
-0.17
-0.19
-0.21
-0.225
-0.205
-0.2
-0.195
-0.2
-0.19
-0.175
-0.17
-0.155
-0.14
-0.135
-0.125
-0.14
-0.155
-0.165
-0.19
-0.195
-0.2
-0.205
-0.2
-0.205
-0.195
-0.19
-0.185
-0.185
-0.195
-0.195
-0.215
-0.225
-0.23
-0.235
-0.26
-0.245
-0.235
-0.225
-0.21
-0.18
-0.155
-0.13
-0.105
-0.085
-0.115
-0.175
-0.235
-0.295
-0.315
-0.315
-0.31
-0.29
-0.265
-0.24
-0.24
-0.24
-0.24
-0.215
-0.205
-0.2
-0.19
-0.2
-0.21
-0.24
-0.265
-0.27
-0.265
-0.25
-0.225
-0.2
-0.14
-0.11
-0.1
-0.09
-0.11
-0.13
-0.165
-0.18
-0.175
-0.175
-0.165
-0.165
-0.155
-0.14
-0.135
-0.13
-0.12
-0.11
-0.115
-0.115
-0.12
-0.135
-0.145
-0.165
-0.185
-0.19
-0.185
-0.165
-0.165
-0.16
-0.155
-0.17
-0.185
-0.22
-0.24
-0.245
-0.25
-0.245
-0.225
-0.21
-0.2
-0.19
-0.205
-0.2
-0.185
-0.16
-0.1
-0.045
-0.015
-0.025
-0.035
-0.07
-0.085
-0.065
-0.04
0.01
0.065
0.11
0.15
0.175
0.205
0.24
0.28
0.35
0.435
0.53
0.65
0.785
0.965
1.15
1.345
1.58
1.78
1.94
2.025
2.005
1.865
1.585
1.205
0.745
0.2
-0.32
-0.77
-1.03
-1.065
-0.96
-0.74
-0.495
-0.285
-0.15
-0.095
-0.14
-0.215
-0.285
-0.33
-0.34
-0.33
-0.31
-0.285
-0.25
-0.245
-0.235
-0.23
-0.235
-0.235
-0.245
-0.245
-0.255
-0.265
-0.255
-0.25
-0.23
-0.22
-0.205
-0.195
-0.19
-0.195
-0.2
-0.21
-0.21
-0.205
-0.195
-0.155
-0.105
-0.06
-0.04
-0.07
-0.13
-0.21
-0.265
-0.3
-0.305
-0.31
-0.285
-0.26
-0.245
-0.23
-0.22
-0.225
-0.22
-0.21
-0.205
-0.215
-0.225
-0.23
-0.235
-0.22
-0.2
-0.17
-0.16
-0.17
-0.195
-0.23
-0.235
-0.24
-0.225
-0.19
-0.16
-0.13
-0.115
-0.1
-0.08
-0.045
-0.025
-0.015
-0.01
-0.01
-0.03
-0.02
-0.02
-0.015
0.005
0.005
0.02
0.0
0.0
-0.035
-0.055
-0.085
-0.1
-0.115
-0.12
-0.115
-0.115
-0.1
-0.1
-0.11
-0.12
-0.11
-0.125
-0.16
-0.195
-0.2
-0.205
-0.185
-0.15
-0.125
-0.11
-0.105
-0.105
-0.125
-0.14
-0.155
-0.17
-0.165
-0.155
-0.135
-0.12
-0.105
-0.105
-0.1
-0.11
-0.12
-0.13
-0.135
-0.125
-0.12
-0.11
-0.125
-0.11
-0.115
-0.115
-0.125
-0.12
-0.095
-0.085
-0.09
-0.1
-0.11
-0.135
-0.14
-0.135
-0.135
-0.12
-0.105
-0.1
-0.095
-0.095
-0.09
-0.085
-0.095
-0.1
-0.11
-0.11
-0.105
-0.105
-0.1
-0.105
-0.1
-0.095
-0.11
-0.125
-0.13
-0.14
-0.145
-0.15
-0.135
-0.13
-0.135
-0.125
-0.125
-0.15
-0.155
-0.165
-0.175
-0.19
-0.175
-0.185
-0.175
-0.17
-0.16
-0.145
-0.16
-0.145
-0.155
-0.155
-0.15
-0.15
-0.135
-0.13
-0.125
-0.12
-0.11
-0.115
-0.12
-0.115
-0.11
-0.11
-0.1
-0.1
-0.09
-0.08
-0.065
-0.05
-0.055
-0.055
-0.06
-0.08
-0.08
-0.085
-0.075
-0.07
-0.06
-0.045
-0.04
-0.04
-0.04
-0.045
-0.055
-0.06
-0.105
-0.15
-0.18
-0.2
-0.22
-0.225
-0.24
-0.235
-0.23
-0.225
-0.21
-0.215
-0.225
-0.235
-0.245
-0.255
-0.24
-0.23
-0.21
-0.185
-0.165
-0.145
-0.135
-0.125
-0.125
-0.11
-0.1
-0.08
-0.065
-0.035
-0.015
0.01
0.05
0.075
0.105
0.135
0.18
0.23
0.285
0.335
0.37
0.41
0.475
0.59
0.72
0.895
1.11
1.36
1.605
1.835
2.05
2.15
2.145
2.01
1.7
1.29
0.77
0.2
-0.36
-0.81
-1.06
-1.095
-0.98
-0.77
-0.53
-0.34
-0.21
-0.13
-0.115
-0.125
-0.155
-0.205
-0.21
-0.235
-0.225
-0.215
-0.185
-0.165
-0.145
-0.13
-0.135
-0.16
-0.18
-0.21
-0.22
-0.22
-0.2
-0.175
-0.125
-0.12
-0.145
-0.17
-0.19
-0.21
-0.205
-0.22
-0.21
-0.23
-0.24
-0.265
-0.275
-0.285
-0.275
-0.275
-0.28
-0.265
-0.255
-0.255
-0.24
-0.23
-0.245
-0.225
-0.21
-0.195
-0.185
-0.165
-0.145
-0.125
-0.115
-0.11
-0.11
-0.145
-0.145
-0.16
-0.165
-0.15
-0.135
-0.12
-0.09
-0.085
-0.075
-0.09
-0.085
-0.105
-0.09
-0.08
-0.075
-0.055
-0.045
-0.025
-0.015
-0.005
0.005
0.025
0.035
0.055
0.06
0.035
0.04
0.045
0.08
0.11
0.12
0.115
0.07
0.015
-0.025
-0.065
-0.095
-0.09
-0.075
-0.055
-0.055
-0.045
-0.055
-0.06
-0.065
-0.08
-0.075
-0.07
-0.075
-0.095
-0.105
-0.1
-0.075
-0.02
0.015
0.035
0.01
-0.02
-0.065
-0.11
-0.125
-0.125
-0.1
-0.095
-0.11
-0.11
-0.145
-0.145
-0.14
-0.13
-0.1
-0.095
-0.08
-0.06
-0.04
-0.005
0.0
-0.02
-0.065
-0.125
-0.15
-0.155
-0.135
-0.115
-0.1
-0.095
-0.12
-0.12
-0.12
-0.105
-0.075
-0.06
-0.04
-0.025
-0.01
0.005
0.04
0.04
0.035
0.05
0.05
0.045
0.005
-0.025
-0.075
-0.105
-0.11
-0.11
-0.07
-0.04
-0.045
-0.095
-0.145
-0.185
-0.19
-0.18
-0.16
-0.16
-0.17
-0.185
-0.2
-0.18
-0.165
-0.105
-0.065
-0.015
-0.005
-0.02
-0.055
-0.105
-0.125
-0.115
-0.075
-0.035
0.015
0.01
-0.015
-0.055
-0.095
-0.105
-0.08
-0.05
-0.025
0.0
0.025
0.045
0.06
0.05
0.03
0.025
0.01
-0.02
-0.035
-0.035
-0.05
-0.075
-0.1
-0.135
-0.155
-0.145
-0.13
-0.1
-0.075
-0.09
-0.095
-0.12
-0.135
-0.15
-0.16
-0.16
-0.155
-0.16
-0.155
-0.155
-0.14
-0.115
-0.08
-0.035
-0.005
-0.035
-0.075
-0.12
-0.14
-0.105
-0.07
-0.03
0.0
0.015
0.03
0.04
0.055
0.085
0.115
0.15
0.205
0.235
0.295
0.345
0.385
0.415
0.445
0.51
0.595
0.71
0.86
1.05
1.29
1.53
1.77
1.99
2.13
2.17
2.13
1.935
1.605
1.17
0.645
0.08
-0.465
-0.89
-1.1
-1.095
-0.95
-0.71
-0.485
-0.3
-0.185
-0.125
-0.12
-0.13
-0.18
-0.225
-0.24
-0.235
-0.225
-0.22
-0.2
-0.205
-0.185
-0.185
-0.185
-0.19
-0.2
-0.205
-0.2
-0.205
-0.19
-0.185
-0.19
-0.205
-0.21
-0.215
-0.225
-0.225
-0.22
-0.21
-0.21
-0.21
-0.22
-0.22
-0.225
-0.23
-0.23
-0.24
-0.24
-0.25
-0.25
-0.235
-0.215
-0.19
-0.155
-0.135
-0.125
-0.145
-0.19
-0.255
-0.31
-0.34
-0.34
-0.31
-0.26
-0.225
-0.2
-0.19
-0.205
-0.225
-0.24
-0.245
-0.24
-0.23
-0.2
-0.185
-0.16
-0.135
-0.125
-0.115
-0.11
-0.105
-0.1
-0.105
-0.1
-0.1
-0.09
-0.065
-0.045
-0.05
-0.055
-0.045
-0.05
-0.055
-0.055
-0.06
-0.085
-0.14
-0.195
-0.235
-0.275
-0.28
-0.265
-0.25
-0.235
-0.22
-0.225
-0.255
-0.295
-0.32
-0.355
-0.38
-0.4
-0.385
-0.35
-0.3
-0.27
-0.26
-0.265
-0.265
-0.28
-0.285
-0.285
-0.29
-0.28
-0.265
-0.27
-0.28
-0.285
-0.285
-0.285
-0.29
-0.28
-0.29
-0.285
-0.275
-0.265
-0.26
-0.245
-0.225
-0.23
-0.23
-0.24
-0.255
-0.275
-0.28
-0.28
-0.27
-0.27
-0.245
-0.225
-0.225
-0.235
-0.25
-0.265
-0.28
-0.285
-0.305
-0.285
-0.28
-0.27
-0.27
-0.27
-0.265
-0.265
-0.275
-0.28
-0.285
-0.29
-0.29
-0.28
-0.3
-0.29
-0.295
-0.3
-0.305
-0.295
-0.305
-0.305
-0.3
-0.29
-0.28
-0.26
-0.24
-0.25
-0.26
-0.285
-0.32
-0.34
-0.335
-0.32
-0.3
-0.28
-0.265
-0.235
-0.205
-0.2
-0.205
-0.195
-0.2
-0.205
-0.2
-0.2
-0.185
-0.17
-0.16
-0.16
-0.165
-0.17
-0.165
-0.165
-0.16
-0.17
-0.16
-0.165
-0.18
-0.185
-0.195
-0.2
-0.205
-0.205
-0.205
-0.2
-0.205
-0.215
-0.235
-0.25
-0.26
-0.275
-0.275
-0.265
-0.24
-0.235
-0.205
-0.2
-0.2
-0.195
-0.205
-0.215
-0.215
-0.205
-0.2
-0.18
-0.16
-0.12
-0.065
-0.015
0.025
0.04
0.04
0.015
0.015
0.03
0.075
0.145
0.23
0.305
0.37
0.415
0.47
0.55
0.665
0.825
1.015
1.235
1.45
1.67
1.86
2.005
2.05
1.97
1.735
1.365
0.87
0.32
-0.26
-0.74
-1.045
-1.13
-1.055
-0.88
-0.67
-0.475
-0.335
-0.255
-0.24
-0.26
-0.3
-0.34
-0.36
-0.365
-0.35
-0.32
-0.295
-0.285
-0.27
-0.28
-0.295
-0.295
-0.295
-0.295
-0.29
-0.28
-0.255
-0.24
-0.225
-0.21
-0.235
-0.25
-0.29
-0.32
-0.345
-0.335
-0.325
-0.325
-0.315
-0.33
-0.35
-0.37
-0.38
-0.365
-0.35
-0.33
-0.31
-0.325
-0.32
-0.31
-0.295
-0.29
-0.28
-0.27
-0.275
-0.275
-0.285
-0.29
-0.3
-0.29
-0.275
-0.265
-0.25
-0.235
-0.22
-0.21
-0.2
-0.205
-0.21
-0.21
-0.21
-0.21
-0.215
-0.21
-0.185
-0.165
-0.165
-0.15
-0.125
-0.115
-0.11
-0.12
-0.115
-0.11
-0.115
-0.105
-0.105
-0.1
-0.085
-0.095
-0.1
-0.11
-0.13
-0.135
-0.16
-0.17
-0.18
-0.18
-0.18
-0.18
-0.165
-0.15
-0.15
-0.14
-0.145
-0.145
-0.14
-0.145
-0.16
-0.165
-0.16
-0.155
-0.155
-0.145
-0.14
-0.145
-0.145
-0.14
-0.135
-0.125
-0.13
-0.12
-0.1
-0.08
-0.07
-0.065
-0.045
-0.045
-0.025
-0.025
-0.03
-0.03
-0.03
-0.01
0.01
0.04
0.06
0.09
0.105
0.125
0.115
0.1
0.115
0.12
0.13
0.135
0.14
0.15
0.155
0.145
0.145
0.14
0.13
0.125
0.105
0.095
0.075
0.06
0.045
0.02
-0.01
-0.045
-0.09
-0.125
-0.16
-0.205
-0.235
-0.26
-0.305
-0.325
-0.345
-0.35
-0.365
-0.37
-0.37
-0.35
-0.335
-0.335
-0.32
-0.315
-0.31
-0.3
-0.29
-0.27
-0.25
-0.23
-0.205
-0.195
-0.21
-0.235
-0.23
-0.24
-0.245
-0.24
-0.225
-0.215
-0.2
-0.19
-0.17
-0.155
-0.14
-0.135
-0.12
-0.095
-0.09
-0.06
-0.04
-0.015
-0.025
-0.04
-0.055
-0.065
-0.085
-0.1
-0.115
-0.13
-0.14
-0.16
-0.18
-0.195
-0.225
-0.245
-0.265
-0.29
-0.315
-0.33
-0.365
-0.385
-0.4
-0.415
-0.415
-0.405
-0.415
-0.41
-0.395
-0.37
-0.355
-0.325
-0.31
-0.29
-0.27
-0.24
-0.22
-0.19
-0.145
-0.095
-0.045
-0.01
0.04
0.095
0.165
0.235
0.315
0.39
0.48
0.525
0.56
0.605
0.665
0.79
0.97
1.19
1.44
1.7
1.94
2.12
2.235
2.215
2.04
1.7
1.21
0.625
-0.015
-0.595
-1.005
-1.2
-1.19
-1.02
-0.78
-0.55
-0.365
-0.24
-0.185
-0.155
-0.17
-0.195
-0.22
-0.245
-0.28
-0.305
-0.32
-0.345
-0.37
-0.365
-0.38
-0.36
-0.34
-0.31
-0.31
-0.315
-0.305
-0.295
-0.27
-0.25
-0.23
-0.205
-0.215
-0.205
-0.215
-0.215
-0.22
-0.235
-0.225
-0.23
-0.235
-0.235
-0.225
-0.225
-0.24
-0.245
-0.255
-0.265
-0.27
-0.285
-0.31
-0.305
-0.305
-0.305
-0.305
-0.3
-0.29
-0.3
-0.305
-0.31
-0.31
-0.31
-0.305
-0.29
-0.285
-0.28
-0.295
-0.27
-0.285
-0.29
-0.295
-0.3
-0.315
-0.305
-0.315
-0.315
-0.31
-0.325
-0.31
-0.31
-0.315
-0.305
-0.31
-0.31
-0.31
-0.325
-0.335
-0.345
-0.35
-0.36
-0.345
-0.35
-0.35
-0.355
-0.375
-0.41
-0.405
-0.42
-0.43
-0.425
-0.425
-0.425
-0.42
-0.41
-0.41
-0.415
-0.435
-0.44
-0.425
-0.425
-0.425
-0.405
-0.39
-0.38
-0.375
-0.37
-0.355
-0.345
-0.33
-0.31
-0.29
-0.275
-0.285
-0.285
-0.28
-0.27
-0.26
-0.245
-0.24
-0.235
-0.225
-0.235
-0.23
-0.245
-0.25
-0.245
-0.25
-0.24
-0.225
-0.22
-0.2
-0.2
-0.215
-0.22
-0.225
-0.225
-0.24
-0.245
-0.245
-0.24
-0.235
-0.23
-0.245
-0.24
-0.255
-0.26
-0.255
-0.27
-0.27
-0.29
-0.265
-0.27
-0.265
-0.27
-0.27
-0.27
-0.265
-0.26
-0.255
-0.26
-0.26
-0.265
-0.25
-0.275
-0.255
-0.255
-0.265
-0.255
-0.255
-0.26
-0.265
-0.245
-0.26
-0.26
-0.255
-0.25
-0.23
-0.205
-0.19
-0.17
-0.17
-0.155
-0.16
-0.175
-0.155
-0.15
-0.14
-0.12
-0.11
-0.105
-0.115
-0.125
-0.13
-0.145
-0.155
-0.17
-0.175
-0.2
-0.2
-0.205
-0.2
-0.185
-0.2
-0.205
-0.24
-0.265
-0.295
-0.325
-0.33
-0.32
-0.325
-0.32
-0.305
-0.29
-0.28
-0.29
-0.31
-0.345
-0.375
-0.39
-0.4
-0.37
-0.345
-0.305
-0.265
-0.23
-0.185
-0.17
-0.15
-0.14
-0.125
-0.115
-0.105
-0.095
-0.07
-0.04
0.01
0.06
0.11
0.165
0.195
0.215
0.255
0.285
0.375
0.485
0.655
0.85
1.085
1.345
1.585
1.78
1.925
1.985
1.9
1.705
1.37
0.92
0.375
-0.19
-0.69
-1.055
-1.225
-1.2
-1.055
-0.835
-0.635
-0.485
-0.36
-0.305
-0.305
-0.32
-0.335
-0.36
-0.36
-0.36
-0.34
-0.35
-0.335
-0.335
-0.345
-0.335
-0.335
-0.325
-0.32
-0.33
-0.335
-0.335
-0.33
-0.33
-0.34
-0.345
-0.345
-0.35
-0.355
-0.355
-0.36
-0.355
-0.35
-0.355
-0.365
-0.36
-0.36
-0.355
-0.355
-0.355
-0.33
-0.325
-0.32
-0.31
-0.31
-0.31
-0.31
-0.3
-0.3
-0.3
-0.31
-0.295
-0.295
-0.28
-0.285
-0.275
-0.275
-0.265
-0.265
-0.27
-0.27
-0.295
-0.285
-0.285
-0.28
-0.27
-0.275
-0.27
-0.255
-0.255
-0.265
-0.27
-0.265
-0.27
-0.25
-0.225
-0.215
-0.185
-0.175
-0.185
-0.19
-0.195
-0.195
-0.2
-0.215
-0.225
-0.24
-0.255
-0.255
-0.265
-0.27
-0.275
-0.28
-0.285
-0.315
-0.325
-0.33
-0.355
-0.355
-0.375
-0.37
-0.37
-0.37
-0.36
-0.345
-0.345
-0.355
-0.35
-0.37
-0.375
-0.37
-0.365
-0.35
-0.33
-0.31
-0.3
-0.305
-0.335
-0.355
-0.37
-0.385
-0.38
-0.375
-0.35
-0.34
-0.315
-0.315
-0.305
-0.315
-0.32
-0.32
-0.32
-0.325
-0.32
-0.31
-0.315
-0.295
-0.275
-0.265
-0.26
-0.25
-0.265
-0.3
-0.33
-0.35
-0.36
-0.35
-0.335
-0.295
-0.255
-0.225
-0.22
-0.23
-0.275
-0.31
-0.345
-0.36
-0.365
-0.37
-0.375
-0.365
-0.375
-0.36
-0.36
-0.36
-0.35
-0.355
-0.345
-0.355
-0.35
-0.36
-0.375
-0.375
-0.365
-0.355
-0.34
-0.315
-0.29
-0.28
-0.27
-0.265
-0.275
-0.29
-0.29
-0.275
-0.265
-0.245
-0.225
-0.205
-0.19
-0.205
-0.22
-0.24
-0.26
-0.285
-0.29
-0.29
-0.285
-0.285
-0.265
-0.27
-0.28
-0.3
-0.315
-0.33
-0.365
-0.385
-0.4
-0.395
-0.41
-0.41
-0.395
-0.37
-0.36
-0.35
-0.345
-0.335
-0.345
-0.325
-0.335
-0.315
-0.295
-0.28
-0.255
-0.235
-0.21
-0.185
-0.165
-0.14
-0.125
-0.11
-0.105
-0.09
-0.06
-0.03
0.02
0.09
0.15
0.2
0.245
0.285
0.325
0.39
0.49
0.64
0.84
1.07
1.325
1.59
1.835
2.01
2.075
2.03
1.815
1.485
1.015
0.47
-0.135
-0.67
-1.045
-1.215
-1.195
-1.055
-0.865
-0.665
-0.515
-0.405
-0.355
-0.34
-0.35
-0.375
-0.385
-0.395
-0.385
-0.385
-0.365
-0.36
-0.355
-0.36
-0.36
-0.365
-0.355
-0.355
-0.345
-0.32
-0.305
-0.28
-0.275
-0.275
-0.295
-0.335
-0.37
-0.4
-0.435
-0.43
-0.42
-0.405
-0.36
-0.33
-0.315
-0.305
-0.32
-0.345
-0.365
-0.385
-0.39
-0.375
-0.36
-0.34
-0.34
-0.345
-0.355
-0.375
-0.37
-0.355
-0.345
-0.32
-0.305
-0.285
-0.295
-0.285
-0.295
-0.285
-0.28
-0.28
-0.28
-0.275
-0.25
-0.23
-0.23
-0.22
-0.215
-0.185
-0.145
-0.08
-0.04
-0.025
-0.09
-0.18
-0.265
-0.33
-0.33
-0.3
-0.22
-0.15
-0.09
-0.05
-0.03
-0.055
-0.085
-0.12
-0.155
-0.145
-0.145
-0.145
-0.14
-0.145
-0.15
-0.155
-0.18
-0.195
-0.205
-0.225
-0.255
-0.255
-0.255
-0.24
-0.24
-0.23
-0.235
-0.23
-0.255
-0.28
-0.3
-0.31
-0.32
-0.325
-0.315
-0.305
-0.28
-0.265
-0.27
-0.25
-0.265
-0.265
-0.27
-0.265
-0.265
-0.27
-0.265
-0.245
-0.255
-0.235
-0.225
-0.21
-0.195
-0.185
-0.185
-0.185
-0.18
-0.195
-0.215
-0.22
-0.24
-0.26
-0.28
-0.265
-0.255
-0.245
-0.225
-0.205
-0.2
-0.2
-0.195
-0.205
-0.21
-0.225
-0.225
-0.21
-0.22
-0.225
-0.245
-0.25
-0.26
-0.25
-0.225
-0.205
-0.195
-0.185
-0.185
-0.2
-0.2
-0.21
-0.215
-0.23
-0.21
-0.18
-0.15
-0.12
-0.11
-0.12
-0.115
-0.095
-0.09
-0.095
-0.115
-0.145
-0.17
-0.17
-0.135
-0.09
-0.04
-0.01
-0.01
-0.02
-0.05
-0.085
-0.115
-0.145
-0.165
-0.16
-0.135
-0.12
-0.11
-0.105
-0.105
-0.14
-0.145
-0.18
-0.205
-0.22
-0.22
-0.215
-0.215
-0.22
-0.225
-0.25
-0.265
-0.3
-0.345
-0.365
-0.375
-0.36
-0.345
-0.32
-0.285
-0.245
-0.23
-0.205
-0.2
-0.175
-0.16
-0.155
-0.155
-0.135
-0.12
-0.095
-0.08
-0.05
-0.02
0.035
0.07
0.155
0.215
0.265
0.295
0.325
0.345
0.375
0.425
0.495
0.595
0.74
0.905
1.11
1.33
1.575
1.8
1.995
2.115
2.13
2.015
1.74
1.32
0.8
0.2
-0.385
-0.855
-1.1
-1.145
-1.02
-0.82
-0.605
-0.415
-0.29
-0.235
-0.23
-0.26
-0.29
-0.34
-0.345
-0.335
-0.335
-0.305
-0.285
-0.255
-0.25
-0.245
-0.255
-0.255
-0.255
-0.27
-0.275
-0.265
-0.265
-0.24
-0.245
-0.23
-0.24
-0.22
-0.23
-0.255
-0.255
-0.255
-0.27
-0.295
-0.28
-0.27
-0.275
-0.255
-0.245
-0.23
-0.245
-0.23
-0.225
-0.225
-0.225
-0.23
-0.23
-0.225
-0.21
-0.195
-0.165
-0.16
-0.16
-0.15
-0.155
-0.15
-0.14
-0.13
-0.12
-0.105
-0.095
-0.085
-0.07
-0.06
-0.06
-0.055
-0.05
-0.025
-0.02
-0.015
0.0
0.02
0.03
0.02
0.02
-0.005
-0.015
-0.03
-0.025
-0.025
-0.01
0.0
0.005
-0.02
-0.045
-0.065
-0.09
-0.095
-0.085
-0.09
-0.09
-0.1
-0.125
-0.15
-0.165
-0.18
-0.19
-0.175
-0.17
-0.165
-0.175
-0.17
-0.185
-0.195
-0.195
-0.215
-0.235
-0.27
-0.275
-0.295
-0.305
-0.31
-0.33
-0.345
-0.335
-0.34
-0.33
-0.325
-0.325
-0.335
-0.345
-0.345
-0.34
-0.345
-0.34
-0.335
-0.325
-0.305
-0.31
-0.325
-0.34
-0.355
-0.385
-0.37
-0.365
-0.36
-0.35
-0.345
-0.35
-0.35
-0.365
-0.37
-0.38
-0.39
-0.385
-0.37
-0.355
-0.35
-0.345
-0.355
-0.36
-0.365
-0.37
-0.375
-0.39
-0.42
-0.43
-0.44
-0.435
-0.435
-0.425
-0.42
-0.43
-0.425
-0.43
-0.42
-0.415
-0.415
-0.395
-0.39
-0.36
-0.355
-0.34
-0.325
-0.33
-0.315
-0.31
-0.305
-0.305
-0.305
-0.31
-0.31
-0.3
-0.295
-0.28
-0.275
-0.29
-0.31
-0.325
-0.35
-0.37
-0.405
-0.425
-0.44
-0.45
-0.44
-0.43
-0.43
-0.42
-0.42
-0.425
-0.445
-0.485
-0.52
-0.545
-0.54
-0.53
-0.515
-0.475
-0.44
-0.4
-0.385
-0.395
-0.395
-0.4
-0.41
-0.4
-0.39
-0.355
-0.315
-0.29
-0.23
-0.205
-0.185
-0.165
-0.14
-0.105
-0.075
-0.035
0.015
0.065
0.13
0.19
0.225
0.27
0.315
0.36
0.42
0.51
0.635
0.785
0.99
1.215
1.46
1.69
1.88
2.025
2.04
1.95
1.725
1.365
0.9
0.36
-0.175
-0.63
-0.935
-1.07
-1.03
-0.915
-0.74
-0.57
-0.425
-0.305
-0.25
-0.225
-0.215
-0.24
-0.25
-0.28
-0.295
-0.285
-0.285
-0.275
-0.25
-0.245
-0.23
-0.225
-0.21
-0.18
-0.165
-0.155
-0.175
-0.21
-0.24
-0.275
-0.295
-0.3
-0.29
-0.295
-0.265
-0.27
-0.265
-0.27
-0.28
-0.305
-0.335
-0.34
-0.335
-0.315
-0.325
-0.34
-0.34
-0.355
-0.36
-0.345
-0.33
-0.315
-0.31
-0.305
-0.305
-0.3
-0.305
-0.3
-0.28
-0.255
-0.26
-0.25
-0.245
-0.24
-0.235
-0.235
-0.24
-0.245
-0.245
-0.23
-0.215
-0.2
-0.185
-0.185
-0.19
-0.195
-0.205
-0.19
-0.18
-0.15
-0.13
-0.115
-0.085
-0.08
-0.075
-0.09
-0.095
-0.115
-0.125
-0.13
-0.14
-0.14
-0.15
-0.15
-0.13
-0.135
-0.125
-0.1
-0.1
-0.125
-0.16
-0.195
-0.23
-0.25
-0.255
-0.24
-0.215
-0.21
-0.205
-0.225
-0.25
-0.265
-0.28
-0.26
-0.245
-0.24
-0.225
-0.225
-0.205
-0.215
-0.21
-0.205
-0.21
-0.195
-0.2
-0.205
-0.195
-0.195
-0.19
-0.185
-0.165
-0.17
-0.145
-0.125
-0.105
-0.1
-0.12
-0.145
-0.195
-0.23
-0.255
-0.25
-0.225
-0.21
-0.17
-0.17
-0.175
-0.195
-0.205
-0.215
-0.23
-0.235
-0.24
-0.24
-0.235
-0.22
-0.215
-0.21
-0.195
-0.18
-0.175
-0.185
-0.205
-0.215
-0.225
-0.235
-0.23
-0.225
-0.215
-0.185
-0.19
-0.195
-0.19
-0.205
-0.2
-0.195
-0.185
-0.19
-0.195
-0.17
-0.175
-0.145
-0.125
-0.115
-0.1
-0.1
-0.1
-0.115
-0.115
-0.125
-0.13
-0.14
-0.155
-0.155
-0.155
-0.145
-0.14
-0.145
-0.165
-0.19
-0.205
-0.245
-0.25
-0.27
-0.26
-0.27
-0.275
-0.28
-0.28
-0.28
-0.29
-0.295
-0.295
-0.305
-0.295
-0.26
-0.255
-0.225
-0.2
-0.185
-0.175
-0.175
-0.155
-0.14
-0.125
-0.105
-0.07
-0.015
0.01
0.04
0.08
0.105
0.125
0.145
0.195
0.23
0.275
0.345
0.39
0.44
0.53
0.645
0.815
0.995
1.24
1.49
1.72
1.905
2.0
1.98
1.815
1.525
1.11
0.625
0.1
-0.39
-0.775
-0.975
-1.005
-0.91
-0.735
-0.56
-0.4
-0.29
-0.25
-0.245
-0.275
-0.305
-0.34
-0.365
-0.345
-0.35
-0.335
-0.315
-0.315
-0.31
-0.315
-0.33
-0.34
-0.34
-0.33
-0.32
-0.31
-0.31
-0.305
-0.315
-0.315
-0.31
-0.31
-0.315
-0.33
-0.345
-0.365
-0.36
-0.35
-0.34
-0.33
-0.325
-0.33
-0.34
-0.355
-0.34
-0.35
-0.345
-0.35
-0.365
-0.36
-0.37
-0.365
-0.37
-0.355
-0.345
-0.335
-0.315
-0.305
-0.3
-0.3
-0.315
-0.32
-0.315
-0.32
-0.32
-0.3
-0.29
-0.275
-0.265
-0.265
-0.265
-0.28
-0.295
-0.31
-0.315
-0.3
-0.28
-0.255
-0.23
-0.21
-0.175
-0.16
-0.145
-0.14
-0.135
-0.14
-0.165
-0.185
-0.185
-0.175
-0.165
-0.16
-0.155
-0.175
-0.205
