Lead II
-0.855
-0.85
-0.85
-0.845
-0.835
-0.83
-0.835
-0.835
-0.86
-0.87
-0.885
-0.885
-0.87
-0.865
-0.855
-0.86
-0.845
-0.84
-0.845
-0.845
-0.86
-0.87
-0.855
-0.865
-0.88
-0.86
-0.855
-0.845
-0.84
-0.835
-0.85
-0.855
-0.86
-0.875
-0.885
-0.865
-0.88
-0.86
-0.855
-0.85
-0.855
-0.86
-0.865
-0.87
-0.885
-0.9
-0.91
-0.905
-0.905
-0.92
-0.92
-0.9
-0.885
-0.89
-0.9
-0.9
-0.92
-0.93
-0.935
-0.94
-0.93
-0.925
-0.905
-0.91
-0.9
-0.905
-0.91
-0.92
-0.915
-0.935
-0.935
-0.93
-0.945
-0.94
-0.925
-0.92
-0.905
-0.91
-0.915
-0.935
-0.935
-0.965
-0.945
-0.965
-0.95
-0.93
-0.95
-0.93
-0.915
-0.91
-0.925
-0.93
-0.945
-0.945
-0.96
-0.945
-0.955
-0.955
-0.955
-0.92
-0.915
-0.925
-0.935
-0.945
-0.935
-0.945
-0.955
-0.965
-0.945
-0.935
-0.935
-0.93
-0.915
-0.915
-0.915
-0.935
-0.935
-0.94
-0.955
-0.955
-0.95
-0.95
-0.945
-0.945
-0.93
-0.925
-0.92
-0.93
-0.935
-0.955
-0.955
-0.95
-0.945
-0.945
-0.935
-0.93
-0.925
-0.93
-0.94
-0.935
-0.94
-0.97
-0.965
-0.96
-0.955
-0.945
-0.925
-0.92
-0.92
-0.92
-0.915
-0.93
-0.935
-0.94
-0.945
-0.935
-0.935
-0.925
-0.92
-0.915
-0.915
-0.905
-0.91
-0.92
-0.925
-0.935
-0.95
-0.945
-0.945
-0.935
-0.935
-0.925
-0.92
-0.915
-0.94
-0.94
-0.94
-0.945
-0.95
-0.945
-0.94
-0.925
-0.925
-0.92
-0.905
-0.91
-0.9
-0.925
-0.925
-0.93
-0.935
-0.93
-0.945
-0.945
-0.93
-0.915
-0.935
-0.935
-0.92
-0.92
-0.905
-0.89
-0.88
-0.89
-0.885
-0.87
-0.855
-0.85
-0.805
-0.795
-0.76
-0.76
-0.775
-0.77
-0.78
-0.78
-0.775
-0.785
-0.81
-0.815
-0.815
-0.805
-0.815
-0.825
-0.84
-0.88
-0.905
-0.915
-0.935
-0.945
-0.945
-0.935
-0.93
-0.92
-0.925
-0.93
-0.935
-0.95
-0.96
-0.97
-0.98
-0.975
-0.96
-0.955
-0.96
-0.95
-0.965
-0.975
-0.965
-0.97
-0.985
-0.99
-0.995
-0.97
-0.965
-0.95
-0.94
-0.925
-0.94
-0.945
-0.93
-0.915
-0.885
-0.8
-0.69
-0.57
-0.425
-0.3
-0.18
-0.145
-0.215
-0.38
-0.64
-0.905
-1.205
-1.485
-1.695
-1.795
-1.785
-1.7
-1.58
-1.445
-1.335
-1.25
-1.165
-1.105
-1.04
-0.98
-0.925
-0.915
-0.905
-0.895
-0.895
-0.89
-0.9
-0.895
-0.9
-0.89
-0.905
-0.89
-0.895
-0.89
-0.865
-0.86
-0.85
-0.845
-0.84
-0.84
-0.84
-0.845
-0.84
-0.845
-0.84
-0.825
-0.82
-0.8
-0.79
-0.795
-0.805
-0.82
-0.815
-0.83
-0.83
-0.83
-0.81
-0.81
-0.785
-0.765
-0.76
-0.76
-0.74
-0.75
-0.76
-0.755
-0.745
-0.745
-0.745
-0.74
-0.72
-0.71
-0.68
-0.685
-0.675
-0.67
-0.66
-0.65
-0.655
-0.655
-0.645
-0.63
-0.615
-0.59
-0.56
-0.535
-0.545
-0.515
-0.51
-0.505
-0.485
-0.465
-0.46
-0.43
-0.405
-0.385
-0.36
-0.37
-0.335
-0.345
-0.315
-0.325
-0.315
-0.295
-0.28
-0.265
-0.245
-0.235
-0.22
-0.235
-0.205
-0.22
-0.225
-0.235
-0.245
-0.265
-0.285
-0.285
-0.285
-0.305
-0.34
-0.37
-0.405
-0.425
-0.45
-0.48
-0.515
-0.55
-0.555
-0.585
-0.605
-0.62
-0.645
-0.665
-0.68
-0.705
-0.735
-0.76
-0.78
-0.8
-0.815
-0.82
-0.83
-0.815
-0.81
-0.83
-0.835
-0.855
-0.86
-0.88
-0.87
-0.885
-0.87
-0.89
-0.875
-0.865
-0.85
-0.85
-0.845
-0.85
-0.88
-0.88
-0.895
-0.905
-0.895
-0.88
-0.86
-0.85
-0.87
-0.88
-0.86
-0.85
-0.86
-0.88
-0.88
-0.885
-0.89
-0.885
-0.87
-0.86
-0.86
-0.865
-0.845
-0.865
-0.865
-0.87
-0.875
-0.88
-0.89
-0.88
-0.875
-0.865
-0.86
-0.87
-0.87
-0.87
-0.89
-0.905
-0.905
-0.91
-0.905
-0.91
-0.9
-0.89
-0.885
-0.89
-0.895
-0.905
-0.925
-0.935
-0.935
-0.955
-0.94
-0.95
-0.935
-0.93
-0.93
-0.935
-0.93
-0.935
-0.945
-0.96
-0.95
-0.96
-0.965
-0.96
-0.955
-0.935
-0.93
-0.925
-0.935
-0.95
-0.95
-0.96
-0.97
-0.98
-0.96
-0.96
-0.96
-0.94
-0.935
-0.925
-0.945
-0.95
-0.96
-0.965
-0.97
-0.98
-0.975
-0.965
-0.96
-0.95
-0.94
-0.945
-0.95
-0.955
-0.97
-0.975
-0.97
-0.965
-0.965
-0.96
-0.95
-0.94
-0.93
-0.93
-0.93
-0.935
-0.95
-0.955
-0.98
-0.97
-0.97
-0.965
-0.955
-0.95
-0.935
-0.94
-0.945
-0.94
-0.95
-0.97
-0.97
-0.985
-0.99
-0.975
-0.975
-0.965
-0.935
-0.945
-0.93
-0.945
-0.96
-0.97
-0.98
-0.98
-0.98
-0.965
-0.96
-0.94
-0.92
-0.935
-0.93
-0.955
-0.945
-0.975
-0.955
-0.98
-0.965
-0.96
-0.955
-0.955
-0.935
-0.94
-0.945
-0.935
-0.955
-0.96
-0.95
-0.965
-0.965
-0.965
-0.955
-0.945
-0.915
-0.925
-0.925
-0.925
-0.93
-0.955
-0.96
-0.965
-0.96
-0.94
-0.93
-0.93
-0.915
-0.935
-0.915
-0.915
-0.92
-0.93
-0.945
-0.94
-0.935
-0.93
-0.915
-0.905
-0.87
-0.875
-0.855
-0.855
-0.835
-0.855
-0.85
-0.865
-0.85
-0.84
-0.82
-0.785
-0.765
-0.745
-0.745
-0.74
-0.75
-0.75
-0.775
-0.77
-0.795
-0.81
-0.805
-0.805
-0.8
-0.81
-0.82
-0.86
-0.885
-0.92
-0.945
-0.95
-0.955
-0.925
-0.92
-0.915
-0.905
-0.92
-0.915
-0.935
-0.94
-0.96
-0.97
-0.975
-0.97
-0.965
-0.955
-0.945
-0.93
-0.945
-0.945
-0.945
-0.96
-0.955
-0.955
-0.965
-0.95
-0.935
-0.915
-0.905
-0.89
-0.875
-0.85
-0.83
-0.76
-0.685
-0.585
-0.475
-0.32
-0.15
-0.05
-0.03
-0.125
-0.33
-0.61
-0.925
-1.235
-1.505
-1.71
-1.805
-1.8
-1.69
-1.56
-1.435
-1.32
-1.235
-1.165
-1.1
-1.025
-0.975
-0.915
-0.9
-0.88
-0.885
-0.875
-0.875
-0.865
-0.865
-0.86
-0.85
-0.845
-0.84
-0.835
-0.845
-0.835
-0.83
-0.83
-0.805
-0.795
-0.785
-0.79
-0.78
-0.795
-0.805
-0.795
-0.8
-0.795
-0.79
-0.775
-0.75
-0.745
-0.735
-0.735
-0.75
-0.745
-0.75
-0.745
-0.75
-0.745
-0.745
-0.76
-0.715
-0.695
-0.695
-0.705
-0.7
-0.705
-0.705
-0.7
-0.71
-0.71
-0.705
-0.67
-0.655
-0.64
-0.625
-0.625
-0.605
-0.615
-0.6
-0.605
-0.605
-0.59
-0.56
-0.535
-0.525
-0.51
-0.49
-0.465
-0.465
-0.46
-0.44
-0.445
-0.435
-0.4
-0.38
-0.35
-0.325
-0.295
-0.265
-0.255
-0.27
-0.265
-0.245
-0.235
-0.255
-0.25
-0.23
-0.225
-0.205
-0.2
-0.205
-0.22
-0.245
-0.245
-0.26
-0.26
-0.29
-0.335
-0.34
-0.345
-0.365
-0.375
-0.4
-0.425
-0.45
-0.49
-0.515
-0.54
-0.58
-0.615
-0.625
-0.65
-0.655
-0.665
-0.705
-0.73
-0.735
-0.77
-0.79
-0.8
-0.815
-0.82
-0.82
-0.835
-0.83
-0.815
-0.805
-0.81
-0.84
-0.845
-0.855
-0.86
-0.88
-0.885
-0.865
-0.86
-0.84
-0.83
-0.835
-0.84
-0.84
-0.855
-0.865
-0.865
-0.875
-0.88
-0.855
-0.85
-0.85
-0.835
-0.84
-0.84
-0.845
-0.845
-0.855
-0.86
-0.865
-0.86
-0.855
-0.835
-0.855
-0.825
-0.825
-0.835
-0.855
-0.85
-0.865
-0.865
-0.88
-0.89
-0.865
-0.87
-0.865
-0.845
-0.855
-0.845
-0.865
-0.89
-0.885
-0.88
-0.91
-0.915
-0.915
-0.915
-0.9
-0.89
-0.89
-0.9
-0.91
-0.915
-0.935
-0.93
-0.94
-0.935
-0.925
-0.925
-0.92
-0.9
-0.91
-0.915
-0.91
-0.93
-0.95
-0.96
-0.97
-0.965
-0.97
-0.965
-0.96
-0.945
-0.94
-0.94
-0.945
-0.955
-0.955
-0.96
-0.965
-0.96
-0.955
-0.97
-0.955
-0.94
-0.935
-0.945
-0.95
-0.96
-0.97
-0.96
-0.965
-0.965
-0.965
-0.945
-0.94
-0.925
-0.94
-0.93
-0.935
-0.965
-0.955
-0.955
-0.97
-0.965
-0.965
-0.955
-0.96
-0.95
-0.94
-0.945
-0.95
-0.97
-0.975
-0.98
-0.975
-0.97
-0.965
-0.965
-0.955
-0.945
-0.95
-0.94
-0.945
-0.955
-0.95
-0.975
-0.985
-0.99
-0.96
-0.97
-0.955
-0.94
-0.94
-0.945
-0.95
-0.95
-0.96
-0.97
-0.985
-0.98
-0.97
-0.955
-0.95
-0.935
-0.94
-0.935
-0.92
-0.96
-0.965
-0.965
-0.975
-0.96
-0.955
-0.945
-0.935
-0.93
-0.93
-0.93
-0.93
-0.95
-0.97
-0.975
-0.965
-0.96
-0.95
-0.94
-0.95
-0.93
-0.935
-0.93
-0.945
-0.945
-0.945
-0.945
-0.96
-0.96
-0.96
-0.95
-0.95
-0.945
-0.93
-0.925
-0.935
-0.935
-0.96
-0.935
-0.96
-0.955
-0.95
-0.935
-0.945
-0.915
-0.91
-0.91
-0.89
-0.885
-0.875
-0.86
-0.86
-0.86
-0.88
-0.855
-0.84
-0.83
-0.825
-0.8
-0.775
-0.77
-0.79
-0.785
-0.77
-0.77
-0.77
-0.78
-0.805
-0.815
-0.81
-0.81
-0.835
-0.845
-0.87
-0.905
-0.925
-0.945
-0.95
-0.955
-0.945
-0.94
-0.94
-0.93
-0.955
-0.96
-0.985
-0.98
-0.995
-0.995
-1.0
-0.985
-0.97
-0.95
-0.965
-0.975
-0.985
-0.985
-0.99
-0.99
-1.005
-1.015
-1.0
-0.965
-0.955
-0.945
-0.95
-0.945
-0.955
-0.91
-0.87
-0.81
-0.735
-0.6
-0.49
-0.35
-0.2
-0.085
-0.055
-0.12
-0.275
-0.505
-0.765
-1.04
-1.305
-1.525
-1.685
-1.79
-1.785
-1.7
-1.585
-1.48
-1.39
-1.29
-1.235
-1.17
-1.105
-1.03
-0.975
-0.915
-0.895
-0.885
-0.885
-0.9
-0.905
-0.915
-0.91
-0.925
-0.915
-0.905
-0.905
-0.89
-0.875
-0.865
-0.85
-0.835
-0.835
-0.855
-0.845
-0.855
-0.855
-0.85
-0.825
-0.82
-0.82
-0.81
-0.815
-0.82
-0.815
-0.835
-0.825
-0.825
-0.84
-0.835
-0.805
-0.795
-0.775
-0.765
-0.765
-0.765
-0.765
-0.77
-0.77
-0.795
-0.79
-0.765
-0.75
-0.735
-0.715
-0.7
-0.71
-0.695
-0.695
-0.69
-0.685
-0.675
-0.675
-0.675
-0.655
-0.645
-0.645
-0.585
-0.575
-0.56
-0.565
-0.565
-0.55
-0.54
-0.535
-0.5
-0.495
-0.465
-0.44
-0.415
-0.395
-0.375
-0.365
-0.355
-0.345
-0.355
-0.335
-0.32
-0.295
-0.27
-0.245
-0.25
-0.235
-0.22
-0.225
-0.24
-0.23
-0.26
-0.27
-0.265
-0.27
-0.295
-0.3
-0.295
-0.31
-0.355
-0.375
-0.405
-0.465
-0.505
-0.545
-0.56
-0.57
-0.61
-0.63
-0.635
-0.67
-0.69
-0.71
-0.755
-0.805
-0.81
-0.815
-0.835
-0.83
-0.84
-0.86
-0.835
-0.865
-0.855
-0.87
-0.88
-0.88
-0.89
-0.91
-0.91
-0.895
-0.905
-0.905
-0.885
-0.89
-0.885
-0.895
-0.9
-0.895
-0.905
-0.905
-0.915
-0.915
-0.895
-0.895
-0.88
-0.875
-0.875
-0.89
-0.9
-0.93
-0.91
-0.91
-0.915
-0.9
-0.9
-0.89
-0.885
-0.875
-0.88
-0.88
-0.89
-0.9
-0.92
-0.915
-0.91
-0.915
-0.905
-0.91
-0.9
-0.905
-0.91
-0.905
-0.92
-0.945
-0.955
-0.965
-0.965
-0.97
-0.965
-0.945
-0.935
-0.93
-0.935
-0.94
-0.945
-0.965
-0.97
-0.98
-0.985
-0.985
-0.97
-0.975
-0.975
-0.975
-0.98
-0.985
-0.995
-1.0
-1.01
-1.01
-1.015
-1.005
-0.995
-0.985
-0.98
-0.965
-0.985
-0.985
-0.995
-1.015
-1.005
-1.025
-1.02
-1.02
-1.005
-1.02
-1.005
-1.005
-1.005
-1.005
-1.005
-1.02
-1.03
-1.02
-1.025
-1.005
-1.015
-1.005
-1.005
-0.99
-1.0
-0.995
-1.01
-1.015
-1.02
-1.04
-1.045
-1.025
-1.015
-1.01
-0.99
-1.005
-1.01
-1.0
-1.015
-1.02
-1.035
-1.04
-1.04
-1.045
-1.035
-1.01
-1.015
-0.99
-1.005
-1.015
-1.02
-1.035
-1.05
-1.035
-1.035
-1.04
-1.035
-1.015
-1.015
-1.005
-1.005
-1.02
-1.02
-1.05
-1.05
-1.05
-1.03
-1.035
-1.015
-1.02
-1.005
-1.01
-1.0
-1.01
-1.015
-1.02
-1.02
-1.035
-1.05
-1.04
-1.02
-1.03
-1.015
-1.02
-1.025
-1.02
-1.04
-1.025
-1.045
-1.03
-1.02
-1.025
-1.015
-1.005
-1.0
-1.01
-1.0
-1.005
-1.015
-1.005
-1.015
-1.025
-1.015
-1.03
-1.025
-1.01
-1.005
-1.005
-1.0
-1.01
-1.005
-1.02
-1.02
-1.035
-1.035
-1.02
-1.025
-1.005
-1.0
-0.995
-1.0
-1.005
-1.005
-0.99
-1.01
-1.0
-1.005
-0.98
-0.95
-0.93
-0.915
-0.91
-0.91
-0.91
-0.92
-0.895
-0.88
-0.865
-0.86
-0.85
-0.825
-0.82
-0.815
-0.82
-0.84
-0.85
-0.87
-0.89
-0.905
-0.92
-0.92
-0.915
-0.91
-0.925
-0.935
-0.945
-0.985
-0.99
-1.025
-1.03
-1.04
-1.055
-1.04
-1.03
-1.02
-1.04
-1.04
-1.04
-1.06
-1.055
-1.07
-1.065
-1.07
-1.075
-1.07
-1.06
-1.065
-1.06
-1.055
-1.06
-1.05
-1.06
-1.06
-1.055
-1.04
-1.05
-1.045
-1.03
-1.015
-0.975
-0.925
-0.86
-0.755
-0.65
-0.535
-0.405
-0.29
-0.23
-0.245
-0.345
-0.565
-0.845
-1.11
-1.385
-1.605
-1.8
-1.945
-1.975
-1.93
-1.83
-1.7
-1.605
-1.51
-1.415
-1.345
-1.27
-1.185
-1.11
-1.06
-1.02
-1.005
-1.005
-1.015
-1.015
-0.995
-0.99
-0.975
-0.97
-0.96
-0.95
-0.955
-0.95
-0.95
-0.955
-0.965
-0.955
-0.94
-0.935
-0.925
-0.915
-0.91
-0.895
-0.91
-0.92
-0.905
-0.915
-0.92
-0.9
-0.895
-0.89
-0.88
-0.865
-0.875
-0.875
-0.875
-0.87
-0.885
-0.885
-0.88
-0.88
-0.865
-0.855
-0.845
-0.825
-0.82
-0.825
-0.82
-0.805
-0.815
-0.81
-0.815
-0.825
-0.79
-0.765
-0.75
-0.73
-0.73
-0.74
-0.715
-0.715
-0.72
-0.73
-0.7
-0.645
-0.635
-0.62
-0.59
-0.57
-0.55
-0.55
-0.53
-0.535
-0.53
-0.505
-0.48
-0.45
-0.425
-0.385
-0.37
-0.385
-0.36
-0.34
-0.34
-0.33
-0.33
-0.325
-0.33
-0.31
-0.3
-0.295
-0.31
-0.31
-0.33
-0.325
-0.35
-0.365
-0.41
-0.42
-0.455
-0.465
-0.49
-0.535
-0.545
-0.58
-0.625
-0.66
-0.7
-0.72
-0.77
-0.805
-0.82
-0.825
-0.845
-0.86
-0.87
-0.865
-0.88
-0.89
-0.915
-0.935
-0.95
-0.95
-0.97
-0.945
-0.955
-0.945
-0.94
-0.925
-0.935
-0.935
-0.955
-0.96
-0.97
-0.97
-0.975
-0.965
-0.96
-0.96
-0.935
-0.93
-0.94
-0.965
-0.96
-0.97
-0.96
-0.975
-0.96
-0.955
-0.97
-0.975
-0.945
-0.945
-0.94
-0.955
-0.98
-0.975
-0.97
-0.975
-0.985
-0.995
-0.99
-0.97
-0.95
-0.95
-0.945
-0.95
-0.96
-0.975
-0.975
-0.995
-0.995
-0.995
-0.99
-0.995
-0.995
-0.975
-0.995
-0.99
-1.02
-1.02
-1.03
-1.045
-1.055
-1.03
-1.035
-1.005
-1.01
-1.02
-1.01
-1.005
-1.01
-1.02
-1.035
-1.035
-1.035
-1.05
-1.03
-1.03
-1.015
-1.02
-1.035
-1.04
-1.03
-1.045
-1.06
-1.055
-1.05
-1.05
-1.045
-1.04
-1.035
-1.03
-1.025
-1.02
-1.03
-1.03
-1.035
-1.055
-1.055
-1.05
-1.065
-1.045
-1.035
-1.025
-1.03
-1.035
-1.04
-1.045
-1.06
-1.065
-1.06
-1.05
-1.045
-1.04
-1.03
-1.03
-1.035
-1.02
-1.035
-1.05
-1.045
-1.035
-1.045
-1.04
-1.05
-1.03
-1.015
-1.015
-1.015
-1.035
-1.04
-1.03
-1.05
-1.04
-1.035
-1.04
-1.035
-1.025
-1.02
-1.02
-1.01
-1.025
-1.04
-1.04
-1.055
-1.055
-1.06
-1.055
-1.02
-1.025
-1.02
-1.035
-1.025
-1.02
-1.02
-1.025
-1.035
-1.06
-1.045
-1.05
-1.02
-1.02
-1.0
-0.995
-0.995
-1.005
-1.005
-1.025
-1.03
-1.035
-1.03
-1.025
-1.025
-1.015
-1.005
-1.005
-0.985
-1.0
-1.0
-1.02
-1.015
-1.035
-1.03
-1.03
-1.025
-1.025
-1.02
-1.015
-1.01
-1.005
-1.015
-1.015
-1.02
-1.015
-0.99
-0.985
-0.95
-0.94
-0.92
-0.895
-0.9
-0.89
-0.9
-0.905
-0.91
-0.89
-0.87
-0.85
-0.83
-0.815
-0.82
-0.81
-0.805
-0.83
-0.855
-0.885
-0.9
-0.91
-0.915
-0.915
-0.92
-0.925
-0.945
-0.96
-0.97
-0.985
-1.005
-1.025
-1.03
-1.035
-1.035
-1.035
-1.03
-1.02
-1.015
-1.025
-1.03
-1.035
-1.045
-1.055
-1.06
-1.085
-1.065
-1.05
-1.045
-1.05
-1.04
-1.025
-1.03
-1.025
-1.03
-1.03
-1.035
-1.035
-1.03
-1.02
-0.99
-0.945
-0.86
-0.77
-0.64
-0.485
-0.35
-0.22
-0.13
-0.13
-0.255
-0.47
-0.75
-1.045
-1.315
-1.57
-1.765
-1.84
-1.825
-1.725
-1.605
-1.48
-1.375
-1.28
-1.2
-1.125
-1.06
-1.005
-0.96
-0.955
-0.95
-0.97
-0.99
-1.01
-1.005
-0.99
-0.96
-0.94
-0.935
-0.92
-0.9
-0.905
-0.92
-0.91
-0.92
-0.925
-0.925
-0.915
-0.895
-0.895
-0.875
-0.875
-0.87
-0.87
-0.875
-0.88
-0.9
-0.9
-0.89
-0.885
-0.87
-0.87
-0.84
-0.83
-0.84
-0.84
-0.845
-0.855
-0.845
-0.86
-0.845
-0.85
-0.84
-0.81
-0.8
-0.795
-0.79
-0.78
-0.79
-0.78
-0.79
-0.785
-0.775
-0.775
-0.745
-0.73
-0.7
-0.685
-0.68
-0.69
-0.665
-0.68
-0.665
-0.65
-0.63
-0.61
-0.59
-0.565
-0.54
-0.52
-0.5
-0.475
-0.47
-0.45
-0.45
-0.425
-0.405
-0.385
-0.385
-0.365
-0.34
-0.32
-0.315
-0.305
-0.3
-0.3
-0.3
-0.3
-0.315
-0.32
-0.305
-0.29
-0.29
-0.3
-0.315
-0.35
-0.365
-0.4
-0.435
-0.455
-0.485
-0.51
-0.53
-0.565
-0.57
-0.605
-0.635
-0.655
-0.695
-0.725
-0.75
-0.795
-0.82
-0.83
-0.85
-0.85
-0.84
-0.86
-0.875
-0.895
-0.905
-0.925
-0.94
-0.95
-0.96
-0.965
-0.95
-0.95
-0.945
-0.935
-0.955
-0.94
-0.96
-0.965
-0.965
-0.975
-0.975
-0.975
-0.97
-0.965
-0.96
-0.945
-0.94
-0.95
-0.955
-0.96
-0.975
-0.97
-0.975
-0.965
-0.97
-0.96
-0.96
-0.935
-0.935
-0.945
-0.95
-0.955
-0.97
-0.975
-0.96
-0.96
-0.96
-0.955
-0.95
-0.95
-0.935
-0.935
-0.955
-0.96
-0.985
-0.99
-0.985
-0.98
-0.98
-0.97
-0.97
-0.96
-0.97
-0.98
-0.985
-0.995
-1.0
-1.01
-1.015
-1.005
-1.01
-1.0
-1.0
-1.01
-0.995
-1.015
-1.01
-1.02
-1.035
-1.045
-1.03
-1.03
-1.025
-1.015
-1.005
-1.005
-1.015
-1.015
-1.02
-1.025
-1.05
-1.05
-1.055
-1.045
-1.055
-1.045
-1.02
-1.04
-1.035
-1.02
-1.03
-1.05
-1.045
-1.055
-1.05
-1.055
-1.055
-1.045
-1.035
-1.025
-1.025
-1.035
-1.05
-1.05
-1.055
-1.055
-1.065
-1.06
-1.055
-1.05
-1.035
-1.02
-1.02
-1.025
-1.035
-1.05
-1.055
-1.06
-1.08
-1.06
-1.07
-1.06
-1.04
-1.025
-1.03
-1.035
-1.035
-1.045
-1.04
-1.045
-1.055
-1.06
-1.05
-1.035
-1.05
-1.03
-1.03
-1.05
-1.055
-1.065
-1.065
-1.075
-1.07
-1.055
-1.045
-1.045
-1.04
-1.03
-1.04
-1.03
-1.03
-1.045
-1.05
-1.045
-1.065
-1.065
-1.065
-1.035
-1.025
-1.03
-1.03
-1.035
-1.025
-1.025
-1.03
-1.035
-1.05
-1.045
-1.03
-1.02
-1.03
-1.005
-1.01
-1.015
-1.02
-1.02
-1.04
-1.035
-1.045
-1.045
-1.03
-1.035
-1.02
-1.01
-1.015
-1.01
-1.015
-1.01
-1.035
-1.025
-1.03
-1.045
-1.04
-1.03
-1.03
-1.02
-0.995
-1.01
-1.005
-1.01
-1.01
-1.0
-1.005
-0.97
-0.95
-0.94
-0.92
-0.905
-0.91
-0.895
-0.9
-0.88
-0.86
-0.855
-0.85
-0.85
-0.84
-0.815
-0.835
-0.835
-0.855
-0.87
-0.885
-0.905
-0.91
-0.91
-0.93
-0.945
-0.96
-0.975
-0.99
-0.99
-1.005
-1.01
-1.03
-1.03
-1.045
-1.06
-1.05
-1.06
-1.07
-1.065
-1.055
-1.06
-1.05
-1.055
-1.045
-1.06
-1.055
-1.075
-1.065
-1.065
-1.06
-1.05
-1.04
-1.03
-1.02
-1.03
-1.035
-1.04
-1.05
-1.05
-1.065
-1.05
-1.005
-0.95
-0.895
-0.8
-0.705
-0.595
-0.465
-0.34
-0.265
-0.24
-0.29
-0.44
-0.64
-0.9
-1.16
-1.395
-1.61
-1.77
-1.855
-1.835
-1.765
-1.645
-1.545
-1.45
-1.36
-1.275
-1.185
-1.12
-1.06
-1.015
-0.985
-0.98
-0.98
-0.995
-0.99
-1.005
-1.0
-0.985
-0.965
-0.945
-0.94
-0.94
-0.955
-0.955
-0.97
-0.96
-0.95
-0.945
-0.94
-0.91
-0.905
-0.885
-0.91
-0.89
-0.9
-0.92
-0.925
-0.93
-0.92
-0.925
-0.895
-0.895
-0.875
-0.88
-0.88
-0.865
-0.865
-0.87
-0.875
-0.875
-0.875
-0.865
-0.855
-0.835
-0.845
-0.82
-0.835
-0.82
-0.83
-0.84
-0.84
-0.84
-0.85
-0.845
-0.815
-0.785
-0.78
-0.76
-0.765
-0.75
-0.735
-0.745
-0.74
-0.73
-0.73
-0.71
-0.7
-0.665
-0.645
-0.615
-0.615
-0.62
-0.605
-0.58
-0.585
-0.56
-0.56
-0.52
-0.51
-0.48
-0.455
-0.415
-0.41
-0.41
-0.39
-0.39
-0.37
-0.38
-0.385
-0.355
-0.365
-0.34
-0.315
-0.305
-0.295
-0.29
-0.295
-0.305
-0.335
-0.35
-0.37
-0.385
-0.42
-0.43
-0.445
-0.46
-0.495
-0.53
-0.565
-0.605
-0.625
-0.675
-0.715
-0.735
-0.745
-0.765
-0.78
-0.785
-0.82
-0.83
-0.84
-0.87
-0.89
-0.915
-0.93
-0.945
-0.93
-0.93
-0.935
-0.915
-0.935
-0.925
-0.93
-0.94
-0.96
-0.975
-0.965
-0.975
-0.96
-0.945
-0.955
-0.94
-0.935
-0.93
-0.95
-0.965
-0.975
-0.985
-0.975
-0.97
-0.96
-0.97
-0.96
-0.945
-0.935
-0.955
-0.955
-0.95
-0.975
-0.955
-0.975
-0.97
-0.965
-0.965
-0.96
-0.955
-0.94
-0.945
-0.95
-0.96
-0.975
-0.98
-0.995
-0.985
-0.975
-0.97
-0.97
-0.975
-0.975
-0.98
-0.98
-1.0
-0.99
-0.995
-1.01
-0.995
-1.01
-1.0
-1.0
-0.99
-0.99
-1.0
-1.005
-1.025
-1.02
-1.025
-1.03
-1.04
-1.015
-1.015
-1.0
-1.005
-0.995
-1.005
-1.025
-1.03
-1.03
-1.03
-1.045
-1.05
-1.045
-1.025
-1.015
-1.015
-1.01
-1.045
-1.05
-1.045
-1.06
-1.055
-1.06
-1.06
-1.045
-1.05
-1.04
-1.03
-1.045
-1.045
-1.055
-1.06
-1.06
-1.065
-1.07
-1.06
-1.06
-1.045
-1.035
-1.02
-1.025
-1.035
-1.055
-1.065
-1.07
-1.065
-1.08
-1.055
-1.06
-1.055
-1.04
-1.035
-1.035
-1.03
-1.045
-1.045
-1.06
-1.07
-1.075
-1.075
-1.06
-1.045
-1.05
-1.035
-1.03
-1.035
-1.035
-1.035
-1.045
-1.055
-1.07
-1.055
-1.07
-1.04
-1.045
-1.04
-1.03
-1.045
-1.04
-1.05
-1.06
-1.07
-1.08
-1.07
-1.055
-1.055
-1.06
-1.045
-1.03
-1.035
-1.035
-1.04
-1.055
-1.06
-1.06
-1.085
-1.06
-1.07
-1.04
-1.035
-1.03
-1.035
-1.045
-1.045
-1.045
-1.05
-1.05
-1.06
-1.055
-1.035
-1.04
-1.01
-1.04
-1.03
-1.03
-1.035
-1.025
-1.015
-1.025
-1.01
-0.99
-0.96
-0.965
-0.945
-0.925
-0.92
-0.925
-0.905
-0.9
-0.895
-0.89
-0.885
-0.875
-0.865
-0.865
-0.865
-0.88
-0.905
-0.92
-0.93
-0.95
-0.965
-0.985
-0.99
-0.99
-1.01
-1.02
-1.025
-1.03
-1.035
-1.04
-1.04
-1.055
-1.055
-1.06
-1.06
-1.055
-1.055
-1.055
-1.055
-1.055
-1.07
-1.055
-1.065
-1.065
-1.08
-1.085
-1.09
-1.075
-1.065
-1.05
-1.035
-1.045
-1.06
-1.03
-1.045
-1.035
-1.035
-1.02
-0.97
-0.905
-0.81
-0.685
-0.54
-0.395
-0.26
-0.22
-0.285
-0.48
-0.74
-1.05
-1.37
-1.63
-1.82
-1.91
-1.895
-1.8
-1.685
-1.56
-1.46
-1.395
-1.33
-1.285
-1.21
-1.14
-1.06
-1.015
-0.985
-0.97
-0.975
-1.0
-1.03
-1.02
-1.02
-1.005
-1.005
-0.985
-0.97
-0.95
-0.93
-0.94
-0.945
-0.94
-0.95
-0.95
-0.94
-0.94
-0.935
-0.93
-0.92
-0.905
-0.915
-0.905
-0.895
-0.9
-0.905
-0.895
-0.905
-0.92
-0.91
-0.9
-0.88
-0.875
-0.87
-0.865
-0.85
-0.85
-0.855
-0.855
-0.86
-0.845
-0.85
-0.835
-0.835
-0.82
-0.8
-0.79
-0.785
-0.78
-0.785
-0.785
-0.785
-0.78
-0.765
-0.75
-0.745
-0.725
-0.7
-0.7
-0.695
-0.68
-0.68
-0.675
-0.655
-0.65
-0.63
-0.615
-0.6
-0.575
-0.545
-0.545
-0.53
-0.52
-0.505
-0.505
-0.475
-0.47
-0.465
-0.445
-0.42
-0.39
-0.38
-0.36
-0.365
-0.365
-0.37
-0.37
-0.365
-0.365
-0.375
-0.38
-0.375
-0.365
-0.345
-0.375
-0.375
-0.395
-0.425
-0.45
-0.485
-0.515
-0.54
-0.555
-0.57
-0.595
-0.615
-0.64
-0.66
-0.695
-0.72
-0.76
-0.8
-0.82
-0.85
-0.84
-0.845
-0.855
-0.86
-0.865
-0.87
-0.88
-0.895
-0.91
-0.91
-0.935
-0.94
-0.935
-0.925
-0.935
-0.92
-0.92
-0.93
-0.94
-0.935
-0.95
-0.96
-0.955
-0.95
-0.95
-0.95
-0.935
-0.925
-0.935
-0.925
-0.94
-0.965
-0.965
-0.965
-0.97
-0.97
-0.965
-0.945
-0.945
-0.93
-0.925
-0.935
-0.93
-0.95
-0.945
-0.955
-0.97
-0.955
-0.955
-0.955
-0.94
-0.945
-0.935
-0.94
-0.945
-0.94
-0.95
-0.965
-0.975
-0.98
-0.975
-0.995
-0.97
-0.965
-0.98
-0.985
-0.985
-0.985
-1.0
-1.015
-1.01
-1.005
-1.0
-1.0
-0.995
-0.975
-0.985
-0.99
-1.005
-1.01
-1.025
-1.035
-1.055
-1.055
-1.055
-1.03
-1.02
-1.005
-1.005
-1.005
-1.015
-1.035
-1.045
-1.035
-1.05
-1.05
-1.045
-1.03
-1.02
-1.02
-1.015
-1.005
-1.005
-1.01
-1.025
-1.05
-1.05
-1.05
-1.045
-1.035
-1.05
-1.02
-1.02
-1.02
-1.025
-1.03
-1.05
-1.05
-1.05
-1.055
-1.04
-1.035
-1.02
-1.005
-1.01
-1.015
-1.01
-1.015
-1.04
-1.04
-1.045
-1.04
-1.05
-1.025
-1.04
-1.025
-1.01
-1.025
-1.01
-1.03
-1.035
-1.03
-1.035
-1.04
-1.03
-1.045
-1.03
-1.005
-1.005
-1.01
-1.02
-1.03
-1.035
-1.04
-1.05
-1.04
-1.015
-1.015
-1.01
-0.995
-1.005
-1.01
-1.0
-1.04
-1.04
-1.035
-1.03
-1.04
-1.035
-1.04
-1.02
-1.01
-1.005
-1.01
-1.04
-1.02
-1.025
-1.035
-1.03
-1.04
-1.035
-1.025
-1.0
-0.995
-1.0
-0.995
-1.005
-1.01
-1.0
-1.025
-1.02
-1.015
-1.0
-1.0
-1.01
-0.985
-0.99
-0.985
-0.985
-1.0
-1.0
-1.01
-1.015
-1.015
-1.01
-0.995
-0.965
-0.95
-0.925
-0.91
-0.91
-0.915
-0.915
-0.93
-0.925
-0.915
-0.9
-0.855
-0.855
-0.825
-0.82
-0.81
-0.81
-0.835
-0.85
-0.89
-0.91
-0.905
-0.91
-0.905
-0.895
-0.905
-0.91
-0.935
-0.95
-0.975
-0.99
-1.005
-1.01
-1.03
-1.015
-1.01
-1.005
-1.005
-1.01
-1.015
-1.01
-1.03
-1.045
-1.05
-1.06
-1.075
-1.05
-1.045
-1.025
-1.025
-1.03
-1.04
-1.02
-1.035
-1.025
-1.035
-1.035
-1.03
-1.025
-1.01
-0.995
-0.98
-0.92
-0.85
-0.77
-0.655
-0.53
-0.4
-0.28
-0.215
-0.24
-0.37
-0.565
-0.835
-1.11
-1.395
-1.62
-1.76
-1.805
-1.75
-1.635
-1.515
-1.395
-1.28
-1.205
-1.14
-1.07
-1.02
-0.985
-0.96
-0.96
-0.98
-0.99
-0.985
-0.985
-0.97
-0.95
-0.925
-0.92
-0.915
-0.92
-0.925
-0.925
-0.93
-0.92
-0.925
-0.915
-0.9
-0.89
-0.875
-0.88
-0.875
-0.885
-0.885
-0.89
-0.89
-0.91
-0.91
-0.895
-0.865
-0.855
-0.86
-0.85
-0.845
-0.85
-0.85
-0.86
-0.86
-0.855
-0.85
-0.86
-0.84
-0.815
-0.805
-0.815
-0.81
-0.805
-0.805
-0.8
-0.795
-0.81
-0.79
-0.78
-0.765
-0.75
-0.725
-0.725
-0.725
-0.715
-0.715
-0.73
-0.71
-0.705
-0.69
-0.66
-0.645
-0.62
-0.6
-0.58
-0.56
-0.555
-0.545
-0.55
-0.525
-0.52
-0.505
-0.485
-0.44
-0.425
-0.39
-0.39
-0.385
-0.375
-0.37
-0.37
-0.37
-0.36
-0.35
-0.335
-0.33
-0.315
-0.31
-0.305
-0.31
-0.34
-0.355
-0.365
-0.39
-0.41
-0.425
-0.44
-0.455
-0.48
-0.49
-0.51
-0.54
-0.575
-0.605
-0.645
-0.67
-0.705
-0.72
-0.74
-0.765
-0.77
-0.78
-0.805
-0.82
-0.835
-0.86
-0.885
-0.9
-0.92
-0.92
-0.925
-0.92
-0.925
-0.91
-0.92
-0.92
-0.93
-0.94
-0.955
-0.955
-0.955
-0.965
-0.955
-0.95
-0.925
-0.935
-0.935
-0.945
-0.945
-0.945
-0.94
-0.95
-0.955
-0.955
-0.95
-0.94
-0.945
-0.92
-0.935
-0.935
-0.925
-0.94
-0.95
-0.965
-0.955
-0.96
-0.945
-0.935
-0.95
-0.945
-0.93
-0.94
-0.935
-0.965
-0.975
-0.98
-0.98
-0.985
-0.965
-0.955
-0.955
-0.945
-0.95
-0.96
-0.97
-0.975
-0.99
-0.99
-1.01
-0.985
-0.99
-0.995
-0.985
-0.975
-0.985
-0.985
-0.995
-1.005
-1.01
-1.03
-1.02
-1.025
-1.01
-1.02
-1.02
-0.99
-1.0
-1.005
-1.005
-1.015
-1.02
-1.05
-1.04
-1.05
-1.04
-1.05
-1.025
-1.02
-1.02
-1.035
-1.045
-1.05
-1.035
-1.055
-1.055
-1.055
-1.065
-1.05
-1.03
-1.03
-1.03
-1.015
-1.025
-1.02
-1.02
-1.045
-1.06
-1.045
-1.04
-1.035
-1.035
-1.025
-1.02
-1.015
-1.02
-1.03
-1.035
-1.05
-1.065
-1.05
-1.055
-1.035
-1.025
-1.005
-1.02
-1.025
-1.02
-1.025
-1.035
-1.05
-1.055
-1.06
-1.045
-1.055
-1.04
-1.03
-1.035
-1.04
-1.035
-1.035
-1.05
-1.065
-1.075
-1.065
-1.055
-1.05
-1.04
-1.025
-1.02
-1.03
-1.02
-1.045
-1.055
-1.065
-1.07
-1.065
-1.05
-1.035
-1.03
-1.025
-1.03
-1.03
-1.03
-1.04
-1.04
-1.055
-1.05
-1.055
-1.055
-1.055
-1.035
-1.03
-1.035
-1.03
-1.035
-1.03
-1.04
-1.065
-1.05
-1.045
-1.045
-1.05
-1.045
-1.015
-1.02
-1.025
-1.02
-1.02
-1.025
-1.035
-1.045
-1.045
-1.04
-1.035
-1.02
-1.01
-1.0
-0.995
-0.965
-0.975
-0.955
-0.98
-0.975
-0.97
-0.945
-0.925
-0.925
-0.915
-0.89
-0.88
-0.88
-0.875
-0.87
-0.87
-0.88
-0.88
-0.875
-0.885
-0.895
-0.9
-0.92
-0.9
-0.915
-0.925
-0.98
-0.99
-1.005
-1.035
-1.03
-1.03
-1.04
-1.03
-1.02
-1.01
-1.025
-1.025
-1.03
-1.05
-1.06
-1.07
-1.08
-1.07
-1.055
-1.065
-1.04
-1.045
-1.045
-1.05
-1.06
-1.065
-1.065
-1.06
-1.06
-1.04
-1.03
-1.015
-1.015
-1.015
-0.985
-0.97
-0.92
-0.85
-0.75
-0.625
-0.495
-0.35
-0.25
-0.22
-0.31
-0.505
-0.775
-1.08
-1.36
-1.58
