Lead II
-0.945
-0.935
-0.95
-0.96
-0.955
-0.99
-0.99
-0.99
-1.0
-1.0
-1.01
-0.995
-0.99
-1.0
-1.005
-1.01
-1.015
-1.025
-1.035
-1.035
-1.04
-1.025
-1.03
-1.02
-1.025
-1.02
-1.03
-1.04
-1.06
-1.055
-1.07
-1.07
-1.065
-1.07
-1.07
-1.05
-1.06
-1.045
-1.05
-1.05
-1.055
-1.055
-1.065
-1.07
-1.08
-1.085
-1.09
-1.075
-1.075
-1.065
-1.075
-1.085
-1.075
-1.07
-1.075
-1.08
-1.08
-1.07
-1.06
-1.055
-1.05
-1.04
-1.04
-1.04
-1.03
-1.025
-1.025
-1.025
-1.025
-1.02
-1.02
-1.015
-1.015
-0.995
-0.995
-1.0
-0.985
-0.975
-0.985
-0.97
-0.985
-0.99
-0.99
-0.985
-0.97
-0.975
-0.975
-0.99
-0.99
-1.015
-1.025
-1.04
-1.055
-1.065
-1.09
-1.11
-1.09
-1.09
-1.11
-1.115
-1.13
-1.125
-1.14
-1.145
-1.145
-1.14
-1.14
-1.13
-1.125
-1.115
-1.125
-1.13
-1.14
-1.155
-1.15
-1.145
-1.15
-1.135
-1.14
-1.11
-1.105
-1.085
-1.06
-1.015
-0.96
-0.88
-0.795
-0.665
-0.545
-0.44
-0.36
-0.355
-0.425
-0.535
-0.68
-0.835
-0.96
-1.115
-1.29
-1.445
-1.55
-1.565
-1.51
-1.445
-1.41
-1.38
-1.385
-1.37
-1.355
-1.33
-1.305
-1.29
-1.295
-1.275
-1.265
-1.25
-1.25
-1.23
-1.25
-1.255
-1.25
-1.26
-1.255
-1.26
-1.26
-1.275
-1.27
-1.295
-1.28
-1.27
-1.255
-1.25
-1.255
-1.26
-1.285
-1.295
-1.305
-1.3
-1.285
-1.27
-1.265
-1.275
-1.275
-1.28
-1.29
-1.32
-1.34
-1.335
-1.32
-1.33
-1.315
-1.32
-1.325
-1.305
-1.325
-1.33
-1.34
-1.345
-1.355
-1.36
-1.355
-1.36
-1.345
-1.34
-1.33
-1.33
-1.34
-1.34
-1.35
-1.355
-1.36
-1.365
-1.375
-1.37
-1.36
-1.35
-1.345
-1.33
-1.325
-1.32
-1.31
-1.31
-1.325
-1.335
-1.33
-1.325
-1.32
-1.305
-1.29
-1.265
-1.25
-1.24
-1.23
-1.205
-1.19
-1.175
-1.16
-1.14
-1.125
-1.115
-1.1
-1.08
-1.07
-1.07
-1.055
-1.05
-1.045
-1.05
-1.045
-1.035
-1.02
-1.02
-1.01
-1.005
-1.015
-1.02
-1.03
-1.045
-1.05
-1.06
-1.07
-1.07
-1.07
-1.07
-1.07
-1.065
-1.065
-1.065
-1.07
-1.065
-1.075
-1.085
-1.1
-1.115
-1.1
-1.09
-1.095
-1.095
-1.085
-1.085
-1.085
-1.09
-1.085
-1.09
-1.105
-1.105
-1.105
-1.105
-1.105
-1.1
-1.09
-1.085
-1.105
-1.105
-1.11
-1.115
-1.125
-1.115
-1.105
-1.12
-1.115
-1.115
-1.115
-1.12
-1.12
-1.125
-1.115
-1.105
-1.115
-1.095
-1.1
-1.09
-1.08
-1.07
-1.075
-1.05
-1.05
-1.055
-1.06
-1.06
-1.06
-1.06
-1.04
-1.04
-1.025
-1.005
-0.995
-0.995
-0.985
-1.0
-1.005
-1.015
-1.05
-1.045
-1.055
-1.055
-1.06
-1.065
-1.085
-1.1
-1.13
-1.14
-1.14
-1.14
-1.155
-1.145
-1.145
-1.145
-1.155
-1.16
-1.145
-1.16
-1.155
-1.15
-1.16
-1.16
-1.16
-1.155
-1.145
-1.135
-1.135
-1.145
-1.135
-1.13
-1.13
-1.14
-1.145
-1.15
-1.16
-1.14
-1.105
-1.07
-1.0
-0.905
-0.82
-0.715
-0.57
-0.465
-0.375
-0.32
-0.335
-0.39
-0.515
-0.655
-0.81
-0.955
-1.115
-1.31
-1.48
-1.595
-1.635
-1.6
-1.545
-1.505
-1.475
-1.43
-1.4
-1.345
-1.31
-1.285
-1.265
-1.25
-1.255
-1.25
-1.26
-1.25
-1.255
-1.24
-1.22
-1.215
-1.215
-1.215
-1.23
-1.245
-1.23
-1.235
-1.245
-1.24
-1.255
-1.25
-1.245
-1.25
-1.25
-1.235
-1.25
-1.255
-1.255
-1.265
-1.27
-1.265
-1.265
-1.25
-1.255
-1.25
-1.245
-1.24
-1.265
-1.26
-1.265
-1.275
-1.28
-1.295
-1.3
-1.285
-1.275
-1.275
-1.28
-1.275
-1.275
-1.285
-1.29
-1.295
-1.3
-1.295
-1.285
-1.295
-1.29
-1.285
-1.28
-1.285
-1.29
-1.295
-1.31
-1.315
-1.32
-1.315
-1.32
-1.3
-1.305
-1.28
-1.275
-1.27
-1.27
-1.265
-1.26
-1.275
-1.285
-1.27
-1.27
-1.26
-1.235
-1.22
-1.215
-1.19
-1.16
-1.155
-1.145
-1.125
-1.11
-1.095
-1.05
-1.045
-1.025
-1.0
-0.97
-0.965
-0.955
-0.955
-0.95
-0.935
-0.94
-0.93
-0.93
-0.92
-0.91
-0.915
-0.915
-0.925
-0.935
-0.95
-0.95
-0.95
-0.97
-0.97
-0.96
-0.96
-0.935
-0.92
-0.935
-0.93
-0.94
-0.945
-0.945
-0.96
-0.97
-0.965
-0.97
-0.95
-0.945
-0.935
-0.94
-0.95
-0.95
-0.955
-0.965
-0.955
-0.965
-0.98
-0.95
-0.945
-0.945
-0.945
-0.955
-0.955
-0.96
-0.97
-0.975
-0.975
-0.985
-0.975
-0.965
-0.955
-0.98
-0.96
-0.955
-0.95
-0.935
-0.94
-0.95
-0.955
-0.96
-0.935
-0.94
-0.935
-0.925
-0.915
-0.92
-0.925
-0.915
-0.925
-0.915
-0.91
-0.885
-0.895
-0.875
-0.865
-0.87
-0.84
-0.855
-0.86
-0.855
-0.85
-0.835
-0.825
-0.81
-0.815
-0.805
-0.795
-0.81
-0.815
-0.83
-0.83
-0.845
-0.86
-0.865
-0.89
-0.9
-0.905
-0.91
-0.905
-0.9
-0.915
-0.915
-0.925
-0.94
-0.955
-0.975
-0.98
-0.98
-0.975
-0.97
-0.97
-0.965
-0.96
-0.96
-0.955
-0.96
-0.97
-0.975
-0.975
-0.98
-0.975
-0.965
-0.945
-0.935
-0.93
-0.925
-0.925
-0.91
-0.895
-0.865
-0.81
-0.715
-0.605
-0.47
-0.315
-0.18
-0.09
-0.07
-0.135
-0.295
-0.46
-0.625
-0.775
-0.935
-1.105
-1.26
-1.35
-1.375
-1.35
-1.3
-1.27
-1.245
-1.235
-1.205
-1.17
-1.14
-1.1
-1.08
-1.055
-1.035
-1.03
-1.03
-1.03
-1.03
-1.03
-1.025
-1.035
-1.045
-1.045
-1.03
-1.035
-1.025
-1.025
-1.035
-1.025
-1.02
-1.025
-1.035
-1.035
-1.055
-1.05
-1.06
-1.065
-1.065
-1.055
-1.05
-1.055
-1.065
-1.065
-1.065
-1.085
-1.09
-1.09
-1.085
-1.08
-1.075
-1.06
-1.06
-1.07
-1.075
-1.075
-1.09
-1.095
-1.1
-1.1
-1.105
-1.1
-1.1
-1.09
-1.095
-1.1
-1.1
-1.105
-1.125
-1.125
-1.135
-1.14
-1.15
-1.14
-1.14
-1.115
-1.115
-1.12
-1.12
-1.125
-1.12
-1.13
-1.13
-1.115
-1.1
-1.075
-1.065
-1.05
-1.045
-1.045
-1.045
-1.045
-1.04
-1.03
-1.02
-1.0
-0.975
-0.96
-0.93
-0.905
-0.87
-0.85
-0.85
-0.825
-0.81
-0.805
-0.785
-0.785
-0.77
-0.755
-0.755
-0.745
-0.725
-0.73
-0.73
-0.735
-0.74
-0.745
-0.745
-0.745
-0.735
-0.72
-0.725
-0.725
-0.72
-0.72
-0.745
-0.75
-0.755
-0.765
-0.765
-0.77
-0.77
-0.76
-0.76
-0.755
-0.75
-0.755
-0.765
-0.76
-0.78
-0.785
-0.785
-0.78
-0.78
-0.775
-0.775
-0.765
-0.755
-0.775
-0.765
-0.77
-0.77
-0.775
-0.775
-0.775
-0.785
-0.775
-0.785
-0.775
-0.785
-0.785
-0.795
-0.785
-0.78
-0.79
-0.8
-0.79
-0.8
-0.79
-0.78
-0.785
-0.77
-0.77
-0.77
-0.785
-0.78
-0.78
-0.775
-0.77
-0.765
-0.745
-0.74
-0.715
-0.715
-0.705
-0.71
-0.71
-0.705
-0.725
-0.72
-0.72
-0.695
-0.69
-0.68
-0.67
-0.68
-0.675
-0.69
-0.705
-0.71
-0.735
-0.75
-0.76
-0.755
-0.76
-0.76
-0.78
-0.78
-0.795
-0.815
-0.82
-0.835
-0.85
-0.865
-0.86
-0.86
-0.87
-0.87
-0.85
-0.85
-0.84
-0.835
-0.845
-0.855
-0.865
-0.865
-0.86
-0.87
-0.855
-0.855
-0.84
-0.835
-0.83
-0.84
-0.85
-0.845
-0.835
-0.81
-0.765
-0.7
-0.61
-0.515
-0.4
-0.26
-0.14
-0.05
-0.005
-0.01
-0.12
-0.245
-0.41
-0.565
-0.685
-0.835
-0.99
-1.13
-1.23
-1.285
-1.27
-1.23
-1.19
-1.14
-1.09
-1.035
-1.0
-0.985
-0.975
-0.97
-0.955
-0.965
-0.95
-0.965
-0.97
-0.97
-0.965
-0.97
-0.97
-0.975
-0.96
-0.965
-0.975
-0.97
-0.995
-0.985
-0.99
-0.995
-0.99
-0.98
-0.985
-0.985
-0.97
-0.965
-0.965
-0.98
-0.98
-0.995
-1.0
-1.01
-1.01
-1.005
-1.0
-0.99
-1.0
-0.995
-1.015
-1.015
-1.025
-1.035
-1.04
-1.045
-1.045
-1.045
-1.045
-1.045
-1.04
-1.045
-1.04
-1.045
-1.06
-1.07
-1.075
-1.09
-1.075
-1.075
-1.065
-1.075
-1.08
-1.07
-1.075
-1.09
-1.1
-1.09
-1.1
-1.095
-1.095
-1.08
-1.07
-1.065
-1.055
-1.065
-1.06
-1.055
-1.06
-1.055
-1.055
-1.045
-1.015
-0.99
-0.975
-0.97
-0.95
-0.925
-0.905
-0.89
-0.875
-0.835
-0.815
-0.81
-0.79
-0.765
-0.75
-0.725
-0.715
-0.695
-0.695
-0.695
-0.7
-0.705
-0.71
-0.72
-0.705
-0.695
-0.695
-0.705
-0.7
-0.69
-0.71
-0.705
-0.715
-0.725
-0.73
-0.745
-0.745
-0.745
-0.755
-0.735
-0.73
-0.735
-0.74
-0.75
-0.745
-0.765
-0.765
-0.775
-0.785
-0.76
-0.755
-0.755
-0.755
-0.76
-0.765
-0.78
-0.785
-0.78
-0.79
-0.785
-0.785
-0.765
-0.775
-0.785
-0.77
-0.755
-0.765
-0.765
-0.765
-0.785
-0.79
-0.8
-0.8
-0.8
-0.785
-0.785
-0.775
-0.765
-0.77
-0.765
-0.77
-0.76
-0.765
-0.75
-0.735
-0.73
-0.705
-0.69
-0.68
-0.675
-0.68
-0.69
-0.705
-0.7
-0.695
-0.69
-0.68
-0.67
-0.665
-0.67
-0.675
-0.695
-0.695
-0.71
-0.735
-0.75
-0.765
-0.78
-0.78
-0.79
-0.805
-0.8
-0.795
-0.795
-0.805
-0.83
-0.855
-0.855
-0.865
-0.865
-0.87
-0.865
-0.85
-0.845
-0.83
-0.835
-0.84
-0.835
-0.84
-0.86
-0.85
-0.845
-0.855
-0.84
-0.84
-0.84
-0.84
-0.82
-0.83
-0.825
-0.81
-0.775
-0.695
-0.595
-0.455
-0.3
-0.135
-0.03
-0.005
-0.085
-0.22
-0.39
-0.56
-0.745
-0.925
-1.115
-1.255
-1.31
-1.32
-1.28
-1.23
-1.155
-1.09
-1.055
-1.03
-1.015
-1.01
-1.01
-1.015
-1.015
-0.99
-0.985
-0.965
-0.95
-0.955
-0.96
-0.97
-0.975
-0.985
-0.99
-0.99
-0.98
-0.985
-0.97
-0.95
-0.955
-0.965
-0.955
-0.97
-0.965
-0.985
-0.99
-0.99
-1.0
-1.0
-0.99
-0.99
-0.995
-1.015
-1.005
-1.005
-1.02
-1.03
-1.04
-1.045
-1.04
-1.03
-1.03
-1.025
-1.02
-1.03
-1.035
-1.05
-1.055
-1.07
-1.065
-1.06
-1.07
-1.06
-1.065
-1.055
-1.06
-1.07
-1.07
-1.085
-1.085
-1.095
-1.095
-1.095
-1.095
-1.08
-1.075
-1.075
-1.07
-1.075
-1.06
-1.06
-1.05
-1.055
-1.055
-1.045
-1.04
-1.03
-1.025
-1.01
-0.995
-0.975
-0.955
-0.94
-0.93
-0.915
-0.89
-0.865
-0.84
-0.81
-0.785
-0.77
-0.75
-0.735
-0.73
-0.715
-0.73
-0.72
-0.735
-0.725
-0.73
-0.71
-0.7
-0.7
-0.705
-0.705
-0.72
-0.725
-0.72
-0.735
-0.74
-0.73
-0.735
-0.74
-0.74
-0.745
-0.73
-0.74
-0.74
-0.76
-0.76
-0.76
-0.765
-0.775
-0.775
-0.76
-0.765
-0.77
-0.755
-0.775
-0.775
-0.775
-0.775
-0.79
-0.8
-0.775
-0.78
-0.8
-0.785
-0.785
-0.785
-0.795
-0.805
-0.81
-0.815
-0.82
-0.82
-0.815
-0.8
-0.79
-0.785
-0.785
-0.775
-0.785
-0.78
-0.785
-0.79
-0.79
-0.8
-0.79
-0.78
-0.775
-0.76
-0.75
-0.73
-0.735
-0.725
-0.71
-0.715
-0.715
-0.71
-0.715
-0.72
-0.715
-0.705
-0.7
-0.69
-0.68
-0.69
-0.68
-0.685
-0.685
-0.685
-0.685
-0.705
-0.7
-0.695
-0.7
-0.7
-0.73
-0.755
-0.765
-0.795
-0.805
-0.815
-0.82
-0.835
-0.835
-0.835
-0.835
-0.84
-0.84
-0.845
-0.86
-0.875
-0.885
-0.885
-0.89
-0.88
-0.88
-0.865
-0.86
-0.855
-0.85
-0.855
-0.86
-0.86
-0.86
-0.87
-0.855
-0.85
-0.84
-0.82
-0.8
-0.75
-0.695
-0.63
-0.535
-0.425
-0.305
-0.19
-0.085
-0.055
-0.095
-0.2
-0.345
-0.475
-0.62
-0.75
-0.895
-1.06
-1.21
-1.315
-1.335
-1.33
-1.28
-1.24
-1.2
-1.14
-1.1
-1.07
-1.045
-1.035
-1.025
-1.025
-1.005
-0.99
-0.985
-0.975
-0.96
-0.95
-0.96
-0.97
-0.975
-0.975
-0.985
-0.99
-0.995
-0.99
-0.985
-0.98
-0.97
-0.97
-0.98
-0.98
-0.99
-0.995
-0.995
-1.01
-1.01
-1.01
-1.005
-0.99
-0.985
-0.985
-0.985
-0.985
-0.995
-0.99
-1.0
-1.01
-1.025
-1.025
-1.03
-1.03
-1.035
-1.035
-1.025
-1.045
-1.045
-1.055
-1.065
-1.07
-1.07
-1.075
-1.08
-1.08
-1.075
-1.07
-1.07
-1.075
-1.095
-1.095
-1.105
-1.11
-1.11
-1.105
-1.105
-1.095
-1.075
-1.065
-1.065
-1.07
-1.07
-1.07
-1.07
-1.06
-1.05
-1.04
-1.025
-1.025
-1.02
-1.01
-1.0
-0.985
-0.985
-0.985
-0.96
-0.95
-0.925
-0.895
-0.865
-0.835
-0.815
-0.805
-0.78
-0.765
-0.75
-0.76
-0.755
-0.745
-0.74
-0.745
-0.73
-0.725
-0.725
-0.72
-0.715
-0.73
-0.73
-0.735
-0.75
-0.755
-0.755
-0.75
-0.755
-0.755
-0.755
-0.77
-0.765
-0.775
-0.775
-0.78
-0.79
-0.785
-0.79
-0.785
-0.78
-0.785
-0.78
-0.78
-0.79
-0.8
-0.805
-0.81
-0.82
-0.825
-0.82
-0.81
-0.82
-0.82
-0.815
-0.8
-0.795
-0.795
-0.795
-0.8
-0.805
-0.82
-0.82
-0.815
-0.81
-0.8
-0.795
-0.795
-0.8
-0.795
-0.795
-0.8
-0.805
-0.815
-0.82
-0.835
-0.81
-0.795
-0.78
-0.775
-0.775
-0.765
-0.76
-0.75
-0.75
-0.745
-0.745
-0.74
-0.735
-0.725
-0.735
-0.71
-0.695
-0.68
-0.675
-0.685
-0.69
-0.7
-0.72
-0.73
-0.74
-0.73
-0.735
-0.74
-0.755
-0.77
-0.78
-0.805
-0.825
-0.86
-0.855
-0.87
-0.875
-0.88
-0.875
-0.86
-0.86
-0.87
-0.885
-0.895
-0.89
-0.895
-0.89
-0.885
-0.87
-0.865
-0.865
-0.87
-0.88
-0.88
-0.875
-0.89
-0.885
-0.875
-0.88
-0.87
-0.86
-0.85
-0.84
-0.805
-0.75
-0.68
-0.585
-0.475
-0.335
-0.22
-0.145
-0.135
-0.21
-0.35
-0.505
-0.66
-0.845
-1.04
-1.22
-1.32
-1.35
-1.32
-1.275
-1.21
-1.175
-1.115
-1.08
-1.06
-1.035
-1.02
-1.01
-1.015
-1.0
-1.015
-1.005
-1.005
-1.01
-1.005
-0.99
-0.98
-0.985
-0.995
-1.005
-1.005
-1.01
-1.025
-1.015
-1.02
-1.015
-1.0
-1.015
-1.005
-1.0
-1.01
-1.025
-1.025
-1.035
-1.035
-1.04
-1.045
-1.025
-1.02
-1.035
-1.025
-1.03
-1.005
-1.015
-1.05
-1.055
-1.06
-1.065
-1.08
-1.07
-1.06
-1.06
-1.055
-1.07
-1.065
-1.075
-1.09
-1.09
-1.095
-1.095
-1.095
-1.075
-1.08
-1.08
-1.065
-1.07
-1.085
-1.1
-1.1
-1.095
-1.105
-1.1
-1.09
-1.095
-1.085
-1.085
-1.08
-1.085
-1.08
-1.09
-1.085
-1.085
-1.08
-1.075
-1.065
-1.05
-1.035
-1.01
-0.985
-0.975
-0.965
-0.95
-0.945
-0.93
-0.91
-0.915
-0.895
-0.88
-0.85
-0.825
-0.785
-0.775
-0.765
-0.76
-0.75
-0.75
-0.745
-0.745
-0.755
-0.745
-0.73
-0.73
-0.735
-0.74
-0.745
-0.76
-0.765
-0.77
-0.78
-0.79
-0.79
-0.79
-0.785
-0.785
-0.78
-0.79
-0.795
-0.805
-0.815
-0.83
-0.83
-0.835
-0.82
-0.825
-0.82
-0.825
-0.805
-0.805
-0.82
-0.825
-0.825
-0.835
-0.835
-0.845
-0.84
-0.83
-0.83
-0.82
-0.82
-0.83
-0.84
-0.845
-0.875
-0.88
-0.875
-0.875
-0.87
-0.87
-0.865
-0.87
-0.845
-0.845
-0.855
-0.85
-0.865
-0.85
-0.855
-0.855
-0.855
-0.845
-0.84
-0.83
-0.815
-0.815
-0.8
-0.795
-0.81
-0.8
-0.79
-0.795
-0.785
-0.77
-0.765
-0.76
-0.76
-0.755
-0.75
-0.74
-0.75
-0.755
-0.755
-0.77
-0.78
-0.765
-0.785
-0.77
-0.78
-0.785
-0.795
-0.81
-0.815
-0.83
-0.85
-0.865
-0.875
-0.87
-0.885
-0.88
-0.88
-0.895
-0.895
-0.905
-0.915
-0.925
-0.92
-0.925
-0.925
-0.915
-0.9
-0.895
-0.885
-0.895
-0.9
-0.9
-0.91
-0.92
-0.93
-0.92
-0.935
-0.925
-0.905
-0.88
-0.845
-0.8
-0.73
-0.66
-0.565
-0.45
-0.345
-0.255
-0.185
-0.18
-0.225
-0.325
-0.44
-0.56
-0.69
-0.85
-1.03
-1.185
-1.275
-1.3
-1.28
-1.23
-1.195
-1.19
-1.185
-1.165
-1.15
-1.115
-1.095
-1.075
-1.05
-1.04
-1.03
-1.04
-1.025
-1.03
-1.01
-1.03
-1.025
-1.03
-1.04
-1.045
-1.055
-1.055
-1.065
-1.05
-1.035
-1.025
-1.02
-1.03
-1.035
-1.045
-1.055
-1.055
-1.065
-1.08
-1.075
-1.065
-1.065
-1.07
-1.065
-1.065
-1.07
-1.07
-1.08
-1.1
-1.1
-1.1
-1.085
-1.085
-1.08
-1.085
-1.075
-1.085
-1.08
-1.09
-1.095
-1.095
-1.09
-1.095
-1.095
-1.105
-1.085
-1.095
-1.095
-1.1
-1.105
-1.12
-1.13
-1.145
-1.145
-1.145
-1.135
-1.13
-1.13
-1.11
-1.095
-1.085
-1.085
-1.09
-1.085
-1.09
-1.085
-1.08
-1.065
-1.055
-1.04
-1.025
-1.015
-1.01
-1.015
-1.02
-1.01
-0.99
-0.98
-0.96
-0.94
-0.91
-0.905
-0.88
-0.85
-0.855
-0.84
-0.82
-0.8
-0.8
-0.805
-0.8
-0.81
-0.815
-0.82
-0.815
-0.795
-0.81
-0.815
-0.81
-0.825
-0.835
-0.84
-0.85
-0.865
-0.86
-0.855
-0.85
-0.85
-0.845
-0.84
-0.855
-0.875
-0.88
-0.885
-0.895
-0.895
-0.895
-0.875
-0.87
-0.86
-0.86
-0.88
-0.875
-0.88
-0.9
-0.895
-0.91
-0.92
-0.915
-0.9
-0.89
-0.89
-0.89
-0.9
-0.905
-0.92
-0.9
-0.905
-0.905
-0.905
-0.9
-0.91
-0.91
-0.9
-0.895
-0.895
-0.89
-0.89
-0.9
-0.905
-0.915
-0.915
-0.925
-0.92
-0.92
-0.905
-0.9
-0.895
-0.875
-0.865
-0.855
-0.865
-0.865
-0.85
-0.855
-0.845
-0.855
-0.845
-0.845
-0.835
-0.835
-0.83
-0.84
-0.835
-0.82
-0.82
-0.82
-0.82
-0.82
-0.825
-0.825
-0.84
-0.86
-0.88
-0.895
-0.91
-0.925
-0.94
-0.935
-0.945
-0.95
-0.955
-0.965
-0.985
-0.985
-1.015
-1.02
-1.03
-1.02
-1.005
-1.0
-0.98
-0.97
-0.965
-0.97
-0.975
-0.98
-1.0
-1.0
-1.01
-1.025
-1.01
-1.005
-0.985
-0.97
-0.955
-0.945
-0.925
-0.905
-0.86
-0.805
-0.725
-0.635
-0.52
-0.395
-0.285
-0.205
-0.185
-0.24
-0.385
-0.545
-0.72
-0.905
-1.095
-1.275
-1.39
-1.415
-1.37
-1.31
-1.265
-1.255
-1.245
-1.235
-1.215
-1.195
-1.17
-1.15
-1.135
-1.12
-1.11
-1.115
-1.105
-1.11
-1.12
-1.125
-1.135
-1.13
-1.13
-1.13
-1.13
-1.12
-1.11
-1.125
-1.115
-1.115
-1.12
-1.125
-1.15
-1.155
-1.145
-1.155
-1.155
-1.145
-1.145
-1.135
-1.12
-1.125
-1.13
-1.14
-1.145
-1.155
-1.165
-1.16
-1.17
-1.155
-1.155
-1.155
-1.15
-1.15
-1.16
-1.17
-1.18
-1.18
-1.185
-1.195
-1.19
-1.2
-1.2
-1.185
-1.185
-1.19
-1.2
-1.205
-1.22
-1.23
-1.235
-1.225
-1.23
-1.22
-1.2
-1.195
-1.19
-1.19
-1.19
-1.18
-1.19
-1.19
-1.21
-1.2
-1.19
-1.17
-1.155
-1.14
-1.125
-1.13
-1.13
-1.115
-1.11
-1.11
-1.105
-1.09
-1.07
-1.055
-1.02
-1.005
-0.985
-0.965
-0.955
-0.945
-0.94
-0.925
-0.915
-0.915
-0.9
-0.895
-0.87
-0.865
-0.845
-0.845
-0.85
-0.845
-0.85
-0.86
-0.865
-0.865
-0.87
-0.865
-0.87
-0.87
-0.865
-0.85
-0.86
-0.87
-0.88
-0.905
-0.9
-0.895
-0.9
-0.9
-0.91
-0.905
-0.895
-0.89
-0.895
-0.9
-0.905
-0.915
-0.925
-0.925
-0.94
-0.925
-0.92
-0.91
-0.91
-0.905
-0.91
-0.92
-0.92
-0.945
-0.935
-0.945
-0.93
-0.935
-0.925
-0.92
-0.925
-0.92
-0.925
-0.93
-0.935
-0.935
-0.93
-0.935
-0.93
-0.93
-0.935
-0.925
-0.925
-0.92
-0.915
-0.925
-0.925
-0.915
-0.92
-0.915
-0.905
-0.885
-0.875
-0.865
-0.865
-0.845
-0.85
-0.86
-0.875
-0.89
-0.885
-0.87
-0.855
-0.835
-0.815
-0.815
-0.785
-0.78
-0.795
-0.815
-0.82
-0.84
-0.855
-0.855
-0.86
-0.855
-0.86
-0.86
-0.88
-0.9
-0.92
-0.935
-0.945
-0.955
-0.97
-0.965
-0.97
-0.97
-0.96
-0.97
-0.965
-0.955
-0.96
-0.965
-0.975
-0.97
-0.995
-0.975
-0.975
-0.975
-0.97
-0.96
-0.955
-0.95
-0.95
-0.945
-0.95
-0.945
-0.925
-0.875
-0.81
-0.715
-0.6
-0.47
-0.33
-0.235
-0.17
-0.145
-0.22
-0.32
-0.485
-0.62
-0.755
-0.905
-1.06
-1.22
-1.33
-1.365
-1.345
-1.305
-1.27
-1.245
-1.24
-1.225
-1.19
-1.145
-1.115
-1.085
-1.055
-1.05
-1.05
-1.045
-1.055
-1.07
-1.075
-1.085
-1.075
-1.08
-1.07
-1.06
-1.06
-1.07
-1.065
-1.065
-1.07
-1.07
-1.08
-1.08
-1.08
-1.075
-1.07
-1.06
-1.05
-1.05
-1.055
-1.06
-1.07
-1.075
-1.085
-1.1
-1.105
-1.1
-1.095
-1.09
-1.08
-1.08
-1.085
-1.1
-1.115
-1.11
-1.14
-1.13
-1.135
-1.125
-1.12
-1.12
-1.125
-1.115
-1.115
-1.12
-1.125
-1.135
-1.145
-1.16
-1.155
-1.145
-1.145
-1.14
-1.13
-1.13
-1.14
-1.145
-1.145
-1.145
-1.15
-1.17
-1.165
-1.16
-1.14
-1.125
-1.12
-1.11
-1.1
-1.105
-1.1
-1.105
-1.1
-1.095
-1.07
-1.055
-1.035
-1.03
-1.005
-0.975
-0.955
-0.92
-0.915
-0.905
-0.885
-0.87
-0.855
-0.85
-0.825
-0.815
-0.79
-0.775
-0.77
-0.77
-0.78
-0.78
-0.775
-0.79
-0.785
-0.78
-0.79
-0.775
-0.77
-0.765
-0.775
-0.77
-0.775
-0.79
-0.8
-0.795
-0.805
-0.81
-0.8
-0.8
-0.79
-0.78
-0.77
-0.77
-0.775
-0.785
-0.815
-0.83
-0.835
-0.84
-0.835
-0.815
-0.805
-0.795
-0.795
-0.8
-0.795
-0.79
-0.81
-0.81
-0.8
-0.81
-0.805
-0.8
-0.8
-0.78
-0.78
-0.8
-0.81
-0.805
-0.81
-0.815
-0.825
-0.82
-0.805
-0.8
-0.785
-0.78
-0.79
-0.78
-0.79
-0.785
-0.8
-0.795
-0.785
-0.765
-0.765
-0.75
-0.735
-0.72
-0.725
-0.705
-0.705
-0.715
-0.72
-0.725
-0.705
-0.715
-0.695
-0.69
-0.69
-0.685
-0.705
-0.71
-0.715
-0.72
-0.74
-0.75
-0.75
-0.755
-0.765
-0.765
-0.77
-0.79
-0.795
-0.8
-0.815
-0.83
-0.845
-0.85
-0.855
-0.865
-0.86
-0.855
-0.85
-0.835
-0.845
-0.85
-0.855
-0.86
-0.88
-0.875
-0.865
-0.87
-0.865
-0.865
-0.855
-0.865
-0.865
-0.87
-0.87
-0.88
-0.885
-0.865
-0.855
-0.81
-0.735
-0.655
-0.565
-0.435
-0.325
-0.215
-0.125
-0.075
-0.075
-0.14
-0.26
-0.4
-0.55
-0.695
-0.84
-1.005
-1.145
-1.235
-1.25
-1.24
-1.215
-1.17
-1.13
-1.085
-1.06
-1.035
-1.035
-1.01
-1.005
-1.0
-0.99
-0.995
-0.995
-1.0
-1.005
-1.0
-0.995
-0.99
-0.97
-0.98
-0.98
-1.0
-1.005
-1.02
-1.04
-1.045
-1.04
-1.035
-1.045
-1.02
-1.01
-1.01
-1.01
-1.03
-1.04
-1.045
-1.06
-1.055
-1.055
-1.055
-1.055
-1.06
-1.055
-1.035
-1.04
-1.035
-1.045
-1.055
-1.055
-1.065
-1.08
-1.095
-1.095
-1.08
-1.07
-1.075
-1.08
-1.085
-1.1
-1.1
-1.105
-1.12
-1.12
-1.12
-1.115
-1.115
-1.11
-1.11
-1.13
-1.15
-1.16
-1.17
-1.17
-1.18
-1.16
-1.155
-1.145
-1.12
-1.115
-1.1
-1.095
-1.095
-1.095
-1.095
-1.095
-1.09
-1.07
-1.06
-1.025
-1.025
-0.99
-0.97
-0.955
-0.94
-0.915
-0.89
-0.88
-0.86
-0.86
-0.82
-0.805
-0.81
-0.795
-0.785
-0.8
-0.795
-0.8
-0.785
-0.79
-0.785
-0.78
-0.785
-0.78
-0.78
-0.78
-0.77
-0.78
-0.785
-0.795
-0.81
-0.805
-0.805
-0.8
-0.805
-0.8
-0.805
-0.805
-0.805
-0.81
-0.81
-0.81
-0.815
-0.83
-0.835
-0.84
-0.835
-0.84
-0.84
-0.835
-0.835
-0.835
-0.83
-0.84
-0.84
-0.85
-0.85
-0.86
-0.86
-0.845
-0.84
-0.835
-0.82
-0.82
-0.82
-0.835
-0.84
-0.855
-0.86
-0.855
-0.86
-0.845
-0.84
-0.835
-0.815
-0.825
-0.825
-0.83
-0.83
-0.83
-0.84
-0.81
-0.8
-0.79
-0.785
-0.775
-0.755
-0.76
-0.765
-0.77
-0.775
-0.775
-0.79
-0.775
-0.76
-0.75
-0.745
-0.725
-0.73
-0.73
-0.74
-0.75
-0.765
-0.785
-0.795
-0.795
-0.805
-0.805
-0.815
-0.82
-0.825
-0.84
-0.845
-0.865
-0.87
-0.885
-0.89
-0.905
-0.905
-0.895
-0.885
-0.9
-0.9
-0.89
-0.9
-0.915
-0.92
-0.95
-0.945
-0.925
-0.91
-0.905
-0.895
-0.89
-0.88
-0.875
-0.87
-0.85
-0.815
-0.755
-0.685
-0.595
-0.475
-0.355
-0.23
-0.14
-0.09
-0.12
-0.22
-0.36
-0.51
-0.675
-0.835
-1.0
-1.15
-1.28
-1.325
-1.33
-1.3
-1.27
-1.225
-1.18
-1.15
-1.12
-1.105
-1.08
-1.065
-1.055
-1.035
-1.03
-1.015
-1.01
-1.015
-1.01
-1.02
-1.035
-1.035
-1.035
-1.03
-1.025
-1.015
-1.015
-1.015
-1.02
-1.03
-1.03
-1.04
-1.04
-1.06
-1.055
-1.05
-1.055
-1.045
-1.04
-1.04
-1.065
-1.07
-1.065
-1.065
-1.07
-1.07
-1.085
-1.09
-1.085
-1.08
-1.075
-1.07
-1.065
-1.07
-1.09
-1.105
-1.115
-1.125
-1.125
-1.12
-1.12
-1.115
-1.12
-1.115
-1.135
-1.145
-1.14
-1.16
-1.165
-1.17
-1.185
-1.18
-1.16
-1.155
-1.14
-1.145
-1.135
-1.135
-1.14
-1.135
-1.145
-1.13
-1.13
-1.12
-1.105
-1.1
-1.095
-1.075
-1.065
-1.05
-1.04
-1.025
-1.025
-1.02
-1.015
-0.99
-0.96
-0.935
-0.91
-0.885
-0.87
-0.85
-0.86
-0.84
-0.825
-0.82
-0.815
-0.8
-0.79
-0.795
-0.78
-0.745
-0.76
-0.77
-0.77
-0.77
-0.785
-0.785
-0.79
-0.785
-0.79
-0.78
-0.77
-0.775
-0.78
-0.775
-0.785
-0.795
-0.805
-0.805
-0.805
-0.815
-0.805
-0.815
-0.81
-0.795
-0.795
-0.795
-0.805
-0.825
-0.825
-0.84
-0.835
-0.835
-0.82
-0.825
-0.825
-0.805
-0.805
-0.8
-0.815
-0.83
-0.825
-0.825
-0.825
-0.815
-0.82
-0.81
-0.81
-0.805
-0.81
-0.82
-0.82
-0.83
-0.83
-0.835
-0.845
-0.845
-0.845
-0.835
-0.825
-0.8
-0.805
-0.805
-0.8
-0.79
-0.805
-0.805
-0.785
-0.775
-0.77
-0.755
-0.75
-0.73
-0.725
-0.73
-0.735
-0.745
-0.735
-0.74
-0.735
-0.725
-0.725
-0.715
-0.725
-0.73
-0.75
-0.75
-0.76
-0.78
-0.8
-0.82
-0.825
-0.835
-0.84
-0.84
-0.84
-0.84
-0.85
-0.86
-0.865
-0.88
-0.885
-0.895
-0.895
-0.89
-0.9
-0.885
-0.88
-0.88
-0.865
-0.88
-0.875
-0.88
-0.885
-0.88
-0.885
-0.875
-0.865
-0.87
-0.855
-0.86
-0.86
-0.86
-0.86
-0.835
-0.8
-0.755
-0.695
-0.625
-0.535
-0.41
-0.295
-0.18
-0.11
-0.08
-0.105
-0.195
-0.32
-0.47
-0.6
-0.73
-0.86
-1.005
-1.145
-1.26
-1.34
-1.35
-1.33
-1.29
-1.24
-1.19
-1.15
-1.1
-1.07
-1.045
-1.035
-1.02
-1.0
-0.99
-0.985
-0.985
-0.985
-1.0
-1.015
-1.015
-1.025
-1.02
-1.01
-1.015
-1.005
-0.995
-1.005
-1.0
-1.015
-1.035
-1.035
-1.025
-1.01
-1.005
-0.995
-1.0
-0.99
-1.0
-1.01
-1.01
-1.015
-1.015
-1.015
-1.02
-1.01
-1.01
-1.01
-1.01
-1.025
-1.035
-1.04
-1.05
-1.07
-1.07
-1.07
-1.07
-1.06
-1.055
-1.045
-1.05
-1.065
-1.07
-1.08
-1.075
-1.08
-1.08
-1.09
-1.085
-1.07
-1.08
-1.075
-1.06
-1.08
-1.085
-1.095
-1.085
-1.09
-1.085
-1.1
-1.105
-1.105
-1.095
-1.085
-1.075
-1.08
-1.055
-1.07
-1.06
-1.065
-1.06
-1.05
-1.035
-1.015
-0.99
-0.965
-0.945
-0.93
-0.9
-0.895
-0.875
-0.865
-0.84
-0.82
-0.81
-0.795
-0.77
-0.75
-0.735
-0.72
-0.725
-0.725
-0.72
-0.725
-0.72
-0.735
-0.735
-0.715
-0.715
-0.715
-0.71
-0.715
-0.72
-0.745
-0.765
-0.765
-0.765
-0.785
-0.775
-0.79
-0.78
-0.765
-0.755
-0.765
-0.77
-0.77
-0.77
-0.78
-0.8
-0.795
-0.8
-0.795
-0.775
-0.77
-0.765
-0.765
-0.77
-0.78
-0.795
-0.8
-0.795
-0.82
-0.815
-0.8
-0.795
-0.78
-0.775
-0.79
-0.795
-0.8
-0.8
-0.81
-0.81
-0.805
-0.815
-0.815
-0.815
-0.795
-0.785
-0.795
-0.79
-0.79
-0.79
-0.785
-0.775
-0.79
-0.77
-0.755
-0.74
-0.72
-0.71
-0.705
-0.72
-0.71
-0.725
-0.72
-0.715
-0.715
-0.72
-0.695
-0.68
-0.68
-0.665
-0.67
-0.68
-0.69
-0.705
-0.73
-0.74
-0.75
-0.765
-0.75
-0.76
-0.775
-0.755
-0.765
-0.785
-0.785
-0.795
-0.815
-0.83
-0.845
-0.845
-0.85
-0.85
-0.845
-0.84
-0.85
-0.855
-0.855
-0.865
-0.875
-0.875
-0.87
-0.885
-0.86
-0.855
-0.855
-0.835
-0.84
-0.855
-0.845
-0.855
-0.855
-0.845
-0.835
-0.785
-0.715
-0.62
-0.49
-0.36
-0.225
-0.115
-0.06
-0.085
-0.2
-0.355
-0.53
-0.695
-0.85
-1.02
-1.19
-1.295
-1.35
-1.34
-1.305
-1.245
-1.19
-1.135
-1.085
-1.055
-1.03
-1.025
-1.005
-0.985
-0.975
-0.965
-0.97
-0.975
-0.975
-0.975
-0.98
-0.98
-0.975
-0.975
-0.97
-0.95
-0.95
-0.96
-0.97
-0.98
-0.98
-1.005
-1.015
-1.02
-1.0
-0.99
-0.985
-0.98
-0.985
-0.98
-0.99
-1.0
-0.995
-1.005
-1.01
-1.01
-1.015
-1.01
-1.005
-0.995
-1.0
-1.015
-1.01
-1.025
-1.035
-1.035
-1.04
-1.045
-1.04
-1.04
-1.035
-1.02
-1.04
-1.055
-1.06
-1.045
-1.045
-1.05
-1.065
-1.065
-1.055
-1.055
-1.055
-1.065
-1.075
-1.075
-1.08
-1.09
-1.09
-1.095
-1.115
-1.095
-1.095
-1.08
-1.075
-1.05
-1.04
-1.04
-1.04
-1.03
-1.015
-1.015
-1.01
-1.005
-0.985
-0.96
-0.93
-0.905
-0.885
-0.865
-0.855
-0.84
-0.82
-0.805
-0.795
-0.775
-0.755
-0.75
-0.72
-0.71
-0.715
-0.705
-0.705
-0.72
-0.725
-0.74
-0.74
-0.73
-0.74
-0.73
-0.72
-0.715
-0.725
-0.73
-0.735
-0.735
-0.76
-0.755
-0.77
-0.77
-0.755
-0.75
-0.745
-0.74
-0.75
-0.755
-0.76
-0.76
-0.76
-0.765
-0.79
-0.785
-0.795
-0.79
-0.785
-0.765
-0.765
-0.77
-0.785
-0.775
-0.78
-0.795
-0.8
-0.795
-0.79
-0.795
-0.785
-0.78
-0.78
-0.795
-0.795
-0.795
-0.805
-0.81
-0.815
-0.795
-0.79
-0.77
-0.77
-0.76
-0.76
-0.765
-0.78
-0.785
-0.795
-0.795
-0.79
-0.78
