Lead II
0.09
0.09
0.115
0.12
0.1
0.08
0.085
0.13
0.185
0.175
0.165
0.12
0.085
0.085
0.1
0.115
0.12
0.125
0.135
0.14
0.145
0.14
0.13
0.12
0.09
0.095
0.115
0.12
0.1
0.09
0.105
0.15
0.15
0.11
0.07
0.05
0.1
0.14
0.155
0.15
0.145
0.135
0.14
0.135
0.13
0.12
0.12
0.095
0.09
0.105
0.105
0.085
0.065
0.07
0.1
0.13
0.155
0.15
0.145
0.13
0.12
0.095
0.095
0.105
0.1
0.095
0.08
0.075
0.1
0.115
0.135
0.125
0.085
0.065
0.07
0.085
0.1
0.1
0.085
0.1
0.13
0.155
0.15
0.115
0.095
0.09
0.115
0.125
0.105
0.105
0.13
0.175
0.18
0.155
0.15
0.175
0.205
0.175
0.16
0.16
0.175
0.17
0.125
0.11
0.095
0.14
0.195
0.2
0.185
0.19
0.2
0.21
0.175
0.165
0.15
0.15
0.13
0.125
0.1
0.105
0.11
0.115
0.125
0.125
0.12
0.135
0.13
0.14
0.105
0.095
0.08
0.12
0.165
0.145
0.11
0.08
0.095
0.12
0.125
0.125
0.135
0.135
0.12
0.08
0.09
0.11
0.135
0.12
0.105
0.1
0.105
0.16
0.245
0.285
0.295
0.32
0.42
0.515
0.595
0.685
0.805
0.94
1.105
1.275
1.43
1.575
1.69
1.81
1.945
2.045
2.055
1.88
1.475
1.0
0.65
0.495
0.415
0.315
0.22
0.18
0.2
0.205
0.16
0.095
0.04
0.03
0.055
0.07
0.065
0.045
0.025
0.03
0.045
0.05
0.075
0.065
0.0
-0.02
-0.01
0.02
0.03
0.01
0.0
0.005
0.025
0.035
0.03
0.005
-0.01
0.005
0.03
0.035
0.035
0.025
0.02
0.0
-0.025
-0.06
-0.065
-0.075
-0.06
-0.055
-0.04
0.01
0.035
0.02
-0.005
-0.05
-0.09
-0.06
-0.015
0.025
0.01
-0.045
-0.095
-0.12
-0.09
-0.055
-0.05
-0.055
-0.055
-0.085
-0.07
-0.06
-0.065
-0.08
-0.07
-0.065
-0.06
-0.1
-0.13
-0.135
-0.085
-0.03
-0.01
-0.03
-0.035
-0.03
-0.005
0.03
0.075
0.1
0.14
0.145
0.145
0.145
0.165
0.185
0.195
0.2
0.2
0.205
0.23
0.255
0.24
0.235
0.26
0.29
0.31
0.27
0.22
0.195
0.21
0.255
0.225
0.19
0.155
0.155
0.175
0.21
0.225
0.23
0.215
0.215
0.21
0.21
0.19
0.205
0.18
0.165
0.15
0.185
0.22
0.225
0.18
0.145
0.145
0.175
0.195
0.2
0.205
0.18
0.15
0.14
0.17
0.19
0.15
0.155
0.175
0.205
0.205
0.185
0.16
0.145
0.135
0.16
0.18
0.185
0.16
0.165
0.22
0.23
0.17
0.095
0.075
0.105
0.16
0.185
0.195
0.16
0.14
0.13
0.14
0.17
0.18
0.17
0.16
0.15
0.155
0.12
0.095
0.085
0.105
0.135
0.15
0.15
0.115
0.105
0.12
0.12
0.155
0.165
0.135
0.095
0.08
0.105
0.145
0.16
0.155
0.115
0.095
0.07
0.085
0.12
0.14
0.145
0.14
0.105
0.11
0.12
0.155
0.16
0.11
0.09
0.095
0.11
0.14
0.14
0.145
0.16
0.18
0.19
0.18
0.19
0.185
0.145
0.145
0.16
0.2
0.215
0.195
0.145
0.125
0.14
0.175
0.2
0.185
0.19
0.21
0.22
0.215
0.17
0.125
0.13
0.175
0.225
0.23
0.185
0.15
0.12
0.11
0.11
0.14
0.125
0.09
0.085
0.11
0.11
0.1
0.08
0.09
0.085
0.085
0.075
0.09
0.1
0.11
0.1
0.11
0.105
0.12
0.105
0.055
0.05
0.08
0.105
0.115
0.115
0.12
0.135
0.145
0.17
0.185
0.175
0.17
0.215
0.28
0.365
0.435
0.5
0.6
0.735
0.915
1.09
1.25
1.375
1.48
1.57
1.7
1.84
1.95
1.96
1.75
1.385
0.935
0.635
0.53
0.4
0.25
0.135
0.09
0.115
0.14
0.115
0.06
0.035
0.035
0.03
0.025
0.01
-0.02
-0.03
-0.035
-0.03
-0.02
-0.01
-0.03
-0.04
-0.04
-0.035
-0.025
-0.025
-0.04
-0.055
-0.06
-0.06
-0.035
-0.045
-0.06
-0.075
-0.08
-0.075
-0.075
-0.095
-0.105
-0.1
-0.09
-0.07
-0.06
-0.06
-0.065
-0.085
-0.11
-0.125
-0.145
-0.13
-0.11
-0.12
-0.095
-0.09
-0.09
-0.12
-0.14
-0.15
-0.115
-0.1
-0.105
-0.125
-0.155
-0.19
-0.185
-0.175
-0.155
-0.175
-0.17
-0.16
-0.165
-0.17
-0.19
-0.185
-0.195
-0.165
-0.13
-0.135
-0.175
-0.23
-0.25
-0.21
-0.135
-0.11
-0.11
-0.145
-0.17
-0.16
-0.12
-0.065
-0.02
0.0
-0.025
-0.055
-0.045
-0.03
0.02
0.055
0.065
0.08
0.09
0.115
0.12
0.11
0.1
0.1
0.13
0.135
0.11
0.095
0.085
0.085
0.05
0.035
0.025
0.065
0.1
0.08
0.045
0.01
0.01
0.02
0.03
0.035
0.045
0.04
0.02
-0.005
-0.025
-0.03
-0.015
0.0
0.01
0.005
0.01
-0.02
-0.015
-0.005
0.0
-0.015
-0.055
-0.06
-0.035
-0.035
-0.02
-0.02
-0.04
-0.06
-0.045
-0.05
-0.03
-0.03
-0.04
-0.045
-0.055
-0.015
0.01
0.005
-0.025
-0.08
-0.11
-0.1
-0.06
-0.055
-0.065
-0.085
-0.07
-0.035
-0.015
-0.035
-0.04
-0.065
-0.08
-0.085
-0.065
-0.035
-0.04
-0.085
-0.09
-0.08
-0.065
-0.075
-0.085
-0.095
-0.085
-0.075
-0.055
-0.06
-0.085
-0.105
-0.105
-0.095
-0.115
-0.145
-0.13
-0.12
-0.13
-0.105
-0.085
-0.09
-0.11
-0.115
-0.11
-0.13
-0.14
-0.125
-0.125
-0.125
-0.125
-0.11
-0.105
-0.13
-0.155
-0.155
-0.14
-0.135
-0.1
-0.095
-0.1
-0.15
-0.195
-0.2
-0.16
-0.115
-0.11
-0.125
-0.135
-0.12
-0.12
-0.14
-0.17
-0.18
-0.17
-0.115
-0.085
-0.085
-0.115
-0.135
-0.14
-0.115
-0.1
-0.095
-0.105
-0.125
-0.14
-0.15
-0.145
-0.135
-0.14
-0.155
-0.16
-0.155
-0.125
-0.12
-0.13
-0.14
-0.14
-0.12
-0.13
-0.16
-0.185
-0.185
-0.175
-0.185
-0.17
-0.18
-0.19
-0.21
-0.225
-0.22
-0.22
-0.215
-0.2
-0.2
-0.19
-0.195
-0.23
-0.235
-0.215
-0.195
-0.22
-0.24
-0.26
-0.245
-0.22
-0.23
-0.235
-0.21
-0.2
-0.195
-0.215
-0.22
-0.215
-0.185
-0.16
-0.155
-0.1
-0.045
0.05
0.13
0.23
0.33
0.46
0.61
0.765
0.91
1.03
1.135
1.285
1.435
1.595
1.67
1.58
1.29
0.84
0.405
0.125
-0.02
-0.13
-0.215
-0.27
-0.305
-0.315
-0.3
-0.305
-0.305
-0.34
-0.395
-0.41
-0.39
-0.365
-0.36
-0.4
-0.425
-0.42
-0.38
-0.385
-0.425
-0.47
-0.495
-0.48
-0.445
-0.41
-0.41
-0.445
-0.46
-0.48
-0.475
-0.46
-0.45
-0.46
-0.495
-0.51
-0.49
-0.475
-0.475
-0.495
-0.51
-0.515
-0.505
-0.495
-0.51
-0.515
-0.515
-0.48
-0.46
-0.465
-0.495
-0.505
-0.52
-0.545
-0.52
-0.49
-0.465
-0.46
-0.485
-0.48
-0.505
-0.515
-0.545
-0.53
-0.515
-0.52
-0.535
-0.52
-0.495
-0.5
-0.58
-0.595
-0.54
-0.485
-0.485
-0.51
-0.515
-0.505
-0.46
-0.42
-0.375
-0.38
-0.39
-0.39
-0.325
-0.285
-0.285
-0.28
-0.27
-0.245
-0.235
-0.23
-0.225
-0.225
-0.225
-0.22
-0.21
-0.21
-0.24
-0.285
-0.315
-0.28
-0.26
-0.235
-0.235
-0.25
-0.27
-0.285
-0.255
-0.225
-0.255
-0.29
-0.29
-0.27
-0.23
-0.225
-0.215
-0.225
-0.24
-0.24
-0.22
-0.205
-0.2
-0.23
-0.24
-0.215
-0.185
-0.215
-0.255
-0.25
-0.235
-0.215
-0.195
-0.175
-0.17
-0.175
-0.18
-0.175
-0.14
-0.15
-0.185
-0.22
-0.21
-0.19
-0.14
-0.14
-0.18
-0.185
-0.18
-0.15
-0.12
-0.135
-0.165
-0.15
-0.125
-0.115
-0.085
-0.1
-0.115
-0.16
-0.165
-0.14
-0.115
-0.105
-0.115
-0.13
-0.14
-0.11
-0.09
-0.095
-0.125
-0.15
-0.14
-0.095
-0.045
-0.04
-0.075
-0.14
-0.13
-0.095
-0.05
-0.04
-0.09
-0.135
-0.125
-0.115
-0.08
-0.05
-0.055
-0.07
-0.075
-0.05
-0.055
-0.055
-0.08
-0.08
-0.05
-0.02
-0.015
-0.045
-0.1
-0.11
-0.09
-0.075
-0.05
-0.025
-0.025
-0.025
-0.005
0.02
0.02
0.02
0.02
0.01
0.0
0.015
0.05
0.07
0.07
0.025
0.01
0.03
0.045
0.06
0.06
0.035
0.02
0.06
0.1
0.125
0.11
0.075
0.08
0.11
0.13
0.14
0.125
0.09
0.06
0.05
0.055
0.05
0.03
0.005
0.01
0.045
0.06
0.055
0.02
0.0
0.015
0.045
0.065
0.065
0.02
0.015
0.02
0.035
0.04
0.04
0.01
0.015
0.015
0.055
0.045
0.025
0.01
0.05
0.055
0.055
0.075
0.11
0.125
0.15
0.18
0.25
0.325
0.4
0.485
0.6
0.74
0.94
1.12
1.285
1.39
1.495
1.625
1.805
1.98
2.09
2.065
1.89
1.505
1.04
0.675
0.45
0.32
0.225
0.16
0.135
0.1
0.085
0.075
0.07
0.07
0.055
0.045
0.03
0.01
0.01
-0.005
0.005
0.025
0.045
0.03
-0.005
-0.015
-0.015
0.01
-0.005
-0.02
-0.015
-0.015
-0.015
-0.015
-0.045
-0.06
-0.07
-0.065
-0.035
-0.03
-0.04
-0.045
-0.045
-0.06
-0.045
-0.015
-0.02
-0.035
-0.055
-0.065
-0.035
-0.01
-0.02
-0.045
-0.045
-0.055
-0.05
-0.04
-0.04
-0.03
-0.05
-0.055
-0.06
-0.055
-0.07
-0.08
-0.075
-0.045
-0.035
-0.025
-0.02
-0.015
-0.025
-0.07
-0.07
-0.07
-0.05
-0.075
-0.12
-0.155
-0.13
-0.09
-0.055
-0.045
-0.075
-0.11
-0.095
-0.035
0.015
0.02
-0.01
-0.045
-0.03
0.01
0.055
0.075
0.07
0.04
0.06
0.125
0.2
0.195
0.16
0.135
0.175
0.24
0.265
0.24
0.195
0.155
0.16
0.215
0.23
0.245
0.24
0.245
0.24
0.255
0.255
0.265
0.255
0.25
0.225
0.205
0.195
0.195
0.225
0.245
0.245
0.23
0.215
0.215
0.19
0.18
0.18
0.205
0.22
0.215
0.21
0.21
0.205
0.195
0.2
0.21
0.19
0.155
0.135
0.155
0.175
0.18
0.19
0.205
0.23
0.225
0.2
0.175
0.14
0.14
0.155
0.19
0.2
0.17
0.135
0.15
0.205
0.235
0.225
0.165
0.13
0.14
0.16
0.17
0.19
0.205
0.205
0.195
0.17
0.165
0.17
0.19
0.19
0.19
0.205
0.225
0.24
0.22
0.175
0.11
0.13
0.18
0.215
0.21
0.185
0.17
0.18
0.2
0.185
0.185
0.21
0.215
0.165
0.15
0.145
0.15
0.15
0.155
0.17
0.19
0.22
0.21
0.19
0.19
0.2
0.21
0.205
0.16
0.11
0.1
0.135
0.17
0.205
0.21
0.155
0.115
0.105
0.14
0.18
0.195
0.18
0.15
0.15
0.18
0.195
0.195
0.19
0.18
0.23
0.27
0.25
0.195
0.175
0.2
0.2
0.175
0.14
0.165
0.195
0.235
0.25
0.255
0.225
0.2
0.195
0.18
0.175
0.185
0.215
0.23
0.21
0.225
0.225
0.235
0.205
0.185
0.13
0.135
0.18
0.22
0.22
0.195
0.16
0.125
0.105
0.11
0.14
0.165
0.145
0.105
0.115
0.145
0.18
0.165
0.155
0.135
0.135
0.16
0.18
0.155
0.155
0.145
0.16
0.155
0.175
0.155
0.135
0.125
0.15
0.235
0.305
0.34
0.33
0.35
0.445
0.56
0.67
0.76
0.875
1.02
1.165
1.3
1.43
1.56
1.67
1.79
1.93
2.06
2.135
2.105
1.95
1.68
1.31
0.955
0.715
0.555
0.395
0.31
0.26
0.23
0.23
0.205
0.155
0.11
0.1
0.13
0.155
0.12
0.065
0.04
0.05
0.055
0.035
0.025
0.015
0.045
0.07
0.07
0.045
0.025
0.015
0.02
0.035
0.07
0.07
0.04
-0.015
-0.04
-0.03
-0.03
-0.005
-0.02
-0.05
-0.045
-0.035
-0.005
-0.005
-0.01
-0.035
-0.045
-0.04
-0.025
0.0
0.005
-0.04
-0.055
-0.03
-0.02
-0.02
-0.015
-0.025
-0.025
-0.02
0.005
0.005
-0.03
-0.085
-0.115
-0.085
-0.05
-0.045
-0.045
-0.055
-0.085
-0.095
-0.085
-0.08
-0.075
-0.1
-0.115
-0.1
-0.095
-0.08
-0.105
-0.115
-0.12
-0.11
-0.1
-0.085
-0.12
-0.16
-0.155
-0.115
-0.095
-0.09
-0.1
-0.09
-0.065
-0.04
-0.02
0.015
0.045
0.035
0.0
-0.015
-0.015
0.025
0.065
0.095
0.13
0.13
0.145
0.15
0.175
0.17
0.17
0.195
0.205
0.23
0.225
0.22
0.22
0.23
0.215
0.2
0.195
0.18
0.165
0.18
0.205
0.205
0.17
0.135
0.135
0.15
0.18
0.175
0.14
0.115
0.095
0.11
0.13
0.16
0.15
0.14
0.13
0.115
0.1
0.08
0.065
0.075
0.08
0.105
0.12
0.11
0.105
0.06
0.025
0.035
0.075
0.08
0.065
0.055
0.055
0.06
0.085
0.1
0.125
0.115
0.075
0.02
0.015
0.035
0.06
0.065
0.07
0.075
0.105
0.12
0.085
0.035
0.025
0.045
0.04
0.04
0.045
0.025
0.01
0.0
0.005
0.015
0.01
0.03
0.01
0.01
0.015
0.005
-0.025
-0.035
-0.02
-0.03
-0.025
-0.015
-0.005
-0.015
-0.02
-0.03
-0.045
-0.04
-0.055
-0.04
-0.03
-0.01
0.01
-0.01
-0.04
-0.04
-0.03
-0.035
-0.04
-0.025
-0.025
-0.035
-0.08
-0.095
-0.065
-0.035
-0.02
-0.04
-0.065
-0.08
-0.06
-0.045
-0.055
-0.075
-0.085
-0.075
-0.075
-0.095
-0.09
-0.085
-0.04
0.005
0.01
-0.015
-0.055
-0.07
-0.055
0.0
0.04
0.025
-0.04
-0.105
-0.095
-0.06
-0.02
-0.01
-0.03
-0.045
-0.055
-0.04
-0.04
-0.035
-0.055
-0.065
-0.055
-0.025
-0.015
-0.035
-0.07
-0.12
-0.15
-0.17
-0.145
-0.125
-0.115
-0.125
-0.14
-0.155
-0.145
-0.12
-0.135
-0.165
-0.155
-0.125
-0.13
-0.165
-0.18
-0.175
-0.15
-0.145
-0.135
-0.135
-0.15
-0.155
-0.165
-0.16
-0.16
-0.17
-0.195
-0.225
-0.225
-0.2
-0.14
-0.115
-0.095
-0.08
-0.05
0.025
0.085
0.14
0.195
0.29
0.42
0.585
0.725
0.875
1.01
1.13
1.225
1.335
1.47
1.61
1.695
1.72
1.645
1.46
1.155
0.795
0.47
0.22
0.035
-0.095
-0.165
-0.21
-0.245
-0.265
-0.245
-0.27
-0.275
-0.315
-0.35
-0.36
-0.35
-0.345
-0.365
-0.415
-0.45
-0.455
-0.43
-0.43
-0.405
-0.42
-0.4
-0.415
-0.435
-0.425
-0.425
-0.45
-0.47
-0.49
-0.5
-0.505
-0.515
-0.515
-0.495
-0.48
-0.47
-0.485
-0.515
-0.52
-0.53
-0.545
-0.55
-0.545
-0.53
-0.49
-0.475
-0.49
-0.52
-0.545
-0.57
-0.56
-0.55
-0.56
-0.56
-0.53
-0.52
-0.52
-0.535
-0.555
-0.555
-0.515
-0.505
-0.51
-0.53
-0.53
-0.525
-0.54
-0.57
-0.61
-0.605
-0.625
-0.615
-0.595
-0.59
-0.595
-0.61
-0.605
-0.58
-0.59
-0.595
-0.605
-0.605
-0.605
-0.6
-0.585
-0.585
-0.555
-0.54
-0.52
-0.525
-0.53
-0.53
-0.525
-0.505
-0.495
-0.475
-0.445
-0.42
-0.415
-0.43
-0.45
-0.42
-0.4
-0.365
-0.355
-0.34
-0.365
-0.37
-0.37
-0.345
-0.325
-0.32
-0.345
-0.39
-0.425
-0.41
-0.375
-0.37
-0.39
-0.425
-0.43
-0.405
-0.375
-0.375
-0.365
-0.38
-0.39
-0.39
-0.42
-0.42
-0.425
-0.4
-0.385
-0.38
-0.395
-0.41
-0.415
-0.4
-0.39
-0.365
-0.37
-0.36
-0.385
-0.415
-0.425
-0.425
-0.43
-0.415
-0.405
-0.4
-0.375
-0.35
-0.325
-0.335
-0.375
-0.39
-0.37
-0.345
-0.365
-0.39
-0.39
-0.39
-0.385
-0.345
-0.335
-0.345
-0.355
-0.375
-0.365
-0.36
-0.355
-0.335
-0.325
-0.335
-0.335
-0.32
-0.33
-0.335
-0.33
-0.315
-0.29
-0.275
-0.295
-0.31
-0.315
-0.305
-0.295
-0.28
-0.29
-0.28
-0.255
-0.23
-0.23
-0.26
-0.275
-0.28
-0.28
-0.275
-0.255
-0.235
-0.215
-0.21
-0.245
-0.255
-0.245
-0.225
-0.21
-0.2
-0.2
-0.205
-0.2
-0.195
-0.2
-0.185
-0.18
-0.195
-0.195
-0.175
-0.165
-0.18
-0.195
-0.175
-0.14
-0.09
-0.08
-0.09
-0.135
-0.14
-0.16
-0.16
-0.15
-0.12
-0.095
-0.065
-0.035
-0.01
-0.02
-0.015
-0.03
-0.01
0.015
0.01
-0.005
-0.055
-0.09
-0.065
-0.02
0.015
0.015
0.015
0.005
-0.02
0.01
0.055
0.06
0.005
-0.06
-0.07
-0.02
0.035
0.06
0.01
-0.04
-0.06
-0.015
0.015
0.0
0.0
0.0
-0.005
0.025
0.025
0.02
0.01
-0.01
-0.005
0.025
0.05
0.03
-0.03
-0.06
-0.02
0.0
0.05
0.05
0.035
0.025
0.06
0.085
0.1
0.095
0.12
0.14
0.2
0.28
0.41
0.5
0.575
0.705
0.93
1.135
1.34
1.505
1.62
1.745
1.96
2.17
2.21
1.99
1.49
0.95
0.56
0.375
0.285
0.24
0.19
0.125
0.05
0.025
0.04
0.035
0.005
-0.02
-0.045
-0.02
0.0
0.015
-0.02
-0.05
-0.08
-0.07
-0.08
-0.115
-0.105
-0.075
-0.045
-0.04
-0.005
-0.02
-0.055
-0.075
-0.065
-0.055
-0.085
-0.11
-0.1
-0.085
-0.085
-0.065
-0.06
-0.055
-0.065
-0.095
-0.12
-0.13
-0.12
-0.1
-0.07
-0.07
-0.06
-0.08
-0.08
-0.1
-0.085
-0.09
-0.115
-0.14
-0.12
-0.11
-0.11
-0.12
-0.125
-0.115
-0.135
-0.125
-0.12
-0.105
-0.105
-0.11
-0.115
-0.15
-0.195
-0.225
-0.195
-0.16
-0.16
-0.155
-0.16
-0.16
-0.14
-0.125
-0.115
-0.125
-0.125
-0.13
-0.11
-0.065
-0.045
-0.045
-0.06
-0.07
-0.06
-0.02
0.045
0.11
0.12
0.13
0.12
0.12
0.115
0.095
0.115
0.14
0.17
0.18
0.19
0.18
0.195
0.195
0.19
0.22
0.23
0.23
0.2
0.185
0.185
0.195
0.2
0.21
0.21
0.185
0.17
0.18
0.2
0.22
0.205
0.14
0.12
0.16
0.195
0.19
0.145
0.11
0.11
0.155
0.19
0.19
0.145
0.12
0.115
0.135
0.16
0.16
0.14
0.1
0.12
0.155
0.17
0.16
0.1
0.095
0.11
0.165
0.2
0.2
0.175
0.135
0.12
0.155
0.18
0.19
0.15
0.13
0.15
0.15
0.12
0.09
0.095
0.125
0.15
0.185
0.2
0.16
0.11
0.065
0.06
0.11
0.16
0.175
0.155
0.14
0.165
0.165
0.14
0.11
0.095
0.12
0.165
0.19
0.2
0.145
0.1
0.075
0.085
0.125
0.16
0.155
0.165
0.135
0.12
0.135
0.175
0.205
0.18
0.13
0.105
0.11
0.12
0.125
0.13
0.13
0.135
0.155
0.13
0.1
0.09
0.12
0.15
0.155
0.16
0.175
0.2
0.205
0.22
0.18
0.17
0.16
0.17
0.16
0.15
0.16
0.18
0.205
0.2
0.165
0.165
0.17
0.19
0.21
0.21
0.175
0.145
0.18
0.24
0.265
0.2
0.11
0.1
0.15
0.185
0.18
0.13
0.1
0.12
0.165
0.18
0.155
0.12
0.085
0.115
0.16
0.16
0.145
0.13
0.115
0.115
0.12
0.14
0.13
0.125
0.12
0.095
0.115
0.125
0.145
0.135
0.135
0.14
0.155
0.165
0.14
0.13
0.1
0.11
0.15
0.21
0.26
0.325
0.395
0.465
0.545
0.665
0.785
0.96
1.12
1.3
1.5
1.65
1.715
1.78
1.905
2.09
2.245
2.265
2.15
1.815
1.405
0.995
0.71
0.555
0.42
0.28
0.155
0.095
0.125
0.115
0.09
0.065
0.085
0.095
0.075
0.015
-0.035
-0.045
-0.03
0.01
0.02
0.025
-0.005
-0.02
-0.05
-0.055
-0.035
-0.01
-0.015
0.0
-0.015
-0.045
-0.045
-0.035
-0.015
-0.02
-0.06
-0.07
-0.055
-0.03
-0.055
-0.1
-0.1
-0.07
-0.015
-0.035
-0.11
-0.18
-0.16
-0.105
-0.08
-0.085
-0.12
-0.11
-0.135
-0.145
-0.09
-0.035
-0.03
-0.11
-0.16
-0.175
-0.14
-0.12
-0.15
-0.18
-0.185
-0.17
-0.16
-0.135
-0.165
-0.22
-0.25
-0.22
-0.17
-0.145
-0.145
-0.185
-0.205
-0.195
-0.19
-0.21
-0.22
-0.185
-0.135
-0.125
-0.145
-0.16
-0.13
-0.09
-0.065
-0.045
0.01
0.05
0.04
-0.005
-0.045
-0.005
0.06
0.085
0.06
0.03
0.01
0.025
0.065
0.095
0.055
0.005
-0.05
-0.02
0.02
0.03
-0.02
-0.055
-0.065
-0.05
-0.035
-0.015
-0.01
-0.015
0.01
0.035
0.005
-0.055
-0.085
-0.1
-0.105
-0.1
-0.08
-0.035
-0.035
-0.07
-0.11
-0.115
-0.1
-0.1
-0.115
-0.14
-0.14
-0.115
-0.12
-0.14
-0.15
-0.135
-0.14
-0.13
-0.135
-0.16
-0.165
-0.155
-0.145
-0.15
-0.15
-0.115
-0.135
-0.195
-0.245
-0.255
-0.21
-0.15
-0.15
-0.175
-0.165
-0.16
-0.14
-0.18
-0.245
-0.305
-0.28
-0.22
-0.185
-0.19
-0.23
-0.265
-0.265
-0.24
-0.225
-0.24
-0.26
-0.285
-0.3
-0.265
-0.24
-0.24
-0.265
-0.275
-0.29
-0.3
-0.29
-0.265
-0.27
-0.32
-0.355
-0.345
-0.3
-0.285
-0.3
-0.285
-0.29
-0.325
-0.36
-0.365
-0.33
-0.315
-0.36
-0.38
-0.36
-0.315
-0.29
-0.31
-0.385
-0.405
-0.36
-0.375
-0.39
-0.415
-0.38
-0.335
-0.29
-0.275
-0.335
-0.365
-0.385
-0.35
-0.315
-0.305
-0.305
-0.33
-0.335
-0.32
-0.32
-0.335
-0.35
-0.355
-0.345
-0.335
-0.335
-0.315
-0.325
-0.335
-0.375
-0.395
-0.35
-0.3
-0.27
-0.325
-0.41
-0.45
-0.435
-0.42
-0.445
-0.47
-0.44
-0.38
-0.36
-0.36
-0.44
-0.51
-0.525
-0.465
-0.4
-0.4
-0.475
-0.52
-0.535
-0.5
-0.465
-0.435
-0.445
-0.47
-0.47
-0.49
-0.505
-0.525
-0.545
-0.5
-0.475
-0.45
-0.48
-0.49
-0.475
-0.435
-0.395
-0.365
-0.31
-0.255
-0.18
-0.1
-0.015
0.14
0.38
0.605
0.745
0.87
0.97
1.12
1.315
1.5
1.605
1.62
1.525
1.31
0.945
0.52
0.115
-0.14
-0.27
-0.375
-0.495
-0.58
-0.6
-0.575
-0.56
-0.585
-0.615
-0.6
-0.575
-0.585
-0.65
-0.71
-0.725
-0.72
-0.71
-0.725
-0.76
-0.74
-0.73
-0.735
-0.72
-0.73
-0.73
-0.72
-0.71
-0.7
-0.695
-0.695
-0.695
-0.7
-0.715
-0.76
-0.8
-0.825
-0.825
-0.77
-0.75
-0.735
-0.76
-0.775
-0.76
-0.745
-0.73
-0.71
-0.7
-0.74
-0.805
-0.805
-0.785
-0.735
-0.705
-0.705
-0.72
-0.74
-0.78
-0.785
-0.79
-0.76
-0.75
-0.73
-0.705
-0.68
-0.685
-0.75
-0.785
-0.755
-0.7
-0.705
-0.765
-0.805
-0.775
-0.725
-0.705
-0.705
-0.71
-0.705
-0.69
-0.69
-0.675
-0.65
-0.62
-0.61
-0.64
-0.645
-0.63
-0.62
-0.63
-0.605
-0.59
-0.54
-0.49
-0.475
-0.485
-0.495
-0.49
-0.465
-0.44
-0.425
-0.45
-0.44
-0.42
-0.405
-0.37
-0.35
-0.385
-0.435
-0.475
-0.47
-0.44
-0.375
-0.375
-0.39
-0.43
-0.46
-0.445
-0.39
-0.38
-0.42
-0.445
-0.43
-0.41
-0.39
-0.39
-0.405
-0.42
-0.395
-0.375
-0.34
-0.34
-0.36
-0.38
-0.385
-0.395
-0.345
-0.335
-0.325
-0.355
-0.375
-0.36
-0.335
-0.345
-0.355
-0.35
-0.315
-0.295
-0.285
-0.29
-0.315
-0.315
-0.31
-0.28
-0.25
-0.245
-0.255
-0.27
-0.275
-0.295
-0.255
-0.235
-0.2
-0.19
-0.22
-0.275
-0.26
-0.235
-0.225
-0.245
-0.24
-0.225
-0.195
-0.2
-0.21
-0.21
-0.205
-0.19
-0.18
-0.175
-0.18
-0.2
-0.18
-0.165
-0.17
-0.165
-0.16
-0.16
-0.15
-0.145
-0.13
-0.135
-0.14
-0.145
-0.175
-0.16
-0.135
-0.125
-0.115
-0.12
-0.125
-0.125
-0.145
-0.16
-0.16
-0.115
-0.12
-0.115
-0.115
-0.135
-0.12
-0.105
-0.09
-0.115
-0.12
-0.12
-0.075
-0.085
-0.07
-0.06
-0.04
-0.025
-0.025
-0.02
0.005
0.01
0.015
0.0
0.0
0.005
0.015
-0.025
-0.005
0.005
0.015
0.02
0.015
0.035
0.08
0.065
0.035
0.005
0.04
0.08
0.1
0.045
0.015
0.01
0.02
0.055
0.085
0.05
0.015
-0.045
-0.05
-0.03
0.02
0.05
0.025
0.005
0.0
0.02
0.045
0.035
0.01
-0.01
0.0
0.01
0.035
0.025
0.025
-0.005
-0.045
-0.02
0.01
0.02
0.01
0.0
0.02
0.035
0.055
0.03
0.03
0.04
0.1
0.145
0.225
0.305
0.385
0.47
0.6
0.785
0.995
1.18
1.32
1.435
1.57
1.715
1.89
2.055
2.19
2.23
2.16
1.905
1.46
0.985
0.63
0.4
0.265
0.17
0.115
0.085
0.095
0.06
0.035
0.01
-0.005
-0.055
-0.09
-0.085
-0.08
-0.09
-0.07
-0.055
-0.05
-0.06
-0.08
-0.11
-0.145
-0.14
-0.12
-0.11
-0.115
-0.1
-0.1
-0.11
-0.135
-0.15
-0.155
-0.13
-0.1
-0.13
-0.17
-0.185
-0.18
-0.14
-0.135
-0.15
-0.18
-0.18
-0.175
-0.17
-0.17
-0.18
-0.185
-0.18
-0.19
-0.21
-0.22
-0.21
-0.18
-0.185
-0.205
-0.225
-0.24
-0.245
-0.245
-0.215
-0.215
-0.25
-0.285
-0.285
-0.285
-0.275
-0.25
-0.225
-0.215
-0.215
-0.23
-0.235
-0.235
-0.21
-0.19
-0.165
-0.13
-0.105
-0.09
-0.07
-0.025
-0.01
-0.015
-0.01
0.035
0.065
0.065
0.045
0.035
0.055
0.1
0.095
0.06
0.005
-0.025
-0.005
0.02
0.015
0.025
0.025
0.025
0.02
0.02
0.045
0.05
0.01
-0.02
-0.01
0.01
0.03
-0.005
-0.04
-0.06
-0.055
-0.04
-0.01
0.005
0.01
-0.01
-0.005
0.005
-0.005
-0.04
-0.04
-0.05
-0.05
-0.035
-0.025
-0.015
-0.035
-0.055
-0.075
-0.055
-0.035
-0.02
-0.02
-0.04
-0.055
-0.04
-0.025
-0.035
-0.065
-0.08
-0.06
-0.02
-0.01
-0.005
-0.02
-0.045
-0.065
-0.075
-0.065
-0.025
-0.02
-0.03
-0.05
-0.07
-0.02
0.015
0.015
-0.01
-0.065
-0.055
-0.06
-0.05
-0.09
-0.115
-0.1
-0.07
-0.035
-0.015
-0.02
-0.06
-0.085
-0.06
-0.03
-0.025
-0.045
-0.05
-0.03
-0.025
-0.035
-0.06
-0.085
-0.13
-0.135
-0.125
-0.08
-0.06
-0.055
-0.07
-0.09
-0.085
-0.085
-0.065
-0.06
-0.07
-0.1
-0.105
-0.075
-0.06
-0.035
-0.035
-0.04
-0.015
-0.025
-0.07
-0.1
-0.11
-0.105
-0.075
-0.035
-0.015
-0.005
-0.015
-0.02
-0.03
-0.015
-0.025
-0.05
-0.06
-0.06
-0.03
0.0
0.01
0.0
-0.02
-0.035
-0.035
-0.045
-0.04
-0.02
0.0
0.01
0.015
0.01
-0.02
-0.075
-0.12
-0.11
-0.07
-0.04
-0.045
-0.08
-0.115
-0.115
-0.1
-0.06
-0.035
-0.06
-0.095
-0.115
-0.11
-0.095
-0.08
-0.075
-0.075
-0.075
-0.075
-0.08
-0.09
-0.09
-0.095
-0.095
-0.1
-0.09
-0.08
-0.11
-0.135
-0.125
-0.1
-0.065
-0.045
-0.02
0.015
0.065
0.145
0.235
0.295
0.38
0.51
0.67
0.885
1.085
1.26
1.41
1.565
1.685
1.82
1.98
2.065
2.06
1.885
1.52
1.07
0.655
0.4
0.22
0.08
-0.01
-0.065
-0.105
-0.13
-0.17
-0.19
-0.19
-0.21
-0.225
-0.215
-0.22
-0.23
-0.27
-0.305
-0.31
-0.295
-0.29
-0.335
-0.345
-0.315
-0.29
-0.29
-0.34
-0.37
-0.35
-0.335
-0.305
-0.3
-0.32
-0.34
-0.395
-0.42
-0.425
-0.38
-0.36
-0.37
-0.395
-0.42
-0.42
-0.385
-0.4
-0.425
-0.43
-0.435
-0.435
-0.425
-0.46
-0.495
-0.505
-0.49
-0.47
-0.445
-0.475
-0.49
-0.485
-0.48
-0.455
-0.495
-0.545
-0.56
-0.555
-0.525
-0.525
-0.52
-0.535
-0.545
-0.545
-0.53
-0.535
-0.57
-0.615
-0.605
-0.57
-0.535
-0.535
-0.56
-0.595
-0.62
-0.605
-0.56
-0.525
-0.5
-0.51
-0.495
-0.48
-0.475
-0.45
-0.435
-0.43
-0.41
-0.385
-0.38
-0.37
-0.35
-0.325
-0.31
-0.32
-0.34
-0.345
-0.35
-0.335
-0.355
-0.35
-0.36
-0.34
-0.34
-0.335
-0.355
-0.34
-0.335
-0.34
-0.34
-0.37
-0.375
-0.405
-0.415
-0.415
-0.39
-0.37
-0.38
-0.41
-0.415
-0.395
-0.355
-0.335
-0.38
-0.475
-0.515
-0.505
-0.47
-0.45
-0.445
-0.45
-0.445
-0.44
-0.445
-0.445
-0.44
-0.455
-0.465
-0.465
-0.455
-0.445
-0.44
-0.465
-0.48
-0.45
-0.425
-0.42
-0.45
-0.48
-0.485
-0.465
-0.445
-0.46
-0.505
-0.53
-0.51
-0.49
-0.475
-0.495
-0.5
-0.5
-0.485
-0.46
-0.455
-0.46
-0.49
-0.535
-0.525
-0.51
-0.47
-0.455
-0.48
-0.505
-0.49
-0.475
-0.46
-0.44
-0.47
-0.52
-0.53
-0.52
-0.48
-0.49
-0.51
-0.55
-0.56
-0.54
-0.51
-0.545
-0.56
-0.56
-0.525
-0.485
-0.5
-0.535
-0.575
-0.575
-0.55
-0.515
-0.505
-0.515
-0.55
-0.56
-0.56
-0.54
-0.52
-0.535
-0.565
-0.59
-0.575
-0.54
-0.515
-0.53
-0.555
-0.58
-0.57
-0.55
-0.56
-0.555
-0.58
-0.6
-0.58
-0.565
-0.545
-0.545
-0.57
-0.595
-0.575
-0.54
-0.485
-0.485
-0.525
-0.585
-0.585
-0.525
-0.49
-0.49
-0.515
-0.545
-0.54
-0.51
-0.505
-0.51
-0.52
-0.555
-0.55
-0.53
-0.505
-0.475
-0.495
-0.545
-0.565
-0.54
-0.515
-0.515
-0.55
-0.585
-0.59
-0.58
-0.59
-0.595
-0.605
-0.61
-0.58
-0.565
-0.54
-0.55
-0.595
-0.635
-0.62
-0.59
-0.555
-0.565
-0.6
-0.635
-0.615
-0.595
-0.57
-0.585
-0.605
-0.615
-0.595
-0.575
-0.57
-0.61
-0.61
-0.6
-0.59
-0.57
-0.535
-0.515
-0.5
-0.48
-0.46
-0.385
-0.31
-0.235
-0.14
0.0
0.155
0.345
0.545
0.685
0.82
0.935
1.065
1.22
1.37
1.54
1.655
1.68
1.625
1.445
1.095
0.61
0.14
-0.13
-0.26
-0.345
-0.465
-0.55
-0.6
-0.615
-0.605
-0.62
-0.615
-0.65
-0.69
-0.68
-0.68
-0.68
-0.68
-0.715
-0.755
-0.765
-0.75
