Lead II
-0.415
-0.43
-0.445
-0.445
-0.44
-0.445
-0.44
-0.425
-0.425
-0.425
-0.44
-0.435
-0.44
-0.435
-0.43
-0.445
-0.44
-0.435
-0.44
-0.425
-0.425
-0.435
-0.43
-0.44
-0.45
-0.48
-0.48
-0.49
-0.5
-0.5
-0.485
-0.475
-0.45
-0.43
-0.42
-0.405
-0.4
-0.385
-0.385
-0.38
-0.37
-0.36
-0.345
-0.33
-0.325
-0.32
-0.3
-0.29
-0.305
-0.295
-0.3
-0.3
-0.31
-0.31
-0.305
-0.305
-0.29
-0.29
-0.285
-0.29
-0.285
-0.3
-0.3
-0.305
-0.305
-0.305
-0.3
-0.305
-0.305
-0.29
-0.29
-0.3
-0.305
-0.315
-0.315
-0.32
-0.315
-0.31
-0.3
-0.29
-0.28
-0.29
-0.3
-0.31
-0.32
-0.335
-0.365
-0.405
-0.4
-0.345
-0.26
-0.105
0.075
0.295
0.57
0.86
1.165
1.475
1.715
1.9
2.005
2.02
1.955
1.82
1.59
1.24
0.775
0.275
-0.125
-0.37
-0.475
-0.475
-0.42
-0.37
-0.33
-0.31
-0.3
-0.32
-0.335
-0.355
-0.37
-0.375
-0.395
-0.39
-0.4
-0.41
-0.41
-0.415
-0.405
-0.41
-0.405
-0.415
-0.42
-0.43
-0.44
-0.46
-0.465
-0.47
-0.485
-0.48
-0.48
-0.485
-0.475
-0.49
-0.495
-0.505
-0.52
-0.52
-0.525
-0.53
-0.53
-0.54
-0.53
-0.525
-0.52
-0.525
-0.535
-0.545
-0.555
-0.56
-0.57
-0.57
-0.585
-0.605
-0.61
-0.615
-0.62
-0.635
-0.645
-0.66
-0.65
-0.655
-0.64
-0.63
-0.64
-0.625
-0.625
-0.655
-0.645
-0.665
-0.69
-0.715
-0.735
-0.76
-0.775
-0.775
-0.8
-0.805
-0.82
-0.83
-0.845
-0.855
-0.875
-0.91
-0.905
-0.92
-0.935
-0.93
-0.92
-0.92
-0.905
-0.875
-0.85
-0.835
-0.805
-0.775
-0.75
-0.72
-0.68
-0.64
-0.605
-0.57
-0.535
-0.5
-0.475
-0.455
-0.44
-0.425
-0.42
-0.415
-0.405
-0.4
-0.39
-0.37
-0.36
-0.35
-0.34
-0.35
-0.345
-0.35
-0.345
-0.34
-0.335
-0.325
-0.31
-0.29
-0.265
-0.235
-0.23
-0.24
-0.24
-0.25
-0.25
-0.27
-0.29
-0.29
-0.29
-0.26
-0.26
-0.26
-0.255
-0.255
-0.255
-0.27
-0.28
-0.275
-0.285
-0.28
-0.275
-0.275
-0.275
-0.27
-0.27
-0.27
-0.27
-0.28
-0.285
-0.295
-0.295
-0.285
-0.27
-0.265
-0.26
-0.25
-0.25
-0.255
-0.265
-0.29
-0.3
-0.305
-0.315
-0.315
-0.315
-0.315
-0.325
-0.32
-0.325
-0.315
-0.315
-0.315
-0.31
-0.32
-0.32
-0.315
-0.325
-0.3
-0.275
-0.255
-0.24
-0.235
-0.23
-0.24
-0.265
-0.275
-0.275
-0.28
-0.295
-0.285
-0.285
-0.285
-0.3
-0.305
-0.31
-0.315
-0.32
-0.34
-0.325
-0.32
-0.315
-0.3
-0.3
-0.29
-0.295
-0.295
-0.31
-0.305
-0.325
-0.32
-0.33
-0.33
-0.325
-0.33
-0.305
-0.315
-0.31
-0.31
-0.31
-0.315
-0.315
-0.335
-0.335
-0.345
-0.34
-0.34
-0.33
-0.32
-0.315
-0.32
-0.335
-0.335
-0.34
-0.325
-0.34
-0.32
-0.305
-0.275
-0.24
-0.215
-0.2
-0.18
-0.18
-0.195
-0.195
-0.205
-0.225
-0.21
-0.2
-0.21
-0.2
-0.195
-0.195
-0.22
-0.225
-0.23
-0.235
-0.27
-0.27
-0.3
-0.32
-0.33
-0.325
-0.275
-0.165
0.0
0.195
0.43
0.705
1.01
1.315
1.605
1.84
2.0
2.06
2.045
1.955
1.77
1.455
1.02
0.51
0.015
-0.335
-0.53
-0.57
-0.555
-0.49
-0.44
-0.41
-0.405
-0.435
-0.45
-0.46
-0.47
-0.47
-0.45
-0.445
-0.43
-0.42
-0.415
-0.425
-0.42
-0.425
-0.42
-0.425
-0.415
-0.415
-0.41
-0.405
-0.4
-0.4
-0.395
-0.395
-0.405
-0.41
-0.42
-0.425
-0.445
-0.455
-0.46
-0.455
-0.44
-0.445
-0.45
-0.46
-0.485
-0.49
-0.515
-0.53
-0.555
-0.57
-0.58
-0.595
-0.605
-0.615
-0.62
-0.61
-0.64
-0.66
-0.675
-0.695
-0.685
-0.705
-0.705
-0.705
-0.71
-0.715
-0.715
-0.715
-0.745
-0.76
-0.765
-0.785
-0.8
-0.82
-0.825
-0.845
-0.85
-0.865
-0.875
-0.875
-0.89
-0.89
-0.905
-0.915
-0.93
-0.94
-0.94
-0.95
-0.945
-0.95
-0.95
-0.955
-0.955
-0.955
-0.93
-0.925
-0.905
-0.87
-0.845
-0.8
-0.77
-0.74
-0.705
-0.67
-0.655
-0.65
-0.62
-0.6
-0.57
-0.57
-0.545
-0.525
-0.505
-0.485
-0.47
-0.46
-0.445
-0.45
-0.445
-0.45
-0.445
-0.44
-0.44
-0.44
-0.435
-0.43
-0.425
-0.415
-0.415
-0.42
-0.41
-0.415
-0.415
-0.415
-0.405
-0.39
-0.38
-0.375
-0.35
-0.355
-0.36
-0.37
-0.37
-0.385
-0.385
-0.39
-0.38
-0.38
-0.37
-0.355
-0.345
-0.34
-0.335
-0.35
-0.365
-0.37
-0.37
-0.37
-0.365
-0.365
-0.36
-0.35
-0.335
-0.33
-0.32
-0.33
-0.345
-0.345
-0.34
-0.345
-0.325
-0.315
-0.315
-0.325
-0.325
-0.32
-0.335
-0.35
-0.365
-0.38
-0.375
-0.385
-0.395
-0.4
-0.385
-0.38
-0.385
-0.39
-0.395
-0.39
-0.4
-0.395
-0.405
-0.4
-0.415
-0.41
-0.415
-0.41
-0.41
-0.405
-0.405
-0.415
-0.42
-0.41
-0.415
-0.415
-0.41
-0.41
-0.395
-0.39
-0.405
-0.39
-0.385
-0.41
-0.41
-0.41
-0.41
-0.395
-0.39
-0.4
-0.375
-0.37
-0.355
-0.355
-0.35
-0.355
-0.36
-0.37
-0.37
-0.375
-0.37
-0.355
-0.355
-0.345
-0.345
-0.33
-0.335
-0.35
-0.365
-0.37
-0.39
-0.405
-0.405
-0.41
-0.41
-0.415
-0.415
-0.43
-0.445
-0.45
-0.475
-0.48
-0.49
-0.495
-0.485
-0.48
-0.465
-0.435
-0.435
-0.43
-0.435
-0.445
-0.43
-0.415
-0.42
-0.425
-0.415
-0.405
-0.405
-0.405
-0.395
-0.395
-0.39
-0.395
-0.4
-0.425
-0.45
-0.47
-0.455
-0.425
-0.35
-0.23
-0.035
0.185
0.44
0.705
1.01
1.3
1.565
1.775
1.905
1.965
1.965
1.895
1.735
1.49
1.095
0.615
0.12
-0.25
-0.475
-0.545
-0.515
-0.46
-0.4
-0.36
-0.36
-0.385
-0.435
-0.46
-0.485
-0.505
-0.52
-0.535
-0.54
-0.535
-0.54
-0.53
-0.54
-0.545
-0.55
-0.555
-0.56
-0.57
-0.585
-0.595
-0.59
-0.58
-0.58
-0.595
-0.59
-0.59
-0.595
-0.61
-0.62
-0.635
-0.63
-0.625
-0.635
-0.63
-0.635
-0.635
-0.62
-0.62
-0.62
-0.615
-0.63
-0.64
-0.645
-0.665
-0.685
-0.7
-0.695
-0.71
-0.705
-0.71
-0.735
-0.73
-0.73
-0.73
-0.735
-0.76
-0.76
-0.76
-0.77
-0.78
-0.77
-0.785
-0.795
-0.815
-0.825
-0.845
-0.88
-0.89
-0.905
-0.92
-0.935
-0.94
-0.97
-0.995
-1.01
-1.02
-1.04
-1.055
-1.075
-1.09
-1.1
-1.11
-1.105
-1.1
-1.1
-1.085
-1.085
-1.075
-1.075
-1.05
-1.04
-1.02
-0.98
-0.95
-0.895
-0.86
-0.82
-0.785
-0.765
-0.725
-0.71
-0.685
-0.655
-0.65
-0.62
-0.585
-0.55
-0.54
-0.52
-0.515
-0.495
-0.51
-0.515
-0.52
-0.53
-0.53
-0.51
-0.505
-0.495
-0.485
-0.47
-0.465
-0.47
-0.475
-0.49
-0.49
-0.495
-0.505
-0.495
-0.5
-0.49
-0.48
-0.48
-0.47
-0.475
-0.465
-0.5
-0.51
-0.51
-0.5
-0.485
-0.49
-0.475
-0.47
-0.47
-0.46
-0.465
-0.47
-0.475
-0.465
-0.455
-0.465
-0.45
-0.455
-0.455
-0.445
-0.46
-0.44
-0.445
-0.445
-0.44
-0.46
-0.46
-0.455
-0.455
-0.455
-0.445
-0.44
-0.435
-0.43
-0.435
-0.43
-0.44
-0.45
-0.445
-0.445
-0.435
-0.425
-0.42
-0.41
-0.4
-0.395
-0.405
-0.405
-0.405
-0.41
-0.425
-0.425
-0.425
-0.44
-0.435
-0.44
-0.43
-0.43
-0.43
-0.44
-0.455
-0.455
-0.455
-0.465
-0.46
-0.465
-0.46
-0.45
-0.46
-0.435
-0.43
-0.435
-0.43
-0.43
-0.45
-0.445
-0.455
-0.445
-0.425
-0.425
-0.415
-0.41
-0.415
-0.435
-0.44
-0.445
-0.45
-0.435
-0.44
-0.44
-0.44
-0.44
-0.425
-0.42
-0.42
-0.415
-0.425
-0.45
-0.455
-0.46
-0.465
-0.465
-0.46
-0.455
-0.435
-0.435
-0.425
-0.42
-0.415
-0.41
-0.415
-0.415
-0.415
-0.4
-0.385
-0.395
-0.38
-0.375
-0.375
-0.375
-0.375
-0.385
-0.385
-0.385
-0.39
-0.39
-0.385
-0.375
-0.375
-0.36
-0.365
-0.375
-0.375
-0.39
-0.4
-0.405
-0.41
-0.405
-0.405
-0.4
-0.405
-0.395
-0.395
-0.39
-0.4
-0.405
-0.42
-0.415
-0.415
-0.41
-0.405
-0.4
-0.39
-0.39
-0.4
-0.38
-0.39
-0.39
-0.395
-0.395
-0.41
-0.415
-0.42
-0.435
-0.425
-0.425
-0.43
-0.435
-0.435
-0.445
-0.44
-0.44
-0.43
-0.415
-0.41
-0.385
-0.38
-0.37
-0.355
-0.355
-0.36
-0.355
-0.36
-0.355
-0.35
-0.335
-0.325
-0.32
-0.31
-0.3
-0.3
-0.305
-0.285
-0.295
-0.305
-0.32
-0.335
-0.35
-0.365
-0.365
-0.33
-0.25
-0.12
0.05
0.25
0.49
0.77
1.06
1.335
1.59
1.795
1.92
1.945
1.92
1.825
1.65
1.36
0.975
0.5
0.07
-0.235
-0.41
-0.465
-0.43
-0.38
-0.335
-0.325
-0.345
-0.37
-0.395
-0.43
-0.435
-0.445
-0.44
-0.425
-0.415
-0.4
-0.395
-0.4
-0.42
-0.435
-0.44
-0.445
-0.455
-0.45
-0.445
-0.45
-0.445
-0.44
-0.45
-0.455
-0.455
-0.47
-0.47
-0.49
-0.495
-0.495
-0.495
-0.48
-0.49
-0.48
-0.485
-0.495
-0.495
-0.515
-0.51
-0.53
-0.55
-0.56
-0.55
-0.555
-0.57
-0.555
-0.555
-0.565
-0.575
-0.585
-0.605
-0.61
-0.63
-0.625
-0.62
-0.63
-0.63
-0.63
-0.62
-0.63
-0.655
-0.665
-0.685
-0.7
-0.72
-0.735
-0.74
-0.745
-0.745
-0.74
-0.745
-0.765
-0.775
-0.805
-0.82
-0.825
-0.845
-0.85
-0.865
-0.87
-0.89
-0.895
-0.9
-0.92
-0.93
-0.935
-0.945
-0.935
-0.93
-0.91
-0.9
-0.855
-0.83
-0.785
-0.74
-0.71
-0.665
-0.645
-0.61
-0.59
-0.555
-0.53
-0.5
-0.455
-0.43
-0.395
-0.36
-0.365
-0.345
-0.33
-0.33
-0.33
-0.315
-0.305
-0.31
-0.29
-0.29
-0.29
-0.28
-0.285
-0.285
-0.3
-0.29
-0.295
-0.305
-0.29
-0.29
-0.29
-0.28
-0.27
-0.26
-0.255
-0.24
-0.235
-0.23
-0.23
-0.22
-0.21
-0.2
-0.195
-0.18
-0.18
-0.165
-0.18
-0.165
-0.185
-0.185
-0.185
-0.19
-0.185
-0.18
-0.18
-0.155
-0.155
-0.155
-0.14
-0.15
-0.155
-0.155
-0.16
-0.17
-0.17
-0.165
-0.165
-0.165
-0.165
-0.155
-0.16
-0.155
-0.155
-0.18
-0.2
-0.205
-0.21
-0.215
-0.195
-0.2
-0.19
-0.185
-0.19
-0.19
-0.18
-0.175
-0.185
-0.18
-0.175
-0.17
-0.17
-0.155
-0.15
-0.155
-0.14
-0.135
-0.155
-0.175
-0.19
-0.19
-0.195
-0.19
-0.18
-0.17
-0.165
-0.16
-0.16
-0.17
-0.175
-0.18
-0.195
-0.19
-0.19
-0.19
-0.185
-0.18
-0.17
-0.175
-0.175
-0.185
-0.18
-0.2
-0.195
-0.205
-0.21
-0.21
-0.21
-0.2
-0.205
-0.2
-0.21
-0.215
-0.23
-0.25
-0.265
-0.27
-0.275
-0.285
-0.265
-0.245
-0.225
-0.2
-0.2
-0.185
-0.18
-0.17
-0.165
-0.175
-0.175
-0.17
-0.155
-0.16
-0.155
-0.155
-0.16
-0.175
-0.21
-0.23
-0.21
-0.165
-0.045
0.14
0.37
0.65
0.945
1.245
1.55
1.765
1.93
1.99
1.965
1.895
1.765
1.52
1.18
0.71
0.255
-0.085
-0.295
-0.35
-0.35
-0.305
-0.245
-0.22
-0.215
-0.23
-0.255
-0.275
-0.28
-0.285
-0.295
-0.3
-0.315
-0.315
-0.33
-0.345
-0.37
-0.38
-0.39
-0.4
-0.39
-0.39
-0.385
-0.38
-0.385
-0.39
-0.39
-0.39
-0.38
-0.385
-0.38
-0.36
-0.375
-0.37
-0.365
-0.365
-0.375
-0.375
-0.385
-0.39
-0.4
-0.39
-0.385
-0.385
-0.38
-0.375
-0.38
-0.385
-0.395
-0.41
-0.435
-0.45
-0.455
-0.45
-0.47
-0.475
-0.475
-0.475
-0.485
-0.49
-0.5
-0.515
-0.535
-0.565
-0.575
-0.58
-0.595
-0.595
-0.62
-0.625
-0.645
-0.665
-0.685
-0.7
-0.745
-0.755
-0.765
-0.785
-0.79
-0.805
-0.82
-0.82
-0.835
-0.865
-0.875
-0.885
-0.885
-0.89
-0.875
-0.86
-0.815
-0.785
-0.76
-0.73
-0.705
-0.69
-0.655
-0.635
-0.6
-0.565
-0.55
-0.515
-0.475
-0.445
-0.405
-0.37
-0.36
-0.335
-0.325
-0.31
-0.305
-0.3
-0.285
-0.28
-0.285
-0.26
-0.255
-0.26
-0.265
-0.265
-0.29
-0.295
-0.31
-0.31
-0.315
-0.32
-0.3
-0.305
-0.31
-0.305
-0.305
-0.315
-0.315
-0.33
-0.335
-0.34
-0.35
-0.355
-0.35
-0.34
-0.335
-0.335
-0.335
-0.33
-0.345
-0.35
-0.35
-0.355
-0.34
-0.32
-0.305
-0.295
-0.265
-0.255
-0.255
-0.26
-0.265
-0.265
-0.275
-0.29
-0.29
-0.285
-0.28
-0.28
-0.265
-0.245
-0.245
-0.25
-0.25
-0.25
-0.255
-0.28
-0.275
-0.295
-0.275
-0.27
-0.27
-0.265
-0.26
-0.27
-0.275
-0.29
-0.305
-0.32
-0.345
-0.345
-0.345
-0.35
-0.35
-0.335
-0.36
-0.36
-0.375
-0.375
-0.37
-0.385
-0.38
-0.385
-0.375
-0.375
-0.365
-0.365
-0.37
-0.39
-0.385
-0.395
-0.415
-0.415
-0.42
-0.385
-0.365
-0.355
-0.355
-0.35
-0.36
-0.35
-0.33
-0.245
-0.115
0.075
0.29
0.545
0.835
1.135
1.41
1.645
1.815
1.9
1.91
1.855
1.75
1.575
1.285
0.865
0.385
-0.035
-0.32
-0.465
-0.49
-0.44
-0.375
-0.335
-0.325
-0.345
-0.385
-0.4
-0.42
-0.45
-0.44
-0.445
-0.455
-0.47
-0.48
-0.515
-0.545
-0.55
-0.545
-0.555
-0.55
-0.555
-0.555
-0.56
-0.56
-0.57
-0.59
-0.58
-0.6
-0.62
-0.61
-0.615
-0.625
-0.63
-0.615
-0.61
-0.605
-0.605
-0.625
-0.64
-0.64
-0.64
-0.645
-0.66
-0.66
-0.65
-0.63
-0.635
-0.635
-0.635
-0.625
-0.635
-0.64
-0.655
-0.66
-0.645
-0.635
-0.61
-0.615
-0.595
-0.59
-0.6
-0.615
-0.645
-0.665
-0.685
-0.71
-0.73
-0.745
-0.74
-0.75
-0.755
-0.785
-0.8
-0.825
-0.845
-0.875
-0.895
-0.91
-0.93
-0.93
-0.965
-0.965
-0.975
-0.985
-0.99
-0.995
-1.01
-1.01
-1.0
-0.99
-0.965
-0.95
-0.915
-0.89
-0.84
-0.815
-0.795
-0.76
-0.745
-0.74
-0.72
-0.715
-0.695
-0.665
-0.66
-0.615
-0.58
-0.57
-0.565
-0.57
-0.565
-0.545
-0.56
-0.57
-0.555
-0.53
-0.51
-0.495
-0.48
-0.465
-0.46
-0.455
-0.455
-0.44
-0.445
-0.445
-0.435
-0.435
-0.44
-0.44
-0.445
-0.455
-0.465
-0.48
-0.49
-0.5
-0.52
-0.51
-0.505
-0.505
-0.49
-0.485
-0.49
-0.48
-0.475
-0.485
-0.49
-0.49
-0.505
-0.515
-0.525
-0.515
-0.51
-0.5
-0.495
-0.49
-0.485
-0.49
-0.5
-0.505
-0.51
-0.515
-0.515
-0.51
-0.495
-0.495
-0.49
-0.485
-0.475
-0.485
-0.475
-0.48
-0.485
-0.485
-0.485
-0.485
-0.47
-0.465
-0.46
-0.475
-0.47
-0.475
-0.48
-0.5
-0.49
-0.5
-0.495
-0.465
-0.45
-0.455
-0.435
-0.44
-0.44
-0.445
-0.455
-0.46
-0.465
-0.48
-0.485
-0.49
-0.49
-0.49
-0.485
-0.485
-0.485
-0.49
-0.515
-0.525
-0.535
-0.535
-0.525
-0.515
-0.52
-0.52
-0.505
-0.505
-0.515
-0.5
-0.505
-0.51
-0.515
-0.535
-0.53
-0.525
-0.51
-0.51
-0.51
-0.525
-0.5
-0.5
-0.495
-0.495
-0.495
-0.5
-0.5
-0.495
-0.49
-0.495
-0.49
-0.495
-0.5
-0.51
-0.5
-0.5
-0.51
-0.495
-0.485
-0.485
-0.49
-0.48
-0.475
-0.475
-0.475
-0.475
-0.49
-0.465
-0.485
-0.475
-0.465
-0.455
-0.44
-0.43
-0.42
-0.4
-0.405
-0.4
-0.41
-0.395
-0.405
-0.4
-0.395
-0.385
-0.38
-0.395
-0.405
-0.425
-0.435
-0.455
-0.46
-0.43
-0.34
-0.195
0.015
0.275
0.595
0.93
1.265
1.56
1.755
1.865
1.855
1.78
1.63
1.365
0.95
0.47
0.0
-0.36
-0.56
-0.615
-0.595
-0.545
-0.49
-0.47
-0.46
-0.475
-0.515
-0.54
-0.565
-0.575
-0.575
-0.59
-0.595
-0.595
-0.605
-0.605
-0.6
-0.61
-0.61
-0.58
-0.56
-0.565
-0.54
-0.555
-0.56
-0.55
-0.56
-0.57
-0.565
-0.57
-0.58
-0.585
-0.58
-0.58
-0.585
-0.58
-0.58
-0.595
-0.595
-0.605
-0.625
-0.625
-0.625
-0.64
-0.635
-0.63
-0.65
-0.675
-0.665
-0.66
-0.685
-0.7
-0.705
-0.71
-0.72
-0.72
-0.715
-0.725
-0.715
-0.725
-0.725
-0.76
-0.78
-0.795
-0.795
-0.815
-0.815
-0.825
-0.83
-0.84
-0.865
-0.89
-0.91
-0.94
-0.97
-0.995
-1.02
-1.03
-1.04
-1.045
-1.03
-1.03
-1.025
-1.045
-1.06
-1.06
-1.07
-1.06
-1.065
-1.06
-1.045
-1.025
-1.005
-0.98
-0.955
-0.935
-0.9
-0.865
-0.855
-0.81
-0.77
-0.73
-0.705
-0.675
-0.62
-0.59
-0.56
-0.535
-0.52
-0.495
-0.485
-0.465
-0.465
-0.45
-0.44
-0.425
-0.415
-0.405
-0.39
-0.39
-0.39
-0.375
-0.38
-0.385
-0.395
-0.395
-0.39
-0.4
-0.405
-0.415
-0.41
-0.415
-0.42
-0.435
-0.45
-0.46
-0.475
-0.46
-0.445
-0.425
-0.395
-0.38
-0.355
-0.355
-0.355
-0.355
-0.365
-0.365
-0.375
-0.37
-0.365
-0.355
-0.345
-0.34
-0.34
-0.325
-0.315
-0.325
-0.32
-0.325
-0.33
-0.325
-0.32
-0.325
-0.325
-0.315
-0.305
-0.315
-0.32
-0.315
-0.325
-0.325
-0.32
-0.33
-0.325
-0.325
-0.325
-0.33
-0.32
-0.325
-0.33
-0.335
-0.355
-0.355
-0.38
-0.38
-0.395
-0.375
-0.375
-0.375
-0.35
-0.35
-0.355
-0.355
-0.36
-0.365
-0.365
-0.37
-0.365
-0.365
-0.36
-0.355
-0.345
-0.35
-0.35
-0.36
-0.365
-0.385
-0.395
-0.385
-0.38
-0.38
-0.375
-0.375
-0.365
-0.375
-0.38
-0.385
-0.4
-0.405
-0.41
-0.42
-0.415
-0.42
-0.405
-0.41
-0.395
-0.39
-0.39
-0.385
-0.39
-0.395
-0.405
-0.405
-0.4
-0.415
-0.4
-0.4
-0.38
-0.355
-0.365
-0.375
-0.38
-0.385
-0.395
-0.395
-0.4
-0.395
-0.39
-0.385
-0.385
-0.39
-0.4
-0.405
-0.415
-0.42
-0.415
-0.42
-0.41
-0.405
-0.38
-0.39
-0.36
-0.34
-0.36
-0.365
-0.35
-0.355
-0.37
-0.38
-0.375
-0.38
-0.365
-0.365
-0.35
-0.36
-0.365
-0.365
-0.375
-0.38
-0.38
-0.385
-0.37
-0.375
-0.365
-0.365
-0.36
-0.35
-0.34
-0.34
-0.35
-0.36
-0.365
-0.37
-0.385
-0.39
-0.415
-0.415
-0.425
-0.405
-0.37
-0.26
-0.125
0.045
0.28
0.54
0.815
1.125
1.41
1.625
1.78
1.825
1.815
1.755
1.61
1.375
1.025
0.59
0.14
-0.225
-0.445
-0.53
-0.54
-0.515
-0.475
-0.44
-0.43
-0.45
-0.475
-0.515
-0.53
-0.545
-0.56
-0.555
-0.545
-0.535
-0.54
-0.54
-0.54
-0.545
-0.535
-0.535
-0.545
-0.535
-0.53
-0.52
-0.52
-0.515
-0.52
-0.535
-0.545
-0.545
-0.56
-0.56
-0.57
-0.585
-0.58
-0.59
-0.59
-0.585
-0.6
-0.615
-0.605
-0.61
-0.625
-0.635
-0.635
-0.645
-0.64
-0.64
-0.645
-0.655
-0.655
-0.665
-0.675
-0.68
-0.695
-0.695
-0.71
-0.715
-0.705
-0.715
-0.71
-0.715
-0.715
-0.74
-0.76
-0.795
-0.815
-0.84
-0.845
-0.86
-0.875
-0.88
-0.885
-0.9
-0.915
-0.94
-0.975
-1.01
-1.04
-1.065
-1.085
-1.08
-1.095
-1.09
-1.08
-1.075
-1.075
-1.095
-1.085
-1.095
-1.085
-1.085
-1.09
-1.08
-1.06
-1.03
-1.01
-0.98
-0.95
-0.925
-0.9
-0.875
-0.84
-0.8
-0.77
-0.74
-0.695
-0.68
-0.655
-0.625
-0.62
-0.57
-0.56
-0.545
-0.54
-0.53
-0.51
-0.495
-0.485
-0.465
-0.46
-0.445
-0.45
-0.445
-0.47
-0.47
-0.475
-0.49
-0.49
-0.505
-0.515
-0.52
-0.515
-0.525
-0.535
-0.55
-0.57
-0.585
-0.6
-0.6
-0.59
-0.585
-0.565
-0.56
-0.52
-0.515
-0.495
-0.485
-0.475
-0.47
-0.465
-0.47
-0.46
-0.45
-0.44
-0.435
-0.44
-0.43
-0.435
-0.415
-0.44
-0.445
-0.44
-0.445
-0.45
-0.435
-0.41
-0.4
-0.38
-0.385
-0.39
-0.39
-0.395
-0.395
-0.405
-0.405
-0.395
-0.39
-0.385
-0.385
-0.395
-0.4
-0.4
-0.415
-0.44
-0.435
-0.455
-0.46
-0.465
-0.48
-0.49
-0.48
-0.485
-0.49
-0.505
-0.54
-0.545
-0.535
-0.54
-0.54
-0.53
-0.525
-0.5
-0.49
-0.475
-0.46
-0.465
-0.465
-0.485
-0.5
-0.5
-0.485
-0.415
-0.295
-0.11
0.09
0.305
0.57
0.845
1.12
1.365
1.555
1.675
1.73
1.72
1.655
1.52
1.27
0.915
0.475
0.02
-0.315
-0.505
-0.58
-0.58
-0.535
-0.485
-0.445
-0.435
-0.43
-0.445
-0.455
-0.47
-0.48
-0.485
-0.485
-0.49
-0.485
-0.505
-0.5
-0.5
-0.515
-0.535
-0.53
-0.55
-0.565
-0.585
-0.605
-0.615
-0.625
-0.635
-0.64
-0.645
-0.645
-0.64
-0.65
-0.67
-0.665
-0.685
-0.685
-0.685
-0.695
-0.685
-0.68
-0.66
-0.675
-0.67
-0.67
-0.67
-0.685
-0.69
-0.71
-0.72
-0.725
-0.725
-0.73
-0.73
-0.735
-0.725
-0.735
-0.735
-0.745
-0.76
-0.765
-0.785
-0.8
-0.8
-0.805
-0.805
-0.805
-0.81
-0.81
-0.82
-0.82
-0.835
-0.86
-0.865
-0.885
-0.895
-0.91
-0.91
-0.935
-0.94
-0.955
-0.98
-0.995
-1.015
-1.04
-1.06
-1.065
-1.075
-1.065
-1.065
-1.055
-1.035
-1.02
-1.0
-0.98
-0.96
-0.945
-0.915
-0.895
-0.865
-0.83
-0.78
-0.75
-0.725
-0.705
-0.69
-0.685
-0.665
-0.635
-0.64
-0.635
-0.62
-0.615
-0.58
-0.57
-0.565
-0.545
-0.545
-0.545
-0.555
-0.55
-0.555
-0.565
-0.555
-0.555
-0.555
-0.55
-0.545
-0.535
-0.545
-0.54
-0.54
-0.555
-0.56
-0.56
-0.57
-0.565
-0.555
-0.55
-0.54
-0.53
-0.54
-0.54
-0.565
-0.575
-0.595
-0.6
-0.605
-0.625
-0.62
-0.615
-0.58
-0.575
-0.565
-0.565
-0.57
-0.57
-0.58
-0.575
-0.565
-0.545
-0.545
-0.535
-0.525
-0.515
-0.53
-0.525
-0.525
-0.53
-0.525
-0.535
-0.525
-0.52
-0.51
-0.505
-0.485
-0.485
-0.49
-0.495
-0.495
-0.515
-0.52
-0.54
-0.525
-0.525
-0.52
-0.52
-0.51
-0.5
-0.505
-0.505
-0.525
-0.53
-0.535
-0.535
-0.545
-0.545
-0.54
-0.545
-0.54
-0.54
-0.56
-0.565
-0.585
-0.595
-0.615
-0.625
-0.63
-0.635
-0.63
-0.63
-0.615
-0.6
-0.575
-0.58
-0.59
-0.585
-0.565
-0.57
-0.565
-0.555
-0.555
-0.545
-0.55
-0.535
-0.54
-0.55
-0.55
-0.57
-0.575
-0.56
-0.555
-0.555
-0.545
-0.54
-0.53
-0.52
-0.53
-0.52
-0.535
-0.53
-0.545
-0.55
-0.545
-0.55
-0.54
-0.545
-0.54
-0.535
-0.55
-0.55
-0.56
-0.55
-0.565
-0.555
-0.565
-0.575
-0.56
-0.565
-0.565
-0.57
-0.59
-0.585
-0.6
-0.615
-0.615
-0.615
-0.615
-0.6
-0.595
-0.585
-0.575
-0.565
-0.565
-0.545
-0.555
-0.535
-0.53
-0.515
-0.505
-0.505
-0.495
-0.49
-0.495
-0.5
-0.495
-0.5
-0.51
-0.51
-0.52
-0.515
-0.515
-0.515
-0.5
-0.5
-0.5
-0.49
-0.5
-0.5
-0.51
-0.52
-0.52
-0.545
-0.565
-0.57
-0.57
-0.52
-0.425
-0.27
-0.065
0.175
0.435
0.73
1.03
1.32
1.565
1.715
1.8
1.805
1.73
1.575
1.285
0.88
0.38
-0.105
-0.47
-0.675
-0.735
-0.695
-0.63
-0.57
-0.535
-0.515
-0.525
-0.545
-0.58
-0.605
-0.625
-0.62
-0.62
-0.61
-0.615
-0.615
-0.625
-0.63
-0.645
-0.65
-0.66
-0.665
-0.665
-0.68
-0.695
-0.69
-0.69
-0.685
-0.685
-0.685
-0.685
-0.69
-0.715
-0.73
-0.74
-0.755
-0.745
-0.755
-0.745
-0.74
-0.735
-0.715
-0.72
-0.735
-0.75
-0.775
-0.79
-0.795
-0.81
-0.82
-0.825
-0.825
-0.835
-0.835
-0.845
-0.86
-0.86
-0.87
-0.88
-0.88
-0.86
-0.87
-0.86
-0.865
-0.86
-0.87
-0.885
-0.905
-0.91
-0.93
-0.94
-0.955
-0.97
-0.99
-0.99
-0.99
-0.99
-1.0
-1.04
-1.025
-1.05
-1.065
-1.095
-1.11
-1.1
-1.125
-1.12
-1.12
-1.11
-1.115
-1.115
-1.13
-1.125
-1.125
-1.11
-1.09
-1.07
-1.035
-0.99
-0.945
-0.915
-0.87
-0.845
-0.825
-0.805
-0.78
-0.765
-0.725
-0.705
-0.675
-0.63
-0.595
-0.565
-0.53
-0.52
-0.51
-0.495
-0.495
-0.48
-0.475
-0.47
-0.465
-0.45
-0.45
-0.44
-0.435
-0.435
-0.455
-0.47
-0.485
-0.495
-0.495
-0.5
-0.5
-0.49
-0.485
-0.475
-0.48
-0.475
-0.47
-0.48
-0.475
-0.475
-0.475
-0.475
-0.48
-0.47
-0.465
-0.46
-0.455
-0.45
-0.455
-0.455
-0.455
-0.465
-0.465
-0.47
-0.455
-0.455
-0.465
-0.46
-0.445
-0.45
-0.455
-0.445
-0.44
-0.445
-0.43
-0.42
-0.415
-0.39
-0.38
-0.36
-0.345
-0.345
-0.35
-0.355
-0.36
-0.375
-0.385
-0.38
-0.37
-0.355
-0.36
-0.34
-0.34
-0.345
-0.34
-0.355
-0.37
-0.405
-0.42
-0.41
-0.415
-0.405
-0.405
-0.39
-0.39
-0.385
-0.4
-0.41
-0.42
-0.435
-0.435
-0.43
-0.425
-0.43
-0.42
-0.425
-0.415
-0.42
-0.43
-0.455
-0.465
-0.49
-0.49
-0.495
-0.505
-0.495
-0.485
-0.465
-0.455
-0.465
-0.445
-0.445
-0.435
-0.44
-0.435
-0.425
-0.415
-0.405
-0.395
-0.375
-0.375
-0.38
-0.365
-0.37
-0.365
-0.37
-0.365
-0.36
-0.365
-0.35
-0.345
-0.335
-0.345
-0.33
-0.33
-0.345
-0.36
-0.365
-0.385
-0.385
-0.39
-0.38
-0.37
-0.37
-0.35
-0.36
-0.36
-0.37
-0.375
-0.385
-0.38
-0.395
-0.39
-0.38
-0.385
-0.4
-0.42
-0.435
-0.45
-0.45
-0.39
-0.28
-0.11
0.12
0.4
0.735
1.085
1.39
1.65
1.78
1.815
1.755
1.595
1.315
0.9
0.415
-0.065
-0.375
-0.53
-0.565
-0.51
-0.44
-0.38
-0.355
-0.365
-0.4
-0.43
-0.46
-0.475
-0.465
-0.455
-0.45
-0.44
-0.455
-0.455
-0.465
-0.48
-0.495
-0.505
-0.525
-0.535
-0.525
-0.52
-0.53
-0.53
-0.55
-0.565
-0.575
-0.59
-0.6
-0.615
-0.625
-0.625
-0.615
-0.615
-0.615
-0.625
-0.635
-0.64
-0.645
-0.66
-0.665
-0.675
-0.68
-0.67
-0.665
-0.67
-0.68
-0.675
-0.685
-0.69
-0.69
-0.705
-0.705
-0.705
-0.71
-0.715
-0.71
-0.715
-0.71
-0.7
-0.72
-0.725
-0.74
-0.735
-0.745
-0.76
-0.77
-0.765
-0.765
-0.77
-0.78
-0.785
-0.795
-0.81
-0.835
-0.865
-0.9
-0.91
-0.935
-0.96
-0.96
-0.975
-0.975
-0.995
-0.99
-1.015
-1.03
-1.02
-1.025
-1.03
-1.02
-1.0
-0.975
-0.97
-0.925
-0.905
-0.87
-0.845
-0.825
-0.78
-0.76
-0.735
-0.69
-0.66
-0.62
-0.6
-0.57
-0.55
-0.525
-0.51
-0.5
-0.495
-0.49
-0.48
-0.48
-0.465
-0.46
-0.45
-0.435
-0.44
-0.425
-0.43
-0.43
-0.43
-0.44
-0.46
-0.46
-0.45
-0.44
-0.43
-0.425
-0.4
-0.395
-0.405
-0.4
-0.4
-0.395
-0.405
-0.415
-0.415
-0.415
-0.41
-0.4
-0.4
-0.395
-0.395
-0.4
-0.425
-0.44
-0.455
-0.465
-0.47
-0.47
-0.46
-0.465
-0.45
-0.455
-0.435
-0.445
-0.455
-0.45
-0.445
-0.435
-0.43
-0.42
-0.4
-0.385
-0.385
-0.39
-0.39
-0.385
-0.395
-0.4
-0.405
-0.405
-0.415
-0.405
-0.395
-0.385
-0.375
-0.38
-0.395
-0.405
-0.41
-0.405
-0.41
-0.4
-0.415
-0.405
-0.4
-0.395
-0.385
-0.385
-0.39
-0.405
-0.42
-0.435
-0.44
-0.445
-0.445
-0.43
-0.425
-0.42
-0.41
-0.415
-0.42
-0.425
-0.44
-0.45
-0.455
-0.45
-0.455
-0.455
-0.44
-0.45
-0.47
-0.48
-0.485
-0.495
-0.495
-0.495
-0.495
-0.48
-0.47
-0.465
-0.445
-0.435
-0.425
-0.425
-0.43
-0.435
-0.435
-0.44
-0.45
-0.45
-0.44
-0.445
-0.44
-0.43
-0.415
-0.43
-0.425
-0.415
-0.43
-0.42
-0.42
-0.41
-0.41
-0.415
-0.41
-0.43
-0.445
-0.47
-0.455
-0.405
-0.32
-0.16
0.01
0.245
0.525
0.815
1.09
1.345
1.535
1.655
1.705
1.695
1.64
1.515
1.315
0.995
0.565
0.12
-0.26
-0.51
-0.605
-0.61
-0.57
-0.52
-0.495
-0.49
-0.515
-0.56
-0.57
-0.575
-0.575
-0.57
-0.55
-0.55
-0.54
-0.555
-0.56
-0.565
-0.565
-0.57
-0.565
-0.565
-0.56
-0.57
-0.57
-0.59
-0.6
-0.61
-0.615
-0.615
-0.635
-0.62
-0.63
-0.625
-0.62
-0.605
-0.61
-0.615
-0.62
-0.625
-0.635
-0.645
-0.65
-0.665
-0.655
-0.655
-0.655
-0.66
-0.665
-0.67
-0.675
-0.685
-0.69
-0.715
-0.72
-0.725
-0.73
-0.745
-0.77
-0.775
-0.775
-0.8
-0.815
-0.825
-0.85
-0.85
-0.88
-0.9
-0.91
-0.92
-0.92
-0.935
-0.96
-0.985
-1.005
-1.02
-1.045
-1.06
-1.075
-1.07
-1.075
-1.055
-1.055
-1.045
-1.045
-1.045
-1.055
-1.06
-1.075
-1.09
-1.105
-1.11
-1.1
-1.09
-1.06
-1.035
-1.0
-0.975
-0.955
-0.935
-0.905
-0.88
-0.845
-0.805
-0.785
-0.74
-0.71
-0.695
-0.655
-0.615
-0.595
-0.585
-0.555
-0.54
-0.545
-0.545
-0.515
-0.495
-0.49
-0.495
-0.47
-0.475
-0.485
-0.495
-0.51
-0.52
-0.53
-0.545
-0.545
-0.54
-0.54
-0.53
-0.53
-0.53
-0.525
-0.545
-0.555
-0.575
-0.595
-0.59
-0.61
-0.6
-0.595
-0.575
-0.57
-0.565
-0.555
-0.555
-0.56
-0.555
-0.55
-0.54
-0.52
-0.52
-0.505
-0.51
-0.495
-0.485
-0.495
-0.505
-0.51
-0.505
-0.5
-0.495
-0.51
-0.49
-0.49
-0.475
-0.465
-0.45
-0.46
-0.455
-0.465
-0.46
-0.46
-0.465
-0.465
-0.455
-0.455
-0.45
-0.445
-0.44
-0.44
-0.445
-0.46
-0.475
-0.485
-0.49
-0.495
-0.5
-0.5
-0.495
-0.495
-0.52
-0.51
-0.51
-0.515
-0.535
-0.54
-0.54
-0.545
-0.545
-0.54
-0.535
-0.515
-0.51
-0.5
-0.49
-0.5
-0.5
-0.5
-0.485
-0.47
-0.465
-0.465
-0.45
-0.45
-0.44
-0.48
-0.49
-0.525
-0.535
-0.545
-0.485
-0.36
-0.17
0.03
0.285
0.56
0.86
1.155
1.405
1.605
1.725
1.76
1.725
1.645
1.455
1.185
0.79
0.325
-0.125
-0.465
-0.62
-0.665
-0.63
-0.57
-0.51
-0.485
-0.48
-0.505
-0.53
-0.55
-0.58
-0.595
-0.59
-0.6
-0.615
-0.63
-0.635
-0.645
-0.645
-0.655
-0.66
-0.67
