Lead II
-1.33
-1.36
-1.38
-1.38
-1.405
-1.425
-1.41
-1.42
-1.405
-1.405
-1.385
-1.38
-1.37
-1.36
-1.375
-1.38
-1.385
-1.395
-1.405
-1.38
-1.375
-1.355
-1.34
-1.34
-1.34
-1.345
-1.355
-1.37
-1.345
-1.34
-1.31
-1.285
-1.25
-1.23
-1.215
-1.225
-1.21
-1.225
-1.24
-1.26
-1.26
-1.23
-1.215
-1.19
-1.175
-1.145
-1.125
-1.125
-1.14
-1.17
-1.16
-1.175
-1.2
-1.22
-1.225
-1.23
-1.225
-1.21
-1.21
-1.21
-1.24
-1.27
-1.31
-1.34
-1.365
-1.38
-1.39
-1.385
-1.38
-1.385
-1.355
-1.36
-1.37
-1.375
-1.38
-1.37
-1.37
-1.365
-1.345
-1.35
-1.35
-1.35
-1.345
-1.34
-1.325
-1.3
-1.225
-1.105
-0.905
-0.625
-0.29
0.095
0.495
0.91
1.32
1.675
1.97
2.185
2.27
2.185
1.845
1.205
0.565
-0.075
-0.715
-1.355
-1.78
-1.555
-1.26
-1.055
-0.95
-0.98
-1.05
-1.19
-1.285
-1.325
-1.325
-1.315
-1.3
-1.285
-1.285
-1.3
-1.315
-1.31
-1.31
-1.305
-1.295
-1.28
-1.275
-1.28
-1.26
-1.255
-1.235
-1.225
-1.23
-1.24
-1.25
-1.255
-1.265
-1.245
-1.225
-1.21
-1.19
-1.18
-1.17
-1.155
-1.15
-1.145
-1.15
-1.135
-1.135
-1.12
-1.11
-1.085
-1.04
-1.01
-0.995
-0.975
-0.98
-0.955
-0.96
-0.94
-0.9
-0.88
-0.835
-0.8
-0.765
-0.72
-0.705
-0.67
-0.655
-0.63
-0.605
-0.58
-0.57
-0.54
-0.505
-0.485
-0.47
-0.455
-0.44
-0.46
-0.465
-0.48
-0.5
-0.52
-0.52
-0.535
-0.53
-0.57
-0.615
-0.675
-0.72
-0.795
-0.88
-0.93
-0.98
-1.005
-1.065
-1.075
-1.095
-1.115
-1.115
-1.135
-1.155
-1.165
-1.195
-1.21
-1.23
-1.245
-1.26
-1.265
-1.255
-1.255
-1.255
-1.265
-1.255
-1.255
-1.27
-1.255
-1.26
-1.26
-1.265
-1.26
-1.27
-1.26
-1.255
-1.23
-1.23
-1.225
-1.245
-1.26
-1.255
-1.26
-1.25
-1.24
-1.225
-1.215
-1.21
-1.23
-1.215
-1.22
-1.235
-1.245
-1.25
-1.26
-1.25
-1.245
-1.245
-1.225
-1.215
-1.21
-1.21
-1.225
-1.24
-1.24
-1.265
-1.26
-1.265
-1.28
-1.255
-1.255
-1.23
-1.235
-1.25
-1.255
-1.27
-1.275
-1.28
-1.285
-1.28
-1.275
-1.275
-1.28
-1.28
-1.285
-1.285
-1.285
-1.3
-1.3
-1.315
-1.32
-1.325
-1.32
-1.305
-1.295
-1.275
-1.26
-1.265
-1.27
-1.285
-1.295
-1.3
-1.315
-1.31
-1.3
-1.3
-1.3
-1.295
-1.28
-1.265
-1.275
-1.28
-1.275
-1.285
-1.27
-1.25
-1.23
-1.2
-1.175
-1.155
-1.17
-1.175
-1.215
-1.225
-1.22
-1.22
-1.21
-1.185
-1.155
-1.135
-1.11
-1.085
-1.08
-1.09
-1.11
-1.135
-1.145
-1.16
-1.17
-1.165
-1.155
-1.15
-1.165
-1.175
-1.185
-1.225
-1.255
-1.29
-1.34
-1.35
-1.38
-1.38
-1.385
-1.37
-1.355
-1.34
-1.325
-1.335
-1.325
-1.325
-1.33
-1.34
-1.345
-1.38
-1.385
-1.37
-1.37
-1.34
-1.315
-1.265
-1.195
-1.075
-0.885
-0.62
-0.28
0.12
0.565
1.035
1.485
1.89
2.2
2.38
2.415
2.3
2.005
1.49
0.85
0.21
-0.43
-1.07
-1.71
-1.67
-1.415
-1.145
-0.97
-0.91
-0.95
-1.065
-1.16
-1.275
-1.32
-1.325
-1.3
-1.285
-1.265
-1.245
-1.255
-1.26
-1.27
-1.285
-1.295
-1.285
-1.295
-1.28
-1.28
-1.255
-1.24
-1.23
-1.23
-1.215
-1.215
-1.215
-1.225
-1.225
-1.215
-1.185
-1.175
-1.175
-1.155
-1.14
-1.145
-1.145
-1.14
-1.135
-1.125
-1.105
-1.085
-1.06
-1.045
-1.025
-0.99
-0.965
-0.95
-0.93
-0.9
-0.905
-0.895
-0.895
-0.855
-0.835
-0.795
-0.75
-0.705
-0.675
-0.63
-0.62
-0.595
-0.58
-0.575
-0.54
-0.52
-0.495
-0.44
-0.42
-0.41
-0.41
-0.415
-0.42
-0.43
-0.45
-0.465
-0.5
-0.52
-0.565
-0.595
-0.62
-0.66
-0.705
-0.76
-0.83
-0.91
-0.955
-1.0
-1.05
-1.065
-1.08
-1.105
-1.115
-1.125
-1.135
-1.15
-1.165
-1.18
-1.215
-1.205
-1.215
-1.225
-1.205
-1.22
-1.21
-1.21
-1.225
-1.225
-1.235
-1.23
-1.235
-1.25
-1.255
-1.255
-1.235
-1.225
-1.2
-1.185
-1.185
-1.2
-1.21
-1.235
-1.24
-1.215
-1.21
-1.21
-1.2
-1.195
-1.19
-1.185
-1.175
-1.185
-1.2
-1.18
-1.205
-1.2
-1.215
-1.21
-1.215
-1.21
-1.205
-1.185
-1.185
-1.185
-1.19
-1.21
-1.215
-1.22
-1.22
-1.225
-1.245
-1.245
-1.245
-1.23
-1.23
-1.215
-1.235
-1.245
-1.26
-1.265
-1.265
-1.25
-1.235
-1.235
-1.23
-1.22
-1.235
-1.26
-1.255
-1.28
-1.285
-1.29
-1.29
-1.3
-1.295
-1.285
-1.275
-1.26
-1.23
-1.245
-1.255
-1.275
-1.285
-1.3
-1.31
-1.305
-1.295
-1.285
-1.27
-1.275
-1.27
-1.265
-1.255
-1.235
-1.215
-1.21
-1.2
-1.205
-1.21
-1.2
-1.19
-1.175
-1.17
-1.17
-1.16
-1.18
-1.17
-1.155
-1.14
-1.105
-1.11
-1.105
-1.095
-1.1
-1.1
-1.11
-1.145
-1.165
-1.18
-1.19
-1.205
-1.22
-1.23
-1.255
-1.27
-1.275
-1.305
-1.32
-1.345
-1.36
-1.38
-1.38
-1.38
-1.37
-1.365
-1.345
-1.33
-1.325
-1.32
-1.34
-1.35
-1.36
-1.355
-1.37
-1.365
-1.35
-1.335
-1.285
-1.2
-1.085
-0.935
-0.72
-0.43
-0.07
0.35
0.83
1.335
1.785
2.14
2.315
2.305
2.075
1.54
0.9
0.26
-0.38
-1.02
-1.66
-1.71
-1.45
-1.185
-1.0
-0.94
-0.98
-1.075
-1.19
-1.26
-1.315
-1.32
-1.315
-1.31
-1.295
-1.295
-1.295
-1.31
-1.325
-1.35
-1.345
-1.335
-1.325
-1.33
-1.315
-1.315
-1.295
-1.285
-1.255
-1.255
-1.24
-1.235
-1.23
-1.235
-1.24
-1.24
-1.245
-1.23
-1.23
-1.19
-1.17
-1.15
-1.15
-1.135
-1.14
-1.13
-1.11
-1.105
-1.11
-1.12
-1.1
-1.07
-1.04
-1.025
-0.96
-0.945
-0.915
-0.9
-0.89
-0.875
-0.84
-0.81
-0.785
-0.745
-0.72
-0.69
-0.66
-0.63
-0.605
-0.595
-0.58
-0.58
-0.575
-0.575
-0.575
-0.57
-0.55
-0.545
-0.53
-0.535
-0.545
-0.585
-0.615
-0.65
-0.695
-0.755
-0.81
-0.84
-0.885
-0.925
-0.92
-0.96
-0.995
-1.045
-1.095
-1.14
-1.18
-1.21
-1.25
-1.26
-1.285
-1.29
-1.285
-1.3
-1.3
-1.305
-1.315
-1.33
-1.33
-1.35
-1.355
-1.365
-1.355
-1.35
-1.345
-1.345
-1.35
-1.365
-1.37
-1.36
-1.38
-1.375
-1.375
-1.365
-1.345
-1.34
-1.325
-1.32
-1.315
-1.32
-1.32
-1.345
-1.34
-1.35
-1.36
-1.33
-1.345
-1.305
-1.305
-1.31
-1.31
-1.335
-1.35
-1.37
-1.375
-1.385
-1.38
-1.375
-1.365
-1.34
-1.33
-1.32
-1.315
-1.335
-1.35
-1.375
-1.395
-1.405
-1.4
-1.38
-1.38
-1.38
-1.38
-1.39
-1.395
-1.43
-1.435
-1.435
-1.42
-1.425
-1.42
-1.42
-1.405
-1.405
-1.39
-1.4
-1.405
-1.425
-1.435
-1.46
-1.475
-1.48
-1.47
-1.445
-1.42
-1.405
-1.395
-1.395
-1.425
-1.455
-1.475
-1.49
-1.48
-1.49
-1.48
-1.475
-1.48
-1.46
-1.425
-1.415
-1.385
-1.38
-1.38
-1.365
-1.38
-1.38
-1.4
-1.405
-1.375
-1.37
-1.35
-1.345
-1.345
-1.33
-1.325
-1.315
-1.295
-1.285
-1.275
-1.275
-1.29
-1.3
-1.295
-1.3
-1.315
-1.33
-1.33
-1.335
-1.335
-1.355
-1.36
-1.375
-1.395
-1.41
-1.425
-1.45
-1.475
-1.47
-1.485
-1.48
-1.47
-1.47
-1.475
-1.47
-1.46
-1.45
-1.44
-1.435
-1.435
-1.445
-1.46
-1.455
-1.455
-1.445
-1.43
-1.335
-1.22
-1.05
-0.805
-0.51
-0.165
0.225
0.645
1.085
1.5
1.85
2.065
2.11
1.925
1.465
0.825
0.185
-0.455
-1.095
-1.735
-1.99
-1.81
-1.53
-1.295
-1.155
-1.115
-1.155
-1.205
-1.28
-1.33
-1.365
-1.37
-1.37
-1.355
-1.35
-1.345
-1.325
-1.325
-1.33
-1.315
-1.31
-1.315
-1.315
-1.305
-1.31
-1.295
-1.285
-1.285
-1.27
-1.255
-1.235
-1.22
-1.22
-1.2
-1.2
-1.21
-1.195
-1.19
-1.2
-1.165
-1.165
-1.14
-1.125
-1.1
-1.09
-1.08
-1.085
-1.085
-1.08
-1.065
-1.04
-1.035
-0.99
-0.95
-0.925
-0.89
-0.87
-0.855
-0.835
-0.815
-0.78
-0.745
-0.725
-0.705
-0.655
-0.635
-0.615
-0.57
-0.545
-0.54
-0.525
-0.52
-0.525
-0.52
-0.535
-0.535
-0.515
-0.495
-0.495
-0.5
-0.525
-0.56
-0.615
-0.67
-0.72
-0.77
-0.815
-0.85
-0.88
-0.905
-0.95
-0.96
-1.0
-1.025
-1.07
-1.1
-1.135
-1.16
-1.185
-1.21
-1.22
-1.22
-1.21
-1.185
-1.175
-1.19
-1.215
-1.225
-1.24
-1.24
-1.26
-1.255
-1.24
-1.23
-1.22
-1.205
-1.2
-1.2
-1.21
-1.215
-1.205
-1.215
-1.22
-1.2
-1.19
-1.175
-1.175
-1.16
-1.18
-1.175
-1.17
-1.19
-1.19
-1.17
-1.17
-1.17
-1.145
-1.14
-1.14
-1.13
-1.125
-1.135
-1.145
-1.16
-1.17
-1.18
-1.2
-1.215
-1.2
-1.195
-1.18
-1.17
-1.155
-1.165
-1.185
-1.195
-1.205
-1.23
-1.25
-1.225
-1.2
-1.19
-1.195
-1.185
-1.205
-1.21
-1.23
-1.22
-1.205
-1.23
-1.21
-1.22
-1.195
-1.195
-1.19
-1.195
-1.185
-1.185
-1.205
-1.215
-1.23
-1.23
-1.255
-1.255
-1.245
-1.235
-1.21
-1.195
-1.19
-1.2
-1.22
-1.235
-1.235
-1.25
-1.255
-1.245
-1.215
-1.195
-1.155
-1.105
-1.09
-1.085
-1.1
-1.12
-1.12
-1.125
-1.125
-1.12
-1.115
-1.085
-1.05
-1.025
-1.025
-1.01
-1.005
-1.025
-1.035
-1.045
-1.07
-1.055
-1.055
-1.06
-1.045
-1.04
-1.06
-1.08
-1.1
-1.125
-1.155
-1.175
-1.205
-1.24
-1.265
-1.265
-1.25
-1.225
-1.225
-1.2
-1.2
-1.21
-1.225
-1.235
-1.245
-1.25
-1.245
-1.23
-1.245
-1.22
-1.21
-1.205
-1.175
-1.12
-1.03
-0.87
-0.64
-0.325
0.065
0.48
0.92
1.385
1.81
2.155
2.365
2.42
2.27
1.86
1.22
0.58
-0.06
-0.7
-1.34
-1.64
-1.395
-1.105
-0.865
-0.795
-0.815
-0.915
-1.03
-1.135
-1.19
-1.175
-1.17
-1.135
-1.1
-1.105
-1.11
-1.135
-1.145
-1.175
-1.18
-1.19
-1.19
-1.165
-1.125
-1.11
-1.1
-1.11
-1.095
-1.085
-1.1
-1.09
-1.09
-1.115
-1.105
-1.075
-1.06
-1.03
-1.015
-1.005
-1.005
-1.0
-1.005
-1.02
-1.0
-0.98
-0.955
-0.925
-0.89
-0.87
-0.855
-0.875
-0.87
-0.87
-0.855
-0.835
-0.8
-0.77
-0.72
-0.68
-0.665
-0.625
-0.595
-0.575
-0.545
-0.53
-0.515
-0.485
-0.48
-0.45
-0.425
-0.43
-0.375
-0.345
-0.32
-0.305
-0.3
-0.315
-0.35
-0.37
-0.395
-0.42
-0.45
-0.445
-0.48
-0.525
-0.565
-0.615
-0.67
-0.715
-0.765
-0.805
-0.845
-0.885
-0.915
-0.945
-0.965
-0.97
-1.0
-1.015
-1.045
-1.065
-1.075
-1.095
-1.1
-1.11
-1.09
-1.09
-1.09
-1.09
-1.1
-1.11
-1.115
-1.12
-1.13
-1.12
-1.14
-1.13
-1.12
-1.11
-1.11
-1.09
-1.08
-1.09
-1.095
-1.095
-1.105
-1.095
-1.1
-1.09
-1.095
-1.07
-1.07
-1.065
-1.055
-1.075
-1.055
-1.065
-1.07
-1.07
-1.065
-1.055
-1.06
-1.055
-1.045
-1.055
-1.07
-1.065
-1.09
-1.11
-1.105
-1.115
-1.105
-1.095
-1.09
-1.085
-1.095
-1.08
-1.075
-1.08
-1.07
-1.095
-1.12
-1.135
-1.135
-1.14
-1.115
-1.12
-1.12
-1.11
-1.1
-1.1
-1.12
-1.13
-1.12
-1.13
-1.145
-1.135
-1.135
-1.145
-1.15
-1.14
-1.13
-1.13
-1.13
-1.135
-1.15
-1.16
-1.155
-1.155
-1.13
-1.125
-1.11
-1.11
-1.095
-1.11
-1.115
-1.11
-1.115
-1.11
-1.1
-1.065
-1.045
-1.02
-1.03
-1.025
-1.025
-1.025
-1.025
-1.02
-1.005
-1.01
-0.995
-0.965
-0.955
-0.955
-0.94
-0.95
-0.965
-0.985
-0.98
-0.98
-0.98
-1.015
-1.02
-1.02
-1.02
-1.02
-1.05
-1.075
-1.09
-1.115
-1.145
-1.17
-1.185
-1.205
-1.21
-1.23
-1.23
-1.205
-1.17
-1.16
-1.135
-1.135
-1.16
-1.18
-1.2
-1.215
-1.22
-1.235
-1.235
-1.205
-1.175
-1.13
-1.045
-0.92
-0.75
-0.485
-0.16
0.235
0.63
1.04
1.48
1.87
2.19
2.37
2.43
2.315
1.985
1.4
0.76
0.12
-0.52
-1.16
-1.58
-1.41
-1.145
-0.92
-0.8
-0.8
-0.865
-0.96
-1.075
-1.135
-1.17
-1.18
-1.16
-1.14
-1.15
-1.15
-1.155
-1.165
-1.185
-1.205
-1.2
-1.19
-1.185
-1.175
-1.175
-1.16
-1.14
-1.115
-1.12
-1.135
-1.12
-1.13
-1.13
-1.14
-1.14
-1.13
-1.115
-1.1
-1.08
-1.07
-1.045
-1.035
-1.035
-1.03
-1.045
-1.03
-1.015
-1.01
-0.975
-0.98
-0.975
-0.97
-0.935
-0.9
-0.895
-0.88
-0.855
-0.835
-0.825
-0.805
-0.795
-0.755
-0.735
-0.675
-0.655
-0.63
-0.605
-0.61
-0.59
-0.575
-0.53
-0.495
-0.465
-0.445
-0.42
-0.405
-0.41
-0.395
-0.39
-0.385
-0.38
-0.4
-0.4
-0.425
-0.435
-0.445
-0.46
-0.495
-0.51
-0.56
-0.61
-0.685
-0.725
-0.785
-0.815
-0.87
-0.895
-0.945
-0.965
-1.0
-1.025
-1.05
-1.095
-1.15
-1.18
-1.195
-1.195
-1.195
-1.205
-1.185
-1.175
-1.17
-1.17
-1.17
-1.19
-1.22
-1.23
-1.245
-1.245
-1.255
-1.26
-1.23
-1.215
-1.215
-1.21
-1.2
-1.2
-1.2
-1.21
-1.225
-1.215
-1.23
-1.225
-1.205
-1.2
-1.185
-1.18
-1.205
-1.195
-1.225
-1.245
-1.24
-1.23
-1.225
-1.215
-1.195
-1.195
-1.165
-1.16
-1.16
-1.165
-1.19
-1.21
-1.235
-1.245
-1.255
-1.25
-1.24
-1.23
-1.22
-1.195
-1.205
-1.21
-1.22
-1.23
-1.26
-1.255
-1.285
-1.285
-1.26
-1.24
-1.245
-1.225
-1.23
-1.27
-1.265
-1.26
-1.265
-1.265
-1.275
-1.28
-1.265
-1.275
-1.265
-1.25
-1.255
-1.26
-1.265
-1.27
-1.27
-1.28
-1.3
-1.295
-1.295
-1.265
-1.235
-1.215
-1.225
-1.23
-1.23
-1.215
-1.23
-1.215
-1.2
-1.205
-1.2
-1.175
-1.18
-1.17
-1.155
-1.135
-1.14
-1.14
-1.13
-1.12
-1.1
-1.095
-1.075
-1.08
-1.07
-1.06
-1.07
-1.1
-1.14
-1.16
-1.18
-1.17
-1.16
-1.16
-1.155
-1.17
-1.18
-1.2
-1.24
-1.245
-1.29
-1.32
-1.34
-1.35
-1.33
-1.32
-1.34
-1.315
-1.32
-1.305
-1.285
-1.27
-1.265
-1.275
-1.295
-1.305
-1.325
-1.32
-1.3
-1.26
-1.175
-1.055
-0.895
-0.655
-0.32
0.045
0.475
0.935
1.415
1.835
2.15
2.315
2.255
1.965
1.385
0.745
0.105
-0.535
-1.175
-1.815
-1.715
-1.435
-1.185
-1.01
-0.97
-0.985
-1.045
-1.135
-1.205
-1.27
-1.295
-1.285
-1.285
-1.275
-1.265
-1.265
-1.26
-1.25
-1.25
-1.265
-1.265
-1.25
-1.25
-1.25
-1.25
-1.24
-1.24
-1.22
-1.225
-1.195
-1.19
-1.185
-1.19
-1.17
-1.18
-1.165
-1.16
-1.155
-1.13
-1.11
-1.095
-1.08
-1.065
-1.055
-1.05
-1.04
-1.05
-1.025
-1.015
-0.995
-0.97
-0.955
-0.94
-0.9
-0.87
-0.88
-0.825
-0.84
-0.8
-0.785
-0.77
-0.745
-0.715
-0.665
-0.645
-0.61
-0.575
-0.56
-0.55
-0.525
-0.51
-0.505
-0.48
-0.46
-0.455
-0.44
-0.445
-0.445
-0.46
-0.465
-0.475
-0.495
-0.53
-0.555
-0.615
-0.65
-0.665
-0.695
-0.725
-0.755
-0.8
-0.855
-0.9
-0.945
-0.995
-1.045
-1.085
-1.105
-1.115
-1.135
-1.125
-1.13
-1.14
-1.145
-1.15
-1.155
-1.16
-1.175
-1.175
-1.175
-1.175
-1.18
-1.195
-1.18
-1.205
-1.18
-1.19
-1.195
-1.185
-1.18
-1.205
-1.17
-1.17
-1.14
-1.13
-1.11
-1.115
-1.11
-1.13
-1.145
-1.155
-1.14
-1.15
-1.135
-1.115
-1.125
-1.115
-1.125
-1.12
-1.12
-1.105
-1.12
-1.115
-1.125
-1.13
-1.14
-1.13
-1.12
-1.125
-1.1
-1.09
-1.095
-1.115
-1.13
-1.155
-1.145
-1.145
-1.135
-1.135
-1.125
-1.115
-1.125
-1.135
-1.135
-1.13
-1.15
-1.165
-1.18
-1.175
-1.19
-1.185
-1.165
-1.16
-1.145
-1.15
-1.145
-1.145
-1.165
-1.17
-1.195
-1.205
-1.185
-1.18
-1.16
-1.155
-1.15
-1.15
-1.14
-1.145
-1.155
-1.16
-1.19
-1.195
-1.205
-1.18
-1.165
-1.15
-1.145
-1.15
-1.15
-1.14
-1.15
-1.155
-1.15
-1.14
-1.115
-1.075
-1.065
-1.01
-1.0
-0.99
-0.99
-1.025
-1.025
-1.035
-1.05
-1.03
-1.03
-0.99
-0.95
-0.94
-0.92
-0.91
-0.94
-0.96
-0.985
-0.995
-1.01
-1.025
-1.02
-1.02
-1.01
-1.01
-1.02
-1.045
-1.09
-1.125
-1.16
-1.155
-1.195
-1.205
-1.205
-1.19
-1.165
-1.15
-1.14
-1.145
-1.155
-1.16
-1.17
-1.165
-1.165
-1.165
-1.165
-1.155
-1.14
-1.11
-1.06
-0.97
-0.815
-0.575
-0.245
0.15
0.6
1.095
1.58
2.0
2.305
2.47
2.45
2.21
1.67
1.03
0.39
-0.25
-0.89
-1.53
-1.405
-1.13
-0.895
-0.775
-0.795
-0.845
-0.95
-1.045
-1.105
-1.125
-1.135
-1.135
-1.12
-1.11
-1.125
-1.095
-1.08
-1.08
-1.065
-1.085
-1.095
-1.08
-1.08
-1.085
-1.09
-1.09
-1.065
-1.07
-1.035
-1.03
-1.025
-1.01
-1.02
-1.02
-1.015
-1.01
-0.985
-0.98
-0.97
-0.945
-0.91
-0.905
-0.89
-0.895
-0.885
-0.89
-0.875
-0.85
-0.825
-0.8
-0.77
-0.745
-0.705
-0.67
-0.655
-0.64
-0.625
-0.61
-0.595
-0.565
-0.515
-0.47
-0.415
-0.375
-0.335
-0.335
-0.335
-0.34
-0.335
-0.335
-0.335
-0.315
-0.31
-0.295
-0.27
-0.27
-0.29
-0.315
-0.34
-0.4
-0.47
-0.53
-0.565
-0.635
-0.685
-0.715
-0.75
-0.78
-0.795
-0.835
-0.88
-0.905
-0.955
-0.965
-0.985
-1.01
-1.025
-1.035
-1.035
-1.045
-1.035
-1.06
-1.065
-1.065
-1.08
-1.09
-1.11
-1.105
-1.11
-1.105
-1.09
-1.08
-1.05
-1.055
-1.055
-1.075
-1.075
-1.09
-1.095
-1.095
-1.095
-1.07
-1.06
-1.05
-1.045
-1.05
-1.04
-1.035
-1.055
-1.065
-1.08
-1.07
-1.07
-1.06
-1.055
-1.03
-1.015
-1.015
-1.01
-1.02
-1.04
-1.06
-1.07
-1.075
-1.07
-1.07
-1.06
-1.06
-1.05
-1.045
-1.05
-1.065
-1.07
-1.09
-1.09
-1.095
-1.1
-1.105
-1.07
-1.06
-1.055
-1.06
-1.08
-1.09
-1.105
-1.135
-1.135
-1.135
-1.145
-1.125
-1.135
-1.12
-1.09
-1.08
-1.08
-1.08
-1.1
-1.12
-1.12
-1.13
-1.14
-1.15
-1.12
-1.11
-1.1
-1.105
-1.095
-1.11
-1.11
-1.105
-1.1
-1.115
-1.12
-1.1
-1.085
-1.045
-1.005
-0.99
-1.0
-0.995
-1.03
-1.025
-1.025
-1.025
-1.02
-1.005
-0.985
-0.97
-0.93
-0.905
-0.915
-0.895
-0.905
-0.93
-0.94
-0.96
-0.975
-0.97
-0.965
-0.95
-0.95
-0.94
-0.96
-0.985
-1.035
-1.06
-1.095
-1.14
-1.155
-1.17
-1.165
-1.16
-1.13
-1.135
-1.14
-1.155
-1.18
-1.17
-1.185
-1.2
-1.21
-1.18
-1.17
-1.16
-1.14
-1.15
-1.145
-1.155
-1.17
-1.15
-1.1
-1.02
-0.88
-0.695
-0.44
-0.135
0.225
0.605
1.005
1.4
1.77
2.07
2.275
2.355
2.33
2.16
1.795
1.19
0.55
-0.09
-0.73
-1.37
-1.5
-1.29
-1.015
-0.825
-0.75
-0.77
-0.87
-0.98
-1.065
-1.115
-1.13
-1.115
-1.105
-1.1
-1.1
-1.12
-1.115
-1.125
-1.115
-1.105
-1.075
-1.085
-1.08
-1.07
-1.09
-1.095
-1.08
-1.1
-1.08
-1.065
-1.06
-1.045
-1.025
-1.02
-1.02
-1.03
-1.015
-1.02
-1.02
-1.01
-0.98
-0.97
-0.935
-0.915
-0.905
-0.895
-0.89
-0.875
-0.865
-0.85
-0.84
-0.82
-0.81
-0.795
-0.765
-0.735
-0.675
-0.625
-0.6
-0.57
-0.545
-0.525
-0.52
-0.52
-0.51
-0.485
-0.465
-0.425
-0.39
-0.355
-0.325
-0.31
-0.3
-0.305
-0.32
-0.32
-0.345
-0.345
-0.35
-0.38
-0.39
-0.435
-0.48
-0.54
-0.59
-0.645
-0.69
-0.735
-0.775
-0.81
-0.85
-0.895
-0.91
-0.94
-0.97
-1.005
-1.045
-1.08
-1.095
-1.13
-1.13
-1.135
-1.125
-1.12
-1.12
-1.105
-1.11
-1.125
-1.14
-1.16
-1.185
-1.195
-1.2
-1.175
-1.17
-1.17
-1.16
-1.155
-1.155
-1.155
-1.15
-1.155
-1.155
-1.15
-1.14
-1.125
-1.115
-1.115
-1.11
-1.135
-1.14
-1.145
-1.135
-1.13
-1.13
-1.135
-1.145
-1.145
-1.145
-1.13
-1.115
-1.105
-1.105
-1.13
-1.145
-1.135
-1.16
-1.175
-1.18
-1.16
-1.15
-1.14
-1.145
-1.155
-1.14
-1.15
-1.155
-1.165
-1.175
-1.195
-1.205
-1.205
-1.2
-1.2
-1.185
-1.18
-1.185
-1.185
-1.2
-1.195
-1.195
-1.205
-1.23
-1.22
-1.205
-1.205
-1.185
-1.19
-1.215
-1.215
-1.24
-1.25
-1.225
-1.23
-1.235
-1.22
-1.22
-1.21
-1.215
-1.19
-1.175
-1.17
-1.18
-1.195
-1.18
-1.175
-1.185
-1.165
-1.15
-1.13
-1.1
-1.105
-1.105
-1.09
-1.09
-1.09
-1.085
-1.075
-1.09
-1.075
-1.07
-1.085
-1.085
-1.08
-1.105
-1.105
-1.11
-1.115
-1.13
-1.135
-1.155
-1.155
-1.17
-1.185
-1.195
-1.22
-1.26
-1.28
-1.3
-1.305
-1.3
-1.29
-1.29
-1.28
-1.275
-1.26
-1.265
-1.255
-1.275
-1.27
-1.275
-1.285
-1.29
-1.315
-1.305
-1.27
-1.19
-1.11
-1.0
-0.81
-0.575
-0.275
0.09
0.5
0.935
1.395
1.82
2.155
2.335
2.31
2.065
1.505
0.865
0.225
-0.415
-1.055
-1.68
-1.555
-1.305
-1.07
-0.91
-0.88
-0.905
-1.0
-1.09
-1.17
-1.215
-1.225
-1.23
-1.23
-1.22
-1.215
-1.225
-1.22
-1.205
-1.195
-1.195
-1.2
-1.2
-1.2
-1.19
-1.205
-1.195
-1.18
-1.155
-1.155
-1.12
-1.12
-1.11
-1.1
-1.11
-1.125
-1.125
-1.12
-1.11
-1.09
-1.055
-1.035
-1.005
-1.0
-0.985
-0.985
-0.985
-0.985
-0.98
-0.965
-0.95
-0.925
-0.9
-0.885
-0.86
-0.83
-0.815
-0.78
-0.765
-0.74
-0.71
-0.69
-0.655
-0.625
-0.59
-0.555
-0.52
-0.51
-0.485
-0.48
-0.46
-0.47
-0.47
-0.47
-0.455
-0.455
-0.445
-0.43
-0.44
-0.45
-0.47
-0.505
-0.525
-0.56
-0.6
-0.65
-0.7
-0.735
-0.78
-0.835
-0.845
-0.895
-0.93
-0.99
-1.015
-1.065
-1.08
-1.125
-1.145
-1.155
-1.15
-1.17
-1.17
-1.185
-1.185
-1.21
-1.235
-1.26
-1.27
-1.27
-1.27
-1.275
-1.265
-1.26
-1.24
-1.225
-1.235
-1.235
-1.245
-1.265
-1.265
-1.265
-1.26
-1.265
-1.22
-1.22
-1.22
-1.22
-1.22
-1.22
-1.235
-1.24
-1.245
-1.245
-1.24
-1.235
-1.215
-1.215
-1.2
-1.195
-1.2
-1.205
-1.21
-1.23
-1.245
-1.25
-1.24
-1.235
-1.22
-1.225
-1.22
-1.23
-1.24
-1.235
-1.25
-1.24
-1.255
-1.28
-1.28
-1.265
-1.25
-1.255
-1.255
-1.25
-1.24
-1.26
-1.265
-1.27
-1.28
-1.285
-1.285
-1.285
-1.27
-1.275
-1.265
-1.27
-1.265
-1.26
-1.265
-1.265
-1.27
-1.28
-1.305
-1.3
-1.295
-1.27
-1.26
-1.26
-1.255
-1.275
-1.275
-1.29
-1.29
-1.31
-1.295
-1.3
-1.275
-1.23
-1.215
-1.185
-1.19
-1.175
-1.185
-1.18
-1.19
-1.165
-1.16
-1.175
-1.14
-1.135
-1.12
-1.1
-1.085
-1.085
-1.075
-1.075
-1.055
-1.055
-1.065
-1.075
-1.06
-1.055
-1.06
-1.055
-1.055
-1.06
-1.06
-1.08
-1.095
-1.12
-1.13
-1.165
-1.185
-1.21
-1.23
-1.23
-1.24
-1.245
-1.23
-1.225
-1.23
-1.22
-1.22
-1.21
-1.22
-1.215
-1.225
-1.21
-1.195
-1.22
-1.23
-1.235
-1.23
-1.235
-1.22
-1.17
-1.09
-0.97
-0.8
-0.56
-0.235
0.14
0.575
1.035
1.485
1.9
2.23
2.41
2.46
2.37
2.13
1.645
1.005
0.365
-0.275
-0.915
-1.555
-1.625
-1.43
-1.15
-0.94
-0.835
-0.83
-0.9
-0.99
-1.09
-1.14
-1.17
-1.17
-1.15
-1.13
-1.13
-1.13
-1.115
-1.1
-1.105
-1.125
-1.15
-1.13
-1.145
-1.155
-1.14
-1.14
-1.12
-1.09
-1.075
-1.06
-1.055
-1.045
-1.045
-1.03
-1.035
-1.05
-1.04
-1.04
-1.03
-1.01
-0.995
-0.97
-0.96
-0.955
-0.955
-0.945
-0.94
-0.915
-0.88
-0.875
-0.86
-0.835
-0.805
-0.775
-0.755
-0.74
-0.72
-0.71
-0.695
-0.665
-0.625
-0.61
-0.57
-0.535
-0.51
-0.485
-0.465
-0.425
-0.41
-0.405
-0.39
-0.39
-0.38
-0.345
-0.34
-0.32
-0.32
-0.305
-0.29
-0.29
-0.305
-0.325
-0.33
-0.36
-0.395
-0.435
-0.495
-0.52
-0.57
-0.625
-0.66
-0.71
-0.755
-0.81
-0.855
-0.885
-0.93
-0.93
-0.95
-0.97
-0.98
-0.975
-0.99
-1.005
-1.025
-1.04
-1.05
-1.065
-1.08
-1.085
-1.1
-1.105
-1.11
-1.08
-1.065
-1.055
-1.075
-1.075
-1.085
-1.11
-1.105
-1.125
-1.11
-1.09
-1.08
-1.06
-1.05
-1.045
-1.05
-1.05
-1.06
-1.075
-1.085
-1.085
-1.07
-1.05
-1.02
-1.0
-1.01
-1.01
-1.01
-1.03
-1.025
-1.03
-1.045
-1.055
-1.04
-1.05
-1.035
-1.02
-1.0
-0.99
-1.0
-1.02
-1.04
-1.07
-1.095
-1.08
-1.085
-1.065
-1.055
-1.05
-1.03
-1.035
-1.035
-1.04
-1.065
-1.08
-1.09
-1.105
-1.11
-1.105
-1.085
-1.065
-1.08
-1.075
-1.09
-1.095
-1.11
-1.1
-1.095
-1.095
-1.1
-1.085
-1.09
-1.08
-1.075
-1.08
-1.085
-1.095
-1.09
-1.115
-1.12
-1.12
-1.11
-1.09
-1.095
-1.1
-1.08
-1.085
-1.085
-1.075
-1.09
-1.09
-1.09
-1.09
-1.09
-1.06
-1.035
-1.0
-0.965
-0.96
-0.955
-0.97
-0.985
-0.995
-0.98
-0.995
-0.985
-0.98
-0.985
-0.955
-0.935
-0.88
-0.87
-0.885
-0.9
-0.925
-0.94
-0.945
-0.945
-0.96
-0.955
-0.935
-0.91
-0.92
-0.945
-0.98
-1.025
-1.06
-1.085
-1.115
-1.13
-1.14
-1.14
-1.115
-1.11
-1.105
-1.105
-1.115
-1.125
-1.135
-1.16
-1.145
-1.135
-1.115
-1.105
-1.125
-1.13
-1.125
-1.115
-1.085
-1.04
-0.98
-0.84
-0.645
-0.345
0.04
0.465
0.955
1.46
1.905
2.245
2.455
2.505
2.385
2.07
1.47
0.83
0.19
-0.45
-1.09
-1.6
-1.425
-1.135
-0.86
-0.715
-0.69
-0.765
-0.88
-1.005
-1.07
-1.09
-1.08
-1.06
-1.065
-1.05
-1.055
-1.075
-1.085
-1.085
-1.09
-1.09
-1.08
-1.06
-1.045
-1.035
-1.02
-1.04
-1.02
-1.02
-1.015
-1.025
-1.025
-1.015
-1.005
-0.98
-0.98
-0.98
-0.97
-0.96
-0.945
-0.955
-0.955
-0.94
-0.925
-0.92
-0.885
-0.88
-0.88
-0.845
-0.82
-0.82
-0.815
-0.8
-0.785
-0.75
-0.715
-0.68
-0.66
-0.62
-0.585
-0.56
-0.53
-0.52
-0.5
-0.465
-0.44
-0.41
-0.4
-0.36
-0.325
-0.295
-0.245
-0.23
-0.21
-0.21
-0.21
-0.225
-0.26
-0.29
-0.33
-0.34
-0.355
-0.36
-0.395
-0.435
-0.48
-0.525
-0.585
-0.65
-0.725
-0.755
-0.805
-0.85
-0.86
-0.89
-0.905
-0.905
-0.935
-0.95
-0.97
-0.995
-1.015
-1.03
-1.065
-1.06
-1.065
-1.065
-1.065
-1.035
-1.035
-1.06
-1.08
-1.08
-1.085
-1.105
-1.11
-1.095
-1.09
-1.075
-1.07
-1.055
-1.055
-1.05
-1.06
-1.07
-1.065
-1.055
-1.06
-1.04
-1.04
-1.045
-1.045
-1.04
-1.03
-1.03
-1.03
-1.03
-1.03
-1.04
-1.04
-1.045
-1.04
-1.01
-1.005
-1.01
-1.02
-1.035
-1.04
-1.045
-1.06
-1.06
-1.065
-1.065
-1.055
-1.04
-1.05
-1.045
-1.045
-1.04
-1.04
-1.06
-1.07
-1.085
-1.095
-1.085
-1.08
-1.08
-1.065
-1.06
-1.065
-1.07
-1.075
-1.075
-1.08
-1.105
-1.1
-1.09
-1.085
-1.1
-1.085
-1.085
-1.065
-1.07
-1.075
-1.075
-1.085
-1.09
-1.11
-1.115
-1.125
-1.105
-1.085
-1.07
-1.055
-1.065
-1.06
-1.06
-1.105
-1.09
-1.11
-1.11
-1.105
-1.085
-1.055
-1.025
-1.005
-0.98
-0.965
-0.97
-0.98
-0.985
-1.005
-1.02
-0.995
-0.96
-0.935
-0.92
-0.89
-0.875
-0.885
-0.885
-0.9
-0.91
-0.92
-0.95
-0.935
-0.95
-0.95
-0.95
-0.975
-0.975
-1.01
-1.035
-1.08
-1.1
-1.11
-1.145
-1.15
-1.16
-1.15
-1.145
-1.13
-1.13
-1.13
-1.135
-1.145
-1.14
-1.135
-1.13
-1.12
-1.125
-1.115
-1.12
-1.13
-1.11
-1.105
-1.075
-1.045
-0.95
-0.82
-0.61
-0.345
-0.005
0.41
0.895
1.39
1.825
2.21
2.415
2.49
2.4
2.105
1.565
0.925
0.285
-0.355
-0.995
-1.635
-1.51
-1.215
-0.955
-0.755
-0.695
-0.755
-0.845
-0.955
-1.04
-1.07
-1.085
-1.08
-1.075
-1.075
-1.08
-1.085
-1.085
-1.095
-1.08
-1.08
-1.1
-1.095
-1.07
-1.055
-1.04
-1.04
-1.045
-1.045
-1.045
-1.045
-1.035
-1.03
-1.0
-0.995
-0.98
-0.97
-0.97
-0.98
-0.97
-0.96
-0.97
-0.945
-0.935
-0.92
-0.905
-0.885
-0.85
-0.84
-0.84
-0.83
-0.82
-0.815
-0.805
-0.77
-0.745
-0.71
-0.685
-0.665
-0.62
-0.59
-0.585
-0.55
-0.52
-0.5
-0.49
-0.445
-0.41
-0.37
-0.345
-0.33
-0.31
-0.295
-0.285
-0.28
-0.27
-0.285
-0.295
-0.31
-0.32
-0.325
-0.34
-0.355
-0.365
-0.405
-0.465
-0.52
-0.555
-0.625
-0.675
-0.735
-0.77
-0.8
-0.83
-0.825
-0.83
-0.85
-0.895
-0.925
-0.965
-1.005
-1.015
-1.04
-1.05
-1.035
-1.045
-1.035
-1.015
-1.03
-1.03
-1.065
-1.06
-1.08
-1.09
-1.09
-1.085
-1.075
-1.08
-1.07
-1.055
-1.05
-1.035
-1.04
-1.055
-1.06
-1.06
-1.06
-1.075
-1.04
-1.035
-1.02
-1.0
-1.0
-1.005
-1.025
-1.035
-1.035
-1.02
-1.03
-1.025
-1.04
-1.015
-1.005
-1.0
-1.015
-0.99
-1.005
-1.02
-1.03
-1.03
-1.055
-1.05
-1.035
-1.03
-1.035
-1.03
-1.035
-1.04
-1.035
-1.03
-1.035
-1.04
-1.045
-1.07
-1.07
-1.08
-1.085
-1.07
-1.065
-1.065
-1.065
-1.07
-1.06
-1.095
-1.09
-1.1
-1.1
-1.075
-1.08
-1.075
-1.065
-1.065
-1.085
-1.1
-1.115
-1.11
-1.115
-1.11
-1.11
-1.105
-1.09
-1.085
-1.07
-1.065
-1.085
-1.085
-1.105
-1.1
-1.12
-1.12
-1.1
-1.07
