Lead II
-0.28
-0.275
-0.27
-0.27
-0.26
-0.265
-0.27
-0.27
-0.27
-0.255
-0.265
-0.28
-0.295
-0.3
-0.295
-0.29
-0.29
-0.3
-0.3
-0.295
-0.285
-0.28
-0.28
-0.28
-0.29
-0.28
-0.275
-0.265
-0.25
-0.24
-0.225
-0.2
-0.18
-0.135
-0.035
0.065
0.185
0.31
0.45
0.595
0.695
0.79
0.845
0.87
0.81
0.655
0.425
0.17
-0.065
-0.22
-0.305
-0.345
-0.35
-0.325
-0.285
-0.265
-0.25
-0.265
-0.275
-0.28
-0.3
-0.31
-0.305
-0.3
-0.305
-0.305
-0.32
-0.31
-0.315
-0.31
-0.305
-0.32
-0.32
-0.32
-0.325
-0.325
-0.325
-0.32
-0.325
-0.32
-0.315
-0.31
-0.295
-0.295
-0.305
-0.295
-0.285
-0.28
-0.29
-0.295
-0.3
-0.3
-0.295
-0.29
-0.295
-0.3
-0.31
-0.31
-0.3
-0.295
-0.305
-0.3
-0.31
-0.305
-0.3
-0.29
-0.28
-0.275
-0.265
-0.26
-0.24
-0.24
-0.245
-0.255
-0.26
-0.255
-0.25
-0.235
-0.23
-0.225
-0.23
-0.215
-0.2
-0.185
-0.2
-0.19
-0.205
-0.2
-0.2
-0.195
-0.195
-0.21
-0.21
-0.205
-0.2
-0.205
-0.21
-0.225
-0.24
-0.245
-0.245
-0.245
-0.255
-0.265
-0.285
-0.285
-0.28
-0.275
-0.275
-0.29
-0.295
-0.29
-0.295
-0.28
-0.28
-0.285
-0.295
-0.28
-0.28
-0.265
-0.27
-0.275
-0.28
-0.265
-0.265
-0.255
-0.255
-0.27
-0.275
-0.275
-0.265
-0.26
-0.26
-0.265
-0.27
-0.265
-0.25
-0.245
-0.24
-0.25
-0.25
-0.255
-0.23
-0.23
-0.235
-0.24
-0.245
-0.245
-0.235
-0.235
-0.235
-0.255
-0.265
-0.27
-0.27
-0.27
-0.28
-0.285
-0.3
-0.29
-0.29
-0.29
-0.29
-0.295
-0.295
-0.285
-0.285
-0.28
-0.28
-0.295
-0.305
-0.29
-0.295
-0.285
-0.285
-0.295
-0.295
-0.3
-0.285
-0.275
-0.28
-0.29
-0.295
-0.3
-0.29
-0.285
-0.295
-0.295
-0.29
-0.285
-0.275
-0.265
-0.27
-0.28
-0.285
-0.28
-0.26
-0.245
-0.245
-0.24
-0.25
-0.245
-0.24
-0.24
-0.245
-0.26
-0.27
-0.27
-0.265
-0.255
-0.26
-0.265
-0.265
-0.27
-0.255
-0.26
-0.25
-0.25
-0.24
-0.215
-0.19
-0.175
-0.16
-0.15
-0.1
0.0
0.1
0.22
0.32
0.43
0.54
0.635
0.72
0.78
0.785
0.695
0.565
0.4
0.215
0.04
-0.06
-0.12
-0.175
-0.2
-0.18
-0.165
-0.155
-0.175
-0.2
-0.215
-0.21
-0.2
-0.2
-0.205
-0.225
-0.23
-0.22
-0.23
-0.235
-0.255
-0.275
-0.27
-0.26
-0.275
-0.27
-0.27
-0.28
-0.27
-0.265
-0.25
-0.255
-0.26
-0.275
-0.26
-0.25
-0.24
-0.245
-0.255
-0.265
-0.26
-0.245
-0.24
-0.24
-0.235
-0.235
-0.225
-0.22
-0.21
-0.2
-0.195
-0.215
-0.205
-0.21
-0.195
-0.19
-0.185
-0.205
-0.195
-0.195
-0.195
-0.175
-0.185
-0.2
-0.195
-0.185
-0.17
-0.17
-0.175
-0.2
-0.18
-0.18
-0.175
-0.165
-0.17
-0.185
-0.18
-0.165
-0.155
-0.175
-0.17
-0.18
-0.18
-0.175
-0.185
-0.185
-0.195
-0.2
-0.2
-0.195
-0.2
-0.2
-0.21
-0.22
-0.215
-0.215
-0.2
-0.2
-0.21
-0.225
-0.21
-0.205
-0.195
-0.195
-0.2
-0.2
-0.195
-0.195
-0.19
-0.19
-0.2
-0.195
-0.205
-0.205
-0.21
-0.215
-0.22
-0.23
-0.23
-0.225
-0.215
-0.22
-0.225
-0.225
-0.225
-0.21
-0.18
-0.16
-0.15
-0.115
-0.005
0.14
0.27
0.39
0.495
0.61
0.725
0.815
0.82
0.78
0.675
0.525
0.37
0.19
0.02
-0.1
-0.15
-0.15
-0.165
-0.19
-0.195
-0.21
-0.225
-0.25
-0.245
-0.255
-0.255
-0.275
-0.29
-0.31
-0.305
-0.295
-0.3
-0.305
-0.31
-0.335
-0.325
-0.315
-0.32
-0.315
-0.325
-0.33
-0.315
-0.31
-0.29
-0.3
-0.31
-0.325
-0.32
-0.31
-0.305
-0.305
-0.315
-0.32
-0.33
-0.315
-0.305
-0.305
-0.32
-0.325
-0.315
-0.305
-0.295
-0.29
-0.3
-0.305
-0.3
-0.29
-0.285
-0.285
-0.305
-0.305
-0.29
-0.265
-0.24
-0.22
-0.215
-0.22
-0.2
-0.19
-0.165
-0.185
-0.19
-0.185
-0.175
-0.16
-0.15
-0.155
-0.155
-0.165
-0.16
-0.155
-0.145
-0.135
-0.155
-0.17
-0.165
-0.17
-0.18
-0.185
-0.195
-0.215
-0.205
-0.21
-0.23
-0.24
-0.265
-0.265
-0.27
-0.28
-0.27
-0.27
-0.28
-0.295
-0.27
-0.255
-0.255
-0.265
-0.275
-0.285
-0.275
-0.265
-0.275
-0.275
-0.28
-0.285
-0.285
-0.275
-0.275
-0.28
-0.29
-0.295
-0.28
-0.27
-0.255
-0.245
-0.245
-0.245
-0.235
-0.23
-0.22
-0.22
-0.23
-0.24
-0.23
-0.24
-0.245
-0.245
-0.25
-0.255
-0.265
-0.255
-0.26
-0.26
-0.27
-0.285
-0.28
-0.29
-0.285
-0.29
-0.29
-0.31
-0.295
-0.285
-0.285
-0.285
-0.285
-0.29
-0.29
-0.29
-0.285
-0.29
-0.29
-0.3
-0.31
-0.305
-0.29
-0.3
-0.315
-0.32
-0.325
-0.32
-0.315
-0.315
-0.325
-0.33
-0.32
-0.305
-0.295
-0.295
-0.295
-0.31
-0.295
-0.28
-0.26
-0.26
-0.26
-0.265
-0.255
-0.255
-0.24
-0.245
-0.265
-0.255
-0.26
-0.26
-0.255
-0.265
-0.285
-0.285
-0.27
-0.26
-0.255
-0.25
-0.26
-0.27
-0.26
-0.26
-0.25
-0.26
-0.27
-0.28
-0.275
-0.265
-0.27
-0.275
-0.275
-0.285
-0.29
-0.28
-0.28
-0.29
-0.285
-0.295
-0.305
-0.31
-0.31
-0.305
-0.315
-0.34
-0.34
-0.325
-0.325
-0.32
-0.325
-0.335
-0.32
-0.31
-0.3
-0.29
-0.29
-0.295
-0.275
-0.26
-0.255
-0.255
-0.27
-0.275
-0.27
-0.26
-0.245
-0.255
-0.25
-0.265
-0.26
-0.24
-0.23
-0.225
-0.23
-0.235
-0.235
-0.23
-0.23
-0.235
-0.245
-0.245
-0.235
-0.23
-0.235
-0.23
-0.245
-0.26
-0.255
-0.25
-0.245
-0.245
-0.26
-0.27
-0.27
-0.27
-0.265
-0.255
-0.27
-0.295
-0.29
-0.295
-0.29
-0.295
-0.305
-0.31
-0.32
-0.315
-0.31
-0.315
-0.32
-0.335
-0.33
-0.315
-0.3
-0.29
-0.275
-0.245
-0.22
-0.165
-0.15
-0.11
-0.075
0.0
0.12
0.24
0.35
0.485
0.6
0.69
0.78
0.875
0.925
0.89
0.765
0.575
0.375
0.18
0.025
-0.095
-0.185
-0.25
-0.29
-0.285
-0.255
-0.23
-0.22
-0.235
-0.23
-0.235
-0.23
-0.24
-0.27
-0.28
-0.28
-0.28
-0.28
-0.28
-0.295
-0.31
-0.305
-0.295
-0.3
-0.305
-0.31
-0.325
-0.34
-0.33
-0.31
-0.32
-0.335
-0.345
-0.335
-0.325
-0.315
-0.33
-0.315
-0.33
-0.325
-0.315
-0.32
-0.325
-0.33
-0.335
-0.325
-0.31
-0.305
-0.3
-0.29
-0.295
-0.265
-0.235
-0.22
-0.21
-0.205
-0.215
-0.195
-0.185
-0.185
-0.2
-0.195
-0.2
-0.2
-0.185
-0.185
-0.19
-0.185
-0.195
-0.185
-0.17
-0.17
-0.175
-0.175
-0.175
-0.17
-0.16
-0.145
-0.16
-0.155
-0.155
-0.15
-0.13
-0.12
-0.13
-0.125
-0.14
-0.13
-0.12
-0.12
-0.135
-0.155
-0.155
-0.14
-0.145
-0.155
-0.16
-0.17
-0.185
-0.195
-0.19
-0.185
-0.21
-0.21
-0.22
-0.22
-0.22
-0.21
-0.215
-0.22
-0.225
-0.225
-0.22
-0.215
-0.225
-0.24
-0.235
-0.24
-0.23
-0.235
-0.225
-0.22
-0.21
-0.21
-0.19
-0.175
-0.18
-0.185
-0.19
-0.18
-0.175
-0.175
-0.18
-0.19
-0.2
-0.205
-0.185
-0.185
-0.21
-0.22
-0.225
-0.22
-0.225
-0.22
-0.23
-0.24
-0.26
-0.26
-0.255
-0.26
-0.275
-0.28
-0.285
-0.27
-0.265
-0.265
-0.26
-0.275
-0.28
-0.275
-0.265
-0.27
-0.28
-0.285
-0.285
-0.295
-0.3
-0.295
-0.29
-0.275
-0.285
-0.275
-0.265
-0.26
-0.265
-0.28
-0.275
-0.28
-0.265
-0.26
-0.265
-0.27
-0.28
-0.265
-0.23
-0.215
-0.215
-0.21
-0.225
-0.215
-0.205
-0.205
-0.21
-0.225
-0.245
-0.245
-0.24
-0.23
-0.235
-0.245
-0.26
-0.25
-0.255
-0.245
-0.25
-0.255
-0.27
-0.26
-0.26
-0.245
-0.255
-0.275
-0.27
-0.275
-0.27
-0.275
-0.27
-0.28
-0.28
-0.285
-0.28
-0.275
-0.28
-0.295
-0.3
-0.305
-0.3
-0.295
-0.29
-0.29
-0.31
-0.31
-0.305
-0.28
-0.3
-0.31
-0.32
-0.295
-0.285
-0.26
-0.26
-0.255
-0.26
-0.245
-0.225
-0.215
-0.235
-0.24
-0.255
-0.25
-0.255
-0.26
-0.26
-0.26
-0.27
-0.27
-0.265
-0.26
-0.265
-0.265
-0.275
-0.27
-0.26
-0.25
-0.245
-0.26
-0.26
-0.265
-0.265
-0.26
-0.26
-0.26
-0.265
-0.255
-0.25
-0.255
-0.25
-0.255
-0.275
-0.27
-0.26
-0.265
-0.265
-0.275
-0.28
-0.275
-0.28
-0.285
-0.28
-0.285
-0.29
-0.285
-0.285
-0.295
-0.29
-0.3
-0.295
-0.285
-0.275
-0.265
-0.265
-0.265
-0.27
-0.26
-0.255
-0.24
-0.235
-0.24
-0.24
-0.23
-0.23
-0.215
-0.215
-0.23
-0.235
-0.23
-0.225
-0.23
-0.225
-0.235
-0.25
-0.235
-0.23
-0.225
-0.235
-0.25
-0.25
-0.235
-0.23
-0.225
-0.225
-0.225
-0.24
-0.23
-0.215
-0.21
-0.22
-0.235
-0.24
-0.245
-0.235
-0.225
-0.235
-0.24
-0.25
-0.245
-0.24
-0.235
-0.255
-0.26
-0.26
-0.27
-0.25
-0.235
-0.245
-0.25
-0.265
-0.255
-0.255
-0.245
-0.24
-0.245
-0.255
-0.24
-0.24
-0.24
-0.245
-0.24
-0.255
-0.245
-0.24
-0.22
-0.235
-0.23
-0.22
-0.21
-0.18
-0.165
-0.165
-0.16
-0.135
-0.07
0.015
0.105
0.205
0.3
0.41
0.525
0.605
0.695
0.78
0.825
0.82
0.75
0.625
0.485
0.305
0.125
0.0
-0.075
-0.135
-0.165
-0.2
-0.2
-0.19
-0.17
-0.155
-0.16
-0.18
-0.2
-0.22
-0.22
-0.23
-0.23
-0.24
-0.25
-0.26
-0.255
-0.25
-0.24
-0.24
-0.245
-0.26
-0.255
-0.25
-0.245
-0.24
-0.245
-0.25
-0.24
-0.235
-0.23
-0.235
-0.25
-0.27
-0.255
-0.25
-0.26
-0.25
-0.26
-0.26
-0.255
-0.24
-0.24
-0.245
-0.245
-0.26
-0.255
-0.25
-0.245
-0.25
-0.26
-0.26
-0.255
-0.26
-0.24
-0.235
-0.24
-0.255
-0.245
-0.25
-0.25
-0.24
-0.245
-0.235
-0.22
-0.18
-0.18
-0.165
-0.175
-0.165
-0.155
-0.14
-0.14
-0.155
-0.165
-0.165
-0.16
-0.155
-0.15
-0.15
-0.145
-0.155
-0.15
-0.13
-0.13
-0.115
-0.125
-0.125
-0.12
-0.105
-0.1
-0.095
-0.105
-0.11
-0.105
-0.1
-0.105
-0.12
-0.12
-0.135
-0.135
-0.13
-0.13
-0.145
-0.15
-0.165
-0.16
-0.16
-0.165
-0.175
-0.185
-0.195
-0.185
-0.175
-0.17
-0.185
-0.195
-0.205
-0.2
-0.2
-0.205
-0.215
-0.225
-0.245
-0.235
-0.24
-0.245
-0.245
-0.265
-0.27
-0.265
-0.265
-0.255
-0.245
-0.245
-0.24
-0.215
-0.205
-0.19
-0.185
-0.2
-0.19
-0.185
-0.18
-0.175
-0.18
-0.19
-0.19
-0.18
-0.175
-0.165
-0.17
-0.185
-0.185
-0.185
-0.185
-0.175
-0.175
-0.18
-0.19
-0.185
-0.17
-0.165
-0.175
-0.185
-0.215
-0.205
-0.205
-0.205
-0.21
-0.22
-0.22
-0.225
-0.22
-0.215
-0.225
-0.225
-0.24
-0.22
-0.225
-0.215
-0.23
-0.24
-0.25
-0.245
-0.24
-0.24
-0.245
-0.25
-0.265
-0.275
-0.26
-0.26
-0.25
-0.27
-0.29
-0.28
-0.27
-0.265
-0.275
-0.285
-0.3
-0.285
-0.29
-0.285
-0.29
-0.28
-0.285
-0.275
-0.245
-0.22
-0.2
-0.19
-0.19
-0.19
-0.18
-0.18
-0.18
-0.18
-0.19
-0.185
-0.175
-0.17
-0.175
-0.185
-0.19
-0.19
-0.195
-0.195
-0.215
-0.23
-0.23
-0.22
-0.21
-0.215
-0.225
-0.23
-0.235
-0.24
-0.235
-0.225
-0.235
-0.24
-0.245
-0.245
-0.235
-0.225
-0.23
-0.235
-0.245
-0.23
-0.23
-0.225
-0.23
-0.23
-0.25
-0.235
-0.23
-0.23
-0.24
-0.255
-0.26
-0.255
-0.26
-0.25
-0.255
-0.25
-0.255
-0.255
-0.25
-0.255
-0.255
-0.265
-0.275
-0.275
-0.275
-0.265
-0.265
-0.275
-0.28
-0.255
-0.24
-0.22
-0.21
-0.21
-0.205
-0.215
-0.195
-0.19
-0.18
-0.18
-0.175
-0.145
-0.12
-0.11
-0.085
-0.06
0.01
0.1
0.185
0.26
0.34
0.44
0.535
0.6
0.67
0.73
0.765
0.745
0.655
0.54
0.4
0.245
0.06
-0.065
-0.125
-0.16
-0.175
-0.18
-0.19
-0.185
-0.195
-0.185
-0.195
-0.205
-0.215
-0.24
-0.245
-0.235
-0.23
-0.235
-0.235
-0.255
-0.26
-0.255
-0.25
-0.25
-0.255
-0.265
-0.27
-0.275
-0.265
-0.25
-0.26
-0.26
-0.275
-0.275
-0.265
-0.25
-0.255
-0.25
-0.245
-0.24
-0.21
-0.19
-0.185
-0.185
-0.185
-0.185
-0.19
-0.175
-0.185
-0.19
-0.2
-0.19
-0.18
-0.19
-0.195
-0.2
-0.2
-0.195
-0.19
-0.18
-0.18
-0.18
-0.185
-0.185
-0.175
-0.165
-0.175
-0.18
-0.175
-0.17
-0.165
-0.16
-0.16
-0.155
-0.16
-0.15
-0.135
-0.125
-0.12
-0.13
-0.13
-0.12
-0.12
-0.11
-0.11
-0.12
-0.12
-0.11
-0.11
-0.11
-0.12
-0.12
-0.135
-0.135
-0.135
-0.135
-0.14
-0.16
-0.175
-0.17
-0.16
-0.16
-0.17
-0.18
-0.21
-0.2
-0.195
-0.2
-0.21
-0.225
-0.23
-0.22
-0.21
-0.21
-0.225
-0.23
-0.24
-0.23
-0.23
-0.23
-0.235
-0.25
-0.255
-0.255
-0.235
-0.24
-0.24
-0.235
-0.255
-0.245
-0.235
-0.22
-0.225
-0.225
-0.23
-0.215
-0.22
-0.22
-0.215
-0.215
-0.22
-0.23
-0.215
-0.205
-0.205
-0.225
-0.24
-0.23
-0.23
-0.23
-0.235
-0.25
-0.255
-0.245
-0.24
-0.24
-0.245
-0.26
-0.27
-0.265
-0.26
-0.265
-0.28
-0.29
-0.31
-0.315
-0.295
-0.295
-0.305
-0.325
-0.34
-0.32
-0.3
-0.285
-0.28
-0.265
-0.26
-0.255
-0.23
-0.23
-0.23
-0.245
-0.25
-0.245
-0.24
-0.235
-0.225
-0.245
-0.25
-0.24
-0.23
-0.22
-0.22
-0.235
-0.245
-0.24
-0.245
-0.235
-0.245
-0.245
-0.25
-0.25
-0.24
-0.23
-0.23
-0.235
-0.24
-0.23
-0.225
-0.22
-0.23
-0.235
-0.245
-0.24
-0.24
-0.23
-0.25
-0.26
-0.27
-0.28
-0.265
-0.27
-0.275
-0.285
-0.29
-0.28
-0.275
-0.27
-0.275
-0.285
-0.3
-0.29
-0.29
-0.29
-0.295
-0.3
-0.3
-0.285
-0.27
-0.25
-0.25
-0.25
-0.245
-0.235
-0.225
-0.21
-0.215
-0.22
-0.215
-0.2
-0.18
-0.16
-0.145
-0.135
-0.13
-0.075
0.035
0.155
0.27
0.375
0.475
0.61
0.72
0.8
0.87
0.93
0.91
0.82
0.655
0.455
0.24
0.015
-0.13
-0.225
-0.275
-0.28
-0.28
-0.255
-0.23
-0.22
-0.235
-0.24
-0.255
-0.28
-0.285
-0.29
-0.295
-0.295
-0.3
-0.31
-0.32
-0.32
-0.315
-0.315
-0.305
-0.315
-0.325
-0.3
-0.305
-0.28
-0.295
-0.285
-0.27
-0.25
-0.245
-0.22
-0.225
-0.23
-0.24
-0.245
-0.215
-0.21
-0.225
-0.215
-0.235
-0.215
-0.21
-0.2
-0.2
-0.215
-0.215
-0.21
-0.205
-0.19
-0.19
-0.195
-0.205
-0.205
-0.19
-0.185
-0.19
-0.2
-0.2
-0.195
-0.175
-0.18
-0.19
-0.19
-0.195
-0.185
-0.175
-0.18
-0.18
-0.195
-0.185
-0.17
-0.155
-0.135
-0.14
-0.145
-0.145
-0.13
-0.13
-0.135
-0.14
-0.16
-0.18
-0.175
-0.175
-0.175
-0.19
-0.2
-0.22
-0.215
-0.22
-0.22
-0.23
-0.245
-0.245
-0.245
-0.235
-0.22
-0.225
-0.225
-0.225
-0.21
-0.205
-0.205
-0.215
-0.23
-0.235
-0.235
-0.225
-0.235
-0.235
-0.255
-0.265
-0.26
-0.25
-0.245
-0.245
-0.25
-0.26
-0.26
-0.25
-0.25
-0.255
-0.28
-0.275
-0.26
-0.25
-0.245
-0.25
-0.26
-0.27
-0.275
-0.255
-0.25
-0.265
-0.265
-0.27
-0.265
-0.255
-0.25
-0.255
-0.26
-0.265
-0.26
-0.25
-0.25
-0.26
-0.27
-0.265
-0.265
-0.26
-0.26
-0.265
-0.265
-0.28
-0.275
-0.265
-0.255
-0.255
-0.265
-0.265
-0.26
-0.24
-0.24
-0.25
-0.27
-0.27
-0.255
-0.25
-0.25
-0.25
-0.255
-0.255
-0.235
-0.23
-0.23
-0.23
-0.24
-0.25
-0.235
-0.235
-0.22
-0.225
-0.24
-0.24
-0.24
-0.235
-0.23
-0.225
-0.24
-0.25
-0.245
-0.24
-0.235
-0.245
-0.25
-0.26
-0.255
-0.25
-0.255
-0.26
-0.265
-0.275
-0.265
-0.26
-0.255
-0.265
-0.275
-0.275
-0.27
-0.27
-0.27
-0.28
-0.285
-0.285
-0.28
-0.28
-0.27
-0.265
-0.275
-0.27
-0.26
-0.255
-0.255
-0.26
-0.27
-0.275
-0.255
-0.25
-0.23
-0.24
-0.24
-0.24
-0.245
-0.24
-0.225
-0.23
-0.235
-0.245
-0.24
-0.24
-0.25
-0.245
-0.255
-0.26
-0.255
-0.245
-0.24
-0.255
-0.245
-0.245
-0.235
-0.23
-0.235
-0.22
-0.22
-0.23
-0.205
-0.185
-0.16
-0.17
-0.165
-0.135
-0.06
0.04
0.13
0.225
0.335
0.465
0.58
0.66
0.735
0.745
0.65
0.49
0.295
0.095
-0.04
-0.145
-0.205
-0.225
-0.22
-0.2
-0.175
-0.165
-0.18
-0.205
-0.215
-0.215
-0.22
-0.21
-0.225
-0.235
-0.22
-0.21
-0.215
-0.22
-0.225
-0.24
-0.225
-0.225
-0.21
-0.225
-0.24
-0.24
-0.23
-0.23
-0.225
-0.235
-0.235
-0.245
-0.235
-0.24
-0.23
-0.26
-0.255
-0.26
-0.245
-0.235
-0.235
-0.235
-0.245
-0.255
-0.25
-0.235
-0.23
-0.245
-0.24
-0.24
-0.24
-0.21
-0.205
-0.195
-0.19
-0.19
-0.185
-0.165
-0.15
-0.155
-0.16
-0.18
-0.175
-0.17
-0.15
-0.15
-0.14
-0.135
-0.125
-0.11
-0.105
-0.105
-0.11
-0.125
-0.115
-0.115
-0.105
-0.115
-0.125
-0.14
-0.14
-0.14
-0.145
-0.16
-0.185
-0.205
-0.21
-0.205
-0.21
-0.225
-0.23
-0.25
-0.24
-0.24
-0.245
-0.255
-0.26
-0.275
-0.26
-0.255
-0.255
-0.26
-0.27
-0.275
-0.265
-0.25
-0.245
-0.265
-0.265
-0.27
-0.25
-0.24
-0.24
-0.245
-0.26
-0.26
-0.25
-0.24
-0.215
-0.22
-0.205
-0.21
-0.205
-0.2
-0.21
-0.215
-0.23
-0.225
-0.22
-0.215
-0.21
-0.225
-0.235
-0.24
-0.23
-0.23
-0.225
-0.235
-0.245
-0.25
-0.235
-0.24
-0.24
-0.245
-0.25
-0.255
-0.245
-0.245
-0.25
-0.245
-0.265
-0.27
-0.265
-0.25
-0.24
-0.24
-0.25
-0.25
-0.25
-0.24
-0.245
-0.265
-0.27
-0.265
-0.26
-0.25
-0.255
-0.245
-0.235
-0.24
-0.235
-0.24
-0.24
-0.25
-0.27
-0.27
-0.275
-0.27
-0.26
-0.25
-0.265
-0.275
-0.265
-0.26
-0.245
-0.23
-0.23
-0.21
-0.19
-0.155
-0.1
-0.02
0.055
0.13
0.21
0.315
0.425
0.515
0.58
0.62
0.68
0.645
0.55
0.395
0.205
0.015
-0.13
-0.19
-0.21
-0.21
-0.225
-0.225
-0.21
-0.205
-0.22
-0.24
-0.245
-0.26
-0.26
-0.25
-0.26
-0.27
-0.27
-0.295
-0.275
-0.26
-0.265
-0.28
-0.28
-0.285
-0.275
-0.27
-0.27
-0.275
-0.29
-0.295
-0.29
-0.28
-0.285
-0.29
-0.305
-0.3
-0.3
-0.285
-0.275
-0.275
-0.28
-0.28
-0.27
-0.255
-0.25
-0.25
-0.245
-0.245
-0.235
-0.23
-0.22
-0.22
-0.22
-0.21
-0.195
-0.18
-0.16
-0.16
-0.15
-0.145
-0.13
-0.12
-0.115
-0.125
-0.135
-0.125
-0.13
-0.115
-0.115
-0.125
-0.13
-0.14
-0.135
-0.13
-0.12
-0.12
-0.125
-0.145
-0.145
-0.155
-0.16
-0.165
-0.19
-0.195
-0.195
-0.195
-0.21
-0.22
-0.235
-0.245
-0.24
-0.25
-0.26
-0.27
-0.26
-0.27
-0.26
-0.25
-0.25
-0.26
-0.27
-0.275
-0.265
-0.25
-0.235
-0.235
-0.235
-0.24
-0.23
-0.22
-0.23
-0.23
-0.24
-0.24
-0.23
-0.235
-0.24
-0.235
-0.24
-0.245
-0.24
-0.235
-0.215
-0.22
-0.24
-0.245
-0.245
-0.235
-0.235
-0.24
-0.25
-0.26
-0.26
-0.26
-0.26
-0.27
-0.275
-0.285
-0.275
-0.27
-0.27
-0.265
-0.285
-0.28
-0.27
-0.28
-0.27
-0.27
-0.265
-0.27
-0.255
-0.25
-0.25
-0.245
-0.245
-0.245
-0.25
-0.235
-0.23
-0.22
-0.235
-0.225
-0.215
-0.2
-0.2
-0.19
-0.18
-0.16
-0.115
-0.085
-0.03
0.045
0.115
0.205
0.295
0.39
0.5
0.59
0.645
0.68
0.7
0.665
0.545
0.375
0.175
-0.025
-0.16
-0.23
-0.26
-0.285
-0.295
-0.285
-0.25
-0.235
-0.24
-0.265
-0.295
-0.315
-0.32
-0.32
-0.315
-0.32
-0.335
-0.33
-0.33
-0.325
-0.31
-0.305
-0.32
-0.315
-0.305
-0.29
-0.285
-0.29
-0.295
-0.305
-0.295
-0.285
-0.275
-0.285
-0.305
-0.3
-0.29
-0.275
-0.27
-0.265
-0.28
-0.275
-0.26
-0.255
-0.24
-0.235
-0.24
-0.24
-0.22
-0.2
-0.19
-0.19
-0.21
-0.205
-0.19
-0.185
-0.185
-0.19
-0.19
-0.195
-0.185
-0.17
-0.165
-0.17
-0.18
-0.17
-0.16
-0.155
-0.15
-0.15
-0.165
-0.16
-0.155
-0.13
-0.115
-0.115
-0.125
-0.12
-0.115
-0.105
-0.11
-0.12
-0.14
-0.155
-0.155
-0.15
-0.155
-0.175
-0.18
-0.205
-0.21
-0.205
-0.205
-0.22
-0.24
-0.255
-0.25
-0.245
-0.245
-0.245
-0.265
-0.27
-0.25
-0.235
-0.23
-0.245
-0.25
-0.25
-0.25
-0.24
-0.245
-0.25
-0.265
-0.275
-0.275
-0.27
-0.27
-0.275
-0.285
-0.29
-0.28
-0.265
-0.26
-0.275
-0.285
-0.275
-0.265
-0.265
-0.26
-0.265
-0.27
-0.28
-0.265
-0.255
-0.265
-0.27
-0.275
-0.28
-0.265
-0.26
-0.255
-0.26
-0.27
-0.27
-0.26
-0.245
-0.245
-0.25
-0.26
-0.255
-0.255
-0.24
-0.245
-0.235
-0.235
-0.23
-0.19
-0.16
-0.11
-0.06
-0.015
0.07
0.17
0.265
0.345
0.42
0.515
0.63
0.725
0.795
0.81
0.78
0.685
0.53
0.34
0.135
-0.055
-0.18
-0.24
-0.28
-0.28
-0.285
-0.26
-0.25
-0.25
-0.26
-0.255
-0.265
-0.27
-0.27
-0.295
-0.305
-0.305
-0.295
-0.3
-0.305
-0.305
-0.305
-0.295
-0.29
-0.295
-0.3
-0.305
-0.3
-0.285
-0.28
-0.29
-0.295
-0.305
-0.31
-0.3
-0.29
-0.305
-0.305
-0.315
-0.31
-0.3
-0.29
-0.28
-0.28
-0.285
-0.28
-0.275
-0.27
-0.26
-0.265
-0.265
-0.27
-0.265
-0.255
-0.255
-0.24
-0.25
-0.25
-0.25
-0.235
-0.23
-0.22
-0.22
-0.21
-0.2
-0.195
-0.2
-0.185
-0.19
-0.18
-0.17
-0.15
-0.14
-0.145
-0.155
-0.15
-0.15
-0.15
-0.155
-0.155
-0.175
-0.185
-0.18
-0.175
-0.18
-0.19
-0.205
-0.225
-0.225
-0.225
-0.22
-0.23
-0.24
-0.255
-0.245
-0.24
-0.245
-0.24
-0.255
-0.27
-0.255
-0.245
-0.25
-0.255
-0.26
-0.27
-0.27
-0.26
-0.265
-0.255
-0.27
-0.285
-0.26
-0.265
-0.26
-0.255
-0.26
-0.27
-0.265
-0.25
-0.25
-0.25
-0.265
-0.255
-0.245
-0.24
-0.24
-0.24
-0.245
-0.25
-0.24
-0.225
-0.23
-0.235
-0.225
-0.23
-0.23
-0.225
-0.23
-0.245
-0.25
-0.255
-0.255
-0.25
-0.255
-0.27
-0.27
-0.275
-0.28
-0.27
-0.27
-0.27
-0.275
-0.27
-0.26
-0.255
-0.255
-0.265
-0.27
-0.275
-0.27
-0.26
-0.265
-0.275
-0.27
-0.275
-0.265
-0.265
-0.265
-0.255
-0.265
-0.27
-0.265
-0.255
-0.25
-0.255
-0.25
-0.26
-0.25
-0.245
-0.245
-0.245
-0.255
-0.255
-0.24
-0.235
-0.225
-0.225
-0.23
-0.23
-0.225
-0.225
-0.23
-0.22
-0.225
-0.23
-0.21
-0.18
-0.16
-0.145
-0.115
-0.04
0.07
0.165
0.265
0.37
0.49
0.595
0.675
0.73
0.78
0.76
0.68
0.53
0.39
0.205
0.025
-0.09
-0.16
-0.2
-0.215
-0.215
-0.205
-0.195
-0.2
-0.24
-0.24
-0.245
-0.25
-0.27
-0.275
-0.275
-0.275
-0.265
-0.27
-0.275
-0.28
-0.29
-0.28
-0.285
-0.28
-0.27
-0.28
-0.275
-0.265
-0.26
-0.255
-0.265
-0.265
-0.28
-0.275
-0.27
-0.27
-0.28
-0.29
-0.29
-0.29
-0.29
-0.29
-0.28
-0.29
-0.275
-0.255
-0.25
-0.25
-0.26
-0.255
-0.26
-0.265
-0.25
-0.25
-0.245
-0.245
-0.245
-0.23
-0.225
-0.215
-0.22
-0.23
-0.23
-0.21
-0.21
-0.21
-0.21
-0.21
-0.21
-0.205
-0.195
-0.195
-0.19
-0.2
-0.2
-0.2
-0.19
-0.18
-0.19
-0.2
-0.205
-0.19
-0.19
-0.175
-0.17
-0.17
-0.175
-0.175
-0.17
-0.175
-0.185
-0.185
-0.2
-0.185
-0.175
-0.165
-0.175
-0.19
-0.195
-0.185
-0.18
-0.18
-0.2
-0.21
-0.21
-0.21
-0.205
-0.205
-0.215
-0.215
-0.225
-0.22
-0.215
-0.225
-0.22
-0.235
-0.23
-0.23
-0.22
-0.22
-0.22
-0.225
-0.225
-0.225
-0.23
-0.23
-0.235
-0.25
-0.25
-0.24
-0.245
-0.24
-0.25
-0.255
-0.275
-0.255
-0.255
-0.27
-0.26
-0.265
-0.265
-0.25
-0.24
-0.24
-0.245
-0.245
-0.24
-0.225
-0.215
-0.215
-0.225
-0.225
-0.215
-0.21
-0.205
-0.205
-0.21
-0.215
-0.21
-0.2
-0.19
-0.19
-0.2
-0.22
-0.23
-0.215
-0.22
-0.225
-0.215
-0.215
-0.225
-0.215
-0.22
-0.22
-0.23
-0.25
-0.25
-0.25
-0.245
-0.25
-0.255
-0.26
-0.265
-0.275
-0.27
-0.265
-0.275
-0.285
-0.285
-0.27
-0.25
-0.24
-0.22
-0.2
-0.17
-0.11
-0.02
0.07
0.135
0.215
0.315
0.435
0.52
0.585
0.655
0.66
0.615
0.515
0.385
0.21
0.03
-0.09
-0.14
-0.16
-0.165
-0.165
-0.17
-0.18
-0.19
-0.2
-0.205
-0.21
-0.215
-0.23
-0.24
-0.235
-0.24
-0.25
-0.255
-0.255
-0.265
-0.265
-0.26
-0.255
-0.265
-0.29
-0.295
-0.29
-0.3
-0.295
-0.295
-0.31
-0.32
-0.315
-0.315
-0.305
-0.31
-0.31
-0.315
-0.29
-0.265
-0.245
-0.24
-0.245
-0.235
-0.22
-0.225
-0.215
-0.22
-0.23
-0.235
-0.22
-0.215
-0.215
-0.225
-0.22
-0.215
-0.215
-0.195
-0.205
-0.22
-0.22
-0.225
-0.21
-0.2
-0.19
-0.19
-0.205
-0.205
-0.2
-0.19
-0.185
-0.175
-0.18
-0.185
-0.18
-0.17
-0.175
-0.185
-0.2
-0.215
-0.205
-0.205
-0.205
-0.225
-0.24
-0.255
-0.24
-0.245
-0.255
-0.25
-0.265
-0.27
-0.265
-0.245
-0.245
-0.24
-0.245
-0.235
-0.23
-0.215
-0.21
-0.22
-0.24
-0.245
-0.235
-0.23
-0.23
-0.235
-0.25
-0.265
-0.255
-0.255
-0.25
-0.255
-0.26
-0.265
-0.255
-0.255
-0.255
-0.265
-0.275
-0.28
-0.26
-0.25
-0.25
-0.265
-0.27
-0.28
-0.26
-0.26
-0.25
-0.245
-0.27
-0.27
-0.26
-0.26
-0.265
-0.265
-0.27
-0.285
-0.275
-0.28
-0.28
-0.275
-0.285
-0.29
-0.29
-0.27
-0.265
-0.27
-0.275
-0.27
-0.265
-0.25
-0.245
-0.26
-0.255
-0.27
-0.26
-0.25
-0.24
-0.24
-0.235
-0.235
-0.215
-0.21
-0.215
-0.225
-0.25
-0.235
-0.23
-0.225
-0.235
-0.24
-0.26
-0.27
-0.25
-0.27
-0.255
-0.265
-0.275
-0.275
-0.275
-0.275
-0.27
-0.285
-0.295
-0.295
-0.29
-0.28
-0.29
-0.29
-0.305
-0.315
-0.315
-0.305
-0.3
-0.31
-0.32
-0.315
-0.31
-0.295
-0.3
-0.3
-0.31
-0.31
-0.31
-0.3
-0.295
-0.305
-0.305
-0.31
-0.295
-0.3
-0.29
-0.3
-0.305
-0.295
-0.295
-0.29
-0.3
-0.29
-0.29
-0.29
-0.275
-0.27
-0.265
-0.26
-0.255
-0.25
-0.23
-0.22
-0.22
-0.225
-0.225
-0.215
-0.205
-0.19
-0.2
-0.205
-0.205
-0.195
-0.16
-0.13
-0.12
-0.105
-0.07
0.0
0.1
0.18
0.275
0.385
0.51
0.595
0.685
0.765
0.815
0.79
0.685
0.515
0.33
0.135
-0.04
-0.155
-0.22
-0.26
-0.27
-0.25
-0.21
-0.185
-0.19
-0.2
-0.205
-0.21
-0.225
-0.245
-0.255
-0.26
-0.26
-0.25
-0.255
-0.27
-0.275
-0.285
-0.285
-0.28
-0.285
-0.3
-0.315
-0.32
-0.32
-0.31
-0.32
-0.335
-0.345
-0.35
-0.345
-0.34
-0.33
-0.335
-0.33
-0.325
-0.3
-0.285
-0.275
-0.265
-0.27
-0.265
-0.26
-0.25
-0.25
-0.25
-0.26
-0.25
-0.245
-0.23
-0.225
-0.215
-0.22
-0.22
-0.195
-0.185
-0.185
-0.195
-0.195
-0.19
-0.185
-0.175
-0.17
-0.175
-0.18
-0.175
-0.16
-0.155
-0.135
-0.145
-0.145
-0.145
-0.135
-0.135
-0.12
-0.125
-0.125
-0.13
-0.125
-0.125
-0.13
-0.135
-0.15
-0.15
-0.165
-0.17
-0.17
-0.185
-0.2
-0.22
-0.225
-0.235
-0.245
-0.26
-0.265
-0.275
-0.265
-0.255
-0.265
-0.26
-0.27
-0.275
-0.265
-0.245
-0.24
-0.23
-0.23
-0.215
-0.195
-0.195
-0.19
-0.2
-0.205
-0.21
-0.195
-0.19
-0.21
-0.215
-0.225
-0.215
-0.215
-0.2
-0.21
-0.21
-0.225
-0.23
-0.23
-0.215
-0.215
-0.23
-0.24
-0.235
-0.23
-0.22
-0.225
-0.235
-0.24
-0.245
-0.24
-0.235
-0.245
-0.255
-0.26
-0.27
-0.26
-0.25
-0.26
-0.275
-0.275
-0.28
-0.275
-0.275
-0.265
-0.27
-0.275
-0.265
-0.25
-0.24
-0.23
-0.235
-0.245
-0.245
-0.225
-0.22
-0.225
-0.225
-0.24
-0.24
-0.235
-0.225
-0.23
-0.22
-0.235
-0.235
-0.22
-0.21
-0.2
-0.22
-0.235
-0.235
-0.225
-0.215
-0.22
-0.225
-0.23
-0.245
-0.235
-0.225
-0.22
-0.24
-0.255
-0.255
-0.255
-0.245
-0.245
-0.255
-0.275
-0.285
-0.275
-0.28
-0.28
-0.29
-0.31
-0.305
-0.305
-0.295
-0.3
-0.305
-0.305
-0.31
-0.305
-0.29
-0.295
-0.31
-0.315
-0.315
-0.3
-0.28
-0.285
-0.285
-0.29
-0.285
-0.265
-0.26
-0.25
-0.25
-0.25
-0.245
-0.24
-0.215
-0.215
-0.22
-0.24
-0.235
-0.23
-0.22
-0.22
-0.22
-0.235
-0.215
-0.21
-0.205
-0.21
-0.215
-0.22
-0.22
-0.215
-0.215
-0.225
-0.225
-0.24
-0.245
-0.235
-0.23
-0.23
-0.235
-0.24
-0.255
-0.255
-0.25
-0.255
-0.255
-0.25
-0.25
-0.225
-0.215
-0.2
-0.185
-0.175
-0.165
-0.13
-0.055
0.02
0.105
0.18
0.28
0.385
0.495
0.585
0.675
0.74
0.82
0.845
0.79
0.67
0.5
0.33
0.15
0.0
-0.085
-0.16
-0.2
-0.225
-0.215
-0.17
-0.14
-0.13
-0.16
-0.175
-0.185
-0.175
-0.175
-0.175
-0.18
-0.2
-0.215
-0.205
-0.195
-0.2
-0.215
-0.23
-0.23
-0.225
-0.22
-0.225
-0.235
-0.255
-0.255
-0.255
-0.25
-0.26
-0.265
-0.275
-0.27
-0.255
-0.26
-0.255
-0.26
-0.27
