Lead II
-0.375
-0.37
-0.33
-0.245
-0.13
0.005
0.17
0.36
0.565
0.75
0.9
0.945
0.86
0.635
0.335
0.035
-0.215
-0.37
-0.41
-0.38
-0.295
-0.24
-0.205
-0.195
-0.2
-0.2
-0.205
-0.215
-0.24
-0.245
-0.25
-0.26
-0.27
-0.28
-0.285
-0.285
-0.29
-0.29
-0.285
-0.275
-0.265
-0.265
-0.265
-0.265
-0.275
-0.29
-0.29
-0.29
-0.29
-0.285
-0.275
-0.275
-0.27
-0.26
-0.27
-0.265
-0.275
-0.275
-0.275
-0.275
-0.265
-0.26
-0.255
-0.245
-0.24
-0.24
-0.245
-0.245
-0.255
-0.255
-0.25
-0.25
-0.255
-0.25
-0.255
-0.23
-0.23
-0.23
-0.23
-0.23
-0.23
-0.24
-0.24
-0.25
-0.24
-0.23
-0.225
-0.215
-0.205
-0.205
-0.21
-0.21
-0.215
-0.22
-0.23
-0.22
-0.22
-0.215
-0.215
-0.205
-0.19
-0.19
-0.195
-0.2
-0.205
-0.205
-0.21
-0.205
-0.18
-0.18
-0.16
-0.16
-0.14
-0.14
-0.125
-0.14
-0.135
-0.135
-0.14
-0.14
-0.14
-0.145
-0.14
-0.14
-0.14
-0.14
-0.155
-0.165
-0.17
-0.19
-0.2
-0.215
-0.215
-0.215
-0.22
-0.21
-0.225
-0.23
-0.235
-0.235
-0.24
-0.255
-0.26
-0.265
-0.265
-0.255
-0.26
-0.25
-0.245
-0.245
-0.255
-0.255
-0.265
-0.27
-0.27
-0.275
-0.28
-0.265
-0.265
-0.255
-0.255
-0.255
-0.26
-0.265
-0.265
-0.27
-0.28
-0.28
-0.27
-0.275
-0.265
-0.265
-0.265
-0.26
-0.26
-0.275
-0.28
-0.285
-0.285
-0.295
-0.295
-0.285
-0.28
-0.28
-0.275
-0.28
-0.275
-0.285
-0.29
-0.295
-0.295
-0.3
-0.3
-0.3
-0.295
-0.275
-0.275
-0.275
-0.28
-0.28
-0.285
-0.295
-0.305
-0.3
-0.3
-0.295
-0.29
-0.29
-0.28
-0.28
-0.28
-0.275
-0.285
-0.275
-0.27
-0.265
-0.255
-0.255
-0.25
-0.235
-0.235
-0.22
-0.21
-0.185
-0.2
-0.205
-0.22
-0.24
-0.255
-0.265
-0.25
-0.25
-0.24
-0.245
-0.255
-0.26
-0.275
-0.285
-0.285
-0.305
-0.295
-0.3
-0.305
-0.315
-0.3
-0.305
-0.305
-0.31
-0.31
-0.31
-0.32
-0.31
-0.325
-0.31
-0.31
-0.3
-0.305
-0.29
-0.3
-0.31
-0.345
-0.365
-0.375
-0.355
-0.285
-0.175
-0.035
0.145
0.37
0.59
0.81
0.94
0.935
0.77
0.48
0.14
-0.17
-0.365
-0.445
-0.415
-0.325
-0.235
-0.195
-0.175
-0.185
-0.205
-0.235
-0.25
-0.275
-0.28
-0.28
-0.275
-0.275
-0.275
-0.275
-0.28
-0.295
-0.3
-0.305
-0.305
-0.29
-0.305
-0.295
-0.28
-0.28
-0.275
-0.28
-0.285
-0.295
-0.29
-0.29
-0.295
-0.29
-0.285
-0.275
-0.265
-0.255
-0.25
-0.255
-0.25
-0.26
-0.27
-0.27
-0.28
-0.275
-0.275
-0.265
-0.265
-0.25
-0.24
-0.25
-0.25
-0.25
-0.275
-0.275
-0.275
-0.265
-0.265
-0.255
-0.24
-0.245
-0.245
-0.24
-0.25
-0.255
-0.255
-0.25
-0.25
-0.25
-0.245
-0.23
-0.225
-0.225
-0.22
-0.22
-0.23
-0.235
-0.245
-0.24
-0.235
-0.235
-0.24
-0.23
-0.23
-0.215
-0.2
-0.19
-0.185
-0.19
-0.2
-0.205
-0.195
-0.19
-0.185
-0.165
-0.16
-0.15
-0.16
-0.16
-0.17
-0.17
-0.175
-0.19
-0.19
-0.195
-0.2
-0.2
-0.2
-0.21
-0.215
-0.225
-0.235
-0.245
-0.265
-0.265
-0.275
-0.265
-0.275
-0.27
-0.26
-0.255
-0.26
-0.27
-0.28
-0.285
-0.3
-0.3
-0.305
-0.295
-0.305
-0.295
-0.295
-0.305
-0.29
-0.295
-0.295
-0.31
-0.315
-0.325
-0.31
-0.33
-0.32
-0.315
-0.305
-0.31
-0.3
-0.305
-0.305
-0.315
-0.33
-0.335
-0.345
-0.335
-0.325
-0.325
-0.32
-0.315
-0.315
-0.31
-0.315
-0.32
-0.33
-0.325
-0.335
-0.34
-0.33
-0.335
-0.335
-0.32
-0.33
-0.32
-0.335
-0.34
-0.34
-0.345
-0.345
-0.345
-0.32
-0.33
-0.32
-0.32
-0.32
-0.32
-0.325
-0.32
-0.33
-0.34
-0.335
-0.34
-0.33
-0.33
-0.32
-0.325
-0.31
-0.305
-0.3
-0.3
-0.3
-0.305
-0.305
-0.3
-0.295
-0.285
-0.275
-0.255
-0.235
-0.23
-0.225
-0.225
-0.25
-0.27
-0.28
-0.29
-0.285
-0.28
-0.275
-0.28
-0.27
-0.29
-0.3
-0.31
-0.32
-0.32
-0.325
-0.33
-0.345
-0.35
-0.345
-0.335
-0.34
-0.35
-0.35
-0.365
-0.375
-0.37
-0.36
-0.37
-0.35
-0.34
-0.325
-0.335
-0.33
-0.325
-0.335
-0.35
-0.365
-0.395
-0.425
-0.42
-0.375
-0.295
-0.175
-0.025
0.155
0.38
0.6
0.795
0.92
0.92
0.765
0.495
0.16
-0.135
-0.36
-0.455
-0.45
-0.39
-0.315
-0.27
-0.255
-0.245
-0.26
-0.275
-0.275
-0.28
-0.29
-0.3
-0.3
-0.31
-0.31
-0.32
-0.33
-0.34
-0.34
-0.325
-0.32
-0.32
-0.305
-0.3
-0.305
-0.3
-0.315
-0.32
-0.33
-0.34
-0.33
-0.325
-0.325
-0.315
-0.305
-0.3
-0.295
-0.29
-0.29
-0.295
-0.295
-0.3
-0.295
-0.3
-0.295
-0.295
-0.28
-0.27
-0.275
-0.285
-0.28
-0.275
-0.28
-0.275
-0.275
-0.275
-0.27
-0.27
-0.265
-0.25
-0.255
-0.245
-0.25
-0.245
-0.25
-0.25
-0.26
-0.26
-0.26
-0.25
-0.24
-0.235
-0.225
-0.23
-0.23
-0.23
-0.24
-0.235
-0.245
-0.235
-0.24
-0.235
-0.23
-0.215
-0.225
-0.225
-0.225
-0.225
-0.22
-0.235
-0.225
-0.24
-0.22
-0.215
-0.21
-0.19
-0.18
-0.17
-0.175
-0.17
-0.17
-0.17
-0.16
-0.155
-0.155
-0.15
-0.155
-0.155
-0.15
-0.16
-0.185
-0.185
-0.2
-0.205
-0.22
-0.22
-0.225
-0.23
-0.235
-0.235
-0.23
-0.245
-0.255
-0.26
-0.27
-0.28
-0.285
-0.295
-0.29
-0.28
-0.28
-0.27
-0.275
-0.275
-0.28
-0.29
-0.295
-0.3
-0.305
-0.305
-0.305
-0.295
-0.29
-0.29
-0.285
-0.285
-0.29
-0.295
-0.305
-0.305
-0.305
-0.305
-0.305
-0.3
-0.3
-0.29
-0.295
-0.3
-0.3
-0.32
-0.325
-0.32
-0.335
-0.315
-0.31
-0.32
-0.3
-0.305
-0.305
-0.3
-0.305
-0.31
-0.32
-0.33
-0.33
-0.33
-0.325
-0.32
-0.31
-0.3
-0.3
-0.295
-0.305
-0.31
-0.32
-0.33
-0.335
-0.33
-0.335
-0.32
-0.315
-0.31
-0.305
-0.305
-0.305
-0.315
-0.315
-0.325
-0.33
-0.32
-0.32
-0.305
-0.285
-0.28
-0.27
-0.26
-0.26
-0.265
-0.265
-0.265
-0.265
-0.27
-0.255
-0.24
-0.22
-0.2
-0.195
-0.2
-0.215
-0.245
-0.25
-0.265
-0.28
-0.28
-0.275
-0.26
-0.26
-0.26
-0.26
-0.275
-0.28
-0.285
-0.3
-0.315
-0.32
-0.33
-0.335
-0.34
-0.33
-0.315
-0.315
-0.31
-0.315
-0.32
-0.325
-0.335
-0.34
-0.335
-0.325
-0.32
-0.315
-0.3
-0.305
-0.315
-0.35
-0.365
-0.385
-0.35
-0.285
-0.18
-0.04
0.12
0.325
0.54
0.755
0.905
0.965
0.875
0.645
0.33
0.01
-0.245
-0.405
-0.435
-0.39
-0.31
-0.24
-0.2
-0.185
-0.195
-0.21
-0.23
-0.24
-0.245
-0.265
-0.25
-0.25
-0.25
-0.27
-0.265
-0.27
-0.27
-0.27
-0.275
-0.295
-0.285
-0.28
-0.265
-0.26
-0.255
-0.25
-0.245
-0.24
-0.25
-0.255
-0.255
-0.255
-0.255
-0.255
-0.235
-0.235
-0.23
-0.225
-0.225
-0.23
-0.225
-0.24
-0.235
-0.24
-0.25
-0.23
-0.23
-0.225
-0.215
-0.22
-0.23
-0.225
-0.235
-0.24
-0.23
-0.24
-0.235
-0.235
-0.225
-0.225
-0.22
-0.22
-0.22
-0.215
-0.22
-0.22
-0.225
-0.225
-0.22
-0.235
-0.22
-0.205
-0.21
-0.205
-0.21
-0.215
-0.22
-0.22
-0.225
-0.22
-0.22
-0.22
-0.205
-0.205
-0.18
-0.175
-0.175
-0.17
-0.165
-0.175
-0.16
-0.16
-0.16
-0.155
-0.14
-0.135
-0.125
-0.115
-0.115
-0.115
-0.13
-0.14
-0.155
-0.16
-0.16
-0.17
-0.16
-0.165
-0.17
-0.175
-0.175
-0.185
-0.205
-0.205
-0.215
-0.225
-0.225
-0.22
-0.22
-0.22
-0.225
-0.22
-0.22
-0.22
-0.225
-0.23
-0.235
-0.245
-0.255
-0.255
-0.24
-0.24
-0.24
-0.23
-0.225
-0.23
-0.235
-0.235
-0.25
-0.25
-0.245
-0.25
-0.23
-0.235
-0.235
-0.23
-0.235
-0.235
-0.25
-0.25
-0.26
-0.26
-0.265
-0.255
-0.25
-0.245
-0.25
-0.245
-0.24
-0.24
-0.255
-0.26
-0.26
-0.27
-0.255
-0.265
-0.255
-0.245
-0.25
-0.25
-0.245
-0.245
-0.26
-0.26
-0.265
-0.275
-0.275
-0.27
-0.265
-0.265
-0.25
-0.25
-0.24
-0.25
-0.26
-0.265
-0.26
-0.265
-0.28
-0.26
-0.255
-0.255
-0.255
-0.23
-0.225
-0.215
-0.215
-0.22
-0.225
-0.225
-0.23
-0.215
-0.205
-0.185
-0.165
-0.155
-0.165
-0.18
-0.205
-0.225
-0.235
-0.24
-0.245
-0.245
-0.235
-0.235
-0.235
-0.24
-0.235
-0.24
-0.255
-0.255
-0.265
-0.29
-0.295
-0.295
-0.285
-0.275
-0.275
-0.27
-0.26
-0.265
-0.285
-0.285
-0.285
-0.295
-0.3
-0.28
-0.275
-0.27
-0.265
-0.28
-0.295
-0.325
-0.34
-0.33
-0.285
-0.195
-0.08
0.08
0.26
0.475
0.67
0.85
0.93
0.885
0.685
0.395
0.065
-0.19
-0.365
-0.395
-0.355
-0.27
-0.19
-0.16
-0.14
-0.155
-0.17
-0.195
-0.22
-0.24
-0.245
-0.25
-0.24
-0.24
-0.225
-0.225
-0.23
-0.24
-0.25
-0.255
-0.265
-0.27
-0.26
-0.26
-0.26
-0.24
-0.225
-0.23
-0.23
-0.23
-0.24
-0.25
-0.245
-0.25
-0.25
-0.245
-0.24
-0.24
-0.225
-0.22
-0.215
-0.225
-0.235
-0.24
-0.23
-0.24
-0.23
-0.225
-0.23
-0.22
-0.215
-0.2
-0.205
-0.195
-0.22
-0.225
-0.235
-0.23
-0.225
-0.225
-0.215
-0.2
-0.19
-0.195
-0.195
-0.195
-0.2
-0.2
-0.21
-0.2
-0.2
-0.185
-0.185
-0.185
-0.18
-0.175
-0.165
-0.17
-0.175
-0.17
-0.18
-0.18
-0.18
-0.17
-0.165
-0.15
-0.14
-0.13
-0.125
-0.125
-0.125
-0.12
-0.115
-0.11
-0.11
-0.11
-0.105
-0.085
-0.085
-0.09
-0.085
-0.1
-0.11
-0.13
-0.14
-0.15
-0.155
-0.16
-0.16
-0.165
-0.17
-0.165
-0.175
-0.185
-0.19
-0.21
-0.215
-0.215
-0.23
-0.235
-0.225
-0.225
-0.215
-0.22
-0.225
-0.23
-0.25
-0.25
-0.255
-0.26
-0.26
-0.245
-0.245
-0.235
-0.235
-0.235
-0.24
-0.235
-0.235
-0.25
-0.26
-0.26
-0.27
-0.265
-0.265
-0.255
-0.245
-0.24
-0.245
-0.25
-0.27
-0.285
-0.27
-0.26
-0.275
-0.275
-0.275
-0.265
-0.26
-0.265
-0.265
-0.265
-0.27
-0.28
-0.285
-0.295
-0.295
-0.28
-0.275
-0.275
-0.265
-0.265
-0.265
-0.26
-0.28
-0.285
-0.29
-0.29
-0.295
-0.29
-0.285
-0.28
-0.27
-0.27
-0.265
-0.26
-0.27
-0.275
-0.275
-0.28
-0.275
-0.26
-0.25
-0.23
-0.225
-0.205
-0.21
-0.215
-0.21
-0.215
-0.215
-0.205
-0.195
-0.205
-0.205
-0.215
-0.23
-0.225
-0.235
-0.23
-0.23
-0.25
-0.25
-0.265
-0.27
-0.26
-0.255
-0.26
-0.255
-0.275
-0.275
-0.28
-0.29
-0.295
-0.31
-0.31
-0.31
-0.31
-0.3
-0.295
-0.29
-0.275
-0.275
-0.29
-0.29
-0.285
-0.29
-0.295
-0.3
-0.31
-0.325
-0.32
-0.31
-0.265
-0.195
-0.095
0.025
0.185
0.36
0.555
0.715
0.82
0.82
0.67
0.425
0.155
-0.105
-0.28
-0.36
-0.35
-0.295
-0.235
-0.195
-0.18
-0.175
-0.19
-0.205
-0.215
-0.225
-0.24
-0.255
-0.26
-0.27
-0.275
-0.275
-0.285
-0.275
-0.275
-0.265
-0.26
-0.255
-0.26
-0.265
-0.27
-0.275
-0.285
-0.295
-0.275
-0.27
-0.265
-0.26
-0.26
-0.25
-0.255
-0.25
-0.26
-0.27
-0.27
-0.27
-0.26
-0.255
-0.245
-0.24
-0.23
-0.23
-0.23
-0.23
-0.245
-0.245
-0.245
-0.24
-0.24
-0.235
-0.24
-0.225
-0.22
-0.21
-0.225
-0.22
-0.22
-0.23
-0.235
-0.235
-0.23
-0.22
-0.21
-0.205
-0.205
-0.21
-0.205
-0.2
-0.21
-0.21
-0.22
-0.22
-0.21
-0.2
-0.19
-0.19
-0.18
-0.185
-0.19
-0.19
-0.19
-0.19
-0.195
-0.195
-0.185
-0.17
-0.17
-0.155
-0.135
-0.125
-0.125
-0.12
-0.12
-0.14
-0.135
-0.135
-0.135
-0.14
-0.13
-0.13
-0.14
-0.14
-0.16
-0.165
-0.18
-0.185
-0.205
-0.22
-0.215
-0.215
-0.2
-0.21
-0.21
-0.225
-0.225
-0.23
-0.24
-0.25
-0.255
-0.25
-0.255
-0.25
-0.245
-0.245
-0.235
-0.24
-0.25
-0.25
-0.26
-0.27
-0.27
-0.275
-0.275
-0.265
-0.255
-0.255
-0.26
-0.25
-0.265
-0.26
-0.28
-0.285
-0.3
-0.3
-0.295
-0.28
-0.27
-0.275
-0.275
-0.27
-0.27
-0.28
-0.285
-0.295
-0.3
-0.295
-0.3
-0.29
-0.29
-0.28
-0.285
-0.28
-0.28
-0.29
-0.295
-0.305
-0.305
-0.31
-0.305
-0.305
-0.295
-0.29
-0.285
-0.285
-0.295
-0.3
-0.3
-0.305
-0.305
-0.31
-0.305
-0.3
-0.3
-0.29
-0.29
-0.285
-0.285
-0.29
-0.28
-0.28
-0.27
-0.26
-0.265
-0.265
-0.25
-0.24
-0.23
-0.22
-0.21
-0.21
-0.205
-0.205
-0.22
-0.235
-0.25
-0.26
-0.26
-0.25
-0.255
-0.255
-0.26
-0.265
-0.275
-0.285
-0.285
-0.295
-0.295
-0.3
-0.295
-0.3
-0.295
-0.3
-0.31
-0.305
-0.31
-0.32
-0.31
-0.31
-0.305
-0.31
-0.3
-0.295
-0.285
-0.295
-0.28
-0.295
-0.305
-0.325
-0.34
-0.36
-0.34
-0.295
-0.21
-0.1
0.06
0.24
0.435
0.635
0.795
0.885
0.84
0.665
0.39
0.095
-0.17
-0.33
-0.395
-0.37
-0.3
-0.23
-0.2
-0.19
-0.2
-0.215
-0.24
-0.25
-0.26
-0.265
-0.27
-0.27
-0.265
-0.26
-0.275
-0.29
-0.29
-0.29
-0.285
-0.285
-0.28
-0.27
-0.26
-0.255
-0.27
-0.265
-0.275
-0.285
-0.285
-0.28
-0.28
-0.275
-0.265
-0.255
-0.255
-0.25
-0.255
-0.26
-0.26
-0.26
-0.26
-0.27
-0.265
-0.255
-0.245
-0.25
-0.23
-0.235
-0.24
-0.245
-0.255
-0.26
-0.26
-0.265
-0.265
-0.255
-0.24
-0.245
-0.23
-0.235
-0.235
-0.24
-0.25
-0.25
-0.26
-0.26
-0.25
-0.235
-0.23
-0.22
-0.215
-0.22
-0.215
-0.225
-0.225
-0.225
-0.235
-0.245
-0.24
-0.23
-0.23
-0.225
-0.21
-0.205
-0.21
-0.215
-0.225
-0.225
-0.22
-0.215
-0.21
-0.2
-0.185
-0.17
-0.165
-0.155
-0.16
-0.155
-0.155
-0.16
-0.165
-0.16
-0.155
-0.155
-0.14
-0.15
-0.155
-0.155
-0.165
-0.17
-0.18
-0.195
-0.21
-0.215
-0.225
-0.225
-0.225
-0.225
-0.22
-0.22
-0.23
-0.24
-0.245
-0.255
-0.26
-0.27
-0.27
-0.27
-0.255
-0.25
-0.26
-0.25
-0.26
-0.265
-0.27
-0.28
-0.28
-0.285
-0.285
-0.285
-0.28
-0.27
-0.275
-0.275
-0.28
-0.275
-0.285
-0.3
-0.305
-0.295
-0.31
-0.29
-0.29
-0.295
-0.285
-0.28
-0.285
-0.29
-0.29
-0.305
-0.31
-0.32
-0.315
-0.315
-0.31
-0.3
-0.3
-0.3
-0.3
-0.305
-0.32
-0.325
-0.32
-0.32
-0.32
-0.31
-0.31
-0.305
-0.305
-0.305
-0.295
-0.295
-0.315
-0.315
-0.32
-0.33
-0.32
-0.31
-0.31
-0.295
-0.3
-0.3
-0.3
-0.305
-0.31
-0.305
-0.31
-0.3
-0.285
-0.28
-0.265
-0.26
-0.25
-0.26
-0.255
-0.245
-0.245
-0.24
-0.24
-0.245
-0.25
-0.28
-0.275
-0.285
-0.265
-0.265
-0.265
-0.27
-0.29
-0.295
-0.305
-0.305
-0.31
-0.315
-0.305
-0.32
-0.32
-0.32
-0.33
-0.335
-0.335
-0.34
-0.34
-0.345
-0.345
-0.34
-0.335
-0.33
-0.325
-0.32
-0.32
-0.325
-0.33
-0.34
-0.35
-0.385
-0.39
-0.38
-0.345
-0.275
-0.16
-0.01
0.155
0.35
0.545
0.735
0.845
0.86
0.73
0.48
0.195
-0.085
-0.305
-0.425
-0.44
-0.395
-0.335
-0.28
-0.255
-0.265
-0.255
-0.255
-0.27
-0.265
-0.27
-0.275
-0.285
-0.29
-0.305
-0.31
-0.315
-0.315
-0.32
-0.315
-0.315
-0.3
-0.29
-0.295
-0.295
-0.295
-0.305
-0.305
-0.305
-0.31
-0.31
-0.31
-0.295
-0.29
-0.28
-0.27
-0.275
-0.28
-0.29
-0.3
-0.295
-0.3
-0.29
-0.28
-0.275
-0.255
-0.255
-0.255
-0.255
-0.26
-0.27
-0.29
-0.29
-0.295
-0.29
-0.28
-0.275
-0.265
-0.26
-0.26
-0.265
-0.265
-0.275
-0.27
-0.27
-0.28
-0.27
-0.265
-0.255
-0.25
-0.245
-0.235
-0.24
-0.25
-0.25
-0.25
-0.255
-0.255
-0.255
-0.25
-0.23
-0.235
-0.23
-0.235
-0.225
-0.225
-0.24
-0.24
-0.235
-0.24
-0.235
-0.225
-0.215
-0.2
-0.19
-0.175
-0.17
-0.165
-0.175
-0.18
-0.19
-0.18
-0.19
-0.17
-0.175
-0.165
-0.16
-0.175
-0.18
-0.185
-0.195
-0.215
-0.23
-0.235
-0.24
-0.25
-0.255
-0.245
-0.25
-0.25
-0.25
-0.26
-0.275
-0.28
-0.29
-0.295
-0.3
-0.295
-0.29
-0.29
-0.28
-0.29
-0.295
-0.3
-0.305
-0.315
-0.32
-0.325
-0.32
-0.31
-0.31
-0.3
-0.295
-0.3
-0.3
-0.3
-0.31
-0.33
-0.34
-0.33
-0.33
-0.325
-0.315
-0.315
-0.31
-0.305
-0.31
-0.315
-0.325
-0.335
-0.345
-0.345
-0.35
-0.35
-0.34
-0.335
-0.33
-0.32
-0.325
-0.315
-0.32
-0.335
-0.335
-0.34
-0.335
-0.34
-0.33
-0.33
-0.325
-0.31
-0.32
-0.33
-0.335
-0.335
-0.35
-0.335
-0.335
-0.33
-0.33
-0.315
-0.315
-0.305
-0.315
-0.315
-0.32
-0.325
-0.33
-0.33
-0.315
-0.305
-0.305
-0.28
-0.275
-0.26
-0.265
-0.27
-0.275
-0.265
-0.27
-0.27
-0.26
-0.255
-0.255
-0.265
-0.275
-0.28
-0.275
-0.28
-0.29
-0.295
-0.31
-0.32
-0.33
-0.325
-0.32
-0.325
-0.325
-0.33
-0.335
-0.34
-0.335
-0.345
-0.355
-0.365
-0.36
-0.355
-0.34
-0.335
-0.325
-0.32
-0.32
-0.335
-0.33
-0.335
-0.345
-0.36
-0.365
-0.37
-0.39
-0.365
-0.3
-0.21
-0.11
0.04
0.215
0.41
0.615
0.78
0.85
0.79
0.595
0.31
0.0
-0.25
-0.4
-0.435
-0.4
-0.335
-0.275
-0.245
-0.24
-0.24
-0.25
-0.255
-0.265
-0.285
-0.29
-0.305
-0.31
-0.305
-0.315
-0.32
-0.325
-0.315
-0.315
-0.31
-0.305
-0.305
-0.305
-0.305
-0.315
-0.32
-0.31
-0.32
-0.315
-0.315
-0.305
-0.3
-0.295
-0.285
-0.29
-0.285
-0.295
-0.3
-0.3
-0.305
-0.305
-0.3
-0.295
-0.28
-0.28
-0.28
-0.28
-0.28
-0.28
-0.29
-0.29
-0.29
-0.29
-0.275
-0.275
-0.27
-0.255
-0.255
-0.255
-0.26
-0.255
-0.27
-0.275
-0.285
-0.28
-0.275
-0.265
-0.26
-0.25
-0.25
-0.245
-0.25
-0.255
-0.265
-0.26
-0.27
-0.255
-0.255
-0.245
-0.24
-0.24
-0.235
-0.225
-0.225
-0.23
-0.23
-0.235
-0.225
-0.225
-0.21
-0.195
-0.185
-0.185
-0.165
-0.155
-0.16
-0.155
-0.155
-0.155
-0.165
-0.155
-0.15
-0.15
-0.15
-0.15
-0.145
-0.16
-0.175
-0.18
-0.2
-0.21
-0.225
-0.215
-0.22
-0.22
-0.215
-0.22
-0.23
-0.235
-0.235
-0.245
-0.255
-0.26
-0.26
-0.265
-0.265
-0.255
-0.25
-0.25
-0.24
-0.25
-0.255
-0.265
-0.26
-0.28
-0.285
-0.28
-0.285
-0.275
-0.27
-0.255
-0.25
-0.25
-0.265
-0.27
-0.28
-0.275
-0.285
-0.28
-0.28
-0.27
-0.27
-0.255
-0.25
-0.255
-0.265
-0.27
-0.285
-0.29
-0.295
-0.285
-0.285
-0.28
-0.28
-0.27
-0.265
-0.27
-0.27
-0.28
-0.28
-0.29
-0.285
-0.3
-0.29
-0.28
-0.275
-0.27
-0.265
-0.265
-0.275
-0.285
-0.28
-0.295
-0.29
-0.3
-0.285
-0.275
-0.28
-0.275
-0.265
-0.28
-0.275
-0.28
-0.295
-0.295
-0.295
-0.3
-0.295
-0.285
-0.27
-0.26
-0.255
-0.245
-0.235
-0.235
-0.24
-0.24
-0.245
-0.24
-0.24
-0.215
-0.19
-0.185
-0.18
-0.19
-0.195
-0.225
-0.24
-0.245
-0.255
-0.25
-0.25
-0.24
-0.245
-0.23
-0.24
-0.24
-0.245
-0.26
-0.28
-0.285
-0.3
-0.31
-0.305
-0.305
-0.295
-0.285
-0.275
-0.28
-0.29
-0.295
-0.3
-0.295
-0.315
-0.31
-0.295
-0.28
-0.27
-0.27
-0.28
-0.29
-0.32
-0.31
-0.275
-0.21
-0.095
0.07
0.245
0.455
0.655
0.82
0.88
0.805
0.595
0.305
0.005
-0.23
-0.36
-0.38
-0.33
-0.26
-0.195
-0.16
-0.15
-0.17
-0.18
-0.215
-0.235
-0.245
-0.255
-0.26
-0.255
-0.25
-0.245
-0.235
-0.235
-0.24
-0.245
-0.25
-0.245
-0.255
-0.255
-0.265
-0.255
-0.25
-0.24
-0.24
-0.235
-0.23
-0.23
-0.24
-0.24
-0.25
-0.245
-0.255
-0.24
-0.235
-0.225
-0.21
-0.22
-0.215
-0.22
-0.225
-0.235
-0.235
-0.235
-0.235
-0.23
-0.22
-0.21
-0.205
-0.205
-0.205
-0.205
-0.2
-0.21
-0.22
-0.215
-0.215
-0.21
-0.21
-0.195
-0.2
-0.19
-0.195
-0.19
-0.2
-0.21
-0.2
-0.205
-0.205
-0.19
-0.19
-0.185
-0.175
-0.175
-0.18
-0.185
-0.185
-0.19
-0.195
-0.195
-0.2
-0.175
-0.17
-0.16
-0.155
-0.145
-0.14
-0.135
-0.135
-0.135
-0.13
-0.135
-0.13
-0.125
-0.12
-0.105
-0.1
-0.1
-0.115
-0.11
-0.13
-0.135
-0.16
-0.165
-0.18
-0.17
-0.165
-0.175
-0.175
-0.185
-0.19
-0.205
-0.195
-0.205
-0.215
-0.225
-0.225
-0.225
-0.225
-0.215
-0.215
-0.21
-0.21
-0.22
-0.23
-0.24
-0.24
-0.245
-0.245
-0.24
-0.23
-0.225
-0.22
-0.225
-0.225
-0.23
-0.23
-0.24
-0.245
-0.245
-0.245
-0.24
-0.235
-0.23
-0.225
-0.23
-0.23
-0.24
-0.24
-0.245
-0.25
-0.25
-0.26
-0.26
-0.255
-0.245
-0.235
-0.25
-0.245
-0.25
-0.255
-0.255
-0.265
-0.265
-0.275
-0.275
-0.265
-0.26
-0.26
-0.25
-0.245
-0.25
-0.255
-0.265
-0.27
-0.275
-0.28
-0.265
-0.27
-0.26
-0.245
-0.245
-0.25
-0.26
-0.255
-0.265
-0.275
-0.275
-0.27
-0.26
-0.26
-0.235
-0.23
-0.205
-0.2
-0.2
-0.2
-0.21
-0.21
-0.215
-0.2
-0.175
-0.17
-0.165
-0.15
-0.165
-0.17
-0.19
-0.215
-0.21
-0.23
-0.23
-0.245
-0.23
-0.24
-0.25
-0.235
-0.245
-0.245
-0.26
-0.275
-0.275
-0.295
-0.305
-0.315
-0.31
-0.315
-0.285
-0.275
-0.27
-0.265
-0.27
-0.28
-0.28
-0.285
-0.295
-0.29
-0.285
-0.28
-0.295
-0.285
-0.305
-0.315
-0.315
-0.275
-0.23
-0.12
0.0
0.16
0.36
0.54
0.72
0.855
0.865
0.745
0.515
0.225
-0.05
-0.25
-0.36
-0.38
-0.315
-0.25
-0.19
-0.17
-0.17
-0.18
-0.19
-0.22
-0.23
-0.25
-0.26
-0.265
-0.26
-0.255
-0.255
-0.255
-0.24
-0.245
-0.245
-0.26
-0.27
-0.265
-0.265
-0.28
-0.275
-0.26
-0.265
-0.255
-0.25
-0.245
-0.26
-0.255
-0.26
-0.255
-0.255
-0.265
-0.25
-0.255
-0.255
-0.24
-0.235
-0.23
-0.24
-0.24
-0.235
-0.245
-0.25
-0.26
-0.245
-0.23
-0.23
-0.215
-0.215
-0.205
-0.22
-0.23
-0.22
-0.23
-0.225
-0.225
-0.22
-0.22
-0.21
-0.205
-0.195
-0.2
-0.195
-0.2
-0.21
-0.21
-0.21
-0.21
-0.2
-0.19
-0.185
-0.18
-0.18
-0.18
-0.175
-0.19
-0.18
-0.195
-0.19
-0.19
-0.18
-0.175
-0.155
-0.15
-0.14
-0.125
-0.12
-0.125
-0.125
-0.12
-0.115
-0.125
-0.115
-0.11
-0.11
-0.1
-0.105
-0.11
-0.115
-0.125
-0.135
-0.15
-0.165
-0.165
-0.175
-0.17
-0.18
-0.17
-0.18
-0.185
-0.185
-0.195
-0.21
-0.23
-0.23
-0.23
-0.23
-0.23
-0.23
-0.225
-0.23
-0.225
-0.225
-0.23
-0.235
-0.26
-0.25
-0.255
-0.255
-0.245
-0.245
-0.245
-0.24
-0.24
-0.25
-0.25
-0.265
-0.265
-0.275
-0.275
-0.27
-0.265
-0.26
-0.26
-0.26
-0.26
-0.26
-0.265
-0.27
-0.285
-0.285
-0.285
-0.285
-0.285
-0.275
-0.275
-0.275
-0.28
-0.285
-0.29
-0.295
-0.305
-0.305
-0.31
-0.295
-0.295
-0.285
-0.28
-0.275
-0.275
-0.27
-0.28
-0.285
-0.295
-0.305
-0.305
-0.295
-0.295
-0.295
-0.285
-0.28
-0.285
-0.285
-0.28
-0.295
-0.295
-0.285
-0.29
-0.275
-0.265
-0.245
-0.23
-0.23
-0.23
-0.23
-0.23
-0.235
-0.225
-0.215
-0.21
-0.195
-0.2
-0.205
-0.22
-0.23
-0.24
-0.24
-0.245
-0.255
-0.26
-0.27
-0.28
-0.26
-0.27
-0.27
-0.275
-0.275
-0.285
-0.285
-0.305
-0.3
-0.31
-0.31
-0.315
-0.31
-0.3
-0.3
-0.285
-0.285
-0.285
-0.28
-0.28
-0.295
-0.295
-0.315
-0.33
-0.335
-0.335
-0.3
-0.23
-0.135
0.005
0.155
0.335
0.515
0.685
0.805
0.815
0.715
0.495
0.22
-0.03
-0.23
-0.325
-0.35
-0.31
-0.24
-0.205
-0.185
-0.19
-0.19
-0.2
-0.215
-0.225
-0.24
-0.245
-0.255
-0.255
-0.26
-0.26
-0.26
-0.275
-0.26
-0.265
-0.26
-0.25
-0.255
-0.25
-0.25
-0.255
-0.265
-0.265
-0.265
-0.26
-0.255
-0.255
-0.245
-0.245
-0.24
-0.235
-0.255
-0.245
-0.25
-0.26
-0.255
-0.265
-0.25
-0.245
-0.245
-0.235
-0.23
-0.225
-0.23
-0.23
-0.24
-0.25
-0.235
-0.24
-0.245
-0.23
-0.23
-0.23
-0.215
-0.22
-0.215
-0.23
-0.23
-0.24
-0.235
-0.235
-0.23
-0.22
-0.21
-0.21
-0.205
-0.2
-0.21
-0.215
-0.21
-0.21
-0.21
-0.215
-0.215
-0.205
-0.205
-0.195
-0.185
-0.185
-0.185
-0.185
-0.2
-0.205
-0.2
-0.205
-0.19
-0.18
-0.165
-0.16
-0.145
-0.135
-0.13
-0.13
-0.13
-0.14
-0.14
-0.14
-0.14
-0.135
-0.13
-0.13
-0.125
-0.13
-0.14
-0.155
-0.16
-0.18
-0.185
-0.2
-0.195
-0.2
-0.195
-0.2
-0.205
-0.21
-0.225
-0.23
-0.235
-0.25
-0.25
-0.255
-0.255
-0.24
-0.25
-0.24
-0.235
-0.24
-0.245
-0.245
-0.255
-0.26
-0.26
-0.265
-0.26
-0.265
-0.255
-0.255
-0.245
-0.245
-0.255
-0.255
-0.26
-0.275
-0.27
-0.28
-0.28
-0.27
-0.26
-0.255
-0.255
-0.255
-0.25
-0.26
-0.265
-0.28
-0.275
-0.28
-0.275
-0.27
-0.27
-0.265
-0.26
-0.26
-0.255
-0.27
-0.275
-0.285
-0.29
-0.29
-0.28
-0.275
-0.27
-0.265
-0.265
-0.265
-0.255
-0.275
-0.275
-0.28
-0.28
-0.29
-0.285
-0.28
-0.27
-0.275
-0.265
-0.27
-0.265
-0.28
-0.28
-0.28
-0.28
-0.29
-0.265
-0.255
-0.235
-0.23
-0.22
-0.215
-0.21
-0.225
-0.225
-0.23
-0.22
-0.215
-0.19
-0.19
-0.185
-0.18
-0.2
-0.205
-0.215
-0.22
-0.245
-0.245
-0.255
-0.265
-0.255
-0.26
-0.26
-0.25
-0.25
-0.25
-0.27
-0.285
-0.29
-0.31
-0.315
-0.32
-0.32
-0.305
-0.31
-0.295
-0.3
-0.295
-0.29
-0.295
-0.305
-0.3
-0.31
-0.305
-0.31
-0.3
-0.3
-0.29
-0.31
-0.325
-0.335
-0.315
-0.28
-0.2
-0.095
0.04
0.21
0.41
0.6
0.775
0.865
0.855
0.705
0.465
0.175
-0.08
-0.275
-0.365
-0.37
-0.31
-0.24
-0.19
-0.175
-0.17
-0.185
-0.21
-0.225
-0.245
-0.265
-0.27
-0.27
-0.26
-0.26
-0.26
-0.255
-0.255
-0.265
-0.28
-0.27
-0.285
-0.285
-0.29
-0.28
-0.28
-0.265
-0.26
-0.25
-0.25
-0.25
-0.255
-0.26
-0.27
-0.275
-0.27
-0.265
-0.26
-0.255
-0.25
-0.245
-0.24
-0.235
-0.245
-0.255
-0.245
-0.25
-0.26
-0.255
-0.24
-0.23
-0.225
-0.215
-0.225
-0.21
-0.225
-0.22
-0.22
-0.235
-0.24
-0.225
-0.235
-0.21
-0.2
-0.2
-0.205
-0.2
-0.21
-0.215
-0.215
-0.23
-0.225
-0.22
-0.22
-0.21
-0.195
-0.2
-0.19
-0.19
-0.195
-0.21
-0.21
-0.215
-0.22
-0.215
-0.205
-0.195
-0.185
-0.185
-0.18
-0.175
-0.18
-0.18
-0.18
-0.175
-0.18
-0.175
-0.155
-0.15
-0.13
-0.12
-0.12
-0.115
-0.115
-0.13
-0.14
-0.145
-0.145
-0.15
-0.145
-0.145
-0.14
-0.145
-0.145
-0.16
-0.17
-0.185
-0.21
-0.215
-0.225
-0.225
-0.22
-0.225
-0.225
-0.225
-0.215
-0.235
-0.245
-0.245
-0.255
-0.26
-0.275
-0.26
-0.255
-0.25
-0.245
-0.25
-0.24
-0.245
-0.25
-0.26
-0.275
-0.275
-0.275
-0.275
-0.275
-0.27
-0.26
-0.26
-0.255
-0.26
-0.27
-0.27
-0.275
-0.275
-0.29
-0.285
-0.285
-0.29
-0.28
-0.275
-0.27
-0.28
-0.275
-0.285
-0.29
-0.29
-0.29
-0.305
-0.295
-0.285
-0.285
-0.28
-0.28
-0.28
-0.28
-0.29
-0.29
-0.3
-0.305
-0.295
-0.295
-0.28
-0.28
-0.27
-0.275
-0.27
-0.285
-0.285
-0.295
-0.295
-0.295
-0.3
-0.3
-0.29
-0.29
-0.28
-0.28
-0.285
-0.29
-0.285
-0.3
-0.3
-0.29
-0.295
-0.265
-0.265
-0.245
-0.235
-0.23
-0.23
-0.235
-0.245
-0.255
-0.235
-0.225
-0.205
-0.19
-0.175
-0.185
-0.185
-0.21
-0.21
-0.225
-0.235
-0.25
-0.255
-0.26
-0.26
-0.255
-0.245
-0.24
-0.245
-0.265
-0.265
-0.28
-0.295
-0.305
-0.31
-0.305
-0.305
-0.295
-0.295
-0.285
-0.28
-0.28
-0.29
-0.285
-0.285
-0.285
-0.285
-0.29
-0.3
-0.315
-0.33
-0.335
-0.315
-0.25
-0.165
-0.035
0.11
0.29
0.505
0.705
0.875
0.965
0.87
0.65
0.345
0.01
-0.255
-0.4
-0.44
-0.39
-0.29
-0.24
-0.195
-0.19
-0.19
-0.21
-0.215
-0.23
-0.24
-0.25
-0.265
-0.275
-0.27
-0.275
-0.27
-0.275
-0.265
-0.26
-0.275
-0.27
-0.245
-0.25
-0.25
-0.27
-0.275
-0.275
-0.285
-0.28
-0.255
-0.25
-0.25
-0.245
-0.245
-0.25
-0.26
-0.265
-0.265
-0.26
-0.26
-0.25
-0.24
-0.235
-0.22
-0.22
-0.225
-0.22
-0.235
-0.245
-0.245
-0.245
-0.23
-0.235
-0.22
-0.215
-0.22
-0.215
-0.21
-0.22
-0.205
-0.22
-0.225
-0.225
-0.235
-0.225
-0.225
-0.225
-0.21
-0.205
-0.205
-0.21
-0.215
-0.22
-0.215
-0.215
-0.21
-0.215
-0.21
-0.195
-0.195
-0.195
-0.19
-0.19
-0.2
-0.19
-0.195
-0.2
-0.19
-0.175
-0.17
-0.155
-0.15
-0.13
-0.115
-0.105
-0.11
-0.12
-0.12
-0.13
-0.125
-0.115
-0.115
-0.115
-0.11
-0.105
-0.12
-0.135
-0.15
-0.165
-0.18
-0.185
-0.19
-0.175
-0.185
-0.185
-0.18
-0.18
-0.195
-0.205
-0.215
-0.24
-0.245
-0.24
-0.235
-0.24
-0.235
-0.225
-0.22
-0.215
-0.22
-0.23
-0.23
-0.245
