Lead II
-0.125
-0.095
-0.055
-0.04
-0.015
0.035
0.075
0.115
0.14
0.17
0.205
0.235
0.255
0.275
0.3
0.32
0.35
0.385
0.415
0.405
0.4
0.41
0.41
0.41
0.425
0.43
0.435
0.425
0.415
0.405
0.39
0.365
0.35
0.33
0.315
0.285
0.25
0.215
0.2
0.165
0.15
0.13
0.095
0.05
0.02
-0.01
-0.04
-0.065
-0.085
-0.095
-0.105
-0.12
-0.14
-0.15
-0.17
-0.165
-0.165
-0.17
-0.165
-0.18
-0.185
-0.18
-0.17
-0.155
-0.14
-0.135
-0.135
-0.13
-0.14
-0.13
-0.125
-0.09
-0.06
-0.02
0.015
0.055
0.08
0.085
0.1
0.1
0.1
0.12
0.12
0.11
0.085
0.075
0.03
-0.02
-0.07
-0.12
-0.16
-0.2
-0.255
-0.27
-0.295
-0.295
-0.3
-0.285
-0.285
-0.27
-0.28
-0.31
-0.315
-0.325
-0.335
-0.325
-0.315
-0.305
-0.3
-0.305
-0.305
-0.305
-0.305
-0.295
-0.31
-0.315
-0.34
-0.37
-0.415
-0.41
-0.335
-0.17
0.06
0.34
0.69
1.06
1.47
1.84
2.13
2.29
2.285
2.065
1.755
1.37
0.955
0.54
0.15
-0.195
-0.52
-0.795
-1.005
-1.11
-1.105
-1.02
-0.9
-0.765
-0.65
-0.59
-0.57
-0.605
-0.635
-0.69
-0.73
-0.725
-0.73
-0.735
-0.72
-0.71
-0.72
-0.715
-0.75
-0.75
-0.75
-0.765
-0.76
-0.76
-0.775
-0.78
-0.795
-0.78
-0.77
-0.76
-0.74
-0.73
-0.725
-0.73
-0.735
-0.745
-0.725
-0.72
-0.705
-0.685
-0.655
-0.635
-0.625
-0.62
-0.6
-0.565
-0.54
-0.51
-0.485
-0.465
-0.435
-0.415
-0.38
-0.345
-0.3
-0.26
-0.23
-0.2
-0.195
-0.165
-0.145
-0.12
-0.075
-0.025
0.01
0.04
0.085
0.1
0.135
0.16
0.185
0.205
0.225
0.245
0.25
0.26
0.295
0.29
0.32
0.33
0.33
0.33
0.325
0.305
0.28
0.275
0.27
0.265
0.25
0.235
0.215
0.175
0.15
0.125
0.095
0.08
0.06
0.03
-0.005
-0.03
-0.07
-0.095
-0.105
-0.12
-0.135
-0.16
-0.185
-0.22
-0.245
-0.275
-0.295
-0.285
-0.29
-0.275
-0.275
-0.275
-0.275
-0.29
-0.305
-0.305
-0.295
-0.285
-0.28
-0.275
-0.265
-0.275
-0.27
-0.255
-0.225
-0.19
-0.14
-0.105
-0.08
-0.07
-0.055
-0.035
0.0
0.035
0.05
0.06
0.06
0.03
0.0
-0.025
-0.055
-0.105
-0.145
-0.21
-0.25
-0.31
-0.345
-0.385
-0.395
-0.4
-0.395
-0.395
-0.395
-0.405
-0.41
-0.41
-0.4
-0.39
-0.375
-0.365
-0.35
-0.36
-0.385
-0.39
-0.4
-0.41
-0.4
-0.385
-0.38
-0.38
-0.395
-0.425
-0.45
-0.465
-0.43
-0.325
-0.175
0.05
0.33
0.645
0.99
1.35
1.7
1.995
2.2
2.275
2.18
1.96
1.64
1.24
0.81
0.395
0.005
-0.345
-0.64
-0.895
-1.04
-1.065
-1.005
-0.885
-0.75
-0.645
-0.59
-0.585
-0.635
-0.665
-0.7
-0.72
-0.725
-0.715
-0.715
-0.72
-0.73
-0.74
-0.76
-0.77
-0.775
-0.77
-0.755
-0.755
-0.76
-0.795
-0.8
-0.81
-0.815
-0.815
-0.805
-0.8
-0.785
-0.78
-0.785
-0.775
-0.79
-0.775
-0.76
-0.745
-0.735
-0.735
-0.73
-0.705
-0.685
-0.665
-0.615
-0.585
-0.555
-0.54
-0.52
-0.495
-0.48
-0.445
-0.41
-0.39
-0.345
-0.3
-0.255
-0.22
-0.185
-0.14
-0.095
-0.05
-0.025
0.015
0.04
0.065
0.09
0.145
0.19
0.225
0.275
0.295
0.305
0.315
0.305
0.325
0.325
0.365
0.37
0.395
0.4
0.41
0.395
0.39
0.38
0.38
0.37
0.35
0.33
0.32
0.3
0.29
0.275
0.27
0.265
0.24
0.22
0.185
0.15
0.115
0.085
0.075
0.07
0.055
0.045
0.02
-0.01
-0.035
-0.055
-0.075
-0.1
-0.105
-0.125
-0.12
-0.14
-0.15
-0.17
-0.18
-0.185
-0.175
-0.2
-0.19
-0.2
-0.215
-0.22
-0.215
-0.2
-0.17
-0.14
-0.11
-0.065
-0.045
-0.04
-0.03
-0.03
-0.02
-0.005
0.03
0.06
0.075
0.095
0.085
0.065
0.03
-0.005
-0.05
-0.115
-0.17
-0.23
-0.28
-0.325
-0.35
-0.345
-0.345
-0.335
-0.32
-0.33
-0.355
-0.355
-0.385
-0.385
-0.39
-0.375
-0.37
-0.35
-0.35
-0.35
-0.355
-0.36
-0.355
-0.345
-0.33
-0.335
-0.345
-0.355
-0.375
-0.39
-0.395
-0.405
-0.385
-0.32
-0.21
-0.02
0.225
0.535
0.9
1.29
1.675
2.01
2.22
2.25
2.125
1.87
1.525
1.145
0.75
0.395
0.08
-0.2
-0.455
-0.665
-0.815
-0.885
-0.86
-0.745
-0.625
-0.535
-0.495
-0.51
-0.545
-0.575
-0.605
-0.615
-0.62
-0.61
-0.615
-0.63
-0.635
-0.65
-0.65
-0.665
-0.655
-0.66
-0.645
-0.64
-0.65
-0.665
-0.68
-0.68
-0.67
-0.65
-0.645
-0.625
-0.625
-0.61
-0.61
-0.59
-0.555
-0.545
-0.525
-0.515
-0.51
-0.5
-0.485
-0.46
-0.44
-0.4
-0.36
-0.305
-0.275
-0.235
-0.22
-0.185
-0.155
-0.125
-0.095
-0.055
-0.025
0.015
0.055
0.105
0.155
0.205
0.25
0.285
0.32
0.35
0.375
0.385
0.43
0.46
0.48
0.505
0.525
0.535
0.54
0.555
0.56
0.565
0.565
0.555
0.56
0.56
0.55
0.545
0.535
0.525
0.515
0.475
0.46
0.43
0.39
0.375
0.38
0.38
0.37
0.35
0.32
0.275
0.23
0.205
0.185
0.16
0.135
0.11
0.085
0.05
0.005
-0.015
-0.035
-0.07
-0.095
-0.13
-0.16
-0.195
-0.205
-0.21
-0.215
-0.23
-0.205
-0.205
-0.21
-0.21
-0.22
-0.235
-0.24
-0.24
-0.225
-0.19
-0.165
-0.13
-0.1
-0.065
-0.04
-0.01
0.015
0.015
0.04
0.05
0.07
0.075
0.095
0.11
0.095
0.065
0.015
-0.045
-0.105
-0.155
-0.2
-0.235
-0.245
-0.275
-0.285
-0.305
-0.29
-0.285
-0.275
-0.25
-0.26
-0.27
-0.28
-0.295
-0.305
-0.3
-0.31
-0.29
-0.28
-0.25
-0.245
-0.245
-0.255
-0.26
-0.275
-0.295
-0.315
-0.335
-0.33
-0.3
-0.235
-0.105
0.095
0.355
0.645
1.015
1.39
1.745
2.02
2.14
2.06
1.8
1.43
1.0
0.54
0.095
-0.29
-0.63
-0.88
-1.05
-1.09
-1.07
-0.96
-0.845
-0.735
-0.655
-0.595
-0.575
-0.575
-0.595
-0.62
-0.665
-0.68
-0.68
-0.685
-0.665
-0.65
-0.635
-0.635
-0.65
-0.68
-0.71
-0.725
-0.725
-0.735
-0.715
-0.705
-0.705
-0.7
-0.695
-0.705
-0.69
-0.675
-0.665
-0.665
-0.66
-0.67
-0.64
-0.62
-0.57
-0.545
-0.525
-0.53
-0.52
-0.52
-0.5
-0.48
-0.45
-0.415
-0.38
-0.345
-0.325
-0.29
-0.25
-0.21
-0.18
-0.145
-0.1
-0.075
-0.06
-0.04
-0.01
0.03
0.06
0.1
0.145
0.18
0.205
0.23
0.255
0.285
0.29
0.32
0.335
0.34
0.355
0.365
0.38
0.395
0.405
0.41
0.4
0.39
0.35
0.33
0.305
0.29
0.28
0.28
0.27
0.26
0.23
0.2
0.17
0.15
0.125
0.105
0.07
0.055
0.025
-0.01
-0.025
-0.035
-0.06
-0.075
-0.085
-0.125
-0.15
-0.185
-0.22
-0.24
-0.245
-0.245
-0.24
-0.245
-0.26
-0.27
-0.295
-0.3
-0.305
-0.325
-0.3
-0.285
-0.285
-0.28
-0.28
-0.28
-0.28
-0.265
-0.245
-0.22
-0.195
-0.175
-0.165
-0.135
-0.1
-0.075
-0.03
-0.005
0.01
0.025
0.01
0.005
0.0
-0.03
-0.04
-0.075
-0.11
-0.185
-0.25
-0.295
-0.34
-0.36
-0.39
-0.395
-0.405
-0.415
-0.42
-0.435
-0.425
-0.42
-0.415
-0.395
-0.395
-0.395
-0.4
-0.42
-0.43
-0.435
-0.435
-0.42
-0.415
-0.39
-0.4
-0.41
-0.435
-0.46
-0.475
-0.495
-0.5
-0.455
-0.365
-0.2
0.05
0.355
0.74
1.15
1.575
1.95
2.2
2.28
2.15
1.87
1.5
1.075
0.635
0.21
-0.18
-0.54
-0.87
-1.095
-1.205
-1.195
-1.1
-0.945
-0.815
-0.72
-0.695
-0.7
-0.72
-0.755
-0.77
-0.805
-0.805
-0.81
-0.83
-0.84
-0.85
-0.855
-0.845
-0.825
-0.835
-0.835
-0.85
-0.87
-0.87
-0.875
-0.88
-0.88
-0.875
-0.88
-0.885
-0.9
-0.905
-0.895
-0.875
-0.865
-0.855
-0.85
-0.84
-0.83
-0.805
-0.79
-0.76
-0.735
-0.71
-0.685
-0.675
-0.67
-0.66
-0.625
-0.575
-0.535
-0.51
-0.475
-0.455
-0.415
-0.37
-0.325
-0.285
-0.245
-0.22
-0.205
-0.175
-0.15
-0.12
-0.07
-0.02
0.035
0.055
0.085
0.115
0.145
0.165
0.175
0.2
0.21
0.21
0.2
0.205
0.21
0.21
0.22
0.23
0.21
0.2
0.175
0.145
0.125
0.11
0.085
0.08
0.055
0.035
-0.01
-0.015
-0.05
-0.075
-0.1
-0.11
-0.15
-0.165
-0.195
-0.22
-0.235
-0.255
-0.26
-0.28
-0.285
-0.31
-0.34
-0.355
-0.375
-0.38
-0.37
-0.37
-0.36
-0.365
-0.37
-0.375
-0.385
-0.365
-0.355
-0.33
-0.31
-0.295
-0.265
-0.245
-0.205
-0.175
-0.135
-0.095
-0.08
-0.08
-0.075
-0.08
-0.1
-0.11
-0.145
-0.18
-0.235
-0.285
-0.335
-0.39
-0.435
-0.47
-0.475
-0.49
-0.49
-0.515
-0.515
-0.52
-0.515
-0.505
-0.505
-0.495
-0.495
-0.51
-0.51
-0.515
-0.51
-0.505
-0.495
-0.505
-0.51
-0.515
-0.52
-0.53
-0.545
-0.555
-0.53
-0.465
-0.33
-0.105
0.2
0.575
0.995
1.43
1.825
2.115
2.26
2.225
2.015
1.69
1.3
0.85
0.42
0.005
-0.375
-0.715
-0.955
-1.08
-1.085
-1.0
-0.875
-0.76
-0.695
-0.7
-0.725
-0.745
-0.77
-0.79
-0.8
-0.8
-0.815
-0.825
-0.845
-0.87
-0.875
-0.87
-0.885
-0.89
-0.905
-0.915
-0.92
-0.92
-0.91
-0.9
-0.905
-0.92
-0.935
-0.945
-0.95
-0.945
-0.94
-0.92
-0.895
-0.9
-0.89
-0.9
-0.9
-0.895
-0.89
-0.87
-0.83
-0.805
-0.795
-0.765
-0.755
-0.72
-0.695
-0.67
-0.635
-0.61
-0.59
-0.57
-0.535
-0.485
-0.435
-0.4
-0.335
-0.285
-0.255
-0.215
-0.2
-0.17
-0.13
-0.09
-0.045
0.0
0.035
0.065
0.09
0.11
0.125
0.15
0.175
0.205
0.215
0.22
0.23
0.24
0.24
0.255
0.265
0.275
0.265
0.245
0.23
0.205
0.175
0.175
0.17
0.165
0.155
0.14
0.115
0.095
0.085
0.06
0.035
0.01
-0.005
-0.03
-0.055
-0.09
-0.095
-0.12
-0.12
-0.135
-0.15
-0.2
-0.24
-0.275
-0.3
-0.315
-0.32
-0.31
-0.305
-0.29
-0.29
-0.3
-0.32
-0.32
-0.33
-0.33
-0.32
-0.305
-0.305
-0.285
-0.25
-0.22
-0.185
-0.145
-0.13
-0.11
-0.105
-0.1
-0.095
-0.095
-0.08
-0.07
-0.055
-0.05
-0.07
-0.12
-0.19
-0.255
-0.315
-0.36
-0.395
-0.425
-0.445
-0.45
-0.465
-0.46
-0.455
-0.455
-0.445
-0.445
-0.445
-0.46
-0.475
-0.47
-0.455
-0.465
-0.445
-0.435
-0.43
-0.44
-0.44
-0.45
-0.46
-0.485
-0.495
-0.505
-0.51
-0.51
-0.51
-0.43
-0.3
-0.06
0.25
0.625
1.035
1.455
1.85
2.12
2.22
2.135
1.91
1.615
1.255
0.88
0.485
0.095
-0.275
-0.605
-0.85
-0.96
-0.945
-0.86
-0.73
-0.635
-0.585
-0.57
-0.6
-0.645
-0.69
-0.72
-0.745
-0.775
-0.765
-0.75
-0.755
-0.745
-0.745
-0.76
-0.76
-0.775
-0.8
-0.795
-0.795
-0.78
-0.77
-0.775
-0.78
-0.785
-0.775
-0.77
-0.745
-0.735
-0.72
-0.725
-0.71
-0.69
-0.67
-0.63
-0.59
-0.555
-0.54
-0.515
-0.485
-0.45
-0.405
-0.345
-0.29
-0.235
-0.19
-0.155
-0.1
-0.055
-0.005
0.035
0.085
0.115
0.15
0.175
0.195
0.23
0.285
0.335
0.375
0.405
0.42
0.44
0.445
0.465
0.48
0.5
0.51
0.51
0.51
0.525
0.53
0.53
0.54
0.545
0.525
0.51
0.465
0.44
0.425
0.405
0.405
0.38
0.38
0.355
0.33
0.305
0.28
0.26
0.225
0.195
0.185
0.145
0.125
0.09
0.075
0.065
0.05
0.035
0.005
-0.035
-0.095
-0.14
-0.165
-0.2
-0.195
-0.2
-0.2
-0.215
-0.225
-0.235
-0.255
-0.26
-0.25
-0.24
-0.225
-0.235
-0.25
-0.255
-0.24
-0.23
-0.185
-0.145
-0.1
-0.065
-0.045
-0.02
0.015
0.03
0.06
0.08
0.105
0.115
0.105
0.08
0.075
0.05
0.005
-0.05
-0.12
-0.165
-0.21
-0.255
-0.285
-0.285
-0.275
-0.265
-0.26
-0.265
-0.28
-0.29
-0.305
-0.3
-0.285
-0.285
-0.275
-0.27
-0.27
-0.275
-0.28
-0.28
-0.275
-0.275
-0.275
-0.275
-0.3
-0.315
-0.335
-0.33
-0.29
-0.21
-0.08
0.12
0.35
0.63
0.95
1.335
1.72
2.03
2.19
2.15
1.9
1.53
1.085
0.61
0.18
-0.18
-0.49
-0.745
-0.95
-1.065
-1.085
-1.005
-0.885
-0.745
-0.63
-0.57
-0.55
-0.565
-0.595
-0.64
-0.64
-0.645
-0.64
-0.625
-0.615
-0.63
-0.65
-0.665
-0.68
-0.68
-0.69
-0.715
-0.705
-0.71
-0.715
-0.715
-0.71
-0.695
-0.67
-0.66
-0.665
-0.665
-0.67
-0.675
-0.66
-0.65
-0.625
-0.595
-0.575
-0.55
-0.54
-0.545
-0.53
-0.515
-0.505
-0.485
-0.465
-0.44
-0.415
-0.39
-0.365
-0.34
-0.31
-0.265
-0.23
-0.2
-0.17
-0.135
-0.105
-0.08
-0.035
0.01
0.055
0.075
0.095
0.1
0.125
0.145
0.18
0.21
0.24
0.28
0.3
0.33
0.35
0.37
0.375
0.39
0.395
0.39
0.395
0.38
0.375
0.37
0.37
0.365
0.355
0.345
0.315
0.295
0.26
0.235
0.205
0.195
0.175
0.17
0.155
0.14
0.12
0.075
0.045
0.015
-0.03
-0.05
-0.085
-0.11
-0.14
-0.155
-0.15
-0.17
-0.17
-0.18
-0.2
-0.235
-0.27
-0.28
-0.305
-0.325
-0.325
-0.335
-0.33
-0.33
-0.325
-0.33
-0.325
-0.305
-0.3
-0.29
-0.3
-0.305
-0.315
-0.315
-0.3
-0.26
-0.24
-0.21
-0.165
-0.125
-0.11
-0.085
-0.08
-0.06
-0.03
-0.01
0.005
0.01
-0.005
-0.02
-0.03
-0.06
-0.11
-0.165
-0.225
-0.28
-0.34
-0.385
-0.4
-0.405
-0.385
-0.375
-0.38
-0.395
-0.4
-0.415
-0.415
-0.43
-0.42
-0.4
-0.4
-0.4
-0.39
-0.39
-0.39
-0.4
-0.385
-0.4
-0.41
-0.44
-0.47
-0.5
-0.51
-0.465
-0.355
-0.17
0.075
0.37
0.695
1.065
1.435
1.78
2.04
2.115
1.995
1.695
1.265
0.76
0.245
-0.215
-0.625
-0.97
-1.21
-1.32
-1.315
-1.22
-1.075
-0.915
-0.785
-0.715
-0.695
-0.725
-0.765
-0.805
-0.845
-0.86
-0.86
-0.845
-0.84
-0.845
-0.86
-0.855
-0.87
-0.865
-0.875
-0.885
-0.9
-0.93
-0.93
-0.935
-0.91
-0.9
-0.885
-0.895
-0.89
-0.885
-0.895
-0.895
-0.89
-0.87
-0.865
-0.85
-0.84
-0.825
-0.805
-0.775
-0.75
-0.725
-0.715
-0.7
-0.685
-0.68
-0.65
-0.615
-0.58
-0.54
-0.495
-0.475
-0.455
-0.425
-0.405
-0.365
-0.34
-0.3
-0.27
-0.24
-0.215
-0.185
-0.15
-0.115
-0.085
-0.035
-0.005
0.02
0.035
0.04
0.055
0.085
0.1
0.125
0.13
0.15
0.14
0.12
0.115
0.1
0.105
0.1
0.085
0.07
0.055
0.025
0.01
-0.005
-0.03
-0.055
-0.085
-0.115
-0.155
-0.185
-0.215
-0.23
-0.25
-0.26
-0.27
-0.295
-0.32
-0.345
-0.375
-0.39
-0.395
-0.415
-0.42
-0.435
-0.45
-0.46
-0.45
-0.445
-0.44
-0.45
-0.43
-0.45
-0.47
-0.45
-0.455
-0.425
-0.38
-0.335
-0.295
-0.27
-0.245
-0.23
-0.22
-0.195
-0.17
-0.15
-0.13
-0.13
-0.12
-0.135
-0.145
-0.16
-0.2
-0.255
-0.315
-0.385
-0.45
-0.505
-0.535
-0.545
-0.555
-0.53
-0.525
-0.52
-0.535
-0.555
-0.57
-0.575
-0.565
-0.56
-0.55
-0.555
-0.555
-0.55
-0.545
-0.525
-0.525
-0.52
-0.525
-0.535
-0.55
-0.575
-0.585
-0.6
-0.61
-0.61
-0.57
-0.505
-0.36
-0.145
0.115
0.46
0.835
1.235
1.645
1.945
2.09
2.045
1.85
1.555
1.205
0.835
0.465
0.16
-0.13
-0.435
-0.74
-0.995
-1.145
-1.17
-1.095
-0.965
-0.835
-0.74
-0.71
-0.725
-0.77
-0.82
-0.85
-0.85
-0.85
-0.845
-0.835
-0.845
-0.85
-0.865
-0.88
-0.885
-0.895
-0.9
-0.925
-0.93
-0.935
-0.95
-0.945
-0.94
-0.93
-0.94
-0.945
-0.965
-0.975
-0.99
-0.975
-0.96
-0.95
-0.935
-0.93
-0.915
-0.91
-0.91
-0.905
-0.89
-0.87
-0.845
-0.83
-0.805
-0.79
-0.78
-0.745
-0.705
-0.665
-0.635
-0.6
-0.585
-0.575
-0.55
-0.53
-0.495
-0.45
-0.385
-0.32
-0.285
-0.245
-0.22
-0.19
-0.16
-0.13
-0.095
-0.055
-0.02
0.01
0.045
0.07
0.1
0.125
0.135
0.15
0.17
0.18
0.195
0.18
0.185
0.18
0.2
0.205
0.215
0.215
0.2
0.165
0.145
0.125
0.105
0.075
0.09
0.095
0.085
0.07
0.035
0.015
-0.015
-0.03
-0.065
-0.09
-0.115
-0.14
-0.165
-0.185
-0.22
-0.235
-0.245
-0.25
-0.27
-0.295
-0.315
-0.35
-0.37
-0.37
-0.375
-0.365
-0.355
-0.345
-0.355
-0.36
-0.375
-0.385
-0.38
-0.36
-0.335
-0.32
-0.285
-0.255
-0.235
-0.21
-0.18
-0.155
-0.14
-0.13
-0.13
-0.14
-0.155
-0.155
-0.185
-0.225
-0.26
-0.325
-0.38
-0.43
-0.475
-0.51
-0.52
-0.53
-0.535
-0.55
-0.555
-0.54
-0.535
-0.53
-0.52
-0.505
-0.505
-0.53
-0.54
-0.54
-0.545
-0.545
-0.54
-0.52
-0.515
-0.52
-0.52
-0.535
-0.55
-0.57
-0.59
-0.585
-0.54
-0.46
-0.3
-0.08
0.215
0.58
1.005
1.43
1.82
2.07
2.13
2.015
1.73
1.37
0.97
0.585
0.225
-0.115
-0.4
-0.645
-0.865
-0.99
-1.035
-0.99
-0.875
-0.765
-0.68
-0.645
-0.635
-0.66
-0.69
-0.715
-0.745
-0.76
-0.77
-0.78
-0.79
-0.785
-0.775
-0.775
-0.765
-0.74
-0.74
-0.755
-0.795
-0.79
-0.8
-0.8
-0.805
-0.795
-0.785
-0.77
-0.775
-0.74
-0.745
-0.73
-0.725
-0.71
-0.7
-0.695
-0.695
-0.695
-0.67
-0.65
-0.61
-0.58
-0.53
-0.51
-0.49
-0.475
-0.46
-0.425
-0.395
-0.345
-0.3
-0.25
-0.22
-0.18
-0.14
-0.105
-0.06
-0.02
0.02
0.05
0.08
0.09
0.115
0.145
0.185
0.235
0.285
0.33
0.35
0.36
0.36
0.36
0.365
0.38
0.425
0.44
0.455
0.46
0.44
0.42
0.405
0.4
0.39
0.39
0.39
0.37
0.355
0.32
0.3
0.305
0.295
0.29
0.265
0.265
0.22
0.18
0.14
0.105
0.095
0.09
0.08
0.06
0.035
0.015
-0.02
-0.05
-0.085
-0.1
-0.145
-0.16
-0.195
-0.215
-0.255
-0.27
-0.285
-0.29
-0.305
-0.32
-0.33
-0.365
-0.385
-0.4
-0.39
-0.365
-0.35
-0.305
-0.305
-0.305
-0.315
-0.32
-0.315
-0.28
-0.23
-0.195
-0.155
-0.13
-0.095
-0.065
-0.04
-0.035
-0.015
0.015
0.03
0.035
0.025
0.005
-0.03
-0.07
-0.11
-0.14
-0.2
-0.24
-0.28
-0.335
-0.355
-0.38
-0.39
-0.375
-0.375
-0.38
-0.38
-0.36
-0.365
-0.36
-0.335
-0.34
-0.325
-0.33
-0.34
-0.37
-0.38
-0.385
-0.39
-0.365
-0.34
-0.33
-0.325
-0.35
-0.385
-0.42
-0.425
-0.39
-0.285
-0.105
0.13
0.405
0.705
1.025
1.38
1.705
1.96
2.095
2.09
1.92
1.605
1.215
0.78
0.345
-0.055
-0.41
-0.72
-0.96
-1.1
-1.15
-1.1
-0.985
-0.835
-0.705
-0.62
-0.58
-0.595
-0.625
-0.665
-0.695
-0.72
-0.73
-0.72
-0.71
-0.71
-0.715
-0.735
-0.73
-0.74
-0.735
-0.73
-0.73
-0.745
-0.77
-0.775
-0.775
-0.77
-0.755
-0.73
-0.715
-0.695
-0.695
-0.695
-0.7
-0.69
-0.685
-0.66
-0.655
-0.645
-0.625
-0.62
-0.615
-0.585
-0.57
-0.53
-0.515
-0.495
-0.5
-0.49
-0.48
-0.445
-0.425
-0.365
-0.315
-0.275
-0.225
-0.225
-0.2
-0.195
-0.175
-0.13
-0.08
-0.035
0.005
0.03
0.06
0.08
0.11
0.135
0.175
0.21
0.245
0.26
0.26
0.27
0.285
0.315
0.345
0.35
0.355
0.33
0.315
0.3
0.295
0.27
0.275
0.26
0.245
0.225
0.205
0.17
0.165
0.15
0.12
0.1
0.06
0.03
0.0
-0.025
-0.04
-0.05
-0.07
-0.095
-0.12
-0.15
-0.185
-0.22
-0.255
-0.255
-0.275
-0.285
-0.295
-0.315
-0.325
-0.345
-0.355
-0.345
-0.355
-0.355
-0.355
-0.355
-0.375
-0.36
-0.365
-0.375
-0.365
-0.365
-0.35
-0.33
-0.295
-0.265
-0.23
-0.19
-0.16
-0.155
-0.13
-0.12
-0.115
-0.09
-0.07
-0.075
-0.065
-0.075
-0.115
-0.175
-0.225
-0.28
-0.32
-0.35
-0.385
-0.43
-0.465
-0.48
-0.51
-0.515
-0.52
-0.51
-0.51
-0.505
-0.505
-0.51
-0.52
-0.525
-0.52
-0.505
-0.505
-0.51
-0.535
-0.545
-0.565
-0.57
-0.565
-0.555
-0.55
-0.575
-0.605
-0.62
-0.605
-0.55
-0.42
-0.2
0.09
0.43
0.83
1.25
1.655
1.95
2.075
1.995
1.73
1.34
0.86
0.37
-0.105
-0.51
-0.865
-1.14
-1.295
-1.35
-1.305
-1.2
-1.065
-0.965
-0.885
-0.845
-0.84
-0.855
-0.895
-0.935
-0.945
-0.955
-0.95
-0.945
-0.935
-0.96
-0.975
-1.005
-1.015
-1.035
-1.025
-1.015
-1.015
-1.005
-1.005
-1.015
-1.04
-1.05
-1.06
-1.06
-1.05
-1.04
-1.035
-1.035
-1.03
-1.02
-1.005
-0.98
-0.965
-0.96
-0.955
-0.955
-0.94
-0.925
-0.895
-0.855
-0.825
-0.81
-0.785
-0.76
-0.75
-0.73
-0.695
-0.655
-0.615
-0.585
-0.545
-0.52
-0.48
-0.44
-0.395
-0.355
-0.315
-0.29
-0.265
-0.235
-0.215
-0.185
-0.155
-0.12
-0.08
-0.05
-0.025
-0.01
-0.01
0.005
0.02
0.02
0.025
0.045
0.035
0.035
0.04
0.035
0.02
0.015
-0.01
-0.01
-0.03
-0.055
-0.08
-0.105
-0.13
-0.16
-0.155
-0.17
-0.18
-0.205
-0.25
-0.28
-0.32
-0.34
-0.365
-0.385
-0.4
-0.415
-0.44
-0.45
-0.465
-0.485
-0.495
-0.495
-0.49
-0.5
-0.535
-0.535
-0.55
-0.55
-0.53
-0.525
-0.515
-0.51
-0.51
-0.5
-0.485
-0.46
-0.42
-0.39
-0.355
-0.34
-0.32
-0.32
-0.29
-0.27
-0.265
-0.26
-0.245
-0.255
-0.28
-0.325
-0.365
-0.405
-0.465
-0.495
-0.545
-0.565
-0.61
-0.64
-0.67
-0.685
-0.7
-0.685
-0.66
-0.67
-0.64
-0.645
-0.655
-0.665
-0.68
-0.675
-0.685
-0.67
-0.68
-0.675
-0.68
-0.68
-0.67
-0.665
-0.65
-0.655
-0.68
-0.705
-0.74
-0.755
-0.75
-0.685
-0.56
-0.365
-0.08
0.265
0.685
1.12
1.535
1.88
2.07
2.08
1.925
1.655
1.325
0.955
0.585
0.22
-0.115
-0.455
-0.77
-1.025
-1.16
-1.18
-1.125
-0.99
-0.88
-0.8
-0.76
-0.775
-0.815
-0.875
-0.91
-0.935
-0.945
-0.95
-0.945
-0.945
-0.94
-0.945
-0.965
-0.99
-1.0
-1.0
-1.0
-1.015
-1.01
-1.025
-1.035
-1.065
-1.08
-1.09
-1.08
-1.07
-1.055
-1.045
-1.045
-1.08
-1.08
-1.085
-1.075
-1.06
-1.04
-1.02
-1.005
-0.995
-0.98
-0.97
-0.95
-0.935
-0.905
-0.875
-0.855
-0.835
-0.8
-0.775
-0.735
-0.69
-0.635
-0.59
-0.565
-0.54
-0.505
-0.47
-0.43
-0.38
-0.315
-0.285
-0.25
-0.215
-0.19
-0.155
-0.13
-0.095
-0.065
-0.02
-0.005
0.01
0.03
0.05
0.07
0.08
0.105
0.1
0.08
0.07
0.06
0.045
0.045
0.055
0.05
0.035
0.025
0.02
0.0
-0.025
-0.055
-0.065
-0.085
-0.12
-0.145
-0.17
-0.19
-0.21
-0.22
-0.24
-0.245
-0.275
-0.32
-0.355
-0.4
-0.415
-0.44
-0.44
-0.45
-0.445
-0.445
-0.455
-0.445
-0.455
-0.47
-0.47
-0.475
-0.485
-0.48
-0.47
-0.435
-0.42
-0.38
-0.355
-0.31
-0.255
-0.235
-0.22
-0.215
-0.205
-0.18
-0.14
-0.125
-0.105
-0.105
-0.12
-0.14
-0.185
-0.24
-0.28
-0.345
-0.38
-0.425
-0.455
-0.475
-0.475
-0.45
-0.43
-0.41
-0.4
-0.415
-0.435
-0.45
-0.46
-0.455
-0.43
-0.405
-0.39
-0.385
-0.385
-0.4
-0.405
-0.4
-0.4
-0.4
-0.4
-0.405
-0.41
-0.41
-0.415
-0.37
-0.285
-0.115
0.12
0.43
0.77
1.165
1.575
1.915
2.115
2.105
1.89
1.54
1.1
0.63
0.22
-0.145
-0.4
-0.625
-0.82
-0.97
-1.035
-1.01
-0.905
-0.77
-0.645
-0.57
-0.57
-0.605
-0.645
-0.68
-0.715
-0.715
-0.705
-0.69
-0.695
-0.69
-0.725
-0.72
-0.73
-0.745
-0.745
-0.76
-0.765
-0.785
-0.795
-0.795
-0.78
-0.76
-0.735
-0.725
-0.73
-0.735
-0.75
-0.76
-0.75
-0.725
-0.7
-0.685
-0.685
-0.655
-0.65
-0.635
-0.615
-0.595
-0.56
-0.525
-0.51
-0.49
-0.46
-0.445
-0.4
-0.355
-0.3
-0.26
-0.235
-0.205
-0.185
-0.165
-0.125
-0.085
-0.035
0.01
0.045
0.065
0.085
0.105
0.13
0.16
0.21
0.235
0.26
0.27
0.27
0.275
0.285
0.3
0.31
0.32
0.32
0.31
0.305
0.29
0.275
0.24
0.23
0.22
0.18
0.145
0.13
0.11
0.095
0.09
0.08
0.05
0.02
-0.025
-0.065
-0.085
-0.08
-0.105
-0.105
-0.135
-0.18
-0.22
-0.26
-0.3
-0.33
-0.345
-0.345
-0.355
-0.355
-0.37
-0.385
-0.41
-0.435
-0.445
-0.455
-0.46
-0.465
-0.48
-0.48
-0.485
-0.465
-0.46
-0.44
-0.42
-0.415
-0.415
-0.42
-0.4
-0.385
-0.35
-0.31
-0.275
-0.25
-0.24
-0.2
-0.195
-0.165
-0.14
-0.125
-0.09
-0.09
-0.105
-0.105
-0.12
-0.155
-0.21
-0.26
-0.32
-0.375
-0.425
-0.465
-0.485
-0.49
-0.475
-0.46
-0.45
-0.45
-0.46
-0.47
-0.47
-0.47
-0.455
-0.45
-0.45
-0.46
-0.47
-0.47
-0.465
-0.455
-0.44
-0.435
-0.435
-0.45
-0.465
-0.505
-0.55
-0.59
-0.595
-0.545
-0.45
-0.285
-0.05
0.26
0.59
0.96
1.36
1.725
1.985
2.12
2.065
1.855
1.515
1.105
0.655
0.2
-0.235
-0.615
-0.95
-1.18
-1.31
-1.32
-1.245
-1.13
-1.005
-0.88
-0.805
-0.76
-0.73
-0.745
-0.78
-0.82
-0.845
-0.86
-0.865
-0.865
-0.86
-0.875
-0.865
-0.875
-0.875
-0.865
-0.865
-0.87
-0.875
-0.9
-0.92
-0.92
-0.91
-0.9
-0.885
-0.86
-0.865
-0.87
-0.875
-0.87
-0.86
-0.86
-0.845
-0.83
-0.82
-0.81
-0.785
-0.75
-0.715
-0.69
-0.67
-0.665
-0.655
-0.665
-0.655
-0.64
-0.625
-0.58
-0.53
-0.505
-0.47
-0.44
-0.415
-0.36
-0.345
-0.305
-0.27
-0.245
-0.215
-0.185
-0.14
-0.12
-0.08
-0.045
-0.015
0.015
0.02
0.035
0.05
0.06
0.09
0.11
0.12
0.135
0.15
0.135
0.12
0.11
0.095
0.09
0.08
0.065
0.05
0.03
-0.005
-0.035
-0.065
-0.08
-0.09
-0.12
-0.14
-0.18
-0.225
-0.26
-0.28
-0.285
-0.295
-0.31
-0.34
-0.37
-0.4
-0.435
-0.465
-0.49
-0.505
-0.51
-0.525
-0.53
-0.55
-0.56
-0.575
-0.585
-0.585
-0.585
-0.585
-0.59
-0.6
-0.605
-0.595
-0.595
-0.58
-0.565
-0.545
-0.52
-0.505
-0.52
-0.495
-0.48
-0.45
-0.435
-0.405
-0.375
-0.36
-0.36
-0.35
-0.35
-0.35
-0.37
-0.365
-0.39
-0.425
-0.48
-0.545
-0.615
-0.66
-0.7
-0.74
-0.755
-0.785
-0.795
-0.805
-0.82
-0.83
-0.825
-0.81
-0.8
-0.795
-0.8
-0.805
-0.81
-0.82
-0.835
-0.83
-0.835
-0.825
-0.835
-0.835
-0.84
-0.85
-0.86
-0.875
-0.895
-0.91
-0.895
-0.83
-0.695
-0.48
-0.2
0.13
0.52
0.93
1.335
1.66
1.84
1.865
1.705
1.42
1.06
0.655
0.26
-0.105
-0.445
-0.77
-1.085
-1.31
-1.435
-1.435
-1.34
-1.225
-1.12
-1.05
-1.03
-1.06
-1.08
-1.105
-1.13
-1.15
-1.15
-1.16
-1.165
-1.175
-1.175
-1.18
-1.185
-1.19
-1.19
-1.205
-1.205
-1.215
-1.215
-1.22
-1.225
-1.23
-1.235
-1.245
-1.255
-1.26
-1.265
-1.26
-1.25
-1.24
-1.23
-1.235
-1.245
-1.24
-1.23
-1.22
-1.21
-1.185
-1.165
-1.155
-1.145
-1.13
-1.11
-1.085
-1.065
-1.04
-1.02
-1.005
-0.985
-0.95
-0.91
-0.86
-0.815
-0.775
-0.74
-0.71
-0.685
-0.66
-0.63
-0.585
-0.55
-0.495
-0.455
-0.43
-0.38
-0.365
-0.345
-0.31
-0.26
-0.235
-0.205
-0.2
-0.18
-0.18
-0.165
-0.15
-0.12
-0.1
-0.1
-0.11
-0.13
-0.135
-0.155
-0.17
-0.17
-0.17
-0.18
-0.185
-0.195
-0.215
-0.23
-0.255
-0.285
-0.3
-0.325
-0.325
-0.34
-0.36
-0.38
-0.405
-0.43
-0.435
-0.455
-0.465
-0.505
-0.525
-0.545
-0.565
-0.57
-0.57
-0.57
-0.55
-0.54
-0.54
-0.57
-0.585
-0.595
-0.6
-0.595
-0.57
-0.54
-0.515
-0.485
-0.465
-0.455
-0.46
-0.45
-0.425
-0.41
-0.405
-0.38
-0.39
-0.39
-0.39
-0.39
-0.41
-0.42
-0.445
-0.48
-0.54
-0.6
-0.665
-0.7
-0.725
-0.75
-0.75
-0.75
-0.72
-0.72
-0.72
-0.715
-0.73
-0.74
-0.735
-0.735
-0.725
-0.73
-0.73
-0.735
-0.74
-0.74
-0.73
-0.715
-0.705
-0.7
-0.7
-0.72
-0.74
-0.75
-0.765
-0.775
-0.77
-0.755
-0.695
-0.605
-0.43
-0.205
0.095
0.47
0.89
1.32
1.7
1.97
2.06
1.995
1.78
1.505
1.23
0.925
0.605
0.28
-0.065
-0.43
-0.765
-1.015
-1.145
-1.16
-1.08
-0.955
-0.86
-0.815
-0.83
-0.865
-0.91
-0.965
-0.975
-0.965
-0.95
-0.95
-0.95
-0.975
-0.98
-1.01
-1.02
-1.03
-1.04
-1.05
-1.055
-1.07
-1.085
-1.075
-1.075
-1.075
-1.075
-1.08
-1.09
-1.105
-1.12
-1.125
-1.11
-1.1
-1.08
-1.075
-1.065
-1.06
-1.065
-1.055
-1.045
-1.035
-1.015
-1.005
-0.97
-0.955
-0.94
-0.93
-0.885
-0.87
-0.835
-0.79
-0.77
-0.74
-0.71
-0.685
-0.635
-0.59
-0.53
-0.485
-0.45
-0.42
-0.4
-0.375
-0.33
-0.305
-0.26
-0.225
-0.185
-0.16
-0.13
-0.105
-0.085
-0.06
-0.045
-0.035
-0.02
