Lead II
-1.045
-1.07
-1.09
-1.1
-1.105
-1.105
-1.06
-1.045
-1.025
-0.99
-0.99
-0.98
-0.99
-0.985
-0.975
-0.96
-0.945
-0.93
-0.93
-0.93
-0.915
-0.92
-0.915
-0.92
-0.915
-0.895
-0.895
-0.885
-0.87
-0.855
-0.86
-0.875
-0.865
-0.87
-0.87
-0.89
-0.915
-0.94
-0.94
-0.95
-0.965
-0.98
-1.0
-1.015
-1.01
-1.035
-1.045
-1.065
-1.1
-1.105
-1.12
-1.115
-1.095
-1.11
-1.105
-1.105
-1.11
-1.1
-1.095
-1.085
-1.085
-1.09
-1.1
-1.105
-1.085
-1.065
-1.025
-0.98
-0.875
-0.77
-0.64
-0.505
-0.345
-0.185
0.005
0.185
0.33
0.415
0.395
0.2
-0.185
-0.665
-1.175
-1.56
-1.785
-1.805
-1.685
-1.485
-1.315
-1.165
-1.075
-1.045
-1.03
-1.02
-1.035
-1.05
-1.08
-1.085
-1.095
-1.07
-1.075
-1.065
-1.05
-1.055
-1.04
-1.035
-1.045
-1.04
-1.035
-1.0
-1.0
-0.995
-1.01
-1.005
-0.99
-1.005
-0.985
-0.965
-0.96
-0.955
-0.97
-0.985
-1.0
-1.01
-0.985
-0.95
-0.925
-0.91
-0.91
-0.885
-0.9
-0.9
-0.895
-0.915
-0.91
-0.92
-0.92
-0.92
-0.89
-0.87
-0.845
-0.835
-0.82
-0.8
-0.815
-0.805
-0.795
-0.8
-0.805
-0.785
-0.785
-0.775
-0.77
-0.76
-0.75
-0.735
-0.75
-0.78
-0.805
-0.8
-0.785
-0.78
-0.76
-0.76
-0.77
-0.78
-0.795
-0.805
-0.8
-0.805
-0.825
-0.835
-0.86
-0.85
-0.85
-0.855
-0.86
-0.87
-0.895
-0.895
-0.905
-0.905
-0.91
-0.91
-0.91
-0.955
-0.955
-0.97
-0.965
-0.96
-0.965
-0.96
-0.96
-0.985
-0.97
-0.975
-0.985
-0.99
-0.995
-1.0
-0.985
-0.975
-0.955
-0.94
-0.94
-0.94
-0.96
-0.965
-0.965
-0.96
-0.94
-0.93
-0.915
-0.905
-0.935
-0.935
-0.945
-0.955
-0.97
-0.965
-0.96
-0.94
-0.925
-0.91
-0.905
-0.915
-0.93
-0.95
-0.96
-0.97
-0.99
-1.0
-0.995
-1.0
-1.0
-1.01
-1.005
-1.005
-1.01
-0.995
-0.985
-0.985
-0.995
-1.015
-1.03
-1.045
-1.04
-1.035
-1.01
-1.005
-1.005
-1.025
-1.03
-1.04
-1.035
-1.02
-1.03
-1.025
-1.03
-1.045
-1.02
-1.0
-0.995
-1.0
-0.995
-1.015
-1.035
-1.03
-1.025
-1.035
-1.01
-0.985
-0.96
-0.91
-0.89
-0.89
-0.89
-0.885
-0.895
-0.905
-0.9
-0.9
-0.9
-0.875
-0.85
-0.815
-0.815
-0.82
-0.825
-0.81
-0.815
-0.82
-0.84
-0.85
-0.875
-0.865
-0.875
-0.875
-0.89
-0.9
-0.92
-0.94
-0.97
-0.985
-1.015
-1.025
-1.035
-1.07
-1.065
-1.07
-1.08
-1.075
-1.07
-1.105
-1.11
-1.11
-1.12
-1.115
-1.08
-1.065
-1.04
-1.025
-1.02
-1.025
-1.02
-1.01
-0.985
-0.93
-0.835
-0.7
-0.54
-0.355
-0.16
0.045
0.235
0.385
0.44
0.405
0.195
-0.205
-0.705
-1.23
-1.63
-1.825
-1.79
-1.615
-1.395
-1.17
-1.0
-0.93
-0.92
-0.97
-1.02
-1.055
-1.08
-1.07
-1.06
-1.055
-1.03
-1.04
-1.05
-1.065
-1.075
-1.06
-1.055
-1.005
-0.975
-0.975
-0.97
-0.975
-0.97
-0.985
-0.975
-0.96
-0.96
-0.955
-0.97
-0.97
-0.975
-0.975
-0.95
-0.915
-0.91
-0.91
-0.915
-0.915
-0.93
-0.92
-0.92
-0.9
-0.895
-0.87
-0.84
-0.83
-0.82
-0.82
-0.835
-0.855
-0.855
-0.825
-0.8
-0.765
-0.76
-0.765
-0.77
-0.76
-0.755
-0.76
-0.745
-0.735
-0.72
-0.725
-0.715
-0.73
-0.735
-0.74
-0.74
-0.72
-0.685
-0.69
-0.71
-0.735
-0.765
-0.775
-0.79
-0.79
-0.79
-0.77
-0.765
-0.76
-0.78
-0.81
-0.83
-0.855
-0.86
-0.85
-0.84
-0.84
-0.85
-0.865
-0.88
-0.87
-0.86
-0.86
-0.86
-0.87
-0.885
-0.905
-0.9
-0.9
-0.9
-0.9
-0.91
-0.9
-0.885
-0.89
-0.885
-0.89
-0.905
-0.91
-0.94
-0.93
-0.92
-0.895
-0.88
-0.86
-0.85
-0.845
-0.845
-0.87
-0.885
-0.89
-0.9
-0.905
-0.905
-0.915
-0.885
-0.85
-0.835
-0.835
-0.835
-0.855
-0.895
-0.915
-0.93
-0.935
-0.915
-0.9
-0.865
-0.845
-0.855
-0.88
-0.9
-0.9
-0.905
-0.915
-0.92
-0.89
-0.91
-0.895
-0.895
-0.885
-0.89
-0.9
-0.905
-0.925
-0.935
-0.92
-0.925
-0.905
-0.885
-0.88
-0.865
-0.855
-0.855
-0.855
-0.86
-0.87
-0.875
-0.885
-0.9
-0.905
-0.895
-0.895
-0.87
-0.835
-0.835
-0.84
-0.83
-0.84
-0.84
-0.835
-0.825
-0.795
-0.765
-0.74
-0.72
-0.72
-0.72
-0.715
-0.715
-0.72
-0.715
-0.72
-0.71
-0.695
-0.67
-0.65
-0.63
-0.61
-0.62
-0.655
-0.69
-0.705
-0.705
-0.72
-0.74
-0.765
-0.775
-0.79
-0.77
-0.775
-0.78
-0.825
-0.835
-0.86
-0.89
-0.9
-0.91
-0.925
-0.9
-0.89
-0.88
-0.87
-0.875
-0.86
-0.89
-0.875
-0.875
-0.87
-0.88
-0.88
-0.89
-0.895
-0.89
-0.905
-0.89
-0.845
-0.74
-0.61
-0.425
-0.21
0.005
0.225
0.425
0.575
0.65
0.61
0.43
0.08
-0.37
-0.85
-1.245
-1.495
-1.565
-1.465
-1.28
-1.085
-0.935
-0.835
-0.815
-0.82
-0.84
-0.86
-0.89
-0.9
-0.885
-0.885
-0.885
-0.86
-0.84
-0.835
-0.84
-0.85
-0.855
-0.845
-0.85
-0.84
-0.865
-0.865
-0.865
-0.87
-0.85
-0.82
-0.795
-0.785
-0.79
-0.795
-0.805
-0.8
-0.795
-0.785
-0.765
-0.76
-0.735
-0.725
-0.74
-0.735
-0.76
-0.78
-0.795
-0.77
-0.77
-0.725
-0.69
-0.655
-0.645
-0.63
-0.625
-0.64
-0.65
-0.645
-0.64
-0.63
-0.64
-0.65
-0.64
-0.64
-0.63
-0.595
-0.585
-0.595
-0.595
-0.6
-0.605
-0.62
-0.61
-0.61
-0.61
-0.605
-0.61
-0.61
-0.59
-0.58
-0.565
-0.565
-0.58
-0.595
-0.6
-0.605
-0.635
-0.64
-0.665
-0.655
-0.64
-0.64
-0.645
-0.64
-0.66
-0.66
-0.675
-0.715
-0.695
-0.675
-0.665
-0.64
-0.635
-0.67
-0.68
-0.695
-0.705
-0.71
-0.725
-0.73
-0.725
-0.735
-0.715
-0.705
-0.695
-0.71
-0.715
-0.72
-0.735
-0.73
-0.75
-0.76
-0.745
-0.73
-0.73
-0.695
-0.665
-0.675
-0.68
-0.7
-0.725
-0.735
-0.76
-0.745
-0.7
-0.685
-0.68
-0.675
-0.685
-0.7
-0.695
-0.705
-0.72
-0.735
-0.745
-0.755
-0.735
-0.715
-0.71
-0.705
-0.73
-0.765
-0.79
-0.81
-0.805
-0.78
-0.745
-0.745
-0.75
-0.75
-0.775
-0.765
-0.77
-0.77
-0.765
-0.755
-0.765
-0.745
-0.75
-0.75
-0.76
-0.75
-0.765
-0.755
-0.75
-0.74
-0.75
-0.755
-0.78
-0.78
-0.785
-0.775
-0.745
-0.725
-0.73
-0.72
-0.725
-0.715
-0.71
-0.7
-0.685
-0.675
-0.67
-0.67
-0.665
-0.65
-0.66
-0.655
-0.64
-0.65
-0.65
-0.63
-0.62
-0.59
-0.585
-0.595
-0.59
-0.595
-0.605
-0.605
-0.6
-0.605
-0.61
-0.61
-0.63
-0.665
-0.695
-0.73
-0.755
-0.745
-0.775
-0.78
-0.77
-0.785
-0.775
-0.78
-0.78
-0.775
-0.785
-0.805
-0.8
-0.81
-0.78
-0.765
-0.775
-0.795
-0.82
-0.845
-0.86
-0.87
-0.875
-0.885
-0.855
-0.785
-0.7
-0.555
-0.385
-0.175
0.03
0.245
0.495
0.75
0.99
1.205
1.325
1.29
1.005
0.52
-0.095
-0.72
-1.165
-1.355
-1.315
-1.14
-0.94
-0.77
-0.67
-0.635
-0.63
-0.655
-0.68
-0.69
-0.69
-0.7
-0.715
-0.725
-0.745
-0.745
-0.735
-0.725
-0.715
-0.7
-0.695
-0.69
-0.695
-0.69
-0.695
-0.68
-0.665
-0.655
-0.64
-0.635
-0.615
-0.6
-0.595
-0.575
-0.595
-0.585
-0.59
-0.58
-0.575
-0.565
-0.545
-0.505
-0.49
-0.495
-0.46
-0.46
-0.455
-0.465
-0.455
-0.455
-0.465
-0.445
-0.415
-0.385
-0.365
-0.33
-0.31
-0.3
-0.305
-0.29
-0.29
-0.29
-0.275
-0.265
-0.255
-0.235
-0.23
-0.205
-0.18
-0.17
-0.17
-0.165
-0.17
-0.175
-0.2
-0.205
-0.2
-0.19
-0.195
-0.19
-0.19
-0.205
-0.225
-0.24
-0.25
-0.265
-0.285
-0.305
-0.31
-0.325
-0.315
-0.31
-0.3
-0.315
-0.32
-0.34
-0.36
-0.37
-0.4
-0.415
-0.405
-0.38
-0.345
-0.325
-0.31
-0.33
-0.355
-0.37
-0.39
-0.385
-0.385
-0.355
-0.345
-0.34
-0.32
-0.31
-0.3
-0.295
-0.295
-0.305
-0.305
-0.33
-0.31
-0.305
-0.295
-0.27
-0.27
-0.26
-0.25
-0.245
-0.245
-0.26
-0.25
-0.24
-0.26
-0.255
-0.26
-0.24
-0.23
-0.21
-0.22
-0.21
-0.22
-0.235
-0.235
-0.235
-0.27
-0.265
-0.25
-0.235
-0.23
-0.2
-0.2
-0.19
-0.195
-0.205
-0.21
-0.205
-0.205
-0.195
-0.215
-0.17
-0.17
-0.155
-0.17
-0.16
-0.17
-0.18
-0.16
-0.16
-0.145
-0.16
-0.14
-0.13
-0.13
-0.12
-0.08
-0.07
-0.075
-0.08
-0.09
-0.085
-0.075
-0.07
-0.07
-0.05
-0.025
-0.015
0.02
0.045
0.06
0.07
0.085
0.045
0.08
0.085
0.105
0.135
0.15
0.175
0.2
0.205
0.215
0.22
0.215
0.215
0.225
0.22
0.215
0.225
0.22
0.235
0.245
0.25
0.24
0.245
0.23
0.215
0.21
0.17
0.165
0.145
0.135
0.14
0.14
0.145
0.16
0.17
0.165
0.175
0.18
0.2
0.2
0.22
0.23
0.235
0.26
0.265
0.27
0.24
0.285
0.325
0.36
0.43
0.525
0.65
0.825
1.035
1.235
1.48
1.75
2.01
2.245
2.42
2.515
2.52
2.375
2.07
1.565
0.96
0.375
-0.01
-0.135
-0.03
0.2
0.42
0.59
0.665
0.665
0.635
0.59
0.55
0.505
0.49
0.485
0.5
0.52
0.52
0.535
0.56
0.585
0.615
0.64
0.665
0.685
0.675
0.665
0.635
0.61
0.58
0.58
0.595
0.605
0.63
0.65
0.67
0.69
0.7
0.725
0.74
0.745
0.76
0.79
0.81
0.83
0.84
0.855
0.875
0.915
0.955
1.005
1.035
1.03
1.01
0.995
0.99
0.98
1.015
1.045
1.08
1.105
1.135
1.15
1.19
1.24
1.29
1.305
1.33
1.3
1.295
1.275
1.295
1.335
1.345
1.375
1.38
1.38
1.385
1.38
1.375
1.385
1.4
1.4
1.39
1.37
1.355
1.35
1.37
1.37
1.33
1.285
1.225
1.19
1.18
1.21
1.25
1.265
1.22
1.18
1.135
1.14
1.165
1.195
1.19
1.155
1.125
1.065
1.05
1.045
1.045
1.06
1.055
1.08
1.085
1.115
1.16
1.165
1.135
1.115
1.085
1.08
1.095
1.095
1.1
1.145
1.195
1.23
1.2
1.165
1.145
1.15
1.15
1.18
1.2
1.215
1.24
1.24
1.25
1.24
1.235
1.235
1.225
1.18
1.145
1.13
1.135
1.18
1.195
1.155
1.115
1.095
1.12
1.16
1.225
1.26
1.275
1.24
1.26
1.265
1.26
1.21
1.135
1.06
1.055
1.145
1.26
1.315
1.33
1.29
1.245
1.24
1.205
1.13
1.065
1.015
1.01
1.05
1.135
1.245
1.345
1.365
1.36
1.315
1.285
1.23
1.15
1.045
0.96
0.89
0.89
0.95
1.095
1.255
1.42
1.465
1.355
1.185
1.045
1.02
1.085
1.25
1.42
1.46
1.37
1.205
1.13
1.19
1.275
1.265
1.14
0.995
0.95
0.98
1.045
1.08
1.13
1.19
1.255
1.29
1.29
1.27
1.25
1.23
1.155
1.045
0.96
0.94
0.98
1.04
1.04
0.95
0.805
0.64
0.56
0.625
0.775
0.955
1.08
1.18
1.24
1.275
1.24
1.185
1.16
1.255
1.465
1.75
2.045
2.275
2.43
2.53
2.56
2.56
2.545
2.48
2.405
2.255
1.97
1.51
0.98
0.59
0.46
0.57
0.81
1.07
1.25
1.3
1.245
1.175
1.14
1.125
1.085
0.98
0.825
0.68
0.535
0.53
0.725
1.045
1.265
1.22
0.975
0.675
0.455
0.395
0.48
0.725
1.04
1.285
1.36
1.235
1.015
0.8
0.71
0.72
0.81
0.875
0.875
0.815
0.72
0.635
0.58
0.605
0.675
0.765
0.865
0.975
1.075
1.115
1.095
1.035
1.02
1.055
0.985
0.85
0.745
0.74
0.865
1.07
1.255
1.33
1.325
1.3
1.305
1.28
1.195
1.065
0.96
0.98
1.08
1.135
1.14
1.13
1.135
1.12
1.04
0.965
0.95
1.025
1.125
1.18
1.165
1.11
1.1
1.085
1.02
0.935
0.905
0.88
0.785
0.625
0.545
0.545
0.585
0.61
0.62
0.665
0.73
0.745
0.685
0.545
0.435
0.47
0.605
0.695
0.65
0.47
0.245
0.115
0.11
0.175
0.305
0.44
0.505
0.495
0.43
0.33
0.215
0.125
0.12
0.175
0.29
0.41
0.555
0.67
0.675
0.555
0.325
0.115
0.02
0.095
0.24
0.35
0.39
0.35
0.27
0.195
0.12
0.04
-0.06
-0.135
-0.15
-0.085
0.04
0.195
0.3
0.285
0.235
0.175
0.08
0.015
0.0
0.015
0.085
0.215
0.29
0.22
0.03
-0.175
-0.305
-0.33
-0.265
-0.16
-0.055
-0.025
-0.06
-0.11
-0.11
-0.06
0.0
-0.03
-0.15
-0.3
-0.375
-0.32
-0.185
-0.055
0.005
-0.01
-0.125
-0.28
-0.4
-0.425
-0.385
-0.315
-0.27
-0.21
-0.125
-0.06
-0.055
-0.105
-0.17
-0.25
-0.26
-0.275
-0.285
-0.28
-0.28
-0.24
-0.165
-0.04
0.04
0.03
-0.095
-0.24
-0.33
-0.375
-0.33
-0.23
-0.16
-0.14
-0.185
-0.28
-0.41
-0.51
-0.515
-0.46
-0.37
-0.255
-0.18
-0.15
-0.17
-0.195
-0.19
-0.165
-0.165
-0.27
-0.425
-0.575
-0.625
-0.6
-0.5
-0.445
-0.48
-0.535
-0.565
-0.62
-0.675
-0.73
-0.725
-0.65
-0.515
-0.34
-0.26
-0.29
-0.475
-0.67
-0.71
-0.545
-0.24
0.095
0.385
0.685
0.99
1.31
1.575
1.76
1.845
1.825
1.74
1.59
1.275
0.79
0.15
-0.455
-0.855
-1.01
-1.005
-0.87
-0.66
-0.48
-0.415
-0.49
-0.64
-0.72
-0.715
-0.68
-0.615
-0.61
-0.61
-0.635
-0.665
-0.67
-0.695
-0.715
-0.715
-0.68
-0.645
-0.64
-0.605
-0.61
-0.595
-0.645
-0.7
-0.75
-0.7
-0.635
-0.59
-0.665
-0.8
-0.86
-0.845
-0.805
-0.755
-0.725
-0.695
-0.645
-0.6
-0.55
-0.505
-0.43
-0.365
-0.335
-0.375
-0.44
-0.485
-0.505
-0.505
-0.5
-0.5
-0.515
-0.56
-0.57
-0.55
-0.495
-0.365
-0.23
-0.1
-0.02
0.005
-0.05
-0.155
-0.24
-0.245
-0.23
-0.18
-0.185
-0.23
-0.33
-0.395
-0.42
-0.325
-0.17
-0.03
-0.005
-0.115
-0.315
-0.505
-0.575
-0.54
-0.555
-0.61
-0.69
-0.7
-0.61
-0.495
-0.48
-0.57
-0.71
-0.83
-0.87
-0.825
-0.74
-0.725
-0.77
-0.85
-0.925
-0.94
-0.925
-0.905
-0.92
-0.975
-0.95
-0.88
-0.805
-0.745
-0.685
-0.715
-0.86
-1.08
-1.23
-1.28
-1.235
-1.13
-1.01
-0.905
-0.855
-0.845
-0.87
-0.91
-0.935
-0.975
-0.965
-0.96
-0.97
-1.005
-1.05
-1.06
-1.025
-0.97
-0.895
-0.84
-0.815
-0.815
-0.815
-0.845
-0.925
-1.015
-1.085
-1.12
-1.125
-1.105
-1.035
-1.005
-1.025
-1.06
-1.105
-1.135
-1.155
-1.19
-1.19
-1.16
-1.125
-1.1
-1.11
-1.155
-1.175
-1.21
-1.215
-1.2
-1.16
-1.07
-0.95
-0.865
-0.88
-0.935
-1.02
-1.12
-1.235
-1.335
-1.385
-1.405
-1.38
-1.355
-1.275
-1.14
-0.985
-0.895
-0.925
-1.085
-1.285
-1.45
-1.525
-1.47
-1.385
-1.295
-1.215
-1.16
-1.1
-1.095
-1.075
-1.07
-1.055
-1.03
-1.04
-1.06
-1.11
-1.13
-1.095
-1.07
-1.06
-1.085
-1.055
-1.03
-1.01
-1.045
-1.125
-1.175
-1.195
-1.205
-1.25
-1.3
-1.35
-1.4
-1.42
-1.395
-1.325
-1.27
-1.275
-1.325
-1.385
-1.435
-1.435
-1.43
-1.405
-1.395
-1.365
-1.345
-1.315
-1.32
-1.35
-1.385
-1.395
-1.365
-1.29
-1.225
-1.175
-1.13
-1.025
-0.82
-0.535
-0.21
0.115
0.445
0.775
1.09
1.3
1.425
1.455
1.375
1.24
0.925
0.43
-0.21
-0.85
-1.49
-1.915
-1.89
-1.61
-1.275
-1.055
-0.995
-1.12
-1.295
-1.425
-1.49
-1.525
-1.5
-1.43
-1.395
-1.405
-1.475
-1.56
-1.615
-1.6
-1.565
-1.47
-1.425
-1.355
-1.275
-1.21
-1.265
-1.375
-1.51
-1.565
-1.535
-1.435
-1.35
-1.27
-1.235
-1.22
-1.21
-1.2
-1.185
-1.185
-1.19
-1.235
-1.26
-1.31
-1.385
-1.485
-1.58
-1.625
-1.585
-1.485
-1.375
-1.215
-1.08
-0.99
-0.96
-0.94
-0.935
-0.945
-0.965
-1.005
-1.04
-1.07
-1.11
-1.12
-1.095
-1.02
-0.905
-0.805
-0.745
-0.705
-0.675
-0.7
-0.755
-0.805
-0.84
-0.825
-0.77
-0.71
-0.64
-0.595
-0.685
-0.84
-1.03
-1.145
-1.135
-1.055
-0.975
-0.925
-0.94
-0.99
-1.04
-1.06
-1.08
-1.06
-1.085
-1.165
-1.265
-1.34
-1.41
-1.445
-1.47
-1.49
-1.485
-1.435
-1.36
-1.295
-1.33
-1.445
-1.62
-1.725
-1.79
-1.81
-1.805
-1.77
-1.705
-1.605
-1.55
-1.54
-1.56
-1.575
-1.525
-1.425
-1.31
-1.295
-1.385
-1.555
-1.69
-1.755
-1.74
-1.67
-1.565
-1.525
-1.49
-1.455
-1.455
-1.505
-1.49
-1.5
-1.49
-1.505
-1.545
-1.59
-1.655
-1.72
-1.755
-1.77
-1.785
-1.8
-1.765
-1.72
-1.69
-1.675
-1.69
-1.735
-1.76
-1.78
-1.78
-1.74
-1.67
-1.61
-1.6
-1.63
-1.695
-1.775
-1.845
-1.885
-1.84
-1.77
-1.735
-1.745
-1.785
-1.85
-1.875
-1.84
-1.775
-1.71
-1.7
-1.71
-1.75
-1.795
-1.84
-1.9
-1.91
-1.855
-1.735
-1.64
-1.615
-1.655
-1.735
-1.775
-1.77
-1.765
-1.795
-1.83
-1.84
-1.795
-1.685
-1.585
-1.555
-1.595
-1.645
-1.7
-1.71
-1.725
-1.705
-1.685
-1.675
-1.69
-1.7
-1.715
-1.715
-1.715
-1.715
-1.735
-1.81
-1.895
-1.95
-1.99
-2.015
-2.04
-2.03
-1.96
-1.87
-1.84
-1.895
-1.975
-2.02
-2.03
-2.005
-2.035
-2.105
-2.155
-2.1
-1.935
-1.735
-1.5
-1.24
-0.915
-0.57
-0.24
0.12
0.495
0.865
1.155
1.33
1.39
1.35
1.235
1.035
0.645
0.005
-0.635
-1.275
-1.915
-2.555
-2.39
-2.07
-1.765
-1.57
-1.495
-1.58
-1.71
-1.83
-1.96
-2.065
-2.075
-2.04
-1.965
-1.94
-1.935
-2.0
-2.035
-2.07
-2.085
-2.08
-2.06
-2.015
-1.97
-1.92
-1.91
-1.915
-1.92
-1.915
-1.88
-1.855
-1.855
-1.85
-1.87
-1.9
-1.95
-1.995
-2.015
-1.96
-1.885
-1.815
-1.705
-1.63
-1.64
-1.7
-1.78
-1.79
-1.76
-1.73
-1.75
-1.765
-1.755
-1.715
-1.64
-1.58
-1.56
-1.525
-1.535
-1.545
-1.565
-1.58
-1.54
-1.465
-1.38
-1.35
-1.36
-1.365
-1.33
-1.265
-1.185
-1.16
-1.19
-1.245
-1.28
-1.27
-1.245
-1.24
-1.24
-1.265
-1.33
-1.39
-1.43
-1.42
-1.375
-1.335
-1.315
-1.33
-1.39
-1.43
-1.505
-1.57
-1.705
-1.815
-1.855
-1.84
-1.825
-1.835
-1.895
-2.0
-2.045
-2.045
-1.99
-1.96
-1.95
-1.985
-2.035
-2.065
-2.04
-2.02
-1.98
-1.93
-1.82
-1.725
-1.71
-1.79
-1.97
-2.15
-2.26
-2.26
-2.2
-2.095
-2.005
-1.935
-1.945
-1.99
-2.005
-2.015
-1.995
-1.97
-1.96
-2.015
-2.125
-2.245
-2.32
-2.29
-2.185
-2.045
-1.96
-1.925
-1.94
-1.97
-2.04
-2.075
-2.14
-2.185
-2.245
-2.265
-2.22
-2.165
-2.1
-2.09
-2.09
-2.11
-2.155
-2.2
-2.215
-2.185
-2.11
-2.025
-2.005
-2.06
-2.17
-2.265
-2.34
-2.345
-2.305
-2.255
-2.235
-2.245
-2.24
-2.22
-2.205
-2.205
-2.215
-2.235
-2.27
-2.36
-2.42
-2.41
-2.35
-2.255
-2.205
-2.185
-2.185
-2.18
-2.165
-2.185
-2.235
-2.26
-2.245
-2.195
-2.23
-2.26
-2.335
-2.37
-2.335
-2.295
-2.255
-2.225
-2.18
-2.11
-2.04
-2.01
-2.06
-2.145
-2.24
-2.345
-2.45
-2.475
-2.415
-2.295
-2.16
-2.065
-2.045
-2.085
-2.18
-2.27
-2.365
-2.42
-2.475
-2.565
-2.625
-2.64
-2.575
-2.5
-2.395
-2.31
-2.27
-2.265
-2.355
-2.47
-2.565
-2.58
-2.53
-2.45
-2.325
-2.205
-2.035
-1.8
-1.515
-1.175
-0.815
-0.4
0.06
0.51
0.9
1.155
1.275
1.25
1.08
0.695
0.055
-0.585
-1.225
-1.865
-2.505
-2.87
-2.575
-2.305
-2.15
-2.09
-2.1
-2.15
-2.235
-2.325
-2.405
-2.425
-2.455
-2.465
-2.465
-2.475
-2.475
-2.44
-2.4
-2.325
-2.265
-2.26
-2.295
-2.33
-2.38
-2.425
-2.435
-2.415
-2.365
-2.31
-2.265
-2.265
-2.295
-2.32
-2.335
-2.36
-2.365
-2.32
-2.205
-2.115
-2.095
-2.2
-2.335
-2.445
-2.435
-2.31
-2.12
-2.005
-1.995
-2.0
-2.025
-2.015
-2.005
-2.015
-2.085
-2.12
-2.115
-2.145
-2.135
-2.075
-1.96
-1.82
-1.71
-1.655
-1.585
-1.56
-1.62
-1.71
-1.8
-1.865
-1.85
-1.81
-1.72
-1.64
-1.57
-1.545
-1.61
-1.7
-1.78
-1.83
-1.85
-1.86
-1.875
-1.87
-1.83
-1.815
-1.87
-1.985
-2.08
-2.11
-2.125
-2.16
-2.24
-2.325
-2.36
-2.325
-2.265
-2.275
-2.31
-2.35
-2.35
-2.285
-2.22
-2.165
-2.185
-2.27
-2.375
-2.46
-2.485
-2.51
-2.485
-2.42
-2.32
-2.23
-2.19
-2.2
-2.2
-2.215
-2.245
-2.245
-2.24
-2.235
-2.23
-2.24
-2.295
-2.3
-2.245
-2.17
-2.095
-2.1
-2.16
-2.22
-2.21
-2.14
-2.075
-2.07
-2.15
-2.24
-2.265
-2.27
-2.29
-2.32
-2.39
-2.435
-2.42
-2.365
-2.26
-2.13
-2.025
-1.975
-2.045
-2.17
-2.29
-2.345
-2.33
-2.26
-2.25
-2.265
-2.285
-2.26
-2.215
-2.22
-2.26
-2.28
-2.295
-2.29
-2.26
-2.205
-2.195
-2.19
-2.23
-2.26
-2.285
-2.315
-2.315
-2.25
-2.17
-2.1
-2.065
-2.095
-2.215
-2.32
-2.375
-2.345
-2.305
-2.295
-2.27
-2.24
-2.165
-2.11
-2.11
-2.11
-2.08
-2.025
-2.0
-2.045
-2.135
-2.185
-2.155
-2.07
-1.985
-1.965
-2.005
-2.035
-2.02
-1.99
-1.99
-1.995
-2.025
-2.035
-2.02
-2.02
-2.05
-2.105
-2.125
-2.125
-2.1
-2.045
-2.02
-2.085
-2.205
-2.28
-2.29
-2.26
-2.275
-2.29
-2.245
-2.135
-2.08
-2.15
-2.245
-2.27
-2.23
-2.13
-2.115
-2.15
-2.195
-2.21
-2.165
-2.025
-1.85
-1.66
-1.455
-1.155
-0.785
-0.32
0.195
0.71
1.15
1.435
1.56
1.555
1.465
1.245
0.835
0.195
-0.445
-1.085
-1.725
-2.365
-2.995
-2.77
-2.385
-2.005
-1.79
-1.75
-1.83
-1.945
-2.04
-2.09
-2.135
-2.18
-2.235
-2.29
-2.3
-2.285
-2.275
-2.235
-2.205
-2.175
-2.17
-2.145
-2.07
-2.0
-1.965
-1.995
-2.105
-2.23
-2.335
-2.385
-2.325
-2.14
-1.925
-1.785
-1.785
-1.905
-2.05
-2.115
-2.135
-2.115
-2.08
-2.05
-1.99
-1.905
-1.845
-1.82
-1.805
-1.785
-1.75
-1.675
-1.645
-1.64
-1.68
-1.69
-1.665
-1.625
-1.64
-1.69
-1.715
-1.685
-1.575
-1.49
-1.455
-1.465
-1.43
-1.415
-1.41
-1.425
-1.49
-1.525
-1.49
-1.45
-1.395
-1.36
-1.36
-1.345
-1.325
-1.345
-1.42
-1.49
-1.5
-1.5
-1.5
-1.55
-1.62
-1.71
-1.775
-1.835
-1.86
-1.84
-1.83
-1.84
-1.895
-1.97
-2.06
-2.11
-2.065
-1.99
-1.905
-1.865
-1.885
-1.95
-2.045
-2.095
-2.105
-2.085
-2.065
-2.005
-1.975
-1.97
-2.04
-2.085
-2.135
-2.14
-2.095
-2.02
-1.925
-1.855
-1.87
-1.955
-2.055
-2.115
-2.12
-2.065
-1.95
-1.865
-1.86
-1.935
-2.01
-2.045
-2.035
-2.02
-1.98
-1.945
-1.965
-2.035
-2.14
-2.185
-2.185
-2.08
-1.99
-1.915
-1.835
-1.745
-1.735
-1.83
-1.99
-2.14
-2.195
-2.2
-2.165
-2.12
-2.115
-2.115
-2.005
-1.93
-1.915
-1.995
-2.1
-2.18
-2.17
-2.15
-2.135
-2.11
-2.065
-2.05
-2.07
-2.08
-2.07
-2.03
-2.01
-1.98
-1.96
-1.985
-2.055
-2.14
-2.2
-2.205
-2.17
-2.075
-2.005
-1.93
-1.925
-1.955
-1.965
-1.95
-1.945
-1.975
-2.03
-2.075
-2.07
-2.065
-2.065
-2.03
-2.03
-2.015
-1.95
-1.88
-1.82
-1.77
-1.765
-1.795
-1.85
-1.92
-1.985
-2.04
-2.045
-2.01
-1.96
-1.905
-1.875
-1.855
-1.855
-1.905
-2.0
-2.11
-2.16
-2.125
-2.04
-1.965
-1.96
-2.04
-2.135
-2.17
-2.195
-2.18
-2.155
-2.15
-2.155
-2.17
-2.18
-2.15
-2.08
-2.005
-1.95
-1.91
-1.885
-1.855
-1.765
-1.595
-1.31
-0.905
-0.47
-0.04
0.365
0.735
1.08
1.385
1.6
1.71
1.695
1.535
1.18
0.565
-0.075
-0.715
-1.355
-1.995
-2.615
-2.42
-2.105
-1.87
-1.745
-1.735
-1.86
-1.995
-2.13
-2.165
-2.1
-2.03
-1.995
-1.985
-2.005
-2.06
-2.105
-2.11
-2.09
-2.015
-1.97
-1.965
-2.0
-2.05
-2.065
-2.06
-2.035
-1.96
-1.865
-1.82
-1.865
-1.96
-2.06
-2.095
-2.075
-2.015
-1.945
-1.875
-1.85
-1.885
-1.96
-2.025
-2.05
-2.02
-1.945
-1.85
-1.75
-1.695
-1.65
-1.63
-1.635
-1.665
-1.635
-1.61
-1.545
-1.495
-1.465
-1.48
-1.51
-1.52
-1.515
-1.505
-1.49
-1.45
-1.355
-1.265
-1.205
-1.22
-1.31
-1.435
-1.495
-1.47
-1.38
-1.27
-1.165
-1.075
-1.045
-1.04
-1.085
-1.16
-1.245
-1.28
-1.27
-1.225
-1.18
-1.16
-1.245
-1.36
-1.44
-1.51
-1.535
-1.58
-1.625
-1.665
-1.68
-1.685
-1.665
-1.66
-1.73
-1.795
-1.85
-1.865
-1.865
-1.86
-1.865
-1.885
-1.89
-1.895
-1.89
-1.885
-1.86
-1.83
-1.775
-1.76
-1.75
-1.76
-1.78
-1.775
-1.8
-1.84
-1.85
-1.875
-1.905
-1.905
-1.89
-1.875
-1.86
-1.875
-1.87
-1.865
-1.815
-1.72
-1.65
-1.64
-1.755
-1.885
-1.99
-2.03
-1.995
-1.95
-1.925
-1.925
-1.92
-1.92
-1.915
-1.895
-1.875
-1.865
-1.87
-1.895
-1.91
-1.925
-1.935
-1.94
-1.92
-1.895
-1.875
-1.875
-1.89
-1.93
-1.96
-1.98
-1.94
-1.885
-1.835
-1.8
-1.805
-1.855
-1.855
-1.86
-1.885
-1.93
-1.995
-2.06
-2.08
-2.07
-2.02
-1.925
-1.855
-1.805
-1.795
-1.84
-1.915
-1.975
-2.025
-2.005
-1.965
-1.925
-1.89
-1.86
-1.84
-1.82
-1.835
-1.865
-1.89
-1.89
-1.86
-1.835
-1.82
-1.81
-1.825
-1.82
-1.815
-1.825
-1.81
-1.79
-1.79
-1.79
-1.795
-1.805
-1.79
-1.785
-1.81
-1.825
-1.81
-1.8
-1.82
-1.805
-1.835
-1.865
-1.91
-1.955
-2.0
-2.005
-2.025
-2.025
-2.015
-2.02
-2.02
-1.99
-1.965
-1.945
-1.95
-1.955
-1.97
-1.96
-1.965
-1.965
-1.95
-1.945
-1.9
-1.8
-1.65
-1.45
-1.14
-0.76
-0.325
0.2
0.75
1.26
1.655
1.88
1.925
1.75
1.31
0.67
0.03
-0.61
-1.25
-1.89
-2.51
-2.26
-1.935
-1.7
-1.57
-1.57
-1.67
-1.785
-1.89
-1.955
-1.97
-1.95
-1.945
-1.925
-1.92
-1.935
-1.92
-1.92
-1.91
-1.915
-1.92
-1.915
-1.91
-1.92
-1.915
-1.89
-1.885
-1.845
-1.83
-1.815
-1.83
-1.825
-1.82
-1.815
-1.81
-1.81
-1.795
-1.79
-1.79
-1.75
-1.69
-1.67
-1.655
-1.675
-1.685
-1.705
-1.705
-1.7
-1.685
-1.67
-1.635
-1.6
-1.555
-1.52
-1.5
-1.475
-1.485
-1.455
-1.45
-1.435
-1.42
-1.4
-1.39
-1.37
-1.36
-1.36
-1.37
-1.38
-1.37
-1.36
-1.37
-1.35
-1.325
-1.32
-1.335
-1.32
-1.31
-1.315
-1.33
-1.355
-1.38
-1.42
-1.425
-1.445
-1.445
-1.47
-1.48
-1.51
-1.51
-1.51
-1.51
-1.53
-1.55
-1.585
-1.605
-1.625
-1.64
-1.655
-1.655
-1.66
-1.65
-1.665
-1.675
-1.675
-1.69
-1.69
-1.7
-1.715
-1.72
-1.745
-1.76
-1.77
-1.8
-1.8
-1.82
-1.825
-1.805
-1.795
-1.77
-1.75
-1.715
-1.695
-1.705
-1.7
-1.705
-1.715
-1.725
-1.715
-1.73
-1.735
-1.73
-1.74
-1.735
-1.735
-1.74
-1.74
-1.725
-1.72
-1.72
-1.715
-1.735
-1.75
-1.77
-1.78
-1.785
-1.79
-1.8
-1.78
-1.755
-1.74
-1.73
-1.74
-1.76
-1.76
-1.76
-1.78
-1.785
-1.8
-1.79
-1.775
-1.775
-1.755
-1.75
-1.755
-1.755
-1.76
-1.775
-1.79
-1.795
-1.775
-1.77
-1.775
-1.76
-1.76
-1.75
-1.765
-1.76
-1.76
-1.76
-1.755
-1.73
-1.71
-1.675
-1.655
-1.65
-1.64
-1.635
-1.64
-1.65
-1.64
-1.63
-1.63
-1.62
-1.625
-1.59
-1.565
-1.535
-1.53
-1.535
-1.555
-1.575
-1.595
-1.6
-1.605
-1.61
-1.605
-1.615
-1.625
-1.64
-1.635
-1.65
-1.665
-1.705
-1.725
-1.765
-1.785
-1.815
-1.83
-1.815
-1.795
-1.785
-1.765
-1.76
-1.75
-1.755
-1.775
-1.775
-1.775
-1.79
-1.81
-1.8
-1.765
-1.735
-1.66
-1.56
-1.41
-1.195
-0.93
-0.595
-0.205
0.19
0.585
0.965
1.21
1.36
1.305
0.94
0.3
-0.34
-0.98
-1.62
-2.26
-2.385
-2.18
-1.885
-1.65
-1.505
-1.465
-1.5
-1.59
-1.675
-1.74
-1.775
-1.795
-1.795
-1.795
-1.755
-1.72
-1.7
-1.7
-1.69
-1.685
-1.705
-1.71
-1.725
-1.725
-1.735
-1.73
-1.73
-1.695
-1.685
-1.665
-1.655
-1.665
-1.66
-1.665
-1.675
-1.655
-1.645
-1.65
-1.63
-1.625
-1.605
-1.59
-1.575
-1.56
-1.57
-1.56
-1.56
-1.56
-1.56
-1.555
-1.535
-1.52
-1.495
-1.465
-1.44
-1.45
-1.43
-1.44
-1.435
-1.425
-1.43
-1.42
-1.38
-1.35
-1.36
-1.335
-1.345
-1.35
-1.35
-1.355
-1.345
-1.355
-1.365
-1.365
-1.375
-1.38
-1.38
-1.385
-1.385
-1.38
-1.375
-1.385
-1.4
-1.405
-1.43
-1.445
-1.455
-1.44
-1.455
-1.46
-1.495
-1.52
-1.535
-1.57
-1.59
-1.605
-1.615
-1.615
-1.59
-1.575
-1.585
-1.585
-1.6
-1.63
-1.625
-1.63
-1.64
-1.625
-1.63
-1.625
-1.625
-1.615
-1.61
-1.59
-1.58
-1.605
-1.61
-1.605
-1.625
-1.645
-1.675
-1.67
-1.655
-1.655
-1.64
-1.615
-1.615
-1.615
-1.62
-1.64
-1.66
-1.675
-1.685
-1.685
-1.675
-1.675
-1.67
-1.665
-1.66
-1.67
-1.67
-1.68
-1.695
-1.705
-1.71
-1.71
-1.715
-1.705
-1.705
-1.685
