Lead II
-0.565
-0.55
-0.545
-0.54
-0.535
-0.54
-0.53
-0.535
-0.54
-0.555
-0.57
-0.555
-0.56
-0.555
-0.55
-0.55
-0.545
-0.55
-0.555
-0.55
-0.555
-0.565
-0.58
-0.58
-0.555
-0.555
-0.56
-0.555
-0.56
-0.56
-0.575
-0.59
-0.595
-0.6
-0.605
-0.59
-0.6
-0.59
-0.595
-0.595
-0.59
-0.595
-0.595
-0.595
-0.61
-0.61
-0.615
-0.63
-0.62
-0.615
-0.615
-0.62
-0.62
-0.625
-0.64
-0.635
-0.64
-0.645
-0.645
-0.645
-0.64
-0.63
-0.63
-0.615
-0.605
-0.605
-0.61
-0.615
-0.61
-0.605
-0.61
-0.595
-0.58
-0.575
-0.565
-0.555
-0.545
-0.555
-0.535
-0.55
-0.54
-0.54
-0.535
-0.52
-0.525
-0.51
-0.495
-0.465
-0.455
-0.435
-0.42
-0.425
-0.43
-0.425
-0.415
-0.42
-0.42
-0.43
-0.43
-0.425
-0.445
-0.455
-0.475
-0.485
-0.505
-0.52
-0.54
-0.545
-0.55
-0.555
-0.565
-0.555
-0.56
-0.58
-0.575
-0.6
-0.605
-0.61
-0.6
-0.605
-0.595
-0.585
-0.585
-0.57
-0.56
-0.55
-0.555
-0.555
-0.55
-0.555
-0.555
-0.545
-0.525
-0.5
-0.46
-0.415
-0.34
-0.255
-0.145
-0.02
0.14
0.325
0.52
0.735
0.905
1.05
1.185
1.32
1.475
1.62
1.7
1.63
1.385
0.985
0.505
-0.005
-0.435
-0.72
-0.875
-0.91
-0.86
-0.8
-0.74
-0.715
-0.69
-0.675
-0.67
-0.69
-0.685
-0.695
-0.685
-0.685
-0.68
-0.69
-0.685
-0.7
-0.72
-0.71
-0.715
-0.705
-0.715
-0.715
-0.71
-0.71
-0.705
-0.715
-0.715
-0.725
-0.735
-0.745
-0.745
-0.74
-0.75
-0.735
-0.735
-0.735
-0.735
-0.75
-0.74
-0.75
-0.755
-0.765
-0.77
-0.785
-0.79
-0.79
-0.79
-0.78
-0.785
-0.795
-0.79
-0.805
-0.815
-0.83
-0.83
-0.84
-0.845
-0.845
-0.84
-0.84
-0.83
-0.835
-0.84
-0.84
-0.845
-0.845
-0.845
-0.85
-0.83
-0.82
-0.835
-0.82
-0.795
-0.78
-0.775
-0.765
-0.755
-0.735
-0.73
-0.735
-0.71
-0.68
-0.655
-0.645
-0.62
-0.595
-0.58
-0.575
-0.58
-0.565
-0.545
-0.54
-0.53
-0.52
-0.515
-0.505
-0.495
-0.5
-0.495
-0.5
-0.5
-0.505
-0.515
-0.515
-0.53
-0.53
-0.53
-0.52
-0.52
-0.515
-0.515
-0.52
-0.535
-0.535
-0.555
-0.555
-0.555
-0.55
-0.54
-0.54
-0.545
-0.545
-0.54
-0.555
-0.565
-0.58
-0.585
-0.59
-0.59
-0.58
-0.595
-0.585
-0.58
-0.57
-0.585
-0.585
-0.6
-0.615
-0.625
-0.615
-0.63
-0.625
-0.63
-0.62
-0.605
-0.615
-0.615
-0.62
-0.615
-0.615
-0.615
-0.63
-0.625
-0.615
-0.605
-0.59
-0.59
-0.575
-0.58
-0.58
-0.585
-0.585
-0.58
-0.575
-0.565
-0.565
-0.555
-0.54
-0.545
-0.53
-0.52
-0.53
-0.525
-0.53
-0.52
-0.51
-0.505
-0.485
-0.47
-0.46
-0.44
-0.42
-0.42
-0.405
-0.405
-0.405
-0.42
-0.42
-0.435
-0.445
-0.445
-0.455
-0.455
-0.47
-0.495
-0.51
-0.52
-0.55
-0.565
-0.575
-0.585
-0.575
-0.585
-0.575
-0.57
-0.57
-0.57
-0.57
-0.565
-0.57
-0.56
-0.575
-0.58
-0.575
-0.55
-0.535
-0.53
-0.51
-0.51
-0.49
-0.465
-0.44
-0.4
-0.33
-0.245
-0.13
-0.02
0.11
0.28
0.45
0.655
0.825
0.97
1.095
1.195
1.305
1.465
1.625
1.72
1.685
1.46
1.08
0.575
0.04
-0.41
-0.73
-0.88
-0.915
-0.87
-0.785
-0.715
-0.67
-0.635
-0.64
-0.64
-0.655
-0.665
-0.67
-0.7
-0.7
-0.685
-0.685
-0.69
-0.685
-0.685
-0.67
-0.67
-0.685
-0.695
-0.715
-0.705
-0.715
-0.705
-0.705
-0.715
-0.715
-0.715
-0.71
-0.715
-0.725
-0.73
-0.745
-0.755
-0.75
-0.76
-0.755
-0.74
-0.745
-0.735
-0.74
-0.765
-0.77
-0.785
-0.785
-0.795
-0.8
-0.805
-0.79
-0.795
-0.79
-0.785
-0.79
-0.8
-0.81
-0.82
-0.83
-0.835
-0.845
-0.84
-0.845
-0.835
-0.835
-0.82
-0.825
-0.83
-0.83
-0.84
-0.845
-0.845
-0.84
-0.83
-0.815
-0.8
-0.79
-0.775
-0.765
-0.75
-0.745
-0.725
-0.72
-0.705
-0.675
-0.66
-0.63
-0.6
-0.585
-0.56
-0.545
-0.545
-0.54
-0.53
-0.53
-0.525
-0.525
-0.51
-0.515
-0.505
-0.5
-0.5
-0.5
-0.51
-0.52
-0.515
-0.525
-0.525
-0.53
-0.525
-0.52
-0.52
-0.52
-0.505
-0.515
-0.525
-0.535
-0.54
-0.545
-0.55
-0.55
-0.555
-0.555
-0.54
-0.535
-0.53
-0.53
-0.545
-0.54
-0.555
-0.565
-0.575
-0.575
-0.575
-0.59
-0.59
-0.575
-0.56
-0.57
-0.57
-0.575
-0.59
-0.595
-0.605
-0.61
-0.61
-0.605
-0.605
-0.6
-0.605
-0.605
-0.61
-0.63
-0.625
-0.625
-0.635
-0.635
-0.63
-0.615
-0.625
-0.63
-0.605
-0.6
-0.6
-0.595
-0.605
-0.595
-0.595
-0.585
-0.59
-0.58
-0.57
-0.555
-0.55
-0.545
-0.53
-0.54
-0.53
-0.535
-0.525
-0.54
-0.545
-0.51
-0.495
-0.485
-0.475
-0.46
-0.46
-0.46
-0.47
-0.455
-0.44
-0.425
-0.415
-0.4
-0.395
-0.39
-0.395
-0.415
-0.415
-0.435
-0.435
-0.46
-0.47
-0.49
-0.495
-0.5
-0.505
-0.51
-0.51
-0.52
-0.53
-0.545
-0.565
-0.59
-0.605
-0.6
-0.62
-0.595
-0.585
-0.58
-0.56
-0.565
-0.575
-0.57
-0.575
-0.59
-0.585
-0.585
-0.59
-0.575
-0.56
-0.555
-0.54
-0.535
-0.51
-0.485
-0.445
-0.4
-0.33
-0.225
-0.125
0.015
0.18
0.385
0.595
0.79
0.975
1.13
1.27
1.4
1.56
1.69
1.71
1.58
1.275
0.855
0.365
-0.095
-0.47
-0.71
-0.83
-0.85
-0.81
-0.765
-0.73
-0.71
-0.7
-0.68
-0.68
-0.685
-0.685
-0.69
-0.695
-0.71
-0.72
-0.715
-0.72
-0.725
-0.725
-0.725
-0.72
-0.725
-0.715
-0.74
-0.74
-0.745
-0.765
-0.755
-0.77
-0.775
-0.775
-0.77
-0.755
-0.765
-0.775
-0.785
-0.785
-0.785
-0.805
-0.8
-0.795
-0.785
-0.785
-0.78
-0.785
-0.79
-0.795
-0.805
-0.825
-0.83
-0.845
-0.85
-0.87
-0.87
-0.86
-0.855
-0.84
-0.855
-0.865
-0.87
-0.88
-0.9
-0.905
-0.905
-0.91
-0.905
-0.905
-0.905
-0.9
-0.9
-0.91
-0.915
-0.915
-0.925
-0.92
-0.92
-0.905
-0.895
-0.875
-0.865
-0.85
-0.84
-0.835
-0.83
-0.825
-0.82
-0.805
-0.785
-0.765
-0.74
-0.72
-0.705
-0.675
-0.66
-0.65
-0.63
-0.63
-0.63
-0.625
-0.615
-0.6
-0.595
-0.595
-0.595
-0.575
-0.585
-0.58
-0.59
-0.6
-0.6
-0.61
-0.615
-0.605
-0.6
-0.6
-0.59
-0.59
-0.59
-0.585
-0.605
-0.605
-0.62
-0.62
-0.615
-0.62
-0.615
-0.64
-0.62
-0.63
-0.62
-0.635
-0.64
-0.64
-0.65
-0.66
-0.67
-0.66
-0.655
-0.66
-0.645
-0.66
-0.655
-0.655
-0.67
-0.675
-0.69
-0.695
-0.705
-0.71
-0.705
-0.695
-0.685
-0.675
-0.685
-0.69
-0.69
-0.7
-0.705
-0.71
-0.72
-0.705
-0.69
-0.675
-0.67
-0.66
-0.64
-0.635
-0.645
-0.635
-0.63
-0.635
-0.625
-0.63
-0.615
-0.62
-0.61
-0.59
-0.585
-0.575
-0.575
-0.57
-0.575
-0.56
-0.555
-0.53
-0.51
-0.505
-0.505
-0.47
-0.47
-0.465
-0.465
-0.495
-0.495
-0.515
-0.53
-0.54
-0.555
-0.56
-0.575
-0.58
-0.585
-0.595
-0.61
-0.64
-0.655
-0.685
-0.68
-0.68
-0.685
-0.67
-0.665
-0.655
-0.645
-0.645
-0.64
-0.66
-0.665
-0.655
-0.655
-0.665
-0.64
-0.625
-0.605
-0.595
-0.575
-0.55
-0.54
-0.495
-0.43
-0.36
-0.27
-0.17
-0.025
0.11
0.295
0.495
0.675
0.845
0.985
1.145
1.285
1.45
1.565
1.615
1.505
1.235
0.825
0.345
-0.095
-0.46
-0.705
-0.835
-0.865
-0.85
-0.815
-0.785
-0.775
-0.775
-0.765
-0.75
-0.755
-0.76
-0.785
-0.78
-0.78
-0.785
-0.795
-0.805
-0.795
-0.79
-0.79
-0.79
-0.79
-0.805
-0.8
-0.81
-0.815
-0.825
-0.835
-0.835
-0.835
-0.83
-0.835
-0.815
-0.82
-0.82
-0.84
-0.835
-0.85
-0.855
-0.86
-0.865
-0.86
-0.855
-0.865
-0.865
-0.86
-0.865
-0.88
-0.885
-0.89
-0.905
-0.915
-0.925
-0.905
-0.915
-0.91
-0.91
-0.92
-0.925
-0.935
-0.95
-0.955
-0.96
-0.97
-0.965
-0.96
-0.965
-0.955
-0.945
-0.95
-0.95
-0.955
-0.945
-0.955
-0.94
-0.94
-0.93
-0.93
-0.915
-0.895
-0.885
-0.87
-0.865
-0.845
-0.85
-0.835
-0.805
-0.795
-0.765
-0.76
-0.73
-0.7
-0.67
-0.655
-0.655
-0.65
-0.645
-0.645
-0.645
-0.645
-0.65
-0.64
-0.635
-0.625
-0.63
-0.62
-0.615
-0.635
-0.63
-0.635
-0.64
-0.66
-0.655
-0.64
-0.635
-0.64
-0.64
-0.635
-0.64
-0.65
-0.66
-0.66
-0.665
-0.675
-0.66
-0.665
-0.655
-0.655
-0.65
-0.65
-0.645
-0.66
-0.665
-0.67
-0.685
-0.69
-0.69
-0.695
-0.69
-0.68
-0.675
-0.665
-0.675
-0.68
-0.7
-0.705
-0.705
-0.7
-0.675
-0.68
-0.67
-0.655
-0.64
-0.64
-0.64
-0.64
-0.64
-0.64
-0.64
-0.635
-0.64
-0.615
-0.61
-0.59
-0.58
-0.555
-0.545
-0.55
-0.545
-0.55
-0.555
-0.57
-0.565
-0.57
-0.55
-0.57
-0.58
-0.59
-0.6
-0.62
-0.63
-0.65
-0.67
-0.68
-0.675
-0.69
-0.69
-0.685
-0.68
-0.675
-0.67
-0.665
-0.68
-0.685
-0.68
-0.685
-0.67
-0.655
-0.655
-0.64
-0.63
-0.61
-0.62
-0.6
-0.61
-0.595
-0.585
-0.565
-0.53
-0.48
-0.4
-0.315
-0.205
-0.085
0.055
0.215
0.395
0.575
0.74
0.885
1.04
1.195
1.355
1.49
1.58
1.495
1.245
0.85
0.355
-0.11
-0.51
-0.765
-0.885
-0.9
-0.865
-0.8
-0.74
-0.71
-0.695
-0.695
-0.705
-0.725
-0.745
-0.75
-0.765
-0.755
-0.76
-0.755
-0.74
-0.73
-0.735
-0.735
-0.77
-0.78
-0.79
-0.78
-0.775
-0.775
-0.77
-0.76
-0.745
-0.76
-0.76
-0.775
-0.78
-0.78
-0.785
-0.8
-0.81
-0.805
-0.815
-0.795
-0.785
-0.785
-0.79
-0.815
-0.81
-0.83
-0.84
-0.835
-0.845
-0.845
-0.845
-0.845
-0.85
-0.855
-0.86
-0.86
-0.885
-0.875
-0.88
-0.89
-0.89
-0.885
-0.885
-0.895
-0.885
-0.875
-0.87
-0.875
-0.875
-0.875
-0.88
-0.88
-0.865
-0.86
-0.845
-0.815
-0.8
-0.78
-0.755
-0.75
-0.735
-0.725
-0.7
-0.7
-0.665
-0.64
-0.62
-0.6
-0.57
-0.575
-0.56
-0.56
-0.565
-0.565
-0.565
-0.56
-0.58
-0.57
-0.55
-0.54
-0.535
-0.53
-0.53
-0.54
-0.55
-0.545
-0.555
-0.57
-0.565
-0.57
-0.565
-0.55
-0.545
-0.55
-0.555
-0.555
-0.565
-0.58
-0.58
-0.58
-0.58
-0.585
-0.58
-0.58
-0.585
-0.575
-0.575
-0.58
-0.605
-0.605
-0.615
-0.62
-0.615
-0.61
-0.615
-0.61
-0.605
-0.6
-0.61
-0.615
-0.62
-0.63
-0.64
-0.635
-0.645
-0.635
-0.625
-0.625
-0.62
-0.615
-0.605
-0.61
-0.605
-0.62
-0.61
-0.62
-0.635
-0.615
-0.6
-0.59
-0.6
-0.6
-0.585
-0.59
-0.595
-0.59
-0.59
-0.58
-0.575
-0.565
-0.57
-0.55
-0.54
-0.53
-0.52
-0.535
-0.545
-0.535
-0.535
-0.535
-0.53
-0.52
-0.52
-0.505
-0.49
-0.485
-0.47
-0.465
-0.465
-0.475
-0.47
-0.465
-0.45
-0.435
-0.43
-0.42
-0.405
-0.4
-0.41
-0.41
-0.435
-0.445
-0.47
-0.49
-0.495
-0.495
-0.495
-0.495
-0.5
-0.5
-0.52
-0.535
-0.565
-0.575
-0.595
-0.605
-0.605
-0.62
-0.61
-0.595
-0.59
-0.575
-0.58
-0.585
-0.59
-0.59
-0.6
-0.59
-0.585
-0.585
-0.565
-0.555
-0.525
-0.505
-0.49
-0.46
-0.42
-0.365
-0.27
-0.2
-0.08
0.045
0.195
0.38
0.58
0.77
0.945
1.06
1.175
1.29
1.455
1.57
1.61
1.5
1.23
0.83
0.375
-0.075
-0.45
-0.695
-0.825
-0.855
-0.825
-0.785
-0.75
-0.72
-0.705
-0.69
-0.68
-0.675
-0.67
-0.68
-0.695
-0.7
-0.71
-0.71
-0.72
-0.72
-0.71
-0.715
-0.71
-0.715
-0.705
-0.715
-0.72
-0.73
-0.74
-0.75
-0.745
-0.745
-0.755
-0.74
-0.73
-0.725
-0.74
-0.755
-0.765
-0.765
-0.78
-0.79
-0.795
-0.795
-0.79
-0.795
-0.79
-0.785
-0.8
-0.79
-0.795
-0.825
-0.83
-0.84
-0.845
-0.845
-0.845
-0.825
-0.835
-0.83
-0.825
-0.84
-0.845
-0.86
-0.865
-0.875
-0.88
-0.875
-0.87
-0.86
-0.85
-0.85
-0.845
-0.83
-0.84
-0.84
-0.855
-0.835
-0.835
-0.825
-0.81
-0.79
-0.76
-0.745
-0.725
-0.725
-0.715
-0.695
-0.685
-0.675
-0.655
-0.64
-0.625
-0.61
-0.585
-0.56
-0.545
-0.54
-0.535
-0.53
-0.535
-0.55
-0.55
-0.54
-0.535
-0.52
-0.515
-0.515
-0.51
-0.53
-0.545
-0.55
-0.555
-0.56
-0.565
-0.565
-0.55
-0.55
-0.535
-0.535
-0.535
-0.535
-0.535
-0.545
-0.56
-0.555
-0.575
-0.57
-0.57
-0.56
-0.56
-0.555
-0.555
-0.57
-0.585
-0.595
-0.6
-0.615
-0.62
-0.625
-0.615
-0.615
-0.6
-0.605
-0.6
-0.605
-0.62
-0.625
-0.645
-0.65
-0.645
-0.64
-0.63
-0.635
-0.61
-0.625
-0.615
-0.615
-0.625
-0.625
-0.63
-0.64
-0.63
-0.635
-0.635
-0.61
-0.605
-0.595
-0.6
-0.595
-0.59
-0.585
-0.595
-0.595
-0.585
-0.575
-0.565
-0.54
-0.53
-0.525
-0.515
-0.515
-0.515
-0.52
-0.51
-0.5
-0.495
-0.49
-0.47
-0.43
-0.42
-0.405
-0.415
-0.42
-0.43
-0.435
-0.445
-0.45
-0.465
-0.46
-0.48
-0.5
-0.505
-0.505
-0.515
-0.535
-0.55
-0.565
-0.585
-0.595
-0.605
-0.615
-0.605
-0.6
-0.585
-0.58
-0.595
-0.585
-0.595
-0.605
-0.61
-0.635
-0.625
-0.6
-0.585
-0.57
-0.57
-0.55
-0.55
-0.555
-0.555
-0.56
-0.565
-0.545
-0.53
-0.495
-0.455
-0.42
-0.355
-0.275
-0.19
-0.09
0.01
0.155
0.32
0.52
0.725
0.89
1.045
1.18
1.325
1.475
1.585
1.575
1.38
1.025
0.55
0.025
-0.425
-0.735
-0.9
-0.945
-0.89
-0.825
-0.745
-0.685
-0.665
-0.675
-0.69
-0.715
-0.71
-0.73
-0.71
-0.715
-0.705
-0.69
-0.7
-0.695
-0.715
-0.72
-0.735
-0.73
-0.735
-0.735
-0.735
-0.725
-0.725
-0.72
-0.735
-0.74
-0.735
-0.735
-0.74
-0.745
-0.75
-0.76
-0.75
-0.755
-0.735
-0.735
-0.75
-0.775
-0.765
-0.78
-0.79
-0.805
-0.8
-0.805
-0.8
-0.8
-0.795
-0.795
-0.805
-0.81
-0.82
-0.84
-0.845
-0.85
-0.86
-0.845
-0.855
-0.845
-0.83
-0.82
-0.83
-0.825
-0.84
-0.845
-0.84
-0.845
-0.84
-0.835
-0.81
-0.8
-0.785
-0.765
-0.76
-0.74
-0.735
-0.715
-0.705
-0.7
-0.68
-0.66
-0.635
-0.625
-0.59
-0.57
-0.555
-0.535
-0.53
-0.525
-0.525
-0.525
-0.52
-0.505
-0.505
-0.495
-0.485
-0.475
-0.485
-0.485
-0.495
-0.505
-0.515
-0.52
-0.51
-0.53
-0.51
-0.51
-0.505
-0.5
-0.51
-0.515
-0.525
-0.525
-0.535
-0.545
-0.545
-0.545
-0.545
-0.535
-0.535
-0.54
-0.545
-0.555
-0.55
-0.56
-0.575
-0.58
-0.59
-0.59
-0.595
-0.595
-0.59
-0.58
-0.595
-0.585
-0.595
-0.61
-0.61
-0.62
-0.615
-0.62
-0.62
-0.615
-0.605
-0.59
-0.6
-0.6
-0.615
-0.61
-0.61
-0.615
-0.61
-0.6
-0.59
-0.58
-0.56
-0.555
-0.56
-0.54
-0.54
-0.545
-0.555
-0.55
-0.535
-0.545
-0.52
-0.505
-0.49
-0.485
-0.485
-0.475
-0.47
-0.465
-0.445
-0.44
-0.43
-0.425
-0.43
-0.415
-0.405
-0.405
-0.415
-0.43
-0.45
-0.455
-0.465
-0.47
-0.495
-0.515
-0.51
-0.525
-0.525
-0.525
-0.535
-0.56
-0.58
-0.595
-0.605
-0.615
-0.61
-0.615
-0.6
-0.595
-0.585
-0.585
-0.585
-0.575
-0.575
-0.585
-0.58
-0.59
-0.585
-0.575
-0.56
-0.55
-0.545
-0.535
-0.51
-0.49
-0.465
-0.435
-0.38
-0.31
-0.225
-0.11
0.025
0.175
0.365
0.565
0.745
0.905
1.055
1.17
1.31
1.47
1.635
1.735
1.71
1.53
1.185
0.76
0.275
-0.17
-0.53
-0.745
-0.86
-0.855
-0.815
-0.77
-0.73
-0.71
-0.7
-0.68
-0.69
-0.695
-0.715
-0.72
-0.725
-0.73
-0.74
-0.725
-0.725
-0.74
-0.725
-0.725
-0.725
-0.725
-0.735
-0.75
-0.76
-0.76
-0.765
-0.76
-0.765
-0.75
-0.755
-0.76
-0.76
-0.765
-0.775
-0.785
-0.795
-0.8
-0.82
-0.81
-0.805
-0.805
-0.795
-0.8
-0.8
-0.815
-0.825
-0.83
-0.84
-0.86
-0.86
-0.865
-0.865
-0.865
-0.86
-0.86
-0.86
-0.865
-0.875
-0.89
-0.9
-0.905
-0.915
-0.92
-0.91
-0.92
-0.925
-0.915
-0.93
-0.915
-0.92
-0.915
-0.915
-0.92
-0.925
-0.92
-0.92
-0.895
-0.885
-0.875
-0.86
-0.855
-0.85
-0.85
-0.84
-0.84
-0.825
-0.81
-0.785
-0.765
-0.73
-0.71
-0.695
-0.695
-0.67
-0.67
-0.665
-0.66
-0.645
-0.635
-0.62
-0.615
-0.605
-0.6
-0.585
-0.595
-0.59
-0.6
-0.605
-0.62
-0.625
-0.605
-0.615
-0.6
-0.605
-0.6
-0.6
-0.615
-0.61
-0.625
-0.63
-0.64
-0.64
-0.64
-0.645
-0.63
-0.635
-0.625
-0.635
-0.64
-0.64
-0.65
-0.67
-0.69
-0.69
-0.68
-0.675
-0.675
-0.685
-0.665
-0.675
-0.675
-0.685
-0.68
-0.69
-0.7
-0.7
-0.71
-0.695
-0.685
-0.685
-0.675
-0.675
-0.685
-0.685
-0.7
-0.71
-0.695
-0.695
-0.69
-0.68
-0.675
-0.665
-0.65
-0.65
-0.64
-0.64
-0.63
-0.635
-0.635
-0.625
-0.625
-0.615
-0.605
-0.585
-0.575
-0.58
-0.575
-0.57
-0.56
-0.545
-0.53
-0.525
-0.52
-0.5
-0.485
-0.48
-0.475
-0.48
-0.49
-0.5
-0.505
-0.515
-0.535
-0.555
-0.575
-0.575
-0.595
-0.59
-0.605
-0.61
-0.635
-0.65
-0.66
-0.675
-0.69
-0.69
-0.68
-0.67
-0.675
-0.66
-0.655
-0.655
-0.66
-0.665
-0.66
-0.66
-0.665
-0.655
-0.65
-0.64
-0.635
-0.625
-0.62
-0.61
-0.605
-0.585
-0.565
-0.535
-0.5
-0.425
-0.355
-0.265
-0.165
-0.065
0.06
0.215
0.37
0.535
0.7
0.825
0.96
1.09
1.23
1.395
1.55
1.63
1.555
1.295
0.87
0.335
-0.185
-0.595
-0.87
-0.98
-0.98
-0.92
-0.835
-0.79
-0.74
-0.735
-0.73
-0.74
-0.76
-0.765
-0.79
-0.795
-0.81
-0.795
-0.79
-0.795
-0.785
-0.795
-0.795
-0.805
-0.815
-0.825
-0.83
-0.83
-0.835
-0.825
-0.835
-0.81
-0.815
-0.82
-0.82
-0.835
-0.84
-0.855
-0.86
-0.855
-0.865
-0.855
-0.85
-0.845
-0.86
-0.85
-0.855
-0.86
-0.875
-0.895
-0.89
-0.895
-0.9
-0.885
-0.875
-0.875
-0.875
-0.88
-0.895
-0.905
-0.925
-0.925
-0.935
-0.93
-0.94
-0.93
-0.935
-0.92
-0.93
-0.93
-0.94
-0.94
-0.945
-0.955
-0.965
-0.96
-0.95
-0.955
-0.945
-0.95
-0.935
-0.93
-0.93
-0.93
-0.935
-0.925
-0.92
-0.91
-0.9
-0.88
-0.875
-0.845
-0.83
-0.81
-0.8
-0.795
-0.78
-0.77
-0.755
-0.73
-0.72
-0.71
-0.68
-0.665
-0.645
-0.635
-0.635
-0.64
-0.655
-0.65
-0.655
-0.66
-0.65
-0.63
-0.625
-0.62
-0.615
-0.62
-0.63
-0.64
-0.645
-0.655
-0.665
-0.66
-0.655
-0.635
-0.635
-0.635
-0.635
-0.645
-0.655
-0.655
-0.655
-0.665
-0.67
-0.67
-0.67
-0.67
-0.675
-0.665
-0.67
-0.67
-0.685
-0.7
-0.69
-0.7
-0.705
-0.705
-0.705
-0.705
-0.695
-0.695
-0.695
-0.695
-0.7
-0.71
-0.72
-0.73
-0.745
-0.73
-0.725
-0.73
-0.72
-0.71
-0.7
-0.705
-0.7
-0.695
-0.705
-0.705
-0.715
-0.7
-0.7
-0.685
-0.67
-0.64
-0.635
-0.625
-0.63
-0.635
-0.63
-0.63
-0.63
-0.615
-0.59
-0.595
-0.57
-0.545
-0.525
-0.515
-0.51
-0.505
-0.505
-0.5
-0.5
-0.505
-0.505
-0.495
-0.495
-0.505
-0.51
-0.525
-0.545
-0.57
-0.59
-0.61
-0.615
-0.63
-0.635
-0.64
-0.66
-0.665
-0.67
-0.655
-0.655
-0.66
-0.675
-0.665
-0.67
-0.66
-0.665
-0.675
-0.655
-0.645
-0.635
-0.645
-0.625
-0.625
-0.62
-0.625
-0.6
-0.57
-0.53
-0.47
-0.385
-0.285
-0.145
0.015
0.22
0.44
0.66
0.85
1.03
1.195
1.38
1.55
1.64
1.56
1.28
0.825
0.255
-0.27
-0.69
-0.92
-1.015
-0.975
-0.9
-0.82
-0.75
-0.715
-0.715
-0.715
-0.725
-0.74
-0.755
-0.76
-0.79
-0.775
-0.77
-0.795
-0.795
-0.77
-0.75
-0.755
-0.77
-0.76
-0.78
-0.79
-0.795
-0.805
-0.825
-0.795
-0.795
-0.79
-0.775
-0.77
-0.785
-0.79
-0.8
-0.81
-0.815
-0.83
-0.83
-0.815
-0.82
-0.825
-0.825
-0.825
-0.825
-0.845
-0.845
-0.855
-0.86
-0.865
-0.87
-0.875
-0.87
-0.875
-0.865
-0.88
-0.885
-0.895
-0.895
-0.92
-0.915
-0.915
-0.925
-0.92
-0.91
-0.9
-0.89
-0.89
-0.885
-0.885
-0.895
-0.89
-0.89
-0.885
-0.89
-0.875
-0.855
-0.83
-0.8
-0.795
-0.785
-0.78
-0.765
-0.76
-0.745
-0.745
-0.725
-0.695
-0.68
-0.65
-0.635
-0.625
-0.605
-0.605
-0.605
-0.61
-0.605
-0.605
-0.595
-0.575
-0.57
-0.58
-0.57
-0.585
-0.575
-0.575
-0.59
-0.595
-0.595
-0.585
-0.6
-0.585
-0.595
-0.59
-0.585
-0.58
-0.58
-0.58
-0.605
-0.62
-0.61
-0.62
-0.615
-0.61
-0.61
-0.59
-0.59
-0.6
-0.59
-0.6
-0.625
-0.615
-0.635
-0.65
-0.63
-0.63
-0.635
-0.635
-0.62
-0.625
-0.625
-0.645
-0.66
-0.66
-0.655
-0.67
-0.665
-0.665
-0.655
-0.655
-0.645
-0.65
-0.65
-0.645
-0.66
-0.67
-0.675
-0.67
-0.665
-0.655
-0.65
-0.635
-0.635
-0.625
-0.625
-0.63
-0.625
-0.64
-0.64
-0.625
-0.625
-0.605
-0.595
-0.58
-0.565
-0.56
-0.56
-0.56
-0.565
-0.565
-0.56
-0.555
-0.55
-0.545
-0.53
-0.515
-0.5
-0.49
-0.48
-0.475
-0.47
-0.465
-0.47
-0.46
-0.45
-0.455
-0.455
-0.455
-0.46
-0.475
-0.5
-0.51
-0.545
-0.545
-0.57
-0.575
-0.6
-0.605
-0.62
-0.625
-0.625
-0.62
-0.625
-0.62
-0.62
-0.63
-0.63
-0.64
-0.635
-0.635
-0.62
-0.61
-0.6
-0.59
-0.585
-0.585
-0.59
-0.575
-0.57
-0.57
-0.54
-0.52
-0.465
-0.4
-0.315
-0.22
-0.115
0.015
0.18
0.39
0.61
0.805
0.99
1.15
1.315
1.48
1.61
1.585
1.38
0.995
0.475
-0.055
-0.52
-0.82
-0.965
-0.99
-0.945
-0.85
-0.77
-0.715
-0.69
-0.68
-0.685
-0.725
-0.74
-0.75
-0.765
-0.765
-0.76
-0.735
-0.73
-0.73
-0.73
-0.74
-0.755
-0.755
-0.78
-0.77
-0.775
-0.775
-0.78
-0.77
-0.755
-0.765
-0.77
-0.775
-0.795
-0.805
-0.815
-0.835
-0.835
-0.82
-0.82
-0.805
-0.805
-0.805
-0.81
-0.825
-0.835
-0.86
-0.865
-0.86
-0.87
-0.865
-0.865
-0.855
-0.855
-0.84
-0.855
-0.855
-0.885
-0.89
-0.895
-0.885
-0.89
-0.875
-0.88
-0.875
-0.875
-0.86
-0.855
-0.855
-0.85
-0.85
-0.835
-0.83
-0.815
-0.81
-0.785
-0.775
-0.75
-0.74
-0.735
-0.705
-0.685
-0.675
-0.65
-0.655
-0.625
-0.6
-0.57
-0.555
-0.54
-0.535
-0.53
-0.525
-0.535
-0.535
-0.54
-0.545
-0.56
-0.565
-0.545
-0.55
-0.545
-0.555
-0.535
-0.545
-0.545
-0.555
-0.57
-0.57
-0.58
-0.575
-0.575
-0.575
-0.565
-0.565
-0.565
-0.575
-0.575
-0.59
-0.59
-0.595
-0.605
-0.6
-0.605
-0.61
-0.59
-0.6
-0.595
-0.61
-0.61
-0.625
-0.635
-0.625
-0.63
-0.64
-0.63
-0.615
-0.615
-0.61
-0.605
-0.62
-0.63
-0.635
-0.65
-0.635
-0.64
-0.64
-0.635
-0.63
-0.62
-0.615
-0.615
-0.615
-0.625
-0.635
-0.63
-0.63
-0.625
-0.61
-0.605
-0.585
-0.595
-0.565
-0.56
-0.56
-0.56
-0.56
-0.555
-0.55
-0.555
-0.535
-0.515
-0.51
-0.49
-0.475
-0.475
-0.46
-0.455
-0.455
-0.45
-0.45
-0.44
-0.44
-0.43
-0.445
-0.445
-0.45
-0.455
-0.48
-0.5
-0.53
-0.545
-0.555
-0.565
-0.575
-0.57
-0.56
-0.565
-0.585
-0.6
-0.605
-0.61
-0.62
-0.615
-0.61
-0.615
-0.6
-0.59
-0.59
-0.575
-0.575
-0.58
-0.57
-0.58
-0.58
-0.58
-0.575
-0.56
-0.56
-0.54
-0.515
-0.48
-0.425
-0.375
-0.305
-0.215
-0.09
0.08
0.265
0.49
0.715
0.9
1.05
1.185
1.295
1.44
1.555
1.6
1.475
1.145
0.66
0.105
-0.38
-0.735
-0.93
-0.965
-0.92
-0.83
-0.75
-0.695
-0.67
-0.66
-0.67
-0.68
-0.685
-0.695
-0.7
-0.685
-0.685
-0.69
-0.69
-0.695
-0.705
-0.715
-0.725
-0.725
-0.71
-0.715
-0.705
-0.705
-0.705
-0.71
-0.72
-0.72
-0.73
-0.74
-0.745
-0.74
-0.735
-0.74
-0.745
-0.73
-0.73
-0.74
-0.745
-0.745
-0.75
-0.775
-0.77
-0.765
-0.775
-0.785
-0.795
-0.775
-0.79
-0.795
-0.795
-0.8
-0.815
-0.815
-0.825
-0.815
-0.825
-0.82
-0.825
-0.82
-0.825
-0.825
-0.835
-0.845
-0.845
-0.85
-0.855
-0.85
-0.84
-0.83
-0.82
-0.8
-0.79
-0.785
-0.78
-0.775
-0.765
-0.765
-0.76
-0.745
-0.725
-0.71
-0.685
-0.655
-0.635
-0.63
-0.615
-0.62
-0.605
-0.595
-0.585
-0.575
-0.555
-0.54
-0.52
-0.51
-0.49
-0.48
-0.48
-0.49
-0.495
-0.48
-0.49
-0.485
-0.49
-0.485
-0.485
-0.47
-0.47
-0.475
-0.485
-0.49
-0.51
-0.505
-0.5
-0.49
-0.49
-0.5
-0.495
-0.495
-0.49
-0.49
-0.495
-0.505
-0.515
-0.52
-0.52
-0.53
-0.525
-0.52
-0.52
-0.51
-0.52
-0.52
-0.54
-0.54
-0.56
-0.565
-0.58
-0.565
-0.57
-0.56
-0.555
-0.56
-0.56
-0.565
-0.57
-0.585
-0.59
-0.6
-0.595
-0.6
-0.605
-0.575
-0.585
-0.58
-0.57
-0.575
-0.58
-0.575
-0.585
-0.59
-0.585
-0.585
-0.585
-0.575
-0.565
-0.56
-0.555
-0.545
-0.54
-0.545
-0.54
-0.55
-0.56
-0.535
-0.535
-0.52
-0.5
-0.495
-0.5
-0.485
-0.48
-0.485
-0.485
-0.49
-0.485
-0.46
-0.46
-0.435
-0.415
-0.405
-0.395
-0.41
-0.395
-0.4
-0.39
-0.395
-0.395
-0.405
-0.4
-0.4
-0.415
-0.41
-0.42
-0.43
-0.45
-0.465
-0.475
-0.495
-0.51
-0.52
-0.54
-0.55
-0.555
-0.555
-0.545
-0.56
-0.565
-0.565
-0.57
-0.575
-0.565
-0.565
-0.56
-0.555
-0.55
-0.54
-0.535
-0.535
-0.54
-0.53
-0.545
-0.53
-0.515
-0.52
-0.495
-0.48
-0.445
-0.395
-0.34
-0.28
-0.205
-0.11
-0.01
0.125
0.275
0.435
0.63
0.8
0.945
1.085
1.22
1.35
1.49
1.63
1.73
1.71
1.52
1.19
0.76
0.295
-0.145
-0.47
-0.69
-0.79
-0.805
-0.785
-0.755
-0.72
-0.705
-0.705
-0.69
-0.68
-0.675
-0.665
-0.665
-0.665
-0.67
-0.675
-0.7
-0.71
-0.725
-0.725
-0.715
-0.705
-0.705
-0.7
-0.695
-0.695
-0.715
-0.73
-0.735
-0.74
-0.76
-0.735
-0.745
-0.735
-0.74
-0.735
-0.725
-0.74
-0.745
-0.755
-0.77
-0.78
-0.79
-0.785
-0.79
-0.785
-0.795
-0.78
-0.77
-0.78
-0.79
-0.785
-0.795
-0.81
-0.82
-0.82
-0.82
-0.815
-0.815
-0.825
-0.82
-0.835
-0.835
-0.865
-0.87
-0.87
-0.875
-0.875
-0.875
-0.88
-0.88
-0.865
-0.86
-0.865
-0.875
-0.87
-0.875
-0.875
-0.87
-0.865
-0.865
-0.85
-0.835
-0.82
-0.805
-0.8
-0.79
-0.795
-0.785
-0.765
-0.755
-0.735
-0.715
-0.695
-0.675
-0.645
-0.63
-0.605
-0.595
-0.59
-0.595
-0.59
-0.585
-0.575
-0.58
-0.575
-0.565
-0.545
-0.54
-0.555
-0.56
-0.57
-0.565
-0.59
-0.61
-0.585
-0.585
-0.58
-0.58
-0.56
-0.57
-0.565
-0.575
-0.59
-0.59
-0.59
-0.6
-0.59
-0.59
-0.595
-0.605
-0.595
-0.61
-0.615
-0.615
-0.61
-0.635
-0.65
-0.65
-0.64
-0.64
-0.64
-0.645
-0.625
-0.635
-0.63
-0.64
-0.65
-0.655
-0.67
-0.67
-0.67
-0.665
-0.655
-0.65
-0.65
-0.65
-0.65
-0.66
-0.655
-0.67
-0.67
-0.66
-0.66
-0.655
-0.645
-0.635
-0.615
-0.61
-0.595
-0.595
-0.595
-0.595
-0.595
-0.595
-0.59
-0.58
-0.565
-0.56
-0.535
-0.535
-0.52
-0.52
-0.505
-0.49
-0.485
-0.475
-0.485
-0.47
-0.46
-0.445
-0.43
-0.445
-0.465
-0.475
-0.48
-0.505
-0.505
-0.53
-0.545
-0.56
-0.565
-0.57
-0.58
-0.595
-0.615
-0.625
-0.64
-0.645
-0.66
-0.635
-0.635
-0.625
-0.63
-0.62
-0.615
-0.615
-0.615
-0.61
-0.615
-0.605
-0.62
-0.615
-0.61
-0.6
-0.595
-0.57
-0.55
-0.535
-0.5
-0.465
-0.43
-0.355
-0.28
-0.195
-0.09
0.035
0.215
0.395
0.605
0.79
0.965
1.13
1.28
1.435
1.575
1.59
1.45
1.12
0.68
0.195
-0.255
-0.58
-0.78
-0.86
-0.88
-0.82
-0.79
-0.76
-0.745
-0.725
-0.725
-0.72
-0.725
-0.72
-0.73
-0.725
-0.735
-0.745
-0.755
-0.775
-0.77
-0.765
-0.755
-0.76
-0.755
-0.765
-0.765
-0.765
-0.78
-0.78
-0.795
-0.795
-0.805
-0.8
-0.8
-0.79
-0.785
-0.78
-0.795
-0.795
-0.8
-0.81
-0.815
-0.825
-0.845
-0.845
-0.835
-0.825
-0.82
-0.82
-0.825
-0.84
-0.855
-0.855
-0.875
-0.875
-0.885
-0.88
-0.885
-0.87
-0.88
-0.885
-0.88
-0.895
-0.9
-0.9
-0.92
-0.925
-0.935
-0.93
-0.925
-0.93
-0.93
-0.92
-0.935
-0.935
-0.93
-0.94
-0.94
-0.93
-0.925
-0.905
-0.895
-0.885
-0.865
-0.85
-0.84
-0.835
-0.825
-0.815
-0.81
-0.815
-0.775
-0.76
-0.74
-0.71
-0.695
-0.675
-0.67
-0.65
-0.645
-0.64
-0.64
-0.635
-0.615
-0.62
-0.62
-0.625
-0.595
-0.595
-0.605
-0.6
-0.605
-0.61
-0.625
-0.62
-0.625
-0.625
-0.615
-0.62
-0.605
-0.615
-0.62
-0.62
-0.625
-0.635
-0.65
-0.65
-0.645
-0.64
-0.65
-0.645
-0.64
-0.645
-0.64
-0.655
-0.665
-0.67
-0.67
-0.675
-0.68
-0.67
-0.67
-0.67
-0.66
-0.67
-0.665
-0.67
-0.685
-0.685
-0.69
-0.685
-0.7
-0.7
-0.7
-0.695
-0.685
-0.685
-0.675
-0.675
-0.665
-0.67
-0.675
