Lead II
-0.17
-0.15
-0.14
-0.145
-0.16
-0.175
-0.16
-0.165
-0.15
-0.16
-0.165
-0.175
-0.175
-0.175
-0.15
-0.16
-0.17
-0.165
-0.18
-0.165
-0.16
-0.16
-0.175
-0.18
-0.19
-0.185
-0.165
-0.165
-0.17
-0.185
-0.195
-0.17
-0.155
-0.15
-0.17
-0.195
-0.185
-0.17
-0.16
-0.165
-0.17
-0.19
-0.185
-0.17
-0.155
-0.15
-0.155
-0.175
-0.17
-0.16
-0.145
-0.145
-0.16
-0.17
-0.185
-0.165
-0.16
-0.17
-0.17
-0.17
-0.18
-0.175
-0.155
-0.145
-0.16
-0.185
-0.175
-0.18
-0.155
-0.145
-0.165
-0.195
-0.165
-0.16
-0.15
-0.155
-0.155
-0.165
-0.175
-0.145
-0.14
-0.13
-0.155
-0.16
-0.16
-0.15
-0.13
-0.135
-0.15
-0.135
-0.155
-0.135
-0.135
-0.12
-0.13
-0.15
-0.15
-0.14
-0.115
-0.12
-0.145
-0.15
-0.14
-0.135
-0.12
-0.125
-0.13
-0.145
-0.145
-0.13
-0.135
-0.11
-0.11
-0.135
-0.135
-0.125
-0.115
-0.1
-0.11
-0.135
-0.12
-0.115
-0.105
-0.1
-0.1
-0.125
-0.125
-0.11
-0.115
-0.105
-0.1
-0.12
-0.13
-0.11
-0.09
-0.09
-0.1
-0.09
-0.095
-0.055
-0.03
-0.025
-0.04
-0.065
-0.035
-0.02
0.005
0.005
-0.02
-0.04
-0.035
-0.035
-0.005
-0.005
-0.02
-0.06
-0.07
-0.075
-0.075
-0.08
-0.09
-0.105
-0.1
-0.09
-0.07
-0.07
-0.08
-0.085
-0.09
-0.065
-0.065
-0.055
-0.07
-0.07
-0.075
-0.07
-0.05
-0.05
-0.055
-0.065
-0.06
-0.08
-0.075
-0.115
-0.15
-0.185
-0.17
-0.075
0.1
0.41
0.85
1.34
1.81
2.145
2.29
2.195
1.775
1.135
0.495
-0.145
-0.39
-0.27
-0.205
-0.21
-0.24
-0.235
-0.2
-0.18
-0.155
-0.14
-0.085
-0.02
0.015
0.025
0.01
0.0
0.005
0.02
0.03
0.035
0.005
0.0
0.01
0.02
0.05
0.045
0.045
0.035
0.03
0.04
0.06
0.055
0.06
0.04
0.05
0.07
0.08
0.08
0.07
0.045
0.045
0.075
0.09
0.1
0.075
0.075
0.08
0.095
0.11
0.11
0.105
0.095
0.09
0.105
0.135
0.135
0.13
0.12
0.13
0.145
0.165
0.16
0.175
0.165
0.17
0.185
0.21
0.215
0.205
0.21
0.215
0.23
0.26
0.26
0.265
0.26
0.26
0.285
0.31
0.34
0.325
0.325
0.355
0.375
0.405
0.42
0.425
0.44
0.45
0.485
0.52
0.55
0.555
0.565
0.595
0.635
0.67
0.685
0.7
0.72
0.745
0.785
0.82
0.845
0.85
0.87
0.88
0.925
0.955
0.985
0.985
1.0
0.99
1.015
1.05
1.05
1.025
0.97
0.96
0.93
0.89
0.84
0.78
0.705
0.645
0.585
0.55
0.48
0.395
0.34
0.285
0.25
0.22
0.175
0.115
0.075
0.035
0.025
0.02
0.005
-0.025
-0.065
-0.075
-0.07
-0.07
-0.075
-0.095
-0.11
-0.115
-0.105
-0.09
-0.1
-0.125
-0.135
-0.14
-0.135
-0.115
-0.12
-0.125
-0.145
-0.135
-0.13
-0.115
-0.125
-0.135
-0.16
-0.15
-0.145
-0.13
-0.125
-0.125
-0.145
-0.155
-0.155
-0.14
-0.125
-0.14
-0.15
-0.15
-0.12
-0.125
-0.11
-0.125
-0.14
-0.15
-0.13
-0.125
-0.115
-0.135
-0.155
-0.16
-0.135
-0.125
-0.125
-0.135
-0.145
-0.16
-0.16
-0.14
-0.135
-0.15
-0.175
-0.17
-0.165
-0.15
-0.16
-0.175
-0.185
-0.185
-0.165
-0.17
-0.16
-0.185
-0.185
-0.19
-0.185
-0.17
-0.18
-0.185
-0.2
-0.22
-0.205
-0.185
-0.2
-0.205
-0.225
-0.215
-0.21
-0.195
-0.2
-0.2
-0.215
-0.225
-0.205
-0.19
-0.2
-0.215
-0.23
-0.22
-0.22
-0.2
-0.205
-0.21
-0.225
-0.235
-0.22
-0.22
-0.215
-0.22
-0.225
-0.245
-0.225
-0.205
-0.215
-0.235
-0.24
-0.245
-0.225
-0.205
-0.205
-0.225
-0.24
-0.235
-0.22
-0.22
-0.225
-0.235
-0.245
-0.25
-0.23
-0.22
-0.23
-0.245
-0.24
-0.235
-0.225
-0.21
-0.225
-0.245
-0.245
-0.23
-0.23
-0.205
-0.23
-0.235
-0.245
-0.25
-0.225
-0.215
-0.22
-0.23
-0.235
-0.235
-0.24
-0.215
-0.225
-0.245
-0.26
-0.26
-0.245
-0.215
-0.235
-0.245
-0.24
-0.245
-0.25
-0.235
-0.23
-0.24
-0.25
-0.255
-0.25
-0.22
-0.205
-0.195
-0.21
-0.19
-0.18
-0.165
-0.17
-0.18
-0.165
-0.16
-0.165
-0.145
-0.16
-0.175
-0.175
-0.195
-0.175
-0.17
-0.195
-0.22
-0.235
-0.25
-0.24
-0.22
-0.225
-0.235
-0.24
-0.25
-0.225
-0.21
-0.21
-0.225
-0.245
-0.235
-0.225
-0.205
-0.22
-0.23
-0.23
-0.225
-0.225
-0.195
-0.2
-0.265
-0.285
-0.33
-0.34
-0.335
-0.285
-0.155
0.105
0.54
1.025
1.465
1.775
1.92
1.94
1.72
1.225
0.585
-0.055
-0.55
-0.565
-0.43
-0.38
-0.375
-0.4
-0.41
-0.4
-0.365
-0.305
-0.23
-0.205
-0.195
-0.195
-0.205
-0.19
-0.175
-0.18
-0.185
-0.19
-0.195
-0.18
-0.175
-0.16
-0.165
-0.175
-0.17
-0.17
-0.145
-0.16
-0.16
-0.17
-0.165
-0.17
-0.13
-0.145
-0.14
-0.165
-0.185
-0.155
-0.13
-0.13
-0.14
-0.155
-0.155
-0.13
-0.115
-0.115
-0.12
-0.14
-0.135
-0.11
-0.105
-0.095
-0.105
-0.11
-0.1
-0.095
-0.065
-0.05
-0.07
-0.07
-0.07
-0.055
-0.02
-0.02
-0.035
-0.035
-0.02
-0.005
0.01
0.025
0.02
0.025
0.035
0.055
0.095
0.08
0.085
0.1
0.125
0.15
0.19
0.2
0.21
0.22
0.235
0.255
0.295
0.32
0.34
0.35
0.39
0.42
0.465
0.475
0.5
0.525
0.545
0.57
0.615
0.63
0.65
0.67
0.685
0.72
0.755
0.775
0.765
0.745
0.74
0.745
0.73
0.7
0.645
0.585
0.52
0.48
0.435
0.365
0.295
0.235
0.17
0.125
0.085
0.02
-0.035
-0.11
-0.15
-0.185
-0.185
-0.23
-0.26
-0.29
-0.31
-0.31
-0.295
-0.315
-0.35
-0.375
-0.365
-0.365
-0.36
-0.375
-0.395
-0.395
-0.405
-0.41
-0.38
-0.4
-0.405
-0.41
-0.425
-0.42
-0.4
-0.39
-0.415
-0.42
-0.42
-0.41
-0.395
-0.405
-0.415
-0.43
-0.42
-0.4
-0.385
-0.395
-0.405
-0.435
-0.425
-0.405
-0.39
-0.395
-0.405
-0.41
-0.41
-0.405
-0.385
-0.38
-0.405
-0.41
-0.415
-0.41
-0.395
-0.405
-0.41
-0.415
-0.425
-0.405
-0.39
-0.405
-0.415
-0.43
-0.42
-0.415
-0.425
-0.43
-0.44
-0.445
-0.45
-0.44
-0.42
-0.435
-0.435
-0.445
-0.47
-0.445
-0.44
-0.44
-0.455
-0.465
-0.475
-0.46
-0.44
-0.45
-0.465
-0.47
-0.465
-0.455
-0.43
-0.44
-0.46
-0.475
-0.465
-0.445
-0.435
-0.445
-0.47
-0.48
-0.47
-0.455
-0.44
-0.455
-0.47
-0.48
-0.465
-0.46
-0.44
-0.44
-0.455
-0.48
-0.485
-0.46
-0.455
-0.46
-0.48
-0.485
-0.48
-0.46
-0.45
-0.46
-0.485
-0.485
-0.475
-0.455
-0.46
-0.46
-0.475
-0.485
-0.475
-0.46
-0.455
-0.455
-0.48
-0.49
-0.49
-0.485
-0.475
-0.47
-0.495
-0.495
-0.495
-0.485
-0.465
-0.47
-0.485
-0.5
-0.5
-0.47
-0.47
-0.47
-0.48
-0.49
-0.485
-0.48
-0.465
-0.465
-0.48
-0.5
-0.49
-0.485
-0.46
-0.46
-0.47
-0.495
-0.485
-0.475
-0.445
-0.455
-0.475
-0.47
-0.465
-0.48
-0.45
-0.46
-0.48
-0.49
-0.485
-0.45
-0.445
-0.45
-0.46
-0.48
-0.47
-0.455
-0.435
-0.435
-0.44
-0.435
-0.435
-0.405
-0.375
-0.38
-0.38
-0.395
-0.39
-0.375
-0.355
-0.355
-0.38
-0.395
-0.395
-0.385
-0.375
-0.38
-0.395
-0.405
-0.425
-0.42
-0.425
-0.43
-0.455
-0.48
-0.465
-0.45
-0.435
-0.45
-0.465
-0.47
-0.465
-0.455
-0.425
-0.43
-0.45
-0.45
-0.455
-0.425
-0.41
-0.415
-0.415
-0.435
-0.435
-0.415
-0.395
-0.42
-0.465
-0.51
-0.535
-0.535
-0.525
-0.475
-0.37
-0.15
0.26
0.76
1.245
1.625
1.855
1.945
1.855
1.51
0.87
0.23
-0.41
-0.785
-0.71
-0.615
-0.575
-0.59
-0.62
-0.6
-0.575
-0.53
-0.47
-0.42
-0.395
-0.385
-0.385
-0.36
-0.35
-0.355
-0.365
-0.38
-0.39
-0.36
-0.345
-0.34
-0.365
-0.36
-0.365
-0.355
-0.335
-0.33
-0.335
-0.355
-0.345
-0.335
-0.32
-0.315
-0.32
-0.33
-0.33
-0.32
-0.305
-0.3
-0.305
-0.34
-0.32
-0.305
-0.275
-0.275
-0.285
-0.295
-0.295
-0.27
-0.26
-0.25
-0.255
-0.255
-0.265
-0.225
-0.215
-0.22
-0.22
-0.225
-0.205
-0.18
-0.16
-0.155
-0.155
-0.16
-0.135
-0.105
-0.07
-0.065
-0.065
-0.065
-0.035
-0.015
0.005
0.045
0.045
0.075
0.1
0.145
0.17
0.205
0.22
0.26
0.29
0.34
0.375
0.41
0.435
0.46
0.495
0.535
0.575
0.61
0.625
0.65
0.675
0.705
0.735
0.74
0.745
0.735
0.72
0.715
0.695
0.64
0.6
0.53
0.475
0.42
0.365
0.275
0.195
0.125
0.045
-0.005
-0.035
-0.1
-0.16
-0.21
-0.255
-0.265
-0.285
-0.32
-0.345
-0.375
-0.39
-0.39
-0.395
-0.41
-0.425
-0.46
-0.45
-0.445
-0.44
-0.455
-0.465
-0.485
-0.48
-0.465
-0.465
-0.47
-0.475
-0.49
-0.49
-0.485
-0.465
-0.47
-0.48
-0.485
-0.485
-0.475
-0.465
-0.465
-0.48
-0.485
-0.48
-0.46
-0.45
-0.455
-0.465
-0.485
-0.48
-0.46
-0.45
-0.46
-0.47
-0.47
-0.465
-0.46
-0.455
-0.46
-0.48
-0.48
-0.475
-0.455
-0.44
-0.43
-0.46
-0.475
-0.465
-0.46
-0.45
-0.455
-0.46
-0.48
-0.475
-0.465
-0.455
-0.475
-0.495
-0.48
-0.485
-0.475
-0.46
-0.475
-0.48
-0.49
-0.49
-0.47
-0.46
-0.465
-0.485
-0.495
-0.5
-0.475
-0.475
-0.485
-0.505
-0.505
-0.5
-0.495
-0.48
-0.48
-0.485
-0.505
-0.48
-0.475
-0.47
-0.48
-0.5
-0.495
-0.505
-0.485
-0.475
-0.475
-0.48
-0.495
-0.49
-0.47
-0.47
-0.47
-0.475
-0.5
-0.495
-0.475
-0.465
-0.465
-0.49
-0.495
-0.485
-0.48
-0.465
-0.47
-0.495
-0.49
-0.485
-0.47
-0.465
-0.47
-0.48
-0.485
-0.485
-0.475
-0.46
-0.475
-0.49
-0.48
-0.48
-0.465
-0.46
-0.46
-0.47
-0.475
-0.475
-0.46
-0.445
-0.46
-0.485
-0.48
-0.47
-0.475
-0.45
-0.445
-0.465
-0.475
-0.47
-0.455
-0.435
-0.445
-0.47
-0.47
-0.455
-0.45
-0.435
-0.43
-0.46
-0.47
-0.465
-0.445
-0.435
-0.445
-0.44
-0.445
-0.46
-0.44
-0.42
-0.425
-0.445
-0.45
-0.435
-0.43
-0.415
-0.415
-0.435
-0.445
-0.445
-0.42
-0.415
-0.42
-0.425
-0.44
-0.44
-0.42
-0.41
-0.405
-0.415
-0.435
-0.425
-0.41
-0.38
-0.38
-0.385
-0.38
-0.36
-0.335
-0.335
-0.335
-0.345
-0.33
-0.325
-0.32
-0.305
-0.33
-0.335
-0.335
-0.35
-0.315
-0.31
-0.32
-0.345
-0.36
-0.365
-0.36
-0.36
-0.375
-0.385
-0.385
-0.39
-0.37
-0.36
-0.385
-0.385
-0.38
-0.375
-0.36
-0.355
-0.365
-0.37
-0.385
-0.365
-0.37
-0.36
-0.345
-0.345
-0.365
-0.335
-0.315
-0.295
-0.325
-0.335
-0.385
-0.405
-0.42
-0.415
-0.42
-0.405
-0.32
-0.115
0.2
0.62
1.1
1.535
1.85
1.995
1.995
1.795
1.365
0.79
0.205
-0.3
-0.525
-0.535
-0.48
-0.46
-0.465
-0.475
-0.45
-0.435
-0.41
-0.39
-0.355
-0.305
-0.255
-0.245
-0.23
-0.245
-0.235
-0.235
-0.215
-0.21
-0.21
-0.22
-0.225
-0.22
-0.22
-0.195
-0.205
-0.21
-0.215
-0.215
-0.2
-0.175
-0.17
-0.175
-0.195
-0.185
-0.185
-0.16
-0.155
-0.18
-0.17
-0.175
-0.155
-0.14
-0.13
-0.155
-0.16
-0.165
-0.14
-0.12
-0.125
-0.13
-0.13
-0.13
-0.115
-0.095
-0.11
-0.1
-0.105
-0.1
-0.085
-0.075
-0.065
-0.07
-0.07
-0.065
-0.04
-0.025
-0.01
-0.025
-0.025
-0.015
0.005
0.025
0.04
0.035
0.035
0.045
0.085
0.1
0.11
0.115
0.12
0.14
0.17
0.2
0.205
0.21
0.22
0.245
0.27
0.305
0.325
0.33
0.345
0.37
0.4
0.44
0.455
0.485
0.5
0.535
0.56
0.615
0.645
0.66
0.68
0.695
0.745
0.79
0.805
0.83
0.835
0.875
0.91
0.935
0.95
0.95
0.93
0.935
0.955
0.94
0.91
0.87
0.81
0.775
0.71
0.68
0.61
0.535
0.465
0.41
0.365
0.32
0.255
0.195
0.135
0.09
0.065
0.025
-0.005
-0.02
-0.08
-0.08
-0.09
-0.09
-0.1
-0.13
-0.15
-0.15
-0.135
-0.13
-0.15
-0.165
-0.175
-0.19
-0.17
-0.175
-0.175
-0.165
-0.195
-0.175
-0.175
-0.155
-0.16
-0.17
-0.175
-0.17
-0.16
-0.15
-0.145
-0.165
-0.17
-0.175
-0.155
-0.14
-0.14
-0.165
-0.165
-0.155
-0.145
-0.135
-0.15
-0.15
-0.165
-0.135
-0.125
-0.115
-0.115
-0.145
-0.145
-0.12
-0.12
-0.115
-0.115
-0.12
-0.125
-0.14
-0.12
-0.09
-0.115
-0.12
-0.135
-0.12
-0.135
-0.12
-0.125
-0.125
-0.15
-0.145
-0.13
-0.12
-0.115
-0.14
-0.14
-0.135
-0.13
-0.11
-0.115
-0.12
-0.125
-0.125
-0.12
-0.125
-0.11
-0.13
-0.14
-0.125
-0.12
-0.115
-0.125
-0.14
-0.145
-0.13
-0.125
-0.12
-0.125
-0.14
-0.14
-0.14
-0.13
-0.11
-0.115
-0.135
-0.14
-0.135
-0.135
-0.1
-0.115
-0.12
-0.13
-0.12
-0.13
-0.115
-0.105
-0.135
-0.14
-0.13
-0.115
-0.105
-0.105
-0.12
-0.15
-0.135
-0.115
-0.105
-0.105
-0.115
-0.125
-0.11
-0.09
-0.085
-0.095
-0.105
-0.115
-0.115
-0.115
-0.1
-0.1
-0.11
-0.115
-0.11
-0.105
-0.09
-0.09
-0.11
-0.1
-0.12
-0.115
-0.095
-0.1
-0.12
-0.105
-0.1
-0.085
-0.085
-0.115
-0.105
-0.115
-0.105
-0.105
-0.075
-0.09
-0.09
-0.105
-0.095
-0.08
-0.075
-0.085
-0.085
-0.11
-0.105
-0.075
-0.075
-0.08
-0.11
-0.105
-0.1
-0.075
-0.07
-0.075
-0.08
-0.1
-0.08
-0.06
-0.035
-0.03
-0.045
-0.045
-0.035
-0.035
0.0
0.005
-0.005
-0.015
-0.025
-0.015
-0.01
-0.015
-0.015
-0.02
-0.04
-0.035
-0.03
-0.045
-0.07
-0.105
-0.095
-0.085
-0.07
-0.075
-0.09
-0.095
-0.095
-0.085
-0.065
-0.08
-0.1
-0.095
-0.09
-0.085
-0.06
-0.07
-0.08
-0.09
-0.085
-0.06
-0.055
-0.06
-0.07
-0.09
-0.11
-0.135
-0.155
-0.19
-0.21
-0.18
-0.03
0.26
0.665
1.155
1.615
1.945
2.12
2.12
1.9
1.385
0.745
0.105
-0.405
-0.385
-0.265
-0.21
-0.23
-0.265
-0.26
-0.24
-0.205
-0.165
-0.13
-0.095
-0.045
-0.01
0.005
-0.02
-0.01
-0.01
-0.015
-0.005
0.015
0.0
-0.015
-0.015
-0.005
0.01
0.025
0.02
0.02
0.01
0.005
0.03
0.04
0.04
0.025
0.015
0.02
0.03
0.045
0.055
0.04
0.03
0.015
0.04
0.06
0.05
0.035
0.045
0.05
0.065
0.075
0.075
0.055
0.05
0.06
0.085
0.09
0.095
0.085
0.08
0.105
0.095
0.115
0.12
0.115
0.11
0.12
0.145
0.155
0.165
0.15
0.155
0.165
0.2
0.22
0.23
0.22
0.215
0.23
0.26
0.28
0.29
0.275
0.275
0.315
0.325
0.35
0.37
0.395
0.415
0.425
0.455
0.485
0.5
0.51
0.525
0.56
0.595
0.63
0.655
0.655
0.69
0.72
0.755
0.795
0.805
0.81
0.82
0.85
0.895
0.925
0.94
0.925
0.935
0.945
0.98
0.97
0.945
0.915
0.86
0.825
0.79
0.75
0.69
0.61
0.55
0.5
0.45
0.39
0.33
0.265
0.205
0.15
0.11
0.075
0.035
-0.025
-0.05
-0.065
-0.085
-0.105
-0.12
-0.15
-0.16
-0.175
-0.18
-0.18
-0.19
-0.195
-0.21
-0.215
-0.21
-0.2
-0.22
-0.235
-0.245
-0.245
-0.23
-0.215
-0.235
-0.245
-0.275
-0.27
-0.24
-0.23
-0.245
-0.265
-0.25
-0.255
-0.245
-0.235
-0.245
-0.25
-0.255
-0.255
-0.25
-0.245
-0.26
-0.27
-0.28
-0.27
-0.255
-0.245
-0.24
-0.265
-0.275
-0.27
-0.25
-0.26
-0.25
-0.27
-0.28
-0.285
-0.26
-0.235
-0.26
-0.275
-0.295
-0.27
-0.255
-0.265
-0.275
-0.27
-0.29
-0.285
-0.285
-0.27
-0.285
-0.295
-0.315
-0.305
-0.285
-0.3
-0.31
-0.31
-0.325
-0.32
-0.31
-0.3
-0.315
-0.33
-0.335
-0.315
-0.315
-0.32
-0.325
-0.325
-0.335
-0.335
-0.335
-0.325
-0.33
-0.335
-0.37
-0.355
-0.335
-0.335
-0.345
-0.36
-0.365
-0.35
-0.345
-0.33
-0.34
-0.36
-0.36
-0.36
-0.345
-0.35
-0.35
-0.365
-0.365
-0.36
-0.35
-0.34
-0.345
-0.365
-0.39
-0.37
-0.36
-0.36
-0.37
-0.375
-0.385
-0.38
-0.37
-0.36
-0.365
-0.39
-0.385
-0.385
-0.37
-0.36
-0.37
-0.405
-0.405
-0.385
-0.38
-0.365
-0.375
-0.39
-0.405
-0.39
-0.385
-0.385
-0.38
-0.395
-0.4
-0.395
-0.39
-0.38
-0.385
-0.39
-0.395
-0.39
-0.365
-0.37
-0.355
-0.355
-0.36
-0.35
-0.32
-0.305
-0.32
-0.335
-0.35
-0.325
-0.295
-0.285
-0.305
-0.315
-0.33
-0.315
-0.305
-0.305
-0.325
-0.355
-0.37
-0.375
-0.375
-0.385
-0.41
-0.43
-0.43
-0.43
-0.415
-0.42
-0.42
-0.415
-0.43
-0.42
-0.41
-0.415
-0.405
-0.41
-0.43
-0.42
-0.41
-0.39
-0.39
-0.39
-0.4
-0.395
-0.4
-0.42
-0.465
-0.525
-0.555
-0.525
-0.43
-0.235
0.12
0.61
1.125
1.57
1.845
1.91
1.725
1.21
0.57
-0.07
-0.71
-0.745
-0.625
-0.585
-0.605
-0.615
-0.605
-0.58
-0.54
-0.505
-0.46
-0.41
-0.365
-0.365
-0.37
-0.38
-0.39
-0.37
-0.36
-0.35
-0.355
-0.375
-0.375
-0.36
-0.345
-0.33
-0.35
-0.355
-0.365
-0.35
-0.335
-0.32
-0.32
-0.34
-0.35
-0.335
-0.33
-0.32
-0.32
-0.35
-0.355
-0.34
-0.305
-0.295
-0.295
-0.315
-0.32
-0.305
-0.285
-0.28
-0.29
-0.295
-0.3
-0.29
-0.28
-0.265
-0.265
-0.27
-0.27
-0.255
-0.23
-0.225
-0.235
-0.235
-0.23
-0.205
-0.185
-0.18
-0.175
-0.175
-0.17
-0.145
-0.125
-0.11
-0.095
-0.09
-0.08
-0.055
-0.025
0.01
0.04
0.02
0.055
0.1
0.135
0.18
0.2
0.21
0.245
0.27
0.32
0.36
0.385
0.395
0.42
0.455
0.495
0.525
0.55
0.55
0.575
0.6
0.63
0.655
0.655
0.655
0.635
0.63
0.615
0.595
0.555
0.49
0.435
0.39
0.335
0.275
0.21
0.135
0.035
0.005
-0.035
-0.085
-0.15
-0.21
-0.27
-0.295
-0.325
-0.36
-0.41
-0.44
-0.45
-0.465
-0.475
-0.49
-0.51
-0.54
-0.56
-0.55
-0.545
-0.55
-0.57
-0.585
-0.595
-0.6
-0.575
-0.58
-0.585
-0.61
-0.61
-0.6
-0.59
-0.585
-0.595
-0.62
-0.62
-0.63
-0.605
-0.595
-0.61
-0.61
-0.62
-0.615
-0.6
-0.595
-0.595
-0.615
-0.61
-0.605
-0.595
-0.595
-0.605
-0.615
-0.615
-0.605
-0.59
-0.595
-0.61
-0.615
-0.6
-0.61
-0.595
-0.595
-0.59
-0.6
-0.615
-0.605
-0.59
-0.595
-0.595
-0.625
-0.63
-0.62
-0.61
-0.615
-0.615
-0.63
-0.64
-0.63
-0.61
-0.61
-0.615
-0.625
-0.64
-0.63
-0.62
-0.62
-0.635
-0.645
-0.665
-0.655
-0.63
-0.635
-0.65
-0.65
-0.655
-0.645
-0.65
-0.64
-0.66
-0.665
-0.665
-0.66
-0.645
-0.635
-0.655
-0.65
-0.68
-0.665
-0.66
-0.64
-0.655
-0.675
-0.685
-0.67
-0.65
-0.655
-0.67
-0.67
-0.675
-0.655
-0.66
-0.645
-0.655
-0.67
-0.68
-0.665
-0.65
-0.64
-0.665
-0.685
-0.68
-0.68
-0.66
-0.645
-0.65
-0.675
-0.68
-0.685
-0.65
-0.645
-0.665
-0.675
-0.68
-0.675
-0.65
-0.67
-0.66
-0.675
-0.69
-0.67
-0.655
-0.66
-0.665
-0.685
-0.705
-0.675
-0.66
-0.655
-0.66
-0.69
-0.675
-0.67
-0.655
-0.65
-0.655
-0.665
-0.685
-0.67
-0.655
-0.64
-0.65
-0.67
-0.67
-0.67
-0.655
-0.64
-0.65
-0.68
-0.675
-0.665
-0.655
-0.64
-0.655
-0.67
-0.67
-0.67
-0.655
-0.65
-0.675
-0.66
-0.655
-0.65
-0.625
-0.605
-0.615
-0.63
-0.615
-0.6
-0.58
-0.57
-0.57
-0.58
-0.575
-0.58
-0.565
-0.57
-0.565
-0.58
-0.58
-0.58
-0.57
-0.575
-0.6
-0.62
-0.64
-0.64
-0.635
-0.625
-0.65
-0.655
-0.65
-0.645
-0.63
-0.63
-0.63
-0.645
-0.655
-0.635
-0.62
-0.625
-0.64
-0.635
-0.635
-0.62
-0.605
-0.595
-0.6
-0.605
-0.625
-0.635
-0.645
-0.675
-0.725
-0.755
-0.735
-0.695
-0.53
-0.295
0.03
0.435
0.875
1.275
1.585
1.76
1.755
1.51
0.95
0.31
-0.33
-0.925
-0.94
-0.835
-0.78
-0.775
-0.78
-0.775
-0.77
-0.75
-0.7
-0.635
-0.6
-0.545
-0.56
-0.585
-0.57
-0.575
-0.55
-0.545
-0.56
-0.575
-0.575
-0.56
-0.55
-0.535
-0.545
-0.555
-0.55
-0.54
-0.515
-0.515
-0.52
-0.535
-0.535
-0.525
-0.515
-0.49
-0.505
-0.525
-0.52
-0.51
-0.495
-0.475
-0.5
-0.5
-0.49
-0.485
-0.465
-0.47
-0.475
-0.475
-0.475
-0.475
-0.46
-0.45
-0.445
-0.46
-0.45
-0.44
-0.435
-0.425
-0.435
-0.445
-0.44
-0.415
-0.4
-0.39
-0.395
-0.395
-0.405
-0.375
-0.35
-0.33
-0.335
-0.335
-0.335
-0.325
-0.275
-0.27
-0.265
-0.27
-0.245
-0.23
-0.205
-0.18
-0.175
-0.165
-0.155
-0.12
-0.105
-0.07
-0.06
-0.04
-0.01
0.005
0.045
0.065
0.09
0.105
0.125
0.165
0.2
0.23
0.24
0.27
0.3
0.33
0.37
0.395
0.41
0.42
0.455
0.475
0.5
0.53
0.53
0.525
0.515
0.525
0.5
0.485
0.435
0.385
0.32
0.27
0.21
0.145
0.08
-0.01
-0.075
-0.13
-0.18
-0.225
-0.295
-0.365
-0.4
-0.415
-0.435
-0.465
-0.5
-0.525
-0.57
-0.575
-0.565
-0.575
-0.595
-0.62
-0.63
-0.625
-0.63
-0.635
-0.655
-0.665
-0.655
-0.655
-0.64
-0.645
-0.66
-0.665
-0.665
-0.665
-0.645
-0.66
-0.65
-0.67
-0.675
-0.67
-0.645
-0.65
-0.66
-0.67
-0.67
-0.665
-0.65
-0.65
-0.655
-0.68
-0.685
-0.665
-0.64
-0.63
-0.65
-0.655
-0.675
-0.665
-0.64
-0.635
-0.65
-0.655
-0.665
-0.65
-0.64
-0.63
-0.645
-0.655
-0.66
-0.65
-0.64
-0.635
-0.635
-0.66
-0.665
-0.65
-0.64
-0.65
-0.655
-0.67
-0.665
-0.665
-0.66
-0.655
-0.655
-0.665
-0.675
-0.665
-0.67
-0.655
-0.68
-0.68
-0.68
-0.67
-0.67
-0.67
-0.67
-0.665
-0.68
-0.665
-0.655
-0.65
-0.665
-0.685
-0.68
-0.675
-0.675
-0.66
-0.67
-0.675
-0.695
-0.675
-0.655
-0.65
-0.655
-0.675
-0.685
-0.675
-0.655
-0.66
-0.655
-0.67
-0.675
-0.665
-0.645
-0.65
-0.655
-0.675
-0.68
-0.665
-0.645
-0.65
-0.67
-0.67
-0.67
-0.665
-0.64
-0.64
-0.645
-0.665
-0.67
-0.65
-0.655
-0.645
-0.655
-0.68
-0.66
-0.66
-0.64
-0.635
-0.645
-0.65
-0.65
-0.645
-0.635
-0.645
-0.645
-0.66
-0.65
-0.63
-0.62
-0.625
-0.63
-0.645
-0.63
-0.635
-0.61
-0.615
-0.62
-0.63
-0.635
-0.63
-0.61
-0.62
-0.615
-0.635
-0.61
-0.62
-0.61
-0.595
-0.605
-0.62
-0.63
-0.61
-0.61
-0.615
-0.615
-0.635
-0.62
-0.61
-0.6
-0.595
-0.6
-0.6
-0.595
-0.585
-0.56
-0.555
-0.54
-0.555
-0.545
-0.525
-0.52
-0.51
-0.51
-0.525
-0.52
-0.52
-0.515
-0.52
-0.53
-0.54
-0.535
-0.54
-0.53
-0.55
-0.565
-0.585
-0.6
-0.59
-0.57
-0.565
-0.575
-0.585
-0.585
-0.56
-0.555
-0.55
-0.56
-0.575
-0.57
-0.57
-0.55
-0.54
-0.545
-0.545
-0.55
-0.525
-0.51
-0.51
-0.55
-0.6
-0.635
-0.645
-0.65
-0.625
-0.565
-0.42
-0.115
0.305
0.8
1.25
1.61
1.81
1.865
1.705
1.24
0.6
-0.04
-0.68
-0.88
-0.755
-0.67
-0.67
-0.695
-0.705
-0.69
-0.65
-0.605
-0.54
-0.5
-0.49
-0.485
-0.485
-0.465
-0.46
-0.47
-0.47
-0.475
-0.475
-0.45
-0.445
-0.455
-0.465
-0.455
-0.45
-0.435
-0.425
-0.445
-0.455
-0.43
-0.44
-0.42
-0.41
-0.41
-0.42
-0.415
-0.41
-0.395
-0.395
-0.4
-0.405
-0.41
-0.41
-0.39
-0.38
-0.385
-0.395
-0.39
-0.385
-0.36
-0.37
-0.365
-0.36
-0.37
-0.355
-0.33
-0.335
-0.335
-0.325
-0.33
-0.315
-0.295
-0.295
-0.285
-0.285
-0.28
-0.255
-0.25
-0.24
-0.23
-0.225
-0.23
-0.2
-0.18
-0.145
-0.16
-0.15
-0.14
-0.12
-0.09
-0.07
-0.07
-0.055
-0.04
-0.005
0.03
0.045
0.06
0.07
0.095
0.12
0.16
0.19
0.215
0.24
0.265
0.31
0.335
0.37
0.39
0.4
0.44
0.47
0.505
0.545
0.555
0.57
0.59
0.605
0.64
0.66
0.64
0.635
0.625
0.625
0.605
0.575
0.505
0.445
0.385
0.345
0.305
0.225
0.15
0.07
0.0
-0.06
-0.1
-0.155
-0.205
-0.27
-0.305
-0.335
-0.345
-0.36
-0.395
-0.43
-0.45
-0.45
-0.445
-0.47
-0.48
-0.5
-0.51
-0.505
-0.49
-0.49
-0.5
-0.525
-0.52
-0.505
-0.5
-0.5
-0.51
-0.515
-0.5
-0.5
-0.5
-0.51
-0.495
-0.54
-0.525
-0.515
-0.505
-0.495
-0.505
-0.52
-0.505
-0.49
-0.485
-0.485
-0.495
-0.5
-0.51
-0.49
-0.49
-0.495
-0.495
-0.52
-0.51
-0.48
-0.475
-0.475
-0.485
-0.5
-0.5
-0.5
-0.465
-0.48
-0.49
-0.505
-0.505
-0.505
-0.48
-0.48
-0.495
-0.5
-0.495
-0.495
-0.49
-0.5
-0.495
-0.505
-0.52
-0.51
-0.485
-0.48
-0.49
-0.51
-0.505
-0.505
-0.48
-0.485
-0.505
-0.52
-0.505
-0.51
-0.49
-0.49
-0.51
-0.515
-0.525
-0.515
-0.485
-0.49
-0.495
-0.515
-0.515
-0.51
-0.485
-0.49
-0.51
-0.53
-0.52
-0.5
-0.485
-0.49
-0.5
-0.51
-0.51
-0.5
-0.49
-0.485
-0.505
-0.51
-0.505
-0.505
-0.48
-0.49
-0.505
-0.52
-0.515
-0.495
-0.49
-0.485
-0.515
-0.515
-0.53
-0.51
-0.485
-0.49
-0.495
-0.515
-0.515
-0.505
-0.49
-0.49
-0.505
-0.505
-0.505
-0.475
-0.47
-0.47
-0.49
-0.49
-0.485
-0.495
-0.475
-0.48
-0.49
-0.505
-0.5
-0.5
-0.48
-0.47
-0.49
-0.485
-0.48
-0.465
-0.45
-0.455
-0.445
-0.45
-0.425
-0.405
-0.38
-0.395
-0.415
-0.4
-0.385
-0.385
-0.39
-0.385
-0.38
-0.41
-0.435
-0.43
-0.45
-0.44
-0.46
-0.49
-0.465
-0.465
-0.45
-0.44
-0.44
-0.455
-0.455
-0.445
-0.42
-0.425
-0.43
-0.435
-0.415
-0.4
-0.385
-0.41
-0.44
-0.49
-0.53
-0.525
-0.47
-0.325
-0.035
0.39
0.92
1.41
1.765
1.93
1.885
1.56
0.92
0.28
-0.36
-0.76
-0.66
-0.6
-0.575
-0.59
-0.585
-0.585
-0.56
-0.535
-0.485
-0.435
-0.385
-0.36
-0.365
-0.375
-0.36
-0.355
-0.34
-0.335
-0.35
-0.37
-0.35
-0.335
-0.31
-0.32
-0.325
-0.35
-0.335
-0.32
-0.305
-0.295
-0.295
-0.325
-0.325
-0.32
-0.295
-0.3
-0.315
-0.3
-0.31
-0.28
-0.27
-0.25
-0.27
-0.28
-0.28
-0.26
-0.245
-0.24
-0.25
-0.26
-0.25
-0.24
-0.22
-0.22
-0.225
-0.23
-0.225
-0.205
-0.195
-0.19
-0.195
-0.195
-0.22
-0.185
-0.155
-0.14
-0.145
-0.15
-0.15
-0.135
-0.115
-0.105
-0.1
-0.1
-0.08
-0.055
-0.035
-0.015
-0.015
-0.015
-0.005
0.03
0.055
0.055
0.075
0.08
0.105
0.135
0.17
0.195
0.205
0.21
0.23
0.28
0.325
0.36
0.365
0.385
0.415
0.455
0.49
0.52
0.54
0.555
0.58
0.62
0.655
0.685
0.69
0.685
0.71
0.725
0.75
0.74
0.705
0.705
0.69
0.66
0.63
0.585
0.525
0.465
0.385
0.34
0.295
0.235
0.16
0.085
0.03
-0.025
-0.055
-0.095
-0.145
-0.195
-0.23
-0.25
-0.265
-0.28
-0.305
-0.34
-0.37
-0.37
-0.345
-0.365
-0.4
-0.405
-0.425
-0.43
-0.41
-0.405
-0.43
-0.445
-0.44
-0.435
-0.415
-0.425
-0.435
-0.445
-0.445
-0.435
-0.425
-0.425
-0.43
-0.45
-0.445
-0.43
-0.425
-0.42
-0.425
-0.435
-0.44
-0.425
-0.41
-0.405
-0.415
-0.43
-0.42
-0.415
-0.415
-0.405
-0.415
-0.435
-0.425
-0.41
-0.405
-0.395
-0.425
-0.425
-0.415
-0.405
-0.395
-0.405
-0.405
-0.43
-0.43
-0.405
-0.395
-0.405
-0.43
-0.435
-0.425
-0.415
-0.41
-0.405
-0.42
-0.445
-0.425
-0.42
-0.405
-0.42
-0.425
-0.44
-0.44
-0.43
-0.42
-0.415
-0.43
-0.445
-0.44
-0.43
-0.415
-0.43
-0.425
-0.44
-0.44
-0.445
-0.425
-0.42
-0.445
-0.44
-0.44
-0.44
-0.425
-0.425
-0.425
-0.455
-0.44
-0.44
-0.425
-0.425
-0.445
-0.445
-0.445
-0.435
-0.425
-0.435
-0.45
-0.455
-0.455
-0.44
-0.425
-0.425
-0.43
-0.445
-0.445
-0.435
-0.42
-0.43
-0.44
-0.445
-0.445
-0.435
-0.425
-0.415
-0.425
-0.435
-0.44
-0.43
-0.43
-0.43
-0.435
-0.445
-0.44
-0.415
-0.405
-0.425
-0.415
-0.425
-0.425
-0.415
-0.4
-0.375
-0.375
-0.38
-0.385
-0.365
-0.34
-0.35
-0.34
-0.355
-0.345
-0.32
-0.305
-0.295
-0.295
-0.305
-0.3
-0.295
-0.28
-0.3
-0.325
-0.35
-0.35
-0.335
-0.325
-0.345
-0.355
-0.385
-0.395
-0.4
-0.38
-0.38
-0.39
-0.415
-0.41
-0.395
-0.39
-0.385
-0.4
-0.41
-0.41
-0.385
-0.365
-0.365
-0.375
-0.395
-0.41
-0.375
-0.36
-0.365
-0.365
-0.38
-0.385
-0.36
-0.345
-0.33
-0.345
-0.38
-0.405
-0.43
-0.43
-0.45
-0.47
-0.44
-0.355
-0.155
0.135
0.485
0.855
1.17
1.505
1.78
1.96
2.015
1.925
1.65
1.155
0.515
-0.09
-0.5
-0.63
-0.595
-0.555
-0.53
-0.545
-0.53
-0.545
-0.54
-0.52
-0.465
-0.415
-0.375
-0.335
-0.33
-0.325
-0.31
-0.305
-0.305
-0.32
-0.325
-0.32
-0.295
-0.28
-0.305
-0.305
-0.31
-0.3
