Lead II
-1.04
-1.025
-1.015
-1.01
-1.0
-1.0
-1.01
-1.025
-1.02
-1.025
-1.02
-1.025
-1.02
-1.005
-1.0
-1.0
-1.01
-1.015
-1.01
-1.015
-1.005
-1.01
-1.01
-1.01
-1.0
-0.985
-0.98
-0.97
-0.965
-0.965
-0.97
-0.985
-0.98
-0.97
-0.96
-0.955
-0.925
-0.875
-0.78
-0.605
-0.375
-0.12
0.135
0.42
0.71
0.955
1.125
1.08
0.835
0.405
-0.16
-0.735
-1.265
-1.63
-1.805
-1.8
-1.675
-1.545
-1.385
-1.295
-1.21
-1.165
-1.125
-1.06
-1.005
-0.98
-0.95
-0.965
-0.98
-0.975
-0.98
-0.985
-0.975
-0.965
-0.96
-0.935
-0.94
-0.945
-0.95
-0.965
-0.975
-0.985
-0.97
-0.96
-0.95
-0.945
-0.94
-0.935
-0.94
-0.93
-0.945
-0.93
-0.945
-0.945
-0.945
-0.95
-0.935
-0.93
-0.93
-0.935
-0.93
-0.925
-0.94
-0.94
-0.935
-0.945
-0.955
-0.945
-0.945
-0.935
-0.935
-0.91
-0.91
-0.905
-0.92
-0.925
-0.925
-0.925
-0.92
-0.91
-0.91
-0.895
-0.885
-0.865
-0.87
-0.865
-0.87
-0.87
-0.87
-0.86
-0.855
-0.85
-0.84
-0.82
-0.82
-0.795
-0.79
-0.79
-0.79
-0.77
-0.785
-0.78
-0.765
-0.765
-0.74
-0.735
-0.71
-0.695
-0.68
-0.665
-0.655
-0.66
-0.65
-0.645
-0.645
-0.62
-0.61
-0.59
-0.58
-0.55
-0.55
-0.545
-0.56
-0.575
-0.565
-0.58
-0.58
-0.59
-0.585
-0.6
-0.605
-0.6
-0.615
-0.63
-0.655
-0.69
-0.705
-0.735
-0.75
-0.755
-0.77
-0.775
-0.78
-0.79
-0.79
-0.805
-0.82
-0.835
-0.85
-0.865
-0.87
-0.88
-0.865
-0.865
-0.855
-0.85
-0.855
-0.865
-0.865
-0.87
-0.88
-0.875
-0.89
-0.9
-0.89
-0.885
-0.885
-0.875
-0.86
-0.85
-0.875
-0.88
-0.89
-0.9
-0.9
-0.895
-0.88
-0.86
-0.855
-0.855
-0.85
-0.85
-0.845
-0.865
-0.88
-0.865
-0.845
-0.855
-0.835
-0.825
-0.815
-0.81
-0.82
-0.815
-0.81
-0.825
-0.825
-0.84
-0.845
-0.865
-0.845
-0.825
-0.825
-0.82
-0.81
-0.815
-0.845
-0.84
-0.865
-0.875
-0.875
-0.89
-0.87
-0.87
-0.86
-0.845
-0.845
-0.85
-0.85
-0.855
-0.87
-0.87
-0.89
-0.895
-0.89
-0.885
-0.875
-0.86
-0.86
-0.855
-0.86
-0.88
-0.9
-0.915
-0.91
-0.92
-0.895
-0.9
-0.895
-0.88
-0.88
-0.88
-0.89
-0.91
-0.915
-0.915
-0.925
-0.935
-0.91
-0.915
-0.9
-0.895
-0.905
-0.915
-0.92
-0.935
-0.925
-0.925
-0.935
-0.935
-0.92
-0.915
-0.915
-0.89
-0.9
-0.895
-0.895
-0.915
-0.925
-0.93
-0.935
-0.92
-0.915
-0.915
-0.91
-0.905
-0.925
-0.925
-0.92
-0.91
-0.925
-0.93
-0.935
-0.925
-0.945
-0.915
-0.915
-0.905
-0.915
-0.915
-0.9
-0.915
-0.925
-0.93
-0.925
-0.925
-0.925
-0.905
-0.905
-0.895
-0.895
-0.895
-0.92
-0.93
-0.92
-0.93
-0.92
-0.93
-0.91
-0.915
-0.905
-0.905
-0.9
-0.905
-0.91
-0.91
-0.925
-0.925
-0.94
-0.95
-0.92
-0.915
-0.915
-0.9
-0.91
-0.895
-0.91
-0.93
-0.92
-0.925
-0.955
-0.945
-0.935
-0.91
-0.905
-0.89
-0.89
-0.895
-0.895
-0.9
-0.925
-0.93
-0.925
-0.91
-0.9
-0.895
-0.88
-0.88
-0.88
-0.87
-0.885
-0.9
-0.91
-0.905
-0.895
-0.895
-0.885
-0.85
-0.83
-0.8
-0.785
-0.77
-0.78
-0.785
-0.795
-0.795
-0.785
-0.765
-0.74
-0.69
-0.69
-0.67
-0.655
-0.665
-0.69
-0.72
-0.74
-0.765
-0.76
-0.775
-0.765
-0.76
-0.765
-0.76
-0.77
-0.795
-0.82
-0.85
-0.89
-0.92
-0.94
-0.955
-0.975
-0.96
-0.95
-0.95
-0.955
-0.955
-0.97
-0.97
-0.995
-0.99
-1.005
-1.01
-0.995
-1.0
-0.99
-0.98
-0.98
-0.965
-0.99
-1.005
-1.005
-1.01
-1.01
-1.005
-1.0
-0.98
-0.975
-0.965
-0.97
-0.955
-0.945
-0.96
-0.965
-0.97
-0.97
-0.965
-0.96
-0.945
-0.93
-0.915
-0.915
-0.89
-0.885
-0.885
-0.885
-0.83
-0.765
-0.65
-0.465
-0.215
0.035
0.3
0.565
0.845
1.075
1.225
1.23
1.07
0.71
0.23
-0.335
-0.895
-1.37
-1.65
-1.74
-1.665
-1.495
-1.305
-1.17
-1.105
-1.08
-1.065
-1.055
-1.035
-1.0
-0.98
-0.935
-0.935
-0.935
-0.935
-0.96
-0.98
-0.99
-0.985
-0.975
-0.965
-0.945
-0.945
-0.93
-0.94
-0.94
-0.95
-0.97
-0.965
-0.975
-0.975
-0.975
-0.955
-0.94
-0.925
-0.935
-0.93
-0.93
-0.94
-0.945
-0.95
-0.955
-0.965
-0.95
-0.935
-0.925
-0.915
-0.915
-0.915
-0.92
-0.925
-0.935
-0.95
-0.955
-0.94
-0.945
-0.94
-0.935
-0.915
-0.905
-0.9
-0.9
-0.915
-0.9
-0.91
-0.915
-0.9
-0.89
-0.865
-0.865
-0.845
-0.84
-0.835
-0.85
-0.845
-0.85
-0.84
-0.825
-0.825
-0.825
-0.8
-0.785
-0.78
-0.76
-0.75
-0.74
-0.72
-0.72
-0.715
-0.7
-0.695
-0.675
-0.65
-0.635
-0.62
-0.595
-0.6
-0.6
-0.595
-0.57
-0.565
-0.555
-0.545
-0.52
-0.5
-0.5
-0.465
-0.455
-0.435
-0.445
-0.455
-0.47
-0.48
-0.485
-0.5
-0.515
-0.51
-0.51
-0.545
-0.54
-0.56
-0.585
-0.6
-0.63
-0.655
-0.675
-0.695
-0.71
-0.725
-0.745
-0.76
-0.78
-0.795
-0.805
-0.81
-0.83
-0.84
-0.845
-0.86
-0.855
-0.855
-0.855
-0.845
-0.84
-0.85
-0.855
-0.87
-0.86
-0.865
-0.865
-0.88
-0.87
-0.855
-0.845
-0.85
-0.84
-0.84
-0.85
-0.865
-0.88
-0.875
-0.87
-0.865
-0.875
-0.86
-0.86
-0.835
-0.835
-0.84
-0.84
-0.855
-0.865
-0.855
-0.865
-0.875
-0.865
-0.85
-0.85
-0.835
-0.835
-0.815
-0.845
-0.845
-0.845
-0.86
-0.855
-0.86
-0.85
-0.84
-0.825
-0.82
-0.825
-0.82
-0.83
-0.83
-0.84
-0.855
-0.865
-0.865
-0.865
-0.84
-0.845
-0.83
-0.835
-0.84
-0.845
-0.875
-0.885
-0.89
-0.895
-0.905
-0.905
-0.9
-0.875
-0.875
-0.875
-0.87
-0.885
-0.89
-0.9
-0.92
-0.915
-0.9
-0.91
-0.9
-0.905
-0.905
-0.89
-0.89
-0.885
-0.9
-0.915
-0.915
-0.92
-0.915
-0.915
-0.915
-0.91
-0.91
-0.9
-0.895
-0.91
-0.92
-0.935
-0.95
-0.94
-0.955
-0.935
-0.93
-0.925
-0.905
-0.915
-0.91
-0.91
-0.925
-0.95
-0.945
-0.945
-0.945
-0.93
-0.92
-0.915
-0.92
-0.91
-0.91
-0.905
-0.915
-0.92
-0.935
-0.94
-0.935
-0.94
-0.93
-0.925
-0.915
-0.9
-0.905
-0.9
-0.925
-0.925
-0.935
-0.935
-0.935
-0.935
-0.935
-0.925
-0.91
-0.91
-0.915
-0.91
-0.915
-0.925
-0.92
-0.93
-0.94
-0.93
-0.925
-0.915
-0.9
-0.91
-0.895
-0.905
-0.91
-0.925
-0.92
-0.935
-0.93
-0.94
-0.92
-0.935
-0.92
-0.91
-0.905
-0.915
-0.915
-0.93
-0.93
-0.94
-0.93
-0.93
-0.93
-0.91
-0.91
-0.91
-0.905
-0.905
-0.925
-0.93
-0.94
-0.935
-0.94
-0.925
-0.915
-0.905
-0.895
-0.9
-0.91
-0.905
-0.91
-0.92
-0.92
-0.92
-0.925
-0.93
-0.905
-0.895
-0.895
-0.89
-0.89
-0.9
-0.915
-0.925
-0.93
-0.935
-0.94
-0.93
-0.915
-0.91
-0.89
-0.905
-0.905
-0.905
-0.91
-0.905
-0.915
-0.92
-0.915
-0.93
-0.915
-0.895
-0.89
-0.89
-0.885
-0.88
-0.885
-0.895
-0.895
-0.905
-0.905
-0.87
-0.85
-0.845
-0.805
-0.775
-0.765
-0.77
-0.79
-0.8
-0.81
-0.815
-0.8
-0.765
-0.735
-0.7
-0.66
-0.665
-0.68
-0.685
-0.7
-0.725
-0.75
-0.78
-0.785
-0.775
-0.77
-0.76
-0.76
-0.765
-0.79
-0.82
-0.845
-0.895
-0.93
-0.945
-0.94
-0.97
-0.95
-0.96
-0.95
-0.94
-0.95
-0.96
-0.99
-0.985
-0.99
-1.005
-0.99
-0.98
-0.98
-0.96
-0.965
-0.96
-0.96
-0.975
-0.975
-0.985
-0.99
-0.99
-0.985
-0.985
-0.97
-0.965
-0.95
-0.955
-0.935
-0.94
-0.955
-0.955
-0.95
-0.94
-0.94
-0.94
-0.915
-0.895
-0.875
-0.86
-0.83
-0.82
-0.775
-0.675
-0.51
-0.3
-0.05
0.2
0.45
0.7
0.97
1.15
1.185
1.065
0.725
0.255
-0.28
-0.845
-1.29
-1.57
-1.66
-1.6
-1.43
-1.27
-1.13
-1.06
-1.04
-1.02
-1.01
-0.985
-0.985
-0.95
-0.935
-0.95
-0.94
-0.93
-0.93
-0.935
-0.95
-0.96
-0.965
-0.97
-0.98
-0.96
-0.95
-0.93
-0.93
-0.925
-0.93
-0.935
-0.93
-0.955
-0.95
-0.965
-0.96
-0.96
-0.945
-0.93
-0.92
-0.915
-0.905
-0.91
-0.925
-0.925
-0.95
-0.945
-0.945
-0.935
-0.92
-0.915
-0.9
-0.905
-0.905
-0.92
-0.925
-0.92
-0.92
-0.92
-0.925
-0.92
-0.915
-0.905
-0.88
-0.87
-0.865
-0.87
-0.885
-0.885
-0.88
-0.89
-0.885
-0.86
-0.86
-0.835
-0.82
-0.815
-0.82
-0.8
-0.815
-0.8
-0.805
-0.78
-0.785
-0.76
-0.74
-0.725
-0.71
-0.675
-0.67
-0.655
-0.64
-0.645
-0.635
-0.635
-0.62
-0.61
-0.59
-0.56
-0.545
-0.53
-0.525
-0.51
-0.515
-0.49
-0.49
-0.47
-0.48
-0.46
-0.445
-0.455
-0.44
-0.43
-0.45
-0.49
-0.49
-0.525
-0.535
-0.55
-0.57
-0.61
-0.605
-0.625
-0.64
-0.67
-0.685
-0.715
-0.73
-0.745
-0.77
-0.78
-0.79
-0.815
-0.815
-0.825
-0.81
-0.82
-0.825
-0.84
-0.835
-0.865
-0.87
-0.885
-0.885
-0.87
-0.86
-0.85
-0.855
-0.835
-0.855
-0.86
-0.86
-0.87
-0.875
-0.865
-0.87
-0.855
-0.87
-0.85
-0.845
-0.84
-0.84
-0.845
-0.85
-0.86
-0.87
-0.88
-0.885
-0.9
-0.855
-0.835
-0.83
-0.84
-0.855
-0.86
-0.87
-0.855
-0.855
-0.865
-0.85
-0.85
-0.85
-0.84
-0.83
-0.82
-0.835
-0.85
-0.86
-0.85
-0.84
-0.855
-0.86
-0.845
-0.835
-0.835
-0.83
-0.83
-0.84
-0.85
-0.85
-0.87
-0.87
-0.88
-0.87
-0.875
-0.87
-0.865
-0.865
-0.865
-0.87
-0.87
-0.885
-0.89
-0.89
-0.895
-0.895
-0.895
-0.88
-0.88
-0.875
-0.87
-0.875
-0.885
-0.89
-0.9
-0.905
-0.91
-0.905
-0.91
-0.905
-0.9
-0.88
-0.885
-0.885
-0.88
-0.9
-0.9
-0.92
-0.935
-0.935
-0.935
-0.915
-0.905
-0.9
-0.88
-0.885
-0.905
-0.895
-0.91
-0.915
-0.905
-0.91
-0.905
-0.92
-0.915
-0.895
-0.885
-0.9
-0.89
-0.905
-0.925
-0.92
-0.92
-0.92
-0.92
-0.89
-0.885
-0.88
-0.9
-0.9
-0.9
-0.9
-0.9
-0.925
-0.925
-0.92
-0.915
-0.915
-0.89
-0.885
-0.89
-0.885
-0.895
-0.905
-0.9
-0.91
-0.91
-0.915
-0.91
-0.91
-0.905
-0.9
-0.915
-0.885
-0.89
-0.89
-0.91
-0.905
-0.91
-0.905
-0.91
-0.895
-0.89
-0.9
-0.875
-0.89
-0.88
-0.885
-0.885
-0.9
-0.915
-0.905
-0.91
-0.905
-0.91
-0.895
-0.91
-0.895
-0.885
-0.905
-0.905
-0.905
-0.905
-0.915
-0.915
-0.895
-0.87
-0.87
-0.845
-0.85
-0.85
-0.88
-0.875
-0.89
-0.89
-0.885
-0.88
-0.855
-0.84
-0.815
-0.795
-0.795
-0.78
-0.79
-0.765
-0.765
-0.765
-0.76
-0.745
-0.73
-0.705
-0.68
-0.67
-0.68
-0.695
-0.72
-0.765
-0.78
-0.78
-0.78
-0.785
-0.76
-0.735
-0.73
-0.74
-0.755
-0.785
-0.825
-0.855
-0.885
-0.91
-0.92
-0.92
-0.91
-0.915
-0.92
-0.905
-0.915
-0.915
-0.92
-0.93
-0.93
-0.93
-0.945
-0.95
-0.925
-0.92
-0.915
-0.91
-0.905
-0.895
-0.91
-0.915
-0.925
-0.95
-0.945
-0.935
-0.93
-0.93
-0.91
-0.88
-0.895
-0.875
-0.88
-0.885
-0.9
-0.905
-0.905
-0.89
-0.9
-0.875
-0.86
-0.855
-0.845
-0.85
-0.835
-0.84
-0.825
-0.73
-0.6
-0.405
-0.175
0.085
0.335
0.615
0.895
1.14
1.3
1.275
1.075
0.7
0.205
-0.36
-0.905
-1.34
-1.61
-1.725
-1.695
-1.6
-1.48
-1.365
-1.255
-1.205
-1.155
-1.125
-1.06
-1.0
-0.93
-0.895
-0.86
-0.865
-0.89
-0.91
-0.905
-0.915
-0.91
-0.9
-0.9
-0.885
-0.88
-0.855
-0.86
-0.86
-0.875
-0.88
-0.9
-0.9
-0.895
-0.9
-0.88
-0.88
-0.865
-0.865
-0.875
-0.865
-0.88
-0.87
-0.87
-0.875
-0.88
-0.88
-0.875
-0.865
-0.85
-0.85
-0.86
-0.855
-0.87
-0.885
-0.88
-0.875
-0.885
-0.865
-0.865
-0.845
-0.835
-0.825
-0.825
-0.82
-0.83
-0.835
-0.85
-0.84
-0.84
-0.84
-0.825
-0.815
-0.815
-0.795
-0.8
-0.79
-0.8
-0.8
-0.82
-0.805
-0.79
-0.785
-0.775
-0.76
-0.75
-0.74
-0.73
-0.745
-0.73
-0.72
-0.72
-0.7
-0.685
-0.685
-0.655
-0.64
-0.62
-0.61
-0.605
-0.575
-0.58
-0.575
-0.58
-0.575
-0.57
-0.565
-0.555
-0.54
-0.515
-0.5
-0.485
-0.475
-0.505
-0.505
-0.5
-0.505
-0.52
-0.525
-0.515
-0.505
-0.505
-0.51
-0.535
-0.54
-0.56
-0.595
-0.62
-0.635
-0.66
-0.66
-0.67
-0.675
-0.685
-0.68
-0.7
-0.705
-0.725
-0.735
-0.755
-0.765
-0.77
-0.785
-0.78
-0.77
-0.76
-0.76
-0.775
-0.775
-0.79
-0.8
-0.81
-0.825
-0.825
-0.82
-0.815
-0.785
-0.795
-0.78
-0.77
-0.785
-0.785
-0.82
-0.81
-0.815
-0.805
-0.795
-0.79
-0.79
-0.77
-0.76
-0.77
-0.765
-0.775
-0.785
-0.785
-0.785
-0.785
-0.78
-0.755
-0.755
-0.745
-0.74
-0.735
-0.735
-0.755
-0.745
-0.76
-0.76
-0.755
-0.77
-0.765
-0.755
-0.745
-0.735
-0.735
-0.73
-0.745
-0.75
-0.765
-0.76
-0.76
-0.76
-0.76
-0.745
-0.74
-0.735
-0.75
-0.755
-0.76
-0.765
-0.79
-0.81
-0.805
-0.8
-0.79
-0.8
-0.805
-0.78
-0.79
-0.8
-0.81
-0.805
-0.815
-0.82
-0.815
-0.825
-0.815
-0.81
-0.805
-0.815
-0.8
-0.805
-0.825
-0.835
-0.835
-0.845
-0.85
-0.83
-0.865
-0.83
-0.815
-0.81
-0.825
-0.825
-0.81
-0.835
-0.835
-0.835
-0.84
-0.84
-0.825
-0.825
-0.83
-0.82
-0.81
-0.835
-0.835
-0.84
-0.85
-0.85
-0.865
-0.865
-0.865
-0.855
-0.83
-0.83
-0.835
-0.83
-0.835
-0.85
-0.87
-0.875
-0.87
-0.865
-0.85
-0.85
-0.84
-0.835
-0.835
-0.855
-0.84
-0.86
-0.86
-0.86
-0.875
-0.87
-0.86
-0.86
-0.845
-0.84
-0.85
-0.845
-0.865
-0.875
-0.885
-0.9
-0.895
-0.89
-0.88
-0.865
-0.845
-0.85
-0.865
-0.855
-0.855
-0.87
-0.875
-0.87
-0.885
-0.87
-0.875
-0.87
-0.865
-0.85
-0.84
-0.845
-0.86
-0.87
-0.885
-0.9
-0.89
-0.89
-0.895
-0.87
-0.87
-0.86
-0.885
-0.86
-0.88
-0.885
-0.89
-0.895
-0.89
-0.905
-0.89
-0.885
-0.87
-0.85
-0.86
-0.855
-0.85
-0.865
-0.855
-0.86
-0.85
-0.835
-0.805
-0.775
-0.75
-0.735
-0.71
-0.715
-0.72
-0.73
-0.735
-0.72
-0.695
-0.705
-0.695
-0.705
-0.705
-0.715
-0.72
-0.735
-0.755
-0.785
-0.79
-0.795
-0.805
-0.815
-0.8
-0.825
-0.81
-0.825
-0.84
-0.87
-0.895
-0.915
-0.92
-0.93
-0.94
-0.945
-0.965
-0.96
-0.955
-0.95
-0.935
-0.95
-0.94
-0.95
-0.955
-0.97
-0.97
-0.97
-0.97
-0.955
-0.955
-0.935
-0.93
-0.94
-0.945
-0.955
-0.975
-0.98
-0.975
-0.965
-0.95
-0.945
-0.915
-0.9
-0.89
-0.895
-0.9
-0.9
-0.905
-0.9
-0.895
-0.875
-0.855
-0.83
-0.785
-0.72
-0.605
-0.435
-0.23
0.01
0.27
0.54
0.825
1.08
1.225
1.21
1.0
0.625
0.105
-0.47
-1.01
-1.44
-1.685
-1.705
-1.575
-1.395
-1.22
-1.075
-1.025
-0.995
-1.005
-1.02
-0.975
-0.98
-0.94
-0.915
-0.91
-0.91
-0.92
-0.91
-0.915
-0.905
-0.9
-0.9
-0.91
-0.905
-0.91
-0.92
-0.92
-0.91
-0.91
-0.89
-0.89
-0.88
-0.885
-0.905
-0.905
-0.91
-0.92
-0.925
-0.91
-0.92
-0.92
-0.915
-0.9
-0.895
-0.89
-0.905
-0.905
-0.905
-0.91
-0.93
-0.915
-0.91
-0.91
-0.905
-0.88
-0.88
-0.875
-0.86
-0.865
-0.87
-0.88
-0.885
-0.865
-0.895
-0.89
-0.865
-0.855
-0.85
-0.825
-0.835
-0.82
-0.84
-0.84
-0.84
-0.84
-0.825
-0.81
-0.795
-0.785
-0.765
-0.76
-0.745
-0.735
-0.74
-0.74
-0.725
-0.72
-0.705
-0.685
-0.66
-0.645
-0.605
-0.595
-0.57
-0.585
-0.57
-0.575
-0.57
-0.535
-0.52
-0.5
-0.47
-0.445
-0.43
-0.415
-0.415
-0.4
-0.41
-0.4
-0.4
-0.41
-0.42
-0.415
-0.405
-0.41
-0.415
-0.435
-0.455
-0.46
-0.51
-0.535
-0.565
-0.575
-0.61
-0.625
-0.635
-0.655
-0.66
-0.665
-0.685
-0.715
-0.73
-0.745
-0.775
-0.775
-0.79
-0.8
-0.79
-0.815
-0.8
-0.8
-0.8
-0.82
-0.845
-0.845
-0.845
-0.855
-0.865
-0.85
-0.845
-0.835
-0.825
-0.84
-0.845
-0.85
-0.855
-0.865
-0.87
-0.885
-0.855
-0.86
-0.865
-0.84
-0.82
-0.83
-0.82
-0.83
-0.835
-0.855
-0.86
-0.855
-0.855
-0.855
-0.825
-0.82
-0.805
-0.8
-0.8
-0.81
-0.82
-0.84
-0.84
-0.84
-0.83
-0.85
-0.84
-0.825
-0.8
-0.805
-0.815
-0.82
-0.84
-0.84
-0.855
-0.85
-0.855
-0.85
-0.835
-0.82
-0.825
-0.81
-0.815
-0.82
-0.825
-0.835
-0.845
-0.845
-0.84
-0.84
-0.84
-0.835
-0.83
-0.83
-0.83
-0.835
-0.865
-0.87
-0.885
-0.875
-0.88
-0.88
-0.865
-0.87
-0.86
-0.865
-0.87
-0.875
-0.895
-0.9
-0.91
-0.915
-0.915
-0.9
-0.89
-0.91
-0.895
-0.87
-0.865
-0.88
-0.885
-0.905
-0.92
-0.92
-0.925
-0.91
-0.905
-0.895
-0.88
-0.895
-0.87
-0.885
-0.905
-0.92
-0.925
-0.915
-0.915
-0.93
-0.9
-0.905
-0.915
-0.915
-0.915
-0.9
-0.905
-0.92
-0.92
-0.935
-0.95
-0.93
-0.93
-0.915
-0.905
-0.89
-0.89
-0.895
-0.91
-0.915
-0.925
-0.92
-0.935
-0.935
-0.94
-0.91
-0.9
-0.895
-0.895
-0.905
-0.905
-0.935
-0.93
-0.935
-0.935
-0.93
-0.915
-0.91
-0.91
-0.905
-0.91
-0.905
-0.92
-0.925
-0.935
-0.925
-0.95
-0.94
-0.915
-0.93
-0.9
-0.905
-0.895
-0.915
-0.935
-0.94
-0.94
-0.96
-0.94
-0.93
-0.92
-0.925
-0.915
-0.91
-0.915
-0.92
-0.94
-0.935
-0.935
-0.94
-0.95
-0.95
-0.935
-0.925
-0.92
-0.915
-0.925
-0.935
-0.94
-0.94
-0.955
-0.95
-0.96
-0.95
-0.935
-0.915
-0.925
-0.92
-0.93
-0.92
-0.94
-0.94
-0.93
-0.95
-0.945
-0.93
-0.915
-0.925
-0.91
-0.905
-0.91
-0.915
-0.925
-0.94
-0.94
-0.95
-0.955
-0.95
-0.94
-0.94
-0.925
-0.935
-0.92
-0.93
-0.95
-0.95
-0.95
-0.935
-0.92
-0.925
-0.92
-0.9
-0.865
-0.845
-0.82
-0.815
-0.81
-0.81
-0.825
-0.815
-0.815
-0.815
-0.785
-0.76
-0.75
-0.755
-0.755
-0.785
-0.8
-0.815
-0.825
-0.835
-0.855
-0.86
-0.83
-0.83
-0.83
-0.845
-0.855
-0.885
-0.925
-0.95
-0.97
-0.985
-1.0
-1.005
-0.995
-0.99
-0.985
-0.98
-0.99
-0.995
-1.0
-1.015
-1.025
-1.02
-1.025
-1.005
-1.005
-1.0
-0.985
-0.985
-0.99
-0.99
-0.995
-1.0
-1.0
-1.015
-1.015
-1.005
-0.99
-0.97
-0.96
-0.95
-0.965
-0.96
-0.985
-0.985
-0.98
-0.98
-0.965
-0.955
-0.925
-0.91
-0.885
-0.845
-0.78
-0.69
-0.535
-0.325
-0.095
0.14
0.39
0.645
0.895
1.045
1.075
0.895
0.56
0.095
-0.44
-0.96
-1.405
-1.65
-1.745
-1.68
-1.53
-1.365
-1.24
-1.16
-1.125
-1.115
-1.1
-1.105
-1.07
-1.03
-1.02
-0.99
-0.985
-0.98
-0.98
-0.985
-0.965
-0.97
-0.97
-0.98
-0.985
-0.985
-0.99
-0.975
-0.97
-0.955
-0.95
-0.94
-0.95
-0.94
-0.95
-0.965
-0.96
-0.99
-0.995
-0.995
-0.98
-0.975
-0.93
-0.935
-0.935
-0.95
-0.96
-0.99
-0.985
-0.985
-0.985
-0.97
-0.965
-0.965
-0.955
-0.95
-0.935
-0.945
-0.945
-0.95
-0.955
-0.975
-0.965
-0.975
-0.95
-0.945
-0.925
-0.91
-0.905
-0.895
-0.905
-0.895
-0.905
-0.905
-0.905
-0.9
-0.895
-0.875
-0.855
-0.855
-0.84
-0.83
-0.835
-0.85
-0.835
-0.835
-0.835
-0.82
-0.795
-0.78
-0.76
-0.74
-0.72
-0.71
-0.695
-0.7
-0.7
-0.695
-0.68
-0.655
-0.63
-0.595
-0.565
-0.555
-0.55
-0.545
-0.555
-0.53
-0.525
-0.53
-0.515
-0.5
-0.51
-0.51
-0.5
-0.505
-0.495
-0.515
-0.545
-0.565
-0.585
-0.6
-0.63
-0.655
-0.66
-0.68
-0.69
-0.715
-0.73
-0.76
-0.785
-0.81
-0.83
-0.865
-0.865
-0.87
-0.88
-0.88
-0.875
-0.87
-0.895
-0.905
-0.92
-0.935
-0.935
-0.945
-0.95
-0.93
-0.925
-0.93
-0.91
-0.91
-0.9
-0.91
-0.925
-0.94
-0.95
-0.955
-0.96
-0.96
-0.97
-0.96
-0.96
-0.955
-0.96
-0.935
-0.95
-0.955
-0.955
-0.96
-0.955
-0.945
-0.935
-0.93
-0.91
-0.92
-0.91
-0.91
-0.915
-0.93
-0.935
-0.95
-0.945
-0.93
-0.915
-0.89
-0.885
-0.885
-0.885
-0.89
-0.91
-0.92
-0.915
-0.925
-0.925
-0.915
-0.91
-0.9
-0.89
-0.895
-0.9
-0.89
-0.91
-0.91
-0.925
-0.935
-0.955
-0.945
-0.93
-0.94
-0.915
-0.915
-0.915
-0.925
-0.945
-0.955
-0.95
-0.955
-0.945
-0.955
-0.965
-0.945
-0.93
-0.925
-0.925
-0.94
-0.95
-0.96
-0.98
-0.995
-1.0
-1.005
-0.98
-0.975
-0.97
-0.96
-0.955
-0.945
-0.95
-0.98
-0.99
-1.005
-1.0
-1.0
-0.99
-0.975
-0.965
-0.965
-0.965
-0.96
-0.975
-0.985
-0.99
-0.995
-1.0
-0.985
-0.995
-0.975
-0.97
-0.97
-0.975
-0.965
-0.98
-0.995
-1.005
-1.005
-1.01
-1.005
-1.015
-1.0
-0.995
-0.99
-0.98
-0.995
-1.01
-0.995
-0.995
-1.005
-1.02
-1.01
-0.995
-0.975
-0.97
-0.96
-0.96
-0.97
-0.97
-0.98
-0.99
-0.995
-0.995
-0.975
-0.965
-0.97
-0.955
-0.97
-0.97
-0.99
-0.995
-1.015
-1.015
-1.015
-1.01
-1.0
-1.005
-0.995
-0.99
-0.97
-0.965
-0.97
-0.99
-1.0
-1.01
-1.01
-1.0
-1.0
-0.995
-0.98
-0.97
-0.98
-0.99
-0.965
-0.97
-0.97
-0.98
-0.99
-0.975
-0.98
-0.97
-0.95
-0.915
-0.9
-0.87
-0.86
-0.865
-0.875
-0.875
-0.88
-0.875
-0.85
-0.805
-0.78
-0.775
-0.77
-0.78
-0.815
-0.83
-0.86
-0.885
-0.875
-0.885
-0.89
-0.86
-0.855
-0.865
-0.885
-0.92
-0.97
-1.0
-1.025
-1.03
-1.025
-1.02
-1.015
-1.025
-1.025
-1.01
-1.02
-1.015
-1.01
-1.035
-1.03
-1.045
-1.04
-1.04
-1.045
-1.03
-1.025
-1.005
-1.025
-1.025
-1.025
-1.04
-1.03
-1.04
-1.035
-1.04
-1.035
-1.005
-1.0
-0.98
-0.985
-0.985
-0.98
-0.995
-0.995
-1.0
-1.005
-1.015
-0.99
-0.98
-0.97
-0.94
-0.92
-0.91
-0.895
-0.895
-0.825
-0.705
-0.52
-0.285
-0.025
0.25
0.545
0.85
1.12
1.21
1.125
0.83
0.35
-0.24
-0.88
-1.425
-1.785
-1.925
-1.875
-1.715
-1.52
-1.375
-1.25
-1.195
-1.155
-1.135
-1.095
-1.065
-1.035
-1.0
-0.98
-0.975
-0.99
-0.99
-0.995
-1.01
-0.99
-1.005
-1.0
-0.99
-0.985
-0.975
-0.985
-0.98
-0.97
-0.955
-0.965
-0.955
-0.98
-0.99
-1.01
-1.0
-0.98
-0.965
-0.96
-0.955
-0.95
-0.95
-0.955
-0.955
-0.975
-0.98
-0.965
-0.97
-0.975
-0.97
-0.965
-0.955
-0.95
-0.94
-0.94
-0.945
-0.955
-0.95
-0.955
-0.97
-0.965
-0.945
-0.94
-0.92
-0.925
-0.925
-0.925
-0.93
-0.925
-0.92
-0.94
-0.93
-0.925
-0.91
-0.89
-0.86
-0.845
-0.84
-0.83
-0.825
-0.835
-0.825
-0.815
-0.815
-0.8
-0.77
-0.77
-0.74
-0.72
-0.7
-0.69
-0.685
-0.68
-0.675
-0.68
-0.675
-0.65
-0.635
-0.62
-0.615
-0.58
-0.575
-0.58
-0.58
-0.57
-0.57
-0.575
-0.58
-0.565
-0.555
-0.535
-0.54
-0.535
-0.555
-0.575
-0.595
-0.625
-0.635
-0.665
-0.695
-0.705
-0.725
-0.73
-0.75
-0.75
-0.76
-0.795
-0.805
-0.84
-0.835
-0.86
-0.88
-0.88
-0.88
-0.89
-0.87
-0.875
-0.88
-0.885
-0.89
-0.91
-0.915
-0.92
-0.925
-0.91
-0.91
-0.9
-0.89
-0.88
-0.885
-0.875
-0.895
-0.925
-0.91
-0.915
-0.91
-0.92
-0.905
-0.9
-0.895
-0.905
-0.89
-0.875
-0.88
-0.89
-0.89
-0.895
-0.895
-0.895
-0.87
-0.87
-0.865
-0.86
-0.865
-0.86
-0.865
-0.875
-0.875
-0.875
-0.885
-0.865
-0.865
-0.845
-0.84
-0.83
-0.83
-0.83
-0.845
-0.845
-0.85
-0.86
-0.855
-0.875
-0.87
-0.86
-0.85
-0.845
-0.84
-0.83
-0.84
-0.86
-0.885
-0.87
-0.88
-0.875
-0.885
-0.87
-0.86
-0.87
-0.865
-0.875
-0.87
-0.89
-0.885
-0.91
-0.915
-0.925
-0.89
-0.89
-0.905
-0.895
-0.89
-0.895
-0.885
-0.9
-0.91
-0.925
-0.93
-0.93
-0.93
-0.91
-0.9
-0.89
-0.9
-0.91
-0.905
-0.92
-0.93
-0.94
-0.925
-0.92
-0.92
-0.92
-0.915
-0.91
-0.92
-0.91
-0.91
-0.925
-0.935
-0.945
-0.955
-0.94
-0.94
-0.93
-0.91
-0.9
-0.905
-0.915
-0.91
-0.925
-0.94
-0.945
-0.945
-0.93
-0.93
-0.925
-0.91
-0.9
-0.9
-0.895
-0.91
-0.9
-0.925
-0.935
-0.94
-0.925
-0.925
-0.92
-0.905
-0.92
-0.915
-0.915
-0.935
-0.93
-0.95
-0.94
-0.945
-0.95
-0.95
-0.93
-0.915
-0.905
-0.91
-0.91
-0.92
-0.925
-0.94
-0.93
-0.945
-0.93
-0.935
-0.92
-0.905
-0.91
-0.89
-0.91
-0.91
-0.915
-0.925
-0.93
-0.93
-0.92
-0.925
-0.92
-0.92
-0.895
-0.895
-0.905
-0.91
-0.925
-0.925
-0.925
-0.935
-0.925
-0.93
-0.91
-0.905
-0.89
-0.88
-0.89
-0.895
-0.9
-0.91
-0.91
-0.91
-0.905
-0.895
-0.885
-0.895
-0.88
-0.88
-0.885
-0.885
-0.905
-0.905
-0.91
-0.915
-0.9
-0.91
-0.9
-0.885
-0.885
-0.885
-0.88
-0.88
-0.91
-0.93
-0.92
-0.925
-0.925
-0.92
-0.905
-0.89
-0.885
-0.895
-0.875
-0.87
-0.895
-0.9
-0.905
-0.91
-0.895
-0.88
-0.855
-0.84
-0.81
-0.795
-0.775
-0.77
-0.765
-0.765
-0.76
-0.765
-0.745
-0.725
-0.715
-0.695
-0.685
-0.69
-0.695
-0.715
-0.735
-0.75
-0.78
-0.79
-0.795
-0.79
-0.78
-0.77
-0.77
-0.775
-0.8
-0.82
-0.855
-0.88
-0.915
-0.92
-0.93
-0.94
-0.93
-0.935
-0.92
-0.92
-0.93
-0.935
-0.945
-0.955
-0.96
-0.96
-0.965
-0.94
-0.94
-0.935
-0.92
-0.92
-0.93
-0.935
-0.94
-0.96
-0.955
-0.965
-0.95
-0.94
-0.935
-0.92
-0.91
-0.91
-0.905
-0.9
-0.9
-0.905
-0.895
-0.895
-0.89
-0.865
-0.855
-0.835
-0.8
-0.77
-0.725
-0.655
-0.54
-0.345
-0.105
0.14
0.38
0.655
0.92
1.145
1.26
1.17
0.93
0.51
-0.01
-0.565
-1.09
-1.475
-1.67
-1.675
-1.51
-1.31
-1.14
-1.01
-0.96
-0.96
-0.98
-0.99
-0.98
-0.95
-0.925
-0.9
-0.885
-0.87
-0.865
-0.865
-0.89
-0.895
-0.895
-0.905
-0.89
-0.9
-0.91
-0.895
-0.88
-0.875
-0.87
-0.865
-0.865
-0.885
-0.885
-0.89
-0.895
-0.915
-0.91
-0.9
-0.88
-0.875
-0.87
-0.875
-0.87
-0.875
-0.89
-0.89
-0.89
-0.9
-0.885
-0.875
-0.85
-0.86
-0.84
-0.84
-0.84
-0.86
-0.86
-0.865
-0.87
-0.875
-0.87
-0.855
-0.85
-0.835
-0.82
-0.82
-0.81
-0.82
-0.83
-0.825
-0.835
-0.835
-0.83
-0.815
-0.8
-0.785
-0.76
-0.755
-0.75
-0.76
-0.75
-0.735
-0.735
-0.74
-0.72
-0.7
-0.67
-0.66
-0.64
-0.61
-0.605
-0.62
-0.605
-0.605
-0.59
-0.56
-0.545
-0.53
-0.51
-0.495
-0.475
-0.45
-0.45
-0.435
-0.445
-0.445
-0.43
-0.42
-0.42
-0.4
-0.385
-0.39
-0.4
-0.415
-0.39
-0.405
-0.44
-0.455
-0.48
-0.505
-0.53
-0.545
-0.56
-0.58
-0.585
-0.615
-0.63
-0.66
-0.69
-0.71
-0.735
-0.75
-0.76
-0.775
-0.76
-0.785
-0.765
-0.765
-0.79
-0.805
-0.8
-0.825
-0.83
-0.825
-0.84
-0.845
-0.835
-0.83
-0.825
-0.84
-0.84
-0.84
-0.85
-0.86
-0.86
-0.865
-0.86
-0.85
-0.835
-0.83
-0.84
-0.84
-0.835
-0.825
-0.845
-0.845
-0.84
-0.85
-0.845
-0.84
-0.83
-0.82
-0.81
-0.8
-0.81
-0.82
-0.825
-0.84
-0.845
-0.84
-0.845
-0.85
-0.83
-0.83
-0.825
-0.825
-0.825
-0.835
-0.83
-0.84
-0.85
-0.855
-0.86
-0.83
-0.83
-0.815
-0.81
-0.805
-0.83
-0.825
-0.835
-0.85
-0.86
-0.86
-0.85
-0.855
-0.845
-0.85
-0.835
-0.83
-0.83
-0.84
-0.85
-0.855
-0.875
-0.875
-0.88
-0.885
-0.86
-0.86
-0.86
-0.87
-0.865
-0.88
-0.89
-0.89
-0.915
-0.925
-0.915
-0.91
-0.895
-0.895
-0.89
-0.89
-0.885
-0.89
-0.89
-0.905
-0.925
-0.93
-0.925
-0.915
-0.92
-0.895
-0.89
-0.875
-0.895
-0.89
-0.9
-0.92
-0.925
-0.94
-0.94
-0.93
-0.925
-0.92
-0.9
-0.91
-0.905
-0.925
-0.925
-0.93
-0.935
-0.945
-0.945
-0.95
-0.93
-0.93
-0.915
-0.925
-0.915
-0.92
-0.915
-0.93
-0.96
-0.94
-0.945
-0.935
-0.93
-0.915
-0.92
-0.925
-0.935
-0.93
-0.935
-0.94
-0.955
-0.945
-0.94
-0.945
-0.94
-0.95
-0.93
-0.915
-0.92
-0.93
-0.945
-0.95
-0.965
-0.97
-0.96
-0.965
-0.945
-0.945
-0.93
-0.93
-0.93
-0.93
-0.935
-0.945
-0.94
-0.95
-0.95
-0.94
-0.93
-0.91
-0.905
-0.905
-0.9
-0.935
-0.93
-0.94
-0.945
-0.94
-0.935
-0.935
-0.935
-0.925
-0.92
-0.92
-0.92
-0.92
-0.935
-0.96
-0.96
-0.955
-0.925
-0.945
-0.94
-0.94
-0.94
-0.94
-0.94
-0.925
-0.94
-0.965
-0.96
-0.97
-0.955
-0.965
-0.955
-0.94
-0.925
-0.93
-0.915
-0.935
-0.94
-0.94
-0.94
-0.945
-0.945
-0.96
-0.955
-0.945
-0.925
-0.935
-0.93
-0.92
-0.93
-0.945
-0.945
-0.96
-0.97
-0.955
-0.96
-0.945
-0.935
-0.935
-0.95
-0.935
-0.955
-0.96
-0.945
-0.94
-0.945
-0.94
-0.935
-0.93
-0.915
-0.91
-0.895
-0.91
-0.905
-0.91
-0.9
