Lead II
-1.01
-1.03
-1.035
-1.04
-1.05
-1.05
-1.03
-1.01
-1.015
-0.995
-1.005
-0.99
-1.01
-1.01
-1.02
-1.025
-1.035
-1.03
-1.03
-1.02
-1.005
-0.99
-1.0
-1.0
-1.0
-1.005
-1.04
-1.03
-1.025
-1.035
-1.02
-1.005
-0.995
-0.985
-1.01
-0.995
-1.0
-1.015
-1.015
-1.035
-1.05
-1.05
-1.03
-1.01
-0.98
-0.985
-0.98
-1.0
-1.01
-1.015
-1.02
-1.02
-1.025
-1.03
-1.02
-1.01
-0.99
-0.995
-0.99
-1.01
-1.015
-1.01
-1.015
-1.025
-1.025
-1.03
-1.02
-1.005
-1.005
-0.985
-0.995
-1.0
-0.995
-0.995
-1.01
-1.005
-1.005
-1.015
-0.995
-0.99
-0.975
-0.975
-0.99
-0.985
-0.985
-0.98
-1.01
-1.0
-1.025
-1.015
-1.005
-0.985
-0.95
-0.94
-0.915
-0.915
-0.915
-0.915
-0.925
-0.905
-0.925
-0.915
-0.885
-0.855
-0.835
-0.815
-0.795
-0.81
-0.825
-0.85
-0.865
-0.875
-0.89
-0.9
-0.9
-0.915
-0.915
-0.925
-0.935
-0.935
-0.95
-0.975
-0.98
-0.985
-1.005
-1.005
-1.01
-1.005
-0.975
-0.97
-0.985
-0.99
-0.99
-1.0
-1.015
-1.015
-1.02
-1.045
-1.015
-1.005
-0.995
-0.985
-1.0
-0.985
-0.99
-1.015
-1.02
-1.02
-1.035
-1.025
-1.015
-0.995
-0.955
-0.915
-0.875
-0.785
-0.695
-0.59
-0.49
-0.38
-0.335
-0.32
-0.37
-0.5
-0.67
-0.895
-1.14
-1.37
-1.55
-1.67
-1.665
-1.595
-1.48
-1.39
-1.295
-1.22
-1.155
-1.09
-1.035
-0.995
-0.975
-0.945
-0.95
-0.965
-0.965
-0.99
-0.975
-0.955
-0.945
-0.92
-0.915
-0.935
-0.93
-0.92
-0.92
-0.935
-0.94
-0.935
-0.92
-0.915
-0.895
-0.905
-0.89
-0.885
-0.885
-0.885
-0.895
-0.91
-0.915
-0.895
-0.905
-0.895
-0.895
-0.87
-0.87
-0.865
-0.87
-0.875
-0.89
-0.885
-0.875
-0.875
-0.865
-0.845
-0.845
-0.81
-0.815
-0.805
-0.815
-0.8
-0.825
-0.805
-0.81
-0.82
-0.81
-0.77
-0.775
-0.755
-0.73
-0.72
-0.725
-0.715
-0.715
-0.705
-0.685
-0.68
-0.66
-0.635
-0.615
-0.605
-0.6
-0.58
-0.57
-0.56
-0.565
-0.545
-0.535
-0.515
-0.5
-0.47
-0.45
-0.425
-0.43
-0.43
-0.42
-0.41
-0.415
-0.42
-0.41
-0.42
-0.42
-0.4
-0.4
-0.39
-0.405
-0.415
-0.45
-0.475
-0.475
-0.535
-0.555
-0.565
-0.59
-0.6
-0.625
-0.64
-0.66
-0.685
-0.72
-0.77
-0.78
-0.81
-0.835
-0.85
-0.865
-0.87
-0.875
-0.865
-0.895
-0.895
-0.905
-0.915
-0.935
-0.945
-0.96
-0.955
-0.955
-0.945
-0.94
-0.94
-0.935
-0.95
-0.95
-0.965
-0.97
-0.975
-0.985
-0.99
-0.975
-0.97
-0.965
-0.955
-0.935
-0.945
-0.95
-0.96
-0.965
-0.975
-0.985
-0.975
-0.97
-0.975
-0.95
-0.945
-0.95
-0.955
-0.96
-0.965
-0.98
-0.975
-0.985
-0.98
-0.97
-0.96
-0.96
-0.95
-0.95
-0.97
-0.97
-0.985
-0.99
-1.005
-0.99
-1.005
-0.985
-0.99
-0.99
-0.97
-0.98
-0.985
-1.0
-1.025
-1.005
-1.01
-1.02
-1.01
-1.02
-1.01
-1.0
-1.005
-1.015
-0.99
-1.0
-1.03
-1.03
-1.03
-1.04
-1.045
-1.04
-1.025
-1.02
-1.015
-0.995
-1.005
-1.015
-1.04
-1.035
-1.05
-1.06
-1.045
-1.045
-1.05
-1.025
-1.025
-1.02
-1.025
-1.025
-1.045
-1.055
-1.055
-1.055
-1.06
-1.055
-1.035
-1.03
-1.025
-1.01
-1.02
-1.03
-1.04
-1.06
-1.055
-1.065
-1.06
-1.065
-1.055
-1.045
-1.035
-1.015
-1.02
-1.04
-1.06
-1.07
-1.08
-1.07
-1.075
-1.065
-1.085
-1.065
-1.05
-1.03
-1.035
-1.035
-1.05
-1.07
-1.055
-1.065
-1.065
-1.055
-1.045
-1.04
-1.035
-1.03
-1.035
-1.045
-1.05
-1.065
-1.08
-1.07
-1.075
-1.055
-1.055
-1.045
-1.03
-1.02
-1.02
-1.035
-1.055
-1.06
-1.06
-1.075
-1.065
-1.065
-1.065
-1.055
-1.045
-1.045
-1.035
-1.045
-1.04
-1.05
-1.045
-1.055
-1.055
-1.04
-1.045
-1.02
-1.015
-1.025
-1.02
-1.03
-1.04
-1.045
-1.055
-1.06
-1.05
-1.05
-1.04
-1.035
-1.02
-1.02
-1.02
-1.025
-1.035
-1.05
-1.06
-1.075
-1.045
-1.04
-1.035
-1.03
-1.015
-1.02
-1.015
-1.03
-1.04
-1.03
-1.055
-1.055
-1.045
-1.04
-1.03
-1.02
-1.02
-1.01
-1.025
-1.03
-1.03
-1.035
-1.065
-1.045
-1.06
-1.045
-1.04
-1.03
-1.015
-1.02
-1.015
-1.035
-1.02
-1.03
-1.025
-1.03
-1.02
-1.01
-1.005
-0.99
-0.965
-0.965
-0.965
-0.95
-0.95
-0.975
-0.97
-0.965
-0.945
-0.92
-0.895
-0.865
-0.845
-0.85
-0.865
-0.86
-0.9
-0.92
-0.925
-0.935
-0.935
-0.935
-0.935
-0.945
-0.95
-0.96
-0.97
-0.98
-0.995
-1.01
-1.025
-1.035
-1.04
-1.04
-1.025
-1.03
-1.035
-1.035
-1.035
-1.03
-1.045
-1.055
-1.055
-1.07
-1.065
-1.055
-1.045
-1.055
-1.04
-1.035
-1.03
-1.045
-1.035
-1.05
-1.05
-1.06
-1.05
-1.045
-1.025
-1.025
-1.01
-0.995
-0.965
-0.92
-0.845
-0.76
-0.66
-0.52
-0.39
-0.26
-0.125
-0.06
-0.06
-0.125
-0.285
-0.485
-0.73
-0.97
-1.215
-1.425
-1.545
-1.57
-1.49
-1.38
-1.265
-1.19
-1.135
-1.12
-1.095
-1.085
-1.055
-1.04
-1.02
-1.01
-1.005
-1.015
-1.02
-1.0
-0.995
-1.0
-1.005
-1.01
-1.01
-1.015
-0.995
-0.99
-0.985
-0.995
-0.96
-0.955
-0.965
-0.965
-0.97
-0.98
-0.97
-0.975
-0.975
-0.975
-0.95
-0.94
-0.93
-0.945
-0.935
-0.94
-0.945
-0.95
-0.96
-0.945
-0.96
-0.94
-0.945
-0.92
-0.915
-0.89
-0.88
-0.895
-0.905
-0.905
-0.905
-0.91
-0.9
-0.885
-0.87
-0.86
-0.845
-0.825
-0.82
-0.83
-0.825
-0.835
-0.84
-0.84
-0.82
-0.815
-0.79
-0.77
-0.74
-0.74
-0.715
-0.71
-0.715
-0.73
-0.695
-0.69
-0.68
-0.66
-0.64
-0.615
-0.59
-0.565
-0.565
-0.56
-0.555
-0.545
-0.545
-0.535
-0.53
-0.515
-0.5
-0.485
-0.475
-0.46
-0.45
-0.44
-0.455
-0.455
-0.46
-0.46
-0.465
-0.485
-0.485
-0.485
-0.49
-0.5
-0.51
-0.545
-0.575
-0.605
-0.635
-0.67
-0.695
-0.71
-0.735
-0.755
-0.755
-0.79
-0.805
-0.835
-0.87
-0.895
-0.92
-0.935
-0.935
-0.965
-0.975
-0.965
-0.97
-0.95
-0.96
-0.975
-0.99
-1.01
-1.02
-1.04
-1.02
-1.02
-1.015
-1.005
-1.0
-0.99
-0.995
-1.0
-0.995
-1.015
-1.025
-1.015
-1.035
-1.02
-1.015
-1.02
-1.01
-0.995
-1.005
-0.995
-1.005
-1.005
-0.995
-1.025
-1.01
-1.015
-1.005
-0.98
-0.98
-0.985
-0.995
-0.98
-0.995
-1.0
-1.015
-1.015
-1.03
-1.03
-1.005
-1.005
-0.98
-1.0
-0.99
-1.0
-1.005
-1.025
-1.035
-1.04
-1.05
-1.045
-1.04
-1.035
-1.025
-1.02
-1.02
-1.02
-1.025
-1.045
-1.05
-1.05
-1.055
-1.045
-1.04
-1.04
-1.04
-1.03
-1.04
-1.055
-1.055
-1.09
-1.075
-1.08
-1.085
-1.08
-1.07
-1.065
-1.05
-1.035
-1.045
-1.04
-1.055
-1.045
-1.06
-1.07
-1.08
-1.07
-1.065
-1.06
-1.07
-1.055
-1.06
-1.06
-1.065
-1.07
-1.075
-1.095
-1.09
-1.09
-1.085
-1.075
-1.075
-1.065
-1.05
-1.055
-1.075
-1.09
-1.08
-1.08
-1.08
-1.08
-1.07
-1.055
-1.065
-1.065
-1.05
-1.06
-1.08
-1.085
-1.08
-1.105
-1.07
-1.075
-1.06
-1.06
-1.055
-1.04
-1.055
-1.05
-1.06
-1.075
-1.065
-1.095
-1.095
-1.085
-1.085
-1.06
-1.055
-1.045
-1.055
-1.065
-1.09
-1.1
-1.085
-1.085
-1.075
-1.075
-1.07
-1.06
-1.05
-1.045
-1.06
-1.065
-1.075
-1.065
-1.08
-1.08
-1.09
-1.09
-1.08
-1.065
-1.05
-1.045
-1.055
-1.05
-1.06
-1.065
-1.065
-1.07
-1.075
-1.085
-1.08
-1.065
-1.045
-1.045
-1.04
-1.065
-1.065
-1.055
-1.065
-1.075
-1.065
-1.075
-1.07
-1.06
-1.05
-1.045
-1.065
-1.06
-1.07
-1.07
-1.075
-1.08
-1.075
-1.065
-1.055
-1.055
-1.045
-1.055
-1.045
-1.055
-1.055
-1.05
-1.065
-1.08
-1.08
-1.055
-1.045
-1.04
-1.03
-1.03
-1.025
-1.025
-1.045
-1.045
-1.075
-1.07
-1.045
-1.05
-1.03
-1.025
-1.005
-1.0
-0.98
-0.985
-0.98
-0.995
-1.005
-1.01
-0.985
-0.975
-0.945
-0.93
-0.885
-0.86
-0.86
-0.86
-0.88
-0.89
-0.91
-0.93
-0.94
-0.945
-0.94
-0.93
-0.935
-0.935
-0.95
-0.98
-0.995
-1.0
-1.01
-1.035
-1.035
-1.02
-1.02
-1.035
-1.025
-1.035
-1.035
-1.025
-1.055
-1.05
-1.08
-1.07
-1.07
-1.06
-1.05
-1.06
-1.04
-1.035
-1.045
-1.035
-1.055
-1.06
-1.07
-1.065
-1.065
-1.07
-1.05
-1.035
-1.015
-1.015
-1.01
-1.01
-0.995
-0.98
-0.935
-0.85
-0.745
-0.62
-0.49
-0.39
-0.335
-0.36
-0.44
-0.61
-0.825
-1.065
-1.31
-1.51
-1.645
-1.675
-1.635
-1.515
-1.415
-1.32
-1.24
-1.195
-1.17
-1.125
-1.1
-1.07
-1.03
-1.005
-0.985
-0.985
-0.995
-0.985
-0.965
-0.975
-0.985
-0.985
-0.985
-0.99
-0.99
-0.98
-0.97
-0.96
-0.95
-0.95
-0.95
-0.965
-0.97
-0.965
-0.97
-0.96
-0.955
-0.95
-0.95
-0.95
-0.93
-0.92
-0.915
-0.92
-0.925
-0.905
-0.925
-0.93
-0.925
-0.93
-0.93
-0.9
-0.9
-0.885
-0.89
-0.88
-0.88
-0.9
-0.885
-0.9
-0.905
-0.885
-0.865
-0.86
-0.835
-0.84
-0.84
-0.835
-0.835
-0.815
-0.815
-0.815
-0.795
-0.795
-0.755
-0.74
-0.72
-0.72
-0.72
-0.705
-0.69
-0.675
-0.67
-0.66
-0.64
-0.63
-0.595
-0.565
-0.54
-0.535
-0.525
-0.495
-0.505
-0.495
-0.49
-0.495
-0.47
-0.465
-0.445
-0.43
-0.41
-0.415
-0.425
-0.43
-0.44
-0.445
-0.455
-0.47
-0.495
-0.5
-0.515
-0.515
-0.525
-0.545
-0.57
-0.6
-0.625
-0.655
-0.695
-0.725
-0.76
-0.78
-0.79
-0.805
-0.81
-0.835
-0.845
-0.87
-0.895
-0.92
-0.945
-0.955
-0.975
-0.98
-0.98
-0.97
-0.97
-0.975
-0.97
-0.985
-0.995
-1.0
-1.01
-1.02
-1.03
-1.015
-1.0
-1.0
-0.985
-0.995
-0.99
-0.995
-0.99
-1.01
-1.02
-1.03
-1.04
-1.03
-1.01
-1.01
-0.995
-0.99
-0.985
-0.99
-1.005
-1.005
-1.02
-1.02
-1.04
-1.015
-1.015
-1.0
-1.01
-0.99
-0.985
-1.0
-0.995
-1.005
-1.015
-1.02
-1.035
-1.01
-1.02
-1.015
-1.01
-1.005
-1.01
-1.025
-1.025
-1.035
-1.04
-1.035
-1.045
-1.045
-1.03
-1.035
-1.03
-1.035
-1.035
-1.03
-1.04
-1.045
-1.06
-1.06
-1.065
-1.05
-1.05
-1.05
-1.045
-1.04
-1.045
-1.045
-1.065
-1.06
-1.08
-1.095
-1.095
-1.09
-1.1
-1.065
-1.05
-1.05
-1.06
-1.055
-1.075
-1.07
-1.095
-1.1
-1.095
-1.09
-1.08
-1.08
-1.065
-1.055
-1.055
-1.06
-1.06
-1.07
-1.075
-1.08
-1.08
-1.075
-1.06
-1.065
-1.055
-1.06
-1.055
-1.065
-1.075
-1.085
-1.085
-1.09
-1.095
-1.09
-1.09
-1.08
-1.07
-1.055
-1.045
-1.045
-1.06
-1.085
-1.1
-1.085
-1.085
-1.09
-1.085
-1.065
-1.065
-1.065
-1.055
-1.07
-1.065
-1.07
-1.085
-1.085
-1.075
-1.08
-1.08
-1.07
-1.055
-1.05
-1.055
-1.08
-1.09
-1.08
-1.07
-1.085
-1.09
-1.09
-1.08
-1.08
-1.055
-1.055
-1.08
-1.065
-1.07
-1.075
-1.09
-1.1
-1.085
-1.09
-1.07
-1.07
-1.05
-1.045
-1.045
-1.055
-1.07
-1.06
-1.07
-1.075
-1.08
-1.075
-1.07
-1.08
-1.065
-1.055
-1.035
-1.055
-1.08
-1.085
-1.085
-1.075
-1.09
-1.09
-1.07
-1.065
-1.045
-1.035
-1.04
-1.045
-1.06
-1.065
-1.085
-1.08
-1.075
-1.085
-1.065
-1.08
-1.055
-1.055
-1.055
-1.055
-1.06
-1.07
-1.065
-1.09
-1.065
-1.055
-1.05
-1.045
-1.025
-1.0
-1.015
-1.005
-0.995
-0.99
-1.005
-1.0
-0.99
-0.98
-0.95
-0.93
-0.92
-0.89
-0.88
-0.885
-0.92
-0.92
-0.965
-0.965
-1.0
-0.965
-0.96
-0.97
-0.98
-0.975
-1.0
-1.005
-1.025
-1.04
-1.06
-1.075
-1.08
-1.075
-1.075
-1.07
-1.075
-1.065
-1.06
-1.07
-1.095
-1.115
-1.125
-1.12
-1.115
-1.105
-1.095
-1.095
-1.08
-1.085
-1.075
-1.085
-1.09
-1.095
-1.1
-1.1
-1.1
-1.09
-1.07
-1.085
-1.055
-1.055
-1.05
-1.02
-0.985
-0.925
-0.84
-0.74
-0.615
-0.475
-0.335
-0.22
-0.145
-0.12
-0.185
-0.33
-0.53
-0.795
-1.03
-1.3
-1.49
-1.565
-1.58
-1.5
-1.4
-1.285
-1.2
-1.17
-1.14
-1.115
-1.08
-1.065
-1.06
-1.04
-1.06
-1.055
-1.05
-1.04
-1.035
-1.02
-1.025
-1.035
-1.05
-1.045
-1.055
-1.025
-1.025
-1.02
-1.015
-1.01
-1.01
-0.99
-1.005
-1.005
-1.01
-1.015
-1.01
-1.0
-0.99
-0.99
-0.975
-0.97
-0.965
-0.96
-0.97
-0.975
-0.985
-0.985
-0.985
-0.99
-0.965
-0.97
-0.975
-0.945
-0.935
-0.925
-0.93
-0.945
-0.94
-0.935
-0.935
-0.93
-0.915
-0.91
-0.89
-0.885
-0.88
-0.885
-0.89
-0.885
-0.875
-0.865
-0.85
-0.85
-0.835
-0.825
-0.82
-0.81
-0.79
-0.77
-0.765
-0.76
-0.755
-0.745
-0.735
-0.705
-0.7
-0.675
-0.65
-0.635
-0.63
-0.605
-0.615
-0.605
-0.6
-0.595
-0.59
-0.58
-0.565
-0.555
-0.52
-0.525
-0.505
-0.5
-0.52
-0.52
-0.51
-0.525
-0.52
-0.52
-0.53
-0.53
-0.545
-0.55
-0.585
-0.595
-0.605
-0.64
-0.68
-0.705
-0.74
-0.755
-0.77
-0.79
-0.8
-0.83
-0.85
-0.89
-0.895
-0.93
-0.95
-0.98
-0.995
-1.0
-1.01
-0.995
-1.0
-0.99
-1.02
-1.025
-1.045
-1.055
-1.07
-1.085
-1.08
-1.075
-1.07
-1.08
-1.055
-1.06
-1.04
-1.06
-1.065
-1.065
-1.07
-1.09
-1.09
-1.1
-1.07
-1.06
-1.06
-1.045
-1.04
-1.04
-1.045
-1.055
-1.085
-1.075
-1.075
-1.07
-1.06
-1.065
-1.045
-1.03
-1.04
-1.035
-1.04
-1.055
-1.07
-1.07
-1.07
-1.07
-1.06
-1.055
-1.05
-1.04
-1.06
-1.055
-1.06
-1.075
-1.09
-1.09
-1.095
-1.105
-1.09
-1.065
-1.055
-1.055
-1.065
-1.085
-1.095
-1.095
-1.115
-1.095
-1.13
-1.115
-1.1
-1.095
-1.095
-1.08
-1.085
-1.09
-1.095
-1.12
-1.125
-1.125
-1.13
-1.11
-1.105
-1.115
-1.09
-1.085
-1.095
-1.095
-1.095
-1.105
-1.11
-1.125
-1.135
-1.135
-1.125
-1.115
-1.1
-1.09
-1.09
-1.105
-1.1
-1.115
-1.115
-1.125
-1.13
-1.12
-1.11
-1.105
-1.095
-1.08
-1.095
-1.095
-1.105
-1.105
-1.125
-1.12
-1.125
-1.12
-1.115
-1.11
-1.11
-1.11
-1.11
-1.095
-1.11
-1.11
-1.125
-1.11
-1.12
-1.13
-1.115
-1.1
-1.085
-1.095
-1.09
-1.085
-1.115
-1.115
-1.125
-1.125
-1.13
-1.14
-1.125
-1.115
-1.125
-1.105
-1.095
-1.11
-1.13
-1.135
-1.115
-1.105
-1.125
-1.115
-1.105
-1.1
-1.095
-1.095
-1.08
-1.08
-1.1
-1.095
-1.1
-1.115
-1.12
-1.115
-1.11
-1.1
-1.095
-1.085
-1.095
-1.1
-1.105
-1.125
-1.125
-1.115
-1.115
-1.115
-1.105
-1.085
-1.08
-1.07
-1.075
-1.1
-1.095
-1.11
-1.125
-1.115
-1.11
-1.125
-1.11
-1.09
-1.11
-1.09
-1.075
-1.075
-1.085
-1.09
-1.09
-1.11
-1.115
-1.105
-1.11
-1.09
-1.085
-1.08
-1.085
-1.08
-1.065
-1.08
-1.1
-1.11
-1.1
-1.09
-1.09
-1.085
-1.085
-1.065
-1.075
-1.065
-1.085
-1.085
-1.095
-1.095
-1.085
-1.09
-1.075
-1.06
-1.045
-1.03
-1.035
-1.025
-1.045
-1.055
-1.03
-1.03
-1.015
-0.995
-0.99
-0.955
-0.94
-0.915
-0.935
-0.945
-0.945
-0.97
-0.98
-0.995
-1.01
-1.005
-1.01
-1.015
-1.025
-1.03
-1.035
-1.045
-1.045
-1.07
-1.1
-1.095
-1.11
-1.1
-1.09
-1.085
-1.08
-1.075
-1.105
-1.095
-1.1
-1.125
-1.115
-1.13
-1.115
-1.12
-1.1
-1.095
-1.11
-1.09
-1.115
-1.115
-1.13
-1.105
-1.12
-1.1
-1.125
-1.11
-1.1
-1.085
-1.08
-1.025
-0.985
-0.905
-0.82
-0.715
-0.58
-0.455
-0.35
-0.265
-0.245
-0.305
-0.44
-0.645
-0.88
-1.125
-1.355
-1.515
-1.58
-1.56
-1.48
-1.38
-1.305
-1.22
-1.17
-1.125
-1.095
-1.07
-1.075
-1.075
-1.075
-1.07
-1.1
-1.085
-1.09
-1.08
-1.065
-1.045
-1.045
-1.06
-1.05
-1.055
-1.05
-1.06
-1.065
-1.055
-1.045
-1.04
-1.02
-1.015
-1.005
-1.005
-1.005
-1.03
-1.04
-1.025
-1.035
-1.04
-1.025
-1.005
-0.985
-0.985
-0.98
-0.99
-1.005
-1.01
-1.0
-1.02
-1.02
-1.02
-1.0
-0.99
-0.96
-0.95
-0.95
-0.955
-0.95
-0.96
-0.945
-0.95
-0.955
-0.93
-0.915
-0.91
-0.895
-0.87
-0.88
-0.87
-0.87
-0.86
-0.865
-0.855
-0.84
-0.83
-0.81
-0.795
-0.775
-0.76
-0.74
-0.74
-0.72
-0.715
-0.71
-0.695
-0.69
-0.665
-0.635
-0.625
-0.625
-0.585
-0.58
-0.57
-0.575
-0.58
-0.585
-0.575
-0.59
-0.58
-0.57
-0.54
-0.535
-0.53
-0.565
-0.565
-0.555
-0.595
-0.61
-0.63
-0.64
-0.65
-0.68
-0.695
-0.71
-0.725
-0.75
-0.78
-0.79
-0.81
-0.855
-0.885
-0.91
-0.925
-0.92
-0.935
-0.945
-0.95
-0.955
-0.975
-0.99
-1.015
-1.03
-1.035
-1.045
-1.06
-1.05
-1.045
-1.045
-1.05
-1.05
-1.065
-1.08
-1.085
-1.085
-1.09
-1.085
-1.085
-1.09
-1.1
-1.095
-1.05
-1.05
-1.055
-1.055
-1.07
-1.075
-1.07
-1.1
-1.09
-1.07
-1.065
-1.06
-1.06
-1.04
-1.06
-1.06
-1.08
-1.08
-1.08
-1.08
-1.085
-1.07
-1.065
-1.045
-1.06
-1.045
-1.055
-1.07
-1.075
-1.09
-1.095
-1.095
-1.1
-1.105
-1.09
-1.095
-1.08
-1.09
-1.09
-1.09
-1.1
-1.105
-1.12
-1.12
-1.13
-1.115
-1.11
-1.1
-1.085
-1.09
-1.095
-1.11
-1.12
-1.12
-1.125
-1.14
-1.135
-1.13
-1.115
-1.115
-1.095
-1.11
-1.11
-1.12
-1.14
-1.145
-1.15
-1.175
-1.16
-1.135
-1.14
-1.13
-1.13
-1.135
-1.13
-1.135
-1.135
-1.135
-1.15
-1.16
-1.14
-1.14
-1.13
-1.125
-1.115
-1.115
-1.125
-1.13
-1.135
-1.145
-1.15
-1.15
-1.155
-1.135
-1.13
-1.12
-1.115
-1.125
-1.105
-1.12
-1.14
-1.145
-1.145
-1.15
-1.14
-1.14
-1.135
-1.125
-1.13
-1.13
-1.13
-1.14
-1.13
-1.14
-1.13
-1.16
-1.145
-1.16
-1.13
-1.15
-1.115
-1.125
-1.12
-1.125
-1.135
-1.14
-1.145
-1.155
-1.155
-1.15
-1.13
-1.125
-1.12
-1.12
-1.13
-1.135
-1.135
-1.135
-1.145
-1.14
-1.145
-1.155
-1.14
-1.12
-1.11
-1.105
-1.11
-1.13
-1.15
-1.16
-1.145
-1.155
-1.145
-1.135
-1.14
-1.13
-1.11
-1.105
-1.115
-1.12
-1.125
-1.13
-1.14
-1.145
-1.145
-1.15
-1.135
-1.125
-1.13
-1.115
-1.11
-1.11
-1.125
-1.135
-1.14
-1.14
-1.125
-1.12
-1.115
-1.11
-1.085
-1.1
-1.095
-1.115
-1.12
-1.115
-1.125
-1.125
-1.12
-1.105
-1.12
-1.09
-1.075
-1.06
-1.045
-1.055
-1.085
-1.075
-1.075
-1.08
-1.065
-1.04
-1.03
-1.0
-0.975
-0.975
-0.98
-0.965
-0.965
-0.965
-0.965
-0.985
-0.99
-0.99
-1.01
-1.0
-0.98
-0.985
-1.0
-1.03
-1.06
-1.07
-1.09
-1.11
-1.12
-1.11
-1.105
-1.085
-1.085
-1.08
-1.09
-1.09
-1.115
-1.11
-1.13
-1.135
-1.15
-1.125
-1.115
-1.11
-1.1
-1.09
-1.095
-1.095
-1.12
-1.125
-1.125
-1.13
-1.125
-1.11
-1.105
-1.1
-1.085
-1.085
-1.09
-1.07
-1.04
-1.0
-0.935
-0.85
-0.76
-0.63
-0.54
-0.43
-0.31
-0.32
-0.39
-0.495
-0.675
-0.89
-1.13
-1.35
-1.535
-1.63
-1.64
-1.575
-1.485
-1.39
-1.315
-1.265
-1.235
-1.205
-1.18
-1.14
-1.11
-1.08
-1.065
-1.055
-1.055
-1.06
-1.055
-1.055
-1.055
-1.06
-1.055
-1.075
-1.06
-1.055
-1.025
-1.025
-1.025
-1.025
-1.02
-1.035
-1.02
-1.035
-1.02
-1.035
-1.02
-1.01
-1.005
-0.99
-0.975
-0.975
-0.97
-0.975
-0.98
-0.985
-0.98
-0.99
-0.97
-0.975
-0.97
-0.955
-0.945
-0.95
-0.94
-0.945
-0.96
-0.95
-0.945
-0.935
-0.935
-0.945
-0.91
-0.905
-0.915
-0.885
-0.9
-0.89
-0.87
-0.88
-0.885
-0.885
-0.86
-0.85
-0.84
-0.815
-0.795
-0.8
-0.79
-0.775
-0.775
-0.775
-0.77
-0.755
-0.73
-0.725
-0.7
-0.675
-0.64
-0.625
-0.625
-0.625
-0.6
-0.605
-0.605
-0.595
-0.595
-0.58
-0.565
-0.545
-0.52
-0.53
-0.525
-0.52
-0.535
-0.535
-0.55
-0.57
-0.58
-0.59
-0.585
-0.58
-0.58
-0.605
-0.63
-0.655
-0.675
-0.7
-0.735
-0.76
-0.78
-0.8
-0.81
-0.82
-0.84
-0.86
-0.885
-0.905
-0.92
-0.955
-0.97
-0.99
-1.0
-1.01
-1.005
-1.02
-1.0
-1.005
-1.0
-1.025
-1.035
-1.045
-1.055
-1.06
-1.06
-1.055
-1.055
-1.055
-1.035
-1.045
-1.035
-1.055
-1.05
-1.065
-1.06
-1.075
-1.07
-1.07
-1.07
-1.06
-1.04
-1.04
-1.04
-1.045
-1.055
-1.07
-1.06
-1.065
-1.07
-1.055
-1.055
-1.04
-1.04
-1.035
-1.04
-1.045
-1.07
-1.06
-1.065
-1.065
-1.065
-1.07
-1.06
-1.06
-1.04
-1.04
-1.05
-1.045
-1.065
-1.06
-1.07
-1.085
-1.08
-1.07
-1.07
-1.06
-1.065
-1.055
-1.07
-1.07
-1.09
-1.1
-1.11
-1.095
-1.12
-1.1
-1.105
-1.105
-1.095
-1.085
-1.075
-1.07
-1.085
-1.1
-1.1
-1.1
-1.11
-1.105
-1.09
-1.075
-1.07
-1.07
-1.075
-1.08
-1.095
-1.095
-1.105
-1.1
-1.11
-1.115
-1.1
-1.095
-1.075
-1.075
-1.09
-1.09
-1.085
-1.115
-1.12
-1.125
-1.115
-1.105
-1.1
-1.095
-1.1
-1.085
-1.09
-1.09
-1.13
-1.135
-1.14
-1.135
-1.14
-1.115
-1.11
-1.1
-1.095
-1.09
-1.085
-1.095
-1.105
-1.105
-1.105
-1.115
-1.125
-1.115
-1.09
-1.09
-1.075
-1.085
-1.07
-1.085
-1.105
-1.11
-1.11
-1.11
-1.115
-1.115
-1.09
-1.12
-1.085
-1.085
-1.085
-1.095
-1.11
-1.12
-1.115
-1.105
-1.115
-1.105
-1.085
-1.105
-1.08
-1.075
-1.07
-1.1
-1.125
-1.13
-1.135
-1.125
-1.12
-1.125
-1.095
-1.09
-1.08
-1.075
-1.09
-1.095
-1.1
-1.1
-1.11
-1.115
-1.12
-1.09
-1.085
-1.085
-1.075
-1.1
-1.095
-1.09
-1.095
-1.095
-1.11
-1.095
-1.095
-1.09
-1.105
-1.07
-1.065
-1.065
-1.07
-1.075
-1.075
-1.095
-1.095
-1.105
-1.09
-1.095
-1.075
-1.065
-1.065
-1.055
-1.06
-1.075
-1.08
-1.095
-1.085
-1.105
-1.105
-1.075
-1.065
-1.06
-1.045
-1.04
-1.035
-1.045
-1.035
-1.035
-1.025
-1.025
-1.01
-1.01
-1.0
-0.99
-0.975
-0.965
-0.945
-0.96
-0.94
-0.925
-0.925
-0.925
-0.935
-0.955
-0.955
-0.945
-0.955
-0.945
-0.955
-0.96
-0.99
-1.0
-1.02
-1.045
-1.045
-1.045
-1.055
-1.045
-1.04
-1.065
-1.05
-1.05
-1.065
-1.075
-1.085
-1.095
-1.09
-1.09
-1.095
-1.08
-1.075
-1.055
-1.065
-1.065
-1.07
-1.085
-1.085
-1.085
-1.095
-1.08
-1.06
-1.05
-1.04
-1.04
-1.03
-1.005
-0.97
-0.905
-0.815
-0.705
-0.575
-0.44
-0.295
-0.195
-0.16
-0.17
-0.255
-0.435
-0.625
-0.875
-1.13
-1.325
-1.48
-1.53
-1.495
-1.42
-1.315
-1.24
-1.18
-1.15
-1.105
-1.09
-1.08
-1.05
-1.03
-1.025
-1.015
-1.015
-1.025
-0.995
-1.01
-1.02
-1.02
-1.015
-1.025
-1.03
-1.01
-1.005
-0.99
-0.99
-0.97
-0.975
-0.98
-0.98
-0.985
-0.975
-0.99
-1.0
-0.975
-0.98
-0.965
-0.96
-0.95
-0.93
-0.94
-0.955
-0.945
-0.96
-0.96
-0.965
-0.97
-0.95
-0.95
-0.94
-0.92
-0.905
-0.905
-0.91
-0.91
-0.915
-0.93
-0.93
-0.925
-0.92
-0.9
-0.875
-0.865
-0.855
-0.855
-0.86
-0.855
-0.85
-0.845
-0.85
-0.845
-0.835
-0.82
-0.785
-0.765
-0.755
-0.755
-0.73
-0.725
-0.715
-0.705
-0.71
-0.695
-0.68
-0.63
-0.615
-0.6
-0.585
-0.58
-0.59
-0.58
-0.56
-0.56
-0.545
-0.545
-0.53
-0.535
-0.525
-0.515
-0.495
-0.48
-0.49
-0.5
-0.5
-0.525
-0.53
-0.54
-0.545
-0.56
-0.56
-0.585
-0.605
-0.615
-0.65
-0.685
-0.725
-0.74
-0.77
-0.795
-0.825
-0.825
-0.835
-0.86
-0.865
-0.88
-0.9
-0.93
-0.985
-0.975
-0.99
-1.0
-0.985
-0.995
-0.995
-0.985
-0.995
-0.995
-1.0
-1.01
-1.01
-1.02
-1.025
-1.03
-1.015
-1.02
-1.025
-1.0
-0.99
-1.0
-1.01
-1.005
-1.015
-1.025
-1.03
-1.03
-1.03
-1.005
-1.005
-0.995
-1.0
-1.0
-0.99
-1.005
-1.015
-1.02
-1.02
-1.02
-1.015
-1.02
-1.0
-1.015
-1.005
-1.02
-1.01
-1.0
-1.02
-1.03
-1.035
-1.04
-1.025
-1.045
-1.02
-1.015
-1.015
-1.01
-1.02
-1.015
-1.045
-1.055
-1.07
-1.075
-1.065
-1.055
-1.045
-1.04
-1.035
-1.035
-1.045
-1.05
-1.075
-1.08
-1.095
-1.075
-1.085
-1.07
-1.075
-1.055
-1.045
-1.05
-1.055
-1.065
-1.08
-1.095
-1.1
-1.1
-1.095
-1.095
-1.075
-1.075
-1.05
-1.07
-1.07
-1.075
-1.09
-1.1
-1.1
-1.105
-1.105
-1.095
-1.075
-1.075
-1.07
-1.06
-1.085
-1.08
-1.09
-1.095
-1.09
-1.11
-1.105
-1.085
-1.09
-1.075
-1.07
-1.075
-1.09
-1.095
-1.1
-1.105
-1.1
-1.105
-1.1
-1.09
-1.09
-1.075
-1.08
-1.085
-1.085
-1.09
-1.095
-1.09
-1.1
-1.095
-1.085
-1.085
-1.075
-1.08
-1.07
-1.07
-1.065
-1.09
-1.09
-1.085
-1.09
-1.09
-1.085
-1.08
-1.07
-1.055
-1.08
-1.06
-1.065
-1.07
-1.065
-1.08
-1.07
-1.09
-1.095
-1.07
-1.08
-1.055
-1.05
-1.065
-1.06
-1.06
-1.07
-1.08
-1.075
-1.07
-1.08
-1.07
-1.065
-1.07
-1.055
-1.055
-1.06
-1.055
-1.085
-1.075
-1.07
-1.07
-1.08
-1.055
-1.05
-1.045
-1.04
-1.04
-1.035
-1.05
-1.055
-1.055
-1.055
-1.065
-1.065
-1.06
-1.04
-1.04
-1.035
-1.035
-1.035
-1.06
-1.065
-1.065
-1.065
-1.075
-1.05
-1.03
-1.025
-1.0
-0.985
-0.98
-0.99
-1.01
-0.99
-0.995
-0.99
-1.0
-0.995
-0.955
-0.935
-0.905
-0.885
-0.875
-0.86
-0.88
-0.88
-0.9
-0.925
-0.94
-0.935
-0.935
-0.93
-0.925
-0.92
-0.945
-0.975
-0.985
-1.015
-1.015
-1.035
-1.03
-1.035
-1.03
-1.035
-1.035
-1.035
-1.015
-1.045
-1.05
-1.055
-1.075
-1.085
-1.075
-1.07
-1.06
-1.045
-1.055
-1.04
-1.045
-1.05
-1.065
-1.06
-1.06
-1.065
-1.055
-1.06
-1.045
-1.025
-1.03
-0.975
-0.93
-0.87
-0.795
-0.71
-0.595
-0.495
-0.415
-0.335
-0.355
-0.43
-0.575
-0.78
-1.005
-1.225
-1.445
-1.605
-1.665
-1.63
-1.545
-1.435
-1.34
-1.265
-1.21
-1.17
-1.13
-1.085
-1.05
-1.035
-1.02
-1.01
-1.015
-1.02
-1.01
-1.01
-0.995
-0.985
-0.985
-0.98
-0.97
-0.975
-0.98
-0.985
-0.985
-0.97
-0.97
-0.955
-0.945
-0.945
-0.945
-0.94
-0.94
-0.955
-0.96
-0.945
-0.945
-0.94
-0.935
-0.925
-0.89
-0.89
-0.9
-0.905
-0.89
-0.905
-0.915
-0.91
-0.92
-0.93
-0.9
-0.895
-0.86
-0.855
-0.845
-0.85
-0.87
-0.85
-0.85
-0.85
-0.865
-0.835
-0.83
-0.815
-0.8
-0.805
-0.805
-0.8
-0.79
-0.79
-0.775
-0.765
-0.755
-0.755
-0.725
-0.705
-0.685
-0.67
-0.65
-0.645
-0.635
-0.64
-0.655
-0.64
-0.605
-0.585
-0.57
-0.545
-0.525
-0.5
-0.495
-0.49
-0.49
-0.49
-0.505
-0.505
-0.505
-0.47
-0.47
-0.465
-0.44
-0.445
-0.45
-0.46
-0.47
-0.495
-0.515
-0.53
-0.51
-0.53
-0.55
-0.555
-0.57
-0.595
-0.63
-0.655
-0.68
-0.715
-0.75
-0.77
-0.795
-0.8
-0.82
-0.83
-0.84
-0.84
-0.865
-0.895
-0.91
-0.925
-0.935
-0.945
-0.95
-0.955
-0.945
-0.96
-0.95
-0.94
-0.955
-0.95
-0.955
-0.965
-0.975
-0.985
-0.98
-0.975
-0.97
-0.98
-0.97
-0.98
-0.965
-0.965
-0.965
-0.975
-0.975
-0.98
-0.975
-0.97
-0.965
-0.96
-0.955
-0.93
-0.95
-0.955
-0.95
-0.96
-0.97
-0.97
-0.975
-0.97
-0.975
-0.97
-0.95
-0.935
-0.94
-0.945
-0.95
-0.96
-0.985
-0.975
-0.975
-0.975
-0.965
-0.965
-0.96
-0.955
-0.95
-0.965
-0.975
-0.99
-1.0
-1.005
-1.015
-1.005
-1.005
-1.005
-0.995
-0.995
-1.0
-1.015
-1.02
-1.045
-1.05
-1.055
-1.055
-1.055
-1.03
-1.035
-1.025
-1.025
-1.015
-1.025
-1.035
-1.04
-1.06
-1.055
-1.055
-1.065
-1.055
-1.045
-1.035
-1.02
-1.015
-1.02
-1.025
-1.035
-1.045
-1.045
-1.045
-1.04
-1.04
-1.04
-1.04
-1.03
-1.025
-1.025
-1.035
-1.05
-1.075
-1.07
-1.065
-1.06
-1.05
-1.05
-1.04
-1.04
-1.045
-1.06
-1.05
-1.06
-1.065
-1.075
-1.075
-1.055
-1.045
-1.05
-1.03
-1.035
-1.035
-1.045
-1.04
-1.05
-1.06
-1.06
-1.07
-1.065
-1.055
-1.05
-1.04
-1.03
-1.04
-1.04
-1.05
-1.065
-1.085
-1.08
-1.065
-1.07
-1.07
-1.06
-1.045
-1.045
-1.04
-1.03
-1.045
-1.055
-1.05
-1.065
-1.06
-1.07
-1.075
-1.055
-1.035
-1.035
-1.07
-1.055
-1.055
-1.06
-1.06
-1.065
-1.075
-1.075
-1.065
-1.06
-1.04
-1.045
-1.055
-1.055
-1.06
-1.06
-1.055
-1.08
-1.065
-1.065
-1.06
-1.045
-1.045
-1.03
-1.03
-1.03
-1.045
-1.05
-1.04
-1.06
-1.08
-1.06
-1.055
-1.06
-1.045
-1.045
-1.05
-1.035
-1.04
-1.055
-1.06
-1.065
-1.055
-1.055
-1.06
-1.05
-1.045
-1.04
-1.045
-1.035
-1.04
-1.055
-1.05
-1.07
-1.06
-1.05
-1.06
-1.04
-1.015
-1.01
-1.005
-1.005
-0.995
-0.99
-0.99
-0.995
-0.99
-0.98
-0.97
-0.955
-0.935
-0.9
-0.895
-0.88
-0.885
-0.875
-0.88
-0.89
-0.915
-0.92
-0.915
-0.915
-0.93
-0.925
-0.92
-0.94
-0.955
-0.975
-0.99
-1.02
-1.035
-1.05
-1.03
-1.02
-1.025
-1.02
