Lead II
-0.105
-0.08
-0.055
-0.05
-0.055
-0.04
-0.015
0.04
0.105
0.165
0.21
0.27
0.345
0.49
0.67
0.815
0.935
1.045
1.135
1.26
1.405
1.595
1.765
1.89
1.935
1.84
1.575
1.13
0.635
0.285
0.08
-0.02
-0.03
-0.035
-0.055
-0.08
-0.115
-0.125
-0.13
-0.13
-0.13
-0.15
-0.17
-0.185
-0.195
-0.2
-0.2
-0.21
-0.225
-0.22
-0.21
-0.195
-0.21
-0.225
-0.24
-0.235
-0.21
-0.21
-0.215
-0.24
-0.255
-0.245
-0.24
-0.225
-0.23
-0.255
-0.25
-0.265
-0.24
-0.235
-0.25
-0.27
-0.265
-0.265
-0.265
-0.28
-0.305
-0.32
-0.305
-0.28
-0.265
-0.255
-0.265
-0.29
-0.315
-0.28
-0.24
-0.245
-0.26
-0.31
-0.335
-0.35
-0.315
-0.275
-0.265
-0.28
-0.3
-0.28
-0.255
-0.25
-0.27
-0.31
-0.33
-0.33
-0.3
-0.28
-0.285
-0.29
-0.3
-0.27
-0.26
-0.25
-0.25
-0.26
-0.25
-0.23
-0.215
-0.21
-0.225
-0.24
-0.22
-0.19
-0.16
-0.14
-0.125
-0.15
-0.145
-0.11
-0.075
-0.045
-0.035
-0.05
-0.05
-0.04
-0.02
0.02
0.04
0.035
0.025
0.015
0.025
0.01
0.0
-0.005
-0.01
-0.01
-0.005
0.0
-0.015
-0.03
-0.055
-0.04
-0.02
-0.005
-0.005
-0.025
-0.065
-0.08
-0.075
-0.06
-0.055
-0.06
-0.06
-0.075
-0.055
-0.07
-0.08
-0.105
-0.105
-0.09
-0.075
-0.065
-0.075
-0.105
-0.125
-0.12
-0.105
-0.095
-0.09
-0.11
-0.12
-0.105
-0.08
-0.06
-0.075
-0.095
-0.12
-0.145
-0.125
-0.11
-0.1
-0.115
-0.13
-0.11
-0.095
-0.105
-0.12
-0.115
-0.115
-0.105
-0.09
-0.095
-0.115
-0.135
-0.115
-0.11
-0.08
-0.075
-0.09
-0.09
-0.095
-0.095
-0.085
-0.075
-0.095
-0.125
-0.15
-0.145
-0.11
-0.07
-0.07
-0.1
-0.115
-0.12
-0.125
-0.11
-0.105
-0.12
-0.135
-0.15
-0.13
-0.09
-0.075
-0.09
-0.12
-0.14
-0.15
-0.145
-0.14
-0.12
-0.125
-0.12
-0.11
-0.1
-0.1
-0.12
-0.115
-0.115
-0.1
-0.09
-0.105
-0.11
-0.125
-0.11
-0.115
-0.125
-0.14
-0.18
-0.18
-0.18
-0.14
-0.115
-0.125
-0.135
-0.16
-0.15
-0.12
-0.13
-0.125
-0.135
-0.13
-0.115
-0.095
-0.09
-0.075
-0.095
-0.09
-0.075
-0.065
-0.055
-0.065
-0.065
-0.065
-0.045
-0.05
-0.05
-0.06
-0.08
-0.1
-0.08
-0.065
-0.065
-0.09
-0.11
-0.125
-0.11
-0.08
-0.055
-0.055
-0.06
-0.055
-0.055
-0.05
-0.05
-0.085
-0.115
-0.12
-0.12
-0.11
-0.095
-0.09
-0.085
-0.095
-0.085
-0.1
-0.125
-0.125
-0.135
-0.125
-0.115
-0.115
-0.115
-0.12
-0.125
-0.115
-0.12
-0.12
-0.105
-0.12
-0.13
-0.12
-0.1
-0.09
-0.085
-0.095
-0.115
-0.115
-0.11
-0.105
-0.085
-0.065
-0.035
0.005
0.09
0.16
0.245
0.29
0.35
0.465
0.595
0.765
0.9
1.0
1.09
1.185
1.295
1.435
1.58
1.76
1.89
2.005
2.06
1.97
1.685
1.225
0.715
0.37
0.185
0.055
-0.035
-0.09
-0.12
-0.125
-0.14
-0.135
-0.125
-0.135
-0.15
-0.175
-0.18
-0.17
-0.165
-0.19
-0.22
-0.23
-0.24
-0.2
-0.22
-0.245
-0.27
-0.29
-0.265
-0.235
-0.245
-0.255
-0.265
-0.285
-0.27
-0.26
-0.26
-0.265
-0.29
-0.3
-0.275
-0.255
-0.255
-0.28
-0.295
-0.3
-0.285
-0.275
-0.28
-0.295
-0.315
-0.31
-0.3
-0.28
-0.28
-0.295
-0.315
-0.305
-0.295
-0.28
-0.27
-0.315
-0.345
-0.36
-0.355
-0.325
-0.315
-0.32
-0.32
-0.33
-0.325
-0.32
-0.305
-0.33
-0.335
-0.32
-0.315
-0.3
-0.28
-0.295
-0.305
-0.3
-0.28
-0.25
-0.24
-0.235
-0.255
-0.25
-0.225
-0.215
-0.2
-0.205
-0.22
-0.215
-0.19
-0.14
-0.1
-0.1
-0.095
-0.075
-0.05
-0.015
-0.01
-0.01
-0.005
-0.01
0.015
0.045
0.045
0.04
0.015
0.015
0.0
-0.005
-0.005
-0.01
-0.01
-0.015
-0.01
-0.02
-0.03
-0.055
-0.08
-0.1
-0.095
-0.08
-0.07
-0.07
-0.09
-0.1
-0.075
-0.075
-0.055
-0.08
-0.105
-0.1
-0.075
-0.07
-0.06
-0.085
-0.1
-0.085
-0.075
-0.075
-0.055
-0.09
-0.135
-0.15
-0.135
-0.115
-0.1
-0.12
-0.14
-0.14
-0.13
-0.135
-0.125
-0.13
-0.145
-0.135
-0.125
-0.11
-0.125
-0.115
-0.13
-0.125
-0.115
-0.105
-0.105
-0.135
-0.14
-0.145
-0.105
-0.08
-0.07
-0.085
-0.11
-0.145
-0.16
-0.15
-0.125
-0.135
-0.135
-0.14
-0.12
-0.11
-0.1
-0.11
-0.115
-0.135
-0.12
-0.135
-0.125
-0.115
-0.12
-0.13
-0.13
-0.105
-0.115
-0.115
-0.13
-0.13
-0.135
-0.125
-0.135
-0.145
-0.175
-0.175
-0.145
-0.125
-0.12
-0.13
-0.15
-0.145
-0.15
-0.14
-0.14
-0.145
-0.175
-0.165
-0.15
-0.135
-0.125
-0.125
-0.14
-0.145
-0.145
-0.15
-0.16
-0.145
-0.16
-0.165
-0.155
-0.14
-0.135
-0.15
-0.16
-0.145
-0.125
-0.095
-0.1
-0.095
-0.105
-0.1
-0.085
-0.08
-0.1
-0.11
-0.115
-0.115
-0.12
-0.11
-0.105
-0.1
-0.11
-0.1
-0.105
-0.1
-0.105
-0.12
-0.135
-0.125
-0.11
-0.09
-0.105
-0.135
-0.155
-0.175
-0.17
-0.145
-0.135
-0.135
-0.155
-0.16
-0.155
-0.145
-0.155
-0.16
-0.16
-0.15
-0.135
-0.11
-0.115
-0.13
-0.155
-0.175
-0.17
-0.16
-0.175
-0.185
-0.185
-0.175
-0.16
-0.14
-0.135
-0.13
-0.12
-0.085
-0.04
0.02
0.085
0.135
0.19
0.26
0.365
0.525
0.66
0.8
0.905
1.005
1.125
1.255
1.405
1.6
1.77
1.92
1.985
1.9
1.61
1.115
0.59
0.23
0.075
-0.01
-0.075
-0.125
-0.155
-0.18
-0.175
-0.18
-0.185
-0.2
-0.245
-0.265
-0.27
-0.255
-0.245
-0.265
-0.29
-0.295
-0.295
-0.27
-0.26
-0.265
-0.3
-0.31
-0.305
-0.315
-0.325
-0.325
-0.345
-0.35
-0.32
-0.3
-0.295
-0.315
-0.34
-0.355
-0.35
-0.34
-0.335
-0.34
-0.36
-0.365
-0.35
-0.355
-0.345
-0.345
-0.355
-0.385
-0.365
-0.365
-0.355
-0.35
-0.36
-0.37
-0.38
-0.35
-0.345
-0.37
-0.385
-0.385
-0.37
-0.355
-0.35
-0.36
-0.38
-0.37
-0.37
-0.345
-0.35
-0.345
-0.375
-0.36
-0.335
-0.31
-0.32
-0.31
-0.315
-0.31
-0.295
-0.275
-0.25
-0.24
-0.245
-0.245
-0.23
-0.205
-0.19
-0.19
-0.185
-0.175
-0.145
-0.11
-0.08
-0.07
-0.085
-0.08
-0.075
-0.05
-0.045
-0.045
-0.06
-0.065
-0.06
-0.06
-0.065
-0.09
-0.095
-0.115
-0.095
-0.085
-0.09
-0.11
-0.105
-0.11
-0.095
-0.095
-0.11
-0.14
-0.155
-0.17
-0.155
-0.15
-0.15
-0.155
-0.175
-0.17
-0.135
-0.145
-0.145
-0.165
-0.155
-0.16
-0.145
-0.145
-0.17
-0.19
-0.215
-0.205
-0.175
-0.145
-0.14
-0.155
-0.19
-0.2
-0.195
-0.19
-0.175
-0.19
-0.2
-0.195
-0.175
-0.17
-0.155
-0.15
-0.17
-0.165
-0.15
-0.13
-0.12
-0.135
-0.17
-0.19
-0.2
-0.165
-0.15
-0.155
-0.165
-0.175
-0.17
-0.16
-0.16
-0.15
-0.165
-0.165
-0.15
-0.155
-0.165
-0.17
-0.17
-0.175
-0.155
-0.145
-0.14
-0.15
-0.17
-0.175
-0.145
-0.14
-0.145
-0.165
-0.175
-0.175
-0.165
-0.155
-0.15
-0.17
-0.195
-0.19
-0.16
-0.145
-0.135
-0.13
-0.16
-0.165
-0.17
-0.17
-0.18
-0.19
-0.2
-0.19
-0.16
-0.165
-0.175
-0.18
-0.185
-0.18
-0.175
-0.155
-0.155
-0.165
-0.18
-0.18
-0.19
-0.155
-0.155
-0.165
-0.18
-0.18
-0.155
-0.15
-0.145
-0.15
-0.16
-0.145
-0.13
-0.11
-0.12
-0.135
-0.15
-0.15
-0.125
-0.105
-0.1
-0.135
-0.15
-0.15
-0.13
-0.12
-0.125
-0.15
-0.155
-0.155
-0.14
-0.13
-0.125
-0.13
-0.155
-0.135
-0.105
-0.09
-0.1
-0.105
-0.125
-0.145
-0.15
-0.15
-0.155
-0.175
-0.19
-0.195
-0.19
-0.185
-0.185
-0.18
-0.195
-0.19
-0.16
-0.135
-0.14
-0.165
-0.195
-0.21
-0.195
-0.175
-0.16
-0.175
-0.195
-0.175
-0.175
-0.175
-0.17
-0.16
-0.18
-0.17
-0.135
-0.075
-0.015
0.04
0.09
0.15
0.26
0.385
0.53
0.7
0.835
0.95
1.07
1.155
1.31
1.51
1.7
1.8
1.72
1.415
0.91
0.425
0.14
0.005
-0.065
-0.115
-0.145
-0.18
-0.215
-0.23
-0.23
-0.2
-0.21
-0.24
-0.28
-0.295
-0.285
-0.27
-0.275
-0.275
-0.3
-0.31
-0.295
-0.275
-0.275
-0.275
-0.31
-0.31
-0.3
-0.27
-0.28
-0.29
-0.33
-0.345
-0.35
-0.315
-0.305
-0.32
-0.34
-0.35
-0.345
-0.335
-0.35
-0.35
-0.375
-0.38
-0.36
-0.335
-0.315
-0.325
-0.345
-0.345
-0.345
-0.345
-0.345
-0.365
-0.385
-0.365
-0.36
-0.345
-0.35
-0.37
-0.38
-0.37
-0.365
-0.34
-0.335
-0.345
-0.36
-0.35
-0.345
-0.325
-0.335
-0.35
-0.38
-0.355
-0.335
-0.305
-0.3
-0.3
-0.31
-0.315
-0.285
-0.29
-0.28
-0.285
-0.31
-0.305
-0.28
-0.245
-0.225
-0.22
-0.215
-0.21
-0.17
-0.145
-0.13
-0.125
-0.125
-0.145
-0.13
-0.125
-0.095
-0.1
-0.115
-0.11
-0.09
-0.07
-0.08
-0.13
-0.17
-0.17
-0.145
-0.145
-0.155
-0.16
-0.17
-0.16
-0.16
-0.175
-0.19
-0.185
-0.205
-0.215
-0.22
-0.185
-0.19
-0.2
-0.215
-0.22
-0.22
-0.21
-0.21
-0.2
-0.215
-0.205
-0.18
-0.185
-0.195
-0.215
-0.235
-0.215
-0.21
-0.205
-0.205
-0.23
-0.245
-0.235
-0.23
-0.235
-0.21
-0.225
-0.225
-0.25
-0.23
-0.225
-0.215
-0.23
-0.245
-0.245
-0.235
-0.205
-0.2
-0.21
-0.225
-0.24
-0.245
-0.22
-0.21
-0.215
-0.22
-0.21
-0.21
-0.195
-0.19
-0.215
-0.23
-0.22
-0.22
-0.19
-0.195
-0.22
-0.235
-0.245
-0.235
-0.225
-0.215
-0.23
-0.24
-0.23
-0.225
-0.205
-0.22
-0.235
-0.25
-0.245
-0.23
-0.225
-0.215
-0.22
-0.23
-0.225
-0.215
-0.21
-0.205
-0.215
-0.22
-0.23
-0.21
-0.205
-0.21
-0.21
-0.23
-0.225
-0.215
-0.215
-0.2
-0.2
-0.215
-0.235
-0.23
-0.22
-0.22
-0.225
-0.245
-0.25
-0.23
-0.195
-0.17
-0.165
-0.175
-0.185
-0.195
-0.19
-0.17
-0.16
-0.16
-0.155
-0.15
-0.135
-0.165
-0.195
-0.205
-0.19
-0.18
-0.17
-0.17
-0.175
-0.175
-0.155
-0.13
-0.13
-0.12
-0.155
-0.18
-0.195
-0.205
-0.195
-0.19
-0.2
-0.205
-0.2
-0.19
-0.195
-0.21
-0.21
-0.225
-0.21
-0.22
-0.22
-0.225
-0.23
-0.225
-0.225
-0.2
-0.195
-0.19
-0.2
-0.21
-0.22
-0.2
-0.18
-0.185
-0.185
-0.17
-0.16
-0.135
-0.105
-0.07
-0.03
0.04
0.105
0.18
0.265
0.37
0.51
0.665
0.82
0.95
1.065
1.155
1.31
1.485
1.69
1.83
1.82
1.61
1.215
0.71
0.31
0.1
0.0
-0.075
-0.15
-0.19
-0.2
-0.18
-0.175
-0.175
-0.215
-0.25
-0.265
-0.275
-0.265
-0.27
-0.27
-0.29
-0.285
-0.28
-0.28
-0.28
-0.29
-0.29
-0.285
-0.27
-0.255
-0.27
-0.275
-0.295
-0.295
-0.305
-0.29
-0.3
-0.335
-0.34
-0.34
-0.325
-0.305
-0.305
-0.33
-0.33
-0.335
-0.32
-0.295
-0.305
-0.32
-0.335
-0.32
-0.31
-0.305
-0.31
-0.305
-0.33
-0.32
-0.315
-0.295
-0.29
-0.3
-0.325
-0.325
-0.3
-0.285
-0.265
-0.27
-0.3
-0.3
-0.3
-0.285
-0.28
-0.29
-0.3
-0.305
-0.31
-0.295
-0.295
-0.275
-0.27
-0.28
-0.25
-0.25
-0.26
-0.265
-0.275
-0.26
-0.23
-0.21
-0.205
-0.195
-0.195
-0.175
-0.16
-0.125
-0.12
-0.115
-0.105
-0.085
-0.065
-0.045
-0.045
-0.05
-0.065
-0.045
-0.005
0.0
-0.02
-0.03
-0.075
-0.09
-0.055
-0.05
-0.05
-0.075
-0.095
-0.095
-0.075
-0.06
-0.06
-0.08
-0.095
-0.09
-0.09
-0.09
-0.105
-0.115
-0.135
-0.11
-0.09
-0.095
-0.105
-0.135
-0.135
-0.13
-0.13
-0.12
-0.11
-0.125
-0.13
-0.13
-0.115
-0.095
-0.12
-0.13
-0.125
-0.13
-0.105
-0.09
-0.09
-0.11
-0.11
-0.105
-0.095
-0.105
-0.12
-0.12
-0.125
-0.115
-0.1
-0.095
-0.1
-0.125
-0.115
-0.105
-0.095
-0.09
-0.1
-0.12
-0.135
-0.105
-0.08
-0.085
-0.09
-0.085
-0.095
-0.09
-0.105
-0.1
-0.11
-0.11
-0.115
-0.125
-0.105
-0.095
-0.095
-0.11
-0.115
-0.125
-0.135
-0.125
-0.11
-0.1
-0.115
-0.12
-0.105
-0.08
-0.1
-0.12
-0.125
-0.13
-0.11
-0.095
-0.11
-0.1
-0.125
-0.115
-0.11
-0.11
-0.085
-0.09
-0.1
-0.115
-0.115
-0.125
-0.12
-0.115
-0.11
-0.11
-0.09
-0.075
-0.09
-0.11
-0.125
-0.14
-0.115
-0.095
-0.075
-0.075
-0.075
-0.075
-0.075
-0.065
-0.065
-0.065
-0.08
-0.06
-0.04
-0.035
-0.05
-0.065
-0.07
-0.055
-0.03
-0.04
-0.05
-0.075
-0.09
-0.095
-0.07
-0.04
-0.035
-0.02
-0.035
-0.02
-0.015
-0.035
-0.05
-0.09
-0.105
-0.11
-0.095
-0.095
-0.1
-0.11
-0.1
-0.095
-0.075
-0.075
-0.07
-0.08
-0.095
-0.1
-0.09
-0.105
-0.13
-0.13
-0.11
-0.105
-0.095
-0.095
-0.095
-0.115
-0.14
-0.135
-0.105
-0.085
-0.065
-0.06
-0.075
-0.085
-0.08
-0.07
-0.03
-0.005
0.035
0.085
0.17
0.255
0.355
0.475
0.665
0.88
1.055
1.2
1.335
1.515
1.75
2.015
2.125
1.935
1.37
0.73
0.24
0.075
0.02
-0.01
-0.065
-0.1
-0.14
-0.115
-0.13
-0.15
-0.175
-0.195
-0.21
-0.21
-0.2
-0.19
-0.19
-0.19
-0.225
-0.22
-0.23
-0.23
-0.225
-0.22
-0.225
-0.21
-0.215
-0.22
-0.245
-0.26
-0.26
-0.245
-0.255
-0.25
-0.26
-0.265
-0.275
-0.275
-0.25
-0.245
-0.25
-0.26
-0.285
-0.265
-0.245
-0.255
-0.27
-0.285
-0.295
-0.3
-0.28
-0.245
-0.245
-0.245
-0.26
-0.265
-0.255
-0.26
-0.275
-0.285
-0.295
-0.275
-0.255
-0.255
-0.285
-0.29
-0.285
-0.265
-0.25
-0.23
-0.245
-0.27
-0.275
-0.265
-0.225
-0.19
-0.17
-0.16
-0.17
-0.18
-0.155
-0.145
-0.135
-0.125
-0.115
-0.105
-0.09
-0.075
-0.06
-0.035
-0.025
0.005
0.025
0.035
0.035
0.01
-0.01
0.0
0.02
0.045
0.02
-0.005
-0.035
-0.07
-0.065
-0.03
-0.015
-0.015
-0.03
-0.025
-0.03
-0.025
-0.055
-0.08
-0.095
-0.09
-0.07
-0.055
-0.07
-0.065
-0.07
-0.065
-0.04
-0.025
-0.045
-0.07
-0.1
-0.13
-0.105
-0.1
-0.09
-0.11
-0.085
-0.105
-0.1
-0.09
-0.095
-0.09
-0.125
-0.145
-0.125
-0.11
-0.085
-0.075
-0.095
-0.115
-0.13
-0.14
-0.14
-0.12
-0.125
-0.12
-0.12
-0.085
-0.075
-0.085
-0.09
-0.085
-0.105
-0.125
-0.14
-0.145
-0.115
-0.095
-0.09
-0.105
-0.11
-0.125
-0.12
-0.105
-0.115
-0.08
-0.08
-0.07
-0.1
-0.105
-0.11
-0.115
-0.095
-0.09
-0.095
-0.1
-0.095
-0.1
-0.1
-0.125
-0.125
-0.135
-0.13
-0.125
-0.11
-0.08
-0.08
-0.08
-0.11
-0.135
-0.165
-0.155
-0.13
-0.1
-0.105
-0.11
-0.135
-0.15
-0.155
-0.145
-0.115
-0.08
-0.075
-0.085
-0.11
-0.095
-0.085
-0.06
-0.06
-0.1
-0.155
-0.19
-0.155
-0.09
-0.08
-0.095
-0.11
-0.125
-0.1
-0.09
-0.11
-0.105
-0.105
-0.085
-0.065
-0.05
-0.05
-0.045
-0.05
-0.025
-0.015
0.005
-0.02
-0.06
-0.09
-0.095
-0.045
-0.02
-0.03
-0.045
-0.055
-0.065
-0.075
-0.06
-0.04
-0.01
0.0
-0.01
-0.03
-0.05
-0.06
-0.05
-0.06
-0.065
-0.09
-0.08
-0.085
-0.08
-0.07
-0.075
-0.085
-0.08
-0.09
-0.095
-0.11
-0.115
-0.11
-0.095
-0.08
-0.085
-0.085
-0.09
-0.08
-0.075
-0.1
-0.1
-0.125
-0.11
-0.09
-0.06
-0.05
-0.06
-0.055
-0.035
-0.025
-0.01
-0.035
-0.06
-0.055
0.015
0.11
0.205
0.29
0.355
0.445
0.565
0.72
0.885
1.035
1.155
1.255
1.37
1.495
1.665
1.845
2.03
2.165
2.26
2.235
2.075
1.7
1.19
0.715
0.4
0.23
0.1
0.05
0.025
-0.005
-0.02
-0.045
-0.055
-0.07
-0.085
-0.1
-0.115
-0.15
-0.2
-0.24
-0.245
-0.23
-0.2
-0.18
-0.17
-0.18
-0.2
-0.215
-0.21
-0.205
-0.2
-0.21
-0.225
-0.25
-0.225
-0.2
-0.185
-0.205
-0.225
-0.27
-0.275
-0.26
-0.235
-0.24
-0.26
-0.28
-0.265
-0.25
-0.23
-0.24
-0.26
-0.275
-0.295
-0.285
-0.27
-0.285
-0.27
-0.29
-0.31
-0.315
-0.31
-0.295
-0.295
-0.285
-0.285
-0.295
-0.29
-0.3
-0.295
-0.3
-0.295
-0.29
-0.27
-0.28
-0.295
-0.31
-0.315
-0.285
-0.26
-0.245
-0.275
-0.305
-0.305
-0.285
-0.265
-0.255
-0.245
-0.25
-0.25
-0.24
-0.21
-0.2
-0.185
-0.165
-0.14
-0.105
-0.08
-0.075
-0.075
-0.055
-0.025
0.015
0.04
0.04
0.04
0.045
0.025
0.03
0.07
0.055
0.06
0.05
0.04
0.05
0.05
0.04
0.03
0.015
0.035
0.04
0.06
0.05
0.0
-0.04
-0.03
-0.005
0.02
0.02
0.0
-0.035
-0.025
-0.025
0.0
-0.005
-0.015
-0.005
-0.03
-0.02
-0.005
-0.005
-0.02
-0.015
-0.02
-0.02
-0.015
-0.03
-0.04
-0.05
-0.055
-0.02
-0.005
-0.005
-0.015
-0.025
-0.045
-0.035
-0.025
-0.02
-0.005
-0.015
-0.035
-0.07
-0.095
-0.095
-0.075
-0.065
-0.045
-0.045
-0.025
-0.04
-0.02
-0.025
-0.045
-0.04
-0.05
-0.05
-0.07
-0.075
-0.045
-0.005
0.01
0.01
-0.015
-0.03
-0.035
-0.02
-0.025
-0.035
-0.025
-0.015
-0.005
-0.005
-0.01
-0.035
-0.03
-0.03
-0.01
0.01
0.01
0.005
-0.005
-0.03
-0.01
-0.01
0.0
-0.01
-0.015
0.0
-0.01
-0.01
-0.005
0.005
-0.01
-0.025
-0.015
0.0
0.02
0.005
-0.03
-0.05
-0.045
-0.01
-0.005
-0.015
-0.01
-0.025
-0.005
0.01
0.02
0.015
-0.005
-0.025
-0.015
0.005
0.02
0.01
0.005
-0.01
0.0
0.01
0.035
0.04
0.035
0.03
0.035
0.04
0.055
0.045
0.06
0.075
0.085
0.095
0.07
0.05
0.035
0.045
0.075
0.075
0.09
0.075
0.05
0.055
0.05
0.06
0.075
0.075
0.065
0.06
0.04
0.04
0.03
0.035
0.035
0.045
0.045
0.04
0.03
0.005
0.0
-0.015
-0.005
0.035
0.055
0.05
0.03
0.0
0.005
0.01
0.04
0.045
0.03
0.025
0.01
0.04
0.055
0.05
0.04
0.035
0.02
0.025
0.07
0.09
0.11
0.115
0.135
0.18
0.29
0.395
0.495
0.585
0.735
0.91
1.11
1.26
1.395
1.51
1.605
1.76
1.94
2.1
2.23
2.335
2.37
2.33
2.13
1.74
1.265
0.855
0.585
0.39
0.27
0.16
0.09
0.03
0.035
0.035
0.055
0.03
-0.005
-0.04
-0.03
-0.03
-0.03
-0.065
-0.1
-0.13
-0.12
-0.08
-0.07
-0.095
-0.11
-0.15
-0.14
-0.11
-0.095
-0.11
-0.145
-0.165
-0.185
-0.19
-0.17
-0.165
-0.16
-0.17
-0.15
-0.135
-0.135
-0.15
-0.175
-0.185
-0.165
-0.18
-0.175
-0.19
-0.2
-0.215
-0.2
-0.18
-0.175
-0.19
-0.2
-0.235
-0.23
-0.22
-0.21
-0.195
-0.195
-0.21
-0.2
-0.205
-0.2
-0.185
-0.195
-0.205
-0.205
-0.2
-0.195
-0.205
-0.215
-0.24
-0.21
-0.19
-0.17
-0.165
-0.175
-0.185
-0.175
-0.165
-0.14
-0.15
-0.16
-0.155
-0.12
-0.09
-0.065
-0.075
-0.08
-0.095
-0.065
-0.01
0.02
0.03
0.04
0.025
0.045
0.08
0.1
0.115
0.1
0.125
0.125
0.145
0.155
0.14
0.135
0.14
0.155
0.16
0.165
0.15
0.15
0.14
0.145
0.14
0.155
0.135
0.115
0.095
0.09
0.085
0.095
0.065
0.075
0.075
0.065
0.065
0.075
0.075
0.07
0.065
0.06
0.065
0.07
0.065
0.045
0.045
0.045
0.065
0.075
0.08
0.07
0.06
0.06
0.075
0.085
0.07
0.06
0.045
0.07
0.085
0.095
0.075
0.06
0.035
0.025
0.03
0.035
0.02
0.01
0.025
0.05
0.07
0.09
0.055
0.025
0.005
0.015
0.04
0.04
0.04
0.02
0.02
0.045
0.065
0.085
0.08
0.065
0.055
0.06
0.075
0.095
0.11
0.1
0.11
0.1
0.095
0.075
0.075
0.055
0.055
0.065
0.095
0.105
0.105
0.1
0.095
0.09
0.125
0.115
0.115
0.075
0.06
0.09
0.115
0.135
0.13
0.095
0.075
0.065
0.09
0.11
0.105
0.1
0.095
0.105
0.12
0.125
0.135
0.13
0.115
0.105
0.105
0.125
0.12
0.115
0.115
0.12
0.155
0.165
0.165
0.13
0.1
0.08
0.095
0.11
0.09
0.095
0.075
0.11
0.12
0.13
0.13
0.125
0.11
0.12
0.155
0.17
0.16
0.13
0.12
0.14
0.16
0.175
0.165
0.135
0.14
0.17
0.195
0.22
0.215
0.195
0.19
0.195
0.19
0.165
0.16
0.145
0.145
0.16
0.155
0.17
0.14
0.145
0.14
0.155
0.175
0.2
0.19
0.17
0.14
0.14
0.13
0.15
0.155
0.135
0.135
0.13
0.125
0.12
0.115
0.11
0.1
0.11
0.105
0.105
0.1
0.1
0.095
0.11
0.135
0.15
0.12
0.085
0.06
0.065
0.1
0.125
0.11
0.09
0.085
0.075
0.08
0.115
0.135
0.145
0.15
0.155
0.165
0.185
0.195
0.22
0.28
0.36
0.45
0.54
0.62
0.735
0.875
1.06
1.24
1.375
1.465
1.555
1.675
1.86
2.075
2.285
2.405
2.42
2.32
2.06
1.605
1.105
0.7
0.46
0.31
0.225
0.195
0.175
0.15
0.13
0.1
0.095
0.085
0.07
0.02
-0.01
-0.035
-0.04
-0.04
-0.02
-0.025
-0.03
-0.04
-0.045
-0.025
-0.015
-0.02
-0.05
-0.07
-0.08
-0.07
-0.055
-0.06
-0.1
-0.115
-0.11
-0.085
-0.065
-0.06
-0.095
-0.12
-0.125
-0.12
-0.12
-0.14
-0.135
-0.145
-0.115
-0.105
-0.1
-0.11
-0.115
-0.135
-0.135
-0.145
-0.16
-0.17
-0.17
-0.18
-0.18
-0.17
-0.135
-0.135
-0.145
-0.15
-0.145
-0.15
-0.155
-0.18
-0.185
-0.185
-0.17
-0.155
-0.11
-0.115
-0.125
-0.145
-0.14
-0.14
-0.12
-0.11
-0.11
-0.105
-0.1
-0.065
-0.045
-0.045
-0.055
-0.045
-0.025
0.015
0.035
0.06
0.08
0.085
0.125
0.135
0.145
0.15
0.135
0.16
0.195
0.22
0.24
0.225
0.19
0.16
0.15
0.145
0.16
0.17
0.14
0.125
0.11
0.13
0.145
0.145
0.13
0.12
0.1
0.095
0.1
0.095
0.105
0.095
0.1
0.095
0.085
0.085
0.08
0.08
0.07
0.095
0.095
0.09
0.065
0.06
0.075
0.085
0.065
0.035
0.03
0.035
0.055
0.045
0.055
0.05
0.04
0.035
0.025
0.03
0.065
0.075
0.055
0.035
0.035
0.05
0.075
0.07
0.06
0.06
0.06
0.075
0.1
0.11
0.1
0.06
0.025
0.04
0.08
0.085
0.08
0.075
0.075
0.065
0.025
0.02
0.04
0.065
0.065
0.06
0.08
0.08
0.09
0.065
0.05
0.03
0.06
0.06
0.055
0.06
0.085
0.11
0.11
0.08
0.03
0.02
0.025
0.055
0.08
0.075
0.075
0.065
0.07
0.06
0.045
0.035
0.045
0.055
0.07
0.095
0.105
0.1
0.09
0.085
0.07
0.06
0.05
0.03
0.02
0.02
0.065
0.075
0.09
0.085
0.08
0.08
0.07
0.085
0.085
0.095
0.1
0.09
0.12
0.135
0.145
0.115
0.1
0.095
0.105
0.15
0.15
0.13
0.095
0.06
0.07
0.09
0.125
0.13
0.105
0.085
0.1
0.135
0.175
0.18
0.155
0.1
0.09
0.09
0.105
0.08
0.055
0.035
0.035
0.045
0.08
0.075
0.075
0.06
0.07
0.075
0.085
0.1
0.095
0.07
0.045
0.05
0.07
0.075
0.06
0.04
0.035
0.075
0.11
0.13
0.105
0.095
0.08
0.065
0.065
0.05
0.055
0.085
0.14
0.19
0.225
0.27
0.32
0.415
0.51
0.63
0.75
0.915
1.11
1.245
1.355
1.47
1.605
1.775
1.98
2.17
2.27
2.245
2.035
1.595
1.04
0.62
0.4
0.3
0.225
0.155
0.105
0.095
0.095
0.08
0.065
0.04
0.02
0.015
-0.005
0.0
0.0
0.005
-0.005
-0.03
-0.045
-0.025
0.015
0.045
0.01
-0.045
-0.085
-0.08
-0.055
-0.05
-0.08
-0.09
-0.065
-0.025
0.02
-0.02
-0.06
-0.09
-0.11
-0.125
-0.115
-0.095
-0.065
-0.055
-0.08
-0.09
-0.1
-0.085
-0.1
-0.12
-0.135
-0.1
-0.07
-0.06
-0.08
-0.125
-0.15
-0.15
-0.13
-0.105
-0.085
-0.1
-0.105
-0.13
-0.13
-0.13
-0.125
-0.125
-0.115
-0.11
-0.13
-0.15
-0.15
-0.13
-0.105
-0.075
-0.07
-0.09
-0.095
-0.105
-0.09
-0.06
-0.025
-0.01
0.01
0.01
0.03
0.06
0.095
0.115
0.12
0.13
0.145
0.165
0.165
0.165
0.175
0.18
0.185
0.2
0.2
0.21
0.205
0.17
0.16
0.175
0.2
0.18
0.13
0.115
0.105
0.11
0.12
0.14
0.14
0.135
0.145
0.15
0.105
0.075
0.075
0.07
0.07
0.09
0.095
0.095
0.095
0.085
0.1
0.095
0.08
0.07
0.055
0.07
0.085
0.09
0.095
0.06
0.015
-0.01
0.01
0.03
0.07
0.065
0.075
0.07
0.075
0.07
0.06
0.055
0.05
0.06
0.06
0.075
0.07
0.065
0.04
0.04
0.055
0.07
0.08
0.08
0.07
0.08
0.08
0.07
0.08
0.055
0.06
0.07
0.08
0.09
0.09
0.055
0.04
0.05
0.055
0.09
0.09
0.08
0.095
0.12
0.155
0.135
0.08
0.035
0.04
0.075
0.095
0.1
0.11
0.095
0.09
0.105
0.105
0.08
0.055
0.025
0.04
0.065
0.07
0.07
0.07
0.06
0.03
0.02
0.04
0.07
0.09
0.08
0.05
0.03
0.02
0.035
0.055
0.035
0.04
0.05
0.075
0.09
0.08
0.085
0.075
0.07
0.04
0.045
0.055
0.065
0.05
0.035
0.07
0.12
0.125
0.1
0.05
0.045
0.08
0.125
0.115
0.105
0.125
0.12
0.135
0.14
0.145
0.14
0.12
0.11
0.105
0.11
0.11
0.1
0.095
0.075
0.095
0.115
0.14
0.15
0.145
0.125
0.12
0.11
0.09
0.055
0.04
0.03
0.075
0.095
0.07
0.025
0.02
0.06
0.095
0.1
0.085
0.055
0.05
0.05
0.07
0.085
0.07
0.055
0.055
0.085
0.105
0.105
0.08
0.04
0.03
0.075
0.11
0.14
0.14
0.145
0.17
0.22
0.31
0.385
0.455
0.53
0.63
0.77
0.98
1.16
1.32
1.42
1.52
1.645
1.85
2.07
2.225
2.245
2.08
1.735
1.24
0.785
0.51
0.32
0.2
0.135
0.1
0.105
0.075
0.06
0.04
0.05
0.035
0.03
0.01
0.0
-0.02
-0.04
-0.04
-0.045
-0.025
-0.04
-0.05
-0.05
-0.055
-0.045
-0.01
0.0
-0.025
-0.07
-0.065
-0.07
-0.07
-0.08
-0.085
-0.075
-0.065
-0.06
-0.065
-0.07
-0.07
-0.065
-0.05
-0.045
-0.07
-0.095
-0.1
-0.095
-0.07
-0.08
-0.1
-0.115
-0.115
-0.1
-0.115
-0.14
-0.13
-0.115
-0.1
-0.085
-0.095
-0.1
-0.13
-0.155
-0.155
-0.135
-0.105
-0.1
-0.105
-0.135
-0.155
-0.14
-0.11
-0.08
-0.065
-0.095
-0.115
-0.145
-0.13
-0.13
-0.11
-0.09
-0.095
-0.105
-0.09
-0.075
-0.075
-0.07
-0.05
-0.01
0.015
0.055
0.06
0.035
0.015
0.005
0.025
0.095
0.12
0.15
0.13
0.13
0.14
0.155
0.19
0.205
0.195
0.185
0.17
0.145
0.125
0.115
0.125
0.135
0.155
0.145
0.135
0.11
0.085
0.09
0.1
0.11
0.105
0.09
0.085
0.095
0.12
0.12
0.085
0.04
0.045
0.05
0.07
0.095
0.1
0.095
0.065
0.04
0.035
0.065
0.075
0.08
0.065
0.07
0.07
0.045
0.055
0.055
0.03
0.035
0.055
0.08
0.09
0.04
0.025
0.045
0.09
0.075
0.05
0.02
0.015
0.04
0.09
0.11
0.125
0.115
0.1
0.075
0.045
0.02
0.025
0.06
0.065
0.08
0.095
0.105
0.07
0.065
0.07
0.1
0.1
0.065
0.04
0.04
0.045
0.04
0.04
0.06
0.1
0.105
0.085
0.06
0.065
0.06
0.075
0.06
0.045
0.025
0.05
0.075
0.095
0.07
0.065
0.055
0.04
0.02
0.04
0.09
0.085
0.05
0.04
0.065
0.075
0.06
0.035
0.025
0.03
0.04
0.055
0.045
0.015
0.025
0.035
0.07
0.08
0.07
0.045
0.015
0.035
0.04
0.065
0.1
0.095
0.075
0.055
0.08
0.105
0.1
0.12
0.14
0.14
0.13
0.1
0.075
0.085
0.12
0.145
0.13
0.11
0.07
0.05
0.075
0.125
0.145
0.145
0.125
0.12
0.105
0.07
0.04
0.035
0.055
0.085
0.105
0.11
0.09
0.05
0.04
0.01
0.02
0.05
0.095
0.11
0.12
0.105
0.055
0.025
0.05
0.055
0.065
0.055
0.07
0.11
0.135
0.095
0.045
0.02
0.05
0.085
0.11
0.125
0.145
0.15
0.14
0.155
0.235
0.31
0.395
0.465
0.55
0.665
0.8
0.91
1.01
1.145
1.3
1.455
1.615
1.775
1.95
2.075
2.13
2.06
1.84
1.445
0.955
0.575
0.36
0.245
0.14
0.06
0.06
0.085
0.1
0.075
0.055
0.035
0.035
0.015
0.0
-0.005
-0.01
-0.035
-0.06
-0.065
-0.055
-0.045
-0.05
-0.045
-0.05
-0.055
-0.05
-0.03
-0.04
-0.03
-0.05
-0.055
-0.045
-0.02
-0.025
-0.07
-0.1
-0.125
-0.11
-0.095
-0.055
-0.045
-0.08
-0.11
-0.1
-0.08
-0.05
-0.075
-0.09
-0.125
-0.12
