Lead II
-0.485
-0.48
-0.475
-0.465
-0.465
-0.495
-0.48
-0.475
-0.485
-0.475
-0.475
-0.49
-0.485
-0.495
-0.5
-0.5
-0.505
-0.51
-0.5
-0.48
-0.49
-0.495
-0.5
-0.505
-0.5
-0.495
-0.485
-0.49
-0.505
-0.51
-0.505
-0.48
-0.47
-0.475
-0.49
-0.475
-0.45
-0.44
-0.43
-0.43
-0.43
-0.41
-0.39
-0.385
-0.37
-0.36
-0.35
-0.345
-0.33
-0.315
-0.305
-0.285
-0.27
-0.28
-0.25
-0.23
-0.21
-0.205
-0.2
-0.19
-0.17
-0.17
-0.15
-0.145
-0.15
-0.165
-0.17
-0.175
-0.18
-0.185
-0.185
-0.2
-0.2
-0.205
-0.2
-0.195
-0.19
-0.22
-0.225
-0.23
-0.25
-0.24
-0.255
-0.26
-0.26
-0.245
-0.245
-0.245
-0.27
-0.275
-0.265
-0.25
-0.25
-0.245
-0.27
-0.285
-0.295
-0.27
-0.275
-0.27
-0.29
-0.285
-0.275
-0.28
-0.275
-0.285
-0.29
-0.29
-0.28
-0.275
-0.28
-0.305
-0.325
-0.325
-0.31
-0.285
-0.275
-0.305
-0.31
-0.31
-0.3
-0.285
-0.28
-0.3
-0.31
-0.31
-0.305
-0.31
-0.3
-0.295
-0.305
-0.305
-0.32
-0.31
-0.3
-0.29
-0.3
-0.3
-0.29
-0.295
-0.295
-0.285
-0.285
-0.31
-0.3
-0.305
-0.295
-0.31
-0.31
-0.32
-0.315
-0.305
-0.29
-0.285
-0.3
-0.31
-0.305
-0.285
-0.27
-0.27
-0.245
-0.235
-0.225
-0.22
-0.22
-0.205
-0.205
-0.185
-0.15
-0.125
-0.115
-0.11
-0.105
-0.11
-0.105
-0.09
-0.095
-0.095
-0.095
-0.125
-0.125
-0.11
-0.11
-0.115
-0.155
-0.22
-0.26
-0.29
-0.335
-0.34
-0.345
-0.365
-0.37
-0.365
-0.35
-0.345
-0.35
-0.35
-0.35
-0.345
-0.335
-0.325
-0.34
-0.345
-0.34
-0.325
-0.32
-0.32
-0.32
-0.335
-0.32
-0.3
-0.29
-0.305
-0.31
-0.34
-0.33
-0.325
-0.31
-0.295
-0.245
-0.14
-0.005
0.145
0.32
0.49
0.65
0.815
0.97
1.1
1.195
1.215
1.165
1.03
0.89
0.78
0.655
0.49
0.305
0.165
0.095
0.04
-0.025
-0.105
-0.185
-0.25
-0.315
-0.35
-0.385
-0.41
-0.445
-0.47
-0.475
-0.5
-0.485
-0.485
-0.5
-0.515
-0.52
-0.51
-0.505
-0.505
-0.515
-0.5
-0.485
-0.475
-0.47
-0.49
-0.5
-0.51
-0.5
-0.485
-0.465
-0.475
-0.49
-0.495
-0.475
-0.47
-0.46
-0.465
-0.475
-0.495
-0.495
-0.475
-0.455
-0.45
-0.46
-0.465
-0.455
-0.46
-0.465
-0.47
-0.47
-0.46
-0.46
-0.435
-0.435
-0.445
-0.44
-0.445
-0.425
-0.41
-0.395
-0.39
-0.39
-0.4
-0.39
-0.375
-0.365
-0.355
-0.355
-0.36
-0.335
-0.325
-0.29
-0.295
-0.295
-0.3
-0.295
-0.28
-0.26
-0.25
-0.225
-0.225
-0.2
-0.195
-0.195
-0.195
-0.21
-0.215
-0.215
-0.2
-0.195
-0.215
-0.225
-0.255
-0.26
-0.27
-0.285
-0.29
-0.3
-0.325
-0.33
-0.335
-0.35
-0.36
-0.385
-0.42
-0.435
-0.435
-0.42
-0.415
-0.42
-0.435
-0.43
-0.42
-0.425
-0.445
-0.455
-0.46
-0.455
-0.45
-0.445
-0.44
-0.44
-0.435
-0.425
-0.425
-0.435
-0.435
-0.45
-0.485
-0.5
-0.54
-0.575
-0.59
-0.62
-0.63
-0.625
-0.605
-0.55
-0.515
-0.49
-0.46
-0.44
-0.41
-0.395
-0.365
-0.375
-0.355
-0.34
-0.33
-0.305
-0.295
-0.29
-0.29
-0.275
-0.25
-0.285
-0.305
-0.315
-0.33
-0.31
-0.29
-0.28
-0.28
-0.29
-0.295
-0.285
-0.26
-0.25
-0.25
-0.27
-0.27
-0.265
-0.25
-0.25
-0.23
-0.235
-0.24
-0.215
-0.195
-0.165
-0.155
-0.14
-0.13
-0.125
-0.125
-0.11
-0.075
-0.04
-0.015
0.015
0.04
0.065
0.075
0.095
0.105
0.13
0.13
0.135
0.12
0.115
0.13
0.15
0.145
0.135
0.09
0.03
-0.04
-0.08
-0.095
-0.11
-0.115
-0.135
-0.145
-0.16
-0.145
-0.155
-0.165
-0.165
-0.18
-0.165
-0.16
-0.155
-0.18
-0.17
-0.175
-0.155
-0.15
-0.145
-0.135
-0.14
-0.15
-0.14
-0.15
-0.15
-0.18
-0.185
-0.19
-0.15
-0.03
0.11
0.29
0.455
0.645
0.835
1.02
1.15
1.245
1.32
1.305
1.245
1.13
1.015
0.885
0.75
0.575
0.42
0.33
0.29
0.205
0.105
0.005
-0.065
-0.12
-0.175
-0.215
-0.28
-0.325
-0.355
-0.38
-0.39
-0.415
-0.42
-0.43
-0.44
-0.425
-0.42
-0.405
-0.415
-0.415
-0.41
-0.395
-0.38
-0.395
-0.405
-0.41
-0.4
-0.39
-0.38
-0.39
-0.4
-0.405
-0.38
-0.385
-0.375
-0.4
-0.4
-0.405
-0.4
-0.385
-0.385
-0.38
-0.39
-0.395
-0.405
-0.405
-0.41
-0.4
-0.405
-0.415
-0.4
-0.4
-0.405
-0.41
-0.395
-0.405
-0.395
-0.375
-0.37
-0.365
-0.355
-0.365
-0.35
-0.33
-0.31
-0.32
-0.295
-0.285
-0.26
-0.23
-0.21
-0.195
-0.205
-0.185
-0.16
-0.13
-0.105
-0.1
-0.105
-0.105
-0.095
-0.065
-0.05
-0.055
-0.07
-0.09
-0.075
-0.07
-0.075
-0.07
-0.1
-0.12
-0.13
-0.135
-0.13
-0.125
-0.135
-0.15
-0.16
-0.155
-0.155
-0.17
-0.17
-0.185
-0.19
-0.175
-0.17
-0.18
-0.19
-0.205
-0.195
-0.195
-0.18
-0.18
-0.19
-0.195
-0.2
-0.195
-0.2
-0.22
-0.22
-0.23
-0.205
-0.22
-0.225
-0.225
-0.215
-0.23
-0.23
-0.22
-0.21
-0.22
-0.23
-0.255
-0.245
-0.235
-0.215
-0.22
-0.235
-0.245
-0.215
-0.23
-0.225
-0.23
-0.235
-0.235
-0.225
-0.215
-0.205
-0.225
-0.22
-0.235
-0.235
-0.205
-0.195
-0.195
-0.205
-0.22
-0.21
-0.2
-0.185
-0.18
-0.195
-0.205
-0.21
-0.2
-0.165
-0.13
-0.1
-0.105
-0.105
-0.11
-0.115
-0.095
-0.09
-0.075
-0.055
-0.04
-0.02
-0.025
-0.02
-0.01
-0.01
-0.01
-0.02
-0.03
-0.03
-0.045
-0.075
-0.095
-0.145
-0.195
-0.235
-0.27
-0.27
-0.265
-0.275
-0.265
-0.26
-0.27
-0.255
-0.25
-0.255
-0.26
-0.26
-0.255
-0.27
-0.255
-0.245
-0.245
-0.25
-0.265
-0.25
-0.225
-0.22
-0.23
-0.24
-0.26
-0.25
-0.235
-0.235
-0.23
-0.185
-0.11
0.02
0.16
0.34
0.525
0.725
0.9
1.07
1.19
1.285
1.32
1.255
1.13
0.995
0.885
0.76
0.6
0.44
0.355
0.305
0.24
0.145
0.035
-0.055
-0.135
-0.19
-0.245
-0.295
-0.345
-0.38
-0.42
-0.425
-0.44
-0.425
-0.435
-0.45
-0.455
-0.45
-0.43
-0.42
-0.42
-0.435
-0.45
-0.435
-0.43
-0.425
-0.42
-0.42
-0.41
-0.41
-0.415
-0.4
-0.42
-0.435
-0.435
-0.425
-0.415
-0.395
-0.395
-0.41
-0.435
-0.435
-0.435
-0.43
-0.43
-0.41
-0.425
-0.43
-0.445
-0.45
-0.44
-0.445
-0.445
-0.41
-0.42
-0.405
-0.415
-0.425
-0.425
-0.42
-0.395
-0.39
-0.395
-0.39
-0.37
-0.345
-0.325
-0.31
-0.325
-0.32
-0.315
-0.295
-0.26
-0.25
-0.225
-0.215
-0.21
-0.2
-0.185
-0.165
-0.145
-0.145
-0.16
-0.145
-0.135
-0.13
-0.13
-0.135
-0.135
-0.14
-0.16
-0.17
-0.17
-0.185
-0.195
-0.215
-0.21
-0.22
-0.235
-0.235
-0.255
-0.25
-0.25
-0.265
-0.275
-0.28
-0.285
-0.275
-0.265
-0.26
-0.275
-0.29
-0.3
-0.295
-0.3
-0.285
-0.29
-0.29
-0.305
-0.31
-0.3
-0.295
-0.305
-0.325
-0.33
-0.32
-0.32
-0.32
-0.31
-0.32
-0.335
-0.33
-0.33
-0.325
-0.315
-0.32
-0.33
-0.325
-0.31
-0.305
-0.315
-0.335
-0.34
-0.335
-0.315
-0.315
-0.31
-0.32
-0.325
-0.32
-0.32
-0.315
-0.305
-0.31
-0.305
-0.315
-0.315
-0.305
-0.305
-0.305
-0.305
-0.3
-0.315
-0.3
-0.285
-0.28
-0.295
-0.29
-0.295
-0.29
-0.275
-0.25
-0.25
-0.235
-0.225
-0.21
-0.22
-0.22
-0.21
-0.18
-0.14
-0.115
-0.125
-0.125
-0.125
-0.11
-0.095
-0.09
-0.115
-0.15
-0.15
-0.14
-0.14
-0.165
-0.23
-0.29
-0.34
-0.355
-0.355
-0.345
-0.345
-0.36
-0.385
-0.375
-0.365
-0.345
-0.335
-0.335
-0.355
-0.355
-0.36
-0.35
-0.33
-0.325
-0.32
-0.335
-0.33
-0.315
-0.31
-0.33
-0.32
-0.31
-0.325
-0.335
-0.345
-0.36
-0.35
-0.31
-0.235
-0.09
0.07
0.25
0.435
0.64
0.85
1.04
1.16
1.225
1.2
1.14
1.04
0.94
0.84
0.73
0.575
0.385
0.24
0.16
0.12
0.04
-0.075
-0.175
-0.24
-0.285
-0.33
-0.41
-0.46
-0.465
-0.48
-0.495
-0.52
-0.535
-0.555
-0.54
-0.52
-0.52
-0.535
-0.54
-0.555
-0.545
-0.525
-0.515
-0.52
-0.53
-0.545
-0.53
-0.52
-0.525
-0.54
-0.54
-0.55
-0.54
-0.53
-0.515
-0.505
-0.505
-0.52
-0.53
-0.525
-0.52
-0.51
-0.52
-0.535
-0.535
-0.53
-0.5
-0.495
-0.495
-0.53
-0.53
-0.525
-0.52
-0.52
-0.51
-0.515
-0.495
-0.495
-0.495
-0.5
-0.515
-0.51
-0.48
-0.45
-0.44
-0.45
-0.455
-0.445
-0.415
-0.385
-0.37
-0.38
-0.37
-0.365
-0.34
-0.32
-0.31
-0.29
-0.285
-0.28
-0.255
-0.24
-0.215
-0.215
-0.205
-0.21
-0.195
-0.18
-0.185
-0.19
-0.205
-0.215
-0.22
-0.225
-0.225
-0.235
-0.245
-0.255
-0.24
-0.24
-0.235
-0.255
-0.285
-0.295
-0.28
-0.27
-0.275
-0.285
-0.31
-0.315
-0.305
-0.3
-0.295
-0.31
-0.31
-0.32
-0.315
-0.32
-0.32
-0.31
-0.32
-0.345
-0.335
-0.325
-0.33
-0.325
-0.34
-0.355
-0.345
-0.325
-0.325
-0.325
-0.335
-0.35
-0.345
-0.33
-0.32
-0.32
-0.335
-0.345
-0.335
-0.33
-0.325
-0.335
-0.325
-0.325
-0.33
-0.315
-0.31
-0.315
-0.315
-0.325
-0.335
-0.32
-0.325
-0.33
-0.33
-0.325
-0.32
-0.305
-0.305
-0.31
-0.33
-0.34
-0.335
-0.325
-0.3
-0.305
-0.305
-0.315
-0.31
-0.305
-0.285
-0.29
-0.275
-0.275
-0.245
-0.215
-0.195
-0.205
-0.215
-0.215
-0.19
-0.165
-0.14
-0.115
-0.105
-0.105
-0.08
-0.055
-0.045
-0.05
-0.07
-0.085
-0.095
-0.09
-0.095
-0.1
-0.125
-0.17
-0.22
-0.255
-0.275
-0.29
-0.295
-0.31
-0.295
-0.29
-0.27
-0.27
-0.28
-0.285
-0.27
-0.27
-0.26
-0.26
-0.26
-0.27
-0.28
-0.255
-0.235
-0.225
-0.23
-0.25
-0.24
-0.23
-0.225
-0.235
-0.24
-0.25
-0.245
-0.2
-0.12
0.0
0.145
0.295
0.495
0.69
0.885
1.06
1.185
1.245
1.27
1.2
1.075
0.96
0.85
0.735
0.59
0.435
0.33
0.265
0.2
0.095
0.0
-0.085
-0.12
-0.19
-0.245
-0.305
-0.36
-0.355
-0.365
-0.39
-0.405
-0.43
-0.425
-0.415
-0.405
-0.405
-0.42
-0.425
-0.425
-0.41
-0.41
-0.405
-0.405
-0.415
-0.405
-0.395
-0.38
-0.375
-0.385
-0.395
-0.395
-0.385
-0.39
-0.39
-0.405
-0.415
-0.41
-0.39
-0.385
-0.38
-0.395
-0.415
-0.43
-0.425
-0.415
-0.405
-0.41
-0.415
-0.42
-0.405
-0.4
-0.4
-0.395
-0.415
-0.41
-0.4
-0.395
-0.4
-0.4
-0.395
-0.38
-0.36
-0.35
-0.345
-0.335
-0.325
-0.31
-0.29
-0.275
-0.255
-0.25
-0.25
-0.22
-0.19
-0.17
-0.16
-0.15
-0.135
-0.135
-0.115
-0.105
-0.08
-0.08
-0.07
-0.075
-0.06
-0.06
-0.06
-0.075
-0.08
-0.085
-0.075
-0.08
-0.08
-0.105
-0.13
-0.13
-0.13
-0.12
-0.14
-0.14
-0.155
-0.165
-0.15
-0.145
-0.14
-0.16
-0.17
-0.175
-0.165
-0.155
-0.155
-0.17
-0.18
-0.185
-0.2
-0.2
-0.185
-0.185
-0.195
-0.2
-0.2
-0.19
-0.19
-0.205
-0.205
-0.205
-0.21
-0.215
-0.215
-0.21
-0.215
-0.205
-0.195
-0.19
-0.21
-0.225
-0.235
-0.22
-0.21
-0.2
-0.22
-0.22
-0.235
-0.225
-0.22
-0.2
-0.205
-0.215
-0.21
-0.205
-0.195
-0.2
-0.205
-0.215
-0.235
-0.215
-0.21
-0.21
-0.195
-0.195
-0.215
-0.205
-0.2
-0.205
-0.215
-0.215
-0.215
-0.22
-0.205
-0.185
-0.19
-0.195
-0.215
-0.195
-0.185
-0.155
-0.16
-0.14
-0.125
-0.115
-0.1
-0.095
-0.105
-0.1
-0.115
-0.08
-0.05
-0.03
-0.025
-0.03
-0.03
-0.02
0.005
0.01
0.01
0.0
-0.03
-0.03
-0.015
-0.035
-0.065
-0.085
-0.13
-0.18
-0.205
-0.23
-0.255
-0.27
-0.285
-0.275
-0.265
-0.255
-0.26
-0.275
-0.275
-0.265
-0.255
-0.24
-0.255
-0.26
-0.265
-0.26
-0.245
-0.235
-0.235
-0.245
-0.24
-0.24
-0.22
-0.215
-0.205
-0.21
-0.235
-0.245
-0.25
-0.245
-0.215
-0.17
-0.06
0.095
0.275
0.48
0.685
0.87
1.04
1.16
1.27
1.35
1.37
1.275
1.14
1.005
0.895
0.78
0.61
0.445
0.325
0.255
0.17
0.075
-0.03
-0.115
-0.21
-0.26
-0.31
-0.325
-0.36
-0.38
-0.41
-0.425
-0.43
-0.43
-0.44
-0.455
-0.465
-0.465
-0.46
-0.43
-0.415
-0.42
-0.43
-0.42
-0.42
-0.405
-0.415
-0.415
-0.425
-0.425
-0.415
-0.41
-0.41
-0.425
-0.43
-0.43
-0.415
-0.41
-0.42
-0.42
-0.435
-0.44
-0.425
-0.415
-0.425
-0.43
-0.445
-0.44
-0.43
-0.42
-0.415
-0.42
-0.435
-0.435
-0.42
-0.415
-0.405
-0.425
-0.42
-0.405
-0.405
-0.4
-0.38
-0.39
-0.365
-0.355
-0.335
-0.31
-0.305
-0.3
-0.295
-0.275
-0.26
-0.24
-0.23
-0.21
-0.2
-0.185
-0.16
-0.15
-0.15
-0.145
-0.14
-0.125
-0.1
-0.085
-0.08
-0.065
-0.085
-0.1
-0.085
-0.08
-0.08
-0.085
-0.11
-0.1
-0.11
-0.11
-0.115
-0.13
-0.15
-0.16
-0.145
-0.16
-0.165
-0.175
-0.195
-0.195
-0.18
-0.18
-0.185
-0.195
-0.2
-0.19
-0.195
-0.195
-0.21
-0.21
-0.225
-0.225
-0.21
-0.21
-0.19
-0.205
-0.215
-0.225
-0.22
-0.22
-0.23
-0.25
-0.245
-0.225
-0.225
-0.215
-0.215
-0.23
-0.245
-0.255
-0.25
-0.225
-0.23
-0.235
-0.25
-0.24
-0.225
-0.225
-0.235
-0.24
-0.26
-0.245
-0.235
-0.23
-0.22
-0.24
-0.235
-0.245
-0.235
-0.23
-0.225
-0.23
-0.245
-0.24
-0.24
-0.235
-0.23
-0.235
-0.23
-0.23
-0.22
-0.21
-0.21
-0.22
-0.24
-0.24
-0.22
-0.205
-0.21
-0.215
-0.22
-0.215
-0.195
-0.19
-0.18
-0.195
-0.19
-0.175
-0.145
-0.11
-0.105
-0.115
-0.135
-0.135
-0.115
-0.08
-0.07
-0.065
-0.06
-0.045
-0.025
-0.015
-0.015
-0.01
-0.02
-0.02
-0.035
-0.02
-0.025
-0.035
-0.06
-0.085
-0.11
-0.13
-0.185
-0.22
-0.26
-0.265
-0.27
-0.27
-0.28
-0.295
-0.295
-0.285
-0.28
-0.265
-0.26
-0.28
-0.295
-0.285
-0.27
-0.25
-0.255
-0.26
-0.27
-0.255
-0.23
-0.225
-0.22
-0.23
-0.245
-0.245
-0.23
-0.225
-0.23
-0.23
-0.25
-0.255
-0.25
-0.235
-0.19
-0.095
0.03
0.18
0.35
0.54
0.69
0.85
0.975
1.11
1.2
1.28
1.325
1.32
1.235
1.125
1.015
0.905
0.775
0.615
0.47
0.38
0.32
0.26
0.17
0.06
-0.025
-0.085
-0.145
-0.195
-0.26
-0.32
-0.36
-0.385
-0.4
-0.42
-0.45
-0.475
-0.475
-0.47
-0.46
-0.45
-0.445
-0.445
-0.455
-0.445
-0.44
-0.435
-0.425
-0.44
-0.455
-0.44
-0.44
-0.425
-0.43
-0.425
-0.45
-0.44
-0.415
-0.415
-0.425
-0.44
-0.445
-0.445
-0.425
-0.42
-0.415
-0.42
-0.445
-0.44
-0.44
-0.43
-0.425
-0.43
-0.44
-0.43
-0.43
-0.43
-0.43
-0.44
-0.445
-0.425
-0.415
-0.415
-0.405
-0.41
-0.42
-0.41
-0.395
-0.39
-0.38
-0.395
-0.37
-0.35
-0.32
-0.315
-0.295
-0.285
-0.285
-0.27
-0.24
-0.22
-0.2
-0.19
-0.19
-0.175
-0.155
-0.14
-0.13
-0.115
-0.12
-0.11
-0.105
-0.09
-0.095
-0.1
-0.105
-0.09
-0.085
-0.08
-0.09
-0.11
-0.13
-0.145
-0.145
-0.16
-0.16
-0.17
-0.18
-0.19
-0.175
-0.175
-0.18
-0.2
-0.21
-0.21
-0.205
-0.2
-0.205
-0.225
-0.245
-0.23
-0.215
-0.21
-0.21
-0.225
-0.23
-0.23
-0.235
-0.235
-0.25
-0.255
-0.26
-0.255
-0.245
-0.25
-0.25
-0.25
-0.26
-0.26
-0.25
-0.245
-0.25
-0.26
-0.27
-0.26
-0.245
-0.235
-0.235
-0.25
-0.255
-0.25
-0.235
-0.23
-0.23
-0.235
-0.25
-0.26
-0.23
-0.225
-0.225
-0.245
-0.255
-0.245
-0.235
-0.225
-0.22
-0.23
-0.24
-0.235
-0.24
-0.225
-0.225
-0.225
-0.235
-0.235
-0.225
-0.23
-0.235
-0.235
-0.245
-0.24
-0.23
-0.225
-0.23
-0.235
-0.225
-0.205
-0.2
-0.16
-0.16
-0.15
-0.15
-0.155
-0.15
-0.15
-0.13
-0.115
-0.11
-0.08
-0.075
-0.065
-0.045
-0.045
-0.045
-0.03
-0.03
-0.04
-0.055
-0.065
-0.065
-0.075
-0.075
-0.095
-0.14
-0.215
-0.27
-0.295
-0.29
-0.285
-0.29
-0.32
-0.335
-0.32
-0.31
-0.3
-0.285
-0.29
-0.31
-0.305
-0.3
-0.28
-0.285
-0.29
-0.295
-0.28
-0.27
-0.275
-0.28
-0.29
-0.295
-0.265
-0.27
-0.235
-0.25
-0.27
-0.285
-0.295
-0.29
-0.27
-0.225
-0.145
-0.03
0.135
0.325
0.525
0.7
0.855
0.995
1.125
1.23
1.295
1.28
1.195
1.075
0.955
0.85
0.715
0.555
0.405
0.305
0.245
0.17
0.08
-0.025
-0.1
-0.155
-0.21
-0.27
-0.31
-0.36
-0.395
-0.42
-0.445
-0.445
-0.455
-0.47
-0.485
-0.5
-0.5
-0.485
-0.465
-0.465
-0.475
-0.48
-0.475
-0.465
-0.445
-0.445
-0.45
-0.45
-0.455
-0.445
-0.44
-0.435
-0.44
-0.445
-0.43
-0.425
-0.43
-0.45
-0.445
-0.455
-0.45
-0.44
-0.455
-0.45
-0.475
-0.485
-0.47
-0.465
-0.46
-0.445
-0.475
-0.48
-0.475
-0.46
-0.44
-0.455
-0.46
-0.47
-0.46
-0.45
-0.435
-0.425
-0.435
-0.43
-0.43
-0.415
-0.395
-0.39
-0.39
-0.39
-0.38
-0.36
-0.335
-0.335
-0.335
-0.32
-0.31
-0.275
-0.255
-0.245
-0.245
-0.235
-0.195
-0.17
-0.145
-0.16
-0.15
-0.15
-0.145
-0.14
-0.13
-0.13
-0.14
-0.15
-0.14
-0.135
-0.14
-0.16
-0.18
-0.19
-0.185
-0.18
-0.185
-0.2
-0.215
-0.22
-0.21
-0.22
-0.225
-0.22
-0.23
-0.245
-0.265
-0.26
-0.275
-0.275
-0.27
-0.285
-0.27
-0.265
-0.265
-0.27
-0.27
-0.28
-0.29
-0.29
-0.285
-0.28
-0.295
-0.295
-0.3
-0.305
-0.3
-0.3
-0.305
-0.325
-0.32
-0.295
-0.29
-0.305
-0.305
-0.32
-0.305
-0.295
-0.3
-0.315
-0.3
-0.32
-0.315
-0.295
-0.31
-0.305
-0.31
-0.31
-0.305
-0.295
-0.29
-0.295
-0.32
-0.325
-0.315
-0.29
-0.27
-0.275
-0.3
-0.315
-0.315
-0.3
-0.295
-0.285
-0.31
-0.315
-0.325
-0.3
-0.275
-0.285
-0.285
-0.29
-0.295
-0.295
-0.29
-0.285
-0.275
-0.265
-0.245
-0.225
-0.215
-0.21
-0.205
-0.215
-0.205
-0.21
-0.185
-0.165
-0.165
-0.145
-0.125
-0.095
-0.085
-0.1
-0.085
-0.1
-0.1
-0.105
-0.105
-0.12
-0.13
-0.16
-0.175
-0.21
-0.235
-0.29
-0.33
-0.345
-0.355
-0.345
-0.33
-0.325
-0.345
-0.37
-0.35
-0.325
-0.315
-0.32
-0.32
-0.315
-0.325
-0.32
-0.32
-0.325
-0.315
-0.31
-0.3
-0.295
-0.29
-0.29
-0.29
-0.3
-0.305
-0.295
-0.295
-0.275
-0.245
-0.145
-0.01
0.165
0.34
0.51
0.7
0.885
1.035
1.14
1.225
1.26
1.225
1.11
0.99
0.88
0.79
0.66
0.46
0.295
0.205
0.145
0.075
-0.025
-0.13
-0.205
-0.255
-0.31
-0.35
-0.39
-0.42
-0.445
-0.455
-0.455
-0.465
-0.485
-0.485
-0.495
-0.485
-0.47
-0.475
-0.47
-0.475
-0.47
-0.46
-0.445
-0.45
-0.44
-0.455
-0.465
-0.465
-0.455
-0.44
-0.44
-0.445
-0.465
-0.465
-0.45
-0.44
-0.435
-0.44
-0.445
-0.46
-0.46
-0.445
-0.45
-0.45
-0.465
-0.45
-0.445
-0.445
-0.455
-0.465
-0.47
-0.46
-0.445
-0.435
-0.435
-0.45
-0.455
-0.445
-0.43
-0.41
-0.4
-0.4
-0.41
-0.41
-0.395
-0.375
-0.36
-0.365
-0.365
-0.355
-0.34
-0.31
-0.285
-0.275
-0.275
-0.255
-0.23
-0.21
-0.195
-0.185
-0.185
-0.16
-0.14
-0.125
-0.135
-0.135
-0.135
-0.135
-0.125
-0.125
-0.125
-0.14
-0.16
-0.165
-0.155
-0.15
-0.16
-0.195
-0.19
-0.2
-0.19
-0.185
-0.185
-0.23
-0.255
-0.24
-0.22
-0.21
-0.24
-0.235
-0.245
-0.245
-0.245
-0.23
-0.24
-0.255
-0.255
-0.265
-0.25
-0.24
-0.25
-0.25
-0.25
-0.265
-0.265
-0.255
-0.26
-0.26
-0.27
-0.265
-0.26
-0.25
-0.25
-0.265
-0.27
-0.265
-0.25
-0.255
-0.26
-0.26
-0.27
-0.265
-0.265
-0.25
-0.265
-0.27
-0.285
-0.28
-0.275
-0.26
-0.265
-0.275
-0.28
-0.265
-0.26
-0.255
-0.265
-0.27
-0.285
-0.27
-0.28
-0.27
-0.265
-0.26
-0.26
-0.265
-0.265
-0.26
-0.27
-0.27
-0.285
-0.28
-0.265
-0.265
-0.26
-0.265
-0.265
-0.26
-0.235
-0.225
-0.235
-0.23
-0.22
-0.195
-0.17
-0.16
-0.16
-0.18
-0.185
-0.17
-0.145
-0.105
-0.09
-0.08
-0.08
-0.085
-0.065
-0.05
-0.045
-0.055
-0.075
-0.085
-0.085
-0.075
-0.085
-0.12
-0.19
-0.25
-0.3
-0.315
-0.31
-0.315
-0.33
-0.33
-0.32
-0.33
-0.315
-0.335
-0.33
-0.325
-0.31
-0.31
-0.31
-0.315
-0.32
-0.305
-0.305
-0.29
-0.295
-0.305
-0.3
-0.3
-0.29
-0.275
-0.265
-0.275
-0.295
-0.32
-0.31
-0.305
-0.285
-0.225
-0.145
-0.015
0.14
0.345
0.52
0.715
0.87
1.0
1.105
1.215
1.29
1.275
1.185
1.055
0.93
0.82
0.67
0.495
0.34
0.26
0.19
0.105
-0.01
-0.09
-0.185
-0.24
-0.285
-0.33
-0.385
-0.425
-0.445
-0.455
-0.46
-0.485
-0.49
-0.505
-0.515
-0.51
-0.515
-0.51
-0.51
-0.51
-0.505
-0.495
-0.49
-0.49
-0.48
-0.465
-0.48
-0.475
-0.47
-0.47
-0.47
-0.485
-0.495
-0.485
-0.47
-0.47
-0.47
-0.485
-0.48
-0.475
-0.47
-0.47
-0.47
-0.49
-0.495
-0.5
-0.485
-0.48
-0.47
-0.485
-0.51
-0.495
-0.48
-0.47
-0.475
-0.49
-0.495
-0.48
-0.475
-0.445
-0.445
-0.445
-0.46
-0.45
-0.425
-0.4
-0.385
-0.375
-0.38
-0.365
-0.35
-0.32
-0.32
-0.305
-0.3
-0.285
-0.26
-0.23
-0.22
-0.22
-0.22
-0.19
-0.17
-0.15
-0.145
-0.155
-0.165
-0.16
-0.145
-0.145
-0.145
-0.16
-0.175
-0.15
-0.17
-0.18
-0.18
-0.19
-0.205
-0.215
-0.225
-0.23
-0.245
-0.235
-0.245
-0.25
-0.24
-0.25
-0.255
-0.26
-0.27
-0.27
-0.255
-0.26
-0.27
-0.275
-0.29
-0.285
-0.265
-0.27
-0.27
-0.285
-0.315
-0.305
-0.3
-0.275
-0.275
-0.295
-0.31
-0.305
-0.31
-0.295
-0.305
-0.31
-0.32
-0.31
-0.3
-0.32
-0.31
-0.315
-0.315
-0.305
-0.305
-0.29
-0.295
-0.3
-0.305
-0.305
-0.285
-0.28
-0.28
-0.295
-0.32
-0.29
-0.29
-0.275
-0.285
-0.295
-0.305
-0.305
-0.29
-0.27
-0.27
-0.28
-0.29
-0.3
-0.285
-0.28
-0.275
-0.28
-0.28
-0.285
-0.29
-0.29
-0.285
-0.28
-0.275
-0.28
-0.27
-0.265
-0.26
-0.24
-0.22
-0.19
-0.175
-0.18
-0.19
-0.21
-0.205
-0.18
-0.155
-0.13
-0.11
-0.115
-0.115
-0.1
-0.085
-0.06
-0.065
-0.1
-0.11
-0.115
-0.1
-0.09
-0.09
-0.135
-0.185
-0.23
-0.27
-0.295
-0.315
-0.33
-0.32
-0.325
-0.34
-0.33
-0.33
-0.335
-0.325
-0.325
-0.305
-0.305
-0.32
-0.335
-0.345
-0.335
-0.31
-0.295
-0.3
-0.315
-0.315
-0.31
-0.295
-0.29
-0.29
-0.29
-0.305
-0.32
-0.31
-0.32
-0.32
-0.285
-0.225
-0.085
0.065
0.24
0.44
0.635
0.815
0.96
1.085
1.17
1.25
1.265
1.185
1.065
0.95
0.83
0.68
0.515
0.37
0.27
0.22
0.16
0.04
-0.075
-0.15
-0.215
-0.26
-0.295
-0.36
-0.415
-0.445
-0.46
-0.48
-0.495
-0.51
-0.52
-0.52
-0.53
-0.52
-0.495
-0.485
-0.49
-0.495
-0.52
-0.51
-0.48
-0.49
-0.475
-0.505
-0.49
-0.485
-0.485
-0.48
-0.48
-0.485
-0.475
-0.475
-0.48
-0.485
-0.485
-0.5
-0.49
-0.485
-0.475
-0.485
-0.49
-0.5
-0.495
-0.485
-0.49
-0.5
-0.515
-0.53
-0.51
-0.495
-0.48
-0.48
-0.495
-0.5
-0.48
-0.47
-0.46
-0.455
-0.46
-0.47
-0.455
-0.42
-0.405
-0.385
-0.385
-0.385
-0.36
-0.33
-0.305
-0.28
-0.285
-0.285
-0.26
-0.24
-0.23
-0.22
-0.195
-0.195
-0.165
-0.15
-0.15
-0.15
-0.165
-0.18
-0.17
-0.165
-0.17
-0.175
-0.185
-0.2
-0.2
-0.21
-0.21
-0.245
-0.245
-0.245
-0.265
-0.24
-0.255
-0.26
-0.27
-0.28
-0.265
-0.255
-0.26
-0.27
-0.275
-0.29
-0.28
-0.275
-0.27
-0.275
-0.285
-0.3
-0.3
-0.305
-0.3
-0.305
-0.315
-0.315
-0.31
-0.31
-0.325
-0.32
-0.31
-0.325
-0.315
-0.295
-0.3
-0.31
-0.3
-0.32
-0.31
-0.315
-0.32
-0.305
-0.305
-0.31
-0.305
-0.3
-0.29
-0.305
-0.3
-0.32
-0.31
-0.31
-0.29
-0.295
-0.3
-0.305
-0.315
-0.285
-0.29
-0.305
-0.305
-0.325
-0.3
-0.285
-0.27
-0.28
-0.285
-0.305
-0.3
-0.285
-0.29
-0.27
-0.29
-0.295
-0.265
-0.225
-0.2
-0.185
-0.2
-0.205
-0.225
-0.21
-0.19
-0.145
-0.135
-0.13
-0.1
-0.1
-0.09
-0.075
-0.075
-0.09
-0.115
-0.115
-0.11
-0.11
-0.12
-0.14
-0.185
-0.24
-0.28
-0.305
-0.33
-0.345
-0.355
-0.35
-0.345
-0.36
-0.365
-0.375
-0.355
-0.345
-0.33
-0.33
-0.335
-0.365
-0.355
-0.33
-0.32
-0.32
-0.32
-0.32
-0.32
-0.325
-0.305
-0.305
-0.32
-0.33
-0.35
-0.34
-0.325
-0.29
-0.22
-0.115
0.04
0.21
0.41
0.615
0.79
0.935
1.065
1.17
1.235
1.245
1.18
1.05
0.93
0.81
0.675
0.505
0.345
0.255
0.18
0.11
0.015
-0.095
-0.175
-0.225
-0.275
-0.33
-0.375
-0.405
-0.435
-0.47
-0.485
-0.49
-0.505
-0.51
-0.52
-0.535
-0.515
-0.505
-0.49
-0.475
-0.5
-0.5
-0.5
-0.48
-0.475
-0.475
-0.465
-0.475
-0.485
-0.485
-0.46
-0.465
-0.465
-0.46
-0.47
-0.47
-0.48
-0.465
-0.485
-0.485
-0.49
-0.48
-0.48
-0.48
-0.49
-0.51
-0.485
-0.485
-0.48
-0.485
-0.495
-0.495
-0.48
-0.475
-0.465
-0.45
-0.45
-0.47
-0.46
-0.46
-0.445
-0.42
-0.43
-0.42
-0.415
-0.395
-0.38
-0.355
-0.35
-0.34
-0.32
-0.285
-0.26
-0.245
-0.255
-0.245
-0.23
-0.19
-0.165
-0.15
-0.17
-0.17
-0.17
-0.145
-0.13
-0.13
-0.15
-0.165
-0.17
-0.185
-0.175
-0.18
-0.19
-0.215
-0.21
-0.22
-0.23
-0.245
-0.23
-0.245
-0.245
-0.255
-0.255
-0.26
-0.27
-0.285
-0.29
-0.28
-0.27
-0.28
-0.29
-0.3
-0.275
-0.27
-0.28
-0.3
-0.305
-0.31
-0.31
-0.29
-0.285
-0.3
-0.31
-0.31
-0.305
-0.3
-0.3
-0.305
-0.305
-0.33
-0.32
-0.305
-0.305
-0.31
-0.315
-0.32
-0.325
-0.32
-0.29
-0.29
-0.31
-0.305
-0.31
-0.315
-0.315
-0.31
-0.32
-0.31
-0.31
-0.28
-0.28
-0.29
-0.3
-0.31
-0.31
-0.3
-0.29
-0.285
-0.29
-0.295
-0.295
-0.285
-0.28
-0.29
-0.305
-0.305
-0.3
-0.28
-0.27
-0.26
-0.27
-0.26
-0.23
-0.22
-0.195
-0.185
-0.19
-0.2
-0.19
-0.185
-0.175
-0.16
-0.14
-0.125
-0.1
-0.085
-0.065
-0.07
-0.09
-0.115
-0.11
-0.115
-0.105
-0.12
-0.13
-0.16
-0.205
-0.245
-0.28
-0.325
-0.34
-0.355
-0.365
-0.345
-0.33
-0.34
-0.34
-0.34
-0.34
-0.345
-0.325
-0.315
-0.33
-0.33
-0.32
-0.305
-0.295
-0.305
-0.315
-0.315
-0.3
-0.285
-0.28
-0.29
-0.31
-0.33
-0.325
-0.285
-0.2
-0.08
0.075
0.24
0.445
0.64
0.835
0.995
1.14
1.205
1.225
1.17
1.04
0.91
0.785
0.62
0.435
0.295
0.2
0.12
0.02
-0.09
-0.16
-0.205
-0.255
-0.315
-0.385
-0.43
-0.46
-0.47
-0.48
-0.495
-0.51
-0.525
-0.53
-0.515
-0.495
-0.49
-0.475
-0.49
-0.49
-0.495
-0.495
-0.51
-0.51
-0.495
-0.49
-0.48
-0.49
-0.49
-0.495
-0.5
-0.495
-0.485
-0.48
-0.48
-0.485
-0.505
-0.49
-0.485
-0.48
-0.49
-0.485
-0.515
-0.515
-0.505
-0.495
-0.485
-0.485
-0.495
-0.49
-0.49
-0.485
-0.49
-0.49
-0.49
-0.475
-0.475
-0.465
-0.445
-0.445
-0.43
-0.43
-0.425
-0.41
-0.38
-0.38
-0.37
-0.38
-0.345
-0.33
-0.31
-0.305
-0.285
-0.27
-0.25
-0.22
-0.225
-0.21
-0.2
-0.175
-0.145
-0.125
-0.15
-0.16
-0.175
-0.16
-0.155
-0.14
-0.16
-0.175
-0.19
-0.195
-0.205
-0.195
-0.195
-0.2
-0.225
-0.23
-0.245
-0.235
-0.225
-0.225
-0.235
-0.25
-0.255
-0.245
-0.25
-0.245
-0.26
-0.27
-0.265
-0.27
-0.27
-0.27
-0.27
-0.26
-0.26
-0.255
-0.255
-0.265
-0.27
-0.275
-0.265
-0.265
-0.265
-0.285
-0.295
-0.27
-0.265
-0.26
-0.255
-0.285
-0.295
-0.285
-0.26
-0.265
-0.26
-0.275
-0.27
-0.27
-0.26
-0.25
-0.265
-0.27
-0.27
-0.26
-0.265
-0.265
-0.26
-0.255
-0.265
-0.26
-0.255
-0.25
-0.24
-0.25
-0.25
-0.26
-0.255
-0.255
-0.255
-0.26
-0.26
-0.25
-0.255
-0.255
-0.255
-0.265
-0.27
-0.26
-0.245
-0.24
-0.24
-0.255
-0.26
-0.25
-0.215
-0.195
-0.17
-0.16
-0.16
-0.155
-0.17
-0.16
-0.165
-0.145
-0.12
-0.1
-0.065
-0.06
-0.035
-0.035
-0.045
-0.035
-0.035
-0.03
-0.06
-0.075
-0.09
-0.09
-0.085
-0.115
-0.16
-0.235
-0.28
-0.305
-0.31
-0.305
-0.3
-0.31
-0.32
-0.32
-0.315
-0.295
-0.295
-0.3
-0.295
-0.3
-0.28
-0.275
-0.275
-0.285
-0.29
-0.285
-0.285
-0.265
-0.25
-0.255
-0.26
-0.255
-0.26
-0.27
-0.29
-0.31
-0.315
-0.28
-0.21
-0.1
0.025
0.185
0.37
0.575
0.81
0.985
1.12
1.235
1.27
1.265
1.195
1.08
0.97
0.88
0.75
0.595
0.45
0.35
0.295
0.215
0.11
