Lead II
-0.25
-0.24
-0.255
-0.255
-0.26
-0.255
-0.245
-0.22
-0.215
-0.24
-0.245
-0.24
-0.21
-0.195
-0.185
-0.18
-0.195
-0.2
-0.18
-0.16
-0.15
-0.16
-0.185
-0.17
-0.17
-0.155
-0.16
-0.17
-0.19
-0.19
-0.205
-0.19
-0.2
-0.225
-0.235
-0.235
-0.225
-0.21
-0.225
-0.23
-0.245
-0.235
-0.22
-0.205
-0.205
-0.21
-0.22
-0.22
-0.215
-0.2
-0.2
-0.2
-0.21
-0.205
-0.2
-0.18
-0.185
-0.23
-0.27
-0.285
-0.3
-0.3
-0.285
-0.225
-0.09
0.19
0.61
1.115
1.58
1.92
2.11
2.13
1.92
1.415
0.775
0.135
-0.505
-0.52
-0.38
-0.32
-0.33
-0.355
-0.38
-0.35
-0.3
-0.235
-0.175
-0.165
-0.16
-0.155
-0.145
-0.14
-0.135
-0.145
-0.155
-0.17
-0.13
-0.125
-0.125
-0.135
-0.13
-0.125
-0.12
-0.105
-0.11
-0.12
-0.115
-0.125
-0.11
-0.085
-0.095
-0.1
-0.115
-0.12
-0.105
-0.085
-0.08
-0.095
-0.1
-0.095
-0.08
-0.06
-0.07
-0.075
-0.075
-0.075
-0.07
-0.045
-0.05
-0.055
-0.055
-0.065
-0.045
-0.025
-0.03
-0.025
-0.03
-0.03
-0.01
0.015
0.02
0.0
-0.005
0.02
0.025
0.06
0.06
0.06
0.06
0.075
0.09
0.125
0.145
0.125
0.135
0.155
0.185
0.2
0.225
0.215
0.22
0.255
0.285
0.32
0.34
0.36
0.355
0.38
0.43
0.46
0.485
0.505
0.525
0.545
0.575
0.615
0.66
0.65
0.675
0.705
0.745
0.775
0.8
0.825
0.83
0.85
0.885
0.91
0.92
0.9
0.895
0.885
0.88
0.86
0.805
0.75
0.695
0.625
0.575
0.53
0.455
0.36
0.3
0.245
0.205
0.155
0.105
0.06
-0.005
-0.03
-0.045
-0.065
-0.095
-0.13
-0.16
-0.165
-0.185
-0.185
-0.195
-0.215
-0.245
-0.24
-0.22
-0.22
-0.225
-0.25
-0.265
-0.255
-0.25
-0.235
-0.245
-0.255
-0.27
-0.29
-0.26
-0.25
-0.235
-0.255
-0.27
-0.27
-0.255
-0.24
-0.24
-0.26
-0.25
-0.25
-0.255
-0.225
-0.225
-0.245
-0.265
-0.25
-0.25
-0.225
-0.23
-0.245
-0.245
-0.24
-0.235
-0.225
-0.22
-0.235
-0.25
-0.24
-0.235
-0.215
-0.23
-0.25
-0.245
-0.245
-0.25
-0.245
-0.23
-0.25
-0.25
-0.26
-0.25
-0.235
-0.245
-0.24
-0.255
-0.26
-0.24
-0.235
-0.235
-0.25
-0.26
-0.265
-0.245
-0.245
-0.25
-0.28
-0.265
-0.265
-0.25
-0.245
-0.24
-0.255
-0.28
-0.275
-0.255
-0.245
-0.24
-0.26
-0.26
-0.27
-0.26
-0.265
-0.25
-0.26
-0.265
-0.275
-0.27
-0.26
-0.25
-0.26
-0.275
-0.29
-0.26
-0.245
-0.24
-0.265
-0.28
-0.27
-0.26
-0.255
-0.26
-0.265
-0.275
-0.28
-0.265
-0.25
-0.255
-0.275
-0.29
-0.27
-0.265
-0.245
-0.255
-0.265
-0.275
-0.28
-0.265
-0.255
-0.255
-0.265
-0.265
-0.28
-0.26
-0.25
-0.25
-0.255
-0.28
-0.275
-0.255
-0.25
-0.25
-0.255
-0.265
-0.26
-0.245
-0.23
-0.24
-0.245
-0.27
-0.255
-0.23
-0.225
-0.24
-0.245
-0.265
-0.27
-0.25
-0.24
-0.24
-0.25
-0.255
-0.25
-0.245
-0.215
-0.23
-0.24
-0.255
-0.25
-0.23
-0.22
-0.215
-0.24
-0.24
-0.235
-0.215
-0.21
-0.215
-0.22
-0.21
-0.21
-0.175
-0.15
-0.155
-0.175
-0.185
-0.16
-0.15
-0.135
-0.16
-0.175
-0.185
-0.17
-0.175
-0.185
-0.19
-0.2
-0.23
-0.225
-0.22
-0.225
-0.235
-0.24
-0.24
-0.235
-0.22
-0.21
-0.21
-0.21
-0.215
-0.23
-0.21
-0.19
-0.22
-0.24
-0.23
-0.225
-0.2
-0.185
-0.175
-0.195
-0.2
-0.21
-0.225
-0.25
-0.3
-0.315
-0.33
-0.255
-0.06
0.285
0.755
1.255
1.7
2.04
2.185
2.14
1.8
1.16
0.52
-0.12
-0.555
-0.47
-0.355
-0.35
-0.37
-0.395
-0.385
-0.355
-0.305
-0.275
-0.215
-0.195
-0.175
-0.165
-0.175
-0.19
-0.205
-0.205
-0.2
-0.16
-0.155
-0.165
-0.195
-0.17
-0.15
-0.16
-0.15
-0.17
-0.165
-0.16
-0.145
-0.145
-0.135
-0.145
-0.155
-0.14
-0.155
-0.12
-0.11
-0.12
-0.135
-0.135
-0.125
-0.12
-0.12
-0.12
-0.11
-0.115
-0.11
-0.12
-0.1
-0.125
-0.125
-0.1
-0.08
-0.07
-0.065
-0.08
-0.08
-0.08
-0.055
-0.035
-0.04
-0.04
-0.07
-0.035
-0.015
0.0
0.0
-0.005
-0.005
0.01
0.015
0.03
0.055
0.055
0.055
0.075
0.075
0.125
0.14
0.14
0.155
0.19
0.215
0.25
0.26
0.28
0.29
0.315
0.365
0.4
0.41
0.425
0.44
0.495
0.52
0.56
0.57
0.605
0.62
0.645
0.69
0.73
0.755
0.775
0.755
0.785
0.83
0.855
0.85
0.84
0.815
0.785
0.76
0.755
0.69
0.615
0.54
0.49
0.44
0.385
0.315
0.22
0.14
0.08
0.04
0.01
-0.05
-0.11
-0.14
-0.17
-0.17
-0.2
-0.225
-0.25
-0.28
-0.295
-0.275
-0.275
-0.295
-0.32
-0.33
-0.325
-0.305
-0.3
-0.325
-0.345
-0.335
-0.34
-0.32
-0.315
-0.325
-0.345
-0.345
-0.335
-0.335
-0.31
-0.32
-0.345
-0.355
-0.35
-0.345
-0.32
-0.325
-0.34
-0.355
-0.34
-0.33
-0.32
-0.33
-0.35
-0.345
-0.345
-0.335
-0.32
-0.33
-0.335
-0.34
-0.345
-0.315
-0.31
-0.33
-0.32
-0.345
-0.33
-0.33
-0.315
-0.32
-0.34
-0.35
-0.345
-0.345
-0.315
-0.335
-0.345
-0.355
-0.355
-0.335
-0.33
-0.335
-0.34
-0.36
-0.35
-0.34
-0.34
-0.34
-0.35
-0.36
-0.355
-0.355
-0.34
-0.34
-0.35
-0.365
-0.365
-0.35
-0.33
-0.355
-0.37
-0.38
-0.375
-0.355
-0.335
-0.36
-0.36
-0.37
-0.37
-0.34
-0.335
-0.345
-0.35
-0.39
-0.375
-0.345
-0.345
-0.36
-0.36
-0.365
-0.36
-0.355
-0.34
-0.35
-0.36
-0.365
-0.365
-0.365
-0.335
-0.345
-0.36
-0.355
-0.35
-0.34
-0.34
-0.34
-0.355
-0.38
-0.36
-0.36
-0.335
-0.35
-0.36
-0.38
-0.375
-0.365
-0.34
-0.355
-0.36
-0.37
-0.355
-0.365
-0.34
-0.34
-0.355
-0.375
-0.365
-0.345
-0.325
-0.35
-0.345
-0.355
-0.35
-0.335
-0.33
-0.325
-0.335
-0.36
-0.355
-0.345
-0.32
-0.33
-0.335
-0.345
-0.34
-0.325
-0.315
-0.32
-0.325
-0.335
-0.34
-0.32
-0.32
-0.32
-0.34
-0.33
-0.335
-0.33
-0.31
-0.32
-0.3
-0.315
-0.31
-0.285
-0.255
-0.26
-0.26
-0.26
-0.275
-0.24
-0.23
-0.23
-0.23
-0.24
-0.24
-0.235
-0.22
-0.225
-0.24
-0.245
-0.28
-0.27
-0.255
-0.27
-0.3
-0.32
-0.32
-0.295
-0.305
-0.29
-0.31
-0.315
-0.305
-0.29
-0.275
-0.285
-0.295
-0.305
-0.285
-0.28
-0.275
-0.27
-0.28
-0.285
-0.28
-0.25
-0.25
-0.245
-0.255
-0.28
-0.32
-0.35
-0.375
-0.37
-0.365
-0.295
-0.125
0.17
0.605
1.105
1.56
1.905
2.14
2.185
2.01
1.53
0.89
0.25
-0.39
-0.625
-0.485
-0.415
-0.425
-0.455
-0.44
-0.415
-0.385
-0.35
-0.32
-0.28
-0.245
-0.215
-0.21
-0.205
-0.21
-0.205
-0.205
-0.18
-0.175
-0.175
-0.19
-0.2
-0.185
-0.185
-0.16
-0.17
-0.165
-0.185
-0.185
-0.155
-0.16
-0.16
-0.155
-0.15
-0.155
-0.155
-0.115
-0.13
-0.12
-0.14
-0.135
-0.115
-0.1
-0.1
-0.12
-0.125
-0.115
-0.09
-0.085
-0.075
-0.095
-0.11
-0.1
-0.075
-0.06
-0.06
-0.065
-0.06
-0.035
-0.035
-0.025
-0.015
-0.03
-0.03
-0.005
0.015
0.035
0.025
0.035
0.025
0.04
0.075
0.085
0.1
0.09
0.095
0.12
0.155
0.17
0.195
0.2
0.205
0.225
0.26
0.295
0.31
0.33
0.345
0.38
0.42
0.475
0.5
0.51
0.53
0.57
0.6
0.655
0.67
0.685
0.7
0.73
0.795
0.825
0.85
0.855
0.865
0.89
0.91
0.93
0.905
0.895
0.85
0.825
0.78
0.755
0.685
0.61
0.54
0.475
0.405
0.365
0.275
0.2
0.12
0.07
0.04
0.0
-0.04
-0.095
-0.135
-0.15
-0.16
-0.175
-0.18
-0.205
-0.24
-0.245
-0.245
-0.24
-0.25
-0.28
-0.275
-0.275
-0.26
-0.26
-0.26
-0.26
-0.275
-0.27
-0.255
-0.245
-0.24
-0.27
-0.295
-0.265
-0.26
-0.24
-0.255
-0.255
-0.26
-0.26
-0.255
-0.235
-0.24
-0.255
-0.26
-0.255
-0.24
-0.235
-0.23
-0.24
-0.245
-0.24
-0.235
-0.22
-0.25
-0.245
-0.25
-0.26
-0.25
-0.245
-0.265
-0.285
-0.28
-0.27
-0.26
-0.26
-0.26
-0.275
-0.28
-0.275
-0.265
-0.26
-0.265
-0.27
-0.27
-0.265
-0.26
-0.25
-0.265
-0.27
-0.285
-0.285
-0.27
-0.255
-0.26
-0.27
-0.295
-0.29
-0.275
-0.255
-0.275
-0.29
-0.29
-0.28
-0.265
-0.26
-0.275
-0.29
-0.285
-0.28
-0.27
-0.27
-0.265
-0.285
-0.28
-0.295
-0.275
-0.26
-0.265
-0.275
-0.28
-0.275
-0.26
-0.25
-0.265
-0.275
-0.28
-0.275
-0.27
-0.255
-0.275
-0.285
-0.285
-0.29
-0.27
-0.27
-0.265
-0.285
-0.29
-0.285
-0.26
-0.26
-0.26
-0.27
-0.27
-0.265
-0.25
-0.23
-0.235
-0.24
-0.24
-0.23
-0.215
-0.2
-0.215
-0.225
-0.21
-0.21
-0.18
-0.17
-0.175
-0.195
-0.21
-0.2
-0.2
-0.19
-0.2
-0.21
-0.22
-0.235
-0.22
-0.23
-0.23
-0.265
-0.285
-0.27
-0.26
-0.25
-0.245
-0.26
-0.28
-0.26
-0.245
-0.23
-0.24
-0.245
-0.275
-0.265
-0.25
-0.24
-0.235
-0.245
-0.25
-0.24
-0.22
-0.205
-0.205
-0.21
-0.23
-0.225
-0.23
-0.26
-0.29
-0.34
-0.375
-0.36
-0.32
-0.22
-0.045
0.235
0.6
1.04
1.45
1.785
2.005
2.085
1.965
1.625
1.0
0.36
-0.28
-0.57
-0.515
-0.41
-0.38
-0.39
-0.405
-0.415
-0.41
-0.385
-0.34
-0.285
-0.245
-0.22
-0.195
-0.19
-0.17
-0.145
-0.16
-0.155
-0.175
-0.175
-0.15
-0.15
-0.15
-0.16
-0.165
-0.14
-0.125
-0.115
-0.12
-0.135
-0.155
-0.125
-0.12
-0.09
-0.1
-0.115
-0.125
-0.11
-0.09
-0.075
-0.085
-0.11
-0.105
-0.09
-0.075
-0.065
-0.07
-0.1
-0.1
-0.075
-0.05
-0.045
-0.055
-0.07
-0.055
-0.04
-0.03
-0.02
-0.02
-0.025
-0.035
-0.015
-0.005
0.0
0.0
-0.015
-0.015
0.005
0.03
0.035
0.04
0.04
0.03
0.055
0.065
0.095
0.095
0.09
0.08
0.105
0.12
0.16
0.155
0.175
0.18
0.205
0.24
0.26
0.27
0.27
0.295
0.335
0.355
0.39
0.395
0.405
0.43
0.48
0.51
0.53
0.56
0.575
0.585
0.61
0.66
0.71
0.715
0.735
0.74
0.78
0.81
0.835
0.85
0.855
0.875
0.905
0.93
0.94
0.925
0.9
0.87
0.85
0.815
0.765
0.705
0.62
0.56
0.49
0.43
0.37
0.29
0.225
0.16
0.11
0.08
0.035
-0.02
-0.045
-0.08
-0.1
-0.11
-0.12
-0.15
-0.175
-0.195
-0.2
-0.21
-0.21
-0.225
-0.235
-0.245
-0.235
-0.24
-0.22
-0.245
-0.26
-0.26
-0.265
-0.265
-0.265
-0.27
-0.265
-0.27
-0.255
-0.245
-0.25
-0.27
-0.265
-0.27
-0.26
-0.25
-0.235
-0.245
-0.27
-0.255
-0.245
-0.235
-0.235
-0.235
-0.25
-0.25
-0.24
-0.225
-0.215
-0.225
-0.235
-0.245
-0.235
-0.225
-0.22
-0.23
-0.245
-0.245
-0.235
-0.215
-0.215
-0.225
-0.235
-0.245
-0.23
-0.215
-0.205
-0.225
-0.245
-0.235
-0.235
-0.23
-0.21
-0.235
-0.235
-0.245
-0.24
-0.22
-0.23
-0.245
-0.25
-0.245
-0.245
-0.235
-0.23
-0.235
-0.255
-0.26
-0.255
-0.25
-0.235
-0.245
-0.255
-0.255
-0.25
-0.24
-0.245
-0.24
-0.255
-0.28
-0.265
-0.24
-0.235
-0.24
-0.26
-0.26
-0.245
-0.235
-0.225
-0.245
-0.255
-0.255
-0.24
-0.235
-0.235
-0.245
-0.255
-0.27
-0.245
-0.225
-0.225
-0.22
-0.215
-0.22
-0.205
-0.175
-0.175
-0.185
-0.19
-0.185
-0.18
-0.13
-0.13
-0.125
-0.15
-0.145
-0.14
-0.135
-0.14
-0.165
-0.205
-0.2
-0.195
-0.185
-0.2
-0.23
-0.24
-0.26
-0.255
-0.24
-0.23
-0.25
-0.26
-0.26
-0.26
-0.245
-0.245
-0.265
-0.27
-0.265
-0.245
-0.245
-0.24
-0.255
-0.25
-0.25
-0.23
-0.22
-0.21
-0.21
-0.225
-0.22
-0.23
-0.24
-0.24
-0.275
-0.31
-0.355
-0.345
-0.31
-0.245
-0.115
0.135
0.535
1.025
1.505
1.865
2.095
2.155
2.04
1.705
1.09
0.45
-0.19
-0.555
-0.525
-0.42
-0.375
-0.39
-0.41
-0.41
-0.395
-0.375
-0.33
-0.31
-0.255
-0.215
-0.205
-0.19
-0.17
-0.17
-0.185
-0.175
-0.195
-0.19
-0.165
-0.155
-0.175
-0.17
-0.175
-0.15
-0.145
-0.145
-0.15
-0.165
-0.175
-0.15
-0.14
-0.125
-0.145
-0.16
-0.165
-0.135
-0.125
-0.115
-0.135
-0.15
-0.14
-0.13
-0.11
-0.12
-0.105
-0.12
-0.115
-0.12
-0.1
-0.09
-0.09
-0.095
-0.105
-0.085
-0.07
-0.055
-0.075
-0.07
-0.08
-0.055
-0.03
-0.02
-0.04
-0.045
-0.04
-0.025
0.0
0.015
0.02
0.015
0.015
0.025
0.045
0.07
0.07
0.075
0.09
0.105
0.125
0.15
0.165
0.17
0.18
0.205
0.235
0.265
0.27
0.305
0.31
0.35
0.385
0.425
0.44
0.44
0.48
0.52
0.545
0.585
0.595
0.61
0.635
0.67
0.715
0.745
0.76
0.78
0.8
0.83
0.865
0.89
0.89
0.88
0.88
0.885
0.885
0.855
0.815
0.76
0.7
0.655
0.595
0.53
0.46
0.385
0.33
0.27
0.22
0.16
0.105
0.035
-0.01
-0.045
-0.075
-0.095
-0.135
-0.18
-0.2
-0.2
-0.19
-0.21
-0.23
-0.25
-0.285
-0.26
-0.25
-0.255
-0.26
-0.285
-0.28
-0.27
-0.275
-0.265
-0.275
-0.29
-0.295
-0.3
-0.29
-0.28
-0.295
-0.31
-0.325
-0.3
-0.29
-0.29
-0.29
-0.32
-0.325
-0.3
-0.295
-0.285
-0.3
-0.315
-0.305
-0.295
-0.275
-0.275
-0.275
-0.295
-0.295
-0.295
-0.27
-0.275
-0.295
-0.29
-0.3
-0.285
-0.27
-0.27
-0.275
-0.29
-0.29
-0.275
-0.27
-0.26
-0.275
-0.29
-0.29
-0.275
-0.27
-0.28
-0.28
-0.295
-0.3
-0.29
-0.285
-0.275
-0.28
-0.295
-0.29
-0.275
-0.275
-0.27
-0.29
-0.3
-0.29
-0.285
-0.275
-0.28
-0.295
-0.31
-0.31
-0.285
-0.28
-0.285
-0.285
-0.32
-0.31
-0.305
-0.285
-0.29
-0.29
-0.315
-0.31
-0.305
-0.28
-0.295
-0.3
-0.32
-0.305
-0.3
-0.28
-0.275
-0.285
-0.295
-0.305
-0.285
-0.295
-0.3
-0.295
-0.31
-0.305
-0.295
-0.27
-0.275
-0.29
-0.305
-0.3
-0.29
-0.285
-0.275
-0.285
-0.29
-0.29
-0.29
-0.27
-0.29
-0.275
-0.285
-0.29
-0.275
-0.27
-0.255
-0.275
-0.29
-0.29
-0.285
-0.27
-0.265
-0.28
-0.28
-0.3
-0.295
-0.265
-0.265
-0.275
-0.27
-0.275
-0.27
-0.26
-0.245
-0.255
-0.255
-0.265
-0.24
-0.21
-0.205
-0.21
-0.23
-0.2
-0.19
-0.18
-0.18
-0.19
-0.19
-0.175
-0.17
-0.165
-0.17
-0.18
-0.19
-0.19
-0.175
-0.17
-0.175
-0.2
-0.235
-0.235
-0.23
-0.23
-0.235
-0.245
-0.265
-0.26
-0.245
-0.25
-0.245
-0.245
-0.255
-0.27
-0.255
-0.245
-0.245
-0.245
-0.265
-0.24
-0.235
-0.205
-0.205
-0.225
-0.23
-0.22
-0.2
-0.195
-0.195
-0.23
-0.28
-0.31
-0.325
-0.32
-0.28
-0.21
-0.005
0.335
0.815
1.31
1.725
2.02
2.16
2.14
1.925
1.365
0.725
0.085
-0.545
-0.55
-0.41
-0.35
-0.35
-0.375
-0.385
-0.355
-0.305
-0.26
-0.22
-0.195
-0.18
-0.19
-0.175
-0.16
-0.15
-0.165
-0.175
-0.175
-0.15
-0.14
-0.16
-0.16
-0.17
-0.16
-0.155
-0.135
-0.14
-0.15
-0.16
-0.165
-0.15
-0.115
-0.105
-0.11
-0.12
-0.125
-0.105
-0.105
-0.095
-0.115
-0.12
-0.115
-0.105
-0.075
-0.085
-0.075
-0.1
-0.095
-0.09
-0.07
-0.065
-0.075
-0.08
-0.075
-0.055
-0.04
-0.045
-0.045
-0.045
-0.04
-0.015
0.01
0.01
0.01
0.0
0.015
0.03
0.05
0.07
0.065
0.045
0.06
0.09
0.105
0.125
0.12
0.11
0.145
0.18
0.2
0.22
0.235
0.235
0.26
0.285
0.325
0.36
0.35
0.36
0.4
0.445
0.49
0.525
0.535
0.555
0.575
0.625
0.655
0.67
0.69
0.7
0.715
0.765
0.8
0.81
0.83
0.825
0.85
0.865
0.88
0.88
0.845
0.805
0.765
0.725
0.69
0.645
0.58
0.505
0.45
0.395
0.34
0.295
0.22
0.15
0.105
0.06
0.035
-0.005
-0.06
-0.1
-0.135
-0.145
-0.16
-0.175
-0.2
-0.225
-0.23
-0.24
-0.23
-0.235
-0.265
-0.3
-0.28
-0.26
-0.265
-0.245
-0.265
-0.28
-0.3
-0.295
-0.27
-0.27
-0.275
-0.285
-0.285
-0.285
-0.265
-0.255
-0.265
-0.285
-0.28
-0.28
-0.265
-0.26
-0.27
-0.28
-0.285
-0.275
-0.25
-0.265
-0.275
-0.285
-0.275
-0.285
-0.265
-0.265
-0.255
-0.275
-0.27
-0.265
-0.24
-0.255
-0.26
-0.275
-0.275
-0.265
-0.245
-0.255
-0.25
-0.27
-0.29
-0.265
-0.255
-0.255
-0.255
-0.28
-0.28
-0.275
-0.27
-0.265
-0.27
-0.29
-0.3
-0.29
-0.27
-0.265
-0.265
-0.29
-0.295
-0.27
-0.26
-0.265
-0.275
-0.28
-0.28
-0.285
-0.255
-0.26
-0.275
-0.285
-0.275
-0.265
-0.26
-0.255
-0.28
-0.265
-0.285
-0.28
-0.255
-0.265
-0.265
-0.285
-0.285
-0.265
-0.265
-0.24
-0.25
-0.265
-0.255
-0.245
-0.25
-0.24
-0.24
-0.25
-0.245
-0.25
-0.225
-0.235
-0.24
-0.26
-0.255
-0.24
-0.22
-0.22
-0.225
-0.24
-0.245
-0.225
-0.215
-0.215
-0.22
-0.235
-0.225
-0.22
-0.215
-0.2
-0.205
-0.22
-0.23
-0.205
-0.195
-0.21
-0.205
-0.215
-0.205
-0.205
-0.19
-0.18
-0.195
-0.205
-0.2
-0.185
-0.17
-0.18
-0.18
-0.195
-0.185
-0.175
-0.16
-0.15
-0.17
-0.175
-0.175
-0.16
-0.15
-0.165
-0.16
-0.155
-0.165
-0.165
-0.155
-0.155
-0.16
-0.165
-0.165
-0.145
-0.135
-0.135
-0.14
-0.145
-0.145
-0.125
-0.105
-0.11
-0.115
-0.12
-0.115
-0.095
-0.075
-0.055
-0.06
-0.08
-0.07
-0.05
-0.03
-0.02
-0.03
-0.05
-0.06
-0.055
-0.02
-0.045
-0.05
-0.075
-0.085
-0.065
-0.065
-0.07
-0.1
-0.115
-0.11
-0.105
-0.085
-0.085
-0.11
-0.12
-0.11
-0.08
-0.075
-0.075
-0.085
-0.09
-0.085
-0.075
-0.06
-0.045
-0.055
-0.07
-0.06
-0.035
-0.025
-0.02
-0.05
-0.09
-0.13
-0.15
-0.15
-0.16
-0.145
-0.055
0.16
0.505
0.985
1.485
1.91
2.19
2.31
2.235
1.88
1.24
0.6
-0.04
-0.395
-0.285
-0.18
-0.18
-0.195
-0.22
-0.21
-0.17
-0.12
-0.075
-0.04
-0.02
-0.005
0.02
0.03
0.035
0.03
0.025
0.035
0.05
0.055
0.06
0.045
0.035
0.035
0.05
0.07
0.055
0.06
0.045
0.04
0.045
0.05
0.07
0.07
0.055
0.045
0.055
0.08
0.08
0.095
0.075
0.08
0.095
0.11
0.12
0.115
0.105
0.115
0.13
0.13
0.14
0.125
0.135
0.13
0.145
0.175
0.165
0.165
0.15
0.15
0.165
0.185
0.2
0.195
0.185
0.185
0.215
0.225
0.24
0.24
0.245
0.25
0.275
0.28
0.305
0.285
0.29
0.32
0.345
0.365
0.38
0.385
0.39
0.4
0.42
0.46
0.47
0.475
0.485
0.5
0.54
0.58
0.6
0.61
0.625
0.665
0.7
0.735
0.765
0.78
0.79
0.8
0.84
0.895
0.895
0.9
0.92
0.945
0.98
1.015
1.03
1.035
1.03
1.04
1.06
1.055
1.04
0.995
0.95
0.905
0.865
0.82
0.77
0.7
0.625
0.565
0.5
0.46
0.4
0.34
0.27
0.225
0.19
0.18
0.14
0.095
0.065
0.045
0.02
0.015
0.0
-0.025
-0.04
-0.06
-0.045
-0.04
-0.07
-0.065
-0.085
-0.095
-0.09
-0.095
-0.09
-0.09
-0.11
-0.1
-0.11
-0.09
-0.085
-0.115
-0.115
-0.125
-0.115
-0.105
-0.115
-0.1
-0.115
-0.115
-0.11
-0.085
-0.095
-0.105
-0.11
-0.115
-0.105
-0.09
-0.095
-0.1
-0.11
-0.115
-0.1
-0.09
-0.095
-0.1
-0.11
-0.115
-0.1
-0.075
-0.085
-0.1
-0.11
-0.105
-0.095
-0.09
-0.1
-0.115
-0.125
-0.115
-0.105
-0.1
-0.11
-0.115
-0.135
-0.14
-0.125
-0.115
-0.125
-0.12
-0.145
-0.135
-0.13
-0.12
-0.135
-0.14
-0.15
-0.15
-0.15
-0.115
-0.115
-0.13
-0.155
-0.155
-0.15
-0.13
-0.13
-0.155
-0.16
-0.17
-0.15
-0.135
-0.15
-0.17
-0.175
-0.19
-0.16
-0.15
-0.16
-0.175
-0.19
-0.195
-0.16
-0.15
-0.155
-0.185
-0.17
-0.175
-0.16
-0.165
-0.155
-0.18
-0.18
-0.195
-0.175
-0.165
-0.175
-0.18
-0.185
-0.195
-0.17
-0.15
-0.16
-0.175
-0.195
-0.19
-0.175
-0.16
-0.17
-0.175
-0.195
-0.2
-0.175
-0.17
-0.17
-0.175
-0.19
-0.19
-0.175
-0.165
-0.165
-0.18
-0.195
-0.195
-0.185
-0.17
-0.17
-0.19
-0.2
-0.185
-0.195
-0.16
-0.175
-0.2
-0.185
-0.18
-0.17
-0.165
-0.17
-0.18
-0.19
-0.18
-0.165
-0.165
-0.165
-0.18
-0.185
-0.185
-0.17
-0.16
-0.14
-0.155
-0.16
-0.15
-0.125
-0.12
-0.12
-0.14
-0.155
-0.135
-0.105
-0.095
-0.105
-0.11
-0.135
-0.125
-0.12
-0.115
-0.13
-0.16
-0.18
-0.19
-0.195
-0.185
-0.19
-0.21
-0.21
-0.21
-0.195
-0.18
-0.18
-0.2
-0.195
-0.2
-0.195
-0.175
-0.19
-0.18
-0.2
-0.21
-0.195
-0.17
-0.17
-0.175
-0.21
-0.24
-0.27
-0.29
-0.31
-0.3
-0.215
0.005
0.395
0.895
1.38
1.76
2.005
2.08
1.965
1.575
0.935
0.295
-0.345
-0.59
-0.45
-0.345
-0.345
-0.385
-0.405
-0.395
-0.355
-0.295
-0.24
-0.21
-0.18
-0.165
-0.155
-0.15
-0.155
-0.155
-0.16
-0.16
-0.16
-0.15
-0.135
-0.16
-0.15
-0.15
-0.13
-0.13
-0.11
-0.12
-0.12
-0.135
-0.12
-0.115
-0.11
-0.105
-0.115
-0.115
-0.105
-0.08
-0.085
-0.1
-0.1
-0.1
-0.095
-0.075
-0.085
-0.09
-0.1
-0.09
-0.075
-0.055
-0.05
-0.06
-0.075
-0.05
-0.045
-0.025
-0.03
-0.02
-0.03
-0.035
-0.005
0.01
0.02
0.02
0.015
0.03
0.035
0.06
0.075
0.06
0.065
0.065
0.075
0.105
0.13
0.125
0.135
0.155
0.175
0.225
0.24
0.24
0.255
0.275
0.3
0.345
0.365
0.36
0.395
0.415
0.445
0.495
0.52
0.54
0.545
0.585
0.615
0.655
0.675
0.685
0.705
0.725
0.745
0.79
0.805
0.795
0.8
0.78
0.8
0.785
0.75
0.7
0.645
0.6
0.555
0.505
0.425
0.36
0.29
0.215
0.17
0.125
0.06
-0.005
-0.065
-0.1
-0.13
-0.15
-0.17
-0.21
-0.25
-0.27
-0.285
-0.27
-0.295
-0.32
-0.345
-0.34
-0.34
-0.335
-0.345
-0.36
-0.38
-0.38
-0.37
-0.345
-0.355
-0.37
-0.39
-0.38
-0.365
-0.35
-0.36
-0.385
-0.39
-0.395
-0.37
-0.365
-0.365
-0.375
-0.4
-0.39
-0.375
-0.37
-0.365
-0.37
-0.4
-0.405
-0.37
-0.36
-0.355
-0.39
-0.395
-0.375
-0.36
-0.35
-0.345
-0.365
-0.375
-0.375
-0.35
-0.35
-0.35
-0.37
-0.38
-0.385
-0.375
-0.36
-0.37
-0.405
-0.385
-0.4
-0.38
-0.365
-0.37
-0.415
-0.405
-0.41
-0.395
-0.39
-0.38
-0.39
-0.415
-0.42
-0.4
-0.375
-0.4
-0.4
-0.41
-0.41
-0.405
-0.4
-0.41
-0.405
-0.43
-0.425
-0.425
-0.41
-0.4
-0.425
-0.425
-0.43
-0.41
-0.405
-0.415
-0.42
-0.435
-0.43
-0.42
-0.42
-0.415
-0.42
-0.435
-0.435
-0.43
-0.41
-0.41
-0.425
-0.445
-0.43
-0.425
-0.41
-0.43
-0.43
-0.44
-0.435
-0.425
-0.405
-0.415
-0.425
-0.435
-0.435
-0.425
-0.395
-0.405
-0.415
-0.425
-0.43
-0.4
-0.385
-0.38
-0.38
-0.385
-0.37
-0.35
-0.335
-0.33
-0.34
-0.35
-0.355
-0.315
-0.295
-0.295
-0.32
-0.335
-0.335
-0.34
-0.345
-0.365
-0.365
-0.395
-0.405
-0.41
-0.39
-0.395
-0.42
-0.42
-0.42
-0.405
-0.385
-0.41
-0.415
-0.415
-0.425
-0.405
-0.405
-0.4
-0.4
-0.415
-0.41
-0.405
-0.38
-0.375
-0.375
-0.39
-0.385
-0.39
-0.39
-0.43
-0.48
-0.53
-0.52
-0.47
-0.36
-0.14
0.21
0.685
1.17
1.605
1.875
1.96
1.82
1.385
0.745
0.105
-0.535
-0.73
-0.625
-0.56
-0.55
-0.555
-0.565
-0.535
-0.515
-0.47
-0.415
-0.355
-0.325
-0.33
-0.355
-0.355
-0.365
-0.325
-0.33
-0.315
-0.325
-0.355
-0.34
-0.325
-0.32
-0.29
-0.32
-0.33
-0.335
-0.32
-0.285
-0.29
-0.3
-0.315
-0.305
-0.3
-0.28
-0.265
-0.28
-0.295
-0.29
-0.27
-0.255
-0.26
-0.29
-0.285
-0.275
-0.26
-0.245
-0.245
-0.265
-0.285
-0.255
-0.225
-0.215
-0.22
-0.23
-0.23
-0.225
-0.2
-0.185
-0.18
-0.185
-0.185
-0.175
-0.135
-0.12
-0.12
-0.125
-0.125
-0.105
-0.07
-0.05
-0.045
-0.045
-0.035
-0.025
0.01
0.05
0.06
0.06
0.07
0.105
0.14
0.17
0.2
0.205
0.235
0.26
0.31
0.34
0.375
0.395
0.415
0.45
0.485
0.51
0.555
0.58
0.58
0.63
0.665
0.695
0.71
0.71
0.705
0.7
0.72
0.7
0.675
0.63
0.58
0.515
0.47
0.43
0.365
0.29
0.205
0.145
0.08
0.03
-0.025
-0.115
-0.155
-0.205
-0.24
-0.255
-0.295
-0.325
-0.365
-0.375
-0.395
-0.39
-0.42
-0.44
-0.47
-0.47
-0.47
-0.46
-0.45
-0.47
-0.48
-0.48
-0.48
-0.46
-0.47
-0.49
-0.5
-0.5
-0.485
-0.485
-0.485
-0.485
-0.5
-0.49
-0.49
-0.465
-0.48
-0.485
-0.5
-0.5
-0.485
-0.48
-0.475
-0.485
-0.495
-0.485
-0.475
-0.465
-0.46
-0.475
-0.48
-0.475
-0.47
-0.45
-0.465
-0.48
-0.495
-0.485
-0.48
-0.475
-0.49
-0.49
-0.515
-0.495
-0.51
-0.5
-0.485
-0.49
-0.51
-0.51
-0.495
-0.495
-0.485
-0.505
-0.505
-0.52
-0.52
-0.49
-0.49
-0.51
-0.52
-0.525
-0.52
-0.505
-0.51
-0.52
-0.53
-0.515
-0.51
-0.505
-0.51
-0.525
-0.53
-0.525
-0.52
-0.51
-0.5
-0.51
-0.52
-0.52
-0.505
-0.495
-0.52
-0.52
-0.515
-0.515
-0.495
-0.505
-0.495
-0.505
-0.51
-0.515
-0.515
-0.505
-0.5
-0.5
-0.52
-0.51
-0.51
-0.49
-0.49
-0.52
-0.52
-0.51
-0.495
-0.49
-0.485
-0.495
-0.505
-0.51
-0.495
-0.485
-0.49
-0.49
-0.51
-0.495
-0.475
-0.47
-0.47
-0.485
-0.495
-0.495
-0.475
-0.465
-0.465
-0.48
-0.465
-0.46
-0.435
-0.41
-0.405
-0.425
-0.425
-0.425
-0.41
-0.39
-0.38
-0.385
-0.395
-0.41
-0.39
-0.375
-0.39
-0.41
-0.41
-0.415
-0.41
-0.41
-0.43
-0.45
-0.465
-0.47
-0.46
-0.44
-0.465
-0.45
-0.465
-0.465
-0.45
-0.42
-0.425
-0.445
-0.46
-0.44
-0.43
-0.42
-0.435
-0.445
-0.46
-0.435
-0.415
-0.395
-0.4
-0.415
-0.44
-0.445
-0.46
-0.48
-0.525
-0.535
-0.53
-0.47
-0.31
-0.035
0.35
0.775
1.195
1.565
1.845
1.955
1.9
1.64
1.065
0.425
-0.215
-0.725
-0.72
-0.62
-0.585
-0.57
-0.575
-0.555
-0.545
-0.545
-0.535
-0.49
-0.44
-0.38
-0.355
-0.365
-0.37
-0.38
-0.345
-0.34
-0.345
-0.355
-0.355
-0.355
-0.355
-0.34
-0.345
-0.35
-0.36
-0.345
-0.33
-0.34
-0.335
-0.345
-0.35
-0.35
-0.34
-0.315
-0.32
-0.335
-0.35
-0.325
-0.315
-0.29
-0.305
-0.31
-0.315
-0.32
-0.28
-0.27
-0.275
-0.29
-0.3
-0.295
-0.29
-0.265
-0.275
-0.295
-0.29
-0.275
-0.265
-0.265
-0.245
-0.25
-0.255
-0.26
-0.225
-0.21
-0.205
-0.225
-0.23
-0.205
-0.205
-0.175
-0.185
-0.175
-0.18
-0.165
-0.15
-0.135
-0.12
-0.135
-0.135
-0.125
-0.095
-0.075
-0.08
-0.065
-0.065
-0.065
-0.025
0.0
0.02
0.015
0.025
0.055
0.08
0.1
0.12
0.14
0.145
0.165
0.19
0.215
0.25
0.26
0.275
0.295
0.345
0.365
0.385
0.4
0.415
0.45
0.485
0.515
0.525
0.525
0.56
0.575
0.61
0.64
0.665
0.66
0.655
0.645
0.68
0.67
0.655
0.62
0.595
0.56
0.54
0.51
0.45
0.385
0.33
0.28
0.235
0.19
0.14
0.07
0.015
-0.02
-0.05
-0.09
-0.135
-0.185
-0.235
-0.26
-0.28
-0.305
-0.325
-0.36
-0.37
-0.39
-0.375
-0.39
-0.405
-0.425
-0.44
-0.445
-0.43
-0.435
-0.43
-0.465
-0.475
-0.46
-0.455
-0.465
-0.46
-0.475
-0.485
-0.48
-0.47
-0.465
-0.45
-0.475
-0.475
-0.47
-0.465
-0.45
-0.47
-0.485
-0.49
-0.48
-0.485
-0.45
-0.465
-0.47
-0.48
-0.475
-0.465
-0.455
-0.465
-0.47
-0.47
-0.465
-0.455
-0.435
-0.45
-0.46
-0.475
-0.47
-0.45
-0.435
-0.445
-0.45
-0.47
-0.455
-0.445
-0.435
-0.44
-0.455
-0.475
-0.47
-0.45
-0.45
-0.455
-0.47
-0.475
-0.47
-0.465
-0.455
-0.46
-0.48
-0.49
-0.485
-0.465
-0.475
-0.465
-0.495
-0.5
-0.495
-0.485
-0.47
-0.47
-0.495
-0.51
-0.505
-0.5
-0.475
-0.49
-0.505
-0.51
-0.505
-0.495
-0.49
-0.495
-0.5
-0.515
-0.515
-0.515
-0.505
-0.5
-0.51
-0.515
-0.515
-0.51
-0.5
-0.5
-0.51
-0.525
-0.52
-0.505
-0.5
-0.505
-0.52
-0.515
-0.51
-0.505
-0.505
-0.515
-0.51
-0.525
-0.525
-0.515
-0.515
-0.52
-0.525
-0.545
-0.525
-0.52
-0.52
-0.535
-0.545
-0.54
-0.525
-0.515
-0.52
-0.52
-0.52
-0.55
-0.53
-0.515
-0.515
-0.53
-0.555
-0.545
-0.54
-0.53
-0.52
-0.52
-0.53
-0.54
-0.53
-0.52
-0.53
-0.515
-0.53
-0.54
-0.535
-0.535
-0.51
-0.52
-0.535
-0.55
-0.545
-0.515
