Lead II
-0.25
-0.255
-0.26
-0.25
-0.225
-0.22
-0.225
-0.23
-0.23
-0.22
-0.22
-0.21
-0.235
-0.225
-0.245
-0.24
-0.25
-0.27
-0.28
-0.275
-0.275
-0.25
-0.24
-0.245
-0.275
-0.29
-0.31
-0.315
-0.305
-0.315
-0.34
-0.355
-0.355
-0.35
-0.345
-0.355
-0.37
-0.385
-0.39
-0.36
-0.365
-0.365
-0.37
-0.39
-0.38
-0.37
-0.37
-0.37
-0.39
-0.385
-0.385
-0.365
-0.35
-0.355
-0.37
-0.405
-0.44
-0.48
-0.505
-0.485
-0.44
-0.39
-0.29
-0.075
0.235
0.6
0.91
1.2
1.44
1.615
1.65
1.48
1.085
0.53
-0.02
-0.43
-0.62
-0.645
-0.625
-0.58
-0.51
-0.405
-0.335
-0.34
-0.365
-0.385
-0.4
-0.375
-0.36
-0.36
-0.39
-0.415
-0.415
-0.395
-0.385
-0.39
-0.41
-0.41
-0.41
-0.405
-0.395
-0.405
-0.43
-0.425
-0.42
-0.41
-0.4
-0.4
-0.41
-0.41
-0.425
-0.415
-0.395
-0.4
-0.4
-0.405
-0.41
-0.385
-0.385
-0.375
-0.385
-0.4
-0.41
-0.39
-0.37
-0.37
-0.37
-0.37
-0.375
-0.355
-0.36
-0.345
-0.35
-0.345
-0.335
-0.325
-0.305
-0.31
-0.295
-0.305
-0.305
-0.275
-0.255
-0.25
-0.23
-0.225
-0.215
-0.19
-0.165
-0.155
-0.155
-0.15
-0.13
-0.095
-0.07
-0.05
-0.04
-0.04
-0.03
-0.005
0.0
0.02
0.035
0.035
0.04
0.06
0.075
0.08
0.075
0.07
0.075
0.1
0.11
0.115
0.105
0.105
0.09
0.09
0.085
0.08
0.06
0.025
-0.005
-0.005
-0.025
-0.04
-0.075
-0.1
-0.135
-0.14
-0.15
-0.165
-0.19
-0.21
-0.23
-0.245
-0.25
-0.25
-0.255
-0.265
-0.28
-0.275
-0.265
-0.265
-0.28
-0.29
-0.29
-0.295
-0.285
-0.28
-0.285
-0.29
-0.305
-0.285
-0.275
-0.285
-0.285
-0.29
-0.305
-0.285
-0.275
-0.275
-0.275
-0.29
-0.285
-0.26
-0.265
-0.27
-0.27
-0.29
-0.275
-0.27
-0.26
-0.255
-0.26
-0.27
-0.265
-0.245
-0.24
-0.245
-0.25
-0.26
-0.265
-0.26
-0.25
-0.255
-0.255
-0.275
-0.275
-0.26
-0.25
-0.25
-0.255
-0.27
-0.28
-0.275
-0.26
-0.27
-0.29
-0.3
-0.295
-0.29
-0.285
-0.285
-0.28
-0.3
-0.315
-0.31
-0.305
-0.305
-0.31
-0.315
-0.32
-0.305
-0.305
-0.3
-0.32
-0.34
-0.34
-0.335
-0.33
-0.33
-0.335
-0.34
-0.35
-0.34
-0.325
-0.345
-0.34
-0.35
-0.365
-0.35
-0.335
-0.345
-0.36
-0.365
-0.365
-0.35
-0.345
-0.345
-0.355
-0.365
-0.375
-0.36
-0.345
-0.345
-0.36
-0.365
-0.375
-0.36
-0.35
-0.35
-0.365
-0.365
-0.385
-0.36
-0.35
-0.365
-0.36
-0.365
-0.365
-0.36
-0.335
-0.34
-0.33
-0.315
-0.31
-0.29
-0.265
-0.265
-0.285
-0.285
-0.28
-0.265
-0.25
-0.255
-0.275
-0.275
-0.27
-0.245
-0.245
-0.25
-0.27
-0.285
-0.3
-0.305
-0.32
-0.31
-0.31
-0.3
-0.305
-0.295
-0.285
-0.315
-0.335
-0.35
-0.355
-0.35
-0.35
-0.36
-0.38
-0.39
-0.395
-0.395
-0.385
-0.4
-0.395
-0.42
-0.42
-0.415
-0.395
-0.405
-0.405
-0.41
-0.425
-0.415
-0.405
-0.4
-0.405
-0.405
-0.415
-0.405
-0.38
-0.385
-0.405
-0.43
-0.47
-0.5
-0.51
-0.47
-0.44
-0.405
-0.315
-0.14
0.13
0.435
0.72
0.98
1.21
1.375
1.48
1.45
1.215
0.78
0.255
-0.19
-0.48
-0.62
-0.685
-0.68
-0.65
-0.555
-0.445
-0.395
-0.39
-0.405
-0.43
-0.415
-0.41
-0.39
-0.4
-0.42
-0.43
-0.44
-0.42
-0.425
-0.43
-0.435
-0.455
-0.44
-0.435
-0.44
-0.445
-0.455
-0.45
-0.44
-0.43
-0.435
-0.435
-0.45
-0.455
-0.45
-0.43
-0.43
-0.425
-0.44
-0.44
-0.445
-0.42
-0.425
-0.42
-0.435
-0.435
-0.42
-0.41
-0.4
-0.4
-0.405
-0.415
-0.4
-0.385
-0.37
-0.375
-0.39
-0.37
-0.35
-0.34
-0.33
-0.32
-0.315
-0.32
-0.29
-0.28
-0.265
-0.245
-0.245
-0.23
-0.205
-0.175
-0.16
-0.15
-0.14
-0.125
-0.105
-0.07
-0.055
-0.055
-0.05
-0.045
-0.025
-0.01
0.005
0.01
0.015
0.01
0.03
0.04
0.03
0.02
0.025
0.005
0.005
-0.015
-0.025
-0.04
-0.075
-0.09
-0.105
-0.12
-0.14
-0.17
-0.2
-0.225
-0.23
-0.235
-0.235
-0.26
-0.265
-0.28
-0.285
-0.275
-0.295
-0.31
-0.305
-0.315
-0.31
-0.3
-0.305
-0.305
-0.32
-0.315
-0.315
-0.305
-0.31
-0.31
-0.32
-0.32
-0.315
-0.3
-0.32
-0.315
-0.31
-0.315
-0.3
-0.285
-0.285
-0.29
-0.285
-0.3
-0.29
-0.26
-0.265
-0.265
-0.265
-0.27
-0.265
-0.255
-0.26
-0.255
-0.255
-0.26
-0.245
-0.25
-0.25
-0.26
-0.265
-0.265
-0.25
-0.25
-0.245
-0.255
-0.26
-0.265
-0.26
-0.245
-0.265
-0.27
-0.28
-0.275
-0.275
-0.275
-0.28
-0.28
-0.29
-0.295
-0.285
-0.28
-0.295
-0.3
-0.305
-0.325
-0.31
-0.3
-0.305
-0.315
-0.315
-0.325
-0.315
-0.315
-0.315
-0.315
-0.33
-0.33
-0.325
-0.32
-0.33
-0.33
-0.34
-0.345
-0.33
-0.325
-0.33
-0.335
-0.34
-0.35
-0.34
-0.33
-0.34
-0.335
-0.335
-0.35
-0.335
-0.33
-0.33
-0.34
-0.345
-0.355
-0.345
-0.335
-0.325
-0.325
-0.34
-0.34
-0.33
-0.32
-0.325
-0.325
-0.335
-0.335
-0.335
-0.305
-0.31
-0.3
-0.3
-0.305
-0.285
-0.265
-0.245
-0.24
-0.26
-0.25
-0.23
-0.215
-0.2
-0.205
-0.22
-0.23
-0.23
-0.205
-0.2
-0.195
-0.22
-0.23
-0.24
-0.245
-0.24
-0.275
-0.265
-0.265
-0.245
-0.22
-0.225
-0.25
-0.26
-0.285
-0.28
-0.275
-0.29
-0.31
-0.315
-0.335
-0.33
-0.32
-0.335
-0.345
-0.355
-0.355
-0.345
-0.335
-0.335
-0.345
-0.355
-0.355
-0.355
-0.345
-0.345
-0.34
-0.36
-0.37
-0.345
-0.335
-0.335
-0.34
-0.36
-0.38
-0.42
-0.47
-0.475
-0.435
-0.385
-0.31
-0.155
0.09
0.42
0.735
1.04
1.305
1.52
1.615
1.535
1.25
0.75
0.16
-0.305
-0.56
-0.61
-0.605
-0.565
-0.485
-0.38
-0.305
-0.295
-0.33
-0.345
-0.36
-0.33
-0.315
-0.32
-0.33
-0.355
-0.37
-0.36
-0.355
-0.36
-0.375
-0.395
-0.38
-0.37
-0.355
-0.36
-0.37
-0.38
-0.375
-0.355
-0.35
-0.345
-0.355
-0.36
-0.365
-0.355
-0.35
-0.345
-0.355
-0.35
-0.36
-0.335
-0.335
-0.34
-0.345
-0.35
-0.345
-0.335
-0.315
-0.315
-0.305
-0.305
-0.31
-0.295
-0.285
-0.275
-0.27
-0.265
-0.255
-0.235
-0.21
-0.205
-0.205
-0.19
-0.185
-0.155
-0.14
-0.115
-0.1
-0.09
-0.07
-0.05
-0.02
-0.005
0.005
0.015
0.025
0.045
0.065
0.08
0.08
0.095
0.105
0.115
0.135
0.14
0.155
0.145
0.14
0.145
0.165
0.155
0.15
0.135
0.125
0.115
0.12
0.1
0.075
0.045
0.02
0.025
0.01
-0.015
-0.045
-0.06
-0.085
-0.1
-0.1
-0.125
-0.135
-0.155
-0.16
-0.17
-0.18
-0.185
-0.195
-0.205
-0.215
-0.22
-0.21
-0.21
-0.205
-0.225
-0.245
-0.235
-0.21
-0.22
-0.22
-0.235
-0.23
-0.225
-0.22
-0.215
-0.225
-0.22
-0.225
-0.225
-0.21
-0.205
-0.205
-0.205
-0.205
-0.21
-0.185
-0.195
-0.195
-0.195
-0.195
-0.19
-0.19
-0.18
-0.185
-0.19
-0.185
-0.18
-0.165
-0.165
-0.17
-0.185
-0.185
-0.175
-0.175
-0.17
-0.175
-0.18
-0.2
-0.185
-0.18
-0.18
-0.185
-0.185
-0.2
-0.195
-0.185
-0.185
-0.2
-0.2
-0.215
-0.22
-0.205
-0.215
-0.205
-0.22
-0.225
-0.215
-0.21
-0.215
-0.23
-0.245
-0.235
-0.23
-0.225
-0.24
-0.24
-0.25
-0.26
-0.255
-0.235
-0.24
-0.245
-0.25
-0.26
-0.26
-0.245
-0.26
-0.26
-0.27
-0.265
-0.26
-0.255
-0.25
-0.26
-0.265
-0.275
-0.265
-0.25
-0.245
-0.26
-0.28
-0.28
-0.27
-0.265
-0.27
-0.27
-0.265
-0.27
-0.27
-0.265
-0.255
-0.245
-0.25
-0.24
-0.23
-0.215
-0.195
-0.2
-0.195
-0.2
-0.19
-0.175
-0.175
-0.155
-0.18
-0.17
-0.17
-0.17
-0.165
-0.165
-0.175
-0.18
-0.185
-0.175
-0.185
-0.19
-0.225
-0.23
-0.23
-0.205
-0.205
-0.2
-0.205
-0.23
-0.23
-0.23
-0.24
-0.24
-0.275
-0.285
-0.285
-0.285
-0.29
-0.3
-0.32
-0.32
-0.315
-0.305
-0.305
-0.31
-0.325
-0.325
-0.325
-0.32
-0.315
-0.32
-0.335
-0.33
-0.32
-0.305
-0.31
-0.325
-0.33
-0.355
-0.4
-0.435
-0.445
-0.425
-0.38
-0.3
-0.155
0.095
0.46
0.825
1.155
1.445
1.64
1.68
1.485
0.995
0.355
-0.245
-0.57
-0.625
-0.555
-0.495
-0.42
-0.36
-0.285
-0.28
-0.295
-0.32
-0.32
-0.32
-0.31
-0.31
-0.32
-0.345
-0.355
-0.36
-0.35
-0.33
-0.345
-0.35
-0.36
-0.36
-0.355
-0.355
-0.35
-0.355
-0.365
-0.365
-0.35
-0.345
-0.35
-0.345
-0.355
-0.355
-0.345
-0.34
-0.335
-0.345
-0.35
-0.36
-0.345
-0.335
-0.32
-0.33
-0.315
-0.32
-0.31
-0.305
-0.29
-0.28
-0.285
-0.295
-0.27
-0.24
-0.23
-0.24
-0.23
-0.225
-0.205
-0.18
-0.165
-0.165
-0.145
-0.14
-0.11
-0.09
-0.065
-0.05
-0.04
-0.055
-0.01
0.01
0.03
0.04
0.055
0.065
0.07
0.1
0.11
0.125
0.125
0.13
0.145
0.18
0.17
0.175
0.165
0.165
0.16
0.165
0.14
0.13
0.11
0.08
0.095
0.07
0.04
0.01
-0.01
-0.045
-0.055
-0.065
-0.085
-0.115
-0.135
-0.16
-0.155
-0.155
-0.17
-0.185
-0.2
-0.215
-0.205
-0.195
-0.205
-0.225
-0.23
-0.22
-0.22
-0.21
-0.23
-0.225
-0.23
-0.22
-0.23
-0.215
-0.22
-0.225
-0.23
-0.23
-0.22
-0.22
-0.21
-0.225
-0.225
-0.22
-0.21
-0.205
-0.2
-0.205
-0.2
-0.21
-0.2
-0.195
-0.19
-0.19
-0.2
-0.195
-0.19
-0.18
-0.19
-0.205
-0.21
-0.205
-0.19
-0.18
-0.175
-0.18
-0.19
-0.195
-0.18
-0.17
-0.18
-0.185
-0.2
-0.2
-0.195
-0.19
-0.205
-0.2
-0.22
-0.23
-0.22
-0.22
-0.225
-0.235
-0.245
-0.25
-0.255
-0.225
-0.24
-0.245
-0.255
-0.27
-0.26
-0.265
-0.255
-0.265
-0.27
-0.275
-0.27
-0.275
-0.265
-0.275
-0.3
-0.305
-0.295
-0.29
-0.29
-0.29
-0.29
-0.295
-0.295
-0.275
-0.275
-0.3
-0.305
-0.31
-0.3
-0.285
-0.28
-0.295
-0.31
-0.32
-0.295
-0.3
-0.305
-0.3
-0.3
-0.325
-0.305
-0.295
-0.29
-0.305
-0.3
-0.305
-0.275
-0.255
-0.255
-0.245
-0.24
-0.245
-0.225
-0.215
-0.215
-0.22
-0.22
-0.215
-0.21
-0.2
-0.2
-0.195
-0.2
-0.21
-0.21
-0.21
-0.22
-0.25
-0.275
-0.285
-0.27
-0.25
-0.245
-0.235
-0.26
-0.275
-0.28
-0.285
-0.3
-0.305
-0.315
-0.34
-0.33
-0.325
-0.35
-0.365
-0.37
-0.37
-0.36
-0.35
-0.355
-0.355
-0.38
-0.375
-0.375
-0.365
-0.365
-0.365
-0.375
-0.375
-0.365
-0.345
-0.355
-0.38
-0.41
-0.475
-0.495
-0.465
-0.41
-0.355
-0.24
0.0
0.345
0.715
1.04
1.325
1.525
1.59
1.47
1.075
0.46
-0.125
-0.525
-0.68
-0.64
-0.585
-0.525
-0.43
-0.36
-0.335
-0.34
-0.36
-0.365
-0.355
-0.355
-0.37
-0.37
-0.375
-0.385
-0.385
-0.395
-0.4
-0.385
-0.38
-0.38
-0.4
-0.405
-0.41
-0.41
-0.4
-0.41
-0.4
-0.4
-0.41
-0.405
-0.39
-0.395
-0.4
-0.41
-0.405
-0.395
-0.385
-0.375
-0.375
-0.385
-0.385
-0.385
-0.365
-0.37
-0.36
-0.365
-0.365
-0.345
-0.33
-0.345
-0.335
-0.34
-0.335
-0.305
-0.29
-0.275
-0.27
-0.265
-0.25
-0.23
-0.21
-0.2
-0.185
-0.17
-0.155
-0.135
-0.115
-0.09
-0.085
-0.075
-0.06
-0.035
-0.015
0.0
0.015
0.025
0.025
0.045
0.065
0.075
0.075
0.09
0.1
0.11
0.115
0.115
0.115
0.105
0.085
0.085
0.09
0.065
0.035
0.02
-0.005
-0.015
-0.03
-0.05
-0.085
-0.115
-0.145
-0.155
-0.175
-0.18
-0.2
-0.225
-0.225
-0.24
-0.235
-0.24
-0.25
-0.27
-0.27
-0.265
-0.27
-0.27
-0.295
-0.29
-0.285
-0.27
-0.26
-0.26
-0.265
-0.275
-0.285
-0.27
-0.275
-0.265
-0.27
-0.275
-0.275
-0.27
-0.25
-0.26
-0.265
-0.28
-0.265
-0.26
-0.245
-0.245
-0.25
-0.25
-0.255
-0.245
-0.24
-0.23
-0.24
-0.245
-0.255
-0.23
-0.21
-0.225
-0.23
-0.25
-0.25
-0.245
-0.23
-0.225
-0.24
-0.245
-0.255
-0.245
-0.22
-0.225
-0.245
-0.25
-0.255
-0.245
-0.235
-0.235
-0.255
-0.26
-0.26
-0.265
-0.265
-0.26
-0.275
-0.275
-0.275
-0.265
-0.255
-0.265
-0.28
-0.295
-0.29
-0.285
-0.275
-0.275
-0.29
-0.305
-0.31
-0.295
-0.29
-0.295
-0.315
-0.32
-0.32
-0.315
-0.305
-0.31
-0.32
-0.32
-0.33
-0.315
-0.305
-0.305
-0.315
-0.33
-0.34
-0.31
-0.31
-0.31
-0.32
-0.33
-0.335
-0.32
-0.325
-0.32
-0.325
-0.335
-0.33
-0.325
-0.31
-0.31
-0.32
-0.32
-0.32
-0.3
-0.27
-0.265
-0.265
-0.255
-0.265
-0.245
-0.225
-0.235
-0.23
-0.225
-0.22
-0.225
-0.21
-0.215
-0.205
-0.225
-0.22
-0.22
-0.22
-0.24
-0.255
-0.285
-0.29
-0.285
-0.255
-0.24
-0.25
-0.27
-0.295
-0.295
-0.29
-0.29
-0.31
-0.32
-0.34
-0.335
-0.335
-0.335
-0.345
-0.37
-0.385
-0.36
-0.355
-0.36
-0.36
-0.36
-0.365
-0.36
-0.355
-0.36
-0.365
-0.37
-0.38
-0.375
-0.36
-0.35
-0.36
-0.375
-0.38
-0.37
-0.37
-0.4
-0.46
-0.475
-0.485
-0.425
-0.36
-0.295
-0.165
0.075
0.37
0.68
0.955
1.195
1.4
1.5
1.48
1.285
0.91
0.435
0.015
-0.315
-0.515
-0.6
-0.615
-0.6
-0.54
-0.46
-0.375
-0.32
-0.325
-0.34
-0.35
-0.365
-0.36
-0.36
-0.35
-0.355
-0.375
-0.39
-0.395
-0.39
-0.39
-0.39
-0.38
-0.385
-0.395
-0.385
-0.385
-0.375
-0.37
-0.39
-0.39
-0.39
-0.38
-0.375
-0.395
-0.4
-0.39
-0.38
-0.38
-0.38
-0.4
-0.395
-0.4
-0.39
-0.37
-0.375
-0.375
-0.385
-0.375
-0.355
-0.36
-0.36
-0.355
-0.36
-0.355
-0.335
-0.325
-0.33
-0.33
-0.34
-0.34
-0.315
-0.3
-0.295
-0.295
-0.295
-0.295
-0.26
-0.24
-0.225
-0.22
-0.215
-0.205
-0.185
-0.16
-0.15
-0.155
-0.135
-0.115
-0.095
-0.07
-0.06
-0.045
-0.045
-0.04
-0.005
0.01
0.02
0.03
0.015
0.035
0.065
0.06
0.07
0.08
0.085
0.085
0.1
0.11
0.105
0.105
0.09
0.07
0.08
0.07
0.065
0.05
0.03
0.01
0.005
-0.005
-0.02
-0.045
-0.075
-0.095
-0.1
-0.11
-0.13
-0.15
-0.165
-0.185
-0.185
-0.18
-0.195
-0.21
-0.205
-0.23
-0.235
-0.225
-0.23
-0.245
-0.255
-0.255
-0.24
-0.225
-0.24
-0.25
-0.245
-0.255
-0.245
-0.24
-0.25
-0.24
-0.25
-0.255
-0.225
-0.235
-0.24
-0.24
-0.25
-0.245
-0.22
-0.22
-0.22
-0.205
-0.225
-0.23
-0.215
-0.215
-0.2
-0.205
-0.21
-0.22
-0.21
-0.205
-0.195
-0.195
-0.205
-0.2
-0.205
-0.18
-0.18
-0.19
-0.195
-0.205
-0.19
-0.18
-0.18
-0.185
-0.185
-0.2
-0.185
-0.175
-0.175
-0.185
-0.185
-0.19
-0.18
-0.18
-0.195
-0.195
-0.2
-0.215
-0.21
-0.185
-0.2
-0.195
-0.2
-0.21
-0.21
-0.195
-0.21
-0.215
-0.225
-0.22
-0.215
-0.205
-0.225
-0.23
-0.24
-0.245
-0.235
-0.23
-0.24
-0.24
-0.255
-0.265
-0.25
-0.23
-0.25
-0.26
-0.26
-0.265
-0.26
-0.245
-0.255
-0.25
-0.27
-0.27
-0.255
-0.24
-0.26
-0.265
-0.26
-0.27
-0.25
-0.245
-0.25
-0.265
-0.27
-0.275
-0.255
-0.245
-0.245
-0.265
-0.255
-0.255
-0.265
-0.235
-0.22
-0.23
-0.215
-0.2
-0.18
-0.16
-0.165
-0.18
-0.19
-0.185
-0.165
-0.14
-0.135
-0.15
-0.165
-0.16
-0.155
-0.135
-0.14
-0.15
-0.165
-0.165
-0.165
-0.175
-0.185
-0.2
-0.215
-0.195
-0.17
-0.16
-0.175
-0.195
-0.21
-0.225
-0.225
-0.22
-0.235
-0.26
-0.28
-0.285
-0.27
-0.26
-0.26
-0.295
-0.305
-0.295
-0.295
-0.305
-0.295
-0.3
-0.305
-0.31
-0.295
-0.295
-0.285
-0.305
-0.305
-0.305
-0.3
-0.29
-0.285
-0.305
-0.325
-0.35
-0.39
-0.425
-0.43
-0.405
-0.35
-0.295
-0.16
0.07
0.38
0.68
0.985
1.265
1.51
1.65
1.65
1.465
1.065
0.495
-0.015
-0.36
-0.525
-0.575
-0.545
-0.485
-0.39
-0.295
-0.245
-0.255
-0.28
-0.29
-0.295
-0.27
-0.275
-0.275
-0.29
-0.315
-0.32
-0.31
-0.31
-0.315
-0.33
-0.33
-0.325
-0.315
-0.325
-0.33
-0.335
-0.34
-0.325
-0.325
-0.325
-0.315
-0.33
-0.335
-0.33
-0.325
-0.33
-0.33
-0.335
-0.34
-0.33
-0.325
-0.31
-0.315
-0.325
-0.325
-0.32
-0.3
-0.305
-0.305
-0.305
-0.31
-0.3
-0.285
-0.28
-0.275
-0.275
-0.275
-0.25
-0.24
-0.23
-0.225
-0.22
-0.21
-0.2
-0.17
-0.16
-0.155
-0.145
-0.145
-0.11
-0.09
-0.08
-0.055
-0.045
-0.035
-0.01
0.02
0.04
0.04
0.045
0.055
0.08
0.105
0.12
0.13
0.14
0.13
0.165
0.17
0.17
0.19
0.18
0.18
0.195
0.195
0.195
0.19
0.17
0.165
0.155
0.155
0.135
0.105
0.09
0.065
0.055
0.045
0.025
-0.005
-0.025
-0.04
-0.06
-0.075
-0.09
-0.115
-0.125
-0.145
-0.14
-0.15
-0.165
-0.18
-0.195
-0.185
-0.19
-0.18
-0.185
-0.195
-0.21
-0.22
-0.21
-0.195
-0.21
-0.2
-0.225
-0.21
-0.215
-0.205
-0.21
-0.205
-0.215
-0.21
-0.21
-0.2
-0.2
-0.205
-0.205
-0.19
-0.185
-0.175
-0.185
-0.185
-0.195
-0.195
-0.185
-0.165
-0.16
-0.175
-0.18
-0.18
-0.165
-0.165
-0.17
-0.17
-0.185
-0.19
-0.18
-0.155
-0.155
-0.185
-0.185
-0.18
-0.17
-0.155
-0.165
-0.17
-0.18
-0.185
-0.165
-0.165
-0.165
-0.175
-0.185
-0.195
-0.18
-0.165
-0.175
-0.19
-0.19
-0.19
-0.19
-0.19
-0.18
-0.195
-0.21
-0.225
-0.21
-0.2
-0.205
-0.225
-0.225
-0.24
-0.24
-0.22
-0.22
-0.235
-0.245
-0.25
-0.25
-0.235
-0.245
-0.25
-0.26
-0.255
-0.25
-0.24
-0.245
-0.255
-0.265
-0.265
-0.25
-0.24
-0.24
-0.26
-0.275
-0.27
-0.265
-0.24
-0.255
-0.27
-0.28
-0.275
-0.27
-0.25
-0.26
-0.26
-0.265
-0.275
-0.265
-0.26
-0.245
-0.24
-0.235
-0.235
-0.2
-0.185
-0.185
-0.185
-0.185
-0.185
-0.17
-0.155
-0.15
-0.155
-0.155
-0.165
-0.16
-0.135
-0.14
-0.145
-0.16
-0.175
-0.18
-0.19
-0.205
-0.215
-0.21
-0.21
-0.18
-0.185
-0.195
-0.235
-0.245
-0.25
-0.26
-0.25
-0.27
-0.27
-0.295
-0.295
-0.3
-0.29
-0.3
-0.315
-0.32
-0.31
-0.3
-0.305
-0.31
-0.325
-0.32
-0.325
-0.315
-0.315
-0.3
-0.315
-0.325
-0.325
-0.33
-0.31
-0.35
-0.415
-0.465
-0.485
-0.435
-0.38
-0.31
-0.185
0.05
0.425
0.805
1.17
1.475
1.695
1.75
1.595
1.16
0.52
-0.115
-0.51
-0.63
-0.58
-0.49
-0.4
-0.315
-0.265
-0.275
-0.305
-0.305
-0.295
-0.3
-0.31
-0.325
-0.35
-0.35
-0.335
-0.33
-0.335
-0.355
-0.355
-0.355
-0.345
-0.345
-0.355
-0.36
-0.365
-0.345
-0.33
-0.34
-0.345
-0.355
-0.35
-0.345
-0.325
-0.325
-0.345
-0.34
-0.345
-0.325
-0.325
-0.315
-0.32
-0.33
-0.325
-0.31
-0.3
-0.3
-0.305
-0.315
-0.295
-0.28
-0.265
-0.26
-0.275
-0.265
-0.25
-0.24
-0.22
-0.21
-0.205
-0.2
-0.195
-0.175
-0.135
-0.135
-0.125
-0.125
-0.105
-0.07
-0.045
-0.03
-0.03
-0.02
0.01
0.025
0.05
0.06
0.07
0.08
0.09
0.115
0.14
0.145
0.135
0.135
0.145
0.17
0.19
0.195
0.19
0.18
0.175
0.17
0.185
0.17
0.14
0.135
0.125
0.11
0.1
0.095
0.05
0.015
-0.015
-0.015
-0.015
-0.035
-0.075
-0.1
-0.13
-0.13
-0.11
-0.135
-0.16
-0.18
-0.19
-0.17
-0.18
-0.18
-0.195
-0.22
-0.215
-0.205
-0.205
-0.2
-0.21
-0.22
-0.215
-0.23
-0.22
-0.215
-0.215
-0.22
-0.22
-0.22
-0.195
-0.2
-0.205
-0.21
-0.215
-0.21
-0.195
-0.195
-0.195
-0.215
-0.21
-0.205
-0.175
-0.175
-0.18
-0.19
-0.19
-0.175
-0.17
-0.165
-0.17
-0.19
-0.19
-0.18
-0.165
-0.165
-0.17
-0.185
-0.195
-0.18
-0.165
-0.16
-0.175
-0.195
-0.195
-0.175
-0.17
-0.18
-0.195
-0.2
-0.205
-0.2
-0.195
-0.2
-0.22
-0.21
-0.22
-0.205
-0.2
-0.215
-0.23
-0.23
-0.24
-0.23
-0.225
-0.23
-0.245
-0.27
-0.25
-0.26
-0.25
-0.26
-0.275
-0.275
-0.28
-0.27
-0.265
-0.275
-0.27
-0.285
-0.29
-0.28
-0.265
-0.27
-0.275
-0.295
-0.285
-0.28
-0.28
-0.29
-0.29
-0.29
-0.28
-0.29
-0.275
-0.285
-0.295
-0.3
-0.3
-0.285
-0.28
-0.28
-0.28
-0.295
-0.295
-0.275
-0.28
-0.25
-0.25
-0.24
-0.23
-0.215
-0.215
-0.215
-0.2
-0.215
-0.205
-0.195
-0.17
-0.18
-0.2
-0.205
-0.205
-0.2
-0.19
-0.19
-0.21
-0.235
-0.25
-0.245
-0.245
-0.225
-0.235
-0.24
-0.24
-0.24
-0.24
-0.255
-0.265
-0.29
-0.295
-0.3
-0.285
-0.295
-0.31
-0.325
-0.33
-0.34
-0.34
-0.335
-0.33
-0.345
-0.35
-0.35
-0.335
-0.33
-0.345
-0.345
-0.34
-0.34
-0.33
-0.325
-0.345
-0.34
-0.345
-0.345
-0.35
-0.37
-0.41
-0.46
-0.495
-0.455
-0.395
-0.335
-0.235
-0.03
0.295
0.635
0.955
1.23
1.465
1.615
1.625
1.425
1.0
0.395
-0.145
-0.505
-0.625
-0.62
-0.56
-0.5
-0.415
-0.34
-0.31
-0.31
-0.325
-0.33
-0.33
-0.33
-0.34
-0.345
-0.33
-0.335
-0.36
-0.36
-0.375
-0.365
-0.36
-0.355
-0.37
-0.375
-0.39
-0.385
-0.38
-0.38
-0.375
-0.385
-0.385
-0.38
-0.37
-0.365
-0.375
-0.39
-0.385
-0.37
-0.36
-0.355
-0.365
-0.375
-0.37
-0.365
-0.34
-0.34
-0.345
-0.345
-0.355
-0.335
-0.35
-0.35
-0.345
-0.335
-0.34
-0.315
-0.295
-0.285
-0.305
-0.295
-0.285
-0.28
-0.255
-0.255
-0.245
-0.25
-0.23
-0.2
-0.185
-0.165
-0.17
-0.16
-0.14
-0.125
-0.09
-0.07
-0.07
-0.055
-0.04
-0.02
0.005
0.01
0.015
0.03
0.03
0.06
0.075
0.09
0.075
0.095
0.095
0.105
0.13
0.125
0.12
0.115
0.095
0.105
0.1
0.09
0.085
0.065
0.045
0.03
0.025
0.01
-0.025
-0.055
-0.08
-0.09
-0.115
-0.13
-0.14
-0.17
-0.175
-0.19
-0.18
-0.19
-0.195
-0.225
-0.23
-0.23
-0.22
-0.225
-0.24
-0.255
-0.255
-0.245
-0.235
-0.225
-0.24
-0.24
-0.25
-0.25
-0.235
-0.235
-0.235
-0.245
-0.245
-0.24
-0.215
-0.22
-0.23
-0.245
-0.23
-0.22
-0.215
-0.215
-0.225
-0.22
-0.245
-0.215
-0.21
-0.2
-0.205
-0.215
-0.2
-0.205
-0.2
-0.205
-0.2
-0.205
-0.21
-0.215
-0.21
-0.215
-0.22
-0.23
-0.225
-0.225
-0.215
-0.21
-0.23
-0.25
-0.25
-0.245
-0.225
-0.235
-0.245
-0.26
-0.265
-0.25
-0.24
-0.25
-0.27
-0.265
-0.27
-0.26
-0.255
-0.265
-0.275
-0.285
-0.29
-0.285
-0.27
-0.275
-0.29
-0.31
-0.295
-0.285
-0.285
-0.295
-0.305
-0.315
-0.305
-0.285
-0.285
-0.3
-0.31
-0.32
-0.315
-0.3
-0.3
-0.29
-0.3
-0.32
-0.315
-0.305
-0.31
-0.31
-0.31
-0.315
-0.315
-0.305
-0.3
-0.28
-0.285
-0.29
-0.27
-0.24
-0.245
-0.245
-0.235
-0.23
-0.23
-0.22
-0.2
-0.2
-0.195
-0.22
-0.22
-0.2
-0.195
-0.19
-0.215
-0.235
-0.245
-0.25
-0.255
-0.26
-0.25
-0.255
-0.25
-0.24
-0.23
-0.25
-0.27
-0.29
-0.305
-0.29
-0.3
-0.315
-0.325
-0.33
-0.34
-0.335
-0.355
-0.345
-0.36
-0.37
-0.37
-0.355
-0.35
-0.34
-0.345
-0.37
-0.36
-0.37
-0.34
-0.335
-0.35
-0.36
-0.36
-0.345
-0.335
-0.34
-0.375
-0.43
-0.47
-0.475
-0.425
-0.37
-0.315
-0.2
0.01
0.31
0.64
0.93
1.185
1.39
1.495
1.485
1.295
0.875
0.38
-0.07
-0.37
-0.54
-0.605
-0.595
-0.565
-0.475
-0.365
-0.31
-0.305
-0.33
-0.355
-0.36
-0.35
-0.35
-0.335
-0.35
-0.375
-0.395
-0.39
-0.385
-0.37
-0.375
-0.38
-0.385
-0.395
-0.39
-0.375
-0.38
-0.375
-0.4
-0.39
-0.39
-0.375
-0.375
-0.37
-0.39
-0.39
-0.385
-0.38
-0.38
-0.38
-0.39
-0.39
-0.375
-0.37
-0.365
-0.365
-0.38
-0.375
-0.355
-0.34
-0.35
-0.345
-0.355
-0.34
-0.345
-0.32
-0.32
-0.31
-0.31
-0.305
-0.275
-0.245
-0.25
-0.245
-0.265
-0.23
-0.195
-0.18
-0.165
-0.17
-0.155
-0.13
-0.1
-0.075
-0.065
-0.065
-0.06
-0.05
-0.025
0.01
0.02
0.02
0.025
0.045
0.07
0.09
0.095
0.095
0.095
0.09
0.11
0.115
0.12
0.1
0.075
0.085
0.075
0.065
0.045
0.025
0.0
-0.015
-0.035
-0.04
-0.065
-0.09
-0.13
-0.135
-0.14
-0.145
-0.16
-0.2
-0.21
-0.215
-0.205
-0.21
-0.21
-0.23
-0.24
-0.23
-0.225
-0.225
-0.235
-0.245
-0.255
-0.26
-0.245
-0.23
-0.235
-0.235
-0.245
-0.245
-0.235
-0.225
-0.225
-0.215
-0.225
-0.22
-0.22
-0.205
-0.2
-0.215
-0.225
-0.205
-0.205
-0.19
-0.185
-0.19
-0.205
-0.205
-0.195
-0.175
-0.185
-0.185
-0.195
-0.185
-0.175
-0.165
-0.185
-0.175
-0.19
-0.185
-0.185
-0.18
-0.175
-0.18
-0.19
-0.195
-0.185
-0.175
-0.185
-0.195
-0.205
-0.21
-0.205
-0.2
-0.195
-0.21
-0.225
-0.225
-0.21
-0.225
-0.215
-0.23
-0.235
-0.24
-0.23
-0.22
-0.225
-0.24
-0.265
-0.25
-0.23
-0.235
-0.235
-0.26
-0.265
-0.255
-0.26
-0.24
-0.25
-0.26
-0.28
-0.26
-0.255
-0.26
-0.255
-0.265
-0.27
-0.275
-0.27
-0.255
-0.255
-0.265
-0.28
-0.28
-0.255
-0.26
-0.255
-0.27
-0.28
-0.265
-0.245
-0.22
-0.205
-0.2
-0.21
-0.185
-0.17
-0.17
-0.17
-0.175
-0.17
-0.165
-0.15
-0.13
-0.14
-0.15
-0.155
-0.14
-0.135
-0.14
-0.135
-0.16
-0.175
-0.19
-0.19
-0.19
-0.185
-0.19
-0.195
-0.185
-0.2
-0.19
-0.2
-0.225
-0.255
-0.265
-0.265
-0.255
-0.275
-0.275
-0.29
-0.295
-0.29
-0.3
-0.305
-0.32
-0.325
-0.33
-0.31
-0.305
-0.3
-0.315
-0.33
-0.315
-0.315
-0.31
-0.305
-0.315
-0.325
-0.32
-0.305
-0.315
-0.355
-0.405
-0.47
-0.46
-0.4
-0.345
-0.275
-0.16
0.065
0.39
0.74
1.05
1.34
1.575
1.705
1.7
1.505
1.085
0.495
-0.085
-0.455
-0.61
-0.59
-0.54
-0.475
-0.39
-0.315
-0.27
-0.26
-0.285
-0.3
-0.31
-0.305
-0.325
-0.31
-0.32
-0.325
-0.35
-0.34
-0.345
-0.33
-0.33
-0.34
-0.35
-0.37
-0.36
-0.345
-0.34
-0.35
-0.35
-0.36
-0.345
-0.345
-0.335
-0.335
-0.35
-0.36
-0.355
-0.34
-0.33
-0.335
-0.35
-0.35
-0.335
-0.33
-0.31
-0.31
-0.31
-0.325
-0.315
-0.31
-0.29
-0.285
-0.285
-0.29
-0.285
-0.27
-0.255
-0.26
-0.255
-0.245
-0.225
-0.21
-0.2
-0.185
-0.175
-0.17
-0.135
-0.125
-0.105
-0.095
-0.085
-0.08
-0.05
-0.02
0.0
0.025
0.03
0.03
0.06
0.075
0.09
0.1
0.11
0.11
0.125
0.135
0.16
0.17
0.165
0.18
0.17
0.17
0.18
0.175
0.155
0.12
0.125
0.12
0.105
0.085
0.05
0.02
0.005
-0.015
-0.035
-0.06
-0.08
-0.12
-0.145
-0.145
-0.14
-0.15
-0.17
-0.19
-0.205
-0.195
-0.19
-0.195
-0.21
-0.23
-0.23
-0.215
-0.205
-0.22
-0.23
-0.23
-0.21
-0.215
-0.195
-0.205
-0.225
-0.225
-0.215
-0.205
-0.195
-0.205
-0.2
-0.205
-0.2
-0.185
-0.175
-0.17
-0.185
-0.19
-0.185
-0.165
-0.17
-0.16
-0.175
-0.195
-0.185
-0.165
-0.15
-0.16
-0.165
-0.17
-0.17
-0.16
-0.16
-0.175
-0.17
-0.175
-0.17
-0.165
-0.16
-0.16
-0.175
-0.19
-0.18
-0.175
-0.175
-0.17
-0.175
-0.205
-0.185
-0.185
-0.175
-0.185
-0.2
-0.21
-0.205
-0.21
-0.21
-0.215
-0.22
-0.235
-0.235
-0.23
-0.22
-0.225
-0.235
-0.235
-0.245
-0.235
-0.235
-0.23
-0.235
-0.25
-0.25
-0.25
-0.25
-0.23
-0.25
-0.26
-0.26
-0.255
-0.255
-0.245
-0.26
-0.265
-0.27
-0.275
-0.26
-0.26
-0.265
-0.285
-0.27
-0.27
-0.255
-0.265
-0.26
-0.26
-0.26
-0.255
-0.24
-0.225
-0.225
-0.23
-0.215
-0.19
-0.185
-0.18
-0.175
-0.18
-0.19
-0.16
-0.155
-0.145
-0.165
-0.18
-0.17
-0.15
-0.145
-0.16
-0.16
-0.18
-0.195
-0.2
-0.215
-0.215
-0.215
-0.23
-0.2
-0.19
-0.19
-0.21
-0.23
-0.255
-0.25
-0.245
-0.255
-0.27
-0.275
-0.295
-0.305
-0.29
-0.295
-0.315
-0.31
-0.325
-0.325
-0.32
-0.31
-0.305
-0.325
-0.335
-0.32
-0.32
-0.315
-0.31
-0.32
-0.34
-0.34
-0.315
-0.3
-0.32
-0.335
-0.385
-0.445
-0.49
-0.455
-0.4
-0.355
-0.295
-0.12
0.17
0.525
0.87
1.165
1.435
1.63
1.72
1.665
1.39
0.865
0.25
-0.26
-0.56
-0.62
-0.58
-0.53
-0.48
-0.38
-0.295
-0.265
-0.28
-0.31
-0.335
-0.32
-0.32
-0.32
-0.315
-0.34
-0.36
-0.36
-0.33
-0.33
-0.335
-0.355
-0.37
-0.355
-0.345
-0.345
-0.34
-0.36
-0.37
-0.355
-0.335
-0.33
-0.34
-0.35
-0.36
-0.345
-0.34
-0.325
-0.345
-0.345
-0.355
-0.345
-0.335
-0.32
-0.325
-0.335
-0.33
-0.335
-0.325
-0.32
-0.31
-0.305
-0.315
-0.29
-0.275
-0.27
-0.255
-0.255
-0.27
-0.24
-0.22
-0.21
-0.195
