Lead II
-0.63
-0.635
-0.64
-0.645
-0.655
-0.655
-0.64
-0.63
-0.63
-0.62
-0.595
-0.6
-0.59
-0.59
-0.585
-0.585
-0.58
-0.57
-0.56
-0.54
-0.51
-0.505
-0.485
-0.485
-0.49
-0.495
-0.515
-0.515
-0.52
-0.52
-0.515
-0.51
-0.515
-0.53
-0.515
-0.525
-0.545
-0.56
-0.6
-0.62
-0.64
-0.65
-0.655
-0.65
-0.64
-0.635
-0.635
-0.635
-0.635
-0.64
-0.65
-0.665
-0.665
-0.665
-0.67
-0.67
-0.655
-0.655
-0.645
-0.645
-0.65
-0.645
-0.65
-0.655
-0.665
-0.67
-0.665
-0.66
-0.65
-0.64
-0.635
-0.63
-0.63
-0.63
-0.635
-0.625
-0.625
-0.625
-0.63
-0.61
-0.6
-0.59
-0.575
-0.565
-0.545
-0.525
-0.46
-0.355
-0.21
0.03
0.335
0.7
1.08
1.41
1.635
1.665
1.45
1.02
0.42
-0.22
-0.86
-1.25
-1.385
-1.29
-1.08
-0.825
-0.6
-0.465
-0.405
-0.415
-0.465
-0.52
-0.555
-0.595
-0.595
-0.59
-0.575
-0.56
-0.545
-0.54
-0.53
-0.535
-0.55
-0.55
-0.555
-0.56
-0.56
-0.55
-0.56
-0.55
-0.535
-0.54
-0.52
-0.535
-0.535
-0.545
-0.55
-0.545
-0.54
-0.545
-0.53
-0.53
-0.525
-0.53
-0.53
-0.535
-0.53
-0.535
-0.53
-0.545
-0.54
-0.54
-0.53
-0.52
-0.52
-0.51
-0.52
-0.51
-0.515
-0.515
-0.535
-0.535
-0.53
-0.52
-0.53
-0.52
-0.515
-0.505
-0.515
-0.5
-0.51
-0.505
-0.515
-0.515
-0.51
-0.5
-0.485
-0.48
-0.47
-0.47
-0.475
-0.475
-0.485
-0.485
-0.475
-0.49
-0.48
-0.475
-0.46
-0.45
-0.445
-0.425
-0.43
-0.43
-0.435
-0.43
-0.425
-0.435
-0.42
-0.415
-0.405
-0.395
-0.395
-0.37
-0.375
-0.37
-0.37
-0.365
-0.37
-0.365
-0.36
-0.355
-0.35
-0.33
-0.325
-0.33
-0.335
-0.335
-0.35
-0.34
-0.345
-0.34
-0.34
-0.33
-0.325
-0.325
-0.33
-0.335
-0.34
-0.355
-0.385
-0.395
-0.42
-0.43
-0.445
-0.46
-0.475
-0.475
-0.485
-0.495
-0.515
-0.535
-0.55
-0.57
-0.575
-0.6
-0.605
-0.605
-0.605
-0.6
-0.6
-0.595
-0.61
-0.625
-0.635
-0.64
-0.65
-0.655
-0.67
-0.665
-0.66
-0.66
-0.655
-0.655
-0.645
-0.645
-0.64
-0.645
-0.65
-0.66
-0.665
-0.655
-0.655
-0.65
-0.64
-0.635
-0.64
-0.645
-0.65
-0.66
-0.655
-0.665
-0.66
-0.65
-0.635
-0.625
-0.615
-0.62
-0.61
-0.6
-0.61
-0.615
-0.62
-0.61
-0.615
-0.61
-0.605
-0.605
-0.59
-0.59
-0.61
-0.59
-0.595
-0.61
-0.615
-0.615
-0.625
-0.615
-0.62
-0.62
-0.61
-0.605
-0.605
-0.63
-0.635
-0.635
-0.64
-0.645
-0.64
-0.635
-0.64
-0.63
-0.62
-0.62
-0.63
-0.625
-0.64
-0.64
-0.655
-0.665
-0.665
-0.66
-0.665
-0.665
-0.65
-0.64
-0.64
-0.655
-0.645
-0.645
-0.655
-0.67
-0.66
-0.67
-0.655
-0.65
-0.64
-0.645
-0.655
-0.645
-0.66
-0.655
-0.665
-0.66
-0.655
-0.635
-0.62
-0.61
-0.595
-0.575
-0.58
-0.565
-0.565
-0.57
-0.56
-0.565
-0.56
-0.535
-0.525
-0.51
-0.505
-0.495
-0.5
-0.51
-0.5
-0.505
-0.51
-0.51
-0.505
-0.525
-0.53
-0.54
-0.545
-0.55
-0.565
-0.585
-0.605
-0.63
-0.65
-0.665
-0.665
-0.665
-0.665
-0.67
-0.66
-0.65
-0.655
-0.655
-0.665
-0.66
-0.68
-0.68
-0.69
-0.69
-0.685
-0.685
-0.685
-0.675
-0.69
-0.68
-0.685
-0.67
-0.69
-0.695
-0.69
-0.69
-0.685
-0.675
-0.67
-0.65
-0.65
-0.64
-0.645
-0.65
-0.65
-0.65
-0.635
-0.625
-0.625
-0.615
-0.62
-0.605
-0.595
-0.525
-0.425
-0.25
0.005
0.36
0.775
1.185
1.54
1.735
1.695
1.435
0.94
0.3
-0.34
-0.98
-1.39
-1.495
-1.37
-1.125
-0.87
-0.66
-0.54
-0.485
-0.485
-0.515
-0.555
-0.575
-0.605
-0.61
-0.605
-0.605
-0.59
-0.575
-0.56
-0.555
-0.55
-0.57
-0.58
-0.58
-0.585
-0.585
-0.575
-0.57
-0.58
-0.575
-0.575
-0.57
-0.57
-0.56
-0.57
-0.565
-0.575
-0.585
-0.595
-0.585
-0.58
-0.565
-0.545
-0.54
-0.545
-0.535
-0.535
-0.54
-0.56
-0.555
-0.555
-0.55
-0.545
-0.55
-0.545
-0.545
-0.525
-0.54
-0.54
-0.545
-0.56
-0.565
-0.56
-0.56
-0.54
-0.53
-0.515
-0.51
-0.505
-0.495
-0.505
-0.515
-0.53
-0.53
-0.525
-0.525
-0.52
-0.505
-0.49
-0.49
-0.475
-0.475
-0.49
-0.49
-0.49
-0.485
-0.495
-0.475
-0.48
-0.465
-0.465
-0.45
-0.445
-0.44
-0.44
-0.43
-0.43
-0.435
-0.43
-0.425
-0.41
-0.395
-0.385
-0.38
-0.375
-0.375
-0.395
-0.395
-0.415
-0.425
-0.405
-0.39
-0.385
-0.375
-0.38
-0.355
-0.37
-0.38
-0.39
-0.405
-0.41
-0.43
-0.435
-0.44
-0.435
-0.45
-0.47
-0.475
-0.495
-0.52
-0.53
-0.56
-0.575
-0.59
-0.605
-0.62
-0.63
-0.635
-0.64
-0.64
-0.65
-0.665
-0.675
-0.675
-0.69
-0.695
-0.69
-0.69
-0.685
-0.685
-0.67
-0.68
-0.67
-0.68
-0.695
-0.705
-0.705
-0.71
-0.705
-0.71
-0.7
-0.69
-0.68
-0.67
-0.67
-0.67
-0.675
-0.675
-0.68
-0.69
-0.69
-0.665
-0.67
-0.655
-0.635
-0.63
-0.635
-0.635
-0.625
-0.625
-0.635
-0.63
-0.63
-0.64
-0.63
-0.625
-0.615
-0.615
-0.615
-0.615
-0.63
-0.63
-0.63
-0.64
-0.64
-0.64
-0.635
-0.625
-0.625
-0.62
-0.63
-0.625
-0.645
-0.655
-0.655
-0.675
-0.66
-0.67
-0.66
-0.66
-0.655
-0.65
-0.655
-0.65
-0.66
-0.67
-0.67
-0.68
-0.675
-0.665
-0.655
-0.655
-0.62
-0.615
-0.61
-0.595
-0.605
-0.6
-0.605
-0.6
-0.58
-0.58
-0.555
-0.525
-0.505
-0.495
-0.515
-0.515
-0.52
-0.53
-0.545
-0.535
-0.53
-0.52
-0.51
-0.505
-0.515
-0.515
-0.53
-0.545
-0.57
-0.605
-0.63
-0.65
-0.67
-0.67
-0.67
-0.675
-0.67
-0.675
-0.67
-0.665
-0.68
-0.685
-0.695
-0.7
-0.71
-0.7
-0.705
-0.69
-0.69
-0.67
-0.695
-0.685
-0.69
-0.7
-0.72
-0.715
-0.71
-0.71
-0.7
-0.695
-0.695
-0.675
-0.67
-0.675
-0.67
-0.665
-0.675
-0.675
-0.67
-0.655
-0.635
-0.625
-0.62
-0.605
-0.585
-0.535
-0.42
-0.275
-0.05
0.3
0.7
1.115
1.48
1.68
1.66
1.36
0.805
0.165
-0.475
-1.115
-1.445
-1.455
-1.255
-0.99
-0.74
-0.575
-0.47
-0.455
-0.465
-0.515
-0.555
-0.59
-0.615
-0.615
-0.61
-0.61
-0.59
-0.575
-0.57
-0.56
-0.55
-0.55
-0.565
-0.57
-0.575
-0.585
-0.575
-0.575
-0.565
-0.56
-0.565
-0.55
-0.545
-0.545
-0.565
-0.57
-0.57
-0.57
-0.565
-0.57
-0.56
-0.545
-0.55
-0.53
-0.535
-0.525
-0.535
-0.525
-0.54
-0.545
-0.545
-0.55
-0.535
-0.54
-0.53
-0.52
-0.52
-0.525
-0.52
-0.53
-0.535
-0.53
-0.535
-0.52
-0.515
-0.515
-0.505
-0.495
-0.5
-0.505
-0.51
-0.5
-0.51
-0.51
-0.49
-0.49
-0.475
-0.465
-0.46
-0.46
-0.46
-0.45
-0.45
-0.455
-0.46
-0.46
-0.44
-0.44
-0.42
-0.415
-0.405
-0.39
-0.385
-0.365
-0.37
-0.36
-0.375
-0.365
-0.36
-0.355
-0.345
-0.335
-0.33
-0.32
-0.32
-0.33
-0.32
-0.325
-0.335
-0.34
-0.34
-0.34
-0.34
-0.345
-0.355
-0.355
-0.355
-0.375
-0.4
-0.425
-0.435
-0.47
-0.475
-0.495
-0.51
-0.52
-0.545
-0.55
-0.555
-0.58
-0.605
-0.625
-0.64
-0.645
-0.655
-0.665
-0.655
-0.655
-0.65
-0.66
-0.66
-0.665
-0.67
-0.695
-0.685
-0.705
-0.705
-0.71
-0.705
-0.7
-0.685
-0.685
-0.68
-0.68
-0.69
-0.685
-0.685
-0.69
-0.695
-0.69
-0.67
-0.67
-0.65
-0.645
-0.65
-0.635
-0.64
-0.635
-0.64
-0.64
-0.635
-0.625
-0.61
-0.61
-0.605
-0.58
-0.595
-0.595
-0.595
-0.595
-0.605
-0.61
-0.605
-0.62
-0.605
-0.605
-0.6
-0.59
-0.6
-0.605
-0.62
-0.615
-0.615
-0.625
-0.625
-0.625
-0.62
-0.625
-0.615
-0.61
-0.605
-0.615
-0.64
-0.645
-0.64
-0.64
-0.64
-0.655
-0.645
-0.635
-0.65
-0.635
-0.64
-0.625
-0.635
-0.645
-0.645
-0.66
-0.65
-0.66
-0.655
-0.64
-0.635
-0.63
-0.625
-0.64
-0.64
-0.645
-0.645
-0.665
-0.66
-0.66
-0.655
-0.645
-0.64
-0.635
-0.63
-0.635
-0.64
-0.64
-0.64
-0.64
-0.63
-0.63
-0.605
-0.595
-0.58
-0.565
-0.545
-0.545
-0.55
-0.53
-0.53
-0.515
-0.51
-0.5
-0.49
-0.495
-0.485
-0.485
-0.495
-0.495
-0.505
-0.5
-0.495
-0.495
-0.49
-0.51
-0.515
-0.52
-0.525
-0.535
-0.55
-0.565
-0.59
-0.62
-0.635
-0.655
-0.65
-0.655
-0.64
-0.64
-0.64
-0.635
-0.63
-0.635
-0.645
-0.655
-0.655
-0.675
-0.675
-0.67
-0.675
-0.66
-0.655
-0.65
-0.66
-0.655
-0.66
-0.665
-0.67
-0.675
-0.665
-0.67
-0.655
-0.635
-0.63
-0.615
-0.615
-0.615
-0.61
-0.61
-0.605
-0.605
-0.595
-0.55
-0.47
-0.34
-0.135
0.15
0.495
0.885
1.26
1.555
1.67
1.56
1.205
0.63
-0.01
-0.65
-1.16
-1.37
-1.33
-1.145
-0.89
-0.665
-0.51
-0.43
-0.425
-0.455
-0.51
-0.545
-0.57
-0.565
-0.565
-0.56
-0.545
-0.545
-0.555
-0.555
-0.55
-0.545
-0.545
-0.54
-0.54
-0.535
-0.545
-0.54
-0.555
-0.54
-0.545
-0.555
-0.55
-0.55
-0.545
-0.535
-0.525
-0.52
-0.525
-0.525
-0.54
-0.545
-0.54
-0.55
-0.555
-0.54
-0.535
-0.53
-0.515
-0.505
-0.51
-0.51
-0.51
-0.525
-0.53
-0.545
-0.535
-0.535
-0.535
-0.525
-0.52
-0.515
-0.51
-0.51
-0.51
-0.515
-0.5
-0.515
-0.51
-0.51
-0.505
-0.48
-0.485
-0.48
-0.475
-0.485
-0.485
-0.485
-0.48
-0.49
-0.485
-0.475
-0.465
-0.445
-0.445
-0.445
-0.44
-0.44
-0.425
-0.425
-0.415
-0.43
-0.415
-0.41
-0.405
-0.395
-0.375
-0.37
-0.375
-0.36
-0.36
-0.355
-0.355
-0.35
-0.35
-0.335
-0.33
-0.33
-0.33
-0.31
-0.305
-0.3
-0.31
-0.315
-0.315
-0.32
-0.325
-0.325
-0.33
-0.32
-0.34
-0.325
-0.33
-0.35
-0.375
-0.39
-0.41
-0.445
-0.455
-0.46
-0.47
-0.49
-0.5
-0.5
-0.535
-0.545
-0.56
-0.585
-0.6
-0.605
-0.6
-0.61
-0.605
-0.615
-0.605
-0.62
-0.63
-0.625
-0.63
-0.64
-0.65
-0.66
-0.66
-0.66
-0.66
-0.645
-0.645
-0.65
-0.645
-0.65
-0.665
-0.655
-0.665
-0.665
-0.665
-0.665
-0.66
-0.665
-0.645
-0.645
-0.64
-0.64
-0.635
-0.65
-0.65
-0.64
-0.645
-0.63
-0.64
-0.63
-0.61
-0.61
-0.605
-0.6
-0.6
-0.615
-0.615
-0.62
-0.615
-0.615
-0.62
-0.6
-0.595
-0.585
-0.605
-0.605
-0.605
-0.62
-0.605
-0.61
-0.625
-0.63
-0.625
-0.62
-0.615
-0.6
-0.61
-0.61
-0.625
-0.62
-0.635
-0.635
-0.65
-0.645
-0.64
-0.63
-0.64
-0.615
-0.615
-0.615
-0.63
-0.64
-0.635
-0.65
-0.65
-0.645
-0.635
-0.635
-0.645
-0.62
-0.62
-0.63
-0.635
-0.645
-0.645
-0.65
-0.66
-0.655
-0.655
-0.645
-0.655
-0.64
-0.645
-0.635
-0.64
-0.64
-0.645
-0.645
-0.645
-0.655
-0.65
-0.645
-0.64
-0.64
-0.635
-0.645
-0.65
-0.655
-0.655
-0.655
-0.655
-0.645
-0.645
-0.645
-0.635
-0.63
-0.62
-0.615
-0.615
-0.615
-0.605
-0.6
-0.59
-0.58
-0.565
-0.56
-0.545
-0.52
-0.505
-0.495
-0.5
-0.495
-0.505
-0.515
-0.52
-0.52
-0.515
-0.51
-0.5
-0.5
-0.505
-0.51
-0.51
-0.525
-0.54
-0.565
-0.585
-0.6
-0.61
-0.62
-0.62
-0.61
-0.62
-0.62
-0.625
-0.625
-0.635
-0.645
-0.655
-0.655
-0.655
-0.645
-0.64
-0.64
-0.635
-0.64
-0.645
-0.65
-0.65
-0.655
-0.655
-0.655
-0.655
-0.66
-0.655
-0.65
-0.635
-0.625
-0.62
-0.625
-0.62
-0.62
-0.615
-0.605
-0.605
-0.595
-0.585
-0.575
-0.55
-0.52
-0.445
-0.325
-0.14
0.14
0.5
0.905
1.305
1.555
1.55
1.25
0.67
0.03
-0.61
-1.225
-1.415
-1.345
-1.12
-0.86
-0.63
-0.475
-0.41
-0.385
-0.435
-0.485
-0.545
-0.565
-0.585
-0.585
-0.575
-0.56
-0.555
-0.545
-0.53
-0.53
-0.525
-0.525
-0.545
-0.55
-0.55
-0.545
-0.56
-0.545
-0.545
-0.53
-0.53
-0.52
-0.52
-0.52
-0.535
-0.54
-0.545
-0.55
-0.555
-0.545
-0.545
-0.54
-0.525
-0.525
-0.52
-0.52
-0.515
-0.525
-0.525
-0.54
-0.545
-0.545
-0.535
-0.515
-0.525
-0.52
-0.52
-0.52
-0.52
-0.53
-0.53
-0.535
-0.54
-0.53
-0.52
-0.51
-0.52
-0.5
-0.505
-0.495
-0.5
-0.505
-0.495
-0.49
-0.5
-0.49
-0.5
-0.495
-0.475
-0.465
-0.47
-0.47
-0.46
-0.465
-0.475
-0.48
-0.46
-0.46
-0.46
-0.455
-0.445
-0.42
-0.415
-0.42
-0.415
-0.415
-0.43
-0.42
-0.42
-0.43
-0.415
-0.41
-0.395
-0.38
-0.375
-0.375
-0.37
-0.375
-0.38
-0.385
-0.375
-0.375
-0.375
-0.37
-0.36
-0.355
-0.36
-0.355
-0.365
-0.37
-0.375
-0.375
-0.39
-0.385
-0.39
-0.395
-0.405
-0.415
-0.425
-0.44
-0.46
-0.485
-0.5
-0.51
-0.535
-0.55
-0.565
-0.565
-0.575
-0.58
-0.59
-0.6
-0.62
-0.62
-0.63
-0.645
-0.655
-0.665
-0.66
-0.66
-0.655
-0.645
-0.645
-0.655
-0.67
-0.665
-0.67
-0.68
-0.675
-0.665
-0.67
-0.66
-0.665
-0.655
-0.645
-0.65
-0.655
-0.665
-0.675
-0.66
-0.665
-0.665
-0.655
-0.645
-0.635
-0.63
-0.635
-0.62
-0.615
-0.63
-0.64
-0.635
-0.635
-0.625
-0.62
-0.61
-0.615
-0.595
-0.59
-0.595
-0.6
-0.6
-0.61
-0.62
-0.63
-0.615
-0.62
-0.6
-0.6
-0.585
-0.59
-0.585
-0.59
-0.61
-0.605
-0.62
-0.63
-0.61
-0.625
-0.615
-0.625
-0.625
-0.62
-0.62
-0.62
-0.63
-0.63
-0.64
-0.64
-0.64
-0.655
-0.635
-0.635
-0.62
-0.62
-0.62
-0.62
-0.63
-0.65
-0.655
-0.64
-0.655
-0.64
-0.635
-0.63
-0.63
-0.635
-0.64
-0.62
-0.635
-0.64
-0.655
-0.65
-0.66
-0.655
-0.64
-0.645
-0.635
-0.63
-0.63
-0.645
-0.645
-0.645
-0.66
-0.665
-0.655
-0.645
-0.655
-0.645
-0.635
-0.63
-0.625
-0.645
-0.65
-0.645
-0.655
-0.655
-0.655
-0.655
-0.655
-0.645
-0.64
-0.64
-0.635
-0.645
-0.65
-0.64
-0.65
-0.66
-0.655
-0.655
-0.645
-0.645
-0.64
-0.625
-0.63
-0.63
-0.63
-0.64
-0.645
-0.645
-0.65
-0.645
-0.645
-0.645
-0.64
-0.625
-0.63
-0.635
-0.645
-0.645
-0.65
-0.645
-0.645
-0.655
-0.64
-0.655
-0.645
-0.64
-0.645
-0.63
-0.64
-0.635
-0.64
-0.645
-0.645
-0.645
-0.63
-0.635
-0.63
-0.625
-0.625
-0.62
-0.63
-0.64
-0.63
-0.64
-0.645
-0.64
-0.615
-0.62
-0.625
-0.625
-0.62
-0.625
-0.62
-0.625
-0.625
-0.63
-0.625
-0.63
-0.61
-0.615
-0.59
-0.58
-0.55
-0.545
-0.55
-0.55
-0.535
-0.53
-0.525
-0.505
-0.5
-0.485
-0.465
-0.46
-0.475
-0.48
-0.49
-0.495
-0.505
-0.51
-0.51
-0.51
-0.51
-0.505
-0.505
-0.51
-0.525
-0.55
-0.57
-0.595
-0.605
-0.61
-0.62
-0.61
-0.615
-0.6
-0.6
-0.59
-0.605
-0.615
-0.64
-0.63
-0.625
-0.645
-0.645
-0.63
-0.625
-0.61
-0.615
-0.62
-0.615
-0.62
-0.62
-0.65
-0.635
-0.63
-0.625
-0.625
-0.63
-0.62
-0.6
-0.6
-0.59
-0.585
-0.59
-0.595
-0.59
-0.585
-0.58
-0.58
-0.57
-0.56
-0.545
-0.495
-0.44
-0.345
-0.205
-0.005
0.27
0.6
0.97
1.32
1.56
1.645
1.515
1.13
0.535
-0.105
-0.745
-1.215
-1.4
-1.33
-1.1
-0.835
-0.615
-0.46
-0.395
-0.395
-0.435
-0.49
-0.53
-0.56
-0.575
-0.565
-0.565
-0.545
-0.53
-0.53
-0.5
-0.505
-0.51
-0.505
-0.52
-0.515
-0.53
-0.535
-0.535
-0.535
-0.535
-0.52
-0.525
-0.52
-0.51
-0.52
-0.515
-0.51
-0.52
-0.52
-0.515
-0.5
-0.505
-0.5
-0.505
-0.5
-0.495
-0.5
-0.505
-0.505
-0.515
-0.52
-0.52
-0.53
-0.51
-0.51
-0.5
-0.495
-0.49
-0.485
-0.5
-0.505
-0.505
-0.51
-0.505
-0.51
-0.505
-0.495
-0.49
-0.49
-0.485
-0.495
-0.5
-0.49
-0.495
-0.5
-0.5
-0.51
-0.505
-0.485
-0.48
-0.47
-0.47
-0.465
-0.475
-0.48
-0.48
-0.485
-0.48
-0.475
-0.47
-0.46
-0.445
-0.445
-0.45
-0.45
-0.43
-0.44
-0.445
-0.445
-0.455
-0.455
-0.435
-0.43
-0.42
-0.415
-0.42
-0.415
-0.42
-0.42
-0.43
-0.43
-0.44
-0.44
-0.435
-0.445
-0.435
-0.435
-0.435
-0.44
-0.435
-0.445
-0.43
-0.45
-0.44
-0.435
-0.42
-0.42
-0.42
-0.41
-0.425
-0.44
-0.46
-0.475
-0.48
-0.505
-0.515
-0.525
-0.525
-0.535
-0.54
-0.55
-0.555
-0.585
-0.595
-0.595
-0.615
-0.645
-0.655
-0.64
-0.635
-0.63
-0.625
-0.62
-0.625
-0.63
-0.635
-0.635
-0.65
-0.64
-0.65
-0.655
-0.625
-0.62
-0.62
-0.61
-0.605
-0.6
-0.61
-0.61
-0.615
-0.62
-0.615
-0.61
-0.6
-0.595
-0.59
-0.585
-0.58
-0.57
-0.575
-0.58
-0.58
-0.6
-0.605
-0.59
-0.59
-0.58
-0.565
-0.555
-0.565
-0.575
-0.585
-0.58
-0.58
-0.585
-0.595
-0.595
-0.585
-0.59
-0.575
-0.58
-0.58
-0.58
-0.585
-0.6
-0.61
-0.615
-0.615
-0.625
-0.61
-0.615
-0.6
-0.61
-0.6
-0.61
-0.615
-0.625
-0.625
-0.635
-0.635
-0.625
-0.625
-0.61
-0.605
-0.6
-0.615
-0.615
-0.625
-0.625
-0.63
-0.63
-0.645
-0.635
-0.625
-0.64
-0.63
-0.625
-0.625
-0.62
-0.615
-0.63
-0.63
-0.645
-0.635
-0.645
-0.64
-0.645
-0.635
-0.62
-0.62
-0.605
-0.625
-0.63
-0.635
-0.645
-0.645
-0.64
-0.645
-0.63
-0.63
-0.62
-0.62
-0.615
-0.625
-0.615
-0.615
-0.61
-0.605
-0.585
-0.575
-0.565
-0.555
-0.55
-0.53
-0.51
-0.515
-0.51
-0.495
-0.5
-0.505
-0.495
-0.495
-0.5
-0.505
-0.495
-0.495
-0.495
-0.49
-0.5
-0.52
-0.53
-0.545
-0.58
-0.585
-0.595
-0.605
-0.615
-0.62
-0.63
-0.625
-0.64
-0.64
-0.65
-0.645
-0.65
-0.65
-0.645
-0.635
-0.635
-0.645
-0.645
-0.65
-0.67
-0.675
-0.68
-0.685
-0.675
-0.67
-0.66
-0.66
-0.65
-0.655
-0.645
-0.66
-0.655
-0.655
-0.66
-0.655
-0.63
-0.625
-0.61
-0.59
-0.6
-0.59
-0.595
-0.6
-0.59
-0.55
-0.475
-0.345
-0.135
0.145
0.51
0.905
1.28
1.56
1.655
1.525
1.15
0.57
-0.07
-0.71
-1.225
-1.425
-1.375
-1.17
-0.91
-0.685
-0.535
-0.495
-0.48
-0.5
-0.535
-0.555
-0.57
-0.57
-0.57
-0.55
-0.55
-0.525
-0.535
-0.535
-0.54
-0.555
-0.555
-0.545
-0.555
-0.56
-0.535
-0.525
-0.515
-0.515
-0.515
-0.515
-0.53
-0.545
-0.54
-0.525
-0.52
-0.54
-0.53
-0.525
-0.505
-0.52
-0.51
-0.52
-0.51
-0.52
-0.515
-0.51
-0.515
-0.515
-0.515
-0.505
-0.485
-0.5
-0.495
-0.505
-0.5
-0.51
-0.51
-0.505
-0.515
-0.51
-0.49
-0.485
-0.48
-0.485
-0.485
-0.485
-0.485
-0.495
-0.495
-0.5
-0.495
-0.47
-0.465
-0.46
-0.445
-0.445
-0.45
-0.445
-0.45
-0.445
-0.44
-0.44
-0.445
-0.44
-0.425
-0.41
-0.405
-0.405
-0.41
-0.41
-0.405
-0.4
-0.405
-0.4
-0.395
-0.39
-0.37
-0.36
-0.36
-0.37
-0.37
-0.37
-0.385
-0.4
-0.4
-0.385
-0.4
-0.385
-0.385
-0.375
-0.375
-0.375
-0.375
-0.38
-0.37
-0.39
-0.4
-0.4
-0.42
-0.415
-0.42
-0.42
-0.425
-0.44
-0.455
-0.475
-0.495
-0.515
-0.54
-0.565
-0.55
-0.56
-0.57
-0.57
-0.585
-0.585
-0.595
-0.61
-0.62
-0.64
-0.65
-0.655
-0.645
-0.64
-0.64
-0.635
-0.635
-0.64
-0.645
-0.645
-0.655
-0.665
-0.665
-0.665
-0.66
-0.645
-0.64
-0.625
-0.62
-0.61
-0.62
-0.625
-0.63
-0.62
-0.615
-0.605
-0.605
-0.59
-0.59
-0.57
-0.57
-0.575
-0.58
-0.585
-0.595
-0.585
-0.585
-0.585
-0.575
-0.585
-0.57
-0.565
-0.565
-0.565
-0.565
-0.565
-0.585
-0.59
-0.59
-0.595
-0.595
-0.595
-0.595
-0.59
-0.59
-0.59
-0.59
-0.595
-0.605
-0.605
-0.62
-0.62
-0.64
-0.64
-0.625
-0.61
-0.605
-0.61
-0.62
-0.625
-0.63
-0.63
-0.63
-0.635
-0.63
-0.645
-0.63
-0.615
-0.6
-0.595
-0.585
-0.585
-0.575
-0.58
-0.58
-0.56
-0.555
-0.55
-0.53
-0.495
-0.485
-0.475
-0.475
-0.47
-0.48
-0.485
-0.495
-0.495
-0.485
-0.49
-0.48
-0.48
-0.465
-0.475
-0.485
-0.51
-0.53
-0.555
-0.585
-0.61
-0.625
-0.615
-0.63
-0.615
-0.615
-0.615
-0.615
-0.625
-0.63
-0.64
-0.645
-0.655
-0.65
-0.66
-0.655
-0.635
-0.625
-0.63
-0.63
-0.63
-0.65
-0.64
-0.655
-0.655
-0.66
-0.635
-0.64
-0.635
-0.615
-0.62
-0.615
-0.62
-0.62
-0.63
-0.625
-0.62
-0.615
-0.595
-0.6
-0.58
-0.55
-0.535
-0.48
-0.39
-0.245
-0.015
0.31
0.71
1.15
1.51
1.72
1.705
1.405
0.86
0.22
-0.42
-1.06
-1.375
-1.375
-1.205
-0.94
-0.695
-0.52
-0.425
-0.4
-0.41
-0.435
-0.495
-0.535
-0.555
-0.555
-0.545
-0.535
-0.53
-0.52
-0.505
-0.5
-0.49
-0.5
-0.505
-0.51
-0.52
-0.52
-0.51
-0.505
-0.51
-0.495
-0.5
-0.495
-0.475
-0.475
-0.485
-0.485
-0.49
-0.495
-0.5
-0.495
-0.495
-0.48
-0.475
-0.465
-0.46
-0.46
-0.46
-0.475
-0.475
-0.475
-0.48
-0.475
-0.47
-0.47
-0.465
-0.455
-0.455
-0.455
-0.445
-0.46
-0.47
-0.485
-0.465
-0.465
-0.45
-0.445
-0.44
-0.43
-0.425
-0.43
-0.435
-0.425
-0.435
-0.445
-0.44
-0.44
-0.425
-0.43
-0.405
-0.39
-0.38
-0.385
-0.385
-0.385
-0.385
-0.385
-0.38
-0.385
-0.365
-0.36
-0.34
-0.34
-0.335
-0.33
-0.325
-0.33
-0.335
-0.33
-0.33
-0.31
-0.305
-0.3
-0.29
-0.275
-0.265
-0.265
-0.27
-0.27
-0.265
-0.27
-0.285
-0.285
-0.28
-0.27
-0.275
-0.26
-0.255
-0.26
-0.265
-0.285
-0.29
-0.295
-0.3
-0.3
-0.3
-0.31
-0.31
-0.325
-0.335
-0.36
-0.385
-0.4
-0.43
-0.45
-0.465
-0.475
-0.5
-0.51
-0.5
-0.515
-0.525
-0.535
-0.54
-0.56
-0.56
-0.57
-0.575
-0.59
-0.585
-0.575
-0.58
-0.57
-0.565
-0.56
-0.585
-0.59
-0.6
-0.595
-0.59
-0.6
-0.595
-0.585
-0.585
-0.565
-0.565
-0.575
-0.575
-0.56
-0.57
-0.575
-0.57
-0.57
-0.56
-0.55
-0.54
-0.52
-0.52
-0.52
-0.525
-0.535
-0.525
-0.535
-0.535
-0.53
-0.525
-0.525
-0.5
-0.495
-0.485
-0.49
-0.49
-0.505
-0.5
-0.5
-0.5
-0.505
-0.51
-0.51
-0.505
-0.5
-0.495
-0.5
-0.5
-0.515
-0.51
-0.52
-0.525
-0.53
-0.52
-0.515
-0.515
-0.51
-0.525
-0.51
-0.52
-0.535
-0.54
-0.545
-0.545
-0.54
-0.555
-0.54
-0.525
-0.515
-0.53
-0.53
-0.53
-0.525
-0.545
-0.545
-0.55
-0.54
-0.54
-0.53
-0.54
-0.53
-0.52
-0.51
-0.52
-0.53
-0.52
-0.525
-0.515
-0.505
-0.49
-0.48
-0.46
-0.44
-0.435
-0.44
-0.425
-0.41
-0.41
-0.41
-0.405
-0.405
-0.41
-0.41
-0.415
-0.39
-0.395
-0.395
-0.39
-0.395
-0.41
-0.415
-0.43
-0.44
-0.44
-0.44
-0.45
-0.46
-0.475
-0.495
-0.52
-0.545
-0.56
-0.575
-0.565
-0.555
-0.56
-0.55
-0.555
-0.54
-0.56
-0.55
-0.55
-0.555
-0.57
-0.575
-0.595
-0.58
-0.585
-0.575
-0.585
-0.585
-0.565
-0.57
-0.56
-0.565
-0.57
-0.57
-0.565
-0.56
-0.56
-0.545
-0.53
-0.525
-0.535
-0.52
-0.515
-0.525
-0.515
-0.52
-0.52
-0.5
-0.46
-0.385
-0.275
-0.115
0.1
0.38
0.705
1.055
1.375
1.615
1.68
1.54
1.175
0.625
-0.015
-0.625
-1.075
-1.29
-1.27
-1.1
-0.865
-0.655
-0.495
-0.4
-0.37
-0.37
-0.4
-0.43
-0.465
-0.485
-0.485
-0.48
-0.485
-0.485
-0.48
-0.48
-0.48
-0.46
-0.47
-0.465
-0.46
-0.465
-0.46
-0.47
-0.46
-0.47
-0.475
-0.48
-0.465
-0.46
-0.46
-0.435
-0.445
-0.45
-0.455
-0.455
-0.465
-0.475
-0.475
-0.48
-0.465
-0.46
-0.455
-0.44
-0.44
-0.445
-0.45
-0.44
-0.45
-0.46
-0.46
-0.48
-0.46
-0.465
-0.45
-0.445
-0.435
-0.44
-0.435
-0.44
-0.46
-0.46
-0.45
-0.445
-0.44
-0.435
-0.425
-0.415
-0.405
-0.415
-0.41
-0.42
-0.425
-0.43
-0.43
-0.43
-0.425
-0.4
-0.39
-0.385
-0.375
-0.375
-0.375
-0.38
-0.38
-0.385
-0.39
-0.37
-0.365
-0.36
-0.345
-0.32
-0.33
-0.335
-0.33
-0.335
-0.33
-0.32
-0.31
-0.31
-0.295
-0.29
-0.275
-0.265
-0.25
-0.245
-0.25
-0.26
-0.265
-0.265
-0.26
-0.25
-0.255
-0.25
-0.235
-0.24
-0.23
-0.23
-0.25
-0.25
-0.265
-0.275
-0.275
-0.28
-0.3
-0.3
-0.315
-0.32
-0.335
-0.35
-0.365
-0.39
-0.415
-0.44
-0.46
-0.475
-0.475
-0.485
-0.49
-0.495
-0.5
-0.525
-0.53
-0.55
-0.55
-0.56
-0.585
-0.575
-0.58
-0.575
-0.57
-0.57
-0.56
-0.57
-0.58
-0.59
-0.595
-0.61
-0.625
-0.605
-0.6
-0.59
-0.58
-0.565
-0.565
-0.56
-0.565
-0.57
-0.58
-0.58
-0.575
-0.565
-0.57
-0.55
-0.545
-0.535
-0.53
-0.52
-0.52
-0.52
-0.535
-0.53
-0.53
-0.53
-0.53
-0.52
-0.515
-0.5
-0.5
-0.5
-0.505
-0.52
-0.52
-0.525
-0.52
-0.535
-0.54
-0.535
-0.52
-0.535
-0.535
-0.53
-0.54
-0.54
-0.545
-0.545
-0.565
-0.56
-0.555
-0.55
-0.545
-0.535
-0.53
-0.54
-0.535
-0.545
-0.56
-0.56
-0.57
-0.56
-0.57
-0.57
-0.565
-0.555
-0.55
-0.545
-0.56
-0.57
-0.575
-0.55
-0.53
-0.52
-0.515
-0.505
-0.49
-0.48
-0.465
-0.46
-0.445
-0.445
-0.43
-0.42
-0.43
-0.42
-0.435
-0.425
-0.44
-0.43
-0.41
-0.41
-0.415
-0.425
-0.455
-0.475
-0.495
-0.515
-0.535
-0.555
-0.56
-0.56
-0.57
-0.58
-0.585
-0.595
-0.585
-0.605
-0.59
-0.595
-0.605
-0.605
-0.61
-0.59
-0.6
-0.6
-0.605
-0.615
-0.61
-0.625
-0.635
-0.625
-0.62
-0.625
-0.62
-0.6
-0.585
-0.585
-0.59
-0.605
-0.59
-0.585
-0.58
-0.585
-0.575
-0.565
-0.555
-0.535
-0.525
-0.505
-0.465
-0.39
-0.27
-0.1
0.165
0.495
0.855
1.225
1.515
1.655
1.595
1.285
0.79
0.15
-0.49
-1.035
-1.315
-1.355
-1.205
-0.96
-0.73
-0.54
-0.425
-0.39
-0.4
-0.45
-0.495
-0.545
-0.57
-0.57
-0.565
-0.54
-0.52
-0.505
-0.495
-0.505
-0.51
-0.515
-0.52
-0.53
-0.55
-0.55
-0.545
-0.525
-0.51
-0.515
-0.505
-0.495
-0.505
-0.52
-0.52
-0.525
-0.515
-0.515
-0.505
-0.51
-0.495
-0.485
-0.495
-0.495
-0.49
-0.495
-0.5
-0.5
-0.505
-0.51
-0.5
-0.495
-0.485
-0.49
-0.485
-0.48
-0.485
-0.485
-0.49
-0.505
-0.51
-0.495
-0.5
-0.5
-0.48
-0.465
-0.465
-0.46
-0.46
-0.475
-0.47
-0.47
-0.47
-0.475
-0.465
-0.46
-0.465
-0.455
-0.435
-0.44
-0.44
-0.445
-0.45
-0.45
-0.455
-0.46
-0.44
-0.445
-0.435
-0.42
-0.415
-0.395
-0.405
-0.415
-0.395
-0.405
-0.41
-0.4
-0.385
-0.37
-0.365
-0.36
-0.345
-0.33
-0.32
-0.335
-0.335
-0.335
-0.34
-0.33
-0.335
-0.325
-0.32
-0.31
-0.3
-0.305
-0.3
-0.31
-0.32
-0.325
-0.335
-0.32
-0.325
-0.32
-0.33
-0.32
-0.34
-0.345
-0.36
-0.385
-0.4
-0.43
-0.45
-0.47
-0.485
-0.485
-0.485
-0.505
-0.51
-0.52
-0.54
-0.56
-0.57
-0.58
-0.605
-0.61
-0.625
-0.61
-0.61
-0.62
-0.595
-0.6
-0.605
-0.62
-0.635
-0.635
-0.645
-0.64
-0.64
-0.63
-0.625
-0.615
-0.61
-0.61
-0.61
-0.605
-0.62
-0.625
-0.62
-0.625
-0.61
-0.605
-0.59
-0.575
-0.57
-0.575
-0.565
-0.585
-0.575
-0.595
-0.58
-0.6
-0.58
-0.58
-0.575
-0.575
-0.555
-0.55
-0.545
-0.545
-0.555
-0.56
-0.56
-0.57
-0.565
-0.56
-0.56
-0.555
-0.56
-0.56
-0.555
-0.565
-0.575
-0.585
-0.585
-0.59
-0.595
-0.595
-0.595
-0.585
-0.585
-0.585
-0.595
-0.605
-0.605
-0.63
-0.62
-0.615
-0.62
-0.605
-0.62
-0.605
-0.6
-0.6
-0.6
-0.6
-0.595
-0.6
-0.61
-0.605
-0.59
-0.57
-0.565
-0.555
-0.54
-0.54
-0.54
-0.525
-0.515
-0.51
-0.5
-0.48
-0.465
-0.45
-0.455
-0.46
-0.45
-0.455
-0.465
-0.47
-0.46
-0.48
-0.5
-0.5
-0.51
-0.52
-0.535
-0.55
-0.57
-0.585
-0.6
-0.625
-0.63
-0.64
-0.64
-0.64
-0.635
-0.635
-0.65
-0.63
-0.635
-0.645
-0.65
-0.655
-0.66
-0.665
-0.67
-0.68
-0.675
-0.66
-0.675
-0.655
-0.655
-0.64
-0.655
-0.665
-0.655
-0.655
-0.655
-0.65
-0.645
-0.63
-0.635
-0.615
-0.6
-0.59
-0.58
-0.58
-0.585
-0.58
-0.555
-0.505
-0.405
-0.235
0.005
0.31
0.685
1.075
1.415
1.6
1.595
1.345
0.87
0.26
-0.38
-0.96
-1.31
-1.415
-1.3
-1.08
-0.85
-0.66
-0.535
-0.47
-0.48
-0.505
-0.525
-0.56
-0.575
-0.58
-0.575
-0.565
-0.565
-0.565
-0.55
-0.555
-0.56
-0.555
-0.57
-0.56
-0.555
-0.55
-0.55
-0.54
-0.53
-0.54
-0.54
-0.55
-0.555
-0.545
-0.545
-0.54
-0.535
-0.525
-0.52
-0.52
-0.525
-0.525
-0.525
-0.545
-0.54
-0.56
-0.545
-0.535
-0.53
-0.515
-0.525
-0.52
-0.52
-0.54
-0.525
-0.54
-0.56
-0.545
-0.54
-0.54
-0.525
-0.53
-0.52
-0.51
-0.505
-0.515
-0.51
-0.515
-0.525
-0.515
-0.51
-0.515
-0.5
-0.495
-0.49
-0.495
-0.5
-0.5
-0.495
-0.505
-0.52
-0.5
-0.495
-0.48
-0.485
-0.48
-0.475
-0.47
-0.47
-0.475
-0.475
-0.475
-0.47
-0.485
-0.475
-0.45
-0.435
