Lead II
-0.705
-0.71
-0.71
-0.71
-0.705
-0.695
-0.69
-0.675
-0.675
-0.675
-0.69
-0.695
-0.68
-0.67
-0.68
-0.655
-0.645
-0.635
-0.615
-0.605
-0.575
-0.52
-0.435
-0.285
-0.085
0.2
0.55
0.945
1.3
1.55
1.585
1.36
0.855
0.215
-0.425
-1.065
-1.495
-1.57
-1.435
-1.18
-0.915
-0.705
-0.595
-0.545
-0.535
-0.545
-0.58
-0.59
-0.6
-0.615
-0.615
-0.6
-0.6
-0.595
-0.585
-0.58
-0.56
-0.565
-0.56
-0.565
-0.58
-0.59
-0.595
-0.59
-0.585
-0.605
-0.595
-0.57
-0.575
-0.565
-0.57
-0.565
-0.57
-0.58
-0.575
-0.58
-0.57
-0.57
-0.565
-0.57
-0.55
-0.55
-0.555
-0.55
-0.565
-0.575
-0.58
-0.58
-0.575
-0.565
-0.565
-0.555
-0.555
-0.545
-0.55
-0.535
-0.555
-0.55
-0.555
-0.565
-0.56
-0.56
-0.545
-0.545
-0.535
-0.52
-0.515
-0.52
-0.53
-0.545
-0.56
-0.56
-0.555
-0.54
-0.525
-0.535
-0.52
-0.52
-0.505
-0.505
-0.52
-0.515
-0.52
-0.525
-0.515
-0.505
-0.495
-0.485
-0.475
-0.48
-0.48
-0.485
-0.485
-0.495
-0.485
-0.495
-0.485
-0.48
-0.48
-0.47
-0.455
-0.445
-0.445
-0.455
-0.455
-0.455
-0.47
-0.47
-0.46
-0.465
-0.465
-0.46
-0.46
-0.46
-0.465
-0.455
-0.46
-0.46
-0.465
-0.47
-0.48
-0.46
-0.445
-0.44
-0.45
-0.445
-0.44
-0.46
-0.475
-0.495
-0.515
-0.54
-0.55
-0.555
-0.57
-0.58
-0.59
-0.6
-0.615
-0.63
-0.635
-0.64
-0.66
-0.67
-0.675
-0.68
-0.675
-0.675
-0.67
-0.67
-0.665
-0.665
-0.68
-0.69
-0.7
-0.7
-0.685
-0.695
-0.675
-0.66
-0.66
-0.66
-0.67
-0.68
-0.675
-0.68
-0.68
-0.675
-0.675
-0.67
-0.655
-0.65
-0.65
-0.645
-0.64
-0.65
-0.645
-0.65
-0.645
-0.64
-0.65
-0.64
-0.625
-0.63
-0.63
-0.63
-0.62
-0.635
-0.635
-0.635
-0.645
-0.65
-0.655
-0.645
-0.64
-0.63
-0.625
-0.63
-0.64
-0.64
-0.655
-0.665
-0.675
-0.67
-0.675
-0.66
-0.66
-0.665
-0.66
-0.665
-0.675
-0.68
-0.685
-0.69
-0.7
-0.695
-0.71
-0.69
-0.685
-0.68
-0.68
-0.67
-0.675
-0.68
-0.675
-0.7
-0.71
-0.72
-0.725
-0.715
-0.7
-0.695
-0.675
-0.665
-0.68
-0.68
-0.675
-0.675
-0.66
-0.665
-0.67
-0.645
-0.64
-0.62
-0.61
-0.61
-0.595
-0.59
-0.575
-0.57
-0.57
-0.555
-0.545
-0.54
-0.535
-0.565
-0.55
-0.535
-0.54
-0.54
-0.54
-0.545
-0.56
-0.59
-0.595
-0.615
-0.62
-0.635
-0.65
-0.665
-0.68
-0.68
-0.7
-0.695
-0.705
-0.705
-0.71
-0.715
-0.695
-0.7
-0.7
-0.705
-0.715
-0.715
-0.725
-0.73
-0.725
-0.735
-0.735
-0.73
-0.72
-0.715
-0.695
-0.695
-0.705
-0.7
-0.705
-0.705
-0.7
-0.705
-0.705
-0.695
-0.685
-0.67
-0.65
-0.65
-0.65
-0.635
-0.63
-0.625
-0.615
-0.58
-0.525
-0.415
-0.26
-0.035
0.26
0.605
0.975
1.335
1.61
1.75
1.715
1.465
1.02
0.41
-0.23
-0.87
-1.33
-1.495
-1.44
-1.22
-0.95
-0.735
-0.58
-0.495
-0.49
-0.505
-0.535
-0.555
-0.58
-0.56
-0.575
-0.56
-0.565
-0.565
-0.56
-0.56
-0.565
-0.565
-0.555
-0.54
-0.53
-0.53
-0.525
-0.545
-0.55
-0.545
-0.535
-0.535
-0.535
-0.54
-0.53
-0.525
-0.52
-0.51
-0.515
-0.51
-0.52
-0.52
-0.525
-0.525
-0.525
-0.515
-0.51
-0.505
-0.485
-0.48
-0.485
-0.485
-0.49
-0.495
-0.5
-0.51
-0.495
-0.49
-0.48
-0.48
-0.465
-0.455
-0.46
-0.47
-0.47
-0.47
-0.465
-0.475
-0.47
-0.46
-0.45
-0.44
-0.43
-0.425
-0.425
-0.42
-0.43
-0.43
-0.43
-0.435
-0.44
-0.425
-0.405
-0.4
-0.39
-0.375
-0.375
-0.37
-0.365
-0.375
-0.37
-0.365
-0.355
-0.355
-0.345
-0.335
-0.33
-0.315
-0.305
-0.31
-0.295
-0.3
-0.3
-0.285
-0.285
-0.275
-0.275
-0.26
-0.265
-0.25
-0.26
-0.26
-0.265
-0.255
-0.25
-0.255
-0.255
-0.25
-0.23
-0.235
-0.225
-0.22
-0.215
-0.22
-0.215
-0.23
-0.24
-0.25
-0.26
-0.265
-0.275
-0.275
-0.285
-0.285
-0.31
-0.325
-0.345
-0.365
-0.395
-0.41
-0.42
-0.435
-0.445
-0.44
-0.445
-0.45
-0.45
-0.475
-0.47
-0.48
-0.49
-0.5
-0.495
-0.5
-0.49
-0.49
-0.485
-0.485
-0.49
-0.485
-0.485
-0.485
-0.485
-0.485
-0.475
-0.5
-0.475
-0.47
-0.45
-0.455
-0.445
-0.435
-0.435
-0.435
-0.44
-0.44
-0.445
-0.435
-0.425
-0.405
-0.395
-0.39
-0.39
-0.395
-0.395
-0.39
-0.395
-0.39
-0.375
-0.37
-0.36
-0.36
-0.35
-0.35
-0.335
-0.345
-0.35
-0.36
-0.37
-0.375
-0.375
-0.375
-0.365
-0.355
-0.36
-0.365
-0.345
-0.345
-0.37
-0.375
-0.385
-0.395
-0.38
-0.385
-0.375
-0.37
-0.355
-0.355
-0.355
-0.355
-0.355
-0.38
-0.38
-0.395
-0.375
-0.38
-0.38
-0.37
-0.36
-0.36
-0.355
-0.365
-0.36
-0.365
-0.375
-0.38
-0.38
-0.365
-0.365
-0.365
-0.365
-0.35
-0.35
-0.37
-0.35
-0.35
-0.355
-0.36
-0.36
-0.35
-0.33
-0.32
-0.31
-0.285
-0.28
-0.27
-0.26
-0.265
-0.25
-0.255
-0.245
-0.235
-0.225
-0.21
-0.19
-0.18
-0.18
-0.18
-0.18
-0.2
-0.215
-0.205
-0.215
-0.195
-0.195
-0.19
-0.17
-0.18
-0.185
-0.195
-0.22
-0.225
-0.24
-0.265
-0.295
-0.31
-0.325
-0.315
-0.33
-0.315
-0.31
-0.315
-0.33
-0.335
-0.33
-0.34
-0.35
-0.35
-0.345
-0.34
-0.335
-0.335
-0.335
-0.335
-0.35
-0.35
-0.355
-0.365
-0.36
-0.365
-0.35
-0.34
-0.335
-0.32
-0.32
-0.31
-0.31
-0.31
-0.32
-0.31
-0.31
-0.29
-0.28
-0.27
-0.25
-0.215
-0.15
-0.07
0.065
0.265
0.53
0.86
1.23
1.565
1.825
1.96
1.87
1.565
1.025
0.385
-0.255
-0.855
-1.135
-1.155
-0.985
-0.715
-0.465
-0.26
-0.15
-0.1
-0.09
-0.115
-0.16
-0.185
-0.215
-0.225
-0.22
-0.225
-0.2
-0.205
-0.2
-0.185
-0.195
-0.2
-0.2
-0.205
-0.2
-0.205
-0.195
-0.18
-0.185
-0.17
-0.18
-0.165
-0.155
-0.175
-0.175
-0.19
-0.19
-0.19
-0.205
-0.205
-0.19
-0.18
-0.18
-0.155
-0.165
-0.155
-0.16
-0.16
-0.18
-0.18
-0.19
-0.175
-0.175
-0.165
-0.16
-0.165
-0.15
-0.155
-0.155
-0.165
-0.185
-0.175
-0.16
-0.17
-0.17
-0.165
-0.155
-0.155
-0.155
-0.15
-0.135
-0.14
-0.135
-0.14
-0.14
-0.145
-0.135
-0.125
-0.12
-0.125
-0.125
-0.12
-0.115
-0.125
-0.115
-0.125
-0.115
-0.12
-0.105
-0.105
-0.09
-0.085
-0.08
-0.075
-0.065
-0.06
-0.07
-0.065
-0.06
-0.06
-0.06
-0.045
-0.035
-0.02
-0.015
-0.02
-0.015
-0.01
-0.025
-0.025
-0.02
-0.015
-0.01
0.005
0.005
0.03
0.015
0.015
0.01
0.015
0.02
0.0
-0.005
0.005
-0.005
-0.01
-0.01
-0.02
-0.035
-0.055
-0.08
-0.105
-0.125
-0.15
-0.16
-0.175
-0.19
-0.19
-0.21
-0.215
-0.225
-0.235
-0.255
-0.265
-0.275
-0.295
-0.3
-0.31
-0.31
-0.305
-0.32
-0.295
-0.31
-0.31
-0.335
-0.34
-0.345
-0.365
-0.345
-0.345
-0.36
-0.335
-0.335
-0.34
-0.335
-0.34
-0.34
-0.345
-0.34
-0.34
-0.345
-0.34
-0.325
-0.32
-0.33
-0.315
-0.31
-0.31
-0.305
-0.31
-0.305
-0.31
-0.33
-0.32
-0.31
-0.295
-0.29
-0.285
-0.28
-0.29
-0.29
-0.285
-0.29
-0.3
-0.305
-0.305
-0.3
-0.305
-0.305
-0.295
-0.31
-0.31
-0.295
-0.31
-0.315
-0.315
-0.33
-0.335
-0.335
-0.335
-0.33
-0.31
-0.32
-0.32
-0.33
-0.34
-0.345
-0.365
-0.365
-0.365
-0.36
-0.35
-0.35
-0.345
-0.35
-0.36
-0.365
-0.385
-0.38
-0.375
-0.385
-0.38
-0.375
-0.385
-0.38
-0.37
-0.365
-0.37
-0.365
-0.375
-0.38
-0.39
-0.385
-0.39
-0.385
-0.38
-0.365
-0.37
-0.36
-0.355
-0.35
-0.345
-0.34
-0.335
-0.33
-0.32
-0.305
-0.31
-0.295
-0.27
-0.255
-0.245
-0.235
-0.245
-0.25
-0.255
-0.27
-0.28
-0.27
-0.265
-0.255
-0.245
-0.235
-0.25
-0.26
-0.295
-0.3
-0.33
-0.35
-0.375
-0.39
-0.395
-0.405
-0.405
-0.395
-0.4
-0.41
-0.42
-0.42
-0.435
-0.435
-0.445
-0.445
-0.44
-0.44
-0.44
-0.44
-0.445
-0.46
-0.455
-0.46
-0.47
-0.48
-0.47
-0.47
-0.46
-0.465
-0.455
-0.445
-0.445
-0.445
-0.445
-0.455
-0.46
-0.455
-0.45
-0.455
-0.44
-0.42
-0.41
-0.41
-0.4
-0.39
-0.375
-0.325
-0.24
-0.095
0.12
0.41
0.785
1.19
1.545
1.77
1.755
1.455
0.895
0.255
-0.385
-1.025
-1.35
-1.315
-1.1
-0.81
-0.535
-0.35
-0.26
-0.24
-0.28
-0.34
-0.395
-0.425
-0.44
-0.445
-0.42
-0.405
-0.385
-0.38
-0.37
-0.385
-0.385
-0.385
-0.4
-0.41
-0.41
-0.405
-0.395
-0.395
-0.39
-0.38
-0.385
-0.385
-0.4
-0.41
-0.405
-0.42
-0.41
-0.41
-0.405
-0.395
-0.38
-0.39
-0.395
-0.395
-0.4
-0.405
-0.41
-0.41
-0.425
-0.425
-0.42
-0.41
-0.405
-0.4
-0.395
-0.395
-0.405
-0.395
-0.42
-0.415
-0.41
-0.42
-0.415
-0.41
-0.4
-0.385
-0.405
-0.4
-0.41
-0.405
-0.415
-0.415
-0.415
-0.42
-0.405
-0.41
-0.395
-0.39
-0.38
-0.38
-0.385
-0.375
-0.39
-0.4
-0.39
-0.395
-0.38
-0.37
-0.365
-0.35
-0.355
-0.35
-0.35
-0.36
-0.355
-0.37
-0.355
-0.345
-0.35
-0.325
-0.325
-0.325
-0.315
-0.325
-0.32
-0.315
-0.315
-0.32
-0.33
-0.31
-0.31
-0.305
-0.305
-0.305
-0.295
-0.3
-0.305
-0.295
-0.31
-0.31
-0.325
-0.325
-0.335
-0.345
-0.365
-0.375
-0.39
-0.42
-0.44
-0.445
-0.475
-0.5
-0.515
-0.54
-0.54
-0.56
-0.555
-0.58
-0.585
-0.595
-0.62
-0.625
-0.63
-0.63
-0.645
-0.645
-0.645
-0.64
-0.635
-0.635
-0.64
-0.645
-0.645
-0.66
-0.675
-0.67
-0.68
-0.675
-0.66
-0.645
-0.63
-0.635
-0.645
-0.64
-0.64
-0.655
-0.66
-0.655
-0.67
-0.65
-0.645
-0.64
-0.64
-0.625
-0.625
-0.625
-0.625
-0.635
-0.64
-0.645
-0.64
-0.64
-0.625
-0.61
-0.61
-0.605
-0.61
-0.615
-0.63
-0.635
-0.64
-0.645
-0.635
-0.645
-0.63
-0.635
-0.625
-0.635
-0.64
-0.65
-0.65
-0.645
-0.665
-0.67
-0.665
-0.67
-0.67
-0.665
-0.675
-0.665
-0.67
-0.69
-0.7
-0.715
-0.705
-0.72
-0.72
-0.73
-0.71
-0.71
-0.705
-0.69
-0.695
-0.685
-0.71
-0.71
-0.705
-0.71
-0.7
-0.69
-0.67
-0.66
-0.64
-0.625
-0.615
-0.615
-0.605
-0.6
-0.595
-0.58
-0.57
-0.565
-0.555
-0.565
-0.565
-0.565
-0.57
-0.575
-0.58
-0.585
-0.585
-0.6
-0.615
-0.62
-0.625
-0.655
-0.67
-0.685
-0.695
-0.715
-0.745
-0.755
-0.765
-0.765
-0.755
-0.755
-0.755
-0.755
-0.745
-0.76
-0.765
-0.76
-0.795
-0.795
-0.79
-0.8
-0.795
-0.79
-0.785
-0.785
-0.77
-0.78
-0.785
-0.775
-0.79
-0.79
-0.785
-0.79
-0.79
-0.79
-0.775
-0.775
-0.745
-0.73
-0.735
-0.725
-0.745
-0.74
-0.715
-0.675
-0.585
-0.45
-0.225
0.06
0.42
0.825
1.195
1.46
1.545
1.405
1.01
0.395
-0.245
-0.885
-1.465
-1.67
-1.595
-1.365
-1.09
-0.855
-0.695
-0.615
-0.6
-0.635
-0.675
-0.7
-0.72
-0.745
-0.735
-0.71
-0.705
-0.7
-0.7
-0.71
-0.715
-0.71
-0.73
-0.715
-0.71
-0.69
-0.69
-0.695
-0.69
-0.675
-0.7
-0.695
-0.705
-0.71
-0.71
-0.71
-0.71
-0.705
-0.705
-0.695
-0.7
-0.69
-0.705
-0.695
-0.705
-0.71
-0.705
-0.705
-0.695
-0.685
-0.68
-0.685
-0.68
-0.68
-0.695
-0.715
-0.71
-0.715
-0.705
-0.71
-0.705
-0.7
-0.69
-0.67
-0.675
-0.675
-0.68
-0.68
-0.69
-0.685
-0.7
-0.7
-0.68
-0.67
-0.66
-0.66
-0.65
-0.665
-0.655
-0.66
-0.66
-0.665
-0.655
-0.65
-0.64
-0.65
-0.635
-0.63
-0.63
-0.615
-0.62
-0.62
-0.625
-0.625
-0.61
-0.615
-0.595
-0.59
-0.585
-0.58
-0.575
-0.575
-0.57
-0.575
-0.58
-0.58
-0.575
-0.56
-0.56
-0.55
-0.555
-0.54
-0.54
-0.555
-0.55
-0.56
-0.56
-0.57
-0.57
-0.565
-0.55
-0.55
-0.55
-0.535
-0.55
-0.56
-0.595
-0.605
-0.64
-0.66
-0.67
-0.69
-0.71
-0.72
-0.73
-0.75
-0.77
-0.795
-0.81
-0.815
-0.85
-0.845
-0.845
-0.86
-0.845
-0.85
-0.85
-0.845
-0.855
-0.87
-0.865
-0.87
-0.88
-0.885
-0.885
-0.885
-0.89
-0.885
-0.885
-0.885
-0.88
-0.875
-0.875
-0.885
-0.895
-0.895
-0.9
-0.895
-0.885
-0.875
-0.88
-0.855
-0.865
-0.855
-0.87
-0.875
-0.885
-0.875
-0.875
-0.86
-0.85
-0.83
-0.83
-0.845
-0.84
-0.835
-0.845
-0.845
-0.855
-0.85
-0.865
-0.845
-0.845
-0.84
-0.825
-0.82
-0.825
-0.835
-0.84
-0.85
-0.86
-0.87
-0.88
-0.875
-0.87
-0.875
-0.87
-0.87
-0.87
-0.875
-0.875
-0.88
-0.905
-0.9
-0.89
-0.9
-0.885
-0.89
-0.9
-0.875
-0.885
-0.885
-0.89
-0.9
-0.89
-0.885
-0.87
-0.86
-0.855
-0.835
-0.825
-0.81
-0.81
-0.81
-0.815
-0.8
-0.8
-0.78
-0.765
-0.75
-0.74
-0.75
-0.75
-0.75
-0.755
-0.765
-0.755
-0.75
-0.75
-0.765
-0.76
-0.77
-0.785
-0.785
-0.795
-0.815
-0.84
-0.87
-0.895
-0.915
-0.925
-0.935
-0.935
-0.93
-0.925
-0.93
-0.915
-0.925
-0.925
-0.92
-0.945
-0.94
-0.945
-0.955
-0.965
-0.965
-0.965
-0.95
-0.935
-0.935
-0.945
-0.935
-0.955
-0.955
-0.95
-0.96
-0.96
-0.95
-0.935
-0.92
-0.905
-0.895
-0.915
-0.91
-0.89
-0.89
-0.88
-0.885
-0.885
-0.875
-0.825
-0.735
-0.605
-0.425
-0.185
0.145
0.52
0.905
1.23
1.47
1.53
1.38
0.99
0.42
-0.22
-0.86
-1.465
-1.745
-1.755
-1.575
-1.335
-1.085
-0.91
-0.8
-0.75
-0.755
-0.775
-0.785
-0.81
-0.825
-0.84
-0.845
-0.855
-0.855
-0.85
-0.84
-0.835
-0.825
-0.81
-0.805
-0.815
-0.815
-0.82
-0.815
-0.83
-0.825
-0.84
-0.825
-0.83
-0.815
-0.81
-0.8
-0.805
-0.805
-0.805
-0.82
-0.82
-0.82
-0.815
-0.825
-0.82
-0.815
-0.805
-0.795
-0.79
-0.795
-0.805
-0.82
-0.83
-0.83
-0.83
-0.815
-0.81
-0.805
-0.8
-0.78
-0.795
-0.79
-0.805
-0.785
-0.82
-0.795
-0.805
-0.81
-0.795
-0.8
-0.78
-0.785
-0.785
-0.76
-0.765
-0.775
-0.77
-0.775
-0.77
-0.775
-0.76
-0.76
-0.745
-0.74
-0.735
-0.735
-0.73
-0.735
-0.74
-0.75
-0.74
-0.725
-0.715
-0.71
-0.71
-0.71
-0.685
-0.68
-0.685
-0.68
-0.68
-0.68
-0.67
-0.68
-0.655
-0.64
-0.63
-0.63
-0.615
-0.615
-0.615
-0.615
-0.63
-0.64
-0.625
-0.625
-0.615
-0.61
-0.61
-0.595
-0.6
-0.61
-0.615
-0.62
-0.625
-0.635
-0.635
-0.65
-0.665
-0.675
-0.69
-0.705
-0.72
-0.735
-0.755
-0.785
-0.805
-0.815
-0.84
-0.84
-0.86
-0.855
-0.875
-0.885
-0.88
-0.885
-0.9
-0.92
-0.92
-0.925
-0.94
-0.94
-0.94
-0.925
-0.92
-0.92
-0.93
-0.935
-0.935
-0.95
-0.965
-0.975
-0.965
-0.96
-0.945
-0.95
-0.945
-0.935
-0.95
-0.935
-0.94
-0.935
-0.94
-0.95
-0.955
-0.945
-0.945
-0.94
-0.92
-0.91
-0.905
-0.89
-0.9
-0.915
-0.915
-0.9
-0.91
-0.905
-0.89
-0.9
-0.885
-0.87
-0.87
-0.865
-0.885
-0.89
-0.88
-0.895
-0.895
-0.895
-0.885
-0.885
-0.89
-0.87
-0.87
-0.875
-0.885
-0.895
-0.895
-0.9
-0.915
-0.915
-0.905
-0.91
-0.925
-0.905
-0.9
-0.895
-0.895
-0.91
-0.92
-0.925
-0.92
-0.915
-0.915
-0.905
-0.905
-0.9
-0.9
-0.895
-0.895
-0.92
-0.91
-0.935
-0.93
-0.935
-0.915
-0.915
-0.91
-0.9
-0.9
-0.9
-0.91
-0.92
-0.92
-0.925
-0.925
-0.92
-0.915
-0.915
-0.91
-0.905
-0.9
-0.905
-0.91
-0.92
-0.935
-0.935
-0.935
-0.925
-0.915
-0.91
-0.905
-0.905
-0.89
-0.875
-0.88
-0.88
-0.875
-0.865
-0.85
-0.83
-0.815
-0.8
-0.79
-0.795
-0.785
-0.77
-0.76
-0.755
-0.765
-0.77
-0.765
-0.775
-0.77
-0.77
-0.77
-0.765
-0.765
-0.765
-0.765
-0.77
-0.78
-0.805
-0.815
-0.83
-0.84
-0.86
-0.88
-0.895
-0.885
-0.895
-0.895
-0.9
-0.9
-0.9
-0.92
-0.905
-0.91
-0.9
-0.9
-0.89
-0.885
-0.89
-0.9
-0.91
-0.915
-0.925
-0.92
-0.93
-0.93
-0.905
-0.9
-0.9
-0.895
-0.9
-0.89
-0.905
-0.91
-0.9
-0.905
-0.89
-0.885
-0.865
-0.85
-0.835
-0.83
-0.83
-0.82
-0.795
-0.755
-0.695
-0.575
-0.4
-0.175
0.145
0.525
0.93
1.29
1.53
1.595
1.41
0.995
0.38
-0.26
-0.9
-1.495
-1.74
-1.73
-1.535
-1.285
-1.02
-0.85
-0.735
-0.7
-0.71
-0.745
-0.775
-0.815
-0.825
-0.825
-0.815
-0.815
-0.805
-0.805
-0.8
-0.805
-0.81
-0.805
-0.81
-0.805
-0.805
-0.785
-0.765
-0.775
-0.77
-0.78
-0.785
-0.785
-0.79
-0.785
-0.785
-0.79
-0.77
-0.785
-0.775
-0.765
-0.775
-0.78
-0.78
-0.795
-0.805
-0.795
-0.8
-0.795
-0.78
-0.765
-0.755
-0.75
-0.76
-0.765
-0.765
-0.77
-0.78
-0.78
-0.79
-0.77
-0.775
-0.765
-0.755
-0.755
-0.76
-0.76
-0.765
-0.765
-0.76
-0.765
-0.755
-0.755
-0.755
-0.75
-0.735
-0.73
-0.73
-0.72
-0.73
-0.73
-0.73
-0.73
-0.73
-0.715
-0.715
-0.71
-0.695
-0.685
-0.68
-0.68
-0.69
-0.685
-0.7
-0.695
-0.695
-0.7
-0.65
-0.655
-0.64
-0.625
-0.62
-0.62
-0.61
-0.62
-0.62
-0.615
-0.615
-0.6
-0.6
-0.59
-0.565
-0.565
-0.565
-0.575
-0.59
-0.585
-0.58
-0.585
-0.585
-0.58
-0.58
-0.57
-0.55
-0.545
-0.545
-0.555
-0.575
-0.605
-0.615
-0.635
-0.655
-0.67
-0.68
-0.69
-0.7
-0.72
-0.735
-0.765
-0.775
-0.8
-0.815
-0.83
-0.835
-0.84
-0.84
-0.835
-0.83
-0.84
-0.845
-0.86
-0.865
-0.87
-0.89
-0.895
-0.88
-0.88
-0.88
-0.89
-0.89
-0.88
-0.885
-0.875
-0.89
-0.9
-0.905
-0.905
-0.895
-0.89
-0.89
-0.875
-0.85
-0.86
-0.865
-0.86
-0.865
-0.865
-0.865
-0.86
-0.855
-0.865
-0.855
-0.845
-0.855
-0.825
-0.82
-0.815
-0.835
-0.83
-0.84
-0.83
-0.84
-0.835
-0.815
-0.815
-0.81
-0.8
-0.805
-0.81
-0.815
-0.81
-0.82
-0.83
-0.825
-0.835
-0.83
-0.83
-0.815
-0.82
-0.815
-0.83
-0.83
-0.84
-0.835
-0.855
-0.85
-0.865
-0.845
-0.85
-0.84
-0.835
-0.84
-0.845
-0.845
-0.855
-0.87
-0.855
-0.855
-0.86
-0.85
-0.845
-0.845
-0.83
-0.835
-0.845
-0.845
-0.85
-0.86
-0.865
-0.85
-0.855
-0.85
-0.84
-0.845
-0.85
-0.85
-0.855
-0.85
-0.86
-0.86
-0.855
-0.855
-0.865
-0.85
-0.86
-0.85
-0.84
-0.845
-0.845
-0.845
-0.845
-0.845
-0.855
-0.85
-0.845
-0.85
-0.845
-0.835
-0.835
-0.845
-0.84
-0.85
-0.855
-0.855
-0.86
-0.855
-0.865
-0.86
-0.845
-0.835
-0.84
-0.84
-0.83
-0.84
-0.835
-0.845
-0.85
-0.845
-0.845
-0.845
-0.835
-0.815
-0.82
-0.815
-0.81
-0.81
-0.805
-0.81
-0.795
-0.785
-0.77
-0.75
-0.74
-0.715
-0.705
-0.705
-0.7
-0.7
-0.69
-0.7
-0.695
-0.69
-0.705
-0.7
-0.7
-0.7
-0.695
-0.7
-0.695
-0.7
-0.715
-0.725
-0.735
-0.75
-0.775
-0.79
-0.79
-0.79
-0.8
-0.81
-0.805
-0.81
-0.805
-0.82
-0.82
-0.82
-0.83
-0.835
-0.82
-0.81
-0.81
-0.81
-0.82
-0.815
-0.82
-0.83
-0.835
-0.84
-0.84
-0.825
-0.83
-0.82
-0.815
-0.815
-0.815
-0.815
-0.83
-0.82
-0.81
-0.79
-0.79
-0.78
-0.765
-0.75
-0.74
-0.74
-0.73
-0.73
-0.71
-0.69
-0.625
-0.525
-0.36
-0.135
0.15
0.505
0.895
1.245
1.51
1.615
1.53
1.205
0.69
0.05
-0.59
-1.225
-1.565
-1.645
-1.5
-1.27
-1.01
-0.825
-0.68
-0.62
-0.62
-0.635
-0.66
-0.685
-0.695
-0.705
-0.69
-0.69
-0.68
-0.68
-0.675
-0.68
-0.685
-0.68
-0.69
-0.675
-0.675
-0.665
-0.655
-0.655
-0.66
-0.67
-0.665
-0.67
-0.665
-0.68
-0.675
-0.67
-0.675
-0.665
-0.645
-0.635
-0.64
-0.635
-0.64
-0.655
-0.66
-0.66
-0.665
-0.655
-0.655
-0.65
-0.64
-0.635
-0.645
-0.635
-0.645
-0.67
-0.66
-0.645
-0.66
-0.63
-0.625
-0.625
-0.62
-0.615
-0.615
-0.625
-0.62
-0.62
-0.63
-0.625
-0.625
-0.615
-0.61
-0.59
-0.59
-0.58
-0.58
-0.59
-0.595
-0.59
-0.6
-0.59
-0.59
-0.575
-0.57
-0.565
-0.55
-0.54
-0.545
-0.55
-0.55
-0.545
-0.55
-0.525
-0.53
-0.515
-0.52
-0.495
-0.49
-0.485
-0.475
-0.485
-0.475
-0.475
-0.495
-0.475
-0.475
-0.47
-0.46
-0.46
-0.455
-0.45
-0.445
-0.45
-0.45
-0.455
-0.455
-0.45
-0.44
-0.44
-0.45
-0.45
-0.445
-0.465
-0.47
-0.485
-0.505
-0.52
-0.535
-0.545
-0.56
-0.58
-0.585
-0.575
-0.6
-0.605
-0.61
-0.625
-0.645
-0.66
-0.68
-0.675
-0.67
-0.67
-0.67
-0.67
-0.66
-0.665
-0.67
-0.68
-0.685
-0.685
-0.695
-0.705
-0.71
-0.705
-0.7
-0.69
-0.695
-0.695
-0.695
-0.68
-0.69
-0.695
-0.685
-0.685
-0.675
-0.68
-0.665
-0.66
-0.65
-0.655
-0.665
-0.655
-0.655
-0.665
-0.67
-0.665
-0.655
-0.645
-0.645
-0.62
-0.62
-0.615
-0.62
-0.63
-0.625
-0.64
-0.645
-0.64
-0.635
-0.635
-0.62
-0.62
-0.605
-0.61
-0.62
-0.625
-0.64
-0.645
-0.64
-0.645
-0.64
-0.635
-0.625
-0.625
-0.615
-0.63
-0.635
-0.65
-0.655
-0.66
-0.655
-0.675
-0.675
-0.65
-0.655
-0.635
-0.63
-0.625
-0.64
-0.645
-0.645
-0.665
-0.665
-0.655
-0.655
-0.65
-0.66
-0.645
-0.64
-0.64
-0.645
-0.655
-0.665
-0.665
-0.67
-0.675
-0.68
-0.665
-0.665
-0.66
-0.64
-0.65
-0.645
-0.65
-0.66
-0.65
-0.66
-0.66
-0.66
-0.66
-0.665
-0.645
-0.635
-0.63
-0.64
-0.645
-0.65
-0.66
-0.66
-0.66
-0.66
-0.65
-0.655
-0.66
-0.655
-0.645
-0.645
-0.65
-0.66
-0.655
-0.66
-0.655
-0.65
-0.645
-0.635
-0.635
-0.63
-0.63
-0.63
-0.625
-0.63
-0.64
-0.655
-0.655
-0.655
-0.635
-0.63
-0.615
-0.605
-0.58
-0.585
-0.58
-0.57
-0.565
-0.555
-0.55
-0.535
-0.53
-0.51
-0.49
-0.485
-0.49
-0.5
-0.51
-0.515
-0.525
-0.525
-0.54
-0.535
-0.535
-0.525
-0.5
-0.525
-0.53
-0.545
-0.575
-0.595
-0.615
-0.635
-0.65
-0.64
-0.635
-0.64
-0.625
-0.62
-0.615
-0.625
-0.635
-0.64
-0.65
-0.66
-0.655
-0.66
-0.66
-0.65
-0.645
-0.64
-0.645
-0.64
-0.645
-0.64
-0.65
-0.66
-0.66
-0.635
-0.64
-0.63
-0.61
-0.61
-0.595
-0.6
-0.61
-0.605
-0.595
-0.605
-0.595
-0.59
-0.56
-0.515
-0.44
-0.31
-0.14
0.13
0.47
0.88
1.3
1.6
1.685
1.475
0.93
0.29
-0.35
-0.99
-1.455
-1.43
-1.2
-0.9
-0.645
-0.47
-0.385
-0.375
-0.435
-0.475
-0.52
-0.54
-0.555
-0.545
-0.525
-0.525
-0.515
-0.53
-0.535
-0.525
-0.525
-0.52
-0.515
-0.5
-0.51
-0.51
-0.53
-0.525
-0.525
-0.52
-0.515
-0.52
-0.515
-0.505
-0.505
-0.49
-0.495
-0.49
-0.5
-0.495
-0.505
-0.51
-0.52
-0.51
-0.505
-0.505
-0.5
-0.495
-0.49
-0.485
-0.49
-0.495
-0.5
-0.505
-0.51
-0.51
-0.505
-0.495
-0.475
-0.48
-0.48
-0.48
-0.47
-0.49
-0.48
-0.49
-0.48
-0.475
-0.475
-0.465
-0.46
-0.45
-0.455
-0.45
-0.46
-0.455
-0.45
-0.46
-0.455
-0.455
-0.445
-0.44
-0.43
-0.425
-0.415
-0.4
-0.41
-0.415
-0.405
-0.41
-0.425
-0.41
-0.405
-0.405
-0.39
-0.385
-0.37
-0.37
-0.35
-0.35
-0.36
-0.365
-0.36
-0.365
-0.365
-0.36
-0.355
-0.34
-0.35
-0.34
-0.355
-0.35
-0.355
-0.36
-0.36
-0.365
-0.35
-0.34
-0.345
-0.33
-0.34
-0.34
-0.35
-0.38
-0.4
-0.41
-0.425
-0.435
-0.445
-0.445
-0.455
-0.46
-0.48
-0.49
-0.51
-0.535
-0.55
-0.58
-0.595
-0.61
-0.605
-0.605
-0.605
-0.61
-0.615
-0.615
-0.625
-0.635
-0.655
-0.65
-0.66
-0.66
-0.655
-0.655
-0.655
-0.645
-0.645
-0.65
-0.645
-0.66
-0.67
-0.685
-0.68
-0.68
-0.67
-0.65
-0.635
-0.625
-0.625
-0.63
-0.635
-0.645
-0.625
-0.63
-0.635
-0.63
-0.635
-0.63
-0.615
-0.6
-0.61
-0.605
-0.61
-0.62
-0.63
-0.615
-0.625
-0.625
-0.61
-0.6
-0.58
-0.58
-0.59
-0.585
-0.595
-0.595
-0.615
-0.625
-0.615
-0.615
-0.61
-0.615
-0.615
-0.62
-0.61
-0.61
-0.615
-0.615
-0.625
-0.625
-0.65
-0.635
-0.64
-0.64
-0.63
-0.63
-0.645
-0.645
-0.655
-0.655
-0.67
-0.67
-0.68
-0.66
-0.675
-0.665
-0.665
-0.665
-0.665
-0.67
-0.665
-0.68
-0.69
-0.695
-0.68
-0.685
-0.68
-0.675
-0.67
-0.66
-0.65
-0.65
-0.655
-0.635
-0.635
-0.64
-0.63
-0.62
-0.61
-0.605
-0.585
-0.56
-0.545
-0.54
-0.525
-0.525
-0.52
-0.525
-0.54
-0.545
-0.555
-0.54
-0.545
-0.545
-0.535
-0.53
-0.52
-0.535
-0.555
-0.565
-0.585
-0.595
-0.615
-0.63
-0.645
-0.64
-0.655
-0.675
-0.69
-0.7
-0.715
-0.7
-0.705
-0.705
-0.695
-0.7
-0.71
-0.695
-0.705
-0.7
-0.705
-0.73
-0.735
-0.74
-0.725
-0.75
-0.725
-0.725
-0.72
-0.71
-0.705
-0.71
-0.725
-0.73
-0.715
-0.715
-0.715
-0.705
-0.695
-0.675
-0.67
-0.65
-0.65
-0.635
-0.6
-0.545
-0.45
-0.29
-0.05
0.27
0.67
1.08
1.445
1.71
1.805
1.66
1.255
0.65
0.01
-0.63
-1.27
-1.57
-1.525
-1.305
-1.03
-0.76
-0.59
-0.505
-0.5
-0.525
-0.575
-0.61
-0.645
-0.66
-0.64
-0.63
-0.635
-0.625
-0.605
-0.615
-0.63
-0.63
-0.645
-0.64
-0.64
-0.625
-0.625
-0.615
-0.605
-0.595
-0.6
-0.6
-0.6
-0.61
-0.615
-0.625
-0.63
-0.62
-0.615
-0.615
-0.6
-0.59
-0.585
-0.585
-0.585
-0.6
-0.615
-0.625
-0.615
-0.61
-0.61
-0.6
-0.6
-0.58
-0.595
-0.59
-0.59
-0.605
-0.61
-0.605
-0.615
-0.605
-0.595
-0.59
-0.58
-0.57
-0.565
-0.575
-0.575
-0.58
-0.59
-0.585
-0.595
-0.6
-0.575
-0.57
-0.555
-0.555
-0.54
-0.54
-0.545
-0.54
-0.545
-0.555
-0.555
-0.55
-0.55
-0.535
-0.525
-0.525
-0.51
-0.52
-0.515
-0.515
-0.52
-0.51
-0.505
-0.5
-0.495
-0.48
-0.47
-0.455
-0.45
-0.455
-0.44
-0.45
-0.45
-0.445
-0.435
-0.435
-0.425
-0.42
-0.405
-0.405
-0.39
-0.39
-0.395
-0.405
-0.415
-0.42
-0.42
-0.425
-0.415
-0.425
-0.42
-0.425
-0.425
-0.45
-0.46
-0.485
-0.5
-0.53
-0.55
-0.585
-0.605
-0.6
-0.62
-0.61
-0.625
-0.635
-0.655
-0.67
-0.69
-0.71
-0.725
-0.73
-0.735
-0.74
-0.74
-0.745
-0.74
-0.745
-0.755
-0.765
-0.775
-0.775
-0.78
-0.785
-0.78
-0.775
-0.78
-0.77
-0.765
-0.77
-0.775
-0.78
-0.785
-0.8
-0.8
-0.79
-0.79
-0.78
-0.775
-0.76
-0.75
-0.755
-0.755
-0.76
-0.76
-0.76
-0.76
-0.78
-0.765
-0.75
-0.74
-0.73
-0.73
-0.71
-0.715
-0.715
-0.715
-0.72
-0.725
-0.725
-0.71
-0.71
-0.705
-0.7
-0.69
-0.695
-0.695
-0.705
-0.715
-0.72
-0.715
-0.735
-0.72
-0.725
-0.72
-0.72
-0.72
-0.72
-0.745
-0.745
-0.745
-0.75
-0.755
-0.755
-0.755
-0.75
-0.76
-0.75
-0.735
-0.735
-0.74
-0.745
-0.755
-0.755
-0.76
-0.76
-0.76
-0.755
-0.75
-0.765
-0.74
-0.75
-0.75
-0.765
-0.765
-0.77
-0.78
-0.775
-0.775
-0.765
-0.77
-0.755
-0.755
-0.75
-0.755
-0.765
-0.765
-0.77
-0.785
-0.785
-0.795
-0.78
-0.77
-0.745
-0.745
-0.735
-0.75
-0.745
-0.725
-0.73
-0.73
-0.72
-0.7
-0.68
-0.66
-0.645
-0.625
-0.625
-0.62
-0.61
-0.615
-0.62
-0.64
-0.63
-0.645
-0.635
-0.625
-0.61
-0.605
-0.61
-0.615
-0.63
-0.655
-0.67
-0.695
-0.715
-0.74
-0.745
-0.755
-0.755
-0.755
-0.77
-0.76
-0.775
-0.785
-0.785
-0.785
-0.785
-0.81
-0.79
-0.79
-0.775
-0.77
-0.79
-0.78
-0.785
-0.795
-0.805
-0.8
-0.8
-0.805
-0.795
-0.78
-0.765
-0.76
-0.765
-0.765
-0.77
-0.76
-0.775
-0.76
-0.76
-0.745
-0.735
-0.725
-0.7
-0.685
-0.665
-0.615
-0.53
-0.36
-0.145
0.16
0.555
1.01
1.4
1.655
1.69
1.41
0.835
0.195
-0.445
-1.085
-1.64
-1.635
-1.405
-1.1
-0.82
-0.625
-0.51
-0.5
-0.535
-0.605
-0.66
-0.705
-0.72
-0.73
-0.705
-0.69
-0.67
-0.665
-0.655
-0.66
-0.655
-0.66
-0.665
-0.67
-0.675
-0.68
-0.68
-0.67
-0.66
-0.66
-0.66
-0.645
-0.655
-0.645
-0.635
-0.645
-0.66
-0.655
-0.655
-0.66
-0.65
-0.655
-0.655
-0.635
-0.63
-0.625
-0.63
-0.635
-0.65
-0.645
-0.665
-0.65
-0.65
-0.64
-0.635
-0.63
-0.645
-0.635
-0.655
-0.645
-0.65
-0.64
-0.64
-0.64
-0.635
-0.62
-0.615
-0.605
-0.605
-0.61
-0.605
-0.62
-0.605
-0.615
-0.615
-0.605
-0.61
-0.6
-0.585
-0.565
-0.565
-0.565
-0.565
-0.58
-0.585
-0.585
-0.585
-0.56
-0.555
-0.54
-0.53
-0.52
-0.515
-0.515
-0.5
-0.5
-0.51
-0.505
-0.5
-0.48
-0.475
-0.46
-0.45
-0.435
-0.445
-0.44
-0.44
-0.46
-0.46
-0.455
-0.455
-0.45
-0.45
-0.435
-0.44
-0.43
-0.435
-0.42
-0.44
-0.45
-0.465
-0.47
-0.495
-0.5
-0.51
-0.52
-0.54
