Lead II
-0.705
-0.69
-0.685
-0.69
-0.69
-0.69
-0.685
-0.69
-0.695
-0.705
-0.695
-0.705
-0.69
-0.685
-0.685
-0.675
-0.665
-0.67
-0.67
-0.67
-0.685
-0.675
-0.68
-0.685
-0.68
-0.68
-0.67
-0.65
-0.65
-0.65
-0.655
-0.66
-0.67
-0.665
-0.665
-0.67
-0.665
-0.655
-0.64
-0.645
-0.645
-0.625
-0.635
-0.635
-0.655
-0.65
-0.65
-0.66
-0.66
-0.65
-0.635
-0.61
-0.615
-0.615
-0.615
-0.61
-0.62
-0.625
-0.615
-0.615
-0.605
-0.62
-0.615
-0.605
-0.6
-0.59
-0.595
-0.595
-0.595
-0.585
-0.585
-0.575
-0.575
-0.565
-0.55
-0.55
-0.525
-0.52
-0.52
-0.52
-0.515
-0.52
-0.53
-0.525
-0.515
-0.515
-0.495
-0.485
-0.485
-0.475
-0.47
-0.48
-0.495
-0.485
-0.495
-0.485
-0.49
-0.485
-0.485
-0.47
-0.465
-0.465
-0.48
-0.495
-0.505
-0.535
-0.555
-0.565
-0.57
-0.585
-0.6
-0.6
-0.615
-0.63
-0.655
-0.665
-0.68
-0.705
-0.72
-0.74
-0.755
-0.765
-0.75
-0.755
-0.75
-0.765
-0.77
-0.78
-0.785
-0.79
-0.795
-0.795
-0.785
-0.79
-0.78
-0.8
-0.79
-0.78
-0.79
-0.805
-0.8
-0.795
-0.805
-0.8
-0.805
-0.795
-0.78
-0.79
-0.77
-0.755
-0.76
-0.765
-0.76
-0.77
-0.765
-0.765
-0.75
-0.745
-0.745
-0.725
-0.72
-0.715
-0.72
-0.715
-0.715
-0.72
-0.715
-0.725
-0.74
-0.725
-0.71
-0.71
-0.715
-0.71
-0.7
-0.71
-0.725
-0.73
-0.74
-0.74
-0.74
-0.73
-0.745
-0.73
-0.725
-0.73
-0.72
-0.73
-0.74
-0.745
-0.735
-0.75
-0.735
-0.74
-0.735
-0.73
-0.72
-0.725
-0.715
-0.725
-0.73
-0.73
-0.74
-0.73
-0.735
-0.735
-0.725
-0.72
-0.71
-0.705
-0.715
-0.72
-0.74
-0.73
-0.725
-0.74
-0.735
-0.72
-0.725
-0.715
-0.7
-0.69
-0.71
-0.715
-0.72
-0.71
-0.715
-0.72
-0.72
-0.72
-0.715
-0.695
-0.69
-0.695
-0.68
-0.67
-0.65
-0.645
-0.64
-0.62
-0.62
-0.605
-0.59
-0.58
-0.55
-0.54
-0.53
-0.525
-0.525
-0.525
-0.555
-0.56
-0.56
-0.54
-0.535
-0.52
-0.52
-0.51
-0.52
-0.52
-0.535
-0.55
-0.585
-0.585
-0.61
-0.63
-0.63
-0.645
-0.64
-0.65
-0.65
-0.655
-0.645
-0.665
-0.665
-0.67
-0.665
-0.66
-0.66
-0.67
-0.655
-0.665
-0.665
-0.675
-0.68
-0.675
-0.69
-0.69
-0.685
-0.675
-0.67
-0.67
-0.645
-0.645
-0.635
-0.635
-0.66
-0.64
-0.64
-0.635
-0.63
-0.625
-0.6
-0.595
-0.575
-0.56
-0.565
-0.5
-0.415
-0.28
-0.065
0.225
0.6
1.03
1.455
1.76
1.88
1.73
1.3
0.66
0.02
-0.62
-1.26
-1.52
-1.47
-1.23
-0.955
-0.695
-0.525
-0.435
-0.405
-0.42
-0.46
-0.5
-0.535
-0.545
-0.565
-0.54
-0.525
-0.52
-0.515
-0.51
-0.495
-0.505
-0.505
-0.515
-0.515
-0.525
-0.535
-0.52
-0.505
-0.505
-0.485
-0.485
-0.49
-0.5
-0.49
-0.5
-0.505
-0.505
-0.51
-0.495
-0.49
-0.485
-0.475
-0.475
-0.47
-0.46
-0.48
-0.485
-0.48
-0.5
-0.49
-0.475
-0.475
-0.47
-0.46
-0.46
-0.455
-0.47
-0.465
-0.47
-0.47
-0.47
-0.475
-0.47
-0.465
-0.455
-0.435
-0.445
-0.44
-0.43
-0.435
-0.435
-0.445
-0.455
-0.45
-0.435
-0.425
-0.42
-0.41
-0.415
-0.41
-0.41
-0.41
-0.405
-0.405
-0.42
-0.405
-0.4
-0.39
-0.375
-0.365
-0.37
-0.37
-0.355
-0.355
-0.355
-0.36
-0.365
-0.36
-0.345
-0.345
-0.34
-0.325
-0.315
-0.31
-0.31
-0.31
-0.3
-0.295
-0.295
-0.3
-0.305
-0.29
-0.28
-0.27
-0.275
-0.27
-0.265
-0.275
-0.275
-0.29
-0.28
-0.285
-0.28
-0.285
-0.28
-0.295
-0.305
-0.33
-0.34
-0.355
-0.37
-0.395
-0.41
-0.435
-0.45
-0.45
-0.46
-0.47
-0.48
-0.485
-0.5
-0.51
-0.525
-0.54
-0.545
-0.545
-0.55
-0.545
-0.55
-0.535
-0.53
-0.545
-0.545
-0.555
-0.555
-0.555
-0.56
-0.56
-0.55
-0.545
-0.535
-0.54
-0.535
-0.53
-0.53
-0.535
-0.535
-0.54
-0.545
-0.545
-0.545
-0.52
-0.52
-0.505
-0.51
-0.495
-0.495
-0.505
-0.505
-0.515
-0.515
-0.52
-0.51
-0.515
-0.495
-0.49
-0.485
-0.485
-0.49
-0.49
-0.49
-0.495
-0.5
-0.495
-0.49
-0.495
-0.48
-0.465
-0.465
-0.47
-0.465
-0.47
-0.485
-0.49
-0.495
-0.495
-0.49
-0.49
-0.485
-0.48
-0.475
-0.485
-0.48
-0.49
-0.495
-0.51
-0.515
-0.505
-0.51
-0.51
-0.505
-0.495
-0.49
-0.495
-0.49
-0.51
-0.52
-0.515
-0.53
-0.52
-0.52
-0.52
-0.515
-0.52
-0.505
-0.505
-0.51
-0.515
-0.52
-0.53
-0.53
-0.54
-0.535
-0.53
-0.52
-0.505
-0.505
-0.5
-0.5
-0.505
-0.505
-0.525
-0.525
-0.51
-0.495
-0.49
-0.49
-0.47
-0.465
-0.445
-0.43
-0.41
-0.42
-0.415
-0.415
-0.4
-0.39
-0.38
-0.355
-0.32
-0.305
-0.315
-0.325
-0.345
-0.355
-0.365
-0.365
-0.355
-0.345
-0.34
-0.34
-0.34
-0.36
-0.37
-0.38
-0.4
-0.435
-0.47
-0.485
-0.495
-0.495
-0.49
-0.485
-0.475
-0.47
-0.465
-0.475
-0.48
-0.48
-0.49
-0.49
-0.505
-0.5
-0.505
-0.5
-0.49
-0.49
-0.505
-0.505
-0.5
-0.515
-0.515
-0.515
-0.515
-0.515
-0.505
-0.51
-0.485
-0.49
-0.48
-0.48
-0.465
-0.475
-0.48
-0.47
-0.46
-0.465
-0.435
-0.43
-0.425
-0.415
-0.415
-0.425
-0.41
-0.38
-0.345
-0.28
-0.135
0.05
0.31
0.645
1.045
1.425
1.745
1.92
1.875
1.56
1.02
0.38
-0.26
-0.9
-1.29
-1.33
-1.15
-0.865
-0.615
-0.41
-0.29
-0.245
-0.265
-0.305
-0.345
-0.37
-0.39
-0.375
-0.365
-0.34
-0.345
-0.33
-0.34
-0.34
-0.355
-0.365
-0.36
-0.36
-0.36
-0.335
-0.335
-0.32
-0.325
-0.33
-0.345
-0.345
-0.35
-0.36
-0.36
-0.355
-0.35
-0.33
-0.325
-0.32
-0.32
-0.31
-0.325
-0.315
-0.315
-0.32
-0.325
-0.325
-0.33
-0.32
-0.31
-0.3
-0.285
-0.295
-0.29
-0.305
-0.32
-0.32
-0.325
-0.325
-0.305
-0.3
-0.29
-0.285
-0.28
-0.285
-0.295
-0.3
-0.3
-0.31
-0.31
-0.31
-0.285
-0.285
-0.26
-0.27
-0.28
-0.28
-0.285
-0.29
-0.29
-0.295
-0.28
-0.28
-0.265
-0.26
-0.245
-0.24
-0.235
-0.23
-0.23
-0.25
-0.245
-0.235
-0.24
-0.225
-0.225
-0.225
-0.2
-0.195
-0.2
-0.195
-0.185
-0.185
-0.195
-0.2
-0.185
-0.195
-0.195
-0.195
-0.175
-0.155
-0.165
-0.165
-0.18
-0.19
-0.185
-0.19
-0.195
-0.18
-0.185
-0.175
-0.16
-0.16
-0.165
-0.17
-0.18
-0.19
-0.22
-0.235
-0.255
-0.255
-0.27
-0.28
-0.3
-0.315
-0.335
-0.345
-0.37
-0.385
-0.4
-0.41
-0.425
-0.445
-0.445
-0.44
-0.44
-0.44
-0.445
-0.445
-0.455
-0.46
-0.455
-0.465
-0.46
-0.455
-0.455
-0.46
-0.465
-0.45
-0.455
-0.455
-0.46
-0.465
-0.455
-0.47
-0.47
-0.47
-0.455
-0.45
-0.45
-0.425
-0.43
-0.425
-0.43
-0.44
-0.435
-0.435
-0.455
-0.44
-0.43
-0.425
-0.42
-0.42
-0.415
-0.42
-0.425
-0.42
-0.43
-0.43
-0.425
-0.425
-0.425
-0.42
-0.405
-0.4
-0.4
-0.41
-0.41
-0.42
-0.43
-0.425
-0.445
-0.44
-0.435
-0.44
-0.435
-0.43
-0.455
-0.45
-0.46
-0.465
-0.455
-0.45
-0.465
-0.475
-0.47
-0.46
-0.455
-0.45
-0.465
-0.47
-0.465
-0.475
-0.465
-0.465
-0.45
-0.44
-0.425
-0.405
-0.395
-0.375
-0.37
-0.38
-0.36
-0.35
-0.34
-0.33
-0.32
-0.32
-0.325
-0.325
-0.325
-0.325
-0.325
-0.33
-0.33
-0.335
-0.345
-0.355
-0.365
-0.38
-0.4
-0.4
-0.42
-0.43
-0.45
-0.47
-0.49
-0.505
-0.515
-0.505
-0.505
-0.5
-0.505
-0.51
-0.51
-0.515
-0.51
-0.505
-0.525
-0.53
-0.535
-0.54
-0.55
-0.56
-0.54
-0.55
-0.54
-0.525
-0.54
-0.525
-0.525
-0.515
-0.54
-0.545
-0.555
-0.525
-0.525
-0.495
-0.475
-0.47
-0.465
-0.455
-0.465
-0.46
-0.465
-0.445
-0.395
-0.295
-0.145
0.08
0.37
0.74
1.155
1.535
1.81
1.905
1.77
1.355
0.735
0.095
-0.545
-1.18
-1.4
-1.33
-1.12
-0.845
-0.6
-0.425
-0.36
-0.35
-0.355
-0.39
-0.425
-0.435
-0.45
-0.435
-0.425
-0.41
-0.41
-0.415
-0.425
-0.425
-0.43
-0.435
-0.425
-0.425
-0.41
-0.4
-0.4
-0.4
-0.41
-0.41
-0.41
-0.425
-0.44
-0.425
-0.42
-0.41
-0.395
-0.39
-0.39
-0.395
-0.4
-0.4
-0.41
-0.43
-0.425
-0.405
-0.395
-0.39
-0.395
-0.375
-0.375
-0.38
-0.385
-0.395
-0.405
-0.415
-0.41
-0.41
-0.395
-0.395
-0.385
-0.375
-0.37
-0.38
-0.385
-0.385
-0.4
-0.395
-0.405
-0.405
-0.395
-0.39
-0.38
-0.37
-0.37
-0.36
-0.375
-0.375
-0.385
-0.385
-0.385
-0.38
-0.38
-0.38
-0.36
-0.355
-0.345
-0.345
-0.345
-0.345
-0.35
-0.36
-0.35
-0.35
-0.34
-0.32
-0.32
-0.32
-0.305
-0.315
-0.315
-0.31
-0.31
-0.32
-0.315
-0.325
-0.325
-0.325
-0.32
-0.315
-0.3
-0.31
-0.32
-0.325
-0.34
-0.335
-0.33
-0.33
-0.335
-0.32
-0.32
-0.315
-0.31
-0.325
-0.33
-0.35
-0.365
-0.395
-0.41
-0.425
-0.43
-0.445
-0.46
-0.47
-0.485
-0.505
-0.515
-0.56
-0.56
-0.575
-0.585
-0.59
-0.595
-0.6
-0.605
-0.59
-0.6
-0.6
-0.615
-0.63
-0.645
-0.645
-0.65
-0.65
-0.635
-0.635
-0.64
-0.63
-0.625
-0.62
-0.605
-0.63
-0.615
-0.62
-0.62
-0.615
-0.61
-0.605
-0.61
-0.585
-0.585
-0.59
-0.585
-0.59
-0.59
-0.585
-0.6
-0.585
-0.57
-0.575
-0.56
-0.56
-0.555
-0.555
-0.565
-0.57
-0.58
-0.585
-0.58
-0.57
-0.575
-0.565
-0.565
-0.555
-0.555
-0.565
-0.57
-0.575
-0.585
-0.59
-0.595
-0.61
-0.59
-0.595
-0.595
-0.58
-0.59
-0.595
-0.59
-0.6
-0.605
-0.615
-0.61
-0.61
-0.615
-0.615
-0.585
-0.585
-0.585
-0.58
-0.575
-0.58
-0.575
-0.57
-0.565
-0.555
-0.55
-0.535
-0.525
-0.5
-0.495
-0.485
-0.47
-0.475
-0.46
-0.465
-0.445
-0.455
-0.47
-0.465
-0.475
-0.465
-0.455
-0.45
-0.455
-0.47
-0.48
-0.485
-0.505
-0.52
-0.535
-0.54
-0.55
-0.56
-0.58
-0.59
-0.6
-0.61
-0.615
-0.62
-0.625
-0.62
-0.62
-0.615
-0.61
-0.605
-0.62
-0.615
-0.625
-0.635
-0.63
-0.645
-0.655
-0.645
-0.655
-0.635
-0.625
-0.62
-0.62
-0.62
-0.615
-0.615
-0.605
-0.6
-0.59
-0.585
-0.565
-0.56
-0.54
-0.53
-0.51
-0.48
-0.425
-0.335
-0.195
0.015
0.31
0.685
1.09
1.485
1.76
1.855
1.69
1.29
0.68
0.04
-0.6
-1.15
-1.395
-1.39
-1.2
-0.96
-0.71
-0.53
-0.425
-0.39
-0.405
-0.445
-0.48
-0.505
-0.525
-0.53
-0.535
-0.515
-0.505
-0.495
-0.49
-0.485
-0.48
-0.5
-0.51
-0.515
-0.505
-0.515
-0.51
-0.505
-0.49
-0.49
-0.495
-0.495
-0.49
-0.485
-0.5
-0.5
-0.51
-0.495
-0.495
-0.495
-0.485
-0.465
-0.47
-0.48
-0.465
-0.48
-0.49
-0.49
-0.49
-0.48
-0.48
-0.485
-0.46
-0.455
-0.45
-0.445
-0.455
-0.475
-0.48
-0.485
-0.475
-0.465
-0.475
-0.465
-0.455
-0.43
-0.435
-0.435
-0.42
-0.435
-0.44
-0.435
-0.435
-0.44
-0.425
-0.425
-0.42
-0.405
-0.4
-0.395
-0.4
-0.395
-0.39
-0.395
-0.395
-0.4
-0.395
-0.375
-0.355
-0.345
-0.35
-0.34
-0.33
-0.335
-0.335
-0.33
-0.335
-0.325
-0.305
-0.305
-0.295
-0.285
-0.28
-0.27
-0.275
-0.27
-0.275
-0.27
-0.275
-0.28
-0.265
-0.26
-0.255
-0.245
-0.245
-0.255
-0.255
-0.27
-0.29
-0.305
-0.33
-0.34
-0.345
-0.36
-0.375
-0.385
-0.4
-0.425
-0.445
-0.475
-0.495
-0.525
-0.52
-0.54
-0.555
-0.555
-0.565
-0.56
-0.56
-0.57
-0.58
-0.585
-0.595
-0.6
-0.615
-0.61
-0.615
-0.605
-0.6
-0.595
-0.6
-0.6
-0.605
-0.61
-0.615
-0.62
-0.625
-0.625
-0.615
-0.61
-0.61
-0.61
-0.59
-0.595
-0.605
-0.605
-0.6
-0.6
-0.59
-0.585
-0.575
-0.565
-0.56
-0.55
-0.55
-0.555
-0.555
-0.555
-0.55
-0.56
-0.56
-0.555
-0.56
-0.545
-0.55
-0.545
-0.545
-0.545
-0.54
-0.55
-0.555
-0.56
-0.565
-0.57
-0.57
-0.56
-0.55
-0.545
-0.555
-0.555
-0.56
-0.565
-0.575
-0.585
-0.59
-0.58
-0.58
-0.58
-0.59
-0.595
-0.575
-0.595
-0.605
-0.585
-0.59
-0.595
-0.6
-0.595
-0.595
-0.59
-0.585
-0.58
-0.585
-0.585
-0.585
-0.59
-0.6
-0.605
-0.61
-0.6
-0.6
-0.585
-0.575
-0.535
-0.535
-0.525
-0.53
-0.52
-0.51
-0.51
-0.505
-0.485
-0.465
-0.445
-0.425
-0.41
-0.425
-0.43
-0.425
-0.445
-0.46
-0.465
-0.465
-0.455
-0.45
-0.46
-0.455
-0.46
-0.475
-0.49
-0.505
-0.535
-0.555
-0.59
-0.595
-0.6
-0.605
-0.61
-0.61
-0.585
-0.585
-0.585
-0.58
-0.6
-0.6
-0.615
-0.63
-0.64
-0.625
-0.615
-0.61
-0.605
-0.605
-0.61
-0.61
-0.625
-0.625
-0.625
-0.615
-0.61
-0.61
-0.595
-0.595
-0.585
-0.57
-0.58
-0.57
-0.58
-0.58
-0.575
-0.575
-0.565
-0.56
-0.575
-0.55
-0.53
-0.5
-0.47
-0.39
-0.285
-0.065
0.215
0.58
1.035
1.45
1.755
1.85
1.645
1.145
0.505
-0.135
-0.775
-1.41
-1.485
-1.32
-1.05
-0.76
-0.54
-0.415
-0.36
-0.36
-0.41
-0.455
-0.495
-0.515
-0.53
-0.525
-0.51
-0.505
-0.49
-0.495
-0.485
-0.475
-0.48
-0.475
-0.48
-0.49
-0.5
-0.505
-0.495
-0.485
-0.475
-0.475
-0.465
-0.46
-0.465
-0.47
-0.475
-0.48
-0.485
-0.48
-0.485
-0.475
-0.47
-0.46
-0.45
-0.455
-0.46
-0.445
-0.465
-0.465
-0.49
-0.47
-0.47
-0.465
-0.46
-0.455
-0.455
-0.45
-0.45
-0.45
-0.46
-0.475
-0.47
-0.47
-0.455
-0.44
-0.435
-0.43
-0.415
-0.415
-0.415
-0.42
-0.425
-0.435
-0.435
-0.435
-0.43
-0.435
-0.42
-0.415
-0.41
-0.4
-0.4
-0.385
-0.39
-0.395
-0.385
-0.39
-0.38
-0.38
-0.365
-0.36
-0.345
-0.34
-0.345
-0.34
-0.345
-0.345
-0.345
-0.335
-0.335
-0.325
-0.315
-0.31
-0.3
-0.285
-0.31
-0.305
-0.305
-0.31
-0.31
-0.315
-0.32
-0.325
-0.31
-0.305
-0.295
-0.28
-0.275
-0.28
-0.29
-0.295
-0.32
-0.335
-0.34
-0.345
-0.37
-0.375
-0.39
-0.405
-0.435
-0.45
-0.47
-0.485
-0.52
-0.53
-0.53
-0.545
-0.545
-0.56
-0.565
-0.56
-0.56
-0.575
-0.59
-0.605
-0.6
-0.595
-0.605
-0.595
-0.6
-0.59
-0.585
-0.585
-0.575
-0.585
-0.585
-0.595
-0.605
-0.605
-0.6
-0.595
-0.59
-0.585
-0.57
-0.565
-0.57
-0.56
-0.56
-0.565
-0.575
-0.575
-0.57
-0.565
-0.545
-0.545
-0.535
-0.525
-0.52
-0.525
-0.535
-0.535
-0.54
-0.545
-0.535
-0.55
-0.535
-0.52
-0.52
-0.52
-0.515
-0.52
-0.53
-0.545
-0.55
-0.555
-0.555
-0.555
-0.565
-0.56
-0.545
-0.535
-0.545
-0.545
-0.545
-0.555
-0.555
-0.56
-0.565
-0.55
-0.55
-0.555
-0.545
-0.55
-0.575
-0.59
-0.575
-0.58
-0.585
-0.58
-0.58
-0.57
-0.565
-0.57
-0.585
-0.57
-0.57
-0.57
-0.565
-0.57
-0.6
-0.595
-0.585
-0.59
-0.585
-0.575
-0.565
-0.56
-0.575
-0.575
-0.57
-0.575
-0.58
-0.575
-0.565
-0.545
-0.54
-0.515
-0.505
-0.5
-0.495
-0.48
-0.47
-0.485
-0.465
-0.47
-0.445
-0.435
-0.42
-0.415
-0.435
-0.43
-0.43
-0.43
-0.445
-0.43
-0.44
-0.445
-0.45
-0.46
-0.465
-0.465
-0.465
-0.47
-0.495
-0.51
-0.54
-0.56
-0.575
-0.6
-0.605
-0.61
-0.615
-0.61
-0.595
-0.59
-0.59
-0.6
-0.595
-0.605
-0.62
-0.63
-0.64
-0.635
-0.63
-0.615
-0.61
-0.595
-0.59
-0.605
-0.595
-0.625
-0.62
-0.62
-0.62
-0.615
-0.595
-0.59
-0.58
-0.58
-0.565
-0.56
-0.565
-0.565
-0.575
-0.565
-0.56
-0.55
-0.51
-0.455
-0.36
-0.215
-0.02
0.25
0.58
0.97
1.36
1.65
1.805
1.73
1.43
0.905
0.265
-0.375
-1.015
-1.42
-1.49
-1.35
-1.105
-0.86
-0.655
-0.525
-0.46
-0.44
-0.455
-0.465
-0.48
-0.505
-0.51
-0.51
-0.52
-0.53
-0.525
-0.515
-0.505
-0.5
-0.49
-0.485
-0.485
-0.495
-0.49
-0.5
-0.51
-0.5
-0.5
-0.5
-0.495
-0.49
-0.48
-0.47
-0.475
-0.47
-0.47
-0.47
-0.48
-0.49
-0.505
-0.49
-0.485
-0.48
-0.465
-0.46
-0.465
-0.465
-0.46
-0.47
-0.47
-0.475
-0.48
-0.485
-0.475
-0.47
-0.465
-0.45
-0.45
-0.465
-0.47
-0.465
-0.485
-0.465
-0.465
-0.47
-0.47
-0.47
-0.46
-0.455
-0.455
-0.45
-0.45
-0.44
-0.44
-0.445
-0.45
-0.44
-0.435
-0.43
-0.415
-0.41
-0.42
-0.42
-0.425
-0.415
-0.415
-0.42
-0.42
-0.425
-0.395
-0.38
-0.375
-0.365
-0.37
-0.37
-0.37
-0.375
-0.375
-0.375
-0.375
-0.37
-0.36
-0.35
-0.335
-0.35
-0.34
-0.35
-0.345
-0.365
-0.36
-0.37
-0.36
-0.375
-0.37
-0.365
-0.37
-0.34
-0.345
-0.34
-0.355
-0.37
-0.38
-0.4
-0.415
-0.42
-0.435
-0.435
-0.445
-0.455
-0.485
-0.51
-0.505
-0.53
-0.565
-0.565
-0.58
-0.59
-0.595
-0.595
-0.59
-0.59
-0.595
-0.605
-0.615
-0.62
-0.63
-0.635
-0.64
-0.65
-0.63
-0.64
-0.61
-0.61
-0.61
-0.62
-0.63
-0.625
-0.635
-0.645
-0.64
-0.635
-0.62
-0.62
-0.605
-0.6
-0.61
-0.615
-0.62
-0.63
-0.61
-0.62
-0.615
-0.605
-0.605
-0.585
-0.58
-0.58
-0.585
-0.585
-0.595
-0.595
-0.605
-0.61
-0.6
-0.605
-0.595
-0.605
-0.585
-0.59
-0.585
-0.59
-0.59
-0.61
-0.615
-0.62
-0.61
-0.615
-0.61
-0.61
-0.615
-0.6
-0.605
-0.61
-0.615
-0.62
-0.625
-0.64
-0.65
-0.65
-0.645
-0.645
-0.635
-0.63
-0.63
-0.63
-0.625
-0.635
-0.645
-0.655
-0.66
-0.65
-0.65
-0.64
-0.635
-0.62
-0.625
-0.605
-0.62
-0.6
-0.59
-0.595
-0.605
-0.595
-0.575
-0.56
-0.54
-0.52
-0.51
-0.495
-0.485
-0.495
-0.495
-0.51
-0.525
-0.525
-0.52
-0.525
-0.51
-0.495
-0.485
-0.49
-0.505
-0.525
-0.545
-0.58
-0.615
-0.63
-0.645
-0.65
-0.65
-0.65
-0.65
-0.66
-0.665
-0.685
-0.695
-0.7
-0.715
-0.71
-0.7
-0.7
-0.7
-0.685
-0.69
-0.69
-0.685
-0.69
-0.71
-0.715
-0.72
-0.705
-0.695
-0.705
-0.69
-0.675
-0.67
-0.67
-0.67
-0.675
-0.675
-0.675
-0.66
-0.66
-0.645
-0.64
-0.63
-0.62
-0.61
-0.605
-0.575
-0.52
-0.435
-0.3
-0.1
0.19
0.555
0.98
1.36
1.67
1.795
1.71
1.355
0.765
0.125
-0.515
-1.155
-1.575
-1.55
-1.31
-0.995
-0.73
-0.545
-0.455
-0.445
-0.47
-0.54
-0.585
-0.61
-0.63
-0.62
-0.59
-0.575
-0.565
-0.56
-0.55
-0.565
-0.565
-0.58
-0.59
-0.58
-0.58
-0.58
-0.57
-0.57
-0.565
-0.56
-0.57
-0.57
-0.58
-0.58
-0.585
-0.595
-0.595
-0.595
-0.575
-0.565
-0.565
-0.565
-0.565
-0.56
-0.59
-0.58
-0.585
-0.6
-0.59
-0.595
-0.59
-0.575
-0.57
-0.58
-0.585
-0.59
-0.6
-0.605
-0.6
-0.595
-0.59
-0.585
-0.595
-0.575
-0.555
-0.565
-0.575
-0.57
-0.58
-0.58
-0.58
-0.595
-0.59
-0.585
-0.57
-0.565
-0.55
-0.555
-0.555
-0.55
-0.555
-0.56
-0.555
-0.55
-0.565
-0.55
-0.535
-0.53
-0.515
-0.52
-0.515
-0.515
-0.5
-0.515
-0.53
-0.52
-0.505
-0.495
-0.48
-0.465
-0.455
-0.455
-0.445
-0.455
-0.46
-0.465
-0.47
-0.465
-0.47
-0.455
-0.46
-0.46
-0.45
-0.455
-0.455
-0.455
-0.46
-0.47
-0.48
-0.485
-0.495
-0.49
-0.5
-0.505
-0.515
-0.54
-0.58
-0.575
-0.6
-0.61
-0.64
-0.665
-0.675
-0.685
-0.71
-0.71
-0.71
-0.725
-0.725
-0.745
-0.75
-0.76
-0.77
-0.77
-0.775
-0.77
-0.76
-0.755
-0.755
-0.76
-0.755
-0.765
-0.775
-0.785
-0.785
-0.775
-0.78
-0.78
-0.765
-0.76
-0.745
-0.76
-0.75
-0.74
-0.745
-0.75
-0.755
-0.765
-0.755
-0.75
-0.735
-0.735
-0.715
-0.715
-0.71
-0.715
-0.71
-0.725
-0.725
-0.735
-0.725
-0.72
-0.71
-0.695
-0.685
-0.69
-0.695
-0.7
-0.705
-0.71
-0.72
-0.725
-0.73
-0.725
-0.725
-0.71
-0.705
-0.725
-0.72
-0.725
-0.715
-0.73
-0.725
-0.74
-0.735
-0.735
-0.735
-0.735
-0.725
-0.725
-0.725
-0.73
-0.74
-0.745
-0.75
-0.755
-0.76
-0.755
-0.75
-0.74
-0.725
-0.73
-0.725
-0.72
-0.735
-0.72
-0.72
-0.705
-0.69
-0.68
-0.685
-0.665
-0.645
-0.62
-0.635
-0.615
-0.605
-0.605
-0.59
-0.595
-0.6
-0.615
-0.61
-0.605
-0.59
-0.58
-0.58
-0.575
-0.59
-0.595
-0.615
-0.625
-0.64
-0.64
-0.66
-0.675
-0.675
-0.695
-0.705
-0.735
-0.745
-0.75
-0.75
-0.765
-0.76
-0.76
-0.74
-0.74
-0.735
-0.74
-0.74
-0.745
-0.76
-0.755
-0.76
-0.77
-0.775
-0.77
-0.755
-0.755
-0.74
-0.745
-0.735
-0.745
-0.74
-0.75
-0.755
-0.755
-0.745
-0.74
-0.735
-0.725
-0.7
-0.7
-0.685
-0.68
-0.67
-0.67
-0.68
-0.665
-0.62
-0.52
-0.39
-0.18
0.14
0.515
0.955
1.375
1.7
1.825
1.7
1.275
0.635
-0.005
-0.645
-1.285
-1.62
-1.55
-1.31
-1.01
-0.75
-0.57
-0.49
-0.47
-0.495
-0.53
-0.565
-0.595
-0.61
-0.615
-0.62
-0.6
-0.595
-0.595
-0.59
-0.59
-0.595
-0.585
-0.59
-0.585
-0.565
-0.565
-0.565
-0.565
-0.575
-0.57
-0.58
-0.575
-0.575
-0.575
-0.57
-0.565
-0.555
-0.56
-0.545
-0.545
-0.555
-0.555
-0.56
-0.58
-0.57
-0.555
-0.56
-0.555
-0.54
-0.54
-0.53
-0.54
-0.54
-0.54
-0.545
-0.545
-0.55
-0.555
-0.54
-0.54
-0.53
-0.515
-0.505
-0.515
-0.515
-0.51
-0.52
-0.52
-0.525
-0.51
-0.505
-0.5
-0.495
-0.48
-0.48
-0.47
-0.48
-0.48
-0.48
-0.48
-0.48
-0.46
-0.46
-0.44
-0.435
-0.425
-0.43
-0.42
-0.42
-0.435
-0.435
-0.425
-0.41
-0.395
-0.39
-0.375
-0.36
-0.345
-0.345
-0.34
-0.345
-0.335
-0.35
-0.34
-0.32
-0.31
-0.305
-0.29
-0.285
-0.285
-0.28
-0.275
-0.3
-0.3
-0.31
-0.325
-0.325
-0.29
-0.285
-0.29
-0.285
-0.29
-0.32
-0.335
-0.365
-0.38
-0.415
-0.445
-0.465
-0.475
-0.495
-0.515
-0.515
-0.525
-0.55
-0.56
-0.575
-0.595
-0.59
-0.63
-0.63
-0.62
-0.615
-0.61
-0.615
-0.625
-0.615
-0.62
-0.625
-0.63
-0.635
-0.65
-0.65
-0.635
-0.635
-0.625
-0.615
-0.615
-0.61
-0.605
-0.62
-0.61
-0.62
-0.615
-0.62
-0.615
-0.61
-0.595
-0.58
-0.58
-0.56
-0.56
-0.575
-0.565
-0.575
-0.565
-0.57
-0.555
-0.54
-0.545
-0.53
-0.525
-0.525
-0.525
-0.53
-0.535
-0.555
-0.56
-0.555
-0.55
-0.535
-0.53
-0.53
-0.525
-0.525
-0.535
-0.535
-0.535
-0.545
-0.555
-0.545
-0.545
-0.525
-0.53
-0.535
-0.52
-0.52
-0.515
-0.515
-0.53
-0.55
-0.55
-0.535
-0.54
-0.54
-0.55
-0.535
-0.51
-0.52
-0.515
-0.53
-0.53
-0.52
-0.53
-0.53
-0.52
-0.525
-0.52
-0.51
-0.505
-0.5
-0.49
-0.505
-0.505
-0.51
-0.505
-0.51
-0.495
-0.495
-0.48
-0.47
-0.445
-0.445
-0.425
-0.435
-0.425
-0.425
-0.415
-0.385
-0.37
-0.38
-0.355
-0.335
-0.3
-0.305
-0.3
-0.31
-0.315
-0.32
-0.32
-0.33
-0.315
-0.3
-0.31
-0.3
-0.305
-0.305
-0.32
-0.335
-0.355
-0.385
-0.4
-0.415
-0.43
-0.42
-0.425
-0.41
-0.395
-0.41
-0.415
-0.41
-0.425
-0.425
-0.435
-0.435
-0.425
-0.435
-0.43
-0.415
-0.41
-0.41
-0.405
-0.415
-0.41
-0.415
-0.425
-0.42
-0.415
-0.395
-0.395
-0.375
-0.375
-0.365
-0.36
-0.365
-0.37
-0.37
-0.37
-0.355
-0.35
-0.335
-0.31
-0.31
-0.275
-0.215
-0.125
-0.005
0.195
0.425
0.72
1.065
1.43
1.74
1.955
2.035
1.87
1.485
0.905
0.265
-0.375
-0.955
-1.195
-1.165
-0.96
-0.685
-0.43
-0.235
-0.125
-0.095
-0.105
-0.155
-0.19
-0.235
-0.24
-0.265
-0.24
-0.22
-0.205
-0.19
-0.18
-0.19
-0.19
-0.18
-0.185
-0.19
-0.19
-0.19
-0.19
-0.175
-0.17
-0.16
-0.155
-0.165
-0.155
-0.16
-0.16
-0.16
-0.165
-0.15
-0.155
-0.15
-0.14
-0.135
-0.13
-0.125
-0.13
-0.145
-0.16
-0.155
-0.145
-0.135
-0.14
-0.135
-0.125
-0.115
-0.11
-0.12
-0.115
-0.125
-0.13
-0.12
-0.125
-0.115
-0.115
-0.105
-0.105
-0.1
-0.09
-0.095
-0.095
-0.1
-0.115
-0.11
-0.105
-0.11
-0.095
-0.09
-0.085
-0.08
-0.065
-0.055
-0.05
-0.055
-0.055
-0.055
-0.06
-0.045
-0.045
-0.03
-0.03
-0.01
-0.005
-0.005
0.0
-0.005
0.005
-0.005
0.0
-0.005
0.01
0.03
0.03
0.04
0.05
0.05
0.05
0.045
0.035
0.04
0.045
0.05
0.05
0.055
0.065
0.07
0.095
0.09
0.085
0.085
0.085
0.08
0.07
0.055
0.05
0.06
0.06
0.055
0.05
0.03
0.0
-0.005
-0.02
-0.05
-0.07
-0.09
-0.095
-0.09
-0.105
-0.105
-0.115
-0.135
-0.145
-0.15
-0.16
-0.165
-0.185
-0.175
-0.185
-0.185
-0.175
-0.19
-0.185
-0.19
-0.195
-0.21
-0.22
-0.215
-0.235
-0.23
-0.235
-0.21
-0.215
-0.205
-0.19
-0.2
-0.18
-0.195
-0.2
-0.205
-0.205
-0.205
-0.2
-0.215
-0.21
-0.185
-0.175
-0.175
-0.17
-0.175
-0.185
-0.18
-0.18
-0.185
-0.175
-0.165
-0.16
-0.14
-0.14
-0.14
-0.14
-0.145
-0.155
-0.17
-0.175
-0.175
-0.165
-0.16
-0.16
-0.17
-0.165
-0.16
-0.165
-0.17
-0.175
-0.18
-0.19
-0.18
-0.195
-0.18
-0.175
-0.175
-0.16
-0.185
-0.19
-0.2
-0.21
-0.2
-0.205
-0.205
-0.21
-0.205
-0.21
-0.2
-0.185
-0.195
-0.185
-0.19
-0.2
-0.215
-0.22
-0.225
-0.22
-0.22
-0.215
-0.235
-0.215
-0.205
-0.21
-0.22
-0.23
-0.225
-0.24
-0.23
-0.225
-0.22
-0.215
-0.205
-0.205
-0.205
-0.205
-0.21
-0.21
-0.205
-0.205
-0.19
-0.175
-0.155
-0.15
-0.14
-0.125
-0.125
-0.125
-0.11
-0.1
-0.085
-0.075
-0.075
-0.08
-0.075
-0.085
-0.085
-0.08
-0.085
-0.08
-0.095
-0.08
-0.11
-0.11
-0.12
-0.12
-0.13
-0.14
-0.14
-0.155
-0.19
-0.205
-0.205
-0.235
-0.24
-0.25
-0.26
-0.265
-0.25
-0.245
-0.24
-0.245
-0.255
-0.255
-0.265
-0.275
-0.285
-0.305
-0.31
-0.29
-0.29
-0.285
-0.28
-0.275
-0.285
-0.275
-0.285
-0.285
-0.295
-0.305
-0.295
-0.305
-0.29
-0.28
-0.27
-0.27
-0.265
-0.245
-0.24
-0.245
-0.25
-0.255
-0.25
-0.235
-0.2
-0.135
-0.04
0.125
0.345
0.625
0.98
1.345
1.675
1.91
1.995
1.89
1.6
1.11
0.48
-0.16
-0.735
-1.1
-1.19
-1.06
-0.8
-0.525
-0.32
-0.195
-0.125
-0.11
-0.125
-0.15
-0.175
-0.2
-0.205
-0.215
-0.215
-0.22
-0.215
-0.22
-0.2
-0.195
-0.19
-0.185
-0.18
-0.2
-0.195
-0.2
-0.215
-0.21
-0.205
-0.215
-0.2
-0.2
-0.2
-0.19
-0.19
-0.185
-0.19
-0.215
-0.21
-0.215
-0.225
-0.225
-0.21
-0.21
-0.195
-0.2
-0.205
-0.22
-0.225
-0.22
-0.215
-0.225
-0.23
-0.215
-0.2
-0.185
-0.19
-0.2
-0.21
-0.215
-0.215
-0.23
-0.235
-0.24
-0.24
-0.23
-0.215
-0.205
-0.2
-0.2
-0.185
-0.18
-0.185
-0.21
-0.205
-0.215
-0.21
-0.225
-0.215
-0.2
-0.185
-0.18
-0.18
-0.17
-0.17
-0.175
-0.185
-0.21
-0.195
-0.2
-0.17
-0.17
-0.16
-0.17
-0.145
-0.145
-0.15
-0.15
-0.155
-0.165
-0.165
-0.16
-0.15
-0.16
-0.16
-0.15
-0.155
-0.14
-0.14
-0.14
-0.16
-0.17
-0.165
-0.17
-0.15
-0.15
-0.13
-0.12
-0.12
-0.135
-0.15
-0.16
-0.19
-0.21
-0.225
-0.23
-0.245
-0.26
-0.27
-0.29
-0.285
-0.305
-0.33
-0.35
-0.375
-0.395
-0.415
-0.425
-0.43
-0.44
-0.43
-0.44
-0.44
-0.445
-0.465
-0.47
-0.485
-0.495
-0.485
-0.48
-0.48
-0.47
-0.465
-0.465
-0.47
-0.48
-0.495
-0.5
-0.5
-0.51
-0.515
-0.5
-0.49
-0.47
-0.455
-0.445
-0.455
-0.46
-0.46
-0.46
-0.48
-0.48
-0.465
-0.47
-0.465
-0.445
-0.45
-0.455
-0.45
-0.46
-0.47
-0.48
-0.465
-0.48
-0.475
-0.46
-0.47
-0.465
-0.46
-0.455
-0.465
-0.465
-0.475
-0.495
-0.51
-0.52
-0.515
-0.515
-0.505
-0.51
-0.52
-0.515
-0.51
-0.505
-0.52
-0.53
-0.54
-0.555
-0.565
-0.55
-0.555
-0.545
-0.545
-0.54
-0.525
-0.55
-0.555
-0.555
-0.55
-0.55
-0.55
-0.535
-0.52
-0.52
-0.51
-0.495
-0.48
-0.47
-0.465
-0.475
-0.465
-0.465
-0.47
-0.435
-0.43
-0.42
-0.415
-0.415
-0.425
-0.445
-0.45
-0.455
-0.445
-0.45
-0.445
-0.445
-0.445
-0.455
-0.47
-0.48
-0.505
-0.515
-0.555
-0.56
-0.585
-0.62
-0.625
-0.645
-0.635
-0.64
-0.63
-0.615
-0.615
-0.625
-0.64
-0.65
-0.67
-0.675
-0.685
-0.69
-0.68
-0.675
-0.665
-0.655
-0.66
-0.665
-0.67
-0.675
-0.69
-0.69
-0.7
-0.69
-0.69
-0.68
-0.66
-0.66
-0.64
-0.64
-0.635
-0.64
-0.64
-0.635
-0.635
-0.645
-0.625
-0.605
-0.55
-0.48
-0.38
-0.215
0.015
0.305
0.675
1.045
1.37
1.625
1.705
1.56
1.175
0.57
-0.07
-0.71
-1.35
-1.61
-1.575
-1.355
-1.065
-0.8
-0.635
-0.545
-0.52
-0.53
-0.56
-0.575
-0.6
-0.625
-0.63
-0.64
-0.625
-0.635
-0.64
-0.64
-0.64
-0.62
-0.605
-0.625
-0.645
-0.635
