Lead II
-0.61
-0.595
-0.6
-0.605
-0.61
-0.62
-0.62
-0.625
-0.625
-0.615
-0.61
-0.6
-0.585
-0.57
-0.57
-0.56
-0.565
-0.565
-0.57
-0.565
-0.57
-0.565
-0.545
-0.52
-0.49
-0.42
-0.32
-0.155
0.075
0.375
0.745
1.135
1.48
1.705
1.705
1.415
0.88
0.24
-0.4
-1.04
-1.415
-1.37
-1.145
-0.855
-0.61
-0.435
-0.35
-0.34
-0.375
-0.415
-0.46
-0.495
-0.515
-0.515
-0.505
-0.515
-0.51
-0.505
-0.505
-0.495
-0.49
-0.485
-0.465
-0.47
-0.475
-0.485
-0.485
-0.49
-0.485
-0.495
-0.49
-0.48
-0.465
-0.48
-0.48
-0.475
-0.48
-0.48
-0.485
-0.485
-0.49
-0.48
-0.475
-0.47
-0.475
-0.46
-0.46
-0.46
-0.465
-0.47
-0.47
-0.47
-0.475
-0.475
-0.465
-0.465
-0.47
-0.45
-0.455
-0.455
-0.46
-0.47
-0.47
-0.475
-0.465
-0.48
-0.465
-0.46
-0.45
-0.445
-0.44
-0.44
-0.445
-0.44
-0.435
-0.44
-0.455
-0.44
-0.435
-0.43
-0.42
-0.415
-0.415
-0.41
-0.41
-0.42
-0.415
-0.4
-0.395
-0.395
-0.385
-0.38
-0.375
-0.355
-0.35
-0.37
-0.35
-0.35
-0.345
-0.345
-0.345
-0.34
-0.33
-0.32
-0.3
-0.295
-0.28
-0.28
-0.29
-0.285
-0.295
-0.295
-0.29
-0.275
-0.275
-0.27
-0.255
-0.25
-0.235
-0.24
-0.24
-0.24
-0.245
-0.255
-0.26
-0.275
-0.27
-0.275
-0.28
-0.29
-0.315
-0.335
-0.35
-0.37
-0.405
-0.415
-0.425
-0.44
-0.465
-0.485
-0.485
-0.495
-0.52
-0.525
-0.545
-0.565
-0.57
-0.585
-0.585
-0.6
-0.6
-0.59
-0.59
-0.58
-0.575
-0.585
-0.605
-0.615
-0.605
-0.625
-0.625
-0.625
-0.62
-0.61
-0.61
-0.595
-0.59
-0.595
-0.605
-0.595
-0.6
-0.605
-0.605
-0.6
-0.595
-0.585
-0.58
-0.57
-0.57
-0.57
-0.58
-0.585
-0.585
-0.58
-0.575
-0.57
-0.57
-0.565
-0.565
-0.545
-0.54
-0.535
-0.54
-0.54
-0.54
-0.545
-0.54
-0.545
-0.54
-0.54
-0.535
-0.52
-0.525
-0.53
-0.53
-0.55
-0.54
-0.55
-0.56
-0.565
-0.55
-0.55
-0.545
-0.54
-0.54
-0.545
-0.545
-0.545
-0.56
-0.565
-0.58
-0.58
-0.575
-0.565
-0.565
-0.55
-0.545
-0.545
-0.555
-0.555
-0.56
-0.565
-0.575
-0.575
-0.57
-0.565
-0.575
-0.555
-0.545
-0.535
-0.535
-0.54
-0.53
-0.515
-0.5
-0.5
-0.475
-0.47
-0.46
-0.43
-0.41
-0.41
-0.395
-0.405
-0.41
-0.435
-0.435
-0.43
-0.42
-0.415
-0.4
-0.4
-0.395
-0.41
-0.42
-0.44
-0.46
-0.475
-0.51
-0.53
-0.525
-0.545
-0.55
-0.54
-0.54
-0.545
-0.55
-0.55
-0.565
-0.57
-0.575
-0.59
-0.585
-0.585
-0.585
-0.585
-0.57
-0.58
-0.58
-0.585
-0.585
-0.58
-0.575
-0.585
-0.575
-0.565
-0.565
-0.56
-0.545
-0.55
-0.55
-0.55
-0.555
-0.54
-0.54
-0.52
-0.52
-0.505
-0.49
-0.47
-0.45
-0.415
-0.33
-0.21
-0.01
0.25
0.605
1.0
1.375
1.675
1.815
1.755
1.445
0.91
0.27
-0.37
-1.01
-1.37
-1.395
-1.21
-0.925
-0.655
-0.445
-0.325
-0.285
-0.305
-0.335
-0.38
-0.42
-0.45
-0.46
-0.45
-0.435
-0.42
-0.42
-0.395
-0.395
-0.405
-0.415
-0.43
-0.435
-0.43
-0.425
-0.435
-0.42
-0.425
-0.42
-0.41
-0.405
-0.4
-0.415
-0.4
-0.41
-0.405
-0.415
-0.425
-0.42
-0.4
-0.395
-0.4
-0.37
-0.385
-0.385
-0.395
-0.405
-0.415
-0.42
-0.4
-0.395
-0.395
-0.385
-0.38
-0.385
-0.38
-0.39
-0.405
-0.395
-0.4
-0.405
-0.385
-0.385
-0.385
-0.375
-0.365
-0.345
-0.355
-0.36
-0.37
-0.365
-0.375
-0.365
-0.365
-0.36
-0.355
-0.33
-0.33
-0.315
-0.32
-0.325
-0.315
-0.32
-0.315
-0.32
-0.325
-0.315
-0.3
-0.29
-0.28
-0.29
-0.265
-0.265
-0.27
-0.26
-0.26
-0.245
-0.245
-0.24
-0.23
-0.22
-0.2
-0.185
-0.165
-0.17
-0.175
-0.18
-0.19
-0.19
-0.175
-0.175
-0.16
-0.155
-0.15
-0.145
-0.145
-0.135
-0.13
-0.145
-0.16
-0.16
-0.175
-0.185
-0.185
-0.205
-0.22
-0.24
-0.255
-0.275
-0.31
-0.335
-0.36
-0.385
-0.41
-0.415
-0.425
-0.43
-0.435
-0.45
-0.45
-0.455
-0.485
-0.495
-0.495
-0.51
-0.515
-0.52
-0.52
-0.525
-0.525
-0.515
-0.525
-0.52
-0.535
-0.54
-0.545
-0.55
-0.55
-0.55
-0.555
-0.55
-0.535
-0.535
-0.545
-0.54
-0.55
-0.56
-0.565
-0.56
-0.55
-0.555
-0.54
-0.55
-0.535
-0.525
-0.515
-0.52
-0.52
-0.51
-0.51
-0.51
-0.51
-0.5
-0.48
-0.475
-0.475
-0.47
-0.485
-0.475
-0.49
-0.485
-0.505
-0.51
-0.52
-0.515
-0.49
-0.49
-0.48
-0.485
-0.475
-0.485
-0.49
-0.49
-0.505
-0.51
-0.515
-0.52
-0.515
-0.5
-0.51
-0.5
-0.505
-0.515
-0.525
-0.53
-0.53
-0.535
-0.545
-0.53
-0.535
-0.525
-0.54
-0.525
-0.52
-0.52
-0.535
-0.54
-0.54
-0.55
-0.54
-0.55
-0.54
-0.545
-0.53
-0.525
-0.525
-0.53
-0.53
-0.535
-0.545
-0.54
-0.55
-0.55
-0.54
-0.545
-0.53
-0.53
-0.525
-0.535
-0.54
-0.545
-0.555
-0.55
-0.545
-0.545
-0.545
-0.535
-0.53
-0.53
-0.55
-0.535
-0.55
-0.545
-0.56
-0.57
-0.565
-0.565
-0.555
-0.555
-0.54
-0.535
-0.53
-0.535
-0.535
-0.54
-0.54
-0.535
-0.54
-0.535
-0.515
-0.505
-0.485
-0.46
-0.46
-0.445
-0.435
-0.445
-0.43
-0.425
-0.425
-0.415
-0.395
-0.385
-0.38
-0.385
-0.4
-0.415
-0.425
-0.425
-0.425
-0.43
-0.43
-0.435
-0.435
-0.44
-0.45
-0.455
-0.475
-0.485
-0.51
-0.535
-0.545
-0.57
-0.57
-0.565
-0.555
-0.55
-0.535
-0.535
-0.545
-0.555
-0.565
-0.575
-0.575
-0.595
-0.6
-0.6
-0.58
-0.59
-0.58
-0.575
-0.565
-0.57
-0.57
-0.57
-0.57
-0.565
-0.57
-0.57
-0.55
-0.545
-0.53
-0.525
-0.525
-0.515
-0.505
-0.515
-0.515
-0.505
-0.475
-0.405
-0.315
-0.145
0.075
0.38
0.715
1.095
1.435
1.67
1.735
1.585
1.17
0.575
-0.065
-0.705
-1.235
-1.42
-1.345
-1.13
-0.86
-0.63
-0.485
-0.405
-0.385
-0.395
-0.405
-0.435
-0.455
-0.47
-0.465
-0.465
-0.47
-0.48
-0.475
-0.485
-0.49
-0.485
-0.47
-0.47
-0.46
-0.455
-0.465
-0.465
-0.455
-0.48
-0.475
-0.47
-0.47
-0.47
-0.46
-0.47
-0.46
-0.455
-0.465
-0.45
-0.485
-0.48
-0.48
-0.485
-0.475
-0.465
-0.465
-0.465
-0.46
-0.46
-0.465
-0.46
-0.46
-0.46
-0.47
-0.485
-0.48
-0.485
-0.465
-0.46
-0.46
-0.47
-0.455
-0.45
-0.46
-0.47
-0.465
-0.475
-0.46
-0.45
-0.455
-0.45
-0.44
-0.425
-0.43
-0.425
-0.435
-0.435
-0.44
-0.445
-0.445
-0.445
-0.44
-0.42
-0.42
-0.4
-0.4
-0.39
-0.405
-0.4
-0.405
-0.41
-0.395
-0.4
-0.38
-0.38
-0.385
-0.36
-0.35
-0.345
-0.35
-0.36
-0.37
-0.36
-0.355
-0.355
-0.35
-0.33
-0.315
-0.305
-0.305
-0.3
-0.305
-0.315
-0.32
-0.32
-0.32
-0.315
-0.305
-0.3
-0.295
-0.28
-0.295
-0.3
-0.32
-0.345
-0.37
-0.375
-0.4
-0.415
-0.43
-0.44
-0.455
-0.47
-0.48
-0.505
-0.53
-0.54
-0.55
-0.56
-0.585
-0.58
-0.585
-0.59
-0.585
-0.595
-0.59
-0.6
-0.605
-0.615
-0.615
-0.635
-0.64
-0.645
-0.63
-0.63
-0.63
-0.635
-0.63
-0.635
-0.64
-0.645
-0.65
-0.66
-0.65
-0.645
-0.635
-0.635
-0.63
-0.62
-0.615
-0.62
-0.625
-0.64
-0.655
-0.645
-0.64
-0.64
-0.625
-0.625
-0.61
-0.605
-0.59
-0.59
-0.595
-0.6
-0.62
-0.615
-0.615
-0.61
-0.6
-0.59
-0.585
-0.57
-0.58
-0.59
-0.585
-0.59
-0.6
-0.605
-0.595
-0.61
-0.6
-0.615
-0.605
-0.6
-0.59
-0.595
-0.605
-0.61
-0.63
-0.635
-0.635
-0.645
-0.63
-0.62
-0.625
-0.62
-0.615
-0.61
-0.62
-0.62
-0.64
-0.645
-0.64
-0.635
-0.63
-0.635
-0.63
-0.62
-0.625
-0.625
-0.63
-0.64
-0.63
-0.645
-0.645
-0.645
-0.65
-0.655
-0.645
-0.635
-0.63
-0.64
-0.635
-0.64
-0.665
-0.655
-0.65
-0.645
-0.65
-0.635
-0.635
-0.635
-0.63
-0.635
-0.645
-0.665
-0.66
-0.67
-0.68
-0.67
-0.665
-0.655
-0.645
-0.64
-0.645
-0.64
-0.645
-0.655
-0.66
-0.66
-0.655
-0.66
-0.645
-0.655
-0.64
-0.635
-0.645
-0.645
-0.64
-0.67
-0.66
-0.67
-0.675
-0.665
-0.665
-0.665
-0.66
-0.65
-0.645
-0.64
-0.64
-0.655
-0.67
-0.665
-0.665
-0.67
-0.66
-0.645
-0.645
-0.635
-0.635
-0.625
-0.63
-0.62
-0.61
-0.605
-0.605
-0.595
-0.58
-0.56
-0.55
-0.52
-0.52
-0.53
-0.525
-0.53
-0.525
-0.51
-0.51
-0.525
-0.53
-0.53
-0.535
-0.515
-0.52
-0.52
-0.52
-0.53
-0.54
-0.545
-0.575
-0.595
-0.62
-0.615
-0.615
-0.625
-0.64
-0.645
-0.645
-0.65
-0.655
-0.665
-0.655
-0.655
-0.655
-0.645
-0.65
-0.645
-0.645
-0.65
-0.665
-0.675
-0.675
-0.675
-0.67
-0.665
-0.665
-0.665
-0.665
-0.65
-0.665
-0.675
-0.67
-0.665
-0.67
-0.67
-0.65
-0.64
-0.62
-0.615
-0.59
-0.58
-0.58
-0.575
-0.585
-0.59
-0.575
-0.54
-0.46
-0.345
-0.18
0.075
0.375
0.73
1.09
1.41
1.605
1.625
1.445
1.02
0.465
-0.175
-0.815
-1.26
-1.48
-1.45
-1.26
-1.025
-0.78
-0.615
-0.52
-0.495
-0.51
-0.525
-0.54
-0.555
-0.56
-0.56
-0.555
-0.555
-0.555
-0.56
-0.56
-0.565
-0.56
-0.565
-0.555
-0.55
-0.54
-0.54
-0.53
-0.54
-0.55
-0.545
-0.535
-0.55
-0.575
-0.57
-0.56
-0.55
-0.565
-0.54
-0.545
-0.54
-0.54
-0.535
-0.54
-0.55
-0.55
-0.55
-0.54
-0.545
-0.53
-0.52
-0.525
-0.525
-0.54
-0.54
-0.55
-0.55
-0.555
-0.56
-0.545
-0.54
-0.535
-0.525
-0.525
-0.54
-0.525
-0.53
-0.54
-0.535
-0.55
-0.55
-0.545
-0.525
-0.515
-0.5
-0.505
-0.5
-0.51
-0.515
-0.51
-0.515
-0.505
-0.51
-0.51
-0.515
-0.495
-0.495
-0.48
-0.48
-0.48
-0.475
-0.48
-0.48
-0.47
-0.46
-0.475
-0.47
-0.445
-0.425
-0.43
-0.43
-0.42
-0.445
-0.445
-0.435
-0.435
-0.43
-0.43
-0.41
-0.405
-0.405
-0.4
-0.38
-0.395
-0.395
-0.39
-0.39
-0.385
-0.38
-0.38
-0.385
-0.38
-0.365
-0.38
-0.38
-0.375
-0.4
-0.41
-0.405
-0.41
-0.425
-0.44
-0.445
-0.455
-0.475
-0.48
-0.495
-0.515
-0.53
-0.545
-0.58
-0.605
-0.62
-0.63
-0.645
-0.645
-0.63
-0.635
-0.645
-0.645
-0.66
-0.67
-0.685
-0.7
-0.69
-0.695
-0.695
-0.685
-0.685
-0.68
-0.675
-0.69
-0.69
-0.695
-0.715
-0.715
-0.715
-0.705
-0.69
-0.67
-0.68
-0.66
-0.665
-0.66
-0.67
-0.675
-0.695
-0.68
-0.68
-0.675
-0.665
-0.66
-0.645
-0.64
-0.655
-0.65
-0.645
-0.655
-0.66
-0.645
-0.65
-0.645
-0.63
-0.635
-0.615
-0.62
-0.635
-0.63
-0.635
-0.65
-0.67
-0.665
-0.655
-0.655
-0.655
-0.655
-0.635
-0.64
-0.63
-0.645
-0.645
-0.65
-0.665
-0.665
-0.67
-0.66
-0.66
-0.675
-0.665
-0.65
-0.655
-0.675
-0.67
-0.68
-0.68
-0.685
-0.68
-0.685
-0.675
-0.675
-0.67
-0.675
-0.67
-0.685
-0.68
-0.69
-0.705
-0.7
-0.695
-0.705
-0.695
-0.69
-0.675
-0.685
-0.685
-0.685
-0.695
-0.69
-0.695
-0.7
-0.695
-0.68
-0.665
-0.65
-0.635
-0.61
-0.6
-0.595
-0.595
-0.585
-0.58
-0.575
-0.565
-0.535
-0.535
-0.515
-0.525
-0.52
-0.535
-0.555
-0.56
-0.565
-0.555
-0.55
-0.55
-0.56
-0.545
-0.57
-0.565
-0.585
-0.595
-0.625
-0.65
-0.67
-0.7
-0.695
-0.72
-0.71
-0.705
-0.7
-0.69
-0.675
-0.68
-0.695
-0.705
-0.71
-0.72
-0.73
-0.725
-0.72
-0.72
-0.72
-0.705
-0.71
-0.71
-0.71
-0.72
-0.72
-0.72
-0.735
-0.72
-0.71
-0.7
-0.695
-0.675
-0.67
-0.67
-0.67
-0.67
-0.675
-0.67
-0.655
-0.65
-0.62
-0.575
-0.49
-0.365
-0.18
0.05
0.385
0.77
1.145
1.47
1.665
1.685
1.45
0.995
0.355
-0.285
-0.925
-1.405
-1.52
-1.415
-1.165
-0.9
-0.685
-0.555
-0.495
-0.49
-0.515
-0.54
-0.57
-0.59
-0.6
-0.6
-0.6
-0.59
-0.6
-0.59
-0.59
-0.585
-0.58
-0.57
-0.57
-0.575
-0.57
-0.585
-0.58
-0.585
-0.59
-0.585
-0.575
-0.585
-0.585
-0.595
-0.575
-0.565
-0.575
-0.57
-0.575
-0.59
-0.585
-0.58
-0.585
-0.58
-0.57
-0.565
-0.565
-0.56
-0.565
-0.575
-0.58
-0.585
-0.59
-0.575
-0.585
-0.575
-0.565
-0.555
-0.555
-0.55
-0.555
-0.565
-0.555
-0.565
-0.57
-0.565
-0.555
-0.545
-0.545
-0.53
-0.525
-0.53
-0.53
-0.535
-0.55
-0.54
-0.54
-0.535
-0.535
-0.525
-0.51
-0.505
-0.495
-0.495
-0.49
-0.49
-0.495
-0.5
-0.5
-0.5
-0.49
-0.49
-0.465
-0.46
-0.445
-0.445
-0.445
-0.445
-0.455
-0.455
-0.435
-0.435
-0.435
-0.42
-0.395
-0.39
-0.38
-0.385
-0.375
-0.38
-0.375
-0.375
-0.375
-0.375
-0.38
-0.355
-0.35
-0.33
-0.33
-0.345
-0.335
-0.34
-0.36
-0.36
-0.37
-0.39
-0.385
-0.395
-0.41
-0.415
-0.425
-0.445
-0.48
-0.495
-0.515
-0.54
-0.56
-0.58
-0.585
-0.59
-0.6
-0.61
-0.615
-0.63
-0.65
-0.67
-0.685
-0.695
-0.7
-0.705
-0.71
-0.705
-0.7
-0.7
-0.695
-0.695
-0.705
-0.715
-0.71
-0.73
-0.725
-0.725
-0.735
-0.73
-0.725
-0.71
-0.71
-0.7
-0.705
-0.71
-0.72
-0.725
-0.72
-0.72
-0.715
-0.71
-0.695
-0.675
-0.675
-0.66
-0.665
-0.665
-0.665
-0.67
-0.675
-0.67
-0.655
-0.655
-0.65
-0.635
-0.63
-0.63
-0.64
-0.64
-0.645
-0.655
-0.66
-0.66
-0.66
-0.655
-0.66
-0.645
-0.645
-0.65
-0.65
-0.67
-0.67
-0.685
-0.68
-0.685
-0.69
-0.7
-0.68
-0.67
-0.665
-0.67
-0.675
-0.675
-0.695
-0.7
-0.7
-0.69
-0.7
-0.7
-0.685
-0.68
-0.67
-0.675
-0.69
-0.695
-0.715
-0.695
-0.71
-0.705
-0.71
-0.71
-0.69
-0.695
-0.69
-0.685
-0.68
-0.69
-0.69
-0.7
-0.71
-0.7
-0.7
-0.69
-0.685
-0.67
-0.655
-0.655
-0.655
-0.635
-0.63
-0.64
-0.63
-0.625
-0.61
-0.59
-0.575
-0.555
-0.535
-0.525
-0.515
-0.53
-0.55
-0.56
-0.565
-0.56
-0.565
-0.555
-0.54
-0.545
-0.54
-0.55
-0.57
-0.585
-0.61
-0.645
-0.675
-0.685
-0.695
-0.7
-0.695
-0.675
-0.67
-0.68
-0.68
-0.69
-0.705
-0.7
-0.71
-0.715
-0.71
-0.705
-0.705
-0.7
-0.685
-0.69
-0.695
-0.705
-0.725
-0.72
-0.72
-0.725
-0.72
-0.705
-0.705
-0.7
-0.68
-0.685
-0.675
-0.68
-0.67
-0.675
-0.67
-0.685
-0.665
-0.65
-0.64
-0.625
-0.605
-0.585
-0.54
-0.46
-0.335
-0.17
0.1
0.455
0.845
1.255
1.565
1.725
1.695
1.395
0.875
0.235
-0.405
-1.045
-1.45
-1.525
-1.38
-1.13
-0.85
-0.63
-0.51
-0.46
-0.46
-0.515
-0.55
-0.585
-0.62
-0.62
-0.625
-0.615
-0.59
-0.57
-0.575
-0.595
-0.575
-0.59
-0.595
-0.595
-0.595
-0.595
-0.59
-0.585
-0.585
-0.565
-0.56
-0.565
-0.57
-0.585
-0.57
-0.585
-0.585
-0.585
-0.575
-0.585
-0.575
-0.565
-0.56
-0.565
-0.565
-0.555
-0.575
-0.57
-0.585
-0.585
-0.575
-0.565
-0.565
-0.565
-0.56
-0.555
-0.555
-0.565
-0.57
-0.57
-0.565
-0.57
-0.57
-0.56
-0.55
-0.545
-0.535
-0.53
-0.53
-0.535
-0.55
-0.53
-0.555
-0.54
-0.545
-0.535
-0.525
-0.505
-0.505
-0.505
-0.5
-0.51
-0.505
-0.505
-0.52
-0.525
-0.515
-0.505
-0.48
-0.485
-0.46
-0.455
-0.465
-0.445
-0.45
-0.45
-0.445
-0.45
-0.435
-0.42
-0.41
-0.4
-0.385
-0.385
-0.375
-0.375
-0.38
-0.38
-0.39
-0.365
-0.37
-0.37
-0.36
-0.35
-0.335
-0.335
-0.335
-0.34
-0.35
-0.35
-0.355
-0.365
-0.35
-0.36
-0.36
-0.38
-0.4
-0.41
-0.425
-0.435
-0.465
-0.49
-0.52
-0.535
-0.56
-0.575
-0.59
-0.6
-0.605
-0.62
-0.63
-0.64
-0.65
-0.66
-0.68
-0.68
-0.68
-0.69
-0.695
-0.69
-0.69
-0.7
-0.705
-0.7
-0.705
-0.725
-0.72
-0.725
-0.71
-0.715
-0.715
-0.7
-0.695
-0.7
-0.71
-0.715
-0.715
-0.72
-0.7
-0.71
-0.705
-0.695
-0.69
-0.68
-0.68
-0.665
-0.665
-0.655
-0.66
-0.67
-0.67
-0.675
-0.67
-0.665
-0.665
-0.65
-0.645
-0.65
-0.645
-0.655
-0.655
-0.67
-0.675
-0.66
-0.67
-0.675
-0.665
-0.655
-0.66
-0.655
-0.665
-0.675
-0.68
-0.68
-0.69
-0.685
-0.67
-0.665
-0.66
-0.665
-0.66
-0.65
-0.665
-0.67
-0.68
-0.68
-0.69
-0.695
-0.69
-0.695
-0.69
-0.7
-0.68
-0.69
-0.695
-0.69
-0.695
-0.695
-0.695
-0.715
-0.71
-0.71
-0.7
-0.7
-0.7
-0.685
-0.685
-0.69
-0.7
-0.705
-0.715
-0.715
-0.725
-0.715
-0.72
-0.695
-0.695
-0.685
-0.69
-0.69
-0.685
-0.71
-0.705
-0.71
-0.705
-0.715
-0.705
-0.7
-0.675
-0.685
-0.68
-0.69
-0.695
-0.705
-0.715
-0.71
-0.705
-0.7
-0.7
-0.69
-0.68
-0.685
-0.69
-0.685
-0.69
-0.7
-0.715
-0.705
-0.715
-0.705
-0.695
-0.69
-0.685
-0.675
-0.68
-0.685
-0.695
-0.7
-0.69
-0.72
-0.715
-0.71
-0.7
-0.675
-0.68
-0.675
-0.68
-0.68
-0.69
-0.69
-0.695
-0.685
-0.69
-0.68
-0.675
-0.66
-0.64
-0.64
-0.63
-0.63
-0.615
-0.62
-0.61
-0.6
-0.595
-0.575
-0.57
-0.545
-0.525
-0.515
-0.515
-0.53
-0.55
-0.56
-0.58
-0.58
-0.575
-0.57
-0.565
-0.56
-0.545
-0.555
-0.565
-0.57
-0.595
-0.605
-0.625
-0.635
-0.66
-0.675
-0.665
-0.655
-0.665
-0.665
-0.665
-0.675
-0.685
-0.69
-0.69
-0.69
-0.695
-0.7
-0.695
-0.69
-0.685
-0.69
-0.695
-0.695
-0.7
-0.715
-0.705
-0.71
-0.695
-0.71
-0.69
-0.69
-0.68
-0.675
-0.67
-0.675
-0.68
-0.665
-0.66
-0.655
-0.635
-0.63
-0.625
-0.6
-0.575
-0.525
-0.45
-0.315
-0.13
0.125
0.465
0.85
1.225
1.515
1.635
1.505
1.11
0.495
-0.145
-0.785
-1.375
-1.555
-1.485
-1.25
-0.99
-0.745
-0.59
-0.5
-0.48
-0.5
-0.54
-0.565
-0.605
-0.62
-0.63
-0.63
-0.61
-0.605
-0.585
-0.575
-0.57
-0.555
-0.565
-0.575
-0.585
-0.605
-0.595
-0.605
-0.6
-0.595
-0.585
-0.57
-0.565
-0.56
-0.565
-0.565
-0.575
-0.57
-0.58
-0.585
-0.58
-0.59
-0.585
-0.575
-0.555
-0.56
-0.56
-0.58
-0.57
-0.58
-0.59
-0.58
-0.58
-0.575
-0.575
-0.575
-0.555
-0.555
-0.555
-0.55
-0.555
-0.555
-0.565
-0.57
-0.575
-0.565
-0.56
-0.565
-0.55
-0.555
-0.54
-0.545
-0.545
-0.545
-0.555
-0.545
-0.54
-0.535
-0.535
-0.52
-0.51
-0.51
-0.51
-0.505
-0.515
-0.51
-0.515
-0.52
-0.52
-0.51
-0.505
-0.51
-0.495
-0.485
-0.47
-0.475
-0.47
-0.475
-0.47
-0.465
-0.465
-0.45
-0.445
-0.445
-0.43
-0.425
-0.425
-0.435
-0.44
-0.44
-0.43
-0.435
-0.43
-0.425
-0.42
-0.42
-0.41
-0.41
-0.41
-0.415
-0.425
-0.425
-0.435
-0.465
-0.47
-0.475
-0.48
-0.485
-0.495
-0.52
-0.54
-0.55
-0.58
-0.6
-0.625
-0.64
-0.645
-0.645
-0.655
-0.655
-0.66
-0.67
-0.67
-0.67
-0.69
-0.695
-0.695
-0.7
-0.71
-0.7
-0.69
-0.705
-0.685
-0.69
-0.69
-0.705
-0.715
-0.7
-0.71
-0.72
-0.725
-0.705
-0.71
-0.7
-0.7
-0.695
-0.695
-0.69
-0.69
-0.69
-0.695
-0.685
-0.705
-0.7
-0.695
-0.685
-0.675
-0.655
-0.66
-0.675
-0.665
-0.67
-0.675
-0.68
-0.675
-0.66
-0.66
-0.66
-0.67
-0.64
-0.655
-0.645
-0.655
-0.645
-0.655
-0.665
-0.66
-0.66
-0.66
-0.66
-0.66
-0.65
-0.675
-0.67
-0.675
-0.675
-0.685
-0.71
-0.695
-0.69
-0.685
-0.675
-0.675
-0.67
-0.665
-0.68
-0.705
-0.7
-0.71
-0.705
-0.7
-0.695
-0.69
-0.69
-0.68
-0.67
-0.685
-0.685
-0.695
-0.705
-0.71
-0.715
-0.725
-0.715
-0.715
-0.72
-0.705
-0.69
-0.705
-0.7
-0.715
-0.715
-0.71
-0.71
-0.72
-0.72
-0.715
-0.705
-0.68
-0.68
-0.685
-0.705
-0.7
-0.7
-0.695
-0.68
-0.67
-0.65
-0.64
-0.635
-0.615
-0.6
-0.59
-0.59
-0.58
-0.57
-0.57
-0.58
-0.57
-0.585
-0.57
-0.575
-0.575
-0.575
-0.575
-0.555
-0.55
-0.565
-0.575
-0.59
-0.605
-0.61
-0.63
-0.645
-0.66
-0.675
-0.69
-0.7
-0.71
-0.72
-0.72
-0.725
-0.715
-0.72
-0.715
-0.725
-0.72
-0.725
-0.735
-0.745
-0.73
-0.74
-0.75
-0.74
-0.745
-0.74
-0.74
-0.72
-0.73
-0.715
-0.725
-0.715
-0.72
-0.725
-0.73
-0.72
-0.745
-0.73
-0.72
-0.72
-0.705
-0.685
-0.685
-0.68
-0.67
-0.675
-0.675
-0.655
-0.59
-0.495
-0.32
-0.075
0.245
0.635
1.04
1.385
1.6
1.595
1.31
0.78
0.14
-0.5
-1.14
-1.565
-1.57
-1.375
-1.09
-0.83
-0.645
-0.55
-0.52
-0.535
-0.57
-0.595
-0.62
-0.625
-0.62
-0.61
-0.61
-0.61
-0.61
-0.615
-0.615
-0.625
-0.62
-0.615
-0.605
-0.6
-0.595
-0.59
-0.59
-0.585
-0.6
-0.61
-0.61
-0.61
-0.615
-0.615
-0.605
-0.595
-0.59
-0.58
-0.585
-0.575
-0.6
-0.595
-0.6
-0.6
-0.605
-0.595
-0.585
-0.59
-0.58
-0.57
-0.575
-0.58
-0.58
-0.585
-0.585
-0.595
-0.595
-0.585
-0.59
-0.565
-0.575
-0.58
-0.575
-0.57
-0.58
-0.575
-0.57
-0.59
-0.58
-0.57
-0.56
-0.56
-0.545
-0.535
-0.54
-0.54
-0.535
-0.535
-0.555
-0.55
-0.555
-0.525
-0.525
-0.525
-0.51
-0.495
-0.5
-0.49
-0.495
-0.495
-0.505
-0.495
-0.495
-0.49
-0.47
-0.46
-0.455
-0.44
-0.44
-0.445
-0.425
-0.43
-0.445
-0.44
-0.44
-0.43
-0.42
-0.42
-0.405
-0.4
-0.4
-0.405
-0.41
-0.41
-0.42
-0.425
-0.42
-0.42
-0.405
-0.415
-0.41
-0.41
-0.415
-0.425
-0.43
-0.435
-0.455
-0.505
-0.525
-0.53
-0.525
-0.55
-0.56
-0.58
-0.595
-0.62
-0.635
-0.65
-0.68
-0.695
-0.7
-0.71
-0.715
-0.72
-0.72
-0.72
-0.735
-0.725
-0.735
-0.745
-0.75
-0.755
-0.755
-0.76
-0.755
-0.755
-0.75
-0.735
-0.75
-0.745
-0.745
-0.75
-0.765
-0.75
-0.755
-0.76
-0.745
-0.74
-0.73
-0.72
-0.72
-0.72
-0.725
-0.73
-0.735
-0.735
-0.74
-0.745
-0.72
-0.71
-0.705
-0.7
-0.7
-0.69
-0.695
-0.695
-0.705
-0.71
-0.695
-0.7
-0.685
-0.695
-0.69
-0.685
-0.68
-0.68
-0.685
-0.695
-0.72
-0.71
-0.72
-0.72
-0.71
-0.705
-0.705
-0.69
-0.69
-0.7
-0.7
-0.705
-0.725
-0.725
-0.725
-0.725
-0.725
-0.735
-0.715
-0.71
-0.715
-0.725
-0.73
-0.735
-0.74
-0.745
-0.74
-0.74
-0.745
-0.735
-0.735
-0.73
-0.73
-0.72
-0.725
-0.73
-0.74
-0.75
-0.735
-0.735
-0.73
-0.72
-0.715
-0.705
-0.7
-0.68
-0.68
-0.675
-0.67
-0.68
-0.66
-0.65
-0.64
-0.625
-0.615
-0.58
-0.57
-0.585
-0.58
-0.59
-0.605
-0.615
-0.625
-0.615
-0.61
-0.59
-0.595
-0.585
-0.59
-0.59
-0.615
-0.64
-0.655
-0.685
-0.7
-0.72
-0.725
-0.735
-0.735
-0.73
-0.735
-0.745
-0.75
-0.755
-0.765
-0.78
-0.77
-0.77
-0.76
-0.76
-0.775
-0.77
-0.765
-0.765
-0.775
-0.775
-0.785
-0.785
-0.785
-0.795
-0.79
-0.785
-0.765
-0.76
-0.74
-0.73
-0.73
-0.74
-0.725
-0.735
-0.73
-0.715
-0.7
-0.695
-0.675
-0.63
-0.575
-0.475
-0.325
-0.08
0.22
0.595
1.0
1.365
1.575
1.565
1.27
0.695
0.055
-0.585
-1.225
-1.585
-1.555
-1.35
-1.05
-0.775
-0.595
-0.5
-0.475
-0.505
-0.565
-0.62
-0.67
-0.68
-0.675
-0.68
-0.67
-0.66
-0.65
-0.645
-0.65
-0.63
-0.635
-0.635
-0.625
-0.64
-0.64
-0.645
-0.645
-0.65
-0.64
-0.65
-0.62
-0.62
-0.62
-0.615
-0.62
-0.63
-0.63
-0.64
-0.63
-0.64
-0.62
-0.62
-0.605
-0.595
-0.605
-0.605
-0.61
-0.615
-0.61
-0.61
-0.605
-0.6
-0.595
-0.595
-0.59
-0.575
-0.575
-0.585
-0.58
-0.59
-0.59
-0.6
-0.595
-0.6
-0.58
-0.58
-0.565
-0.555
-0.565
-0.57
-0.565
-0.58
-0.58
-0.575
-0.575
-0.57
-0.56
-0.55
-0.55
-0.535
-0.52
-0.53
-0.53
-0.52
-0.53
-0.535
-0.535
-0.545
-0.51
-0.505
-0.49
-0.475
-0.465
-0.46
-0.465
-0.46
-0.455
-0.455
-0.455
-0.425
-0.425
-0.41
-0.4
-0.385
-0.385
-0.385
-0.395
-0.39
-0.4
-0.405
-0.4
-0.405
-0.39
-0.375
-0.385
-0.375
-0.37
-0.375
-0.385
-0.405
-0.415
-0.44
-0.455
-0.465
-0.485
-0.49
-0.505
-0.51
-0.52
-0.545
-0.57
-0.605
-0.62
-0.645
-0.65
-0.655
-0.665
-0.665
-0.675
-0.67
-0.675
-0.685
-0.69
-0.71
-0.72
-0.73
-0.73
-0.74
-0.725
-0.74
-0.73
-0.73
-0.735
-0.735
-0.74
-0.745
-0.745
-0.755
-0.76
-0.745
-0.735
-0.745
-0.725
-0.72
-0.725
-0.72
-0.71
-0.72
-0.72
-0.72
-0.71
-0.72
-0.71
-0.695
-0.69
-0.68
-0.67
-0.68
-0.685
-0.69
-0.685
-0.69
-0.69
-0.685
-0.675
-0.675
-0.665
-0.66
-0.655
-0.655
-0.66
-0.67
-0.67
-0.675
-0.68
-0.69
-0.685
-0.665
-0.67
-0.67
-0.66
-0.67
-0.68
-0.685
-0.695
-0.71
-0.71
-0.705
-0.685
-0.685
-0.68
-0.675
-0.675
-0.68
-0.68
-0.7
-0.69
-0.705
-0.705
-0.71
-0.7
-0.685
-0.69
-0.69
-0.69
-0.705
-0.7
-0.71
-0.72
-0.71
-0.725
-0.715
-0.71
-0.715
-0.7
-0.685
-0.685
-0.695
-0.7
-0.71
-0.705
-0.7
-0.705
-0.7
-0.685
-0.67
-0.655
-0.635
-0.635
-0.615
-0.615
-0.61
-0.615
-0.61
-0.6
-0.57
-0.56
-0.545
-0.52
-0.515
-0.52
-0.525
-0.545
-0.545
-0.57
-0.575
-0.58
-0.575
-0.565
-0.555
-0.56
-0.565
-0.565
-0.595
-0.62
-0.64
-0.66
-0.68
-0.695
-0.705
-0.7
-0.69
-0.69
-0.675
-0.675
-0.68
-0.69
-0.71
-0.705
-0.725
-0.725
-0.72
-0.725
-0.705
-0.71
-0.7
-0.705
-0.71
-0.7
-0.715
-0.715
-0.715
-0.72
-0.715
-0.715
-0.695
-0.68
-0.675
-0.66
-0.645
-0.64
-0.64
-0.635
-0.635
-0.63
-0.6
-0.51
-0.365
-0.16
0.15
0.545
0.98
1.375
1.59
1.525
1.12
0.48
-0.16
-0.8
-1.44
-1.6
-1.445
-1.165
-0.885
-0.66
-0.525
-0.475
-0.48
-0.51
-0.565
-0.59
-0.605
-0.605
-0.6
-0.585
-0.58
-0.575
-0.59
-0.585
-0.6
-0.605
-0.595
-0.6
-0.59
-0.585
-0.585
-0.57
-0.57
-0.575
-0.565
-0.58
-0.585
-0.575
-0.575
-0.57
-0.565
-0.575
-0.565
-0.565
-0.565
-0.56
-0.57
-0.57
-0.575
-0.575
-0.585
-0.58
-0.565
-0.555
-0.555
-0.555
-0.555
-0.575
-0.56
-0.565
-0.565
-0.57
-0.565
-0.56
-0.55
-0.56
-0.53
-0.525
-0.535
-0.535
-0.545
-0.54
-0.545
-0.545
-0.54
-0.535
-0.52
-0.51
-0.505
-0.51
-0.505
-0.515
-0.515
-0.52
-0.525
-0.525
-0.525
-0.515
-0.505
-0.505
-0.475
-0.47
-0.48
-0.475
-0.48
-0.48
-0.48
-0.475
-0.475
-0.475
-0.46
-0.445
-0.43
-0.435
-0.425
-0.405
-0.42
-0.42
-0.425
-0.415
-0.415
-0.4
-0.395
-0.385
-0.375
-0.375
-0.39
-0.38
-0.37
-0.385
-0.395
-0.41
-0.385
-0.375
-0.37
-0.355
-0.355
-0.355
-0.34
-0.36
-0.365
-0.39
-0.415
-0.44
-0.45
-0.47
-0.48
-0.49
-0.5
-0.51
-0.52
-0.545
-0.575
-0.59
-0.615
-0.625
-0.64
-0.645
-0.645
-0.645
-0.64
-0.65
-0.65
-0.665
-0.68
-0.68
-0.685
-0.695
-0.69
-0.7
-0.7
-0.69
-0.675
-0.665
-0.68
-0.695
-0.695
-0.7
-0.695
-0.69
-0.695
-0.68
-0.67
-0.66
-0.655
-0.645
-0.66
-0.64
-0.65
-0.655
-0.665
-0.67
-0.665
-0.66
-0.64
-0.635
-0.625
-0.62
-0.62
-0.625
-0.63
-0.63
-0.64
-0.645
-0.645
-0.64
-0.625
-0.625
-0.62
-0.625
-0.625
-0.615
-0.63
-0.64
-0.65
-0.655
-0.65
-0.655
-0.645
-0.64
-0.63
-0.62
-0.645
-0.645
-0.655
-0.66
-0.67
-0.665
-0.67
-0.67
-0.665
-0.665
-0.665
-0.665
-0.67
-0.67
-0.68
-0.695
-0.705
-0.69
-0.685
-0.69
-0.69
-0.675
-0.67
-0.67
-0.665
-0.66
-0.665
-0.67
-0.685
-0.685
-0.69
-0.685
-0.675
-0.66
-0.645
-0.63
-0.615
-0.595
-0.6
-0.6
-0.595
-0.585
-0.57
-0.565
-0.545
-0.535
-0.51
-0.5
-0.495
-0.495
-0.505
-0.525
-0.535
-0.545
-0.545
-0.535
-0.53
-0.515
-0.515
-0.505
-0.53
-0.545
-0.57
-0.595
-0.61
-0.65
-0.66
-0.685
-0.705
-0.69
-0.68
-0.67
-0.665
-0.665
-0.67
-0.68
-0.695
-0.705
-0.71
-0.71
-0.7
-0.69
-0.69
-0.7
-0.695
-0.695
-0.705
-0.715
-0.715
-0.72
-0.73
-0.725
-0.71
-0.705
-0.7
-0.69
-0.695
-0.69
-0.675
-0.68
-0.675
-0.67
-0.66
-0.655
-0.64
-0.645
-0.63
-0.61
-0.575
-0.525
-0.435
-0.32
-0.145
0.095
0.425
0.785
1.15
1.455
1.64
1.645
1.4
0.94
0.31
-0.33
-0.97
-1.395
-1.525
-1.425
-1.195
-0.94
-0.7
-0.545
-0.49
-0.485
-0.535
-0.555
-0.595
-0.62
-0.62
-0.62
-0.62
-0.6
-0.575
-0.575
-0.575
-0.58
-0.575
-0.59
-0.595
-0.59
-0.585
-0.585
-0.58
-0.565
-0.57
-0.565
-0.57
-0.575
-0.575
-0.57
-0.57
-0.575
-0.565
-0.57
-0.565
-0.56
-0.545
-0.535
-0.55
-0.545
-0.565
-0.57
-0.565
-0.565
-0.565
-0.545
-0.55
-0.555
-0.545
-0.54
-0.55
-0.535
-0.545
-0.54
-0.55
-0.55
