Lead II
0.205
0.24
0.26
0.255
0.24
0.225
0.23
0.23
0.245
0.255
0.26
0.29
0.31
0.35
0.365
0.335
0.31
0.3
0.29
0.285
0.295
0.29
0.28
0.255
0.23
0.245
0.26
0.27
0.265
0.24
0.19
0.185
0.2
0.185
0.195
0.195
0.19
0.18
0.18
0.17
0.155
0.155
0.185
0.185
0.18
0.175
0.17
0.16
0.155
0.17
0.2
0.195
0.18
0.155
0.14
0.135
0.145
0.13
0.125
0.095
0.12
0.245
0.425
0.64
0.845
1.075
1.35
1.56
1.535
1.32
1.02
0.79
0.595
0.475
0.42
0.35
0.265
0.225
0.235
0.22
0.2
0.155
0.135
0.105
0.08
0.09
0.115
0.105
0.1
0.1
0.095
0.095
0.115
0.12
0.11
0.11
0.11
0.105
0.105
0.1
0.105
0.085
0.065
0.07
0.09
0.095
0.09
0.1
0.095
0.095
0.09
0.105
0.1
0.09
0.09
0.095
0.11
0.085
0.06
0.045
0.035
0.035
0.045
0.065
0.075
0.09
0.095
0.1
0.105
0.105
0.08
0.065
0.08
0.09
0.085
0.08
0.08
0.075
0.095
0.095
0.105
0.115
0.115
0.11
0.1
0.11
0.12
0.12
0.125
0.13
0.12
0.13
0.145
0.16
0.18
0.195
0.205
0.205
0.2
0.195
0.215
0.22
0.22
0.23
0.25
0.25
0.25
0.22
0.21
0.225
0.25
0.275
0.28
0.27
0.27
0.265
0.285
0.29
0.28
0.26
0.25
0.255
0.24
0.235
0.22
0.2
0.195
0.2
0.205
0.19
0.185
0.175
0.16
0.15
0.155
0.16
0.16
0.175
0.135
0.13
0.12
0.11
0.12
0.115
0.125
0.13
0.13
0.135
0.145
0.125
0.115
0.12
0.13
0.12
0.1
0.115
0.12
0.12
0.115
0.115
0.12
0.125
0.125
0.115
0.125
0.13
0.125
0.115
0.125
0.13
0.15
0.135
0.12
0.12
0.11
0.13
0.15
0.14
0.12
0.12
0.14
0.155
0.155
0.145
0.13
0.125
0.14
0.14
0.145
0.13
0.145
0.145
0.145
0.145
0.145
0.16
0.16
0.15
0.175
0.18
0.185
0.17
0.17
0.16
0.165
0.155
0.155
0.15
0.155
0.15
0.15
0.155
0.17
0.155
0.16
0.155
0.15
0.165
0.19
0.18
0.18
0.175
0.18
0.19
0.19
0.19
0.195
0.19
0.21
0.235
0.235
0.245
0.245
0.265
0.275
0.31
0.335
0.325
0.31
0.28
0.275
0.28
0.275
0.27
0.27
0.25
0.25
0.26
0.255
0.23
0.22
0.235
0.22
0.22
0.215
0.2
0.165
0.155
0.145
0.155
0.175
0.185
0.185
0.175
0.18
0.175
0.175
0.165
0.17
0.16
0.16
0.17
0.195
0.195
0.19
0.185
0.16
0.165
0.165
0.21
0.345
0.555
0.785
1.02
1.26
1.435
1.48
1.335
1.07
0.815
0.62
0.475
0.425
0.38
0.305
0.26
0.285
0.29
0.24
0.195
0.17
0.165
0.17
0.17
0.175
0.18
0.17
0.175
0.18
0.17
0.165
0.15
0.135
0.14
0.16
0.175
0.17
0.15
0.14
0.135
0.13
0.14
0.15
0.15
0.14
0.125
0.14
0.13
0.14
0.13
0.125
0.13
0.13
0.14
0.15
0.135
0.135
0.125
0.145
0.14
0.135
0.14
0.13
0.14
0.145
0.14
0.125
0.13
0.13
0.155
0.165
0.155
0.17
0.145
0.15
0.165
0.17
0.16
0.165
0.175
0.175
0.18
0.205
0.215
0.195
0.185
0.2
0.215
0.23
0.24
0.24
0.255
0.26
0.28
0.29
0.32
0.325
0.315
0.3
0.3
0.325
0.33
0.325
0.32
0.32
0.35
0.365
0.355
0.345
0.36
0.375
0.37
0.37
0.345
0.325
0.32
0.305
0.3
0.3
0.295
0.29
0.28
0.26
0.245
0.255
0.26
0.245
0.215
0.19
0.195
0.21
0.22
0.225
0.215
0.19
0.185
0.2
0.2
0.17
0.145
0.145
0.165
0.205
0.2
0.195
0.185
0.17
0.17
0.165
0.16
0.175
0.17
0.16
0.16
0.155
0.15
0.165
0.14
0.13
0.135
0.17
0.175
0.155
0.155
0.145
0.155
0.185
0.19
0.195
0.17
0.15
0.145
0.16
0.16
0.16
0.155
0.155
0.145
0.155
0.15
0.155
0.145
0.16
0.17
0.17
0.17
0.155
0.135
0.15
0.16
0.16
0.155
0.15
0.16
0.16
0.175
0.19
0.185
0.165
0.14
0.125
0.135
0.16
0.165
0.155
0.15
0.14
0.155
0.15
0.145
0.145
0.16
0.165
0.195
0.18
0.17
0.14
0.15
0.15
0.17
0.195
0.23
0.25
0.255
0.25
0.24
0.23
0.205
0.19
0.18
0.175
0.2
0.205
0.21
0.19
0.16
0.135
0.13
0.135
0.15
0.145
0.13
0.1
0.09
0.085
0.075
0.065
0.06
0.06
0.065
0.06
0.065
0.055
0.045
0.02
0.03
0.055
0.085
0.09
0.08
0.04
0.05
0.055
0.06
0.045
0.015
0.01
0.0
0.005
0.04
0.16
0.35
0.565
0.84
1.09
1.27
1.325
1.255
1.055
0.815
0.56
0.375
0.295
0.25
0.155
0.1
0.105
0.085
0.08
0.055
0.03
0.0
-0.02
-0.03
-0.035
-0.01
-0.015
-0.01
-0.025
-0.04
-0.05
-0.06
-0.06
-0.045
-0.04
-0.07
-0.08
-0.085
-0.08
-0.065
-0.055
-0.055
-0.075
-0.105
-0.11
-0.11
-0.1
-0.095
-0.1
-0.115
-0.125
-0.125
-0.11
-0.115
-0.13
-0.125
-0.155
-0.16
-0.13
-0.135
-0.13
-0.145
-0.145
-0.14
-0.14
-0.135
-0.135
-0.145
-0.16
-0.165
-0.17
-0.16
-0.15
-0.135
-0.155
-0.17
-0.16
-0.145
-0.135
-0.14
-0.13
-0.115
-0.11
-0.105
-0.11
-0.095
-0.105
-0.09
-0.085
-0.065
-0.065
-0.055
-0.06
-0.055
-0.02
-0.02
-0.015
-0.03
-0.045
-0.02
0.005
0.005
0.01
-0.005
0.005
0.015
0.01
-0.005
-0.005
-0.005
-0.005
-0.01
0.005
-0.015
-0.03
-0.045
-0.065
-0.07
-0.065
-0.09
-0.105
-0.13
-0.155
-0.15
-0.14
-0.14
-0.14
-0.17
-0.185
-0.195
-0.175
-0.18
-0.195
-0.205
-0.22
-0.225
-0.235
-0.25
-0.27
-0.26
-0.24
-0.24
-0.235
-0.235
-0.24
-0.245
-0.25
-0.245
-0.245
-0.245
-0.265
-0.285
-0.265
-0.26
-0.25
-0.265
-0.285
-0.3
-0.305
-0.295
-0.285
-0.29
-0.28
-0.27
-0.275
-0.27
-0.27
-0.27
-0.295
-0.285
-0.285
-0.27
-0.26
-0.26
-0.295
-0.325
-0.315
-0.295
-0.27
-0.27
-0.28
-0.305
-0.32
-0.315
-0.31
-0.32
-0.34
-0.375
-0.38
-0.365
-0.325
-0.31
-0.33
-0.365
-0.385
-0.4
-0.385
-0.38
-0.365
-0.365
-0.375
-0.35
-0.355
-0.355
-0.38
-0.39
-0.415
-0.405
-0.4
-0.395
-0.395
-0.38
-0.38
-0.365
-0.39
-0.405
-0.42
-0.405
-0.395
-0.39
-0.385
-0.385
-0.37
-0.4
-0.42
-0.415
-0.385
-0.355
-0.33
-0.295
-0.27
-0.28
-0.295
-0.305
-0.315
-0.335
-0.35
-0.345
-0.335
-0.345
-0.35
-0.365
-0.41
-0.42
-0.42
-0.425
-0.44
-0.485
-0.515
-0.52
-0.485
-0.47
-0.48
-0.49
-0.49
-0.485
-0.485
-0.495
-0.52
-0.545
-0.565
-0.56
-0.555
-0.555
-0.55
-0.545
-0.54
-0.54
-0.54
-0.565
-0.585
-0.61
-0.645
-0.645
-0.65
-0.635
-0.61
-0.55
-0.45
-0.285
-0.105
0.085
0.31
0.53
0.68
0.71
0.57
0.35
0.135
-0.06
-0.215
-0.29
-0.33
-0.42
-0.505
-0.525
-0.51
-0.495
-0.52
-0.55
-0.59
-0.645
-0.725
-0.785
-0.795
-0.755
-0.69
-0.67
-0.67
-0.685
-0.715
-0.74
-0.765
-0.785
-0.775
-0.75
-0.72
-0.735
-0.76
-0.785
-0.81
-0.815
-0.815
-0.8
-0.79
-0.785
-0.795
-0.785
-0.77
-0.795
-0.825
-0.86
-0.88
-0.86
-0.83
-0.795
-0.8
-0.805
-0.84
-0.885
-0.925
-0.935
-0.905
-0.875
-0.855
-0.83
-0.835
-0.865
-0.91
-0.95
-0.95
-0.93
-0.9
-0.875
-0.85
-0.865
-0.9
-0.94
-0.97
-0.99
-0.985
-0.955
-0.915
-0.875
-0.84
-0.83
-0.855
-0.9
-0.935
-0.92
-0.89
-0.87
-0.85
-0.825
-0.84
-0.85
-0.845
-0.845
-0.815
-0.805
-0.8
-0.805
-0.81
-0.81
-0.815
-0.81
-0.825
-0.785
-0.745
-0.72
-0.725
-0.74
-0.775
-0.765
-0.795
-0.825
-0.845
-0.855
-0.835
-0.815
-0.81
-0.81
-0.845
-0.89
-0.92
-0.9
-0.89
-0.88
-0.91
-0.945
-1.0
-1.015
-1.0
-0.98
-0.935
-0.925
-0.935
-0.975
-1.0
-1.04
-1.03
-0.995
-0.97
-0.95
-0.955
-0.975
-1.005
-1.035
-1.06
-1.035
-1.0
-0.965
-0.97
-1.0
-1.03
-1.07
-1.07
-1.04
-1.005
-0.965
-0.95
-0.945
-0.97
-1.005
-1.035
-1.03
-1.025
-1.01
-0.985
-0.985
-0.985
-0.985
-0.995
-0.99
-0.98
-0.98
-0.985
-1.015
-1.035
-1.02
-1.0
-1.005
-0.985
-0.985
-0.97
-0.965
-0.94
-0.935
-0.945
-0.97
-0.995
-0.98
-0.97
-0.965
-0.965
-0.97
-0.97
-0.97
-0.96
-0.96
-0.97
-0.995
-1.01
-1.005
-0.985
-0.985
-0.965
-0.97
-0.965
-0.965
-0.965
-0.98
-0.98
-0.99
-1.0
-0.99
-0.98
-0.965
-0.965
-0.975
-0.98
-1.0
-0.985
-0.975
-0.96
-0.94
-0.945
-0.935
-0.93
-0.95
-0.94
-0.94
-0.945
-0.945
-0.935
-0.925
-0.91
-0.875
-0.87
-0.84
-0.82
-0.805
-0.83
-0.855
-0.88
-0.865
-0.84
-0.83
-0.85
-0.87
-0.895
-0.91
-0.91
-0.91
-0.91
-0.91
-0.9
-0.895
-0.915
-0.94
-0.965
-0.975
-0.96
-0.955
-0.94
-0.95
-0.955
-0.975
-0.985
-0.965
-0.95
-0.93
-0.935
-0.945
-0.97
-0.97
-0.975
-0.97
-0.94
-0.955
-0.975
-0.98
-0.965
-0.96
-0.94
-0.915
-0.91
-0.895
-0.885
-0.855
-0.775
-0.645
-0.465
-0.235
-0.015
0.205
0.4
0.505
0.465
0.295
0.08
-0.145
-0.385
-0.56
-0.65
-0.695
-0.765
-0.81
-0.82
-0.855
-0.885
-0.905
-0.915
-0.915
-0.935
-0.96
-0.97
-0.94
-0.935
-0.945
-0.96
-0.97
-0.98
-0.97
-0.965
-0.96
-0.96
-0.97
-0.995
-0.99
-0.975
-0.96
-0.97
-0.98
-1.005
-1.01
-1.005
-0.99
-0.98
-0.98
-0.985
-0.98
-0.985
-0.975
-0.99
-1.02
-1.045
-1.035
-1.015
-1.015
-1.01
-1.005
-1.02
-1.01
-0.99
-0.99
-0.985
-0.99
-1.015
-1.02
-1.005
-0.985
-0.97
-1.0
-1.015
-1.0
-0.99
-0.985
-0.985
-0.995
-1.0
-0.97
-0.96
-0.95
-0.965
-0.99
-0.98
-0.975
-0.965
-0.96
-0.955
-0.955
-0.965
-0.95
-0.935
-0.915
-0.9
-0.89
-0.89
-0.86
-0.85
-0.835
-0.855
-0.875
-0.87
-0.85
-0.825
-0.81
-0.83
-0.82
-0.825
-0.82
-0.8
-0.765
-0.77
-0.79
-0.78
-0.745
-0.73
-0.755
-0.785
-0.79
-0.8
-0.785
-0.79
-0.8
-0.805
-0.825
-0.84
-0.835
-0.835
-0.855
-0.885
-0.905
-0.92
-0.925
-0.915
-0.895
-0.895
-0.91
-0.935
-0.94
-0.93
-0.915
-0.915
-0.93
-0.935
-0.92
-0.905
-0.91
-0.925
-0.945
-0.94
-0.935
-0.925
-0.95
-0.97
-0.99
-0.985
-0.975
-0.965
-0.96
-0.945
-0.945
-0.95
-0.95
-0.94
-0.93
-0.93
-0.94
-0.955
-0.95
-0.95
-0.95
-0.985
-0.985
-0.98
-0.95
-0.915
-0.905
-0.91
-0.935
-0.955
-0.96
-0.965
-0.925
-0.91
-0.905
-0.895
-0.9
-0.92
-0.96
-0.985
-0.97
-0.935
-0.905
-0.885
-0.885
-0.9
-0.91
-0.92
-0.915
-0.925
-0.925
-0.94
-0.945
-0.94
-0.925
-0.9
-0.9
-0.91
-0.925
-0.96
-0.985
-0.98
-0.95
-0.925
-0.905
-0.89
-0.885
-0.89
-0.9
-0.93
-0.945
-0.95
-0.935
-0.935
-0.905
-0.88
-0.875
-0.89
-0.9
-0.895
-0.885
-0.875
-0.895
-0.88
-0.87
-0.815
-0.78
-0.745
-0.755
-0.765
-0.775
-0.79
-0.795
-0.79
-0.805
-0.81
-0.8
-0.79
-0.78
-0.79
-0.82
-0.87
-0.91
-0.925
-0.915
-0.86
-0.85
-0.855
-0.875
-0.895
-0.92
-0.935
-0.96
-0.945
-0.92
-0.9
-0.885
-0.88
-0.905
-0.945
-0.975
-0.99
-0.995
-0.955
-0.94
-0.92
-0.895
-0.88
-0.9
-0.9
-0.915
-0.96
-0.97
-0.965
-0.945
-0.89
-0.76
-0.585
-0.375
-0.185
0.055
0.31
0.495
0.54
0.415
0.175
-0.08
-0.34
-0.54
-0.655
-0.695
-0.78
-0.875
-0.915
-0.915
-0.905
-0.895
-0.875
-0.89
-0.925
-0.97
-1.015
-1.04
-1.02
-0.995
-0.99
-1.005
-1.025
-1.025
-1.01
-0.99
-0.99
-0.995
-1.02
-1.02
-1.03
-1.025
-1.01
-1.0
-1.01
-1.005
-1.0
-1.005
-1.02
-1.035
-1.05
-1.06
-1.045
-1.04
-1.03
-1.03
-1.03
-1.01
-1.0
-1.01
-1.02
-1.015
-1.035
-1.015
-1.015
-1.035
-1.03
-1.035
-1.03
-1.02
-1.01
-1.01
-1.02
-1.035
-1.055
-1.045
-1.03
-1.005
-0.99
-0.985
-0.995
-1.0
-1.0
-1.0
-1.02
-1.03
-1.035
-1.005
-0.97
-0.955
-0.96
-0.97
-0.975
-0.975
-0.965
-0.95
-0.915
-0.915
-0.92
-0.905
-0.91
-0.9
-0.9
-0.92
-0.9
-0.865
-0.825
-0.8
-0.795
-0.79
-0.8
-0.795
-0.795
-0.795
-0.79
-0.795
-0.78
-0.765
-0.74
-0.72
-0.7
-0.695
-0.715
-0.745
-0.755
-0.76
-0.76
-0.76
-0.76
-0.765
-0.8
-0.835
-0.865
-0.865
-0.855
-0.825
-0.84
-0.855
-0.86
-0.875
-0.875
-0.9
-0.925
-0.94
-0.935
-0.91
-0.92
-0.9
-0.895
-0.89
-0.9
-0.91
-0.925
-0.93
-0.935
-0.91
-0.925
-0.935
-0.96
-0.955
-0.925
-0.9
-0.875
-0.905
-0.935
-0.955
-0.955
-0.94
-0.92
-0.925
-0.94
-0.925
-0.9
-0.88
-0.88
-0.9
-0.925
-0.93
-0.925
-0.895
-0.87
-0.89
-0.905
-0.91
-0.915
-0.9
-0.9
-0.91
-0.93
-0.915
-0.9
-0.885
-0.88
-0.87
-0.865
-0.86
-0.85
-0.84
-0.87
-0.875
-0.89
-0.905
-0.895
-0.895
-0.89
-0.885
-0.895
-0.875
-0.855
-0.845
-0.84
-0.865
-0.89
-0.895
-0.9
-0.86
-0.84
-0.85
-0.86
-0.87
-0.87
-0.875
-0.88
-0.89
-0.875
-0.855
-0.845
-0.855
-0.885
-0.885
-0.885
-0.865
-0.845
-0.825
-0.85
-0.855
-0.87
-0.855
-0.83
-0.805
-0.78
-0.795
-0.815
-0.825
-0.825
-0.815
-0.795
-0.78
-0.77
-0.75
-0.73
-0.715
-0.715
-0.71
-0.71
-0.71
-0.71
-0.71
-0.71
-0.715
-0.715
-0.715
-0.705
-0.705
-0.73
-0.76
-0.77
-0.785
-0.8
-0.81
-0.81
-0.82
-0.83
-0.835
-0.85
-0.845
-0.865
-0.9
-0.915
-0.875
-0.87
-0.85
-0.855
-0.845
-0.845
-0.84
-0.85
-0.865
-0.87
-0.86
-0.865
-0.88
-0.87
-0.88
-0.885
-0.9
-0.9
-0.875
-0.855
-0.85
-0.855
-0.845
-0.78
-0.635
-0.455
-0.23
0.025
0.3
0.54
0.63
0.51
0.25
-0.035
-0.3
-0.5
-0.585
-0.61
-0.66
-0.725
-0.76
-0.785
-0.79
-0.815
-0.83
-0.855
-0.88
-0.94
-0.965
-0.975
-0.965
-0.955
-0.94
-0.915
-0.915
-0.89
-0.87
-0.88
-0.905
-0.925
-0.93
-0.92
-0.915
-0.92
-0.91
-0.915
-0.905
-0.89
-0.885
-0.895
-0.915
-0.94
-0.93
-0.935
-0.92
-0.905
-0.91
-0.91
-0.915
-0.925
-0.92
-0.935
-0.935
-0.945
-0.92
-0.895
-0.885
-0.915
-0.92
-0.92
-0.9
-0.91
-0.955
-0.98
-0.96
-0.94
-0.915
-0.905
-0.895
-0.895
-0.9
-0.92
-0.91
-0.875
-0.865
-0.86
-0.89
-0.91
-0.915
-0.915
-0.905
-0.91
-0.915
-0.9
-0.875
-0.825
-0.785
-0.76
-0.765
-0.795
-0.82
-0.845
-0.82
-0.8
-0.77
-0.76
-0.75
-0.71
-0.7
-0.69
-0.69
-0.705
-0.7
-0.69
-0.71
-0.725
-0.735
-0.72
-0.69
-0.66
-0.625
-0.61
-0.62
-0.63
-0.64
-0.67
-0.665
-0.685
-0.685
-0.705
-0.705
-0.7
-0.715
-0.73
-0.76
-0.775
-0.775
-0.775
-0.775
-0.78
-0.78
-0.78
-0.78
-0.78
-0.78
-0.79
-0.815
-0.83
-0.83
-0.815
-0.825
-0.835
-0.835
-0.84
-0.83
-0.81
-0.79
-0.805
-0.83
-0.855
-0.84
-0.825
-0.82
-0.81
-0.82
-0.835
-0.82
-0.81
-0.795
-0.775
-0.795
-0.82
-0.85
-0.855
-0.835
-0.815
-0.81
-0.825
-0.805
-0.805
-0.805
-0.825
-0.84
-0.84
-0.815
-0.805
-0.785
-0.8
-0.795
-0.81
-0.81
-0.805
-0.795
-0.805
-0.815
-0.83
-0.83
-0.81
-0.785
-0.77
-0.775
-0.765
-0.755
-0.755
-0.77
-0.79
-0.795
-0.805
-0.795
-0.79
-0.775
-0.77
-0.775
-0.78
-0.775
-0.775
-0.77
-0.775
-0.785
-0.79
-0.79
-0.79
-0.77
-0.745
-0.745
-0.745
-0.735
-0.72
-0.73
-0.745
-0.775
-0.79
-0.78
-0.745
-0.715
-0.7
-0.715
-0.725
-0.72
-0.705
-0.715
-0.73
-0.735
-0.715
-0.71
-0.67
-0.66
-0.645
-0.645
-0.63
-0.59
-0.525
-0.51
-0.53
-0.55
-0.59
-0.605
-0.625
-0.625
-0.625
-0.625
-0.63
-0.615
-0.63
-0.63
-0.66
-0.675
-0.695
-0.7
-0.7
-0.7
-0.695
-0.725
-0.725
-0.72
-0.71
-0.715
-0.715
-0.725
-0.74
-0.745
-0.74
-0.725
-0.705
-0.705
-0.725
-0.73
-0.75
-0.735
-0.72
-0.72
-0.73
-0.74
-0.735
-0.715
-0.695
-0.61
-0.475
-0.265
-0.025
0.29
0.615
0.81
0.73
0.475
0.18
-0.095
-0.315
-0.435
-0.475
-0.515
-0.545
-0.565
-0.61
-0.65
-0.69
-0.71
-0.73
-0.725
-0.735
-0.735
-0.75
-0.735
-0.745
-0.73
-0.715
-0.72
-0.73
-0.73
-0.72
-0.725
-0.74
-0.76
-0.755
-0.725
-0.715
-0.72
-0.715
-0.715
-0.725
-0.725
-0.725
-0.74
-0.75
-0.745
-0.745
-0.715
-0.7
-0.69
-0.675
-0.705
-0.735
-0.715
-0.69
-0.66
-0.655
-0.665
-0.695
-0.68
-0.695
-0.685
-0.695
-0.685
-0.685
-0.685
-0.685
-0.68
-0.675
-0.69
-0.685
-0.665
-0.645
-0.63
-0.625
-0.63
-0.635
-0.625
-0.615
-0.605
-0.605
-0.605
-0.595
-0.59
-0.565
-0.535
-0.515
-0.52
-0.54
-0.55
-0.525
-0.5
-0.485
-0.46
-0.485
-0.47
-0.44
-0.435
-0.425
-0.42
-0.415
-0.395
-0.39
-0.365
-0.36
-0.355
-0.365
-0.375
-0.39
-0.405
-0.415
-0.405
-0.385
-0.365
-0.35
-0.365
-0.38
-0.44
-0.465
-0.48
-0.465
-0.45
-0.45
-0.455
-0.47
-0.47
-0.485
-0.505
-0.51
-0.515
-0.51
-0.5
-0.485
-0.475
-0.48
-0.505
-0.53
-0.53
-0.525
-0.49
-0.5
-0.51
-0.515
-0.505
-0.485
-0.51
-0.515
-0.52
-0.52
-0.51
-0.49
-0.49
-0.495
-0.505
-0.525
-0.51
-0.49
-0.475
-0.48
-0.475
-0.475
-0.465
-0.465
-0.47
-0.46
-0.46
-0.465
-0.47
-0.47
-0.465
-0.465
-0.475
-0.47
-0.485
-0.49
-0.47
-0.45
-0.445
-0.445
-0.46
-0.465
-0.455
-0.445
-0.47
-0.485
-0.485
-0.475
-0.465
-0.48
-0.485
-0.475
-0.445
-0.445
-0.435
-0.465
-0.475
-0.48
-0.48
-0.465
-0.465
-0.46
-0.485
-0.49
-0.51
-0.49
-0.46
-0.46
-0.485
-0.5
-0.475
-0.445
-0.435
-0.485
-0.535
-0.555
-0.545
-0.525
-0.495
-0.485
-0.495
-0.49
-0.485
-0.495
-0.475
-0.47
-0.455
-0.46
-0.46
-0.46
-0.465
-0.46
-0.47
-0.46
-0.425
-0.385
-0.35
-0.325
-0.335
-0.35
-0.375
-0.375
-0.36
-0.35
-0.355
-0.38
-0.39
-0.41
-0.425
-0.42
-0.42
-0.43
-0.46
-0.485
-0.475
-0.5
-0.52
-0.525
-0.52
-0.52
-0.545
-0.56
-0.58
-0.58
-0.575
-0.57
-0.575
-0.595
-0.605
-0.61
-0.605
-0.605
-0.61
-0.615
-0.64
-0.645
-0.62
-0.6
-0.585
-0.595
-0.62
-0.615
-0.505
-0.285
0.0
0.33
0.675
0.93
1.0
0.79
0.425
0.1
-0.155
-0.31
-0.375
-0.455
-0.57
-0.615
-0.6
-0.59
-0.61
-0.65
-0.68
-0.685
-0.7
-0.725
-0.74
-0.755
-0.765
-0.76
-0.76
-0.76
-0.745
-0.715
-0.715
-0.71
-0.73
-0.75
-0.775
-0.78
-0.78
-0.77
-0.76
-0.765
-0.74
-0.705
-0.675
-0.685
-0.72
-0.755
-0.775
-0.77
-0.755
-0.75
-0.755
-0.775
-0.765
-0.755
-0.745
-0.765
-0.77
-0.785
-0.775
-0.76
-0.775
-0.77
-0.78
-0.78
-0.8
-0.775
-0.75
-0.74
-0.75
-0.775
-0.765
-0.76
-0.775
-0.795
-0.79
-0.755
-0.71
-0.675
-0.69
-0.705
-0.71
-0.72
-0.725
-0.735
-0.73
-0.72
-0.69
-0.675
-0.67
-0.675
-0.645
-0.61
-0.585
-0.59
-0.59
-0.57
-0.54
-0.55
-0.57
-0.56
-0.545
-0.52
-0.51
-0.52
-0.565
-0.57
-0.54
-0.485
-0.47
-0.48
-0.505
-0.545
-0.54
-0.575
-0.605
-0.615
-0.63
-0.655
-0.64
-0.66
-0.655
-0.655
-0.635
-0.645
-0.67
-0.695
-0.7
-0.71
-0.71
-0.725
-0.735
-0.765
-0.77
-0.76
-0.715
-0.695
-0.705
-0.7
-0.71
-0.72
-0.74
-0.765
-0.76
-0.745
-0.72
-0.7
-0.715
-0.72
-0.715
-0.7
-0.68
-0.695
-0.705
-0.725
-0.73
-0.735
-0.715
-0.7
-0.695
-0.71
-0.725
-0.715
-0.7
-0.69
-0.705
-0.72
-0.73
-0.71
-0.695
-0.68
-0.675
-0.67
-0.67
-0.68
-0.67
-0.675
-0.67
-0.67
-0.685
-0.67
-0.675
-0.67
-0.68
-0.695
-0.695
-0.7
-0.7
-0.71
-0.7
-0.7
-0.68
-0.66
-0.66
-0.68
-0.68
-0.655
-0.64
-0.635
-0.635
-0.635
-0.645
-0.635
-0.645
-0.635
-0.63
-0.65
-0.655
-0.655
-0.665
-0.665
-0.65
-0.64
-0.655
-0.65
-0.655
-0.64
-0.615
-0.63
-0.635
-0.645
-0.64
-0.62
-0.61
-0.615
-0.635
-0.63
-0.63
-0.615
-0.605
-0.6
-0.61
-0.635
-0.645
-0.605
-0.58
-0.565
-0.545
-0.515
-0.49
-0.455
-0.45
-0.47
-0.495
-0.52
-0.505
-0.495
-0.495
-0.52
-0.52
-0.535
-0.56
-0.565
-0.555
-0.56
-0.585
-0.615
-0.61
-0.62
-0.61
-0.64
-0.645
-0.665
-0.665
-0.66
-0.655
-0.66
-0.67
-0.655
-0.665
-0.67
-0.66
-0.655
-0.655
-0.66
-0.685
-0.685
-0.665
-0.65
-0.655
-0.675
-0.685
-0.69
-0.665
-0.655
-0.57
-0.43
-0.16
0.14
0.49
0.835
1.04
0.995
0.675
0.315
-0.055
-0.36
-0.485
-0.515
-0.54
-0.56
-0.565
-0.585
-0.62
-0.645
-0.68
-0.705
-0.71
-0.725
-0.72
-0.715
-0.735
-0.735
-0.745
-0.75
-0.735
-0.74
-0.745
-0.76
-0.75
-0.75
-0.755
-0.77
-0.78
-0.77
-0.745
-0.755
-0.76
-0.77
-0.76
-0.755
-0.735
-0.74
-0.745
-0.74
-0.74
-0.72
-0.74
-0.74
-0.74
-0.755
-0.75
-0.745
-0.74
-0.745
-0.755
-0.75
-0.75
-0.735
-0.74
-0.74
-0.73
-0.725
-0.725
-0.72
-0.705
-0.7
-0.705
-0.72
-0.72
-0.705
-0.69
-0.695
-0.7
-0.7
-0.695
-0.68
-0.67
-0.66
-0.655
-0.64
-0.64
-0.635
-0.6
-0.6
-0.6
-0.585
-0.585
-0.565
-0.56
-0.545
-0.54
-0.54
-0.52
-0.495
-0.48
-0.49
-0.47
-0.48
-0.48
-0.475
-0.475
-0.445
-0.43
-0.435
-0.44
-0.445
-0.435
-0.425
-0.44
-0.45
-0.46
-0.45
-0.435
-0.435
-0.47
-0.495
-0.51
-0.485
-0.49
-0.51
-0.53
-0.54
-0.55
-0.54
-0.525
-0.54
-0.555
-0.55
-0.565
-0.56
-0.555
-0.555
-0.565
-0.58
-0.59
-0.585
-0.57
-0.565
-0.575
-0.6
-0.595
-0.58
-0.55
-0.55
-0.58
-0.585
-0.6
-0.575
-0.55
-0.56
-0.58
-0.59
-0.585
-0.56
-0.55
-0.56
-0.57
-0.58
-0.58
-0.565
-0.545
-0.54
-0.535
-0.55
-0.555
-0.53
-0.525
-0.53
-0.545
-0.54
-0.53
-0.525
-0.525
-0.53
-0.535
-0.53
-0.53
-0.53
-0.51
-0.515
-0.485
-0.5
-0.515
-0.5
-0.505
-0.51
-0.51
-0.5
-0.495
-0.49
-0.49
-0.495
-0.5
-0.49
-0.495
-0.5
-0.505
-0.5
-0.48
-0.495
-0.49
-0.48
-0.485
-0.49
-0.495
-0.495
-0.49
-0.48
-0.47
-0.47
-0.485
-0.5
-0.495
-0.475
-0.46
-0.465
-0.475
-0.485
-0.48
-0.485
-0.47
-0.455
-0.455
-0.47
-0.475
-0.465
-0.445
-0.44
-0.45
-0.46
-0.455
-0.435
-0.42
-0.425
-0.435
-0.43
-0.425
-0.42
-0.41
-0.395
-0.395
-0.375
-0.365
-0.33
-0.31
-0.28
-0.285
-0.29
-0.305
-0.315
-0.31
-0.325
-0.32
-0.345
-0.365
-0.365
-0.35
-0.355
-0.36
-0.385
-0.395
-0.4
-0.415
-0.425
-0.43
-0.435
-0.455
-0.44
-0.44
-0.45
-0.465
-0.46
-0.45
-0.43
-0.425
-0.445
-0.465
-0.475
-0.465
-0.445
-0.435
-0.43
-0.435
-0.445
-0.455
-0.44
-0.43
-0.455
-0.48
-0.495
-0.49
-0.42
-0.285
-0.08
0.175
0.465
0.805
1.135
1.33
1.29
1.035
0.7
0.375
0.105
-0.075
-0.155
-0.26
-0.345
-0.395
-0.395
-0.395
-0.43
-0.43
-0.435
-0.455
-0.455
-0.47
-0.465
-0.475
-0.47
-0.47
-0.475
-0.465
-0.47
-0.475
-0.48
-0.475
-0.46
-0.45
-0.465
-0.47
-0.455
-0.465
-0.46
-0.455
-0.48
-0.475
-0.48
-0.475
-0.465
-0.465
-0.49
-0.48
-0.48
-0.495
-0.48
-0.47
-0.475
-0.47
-0.48
-0.49
-0.49
-0.47
-0.48
-0.48
-0.49
-0.48
-0.475
-0.47
-0.475
-0.485
-0.495
-0.505
-0.485
-0.47
-0.465
-0.485
-0.49
-0.475
-0.47
-0.475
-0.485
-0.48
-0.465
-0.46
-0.455
-0.44
-0.44
-0.44
-0.44
-0.435
-0.415
-0.405
-0.41
-0.4
-0.405
-0.4
-0.37
-0.365
-0.355
-0.365
-0.345
-0.34
-0.31
-0.305
-0.295
-0.305
-0.305
-0.29
-0.265
-0.255
-0.245
-0.24
-0.235
-0.22
-0.21
-0.195
-0.185
-0.22
-0.22
-0.22
-0.225
-0.215
-0.22
-0.26
-0.26
-0.27
-0.265
-0.26
-0.27
-0.295
-0.33
-0.33
-0.32
-0.315
-0.33
-0.34
-0.345
-0.35
-0.35
-0.345
-0.36
-0.36
-0.375
-0.38
-0.37
-0.37
-0.38
-0.385
-0.39
-0.385
-0.38
-0.365
-0.36
-0.375
-0.39
-0.4
-0.39
-0.37
-0.365
-0.38
-0.39
-0.4
-0.385
-0.37
-0.37
-0.365
-0.365
-0.36
-0.345
-0.34
-0.345
-0.365
-0.37
-0.365
-0.365
-0.365
-0.37
-0.355
-0.375
-0.37
-0.365
-0.35
-0.35
-0.365
-0.375
-0.365
-0.35
-0.32
-0.325
-0.34
-0.36
-0.37
-0.35
-0.325
-0.3
-0.315
-0.345
-0.355
-0.35
-0.335
-0.345
-0.33
-0.345
-0.37
-0.355
-0.34
-0.335
-0.345
-0.345
-0.35
-0.335
-0.325
-0.325
-0.335
-0.345
-0.345
-0.34
-0.325
-0.33
-0.32
-0.345
-0.34
-0.33
-0.33
-0.33
-0.33
-0.335
-0.33
-0.335
-0.325
-0.315
-0.325
-0.325
-0.335
-0.31
-0.32
-0.315
-0.325
-0.32
-0.32
-0.31
-0.315
-0.315
-0.32
-0.325
-0.32
-0.295
-0.27
-0.275
-0.28
-0.29
-0.275
-0.255
-0.225
-0.2
-0.175
-0.18
-0.165
-0.17
-0.175
-0.17
-0.185
-0.19
-0.205
-0.205
-0.21
-0.215
-0.21
-0.23
-0.255
-0.255
-0.24
-0.255
-0.27
-0.295
-0.31
-0.3
-0.3
-0.315
-0.3
-0.325
-0.335
-0.325
-0.32
-0.33
-0.33
-0.34
-0.345
-0.335
-0.33
-0.32
-0.335
-0.34
-0.335
-0.325
-0.32
-0.32
-0.32
-0.35
-0.365
-0.365
-0.345
-0.32
-0.255
-0.105
0.09
0.355
0.65
1.005
1.315
1.41
1.25
0.945
0.63
0.32
0.055
-0.08
-0.12
-0.15
-0.19
-0.235
-0.255
-0.275
-0.29
-0.3
-0.305
-0.34
-0.375
-0.385
-0.385
-0.38
-0.365
-0.365
-0.37
-0.39
-0.39
-0.395
-0.375
-0.38
-0.39
-0.39
-0.4
-0.395
-0.4
-0.39
-0.395
-0.395
-0.4
-0.39
-0.38
-0.37
-0.37
-0.385
-0.385
-0.375
-0.37
-0.37
-0.38
-0.385
-0.38
-0.375
-0.365
-0.36
-0.36
-0.38
-0.38
-0.38
-0.365
-0.38
-0.37
-0.38
-0.39
-0.39
-0.365
-0.36
-0.365
-0.375
-0.37
-0.37
-0.37
-0.355
-0.345
-0.355
-0.36
-0.34
-0.345
-0.345
-0.345
-0.35
-0.335
-0.32
-0.305
-0.305
-0.295
-0.315
-0.31
-0.285
-0.275
-0.27
-0.255
-0.25
-0.245
-0.225
-0.2
-0.19
-0.175
-0.185
-0.18
-0.16
-0.14
-0.135
-0.135
-0.12
-0.125
-0.105
-0.09
-0.075
-0.07
-0.085
-0.08
-0.065
-0.045
-0.04
-0.045
-0.055
-0.045
-0.045
-0.035
-0.04
-0.055
-0.065
-0.075
-0.07
-0.07
-0.07
-0.105
-0.11
-0.115
-0.115
-0.125
-0.12
-0.135
-0.15
-0.18
-0.17
-0.18
-0.175
-0.21
-0.2
-0.215
-0.2
-0.18
-0.19
-0.195
-0.205
-0.21
-0.205
-0.2
-0.19
-0.205
-0.195
-0.215
-0.21
-0.205
-0.19
-0.205
-0.225
-0.225
-0.205
-0.185
-0.175
-0.19
-0.21
-0.205
-0.185
-0.185
-0.185
-0.185
-0.2
-0.195
-0.17
-0.155
-0.165
-0.18
-0.185
-0.19
-0.16
-0.14
-0.15
-0.165
-0.17
-0.165
-0.17
-0.16
-0.15
-0.14
-0.145
-0.145
-0.15
-0.145
-0.13
-0.145
-0.14
-0.145
-0.125
-0.13
-0.135
-0.14
-0.145
-0.14
-0.135
-0.12
-0.11
-0.12
-0.14
-0.14
-0.12
-0.115
-0.11
-0.13
-0.135
-0.12
-0.105
-0.095
-0.105
-0.12
-0.12
-0.12
-0.11
-0.105
-0.11
-0.125
-0.125
-0.13
-0.1
-0.105
-0.095
-0.095
-0.1
-0.11
-0.105
-0.1
-0.105
-0.105
-0.11
-0.105
-0.1
-0.09
-0.075
-0.08
-0.085
-0.105
-0.085
-0.08
-0.07
-0.065
-0.06
-0.075
-0.065
-0.065
-0.045
-0.03
-0.005
0.01
0.05
0.075
0.085
0.08
0.055
0.04
0.05
0.055
0.065
0.065
0.035
0.02
0.01
0.01
0.005
0.0
-0.015
-0.035
-0.035
-0.03
-0.04
-0.06
-0.075
-0.08
-0.08
-0.075
-0.09
-0.1
-0.11
-0.105
-0.08
-0.08
-0.08
-0.1
-0.115
-0.115
-0.1
-0.095
-0.11
-0.11
-0.095
-0.09
-0.095
-0.11
-0.11
-0.125
-0.14
-0.145
-0.13
-0.085
0.015
0.19
0.415
0.69
1.055
1.4
1.56
1.45
1.145
0.81
0.535
0.315
0.205
0.14
0.09
0.04
0.03
0.02
-0.005
-0.04
-0.085
-0.11
-0.125
-0.15
-0.17
-0.18
-0.185
-0.19
-0.18
-0.16
-0.155
-0.17
-0.18
-0.19
-0.185
-0.175
-0.175
-0.18
-0.18
-0.205
-0.18
-0.16
-0.17
-0.17
-0.18
-0.19
-0.175
-0.18
-0.185
-0.18
-0.195
-0.18
-0.18
-0.175
-0.18
-0.18
