Lead II
-1.035
-1.025
-1.02
-0.99
-0.975
-0.965
-0.96
-0.965
-0.96
-0.96
-0.955
-0.965
-0.95
-0.93
-0.93
-0.925
-0.91
-0.9
-0.89
-0.895
-0.885
-0.905
-0.92
-0.905
-0.905
-0.9
-0.895
-0.885
-0.885
-0.885
-0.87
-0.875
-0.89
-0.91
-0.915
-0.925
-0.925
-0.91
-0.91
-0.91
-0.905
-0.9
-0.905
-0.905
-0.93
-0.93
-0.935
-0.94
-0.94
-0.945
-0.955
-0.955
-0.95
-0.945
-0.935
-0.955
-0.975
-0.995
-1.0
-0.995
-0.99
-0.995
-0.995
-1.0
-1.0
-0.99
-0.985
-1.01
-1.0
-1.01
-1.02
-1.025
-1.015
-1.01
-1.01
-0.995
-0.985
-0.985
-0.965
-0.975
-1.005
-0.995
-0.985
-0.975
-0.975
-0.97
-0.97
-0.965
-0.955
-0.945
-0.945
-0.955
-0.975
-0.96
-0.96
-0.97
-0.96
-0.95
-0.95
-0.95
-0.93
-0.925
-0.915
-0.935
-0.935
-0.94
-0.935
-0.93
-0.92
-0.91
-0.9
-0.885
-0.875
-0.87
-0.845
-0.86
-0.855
-0.85
-0.83
-0.805
-0.775
-0.765
-0.73
-0.715
-0.71
-0.69
-0.7
-0.69
-0.69
-0.705
-0.72
-0.73
-0.73
-0.74
-0.745
-0.735
-0.74
-0.73
-0.745
-0.77
-0.805
-0.84
-0.87
-0.885
-0.89
-0.915
-0.93
-0.92
-0.925
-0.915
-0.915
-0.94
-0.96
-0.97
-0.97
-0.97
-0.965
-0.965
-0.96
-0.955
-0.945
-0.935
-0.945
-0.96
-0.965
-0.995
-1.03
-1.055
-1.1
-1.15
-1.175
-1.18
-1.115
-1.0
-0.88
-0.715
-0.52
-0.31
-0.125
0.06
0.25
0.43
0.58
0.72
0.815
0.845
0.84
0.795
0.72
0.635
0.505
0.31
0.025
-0.3
-0.59
-0.785
-0.875
-0.9
-0.86
-0.805
-0.79
-0.795
-0.845
-0.895
-0.935
-1.005
-1.03
-1.05
-1.05
-1.035
-1.035
-1.045
-1.055
-1.07
-1.055
-1.055
-1.055
-1.065
-1.055
-1.035
-1.035
-1.02
-1.025
-1.03
-1.04
-1.04
-1.05
-1.045
-1.06
-1.065
-1.06
-1.055
-1.03
-1.03
-1.015
-1.03
-1.055
-1.055
-1.075
-1.08
-1.07
-1.075
-1.06
-1.045
-1.03
-1.035
-1.035
-1.05
-1.045
-1.05
-1.06
-1.055
-1.05
-1.055
-1.055
-1.05
-1.025
-1.01
-1.015
-1.02
-1.03
-1.03
-1.035
-1.025
-1.015
-1.015
-1.01
-0.99
-0.97
-0.955
-0.955
-0.97
-0.975
-0.96
-0.965
-0.97
-0.96
-0.95
-0.935
-0.905
-0.895
-0.87
-0.88
-0.88
-0.895
-0.88
-0.865
-0.89
-0.875
-0.88
-0.865
-0.86
-0.85
-0.85
-0.87
-0.86
-0.865
-0.875
-0.875
-0.9
-0.9
-0.9
-0.89
-0.885
-0.88
-0.895
-0.9
-0.91
-0.91
-0.905
-0.905
-0.905
-0.93
-0.945
-0.915
-0.915
-0.905
-0.905
-0.91
-0.93
-0.94
-0.95
-0.945
-0.95
-0.975
-0.975
-0.955
-0.945
-0.965
-0.955
-0.965
-0.975
-0.985
-0.975
-0.98
-0.98
-0.99
-0.99
-0.97
-0.97
-0.94
-0.945
-0.94
-0.955
-0.95
-0.955
-0.955
-0.97
-0.99
-0.97
-0.97
-0.955
-0.93
-0.935
-0.935
-0.925
-0.95
-0.95
-0.94
-0.94
-0.975
-0.975
-0.955
-0.94
-0.915
-0.92
-0.92
-0.93
-0.935
-0.925
-0.94
-0.935
-0.945
-0.955
-0.92
-0.895
-0.865
-0.86
-0.87
-0.875
-0.9
-0.89
-0.87
-0.855
-0.845
-0.835
-0.805
-0.77
-0.725
-0.705
-0.7
-0.725
-0.715
-0.71
-0.71
-0.71
-0.71
-0.745
-0.725
-0.72
-0.715
-0.72
-0.75
-0.77
-0.79
-0.8
-0.835
-0.835
-0.865
-0.88
-0.895
-0.905
-0.9
-0.905
-0.945
-0.94
-0.955
-0.96
-0.95
-0.96
-0.96
-0.96
-0.975
-0.955
-0.95
-0.95
-0.95
-0.95
-0.95
-0.95
-0.96
-0.99
-1.015
-1.045
-1.075
-1.12
-1.14
-1.145
-1.115
-1.015
-0.87
-0.665
-0.465
-0.26
-0.065
0.125
0.305
0.495
0.64
0.76
0.84
0.86
0.875
0.83
0.8
0.73
0.615
0.46
0.225
-0.08
-0.38
-0.64
-0.8
-0.885
-0.875
-0.83
-0.78
-0.75
-0.775
-0.81
-0.86
-0.895
-0.925
-0.95
-0.99
-1.005
-1.03
-1.04
-1.045
-1.05
-1.055
-1.055
-1.055
-1.015
-0.995
-0.99
-0.995
-1.005
-1.04
-1.03
-1.04
-1.045
-1.03
-1.045
-1.03
-1.01
-0.995
-0.995
-1.0
-1.0
-1.025
-1.03
-1.035
-1.04
-1.04
-1.045
-1.035
-1.025
-1.025
-1.025
-1.01
-1.03
-1.025
-1.02
-1.04
-1.025
-1.035
-1.03
-1.03
-1.01
-1.0
-0.995
-1.0
-1.02
-1.015
-1.02
-1.025
-1.01
-1.015
-0.995
-1.005
-1.015
-0.995
-0.99
-1.005
-0.965
-0.975
-0.975
-0.96
-0.955
-0.93
-0.94
-0.93
-0.92
-0.915
-0.905
-0.88
-0.88
-0.875
-0.89
-0.875
-0.88
-0.85
-0.855
-0.845
-0.84
-0.84
-0.825
-0.81
-0.815
-0.82
-0.835
-0.845
-0.84
-0.835
-0.825
-0.8
-0.81
-0.825
-0.815
-0.8
-0.8
-0.81
-0.815
-0.84
-0.855
-0.865
-0.865
-0.85
-0.865
-0.86
-0.85
-0.855
-0.855
-0.86
-0.85
-0.865
-0.865
-0.87
-0.86
-0.855
-0.875
-0.88
-0.885
-0.88
-0.87
-0.875
-0.895
-0.91
-0.925
-0.925
-0.91
-0.915
-0.89
-0.895
-0.895
-0.905
-0.915
-0.92
-0.92
-0.935
-0.95
-0.97
-0.945
-0.92
-0.89
-0.88
-0.885
-0.89
-0.89
-0.885
-0.885
-0.9
-0.91
-0.92
-0.9
-0.875
-0.855
-0.85
-0.85
-0.85
-0.865
-0.85
-0.855
-0.87
-0.885
-0.895
-0.895
-0.895
-0.88
-0.865
-0.835
-0.84
-0.865
-0.85
-0.86
-0.84
-0.835
-0.82
-0.815
-0.815
-0.795
-0.8
-0.795
-0.785
-0.765
-0.74
-0.71
-0.7
-0.68
-0.685
-0.66
-0.625
-0.595
-0.605
-0.61
-0.615
-0.615
-0.61
-0.605
-0.615
-0.64
-0.67
-0.665
-0.665
-0.65
-0.645
-0.64
-0.655
-0.69
-0.725
-0.76
-0.765
-0.8
-0.81
-0.82
-0.82
-0.815
-0.825
-0.815
-0.82
-0.83
-0.85
-0.86
-0.85
-0.87
-0.88
-0.875
-0.85
-0.86
-0.825
-0.83
-0.845
-0.855
-0.865
-0.88
-0.895
-0.945
-1.01
-1.05
-1.095
-1.1
-1.055
-0.98
-0.865
-0.705
-0.51
-0.295
-0.085
0.095
0.255
0.425
0.605
0.75
0.87
0.925
0.945
0.925
0.865
0.74
0.545
0.245
-0.12
-0.435
-0.655
-0.78
-0.8
-0.775
-0.715
-0.675
-0.675
-0.705
-0.75
-0.82
-0.88
-0.935
-0.945
-0.94
-0.935
-0.91
-0.925
-0.92
-0.95
-0.955
-0.96
-0.955
-0.96
-0.955
-0.925
-0.915
-0.895
-0.895
-0.91
-0.92
-0.93
-0.925
-0.935
-0.955
-0.965
-0.955
-0.945
-0.915
-0.9
-0.9
-0.92
-0.92
-0.93
-0.925
-0.965
-0.955
-0.975
-0.965
-0.95
-0.955
-0.935
-0.925
-0.93
-0.955
-0.935
-0.95
-0.935
-0.95
-0.955
-0.965
-0.93
-0.925
-0.925
-0.925
-0.925
-0.93
-0.925
-0.91
-0.9
-0.91
-0.895
-0.905
-0.89
-0.885
-0.88
-0.875
-0.85
-0.84
-0.82
-0.825
-0.83
-0.83
-0.815
-0.805
-0.79
-0.775
-0.78
-0.785
-0.775
-0.77
-0.755
-0.77
-0.78
-0.765
-0.77
-0.765
-0.76
-0.765
-0.765
-0.75
-0.75
-0.755
-0.755
-0.78
-0.785
-0.785
-0.8
-0.795
-0.78
-0.765
-0.78
-0.755
-0.775
-0.78
-0.805
-0.825
-0.825
-0.835
-0.84
-0.83
-0.82
-0.8
-0.8
-0.8
-0.81
-0.83
-0.83
-0.85
-0.87
-0.88
-0.885
-0.875
-0.85
-0.85
-0.86
-0.86
-0.87
-0.86
-0.845
-0.855
-0.865
-0.88
-0.875
-0.87
-0.87
-0.85
-0.865
-0.855
-0.84
-0.835
-0.83
-0.85
-0.855
-0.855
-0.84
-0.835
-0.82
-0.82
-0.84
-0.83
-0.835
-0.835
-0.81
-0.82
-0.825
-0.835
-0.835
-0.825
-0.815
-0.81
-0.815
-0.82
-0.815
-0.81
-0.81
-0.81
-0.81
-0.79
-0.79
-0.79
-0.785
-0.765
-0.755
-0.75
-0.735
-0.705
-0.68
-0.675
-0.665
-0.645
-0.64
-0.625
-0.605
-0.605
-0.585
-0.585
-0.585
-0.59
-0.595
-0.58
-0.585
-0.6
-0.625
-0.64
-0.64
-0.63
-0.625
-0.64
-0.675
-0.685
-0.73
-0.77
-0.77
-0.8
-0.825
-0.815
-0.82
-0.83
-0.835
-0.835
-0.845
-0.84
-0.835
-0.85
-0.865
-0.865
-0.86
-0.86
-0.84
-0.82
-0.83
-0.865
-0.85
-0.89
-0.9
-0.97
-1.04
-1.075
-1.09
-1.065
-0.975
-0.845
-0.665
-0.435
-0.21
-0.02
0.155
0.31
0.465
0.605
0.74
0.81
0.87
0.9
0.885
0.83
0.77
0.65
0.435
0.155
-0.195
-0.495
-0.72
-0.845
-0.845
-0.815
-0.75
-0.695
-0.69
-0.715
-0.745
-0.805
-0.88
-0.925
-0.97
-0.97
-0.97
-0.975
-0.97
-0.98
-0.965
-0.945
-0.94
-0.95
-0.965
-0.955
-0.955
-0.955
-0.945
-0.945
-0.965
-0.945
-0.94
-0.95
-0.97
-0.98
-0.985
-0.995
-0.985
-1.0
-0.975
-0.965
-0.97
-0.965
-0.975
-0.975
-0.975
-0.985
-1.01
-1.01
-1.015
-1.0
-0.985
-0.985
-0.985
-0.99
-0.985
-1.0
-0.975
-0.97
-0.985
-1.0
-1.005
-0.995
-0.99
-0.965
-0.945
-0.945
-0.955
-0.96
-0.955
-0.94
-0.955
-0.955
-0.965
-0.96
-0.95
-0.92
-0.915
-0.895
-0.925
-0.92
-0.905
-0.905
-0.9
-0.89
-0.905
-0.905
-0.88
-0.865
-0.85
-0.825
-0.835
-0.85
-0.83
-0.815
-0.83
-0.83
-0.845
-0.84
-0.84
-0.82
-0.81
-0.82
-0.82
-0.82
-0.83
-0.84
-0.84
-0.865
-0.85
-0.855
-0.845
-0.84
-0.84
-0.84
-0.84
-0.845
-0.855
-0.86
-0.865
-0.88
-0.895
-0.9
-0.895
-0.89
-0.87
-0.88
-0.91
-0.915
-0.9
-0.915
-0.915
-0.92
-0.925
-0.93
-0.93
-0.915
-0.905
-0.905
-0.92
-0.915
-0.93
-0.93
-0.935
-0.94
-0.95
-0.95
-0.95
-0.925
-0.925
-0.915
-0.935
-0.945
-0.93
-0.92
-0.92
-0.92
-0.925
-0.935
-0.945
-0.93
-0.925
-0.895
-0.895
-0.9
-0.905
-0.895
-0.9
-0.915
-0.92
-0.925
-0.92
-0.915
-0.9
-0.895
-0.905
-0.9
-0.905
-0.91
-0.9
-0.9
-0.915
-0.89
-0.87
-0.86
-0.84
-0.845
-0.885
-0.87
-0.85
-0.845
-0.835
-0.81
-0.81
-0.805
-0.775
-0.74
-0.71
-0.69
-0.685
-0.685
-0.695
-0.69
-0.695
-0.7
-0.715
-0.73
-0.725
-0.715
-0.72
-0.715
-0.725
-0.73
-0.74
-0.76
-0.765
-0.79
-0.83
-0.855
-0.89
-0.88
-0.89
-0.9
-0.92
-0.94
-0.95
-0.935
-0.94
-0.945
-0.955
-0.98
-0.975
-0.965
-0.96
-0.935
-0.975
-0.98
-0.97
-0.965
-0.965
-0.985
-1.005
-1.035
-1.07
-1.11
-1.155
-1.175
-1.145
-1.07
-0.92
-0.745
-0.515
-0.305
-0.105
0.115
0.315
0.5
0.625
0.74
0.795
0.8
0.785
0.745
0.665
0.57
0.415
0.175
-0.135
-0.46
-0.725
-0.895
-0.97
-0.965
-0.905
-0.87
-0.855
-0.87
-0.935
-0.955
-0.99
-1.02
-1.05
-1.06
-1.07
-1.07
-1.07
-1.07
-1.07
-1.09
-1.1
-1.09
-1.07
-1.06
-1.06
-1.06
-1.07
-1.08
-1.08
-1.075
-1.08
-1.09
-1.095
-1.085
-1.085
-1.075
-1.085
-1.075
-1.075
-1.06
-1.07
-1.065
-1.085
-1.095
-1.115
-1.095
-1.07
-1.075
-1.1
-1.095
-1.065
-1.065
-1.075
-1.08
-1.09
-1.095
-1.1
-1.095
-1.085
-1.09
-1.065
-1.045
-1.05
-1.06
-1.055
-1.065
-1.085
-1.07
-1.07
-1.055
-1.05
-1.05
-1.03
-1.015
-1.0
-0.995
-1.015
-1.005
-1.015
-1.005
-1.01
-0.99
-0.965
-0.975
-0.975
-0.945
-0.92
-0.905
-0.915
-0.925
-0.925
-0.925
-0.935
-0.92
-0.92
-0.905
-0.905
-0.89
-0.895
-0.895
-0.92
-0.945
-0.945
-0.935
-0.945
-0.94
-0.94
-0.945
-0.935
-0.915
-0.915
-0.93
-0.94
-0.965
-0.96
-0.96
-0.97
-0.96
-0.97
-0.975
-0.98
-0.97
-0.985
-0.97
-0.99
-1.0
-1.005
-1.02
-1.035
-1.03
-1.03
-1.03
-1.0
-0.995
-1.005
-1.025
-1.045
-1.025
-1.025
-1.03
-1.035
-1.06
-1.035
-1.02
-1.025
-0.995
-1.005
-1.02
-1.025
-1.025
-1.0
-1.02
-1.025
-1.035
-1.025
-1.005
-0.99
-0.98
-0.97
-0.99
-0.985
-0.99
-1.005
-1.01
-1.01
-1.02
-1.01
-0.995
-0.98
-0.955
-0.965
-0.98
-0.985
-0.975
-0.97
-0.965
-0.97
-0.985
-0.97
-0.965
-0.915
-0.91
-0.9
-0.91
-0.915
-0.905
-0.885
-0.86
-0.845
-0.82
-0.81
-0.775
-0.75
-0.735
-0.74
-0.735
-0.76
-0.76
-0.76
-0.775
-0.79
-0.81
-0.81
-0.81
-0.795
-0.795
-0.81
-0.82
-0.835
-0.855
-0.875
-0.905
-0.945
-0.97
-0.99
-1.0
-0.99
-0.975
-0.985
-1.0
-1.0
-1.015
-1.02
-1.025
-1.04
-1.04
-1.03
-1.025
-1.01
-0.99
-0.995
-1.005
-1.02
-1.03
-1.025
-1.035
-1.065
-1.12
-1.195
-1.215
-1.23
-1.2
-1.13
-1.045
-0.91
-0.735
-0.545
-0.33
-0.155
0.035
0.225
0.405
0.55
0.69
0.795
0.825
0.815
0.75
0.68
0.575
0.39
0.155
-0.145
-0.46
-0.705
-0.875
-0.975
-0.975
-0.925
-0.89
-0.865
-0.885
-0.93
-0.985
-1.025
-1.06
-1.07
-1.065
-1.07
-1.09
-1.09
-1.1
-1.105
-1.11
-1.11
-1.11
-1.105
-1.085
-1.08
-1.075
-1.095
-1.095
-1.09
-1.09
-1.095
-1.085
-1.1
-1.11
-1.11
-1.085
-1.075
-1.075
-1.07
-1.085
-1.105
-1.105
-1.1
-1.095
-1.095
-1.095
-1.1
-1.1
-1.095
-1.07
-1.085
-1.09
-1.095
-1.105
-1.1
-1.11
-1.11
-1.11
-1.105
-1.09
-1.085
-1.065
-1.08
-1.08
-1.09
-1.11
-1.1
-1.09
-1.085
-1.095
-1.085
-1.07
-1.055
-1.05
-1.04
-1.04
-1.05
-1.05
-1.05
-1.035
-1.03
-1.04
-1.03
-1.02
-0.995
-0.975
-0.97
-0.965
-0.955
-0.975
-0.97
-0.96
-0.95
-0.94
-0.945
-0.94
-0.93
-0.91
-0.91
-0.905
-0.93
-0.93
-0.945
-0.935
-0.945
-0.94
-0.93
-0.935
-0.93
-0.92
-0.91
-0.92
-0.935
-0.95
-0.97
-0.97
-0.97
-0.965
-0.955
-0.965
-0.96
-0.95
-0.945
-0.955
-0.97
-0.99
-0.99
-0.985
-1.0
-0.995
-0.99
-1.0
-1.02
-1.005
-1.01
-1.01
-1.01
-1.02
-1.04
-1.06
-1.065
-1.055
-1.05
-1.045
-1.045
-1.04
-1.04
-1.03
-1.025
-1.045
-1.05
-1.05
-1.055
-1.035
-1.045
-1.035
-1.025
-1.02
-1.005
-1.005
-1.02
-1.03
-1.025
-1.025
-1.035
-1.025
-1.015
-1.02
-1.03
-1.0
-0.995
-0.99
-0.995
-1.01
-1.015
-1.01
-0.99
-1.0
-1.0
-1.0
-0.99
-0.965
-0.95
-0.95
-0.95
-0.955
-0.955
-0.95
-0.945
-0.95
-0.935
-0.925
-0.91
-0.87
-0.85
-0.825
-0.84
-0.83
-0.81
-0.795
-0.785
-0.775
-0.76
-0.74
-0.735
-0.735
-0.725
-0.735
-0.765
-0.795
-0.81
-0.815
-0.815
-0.83
-0.835
-0.83
-0.86
-0.87
-0.885
-0.92
-0.97
-0.98
-0.99
-0.99
-1.005
-1.02
-1.03
-1.005
-0.995
-0.98
-0.985
-1.0
-0.985
-0.99
-0.96
-0.965
-0.965
-0.98
-0.99
-1.01
-1.005
-1.025
-1.08
-1.13
-1.18
-1.205
-1.215
-1.175
-1.11
-0.98
-0.81
-0.58
-0.365
-0.155
0.035
0.2
0.38
0.52
0.685
0.79
0.86
0.865
0.86
0.825
0.78
0.685
0.545
0.285
-0.045
-0.375
-0.665
-0.83
-0.925
-0.925
-0.875
-0.84
-0.79
-0.8
-0.82
-0.885
-0.945
-1.035
-1.065
-1.08
-1.095
-1.115
-1.105
-1.09
-1.085
-1.08
-1.065
-1.07
-1.07
-1.07
-1.06
-1.075
-1.095
-1.1
-1.105
-1.08
-1.065
-1.055
-1.065
-1.075
-1.075
-1.08
-1.065
-1.08
-1.085
-1.08
-1.08
-1.07
-1.055
-1.055
-1.045
-1.06
-1.06
-1.065
-1.07
-1.075
-1.08
-1.09
-1.08
-1.075
-1.06
-1.055
-1.06
-1.08
-1.085
-1.085
-1.085
-1.08
-1.075
-1.065
-1.085
-1.05
-1.035
-1.01
-1.0
-1.01
-1.015
-1.015
-1.005
-1.04
-1.025
-1.025
-1.0
-0.98
-0.96
-0.945
-0.945
-0.935
-0.94
-0.92
-0.92
-0.92
-0.915
-0.915
-0.905
-0.875
-0.86
-0.85
-0.85
-0.86
-0.875
-0.87
-0.895
-0.9
-0.88
-0.89
-0.895
-0.88
-0.865
-0.83
-0.835
-0.84
-0.855
-0.875
-0.875
-0.905
-0.905
-0.89
-0.89
-0.89
-0.87
-0.855
-0.87
-0.89
-0.895
-0.905
-0.895
-0.9
-0.92
-0.915
-0.915
-0.91
-0.91
-0.9
-0.89
-0.9
-0.915
-0.94
-0.935
-0.935
-0.93
-0.925
-0.945
-0.945
-0.95
-0.935
-0.945
-0.935
-0.935
-0.96
-0.94
-0.95
-0.935
-0.935
-0.96
-0.965
-0.95
-0.925
-0.91
-0.91
-0.92
-0.905
-0.915
-0.925
-0.91
-0.925
-0.93
-0.94
-0.93
-0.915
-0.9
-0.9
-0.895
-0.91
-0.895
-0.89
-0.895
-0.88
-0.905
-0.88
-0.87
-0.865
-0.855
-0.87
-0.885
-0.87
-0.88
-0.87
-0.87
-0.875
-0.875
-0.86
-0.85
-0.835
-0.79
-0.8
-0.8
-0.8
-0.785
-0.755
-0.73
-0.715
-0.685
-0.665
-0.655
-0.64
-0.625
-0.625
-0.64
-0.64
-0.655
-0.64
-0.635
-0.65
-0.67
-0.67
-0.685
-0.69
-0.68
-0.69
-0.705
-0.75
-0.77
-0.785
-0.81
-0.825
-0.845
-0.855
-0.865
-0.85
-0.835
-0.84
-0.855
-0.885
-0.9
-0.91
-0.89
-0.885
-0.9
-0.885
-0.89
-0.875
-0.865
-0.885
-0.895
-0.9
-0.915
-0.925
-0.955
-0.99
-1.075
-1.105
-1.125
-1.08
-0.975
-0.845
-0.68
-0.48
-0.25
-0.045
0.155
0.32
0.485
0.65
0.775
0.865
0.945
0.965
0.945
0.9
0.825
0.71
0.515
0.24
-0.09
-0.42
-0.65
-0.775
-0.83
-0.815
-0.77
-0.74
-0.74
-0.745
-0.785
-0.835
-0.895
-0.93
-0.96
-0.96
-0.95
-0.95
-0.94
-0.96
-0.99
-0.98
-0.975
-0.96
-0.965
-0.945
-0.94
-0.93
-0.93
-0.945
-0.955
-0.975
-0.965
-0.98
-0.97
-0.95
-0.96
-0.96
-0.95
-0.945
-0.945
-0.955
-0.965
-0.97
-0.975
-0.975
-0.97
-0.98
-0.99
-0.985
-0.975
-0.96
-0.955
-0.95
-0.96
-0.96
-0.955
-0.96
-0.965
-0.965
-0.965
-0.955
-0.95
-0.935
-0.94
-0.94
-0.94
-0.945
-0.94
-0.935
-0.925
-0.915
-0.91
-0.925
-0.915
-0.895
-0.89
-0.895
-0.905
-0.91
-0.895
-0.88
-0.855
-0.84
-0.835
-0.835
-0.825
-0.8
-0.79
-0.79
-0.81
-0.805
-0.82
-0.805
-0.815
-0.81
-0.81
-0.79
-0.77
-0.745
-0.755
-0.75
-0.76
-0.775
-0.775
-0.78
-0.785
-0.795
-0.795
-0.795
-0.795
-0.77
-0.76
-0.765
-0.785
-0.8
-0.815
-0.805
-0.815
-0.83
-0.835
-0.825
-0.815
-0.815
-0.805
-0.825
-0.83
-0.85
-0.86
-0.86
-0.865
-0.875
-0.865
-0.855
-0.855
-0.85
-0.85
-0.85
-0.865
-0.875
-0.86
-0.87
-0.875
-0.875
-0.885
-0.895
-0.88
-0.855
-0.845
-0.85
-0.87
-0.865
-0.86
-0.86
-0.86
-0.88
-0.87
-0.865
-0.84
-0.84
-0.82
-0.82
-0.83
-0.845
-0.845
-0.84
-0.845
-0.845
-0.865
-0.86
-0.815
-0.805
-0.805
-0.81
-0.835
-0.83
-0.825
-0.83
-0.835
-0.825
-0.805
-0.8
-0.775
-0.77
-0.75
-0.77
-0.765
-0.765
-0.765
-0.73
-0.715
-0.715
-0.685
-0.665
-0.645
-0.62
-0.61
-0.6
-0.605
-0.61
-0.62
-0.615
-0.62
-0.615
-0.63
-0.63
-0.625
-0.62
-0.63
-0.67
-0.67
-0.705
-0.73
-0.74
-0.765
-0.79
-0.815
-0.82
-0.835
-0.825
-0.825
-0.835
-0.865
-0.885
-0.875
-0.885
-0.885
-0.9
-0.905
-0.88
-0.88
-0.86
-0.85
-0.875
-0.87
-0.88
-0.89
-0.89
-0.925
-0.955
-1.0
-1.055
-1.095
-1.11
-1.095
-1.03
-0.94
-0.785
-0.59
-0.365
-0.155
0.02
0.165
0.34
0.515
0.68
0.79
0.845
0.875
0.87
0.825
0.78
0.69
0.56
0.33
0.02
-0.3
-0.565
-0.75
-0.875
-0.89
-0.835
-0.78
-0.735
-0.735
-0.8
-0.855
-0.905
-0.96
-0.965
-0.965
-0.985
-0.99
-1.0
-1.005
-1.005
-1.005
-1.01
-1.01
-1.01
-1.01
-1.005
-0.985
-0.99
-0.995
-1.0
-1.01
-1.035
-1.025
-1.02
-1.025
-1.01
-1.005
-1.005
-0.98
-0.98
-0.975
-1.0
-1.015
-1.04
-1.02
-1.03
-1.02
-1.035
-1.015
-1.02
-1.015
-1.005
-1.005
-1.015
-1.02
-1.035
-1.04
-1.035
-1.03
-1.02
-1.03
-1.02
-1.01
-1.01
-1.005
-1.015
-1.03
-1.025
-1.02
-1.015
-1.005
-0.99
-0.995
-0.98
-0.975
-0.965
-0.975
-0.97
-0.99
-1.0
-0.99
-0.97
-0.965
-0.955
-0.945
-0.94
-0.92
-0.915
-0.895
-0.905
-0.94
-0.945
-0.94
-0.92
-0.92
-0.905
-0.905
-0.885
-0.885
-0.87
-0.875
-0.89
-0.9
-0.91
-0.91
-0.89
-0.88
-0.885
-0.895
-0.905
-0.9
-0.88
-0.895
-0.905
-0.92
-0.935
-0.95
-0.915
-0.91
-0.905
-0.91
-0.925
-0.925
-0.91
-0.915
-0.92
-0.935
-0.955
-0.955
-0.965
-0.95
-0.955
-0.96
-0.96
-0.94
-0.945
-0.945
-0.96
-0.985
-1.005
-0.995
-1.01
-0.99
-0.98
-0.99
-0.985
-0.97
-0.955
-0.97
-0.97
-0.985
-0.99
-0.985
-0.98
-0.98
-0.965
-0.97
-0.965
-0.95
-0.945
-0.945
-0.97
-0.965
-0.985
-0.985
-0.965
-0.97
-0.965
-0.96
-0.975
-0.96
-0.94
-0.95
-0.94
-0.97
-0.985
-0.975
-0.975
-0.98
-0.95
-0.95
-0.96
-0.95
-0.95
-0.945
-0.94
-0.945
-0.965
-0.96
-0.955
-0.945
-0.91
-0.895
-0.88
-0.86
-0.86
-0.825
-0.815
-0.815
-0.805
-0.785
-0.775
-0.74
-0.74
-0.74
-0.735
-0.735
-0.74
-0.74
-0.735
-0.745
-0.765
-0.795
-0.805
-0.8
-0.785
-0.775
-0.79
-0.795
-0.83
-0.86
-0.88
-0.935
-0.945
-0.95
-0.99
-0.985
-0.97
-0.985
-0.995
-0.98
-0.985
-0.985
-0.98
-1.005
-1.0
-1.015
-1.02
-1.005
-0.99
-0.975
-0.98
-0.985
-1.015
-1.035
-1.055
-1.095
-1.145
-1.195
-1.23
-1.22
-1.145
-1.04
-0.895
-0.7
-0.525
-0.33
-0.15
0.025
0.19
0.335
0.485
0.64
0.745
0.795
0.81
0.785
0.72
0.64
0.56
0.435
0.25
-0.035
-0.375
-0.67
-0.88
-0.96
-0.965
-0.92
-0.89
-0.885
-0.865
-0.895
-0.92
-0.96
-1.01
-1.075
-1.09
-1.095
-1.095
-1.075
-1.085
-1.1
-1.115
-1.12
-1.12
-1.12
-1.125
-1.125
-1.135
-1.12
-1.1
-1.085
-1.095
-1.105
-1.125
-1.14
-1.125
-1.115
-1.13
-1.12
-1.125
-1.115
-1.1
-1.095
-1.095
-1.1
-1.1
-1.12
-1.12
-1.12
-1.115
-1.135
-1.115
-1.11
-1.11
-1.08
-1.09
-1.1
-1.11
-1.125
-1.12
-1.105
-1.135
-1.12
-1.12
-1.11
-1.09
-1.09
-1.08
-1.08
-1.085
-1.09
-1.095
-1.095
-1.085
-1.085
-1.075
-1.07
-1.07
-1.05
-1.035
-1.035
-1.045
-1.065
-1.045
-1.05
-1.035
-1.02
-1.015
-1.025
-1.0
-0.99
-0.975
-0.97
-0.975
-0.98
-0.99
-0.97
-0.965
-0.95
-0.945
-0.94
-0.94
-0.92
-0.925
-0.925
-0.94
-0.96
-0.975
-0.97
-0.965
-0.96
-0.96
-0.95
-0.96
-0.94
-0.95
-0.95
-0.955
-0.97
-0.97
-0.975
-0.985
-0.97
-0.965
-0.97
-0.97
-0.96
-0.965
-0.965
-0.97
-1.005
-1.02
-1.025
-1.04
-1.035
-1.02
-1.02
-1.03
-1.015
-1.025
-1.025
-1.04
-1.045
-1.06
-1.06
-1.065
-1.06
-1.05
-1.05
-1.045
-1.04
-1.05
-1.055
-1.045
-1.065
-1.075
-1.09
-1.08
-1.075
-1.06
-1.045
-1.025
-1.035
-1.035
-1.035
-1.03
-1.035
-1.035
-1.04
-1.06
-1.055
-1.045
-1.02
-1.015
-1.02
-1.03
-1.015
-1.02
-1.03
-1.025
-1.035
-1.04
-1.025
-1.0
-0.995
-0.995
-1.0
-1.0
-0.99
-0.995
-0.99
-0.995
-0.98
-0.98
-0.96
-0.935
-0.925
-0.895
-0.875
-0.875
-0.855
-0.83
-0.81
-0.81
-0.785
-0.805
-0.79
-0.78
-0.78
-0.78
-0.78
-0.8
-0.805
-0.81
-0.805
-0.82
-0.84
-0.85
-0.85
-0.85
-0.855
-0.875
-0.91
-0.935
-0.96
-0.98
-0.995
-1.015
-1.025
-1.055
-1.065
-1.06
-1.04
-1.03
-1.035
-1.04
-1.05
-1.045
-1.05
-1.06
-1.05
-1.065
-1.06
-1.07
-1.06
-1.085
-1.1
-1.15
-1.205
-1.245
-1.25
-1.235
-1.14
-0.99
-0.805
-0.58
-0.4
-0.2
-0.025
0.16
0.325
0.485
0.605
0.685
0.745
0.76
0.74
0.7
0.63
0.54
0.395
0.155
-0.155
-0.48
-0.765
-0.945
-1.03
-1.03
-0.955
-0.915
-0.845
-0.85
-0.905
-0.96
-1.005
-1.045
-1.085
-1.105
-1.14
-1.15
-1.155
-1.14
-1.105
-1.11
-1.105
-1.105
-1.11
-1.105
-1.11
-1.105
-1.115
-1.125
-1.13
-1.125
-1.115
-1.1
-1.09
-1.085
-1.095
-1.09
-1.105
-1.09
-1.105
-1.115
-1.115
-1.105
-1.09
-1.095
-1.075
-1.09
-1.09
-1.09
-1.105
-1.125
-1.125
-1.115
-1.12
-1.11
-1.095
-1.11
-1.105
-1.105
-1.105
-1.115
-1.115
-1.11
-1.115
-1.125
-1.125
-1.13
-1.105
-1.08
-1.08
-1.075
-1.075
-1.08
-1.085
-1.085
-1.09
-1.075
-1.075
-1.07
-1.045
-1.035
-1.015
-1.02
-1.0
-1.015
-1.005
-0.99
-1.0
-1.01
-1.0
-0.995
-0.965
-0.94
-0.94
-0.95
-0.94
-0.94
-0.945
-0.95
-0.95
-0.945
-0.95
-0.96
-0.965
-0.945
-0.935
-0.935
-0.93
-0.93
-0.94
-0.94
-0.95
-0.975
-0.985
-0.99
-0.97
-0.95
-0.94
-0.95
-0.96
-0.97
-0.965
-0.98
-0.98
-0.99
-1.0
-0.995
-0.99
-0.98
-0.975
-0.995
-0.995
-1.02
-1.025
-1.03
-1.025
-1.07
-1.07
-1.07
-1.065
-1.06
-1.04
-1.06
-1.055
-1.06
-1.065
-1.065
-1.075
-1.08
-1.075
-1.075
-1.05
-1.04
-1.03
-1.045
-1.03
-1.05
-1.05
-1.045
-1.055
-1.06
-1.06
-1.04
-1.015
-1.015
-0.985
-1.0
-1.005
-1.03
-1.02
-1.015
-1.015
-1.04
-1.055
-1.06
-1.035
-0.99
-0.98
-0.995
-0.99
-0.99
-0.985
-0.985
-0.985
-0.99
-0.99
-0.96
-0.945
-0.915
-0.905
-0.905
-0.89
-0.865
-0.86
-0.835
-0.845
-0.815
-0.8
-0.77
-0.76
-0.75
-0.745
-0.74
-0.755
-0.75
-0.755
-0.77
-0.8
-0.81
-0.825
-0.81
-0.81
-0.81
-0.82
-0.815
-0.85
-0.87
-0.89
-0.935
-0.94
-0.975
-0.955
-0.995
-0.99
-0.985
-0.96
-0.985
-0.99
-1.02
-1.005
-1.02
-1.025
-1.02
-1.02
-1.01
-1.0
-0.985
-0.975
-0.965
-0.98
-0.99
-1.02
-1.045
-1.09
-1.135
-1.2
-1.235
-1.23
-1.17
-1.085
-0.945
-0.795
-0.605
-0.405
-0.19
0.005
0.19
0.365
0.545
0.69
0.81
0.88
0.895
0.855
0.79
0.685
0.515
0.255
-0.095
-0.42
-0.705
-0.88
-0.935
-0.91
-0.87
-0.82
-0.8
-0.81
-0.855
-0.935
-0.995
-1.045
-1.075
-1.075
-1.07
-1.065
-1.04
-1.065
-1.085
-1.09
-1.095
-1.095
-1.105
-1.1
-1.09
-1.085
-1.065
-1.04
-1.05
-1.07
-1.08
-1.08
-1.085
-1.085
-1.105
-1.1
-1.105
-1.1
-1.095
-1.095
-1.08
-1.085
-1.095
-1.09
-1.1
-1.1
-1.095
-1.095
-1.115
-1.1
-1.1
-1.085
-1.095
-1.105
-1.105
-1.12
-1.12
-1.12
-1.12
-1.12
-1.11
-1.095
-1.075
-1.06
-1.055
-1.045
-1.06
-1.06
-1.055
-1.055
-1.055
-1.07
-1.05
-1.02
-1.0
-0.985
-0.985
-1.005
-1.0
-0.99
-0.985
-0.985
-0.98
-0.965
-0.96
-0.94
-0.94
-0.91
-0.895
-0.905
-0.9
-0.915
-0.9
-0.905
-0.91
-0.895
-0.905
-0.885
-0.875
-0.85
-0.86
-0.855
-0.89
-0.885
-0.89
-0.89
-0.92
-0.905
-0.92
-0.91
-0.89
-0.89
-0.885
-0.89
-0.9
-0.92
-0.905
-0.905
-0.925
-0.925
-0.945
-0.93
-0.915
-0.9
-0.915
-0.92
-0.905
-0.92
-0.915
-0.955
-0.95
-0.94
-0.945
-0.945
-0.95
-0.945
-0.95
-0.95
-0.965
-0.965
-0.97
-0.97
-0.985
-1.01
-1.015
-0.975
-0.96
-0.93
-0.935
-0.94
-0.955
-0.94
-0.94
-0.96
-0.96
-0.97
-0.965
-0.95
-0.93
-0.93
-0.93
-0.94
-0.96
-0.955
-0.935
-0.945
-0.96
-0.955
-0.95
-0.93
-0.915
-0.895
-0.895
-0.905
-0.915
-0.915
-0.915
-0.905
-0.89
-0.905
-0.905
-0.9
-0.895
-0.84
-0.835
-0.83
-0.805
-0.8
-0.775
-0.77
-0.755
-0.73
-0.71
-0.685
-0.665
-0.655
-0.645
-0.65
-0.645
-0.67
-0.67
-0.68
-0.71
-0.73
-0.745
-0.725
-0.74
-0.735
-0.725
-0.75
-0.795
-0.81
-0.84
-0.86
-0.88
-0.905
-0.91
-0.93
-0.925
-0.905
-0.905
-0.915
-0.93
-0.93
-0.93
-0.925
-0.935
-0.95
-0.95
-0.93
-0.915
-0.91
-0.905
-0.9
-0.925
-0.955
-0.985
-1.05
-1.105
-1.16
-1.18
-1.14
-1.02
-0.875
-0.685
-0.48
-0.28
-0.085
0.095
0.27
0.42
0.585
0.71
0.8
0.87
0.88
0.885
0.815
0.715
0.555
0.305
-0.015
-0.365
-0.66
-0.855
-0.905
-0.88
-0.82
-0.765
-0.755
-0.775
-0.8
-0.855
-0.925
-0.98
-1.015
-1.035
-1.03
-1.005
-1.01
-1.005
-1.015
-1.015
-1.025
-1.02
-1.025
-1.035
-0.995
-0.975
-0.96
-0.96
-0.965
-0.98
-1.0
-0.995
-1.01
-1.02
-1.035
-1.055
-1.055
-1.04
-1.015
-1.01
-0.995
-1.015
-1.025
-1.02
-1.02
-1.02
-1.035
-1.045
-1.04
-1.035
-1.04
-1.025
-1.0
-1.005
-1.0
-1.015
-1.035
-1.025
-1.015
-1.015
-1.005
-1.01
-1.01
-0.995
-0.97
-0.955
-0.965
-0.985
-0.985
-1.005
-0.995
-1.0
-0.985
-0.995
-0.995
-0.975
-0.95
-0.92
-0.92
-0.91
-0.915
-0.92
-0.93
-0.92
-0.925
-0.915
-0.91
-0.89
-0.875
-0.875
-0.86
-0.84
-0.85
-0.855
-0.865
-0.865
-0.87
-0.87
-0.855
-0.85
-0.83
-0.805
-0.815
-0.815
-0.835
-0.865
-0.88
-0.855
-0.85
-0.85
-0.85
-0.85
-0.825
-0.815
-0.83
-0.825
-0.835
-0.85
-0.875
-0.87
-0.86
-0.86
-0.86
-0.87
-0.88
-0.875
-0.87
-0.875
-0.89
-0.9
-0.91
-0.905
-0.89
-0.895
-0.905
-0.915
-0.94
-0.915
-0.91
-0.89
-0.91
-0.925
-0.935
-0.955
-0.94
-0.935
-0.935
-0.92
-0.935
-0.925
-0.91
-0.905
-0.91
-0.94
-0.945
-0.93
-0.94
-0.915
-0.9
-0.895
-0.895
-0.89
-0.89
-0.895
-0.89
-0.9
-0.92
-0.935
-0.91
-0.89
-0.89
-0.88
-0.895
-0.9
-0.895
-0.88
-0.87
-0.89
-0.88
-0.86
-0.85
-0.86
-0.83
-0.825
-0.835
-0.84
-0.835
-0.82
-0.81
-0.805
