Lead II
-0.07
-0.1
-0.105
-0.105
-0.105
-0.095
-0.115
-0.125
-0.15
-0.16
-0.185
-0.215
-0.245
-0.265
-0.29
-0.295
-0.3
-0.275
-0.265
-0.26
-0.25
-0.26
-0.265
-0.26
-0.27
-0.29
-0.3
-0.325
-0.34
-0.34
-0.335
-0.3
-0.235
-0.15
-0.02
0.14
0.345
0.595
0.865
1.12
1.305
1.37
1.305
1.11
0.825
0.51
0.21
-0.035
-0.2
-0.305
-0.335
-0.325
-0.295
-0.27
-0.265
-0.27
-0.29
-0.325
-0.35
-0.345
-0.355
-0.355
-0.37
-0.365
-0.37
-0.375
-0.375
-0.37
-0.365
-0.365
-0.385
-0.37
-0.365
-0.375
-0.38
-0.38
-0.385
-0.38
-0.375
-0.375
-0.37
-0.36
-0.365
-0.34
-0.35
-0.365
-0.365
-0.375
-0.365
-0.36
-0.35
-0.33
-0.325
-0.325
-0.335
-0.33
-0.325
-0.325
-0.33
-0.335
-0.34
-0.325
-0.335
-0.31
-0.3
-0.29
-0.29
-0.3
-0.295
-0.32
-0.32
-0.31
-0.31
-0.29
-0.265
-0.25
-0.245
-0.24
-0.23
-0.24
-0.255
-0.27
-0.285
-0.29
-0.3
-0.3
-0.285
-0.265
-0.245
-0.255
-0.255
-0.25
-0.25
-0.25
-0.25
-0.245
-0.245
-0.23
-0.215
-0.195
-0.18
-0.18
-0.165
-0.165
-0.165
-0.18
-0.195
-0.195
-0.2
-0.205
-0.205
-0.2
-0.195
-0.205
-0.2
-0.21
-0.215
-0.22
-0.225
-0.215
-0.215
-0.215
-0.21
-0.185
-0.18
-0.19
-0.195
-0.22
-0.25
-0.26
-0.265
-0.245
-0.23
-0.215
-0.21
-0.195
-0.195
-0.185
-0.2
-0.225
-0.235
-0.235
-0.235
-0.255
-0.24
-0.23
-0.225
-0.22
-0.205
-0.215
-0.205
-0.205
-0.195
-0.205
-0.215
-0.225
-0.23
-0.24
-0.235
-0.235
-0.22
-0.22
-0.215
-0.215
-0.21
-0.22
-0.225
-0.215
-0.225
-0.23
-0.23
-0.23
-0.215
-0.22
-0.22
-0.235
-0.215
-0.2
-0.195
-0.185
-0.17
-0.145
-0.15
-0.14
-0.125
-0.12
-0.115
-0.11
-0.105
-0.085
-0.06
-0.035
-0.025
-0.02
-0.02
-0.025
-0.03
-0.035
-0.045
-0.06
-0.08
-0.1
-0.13
-0.16
-0.19
-0.2
-0.195
-0.21
-0.24
-0.245
-0.255
-0.26
-0.28
-0.285
-0.29
-0.285
-0.27
-0.27
-0.275
-0.27
-0.27
-0.27
-0.27
-0.275
-0.31
-0.325
-0.345
-0.345
-0.325
-0.28
-0.2
-0.08
0.095
0.3
0.535
0.8
1.04
1.24
1.335
1.295
1.12
0.885
0.575
0.27
0.025
-0.17
-0.285
-0.33
-0.32
-0.29
-0.27
-0.265
-0.27
-0.3
-0.315
-0.325
-0.335
-0.345
-0.365
-0.37
-0.375
-0.385
-0.39
-0.385
-0.38
-0.375
-0.37
-0.365
-0.365
-0.365
-0.375
-0.365
-0.365
-0.375
-0.375
-0.375
-0.375
-0.365
-0.375
-0.375
-0.375
-0.375
-0.365
-0.36
-0.355
-0.35
-0.355
-0.36
-0.375
-0.375
-0.365
-0.365
-0.34
-0.35
-0.325
-0.32
-0.32
-0.335
-0.315
-0.33
-0.325
-0.315
-0.305
-0.285
-0.28
-0.29
-0.295
-0.305
-0.305
-0.3
-0.295
-0.3
-0.285
-0.27
-0.265
-0.26
-0.265
-0.275
-0.29
-0.305
-0.32
-0.31
-0.31
-0.305
-0.29
-0.275
-0.265
-0.25
-0.225
-0.225
-0.215
-0.21
-0.2
-0.2
-0.205
-0.21
-0.21
-0.2
-0.185
-0.185
-0.185
-0.2
-0.205
-0.215
-0.225
-0.235
-0.245
-0.25
-0.25
-0.23
-0.23
-0.215
-0.215
-0.21
-0.21
-0.215
-0.225
-0.23
-0.245
-0.25
-0.24
-0.235
-0.225
-0.215
-0.2
-0.215
-0.215
-0.215
-0.22
-0.235
-0.235
-0.235
-0.23
-0.24
-0.235
-0.225
-0.215
-0.21
-0.215
-0.205
-0.21
-0.215
-0.24
-0.23
-0.235
-0.25
-0.26
-0.245
-0.225
-0.215
-0.2
-0.19
-0.19
-0.2
-0.205
-0.215
-0.215
-0.23
-0.23
-0.22
-0.225
-0.21
-0.21
-0.21
-0.215
-0.205
-0.21
-0.21
-0.19
-0.19
-0.18
-0.17
-0.165
-0.15
-0.145
-0.13
-0.125
-0.12
-0.11
-0.09
-0.07
-0.045
-0.04
-0.04
-0.045
-0.055
-0.07
-0.075
-0.08
-0.1
-0.105
-0.115
-0.14
-0.155
-0.17
-0.185
-0.2
-0.21
-0.245
-0.26
-0.26
-0.275
-0.28
-0.265
-0.26
-0.26
-0.255
-0.245
-0.25
-0.26
-0.25
-0.275
-0.29
-0.3
-0.315
-0.32
-0.33
-0.335
-0.325
-0.275
-0.18
-0.075
0.085
0.26
0.49
0.745
0.98
1.215
1.365
1.415
1.33
1.135
0.855
0.535
0.24
-0.005
-0.165
-0.265
-0.3
-0.3
-0.275
-0.255
-0.245
-0.245
-0.27
-0.29
-0.315
-0.32
-0.325
-0.33
-0.345
-0.345
-0.34
-0.35
-0.355
-0.35
-0.34
-0.335
-0.33
-0.335
-0.345
-0.355
-0.35
-0.355
-0.355
-0.345
-0.335
-0.33
-0.335
-0.33
-0.34
-0.345
-0.345
-0.34
-0.34
-0.34
-0.34
-0.34
-0.33
-0.335
-0.325
-0.315
-0.315
-0.325
-0.33
-0.33
-0.325
-0.315
-0.3
-0.305
-0.295
-0.275
-0.28
-0.285
-0.285
-0.28
-0.29
-0.285
-0.3
-0.305
-0.305
-0.305
-0.29
-0.275
-0.265
-0.25
-0.26
-0.25
-0.255
-0.26
-0.265
-0.28
-0.28
-0.27
-0.265
-0.27
-0.255
-0.255
-0.255
-0.26
-0.245
-0.245
-0.255
-0.26
-0.24
-0.235
-0.22
-0.205
-0.2
-0.195
-0.17
-0.18
-0.165
-0.165
-0.16
-0.175
-0.17
-0.17
-0.175
-0.18
-0.185
-0.2
-0.205
-0.21
-0.21
-0.21
-0.22
-0.225
-0.215
-0.21
-0.21
-0.215
-0.2
-0.22
-0.225
-0.215
-0.215
-0.23
-0.235
-0.215
-0.22
-0.2
-0.195
-0.19
-0.185
-0.195
-0.2
-0.195
-0.195
-0.195
-0.21
-0.22
-0.22
-0.215
-0.205
-0.195
-0.19
-0.2
-0.185
-0.19
-0.2
-0.205
-0.215
-0.21
-0.21
-0.2
-0.185
-0.185
-0.17
-0.17
-0.18
-0.185
-0.185
-0.205
-0.215
-0.2
-0.215
-0.2
-0.195
-0.185
-0.175
-0.18
-0.175
-0.195
-0.195
-0.18
-0.195
-0.19
-0.195
-0.185
-0.17
-0.15
-0.14
-0.14
-0.135
-0.13
-0.13
-0.13
-0.11
-0.09
-0.065
-0.035
-0.02
-0.005
-0.005
-0.02
-0.035
-0.055
-0.055
-0.065
-0.07
-0.09
-0.085
-0.075
-0.095
-0.095
-0.12
-0.145
-0.155
-0.19
-0.215
-0.22
-0.255
-0.26
-0.27
-0.265
-0.25
-0.25
-0.235
-0.25
-0.24
-0.25
-0.275
-0.275
-0.285
-0.305
-0.295
-0.295
-0.29
-0.285
-0.29
-0.29
-0.29
-0.245
-0.18
-0.075
0.05
0.235
0.445
0.685
0.94
1.17
1.32
1.38
1.305
1.15
0.88
0.58
0.3
0.045
-0.135
-0.24
-0.28
-0.28
-0.265
-0.235
-0.23
-0.24
-0.27
-0.3
-0.33
-0.35
-0.355
-0.345
-0.335
-0.335
-0.34
-0.35
-0.35
-0.375
-0.365
-0.365
-0.38
-0.37
-0.37
-0.355
-0.35
-0.345
-0.335
-0.335
-0.33
-0.335
-0.335
-0.35
-0.355
-0.35
-0.36
-0.36
-0.35
-0.35
-0.34
-0.335
-0.33
-0.31
-0.315
-0.325
-0.325
-0.33
-0.325
-0.315
-0.32
-0.315
-0.305
-0.31
-0.305
-0.305
-0.31
-0.315
-0.315
-0.315
-0.31
-0.29
-0.29
-0.285
-0.275
-0.28
-0.27
-0.27
-0.27
-0.27
-0.27
-0.27
-0.265
-0.26
-0.26
-0.235
-0.22
-0.22
-0.24
-0.245
-0.25
-0.25
-0.265
-0.26
-0.255
-0.26
-0.26
-0.265
-0.25
-0.245
-0.25
-0.235
-0.22
-0.24
-0.22
-0.205
-0.2
-0.185
-0.18
-0.17
-0.17
-0.175
-0.17
-0.17
-0.18
-0.19
-0.215
-0.215
-0.22
-0.21
-0.19
-0.18
-0.19
-0.175
-0.175
-0.18
-0.195
-0.195
-0.21
-0.205
-0.215
-0.215
-0.21
-0.205
-0.185
-0.2
-0.205
-0.19
-0.18
-0.2
-0.205
-0.21
-0.225
-0.215
-0.21
-0.21
-0.2
-0.195
-0.19
-0.18
-0.2
-0.2
-0.195
-0.2
-0.205
-0.19
-0.185
-0.18
-0.18
-0.185
-0.2
-0.195
-0.19
-0.19
-0.195
-0.19
-0.19
-0.195
-0.195
-0.185
-0.18
-0.19
-0.19
-0.185
-0.195
-0.195
-0.21
-0.205
-0.2
-0.185
-0.17
-0.17
-0.145
-0.14
-0.13
-0.125
-0.105
-0.105
-0.1
-0.095
-0.09
-0.085
-0.06
-0.04
-0.02
-0.01
0.0
-0.01
-0.025
-0.03
-0.035
-0.045
-0.05
-0.06
-0.065
-0.065
-0.09
-0.115
-0.15
-0.16
-0.185
-0.195
-0.21
-0.215
-0.215
-0.225
-0.23
-0.23
-0.215
-0.215
-0.215
-0.22
-0.235
-0.245
-0.265
-0.275
-0.295
-0.275
-0.275
-0.27
-0.27
-0.285
-0.29
-0.245
-0.185
-0.09
0.045
0.225
0.445
0.715
0.97
1.195
1.33
1.335
1.225
1.01
0.715
0.405
0.13
-0.065
-0.205
-0.28
-0.29
-0.28
-0.24
-0.225
-0.23
-0.245
-0.265
-0.3
-0.32
-0.335
-0.35
-0.345
-0.34
-0.34
-0.335
-0.34
-0.34
-0.34
-0.345
-0.34
-0.33
-0.33
-0.34
-0.34
-0.34
-0.34
-0.34
-0.33
-0.34
-0.33
-0.325
-0.335
-0.335
-0.34
-0.335
-0.33
-0.33
-0.315
-0.325
-0.32
-0.32
-0.32
-0.315
-0.315
-0.315
-0.315
-0.31
-0.305
-0.295
-0.28
-0.285
-0.285
-0.285
-0.285
-0.29
-0.29
-0.285
-0.275
-0.295
-0.285
-0.27
-0.265
-0.25
-0.255
-0.25
-0.25
-0.26
-0.265
-0.255
-0.26
-0.25
-0.24
-0.23
-0.225
-0.22
-0.22
-0.23
-0.225
-0.23
-0.24
-0.25
-0.25
-0.24
-0.23
-0.21
-0.205
-0.2
-0.185
-0.18
-0.165
-0.17
-0.17
-0.175
-0.18
-0.185
-0.175
-0.17
-0.165
-0.16
-0.155
-0.155
-0.165
-0.18
-0.18
-0.195
-0.21
-0.195
-0.205
-0.195
-0.2
-0.2
-0.2
-0.19
-0.195
-0.2
-0.19
-0.205
-0.21
-0.215
-0.215
-0.205
-0.205
-0.19
-0.19
-0.2
-0.195
-0.195
-0.205
-0.215
-0.22
-0.215
-0.195
-0.19
-0.175
-0.18
-0.185
-0.195
-0.21
-0.215
-0.205
-0.205
-0.19
-0.19
-0.185
-0.185
-0.185
-0.18
-0.175
-0.19
-0.195
-0.205
-0.22
-0.215
-0.215
-0.2
-0.21
-0.2
-0.18
-0.175
-0.18
-0.175
-0.185
-0.195
-0.215
-0.225
-0.205
-0.205
-0.19
-0.165
-0.14
-0.135
-0.12
-0.115
-0.125
-0.105
-0.1
-0.1
-0.08
-0.09
-0.08
-0.06
-0.035
-0.025
-0.01
-0.025
-0.025
-0.04
-0.04
-0.04
-0.05
-0.07
-0.08
-0.115
-0.13
-0.14
-0.16
-0.16
-0.165
-0.175
-0.2
-0.215
-0.225
-0.245
-0.235
-0.25
-0.245
-0.255
-0.25
-0.26
-0.26
-0.265
-0.275
-0.28
-0.265
-0.28
-0.28
-0.295
-0.305
-0.3
-0.275
-0.225
-0.125
0.01
0.195
0.42
0.66
0.915
1.13
1.27
1.305
1.205
0.985
0.7
0.4
0.13
-0.08
-0.215
-0.295
-0.325
-0.29
-0.245
-0.215
-0.2
-0.235
-0.265
-0.3
-0.34
-0.355
-0.365
-0.375
-0.37
-0.355
-0.345
-0.345
-0.325
-0.325
-0.33
-0.345
-0.35
-0.345
-0.355
-0.35
-0.35
-0.35
-0.34
-0.34
-0.325
-0.335
-0.33
-0.335
-0.33
-0.34
-0.365
-0.365
-0.36
-0.345
-0.34
-0.315
-0.31
-0.295
-0.295
-0.3
-0.31
-0.315
-0.32
-0.325
-0.315
-0.31
-0.3
-0.29
-0.275
-0.28
-0.275
-0.27
-0.27
-0.265
-0.265
-0.275
-0.265
-0.26
-0.26
-0.25
-0.23
-0.24
-0.245
-0.245
-0.25
-0.255
-0.255
-0.255
-0.235
-0.225
-0.23
-0.225
-0.215
-0.22
-0.225
-0.215
-0.21
-0.205
-0.21
-0.185
-0.185
-0.17
-0.17
-0.155
-0.155
-0.16
-0.16
-0.155
-0.155
-0.175
-0.175
-0.19
-0.19
-0.215
-0.205
-0.195
-0.185
-0.185
-0.195
-0.195
-0.21
-0.21
-0.2
-0.21
-0.21
-0.205
-0.21
-0.215
-0.205
-0.195
-0.2
-0.185
-0.18
-0.185
-0.19
-0.2
-0.2
-0.19
-0.19
-0.185
-0.19
-0.195
-0.2
-0.2
-0.21
-0.215
-0.21
-0.21
-0.2
-0.205
-0.18
-0.175
-0.165
-0.16
-0.17
-0.175
-0.195
-0.2
-0.205
-0.205
-0.2
-0.2
-0.185
-0.175
-0.165
-0.165
-0.17
-0.175
-0.17
-0.175
-0.185
-0.205
-0.215
-0.215
-0.21
-0.2
-0.165
-0.14
-0.14
-0.13
-0.135
-0.135
-0.13
-0.13
-0.11
-0.105
-0.085
-0.07
-0.035
-0.025
-0.03
-0.025
-0.02
-0.035
-0.035
-0.045
-0.045
-0.065
-0.065
-0.08
-0.08
-0.105
-0.125
-0.16
-0.18
-0.2
-0.21
-0.225
-0.235
-0.24
-0.245
-0.23
-0.235
-0.23
-0.235
-0.245
-0.27
-0.28
-0.295
-0.295
-0.295
-0.28
-0.28
-0.29
-0.29
-0.29
-0.295
-0.285
-0.275
-0.225
-0.135
-0.005
0.185
0.41
0.69
0.965
1.21
1.375
1.42
1.335
1.13
0.835
0.495
0.2
-0.035
-0.2
-0.285
-0.3
-0.29
-0.26
-0.245
-0.245
-0.25
-0.28
-0.305
-0.335
-0.355
-0.36
-0.365
-0.35
-0.34
-0.335
-0.335
-0.335
-0.34
-0.35
-0.35
-0.35
-0.35
-0.355
-0.365
-0.35
-0.34
-0.34
-0.345
-0.33
-0.345
-0.34
-0.345
-0.335
-0.34
-0.33
-0.34
-0.35
-0.34
-0.33
-0.31
-0.305
-0.305
-0.315
-0.305
-0.32
-0.32
-0.315
-0.31
-0.31
-0.31
-0.29
-0.29
-0.28
-0.275
-0.28
-0.28
-0.28
-0.275
-0.275
-0.26
-0.26
-0.26
-0.26
-0.265
-0.265
-0.26
-0.255
-0.26
-0.26
-0.245
-0.245
-0.24
-0.24
-0.24
-0.22
-0.235
-0.245
-0.255
-0.27
-0.275
-0.27
-0.24
-0.225
-0.2
-0.18
-0.165
-0.155
-0.16
-0.18
-0.19
-0.2
-0.195
-0.185
-0.175
-0.175
-0.17
-0.19
-0.16
-0.165
-0.16
-0.17
-0.185
-0.195
-0.215
-0.225
-0.22
-0.215
-0.21
-0.2
-0.185
-0.19
-0.19
-0.18
-0.18
-0.18
-0.195
-0.2
-0.2
-0.21
-0.21
-0.205
-0.19
-0.19
-0.19
-0.19
-0.175
-0.19
-0.185
-0.2
-0.205
-0.2
-0.2
-0.205
-0.2
-0.2
-0.2
-0.205
-0.19
-0.18
-0.185
-0.175
-0.18
-0.185
-0.18
-0.175
-0.185
-0.185
-0.185
-0.185
-0.185
-0.205
-0.21
-0.205
-0.205
-0.2
-0.19
-0.185
-0.18
-0.175
-0.185
-0.195
-0.2
-0.195
-0.21
-0.19
-0.19
-0.16
-0.155
-0.14
-0.14
-0.125
-0.125
-0.115
-0.11
-0.11
-0.1
-0.07
-0.05
-0.015
-0.01
0.01
0.0
-0.005
-0.02
-0.03
-0.05
-0.075
-0.1
-0.095
-0.09
-0.115
-0.11
-0.13
-0.135
-0.145
-0.18
-0.18
-0.2
-0.205
-0.22
-0.245
-0.28
-0.285
-0.28
-0.265
-0.265
-0.255
-0.265
-0.245
-0.25
-0.25
-0.26
-0.285
-0.275
-0.285
-0.29
-0.31
-0.305
-0.29
-0.275
-0.205
-0.125
0.01
0.16
0.35
0.58
0.835
1.1
1.31
1.43
1.405
1.26
1.015
0.715
0.4
0.13
-0.095
-0.225
-0.275
-0.295
-0.275
-0.24
-0.215
-0.23
-0.255
-0.275
-0.31
-0.33
-0.345
-0.345
-0.34
-0.33
-0.335
-0.325
-0.325
-0.33
-0.35
-0.35
-0.37
-0.37
-0.375
-0.375
-0.355
-0.335
-0.325
-0.325
-0.31
-0.32
-0.325
-0.335
-0.34
-0.345
-0.355
-0.35
-0.355
-0.33
-0.32
-0.315
-0.315
-0.31
-0.31
-0.32
-0.32
-0.325
-0.345
-0.33
-0.34
-0.335
-0.31
-0.305
-0.29
-0.295
-0.295
-0.295
-0.29
-0.295
-0.28
-0.28
-0.285
-0.285
-0.275
-0.26
-0.245
-0.25
-0.24
-0.24
-0.245
-0.255
-0.255
-0.26
-0.255
-0.255
-0.24
-0.23
-0.23
-0.23
-0.22
-0.23
-0.235
-0.235
-0.24
-0.235
-0.24
-0.23
-0.21
-0.19
-0.18
-0.175
-0.155
-0.155
-0.16
-0.175
-0.18
-0.17
-0.185
-0.185
-0.19
-0.19
-0.185
-0.195
-0.2
-0.2
-0.205
-0.205
-0.22
-0.215
-0.22
-0.22
-0.21
-0.205
-0.21
-0.2
-0.21
-0.205
-0.205
-0.205
-0.21
-0.21
-0.205
-0.195
-0.205
-0.19
-0.185
-0.19
-0.19
-0.185
-0.195
-0.2
-0.19
-0.195
-0.185
-0.205
-0.205
-0.2
-0.2
-0.195
-0.19
-0.19
-0.185
-0.19
-0.2
-0.185
-0.18
-0.16
-0.165
-0.18
-0.17
-0.18
-0.185
-0.185
-0.19
-0.2
-0.195
-0.185
-0.175
-0.17
-0.165
-0.15
-0.145
-0.14
-0.135
-0.15
-0.145
-0.15
-0.145
-0.11
-0.095
-0.075
-0.06
-0.04
-0.025
-0.01
0.005
0.005
-0.005
-0.025
-0.045
-0.055
-0.055
-0.05
-0.04
-0.04
-0.05
-0.075
-0.1
-0.125
-0.15
-0.185
-0.2
-0.23
-0.215
-0.215
-0.22
-0.225
-0.24
-0.25
-0.24
-0.24
-0.27
-0.265
-0.27
-0.28
-0.285
-0.28
-0.29
-0.27
-0.275
-0.28
-0.29
-0.3
-0.285
-0.255
-0.18
-0.075
0.06
0.23
0.445
0.68
0.935
1.165
1.305
1.34
1.255
1.07
0.795
0.5
0.22
0.0
-0.16
-0.26
-0.295
-0.29
-0.275
-0.25
-0.24
-0.24
-0.265
-0.295
-0.31
-0.33
-0.325
-0.32
-0.32
-0.325
-0.32
-0.335
-0.345
-0.35
-0.365
-0.355
-0.355
-0.34
-0.33
-0.315
-0.315
-0.315
-0.32
-0.34
-0.345
-0.35
-0.36
-0.365
-0.355
-0.345
-0.33
-0.305
-0.315
-0.31
-0.305
-0.32
-0.325
-0.34
-0.35
-0.345
-0.34
-0.33
-0.32
-0.295
-0.285
-0.285
-0.285
-0.3
-0.305
-0.32
-0.315
-0.315
-0.305
-0.3
-0.3
-0.295
-0.28
-0.275
-0.27
-0.26
-0.26
-0.27
-0.26
-0.26
-0.26
-0.26
-0.25
-0.245
-0.24
-0.24
-0.235
-0.25
-0.245
-0.25
-0.24
-0.235
-0.235
-0.235
-0.23
-0.215
-0.225
-0.23
-0.215
-0.225
-0.225
-0.215
-0.21
-0.195
-0.195
-0.18
-0.165
-0.155
-0.155
-0.15
-0.15
-0.165
-0.18
-0.19
-0.195
-0.19
-0.185
-0.18
-0.165
-0.17
-0.17
-0.175
-0.185
-0.2
-0.215
-0.22
-0.235
-0.235
-0.225
-0.215
-0.21
-0.205
-0.2
-0.19
-0.19
-0.195
-0.2
-0.22
-0.22
-0.205
-0.205
-0.205
-0.195
-0.18
-0.175
-0.19
-0.2
-0.2
-0.19
-0.195
-0.205
-0.205
-0.21
-0.2
-0.205
-0.19
-0.18
-0.175
-0.18
-0.18
-0.175
-0.16
-0.16
-0.18
-0.18
-0.195
-0.2
-0.205
-0.195
-0.205
-0.175
-0.18
-0.195
-0.2
-0.215
-0.205
-0.21
-0.195
-0.19
-0.175
-0.17
-0.165
-0.145
-0.155
-0.15
-0.14
-0.125
-0.095
-0.095
-0.09
-0.075
-0.06
-0.035
-0.035
-0.02
-0.01
-0.015
-0.04
-0.035
-0.035
-0.03
-0.04
-0.035
-0.04
-0.05
-0.08
-0.105
-0.135
-0.165
-0.19
-0.2
-0.21
-0.215
-0.215
-0.225
-0.22
-0.22
-0.22
-0.235
-0.235
-0.265
-0.275
-0.295
-0.28
-0.265
-0.255
-0.25
-0.245
-0.255
-0.27
-0.27
-0.29
-0.295
-0.3
-0.27
-0.2
-0.11
0.035
0.21
0.42
0.645
0.88
1.095
1.265
1.34
1.315
1.165
0.935
0.665
0.385
0.12
-0.06
-0.18
-0.25
-0.265
-0.255
-0.23
-0.225
-0.225
-0.25
-0.275
-0.305
-0.34
-0.345
-0.34
-0.34
-0.335
-0.345
-0.34
-0.35
-0.355
-0.36
-0.365
-0.36
-0.34
-0.33
-0.325
-0.335
-0.335
-0.34
-0.35
-0.35
-0.35
-0.345
-0.335
-0.32
-0.32
-0.32
-0.32
-0.335
-0.31
-0.32
-0.33
-0.33
-0.33
-0.33
-0.33
-0.31
-0.305
-0.31
-0.295
-0.31
-0.295
-0.285
-0.285
-0.28
-0.285
-0.3
-0.295
-0.28
-0.28
-0.265
-0.245
-0.24
-0.245
-0.26
-0.26
-0.265
-0.27
-0.275
-0.28
-0.275
-0.26
-0.245
-0.225
-0.215
-0.205
-0.225
-0.23
-0.22
-0.225
-0.22
-0.225
-0.23
-0.245
-0.245
-0.245
-0.23
-0.235
-0.24
-0.235
-0.235
-0.22
-0.215
-0.195
-0.17
-0.18
-0.175
-0.175
-0.165
-0.165
-0.17
-0.165
-0.16
-0.17
-0.17
-0.17
-0.175
-0.175
-0.17
-0.165
-0.17
-0.185
-0.205
-0.21
-0.21
-0.225
-0.21
-0.22
-0.205
-0.21
-0.195
-0.19
-0.19
-0.18
-0.18
-0.17
-0.19
-0.2
-0.195
-0.2
-0.19
-0.185
-0.165
-0.15
-0.165
-0.16
-0.165
-0.165
-0.18
-0.195
-0.18
-0.19
-0.18
-0.18
-0.165
-0.155
-0.16
-0.155
-0.16
-0.15
-0.16
-0.175
-0.175
-0.19
-0.17
-0.155
-0.155
-0.15
-0.145
-0.145
-0.155
-0.15
-0.165
-0.17
-0.17
-0.175
-0.16
-0.165
-0.165
-0.16
-0.165
-0.15
-0.14
-0.135
-0.13
-0.13
-0.12
-0.105
-0.085
-0.09
-0.065
-0.075
-0.065
-0.045
-0.025
-0.015
-0.015
0.0
0.005
-0.005
-0.01
0.0
-0.005
0.0
-0.01
-0.025
-0.045
-0.06
-0.095
-0.12
-0.135
-0.14
-0.14
-0.145
-0.17
-0.18
-0.195
-0.205
-0.215
-0.225
-0.23
-0.235
-0.225
-0.225
-0.22
-0.21
-0.2
-0.225
-0.225
-0.255
-0.275
-0.3
-0.3
-0.265
-0.18
-0.06
0.11
0.345
0.615
0.895
1.17
1.385
1.49
1.44
1.255
0.96
0.62
0.275
0.005
-0.17
-0.26
-0.27
-0.255
-0.22
-0.2
-0.195
-0.22
-0.255
-0.28
-0.3
-0.3
-0.305
-0.285
-0.28
-0.28
-0.275
-0.295
-0.295
-0.305
-0.31
-0.315
-0.31
-0.29
-0.29
-0.285
-0.275
-0.28
-0.275
-0.275
-0.285
-0.295
-0.295
-0.3
-0.305
-0.31
-0.3
-0.27
-0.27
-0.255
-0.26
-0.26
-0.26
-0.26
-0.265
-0.255
-0.255
-0.26
-0.26
-0.25
-0.24
-0.245
-0.235
-0.24
-0.245
-0.235
-0.245
-0.235
-0.22
-0.215
-0.205
-0.21
-0.195
-0.195
-0.19
-0.2
-0.195
-0.195
-0.195
-0.185
-0.185
-0.175
-0.185
-0.175
-0.17
-0.175
-0.175
-0.205
-0.21
-0.22
-0.225
-0.21
-0.2
-0.18
-0.155
-0.135
-0.12
-0.135
-0.14
-0.15
-0.145
-0.16
-0.145
-0.125
-0.125
-0.12
-0.115
-0.105
-0.1
-0.105
-0.11
-0.14
-0.15
-0.165
-0.175
-0.17
-0.17
-0.165
-0.15
-0.16
-0.15
-0.15
-0.155
-0.165
-0.175
-0.165
-0.17
-0.175
-0.18
-0.185
-0.18
-0.15
-0.145
-0.13
-0.155
-0.14
-0.14
-0.14
-0.15
-0.15
-0.15
-0.15
-0.16
-0.15
-0.14
-0.14
-0.135
-0.13
-0.135
-0.13
-0.135
-0.14
-0.145
-0.14
-0.14
-0.135
-0.135
-0.13
-0.125
-0.13
-0.13
-0.135
-0.14
-0.12
-0.135
-0.145
-0.14
-0.135
-0.115
-0.115
-0.125
-0.135
-0.14
-0.145
-0.14
-0.13
-0.11
-0.09
-0.07
-0.06
-0.045
-0.045
-0.05
-0.05
-0.05
-0.04
-0.015
0.01
0.035
0.045
0.04
0.035
0.04
0.035
0.04
0.015
0.005
-0.015
-0.03
-0.05
-0.08
-0.1
-0.115
-0.11
-0.11
-0.115
-0.13
-0.155
-0.17
-0.195
-0.205
-0.22
-0.225
-0.225
-0.22
-0.21
-0.22
-0.195
-0.21
-0.215
-0.225
-0.23
-0.225
-0.225
-0.245
-0.245
-0.255
-0.25
-0.235
-0.175
-0.09
0.03
0.185
0.39
0.645
0.935
1.21
1.415
1.52
1.475
1.33
1.07
0.735
0.4
0.12
-0.085
-0.21
-0.26
-0.25
-0.22
-0.195
-0.185
-0.195
-0.22
-0.26
-0.285
-0.3
-0.3
-0.305
-0.295
-0.295
-0.285
-0.28
-0.27
-0.275
-0.275
-0.28
-0.29
-0.3
-0.305
-0.3
-0.295
-0.29
-0.3
-0.275
-0.26
-0.26
-0.27
-0.27
-0.275
-0.29
-0.3
-0.3
-0.295
-0.28
-0.275
-0.27
-0.265
-0.255
-0.25
-0.255
-0.255
-0.255
-0.265
-0.265
-0.265
-0.25
-0.245
-0.235
-0.225
-0.205
-0.205
-0.2
-0.205
-0.205
-0.22
-0.215
-0.205
-0.205
-0.195
-0.205
-0.19
-0.175
-0.17
-0.165
-0.18
-0.185
-0.195
-0.19
-0.2
-0.2
-0.195
-0.195
-0.18
-0.185
-0.175
-0.165
-0.17
-0.155
-0.15
-0.155
-0.15
-0.145
-0.125
-0.13
-0.115
-0.115
-0.12
-0.135
-0.135
-0.14
-0.145
-0.155
-0.15
-0.145
-0.14
-0.125
-0.13
-0.125
-0.15
-0.155
-0.155
-0.16
-0.165
-0.165
-0.175
-0.165
-0.18
-0.18
-0.17
-0.155
-0.155
-0.16
-0.16
-0.165
-0.18
-0.18
-0.175
-0.18
-0.17
-0.16
-0.155
-0.155
-0.14
-0.14
-0.15
-0.145
-0.17
-0.175
-0.17
-0.17
-0.155
-0.14
-0.13
-0.14
-0.135
-0.14
-0.145
-0.16
-0.175
-0.175
-0.16
-0.16
-0.145
-0.145
-0.145
-0.135
-0.135
-0.13
-0.135
-0.165
-0.165
-0.165
-0.165
-0.17
-0.14
-0.125
-0.11
-0.085
-0.065
-0.07
-0.055
-0.05
-0.05
-0.045
-0.045
-0.02
0.0
0.02
0.025
0.03
0.025
0.025
0.015
0.005
0.015
0.005
-0.01
-0.025
-0.025
-0.06
-0.08
-0.11
-0.125
-0.13
-0.145
-0.15
-0.185
-0.2
-0.205
-0.21
-0.215
-0.205
-0.21
-0.21
-0.235
-0.24
-0.245
-0.245
-0.24
-0.25
-0.245
-0.245
-0.235
-0.25
-0.25
-0.245
-0.215
-0.165
-0.075
0.025
0.2
0.43
0.7
0.975
1.245
1.42
1.49
1.425
1.215
0.935
0.595
0.28
0.02
-0.155
-0.27
-0.29
-0.275
-0.23
-0.195
-0.17
-0.19
-0.22
-0.255
-0.29
-0.31
-0.33
-0.32
-0.32
-0.31
-0.31
-0.3
-0.29
-0.295
-0.295
-0.305
-0.305
-0.31
-0.33
-0.325
-0.32
-0.325
-0.31
-0.315
-0.3
-0.31
-0.3
-0.3
-0.31
-0.305
-0.31
-0.305
-0.31
-0.31
-0.305
-0.3
-0.28
-0.275
-0.265
-0.265
-0.27
-0.29
-0.285
-0.29
-0.29
-0.28
-0.28
-0.275
-0.265
-0.26
-0.255
-0.26
-0.26
-0.25
-0.25
-0.245
-0.25
-0.235
-0.225
-0.235
-0.23
-0.22
-0.21
-0.215
-0.22
-0.215
-0.225
-0.21
-0.21
-0.19
-0.175
-0.185
-0.185
-0.195
-0.21
-0.225
-0.235
-0.245
-0.23
-0.215
-0.215
-0.19
-0.175
-0.16
-0.15
-0.15
-0.15
-0.155
-0.15
-0.14
-0.16
-0.14
-0.145
-0.135
-0.14
-0.14
-0.14
-0.145
-0.145
-0.155
-0.16
-0.18
-0.18
-0.185
-0.19
-0.18
-0.17
-0.165
-0.165
-0.165
-0.165
-0.175
-0.185
-0.195
-0.21
-0.215
-0.22
-0.21
-0.19
-0.165
-0.15
-0.16
-0.17
-0.17
-0.17
-0.175
-0.19
-0.185
-0.185
-0.18
-0.18
-0.165
-0.165
-0.18
-0.175
-0.165
-0.175
-0.165
-0.175
-0.165
-0.17
-0.15
-0.16
-0.16
-0.16
-0.17
-0.17
-0.19
-0.195
-0.18
-0.175
-0.175
-0.165
-0.16
-0.16
-0.16
-0.16
-0.17
-0.165
-0.18
-0.17
-0.18
-0.18
-0.17
-0.165
-0.145
-0.13
-0.115
-0.105
-0.1
-0.105
-0.115
-0.1
-0.105
-0.095
-0.085
-0.06
-0.04
-0.005
0.03
0.04
0.015
0.015
0.0
-0.015
-0.02
-0.04
-0.04
-0.035
-0.04
-0.045
-0.055
-0.08
-0.115
-0.145
-0.17
-0.195
-0.205
-0.22
-0.22
-0.235
-0.24
-0.235
-0.235
-0.235
-0.235
-0.22
-0.225
-0.215
-0.23
-0.245
-0.25
-0.245
-0.25
-0.26
-0.27
-0.28
-0.285
-0.27
-0.235
-0.19
-0.095
0.02
0.195
0.395
0.64
0.88
1.115
1.315
1.415
1.425
1.315
1.105
0.845
0.555
0.28
0.05
-0.105
-0.205
-0.265
-0.26
-0.235
-0.225
-0.21
-0.21
-0.245
-0.28
-0.305
-0.32
-0.33
-0.32
-0.305
-0.295
-0.3
-0.29
-0.305
-0.315
-0.335
-0.345
-0.35
-0.355
-0.335
-0.33
-0.31
-0.305
-0.305
-0.295
-0.31
-0.305
-0.3
-0.3
-0.31
-0.32
-0.33
-0.325
-0.31
-0.3
-0.285
-0.285
-0.275
-0.295
-0.305
-0.3
-0.295
-0.3
-0.28
-0.29
-0.285
-0.275
-0.275
-0.26
-0.265
-0.27
-0.265
-0.265
-0.265
-0.275
-0.275
-0.28
-0.265
-0.25
-0.25
-0.235
-0.23
-0.235
-0.235
-0.22
-0.22
-0.225
-0.225
-0.225
-0.21
-0.215
-0.215
-0.22
-0.21
-0.23
-0.22
-0.235
-0.23
-0.215
-0.21
-0.2
-0.2
-0.195
-0.2
-0.19
-0.19
-0.19
-0.2
-0.195
-0.175
-0.175
-0.16
-0.135
-0.115
-0.12
-0.13
-0.13
-0.135
-0.15
-0.155
-0.17
-0.175
-0.175
-0.165
-0.16
-0.15
-0.14
-0.13
-0.135
-0.14
-0.155
-0.185
-0.18
-0.19
-0.185
-0.185
-0.165
-0.165
-0.16
-0.155
-0.16
-0.16
-0.16
-0.16
-0.16
-0.16
-0.165
-0.16
-0.17
-0.16
-0.155
-0.17
-0.165
-0.16
-0.155
-0.155
-0.155
-0.17
-0.17
-0.155
-0.16
-0.155
-0.15
-0.15
-0.16
-0.16
-0.17
-0.165
-0.155
-0.145
-0.13
-0.125
-0.13
-0.14
-0.14
-0.15
-0.16
-0.16
-0.165
-0.165
-0.15
-0.15
-0.145
-0.145
-0.14
-0.145
-0.15
-0.145
-0.14
-0.13
-0.135
-0.13
-0.125
-0.115
-0.095
-0.08
-0.06
-0.04
-0.03
-0.015
0.005
0.015
0.015
0.005
-0.01
-0.01
-0.01
0.005
0.01
0.01
0.0
-0.025
-0.03
-0.055
-0.085
-0.115
-0.145
-0.165
-0.2
-0.21
-0.2
-0.205
-0.205
-0.205
-0.21
-0.21
-0.225
-0.24
-0.25
-0.265
-0.265
-0.245
-0.23
-0.23
-0.23
-0.24
-0.235
-0.245
-0.255
-0.245
-0.21
-0.13
-0.015
0.14
0.355
0.62
0.885
1.15
1.375
1.485
1.465
1.335
1.075
0.76
0.435
0.15
-0.065
-0.2
-0.265
-0.275
-0.245
-0.235
-0.205
-0.19
-0.215
-0.24
-0.265
-0.29
-0.3
-0.315
-0.31
-0.305
-0.29
-0.285
-0.295
-0.29
-0.305
-0.3
-0.305
-0.305
-0.295
-0.285
-0.295
-0.295
-0.3
-0.29
-0.295
-0.3
-0.3
-0.305
-0.3
-0.295
-0.29
-0.285
-0.28
-0.285
-0.28
-0.285
-0.29
-0.29
-0.29
-0.285
-0.285
-0.29
-0.27
-0.265
-0.26
-0.255
-0.265
-0.26
-0.26
-0.27
-0.255
-0.25
-0.245
-0.25
-0.24
-0.225
-0.205
-0.2
-0.195
-0.2
-0.2
-0.215
-0.22
-0.22
-0.225
-0.225
-0.23
-0.21
-0.19
-0.185
-0.18
-0.175
-0.195
-0.21
-0.215
-0.22
-0.205
-0.205
-0.195
-0.17
-0.155
-0.15
-0.14
-0.155
-0.16
-0.16
-0.165
-0.165
-0.17
-0.16
-0.155
-0.145
-0.125
-0.125
-0.14
-0.15
-0.145
-0.16
-0.17
-0.16
-0.18
-0.185
-0.175
-0.185
-0.18
-0.175
-0.175
-0.17
-0.18
-0.175
-0.18
-0.17
-0.165
-0.17
-0.165
-0.16
-0.155
-0.17
-0.165
-0.17
-0.18
-0.18
-0.195
-0.18
-0.19
-0.17
-0.17
-0.16
-0.155
-0.165
-0.145
-0.155
-0.15
-0.16
-0.165
-0.165
-0.16
-0.15
-0.15
-0.14
-0.135
-0.13
-0.14
-0.145
-0.135
-0.15
-0.155
-0.155
-0.16
-0.155
-0.15
-0.135
-0.125
-0.125
-0.135
-0.14
-0.14
-0.145
-0.16
-0.16
-0.15
-0.145
-0.13
-0.095
-0.08
-0.075
-0.07
-0.07
-0.07
-0.075
-0.07
-0.06
-0.035
-0.02
0.01
0.03
0.055
0.035
0.035
0.02
0.01
0.0
-0.015
-0.015
-0.035
-0.04
-0.05
-0.05
-0.06
-0.09
-0.105
-0.135
-0.17
-0.205
-0.22
-0.225
-0.225
-0.22
-0.21
-0.21
-0.21
-0.22
-0.22
-0.23
-0.24
-0.25
-0.26
-0.25
-0.255
-0.26
-0.26
-0.25
-0.25
-0.24
-0.19
-0.12
-0.015
0.15
0.35
0.625
0.9
1.175
1.4
1.515
1.5
1.335
1.09
