Lead II
-0.005
0.02
0.04
0.055
0.055
0.055
0.055
0.03
0.005
-0.01
-0.005
0.01
0.02
0.04
0.055
0.05
0.025
0.015
0.02
0.03
0.045
0.045
0.045
0.065
0.07
0.075
0.07
0.075
0.065
0.055
0.055
0.075
0.065
0.075
0.065
0.065
0.07
0.075
0.09
0.095
0.1
0.1
0.08
0.07
0.075
0.065
0.085
0.105
0.13
0.155
0.175
0.195
0.205
0.185
0.165
0.165
0.16
0.17
0.19
0.2
0.205
0.2
0.19
0.19
0.18
0.17
0.16
0.155
0.145
0.13
0.14
0.14
0.155
0.16
0.17
0.17
0.17
0.16
0.15
0.145
0.135
0.125
0.13
0.135
0.145
0.155
0.175
0.185
0.19
0.18
0.17
0.145
0.125
0.115
0.105
0.115
0.125
0.145
0.16
0.165
0.15
0.17
0.165
0.15
0.12
0.12
0.1
0.1
0.1
0.11
0.12
0.13
0.135
0.145
0.145
0.135
0.11
0.1
0.09
0.085
0.085
0.095
0.115
0.14
0.15
0.18
0.175
0.155
0.125
0.08
0.05
0.05
0.07
0.09
0.125
0.145
0.135
0.135
0.15
0.145
0.15
0.155
0.16
0.18
0.205
0.215
0.24
0.25
0.245
0.255
0.26
0.29
0.305
0.3
0.29
0.285
0.275
0.285
0.305
0.305
0.285
0.265
0.255
0.245
0.21
0.215
0.2
0.17
0.155
0.135
0.125
0.12
0.11
0.1
0.085
0.08
0.08
0.08
0.07
0.06
0.065
0.065
0.07
0.075
0.065
0.065
0.055
0.05
0.045
0.035
0.05
0.07
0.125
0.195
0.31
0.465
0.665
0.905
1.18
1.45
1.64
1.73
1.71
1.54
1.26
0.93
0.61
0.35
0.17
0.07
0.04
0.045
0.065
0.085
0.09
0.07
0.05
0.03
0.02
0.0
-0.005
-0.005
-0.03
-0.02
-0.015
-0.03
-0.025
-0.03
-0.045
-0.025
-0.02
-0.015
-0.005
0.0
-0.01
-0.01
-0.025
-0.05
-0.06
-0.06
-0.045
-0.01
0.015
0.03
0.01
0.02
0.01
0.01
0.005
0.01
-0.02
-0.02
-0.02
-0.015
0.0
0.01
0.02
0.02
0.015
0.005
0.005
0.0
0.01
0.01
0.015
0.025
0.03
0.025
0.03
0.03
0.055
0.07
0.065
0.065
0.035
0.045
0.04
0.045
0.06
0.06
0.06
0.055
0.055
0.075
0.07
0.075
0.075
0.07
0.08
0.1
0.12
0.14
0.145
0.155
0.145
0.13
0.135
0.135
0.165
0.18
0.205
0.21
0.22
0.21
0.2
0.195
0.19
0.165
0.15
0.125
0.135
0.135
0.155
0.15
0.165
0.17
0.165
0.175
0.165
0.155
0.13
0.125
0.115
0.11
0.125
0.135
0.145
0.145
0.13
0.145
0.135
0.15
0.145
0.135
0.125
0.125
0.13
0.125
0.14
0.145
0.145
0.13
0.12
0.115
0.115
0.11
0.12
0.12
0.12
0.115
0.12
0.125
0.125
0.11
0.115
0.105
0.105
0.105
0.095
0.1
0.1
0.11
0.11
0.12
0.12
0.12
0.12
0.115
0.11
0.11
0.11
0.09
0.09
0.11
0.125
0.13
0.15
0.16
0.165
0.17
0.18
0.18
0.19
0.2
0.21
0.215
0.22
0.26
0.27
0.31
0.335
0.34
0.335
0.315
0.29
0.27
0.26
0.25
0.225
0.225
0.22
0.235
0.24
0.225
0.2
0.16
0.13
0.105
0.1
0.09
0.06
0.07
0.07
0.08
0.08
0.07
0.08
0.065
0.055
0.05
0.055
0.06
0.055
0.055
0.025
0.01
-0.005
0.0
0.025
0.055
0.135
0.225
0.34
0.49
0.675
0.88
1.115
1.35
1.55
1.665
1.66
1.54
1.31
1.015
0.73
0.475
0.28
0.17
0.095
0.06
0.075
0.095
0.105
0.1
0.075
0.035
0.025
-0.005
-0.01
-0.005
0.0
-0.005
-0.005
-0.01
-0.02
-0.015
-0.015
-0.03
-0.035
-0.04
-0.025
-0.03
-0.03
-0.025
-0.02
-0.025
-0.03
-0.03
-0.035
-0.03
-0.025
-0.025
-0.01
0.005
0.005
0.0
-0.005
-0.01
-0.03
-0.02
-0.035
-0.045
-0.025
-0.02
-0.005
0.0
0.0
0.0
0.005
0.025
0.01
0.015
0.01
-0.005
0.01
0.01
0.015
0.02
0.015
0.005
0.0
0.0
0.01
0.035
0.055
0.065
0.07
0.075
0.065
0.065
0.055
0.05
0.06
0.055
0.06
0.055
0.065
0.075
0.085
0.11
0.135
0.155
0.15
0.145
0.13
0.13
0.12
0.125
0.145
0.165
0.19
0.215
0.24
0.235
0.215
0.195
0.16
0.15
0.13
0.13
0.13
0.125
0.14
0.145
0.16
0.17
0.16
0.15
0.135
0.12
0.115
0.115
0.115
0.11
0.12
0.12
0.12
0.11
0.115
0.13
0.135
0.15
0.15
0.12
0.105
0.09
0.095
0.1
0.11
0.12
0.12
0.135
0.14
0.135
0.13
0.11
0.1
0.1
0.09
0.11
0.115
0.135
0.14
0.14
0.13
0.12
0.095
0.085
0.095
0.11
0.12
0.13
0.135
0.125
0.105
0.1
0.105
0.11
0.11
0.105
0.12
0.125
0.115
0.115
0.12
0.135
0.14
0.155
0.155
0.145
0.15
0.155
0.185
0.195
0.22
0.245
0.26
0.295
0.33
0.335
0.335
0.32
0.28
0.25
0.225
0.205
0.205
0.225
0.23
0.23
0.21
0.18
0.16
0.125
0.075
0.055
0.05
0.055
0.075
0.08
0.09
0.065
0.045
0.025
0.04
0.035
0.04
0.045
0.05
0.05
0.055
0.05
0.025
0.015
0.03
0.07
0.14
0.24
0.38
0.55
0.78
1.035
1.31
1.54
1.69
1.71
1.58
1.32
0.995
0.635
0.33
0.115
0.015
-0.015
0.02
0.065
0.095
0.105
0.06
0.015
-0.03
-0.055
-0.08
-0.085
-0.07
-0.06
-0.045
-0.045
-0.045
-0.045
-0.06
-0.07
-0.07
-0.08
-0.09
-0.085
-0.085
-0.065
-0.075
-0.065
-0.06
-0.055
-0.055
-0.075
-0.07
-0.08
-0.09
-0.095
-0.095
-0.095
-0.09
-0.095
-0.07
-0.065
-0.06
-0.055
-0.055
-0.06
-0.06
-0.065
-0.08
-0.085
-0.085
-0.08
-0.07
-0.055
-0.035
-0.05
-0.05
-0.075
-0.095
-0.105
-0.085
-0.07
-0.05
-0.035
-0.035
-0.02
-0.025
-0.03
-0.035
-0.065
-0.07
-0.055
-0.045
-0.035
-0.04
-0.04
-0.03
-0.025
-0.015
-0.01
-0.005
-0.015
-0.03
-0.025
-0.03
-0.015
-0.01
0.015
0.03
0.06
0.07
0.07
0.07
0.065
0.045
0.04
0.045
0.045
0.035
0.035
0.04
0.04
0.02
-0.015
-0.02
-0.02
-0.005
0.005
0.005
-0.005
-0.02
-0.04
-0.05
-0.04
-0.02
0.005
0.01
0.015
0.0
-0.01
-0.01
-0.035
-0.035
-0.045
-0.04
-0.03
-0.035
-0.02
-0.02
-0.015
-0.02
-0.03
-0.045
-0.07
-0.07
-0.07
-0.055
-0.055
-0.05
-0.05
-0.035
-0.04
-0.04
-0.045
-0.07
-0.08
-0.08
-0.07
-0.045
-0.025
-0.03
-0.04
-0.055
-0.075
-0.085
-0.08
-0.07
-0.08
-0.085
-0.085
-0.085
-0.06
-0.05
-0.045
-0.055
-0.075
-0.09
-0.095
-0.085
-0.065
-0.04
-0.02
0.0
0.005
0.01
0.005
0.01
-0.02
-0.01
-0.005
0.01
0.035
0.065
0.115
0.125
0.12
0.08
0.075
0.055
0.04
0.03
0.035
0.025
0.04
0.035
0.025
-0.005
-0.015
-0.045
-0.06
-0.075
-0.075
-0.1
-0.125
-0.145
-0.16
-0.165
-0.16
-0.155
-0.145
-0.15
-0.165
-0.165
-0.165
-0.175
-0.19
-0.215
-0.225
-0.22
-0.22
-0.2
-0.18
-0.165
-0.13
-0.085
-0.015
0.08
0.235
0.435
0.675
0.945
1.24
1.44
1.545
1.51
1.34
1.08
0.755
0.43
0.145
-0.06
-0.185
-0.23
-0.225
-0.195
-0.155
-0.155
-0.17
-0.2
-0.24
-0.265
-0.285
-0.29
-0.29
-0.3
-0.29
-0.28
-0.265
-0.27
-0.265
-0.29
-0.3
-0.305
-0.295
-0.3
-0.31
-0.31
-0.315
-0.32
-0.3
-0.295
-0.285
-0.3
-0.305
-0.32
-0.325
-0.325
-0.325
-0.315
-0.305
-0.295
-0.29
-0.3
-0.305
-0.31
-0.315
-0.315
-0.3
-0.285
-0.28
-0.275
-0.29
-0.305
-0.305
-0.32
-0.325
-0.31
-0.315
-0.32
-0.32
-0.32
-0.335
-0.335
-0.31
-0.295
-0.28
-0.265
-0.265
-0.265
-0.265
-0.27
-0.31
-0.325
-0.315
-0.295
-0.28
-0.265
-0.26
-0.25
-0.245
-0.255
-0.26
-0.265
-0.295
-0.3
-0.31
-0.28
-0.265
-0.25
-0.22
-0.21
-0.205
-0.195
-0.2
-0.19
-0.195
-0.18
-0.17
-0.16
-0.155
-0.14
-0.135
-0.125
-0.125
-0.135
-0.14
-0.15
-0.155
-0.18
-0.195
-0.195
-0.205
-0.215
-0.21
-0.2
-0.19
-0.175
-0.175
-0.18
-0.205
-0.215
-0.23
-0.225
-0.21
-0.195
-0.18
-0.17
-0.19
-0.205
-0.225
-0.225
-0.225
-0.22
-0.2
-0.21
-0.2
-0.195
-0.195
-0.22
-0.225
-0.22
-0.21
-0.215
-0.22
-0.225
-0.24
-0.235
-0.235
-0.205
-0.205
-0.205
-0.21
-0.215
-0.23
-0.245
-0.25
-0.25
-0.24
-0.215
-0.215
-0.205
-0.225
-0.23
-0.24
-0.235
-0.23
-0.235
-0.245
-0.26
-0.265
-0.265
-0.24
-0.23
-0.22
-0.205
-0.225
-0.23
-0.24
-0.25
-0.25
-0.26
-0.25
-0.22
-0.2
-0.195
-0.175
-0.18
-0.175
-0.16
-0.145
-0.135
-0.13
-0.09
-0.07
-0.05
-0.035
-0.045
-0.06
-0.08
-0.1
-0.12
-0.14
-0.15
-0.14
-0.115
-0.11
-0.13
-0.16
-0.195
-0.22
-0.235
-0.26
-0.265
-0.285
-0.295
-0.32
-0.325
-0.325
-0.32
-0.3
-0.295
-0.29
-0.3
-0.32
-0.34
-0.365
-0.36
-0.37
-0.345
-0.35
-0.355
-0.365
-0.35
-0.29
-0.205
-0.105
0.045
0.21
0.425
0.66
0.915
1.14
1.265
1.27
1.155
0.945
0.64
0.315
0.005
-0.22
-0.345
-0.4
-0.38
-0.34
-0.32
-0.315
-0.34
-0.355
-0.385
-0.405
-0.415
-0.44
-0.46
-0.47
-0.48
-0.48
-0.455
-0.46
-0.465
-0.465
-0.475
-0.47
-0.465
-0.465
-0.465
-0.46
-0.46
-0.475
-0.49
-0.49
-0.47
-0.45
-0.45
-0.445
-0.45
-0.46
-0.47
-0.485
-0.485
-0.48
-0.47
-0.45
-0.445
-0.45
-0.45
-0.455
-0.48
-0.485
-0.48
-0.47
-0.465
-0.47
-0.465
-0.47
-0.45
-0.44
-0.43
-0.435
-0.435
-0.455
-0.455
-0.455
-0.46
-0.44
-0.435
-0.425
-0.44
-0.445
-0.46
-0.445
-0.43
-0.425
-0.41
-0.425
-0.44
-0.445
-0.435
-0.405
-0.38
-0.36
-0.36
-0.365
-0.37
-0.35
-0.34
-0.315
-0.3
-0.285
-0.27
-0.27
-0.265
-0.27
-0.28
-0.29
-0.305
-0.315
-0.325
-0.32
-0.325
-0.325
-0.32
-0.33
-0.335
-0.335
-0.335
-0.335
-0.34
-0.335
-0.33
-0.34
-0.36
-0.38
-0.38
-0.37
-0.365
-0.36
-0.365
-0.36
-0.35
-0.34
-0.345
-0.355
-0.365
-0.375
-0.38
-0.375
-0.395
-0.375
-0.375
-0.38
-0.375
-0.38
-0.38
-0.38
-0.38
-0.38
-0.38
-0.36
-0.37
-0.375
-0.395
-0.395
-0.39
-0.39
-0.38
-0.39
-0.395
-0.405
-0.42
-0.42
-0.405
-0.39
-0.375
-0.38
-0.39
-0.4
-0.415
-0.425
-0.435
-0.45
-0.435
-0.405
-0.385
-0.375
-0.385
-0.375
-0.355
-0.36
-0.38
-0.385
-0.385
-0.375
-0.36
-0.34
-0.32
-0.29
-0.265
-0.25
-0.235
-0.225
-0.21
-0.205
-0.2
-0.205
-0.2
-0.215
-0.23
-0.24
-0.255
-0.275
-0.295
-0.32
-0.35
-0.37
-0.385
-0.39
-0.41
-0.425
-0.43
-0.43
-0.425
-0.43
-0.46
-0.48
-0.495
-0.51
-0.51
-0.49
-0.475
-0.47
-0.47
-0.475
-0.485
-0.485
-0.495
-0.525
-0.52
-0.535
-0.5
-0.45
-0.36
-0.23
-0.085
0.115
0.33
0.575
0.825
1.015
1.115
1.135
1.025
0.82
0.565
0.27
-0.005
-0.215
-0.37
-0.42
-0.445
-0.45
-0.44
-0.445
-0.465
-0.49
-0.515
-0.535
-0.55
-0.535
-0.54
-0.535
-0.555
-0.555
-0.575
-0.585
-0.585
-0.595
-0.585
-0.58
-0.58
-0.575
-0.57
-0.565
-0.56
-0.57
-0.59
-0.605
-0.61
-0.595
-0.585
-0.58
-0.575
-0.575
-0.565
-0.565
-0.555
-0.55
-0.555
-0.58
-0.58
-0.59
-0.6
-0.585
-0.565
-0.54
-0.54
-0.545
-0.555
-0.57
-0.575
-0.585
-0.575
-0.565
-0.56
-0.535
-0.53
-0.535
-0.53
-0.525
-0.53
-0.55
-0.555
-0.57
-0.57
-0.575
-0.56
-0.53
-0.535
-0.52
-0.545
-0.545
-0.545
-0.535
-0.535
-0.52
-0.51
-0.485
-0.475
-0.45
-0.435
-0.425
-0.425
-0.42
-0.42
-0.42
-0.41
-0.41
-0.395
-0.385
-0.37
-0.35
-0.34
-0.34
-0.34
-0.35
-0.35
-0.375
-0.39
-0.41
-0.42
-0.425
-0.44
-0.425
-0.41
-0.4
-0.41
-0.41
-0.435
-0.46
-0.465
-0.45
-0.445
-0.445
-0.435
-0.44
-0.46
-0.455
-0.445
-0.44
-0.435
-0.43
-0.435
-0.45
-0.47
-0.49
-0.49
-0.47
-0.445
-0.425
-0.42
-0.43
-0.43
-0.435
-0.44
-0.445
-0.465
-0.475
-0.495
-0.5
-0.49
-0.47
-0.455
-0.45
-0.465
-0.465
-0.485
-0.49
-0.485
-0.505
-0.505
-0.485
-0.47
-0.455
-0.45
-0.465
-0.465
-0.455
-0.455
-0.46
-0.46
-0.445
-0.435
-0.425
-0.44
-0.43
-0.405
-0.385
-0.365
-0.35
-0.35
-0.315
-0.295
-0.285
-0.28
-0.28
-0.29
-0.295
-0.29
-0.29
-0.28
-0.29
-0.32
-0.335
-0.365
-0.42
-0.43
-0.45
-0.455
-0.465
-0.47
-0.485
-0.5
-0.51
-0.52
-0.535
-0.535
-0.53
-0.535
-0.54
-0.55
-0.54
-0.545
-0.535
-0.54
-0.55
-0.555
-0.57
-0.575
-0.56
-0.535
-0.465
-0.35
-0.21
-0.025
0.17
0.39
0.62
0.83
1.01
1.105
1.08
0.93
0.695
0.39
0.085
-0.185
-0.385
-0.49
-0.53
-0.515
-0.495
-0.495
-0.5
-0.525
-0.555
-0.585
-0.595
-0.605
-0.595
-0.59
-0.59
-0.605
-0.62
-0.64
-0.625
-0.625
-0.62
-0.62
-0.61
-0.62
-0.615
-0.62
-0.615
-0.62
-0.63
-0.615
-0.625
-0.625
-0.61
-0.61
-0.59
-0.58
-0.565
-0.57
-0.585
-0.605
-0.615
-0.63
-0.62
-0.605
-0.6
-0.59
-0.595
-0.595
-0.59
-0.585
-0.585
-0.585
-0.59
-0.595
-0.585
-0.575
-0.57
-0.58
-0.59
-0.595
-0.595
-0.595
-0.585
-0.575
-0.575
-0.575
-0.57
-0.59
-0.565
-0.56
-0.555
-0.565
-0.57
-0.56
-0.545
-0.56
-0.555
-0.54
-0.53
-0.515
-0.49
-0.47
-0.46
-0.455
-0.45
-0.435
-0.425
-0.405
-0.405
-0.385
-0.395
-0.375
-0.37
-0.36
-0.355
-0.375
-0.385
-0.385
-0.39
-0.375
-0.385
-0.395
-0.41
-0.42
-0.415
-0.435
-0.435
-0.44
-0.44
-0.44
-0.445
-0.445
-0.445
-0.455
-0.45
-0.455
-0.465
-0.44
-0.42
-0.41
-0.415
-0.43
-0.435
-0.445
-0.465
-0.46
-0.445
-0.455
-0.46
-0.46
-0.455
-0.46
-0.46
-0.46
-0.455
-0.465
-0.475
-0.48
-0.485
-0.495
-0.5
-0.48
-0.475
-0.46
-0.445
-0.435
-0.45
-0.47
-0.475
-0.48
-0.475
-0.485
-0.485
-0.485
-0.475
-0.475
-0.46
-0.46
-0.455
-0.47
-0.475
-0.475
-0.465
-0.445
-0.435
-0.425
-0.43
-0.4
-0.405
-0.39
-0.38
-0.365
-0.365
-0.36
-0.365
-0.34
-0.325
-0.3
-0.265
-0.235
-0.235
-0.22
-0.23
-0.255
-0.27
-0.295
-0.315
-0.325
-0.335
-0.33
-0.335
-0.355
-0.385
-0.43
-0.455
-0.47
-0.5
-0.505
-0.51
-0.485
-0.46
-0.46
-0.455
-0.495
-0.505
-0.515
-0.515
-0.505
-0.48
-0.48
-0.495
-0.495
-0.51
-0.52
-0.52
-0.5
-0.475
-0.4
-0.315
-0.165
0.015
0.245
0.5
0.755
0.975
1.1
1.15
1.07
0.9
0.645
0.33
0.015
-0.235
-0.42
-0.48
-0.49
-0.46
-0.435
-0.415
-0.42
-0.445
-0.475
-0.52
-0.56
-0.585
-0.59
-0.595
-0.58
-0.565
-0.565
-0.56
-0.565
-0.565
-0.565
-0.57
-0.575
-0.57
-0.585
-0.585
-0.59
-0.595
-0.595
-0.58
-0.58
-0.57
-0.575
-0.565
-0.57
-0.57
-0.585
-0.59
-0.585
-0.59
-0.57
-0.57
-0.555
-0.54
-0.535
-0.535
-0.56
-0.575
-0.57
-0.57
-0.555
-0.57
-0.545
-0.545
-0.555
-0.54
-0.55
-0.545
-0.555
-0.555
-0.545
-0.53
-0.525
-0.515
-0.51
-0.515
-0.53
-0.54
-0.54
-0.52
-0.5
-0.51
-0.5
-0.51
-0.505
-0.495
-0.475
-0.485
-0.475
-0.465
-0.46
-0.46
-0.45
-0.45
-0.425
-0.415
-0.41
-0.39
-0.385
-0.37
-0.36
-0.355
-0.345
-0.335
-0.315
-0.32
-0.315
-0.315
-0.335
-0.345
-0.37
-0.365
-0.36
-0.355
-0.35
-0.345
-0.35
-0.365
-0.38
-0.395
-0.41
-0.4
-0.405
-0.39
-0.395
-0.41
-0.415
-0.415
-0.4
-0.385
-0.4
-0.395
-0.39
-0.4
-0.385
-0.385
-0.375
-0.395
-0.405
-0.415
-0.43
-0.44
-0.45
-0.44
-0.42
-0.405
-0.39
-0.375
-0.37
-0.395
-0.415
-0.43
-0.435
-0.43
-0.435
-0.415
-0.42
-0.395
-0.395
-0.4
-0.41
-0.42
-0.41
-0.42
-0.425
-0.455
-0.46
-0.465
-0.455
-0.44
-0.41
-0.39
-0.405
-0.41
-0.44
-0.455
-0.455
-0.45
-0.42
-0.39
-0.375
-0.365
-0.36
-0.355
-0.35
-0.355
-0.345
-0.335
-0.335
-0.335
-0.315
-0.29
-0.255
-0.23
-0.215
-0.205
-0.225
-0.225
-0.245
-0.265
-0.265
-0.29
-0.295
-0.3
-0.315
-0.345
-0.355
-0.38
-0.39
-0.4
-0.405
-0.405
-0.435
-0.455
-0.475
-0.48
-0.47
-0.45
-0.445
-0.45
-0.45
-0.455
-0.475
-0.49
-0.485
-0.49
-0.47
-0.435
-0.365
-0.26
-0.115
0.1
0.325
0.575
0.845
1.05
1.165
1.135
0.995
0.77
0.46
0.15
-0.13
-0.325
-0.455
-0.495
-0.49
-0.455
-0.445
-0.455
-0.47
-0.475
-0.5
-0.51
-0.52
-0.515
-0.52
-0.525
-0.525
-0.53
-0.535
-0.535
-0.535
-0.54
-0.54
-0.555
-0.55
-0.525
-0.52
-0.505
-0.49
-0.49
-0.5
-0.52
-0.545
-0.57
-0.555
-0.54
-0.52
-0.505
-0.505
-0.52
-0.51
-0.52
-0.51
-0.505
-0.515
-0.52
-0.525
-0.525
-0.51
-0.495
-0.49
-0.48
-0.475
-0.49
-0.505
-0.515
-0.525
-0.52
-0.51
-0.495
-0.485
-0.47
-0.47
-0.475
-0.48
-0.485
-0.475
-0.48
-0.48
-0.47
-0.46
-0.475
-0.485
-0.485
-0.465
-0.445
-0.42
-0.42
-0.405
-0.39
-0.39
-0.375
-0.37
-0.36
-0.355
-0.35
-0.34
-0.33
-0.31
-0.29
-0.28
-0.26
-0.265
-0.255
-0.255
-0.265
-0.25
-0.235
-0.24
-0.245
-0.26
-0.26
-0.295
-0.3
-0.315
-0.3
-0.295
-0.28
-0.27
-0.28
-0.29
-0.32
-0.335
-0.35
-0.345
-0.345
-0.335
-0.325
-0.315
-0.305
-0.3
-0.295
-0.3
-0.32
-0.335
-0.335
-0.34
-0.355
-0.36
-0.36
-0.35
-0.35
-0.34
-0.32
-0.315
-0.305
-0.305
-0.32
-0.345
-0.375
-0.38
-0.38
-0.375
-0.37
-0.345
-0.315
-0.31
-0.31
-0.32
-0.345
-0.355
-0.37
-0.365
-0.365
-0.36
-0.335
-0.315
-0.3
-0.31
-0.32
-0.335
-0.37
-0.37
-0.36
-0.355
-0.335
-0.315
-0.315
-0.315
-0.31
-0.305
-0.3
-0.305
-0.295
-0.28
-0.27
-0.26
-0.24
-0.225
-0.215
-0.21
-0.2
-0.175
-0.16
-0.135
-0.12
-0.11
-0.12
-0.13
-0.14
-0.155
-0.155
-0.16
-0.155
-0.155
-0.185
-0.185
-0.245
-0.28
-0.305
-0.32
-0.32
-0.335
-0.32
-0.325
-0.32
-0.325
-0.325
-0.335
-0.34
-0.35
-0.35
-0.36
-0.37
-0.37
-0.37
-0.385
-0.375
-0.37
-0.38
-0.37
-0.345
-0.28
-0.19
-0.055
0.125
0.355
0.59
0.835
1.06
1.235
1.29
1.23
1.06
0.8
0.48
0.175
-0.075
-0.235
-0.305
-0.315
-0.29
-0.265
-0.24
-0.25
-0.275
-0.305
-0.35
-0.375
-0.395
-0.4
-0.395
-0.4
-0.41
-0.415
-0.41
-0.4
-0.38
-0.385
-0.39
-0.395
-0.4
-0.39
-0.4
-0.395
-0.395
-0.395
-0.385
-0.375
-0.37
-0.375
-0.39
-0.4
-0.395
-0.385
-0.36
-0.35
-0.34
-0.355
-0.355
-0.35
-0.345
-0.34
-0.34
-0.35
-0.36
-0.38
-0.345
-0.33
-0.31
-0.295
-0.315
-0.325
-0.345
-0.345
-0.34
-0.315
-0.29
-0.275
-0.275
-0.27
-0.28
-0.31
-0.305
-0.315
-0.315
-0.31
-0.31
-0.31
-0.305
-0.29
-0.265
-0.235
-0.225
-0.205
-0.215
-0.21
-0.215
-0.21
-0.205
-0.19
-0.185
-0.165
-0.155
-0.15
-0.14
-0.125
-0.105
-0.075
-0.065
-0.05
-0.05
-0.055
-0.06
-0.065
-0.065
-0.07
-0.065
-0.06
-0.055
-0.075
-0.095
-0.115
-0.14
-0.13
-0.135
-0.14
-0.135
-0.13
-0.13
-0.12
-0.11
-0.11
-0.125
-0.13
-0.14
-0.13
-0.12
-0.115
-0.105
-0.105
-0.095
-0.105
-0.105
-0.12
-0.15
-0.16
-0.15
-0.135
-0.125
-0.12
-0.11
-0.11
-0.095
-0.095
-0.095
-0.1
-0.11
-0.125
-0.145
-0.145
-0.13
-0.11
-0.08
-0.065
-0.065
-0.07
-0.085
-0.095
-0.1
-0.115
-0.135
-0.12
-0.115
-0.1
-0.1
-0.085
-0.09
-0.105
-0.105
-0.1
-0.09
-0.09
-0.095
-0.105
-0.11
-0.105
-0.095
-0.08
-0.065
-0.04
-0.035
-0.015
-0.02
-0.005
0.0
-0.01
-0.005
0.005
0.015
0.035
0.07
0.09
0.12
0.145
0.155
0.155
0.145
0.115
0.095
0.055
0.055
0.055
0.055
0.05
0.045
0.02
-0.01
-0.035
-0.07
-0.095
-0.1
-0.09
-0.09
-0.075
-0.085
-0.075
-0.085
-0.095
-0.1
-0.13
-0.14
-0.13
-0.11
-0.1
-0.085
-0.09
-0.1
-0.11
-0.135
-0.135
-0.13
-0.09
-0.01
0.095
0.235
0.405
0.62
0.88
1.115
1.34
1.495
1.55
1.46
1.28
1.035
0.74
0.44
0.185
0.02
-0.08
-0.09
-0.07
-0.025
0.0
-0.005
-0.025
-0.065
-0.11
-0.14
-0.135
-0.145
-0.165
-0.155
-0.15
-0.15
-0.13
-0.13
-0.13
-0.14
-0.135
-0.135
-0.135
-0.145
-0.14
-0.13
-0.145
-0.16
-0.155
-0.135
-0.14
-0.135
-0.14
-0.125
-0.125
-0.11
-0.105
-0.1
-0.085
-0.08
-0.09
-0.08
-0.085
-0.085
-0.08
-0.09
-0.08
-0.09
-0.08
-0.09
-0.065
-0.065
-0.06
-0.08
-0.09
-0.115
-0.11
-0.11
-0.08
-0.065
-0.035
-0.035
-0.03
-0.035
-0.04
-0.04
-0.06
-0.065
-0.055
-0.045
-0.045
-0.04
-0.03
-0.01
0.01
0.02
0.035
0.035
0.045
0.045
0.05
0.06
0.085
0.12
0.14
0.145
0.16
0.16
0.16
0.17
0.18
0.205
0.19
0.185
0.165
0.145
0.15
0.15
0.16
0.15
0.14
0.13
0.125
0.12
0.11
0.1
0.1
0.105
0.125
0.13
0.135
0.135
0.13
0.145
0.135
0.135
0.115
0.115
0.095
0.11
0.115
0.125
0.13
0.13
0.135
0.115
0.1
0.09
0.09
0.095
0.11
0.12
0.13
0.14
0.145
0.15
0.145
0.13
0.12
0.11
0.11
0.12
0.125
0.135
0.135
0.135
0.115
0.105
0.13
0.13
0.135
0.13
0.13
0.13
0.12
0.115
0.12
0.14
0.145
0.16
0.17
0.17
0.18
0.185
0.19
0.22
0.25
0.26
0.26
0.27
0.275
0.295
0.315
0.335
0.36
0.365
0.365
0.345
0.335
0.35
0.34
0.34
0.33
0.31
0.29
0.265
0.245
0.23
0.2
0.205
0.195
0.2
0.185
0.17
0.145
0.135
0.12
0.115
0.115
0.09
0.105
0.095
0.11
0.11
0.13
0.135
0.145
0.135
0.125
0.11
0.095
0.115
0.155
0.255
0.395
0.585
0.81
1.045
1.27
1.485
1.65
1.71
1.64
1.49
1.24
0.965
0.685
0.44
0.27
0.18
0.16
0.165
0.185
0.205
0.2
0.17
0.125
0.1
0.09
0.085
0.08
0.08
0.075
0.055
0.065
0.05
0.055
0.035
0.055
0.06
0.06
0.065
0.07
0.07
0.08
0.065
0.07
0.065
0.07
0.065
0.065
0.065
0.07
0.095
0.1
0.105
0.115
0.11
0.105
0.1
0.09
0.09
0.09
0.105
0.115
0.11
0.11
0.115
0.12
0.11
0.115
0.11
0.13
0.105
0.125
0.13
0.125
0.135
0.135
0.15
0.155
0.165
0.175
0.17
0.17
0.15
0.135
0.135
0.13
0.145
0.155
0.15
0.165
0.175
0.19
0.195
0.21
0.215
0.21
0.21
0.205
0.235
0.25
0.28
0.32
0.33
0.34
0.365
0.37
0.355
0.355
0.34
0.33
0.325
0.32
0.325
0.315
0.325
0.31
0.3
0.305
0.28
0.28
0.28
0.28
0.295
0.295
0.305
0.285
0.27
0.265
0.27
0.28
0.28
0.285
0.275
0.27
0.275
0.275
0.29
0.275
0.265
0.25
0.235
0.25
0.26
0.26
0.265
0.275
0.285
0.295
0.285
0.295
0.28
0.27
0.265
0.27
0.25
0.245
0.255
0.265
0.28
0.285
0.275
0.275
0.255
0.255
0.265
0.27
0.25
0.26
0.285
0.29
0.3
0.3
0.275
0.285
0.28
0.29
0.295
0.295
0.3
0.315
0.32
0.335
0.34
0.355
0.37
0.4
0.435
0.45
0.465
0.48
0.47
0.455
0.425
0.415
0.41
0.415
0.44
0.44
0.43
0.395
0.375
0.345
0.32
0.305
0.285
0.265
0.27
0.265
0.27
0.26
0.225
0.205
0.165
0.17
0.16
0.185
0.19
0.2
0.2
0.215
0.215
0.22
0.205
0.205
0.19
0.195
0.22
0.265
0.36
0.5
0.675
0.9
1.145
1.405
1.62
1.735
1.73
1.605
1.37
1.055
0.735
0.455
0.275
0.19
0.17
0.2
0.225
0.25
0.245
0.23
0.205
0.185
0.175
0.15
0.125
0.12
0.13
0.14
0.145
0.14
0.135
0.13
0.125
0.12
0.125
0.13
0.145
0.155
0.155
0.145
0.13
0.135
0.14
0.13
0.12
0.11
0.095
0.11
0.12
0.135
0.16
0.15
0.14
0.135
0.125
0.135
0.15
0.16
0.165
0.17
0.17
0.15
0.155
0.16
0.165
0.16
0.155
0.14
0.14
0.135
0.135
0.155
0.165
0.18
0.175
0.15
0.145
0.17
0.195
0.215
0.23
0.23
0.24
0.23
0.22
0.215
0.215
0.215
0.215
0.225
0.23
0.25
0.28
0.275
0.295
0.315
0.345
0.355
0.35
0.35
0.35
0.35
0.35
0.355
0.35
0.36
0.365
0.36
0.35
0.345
0.335
0.315
0.315
0.32
0.31
0.32
0.33
0.33
0.33
0.335
0.325
0.31
0.305
0.29
0.285
0.31
0.355
0.36
0.37
0.34
0.305
0.28
0.27
0.295
0.33
0.33
0.31
0.295
0.27
0.275
0.28
0.315
0.345
0.34
0.335
0.295
0.275
0.265
0.275
0.295
0.305
0.305
0.295
0.285
0.285
0.3
0.315
0.315
0.31
0.305
0.3
0.3
0.32
0.325
0.33
0.33
0.32
0.34
0.33
0.33
0.32
0.305
0.3
0.33
0.34
0.365
0.385
0.39
0.385
0.39
0.41
0.43
0.445
0.475
0.485
0.52
0.515
0.515
0.52
0.505
0.49
0.465
0.46
0.46
0.47
0.465
0.435
0.425
0.39
0.35
0.325
0.305
0.295
0.285
0.28
0.265
0.26
0.27
0.295
0.31
0.31
0.32
0.305
0.28
0.28
0.285
0.29
0.29
0.29
0.295
0.29
0.3
0.32
0.35
0.43
0.535
0.68
0.89
1.135
1.395
1.64
1.805
1.87
1.845
1.705
1.45
1.17
0.865
0.605
0.4
0.24
0.155
0.14
0.18
0.23
0.29
0.315
0.335
0.315
0.28
0.24
0.225
0.22
0.225
0.23
0.235
0.215
0.19
0.18
0.185
0.2
0.215
0.21
0.21
0.2
0.195
0.19
0.2
0.205
0.205
0.185
0.19
0.195
0.19
0.22
0.225
0.23
0.23
0.23
0.22
0.215
0.23
0.24
0.245
0.265
0.255
0.23
0.2
0.195
0.2
0.24
0.255
0.29
0.3
0.305
0.295
0.26
0.24
0.245
0.26
0.26
0.29
0.305
0.315
0.305
0.28
0.255
0.235
0.23
0.24
0.27
0.29
0.3
0.3
0.3
0.305
0.315
0.32
0.35
0.35
0.345
0.33
0.33
0.315
0.32
0.335
0.37
0.385
0.4
0.41
0.405
0.415
0.41
0.4
0.405
0.415
0.43
0.44
0.435
0.445
0.435
0.425
0.425
0.4
0.38
0.35
0.34
0.35
0.35
0.355
0.35
0.37
0.37
0.355
0.34
0.33
0.34
0.35
0.34
0.315
0.295
0.3
0.315
0.33
0.36
0.36
0.375
0.355
0.33
0.28
0.27
0.28
0.31
0.355
0.39
0.38
0.36
0.32
0.26
0.24
0.24
0.255
0.295
0.315
0.33
0.335
0.335
0.325
0.31
0.295
0.28
0.255
0.235
0.235
0.245
0.28
0.32
0.345
0.37
0.355
0.34
0.3
0.26
0.23
0.225
0.24
0.275
0.32
0.34
0.335
0.33
0.325
0.3
0.295
0.3
0.32
0.355
0.39
0.425
0.45
0.46
0.455
0.445
0.43
0.415
0.4
0.365
0.355
0.35
0.375
0.385
0.4
0.395
0.38
0.35
0.33
0.285
0.255
0.215
0.175
0.135
0.115
0.11
0.115
0.125
0.14
0.16
0.175
0.165
0.165
0.14
0.14
0.135
0.135
0.125
0.095
0.065
0.05
0.04
0.05
0.075
0.13
0.19
0.265
0.4
0.55
0.765
1.0
1.225
1.45
1.59
1.645
1.595
1.45
1.225
0.955
0.665
0.405
0.195
0.025
-0.08
-0.145
-0.135
-0.085
-0.02
0.035
0.055
0.05
0.01
-0.015
-0.07
-0.13
-0.145
-0.145
-0.14
-0.135
-0.12
-0.1
-0.075
-0.05
-0.05
-0.04
-0.045
-0.04
-0.04
-0.035
-0.055
-0.07
-0.1
-0.11
-0.115
-0.12
-0.14
-0.125
-0.105
-0.105
-0.09
-0.095
-0.1
-0.08
-0.05
-0.035
-0.055
-0.065
-0.09
-0.115
-0.125
-0.13
-0.115
-0.095
-0.085
-0.095
-0.09
-0.085
-0.09
-0.09
-0.095
-0.12
-0.14
-0.135
-0.12
-0.1
-0.08
-0.08
-0.09
-0.09
-0.095
-0.095
-0.115
-0.135
-0.135
-0.13
-0.115
-0.08
-0.065
-0.06
-0.07
-0.07
-0.095
-0.115
-0.12
-0.11
-0.09
-0.05
-0.015
-0.005
-0.01
-0.005
-0.005
0.02
0.01
-0.01
-0.04
-0.035
-0.01
