Lead II
-0.28
-0.28
-0.315
-0.355
-0.4
-0.42
-0.44
-0.465
-0.54
-0.57
-0.565
-0.535
-0.465
-0.395
-0.3
-0.205
-0.085
0.08
0.315
0.605
0.855
0.99
1.005
0.815
0.445
0.045
-0.275
-0.39
-0.38
-0.32
-0.285
-0.275
-0.285
-0.3
-0.305
-0.3
-0.29
-0.28
-0.295
-0.3
-0.305
-0.32
-0.305
-0.295
-0.3
-0.3
-0.305
-0.31
-0.295
-0.28
-0.285
-0.285
-0.31
-0.3
-0.29
-0.285
-0.285
-0.29
-0.3
-0.305
-0.3
-0.295
-0.29
-0.3
-0.31
-0.31
-0.3
-0.28
-0.29
-0.285
-0.285
-0.295
-0.285
-0.28
-0.275
-0.29
-0.295
-0.295
-0.295
-0.275
-0.275
-0.285
-0.295
-0.295
-0.28
-0.265
-0.275
-0.29
-0.295
-0.305
-0.3
-0.285
-0.295
-0.315
-0.315
-0.315
-0.315
-0.295
-0.295
-0.295
-0.31
-0.31
-0.31
-0.295
-0.3
-0.31
-0.32
-0.32
-0.31
-0.3
-0.29
-0.295
-0.315
-0.31
-0.31
-0.295
-0.295
-0.315
-0.3
-0.305
-0.305
-0.295
-0.305
-0.31
-0.325
-0.32
-0.31
-0.295
-0.285
-0.3
-0.29
-0.275
-0.245
-0.22
-0.215
-0.22
-0.22
-0.22
-0.2
-0.175
-0.18
-0.195
-0.195
-0.2
-0.185
-0.175
-0.18
-0.19
-0.215
-0.22
-0.22
-0.2
-0.2
-0.205
-0.205
-0.21
-0.195
-0.19
-0.195
-0.205
-0.225
-0.205
-0.205
-0.19
-0.185
-0.2
-0.21
-0.215
-0.215
-0.215
-0.23
-0.225
-0.24
-0.245
-0.23
-0.22
-0.225
-0.235
-0.24
-0.245
-0.255
-0.25
-0.25
-0.26
-0.28
-0.265
-0.25
-0.245
-0.25
-0.26
-0.28
-0.28
-0.27
-0.27
-0.265
-0.265
-0.285
-0.28
-0.27
-0.255
-0.265
-0.27
-0.275
-0.285
-0.28
-0.27
-0.27
-0.28
-0.285
-0.29
-0.28
-0.27
-0.27
-0.27
-0.275
-0.27
-0.275
-0.255
-0.27
-0.28
-0.285
-0.285
-0.26
-0.245
-0.24
-0.245
-0.235
-0.24
-0.225
-0.215
-0.22
-0.215
-0.22
-0.225
-0.215
-0.19
-0.19
-0.19
-0.19
-0.175
-0.17
-0.155
-0.165
-0.175
-0.175
-0.195
-0.19
-0.18
-0.18
-0.195
-0.205
-0.215
-0.19
-0.18
-0.17
-0.19
-0.225
-0.245
-0.26
-0.265
-0.285
-0.295
-0.295
-0.305
-0.29
-0.29
-0.295
-0.305
-0.315
-0.315
-0.31
-0.29
-0.31
-0.315
-0.315
-0.325
-0.325
-0.31
-0.32
-0.32
-0.335
-0.345
-0.33
-0.325
-0.33
-0.36
-0.395
-0.41
-0.41
-0.425
-0.485
-0.515
-0.505
-0.42
-0.285
-0.145
0.0
0.175
0.395
0.61
0.8
0.925
1.03
1.055
0.955
0.765
0.475
0.165
-0.11
-0.315
-0.435
-0.465
-0.445
-0.41
-0.37
-0.365
-0.375
-0.375
-0.37
-0.35
-0.355
-0.36
-0.37
-0.37
-0.37
-0.37
-0.38
-0.39
-0.4
-0.395
-0.39
-0.365
-0.39
-0.395
-0.395
-0.39
-0.385
-0.375
-0.395
-0.41
-0.42
-0.415
-0.39
-0.37
-0.395
-0.385
-0.39
-0.4
-0.4
-0.395
-0.415
-0.395
-0.4
-0.41
-0.395
-0.38
-0.39
-0.395
-0.415
-0.41
-0.395
-0.385
-0.4
-0.41
-0.425
-0.42
-0.405
-0.395
-0.405
-0.43
-0.445
-0.44
-0.405
-0.395
-0.39
-0.395
-0.4
-0.405
-0.41
-0.395
-0.4
-0.41
-0.435
-0.42
-0.42
-0.405
-0.42
-0.425
-0.435
-0.445
-0.435
-0.415
-0.42
-0.425
-0.45
-0.455
-0.46
-0.46
-0.46
-0.455
-0.465
-0.465
-0.465
-0.46
-0.48
-0.485
-0.49
-0.485
-0.47
-0.445
-0.435
-0.435
-0.435
-0.43
-0.415
-0.395
-0.395
-0.4
-0.385
-0.38
-0.36
-0.335
-0.315
-0.295
-0.295
-0.305
-0.315
-0.295
-0.285
-0.3
-0.305
-0.305
-0.3
-0.28
-0.285
-0.285
-0.305
-0.305
-0.295
-0.275
-0.275
-0.285
-0.295
-0.3
-0.295
-0.29
-0.29
-0.31
-0.305
-0.31
-0.305
-0.305
-0.315
-0.33
-0.33
-0.33
-0.32
-0.305
-0.31
-0.32
-0.325
-0.325
-0.305
-0.285
-0.295
-0.305
-0.305
-0.32
-0.315
-0.325
-0.33
-0.34
-0.335
-0.335
-0.315
-0.31
-0.32
-0.315
-0.335
-0.35
-0.34
-0.33
-0.34
-0.345
-0.345
-0.345
-0.335
-0.335
-0.33
-0.34
-0.35
-0.34
-0.335
-0.315
-0.325
-0.32
-0.325
-0.325
-0.33
-0.31
-0.34
-0.34
-0.325
-0.325
-0.325
-0.315
-0.31
-0.325
-0.34
-0.34
-0.33
-0.325
-0.32
-0.325
-0.34
-0.34
-0.325
-0.315
-0.315
-0.32
-0.325
-0.33
-0.31
-0.295
-0.29
-0.29
-0.285
-0.27
-0.255
-0.24
-0.25
-0.25
-0.255
-0.24
-0.235
-0.21
-0.21
-0.205
-0.215
-0.22
-0.215
-0.2
-0.225
-0.24
-0.245
-0.245
-0.235
-0.225
-0.245
-0.255
-0.245
-0.225
-0.215
-0.22
-0.25
-0.27
-0.295
-0.31
-0.325
-0.315
-0.32
-0.325
-0.345
-0.34
-0.345
-0.335
-0.335
-0.34
-0.345
-0.355
-0.335
-0.33
-0.325
-0.335
-0.34
-0.34
-0.335
-0.325
-0.33
-0.33
-0.345
-0.345
-0.34
-0.33
-0.345
-0.375
-0.42
-0.455
-0.445
-0.44
-0.445
-0.475
-0.535
-0.585
-0.57
-0.53
-0.46
-0.375
-0.245
-0.095
0.105
0.335
0.59
0.81
0.955
1.0
0.89
0.625
0.19
-0.17
-0.375
-0.445
-0.42
-0.38
-0.355
-0.35
-0.365
-0.365
-0.35
-0.345
-0.35
-0.355
-0.365
-0.37
-0.37
-0.355
-0.365
-0.37
-0.37
-0.37
-0.35
-0.34
-0.35
-0.35
-0.36
-0.36
-0.355
-0.34
-0.335
-0.34
-0.345
-0.345
-0.345
-0.34
-0.345
-0.35
-0.36
-0.365
-0.36
-0.335
-0.34
-0.365
-0.36
-0.37
-0.36
-0.345
-0.36
-0.37
-0.365
-0.365
-0.36
-0.35
-0.37
-0.355
-0.36
-0.37
-0.355
-0.34
-0.355
-0.355
-0.365
-0.365
-0.37
-0.345
-0.345
-0.35
-0.365
-0.36
-0.365
-0.35
-0.355
-0.36
-0.37
-0.37
-0.36
-0.355
-0.365
-0.375
-0.375
-0.385
-0.37
-0.36
-0.365
-0.355
-0.375
-0.38
-0.38
-0.37
-0.375
-0.39
-0.4
-0.405
-0.39
-0.395
-0.395
-0.405
-0.41
-0.42
-0.41
-0.395
-0.4
-0.4
-0.41
-0.405
-0.38
-0.37
-0.37
-0.36
-0.36
-0.355
-0.325
-0.295
-0.29
-0.28
-0.28
-0.26
-0.245
-0.235
-0.235
-0.235
-0.24
-0.225
-0.22
-0.21
-0.205
-0.215
-0.22
-0.22
-0.21
-0.195
-0.21
-0.225
-0.24
-0.245
-0.235
-0.22
-0.225
-0.23
-0.24
-0.24
-0.225
-0.21
-0.215
-0.225
-0.225
-0.24
-0.23
-0.225
-0.21
-0.225
-0.235
-0.235
-0.225
-0.21
-0.22
-0.23
-0.245
-0.24
-0.235
-0.23
-0.23
-0.245
-0.25
-0.26
-0.255
-0.245
-0.255
-0.255
-0.26
-0.26
-0.255
-0.25
-0.255
-0.255
-0.25
-0.27
-0.25
-0.245
-0.265
-0.255
-0.255
-0.265
-0.265
-0.245
-0.255
-0.265
-0.28
-0.28
-0.275
-0.26
-0.265
-0.27
-0.28
-0.285
-0.28
-0.27
-0.255
-0.265
-0.28
-0.27
-0.27
-0.25
-0.26
-0.26
-0.27
-0.28
-0.265
-0.25
-0.26
-0.26
-0.275
-0.28
-0.265
-0.255
-0.265
-0.265
-0.27
-0.27
-0.265
-0.245
-0.25
-0.26
-0.26
-0.265
-0.245
-0.225
-0.215
-0.215
-0.21
-0.2
-0.2
-0.18
-0.18
-0.19
-0.18
-0.17
-0.155
-0.135
-0.145
-0.155
-0.15
-0.16
-0.17
-0.165
-0.165
-0.165
-0.175
-0.17
-0.175
-0.16
-0.16
-0.14
-0.135
-0.15
-0.175
-0.195
-0.205
-0.23
-0.25
-0.28
-0.27
-0.26
-0.27
-0.275
-0.275
-0.275
-0.26
-0.255
-0.26
-0.28
-0.285
-0.275
-0.28
-0.275
-0.27
-0.285
-0.285
-0.29
-0.28
-0.295
-0.285
-0.29
-0.3
-0.305
-0.295
-0.295
-0.3
-0.32
-0.35
-0.405
-0.42
-0.43
-0.46
-0.49
-0.475
-0.345
-0.17
0.02
0.235
0.5
0.77
1.0
1.14
1.135
0.93
0.535
0.06
-0.28
-0.42
-0.4
-0.335
-0.31
-0.31
-0.325
-0.325
-0.315
-0.32
-0.33
-0.33
-0.33
-0.33
-0.32
-0.33
-0.335
-0.34
-0.345
-0.335
-0.325
-0.32
-0.325
-0.335
-0.34
-0.34
-0.33
-0.335
-0.345
-0.35
-0.355
-0.345
-0.345
-0.335
-0.35
-0.35
-0.35
-0.34
-0.325
-0.335
-0.345
-0.34
-0.345
-0.335
-0.33
-0.335
-0.335
-0.355
-0.34
-0.33
-0.32
-0.325
-0.335
-0.335
-0.34
-0.33
-0.315
-0.34
-0.35
-0.36
-0.355
-0.35
-0.34
-0.34
-0.35
-0.365
-0.365
-0.335
-0.33
-0.325
-0.34
-0.345
-0.35
-0.34
-0.335
-0.33
-0.345
-0.355
-0.36
-0.35
-0.35
-0.345
-0.365
-0.375
-0.37
-0.36
-0.37
-0.355
-0.355
-0.36
-0.375
-0.355
-0.35
-0.345
-0.35
-0.37
-0.36
-0.35
-0.355
-0.34
-0.34
-0.335
-0.335
-0.33
-0.3
-0.29
-0.295
-0.285
-0.275
-0.265
-0.25
-0.245
-0.24
-0.24
-0.26
-0.24
-0.225
-0.22
-0.225
-0.245
-0.24
-0.225
-0.22
-0.215
-0.225
-0.235
-0.22
-0.22
-0.21
-0.21
-0.22
-0.245
-0.23
-0.225
-0.215
-0.22
-0.235
-0.24
-0.255
-0.24
-0.24
-0.22
-0.245
-0.245
-0.255
-0.245
-0.235
-0.24
-0.265
-0.26
-0.255
-0.25
-0.235
-0.235
-0.245
-0.255
-0.255
-0.25
-0.245
-0.255
-0.255
-0.27
-0.27
-0.265
-0.26
-0.26
-0.275
-0.28
-0.29
-0.285
-0.275
-0.28
-0.29
-0.295
-0.305
-0.3
-0.285
-0.29
-0.3
-0.3
-0.295
-0.29
-0.29
-0.285
-0.29
-0.295
-0.3
-0.29
-0.275
-0.27
-0.29
-0.3
-0.3
-0.285
-0.275
-0.28
-0.28
-0.285
-0.28
-0.28
-0.27
-0.275
-0.285
-0.295
-0.3
-0.285
-0.285
-0.28
-0.29
-0.305
-0.29
-0.285
-0.27
-0.265
-0.265
-0.26
-0.255
-0.23
-0.215
-0.21
-0.21
-0.21
-0.21
-0.195
-0.18
-0.175
-0.17
-0.165
-0.17
-0.16
-0.16
-0.17
-0.18
-0.2
-0.2
-0.195
-0.18
-0.185
-0.185
-0.185
-0.185
-0.145
-0.145
-0.155
-0.19
-0.225
-0.24
-0.245
-0.25
-0.265
-0.285
-0.29
-0.315
-0.305
-0.3
-0.3
-0.31
-0.32
-0.315
-0.31
-0.305
-0.31
-0.305
-0.32
-0.325
-0.305
-0.29
-0.3
-0.305
-0.32
-0.315
-0.3
-0.285
-0.285
-0.3
-0.31
-0.315
-0.315
-0.325
-0.36
-0.405
-0.44
-0.475
-0.51
-0.535
-0.475
-0.36
-0.195
-0.02
0.205
0.495
0.78
0.96
1.025
0.905
0.6
0.165
-0.215
-0.43
-0.455
-0.405
-0.355
-0.325
-0.345
-0.355
-0.355
-0.37
-0.355
-0.35
-0.35
-0.36
-0.365
-0.375
-0.37
-0.355
-0.355
-0.36
-0.37
-0.39
-0.365
-0.36
-0.36
-0.37
-0.365
-0.365
-0.355
-0.345
-0.35
-0.365
-0.37
-0.375
-0.355
-0.345
-0.35
-0.355
-0.36
-0.37
-0.345
-0.34
-0.345
-0.345
-0.36
-0.37
-0.37
-0.355
-0.355
-0.365
-0.375
-0.365
-0.365
-0.35
-0.355
-0.36
-0.375
-0.37
-0.355
-0.355
-0.345
-0.36
-0.365
-0.37
-0.35
-0.35
-0.355
-0.355
-0.36
-0.365
-0.36
-0.36
-0.365
-0.38
-0.38
-0.38
-0.365
-0.375
-0.365
-0.375
-0.375
-0.385
-0.37
-0.365
-0.37
-0.38
-0.375
-0.38
-0.365
-0.365
-0.35
-0.365
-0.37
-0.375
-0.36
-0.35
-0.345
-0.345
-0.35
-0.335
-0.305
-0.295
-0.29
-0.285
-0.285
-0.28
-0.255
-0.24
-0.23
-0.24
-0.24
-0.24
-0.23
-0.225
-0.23
-0.23
-0.235
-0.235
-0.22
-0.215
-0.215
-0.23
-0.235
-0.245
-0.235
-0.215
-0.23
-0.225
-0.25
-0.25
-0.24
-0.235
-0.235
-0.24
-0.23
-0.24
-0.225
-0.225
-0.225
-0.235
-0.245
-0.255
-0.245
-0.235
-0.25
-0.25
-0.245
-0.26
-0.26
-0.25
-0.255
-0.27
-0.275
-0.28
-0.285
-0.27
-0.27
-0.275
-0.285
-0.275
-0.28
-0.27
-0.26
-0.26
-0.285
-0.275
-0.27
-0.26
-0.26
-0.265
-0.285
-0.29
-0.27
-0.265
-0.27
-0.27
-0.29
-0.305
-0.3
-0.295
-0.29
-0.29
-0.295
-0.295
-0.28
-0.27
-0.27
-0.27
-0.285
-0.285
-0.275
-0.275
-0.26
-0.28
-0.285
-0.28
-0.28
-0.26
-0.26
-0.265
-0.28
-0.265
-0.255
-0.245
-0.245
-0.235
-0.225
-0.225
-0.21
-0.195
-0.2
-0.195
-0.19
-0.17
-0.16
-0.15
-0.145
-0.17
-0.175
-0.195
-0.18
-0.175
-0.17
-0.18
-0.19
-0.195
-0.195
-0.19
-0.17
-0.16
-0.155
-0.175
-0.205
-0.2
-0.23
-0.23
-0.245
-0.27
-0.275
-0.285
-0.29
-0.305
-0.3
-0.315
-0.29
-0.295
-0.305
-0.305
-0.32
-0.32
-0.305
-0.3
-0.29
-0.315
-0.32
-0.325
-0.32
-0.3
-0.31
-0.32
-0.325
-0.335
-0.335
-0.335
-0.37
-0.41
-0.435
-0.475
-0.5
-0.535
-0.525
-0.45
-0.34
-0.18
0.005
0.235
0.495
0.735
0.88
0.93
0.785
0.465
0.06
-0.265
-0.45
-0.5
-0.47
-0.42
-0.385
-0.375
-0.4
-0.385
-0.37
-0.345
-0.34
-0.345
-0.365
-0.36
-0.36
-0.355
-0.36
-0.365
-0.36
-0.365
-0.36
-0.37
-0.37
-0.38
-0.395
-0.39
-0.375
-0.365
-0.385
-0.39
-0.39
-0.395
-0.385
-0.375
-0.37
-0.38
-0.4
-0.395
-0.385
-0.365
-0.365
-0.375
-0.37
-0.385
-0.385
-0.37
-0.375
-0.375
-0.38
-0.395
-0.385
-0.38
-0.385
-0.405
-0.41
-0.42
-0.39
-0.385
-0.38
-0.385
-0.395
-0.39
-0.39
-0.385
-0.385
-0.38
-0.395
-0.4
-0.4
-0.395
-0.395
-0.395
-0.4
-0.4
-0.395
-0.38
-0.395
-0.41
-0.42
-0.425
-0.42
-0.415
-0.425
-0.43
-0.435
-0.435
-0.435
-0.425
-0.42
-0.44
-0.45
-0.45
-0.44
-0.43
-0.435
-0.435
-0.44
-0.44
-0.425
-0.42
-0.42
-0.42
-0.415
-0.405
-0.395
-0.365
-0.34
-0.34
-0.34
-0.325
-0.31
-0.305
-0.29
-0.285
-0.29
-0.295
-0.3
-0.275
-0.27
-0.275
-0.275
-0.285
-0.27
-0.26
-0.265
-0.265
-0.28
-0.275
-0.27
-0.265
-0.28
-0.29
-0.285
-0.3
-0.3
-0.295
-0.295
-0.29
-0.3
-0.295
-0.27
-0.26
-0.27
-0.29
-0.31
-0.32
-0.3
-0.275
-0.275
-0.295
-0.305
-0.31
-0.305
-0.3
-0.305
-0.315
-0.325
-0.33
-0.315
-0.31
-0.31
-0.32
-0.325
-0.335
-0.325
-0.33
-0.33
-0.34
-0.345
-0.33
-0.32
-0.315
-0.31
-0.315
-0.325
-0.34
-0.34
-0.335
-0.345
-0.335
-0.33
-0.32
-0.315
-0.315
-0.325
-0.33
-0.33
-0.335
-0.32
-0.325
-0.325
-0.335
-0.35
-0.345
-0.335
-0.345
-0.345
-0.345
-0.34
-0.335
-0.32
-0.315
-0.31
-0.305
-0.3
-0.3
-0.285
-0.265
-0.27
-0.28
-0.285
-0.27
-0.25
-0.225
-0.215
-0.215
-0.23
-0.245
-0.25
-0.245
-0.25
-0.25
-0.26
-0.26
-0.25
-0.245
-0.25
-0.25
-0.26
-0.27
-0.235
-0.225
-0.23
-0.225
-0.23
-0.25
-0.265
-0.28
-0.275
-0.295
-0.32
-0.335
-0.345
-0.34
-0.35
-0.35
-0.365
-0.375
-0.355
-0.345
-0.365
-0.375
-0.385
-0.39
-0.385
-0.37
-0.37
-0.38
-0.4
-0.39
-0.375
-0.355
-0.355
-0.365
-0.365
-0.38
-0.375
-0.39
-0.42
-0.47
-0.5
-0.525
-0.57
-0.555
-0.51
-0.37
-0.235
-0.075
0.155
0.41
0.665
0.86
0.975
0.915
0.67
0.26
-0.15
-0.41
-0.495
-0.49
-0.445
-0.415
-0.39
-0.4
-0.41
-0.41
-0.39
-0.38
-0.375
-0.39
-0.4
-0.415
-0.405
-0.395
-0.4
-0.405
-0.415
-0.41
-0.405
-0.395
-0.4
-0.405
-0.4
-0.405
-0.4
-0.39
-0.395
-0.4
-0.405
-0.415
-0.4
-0.385
-0.39
-0.395
-0.395
-0.4
-0.385
-0.39
-0.375
-0.39
-0.4
-0.405
-0.4
-0.39
-0.385
-0.4
-0.4
-0.405
-0.4
-0.395
-0.39
-0.375
-0.39
-0.385
-0.38
-0.37
-0.37
-0.375
-0.375
-0.385
-0.38
-0.365
-0.365
-0.38
-0.38
-0.39
-0.39
-0.38
-0.38
-0.395
-0.4
-0.415
-0.415
-0.41
-0.41
-0.43
-0.435
-0.44
-0.435
-0.425
-0.435
-0.435
-0.445
-0.46
-0.45
-0.44
-0.445
-0.445
-0.445
-0.445
-0.435
-0.415
-0.41
-0.405
-0.4
-0.385
-0.37
-0.35
-0.335
-0.34
-0.335
-0.31
-0.3
-0.275
-0.27
-0.27
-0.275
-0.275
-0.26
-0.255
-0.245
-0.255
-0.25
-0.255
-0.25
-0.24
-0.235
-0.24
-0.25
-0.26
-0.245
-0.24
-0.25
-0.24
-0.25
-0.265
-0.26
-0.26
-0.245
-0.26
-0.265
-0.27
-0.26
-0.25
-0.255
-0.255
-0.265
-0.265
-0.255
-0.24
-0.25
-0.25
-0.255
-0.265
-0.25
-0.25
-0.25
-0.265
-0.27
-0.28
-0.28
-0.275
-0.265
-0.28
-0.29
-0.295
-0.275
-0.27
-0.27
-0.28
-0.285
-0.28
-0.28
-0.265
-0.27
-0.27
-0.275
-0.285
-0.275
-0.265
-0.265
-0.275
-0.285
-0.285
-0.275
-0.27
-0.275
-0.28
-0.295
-0.285
-0.275
-0.27
-0.27
-0.26
-0.275
-0.27
-0.265
-0.26
-0.26
-0.27
-0.265
-0.28
-0.27
-0.26
-0.255
-0.26
-0.265
-0.27
-0.26
-0.255
-0.25
-0.245
-0.25
-0.235
-0.215
-0.195
-0.195
-0.195
-0.19
-0.185
-0.165
-0.16
-0.15
-0.145
-0.145
-0.155
-0.155
-0.15
-0.155
-0.175
-0.18
-0.175
-0.175
-0.165
-0.18
-0.175
-0.16
-0.155
-0.135
-0.165
-0.2
-0.215
-0.24
-0.24
-0.26
-0.255
-0.26
-0.27
-0.28
-0.28
-0.275
-0.265
-0.26
-0.265
-0.29
-0.29
-0.28
-0.275
-0.265
-0.27
-0.285
-0.285
-0.28
-0.28
-0.275
-0.285
-0.295
-0.295
-0.285
-0.275
-0.285
-0.305
-0.315
-0.35
-0.375
-0.405
-0.425
-0.46
-0.485
-0.475
-0.365
-0.19
-0.005
0.205
0.455
0.765
1.03
1.175
1.17
0.975
0.58
0.09
-0.28
-0.42
-0.405
-0.345
-0.315
-0.31
-0.32
-0.31
-0.305
-0.31
-0.32
-0.325
-0.325
-0.32
-0.33
-0.325
-0.34
-0.335
-0.335
-0.33
-0.335
-0.34
-0.34
-0.355
-0.345
-0.335
-0.335
-0.345
-0.36
-0.36
-0.345
-0.335
-0.335
-0.34
-0.345
-0.345
-0.34
-0.325
-0.335
-0.33
-0.345
-0.335
-0.33
-0.32
-0.325
-0.325
-0.33
-0.33
-0.33
-0.33
-0.32
-0.325
-0.33
-0.345
-0.34
-0.335
-0.335
-0.33
-0.345
-0.34
-0.335
-0.33
-0.32
-0.33
-0.33
-0.33
-0.315
-0.315
-0.315
-0.32
-0.325
-0.34
-0.33
-0.32
-0.335
-0.335
-0.335
-0.34
-0.325
-0.32
-0.32
-0.325
-0.34
-0.35
-0.355
-0.35
-0.34
-0.345
-0.345
-0.36
-0.355
-0.35
-0.335
-0.33
-0.33
-0.325
-0.305
-0.295
-0.28
-0.27
-0.275
-0.255
-0.24
-0.21
-0.22
-0.215
-0.21
-0.22
-0.205
-0.19
-0.19
-0.19
-0.2
-0.2
-0.195
-0.18
-0.195
-0.2
-0.195
-0.205
-0.195
-0.195
-0.19
-0.195
-0.19
-0.21
-0.2
-0.19
-0.195
-0.19
-0.21
-0.215
-0.21
-0.2
-0.195
-0.195
-0.21
-0.21
-0.21
-0.19
-0.19
-0.18
-0.185
-0.18
-0.165
-0.15
-0.135
-0.145
-0.15
-0.16
-0.14
-0.13
-0.13
-0.145
-0.13
-0.12
-0.115
-0.13
-0.15
-0.165
-0.185
-0.19
-0.195
-0.21
-0.22
-0.23
-0.245
-0.25
-0.255
-0.255
-0.26
-0.27
-0.275
-0.285
-0.27
-0.28
-0.265
-0.275
-0.285
-0.29
-0.28
-0.295
-0.295
-0.3
-0.295
-0.305
-0.305
-0.295
-0.29
-0.305
-0.305
-0.315
-0.3
-0.295
-0.295
-0.295
-0.31
-0.33
-0.355
-0.4
-0.445
-0.47
-0.52
-0.53
-0.41
-0.22
-0.015
0.22
0.45
0.75
1.0
1.135
1.095
0.825
0.385
-0.065
-0.35
-0.39
-0.34
-0.3
-0.3
-0.305
-0.305
-0.31
-0.3
-0.31
-0.32
-0.32
-0.305
-0.32
-0.32
-0.32
-0.325
-0.335
-0.32
-0.325
-0.315
-0.32
-0.345
-0.345
-0.33
-0.325
-0.315
-0.325
-0.335
-0.335
-0.33
-0.315
-0.32
-0.325
-0.325
-0.33
-0.33
-0.32
-0.32
-0.325
-0.33
-0.335
-0.33
-0.32
-0.325
-0.315
-0.33
-0.33
-0.335
-0.335
-0.345
-0.33
-0.355
-0.35
-0.355
-0.335
-0.34
-0.335
-0.345
-0.345
-0.34
-0.33
-0.33
-0.33
-0.345
-0.34
-0.34
-0.325
-0.33
-0.335
-0.345
-0.355
-0.345
-0.34
-0.35
-0.355
-0.355
-0.365
-0.345
-0.345
-0.345
-0.36
-0.37
-0.375
-0.37
-0.37
-0.37
-0.365
-0.355
-0.37
-0.36
-0.345
-0.36
-0.34
-0.35
-0.35
-0.33
-0.315
-0.315
-0.29
-0.31
-0.305
-0.295
-0.27
-0.265
-0.27
-0.27
-0.265
-0.255
-0.24
-0.235
-0.235
-0.24
-0.245
-0.235
-0.215
-0.215
-0.235
-0.235
-0.24
-0.24
-0.22
-0.215
-0.22
-0.23
-0.245
-0.23
-0.235
-0.235
-0.25
-0.255
-0.26
-0.255
-0.255
-0.25
-0.265
-0.27
-0.275
-0.25
-0.255
-0.255
-0.26
-0.275
-0.27
-0.255
-0.255
-0.27
-0.255
-0.275
-0.275
-0.275
-0.265
-0.255
-0.275
-0.28
-0.295
-0.285
-0.275
-0.275
-0.28
-0.29
-0.31
-0.295
-0.295
-0.295
-0.3
-0.31
-0.315
-0.305
-0.295
-0.285
-0.31
-0.295
-0.295
-0.305
-0.275
-0.285
-0.28
-0.295
-0.315
-0.295
-0.285
-0.275
-0.28
-0.295
-0.3
-0.28
-0.28
-0.28
-0.305
-0.305
-0.3
-0.29
-0.285
-0.28
-0.285
-0.285
-0.295
-0.28
-0.28
-0.28
-0.29
-0.295
-0.295
-0.295
-0.275
-0.28
-0.28
-0.295
-0.305
-0.295
-0.28
-0.285
-0.285
-0.285
-0.29
-0.295
-0.285
-0.275
-0.275
-0.285
-0.295
-0.28
-0.275
-0.27
-0.29
-0.29
-0.3
-0.285
-0.3
-0.29
-0.285
-0.31
-0.31
-0.305
-0.29
-0.285
-0.275
-0.305
-0.31
-0.29
-0.275
-0.265
-0.27
-0.275
-0.275
-0.28
-0.275
-0.26
-0.275
-0.29
-0.285
-0.275
-0.27
-0.275
-0.265
-0.285
-0.27
-0.255
-0.23
-0.21
-0.215
-0.225
-0.23
-0.21
-0.205
-0.185
-0.185
-0.185
-0.175
-0.16
-0.15
-0.145
-0.16
-0.18
-0.195
-0.175
-0.18
-0.175
-0.18
-0.195
-0.22
-0.22
-0.205
-0.18
-0.185
-0.19
-0.23
-0.23
-0.235
-0.25
-0.26
-0.28
-0.295
-0.295
-0.29
-0.29
-0.29
-0.3
-0.305
-0.3
-0.285
-0.28
-0.29
-0.31
-0.315
-0.31
-0.31
-0.31
-0.325
-0.33
-0.335
-0.335
-0.32
-0.31
-0.31
-0.325
-0.335
-0.335
-0.365
-0.4
-0.42
-0.445
-0.48
-0.52
-0.525
-0.475
-0.38
-0.25
-0.11
0.08
0.31
0.58
0.8
0.925
0.975
0.91
0.685
0.355
0.025
-0.23
-0.385
-0.465
-0.495
-0.505
-0.515
-0.485
-0.445
-0.4
-0.38
-0.375
-0.38
-0.375
-0.38
-0.37
-0.36
-0.365
-0.38
-0.38
-0.4
-0.385
-0.37
-0.38
-0.38
-0.38
-0.39
-0.385
-0.375
-0.375
-0.39
-0.4
-0.405
-0.395
-0.39
-0.385
-0.395
-0.39
-0.405
-0.395
-0.385
-0.395
-0.4
-0.4
-0.405
-0.39
-0.39
-0.385
-0.385
-0.4
-0.415
-0.395
-0.395
-0.38
-0.395
-0.4
-0.41
-0.4
-0.4
-0.405
-0.415
-0.415
-0.425
-0.415
-0.405
-0.405
-0.41
-0.41
-0.415
-0.4
-0.39
-0.385
-0.395
-0.395
-0.425
-0.415
-0.395
-0.385
-0.4
-0.405
-0.415
-0.405
-0.4
-0.405
-0.41
-0.42
-0.425
-0.435
-0.425
-0.435
-0.44
-0.45
-0.47
-0.445
-0.43
-0.43
-0.44
-0.44
-0.44
-0.43
-0.425
-0.43
-0.435
-0.44
-0.45
-0.435
-0.41
-0.41
-0.415
-0.42
-0.41
-0.405
-0.385
-0.38
-0.375
-0.385
-0.385
-0.355
-0.34
-0.33
-0.335
-0.34
-0.335
-0.315
-0.3
-0.29
-0.31
-0.29
-0.29
-0.28
-0.27
-0.275
-0.285
-0.295
-0.305
-0.3
-0.295
-0.3
-0.305
-0.315
-0.32
-0.31
-0.29
-0.295
-0.3
-0.295
-0.305
-0.29
-0.29
-0.295
-0.31
-0.305
-0.325
-0.33
-0.305
-0.295
-0.3
-0.32
-0.315
-0.32
-0.305
-0.315
-0.32
-0.33
-0.345
-0.34
-0.34
-0.34
-0.35
-0.365
-0.36
-0.34
-0.345
-0.34
-0.345
-0.35
-0.36
-0.365
-0.355
-0.355
-0.355
-0.36
-0.365
-0.365
-0.365
-0.365
-0.375
-0.375
-0.37
-0.365
-0.36
-0.355
-0.365
-0.38
-0.385
-0.38
-0.375
-0.375
-0.38
-0.375
-0.385
-0.37
-0.37
-0.37
-0.385
-0.39
-0.385
-0.365
-0.355
-0.34
-0.33
-0.34
-0.35
-0.34
-0.325
-0.31
-0.3
-0.305
-0.295
-0.3
-0.285
-0.265
-0.265
-0.28
-0.29
-0.28
-0.28
-0.285
-0.285
-0.31
-0.325
-0.31
-0.295
-0.29
-0.29
-0.305
-0.32
-0.3
-0.285
-0.255
-0.255
-0.275
-0.315
-0.345
-0.37
-0.385
-0.39
-0.405
-0.415
-0.42
-0.42
-0.42
-0.415
-0.42
-0.43
-0.415
-0.415
-0.4
-0.405
-0.415
-0.435
-0.42
-0.42
-0.415
-0.425
-0.435
-0.455
-0.445
-0.445
-0.43
-0.43
-0.435
-0.45
-0.46
-0.485
-0.515
-0.535
-0.555
-0.61
-0.66
-0.655
-0.625
-0.555
-0.455
-0.34
-0.19
0.005
0.255
0.515
0.72
0.835
0.83
0.645
0.29
-0.095
-0.37
-0.51
-0.55
-0.53
-0.49
-0.47
-0.48
-0.48
-0.455
-0.455
-0.46
-0.46
-0.46
-0.475
-0.46
-0.455
-0.45
-0.455
-0.46
-0.465
-0.45
-0.44
-0.445
-0.45
-0.48
-0.485
-0.475
-0.46
-0.45
-0.46
-0.475
-0.485
-0.485
-0.48
-0.48
-0.475
-0.485
-0.5
-0.49
-0.48
-0.485
-0.485
-0.48
-0.48
-0.48
-0.465
-0.475
-0.465
-0.48
-0.485
-0.475
-0.47
-0.475
-0.475
-0.475
-0.485
-0.48
-0.48
-0.485
-0.47
-0.48
-0.485
-0.475
-0.48
-0.48
-0.485
-0.485
-0.495
-0.485
-0.48
-0.47
-0.47
-0.48
-0.48
-0.47
-0.47
-0.47
-0.48
-0.495
-0.495
-0.49
-0.47
-0.465
-0.47
-0.49
-0.495
-0.495
-0.49
-0.49
-0.51
-0.525
-0.535
-0.52
-0.52
-0.52
-0.54
-0.535
-0.525
-0.52
-0.505
-0.51
-0.525
-0.525
-0.525
-0.505
-0.485
-0.465
-0.47
-0.47
-0.445
-0.425
-0.415
-0.4
-0.4
-0.395
-0.39
-0.385
-0.365
-0.36
-0.35
-0.355
-0.36
-0.365
-0.34
-0.34
-0.36
-0.355
-0.36
-0.345
-0.32
-0.33
-0.325
-0.335
-0.345
-0.335
-0.325
-0.325
-0.33
-0.345
-0.35
-0.34
-0.33
-0.335
-0.33
-0.335
-0.35
-0.35
-0.345
-0.35
-0.355
-0.365
-0.36
-0.36
-0.35
-0.36
-0.36
-0.365
-0.36
-0.37
-0.36
-0.36
-0.36
-0.37
-0.37
-0.37
-0.36
-0.355
-0.36
-0.365
-0.37
-0.365
-0.36
-0.36
-0.365
-0.38
-0.395
-0.39
-0.375
-0.375
-0.38
-0.385
-0.4
-0.395
-0.39
-0.38
-0.385
-0.395
-0.41
-0.395
-0.39
-0.375
-0.385
-0.395
-0.405
-0.385
-0.38
-0.385
-0.385
-0.39
-0.4
-0.385
-0.38
-0.385
-0.395
-0.4
-0.405
-0.395
-0.385
-0.405
-0.395
-0.405
-0.405
-0.395
-0.375
-0.375
-0.365
-0.365
-0.355
-0.34
-0.325
-0.315
-0.315
-0.32
-0.315
-0.3
-0.295
-0.295
-0.295
-0.29
-0.3
-0.28
-0.28
-0.28
-0.29
-0.29
-0.31
-0.3
-0.29
-0.295
-0.305
-0.305
-0.32
-0.31
-0.295
-0.27
-0.255
-0.27
-0.3
-0.33
-0.33
-0.33
-0.345
-0.365
-0.385
-0.4
-0.4
-0.39
-0.405
-0.425
-0.41
-0.415
-0.395
-0.405
-0.405
-0.405
-0.42
-0.42
-0.405
-0.41
-0.405
-0.425
-0.435
-0.425
-0.425
-0.41
-0.415
-0.43
-0.435
-0.43
-0.425
-0.44
-0.48
-0.525
-0.565
-0.565
-0.6
-0.62
-0.575
-0.47
-0.34
-0.17
0.0
0.215
0.48
0.725
0.925
1.035
1.005
0.785
0.36
-0.09
-0.42
-0.545
-0.535
-0.475
-0.435
-0.425
-0.43
-0.435
-0.435
-0.425
-0.435
-0.44
-0.45
-0.435
-0.44
-0.425
-0.435
-0.45
-0.455
-0.455
-0.45
-0.44
-0.445
-0.455
-0.465
-0.47
-0.45
-0.45
-0.46
-0.465
-0.47
-0.465
-0.45
-0.46
-0.46
-0.46
-0.475
-0.46
-0.455
-0.445
-0.445
-0.455
-0.455
-0.46
-0.445
-0.45
-0.455
-0.47
-0.47
-0.465
-0.465
-0.45
-0.465
-0.465
-0.48
-0.47
-0.465
-0.46
-0.455
-0.465
-0.465
-0.46
-0.445
-0.445
-0.445
-0.45
-0.46
-0.45
-0.435
-0.43
-0.44
-0.445
-0.45
-0.445
-0.435
-0.435
-0.455
-0.455
-0.465
-0.45
-0.46
-0.445
-0.445
-0.465
-0.47
-0.46
-0.455
-0.455
-0.445
-0.46
-0.475
-0.47
-0.445
-0.45
-0.46
-0.46
-0.465
-0.46
-0.465
-0.455
-0.465
-0.46
-0.46
-0.44
-0.425
-0.42
-0.425
-0.405
-0.41
-0.39
-0.375
-0.365
-0.36
-0.37
-0.36
-0.35
-0.325
-0.305
-0.305
-0.31
-0.305
-0.295
-0.295
-0.29
-0.295
-0.29
-0.3
-0.3
-0.295
-0.29
-0.295
-0.305
-0.3
-0.3
-0.29
-0.29
-0.3
-0.3
-0.33
-0.315
-0.305
-0.3
-0.31
-0.31
-0.32
-0.315
-0.31
-0.305
-0.31
-0.32
-0.32
-0.3
-0.3
-0.31
-0.305
-0.315
-0.33
-0.32
-0.31
-0.315
-0.32
-0.33
-0.345
-0.34
-0.33
-0.33
-0.335
-0.34
-0.355
-0.345
-0.34
-0.335
-0.345
-0.35
-0.36
-0.345
-0.34
-0.345
-0.34
-0.35
-0.35
-0.345
-0.335
-0.335
-0.345
-0.355
-0.355
-0.355
-0.34
-0.34
-0.355
-0.35
-0.365
-0.355
-0.355
-0.35
-0.355
-0.355
-0.36
-0.355
-0.345
-0.34
-0.335
-0.345
-0.355
-0.355
-0.34
-0.33
-0.335
-0.35
-0.35
-0.345
-0.335
-0.325
-0.32
-0.31
-0.305
-0.28
-0.265
-0.26
-0.265
-0.28
-0.265
-0.25
-0.24
-0.22
-0.235
-0.245
-0.225
-0.215
-0.21
-0.22
-0.23
-0.255
-0.27
-0.265
-0.255
-0.25
-0.265
-0.28
-0.27
-0.23
-0.215
-0.215
-0.245
-0.28
-0.3
-0.31
-0.32
-0.32
-0.355
-0.36
-0.37
-0.365
-0.35
-0.35
-0.36
-0.37
-0.385
-0.385
-0.365
-0.37
-0.375
-0.38
-0.39
-0.37
-0.38
-0.38
-0.37
-0.375
-0.38
-0.375
-0.37
-0.37
-0.375
-0.4
-0.445
-0.49
-0.505
-0.51
-0.555
-0.59
-0.59
-0.48
-0.33
-0.15
0.045
0.305
0.61
0.885
1.015
0.955
0.66
0.19
-0.26
-0.48
-0.5
-0.445
-0.395
-0.395
-0.405
-0.4
-0.405
-0.395
-0.395
-0.415
-0.42
-0.42
-0.41
-0.415
-0.42
-0.43
-0.425
-0.435
-0.435
-0.425
-0.42
-0.435
-0.435
-0.44
-0.435
-0.425
-0.43
-0.425
-0.44
-0.43
-0.415
-0.415
-0.415
-0.43
-0.425
-0.425
-0.415
-0.415
-0.415
-0.43
-0.435
-0.42
-0.41
-0.41
-0.415
-0.415
-0.43
-0.425
-0.415
-0.415
-0.42
-0.425
-0.43
-0.43
-0.41
-0.4
-0.41
-0.41
-0.43
-0.415
-0.405
-0.4
-0.4
-0.415
-0.43
-0.415
-0.4
-0.405
-0.41
-0.415
-0.435
-0.425
-0.415
-0.415
-0.43
-0.435
-0.455
-0.435
-0.43
-0.435
-0.44
-0.45
-0.45
