Lead II
-0.925
-0.92
-0.92
-0.925
-0.95
-0.955
-0.935
-0.945
-0.935
-0.935
-0.93
-0.925
-0.91
-0.92
-0.91
-0.93
-0.92
-0.915
-0.935
-0.94
-0.93
-0.935
-0.92
-0.92
-0.905
-0.9
-0.91
-0.92
-0.915
-0.93
-0.945
-0.95
-0.945
-0.94
-0.925
-0.915
-0.895
-0.885
-0.895
-0.91
-0.94
-0.945
-0.94
-0.93
-0.93
-0.92
-0.915
-0.9
-0.89
-0.89
-0.895
-0.885
-0.905
-0.915
-0.92
-0.925
-0.92
-0.93
-0.92
-0.925
-0.91
-0.905
-0.905
-0.94
-0.92
-0.92
-0.93
-0.935
-0.92
-0.91
-0.9
-0.89
-0.885
-0.88
-0.885
-0.9
-0.91
-0.91
-0.91
-0.925
-0.935
-0.925
-0.9
-0.91
-0.9
-0.895
-0.91
-0.905
-0.92
-0.9
-0.905
-0.92
-0.915
-0.92
-0.895
-0.895
-0.895
-0.895
-0.895
-0.885
-0.9
-0.905
-0.905
-0.905
-0.88
-0.875
-0.875
-0.86
-0.86
-0.84
-0.825
-0.81
-0.785
-0.775
-0.78
-0.77
-0.76
-0.735
-0.705
-0.68
-0.64
-0.605
-0.55
-0.515
-0.525
-0.52
-0.55
-0.56
-0.56
-0.535
-0.535
-0.54
-0.54
-0.575
-0.63
-0.695
-0.755
-0.8
-0.85
-0.895
-0.92
-0.925
-0.905
-0.91
-0.885
-0.885
-0.895
-0.91
-0.925
-0.925
-0.93
-0.94
-0.93
-0.92
-0.905
-0.9
-0.905
-0.895
-0.9
-0.91
-0.92
-0.92
-0.935
-0.95
-0.975
-1.01
-1.015
-0.98
-0.89
-0.755
-0.545
-0.25
0.09
0.485
0.87
1.15
1.33
1.38
1.35
1.185
0.9
0.47
-0.075
-0.585
-0.93
-1.08
-1.025
-0.9
-0.755
-0.68
-0.675
-0.7
-0.765
-0.84
-0.88
-0.9
-0.9
-0.92
-0.915
-0.925
-0.92
-0.93
-0.925
-0.92
-0.935
-0.94
-0.97
-0.95
-0.96
-0.975
-0.975
-0.99
-0.99
-0.965
-0.96
-0.95
-0.95
-0.945
-0.945
-0.955
-0.965
-0.97
-0.98
-0.98
-0.98
-0.975
-0.96
-0.955
-0.96
-0.94
-0.925
-0.935
-0.955
-0.96
-0.97
-0.98
-0.965
-0.97
-0.945
-0.935
-0.92
-0.915
-0.92
-0.92
-0.935
-0.93
-0.935
-0.935
-0.925
-0.91
-0.91
-0.87
-0.855
-0.845
-0.845
-0.835
-0.845
-0.845
-0.845
-0.825
-0.815
-0.81
-0.775
-0.755
-0.735
-0.715
-0.715
-0.71
-0.705
-0.69
-0.68
-0.67
-0.66
-0.64
-0.615
-0.595
-0.565
-0.56
-0.555
-0.55
-0.555
-0.545
-0.535
-0.515
-0.505
-0.485
-0.455
-0.43
-0.435
-0.43
-0.41
-0.43
-0.4
-0.415
-0.415
-0.415
-0.42
-0.43
-0.435
-0.425
-0.46
-0.46
-0.485
-0.495
-0.53
-0.565
-0.595
-0.61
-0.63
-0.635
-0.68
-0.7
-0.66
-0.67
-0.69
-0.72
-0.73
-0.76
-0.765
-0.765
-0.775
-0.77
-0.77
-0.775
-0.77
-0.755
-0.755
-0.775
-0.78
-0.775
-0.785
-0.8
-0.785
-0.78
-0.765
-0.765
-0.765
-0.75
-0.75
-0.75
-0.75
-0.765
-0.745
-0.74
-0.745
-0.755
-0.755
-0.755
-0.745
-0.74
-0.75
-0.74
-0.74
-0.71
-0.66
-0.575
-0.45
-0.305
-0.15
0.015
0.19
0.365
0.555
0.77
1.0
1.225
1.43
1.62
1.785
1.935
2.06
2.145
2.19
2.2
2.195
2.14
2.065
1.96
1.85
1.79
1.765
1.765
1.795
1.795
1.785
1.695
1.555
1.39
1.185
0.98
0.73
0.405
0.025
-0.37
-0.695
-0.915
-1.015
-1.015
-1.005
-0.985
-0.985
-1.025
-1.1
-1.14
-1.2
-1.235
-1.25
-1.25
-1.255
-1.28
-1.305
-1.31
-1.32
-1.345
-1.36
-1.375
-1.38
-1.41
-1.41
-1.425
-1.425
-1.445
-1.45
-1.465
-1.49
-1.505
-1.54
-1.56
-1.565
-1.58
-1.585
-1.58
-1.6
-1.6
-1.615
-1.64
-1.64
-1.655
-1.675
-1.685
-1.68
-1.71
-1.695
-1.7
-1.705
-1.7
-1.695
-1.69
-1.7
-1.72
-1.745
-1.775
-1.815
-1.845
-1.875
-1.89
-1.915
-1.95
-2.0
-2.055
-2.135
-2.195
-2.275
-2.305
-2.345
-2.37
-2.36
-2.36
-2.345
-2.325
-2.305
-2.29
-2.285
-2.25
-2.21
-2.185
-2.125
-2.07
-2.005
-1.95
-1.885
-1.815
-1.76
-1.705
-1.655
-1.61
-1.57
-1.52
-1.48
-1.43
-1.375
-1.33
-1.295
-1.28
-1.255
-1.23
-1.22
-1.225
-1.195
-1.19
-1.18
-1.17
-1.175
-1.155
-1.135
-1.115
-1.125
-1.12
-1.13
-1.14
-1.13
-1.14
-1.155
-1.145
-1.135
-1.105
-1.105
-1.095
-1.105
-1.09
-1.105
-1.105
-1.1
-1.115
-1.105
-1.1
-1.095
-1.08
-1.08
-1.08
-1.065
-1.065
-1.095
-1.08
-1.085
-1.085
-1.085
-1.08
-1.075
-1.055
-1.05
-1.05
-1.035
-1.05
-1.05
-1.05
-1.065
-1.065
-1.085
-1.08
-1.07
-1.055
-1.04
-1.03
-1.03
-1.04
-1.05
-1.06
-1.07
-1.07
-1.075
-1.045
-1.055
-1.035
-1.025
-1.02
-1.035
-1.03
-1.035
-1.045
-1.045
-1.035
-1.045
-1.045
-1.04
-1.025
-1.0
-1.0
-0.99
-1.015
-1.025
-1.015
-1.04
-1.04
-1.035
-1.035
-1.01
-1.0
-0.995
-0.99
-0.995
-1.015
-1.015
-1.015
-1.02
-1.025
-1.02
-1.005
-1.005
-0.99
-1.0
-0.985
-0.985
-0.98
-0.99
-1.005
-1.01
-1.01
-1.005
-1.01
-1.0
-0.985
-0.97
-0.975
-0.975
-0.97
-0.985
-0.985
-0.99
-1.01
-1.0
-0.99
-0.97
-0.97
-0.975
-0.945
-0.965
-0.965
-0.96
-0.97
-0.985
-0.98
-0.98
-0.975
-0.98
-0.97
-0.955
-0.94
-0.95
-0.95
-0.955
-0.96
-0.96
-0.965
-0.97
-0.955
-0.96
-0.945
-0.94
-0.93
-0.945
-0.95
-0.96
-0.96
-0.96
-0.95
-0.955
-0.955
-0.945
-0.925
-0.92
-0.915
-0.92
-0.91
-0.925
-0.935
-0.935
-0.955
-0.95
-0.94
-0.93
-0.935
-0.92
-0.905
-0.92
-0.92
-0.915
-0.93
-0.925
-0.94
-0.94
-0.945
-0.93
-0.915
-0.91
-0.9
-0.9
-0.885
-0.885
-0.92
-0.92
-0.915
-0.93
-0.92
-0.915
-0.89
-0.88
-0.88
-0.89
-0.885
-0.885
-0.9
-0.91
-0.92
-0.915
-0.915
-0.905
-0.89
-0.88
-0.88
-0.87
-0.885
-0.89
-0.88
-0.9
-0.885
-0.895
-0.87
-0.875
-0.865
-0.86
-0.855
-0.86
-0.87
-0.88
-0.885
-0.9
-0.9
-0.89
-0.895
-0.875
-0.87
-0.86
-0.86
-0.86
-0.855
-0.875
-0.87
-0.865
-0.875
-0.87
-0.87
-0.855
-0.85
-0.845
-0.85
-0.855
-0.845
-0.845
-0.85
-0.86
-0.85
-0.865
-0.86
-0.835
-0.84
-0.825
-0.83
-0.825
-0.815
-0.825
-0.835
-0.855
-0.85
-0.835
-0.845
-0.845
-0.825
-0.825
-0.805
-0.825
-0.81
-0.815
-0.82
-0.825
-0.825
-0.83
-0.825
-0.815
-0.815
-0.795
-0.78
-0.78
-0.78
-0.76
-0.76
-0.74
-0.72
-0.705
-0.695
-0.665
-0.65
-0.64
-0.625
-0.595
-0.58
-0.555
-0.52
-0.485
-0.46
-0.445
-0.465
-0.46
-0.46
-0.445
-0.44
-0.44
-0.46
-0.5
-0.53
-0.595
-0.645
-0.725
-0.79
-0.8
-0.81
-0.805
-0.8
-0.805
-0.805
-0.815
-0.82
-0.84
-0.83
-0.835
-0.845
-0.83
-0.825
-0.815
-0.805
-0.805
-0.795
-0.81
-0.82
-0.835
-0.845
-0.895
-0.905
-0.89
-0.84
-0.705
-0.47
-0.155
0.25
0.665
1.07
1.34
1.47
1.48
1.325
1.015
0.56
0.0
-0.5
-0.82
-0.91
-0.855
-0.72
-0.6
-0.54
-0.55
-0.615
-0.67
-0.715
-0.765
-0.765
-0.8
-0.775
-0.79
-0.8
-0.815
-0.825
-0.825
-0.83
-0.845
-0.83
-0.82
-0.805
-0.815
-0.83
-0.82
-0.835
-0.85
-0.845
-0.845
-0.845
-0.84
-0.835
-0.83
-0.825
-0.825
-0.82
-0.83
-0.845
-0.87
-0.85
-0.865
-0.85
-0.85
-0.83
-0.835
-0.81
-0.81
-0.825
-0.825
-0.835
-0.84
-0.855
-0.84
-0.84
-0.815
-0.815
-0.8
-0.8
-0.805
-0.805
-0.785
-0.795
-0.785
-0.79
-0.785
-0.78
-0.76
-0.76
-0.745
-0.72
-0.715
-0.715
-0.7
-0.71
-0.705
-0.695
-0.715
-0.675
-0.665
-0.64
-0.615
-0.58
-0.575
-0.575
-0.575
-0.555
-0.55
-0.54
-0.54
-0.52
-0.485
-0.475
-0.45
-0.425
-0.415
-0.41
-0.395
-0.385
-0.38
-0.37
-0.36
-0.35
-0.33
-0.31
-0.275
-0.28
-0.27
-0.27
-0.275
-0.285
-0.3
-0.31
-0.33
-0.345
-0.355
-0.36
-0.385
-0.39
-0.41
-0.44
-0.465
-0.51
-0.515
-0.54
-0.555
-0.58
-0.585
-0.59
-0.595
-0.59
-0.63
-0.63
-0.645
-0.665
-0.67
-0.685
-0.685
-0.685
-0.685
-0.67
-0.645
-0.64
-0.645
-0.65
-0.67
-0.675
-0.68
-0.67
-0.66
-0.67
-0.66
-0.645
-0.645
-0.64
-0.66
-0.665
-0.66
-0.655
-0.665
-0.665
-0.67
-0.67
-0.665
-0.65
-0.645
-0.635
-0.64
-0.65
-0.65
-0.665
-0.665
-0.685
-0.705
-0.685
-0.675
-0.67
-0.655
-0.66
-0.68
-0.675
-0.69
-0.7
-0.71
-0.725
-0.72
-0.73
-0.725
-0.715
-0.71
-0.71
-0.725
-0.73
-0.72
-0.735
-0.745
-0.75
-0.76
-0.77
-0.77
-0.75
-0.74
-0.745
-0.75
-0.745
-0.755
-0.765
-0.775
-0.785
-0.79
-0.79
-0.775
-0.77
-0.745
-0.76
-0.775
-0.765
-0.765
-0.795
-0.795
-0.79
-0.815
-0.81
-0.79
-0.785
-0.785
-0.76
-0.76
-0.765
-0.785
-0.795
-0.8
-0.805
-0.8
-0.8
-0.805
-0.785
-0.8
-0.76
-0.77
-0.775
-0.785
-0.79
-0.79
-0.825
-0.815
-0.815
-0.805
-0.785
-0.77
-0.745
-0.73
-0.725
-0.72
-0.705
-0.7
-0.67
-0.69
-0.665
-0.645
-0.625
-0.605
-0.555
-0.53
-0.49
-0.445
-0.44
-0.455
-0.465
-0.495
-0.49
-0.49
-0.485
-0.485
-0.495
-0.54
-0.59
-0.655
-0.72
-0.775
-0.805
-0.85
-0.835
-0.85
-0.82
-0.82
-0.825
-0.825
-0.84
-0.84
-0.855
-0.86
-0.88
-0.88
-0.865
-0.87
-0.875
-0.855
-0.855
-0.85
-0.86
-0.86
-0.875
-0.865
-0.875
-0.865
-0.86
-0.87
-0.875
-0.885
-0.9
-0.925
-0.95
-0.93
-0.885
-0.76
-0.6
-0.38
-0.06
0.3
0.69
1.025
1.255
1.385
1.41
1.28
1.02
0.59
0.045
-0.51
-0.895
-1.05
-1.005
-0.86
-0.705
-0.62
-0.615
-0.655
-0.725
-0.79
-0.855
-0.895
-0.9
-0.89
-0.865
-0.855
-0.855
-0.85
-0.855
-0.875
-0.885
-0.895
-0.9
-0.91
-0.895
-0.89
-0.885
-0.87
-0.86
-0.88
-0.895
-0.9
-0.91
-0.905
-0.9
-0.895
-0.885
-0.885
-0.885
-0.885
-0.87
-0.89
-0.885
-0.885
-0.89
-0.89
-0.905
-0.9
-0.925
-0.905
-0.895
-0.89
-0.865
-0.86
-0.865
-0.87
-0.87
-0.86
-0.86
-0.855
-0.845
-0.845
-0.82
-0.8
-0.795
-0.795
-0.78
-0.77
-0.78
-0.765
-0.77
-0.76
-0.765
-0.74
-0.715
-0.705
-0.675
-0.66
-0.655
-0.63
-0.63
-0.635
-0.65
-0.63
-0.61
-0.585
-0.56
-0.525
-0.51
-0.495
-0.485
-0.47
-0.475
-0.46
-0.45
-0.46
-0.46
-0.45
-0.43
-0.415
-0.4
-0.39
-0.385
-0.405
-0.43
-0.445
-0.46
-0.48
-0.5
-0.505
-0.52
-0.545
-0.55
-0.58
-0.6
-0.63
-0.67
-0.7
-0.735
-0.765
-0.775
-0.795
-0.785
-0.77
-0.77
-0.795
-0.815
-0.825
-0.85
-0.865
-0.87
-0.885
-0.885
-0.88
-0.875
-0.85
-0.855
-0.86
-0.86
-0.865
-0.875
-0.88
-0.88
-0.885
-0.89
-0.89
-0.875
-0.88
-0.86
-0.87
-0.85
-0.855
-0.88
-0.87
-0.875
-0.87
-0.865
-0.875
-0.865
-0.835
-0.84
-0.83
-0.83
-0.845
-0.84
-0.85
-0.855
-0.86
-0.87
-0.845
-0.835
-0.815
-0.83
-0.84
-0.85
-0.85
-0.855
-0.86
-0.855
-0.87
-0.87
-0.865
-0.86
-0.855
-0.85
-0.86
-0.865
-0.86
-0.88
-0.875
-0.885
-0.9
-0.9
-0.9
-0.885
-0.88
-0.86
-0.865
-0.875
-0.885
-0.895
-0.9
-0.895
-0.91
-0.9
-0.89
-0.895
-0.89
-0.885
-0.875
-0.885
-0.89
-0.89
-0.9
-0.905
-0.905
-0.92
-0.92
-0.92
-0.905
-0.885
-0.89
-0.9
-0.9
-0.905
-0.915
-0.92
-0.92
-0.91
-0.91
-0.905
-0.905
-0.9
-0.895
-0.9
-0.895
-0.905
-0.88
-0.875
-0.86
-0.83
-0.825
-0.785
-0.76
-0.735
-0.72
-0.71
-0.675
-0.645
-0.63
-0.595
-0.58
-0.575
-0.57
-0.585
-0.585
-0.58
-0.575
-0.565
-0.595
-0.62
-0.65
-0.695
-0.75
-0.81
-0.85
-0.885
-0.9
-0.9
-0.92
-0.92
-0.92
-0.955
-0.95
-0.96
-0.97
-0.975
-0.96
-0.955
-0.955
-0.95
-0.945
-0.95
-0.95
-0.965
-0.97
-0.995
-0.99
-0.985
-0.965
-0.96
-0.94
-0.945
-0.945
-0.95
-0.94
-0.945
-0.965
-0.985
-1.025
-1.035
-1.01
-0.95
-0.815
-0.62
-0.36
-0.035
0.33
0.7
1.01
1.22
1.325
1.32
1.2
0.985
0.615
0.105
-0.43
-0.85
-1.08
-1.105
-1.02
-0.875
-0.755
-0.695
-0.71
-0.755
-0.82
-0.87
-0.905
-0.92
-0.935
-0.94
-0.95
-0.965
-0.96
-0.95
-0.95
-0.955
-0.955
-0.96
-0.95
-0.965
-0.96
-0.965
-0.975
-0.965
-0.985
-0.97
-0.985
-0.985
-0.97
-0.965
-0.965
-0.96
-0.965
-0.955
-0.965
-0.97
-0.985
-0.98
-0.955
-0.955
-0.935
-0.935
-0.95
-0.95
-0.945
-0.96
-0.975
-0.96
-0.95
-0.945
-0.92
-0.915
-0.895
-0.89
-0.885
-0.88
-0.885
-0.895
-0.905
-0.89
-0.89
-0.875
-0.86
-0.84
-0.845
-0.825
-0.81
-0.795
-0.785
-0.79
-0.78
-0.78
-0.775
-0.755
-0.73
-0.695
-0.685
-0.655
-0.65
-0.635
-0.615
-0.61
-0.605
-0.595
-0.575
-0.555
-0.54
-0.51
-0.49
-0.46
-0.47
-0.46
-0.445
-0.44
-0.44
-0.43
-0.42
-0.415
-0.4
-0.37
-0.345
-0.345
-0.335
-0.335
-0.35
-0.365
-0.39
-0.405
-0.43
-0.45
-0.48
-0.48
-0.51
-0.525
-0.55
-0.58
-0.615
-0.645
-0.685
-0.71
-0.735
-0.76
-0.765
-0.78
-0.775
-0.8
-0.805
-0.81
-0.83
-0.825
-0.875
-0.87
-0.865
-0.88
-0.875
-0.85
-0.84
-0.86
-0.845
-0.85
-0.845
-0.845
-0.865
-0.87
-0.865
-0.865
-0.855
-0.845
-0.845
-0.835
-0.83
-0.84
-0.83
-0.84
-0.84
-0.83
-0.825
-0.805
-0.82
-0.8
-0.785
-0.81
-0.79
-0.795
-0.785
-0.805
-0.8
-0.78
-0.705
-0.6
-0.45
-0.265
-0.1
0.095
0.3
0.495
0.715
0.96
1.19
1.4
1.605
1.78
1.935
2.05
2.14
2.165
2.185
2.17
2.14
2.065
1.975
1.88
1.805
1.77
1.76
1.78
1.815
1.83
1.8
1.71
1.585
1.42
1.215
0.99
0.735
0.415
0.025
-0.38
-0.7
-0.92
-1.02
-1.04
-1.03
-1.02
-1.035
-1.065
-1.12
-1.17
-1.22
-1.24
-1.25
-1.275
-1.28
-1.32
-1.315
-1.335
-1.345
-1.38
-1.39
-1.405
-1.42
-1.425
-1.43
-1.44
-1.435
-1.45
-1.46
-1.475
-1.49
-1.535
-1.54
-1.54
-1.565
-1.565
-1.565
-1.575
-1.58
-1.58
-1.58
-1.59
-1.59
-1.62
-1.635
-1.65
-1.645
-1.64
-1.645
-1.65
-1.645
-1.665
-1.65
-1.64
-1.655
-1.69
-1.735
-1.78
-1.805
-1.83
-1.865
-1.905
-1.96
-2.01
-2.075
-2.15
-2.24
-2.305
-2.36
-2.39
-2.415
-2.43
-2.425
-2.425
-2.405
-2.42
-2.43
-2.415
-2.4
-2.395
-2.365
-2.335
-2.28
-2.23
-2.18
-2.135
-2.06
-2.02
-1.975
-1.925
-1.86
-1.81
-1.76
-1.685
-1.625
-1.54
-1.485
-1.42
-1.365
-1.325
-1.285
-1.255
-1.245
-1.215
-1.205
-1.185
-1.185
-1.155
-1.155
-1.14
-1.12
-1.12
-1.105
-1.125
-1.13
-1.13
-1.125
-1.115
-1.13
-1.105
-1.09
-1.085
-1.06
-1.06
-1.065
-1.06
-1.075
-1.08
-1.07
-1.07
-1.085
-1.075
-1.055
-1.045
-1.03
-1.05
-1.055
-1.05
-1.065
-1.07
-1.05
-1.055
-1.065
-1.04
-1.03
-1.015
-1.015
-1.015
-1.035
-1.04
-1.04
-1.055
-1.05
-1.03
-1.03
-1.015
-1.015
-0.995
-0.98
-1.02
-0.985
-1.0
-1.01
-1.005
-1.025
-1.015
-1.005
-1.01
-1.0
-0.98
-0.99
-0.99
-0.985
-1.005
-1.0
-1.005
-1.0
-1.005
-1.01
-1.005
-0.98
-0.99
-0.975
-0.98
-0.99
-1.0
-1.0
-0.995
-1.005
-0.995
-0.985
-0.975
-0.96
-0.945
-0.95
-0.96
-0.95
-0.97
-0.99
-0.985
-0.985
-0.99
-0.99
-0.99
-0.965
-0.97
-0.955
-0.96
-0.955
-0.96
-0.97
-0.97
-0.965
-0.965
-0.975
-0.955
-0.955
-0.945
-0.935
-0.93
-0.935
-0.94
-0.94
-0.96
-0.965
-0.96
-0.975
-0.955
-0.94
-0.945
-0.93
-0.935
-0.95
-0.935
-0.95
-0.955
-0.955
-0.96
-0.95
-0.945
-0.93
-0.93
-0.915
-0.91
-0.915
-0.93
-0.935
-0.93
-0.95
-0.94
-0.94
-0.925
-0.925
-0.905
-0.9
-0.91
-0.92
-0.915
-0.925
-0.94
-0.93
-0.93
-0.945
-0.92
-0.91
-0.9
-0.895
-0.915
-0.915
-0.925
-0.925
-0.93
-0.95
-0.935
-0.935
-0.93
-0.905
-0.915
-0.89
-0.89
-0.89
-0.9
-0.895
-0.915
-0.91
-0.92
-0.94
-0.915
-0.905
-0.885
-0.89
-0.89
-0.895
-0.905
-0.9
-0.91
-0.925
-0.925
-0.92
-0.93
-0.915
-0.9
-0.885
-0.9
-0.9
-0.905
-0.9
-0.915
-0.91
-0.935
-0.925
-0.935
-0.93
-0.935
-0.935
-0.92
-0.9
-0.905
-0.925
-0.945
-0.95
-0.93
-0.93
-0.92
-0.9
-0.89
-0.865
-0.885
-0.885
-0.885
-0.895
-0.895
-0.91
-0.91
-0.91
-0.91
-0.895
-0.885
-0.875
-0.875
-0.885
-0.875
-0.9
-0.89
-0.895
-0.9
-0.9
-0.89
-0.89
-0.87
-0.875
-0.88
-0.885
-0.875
-0.9
-0.9
-0.91
-0.92
-0.89
-0.895
-0.875
-0.875
-0.86
-0.895
-0.905
-0.885
-0.89
-0.915
-0.915
-0.905
-0.9
-0.88
-0.875
-0.86
-0.865
-0.855
-0.85
-0.855
-0.86
-0.875
-0.885
-0.86
-0.84
-0.82
-0.8
-0.77
-0.755
-0.745
-0.735
-0.75
-0.72
-0.71
-0.69
-0.645
-0.59
-0.54
-0.515
-0.495
-0.49
-0.53
-0.53
-0.535
-0.535
-0.56
-0.54
-0.575
-0.595
-0.625
-0.665
-0.72
-0.775
-0.82
-0.865
-0.875
-0.9
-0.895
-0.91
-0.91
-0.9
-0.895
-0.885
-0.89
-0.895
-0.895
-0.885
-0.92
-0.925
-0.935
-0.93
-0.935
-0.915
-0.91
-0.92
-0.91
-0.925
-0.965
-0.995
-1.0
-0.94
-0.81
-0.6
-0.285
0.08
0.505
0.91
1.205
1.385
1.42
1.335
1.105
0.695
0.15
-0.405
-0.83
-1.045
-1.04
-0.925
-0.785
-0.655
-0.625
-0.65
-0.725
-0.805
-0.87
-0.92
-0.94
-0.94
-0.915
-0.91
-0.905
-0.9
-0.9
-0.905
-0.905
-0.93
-0.93
-0.95
-0.945
-0.935
-0.925
-0.92
-0.92
-0.92
-0.925
-0.93
-0.935
-0.945
-0.955
-0.975
-0.965
-0.985
-0.96
-0.95
-0.935
-0.92
-0.945
-0.945
-0.955
-0.965
-0.965
-0.98
-0.965
-0.96
-0.96
-0.945
-0.94
-0.93
-0.92
-0.91
-0.93
-0.935
-0.93
-0.945
-0.935
-0.925
-0.93
-0.915
-0.895
-0.89
-0.9
-0.9
-0.91
-0.895
-0.89
-0.875
-0.865
-0.85
-0.835
-0.815
-0.815
-0.79
-0.785
-0.785
-0.765
-0.765
-0.76
-0.755
-0.75
-0.73
-0.7
-0.67
-0.66
-0.64
-0.635
-0.64
-0.635
-0.62
-0.615
-0.615
-0.605
-0.595
-0.585
-0.565
-0.55
-0.52
-0.505
-0.495
-0.48
-0.49
-0.48
-0.47
-0.465
-0.46
-0.465
-0.45
-0.445
-0.44
-0.46
-0.485
-0.5
-0.54
-0.57
-0.57
-0.585
-0.61
-0.63
-0.645
-0.66
-0.66
-0.685
-0.7
-0.715
-0.735
-0.765
-0.77
-0.79
-0.79
-0.78
-0.775
-0.765
-0.755
-0.76
-0.785
-0.79
-0.795
-0.805
-0.805
-0.81
-0.805
-0.79
-0.79
-0.785
-0.775
-0.775
-0.775
-0.77
-0.805
-0.82
-0.81
-0.81
-0.8
-0.79
-0.775
-0.765
-0.77
-0.77
-0.765
-0.78
-0.78
-0.78
-0.775
-0.785
-0.775
-0.77
-0.76
-0.775
-0.77
-0.77
-0.78
-0.795
-0.8
-0.805
-0.8
-0.81
-0.815
-0.815
-0.81
-0.8
-0.8
-0.805
-0.835
-0.83
-0.83
-0.84
-0.84
-0.85
-0.86
-0.85
-0.845
-0.845
-0.85
-0.86
-0.865
-0.84
-0.855
-0.875
-0.875
-0.885
-0.875
-0.87
-0.86
-0.87
-0.86
-0.875
-0.875
-0.88
-0.89
-0.895
-0.89
-0.915
-0.915
-0.9
-0.9
-0.875
-0.87
-0.88
-0.89
-0.9
-0.885
-0.895
-0.91
-0.905
-0.915
-0.88
-0.88
-0.87
-0.86
-0.875
-0.88
-0.89
-0.905
-0.9
-0.92
-0.925
-0.915
-0.9
-0.875
-0.865
-0.85
-0.855
-0.85
-0.82
-0.815
-0.8
-0.785
-0.77
-0.755
-0.735
-0.71
-0.685
-0.65
-0.61
-0.565
-0.555
-0.54
-0.545
-0.58
-0.57
-0.585
-0.58
-0.56
-0.555
-0.57
-0.61
-0.655
-0.72
-0.8
-0.83
-0.87
-0.915
-0.925
-0.925
-0.905
-0.905
-0.9
-0.915
-0.915
-0.935
-0.95
-0.95
-0.96
-0.98
-0.98
-0.975
-0.97
-0.935
-0.925
-0.935
-0.935
-0.94
-0.95
-0.96
-0.99
-0.97
-0.96
-0.945
-0.94
-0.94
-0.935
-0.93
-0.955
-0.945
-0.99
-1.015
-1.025
-0.99
-0.905
-0.76
-0.555
-0.295
0.05
0.41
0.77
1.05
1.23
1.315
1.32
1.21
0.985
0.595
0.095
-0.425
-0.83
-1.05
-1.07
-0.945
-0.805
-0.715
-0.68
-0.715
-0.79
-0.825
-0.88
-0.91
-0.915
-0.93
-0.93
-0.91
-0.925
-0.95
-0.94
-0.96
-0.955
-0.945
-0.96
-0.935
-0.925
-0.93
-0.935
-0.935
-0.955
-0.965
-0.965
-0.965
-0.965
-0.955
-0.96
-0.94
-0.94
-0.94
-0.94
-0.945
-0.95
-0.955
-0.955
-0.97
-0.965
-0.935
-0.945
-0.92
-0.91
-0.905
-0.925
-0.91
-0.92
-0.925
-0.915
-0.915
-0.91
-0.9
-0.9
-0.875
-0.875
-0.86
-0.865
-0.87
-0.875
-0.885
-0.86
-0.86
-0.85
-0.84
-0.815
-0.8
-0.785
-0.78
-0.785
-0.78
-0.765
-0.765
-0.765
-0.755
-0.735
-0.71
-0.705
-0.705
-0.67
-0.635
-0.635
-0.62
-0.61
-0.59
-0.58
-0.57
-0.555
-0.535
-0.51
-0.485
-0.48
-0.46
-0.45
-0.455
-0.46
-0.455
-0.44
-0.445
-0.43
-0.415
-0.405
-0.41
-0.39
-0.385
-0.39
-0.405
-0.42
-0.44
-0.465
-0.48
-0.525
-0.515
-0.54
-0.555
-0.575
-0.595
-0.64
-0.685
-0.71
-0.735
-0.75
-0.79
-0.81
-0.815
-0.795
-0.815
-0.83
-0.825
-0.825
-0.84
-0.845
-0.87
-0.88
-0.87
-0.885
-0.89
-0.865
-0.855
-0.855
-0.845
-0.84
-0.85
-0.865
-0.875
-0.88
-0.885
-0.865
-0.87
-0.87
-0.87
-0.845
-0.85
-0.855
-0.85
-0.86
-0.85
-0.84
-0.855
-0.835
-0.825
-0.825
-0.82
-0.81
-0.81
-0.81
-0.805
-0.83
-0.815
-0.82
-0.82
-0.83
-0.82
-0.825
-0.81
-0.81
-0.825
-0.81
-0.815
-0.85
-0.845
-0.845
-0.855
-0.85
-0.845
-0.845
-0.83
-0.825
-0.82
-0.84
-0.85
-0.86
-0.855
-0.87
-0.87
-0.865
-0.87
-0.855
-0.845
-0.84
-0.835
-0.83
-0.845
-0.85
-0.865
-0.89
-0.9
-0.885
-0.88
-0.885
-0.895
-0.87
-0.855
-0.835
-0.865
-0.885
-0.89
-0.88
-0.88
-0.88
-0.88
-0.87
-0.87
-0.86
-0.85
-0.84
-0.86
-0.87
-0.88
-0.89
-0.875
-0.87
-0.87
-0.86
-0.85
-0.86
-0.855
-0.85
-0.83
-0.86
-0.835
-0.815
-0.8
-0.795
-0.76
-0.735
-0.7
-0.68
-0.68
-0.67
-0.66
-0.65
-0.625
-0.605
-0.56
-0.53
-0.5
-0.5
-0.505
-0.5
-0.515
-0.52
-0.525
-0.54
-0.565
-0.6
-0.65
-0.7
-0.75
-0.805
-0.835
-0.86
-0.865
-0.865
-0.865
-0.895
-0.885
-0.91
-0.925
-0.92
-0.935
-0.92
-0.91
-0.905
-0.9
-0.9
-0.91
-0.925
-0.945
-0.925
-0.935
-0.935
-0.925
-0.915
-0.92
-0.895
-0.89
-0.885
-0.91
-0.925
-0.925
-0.97
-0.98
-1.01
-0.99
-0.89
-0.75
-0.525
-0.24
0.11
0.505
0.88
1.15
1.31
1.355
1.28
1.07
0.75
0.26
-0.285
-0.72
-0.99
-1.01
-0.94
-0.8
-0.695
-0.66
-0.685
-0.72
-0.77
-0.835
-0.865
-0.885
-0.885
-0.875
-0.895
-0.915
-0.905
-0.915
-0.915
-0.91
-0.905
-0.925
-0.91
-0.895
-0.885
-0.9
-0.905
-0.92
-0.925
-0.93
-0.93
-0.93
-0.925
-0.915
-0.895
-0.9
-0.895
-0.915
-0.93
-0.93
-0.935
-0.92
-0.925
-0.91
-0.91
-0.895
-0.89
-0.895
-0.89
-0.895
-0.895
-0.91
-0.935
-0.93
-0.92
-0.905
-0.89
-0.86
-0.865
-0.855
-0.86
-0.845
-0.84
-0.845
-0.835
-0.835
-0.815
-0.82
-0.805
-0.78
-0.765
-0.755
-0.74
-0.735
-0.73
-0.715
-0.72
-0.71
-0.7
-0.675
-0.66
-0.63
-0.61
-0.59
-0.575
-0.565
-0.565
-0.555
-0.525
-0.515
-0.49
-0.485
-0.45
-0.43
-0.41
-0.405
-0.385
-0.375
-0.385
-0.375
-0.38
-0.39
-0.385
-0.37
-0.35
-0.34
-0.34
-0.35
-0.36
-0.39
-0.405
-0.425
-0.465
-0.49
-0.5
-0.525
-0.55
-0.575
-0.575
-0.61
-0.63
-0.64
-0.685
-0.695
-0.745
-0.74
-0.765
-0.795
-0.78
-0.79
-0.79
-0.805
-0.8
-0.815
-0.835
-0.845
-0.835
-0.85
-0.855
-0.88
-0.855
-0.855
-0.85
-0.835
-0.84
-0.835
-0.865
-0.87
-0.86
-0.855
-0.86
-0.855
-0.85
-0.83
-0.82
-0.825
-0.82
-0.835
-0.82
-0.82
-0.82
-0.82
-0.825
-0.82
-0.805
-0.805
-0.8
-0.8
-0.805
-0.815
-0.815
-0.82
-0.82
-0.79
-0.73
-0.645
-0.53
-0.385
-0.24
-0.1
0.055
0.21
0.38
0.565
0.77
0.99
1.19
1.39
1.585
1.73
1.87
2.0
2.06
2.065
2.075
2.05
2.02
1.96
1.88
1.82
1.76
1.76
1.77
1.78
1.775
1.715
1.61
1.49
1.325
1.155
0.935
0.69
0.385
0.015
-0.365
-0.685
-0.895
-0.995
-1.025
-1.01
-0.985
-1.0
-1.04
-1.08
-1.13
-1.19
-1.205
-1.21
-1.235
-1.265
-1.265
-1.29
-1.3
-1.32
-1.32
-1.3
-1.29
-1.275
-1.275
-1.29
-1.28
-1.285
-1.285
-1.29
-1.285
-1.27
-1.255
-1.22
-1.22
-1.21
-1.21
-1.235
-1.26
-1.29
-1.305
-1.32
-1.355
-1.375
-1.42
-1.475
-1.52
-1.585
-1.65
-1.725
-1.78
-1.83
-1.88
-1.91
-1.945
-1.985
-2.035
-2.055
-2.065
-2.085
-2.11
-2.14
-2.175
-2.22
-2.27
-2.295
-2.32
-2.345
-2.365
-2.37
-2.385
-2.39
-2.4
-2.405
-2.405
-2.425
-2.435
-2.415
-2.42
-2.425
-2.38
-2.365
-2.33
-2.275
-2.225
-2.18
-2.125
-2.09
-2.04
-2.005
-1.96
-1.905
-1.845
-1.785
-1.72
-1.655
-1.6
-1.55
-1.49
-1.43
-1.385
-1.35
-1.325
-1.305
-1.29
-1.26
-1.255
-1.235
-1.19
-1.18
-1.17
-1.165
-1.16
-1.165
-1.175
-1.185
-1.175
-1.165
-1.155
-1.15
-1.14
-1.12
-1.125
-1.125
-1.145
-1.14
-1.145
-1.145
-1.135
-1.14
-1.12
-1.115
-1.11
-1.105
-1.1
-1.1
-1.11
-1.115
-1.125
-1.135
-1.115
-1.11
-1.11
-1.09
-1.085
-1.075
-1.075
-1.075
-1.08
-1.075
-1.075
-1.09
-1.09
-1.095
-1.08
-1.055
-1.045
-1.04
-1.045
-1.06
-1.055
-1.07
-1.075
-1.065
-1.065
-1.05
-1.04
-1.03
-1.04
-1.035
-1.025
-1.025
-1.035
-1.045
-1.055
-1.05
-1.045
-1.03
-1.045
-1.03
-1.015
-1.015
-1.03
-1.03
-1.04
-1.035
-1.045
-1.065
-1.035
-1.025
-1.025
-1.02
-1.005
-1.01
-1.025
-1.02
-1.03
-1.015
-1.015
-1.02
-1.025
-1.005
-1.0
-1.0
-0.985
-0.975
-0.98
-1.0
-1.0
-1.005
-1.005
-1.005
-1.015
-1.0
-0.995
-0.99
-0.975
-0.97
-0.995
-0.97
-0.99
-1.0
-0.995
-1.02
-1.015
-1.0
-0.985
-0.985
-0.97
-0.965
-0.97
-0.97
-0.975
-0.985
-0.985
-1.0
-0.995
-0.985
-0.975
-0.985
-0.96
-0.97
-0.96
-0.975
-0.985
-1.005
-1.005
-1.02
-1.02
-1.0
-1.015
-0.99
-0.98
-0.965
-0.985
-0.98
-0.985
-0.99
-0.98
-1.005
-0.99
-1.01
-0.99
-0.985
-0.99
-0.96
-0.965
-0.965
-0.97
-0.985
-0.985
-0.985
-0.995
-0.995
-0.99
-0.985
-0.97
-0.98
-0.98
-0.97
-0.99
-1.0
-0.985
-0.98
-0.985
-0.985
-0.96
-0.97
-0.945
-0.945
-0.96
-0.955
-0.965
-0.98
-0.97
-0.985
-0.985
-0.975
-0.98
-0.955
-0.95
-0.945
-0.95
-0.955
-0.965
-0.975
-0.98
-0.955
-0.96
-0.965
-0.955
-0.945
-0.935
-0.935
-0.95
-0.94
-0.945
-0.965
-0.975
-0.955
-0.965
-0.96
-0.945
-0.935
-0.935
-0.945
-0.94
-0.925
-0.925
-0.935
-0.94
-0.945
-0.955
-0.94
-0.94
-0.925
-0.93
-0.91
-0.92
-0.91
-0.925
-0.925
-0.94
-0.955
-0.945
-0.955
-0.94
-0.93
-0.93
-0.92
-0.915
-0.92
-0.94
-0.94
-0.945
-0.935
-0.94
-0.935
-0.925
-0.91
-0.9
-0.91
-0.9
-0.905
-0.915
-0.925
-0.93
-0.935
-0.93
-0.915
-0.89
-0.87
-0.835
-0.83
-0.815
-0.8
-0.795
-0.805
-0.795
-0.8
-0.78
-0.755
-0.71
-0.665
-0.625
-0.58
-0.56
-0.53
-0.54
-0.545
-0.565
-0.58
-0.575
-0.56
-0.565
-0.575
-0.58
-0.605
-0.655
-0.705
-0.765
-0.825
-0.875
-0.91
-0.925
-0.93
-0.925
-0.915
-0.9
-0.895
-0.905
-0.905
-0.925
-0.925
-0.93
-0.95
-0.955
-0.94
-0.93
-0.915
-0.915
-0.905
-0.9
-0.92
-0.925
-0.94
-0.96
-0.985
-1.01
-1.015
-0.99
-0.915
-0.75
-0.53
-0.265
0.06
0.455
0.835
1.175
1.36
1.435
1.395
1.21
0.87
0.385
-0.155
-0.65
-0.975
-1.05
-0.975
-0.835
-0.705
-0.655
-0.675
-0.7
-0.78
-0.845
-0.865
-0.91
-0.915
-0.925
-0.92
-0.92
-0.91
-0.925
-0.93
-0.915
-0.915
-0.92
-0.905
-0.91
-0.925
-0.94
-0.955
-0.955
-0.96
-0.965
-0.945
-0.93
-0.94
-0.935
-0.93
-0.92
-0.92
-0.945
-0.955
-0.96
-0.945
-0.975
-0.98
-0.96
-0.95
-0.955
-0.945
-0.96
-0.95
-0.96
-0.96
-0.96
-0.945
-0.95
-0.945
-0.94
-0.925
-0.9
-0.895
-0.89
-0.895
-0.875
-0.885
-0.885
-0.88
-0.875
-0.865
-0.855
-0.845
-0.825
-0.815
-0.81
-0.805
-0.78
-0.785
-0.785
-0.78
-0.78
-0.745
-0.715
-0.69
-0.675
-0.645
-0.645
-0.635
-0.625
-0.605
-0.61
-0.59
-0.595
-0.565
-0.54
-0.52
-0.5
-0.48
-0.47
-0.46
-0.45
-0.45
-0.44
-0.44
-0.425
-0.415
-0.385
-0.37
-0.36
-0.35
-0.355
-0.365
-0.39
-0.41
-0.425
-0.46
-0.465
-0.495
