Lead II
0.035
0.035
-0.035
-0.165
-0.21
-0.225
-0.19
-0.18
-0.25
-0.325
-0.405
-0.4
-0.395
-0.375
-0.395
-0.42
-0.42
-0.405
-0.37
-0.31
-0.25
-0.265
-0.32
-0.4
-0.455
-0.475
-0.5
-0.54
-0.585
-0.565
-0.54
-0.535
-0.56
-0.55
-0.505
-0.485
-0.49
-0.5
-0.5
-0.47
-0.45
-0.47
-0.475
-0.5
-0.535
-0.565
-0.58
-0.555
-0.525
-0.5
-0.47
-0.45
-0.46
-0.475
-0.455
-0.425
-0.385
-0.37
-0.315
-0.25
-0.2
-0.225
-0.325
-0.405
-0.45
-0.47
-0.465
-0.42
-0.405
-0.46
-0.55
-0.575
-0.535
-0.44
-0.4
-0.405
-0.39
-0.34
-0.3
-0.26
-0.265
-0.285
-0.255
-0.2
-0.115
-0.055
-0.035
-0.05
-0.13
-0.205
-0.205
-0.2
-0.225
-0.26
-0.305
-0.335
-0.375
-0.39
-0.38
-0.37
-0.34
-0.325
-0.345
-0.39
-0.42
-0.425
-0.4
-0.38
-0.37
-0.37
-0.38
-0.395
-0.41
-0.41
-0.39
-0.385
-0.385
-0.365
-0.355
-0.395
-0.415
-0.41
-0.375
-0.36
-0.355
-0.35
-0.32
-0.275
-0.23
-0.19
-0.11
0.03
0.24
0.49
0.75
0.985
1.155
1.235
1.165
0.89
0.435
-0.05
-0.44
-0.625
-0.635
-0.56
-0.49
-0.5
-0.56
-0.605
-0.645
-0.665
-0.675
-0.655
-0.645
-0.64
-0.625
-0.65
-0.69
-0.72
-0.72
-0.68
-0.625
-0.57
-0.53
-0.495
-0.455
-0.395
-0.345
-0.26
-0.215
-0.185
-0.195
-0.2
-0.17
-0.115
-0.115
-0.155
-0.185
-0.195
-0.135
-0.08
-0.04
0.005
-0.035
-0.05
-0.08
-0.07
-0.03
0.015
0.0
-0.03
-0.06
-0.06
-0.025
0.015
0.045
0.065
0.09
0.11
0.1
0.085
0.105
0.175
0.24
0.26
0.21
0.165
0.125
0.12
0.155
0.195
0.24
0.26
0.28
0.28
0.315
0.345
0.365
0.36
0.37
0.38
0.405
0.44
0.445
0.44
0.425
0.415
0.405
0.39
0.395
0.345
0.34
0.32
0.31
0.295
0.245
0.22
0.17
0.135
0.12
0.12
0.11
0.065
0.045
0.03
0.015
-0.005
-0.03
-0.065
-0.08
-0.09
-0.1
-0.115
-0.125
-0.13
-0.135
-0.145
-0.14
-0.13
-0.14
-0.16
-0.175
-0.165
-0.175
-0.15
-0.135
-0.14
-0.16
-0.16
-0.145
-0.13
-0.12
-0.12
-0.12
-0.125
-0.11
-0.115
-0.095
-0.07
-0.09
-0.115
-0.14
-0.165
-0.195
-0.2
-0.19
-0.175
-0.155
-0.13
-0.125
-0.14
-0.16
-0.17
-0.155
-0.135
-0.145
-0.145
-0.15
-0.16
-0.145
-0.145
-0.125
-0.135
-0.14
-0.14
-0.125
-0.125
-0.13
-0.135
-0.145
-0.15
-0.175
-0.165
-0.16
-0.165
-0.155
-0.125
-0.1
-0.055
-0.05
-0.08
-0.095
-0.105
-0.075
-0.05
-0.02
-0.015
-0.015
-0.01
0.02
0.06
0.08
0.07
0.06
0.08
0.095
0.115
0.095
0.075
0.045
0.005
-0.025
-0.035
-0.07
-0.11
-0.125
-0.13
-0.13
-0.11
-0.12
-0.165
-0.215
-0.25
-0.23
-0.205
-0.215
-0.225
-0.215
-0.195
-0.195
-0.205
-0.24
-0.28
-0.28
-0.25
-0.245
-0.225
-0.21
-0.225
-0.23
-0.21
-0.195
-0.165
-0.15
-0.155
-0.165
-0.135
-0.03
0.09
0.245
0.43
0.64
0.885
1.115
1.295
1.355
1.24
0.91
0.44
-0.01
-0.37
-0.54
-0.565
-0.495
-0.435
-0.44
-0.48
-0.53
-0.555
-0.59
-0.585
-0.565
-0.535
-0.54
-0.55
-0.585
-0.58
-0.595
-0.615
-0.605
-0.575
-0.54
-0.485
-0.42
-0.35
-0.295
-0.26
-0.205
-0.175
-0.12
-0.09
-0.06
-0.045
-0.05
-0.045
-0.035
-0.025
-0.015
-0.015
-0.005
0.015
0.035
0.045
0.05
0.045
0.05
0.045
0.035
0.045
0.07
0.075
0.09
0.1
0.12
0.15
0.15
0.125
0.125
0.14
0.16
0.205
0.22
0.21
0.22
0.225
0.245
0.28
0.295
0.315
0.345
0.36
0.395
0.42
0.41
0.355
0.325
0.33
0.375
0.43
0.425
0.415
0.405
0.38
0.42
0.44
0.41
0.375
0.325
0.285
0.275
0.29
0.255
0.225
0.165
0.135
0.115
0.12
0.1
0.08
0.06
0.025
0.03
0.02
-0.005
-0.05
-0.095
-0.11
-0.105
-0.085
-0.085
-0.12
-0.165
-0.2
-0.19
-0.17
-0.155
-0.17
-0.17
-0.165
-0.14
-0.125
-0.135
-0.17
-0.18
-0.17
-0.17
-0.13
-0.135
-0.12
-0.12
-0.125
-0.14
-0.15
-0.145
-0.14
-0.135
-0.155
-0.135
-0.1
-0.095
-0.1
-0.115
-0.13
-0.145
-0.16
-0.155
-0.155
-0.165
-0.165
-0.165
-0.155
-0.15
-0.16
-0.175
-0.16
-0.145
-0.125
-0.145
-0.155
-0.19
-0.2
-0.175
-0.155
-0.14
-0.15
-0.15
-0.125
-0.12
-0.13
-0.165
-0.195
-0.225
-0.19
-0.15
-0.105
-0.085
-0.08
-0.08
-0.06
-0.07
-0.06
-0.065
-0.05
-0.04
-0.015
0.01
0.035
0.045
0.055
0.045
0.055
0.055
0.07
0.055
0.045
0.01
-0.025
-0.055
-0.095
-0.13
-0.17
-0.205
-0.195
-0.175
-0.15
-0.155
-0.185
-0.225
-0.25
-0.26
-0.24
-0.225
-0.22
-0.23
-0.245
-0.23
-0.225
-0.215
-0.235
-0.255
-0.255
-0.245
-0.25
-0.235
-0.25
-0.245
-0.255
-0.245
-0.21
-0.2
-0.175
-0.13
-0.055
0.075
0.24
0.415
0.635
0.85
1.06
1.245
1.335
1.215
0.895
0.475
0.025
-0.31
-0.51
-0.555
-0.515
-0.445
-0.435
-0.44
-0.455
-0.495
-0.565
-0.645
-0.685
-0.695
-0.69
-0.665
-0.665
-0.675
-0.68
-0.67
-0.645
-0.61
-0.58
-0.57
-0.515
-0.49
-0.43
-0.365
-0.3
-0.23
-0.195
-0.175
-0.16
-0.15
-0.15
-0.16
-0.15
-0.115
-0.08
-0.075
-0.06
-0.075
-0.08
-0.06
-0.045
-0.03
-0.045
-0.03
-0.02
-0.01
0.0
0.01
0.015
0.02
0.03
0.05
0.085
0.095
0.1
0.1
0.09
0.115
0.125
0.14
0.16
0.17
0.185
0.22
0.25
0.26
0.26
0.23
0.21
0.245
0.28
0.315
0.33
0.33
0.34
0.34
0.36
0.37
0.36
0.36
0.355
0.365
0.36
0.355
0.32
0.295
0.265
0.275
0.27
0.245
0.205
0.165
0.145
0.13
0.11
0.08
0.05
0.015
0.005
-0.005
0.0
-0.03
-0.08
-0.115
-0.125
-0.125
-0.12
-0.14
-0.175
-0.185
-0.175
-0.165
-0.165
-0.17
-0.205
-0.215
-0.205
-0.19
-0.16
-0.155
-0.155
-0.16
-0.16
-0.165
-0.18
-0.17
-0.165
-0.155
-0.15
-0.145
-0.155
-0.145
-0.17
-0.195
-0.2
-0.2
-0.155
-0.145
-0.135
-0.165
-0.185
-0.19
-0.165
-0.165
-0.175
-0.18
-0.17
-0.16
-0.17
-0.165
-0.19
-0.21
-0.21
-0.19
-0.16
-0.145
-0.15
-0.18
-0.185
-0.18
-0.175
-0.17
-0.175
-0.17
-0.135
-0.11
-0.07
-0.055
-0.06
-0.075
-0.09
-0.065
-0.025
0.005
0.025
0.06
0.07
0.085
0.11
0.1
0.09
0.07
0.035
0.025
0.025
-0.005
-0.05
-0.11
-0.16
-0.19
-0.19
-0.185
-0.18
-0.2
-0.22
-0.22
-0.23
-0.235
-0.25
-0.255
-0.275
-0.255
-0.225
-0.235
-0.245
-0.28
-0.26
-0.255
-0.215
-0.195
-0.195
-0.225
-0.22
-0.215
-0.2
-0.22
-0.215
-0.18
-0.115
-0.015
0.1
0.245
0.425
0.645
0.885
1.105
1.245
1.23
0.99
0.605
0.17
-0.185
-0.415
-0.505
-0.47
-0.415
-0.405
-0.43
-0.45
-0.475
-0.51
-0.545
-0.55
-0.525
-0.505
-0.505
-0.535
-0.54
-0.555
-0.535
-0.5
-0.465
-0.45
-0.435
-0.39
-0.325
-0.225
-0.145
-0.105
-0.085
-0.08
-0.055
-0.045
-0.01
-0.01
0.005
0.05
0.08
0.085
0.055
0.005
0.0
0.015
0.04
0.065
0.09
0.08
0.08
0.08
0.085
0.11
0.12
0.12
0.12
0.145
0.165
0.185
0.175
0.175
0.16
0.17
0.185
0.22
0.25
0.265
0.28
0.275
0.27
0.275
0.29
0.26
0.285
0.27
0.315
0.335
0.35
0.35
0.335
0.355
0.37
0.4
0.41
0.4
0.37
0.35
0.33
0.31
0.305
0.265
0.225
0.2
0.205
0.19
0.165
0.13
0.105
0.085
0.075
0.08
0.085
0.065
0.02
-0.055
-0.085
-0.08
-0.05
-0.065
-0.1
-0.12
-0.14
-0.13
-0.12
-0.12
-0.14
-0.155
-0.155
-0.14
-0.14
-0.15
-0.155
-0.125
-0.11
-0.105
-0.125
-0.145
-0.165
-0.15
-0.13
-0.125
-0.125
-0.125
-0.145
-0.15
-0.15
-0.145
-0.145
-0.15
-0.155
-0.14
-0.145
-0.13
-0.13
-0.155
-0.175
-0.18
-0.18
-0.145
-0.16
-0.16
-0.185
-0.175
-0.175
-0.16
-0.165
-0.2
-0.215
-0.195
-0.175
-0.15
-0.145
-0.145
-0.145
-0.12
-0.075
-0.045
-0.06
-0.09
-0.11
-0.08
-0.04
0.0
0.005
0.005
-0.005
-0.015
0.005
0.02
0.02
-0.005
-0.035
-0.075
-0.105
-0.135
-0.16
-0.195
-0.23
-0.245
-0.23
-0.22
-0.255
-0.275
-0.295
-0.305
-0.3
-0.31
-0.305
-0.33
-0.335
-0.345
-0.34
-0.325
-0.34
-0.34
-0.345
-0.335
-0.33
-0.305
-0.31
-0.315
-0.315
-0.325
-0.29
-0.255
-0.225
-0.18
-0.095
0.02
0.2
0.42
0.65
0.845
0.98
0.965
0.735
0.35
-0.1
-0.46
-0.635
-0.6
-0.505
-0.45
-0.48
-0.535
-0.58
-0.605
-0.65
-0.67
-0.665
-0.65
-0.66
-0.68
-0.685
-0.7
-0.725
-0.715
-0.7
-0.66
-0.58
-0.525
-0.5
-0.45
-0.425
-0.365
-0.305
-0.26
-0.235
-0.185
-0.175
-0.175
-0.16
-0.15
-0.17
-0.195
-0.195
-0.175
-0.155
-0.12
-0.11
-0.115
-0.125
-0.12
-0.095
-0.075
-0.06
-0.075
-0.055
-0.05
-0.015
0.01
-0.01
-0.015
-0.025
-0.01
0.015
0.055
0.05
0.04
0.035
0.035
0.05
0.095
0.1
0.11
0.12
0.125
0.155
0.175
0.185
0.19
0.185
0.19
0.22
0.255
0.265
0.245
0.21
0.19
0.195
0.18
0.145
0.13
0.1
0.075
0.065
0.055
0.02
-0.025
-0.07
-0.105
-0.105
-0.1
-0.125
-0.145
-0.17
-0.18
-0.2
-0.215
-0.24
-0.285
-0.305
-0.29
-0.285
-0.275
-0.305
-0.34
-0.35
-0.35
-0.32
-0.29
-0.3
-0.31
-0.315
-0.32
-0.315
-0.31
-0.315
-0.31
-0.33
-0.33
-0.32
-0.32
-0.315
-0.345
-0.35
-0.36
-0.335
-0.325
-0.31
-0.33
-0.33
-0.345
-0.335
-0.34
-0.335
-0.365
-0.35
-0.34
-0.33
-0.33
-0.335
-0.35
-0.335
-0.32
-0.29
-0.245
-0.23
-0.235
-0.245
-0.23
-0.195
-0.17
-0.145
-0.135
-0.13
-0.12
-0.1
-0.08
-0.09
-0.11
-0.135
-0.135
-0.14
-0.14
-0.195
-0.245
-0.295
-0.325
-0.325
-0.325
-0.345
-0.385
-0.39
-0.385
-0.37
-0.36
-0.365
-0.385
-0.4
-0.41
-0.41
-0.425
-0.415
-0.41
-0.415
-0.42
-0.42
-0.41
-0.39
-0.395
-0.395
-0.375
-0.37
-0.34
-0.335
-0.325
-0.295
-0.23
-0.105
0.075
0.28
0.525
0.75
0.93
1.0
0.875
0.545
0.12
-0.285
-0.57
-0.695
-0.67
-0.62
-0.61
-0.63
-0.675
-0.7
-0.69
-0.725
-0.745
-0.765
-0.76
-0.77
-0.785
-0.8
-0.84
-0.845
-0.82
-0.765
-0.7
-0.66
-0.63
-0.6
-0.54
-0.465
-0.36
-0.285
-0.255
-0.265
-0.255
-0.235
-0.205
-0.195
-0.2
-0.21
-0.205
-0.16
-0.13
-0.115
-0.105
-0.1
-0.095
-0.07
-0.05
-0.05
-0.05
-0.09
-0.09
-0.07
-0.035
-0.015
0.01
0.04
0.085
0.115
0.14
0.165
0.185
0.175
0.15
0.14
0.145
0.165
0.185
0.185
0.18
0.18
0.18
0.17
0.15
0.13
0.15
0.19
0.24
0.26
0.23
0.24
0.23
0.23
0.215
0.225
0.205
0.195
0.185
0.165
0.145
0.09
0.04
-0.005
-0.035
-0.05
-0.05
-0.04
-0.065
-0.1
-0.155
-0.195
-0.205
-0.225
-0.25
-0.265
-0.25
-0.26
-0.26
-0.29
-0.285
-0.255
-0.2
-0.2
-0.275
-0.365
-0.4
-0.365
-0.385
-0.415
-0.455
-0.465
-0.455
-0.43
-0.4
-0.35
-0.325
-0.34
-0.365
-0.395
-0.395
-0.39
-0.355
-0.35
-0.36
-0.35
-0.34
-0.305
-0.27
-0.295
-0.355
-0.42
-0.435
-0.415
-0.375
-0.345
-0.335
-0.33
-0.345
-0.295
-0.25
-0.215
-0.19
-0.19
-0.19
-0.17
-0.135
-0.11
-0.105
-0.125
-0.165
-0.155
-0.145
-0.13
-0.14
-0.15
-0.16
-0.17
-0.195
-0.24
-0.285
-0.295
-0.315
-0.32
-0.31
-0.325
-0.37
-0.39
-0.41
-0.385
-0.355
-0.335
-0.355
-0.375
-0.395
-0.42
-0.43
-0.44
-0.445
-0.445
-0.385
-0.35
-0.35
-0.385
-0.42
-0.44
-0.4
-0.355
-0.335
-0.335
-0.33
-0.29
-0.23
-0.11
0.07
0.285
0.535
0.785
1.02
1.175
1.135
0.845
0.35
-0.17
-0.575
-0.76
-0.745
-0.665
-0.64
-0.67
-0.71
-0.75
-0.775
-0.795
-0.805
-0.805
-0.785
-0.78
-0.785
-0.815
-0.84
-0.85
-0.82
-0.76
-0.67
-0.6
-0.545
-0.51
-0.455
-0.405
-0.34
-0.29
-0.26
-0.225
-0.225
-0.2
-0.175
-0.16
-0.15
-0.16
-0.15
-0.15
-0.115
-0.105
-0.105
-0.105
-0.105
-0.075
-0.05
-0.035
-0.045
-0.04
-0.03
-0.005
0.005
0.0
0.01
0.03
0.035
0.065
0.125
0.155
0.17
0.17
0.155
0.16
0.195
0.235
0.245
0.25
0.27
0.3
0.32
0.345
0.32
0.32
0.32
0.35
0.395
0.395
0.405
0.38
0.38
0.355
0.345
0.345
0.315
0.285
0.25
0.245
0.215
0.195
0.155
0.095
0.07
0.06
0.04
0.02
-0.01
-0.03
-0.045
-0.055
-0.05
-0.03
0.025
0.09
0.115
0.045
-0.1
-0.29
-0.4
-0.385
-0.32
-0.27
-0.23
-0.22
-0.22
-0.235
-0.225
-0.225
-0.195
-0.185
-0.19
-0.2
-0.19
-0.17
-0.145
-0.155
-0.155
-0.16
-0.175
-0.17
-0.15
-0.185
-0.185
-0.185
-0.175
-0.16
-0.15
-0.14
-0.135
-0.14
-0.12
-0.1
-0.04
-0.005
0.055
0.045
0.07
0.1
0.125
0.09
-0.02
-0.11
-0.135
-0.095
-0.08
-0.045
-0.03
-0.01
0.015
0.055
0.09
0.1
0.06
0.015
0.0
-0.03
-0.05
-0.07
-0.105
-0.15
-0.17
-0.145
-0.15
-0.145
-0.16
-0.19
-0.225
-0.23
-0.24
-0.26
-0.29
-0.315
-0.34
-0.32
-0.225
-0.17
-0.23
-0.37
-0.485
-0.51
-0.51
-0.505
-0.55
-0.54
-0.475
-0.41
-0.38
-0.405
-0.425
-0.41
-0.35
-0.265
-0.135
0.025
0.2
0.405
0.645
0.865
1.01
1.015
0.775
0.365
-0.105
-0.505
-0.73
-0.815
-0.785
-0.725
-0.69
-0.67
-0.68
-0.68
-0.655
-0.575
-0.48
-0.415
-0.455
-0.615
-0.835
-1.015
-1.08
-1.06
-0.94
-0.81
-0.72
-0.72
-0.735
-0.705
-0.61
-0.585
-0.595
-0.605
-0.6
-0.56
-0.54
-0.525
-0.475
-0.35
-0.2
-0.1
-0.085
-0.16
-0.21
-0.18
-0.12
-0.075
-0.105
-0.15
-0.24
-0.32
-0.37
-0.38
-0.395
-0.385
-0.32
-0.24
-0.14
-0.11
-0.12
-0.13
-0.085
-0.015
0.01
0.01
-0.015
0.04
0.13
0.225
0.2
0.07
-0.065
-0.085
0.055
0.19
0.185
0.075
0.04
0.11
0.235
0.33
0.375
0.415
0.435
0.415
0.31
0.17
0.025
0.005
0.025
0.005
-0.065
-0.09
-0.05
0.025
0.09
0.14
0.14
0.095
0.005
-0.065
-0.1
-0.17
-0.255
-0.215
-0.055
0.035
-0.03
-0.2
-0.325
-0.305
-0.195
-0.04
0.03
-0.025
-0.18
-0.265
-0.225
-0.16
-0.14
-0.22
-0.37
-0.52
-0.535
-0.4
-0.2
-0.135
-0.235
-0.44
-0.565
-0.585
-0.48
-0.38
-0.305
-0.23
-0.135
-0.025
0.085
0.09
-0.06
-0.31
-0.495
-0.545
-0.39
-0.175
-0.04
0.03
0.02
-0.02
-0.08
-0.115
-0.17
-0.295
-0.385
-0.375
-0.21
-0.02
0.0
-0.125
-0.31
-0.395
-0.295
-0.13
-0.02
0.055
0.105
0.2
0.255
0.245
0.13
-0.005
-0.04
0.005
0.05
-0.005
-0.14
-0.26
-0.265
-0.255
-0.27
-0.29
-0.26
-0.21
-0.265
-0.385
-0.465
-0.565
-0.7
-0.81
-0.755
-0.58
-0.435
-0.425
-0.52
-0.6
-0.59
-0.52
-0.47
-0.49
-0.48
-0.4
-0.23
-0.07
-0.01
-0.16
-0.44
-0.625
-0.625
-0.42
-0.205
-0.14
-0.17
-0.14
0.025
0.235
0.435
0.64
0.83
0.94
0.96
0.79
0.385
-0.155
-0.615
-0.86
-0.9
-0.81
-0.73
-0.66
-0.62
-0.66
-0.805
-0.955
-1.035
-1.025
-0.985
-0.925
-0.84
-0.78
-0.72
-0.715
-0.755
-0.815
-0.87
-0.905
-0.915
-0.885
-0.82
-0.755
-0.695
-0.605
-0.515
-0.435
-0.36
-0.35
-0.35
-0.345
-0.33
-0.32
-0.27
-0.2
-0.15
-0.165
-0.18
-0.2
-0.22
-0.25
-0.235
-0.185
-0.1
-0.08
-0.135
-0.25
-0.32
-0.275
-0.17
-0.08
-0.09
-0.14
-0.18
-0.145
-0.135
-0.13
-0.11
-0.075
-0.035
0.0
0.02
0.01
0.025
0.03
0.06
0.08
0.11
0.105
0.09
0.085
0.1
0.125
0.155
0.175
0.18
0.195
0.225
0.27
0.325
0.345
0.315
0.23
0.16
0.155
0.17
0.2
0.225
0.23
0.19
0.085
0.0
-0.05
-0.07
-0.08
-0.085
-0.06
-0.035
-0.075
-0.14
-0.2
-0.19
-0.17
-0.135
-0.15
-0.16
-0.17
-0.205
-0.225
-0.245
-0.26
-0.28
-0.275
-0.295
-0.32
-0.33
-0.315
-0.325
-0.315
-0.315
-0.31
-0.305
-0.335
-0.345
-0.35
-0.325
-0.295
-0.29
-0.295
-0.33
-0.34
-0.335
-0.31
-0.315
-0.32
-0.31
-0.3
-0.285
-0.27
-0.245
-0.265
-0.275
-0.27
-0.245
-0.21
-0.185
-0.15
-0.16
-0.145
-0.13
-0.085
-0.05
-0.035
-0.025
-0.02
0.0
0.01
0.005
0.0
-0.005
-0.045
-0.07
-0.075
-0.055
-0.055
-0.065
-0.1
-0.12
-0.145
-0.185
-0.235
-0.27
-0.295
-0.31
-0.29
-0.265
-0.265
-0.275
-0.315
-0.355
-0.34
-0.31
-0.31
-0.365
-0.41
-0.42
-0.39
-0.35
-0.31
-0.31
-0.315
-0.33
-0.335
-0.365
-0.38
-0.4
-0.38
-0.345
-0.32
-0.295
-0.28
-0.29
-0.265
-0.225
-0.14
-0.015
0.145
0.34
0.56
0.785
1.015
1.165
1.15
0.935
0.565
0.165
-0.23
-0.49
-0.59
-0.575
-0.52
-0.5
-0.51
-0.515
-0.565
-0.615
-0.695
-0.755
-0.74
-0.72
-0.695
-0.695
-0.71
-0.74
-0.755
-0.74
-0.735
-0.73
-0.68
-0.63
-0.595
-0.56
-0.515
-0.48
-0.44
-0.41
-0.355
-0.28
-0.23
-0.205
-0.195
-0.175
-0.15
-0.11
-0.11
-0.11
-0.115
-0.105
-0.105
-0.13
-0.155
-0.17
-0.165
-0.135
-0.095
-0.07
-0.06
-0.04
-0.04
-0.02
-0.025
-0.025
-0.04
-0.035
-0.025
-0.015
0.01
0.04
0.055
0.06
0.045
0.065
0.08
0.1
0.11
0.11
0.12
0.12
0.15
0.17
0.185
0.18
0.19
0.2
0.23
0.24
0.27
0.28
0.285
0.3
0.305
0.315
0.295
0.25
0.22
0.2
0.2
0.22
0.205
0.175
0.135
0.11
0.105
0.095
0.075
0.045
0.03
0.01
0.005
0.005
-0.015
-0.05
-0.095
-0.105
-0.11
-0.11
-0.105
-0.11
-0.145
-0.16
-0.15
-0.14
-0.15
-0.165
-0.165
-0.155
-0.165
-0.185
-0.205
-0.225
-0.23
-0.215
-0.19
-0.18
-0.185
-0.2
-0.2
-0.175
-0.17
-0.16
-0.165
-0.18
-0.195
-0.205
-0.18
-0.135
-0.105
-0.1
-0.09
-0.075
-0.06
-0.03
-0.025
-0.02
-0.005
0.01
0.045
0.075
0.075
0.055
0.03
0.035
0.06
0.07
0.09
0.055
0.01
-0.02
-0.05
-0.06
-0.1
-0.165
-0.21
-0.215
-0.2
-0.17
-0.18
-0.2
-0.225
-0.255
-0.255
-0.255
-0.26
-0.27
-0.27
-0.275
-0.265
-0.25
-0.26
-0.27
-0.28
-0.29
-0.275
-0.25
-0.245
-0.25
-0.24
-0.235
-0.215
-0.2
-0.2
-0.175
-0.165
-0.125
-0.02
0.12
0.285
0.495
0.725
0.965
1.165
1.27
1.18
0.885
0.48
0.055
-0.28
-0.45
-0.495
-0.45
-0.415
-0.42
-0.43
-0.43
-0.455
-0.49
-0.55
-0.56
-0.57
-0.545
-0.54
-0.55
-0.575
-0.575
-0.555
-0.535
-0.53
-0.535
-0.51
-0.465
-0.39
-0.355
-0.33
-0.305
-0.25
-0.19
-0.115
-0.05
-0.03
-0.025
-0.04
-0.025
-0.01
0.015
0.045
0.045
0.04
0.05
0.07
0.09
0.09
0.08
0.07
0.1
0.12
0.155
0.145
0.125
0.11
0.115
0.13
0.16
0.175
0.185
0.17
0.175
0.2
0.22
0.235
0.225
0.235
0.245
0.26
0.275
0.31
0.32
0.33
0.32
0.335
0.34
0.345
0.335
0.335
0.35
0.385
0.4
0.415
0.4
0.375
0.37
0.39
0.405
0.41
0.39
0.36
0.325
0.32
0.31
0.285
0.25
0.215
0.175
0.205
0.21
0.195
0.155
0.11
0.075
0.07
0.065
0.04
0.015
-0.025
-0.025
-0.02
-0.005
-0.03
-0.075
-0.1
-0.12
-0.11
-0.105
-0.105
-0.11
-0.13
-0.13
-0.12
-0.115
-0.135
-0.155
-0.16
-0.145
-0.125
-0.095
-0.1
-0.125
-0.15
-0.145
-0.145
-0.13
-0.115
-0.11
-0.105
-0.075
-0.04
-0.035
-0.04
-0.035
-0.045
-0.035
-0.04
0.02
0.06
0.055
0.06
0.045
0.05
0.08
0.06
0.055
0.045
0.04
0.04
0.04
-0.01
-0.08
-0.135
-0.19
-0.18
-0.17
-0.165
-0.195
-0.23
-0.265
-0.27
-0.255
-0.27
-0.305
-0.325
-0.33
-0.325
-0.3
-0.28
-0.31
-0.31
-0.31
-0.32
-0.31
-0.33
-0.335
-0.325
-0.315
-0.295
-0.295
-0.31
-0.325
-0.33
-0.315
-0.275
-0.22
-0.155
-0.095
-0.025
0.14
0.34
0.59
0.83
1.01
1.135
1.115
0.925
0.575
0.13
-0.3
-0.545
-0.62
-0.575
-0.53
-0.52
-0.57
-0.59
-0.615
-0.64
-0.67
-0.69
-0.705
-0.71
-0.7
-0.685
-0.68
-0.68
-0.705
-0.73
-0.73
-0.675
-0.63
-0.585
-0.575
-0.54
-0.505
-0.445
-0.35
-0.27
-0.24
-0.22
-0.215
-0.19
-0.18
-0.16
-0.145
-0.125
-0.125
-0.125
-0.145
-0.16
-0.15
-0.17
-0.155
-0.165
-0.14
-0.14
-0.11
-0.09
-0.085
-0.085
-0.07
-0.06
-0.055
-0.06
-0.02
0.005
0.04
0.02
-0.005
-0.03
-0.02
0.04
0.06
0.085
0.075
0.055
0.055
0.06
0.085
0.1
0.105
0.1
0.12
0.16
0.195
0.18
0.18
0.16
0.17
0.185
0.2
0.21
0.185
0.185
0.18
0.16
0.125
0.065
0.02
-0.01
-0.01
0.0
0.005
-0.015
-0.07
-0.13
-0.18
-0.185
-0.175
-0.165
-0.19
-0.225
-0.24
-0.26
-0.26
-0.28
-0.305
-0.335
-0.33
-0.305
-0.285
-0.285
-0.29
-0.32
-0.345
-0.33
-0.31
-0.295
-0.31
-0.33
-0.34
-0.32
-0.295
-0.29
-0.295
-0.31
-0.3
-0.27
-0.205
-0.185
-0.18
-0.19
-0.19
-0.165
-0.145
-0.13
-0.13
-0.13
-0.09
-0.04
-0.03
-0.025
-0.04
-0.065
-0.06
-0.055
-0.045
-0.05
-0.06
-0.1
-0.125
-0.165
-0.18
-0.215
-0.245
-0.25
-0.24
-0.23
-0.25
-0.28
-0.3
-0.31
-0.3
-0.275
-0.255
-0.255
-0.275
-0.31
-0.32
-0.31
-0.305
-0.305
-0.29
-0.29
-0.28
-0.28
-0.26
-0.255
-0.26
-0.25
-0.245
-0.235
-0.19
-0.125
-0.05
0.095
0.28
0.545
0.835
1.06
1.215
1.18
0.94
0.505
0.04
-0.35
-0.555
-0.57
-0.52
-0.49
-0.505
-0.52
-0.56
-0.605
-0.655
-0.67
-0.67
-0.675
-0.67
-0.695
-0.69
-0.675
-0.675
-0.635
-0.61
-0.57
-0.52
-0.475
-0.41
-0.35
-0.285
-0.24
-0.205
-0.145
-0.12
-0.1
-0.1
-0.11
-0.1
-0.085
-0.05
-0.025
-0.015
-0.015
-0.01
-0.01
-0.03
-0.02
-0.035
-0.015
0.01
0.045
0.035
0.04
0.03
0.025
0.035
0.06
0.08
0.08
0.1
0.095
0.105
0.145
0.175
0.175
0.155
0.17
0.18
0.225
0.245
0.235
0.25
0.25
0.255
0.27
0.28
0.325
0.325
0.3
0.31
0.33
0.34
0.33
0.325
0.31
0.295
0.3
0.3
0.265
0.25
0.21
0.18
0.15
0.14
0.11
0.085
0.055
0.04
0.035
0.025
-0.005
-0.06
-0.08
-0.105
-0.105
-0.115
-0.135
-0.15
-0.16
-0.175
-0.185
-0.2
-0.195
-0.21
-0.215
-0.215
-0.21
-0.195
-0.195
-0.225
-0.25
-0.26
-0.24
-0.205
-0.195
-0.215
-0.225
-0.225
-0.23
-0.21
-0.205
-0.185
-0.175
-0.19
-0.2
-0.165
-0.165
-0.14
-0.115
-0.11
-0.1
-0.09
-0.08
-0.065
-0.035
-0.025
0.005
0.02
0.025
0.005
-0.005
-0.005
0.005
0.02
0.02
-0.015
-0.065
-0.11
-0.15
-0.16
-0.185
-0.22
-0.245
-0.28
-0.28
-0.275
-0.29
-0.295
-0.31
-0.295
-0.28
-0.3
-0.315
-0.345
-0.365
-0.365
-0.35
-0.35
-0.355
-0.35
-0.34
-0.33
-0.325
-0.335
-0.32
-0.305
-0.3
-0.28
-0.26
-0.23
-0.175
-0.085
0.035
0.26
0.525
0.8
1.03
1.185
1.21
1.02
0.655
0.18
-0.3
-0.63
-0.765
-0.71
-0.635
-0.59
-0.62
-0.66
-0.69
-0.735
-0.775
-0.79
-0.775
-0.78
-0.78
-0.8
-0.79
-0.79
-0.79
-0.765
-0.725
-0.65
-0.575
-0.455
-0.395
-0.36
-0.34
-0.325
-0.27
-0.215
-0.185
-0.19
-0.195
-0.185
-0.15
-0.125
-0.115
-0.13
-0.12
-0.115
-0.1
-0.05
-0.045
-0.055
-0.075
-0.065
-0.045
-0.025
-0.015
-0.035
-0.025
0.0
0.025
0.05
0.045
0.02
0.035
0.06
0.08
0.09
0.1
0.11
0.12
0.135
0.165
0.185
0.185
0.18
0.18
0.2
0.235
0.27
0.27
0.255
0.25
0.26
0.26
0.295
0.285
0.265
0.24
0.22
0.185
0.175
0.15
0.1
0.06
0.045
0.025
0.015
-0.005
-0.055
-0.075
-0.11
-0.12
-0.145
-0.15
-0.165
-0.205
-0.225
-0.235
-0.245
-0.25
-0.265
-0.3
-0.3
-0.285
-0.25
-0.27
-0.28
-0.3
-0.31
-0.305
-0.29
-0.285
-0.305
-0.285
-0.285
-0.275
-0.265
-0.26
-0.275
-0.29
-0.29
-0.29
-0.27
-0.255
-0.255
-0.27
-0.275
-0.26
-0.225
-0.23
-0.22
-0.22
-0.22
-0.21
-0.2
-0.205
-0.2
-0.17
-0.165
-0.11
-0.07
-0.055
-0.045
-0.055
-0.05
-0.05
-0.05
-0.075
-0.08
-0.08
-0.07
-0.055
-0.06
-0.095
-0.135
-0.185
-0.23
-0.25
-0.24
-0.26
-0.285
-0.33
-0.36
-0.365
-0.355
-0.345
-0.36
-0.39
-0.395
-0.385
-0.365
-0.375
-0.385
-0.41
-0.415
-0.415
-0.385
-0.385
-0.395
-0.41
-0.39
-0.37
-0.345
-0.36
-0.385
-0.38
-0.355
-0.32
-0.25
-0.165
-0.075
0.04
0.235
0.485
0.755
0.985
1.105
1.055
0.835
0.43
-0.02
-0.425
-0.68
-0.76
-0.72
-0.655
-0.625
-0.655
-0.705
-0.76
-0.8
-0.82
-0.78
-0.765
-0.775
-0.78
-0.795
-0.81
-0.8
-0.795
-0.77
-0.725
-0.665
-0.59
-0.525
-0.465
-0.44
-0.4
-0.355
-0.315
-0.27
-0.245
-0.245
-0.24
-0.22
-0.18
-0.17
-0.19
-0.225
-0.215
-0.19
-0.15
-0.125
-0.145
-0.145
-0.145
-0.125
-0.11
-0.095
-0.095
-0.095
-0.095
-0.085
-0.07
-0.025
-0.02
-0.035
-0.045
-0.04
-0.02
-0.005
0.025
0.05
0.055
0.08
0.115
0.115
0.08
0.065
0.075
0.105
0.165
0.175
0.18
0.17
0.155
0.165
0.19
0.2
0.215
0.205
0.19
0.165
0.16
0.13
0.1
0.06
0.04
0.03
0.025
0.02
-0.015
-0.07
-0.12
-0.13
-0.13
-0.125
-0.145
-0.185
-0.2
-0.22
-0.245
-0.245
-0.27
-0.32
-0.34
-0.33
-0.325
-0.33
-0.31
-0.33
-0.345
-0.355
-0.355
-0.34
-0.33
-0.335
-0.36
-0.385
-0.375
-0.35
-0.36
-0.36
-0.37
-0.345
-0.335
-0.32
-0.32
-0.34
-0.365
-0.37
-0.35
-0.325
-0.325
-0.345
-0.345
-0.34
-0.33
-0.315
-0.34
-0.35
-0.36
-0.34
-0.32
-0.28
-0.26
-0.27
-0.26
-0.26
-0.245
-0.235
-0.2
-0.19
-0.17
-0.135
-0.12
-0.11
-0.115
-0.11
-0.13
-0.12
-0.11
-0.1
-0.14
-0.165
-0.235
-0.29
-0.325
-0.345
-0.35
-0.36
-0.38
-0.385
-0.375
-0.385
-0.425
-0.445
-0.455
-0.455
-0.45
-0.43
-0.42
-0.435
-0.465
-0.465
-0.46
-0.445
-0.45
-0.455
-0.455
-0.455
-0.44
-0.415
-0.4
-0.39
-0.36
-0.305
-0.2
-0.07
0.08
0.285
0.505
0.74
0.94
1.045
0.96
0.63
0.155
-0.295
-0.635
-0.76
-0.745
-0.675
-0.65
-0.68
-0.705
-0.73
-0.77
-0.815
-0.83
-0.815
-0.785
-0.77
-0.785
-0.805
-0.81
-0.79
-0.755
-0.7
-0.66
-0.64
-0.59
-0.545
-0.475
-0.42
-0.345
-0.305
-0.31
-0.29
-0.26
-0.205
-0.185
-0.225
-0.25
-0.255
-0.22
-0.185
-0.18
-0.195
-0.195
-0.17
-0.16
-0.14
-0.13
-0.14
-0.135
-0.13
-0.1
-0.09
-0.075
-0.08
-0.065
-0.05
-0.06
-0.04
-0.04
-0.04
-0.015
-0.01
0.015
0.055
0.07
0.075
0.075
0.08
0.1
0.12
0.13
0.135
0.135
0.145
0.16
0.17
0.18
0.18
0.17
0.17
0.175
0.18
0.17
0.13
0.075
0.03
0.0
0.005
-0.01
-0.035
-0.07
-0.085
-0.1
-0.115
-0.14
-0.17
-0.19
-0.2
-0.185
-0.18
-0.205
-0.235
-0.275
-0.295
-0.3
-0.315
-0.315
-0.325
-0.33
-0.34
-0.33
-0.32
-0.325
-0.325
-0.345
-0.35
-0.33
-0.31
-0.325
-0.345
-0.355
-0.345
-0.33
-0.315
-0.33
-0.32
-0.33
-0.365
-0.34
-0.33
-0.345
-0.36
-0.36
-0.34
-0.315
-0.33
-0.35
-0.365
-0.355
-0.36
-0.33
-0.325
-0.335
-0.355
-0.37
-0.37
-0.37
-0.35
-0.35
-0.36
-0.38
-0.38
-0.345
-0.315
-0.28
-0.29
-0.3
-0.3
-0.27
-0.245
-0.235
-0.215
-0.19
-0.17
-0.15
-0.15
-0.17
-0.19
-0.2
-0.185
-0.155
-0.14
-0.16
-0.18
-0.225
-0.28
-0.32
-0.35
-0.395
-0.43
-0.46
-0.445
-0.44
-0.43
-0.45
-0.465
-0.475
-0.5
-0.49
-0.475
-0.495
-0.495
-0.505
-0.5
-0.5
-0.5
-0.49
-0.5
-0.52
-0.51
-0.505
-0.465
-0.465
-0.475
-0.465
-0.47
-0.465
-0.42
-0.345
-0.25
-0.12
0.055
