Lead II
0.16
0.185
0.17
0.14
0.09
0.075
0.05
0.075
0.07
0.035
0.025
0.045
0.06
0.075
0.035
-0.04
-0.145
-0.17
-0.145
-0.085
-0.06
-0.055
-0.045
-0.075
-0.175
-0.24
-0.225
-0.15
-0.11
-0.18
-0.27
-0.255
-0.185
-0.14
-0.13
-0.115
-0.1
-0.08
-0.06
-0.06
-0.075
-0.11
-0.11
-0.075
-0.06
-0.07
-0.06
-0.06
-0.08
-0.1
-0.11
-0.06
-0.005
0.01
-0.03
-0.06
-0.09
-0.07
-0.065
-0.05
-0.05
-0.055
-0.06
-0.07
-0.1
-0.115
-0.105
-0.095
-0.105
-0.115
-0.155
-0.19
-0.215
-0.205
-0.2
-0.19
-0.18
-0.16
-0.155
-0.16
-0.175
-0.165
-0.145
-0.13
-0.105
-0.05
0.025
0.045
0.06
0.05
0.03
0.01
-0.025
-0.11
-0.225
-0.295
-0.28
-0.17
-0.05
0.055
0.11
0.16
0.335
0.48
0.595
0.6
0.495
0.395
0.3
0.195
0.065
-0.09
-0.195
-0.26
-0.275
-0.3
-0.31
-0.355
-0.39
-0.37
-0.34
-0.34
-0.335
-0.36
-0.37
-0.375
-0.425
-0.475
-0.46
-0.44
-0.415
-0.41
-0.38
-0.33
-0.29
-0.33
-0.39
-0.45
-0.425
-0.36
-0.33
-0.305
-0.29
-0.265
-0.23
-0.195
-0.15
-0.105
-0.09
-0.095
-0.09
-0.065
0.01
0.04
0.07
0.12
0.125
0.06
0.03
0.03
0.05
0.06
0.075
0.125
0.2
0.24
0.265
0.22
0.185
0.15
0.165
0.205
0.22
0.195
0.165
0.165
0.16
0.14
0.09
0.06
0.05
0.0
-0.035
-0.055
-0.06
-0.085
-0.105
-0.105
-0.09
-0.075
-0.15
-0.225
-0.25
-0.22
-0.205
-0.215
-0.185
-0.165
-0.125
-0.115
-0.05
-0.035
-0.06
-0.135
-0.19
-0.205
-0.145
-0.115
-0.145
-0.16
-0.175
-0.2
-0.23
-0.255
-0.265
-0.26
-0.255
-0.21
-0.175
-0.21
-0.255
-0.265
-0.28
-0.285
-0.29
-0.305
-0.305
-0.34
-0.32
-0.285
-0.245
-0.205
-0.225
-0.24
-0.23
-0.225
-0.215
-0.24
-0.275
-0.3
-0.315
-0.26
-0.205
-0.21
-0.225
-0.255
-0.25
-0.185
-0.145
-0.175
-0.245
-0.28
-0.27
-0.245
-0.175
-0.135
-0.125
-0.145
-0.13
-0.135
-0.135
-0.125
-0.135
-0.14
-0.165
-0.165
-0.16
-0.205
-0.245
-0.295
-0.285
-0.225
-0.17
-0.16
-0.135
-0.1
-0.13
-0.21
-0.255
-0.26
-0.21
-0.19
-0.13
-0.06
-0.11
-0.255
-0.36
-0.355
-0.275
-0.24
-0.225
-0.19
-0.13
-0.07
-0.07
-0.12
-0.21
-0.265
-0.26
-0.22
-0.17
-0.175
-0.215
-0.21
-0.17
-0.08
0.06
0.22
0.28
0.05
-0.36
-0.605
-0.575
-0.39
-0.27
-0.245
-0.285
-0.285
-0.245
-0.22
-0.19
-0.21
-0.22
-0.23
-0.245
-0.215
-0.2
-0.175
-0.15
-0.11
-0.085
-0.12
-0.165
-0.205
-0.21
-0.2
-0.205
-0.225
-0.305
-0.415
-0.53
-0.595
-0.545
-0.415
-0.25
-0.07
0.085
0.22
0.37
0.485
0.61
0.685
0.645
0.59
0.585
0.57
0.515
0.405
0.27
0.09
-0.2
-0.435
-0.515
-0.49
-0.465
-0.395
-0.3
-0.205
-0.19
-0.3
-0.385
-0.41
-0.385
-0.37
-0.37
-0.405
-0.385
-0.345
-0.32
-0.325
-0.305
-0.275
-0.27
-0.28
-0.31
-0.3
-0.275
-0.235
-0.225
-0.22
-0.22
-0.245
-0.31
-0.345
-0.325
-0.27
-0.24
-0.2
-0.155
-0.125
-0.13
-0.145
-0.15
-0.135
-0.105
-0.035
0.03
0.085
0.105
0.12
0.125
0.135
0.1
0.055
0.045
0.085
0.135
0.18
0.185
0.175
0.12
0.01
-0.005
0.035
0.085
0.105
0.155
0.255
0.325
0.245
0.035
-0.155
-0.22
-0.165
-0.08
-0.07
-0.09
-0.1
-0.07
-0.035
-0.015
-0.03
-0.08
-0.15
-0.195
-0.185
-0.145
-0.12
-0.12
-0.09
-0.03
0.03
0.005
-0.05
-0.125
-0.14
-0.065
-0.02
-0.075
-0.19
-0.24
-0.17
-0.03
0.12
0.24
0.245
0.1
-0.085
-0.245
-0.355
-0.48
-0.705
-0.98
-1.155
-1.305
-1.52
-1.795
-2.005
-2.07
-2.04
-2.0
-1.97
-1.9
-1.775
-1.685
-1.58
-1.395
-1.2
-1.04
-0.94
-0.935
-0.935
-0.855
-0.67
-0.41
-0.125
0.04
0.035
-0.105
-0.205
-0.155
0.005
0.15
0.155
0.025
-0.14
-0.22
-0.16
-0.065
0.005
0.02
0.005
-0.03
-0.035
0.02
0.055
0.07
0.025
-0.015
0.025
0.075
0.125
0.185
0.23
0.255
0.23
0.185
0.195
0.285
0.38
0.475
0.525
0.545
0.565
0.605
0.625
0.65
0.675
0.66
0.63
0.625
0.7
0.83
0.925
0.95
0.95
0.98
1.07
1.18
1.2
1.125
1.03
1.035
1.135
1.245
1.275
1.255
1.225
1.15
1.075
0.97
0.9
0.895
0.88
0.88
0.835
0.775
0.705
0.64
0.615
0.57
0.54
0.5
0.435
0.365
0.325
0.285
0.26
0.27
0.28
0.3
0.25
0.13
0.005
-0.03
0.0
0.07
0.05
-0.025
-0.085
-0.08
-0.05
-0.025
-0.01
-0.02
-0.02
-0.035
-0.05
-0.065
-0.13
-0.19
-0.195
-0.12
-0.07
-0.09
-0.145
-0.175
-0.14
-0.06
-0.015
-0.07
-0.14
-0.15
-0.16
-0.155
-0.15
-0.13
-0.12
-0.085
-0.045
-0.025
-0.065
-0.17
-0.26
-0.255
-0.18
-0.125
-0.15
-0.22
-0.27
-0.24
-0.21
-0.15
-0.135
-0.15
-0.195
-0.265
-0.25
-0.22
-0.235
-0.27
-0.32
-0.285
-0.19
-0.14
-0.17
-0.205
-0.23
-0.25
-0.255
-0.265
-0.265
-0.27
-0.265
-0.19
-0.13
-0.125
-0.19
-0.245
-0.28
-0.245
-0.19
-0.16
-0.135
-0.11
-0.15
-0.225
-0.29
-0.27
-0.2
-0.14
-0.15
-0.15
-0.17
-0.22
-0.28
-0.29
-0.225
-0.145
-0.095
-0.07
-0.105
-0.19
-0.33
-0.395
-0.335
-0.245
-0.195
-0.215
-0.24
-0.22
-0.165
-0.1
-0.09
-0.09
-0.13
-0.13
-0.095
-0.045
-0.055
-0.07
-0.075
-0.07
0.005
0.125
0.25
0.355
0.425
0.505
0.605
0.7
0.785
0.785
0.815
0.845
0.8
0.72
0.62
0.53
0.395
0.21
0.03
-0.07
-0.145
-0.225
-0.33
-0.39
-0.38
-0.38
-0.41
-0.475
-0.495
-0.465
-0.41
-0.405
-0.44
-0.465
-0.465
-0.465
-0.46
-0.475
-0.48
-0.475
-0.48
-0.46
-0.455
-0.43
-0.415
-0.435
-0.48
-0.545
-0.575
-0.585
-0.545
-0.505
-0.445
-0.37
-0.33
-0.35
-0.39
-0.395
-0.375
-0.34
-0.3
-0.28
-0.26
-0.265
-0.285
-0.27
-0.22
-0.17
-0.155
-0.16
-0.165
-0.14
-0.11
-0.09
-0.095
-0.1
-0.135
-0.175
-0.175
-0.19
-0.25
-0.275
-0.215
-0.12
-0.07
-0.065
-0.085
-0.085
-0.085
-0.08
-0.065
-0.06
-0.08
-0.09
-0.115
-0.14
-0.16
-0.155
-0.19
-0.24
-0.225
-0.165
-0.145
-0.145
-0.18
-0.17
-0.195
-0.185
-0.175
-0.175
-0.175
-0.165
-0.165
-0.15
-0.165
-0.17
-0.175
-0.15
-0.13
-0.14
-0.225
-0.31
-0.33
-0.24
-0.11
-0.05
-0.095
-0.21
-0.385
-0.52
-0.475
-0.37
-0.305
-0.265
-0.27
-0.285
-0.295
-0.345
-0.39
-0.365
-0.315
-0.295
-0.305
-0.295
-0.245
-0.21
-0.22
-0.22
-0.205
-0.175
-0.19
-0.225
-0.27
-0.26
-0.215
-0.185
-0.2
-0.19
-0.18
-0.15
-0.135
-0.145
-0.145
-0.195
-0.23
-0.28
-0.285
-0.28
-0.3
-0.295
-0.29
-0.285
-0.28
-0.285
-0.305
-0.275
-0.295
-0.345
-0.355
-0.33
-0.315
-0.295
-0.225
-0.16
-0.17
-0.265
-0.4
-0.435
-0.38
-0.345
-0.365
-0.39
-0.35
-0.32
-0.31
-0.31
-0.3
-0.3
-0.3
-0.34
-0.38
-0.395
-0.365
-0.33
-0.315
-0.335
-0.365
-0.36
-0.33
-0.3
-0.285
-0.27
-0.275
-0.275
-0.275
-0.3
-0.255
-0.215
-0.2
-0.235
-0.27
-0.295
-0.325
-0.38
-0.395
-0.355
-0.285
-0.255
-0.245
-0.25
-0.265
-0.29
-0.3
-0.28
-0.255
-0.205
-0.165
-0.16
-0.15
-0.135
-0.16
-0.225
-0.28
-0.285
-0.225
-0.14
-0.04
-0.01
-0.02
-0.015
-0.045
-0.09
-0.16
-0.28
-0.445
-0.595
-0.67
-0.695
-0.69
-0.67
-0.58
-0.465
-0.325
-0.105
0.08
0.205
0.28
0.28
0.2
0.145
0.185
0.23
0.175
0.02
-0.115
-0.175
-0.175
-0.255
-0.4
-0.54
-0.565
-0.495
-0.4
-0.38
-0.415
-0.435
-0.425
-0.395
-0.37
-0.355
-0.35
-0.37
-0.405
-0.42
-0.405
-0.38
-0.365
-0.36
-0.37
-0.38
-0.365
-0.285
-0.255
-0.25
-0.245
-0.225
-0.175
-0.125
-0.115
-0.085
-0.045
-0.02
0.01
0.015
-0.03
-0.075
-0.12
-0.115
-0.05
0.06
0.085
0.065
0.06
0.105
0.195
0.275
0.325
0.28
0.175
0.04
-0.06
-0.065
0.055
0.175
0.17
0.145
0.15
0.185
0.205
0.185
0.135
0.1
0.125
0.13
0.095
0.04
0.02
0.02
0.005
-0.015
-0.05
-0.06
-0.065
-0.06
-0.055
-0.06
-0.07
-0.085
-0.11
-0.115
-0.095
-0.1
-0.13
-0.145
-0.125
-0.11
-0.115
-0.14
-0.18
-0.22
-0.225
-0.235
-0.25
-0.26
-0.245
-0.255
-0.25
-0.255
-0.24
-0.235
-0.24
-0.265
-0.3
-0.305
-0.27
-0.215
-0.165
-0.21
-0.315
-0.445
-0.505
-0.465
-0.39
-0.315
-0.3
-0.315
-0.285
-0.24
-0.22
-0.23
-0.23
-0.18
-0.15
-0.155
-0.22
-0.28
-0.285
-0.2
-0.12
-0.12
-0.195
-0.27
-0.28
-0.255
-0.18
-0.095
-0.055
-0.105
-0.19
-0.255
-0.32
-0.265
-0.165
-0.145
-0.205
-0.275
-0.275
-0.23
-0.22
-0.235
-0.265
-0.24
-0.21
-0.175
-0.165
-0.185
-0.215
-0.25
-0.26
-0.235
-0.22
-0.215
-0.235
-0.245
-0.26
-0.245
-0.205
-0.16
-0.17
-0.2
-0.28
-0.315
-0.275
-0.175
-0.085
-0.06
-0.135
-0.295
-0.445
-0.47
-0.33
-0.2
-0.17
-0.18
-0.195
-0.19
-0.14
-0.075
-0.04
-0.03
-0.075
-0.125
-0.175
-0.205
-0.21
-0.185
-0.155
-0.1
-0.01
0.07
0.17
0.25
0.355
0.48
0.59
0.69
0.78
0.84
0.76
0.65
0.545
0.48
0.395
0.265
0.13
0.045
-0.07
-0.24
-0.41
-0.515
-0.47
-0.325
-0.27
-0.27
-0.285
-0.31
-0.34
-0.385
-0.435
-0.455
-0.45
-0.45
-0.465
-0.44
-0.45
-0.45
-0.44
-0.435
-0.445
-0.44
-0.435
-0.41
-0.37
-0.34
-0.33
-0.325
-0.32
-0.28
-0.23
-0.19
-0.135
-0.13
-0.16
-0.12
-0.08
-0.01
0.035
0.06
0.04
0.035
0.08
0.18
0.255
0.275
0.275
0.3
0.325
0.34
0.33
0.34
0.38
0.415
0.43
0.395
0.29
0.23
0.205
0.22
0.215
0.21
0.185
0.14
0.105
0.07
0.045
-0.01
-0.06
-0.1
-0.13
-0.18
-0.225
-0.22
-0.185
-0.155
-0.14
-0.17
-0.26
-0.355
-0.47
-0.45
-0.325
-0.195
-0.175
-0.205
-0.235
-0.195
-0.145
-0.13
-0.165
-0.24
-0.31
-0.32
-0.275
-0.235
-0.225
-0.205
-0.22
-0.245
-0.26
-0.235
-0.205
-0.195
-0.205
-0.23
-0.225
-0.215
-0.225
-0.23
-0.225
-0.245
-0.23
-0.225
-0.225
-0.215
-0.185
-0.165
-0.17
-0.215
-0.28
-0.335
-0.405
-0.375
-0.31
-0.265
-0.28
-0.31
-0.32
-0.315
-0.32
-0.35
-0.385
-0.375
-0.335
-0.33
-0.355
-0.355
-0.345
-0.345
-0.35
-0.365
-0.38
-0.38
-0.355
-0.33
-0.335
-0.34
-0.33
-0.315
-0.295
-0.255
-0.23
-0.205
-0.22
-0.275
-0.265
-0.19
-0.13
-0.095
-0.065
-0.07
-0.14
-0.25
-0.35
-0.33
-0.23
-0.175
-0.13
-0.085
-0.06
-0.08
-0.12
-0.085
0.005
0.05
0.015
-0.125
-0.275
-0.405
-0.38
-0.195
-0.025
0.05
0.14
0.31
0.515
0.67
0.755
0.71
0.605
0.495
0.405
0.3
0.115
-0.085
-0.225
-0.305
-0.385
-0.415
-0.46
-0.49
-0.49
-0.465
-0.445
-0.46
-0.5
-0.515
-0.495
-0.45
-0.415
-0.425
-0.49
-0.545
-0.52
-0.46
-0.395
-0.38
-0.4
-0.42
-0.435
-0.405
-0.345
-0.26
-0.165
-0.055
0.02
-0.035
-0.165
-0.24
-0.175
0.15
0.65
0.74
0.28
-0.135
-0.145
0.055
0.23
0.34
0.35
0.23
0.025
-0.09
0.055
0.285
0.375
0.38
0.35
0.365
0.475
0.595
0.56
0.29
-0.04
-0.195
0.065
0.54
1.035
1.535
1.795
1.5
1.06
1.12
1.175
0.535
-0.105
-0.71
-0.45
-0.195
-0.16
-0.21
-0.265
-0.255
-0.26
-0.26
-0.245
-0.245
-0.28
-0.305
-0.315
-0.295
-0.275
-0.285
-0.295
-0.33
-0.305
-0.285
-0.27
-0.31
-0.34
-0.32
-0.21
-0.115
-0.11
-0.245
-0.445
-0.56
-0.49
-0.335
-0.245
-0.3
-0.45
-0.545
-0.53
-0.455
-0.39
-0.34
-0.345
-0.41
-0.465
-0.455
-0.405
-0.425
-0.48
-0.5
-0.425
-0.27
-0.23
-0.405
-0.665
-0.79
-0.62
-0.41
-0.35
-0.405
-0.425
-0.425
-0.44
-0.45
-0.445
-0.41
-0.385
-0.395
-0.39
-0.355
-0.33
-0.36
-0.42
-0.445
-0.38
-0.305
-0.3
-0.365
-0.435
-0.505
-0.47
-0.42
-0.37
-0.32
-0.31
-0.355
-0.365
-0.39
-0.4
-0.39
-0.365
-0.305
-0.24
-0.225
-0.29
-0.41
-0.53
-0.545
-0.5
-0.4
-0.34
-0.33
-0.34
-0.345
-0.43
-0.505
-0.57
-0.535
-0.475
-0.465
-0.49
-0.495
-0.485
-0.475
-0.47
-0.46
-0.465
-0.455
-0.42
-0.385
-0.375
-0.425
-0.49
-0.475
-0.47
-0.52
-0.53
-0.5
-0.455
-0.4
-0.365
-0.31
-0.33
-0.38
-0.42
-0.375
-0.3
-0.235
-0.215
-0.225
-0.235
-0.24
-0.235
-0.235
-0.195
-0.185
-0.245
-0.405
-0.57
-0.68
-0.76
-0.805
-0.81
-0.78
-0.7
-0.55
-0.3
-0.075
0.07
0.165
0.265
0.26
0.21
0.14
0.075
-0.035
-0.145
-0.235
-0.325
-0.44
-0.55
-0.575
-0.53
-0.48
-0.48
-0.48
-0.485
-0.52
-0.55
-0.54
-0.46
-0.435
-0.51
-0.645
-0.755
-0.705
-0.575
-0.475
-0.49
-0.515
-0.51
-0.53
-0.52
-0.505
-0.475
-0.435
-0.41
-0.395
-0.36
-0.345
-0.305
-0.255
-0.24
-0.235
-0.26
-0.275
-0.235
-0.165
-0.115
-0.1
-0.125
-0.175
-0.14
-0.075
-0.015
0.03
0.075
0.08
0.135
0.175
0.17
0.115
0.0
-0.07
0.0
0.145
0.235
0.205
0.15
0.125
0.09
0.125
0.14
0.09
-0.015
-0.09
-0.1
-0.075
-0.04
-0.05
-0.095
-0.15
-0.195
-0.205
-0.22
-0.24
-0.25
-0.25
-0.27
-0.3
-0.29
-0.28
-0.245
-0.215
-0.18
-0.195
-0.255
-0.355
-0.39
-0.385
-0.32
-0.285
-0.335
-0.415
-0.395
-0.295
-0.265
-0.28
-0.295
-0.275
-0.29
-0.32
-0.29
-0.18
-0.065
-0.03
-0.12
-0.32
-0.605
-0.885
-1.135
-1.345
-1.53
-1.75
-2.01
-2.25
-2.385
-2.45
-2.455
-2.46
-2.415
-2.32
-2.215
-2.065
-1.935
-1.8
-1.625
-1.445
-1.3
-1.175
-1.03
-0.85
-0.67
-0.51
-0.37
-0.27
-0.25
-0.275
-0.32
-0.335
-0.3
-0.24
-0.195
-0.16
-0.105
-0.05
0.005
0.03
0.055
0.045
0.07
0.1
0.155
0.195
0.22
0.205
0.225
0.255
0.285
0.32
0.365
0.425
0.515
0.58
0.635
0.675
0.7
0.71
0.73
0.755
0.785
0.86
0.94
1.0
1.03
1.005
0.965
0.945
0.99
1.075
1.12
1.155
1.15
1.13
1.095
1.045
1.01
0.975
0.93
0.9
0.845
0.775
0.7
0.655
0.61
0.555
0.5
0.445
0.415
0.41
0.37
0.285
0.195
0.135
0.095
0.09
0.08
0.055
-0.005
0.025
0.055
0.065
0.015
0.02
0.03
0.075
0.09
0.09
0.06
0.02
-0.12
-0.34
-0.57
-0.81
-1.11
-1.43
-1.745
-1.985
-2.155
-2.235
-2.28
-2.245
-2.175
-2.07
-1.87
-1.575
-1.32
-1.1
-0.92
-0.805
-0.68
-0.58
-0.51
-0.53
-0.545
-0.49
-0.355
-0.265
-0.22
-0.185
-0.165
-0.175
-0.185
-0.17
-0.11
-0.075
-0.1
-0.215
-0.27
-0.245
-0.175
-0.115
-0.085
-0.115
-0.14
-0.105
-0.075
-0.02
-0.025
-0.015
0.005
0.08
0.12
0.085
0.0
-0.025
0.085
0.24
0.325
0.31
0.24
0.12
0.06
0.165
0.35
0.485
0.525
0.53
0.525
0.55
0.55
0.54
0.56
0.575
0.58
0.605
0.64
0.665
0.685
0.665
0.66
0.685
0.665
0.59
0.475
0.415
0.435
0.485
0.455
0.36
0.245
0.205
0.205
0.19
0.095
0.04
0.065
0.05
0.045
0.02
0.015
0.025
-0.005
-0.03
-0.045
-0.02
-0.015
-0.005
-0.025
-0.05
-0.05
-0.02
0.035
0.12
0.125
0.03
-0.175
-0.32
-0.35
-0.295
-0.19
-0.14
-0.095
-0.09
-0.09
-0.12
-0.19
-0.335
-0.57
-0.8
-0.945
-1.02
-1.06
-1.03
-0.97
-0.87
-0.755
-0.58
-0.37
-0.155
0.01
0.165
0.355
0.46
0.48
0.455
0.415
0.315
0.205
0.08
-0.085
-0.315
-0.45
-0.345
-0.18
-0.12
-0.165
-0.24
-0.32
-0.41
-0.41
-0.345
-0.285
-0.265
-0.285
-0.3
-0.265
-0.245
-0.245
-0.26
-0.25
-0.22
-0.175
-0.1
-0.07
-0.135
-0.26
-0.395
-0.39
-0.23
-0.065
-0.065
-0.11
-0.13
-0.09
-0.04
-0.035
-0.06
-0.085
-0.09
-0.025
0.075
0.12
0.085
0.025
0.02
0.04
0.085
0.165
0.225
0.27
0.345
0.335
0.27
0.14
0.06
0.13
0.235
0.265
0.245
0.21
0.125
0.05
-0.01
-0.01
0.06
0.105
0.09
0.045
0.0
-0.025
-0.045
-0.03
-0.005
0.03
0.01
-0.11
-0.27
-0.355
-0.335
-0.235
-0.19
-0.195
-0.19
-0.2
-0.215
-0.185
-0.175
-0.185
-0.21
-0.185
-0.145
-0.035
0.075
0.095
0.02
-0.175
-0.345
-0.325
-0.165
-0.06
-0.08
-0.11
-0.11
-0.11
-0.105
-0.125
-0.14
-0.15
-0.16
-0.135
-0.105
-0.085
-0.07
-0.05
-0.035
-0.09
-0.245
-0.38
-0.375
-0.265
-0.2
-0.19
-0.18
-0.165
-0.155
-0.19
-0.23
-0.26
-0.335
-0.5
-0.765
-0.985
-1.05
-0.97
-0.78
-0.605
-0.44
-0.305
-0.13
0.03
0.145
0.26
0.35
0.42
0.415
0.33
0.17
0.01
-0.1
-0.195
-0.275
-0.285
-0.24
-0.21
-0.22
-0.235
-0.225
-0.215
-0.22
-0.2
-0.16
-0.175
-0.245
-0.29
-0.285
-0.235
-0.195
-0.185
-0.21
-0.245
-0.23
-0.175
-0.12
-0.105
-0.09
-0.085
-0.045
-0.015
0.005
0.01
0.025
0.055
0.115
0.155
0.195
0.225
0.265
0.29
0.32
0.35
0.355
0.34
0.37
0.42
0.465
0.465
0.46
0.46
0.435
0.415
0.385
0.375
0.365
0.32
0.27
0.22
0.225
0.21
0.165
0.115
0.075
0.05
0.015
0.01
0.015
0.0
-0.04
-0.115
-0.125
-0.09
-0.1
-0.12
-0.135
-0.1
-0.08
-0.07
-0.065
-0.075
-0.085
-0.115
-0.14
-0.13
-0.065
-0.05
-0.09
-0.125
-0.14
-0.13
-0.14
-0.145
-0.14
-0.12
-0.12
-0.1
-0.07
-0.05
-0.105
-0.265
-0.445
-0.63
-0.885
-1.205
-1.51
-1.735
-1.765
-1.65
-1.495
-1.405
-1.31
-1.09
-0.775
-0.49
-0.27
-0.07
0.035
0.08
0.11
0.125
0.06
-0.09
-0.2
-0.245
-0.28
-0.31
-0.315
-0.3
-0.275
-0.28
-0.28
-0.285
-0.285
-0.285
-0.29
-0.285
-0.285
-0.315
-0.345
-0.36
-0.335
-0.295
-0.27
-0.245
-0.22
-0.185
-0.195
-0.23
-0.275
-0.305
-0.3
-0.26
-0.22
-0.19
-0.2
-0.165
-0.135
-0.115
-0.115
-0.1
-0.06
-0.01
0.0
-0.02
-0.05
-0.02
0.005
0.02
0.055
0.08
0.08
0.095
0.09
0.14
0.165
0.17
0.185
0.21
0.265
0.29
0.265
0.24
0.225
0.185
0.155
0.12
0.05
-0.01
-0.075
-0.06
0.065
0.18
0.14
-0.07
-0.29
-0.355
-0.315
-0.24
-0.2
-0.19
-0.21
-0.215
-0.225
-0.23
-0.24
-0.265
-0.305
-0.315
-0.295
-0.265
-0.235
-0.21
-0.18
-0.175
-0.16
-0.185
-0.195
-0.17
-0.14
-0.14
-0.16
-0.14
-0.125
-0.1
-0.115
-0.115
-0.11
-0.1
-0.1
-0.12
-0.145
-0.15
-0.13
-0.115
-0.115
-0.13
-0.14
-0.11
-0.085
-0.095
-0.155
-0.2
-0.245
-0.235
-0.195
-0.17
-0.145
-0.15
-0.2
-0.245
-0.25
-0.21
-0.195
-0.235
-0.285
-0.315
-0.32
-0.33
-0.335
-0.29
-0.28
-0.28
-0.325
-0.32
-0.335
-0.3
-0.32
-0.32
-0.305
-0.26
-0.215
-0.225
-0.265
-0.27
-0.265
-0.24
-0.24
-0.245
-0.25
-0.255
-0.255
-0.22
-0.19
-0.18
-0.17
-0.175
-0.15
-0.15
-0.195
-0.235
-0.275
-0.21
-0.13
-0.1
-0.12
-0.16
-0.22
-0.245
-0.215
-0.16
-0.14
-0.145
-0.17
-0.22
-0.275
-0.295
-0.28
-0.245
-0.235
-0.26
-0.295
-0.325
-0.33
-0.33
-0.325
-0.29
-0.265
-0.26
-0.285
-0.305
-0.315
-0.31
-0.285
-0.275
-0.28
-0.3
-0.335
-0.36
-0.34
-0.3
-0.255
-0.255
-0.255
-0.27
-0.28
-0.255
-0.21
-0.175
-0.18
-0.2
-0.19
-0.185
-0.21
-0.235
-0.235
-0.22
-0.19
-0.22
-0.265
-0.295
-0.29
-0.27
-0.235
-0.205
-0.16
-0.15
-0.155
-0.22
-0.285
-0.345
-0.345
-0.25
-0.16
-0.2
-0.285
-0.32
-0.3
-0.28
-0.295
-0.28
-0.245
-0.195
-0.095
-0.08
-0.145
-0.21
-0.245
-0.255
-0.215
-0.215
-0.225
-0.21
-0.19
-0.17
-0.135
-0.055
-0.005
0.075
0.15
0.29
0.465
0.66
0.805
0.92
0.94
0.84
0.67
0.53
0.47
0.365
0.165
-0.055
-0.19
-0.305
-0.395
-0.45
-0.465
-0.485
-0.495
-0.485
-0.47
-0.46
-0.465
-0.475
-0.49
-0.485
-0.525
-0.55
-0.61
-0.65
-0.655
-0.63
-0.555
-0.49
-0.485
-0.465
-0.455
-0.45
-0.455
-0.465
-0.49
-0.485
-0.51
-0.565
-0.585
-0.51
-0.365
-0.275
-0.27
-0.33
-0.355
-0.335
-0.345
-0.355
-0.38
-0.365
-0.3
-0.19
-0.04
0.085
0.1
-0.005
-0.19
-0.34
-0.355
-0.25
-0.175
-0.175
-0.205
-0.195
-0.13
-0.04
-0.015
-0.015
-0.06
-0.07
-0.05
-0.05
-0.105
-0.16
-0.16
-0.175
-0.18
-0.175
-0.105
0.005
0.035
0.02
0.005
0.0
0.0
-0.03
-0.07
-0.115
-0.105
-0.04
0.0
-0.01
-0.045
-0.04
-0.025
-0.09
-0.195
-0.285
-0.34
-0.29
-0.18
-0.12
-0.145
-0.17
-0.135
-0.035
0.02
0.01
-0.025
-0.04
-0.055
-0.1
-0.135
-0.185
-0.225
-0.29
-0.32
-0.31
-0.185
-0.125
-0.1
-0.1
-0.08
0.005
0.125
0.24
0.29
0.31
0.29
0.32
0.42
0.545
0.575
0.425
0.095
-0.31
-0.675
-1.005
-1.37
-1.79
-2.16
-2.415
-2.56
-2.6
-2.65
-2.685
-2.715
-2.73
-2.74
-2.74
-2.735
-2.75
-2.765
-2.725
-2.69
-2.61
-2.5
-2.365
-2.285
-2.165
-2.025
-1.925
-1.795
-1.655
-1.525
-1.385
-1.21
-0.99
-0.735
-0.505
-0.315
-0.145
0.035
0.2
0.35
0.465
0.53
0.57
0.59
0.615
0.635
0.705
0.77
0.795
0.82
0.875
0.965
1.055
1.115
1.12
1.16
1.225
1.3
1.365
1.43
1.47
1.55
1.64
1.71
1.765
1.8
1.83
1.89
1.93
1.935
1.95
1.985
2.025
2.055
2.11
2.135
2.15
2.165
2.165
2.17
2.18
2.18
2.14
2.075
2.0
1.96
1.985
1.975
1.905
1.83
1.785
1.76
1.71
1.66
1.59
1.545
1.5
1.485
1.435
1.355
1.325
1.31
1.285
1.18
1.05
0.89
0.775
0.71
0.665
0.62
0.59
0.525
0.47
0.435
0.41
0.37
0.305
0.26
0.22
0.21
0.17
0.115
0.085
0.065
0.03
-0.03
-0.08
-0.06
-0.045
-0.06
-0.1
-0.155
-0.195
-0.21
-0.225
-0.2
-0.19
-0.195
-0.22
-0.25
-0.235
-0.23
-0.265
-0.335
-0.36
-0.33
-0.3
-0.315
-0.345
-0.385
-0.415
-0.415
-0.395
-0.38
-0.37
-0.385
-0.405
-0.41
-0.36
-0.335
-0.345
-0.37
-0.365
-0.325
-0.29
-0.27
-0.275
-0.275
-0.31
-0.35
-0.38
-0.36
-0.325
-0.325
-0.31
-0.31
-0.3
-0.325
-0.325
-0.325
-0.33
-0.335
-0.355
-0.36
-0.32
-0.28
-0.23
-0.22
-0.235
-0.315
-0.39
-0.485
-0.605
-0.78
-0.905
-1.025
-1.065
-1.06
-1.0
-0.865
-0.7
-0.52
-0.315
-0.15
0.015
0.11
0.1
0.06
0.07
0.11
0.05
-0.095
-0.23
-0.31
-0.385
-0.445
-0.51
-0.485
-0.415
-0.43
-0.475
-0.495
-0.495
-0.485
-0.49
-0.495
-0.51
-0.53
-0.525
-0.515
-0.5
-0.465
-0.455
-0.495
-0.505
-0.47
-0.46
-0.445
-0.415
-0.395
-0.365
-0.365
-0.365
-0.38
-0.415
-0.47
-0.465
-0.395
-0.325
-0.32
-0.345
-0.355
-0.345
-0.285
-0.245
-0.225
-0.23
-0.25
-0.255
-0.24
-0.19
-0.135
-0.125
-0.165
-0.19
-0.185
-0.14
-0.125
-0.135
-0.145
-0.15
-0.165
-0.175
-0.235
-0.255
-0.245
-0.24
-0.24
-0.22
-0.22
-0.235
-0.245
-0.235
-0.205
-0.175
-0.18
-0.23
-0.285
-0.305
-0.3
-0.285
-0.27
-0.23
-0.235
-0.255
-0.285
-0.275
-0.265
-0.25
-0.235
-0.27
-0.29
-0.29
-0.27
-0.265
-0.305
-0.28
-0.275
-0.26
-0.255
-0.27
-0.305
-0.325
-0.32
-0.3
-0.275
-0.235
-0.225
-0.215
-0.225
-0.265
-0.255
-0.23
-0.245
-0.255
-0.27
-0.265
-0.21
-0.185
-0.22
-0.28
-0.245
-0.205
-0.205
-0.235
-0.26
-0.25
-0.2
-0.155
-0.125
-0.15
-0.22
-0.3
-0.315
-0.28
-0.25
-0.255
-0.3
-0.3
-0.255
-0.23
-0.225
-0.245
-0.265
-0.3
-0.355
-0.395
-0.35
-0.285
-0.275
-0.315
-0.36
-0.295
-0.215
-0.19
-0.245
-0.29
-0.265
-0.225
-0.255
-0.38
-0.55
-0.665
-0.685
-0.585
-0.44
-0.295
-0.145
0.035
0.195
0.365
0.51
0.565
0.615
0.72
0.79
0.825
0.78
0.68
0.515
0.295
0.09
-0.075
-0.195
-0.26
-0.28
-0.29
-0.295
-0.315
-0.31
-0.345
-0.38
-0.405
-0.395
-0.375
-0.37
-0.36
-0.355
-0.34
-0.37
-0.4
-0.465
-0.49
-0.47
-0.42
-0.335
-0.28
-0.275
-0.305
-0.385
-0.455
-0.4
-0.325
-0.285
-0.25
-0.25
-0.235
-0.21
-0.185
-0.13
-0.095
-0.07
-0.04
0.0
0.02
0.06
0.065
0.055
0.07
0.085
0.115
0.15
0.175
0.19
0.225
0.23
0.235
0.245
0.28
0.295
0.29
0.27
0.27
0.29
0.28
0.215
0.18
0.16
0.14
0.09
0.05
-0.005
-0.075
-0.085
-0.045
-0.01
-0.03
-0.075
-0.105
-0.1
-0.12
-0.175
-0.225
-0.21
-0.185
-0.2
-0.235
-0.28
-0.23
-0.19
-0.21
-0.24
-0.23
-0.185
-0.16
-0.18
-0.18
-0.175
-0.14
-0.13
-0.135
-0.155
-0.15
-0.16
-0.17
-0.18
-0.185
-0.165
-0.2
-0.205
-0.185
-0.18
-0.2
-0.23
-0.23
-0.205
-0.195
-0.205
-0.245
-0.275
-0.27
-0.235
-0.21
-0.23
-0.24
-0.235
-0.2
-0.19
-0.16
-0.12
-0.105
-0.13
-0.17
-0.245
-0.32
-0.36
-0.31
-0.275
-0.255
-0.255
-0.28
-0.27
-0.265
-0.255
-0.24
-0.22
-0.22
-0.24
-0.235
-0.23
-0.225
-0.215
-0.22
-0.18
-0.175
-0.17
-0.155
-0.145
-0.14
-0.155
-0.155
-0.13
-0.11
-0.12
-0.095
-0.085
-0.1
-0.16
-0.225
-0.26
-0.22
-0.175
-0.15
-0.18
-0.21
-0.195
-0.175
-0.165
-0.15
-0.18
-0.195
-0.22
-0.21
-0.21
-0.165
-0.14
-0.11
-0.095
-0.08
-0.07
-0.08
-0.11
-0.125
-0.125
-0.15
-0.17
-0.195
-0.205
-0.125
0.035
0.185
0.31
0.385
0.46
0.54
0.62
0.7
0.77
0.805
0.895
1.01
1.035
0.99
0.9
0.765
0.59
0.375
0.175
0.035
-0.11
-0.21
-0.25
-0.245
-0.255
-0.285
-0.35
-0.38
-0.38
-0.38
-0.415
-0.425
-0.39
-0.375
-0.385
-0.385
-0.39
-0.435
-0.49
-0.49
-0.445
-0.38
-0.37
-0.38
-0.365
-0.355
-0.395
-0.485
-0.54
-0.545
-0.5
-0.445
-0.4
-0.375
-0.345
-0.31
-0.285
-0.255
-0.22
-0.195
-0.145
-0.095
-0.07
-0.065
-0.025
0.015
0.02
0.01
-0.06
-0.08
-0.045
0.025
0.05
0.05
0.08
0.1
0.12
0.155
0.145
0.15
0.145
0.165
0.135
0.105
0.075
0.06
0.05
0.025
0.015
0.02
-0.01
-0.035
-0.055
-0.06
-0.04
-0.015
0.015
0.0
-0.05
-0.1
-0.105
-0.1
-0.11
-0.155
-0.225
-0.23
-0.235
-0.255
-0.245
-0.21
-0.215
-0.285
-0.325
-0.295
-0.23
-0.185
-0.155
-0.115
-0.115
-0.135
-0.165
-0.17
-0.14
-0.085
-0.08
-0.11
-0.16
-0.155
-0.155
-0.15
-0.16
-0.17
-0.155
-0.125
-0.095
-0.04
0.015
0.04
-0.005
-0.08
-0.185
-0.225
-0.21
-0.15
-0.115
-0.06
-0.06
-0.09
-0.1
-0.115
-0.075
-0.045
-0.065
-0.08
-0.075
-0.065
-0.035
-0.02
-0.005
-0.03
-0.095
-0.17
-0.275
-0.385
-0.425
-0.38
-0.285
-0.17
-0.03
0.075
0.18
0.31
0.48
0.645
0.74
0.835
0.925
0.98
0.955
0.905
0.82
0.67
0.425
0.16
-0.05
-0.25
-0.4
-0.465
-0.465
-0.445
-0.435
-0.425
-0.44
-0.45
-0.44
-0.435
-0.445
-0.47
-0.475
-0.465
-0.46
-0.48
-0.49
-0.475
-0.425
-0.395
-0.39
-0.395
-0.41
-0.425
-0.44
-0.44
-0.41
-0.385
-0.39
-0.4
-0.385
-0.345
-0.305
-0.28
-0.235
-0.16
-0.065
-0.025
-0.07
-0.165
-0.255
-0.285
-0.26
-0.17
-0.06
-0.01
0.0
0.015
0.055
0.1
0.11
0.105
0.105
0.125
0.165
0.17
0.17
0.21
0.23
0.24
0.26
0.25
0.19
0.11
0.02
-0.045
-0.035
0.005
0.025
-0.005
-0.055
-0.095
-0.12
-0.12
-0.115
-0.09
-0.105
-0.155
-0.185
-0.18
-0.145
-0.115
-0.11
-0.15
-0.195
-0.225
-0.21
-0.2
-0.235
-0.25
-0.29
-0.3
-0.315
-0.305
-0.29
-0.21
-0.13
-0.085
0.0
0.085
0.085
-0.075
-0.265
-0.44
-0.485
-0.355
-0.23
-0.23
-0.32
-0.39
-0.39
-0.335
-0.305
-0.31
-0.27
-0.235
-0.235
-0.26
-0.305
-0.255
-0.22
-0.18
-0.17
-0.175
-0.18
-0.16
-0.175
-0.17
-0.12
-0.045
0.015
0.0
-0.02
-0.105
-0.235
-0.33
-0.335
-0.285
