Lead II
-0.4
-0.4
-0.385
-0.37
-0.36
-0.36
-0.38
-0.365
-0.365
-0.35
-0.37
-0.39
-0.435
-0.47
-0.47
-0.43
-0.315
-0.09
0.205
0.555
0.95
1.355
1.73
2.045
2.27
2.34
2.245
1.99
1.625
1.17
0.665
0.16
-0.29
-0.66
-0.945
-1.09
-1.115
-1.06
-0.925
-0.79
-0.7
-0.62
-0.59
-0.59
-0.595
-0.615
-0.645
-0.68
-0.69
-0.7
-0.69
-0.675
-0.67
-0.675
-0.675
-0.69
-0.695
-0.695
-0.705
-0.705
-0.695
-0.695
-0.7
-0.7
-0.695
-0.695
-0.68
-0.665
-0.66
-0.645
-0.64
-0.66
-0.67
-0.65
-0.64
-0.605
-0.565
-0.545
-0.53
-0.52
-0.515
-0.52
-0.505
-0.485
-0.45
-0.425
-0.39
-0.375
-0.355
-0.305
-0.27
-0.225
-0.19
-0.155
-0.15
-0.125
-0.11
-0.085
-0.065
-0.02
0.025
0.06
0.11
0.13
0.145
0.165
0.175
0.2
0.235
0.27
0.29
0.305
0.3
0.305
0.31
0.32
0.345
0.345
0.355
0.34
0.32
0.295
0.28
0.27
0.245
0.22
0.195
0.165
0.125
0.1
0.065
0.03
0.01
-0.035
-0.07
-0.1
-0.135
-0.165
-0.185
-0.205
-0.235
-0.25
-0.28
-0.315
-0.335
-0.375
-0.36
-0.38
-0.365
-0.37
-0.375
-0.385
-0.4
-0.405
-0.405
-0.39
-0.385
-0.38
-0.38
-0.38
-0.38
-0.38
-0.36
-0.35
-0.33
-0.3
-0.295
-0.265
-0.255
-0.245
-0.22
-0.205
-0.185
-0.165
-0.15
-0.135
-0.13
-0.15
-0.15
-0.175
-0.195
-0.225
-0.265
-0.315
-0.37
-0.41
-0.455
-0.49
-0.495
-0.51
-0.525
-0.53
-0.545
-0.55
-0.545
-0.545
-0.525
-0.5
-0.495
-0.495
-0.5
-0.51
-0.525
-0.54
-0.545
-0.56
-0.575
-0.595
-0.615
-0.6
-0.58
-0.535
-0.45
-0.335
-0.18
0.0
0.25
0.545
0.905
1.3
1.7
2.065
2.375
2.58
2.66
2.61
2.485
2.265
1.98
1.63
1.255
0.865
0.445
0.03
-0.345
-0.635
-0.785
-0.835
-0.8
-0.755
-0.735
-0.74
-0.785
-0.815
-0.85
-0.86
-0.88
-0.875
-0.885
-0.9
-0.92
-0.945
-0.95
-0.97
-0.98
-0.985
-0.995
-0.99
-1.01
-1.02
-1.04
-1.045
-1.06
-1.065
-1.075
-1.095
-1.105
-1.1
-1.1
-1.095
-1.09
-1.075
-1.085
-1.095
-1.105
-1.115
-1.115
-1.125
-1.105
-1.095
-1.075
-1.055
-1.04
-1.045
-1.03
-1.03
-1.005
-0.99
-0.98
-0.94
-0.92
-0.9
-0.865
-0.83
-0.795
-0.755
-0.715
-0.68
-0.65
-0.62
-0.59
-0.57
-0.525
-0.485
-0.435
-0.385
-0.34
-0.295
-0.265
-0.235
-0.205
-0.18
-0.135
-0.1
-0.045
-0.015
0.015
0.025
0.065
0.08
0.1
0.125
0.135
0.13
0.125
0.115
0.105
0.115
0.12
0.13
0.13
0.12
0.11
0.09
0.06
0.03
0.01
-0.005
-0.01
-0.005
-0.03
-0.035
-0.055
-0.08
-0.12
-0.145
-0.175
-0.19
-0.215
-0.24
-0.27
-0.29
-0.3
-0.3
-0.305
-0.295
-0.285
-0.285
-0.29
-0.3
-0.32
-0.32
-0.35
-0.335
-0.31
-0.29
-0.255
-0.24
-0.225
-0.21
-0.19
-0.18
-0.16
-0.135
-0.11
-0.1
-0.085
-0.075
-0.065
-0.07
-0.055
-0.05
-0.06
-0.085
-0.12
-0.195
-0.24
-0.3
-0.335
-0.36
-0.37
-0.38
-0.39
-0.39
-0.395
-0.4
-0.41
-0.405
-0.385
-0.375
-0.365
-0.36
-0.355
-0.37
-0.365
-0.385
-0.38
-0.375
-0.37
-0.355
-0.355
-0.355
-0.36
-0.36
-0.37
-0.375
-0.39
-0.405
-0.405
-0.375
-0.275
-0.1
0.19
0.575
1.01
1.495
1.95
2.28
2.43
2.385
2.185
1.875
1.51
1.1
0.695
0.295
-0.065
-0.405
-0.66
-0.805
-0.82
-0.74
-0.63
-0.505
-0.42
-0.4
-0.42
-0.445
-0.485
-0.51
-0.51
-0.515
-0.5
-0.515
-0.51
-0.51
-0.51
-0.505
-0.505
-0.505
-0.51
-0.52
-0.525
-0.52
-0.505
-0.495
-0.48
-0.475
-0.475
-0.475
-0.48
-0.475
-0.46
-0.43
-0.405
-0.385
-0.385
-0.385
-0.365
-0.355
-0.325
-0.29
-0.26
-0.23
-0.2
-0.185
-0.155
-0.13
-0.105
-0.07
-0.025
0.005
0.04
0.075
0.095
0.13
0.17
0.2
0.245
0.275
0.315
0.34
0.375
0.405
0.44
0.49
0.53
0.58
0.59
0.625
0.63
0.655
0.67
0.685
0.705
0.705
0.71
0.71
0.715
0.715
0.7
0.715
0.705
0.705
0.7
0.67
0.635
0.63
0.605
0.585
0.57
0.565
0.575
0.57
0.545
0.505
0.475
0.425
0.39
0.36
0.345
0.32
0.3
0.265
0.235
0.195
0.165
0.14
0.13
0.095
0.085
0.04
0.005
-0.04
-0.07
-0.09
-0.1
-0.105
-0.115
-0.135
-0.15
-0.17
-0.185
-0.195
-0.185
-0.175
-0.15
-0.14
-0.135
-0.12
-0.125
-0.125
-0.14
-0.135
-0.135
-0.12
-0.1
-0.085
-0.06
-0.04
-0.005
0.03
0.07
0.09
0.1
0.105
0.1
0.105
0.12
0.145
0.16
0.165
0.15
0.135
0.085
0.02
-0.04
-0.1
-0.14
-0.18
-0.195
-0.22
-0.22
-0.22
-0.22
-0.21
-0.21
-0.21
-0.225
-0.27
-0.32
-0.355
-0.385
-0.385
-0.35
-0.255
-0.13
0.03
0.205
0.395
0.56
0.745
0.935
1.13
1.335
1.545
1.735
1.885
2.005
2.105
2.22
2.345
2.49
2.62
2.73
2.815
2.875
2.9
2.9
2.875
2.81
2.7
2.495
2.21
1.815
1.39
0.91
0.43
-0.005
-0.375
-0.6
-0.71
-0.7
-0.665
-0.635
-0.62
-0.655
-0.7
-0.765
-0.805
-0.84
-0.85
-0.855
-0.89
-0.895
-0.915
-0.92
-0.935
-0.945
-0.955
-0.965
-0.995
-1.025
-1.055
-1.065
-1.085
-1.095
-1.09
-1.085
-1.09
-1.11
-1.12
-1.155
-1.175
-1.2
-1.215
-1.22
-1.225
-1.22
-1.22
-1.225
-1.24
-1.25
-1.265
-1.275
-1.28
-1.29
-1.285
-1.29
-1.295
-1.28
-1.255
-1.225
-1.205
-1.185
-1.16
-1.145
-1.135
-1.105
-1.08
-1.03
-1.0
-0.95
-0.9
-0.865
-0.835
-0.8
-0.76
-0.74
-0.69
-0.645
-0.585
-0.535
-0.49
-0.445
-0.39
-0.345
-0.29
-0.23
-0.2
-0.18
-0.17
-0.155
-0.145
-0.115
-0.08
-0.045
0.0
0.03
0.035
0.025
0.01
0.0
-0.01
0.0
0.0
0.01
0.015
-0.01
-0.01
-0.045
-0.055
-0.06
-0.085
-0.09
-0.12
-0.145
-0.175
-0.215
-0.24
-0.245
-0.255
-0.26
-0.25
-0.27
-0.295
-0.31
-0.335
-0.36
-0.37
-0.365
-0.355
-0.345
-0.36
-0.35
-0.35
-0.355
-0.365
-0.345
-0.335
-0.325
-0.31
-0.31
-0.305
-0.31
-0.3
-0.305
-0.28
-0.275
-0.265
-0.25
-0.245
-0.23
-0.225
-0.17
-0.135
-0.09
-0.055
-0.035
-0.01
-0.015
-0.015
-0.04
-0.02
-0.015
-0.03
-0.045
-0.07
-0.125
-0.175
-0.22
-0.27
-0.285
-0.32
-0.315
-0.32
-0.34
-0.355
-0.35
-0.35
-0.335
-0.335
-0.315
-0.315
-0.315
-0.325
-0.33
-0.33
-0.325
-0.325
-0.33
-0.335
-0.33
-0.33
-0.315
-0.31
-0.325
-0.345
-0.375
-0.4
-0.37
-0.25
-0.04
0.255
0.635
1.06
1.52
1.93
2.265
2.45
2.43
2.245
1.905
1.485
1.015
0.525
0.045
-0.36
-0.72
-0.945
-1.03
-1.0
-0.905
-0.76
-0.65
-0.57
-0.54
-0.55
-0.56
-0.59
-0.615
-0.635
-0.64
-0.64
-0.65
-0.665
-0.66
-0.65
-0.66
-0.675
-0.675
-0.68
-0.68
-0.675
-0.665
-0.66
-0.655
-0.655
-0.665
-0.68
-0.68
-0.67
-0.655
-0.645
-0.62
-0.615
-0.62
-0.62
-0.61
-0.595
-0.58
-0.565
-0.55
-0.54
-0.545
-0.525
-0.48
-0.445
-0.405
-0.395
-0.375
-0.355
-0.32
-0.3
-0.27
-0.235
-0.185
-0.14
-0.105
-0.075
-0.05
-0.03
-0.005
0.03
0.075
0.13
0.16
0.185
0.21
0.25
0.285
0.305
0.34
0.375
0.385
0.39
0.39
0.39
0.4
0.415
0.44
0.46
0.46
0.455
0.44
0.42
0.41
0.395
0.365
0.335
0.315
0.295
0.27
0.245
0.22
0.2
0.185
0.15
0.115
0.075
0.035
0.015
-0.015
-0.02
-0.025
-0.045
-0.06
-0.075
-0.09
-0.095
-0.105
-0.1
-0.1
-0.11
-0.11
-0.105
-0.095
-0.11
-0.1
-0.095
-0.09
-0.08
-0.075
-0.07
-0.065
-0.045
-0.02
0.005
0.045
0.07
0.1
0.115
0.11
0.115
0.11
0.12
0.125
0.11
0.1
0.055
0.015
-0.03
-0.085
-0.135
-0.17
-0.2
-0.23
-0.265
-0.29
-0.3
-0.31
-0.305
-0.29
-0.28
-0.275
-0.28
-0.29
-0.305
-0.32
-0.325
-0.325
-0.32
-0.305
-0.315
-0.325
-0.345
-0.36
-0.385
-0.39
-0.395
-0.375
-0.33
-0.265
-0.165
0.015
0.27
0.59
0.95
1.325
1.68
2.0
2.28
2.495
2.635
2.715
2.685
2.6
2.44
2.205
1.91
1.555
1.16
0.73
0.27
-0.14
-0.44
-0.605
-0.645
-0.605
-0.55
-0.51
-0.5
-0.52
-0.565
-0.6
-0.635
-0.69
-0.71
-0.735
-0.755
-0.755
-0.765
-0.76
-0.76
-0.765
-0.775
-0.79
-0.805
-0.83
-0.845
-0.84
-0.845
-0.86
-0.87
-0.87
-0.88
-0.9
-0.89
-0.895
-0.89
-0.89
-0.905
-0.925
-0.93
-0.95
-0.93
-0.92
-0.905
-0.895
-0.88
-0.89
-0.895
-0.91
-0.9
-0.89
-0.875
-0.85
-0.83
-0.81
-0.79
-0.765
-0.735
-0.72
-0.69
-0.645
-0.615
-0.585
-0.565
-0.54
-0.5
-0.46
-0.405
-0.355
-0.305
-0.265
-0.23
-0.205
-0.195
-0.155
-0.11
-0.065
-0.02
0.02
0.055
0.07
0.1
0.12
0.14
0.165
0.185
0.205
0.205
0.23
0.225
0.22
0.235
0.25
0.25
0.26
0.235
0.215
0.18
0.155
0.135
0.115
0.115
0.11
0.095
0.06
0.035
0.01
-0.01
-0.03
-0.06
-0.08
-0.115
-0.135
-0.155
-0.17
-0.17
-0.175
-0.165
-0.165
-0.175
-0.19
-0.195
-0.195
-0.195
-0.19
-0.185
-0.18
-0.18
-0.165
-0.16
-0.14
-0.105
-0.075
-0.065
-0.045
-0.015
-0.01
-0.005
0.01
0.04
0.085
0.105
0.115
0.11
0.08
0.06
0.015
-0.04
-0.075
-0.13
-0.155
-0.2
-0.23
-0.25
-0.255
-0.255
-0.24
-0.24
-0.235
-0.245
-0.26
-0.265
-0.27
-0.25
-0.245
-0.23
-0.235
-0.25
-0.25
-0.265
-0.27
-0.26
-0.265
-0.25
-0.25
-0.275
-0.305
-0.35
-0.37
-0.365
-0.3
-0.21
-0.035
0.215
0.525
0.895
1.335
1.77
2.15
2.39
2.43
2.29
2.01
1.65
1.235
0.85
0.48
0.14
-0.17
-0.475
-0.67
-0.765
-0.74
-0.655
-0.52
-0.435
-0.37
-0.355
-0.385
-0.435
-0.47
-0.49
-0.495
-0.485
-0.48
-0.465
-0.465
-0.48
-0.515
-0.52
-0.55
-0.545
-0.55
-0.55
-0.55
-0.555
-0.565
-0.58
-0.575
-0.595
-0.575
-0.575
-0.59
-0.575
-0.57
-0.555
-0.54
-0.53
-0.525
-0.52
-0.52
-0.515
-0.51
-0.51
-0.495
-0.46
-0.415
-0.38
-0.35
-0.33
-0.295
-0.27
-0.265
-0.245
-0.2
-0.145
-0.085
-0.04
0.005
0.05
0.095
0.165
0.22
0.255
0.31
0.36
0.405
0.455
0.5
0.55
0.59
0.615
0.635
0.65
0.675
0.675
0.685
0.705
0.725
0.725
0.73
0.745
0.76
0.76
0.77
0.785
0.79
0.775
0.75
0.72
0.695
0.68
0.655
0.65
0.64
0.63
0.615
0.59
0.565
0.54
0.51
0.48
0.455
0.445
0.41
0.375
0.35
0.315
0.3
0.275
0.265
0.27
0.235
0.22
0.17
0.16
0.14
0.14
0.155
0.155
0.16
0.17
0.175
0.15
0.13
0.14
0.14
0.15
0.16
0.18
0.195
0.24
0.275
0.32
0.365
0.385
0.42
0.425
0.415
0.415
0.415
0.43
0.45
0.475
0.485
0.475
0.445
0.38
0.305
0.25
0.19
0.15
0.11
0.085
0.04
0.005
-0.005
0.015
0.055
0.11
0.195
0.31
0.47
0.655
0.87
1.095
1.325
1.555
1.795
2.02
2.22
2.38
2.505
2.615
2.715
2.78
2.815
2.845
2.86
2.825
2.79
2.735
2.695
2.65
2.615
2.595
2.575
2.56
2.535
2.48
2.385
2.24
2.045
1.84
1.57
1.26
0.94
0.625
0.33
0.05
-0.21
-0.415
-0.55
-0.63
-0.64
-0.64
-0.645
-0.66
-0.695
-0.72
-0.77
-0.815
-0.86
-0.885
-0.915
-0.92
-0.9
-0.91
-0.92
-0.94
-0.965
-1.0
-1.035
-1.07
-1.095
-1.11
-1.105
-1.105
-1.095
-1.12
-1.155
-1.18
-1.215
-1.235
-1.24
-1.265
-1.24
-1.24
-1.24
-1.25
-1.255
-1.255
-1.265
-1.255
-1.24
-1.235
-1.23
-1.23
-1.215
-1.185
-1.145
-1.115
-1.065
-1.02
-1.005
-0.985
-0.98
-0.955
-0.915
-0.865
-0.8
-0.75
-0.69
-0.66
-0.625
-0.585
-0.52
-0.47
-0.39
-0.335
-0.275
-0.245
-0.225
-0.205
-0.195
-0.165
-0.12
-0.08
-0.035
0.01
0.035
0.035
0.035
0.045
0.045
0.06
0.07
0.09
0.1
0.085
0.085
0.08
0.08
0.1
0.15
0.205
0.315
0.435
0.57
0.7
0.805
0.88
0.945
0.975
0.995
1.04
1.13
1.24
1.38
1.49
1.595
1.635
1.62
1.5
1.305
1.02
0.705
0.355
-0.065
-0.47
-0.815
-1.03
-1.1
-1.045
-0.89
-0.72
-0.575
-0.5
-0.45
-0.45
-0.465
-0.48
-0.495
-0.49
-0.465
-0.42
-0.365
-0.335
-0.315
-0.345
-0.37
-0.4
-0.43
-0.44
-0.435
-0.41
-0.37
-0.35
-0.33
-0.3
-0.27
-0.235
-0.21
-0.195
-0.18
-0.135
-0.09
-0.04
-0.005
0.025
0.05
0.075
0.09
0.105
0.105
0.085
0.07
0.05
0.04
0.055
0.065
0.085
0.135
0.19
0.25
0.29
0.32
0.345
0.38
0.42
0.46
0.515
0.58
0.625
0.66
0.69
0.715
0.735
0.77
0.79
0.805
0.81
0.795
0.79
0.79
0.79
0.8
0.795
0.775
0.745
0.7
0.67
0.635
0.615
0.575
0.545
0.515
0.465
0.43
0.375
0.325
0.28
0.235
0.22
0.2
0.165
0.135
0.11
0.075
0.05
0.03
0.03
0.005
0.005
0.0
-0.025
-0.04
-0.055
-0.065
-0.05
-0.045
-0.03
-0.025
-0.02
-0.04
-0.06
-0.09
-0.1
-0.095
-0.095
-0.095
-0.09
-0.09
-0.095
-0.085
-0.08
-0.075
-0.095
-0.09
-0.085
-0.105
-0.12
-0.145
-0.15
-0.14
-0.135
-0.11
-0.085
-0.085
-0.095
-0.11
-0.135
-0.155
-0.16
-0.16
-0.14
-0.14
-0.13
-0.125
-0.13
-0.125
-0.14
-0.15
-0.14
-0.15
-0.15
-0.15
-0.165
-0.17
-0.16
-0.155
-0.135
-0.135
-0.12
-0.13
-0.155
-0.17
-0.18
-0.185
-0.165
-0.155
-0.135
-0.125
-0.12
-0.14
-0.155
-0.165
-0.165
-0.165
-0.16
-0.17
-0.17
-0.17
-0.17
-0.17
-0.175
-0.155
-0.15
-0.15
-0.16
-0.175
-0.19
-0.195
-0.205
-0.19
-0.175
-0.16
-0.15
-0.16
-0.165
-0.18
-0.195
-0.205
-0.195
-0.2
-0.18
-0.17
-0.17
-0.175
-0.175
-0.185
-0.195
-0.195
-0.185
-0.195
-0.2
-0.215
-0.21
-0.21
-0.19
-0.18
-0.17
-0.165
-0.17
-0.165
-0.17
-0.18
-0.175
-0.17
-0.155
-0.14
-0.13
-0.125
-0.115
-0.115
-0.11
-0.1
-0.055
-0.025
-0.005
0.005
0.02
0.025
0.04
0.05
0.065
0.085
0.1
0.105
0.1
0.065
0.025
-0.025
-0.065
-0.1
-0.12
-0.145
-0.18
-0.21
-0.23
-0.27
-0.275
-0.285
-0.285
-0.295
-0.275
-0.27
-0.255
-0.26
-0.28
-0.285
-0.285
-0.28
-0.255
-0.25
-0.245
-0.25
-0.255
-0.255
-0.26
-0.26
-0.255
-0.27
-0.295
-0.33
-0.325
-0.285
-0.15
0.08
0.395
0.79
1.22
1.66
2.05
2.37
2.545
2.57
2.445
2.22
1.925
1.565
1.19
0.78
0.395
0.03
-0.31
-0.585
-0.74
-0.79
-0.735
-0.635
-0.51
-0.425
-0.375
-0.37
-0.395
-0.43
-0.445
-0.475
-0.485
-0.505
-0.51
-0.505
-0.495
-0.505
-0.515
-0.53
-0.54
-0.555
-0.555
-0.535
-0.525
-0.525
-0.53
-0.54
-0.55
-0.555
-0.545
-0.53
-0.515
-0.5
-0.485
-0.485
-0.49
-0.515
-0.5
-0.49
-0.48
-0.465
-0.455
-0.44
-0.44
-0.445
-0.425
-0.415
-0.4
-0.385
-0.37
-0.375
-0.375
-0.375
-0.355
-0.35
-0.32
-0.295
-0.26
-0.235
-0.22
-0.22
-0.21
-0.205
-0.185
-0.16
-0.12
-0.105
-0.08
-0.065
-0.045
-0.04
0.0
0.015
0.06
0.065
0.1
0.125
0.165
0.19
0.225
0.27
0.31
0.345
0.37
0.39
0.395
0.4
0.41
0.42
0.455
0.47
0.485
0.495
0.485
0.48
0.47
0.45
0.425
0.405
0.4
0.38
0.355
0.33
0.295
0.305
0.295
0.275
0.27
0.24
0.225
0.205
0.19
0.18
0.205
0.215
0.225
0.215
0.22
0.22
0.225
0.22
0.23
0.23
0.225
0.225
0.22
0.225
0.225
0.235
0.255
0.295
0.305
0.32
0.325
0.32
0.315
0.3
0.295
0.325
0.345
0.36
0.36
0.355
0.33
0.305
0.265
0.22
0.16
0.1
0.045
-0.02
-0.065
-0.1
-0.125
-0.125
-0.115
-0.12
-0.14
-0.145
-0.165
-0.165
-0.165
-0.16
-0.155
-0.16
-0.15
-0.155
-0.17
-0.18
-0.17
-0.165
-0.16
-0.165
-0.19
-0.205
-0.235
-0.265
-0.285
-0.29
-0.25
-0.165
-0.025
0.21
0.52
0.9
1.335
1.785
2.15
2.39
2.44
2.32
2.04
1.68
1.275
0.875
0.495
0.125
-0.225
-0.515
-0.72
-0.785
-0.725
-0.595
-0.46
-0.34
-0.285
-0.285
-0.325
-0.4
-0.445
-0.45
-0.455
-0.445
-0.43
-0.44
-0.445
-0.455
-0.475
-0.475
-0.495
-0.495
-0.505
-0.505
-0.515
-0.51
-0.505
-0.51
-0.495
-0.505
-0.51
-0.53
-0.545
-0.55
-0.555
-0.53
-0.5
-0.49
-0.48
-0.48
-0.48
-0.475
-0.48
-0.46
-0.44
-0.425
-0.405
-0.4
-0.38
-0.35
-0.335
-0.295
-0.275
-0.245
-0.215
-0.19
-0.165
-0.135
-0.1
-0.065
-0.015
0.04
0.1
0.15
0.185
0.205
0.245
0.275
0.315
0.36
0.405
0.44
0.465
0.48
0.5
0.53
0.535
0.58
0.59
0.62
0.635
0.64
0.64
0.645
0.655
0.67
0.675
0.69
0.66
0.64
0.615
0.6
0.59
0.58
0.58
0.595
0.595
0.585
0.565
0.53
0.505
0.49
0.465
0.455
0.445
0.425
0.4
0.38
0.365
0.37
0.375
0.365
0.36
0.335
0.31
0.28
0.255
0.24
0.24
0.255
0.28
0.31
0.325
0.32
0.31
0.295
0.285
0.28
0.29
0.285
0.3
0.34
0.365
0.39
0.435
0.475
0.495
0.515
0.525
0.54
0.545
0.545
0.565
0.59
0.625
0.64
0.655
0.63
0.605
0.55
0.495
0.435
0.395
0.355
0.34
0.325
0.3
0.295
0.275
0.27
0.26
0.245
0.25
0.27
0.28
0.28
0.27
0.245
0.25
0.26
0.28
0.295
0.3
0.29
0.285
0.26
0.24
0.225
0.22
0.235
0.23
0.215
0.2
0.24
0.325
0.49
0.745
1.06
1.46
1.865
2.25
2.56
2.685
2.675
2.46
2.13
1.725
1.3
0.875
0.465
0.12
-0.165
-0.365
-0.49
-0.515
-0.445
-0.335
-0.2
-0.11
-0.05
-0.02
-0.03
-0.05
-0.08
-0.11
-0.13
-0.145
-0.15
-0.155
-0.155
-0.16
-0.16
-0.155
-0.17
-0.195
-0.225
-0.24
-0.25
-0.235
-0.23
-0.21
-0.205
-0.2
-0.2
-0.195
-0.2
-0.205
-0.2
-0.195
-0.17
-0.15
-0.125
-0.12
-0.105
-0.09
-0.08
-0.055
-0.045
-0.03
-0.01
-0.005
0.025
0.055
0.095
0.13
0.16
0.175
0.2
0.225
0.24
0.275
0.31
0.34
0.375
0.38
0.415
0.435
0.475
0.495
0.525
0.56
0.58
0.595
0.62
0.635
0.67
0.705
0.74
0.77
0.78
0.77
0.76
0.76
0.75
0.765
0.78
0.79
0.795
0.77
0.735
0.71
0.685
0.68
0.655
0.635
0.6
0.58
0.55
0.525
0.5
0.485
0.49
0.46
0.41
0.38
0.335
0.315
0.28
0.255
0.225
0.21
0.18
0.15
0.145
0.125
0.11
0.11
0.085
0.06
0.03
0.0
-0.025
-0.035
-0.035
-0.025
-0.02
-0.005
0.0
-0.015
-0.015
-0.015
-0.005
0.005
0.03
0.045
0.05
0.035
0.03
0.03
0.045
0.07
0.09
0.105
0.12
0.145
0.175
0.21
0.25
0.275
0.3
0.32
0.32
0.325
0.32
0.315
0.285
0.255
0.21
0.155
0.11
0.055
-0.005
-0.025
-0.035
-0.045
-0.05
-0.055
-0.065
-0.07
-0.07
-0.06
-0.055
-0.05
-0.045
-0.055
-0.065
-0.075
-0.095
-0.085
-0.07
-0.065
-0.07
-0.07
-0.07
-0.085
-0.1
-0.125
-0.14
-0.14
-0.1
0.04
0.28
0.63
1.08
1.58
2.05
2.41
2.595
2.56
2.335
1.975
1.575
1.13
0.695
0.28
-0.09
-0.445
-0.73
-0.875
-0.905
-0.81
-0.665
-0.52
-0.395
-0.335
-0.325
-0.335
-0.365
-0.385
-0.39
-0.4
-0.395
-0.395
-0.4
-0.415
-0.43
-0.435
-0.44
-0.44
-0.445
-0.445
-0.45
-0.47
-0.465
-0.445
-0.435
-0.425
-0.415
-0.425
-0.435
-0.455
-0.45
-0.46
-0.44
-0.41
-0.38
-0.375
-0.365
-0.36
-0.35
-0.36
-0.355
-0.345
-0.32
-0.305
-0.285
-0.275
-0.24
-0.235
-0.215
-0.185
-0.165
-0.14
-0.12
-0.1
-0.075
-0.065
-0.045
-0.02
0.015
0.055
0.085
0.115
0.115
0.135
0.17
0.18
0.215
0.255
0.295
0.345
0.365
0.39
0.405
0.4
0.425
0.435
0.47
0.485
0.515
0.525
0.535
0.53
0.535
0.54
0.55
0.555
0.545
0.535
0.52
0.495
0.48
0.46
0.445
0.425
0.42
0.415
0.39
0.35
0.29
0.265
0.245
0.23
0.21
0.18
0.17
0.15
0.115
0.09
0.06
0.065
0.05
0.035
0.02
-0.01
-0.03
-0.04
-0.04
-0.025
-0.03
-0.01
0.0
-0.01
-0.03
-0.035
-0.03
-0.03
-0.025
-0.005
-0.005
0.005
0.005
0.04
0.07
0.1
0.14
0.175
0.19
0.195
0.195
0.205
0.22
0.24
0.255
0.285
0.285
0.275
0.245
0.205
0.17
0.125
0.06
0.015
-0.03
-0.08
-0.105
-0.13
-0.15
-0.16
-0.15
-0.14
-0.14
-0.145
-0.15
-0.17
-0.19
-0.185
-0.16
-0.16
-0.14
-0.145
-0.145
-0.16
-0.165
-0.16
-0.16
-0.155
-0.155
-0.16
-0.195
-0.225
-0.25
-0.23
-0.155
0.0
0.23
0.54
0.915
1.365
1.83
2.235
2.525
2.64
2.57
2.355
2.07
1.735
1.345
0.97
0.575
0.16
-0.23
-0.53
-0.69
-0.695
-0.585
-0.455
-0.33
-0.27
-0.28
-0.32
-0.375
-0.42
-0.47
-0.47
-0.465
-0.465
-0.445
-0.455
-0.455
-0.475
-0.51
-0.515
-0.51
-0.51
-0.5
-0.51
-0.515
-0.53
-0.52
-0.54
-0.525
-0.525
-0.525
-0.53
-0.54
-0.545
-0.535
-0.535
-0.525
-0.5
-0.495
-0.48
-0.48
-0.49
-0.5
-0.485
-0.47
-0.44
-0.4
-0.38
-0.365
-0.34
-0.32
-0.305
-0.27
-0.235
-0.215
-0.175
-0.155
-0.125
-0.09
-0.035
0.01
0.045
0.105
0.145
0.165
0.175
0.195
0.24
0.28
0.315
0.365
0.4
0.445
0.475
0.51
0.535
0.55
0.59
0.6
0.605
0.585
0.605
0.625
0.63
0.655
0.66
0.66
0.64
0.625
0.605
0.585
0.57
0.56
0.54
0.535
0.495
0.485
0.455
0.435
0.405
0.375
0.38
0.36
0.335
0.3
0.265
0.245
0.23
0.22
0.21
0.205
0.195
0.185
0.16
0.145
0.135
0.13
0.14
0.15
0.15
0.145
0.135
0.145
0.135
0.155
0.18
0.21
0.245
0.26
0.245
0.275
0.27
0.285
0.32
0.345
0.375
0.37
0.375
0.34
0.31
0.265
0.22
0.17
0.12
0.085
0.04
0.0
-0.025
-0.04
-0.045
-0.04
-0.025
-0.02
-0.025
-0.035
-0.05
-0.055
-0.04
-0.045
-0.03
-0.03
-0.03
-0.04
-0.07
-0.065
-0.065
-0.05
-0.045
-0.03
-0.025
-0.055
-0.085
-0.125
-0.145
-0.14
-0.08
0.05
0.28
0.59
0.95
1.35
1.78
2.165
2.465
2.615
2.58
2.41
2.145
1.805
1.455
1.11
0.78
0.48
0.175
-0.12
-0.365
-0.51
-0.535
-0.455
-0.34
-0.23
-0.15
-0.13
-0.15
-0.215
-0.255
-0.295
-0.32
-0.33
-0.32
-0.31
-0.31
-0.335
-0.335
-0.35
-0.35
-0.35
-0.34
-0.325
-0.33
-0.32
-0.34
-0.35
-0.37
-0.385
-0.385
-0.375
-0.37
-0.36
-0.35
-0.365
-0.375
-0.38
-0.385
-0.36
-0.34
-0.3
-0.285
-0.27
-0.25
-0.25
-0.245
-0.235
-0.235
-0.2
-0.175
-0.16
-0.14
-0.12
-0.075
-0.04
0.01
0.06
0.105
0.16
0.2
0.23
0.265
0.315
0.375
0.43
0.49
0.545
0.58
0.625
0.675
0.71
0.755
0.805
0.84
0.88
0.905
0.925
0.935
0.945
0.96
0.99
1.01
1.035
1.05
1.06
1.065
1.05
1.03
1.02
1.02
1.02
1.015
1.01
1.0
0.985
0.965
0.95
0.93
0.905
0.88
0.845
0.82
0.795
0.77
0.765
0.74
0.725
0.7
0.66
0.62
0.59
0.55
0.53
0.52
0.5
0.505
0.49
0.455
0.435
0.415
0.385
0.37
0.365
0.375
0.38
0.385
0.38
0.385
0.38
0.385
0.39
0.42
0.44
0.455
0.47
0.475
0.48
0.5
0.525
0.575
0.615
0.655
0.675
0.68
0.675
0.665
0.655
0.645
0.62
0.595
0.535
0.47
0.405
0.36
0.315
0.3
0.295
0.265
0.235
0.17
0.125
0.105
0.105
0.165
0.27
0.45
0.665
0.905
1.135
1.335
1.515
1.685
1.85
2.02
2.2
2.355
2.51
2.635
2.74
2.805
2.835
2.825
2.79
2.755
2.72
2.705
2.69
2.68
2.695
2.71
2.705
2.68
2.605
2.46
2.26
1.975
1.635
1.265
0.89
0.535
0.2
-0.125
-0.375
-0.545
-0.635
-0.655
-0.655
-0.66
-0.67
-0.695
-0.745
-0.795
-0.83
-0.865
-0.9
-0.92
-0.945
-0.955
-0.98
-1.005
-1.035
-1.055
-1.075
-1.1
-1.125
-1.165
-1.195
-1.215
-1.23
-1.255
-1.27
-1.285
-1.315
-1.34
-1.355
-1.37
-1.38
-1.375
-1.38
-1.385
-1.395
-1.41
-1.425
-1.43
-1.43
-1.41
-1.39
-1.38
-1.35
-1.335
-1.325
-1.315
-1.3
-1.265
-1.23
-1.22
-1.18
-1.155
-1.105
-1.055
-0.985
-0.925
-0.875
-0.83
-0.795
-0.76
-0.74
-0.705
-0.655
-0.595
-0.54
-0.485
-0.43
-0.38
-0.345
-0.3
-0.245
-0.2
-0.17
-0.135
-0.125
-0.115
-0.105
-0.085
-0.07
-0.055
-0.025
-0.025
-0.02
-0.05
-0.055
-0.07
-0.085
-0.065
-0.07
-0.06
-0.065
-0.07
-0.085
-0.1
-0.12
-0.135
-0.155
-0.155
-0.17
-0.175
-0.2
-0.2
-0.21
-0.21
-0.215
-0.205
-0.225
-0.23
-0.25
-0.265
-0.285
-0.27
-0.25
-0.225
-0.21
-0.195
-0.205
-0.215
-0.22
-0.2
-0.2
-0.185
-0.18
-0.17
-0.165
-0.18
-0.175
-0.16
-0.145
-0.115
-0.11
-0.115
-0.13
-0.135
-0.145
-0.14
-0.125
-0.09
-0.03
0.005
0.04
0.06
0.07
0.07
0.075
0.095
0.115
0.145
0.165
0.175
0.165
0.145
0.115
0.085
0.04
0.0
-0.045
-0.075
-0.13
-0.16
-0.185
-0.195
-0.2
-0.19
-0.185
-0.18
-0.19
-0.2
-0.215
-0.225
-0.23
-0.22
-0.2
-0.18
-0.175
-0.17
-0.185
-0.185
-0.19
-0.185
-0.185
-0.18
-0.175
-0.185
-0.2
-0.24
-0.265
-0.29
-0.295
-0.235
-0.11
0.085
0.33
0.585
0.85
1.16
1.5
1.84
2.135
2.335
2.35
2.215
1.935
1.55
1.115
0.67
0.24
-0.145
-0.485
-0.745
-0.905
-0.96
-0.92
-0.805
-0.685
-0.575
-0.495
-0.445
-0.435
-0.435
-0.455
-0.48
-0.5
-0.5
-0.5
-0.485
-0.455
-0.46
-0.47
-0.49
-0.51
-0.525
-0.52
-0.505
-0.51
-0.495
-0.5
-0.515
-0.5
-0.515
-0.52
-0.49
-0.5
-0.495
-0.495
-0.475
-0.485
-0.475
-0.46
-0.43
-0.42
-0.405
-0.4
-0.405
-0.41
-0.395
-0.355
-0.34
-0.3
-0.26
-0.25
-0.23
-0.205
-0.185
-0.16
-0.13
-0.095
-0.055
-0.035
-0.01
0.035
0.085
0.12
0.16
0.195
0.22
0.235
0.255
0.275
0.3
0.345
0.395
0.435
0.475
0.505
0.51
0.535
0.545
0.565
0.585
0.6
0.6
0.625
0.615
0.625
0.625
0.61
0.62
0.61
0.605
0.585
0.535
0.505
0.47
0.44
0.405
0.39
0.375
0.345
0.3
0.255
0.23
0.2
0.185
0.155
0.135
0.115
0.09
0.07
0.05
0.03
0.015
0.01
0.005
-0.015
-0.02
-0.035
-0.05
-0.05
-0.045
-0.025
-0.02
0.0
-0.005
0.0
-0.005
-0.02
-0.02
-0.015
0.0
0.02
0.045
0.055
0.085
0.105
0.13
0.16
0.18
0.18
0.185
0.185
0.185
0.185
0.2
0.215
0.225
0.215
0.18
0.12
0.04
-0.03
-0.09
-0.125
-0.15
-0.155
-0.18
-0.195
-0.2
-0.21
-0.215
-0.22
-0.22
-0.225
-0.235
-0.245
-0.255
-0.275
-0.27
-0.255
-0.24
-0.225
-0.22
-0.215
-0.215
-0.235
-0.265
-0.275
-0.28
-0.29
-0.3
-0.315
-0.325
-0.31
-0.25
-0.095
0.125
0.415
0.765
1.15
1.55
1.925
2.215
2.385
2.39
2.24
1.97
1.595
1.18
0.775
0.375
-0.015
-0.355
-0.635
-0.795
-0.835
-0.765
-0.65
-0.53
-0.46
-0.405
-0.42
-0.455
-0.49
-0.52
-0.545
-0.545
-0.55
-0.565
-0.565
-0.56
-0.545
-0.55
-0.56
-0.575
-0.6
-0.6
-0.61
-0.62
-0.625
-0.61
-0.605
-0.6
-0.615
-0.625
-0.64
-0.655
-0.66
-0.65
-0.62
-0.615
-0.605
-0.61
-0.61
-0.61
-0.62
-0.62
-0.61
-0.595
-0.595
-0.58
-0.565
-0.55
-0.535
-0.51
-0.475
-0.46
-0.42
-0.415
-0.395
-0.385
-0.365
-0.335
-0.29
-0.245
-0.195
-0.15
-0.125
-0.09
-0.055
-0.025
0.02
0.06
0.09
0.12
0.15
0.185
0.21
0.26
0.295
0.345
0.375
0.4
0.41
0.42
0.42
0.435
0.45
0.48
0.505
0.52
0.52
0.52
0.51
0.495
