Lead II
-0.55
-0.545
-0.545
-0.545
-0.545
-0.545
-0.555
-0.535
-0.55
-0.56
-0.595
-0.615
-0.605
-0.6
-0.6
-0.595
-0.605
-0.61
-0.625
-0.655
-0.68
-0.685
-0.69
-0.705
-0.68
-0.685
-0.675
-0.695
-0.71
-0.75
-0.75
-0.73
-0.71
-0.7
-0.725
-0.73
-0.73
-0.71
-0.68
-0.655
-0.66
-0.655
-0.64
-0.615
-0.58
-0.55
-0.52
-0.515
-0.505
-0.47
-0.45
-0.395
-0.39
-0.375
-0.375
-0.35
-0.345
-0.305
-0.29
-0.295
-0.32
-0.32
-0.305
-0.295
-0.265
-0.28
-0.27
-0.275
-0.29
-0.295
-0.29
-0.275
-0.275
-0.26
-0.265
-0.275
-0.275
-0.29
-0.29
-0.295
-0.275
-0.285
-0.295
-0.305
-0.295
-0.29
-0.27
-0.275
-0.3
-0.325
-0.32
-0.3
-0.28
-0.27
-0.31
-0.315
-0.325
-0.32
-0.29
-0.3
-0.31
-0.315
-0.325
-0.31
-0.295
-0.265
-0.285
-0.3
-0.3
-0.3
-0.275
-0.27
-0.285
-0.295
-0.3
-0.3
-0.285
-0.275
-0.27
-0.27
-0.275
-0.28
-0.28
-0.27
-0.265
-0.275
-0.295
-0.285
-0.285
-0.26
-0.265
-0.265
-0.27
-0.265
-0.255
-0.24
-0.225
-0.21
-0.205
-0.22
-0.215
-0.235
-0.23
-0.23
-0.23
-0.22
-0.21
-0.195
-0.19
-0.2
-0.195
-0.195
-0.19
-0.175
-0.195
-0.205
-0.2
-0.215
-0.205
-0.2
-0.2
-0.225
-0.24
-0.23
-0.215
-0.225
-0.25
-0.27
-0.285
-0.295
-0.275
-0.26
-0.25
-0.255
-0.28
-0.3
-0.275
-0.27
-0.27
-0.26
-0.285
-0.28
-0.265
-0.26
-0.26
-0.27
-0.27
-0.255
-0.24
-0.245
-0.26
-0.275
-0.28
-0.24
-0.18
-0.085
0.02
0.125
0.23
0.34
0.465
0.575
0.65
0.75
0.855
1.01
1.215
1.465
1.685
1.835
1.895
1.87
1.775
1.53
1.16
0.775
0.48
0.33
0.27
0.245
0.205
0.185
0.15
0.135
0.115
0.08
0.05
-0.015
-0.04
-0.08
-0.07
-0.095
-0.135
-0.195
-0.23
-0.275
-0.295
-0.305
-0.345
-0.385
-0.435
-0.445
-0.42
-0.41
-0.42
-0.44
-0.445
-0.44
-0.445
-0.445
-0.465
-0.48
-0.485
-0.48
-0.455
-0.46
-0.47
-0.485
-0.485
-0.49
-0.495
-0.49
-0.525
-0.53
-0.51
-0.51
-0.49
-0.49
-0.51
-0.53
-0.55
-0.545
-0.53
-0.535
-0.56
-0.575
-0.58
-0.57
-0.57
-0.565
-0.585
-0.61
-0.625
-0.63
-0.625
-0.635
-0.65
-0.675
-0.67
-0.66
-0.655
-0.655
-0.68
-0.72
-0.715
-0.69
-0.68
-0.675
-0.705
-0.71
-0.715
-0.695
-0.66
-0.655
-0.645
-0.66
-0.655
-0.625
-0.61
-0.575
-0.54
-0.535
-0.51
-0.495
-0.445
-0.41
-0.395
-0.37
-0.365
-0.355
-0.32
-0.3
-0.285
-0.29
-0.29
-0.295
-0.275
-0.26
-0.27
-0.275
-0.27
-0.27
-0.245
-0.25
-0.27
-0.265
-0.285
-0.26
-0.245
-0.25
-0.27
-0.28
-0.275
-0.27
-0.26
-0.26
-0.265
-0.29
-0.29
-0.28
-0.26
-0.25
-0.27
-0.28
-0.305
-0.285
-0.275
-0.255
-0.27
-0.28
-0.3
-0.3
-0.29
-0.275
-0.26
-0.285
-0.295
-0.29
-0.275
-0.27
-0.26
-0.275
-0.28
-0.28
-0.28
-0.27
-0.285
-0.295
-0.29
-0.285
-0.265
-0.26
-0.265
-0.27
-0.28
-0.275
-0.25
-0.265
-0.275
-0.28
-0.29
-0.27
-0.265
-0.265
-0.28
-0.29
-0.295
-0.28
-0.28
-0.275
-0.27
-0.28
-0.265
-0.26
-0.235
-0.215
-0.22
-0.235
-0.255
-0.23
-0.215
-0.195
-0.205
-0.225
-0.205
-0.2
-0.18
-0.175
-0.165
-0.19
-0.225
-0.225
-0.22
-0.21
-0.205
-0.215
-0.21
-0.215
-0.22
-0.215
-0.245
-0.27
-0.27
-0.27
-0.275
-0.28
-0.3
-0.295
-0.285
-0.275
-0.26
-0.24
-0.28
-0.295
-0.3
-0.295
-0.285
-0.26
-0.285
-0.29
-0.295
-0.3
-0.28
-0.275
-0.285
-0.305
-0.295
-0.275
-0.285
-0.26
-0.28
-0.29
-0.26
-0.205
-0.12
-0.045
0.05
0.145
0.24
0.345
0.475
0.61
0.775
0.955
1.18
1.395
1.615
1.78
1.865
1.87
1.77
1.58
1.24
0.91
0.655
0.505
0.425
0.365
0.315
0.255
0.215
0.19
0.16
0.12
0.1
0.055
0.015
-0.03
-0.075
-0.095
-0.12
-0.135
-0.205
-0.25
-0.275
-0.3
-0.295
-0.305
-0.345
-0.39
-0.42
-0.435
-0.43
-0.425
-0.45
-0.47
-0.475
-0.48
-0.465
-0.46
-0.465
-0.48
-0.51
-0.5
-0.485
-0.47
-0.47
-0.49
-0.505
-0.495
-0.485
-0.505
-0.5
-0.515
-0.52
-0.525
-0.505
-0.5
-0.53
-0.55
-0.57
-0.565
-0.535
-0.53
-0.55
-0.575
-0.59
-0.585
-0.58
-0.58
-0.59
-0.6
-0.605
-0.6
-0.595
-0.6
-0.625
-0.635
-0.655
-0.645
-0.635
-0.65
-0.655
-0.695
-0.69
-0.695
-0.675
-0.655
-0.67
-0.695
-0.7
-0.69
-0.67
-0.675
-0.665
-0.675
-0.67
-0.66
-0.635
-0.615
-0.6
-0.61
-0.58
-0.57
-0.53
-0.5
-0.495
-0.47
-0.45
-0.405
-0.38
-0.355
-0.345
-0.355
-0.355
-0.335
-0.305
-0.28
-0.285
-0.29
-0.3
-0.29
-0.27
-0.25
-0.255
-0.25
-0.265
-0.27
-0.265
-0.265
-0.275
-0.28
-0.275
-0.25
-0.235
-0.23
-0.235
-0.245
-0.265
-0.27
-0.27
-0.25
-0.27
-0.285
-0.295
-0.28
-0.265
-0.265
-0.275
-0.275
-0.28
-0.285
-0.29
-0.27
-0.28
-0.285
-0.28
-0.275
-0.28
-0.29
-0.29
-0.31
-0.31
-0.31
-0.295
-0.28
-0.29
-0.315
-0.325
-0.305
-0.28
-0.275
-0.26
-0.285
-0.305
-0.3
-0.3
-0.29
-0.29
-0.29
-0.28
-0.285
-0.27
-0.265
-0.275
-0.29
-0.295
-0.29
-0.28
-0.28
-0.28
-0.285
-0.29
-0.275
-0.265
-0.26
-0.27
-0.295
-0.305
-0.29
-0.26
-0.26
-0.25
-0.275
-0.28
-0.27
-0.255
-0.235
-0.26
-0.265
-0.27
-0.265
-0.23
-0.21
-0.205
-0.215
-0.21
-0.205
-0.185
-0.175
-0.175
-0.18
-0.19
-0.175
-0.165
-0.155
-0.185
-0.195
-0.195
-0.17
-0.175
-0.175
-0.195
-0.205
-0.215
-0.21
-0.195
-0.175
-0.18
-0.2
-0.22
-0.23
-0.23
-0.215
-0.24
-0.255
-0.255
-0.245
-0.25
-0.255
-0.265
-0.285
-0.285
-0.26
-0.24
-0.25
-0.265
-0.28
-0.285
-0.27
-0.245
-0.245
-0.255
-0.265
-0.275
-0.28
-0.25
-0.225
-0.22
-0.235
-0.235
-0.235
-0.225
-0.23
-0.23
-0.2
-0.125
-0.02
0.11
0.21
0.285
0.37
0.455
0.59
0.72
0.88
1.035
1.175
1.335
1.515
1.68
1.78
1.84
1.86
1.875
1.875
1.81
1.645
1.38
1.055
0.76
0.56
0.44
0.375
0.305
0.265
0.25
0.235
0.22
0.2
0.15
0.09
0.05
0.02
0.0
-0.015
-0.04
-0.04
-0.07
-0.09
-0.11
-0.15
-0.2
-0.265
-0.295
-0.325
-0.32
-0.335
-0.37
-0.405
-0.425
-0.42
-0.425
-0.4
-0.415
-0.44
-0.455
-0.47
-0.455
-0.45
-0.46
-0.48
-0.465
-0.46
-0.465
-0.46
-0.47
-0.485
-0.49
-0.48
-0.465
-0.465
-0.475
-0.49
-0.495
-0.5
-0.485
-0.485
-0.485
-0.5
-0.52
-0.525
-0.515
-0.505
-0.535
-0.55
-0.55
-0.54
-0.54
-0.54
-0.555
-0.57
-0.59
-0.595
-0.575
-0.585
-0.59
-0.625
-0.655
-0.645
-0.625
-0.61
-0.63
-0.66
-0.67
-0.66
-0.675
-0.68
-0.68
-0.68
-0.69
-0.67
-0.655
-0.645
-0.655
-0.67
-0.68
-0.66
-0.635
-0.61
-0.61
-0.62
-0.615
-0.585
-0.565
-0.535
-0.515
-0.495
-0.5
-0.47
-0.43
-0.41
-0.42
-0.405
-0.395
-0.37
-0.33
-0.31
-0.295
-0.31
-0.3
-0.285
-0.27
-0.24
-0.245
-0.255
-0.26
-0.25
-0.23
-0.23
-0.225
-0.23
-0.24
-0.245
-0.23
-0.22
-0.23
-0.235
-0.24
-0.225
-0.225
-0.215
-0.215
-0.235
-0.255
-0.245
-0.23
-0.21
-0.215
-0.23
-0.25
-0.25
-0.235
-0.225
-0.235
-0.245
-0.25
-0.25
-0.225
-0.23
-0.23
-0.255
-0.27
-0.26
-0.245
-0.245
-0.25
-0.25
-0.26
-0.25
-0.245
-0.25
-0.26
-0.27
-0.265
-0.27
-0.235
-0.235
-0.25
-0.265
-0.285
-0.27
-0.24
-0.23
-0.235
-0.265
-0.265
-0.25
-0.24
-0.245
-0.245
-0.25
-0.255
-0.24
-0.245
-0.24
-0.24
-0.255
-0.255
-0.235
-0.22
-0.23
-0.245
-0.255
-0.265
-0.25
-0.22
-0.21
-0.235
-0.25
-0.27
-0.265
-0.235
-0.235
-0.245
-0.255
-0.255
-0.26
-0.235
-0.22
-0.225
-0.22
-0.205
-0.19
-0.18
-0.165
-0.18
-0.185
-0.185
-0.155
-0.135
-0.115
-0.11
-0.12
-0.14
-0.145
-0.125
-0.135
-0.14
-0.16
-0.175
-0.18
-0.16
-0.155
-0.16
-0.175
-0.205
-0.215
-0.195
-0.215
-0.205
-0.235
-0.255
-0.25
-0.24
-0.25
-0.245
-0.26
-0.26
-0.23
-0.235
-0.2
-0.22
-0.245
-0.265
-0.265
-0.24
-0.235
-0.24
-0.255
-0.255
-0.265
-0.255
-0.24
-0.24
-0.25
-0.24
-0.24
-0.22
-0.2
-0.21
-0.23
-0.215
-0.145
-0.025
0.085
0.165
0.26
0.345
0.445
0.6
0.74
0.89
1.085
1.275
1.475
1.66
1.815
1.895
1.93
1.93
1.92
1.86
1.72
1.45
1.11
0.805
0.585
0.47
0.36
0.325
0.275
0.265
0.245
0.235
0.21
0.145
0.085
0.04
0.02
0.015
0.0
-0.025
-0.07
-0.1
-0.125
-0.155
-0.195
-0.24
-0.29
-0.32
-0.34
-0.35
-0.375
-0.4
-0.44
-0.435
-0.425
-0.405
-0.42
-0.44
-0.45
-0.47
-0.445
-0.44
-0.435
-0.455
-0.455
-0.475
-0.475
-0.45
-0.45
-0.465
-0.47
-0.485
-0.495
-0.495
-0.47
-0.49
-0.505
-0.51
-0.51
-0.49
-0.49
-0.515
-0.525
-0.53
-0.525
-0.52
-0.51
-0.525
-0.545
-0.56
-0.565
-0.56
-0.57
-0.565
-0.57
-0.585
-0.585
-0.595
-0.605
-0.615
-0.635
-0.64
-0.635
-0.655
-0.645
-0.655
-0.69
-0.7
-0.695
-0.68
-0.66
-0.665
-0.67
-0.68
-0.675
-0.665
-0.655
-0.64
-0.645
-0.63
-0.61
-0.585
-0.57
-0.56
-0.54
-0.535
-0.495
-0.47
-0.45
-0.44
-0.455
-0.425
-0.4
-0.38
-0.345
-0.33
-0.345
-0.33
-0.315
-0.285
-0.27
-0.265
-0.265
-0.25
-0.255
-0.225
-0.22
-0.225
-0.24
-0.235
-0.23
-0.225
-0.225
-0.23
-0.255
-0.26
-0.24
-0.225
-0.22
-0.215
-0.24
-0.235
-0.235
-0.245
-0.235
-0.25
-0.24
-0.245
-0.24
-0.235
-0.23
-0.245
-0.27
-0.275
-0.25
-0.225
-0.2
-0.195
-0.23
-0.26
-0.265
-0.25
-0.24
-0.255
-0.275
-0.275
-0.27
-0.25
-0.245
-0.265
-0.28
-0.27
-0.275
-0.245
-0.245
-0.255
-0.275
-0.28
-0.265
-0.24
-0.235
-0.235
-0.25
-0.255
-0.255
-0.245
-0.245
-0.25
-0.255
-0.265
-0.27
-0.25
-0.25
-0.24
-0.26
-0.25
-0.245
-0.23
-0.235
-0.26
-0.27
-0.27
-0.25
-0.215
-0.21
-0.21
-0.22
-0.24
-0.24
-0.24
-0.235
-0.23
-0.23
-0.235
-0.215
-0.195
-0.18
-0.2
-0.205
-0.205
-0.16
-0.16
-0.15
-0.17
-0.185
-0.185
-0.17
-0.155
-0.14
-0.135
-0.14
-0.14
-0.14
-0.15
-0.15
-0.155
-0.18
-0.17
-0.16
-0.145
-0.15
-0.17
-0.185
-0.195
-0.2
-0.195
-0.2
-0.23
-0.25
-0.26
-0.255
-0.24
-0.23
-0.225
-0.24
-0.25
-0.25
-0.225
-0.23
-0.235
-0.245
-0.265
-0.255
-0.245
-0.23
-0.23
-0.235
-0.245
-0.24
-0.225
-0.24
-0.23
-0.235
-0.24
-0.215
-0.2
-0.205
-0.2
-0.205
-0.16
-0.045
0.085
0.21
0.29
0.35
0.435
0.56
0.715
0.89
1.045
1.17
1.28
1.43
1.6
1.73
1.835
1.85
1.78
1.605
1.34
1.02
0.735
0.52
0.4
0.35
0.325
0.32
0.295
0.27
0.235
0.215
0.215
0.19
0.145
0.085
0.045
0.015
0.0
-0.035
-0.07
-0.14
-0.18
-0.22
-0.245
-0.26
-0.28
-0.31
-0.335
-0.355
-0.355
-0.36
-0.385
-0.415
-0.425
-0.445
-0.41
-0.395
-0.41
-0.45
-0.45
-0.44
-0.41
-0.405
-0.425
-0.435
-0.46
-0.46
-0.45
-0.44
-0.44
-0.46
-0.47
-0.48
-0.465
-0.46
-0.465
-0.485
-0.495
-0.485
-0.475
-0.475
-0.505
-0.515
-0.535
-0.52
-0.515
-0.51
-0.53
-0.55
-0.57
-0.575
-0.565
-0.555
-0.56
-0.58
-0.6
-0.595
-0.595
-0.595
-0.625
-0.64
-0.645
-0.645
-0.64
-0.64
-0.66
-0.665
-0.665
-0.665
-0.645
-0.625
-0.635
-0.625
-0.595
-0.57
-0.555
-0.53
-0.52
-0.525
-0.515
-0.48
-0.435
-0.415
-0.385
-0.395
-0.375
-0.335
-0.295
-0.26
-0.25
-0.255
-0.265
-0.24
-0.215
-0.19
-0.195
-0.19
-0.185
-0.185
-0.175
-0.18
-0.19
-0.19
-0.2
-0.18
-0.17
-0.16
-0.185
-0.205
-0.195
-0.2
-0.18
-0.18
-0.185
-0.21
-0.21
-0.205
-0.185
-0.17
-0.195
-0.2
-0.205
-0.205
-0.195
-0.19
-0.2
-0.2
-0.22
-0.225
-0.205
-0.195
-0.205
-0.22
-0.22
-0.215
-0.2
-0.21
-0.22
-0.225
-0.235
-0.23
-0.2
-0.19
-0.195
-0.205
-0.22
-0.215
-0.21
-0.195
-0.185
-0.205
-0.22
-0.225
-0.205
-0.185
-0.2
-0.205
-0.21
-0.205
-0.2
-0.18
-0.19
-0.21
-0.22
-0.21
-0.195
-0.17
-0.18
-0.215
-0.21
-0.205
-0.18
-0.16
-0.175
-0.195
-0.195
-0.175
-0.15
-0.145
-0.135
-0.125
-0.115
-0.1
-0.095
-0.105
-0.14
-0.16
-0.18
-0.155
-0.125
-0.105
-0.1
-0.115
-0.125
-0.12
-0.095
-0.09
-0.095
-0.105
-0.115
-0.1
-0.095
-0.085
-0.115
-0.13
-0.11
-0.11
-0.125
-0.135
-0.155
-0.18
-0.185
-0.18
-0.185
-0.19
-0.205
-0.2
-0.21
-0.185
-0.16
-0.155
-0.205
-0.225
-0.225
-0.205
-0.185
-0.15
-0.16
-0.18
-0.195
-0.195
-0.19
-0.175
-0.185
-0.19
-0.175
-0.17
-0.155
-0.15
-0.145
-0.115
-0.065
0.025
0.155
0.265
0.36
0.46
0.555
0.66
0.765
0.895
1.035
1.18
1.35
1.555
1.755
1.895
1.95
1.935
1.815
1.635
1.365
1.06
0.775
0.545
0.42
0.355
0.325
0.33
0.32
0.29
0.26
0.23
0.215
0.185
0.14
0.08
0.05
0.035
0.03
0.0
-0.06
-0.125
-0.16
-0.19
-0.2
-0.225
-0.275
-0.305
-0.33
-0.34
-0.32
-0.335
-0.355
-0.36
-0.375
-0.38
-0.37
-0.365
-0.375
-0.395
-0.42
-0.4
-0.395
-0.405
-0.425
-0.41
-0.42
-0.405
-0.39
-0.4
-0.425
-0.45
-0.465
-0.435
-0.42
-0.415
-0.415
-0.44
-0.46
-0.465
-0.45
-0.44
-0.445
-0.475
-0.5
-0.495
-0.515
-0.485
-0.5
-0.525
-0.525
-0.52
-0.525
-0.535
-0.545
-0.57
-0.58
-0.585
-0.57
-0.57
-0.575
-0.59
-0.605
-0.605
-0.57
-0.565
-0.585
-0.59
-0.595
-0.59
-0.57
-0.56
-0.56
-0.56
-0.56
-0.525
-0.495
-0.485
-0.495
-0.49
-0.48
-0.44
-0.395
-0.37
-0.355
-0.34
-0.325
-0.29
-0.235
-0.205
-0.2
-0.205
-0.2
-0.18
-0.17
-0.16
-0.17
-0.17
-0.18
-0.17
-0.145
-0.14
-0.15
-0.155
-0.155
-0.16
-0.155
-0.14
-0.14
-0.15
-0.16
-0.17
-0.16
-0.165
-0.155
-0.155
-0.16
-0.15
-0.15
-0.14
-0.145
-0.15
-0.16
-0.18
-0.155
-0.145
-0.145
-0.165
-0.19
-0.195
-0.16
-0.135
-0.15
-0.145
-0.175
-0.165
-0.16
-0.16
-0.17
-0.17
-0.16
-0.14
-0.13
-0.125
-0.145
-0.145
-0.16
-0.15
-0.12
-0.12
-0.135
-0.17
-0.17
-0.145
-0.125
-0.11
-0.12
-0.145
-0.15
-0.155
-0.13
-0.115
-0.13
-0.14
-0.135
-0.14
-0.13
-0.13
-0.13
-0.15
-0.15
-0.135
-0.115
-0.095
-0.095
-0.095
-0.09
-0.085
-0.07
-0.055
-0.075
-0.1
-0.095
-0.08
-0.07
-0.03
-0.035
-0.05
-0.065
-0.06
-0.06
-0.045
-0.065
-0.075
-0.07
-0.06
-0.05
-0.06
-0.08
-0.105
-0.115
-0.11
-0.11
-0.115
-0.135
-0.14
-0.15
-0.145
-0.13
-0.12
-0.125
-0.145
-0.165
-0.14
-0.125
-0.125
-0.13
-0.16
-0.17
-0.175
-0.155
-0.125
-0.125
-0.155
-0.16
-0.155
-0.135
-0.125
-0.11
-0.11
-0.11
-0.12
-0.115
-0.11
-0.12
-0.055
0.035
0.165
0.315
0.42
0.535
0.645
0.8
0.995
1.195
1.405
1.59
1.77
1.94
2.04
2.085
2.1
2.065
1.94
1.71
1.35
0.95
0.665
0.475
0.365
0.305
0.28
0.29
0.27
0.245
0.205
0.155
0.13
0.095
0.075
0.05
0.04
0.025
0.0
-0.01
-0.04
-0.095
-0.145
-0.195
-0.215
-0.22
-0.24
-0.27
-0.32
-0.33
-0.325
-0.325
-0.31
-0.33
-0.345
-0.355
-0.355
-0.345
-0.345
-0.35
-0.365
-0.38
-0.375
-0.355
-0.35
-0.35
-0.375
-0.395
-0.385
-0.385
-0.37
-0.37
-0.38
-0.395
-0.42
-0.4
-0.425
-0.425
-0.43
-0.45
-0.43
-0.425
-0.44
-0.455
-0.475
-0.49
-0.485
-0.485
-0.48
-0.515
-0.535
-0.565
-0.55
-0.53
-0.52
-0.535
-0.56
-0.59
-0.59
-0.58
-0.56
-0.555
-0.585
-0.58
-0.565
-0.535
-0.51
-0.52
-0.515
-0.515
-0.505
-0.48
-0.44
-0.42
-0.415
-0.395
-0.355
-0.315
-0.3
-0.295
-0.27
-0.255
-0.22
-0.195
-0.17
-0.16
-0.145
-0.15
-0.14
-0.14
-0.12
-0.145
-0.165
-0.15
-0.145
-0.135
-0.115
-0.135
-0.16
-0.16
-0.155
-0.13
-0.125
-0.155
-0.16
-0.18
-0.17
-0.14
-0.135
-0.145
-0.16
-0.17
-0.185
-0.15
-0.14
-0.15
-0.165
-0.18
-0.17
-0.165
-0.145
-0.155
-0.175
-0.19
-0.185
-0.16
-0.15
-0.15
-0.16
-0.17
-0.16
-0.165
-0.145
-0.145
-0.165
-0.16
-0.145
-0.145
-0.14
-0.155
-0.17
-0.185
-0.185
-0.155
-0.145
-0.16
-0.175
-0.175
-0.16
-0.145
-0.135
-0.14
-0.175
-0.18
-0.17
-0.16
-0.14
-0.155
-0.17
-0.17
-0.16
-0.135
-0.1
-0.08
-0.11
-0.125
-0.11
-0.09
-0.08
-0.08
-0.09
-0.1
-0.09
-0.075
-0.06
-0.07
-0.085
-0.11
-0.13
-0.12
-0.095
-0.1
-0.11
-0.13
-0.13
-0.13
-0.135
-0.15
-0.18
-0.185
-0.2
-0.195
-0.2
-0.2
-0.21
-0.205
-0.205
-0.185
-0.165
-0.18
-0.205
-0.235
-0.22
-0.205
-0.195
-0.19
-0.2
-0.215
-0.215
-0.195
-0.175
-0.18
-0.18
-0.2
-0.2
-0.18
-0.165
-0.17
-0.185
-0.11
0.0
0.135
0.24
0.33
0.43
0.525
0.66
0.85
1.065
1.26
1.435
1.625
1.795
1.94
2.015
2.0
1.875
1.59
1.215
0.855
0.62
0.495
0.415
0.345
0.34
0.33
0.335
0.285
0.215
0.16
0.11
0.1
0.07
0.045
-0.01
-0.08
-0.115
-0.155
-0.18
-0.225
-0.265
-0.32
-0.355
-0.355
-0.365
-0.38
-0.41
-0.41
-0.41
-0.415
-0.415
-0.42
-0.425
-0.445
-0.44
-0.43
-0.435
-0.445
-0.45
-0.47
-0.455
-0.445
-0.435
-0.455
-0.495
-0.505
-0.495
-0.495
-0.495
-0.485
-0.515
-0.52
-0.53
-0.53
-0.52
-0.55
-0.555
-0.58
-0.58
-0.57
-0.59
-0.59
-0.595
-0.615
-0.625
-0.6
-0.615
-0.63
-0.64
-0.665
-0.66
-0.66
-0.66
-0.66
-0.665
-0.68
-0.665
-0.675
-0.665
-0.675
-0.67
-0.66
-0.645
-0.625
-0.605
-0.59
-0.575
-0.54
-0.51
-0.47
-0.445
-0.45
-0.435
-0.43
-0.38
-0.34
-0.3
-0.285
-0.265
-0.275
-0.265
-0.235
-0.22
-0.215
-0.225
-0.235
-0.24
-0.22
-0.205
-0.205
-0.215
-0.23
-0.22
-0.215
-0.195
-0.205
-0.205
-0.225
-0.235
-0.235
-0.225
-0.225
-0.225
-0.245
-0.225
-0.23
-0.215
-0.23
-0.24
-0.25
-0.24
-0.225
-0.225
-0.225
-0.255
-0.275
-0.265
-0.245
-0.215
-0.23
-0.245
-0.255
-0.255
-0.23
-0.23
-0.245
-0.265
-0.27
-0.265
-0.245
-0.24
-0.255
-0.27
-0.27
-0.26
-0.24
-0.22
-0.23
-0.245
-0.275
-0.275
-0.24
-0.23
-0.22
-0.24
-0.27
-0.255
-0.225
-0.22
-0.235
-0.245
-0.27
-0.25
-0.23
-0.215
-0.18
-0.195
-0.215
-0.2
-0.18
-0.145
-0.15
-0.175
-0.195
-0.195
-0.165
-0.13
-0.125
-0.13
-0.155
-0.16
-0.175
-0.175
-0.165
-0.15
-0.17
-0.175
-0.19
-0.18
-0.195
-0.22
-0.235
-0.25
-0.245
-0.23
-0.24
-0.265
-0.265
-0.255
-0.245
-0.235
-0.26
-0.27
-0.28
-0.27
-0.225
-0.235
-0.23
-0.26
-0.275
-0.27
-0.245
-0.245
-0.25
-0.25
-0.26
-0.245
-0.23
-0.215
-0.21
-0.19
-0.12
-0.01
0.165
0.32
0.41
0.5
0.62
0.755
0.995
1.24
1.455
1.65
1.825
1.955
2.03
2.09
2.06
1.97
1.8
1.515
1.2
0.875
0.62
0.445
0.355
0.325
0.32
0.31
0.27
0.22
0.185
0.13
0.12
0.1
0.055
0.015
-0.03
-0.07
-0.09
-0.115
-0.16
-0.21
-0.265
-0.3
-0.34
-0.335
-0.37
-0.4
-0.415
-0.425
-0.425
-0.44
-0.475
-0.5
-0.505
-0.5
-0.47
-0.465
-0.495
-0.525
-0.535
-0.53
-0.51
-0.49
-0.495
-0.52
-0.545
-0.55
-0.545
-0.515
-0.51
-0.53
-0.55
-0.565
-0.56
-0.55
-0.585
-0.58
-0.605
-0.6
-0.58
-0.58
-0.6
-0.625
-0.655
-0.65
-0.62
-0.63
-0.645
-0.68
-0.71
-0.705
-0.68
-0.685
-0.7
-0.73
-0.72
-0.715
-0.715
-0.725
-0.73
-0.765
-0.77
-0.78
-0.77
-0.755
-0.735
-0.74
-0.735
-0.73
-0.73
-0.715
-0.69
-0.665
-0.65
-0.635
-0.61
-0.585
-0.575
-0.545
-0.525
-0.49
-0.44
-0.41
-0.4
-0.39
-0.38
-0.35
-0.32
-0.29
-0.29
-0.285
-0.285
-0.27
-0.245
-0.24
-0.26
-0.265
-0.265
-0.26
-0.235
-0.245
-0.225
-0.255
-0.27
-0.26
-0.25
-0.24
-0.245
-0.26
-0.285
-0.3
-0.275
-0.25
-0.25
-0.27
-0.27
-0.28
-0.26
-0.26
-0.255
-0.265
-0.28
-0.275
-0.28
-0.25
-0.265
-0.275
-0.275
-0.27
-0.26
-0.265
-0.27
-0.29
-0.285
-0.275
-0.265
-0.245
-0.25
-0.26
-0.275
-0.265
-0.255
-0.255
-0.255
-0.265
-0.28
-0.265
-0.24
-0.225
-0.23
-0.25
-0.27
-0.265
-0.25
-0.24
-0.25
-0.245
-0.26
-0.275
-0.265
-0.26
-0.24
-0.235
-0.24
-0.22
-0.19
-0.185
-0.19
-0.19
-0.175
-0.165
-0.17
-0.175
-0.18
-0.19
-0.205
-0.18
-0.15
-0.155
-0.16
-0.165
-0.175
-0.165
-0.145
-0.13
-0.14
-0.17
-0.2
-0.195
-0.185
-0.185
-0.175
-0.195
-0.225
-0.235
-0.235
-0.245
-0.23
-0.245
-0.255
-0.27
-0.24
-0.245
-0.25
-0.255
-0.26
-0.265
-0.25
-0.24
-0.235
-0.265
-0.27
-0.255
-0.245
-0.23
-0.235
-0.25
-0.26
-0.255
-0.235
-0.22
-0.205
-0.215
-0.235
-0.235
-0.21
-0.15
-0.06
0.075
0.195
0.305
0.405
0.51
0.62
0.715
0.86
1.035
1.24
1.45
1.645
1.85
2.0
2.085
2.095
2.01
1.8
1.475
1.11
0.775
0.55
0.395
0.3
0.245
0.21
0.205
0.195
0.185
0.15
0.12
0.085
0.055
0.045
0.02
-0.015
-0.05
-0.085
-0.12
-0.13
-0.16
-0.21
-0.26
-0.305
-0.33
-0.34
-0.36
-0.365
-0.385
-0.43
-0.445
-0.455
-0.425
-0.43
-0.44
-0.455
-0.46
-0.455
-0.445
-0.46
-0.49
-0.495
-0.485
-0.465
-0.445
-0.47
-0.49
-0.515
-0.5
-0.5
-0.47
-0.47
-0.49
-0.5
-0.505
-0.51
-0.5
-0.515
-0.51
-0.54
-0.54
-0.545
-0.535
-0.545
-0.565
-0.565
-0.56
-0.555
-0.56
-0.555
-0.59
-0.61
-0.615
-0.62
-0.605
-0.62
-0.645
-0.68
-0.675
-0.685
-0.66
-0.67
-0.695
-0.705
-0.7
-0.7
-0.705
-0.72
-0.73
-0.73
-0.71
-0.69
-0.675
-0.675
-0.69
-0.685
-0.66
-0.635
-0.595
-0.575
-0.575
-0.565
-0.535
-0.48
-0.44
-0.43
-0.415
-0.41
-0.41
-0.375
-0.345
-0.33
-0.295
-0.295
-0.285
-0.265
-0.25
-0.245
-0.24
-0.25
-0.225
-0.215
-0.23
-0.23
-0.245
-0.24
-0.235
-0.22
-0.215
-0.215
-0.245
-0.25
-0.25
-0.24
-0.215
-0.22
-0.245
-0.265
-0.255
-0.245
-0.235
-0.235
-0.255
-0.275
-0.27
-0.28
-0.25
-0.26
-0.26
-0.27
-0.29
-0.27
-0.26
-0.25
-0.27
-0.275
-0.27
-0.265
-0.255
-0.26
-0.275
-0.275
-0.27
-0.255
-0.24
-0.25
-0.275
-0.285
-0.27
-0.26
-0.235
-0.245
-0.265
-0.275
-0.26
-0.25
-0.215
-0.225
-0.255
-0.285
-0.285
-0.26
-0.235
-0.23
-0.255
-0.265
-0.26
-0.26
-0.23
-0.235
-0.23
-0.25
-0.25
-0.245
-0.225
-0.21
-0.22
-0.24
-0.21
-0.18
-0.155
-0.17
-0.19
-0.2
-0.195
-0.175
-0.155
-0.17
-0.18
-0.175
-0.165
-0.155
-0.145
-0.16
-0.18
-0.185
-0.175
-0.18
-0.155
-0.165
-0.195
-0.21
-0.215
-0.22
-0.195
-0.2
-0.24
-0.265
-0.27
-0.26
-0.26
-0.26
-0.26
-0.27
-0.27
-0.26
-0.255
-0.275
-0.285
-0.285
-0.275
-0.27
-0.255
-0.26
-0.26
-0.28
-0.26
-0.245
-0.225
-0.24
-0.25
-0.265
-0.255
-0.255
-0.225
-0.2
-0.155
-0.07
0.05
0.165
0.255
0.345
0.43
0.515
0.635
0.82
1.035
1.25
1.48
1.7
1.905
2.08
2.205
2.215
2.175
2.075
1.88
1.555
1.175
0.82
0.585
0.435
0.345
0.315
0.305
0.27
0.22
0.175
0.12
0.095
0.075
0.025
-0.005
-0.045
-0.08
-0.105
-0.12
-0.155
-0.21
-0.25
-0.28
-0.315
-0.34
-0.375
-0.425
-0.43
-0.445
-0.44
-0.435
-0.455
-0.47
-0.495
-0.495
-0.48
-0.47
-0.48
-0.495
-0.505
-0.51
-0.51
-0.5
-0.505
-0.52
-0.53
-0.525
-0.53
-0.515
-0.535
-0.57
-0.57
-0.57
-0.545
-0.56
-0.545
-0.555
-0.595
-0.6
-0.595
-0.565
-0.58
-0.595
-0.605
-0.605
-0.6
-0.595
-0.615
-0.64
-0.65
-0.655
-0.64
-0.635
-0.64
-0.67
-0.68
-0.69
-0.69
-0.685
-0.69
-0.72
-0.73
-0.745
-0.74
-0.725
-0.73
-0.75
-0.765
-0.76
-0.745
-0.755
-0.75
-0.76
-0.78
-0.75
-0.745
-0.71
-0.705
-0.705
-0.695
-0.68
-0.65
-0.615
-0.6
-0.58
-0.585
-0.555
-0.52
-0.5
-0.465
-0.45
-0.425
-0.4
-0.365
-0.345
-0.335
-0.355
-0.35
-0.325
-0.295
-0.275
-0.265
-0.27
-0.275
-0.27
-0.265
-0.23
-0.23
-0.235
-0.24
-0.245
-0.24
-0.225
-0.235
-0.255
-0.265
-0.24
-0.24
-0.21
-0.225
-0.25
-0.265
-0.255
-0.24
-0.23
-0.22
-0.245
-0.245
-0.27
-0.265
-0.24
-0.23
-0.265
-0.26
-0.275
-0.255
-0.245
-0.265
-0.275
-0.28
-0.28
-0.255
-0.25
-0.265
-0.285
-0.295
-0.28
-0.265
-0.25
-0.255
-0.275
-0.305
-0.31
-0.295
-0.27
-0.285
-0.275
-0.275
-0.275
-0.28
-0.25
-0.265
-0.28
-0.295
-0.285
-0.26
-0.25
-0.255
-0.27
-0.295
-0.275
-0.255
-0.24
-0.24
-0.25
-0.265
-0.27
-0.26
-0.24
-0.26
-0.255
-0.265
-0.255
-0.26
-0.25
-0.255
-0.27
-0.285
-0.255
-0.255
-0.255
-0.255
-0.265
-0.26
-0.25
-0.22
-0.19
-0.185
-0.17
-0.19
-0.175
-0.15
-0.13
-0.13
-0.15
-0.165
-0.16
-0.16
-0.145
-0.14
-0.135
-0.135
-0.14
-0.145
-0.155
-0.165
-0.175
-0.175
-0.17
-0.175
-0.15
-0.185
-0.205
-0.225
-0.225
-0.22
-0.2
-0.22
-0.235
-0.27
-0.285
-0.285
-0.28
-0.26
-0.265
-0.275
-0.26
-0.25
-0.26
-0.275
-0.3
-0.28
-0.275
-0.285
-0.265
-0.275
-0.295
-0.295
-0.275
-0.27
-0.265
-0.255
-0.255
-0.275
-0.275
-0.255
-0.235
-0.225
-0.23
-0.245
-0.24
-0.22
-0.17
-0.085
0.01
0.08
0.175
0.245
0.315
0.39
0.475
0.56
0.675
0.815
1.02
1.235
1.45
1.66
1.875
2.02
2.12
2.165
2.135
2.025
1.785
1.5
1.2
0.95
0.755
0.615
0.47
0.385
0.345
0.315
0.295
0.28
0.245
0.215
0.175
0.12
0.08
0.04
0.03
0.015
-0.02
-0.075
-0.095
-0.145
-0.17
-0.205
-0.23
-0.275
-0.305
-0.36
-0.37
-0.4
-0.4
-0.42
-0.445
-0.46
-0.475
-0.48
-0.48
-0.495
-0.505
-0.52
-0.505
-0.49
-0.465
-0.465
-0.49
-0.52
-0.52
-0.525
-0.535
-0.555
-0.565
-0.58
-0.555
-0.56
-0.56
-0.585
-0.6
-0.595
-0.59
-0.565
-0.56
-0.59
-0.595
-0.61
-0.6
-0.58
-0.55
-0.56
-0.58
-0.605
-0.615
-0.605
-0.6
-0.61
-0.625
-0.66
-0.66
-0.665
-0.67
-0.695
-0.705
-0.705
-0.72
-0.7
-0.695
-0.705
-0.725
-0.75
-0.795
-0.8
-0.785
-0.8
-0.795
-0.815
-0.83
-0.825
-0.83
-0.83
-0.83
-0.81
-0.77
-0.73
-0.7
-0.685
-0.7
-0.68
-0.65
-0.62
-0.605
-0.6
-0.595
-0.59
-0.56
-0.535
-0.54
-0.555
-0.57
-0.565
-0.535
-0.5
-0.45
-0.425
-0.425
-0.41
-0.385
-0.335
-0.32
-0.325
-0.335
-0.34
-0.325
-0.305
-0.275
-0.28
-0.265
-0.275
-0.26
-0.26
-0.25
-0.255
-0.275
-0.28
-0.275
-0.255
-0.25
-0.24
-0.25
-0.25
-0.25
-0.24
-0.22
-0.23
-0.265
-0.265
-0.25
-0.23
-0.23
-0.235
-0.255
-0.28
-0.28
-0.28
-0.285
-0.29
-0.31
-0.32
-0.31
-0.295
-0.275
-0.265
-0.28
-0.27
-0.275
-0.255
-0.255
-0.265
-0.305
-0.295
-0.3
-0.285
-0.26
-0.25
-0.24
-0.265
-0.27
-0.275
-0.27
-0.3
-0.32
-0.35
-0.35
-0.32
-0.3
-0.295
-0.3
-0.31
-0.315
-0.295
-0.305
-0.32
-0.34
-0.365
-0.36
-0.33
-0.305
-0.285
-0.3
-0.31
-0.3
-0.26
-0.25
-0.26
-0.29
-0.305
-0.29
-0.28
-0.255
-0.255
-0.29
-0.325
-0.34
-0.34
-0.335
-0.32
-0.325
-0.32
-0.3
-0.27
-0.255
-0.23
-0.28
-0.33
-0.335
-0.335
-0.31
-0.295
-0.27
-0.26
-0.24
-0.225
-0.21
-0.235
-0.245
-0.265
-0.245
-0.215
-0.185
-0.175
-0.17
-0.175
-0.17
-0.17
-0.17
-0.195
-0.245
-0.27
-0.275
-0.27
-0.275
-0.265
-0.265
-0.25
-0.23
-0.215
-0.235
-0.25
-0.27
-0.3
-0.285
-0.255
-0.215
-0.195
-0.18
-0.195
-0.21
-0.225
-0.23
-0.24
-0.23
-0.215
-0.19
-0.16
-0.135
-0.145
-0.15
-0.16
-0.175
-0.175
-0.185
-0.2
-0.205
-0.19
-0.15
-0.105
-0.09
-0.095
-0.135
