Lead II
0.35
0.35
0.325
0.31
0.29
0.295
0.295
0.285
0.275
0.26
0.26
0.25
0.255
0.25
0.235
0.225
0.2
0.215
0.215
0.21
0.21
0.2
0.195
0.21
0.205
0.225
0.22
0.195
0.2
0.21
0.2
0.21
0.195
0.17
0.16
0.175
0.18
0.175
0.175
0.155
0.15
0.165
0.175
0.185
0.19
0.195
0.195
0.17
0.185
0.19
0.215
0.225
0.235
0.24
0.235
0.21
0.185
0.165
0.17
0.18
0.19
0.185
0.18
0.16
0.145
0.12
0.14
0.145
0.14
0.13
0.125
0.135
0.145
0.135
0.11
0.1
0.08
0.06
0.07
0.06
0.04
0.025
0.0
0.005
0.02
0.025
0.025
0.01
-0.005
0.0
0.02
0.025
0.015
0.03
0.005
-0.025
-0.035
-0.035
-0.03
-0.015
0.035
0.13
0.255
0.405
0.57
0.73
0.855
0.91
0.84
0.67
0.37
-0.015
-0.44
-0.69
-0.705
-0.58
-0.47
-0.365
-0.28
-0.205
-0.16
-0.13
-0.12
-0.095
-0.08
-0.055
-0.035
-0.02
-0.025
-0.025
-0.03
-0.025
-0.035
-0.035
-0.055
-0.06
-0.055
-0.05
-0.035
-0.03
-0.03
-0.02
-0.02
-0.025
-0.015
-0.005
-0.02
-0.025
-0.025
0.0
0.005
0.0
-0.01
0.0
0.0
0.01
0.015
0.02
0.025
0.025
0.035
0.04
0.065
0.065
0.04
0.025
0.025
0.06
0.095
0.1
0.07
0.065
0.075
0.105
0.12
0.12
0.105
0.1
0.115
0.125
0.135
0.15
0.14
0.12
0.115
0.11
0.125
0.105
0.115
0.105
0.1
0.115
0.125
0.115
0.105
0.095
0.09
0.095
0.085
0.09
0.085
0.055
0.035
0.01
0.01
0.01
-0.025
-0.04
-0.04
-0.04
-0.045
-0.055
-0.08
-0.11
-0.105
-0.095
-0.09
-0.1
-0.125
-0.135
-0.14
-0.125
-0.11
-0.115
-0.13
-0.12
-0.135
-0.115
-0.105
-0.09
-0.105
-0.105
-0.095
-0.085
-0.07
-0.08
-0.085
-0.09
-0.09
-0.09
-0.065
-0.06
-0.06
-0.065
-0.065
-0.065
-0.06
-0.05
-0.05
-0.04
-0.045
-0.02
-0.005
-0.01
-0.01
-0.02
-0.025
-0.015
-0.025
-0.03
-0.045
-0.05
-0.06
-0.055
-0.04
-0.055
-0.075
-0.085
-0.11
-0.105
-0.105
-0.11
-0.12
-0.135
-0.145
-0.135
-0.115
-0.115
-0.115
-0.135
-0.15
-0.165
-0.18
-0.195
-0.215
-0.235
-0.245
-0.24
-0.235
-0.225
-0.22
-0.235
-0.23
-0.22
-0.225
-0.22
-0.23
-0.24
-0.24
-0.21
-0.22
-0.23
-0.26
-0.31
-0.32
-0.305
-0.27
-0.215
-0.16
-0.065
0.06
0.255
0.455
0.625
0.72
0.71
0.62
0.445
0.22
-0.08
-0.475
-0.775
-0.865
-0.825
-0.73
-0.655
-0.545
-0.47
-0.41
-0.355
-0.315
-0.315
-0.32
-0.315
-0.31
-0.305
-0.3
-0.3
-0.31
-0.33
-0.335
-0.305
-0.295
-0.305
-0.33
-0.33
-0.315
-0.28
-0.255
-0.24
-0.255
-0.265
-0.275
-0.26
-0.245
-0.25
-0.265
-0.25
-0.245
-0.26
-0.265
-0.24
-0.255
-0.29
-0.295
-0.265
-0.24
-0.21
-0.21
-0.22
-0.215
-0.215
-0.215
-0.215
-0.205
-0.215
-0.205
-0.18
-0.15
-0.14
-0.17
-0.19
-0.185
-0.185
-0.155
-0.155
-0.16
-0.19
-0.19
-0.17
-0.15
-0.135
-0.14
-0.145
-0.15
-0.125
-0.11
-0.1
-0.105
-0.11
-0.11
-0.09
-0.095
-0.11
-0.135
-0.17
-0.16
-0.16
-0.17
-0.185
-0.205
-0.205
-0.22
-0.235
-0.245
-0.28
-0.265
-0.275
-0.27
-0.27
-0.28
-0.305
-0.33
-0.345
-0.34
-0.33
-0.33
-0.33
-0.34
-0.34
-0.35
-0.365
-0.36
-0.38
-0.375
-0.37
-0.385
-0.375
-0.385
-0.395
-0.395
-0.405
-0.39
-0.355
-0.355
-0.35
-0.34
-0.34
-0.335
-0.31
-0.295
-0.29
-0.305
-0.325
-0.335
-0.335
-0.32
-0.305
-0.29
-0.295
-0.32
-0.31
-0.3
-0.28
-0.285
-0.295
-0.28
-0.285
-0.29
-0.305
-0.33
-0.33
-0.335
-0.315
-0.325
-0.33
-0.355
-0.385
-0.385
-0.385
-0.35
-0.36
-0.36
-0.37
-0.36
-0.345
-0.365
-0.385
-0.42
-0.44
-0.455
-0.45
-0.44
-0.45
-0.45
-0.45
-0.455
-0.445
-0.44
-0.445
-0.46
-0.47
-0.48
-0.49
-0.49
-0.515
-0.545
-0.58
-0.605
-0.6
-0.575
-0.55
-0.505
-0.385
-0.235
-0.05
0.155
0.355
0.505
0.535
0.425
0.21
-0.08
-0.445
-0.845
-1.07
-1.125
-1.09
-1.045
-0.97
-0.875
-0.775
-0.705
-0.69
-0.685
-0.685
-0.66
-0.64
-0.635
-0.615
-0.61
-0.61
-0.61
-0.62
-0.615
-0.6
-0.58
-0.58
-0.595
-0.6
-0.585
-0.575
-0.55
-0.55
-0.57
-0.57
-0.565
-0.55
-0.545
-0.54
-0.555
-0.535
-0.535
-0.52
-0.48
-0.48
-0.49
-0.505
-0.51
-0.49
-0.475
-0.47
-0.47
-0.48
-0.47
-0.455
-0.41
-0.4
-0.4
-0.42
-0.385
-0.35
-0.31
-0.3
-0.305
-0.31
-0.315
-0.305
-0.28
-0.26
-0.275
-0.28
-0.27
-0.275
-0.265
-0.27
-0.27
-0.28
-0.315
-0.33
-0.295
-0.28
-0.295
-0.295
-0.29
-0.295
-0.28
-0.29
-0.29
-0.31
-0.305
-0.3
-0.335
-0.36
-0.375
-0.375
-0.39
-0.39
-0.395
-0.395
-0.405
-0.415
-0.43
-0.435
-0.43
-0.435
-0.46
-0.47
-0.515
-0.51
-0.49
-0.47
-0.505
-0.53
-0.53
-0.51
-0.48
-0.5
-0.5
-0.495
-0.475
-0.46
-0.455
-0.475
-0.47
-0.48
-0.485
-0.465
-0.45
-0.435
-0.455
-0.46
-0.445
-0.415
-0.4
-0.4
-0.41
-0.42
-0.415
-0.395
-0.37
-0.385
-0.395
-0.405
-0.4
-0.38
-0.36
-0.355
-0.365
-0.385
-0.4
-0.405
-0.39
-0.38
-0.405
-0.455
-0.455
-0.4
-0.38
-0.39
-0.415
-0.44
-0.455
-0.435
-0.425
-0.44
-0.46
-0.45
-0.435
-0.395
-0.4
-0.43
-0.45
-0.47
-0.47
-0.47
-0.47
-0.485
-0.5
-0.495
-0.495
-0.49
-0.49
-0.49
-0.48
-0.49
-0.495
-0.475
-0.455
-0.465
-0.485
-0.49
-0.51
-0.505
-0.525
-0.565
-0.585
-0.56
-0.515
-0.43
-0.29
-0.13
0.07
0.275
0.465
0.64
0.71
0.64
0.44
0.175
-0.185
-0.565
-0.895
-1.045
-1.06
-1.015
-0.96
-0.84
-0.72
-0.625
-0.555
-0.535
-0.54
-0.515
-0.485
-0.465
-0.475
-0.485
-0.48
-0.46
-0.435
-0.43
-0.445
-0.46
-0.46
-0.455
-0.45
-0.47
-0.44
-0.45
-0.445
-0.435
-0.415
-0.445
-0.45
-0.44
-0.43
-0.405
-0.395
-0.39
-0.405
-0.4
-0.385
-0.375
-0.36
-0.365
-0.37
-0.35
-0.36
-0.345
-0.335
-0.325
-0.32
-0.31
-0.305
-0.31
-0.295
-0.29
-0.265
-0.26
-0.245
-0.225
-0.215
-0.225
-0.22
-0.22
-0.205
-0.19
-0.185
-0.19
-0.21
-0.21
-0.215
-0.19
-0.185
-0.18
-0.175
-0.19
-0.215
-0.23
-0.23
-0.22
-0.23
-0.24
-0.27
-0.28
-0.27
-0.29
-0.31
-0.34
-0.36
-0.365
-0.355
-0.38
-0.385
-0.41
-0.42
-0.395
-0.365
-0.36
-0.37
-0.39
-0.4
-0.385
-0.355
-0.36
-0.36
-0.36
-0.37
-0.345
-0.335
-0.33
-0.33
-0.35
-0.37
-0.375
-0.365
-0.36
-0.35
-0.355
-0.355
-0.355
-0.35
-0.325
-0.33
-0.345
-0.36
-0.345
-0.32
-0.3
-0.295
-0.28
-0.29
-0.305
-0.3
-0.275
-0.27
-0.275
-0.28
-0.26
-0.255
-0.265
-0.28
-0.275
-0.28
-0.285
-0.285
-0.295
-0.28
-0.295
-0.305
-0.325
-0.335
-0.355
-0.375
-0.39
-0.41
-0.375
-0.37
-0.37
-0.395
-0.41
-0.43
-0.44
-0.45
-0.46
-0.48
-0.495
-0.495
-0.495
-0.48
-0.485
-0.495
-0.49
-0.485
-0.48
-0.48
-0.475
-0.49
-0.495
-0.52
-0.51
-0.505
-0.525
-0.565
-0.59
-0.575
-0.525
-0.44
-0.345
-0.21
-0.045
0.145
0.385
0.59
0.705
0.72
0.595
0.34
-0.005
-0.415
-0.825
-1.065
-1.08
-1.0
-0.9
-0.785
-0.685
-0.625
-0.58
-0.565
-0.535
-0.5
-0.48
-0.495
-0.5
-0.505
-0.51
-0.515
-0.51
-0.53
-0.54
-0.525
-0.505
-0.48
-0.485
-0.51
-0.5
-0.495
-0.485
-0.465
-0.475
-0.48
-0.49
-0.485
-0.48
-0.46
-0.45
-0.45
-0.45
-0.445
-0.435
-0.42
-0.43
-0.425
-0.435
-0.415
-0.405
-0.41
-0.38
-0.375
-0.39
-0.385
-0.37
-0.355
-0.36
-0.37
-0.38
-0.365
-0.335
-0.35
-0.345
-0.35
-0.36
-0.37
-0.365
-0.31
-0.295
-0.295
-0.32
-0.335
-0.35
-0.34
-0.335
-0.325
-0.325
-0.33
-0.33
-0.325
-0.335
-0.345
-0.36
-0.38
-0.385
-0.395
-0.41
-0.425
-0.465
-0.475
-0.48
-0.475
-0.465
-0.475
-0.49
-0.49
-0.49
-0.485
-0.49
-0.515
-0.54
-0.55
-0.54
-0.51
-0.51
-0.535
-0.575
-0.595
-0.59
-0.565
-0.585
-0.58
-0.57
-0.565
-0.57
-0.56
-0.56
-0.555
-0.555
-0.54
-0.515
-0.52
-0.495
-0.52
-0.525
-0.515
-0.5
-0.465
-0.45
-0.455
-0.44
-0.42
-0.415
-0.4
-0.4
-0.415
-0.42
-0.435
-0.435
-0.435
-0.445
-0.46
-0.435
-0.435
-0.43
-0.445
-0.455
-0.48
-0.51
-0.525
-0.505
-0.505
-0.515
-0.545
-0.54
-0.545
-0.53
-0.545
-0.565
-0.615
-0.625
-0.61
-0.565
-0.55
-0.56
-0.565
-0.59
-0.57
-0.545
-0.535
-0.535
-0.56
-0.585
-0.605
-0.57
-0.565
-0.575
-0.615
-0.63
-0.66
-0.655
-0.595
-0.525
-0.41
-0.24
-0.025
0.23
0.48
0.67
0.705
0.58
0.335
-0.005
-0.42
-0.865
-1.13
-1.17
-1.105
-1.005
-0.885
-0.8
-0.74
-0.71
-0.695
-0.665
-0.645
-0.605
-0.6
-0.615
-0.675
-0.71
-0.695
-0.67
-0.65
-0.65
-0.625
-0.6
-0.575
-0.565
-0.565
-0.57
-0.555
-0.555
-0.555
-0.555
-0.57
-0.57
-0.545
-0.53
-0.52
-0.53
-0.53
-0.53
-0.52
-0.495
-0.48
-0.465
-0.46
-0.46
-0.455
-0.435
-0.425
-0.4
-0.395
-0.405
-0.4
-0.4
-0.37
-0.365
-0.37
-0.355
-0.34
-0.315
-0.305
-0.29
-0.29
-0.28
-0.28
-0.27
-0.265
-0.265
-0.275
-0.29
-0.26
-0.255
-0.25
-0.245
-0.27
-0.28
-0.295
-0.295
-0.28
-0.29
-0.305
-0.32
-0.355
-0.365
-0.36
-0.34
-0.36
-0.385
-0.415
-0.42
-0.415
-0.445
-0.455
-0.46
-0.45
-0.455
-0.45
-0.455
-0.465
-0.485
-0.505
-0.515
-0.51
-0.495
-0.505
-0.5
-0.52
-0.51
-0.49
-0.505
-0.51
-0.5
-0.52
-0.51
-0.51
-0.52
-0.525
-0.525
-0.52
-0.51
-0.495
-0.505
-0.52
-0.535
-0.535
-0.52
-0.49
-0.465
-0.47
-0.465
-0.455
-0.42
-0.415
-0.415
-0.435
-0.455
-0.46
-0.405
-0.37
-0.36
-0.37
-0.4
-0.38
-0.375
-0.395
-0.45
-0.51
-0.53
-0.53
-0.505
-0.48
-0.475
-0.46
-0.445
-0.47
-0.485
-0.48
-0.465
-0.47
-0.48
-0.505
-0.535
-0.545
-0.555
-0.55
-0.56
-0.57
-0.585
-0.585
-0.57
-0.555
-0.565
-0.585
-0.575
-0.555
-0.555
-0.57
-0.58
-0.585
-0.57
-0.545
-0.54
-0.565
-0.615
-0.69
-0.675
-0.665
-0.57
-0.45
-0.295
-0.115
0.125
0.36
0.565
0.69
0.655
0.505
0.285
-0.035
-0.445
-0.875
-1.1
-1.115
-1.06
-1.005
-0.925
-0.85
-0.765
-0.695
-0.645
-0.635
-0.64
-0.64
-0.62
-0.61
-0.585
-0.565
-0.58
-0.6
-0.61
-0.61
-0.605
-0.605
-0.64
-0.625
-0.63
-0.625
-0.62
-0.605
-0.585
-0.575
-0.555
-0.555
-0.555
-0.585
-0.59
-0.58
-0.56
-0.565
-0.555
-0.54
-0.54
-0.515
-0.515
-0.5
-0.495
-0.47
-0.46
-0.485
-0.46
-0.445
-0.42
-0.41
-0.41
-0.41
-0.405
-0.395
-0.37
-0.355
-0.34
-0.345
-0.335
-0.32
-0.3
-0.29
-0.27
-0.265
-0.285
-0.295
-0.29
-0.295
-0.295
-0.285
-0.255
-0.24
-0.23
-0.235
-0.255
-0.28
-0.31
-0.33
-0.305
-0.29
-0.315
-0.34
-0.355
-0.385
-0.415
-0.455
-0.47
-0.485
-0.48
-0.48
-0.465
-0.465
-0.49
-0.515
-0.535
-0.525
-0.525
-0.515
-0.505
-0.515
-0.51
-0.52
-0.5
-0.495
-0.505
-0.515
-0.505
-0.505
-0.505
-0.505
-0.5
-0.49
-0.5
-0.51
-0.525
-0.525
-0.49
-0.485
-0.485
-0.5
-0.48
-0.48
-0.495
-0.51
-0.53
-0.555
-0.555
-0.565
-0.585
-0.615
-0.625
-0.61
-0.585
-0.565
-0.585
-0.575
-0.575
-0.565
-0.56
-0.55
-0.565
-0.59
-0.615
-0.61
-0.57
-0.565
-0.61
-0.625
-0.64
-0.64
-0.645
-0.675
-0.725
-0.74
-0.725
-0.71
-0.65
-0.52
-0.36
-0.17
0.05
0.28
0.49
0.62
0.595
0.46
0.21
-0.15
-0.615
-1.03
-1.2
-1.195
-1.105
-1.045
-0.945
-0.825
-0.74
-0.725
-0.715
-0.71
-0.685
-0.645
-0.63
-0.635
-0.635
-0.63
-0.605
-0.61
-0.61
-0.63
-0.64
-0.625
-0.625
-0.61
-0.605
-0.64
-0.65
-0.635
-0.605
-0.59
-0.61
-0.615
-0.625
-0.61
-0.595
-0.585
-0.575
-0.585
-0.58
-0.56
-0.545
-0.525
-0.52
-0.52
-0.525
-0.53
-0.505
-0.48
-0.475
-0.49
-0.475
-0.455
-0.45
-0.44
-0.425
-0.44
-0.405
-0.415
-0.4
-0.365
-0.36
-0.36
-0.365
-0.365
-0.355
-0.33
-0.33
-0.33
-0.335
-0.34
-0.33
-0.32
-0.335
-0.33
-0.345
-0.34
-0.33
-0.345
-0.355
-0.36
-0.365
-0.38
-0.385
-0.39
-0.41
-0.425
-0.455
-0.47
-0.465
-0.465
-0.47
-0.495
-0.51
-0.54
-0.54
-0.525
-0.545
-0.575
-0.585
-0.575
-0.575
-0.57
-0.6
-0.605
-0.61
-0.615
-0.595
-0.565
-0.555
-0.58
-0.59
-0.57
-0.575
-0.57
-0.575
-0.59
-0.595
-0.595
-0.6
-0.565
-0.555
-0.565
-0.57
-0.565
-0.565
-0.555
-0.56
-0.565
-0.56
-0.575
-0.555
-0.54
-0.545
-0.555
-0.57
-0.56
-0.565
-0.545
-0.54
-0.53
-0.545
-0.565
-0.54
-0.545
-0.535
-0.555
-0.565
-0.56
-0.565
-0.555
-0.545
-0.56
-0.565
-0.57
-0.56
-0.55
-0.55
-0.56
-0.57
-0.575
-0.555
-0.55
-0.555
-0.565
-0.575
-0.57
-0.56
-0.545
-0.535
-0.535
-0.535
-0.53
-0.535
-0.54
-0.52
-0.505
-0.515
-0.525
-0.505
-0.51
-0.51
-0.52
-0.53
-0.54
-0.515
-0.505
-0.52
-0.53
-0.53
-0.53
-0.53
-0.525
-0.535
-0.535
-0.535
-0.54
-0.545
-0.535
-0.54
-0.54
-0.545
-0.55
-0.545
-0.54
-0.55
-0.56
-0.565
-0.58
-0.575
-0.575
-0.59
-0.61
-0.615
-0.615
-0.59
-0.575
-0.595
-0.61
-0.615
-0.62
-0.62
-0.595
-0.625
-0.655
-0.71
-0.74
-0.695
-0.65
-0.57
-0.46
-0.335
-0.185
0.03
0.255
0.49
0.695
0.84
0.86
0.73
0.48
0.13
-0.305
-0.75
-1.075
-1.19
-1.15
-1.095
-1.055
-0.945
-0.87
-0.785
-0.74
-0.695
-0.685
-0.665
-0.665
-0.66
-0.645
-0.65
-0.655
-0.665
-0.67
-0.645
-0.645
-0.65
-0.665
-0.65
-0.64
-0.64
-0.625
-0.635
-0.635
-0.63
-0.64
-0.64
-0.64
-0.625
-0.63
-0.63
-0.625
-0.63
-0.61
-0.6
-0.605
-0.605
-0.615
-0.575
-0.565
-0.575
-0.59
-0.59
-0.595
-0.58
-0.56
-0.54
-0.52
-0.49
-0.47
-0.465
-0.455
-0.42
-0.435
-0.415
-0.4
-0.37
-0.35
-0.37
-0.37
-0.355
-0.33
-0.305
-0.29
-0.285
-0.275
-0.265
-0.265
-0.255
-0.255
-0.255
-0.27
-0.27
-0.255
-0.235
-0.22
-0.225
-0.24
-0.245
-0.265
-0.24
-0.225
-0.23
-0.25
-0.28
-0.305
-0.31
-0.305
-0.32
-0.345
-0.375
-0.395
-0.4
-0.41
-0.42
-0.425
-0.455
-0.49
-0.49
-0.505
-0.51
-0.535
-0.545
-0.56
-0.57
-0.555
-0.545
-0.55
-0.56
-0.575
-0.585
-0.585
-0.58
-0.585
-0.585
-0.575
-0.57
-0.55
-0.565
-0.58
-0.585
-0.58
-0.58
-0.56
-0.565
-0.585
-0.575
-0.545
-0.54
-0.525
-0.53
-0.54
-0.54
-0.53
-0.49
-0.48
-0.47
-0.485
-0.475
-0.465
-0.455
-0.435
-0.435
-0.45
-0.455
-0.445
-0.425
-0.39
-0.375
-0.4
-0.415
-0.43
-0.425
-0.42
-0.44
-0.465
-0.475
-0.48
-0.45
-0.46
-0.475
-0.51
-0.535
-0.53
-0.5
-0.485
-0.5
-0.515
-0.53
-0.545
-0.535
-0.51
-0.52
-0.545
-0.585
-0.615
-0.61
-0.6
-0.605
-0.62
-0.64
-0.655
-0.65
-0.64
-0.635
-0.64
-0.645
-0.66
-0.64
-0.64
-0.645
-0.655
-0.66
-0.68
-0.685
-0.705
-0.725
-0.755
-0.735
-0.65
-0.5
-0.335
-0.165
0.03
0.265
0.505
0.7
0.785
0.69
0.425
0.055
-0.36
-0.825
-1.17
-1.29
-1.26
-1.18
-1.085
-0.965
-0.835
-0.77
-0.755
-0.76
-0.765
-0.74
-0.73
-0.725
-0.725
-0.72
-0.735
-0.72
-0.715
-0.71
-0.72
-0.72
-0.725
-0.71
-0.68
-0.67
-0.67
-0.67
-0.67
-0.64
-0.63
-0.645
-0.64
-0.635
-0.63
-0.62
-0.615
-0.6
-0.59
-0.59
-0.595
-0.56
-0.525
-0.525
-0.53
-0.535
-0.535
-0.545
-0.515
-0.485
-0.47
-0.455
-0.43
-0.42
-0.41
-0.39
-0.385
-0.39
-0.365
-0.34
-0.335
-0.345
-0.335
-0.315
-0.305
-0.28
-0.27
-0.275
-0.275
-0.27
-0.27
-0.245
-0.215
-0.23
-0.255
-0.275
-0.27
-0.27
-0.275
-0.27
-0.285
-0.31
-0.35
-0.34
-0.315
-0.31
-0.35
-0.385
-0.405
-0.42
-0.415
-0.43
-0.445
-0.45
-0.455
-0.455
-0.46
-0.47
-0.5
-0.525
-0.525
-0.51
-0.49
-0.495
-0.52
-0.535
-0.555
-0.535
-0.54
-0.55
-0.565
-0.56
-0.56
-0.56
-0.545
-0.535
-0.545
-0.55
-0.555
-0.515
-0.52
-0.55
-0.56
-0.56
-0.54
-0.515
-0.525
-0.525
-0.52
-0.505
-0.49
-0.475
-0.475
-0.465
-0.485
-0.475
-0.465
-0.435
-0.435
-0.43
-0.43
-0.45
-0.455
-0.465
-0.47
-0.47
-0.475
-0.485
-0.485
-0.48
-0.46
-0.475
-0.485
-0.525
-0.525
-0.505
-0.47
-0.455
-0.475
-0.495
-0.495
-0.49
-0.495
-0.52
-0.53
-0.515
-0.525
-0.545
-0.555
-0.565
-0.585
-0.57
-0.575
-0.57
-0.565
-0.57
-0.565
-0.575
-0.59
-0.575
-0.565
-0.555
-0.56
-0.57
-0.585
-0.6
-0.625
-0.645
-0.635
-0.595
-0.555
-0.45
-0.305
-0.105
0.125
0.365
0.615
0.805
0.87
0.745
0.48
0.14
-0.285
-0.74
-1.05
-1.145
-1.135
-1.08
-1.03
-0.945
-0.85
-0.775
-0.74
-0.705
-0.67
-0.635
-0.605
-0.58
-0.58
-0.595
-0.595
-0.59
-0.57
-0.54
-0.57
-0.575
-0.575
-0.555
-0.545
-0.565
-0.59
-0.595
-0.6
-0.58
-0.58
-0.57
-0.565
-0.565
-0.54
-0.495
-0.465
-0.485
-0.52
-0.54
-0.525
-0.48
-0.46
-0.46
-0.48
-0.48
-0.46
-0.43
-0.43
-0.41
-0.405
-0.4
-0.385
-0.38
-0.355
-0.34
-0.34
-0.35
-0.335
-0.295
-0.26
-0.24
-0.22
-0.22
-0.215
-0.205
-0.185
-0.195
-0.21
-0.2
-0.195
-0.185
-0.165
-0.17
-0.17
-0.17
-0.185
-0.185
-0.175
-0.16
-0.195
-0.23
-0.27
-0.27
-0.265
-0.245
-0.275
-0.305
-0.345
-0.385
-0.405
-0.42
-0.425
-0.43
-0.44
-0.465
-0.49
-0.515
-0.54
-0.545
-0.525
-0.5
-0.495
-0.515
-0.525
-0.525
-0.505
-0.495
-0.495
-0.51
-0.505
-0.5
-0.5
-0.5
-0.5
-0.495
-0.505
-0.515
-0.5
-0.485
-0.49
-0.51
-0.535
-0.525
-0.515
-0.465
-0.43
-0.43
-0.455
-0.44
-0.42
-0.4
-0.38
-0.385
-0.405
-0.41
-0.4
-0.39
-0.39
-0.39
-0.415
-0.415
-0.405
-0.38
-0.375
-0.385
-0.41
-0.43
-0.415
-0.39
-0.395
-0.42
-0.44
-0.455
-0.45
-0.43
-0.435
-0.46
-0.485
-0.495
-0.48
-0.445
-0.45
-0.47
-0.48
-0.5
-0.535
-0.55
-0.555
-0.565
-0.575
-0.585
-0.59
-0.575
-0.565
-0.58
-0.58
-0.575
-0.565
-0.565
-0.565
-0.555
-0.555
-0.575
-0.6
-0.61
-0.63
-0.66
-0.695
-0.675
-0.605
-0.47
-0.31
-0.105
0.125
0.395
0.64
0.825
0.84
0.67
0.355
-0.05
-0.535
-0.985
-1.18
-1.215
-1.16
-1.11
-1.0
-0.875
-0.785
-0.735
-0.71
-0.695
-0.675
-0.645
-0.615
-0.61
-0.625
-0.65
-0.645
-0.625
-0.595
-0.59
-0.59
-0.58
-0.58
-0.57
-0.55
-0.53
-0.53
-0.55
-0.55
-0.535
-0.52
-0.525
-0.515
-0.515
-0.525
-0.515
-0.505
-0.5
-0.495
-0.485
-0.49
-0.46
-0.44
-0.43
-0.425
-0.435
-0.415
-0.375
-0.345
-0.335
-0.345
-0.34
-0.335
-0.32
-0.3
-0.275
-0.285
-0.265
-0.25
-0.235
-0.225
-0.22
-0.225
-0.21
-0.22
-0.205
-0.195
-0.175
-0.19
-0.205
-0.21
-0.195
-0.185
-0.185
-0.2
-0.215
-0.235
-0.26
-0.27
-0.28
-0.305
-0.32
-0.335
-0.36
-0.385
-0.395
-0.42
-0.435
-0.43
-0.435
-0.435
-0.45
-0.48
-0.48
-0.485
-0.48
-0.495
-0.485
-0.475
-0.47
-0.455
-0.435
-0.44
-0.46
-0.48
-0.485
-0.475
-0.47
-0.445
-0.425
-0.41
-0.425
-0.46
-0.46
-0.445
-0.43
-0.415
-0.435
-0.455
-0.445
-0.43
-0.415
-0.425
-0.445
-0.46
-0.475
-0.475
-0.48
-0.475
-0.475
-0.465
-0.45
-0.45
-0.475
-0.48
-0.49
-0.52
-0.505
-0.485
-0.475
-0.48
-0.49
-0.49
-0.495
-0.475
-0.5
-0.515
-0.56
-0.6
-0.61
-0.595
-0.53
-0.435
-0.275
-0.055
0.215
0.48
0.7
0.83
0.8
0.59
0.275
-0.11
-0.575
-0.96
-1.125
-1.09
-0.975
-0.865
-0.76
-0.68
-0.64
-0.6
-0.555
-0.53
-0.515
-0.52
-0.53
-0.525
-0.515
-0.5
-0.505
-0.515
-0.515
-0.525
-0.49
-0.485
-0.49
-0.515
-0.5
-0.505
-0.475
-0.46
-0.475
-0.485
-0.505
-0.5
-0.49
-0.475
-0.46
-0.465
-0.455
-0.455
-0.43
-0.435
-0.435
-0.43
-0.445
-0.43
-0.415
-0.4
-0.385
-0.395
-0.405
-0.405
-0.375
-0.35
-0.33
-0.33
-0.34
-0.345
-0.315
-0.295
-0.26
-0.26
-0.25
-0.24
-0.21
-0.2
-0.19
-0.195
-0.215
-0.22
-0.205
-0.19
-0.195
-0.19
-0.19
-0.195
-0.19
-0.19
-0.195
-0.215
-0.26
-0.27
-0.265
-0.26
-0.28
-0.305
-0.355
-0.37
-0.36
-0.355
-0.37
-0.395
-0.415
-0.435
-0.43
-0.445
-0.44
-0.455
-0.465
-0.485
-0.485
-0.475
-0.48
-0.5
-0.49
-0.49
-0.48
-0.47
-0.47
-0.49
-0.5
-0.51
-0.495
-0.475
-0.48
-0.485
-0.495
-0.5
-0.49
-0.485
-0.47
-0.48
-0.485
-0.485
-0.505
-0.475
-0.46
-0.47
-0.45
-0.465
-0.475
-0.485
-0.485
-0.465
-0.455
-0.475
-0.485
-0.465
-0.46
-0.465
-0.49
-0.49
-0.475
-0.465
-0.465
-0.455
-0.45
-0.45
-0.455
-0.445
-0.445
-0.45
-0.45
-0.46
-0.43
-0.405
-0.4
-0.42
-0.43
-0.43
-0.41
-0.4
-0.41
-0.405
-0.44
-0.455
-0.445
-0.44
-0.44
-0.47
-0.5
-0.525
-0.495
-0.45
-0.465
-0.5
-0.525
-0.55
-0.53
-0.525
-0.515
-0.53
-0.53
-0.5
-0.49
-0.505
-0.51
-0.545
-0.555
-0.59
-0.605
-0.605
-0.615
-0.625
-0.61
-0.61
-0.61
-0.595
-0.6
-0.595
-0.605
-0.615
-0.6
-0.585
-0.6
-0.63
-0.67
-0.705
-0.715
-0.7
-0.645
-0.555
-0.42
-0.225
0.04
0.32
0.59
0.8
0.875
0.74
0.44
0.075
-0.305
-0.73
-1.08
-1.23
-1.175
-1.06
-0.955
-0.865
-0.8
-0.765
-0.72
-0.69
-0.68
-0.68
-0.695
-0.705
-0.7
-0.695
-0.685
-0.69
-0.67
-0.67
-0.65
-0.655
-0.675
-0.675
-0.67
-0.675
-0.67
-0.655
-0.65
-0.66
-0.64
-0.65
-0.65
-0.65
-0.65
-0.65
-0.64
-0.62
-0.605
-0.59
-0.575
-0.555
-0.55
-0.555
-0.54
-0.515
-0.51
-0.49
-0.505
-0.485
-0.495
-0.485
-0.48
-0.495
-0.48
-0.48
-0.455
-0.425
-0.39
-0.385
-0.39
-0.4
-0.38
-0.36
-0.35
-0.365
-0.385
-0.4
-0.405
-0.37
-0.365
-0.355
-0.36
-0.375
-0.365
-0.355
-0.35
-0.38
-0.425
-0.425
-0.45
-0.46
-0.465
-0.47
-0.5
-0.535
-0.575
-0.595
-0.595
-0.58
-0.605
-0.645
-0.67
-0.685
-0.71
-0.75
-0.76
-0.74
-0.725
-0.715
-0.72
-0.735
-0.735
-0.735
-0.735
-0.725
-0.735
-0.745
-0.735
-0.705
-0.675
-0.66
-0.665
-0.675
-0.68
-0.68
-0.67
-0.675
-0.685
-0.69
-0.675
-0.65
-0.63
-0.64
-0.645
-0.67
-0.66
-0.645
-0.62
-0.605
-0.64
-0.64
-0.66
-0.66
-0.625
-0.6
-0.63
-0.65
-0.655
-0.665
-0.67
-0.66
-0.67
-0.695
-0.72
-0.74
-0.755
-0.72
-0.72
-0.75
-0.775
-0.785
-0.76
-0.75
-0.75
-0.79
-0.825
-0.825
-0.81
-0.81
-0.845
-0.87
-0.875
-0.85
-0.83
-0.82
-0.825
-0.855
-0.885
-0.88
-0.845
-0.845
-0.85
-0.845
-0.855
-0.865
-0.865
-0.88
-0.93
-0.98
-1.04
-1.025
-0.965
-0.86
-0.725
-0.545
-0.315
-0.04
0.235
0.44
0.47
0.325
0.07
-0.285
-0.75
-1.195
-1.425
-1.455
-1.425
-1.375
-1.305
-1.19
-1.085
-1.025
-1.01
-1.005
-0.99
-0.95
-0.94
-0.955
-0.975
-0.945
-0.94
-0.935
-0.95
-0.955
-0.95
-0.925
-0.905
-0.895
-0.925
-0.935
-0.95
-0.94
-0.925
-0.915
-0.895
-0.88
-0.87
-0.85
-0.835
-0.82
-0.835
-0.87
-0.91
-0.935
-0.9
-0.855
-0.835
-0.84
-0.835
-0.83
-0.8
-0.795
-0.8
-0.835
-0.825
-0.8
-0.76
-0.72
-0.72
-0.735
-0.78
-0.78
-0.765
-0.74
-0.71
-0.685
-0.655
-0.655
-0.625
-0.615
-0.615
-0.645
-0.655
-0.675
-0.64
-0.65
-0.64
-0.645
-0.63
-0.635
-0.645
-0.66
-0.665
-0.66
-0.685
-0.715
-0.745
-0.755
-0.765
-0.785
-0.79
-0.785
-0.8
-0.825
-0.85
-0.87
-0.885
-0.9
-0.895
-0.89
-0.895
-0.925
-0.935
-0.95
-0.93
-0.92
-0.905
-0.91
-0.925
-0.96
-0.935
-0.93
-0.94
-0.945
-0.945
-0.95
-0.93
-0.89
-0.885
-0.875
-0.885
-0.915
-0.89
-0.88
-0.87
-0.865
-0.855
-0.85
-0.84
-0.83
-0.81
-0.81
-0.82
-0.82
-0.795
-0.775
-0.76
-0.765
-0.765
-0.77
-0.765
-0.755
-0.755
-0.76
-0.76
-0.775
-0.775
-0.775
-0.765
-0.775
-0.785
-0.77
-0.74
-0.725
-0.715
-0.73
-0.745
-0.745
-0.74
-0.725
-0.73
-0.775
-0.81
-0.825
-0.805
-0.8
-0.81
-0.825
-0.855
-0.865
-0.855
-0.84
-0.82
-0.835
-0.84
-0.85
-0.825
-0.82
-0.835
-0.87
-0.905
-0.92
-0.895
-0.85
-0.735
-0.555
-0.355
-0.08
0.225
0.525
0.75
0.825
0.685
0.39
-0.055
-0.59
-1.07
-1.33
-1.37
-1.29
-1.23
-1.14
-1.07
-1.0
-0.935
-0.9
-0.86
-0.845
-0.81
-0.815
-0.825
-0.835
-0.825
-0.805
-0.815
-0.82
-0.83
-0.85
-0.805
-0.795
-0.775
-0.8
-0.79
-0.78
-0.765
-0.75
-0.75
-0.755
-0.78
-0.805
-0.8
-0.765
-0.76
-0.74
-0.74
-0.74
-0.745
-0.74
-0.72
-0.72
-0.71
-0.7
-0.685
-0.675
-0.655
-0.645
-0.645
-0.605
-0.58
-0.56
-0.555
-0.55
-0.55
-0.55
-0.525
-0.5
-0.495
-0.48
-0.455
-0.445
-0.42
-0.415
-0.415
-0.415
-0.43
-0.415
-0.41
-0.4
-0.39
-0.395
-0.415
-0.42
-0.41
-0.41
-0.425
-0.46
-0.48
-0.49
-0.5
-0.53
-0.56
-0.575
-0.595
-0.62
-0.635
-0.645
-0.655
-0.67
-0.69
-0.695
-0.695
-0.69
-0.68
-0.69
-0.7
-0.72
-0.7
-0.655
-0.645
-0.645
-0.665
-0.675
-0.675
-0.64
-0.615
-0.63
-0.635
-0.65
-0.64
-0.63
-0.63
-0.635
-0.635
-0.63
-0.59
-0.56
-0.56
-0.575
-0.575
-0.575
-0.565
-0.55
-0.53
-0.545
-0.525
-0.55
-0.565
-0.555
-0.56
-0.56
-0.565
-0.56
-0.55
-0.53
-0.53
-0.56
-0.595
-0.615
-0.6
-0.58
-0.575
-0.585
-0.605
-0.61
-0.6
-0.59
-0.595
-0.595
-0.625
-0.675
-0.68
-0.67
-0.685
-0.695
-0.715
-0.72
-0.72
-0.715
-0.7
-0.71
-0.73
-0.715
-0.7
-0.695
-0.695
-0.7
-0.7
-0.695
-0.69
-0.695
-0.735
-0.75
-0.78
-0.76
-0.695
-0.595
-0.45
-0.255
-0.045
0.225
0.535
0.81
0.995
0.98
0.78
0.43
-0.02
-0.51
-0.925
-1.145
-1.145
-1.1
-1.02
-0.92
-0.82
-0.735
-0.69
-0.67
-0.65
-0.615
-0.635
-0.645
-0.665
-0.66
-0.665
-0.65
-0.645
-0.655
-0.66
-0.67
-0.665
-0.66
-0.655
-0.645
-0.66
-0.655
-0.655
-0.655
-0.645
-0.65
-0.65
-0.64
-0.615
-0.6
-0.6
-0.585
-0.575
-0.565
-0.565
-0.555
-0.55
-0.56
-0.56
-0.54
-0.53
-0.5
-0.505
-0.505
-0.51
-0.495
-0.49
-0.465
-0.46
-0.43
-0.435
-0.43
-0.39
-0.385
-0.365
-0.37
-0.365
-0.34
-0.32
-0.305
-0.305
-0.3
-0.305
-0.285
-0.285
-0.27
-0.275
-0.27
-0.28
-0.285
-0.28
-0.3
-0.3
-0.32
-0.33
-0.315
-0.305
-0.31
-0.33
-0.355
-0.385
-0.385
-0.4
-0.4
-0.42
-0.44
-0.455
-0.465
-0.475
-0.49
-0.5
-0.53
-0.54
-0.53
-0.52
-0.475
-0.485
-0.495
-0.515
-0.51
-0.5
-0.5
-0.495
-0.49
-0.495
-0.495
-0.465
-0.455
-0.47
-0.49
-0.495
-0.495
-0.48
-0.46
-0.465
-0.48
-0.485
-0.48
-0.46
-0.435
-0.43
-0.435
-0.435
-0.425
-0.385
-0.385
-0.385
-0.385
-0.395
-0.37
-0.355
-0.34
-0.35
-0.34
-0.34
-0.335
-0.335
-0.335
-0.315
-0.33
-0.34
-0.365
-0.375
-0.36
-0.36
-0.37
-0.38
-0.39
-0.38
-0.375
-0.365
-0.355
-0.37
-0.37
-0.365
-0.335
-0.355
-0.39
-0.42
-0.42
-0.42
-0.42
-0.41
-0.415
-0.425
-0.4
-0.38
-0.365
-0.38
-0.4
-0.44
-0.43
-0.42
-0.405
-0.395
-0.4
-0.42
-0.43
-0.43
-0.44
-0.47
-0.48
-0.45
-0.38
-0.23
-0.03
0.195
0.465
0.74
0.995
1.175
1.17
0.96
0.59
0.14
-0.34
-0.725
-0.875
-0.87
-0.82
-0.78
-0.705
-0.6
-0.51
-0.475
-0.48
-0.47
-0.445
-0.425
-0.405
-0.4
-0.395
-0.405
-0.425
-0.41
-0.395
-0.39
-0.395
-0.405
-0.425
-0.405
-0.405
-0.39
-0.385
-0.39
-0.395
-0.39
-0.365
-0.36
-0.355
-0.365
-0.365
-0.355
-0.335
-0.325
-0.315
-0.33
-0.33
-0.295
-0.28
-0.29
-0.3
-0.315
-0.295
-0.28
-0.255
-0.24
-0.24
-0.24
-0.23
-0.205
-0.2
-0.18
-0.165
-0.15
-0.14
-0.11
-0.1
-0.07
-0.055
-0.05
-0.04
-0.025
