Lead II
-0.51
-0.525
-0.53
-0.545
-0.54
-0.545
-0.545
-0.555
-0.55
-0.53
-0.53
-0.515
-0.505
-0.495
-0.475
-0.46
-0.435
-0.4
-0.355
-0.335
-0.33
-0.315
-0.295
-0.28
-0.255
-0.225
-0.2
-0.185
-0.175
-0.175
-0.16
-0.15
-0.135
-0.13
-0.11
-0.11
-0.1
-0.105
-0.11
-0.11
-0.13
-0.125
-0.125
-0.105
-0.085
-0.07
-0.05
-0.005
0.03
0.085
0.13
0.165
0.205
0.25
0.29
0.36
0.425
0.53
0.645
0.76
0.83
0.82
0.7
0.445
0.06
-0.4
-0.875
-1.28
-1.59
-1.81
-1.95
-2.05
-2.115
-2.145
-2.15
-2.16
-2.14
-2.1
-2.045
-1.935
-1.83
-1.685
-1.515
-1.375
-1.26
-1.195
-1.155
-1.115
-1.05
-0.96
-0.82
-0.685
-0.54
-0.455
-0.405
-0.38
-0.36
-0.35
-0.295
-0.18
-0.055
0.07
0.195
0.255
0.305
0.33
0.33
0.34
0.34
0.355
0.37
0.37
0.385
0.415
0.425
0.44
0.45
0.48
0.505
0.535
0.565
0.57
0.58
0.585
0.59
0.6
0.61
0.63
0.655
0.68
0.72
0.75
0.775
0.795
0.82
0.82
0.82
0.845
0.855
0.865
0.9
0.925
0.945
0.97
0.99
1.005
1.015
1.0
1.01
1.0
1.0
0.98
0.97
0.955
0.935
0.915
0.895
0.87
0.835
0.8
0.755
0.71
0.67
0.63
0.575
0.54
0.49
0.475
0.44
0.405
0.38
0.34
0.305
0.27
0.22
0.19
0.175
0.145
0.125
0.105
0.095
0.065
0.06
0.05
0.035
0.005
-0.005
-0.025
-0.045
-0.05
-0.035
-0.035
-0.025
-0.025
-0.015
-0.02
-0.05
-0.055
-0.045
-0.065
-0.07
-0.055
-0.04
-0.025
-0.01
-0.01
-0.01
-0.025
-0.04
-0.055
-0.055
-0.05
-0.06
-0.06
-0.05
-0.04
-0.035
-0.035
-0.03
-0.035
-0.045
-0.05
-0.045
-0.055
-0.065
-0.05
-0.055
-0.055
-0.07
-0.085
-0.095
-0.1
-0.1
-0.1
-0.09
-0.095
-0.09
-0.085
-0.09
-0.085
-0.085
-0.085
-0.085
-0.095
-0.105
-0.105
-0.105
-0.1
-0.1
-0.095
-0.085
-0.08
-0.065
-0.08
-0.085
-0.095
-0.1
-0.12
-0.135
-0.13
-0.12
-0.105
-0.105
-0.075
-0.065
-0.055
-0.06
-0.075
-0.1
-0.12
-0.125
-0.12
-0.11
-0.095
-0.07
-0.06
-0.04
-0.02
-0.015
-0.01
-0.005
-0.005
0.005
0.01
0.005
-0.005
0.03
0.045
0.09
0.135
0.19
0.22
0.24
0.245
0.225
0.195
0.175
0.165
0.175
0.185
0.205
0.21
0.215
0.18
0.14
0.1
0.06
0.025
-0.015
-0.035
-0.035
-0.04
-0.05
-0.075
-0.09
-0.105
-0.125
-0.135
-0.135
-0.135
-0.135
-0.13
-0.115
-0.11
-0.095
-0.11
-0.115
-0.115
-0.105
-0.085
-0.035
0.05
0.195
0.41
0.645
0.895
1.11
1.325
1.51
1.66
1.765
1.805
1.785
1.675
1.515
1.28
0.965
0.645
0.35
0.15
0.02
-0.03
-0.05
-0.05
-0.075
-0.105
-0.15
-0.205
-0.26
-0.275
-0.27
-0.27
-0.26
-0.255
-0.26
-0.28
-0.3
-0.315
-0.31
-0.32
-0.315
-0.3
-0.29
-0.295
-0.295
-0.305
-0.32
-0.315
-0.315
-0.325
-0.33
-0.32
-0.33
-0.32
-0.315
-0.325
-0.33
-0.33
-0.355
-0.355
-0.365
-0.36
-0.385
-0.38
-0.38
-0.385
-0.395
-0.41
-0.425
-0.44
-0.45
-0.465
-0.47
-0.48
-0.485
-0.505
-0.51
-0.515
-0.515
-0.535
-0.555
-0.58
-0.595
-0.62
-0.63
-0.635
-0.645
-0.655
-0.665
-0.655
-0.66
-0.655
-0.665
-0.66
-0.67
-0.655
-0.64
-0.62
-0.61
-0.6
-0.585
-0.545
-0.505
-0.475
-0.445
-0.41
-0.4
-0.39
-0.37
-0.345
-0.32
-0.29
-0.26
-0.225
-0.185
-0.155
-0.15
-0.14
-0.135
-0.12
-0.12
-0.11
-0.1
-0.1
-0.09
-0.09
-0.075
-0.055
-0.07
-0.06
-0.08
-0.08
-0.09
-0.085
-0.07
-0.065
-0.065
-0.055
-0.06
-0.06
-0.055
-0.045
-0.055
-0.045
-0.06
-0.05
-0.06
-0.07
-0.075
-0.07
-0.065
-0.06
-0.06
-0.03
-0.04
-0.035
-0.04
-0.04
-0.03
-0.005
0.005
0.02
0.05
0.075
0.08
0.09
0.1
0.09
0.105
0.125
0.16
0.21
0.25
0.285
0.31
0.305
0.275
0.25
0.22
0.205
0.205
0.22
0.23
0.24
0.25
0.225
0.165
0.145
0.105
0.065
0.04
0.03
0.015
0.0
-0.01
-0.025
-0.04
-0.045
-0.06
-0.075
-0.085
-0.1
-0.115
-0.1
-0.085
-0.07
-0.06
-0.045
-0.03
-0.025
-0.035
-0.035
-0.045
-0.03
0.015
0.09
0.22
0.405
0.635
0.855
1.08
1.29
1.465
1.615
1.75
1.84
1.84
1.805
1.73
1.59
1.39
1.14
0.86
0.585
0.365
0.205
0.115
0.07
0.045
0.01
-0.01
-0.055
-0.105
-0.145
-0.18
-0.2
-0.195
-0.195
-0.195
-0.19
-0.2
-0.21
-0.22
-0.22
-0.235
-0.23
-0.235
-0.25
-0.235
-0.22
-0.225
-0.23
-0.245
-0.26
-0.27
-0.27
-0.28
-0.285
-0.275
-0.265
-0.26
-0.255
-0.26
-0.27
-0.28
-0.285
-0.29
-0.3
-0.3
-0.305
-0.305
-0.3
-0.31
-0.31
-0.315
-0.33
-0.345
-0.36
-0.365
-0.37
-0.385
-0.385
-0.395
-0.4
-0.395
-0.405
-0.415
-0.425
-0.45
-0.465
-0.475
-0.49
-0.485
-0.485
-0.48
-0.47
-0.455
-0.44
-0.44
-0.425
-0.42
-0.405
-0.39
-0.37
-0.335
-0.315
-0.29
-0.255
-0.24
-0.22
-0.205
-0.185
-0.165
-0.155
-0.135
-0.13
-0.115
-0.105
-0.09
-0.075
-0.06
-0.065
-0.065
-0.065
-0.075
-0.085
-0.09
-0.09
-0.09
-0.075
-0.06
-0.05
-0.04
-0.045
-0.045
-0.05
-0.06
-0.075
-0.08
-0.085
-0.07
-0.06
-0.045
-0.045
-0.04
-0.045
-0.045
-0.065
-0.07
-0.08
-0.08
-0.075
-0.07
-0.05
-0.04
-0.015
0.0
0.015
0.035
0.055
0.05
0.07
0.075
0.075
0.09
0.115
0.14
0.185
0.23
0.26
0.285
0.285
0.265
0.24
0.215
0.205
0.2
0.215
0.235
0.245
0.24
0.21
0.175
0.14
0.085
0.05
0.015
0.0
-0.02
-0.04
-0.045
-0.06
-0.045
-0.06
-0.065
-0.07
-0.1
-0.085
-0.085
-0.095
-0.085
-0.095
-0.065
-0.065
-0.07
-0.06
-0.06
-0.06
-0.045
0.005
0.085
0.225
0.395
0.605
0.845
1.05
1.255
1.44
1.61
1.745
1.825
1.84
1.8
1.7
1.53
1.33
1.095
0.81
0.56
0.365
0.23
0.135
0.075
0.035
0.0
-0.035
-0.075
-0.12
-0.155
-0.195
-0.21
-0.235
-0.24
-0.24
-0.235
-0.23
-0.24
-0.25
-0.25
-0.255
-0.25
-0.255
-0.255
-0.25
-0.255
-0.26
-0.27
-0.26
-0.28
-0.28
-0.27
-0.29
-0.295
-0.295
-0.29
-0.275
-0.27
-0.27
-0.27
-0.29
-0.3
-0.31
-0.325
-0.33
-0.325
-0.32
-0.315
-0.335
-0.335
-0.355
-0.37
-0.395
-0.405
-0.425
-0.43
-0.435
-0.435
-0.44
-0.445
-0.46
-0.47
-0.485
-0.495
-0.505
-0.505
-0.515
-0.525
-0.515
-0.525
-0.535
-0.53
-0.51
-0.5
-0.485
-0.475
-0.46
-0.445
-0.425
-0.395
-0.37
-0.34
-0.315
-0.27
-0.25
-0.22
-0.205
-0.2
-0.19
-0.18
-0.165
-0.145
-0.115
-0.1
-0.1
-0.075
-0.085
-0.085
-0.085
-0.09
-0.08
-0.075
-0.075
-0.085
-0.085
-0.09
-0.085
-0.075
-0.065
-0.065
-0.06
-0.075
-0.08
-0.08
-0.07
-0.05
-0.03
-0.015
0.015
0.035
0.04
0.045
0.045
0.04
0.05
0.07
0.085
0.12
0.155
0.2
0.265
0.355
0.46
0.585
0.68
0.78
0.875
0.955
1.05
1.145
1.235
1.325
1.42
1.51
1.585
1.635
1.615
1.525
1.33
1.01
0.57
0.05
-0.46
-0.89
-1.17
-1.315
-1.335
-1.295
-1.205
-1.09
-0.98
-0.895
-0.84
-0.785
-0.71
-0.625
-0.525
-0.425
-0.34
-0.27
-0.23
-0.225
-0.225
-0.23
-0.24
-0.24
-0.23
-0.21
-0.195
-0.18
-0.185
-0.185
-0.18
-0.2
-0.205
-0.205
-0.21
-0.215
-0.22
-0.21
-0.215
-0.19
-0.19
-0.18
-0.185
-0.2
-0.205
-0.21
-0.23
-0.22
-0.21
-0.2
-0.2
-0.19
-0.19
-0.17
-0.175
-0.185
-0.17
-0.185
-0.17
-0.17
-0.155
-0.15
-0.145
-0.12
-0.105
-0.08
-0.07
-0.05
-0.04
-0.025
-0.015
-0.015
0.005
0.015
0.03
0.055
0.065
0.08
0.08
0.075
0.08
0.06
0.065
0.06
0.065
0.055
0.045
0.04
0.04
0.025
-0.005
-0.005
-0.025
-0.055
-0.075
-0.085
-0.1
-0.11
-0.115
-0.105
-0.13
-0.13
-0.14
-0.155
-0.165
-0.175
-0.175
-0.165
-0.16
-0.15
-0.155
-0.14
-0.15
-0.17
-0.16
-0.16
-0.17
-0.175
-0.17
-0.185
-0.185
-0.18
-0.16
-0.15
-0.135
-0.125
-0.125
-0.13
-0.14
-0.15
-0.16
-0.16
-0.15
-0.15
-0.135
-0.12
-0.125
-0.13
-0.13
-0.145
-0.145
-0.145
-0.155
-0.14
-0.14
-0.12
-0.11
-0.105
-0.11
-0.125
-0.13
-0.145
-0.15
-0.15
-0.155
-0.14
-0.14
-0.14
-0.135
-0.13
-0.145
-0.135
-0.135
-0.13
-0.13
-0.125
-0.125
-0.12
-0.125
-0.12
-0.11
-0.1
-0.095
-0.13
-0.125
-0.14
-0.145
-0.14
-0.145
-0.135
-0.11
-0.08
-0.055
-0.055
-0.035
-0.035
-0.03
0.0
0.015
0.02
0.035
0.04
0.065
0.09
0.115
0.16
0.195
0.215
0.215
0.19
0.17
0.155
0.14
0.13
0.15
0.16
0.17
0.155
0.13
0.095
0.045
0.015
-0.02
-0.035
-0.05
-0.07
-0.105
-0.12
-0.12
-0.12
-0.135
-0.135
-0.14
-0.135
-0.145
-0.145
-0.15
-0.145
-0.145
-0.15
-0.14
-0.14
-0.125
-0.13
-0.125
-0.135
-0.1
-0.02
0.11
0.305
0.52
0.755
0.98
1.19
1.37
1.535
1.665
1.75
1.76
1.72
1.635
1.48
1.265
1.015
0.72
0.435
0.2
0.055
-0.03
-0.075
-0.105
-0.115
-0.145
-0.195
-0.23
-0.28
-0.315
-0.33
-0.35
-0.36
-0.355
-0.35
-0.365
-0.355
-0.365
-0.35
-0.355
-0.345
-0.36
-0.355
-0.355
-0.37
-0.37
-0.38
-0.38
-0.4
-0.395
-0.4
-0.39
-0.38
-0.365
-0.365
-0.375
-0.38
-0.41
-0.415
-0.42
-0.445
-0.45
-0.45
-0.435
-0.445
-0.455
-0.46
-0.455
-0.47
-0.495
-0.51
-0.515
-0.525
-0.54
-0.555
-0.555
-0.575
-0.58
-0.575
-0.595
-0.625
-0.65
-0.67
-0.69
-0.705
-0.7
-0.695
-0.69
-0.695
-0.695
-0.69
-0.695
-0.68
-0.665
-0.66
-0.64
-0.63
-0.625
-0.6
-0.58
-0.555
-0.505
-0.475
-0.46
-0.43
-0.4
-0.385
-0.365
-0.35
-0.33
-0.295
-0.27
-0.245
-0.23
-0.215
-0.2
-0.2
-0.18
-0.18
-0.175
-0.18
-0.185
-0.175
-0.17
-0.175
-0.175
-0.17
-0.185
-0.18
-0.19
-0.19
-0.175
-0.175
-0.18
-0.165
-0.16
-0.145
-0.145
-0.13
-0.135
-0.145
-0.155
-0.15
-0.15
-0.15
-0.145
-0.145
-0.15
-0.15
-0.125
-0.115
-0.125
-0.135
-0.14
-0.14
-0.15
-0.125
-0.115
-0.085
-0.065
-0.04
-0.01
0.005
-0.005
0.005
0.005
0.01
0.035
0.075
0.11
0.13
0.16
0.175
0.165
0.155
0.145
0.14
0.15
0.14
0.145
0.135
0.125
0.105
0.08
0.055
0.03
0.01
-0.025
-0.045
-0.06
-0.085
-0.105
-0.125
-0.155
-0.165
-0.18
-0.175
-0.17
-0.16
-0.155
-0.155
-0.15
-0.155
-0.16
-0.16
-0.16
-0.16
-0.155
-0.145
-0.14
-0.115
-0.085
-0.035
0.065
0.18
0.35
0.55
0.74
0.94
1.12
1.295
1.45
1.585
1.69
1.725
1.705
1.635
1.505
1.34
1.115
0.835
0.565
0.325
0.135
0.05
-0.015
-0.05
-0.08
-0.11
-0.155
-0.2
-0.255
-0.29
-0.32
-0.325
-0.315
-0.3
-0.295
-0.305
-0.305
-0.32
-0.335
-0.34
-0.355
-0.36
-0.35
-0.345
-0.35
-0.35
-0.36
-0.35
-0.33
-0.325
-0.325
-0.325
-0.335
-0.345
-0.365
-0.37
-0.375
-0.37
-0.36
-0.355
-0.35
-0.35
-0.37
-0.375
-0.39
-0.395
-0.395
-0.405
-0.41
-0.42
-0.43
-0.44
-0.455
-0.475
-0.485
-0.49
-0.51
-0.51
-0.52
-0.515
-0.515
-0.53
-0.535
-0.555
-0.565
-0.585
-0.59
-0.605
-0.605
-0.6
-0.59
-0.575
-0.575
-0.57
-0.555
-0.55
-0.54
-0.53
-0.525
-0.49
-0.475
-0.44
-0.425
-0.385
-0.37
-0.345
-0.34
-0.335
-0.32
-0.31
-0.28
-0.285
-0.265
-0.25
-0.22
-0.205
-0.18
-0.16
-0.165
-0.18
-0.2
-0.21
-0.205
-0.21
-0.22
-0.19
-0.2
-0.19
-0.21
-0.19
-0.185
-0.18
-0.185
-0.18
-0.195
-0.21
-0.21
-0.205
-0.205
-0.2
-0.18
-0.19
-0.185
-0.195
-0.195
-0.2
-0.195
-0.2
-0.2
-0.2
-0.19
-0.18
-0.17
-0.17
-0.175
-0.19
-0.19
-0.175
-0.165
-0.16
-0.125
-0.105
-0.1
-0.085
-0.075
-0.055
-0.065
-0.05
-0.03
-0.005
0.03
0.07
0.09
0.115
0.12
0.12
0.1
0.085
0.065
0.035
0.06
0.065
0.07
0.065
0.05
0.035
0.005
-0.03
-0.055
-0.07
-0.095
-0.125
-0.13
-0.18
-0.19
-0.215
-0.23
-0.235
-0.235
-0.24
-0.215
-0.19
-0.18
-0.205
-0.21
-0.22
-0.225
-0.225
-0.23
-0.23
-0.2
-0.185
-0.145
-0.09
0.005
0.15
0.335
0.545
0.755
0.94
1.125
1.29
1.465
1.61
1.67
1.67
1.58
1.46
1.275
1.025
0.735
0.45
0.23
0.065
-0.025
-0.065
-0.095
-0.11
-0.16
-0.195
-0.255
-0.315
-0.365
-0.4
-0.405
-0.4
-0.385
-0.37
-0.375
-0.36
-0.365
-0.37
-0.39
-0.405
-0.41
-0.42
-0.42
-0.42
-0.415
-0.415
-0.41
-0.405
-0.42
-0.405
-0.405
-0.42
-0.42
-0.43
-0.455
-0.455
-0.45
-0.44
-0.44
-0.43
-0.435
-0.445
-0.45
-0.465
-0.48
-0.495
-0.53
-0.53
-0.54
-0.535
-0.54
-0.545
-0.53
-0.55
-0.555
-0.585
-0.605
-0.615
-0.63
-0.65
-0.65
-0.64
-0.64
-0.635
-0.64
-0.64
-0.645
-0.645
-0.645
-0.645
-0.645
-0.635
-0.62
-0.615
-0.585
-0.55
-0.52
-0.485
-0.46
-0.445
-0.43
-0.405
-0.395
-0.365
-0.34
-0.31
-0.305
-0.27
-0.27
-0.255
-0.245
-0.24
-0.23
-0.225
-0.225
-0.225
-0.23
-0.225
-0.215
-0.205
-0.2
-0.205
-0.21
-0.225
-0.22
-0.23
-0.215
-0.215
-0.21
-0.2
-0.19
-0.195
-0.2
-0.2
-0.2
-0.215
-0.225
-0.215
-0.22
-0.23
-0.22
-0.22
-0.215
-0.195
-0.18
-0.18
-0.185
-0.2
-0.2
-0.195
-0.19
-0.19
-0.185
-0.16
-0.125
-0.105
-0.08
-0.065
-0.07
-0.07
-0.075
-0.07
-0.06
-0.01
0.03
0.085
0.125
0.145
0.155
0.13
0.105
0.055
0.035
0.035
0.04
0.06
0.07
0.07
0.05
0.03
-0.005
-0.05
-0.09
-0.11
-0.135
-0.155
-0.17
-0.19
-0.21
-0.22
-0.22
-0.22
-0.215
-0.22
-0.24
-0.24
-0.225
-0.23
-0.23
-0.22
-0.215
-0.205
-0.2
-0.19
-0.185
-0.18
-0.155
-0.1
0.015
0.165
0.36
0.58
0.8
1.0
1.195
1.38
1.53
1.625
1.66
1.625
1.525
1.385
1.185
0.945
0.675
0.425
0.23
0.08
0.01
-0.065
-0.095
-0.12
-0.175
-0.235
-0.29
-0.32
-0.35
-0.365
-0.355
-0.35
-0.35
-0.345
-0.345
-0.375
-0.375
-0.39
-0.395
-0.39
-0.39
-0.385
-0.375
-0.365
-0.38
-0.375
-0.385
-0.39
-0.395
-0.415
-0.425
-0.415
-0.42
-0.425
-0.405
-0.395
-0.395
-0.395
-0.42
-0.43
-0.44
-0.43
-0.44
-0.435
-0.44
-0.45
-0.46
-0.47
-0.48
-0.475
-0.48
-0.49
-0.505
-0.515
-0.54
-0.545
-0.585
-0.59
-0.59
-0.58
-0.58
-0.58
-0.585
-0.59
-0.595
-0.61
-0.625
-0.625
-0.63
-0.61
-0.61
-0.585
-0.56
-0.54
-0.54
-0.525
-0.52
-0.5
-0.47
-0.435
-0.41
-0.39
-0.36
-0.335
-0.305
-0.295
-0.285
-0.265
-0.26
-0.245
-0.255
-0.245
-0.225
-0.205
-0.185
-0.18
-0.19
-0.185
-0.2
-0.21
-0.19
-0.21
-0.2
-0.19
-0.205
-0.19
-0.185
-0.2
-0.195
-0.2
-0.2
-0.205
-0.185
-0.19
-0.185
-0.18
-0.185
-0.195
-0.19
-0.19
-0.195
-0.19
-0.185
-0.19
-0.19
-0.185
-0.175
-0.17
-0.165
-0.145
-0.135
-0.115
-0.1
-0.085
-0.07
-0.065
-0.05
-0.03
-0.015
0.015
0.055
0.095
0.12
0.145
0.15
0.145
0.12
0.1
0.075
0.07
0.085
0.08
0.1
0.095
0.07
0.03
0.01
-0.03
-0.05
-0.09
-0.115
-0.135
-0.16
-0.165
-0.175
-0.185
-0.205
-0.205
-0.205
-0.205
-0.195
-0.2
-0.19
-0.2
-0.2
-0.195
-0.21
-0.205
-0.205
-0.205
-0.175
-0.155
-0.09
0.015
0.155
0.355
0.57
0.815
1.03
1.23
1.405
1.56
1.66
1.685
1.64
1.53
1.335
1.09
0.805
0.525
0.28
0.09
-0.015
-0.09
-0.12
-0.135
-0.16
-0.205
-0.245
-0.315
-0.36
-0.37
-0.385
-0.37
-0.37
-0.355
-0.36
-0.36
-0.36
-0.38
-0.395
-0.41
-0.41
-0.41
-0.4
-0.395
-0.4
-0.4
-0.4
-0.415
-0.405
-0.41
-0.41
-0.41
-0.415
-0.405
-0.405
-0.4
-0.4
-0.395
-0.405
-0.415
-0.425
-0.43
-0.44
-0.44
-0.455
-0.465
-0.475
-0.475
-0.49
-0.485
-0.485
-0.48
-0.495
-0.51
-0.525
-0.55
-0.555
-0.575
-0.6
-0.605
-0.58
-0.565
-0.535
-0.5
-0.47
-0.455
-0.435
-0.42
-0.4
-0.38
-0.355
-0.33
-0.31
-0.27
-0.24
-0.21
-0.175
-0.165
-0.16
-0.165
-0.17
-0.165
-0.19
-0.2
-0.21
-0.225
-0.22
-0.225
-0.23
-0.24
-0.25
-0.26
-0.27
-0.265
-0.265
-0.245
-0.25
-0.235
-0.24
-0.245
-0.245
-0.245
-0.23
-0.24
-0.235
-0.225
-0.22
-0.2
-0.18
-0.165
-0.14
-0.12
-0.075
-0.015
0.035
0.11
0.2
0.28
0.37
0.475
0.595
0.73
0.845
0.895
0.86
0.695
0.43
0.06
-0.34
-0.665
-0.94
-1.095
-1.115
-1.045
-0.98
-0.93
-0.895
-0.88
-0.855
-0.81
-0.745
-0.65
-0.55
-0.445
-0.36
-0.295
-0.245
-0.225
-0.22
-0.23
-0.245
-0.235
-0.24
-0.24
-0.215
-0.215
-0.21
-0.18
-0.17
-0.15
-0.14
-0.155
-0.155
-0.155
-0.155
-0.15
-0.155
-0.14
-0.14
-0.11
-0.11
-0.1
-0.1
-0.095
-0.11
-0.12
-0.13
-0.135
-0.135
-0.14
-0.125
-0.115
-0.11
-0.105
-0.105
-0.11
-0.12
-0.13
-0.14
-0.135
-0.135
-0.12
-0.11
-0.105
-0.105
-0.105
-0.1
-0.095
-0.095
-0.09
-0.095
-0.09
-0.085
-0.05
-0.025
0.0
0.005
0.0
0.0
-0.01
-0.015
-0.025
-0.03
-0.035
-0.025
-0.04
-0.04
-0.04
-0.055
-0.065
-0.07
-0.09
-0.095
-0.115
-0.135
-0.125
-0.125
-0.12
-0.125
-0.115
-0.12
-0.13
-0.155
-0.16
-0.155
-0.175
-0.17
-0.165
-0.15
-0.16
-0.155
-0.135
-0.13
-0.145
-0.14
-0.145
-0.15
-0.14
-0.135
-0.135
-0.15
-0.15
-0.16
-0.13
-0.12
-0.12
-0.115
-0.13
-0.12
-0.135
-0.14
-0.13
-0.125
-0.12
-0.12
-0.115
-0.11
-0.1
-0.085
-0.1
-0.1
-0.12
-0.13
-0.135
-0.13
-0.12
-0.115
-0.1
-0.115
-0.115
-0.1
-0.115
-0.12
-0.13
-0.13
-0.135
-0.135
-0.13
-0.125
-0.125
-0.11
-0.115
-0.115
-0.1
-0.12
-0.135
-0.14
-0.14
-0.135
-0.14
-0.12
-0.09
-0.09
-0.095
-0.075
-0.075
-0.08
-0.075
-0.075
-0.06
-0.045
-0.025
-0.01
0.005
0.02
0.045
0.07
0.095
0.11
0.125
0.145
0.165
0.19
0.2
0.19
0.165
0.165
0.14
0.14
0.155
0.165
0.17
0.175
0.15
0.12
0.085
0.05
0.02
0.0
-0.005
-0.015
-0.03
-0.06
-0.09
-0.11
-0.13
-0.125
-0.115
-0.11
-0.095
-0.1
-0.1
-0.1
-0.1
-0.12
-0.12
-0.12
-0.115
-0.11
-0.09
-0.05
0.015
0.12
0.25
0.43
0.625
0.835
1.025
1.19
1.365
1.52
1.66
1.755
1.79
1.77
1.675
1.535
1.33
1.08
0.795
0.53
0.305
0.16
0.08
0.035
0.02
-0.01
-0.04
-0.07
-0.13
-0.195
-0.25
-0.275
-0.285
-0.28
-0.28
-0.285
-0.25
-0.265
-0.275
-0.28
-0.295
-0.3
-0.305
-0.305
-0.31
-0.315
-0.315
-0.31
-0.31
-0.305
-0.295
-0.3
-0.31
-0.325
-0.335
-0.34
-0.34
-0.345
-0.33
-0.325
-0.325
-0.325
-0.335
-0.33
-0.335
-0.34
-0.35
-0.37
-0.37
-0.375
-0.385
-0.395
-0.39
-0.41
-0.415
-0.445
-0.455
-0.475
-0.495
-0.515
-0.525
-0.545
-0.545
-0.555
-0.555
-0.565
-0.58
-0.585
-0.605
-0.61
-0.625
-0.625
-0.63
-0.645
-0.635
-0.615
-0.595
-0.575
-0.57
-0.55
-0.53
-0.505
-0.485
-0.465
-0.43
-0.415
-0.385
-0.36
-0.325
-0.28
-0.25
-0.225
-0.21
-0.19
-0.175
-0.175
-0.15
-0.14
-0.14
-0.125
-0.11
-0.1
-0.1
-0.08
-0.08
-0.095
-0.105
-0.13
-0.115
-0.115
-0.11
-0.1
-0.1
-0.095
-0.095
-0.095
-0.085
-0.085
-0.085
-0.095
-0.095
-0.105
-0.095
-0.105
-0.09
-0.08
-0.085
-0.075
-0.08
-0.085
-0.085
-0.09
-0.08
-0.085
-0.08
-0.08
-0.06
-0.065
-0.06
-0.04
-0.035
0.005
0.01
0.025
0.05
0.05
0.055
0.065
0.085
0.13
0.16
0.21
0.235
0.25
0.245
0.23
0.195
0.19
0.185
0.185
0.2
0.21
0.215
0.195
0.155
0.125
0.08
0.035
0.025
-0.005
-0.005
-0.01
-0.025
-0.035
-0.06
-0.08
-0.1
-0.12
-0.115
-0.135
-0.125
-0.115
-0.11
-0.11
-0.1
-0.08
-0.08
-0.09
-0.085
-0.085
-0.085
-0.09
-0.06
-0.015
0.075
0.2
0.385
0.6
0.805
0.995
1.16
1.305
1.455
1.59
1.7
1.76
1.76
1.69
1.585
1.42
1.195
0.935
0.65
0.405
0.23
0.115
0.055
0.015
-0.015
-0.03
-0.06
-0.1
-0.145
-0.185
-0.205
-0.22
-0.225
-0.225
-0.23
-0.235
-0.235
-0.24
-0.24
-0.235
-0.245
-0.235
-0.235
-0.25
-0.26
-0.28
-0.29
-0.29
-0.285
-0.265
-0.26
-0.25
-0.255
-0.26
-0.27
-0.29
-0.3
-0.3
-0.315
-0.29
-0.285
-0.285
-0.28
-0.285
-0.3
-0.32
-0.32
-0.33
-0.35
-0.355
-0.345
-0.355
-0.36
-0.35
-0.36
-0.37
-0.38
-0.395
-0.41
-0.42
-0.435
-0.46
-0.465
-0.46
-0.45
-0.45
-0.455
-0.46
-0.475
-0.475
-0.475
-0.48
-0.48
-0.465
-0.46
-0.45
-0.43
-0.415
-0.39
-0.375
-0.35
-0.35
-0.33
-0.32
-0.305
-0.28
-0.26
-0.245
-0.21
-0.195
-0.16
-0.14
-0.13
-0.115
-0.11
-0.095
-0.105
-0.11
-0.095
-0.09
-0.085
-0.07
-0.06
-0.055
-0.055
-0.06
-0.075
-0.08
-0.085
-0.095
-0.08
-0.075
-0.055
-0.05
-0.055
-0.06
-0.06
-0.065
-0.08
-0.095
-0.09
-0.1
-0.1
-0.1
-0.085
-0.07
-0.065
-0.065
-0.065
-0.065
-0.1
-0.09
-0.085
-0.085
-0.09
-0.075
-0.065
-0.03
-0.005
0.03
0.045
0.065
0.07
0.065
0.07
0.085
0.1
0.125
0.17
0.205
0.23
0.265
0.26
0.245
0.205
0.17
0.165
0.19
0.2
0.205
0.2
0.185
0.165
0.14
0.105
0.07
0.045
0.02
0.0
-0.02
-0.04
-0.05
-0.065
-0.085
-0.08
-0.09
-0.105
-0.09
-0.095
-0.085
-0.085
-0.095
-0.07
-0.07
-0.07
-0.065
-0.07
-0.075
-0.08
-0.07
-0.06
-0.01
0.08
0.205
0.385
0.595
0.81
1.02
1.2
1.375
1.53
1.665
1.73
1.75
1.705
1.605
1.455
1.255
1.015
0.755
0.535
0.35
0.225
0.14
0.08
0.04
0.0
-0.035
-0.075
-0.13
-0.18
-0.22
-0.215
-0.22
-0.23
-0.235
-0.24
-0.245
-0.26
-0.27
-0.275
-0.28
-0.275
-0.27
-0.26
-0.27
-0.265
-0.255
-0.27
-0.28
-0.285
-0.3
-0.3
-0.295
-0.295
-0.29
-0.27
-0.27
-0.275
-0.28
-0.295
-0.31
-0.315
-0.335
-0.335
-0.325
-0.32
-0.325
-0.315
-0.305
-0.32
-0.34
-0.355
-0.37
-0.38
-0.41
-0.415
-0.435
-0.45
-0.465
-0.465
-0.47
-0.48
-0.49
-0.5
-0.505
-0.525
-0.53
-0.54
-0.555
-0.545
-0.545
-0.53
-0.52
-0.52
-0.51
-0.505
-0.505
-0.5
-0.485
-0.455
-0.435
-0.41
-0.385
-0.365
-0.325
-0.305
-0.275
-0.255
-0.24
-0.235
-0.225
-0.215
-0.185
-0.185
-0.155
-0.135
-0.12
-0.12
-0.1
-0.105
-0.1
-0.105
-0.105
-0.1
-0.105
-0.11
-0.1
-0.095
-0.095
-0.1
-0.085
-0.085
-0.09
-0.105
-0.1
-0.105
-0.11
-0.1
-0.105
-0.09
-0.085
-0.115
-0.1
-0.105
-0.1
-0.095
-0.105
-0.095
-0.1
-0.085
-0.08
-0.075
-0.08
-0.075
-0.09
-0.08
-0.085
-0.085
-0.07
-0.05
-0.025
0.0
0.015
0.035
0.055
0.055
0.07
0.075
0.085
0.1
0.115
0.15
0.185
0.22
0.25
0.265
0.27
0.24
0.225
0.205
0.2
0.195
0.2
0.21
0.195
0.195
0.175
0.145
0.12
0.075
0.03
0.0
-0.015
-0.035
-0.04
-0.05
-0.065
-0.075
-0.1
-0.115
-0.13
-0.14
-0.135
-0.125
-0.11
-0.095
-0.095
-0.1
-0.095
-0.095
-0.115
-0.1
-0.1
-0.085
-0.075
-0.07
-0.04
0.025
0.11
0.265
0.46
0.68
0.895
1.1
1.29
1.44
1.595
1.685
1.715
1.69
1.6
1.465
1.27
1.005
0.735
0.485
0.28
0.14
0.06
0.01
-0.035
-0.05
-0.08
-0.115
-0.155
-0.185
-0.21
-0.225
-0.235
-0.26
-0.255
-0.275
-0.265
-0.285
-0.305
-0.305
-0.3
-0.29
-0.27
-0.265
-0.26
-0.27
-0.27
-0.28
-0.3
-0.31
-0.32
-0.32
-0.325
-0.315
-0.31
-0.31
-0.305
-0.305
-0.305
-0.32
-0.32
-0.33
-0.335
-0.34
-0.34
-0.345
-0.34
-0.36
-0.35
-0.355
-0.365
-0.375
-0.395
-0.42
-0.44
-0.47
-0.485
-0.48
-0.49
-0.48
-0.485
-0.49
-0.505
-0.505
-0.52
-0.53
-0.54
-0.535
-0.535
-0.52
-0.515
-0.515
-0.495
-0.485
-0.455
-0.445
-0.43
-0.405
-0.385
-0.35
-0.315
-0.285
-0.255
-0.23
-0.215
-0.205
-0.185
-0.165
-0.17
-0.145
-0.125
-0.125
-0.12
-0.11
-0.105
-0.09
-0.1
-0.105
-0.105
-0.1
-0.105
-0.11
-0.1
-0.115
-0.12
-0.11
-0.105
-0.1
-0.1
-0.1
-0.095
-0.095
-0.105
-0.11
-0.115
-0.115
-0.105
-0.105
-0.1
-0.095
-0.1
-0.105
-0.115
-0.115
-0.12
-0.12
-0.11
-0.11
-0.105
-0.09
-0.085
-0.05
-0.035
-0.03
-0.01
-0.01
-0.01
-0.005
0.01
0.025
0.035
0.06
0.09
0.13
0.165
0.2
0.22
0.235
0.23
0.205
0.185
0.17
0.175
0.185
0.2
0.2
0.19
0.16
0.13
0.095
0.06
0.02
-0.005
-0.02
-0.025
-0.035
-0.05
-0.065
-0.08
-0.115
-0.135
-0.145
-0.155
-0.16
-0.14
-0.13
-0.12
-0.13
-0.115
-0.11
-0.105
-0.105
-0.1
-0.12
-0.135
-0.12
-0.105
-0.04
0.055
0.195
0.375
0.575
0.785
0.995
1.17
1.33
1.49
1.62
1.7
1.735
1.7
1.615
1.48
1.28
1.035
0.73
0.46
0.23
0.07
-0.015
-0.045
-0.065
-0.065
-0.085
-0.115
-0.16
-0.2
-0.26
-0.275
-0.29
-0.29
-0.29
-0.295
-0.29
-0.29
-0.295
-0.28
-0.285
-0.29
-0.31
-0.315
-0.32
-0.325
-0.32
-0.335
-0.335
-0.335
-0.32
-0.33
-0.33
-0.33
-0.335
-0.325
-0.31
-0.31
-0.32
-0.33
-0.33
-0.34
-0.335
-0.335
-0.335
-0.345
-0.355
-0.37
-0.38
-0.38
-0.395
-0.41
-0.435
-0.43
-0.43
-0.44
-0.45
-0.445
-0.465
-0.465
-0.485
-0.485
-0.515
-0.52
-0.53
-0.54
-0.56
-0.565
-0.565
-0.565
-0.58
-0.58
-0.565
-0.565
-0.555
-0.555
-0.54
-0.52
-0.495
-0.475
-0.425
-0.395
-0.365
-0.34
-0.33
-0.315
-0.285
-0.275
-0.255
-0.225
-0.205
-0.185
-0.17
-0.155
-0.135
-0.13
-0.13
-0.135
-0.135
-0.145
-0.14
-0.145
-0.13
-0.115
-0.1
-0.09
-0.1
-0.1
-0.1
-0.105
-0.095
-0.095
-0.07
-0.045
-0.01
0.025
0.08
0.14
0.19
0.255
0.315
0.37
0.435
0.515
0.625
0.725
0.775
0.77
0.66
0.44
0.075
-0.37
-0.835
-1.245
-1.565
-1.8
-1.96
-2.08
-2.155
-2.215
-2.235
-2.245
-2.24
-2.185
-2.135
-2.065
-1.985
-1.86
-1.725
-1.57
-1.445
-1.345
-1.27
-1.21
-1.17
-1.085
-0.99
-0.865
-0.725
-0.62
-0.515
-0.465
-0.445
-0.43
-0.4
-0.335
-0.235
-0.1
0.03
0.15
0.225
0.295
0.315
0.31
0.305
0.295
0.29
0.3
0.325
0.345
0.37
0.395
0.415
0.415
0.43
0.435
0.455
0.465
0.49
0.51
0.53
0.55
0.57
0.57
0.575
0.59
0.615
0.625
0.635
0.65
0.685
0.705
0.73
0.755
0.78
0.795
0.815
0.83
0.85
0.875
0.895
0.925
0.935
0.945
0.94
0.945
0.94
0.935
0.915
0.88
0.86
0.83
0.82
0.795
0.765
0.74
0.71
0.675
0.625
0.59
0.535
0.495
0.465
0.42
0.385
0.34
0.305
0.265
0.235
0.2
0.165
0.135
0.095
0.065
0.04
0.015
0.005
-0.01
-0.03
-0.04
-0.05
-0.065
-0.09
-0.1
-0.115
-0.115
-0.12
-0.12
-0.11
-0.12
-0.12
-0.125
-0.125
-0.13
-0.115
-0.125
-0.125
-0.135
-0.135
-0.14
-0.125
-0.125
-0.13
-0.12
-0.13
-0.14
-0.145
-0.14
-0.145
-0.15
-0.155
-0.175
-0.175
-0.18
-0.17
-0.155
-0.16
-0.165
-0.155
-0.16
-0.17
-0.18
-0.2
-0.19
-0.175
-0.17
-0.16
-0.16
-0.16
-0.17
-0.18
-0.19
-0.195
-0.205
-0.2
-0.185
-0.18
-0.18
-0.175
-0.17
-0.18
-0.185
-0.19
-0.21
-0.215
-0.23
-0.24
-0.23
-0.22
-0.21
-0.195
-0.18
-0.17
-0.17
-0.195
-0.21
-0.23
-0.245
-0.25
-0.25
-0.24
-0.225
-0.21
-0.195
-0.2
-0.2
-0.205
-0.2
-0.215
-0.21
-0.205
-0.18
-0.16
-0.15
-0.125
-0.105
-0.09
-0.08
-0.075
-0.055
-0.06
-0.03
0.015
0.035
0.075
0.095
