Lead II
-0.445
-0.425
-0.385
-0.37
-0.34
-0.315
-0.265
-0.24
-0.225
-0.22
-0.23
-0.225
-0.21
-0.185
-0.17
-0.175
-0.165
-0.145
-0.115
-0.1
-0.08
-0.075
-0.065
-0.06
-0.03
-0.005
0.01
0.01
0.005
0.01
0.015
0.045
0.075
0.075
0.085
0.085
0.12
0.13
0.155
0.14
0.135
0.14
0.14
0.145
0.15
0.145
0.15
0.145
0.16
0.19
0.19
0.19
0.17
0.175
0.205
0.235
0.255
0.255
0.26
0.28
0.295
0.335
0.36
0.395
0.41
0.44
0.505
0.575
0.645
0.73
0.815
0.87
0.945
1.03
1.075
1.1
1.125
1.13
1.15
1.155
1.13
1.105
1.06
1.025
1.02
1.015
0.98
0.93
0.875
0.835
0.795
0.735
0.68
0.615
0.55
0.5
0.46
0.41
0.36
0.315
0.265
0.205
0.16
0.13
0.09
0.03
-0.015
-0.085
-0.155
-0.215
-0.27
-0.325
-0.38
-0.4
-0.42
-0.43
-0.435
-0.495
-0.54
-0.585
-0.59
-0.585
-0.605
-0.66
-0.675
-0.7
-0.715
-0.745
-0.785
-0.805
-0.785
-0.755
-0.715
-0.7
-0.675
-0.68
-0.67
-0.65
-0.63
-0.6
-0.585
-0.575
-0.565
-0.56
-0.54
-0.515
-0.505
-0.515
-0.52
-0.525
-0.505
-0.48
-0.475
-0.48
-0.475
-0.5
-0.49
-0.47
-0.46
-0.46
-0.45
-0.45
-0.45
-0.425
-0.41
-0.395
-0.405
-0.4
-0.395
-0.37
-0.365
-0.385
-0.385
-0.375
-0.37
-0.355
-0.35
-0.35
-0.345
-0.345
-0.335
-0.31
-0.305
-0.315
-0.315
-0.32
-0.295
-0.28
-0.265
-0.29
-0.285
-0.275
-0.255
-0.245
-0.245
-0.255
-0.255
-0.245
-0.245
-0.225
-0.215
-0.21
-0.22
-0.225
-0.185
-0.18
-0.17
-0.165
-0.175
-0.185
-0.175
-0.15
-0.15
-0.125
-0.14
-0.125
-0.11
-0.08
-0.08
-0.085
-0.07
-0.035
-0.005
0.055
0.08
0.09
0.14
0.19
0.25
0.305
0.35
0.39
0.445
0.465
0.54
0.63
0.69
0.775
0.8
0.845
0.88
0.9
0.91
0.935
1.01
1.07
1.135
1.17
1.145
1.07
1.0
0.91
0.805
0.67
0.525
0.38
0.215
0.04
-0.095
-0.195
-0.295
-0.355
-0.43
-0.485
-0.48
-0.46
-0.455
-0.43
-0.42
-0.43
-0.425
-0.4
-0.4
-0.415
-0.43
-0.43
-0.415
-0.4
-0.4
-0.42
-0.41
-0.42
-0.415
-0.41
-0.405
-0.405
-0.42
-0.435
-0.41
-0.4
-0.405
-0.415
-0.405
-0.415
-0.395
-0.385
-0.375
-0.39
-0.4
-0.385
-0.37
-0.36
-0.355
-0.335
-0.345
-0.345
-0.325
-0.315
-0.305
-0.31
-0.3
-0.285
-0.275
-0.285
-0.27
-0.265
-0.27
-0.27
-0.26
-0.265
-0.23
-0.22
-0.22
-0.215
-0.205
-0.205
-0.19
-0.18
-0.185
-0.185
-0.18
-0.17
-0.15
-0.155
-0.17
-0.18
-0.165
-0.145
-0.145
-0.155
-0.165
-0.16
-0.145
-0.13
-0.12
-0.135
-0.15
-0.15
-0.13
-0.115
-0.135
-0.165
-0.165
-0.17
-0.165
-0.165
-0.15
-0.155
-0.185
-0.19
-0.18
-0.155
-0.16
-0.17
-0.175
-0.17
-0.17
-0.16
-0.185
-0.22
-0.225
-0.2
-0.175
-0.16
-0.16
-0.175
-0.175
-0.18
-0.165
-0.15
-0.15
-0.18
-0.17
-0.16
-0.145
-0.13
-0.135
-0.16
-0.16
-0.17
-0.17
-0.165
-0.14
-0.175
-0.195
-0.19
-0.19
-0.17
-0.15
-0.155
-0.165
-0.175
-0.165
-0.145
-0.15
-0.17
-0.17
-0.18
-0.16
-0.15
-0.16
-0.165
-0.17
-0.185
-0.17
-0.155
-0.175
-0.175
-0.175
-0.17
-0.18
-0.165
-0.17
-0.175
-0.175
-0.17
-0.17
-0.165
-0.155
-0.16
-0.18
-0.18
-0.17
-0.165
-0.165
-0.175
-0.19
-0.175
-0.165
-0.15
-0.15
-0.15
-0.16
-0.17
-0.14
-0.125
-0.13
-0.145
-0.16
-0.165
-0.16
-0.155
-0.155
-0.165
-0.175
-0.185
-0.17
-0.15
-0.15
-0.14
-0.145
-0.15
-0.135
-0.125
-0.13
-0.15
-0.15
-0.14
-0.135
-0.13
-0.135
-0.14
-0.15
-0.145
-0.145
-0.13
-0.14
-0.15
-0.155
-0.145
-0.14
-0.125
-0.135
-0.135
-0.16
-0.16
-0.14
-0.13
-0.13
-0.135
-0.15
-0.155
-0.145
-0.135
-0.135
-0.15
-0.15
-0.155
-0.14
-0.12
-0.115
-0.125
-0.135
-0.15
-0.115
-0.105
-0.115
-0.125
-0.135
-0.13
-0.135
-0.12
-0.115
-0.13
-0.155
-0.145
-0.135
-0.13
-0.11
-0.12
-0.125
-0.135
-0.125
-0.1
-0.1
-0.125
-0.135
-0.135
-0.115
-0.105
-0.11
-0.115
-0.135
-0.135
-0.13
-0.11
-0.115
-0.13
-0.13
-0.14
-0.12
-0.115
-0.11
-0.12
-0.12
-0.125
-0.105
-0.1
-0.11
-0.115
-0.13
-0.13
-0.115
-0.105
-0.11
-0.12
-0.13
-0.135
-0.12
-0.105
-0.11
-0.11
-0.115
-0.105
-0.1
-0.09
-0.095
-0.11
-0.115
-0.115
-0.105
-0.09
-0.095
-0.105
-0.115
-0.12
-0.115
-0.095
-0.095
-0.1
-0.105
-0.105
-0.085
-0.075
-0.075
-0.085
-0.11
-0.105
-0.11
-0.1
-0.085
-0.095
-0.11
-0.12
-0.11
-0.09
-0.09
-0.105
-0.115
-0.11
-0.105
-0.09
-0.085
-0.09
-0.1
-0.105
-0.09
-0.075
-0.085
-0.1
-0.1
-0.095
-0.095
-0.085
-0.09
-0.085
-0.105
-0.12
-0.1
-0.09
-0.075
-0.1
-0.105
-0.105
-0.09
-0.08
-0.08
-0.09
-0.1
-0.09
-0.09
-0.065
-0.075
-0.09
-0.105
-0.11
-0.085
-0.085
-0.085
-0.1
-0.105
-0.095
-0.09
-0.07
-0.08
-0.08
-0.1
-0.105
-0.09
-0.08
-0.08
-0.09
-0.095
-0.095
-0.1
-0.085
-0.08
-0.1
-0.105
-0.105
-0.085
-0.09
-0.075
-0.08
-0.09
-0.1
-0.08
-0.065
-0.065
-0.07
-0.09
-0.095
-0.075
-0.065
-0.08
-0.09
-0.095
-0.1
-0.085
-0.075
-0.08
-0.09
-0.085
-0.095
-0.09
-0.075
-0.07
-0.08
-0.085
-0.075
-0.075
-0.07
-0.065
-0.075
-0.085
-0.095
-0.085
-0.08
-0.085
-0.1
-0.1
-0.1
-0.09
-0.085
-0.075
-0.08
-0.095
-0.095
-0.09
-0.065
-0.07
-0.08
-0.09
-0.1
-0.08
-0.07
-0.09
-0.1
-0.1
-0.095
-0.08
-0.08
-0.075
-0.085
-0.09
-0.08
-0.075
-0.06
-0.065
-0.08
-0.105
-0.085
-0.075
-0.065
-0.065
-0.085
-0.09
-0.095
-0.085
-0.075
-0.065
-0.09
-0.095
-0.095
-0.085
-0.08
-0.08
-0.085
-0.095
-0.09
-0.09
-0.07
-0.07
-0.08
-0.09
-0.085
-0.08
-0.085
-0.085
-0.095
-0.115
-0.11
-0.115
-0.075
-0.08
-0.095
-0.1
-0.095
-0.09
-0.085
-0.07
-0.085
-0.095
-0.09
-0.075
-0.065
-0.05
-0.075
-0.07
-0.065
-0.06
-0.05
-0.035
-0.05
-0.06
-0.065
-0.06
-0.045
-0.055
-0.07
-0.08
-0.08
-0.065
-0.065
-0.05
-0.075
-0.075
-0.075
-0.065
-0.06
-0.055
-0.07
-0.08
-0.075
-0.07
-0.06
-0.07
-0.1
-0.12
-0.135
-0.125
-0.11
-0.11
-0.11
-0.075
0.015
0.12
0.235
0.305
0.35
0.365
0.375
0.43
0.49
0.57
0.645
0.68
0.645
0.56
0.44
0.305
0.155
0.035
-0.08
-0.17
-0.225
-0.265
-0.31
-0.335
-0.31
-0.275
-0.26
-0.26
-0.29
-0.275
-0.25
-0.21
-0.16
-0.14
-0.085
-0.065
-0.07
-0.05
-0.06
-0.075
-0.1
-0.11
-0.115
-0.095
-0.085
-0.1
-0.12
-0.13
-0.135
-0.12
-0.115
-0.095
-0.11
-0.115
-0.105
-0.09
-0.08
-0.08
-0.09
-0.105
-0.1
-0.08
-0.06
-0.065
-0.075
-0.07
-0.07
-0.07
-0.07
-0.06
-0.065
-0.07
-0.055
-0.05
-0.04
-0.02
-0.025
-0.025
-0.03
-0.025
-0.005
-0.015
-0.015
-0.035
-0.025
-0.005
0.015
0.015
0.025
0.015
0.025
0.035
0.04
0.025
0.05
0.04
0.055
0.075
0.085
0.09
0.09
0.08
0.085
0.08
0.11
0.11
0.11
0.105
0.1
0.115
0.14
0.155
0.145
0.135
0.13
0.17
0.18
0.185
0.185
0.19
0.195
0.195
0.21
0.2
0.2
0.205
0.205
0.215
0.225
0.24
0.23
0.225
0.235
0.235
0.24
0.265
0.26
0.255
0.265
0.26
0.255
0.265
0.26
0.255
0.26
0.275
0.275
0.25
0.245
0.245
0.255
0.28
0.295
0.295
0.285
0.26
0.265
0.27
0.285
0.28
0.26
0.26
0.275
0.265
0.265
0.255
0.235
0.21
0.215
0.22
0.225
0.2
0.18
0.155
0.15
0.15
0.15
0.095
0.075
0.045
0.025
0.03
0.015
-0.015
-0.025
-0.045
-0.045
-0.05
-0.065
-0.055
-0.045
-0.055
-0.07
-0.085
-0.1
-0.095
-0.105
-0.125
-0.145
-0.14
-0.135
-0.145
-0.175
-0.18
-0.175
-0.165
-0.145
-0.16
-0.17
-0.185
-0.185
-0.185
-0.175
-0.175
-0.205
-0.205
-0.205
-0.195
-0.21
-0.215
-0.25
-0.25
-0.245
-0.22
-0.225
-0.23
-0.26
-0.27
-0.26
-0.255
-0.245
-0.255
-0.25
-0.27
-0.27
-0.255
-0.26
-0.275
-0.305
-0.32
-0.32
-0.31
-0.305
-0.335
-0.395
-0.485
-0.545
-0.585
-0.635
-0.705
-0.77
-0.83
-0.875
-0.895
-0.905
-0.945
-0.95
-0.935
-0.87
-0.8
-0.735
-0.685
-0.66
-0.63
-0.58
-0.525
-0.465
-0.405
-0.365
-0.315
-0.265
-0.195
-0.135
-0.065
-0.02
0.0
0.03
0.065
0.115
0.155
0.17
0.165
0.205
0.225
0.235
0.24
0.235
0.23
0.225
0.22
0.23
0.225
0.215
0.195
0.2
0.215
0.225
0.225
0.21
0.21
0.195
0.215
0.235
0.235
0.21
0.205
0.205
0.24
0.235
0.235
0.225
0.23
0.235
0.245
0.245
0.25
0.235
0.235
0.235
0.27
0.275
0.28
0.265
0.265
0.27
0.285
0.295
0.29
0.28
0.275
0.295
0.305
0.315
0.31
0.295
0.3
0.305
0.315
0.33
0.33
0.305
0.3
0.3
0.305
0.3
0.315
0.31
0.31
0.31
0.315
0.315
0.325
0.3
0.305
0.31
0.315
0.31
0.32
0.305
0.29
0.285
0.285
0.29
0.28
0.27
0.26
0.265
0.27
0.275
0.245
0.225
0.215
0.215
0.21
0.225
0.21
0.185
0.17
0.17
0.165
0.145
0.13
0.11
0.095
0.065
0.075
0.07
0.07
0.04
0.02
0.005
0.015
0.005
0.0
-0.02
-0.045
-0.04
-0.045
-0.055
-0.065
-0.105
-0.12
-0.12
-0.135
-0.14
-0.15
-0.17
-0.185
-0.18
-0.19
-0.185
-0.19
-0.22
-0.225
-0.225
-0.225
-0.215
-0.235
-0.245
-0.25
-0.265
-0.25
-0.25
-0.26
-0.28
-0.28
-0.3
-0.28
-0.28
-0.275
-0.29
-0.285
-0.305
-0.3
-0.285
-0.28
-0.3
-0.305
-0.3
-0.285
-0.295
-0.305
-0.315
-0.335
-0.335
-0.33
-0.315
-0.31
-0.32
-0.335
-0.33
-0.32
-0.31
-0.315
-0.32
-0.345
-0.33
-0.32
-0.315
-0.33
-0.335
-0.345
-0.345
-0.34
-0.34
-0.34
-0.345
-0.355
-0.345
-0.33
-0.32
-0.325
-0.335
-0.34
-0.35
-0.335
-0.33
-0.34
-0.335
-0.34
-0.35
-0.34
-0.33
-0.34
-0.36
-0.37
-0.35
-0.345
-0.35
-0.345
-0.35
-0.355
-0.355
-0.34
-0.325
-0.325
-0.35
-0.36
-0.345
-0.34
-0.345
-0.335
-0.36
-0.37
-0.365
-0.365
-0.345
-0.36
-0.38
-0.38
-0.375
-0.355
-0.345
-0.345
-0.36
-0.38
-0.355
-0.345
-0.335
-0.345
-0.355
-0.37
-0.36
-0.355
-0.355
-0.36
-0.38
-0.365
-0.38
-0.355
-0.35
-0.35
-0.36
-0.36
-0.36
-0.36
-0.345
-0.345
-0.37
-0.365
-0.365
-0.35
-0.36
-0.365
-0.365
-0.385
-0.385
-0.375
-0.37
-0.375
-0.39
-0.385
-0.37
-0.355
-0.355
-0.36
-0.375
-0.37
-0.385
-0.385
-0.36
-0.365
-0.37
-0.39
-0.375
-0.375
-0.365
-0.365
-0.39
-0.385
-0.385
-0.365
-0.355
-0.355
-0.375
-0.38
-0.385
-0.355
-0.345
-0.345
-0.355
-0.385
-0.37
-0.375
-0.365
-0.37
-0.375
-0.39
-0.395
-0.365
-0.355
-0.36
-0.385
-0.375
-0.37
-0.365
-0.36
-0.355
-0.365
-0.38
-0.39
-0.37
-0.355
-0.37
-0.38
-0.4
-0.39
-0.37
-0.365
-0.375
-0.39
-0.39
-0.39
-0.37
-0.35
-0.365
-0.38
-0.4
-0.38
-0.375
-0.37
-0.37
-0.38
-0.405
-0.39
-0.385
-0.385
-0.385
-0.4
-0.405
-0.41
-0.39
-0.38
-0.39
-0.4
-0.415
-0.39
-0.38
-0.38
-0.385
-0.4
-0.4
-0.395
-0.39
-0.385
-0.395
-0.41
-0.415
-0.415
-0.41
-0.4
-0.405
-0.42
-0.415
-0.41
-0.4
-0.39
-0.385
-0.415
-0.43
-0.415
-0.405
-0.405
-0.42
-0.425
-0.43
-0.42
-0.405
-0.395
-0.405
-0.42
-0.425
-0.41
-0.395
-0.385
-0.385
-0.4
-0.395
-0.4
-0.385
-0.37
-0.375
-0.38
-0.395
-0.39
-0.37
-0.37
-0.38
-0.39
-0.415
-0.41
-0.42
-0.415
-0.42
-0.42
-0.435
-0.43
-0.41
-0.41
-0.4
-0.41
-0.415
-0.41
-0.405
-0.395
-0.41
-0.42
-0.425
-0.42
-0.41
-0.4
-0.41
-0.425
-0.43
-0.435
-0.425
-0.41
-0.42
-0.43
-0.425
-0.41
-0.4
-0.395
-0.4
-0.41
-0.415
-0.405
-0.39
-0.385
-0.39
-0.41
-0.415
-0.405
-0.405
-0.4
-0.425
-0.42
-0.43
-0.42
-0.425
-0.395
-0.375
-0.395
-0.41
-0.4
-0.405
-0.435
-0.46
-0.48
-0.48
-0.445
-0.41
-0.375
-0.305
-0.24
-0.16
-0.06
0.015
0.06
0.09
0.12
0.185
0.285
0.37
0.42
0.41
0.375
0.31
0.24
0.18
0.105
-0.005
-0.12
-0.26
-0.355
-0.39
-0.405
-0.445
-0.475
-0.505
-0.505
-0.515
-0.495
-0.475
-0.455
-0.45
-0.4
-0.365
-0.33
-0.305
-0.3
-0.315
-0.335
-0.35
-0.375
-0.395
-0.425
-0.445
-0.455
-0.45
-0.45
-0.445
-0.455
-0.46
-0.45
-0.435
-0.43
-0.43
-0.445
-0.445
-0.44
-0.43
-0.415
-0.425
-0.42
-0.435
-0.43
-0.415
-0.405
-0.42
-0.435
-0.43
-0.43
-0.41
-0.39
-0.395
-0.4
-0.425
-0.4
-0.385
-0.375
-0.365
-0.37
-0.37
-0.36
-0.34
-0.34
-0.33
-0.33
-0.335
-0.32
-0.305
-0.295
-0.305
-0.305
-0.305
-0.285
-0.275
-0.265
-0.26
-0.245
-0.24
-0.225
-0.205
-0.195
-0.215
-0.205
-0.2
-0.18
-0.165
-0.155
-0.16
-0.16
-0.175
-0.15
-0.12
-0.1
-0.105
-0.1
-0.1
-0.075
-0.06
-0.05
-0.045
-0.06
-0.055
-0.035
-0.01
-0.01
0.0
-0.01
-0.015
-0.02
-0.01
0.005
0.025
0.01
0.005
0.02
0.035
0.035
0.055
0.06
0.055
0.035
0.045
0.055
0.055
0.055
0.06
0.07
0.085
0.075
0.055
0.05
0.055
0.07
0.07
0.07
0.06
0.08
0.075
0.085
0.105
0.11
0.115
0.1
0.105
0.125
0.125
0.145
0.15
0.135
0.13
0.14
0.16
0.165
0.145
0.135
0.13
0.15
0.18
0.185
0.195
0.185
0.175
0.2
0.225
0.23
0.23
0.215
0.2
0.21
0.22
0.23
0.225
0.22
0.205
0.215
0.24
0.24
0.24
0.255
0.245
0.27
0.285
0.295
0.285
0.27
0.275
0.28
0.3
0.305
0.295
0.29
0.28
0.3
0.3
0.315
0.295
0.27
0.26
0.275
0.29
0.285
0.29
0.275
0.26
0.235
0.215
0.2
0.18
0.145
0.125
0.115
0.08
0.05
0.005
-0.025
-0.045
-0.065
-0.125
-0.19
-0.27
-0.385
-0.465
-0.545
-0.61
-0.71
-0.84
-0.975
-1.08
-1.155
-1.245
-1.315
-1.395
-1.465
-1.5
-1.54
-1.585
-1.63
-1.685
-1.725
-1.755
-1.765
-1.78
-1.795
-1.805
-1.805
-1.8
-1.77
-1.725
-1.675
-1.64
-1.605
-1.575
-1.47
-1.395
-1.335
-1.29
-1.24
-1.16
-1.085
-1.005
-0.93
-0.875
-0.805
-0.745
-0.68
-0.625
-0.57
-0.51
-0.485
-0.47
-0.43
-0.395
-0.36
-0.335
-0.3
-0.28
-0.26
-0.23
-0.22
-0.21
-0.2
-0.18
-0.15
-0.125
-0.09
-0.075
-0.06
-0.05
-0.025
-0.005
0.025
0.025
0.02
0.03
0.045
0.06
0.08
0.08
0.06
0.05
0.08
0.11
0.125
0.135
0.135
0.145
0.165
0.195
0.215
0.21
0.195
0.205
0.225
0.24
0.255
0.235
0.23
0.25
0.26
0.265
0.27
0.265
0.255
0.255
0.255
0.285
0.275
0.27
0.25
0.245
0.25
0.255
0.25
0.225
0.195
0.185
0.2
0.195
0.195
0.17
0.14
0.12
0.075
0.045
0.02
-0.035
-0.09
-0.145
-0.175
-0.215
-0.245
-0.31
-0.37
-0.415
-0.46
-0.525
-0.595
-0.675
-0.74
-0.79
-0.83
-0.885
-0.98
-1.09
-1.2
-1.28
-1.305
-1.32
-1.34
-1.365
-1.375
-1.41
-1.405
-1.415
-1.42
-1.44
-1.47
-1.485
-1.49
-1.475
-1.445
-1.42
-1.38
-1.335
-1.285
-1.225
-1.155
-1.1
-1.04
-0.955
-0.875
-0.785
-0.74
-0.69
-0.645
-0.59
-0.54
-0.48
-0.43
-0.405
-0.36
-0.33
-0.295
-0.25
-0.22
-0.205
-0.2
-0.18
-0.125
-0.075
-0.045
-0.03
-0.005
0.015
0.03
0.065
0.085
0.1
0.1
0.115
0.15
0.165
0.19
0.2
0.2
0.2
0.225
0.26
0.27
0.28
0.265
0.275
0.305
0.31
0.32
0.305
0.295
0.28
0.29
0.285
0.3
0.28
0.31
0.305
0.335
0.33
0.32
0.305
0.29
0.26
0.265
0.255
0.225
0.175
0.135
0.09
0.055
0.03
-0.005
-0.065
-0.115
-0.16
-0.2
-0.255
-0.33
-0.41
-0.495
-0.56
-0.61
-0.635
-0.67
-0.725
-0.8
-0.845
-0.89
-0.93
-0.945
-0.975
-1.015
-1.065
-1.115
-1.135
-1.17
-1.21
-1.24
-1.275
-1.255
-1.275
-1.285
-1.3
-1.32
-1.34
-1.355
-1.355
-1.345
-1.345
-1.34
-1.31
-1.265
-1.195
-1.145
-1.1
-1.03
-0.955
-0.87
-0.77
-0.685
-0.615
-0.535
-0.455
-0.37
-0.305
-0.245
-0.21
-0.155
-0.115
-0.05
0.015
0.05
0.08
0.09
0.12
0.165
0.2
0.22
0.245
0.25
0.27
0.305
0.34
0.36
0.365
0.375
0.38
0.415
0.435
0.45
0.45
0.44
0.47
0.5
0.525
0.545
0.55
0.545
0.55
0.57
0.58
0.59
0.595
0.575
0.585
0.595
0.62
0.61
0.58
0.555
0.535
0.52
0.495
0.465
0.41
0.365
0.335
0.325
0.32
0.29
0.255
0.215
0.18
0.155
0.11
0.04
-0.035
-0.105
-0.205
-0.285
-0.345
-0.4
-0.48
-0.58
-0.65
-0.695
-0.735
-0.765
-0.825
-0.895
-0.94
-0.955
-0.95
-0.955
-0.97
-1.01
-1.025
-1.045
-1.065
-1.1
-1.145
-1.2
-1.23
-1.24
-1.235
-1.235
-1.27
-1.285
-1.295
-1.26
-1.235
-1.225
-1.21
-1.2
-1.17
-1.15
-1.12
-1.095
-1.08
-1.06
-1.015
-0.97
-0.915
-0.885
-0.86
-0.835
-0.81
-0.74
-0.685
-0.645
-0.61
-0.555
-0.5
-0.42
-0.34
-0.265
-0.195
-0.145
-0.09
-0.025
0.025
0.07
0.07
0.115
0.16
0.21
0.26
0.3
0.325
0.325
0.35
0.375
0.405
0.42
0.41
0.43
0.425
0.455
0.475
0.49
0.49
0.495
0.495
0.515
0.535
0.54
0.515
0.51
0.515
0.545
0.55
0.54
0.52
0.49
0.465
0.48
0.47
0.47
0.44
0.415
0.38
0.365
0.34
0.31
0.28
0.23
0.195
0.16
0.11
0.05
0.01
-0.055
-0.125
-0.18
-0.245
-0.33
-0.42
-0.52
-0.575
-0.635
-0.7
-0.735
-0.78
-0.825
-0.885
-0.935
-0.985
-1.015
-1.035
-1.03
-1.035
-1.015
-1.0
-0.98
-1.01
-1.03
-1.065
-1.09
-1.11
-1.15
-1.2
-1.21
-1.21
-1.165
-1.125
-1.085
-1.06
-1.045
-1.02
-0.975
-0.93
-0.905
-0.885
-0.885
-0.86
-0.815
-0.77
-0.75
-0.755
-0.74
-0.72
-0.68
-0.635
-0.59
-0.575
-0.54
-0.495
-0.455
-0.39
-0.335
-0.3
-0.275
-0.245
-0.185
-0.14
-0.085
-0.055
-0.02
0.02
0.07
0.115
0.155
0.19
0.215
0.265
0.33
0.4
0.46
0.51
0.54
0.555
0.58
0.61
0.615
0.61
0.61
0.605
0.63
0.665
0.655
0.635
0.6
0.595
0.585
0.595
0.575
0.555
0.54
0.52
0.49
0.455
0.43
0.375
0.3
0.25
0.185
0.155
0.095
0.025
-0.04
-0.12
-0.185
-0.23
-0.305
-0.385
-0.48
-0.565
-0.61
-0.625
-0.655
-0.69
-0.77
-0.83
-0.86
-0.87
-0.92
-0.98
-1.06
-1.075
-1.08
-1.06
-1.065
-1.06
-1.045
-1.02
-1.005
-1.0
-1.0
-1.005
-1.015
-1.02
-1.015
-1.015
-1.01
-1.01
-0.985
-0.93
-0.855
-0.825
-0.79
-0.76
-0.735
-0.685
-0.635
-0.605
-0.605
-0.595
-0.57
-0.56
-0.53
-0.495
-0.475
-0.46
-0.47
-0.44
-0.425
-0.4
-0.385
-0.375
-0.345
-0.335
-0.305
-0.285
-0.265
-0.245
-0.22
-0.19
-0.165
-0.135
-0.11
-0.105
-0.09
-0.06
-0.005
0.025
0.075
0.095
0.115
0.15
0.195
0.23
0.265
0.285
0.29
0.325
0.34
0.395
0.445
0.485
0.535
0.58
0.635
0.68
0.72
0.76
0.785
0.8
0.825
0.865
0.88
0.875
0.86
0.855
0.875
0.92
0.905
0.885
0.855
0.815
0.79
0.795
0.76
0.695
0.645
0.58
0.525
0.465
0.385
0.305
0.24
0.185
0.145
0.085
0.04
-0.035
-0.13
-0.21
-0.295
-0.38
-0.46
-0.56
-0.66
-0.735
-0.79
-0.785
-0.815
-0.85
-0.89
-0.92
-0.945
-0.935
-0.91
-0.87
-0.82
-0.775
-0.725
-0.72
-0.75
-0.795
-0.84
-0.845
-0.82
-0.785
-0.775
-0.775
-0.75
-0.75
-0.725
-0.68
-0.655
-0.64
-0.625
-0.615
-0.605
-0.58
-0.57
-0.545
-0.545
-0.525
-0.505
-0.47
-0.46
-0.445
-0.455
-0.435
-0.405
-0.37
-0.36
-0.35
-0.35
-0.35
-0.3
-0.285
-0.27
-0.265
-0.25
-0.235
-0.2
-0.16
-0.13
-0.1
-0.08
-0.055
-0.005
0.04
0.085
0.12
0.135
0.155
0.19
0.22
0.26
0.285
0.32
0.355
0.39
0.425
0.45
0.46
0.475
0.49
0.51
0.545
0.545
0.565
0.575
0.605
0.645
0.69
0.705
0.725
0.73
0.73
0.735
0.755
0.74
0.715
0.69
0.64
0.605
0.56
0.51
0.44
0.35
0.29
0.25
0.2
0.115
-0.005
-0.09
-0.135
-0.18
-0.215
-0.285
-0.36
-0.435
-0.475
-0.525
-0.58
-0.65
-0.73
-0.78
-0.8
-0.81
-0.79
-0.78
-0.77
-0.77
-0.755
-0.735
-0.72
-0.74
-0.73
-0.7
-0.69
-0.65
-0.64
-0.63
-0.67
-0.695
-0.71
-0.72
-0.705
-0.7
-0.705
-0.705
-0.705
-0.685
-0.645
-0.625
-0.63
-0.63
-0.62
-0.58
-0.55
-0.535
-0.53
-0.52
-0.51
-0.48
-0.46
-0.44
-0.43
-0.42
-0.41
-0.37
-0.34
-0.305
-0.295
-0.27
-0.245
-0.23
-0.19
-0.17
-0.15
-0.155
-0.115
-0.08
-0.035
-0.015
0.01
0.025
0.065
0.1
0.125
0.145
0.165
0.165
0.195
0.235
0.275
0.275
0.28
0.3
0.305
0.34
0.365
0.385
0.415
0.43
0.46
0.475
0.51
0.5
0.495
0.485
0.465
0.475
0.445
0.39
0.365
0.32
0.265
0.21
0.13
0.045
-0.055
-0.13
-0.19
-0.22
-0.235
-0.275
-0.33
-0.375
-0.4
-0.42
-0.44
-0.48
-0.525
-0.56
-0.585
-0.58
-0.58
-0.575
-0.61
-0.64
-0.655
-0.63
-0.61
-0.62
-0.63
-0.635
-0.605
-0.555
-0.51
-0.47
-0.43
-0.4
-0.41
-0.41
-0.43
-0.465
-0.52
-0.55
-0.57
-0.565
-0.565
-0.56
-0.565
-0.57
-0.555
-0.525
-0.5
-0.48
-0.475
-0.455
-0.425
-0.4
-0.37
-0.36
-0.36
-0.345
-0.33
-0.305
-0.28
-0.255
-0.24
-0.23
-0.21
-0.18
-0.16
-0.135
-0.13
-0.115
-0.1
-0.07
-0.045
-0.035
-0.01
-0.02
0.02
0.055
0.08
0.1
0.11
0.12
0.13
0.155
0.17
0.185
0.205
0.215
0.205
0.24
0.27
0.275
0.305
0.295
0.31
0.325
0.325
0.33
0.28
0.25
0.225
0.21
0.175
0.13
0.065
0.015
-0.005
-0.045
-0.095
-0.145
-0.2
-0.25
-0.28
-0.31
-0.33
-0.34
-0.36
-0.385
-0.395
-0.415
-0.405
-0.42
-0.445
-0.48
-0.53
-0.575
-0.605
-0.625
-0.605
-0.615
-0.63
-0.63
-0.615
-0.6
-0.6
-0.605
-0.62
-0.58
-0.54
-0.515
-0.49
-0.485
-0.495
-0.475
-0.48
-0.475
-0.505
-0.53
-0.55
-0.555
-0.55
-0.57
-0.585
-0.595
-0.595
-0.575
-0.555
-0.535
-0.525
-0.51
-0.49
-0.465
-0.44
-0.44
-0.435
-0.435
-0.415
-0.39
-0.36
-0.35
-0.335
-0.315
-0.28
-0.24
-0.2
-0.175
-0.165
-0.14
-0.12
-0.105
-0.07
-0.075
-0.1
-0.105
-0.125
-0.105
-0.09
-0.1
-0.11
-0.12
-0.12
-0.12
-0.095
-0.1
-0.095
-0.125
-0.12
-0.09
-0.065
-0.04
-0.02
0.005
0.035
0.055
0.075
0.07
0.085
0.09
0.09
0.115
0.13
0.115
0.085
0.035
0.005
-0.015
-0.02
-0.055
-0.105
-0.155
-0.215
-0.235
-0.265
-0.315
-0.355
-0.36
-0.365
-0.365
-0.36
-0.36
-0.375
-0.38
-0.385
-0.39
-0.43
-0.475
-0.515
-0.535
-0.525
-0.52
-0.515
-0.505
-0.505
-0.505
-0.495
-0.485
-0.465
-0.47
-0.475
-0.49
-0.505
-0.49
-0.465
-0.475
-0.5
-0.54
-0.56
-0.565
-0.555
-0.585
-0.61
-0.62
-0.62
-0.61
-0.6
-0.595
-0.6
-0.6
-0.59
-0.57
-0.535
-0.545
-0.52
-0.505
-0.5
-0.485
-0.465
-0.45
-0.435
-0.41
-0.37
-0.325
-0.29
-0.27
-0.225
-0.205
-0.155
-0.115
-0.06
-0.03
0.0
0.02
0.07
0.095
0.105
0.115
0.12
0.105
0.105
0.13
0.155
0.195
0.215
0.23
0.24
0.28
0.305
0.325
0.34
0.35
0.39
0.425
0.45
0.49
0.495
0.48
0.505
0.525
0.53
0.52
0.495
0.46
0.405
0.345
0.27
0.2
0.105
-0.015
-0.105
-0.165
-0.19
-0.22
-0.29
-0.335
-0.355
-0.365
-0.365
-0.375
-0.41
-0.42
-0.43
-0.425
-0.435
-0.48
-0.515
-0.565
-0.57
-0.55
-0.53
-0.54
-0.555
-0.545
-0.535
-0.505
-0.485
-0.465
-0.455
-0.46
-0.44
-0.455
-0.465
-0.52
-0.575
-0.615
-0.63
-0.63
-0.63
-0.645
-0.635
-0.65
-0.635
-0.64
-0.615
-0.6
-0.595
-0.595
-0.59
-0.565
-0.55
-0.56
-0.555
-0.555
-0.54
-0.525
-0.505
-0.51
-0.515
-0.52
-0.525
-0.52
-0.5
-0.48
-0.48
-0.485
-0.475
-0.47
-0.46
-0.45
-0.445
-0.45
-0.45
-0.435
-0.41
-0.415
-0.41
-0.43
-0.425
-0.4
-0.385
-0.375
-0.38
-0.375
-0.375
-0.35
-0.345
-0.34
-0.34
-0.34
-0.34
-0.33
-0.325
-0.32
-0.325
-0.34
-0.32
-0.315
-0.285
-0.3
-0.3
-0.315
-0.33
-0.345
-0.35
-0.36
-0.375
-0.42
-0.445
-0.5
-0.56
-0.625
-0.7
-0.75
-0.8
-0.845
-0.88
-0.92
-0.985
-1.035
-1.09
-1.125
-1.14
-1.18
-1.205
-1.22
-1.185
-1.14
-1.08
-1.03
-0.96
-0.865
-0.77
-0.695
-0.615
-0.54
-0.48
-0.41
-0.345
-0.255
-0.16
-0.08
-0.055
-0.06
-0.03
0.045
0.09
0.095
0.105
0.115
0.135
0.135
0.125
0.135
0.175
0.235
0.275
0.34
0.39
0.405
0.395
0.395
0.41
0.435
0.46
0.475
0.51
0.53
0.535
0.52
0.515
0.53
0.545
0.54
0.525
0.535
0.61
0.66
0.655
0.625
0.585
0.58
0.6
0.64
0.67
0.655
0.6
0.585
0.575
0.585
0.58
0.56
0.555
0.575
0.62
0.605
0.595
0.555
0.53
0.535
0.55
0.545
0.54
0.535
0.505
0.535
0.545
0.55
0.545
0.53
0.535
0.53
0.545
0.545
0.53
0.525
0.545
0.54
0.52
0.46
0.4
0.375
0.385
0.365
0.33
0.28
0.195
0.12
0.045
-0.005
-0.065
-0.155
-0.275
-0.365
-0.42
-0.475
-0.565
-0.655
-0.75
-0.815
-0.855
-0.89
-0.955
-1.03
-1.09
-1.115
-1.17
-1.16
-1.13
-1.125
-1.13
-1.14
-1.14
-1.135
-1.11
-1.09
-1.095
-1.08
-1.07
-1.05
-1.04
-1.035
-1.04
-1.04
-1.005
-0.94
-0.89
-0.83
-0.805
-0.77
-0.72
-0.66
-0.6
-0.55
-0.495
-0.455
-0.42
-0.36
-0.305
-0.26
-0.22
-0.19
-0.145
-0.105
-0.04
-0.005
0.01
0.04
0.105
0.18
0.255
0.305
0.335
0.385
0.435
0.5
0.55
0.58
0.585
0.615
0.635
0.65
0.685
0.7
0.695
0.68
0.68
0.685
0.715
0.725
0.715
0.715
0.735
0.75
0.765
0.735
0.725
0.715
0.715
0.735
0.745
0.745
0.735
0.72
0.74
0.75
0.76
0.745
0.735
0.715
0.74
0.74
0.735
0.725
0.71
0.69
0.69
0.7
0.71
0.685
0.64
0.575
0.52
0.475
0.44
0.39
0.31
0.28
0.225
0.165
0.095
0.0
-0.09
-0.145
-0.19
-0.235
-0.295
-0.355
-0.43
-0.485
-0.535
-0.57
-0.635
-0.71
-0.77
-0.855
-0.89
-0.925
-0.945
-0.985
-1.035
-1.055
-1.055
-1.03
-1.01
-0.97
-0.96
-0.95
-0.955
-0.945
-0.95
-0.95
-0.96
-0.965
-0.955
-0.93
-0.915
-0.88
-0.82
-0.76
-0.715
-0.635
-0.605
-0.555
-0.525
-0.515
-0.48
-0.43
-0.4
-0.38
-0.37
-0.355
-0.315
-0.255
-0.19
-0.14
-0.085
-0.045
0.04
0.105
0.165
0.22
0.25
0.28
0.35
0.405
0.475
0.515
0.55
0.57
0.61
0.645
0.685
0.7
0.725
0.745
0.775
0.8
0.835
0.855
0.85
0.855
0.87
0.9
0.915
0.91
0.905
0.91
0.915
0.955
0.975
0.975
0.945
0.94
0.97
0.975
0.985
0.98
0.985
0.98
0.995
1.005
1.025
1.02
1.02
1.02
1.025
1.035
1.035
1.045
1.035
1.035
1.04
1.045
1.05
1.045
1.04
1.015
1.015
1.02
1.025
1.01
1.005
0.995
0.98
0.99
0.995
0.99
0.98
0.955
0.945
0.94
0.93
0.915
0.885
0.86
0.845
0.855
0.845
0.84
0.82
0.81
0.795
0.79
0.755
0.76
0.74
0.71
0.7
0.69
0.685
0.67
0.63
0.615
0.595
0.59
0.57
0.545
0.53
0.505
0.485
0.49
0.485
0.47
0.445
0.43
0.435
0.42
0.42
0.41
0.39
0.365
0.35
0.34
0.345
0.31
0.295
0.29
0.3
0.32
0.29
0.195
0.035
-0.11
-0.255
-0.365
-0.49
-0.65
-0.79
-0.92
-1.035
-1.15
