Lead II
-0.545
-0.555
-0.575
-0.57
-0.565
-0.555
-0.545
-0.555
-0.56
-0.565
-0.565
-0.555
-0.535
-0.54
-0.54
-0.535
-0.54
-0.545
-0.54
-0.55
-0.555
-0.56
-0.555
-0.555
-0.54
-0.545
-0.54
-0.54
-0.55
-0.53
-0.53
-0.535
-0.535
-0.55
-0.565
-0.545
-0.53
-0.525
-0.54
-0.55
-0.55
-0.55
-0.52
-0.52
-0.53
-0.545
-0.535
-0.525
-0.515
-0.53
-0.525
-0.525
-0.52
-0.515
-0.52
-0.515
-0.52
-0.515
-0.515
-0.5
-0.49
-0.495
-0.485
-0.49
-0.495
-0.485
-0.465
-0.46
-0.465
-0.465
-0.45
-0.425
-0.425
-0.4
-0.375
-0.365
-0.285
-0.14
0.18
0.71
1.32
1.69
1.75
1.62
1.5
1.415
1.365
1.29
1.2
1.115
1.04
0.96
0.875
0.8
0.715
0.615
0.52
0.395
0.24
0.085
-0.07
-0.2
-0.34
-0.495
-0.68
-0.875
-1.045
-1.225
-1.36
-1.515
-1.655
-1.755
-1.845
-1.905
-1.965
-2.035
-2.125
-2.225
-2.345
-2.415
-2.475
-2.54
-2.605
-2.665
-2.695
-2.65
-2.54
-2.395
-2.25
-2.105
-1.93
-1.745
-1.61
-1.515
-1.47
-1.41
-1.36
-1.285
-1.205
-1.165
-1.14
-1.105
-1.07
-1.015
-0.92
-0.845
-0.73
-0.655
-0.54
-0.44
-0.34
-0.245
-0.155
-0.05
0.05
0.16
0.25
0.34
0.42
0.465
0.48
0.485
0.485
0.49
0.495
0.495
0.51
0.54
0.565
0.585
0.585
0.6
0.595
0.615
0.625
0.6
0.6
0.585
0.6
0.625
0.63
0.635
0.62
0.625
0.63
0.655
0.675
0.695
0.715
0.735
0.765
0.795
0.825
0.84
0.855
0.87
0.89
0.93
0.955
0.97
0.99
0.985
0.995
1.01
1.035
1.04
1.035
1.03
1.025
1.02
1.025
1.015
0.99
0.975
0.94
0.935
0.91
0.885
0.85
0.815
0.78
0.755
0.72
0.685
0.64
0.595
0.545
0.51
0.465
0.415
0.37
0.315
0.265
0.235
0.185
0.13
0.095
0.025
-0.02
-0.065
-0.09
-0.125
-0.155
-0.19
-0.235
-0.25
-0.26
-0.29
-0.33
-0.355
-0.38
-0.405
-0.425
-0.45
-0.46
-0.465
-0.47
-0.465
-0.47
-0.48
-0.485
-0.49
-0.51
-0.51
-0.5
-0.515
-0.51
-0.52
-0.535
-0.53
-0.505
-0.52
-0.52
-0.525
-0.525
-0.53
-0.505
-0.52
-0.53
-0.535
-0.54
-0.54
-0.535
-0.535
-0.53
-0.54
-0.55
-0.54
-0.515
-0.525
-0.515
-0.52
-0.52
-0.52
-0.515
-0.515
-0.515
-0.51
-0.52
-0.49
-0.475
-0.465
-0.47
-0.48
-0.47
-0.475
-0.475
-0.485
-0.49
-0.48
-0.49
-0.47
-0.465
-0.47
-0.475
-0.485
-0.49
-0.485
-0.47
-0.475
-0.48
-0.485
-0.495
-0.475
-0.465
-0.475
-0.475
-0.485
-0.495
-0.49
-0.495
-0.485
-0.485
-0.49
-0.495
-0.495
-0.49
-0.485
-0.49
-0.495
-0.49
-0.48
-0.475
-0.45
-0.47
-0.47
-0.465
-0.47
-0.46
-0.47
-0.475
-0.485
-0.475
-0.46
-0.455
-0.455
-0.46
-0.47
-0.47
-0.48
-0.46
-0.465
-0.47
-0.475
-0.475
-0.465
-0.455
-0.445
-0.45
-0.455
-0.455
-0.44
-0.425
-0.41
-0.44
-0.455
-0.465
-0.465
-0.445
-0.435
-0.435
-0.44
-0.435
-0.42
-0.4
-0.41
-0.405
-0.42
-0.41
-0.385
-0.375
-0.355
-0.34
-0.32
-0.26
-0.115
0.175
0.7
1.325
1.74
1.815
1.685
1.555
1.47
1.41
1.34
1.245
1.19
1.155
1.09
1.015
0.93
0.83
0.765
0.675
0.59
0.48
0.325
0.145
-0.035
-0.23
-0.425
-0.62
-0.825
-1.06
-1.285
-1.48
-1.675
-1.835
-1.93
-1.995
-2.04
-2.09
-2.15
-2.235
-2.35
-2.465
-2.525
-2.56
-2.615
-2.67
-2.725
-2.705
-2.61
-2.48
-2.32
-2.165
-2.01
-1.85
-1.68
-1.545
-1.47
-1.4
-1.34
-1.27
-1.205
-1.135
-1.1
-1.085
-1.09
-1.065
-1.025
-0.97
-0.92
-0.86
-0.81
-0.73
-0.675
-0.62
-0.56
-0.5
-0.445
-0.36
-0.28
-0.195
-0.125
-0.06
0.0
0.045
0.075
0.135
0.14
0.15
0.15
0.175
0.22
0.27
0.275
0.29
0.305
0.325
0.365
0.39
0.415
0.435
0.46
0.48
0.505
0.545
0.58
0.595
0.615
0.665
0.71
0.765
0.795
0.82
0.83
0.845
0.895
0.925
0.965
0.995
1.005
1.015
1.045
1.08
1.1
1.11
1.12
1.13
1.145
1.165
1.155
1.16
1.15
1.155
1.165
1.155
1.13
1.12
1.1
1.075
1.055
1.035
1.005
0.98
0.94
0.895
0.88
0.845
0.8
0.745
0.69
0.635
0.6
0.56
0.505
0.445
0.405
0.345
0.3
0.25
0.195
0.145
0.095
0.06
0.02
-0.005
-0.04
-0.075
-0.115
-0.145
-0.165
-0.175
-0.205
-0.215
-0.24
-0.265
-0.27
-0.27
-0.285
-0.3
-0.315
-0.33
-0.32
-0.31
-0.32
-0.34
-0.355
-0.365
-0.355
-0.345
-0.355
-0.365
-0.37
-0.37
-0.355
-0.34
-0.365
-0.365
-0.36
-0.36
-0.35
-0.355
-0.35
-0.36
-0.36
-0.36
-0.35
-0.34
-0.355
-0.345
-0.35
-0.355
-0.345
-0.35
-0.34
-0.345
-0.345
-0.35
-0.335
-0.325
-0.335
-0.345
-0.335
-0.33
-0.325
-0.305
-0.32
-0.32
-0.34
-0.35
-0.34
-0.335
-0.33
-0.345
-0.345
-0.345
-0.35
-0.34
-0.345
-0.35
-0.365
-0.365
-0.355
-0.34
-0.345
-0.335
-0.355
-0.35
-0.335
-0.33
-0.32
-0.325
-0.31
-0.305
-0.27
-0.235
-0.215
-0.21
-0.175
-0.155
-0.115
-0.08
-0.07
-0.055
-0.055
-0.035
0.0
0.015
0.015
0.0
-0.02
-0.045
-0.055
-0.065
-0.065
-0.06
-0.065
-0.08
-0.075
-0.065
-0.08
-0.105
-0.14
-0.175
-0.19
-0.205
-0.225
-0.255
-0.275
-0.31
-0.315
-0.33
-0.34
-0.36
-0.39
-0.41
-0.41
-0.405
-0.415
-0.43
-0.445
-0.47
-0.465
-0.445
-0.435
-0.435
-0.42
-0.395
-0.375
-0.31
-0.19
0.08
0.56
1.195
1.67
1.785
1.645
1.495
1.395
1.34
1.29
1.215
1.135
1.045
0.945
0.865
0.795
0.745
0.645
0.555
0.445
0.32
0.195
0.095
-0.045
-0.195
-0.35
-0.5
-0.62
-0.75
-0.885
-1.045
-1.18
-1.295
-1.375
-1.44
-1.515
-1.565
-1.615
-1.675
-1.755
-1.835
-1.97
-2.075
-2.16
-2.23
-2.295
-2.37
-2.405
-2.375
-2.305
-2.19
-2.05
-1.9
-1.755
-1.62
-1.55
-1.475
-1.425
-1.38
-1.325
-1.28
-1.24
-1.19
-1.165
-1.145
-1.13
-1.09
-1.045
-0.99
-0.895
-0.81
-0.76
-0.705
-0.665
-0.595
-0.515
-0.425
-0.345
-0.28
-0.21
-0.165
-0.085
-0.005
0.025
0.06
0.075
0.085
0.12
0.155
0.17
0.19
0.205
0.21
0.225
0.26
0.295
0.315
0.325
0.345
0.375
0.41
0.425
0.445
0.48
0.505
0.54
0.585
0.59
0.62
0.64
0.67
0.71
0.745
0.775
0.79
0.81
0.83
0.88
0.925
0.93
0.965
0.97
0.97
0.995
1.02
1.025
1.03
1.015
1.035
1.04
1.05
1.045
1.035
1.01
1.0
0.985
0.965
0.95
0.925
0.89
0.86
0.835
0.8
0.78
0.745
0.7
0.655
0.61
0.57
0.51
0.455
0.405
0.375
0.32
0.28
0.22
0.175
0.13
0.07
0.035
0.005
-0.06
-0.08
-0.14
-0.16
-0.195
-0.21
-0.235
-0.265
-0.295
-0.31
-0.315
-0.305
-0.33
-0.345
-0.365
-0.37
-0.365
-0.36
-0.355
-0.37
-0.38
-0.385
-0.37
-0.33
-0.32
-0.3
-0.275
-0.245
-0.225
-0.16
-0.145
-0.11
-0.095
-0.085
-0.075
-0.04
-0.03
-0.025
-0.01
-0.005
-0.01
-0.025
-0.06
-0.095
-0.115
-0.12
-0.125
-0.09
-0.085
-0.09
-0.1
-0.12
-0.13
-0.13
-0.16
-0.195
-0.225
-0.24
-0.25
-0.27
-0.3
-0.33
-0.38
-0.41
-0.42
-0.425
-0.435
-0.46
-0.475
-0.495
-0.495
-0.51
-0.525
-0.545
-0.56
-0.545
-0.535
-0.535
-0.53
-0.54
-0.545
-0.565
-0.565
-0.56
-0.575
-0.585
-0.6
-0.595
-0.585
-0.58
-0.58
-0.58
-0.605
-0.595
-0.59
-0.57
-0.575
-0.58
-0.6
-0.615
-0.62
-0.595
-0.575
-0.6
-0.61
-0.625
-0.615
-0.605
-0.595
-0.6
-0.59
-0.585
-0.585
-0.58
-0.59
-0.6
-0.61
-0.62
-0.61
-0.605
-0.595
-0.605
-0.605
-0.615
-0.605
-0.6
-0.6
-0.61
-0.61
-0.62
-0.605
-0.58
-0.58
-0.57
-0.595
-0.6
-0.585
-0.56
-0.56
-0.545
-0.53
-0.51
-0.475
-0.395
-0.235
0.1
0.655
1.26
1.61
1.6
1.42
1.265
1.175
1.125
1.07
0.99
0.9
0.805
0.71
0.635
0.565
0.485
0.35
0.23
0.11
0.0
-0.135
-0.255
-0.44
-0.635
-0.835
-1.015
-1.195
-1.39
-1.615
-1.855
-2.02
-2.165
-2.22
-2.255
-2.28
-2.335
-2.34
-2.415
-2.48
-2.56
-2.62
-2.665
-2.71
-2.755
-2.775
-2.75
-2.675
-2.59
-2.45
-2.285
-2.09
-1.905
-1.735
-1.605
-1.54
-1.48
-1.41
-1.34
-1.265
-1.2
-1.165
-1.14
-1.125
-1.1
-1.07
-1.04
-0.99
-0.91
-0.835
-0.76
-0.71
-0.66
-0.605
-0.525
-0.435
-0.335
-0.245
-0.18
-0.105
-0.025
0.045
0.1
0.095
0.095
0.11
0.15
0.19
0.22
0.24
0.265
0.275
0.3
0.335
0.365
0.385
0.4
0.415
0.445
0.495
0.54
0.56
0.575
0.595
0.635
0.695
0.725
0.74
0.775
0.795
0.835
0.875
0.9
0.915
0.935
0.96
0.995
1.03
1.075
1.1
1.12
1.15
1.165
1.215
1.25
1.28
1.285
1.29
1.3
1.32
1.32
1.31
1.295
1.28
1.255
1.21
1.165
1.115
1.065
1.025
0.975
0.95
0.92
0.855
0.775
0.705
0.645
0.565
0.49
0.4
0.3
0.235
0.15
0.1
0.03
-0.03
-0.1
-0.165
-0.21
-0.255
-0.275
-0.34
-0.385
-0.415
-0.445
-0.465
-0.485
-0.51
-0.525
-0.545
-0.545
-0.525
-0.525
-0.54
-0.55
-0.555
-0.575
-0.575
-0.57
-0.585
-0.58
-0.595
-0.59
-0.59
-0.575
-0.585
-0.595
-0.605
-0.6
-0.59
-0.585
-0.6
-0.605
-0.61
-0.605
-0.595
-0.58
-0.585
-0.575
-0.585
-0.585
-0.58
-0.565
-0.565
-0.565
-0.575
-0.575
-0.565
-0.55
-0.555
-0.56
-0.565
-0.565
-0.555
-0.535
-0.53
-0.535
-0.54
-0.55
-0.55
-0.525
-0.54
-0.555
-0.56
-0.56
-0.56
-0.55
-0.55
-0.54
-0.555
-0.55
-0.53
-0.53
-0.54
-0.555
-0.555
-0.57
-0.555
-0.55
-0.545
-0.565
-0.58
-0.58
-0.565
-0.555
-0.55
-0.565
-0.58
-0.58
-0.565
-0.56
-0.55
-0.565
-0.57
-0.57
-0.56
-0.555
-0.555
-0.56
-0.56
-0.56
-0.555
-0.545
-0.545
-0.545
-0.555
-0.56
-0.55
-0.53
-0.535
-0.545
-0.56
-0.54
-0.52
-0.51
-0.515
-0.51
-0.53
-0.535
-0.52
-0.5
-0.505
-0.51
-0.495
-0.51
-0.485
-0.47
-0.48
-0.455
-0.46
-0.455
-0.43
-0.4
-0.38
-0.34
-0.23
0.045
0.535
1.155
1.62
1.76
1.62
1.46
1.365
1.32
1.235
1.16
1.06
0.98
0.9
0.84
0.77
0.695
0.6
0.495
0.375
0.26
0.11
-0.065
-0.22
-0.375
-0.515
-0.66
-0.82
-1.02
-1.185
-1.335
-1.46
-1.545
-1.615
-1.69
-1.765
-1.855
-1.91
-1.97
-2.1
-2.23
-2.33
-2.415
-2.47
-2.53
-2.605
-2.625
-2.555
-2.44
-2.265
-2.085
-1.915
-1.765
-1.625
-1.53
-1.46
-1.405
-1.36
-1.3
-1.26
-1.185
-1.15
-1.115
-1.085
-1.055
-1.015
-0.915
-0.805
-0.695
-0.59
-0.51
-0.44
-0.365
-0.285
-0.18
-0.07
0.025
0.115
0.185
0.235
0.26
0.305
0.315
0.33
0.345
0.385
0.405
0.405
0.4
0.415
0.42
0.42
0.43
0.425
0.415
0.415
0.405
0.42
0.435
0.435
0.415
0.42
0.425
0.445
0.485
0.5
0.51
0.525
0.545
0.575
0.6
0.625
0.655
0.68
0.695
0.73
0.78
0.79
0.805
0.815
0.84
0.865
0.88
0.885
0.885
0.89
0.89
0.88
0.89
0.885
0.875
0.84
0.82
0.795
0.8
0.77
0.725
0.685
0.655
0.635
0.615
0.58
0.525
0.465
0.425
0.38
0.325
0.265
0.215
0.145
0.095
0.05
0.01
-0.045
-0.1
-0.16
-0.205
-0.235
-0.275
-0.31
-0.34
-0.39
-0.42
-0.45
-0.45
-0.485
-0.5
-0.53
-0.54
-0.535
-0.545
-0.56
-0.575
-0.595
-0.595
-0.59
-0.585
-0.62
-0.63
-0.63
-0.63
-0.62
-0.605
-0.615
-0.62
-0.63
-0.64
-0.635
-0.63
-0.63
-0.635
-0.645
-0.635
-0.635
-0.63
-0.645
-0.66
-0.655
-0.65
-0.645
-0.65
-0.65
-0.655
-0.7
-0.725
-0.75
-0.775
-0.815
-0.86
-0.91
-0.925
-0.955
-0.95
-0.985
-1.01
-1.03
-1.0
-0.94
-0.88
-0.82
-0.83
-0.885
-1.03
-1.245
-1.505
-1.735
-1.89
-1.995
-2.095
-2.17
-2.19
-2.14
-2.035
-1.93
-1.855
-1.845
-1.84
-1.845
-1.845
-1.82
-1.795
-1.77
-1.825
-1.98
-2.135
-2.28
-2.355
-2.38
-2.335
-2.29
-2.225
-2.12
-1.945
-1.735
-1.49
-1.27
-1.04
-0.835
-0.665
-0.55
-0.505
-0.495
-0.485
-0.46
-0.415
-0.385
-0.325
-0.275
-0.23
-0.215
-0.2
-0.175
-0.155
-0.135
-0.135
-0.13
-0.115
-0.11
-0.1
-0.085
-0.08
-0.07
-0.035
-0.01
0.01
0.035
0.05
0.06
0.09
0.115
0.14
0.17
0.185
0.205
0.25
0.285
0.33
0.355
0.38
0.425
0.475
0.525
0.57
0.615
0.665
0.705
0.77
0.83
0.865
0.915
0.915
0.92
0.94
0.985
1.025
1.05
1.05
1.02
0.99
0.99
1.005
0.98
0.975
0.925
0.915
0.91
0.87
0.83
0.775
0.72
0.665
0.63
0.57
0.495
0.425
0.36
0.295
0.22
0.15
0.08
0.005
-0.065
-0.13
-0.185
-0.205
-0.26
-0.325
-0.375
-0.42
-0.45
-0.455
-0.5
-0.52
-0.545
-0.555
-0.565
-0.56
-0.575
-0.59
-0.59
-0.6
-0.59
-0.6
-0.605
-0.62
-0.63
-0.615
-0.61
-0.61
-0.605
-0.61
-0.62
-0.63
-0.63
-0.63
-0.62
-0.64
-0.64
-0.625
-0.61
-0.6
-0.605
-0.63
-0.625
-0.62
-0.595
-0.6
-0.59
-0.59
-0.595
-0.61
-0.61
-0.595
-0.59
-0.595
-0.6
-0.6
-0.605
-0.61
-0.6
-0.61
-0.61
-0.61
-0.595
-0.58
-0.58
-0.59
-0.6
-0.615
-0.61
-0.59
-0.59
-0.605
-0.62
-0.605
-0.605
-0.6
-0.585
-0.585
-0.595
-0.595
-0.575
-0.58
-0.565
-0.585
-0.595
-0.605
-0.59
-0.59
-0.575
-0.59
-0.595
-0.6
-0.59
-0.58
-0.58
-0.575
-0.585
-0.575
-0.565
-0.545
-0.545
-0.565
-0.57
-0.575
-0.58
-0.58
-0.58
-0.585
-0.585
-0.585
-0.555
-0.54
-0.525
-0.535
-0.55
-0.55
-0.54
-0.53
-0.525
-0.535
-0.54
-0.53
-0.535
-0.52
-0.505
-0.5
-0.51
-0.525
-0.51
-0.49
-0.49
-0.5
-0.5
-0.48
-0.47
-0.46
-0.47
-0.48
-0.475
-0.465
-0.445
-0.45
-0.455
-0.455
-0.455
-0.445
-0.445
-0.425
-0.43
-0.435
-0.435
-0.43
-0.425
-0.41
-0.41
-0.4
-0.415
-0.41
-0.4
-0.385
-0.37
-0.38
-0.4
-0.4
-0.385
-0.375
-0.375
-0.38
-0.38
-0.375
-0.35
-0.345
-0.33
-0.33
-0.32
-0.295
-0.26
-0.215
-0.12
0.095
0.545
1.18
1.715
1.87
1.725
1.545
1.435
1.38
1.315
1.225
1.12
1.03
0.925
0.845
0.765
0.66
0.53
0.39
0.23
0.09
-0.06
-0.22
-0.39
-0.56
-0.73
-0.905
-1.04
-1.18
-1.295
-1.39
-1.465
-1.495
-1.53
-1.555
-1.575
-1.625
-1.735
-1.865
-1.955
-2.03
-2.11
-2.205
-2.265
-2.26
-2.17
-2.03
-1.825
-1.645
-1.485
-1.335
-1.19
-1.105
-1.065
-1.035
-1.015
-0.975
-0.93
-0.915
-0.915
-0.935
-0.945
-0.925
-0.875
-0.79
-0.735
-0.675
-0.65
-0.615
-0.565
-0.5
-0.43
-0.355
-0.285
-0.2
-0.12
-0.06
-0.005
0.045
0.085
0.115
0.145
0.165
0.175
0.19
0.2
0.215
0.23
0.265
0.285
0.29
0.3
0.32
0.345
0.365
0.395
0.405
0.42
0.45
0.48
0.505
0.52
0.54
0.57
0.6
0.625
0.66
0.69
0.71
0.735
0.765
0.805
0.83
0.865
0.875
0.885
0.9
0.935
0.945
0.975
0.99
0.985
1.01
1.025
1.04
1.05
1.05
1.035
1.055
1.04
1.045
1.045
1.03
1.005
1.005
1.005
0.985
0.955
0.93
0.895
0.855
0.84
0.815
0.78
0.735
0.675
0.645
0.615
0.58
0.54
0.49
0.435
0.39
0.35
0.32
0.275
0.23
0.175
0.15
0.115
0.075
0.04
0.005
-0.03
-0.055
-0.105
-0.1
-0.125
-0.155
-0.18
-0.19
-0.195
-0.2
-0.23
-0.24
-0.25
-0.27
-0.275
-0.265
-0.275
-0.295
-0.315
-0.33
-0.315
-0.315
-0.32
-0.33
-0.335
-0.34
-0.325
-0.335
-0.345
-0.36
-0.36
-0.375
-0.37
-0.35
-0.35
-0.38
-0.365
-0.36
-0.345
-0.345
-0.35
-0.355
-0.36
-0.355
-0.35
-0.335
-0.345
-0.345
-0.37
-0.355
-0.355
-0.335
-0.33
-0.345
-0.35
-0.35
-0.335
-0.32
-0.325
-0.345
-0.34
-0.345
-0.34
-0.34
-0.335
-0.335
-0.34
-0.345
-0.32
-0.325
-0.335
-0.34
-0.355
-0.355
-0.35
-0.33
-0.33
-0.345
-0.365
-0.37
-0.36
-0.345
-0.34
-0.355
-0.375
-0.375
-0.365
-0.35
-0.35
-0.37
-0.37
-0.36
-0.355
-0.345
-0.35
-0.36
-0.365
-0.355
-0.355
-0.33
-0.32
-0.335
-0.35
-0.335
-0.3
-0.285
-0.265
-0.25
-0.245
-0.215
-0.165
-0.125
-0.095
-0.065
-0.035
-0.02
-0.005
0.015
0.04
0.06
0.07
0.085
0.075
0.045
0.02
0.01
0.0
0.005
0.015
0.03
0.03
0.015
-0.005
-0.015
-0.025
-0.05
-0.075
-0.09
-0.12
-0.125
-0.125
-0.11
-0.085
-0.015
0.225
0.69
1.295
1.73
1.835
1.69
1.515
1.415
1.36
1.305
1.21
1.12
1.02
0.955
0.895
0.84
0.78
0.7
0.595
0.49
0.385
0.29
0.155
0.015
-0.14
-0.29
-0.435
-0.58
-0.755
-0.935
-1.13
-1.3
-1.45
-1.56
-1.635
-1.695
-1.755
-1.775
-1.81
-1.88
-1.995
-2.12
-2.215
-2.27
-2.33
-2.415
-2.48
-2.52
-2.475
-2.355
-2.185
-2.025
-1.865
-1.7
-1.535
-1.415
-1.345
-1.29
-1.245
-1.215
-1.17
-1.125
-1.095
-1.08
-1.09
-1.085
-1.07
-1.03
-0.97
-0.895
-0.845
-0.79
-0.745
-0.685
-0.59
-0.525
-0.445
-0.375
-0.32
-0.25
-0.175
-0.095
-0.04
-0.01
0.0
0.03
0.06
0.09
0.11
0.135
0.135
0.155
0.19
0.235
0.26
0.275
0.28
0.3
0.335
0.365
0.405
0.43
0.445
0.48
0.525
0.575
0.595
0.615
0.64
0.675
0.715
0.76
0.785
0.82
0.84
0.865
0.905
0.94
0.96
0.975
0.98
1.01
1.04
1.065
1.075
1.075
1.07
1.08
1.09
1.1
1.09
1.08
1.065
1.045
1.04
1.025
0.995
0.965
0.93
0.89
0.875
0.85
0.8
0.765
0.715
0.67
0.635
0.62
0.585
0.515
0.46
0.39
0.355
0.3
0.26
0.205
0.14
0.105
0.075
0.04
-0.015
-0.055
-0.105
-0.125
-0.145
-0.185
-0.215
-0.25
-0.26
-0.28
-0.295
-0.315
-0.335
-0.37
-0.375
-0.385
-0.37
-0.395
-0.395
-0.4
-0.415
-0.42
-0.425
-0.435
-0.445
-0.445
-0.44
-0.425
-0.42
-0.43
-0.435
-0.445
-0.47
-0.445
-0.43
-0.425
-0.425
-0.435
-0.435
-0.42
-0.4
-0.4
-0.39
-0.405
-0.4
-0.385
-0.365
-0.33
-0.295
-0.26
-0.25
-0.21
-0.18
-0.145
-0.135
-0.12
-0.11
-0.105
-0.06
-0.03
-0.02
-0.04
-0.075
-0.09
-0.09
-0.105
-0.11
-0.11
-0.115
-0.105
-0.105
-0.115
-0.14
-0.165
-0.195
-0.215
-0.235
-0.26
-0.285
-0.32
-0.35
-0.37
-0.39
-0.4
-0.425
-0.455
-0.495
-0.51
-0.5
-0.51
-0.515
-0.54
-0.56
-0.555
-0.55
-0.555
-0.565
-0.57
-0.575
-0.575
-0.565
-0.555
-0.555
-0.565
-0.565
-0.575
-0.58
-0.565
-0.565
-0.57
-0.585
-0.585
-0.585
-0.555
-0.555
-0.575
-0.585
-0.585
-0.585
-0.57
-0.555
-0.545
-0.555
-0.555
-0.55
-0.555
-0.56
-0.58
-0.575
-0.56
-0.55
-0.535
-0.535
-0.535
-0.555
-0.545
-0.545
-0.53
-0.52
-0.515
-0.535
-0.52
-0.505
-0.49
-0.47
-0.47
-0.455
-0.43
-0.38
-0.285
-0.06
0.35
0.925
1.455
1.685
1.63
1.465
1.34
1.265
1.195
1.12
1.04
0.96
0.865
0.78
0.715
0.635
0.555
0.45
0.33
0.195
0.075
-0.04
-0.165
-0.315
-0.49
-0.68
-0.855
-1.005
-1.17
-1.345
-1.515
-1.68
-1.84
-1.935
-1.995
-2.055
-2.115
-2.18
-2.22
-2.245
-2.305
-2.4
-2.47
-2.53
-2.565
-2.605
-2.645
-2.685
-2.67
-2.61
-2.485
-2.33
-2.165
-1.995
-1.825
-1.69
-1.57
-1.5
-1.43
-1.375
-1.33
-1.295
-1.235
-1.185
-1.175
-1.17
-1.155
-1.135
-1.095
-1.015
-0.94
-0.88
-0.83
-0.79
-0.75
-0.69
-0.625
-0.565
-0.505
-0.44
-0.37
-0.29
-0.225
-0.16
-0.105
-0.07
-0.045
-0.025
0.005
-0.005
0.015
0.02
0.04
0.06
0.09
0.095
0.115
0.11
0.125
0.155
0.175
0.2
0.21
0.215
0.235
0.265
0.31
0.315
0.33
0.335
0.355
0.4
0.425
0.46
0.47
0.48
0.495
0.54
0.56
0.595
0.605
0.61
0.63
0.64
0.67
0.69
0.7
0.695
0.71
0.715
0.725
0.725
0.73
0.71
0.715
0.715
0.725
0.71
0.685
0.655
0.65
0.65
0.645
0.64
0.6
0.575
0.57
0.575
0.56
0.54
0.52
0.495
0.495
0.495
0.475
0.435
0.385
0.34
0.29
0.265
0.235
0.175
0.09
0.0
-0.075
-0.115
-0.165
-0.205
-0.25
-0.295
-0.325
-0.355
-0.39
-0.435
-0.485
-0.545
-0.59
-0.635
-0.66
-0.7
-0.74
-0.795
-0.825
-0.85
-0.88
-0.905
-0.945
-0.99
-1.015
-1.015
-1.01
-1.035
-1.065
-1.095
-1.12
-1.115
-1.115
-1.14
-1.15
-1.16
-1.185
-1.18
-1.17
-1.175
-1.205
-1.225
-1.22
-1.21
-1.22
-1.215
-1.23
-1.23
-1.225
-1.225
-1.22
-1.23
-1.25
-1.25
-1.25
-1.245
-1.235
-1.245
-1.245
-1.255
-1.245
-1.23
-1.225
-1.245
-1.25
-1.255
-1.265
-1.28
-1.255
-1.265
-1.275
-1.29
-1.3
-1.305
-1.28
-1.29
-1.295
-1.315
-1.315
-1.305
-1.3
-1.31
-1.305
-1.325
-1.33
-1.33
-1.335
-1.345
-1.345
-1.36
-1.35
-1.36
-1.345
-1.355
-1.355
-1.375
-1.385
-1.365
-1.365
-1.365
-1.37
-1.38
-1.38
-1.37
-1.36
-1.365
-1.39
-1.39
-1.395
-1.385
-1.375
-1.39
-1.395
-1.4
-1.41
-1.41
-1.4
-1.41
-1.405
-1.405
-1.415
-1.4
-1.385
-1.395
-1.415
-1.415
-1.41
-1.4
-1.38
-1.395
-1.4
-1.415
-1.415
-1.405
-1.4
-1.4
-1.41
-1.415
-1.41
-1.4
-1.395
-1.4
-1.405
-1.425
-1.425
-1.41
-1.39
-1.385
-1.39
-1.39
-1.37
-1.35
-1.335
-1.32
-1.305
-1.28
-1.21
-1.055
-0.76
-0.205
0.43
1.025
1.18
1.005
0.745
0.56
0.465
0.385
0.295
0.19
0.1
0.005
-0.09
-0.18
-0.25
-0.32
-0.395
-0.49
-0.585
-0.69
-0.8
-0.905
-1.015
-1.14
-1.255
-1.36
-1.475
-1.595
-1.725
-1.85
-1.985
-2.115
-2.19
-2.235
-2.25
-2.285
-2.305
-2.34
-2.38
-2.43
-2.49
-2.575
-2.63
-2.685
-2.74
-2.785
-2.825
-2.84
-2.825
-2.79
-2.695
-2.605
-2.505
-2.4
-2.3
-2.215
-2.135
-2.1
-2.07
-2.055
-2.035
-2.015
-1.975
-1.945
-1.935
-1.935
-1.935
-1.93
-1.915
-1.855
-1.785
-1.73
-1.695
-1.665
-1.625
-1.565
-1.515
-1.44
-1.365
-1.3
-1.22
-1.155
-1.08
-1.02
-0.945
-0.91
-0.86
-0.83
-0.78
-0.73
-0.705
-0.685
-0.645
-0.585
-0.525
-0.51
-0.52
-0.52
-0.52
-0.49
-0.465
-0.435
-0.42
-0.395
-0.37
-0.325
-0.29
-0.26
-0.235
-0.245
-0.235
-0.21
-0.185
-0.185
-0.18
-0.175
-0.17
-0.145
-0.13
-0.12
-0.12
-0.125
-0.11
-0.1
-0.07
-0.06
-0.07
-0.09
-0.095
-0.08
-0.07
-0.085
-0.1
-0.115
-0.115
-0.125
-0.135
-0.155
-0.19
-0.235
-0.275
-0.3
-0.33
-0.375
-0.43
-0.47
-0.52
-0.555
-0.605
-0.65
-0.69
-0.75
-0.8
-0.835
-0.865
-0.91
-0.96
-1.01
-1.055
-1.09
-1.11
-1.14
-1.18
-1.21
-1.26
-1.275
-1.3
-1.325
-1.34
-1.365
-1.385
-1.395
-1.405
-1.415
-1.415
-1.435
-1.435
-1.43
-1.43
-1.43
-1.445
-1.455
-1.465
-1.46
-1.445
-1.455
-1.46
-1.485
-1.475
-1.465
-1.44
-1.45
-1.44
-1.475
-1.46
-1.445
-1.435
-1.425
-1.44
-1.455
-1.45
-1.46
-1.44
-1.44
-1.44
-1.455
-1.46
-1.43
-1.405
-1.415
-1.425
-1.44
-1.43
-1.4
-1.38
-1.38
-1.39
-1.39
-1.385
-1.38
-1.375
-1.37
-1.36
-1.375
-1.39
-1.355
-1.345
-1.35
-1.36
-1.385
-1.365
-1.355
-1.34
-1.33
-1.345
-1.355
-1.355
-1.34
-1.335
-1.335
-1.335
-1.325
-1.34
-1.325
-1.31
-1.295
-1.3
-1.315
-1.33
-1.32
-1.3
-1.28
-1.29
-1.295
-1.29
-1.275
-1.265
-1.27
-1.265
-1.27
-1.265
-1.255
-1.235
-1.235
-1.23
-1.245
-1.24
-1.215
-1.2
-1.195
-1.205
-1.215
-1.2
-1.185
-1.19
-1.17
-1.19
-1.195
-1.185
-1.165
-1.16
-1.155
-1.17
-1.17
-1.165
-1.145
-1.13
-1.14
-1.145
-1.145
-1.125
-1.11
-1.11
-1.085
-1.1
-1.1
-1.09
-1.065
-1.055
-1.04
-1.03
-1.04
-1.005
-0.97
-0.91
-0.855
-0.705
-0.395
0.225
0.86
1.495
1.6
1.34
1.045
0.885
0.81
0.72
0.595
0.46
0.345
0.255
0.165
0.095
-0.01
-0.12
-0.245
-0.35
-0.45
-0.545
-0.66
-0.77
-0.89
-0.985
-1.1
-1.24
-1.38
-1.505
-1.615
-1.695
-1.745
-1.795
-1.85
-1.905
-1.945
-2.0
-2.045
-2.095
-2.165
-2.2
-2.235
-2.27
-2.305
-2.31
-2.3
-2.27
-2.195
-2.115
-2.0
-1.885
-1.78
-1.715
-1.665
-1.63
-1.595
-1.57
-1.54
-1.52
-1.485
-1.465
-1.45
-1.45
-1.455
-1.425
-1.385
-1.325
-1.265
-1.2
-1.155
-1.13
-1.09
-1.04
-0.995
-0.905
-0.835
-0.795
-0.74
-0.7
-0.635
-0.575
-0.545
-0.53
-0.535
-0.525
-0.5
-0.465
-0.44
-0.43
-0.42
-0.4
-0.37
-0.35
-0.32
-0.31
-0.295
-0.27
-0.23
-0.195
-0.185
-0.145
-0.14
-0.1
-0.045
-0.02
0.005
0.035
0.06
0.105
0.14
0.19
0.22
0.255
0.28
0.31
0.36
0.41
0.43
0.455
0.485
0.505
0.545
0.56
0.585
0.59
0.595
0.605
0.615
0.63
0.63
0.625
0.61
0.595
0.595
0.58
0.575
0.54
0.495
0.46
0.43
0.41
0.365
0.32
0.275
0.215
0.19
0.16
0.12
0.06
-0.005
-0.05
-0.09
-0.135
-0.16
-0.215
-0.275
-0.32
-0.355
-0.37
-0.385
-0.425
-0.47
-0.485
-0.49
-0.495
-0.515
-0.54
-0.57
-0.575
-0.58
-0.58
-0.575
-0.6
-0.61
-0.62
-0.62
-0.605
-0.61
-0.615
-0.62
-0.625
-0.625
-0.62
-0.625
-0.635
-0.65
-0.635
-0.625
-0.615
-0.63
-0.63
-0.64
-0.63
-0.61
-0.605
-0.615
-0.625
-0.63
-0.61
-0.595
-0.595
-0.595
-0.585
-0.585
-0.565
-0.565
-0.555
-0.555
-0.565
-0.56
-0.555
-0.535
-0.53
-0.515
-0.52
-0.525
-0.53
-0.505
-0.5
-0.505
-0.495
-0.515
-0.505
-0.49
-0.49
-0.485
-0.49
-0.5
-0.495
-0.495
-0.48
-0.475
-0.49
-0.5
-0.495
-0.47
-0.45
-0.46
-0.46
-0.475
-0.47
-0.475
-0.445
-0.47
-0.45
-0.445
-0.44
-0.43
-0.42
-0.41
-0.39
-0.38
-0.365
-0.335
-0.3
-0.26
-0.21
-0.21
-0.19
-0.165
-0.14
-0.12
-0.11
-0.09
-0.06
-0.03
-0.04
-0.07
-0.11
-0.135
-0.135
-0.125
-0.105
-0.09
-0.08
-0.09
-0.09
-0.095
-0.105
-0.13
-0.16
-0.19
-0.205
-0.215
-0.205
-0.22
-0.235
-0.26
-0.255
-0.25
-0.24
-0.235
-0.22
-0.155
0.08
0.525
1.16
1.795
2.17
1.985
1.695
1.505
1.44
1.35
1.24
1.105
0.995
0.9
0.83
0.755
0.64
0.5
0.365
0.245
0.16
0.055
-0.06
-0.23
-0.375
-0.515
-0.65
-0.795
-0.95
-1.105
-1.24
-1.335
-1.39
-1.425
-1.465
-1.5
-1.55
-1.61
-1.685
-1.755
-1.825
-1.885
-1.935
-1.975
-1.995
-1.965
-1.915
-1.825
-1.71
-1.57
-1.415
-1.29
-1.185
-1.125
-1.085
-1.055
-1.0
-0.97
-0.935
-0.915
-0.89
-0.87
-0.855
-0.825
-0.77
-0.725
-0.66
-0.6
-0.535
-0.485
-0.44
-0.385
-0.31
-0.225
-0.15
-0.075
-0.005
0.05
0.11
0.165
0.2
0.21
0.21
0.225
0.26
0.31
0.335
0.365
0.395
0.415
0.43
0.445
0.465
0.48
0.505
0.545
0.585
0.635
0.67
0.7
0.735
0.75
0.79
0.825
0.865
0.905
0.94
0.98
1.01
1.05
1.085
1.13
1.17
1.185
1.22
1.24
1.27
1.28
1.285
1.3
1.34
1.36
1.375
1.375
1.36
1.355
1.34
1.34
1.335
1.335
1.305
1.28
1.25
1.245
1.23
1.195
1.15
1.085
1.045
1.005
0.96
0.905
0.84
0.795
0.745
0.69
0.655
0.595
0.535
0.45
0.39
0.36
0.325
0.3
0.26
0.22
0.175
0.135
0.095
0.075
0.03
0.0
0.005
-0.02
-0.03
-0.04
-0.07
-0.08
-0.085
-0.075
-0.075
-0.095
-0.1
-0.12
-0.115
-0.115
-0.12
-0.11
-0.125
-0.13
-0.125
-0.115
-0.1
-0.105
-0.11
-0.12
-0.11
-0.085
-0.06
-0.04
-0.02
0.0
0.03
0.065
0.105
0.155
0.175
0.21
0.23
0.235
0.245
0.275
0.295
0.305
0.29
0.265
0.245
0.23
0.23
0.24
0.26
0.26
0.25
0.245
0.22
0.21
0.2
0.19
0.155
0.12
0.1
0.065
0.05
0.025
0.015
0.0
-0.025
-0.05
-0.05
-0.065
