Lead II
-0.78
-0.77
-0.745
-0.73
-0.735
-0.735
-0.73
-0.735
-0.71
-0.71
-0.685
-0.695
-0.74
-0.785
-0.815
-0.815
-0.8
-0.78
-0.76
-0.735
-0.75
-0.725
-0.735
-0.735
-0.745
-0.76
-0.775
-0.795
-0.8
-0.82
-0.83
-0.84
-0.845
-0.85
-0.865
-0.845
-0.81
-0.795
-0.815
-0.91
-1.03
-1.08
-1.095
-1.06
-0.985
-0.93
-0.895
-0.895
-0.935
-0.975
-1.01
-1.0
-0.99
-0.955
-0.95
-0.965
-0.945
-0.945
-0.95
-0.965
-1.005
-1.035
-1.06
-1.1
-1.085
-1.07
-1.045
-1.0
-0.91
-0.755
-0.565
-0.38
-0.28
-0.225
-0.175
-0.085
0.075
0.31
0.585
0.81
0.92
0.795
0.415
-0.17
-0.81
-1.34
-1.7
-1.89
-1.97
-2.005
-2.045
-2.1
-2.15
-2.205
-2.215
-2.23
-2.215
-2.17
-2.11
-2.065
-2.06
-2.04
-2.015
-1.975
-1.875
-1.725
-1.55
-1.4
-1.275
-1.18
-1.095
-1.03
-1.005
-1.02
-1.075
-1.085
-1.08
-1.065
-1.01
-0.975
-0.975
-0.95
-0.96
-0.945
-0.925
-0.91
-0.915
-0.95
-1.01
-1.05
-1.06
-1.115
-1.075
-1.04
-1.035
-1.025
-1.02
-1.035
-1.035
-1.045
-1.08
-1.14
-1.19
-1.21
-1.23
-1.24
-1.22
-1.2
-1.15
-1.105
-1.085
-1.1
-1.165
-1.215
-1.265
-1.28
-1.285
-1.245
-1.22
-1.18
-1.14
-1.125
-1.15
-1.17
-1.175
-1.185
-1.17
-1.14
-1.095
-1.065
-1.05
-1.06
-1.04
-1.025
-0.99
-0.985
-0.96
-0.975
-0.985
-0.975
-0.94
-0.905
-0.875
-0.885
-0.89
-0.88
-0.87
-0.87
-0.875
-0.88
-0.895
-0.895
-0.9
-0.885
-0.84
-0.83
-0.82
-0.815
-0.82
-0.84
-0.84
-0.895
-0.935
-0.955
-0.97
-0.965
-0.94
-0.915
-0.875
-0.835
-0.835
-0.8
-0.795
-0.82
-0.845
-0.88
-0.89
-0.895
-0.895
-0.855
-0.83
-0.805
-0.79
-0.79
-0.825
-0.875
-0.945
-0.975
-0.985
-0.975
-0.96
-0.945
-0.91
-0.865
-0.86
-0.835
-0.855
-0.885
-0.92
-0.925
-0.925
-0.875
-0.845
-0.84
-0.85
-0.865
-0.89
-0.875
-0.845
-0.855
-0.85
-0.9
-0.93
-0.915
-0.885
-0.85
-0.79
-0.79
-0.81
-0.815
-0.81
-0.8
-0.76
-0.715
-0.695
-0.68
-0.685
-0.685
-0.67
-0.675
-0.685
-0.705
-0.715
-0.72
-0.72
-0.735
-0.755
-0.74
-0.745
-0.77
-0.765
-0.75
-0.74
-0.74
-0.755
-0.79
-0.785
-0.795
-0.85
-0.915
-0.965
-0.98
-0.955
-0.93
-0.92
-0.95
-0.975
-0.995
-0.995
-0.99
-0.98
-0.975
-0.965
-0.95
-0.96
-0.945
-0.92
-0.915
-0.92
-0.965
-1.005
-1.02
-1.025
-1.01
-0.98
-0.945
-0.93
-0.95
-1.015
-1.095
-1.155
-1.165
-1.11
-0.985
-0.84
-0.705
-0.54
-0.425
-0.345
-0.23
-0.075
0.13
0.355
0.59
0.765
0.89
0.84
0.545
0.03
-0.61
-1.24
-1.705
-1.97
-2.085
-2.15
-2.18
-2.23
-2.29
-2.335
-2.305
-2.255
-2.205
-2.195
-2.185
-2.185
-2.14
-2.05
-1.945
-1.79
-1.64
-1.47
-1.33
-1.205
-1.12
-1.05
-1.0
-0.98
-0.995
-1.015
-1.055
-1.06
-1.05
-1.015
-0.99
-0.96
-0.93
-0.915
-0.91
-0.935
-0.945
-0.955
-0.955
-0.945
-0.97
-0.99
-0.995
-0.985
-0.985
-0.99
-1.025
-1.11
-1.16
-1.2
-1.215
-1.165
-1.09
-1.055
-1.045
-1.085
-1.13
-1.185
-1.225
-1.25
-1.255
-1.23
-1.22
-1.205
-1.205
-1.185
-1.2
-1.185
-1.165
-1.13
-1.075
-1.055
-1.05
-1.07
-1.085
-1.09
-1.11
-1.11
-1.105
-1.115
-1.075
-1.045
-0.98
-0.955
-0.925
-0.89
-0.855
-0.835
-0.815
-0.845
-0.865
-0.9
-0.885
-0.86
-0.79
-0.76
-0.76
-0.785
-0.83
-0.86
-0.865
-0.83
-0.795
-0.76
-0.735
-0.705
-0.7
-0.745
-0.82
-0.87
-0.915
-0.95
-0.93
-0.895
-0.845
-0.815
-0.805
-0.815
-0.805
-0.805
-0.835
-0.84
-0.855
-0.825
-0.83
-0.845
-0.865
-0.875
-0.865
-0.845
-0.825
-0.83
-0.85
-0.89
-0.92
-0.925
-0.895
-0.84
-0.8
-0.82
-0.88
-0.93
-0.975
-0.975
-0.945
-0.9
-0.855
-0.825
-0.81
-0.845
-0.89
-0.9
-0.905
-0.9
-0.89
-0.865
-0.855
-0.855
-0.865
-0.845
-0.805
-0.825
-0.81
-0.845
-0.855
-0.865
-0.86
-0.84
-0.81
-0.77
-0.78
-0.785
-0.77
-0.755
-0.72
-0.655
-0.63
-0.6
-0.585
-0.615
-0.68
-0.71
-0.735
-0.715
-0.73
-0.755
-0.765
-0.75
-0.73
-0.735
-0.73
-0.75
-0.735
-0.705
-0.71
-0.72
-0.735
-0.815
-0.89
-0.93
-0.925
-0.885
-0.865
-0.87
-0.86
-0.855
-0.9
-0.895
-0.91
-0.91
-0.925
-0.975
-1.0
-0.98
-0.935
-0.91
-0.915
-0.95
-0.99
-1.03
-1.07
-1.075
-1.015
-0.975
-0.935
-0.9
-0.88
-0.89
-0.915
-0.97
-1.01
-1.035
-1.015
-0.955
-0.865
-0.715
-0.555
-0.405
-0.27
-0.21
-0.16
-0.13
-0.06
0.075
0.31
0.585
0.805
0.9
0.74
0.315
-0.26
-0.9
-1.425
-1.78
-1.955
-2.04
-2.07
-2.1
-2.165
-2.24
-2.275
-2.29
-2.26
-2.225
-2.185
-2.165
-2.16
-2.14
-2.14
-2.06
-1.94
-1.8
-1.66
-1.58
-1.45
-1.325
-1.19
-1.08
-1.03
-1.0
-1.0
-0.98
-0.965
-0.93
-0.87
-0.85
-0.86
-0.88
-0.925
-0.93
-0.925
-0.93
-0.93
-0.94
-0.915
-0.89
-0.89
-0.87
-0.86
-0.865
-0.85
-0.865
-0.9
-0.925
-0.98
-1.01
-1.035
-1.07
-1.08
-1.075
-1.07
-1.075
-1.105
-1.12
-1.135
-1.155
-1.16
-1.14
-1.12
-1.095
-1.11
-1.1
-1.135
-1.13
-1.085
-1.05
-1.055
-1.05
-1.035
-1.02
-1.015
-1.0
-0.98
-0.955
-0.945
-0.945
-0.925
-0.91
-0.9
-0.91
-0.935
-0.945
-0.925
-0.915
-0.865
-0.815
-0.745
-0.725
-0.72
-0.7
-0.71
-0.675
-0.665
-0.685
-0.72
-0.765
-0.755
-0.755
-0.735
-0.74
-0.78
-0.805
-0.81
-0.785
-0.785
-0.78
-0.79
-0.795
-0.815
-0.825
-0.83
-0.81
-0.78
-0.74
-0.73
-0.725
-0.76
-0.795
-0.83
-0.83
-0.815
-0.785
-0.73
-0.71
-0.72
-0.755
-0.83
-0.84
-0.85
-0.85
-0.835
-0.83
-0.8
-0.795
-0.765
-0.765
-0.81
-0.875
-0.925
-0.93
-0.89
-0.845
-0.825
-0.82
-0.81
-0.81
-0.83
-0.83
-0.82
-0.83
-0.81
-0.805
-0.835
-0.825
-0.805
-0.755
-0.685
-0.64
-0.675
-0.735
-0.855
-0.94
-0.995
-0.96
-0.915
-0.84
-0.785
-0.695
-0.62
-0.57
-0.555
-0.6
-0.66
-0.7
-0.72
-0.705
-0.695
-0.68
-0.63
-0.585
-0.56
-0.565
-0.57
-0.605
-0.635
-0.65
-0.68
-0.7
-0.695
-0.675
-0.68
-0.705
-0.725
-0.735
-0.69
-0.68
-0.68
-0.71
-0.745
-0.765
-0.775
-0.8
-0.805
-0.82
-0.855
-0.885
-0.905
-0.895
-0.855
-0.815
-0.8
-0.795
-0.835
-0.86
-0.91
-0.94
-0.97
-0.98
-0.98
-0.97
-0.955
-0.95
-0.94
-0.945
-0.95
-0.95
-0.945
-0.935
-0.91
-0.91
-0.945
-0.985
-1.03
-1.05
-1.065
-1.005
-0.895
-0.74
-0.565
-0.395
-0.245
-0.185
-0.18
-0.125
-0.005
0.18
0.43
0.69
0.855
0.8
0.485
-0.07
-0.71
-1.35
-1.83
-2.075
-2.175
-2.19
-2.2
-2.255
-2.3
-2.295
-2.275
-2.195
-2.155
-2.145
-2.185
-2.225
-2.25
-2.22
-2.145
-2.045
-1.92
-1.77
-1.595
-1.415
-1.25
-1.14
-1.045
-0.98
-0.96
-0.95
-0.96
-0.95
-0.94
-0.915
-0.905
-0.92
-0.93
-0.92
-0.895
-0.885
-0.88
-0.865
-0.855
-0.855
-0.865
-0.885
-0.875
-0.885
-0.905
-0.935
-0.945
-0.95
-0.93
-0.905
-0.885
-0.88
-0.895
-0.94
-1.005
-1.055
-1.07
-1.085
-1.075
-1.07
-1.05
-1.045
-1.05
-1.05
-1.06
-1.065
-1.09
-1.085
-1.065
-1.055
-1.045
-1.055
-1.04
-1.05
-1.03
-0.995
-0.965
-0.96
-0.95
-0.935
-0.94
-0.93
-0.925
-0.92
-0.88
-0.82
-0.785
-0.77
-0.745
-0.745
-0.745
-0.73
-0.73
-0.735
-0.715
-0.725
-0.7
-0.675
-0.655
-0.64
-0.685
-0.75
-0.8
-0.83
-0.8
-0.765
-0.74
-0.7
-0.695
-0.7
-0.74
-0.775
-0.8
-0.81
-0.79
-0.79
-0.785
-0.765
-0.765
-0.77
-0.79
-0.805
-0.81
-0.825
-0.815
-0.815
-0.815
-0.775
-0.745
-0.715
-0.705
-0.725
-0.75
-0.785
-0.79
-0.75
-0.73
-0.73
-0.78
-0.82
-0.835
-0.8
-0.775
-0.795
-0.81
-0.865
-0.895
-0.915
-0.915
-0.88
-0.845
-0.82
-0.805
-0.79
-0.795
-0.795
-0.79
-0.79
-0.795
-0.805
-0.815
-0.815
-0.795
-0.78
-0.755
-0.725
-0.725
-0.73
-0.765
-0.785
-0.805
-0.795
-0.765
-0.73
-0.73
-0.725
-0.73
-0.715
-0.685
-0.64
-0.615
-0.585
-0.565
-0.55
-0.535
-0.545
-0.54
-0.55
-0.555
-0.565
-0.58
-0.615
-0.67
-0.69
-0.725
-0.725
-0.72
-0.68
-0.665
-0.625
-0.605
-0.61
-0.615
-0.65
-0.7
-0.755
-0.765
-0.755
-0.74
-0.745
-0.795
-0.87
-0.925
-0.96
-0.955
-0.925
-0.89
-0.84
-0.845
-0.855
-0.895
-0.91
-0.915
-0.905
-0.89
-0.88
-0.815
-0.79
-0.795
-0.805
-0.845
-0.9
-0.94
-0.975
-0.98
-0.99
-1.015
-1.025
-1.005
-0.955
-0.88
-0.775
-0.615
-0.465
-0.335
-0.25
-0.17
-0.085
0.035
0.22
0.475
0.735
0.94
1.0
0.835
0.39
-0.23
-0.87
-1.51
-1.885
-2.08
-2.145
-2.18
-2.205
-2.265
-2.325
-2.385
-2.39
-2.365
-2.315
-2.27
-2.215
-2.165
-2.12
-2.095
-2.06
-2.015
-1.92
-1.765
-1.61
-1.43
-1.265
-1.13
-1.045
-0.965
-0.925
-0.89
-0.86
-0.86
-0.835
-0.835
-0.83
-0.84
-0.85
-0.81
-0.76
-0.745
-0.745
-0.77
-0.8
-0.83
-0.85
-0.845
-0.84
-0.855
-0.905
-0.96
-1.0
-0.99
-0.96
-0.97
-0.975
-0.99
-1.0
-1.01
-0.995
-0.93
-0.905
-0.93
-0.965
-1.015
-1.065
-1.085
-1.08
-1.055
-1.03
-1.005
-1.0
-1.02
-1.04
-1.08
-1.085
-1.075
-1.05
-1.02
-1.015
-1.02
-1.025
-1.015
-0.985
-0.95
-0.915
-0.875
-0.835
-0.81
-0.78
-0.725
-0.695
-0.685
-0.7
-0.69
-0.705
-0.745
-0.785
-0.79
-0.79
-0.76
-0.715
-0.68
-0.675
-0.705
-0.72
-0.73
-0.71
-0.7
-0.68
-0.685
-0.69
-0.705
-0.725
-0.755
-0.78
-0.795
-0.765
-0.735
-0.74
-0.755
-0.77
-0.77
-0.76
-0.72
-0.7
-0.71
-0.715
-0.745
-0.74
-0.76
-0.785
-0.81
-0.775
-0.76
-0.76
-0.77
-0.79
-0.815
-0.805
-0.79
-0.765
-0.76
-0.775
-0.79
-0.805
-0.815
-0.795
-0.785
-0.76
-0.735
-0.73
-0.725
-0.75
-0.805
-0.845
-0.88
-0.88
-0.85
-0.79
-0.75
-0.725
-0.72
-0.725
-0.73
-0.73
-0.74
-0.79
-0.83
-0.855
-0.85
-0.82
-0.765
-0.705
-0.685
-0.69
-0.73
-0.74
-0.725
-0.72
-0.695
-0.67
-0.64
-0.6
-0.575
-0.525
-0.49
-0.45
-0.445
-0.505
-0.56
-0.61
-0.685
-0.7
-0.695
-0.65
-0.62
-0.575
-0.555
-0.57
-0.585
-0.6
-0.62
-0.645
-0.71
-0.77
-0.81
-0.835
-0.815
-0.79
-0.75
-0.74
-0.755
-0.79
-0.85
-0.925
-0.96
-0.97
-0.945
-0.91
-0.88
-0.815
-0.81
-0.825
-0.86
-0.875
-0.86
-0.825
-0.815
-0.825
-0.84
-0.865
-0.865
-0.89
-0.865
-0.86
-0.87
-0.905
-0.955
-0.995
-1.0
-0.98
-0.895
-0.775
-0.63
-0.465
-0.305
-0.185
-0.15
-0.13
-0.07
0.1
0.38
0.675
0.9
0.985
0.8
0.33
-0.31
-0.95
-1.59
-2.07
-2.265
-2.315
-2.315
-2.285
-2.25
-2.23
-2.23
-2.235
-2.24
-2.225
-2.25
-2.18
-2.115
-2.04
-1.97
-1.88
-1.76
-1.6
-1.39
-1.215
-1.08
-0.965
-0.905
-0.87
-0.865
-0.88
-0.9
-0.9
-0.88
-0.865
-0.85
-0.85
-0.83
-0.785
-0.755
-0.71
-0.675
-0.68
-0.73
-0.825
-0.885
-0.94
-0.935
-0.915
-0.885
-0.815
-0.79
-0.82
-0.85
-0.91
-0.98
-1.035
-1.065
-1.05
-1.005
-0.97
-0.93
-0.915
-0.925
-0.955
-0.975
-0.985
-1.025
-1.055
-1.07
-1.065
-1.055
-1.03
-0.995
-0.95
-0.905
-0.9
-0.93
-0.975
-1.005
-0.99
-0.95
-0.9
-0.855
-0.81
-0.75
-0.73
-0.72
-0.755
-0.77
-0.8
-0.8
-0.76
-0.715
-0.67
-0.63
-0.65
-0.695
-0.725
-0.765
-0.755
-0.75
-0.725
-0.715
-0.69
-0.685
-0.66
-0.65
-0.66
-0.675
-0.665
-0.655
-0.625
-0.635
-0.63
-0.67
-0.685
-0.695
-0.685
-0.685
-0.705
-0.7
-0.71
-0.715
-0.7
-0.705
-0.72
-0.715
-0.705
-0.675
-0.675
-0.695
-0.735
-0.77
-0.755
-0.755
-0.735
-0.7
-0.665
-0.68
-0.705
-0.74
-0.765
-0.75
-0.725
-0.705
-0.71
-0.73
-0.765
-0.785
-0.815
-0.84
-0.84
-0.83
-0.78
-0.73
-0.7
-0.705
-0.685
-0.705
-0.715
-0.715
-0.725
-0.7
-0.69
-0.695
-0.695
-0.73
-0.755
-0.755
-0.74
-0.75
-0.75
-0.715
-0.685
-0.64
-0.615
-0.585
-0.55
-0.545
-0.525
-0.525
-0.525
-0.55
-0.55
-0.53
-0.52
-0.525
-0.55
-0.575
-0.62
-0.625
-0.645
-0.65
-0.64
-0.64
-0.635
-0.615
-0.575
-0.545
-0.515
-0.53
-0.545
-0.58
-0.655
-0.685
-0.705
-0.72
-0.74
-0.77
-0.79
-0.8
-0.79
-0.8
-0.82
-0.82
-0.795
-0.79
-0.745
-0.725
-0.76
-0.84
-0.925
-0.945
-0.96
-0.94
-0.86
-0.77
-0.745
-0.79
-0.82
-0.85
-0.89
-0.9
-0.915
-0.905
-0.895
-0.895
-0.925
-0.96
-0.99
-0.965
-0.875
-0.735
-0.54
-0.375
-0.255
-0.19
-0.17
-0.145
-0.045
0.15
0.41
0.705
0.955
1.045
0.925
0.55
-0.025
-0.665
-1.295
-1.74
-2.01
-2.11
-2.15
-2.16
-2.17
-2.2
-2.255
-2.285
-2.29
-2.28
-2.25
-2.22
-2.16
-2.08
-2.005
-1.925
-1.845
-1.745
-1.63
-1.495
-1.32
-1.16
-1.02
-0.91
-0.84
-0.855
-0.895
-0.915
-0.905
-0.855
-0.835
-0.825
-0.84
-0.84
-0.86
-0.88
-0.89
-0.875
-0.885
-0.89
-0.9
-0.935
-0.915
-0.9
-0.91
-0.9
-0.915
-0.95
-1.005
-1.045
-1.055
-1.035
-1.035
-1.045
-1.05
-1.04
-1.04
-1.015
-0.98
-0.985
-1.005
-1.05
-1.09
-1.11
-1.12
-1.13
-1.15
-1.135
-1.115
-1.075
-1.02
-0.975
-0.96
-0.975
-0.99
-0.965
-0.95
-0.925
-0.935
-0.95
-0.985
-0.995
-1.02
-1.02
-0.98
-0.925
-0.875
-0.835
-0.805
-0.805
-0.82
-0.835
-0.88
-0.89
-0.895
-0.885
-0.865
-0.82
-0.775
-0.75
-0.73
-0.715
-0.725
-0.725
-0.745
-0.76
-0.735
-0.715
-0.71
-0.745
-0.8
-0.835
-0.865
-0.865
-0.86
-0.84
-0.8
-0.755
-0.735
-0.75
-0.765
-0.79
-0.795
-0.785
-0.76
-0.71
-0.69
-0.72
-0.76
-0.775
-0.795
-0.78
-0.785
-0.76
-0.755
-0.735
-0.705
-0.69
-0.69
-0.735
-0.775
-0.8
-0.825
-0.85
-0.855
-0.82
-0.76
-0.745
-0.73
-0.77
-0.805
-0.85
-0.9
-0.96
-1.0
-1.025
-1.015
-0.96
-0.89
-0.84
-0.8
-0.795
-0.81
-0.865
-0.89
-0.9
-0.895
-0.9
-0.875
-0.88
-0.885
-0.905
-0.92
-0.945
-0.95
-0.945
-0.93
-0.935
-0.915
-0.9
-0.905
-0.905
-0.9
-0.91
-0.89
-0.865
-0.85
-0.85
-0.85
-0.855
-0.83
-0.84
-0.85
-0.84
-0.8
-0.79
-0.8
-0.835
-0.895
-0.905
-0.925
-0.935
-0.915
-0.895
-0.82
-0.71
-0.595
-0.48
-0.36
-0.265
-0.175
-0.095
0.02
0.19
0.44
0.73
0.975
1.1
1.03
0.71
0.17
-0.47
-1.11
-1.58
-1.875
-2.005
-2.045
-2.08
-2.105
-2.135
-2.145
-2.17
-2.175
-2.155
-2.13
-2.105
-2.05
-2.01
-2.0
-1.985
-1.93
-1.83
-1.68
-1.46
-1.245
-1.075
-0.985
-0.96
-0.96
-0.94
-0.9
-0.85
-0.795
-0.75
-0.735
-0.745
-0.785
-0.825
-0.87
-0.905
-0.925
-0.93
-0.91
-0.91
-0.895
-0.89
-0.885
-0.88
-0.895
-0.915
-0.94
-0.94
-0.95
-0.94
-0.95
-0.975
-0.995
-0.99
-0.975
-0.98
-0.985
-1.01
-1.025
-1.01
-1.015
-1.025
-1.035
-1.045
-1.065
-1.065
-1.065
-1.05
-1.06
-1.07
-1.07
-1.04
-1.02
-1.04
-1.045
-1.055
-1.06
-1.02
-0.975
-0.93
-0.905
-0.92
-0.925
-0.91
-0.865
-0.83
-0.78
-0.745
-0.74
-0.74
-0.765
-0.775
-0.775
-0.755
-0.75
-0.75
-0.765
-0.78
-0.79
-0.8
-0.815
-0.82
-0.825
-0.795
-0.76
-0.725
-0.695
-0.67
-0.645
-0.645
-0.69
-0.755
-0.805
-0.82
-0.835
-0.805
-0.775
-0.74
-0.71
-0.72
-0.75
-0.78
-0.805
-0.84
-0.86
-0.855
-0.835
-0.86
-0.87
-0.885
-0.865
-0.86
-0.815
-0.775
-0.735
-0.725
-0.735
-0.765
-0.79
-0.81
-0.775
-0.745
-0.715
-0.735
-0.74
-0.775
-0.815
-0.825
-0.82
-0.82
-0.815
-0.82
-0.81
-0.805
-0.82
-0.825
-0.81
-0.785
-0.75
-0.745
-0.77
-0.79
-0.795
-0.79
-0.775
-0.765
-0.765
-0.78
-0.795
-0.805
-0.835
-0.84
-0.85
-0.83
-0.8
-0.78
-0.785
-0.775
-0.785
-0.74
-0.715
-0.7
-0.705
-0.74
-0.77
-0.8
-0.835
-0.825
-0.81
-0.8
-0.795
-0.785
-0.755
-0.725
-0.68
-0.675
-0.645
-0.63
-0.645
-0.68
-0.7
-0.73
-0.755
-0.73
-0.7
-0.645
-0.605
-0.55
-0.52
-0.505
-0.495
-0.49
-0.485
-0.515
-0.56
-0.61
-0.655
-0.675
-0.68
-0.665
-0.645
-0.635
-0.625
-0.595
-0.575
-0.585
-0.605
-0.64
-0.665
-0.685
-0.675
-0.69
-0.715
-0.76
-0.79
-0.82
-0.84
-0.85
-0.845
-0.815
-0.81
-0.815
-0.83
-0.835
-0.83
-0.8
-0.745
-0.73
-0.74
-0.795
-0.86
-0.905
-0.92
-0.885
-0.865
-0.84
-0.845
-0.835
-0.875
-0.93
-0.96
-0.985
-1.005
-1.005
-0.975
-0.925
-0.85
-0.73
-0.57
-0.4
-0.23
-0.14
-0.105
-0.085
-0.1
-0.02
0.175
0.46
0.755
0.96
0.94
0.68
0.15
-0.49
-1.13
-1.63
-1.93
-2.035
-2.07
-2.09
-2.12
-2.155
-2.2
-2.225
-2.215
-2.2
-2.175
-2.145
-2.16
-2.145
-2.105
-2.065
-2.07
-2.055
-1.985
-1.89
-1.715
-1.52
-1.31
-1.175
-1.08
-1.01
-0.97
-0.94
-0.92
-0.9
-0.855
-0.845
-0.835
-0.79
-0.765
-0.74
-0.745
-0.735
-0.78
-0.81
-0.835
-0.835
-0.84
-0.825
-0.785
-0.77
-0.79
-0.85
-0.89
-0.92
-0.955
-0.97
-0.995
-1.005
-0.99
-0.98
-0.96
-0.945
-0.965
-0.94
-0.95
-0.95
-0.975
-1.01
-1.045
-1.055
-1.02
-1.01
-0.99
-0.97
-0.975
-1.0
-1.005
-0.97
-0.955
-0.96
-1.03
-1.085
-1.12
-1.105
-1.06
-0.985
-0.92
-0.875
-0.86
-0.865
-0.885
-0.89
-0.87
-0.85
-0.805
-0.775
-0.725
-0.7
-0.67
-0.68
-0.675
-0.675
-0.665
-0.665
-0.665
-0.64
-0.615
-0.61
-0.6
-0.63
-0.65
-0.695
-0.72
-0.73
-0.735
-0.73
-0.745
-0.725
-0.68
-0.66
-0.685
-0.695
-0.715
-0.73
-0.71
-0.7
-0.68
-0.665
-0.66
-0.685
-0.69
-0.71
-0.705
-0.68
-0.665
-0.64
-0.645
-0.645
-0.68
-0.725
-0.77
-0.785
-0.785
-0.75
-0.715
-0.655
-0.6
-0.565
-0.605
-0.685
-0.79
-0.83
-0.855
-0.83
-0.765
-0.71
-0.665
-0.645
-0.655
-0.665
-0.71
-0.76
-0.8
-0.83
-0.83
-0.8
-0.76
-0.74
-0.74
-0.74
-0.745
-0.74
-0.73
-0.7
-0.655
-0.62
-0.61
-0.665
-0.705
-0.75
-0.75
-0.725
-0.7
-0.68
-0.635
-0.62
-0.61
-0.585
-0.55
-0.51
-0.455
-0.45
-0.45
-0.455
-0.45
-0.455
-0.475
-0.495
-0.54
-0.61
-0.65
-0.665
-0.69
-0.665
-0.645
-0.62
-0.6
-0.615
-0.63
-0.64
-0.655
-0.62
-0.625
-0.67
-0.745
-0.825
-0.875
-0.865
-0.82
-0.77
-0.745
-0.74
-0.745
-0.775
-0.835
-0.865
-0.87
-0.85
-0.815
-0.795
-0.765
-0.745
-0.74
-0.765
-0.81
-0.84
-0.855
-0.84
-0.81
-0.81
-0.81
-0.83
-0.815
-0.83
-0.875
-0.87
-0.845
-0.79
-0.705
-0.59
-0.44
-0.29
-0.175
-0.115
-0.065
0.03
0.24
0.54
0.85
1.035
1.055
0.775
0.23
-0.41
-1.05
-1.68
-1.98
-2.115
-2.16
-2.175
-2.18
-2.175
-2.195
-2.19
-2.16
-2.145
-2.115
-2.08
-2.015
-1.95
-1.925
-1.9
-1.885
-1.81
-1.66
-1.48
-1.26
-1.065
-0.905
-0.805
-0.785
-0.82
-0.885
-0.91
-0.925
-0.92
-0.86
-0.825
-0.775
-0.705
-0.69
-0.695
-0.71
-0.725
-0.75
-0.79
-0.825
-0.84
-0.835
-0.835
-0.835
-0.825
-0.82
-0.805
-0.8
-0.79
-0.815
-0.835
-0.87
-0.905
-0.945
-0.96
-0.995
-0.98
-0.965
-0.935
-0.89
-0.87
-0.875
-0.9
-0.93
-0.96
-1.0
-1.065
-1.135
-1.18
-1.175
-1.155
-1.085
-1.04
-0.99
-0.955
-0.945
-0.955
-0.925
-0.905
-0.875
-0.845
-0.81
-0.765
-0.725
-0.71
-0.73
-0.755
-0.78
-0.775
-0.74
-0.685
-0.655
-0.67
-0.7
-0.73
-0.74
-0.705
-0.68
-0.685
-0.705
-0.73
-0.755
-0.74
-0.715
-0.67
-0.64
-0.625
-0.605
-0.625
-0.63
-0.655
-0.665
-0.665
-0.66
-0.655
-0.65
-0.66
-0.67
-0.71
-0.73
-0.715
-0.715
-0.69
-0.68
-0.675
-0.705
-0.75
-0.765
-0.785
-0.77
-0.755
-0.695
-0.645
-0.605
-0.59
-0.61
-0.645
-0.705
-0.755
-0.78
-0.795
-0.815
-0.77
-0.74
-0.67
-0.64
-0.665
-0.71
-0.72
-0.775
-0.815
-0.825
-0.82
-0.79
-0.73
-0.68
-0.635
-0.63
-0.66
-0.71
-0.725
-0.745
-0.75
-0.745
-0.745
-0.745
-0.74
-0.745
-0.705
-0.675
-0.63
-0.585
-0.585
-0.63
-0.67
-0.695
-0.71
-0.725
-0.725
-0.715
-0.695
-0.68
-0.665
-0.63
-0.59
-0.52
-0.485
-0.45
-0.475
-0.525
-0.55
-0.56
-0.59
-0.605
-0.6
-0.62
-0.61
-0.595
-0.57
-0.565
-0.54
-0.505
-0.485
-0.455
-0.485
-0.525
-0.6
-0.69
-0.74
-0.77
-0.76
-0.74
-0.725
-0.75
-0.79
-0.81
-0.8
-0.78
-0.78
-0.79
-0.775
-0.795
-0.78
-0.805
-0.815
-0.84
-0.86
-0.855
-0.855
-0.825
-0.805
-0.795
-0.805
-0.81
-0.835
-0.85
-0.88
-0.875
-0.865
-0.855
-0.84
-0.855
-0.88
-0.905
-0.9
-0.84
-0.765
-0.65
-0.5
-0.35
-0.245
-0.165
-0.09
-0.005
0.145
0.38
0.65
0.895
1.025
0.94
0.59
0.03
-0.61
-1.245
-1.7
-1.965
-2.055
-2.055
-2.035
-2.025
-2.07
-2.12
-2.185
-2.185
-2.17
-2.16
-2.16
-2.18
-2.16
-2.15
-2.1
-2.005
-1.89
-1.735
-1.565
-1.36
-1.17
-1.015
-0.945
-0.905
-0.885
-0.89
-0.88
-0.855
-0.86
-0.86
-0.865
-0.87
-0.87
-0.855
-0.83
-0.84
-0.82
-0.83
-0.83
-0.825
-0.82
-0.8
-0.82
-0.85
-0.885
-0.88
-0.905
-0.915
-0.935
-0.925
-0.92
-0.94
-0.935
-0.94
-0.955
-0.975
-1.0
-1.03
-1.045
-1.06
-1.055
-1.05
-1.045
-1.075
-1.09
-1.1
-1.105
-1.085
-1.055
-1.03
-1.015
-1.03
-1.035
-1.025
-1.015
-0.965
-0.905
-0.855
-0.84
-0.84
-0.84
-0.845
-0.85
-0.85
-0.85
-0.84
-0.825
-0.81
-0.795
-0.79
-0.795
-0.81
-0.795
-0.76
-0.71
-0.695
-0.685
-0.68
-0.72
-0.76
-0.775
-0.74
-0.74
-0.715
-0.7
-0.69
-0.68
-0.665
-0.66
-0.635
-0.63
-0.66
-0.68
-0.71
-0.71
-0.705
-0.69
-0.7
-0.715
-0.755
-0.765
-0.79
-0.8
-0.8
-0.8
-0.795
-0.805
-0.805
-0.82
-0.76
-0.715
-0.67
-0.645
-0.62
-0.595
-0.605
-0.62
-0.625
-0.635
-0.645
-0.69
-0.745
-0.785
-0.81
-0.82
-0.83
-0.845
-0.83
-0.795
-0.75
-0.715
-0.665
-0.665
-0.7
-0.755
-0.805
-0.805
-0.805
-0.8
-0.815
-0.775
-0.745
-0.71
-0.67
-0.675
-0.675
-0.69
-0.665
-0.635
-0.625
-0.59
-0.6
-0.605
-0.615
-0.625
-0.6
-0.575
-0.515
-0.47
-0.47
-0.485
-0.495
-0.485
-0.51
-0.56
-0.64
-0.695
-0.705
-0.69
-0.67
-0.615
-0.565
-0.535
-0.51
-0.52
-0.575
-0.62
-0.69
-0.755
-0.775
-0.79
-0.765
-0.765
-0.74
-0.715
-0.665
-0.61
-0.6
-0.645
-0.705
-0.785
-0.885
-0.955
-0.985
-0.965
-0.915
-0.865
-0.83
-0.81
-0.79
-0.805
-0.8
-0.78
-0.765
-0.77
-0.77
-0.76
-0.76
-0.755
-0.76
-0.77
-0.735
-0.64
-0.48
-0.325
-0.175
-0.09
-0.09
-0.1
-0.09
0.025
0.24
0.53
0.825
1.01
0.955
0.6
-0.015
-0.655
-1.295
-1.785
-1.99
-2.035
-1.99
-1.95
-1.935
-1.965
-2.03
-2.08
-2.12
-2.14
-2.135
-2.13
-2.08
-2.015
-1.98
-1.925
-1.865
-1.73
-1.57
-1.38
-1.215
-1.09
-0.975
-0.905
-0.84
-0.805
-0.795
-0.815
-0.79
-0.75
-0.71
-0.69
-0.66
-0.66
-0.685
-0.69
-0.715
-0.705
-0.685
-0.66
-0.67
-0.69
-0.755
-0.765
-0.74
-0.745
-0.78
-0.81
-0.835
-0.87
-0.86
-0.865
-0.855
-0.835
-0.82
-0.815
-0.84
-0.89
-0.925
-0.925
-0.93
-0.89
-0.885
-0.9
-0.92
-0.945
-0.92
-0.925
-0.945
-0.915
-0.89
-0.845
-0.81
-0.76
-0.72
-0.68
-0.665
-0.64
-0.64
-0.63
-0.615
-0.6
-0.6
-0.59
-0.59
-0.54
-0.49
-0.46
-0.435
-0.425
-0.45
-0.48
-0.52
-0.565
-0.58
-0.585
-0.62
-0.65
-0.65
-0.635
-0.615
-0.575
-0.585
-0.59
-0.595
-0.605
-0.61
-0.605
-0.6
-0.595
-0.625
-0.67
-0.725
-0.72
-0.75
-0.745
-0.73
-0.685
-0.645
-0.605
-0.605
-0.6
-0.605
-0.63
-0.63
-0.645
-0.66
-0.65
-0.69
-0.74
-0.795
-0.83
-0.83
-0.8
-0.765
-0.75
-0.75
-0.785
-0.835
-0.86
-0.85
-0.81
-0.75
-0.73
-0.725
-0.735
-0.755
-0.765
-0.765
-0.76
-0.735
-0.74
-0.75
-0.745
-0.745
-0.695
-0.665
-0.665
-0.69
-0.71
-0.715
-0.69
-0.675
-0.64
-0.665
-0.72
-0.785
-0.79
-0.78
-0.795
-0.78
-0.775
-0.75
-0.735
-0.76
-0.805
-0.86
-0.895
-0.905
-0.875
-0.84
-0.775
-0.695
-0.58
-0.46
-0.34
-0.25
-0.2
-0.13
0.015
0.23
0.515
0.83
1.13
1.275
1.23
0.945
0.42
-0.22
-0.86
-1.39
-1.675
-1.78
-1.82
-1.845
-1.895
-1.965
-2.02
-2.045
-2.035
-1.995
-1.97
-1.93
-1.915
-1.89
-1.87
-1.835
-1.75
-1.625
-1.455
-1.29
-1.11
-1.005
-0.92
-0.885
-0.825
-0.78
-0.725
-0.685
-0.64
-0.62
-0.61
-0.61
-0.615
-0.685
-0.75
-0.77
-0.77
-0.74
-0.7
-0.69
-0.71
-0.71
-0.74
-0.76
-0.795
-0.81
-0.805
-0.785
-0.78
-0.825
-0.84
-0.845
-0.85
-0.865
-0.875
-0.89
-0.89
-0.875
-0.845
-0.82
-0.81
-0.84
-0.855
-0.88
-0.895
-0.915
-0.945
-0.95
-0.95
-0.945
-0.96
-0.96
-0.96
-0.965
-0.94
-0.93
-0.91
-0.885
-0.87
-0.89
-0.905
-0.905
-0.86
-0.81
-0.735
-0.695
-0.675
-0.665
-0.68
-0.67
-0.69
-0.685
-0.635
-0.605
-0.6
-0.625
-0.66
-0.705
-0.695
-0.7
-0.68
-0.665
-0.665
-0.645
-0.635
-0.62
-0.645
-0.615
-0.605
-0.565
-0.535
-0.535
-0.575
-0.62
-0.69
-0.74
-0.78
-0.79
-0.73
-0.65
-0.575
-0.545
-0.565
-0.655
-0.74
-0.815
-0.83
-0.825
-0.78
-0.735
-0.685
-0.65
-0.635
-0.6
-0.555
-0.545
-0.55
-0.605
-0.68
-0.77
-0.845
-0.88
-0.855
-0.785
-0.71
-0.64
-0.61
-0.61
-0.625
-0.65
-0.665
-0.675
-0.69
-0.715
-0.75
-0.735
-0.705
-0.625
-0.58
-0.555
-0.56
-0.62
-0.72
-0.78
-0.82
-0.84
-0.82
-0.79
-0.725
-0.63
-0.575
-0.57
-0.605
-0.665
-0.73
-0.765
-0.76
-0.74
-0.71
-0.685
-0.69
-0.685
-0.675
-0.66
-0.645
-0.645
-0.665
-0.675
-0.695
-0.72
-0.685
-0.655
-0.595
-0.57
-0.55
-0.565
-0.555
-0.56
-0.58
-0.645
-0.69
-0.73
-0.71
-0.645
-0.57
-0.505
-0.435
-0.405
-0.4
-0.435
-0.495
-0.535
-0.58
-0.59
-0.585
-0.555
-0.55
-0.555
-0.555
-0.57
-0.59
-0.585
-0.55
-0.505
-0.5
-0.525
-0.565
-0.6
-0.635
-0.62
-0.63
-0.64
-0.645
-0.645
-0.645
-0.665
-0.7
-0.77
-0.8
-0.835
-0.845
-0.835
-0.815
-0.795
-0.75
-0.715
-0.71
-0.77
-0.815
-0.875
-0.88
-0.87
-0.83
-0.795
-0.75
-0.715
-0.715
-0.71
-0.755
-0.81
-0.865
-0.92
-0.955
-0.955
-0.9
-0.78
-0.63
-0.475
-0.3
-0.145
-0.05
-0.005
-0.035
-0.03
0.025
0.215
0.495
0.795
1.03
1.08
0.925
0.52
-0.045
-0.655
-1.19
-1.595
-1.85
-1.97
-2.025
-2.035
-2.04
-2.065
-2.085
-2.08
-2.085
-2.085
-2.08
-2.065
-2.045
-2.04
-1.995
-1.91
-1.745
-1.55
-1.355
-1.185
-1.06
-0.97
-0.89
-0.83
-0.82
-0.81
-0.785
-0.76
-0.76
-0.81
-0.835
-0.855
-0.85
-0.835
-0.805
-0.79
-0.785
-0.785
-0.765
-0.74
-0.69
-0.685
-0.715
-0.785
-0.855
-0.905
-0.91
-0.88
-0.82
-0.795
-0.8
-0.84
-0.865
-0.895
-0.885
-0.895
-0.895
-0.91
-0.96
-1.0
-1.025
-1.015
-0.975
-0.95
-0.925
-0.95
-0.99
-1.02
-1.025
-1.015
-1.01
-0.965
-0.95
-0.935
-0.905
-0.845
-0.81
-0.825
-0.855
-0.87
-0.885
-0.87
-0.865
-0.865
-0.825
-0.785
-0.745
-0.72
-0.68
-0.65
-0.625
-0.605
-0.6
-0.605
-0.65
-0.68
-0.69
-0.68
-0.645
-0.63
-0.615
-0.6
-0.59
-0.605
-0.615
-0.625
-0.62
-0.635
-0.615
-0.62
-0.63
-0.63
-0.615
-0.615
-0.575
-0.545
-0.52
-0.545
-0.59
-0.64
-0.66
-0.675
-0.66
-0.62
-0.555
-0.52
-0.52
-0.575
-0.59
-0.65
-0.685
-0.705
-0.71
-0.705
-0.67
-0.63
-0.595
-0.585
-0.57
-0.56
-0.575
-0.605
-0.63
-0.65
-0.65
-0.645
-0.66
-0.67
-0.695
-0.695
-0.71
-0.72
-0.725
-0.735
-0.71
-0.665
-0.61
-0.565
-0.545
-0.58
-0.615
-0.68
-0.73
-0.75
-0.74
-0.725
-0.705
-0.695
-0.665
-0.65
-0.62
-0.595
-0.585
-0.58
-0.58
-0.575
-0.565
-0.565
-0.58
-0.59
-0.605
-0.62
-0.65
-0.655
-0.635
-0.585
-0.52
-0.445
-0.4
