Lead II
-0.45
-0.43
-0.405
-0.395
-0.4
-0.4
-0.4
-0.375
-0.36
-0.365
-0.355
-0.365
-0.335
-0.33
-0.325
-0.34
-0.345
-0.335
-0.27
-0.15
-0.04
-0.09
-0.255
-0.35
-0.37
-0.425
-0.48
-0.485
-0.425
-0.37
-0.32
-0.305
-0.255
-0.195
-0.15
-0.18
-0.28
-0.43
-0.505
-0.495
-0.435
-0.405
-0.4
-0.39
-0.395
-0.4
-0.44
-0.425
-0.4
-0.365
-0.355
-0.36
-0.375
-0.385
-0.395
-0.405
-0.4
-0.38
-0.375
-0.34
-0.315
-0.385
-0.515
-0.62
-0.65
-0.6
-0.53
-0.515
-0.51
-0.49
-0.465
-0.44
-0.415
-0.39
-0.415
-0.505
-0.575
-0.535
-0.44
-0.4
-0.445
-0.575
-0.635
-0.69
-0.69
-0.67
-0.63
-0.555
-0.44
-0.31
-0.185
-0.02
0.19
0.44
0.665
0.75
0.625
0.38
0.09
-0.255
-0.67
-1.045
-1.26
-1.3
-1.28
-1.245
-1.17
-1.03
-0.91
-0.845
-0.85
-0.86
-0.85
-0.78
-0.69
-0.605
-0.53
-0.515
-0.525
-0.59
-0.685
-0.72
-0.685
-0.635
-0.61
-0.55
-0.515
-0.485
-0.455
-0.46
-0.46
-0.475
-0.435
-0.425
-0.455
-0.445
-0.45
-0.41
-0.315
-0.24
-0.295
-0.465
-0.56
-0.53
-0.415
-0.36
-0.395
-0.44
-0.42
-0.385
-0.345
-0.3
-0.27
-0.26
-0.225
-0.205
-0.2
-0.22
-0.28
-0.36
-0.375
-0.265
-0.165
-0.115
-0.085
-0.07
-0.06
-0.045
0.0
0.035
0.02
0.0
-0.015
0.01
0.03
0.035
0.045
0.08
0.145
0.245
0.36
0.42
0.365
0.285
0.225
0.155
0.105
0.055
-0.015
-0.1
-0.18
-0.245
-0.29
-0.34
-0.385
-0.415
-0.415
-0.415
-0.415
-0.405
-0.41
-0.41
-0.445
-0.51
-0.53
-0.49
-0.44
-0.43
-0.485
-0.575
-0.555
-0.45
-0.395
-0.455
-0.57
-0.64
-0.6
-0.485
-0.455
-0.585
-0.76
-0.81
-0.745
-0.645
-0.62
-0.655
-0.67
-0.675
-0.645
-0.62
-0.62
-0.625
-0.65
-0.65
-0.63
-0.6
-0.585
-0.58
-0.55
-0.53
-0.44
-0.32
-0.2
-0.225
-0.4
-0.595
-0.715
-0.69
-0.605
-0.57
-0.585
-0.59
-0.52
-0.45
-0.415
-0.42
-0.425
-0.405
-0.385
-0.365
-0.355
-0.36
-0.37
-0.385
-0.365
-0.3
-0.31
-0.445
-0.56
-0.55
-0.475
-0.45
-0.465
-0.45
-0.41
-0.405
-0.415
-0.475
-0.49
-0.46
-0.46
-0.5
-0.52
-0.555
-0.555
-0.555
-0.55
-0.535
-0.515
-0.485
-0.48
-0.48
-0.485
-0.485
-0.475
-0.46
-0.45
-0.505
-0.525
-0.55
-0.545
-0.515
-0.525
-0.525
-0.55
-0.535
-0.47
-0.435
-0.53
-0.66
-0.71
-0.675
-0.61
-0.505
-0.395
-0.27
-0.1
0.11
0.365
0.625
0.805
0.875
0.78
0.58
0.295
-0.015
-0.415
-0.835
-1.1
-1.15
-1.115
-1.05
-0.965
-0.85
-0.75
-0.68
-0.65
-0.645
-0.66
-0.675
-0.645
-0.57
-0.475
-0.355
-0.37
-0.505
-0.655
-0.725
-0.72
-0.72
-0.71
-0.675
-0.66
-0.64
-0.615
-0.6
-0.585
-0.575
-0.565
-0.53
-0.52
-0.5
-0.5
-0.5
-0.51
-0.51
-0.5
-0.485
-0.495
-0.5
-0.505
-0.495
-0.49
-0.47
-0.45
-0.445
-0.445
-0.435
-0.44
-0.41
-0.4
-0.39
-0.375
-0.35
-0.315
-0.27
-0.235
-0.245
-0.3
-0.345
-0.33
-0.33
-0.29
-0.285
-0.285
-0.275
-0.27
-0.27
-0.255
-0.245
-0.25
-0.24
-0.235
-0.205
-0.225
-0.245
-0.255
-0.245
-0.225
-0.23
-0.235
-0.265
-0.285
-0.29
-0.295
-0.29
-0.28
-0.305
-0.35
-0.355
-0.375
-0.365
-0.37
-0.39
-0.41
-0.43
-0.435
-0.405
-0.4
-0.415
-0.43
-0.455
-0.45
-0.455
-0.44
-0.44
-0.445
-0.435
-0.415
-0.425
-0.465
-0.495
-0.495
-0.465
-0.46
-0.445
-0.445
-0.445
-0.455
-0.48
-0.485
-0.47
-0.455
-0.45
-0.45
-0.47
-0.45
-0.455
-0.455
-0.455
-0.475
-0.485
-0.48
-0.495
-0.48
-0.48
-0.48
-0.475
-0.46
-0.435
-0.425
-0.435
-0.43
-0.425
-0.42
-0.42
-0.42
-0.415
-0.42
-0.42
-0.385
-0.355
-0.33
-0.36
-0.365
-0.36
-0.355
-0.36
-0.36
-0.365
-0.365
-0.365
-0.35
-0.355
-0.355
-0.34
-0.345
-0.35
-0.325
-0.3
-0.305
-0.33
-0.35
-0.345
-0.325
-0.32
-0.345
-0.35
-0.35
-0.36
-0.36
-0.365
-0.37
-0.4
-0.43
-0.44
-0.45
-0.435
-0.43
-0.435
-0.445
-0.47
-0.46
-0.455
-0.445
-0.435
-0.425
-0.415
-0.41
-0.42
-0.43
-0.425
-0.415
-0.42
-0.435
-0.44
-0.45
-0.465
-0.49
-0.475
-0.39
-0.275
-0.11
0.085
0.32
0.59
0.885
1.105
1.21
1.12
0.805
0.385
-0.125
-0.62
-0.91
-0.95
-0.87
-0.785
-0.675
-0.57
-0.465
-0.425
-0.41
-0.4
-0.395
-0.38
-0.375
-0.355
-0.365
-0.375
-0.375
-0.38
-0.365
-0.37
-0.375
-0.39
-0.36
-0.335
-0.345
-0.36
-0.37
-0.36
-0.34
-0.32
-0.3
-0.305
-0.34
-0.35
-0.35
-0.32
-0.295
-0.285
-0.295
-0.295
-0.28
-0.26
-0.255
-0.24
-0.235
-0.22
-0.2
-0.185
-0.19
-0.18
-0.195
-0.18
-0.16
-0.145
-0.11
-0.105
-0.1
-0.11
-0.09
-0.085
-0.075
-0.07
-0.07
-0.08
-0.06
-0.035
-0.03
-0.025
-0.005
0.0
0.02
0.03
0.03
0.02
0.01
0.01
0.01
0.02
0.015
0.02
0.015
0.03
0.025
0.0
-0.015
-0.03
-0.055
-0.06
-0.06
-0.08
-0.1
-0.12
-0.15
-0.17
-0.175
-0.19
-0.195
-0.205
-0.22
-0.24
-0.23
-0.225
-0.225
-0.24
-0.265
-0.28
-0.27
-0.255
-0.25
-0.275
-0.27
-0.27
-0.27
-0.275
-0.27
-0.26
-0.26
-0.265
-0.26
-0.235
-0.25
-0.27
-0.28
-0.275
-0.25
-0.25
-0.255
-0.26
-0.265
-0.275
-0.25
-0.24
-0.255
-0.265
-0.29
-0.29
-0.275
-0.255
-0.255
-0.25
-0.27
-0.28
-0.295
-0.285
-0.285
-0.275
-0.265
-0.275
-0.265
-0.235
-0.21
-0.22
-0.24
-0.25
-0.215
-0.195
-0.175
-0.18
-0.225
-0.22
-0.215
-0.23
-0.22
-0.22
-0.205
-0.21
-0.195
-0.19
-0.19
-0.2
-0.225
-0.245
-0.25
-0.245
-0.255
-0.24
-0.245
-0.25
-0.25
-0.25
-0.245
-0.26
-0.285
-0.295
-0.28
-0.295
-0.32
-0.35
-0.355
-0.355
-0.335
-0.345
-0.355
-0.355
-0.36
-0.38
-0.365
-0.335
-0.32
-0.34
-0.355
-0.365
-0.345
-0.31
-0.305
-0.35
-0.385
-0.395
-0.405
-0.39
-0.385
-0.355
-0.29
-0.15
0.015
0.23
0.455
0.715
0.93
1.075
1.09
0.9
0.54
0.115
-0.35
-0.765
-0.93
-0.885
-0.755
-0.635
-0.56
-0.505
-0.445
-0.42
-0.405
-0.4
-0.42
-0.45
-0.415
-0.395
-0.38
-0.39
-0.395
-0.39
-0.385
-0.37
-0.335
-0.33
-0.3
-0.285
-0.285
-0.29
-0.325
-0.36
-0.415
-0.42
-0.37
-0.33
-0.34
-0.39
-0.425
-0.42
-0.39
-0.35
-0.34
-0.34
-0.35
-0.35
-0.315
-0.295
-0.275
-0.29
-0.305
-0.29
-0.24
-0.195
-0.17
-0.16
-0.16
-0.165
-0.195
-0.18
-0.11
-0.07
-0.085
-0.105
-0.085
-0.04
-0.025
-0.045
-0.105
-0.17
-0.165
-0.105
-0.065
-0.05
-0.06
-0.075
-0.05
-0.015
-0.015
-0.015
-0.04
-0.06
-0.06
-0.06
-0.03
-0.04
-0.065
-0.1
-0.105
-0.105
-0.1
-0.105
-0.155
-0.195
-0.225
-0.23
-0.235
-0.25
-0.255
-0.26
-0.255
-0.28
-0.295
-0.32
-0.33
-0.32
-0.31
-0.33
-0.325
-0.315
-0.305
-0.335
-0.335
-0.35
-0.35
-0.34
-0.34
-0.335
-0.35
-0.345
-0.345
-0.335
-0.34
-0.335
-0.34
-0.305
-0.31
-0.33
-0.35
-0.375
-0.365
-0.34
-0.335
-0.34
-0.35
-0.36
-0.36
-0.355
-0.355
-0.36
-0.35
-0.34
-0.325
-0.33
-0.34
-0.345
-0.35
-0.35
-0.365
-0.36
-0.345
-0.335
-0.34
-0.35
-0.315
-0.265
-0.25
-0.27
-0.305
-0.295
-0.275
-0.255
-0.235
-0.265
-0.295
-0.295
-0.275
-0.245
-0.24
-0.255
-0.275
-0.315
-0.31
-0.305
-0.31
-0.33
-0.35
-0.34
-0.31
-0.285
-0.335
-0.37
-0.4
-0.39
-0.375
-0.365
-0.36
-0.375
-0.39
-0.405
-0.4
-0.4
-0.415
-0.4
-0.405
-0.41
-0.43
-0.415
-0.395
-0.415
-0.415
-0.42
-0.42
-0.43
-0.435
-0.445
-0.445
-0.415
-0.39
-0.395
-0.415
-0.445
-0.465
-0.485
-0.495
-0.48
-0.46
-0.425
-0.35
-0.195
-0.01
0.195
0.425
0.645
0.835
0.905
0.79
0.58
0.285
-0.09
-0.52
-0.865
-0.98
-0.95
-0.89
-0.83
-0.74
-0.65
-0.55
-0.49
-0.475
-0.515
-0.52
-0.515
-0.47
-0.455
-0.47
-0.48
-0.49
-0.49
-0.47
-0.455
-0.455
-0.455
-0.46
-0.45
-0.46
-0.455
-0.45
-0.455
-0.46
-0.47
-0.46
-0.43
-0.42
-0.385
-0.36
-0.36
-0.375
-0.375
-0.375
-0.385
-0.395
-0.395
-0.375
-0.35
-0.35
-0.355
-0.365
-0.345
-0.295
-0.28
-0.305
-0.345
-0.345
-0.3
-0.26
-0.23
-0.235
-0.24
-0.23
-0.225
-0.22
-0.205
-0.185
-0.17
-0.17
-0.155
-0.135
-0.125
-0.13
-0.155
-0.17
-0.175
-0.155
-0.145
-0.11
-0.11
-0.11
-0.13
-0.1
-0.115
-0.12
-0.13
-0.155
-0.18
-0.175
-0.165
-0.18
-0.205
-0.26
-0.29
-0.31
-0.325
-0.34
-0.345
-0.34
-0.34
-0.335
-0.335
-0.325
-0.37
-0.4
-0.405
-0.395
-0.365
-0.345
-0.36
-0.4
-0.415
-0.41
-0.4
-0.41
-0.415
-0.42
-0.405
-0.365
-0.355
-0.37
-0.4
-0.42
-0.425
-0.4
-0.405
-0.41
-0.415
-0.41
-0.385
-0.35
-0.355
-0.37
-0.37
-0.385
-0.375
-0.365
-0.365
-0.385
-0.395
-0.39
-0.4
-0.395
-0.37
-0.365
-0.375
-0.37
-0.365
-0.36
-0.35
-0.355
-0.35
-0.35
-0.34
-0.33
-0.31
-0.295
-0.305
-0.315
-0.305
-0.285
-0.275
-0.27
-0.3
-0.32
-0.33
-0.32
-0.3
-0.295
-0.31
-0.31
-0.305
-0.28
-0.26
-0.26
-0.295
-0.315
-0.315
-0.31
-0.33
-0.335
-0.345
-0.36
-0.37
-0.345
-0.32
-0.325
-0.325
-0.355
-0.36
-0.36
-0.37
-0.395
-0.42
-0.43
-0.43
-0.435
-0.415
-0.415
-0.42
-0.435
-0.435
-0.43
-0.415
-0.4
-0.4
-0.43
-0.425
-0.4
-0.385
-0.39
-0.39
-0.42
-0.44
-0.455
-0.44
-0.435
-0.41
-0.35
-0.225
-0.04
0.205
0.435
0.665
0.85
0.935
0.85
0.615
0.27
-0.175
-0.63
-0.925
-0.96
-0.885
-0.795
-0.68
-0.585
-0.505
-0.465
-0.44
-0.435
-0.425
-0.415
-0.415
-0.395
-0.39
-0.415
-0.425
-0.415
-0.41
-0.385
-0.375
-0.395
-0.395
-0.4
-0.39
-0.37
-0.36
-0.365
-0.385
-0.4
-0.38
-0.36
-0.36
-0.36
-0.37
-0.37
-0.36
-0.335
-0.315
-0.32
-0.34
-0.34
-0.31
-0.285
-0.265
-0.25
-0.27
-0.24
-0.235
-0.215
-0.215
-0.225
-0.215
-0.22
-0.195
-0.155
-0.125
-0.13
-0.145
-0.13
-0.11
-0.085
-0.075
-0.055
-0.05
-0.07
-0.065
-0.06
-0.04
-0.04
-0.05
-0.07
-0.075
-0.065
-0.035
-0.025
-0.025
-0.05
-0.08
-0.085
-0.08
-0.085
-0.125
-0.15
-0.145
-0.155
-0.16
-0.17
-0.195
-0.2
-0.22
-0.23
-0.235
-0.245
-0.27
-0.29
-0.28
-0.275
-0.265
-0.28
-0.265
-0.28
-0.28
-0.265
-0.255
-0.255
-0.295
-0.33
-0.34
-0.32
-0.31
-0.3
-0.32
-0.335
-0.32
-0.305
-0.29
-0.275
-0.28
-0.29
-0.285
-0.27
-0.255
-0.265
-0.28
-0.295
-0.31
-0.295
-0.285
-0.28
-0.275
-0.285
-0.28
-0.26
-0.25
-0.255
-0.275
-0.3
-0.305
-0.285
-0.255
-0.25
-0.255
-0.255
-0.255
-0.22
-0.2
-0.175
-0.18
-0.205
-0.22
-0.205
-0.19
-0.175
-0.185
-0.195
-0.205
-0.21
-0.205
-0.205
-0.21
-0.215
-0.225
-0.235
-0.215
-0.195
-0.205
-0.235
-0.27
-0.265
-0.26
-0.25
-0.24
-0.245
-0.265
-0.235
-0.235
-0.235
-0.25
-0.27
-0.29
-0.305
-0.295
-0.3
-0.315
-0.325
-0.32
-0.31
-0.305
-0.3
-0.325
-0.32
-0.33
-0.315
-0.32
-0.305
-0.32
-0.33
-0.325
-0.305
-0.295
-0.325
-0.37
-0.405
-0.375
-0.31
-0.215
-0.08
0.085
0.305
0.545
0.81
1.01
1.12
1.035
0.775
0.415
-0.025
-0.495
-0.81
-0.895
-0.83
-0.7
-0.595
-0.485
-0.415
-0.385
-0.37
-0.345
-0.335
-0.315
-0.315
-0.33
-0.33
-0.315
-0.3
-0.28
-0.28
-0.295
-0.295
-0.3
-0.295
-0.3
-0.29
-0.28
-0.28
-0.27
-0.26
-0.255
-0.235
-0.245
-0.23
-0.235
-0.23
-0.215
-0.19
-0.185
-0.185
-0.19
-0.175
-0.165
-0.155
-0.155
-0.145
-0.13
-0.115
-0.09
-0.085
-0.08
-0.085
-0.08
-0.06
-0.05
-0.04
-0.005
0.02
0.015
0.02
0.03
0.025
0.025
0.015
0.03
0.05
0.07
0.075
0.065
0.06
0.07
0.095
0.1
0.095
0.085
0.075
0.075
0.07
0.075
0.07
0.06
0.04
0.03
0.025
0.03
0.005
-0.03
-0.075
-0.075
-0.05
-0.045
-0.055
-0.09
-0.115
-0.1
-0.105
-0.1
-0.125
-0.14
-0.14
-0.16
-0.155
-0.17
-0.185
-0.215
-0.225
-0.22
-0.185
-0.155
-0.115
-0.095
-0.055
-0.035
-0.04
-0.09
-0.145
-0.195
-0.215
-0.19
-0.17
-0.17
-0.2
-0.21
-0.21
-0.185
-0.185
-0.155
-0.14
-0.115
-0.105
-0.105
-0.095
-0.085
-0.11
-0.12
-0.115
-0.065
0.01
0.085
0.125
0.14
0.105
0.05
-0.045
-0.155
-0.185
-0.135
-0.04
-0.01
-0.02
-0.045
-0.07
-0.105
-0.1
-0.06
-0.015
-0.035
-0.09
-0.14
-0.165
-0.17
-0.11
-0.085
-0.06
-0.06
-0.055
-0.055
-0.04
0.0
0.055
0.105
0.115
0.125
0.095
0.065
0.075
0.065
-0.08
-0.26
-0.275
-0.16
-0.04
-0.01
-0.1
-0.165
-0.165
-0.17
-0.2
-0.245
-0.26
-0.23
-0.14
-0.11
-0.08
-0.06
-0.015
0.01
-0.045
-0.09
-0.075
-0.05
-0.175
-0.375
-0.49
-0.435
-0.325
-0.245
-0.22
-0.18
-0.06
0.14
0.385
0.67
0.95
1.18
1.35
1.355
1.145
0.635
-0.005
-0.645
-0.79
-0.55
-0.31
-0.26
-0.325
-0.22
-0.005
0.025
-0.16
-0.325
-0.3
-0.205
-0.155
-0.165
-0.19
-0.2
-0.225
-0.25
-0.28
-0.27
-0.22
-0.155
-0.16
-0.18
-0.17
-0.115
-0.02
0.035
-0.015
-0.15
-0.245
-0.195
-0.11
-0.075
-0.09
-0.135
-0.09
-0.01
-0.035
-0.12
-0.185
-0.125
0.025
0.135
0.075
-0.03
0.035
0.27
0.415
0.265
-0.03
-0.19
-0.15
-0.09
-0.055
-0.02
0.03
0.115
0.195
0.215
0.21
0.195
0.115
-0.065
-0.19
-0.15
-0.015
0.075
0.08
0.065
0.055
0.065
0.07
0.085
0.075
0.06
0.025
0.015
0.02
0.03
0.02
0.0
-0.025
-0.04
-0.04
-0.04
-0.015
-0.005
-0.055
-0.14
-0.175
-0.17
-0.185
-0.21
-0.23
-0.245
-0.245
-0.245
-0.235
-0.255
-0.27
-0.265
-0.26
-0.24
-0.255
-0.265
-0.27
-0.275
-0.265
-0.275
-0.28
-0.3
-0.315
-0.31
-0.27
-0.275
-0.28
-0.305
-0.285
-0.26
-0.26
-0.245
-0.235
-0.24
-0.26
-0.305
-0.32
-0.3
-0.275
-0.29
-0.29
-0.26
-0.255
-0.255
-0.215
-0.195
-0.205
-0.205
-0.21
-0.19
-0.17
-0.165
-0.17
-0.185
-0.19
-0.2
-0.205
-0.17
-0.16
-0.17
-0.185
-0.21
-0.23
-0.22
-0.2
-0.18
-0.205
-0.27
-0.355
-0.35
-0.345
-0.295
-0.25
-0.25
-0.31
-0.37
-0.39
-0.385
-0.375
-0.37
-0.38
-0.385
-0.39
-0.365
-0.345
-0.31
-0.325
-0.38
-0.43
-0.44
-0.44
-0.41
-0.39
-0.395
-0.39
-0.355
-0.285
-0.26
-0.33
-0.45
-0.53
-0.53
-0.495
-0.47
-0.47
-0.44
-0.385
-0.26
-0.075
0.17
0.42
0.66
0.865
0.965
0.87
0.565
0.16
-0.29
-0.735
-1.045
-1.085
-0.975
-0.845
-0.705
-0.615
-0.535
-0.475
-0.42
-0.365
-0.335
-0.335
-0.33
-0.305
-0.275
-0.26
-0.245
-0.225
-0.215
-0.215
-0.23
-0.24
-0.215
-0.215
-0.265
-0.335
-0.41
-0.445
-0.395
-0.28
-0.23
-0.315
-0.425
-0.46
-0.425
-0.385
-0.405
-0.435
-0.465
-0.46
-0.42
-0.4
-0.395
-0.38
-0.34
-0.33
-0.3
-0.3
-0.25
-0.215
-0.14
-0.045
0.01
-0.04
-0.145
-0.25
-0.235
-0.17
-0.135
-0.2
-0.265
-0.32
-0.32
-0.235
-0.135
-0.12
-0.215
-0.325
-0.34
-0.335
-0.33
-0.295
-0.235
-0.135
-0.085
-0.06
-0.025
-0.005
-0.015
-0.035
-0.035
-0.015
-0.045
-0.125
-0.2
-0.205
-0.19
-0.205
-0.22
-0.195
-0.15
-0.075
-0.075
-0.19
-0.335
-0.47
-0.57
-0.615
-0.585
-0.505
-0.46
-0.475
-0.5
-0.495
-0.44
-0.39
-0.375
-0.365
-0.345
-0.345
-0.38
-0.425
-0.45
-0.445
-0.425
-0.415
-0.395
-0.375
-0.325
-0.265
-0.21
-0.16
-0.13
-0.16
-0.245
-0.31
-0.34
-0.36
-0.45
-0.535
-0.495
-0.42
-0.335
-0.29
-0.285
-0.31
-0.29
-0.22
-0.13
-0.065
-0.075
-0.155
-0.22
-0.215
-0.235
-0.315
-0.42
-0.425
-0.365
-0.315
-0.295
-0.295
-0.285
-0.285
-0.28
-0.31
-0.31
-0.3
-0.285
-0.265
-0.215
-0.165
-0.185
-0.285
-0.39
-0.395
-0.32
-0.3
-0.285
-0.305
-0.33
-0.375
-0.415
-0.435
-0.42
-0.38
-0.33
-0.285
-0.205
-0.145
-0.14
-0.145
-0.205
-0.38
-0.52
-0.52
-0.425
-0.345
-0.31
-0.315
-0.325
-0.37
-0.43
-0.43
-0.37
-0.32
-0.32
-0.335
-0.345
-0.335
-0.34
-0.37
-0.375
-0.395
-0.385
-0.39
-0.39
-0.405
-0.415
-0.435
-0.455
-0.49
-0.53
-0.555
-0.545
-0.49
-0.405
-0.28
-0.15
0.02
0.215
0.415
0.645
0.915
1.04
0.885
0.555
0.235
-0.04
-0.385
-0.77
-1.015
-1.105
-1.07
-0.95
-0.76
-0.595
-0.495
-0.495
-0.505
-0.49
-0.5
-0.49
-0.445
-0.44
-0.515
-0.565
-0.525
-0.44
-0.4
-0.395
-0.385
-0.37
-0.38
-0.405
-0.39
-0.37
-0.345
-0.325
-0.285
-0.255
-0.24
-0.29
-0.395
-0.475
-0.445
-0.4
-0.38
-0.37
-0.365
-0.32
-0.255
-0.185
-0.17
-0.195
-0.225
-0.265
-0.345
-0.44
-0.48
-0.4
-0.315
-0.26
-0.235
-0.19
-0.155
-0.085
-0.035
0.0
-0.01
-0.025
-0.04
-0.015
0.01
0.01
-0.02
-0.105
-0.215
-0.275
-0.3
-0.285
-0.25
-0.2
-0.17
-0.16
-0.17
-0.18
-0.22
-0.24
-0.265
-0.27
-0.245
-0.215
-0.21
-0.235
-0.27
-0.31
-0.35
-0.405
-0.4
-0.41
-0.45
-0.47
-0.49
-0.535
-0.555
-0.59
-0.645
-0.715
-0.77
-0.805
-0.825
-0.86
-0.9
-0.935
-1.0
-1.045
-1.065
-1.06
-1.03
-1.04
-1.115
-1.26
-1.345
-1.345
-1.3
-1.29
-1.3
-1.315
-1.29
-1.255
-1.24
-1.215
-1.22
-1.2
-1.16
-1.125
-1.07
-1.03
-0.975
-0.885
-0.775
-0.705
-0.64
-0.59
-0.54
-0.52
-0.495
-0.46
-0.42
-0.37
-0.345
-0.33
-0.32
-0.325
-0.315
-0.325
-0.33
-0.315
-0.26
-0.21
-0.22
-0.255
-0.29
-0.25
-0.225
-0.19
-0.17
-0.155
-0.12
-0.07
-0.025
0.005
0.045
0.06
0.1
0.15
0.215
0.26
0.295
0.25
0.145
0.095
0.085
0.125
0.15
0.165
0.165
0.18
0.195
0.195
0.185
0.15
0.12
0.11
0.105
0.115
0.13
0.125
0.125
0.12
0.14
0.14
0.16
0.185
0.215
0.26
0.22
0.075
-0.085
-0.125
-0.055
0.06
0.22
0.33
0.33
0.25
0.175
0.17
0.175
0.075
-0.13
-0.315
-0.38
-0.335
-0.2
-0.06
0.02
0.06
0.025
-0.02
-0.085
-0.185
-0.25
-0.305
-0.345
-0.305
-0.165
0.035
0.24
0.44
0.675
0.9
1.095
1.17
1.125
0.95
0.605
0.125
-0.44
-0.85
-0.98
-0.935
-0.89
-0.905
-0.835
-0.68
-0.54
-0.48
-0.485
-0.47
-0.4
-0.36
-0.33
-0.325
-0.32
-0.265
-0.19
-0.14
-0.165
-0.26
-0.37
-0.365
-0.295
-0.305
-0.32
-0.3
-0.225
-0.14
-0.13
-0.215
-0.325
-0.28
-0.24
-0.34
-0.445
-0.47
-0.45
-0.395
-0.355
-0.315
-0.3
-0.29
-0.305
-0.28
-0.235
-0.155
-0.06
-0.08
-0.175
-0.275
-0.335
-0.35
-0.285
-0.22
-0.19
-0.195
-0.195
-0.165
-0.1
-0.055
-0.025
-0.015
-0.025
-0.015
-0.005
0.04
0.06
0.08
0.09
0.115
0.16
0.17
0.17
0.18
0.18
0.19
0.19
0.2
0.195
0.2
0.185
0.105
-0.025
-0.105
-0.06
0.015
0.05
0.025
0.005
-0.04
-0.11
-0.16
-0.175
-0.17
-0.165
-0.17
-0.2
-0.2
-0.205
-0.205
-0.195
-0.165
-0.165
-0.215
-0.26
-0.285
-0.275
-0.255
-0.225
-0.21
-0.23
-0.25
-0.24
-0.22
-0.2
-0.18
-0.2
-0.205
-0.18
-0.155
-0.145
-0.155
-0.155
-0.145
-0.11
-0.06
0.02
0.01
-0.105
-0.25
-0.28
-0.27
-0.25
-0.22
-0.17
-0.145
-0.145
-0.185
-0.22
-0.25
-0.24
-0.23
-0.195
-0.165
-0.16
-0.15
-0.16
-0.18
-0.185
-0.175
-0.17
-0.17
-0.17
-0.165
-0.14
-0.115
-0.105
-0.125
-0.17
-0.18
-0.16
-0.12
-0.125
-0.15
-0.17
-0.145
-0.145
-0.14
-0.14
-0.145
-0.165
-0.165
-0.15
-0.145
-0.13
-0.145
-0.17
-0.2
-0.21
-0.215
-0.2
-0.2
-0.2
-0.19
-0.17
-0.17
-0.185
-0.21
-0.24
-0.27
-0.275
-0.275
-0.28
-0.3
-0.31
-0.32
-0.325
-0.315
-0.29
-0.285
-0.295
-0.285
-0.29
-0.285
-0.29
-0.29
-0.29
-0.3
-0.305
-0.285
-0.28
-0.285
-0.31
-0.355
-0.365
-0.355
-0.3
-0.205
-0.055
0.12
0.355
0.605
0.845
1.04
1.12
0.985
0.705
0.335
-0.065
-0.495
-0.825
-0.925
-0.845
-0.745
-0.645
-0.565
-0.475
-0.41
-0.38
-0.335
-0.33
-0.345
-0.335
-0.33
-0.31
-0.305
-0.295
-0.29
-0.295
-0.305
-0.285
-0.27
-0.255
-0.265
-0.265
-0.25
-0.24
-0.215
-0.205
-0.2
-0.215
-0.22
-0.215
-0.2
-0.185
-0.19
-0.195
-0.19
-0.19
-0.165
-0.135
-0.15
-0.145
-0.125
-0.12
-0.105
-0.115
-0.11
-0.105
-0.1
-0.08
-0.065
-0.055
-0.055
-0.07
-0.03
0.0
0.03
0.05
0.05
0.06
0.065
0.095
0.13
0.16
0.17
0.17
0.18
0.19
0.205
0.21
0.205
0.2
0.21
0.225
0.235
0.235
0.225
0.205
0.205
0.225
0.235
0.225
0.205
0.19
0.18
0.19
0.19
0.155
0.125
0.08
0.05
0.015
0.005
-0.005
-0.035
-0.065
-0.07
-0.085
-0.08
-0.09
-0.085
-0.095
-0.11
-0.13
-0.14
-0.145
-0.135
-0.16
-0.18
-0.155
-0.155
-0.165
-0.19
-0.205
-0.22
-0.195
-0.18
-0.185
-0.205
-0.24
-0.245
-0.245
-0.235
-0.24
-0.245
-0.245
-0.245
-0.235
-0.25
-0.26
-0.285
-0.285
-0.285
-0.255
-0.235
-0.225
-0.245
-0.28
-0.28
-0.29
-0.28
-0.27
-0.29
-0.305
-0.345
-0.335
-0.335
-0.32
-0.335
-0.34
-0.36
-0.375
-0.38
-0.375
-0.3
-0.185
-0.015
0.18
0.415
0.675
0.945
1.145
1.18
0.93
0.47
-0.04
-0.515
-0.91
-1.035
-0.93
-0.72
-0.545
-0.455
-0.405
-0.4
-0.395
-0.37
-0.37
-0.375
-0.39
-0.4
-0.38
-0.39
-0.38
-0.375
-0.385
-0.41
-0.375
-0.33
-0.295
-0.29
-0.305
-0.305
-0.335
-0.36
-0.37
-0.385
-0.36
-0.36
-0.315
-0.325
-0.33
-0.34
-0.35
-0.355
-0.345
-0.335
-0.305
-0.29
-0.31
-0.325
-0.305
-0.275
-0.255
-0.26
-0.28
-0.285
-0.28
-0.26
-0.24
-0.245
-0.225
-0.22
-0.22
-0.18
-0.155
-0.13
-0.135
-0.145
-0.13
-0.11
-0.105
-0.105
-0.09
-0.105
-0.07
-0.035
-0.035
-0.03
-0.025
-0.025
-0.03
-0.02
-0.03
-0.045
-0.05
-0.04
-0.02
-0.01
-0.04
-0.075
-0.11
-0.14
-0.135
-0.135
-0.135
-0.12
-0.135
-0.15
-0.155
-0.19
-0.235
-0.285
-0.285
-0.285
-0.27
-0.27
-0.28
-0.275
-0.28
-0.29
-0.29
-0.26
-0.26
-0.27
-0.29
-0.29
-0.285
-0.275
-0.29
-0.28
-0.3
-0.295
-0.305
-0.305
-0.295
-0.32
-0.325
-0.33
-0.3
-0.28
-0.265
-0.26
-0.26
-0.29
-0.3
-0.31
-0.33
-0.345
-0.355
-0.345
-0.285
-0.255
-0.29
-0.36
-0.38
-0.365
-0.36
-0.355
-0.345
-0.345
-0.35
-0.36
-0.36
-0.35
-0.335
-0.33
-0.375
-0.385
-0.37
-0.35
-0.365
-0.375
-0.38
-0.37
-0.355
-0.34
-0.34
-0.375
-0.41
-0.44
-0.435
-0.385
-0.35
-0.365
-0.375
-0.36
-0.325
-0.29
-0.3
-0.3
-0.285
-0.29
-0.295
-0.31
-0.295
-0.29
-0.315
-0.34
-0.335
-0.325
-0.32
-0.3
-0.305
-0.29
-0.295
-0.31
-0.355
-0.385
-0.38
-0.35
-0.34
-0.335
-0.335
-0.345
-0.37
-0.41
-0.415
-0.385
-0.375
-0.4
-0.42
-0.44
-0.44
-0.42
-0.4
-0.37
-0.39
-0.44
-0.445
-0.42
-0.395
-0.4
-0.425
-0.45
-0.455
-0.45
-0.46
-0.51
-0.555
-0.575
-0.54
-0.49
-0.44
-0.345
-0.21
-0.01
0.225
0.485
0.735
0.895
0.92
0.805
0.575
0.32
-0.015
-0.48
-0.885
-1.035
-1.02
-0.955
-0.89
-0.795
-0.69
-0.615
-0.555
-0.525
-0.51
-0.505
-0.505
-0.495
-0.495
-0.49
-0.495
-0.49
-0.49
-0.47
-0.45
-0.42
-0.415
-0.435
-0.45
-0.465
-0.43
-0.395
-0.38
-0.37
-0.41
-0.445
-0.435
-0.43
-0.41
-0.38
-0.37
-0.365
-0.34
-0.36
-0.375
-0.395
-0.395
-0.38
-0.36
-0.32
-0.305
-0.285
-0.305
-0.31
-0.31
-0.305
-0.285
-0.29
-0.3
-0.29
-0.265
-0.21
-0.19
-0.18
-0.185
-0.19
-0.17
-0.14
-0.12
-0.15
-0.155
-0.16
-0.145
-0.14
-0.105
-0.095
-0.145
-0.195
-0.205
-0.18
-0.135
-0.12
-0.115
-0.11
-0.1
-0.105
-0.115
-0.155
-0.2
-0.21
-0.205
-0.195
-0.195
-0.2
-0.195
-0.195
-0.215
-0.22
-0.25
-0.28
-0.315
-0.325
-0.315
-0.295
-0.305
-0.325
-0.365
-0.38
-0.375
-0.38
-0.37
-0.4
-0.425
-0.42
-0.38
-0.36
-0.365
-0.375
-0.39
-0.385
-0.365
-0.35
-0.37
-0.41
-0.435
-0.42
-0.355
-0.305
-0.325
-0.385
-0.425
-0.45
-0.45
-0.43
-0.405
-0.405
-0.43
-0.465
-0.48
-0.465
-0.415
-0.4
-0.39
-0.385
-0.365
-0.375
-0.38
-0.385
-0.415
-0.405
-0.355
-0.345
-0.35
-0.38
-0.385
-0.38
-0.355
-0.33
-0.335
-0.34
-0.38
-0.36
-0.305
-0.27
-0.3
-0.355
-0.355
-0.335
-0.305
-0.305
-0.31
-0.355
-0.385
-0.37
-0.35
-0.35
-0.335
-0.32
-0.34
-0.365
-0.395
-0.42
-0.44
-0.42
-0.385
-0.325
-0.325
-0.375
-0.425
-0.445
-0.45
-0.425
-0.41
-0.405
-0.42
-0.45
-0.48
-0.46
-0.445
-0.46
-0.465
-0.465
-0.46
-0.465
-0.455
-0.45
-0.45
-0.465
-0.495
-0.5
-0.49
-0.45
-0.41
-0.42
-0.46
-0.49
-0.515
-0.51
-0.475
-0.43
-0.345
-0.22
-0.025
0.215
0.5
0.765
0.9
0.835
0.635
0.355
-0.04
-0.485
-0.85
-0.98
-0.925
-0.855
-0.815
-0.77
-0.685
-0.61
-0.56
-0.535
-0.525
-0.545
-0.555
-0.545
-0.51
-0.495
-0.49
-0.47
-0.46
-0.475
-0.505
-0.505
-0.5
-0.52
-0.525
-0.535
-0.51
-0.47
-0.44
-0.45
-0.425
-0.425
-0.425
-0.44
-0.445
-0.42
-0.445
-0.455
-0.435
-0.405
-0.355
-0.365
-0.41
-0.42
-0.39
-0.32
-0.295
-0.325
-0.37
-0.385
-0.37
-0.32
-0.27
-0.245
-0.22
-0.245
-0.245
-0.22
-0.22
-0.225
-0.235
-0.235
-0.225
-0.205
-0.17
-0.15
-0.14
-0.16
-0.2
-0.2
-0.16
-0.145
-0.155
-0.19
-0.205
-0.185
-0.14
-0.14
-0.165
-0.195
-0.225
-0.24
-0.23
-0.24
-0.26
-0.31
-0.31
-0.28
-0.275
-0.32
-0.365
-0.355
-0.34
-0.365
-0.4
-0.425
-0.385
-0.35
-0.365
-0.44
-0.48
-0.5
-0.505
-0.48
-0.445
-0.44
-0.42
-0.44
-0.46
-0.44
-0.43
-0.445
-0.48
-0.49
-0.47
-0.425
-0.395
-0.385
-0.4
-0.44
-0.47
-0.46
-0.435
-0.415
-0.41
-0.4
-0.415
-0.44
-0.45
-0.42
-0.365
-0.35
-0.395
-0.445
-0.465
-0.455
-0.42
-0.425
-0.47
-0.47
-0.455
-0.445
-0.435
-0.45
-0.435
-0.41
-0.385
-0.365
-0.325
-0.335
-0.355
-0.36
-0.34
-0.335
-0.35
-0.36
-0.345
-0.36
-0.4
-0.41
-0.37
-0.36
-0.37
-0.37
-0.38
-0.38
-0.375
-0.395
-0.44
-0.45
-0.43
-0.42
-0.405
-0.415
-0.425
-0.445
-0.43
-0.43
-0.42
-0.435
-0.445
-0.45
-0.445
-0.46
-0.5
-0.525
-0.525
-0.5
-0.485
-0.465
-0.46
-0.485
-0.505
-0.515
-0.51
-0.505
-0.515
-0.52
-0.51
-0.5
-0.49
-0.475
-0.47
-0.49
-0.505
-0.53
-0.515
-0.51
-0.475
-0.4
-0.28
-0.1
0.15
0.45
0.745
0.95
1.045
0.97
0.715
0.36
-0.065
-0.55
-0.945
-1.135
-1.125
-1.055
-0.945
-0.84
-0.745
-0.7
-0.685
-0.665
-0.635
-0.615
-0.615
-0.605
-0.585
-0.575
-0.575
-0.585
-0.595
-0.59
-0.565
-0.555
-0.56
-0.555
-0.545
-0.545
-0.555
-0.55
-0.54
-0.525
-0.52
-0.515
-0.52
-0.55
-0.545
-0.545
-0.535
-0.525
-0.52
-0.49
-0.475
-0.49
-0.505
-0.5
-0.485
-0.48
-0.45
-0.44
-0.42
-0.42
-0.435
-0.44
-0.415
-0.375
-0.36
-0.365
-0.36
-0.335
-0.295
-0.27
-0.295
-0.3
-0.3
-0.275
-0.275
-0.285
-0.29
-0.26
-0.225
-0.205
-0.215
-0.195
-0.185
-0.215
-0.22
-0.225
-0.22
-0.22
-0.255
-0.27
-0.26
-0.26
-0.275
-0.295
-0.315
-0.335
-0.34
-0.34
-0.35
-0.38
-0.395
-0.395
-0.385
-0.37
-0.37
-0.395
-0.405
-0.405
-0.385
-0.37
-0.375
-0.385
-0.405
-0.415
-0.41
-0.405
-0.405
-0.405
-0.4
-0.405
-0.39
-0.375
-0.38
-0.395
-0.41
-0.42
-0.37
-0.355
-0.36
-0.38
-0.4
-0.405
-0.385
-0.36
-0.35
-0.355
-0.38
-0.375
-0.36
-0.34
-0.35
-0.36
-0.39
-0.375
-0.35
-0.34
-0.34
-0.34
-0.345
-0.335
-0.325
-0.305
-0.315
-0.32
-0.315
-0.31
-0.28
-0.285
-0.285
-0.275
-0.285
-0.27
-0.255
-0.25
-0.255
-0.28
-0.3
-0.305
