Lead II
0.6
0.645
0.675
0.695
0.705
0.695
0.685
0.72
0.765
0.795
0.785
0.745
0.715
0.68
0.66
0.675
0.67
0.705
0.725
0.73
0.745
0.745
0.71
0.675
0.65
0.66
0.655
0.68
0.67
0.65
0.63
0.64
0.625
0.605
0.58
0.545
0.5
0.47
0.46
0.5
0.52
0.51
0.455
0.36
0.29
0.215
0.2
0.19
0.19
0.185
0.155
0.15
0.115
0.095
0.095
0.09
0.09
0.08
0.045
0.025
0.015
0.03
0.055
0.075
0.075
0.04
-0.01
-0.005
0.0
0.025
0.045
0.085
0.08
0.025
-0.095
-0.2
-0.25
-0.19
-0.11
-0.03
0.035
0.015
-0.085
-0.18
-0.225
-0.195
-0.145
-0.085
-0.05
-0.08
-0.115
-0.115
-0.045
0.065
0.13
0.09
-0.045
-0.175
-0.225
-0.225
-0.225
-0.22
-0.21
-0.18
-0.155
-0.135
-0.095
-0.06
-0.115
-0.225
-0.295
-0.275
-0.215
-0.115
-0.025
0.005
-0.02
-0.11
-0.195
-0.225
-0.155
-0.055
-0.005
0.0
-0.11
-0.19
-0.195
-0.13
-0.09
-0.105
-0.16
-0.245
-0.255
-0.175
-0.045
0.05
0.045
0.03
0.025
0.025
-0.05
-0.215
-0.33
-0.33
-0.22
-0.1
-0.015
0.035
0.055
0.11
0.215
0.295
0.165
-0.15
-0.41
-0.49
-0.355
-0.155
-0.065
-0.145
-0.24
-0.235
-0.15
-0.08
-0.125
-0.225
-0.325
-0.38
-0.345
-0.23
-0.105
-0.085
-0.19
-0.24
-0.205
-0.105
-0.07
-0.14
-0.235
-0.25
-0.19
-0.145
-0.175
-0.23
-0.26
-0.26
-0.21
-0.18
-0.14
-0.1
-0.075
-0.08
-0.115
-0.15
-0.135
-0.105
-0.11
-0.13
-0.17
-0.16
-0.175
-0.23
-0.315
-0.315
-0.205
-0.065
-0.02
-0.09
-0.235
-0.37
-0.41
-0.34
-0.265
-0.265
-0.27
-0.21
-0.155
-0.16
-0.225
-0.27
-0.295
-0.285
-0.245
-0.205
-0.16
-0.145
-0.185
-0.14
-0.055
-0.125
-0.33
-0.475
-0.465
-0.345
-0.275
-0.285
-0.28
-0.255
-0.255
-0.28
-0.305
-0.285
-0.245
-0.155
-0.03
0.095
0.205
0.31
0.41
0.565
0.74
0.875
0.835
0.675
0.52
0.435
0.275
-0.02
-0.265
-0.435
-0.505
-0.46
-0.395
-0.35
-0.365
-0.355
-0.355
-0.325
-0.33
-0.355
-0.38
-0.4
-0.4
-0.4
-0.405
-0.395
-0.38
-0.375
-0.385
-0.355
-0.33
-0.305
-0.295
-0.325
-0.345
-0.375
-0.38
-0.39
-0.38
-0.365
-0.35
-0.335
-0.355
-0.365
-0.37
-0.345
-0.34
-0.33
-0.345
-0.335
-0.345
-0.355
-0.34
-0.335
-0.335
-0.335
-0.335
-0.325
-0.325
-0.33
-0.34
-0.315
-0.32
-0.31
-0.285
-0.255
-0.28
-0.335
-0.38
-0.375
-0.34
-0.31
-0.325
-0.355
-0.395
-0.39
-0.38
-0.35
-0.335
-0.335
-0.35
-0.38
-0.375
-0.35
-0.335
-0.335
-0.355
-0.375
-0.39
-0.385
-0.385
-0.37
-0.365
-0.365
-0.36
-0.36
-0.345
-0.34
-0.325
-0.3
-0.275
-0.275
-0.285
-0.295
-0.3
-0.3
-0.29
-0.275
-0.285
-0.29
-0.285
-0.255
-0.255
-0.255
-0.26
-0.255
-0.25
-0.25
-0.255
-0.25
-0.26
-0.275
-0.29
-0.27
-0.24
-0.245
-0.255
-0.265
-0.27
-0.305
-0.29
-0.29
-0.285
-0.3
-0.305
-0.325
-0.32
-0.3
-0.315
-0.32
-0.31
-0.32
-0.32
-0.305
-0.315
-0.325
-0.33
-0.335
-0.34
-0.33
-0.345
-0.33
-0.325
-0.32
-0.33
-0.32
-0.305
-0.295
-0.305
-0.31
-0.31
-0.305
-0.305
-0.295
-0.29
-0.29
-0.29
-0.285
-0.285
-0.315
-0.325
-0.28
-0.245
-0.225
-0.23
-0.23
-0.235
-0.225
-0.185
-0.17
-0.165
-0.165
-0.155
-0.135
-0.11
-0.08
-0.095
-0.11
-0.115
-0.07
-0.01
0.06
0.085
0.105
0.09
0.065
0.05
0.005
-0.145
-0.42
-0.775
-1.14
-1.46
-1.705
-1.855
-1.905
-1.91
-1.915
-1.9
-1.85
-1.755
-1.635
-1.52
-1.4
-1.295
-1.185
-1.055
-0.945
-0.86
-0.765
-0.67
-0.575
-0.53
-0.495
-0.5
-0.455
-0.415
-0.375
-0.345
-0.33
-0.335
-0.305
-0.255
-0.19
-0.12
-0.07
0.0
0.07
0.14
0.195
0.225
0.24
0.27
0.275
0.295
0.31
0.325
0.34
0.355
0.36
0.38
0.41
0.415
0.42
0.45
0.485
0.515
0.53
0.545
0.565
0.585
0.595
0.61
0.63
0.645
0.655
0.675
0.68
0.69
0.705
0.705
0.72
0.715
0.725
0.735
0.745
0.745
0.725
0.715
0.72
0.74
0.75
0.73
0.715
0.69
0.67
0.66
0.655
0.645
0.62
0.59
0.575
0.56
0.555
0.53
0.485
0.475
0.45
0.42
0.39
0.35
0.325
0.305
0.285
0.275
0.255
0.22
0.205
0.18
0.165
0.14
0.145
0.105
0.075
0.045
0.045
0.06
0.05
0.045
0.03
0.015
0.0
0.01
0.02
0.02
0.025
0.03
0.02
0.02
0.04
0.05
0.04
0.025
0.01
0.005
0.005
0.01
0.015
0.02
0.02
0.02
0.015
-0.005
-0.025
-0.05
-0.045
-0.01
0.015
0.005
-0.025
-0.025
-0.02
-0.015
-0.005
-0.015
-0.025
-0.04
-0.05
-0.075
-0.075
-0.045
-0.02
-0.02
-0.025
-0.015
-0.02
-0.05
-0.045
-0.03
-0.025
-0.015
-0.01
-0.025
-0.035
-0.06
-0.055
-0.025
-0.02
-0.03
-0.04
-0.055
-0.04
-0.035
-0.04
-0.04
-0.06
-0.08
-0.08
-0.06
-0.05
-0.07
-0.075
-0.06
-0.065
-0.075
-0.05
-0.045
-0.05
-0.06
-0.07
-0.07
-0.05
-0.05
-0.05
-0.065
-0.07
-0.07
-0.06
-0.065
-0.06
-0.06
-0.065
-0.04
0.01
0.01
0.01
0.0
-0.01
-0.01
-0.015
-0.035
-0.04
-0.03
-0.03
-0.005
0.0
-0.02
-0.03
-0.04
-0.03
-0.02
-0.005
0.0
-0.01
-0.035
-0.04
-0.04
-0.04
-0.035
-0.03
-0.05
-0.065
-0.05
-0.015
0.005
-0.005
-0.045
-0.075
-0.1
-0.115
-0.09
-0.065
-0.07
-0.085
-0.085
-0.08
-0.095
-0.12
-0.155
-0.15
-0.135
-0.105
-0.06
-0.01
0.01
0.01
0.005
0.025
0.025
0.01
-0.03
-0.045
-0.05
-0.025
0.015
0.055
0.105
0.19
0.305
0.43
0.54
0.655
0.775
0.89
1.005
1.09
1.13
1.09
0.985
0.845
0.65
0.375
0.075
-0.145
-0.28
-0.37
-0.35
-0.26
-0.19
-0.165
-0.145
-0.13
-0.125
-0.13
-0.15
-0.19
-0.225
-0.205
-0.18
-0.165
-0.2
-0.22
-0.22
-0.185
-0.165
-0.135
-0.135
-0.14
-0.145
-0.14
-0.14
-0.12
-0.13
-0.14
-0.13
-0.125
-0.125
-0.105
-0.1
-0.12
-0.175
-0.18
-0.17
-0.135
-0.11
-0.105
-0.12
-0.12
-0.12
-0.095
-0.1
-0.095
-0.095
-0.095
-0.095
-0.095
-0.085
-0.09
-0.115
-0.11
-0.08
-0.075
-0.09
-0.1
-0.065
-0.03
-0.035
-0.05
-0.07
-0.055
-0.055
-0.055
-0.03
0.015
0.03
0.015
0.005
0.01
0.0
-0.035
-0.08
-0.105
-0.095
-0.085
-0.07
-0.07
-0.05
-0.035
-0.01
-0.02
0.0
0.0
0.015
0.0
-0.015
-0.015
0.0
0.015
0.015
0.01
0.015
0.025
0.015
0.03
0.005
0.01
0.02
0.01
0.015
0.035
0.035
0.035
0.005
0.0
0.005
0.03
0.04
0.045
0.025
-0.02
-0.06
-0.075
-0.075
-0.07
-0.06
-0.05
-0.04
-0.01
-0.01
-0.045
-0.095
-0.1
-0.05
0.0
0.0
-0.015
0.005
0.0
-0.03
-0.065
-0.11
-0.13
-0.14
-0.14
-0.11
-0.085
-0.065
-0.09
-0.13
-0.14
-0.135
-0.12
-0.095
-0.085
-0.09
-0.07
-0.04
-0.03
-0.035
-0.05
-0.065
-0.045
-0.025
-0.005
0.0
0.0
0.015
0.02
0.05
0.08
0.1
0.1
0.06
0.005
-0.07
-0.105
-0.11
-0.09
-0.08
-0.065
-0.055
-0.06
-0.08
-0.1
-0.12
-0.13
-0.135
-0.095
-0.085
-0.07
-0.07
-0.055
-0.02
0.0
-0.02
-0.05
-0.08
-0.075
-0.075
-0.065
-0.065
-0.075
-0.09
-0.09
-0.07
-0.055
-0.055
-0.055
-0.055
-0.06
-0.06
-0.07
-0.09
-0.095
-0.075
-0.055
-0.05
-0.015
-0.035
-0.04
-0.07
-0.065
-0.025
0.075
0.15
0.21
0.24
0.28
0.345
0.425
0.5
0.595
0.71
0.825
0.92
0.955
0.875
0.755
0.625
0.485
0.295
0.075
-0.125
-0.255
-0.33
-0.37
-0.36
-0.3
-0.265
-0.24
-0.215
-0.2
-0.17
-0.155
-0.165
-0.195
-0.225
-0.23
-0.24
-0.22
-0.22
-0.215
-0.225
-0.205
-0.165
-0.095
-0.08
-0.06
-0.08
-0.135
-0.155
-0.15
-0.165
-0.145
-0.12
-0.07
-0.035
-0.05
-0.135
-0.24
-0.31
-0.31
-0.27
-0.23
-0.21
-0.205
-0.195
-0.185
-0.155
-0.13
-0.135
-0.155
-0.135
-0.14
-0.13
-0.1
-0.08
-0.075
-0.09
-0.12
-0.125
-0.1
-0.075
-0.045
-0.035
-0.06
-0.09
-0.09
-0.09
-0.06
-0.03
0.015
0.065
0.1
0.06
-0.01
-0.1
-0.145
-0.15
-0.105
-0.07
-0.04
-0.05
-0.035
-0.01
0.035
0.085
0.085
0.05
0.005
-0.035
-0.04
-0.045
-0.015
-0.01
0.02
0.045
0.055
0.035
0.02
0.025
0.025
0.01
0.005
0.015
0.035
0.025
0.0
-0.015
-0.005
-0.005
-0.015
-0.03
-0.01
-0.015
-0.025
-0.045
-0.065
-0.07
-0.065
-0.04
-0.025
-0.02
-0.01
-0.03
-0.06
-0.06
-0.055
-0.05
-0.015
-0.015
-0.035
-0.065
-0.1
-0.15
-0.225
-0.25
-0.225
-0.18
-0.145
-0.145
-0.15
-0.16
-0.155
-0.15
-0.13
-0.125
-0.11
-0.115
-0.125
-0.13
-0.14
-0.165
-0.185
-0.195
-0.195
-0.175
-0.155
-0.145
-0.14
-0.175
-0.195
-0.2
-0.19
-0.18
-0.155
-0.16
-0.165
-0.175
-0.16
-0.17
-0.185
-0.185
-0.185
-0.155
-0.135
-0.145
-0.145
-0.16
-0.145
-0.145
-0.12
-0.12
-0.115
-0.11
-0.105
-0.1
-0.08
-0.06
-0.06
-0.085
-0.095
-0.105
-0.13
-0.175
-0.195
-0.23
-0.225
-0.205
-0.18
-0.185
-0.18
-0.195
-0.185
-0.155
-0.12
-0.115
-0.135
-0.15
-0.16
-0.15
-0.125
-0.08
-0.085
-0.095
-0.105
-0.11
-0.125
-0.115
-0.11
-0.13
-0.145
-0.135
-0.135
-0.145
-0.14
-0.145
-0.145
-0.135
-0.105
-0.1
-0.095
-0.1
-0.105
-0.09
-0.065
-0.035
-0.02
-0.02
-0.06
-0.13
-0.17
-0.215
-0.2
-0.16
-0.125
-0.105
-0.1
-0.035
0.065
0.19
0.295
0.4
0.51
0.63
0.73
0.82
0.92
1.015
1.09
1.09
1.015
0.905
0.765
0.535
0.205
-0.09
-0.29
-0.395
-0.425
-0.42
-0.38
-0.33
-0.3
-0.285
-0.28
-0.27
-0.255
-0.255
-0.27
-0.28
-0.28
-0.275
-0.27
-0.285
-0.28
-0.28
-0.27
-0.24
-0.235
-0.23
-0.205
-0.22
-0.21
-0.215
-0.2
-0.205
-0.215
-0.215
-0.23
-0.235
-0.235
-0.24
-0.225
-0.24
-0.26
-0.245
-0.21
-0.165
-0.13
-0.155
-0.19
-0.195
-0.175
-0.15
-0.145
-0.16
-0.19
-0.215
-0.22
-0.215
-0.21
-0.195
-0.175
-0.15
-0.13
-0.11
-0.12
-0.125
-0.13
-0.13
-0.12
-0.1
-0.065
-0.01
0.045
0.06
0.025
-0.07
-0.15
-0.195
-0.22
-0.19
-0.13
-0.095
-0.1
-0.11
-0.09
-0.03
-0.005
-0.03
-0.055
-0.07
-0.075
-0.06
-0.04
-0.035
-0.04
-0.03
-0.035
-0.015
-0.01
-0.015
-0.005
0.01
-0.005
0.015
0.03
0.035
0.03
0.02
0.02
0.015
0.025
0.02
0.02
0.01
0.0
0.02
0.025
0.01
0.005
-0.005
-0.005
0.005
0.015
0.025
0.045
0.03
0.025
0.035
0.045
0.035
0.035
0.04
0.015
-0.03
-0.085
-0.135
-0.14
-0.135
-0.105
-0.1
-0.09
-0.1
-0.115
-0.105
-0.09
-0.075
-0.065
-0.05
-0.055
-0.09
-0.1
-0.115
-0.105
-0.075
-0.075
-0.075
-0.065
-0.07
-0.09
-0.09
-0.09
-0.095
-0.09
-0.105
-0.135
-0.175
-0.175
-0.15
-0.125
-0.1
-0.08
-0.075
-0.07
-0.075
-0.07
-0.075
-0.07
-0.09
-0.105
-0.125
-0.125
-0.125
-0.1
-0.095
-0.07
-0.055
-0.04
-0.02
-0.02
-0.065
-0.105
-0.145
-0.17
-0.16
-0.12
-0.08
-0.04
-0.02
-0.035
-0.065
-0.095
-0.15
-0.17
-0.16
-0.13
-0.09
-0.07
-0.06
-0.055
-0.06
-0.05
-0.03
0.0
0.025
0.05
0.065
0.065
0.08
0.105
0.11
0.16
0.195
0.24
0.26
0.275
0.275
0.27
0.3
0.3
0.29
0.255
0.2
0.125
-0.02
-0.245
-0.525
-0.85
-1.195
-1.515
-1.79
-1.99
-2.08
-2.12
-2.135
-2.115
-2.09
-2.075
-1.975
-1.84
-1.71
-1.605
-1.51
-1.45
-1.37
-1.265
-1.185
-1.095
-1.005
-0.95
-0.88
-0.805
-0.735
-0.665
-0.6
-0.555
-0.53
-0.505
-0.51
-0.455
-0.42
-0.38
-0.3
-0.215
-0.17
-0.135
-0.14
-0.135
-0.06
0.025
0.1
0.135
0.16
0.185
0.22
0.27
0.29
0.28
0.285
0.315
0.355
0.42
0.48
0.49
0.45
0.375
0.31
0.285
0.3
0.38
0.435
0.465
0.48
0.515
0.535
0.55
0.545
0.55
0.565
0.585
0.605
0.615
0.645
0.655
0.66
0.7
0.705
0.715
0.725
0.745
0.775
0.785
0.8
0.795
0.805
0.795
0.81
0.845
0.865
0.885
0.87
0.79
0.705
0.675
0.655
0.67
0.69
0.705
0.72
0.715
0.68
0.655
0.615
0.59
0.595
0.615
0.615
0.58
0.53
0.495
0.48
0.455
0.42
0.39
0.365
0.345
0.325
0.32
0.3
0.295
0.275
0.25
0.23
0.21
0.2
0.175
0.14
0.11
0.095
0.115
0.125
0.11
0.09
0.065
0.055
0.095
0.085
0.07
0.035
0.005
-0.005
0.005
0.015
0.025
0.02
0.025
0.03
-0.005
-0.04
-0.04
-0.015
0.0
-0.01
-0.06
-0.135
-0.14
-0.1
-0.04
-0.025
-0.035
-0.065
-0.09
-0.095
-0.055
-0.005
0.035
0.05
0.045
0.015
-0.03
-0.045
-0.03
-0.01
-0.025
-0.07
-0.08
-0.06
-0.03
-0.05
-0.075
-0.115
-0.11
-0.07
-0.025
-0.005
0.025
0.015
-0.04
-0.1
-0.15
-0.15
-0.14
-0.125
-0.105
-0.075
-0.03
-0.025
-0.085
-0.155
-0.195
-0.18
-0.135
-0.095
-0.085
-0.075
-0.08
-0.07
-0.04
-0.005
0.02
0.02
-0.01
-0.02
-0.035
-0.04
-0.05
-0.055
-0.045
-0.035
-0.005
0.01
0.01
-0.005
-0.02
-0.05
-0.06
-0.12
-0.185
-0.215
-0.215
-0.175
-0.125
-0.08
-0.025
0.005
0.01
0.02
0.005
-0.03
-0.04
-0.055
-0.035
-0.035
-0.1
-0.16
-0.175
-0.16
-0.115
-0.08
-0.075
-0.1
-0.16
-0.22
-0.25
-0.24
-0.2
-0.185
-0.155
-0.15
-0.155
-0.135
-0.115
-0.1
-0.065
-0.075
-0.105
-0.135
-0.14
-0.12
-0.11
-0.115
-0.115
-0.11
-0.105
-0.12
-0.14
-0.12
-0.055
0.02
0.09
0.135
0.18
0.225
0.305
0.415
0.545
0.64
0.73
0.8
0.835
0.83
0.815
0.785
0.755
0.705
0.615
0.44
0.21
0.03
-0.1
-0.185
-0.24
-0.31
-0.365
-0.41
-0.415
-0.385
-0.31
-0.265
-0.255
-0.275
-0.31
-0.34
-0.32
-0.285
-0.265
-0.28
-0.285
-0.285
-0.255
-0.205
-0.17
-0.18
-0.225
-0.265
-0.265
-0.22
-0.155
-0.155
-0.195
-0.24
-0.275
-0.275
-0.255
-0.245
-0.185
-0.135
-0.08
-0.1
-0.175
-0.25
-0.27
-0.31
-0.345
-0.32
-0.27
-0.245
-0.255
-0.28
-0.305
-0.305
-0.275
-0.235
-0.175
-0.09
-0.085
-0.185
-0.3
-0.37
-0.39
-0.33
-0.255
-0.24
-0.225
-0.17
-0.075
-0.045
-0.1
-0.185
-0.23
-0.18
-0.12
-0.13
-0.175
-0.225
-0.24
-0.23
-0.185
-0.135
-0.085
-0.02
-0.02
-0.09
-0.165
-0.185
-0.145
-0.065
-0.03
-0.07
-0.135
-0.2
-0.205
-0.175
-0.12
-0.095
-0.1
-0.1
-0.07
0.01
0.055
0.045
0.0
-0.12
-0.185
-0.175
-0.105
-0.075
-0.03
0.04
0.115
0.15
0.105
-0.03
-0.11
-0.13
-0.125
-0.125
-0.12
-0.145
-0.145
-0.17
-0.215
-0.265
-0.285
-0.265
-0.185
-0.075
0.07
0.19
0.245
0.12
-0.06
-0.22
-0.315
-0.28
-0.185
-0.14
-0.165
-0.22
-0.245
-0.255
-0.305
-0.355
-0.37
-0.355
-0.305
-0.235
-0.19
-0.175
-0.165
-0.145
-0.15
-0.155
-0.17
-0.175
-0.185
-0.195
-0.18
-0.145
-0.11
-0.08
-0.065
-0.07
-0.065
-0.055
-0.025
-0.025
-0.015
-0.01
0.045
0.13
0.195
0.24
0.265
0.215
0.15
0.11
0.115
0.12
0.015
-0.26
-0.67
-1.205
-1.67
-1.965
-2.045
-2.015
-1.995
-1.915
-1.795
-1.7
-1.67
-1.62
-1.54
-1.42
-1.29
-1.18
-1.065
-0.915
-0.74
-0.635
-0.655
-0.695
-0.73
-0.76
-0.705
-0.56
-0.405
-0.35
-0.395
-0.495
-0.56
-0.535
-0.435
-0.265
-0.04
0.105
0.12
0.1
0.165
0.315
0.485
0.53
0.39
0.13
-0.08
-0.08
0.1
0.305
0.46
0.56
0.535
0.42
0.345
0.31
0.265
0.23
0.26
0.37
0.465
0.44
0.355
0.29
0.245
0.245
0.32
0.425
0.475
0.495
0.565
0.625
0.67
0.695
0.695
0.63
0.57
0.52
0.485
0.475
0.49
0.54
0.56
0.585
0.635
0.685
0.74
0.77
0.705
0.595
0.535
0.56
0.66
0.765
0.765
0.65
0.485
0.3
0.16
0.165
0.325
0.45
0.435
0.4
0.38
0.38
0.365
0.335
0.33
0.305
0.255
0.225
0.205
0.165
0.155
0.105
0.07
0.045
0.045
0.06
0.085
0.11
0.13
0.135
0.125
0.115
0.115
0.11
0.09
0.085
0.08
0.07
0.06
0.03
0.0
-0.01
0.03
0.045
0.03
-0.01
0.0
0.01
0.005
-0.015
-0.02
-0.02
-0.01
-0.025
-0.03
-0.035
-0.035
-0.03
-0.03
-0.03
-0.035
-0.03
-0.04
-0.05
-0.05
-0.055
-0.05
-0.065
-0.06
-0.055
-0.05
-0.055
-0.035
-0.03
-0.02
-0.02
0.0
0.045
0.115
0.14
0.095
-0.045
-0.185
-0.285
-0.29
-0.23
-0.165
-0.135
-0.135
-0.13
-0.115
-0.1
-0.08
-0.09
-0.095
-0.065
-0.07
-0.075
-0.1
-0.09
-0.075
-0.075
-0.055
-0.065
-0.065
-0.07
-0.06
-0.045
-0.02
0.01
-0.005
-0.02
-0.015
0.035
0.1
0.165
0.215
0.17
-0.01
-0.18
-0.285
-0.345
-0.36
-0.32
-0.275
-0.195
-0.145
-0.125
-0.105
-0.095
-0.085
-0.065
-0.06
-0.07
-0.065
-0.065
-0.055
-0.035
0.0
0.035
0.06
0.035
-0.015
-0.075
-0.1
-0.095
-0.055
-0.04
-0.045
-0.025
-0.02
-0.04
-0.06
-0.105
-0.165
-0.2
-0.215
-0.215
-0.195
-0.175
-0.145
-0.125
-0.105
-0.095
-0.09
-0.06
0.005
0.045
0.035
-0.04
-0.15
-0.265
-0.32
-0.315
-0.255
-0.195
-0.145
-0.075
0.0
0.015
-0.04
-0.14
-0.21
-0.26
-0.245
-0.185
-0.115
-0.065
-0.05
-0.095
-0.18
-0.245
-0.265
-0.235
-0.13
0.02
0.175
0.315
0.405
0.475
0.54
0.645
0.77
0.89
0.955
0.94
0.88
0.805
0.72
0.57
0.32
-0.005
-0.27
-0.47
-0.55
-0.55
-0.5
-0.44
-0.365
-0.33
-0.315
-0.315
-0.3
-0.285
-0.285
-0.295
-0.3
-0.32
-0.36
-0.415
-0.4
-0.355
-0.325
-0.295
-0.285
-0.3
-0.315
-0.335
-0.315
-0.25
-0.175
-0.145
-0.15
-0.195
-0.28
-0.39
-0.44
-0.45
-0.41
-0.38
-0.355
-0.345
-0.34
-0.32
-0.325
-0.3
-0.29
-0.275
-0.295
-0.29
-0.285
-0.285
-0.305
-0.285
-0.25
-0.255
-0.25
-0.255
-0.28
-0.265
-0.26
-0.245
-0.24
-0.245
-0.245
-0.225
-0.215
-0.2
-0.215
-0.27
-0.275
-0.205
-0.17
-0.17
-0.16
-0.15
-0.165
-0.16
-0.175
-0.2
-0.2
-0.19
-0.195
-0.205
-0.205
-0.195
-0.155
-0.12
-0.035
0.045
0.105
0.11
0.075
-0.005
-0.09
-0.15
-0.155
-0.165
-0.165
-0.19
-0.22
-0.28
-0.31
-0.315
-0.265
-0.22
-0.16
-0.135
-0.12
-0.13
-0.145
-0.145
-0.15
-0.18
-0.19
-0.2
-0.18
-0.14
-0.065
0.03
0.11
0.17
0.14
-0.005
-0.215
-0.395
-0.485
-0.465
-0.395
-0.335
-0.305
-0.28
-0.255
-0.255
-0.245
-0.25
-0.245
-0.245
-0.245
-0.24
-0.245
-0.235
-0.255
-0.255
-0.255
-0.245
-0.245
-0.255
-0.265
-0.25
-0.245
-0.24
-0.245
-0.235
-0.24
-0.225
-0.195
-0.195
-0.18
-0.185
-0.175
-0.155
-0.15
-0.155
-0.16
-0.16
-0.13
-0.1
-0.085
-0.08
-0.055
-0.03
0.0
0.0
-0.015
-0.075
-0.115
-0.205
-0.29
-0.445
-0.745
-1.135
-1.46
-1.665
-1.775
-1.87
-1.96
-2.03
-2.04
-1.985
-1.9
-1.78
-1.675
-1.57
-1.49
-1.385
-1.3
-1.21
-1.13
-1.065
-0.98
-0.945
-0.92
-0.88
-0.835
-0.795
-0.73
-0.69
-0.65
-0.575
-0.485
-0.45
-0.415
-0.39
-0.385
-0.405
-0.42
-0.405
-0.335
-0.28
-0.25
-0.215
-0.155
-0.035
0.1
0.225
0.295
0.3
0.25
0.16
0.03
-0.08
-0.075
0.045
0.175
0.23
0.235
0.185
0.135
0.12
0.125
0.135
0.185
0.235
0.31
0.375
0.405
0.395
0.37
0.36
0.36
0.37
0.41
0.42
0.405
0.38
0.36
0.34
0.355
0.385
0.42
0.475
0.55
0.625
0.64
0.565
0.425
0.3
0.25
0.29
0.395
0.445
0.475
0.475
0.46
0.46
0.44
0.43
0.455
0.46
0.45
0.43
0.435
0.43
0.42
0.41
0.375
0.385
0.42
0.43
0.415
0.375
0.345
0.31
0.29
0.25
0.195
0.135
0.085
0.045
0.105
0.22
0.275
0.235
0.13
0.005
-0.125
-0.19
-0.215
-0.24
-0.22
-0.15
-0.085
-0.075
-0.095
-0.125
-0.135
-0.145
-0.155
-0.18
-0.205
-0.21
-0.165
-0.115
-0.06
-0.045
-0.035
-0.07
-0.09
-0.09
-0.055
-0.035
-0.04
-0.055
-0.125
-0.185
-0.2
-0.165
-0.145
-0.18
-0.26
-0.33
-0.36
-0.355
-0.33
-0.3
-0.27
-0.255
-0.23
-0.22
-0.205
-0.215
-0.21
-0.225
-0.22
-0.21
-0.195
-0.21
-0.21
-0.2
-0.195
-0.2
-0.215
-0.225
-0.225
-0.225
-0.205
-0.195
-0.19
-0.165
-0.145
-0.095
-0.015
0.055
0.065
-0.055
-0.235
-0.415
-0.505
-0.475
-0.355
-0.265
-0.23
-0.22
-0.2
-0.205
-0.23
-0.255
-0.265
-0.26
-0.24
-0.205
-0.16
-0.165
-0.145
-0.125
-0.115
-0.15
-0.17
-0.14
-0.085
-0.075
-0.12
-0.2
-0.245
-0.235
-0.235
-0.28
-0.34
-0.355
-0.33
-0.28
-0.255
-0.27
-0.27
-0.285
-0.255
-0.245
-0.225
-0.205
-0.195
-0.225
-0.22
-0.225
-0.22
-0.215
-0.2
-0.22
-0.19
-0.18
-0.18
-0.19
-0.18
-0.145
-0.09
-0.015
0.01
-0.035
-0.115
-0.22
-0.27
-0.32
-0.35
-0.31
-0.235
-0.17
-0.16
-0.18
-0.21
-0.2
-0.19
-0.21
-0.24
-0.26
-0.25
-0.25
-0.255
-0.275
-0.275
-0.265
-0.25
-0.22
-0.21
-0.22
-0.225
-0.24
-0.255
-0.305
-0.32
-0.325
-0.33
-0.325
-0.29
-0.2
-0.145
-0.165
-0.185
-0.185
-0.175
-0.17
-0.165
-0.165
-0.19
-0.22
-0.245
-0.235
-0.19
-0.13
-0.055
0.035
0.14
0.25
0.36
0.455
0.57
0.675
0.785
0.87
0.94
0.925
0.84
0.655
0.425
0.095
-0.22
-0.42
-0.56
-0.63
-0.625
-0.57
-0.5
-0.455
-0.45
-0.44
-0.415
-0.395
-0.38
-0.405
-0.425
-0.44
-0.44
-0.43
-0.425
-0.425
-0.41
-0.395
-0.38
-0.37
-0.355
-0.355
-0.35
-0.365
-0.385
-0.4
-0.38
-0.375
-0.36
-0.345
-0.33
-0.315
-0.295
-0.28
-0.295
-0.32
-0.34
-0.355
-0.34
-0.33
-0.315
-0.315
-0.285
-0.255
-0.24
-0.24
-0.245
-0.24
-0.245
-0.24
-0.24
-0.25
-0.245
-0.25
-0.25
-0.23
-0.215
-0.235
-0.245
-0.255
-0.235
-0.215
-0.205
-0.195
-0.215
-0.22
-0.2
-0.18
-0.18
-0.185
-0.185
-0.18
-0.17
-0.145
-0.14
-0.145
-0.175
-0.19
-0.195
-0.16
-0.135
-0.13
-0.12
-0.11
-0.1
-0.095
-0.07
-0.08
-0.105
-0.1
-0.085
-0.06
-0.07
-0.08
-0.065
-0.05
-0.035
-0.025
-0.025
-0.03
-0.035
-0.06
-0.055
-0.055
-0.05
-0.055
-0.055
-0.04
-0.05
-0.03
-0.025
-0.045
-0.05
-0.06
-0.075
-0.09
-0.06
-0.055
-0.06
-0.08
-0.08
-0.055
-0.03
-0.05
-0.065
-0.075
-0.1
-0.125
-0.15
-0.135
-0.09
-0.07
-0.08
-0.095
-0.105
-0.12
-0.15
-0.15
-0.155
-0.11
-0.06
-0.045
-0.06
-0.085
-0.095
-0.07
-0.03
-0.015
0.01
-0.01
-0.005
0.025
0.075
0.11
0.12
0.115
0.1
0.09
0.1
0.095
0.065
-0.055
-0.235
-0.505
-0.88
-1.255
-1.575
-1.86
-2.06
-2.115
-2.07
-2.05
-2.035
-1.995
-1.925
-1.835
-1.74
-1.635
-1.54
-1.445
-1.34
-1.215
-1.095
-0.995
-0.9
-0.825
-0.765
-0.725
-0.655
-0.605
-0.54
-0.49
-0.44
-0.4
-0.345
-0.3
-0.245
-0.16
-0.05
0.05
0.115
0.11
0.115
0.135
0.195
0.275
0.33
0.32
0.31
0.295
0.295
0.33
0.37
0.39
0.395
0.375
0.37
0.395
0.43
0.45
0.46
0.465
0.475
0.49
0.51
0.51
0.495
0.495
0.52
0.545
0.58
0.59
0.585
0.59
0.605
0.635
0.66
0.655
0.685
0.68
0.675
0.685
0.71
0.705
0.695
0.695
0.695
0.705
0.72
0.71
0.705
0.695
0.68
0.685
0.705
0.7
0.69
0.65
0.645
0.65
0.64
0.605
0.58
0.54
0.52
0.51
0.49
0.445
0.42
0.38
0.36
0.34
0.305
0.275
0.255
0.215
0.2
0.185
0.185
0.165
0.145
0.13
0.125
0.105
0.09
0.075
0.04
0.025
0.0
-0.015
-0.025
-0.035
-0.045
-0.045
-0.035
-0.035
-0.045
-0.065
-0.075
-0.085
-0.1
-0.1
-0.07
-0.07
-0.075
-0.105
-0.14
-0.15
-0.15
-0.155
-0.165
-0.19
-0.19
-0.18
-0.17
-0.175
-0.175
-0.18
-0.165
-0.155
-0.15
-0.165
-0.18
-0.205
-0.22
-0.21
-0.195
-0.195
-0.205
-0.235
-0.26
-0.26
-0.23
-0.24
-0.24
-0.26
-0.26
-0.25
-0.27
-0.26
-0.26
-0.25
-0.25
-0.255
-0.24
-0.23
-0.245
-0.26
-0.26
-0.24
-0.24
-0.265
-0.29
-0.295
-0.28
-0.275
-0.26
-0.26
-0.255
-0.255
-0.26
-0.245
-0.235
-0.245
-0.255
-0.275
-0.27
-0.26
-0.25
-0.25
-0.255
-0.255
-0.28
-0.295
-0.29
-0.275
-0.265
-0.28
-0.265
-0.255
-0.24
-0.25
-0.235
-0.23
-0.24
-0.255
-0.26
-0.25
-0.25
-0.245
-0.245
-0.23
-0.215
-0.205
-0.235
-0.25
-0.255
-0.245
-0.245
-0.255
-0.265
-0.285
-0.285
-0.275
-0.265
-0.275
-0.27
-0.28
-0.28
-0.295
-0.29
-0.28
-0.265
-0.265
-0.265
-0.255
-0.255
-0.25
-0.255
-0.29
-0.32
-0.35
-0.34
-0.32
-0.265
-0.24
-0.275
-0.285
-0.26
-0.235
-0.23
-0.245
-0.25
-0.255
-0.245
-0.26
-0.265
-0.25
-0.265
-0.28
-0.285
-0.3
-0.29
-0.255
-0.21
-0.13
-0.065
0.01
0.1
0.185
0.27
0.355
0.44
0.525
0.625
0.69
0.695
0.62
0.51
0.41
0.25
-0.005
-0.275
-0.455
-0.57
-0.635
-0.63
-0.6
-0.55
-0.525
-0.52
-0.52
-0.49
-0.47
-0.45
-0.44
-0.44
-0.46
-0.475
-0.495
-0.495
-0.485
-0.47
-0.45
-0.43
-0.425
-0.435
-0.435
-0.435
-0.435
-0.445
-0.45
-0.455
-0.44
-0.385
-0.355
-0.37
-0.41
-0.435
-0.435
-0.42
-0.415
-0.41
-0.43
-0.43
-0.43
-0.405
-0.405
-0.405
-0.405
-0.395
-0.385
-0.385
-0.39
-0.4
-0.405
-0.4
-0.375
-0.37
-0.375
-0.385
-0.395
-0.38
-0.365
-0.355
-0.365
-0.37
-0.385
-0.38
-0.37
-0.365
-0.375
-0.355
-0.36
-0.365
-0.355
-0.355
-0.365
-0.36
-0.36
-0.345
-0.325
-0.31
-0.325
-0.325
-0.33
-0.33
-0.32
-0.305
-0.295
-0.305
-0.305
-0.275
-0.265
-0.25
-0.265
-0.28
-0.305
-0.295
-0.27
-0.26
-0.245
-0.255
-0.245
-0.255
-0.25
-0.245
-0.26
-0.255
-0.255
-0.27
-0.265
-0.265
-0.3
-0.325
-0.335
-0.335
-0.305
-0.27
-0.25
-0.255
-0.265
-0.265
-0.265
-0.25
-0.255
-0.265
-0.28
-0.3
-0.295
-0.295
-0.3
-0.3
-0.31
-0.295
-0.31
-0.305
-0.32
-0.325
-0.34
-0.33
-0.32
-0.335
-0.31
-0.315
-0.33
-0.32
-0.325
-0.325
-0.325
-0.3
-0.29
-0.29
-0.28
-0.255
-0.24
-0.235
-0.22
-0.215
-0.21
-0.195
-0.165
-0.125
-0.095
-0.045
0.05
0.11
0.105
0.065
0.045
0.005
-0.17
-0.51
-0.98
-1.445
-1.745
-1.895
-1.945
-1.96
-1.99
-1.99
-1.955
-1.915
-1.865
-1.78
-1.67
-1.54
-1.44
-1.395
-1.35
-1.27
-1.15
-1.02
-0.965
-0.91
-0.885
-0.835
-0.8
-0.735
-0.65
-0.58
-0.55
-0.525
-0.525
-0.51
-0.485
-0.45
-0.41
-0.34
-0.305
-0.255
-0.2
-0.145
-0.1
-0.05
-0.025
0.005
0.015
0.035
0.055
0.06
0.06
0.07
0.085
0.095
0.11
0.125
0.12
0.13
0.145
0.17
0.185
0.215
0.22
0.255
0.265
0.275
0.275
0.295
0.315
0.325
0.335
0.355
0.37
0.38
0.385
0.4
0.4
0.405
0.41
0.445
0.45
0.445
0.44
0.45
0.46
0.47
0.465
0.46
0.455
0.45
0.455
0.46
0.465
0.47
0.445
0.44
0.44
0.435
0.4
0.38
0.38
0.4
0.395
0.365
0.345
0.33
0.32
0.3
0.27
0.225
0.205
0.195
0.18
0.165
0.145
0.12
0.075
0.055
0.04
0.035
0.015
0.01
-0.015
-0.045
-0.08
-0.095
-0.105
-0.1
-0.115
-0.145
-0.15
-0.125
-0.13
-0.155
-0.2
-0.21
-0.22
-0.23
-0.25
-0.29
-0.3
-0.33
-0.36
-0.37
-0.375
-0.365
-0.335
-0.29
-0.265
-0.22
-0.155
-0.03
0.055
0.13
0.185
0.255
0.375
0.51
0.63
0.715
0.77
0.815
0.735
0.545
0.32
0.07
-0.165
-0.365
-0.495
-0.585
-0.67
-0.74
-0.775
-0.79
-0.765
-0.74
-0.69
-0.65
-0.625
-0.57
-0.51
-0.455
-0.425
-0.425
-0.44
-0.42
-0.41
-0.395
-0.39
-0.4
-0.415
-0.425
-0.425
-0.42
-0.425
-0.445
