Lead II
-0.065
-0.06
-0.05
-0.06
-0.065
-0.085
-0.095
-0.075
-0.06
-0.07
-0.075
-0.09
-0.09
-0.075
-0.06
-0.095
-0.1
-0.11
-0.11
-0.095
-0.085
-0.095
-0.12
-0.14
-0.15
-0.145
-0.145
-0.16
-0.175
-0.195
-0.19
-0.2
-0.195
-0.195
-0.2
-0.22
-0.225
-0.215
-0.2
-0.22
-0.24
-0.245
-0.24
-0.235
-0.22
-0.225
-0.225
-0.24
-0.245
-0.23
-0.225
-0.23
-0.245
-0.26
-0.25
-0.235
-0.22
-0.225
-0.225
-0.245
-0.255
-0.235
-0.21
-0.215
-0.225
-0.235
-0.235
-0.215
-0.2
-0.205
-0.21
-0.22
-0.235
-0.215
-0.2
-0.2
-0.205
-0.235
-0.22
-0.215
-0.195
-0.2
-0.225
-0.225
-0.21
-0.2
-0.175
-0.185
-0.185
-0.19
-0.19
-0.17
-0.16
-0.165
-0.17
-0.165
-0.185
-0.16
-0.165
-0.155
-0.18
-0.17
-0.175
-0.175
-0.17
-0.155
-0.17
-0.17
-0.175
-0.145
-0.14
-0.145
-0.145
-0.165
-0.17
-0.16
-0.15
-0.135
-0.15
-0.16
-0.17
-0.155
-0.145
-0.145
-0.155
-0.145
-0.15
-0.14
-0.13
-0.145
-0.145
-0.16
-0.16
-0.155
-0.14
-0.14
-0.14
-0.15
-0.16
-0.14
-0.12
-0.135
-0.15
-0.165
-0.16
-0.15
-0.14
-0.145
-0.155
-0.16
-0.16
-0.145
-0.145
-0.135
-0.15
-0.165
-0.17
-0.16
-0.14
-0.15
-0.145
-0.155
-0.16
-0.155
-0.15
-0.15
-0.155
-0.2
-0.175
-0.16
-0.145
-0.15
-0.155
-0.175
-0.17
-0.165
-0.135
-0.155
-0.16
-0.17
-0.19
-0.165
-0.155
-0.155
-0.17
-0.18
-0.18
-0.175
-0.155
-0.17
-0.175
-0.175
-0.18
-0.18
-0.16
-0.17
-0.19
-0.195
-0.195
-0.175
-0.175
-0.175
-0.18
-0.185
-0.19
-0.19
-0.18
-0.2
-0.205
-0.21
-0.2
-0.195
-0.18
-0.2
-0.205
-0.205
-0.205
-0.185
-0.16
-0.18
-0.195
-0.205
-0.215
-0.195
-0.18
-0.18
-0.2
-0.22
-0.225
-0.215
-0.19
-0.215
-0.21
-0.21
-0.21
-0.195
-0.18
-0.19
-0.19
-0.215
-0.22
-0.2
-0.205
-0.215
-0.22
-0.23
-0.235
-0.23
-0.205
-0.22
-0.235
-0.225
-0.23
-0.215
-0.21
-0.21
-0.22
-0.24
-0.23
-0.23
-0.215
-0.22
-0.22
-0.24
-0.245
-0.225
-0.215
-0.215
-0.245
-0.245
-0.235
-0.235
-0.22
-0.24
-0.235
-0.25
-0.25
-0.25
-0.23
-0.22
-0.235
-0.245
-0.26
-0.225
-0.215
-0.21
-0.225
-0.235
-0.245
-0.22
-0.21
-0.215
-0.22
-0.23
-0.25
-0.24
-0.205
-0.235
-0.235
-0.235
-0.235
-0.21
-0.205
-0.215
-0.215
-0.25
-0.225
-0.235
-0.2
-0.21
-0.225
-0.235
-0.225
-0.21
-0.19
-0.19
-0.215
-0.225
-0.21
-0.2
-0.19
-0.2
-0.215
-0.22
-0.22
-0.205
-0.185
-0.195
-0.21
-0.23
-0.2
-0.19
-0.17
-0.175
-0.205
-0.2
-0.2
-0.185
-0.165
-0.185
-0.185
-0.195
-0.185
-0.18
-0.165
-0.165
-0.17
-0.18
-0.2
-0.175
-0.14
-0.155
-0.165
-0.18
-0.175
-0.155
-0.145
-0.135
-0.17
-0.17
-0.175
-0.16
-0.155
-0.145
-0.15
-0.175
-0.17
-0.165
-0.145
-0.16
-0.18
-0.2
-0.18
-0.18
-0.15
-0.155
-0.155
-0.165
-0.165
-0.155
-0.14
-0.11
-0.125
-0.12
-0.1
-0.09
-0.085
-0.095
-0.095
-0.115
-0.11
-0.09
-0.075
-0.075
-0.09
-0.085
-0.08
-0.085
-0.085
-0.075
-0.095
-0.08
-0.055
0.035
0.14
0.24
0.32
0.345
0.305
0.195
0.07
-0.035
-0.1
-0.12
-0.1
-0.085
-0.075
-0.08
-0.095
-0.125
-0.115
-0.105
-0.085
-0.1
-0.105
-0.13
-0.115
-0.1
-0.08
-0.095
-0.105
-0.11
-0.12
-0.11
-0.105
-0.09
-0.095
-0.115
-0.11
-0.095
-0.085
-0.085
-0.11
-0.11
-0.105
-0.095
-0.07
-0.065
-0.075
-0.085
-0.08
-0.09
-0.075
-0.06
-0.055
-0.085
-0.06
-0.06
-0.035
-0.045
-0.05
-0.07
-0.045
-0.055
-0.03
-0.025
-0.03
-0.03
-0.04
-0.02
-0.015
-0.005
-0.02
-0.02
-0.015
0.0
0.005
0.015
-0.005
-0.005
-0.01
0.015
0.025
0.025
0.015
0.01
0.01
0.015
0.02
0.03
0.005
-0.01
-0.01
0.015
0.02
0.01
0.0
-0.01
-0.01
-0.005
0.0
-0.005
-0.015
-0.03
-0.03
-0.025
-0.015
-0.035
-0.055
-0.055
-0.07
-0.05
-0.04
-0.055
-0.08
-0.09
-0.11
-0.095
-0.1
-0.105
-0.12
-0.135
-0.145
-0.155
-0.135
-0.145
-0.165
-0.195
-0.175
-0.175
-0.17
-0.185
-0.2
-0.225
-0.225
-0.215
-0.19
-0.195
-0.21
-0.225
-0.23
-0.23
-0.23
-0.21
-0.245
-0.245
-0.245
-0.235
-0.23
-0.23
-0.25
-0.26
-0.26
-0.225
-0.235
-0.23
-0.235
-0.25
-0.25
-0.235
-0.225
-0.23
-0.235
-0.245
-0.245
-0.24
-0.215
-0.235
-0.24
-0.25
-0.26
-0.24
-0.23
-0.225
-0.235
-0.24
-0.24
-0.24
-0.22
-0.215
-0.25
-0.24
-0.225
-0.225
-0.215
-0.21
-0.23
-0.24
-0.25
-0.245
-0.22
-0.225
-0.235
-0.245
-0.24
-0.235
-0.22
-0.22
-0.225
-0.245
-0.24
-0.225
-0.21
-0.23
-0.245
-0.25
-0.25
-0.235
-0.235
-0.235
-0.24
-0.25
-0.24
-0.23
-0.225
-0.23
-0.235
-0.245
-0.245
-0.22
-0.225
-0.23
-0.24
-0.26
-0.255
-0.23
-0.215
-0.215
-0.24
-0.26
-0.245
-0.235
-0.225
-0.235
-0.24
-0.24
-0.23
-0.225
-0.23
-0.225
-0.235
-0.255
-0.235
-0.22
-0.225
-0.24
-0.24
-0.245
-0.255
-0.235
-0.23
-0.23
-0.235
-0.245
-0.245
-0.235
-0.215
-0.235
-0.255
-0.235
-0.245
-0.25
-0.23
-0.225
-0.24
-0.255
-0.25
-0.25
-0.24
-0.245
-0.235
-0.25
-0.26
-0.25
-0.23
-0.235
-0.25
-0.245
-0.245
-0.24
-0.225
-0.24
-0.245
-0.26
-0.25
-0.25
-0.24
-0.26
-0.275
-0.3
-0.3
-0.31
-0.29
-0.31
-0.34
-0.36
-0.355
-0.34
-0.325
-0.325
-0.33
-0.325
-0.305
-0.3
-0.28
-0.28
-0.265
-0.275
-0.265
-0.25
-0.225
-0.215
-0.215
-0.215
-0.21
-0.19
-0.19
-0.19
-0.195
-0.205
-0.195
-0.195
-0.18
-0.18
-0.18
-0.2
-0.19
-0.19
-0.16
-0.17
-0.17
-0.17
-0.16
-0.16
-0.135
-0.145
-0.13
-0.135
-0.085
-0.01
0.085
0.175
0.235
0.275
0.295
0.245
0.135
-0.01
-0.11
-0.175
-0.195
-0.175
-0.16
-0.16
-0.165
-0.195
-0.195
-0.185
-0.185
-0.185
-0.195
-0.195
-0.195
-0.18
-0.17
-0.175
-0.175
-0.185
-0.2
-0.18
-0.165
-0.155
-0.175
-0.195
-0.19
-0.17
-0.155
-0.16
-0.165
-0.19
-0.19
-0.17
-0.145
-0.14
-0.155
-0.17
-0.165
-0.15
-0.13
-0.135
-0.16
-0.18
-0.16
-0.15
-0.145
-0.155
-0.15
-0.165
-0.155
-0.14
-0.135
-0.14
-0.15
-0.16
-0.16
-0.15
-0.145
-0.13
-0.155
-0.175
-0.16
-0.155
-0.135
-0.145
-0.16
-0.17
-0.16
-0.16
-0.135
-0.14
-0.145
-0.17
-0.175
-0.165
-0.155
-0.155
-0.165
-0.175
-0.195
-0.17
-0.16
-0.185
-0.2
-0.21
-0.21
-0.195
-0.195
-0.2
-0.24
-0.24
-0.22
-0.215
-0.2
-0.23
-0.23
-0.255
-0.24
-0.23
-0.215
-0.23
-0.25
-0.25
-0.255
-0.24
-0.235
-0.245
-0.255
-0.27
-0.265
-0.26
-0.25
-0.245
-0.265
-0.28
-0.27
-0.265
-0.255
-0.255
-0.27
-0.275
-0.26
-0.25
-0.24
-0.245
-0.26
-0.27
-0.265
-0.26
-0.24
-0.245
-0.255
-0.255
-0.27
-0.25
-0.25
-0.245
-0.24
-0.265
-0.25
-0.245
-0.23
-0.23
-0.245
-0.255
-0.27
-0.235
-0.24
-0.235
-0.24
-0.25
-0.25
-0.235
-0.22
-0.235
-0.23
-0.245
-0.245
-0.23
-0.22
-0.22
-0.225
-0.25
-0.245
-0.23
-0.22
-0.215
-0.235
-0.235
-0.25
-0.235
-0.215
-0.21
-0.225
-0.23
-0.235
-0.21
-0.205
-0.205
-0.22
-0.22
-0.22
-0.2
-0.2
-0.205
-0.225
-0.23
-0.235
-0.215
-0.195
-0.21
-0.215
-0.225
-0.24
-0.205
-0.195
-0.21
-0.22
-0.245
-0.235
-0.215
-0.205
-0.215
-0.23
-0.24
-0.24
-0.235
-0.205
-0.22
-0.24
-0.235
-0.235
-0.225
-0.215
-0.22
-0.22
-0.255
-0.24
-0.24
-0.22
-0.22
-0.23
-0.26
-0.255
-0.235
-0.23
-0.225
-0.245
-0.255
-0.245
-0.235
-0.22
-0.235
-0.24
-0.255
-0.255
-0.24
-0.225
-0.22
-0.24
-0.26
-0.25
-0.235
-0.22
-0.235
-0.255
-0.255
-0.25
-0.23
-0.225
-0.235
-0.24
-0.26
-0.245
-0.24
-0.23
-0.23
-0.24
-0.245
-0.24
-0.24
-0.225
-0.24
-0.255
-0.26
-0.26
-0.235
-0.225
-0.225
-0.24
-0.255
-0.245
-0.24
-0.23
-0.23
-0.245
-0.255
-0.265
-0.24
-0.23
-0.235
-0.24
-0.245
-0.24
-0.25
-0.24
-0.24
-0.245
-0.27
-0.245
-0.24
-0.22
-0.225
-0.245
-0.245
-0.25
-0.225
-0.22
-0.225
-0.23
-0.245
-0.245
-0.23
-0.22
-0.22
-0.22
-0.24
-0.245
-0.235
-0.22
-0.225
-0.23
-0.24
-0.245
-0.22
-0.225
-0.23
-0.24
-0.26
-0.255
-0.23
-0.235
-0.24
-0.24
-0.26
-0.255
-0.24
-0.235
-0.24
-0.275
-0.28
-0.31
-0.28
-0.29
-0.31
-0.325
-0.345
-0.34
-0.34
-0.33
-0.325
-0.345
-0.335
-0.325
-0.3
-0.275
-0.26
-0.28
-0.285
-0.28
-0.26
-0.25
-0.24
-0.245
-0.24
-0.23
-0.21
-0.19
-0.18
-0.195
-0.22
-0.215
-0.2
-0.195
-0.195
-0.21
-0.205
-0.22
-0.19
-0.18
-0.175
-0.18
-0.2
-0.205
-0.185
-0.185
-0.195
-0.21
-0.22
-0.21
-0.17
-0.07
0.0
0.1
0.175
0.2
0.155
0.05
-0.08
-0.165
-0.205
-0.185
-0.165
-0.155
-0.18
-0.19
-0.22
-0.21
-0.205
-0.2
-0.215
-0.225
-0.23
-0.215
-0.21
-0.205
-0.21
-0.215
-0.22
-0.225
-0.215
-0.2
-0.205
-0.215
-0.23
-0.23
-0.21
-0.205
-0.205
-0.22
-0.225
-0.225
-0.21
-0.225
-0.215
-0.24
-0.23
-0.23
-0.215
-0.205
-0.22
-0.225
-0.235
-0.23
-0.225
-0.21
-0.21
-0.225
-0.23
-0.245
-0.23
-0.215
-0.215
-0.23
-0.245
-0.245
-0.23
-0.225
-0.235
-0.245
-0.255
-0.255
-0.245
-0.23
-0.25
-0.25
-0.255
-0.255
-0.26
-0.235
-0.235
-0.245
-0.265
-0.27
-0.26
-0.245
-0.26
-0.27
-0.285
-0.285
-0.28
-0.275
-0.275
-0.28
-0.285
-0.285
-0.285
-0.28
-0.29
-0.3
-0.305
-0.315
-0.29
-0.28
-0.29
-0.305
-0.31
-0.305
-0.305
-0.3
-0.285
-0.295
-0.32
-0.32
-0.305
-0.28
-0.275
-0.295
-0.31
-0.295
-0.285
-0.275
-0.275
-0.295
-0.3
-0.295
-0.29
-0.275
-0.285
-0.29
-0.29
-0.295
-0.28
-0.255
-0.26
-0.27
-0.285
-0.265
-0.265
-0.245
-0.25
-0.26
-0.265
-0.265
-0.245
-0.25
-0.245
-0.245
-0.26
-0.26
-0.25
-0.25
-0.24
-0.24
-0.255
-0.245
-0.245
-0.215
-0.23
-0.24
-0.25
-0.24
-0.22
-0.205
-0.225
-0.22
-0.235
-0.23
-0.22
-0.195
-0.215
-0.225
-0.235
-0.235
-0.215
-0.195
-0.205
-0.22
-0.23
-0.215
-0.2
-0.18
-0.2
-0.21
-0.215
-0.205
-0.19
-0.19
-0.2
-0.215
-0.22
-0.215
-0.205
-0.19
-0.2
-0.21
-0.22
-0.225
-0.21
-0.195
-0.205
-0.23
-0.235
-0.21
-0.2
-0.2
-0.195
-0.21
-0.21
-0.205
-0.205
-0.195
-0.185
-0.195
-0.205
-0.2
-0.19
-0.175
-0.18
-0.205
-0.2
-0.21
-0.195
-0.18
-0.175
-0.195
-0.205
-0.205
-0.185
-0.195
-0.205
-0.21
-0.21
-0.2
-0.21
-0.185
-0.18
-0.195
-0.2
-0.195
-0.18
-0.175
-0.18
-0.185
-0.19
-0.19
-0.18
-0.18
-0.185
-0.195
-0.205
-0.195
-0.19
-0.175
-0.18
-0.2
-0.2
-0.185
-0.185
-0.185
-0.19
-0.21
-0.215
-0.2
-0.19
-0.185
-0.18
-0.19
-0.2
-0.2
-0.18
-0.16
-0.175
-0.19
-0.195
-0.195
-0.18
-0.17
-0.18
-0.195
-0.205
-0.2
-0.18
-0.175
-0.185
-0.205
-0.195
-0.185
-0.185
-0.17
-0.185
-0.19
-0.2
-0.195
-0.175
-0.155
-0.17
-0.185
-0.185
-0.18
-0.165
-0.16
-0.17
-0.18
-0.18
-0.18
-0.17
-0.15
-0.165
-0.18
-0.18
-0.195
-0.19
-0.165
-0.17
-0.19
-0.21
-0.18
-0.165
-0.15
-0.155
-0.175
-0.175
-0.185
-0.17
-0.17
-0.165
-0.175
-0.18
-0.17
-0.165
-0.15
-0.185
-0.18
-0.18
-0.165
-0.16
-0.155
-0.165
-0.17
-0.185
-0.185
-0.17
-0.155
-0.17
-0.17
-0.18
-0.185
-0.175
-0.16
-0.16
-0.17
-0.19
-0.19
-0.17
-0.165
-0.17
-0.185
-0.19
-0.195
-0.17
-0.155
-0.155
-0.195
-0.195
-0.19
-0.17
-0.16
-0.16
-0.185
-0.19
-0.165
-0.145
-0.14
-0.155
-0.16
-0.175
-0.16
-0.15
-0.145
-0.16
-0.17
-0.175
-0.155
-0.14
-0.12
-0.135
-0.135
-0.135
-0.13
-0.1
-0.105
-0.105
-0.11
-0.1
-0.105
-0.095
-0.11
-0.115
-0.135
-0.14
-0.115
-0.1
-0.105
-0.11
-0.135
-0.145
-0.145
-0.12
-0.09
-0.115
-0.12
-0.12
-0.095
-0.025
0.055
0.155
0.25
0.34
0.42
0.465
0.405
0.285
0.12
0.01
-0.06
-0.065
-0.08
-0.08
-0.135
-0.145
-0.165
-0.14
-0.14
-0.135
-0.16
-0.17
-0.185
-0.17
-0.16
-0.16
-0.175
-0.185
-0.18
-0.165
-0.145
-0.16
-0.18
-0.185
-0.175
-0.165
-0.145
-0.145
-0.155
-0.17
-0.175
-0.15
-0.135
-0.16
-0.16
-0.18
-0.18
-0.16
-0.15
-0.16
-0.155
-0.185
-0.17
-0.145
-0.155
-0.145
-0.165
-0.165
-0.15
-0.145
-0.14
-0.135
-0.15
-0.16
-0.16
-0.15
-0.15
-0.165
-0.165
-0.175
-0.19
-0.17
-0.14
-0.145
-0.15
-0.17
-0.165
-0.16
-0.145
-0.16
-0.17
-0.175
-0.175
-0.165
-0.16
-0.165
-0.18
-0.195
-0.2
-0.195
-0.185
-0.195
-0.205
-0.22
-0.235
-0.22
-0.195
-0.2
-0.215
-0.24
-0.235
-0.225
-0.21
-0.23
-0.245
-0.25
-0.25
-0.225
-0.21
-0.215
-0.22
-0.245
-0.23
-0.22
-0.225
-0.22
-0.23
-0.24
-0.225
-0.22
-0.235
-0.22
-0.225
-0.25
-0.24
-0.225
-0.22
-0.225
-0.245
-0.255
-0.23
-0.21
-0.205
-0.225
-0.225
-0.23
-0.205
-0.195
-0.2
-0.195
-0.22
-0.22
-0.22
-0.21
-0.18
-0.19
-0.195
-0.21
-0.19
-0.18
-0.17
-0.18
-0.18
-0.185
-0.18
-0.17
-0.15
-0.17
-0.18
-0.18
-0.18
-0.175
-0.16
-0.185
-0.18
-0.2
-0.17
-0.16
-0.15
-0.16
-0.17
-0.175
-0.18
-0.17
-0.165
-0.17
-0.18
-0.175
-0.18
-0.165
-0.155
-0.155
-0.165
-0.17
-0.175
-0.17
-0.155
-0.17
-0.185
-0.175
-0.16
-0.16
-0.145
-0.155
-0.16
-0.17
-0.165
-0.165
-0.165
-0.15
-0.17
-0.175
-0.16
-0.145
-0.145
-0.15
-0.16
-0.17
-0.17
-0.16
-0.15
-0.155
-0.175
-0.18
-0.165
-0.155
-0.135
-0.145
-0.16
-0.17
-0.16
-0.17
-0.155
-0.165
-0.17
-0.165
-0.175
-0.165
-0.16
-0.17
-0.175
-0.18
-0.185
-0.165
-0.16
-0.16
-0.185
-0.175
-0.185
-0.165
-0.165
-0.16
-0.175
-0.18
-0.185
-0.155
-0.155
-0.16
-0.16
-0.175
-0.165
-0.155
-0.15
-0.175
-0.185
-0.19
-0.18
-0.175
-0.16
-0.17
-0.18
-0.18
-0.195
-0.165
-0.16
-0.17
-0.19
-0.195
-0.19
-0.17
-0.16
-0.16
-0.175
-0.19
-0.18
-0.175
-0.17
-0.165
-0.185
-0.21
-0.19
-0.18
-0.17
-0.185
-0.18
-0.195
-0.19
-0.18
-0.17
-0.17
-0.18
-0.18
-0.19
-0.16
-0.16
-0.17
-0.19
-0.19
-0.185
-0.175
-0.165
-0.175
-0.185
-0.195
-0.185
-0.18
-0.17
-0.175
-0.18
-0.195
-0.185
-0.175
-0.165
-0.185
-0.165
-0.175
-0.18
-0.165
-0.165
-0.185
-0.195
-0.2
-0.2
-0.18
-0.165
-0.165
-0.19
-0.19
-0.195
-0.18
-0.18
-0.19
-0.205
-0.22
-0.205
-0.185
-0.175
-0.18
-0.205
-0.225
-0.22
-0.205
-0.19
-0.195
-0.22
-0.215
-0.215
-0.205
-0.195
-0.185
-0.19
-0.21
-0.205
-0.22
-0.2
-0.205
-0.215
-0.225
-0.22
-0.215
-0.21
-0.225
-0.22
-0.215
-0.215
-0.22
-0.205
-0.23
-0.235
-0.245
-0.235
-0.235
-0.21
-0.22
-0.22
-0.23
-0.215
-0.2
-0.21
-0.215
-0.225
-0.235
-0.22
-0.21
-0.19
-0.205
-0.21
-0.245
-0.225
-0.215
-0.205
-0.21
-0.235
-0.23
-0.225
-0.22
-0.21
-0.23
-0.23
-0.24
-0.23
-0.24
-0.225
-0.235
-0.24
-0.25
-0.25
-0.22
-0.21
-0.215
-0.23
-0.235
-0.225
-0.22
-0.2
-0.2
-0.225
-0.23
-0.23
-0.2
-0.195
-0.2
-0.215
-0.215
-0.205
-0.19
-0.185
-0.195
-0.2
-0.19
-0.185
-0.165
-0.145
-0.15
-0.175
-0.16
-0.11
-0.03
0.065
0.16
0.27
0.365
0.43
0.445
0.405
0.29
0.185
0.11
0.07
0.04
0.035
0.025
-0.015
-0.05
-0.095
-0.08
-0.08
-0.105
-0.145
-0.175
-0.19
-0.2
-0.215
-0.21
-0.245
-0.255
-0.27
-0.245
-0.255
-0.28
-0.275
-0.3
-0.29
-0.285
-0.275
-0.28
-0.29
-0.29
-0.295
-0.305
-0.27
-0.275
-0.295
-0.305
-0.295
-0.295
-0.275
-0.265
-0.285
-0.305
-0.295
-0.285
-0.28
-0.29
-0.285
-0.305
-0.3
-0.275
-0.265
-0.27
-0.285
-0.28
-0.28
-0.27
-0.275
-0.275
-0.29
-0.295
-0.295
-0.285
-0.27
-0.28
-0.28
-0.29
-0.28
-0.265
-0.255
-0.26
-0.285
-0.29
-0.295
-0.27
-0.27
-0.275
-0.285
-0.295
-0.295
-0.285
-0.275
-0.285
-0.295
-0.305
-0.305
-0.31
-0.29
-0.305
-0.32
-0.33
-0.335
-0.32
-0.32
-0.32
-0.345
-0.35
-0.355
-0.34
-0.355
-0.335
-0.355
-0.36
-0.35
-0.35
-0.335
-0.34
-0.35
-0.345
-0.345
-0.335
-0.32
-0.325
-0.34
-0.355
-0.345
-0.325
-0.305
-0.315
-0.32
-0.32
-0.315
-0.3
-0.285
-0.29
-0.295
-0.31
-0.31
-0.28
-0.27
-0.275
-0.305
-0.295
-0.285
-0.275
-0.265
-0.255
-0.265
-0.285
-0.28
-0.245
-0.245
-0.24
-0.255
-0.25
-0.245
-0.24
-0.225
-0.23
-0.235
-0.23
-0.225
-0.21
-0.2
-0.215
-0.22
-0.22
-0.205
-0.21
-0.21
-0.2
-0.23
-0.23
-0.21
-0.19
-0.19
-0.185
-0.195
-0.205
-0.215
-0.175
-0.18
-0.19
-0.205
-0.2
-0.195
-0.185
-0.165
-0.185
-0.195
-0.205
-0.21
-0.185
-0.175
-0.18
-0.185
-0.21
-0.19
-0.175
-0.165
-0.175
-0.19
-0.19
-0.17
-0.165
-0.16
-0.175
-0.19
-0.195
-0.2
-0.17
-0.165
-0.17
-0.175
-0.19
-0.19
-0.17
-0.17
-0.175
-0.185
-0.195
-0.175
-0.17
-0.155
-0.17
-0.18
-0.185
-0.17
-0.165
-0.15
-0.155
-0.185
-0.195
-0.18
-0.17
-0.175
-0.175
-0.19
-0.19
-0.18
-0.175
-0.16
-0.175
-0.19
-0.195
-0.195
-0.175
-0.17
-0.175
-0.2
-0.185
-0.175
-0.16
-0.155
-0.165
-0.185
-0.195
-0.185
-0.165
-0.16
-0.165
-0.17
-0.185
-0.175
-0.18
-0.165
-0.17
-0.18
-0.195
-0.175
-0.16
-0.16
-0.18
-0.185
-0.19
-0.19
-0.155
-0.165
-0.18
-0.195
-0.18
-0.175
-0.15
-0.16
-0.16
-0.175
-0.18
-0.17
-0.155
-0.15
-0.15
-0.165
-0.185
-0.18
-0.16
-0.14
-0.16
-0.16
-0.175
-0.165
-0.155
-0.15
-0.165
-0.185
-0.195
-0.17
-0.165
-0.15
-0.155
-0.165
-0.18
-0.17
-0.15
-0.14
-0.145
-0.165
-0.175
-0.165
-0.15
-0.15
-0.14
-0.17
-0.17
-0.16
-0.14
-0.135
-0.14
-0.165
-0.165
-0.16
-0.145
-0.14
-0.145
-0.16
-0.165
-0.16
-0.145
-0.145
-0.145
-0.165
-0.165
-0.165
-0.145
-0.145
-0.15
-0.165
-0.175
-0.145
-0.145
-0.145
-0.13
-0.15
-0.17
-0.155
-0.13
-0.135
-0.14
-0.14
-0.155
-0.15
-0.135
-0.13
-0.145
-0.16
-0.155
-0.145
-0.13
-0.135
-0.15
-0.15
-0.16
-0.145
-0.135
-0.13
-0.125
-0.145
-0.145
-0.15
-0.13
-0.135
-0.13
-0.16
-0.165
-0.16
-0.145
-0.145
-0.13
-0.15
-0.15
-0.145
-0.155
-0.155
-0.16
-0.17
-0.16
-0.145
-0.135
-0.135
-0.165
-0.165
-0.185
-0.165
-0.155
-0.14
-0.15
-0.165
-0.165
-0.17
-0.15
-0.145
-0.155
-0.165
-0.175
-0.155
-0.15
-0.135
-0.13
-0.14
-0.16
-0.165
-0.145
-0.13
-0.125
-0.14
-0.14
-0.14
-0.115
-0.11
-0.11
-0.125
-0.115
-0.06
0.03
0.15
0.23
0.32
0.39
0.405
0.345
0.265
0.15
0.045
0.0
-0.01
-0.03
-0.04
-0.08
-0.095
-0.105
-0.12
-0.135
-0.145
-0.16
-0.195
-0.185
-0.18
-0.17
-0.17
-0.19
-0.205
-0.21
-0.19
-0.19
-0.2
-0.195
-0.215
-0.23
-0.225
-0.22
-0.205
-0.215
-0.235
-0.23
-0.25
-0.235
-0.22
-0.22
-0.22
-0.245
-0.23
-0.22
-0.225
-0.22
-0.235
-0.245
-0.24
-0.225
-0.215
-0.215
-0.245
-0.235
-0.215
-0.2
-0.195
-0.195
-0.205
-0.21
-0.195
-0.16
-0.15
-0.15
-0.145
-0.14
-0.13
-0.105
-0.095
-0.11
-0.12
-0.125
-0.125
-0.12
-0.115
-0.135
-0.155
-0.175
-0.18
-0.19
-0.215
-0.235
-0.255
-0.28
-0.28
-0.285
-0.295
-0.305
-0.32
-0.32
-0.325
-0.34
-0.325
-0.335
-0.345
-0.365
-0.365
-0.36
-0.355
-0.37
-0.39
-0.4
-0.385
-0.38
-0.4
-0.415
-0.42
-0.42
-0.42
-0.4
-0.405
-0.4
-0.42
-0.43
-0.41
-0.42
-0.41
-0.41
-0.43
-0.425
-0.42
-0.41
-0.41
-0.41
-0.42
-0.435
-0.425
-0.395
-0.39
-0.38
-0.4
-0.395
-0.385
-0.375
-0.36
-0.38
-0.395
-0.385
-0.37
-0.37
-0.345
-0.355
-0.37
-0.355
-0.355
-0.345
-0.35
-0.365
-0.345
-0.36
-0.35
-0.325
-0.32
-0.335
-0.34
-0.34
-0.335
-0.32
-0.31
-0.32
-0.34
-0.33
-0.325
-0.31
-0.29
-0.305
-0.31
-0.305
-0.295
-0.28
-0.27
-0.285
-0.3
-0.29
-0.29
-0.27
-0.245
-0.255
-0.26
-0.285
-0.275
-0.27
-0.265
-0.24
-0.2
-0.13
-0.025
0.075
0.17
0.22
0.21
0.125
0.025
-0.065
-0.11
-0.16
-0.19
-0.19
-0.19
-0.185
-0.19
-0.23
-0.24
-0.255
-0.24
-0.235
-0.25
-0.26
-0.265
-0.28
-0.27
-0.265
-0.25
-0.275
-0.285
-0.29
-0.29
-0.27
-0.26
-0.265
-0.285
-0.295
-0.29
-0.28
-0.28
-0.28
-0.31
-0.31
-0.3
-0.27
-0.28
-0.27
-0.29
-0.295
-0.29
-0.28
-0.27
-0.28
-0.305
-0.3
-0.29
-0.28
-0.275
-0.295
-0.295
-0.29
-0.29
-0.285
-0.275
-0.275
-0.29
-0.295
-0.295
-0.275
-0.27
-0.28
-0.285
-0.305
-0.3
-0.285
-0.285
-0.305
-0.315
-0.325
-0.315
-0.315
-0.31
-0.335
-0.34
-0.35
-0.35
-0.325
-0.34
-0.34
-0.355
-0.355
-0.35
-0.34
-0.325
-0.345
-0.35
-0.35
-0.345
-0.325
-0.325
-0.325
-0.35
-0.34
-0.325
-0.315
-0.305
-0.295
-0.305
-0.295
-0.29
-0.27
-0.265
-0.28
-0.28
-0.275
-0.275
-0.26
-0.245
-0.235
-0.25
-0.245
-0.24
-0.23
-0.21
-0.225
-0.23
-0.225
-0.215
-0.195
-0.19
-0.21
-0.215
-0.215
-0.21
-0.19
-0.185
-0.19
-0.2
-0.205
-0.195
-0.175
-0.18
-0.18
-0.2
-0.2
-0.19
-0.175
-0.17
-0.175
-0.185
-0.185
-0.175
-0.165
-0.165
-0.175
-0.18
-0.175
-0.185
-0.17
-0.16
-0.17
-0.18
-0.18
-0.175
-0.16
-0.16
-0.155
-0.175
-0.175
-0.175
-0.16
-0.16
-0.17
-0.18
-0.18
-0.16
-0.145
-0.14
-0.145
-0.175
-0.17
-0.15
-0.14
-0.15
-0.15
-0.16
-0.16
-0.145
-0.155
-0.135
-0.145
-0.155
-0.15
-0.16
-0.135
-0.13
-0.135
-0.165
-0.165
-0.15
-0.13
-0.13
-0.145
-0.15
-0.155
-0.145
-0.13
-0.135
-0.135
-0.15
-0.15
-0.145
-0.135
-0.14
-0.14
-0.145
-0.155
-0.145
-0.13
-0.125
-0.135
-0.15
-0.17
-0.135
-0.12
-0.12
-0.125
-0.145
-0.145
-0.135
-0.135
-0.12
-0.115
-0.13
-0.125
-0.115
-0.095
-0.095
-0.1
-0.11
-0.115
-0.105
-0.075
-0.06
-0.075
-0.075
-0.07
-0.055
-0.045
-0.035
-0.025
-0.02
-0.035
-0.015
0.0
-0.005
-0.025
-0.05
-0.06
-0.06
-0.04
-0.045
-0.065
-0.095
-0.11
-0.11
-0.1
-0.115
-0.12
-0.14
-0.145
-0.145
-0.15
-0.125
-0.135
-0.135
-0.145
-0.14
-0.135
-0.12
-0.11
-0.12
-0.12
-0.095
-0.08
-0.065
-0.075
-0.09
-0.085
-0.03
0.03
0.12
0.22
0.3
0.375
0.445
0.465
0.39
0.26
0.11
0.005
-0.05
-0.07
-0.07
-0.075
-0.1
-0.105
-0.105
-0.095
-0.095
-0.1
-0.125
-0.13
-0.135
-0.105
-0.105
-0.12
-0.145
-0.125
-0.13
-0.12
-0.12
-0.13
-0.14
-0.14
-0.13
-0.12
-0.11
-0.115
-0.15
-0.135
-0.125
-0.11
-0.105
-0.13
-0.125
-0.125
-0.125
-0.11
-0.105
-0.115
-0.125
-0.12
-0.12
-0.11
-0.11
-0.125
-0.135
-0.14
-0.13
-0.125
-0.13
-0.12
-0.13
-0.13
-0.135
-0.125
-0.115
-0.135
-0.15
-0.155
-0.145
-0.135
-0.13
-0.135
-0.17
-0.16
-0.145
-0.135
-0.12
-0.14
-0.15
-0.15
-0.14
-0.12
-0.125
-0.115
-0.14
-0.125
-0.115
-0.115
-0.1
-0.1
-0.115
-0.11
-0.105
-0.11
-0.115
-0.125
-0.15
-0.16
-0.155
-0.145
-0.15
-0.165
-0.185
-0.18
-0.165
-0.175
-0.185
-0.205
-0.22
-0.225
-0.225
-0.215
-0.22
-0.225
-0.245
-0.25
-0.24
-0.245
-0.24
-0.235
-0.25
-0.25
-0.245
-0.23
-0.22
-0.23
-0.235
-0.24
-0.21
-0.2
-0.205
-0.195
-0.215
-0.215
-0.21
-0.19
-0.185
-0.18
-0.205
-0.2
-0.2
-0.175
-0.18
-0.185
-0.19
-0.19
-0.17
-0.16
-0.155
-0.16
-0.17
-0.185
-0.18
-0.2
-0.22
-0.24
-0.23
-0.155
-0.06
0.055
0.185
0.255
0.28
0.24
0.14
0.035
-0.035
-0.095
-0.11
-0.105
-0.095
-0.07
-0.085
-0.1
-0.125
-0.14
-0.135
-0.125
-0.125
-0.14
-0.165
-0.155
-0.145
-0.14
-0.15
-0.15
-0.155
-0.175
-0.16
-0.145
-0.15
-0.145
-0.165
-0.16
-0.155
-0.14
-0.145
-0.155
-0.165
-0.165
-0.17
-0.15
-0.145
-0.165
-0.175
-0.18
-0.175
-0.165
-0.17
-0.175
-0.19
-0.185
-0.195
-0.175
-0.175
-0.18
-0.2
-0.2
-0.195
-0.18
-0.175
-0.19
-0.19
-0.2
-0.2
-0.175
-0.18
-0.19
-0.205
-0.195
-0.205
-0.2
-0.19
-0.22
-0.245
-0.25
-0.24
-0.235
-0.24
-0.25
-0.285
-0.285
-0.27
-0.255
-0.265
-0.27
-0.31
-0.305
-0.295
-0.295
-0.28
-0.285
-0.305
-0.305
-0.3
-0.285
-0.275
-0.285
-0.29
-0.295
-0.29
-0.29
-0.285
-0.28
-0.295
-0.295
-0.295
-0.27
-0.265
-0.27
-0.29
-0.29
-0.27
-0.25
-0.25
-0.26
-0.28
-0.28
-0.275
-0.25
-0.25
-0.26
-0.275
-0.285
-0.28
-0.26
-0.25
-0.25
-0.27
-0.265
-0.255
-0.255
-0.255
-0.255
-0.27
-0.27
-0.255
-0.24
-0.24
-0.24
-0.27
-0.27
-0.275
-0.255
-0.245
-0.24
-0.26
-0.275
-0.265
-0.245
-0.245
-0.245
-0.255
-0.255
-0.25
-0.235
-0.245
-0.24
-0.255
-0.255
-0.26
-0.245
-0.24
-0.24
-0.255
-0.255
-0.25
-0.24
-0.235
-0.25
-0.27
-0.28
-0.255
-0.245
-0.235
-0.245
-0.265
-0.26
-0.255
-0.235
-0.23
-0.255
-0.265
-0.265
-0.25
-0.245
-0.25
-0.255
-0.275
-0.26
-0.255
-0.25
-0.245
-0.25
-0.265
-0.26
-0.25
-0.245
-0.24
-0.25
-0.265
-0.275
-0.26
-0.26
-0.265
-0.26
-0.265
-0.275
-0.27
-0.255
-0.24
-0.255
-0.245
-0.24
-0.245
-0.245
-0.235
-0.255
-0.265
-0.265
-0.255
-0.245
-0.24
-0.255
-0.26
-0.27
-0.25
-0.24
-0.235
-0.255
-0.26
-0.28
-0.27
-0.25
-0.245
-0.26
-0.275
-0.26
-0.25
-0.24
-0.245
-0.245
-0.265
-0.27
-0.245
-0.25
-0.245
-0.25
-0.265
-0.275
-0.25
-0.25
-0.235
-0.25
-0.27
-0.265
-0.255
-0.255
-0.255
-0.27
-0.295
-0.28
-0.255
-0.255
-0.25
-0.265
-0.27
-0.265
-0.26
-0.25
-0.265
-0.255
-0.275
-0.27
-0.265
-0.255
-0.255
-0.26
-0.285
-0.28
-0.275
-0.26
-0.27
-0.285
-0.29
-0.29
-0.275
-0.265
-0.26
-0.26
-0.28
-0.28
-0.265
-0.25
-0.245
-0.265
-0.29
-0.285
-0.275
-0.25
-0.255
-0.265
-0.265
-0.28
-0.27
-0.265
-0.265
-0.27
-0.285
-0.28
-0.27
-0.26
-0.255
-0.255
-0.275
-0.285
-0.27
-0.25
-0.26
-0.265
-0.27
-0.275
-0.25
-0.245
-0.245
-0.245
-0.255
-0.275
-0.25
-0.25
-0.245
-0.255
-0.26
-0.26
-0.26
-0.235
-0.23
-0.23
-0.23
-0.235
-0.22
-0.19
-0.185
-0.2
-0.195
-0.19
-0.16
-0.155
-0.14
-0.155
-0.17
-0.18
-0.18
-0.175
-0.18
-0.18
-0.19
-0.195
-0.19
-0.175
-0.185
-0.185
-0.215
-0.23
-0.195
-0.18
-0.175
-0.185
-0.18
-0.165
-0.085
0.015
0.09
0.18
0.26
0.325
0.34
0.285
0.14
-0.025
-0.12
-0.165
-0.175
-0.145
-0.135
-0.165
-0.19
-0.2
-0.195
-0.195
-0.195
-0.21
-0.21
-0.215
-0.205
-0.205
-0.205
-0.195
-0.215
-0.205
-0.195
-0.195
-0.195
-0.22
-0.215
-0.215
-0.205
-0.195
-0.195
-0.19
-0.21
-0.21
-0.205
-0.19
-0.2
-0.205
-0.21
-0.205
-0.205
-0.195
-0.18
-0.205
-0.215
-0.22
-0.205
-0.205
-0.19
-0.2
-0.215
-0.215
-0.205
-0.2
-0.195
-0.205
-0.225
-0.23
-0.21
-0.195
-0.2
-0.215
-0.225
-0.22
-0.21
-0.185
-0.195
-0.2
-0.21
-0.21
-0.205
-0.2
-0.21
-0.22
-0.225
-0.225
-0.215
-0.2
-0.21
-0.22
-0.235
-0.245
-0.23
-0.23
-0.23
-0.235
-0.26
-0.255
-0.255
-0.24
-0.255
-0.265
-0.28
-0.285
-0.27
-0.26
-0.265
-0.285
-0.3
-0.285
-0.28
-0.265
-0.27
-0.28
-0.285
-0.295
-0.275
-0.27
-0.265
-0.28
-0.28
-0.28
-0.265
-0.26
-0.25
-0.27
-0.275
-0.27
-0.26
-0.245
-0.235
-0.255
-0.26
-0.275
-0.255
-0.235
-0.22
-0.24
-0.24
-0.235
-0.235
-0.22
-0.21
-0.21
-0.225
-0.22
-0.2
-0.18
-0.19
-0.195
-0.205
-0.21
-0.2
-0.175
-0.19
-0.2
-0.21
-0.2
-0.18
-0.17
-0.165
-0.18
-0.185
-0.2
-0.18
-0.165
-0.16
-0.175
-0.185
-0.19
-0.18
-0.16
-0.18
-0.185
-0.195
-0.195
