Lead II
-0.775
-0.735
-0.69
-0.645
-0.605
-0.555
-0.515
-0.47
-0.405
-0.355
-0.305
-0.265
-0.215
-0.18
-0.155
-0.13
-0.095
-0.04
-0.005
0.05
0.075
0.115
0.145
0.16
0.185
0.185
0.2
0.215
0.23
0.235
0.23
0.255
0.25
0.25
0.245
0.23
0.235
0.215
0.195
0.185
0.17
0.165
0.165
0.165
0.175
0.17
0.16
0.14
0.095
0.075
0.05
0.035
0.025
0.02
0.02
0.01
-0.005
-0.01
-0.015
-0.01
-0.005
-0.01
-0.005
-0.005
-0.01
-0.03
-0.03
-0.025
-0.005
0.01
0.035
0.05
0.06
0.04
0.035
0.025
0.045
0.06
0.08
0.095
0.12
0.15
0.18
0.2
0.215
0.23
0.255
0.28
0.29
0.31
0.305
0.325
0.33
0.315
0.3
0.265
0.2
0.14
0.075
0.015
-0.015
-0.025
-0.025
-0.035
-0.04
-0.05
-0.045
-0.06
-0.055
-0.055
-0.05
-0.035
-0.05
-0.05
-0.065
-0.065
-0.06
-0.045
-0.025
-0.02
-0.015
-0.02
-0.03
-0.06
-0.07
-0.09
-0.1
-0.09
-0.085
-0.045
0.045
0.19
0.41
0.675
1.01
1.37
1.78
2.18
2.53
2.755
2.785
2.595
2.24
1.745
1.195
0.645
0.155
-0.245
-0.54
-0.72
-0.765
-0.705
-0.58
-0.455
-0.345
-0.275
-0.26
-0.285
-0.33
-0.365
-0.4
-0.395
-0.395
-0.39
-0.385
-0.36
-0.36
-0.375
-0.37
-0.395
-0.415
-0.425
-0.425
-0.42
-0.4
-0.385
-0.37
-0.375
-0.37
-0.365
-0.375
-0.345
-0.34
-0.325
-0.31
-0.295
-0.29
-0.265
-0.235
-0.2
-0.175
-0.16
-0.155
-0.155
-0.145
-0.13
-0.09
-0.045
0.0
0.025
0.055
0.075
0.105
0.15
0.185
0.22
0.245
0.25
0.265
0.27
0.315
0.345
0.39
0.445
0.51
0.54
0.565
0.575
0.575
0.6
0.625
0.66
0.675
0.725
0.735
0.725
0.715
0.71
0.7
0.725
0.73
0.725
0.71
0.695
0.67
0.645
0.615
0.575
0.565
0.545
0.505
0.46
0.42
0.375
0.345
0.335
0.32
0.305
0.265
0.24
0.21
0.175
0.135
0.095
0.08
0.06
0.035
0.02
-0.005
-0.015
-0.04
-0.065
-0.08
-0.08
-0.1
-0.11
-0.125
-0.145
-0.145
-0.14
-0.135
-0.12
-0.11
-0.105
-0.115
-0.115
-0.125
-0.125
-0.135
-0.135
-0.12
-0.115
-0.1
-0.1
-0.11
-0.11
-0.1
-0.09
-0.075
-0.035
-0.01
0.015
0.035
0.05
0.075
0.105
0.13
0.145
0.15
0.14
0.125
0.1
0.075
0.045
0.03
0.0
-0.05
-0.12
-0.155
-0.2
-0.2
-0.205
-0.2
-0.19
-0.2
-0.21
-0.215
-0.22
-0.21
-0.195
-0.185
-0.18
-0.18
-0.18
-0.19
-0.195
-0.205
-0.215
-0.2
-0.18
-0.17
-0.155
-0.17
-0.195
-0.23
-0.25
-0.255
-0.21
-0.1
0.07
0.355
0.705
1.115
1.59
2.05
2.465
2.76
2.89
2.83
2.6
2.23
1.785
1.335
0.84
0.395
-0.02
-0.365
-0.645
-0.795
-0.855
-0.8
-0.705
-0.585
-0.485
-0.415
-0.39
-0.395
-0.41
-0.445
-0.47
-0.465
-0.465
-0.47
-0.48
-0.485
-0.505
-0.515
-0.53
-0.525
-0.51
-0.505
-0.5
-0.5
-0.51
-0.53
-0.55
-0.555
-0.555
-0.555
-0.54
-0.525
-0.52
-0.505
-0.505
-0.5
-0.5
-0.495
-0.5
-0.48
-0.475
-0.49
-0.48
-0.455
-0.45
-0.42
-0.4
-0.36
-0.355
-0.345
-0.33
-0.33
-0.32
-0.28
-0.26
-0.23
-0.2
-0.175
-0.15
-0.155
-0.115
-0.085
-0.06
-0.025
-0.005
0.03
0.04
0.065
0.085
0.11
0.145
0.175
0.21
0.23
0.26
0.27
0.28
0.3
0.325
0.355
0.38
0.405
0.42
0.415
0.42
0.415
0.405
0.39
0.405
0.4
0.38
0.345
0.345
0.32
0.305
0.275
0.275
0.255
0.225
0.195
0.16
0.13
0.09
0.075
0.075
0.075
0.055
0.03
0.0
-0.025
-0.055
-0.075
-0.085
-0.09
-0.105
-0.115
-0.125
-0.12
-0.125
-0.135
-0.13
-0.12
-0.12
-0.13
-0.14
-0.145
-0.14
-0.125
-0.12
-0.1
-0.08
-0.06
-0.055
-0.04
-0.035
-0.015
0.01
0.045
0.07
0.105
0.115
0.125
0.125
0.14
0.14
0.145
0.14
0.12
0.08
0.02
-0.03
-0.08
-0.11
-0.125
-0.15
-0.17
-0.2
-0.21
-0.225
-0.235
-0.23
-0.215
-0.215
-0.21
-0.21
-0.21
-0.215
-0.22
-0.225
-0.22
-0.195
-0.21
-0.215
-0.215
-0.22
-0.22
-0.21
-0.205
-0.215
-0.245
-0.255
-0.245
-0.17
0.0
0.275
0.65
1.115
1.615
2.11
2.515
2.715
2.665
2.415
1.99
1.49
0.965
0.455
0.025
-0.32
-0.59
-0.74
-0.79
-0.75
-0.635
-0.52
-0.43
-0.375
-0.365
-0.38
-0.42
-0.44
-0.47
-0.485
-0.475
-0.48
-0.48
-0.475
-0.475
-0.485
-0.5
-0.53
-0.535
-0.555
-0.54
-0.535
-0.515
-0.52
-0.535
-0.535
-0.535
-0.53
-0.54
-0.54
-0.53
-0.52
-0.525
-0.51
-0.495
-0.48
-0.46
-0.445
-0.435
-0.425
-0.425
-0.42
-0.405
-0.375
-0.355
-0.33
-0.285
-0.26
-0.245
-0.22
-0.195
-0.165
-0.135
-0.1
-0.06
-0.025
0.01
0.05
0.08
0.125
0.175
0.22
0.245
0.275
0.275
0.3
0.33
0.355
0.4
0.445
0.485
0.51
0.535
0.535
0.54
0.55
0.55
0.54
0.555
0.56
0.555
0.535
0.54
0.53
0.51
0.485
0.46
0.44
0.41
0.395
0.37
0.365
0.355
0.34
0.315
0.3
0.27
0.24
0.215
0.175
0.165
0.14
0.11
0.095
0.08
0.075
0.055
0.08
0.07
0.065
0.05
0.035
0.03
0.02
0.02
0.025
0.035
0.045
0.06
0.075
0.07
0.095
0.115
0.145
0.16
0.18
0.18
0.19
0.21
0.235
0.26
0.28
0.28
0.27
0.245
0.2
0.17
0.105
0.06
0.025
0.0
-0.02
-0.045
-0.065
-0.08
-0.095
-0.1
-0.105
-0.09
-0.085
-0.085
-0.1
-0.09
-0.09
-0.08
-0.065
-0.06
-0.05
-0.07
-0.075
-0.09
-0.105
-0.1
-0.095
-0.09
-0.07
-0.085
-0.095
-0.13
-0.15
-0.12
-0.025
0.145
0.385
0.71
1.1
1.53
1.985
2.39
2.7
2.84
2.775
2.555
2.2
1.78
1.34
0.935
0.57
0.25
-0.045
-0.285
-0.43
-0.48
-0.445
-0.365
-0.295
-0.22
-0.21
-0.23
-0.245
-0.275
-0.31
-0.32
-0.35
-0.35
-0.345
-0.345
-0.355
-0.36
-0.37
-0.4
-0.41
-0.425
-0.42
-0.41
-0.405
-0.395
-0.4
-0.445
-0.435
-0.45
-0.45
-0.44
-0.435
-0.425
-0.42
-0.41
-0.42
-0.42
-0.415
-0.415
-0.395
-0.38
-0.375
-0.385
-0.365
-0.34
-0.335
-0.29
-0.27
-0.24
-0.215
-0.205
-0.215
-0.195
-0.17
-0.13
-0.09
-0.055
-0.005
0.025
0.05
0.095
0.125
0.16
0.215
0.25
0.285
0.31
0.345
0.405
0.44
0.485
0.525
0.555
0.575
0.575
0.58
0.59
0.61
0.62
0.65
0.675
0.7
0.71
0.715
0.705
0.695
0.69
0.69
0.685
0.675
0.65
0.635
0.62
0.59
0.58
0.58
0.585
0.56
0.535
0.495
0.46
0.42
0.395
0.385
0.39
0.37
0.36
0.335
0.3
0.27
0.235
0.21
0.19
0.175
0.145
0.14
0.13
0.125
0.15
0.145
0.155
0.15
0.145
0.135
0.135
0.12
0.14
0.18
0.2
0.24
0.27
0.275
0.285
0.305
0.315
0.335
0.335
0.36
0.36
0.365
0.345
0.32
0.295
0.25
0.205
0.15
0.09
0.045
0.03
0.01
0.03
0.055
0.07
0.065
0.07
0.06
0.035
0.04
0.045
0.035
0.05
0.045
0.04
0.04
0.045
0.045
0.065
0.07
0.07
0.07
0.035
0.01
-0.02
-0.04
-0.045
-0.005
0.09
0.25
0.49
0.815
1.21
1.675
2.13
2.55
2.835
2.965
2.89
2.67
2.34
1.95
1.525
1.13
0.735
0.345
-0.005
-0.26
-0.405
-0.415
-0.32
-0.19
-0.1
-0.055
-0.055
-0.095
-0.13
-0.18
-0.215
-0.23
-0.22
-0.235
-0.235
-0.245
-0.25
-0.255
-0.27
-0.285
-0.265
-0.26
-0.28
-0.295
-0.31
-0.325
-0.355
-0.33
-0.325
-0.31
-0.305
-0.31
-0.315
-0.315
-0.32
-0.325
-0.325
-0.325
-0.315
-0.31
-0.295
-0.295
-0.29
-0.275
-0.25
-0.24
-0.22
-0.21
-0.195
-0.18
-0.18
-0.155
-0.12
-0.085
-0.035
0.005
0.04
0.065
0.085
0.105
0.125
0.155
0.18
0.23
0.27
0.315
0.345
0.385
0.42
0.475
0.525
0.555
0.585
0.61
0.62
0.65
0.68
0.72
0.76
0.795
0.82
0.81
0.805
0.8
0.805
0.815
0.825
0.84
0.865
0.87
0.875
0.855
0.83
0.83
0.815
0.815
0.81
0.795
0.77
0.735
0.71
0.685
0.665
0.66
0.645
0.63
0.605
0.59
0.56
0.54
0.51
0.49
0.47
0.46
0.45
0.41
0.39
0.365
0.355
0.34
0.345
0.34
0.335
0.34
0.345
0.345
0.36
0.37
0.375
0.38
0.38
0.37
0.37
0.38
0.395
0.425
0.465
0.51
0.55
0.58
0.595
0.61
0.605
0.62
0.62
0.635
0.64
0.635
0.625
0.595
0.525
0.475
0.435
0.395
0.375
0.355
0.34
0.305
0.285
0.275
0.26
0.255
0.265
0.27
0.27
0.28
0.275
0.26
0.245
0.23
0.225
0.24
0.23
0.235
0.245
0.245
0.245
0.235
0.225
0.23
0.24
0.23
0.21
0.2
0.22
0.295
0.44
0.69
1.005
1.4
1.84
2.275
2.65
2.905
2.955
2.8
2.485
2.065
1.59
1.12
0.69
0.345
0.08
-0.13
-0.275
-0.345
-0.35
-0.285
-0.205
-0.12
-0.025
0.045
0.07
0.06
0.02
-0.015
-0.055
-0.065
-0.08
-0.075
-0.08
-0.075
-0.075
-0.07
-0.065
-0.085
-0.095
-0.095
-0.1
-0.115
-0.11
-0.115
-0.11
-0.1
-0.09
-0.085
-0.07
-0.06
-0.04
-0.04
-0.03
-0.03
-0.015
0.01
0.03
0.055
0.08
0.095
0.115
0.13
0.145
0.16
0.195
0.22
0.265
0.3
0.335
0.37
0.4
0.435
0.48
0.515
0.535
0.54
0.56
0.575
0.635
0.69
0.73
0.785
0.82
0.855
0.865
0.87
0.885
0.895
0.92
0.94
0.97
0.98
0.985
0.97
0.965
0.965
0.975
0.99
0.99
0.985
0.975
0.94
0.925
0.925
0.91
0.885
0.86
0.825
0.785
0.75
0.72
0.695
0.67
0.66
0.625
0.61
0.59
0.545
0.515
0.495
0.465
0.45
0.405
0.375
0.335
0.3
0.26
0.25
0.245
0.225
0.235
0.22
0.185
0.165
0.13
0.105
0.13
0.14
0.165
0.175
0.18
0.19
0.19
0.195
0.195
0.195
0.205
0.205
0.21
0.2
0.205
0.19
0.205
0.23
0.27
0.29
0.31
0.34
0.36
0.39
0.41
0.425
0.44
0.47
0.465
0.485
0.495
0.505
0.525
0.52
0.5
0.445
0.41
0.33
0.26
0.21
0.175
0.16
0.16
0.185
0.18
0.17
0.155
0.145
0.125
0.14
0.14
0.155
0.165
0.17
0.15
0.155
0.145
0.145
0.15
0.155
0.155
0.14
0.125
0.115
0.105
0.095
0.085
0.07
0.075
0.11
0.22
0.41
0.665
1.0
1.35
1.74
2.15
2.52
2.795
2.92
2.86
2.62
2.24
1.76
1.255
0.74
0.285
-0.11
-0.4
-0.58
-0.64
-0.595
-0.48
-0.35
-0.23
-0.16
-0.125
-0.12
-0.14
-0.155
-0.17
-0.175
-0.175
-0.185
-0.195
-0.2
-0.21
-0.22
-0.225
-0.215
-0.235
-0.245
-0.255
-0.25
-0.25
-0.23
-0.215
-0.205
-0.21
-0.215
-0.235
-0.24
-0.245
-0.24
-0.205
-0.19
-0.175
-0.15
-0.15
-0.14
-0.14
-0.135
-0.12
-0.105
-0.095
-0.06
-0.035
-0.025
-0.01
0.025
0.055
0.08
0.095
0.115
0.12
0.125
0.125
0.155
0.175
0.2
0.245
0.285
0.32
0.355
0.37
0.4
0.415
0.45
0.475
0.5
0.55
0.575
0.59
0.615
0.64
0.66
0.68
0.715
0.725
0.74
0.75
0.75
0.77
0.775
0.785
0.795
0.8
0.8
0.78
0.76
0.725
0.695
0.67
0.67
0.66
0.645
0.61
0.59
0.535
0.485
0.465
0.44
0.42
0.4
0.365
0.35
0.32
0.285
0.25
0.25
0.235
0.245
0.225
0.21
0.185
0.15
0.115
0.095
0.1
0.095
0.11
0.125
0.12
0.12
0.105
0.095
0.1
0.1
0.115
0.13
0.13
0.14
0.14
0.15
0.15
0.15
0.15
0.155
0.155
0.165
0.175
0.18
0.215
0.255
0.305
0.335
0.37
0.38
0.395
0.385
0.385
0.385
0.385
0.39
0.395
0.365
0.325
0.275
0.215
0.17
0.13
0.1
0.065
0.045
0.02
0.005
-0.005
-0.015
0.01
0.01
0.025
0.03
0.02
0.005
-0.01
-0.02
-0.02
-0.01
0.0
0.015
0.015
0.015
0.015
0.0
-0.01
-0.035
-0.05
-0.09
-0.11
-0.115
-0.06
0.075
0.315
0.635
1.025
1.455
1.905
2.315
2.625
2.745
2.67
2.415
2.04
1.58
1.09
0.625
0.195
-0.185
-0.49
-0.69
-0.75
-0.73
-0.615
-0.49
-0.37
-0.295
-0.255
-0.25
-0.255
-0.28
-0.3
-0.325
-0.34
-0.36
-0.365
-0.355
-0.345
-0.34
-0.34
-0.36
-0.37
-0.385
-0.395
-0.41
-0.39
-0.4
-0.4
-0.415
-0.42
-0.43
-0.43
-0.425
-0.395
-0.39
-0.4
-0.4
-0.41
-0.41
-0.4
-0.39
-0.365
-0.34
-0.32
-0.305
-0.285
-0.275
-0.26
-0.23
-0.205
-0.185
-0.17
-0.15
-0.12
-0.105
-0.08
-0.04
-0.005
0.035
0.065
0.075
0.11
0.145
0.165
0.21
0.26
0.305
0.345
0.375
0.415
0.45
0.47
0.505
0.54
0.56
0.575
0.6
0.615
0.62
0.64
0.655
0.67
0.675
0.685
0.675
0.645
0.625
0.615
0.605
0.615
0.6
0.59
0.57
0.55
0.51
0.485
0.455
0.435
0.42
0.385
0.355
0.33
0.28
0.265
0.255
0.24
0.235
0.23
0.21
0.19
0.17
0.135
0.115
0.105
0.1
0.115
0.125
0.13
0.115
0.105
0.09
0.08
0.085
0.095
0.11
0.105
0.13
0.14
0.155
0.175
0.205
0.24
0.27
0.28
0.28
0.27
0.285
0.3
0.31
0.325
0.35
0.37
0.375
0.33
0.28
0.225
0.16
0.105
0.07
0.045
0.03
0.01
0.005
-0.03
-0.04
-0.04
-0.03
-0.015
-0.015
-0.01
-0.02
-0.025
-0.04
-0.035
-0.03
-0.025
-0.02
-0.025
-0.03
-0.035
-0.05
-0.065
-0.06
-0.045
-0.045
-0.05
-0.06
-0.08
-0.115
-0.135
-0.12
-0.065
0.08
0.3
0.62
0.99
1.415
1.845
2.27
2.575
2.71
2.65
2.435
2.105
1.68
1.235
0.83
0.46
0.135
-0.17
-0.38
-0.52
-0.54
-0.505
-0.41
-0.305
-0.23
-0.185
-0.17
-0.19
-0.23
-0.28
-0.29
-0.305
-0.305
-0.325
-0.31
-0.315
-0.315
-0.335
-0.345
-0.35
-0.36
-0.355
-0.35
-0.35
-0.335
-0.34
-0.355
-0.375
-0.39
-0.405
-0.4
-0.39
-0.395
-0.375
-0.37
-0.36
-0.37
-0.385
-0.375
-0.375
-0.365
-0.355
-0.325
-0.32
-0.305
-0.29
-0.28
-0.25
-0.23
-0.195
-0.18
-0.15
-0.15
-0.135
-0.115
-0.08
-0.055
-0.005
0.045
0.095
0.125
0.155
0.185
0.195
0.23
0.275
0.325
0.39
0.425
0.465
0.5
0.535
0.575
0.61
0.64
0.67
0.705
0.72
0.74
0.75
0.75
0.785
0.805
0.825
0.84
0.84
0.825
0.815
0.795
0.81
0.805
0.8
0.815
0.8
0.8
0.79
0.765
0.735
0.705
0.69
0.685
0.67
0.655
0.625
0.59
0.58
0.56
0.54
0.54
0.515
0.495
0.475
0.445
0.39
0.365
0.345
0.325
0.32
0.31
0.3
0.275
0.265
0.26
0.26
0.26
0.26
0.275
0.27
0.26
0.25
0.265
0.265
0.29
0.295
0.325
0.35
0.37
0.39
0.4
0.415
0.44
0.46
0.485
0.505
0.53
0.515
0.5
0.485
0.45
0.425
0.37
0.315
0.25
0.2
0.165
0.14
0.135
0.125
0.135
0.135
0.135
0.13
0.13
0.125
0.135
0.145
0.165
0.17
0.16
0.15
0.135
0.11
0.125
0.12
0.14
0.145
0.145
0.15
0.135
0.115
0.1
0.075
0.06
0.06
0.085
0.165
0.315
0.55
0.855
1.255
1.7
2.155
2.525
2.735
2.77
2.605
2.3
1.9
1.465
1.01
0.605
0.25
-0.06
-0.28
-0.375
-0.365
-0.255
-0.115
0.015
0.075
0.1
0.08
0.04
0.005
-0.01
-0.025
-0.005
0.0
-0.005
-0.02
-0.015
-0.02
-0.01
0.005
0.01
0.02
0.0
-0.005
-0.005
0.01
0.015
0.025
0.03
0.035
0.04
0.035
0.05
0.06
0.085
0.11
0.14
0.165
0.18
0.19
0.2
0.225
0.25
0.295
0.33
0.37
0.395
0.42
0.455
0.5
0.54
0.58
0.61
0.645
0.665
0.7
0.74
0.78
0.825
0.875
0.91
0.94
0.965
0.98
1.01
1.035
1.085
1.125
1.15
1.175
1.18
1.17
1.18
1.195
1.215
1.215
1.235
1.23
1.225
1.215
1.195
1.19
1.175
1.17
1.155
1.135
1.11
1.095
1.065
1.045
1.025
1.015
1.025
1.005
0.96
0.94
0.895
0.865
0.845
0.815
0.785
0.765
0.73
0.715
0.685
0.655
0.63
0.6
0.565
0.54
0.505
0.465
0.415
0.375
0.345
0.32
0.33
0.33
0.335
0.33
0.325
0.31
0.305
0.29
0.29
0.3
0.315
0.305
0.325
0.33
0.325
0.335
0.335
0.34
0.355
0.375
0.38
0.38
0.4
0.435
0.47
0.515
0.55
0.58
0.595
0.61
0.605
0.605
0.605
0.61
0.59
0.565
0.54
0.5
0.43
0.355
0.295
0.25
0.195
0.185
0.18
0.18
0.195
0.19
0.19
0.195
0.205
0.2
0.195
0.18
0.18
0.16
0.155
0.165
0.175
0.19
0.205
0.225
0.225
0.225
0.22
0.215
0.215
0.2
0.165
0.125
0.12
0.16
0.27
0.46
0.755
1.11
1.51
1.93
2.29
2.555
2.66
2.585
2.36
2.03
1.68
1.29
0.9
0.525
0.175
-0.135
-0.395
-0.585
-0.655
-0.63
-0.515
-0.385
-0.25
-0.15
-0.1
-0.09
-0.115
-0.155
-0.185
-0.205
-0.22
-0.225
-0.225
-0.215
-0.205
-0.2
-0.2
-0.21
-0.225
-0.24
-0.25
-0.275
-0.28
-0.27
-0.255
-0.24
-0.23
-0.22
-0.21
-0.215
-0.21
-0.2
-0.2
-0.18
-0.17
-0.175
-0.16
-0.15
-0.145
-0.12
-0.09
-0.05
-0.03
-0.025
-0.01
-0.02
-0.015
0.015
0.05
0.085
0.125
0.165
0.195
0.225
0.235
0.245
0.265
0.285
0.32
0.35
0.385
0.42
0.445
0.485
0.525
0.555
0.57
0.59
0.605
0.615
0.615
0.64
0.675
0.7
0.73
0.775
0.785
0.795
0.79
0.78
0.78
0.775
0.78
0.78
0.755
0.76
0.735
0.715
0.71
0.695
0.675
0.665
0.64
0.63
0.595
0.555
0.51
0.48
0.455
0.44
0.415
0.41
0.37
0.31
0.27
0.22
0.19
0.17
0.17
0.15
0.14
0.12
0.095
0.055
0.045
0.02
0.02
0.01
0.0
-0.025
-0.025
-0.03
-0.025
-0.02
-0.03
-0.005
0.01
0.03
0.005
0.005
-0.01
-0.02
0.0
0.01
0.025
0.03
0.03
0.05
0.065
0.1
0.125
0.16
0.19
0.215
0.225
0.23
0.25
0.275
0.295
0.3
0.305
0.295
0.26
0.215
0.155
0.08
0.035
-0.005
-0.04
-0.05
-0.065
-0.075
-0.085
-0.08
-0.07
-0.075
-0.08
-0.085
-0.09
-0.105
-0.105
-0.095
-0.075
-0.075
-0.065
-0.085
-0.1
-0.1
-0.105
-0.11
-0.12
-0.135
-0.165
-0.19
-0.195
-0.16
-0.035
0.175
0.43
0.73
1.075
1.455
1.845
2.195
2.445
2.535
2.405
2.135
1.72
1.235
0.73
0.25
-0.2
-0.555
-0.805
-0.905
-0.89
-0.805
-0.66
-0.515
-0.415
-0.355
-0.35
-0.375
-0.425
-0.465
-0.5
-0.515
-0.53
-0.51
-0.495
-0.49
-0.5
-0.505
-0.535
-0.565
-0.585
-0.59
-0.59
-0.59
-0.565
-0.575
-0.57
-0.58
-0.585
-0.59
-0.59
-0.585
-0.585
-0.585
-0.6
-0.605
-0.605
-0.58
-0.555
-0.54
-0.515
-0.505
-0.505
-0.505
-0.5
-0.47
-0.435
-0.405
-0.385
-0.34
-0.325
-0.31
-0.295
-0.275
-0.235
-0.22
-0.19
-0.155
-0.125
-0.105
-0.07
-0.035
0.01
0.055
0.09
0.12
0.145
0.165
0.18
0.215
0.255
0.3
0.33
0.35
0.365
0.375
0.365
0.37
0.385
0.405
0.4
0.405
0.4
0.4
0.39
0.385
0.38
0.37
0.335
0.305
0.275
0.23
0.19
0.17
0.14
0.125
0.105
0.09
0.06
0.025
0.005
-0.02
-0.04
-0.055
-0.09
-0.125
-0.14
-0.16
-0.175
-0.18
-0.18
-0.185
-0.185
-0.205
-0.21
-0.22
-0.215
-0.205
-0.2
-0.195
-0.185
-0.19
-0.185
-0.185
-0.18
-0.17
-0.145
-0.11
-0.075
-0.055
-0.04
-0.03
-0.01
0.005
0.03
0.055
0.07
0.08
0.08
0.06
0.04
0.005
-0.025
-0.045
-0.09
-0.145
-0.19
-0.25
-0.29
-0.34
-0.35
-0.355
-0.33
-0.335
-0.33
-0.33
-0.335
-0.335
-0.335
-0.33
-0.335
-0.345
-0.34
-0.35
-0.37
-0.37
-0.37
-0.355
-0.33
-0.33
-0.335
-0.35
-0.37
-0.405
-0.435
-0.435
-0.4
-0.305
-0.11
0.17
0.515
0.93
1.385
1.815
2.16
2.345
2.33
2.14
1.83
1.46
1.08
0.72
0.395
0.08
-0.24
-0.54
-0.775
-0.89
-0.88
-0.8
-0.675
-0.575
-0.515
-0.51
-0.545
-0.585
-0.63
-0.66
-0.665
-0.655
-0.66
-0.67
-0.675
-0.695
-0.705
-0.71
-0.715
-0.695
-0.695
-0.7
-0.71
-0.735
-0.75
-0.75
-0.76
-0.765
-0.765
-0.755
-0.745
-0.75
-0.75
-0.75
-0.75
-0.745
-0.725
-0.725
-0.72
-0.71
-0.71
-0.705
-0.69
-0.665
-0.625
-0.59
-0.565
-0.555
-0.54
-0.52
-0.5
-0.49
-0.435
-0.38
-0.35
-0.305
-0.265
-0.23
-0.2
-0.15
-0.11
-0.075
-0.035
-0.02
0.015
0.05
0.08
0.125
0.165
0.2
0.22
0.265
0.285
0.31
0.315
0.34
0.355
0.39
0.41
0.43
0.455
0.46
0.45
0.425
0.425
0.41
0.42
0.415
0.405
0.38
0.365
0.35
0.355
0.35
0.34
0.325
0.315
0.29
0.26
0.225
0.2
0.18
0.175
0.16
0.145
0.12
0.085
0.06
0.02
0.005
-0.01
-0.035
-0.045
-0.05
-0.06
-0.085
-0.095
-0.1
-0.11
-0.1
-0.095
-0.09
-0.105
-0.125
-0.13
-0.135
-0.13
-0.105
-0.075
-0.045
-0.03
-0.01
-0.005
-0.005
0.015
0.04
0.07
0.09
0.1
0.115
0.12
0.12
0.11
0.11
0.09
0.075
0.05
0.0
-0.07
-0.135
-0.185
-0.205
-0.225
-0.23
-0.225
-0.22
-0.23
-0.22
-0.25
-0.255
-0.24
-0.22
-0.21
-0.205
-0.2
-0.2
-0.205
-0.21
-0.225
-0.235
-0.245
-0.245
-0.255
-0.275
-0.28
-0.275
-0.25
-0.19
-0.115
-0.005
0.12
0.285
0.495
0.765
1.085
1.455
1.845
2.2
2.495
2.685
2.785
2.8
2.75
2.655
2.505
2.315
2.07
1.77
1.42
1.035
0.58
0.15
-0.2
-0.435
-0.545
-0.535
-0.49
-0.455
-0.46
-0.48
-0.52
-0.56
-0.59
-0.605
-0.615
-0.61
-0.625
-0.645
-0.67
-0.69
-0.715
-0.735
-0.74
-0.735
-0.73
-0.74
-0.75
-0.77
-0.79
-0.795
-0.81
-0.82
-0.82
-0.825
-0.83
-0.84
-0.845
-0.845
-0.84
-0.83
-0.82
-0.82
-0.815
-0.8
-0.79
-0.79
-0.76
-0.72
-0.68
-0.655
-0.62
-0.605
-0.585
-0.57
-0.545
-0.5
-0.465
-0.415
-0.385
-0.35
-0.295
-0.27
-0.21
-0.16
-0.1
-0.05
-0.01
0.035
0.065
0.09
0.135
0.165
0.22
0.275
0.32
0.355
0.39
0.42
0.44
0.46
0.495
0.545
0.585
0.605
0.635
0.65
0.65
0.655
0.665
0.68
0.67
0.67
0.66
0.655
0.66
0.64
0.65
0.64
0.635
0.63
0.61
0.575
0.555
0.52
0.49
0.455
0.45
0.43
0.435
0.42
0.4
0.37
0.325
0.27
0.225
0.205
0.185
0.16
0.14
0.125
0.105
0.1
0.08
0.06
0.065
0.055
0.05
0.03
0.015
0.0
0.0
0.005
0.015
0.035
0.045
0.055
0.055
0.055
0.045
0.055
0.05
0.07
0.075
0.1
0.13
0.155
0.16
0.195
0.21
0.24
0.27
0.295
0.315
0.335
0.345
0.355
0.375
0.38
0.375
0.36
0.32
0.245
0.185
0.115
0.06
0.02
0.015
0.015
0.03
0.025
0.025
0.005
-0.005
-0.02
-0.02
-0.015
-0.005
0.005
0.01
0.02
0.005
0.005
0.01
0.005
0.025
0.03
0.02
0.015
0.005
-0.005
-0.02
-0.04
-0.035
-0.045
-0.055
-0.055
-0.035
0.03
0.18
0.385
0.665
1.005
1.37
1.77
2.1
2.335
2.445
2.36
2.11
1.775
1.385
0.97
0.565
0.225
-0.03
-0.245
-0.41
-0.57
-0.695
-0.735
-0.715
-0.63
-0.52
-0.42
-0.335
-0.3
-0.29
-0.3
-0.305
-0.32
-0.335
-0.355
-0.36
-0.37
-0.38
-0.405
-0.41
-0.4
-0.395
-0.39
-0.4
-0.41
-0.415
-0.435
-0.44
-0.425
-0.425
-0.42
-0.415
-0.42
-0.4
-0.41
-0.38
-0.365
-0.345
-0.325
-0.33
-0.315
-0.31
-0.305
-0.29
-0.25
-0.21
-0.185
-0.14
-0.125
-0.135
-0.12
-0.105
-0.07
-0.035
0.015
0.05
0.085
0.115
0.13
0.16
0.195
0.24
0.28
0.315
0.325
0.35
0.37
0.405
0.46
0.495
0.55
0.58
0.6
0.615
0.62
0.63
0.635
0.655
0.67
0.685
0.69
0.69
0.685
0.685
0.68
0.685
0.675
0.66
0.635
0.6
0.56
0.53
0.51
0.485
0.48
0.455
0.43
0.4
0.36
0.32
0.295
0.27
0.24
0.2
0.185
0.145
0.1
0.08
0.05
0.015
0.005
-0.03
-0.04
-0.095
-0.135
-0.15
-0.165
-0.18
-0.18
-0.19
-0.205
-0.205
-0.225
-0.24
-0.245
-0.23
-0.225
-0.215
-0.21
-0.195
-0.205
-0.21
-0.21
-0.215
-0.2
-0.2
-0.19
-0.21
-0.205
-0.205
-0.155
-0.115
-0.07
-0.025
0.015
0.04
0.05
0.04
0.055
0.06
0.065
0.07
0.09
0.075
0.055
0.02
-0.03
-0.095
-0.14
-0.195
-0.24
-0.28
-0.315
-0.335
-0.34
-0.315
-0.295
-0.275
-0.265
-0.27
-0.285
-0.32
-0.315
-0.325
-0.335
-0.315
-0.29
-0.285
-0.285
-0.28
-0.295
-0.295
-0.305
-0.295
-0.305
-0.31
-0.345
-0.375
-0.395
-0.375
-0.275
-0.095
0.205
0.56
0.975
1.395
1.79
2.105
2.275
2.275
2.095
1.805
1.42
0.965
0.495
0.055
-0.325
-0.665
-0.92
-1.09
-1.125
-1.085
-0.96
-0.815
-0.7
-0.61
-0.585
-0.585
-0.625
-0.67
-0.71
-0.73
-0.735
-0.73
-0.725
-0.71
-0.715
-0.71
-0.74
-0.76
-0.765
-0.785
-0.78
-0.78
-0.785
-0.78
-0.785
-0.8
-0.78
-0.785
-0.78
-0.75
-0.755
-0.765
-0.775
-0.785
-0.785
-0.785
-0.755
-0.73
-0.72
-0.695
-0.695
-0.68
-0.675
-0.675
-0.655
-0.62
-0.6
-0.58
-0.55
-0.525
-0.505
-0.485
-0.455
-0.425
-0.4
-0.37
-0.355
-0.335
-0.31
-0.28
-0.25
-0.215
-0.175
-0.13
-0.105
-0.085
-0.075
-0.065
-0.04
-0.015
0.015
0.045
0.075
0.115
0.125
0.125
0.14
0.155
0.165
0.165
0.18
0.165
0.155
0.145
0.145
0.13
0.135
0.135
0.12
0.11
0.07
0.05
0.015
-0.04
-0.055
-0.095
-0.1
-0.11
-0.14
-0.16
-0.195
-0.23
-0.265
-0.305
-0.315
-0.345
-0.38
-0.415
-0.435
-0.46
-0.48
-0.475
-0.475
-0.47
-0.47
-0.485
-0.52
-0.53
-0.55
-0.555
-0.545
-0.53
-0.51
-0.5
-0.505
-0.51
-0.525
-0.54
-0.53
-0.515
-0.485
-0.46
-0.42
-0.39
-0.375
-0.35
-0.325
-0.31
-0.295
-0.29
-0.29
-0.29
-0.305
-0.315
-0.32
-0.315
-0.34
-0.38
-0.435
-0.5
-0.57
-0.615
-0.665
-0.67
-0.68
-0.68
-0.67
-0.675
-0.675
-0.675
-0.68
-0.66
-0.665
-0.655
-0.665
-0.665
-0.69
-0.705
-0.7
-0.705
-0.69
-0.675
-0.65
-0.645
-0.66
-0.68
-0.695
-0.73
-0.755
-0.775
-0.75
-0.68
-0.54
-0.315
-0.03
0.305
0.675
1.07
1.435
1.745
1.94
1.98
1.855
1.605
1.255
0.86
0.42
0.005
-0.395
-0.76
-1.085
-1.28
-1.34
-1.27
-1.13
-0.975
-0.885
-0.845
-0.86
-0.895
-0.95
-0.995
-1.01
-1.01
-1.025
-1.03
-1.03
-1.035
-1.045
-1.055
-1.05
-1.045
-1.055
-1.075
-1.09
-1.115
-1.115
-1.12
-1.105
-1.095
-1.105
-1.095
-1.1
-1.105
-1.105
-1.095
-1.09
-1.085
-1.09
-1.085
-1.065
-1.06
-1.05
-1.035
-0.99
-0.965
-0.95
-0.935
-0.915
-0.91
-0.875
-0.845
-0.8
-0.755
-0.72
-0.68
-0.645
-0.6
-0.575
-0.55
-0.515
-0.49
-0.45
-0.43
-0.375
-0.345
-0.32
-0.26
-0.21
-0.165
-0.125
-0.09
-0.075
-0.06
-0.04
-0.02
0.015
0.05
0.07
0.08
0.09
0.09
0.085
0.075
0.08
0.085
0.075
0.05
0.02
0.01
-0.015
-0.02
-0.02
-0.03
-0.06
-0.09
-0.13
-0.165
-0.195
-0.225
-0.25
-0.265
-0.29
-0.31
-0.355
-0.375
-0.4
-0.41
-0.435
-0.48
-0.505
-0.52
-0.54
-0.55
-0.545
-0.545
-0.54
-0.535
-0.55
-0.565
-0.565
-0.575
-0.575
-0.57
-0.555
-0.54
-0.525
-0.5
-0.485
-0.46
-0.455
-0.415
-0.405
-0.4
-0.385
-0.37
-0.37
-0.34
-0.32
-0.31
-0.325
-0.365
-0.42
-0.49
-0.555
-0.605
-0.64
-0.66
-0.66
-0.665
-0.67
-0.655
-0.655
-0.645
-0.63
-0.625
-0.605
-0.63
-0.645
-0.675
-0.705
-0.7
-0.68
-0.61
-0.495
-0.34
-0.18
0.005
0.185
0.385
0.61
0.85
1.105
1.32
1.495
1.635
1.73
1.835
