Lead II
0.71
0.735
0.76
0.765
0.78
0.805
0.83
0.835
0.83
0.84
0.865
0.895
0.915
0.91
0.895
0.925
0.96
0.99
1.01
1.025
1.035
1.075
1.09
1.085
1.045
0.995
0.93
0.92
0.935
0.925
0.905
0.855
0.83
0.815
0.795
0.785
0.75
0.71
0.685
0.65
0.61
0.575
0.525
0.47
0.415
0.37
0.325
0.29
0.23
0.175
0.11
0.07
0.04
0.035
0.0
-0.04
-0.11
-0.15
-0.175
-0.185
-0.205
-0.23
-0.27
-0.34
-0.385
-0.41
-0.425
-0.425
-0.435
-0.43
-0.435
-0.415
-0.42
-0.42
-0.425
-0.415
-0.435
-0.44
-0.435
-0.43
-0.41
-0.395
-0.375
-0.355
-0.315
-0.265
-0.24
-0.22
-0.185
-0.155
-0.155
-0.175
-0.18
-0.16
-0.115
-0.11
-0.125
-0.135
-0.155
-0.15
-0.15
-0.14
-0.14
-0.145
-0.165
-0.165
-0.165
-0.15
-0.155
-0.18
-0.215
-0.24
-0.25
-0.255
-0.27
-0.29
-0.31
-0.32
-0.345
-0.35
-0.37
-0.39
-0.415
-0.425
-0.43
-0.425
-0.43
-0.435
-0.45
-0.465
-0.48
-0.49
-0.495
-0.51
-0.52
-0.515
-0.495
-0.485
-0.48
-0.49
-0.485
-0.48
-0.47
-0.485
-0.505
-0.515
-0.515
-0.495
-0.485
-0.475
-0.485
-0.5
-0.52
-0.525
-0.53
-0.505
-0.49
-0.495
-0.5
-0.5
-0.49
-0.47
-0.485
-0.5
-0.51
-0.51
-0.485
-0.48
-0.47
-0.47
-0.485
-0.485
-0.48
-0.47
-0.485
-0.505
-0.505
-0.485
-0.455
-0.44
-0.46
-0.485
-0.48
-0.475
-0.455
-0.445
-0.44
-0.445
-0.445
-0.43
-0.395
-0.38
-0.39
-0.415
-0.415
-0.41
-0.39
-0.37
-0.36
-0.355
-0.34
-0.325
-0.29
-0.24
-0.17
-0.05
0.245
0.82
1.455
2.09
2.36
2.31
2.17
2.08
2.03
1.975
1.88
1.77
1.635
1.525
1.44
1.37
1.27
1.135
0.985
0.825
0.675
0.525
0.38
0.195
-0.035
-0.26
-0.485
-0.71
-0.92
-1.125
-1.32
-1.505
-1.68
-1.835
-1.935
-1.98
-2.01
-2.045
-2.075
-2.115
-2.205
-2.29
-2.365
-2.395
-2.4
-2.42
-2.41
-2.375
-2.29
-2.14
-1.965
-1.78
-1.615
-1.455
-1.315
-1.185
-1.08
-1.015
-0.925
-0.865
-0.795
-0.715
-0.665
-0.625
-0.6
-0.57
-0.535
-0.485
-0.415
-0.345
-0.275
-0.23
-0.165
-0.105
-0.025
0.035
0.1
0.165
0.22
0.305
0.36
0.435
0.49
0.515
0.52
0.54
0.57
0.595
0.62
0.635
0.66
0.695
0.73
0.765
0.775
0.795
0.825
0.865
0.91
0.955
0.96
0.985
1.01
1.06
1.12
1.165
1.185
1.215
1.245
1.29
1.315
1.35
1.395
1.41
1.445
1.485
1.535
1.575
1.61
1.65
1.675
1.71
1.725
1.75
1.775
1.795
1.785
1.785
1.79
1.795
1.8
1.75
1.695
1.645
1.605
1.57
1.535
1.51
1.46
1.41
1.37
1.315
1.245
1.17
1.1
1.05
0.995
0.93
0.835
0.76
0.685
0.625
0.555
0.475
0.365
0.305
0.225
0.15
0.1
0.09
0.07
0.025
-0.045
-0.095
-0.125
-0.14
-0.175
-0.2
-0.245
-0.25
-0.235
-0.225
-0.22
-0.24
-0.235
-0.195
-0.185
-0.2
-0.245
-0.27
-0.265
-0.255
-0.245
-0.235
-0.235
-0.265
-0.28
-0.28
-0.24
-0.225
-0.225
-0.245
-0.28
-0.3
-0.28
-0.24
-0.215
-0.215
-0.255
-0.295
-0.31
-0.295
-0.295
-0.31
-0.32
-0.315
-0.295
-0.255
-0.22
-0.22
-0.26
-0.275
-0.27
-0.25
-0.275
-0.265
-0.26
-0.245
-0.255
-0.28
-0.305
-0.325
-0.34
-0.315
-0.265
-0.225
-0.22
-0.255
-0.28
-0.29
-0.275
-0.265
-0.295
-0.325
-0.32
-0.275
-0.27
-0.27
-0.285
-0.29
-0.295
-0.28
-0.28
-0.31
-0.345
-0.35
-0.32
-0.255
-0.245
-0.25
-0.275
-0.27
-0.245
-0.225
-0.24
-0.245
-0.255
-0.275
-0.3
-0.315
-0.315
-0.3
-0.295
-0.32
-0.325
-0.27
-0.2
-0.165
-0.21
-0.265
-0.3
-0.28
-0.245
-0.23
-0.25
-0.285
-0.305
-0.3
-0.275
-0.285
-0.31
-0.315
-0.3
-0.25
-0.205
-0.205
-0.195
-0.205
-0.2
-0.205
-0.2
-0.225
-0.23
-0.24
-0.22
-0.175
-0.135
-0.125
-0.14
-0.14
-0.135
-0.105
-0.055
0.04
0.295
0.785
1.42
2.055
2.385
2.38
2.275
2.205
2.14
2.07
1.995
1.92
1.855
1.785
1.665
1.58
1.495
1.385
1.265
1.12
0.95
0.765
0.62
0.47
0.29
0.085
-0.13
-0.34
-0.555
-0.78
-0.995
-1.195
-1.345
-1.445
-1.505
-1.55
-1.595
-1.635
-1.69
-1.775
-1.86
-1.94
-2.0
-2.065
-2.155
-2.215
-2.215
-2.165
-2.035
-1.83
-1.645
-1.46
-1.3
-1.145
-1.04
-0.97
-0.92
-0.84
-0.745
-0.635
-0.54
-0.49
-0.465
-0.445
-0.415
-0.385
-0.34
-0.265
-0.175
-0.1
-0.05
-0.035
-0.005
0.055
0.11
0.195
0.265
0.33
0.39
0.43
0.48
0.53
0.565
0.565
0.555
0.545
0.52
0.52
0.52
0.515
0.51
0.495
0.485
0.485
0.505
0.515
0.51
0.52
0.53
0.54
0.55
0.565
0.585
0.6
0.645
0.675
0.725
0.775
0.805
0.81
0.805
0.81
0.83
0.87
0.91
0.96
0.975
0.995
1.01
1.035
1.04
1.03
1.025
1.03
1.045
1.06
1.05
1.035
1.02
1.005
1.005
1.01
1.0
0.98
0.935
0.9
0.88
0.85
0.81
0.77
0.71
0.68
0.635
0.59
0.51
0.425
0.36
0.305
0.27
0.26
0.195
0.14
0.065
0.025
0.01
-0.005
-0.03
-0.055
-0.095
-0.13
-0.16
-0.2
-0.215
-0.26
-0.3
-0.325
-0.31
-0.29
-0.33
-0.36
-0.39
-0.385
-0.355
-0.35
-0.345
-0.37
-0.385
-0.375
-0.355
-0.35
-0.365
-0.38
-0.42
-0.43
-0.41
-0.405
-0.4
-0.4
-0.405
-0.415
-0.435
-0.42
-0.42
-0.42
-0.43
-0.42
-0.395
-0.385
-0.385
-0.41
-0.44
-0.43
-0.42
-0.395
-0.37
-0.35
-0.345
-0.345
-0.345
-0.35
-0.37
-0.395
-0.405
-0.365
-0.33
-0.32
-0.355
-0.375
-0.39
-0.395
-0.375
-0.36
-0.345
-0.345
-0.38
-0.385
-0.38
-0.34
-0.33
-0.325
-0.37
-0.385
-0.385
-0.36
-0.34
-0.34
-0.365
-0.355
-0.335
-0.33
-0.33
-0.355
-0.36
-0.345
-0.325
-0.32
-0.32
-0.325
-0.325
-0.31
-0.31
-0.3
-0.3
-0.32
-0.335
-0.345
-0.35
-0.335
-0.31
-0.315
-0.32
-0.32
-0.315
-0.32
-0.32
-0.32
-0.315
-0.3
-0.28
-0.265
-0.295
-0.315
-0.335
-0.32
-0.3
-0.29
-0.285
-0.265
-0.27
-0.255
-0.25
-0.235
-0.24
-0.255
-0.27
-0.24
-0.215
-0.19
-0.165
-0.14
-0.13
-0.1
-0.06
-0.015
0.05
0.11
0.215
0.415
0.84
1.465
2.075
2.405
2.41
2.305
2.225
2.195
2.14
2.065
1.97
1.91
1.845
1.77
1.675
1.585
1.47
1.365
1.245
1.125
0.97
0.785
0.575
0.35
0.15
-0.045
-0.285
-0.535
-0.78
-0.945
-1.07
-1.16
-1.235
-1.34
-1.47
-1.56
-1.62
-1.7
-1.81
-1.905
-1.99
-2.06
-2.12
-2.175
-2.21
-2.195
-2.11
-1.945
-1.765
-1.615
-1.47
-1.32
-1.19
-1.105
-1.075
-1.055
-1.025
-0.98
-0.955
-0.915
-0.91
-0.88
-0.85
-0.825
-0.81
-0.765
-0.69
-0.645
-0.62
-0.595
-0.535
-0.45
-0.365
-0.275
-0.19
-0.135
-0.07
0.0
0.065
0.085
0.075
0.08
0.085
0.115
0.135
0.155
0.155
0.155
0.145
0.185
0.245
0.29
0.34
0.355
0.35
0.36
0.37
0.42
0.465
0.5
0.525
0.575
0.615
0.645
0.66
0.695
0.74
0.77
0.805
0.845
0.89
0.93
0.94
0.96
0.975
1.0
1.035
1.06
1.085
1.11
1.125
1.125
1.12
1.08
1.075
1.085
1.095
1.095
1.075
1.07
1.045
1.045
1.025
1.01
0.96
0.925
0.875
0.87
0.825
0.785
0.745
0.685
0.63
0.6
0.56
0.51
0.45
0.38
0.32
0.275
0.24
0.22
0.165
0.095
0.03
0.0
-0.02
-0.06
-0.095
-0.125
-0.15
-0.16
-0.17
-0.175
-0.195
-0.225
-0.235
-0.245
-0.25
-0.235
-0.245
-0.245
-0.25
-0.245
-0.245
-0.25
-0.24
-0.255
-0.285
-0.29
-0.27
-0.25
-0.24
-0.245
-0.265
-0.26
-0.245
-0.22
-0.22
-0.25
-0.27
-0.27
-0.255
-0.235
-0.245
-0.25
-0.265
-0.265
-0.26
-0.235
-0.24
-0.235
-0.245
-0.24
-0.225
-0.215
-0.195
-0.18
-0.17
-0.145
-0.15
-0.165
-0.215
-0.245
-0.25
-0.205
-0.155
-0.14
-0.135
-0.13
-0.115
-0.105
-0.13
-0.165
-0.185
-0.175
-0.14
-0.095
-0.045
-0.01
0.005
0.015
0.005
0.005
0.04
0.095
0.135
0.17
0.16
0.135
0.105
0.095
0.095
0.095
0.08
0.085
0.09
0.095
0.095
0.07
0.035
0.01
-0.005
-0.015
-0.035
-0.06
-0.09
-0.13
-0.16
-0.195
-0.215
-0.23
-0.24
-0.255
-0.26
-0.275
-0.305
-0.33
-0.345
-0.325
-0.32
-0.305
-0.295
-0.315
-0.32
-0.325
-0.305
-0.295
-0.27
-0.275
-0.27
-0.28
-0.27
-0.27
-0.27
-0.285
-0.295
-0.3
-0.28
-0.25
-0.225
-0.205
-0.175
-0.13
-0.055
0.105
0.49
1.12
1.755
2.145
2.18
2.025
1.905
1.82
1.72
1.625
1.54
1.46
1.365
1.265
1.155
1.055
0.95
0.855
0.73
0.59
0.42
0.245
0.075
-0.1
-0.285
-0.505
-0.705
-0.925
-1.115
-1.285
-1.48
-1.67
-1.81
-1.89
-1.92
-1.945
-1.965
-2.015
-2.095
-2.185
-2.255
-2.285
-2.33
-2.37
-2.39
-2.37
-2.23
-2.05
-1.875
-1.705
-1.54
-1.35
-1.195
-1.07
-1.01
-0.97
-0.915
-0.85
-0.78
-0.72
-0.67
-0.64
-0.61
-0.57
-0.5
-0.425
-0.355
-0.31
-0.255
-0.205
-0.145
-0.085
-0.025
0.025
0.1
0.19
0.255
0.34
0.41
0.47
0.505
0.55
0.57
0.61
0.63
0.65
0.675
0.72
0.745
0.785
0.785
0.795
0.795
0.815
0.85
0.875
0.905
0.93
0.945
0.985
1.035
1.065
1.105
1.125
1.13
1.16
1.2
1.25
1.26
1.265
1.29
1.335
1.37
1.425
1.46
1.465
1.475
1.505
1.535
1.55
1.555
1.555
1.535
1.555
1.56
1.57
1.545
1.53
1.495
1.495
1.48
1.465
1.445
1.42
1.38
1.355
1.315
1.285
1.235
1.21
1.165
1.13
1.09
1.04
0.965
0.91
0.875
0.835
0.8
0.76
0.705
0.655
0.61
0.565
0.53
0.49
0.45
0.415
0.375
0.35
0.35
0.325
0.31
0.29
0.275
0.29
0.285
0.31
0.33
0.35
0.345
0.36
0.38
0.395
0.405
0.405
0.415
0.415
0.4
0.38
0.35
0.31
0.29
0.3
0.31
0.305
0.315
0.295
0.265
0.235
0.22
0.23
0.225
0.2
0.17
0.145
0.135
0.13
0.08
0.045
0.01
0.005
-0.005
-0.02
-0.04
-0.06
-0.08
-0.065
-0.05
-0.055
-0.07
-0.1
-0.15
-0.17
-0.195
-0.205
-0.22
-0.215
-0.195
-0.195
-0.19
-0.185
-0.195
-0.2
-0.195
-0.19
-0.205
-0.2
-0.205
-0.21
-0.22
-0.225
-0.21
-0.215
-0.225
-0.245
-0.25
-0.24
-0.215
-0.215
-0.22
-0.225
-0.235
-0.24
-0.245
-0.245
-0.245
-0.245
-0.26
-0.255
-0.25
-0.25
-0.245
-0.235
-0.26
-0.245
-0.26
-0.25
-0.255
-0.255
-0.26
-0.25
-0.245
-0.25
-0.26
-0.28
-0.3
-0.295
-0.275
-0.255
-0.24
-0.255
-0.265
-0.275
-0.275
-0.28
-0.28
-0.27
-0.28
-0.29
-0.29
-0.285
-0.27
-0.27
-0.28
-0.275
-0.25
-0.245
-0.235
-0.24
-0.265
-0.26
-0.26
-0.23
-0.235
-0.24
-0.265
-0.265
-0.26
-0.235
-0.225
-0.22
-0.225
-0.205
-0.19
-0.175
-0.15
-0.12
-0.03
0.175
0.53
1.06
1.605
1.925
1.955
1.825
1.72
1.675
1.615
1.545
1.445
1.36
1.295
1.23
1.175
1.105
1.01
0.93
0.83
0.735
0.595
0.45
0.315
0.155
0.005
-0.15
-0.325
-0.5
-0.695
-0.86
-1.01
-1.16
-1.3
-1.395
-1.455
-1.505
-1.56
-1.605
-1.655
-1.735
-1.85
-1.97
-2.03
-2.095
-2.14
-2.21
-2.275
-2.28
-2.24
-2.135
-1.98
-1.81
-1.655
-1.52
-1.36
-1.23
-1.135
-1.085
-1.055
-1.01
-0.955
-0.905
-0.86
-0.84
-0.84
-0.845
-0.82
-0.76
-0.715
-0.68
-0.615
-0.565
-0.51
-0.47
-0.44
-0.42
-0.385
-0.31
-0.22
-0.13
-0.04
0.015
0.075
0.115
0.17
0.215
0.235
0.25
0.255
0.27
0.305
0.335
0.345
0.37
0.37
0.375
0.415
0.43
0.47
0.475
0.475
0.5
0.54
0.585
0.615
0.655
0.665
0.705
0.77
0.82
0.865
0.915
0.945
0.995
1.055
1.08
1.13
1.17
1.21
1.235
1.26
1.245
1.24
1.245
1.255
1.3
1.315
1.325
1.315
1.3
1.285
1.295
1.285
1.29
1.285
1.265
1.245
1.235
1.22
1.21
1.185
1.145
1.085
1.055
1.035
1.005
0.955
0.91
0.865
0.82
0.78
0.74
0.69
0.63
0.56
0.515
0.48
0.45
0.39
0.345
0.28
0.25
0.215
0.175
0.125
0.07
0.01
-0.03
-0.055
-0.085
-0.13
-0.17
-0.2
-0.225
-0.245
-0.28
-0.31
-0.325
-0.335
-0.36
-0.355
-0.35
-0.365
-0.4
-0.435
-0.43
-0.435
-0.445
-0.445
-0.45
-0.46
-0.465
-0.46
-0.46
-0.455
-0.465
-0.48
-0.47
-0.465
-0.48
-0.475
-0.49
-0.49
-0.49
-0.48
-0.48
-0.47
-0.475
-0.48
-0.48
-0.48
-0.475
-0.485
-0.485
-0.5
-0.5
-0.47
-0.47
-0.455
-0.47
-0.485
-0.495
-0.49
-0.485
-0.485
-0.485
-0.5
-0.495
-0.475
-0.455
-0.46
-0.445
-0.47
-0.485
-0.475
-0.47
-0.46
-0.455
-0.445
-0.455
-0.46
-0.46
-0.47
-0.49
-0.49
-0.48
-0.465
-0.45
-0.455
-0.455
-0.46
-0.45
-0.455
-0.465
-0.46
-0.475
-0.48
-0.47
-0.455
-0.455
-0.455
-0.455
-0.445
-0.445
-0.42
-0.42
-0.445
-0.48
-0.495
-0.495
-0.485
-0.475
-0.475
-0.48
-0.49
-0.47
-0.47
-0.47
-0.48
-0.475
-0.475
-0.47
-0.455
-0.465
-0.47
-0.46
-0.445
-0.425
-0.41
-0.385
-0.4
-0.42
-0.44
-0.47
-0.475
-0.45
-0.44
-0.41
-0.4
-0.39
-0.38
-0.4
-0.405
-0.425
-0.43
-0.42
-0.395
-0.385
-0.38
-0.395
-0.42
-0.42
-0.42
-0.385
-0.37
-0.355
-0.34
-0.34
-0.32
-0.315
-0.295
-0.27
-0.215
-0.08
0.205
0.685
1.3
1.725
1.85
1.74
1.61
1.535
1.49
1.435
1.35
1.265
1.175
1.09
1.0
0.93
0.855
0.795
0.685
0.565
0.405
0.215
0.035
-0.125
-0.285
-0.44
-0.635
-0.845
-1.09
-1.305
-1.505
-1.685
-1.86
-2.005
-2.105
-2.15
-2.2
-2.235
-2.28
-2.36
-2.445
-2.525
-2.545
-2.58
-2.615
-2.64
-2.62
-2.51
-2.315
-2.07
-1.81
-1.58
-1.39
-1.205
-1.07
-0.995
-0.945
-0.9
-0.84
-0.76
-0.69
-0.63
-0.605
-0.605
-0.59
-0.56
-0.525
-0.46
-0.41
-0.355
-0.32
-0.275
-0.26
-0.215
-0.18
-0.12
-0.07
0.0
0.07
0.1
0.155
0.185
0.2
0.23
0.25
0.25
0.275
0.29
0.295
0.345
0.36
0.38
0.425
0.455
0.46
0.48
0.51
0.53
0.555
0.58
0.595
0.625
0.65
0.675
0.705
0.755
0.785
0.815
0.835
0.855
0.855
0.895
0.915
0.965
1.015
1.065
1.09
1.1
1.1
1.125
1.155
1.19
1.2
1.19
1.175
1.195
1.205
1.22
1.205
1.2
1.17
1.145
1.14
1.13
1.105
1.065
1.035
1.02
1.0
0.965
0.925
0.88
0.845
0.805
0.77
0.71
0.665
0.595
0.545
0.5
0.44
0.42
0.37
0.33
0.27
0.225
0.185
0.17
0.14
0.11
0.08
0.04
0.01
-0.03
-0.06
-0.105
-0.135
-0.13
-0.135
-0.145
-0.16
-0.19
-0.225
-0.235
-0.255
-0.285
-0.29
-0.3
-0.315
-0.315
-0.295
-0.305
-0.3
-0.3
-0.32
-0.33
-0.32
-0.325
-0.31
-0.305
-0.32
-0.305
-0.315
-0.315
-0.325
-0.33
-0.335
-0.33
-0.315
-0.315
-0.305
-0.315
-0.33
-0.305
-0.29
-0.29
-0.315
-0.335
-0.35
-0.325
-0.31
-0.285
-0.28
-0.275
-0.275
-0.27
-0.255
-0.25
-0.275
-0.28
-0.285
-0.27
-0.265
-0.27
-0.27
-0.265
-0.255
-0.245
-0.225
-0.205
-0.22
-0.24
-0.255
-0.27
-0.285
-0.28
-0.255
-0.245
-0.24
-0.245
-0.24
-0.245
-0.255
-0.255
-0.265
-0.255
-0.25
-0.25
-0.24
-0.22
-0.21
-0.205
-0.205
-0.22
-0.23
-0.26
-0.275
-0.285
-0.29
-0.28
-0.265
-0.25
-0.255
-0.265
-0.265
-0.25
-0.255
-0.25
-0.24
-0.23
-0.22
-0.22
-0.23
-0.245
-0.24
-0.245
-0.23
-0.225
-0.23
-0.23
-0.245
-0.23
-0.22
-0.22
-0.225
-0.205
-0.2
-0.175
-0.145
-0.12
-0.1
-0.1
-0.105
-0.08
-0.06
-0.03
-0.015
0.0
0.04
0.09
0.135
0.14
0.145
0.12
0.085
0.075
0.1
0.12
0.13
0.12
0.115
0.14
0.17
0.235
0.37
0.695
1.185
1.685
1.91
1.885
1.755
1.66
1.59
1.525
1.435
1.345
1.24
1.115
1.015
0.935
0.85
0.745
0.595
0.435
0.28
0.145
0.015
-0.135
-0.29
-0.465
-0.65
-0.825
-1.015
-1.225
-1.4
-1.545
-1.655
-1.72
-1.785
-1.83
-1.89
-1.93
-1.985
-2.055
-2.16
-2.28
-2.385
-2.49
-2.58
-2.615
-2.625
-2.58
-2.47
-2.315
-2.14
-1.945
-1.725
-1.54
-1.385
-1.295
-1.25
-1.18
-1.13
-1.07
-1.035
-1.04
-1.015
-0.975
-0.93
-0.89
-0.835
-0.79
-0.745
-0.685
-0.605
-0.54
-0.475
-0.42
-0.355
-0.275
-0.185
-0.1
-0.035
0.01
0.055
0.12
0.155
0.2
0.21
0.2
0.2
0.185
0.21
0.21
0.24
0.26
0.28
0.31
0.345
0.36
0.385
0.435
0.47
0.5
0.545
0.545
0.55
0.555
0.58
0.63
0.675
0.705
0.74
0.77
0.79
0.83
0.875
0.915
0.91
0.91
0.91
0.94
0.995
1.04
1.065
1.05
1.055
1.055
1.065
1.055
1.045
1.025
1.015
1.015
1.005
0.97
0.94
0.92
0.905
0.885
0.865
0.85
0.815
0.78
0.71
0.655
0.61
0.56
0.545
0.51
0.455
0.425
0.36
0.29
0.215
0.16
0.09
0.05
0.01
-0.02
-0.065
-0.125
-0.175
-0.205
-0.235
-0.265
-0.305
-0.31
-0.34
-0.365
-0.395
-0.395
-0.415
-0.41
-0.41
-0.415
-0.425
-0.445
-0.455
-0.49
-0.525
-0.535
-0.51
-0.475
-0.465
-0.465
-0.49
-0.525
-0.54
-0.53
-0.515
-0.49
-0.495
-0.505
-0.55
-0.57
-0.565
-0.535
-0.52
-0.505
-0.51
-0.515
-0.5
-0.48
-0.48
-0.465
-0.465
-0.475
-0.49
-0.515
-0.545
-0.575
-0.545
-0.49
-0.46
-0.435
-0.42
-0.385
-0.36
-0.32
-0.295
-0.3
-0.3
-0.27
-0.23
-0.195
-0.185
-0.195
-0.235
-0.25
-0.245
-0.25
-0.26
-0.27
-0.285
-0.285
-0.265
-0.255
-0.26
-0.31
-0.35
-0.36
-0.345
-0.35
-0.4
-0.465
-0.52
-0.545
-0.55
-0.55
-0.56
-0.58
-0.62
-0.625
-0.655
-0.665
-0.66
-0.68
-0.7
-0.69
-0.67
-0.67
-0.705
-0.755
-0.775
-0.77
-0.74
-0.745
-0.755
-0.75
-0.73
-0.71
-0.7
-0.69
-0.695
-0.715
-0.765
-0.77
-0.765
-0.76
-0.74
-0.755
-0.76
-0.75
-0.725
-0.71
-0.72
-0.74
-0.755
-0.75
-0.725
-0.73
-0.745
-0.755
-0.745
-0.705
-0.705
-0.705
-0.7
-0.67
-0.625
-0.59
-0.585
-0.585
-0.555
-0.45
-0.21
0.315
0.95
1.585
1.785
1.68
1.525
1.43
1.385
1.32
1.215
1.08
0.95
0.85
0.76
0.68
0.57
0.43
0.28
0.13
-0.005
-0.145
-0.31
-0.49
-0.68
-0.845
-0.985
-1.11
-1.26
-1.43
-1.61
-1.745
-1.83
-1.89
-1.95
-2.005
-2.065
-2.17
-2.275
-2.37
-2.445
-2.525
-2.615
-2.65
-2.625
-2.55
-2.445
-2.325
-2.2
-2.035
-1.855
-1.72
-1.63
-1.57
-1.485
-1.415
-1.37
-1.315
-1.27
-1.25
-1.23
-1.215
-1.17
-1.11
-1.035
-0.975
-0.95
-0.865
-0.81
-0.76
-0.71
-0.64
-0.555
-0.49
-0.415
-0.325
-0.245
-0.155
-0.1
-0.065
-0.065
-0.065
-0.07
-0.03
0.0
0.02
0.05
0.09
0.11
0.12
0.14
0.195
0.235
0.255
0.275
0.31
0.335
0.37
0.37
0.395
0.435
0.495
0.53
0.57
0.615
0.645
0.66
0.695
0.71
0.75
0.78
0.795
0.8
0.83
0.855
0.89
0.92
0.925
0.93
0.93
0.92
0.925
0.945
0.975
0.98
0.955
0.94
0.93
0.895
0.855
0.835
0.8
0.775
0.745
0.74
0.72
0.655
0.59
0.525
0.535
0.56
0.535
0.465
0.38
0.34
0.345
0.345
0.325
0.29
0.245
0.205
0.165
0.13
0.105
0.105
0.085
0.035
-0.015
-0.045
-0.095
-0.13
-0.15
-0.165
-0.17
-0.19
-0.21
-0.245
-0.275
-0.315
-0.34
-0.355
-0.35
-0.385
-0.435
-0.495
-0.53
-0.53
-0.52
-0.515
-0.535
-0.585
-0.64
-0.65
-0.645
-0.675
-0.715
-0.755
-0.79
-0.8
-0.785
-0.78
-0.78
-0.785
-0.765
-0.75
-0.735
-0.75
-0.77
-0.785
-0.8
-0.79
-0.79
-0.805
-0.83
-0.86
-0.845
-0.81
-0.785
-0.79
-0.82
-0.855
-0.88
-0.885
-0.885
-0.885
-0.875
-0.875
-0.85
-0.84
-0.84
-0.825
-0.785
-0.75
-0.72
-0.695
-0.725
-0.8
-0.87
-0.905
-0.9
-0.885
-0.865
-0.88
-0.885
-0.89
-0.89
-0.895
-0.895
-0.905
-0.89
-0.865
-0.82
-0.805
-0.83
-0.855
-0.88
-0.915
-0.895
-0.865
-0.84
-0.805
-0.795
-0.82
-0.855
-0.855
-0.845
-0.835
-0.845
-0.865
-0.85
-0.83
-0.83
-0.835
-0.87
-0.905
-0.87
-0.83
-0.805
-0.835
-0.87
-0.92
-0.93
-0.91
-0.89
-0.875
-0.88
-0.85
-0.82
-0.795
-0.815
-0.82
-0.825
-0.83
-0.82
-0.82
-0.835
-0.86
-0.875
-0.815
-0.69
-0.585
-0.555
-0.59
-0.64
-0.64
-0.595
-0.47
-0.15
0.42
1.055
1.655
1.825
1.72
1.555
1.455
1.395
1.32
1.22
1.13
1.04
0.96
0.87
0.785
0.7
0.605
0.49
0.355
0.2
0.055
-0.075
-0.205
-0.345
-0.535
-0.74
-0.925
-1.065
-1.17
-1.295
-1.435
-1.55
-1.665
-1.75
-1.765
-1.785
-1.85
-1.97
-2.08
-2.16
-2.205
-2.265
-2.3
-2.31
-2.305
-2.24
-2.14
-2.01
-1.84
-1.655
-1.515
-1.415
-1.395
-1.355
-1.355
-1.335
-1.31
-1.255
-1.23
-1.215
-1.21
-1.205
-1.2
-1.16
-1.085
-1.0
-0.925
-0.885
-0.86
-0.81
-0.735
-0.63
-0.545
-0.505
-0.495
-0.46
-0.4
-0.3
-0.195
-0.135
-0.14
-0.145
-0.07
0.045
0.12
0.115
0.105
0.125
0.195
0.27
0.345
0.37
0.38
0.39
0.395
0.39
0.385
0.395
0.415
0.485
0.54
0.565
0.6
0.625
0.64
0.66
0.665
0.665
0.675
0.69
0.675
0.655
0.65
0.675
0.695
0.705
0.68
0.68
0.675
0.68
0.66
0.63
0.61
0.62
0.625
0.605
0.59
0.54
0.505
0.495
0.47
0.43
0.4
0.345
0.295
0.25
0.22
0.19
0.135
0.085
0.03
-0.01
-0.07
-0.105
-0.14
-0.195
-0.27
-0.345
-0.39
-0.4
-0.415
-0.445
-0.52
-0.575
-0.6
-0.625
-0.635
-0.655
-0.695
-0.72
-0.72
-0.725
-0.755
-0.79
-0.82
-0.8
-0.75
-0.725
-0.745
-0.765
-0.79
-0.82
-0.84
-0.865
-0.89
-0.905
-0.925
-0.885
-0.83
-0.81
-0.82
-0.865
-0.91
-0.925
-0.895
-0.865
-0.83
-0.815
-0.84
-0.885
-0.91
-0.885
-0.855
-0.835
-0.84
-0.825
-0.82
-0.825
-0.855
-0.89
-0.895
-0.865
-0.825
-0.805
-0.835
-0.875
-0.91
-0.91
-0.91
-0.89
-0.865
-0.865
-0.85
-0.84
-0.84
-0.83
-0.82
-0.8
-0.795
-0.795
-0.8
-0.815
-0.85
-0.865
-0.88
-0.88
-0.865
-0.85
-0.84
-0.845
-0.84
-0.84
-0.835
-0.86
-0.89
-0.91
-0.905
-0.865
-0.825
-0.825
-0.825
-0.835
-0.855
-0.85
-0.85
-0.84
-0.82
-0.825
-0.825
-0.8
-0.78
-0.785
-0.8
-0.81
-0.825
-0.785
-0.76
-0.77
-0.775
-0.79
-0.8
-0.785
-0.765
-0.745
-0.745
-0.745
-0.765
-0.78
-0.79
-0.785
-0.785
-0.78
-0.76
-0.75
-0.73
-0.74
-0.74
-0.74
-0.755
-0.735
-0.725
-0.695
-0.68
-0.67
-0.67
-0.68
-0.67
-0.655
-0.61
-0.56
-0.485
-0.365
-0.1
0.45
1.085
1.71
1.915
1.85
1.725
1.63
1.565
1.48
1.38
1.27
1.175
1.095
1.0
0.93
0.855
0.78
0.685
0.575
0.445
0.31
0.21
0.12
0.01
-0.13
-0.335
-0.55
-0.75
-0.895
-1.02
-1.155
-1.275
-1.385
-1.495
-1.57
-1.635
-1.7
-1.79
-1.915
-2.045
-2.145
-2.235
-2.3
-2.39
-2.44
-2.435
-2.375
-2.28
-2.16
-2.04
-1.895
-1.72
-1.565
-1.45
-1.4
-1.395
-1.405
-1.4
-1.365
-1.31
-1.265
-1.255
-1.25
-1.245
-1.22
-1.19
-1.14
-1.09
-1.025
-0.955
-0.895
-0.86
-0.825
-0.795
-0.735
-0.66
-0.565
-0.49
-0.425
-0.38
-0.33
-0.29
-0.26
-0.235
-0.225
-0.21
-0.19
-0.165
-0.14
-0.11
-0.085
-0.05
-0.035
-0.02
0.005
0.04
0.05
0.065
0.07
0.095
0.14
0.185
0.23
0.28
0.295
0.3
0.335
0.365
0.4
0.435
0.445
0.47
0.505
0.545
0.58
0.615
0.64
0.67
0.685
0.72
0.735
0.755
0.775
0.785
0.805
0.82
0.82
0.8
0.79
0.78
0.76
0.76
0.745
0.71
0.69
0.67
0.66
0.625
0.58
0.525
0.475
0.435
0.4
0.345
0.285
0.24
0.165
0.11
0.06
0.015
-0.025
-0.065
-0.12
-0.18
-0.2
-0.24
-0.28
-0.32
-0.345
-0.365
-0.395
-0.415
-0.445
-0.485
-0.505
-0.52
-0.51
-0.515
-0.535
-0.58
-0.6
-0.595
-0.58
-0.565
-0.565
-0.58
-0.61
-0.635
-0.625
-0.61
-0.605
-0.59
-0.61
-0.615
-0.595
-0.595
-0.595
-0.605
-0.615
-0.625
-0.625
-0.65
-0.655
-0.655
-0.66
-0.66
-0.65
-0.63
-0.62
-0.605
-0.6
-0.61
-0.59
-0.59
-0.595
-0.605
-0.605
-0.6
-0.59
-0.585
-0.59
-0.59
-0.58
-0.585
-0.56
-0.545
-0.535
-0.54
-0.555
-0.575
-0.575
-0.585
-0.585
-0.58
-0.58
-0.595
-0.57
-0.565
-0.57
-0.58
-0.565
-0.57
-0.56
-0.53
-0.53
-0.53
-0.55
-0.565
-0.56
-0.585
-0.58
-0.6
-0.6
-0.59
-0.565
-0.55
-0.545
-0.55
-0.545
-0.545
-0.535
-0.525
-0.54
-0.525
-0.525
-0.5
-0.465
-0.45
-0.42
-0.415
-0.375
-0.355
-0.305
-0.285
-0.275
-0.285
-0.275
-0.24
-0.185
-0.13
-0.14
-0.165
-0.22
-0.235
-0.225
-0.205
-0.195
-0.19
-0.215
-0.2
-0.19
-0.18
-0.205
-0.24
-0.29
-0.325
-0.36
-0.38
-0.395
-0.42
-0.435
-0.44
-0.42
-0.42
-0.455
-0.495
-0.54
-0.545
-0.5
-0.455
-0.4
-0.3
-0.1
0.365
1.0
1.635
1.975
1.925
1.775
1.665
1.625
1.59
1.505
1.405
1.29
1.155
1.045
0.95
0.865
0.75
0.61
0.485
0.37
0.25
0.115
-0.045
-0.185
-0.37
-0.55
-0.735
-0.895
-1.07
-1.235
-1.395
-1.54
-1.665
-1.765
-1.835
-1.915
-1.96
-1.985
-2.01
-2.085
-2.205
-2.305
-2.36
-2.4
-2.445
-2.515
-2.545
-2.505
-2.405
-2.265
-2.115
-1.965
-1.81
-1.64
-1.51
-1.43
-1.385
-1.355
-1.32
-1.285
-1.265
-1.2
-1.155
-1.12
-1.115
-1.105
-1.05
-0.99
-0.91
-0.835
-0.795
-0.745
-0.72
-0.665
-0.61
-0.525
-0.435
-0.38
-0.335
-0.26
-0.21
-0.15
-0.105
-0.07
-0.04
-0.01
0.025
0.055
0.06
0.07
0.09
0.12
0.14
0.17
0.18
0.19
0.235
0.275
0.31
0.32
0.33
0.35
0.385
0.43
0.48
0.51
0.52
0.54
0.575
0.61
0.625
0.66
0.7
0.74
0.78
0.805
0.84
0.875
0.9
0.93
0.955
0.96
0.955
0.965
0.975
0.965
0.985
1.005
1.01
1.01
1.0
0.99
0.97
0.97
0.96
0.955
0.935
0.905
0.88
0.865
0.84
0.78
0.73
0.675
0.625
0.595
0.56
0.535
0.49
0.445
0.39
0.34
0.325
0.28
0.235
0.175
0.105
0.07
0.005
-0.055
-0.105
-0.14
-0.165
-0.195
-0.225
-0.26
-0.305
-0.335
-0.34
-0.34
-0.34
-0.35
-0.36
-0.39
-0.405
-0.415
-0.445
-0.455
-0.475
-0.485
-0.49
-0.485
-0.5
-0.495
-0.5
-0.505
-0.495
-0.47
-0.475
-0.48
-0.485
-0.465
-0.44
-0.415
-0.4
-0.42
-0.415
-0.385
-0.33
-0.25
-0.18
-0.145
-0.125
-0.16
-0.2
-0.2
-0.175
-0.15
-0.11
-0.1
-0.1
-0.1
-0.1
-0.135
-0.16
-0.19
-0.21
-0.19
-0.175
-0.18
-0.18
-0.195
-0.21
-0.23
-0.245
-0.29
-0.305
-0.325
-0.32
-0.315
-0.335
-0.365
-0.44
-0.495
-0.535
-0.56
-0.56
-0.56
-0.565
-0.565
-0.59
-0.605
-0.61
-0.605
-0.6
-0.59
-0.585
-0.565
-0.575
-0.59
-0.615
-0.63
-0.625
-0.615
-0.605
-0.615
-0.625
-0.635
-0.63
-0.605
-0.595
-0.595
-0.595
-0.565
-0.57
-0.565
-0.585
-0.605
-0.62
-0.635
-0.635
-0.61
-0.575
-0.57
-0.595
-0.615
-0.625
-0.605
-0.575
-0.58
-0.575
-0.59
-0.61
-0.61
-0.595
-0.59
-0.595
-0.61
-0.6
-0.585
-0.575
-0.57
-0.565
-0.565
-0.57
-0.55
-0.525
-0.53
-0.515
-0.52
-0.51
-0.475
-0.445
-0.42
-0.375
-0.295
-0.095
0.345
0.98
1.615
2.005
2.0
1.84
1.745
1.7
1.64
1.55
1.45
1.345
1.26
1.19
1.09
0.99
0.885
0.77
0.67
0.555
0.43
0.285
0.15
-0.025
-0.195
-0.38
-0.57
-0.765
-0.915
-1.11
-1.28
-1.44
-1.61
-1.74
-1.815
-1.88
-1.91
-1.95
-2.02
-2.105
-2.215
-2.325
-2.365
-2.395
-2.445
