Lead II
0.03
0.05
0.065
0.06
0.055
0.04
0.04
0.04
0.045
0.03
0.02
0.015
0.0
0.025
0.025
0.0
-0.02
-0.03
-0.02
-0.02
0.0
-0.02
-0.03
-0.03
-0.03
-0.015
-0.01
-0.025
-0.04
-0.035
-0.035
-0.03
-0.02
-0.015
-0.02
-0.025
-0.025
-0.015
-0.015
-0.01
-0.025
-0.03
-0.015
0.005
0.015
0.0
-0.005
0.02
0.09
0.2
0.285
0.355
0.42
0.48
0.55
0.63
0.695
0.725
0.81
0.955
1.125
1.32
1.515
1.685
1.845
1.985
2.11
2.19
2.19
2.13
1.95
1.67
1.36
1.12
0.95
0.805
0.715
0.63
0.565
0.535
0.535
0.515
0.455
0.425
0.385
0.37
0.345
0.305
0.255
0.2
0.165
0.135
0.115
0.08
0.035
0.005
-0.035
-0.055
-0.075
-0.115
-0.175
-0.2
-0.2
-0.19
-0.205
-0.24
-0.255
-0.26
-0.275
-0.25
-0.24
-0.245
-0.255
-0.27
-0.275
-0.265
-0.265
-0.29
-0.29
-0.3
-0.3
-0.285
-0.28
-0.295
-0.32
-0.34
-0.335
-0.33
-0.32
-0.33
-0.35
-0.36
-0.365
-0.335
-0.34
-0.355
-0.395
-0.395
-0.385
-0.38
-0.385
-0.395
-0.41
-0.405
-0.415
-0.425
-0.41
-0.425
-0.435
-0.46
-0.465
-0.455
-0.455
-0.46
-0.465
-0.48
-0.49
-0.485
-0.485
-0.485
-0.505
-0.52
-0.51
-0.485
-0.485
-0.49
-0.5
-0.5
-0.475
-0.45
-0.415
-0.415
-0.415
-0.4
-0.365
-0.34
-0.31
-0.29
-0.285
-0.27
-0.24
-0.21
-0.2
-0.155
-0.175
-0.155
-0.14
-0.13
-0.085
-0.075
-0.07
-0.065
-0.04
-0.025
-0.025
-0.035
-0.04
-0.06
-0.055
-0.04
-0.015
-0.04
-0.055
-0.065
-0.06
-0.04
-0.03
-0.04
-0.06
-0.075
-0.06
-0.055
-0.05
-0.05
-0.055
-0.07
-0.065
-0.055
-0.045
-0.05
-0.065
-0.06
-0.075
-0.065
-0.075
-0.07
-0.08
-0.1
-0.065
-0.045
-0.05
-0.05
-0.07
-0.09
-0.08
-0.06
-0.05
-0.06
-0.075
-0.105
-0.11
-0.095
-0.08
-0.095
-0.09
-0.1
-0.1
-0.095
-0.09
-0.085
-0.075
-0.09
-0.105
-0.1
-0.075
-0.085
-0.09
-0.095
-0.09
-0.08
-0.075
-0.075
-0.105
-0.11
-0.1
-0.07
-0.045
-0.06
-0.1
-0.11
-0.095
-0.075
-0.06
-0.07
-0.08
-0.09
-0.1
-0.08
-0.075
-0.07
-0.07
-0.095
-0.1
-0.09
-0.08
-0.065
-0.06
-0.065
-0.05
-0.05
-0.04
-0.04
-0.025
-0.02
-0.005
-0.005
0.005
-0.005
-0.015
-0.025
-0.015
-0.01
0.0
-0.01
-0.015
-0.025
-0.015
0.0
0.03
0.02
0.005
-0.02
-0.03
-0.035
-0.035
-0.04
-0.055
-0.075
-0.08
-0.09
-0.085
-0.085
-0.1
-0.105
-0.095
-0.08
-0.065
-0.085
-0.11
-0.125
-0.115
-0.095
-0.085
-0.085
-0.095
-0.105
-0.105
-0.09
-0.08
-0.08
-0.085
-0.09
-0.09
-0.065
-0.065
-0.06
-0.06
-0.025
0.065
0.19
0.31
0.415
0.495
0.61
0.755
0.905
1.085
1.27
1.455
1.595
1.76
1.93
2.07
2.185
2.225
2.19
2.06
1.815
1.495
1.095
0.73
0.5
0.375
0.35
0.33
0.31
0.285
0.255
0.255
0.225
0.21
0.13
0.09
0.05
0.025
0.015
-0.005
-0.05
-0.09
-0.14
-0.155
-0.16
-0.185
-0.2
-0.24
-0.265
-0.27
-0.265
-0.245
-0.26
-0.28
-0.31
-0.315
-0.3
-0.295
-0.29
-0.32
-0.34
-0.34
-0.31
-0.295
-0.305
-0.315
-0.34
-0.33
-0.315
-0.315
-0.335
-0.355
-0.365
-0.355
-0.34
-0.33
-0.34
-0.36
-0.38
-0.37
-0.375
-0.355
-0.36
-0.38
-0.4
-0.41
-0.405
-0.395
-0.385
-0.41
-0.42
-0.445
-0.435
-0.43
-0.44
-0.46
-0.46
-0.46
-0.44
-0.445
-0.44
-0.465
-0.47
-0.46
-0.45
-0.445
-0.435
-0.46
-0.47
-0.435
-0.42
-0.365
-0.36
-0.36
-0.36
-0.325
-0.295
-0.245
-0.23
-0.22
-0.215
-0.2
-0.155
-0.13
-0.11
-0.105
-0.11
-0.11
-0.09
-0.075
-0.07
-0.08
-0.085
-0.07
-0.065
-0.075
-0.07
-0.065
-0.065
-0.065
-0.055
-0.055
-0.06
-0.09
-0.075
-0.08
-0.06
-0.06
-0.075
-0.085
-0.1
-0.075
-0.05
-0.035
-0.04
-0.075
-0.085
-0.085
-0.07
-0.055
-0.06
-0.07
-0.095
-0.09
-0.075
-0.065
-0.065
-0.075
-0.085
-0.075
-0.08
-0.08
-0.09
-0.09
-0.095
-0.09
-0.085
-0.075
-0.075
-0.09
-0.105
-0.08
-0.075
-0.075
-0.085
-0.1
-0.1
-0.09
-0.065
-0.065
-0.065
-0.08
-0.095
-0.1
-0.065
-0.065
-0.06
-0.09
-0.095
-0.095
-0.09
-0.06
-0.07
-0.08
-0.095
-0.095
-0.09
-0.07
-0.065
-0.08
-0.095
-0.1
-0.08
-0.07
-0.065
-0.07
-0.07
-0.075
-0.07
-0.065
-0.07
-0.06
-0.065
-0.035
-0.025
-0.01
-0.03
-0.04
-0.025
-0.015
0.0
0.015
-0.005
-0.005
-0.03
-0.01
0.025
0.025
0.005
-0.02
-0.03
-0.045
-0.02
0.0
-0.02
-0.045
-0.06
-0.065
-0.07
-0.055
-0.055
-0.085
-0.085
-0.095
-0.095
-0.085
-0.08
-0.085
-0.095
-0.085
-0.085
-0.09
-0.09
-0.095
-0.085
-0.1
-0.08
-0.075
-0.09
-0.09
-0.095
-0.07
-0.06
-0.05
-0.06
-0.07
-0.08
-0.07
-0.05
-0.02
0.015
0.105
0.21
0.34
0.465
0.57
0.67
0.835
1.025
1.27
1.515
1.78
1.99
2.135
2.195
2.22
2.19
2.085
1.825
1.42
0.99
0.68
0.505
0.455
0.42
0.385
0.375
0.34
0.31
0.265
0.235
0.175
0.145
0.135
0.12
0.095
0.055
0.0
-0.035
-0.07
-0.085
-0.115
-0.135
-0.195
-0.205
-0.215
-0.215
-0.21
-0.225
-0.245
-0.255
-0.245
-0.24
-0.225
-0.245
-0.255
-0.275
-0.27
-0.27
-0.265
-0.265
-0.285
-0.3
-0.285
-0.27
-0.275
-0.285
-0.295
-0.31
-0.305
-0.3
-0.29
-0.315
-0.35
-0.34
-0.34
-0.325
-0.315
-0.34
-0.34
-0.365
-0.365
-0.365
-0.34
-0.35
-0.38
-0.415
-0.4
-0.385
-0.375
-0.385
-0.415
-0.425
-0.43
-0.415
-0.41
-0.405
-0.425
-0.415
-0.405
-0.39
-0.395
-0.395
-0.38
-0.38
-0.355
-0.33
-0.31
-0.29
-0.285
-0.27
-0.245
-0.2
-0.185
-0.18
-0.185
-0.18
-0.15
-0.1
-0.075
-0.065
-0.065
-0.075
-0.065
-0.055
-0.03
-0.035
-0.05
-0.06
-0.06
-0.05
-0.04
-0.04
-0.05
-0.065
-0.065
-0.07
-0.04
-0.05
-0.06
-0.075
-0.08
-0.08
-0.06
-0.07
-0.075
-0.07
-0.075
-0.07
-0.06
-0.075
-0.075
-0.08
-0.08
-0.06
-0.07
-0.085
-0.105
-0.11
-0.085
-0.085
-0.07
-0.075
-0.09
-0.12
-0.1
-0.085
-0.07
-0.075
-0.12
-0.125
-0.125
-0.1
-0.08
-0.075
-0.105
-0.12
-0.12
-0.1
-0.095
-0.11
-0.11
-0.125
-0.115
-0.105
-0.09
-0.1
-0.105
-0.11
-0.09
-0.08
-0.075
-0.095
-0.105
-0.09
-0.1
-0.08
-0.065
-0.08
-0.095
-0.105
-0.105
-0.09
-0.07
-0.085
-0.095
-0.125
-0.12
-0.105
-0.075
-0.085
-0.095
-0.115
-0.115
-0.105
-0.095
-0.075
-0.095
-0.095
-0.095
-0.075
-0.06
-0.07
-0.08
-0.07
-0.06
-0.03
-0.01
-0.045
-0.035
-0.04
-0.045
-0.02
0.005
0.0
-0.01
-0.025
-0.025
-0.03
-0.015
-0.03
-0.065
-0.065
-0.085
-0.065
-0.065
-0.07
-0.08
-0.09
-0.1
-0.09
-0.08
-0.08
-0.1
-0.1
-0.08
-0.075
-0.085
-0.11
-0.145
-0.16
-0.15
-0.12
-0.1
-0.115
-0.13
-0.15
-0.145
-0.125
-0.1
-0.095
-0.105
-0.11
-0.12
-0.105
-0.095
-0.09
-0.105
-0.115
-0.11
-0.095
-0.08
-0.065
-0.01
0.085
0.205
0.315
0.42
0.49
0.565
0.63
0.74
0.89
1.1
1.305
1.51
1.715
1.89
2.02
2.08
2.035
1.87
1.59
1.23
0.915
0.715
0.585
0.52
0.455
0.435
0.41
0.385
0.37
0.335
0.275
0.22
0.18
0.14
0.115
0.065
0.035
0.0
-0.03
-0.06
-0.08
-0.115
-0.16
-0.17
-0.165
-0.2
-0.225
-0.265
-0.28
-0.285
-0.28
-0.26
-0.275
-0.29
-0.31
-0.315
-0.32
-0.295
-0.295
-0.3
-0.31
-0.315
-0.32
-0.31
-0.32
-0.34
-0.35
-0.345
-0.34
-0.335
-0.34
-0.36
-0.39
-0.37
-0.365
-0.36
-0.375
-0.38
-0.4
-0.4
-0.39
-0.39
-0.405
-0.43
-0.45
-0.46
-0.45
-0.45
-0.47
-0.47
-0.48
-0.48
-0.49
-0.495
-0.51
-0.54
-0.55
-0.55
-0.525
-0.505
-0.5
-0.52
-0.55
-0.555
-0.535
-0.52
-0.505
-0.51
-0.5
-0.505
-0.49
-0.48
-0.475
-0.46
-0.46
-0.445
-0.415
-0.4
-0.39
-0.375
-0.38
-0.345
-0.325
-0.275
-0.26
-0.25
-0.24
-0.22
-0.2
-0.16
-0.135
-0.135
-0.135
-0.13
-0.115
-0.1
-0.085
-0.11
-0.1
-0.095
-0.09
-0.085
-0.09
-0.11
-0.14
-0.12
-0.08
-0.075
-0.08
-0.105
-0.12
-0.12
-0.1
-0.08
-0.08
-0.095
-0.12
-0.125
-0.11
-0.085
-0.095
-0.11
-0.125
-0.125
-0.115
-0.095
-0.105
-0.115
-0.13
-0.135
-0.115
-0.11
-0.125
-0.14
-0.145
-0.155
-0.145
-0.12
-0.145
-0.16
-0.18
-0.16
-0.15
-0.13
-0.13
-0.135
-0.15
-0.15
-0.14
-0.13
-0.145
-0.16
-0.18
-0.16
-0.14
-0.135
-0.145
-0.16
-0.185
-0.16
-0.145
-0.12
-0.115
-0.145
-0.165
-0.17
-0.15
-0.14
-0.125
-0.145
-0.14
-0.145
-0.14
-0.13
-0.135
-0.14
-0.155
-0.145
-0.135
-0.14
-0.14
-0.155
-0.13
-0.125
-0.13
-0.12
-0.13
-0.145
-0.145
-0.13
-0.115
-0.12
-0.135
-0.13
-0.14
-0.125
-0.1
-0.06
-0.065
-0.09
-0.105
-0.11
-0.085
-0.055
-0.06
-0.075
-0.08
-0.08
-0.075
-0.08
-0.08
-0.08
-0.09
-0.095
-0.095
-0.09
-0.11
-0.105
-0.11
-0.095
-0.105
-0.11
-0.13
-0.17
-0.175
-0.175
-0.16
-0.13
-0.125
-0.145
-0.18
-0.17
-0.17
-0.155
-0.135
-0.145
-0.165
-0.165
-0.165
-0.14
-0.13
-0.14
-0.145
-0.135
-0.12
-0.12
-0.125
-0.115
-0.11
-0.1
-0.075
-0.075
-0.095
-0.105
-0.08
0.015
0.13
0.27
0.33
0.38
0.44
0.54
0.69
0.855
1.035
1.205
1.415
1.625
1.855
2.06
2.185
2.215
2.14
1.995
1.725
1.38
1.0
0.695
0.48
0.35
0.285
0.265
0.25
0.215
0.19
0.175
0.145
0.135
0.09
0.06
0.025
0.02
0.025
0.025
-0.005
-0.06
-0.085
-0.11
-0.145
-0.145
-0.18
-0.205
-0.225
-0.225
-0.235
-0.245
-0.245
-0.27
-0.275
-0.275
-0.265
-0.265
-0.27
-0.295
-0.31
-0.3
-0.285
-0.285
-0.285
-0.32
-0.33
-0.325
-0.325
-0.3
-0.315
-0.34
-0.35
-0.35
-0.34
-0.33
-0.33
-0.345
-0.36
-0.36
-0.37
-0.36
-0.365
-0.385
-0.4
-0.41
-0.4
-0.4
-0.415
-0.435
-0.45
-0.43
-0.42
-0.405
-0.425
-0.45
-0.475
-0.455
-0.45
-0.45
-0.445
-0.455
-0.48
-0.48
-0.465
-0.45
-0.45
-0.465
-0.455
-0.445
-0.435
-0.42
-0.43
-0.425
-0.425
-0.405
-0.37
-0.335
-0.32
-0.32
-0.305
-0.285
-0.26
-0.24
-0.22
-0.205
-0.2
-0.19
-0.155
-0.135
-0.13
-0.125
-0.125
-0.095
-0.075
-0.065
-0.07
-0.08
-0.09
-0.08
-0.06
-0.04
-0.045
-0.075
-0.085
-0.075
-0.065
-0.06
-0.06
-0.07
-0.08
-0.085
-0.085
-0.06
-0.065
-0.075
-0.09
-0.075
-0.065
-0.055
-0.075
-0.08
-0.08
-0.07
-0.055
-0.045
-0.055
-0.075
-0.1
-0.09
-0.075
-0.065
-0.065
-0.08
-0.095
-0.085
-0.085
-0.075
-0.065
-0.08
-0.09
-0.085
-0.065
-0.065
-0.07
-0.09
-0.105
-0.095
-0.085
-0.06
-0.065
-0.075
-0.085
-0.095
-0.08
-0.06
-0.065
-0.06
-0.08
-0.07
-0.08
-0.055
-0.08
-0.08
-0.07
-0.07
-0.06
-0.06
-0.065
-0.065
-0.08
-0.06
-0.05
-0.04
-0.055
-0.07
-0.095
-0.08
-0.075
-0.055
-0.055
-0.065
-0.08
-0.075
-0.06
-0.05
-0.05
-0.05
-0.065
-0.065
-0.055
-0.05
-0.055
-0.045
-0.06
-0.06
-0.03
-0.025
-0.025
-0.035
-0.035
-0.04
-0.015
-0.01
-0.005
-0.015
-0.03
-0.02
0.0
0.025
0.02
0.015
0.0
0.01
0.025
0.025
-0.005
-0.03
-0.035
-0.035
-0.02
-0.04
-0.055
-0.07
-0.08
-0.06
-0.035
-0.025
-0.05
-0.075
-0.08
-0.105
-0.08
-0.065
-0.065
-0.08
-0.085
-0.1
-0.09
-0.06
-0.07
-0.075
-0.1
-0.09
-0.08
-0.075
-0.07
-0.055
-0.06
-0.045
-0.05
-0.03
-0.04
-0.055
-0.05
-0.04
-0.02
-0.01
-0.04
-0.015
0.02
0.125
0.24
0.345
0.4
0.42
0.47
0.575
0.71
0.875
1.09
1.295
1.53
1.77
1.985
2.12
2.17
2.11
1.95
1.71
1.405
1.125
0.88
0.69
0.555
0.52
0.475
0.465
0.425
0.395
0.37
0.335
0.3
0.265
0.215
0.16
0.13
0.12
0.115
0.08
0.045
-0.015
-0.05
-0.08
-0.095
-0.1
-0.125
-0.15
-0.18
-0.195
-0.19
-0.18
-0.19
-0.205
-0.205
-0.215
-0.22
-0.215
-0.235
-0.235
-0.24
-0.235
-0.225
-0.22
-0.23
-0.24
-0.27
-0.25
-0.245
-0.23
-0.225
-0.25
-0.27
-0.285
-0.28
-0.265
-0.27
-0.295
-0.3
-0.315
-0.3
-0.295
-0.3
-0.305
-0.33
-0.335
-0.325
-0.33
-0.345
-0.36
-0.38
-0.375
-0.355
-0.35
-0.36
-0.38
-0.39
-0.4
-0.385
-0.38
-0.38
-0.41
-0.42
-0.42
-0.41
-0.4
-0.405
-0.41
-0.415
-0.405
-0.385
-0.37
-0.36
-0.365
-0.36
-0.35
-0.315
-0.28
-0.27
-0.27
-0.265
-0.26
-0.205
-0.185
-0.16
-0.15
-0.135
-0.11
-0.095
-0.095
-0.09
-0.11
-0.09
-0.07
-0.045
-0.04
-0.05
-0.065
-0.065
-0.055
-0.05
-0.02
-0.03
-0.05
-0.075
-0.08
-0.06
-0.05
-0.055
-0.055
-0.065
-0.06
-0.045
-0.035
-0.055
-0.07
-0.07
-0.055
-0.05
-0.04
-0.04
-0.07
-0.075
-0.08
-0.065
-0.06
-0.065
-0.06
-0.06
-0.055
-0.04
-0.055
-0.075
-0.075
-0.085
-0.09
-0.07
-0.06
-0.07
-0.085
-0.105
-0.095
-0.085
-0.06
-0.085
-0.085
-0.1
-0.115
-0.105
-0.09
-0.1
-0.12
-0.12
-0.1
-0.1
-0.1
-0.1
-0.11
-0.11
-0.105
-0.09
-0.08
-0.09
-0.11
-0.12
-0.1
-0.09
-0.085
-0.07
-0.07
-0.105
-0.1
-0.07
-0.075
-0.075
-0.09
-0.08
-0.085
-0.08
-0.08
-0.08
-0.08
-0.095
-0.08
-0.06
-0.055
-0.07
-0.085
-0.085
-0.08
-0.065
-0.07
-0.08
-0.095
-0.1
-0.085
-0.06
-0.06
-0.045
-0.065
-0.085
-0.075
-0.06
-0.04
-0.055
-0.05
-0.055
-0.03
-0.02
-0.01
-0.005
-0.015
-0.015
-0.015
-0.01
0.005
-0.015
-0.04
-0.05
-0.025
-0.02
-0.025
-0.03
-0.06
-0.085
-0.085
-0.06
-0.025
-0.045
-0.05
-0.09
-0.1
-0.1
-0.095
-0.085
-0.1
-0.105
-0.105
-0.09
-0.07
-0.09
-0.1
-0.115
-0.095
-0.075
-0.075
-0.08
-0.11
-0.11
-0.08
-0.07
-0.025
-0.045
-0.065
-0.065
-0.06
-0.035
-0.015
-0.02
-0.04
-0.035
-0.03
-0.005
0.06
0.13
0.235
0.325
0.41
0.5
0.59
0.695
0.8
0.945
1.12
1.255
1.365
1.47
1.625
1.79
1.935
2.02
2.015
1.905
1.67
1.35
1.015
0.755
0.6
0.505
0.46
0.43
0.41
0.425
0.425
0.405
0.36
0.315
0.29
0.255
0.245
0.21
0.165
0.095
0.08
0.06
0.055
0.015
-0.04
-0.08
-0.115
-0.13
-0.135
-0.145
-0.16
-0.175
-0.19
-0.19
-0.18
-0.2
-0.215
-0.235
-0.215
-0.205
-0.2
-0.2
-0.23
-0.255
-0.25
-0.25
-0.225
-0.235
-0.24
-0.27
-0.24
-0.25
-0.245
-0.245
-0.26
-0.265
-0.28
-0.28
-0.27
-0.28
-0.305
-0.315
-0.315
-0.285
-0.285
-0.295
-0.315
-0.315
-0.32
-0.305
-0.3
-0.305
-0.31
-0.325
-0.33
-0.325
-0.32
-0.335
-0.36
-0.365
-0.36
-0.36
-0.375
-0.38
-0.415
-0.405
-0.405
-0.39
-0.365
-0.37
-0.375
-0.395
-0.38
-0.365
-0.34
-0.325
-0.325
-0.33
-0.315
-0.325
-0.31
-0.29
-0.28
-0.27
-0.25
-0.215
-0.19
-0.185
-0.195
-0.21
-0.19
-0.155
-0.13
-0.105
-0.115
-0.1
-0.1
-0.08
-0.07
-0.05
-0.055
-0.05
-0.045
-0.035
-0.035
-0.045
-0.075
-0.065
-0.065
-0.04
-0.035
-0.04
-0.055
-0.08
-0.07
-0.06
-0.065
-0.06
-0.07
-0.09
-0.085
-0.09
-0.07
-0.075
-0.085
-0.09
-0.08
-0.08
-0.055
-0.065
-0.08
-0.095
-0.105
-0.085
-0.07
-0.08
-0.095
-0.11
-0.1
-0.095
-0.095
-0.085
-0.095
-0.105
-0.105
-0.105
-0.095
-0.095
-0.12
-0.14
-0.135
-0.115
-0.11
-0.115
-0.125
-0.135
-0.13
-0.11
-0.09
-0.08
-0.115
-0.125
-0.12
-0.105
-0.09
-0.11
-0.11
-0.11
-0.13
-0.1
-0.095
-0.105
-0.115
-0.12
-0.095
-0.08
-0.08
-0.09
-0.115
-0.12
-0.14
-0.115
-0.09
-0.09
-0.085
-0.1
-0.1
-0.09
-0.085
-0.085
-0.1
-0.1
-0.1
-0.095
-0.105
-0.115
-0.125
-0.11
-0.105
-0.09
-0.07
-0.075
-0.095
-0.11
-0.1
-0.1
-0.065
-0.075
-0.09
-0.095
-0.095
-0.075
-0.055
-0.035
-0.04
-0.035
-0.03
-0.035
-0.03
-0.035
-0.035
-0.035
-0.02
-0.025
-0.03
-0.045
-0.07
-0.1
-0.1
-0.095
-0.07
-0.075
-0.085
-0.085
-0.08
-0.08
-0.085
-0.105
-0.135
-0.135
-0.125
-0.115
-0.11
-0.11
-0.115
-0.125
-0.13
-0.115
-0.1
-0.085
-0.11
-0.135
-0.115
-0.09
-0.08
-0.07
-0.08
-0.1
-0.08
-0.06
-0.04
-0.05
-0.06
-0.08
-0.075
-0.045
0.005
0.07
0.155
0.24
0.3
0.37
0.425
0.47
0.525
0.605
0.74
0.9
1.1
1.27
1.45
1.635
1.795
1.91
1.945
1.86
1.655
1.355
1.0
0.74
0.585
0.495
0.435
0.38
0.345
0.35
0.36
0.34
0.305
0.26
0.225
0.205
0.17
0.155
0.115
0.075
0.035
0.02
0.0
-0.025
-0.06
-0.095
-0.105
-0.105
-0.125
-0.15
-0.185
-0.2
-0.205
-0.205
-0.195
-0.21
-0.235
-0.265
-0.255
-0.245
-0.24
-0.245
-0.245
-0.27
-0.27
-0.26
-0.255
-0.27
-0.28
-0.285
-0.28
-0.26
-0.26
-0.28
-0.29
-0.295
-0.305
-0.285
-0.26
-0.28
-0.3
-0.335
-0.34
-0.33
-0.325
-0.335
-0.36
-0.36
-0.355
-0.34
-0.335
-0.355
-0.365
-0.38
-0.36
-0.355
-0.34
-0.355
-0.375
-0.405
-0.405
-0.405
-0.4
-0.405
-0.42
-0.425
-0.42
-0.395
-0.395
-0.4
-0.43
-0.43
-0.41
-0.4
-0.395
-0.405
-0.425
-0.435
-0.425
-0.395
-0.365
-0.385
-0.385
-0.37
-0.355
-0.34
-0.31
-0.315
-0.315
-0.3
-0.28
-0.235
-0.215
-0.2
-0.195
-0.195
-0.185
-0.155
-0.115
-0.105
-0.12
-0.135
-0.12
-0.115
-0.085
-0.085
-0.1
-0.105
-0.09
-0.075
-0.065
-0.07
-0.1
-0.11
-0.11
-0.08
-0.06
-0.06
-0.075
-0.105
-0.1
-0.09
-0.09
-0.1
-0.1
-0.11
-0.085
-0.09
-0.08
-0.095
-0.12
-0.135
-0.12
-0.115
-0.1
-0.105
-0.125
-0.14
-0.115
-0.085
-0.075
-0.08
-0.105
-0.12
-0.12
-0.115
-0.105
-0.11
-0.125
-0.135
-0.13
-0.115
-0.1
-0.115
-0.125
-0.135
-0.135
-0.1
-0.09
-0.09
-0.12
-0.135
-0.13
-0.115
-0.11
-0.1
-0.11
-0.125
-0.115
-0.105
-0.1
-0.105
-0.12
-0.135
-0.13
-0.11
-0.11
-0.115
-0.13
-0.145
-0.125
-0.105
-0.1
-0.105
-0.13
-0.14
-0.15
-0.135
-0.12
-0.11
-0.12
-0.12
-0.125
-0.115
-0.1
-0.115
-0.13
-0.12
-0.125
-0.095
-0.085
-0.1
-0.115
-0.13
-0.125
-0.095
-0.09
-0.09
-0.105
-0.125
-0.115
-0.085
-0.045
-0.05
-0.07
-0.075
-0.07
-0.06
-0.03
-0.035
-0.02
-0.025
-0.02
-0.02
-0.025
-0.03
-0.05
-0.075
-0.08
-0.095
-0.095
-0.11
-0.12
-0.12
-0.1
-0.08
-0.095
-0.1
-0.145
-0.16
-0.165
-0.15
-0.135
-0.14
-0.17
-0.18
-0.155
-0.145
-0.145
-0.14
-0.145
-0.155
-0.155
-0.14
-0.13
-0.145
-0.145
-0.14
-0.13
-0.1
-0.09
-0.1
-0.12
-0.145
-0.12
-0.1
-0.07
-0.075
-0.095
-0.11
-0.115
-0.105
-0.07
0.005
0.1
0.185
0.26
0.32
0.36
0.405
0.46
0.56
0.725
0.94
1.16
1.355
1.55
1.73
1.865
1.905
1.84
1.645
1.33
0.96
0.675
0.51
0.42
0.345
0.29
0.28
0.29
0.305
0.31
0.3
0.285
0.245
0.195
0.185
0.165
0.125
0.085
0.045
0.02
0.01
-0.005
-0.045
-0.07
-0.105
-0.14
-0.15
-0.155
-0.195
-0.23
-0.24
-0.255
-0.265
-0.245
-0.25
-0.26
-0.275
-0.275
-0.285
-0.275
-0.29
-0.305
-0.305
-0.285
-0.265
-0.255
-0.265
-0.285
-0.305
-0.31
-0.31
-0.295
-0.3
-0.315
-0.325
-0.33
-0.32
-0.335
-0.33
-0.33
-0.35
-0.355
-0.355
-0.35
-0.36
-0.36
-0.37
-0.39
-0.37
-0.37
-0.37
-0.39
-0.42
-0.42
-0.4
-0.4
-0.415
-0.41
-0.44
-0.445
-0.435
-0.45
-0.46
-0.46
-0.46
-0.45
-0.445
-0.435
-0.45
-0.465
-0.455
-0.43
-0.415
-0.395
-0.4
-0.405
-0.415
-0.39
-0.355
-0.32
-0.295
-0.295
-0.295
-0.295
-0.26
-0.235
-0.225
-0.215
-0.19
-0.18
-0.15
-0.12
-0.12
-0.12
-0.12
-0.105
-0.085
-0.08
-0.09
-0.11
-0.11
-0.105
-0.075
-0.05
-0.055
-0.08
-0.095
-0.105
-0.105
-0.09
-0.085
-0.11
-0.12
-0.1
-0.095
-0.09
-0.09
-0.1
-0.085
-0.08
-0.06
-0.05
-0.055
-0.09
-0.125
-0.135
-0.13
-0.11
-0.11
-0.125
-0.135
-0.135
-0.11
-0.09
-0.1
-0.125
-0.15
-0.16
-0.13
-0.13
-0.14
-0.135
-0.145
-0.14
-0.125
-0.11
-0.125
-0.135
-0.125
-0.12
-0.11
-0.105
-0.12
-0.12
-0.125
-0.12
-0.105
-0.09
-0.1
-0.11
-0.12
-0.145
-0.125
-0.095
-0.095
-0.12
-0.135
-0.125
-0.1
-0.1
-0.095
-0.115
-0.115
-0.135
-0.11
-0.095
-0.1
-0.125
-0.14
-0.135
-0.115
-0.095
-0.09
-0.105
-0.105
-0.09
-0.075
-0.065
-0.065
-0.07
-0.07
-0.06
-0.03
-0.02
-0.035
-0.05
-0.06
-0.06
-0.035
-0.025
-0.01
-0.025
-0.065
-0.09
-0.11
-0.095
-0.075
-0.08
-0.085
-0.075
-0.07
-0.07
-0.08
-0.105
-0.12
-0.12
-0.11
-0.135
-0.125
-0.135
-0.13
-0.13
-0.125
-0.115
-0.135
-0.155
-0.135
-0.125
-0.1
-0.09
-0.095
-0.125
-0.125
-0.1
-0.09
-0.085
-0.09
-0.13
-0.115
-0.095
-0.08
-0.065
-0.08
-0.1
-0.105
-0.045
0.05
0.17
0.31
0.42
0.525
0.665
0.835
1.035
1.255
1.48
1.685
1.875
1.99
2.03
1.985
1.845
1.58
1.195
0.765
0.47
0.36
0.355
0.37
0.36
0.345
0.315
0.245
0.205
0.165
0.14
0.13
0.105
0.085
0.03
-0.02
-0.055
-0.07
-0.09
-0.125
-0.18
-0.21
-0.22
-0.22
-0.22
-0.24
-0.25
-0.28
-0.285
-0.28
-0.26
-0.27
-0.285
-0.305
-0.285
-0.27
-0.26
-0.265
-0.285
-0.32
-0.325
-0.305
-0.31
-0.31
-0.32
-0.32
-0.32
-0.31
-0.31
-0.32
-0.34
-0.35
-0.36
-0.35
-0.355
-0.385
-0.395
-0.41
-0.41
-0.39
-0.385
-0.38
-0.42
-0.445
-0.44
-0.455
-0.455
-0.455
-0.47
-0.5
-0.495
-0.485
-0.47
-0.47
-0.495
-0.495
-0.485
-0.475
-0.45
-0.44
-0.45
-0.44
-0.43
-0.4
-0.36
-0.345
-0.315
-0.315
-0.3
-0.28
-0.22
-0.225
-0.2
-0.185
-0.175
-0.15
-0.13
-0.13
-0.15
-0.135
-0.105
-0.08
-0.065
-0.085
-0.115
-0.115
-0.1
-0.085
-0.07
-0.07
-0.1
-0.12
-0.1
-0.085
-0.07
-0.08
-0.105
-0.11
-0.11
-0.105
-0.09
-0.1
-0.11
-0.1
-0.115
-0.115
-0.105
-0.125
-0.12
-0.115
-0.115
-0.11
-0.1
-0.1
-0.125
-0.135
-0.135
-0.115
-0.105
-0.12
-0.135
-0.155
-0.145
-0.115
-0.12
-0.125
-0.13
-0.135
-0.125
-0.11
-0.105
-0.125
-0.13
-0.14
-0.135
-0.14
-0.1
-0.09
-0.12
-0.14
-0.14
-0.12
-0.1
-0.095
-0.11
-0.11
-0.11
-0.1
-0.105
-0.1
-0.105
-0.115
-0.105
-0.09
-0.1
-0.1
-0.11
-0.115
-0.095
-0.085
-0.06
-0.07
-0.08
-0.07
-0.07
-0.045
-0.035
-0.03
-0.06
-0.075
-0.075
-0.04
-0.015
0.005
-0.025
-0.045
-0.055
-0.05
-0.035
-0.04
-0.045
-0.06
-0.065
-0.065
-0.07
-0.075
-0.095
-0.105
-0.11
-0.105
-0.095
-0.145
-0.17
-0.15
-0.145
-0.1
-0.095
-0.115
-0.135
-0.155
-0.14
-0.125
-0.1
-0.1
-0.115
-0.13
-0.11
-0.11
-0.095
-0.105
-0.115
-0.12
-0.11
-0.08
-0.075
-0.08
-0.055
0.0
0.12
0.26
0.4
0.5
0.61
0.745
0.905
1.125
1.37
1.575
1.75
1.895
2.015
2.075
2.065
1.98
1.72
1.315
0.855
0.49
0.265
0.19
0.175
0.19
0.19
0.19
0.17
0.155
0.105
0.08
0.06
0.07
0.07
0.045
-0.005
-0.055
-0.085
-0.11
-0.125
-0.15
-0.185
-0.235
-0.235
-0.245
-0.23
-0.23
-0.25
-0.265
-0.27
-0.28
-0.29
-0.28
-0.29
-0.295
-0.31
-0.3
-0.285
-0.28
-0.3
-0.315
-0.315
-0.31
-0.305
-0.305
-0.33
-0.345
-0.335
-0.325
-0.32
-0.32
-0.34
-0.34
-0.34
-0.345
-0.355
-0.395
-0.405
-0.405
-0.39
-0.37
-0.36
-0.385
-0.41
-0.42
-0.43
-0.43
-0.4
-0.43
-0.435
-0.45
-0.445
-0.45
-0.44
-0.44
-0.455
-0.47
-0.455
-0.435
-0.415
-0.41
-0.42
-0.415
-0.4
-0.365
-0.33
-0.305
-0.29
-0.285
-0.255
-0.235
-0.2
-0.19
-0.17
-0.18
-0.16
-0.12
-0.11
-0.125
-0.135
-0.125
-0.1
-0.09
-0.085
-0.105
-0.12
-0.125
-0.13
-0.105
-0.1
-0.105
-0.135
-0.125
-0.13
-0.13
-0.095
-0.105
-0.12
-0.13
-0.135
-0.13
-0.11
-0.12
-0.14
-0.155
-0.145
-0.14
-0.12
-0.115
-0.125
-0.125
-0.125
-0.12
-0.115
-0.145
-0.135
-0.145
-0.135
-0.135
-0.11
-0.13
-0.14
-0.15
-0.145
-0.13
-0.125
-0.14
-0.16
-0.165
-0.15
-0.13
-0.125
-0.13
-0.135
-0.15
-0.135
-0.11
-0.095
-0.105
-0.12
-0.125
-0.145
-0.12
-0.12
-0.125
-0.12
-0.135
-0.13
-0.13
-0.13
-0.12
-0.14
-0.135
-0.125
-0.115
-0.11
-0.125
-0.12
-0.14
-0.125
-0.115
-0.095
-0.1
-0.1
-0.105
-0.09
-0.05
-0.03
-0.045
-0.065
-0.08
-0.08
-0.065
-0.035
-0.04
-0.05
-0.06
-0.055
-0.055
-0.06
-0.055
-0.075
-0.07
-0.06
-0.07
-0.055
-0.065
-0.095
-0.095
-0.11
-0.1
-0.1
-0.13
-0.16
-0.175
-0.18
-0.16
-0.145
-0.14
-0.145
-0.17
-0.15
-0.13
-0.14
-0.155
-0.165
-0.175
-0.17
-0.18
-0.15
-0.155
-0.16
-0.165
-0.155
-0.14
-0.13
-0.14
-0.16
-0.155
-0.15
-0.14
-0.105
-0.125
-0.12
-0.065
0.025
0.165
0.27
0.36
0.415
0.465
0.57
0.69
0.805
0.945
1.07
1.245
1.465
1.705
1.875
1.94
1.94
1.86
1.665
1.34
0.985
0.695
0.505
0.41
0.36
0.34
0.32
0.295
0.27
0.245
0.24
0.23
0.22
0.17
0.115
0.06
0.03
0.005
-0.015
-0.065
-0.09
-0.135
-0.17
-0.195
-0.205
-0.235
-0.26
-0.28
-0.29
-0.295
-0.295
-0.305
-0.33
-0.355
-0.345
-0.325
-0.305
-0.32
-0.35
-0.365
-0.385
-0.365
-0.355
-0.345
-0.365
-0.35
-0.36
-0.35
-0.35
-0.365
-0.38
-0.395
-0.395
-0.385
-0.38
-0.39
-0.42
-0.42
-0.41
-0.415
-0.405
-0.42
-0.44
-0.46
-0.445
-0.445
-0.455
-0.45
-0.47
-0.49
-0.495
-0.5
-0.485
-0.5
-0.505
-0.52
-0.52
-0.515
-0.5
-0.535
-0.53
-0.53
-0.545
-0.525
-0.525
-0.515
-0.535
-0.535
-0.525
-0.5
-0.475
-0.47
-0.485
-0.48
-0.45
-0.41
-0.38
-0.37
-0.35
-0.35
-0.32
-0.295
-0.28
-0.25
-0.28
-0.255
-0.22
-0.195
-0.18
-0.17
-0.18
-0.185
-0.165
-0.14
-0.115
-0.13
-0.155
-0.165
-0.155
-0.14
-0.125
-0.115
-0.13
-0.14
-0.14
-0.12
-0.115
-0.13
-0.155
-0.18
-0.185
-0.18
-0.145
-0.135
-0.145
-0.15
-0.16
-0.155
-0.145
-0.155
-0.17
-0.175
-0.17
-0.165
-0.15
-0.155
-0.18
-0.19
-0.18
-0.165
-0.155
-0.165
-0.165
-0.205
-0.2
-0.195
-0.175
-0.18
-0.185
-0.195
-0.2
-0.175
-0.17
-0.185
-0.2
-0.215
-0.2
-0.175
-0.16
-0.175
-0.19
-0.21
-0.2
-0.185
-0.18
-0.18
-0.2
-0.215
-0.215
-0.2
-0.19
-0.195
-0.2
-0.2
-0.2
-0.19
-0.19
-0.185
-0.205
-0.205
-0.175
-0.16
-0.145
-0.17
-0.185
-0.19
-0.185
-0.155
-0.16
-0.155
-0.185
-0.2
-0.195
-0.18
-0.165
-0.16
-0.15
-0.145
-0.15
-0.14
-0.135
-0.135
-0.14
-0.135
-0.13
-0.11
-0.095
-0.105
-0.095
-0.095
-0.105
-0.08
-0.08
-0.085
-0.11
-0.125
-0.12
-0.12
-0.12
-0.115
-0.135
-0.155
-0.14
-0.14
-0.14
-0.16
-0.2
-0.21
-0.215
-0.19
-0.17
-0.18
-0.195
-0.22
-0.215
-0.205
-0.175
-0.18
-0.19
-0.205
-0.215
-0.205
-0.19
-0.2
-0.215
-0.215
-0.22
-0.215
-0.205
-0.21
-0.205
-0.21
-0.195
-0.17
-0.155
-0.17
-0.18
-0.17
-0.195
-0.18
-0.175
-0.135
-0.055
0.06
0.18
0.275
0.365
0.44
0.54
0.675
0.83
0.99
1.135
1.23
1.33
1.45
1.615
1.785
1.88
1.875
1.765
1.55
1.225
0.87
0.585
0.395
0.275
0.23
0.21
0.205
0.225
0.215
0.195
0.165
0.145
0.125
0.105
0.05
0.01
-0.035
-0.045
-0.055
-0.055
-0.11
-0.13
-0.19
-0.235
-0.24
-0.27
-0.315
-0.32
-0.345
-0.345
-0.345
-0.35
-0.365
-0.38
-0.39
-0.385
-0.38
-0.38
-0.39
-0.395
-0.425
-0.44
-0.41
-0.4
-0.4
-0.415
-0.41
-0.415
-0.42
-0.405
-0.41
-0.42
-0.43
