Lead II
-0.815
-0.815
-0.8
-0.795
-0.79
-0.805
-0.82
-0.815
-0.8
-0.795
-0.785
-0.8
-0.805
-0.82
-0.81
-0.8
-0.8
-0.805
-0.81
-0.81
-0.8
-0.795
-0.78
-0.785
-0.805
-0.81
-0.795
-0.785
-0.79
-0.795
-0.795
-0.805
-0.79
-0.775
-0.785
-0.79
-0.775
-0.785
-0.775
-0.765
-0.765
-0.77
-0.77
-0.765
-0.755
-0.75
-0.745
-0.735
-0.74
-0.74
-0.72
-0.715
-0.72
-0.72
-0.695
-0.7
-0.67
-0.635
-0.615
-0.56
-0.45
-0.18
0.35
0.985
1.55
1.765
1.71
1.59
1.5
1.47
1.4
1.31
1.205
1.1
1.005
0.91
0.815
0.67
0.525
0.35
0.16
-0.03
-0.24
-0.485
-0.72
-0.96
-1.165
-1.315
-1.46
-1.61
-1.755
-1.88
-1.975
-2.05
-2.145
-2.23
-2.32
-2.37
-2.415
-2.505
-2.61
-2.72
-2.81
-2.885
-2.955
-2.99
-2.96
-2.86
-2.71
-2.515
-2.31
-2.115
-1.93
-1.795
-1.685
-1.61
-1.54
-1.49
-1.44
-1.4
-1.375
-1.355
-1.305
-1.245
-1.16
-1.08
-0.99
-0.915
-0.835
-0.765
-0.72
-0.65
-0.585
-0.5
-0.415
-0.36
-0.3
-0.26
-0.22
-0.19
-0.155
-0.14
-0.12
-0.12
-0.105
-0.1
-0.07
-0.04
-0.02
-0.01
-0.01
0.005
0.02
0.04
0.085
0.105
0.125
0.125
0.155
0.19
0.215
0.24
0.26
0.285
0.32
0.355
0.385
0.415
0.43
0.475
0.515
0.57
0.61
0.65
0.695
0.73
0.785
0.835
0.875
0.89
0.92
0.955
0.98
1.005
1.03
1.04
1.015
0.985
0.95
0.915
0.88
0.855
0.825
0.8
0.78
0.745
0.725
0.675
0.625
0.55
0.505
0.455
0.395
0.335
0.27
0.215
0.155
0.085
0.0
-0.06
-0.125
-0.19
-0.225
-0.265
-0.295
-0.36
-0.405
-0.45
-0.485
-0.525
-0.55
-0.585
-0.625
-0.64
-0.645
-0.67
-0.675
-0.685
-0.7
-0.725
-0.725
-0.72
-0.74
-0.74
-0.76
-0.78
-0.77
-0.765
-0.775
-0.78
-0.78
-0.795
-0.785
-0.785
-0.79
-0.785
-0.805
-0.8
-0.805
-0.8
-0.8
-0.805
-0.805
-0.825
-0.815
-0.8
-0.8
-0.81
-0.81
-0.815
-0.815
-0.8
-0.805
-0.805
-0.815
-0.82
-0.815
-0.81
-0.815
-0.82
-0.82
-0.805
-0.81
-0.805
-0.79
-0.805
-0.81
-0.81
-0.805
-0.79
-0.79
-0.795
-0.805
-0.82
-0.81
-0.785
-0.79
-0.795
-0.805
-0.81
-0.785
-0.78
-0.785
-0.795
-0.795
-0.8
-0.79
-0.775
-0.78
-0.79
-0.79
-0.795
-0.785
-0.775
-0.775
-0.785
-0.79
-0.78
-0.775
-0.77
-0.765
-0.77
-0.775
-0.775
-0.765
-0.75
-0.76
-0.765
-0.785
-0.78
-0.76
-0.75
-0.745
-0.75
-0.755
-0.755
-0.745
-0.73
-0.725
-0.74
-0.745
-0.765
-0.745
-0.725
-0.715
-0.725
-0.715
-0.725
-0.72
-0.71
-0.7
-0.705
-0.71
-0.715
-0.71
-0.695
-0.7
-0.695
-0.7
-0.69
-0.675
-0.67
-0.66
-0.64
-0.64
-0.65
-0.605
-0.555
-0.485
-0.35
-0.055
0.475
1.11
1.595
1.765
1.715
1.595
1.52
1.46
1.39
1.3
1.175
1.045
0.925
0.83
0.715
0.58
0.42
0.25
0.055
-0.105
-0.27
-0.47
-0.685
-0.89
-1.07
-1.24
-1.365
-1.485
-1.615
-1.745
-1.875
-1.96
-2.045
-2.145
-2.235
-2.3
-2.345
-2.405
-2.475
-2.575
-2.695
-2.805
-2.865
-2.93
-2.97
-2.985
-2.925
-2.78
-2.57
-2.35
-2.165
-2.02
-1.88
-1.78
-1.7
-1.63
-1.57
-1.53
-1.495
-1.46
-1.42
-1.365
-1.32
-1.265
-1.19
-1.13
-1.035
-0.925
-0.83
-0.755
-0.69
-0.64
-0.57
-0.475
-0.39
-0.31
-0.235
-0.17
-0.085
0.005
0.08
0.155
0.185
0.205
0.235
0.275
0.345
0.385
0.415
0.385
0.355
0.36
0.37
0.37
0.39
0.39
0.425
0.44
0.465
0.47
0.48
0.475
0.485
0.5
0.51
0.515
0.515
0.535
0.54
0.56
0.58
0.6
0.61
0.61
0.625
0.655
0.685
0.705
0.725
0.71
0.735
0.75
0.765
0.765
0.765
0.775
0.775
0.77
0.765
0.765
0.75
0.715
0.705
0.69
0.685
0.645
0.61
0.58
0.54
0.52
0.49
0.45
0.41
0.355
0.315
0.275
0.24
0.19
0.145
0.095
0.04
0.005
-0.035
-0.085
-0.125
-0.185
-0.225
-0.255
-0.29
-0.345
-0.38
-0.42
-0.455
-0.48
-0.5
-0.525
-0.55
-0.575
-0.6
-0.615
-0.625
-0.635
-0.67
-0.685
-0.705
-0.7
-0.705
-0.705
-0.725
-0.735
-0.745
-0.75
-0.755
-0.75
-0.77
-0.775
-0.77
-0.77
-0.755
-0.76
-0.765
-0.775
-0.785
-0.76
-0.755
-0.76
-0.75
-0.765
-0.775
-0.77
-0.75
-0.75
-0.755
-0.76
-0.76
-0.745
-0.74
-0.735
-0.74
-0.75
-0.745
-0.735
-0.725
-0.725
-0.735
-0.74
-0.73
-0.73
-0.71
-0.705
-0.7
-0.715
-0.715
-0.7
-0.695
-0.69
-0.695
-0.695
-0.705
-0.7
-0.7
-0.685
-0.69
-0.69
-0.7
-0.685
-0.69
-0.7
-0.7
-0.71
-0.715
-0.69
-0.695
-0.685
-0.7
-0.72
-0.715
-0.705
-0.695
-0.705
-0.705
-0.715
-0.71
-0.705
-0.695
-0.7
-0.695
-0.695
-0.71
-0.705
-0.69
-0.69
-0.69
-0.7
-0.695
-0.7
-0.685
-0.68
-0.685
-0.695
-0.7
-0.685
-0.68
-0.675
-0.685
-0.695
-0.69
-0.685
-0.675
-0.67
-0.67
-0.685
-0.68
-0.675
-0.66
-0.67
-0.67
-0.67
-0.665
-0.66
-0.65
-0.64
-0.65
-0.655
-0.665
-0.665
-0.64
-0.65
-0.645
-0.64
-0.635
-0.63
-0.605
-0.595
-0.6
-0.59
-0.565
-0.545
-0.5
-0.435
-0.29
-0.035
0.44
1.04
1.525
1.775
1.77
1.68
1.595
1.54
1.505
1.425
1.32
1.22
1.12
1.015
0.925
0.815
0.69
0.555
0.385
0.23
0.07
-0.105
-0.295
-0.51
-0.72
-0.89
-1.055
-1.23
-1.375
-1.505
-1.635
-1.735
-1.83
-1.91
-1.985
-2.06
-2.125
-2.17
-2.19
-2.225
-2.305
-2.38
-2.455
-2.52
-2.57
-2.645
-2.74
-2.8
-2.8
-2.73
-2.575
-2.38
-2.185
-2.035
-1.905
-1.74
-1.585
-1.465
-1.375
-1.3
-1.26
-1.195
-1.16
-1.135
-1.125
-1.125
-1.1
-1.06
-1.005
-0.94
-0.89
-0.84
-0.765
-0.72
-0.665
-0.625
-0.6
-0.555
-0.495
-0.43
-0.36
-0.31
-0.28
-0.245
-0.22
-0.175
-0.125
-0.105
-0.11
-0.105
-0.085
-0.07
-0.05
-0.035
-0.02
-0.01
0.0
0.02
0.045
0.055
0.075
0.085
0.1
0.135
0.17
0.185
0.2
0.23
0.245
0.28
0.315
0.34
0.365
0.39
0.425
0.455
0.485
0.52
0.545
0.565
0.595
0.63
0.675
0.69
0.715
0.715
0.735
0.75
0.775
0.775
0.78
0.775
0.78
0.795
0.795
0.795
0.78
0.755
0.74
0.73
0.72
0.7
0.67
0.635
0.61
0.59
0.56
0.525
0.475
0.435
0.39
0.37
0.33
0.28
0.235
0.175
0.13
0.085
0.045
-0.01
-0.04
-0.095
-0.125
-0.175
-0.21
-0.245
-0.285
-0.32
-0.36
-0.38
-0.395
-0.41
-0.445
-0.465
-0.485
-0.495
-0.51
-0.5
-0.52
-0.535
-0.555
-0.555
-0.545
-0.555
-0.565
-0.58
-0.585
-0.585
-0.565
-0.58
-0.59
-0.595
-0.605
-0.59
-0.585
-0.58
-0.595
-0.59
-0.595
-0.59
-0.58
-0.58
-0.59
-0.595
-0.6
-0.575
-0.565
-0.575
-0.58
-0.575
-0.58
-0.58
-0.57
-0.565
-0.565
-0.57
-0.58
-0.575
-0.555
-0.555
-0.565
-0.58
-0.585
-0.555
-0.545
-0.55
-0.555
-0.56
-0.565
-0.555
-0.545
-0.545
-0.555
-0.56
-0.56
-0.555
-0.54
-0.56
-0.555
-0.56
-0.56
-0.56
-0.555
-0.55
-0.555
-0.575
-0.565
-0.555
-0.55
-0.55
-0.56
-0.56
-0.565
-0.565
-0.555
-0.565
-0.56
-0.575
-0.585
-0.565
-0.56
-0.56
-0.565
-0.58
-0.585
-0.575
-0.56
-0.565
-0.575
-0.575
-0.575
-0.555
-0.55
-0.55
-0.555
-0.57
-0.565
-0.565
-0.56
-0.55
-0.555
-0.575
-0.565
-0.56
-0.55
-0.555
-0.56
-0.555
-0.56
-0.545
-0.535
-0.545
-0.565
-0.555
-0.545
-0.535
-0.53
-0.53
-0.515
-0.53
-0.52
-0.5
-0.48
-0.465
-0.465
-0.445
-0.44
-0.4
-0.36
-0.31
-0.275
-0.215
-0.095
0.175
0.605
1.165
1.68
1.945
2.01
1.975
1.92
1.855
1.8
1.715
1.635
1.54
1.465
1.38
1.28
1.185
1.075
0.96
0.84
0.675
0.49
0.295
0.11
-0.095
-0.3
-0.53
-0.745
-0.935
-1.1
-1.245
-1.36
-1.49
-1.615
-1.715
-1.8
-1.885
-1.985
-2.07
-2.145
-2.2
-2.26
-2.33
-2.415
-2.51
-2.59
-2.69
-2.78
-2.83
-2.835
-2.79
-2.67
-2.51
-2.325
-2.16
-1.995
-1.84
-1.705
-1.615
-1.55
-1.5
-1.45
-1.425
-1.39
-1.39
-1.375
-1.34
-1.315
-1.27
-1.22
-1.165
-1.095
-1.0
-0.915
-0.875
-0.845
-0.805
-0.76
-0.705
-0.645
-0.575
-0.5
-0.455
-0.395
-0.34
-0.285
-0.23
-0.195
-0.175
-0.165
-0.15
-0.12
-0.1
-0.095
-0.085
-0.08
-0.06
-0.025
-0.03
-0.015
0.01
0.025
0.06
0.08
0.1
0.13
0.14
0.15
0.19
0.225
0.25
0.275
0.295
0.31
0.36
0.4
0.44
0.455
0.48
0.51
0.545
0.585
0.61
0.63
0.665
0.675
0.71
0.74
0.755
0.765
0.77
0.775
0.78
0.805
0.81
0.8
0.8
0.79
0.79
0.79
0.785
0.75
0.735
0.71
0.695
0.69
0.65
0.615
0.585
0.545
0.52
0.485
0.44
0.4
0.35
0.295
0.26
0.22
0.175
0.13
0.075
0.02
-0.015
-0.04
-0.08
-0.13
-0.17
-0.2
-0.225
-0.245
-0.275
-0.31
-0.335
-0.355
-0.365
-0.37
-0.395
-0.41
-0.43
-0.44
-0.43
-0.43
-0.45
-0.465
-0.485
-0.485
-0.47
-0.47
-0.475
-0.485
-0.5
-0.515
-0.505
-0.495
-0.5
-0.515
-0.525
-0.525
-0.515
-0.5
-0.505
-0.525
-0.525
-0.525
-0.515
-0.51
-0.53
-0.525
-0.53
-0.53
-0.52
-0.505
-0.51
-0.51
-0.53
-0.535
-0.515
-0.505
-0.515
-0.5
-0.515
-0.51
-0.5
-0.5
-0.5
-0.5
-0.505
-0.51
-0.5
-0.49
-0.49
-0.495
-0.515
-0.525
-0.495
-0.49
-0.49
-0.495
-0.5
-0.51
-0.51
-0.49
-0.49
-0.505
-0.515
-0.515
-0.505
-0.505
-0.505
-0.51
-0.51
-0.51
-0.49
-0.485
-0.485
-0.485
-0.48
-0.475
-0.45
-0.435
-0.415
-0.41
-0.405
-0.385
-0.34
-0.31
-0.28
-0.26
-0.245
-0.24
-0.2
-0.155
-0.13
-0.12
-0.14
-0.19
-0.22
-0.24
-0.25
-0.26
-0.265
-0.265
-0.265
-0.265
-0.285
-0.305
-0.32
-0.335
-0.355
-0.36
-0.385
-0.425
-0.43
-0.455
-0.465
-0.465
-0.49
-0.51
-0.51
-0.53
-0.525
-0.525
-0.52
-0.535
-0.535
-0.535
-0.53
-0.515
-0.515
-0.475
-0.42
-0.3
-0.015
0.47
1.1
1.635
1.895
1.86
1.765
1.685
1.63
1.555
1.46
1.33
1.25
1.145
1.04
0.92
0.795
0.65
0.525
0.355
0.165
-0.035
-0.24
-0.45
-0.64
-0.815
-0.97
-1.125
-1.245
-1.345
-1.45
-1.54
-1.62
-1.695
-1.795
-1.865
-1.9
-1.92
-1.99
-2.085
-2.18
-2.275
-2.335
-2.41
-2.51
-2.61
-2.655
-2.63
-2.505
-2.35
-2.19
-2.045
-1.9
-1.76
-1.63
-1.53
-1.485
-1.45
-1.405
-1.38
-1.335
-1.3
-1.285
-1.26
-1.245
-1.2
-1.14
-1.065
-0.995
-0.92
-0.84
-0.78
-0.715
-0.65
-0.585
-0.535
-0.46
-0.39
-0.315
-0.25
-0.2
-0.145
-0.105
-0.065
-0.05
-0.025
-0.02
0.0
0.005
0.035
0.055
0.08
0.09
0.09
0.1
0.11
0.155
0.19
0.19
0.2
0.215
0.24
0.275
0.295
0.335
0.355
0.37
0.39
0.435
0.465
0.49
0.51
0.535
0.56
0.61
0.635
0.665
0.685
0.7
0.725
0.745
0.785
0.805
0.82
0.82
0.825
0.84
0.875
0.865
0.86
0.845
0.85
0.855
0.855
0.85
0.835
0.82
0.8
0.795
0.775
0.745
0.71
0.685
0.65
0.61
0.585
0.55
0.505
0.47
0.43
0.39
0.355
0.31
0.265
0.21
0.165
0.13
0.1
0.06
0.015
-0.03
-0.08
-0.105
-0.13
-0.16
-0.2
-0.235
-0.27
-0.285
-0.29
-0.315
-0.36
-0.37
-0.385
-0.395
-0.39
-0.405
-0.425
-0.43
-0.44
-0.43
-0.42
-0.45
-0.455
-0.45
-0.465
-0.45
-0.45
-0.435
-0.455
-0.47
-0.47
-0.465
-0.47
-0.46
-0.475
-0.475
-0.48
-0.475
-0.475
-0.48
-0.48
-0.49
-0.49
-0.47
-0.465
-0.45
-0.46
-0.455
-0.435
-0.425
-0.385
-0.38
-0.355
-0.34
-0.31
-0.265
-0.225
-0.205
-0.185
-0.17
-0.145
-0.105
-0.075
-0.055
-0.065
-0.105
-0.145
-0.17
-0.175
-0.185
-0.19
-0.195
-0.195
-0.19
-0.19
-0.2
-0.235
-0.25
-0.285
-0.295
-0.325
-0.34
-0.37
-0.395
-0.415
-0.435
-0.455
-0.465
-0.475
-0.49
-0.51
-0.52
-0.525
-0.525
-0.54
-0.545
-0.57
-0.575
-0.57
-0.575
-0.585
-0.595
-0.6
-0.59
-0.585
-0.6
-0.605
-0.605
-0.61
-0.605
-0.595
-0.6
-0.6
-0.615
-0.605
-0.59
-0.6
-0.6
-0.595
-0.595
-0.6
-0.595
-0.59
-0.605
-0.61
-0.61
-0.605
-0.6
-0.575
-0.57
-0.58
-0.58
-0.585
-0.565
-0.56
-0.56
-0.565
-0.57
-0.565
-0.55
-0.54
-0.535
-0.525
-0.51
-0.5
-0.48
-0.42
-0.34
-0.195
0.15
0.74
1.375
1.88
2.005
1.91
1.775
1.69
1.645
1.575
1.465
1.35
1.24
1.13
1.03
0.945
0.82
0.685
0.535
0.345
0.175
0.015
-0.17
-0.39
-0.59
-0.78
-0.94
-1.085
-1.2
-1.325
-1.43
-1.54
-1.61
-1.68
-1.78
-1.89
-1.965
-2.025
-2.06
-2.115
-2.22
-2.325
-2.42
-2.505
-2.58
-2.635
-2.685
-2.685
-2.63
-2.505
-2.325
-2.16
-1.99
-1.83
-1.675
-1.55
-1.45
-1.375
-1.32
-1.27
-1.225
-1.19
-1.145
-1.1
-1.055
-1.015
-0.965
-0.89
-0.805
-0.71
-0.64
-0.585
-0.535
-0.485
-0.415
-0.35
-0.285
-0.22
-0.16
-0.11
-0.035
0.015
0.045
0.07
0.095
0.115
0.145
0.175
0.175
0.195
0.205
0.215
0.245
0.275
0.28
0.285
0.3
0.305
0.34
0.37
0.405
0.42
0.44
0.445
0.475
0.505
0.535
0.55
0.59
0.605
0.65
0.675
0.69
0.705
0.735
0.76
0.8
0.84
0.85
0.865
0.885
0.905
0.935
0.955
0.985
0.995
0.985
0.99
1.015
1.04
1.035
1.03
1.02
1.0
0.995
1.005
1.005
0.98
0.95
0.935
0.93
0.91
0.86
0.805
0.75
0.72
0.71
0.69
0.635
0.595
0.55
0.495
0.47
0.435
0.395
0.34
0.3
0.255
0.215
0.185
0.145
0.12
0.08
0.065
0.045
0.055
0.035
0.02
0.005
0.005
0.01
0.025
0.035
0.035
0.05
0.06
0.075
0.095
0.11
0.1
0.055
0.0
-0.04
-0.055
-0.07
-0.08
-0.09
-0.11
-0.105
-0.085
-0.11
-0.125
-0.15
-0.18
-0.195
-0.205
-0.24
-0.255
-0.27
-0.295
-0.3
-0.315
-0.34
-0.365
-0.385
-0.395
-0.4
-0.395
-0.4
-0.4
-0.415
-0.43
-0.455
-0.445
-0.45
-0.445
-0.455
-0.47
-0.455
-0.45
-0.44
-0.44
-0.47
-0.49
-0.485
-0.465
-0.46
-0.46
-0.46
-0.485
-0.47
-0.455
-0.465
-0.47
-0.475
-0.48
-0.46
-0.47
-0.47
-0.485
-0.5
-0.51
-0.5
-0.475
-0.48
-0.48
-0.49
-0.485
-0.48
-0.475
-0.475
-0.5
-0.505
-0.5
-0.495
-0.48
-0.49
-0.505
-0.5
-0.49
-0.48
-0.465
-0.47
-0.475
-0.485
-0.485
-0.48
-0.47
-0.465
-0.47
-0.47
-0.48
-0.49
-0.47
-0.485
-0.48
-0.48
-0.49
-0.475
-0.465
-0.455
-0.455
-0.445
-0.455
-0.455
-0.44
-0.445
-0.43
-0.425
-0.43
-0.415
-0.415
-0.43
-0.43
-0.42
-0.405
-0.37
-0.35
-0.34
-0.325
-0.305
-0.29
-0.23
-0.06
0.32
0.955
1.59
2.04
2.125
2.015
1.885
1.81
1.74
1.655
1.555
1.465
1.355
1.25
1.13
1.0
0.87
0.705
0.53
0.33
0.11
-0.105
-0.33
-0.55
-0.75
-0.91
-1.06
-1.2
-1.32
-1.42
-1.525
-1.63
-1.72
-1.81
-1.885
-1.94
-2.015
-2.115
-2.23
-2.335
-2.42
-2.49
-2.575
-2.645
-2.635
-2.515
-2.35
-2.13
-1.925
-1.735
-1.565
-1.43
-1.335
-1.265
-1.21
-1.165
-1.13
-1.1
-1.065
-1.025
-0.99
-0.94
-0.865
-0.775
-0.67
-0.565
-0.495
-0.445
-0.405
-0.345
-0.265
-0.18
-0.105
-0.045
0.005
0.06
0.125
0.165
0.195
0.215
0.22
0.215
0.24
0.265
0.285
0.3
0.305
0.31
0.335
0.355
0.37
0.38
0.405
0.435
0.47
0.495
0.51
0.525
0.53
0.565
0.61
0.65
0.675
0.69
0.71
0.75
0.8
0.835
0.87
0.895
0.925
0.97
1.025
1.065
1.105
1.145
1.175
1.225
1.265
1.33
1.345
1.355
1.365
1.375
1.405
1.415
1.395
1.335
1.285
1.235
1.225
1.205
1.17
1.125
1.09
1.075
1.03
1.0
0.92
0.86
0.795
0.735
0.68
0.62
0.55
0.47
0.4
0.325
0.26
0.21
0.15
0.095
0.035
-0.01
-0.04
-0.08
-0.12
-0.16
-0.195
-0.24
-0.25
-0.27
-0.29
-0.325
-0.36
-0.37
-0.375
-0.38
-0.405
-0.42
-0.42
-0.43
-0.425
-0.435
-0.445
-0.47
-0.485
-0.49
-0.485
-0.48
-0.48
-0.495
-0.505
-0.505
-0.5
-0.5
-0.495
-0.51
-0.525
-0.525
-0.51
-0.515
-0.51
-0.525
-0.535
-0.535
-0.53
-0.51
-0.5
-0.525
-0.53
-0.54
-0.52
-0.51
-0.515
-0.53
-0.53
-0.53
-0.515
-0.505
-0.51
-0.52
-0.535
-0.53
-0.53
-0.525
-0.53
-0.545
-0.555
-0.555
-0.55
-0.535
-0.53
-0.55
-0.56
-0.555
-0.55
-0.54
-0.54
-0.55
-0.555
-0.565
-0.56
-0.545
-0.55
-0.565
-0.565
-0.54
-0.55
-0.535
-0.54
-0.555
-0.57
-0.57
-0.565
-0.55
-0.545
-0.555
-0.565
-0.555
-0.56
-0.55
-0.555
-0.555
-0.585
-0.575
-0.56
-0.545
-0.545
-0.555
-0.565
-0.57
-0.555
-0.555
-0.55
-0.57
-0.585
-0.58
-0.56
-0.555
-0.57
-0.57
-0.575
-0.575
-0.565
-0.545
-0.55
-0.565
-0.575
-0.565
-0.55
-0.555
-0.565
-0.57
-0.565
-0.575
-0.545
-0.545
-0.535
-0.53
-0.53
-0.51
-0.475
-0.415
-0.285
-0.005
0.54
1.175
1.81
2.11
2.055
1.92
1.815
1.73
1.655
1.53
1.39
1.24
1.095
0.945
0.775
0.59
0.365
0.105
-0.145
-0.365
-0.6
-0.81
-1.025
-1.235
-1.415
-1.55
-1.67
-1.79
-1.905
-2.035
-2.17
-2.295
-2.355
-2.4
-2.445
-2.53
-2.615
-2.705
-2.76
-2.815
-2.875
-2.925
-2.95
-2.905
-2.785
-2.605
-2.42
-2.265
-2.135
-2.01
-1.925
-1.85
-1.81
-1.78
-1.755
-1.715
-1.675
-1.63
-1.585
-1.55
-1.5
-1.435
-1.345
-1.255
-1.195
-1.125
-1.095
-1.015
-0.935
-0.86
-0.775
-0.695
-0.635
-0.565
-0.5
-0.415
-0.36
-0.31
-0.29
-0.26
-0.195
-0.145
-0.12
-0.125
-0.165
-0.175
-0.155
-0.155
-0.105
-0.085
-0.08
-0.08
-0.065
-0.04
-0.03
-0.02
-0.03
-0.02
-0.005
0.015
0.035
0.04
0.04
0.045
0.075
0.105
0.135
0.145
0.165
0.185
0.24
0.265
0.275
0.275
0.285
0.3
0.32
0.35
0.345
0.35
0.335
0.325
0.325
0.305
0.285
0.26
0.225
0.195
0.16
0.135
0.095
0.035
-0.025
-0.085
-0.125
-0.175
-0.24
-0.3
-0.375
-0.415
-0.47
-0.51
-0.565
-0.635
-0.695
-0.75
-0.8
-0.83
-0.865
-0.915
-0.96
-1.005
-1.015
-1.04
-1.065
-1.1
-1.14
-1.155
-1.165
-1.17
-1.185
-1.195
-1.24
-1.25
-1.25
-1.26
-1.25
-1.26
-1.295
-1.3
-1.3
-1.305
-1.295
-1.31
-1.33
-1.325
-1.32
-1.325
-1.32
-1.34
-1.35
-1.335
-1.325
-1.315
-1.335
-1.345
-1.36
-1.36
-1.365
-1.37
-1.37
-1.375
-1.38
-1.365
-1.365
-1.37
-1.355
-1.355
-1.37
-1.375
-1.36
-1.355
-1.35
-1.36
-1.37
-1.375
-1.355
-1.36
-1.36
-1.365
-1.37
-1.365
-1.365
-1.345
-1.35
-1.37
-1.37
-1.38
-1.365
-1.365
-1.36
-1.375
-1.39
-1.395
-1.38
-1.385
-1.385
-1.385
-1.405
-1.405
-1.4
-1.395
-1.4
-1.41
-1.43
-1.43
-1.425
-1.41
-1.42
-1.42
-1.445
-1.435
-1.435
-1.42
-1.43
-1.44
-1.44
-1.455
-1.44
-1.435
-1.43
-1.455
-1.455
-1.44
-1.45
-1.435
-1.44
-1.45
-1.46
-1.47
-1.46
-1.445
-1.455
-1.465
-1.475
-1.465
-1.46
-1.46
-1.46
-1.475
-1.48
-1.485
-1.455
-1.45
-1.455
-1.465
-1.465
-1.47
-1.455
-1.455
-1.45
-1.445
-1.455
-1.45
-1.44
-1.435
-1.43
-1.42
-1.41
-1.385
-1.35
-1.295
-1.18
-0.955
-0.49
0.145
0.78
1.415
2.02
1.895
1.72
1.59
1.495
1.375
1.195
1.01
0.83
0.655
0.495
0.315
0.105
-0.135
-0.395
-0.635
-0.84
-1.025
-1.23
-1.43
-1.615
-1.775
-1.895
-2.0
-2.1
-2.205
-2.325
-2.4
-2.465
-2.505
-2.555
-2.59
-2.65
-2.675
-2.72
-2.745
-2.785
-2.82
-2.85
-2.86
-2.85
-2.82
-2.795
-2.75
-2.69
-2.6
-2.47
-2.36
-2.27
-2.21
-2.195
-2.165
-2.13
-2.095
-2.085
-2.08
-2.09
-2.045
-2.025
-1.98
-1.94
-1.91
-1.865
-1.815
-1.785
-1.74
-1.71
-1.685
-1.66
-1.61
-1.565
-1.52
-1.5
-1.48
-1.45
-1.415
-1.4
-1.39
-1.395
-1.4
-1.39
-1.39
-1.355
-1.34
-1.345
-1.33
-1.34
-1.32
-1.295
-1.28
-1.26
-1.26
-1.26
-1.24
-1.21
-1.18
-1.165
-1.145
-1.13
-1.09
-1.075
-1.045
-1.03
-1.025
-1.0
-0.965
-0.93
-0.89
-0.86
-0.845
-0.83
-0.8
-0.775
-0.745
-0.725
-0.71
-0.71
-0.685
-0.685
-0.66
-0.655
-0.665
-0.68
-0.675
-0.675
-0.685
-0.695
-0.71
-0.74
-0.76
-0.775
-0.785
-0.81
-0.84
-0.895
-0.925
-0.95
-0.975
-1.015
-1.045
-1.1
-1.145
-1.165
-1.185
-1.215
-1.27
-1.315
-1.35
-1.38
-1.4
-1.425
-1.46
-1.495
-1.515
-1.53
-1.54
-1.56
-1.595
-1.61
-1.625
-1.62
-1.645
-1.635
-1.66
-1.675
-1.675
-1.675
-1.67
-1.675
-1.68
-1.695
-1.695
-1.7
-1.685
-1.695
-1.7
-1.725
-1.705
-1.69
-1.68
-1.685
-1.7
-1.7
-1.7
-1.68
-1.69
-1.69
-1.695
-1.695
-1.69
-1.685
-1.675
-1.665
-1.68
-1.68
-1.685
-1.68
-1.665
-1.66
-1.67
-1.67
-1.665
-1.655
-1.645
-1.64
-1.64
-1.655
-1.65
-1.64
-1.63
-1.62
-1.62
-1.63
-1.62
-1.61
-1.605
-1.615
-1.615
-1.615
-1.615
-1.6
-1.58
-1.59
-1.585
-1.595
-1.6
-1.58
-1.575
-1.585
-1.59
-1.59
-1.6
-1.575
-1.59
-1.585
-1.58
-1.595
-1.58
-1.57
-1.56
-1.565
-1.565
-1.58
-1.57
-1.57
-1.555
-1.555
-1.56
-1.56
-1.565
-1.54
-1.545
-1.545
-1.535
-1.545
-1.55
-1.54
-1.53
-1.525
-1.54
-1.535
-1.535
-1.525
-1.515
-1.495
-1.515
-1.51
-1.51
-1.5
-1.49
-1.495
-1.505
-1.5
-1.485
-1.48
-1.46
-1.465
-1.48
-1.475
-1.48
-1.465
-1.46
-1.44
-1.45
-1.445
-1.425
-1.42
-1.4
-1.38
-1.385
-1.37
-1.36
-1.345
-1.305
-1.28
-1.255
-1.24
-1.18
-1.135
-1.065
-0.985
-0.81
-0.465
0.17
0.805
1.44
2.075
2.47
2.285
2.085
1.965
1.865
1.72
1.545
1.375
1.19
1.02
0.855
0.685
0.465
0.225
-0.005
-0.21
-0.395
-0.605
-0.795
-0.985
-1.155
-1.29
-1.41
-1.525
-1.62
-1.71
-1.8
-1.845
-1.9
-1.955
-2.01
-2.05
-2.08
-2.1
-2.105
-2.13
-2.155
-2.18
-2.185
-2.19
-2.185
-2.2
-2.2
-2.21
-2.185
-2.165
-2.125
-2.08
-2.035
-1.99
-1.935
-1.87
-1.815
-1.785
-1.78
-1.76
-1.745
-1.72
-1.7
-1.68
-1.67
-1.655
-1.63
-1.595
-1.54
-1.51
-1.47
-1.435
-1.405
-1.365
-1.325
-1.29
-1.26
-1.24
-1.18
-1.135
-1.085
-1.06
-1.035
-1.005
-0.985
-0.945
-0.935
-0.92
-0.93
-0.91
-0.885
-0.86
-0.84
-0.83
-0.815
-0.815
-0.785
-0.77
-0.73
-0.72
-0.71
-0.715
-0.685
-0.65
-0.61
-0.595
-0.565
-0.555
-0.525
-0.48
-0.445
-0.42
-0.4
-0.39
-0.36
-0.305
-0.265
-0.23
-0.21
-0.18
-0.14
-0.11
-0.095
-0.07
-0.075
-0.05
-0.04
-0.01
0.01
0.02
0.005
0.0
-0.005
0.005
0.01
-0.015
-0.035
-0.07
-0.075
-0.095
-0.105
-0.145
-0.17
-0.21
-0.235
-0.26
-0.285
-0.32
-0.365
-0.405
-0.44
-0.47
-0.48
-0.525
-0.56
-0.59
-0.615
-0.635
-0.64
-0.675
-0.715
-0.75
-0.765
-0.79
-0.795
-0.81
-0.835
-0.86
-0.865
-0.87
-0.87
-0.88
-0.895
-0.915
-0.91
-0.905
-0.895
-0.91
-0.925
-0.935
-0.945
-0.925
-0.925
-0.94
-0.93
-0.955
-0.95
-0.935
-0.94
-0.935
-0.94
-0.95
-0.935
-0.91
-0.92
-0.915
-0.915
-0.925
-0.915
-0.91
-0.9
-0.91
-0.91
-0.91
-0.9
-0.885
-0.88
-0.89
-0.885
-0.89
-0.88
-0.87
-0.86
-0.865
-0.86
-0.875
-0.865
-0.855
-0.835
-0.835
-0.83
-0.84
-0.84
-0.83
-0.815
-0.81
-0.81
-0.81
-0.795
-0.8
-0.795
-0.795
-0.785
-0.81
-0.795
-0.785
-0.78
-0.775
-0.775
-0.78
-0.775
-0.765
-0.75
-0.755
-0.75
-0.755
-0.75
-0.74
-0.72
-0.7
-0.705
-0.72
-0.705
-0.69
-0.665
-0.66
-0.63
-0.63
-0.62
-0.595
-0.585
-0.555
-0.55
-0.525
-0.5
-0.48
-0.475
-0.49
-0.51
-0.525
-0.52
-0.52
-0.51
-0.505
-0.505
-0.515
-0.51
-0.515
-0.525
-0.52
-0.535
-0.56
-0.56
-0.56
-0.555
-0.575
-0.59
-0.605
-0.61
-0.61
-0.605
-0.605
-0.62
-0.635
-0.625
-0.61
-0.61
-0.605
-0.605
-0.62
-0.625
-0.615
-0.6
-0.605
-0.6
-0.59
-0.58
-0.56
-0.535
-0.5
-0.475
-0.43
-0.285
-0.06
0.395
1.03
1.665
2.3
2.935
3.07
2.945
2.795
2.68
2.565
2.445
2.31
2.17
2.01
1.865
1.715
1.575
1.43
1.285
1.115
0.935
0.735
0.53
0.35
0.18
0.01
-0.19
-0.38
-0.515
-0.615
-0.71
-0.79
-0.875
-0.955
-1.025
-1.08
-1.125
-1.17
-1.23
-1.28
-1.31
-1.32
-1.345
-1.395
-1.455
-1.515
-1.55
-1.575
-1.595
-1.62
-1.64
-1.665
-1.635
-1.585
-1.545
-1.505
-1.455
-1.385
-1.285
-1.17
-1.115
-1.075
-1.055
-1.025
-0.99
-0.94
-0.915
-0.905
-0.895
-0.89
-0.855
-0.795
-0.74
-0.705
-0.665
-0.635
-0.59
-0.55
-0.505
-0.48
-0.44
-0.395
-0.35
-0.295
-0.24
-0.205
-0.175
-0.145
-0.11
-0.075
-0.04
-0.025
-0.025
-0.04
-0.01
0.015
0.045
0.05
0.06
0.055
0.08
0.11
0.135
0.145
0.155
0.17
0.195
0.215
0.24
0.265
0.275
0.285
0.315
0.355
0.395
0.41
0.445
0.455
0.485
0.515
0.55
0.585
0.605
0.62
0.655
0.69
0.73
0.75
0.765
0.765
0.795
0.825
0.84
0.86
0.855
0.855
0.865
0.875
0.88
0.875
0.86
0.845
0.845
0.835
0.825
0.81
0.775
0.75
0.725
0.71
0.69
0.675
0.63
0.59
0.575
0.545
0.525
0.475
0.44
0.39
0.35
0.335
0.305
0.265
0.215
0.19
0.155
0.13
0.11
0.08
0.04
0.0
-0.01
-0.02
-0.03
-0.045
-0.07
-0.09
-0.11
-0.11
-0.11
-0.115
-0.135
-0.155
-0.155
-0.15
-0.135
-0.145
-0.155
-0.17
-0.165
-0.175
-0.165
-0.175
-0.185
-0.195
-0.195
-0.185
-0.17
-0.165
-0.165
-0.17
-0.185
-0.17
-0.145
-0.155
-0.15
-0.145
-0.14
-0.115
-0.1
-0.095
-0.085
-0.08
-0.055
-0.025
-0.005
0.0
0.015
0.025
0.05
0.095
0.12
0.145
0.15
0.13
0.105
0.09
0.09
0.085
0.065
0.07
0.065
0.075
0.08
0.07
0.065
0.04
0.035
0.035
0.025
0.015
-0.01
-0.04
-0.045
-0.05
-0.05
-0.065
-0.08
-0.115
-0.12
-0.12
-0.12
-0.13
-0.15
-0.16
-0.16
-0.155
-0.15
-0.16
-0.18
-0.2
-0.18
-0.18
-0.165
-0.17
-0.18
-0.2
-0.19
-0.175
-0.165
-0.185
-0.175
-0.195
-0.185
-0.185
-0.175
-0.17
-0.18
-0.19
-0.19
-0.175
-0.16
-0.16
-0.18
-0.185
-0.175
-0.185
-0.16
-0.15
-0.16
-0.17
-0.17
-0.16
-0.145
-0.145
-0.15
-0.155
-0.16
-0.155
-0.135
-0.135
-0.145
-0.16
-0.145
-0.13
-0.11
-0.11
-0.11
-0.11
-0.11
-0.085
-0.07
-0.065
-0.065
-0.05
-0.025
0.015
0.07
0.14
0.25
0.515
1.055
1.69
2.325
2.96
3.405
3.33
3.21
3.13
3.07
2.975
2.85
2.71
2.595
2.48
2.365
2.26
2.125
1.975
1.82
1.635
1.445
1.25
1.025
0.82
0.63
0.42
0.24
0.065
-0.095
-0.225
-0.335
-0.425
-0.52
-0.62
-0.705
-0.79
-0.86
-0.93
-0.99
-1.04
-1.11
-1.18
-1.265
-1.35
-1.415
-1.47
-1.535
-1.585
-1.605
-1.59
-1.555
-1.48
-1.39
-1.3
-1.19
-1.06
-0.945
-0.865
-0.83
-0.8
-0.75
-0.71
-0.675
-0.64
-0.63
-0.59
-0.565
-0.515
-0.47
-0.43
-0.375
-0.31
-0.255
-0.19
-0.13
-0.085
-0.055
-0.02
0.02
0.08
0.16
0.2
0.235
0.27
0.315
0.365
0.415
0.43
0.43
0.425
0.455
0.48
0.49
0.51
0.505
0.515
0.535
0.56
0.585
0.6
0.615
0.62
0.625
0.66
0.685
0.705
0.72
0.73
0.75
0.79
0.82
0.845
0.865
0.875
0.905
0.94
0.965
1.01
1.025
1.045
1.09
1.125
1.16
1.18
1.2
1.23
1.26
1.27
1.31
1.315
1.325
1.32
1.33
1.335
1.345
1.34
1.335
1.335
1.315
1.31
1.295
1.275
1.255
1.21
1.19
1.165
1.14
1.1
1.045
1.0
0.975
0.95
0.9
0.865
0.825
