Lead II
-0.32
-0.315
-0.305
-0.315
-0.275
-0.265
-0.27
-0.265
-0.305
-0.3
-0.28
-0.25
-0.25
-0.255
-0.26
-0.28
-0.275
-0.26
-0.25
-0.265
-0.28
-0.29
-0.285
-0.275
-0.26
-0.265
-0.275
-0.28
-0.295
-0.29
-0.275
-0.295
-0.295
-0.31
-0.29
-0.28
-0.26
-0.255
-0.295
-0.31
-0.29
-0.285
-0.275
-0.275
-0.27
-0.3
-0.31
-0.28
-0.28
-0.28
-0.31
-0.325
-0.31
-0.28
-0.265
-0.26
-0.29
-0.3
-0.3
-0.28
-0.26
-0.295
-0.29
-0.31
-0.315
-0.305
-0.27
-0.28
-0.285
-0.295
-0.31
-0.275
-0.27
-0.28
-0.29
-0.305
-0.28
-0.27
-0.255
-0.275
-0.285
-0.29
-0.28
-0.275
-0.255
-0.28
-0.275
-0.295
-0.3
-0.285
-0.27
-0.25
-0.275
-0.29
-0.27
-0.255
-0.25
-0.255
-0.24
-0.245
-0.23
-0.205
-0.195
-0.215
-0.23
-0.23
-0.23
-0.215
-0.195
-0.195
-0.21
-0.215
-0.215
-0.205
-0.19
-0.18
-0.185
-0.205
-0.195
-0.18
-0.17
-0.18
-0.185
-0.21
-0.195
-0.195
-0.18
-0.2
-0.225
-0.24
-0.255
-0.245
-0.245
-0.245
-0.26
-0.285
-0.275
-0.275
-0.26
-0.27
-0.275
-0.275
-0.275
-0.25
-0.26
-0.27
-0.275
-0.29
-0.275
-0.26
-0.255
-0.25
-0.265
-0.275
-0.28
-0.27
-0.25
-0.245
-0.25
-0.265
-0.25
-0.25
-0.26
-0.255
-0.25
-0.18
-0.065
0.065
0.19
0.285
0.375
0.49
0.59
0.7
0.8
0.895
1.035
1.21
1.43
1.67
1.89
2.025
2.07
2.075
2.015
1.885
1.635
1.28
0.92
0.665
0.49
0.415
0.385
0.38
0.37
0.345
0.345
0.325
0.305
0.26
0.2
0.145
0.08
0.03
0.005
-0.04
-0.085
-0.115
-0.145
-0.18
-0.21
-0.26
-0.3
-0.345
-0.365
-0.365
-0.36
-0.385
-0.415
-0.445
-0.455
-0.445
-0.44
-0.455
-0.47
-0.49
-0.495
-0.49
-0.485
-0.48
-0.505
-0.515
-0.505
-0.51
-0.485
-0.505
-0.53
-0.525
-0.53
-0.53
-0.505
-0.5
-0.525
-0.555
-0.555
-0.53
-0.525
-0.53
-0.55
-0.595
-0.595
-0.59
-0.57
-0.585
-0.585
-0.605
-0.615
-0.595
-0.605
-0.62
-0.65
-0.66
-0.665
-0.655
-0.655
-0.68
-0.7
-0.72
-0.72
-0.71
-0.7
-0.72
-0.745
-0.755
-0.775
-0.765
-0.755
-0.75
-0.76
-0.75
-0.765
-0.75
-0.715
-0.72
-0.69
-0.69
-0.67
-0.635
-0.59
-0.58
-0.555
-0.52
-0.49
-0.455
-0.42
-0.4
-0.395
-0.395
-0.36
-0.325
-0.295
-0.28
-0.29
-0.29
-0.275
-0.245
-0.21
-0.21
-0.24
-0.255
-0.25
-0.225
-0.21
-0.21
-0.21
-0.215
-0.23
-0.225
-0.21
-0.21
-0.22
-0.235
-0.225
-0.23
-0.215
-0.22
-0.24
-0.25
-0.235
-0.22
-0.215
-0.235
-0.26
-0.26
-0.25
-0.245
-0.21
-0.22
-0.225
-0.255
-0.255
-0.25
-0.24
-0.24
-0.23
-0.255
-0.245
-0.245
-0.235
-0.255
-0.245
-0.265
-0.265
-0.245
-0.23
-0.245
-0.255
-0.275
-0.26
-0.255
-0.235
-0.23
-0.25
-0.25
-0.26
-0.245
-0.23
-0.235
-0.255
-0.245
-0.25
-0.24
-0.24
-0.24
-0.26
-0.265
-0.255
-0.23
-0.23
-0.225
-0.255
-0.275
-0.255
-0.23
-0.205
-0.225
-0.245
-0.26
-0.255
-0.25
-0.23
-0.225
-0.235
-0.25
-0.255
-0.25
-0.23
-0.25
-0.25
-0.255
-0.24
-0.23
-0.2
-0.195
-0.225
-0.225
-0.22
-0.185
-0.155
-0.16
-0.17
-0.195
-0.185
-0.18
-0.17
-0.16
-0.16
-0.155
-0.155
-0.135
-0.135
-0.13
-0.145
-0.175
-0.175
-0.16
-0.135
-0.135
-0.155
-0.17
-0.185
-0.18
-0.16
-0.175
-0.2
-0.23
-0.24
-0.24
-0.23
-0.24
-0.26
-0.28
-0.27
-0.26
-0.255
-0.255
-0.275
-0.28
-0.275
-0.26
-0.245
-0.25
-0.265
-0.295
-0.265
-0.24
-0.225
-0.22
-0.235
-0.25
-0.245
-0.25
-0.255
-0.255
-0.26
-0.26
-0.26
-0.245
-0.235
-0.21
-0.115
-0.01
0.135
0.27
0.38
0.47
0.565
0.7
0.84
1.02
1.18
1.33
1.465
1.635
1.795
1.945
2.015
2.02
1.96
1.82
1.565
1.255
0.93
0.675
0.495
0.43
0.395
0.405
0.4
0.385
0.33
0.27
0.205
0.155
0.11
0.055
0.005
-0.065
-0.12
-0.16
-0.175
-0.215
-0.27
-0.325
-0.37
-0.405
-0.41
-0.425
-0.475
-0.495
-0.5
-0.485
-0.475
-0.485
-0.51
-0.545
-0.535
-0.525
-0.52
-0.535
-0.555
-0.575
-0.58
-0.57
-0.55
-0.565
-0.575
-0.585
-0.59
-0.58
-0.57
-0.575
-0.585
-0.605
-0.62
-0.625
-0.635
-0.64
-0.65
-0.66
-0.66
-0.665
-0.67
-0.685
-0.72
-0.725
-0.725
-0.715
-0.695
-0.715
-0.74
-0.785
-0.795
-0.8
-0.78
-0.79
-0.795
-0.825
-0.83
-0.83
-0.84
-0.845
-0.85
-0.855
-0.865
-0.87
-0.865
-0.855
-0.855
-0.86
-0.845
-0.82
-0.78
-0.77
-0.785
-0.765
-0.745
-0.72
-0.69
-0.665
-0.655
-0.64
-0.625
-0.575
-0.545
-0.505
-0.495
-0.48
-0.45
-0.43
-0.41
-0.4
-0.405
-0.39
-0.37
-0.35
-0.325
-0.315
-0.325
-0.335
-0.335
-0.3
-0.28
-0.27
-0.285
-0.3
-0.31
-0.305
-0.28
-0.28
-0.28
-0.29
-0.285
-0.27
-0.265
-0.29
-0.31
-0.325
-0.33
-0.305
-0.29
-0.285
-0.3
-0.31
-0.305
-0.295
-0.285
-0.27
-0.285
-0.305
-0.3
-0.295
-0.295
-0.3
-0.32
-0.32
-0.32
-0.3
-0.295
-0.3
-0.3
-0.325
-0.31
-0.3
-0.275
-0.295
-0.32
-0.335
-0.34
-0.325
-0.31
-0.31
-0.325
-0.32
-0.325
-0.32
-0.315
-0.32
-0.33
-0.33
-0.325
-0.315
-0.3
-0.3
-0.325
-0.335
-0.33
-0.31
-0.295
-0.295
-0.325
-0.335
-0.325
-0.31
-0.295
-0.3
-0.32
-0.32
-0.31
-0.285
-0.275
-0.3
-0.325
-0.325
-0.32
-0.295
-0.285
-0.29
-0.305
-0.325
-0.32
-0.305
-0.285
-0.28
-0.305
-0.31
-0.305
-0.3
-0.27
-0.265
-0.275
-0.29
-0.27
-0.24
-0.22
-0.23
-0.24
-0.255
-0.255
-0.255
-0.24
-0.23
-0.235
-0.24
-0.23
-0.215
-0.205
-0.21
-0.22
-0.235
-0.23
-0.215
-0.19
-0.195
-0.215
-0.23
-0.235
-0.25
-0.24
-0.235
-0.24
-0.265
-0.285
-0.28
-0.27
-0.29
-0.295
-0.3
-0.305
-0.305
-0.29
-0.295
-0.315
-0.325
-0.3
-0.29
-0.285
-0.305
-0.29
-0.29
-0.305
-0.31
-0.28
-0.29
-0.285
-0.295
-0.295
-0.305
-0.28
-0.285
-0.295
-0.305
-0.3
-0.265
-0.28
-0.25
-0.275
-0.27
-0.21
-0.12
0.035
0.175
0.275
0.38
0.505
0.665
0.86
1.045
1.245
1.42
1.595
1.78
1.925
2.005
2.04
2.03
1.97
1.81
1.505
1.08
0.695
0.44
0.33
0.285
0.29
0.25
0.195
0.14
0.1
0.07
0.02
-0.015
-0.065
-0.095
-0.13
-0.15
-0.17
-0.225
-0.26
-0.3
-0.32
-0.34
-0.365
-0.39
-0.42
-0.445
-0.465
-0.47
-0.47
-0.485
-0.5
-0.53
-0.525
-0.5
-0.495
-0.505
-0.51
-0.53
-0.53
-0.53
-0.53
-0.54
-0.545
-0.55
-0.57
-0.57
-0.56
-0.555
-0.555
-0.57
-0.57
-0.575
-0.57
-0.575
-0.61
-0.62
-0.63
-0.62
-0.62
-0.63
-0.665
-0.68
-0.675
-0.66
-0.66
-0.67
-0.715
-0.745
-0.755
-0.74
-0.72
-0.73
-0.755
-0.765
-0.785
-0.78
-0.78
-0.78
-0.775
-0.815
-0.815
-0.8
-0.785
-0.78
-0.78
-0.78
-0.765
-0.755
-0.75
-0.745
-0.755
-0.75
-0.725
-0.685
-0.645
-0.63
-0.61
-0.605
-0.575
-0.54
-0.485
-0.47
-0.455
-0.45
-0.435
-0.4
-0.38
-0.355
-0.355
-0.34
-0.33
-0.305
-0.285
-0.29
-0.305
-0.315
-0.325
-0.295
-0.27
-0.275
-0.29
-0.3
-0.305
-0.295
-0.265
-0.26
-0.28
-0.3
-0.305
-0.295
-0.27
-0.27
-0.28
-0.305
-0.295
-0.3
-0.29
-0.285
-0.29
-0.295
-0.3
-0.29
-0.275
-0.295
-0.305
-0.32
-0.305
-0.28
-0.265
-0.26
-0.29
-0.315
-0.31
-0.3
-0.28
-0.28
-0.295
-0.295
-0.3
-0.3
-0.305
-0.305
-0.29
-0.295
-0.275
-0.3
-0.295
-0.285
-0.31
-0.33
-0.315
-0.3
-0.275
-0.275
-0.285
-0.295
-0.3
-0.29
-0.275
-0.265
-0.28
-0.295
-0.305
-0.285
-0.275
-0.275
-0.285
-0.3
-0.3
-0.27
-0.245
-0.26
-0.27
-0.27
-0.295
-0.29
-0.265
-0.27
-0.265
-0.305
-0.29
-0.3
-0.29
-0.275
-0.275
-0.29
-0.295
-0.275
-0.265
-0.275
-0.295
-0.29
-0.29
-0.27
-0.24
-0.225
-0.22
-0.235
-0.235
-0.22
-0.205
-0.195
-0.21
-0.25
-0.225
-0.23
-0.21
-0.195
-0.205
-0.21
-0.2
-0.2
-0.165
-0.175
-0.195
-0.215
-0.205
-0.2
-0.175
-0.17
-0.19
-0.235
-0.24
-0.245
-0.225
-0.23
-0.24
-0.265
-0.285
-0.28
-0.265
-0.265
-0.275
-0.29
-0.28
-0.275
-0.26
-0.27
-0.285
-0.305
-0.305
-0.28
-0.26
-0.27
-0.255
-0.285
-0.29
-0.295
-0.265
-0.25
-0.26
-0.26
-0.265
-0.24
-0.235
-0.23
-0.24
-0.26
-0.275
-0.235
-0.155
-0.065
0.045
0.17
0.275
0.42
0.565
0.73
0.915
1.125
1.355
1.575
1.805
1.965
2.025
2.025
2.035
2.015
1.93
1.685
1.29
0.865
0.545
0.39
0.305
0.26
0.195
0.185
0.15
0.125
0.09
0.035
-0.025
-0.055
-0.085
-0.09
-0.095
-0.1
-0.16
-0.185
-0.235
-0.26
-0.28
-0.315
-0.33
-0.37
-0.4
-0.42
-0.43
-0.44
-0.445
-0.45
-0.46
-0.455
-0.45
-0.45
-0.465
-0.505
-0.495
-0.505
-0.47
-0.495
-0.51
-0.525
-0.51
-0.505
-0.48
-0.495
-0.52
-0.535
-0.54
-0.535
-0.525
-0.52
-0.54
-0.55
-0.555
-0.56
-0.56
-0.56
-0.57
-0.58
-0.59
-0.59
-0.6
-0.61
-0.635
-0.655
-0.665
-0.655
-0.665
-0.675
-0.685
-0.72
-0.725
-0.71
-0.68
-0.69
-0.71
-0.74
-0.745
-0.73
-0.725
-0.715
-0.72
-0.73
-0.745
-0.715
-0.715
-0.685
-0.68
-0.675
-0.645
-0.635
-0.605
-0.605
-0.59
-0.585
-0.56
-0.53
-0.47
-0.465
-0.445
-0.425
-0.4
-0.375
-0.335
-0.32
-0.31
-0.315
-0.305
-0.295
-0.265
-0.255
-0.24
-0.245
-0.245
-0.235
-0.225
-0.245
-0.255
-0.245
-0.26
-0.245
-0.23
-0.235
-0.245
-0.26
-0.27
-0.24
-0.235
-0.235
-0.25
-0.27
-0.265
-0.255
-0.235
-0.245
-0.26
-0.26
-0.285
-0.265
-0.24
-0.25
-0.26
-0.27
-0.275
-0.265
-0.26
-0.27
-0.26
-0.255
-0.265
-0.255
-0.245
-0.26
-0.28
-0.285
-0.29
-0.28
-0.26
-0.26
-0.28
-0.295
-0.29
-0.27
-0.26
-0.265
-0.265
-0.28
-0.285
-0.29
-0.26
-0.25
-0.255
-0.265
-0.285
-0.265
-0.255
-0.245
-0.26
-0.265
-0.275
-0.27
-0.255
-0.25
-0.255
-0.26
-0.255
-0.26
-0.235
-0.235
-0.265
-0.285
-0.28
-0.275
-0.25
-0.25
-0.26
-0.285
-0.285
-0.27
-0.245
-0.245
-0.255
-0.26
-0.255
-0.245
-0.205
-0.195
-0.205
-0.2
-0.21
-0.185
-0.18
-0.185
-0.2
-0.215
-0.205
-0.195
-0.175
-0.175
-0.18
-0.19
-0.185
-0.18
-0.17
-0.18
-0.19
-0.21
-0.205
-0.195
-0.175
-0.18
-0.195
-0.215
-0.235
-0.235
-0.24
-0.235
-0.26
-0.28
-0.29
-0.28
-0.265
-0.255
-0.265
-0.275
-0.275
-0.28
-0.28
-0.29
-0.29
-0.31
-0.305
-0.295
-0.27
-0.265
-0.28
-0.3
-0.295
-0.285
-0.26
-0.25
-0.275
-0.265
-0.28
-0.28
-0.265
-0.28
-0.23
-0.145
-0.04
0.095
0.175
0.2
0.265
0.365
0.505
0.685
0.905
1.135
1.37
1.54
1.715
1.845
1.885
1.83
1.665
1.355
0.995
0.7
0.515
0.415
0.34
0.3
0.28
0.265
0.25
0.22
0.185
0.125
0.06
0.01
-0.02
-0.055
-0.09
-0.135
-0.19
-0.225
-0.235
-0.26
-0.3
-0.33
-0.335
-0.35
-0.355
-0.375
-0.42
-0.455
-0.46
-0.44
-0.425
-0.425
-0.45
-0.475
-0.515
-0.495
-0.48
-0.475
-0.48
-0.505
-0.515
-0.52
-0.51
-0.51
-0.51
-0.52
-0.53
-0.53
-0.52
-0.52
-0.52
-0.555
-0.56
-0.565
-0.575
-0.59
-0.595
-0.61
-0.6
-0.605
-0.615
-0.63
-0.645
-0.685
-0.69
-0.685
-0.69
-0.715
-0.745
-0.77
-0.785
-0.77
-0.755
-0.775
-0.785
-0.795
-0.78
-0.77
-0.775
-0.765
-0.78
-0.775
-0.75
-0.71
-0.685
-0.645
-0.625
-0.615
-0.595
-0.545
-0.49
-0.485
-0.475
-0.47
-0.435
-0.4
-0.355
-0.34
-0.325
-0.31
-0.31
-0.29
-0.28
-0.255
-0.26
-0.27
-0.28
-0.265
-0.245
-0.235
-0.24
-0.25
-0.25
-0.25
-0.235
-0.25
-0.245
-0.24
-0.26
-0.255
-0.245
-0.255
-0.27
-0.265
-0.27
-0.245
-0.24
-0.25
-0.265
-0.28
-0.28
-0.26
-0.24
-0.24
-0.25
-0.29
-0.29
-0.295
-0.255
-0.25
-0.285
-0.3
-0.295
-0.305
-0.28
-0.28
-0.285
-0.305
-0.31
-0.31
-0.275
-0.265
-0.265
-0.275
-0.29
-0.285
-0.27
-0.275
-0.28
-0.285
-0.275
-0.27
-0.275
-0.275
-0.3
-0.295
-0.285
-0.26
-0.24
-0.25
-0.265
-0.285
-0.275
-0.255
-0.24
-0.24
-0.28
-0.28
-0.27
-0.255
-0.23
-0.235
-0.235
-0.255
-0.275
-0.26
-0.25
-0.23
-0.255
-0.265
-0.26
-0.26
-0.22
-0.22
-0.205
-0.21
-0.205
-0.205
-0.19
-0.185
-0.19
-0.19
-0.185
-0.185
-0.19
-0.175
-0.18
-0.185
-0.185
-0.165
-0.165
-0.16
-0.175
-0.185
-0.21
-0.185
-0.18
-0.17
-0.165
-0.185
-0.195
-0.215
-0.235
-0.245
-0.25
-0.27
-0.28
-0.275
-0.245
-0.24
-0.255
-0.285
-0.29
-0.28
-0.255
-0.255
-0.255
-0.25
-0.25
-0.24
-0.22
-0.225
-0.225
-0.235
-0.24
-0.23
-0.235
-0.215
-0.225
-0.21
-0.13
0.0
0.165
0.28
0.395
0.49
0.625
0.795
0.94
1.09
1.195
1.325
1.49
1.7
1.895
2.0
2.015
1.95
1.8
1.52
1.135
0.76
0.495
0.335
0.27
0.24
0.245
0.22
0.17
0.1
0.065
0.045
0.005
-0.04
-0.095
-0.14
-0.165
-0.175
-0.185
-0.24
-0.28
-0.32
-0.345
-0.35
-0.355
-0.36
-0.4
-0.42
-0.425
-0.435
-0.43
-0.43
-0.44
-0.46
-0.455
-0.465
-0.455
-0.435
-0.445
-0.46
-0.475
-0.48
-0.485
-0.47
-0.495
-0.505
-0.505
-0.495
-0.48
-0.485
-0.505
-0.51
-0.525
-0.515
-0.54
-0.525
-0.55
-0.565
-0.57
-0.56
-0.56
-0.555
-0.565
-0.59
-0.63
-0.63
-0.605
-0.605
-0.62
-0.645
-0.66
-0.66
-0.66
-0.655
-0.66
-0.68
-0.695
-0.69
-0.67
-0.665
-0.67
-0.685
-0.665
-0.65
-0.62
-0.6
-0.605
-0.59
-0.57
-0.54
-0.495
-0.48
-0.48
-0.47
-0.43
-0.39
-0.35
-0.335
-0.32
-0.31
-0.31
-0.275
-0.25
-0.235
-0.23
-0.245
-0.24
-0.22
-0.195
-0.175
-0.195
-0.2
-0.205
-0.195
-0.185
-0.18
-0.19
-0.195
-0.195
-0.19
-0.19
-0.185
-0.205
-0.21
-0.205
-0.18
-0.175
-0.185
-0.215
-0.215
-0.225
-0.19
-0.185
-0.17
-0.19
-0.2
-0.215
-0.205
-0.175
-0.15
-0.16
-0.19
-0.2
-0.215
-0.21
-0.21
-0.22
-0.21
-0.205
-0.21
-0.2
-0.2
-0.19
-0.21
-0.215
-0.215
-0.205
-0.205
-0.205
-0.225
-0.215
-0.195
-0.185
-0.18
-0.185
-0.2
-0.215
-0.2
-0.175
-0.165
-0.18
-0.2
-0.2
-0.19
-0.165
-0.185
-0.18
-0.185
-0.2
-0.18
-0.18
-0.165
-0.175
-0.18
-0.21
-0.195
-0.175
-0.18
-0.165
-0.165
-0.17
-0.17
-0.155
-0.15
-0.145
-0.14
-0.135
-0.12
-0.1
-0.11
-0.125
-0.125
-0.125
-0.115
-0.105
-0.085
-0.105
-0.115
-0.105
-0.1
-0.075
-0.075
-0.085
-0.115
-0.115
-0.11
-0.1
-0.095
-0.085
-0.11
-0.12
-0.13
-0.12
-0.135
-0.14
-0.16
-0.185
-0.185
-0.18
-0.18
-0.195
-0.205
-0.195
-0.175
-0.165
-0.17
-0.195
-0.21
-0.195
-0.195
-0.165
-0.165
-0.17
-0.19
-0.18
-0.18
-0.175
-0.16
-0.15
-0.155
-0.165
-0.155
-0.16
-0.145
-0.145
-0.11
-0.035
0.08
0.175
0.28
0.35
0.435
0.565
0.715
0.905
1.1
1.295
1.485
1.685
1.85
1.945
1.975
1.955
1.855
1.725
1.545
1.295
0.965
0.655
0.435
0.335
0.305
0.3
0.27
0.245
0.2
0.155
0.12
0.09
0.055
0.02
-0.015
-0.045
-0.055
-0.055
-0.085
-0.13
-0.17
-0.19
-0.215
-0.24
-0.245
-0.26
-0.305
-0.345
-0.34
-0.34
-0.335
-0.345
-0.36
-0.37
-0.38
-0.38
-0.365
-0.37
-0.385
-0.39
-0.38
-0.375
-0.375
-0.385
-0.415
-0.415
-0.41
-0.4
-0.4
-0.415
-0.455
-0.455
-0.445
-0.42
-0.425
-0.43
-0.46
-0.465
-0.47
-0.45
-0.45
-0.46
-0.485
-0.485
-0.49
-0.49
-0.485
-0.51
-0.515
-0.525
-0.53
-0.535
-0.535
-0.55
-0.575
-0.565
-0.555
-0.555
-0.545
-0.55
-0.58
-0.585
-0.585
-0.58
-0.565
-0.55
-0.565
-0.575
-0.575
-0.545
-0.53
-0.51
-0.52
-0.5
-0.47
-0.45
-0.43
-0.425
-0.415
-0.41
-0.375
-0.34
-0.32
-0.295
-0.295
-0.285
-0.255
-0.22
-0.19
-0.18
-0.185
-0.195
-0.18
-0.155
-0.15
-0.145
-0.155
-0.155
-0.155
-0.145
-0.135
-0.15
-0.145
-0.145
-0.135
-0.12
-0.135
-0.13
-0.155
-0.175
-0.155
-0.135
-0.125
-0.135
-0.165
-0.175
-0.17
-0.15
-0.145
-0.15
-0.18
-0.165
-0.155
-0.15
-0.16
-0.155
-0.17
-0.17
-0.175
-0.15
-0.145
-0.16
-0.175
-0.19
-0.195
-0.18
-0.165
-0.175
-0.195
-0.215
-0.23
-0.235
-0.245
-0.275
-0.275
-0.245
-0.2
-0.085
0.02
0.125
0.25
0.405
0.595
0.76
0.95
1.125
1.235
1.28
1.305
1.26
1.18
1.08
0.955
0.825
0.705
0.57
0.425
0.265
0.09
-0.09
-0.235
-0.35
-0.44
-0.525
-0.58
-0.595
-0.6
-0.57
-0.56
-0.54
-0.52
-0.475
-0.435
-0.385
-0.35
-0.35
-0.355
-0.37
-0.34
-0.33
-0.31
-0.305
-0.325
-0.305
-0.31
-0.29
-0.285
-0.3
-0.3
-0.31
-0.285
-0.27
-0.255
-0.265
-0.295
-0.32
-0.32
-0.295
-0.28
-0.27
-0.26
-0.255
-0.26
-0.24
-0.21
-0.21
-0.215
-0.23
-0.215
-0.195
-0.2
-0.195
-0.205
-0.21
-0.19
-0.185
-0.17
-0.17
-0.18
-0.195
-0.185
-0.16
-0.15
-0.125
-0.14
-0.14
-0.12
-0.115
-0.09
-0.08
-0.07
-0.065
-0.03
-0.005
0.005
0.005
0.0
-0.01
0.0
0.05
0.085
0.12
0.125
0.13
0.15
0.19
0.21
0.225
0.24
0.26
0.29
0.315
0.325
0.325
0.32
0.32
0.335
0.345
0.36
0.36
0.355
0.345
0.335
0.325
0.315
0.305
0.285
0.26
0.25
0.245
0.23
0.2
0.16
0.15
0.13
0.11
0.11
0.075
0.025
0.0
-0.005
-0.015
-0.01
-0.035
-0.05
-0.055
-0.065
-0.07
-0.08
-0.095
-0.13
-0.135
-0.13
-0.12
-0.13
-0.14
-0.135
-0.155
-0.165
-0.16
-0.165
-0.175
-0.175
-0.205
-0.195
-0.2
-0.185
-0.19
-0.19
-0.205
-0.195
-0.18
-0.165
-0.19
-0.195
-0.215
-0.215
-0.205
-0.18
-0.19
-0.2
-0.22
-0.23
-0.225
-0.21
-0.215
-0.215
-0.23
-0.22
-0.195
-0.19
-0.21
-0.24
-0.255
-0.25
-0.235
-0.23
-0.245
-0.235
-0.24
-0.245
-0.225
-0.22
-0.23
-0.24
-0.265
-0.25
-0.23
-0.22
-0.23
-0.24
-0.265
-0.27
-0.26
-0.235
-0.245
-0.25
-0.275
-0.265
-0.26
-0.255
-0.265
-0.285
-0.3
-0.28
-0.27
-0.26
-0.255
-0.285
-0.29
-0.29
-0.27
-0.25
-0.255
-0.295
-0.305
-0.29
-0.28
-0.26
-0.265
-0.285
-0.295
-0.295
-0.295
-0.275
-0.29
-0.305
-0.32
-0.285
-0.28
-0.26
-0.275
-0.3
-0.305
-0.305
-0.285
-0.26
-0.28
-0.29
-0.32
-0.31
-0.295
-0.275
-0.265
-0.27
-0.28
-0.285
-0.295
-0.28
-0.295
-0.305
-0.305
-0.295
-0.265
-0.25
-0.26
-0.285
-0.305
-0.315
-0.295
-0.28
-0.29
-0.31
-0.3
-0.285
-0.27
-0.275
-0.27
-0.31
-0.32
-0.305
-0.3
-0.285
-0.28
-0.295
-0.3
-0.305
-0.295
-0.27
-0.275
-0.285
-0.305
-0.31
-0.285
-0.275
-0.255
-0.27
-0.285
-0.29
-0.3
-0.28
-0.29
-0.305
-0.305
-0.275
-0.25
-0.255
-0.27
-0.29
-0.3
-0.29
-0.26
-0.255
-0.27
-0.28
-0.305
-0.325
-0.285
-0.28
-0.28
-0.3
-0.305
-0.3
-0.275
-0.26
-0.265
-0.275
-0.27
-0.27
-0.26
-0.255
-0.275
-0.28
-0.3
-0.275
-0.275
-0.255
-0.265
-0.275
-0.3
-0.29
-0.28
-0.26
-0.27
-0.26
-0.265
-0.26
-0.255
-0.235
-0.26
-0.28
-0.285
-0.29
-0.28
-0.245
-0.255
-0.265
-0.26
-0.25
-0.245
-0.23
-0.225
-0.225
-0.23
-0.21
-0.185
-0.16
-0.19
-0.21
-0.255
-0.235
-0.225
-0.195
-0.195
-0.2
-0.195
-0.175
-0.165
-0.165
-0.175
-0.22
-0.215
-0.205
-0.2
-0.18
-0.2
-0.235
-0.245
-0.23
-0.22
-0.21
-0.205
-0.23
-0.26
-0.28
-0.285
-0.265
-0.27
-0.275
-0.27
-0.265
-0.245
-0.235
-0.26
-0.295
-0.29
-0.27
-0.235
-0.225
-0.23
-0.235
-0.275
-0.27
-0.265
-0.255
-0.245
-0.26
-0.245
-0.25
-0.245
-0.235
-0.25
-0.25
-0.24
-0.18
-0.07
0.025
0.115
0.205
0.29
0.395
0.545
0.69
0.82
0.94
1.035
1.175
1.31
1.455
1.64
1.79
1.915
1.955
1.96
1.93
1.805
1.565
1.22
0.855
0.535
0.385
0.29
0.24
0.195
0.15
0.12
0.105
0.055
0.04
0.005
-0.02
-0.035
-0.05
-0.1
-0.12
-0.165
-0.17
-0.16
-0.175
-0.21
-0.25
-0.3
-0.315
-0.345
-0.34
-0.36
-0.385
-0.405
-0.41
-0.42
-0.415
-0.42
-0.43
-0.445
-0.435
-0.435
-0.42
-0.42
-0.435
-0.455
-0.455
-0.45
-0.425
-0.435
-0.45
-0.445
-0.44
-0.44
-0.45
-0.47
-0.49
-0.5
-0.505
-0.48
-0.47
-0.48
-0.505
-0.51
-0.525
-0.5
-0.485
-0.495
-0.515
-0.53
-0.54
-0.52
-0.52
-0.515
-0.52
-0.535
-0.525
-0.525
-0.53
-0.55
-0.57
-0.59
-0.59
-0.565
-0.555
-0.565
-0.575
-0.595
-0.605
-0.6
-0.605
-0.61
-0.61
-0.635
-0.63
-0.62
-0.615
-0.62
-0.63
-0.64
-0.64
-0.61
-0.6
-0.615
-0.63
-0.635
-0.625
-0.605
-0.59
-0.575
-0.57
-0.565
-0.555
-0.525
-0.505
-0.495
-0.495
-0.46
-0.445
-0.405
-0.385
-0.355
-0.355
-0.355
-0.335
-0.305
-0.275
-0.24
-0.25
-0.245
-0.225
-0.205
-0.175
-0.17
-0.19
-0.18
-0.165
-0.135
-0.125
-0.14
-0.17
-0.17
-0.155
-0.135
-0.12
-0.145
-0.155
-0.155
-0.155
-0.14
-0.13
-0.145
-0.165
-0.17
-0.185
-0.17
-0.155
-0.165
-0.165
-0.175
-0.18
-0.175
-0.16
-0.16
-0.18
-0.185
-0.175
-0.165
-0.155
-0.16
-0.19
-0.19
-0.195
-0.185
-0.15
-0.135
-0.17
-0.175
-0.185
-0.175
-0.165
-0.165
-0.175
-0.195
-0.185
-0.15
-0.15
-0.16
-0.18
-0.19
-0.19
-0.16
-0.14
-0.15
-0.155
-0.165
-0.18
-0.16
-0.155
-0.155
-0.175
-0.19
-0.17
-0.155
-0.145
-0.155
-0.165
-0.185
-0.165
-0.16
-0.14
-0.15
-0.18
-0.185
-0.18
-0.175
-0.16
-0.155
-0.17
-0.185
-0.185
-0.19
-0.165
-0.165
-0.16
-0.165
-0.16
-0.145
-0.125
-0.13
-0.14
-0.13
-0.12
-0.115
-0.11
-0.135
-0.135
-0.145
-0.14
-0.115
-0.08
-0.1
-0.13
-0.16
-0.16
-0.13
-0.125
-0.115
-0.13
-0.18
-0.175
-0.16
-0.15
-0.16
-0.17
-0.18
-0.195
-0.21
-0.195
-0.205
-0.21
-0.215
-0.215
-0.2
-0.19
-0.21
-0.235
-0.255
-0.245
-0.23
-0.205
-0.22
-0.235
-0.245
-0.235
-0.215
-0.2
-0.2
-0.22
-0.235
-0.235
-0.22
-0.19
-0.185
-0.205
-0.205
-0.15
-0.035
0.09
0.185
0.265
0.33
0.415
0.495
0.59
0.69
0.835
1.005
1.2
1.4
1.595
1.725
1.79
1.79
1.755
1.655
1.475
1.195
0.895
0.66
0.495
0.39
0.33
0.28
0.24
0.22
0.195
0.2
0.18
0.125
0.07
0.015
-0.005
-0.02
-0.01
-0.04
-0.08
-0.12
-0.15
-0.18
-0.2
-0.235
-0.26
-0.29
-0.32
-0.32
-0.34
-0.36
-0.385
-0.41
-0.415
-0.395
-0.385
-0.405
-0.43
-0.45
-0.455
-0.435
-0.425
-0.43
-0.435
-0.46
-0.46
-0.45
-0.45
-0.455
-0.465
-0.475
-0.485
-0.465
-0.46
-0.47
-0.49
-0.505
-0.505
-0.5
-0.485
-0.5
-0.51
-0.525
-0.52
-0.525
-0.505
-0.5
-0.52
-0.53
-0.545
-0.53
-0.535
-0.55
-0.56
-0.57
-0.575
-0.565
-0.565
-0.565
-0.6
-0.61
-0.62
-0.605
-0.61
-0.605
-0.615
-0.635
-0.63
-0.63
-0.61
-0.62
-0.62
-0.65
-0.635
-0.625
-0.605
-0.625
-0.635
-0.62
-0.615
-0.575
-0.565
-0.545
-0.555
-0.555
-0.545
-0.52
-0.485
-0.455
-0.455
-0.455
-0.43
-0.415
-0.375
-0.35
-0.35
-0.335
-0.325
-0.295
-0.285
-0.28
-0.28
-0.275
-0.265
-0.255
-0.235
-0.245
-0.26
-0.265
-0.26
-0.245
-0.23
-0.24
-0.24
-0.255
-0.265
-0.25
-0.235
-0.24
-0.26
-0.26
-0.265
-0.245
-0.245
-0.255
-0.255
-0.275
-0.265
-0.27
-0.25
-0.26
-0.275
-0.29
-0.285
-0.27
-0.255
-0.26
-0.28
-0.29
-0.285
-0.28
-0.27
-0.265
-0.265
-0.29
-0.27
-0.265
-0.265
-0.275
-0.28
-0.295
-0.28
-0.26
-0.245
-0.255
-0.285
-0.295
-0.305
-0.275
-0.265
-0.255
-0.275
-0.3
-0.29
-0.29
-0.28
-0.285
-0.285
-0.295
-0.295
-0.275
-0.265
-0.285
-0.295
-0.315
-0.305
-0.285
-0.285
-0.285
-0.295
-0.305
-0.29
-0.28
-0.275
-0.285
-0.305
-0.31
-0.305
-0.29
-0.265
-0.27
-0.27
-0.29
-0.285
-0.275
-0.255
-0.24
-0.25
-0.245
-0.24
-0.24
-0.225
-0.225
-0.25
-0.24
-0.23
-0.215
-0.2
-0.205
-0.205
-0.23
-0.21
-0.21
-0.205
-0.205
-0.23
-0.23
-0.245
-0.245
-0.22
-0.24
-0.255
-0.255
-0.255
-0.275
-0.255
-0.265
-0.305
-0.305
-0.31
-0.31
-0.3
-0.3
-0.3
-0.305
-0.3
-0.295
-0.3
-0.305
-0.33
-0.335
-0.32
-0.3
-0.27
-0.275
-0.285
-0.305
-0.32
-0.29
-0.28
-0.265
-0.265
-0.275
-0.275
-0.285
-0.265
-0.24
-0.165
-0.065
0.03
0.115
0.18
0.235
0.27
0.355
0.465
0.62
0.8
0.955
1.13
1.31
1.465
1.635
1.725
1.745
1.695
1.57
1.345
1.045
0.77
0.575
0.43
0.34
0.27
0.23
0.225
0.195
0.17
0.135
0.105
0.075
0.05
-0.02
-0.085
-0.115
-0.145
-0.15
-0.17
-0.205
-0.25
-0.3
-0.32
-0.345
-0.34
-0.36
-0.4
-0.415
-0.44
-0.44
-0.455
-0.485
-0.505
-0.535
-0.525
-0.495
-0.48
-0.49
-0.505
-0.53
-0.545
-0.53
-0.485
-0.51
-0.505
-0.525
-0.54
-0.54
-0.545
-0.565
-0.575
-0.565
-0.57
-0.56
-0.565
-0.565
-0.585
-0.59
-0.63
-0.6
-0.585
-0.61
-0.625
-0.65
-0.665
-0.66
-0.63
-0.645
-0.655
-0.665
-0.685
-0.7
-0.69
-0.7
-0.695
-0.71
-0.725
-0.73
-0.71
-0.74
-0.745
-0.75
-0.75
-0.73
-0.74
-0.77
-0.77
-0.785
-0.78
-0.745
-0.705
-0.69
-0.705
-0.72
-0.72
-0.69
-0.655
-0.655
-0.63
-0.63
-0.6
-0.565
-0.515
-0.495
-0.485
-0.48
-0.465
-0.425
-0.385
-0.37
-0.35
-0.345
-0.35
-0.33
-0.305
-0.295
-0.3
-0.31
-0.33
-0.305
-0.275
-0.265
-0.265
-0.265
-0.255
-0.255
-0.26
-0.255
-0.28
-0.295
-0.29
-0.275
-0.26
-0.27
-0.285
-0.29
-0.265
-0.23
-0.25
-0.27
-0.305
-0.305
-0.29
-0.28
-0.27
-0.26
-0.28
-0.305
-0.315
-0.305
-0.25
-0.25
-0.285
-0.305
-0.32
-0.31
-0.295
-0.305
-0.305
-0.3
-0.3
-0.28
-0.26
-0.265
-0.29
-0.305
-0.33
-0.31
-0.275
-0.27
-0.29
-0.32
-0.32
-0.315
-0.3
-0.3
-0.3
-0.32
-0.285
-0.255
-0.235
-0.26
-0.29
-0.3
-0.295
-0.275
-0.255
-0.25
-0.265
-0.28
-0.285
-0.26
-0.225
-0.21
-0.215
-0.225
-0.24
-0.235
-0.19
-0.19
-0.19
-0.215
-0.245
-0.235
-0.225
-0.19
-0.205
-0.22
-0.21
-0.215
-0.21
-0.21
-0.21
-0.21
-0.23
-0.245
-0.23
-0.24
-0.23
-0.235
-0.26
-0.265
-0.275
-0.28
-0.28
-0.275
-0.25
-0.23
-0.24
-0.255
-0.28
-0.325
-0.305
-0.285
-0.255
-0.25
-0.26
-0.28
-0.285
-0.27
-0.265
-0.245
-0.275
-0.295
-0.305
-0.29
-0.255
-0.24
-0.255
-0.26
-0.205
-0.105
0.045
0.175
0.295
0.405
0.57
0.755
0.97
1.215
1.43
1.635
1.815
1.935
1.97
1.95
1.86
1.755
1.53
1.185
0.78
0.435
0.26
0.18
0.175
0.155
0.145
0.075
-0.01
-0.065
-0.095
-0.105
-0.1
-0.115
-0.14
-0.175
-0.215
-0.235
-0.255
-0.265
-0.31
-0.34
-0.375
-0.375
-0.39
-0.415
-0.435
-0.455
-0.45
-0.45
-0.455
-0.445
-0.46
-0.465
-0.485
-0.455
-0.46
-0.46
-0.475
-0.5
-0.51
-0.485
-0.47
-0.46
-0.5
-0.505
-0.52
-0.52
-0.495
-0.51
-0.51
-0.54
-0.545
-0.545
-0.53
-0.53
-0.535
-0.55
-0.55
-0.555
-0.555
-0.565
-0.585
-0.595
-0.595
-0.595
-0.605
-0.605
-0.635
-0.65
-0.66
-0.64
-0.655
-0.635
-0.64
-0.66
-0.665
-0.65
-0.655
-0.655
-0.655
-0.67
-0.675
-0.66
-0.635
-0.615
-0.615
-0.605
-0.615
-0.6
-0.575
-0.545
-0.56
-0.56
-0.545
-0.5
-0.47
-0.455
-0.43
-0.435
-0.4
-0.36
-0.335
-0.31
-0.305
-0.32
-0.31
-0.275
-0.255
-0.245
-0.25
-0.265
-0.275
-0.27
-0.25
-0.25
-0.245
-0.255
-0.255
-0.26
-0.25
-0.265
-0.265
-0.28
-0.265
-0.25
-0.24
-0.255
-0.28
-0.29
-0.285
-0.255
-0.235
-0.24
-0.25
-0.265
-0.285
-0.285
-0.27
-0.27
-0.275
-0.31
-0.295
-0.285
-0.265
-0.265
-0.265
-0.27
-0.28
-0.285
-0.27
-0.275
-0.29
-0.28
-0.285
-0.26
-0.25
-0.255
-0.295
-0.305
-0.305
