Lead II
-0.07
-0.115
-0.13
-0.13
-0.13
-0.16
-0.165
-0.19
-0.21
-0.215
-0.2
-0.215
-0.235
-0.255
-0.24
-0.22
-0.225
-0.23
-0.235
-0.255
-0.26
-0.245
-0.23
-0.235
-0.245
-0.245
-0.235
-0.215
-0.215
-0.19
-0.21
-0.23
-0.21
-0.19
-0.185
-0.18
-0.175
-0.19
-0.185
-0.16
-0.14
-0.135
-0.13
-0.13
-0.145
-0.16
-0.165
-0.16
-0.165
-0.18
-0.175
-0.19
-0.195
-0.22
-0.225
-0.25
-0.23
-0.2
-0.195
-0.215
-0.255
-0.27
-0.285
-0.28
-0.265
-0.255
-0.275
-0.275
-0.28
-0.26
-0.245
-0.265
-0.265
-0.275
-0.27
-0.245
-0.24
-0.245
-0.25
-0.265
-0.27
-0.27
-0.255
-0.255
-0.27
-0.28
-0.285
-0.26
-0.23
-0.225
-0.255
-0.275
-0.265
-0.255
-0.24
-0.255
-0.275
-0.28
-0.28
-0.245
-0.15
-0.03
0.105
0.25
0.42
0.615
0.75
0.78
0.66
0.475
0.29
0.08
-0.225
-0.565
-0.825
-0.955
-0.93
-0.79
-0.65
-0.57
-0.51
-0.445
-0.365
-0.3
-0.275
-0.285
-0.28
-0.285
-0.265
-0.245
-0.2
-0.2
-0.21
-0.215
-0.21
-0.19
-0.165
-0.165
-0.19
-0.17
-0.14
-0.105
-0.095
-0.105
-0.115
-0.11
-0.09
-0.04
-0.02
-0.015
-0.02
-0.04
-0.015
0.035
0.07
0.075
0.095
0.095
0.12
0.13
0.165
0.175
0.175
0.175
0.165
0.205
0.215
0.21
0.215
0.225
0.22
0.21
0.23
0.235
0.24
0.21
0.195
0.19
0.195
0.185
0.165
0.14
0.125
0.11
0.105
0.07
0.01
-0.03
-0.055
-0.055
-0.045
-0.07
-0.095
-0.11
-0.135
-0.15
-0.15
-0.165
-0.185
-0.225
-0.245
-0.235
-0.205
-0.195
-0.195
-0.215
-0.22
-0.2
-0.19
-0.21
-0.235
-0.235
-0.26
-0.255
-0.235
-0.23
-0.225
-0.23
-0.235
-0.22
-0.195
-0.185
-0.205
-0.22
-0.23
-0.19
-0.17
-0.16
-0.16
-0.175
-0.17
-0.155
-0.13
-0.12
-0.13
-0.12
-0.125
-0.125
-0.12
-0.13
-0.14
-0.165
-0.17
-0.18
-0.205
-0.215
-0.22
-0.235
-0.245
-0.25
-0.24
-0.245
-0.26
-0.275
-0.295
-0.28
-0.255
-0.245
-0.25
-0.265
-0.285
-0.29
-0.28
-0.27
-0.275
-0.285
-0.29
-0.26
-0.245
-0.26
-0.285
-0.305
-0.31
-0.275
-0.255
-0.25
-0.275
-0.28
-0.265
-0.255
-0.25
-0.275
-0.29
-0.295
-0.285
-0.27
-0.255
-0.265
-0.295
-0.295
-0.28
-0.27
-0.25
-0.22
-0.16
-0.06
0.09
0.255
0.44
0.565
0.6
0.565
0.46
0.355
0.2
-0.07
-0.395
-0.66
-0.86
-0.915
-0.82
-0.71
-0.62
-0.565
-0.46
-0.37
-0.305
-0.26
-0.23
-0.25
-0.265
-0.26
-0.235
-0.235
-0.235
-0.235
-0.22
-0.195
-0.18
-0.185
-0.195
-0.19
-0.155
-0.115
-0.085
-0.09
-0.115
-0.135
-0.135
-0.12
-0.07
-0.05
-0.045
-0.04
-0.025
-0.015
0.005
0.025
0.035
0.03
0.045
0.075
0.135
0.15
0.155
0.145
0.11
0.12
0.13
0.135
0.135
0.145
0.175
0.215
0.245
0.225
0.19
0.15
0.125
0.135
0.15
0.165
0.145
0.115
0.105
0.105
0.09
0.06
0.015
-0.02
-0.045
-0.045
-0.05
-0.08
-0.105
-0.12
-0.13
-0.135
-0.155
-0.185
-0.205
-0.2
-0.18
-0.175
-0.18
-0.195
-0.22
-0.255
-0.28
-0.28
-0.26
-0.225
-0.205
-0.195
-0.215
-0.225
-0.215
-0.22
-0.225
-0.265
-0.28
-0.26
-0.235
-0.225
-0.25
-0.24
-0.21
-0.18
-0.165
-0.185
-0.195
-0.21
-0.195
-0.18
-0.155
-0.14
-0.15
-0.145
-0.145
-0.14
-0.135
-0.15
-0.17
-0.165
-0.175
-0.17
-0.18
-0.19
-0.205
-0.23
-0.235
-0.22
-0.205
-0.215
-0.24
-0.235
-0.245
-0.235
-0.23
-0.245
-0.26
-0.265
-0.27
-0.26
-0.245
-0.245
-0.25
-0.265
-0.245
-0.225
-0.205
-0.21
-0.24
-0.28
-0.295
-0.29
-0.235
-0.225
-0.265
-0.305
-0.29
-0.25
-0.24
-0.25
-0.27
-0.27
-0.265
-0.245
-0.245
-0.255
-0.27
-0.285
-0.28
-0.27
-0.23
-0.195
-0.155
-0.09
0.03
0.2
0.39
0.555
0.625
0.635
0.545
0.435
0.27
0.025
-0.285
-0.565
-0.79
-0.9
-0.855
-0.74
-0.655
-0.58
-0.5
-0.39
-0.315
-0.27
-0.275
-0.29
-0.28
-0.24
-0.225
-0.2
-0.19
-0.21
-0.22
-0.195
-0.15
-0.125
-0.135
-0.155
-0.165
-0.155
-0.125
-0.12
-0.135
-0.14
-0.13
-0.08
-0.03
-0.01
-0.005
-0.03
-0.045
-0.035
0.015
0.03
0.055
0.04
0.035
0.06
0.105
0.135
0.145
0.16
0.155
0.175
0.195
0.195
0.19
0.195
0.19
0.195
0.205
0.18
0.185
0.2
0.2
0.21
0.2
0.18
0.15
0.145
0.145
0.13
0.135
0.115
0.09
0.04
0.0
-0.005
-0.015
-0.04
-0.08
-0.105
-0.115
-0.105
-0.105
-0.135
-0.16
-0.165
-0.18
-0.19
-0.195
-0.23
-0.255
-0.265
-0.265
-0.245
-0.225
-0.22
-0.225
-0.245
-0.245
-0.24
-0.21
-0.235
-0.265
-0.275
-0.26
-0.23
-0.22
-0.245
-0.28
-0.285
-0.26
-0.225
-0.225
-0.225
-0.24
-0.225
-0.21
-0.205
-0.225
-0.22
-0.215
-0.245
-0.235
-0.2
-0.165
-0.145
-0.145
-0.15
-0.135
-0.14
-0.155
-0.185
-0.205
-0.24
-0.245
-0.235
-0.225
-0.23
-0.245
-0.25
-0.255
-0.215
-0.2
-0.2
-0.22
-0.245
-0.27
-0.27
-0.28
-0.285
-0.285
-0.295
-0.29
-0.295
-0.275
-0.29
-0.28
-0.285
-0.28
-0.28
-0.275
-0.285
-0.29
-0.295
-0.305
-0.295
-0.285
-0.295
-0.295
-0.285
-0.27
-0.25
-0.235
-0.27
-0.27
-0.285
-0.305
-0.315
-0.305
-0.295
-0.29
-0.305
-0.315
-0.31
-0.295
-0.285
-0.245
-0.17
-0.035
0.095
0.21
0.32
0.435
0.51
0.6
0.675
0.69
0.58
0.43
0.21
-0.085
-0.39
-0.63
-0.815
-0.925
-0.905
-0.81
-0.705
-0.62
-0.555
-0.475
-0.405
-0.36
-0.345
-0.305
-0.28
-0.28
-0.29
-0.28
-0.265
-0.225
-0.22
-0.215
-0.205
-0.2
-0.195
-0.17
-0.185
-0.22
-0.23
-0.22
-0.19
-0.165
-0.155
-0.145
-0.135
-0.13
-0.12
-0.1
-0.095
-0.075
-0.075
-0.075
-0.055
-0.02
0.01
0.03
0.045
0.035
0.05
0.075
0.095
0.1
0.12
0.14
0.155
0.16
0.16
0.16
0.155
0.165
0.175
0.17
0.175
0.175
0.18
0.185
0.205
0.22
0.2
0.14
0.1
0.115
0.11
0.105
0.07
0.025
0.005
-0.015
-0.015
-0.03
-0.05
-0.08
-0.095
-0.1
-0.105
-0.115
-0.15
-0.18
-0.21
-0.23
-0.245
-0.24
-0.27
-0.275
-0.265
-0.26
-0.235
-0.215
-0.23
-0.265
-0.305
-0.325
-0.3
-0.255
-0.24
-0.265
-0.31
-0.325
-0.325
-0.31
-0.295
-0.3
-0.29
-0.29
-0.27
-0.25
-0.255
-0.26
-0.29
-0.295
-0.285
-0.275
-0.265
-0.27
-0.28
-0.27
-0.26
-0.235
-0.235
-0.22
-0.215
-0.195
-0.17
-0.195
-0.245
-0.285
-0.28
-0.265
-0.23
-0.215
-0.23
-0.245
-0.275
-0.285
-0.31
-0.285
-0.275
-0.275
-0.29
-0.295
-0.295
-0.3
-0.305
-0.34
-0.36
-0.365
-0.32
-0.29
-0.275
-0.28
-0.305
-0.32
-0.32
-0.29
-0.275
-0.275
-0.315
-0.33
-0.335
-0.305
-0.325
-0.335
-0.34
-0.325
-0.31
-0.3
-0.3
-0.295
-0.31
-0.31
-0.33
-0.29
-0.27
-0.275
-0.27
-0.265
-0.28
-0.29
-0.32
-0.35
-0.365
-0.345
-0.3
-0.19
-0.025
0.13
0.27
0.395
0.54
0.66
0.735
0.745
0.67
0.51
0.37
0.215
-0.045
-0.365
-0.645
-0.845
-0.915
-0.875
-0.77
-0.675
-0.64
-0.6
-0.535
-0.46
-0.43
-0.39
-0.405
-0.37
-0.33
-0.3
-0.285
-0.27
-0.275
-0.28
-0.29
-0.255
-0.245
-0.225
-0.22
-0.245
-0.26
-0.255
-0.24
-0.24
-0.24
-0.23
-0.195
-0.16
-0.145
-0.145
-0.145
-0.155
-0.165
-0.145
-0.135
-0.095
-0.095
-0.085
-0.08
-0.04
-0.015
0.01
0.01
0.01
0.035
0.07
0.09
0.09
0.07
0.07
0.09
0.12
0.12
0.13
0.125
0.15
0.165
0.185
0.185
0.185
0.175
0.185
0.205
0.21
0.17
0.13
0.105
0.095
0.1
0.115
0.09
0.055
0.025
0.0
0.01
0.015
-0.01
-0.065
-0.105
-0.145
-0.135
-0.135
-0.15
-0.185
-0.215
-0.225
-0.225
-0.22
-0.24
-0.245
-0.255
-0.265
-0.26
-0.245
-0.245
-0.25
-0.27
-0.29
-0.29
-0.3
-0.315
-0.32
-0.31
-0.3
-0.295
-0.28
-0.295
-0.305
-0.3
-0.31
-0.285
-0.29
-0.305
-0.32
-0.305
-0.29
-0.27
-0.25
-0.25
-0.28
-0.305
-0.275
-0.205
-0.16
-0.16
-0.19
-0.21
-0.215
-0.22
-0.235
-0.245
-0.26
-0.27
-0.285
-0.275
-0.255
-0.25
-0.28
-0.3
-0.31
-0.31
-0.275
-0.25
-0.25
-0.25
-0.25
-0.28
-0.28
-0.315
-0.37
-0.385
-0.38
-0.35
-0.315
-0.315
-0.345
-0.36
-0.355
-0.32
-0.29
-0.29
-0.31
-0.325
-0.345
-0.35
-0.34
-0.34
-0.32
-0.33
-0.325
-0.33
-0.32
-0.325
-0.32
-0.32
-0.315
-0.29
-0.27
-0.285
-0.31
-0.345
-0.355
-0.325
-0.28
-0.29
-0.315
-0.34
-0.36
-0.31
-0.19
-0.04
0.13
0.285
0.445
0.635
0.78
0.805
0.74
0.57
0.38
0.18
-0.065
-0.39
-0.67
-0.86
-0.935
-0.9
-0.795
-0.705
-0.66
-0.59
-0.495
-0.42
-0.355
-0.305
-0.3
-0.315
-0.315
-0.295
-0.29
-0.3
-0.3
-0.28
-0.275
-0.26
-0.245
-0.235
-0.25
-0.24
-0.24
-0.21
-0.17
-0.165
-0.185
-0.2
-0.17
-0.14
-0.115
-0.125
-0.14
-0.13
-0.085
-0.03
-0.015
-0.02
-0.03
-0.035
-0.025
-0.015
0.005
0.025
0.065
0.085
0.12
0.14
0.155
0.14
0.12
0.115
0.125
0.16
0.215
0.215
0.2
0.175
0.18
0.185
0.205
0.18
0.15
0.115
0.11
0.115
0.115
0.065
0.015
-0.02
-0.05
-0.07
-0.07
-0.095
-0.15
-0.19
-0.195
-0.205
-0.185
-0.205
-0.24
-0.265
-0.28
-0.28
-0.28
-0.275
-0.28
-0.3
-0.29
-0.29
-0.275
-0.275
-0.275
-0.28
-0.295
-0.3
-0.28
-0.29
-0.3
-0.32
-0.315
-0.29
-0.275
-0.27
-0.275
-0.285
-0.275
-0.26
-0.23
-0.245
-0.26
-0.28
-0.26
-0.225
-0.195
-0.19
-0.2
-0.195
-0.19
-0.19
-0.18
-0.205
-0.245
-0.3
-0.29
-0.28
-0.255
-0.25
-0.265
-0.285
-0.28
-0.27
-0.265
-0.285
-0.33
-0.36
-0.36
-0.345
-0.33
-0.33
-0.35
-0.36
-0.35
-0.33
-0.3
-0.31
-0.335
-0.345
-0.34
-0.315
-0.295
-0.295
-0.32
-0.35
-0.355
-0.325
-0.31
-0.31
-0.34
-0.355
-0.345
-0.325
-0.325
-0.33
-0.33
-0.33
-0.305
-0.285
-0.29
-0.335
-0.35
-0.36
-0.335
-0.325
-0.33
-0.35
-0.355
-0.34
-0.29
-0.165
-0.005
0.155
0.285
0.405
0.55
0.685
0.77
0.8
0.705
0.54
0.37
0.22
-0.04
-0.38
-0.685
-0.895
-0.96
-0.875
-0.78
-0.73
-0.69
-0.615
-0.515
-0.435
-0.375
-0.345
-0.33
-0.315
-0.31
-0.295
-0.285
-0.265
-0.265
-0.285
-0.285
-0.265
-0.215
-0.21
-0.22
-0.23
-0.235
-0.22
-0.195
-0.185
-0.2
-0.225
-0.215
-0.185
-0.15
-0.135
-0.13
-0.125
-0.125
-0.12
-0.075
-0.065
-0.045
-0.04
-0.01
0.02
0.05
0.055
0.06
0.055
0.095
0.11
0.14
0.14
0.145
0.14
0.135
0.145
0.17
0.17
0.16
0.16
0.165
0.19
0.195
0.195
0.195
0.165
0.14
0.12
0.11
0.085
0.05
0.005
-0.015
-0.025
-0.04
-0.065
-0.11
-0.14
-0.155
-0.145
-0.14
-0.155
-0.215
-0.235
-0.245
-0.225
-0.205
-0.225
-0.255
-0.28
-0.275
-0.275
-0.26
-0.275
-0.29
-0.305
-0.285
-0.275
-0.265
-0.275
-0.27
-0.27
-0.27
-0.255
-0.275
-0.265
-0.26
-0.265
-0.26
-0.265
-0.235
-0.24
-0.25
-0.27
-0.27
-0.24
-0.2
-0.185
-0.185
-0.17
-0.17
-0.175
-0.16
-0.175
-0.2
-0.225
-0.255
-0.27
-0.29
-0.295
-0.29
-0.285
-0.275
-0.26
-0.26
-0.275
-0.285
-0.305
-0.325
-0.33
-0.325
-0.33
-0.33
-0.34
-0.325
-0.305
-0.29
-0.31
-0.34
-0.365
-0.35
-0.32
-0.315
-0.32
-0.33
-0.33
-0.32
-0.32
-0.305
-0.305
-0.325
-0.335
-0.325
-0.3
-0.28
-0.295
-0.305
-0.335
-0.335
-0.345
-0.325
-0.305
-0.27
-0.18
-0.03
0.14
0.32
0.48
0.615
0.695
0.705
0.61
0.465
0.29
0.03
-0.31
-0.67
-0.885
-0.96
-0.89
-0.755
-0.67
-0.6
-0.525
-0.44
-0.38
-0.35
-0.345
-0.35
-0.33
-0.3
-0.29
-0.28
-0.275
-0.26
-0.245
-0.23
-0.235
-0.24
-0.245
-0.245
-0.215
-0.185
-0.18
-0.18
-0.17
-0.17
-0.15
-0.125
-0.125
-0.1
-0.085
-0.065
-0.035
-0.015
-0.005
-0.01
-0.015
-0.005
0.04
0.1
0.085
0.1
0.1
0.105
0.14
0.155
0.165
0.16
0.15
0.145
0.165
0.185
0.185
0.18
0.13
0.105
0.095
0.1
0.095
0.06
0.025
-0.01
-0.045
-0.055
-0.055
-0.085
-0.12
-0.15
-0.18
-0.195
-0.205
-0.235
-0.255
-0.27
-0.265
-0.245
-0.26
-0.28
-0.295
-0.295
-0.275
-0.26
-0.275
-0.285
-0.3
-0.315
-0.305
-0.295
-0.295
-0.315
-0.315
-0.3
-0.29
-0.255
-0.25
-0.25
-0.26
-0.275
-0.28
-0.275
-0.25
-0.23
-0.24
-0.245
-0.23
-0.19
-0.185
-0.195
-0.22
-0.245
-0.24
-0.235
-0.24
-0.25
-0.28
-0.29
-0.305
-0.29
-0.285
-0.295
-0.295
-0.31
-0.33
-0.31
-0.32
-0.34
-0.35
-0.32
-0.295
-0.28
-0.29
-0.325
-0.335
-0.33
-0.305
-0.3
-0.305
-0.325
-0.33
-0.335
-0.33
-0.305
-0.31
-0.34
-0.33
-0.335
-0.325
-0.305
-0.305
-0.315
-0.335
-0.35
-0.34
-0.315
-0.315
-0.315
-0.34
-0.34
-0.33
-0.29
-0.23
-0.15
-0.04
0.08
0.235
0.405
0.56
0.65
0.65
0.57
0.42
0.25
-0.04
-0.415
-0.735
-0.94
-0.96
-0.84
-0.725
-0.645
-0.595
-0.52
-0.435
-0.37
-0.345
-0.34
-0.34
-0.31
-0.285
-0.27
-0.26
-0.27
-0.29
-0.29
-0.26
-0.25
-0.25
-0.245
-0.26
-0.275
-0.24
-0.215
-0.195
-0.19
-0.19
-0.18
-0.16
-0.145
-0.15
-0.155
-0.125
-0.1
-0.06
-0.03
-0.025
-0.025
-0.04
0.0
0.05
0.08
0.085
0.075
0.075
0.08
0.105
0.135
0.13
0.11
0.095
0.11
0.125
0.145
0.15
0.135
0.11
0.11
0.09
0.105
0.075
0.035
-0.005
-0.025
-0.02
-0.035
-0.07
-0.105
-0.125
-0.16
-0.155
-0.165
-0.195
-0.225
-0.24
-0.245
-0.25
-0.25
-0.27
-0.28
-0.31
-0.33
-0.3
-0.285
-0.285
-0.295
-0.31
-0.335
-0.32
-0.325
-0.325
-0.33
-0.33
-0.335
-0.31
-0.305
-0.31
-0.31
-0.305
-0.31
-0.295
-0.29
-0.3
-0.3
-0.285
-0.285
-0.265
-0.23
-0.225
-0.205
-0.215
-0.22
-0.22
-0.225
-0.275
-0.295
-0.325
-0.315
-0.315
-0.305
-0.305
-0.32
-0.315
-0.32
-0.305
-0.305
-0.335
-0.35
-0.375
-0.37
-0.36
-0.335
-0.34
-0.36
-0.36
-0.36
-0.335
-0.32
-0.325
-0.33
-0.345
-0.365
-0.365
-0.34
-0.33
-0.35
-0.36
-0.355
-0.335
-0.3
-0.315
-0.33
-0.345
-0.345
-0.325
-0.3
-0.31
-0.35
-0.365
-0.375
-0.355
-0.29
-0.195
-0.065
0.065
0.22
0.4
0.575
0.7
0.725
0.62
0.47
0.22
-0.14
-0.535
-0.83
-0.99
-0.93
-0.785
-0.65
-0.575
-0.5
-0.44
-0.375
-0.33
-0.315
-0.29
-0.285
-0.285
-0.28
-0.27
-0.265
-0.255
-0.28
-0.26
-0.25
-0.23
-0.21
-0.205
-0.205
-0.21
-0.195
-0.185
-0.115
-0.115
-0.12
-0.115
-0.115
-0.105
-0.065
-0.035
-0.015
-0.01
0.01
0.04
0.07
0.095
0.1
0.09
0.11
0.13
0.155
0.16
0.16
0.15
0.155
0.175
0.175
0.195
0.18
0.18
0.18
0.175
0.165
0.135
0.11
0.09
0.075
0.06
0.055
0.035
-0.005
-0.055
-0.095
-0.11
-0.105
-0.135
-0.17
-0.195
-0.21
-0.225
-0.21
-0.215
-0.23
-0.255
-0.275
-0.27
-0.255
-0.25
-0.27
-0.285
-0.285
-0.275
-0.275
-0.275
-0.285
-0.29
-0.295
-0.28
-0.265
-0.275
-0.285
-0.285
-0.28
-0.265
-0.255
-0.255
-0.27
-0.27
-0.265
-0.25
-0.245
-0.24
-0.23
-0.225
-0.225
-0.2
-0.175
-0.18
-0.21
-0.225
-0.24
-0.24
-0.235
-0.245
-0.26
-0.295
-0.275
-0.26
-0.25
-0.255
-0.26
-0.29
-0.325
-0.315
-0.3
-0.3
-0.295
-0.295
-0.31
-0.28
-0.265
-0.27
-0.29
-0.305
-0.305
-0.305
-0.305
-0.315
-0.31
-0.305
-0.32
-0.325
-0.305
-0.295
-0.295
-0.295
-0.295
-0.295
-0.28
-0.27
-0.285
-0.31
-0.315
-0.29
-0.275
-0.28
-0.31
-0.335
-0.32
-0.29
-0.195
-0.055
0.095
0.27
0.44
0.65
0.815
0.89
0.915
0.81
0.645
0.455
0.185
-0.185
-0.56
-0.84
-0.94
-0.865
-0.725
-0.615
-0.55
-0.485
-0.415
-0.34
-0.3
-0.26
-0.275
-0.28
-0.265
-0.265
-0.245
-0.265
-0.275
-0.26
-0.245
-0.225
-0.21
-0.205
-0.2
-0.22
-0.21
-0.205
-0.18
-0.17
-0.145
-0.14
-0.135
-0.115
-0.085
-0.085
-0.065
-0.06
-0.03
-0.01
0.03
0.04
0.055
0.06
0.085
0.105
0.135
0.145
0.135
0.115
0.115
0.16
0.2
0.22
0.19
0.185
0.175
0.19
0.205
0.2
0.17
0.135
0.12
0.11
0.1
0.075
0.035
0.015
0.0
0.0
-0.01
-0.045
-0.075
-0.105
-0.125
-0.15
-0.165
-0.19
-0.225
-0.245
-0.265
-0.255
-0.245
-0.255
-0.275
-0.305
-0.3
-0.285
-0.28
-0.285
-0.3
-0.32
-0.305
-0.29
-0.27
-0.255
-0.25
-0.26
-0.275
-0.275
-0.265
-0.28
-0.28
-0.27
-0.26
-0.235
-0.255
-0.265
-0.225
-0.21
-0.195
-0.19
-0.205
-0.24
-0.265
-0.27
-0.265
-0.245
-0.235
-0.24
-0.275
-0.315
-0.325
-0.28
-0.25
-0.26
-0.29
-0.33
-0.35
-0.34
-0.325
-0.32
-0.35
-0.38
-0.37
-0.31
-0.3
-0.32
-0.34
-0.35
-0.335
-0.335
-0.32
-0.335
-0.38
-0.37
-0.355
-0.335
-0.335
-0.325
-0.315
-0.305
-0.295
-0.28
-0.29
-0.315
-0.345
-0.345
-0.35
-0.335
-0.325
-0.33
-0.29
-0.19
0.0
0.21
0.4
0.575
0.735
0.845
0.91
0.875
0.705
0.455
0.145
-0.23
-0.58
-0.88
-0.97
-0.9
-0.795
-0.685
-0.57
-0.47
-0.395
-0.355
-0.34
-0.34
-0.325
-0.32
-0.3
-0.32
-0.32
-0.305
-0.29
-0.27
-0.265
-0.28
-0.29
-0.285
-0.27
-0.235
-0.205
-0.19
-0.205
-0.205
-0.2
-0.175
-0.145
-0.13
-0.105
-0.075
-0.09
-0.095
-0.09
-0.085
-0.055
-0.025
0.015
0.055
0.09
0.09
0.08
0.08
0.08
0.115
0.15
0.16
0.17
0.17
0.165
0.155
0.16
0.18
0.175
0.16
0.14
0.13
0.155
0.125
0.095
0.04
0.025
0.015
0.01
-0.005
-0.03
-0.07
-0.105
-0.135
-0.165
-0.18
-0.17
-0.2
-0.24
-0.255
-0.27
-0.275
-0.275
-0.29
-0.32
-0.32
-0.285
-0.28
-0.275
-0.265
-0.27
-0.295
-0.305
-0.32
-0.33
-0.33
-0.31
-0.305
-0.28
-0.285
-0.3
-0.295
-0.285
-0.25
-0.24
-0.255
-0.265
-0.285
-0.265
-0.265
-0.245
-0.235
-0.2
-0.185
-0.17
-0.155
-0.16
-0.205
-0.24
-0.245
-0.255
-0.225
-0.225
-0.25
-0.29
-0.315
-0.33
-0.32
-0.295
-0.27
-0.265
-0.295
-0.31
-0.305
-0.295
-0.31
-0.33
-0.35
-0.35
-0.33
-0.305
-0.3
-0.315
-0.335
-0.34
-0.32
-0.315
-0.295
-0.33
-0.34
-0.35
-0.345
-0.32
-0.315
-0.32
-0.33
-0.345
-0.33
-0.295
-0.29
-0.295
-0.3
-0.295
-0.29
-0.26
-0.275
-0.29
-0.33
-0.33
-0.295
-0.285
-0.28
-0.27
-0.195
-0.06
0.12
0.29
0.455
0.635
0.8
0.885
0.925
0.84
0.635
0.475
0.285
0.01
-0.34
-0.655
-0.88
-0.965
-0.91
-0.79
-0.685
-0.58
-0.5
-0.425
-0.38
-0.345
-0.335
-0.31
-0.3
-0.285
-0.265
-0.27
-0.245
-0.225
-0.2
-0.21
-0.205
-0.21
-0.215
-0.2
-0.21
-0.215
-0.245
-0.215
-0.19
-0.145
-0.14
-0.125
-0.12
-0.095
-0.08
-0.055
-0.035
-0.03
-0.02
-0.025
-0.02
0.03
0.06
0.055
0.045
0.05
0.075
0.1
0.12
0.14
0.145
0.15
0.17
0.175
0.18
0.19
0.2
0.205
0.235
0.25
0.24
0.215
0.21
0.2
0.19
0.185
0.15
0.13
0.105
0.085
0.07
0.06
0.02
0.0
-0.035
-0.05
-0.045
-0.045
-0.08
-0.14
-0.185
-0.205
-0.205
-0.21
-0.22
-0.23
-0.26
-0.255
-0.245
-0.23
-0.225
-0.24
-0.26
-0.28
-0.285
-0.27
-0.255
-0.265
-0.27
-0.275
-0.27
-0.255
-0.235
-0.245
-0.25
-0.235
-0.24
-0.23
-0.235
-0.245
-0.24
-0.245
-0.23
-0.195
-0.19
-0.185
-0.19
-0.175
-0.165
-0.125
-0.13
-0.14
-0.16
-0.195
-0.205
-0.19
-0.22
-0.235
-0.25
-0.265
-0.27
-0.255
-0.245
-0.24
-0.25
-0.26
-0.275
-0.27
-0.29
-0.295
-0.305
-0.295
-0.295
-0.275
-0.3
-0.3
-0.29
-0.29
-0.265
-0.27
-0.255
-0.28
-0.28
-0.29
-0.28
-0.27
-0.285
-0.28
-0.31
-0.31
-0.295
-0.275
-0.265
-0.265
-0.265
-0.27
-0.245
-0.23
-0.25
-0.275
-0.29
-0.28
-0.265
-0.26
-0.28
-0.285
-0.25
-0.165
-0.025
0.14
0.285
0.41
0.55
0.69
0.8
0.86
0.785
0.63
0.48
0.335
0.11
-0.185
-0.515
-0.765
-0.905
-0.885
-0.79
-0.685
-0.62
-0.56
-0.49
-0.415
-0.345
-0.29
-0.27
-0.265
-0.255
-0.25
-0.225
-0.21
-0.21
-0.215
-0.215
-0.21
-0.19
-0.175
-0.185
-0.175
-0.18
-0.18
-0.15
-0.13
-0.135
-0.135
-0.12
-0.115
-0.08
-0.05
-0.035
-0.04
-0.045
-0.03
-0.01
0.035
0.05
0.06
0.06
0.075
0.115
0.145
0.14
0.135
0.14
0.155
0.185
0.215
0.215
0.2
0.2
0.205
0.225
0.25
0.245
0.24
0.225
0.225
0.25
0.265
0.26
0.23
0.2
0.185
0.175
0.17
0.15
0.12
0.095
0.06
0.03
0.025
0.0
-0.02
-0.045
-0.065
-0.065
-0.07
-0.095
-0.125
-0.15
-0.16
-0.16
-0.16
-0.155
-0.16
-0.185
-0.2
-0.19
-0.175
-0.19
-0.21
-0.235
-0.225
-0.21
-0.19
-0.2
-0.205
-0.215
-0.215
-0.22
-0.19
-0.19
-0.19
-0.225
-0.21
-0.195
-0.17
-0.2
-0.21
-0.21
-0.205
-0.185
-0.16
-0.15
-0.15
-0.155
-0.15
-0.145
-0.115
-0.105
-0.095
-0.095
-0.095
-0.1
-0.08
-0.09
-0.12
-0.13
-0.145
-0.125
-0.075
-0.065
-0.06
-0.04
-0.02
0.025
0.085
0.115
0.16
0.21
0.27
0.36
0.47
0.565
0.665
0.795
0.975
1.2
1.425
1.605
1.745
1.88
2.01
2.105
2.185
2.235
2.225
2.19
2.065
1.925
1.695
1.255
0.75
0.39
0.25
0.195
0.13
-0.035
-0.295
-0.52
-0.645
-0.7
-0.74
-0.795
-0.835
-0.87
-0.875
-0.875
-0.835
-0.82
-0.785
-0.76
-0.72
-0.66
-0.62
-0.605
-0.605
-0.61
-0.62
-0.62
-0.615
-0.62
-0.625
-0.635
-0.65
-0.63
-0.61
-0.605
-0.595
-0.595
-0.605
-0.59
-0.59
-0.61
-0.63
-0.635
-0.625
-0.595
-0.585
-0.575
-0.59
-0.61
-0.605
-0.57
-0.56
-0.56
-0.555
-0.565
-0.55
-0.54
-0.53
-0.535
-0.535
-0.545
-0.525
-0.485
-0.455
-0.455
-0.455
-0.44
-0.425
-0.4
-0.37
-0.365
-0.365
-0.365
-0.35
-0.315
-0.285
-0.27
-0.265
-0.275
-0.275
-0.26
-0.225
-0.2
-0.2
-0.22
-0.225
-0.215
-0.195
-0.235
-0.25
-0.275
-0.275
-0.255
-0.235
-0.24
-0.255
-0.275
-0.265
-0.26
-0.25
-0.235
-0.25
-0.265
-0.29
-0.285
-0.28
-0.285
-0.27
-0.28
-0.29
-0.275
-0.275
-0.26
-0.27
-0.265
-0.275
-0.265
-0.255
-0.26
-0.255
-0.265
-0.265
-0.255
-0.23
-0.24
-0.26
-0.28
-0.295
-0.25
-0.235
-0.23
-0.235
-0.245
-0.245
-0.235
-0.225
-0.24
-0.245
-0.255
-0.255
-0.235
-0.21
-0.205
-0.215
-0.22
-0.23
-0.215
-0.215
-0.215
-0.24
-0.245
-0.235
-0.215
-0.2
-0.205
-0.22
-0.21
-0.205
-0.19
-0.155
-0.16
-0.145
-0.15
-0.16
-0.145
-0.14
-0.12
-0.12
-0.15
-0.16
-0.165
-0.155
-0.15
-0.17
-0.195
-0.21
-0.215
-0.215
-0.225
-0.22
-0.21
-0.205
-0.205
-0.22
-0.235
-0.25
-0.255
-0.25
-0.245
-0.225
-0.225
-0.245
-0.26
-0.27
-0.265
-0.24
-0.235
-0.235
-0.245
-0.245
-0.24
-0.225
-0.235
-0.24
-0.24
-0.235
-0.24
-0.22
-0.21
-0.215
-0.235
-0.24
-0.23
-0.21
-0.21
-0.2
-0.225
-0.225
-0.205
-0.19
-0.21
-0.24
-0.25
-0.225
-0.16
-0.045
0.065
0.185
0.295
0.44
0.6
0.705
0.775
0.775
0.685
0.56
0.335
0.015
-0.34
-0.64
-0.835
-0.87
-0.775
-0.665
-0.585
-0.53
-0.46
-0.385
-0.305
-0.25
-0.215
-0.21
-0.235
-0.235
-0.22
-0.19
-0.185
-0.185
-0.195
-0.19
-0.16
-0.145
-0.145
-0.155
-0.145
-0.13
-0.12
-0.1
-0.095
-0.1
-0.095
-0.075
-0.055
-0.035
-0.03
-0.03
-0.035
-0.02
0.0
0.03
0.035
0.04
0.05
0.045
0.075
0.09
0.105
0.11
0.115
0.13
0.145
0.17
0.185
0.195
0.19
0.185
0.195
0.225
0.215
0.19
0.195
0.205
0.225
0.245
0.245
0.23
0.195
0.19
0.205
0.21
0.195
0.17
0.125
0.11
0.095
0.1
0.08
0.045
0.015
-0.005
-0.02
-0.02
-0.035
-0.055
-0.07
-0.09
-0.1
-0.09
-0.125
-0.155
-0.175
-0.175
-0.175
-0.155
-0.15
-0.175
-0.18
-0.195
-0.21
-0.18
-0.19
-0.19
-0.195
-0.2
-0.205
-0.195
-0.19
-0.19
-0.205
-0.2
-0.18
-0.15
-0.165
-0.175
-0.185
-0.175
-0.15
-0.125
-0.125
-0.14
-0.135
-0.145
-0.12
-0.09
-0.09
-0.115
-0.145
-0.17
-0.165
-0.15
-0.145
-0.16
-0.17
-0.19
-0.17
-0.17
-0.175
-0.19
-0.19
-0.21
-0.195
-0.205
-0.22
-0.23
-0.225
-0.215
-0.2
-0.18
-0.19
-0.2
-0.22
-0.22
-0.21
-0.185
-0.18
-0.195
-0.2
-0.22
-0.21
-0.195
-0.195
-0.21
-0.22
-0.21
-0.205
-0.19
-0.19
-0.205
-0.225
-0.235
-0.22
-0.22
-0.235
-0.23
-0.235
-0.235
-0.2
-0.195
-0.2
-0.225
-0.235
-0.255
-0.26
-0.215
-0.155
-0.045
0.09
0.245
0.405
0.585
0.755
0.885
0.955
0.97
0.88
0.75
0.565
0.3
-0.045
-0.41
-0.675
-0.82
-0.825
-0.75
-0.665
-0.6
-0.495
-0.4
-0.325
-0.295
-0.265
-0.245
-0.23
-0.21
-0.205
-0.205
-0.205
-0.205
-0.185
-0.185
-0.17
-0.17
-0.165
-0.16
-0.145
-0.12
-0.125
-0.115
-0.13
-0.115
-0.1
-0.075
-0.06
-0.065
-0.065
-0.055
-0.03
-0.005
0.005
0.015
0.035
0.05
0.085
0.12
0.125
0.13
0.12
0.125
0.155
0.185
0.195
0.195
0.205
0.215
0.245
0.265
0.29
0.275
0.28
0.27
0.29
0.285
0.27
0.25
0.235
0.22
0.235
0.23
0.2
0.16
0.13
0.105
0.095
0.095
0.06
0.02
-0.01
-0.045
-0.055
-0.07
-0.095
-0.115
-0.135
-0.14
-0.14
-0.15
-0.16
-0.18
-0.21
-0.22
-0.2
-0.19
-0.195
-0.21
-0.22
-0.23
-0.21
-0.19
-0.185
-0.21
-0.24
-0.24
-0.23
-0.215
-0.205
-0.205
-0.21
-0.2
-0.185
-0.175
-0.18
-0.18
-0.18
-0.17
-0.165
-0.145
-0.145
-0.15
-0.155
-0.145
-0.125
-0.135
-0.17
-0.195
-0.2
-0.2
-0.19
-0.195
-0.2
-0.225
-0.23
-0.23
-0.22
-0.22
-0.215
-0.255
-0.285
-0.3
-0.285
-0.27
-0.27
-0.275
-0.275
-0.275
-0.285
-0.265
-0.28
-0.285
-0.295
-0.3
-0.28
-0.265
-0.265
-0.265
-0.275
-0.26
-0.245
-0.225
-0.235
-0.27
-0.295
-0.29
-0.275
-0.245
-0.25
-0.27
-0.28
-0.275
-0.245
-0.23
-0.235
-0.255
-0.265
-0.26
-0.245
-0.165
-0.065
0.09
0.26
0.445
0.645
0.815
0.965
1.03
1.01
0.875
0.695
0.505
0.195
-0.2
-0.55
-0.805
-0.89
-0.815
-0.695
-0.605
-0.525
-0.465
-0.395
-0.305
-0.275
-0.275
-0.285
-0.265
-0.255
-0.22
-0.22
-0.225
-0.245
-0.245
-0.22
-0.195
-0.18
-0.19
-0.2
-0.19
-0.175
-0.145
-0.155
-0.16
-0.165
-0.17
-0.14
-0.1
-0.075
-0.08
-0.075
-0.055
-0.03
0.005
0.015
0.015
0.015
0.025
0.06
0.105
0.12
0.13
0.12
0.14
0.16
0.185
0.195
0.19
0.195
0.195
0.225
0.235
0.235
0.205
0.195
0.195
0.205
0.22
0.205
0.18
0.155
0.135
0.115
0.105
0.07
0.015
-0.025
-0.04
-0.05
-0.06
-0.07
-0.12
-0.15
-0.175
-0.18
-0.18
-0.19
-0.205
-0.22
-0.23
-0.245
-0.235
-0.245
-0.27
-0.285
-0.28
-0.28
-0.255
-0.26
-0.265
-0.27
-0.265
-0.25
-0.25
-0.265
-0.295
-0.295
-0.295
-0.275
-0.25
-0.25
-0.255
-0.255
-0.245
-0.24
-0.23
-0.22
-0.215
-0.22
-0.21
-0.19
-0.18
-0.17
-0.195
-0.21
-0.21
-0.22
-0.215
-0.21
-0.235
-0.26
-0.28
-0.285
-0.275
-0.29
-0.305
-0.3
-0.305
-0.31
-0.31
-0.31
-0.32
-0.33
-0.325
-0.315
-0.305
-0.3
-0.32
-0.335
-0.33
-0.315
-0.31
-0.32
-0.32
-0.32
-0.33
-0.29
-0.295
-0.295
-0.315
-0.325
-0.325
-0.325
-0.315
-0.305
-0.31
-0.31
-0.315
-0.295
-0.275
-0.28
-0.295
-0.305
-0.32
-0.34
-0.335
-0.33
-0.3
-0.22
-0.08
0.13
0.325
0.5
0.69
0.83
0.94
0.955
0.83
0.635
0.39
0.08
-0.295
-0.64
-0.885
-0.97
-0.905
-0.79
-0.67
-0.575
-0.49
-0.415
-0.36
-0.355
-0.34
-0.32
-0.29
-0.285
