Lead II
0.565
0.48
0.41
0.375
0.37
0.355
0.33
0.29
0.25
0.21
0.18
0.145
0.08
0.04
-0.005
-0.035
-0.045
-0.08
-0.12
-0.16
-0.21
-0.235
-0.255
-0.265
-0.28
-0.33
-0.34
-0.36
-0.35
-0.355
-0.38
-0.405
-0.4
-0.42
-0.41
-0.405
-0.43
-0.465
-0.47
-0.45
-0.45
-0.455
-0.46
-0.47
-0.47
-0.45
-0.435
-0.45
-0.455
-0.48
-0.485
-0.49
-0.465
-0.465
-0.485
-0.52
-0.525
-0.525
-0.51
-0.515
-0.52
-0.53
-0.535
-0.53
-0.52
-0.53
-0.545
-0.585
-0.595
-0.6
-0.585
-0.57
-0.605
-0.615
-0.65
-0.645
-0.64
-0.645
-0.645
-0.665
-0.695
-0.695
-0.67
-0.665
-0.675
-0.695
-0.695
-0.695
-0.68
-0.675
-0.68
-0.695
-0.69
-0.67
-0.655
-0.625
-0.63
-0.62
-0.625
-0.595
-0.575
-0.535
-0.52
-0.515
-0.49
-0.47
-0.43
-0.385
-0.38
-0.365
-0.35
-0.315
-0.285
-0.27
-0.265
-0.27
-0.24
-0.215
-0.205
-0.195
-0.2
-0.205
-0.21
-0.185
-0.165
-0.17
-0.18
-0.185
-0.175
-0.19
-0.185
-0.19
-0.2
-0.21
-0.21
-0.205
-0.195
-0.2
-0.2
-0.21
-0.21
-0.19
-0.18
-0.17
-0.185
-0.205
-0.215
-0.205
-0.205
-0.195
-0.205
-0.225
-0.245
-0.24
-0.23
-0.22
-0.23
-0.255
-0.245
-0.255
-0.245
-0.235
-0.24
-0.25
-0.245
-0.235
-0.23
-0.225
-0.24
-0.255
-0.265
-0.245
-0.235
-0.22
-0.23
-0.25
-0.255
-0.24
-0.23
-0.215
-0.22
-0.235
-0.25
-0.235
-0.22
-0.205
-0.215
-0.235
-0.23
-0.23
-0.215
-0.215
-0.225
-0.235
-0.245
-0.225
-0.205
-0.19
-0.23
-0.235
-0.23
-0.22
-0.19
-0.185
-0.19
-0.21
-0.19
-0.18
-0.15
-0.135
-0.135
-0.15
-0.175
-0.16
-0.16
-0.145
-0.135
-0.145
-0.135
-0.125
-0.125
-0.12
-0.13
-0.135
-0.125
-0.12
-0.105
-0.12
-0.145
-0.165
-0.175
-0.15
-0.14
-0.145
-0.17
-0.21
-0.23
-0.225
-0.205
-0.19
-0.2
-0.21
-0.22
-0.215
-0.215
-0.205
-0.22
-0.21
-0.215
-0.205
-0.195
-0.2
-0.195
-0.205
-0.22
-0.215
-0.19
-0.195
-0.19
-0.195
-0.205
-0.175
-0.155
-0.15
-0.15
-0.13
-0.04
0.07
0.22
0.34
0.42
0.525
0.64
0.81
0.985
1.19
1.375
1.505
1.63
1.79
1.98
2.125
2.17
2.09
1.92
1.595
1.185
0.795
0.505
0.375
0.33
0.335
0.34
0.325
0.265
0.215
0.18
0.1
0.075
0.065
0.03
-0.01
-0.045
-0.08
-0.105
-0.155
-0.19
-0.23
-0.265
-0.295
-0.33
-0.33
-0.36
-0.395
-0.415
-0.4
-0.375
-0.38
-0.395
-0.405
-0.425
-0.425
-0.39
-0.395
-0.415
-0.43
-0.45
-0.46
-0.445
-0.45
-0.435
-0.47
-0.485
-0.485
-0.47
-0.465
-0.475
-0.485
-0.49
-0.485
-0.465
-0.475
-0.485
-0.515
-0.515
-0.515
-0.51
-0.52
-0.545
-0.56
-0.58
-0.57
-0.56
-0.55
-0.585
-0.61
-0.615
-0.61
-0.61
-0.595
-0.605
-0.635
-0.635
-0.66
-0.635
-0.635
-0.635
-0.645
-0.635
-0.645
-0.62
-0.605
-0.59
-0.59
-0.575
-0.565
-0.53
-0.52
-0.5
-0.495
-0.46
-0.445
-0.405
-0.37
-0.355
-0.355
-0.345
-0.315
-0.275
-0.255
-0.23
-0.24
-0.24
-0.235
-0.215
-0.195
-0.195
-0.195
-0.21
-0.21
-0.2
-0.18
-0.195
-0.195
-0.205
-0.19
-0.185
-0.205
-0.205
-0.225
-0.22
-0.21
-0.215
-0.2
-0.205
-0.21
-0.245
-0.235
-0.2
-0.2
-0.215
-0.22
-0.245
-0.23
-0.225
-0.225
-0.21
-0.22
-0.23
-0.235
-0.225
-0.22
-0.225
-0.235
-0.245
-0.23
-0.215
-0.2
-0.215
-0.245
-0.255
-0.23
-0.23
-0.24
-0.23
-0.245
-0.24
-0.24
-0.215
-0.2
-0.215
-0.225
-0.25
-0.225
-0.225
-0.21
-0.21
-0.215
-0.21
-0.205
-0.2
-0.205
-0.22
-0.24
-0.23
-0.225
-0.205
-0.195
-0.215
-0.23
-0.21
-0.195
-0.185
-0.18
-0.2
-0.215
-0.225
-0.21
-0.205
-0.185
-0.17
-0.18
-0.185
-0.175
-0.135
-0.115
-0.125
-0.125
-0.145
-0.135
-0.125
-0.125
-0.115
-0.135
-0.13
-0.11
-0.095
-0.1
-0.1
-0.13
-0.14
-0.125
-0.125
-0.12
-0.14
-0.155
-0.16
-0.165
-0.155
-0.165
-0.165
-0.175
-0.195
-0.205
-0.205
-0.2
-0.2
-0.21
-0.22
-0.225
-0.205
-0.19
-0.2
-0.225
-0.235
-0.215
-0.195
-0.195
-0.21
-0.23
-0.225
-0.21
-0.205
-0.2
-0.21
-0.22
-0.205
-0.19
-0.185
-0.17
-0.2
-0.195
-0.175
-0.11
0.0
0.095
0.19
0.255
0.34
0.43
0.56
0.71
0.895
1.1
1.305
1.54
1.755
1.945
2.07
2.105
2.11
2.035
1.855
1.605
1.3
1.015
0.79
0.6
0.485
0.42
0.37
0.335
0.29
0.255
0.235
0.185
0.14
0.08
0.02
-0.015
-0.04
-0.065
-0.095
-0.12
-0.155
-0.19
-0.22
-0.27
-0.295
-0.35
-0.385
-0.38
-0.38
-0.39
-0.41
-0.42
-0.435
-0.425
-0.405
-0.4
-0.41
-0.42
-0.445
-0.45
-0.46
-0.45
-0.46
-0.48
-0.485
-0.485
-0.485
-0.48
-0.485
-0.495
-0.51
-0.51
-0.505
-0.5
-0.52
-0.53
-0.54
-0.545
-0.515
-0.51
-0.54
-0.57
-0.575
-0.585
-0.58
-0.565
-0.585
-0.615
-0.64
-0.65
-0.62
-0.615
-0.62
-0.635
-0.64
-0.645
-0.645
-0.655
-0.65
-0.67
-0.675
-0.665
-0.665
-0.655
-0.675
-0.66
-0.66
-0.65
-0.62
-0.595
-0.595
-0.605
-0.59
-0.555
-0.52
-0.48
-0.49
-0.475
-0.445
-0.415
-0.365
-0.315
-0.3
-0.29
-0.295
-0.275
-0.25
-0.245
-0.245
-0.25
-0.225
-0.22
-0.185
-0.17
-0.185
-0.18
-0.185
-0.17
-0.155
-0.155
-0.185
-0.19
-0.18
-0.15
-0.09
-0.035
-0.015
0.01
0.07
0.16
0.285
0.43
0.555
0.685
0.79
0.935
1.06
1.165
1.25
1.315
1.35
1.32
1.21
0.99
0.72
0.475
0.2
-0.065
-0.365
-0.705
-1.03
-1.3
-1.515
-1.675
-1.795
-1.865
-1.945
-2.025
-2.09
-2.145
-2.185
-2.2
-2.215
-2.235
-2.23
-2.215
-2.16
-2.125
-2.02
-1.895
-1.73
-1.53
-1.34
-1.215
-1.095
-1.025
-0.95
-0.895
-0.855
-0.835
-0.815
-0.825
-0.815
-0.785
-0.72
-0.655
-0.58
-0.525
-0.485
-0.4
-0.315
-0.27
-0.21
-0.18
-0.155
-0.095
-0.03
0.04
0.07
0.09
0.11
0.12
0.15
0.175
0.18
0.2
0.235
0.285
0.345
0.385
0.415
0.445
0.47
0.51
0.56
0.59
0.605
0.62
0.655
0.675
0.725
0.74
0.79
0.82
0.84
0.89
0.95
0.99
1.025
1.04
1.075
1.11
1.155
1.195
1.22
1.245
1.23
1.23
1.275
1.31
1.32
1.315
1.295
1.275
1.29
1.3
1.3
1.27
1.225
1.215
1.185
1.165
1.13
1.09
1.055
1.02
0.99
0.95
0.88
0.82
0.745
0.73
0.685
0.645
0.575
0.515
0.47
0.42
0.435
0.4
0.355
0.3
0.23
0.19
0.155
0.135
0.105
0.065
0.03
0.005
-0.02
-0.03
-0.04
-0.05
-0.065
-0.07
-0.05
-0.025
-0.01
0.015
0.075
0.155
0.24
0.33
0.4
0.46
0.495
0.54
0.595
0.615
0.6
0.53
0.46
0.435
0.365
0.17
-0.195
-0.66
-1.15
-1.575
-1.87
-2.065
-2.225
-2.375
-2.445
-2.485
-2.475
-2.45
-2.405
-2.4
-2.385
-2.375
-2.33
-2.28
-2.19
-2.08
-1.965
-1.87
-1.79
-1.735
-1.67
-1.61
-1.525
-1.43
-1.32
-1.2
-1.14
-1.075
-1.03
-0.96
-0.88
-0.79
-0.7
-0.595
-0.49
-0.35
-0.25
-0.14
-0.105
-0.065
-0.02
0.015
0.075
0.11
0.11
0.115
0.135
0.165
0.2
0.255
0.275
0.28
0.31
0.335
0.37
0.425
0.475
0.505
0.53
0.585
0.62
0.665
0.71
0.75
0.785
0.835
0.88
0.91
0.94
0.97
1.015
1.075
1.135
1.185
1.235
1.255
1.3
1.365
1.43
1.475
1.505
1.505
1.52
1.545
1.57
1.595
1.605
1.61
1.605
1.6
1.605
1.595
1.565
1.53
1.505
1.46
1.435
1.4
1.345
1.3
1.265
1.245
1.215
1.16
1.09
1.01
0.945
0.905
0.865
0.82
0.75
0.66
0.605
0.545
0.505
0.46
0.41
0.34
0.275
0.245
0.21
0.195
0.165
0.12
0.085
0.065
0.035
0.025
-0.01
-0.055
-0.1
-0.1
-0.095
-0.1
-0.13
-0.155
-0.17
-0.185
-0.19
-0.195
-0.185
-0.215
-0.235
-0.24
-0.25
-0.25
-0.255
-0.28
-0.285
-0.28
-0.275
-0.285
-0.295
-0.315
-0.325
-0.325
-0.32
-0.32
-0.335
-0.355
-0.355
-0.355
-0.36
-0.35
-0.355
-0.38
-0.395
-0.395
-0.385
-0.375
-0.38
-0.4
-0.395
-0.4
-0.4
-0.41
-0.405
-0.415
-0.435
-0.425
-0.405
-0.415
-0.41
-0.435
-0.455
-0.435
-0.43
-0.42
-0.425
-0.455
-0.445
-0.47
-0.465
-0.445
-0.44
-0.445
-0.455
-0.44
-0.42
-0.41
-0.44
-0.46
-0.48
-0.46
-0.44
-0.435
-0.46
-0.485
-0.485
-0.48
-0.465
-0.45
-0.45
-0.46
-0.485
-0.48
-0.47
-0.46
-0.46
-0.465
-0.475
-0.475
-0.48
-0.465
-0.455
-0.465
-0.48
-0.47
-0.46
-0.465
-0.465
-0.475
-0.465
-0.46
-0.44
-0.44
-0.455
-0.48
-0.465
-0.48
-0.445
-0.445
-0.45
-0.475
-0.475
-0.47
-0.46
-0.435
-0.445
-0.46
-0.475
-0.47
-0.45
-0.435
-0.44
-0.46
-0.455
-0.46
-0.445
-0.45
-0.465
-0.46
-0.455
-0.45
-0.445
-0.425
-0.44
-0.45
-0.46
-0.46
-0.445
-0.44
-0.45
-0.47
-0.485
-0.47
-0.465
-0.45
-0.44
-0.46
-0.46
-0.465
-0.46
-0.445
-0.435
-0.445
-0.445
-0.44
-0.445
-0.42
-0.44
-0.44
-0.445
-0.45
-0.43
-0.43
-0.44
-0.45
-0.46
-0.455
-0.45
-0.45
-0.42
-0.43
-0.425
-0.41
-0.405
-0.415
-0.43
-0.465
-0.47
-0.455
-0.425
-0.42
-0.43
-0.445
-0.435
-0.44
-0.42
-0.415
-0.43
-0.425
-0.44
-0.425
-0.445
-0.42
-0.4
-0.42
-0.435
-0.435
-0.415
-0.395
-0.415
-0.435
-0.435
-0.445
-0.405
-0.41
-0.39
-0.395
-0.41
-0.405
-0.4
-0.395
-0.4
-0.405
-0.405
-0.405
-0.395
-0.38
-0.4
-0.405
-0.405
-0.405
-0.395
-0.385
-0.4
-0.425
-0.425
-0.415
-0.39
-0.38
-0.39
-0.395
-0.4
-0.385
-0.37
-0.37
-0.375
-0.395
-0.415
-0.415
-0.37
-0.365
-0.38
-0.4
-0.42
-0.4
-0.38
-0.375
-0.38
-0.385
-0.39
-0.385
-0.375
-0.375
-0.365
-0.37
-0.36
-0.355
-0.34
-0.345
-0.35
-0.36
-0.36
-0.35
-0.31
-0.3
-0.295
-0.31
-0.325
-0.32
-0.3
-0.29
-0.295
-0.29
-0.295
-0.295
-0.275
-0.265
-0.265
-0.265
-0.265
-0.25
-0.245
-0.265
-0.275
-0.29
-0.295
-0.31
-0.29
-0.275
-0.285
-0.32
-0.35
-0.35
-0.34
-0.335
-0.34
-0.35
-0.365
-0.355
-0.345
-0.33
-0.335
-0.34
-0.36
-0.355
-0.345
-0.345
-0.35
-0.36
-0.365
-0.35
-0.325
-0.31
-0.32
-0.34
-0.34
-0.325
-0.295
-0.28
-0.29
-0.285
-0.24
-0.105
0.04
0.165
0.275
0.4
0.53
0.71
0.945
1.215
1.43
1.65
1.86
2.035
2.14
2.17
2.14
2.085
1.94
1.66
1.245
0.82
0.505
0.35
0.285
0.28
0.255
0.22
0.16
0.085
0.025
-0.02
-0.06
-0.095
-0.1
-0.115
-0.15
-0.165
-0.21
-0.245
-0.29
-0.34
-0.375
-0.405
-0.43
-0.445
-0.485
-0.51
-0.535
-0.52
-0.515
-0.51
-0.535
-0.55
-0.575
-0.565
-0.56
-0.54
-0.555
-0.585
-0.585
-0.595
-0.585
-0.59
-0.6
-0.61
-0.63
-0.625
-0.605
-0.59
-0.6
-0.6
-0.625
-0.645
-0.64
-0.645
-0.635
-0.66
-0.655
-0.655
-0.655
-0.67
-0.685
-0.705
-0.69
-0.685
-0.69
-0.695
-0.705
-0.73
-0.73
-0.73
-0.735
-0.725
-0.745
-0.765
-0.77
-0.78
-0.765
-0.76
-0.76
-0.76
-0.775
-0.78
-0.77
-0.765
-0.745
-0.76
-0.755
-0.735
-0.7
-0.675
-0.67
-0.665
-0.65
-0.61
-0.57
-0.53
-0.505
-0.495
-0.485
-0.45
-0.41
-0.355
-0.335
-0.33
-0.325
-0.315
-0.28
-0.25
-0.23
-0.23
-0.225
-0.22
-0.205
-0.18
-0.18
-0.195
-0.2
-0.21
-0.195
-0.18
-0.19
-0.2
-0.2
-0.195
-0.18
-0.16
-0.175
-0.205
-0.23
-0.245
-0.22
-0.19
-0.21
-0.22
-0.225
-0.225
-0.23
-0.22
-0.215
-0.225
-0.225
-0.22
-0.22
-0.21
-0.23
-0.24
-0.245
-0.245
-0.21
-0.195
-0.205
-0.22
-0.24
-0.215
-0.22
-0.21
-0.21
-0.215
-0.225
-0.225
-0.215
-0.195
-0.2
-0.215
-0.21
-0.195
-0.175
-0.195
-0.195
-0.215
-0.22
-0.215
-0.205
-0.2
-0.21
-0.22
-0.235
-0.22
-0.21
-0.215
-0.215
-0.21
-0.225
-0.245
-0.225
-0.21
-0.225
-0.24
-0.235
-0.235
-0.23
-0.225
-0.235
-0.255
-0.265
-0.245
-0.215
-0.21
-0.23
-0.25
-0.26
-0.25
-0.23
-0.215
-0.21
-0.205
-0.21
-0.205
-0.185
-0.17
-0.18
-0.19
-0.195
-0.19
-0.16
-0.165
-0.16
-0.17
-0.17
-0.17
-0.15
-0.145
-0.14
-0.165
-0.185
-0.18
-0.18
-0.16
-0.165
-0.165
-0.185
-0.19
-0.185
-0.18
-0.2
-0.23
-0.23
-0.235
-0.225
-0.245
-0.27
-0.28
-0.3
-0.285
-0.255
-0.235
-0.23
-0.24
-0.245
-0.255
-0.28
-0.275
-0.29
-0.3
-0.29
-0.28
-0.27
-0.265
-0.27
-0.28
-0.28
-0.275
-0.26
-0.255
-0.265
-0.26
-0.275
-0.28
-0.265
-0.255
-0.235
-0.205
-0.15
-0.03
0.09
0.205
0.295
0.41
0.53
0.675
0.855
1.035
1.24
1.425
1.62
1.835
1.995
2.095
2.115
2.09
2.005
1.825
1.545
1.165
0.81
0.535
0.37
0.305
0.285
0.28
0.285
0.255
0.23
0.195
0.19
0.17
0.105
0.055
0.015
-0.01
-0.03
-0.065
-0.09
-0.13
-0.19
-0.23
-0.265
-0.285
-0.33
-0.37
-0.38
-0.42
-0.44
-0.44
-0.46
-0.485
-0.495
-0.495
-0.47
-0.465
-0.47
-0.49
-0.5
-0.505
-0.485
-0.48
-0.485
-0.52
-0.515
-0.52
-0.49
-0.5
-0.49
-0.515
-0.54
-0.55
-0.525
-0.52
-0.525
-0.54
-0.56
-0.565
-0.545
-0.545
-0.56
-0.57
-0.575
-0.595
-0.585
-0.595
-0.605
-0.63
-0.64
-0.635
-0.615
-0.61
-0.635
-0.655
-0.675
-0.675
-0.66
-0.645
-0.655
-0.695
-0.72
-0.7
-0.685
-0.66
-0.66
-0.68
-0.705
-0.715
-0.68
-0.66
-0.64
-0.62
-0.61
-0.605
-0.57
-0.55
-0.515
-0.49
-0.47
-0.45
-0.41
-0.385
-0.375
-0.36
-0.365
-0.34
-0.325
-0.31
-0.305
-0.305
-0.29
-0.29
-0.27
-0.25
-0.25
-0.27
-0.285
-0.28
-0.255
-0.24
-0.255
-0.28
-0.29
-0.29
-0.28
-0.27
-0.275
-0.28
-0.28
-0.27
-0.265
-0.265
-0.275
-0.285
-0.3
-0.29
-0.265
-0.255
-0.265
-0.285
-0.31
-0.3
-0.29
-0.255
-0.27
-0.275
-0.28
-0.28
-0.27
-0.27
-0.29
-0.295
-0.3
-0.3
-0.305
-0.285
-0.29
-0.3
-0.29
-0.28
-0.28
-0.275
-0.29
-0.305
-0.315
-0.31
-0.305
-0.265
-0.285
-0.295
-0.315
-0.31
-0.295
-0.275
-0.26
-0.275
-0.285
-0.3
-0.28
-0.29
-0.28
-0.28
-0.3
-0.285
-0.265
-0.255
-0.27
-0.29
-0.31
-0.29
-0.27
-0.255
-0.27
-0.28
-0.295
-0.3
-0.285
-0.27
-0.265
-0.265
-0.285
-0.29
-0.28
-0.265
-0.265
-0.285
-0.275
-0.265
-0.24
-0.22
-0.22
-0.23
-0.225
-0.215
-0.195
-0.18
-0.2
-0.205
-0.205
-0.215
-0.205
-0.18
-0.19
-0.17
-0.175
-0.175
-0.16
-0.15
-0.18
-0.21
-0.21
-0.21
-0.195
-0.175
-0.185
-0.19
-0.2
-0.21
-0.21
-0.205
-0.22
-0.235
-0.24
-0.25
-0.25
-0.26
-0.27
-0.29
-0.29
-0.275
-0.255
-0.23
-0.25
-0.255
-0.275
-0.28
-0.275
-0.265
-0.275
-0.285
-0.28
-0.275
-0.27
-0.265
-0.27
-0.275
-0.275
-0.27
-0.25
-0.225
-0.235
-0.255
-0.285
-0.27
-0.26
-0.23
-0.235
-0.235
-0.19
-0.1
0.025
0.14
0.235
0.325
0.405
0.53
0.665
0.835
1.0
1.15
1.265
1.37
1.52
1.665
1.825
1.955
2.05
2.04
1.985
1.815
1.505
1.14
0.825
0.625
0.505
0.445
0.39
0.345
0.32
0.32
0.315
0.305
0.26
0.22
0.17
0.115
0.095
0.065
0.04
-0.03
-0.07
-0.105
-0.14
-0.175
-0.225
-0.275
-0.31
-0.34
-0.36
-0.375
-0.405
-0.445
-0.47
-0.475
-0.47
-0.44
-0.455
-0.475
-0.495
-0.49
-0.475
-0.475
-0.475
-0.5
-0.515
-0.525
-0.515
-0.51
-0.505
-0.53
-0.535
-0.525
-0.525
-0.5
-0.515
-0.54
-0.555
-0.565
-0.54
-0.515
-0.53
-0.555
-0.565
-0.575
-0.565
-0.565
-0.565
-0.575
-0.615
-0.615
-0.61
-0.605
-0.6
-0.625
-0.63
-0.635
-0.635
-0.625
-0.63
-0.655
-0.68
-0.68
-0.675
-0.675
-0.69
-0.705
-0.72
-0.74
-0.72
-0.705
-0.695
-0.705
-0.715
-0.705
-0.685
-0.665
-0.66
-0.665
-0.64
-0.62
-0.595
-0.57
-0.555
-0.52
-0.505
-0.485
-0.445
-0.42
-0.41
-0.4
-0.425
-0.385
-0.355
-0.33
-0.3
-0.29
-0.31
-0.28
-0.275
-0.24
-0.22
-0.23
-0.245
-0.25
-0.24
-0.23
-0.23
-0.245
-0.24
-0.25
-0.24
-0.215
-0.22
-0.23
-0.25
-0.25
-0.235
-0.215
-0.22
-0.225
-0.255
-0.26
-0.245
-0.23
-0.23
-0.25
-0.255
-0.25
-0.25
-0.255
-0.25
-0.26
-0.265
-0.275
-0.25
-0.245
-0.255
-0.275
-0.28
-0.285
-0.265
-0.25
-0.245
-0.25
-0.275
-0.275
-0.26
-0.255
-0.29
-0.285
-0.285
-0.255
-0.24
-0.215
-0.24
-0.255
-0.265
-0.275
-0.265
-0.255
-0.245
-0.26
-0.285
-0.26
-0.25
-0.25
-0.26
-0.26
-0.265
-0.25
-0.255
-0.235
-0.25
-0.26
-0.275
-0.275
-0.26
-0.24
-0.245
-0.255
-0.265
-0.275
-0.27
-0.265
-0.285
-0.265
-0.26
-0.28
-0.255
-0.245
-0.245
-0.265
-0.265
-0.265
-0.245
-0.24
-0.245
-0.265
-0.275
-0.265
-0.265
-0.225
-0.22
-0.21
-0.21
-0.205
-0.185
-0.185
-0.19
-0.2
-0.21
-0.205
-0.18
-0.175
-0.18
-0.195
-0.195
-0.195
-0.175
-0.14
-0.16
-0.165
-0.185
-0.19
-0.19
-0.175
-0.175
-0.18
-0.185
-0.205
-0.2
-0.185
-0.205
-0.235
-0.235
-0.24
-0.23
-0.235
-0.25
-0.255
-0.27
-0.285
-0.285
-0.265
-0.275
-0.275
-0.295
-0.255
-0.235
-0.245
-0.25
-0.275
-0.285
-0.27
-0.26
-0.245
-0.245
-0.265
-0.285
-0.29
-0.27
-0.265
-0.26
-0.27
-0.27
-0.25
-0.245
-0.24
-0.25
-0.265
-0.27
-0.23
-0.155
-0.045
0.05
0.15
0.24
0.335
0.455
0.585
0.685
0.77
0.885
1.01
1.145
1.285
1.42
1.605
1.795
1.945
2.05
2.095
2.055
1.92
1.685
1.375
1.03
0.75
0.53
0.4
0.325
0.3
0.32
0.34
0.345
0.305
0.26
0.23
0.185
0.145
0.09
0.025
-0.01
-0.045
-0.05
-0.07
-0.115
-0.17
-0.22
-0.255
-0.285
-0.29
-0.315
-0.33
-0.365
-0.38
-0.39
-0.4
-0.43
-0.47
-0.48
-0.48
-0.465
-0.44
-0.455
-0.485
-0.495
-0.49
-0.5
-0.475
-0.49
-0.495
-0.51
-0.515
-0.5
-0.5
-0.515
-0.525
-0.53
-0.535
-0.52
-0.51
-0.52
-0.53
-0.55
-0.56
-0.545
-0.525
-0.545
-0.555
-0.585
-0.59
-0.59
-0.59
-0.605
-0.61
-0.625
-0.62
-0.615
-0.6
-0.64
-0.66
-0.69
-0.685
-0.68
-0.665
-0.68
-0.72
-0.74
-0.74
-0.75
-0.72
-0.735
-0.745
-0.785
-0.78
-0.76
-0.745
-0.735
-0.735
-0.745
-0.735
-0.72
-0.695
-0.695
-0.67
-0.655
-0.635
-0.61
-0.575
-0.565
-0.55
-0.54
-0.515
-0.475
-0.435
-0.405
-0.395
-0.395
-0.365
-0.34
-0.305
-0.28
-0.275
-0.295
-0.285
-0.255
-0.235
-0.22
-0.22
-0.245
-0.235
-0.235
-0.215
-0.225
-0.23
-0.245
-0.24
-0.23
-0.225
-0.235
-0.24
-0.26
-0.245
-0.235
-0.21
-0.24
-0.26
-0.27
-0.265
-0.255
-0.23
-0.235
-0.25
-0.26
-0.27
-0.26
-0.255
-0.245
-0.255
-0.285
-0.275
-0.265
-0.245
-0.25
-0.255
-0.275
-0.28
-0.26
-0.255
-0.25
-0.27
-0.265
-0.27
-0.25
-0.25
-0.26
-0.275
-0.265
-0.27
-0.245
-0.24
-0.245
-0.255
-0.26
-0.275
-0.245
-0.225
-0.22
-0.235
-0.24
-0.25
-0.245
-0.23
-0.23
-0.24
-0.25
-0.255
-0.235
-0.235
-0.245
-0.24
-0.25
-0.255
-0.235
-0.235
-0.225
-0.245
-0.27
-0.24
-0.22
-0.205
-0.215
-0.215
-0.235
-0.23
-0.2
-0.17
-0.16
-0.18
-0.195
-0.185
-0.195
-0.155
-0.155
-0.16
-0.17
-0.165
-0.155
-0.145
-0.15
-0.155
-0.17
-0.17
-0.15
-0.14
-0.155
-0.165
-0.175
-0.18
-0.185
-0.17
-0.195
-0.2
-0.235
-0.255
-0.235
-0.235
-0.22
-0.235
-0.265
-0.265
-0.245
-0.22
-0.23
-0.235
-0.255
-0.26
-0.265
-0.25
-0.25
-0.235
-0.245
-0.25
-0.235
-0.22
-0.23
-0.24
-0.255
-0.245
-0.225
-0.21
-0.225
-0.235
-0.25
-0.235
-0.15
-0.03
0.09
0.185
0.27
0.365
0.475
0.61
0.72
0.845
0.975
1.12
1.27
1.465
1.68
1.89
2.04
2.115
2.09
1.96
1.65
1.205
0.795
0.54
0.425
0.405
0.4
0.39
0.365
0.335
0.305
0.275
0.23
0.155
0.09
0.035
0.005
-0.03
-0.085
-0.135
-0.165
-0.2
-0.245
-0.275
-0.305
-0.35
-0.38
-0.39
-0.395
-0.405
-0.415
-0.435
-0.465
-0.455
-0.445
-0.435
-0.455
-0.47
-0.49
-0.485
-0.465
-0.46
-0.47
-0.475
-0.51
-0.52
-0.51
-0.49
-0.49
-0.505
-0.51
-0.51
-0.5
-0.51
-0.52
-0.525
-0.535
-0.54
-0.535
-0.525
-0.555
-0.57
-0.59
-0.585
-0.58
-0.565
-0.59
-0.605
-0.63
-0.635
-0.63
-0.61
-0.61
-0.635
-0.675
-0.68
-0.67
-0.66
-0.675
-0.685
-0.705
-0.69
-0.69
-0.665
-0.66
-0.67
-0.67
-0.66
-0.62
-0.605
-0.6
-0.595
-0.575
-0.545
-0.5
-0.46
-0.44
-0.42
-0.405
-0.365
-0.325
-0.3
-0.29
-0.305
-0.3
-0.305
-0.26
-0.225
-0.205
-0.22
-0.235
-0.22
-0.205
-0.185
-0.2
-0.21
-0.225
-0.225
-0.215
-0.19
-0.195
-0.22
-0.215
-0.23
-0.225
-0.205
-0.2
-0.215
-0.22
-0.235
-0.235
-0.22
-0.22
-0.23
-0.23
-0.24
-0.225
-0.23
-0.225
-0.235
-0.255
-0.25
-0.23
-0.22
-0.235
-0.26
-0.245
-0.25
-0.245
-0.225
-0.24
-0.255
-0.27
-0.26
-0.25
-0.22
-0.22
-0.235
-0.255
-0.255
-0.23
-0.22
-0.225
-0.245
-0.24
-0.26
-0.24
-0.22
-0.22
-0.22
-0.235
-0.245
-0.24
-0.23
-0.225
-0.23
-0.25
-0.245
-0.23
-0.23
-0.24
-0.245
-0.25
-0.245
-0.255
-0.235
-0.23
-0.245
-0.24
-0.23
-0.225
-0.215
-0.22
-0.245
-0.26
-0.245
-0.225
-0.19
-0.19
-0.195
-0.205
-0.2
-0.18
-0.16
-0.15
-0.175
-0.19
-0.18
-0.165
-0.145
-0.15
-0.145
-0.16
-0.16
-0.165
-0.155
-0.155
-0.155
-0.17
-0.175
-0.19
-0.185
-0.2
-0.21
-0.215
-0.22
-0.215
-0.215
-0.235
-0.25
-0.265
-0.25
-0.235
-0.225
-0.225
-0.25
-0.265
-0.265
-0.265
-0.235
-0.25
-0.265
-0.275
-0.27
-0.24
-0.22
-0.215
-0.23
-0.25
-0.25
-0.235
-0.215
-0.215
-0.23
-0.225
-0.15
-0.04
0.135
0.235
0.3
0.355
0.45
0.535
0.675
0.845
1.05
1.28
1.545
1.79
1.98
2.085
2.06
1.91
1.625
1.245
0.87
0.605
0.455
0.4
0.385
0.37
0.395
0.385
0.36
0.32
0.27
0.225
0.185
0.12
0.07
0.02
-0.035
-0.06
-0.12
-0.17
-0.215
-0.265
-0.3
-0.34
-0.345
-0.36
-0.395
-0.425
-0.425
-0.415
-0.405
-0.425
-0.445
-0.485
-0.465
-0.44
-0.435
-0.445
-0.47
-0.485
-0.505
-0.48
-0.46
-0.46
-0.475
-0.5
-0.51
-0.505
-0.485
-0.49
-0.505
-0.525
-0.535
-0.54
-0.515
-0.545
-0.545
-0.56
-0.55
-0.545
-0.535
-0.56
-0.585
-0.595
-0.595
-0.595
-0.59
-0.615
-0.635
-0.66
-0.66
-0.65
-0.625
-0.645
-0.68
-0.695
-0.7
-0.695
-0.67
-0.665
-0.685
-0.68
-0.675
-0.675
-0.65
-0.65
-0.635
-0.625
-0.605
-0.575
-0.555
-0.54
-0.515
-0.505
-0.47
-0.44
-0.435
-0.4
-0.39
-0.395
-0.34
-0.295
-0.27
-0.255
-0.26
-0.25
-0.235
-0.225
-0.205
-0.195
-0.215
-0.23
-0.225
-0.215
-0.17
-0.185
-0.19
-0.215
-0.215
-0.22
-0.195
-0.19
-0.19
-0.205
-0.225
-0.225
-0.215
-0.215
-0.22
-0.22
-0.23
-0.22
-0.2
-0.21
-0.22
-0.24
-0.24
-0.23
-0.21
-0.21
-0.235
-0.24
-0.24
-0.225
-0.235
-0.23
-0.24
-0.25
-0.25
-0.225
-0.21
-0.2
-0.205
-0.215
-0.215
-0.205
-0.205
-0.19
-0.155
-0.145
-0.1
-0.065
-0.05
-0.03
0.01
0.065
0.105
0.15
0.21
0.26
0.335
0.365
0.39
0.395
0.395
0.355
0.255
0.04
-0.29
-0.715
-1.105
-1.39
-1.61
-1.815
-1.94
-2.045
-2.085
-2.1
-2.115
-2.095
-2.075
-2.065
-2.055
-2.04
-1.995
-1.915
-1.835
-1.75
-1.67
-1.6
-1.545
-1.51
-1.49
-1.445
-1.38
-1.32
-1.28
-1.235
-1.17
-1.09
-1.015
-0.94
-0.885
-0.84
-0.8
-0.755
-0.685
-0.625
-0.54
-0.445
-0.365
-0.265
-0.165
-0.07
0.02
0.085
0.135
0.18
0.205
0.235
0.225
0.24
0.275
0.315
0.31
0.345
0.335
0.335
0.355
0.4
0.45
0.51
0.54
0.555
0.59
0.625
0.685
0.7
0.71
0.725
0.73
0.745
0.785
0.805
0.835
0.86
0.88
0.91
0.95
0.96
0.965
1.0
1.045
1.085
1.1
1.105
1.105
1.11
1.135
1.18
1.225
1.245
1.25
1.255
1.275
1.3
1.325
1.34
1.33
1.325
1.305
1.31
1.34
1.34
1.325
1.285
1.27
1.26
1.22
1.185
1.125
1.1
1.07
1.04
1.015
0.955
0.905
0.85
0.795
0.77
0.75
0.72
0.665
0.605
0.555
0.525
0.49
0.44
0.37
0.34
0.3
0.255
0.22
0.165
0.13
0.095
0.06
0.04
0.025
0.005
-0.03
-0.06
-0.07
-0.065
-0.05
-0.07
-0.09
-0.12
-0.14
-0.135
-0.13
-0.13
-0.135
-0.17
-0.175
-0.18
-0.175
-0.185
-0.2
-0.19
-0.195
-0.175
-0.17
-0.18
-0.195
-0.21
-0.23
-0.22
-0.205
-0.19
-0.205
-0.225
-0.255
-0.25
-0.23
-0.23
-0.235
-0.25
-0.265
-0.25
-0.235
-0.245
-0.25
-0.27
-0.265
-0.255
-0.25
-0.25
-0.265
-0.3
-0.285
-0.27
-0.255
-0.245
-0.265
-0.29
-0.29
-0.285
-0.27
-0.28
-0.295
-0.305
-0.31
-0.295
-0.285
-0.295
-0.3
-0.31
-0.3
-0.295
-0.275
-0.285
-0.3
-0.33
-0.31
-0.295
-0.27
-0.275
-0.285
-0.31
-0.31
-0.31
-0.29
-0.3
-0.31
-0.315
-0.3
-0.305
-0.295
-0.295
-0.31
-0.32
-0.305
-0.295
-0.29
-0.28
-0.305
-0.305
-0.32
-0.305
-0.27
-0.275
-0.295
-0.31
-0.32
-0.315
-0.295
-0.29
-0.31
-0.31
-0.315
-0.305
-0.305
-0.3
-0.31
-0.315
-0.315
-0.305
-0.29
-0.295
-0.305
-0.32
-0.315
-0.3
-0.28
-0.275
-0.285
-0.295
-0.3
-0.295
-0.285
-0.3
-0.305
-0.31
-0.31
-0.29
-0.285
-0.295
-0.305
-0.3
-0.295
-0.285
-0.275
-0.275
-0.295
-0.315
-0.315
-0.295
-0.27
-0.275
-0.295
-0.305
-0.3
-0.295
-0.28
-0.255
-0.285
-0.3
-0.3
-0.28
-0.26
-0.255
-0.26
-0.275
-0.285
-0.275
-0.265
-0.26
-0.27
-0.285
-0.28
-0.27
-0.26
-0.255
-0.275
-0.28
-0.275
-0.27
-0.26
-0.255
-0.27
-0.295
-0.305
-0.275
-0.25
-0.25
-0.26
-0.275
-0.29
-0.27
-0.24
-0.25
-0.255
-0.275
-0.285
-0.27
-0.255
-0.25
-0.255
-0.255
-0.255
-0.245
-0.24
-0.225
-0.23
-0.22
-0.195
-0.19
-0.19
-0.185
-0.2
-0.2
-0.195
-0.175
-0.165
-0.16
-0.165
-0.19
-0.21
-0.205
-0.18
-0.18
-0.2
-0.22
-0.23
-0.23
-0.23
-0.235
-0.26
-0.28
-0.285
-0.26
-0.25
-0.25
-0.255
-0.275
-0.29
-0.28
-0.27
-0.265
-0.275
-0.285
-0.285
-0.285
-0.27
-0.265
-0.265
-0.27
-0.26
-0.255
-0.235
-0.24
-0.255
-0.26
-0.25
-0.24
-0.225
-0.22
-0.225
-0.245
-0.25
-0.185
-0.095
0.045
0.16
0.245
0.345
0.46
0.605
0.75
0.905
1.05
1.22
1.365
1.48
1.575
1.725
1.91
2.095
2.175
2.14
1.945
1.56
1.08
0.69
0.51
0.465
0.47
0.445
0.385
0.33
0.28
0.235
0.2
0.15
0.105
0.085
0.035
0.02
-0.03
-0.105
-0.16
-0.195
-0.23
-0.27
-0.305
-0.34
-0.37
-0.4
-0.4
-0.395
-0.41
-0.445
-0.455
-0.455
-0.455
-0.44
-0.44
-0.445
-0.475
-0.49
-0.485
-0.47
-0.47
-0.465
-0.49
-0.48
-0.47
-0.475
-0.465
-0.485
-0.495
-0.495
-0.485
-0.475
-0.475
-0.485
-0.51
-0.53
-0.53
-0.52
-0.52
-0.51
-0.535
-0.55
-0.555
-0.53
-0.55
-0.55
-0.57
-0.57
-0.575
-0.575
-0.585
-0.605
-0.625
-0.64
-0.61
-0.61
-0.6
-0.635
-0.65
-0.665
-0.665
-0.67
-0.655
-0.665
-0.69
-0.69
-0.69
-0.67
-0.655
-0.66
-0.675
-0.665
-0.64
-0.625
-0.625
-0.62
-0.635
-0.6
-0.57
-0.535
-0.52
-0.515
-0.505
-0.47
-0.46
-0.405
-0.36
-0.345
-0.335
-0.305
-0.285
-0.24
-0.235
-0.215
-0.2
-0.205
-0.18
-0.175
-0.165
-0.165
-0.185
-0.17
-0.135
-0.125
-0.135
-0.155
-0.175
-0.18
-0.16
-0.14
-0.145
-0.15
-0.17
-0.175
-0.18
-0.165
-0.165
-0.175
-0.195
-0.195
-0.18
-0.16
-0.165
-0.185
-0.215
-0.215
-0.2
-0.165
-0.175
-0.2
-0.21
-0.22
-0.21
-0.19
-0.18
-0.195
-0.21
-0.21
-0.205
-0.2
-0.205
-0.2
-0.21
-0.2
-0.225
-0.21
-0.205
-0.2
-0.195
-0.195
-0.19
-0.195
