Lead II
-0.515
-0.505
-0.505
-0.52
-0.52
-0.535
-0.535
-0.525
-0.53
-0.52
-0.5
-0.5
-0.505
-0.505
-0.5
-0.495
-0.505
-0.51
-0.505
-0.505
-0.5
-0.495
-0.485
-0.48
-0.485
-0.495
-0.485
-0.5
-0.51
-0.505
-0.51
-0.51
-0.5
-0.49
-0.485
-0.49
-0.505
-0.5
-0.5
-0.51
-0.51
-0.515
-0.51
-0.505
-0.495
-0.495
-0.485
-0.49
-0.49
-0.495
-0.495
-0.495
-0.51
-0.505
-0.51
-0.515
-0.495
-0.5
-0.5
-0.49
-0.5
-0.49
-0.495
-0.505
-0.49
-0.5
-0.49
-0.49
-0.49
-0.485
-0.48
-0.495
-0.495
-0.495
-0.495
-0.49
-0.495
-0.5
-0.5
-0.495
-0.49
-0.495
-0.475
-0.48
-0.475
-0.48
-0.485
-0.49
-0.5
-0.5
-0.495
-0.505
-0.495
-0.49
-0.485
-0.475
-0.485
-0.47
-0.48
-0.49
-0.495
-0.505
-0.495
-0.495
-0.485
-0.485
-0.475
-0.475
-0.48
-0.475
-0.475
-0.48
-0.485
-0.485
-0.48
-0.48
-0.48
-0.485
-0.475
-0.48
-0.475
-0.48
-0.475
-0.475
-0.485
-0.485
-0.47
-0.465
-0.46
-0.46
-0.455
-0.46
-0.455
-0.45
-0.46
-0.465
-0.455
-0.45
-0.44
-0.43
-0.415
-0.41
-0.38
-0.38
-0.36
-0.35
-0.32
-0.295
-0.275
-0.26
-0.27
-0.26
-0.275
-0.295
-0.305
-0.31
-0.32
-0.33
-0.35
-0.37
-0.4
-0.425
-0.45
-0.47
-0.48
-0.495
-0.49
-0.49
-0.48
-0.485
-0.48
-0.485
-0.49
-0.5
-0.495
-0.5
-0.505
-0.5
-0.495
-0.49
-0.495
-0.495
-0.495
-0.495
-0.51
-0.52
-0.53
-0.525
-0.525
-0.525
-0.535
-0.565
-0.64
-0.69
-0.745
-0.69
-0.545
-0.285
0.09
0.495
0.895
1.205
1.35
1.28
0.955
0.46
-0.065
-0.45
-0.68
-0.74
-0.735
-0.705
-0.71
-0.78
-0.875
-0.995
-1.085
-1.15
-1.2
-1.205
-1.18
-1.175
-1.12
-1.05
-0.97
-0.895
-0.805
-0.725
-0.675
-0.61
-0.595
-0.58
-0.57
-0.56
-0.56
-0.545
-0.535
-0.535
-0.525
-0.53
-0.52
-0.52
-0.505
-0.505
-0.49
-0.51
-0.505
-0.5
-0.495
-0.49
-0.47
-0.46
-0.46
-0.46
-0.46
-0.475
-0.47
-0.49
-0.495
-0.48
-0.47
-0.46
-0.45
-0.44
-0.455
-0.455
-0.46
-0.455
-0.465
-0.46
-0.435
-0.435
-0.42
-0.415
-0.41
-0.41
-0.41
-0.41
-0.415
-0.4
-0.4
-0.4
-0.39
-0.4
-0.38
-0.37
-0.365
-0.34
-0.315
-0.31
-0.305
-0.315
-0.335
-0.34
-0.345
-0.325
-0.325
-0.3
-0.275
-0.26
-0.26
-0.25
-0.25
-0.25
-0.25
-0.26
-0.235
-0.23
-0.205
-0.185
-0.165
-0.145
-0.145
-0.125
-0.135
-0.13
-0.135
-0.125
-0.11
-0.1
-0.085
-0.06
-0.045
-0.025
-0.02
-0.01
-0.005
-0.005
0.005
0.02
0.045
0.05
0.06
0.055
0.06
0.055
0.08
0.095
0.095
0.115
0.125
0.125
0.135
0.125
0.13
0.13
0.125
0.125
0.105
0.095
0.06
0.025
-0.005
-0.015
-0.025
-0.035
-0.045
-0.05
-0.065
-0.08
-0.115
-0.145
-0.18
-0.18
-0.21
-0.24
-0.26
-0.28
-0.29
-0.29
-0.3
-0.305
-0.315
-0.32
-0.35
-0.345
-0.355
-0.375
-0.365
-0.365
-0.36
-0.35
-0.345
-0.355
-0.365
-0.355
-0.36
-0.355
-0.355
-0.355
-0.365
-0.375
-0.36
-0.365
-0.365
-0.35
-0.35
-0.35
-0.36
-0.355
-0.355
-0.365
-0.365
-0.38
-0.38
-0.37
-0.36
-0.36
-0.365
-0.37
-0.385
-0.4
-0.405
-0.41
-0.395
-0.39
-0.375
-0.37
-0.37
-0.365
-0.365
-0.36
-0.365
-0.375
-0.375
-0.365
-0.365
-0.36
-0.35
-0.335
-0.32
-0.305
-0.295
-0.28
-0.275
-0.25
-0.26
-0.27
-0.27
-0.285
-0.29
-0.295
-0.305
-0.305
-0.33
-0.335
-0.36
-0.385
-0.425
-0.445
-0.46
-0.465
-0.455
-0.46
-0.46
-0.46
-0.465
-0.475
-0.48
-0.49
-0.505
-0.51
-0.5
-0.51
-0.5
-0.495
-0.505
-0.51
-0.505
-0.49
-0.51
-0.505
-0.52
-0.52
-0.545
-0.52
-0.51
-0.51
-0.505
-0.5
-0.495
-0.5
-0.51
-0.515
-0.515
-0.53
-0.54
-0.535
-0.525
-0.52
-0.525
-0.52
-0.515
-0.515
-0.535
-0.53
-0.53
-0.54
-0.53
-0.54
-0.525
-0.525
-0.525
-0.52
-0.52
-0.51
-0.525
-0.53
-0.525
-0.535
-0.53
-0.53
-0.53
-0.52
-0.505
-0.51
-0.51
-0.515
-0.51
-0.515
-0.525
-0.535
-0.525
-0.535
-0.52
-0.525
-0.53
-0.51
-0.53
-0.53
-0.535
-0.53
-0.525
-0.55
-0.555
-0.56
-0.545
-0.545
-0.55
-0.545
-0.52
-0.52
-0.525
-0.53
-0.54
-0.54
-0.54
-0.54
-0.53
-0.53
-0.53
-0.52
-0.525
-0.525
-0.525
-0.53
-0.535
-0.55
-0.535
-0.53
-0.545
-0.535
-0.515
-0.51
-0.525
-0.525
-0.54
-0.52
-0.515
-0.53
-0.52
-0.515
-0.525
-0.525
-0.51
-0.495
-0.5
-0.505
-0.505
-0.515
-0.52
-0.52
-0.53
-0.52
-0.52
-0.515
-0.505
-0.505
-0.5
-0.505
-0.51
-0.515
-0.52
-0.525
-0.52
-0.525
-0.525
-0.515
-0.505
-0.505
-0.505
-0.5
-0.51
-0.51
-0.525
-0.53
-0.54
-0.54
-0.52
-0.505
-0.49
-0.485
-0.485
-0.495
-0.505
-0.51
-0.505
-0.51
-0.51
-0.515
-0.52
-0.52
-0.505
-0.5
-0.485
-0.49
-0.495
-0.505
-0.5
-0.5
-0.505
-0.5
-0.495
-0.485
-0.49
-0.48
-0.475
-0.485
-0.48
-0.495
-0.49
-0.505
-0.51
-0.495
-0.495
-0.485
-0.48
-0.475
-0.475
-0.475
-0.48
-0.495
-0.5
-0.495
-0.5
-0.495
-0.485
-0.49
-0.48
-0.46
-0.475
-0.47
-0.48
-0.475
-0.475
-0.49
-0.49
-0.485
-0.485
-0.475
-0.465
-0.465
-0.46
-0.46
-0.465
-0.465
-0.475
-0.485
-0.485
-0.475
-0.48
-0.48
-0.465
-0.45
-0.45
-0.445
-0.465
-0.465
-0.47
-0.475
-0.475
-0.47
-0.47
-0.455
-0.45
-0.45
-0.445
-0.455
-0.46
-0.46
-0.47
-0.475
-0.475
-0.475
-0.47
-0.46
-0.455
-0.45
-0.45
-0.45
-0.465
-0.46
-0.465
-0.475
-0.46
-0.47
-0.455
-0.455
-0.445
-0.45
-0.445
-0.425
-0.425
-0.435
-0.425
-0.435
-0.415
-0.41
-0.395
-0.385
-0.365
-0.365
-0.35
-0.345
-0.335
-0.315
-0.3
-0.3
-0.265
-0.265
-0.26
-0.27
-0.28
-0.28
-0.3
-0.31
-0.32
-0.34
-0.355
-0.37
-0.39
-0.405
-0.425
-0.425
-0.43
-0.435
-0.445
-0.455
-0.47
-0.465
-0.48
-0.49
-0.485
-0.48
-0.48
-0.475
-0.475
-0.475
-0.475
-0.475
-0.48
-0.485
-0.5
-0.495
-0.5
-0.505
-0.49
-0.485
-0.475
-0.485
-0.485
-0.495
-0.55
-0.59
-0.655
-0.75
-0.775
-0.74
-0.6
-0.335
0.01
0.415
0.815
1.15
1.35
1.345
1.075
0.63
0.125
-0.295
-0.535
-0.635
-0.65
-0.655
-0.68
-0.75
-0.875
-1.01
-1.13
-1.205
-1.245
-1.26
-1.22
-1.175
-1.09
-1.015
-0.935
-0.85
-0.775
-0.71
-0.66
-0.625
-0.59
-0.58
-0.56
-0.55
-0.54
-0.525
-0.525
-0.53
-0.535
-0.525
-0.53
-0.525
-0.52
-0.515
-0.505
-0.5
-0.49
-0.485
-0.485
-0.485
-0.5
-0.5
-0.485
-0.48
-0.48
-0.48
-0.47
-0.475
-0.465
-0.44
-0.455
-0.46
-0.46
-0.46
-0.46
-0.47
-0.47
-0.47
-0.455
-0.44
-0.42
-0.415
-0.41
-0.41
-0.405
-0.42
-0.41
-0.42
-0.395
-0.395
-0.395
-0.375
-0.365
-0.355
-0.345
-0.34
-0.345
-0.34
-0.345
-0.345
-0.335
-0.325
-0.305
-0.295
-0.285
-0.285
-0.265
-0.25
-0.245
-0.255
-0.25
-0.25
-0.23
-0.205
-0.19
-0.175
-0.165
-0.155
-0.135
-0.11
-0.105
-0.09
-0.085
-0.085
-0.07
-0.06
-0.035
-0.03
-0.01
0.0
0.015
0.02
0.02
0.02
0.03
0.025
0.025
0.04
0.06
0.065
0.085
0.095
0.085
0.11
0.095
0.09
0.075
0.08
0.06
0.065
0.055
0.055
0.045
0.04
0.015
-0.025
-0.035
-0.05
-0.075
-0.105
-0.125
-0.135
-0.155
-0.185
-0.2
-0.215
-0.23
-0.235
-0.265
-0.285
-0.31
-0.32
-0.33
-0.335
-0.34
-0.345
-0.355
-0.35
-0.35
-0.355
-0.365
-0.375
-0.39
-0.395
-0.41
-0.405
-0.405
-0.405
-0.395
-0.385
-0.37
-0.365
-0.38
-0.395
-0.37
-0.375
-0.37
-0.37
-0.355
-0.365
-0.365
-0.365
-0.36
-0.365
-0.36
-0.36
-0.36
-0.36
-0.36
-0.355
-0.355
-0.365
-0.37
-0.355
-0.36
-0.36
-0.35
-0.36
-0.395
-0.4
-0.395
-0.39
-0.39
-0.375
-0.36
-0.355
-0.355
-0.37
-0.375
-0.38
-0.38
-0.38
-0.38
-0.365
-0.355
-0.355
-0.34
-0.335
-0.335
-0.33
-0.33
-0.315
-0.31
-0.3
-0.285
-0.265
-0.245
-0.24
-0.22
-0.235
-0.25
-0.235
-0.255
-0.27
-0.3
-0.315
-0.31
-0.33
-0.345
-0.36
-0.375
-0.395
-0.41
-0.42
-0.43
-0.43
-0.445
-0.455
-0.46
-0.465
-0.47
-0.465
-0.46
-0.465
-0.465
-0.46
-0.47
-0.485
-0.495
-0.505
-0.495
-0.505
-0.5
-0.51
-0.48
-0.465
-0.465
-0.455
-0.455
-0.465
-0.465
-0.49
-0.485
-0.485
-0.485
-0.48
-0.48
-0.475
-0.475
-0.47
-0.48
-0.495
-0.5
-0.505
-0.51
-0.505
-0.485
-0.47
-0.46
-0.455
-0.45
-0.455
-0.465
-0.47
-0.49
-0.5
-0.49
-0.485
-0.49
-0.48
-0.46
-0.46
-0.465
-0.475
-0.465
-0.465
-0.465
-0.475
-0.485
-0.48
-0.475
-0.48
-0.475
-0.485
-0.475
-0.48
-0.475
-0.48
-0.49
-0.485
-0.47
-0.46
-0.46
-0.475
-0.47
-0.465
-0.47
-0.46
-0.465
-0.455
-0.48
-0.475
-0.47
-0.475
-0.47
-0.46
-0.45
-0.435
-0.445
-0.445
-0.46
-0.465
-0.475
-0.48
-0.485
-0.48
-0.46
-0.445
-0.44
-0.44
-0.44
-0.445
-0.44
-0.435
-0.45
-0.46
-0.46
-0.46
-0.455
-0.445
-0.45
-0.44
-0.435
-0.43
-0.425
-0.415
-0.42
-0.415
-0.415
-0.415
-0.42
-0.43
-0.41
-0.425
-0.415
-0.415
-0.41
-0.415
-0.425
-0.435
-0.44
-0.435
-0.415
-0.395
-0.38
-0.37
-0.375
-0.39
-0.395
-0.41
-0.42
-0.405
-0.405
-0.405
-0.4
-0.4
-0.395
-0.385
-0.385
-0.385
-0.395
-0.405
-0.41
-0.425
-0.42
-0.41
-0.41
-0.405
-0.395
-0.395
-0.395
-0.385
-0.39
-0.395
-0.405
-0.415
-0.42
-0.42
-0.405
-0.4
-0.375
-0.37
-0.37
-0.38
-0.4
-0.41
-0.415
-0.41
-0.415
-0.415
-0.405
-0.4
-0.39
-0.385
-0.39
-0.39
-0.39
-0.4
-0.405
-0.415
-0.42
-0.405
-0.395
-0.395
-0.385
-0.385
-0.385
-0.37
-0.375
-0.395
-0.4
-0.395
-0.385
-0.395
-0.39
-0.385
-0.375
-0.37
-0.365
-0.355
-0.36
-0.375
-0.385
-0.385
-0.385
-0.395
-0.39
-0.385
-0.38
-0.36
-0.365
-0.37
-0.365
-0.375
-0.38
-0.38
-0.38
-0.385
-0.38
-0.385
-0.38
-0.375
-0.385
-0.385
-0.38
-0.4
-0.39
-0.405
-0.41
-0.415
-0.395
-0.385
-0.375
-0.37
-0.37
-0.37
-0.375
-0.38
-0.375
-0.38
-0.375
-0.365
-0.355
-0.35
-0.33
-0.33
-0.32
-0.305
-0.295
-0.295
-0.3
-0.3
-0.28
-0.27
-0.235
-0.215
-0.19
-0.175
-0.165
-0.19
-0.21
-0.21
-0.215
-0.23
-0.24
-0.245
-0.255
-0.27
-0.28
-0.285
-0.305
-0.325
-0.35
-0.38
-0.39
-0.385
-0.39
-0.395
-0.395
-0.4
-0.385
-0.38
-0.39
-0.395
-0.405
-0.385
-0.4
-0.415
-0.4
-0.405
-0.405
-0.39
-0.39
-0.375
-0.375
-0.39
-0.395
-0.4
-0.405
-0.41
-0.43
-0.46
-0.495
-0.56
-0.62
-0.65
-0.62
-0.465
-0.235
0.085
0.475
0.86
1.175
1.385
1.38
1.135
0.7
0.195
-0.225
-0.485
-0.575
-0.59
-0.585
-0.61
-0.665
-0.78
-0.885
-1.0
-1.09
-1.12
-1.14
-1.135
-1.095
-1.045
-0.975
-0.9
-0.81
-0.73
-0.655
-0.595
-0.54
-0.515
-0.49
-0.47
-0.46
-0.465
-0.47
-0.465
-0.465
-0.45
-0.445
-0.43
-0.42
-0.42
-0.415
-0.405
-0.405
-0.41
-0.42
-0.425
-0.425
-0.41
-0.41
-0.39
-0.395
-0.38
-0.395
-0.385
-0.385
-0.38
-0.375
-0.385
-0.385
-0.38
-0.38
-0.355
-0.36
-0.345
-0.34
-0.34
-0.345
-0.355
-0.365
-0.36
-0.355
-0.345
-0.35
-0.34
-0.33
-0.315
-0.31
-0.305
-0.315
-0.305
-0.31
-0.3
-0.31
-0.295
-0.29
-0.275
-0.25
-0.24
-0.245
-0.235
-0.235
-0.24
-0.235
-0.23
-0.225
-0.215
-0.205
-0.2
-0.185
-0.175
-0.155
-0.15
-0.15
-0.135
-0.155
-0.14
-0.125
-0.12
-0.1
-0.08
-0.065
-0.045
-0.035
-0.025
-0.02
-0.015
0.0
-0.005
0.02
0.015
0.05
0.05
0.07
0.065
0.085
0.1
0.09
0.095
0.105
0.105
0.12
0.12
0.135
0.14
0.165
0.185
0.18
0.195
0.19
0.185
0.175
0.18
0.175
0.175
0.17
0.165
0.17
0.17
0.16
0.135
0.115
0.09
0.075
0.045
0.03
0.005
0.0
-0.01
-0.02
-0.03
-0.055
-0.085
-0.105
-0.12
-0.15
-0.16
-0.185
-0.2
-0.21
-0.22
-0.235
-0.23
-0.24
-0.245
-0.27
-0.275
-0.295
-0.315
-0.305
-0.31
-0.3
-0.3
-0.305
-0.295
-0.305
-0.3
-0.315
-0.315
-0.305
-0.32
-0.32
-0.32
-0.315
-0.31
-0.305
-0.295
-0.29
-0.275
-0.27
-0.275
-0.285
-0.275
-0.285
-0.28
-0.275
-0.27
-0.25
-0.25
-0.25
-0.25
-0.26
-0.275
-0.275
-0.28
-0.3
-0.29
-0.28
-0.27
-0.275
-0.27
-0.28
-0.275
-0.28
-0.29
-0.29
-0.29
-0.31
-0.305
-0.285
-0.28
-0.275
-0.26
-0.26
-0.26
-0.26
-0.265
-0.265
-0.275
-0.27
-0.27
-0.25
-0.235
-0.215
-0.185
-0.175
-0.165
-0.155
-0.17
-0.18
-0.2
-0.21
-0.22
-0.235
-0.235
-0.245
-0.245
-0.27
-0.3
-0.315
-0.35
-0.38
-0.39
-0.41
-0.41
-0.41
-0.4
-0.405
-0.39
-0.395
-0.405
-0.415
-0.425
-0.43
-0.435
-0.435
-0.44
-0.445
-0.435
-0.43
-0.42
-0.425
-0.435
-0.43
-0.43
-0.44
-0.445
-0.44
-0.45
-0.46
-0.445
-0.435
-0.425
-0.43
-0.43
-0.43
-0.43
-0.44
-0.46
-0.455
-0.44
-0.45
-0.44
-0.435
-0.43
-0.435
-0.425
-0.44
-0.435
-0.44
-0.455
-0.45
-0.45
-0.47
-0.45
-0.44
-0.43
-0.435
-0.435
-0.445
-0.445
-0.445
-0.45
-0.455
-0.455
-0.45
-0.435
-0.435
-0.435
-0.42
-0.43
-0.435
-0.435
-0.435
-0.455
-0.45
-0.455
-0.45
-0.445
-0.435
-0.425
-0.425
-0.415
-0.425
-0.425
-0.435
-0.455
-0.445
-0.455
-0.455
-0.435
-0.435
-0.42
-0.42
-0.42
-0.42
-0.425
-0.43
-0.43
-0.44
-0.45
-0.45
-0.43
-0.42
-0.42
-0.43
-0.415
-0.415
-0.43
-0.435
-0.45
-0.43
-0.42
-0.405
-0.41
-0.405
-0.395
-0.4
-0.4
-0.405
-0.405
-0.415
-0.415
-0.415
-0.41
-0.41
-0.4
-0.395
-0.39
-0.395
-0.39
-0.39
-0.39
-0.395
-0.4
-0.4
-0.405
-0.395
-0.38
-0.38
-0.37
-0.375
-0.375
-0.38
-0.375
-0.385
-0.395
-0.395
-0.38
-0.375
-0.38
-0.38
-0.375
-0.375
-0.37
-0.375
-0.375
-0.38
-0.4
-0.395
-0.395
-0.39
-0.385
-0.375
-0.38
-0.38
-0.375
-0.37
-0.375
-0.38
-0.385
-0.38
-0.385
-0.38
-0.375
-0.375
-0.37
-0.37
-0.37
-0.375
-0.375
-0.39
-0.395
-0.39
-0.39
-0.38
-0.38
-0.38
-0.365
-0.385
-0.38
-0.39
-0.4
-0.39
-0.4
-0.4
-0.4
-0.385
-0.38
-0.38
-0.365
-0.365
-0.375
-0.37
-0.38
-0.375
-0.395
-0.395
-0.395
-0.39
-0.37
-0.37
-0.37
-0.365
-0.365
-0.365
-0.365
-0.38
-0.38
-0.375
-0.375
-0.36
-0.36
-0.355
-0.345
-0.34
-0.35
-0.345
-0.35
-0.355
-0.36
-0.365
-0.35
-0.345
-0.35
-0.34
-0.34
-0.335
-0.345
-0.345
-0.345
-0.355
-0.35
-0.365
-0.36
-0.355
-0.335
-0.33
-0.33
-0.325
-0.325
-0.325
-0.335
-0.33
-0.345
-0.34
-0.335
-0.33
-0.32
-0.31
-0.3
-0.285
-0.28
-0.285
-0.275
-0.275
-0.28
-0.27
-0.26
-0.24
-0.23
-0.205
-0.165
-0.14
-0.125
-0.13
-0.145
-0.155
-0.175
-0.19
-0.2
-0.205
-0.215
-0.23
-0.235
-0.255
-0.265
-0.295
-0.32
-0.34
-0.355
-0.36
-0.36
-0.35
-0.35
-0.34
-0.34
-0.345
-0.35
-0.36
-0.36
-0.37
-0.385
-0.375
-0.375
-0.365
-0.36
-0.36
-0.355
-0.355
-0.355
-0.36
-0.365
-0.39
-0.42
-0.49
-0.55
-0.615
-0.625
-0.565
-0.37
-0.095
0.265
0.665
1.045
1.335
1.48
1.44
1.14
0.7
0.215
-0.18
-0.395
-0.48
-0.49
-0.495
-0.52
-0.6
-0.74
-0.87
-1.005
-1.075
-1.11
-1.115
-1.075
-1.01
-0.93
-0.835
-0.75
-0.67
-0.6
-0.535
-0.5
-0.47
-0.465
-0.43
-0.44
-0.44
-0.42
-0.425
-0.425
-0.42
-0.415
-0.425
-0.42
-0.41
-0.395
-0.385
-0.385
-0.38
-0.385
-0.38
-0.375
-0.375
-0.385
-0.38
-0.375
-0.365
-0.365
-0.355
-0.35
-0.355
-0.35
-0.355
-0.345
-0.345
-0.35
-0.35
-0.335
-0.345
-0.33
-0.33
-0.34
-0.335
-0.32
-0.325
-0.33
-0.34
-0.34
-0.34
-0.335
-0.32
-0.305
-0.28
-0.26
-0.26
-0.26
-0.26
-0.255
-0.265
-0.265
-0.26
-0.255
-0.25
-0.23
-0.205
-0.185
-0.195
-0.205
-0.22
-0.225
-0.21
-0.205
-0.19
-0.17
-0.145
-0.125
-0.095
-0.08
-0.07
-0.05
-0.05
-0.04
-0.035
-0.04
-0.03
-0.015
0.0
0.02
0.045
0.06
0.06
0.085
0.1
0.11
0.13
0.145
0.15
0.16
0.185
0.19
0.205
0.225
0.225
0.23
0.23
0.24
0.245
0.235
0.26
0.27
0.27
0.27
0.27
0.27
0.255
0.24
0.215
0.22
0.2
0.19
0.18
0.16
0.15
0.135
0.115
0.11
0.095
0.085
0.055
0.015
-0.02
-0.05
-0.075
-0.1
-0.12
-0.135
-0.14
-0.145
-0.18
-0.2
-0.2
-0.23
-0.24
-0.25
-0.25
-0.255
-0.26
-0.26
-0.27
-0.27
-0.265
-0.27
-0.29
-0.295
-0.305
-0.32
-0.315
-0.315
-0.315
-0.3
-0.3
-0.295
-0.3
-0.305
-0.295
-0.305
-0.31
-0.295
-0.29
-0.28
-0.27
-0.27
-0.26
-0.265
-0.27
-0.265
-0.275
-0.28
-0.28
-0.285
-0.29
-0.28
-0.285
-0.28
-0.285
-0.285
-0.28
-0.285
-0.275
-0.28
-0.285
-0.265
-0.275
-0.275
-0.27
-0.27
-0.255
-0.24
-0.23
-0.22
-0.22
-0.22
-0.225
-0.235
-0.23
-0.235
-0.22
-0.2
-0.19
-0.155
-0.135
-0.12
-0.12
-0.125
-0.125
-0.14
-0.16
-0.155
-0.16
-0.18
-0.195
-0.21
-0.23
-0.25
-0.265
-0.29
-0.31
-0.34
-0.365
-0.36
-0.375
-0.365
-0.35
-0.34
-0.335
-0.345
-0.355
-0.37
-0.38
-0.405
-0.4
-0.39
-0.39
-0.39
-0.385
-0.385
-0.385
-0.385
-0.395
-0.41
-0.41
-0.425
-0.42
-0.4
-0.4
-0.39
-0.375
-0.365
-0.375
-0.38
-0.385
-0.395
-0.42
-0.415
-0.41
-0.4
-0.4
-0.395
-0.385
-0.375
-0.385
-0.39
-0.395
-0.405
-0.405
-0.41
-0.405
-0.4
-0.39
-0.385
-0.39
-0.37
-0.365
-0.36
-0.37
-0.37
-0.38
-0.4
-0.405
-0.41
-0.415
-0.41
-0.395
-0.385
-0.37
-0.385
-0.38
-0.395
-0.395
-0.395
-0.385
-0.39
-0.37
-0.37
-0.375
-0.37
-0.385
-0.375
-0.38
-0.38
-0.38
-0.39
-0.39
-0.375
-0.38
-0.375
-0.365
-0.36
-0.37
-0.355
-0.36
-0.37
-0.375
-0.395
-0.405
-0.395
-0.39
-0.385
-0.38
-0.37
-0.375
-0.37
-0.375
-0.365
-0.38
-0.385
-0.39
-0.385
-0.38
-0.38
-0.365
-0.355
-0.355
-0.345
-0.35
-0.36
-0.38
-0.36
-0.38
-0.365
-0.365
-0.365
-0.345
-0.345
-0.345
-0.35
-0.35
-0.36
-0.365
-0.37
-0.355
-0.37
-0.365
-0.355
-0.355
-0.345
-0.355
-0.355
-0.375
-0.365
-0.36
-0.365
-0.365
-0.365
-0.36
-0.35
-0.35
-0.34
-0.345
-0.335
-0.345
-0.345
-0.35
-0.36
-0.36
-0.355
-0.36
-0.365
-0.345
-0.34
-0.34
-0.335
-0.35
-0.36
-0.36
-0.365
-0.365
-0.36
-0.35
-0.345
-0.34
-0.335
-0.35
-0.355
-0.355
-0.36
-0.365
-0.36
-0.38
-0.365
-0.355
-0.35
-0.35
-0.35
-0.335
-0.335
-0.325
-0.34
-0.34
-0.345
-0.35
-0.35
-0.335
-0.34
-0.34
-0.33
-0.325
-0.325
-0.33
-0.335
-0.34
-0.35
-0.35
-0.355
-0.345
-0.34
-0.34
-0.35
-0.35
-0.335
-0.335
-0.325
-0.33
-0.34
-0.34
-0.335
-0.335
-0.33
-0.33
-0.325
-0.325
-0.32
-0.33
-0.345
-0.35
-0.36
-0.36
-0.345
-0.335
-0.335
-0.325
-0.315
-0.33
-0.335
-0.325
-0.33
-0.34
-0.35
-0.345
-0.345
-0.33
-0.32
-0.32
-0.32
-0.325
-0.32
-0.335
-0.315
-0.32
-0.33
-0.34
-0.335
-0.33
-0.325
-0.325
-0.31
-0.31
-0.31
-0.31
-0.31
-0.31
-0.325
-0.315
-0.315
-0.305
-0.295
-0.285
-0.265
-0.25
-0.25
-0.25
-0.245
-0.245
-0.26
-0.245
-0.225
-0.22
-0.205
-0.185
-0.155
-0.125
-0.115
-0.1
-0.1
-0.12
-0.145
-0.135
-0.155
-0.17
-0.16
-0.17
-0.16
-0.165
-0.185
-0.21
-0.225
-0.25
-0.275
-0.29
-0.3
-0.315
-0.31
-0.305
-0.31
-0.3
-0.325
-0.33
-0.32
-0.335
-0.345
-0.35
-0.345
-0.35
-0.335
-0.335
-0.325
-0.33
-0.33
-0.335
-0.34
-0.34
-0.345
-0.355
-0.35
-0.35
-0.365
-0.38
-0.42
-0.48
-0.56
-0.58
-0.565
-0.41
-0.15
0.225
0.63
1.05
1.36
1.49
1.375
1.02
0.52
0.045
-0.29
-0.47
-0.52
-0.525
-0.555
-0.62
-0.705
-0.835
-0.96
-1.035
-1.085
-1.075
-1.065
-1.01
-0.955
-0.855
-0.78
-0.685
-0.605
-0.545
-0.485
-0.465
-0.435
-0.445
-0.42
-0.42
-0.43
-0.415
-0.405
-0.4
-0.39
-0.38
-0.37
-0.37
-0.365
-0.36
-0.365
-0.365
-0.37
-0.365
-0.365
-0.36
-0.355
-0.355
-0.345
-0.345
-0.355
-0.36
-0.36
-0.35
-0.36
-0.35
-0.35
-0.35
-0.335
-0.33
-0.32
-0.315
-0.315
-0.31
-0.32
-0.31
-0.315
-0.31
-0.31
-0.305
-0.295
-0.285
-0.275
-0.285
-0.28
-0.27
-0.275
-0.27
-0.275
-0.27
-0.255
-0.24
-0.235
-0.225
-0.215
-0.2
-0.195
-0.185
-0.19
-0.19
-0.19
-0.185
-0.185
-0.175
-0.16
-0.16
-0.13
-0.135
-0.125
-0.11
-0.12
-0.115
-0.11
-0.1
-0.08
-0.07
-0.06
-0.04
-0.025
-0.01
-0.005
0.005
0.02
0.035
0.04
0.05
0.07
0.085
0.11
0.11
0.13
0.135
0.135
0.15
0.155
0.175
0.175
0.185
0.19
0.195
0.21
0.22
0.22
0.235
0.25
0.25
0.25
0.255
0.25
0.255
0.25
0.245
0.265
0.25
0.255
0.235
0.225
0.215
0.195
0.18
0.15
0.145
0.13
0.125
0.12
0.085
0.075
0.05
0.015
0.005
-0.025
-0.04
-0.07
-0.09
-0.11
-0.13
-0.13
-0.145
-0.17
-0.175
-0.185
-0.185
-0.215
-0.22
-0.23
-0.245
-0.25
-0.25
-0.25
-0.25
-0.26
-0.26
-0.27
-0.265
-0.27
-0.27
-0.275
-0.28
-0.285
-0.29
-0.28
-0.265
-0.27
-0.26
-0.255
-0.255
-0.26
-0.265
-0.27
-0.26
-0.26
-0.26
-0.25
-0.235
-0.225
-0.225
-0.235
-0.23
-0.24
-0.24
-0.24
-0.24
-0.24
-0.245
-0.24
-0.23
-0.225
-0.225
-0.22
-0.235
-0.26
-0.255
-0.26
-0.26
-0.27
-0.26
-0.25
-0.26
-0.255
-0.255
-0.255
-0.24
-0.24
-0.245
-0.24
-0.245
-0.225
-0.23
-0.21
-0.2
-0.2
-0.19
-0.185
-0.18
-0.175
-0.16
-0.15
-0.125
-0.115
-0.11
-0.115
-0.125
-0.125
-0.135
-0.145
-0.16
-0.18
-0.2
-0.205
-0.235
-0.25
-0.255
-0.28
-0.28
-0.3
-0.31
-0.32
-0.325
-0.335
-0.355
-0.36
-0.355
-0.345
-0.35
-0.34
-0.35
-0.35
-0.345
-0.35
-0.355
-0.365
-0.37
-0.375
-0.385
-0.385
-0.38
-0.375
-0.365
-0.35
-0.36
-0.36
-0.365
-0.365
-0.37
-0.37
-0.385
-0.39
-0.38
-0.38
-0.38
-0.36
-0.365
-0.365
-0.375
-0.38
-0.37
-0.38
-0.37
-0.39
-0.375
-0.365
-0.355
-0.35
-0.36
-0.355
-0.36
-0.37
-0.37
-0.38
-0.38
-0.385
-0.37
-0.37
-0.365
-0.35
-0.37
-0.355
-0.36
-0.36
-0.36
-0.38
-0.37
-0.38
-0.375
-0.375
-0.36
-0.355
-0.355
-0.36
-0.36
-0.37
-0.365
-0.38
-0.385
-0.385
-0.39
-0.385
-0.37
-0.365
-0.37
-0.355
-0.36
-0.365
-0.375
-0.375
-0.37
-0.38
-0.365
-0.365
-0.37
-0.375
-0.36
-0.365
-0.365
-0.37
-0.38
-0.38
-0.375
-0.365
-0.36
-0.355
-0.355
-0.345
-0.35
-0.355
-0.35
-0.35
-0.36
-0.36
-0.375
-0.37
-0.37
-0.36
-0.345
-0.335
-0.335
-0.33
-0.335
-0.35
-0.365
-0.35
-0.355
-0.35
-0.35
-0.325
-0.325
-0.325
-0.315
-0.33
-0.325
-0.335
-0.345
-0.35
-0.345
-0.335
-0.34
-0.345
-0.335
-0.33
-0.305
-0.31
-0.31
-0.31
-0.32
-0.31
-0.31
-0.31
-0.315
-0.31
-0.31
-0.31
-0.315
-0.315
-0.31
-0.305
-0.3
-0.305
-0.3
-0.315
-0.32
-0.315
-0.3
-0.315
-0.31
-0.29
-0.285
-0.29
-0.305
-0.31
-0.31
-0.315
-0.32
-0.3
-0.3
-0.29
-0.3
-0.3
-0.29
-0.31
-0.305
-0.315
-0.305
-0.3
-0.3
-0.295
-0.285
-0.275
-0.295
-0.305
-0.3
-0.305
-0.3
-0.3
-0.31
-0.3
-0.3
-0.28
-0.275
-0.265
-0.26
-0.285
-0.275
-0.29
-0.29
-0.3
-0.305
-0.29
-0.29
-0.285
-0.285
-0.295
-0.29
-0.275
-0.275
-0.27
-0.275
-0.265
-0.27
-0.28
-0.285
-0.285
-0.275
-0.275
-0.255
-0.255
-0.25
-0.265
-0.25
-0.27
-0.285
-0.28
-0.285
-0.27
-0.265
-0.255
-0.25
-0.24
-0.24
-0.25
-0.245
-0.255
-0.265
-0.275
-0.275
-0.27
-0.265
-0.27
-0.255
-0.24
-0.23
-0.23
-0.245
-0.255
-0.265
-0.27
-0.275
-0.27
-0.26
-0.25
-0.245
-0.255
-0.24
-0.245
-0.23
-0.23
-0.225
-0.225
-0.205
-0.19
-0.185
-0.165
-0.165
-0.165
-0.16
-0.155
-0.135
-0.135
-0.105
-0.07
-0.045
-0.03
-0.035
-0.02
-0.055
-0.07
-0.08
-0.095
-0.095
-0.135
-0.145
-0.16
-0.175
-0.19
-0.21
-0.23
-0.23
-0.235
-0.24
-0.25
-0.25
-0.255
-0.27
-0.265
-0.275
-0.265
-0.255
-0.25
-0.25
-0.245
-0.245
-0.26
-0.27
-0.28
-0.28
-0.27
-0.275
-0.255
-0.26
-0.25
-0.275
-0.3
-0.37
-0.43
-0.49
-0.485
-0.395
-0.155
0.19
0.6
1.035
1.385
1.57
1.51
1.175
0.66
0.115
-0.275
-0.485
-0.57
-0.545
-0.535
-0.56
-0.615
-0.71
-0.825
-0.92
-0.98
-1.02
-1.01
-0.975
-0.92
-0.835
-0.755
-0.65
-0.56
-0.485
-0.42
-0.375
-0.35
-0.34
-0.325
-0.325
-0.32
-0.32
-0.305
-0.31
-0.285
-0.27
-0.27
-0.265
-0.265
-0.275
-0.27
-0.27
-0.27
-0.27
-0.255
-0.255
-0.235
-0.24
-0.235
-0.24
-0.235
-0.25
-0.245
-0.255
-0.25
-0.245
-0.24
-0.23
-0.225
-0.21
-0.22
-0.205
-0.21
-0.22
-0.225
-0.23
-0.215
-0.22
-0.2
-0.19
-0.175
-0.175
-0.18
-0.18
-0.18
-0.18
-0.185
-0.175
-0.175
-0.155
-0.145
-0.135
-0.12
-0.11
-0.11
-0.105
-0.1
-0.1
-0.095
-0.085
-0.085
-0.07
-0.065
-0.04
-0.04
-0.02
-0.015
-0.015
-0.01
-0.01
0.01
0.01
0.03
0.045
0.05
0.06
0.085
0.09
0.105
0.12
0.135
0.135
0.145
0.16
0.175
0.195
0.205
0.24
0.26
0.265
0.275
0.29
0.295
0.3
0.305
0.31
0.31
0.325
0.34
0.35
0.355
0.37
0.375
0.38
0.38
0.37
0.37
0.365
0.365
0.37
0.36
0.355
0.345
0.335
0.305
0.295
0.27
0.25
0.225
0.185
0.16
0.135
0.125
0.115
0.095
0.085
0.065
0.03
0.02
-0.01
-0.03
-0.065
-0.08
-0.09
-0.1
-0.105
-0.105
-0.125
-0.135
-0.15
-0.16
-0.17
-0.18
-0.185
-0.195
-0.2
-0.195
-0.195
-0.19
-0.19
-0.2
-0.195
-0.195
-0.195
-0.2
-0.195
-0.2
-0.19
-0.185
-0.175
-0.16
-0.17
-0.165
-0.165
-0.165
-0.175
-0.18
-0.175
-0.175
-0.17
-0.16
-0.155
-0.15
-0.145
-0.135
-0.155
-0.16
-0.17
-0.175
-0.175
-0.17
-0.175
-0.175
-0.16
-0.16
-0.155
-0.155
-0.165
-0.18
-0.19
-0.195
-0.205
-0.2
-0.205
-0.19
-0.19
-0.18
-0.17
-0.165
-0.145
-0.14
-0.145
-0.15
-0.16
-0.15
-0.14
-0.13
-0.115
-0.105
-0.085
-0.06
-0.055
-0.04
-0.05
-0.06
-0.07
-0.08
-0.09
-0.09
-0.1
-0.095
-0.11
-0.12
-0.135
-0.15
-0.185
-0.22
-0.24
-0.25
-0.265
-0.275
-0.28
-0.285
-0.285
-0.285
-0.29
-0.3
-0.305
-0.305
-0.33
-0.315
-0.325
-0.32
-0.32
-0.305
-0.315
-0.335
-0.325
-0.32
-0.325
-0.33
-0.34
-0.335
-0.33
-0.335
-0.32
-0.31
-0.31
-0.31
-0.31
-0.305
-0.32
-0.325
-0.345
-0.34
-0.34
-0.34
-0.325
-0.315
-0.315
-0.32
-0.325
-0.325
-0.33
-0.325
-0.335
-0.34
-0.335
-0.35
-0.34
-0.335
-0.32
-0.335
-0.33
-0.345
-0.335
-0.335
-0.345
-0.355
-0.355
-0.355
-0.345
-0.345
-0.33
-0.33
-0.325
-0.335
-0.345
-0.355
-0.37
-0.355
-0.355
-0.35
-0.35
-0.335
-0.335
-0.345
-0.34
-0.34
-0.345
-0.35
-0.355
-0.35
-0.35
-0.34
-0.33
-0.33
-0.32
-0.325
-0.33
-0.33
-0.345
-0.355
-0.355
-0.355
-0.34
-0.33
-0.325
-0.325
-0.325
-0.33
-0.33
-0.335
-0.33
-0.34
-0.345
-0.34
-0.345
-0.33
-0.325
-0.32
-0.315
-0.315
-0.315
-0.34
-0.325
-0.33
-0.345
-0.335
-0.33
-0.305
-0.31
-0.3
-0.295
-0.3
-0.295
-0.31
-0.31
-0.315
-0.325
-0.315
-0.31
-0.31
-0.295
-0.295
-0.295
-0.28
-0.295
-0.305
-0.305
-0.31
-0.31
-0.31
-0.305
-0.295
-0.295
-0.285
-0.295
-0.29
-0.285
-0.305
-0.3
-0.305
-0.315
-0.31
-0.31
-0.3
-0.295
-0.29
-0.295
-0.29
-0.29
-0.295
-0.305
-0.3
-0.32
-0.305
-0.305
-0.295
-0.29
-0.275
-0.275
-0.285
-0.28
-0.29
-0.29
-0.3
-0.305
-0.3
-0.3
-0.295
-0.29
-0.28
