Lead II
-0.835
-0.835
-0.85
-0.865
-0.86
-0.85
-0.805
-0.78
-0.76
-0.75
-0.75
-0.765
-0.755
-0.755
-0.75
-0.73
-0.705
-0.67
-0.64
-0.64
-0.61
-0.605
-0.59
-0.62
-0.64
-0.67
-0.705
-0.725
-0.73
-0.735
-0.74
-0.75
-0.74
-0.735
-0.715
-0.69
-0.69
-0.72
-0.75
-0.76
-0.77
-0.725
-0.715
-0.73
-0.76
-0.8
-0.865
-0.92
-0.945
-0.935
-0.925
-0.915
-0.905
-0.9
-0.885
-0.87
-0.885
-0.89
-0.905
-0.92
-0.915
-0.925
-0.935
-0.93
-0.905
-0.905
-0.895
-0.88
-0.88
-0.895
-0.875
-0.885
-0.915
-0.985
-1.02
-1.055
-1.045
-1.0
-0.89
-0.735
-0.595
-0.455
-0.375
-0.34
-0.32
-0.25
-0.085
0.16
0.45
0.71
0.8
0.625
0.165
-0.455
-1.095
-1.65
-1.96
-2.125
-2.11
-2.075
-2.03
-2.035
-2.07
-2.125
-2.135
-2.115
-2.09
-2.05
-2.015
-1.97
-1.935
-1.89
-1.85
-1.725
-1.59
-1.41
-1.225
-1.095
-1.005
-0.975
-0.96
-0.955
-0.96
-0.94
-0.945
-0.91
-0.89
-0.89
-0.9
-0.91
-0.92
-0.93
-0.92
-0.94
-0.92
-0.89
-0.88
-0.86
-0.895
-0.92
-0.955
-0.95
-0.945
-0.925
-0.94
-0.94
-0.97
-1.01
-1.025
-1.05
-1.05
-1.045
-1.05
-1.06
-1.075
-1.075
-1.055
-1.045
-1.02
-1.02
-1.04
-1.075
-1.11
-1.12
-1.105
-1.075
-1.02
-0.985
-0.94
-0.925
-0.955
-0.995
-1.045
-1.075
-1.09
-1.08
-1.035
-0.99
-0.92
-0.86
-0.81
-0.75
-0.735
-0.7
-0.71
-0.695
-0.69
-0.715
-0.775
-0.825
-0.84
-0.875
-0.85
-0.845
-0.88
-0.885
-0.835
-0.78
-0.725
-0.68
-0.66
-0.72
-0.785
-0.865
-0.895
-0.89
-0.875
-0.835
-0.8
-0.78
-0.78
-0.78
-0.8
-0.8
-0.825
-0.825
-0.825
-0.83
-0.815
-0.81
-0.825
-0.825
-0.835
-0.84
-0.815
-0.79
-0.765
-0.73
-0.725
-0.735
-0.795
-0.825
-0.86
-0.85
-0.87
-0.845
-0.845
-0.83
-0.835
-0.82
-0.83
-0.82
-0.8
-0.805
-0.795
-0.82
-0.86
-0.88
-0.885
-0.85
-0.82
-0.81
-0.815
-0.805
-0.81
-0.82
-0.8
-0.79
-0.775
-0.775
-0.8
-0.825
-0.83
-0.855
-0.855
-0.88
-0.895
-0.865
-0.83
-0.76
-0.685
-0.6
-0.485
-0.395
-0.305
-0.245
-0.17
-0.04
0.18
0.43
0.685
0.82
0.77
0.505
0.015
-0.54
-1.07
-1.46
-1.665
-1.765
-1.805
-1.825
-1.845
-1.875
-1.89
-1.92
-1.905
-1.88
-1.845
-1.82
-1.77
-1.71
-1.66
-1.6
-1.52
-1.395
-1.24
-1.075
-0.915
-0.77
-0.695
-0.69
-0.695
-0.69
-0.685
-0.685
-0.66
-0.645
-0.64
-0.615
-0.62
-0.625
-0.67
-0.7
-0.735
-0.745
-0.795
-0.845
-0.89
-0.89
-0.89
-0.885
-0.865
-0.86
-0.84
-0.835
-0.865
-0.885
-0.94
-0.965
-1.005
-1.01
-1.0
-1.015
-1.015
-1.025
-1.03
-1.035
-1.03
-1.02
-1.025
-1.04
-1.06
-1.08
-1.075
-1.095
-1.09
-1.055
-1.035
-0.995
-0.965
-0.985
-1.04
-1.115
-1.135
-1.15
-1.08
-1.03
-0.97
-0.91
-0.86
-0.815
-0.8
-0.805
-0.835
-0.865
-0.865
-0.865
-0.865
-0.875
-0.855
-0.83
-0.78
-0.74
-0.74
-0.73
-0.775
-0.795
-0.82
-0.835
-0.805
-0.81
-0.805
-0.78
-0.765
-0.75
-0.74
-0.745
-0.775
-0.79
-0.79
-0.785
-0.78
-0.765
-0.775
-0.815
-0.8
-0.815
-0.8
-0.78
-0.8
-0.805
-0.79
-0.755
-0.77
-0.8
-0.84
-0.855
-0.85
-0.815
-0.78
-0.735
-0.735
-0.755
-0.78
-0.835
-0.86
-0.87
-0.865
-0.845
-0.84
-0.845
-0.815
-0.815
-0.82
-0.805
-0.795
-0.805
-0.785
-0.775
-0.77
-0.765
-0.765
-0.765
-0.735
-0.77
-0.77
-0.77
-0.755
-0.73
-0.765
-0.795
-0.815
-0.855
-0.835
-0.795
-0.77
-0.735
-0.755
-0.775
-0.805
-0.81
-0.835
-0.85
-0.86
-0.845
-0.805
-0.77
-0.755
-0.75
-0.775
-0.775
-0.785
-0.78
-0.77
-0.76
-0.75
-0.77
-0.795
-0.815
-0.815
-0.795
-0.79
-0.765
-0.76
-0.765
-0.775
-0.785
-0.8
-0.775
-0.73
-0.705
-0.7
-0.725
-0.75
-0.76
-0.78
-0.79
-0.795
-0.805
-0.805
-0.815
-0.82
-0.815
-0.795
-0.79
-0.785
-0.805
-0.79
-0.775
-0.765
-0.76
-0.745
-0.745
-0.735
-0.74
-0.74
-0.745
-0.745
-0.74
-0.745
-0.745
-0.745
-0.75
-0.75
-0.77
-0.795
-0.805
-0.825
-0.805
-0.785
-0.775
-0.78
-0.78
-0.795
-0.785
-0.76
-0.76
-0.75
-0.755
-0.775
-0.78
-0.785
-0.775
-0.765
-0.735
-0.715
-0.725
-0.75
-0.785
-0.815
-0.805
-0.79
-0.755
-0.72
-0.67
-0.655
-0.65
-0.7
-0.76
-0.82
-0.865
-0.85
-0.81
-0.78
-0.755
-0.74
-0.74
-0.785
-0.79
-0.795
-0.8
-0.785
-0.755
-0.73
-0.705
-0.695
-0.7
-0.735
-0.77
-0.785
-0.79
-0.785
-0.785
-0.74
-0.705
-0.665
-0.65
-0.68
-0.72
-0.765
-0.78
-0.79
-0.785
-0.78
-0.79
-0.815
-0.83
-0.82
-0.825
-0.795
-0.75
-0.73
-0.715
-0.715
-0.745
-0.79
-0.805
-0.815
-0.8
-0.755
-0.715
-0.665
-0.625
-0.595
-0.63
-0.695
-0.75
-0.77
-0.785
-0.78
-0.775
-0.765
-0.775
-0.795
-0.79
-0.765
-0.74
-0.72
-0.745
-0.755
-0.76
-0.765
-0.75
-0.72
-0.66
-0.62
-0.58
-0.565
-0.58
-0.6
-0.625
-0.645
-0.63
-0.61
-0.57
-0.545
-0.505
-0.495
-0.52
-0.55
-0.595
-0.665
-0.715
-0.78
-0.815
-0.795
-0.755
-0.685
-0.64
-0.62
-0.61
-0.615
-0.675
-0.675
-0.705
-0.715
-0.735
-0.735
-0.74
-0.745
-0.775
-0.785
-0.79
-0.81
-0.84
-0.845
-0.865
-0.865
-0.87
-0.855
-0.83
-0.8
-0.775
-0.79
-0.815
-0.84
-0.905
-0.95
-0.995
-1.03
-1.0
-0.945
-0.825
-0.67
-0.525
-0.405
-0.325
-0.305
-0.27
-0.19
-0.055
0.12
0.33
0.54
0.695
0.73
0.565
0.195
-0.33
-0.86
-1.315
-1.615
-1.775
-1.87
-1.915
-1.925
-1.98
-1.99
-1.99
-1.975
-1.98
-1.985
-1.985
-1.985
-1.97
-1.94
-1.89
-1.805
-1.685
-1.555
-1.43
-1.32
-1.19
-1.09
-1.01
-0.955
-0.915
-0.915
-0.94
-0.91
-0.88
-0.84
-0.825
-0.83
-0.845
-0.885
-0.885
-0.9
-0.91
-0.89
-0.885
-0.87
-0.865
-0.86
-0.865
-0.85
-0.87
-0.89
-0.91
-0.93
-0.945
-0.965
-0.985
-1.01
-1.035
-1.045
-1.06
-1.06
-1.035
-1.04
-1.03
-1.04
-1.055
-1.06
-1.1
-1.125
-1.1
-1.09
-1.09
-1.11
-1.125
-1.12
-1.13
-1.125
-1.105
-1.075
-1.065
-1.075
-1.11
-1.11
-1.11
-1.095
-1.055
-1.015
-1.01
-1.01
-1.005
-0.99
-0.98
-0.98
-0.97
-0.95
-0.93
-0.915
-0.865
-0.835
-0.82
-0.8
-0.78
-0.79
-0.83
-0.845
-0.85
-0.84
-0.81
-0.79
-0.755
-0.75
-0.71
-0.715
-0.74
-0.765
-0.83
-0.865
-0.875
-0.84
-0.8
-0.795
-0.795
-0.79
-0.785
-0.78
-0.79
-0.79
-0.775
-0.775
-0.785
-0.795
-0.765
-0.745
-0.72
-0.715
-0.74
-0.78
-0.795
-0.8
-0.78
-0.79
-0.805
-0.835
-0.85
-0.835
-0.835
-0.83
-0.815
-0.815
-0.82
-0.83
-0.84
-0.87
-0.875
-0.855
-0.82
-0.8
-0.79
-0.78
-0.8
-0.825
-0.845
-0.845
-0.84
-0.81
-0.81
-0.82
-0.83
-0.835
-0.835
-0.865
-0.885
-0.905
-0.925
-0.935
-0.915
-0.895
-0.85
-0.825
-0.815
-0.8
-0.79
-0.8
-0.79
-0.785
-0.77
-0.775
-0.765
-0.77
-0.805
-0.815
-0.825
-0.795
-0.735
-0.69
-0.635
-0.605
-0.59
-0.595
-0.61
-0.645
-0.66
-0.65
-0.655
-0.685
-0.685
-0.705
-0.72
-0.72
-0.73
-0.72
-0.705
-0.675
-0.66
-0.64
-0.63
-0.655
-0.695
-0.725
-0.785
-0.82
-0.855
-0.885
-0.885
-0.87
-0.865
-0.86
-0.84
-0.855
-0.875
-0.86
-0.855
-0.87
-0.895
-0.925
-0.94
-0.955
-0.925
-0.89
-0.855
-0.805
-0.76
-0.755
-0.775
-0.805
-0.86
-0.925
-0.93
-0.935
-0.95
-0.98
-1.015
-1.05
-1.025
-0.975
-0.86
-0.705
-0.54
-0.395
-0.305
-0.275
-0.215
-0.1
0.065
0.3
0.54
0.73
0.775
0.615
0.22
-0.32
-0.91
-1.41
-1.755
-1.91
-1.955
-1.98
-1.98
-2.015
-2.035
-2.09
-2.105
-2.115
-2.085
-2.06
-2.045
-2.025
-2.02
-2.005
-1.96
-1.92
-1.825
-1.7
-1.56
-1.405
-1.24
-1.105
-0.995
-0.945
-0.92
-0.94
-0.95
-0.96
-0.945
-0.915
-0.88
-0.84
-0.84
-0.835
-0.83
-0.825
-0.825
-0.835
-0.81
-0.815
-0.83
-0.84
-0.875
-0.91
-0.925
-0.94
-0.965
-0.975
-0.99
-0.945
-0.915
-0.875
-0.86
-0.875
-0.91
-0.965
-1.02
-1.035
-1.04
-1.06
-1.07
-1.045
-1.01
-0.985
-0.945
-0.935
-0.955
-1.02
-1.06
-1.085
-1.1
-1.085
-1.06
-1.015
-0.985
-0.96
-0.965
-0.97
-0.965
-0.96
-0.94
-0.94
-0.9
-0.875
-0.84
-0.82
-0.82
-0.85
-0.855
-0.845
-0.825
-0.815
-0.8
-0.795
-0.775
-0.78
-0.77
-0.755
-0.725
-0.74
-0.745
-0.765
-0.78
-0.795
-0.79
-0.77
-0.735
-0.705
-0.685
-0.7
-0.725
-0.755
-0.785
-0.79
-0.785
-0.785
-0.8
-0.825
-0.82
-0.815
-0.775
-0.765
-0.75
-0.765
-0.775
-0.775
-0.8
-0.81
-0.815
-0.835
-0.845
-0.84
-0.84
-0.835
-0.8
-0.82
-0.83
-0.84
-0.84
-0.845
-0.845
-0.835
-0.835
-0.82
-0.795
-0.78
-0.765
-0.74
-0.72
-0.71
-0.735
-0.78
-0.825
-0.875
-0.915
-0.91
-0.895
-0.855
-0.8
-0.785
-0.775
-0.77
-0.765
-0.8
-0.84
-0.855
-0.845
-0.815
-0.765
-0.735
-0.71
-0.715
-0.72
-0.73
-0.74
-0.735
-0.715
-0.69
-0.645
-0.61
-0.565
-0.57
-0.57
-0.625
-0.675
-0.715
-0.725
-0.735
-0.745
-0.765
-0.775
-0.755
-0.715
-0.675
-0.64
-0.62
-0.625
-0.665
-0.735
-0.79
-0.84
-0.87
-0.88
-0.86
-0.84
-0.82
-0.825
-0.81
-0.815
-0.865
-0.915
-0.975
-0.995
-1.015
-0.985
-0.955
-0.925
-0.905
-0.91
-0.905
-0.915
-0.925
-0.92
-0.925
-0.94
-0.93
-0.925
-0.92
-0.915
-0.92
-0.915
-0.935
-0.97
-1.025
-1.055
-1.05
-0.99
-0.87
-0.705
-0.555
-0.44
-0.375
-0.37
-0.36
-0.285
-0.105
0.135
0.42
0.62
0.665
0.48
0.045
-0.555
-1.165
-1.61
-1.9
-2.025
-2.045
-2.05
-2.015
-2.02
-2.09
-2.145
-2.165
-2.15
-2.145
-2.09
-2.08
-2.055
-2.005
-1.94
-1.87
-1.77
-1.605
-1.405
-1.235
-1.095
-1.005
-0.975
-0.98
-1.0
-1.005
-1.0
-0.975
-0.935
-0.905
-0.91
-0.915
-0.94
-0.955
-0.97
-1.005
-1.0
-1.005
-1.005
-0.98
-0.96
-0.975
-0.99
-0.985
-0.97
-0.985
-0.985
-1.03
-1.05
-1.07
-1.075
-1.085
-1.1
-1.135
-1.145
-1.16
-1.165
-1.145
-1.13
-1.12
-1.135
-1.155
-1.17
-1.17
-1.17
-1.17
-1.155
-1.155
-1.155
-1.165
-1.155
-1.16
-1.16
-1.145
-1.115
-1.085
-1.04
-1.005
-0.98
-0.97
-0.975
-0.995
-1.025
-1.075
-1.085
-1.08
-1.035
-0.95
-0.915
-0.895
-0.885
-0.875
-0.865
-0.875
-0.85
-0.85
-0.855
-0.83
-0.83
-0.845
-0.855
-0.885
-0.93
-0.955
-0.93
-0.9
-0.865
-0.87
-0.87
-0.89
-0.925
-0.945
-0.945
-0.94
-0.92
-0.895
-0.87
-0.85
-0.825
-0.85
-0.875
-0.905
-0.92
-0.91
-0.9
-0.89
-0.9
-0.895
-0.9
-0.9
-0.89
-0.9
-0.905
-0.91
-0.91
-0.935
-0.935
-0.945
-0.955
-0.93
-0.905
-0.9
-0.935
-0.935
-0.945
-0.935
-0.925
-0.885
-0.885
-0.89
-0.915
-0.95
-0.97
-0.965
-0.965
-0.96
-0.98
-0.99
-0.965
-0.95
-0.955
-0.985
-0.99
-0.975
-0.96
-0.94
-0.93
-0.905
-0.9
-0.89
-0.87
-0.83
-0.795
-0.8
-0.81
-0.845
-0.855
-0.845
-0.81
-0.755
-0.695
-0.665
-0.685
-0.71
-0.755
-0.82
-0.855
-0.86
-0.86
-0.82
-0.765
-0.745
-0.725
-0.745
-0.75
-0.77
-0.81
-0.84
-0.83
-0.785
-0.78
-0.825
-0.87
-0.885
-0.9
-0.915
-0.95
-0.97
-0.98
-0.975
-0.955
-0.935
-0.9
-0.87
-0.87
-0.895
-0.96
-0.995
-1.025
-1.055
-1.065
-1.075
-1.04
-1.0
-0.95
-0.915
-0.9
-0.95
-1.0
-1.035
-1.06
-1.03
-1.025
-1.05
-1.075
-1.06
-1.01
-0.91
-0.76
-0.59
-0.44
-0.35
-0.29
-0.24
-0.18
-0.035
0.195
0.44
0.605
0.625
0.435
-0.005
-0.58
-1.16
-1.61
-1.85
-1.93
-1.975
-2.025
-2.08
-2.12
-2.16
-2.165
-2.17
-2.165
-2.11
-2.105
-2.07
-2.01
-1.94
-1.865
-1.83
-1.77
-1.735
-1.625
-1.49
-1.34
-1.21
-1.105
-1.06
-1.055
-1.03
-1.025
-1.02
-0.985
-0.97
-0.95
-0.92
-0.885
-0.875
-0.895
-0.93
-0.95
-0.975
-0.965
-0.925
-0.94
-0.95
-0.935
-0.94
-0.97
-0.98
-1.03
-1.07
-1.075
-1.09
-1.08
-1.04
-1.05
-1.03
-1.045
-1.075
-1.115
-1.14
-1.135
-1.12
-1.135
-1.14
-1.15
-1.165
-1.14
-1.12
-1.095
-1.05
-1.05
-1.06
-1.11
-1.155
-1.195
-1.175
-1.125
-1.055
-0.965
-0.91
-0.935
-0.985
-1.02
-1.035
-1.025
-1.005
-1.005
-0.975
-0.945
-0.895
-0.845
-0.83
-0.83
-0.865
-0.915
-0.905
-0.92
-0.9
-0.895
-0.89
-0.88
-0.875
-0.865
-0.865
-0.85
-0.875
-0.86
-0.84
-0.835
-0.805
-0.815
-0.82
-0.81
-0.79
-0.775
-0.77
-0.77
-0.78
-0.815
-0.865
-0.89
-0.91
-0.905
-0.895
-0.885
-0.88
-0.88
-0.85
-0.83
-0.83
-0.85
-0.875
-0.9
-0.905
-0.915
-0.925
-0.955
-0.96
-0.975
-0.945
-0.915
-0.89
-0.875
-0.875
-0.895
-0.9
-0.915
-0.895
-0.86
-0.845
-0.79
-0.77
-0.795
-0.825
-0.865
-0.91
-0.96
-1.0
-1.0
-0.975
-0.94
-0.905
-0.88
-0.88
-0.915
-0.935
-0.925
-0.9
-0.865
-0.81
-0.795
-0.785
-0.79
-0.805
-0.78
-0.72
-0.685
-0.61
-0.56
-0.545
-0.56
-0.595
-0.695
-0.77
-0.835
-0.855
-0.845
-0.84
-0.85
-0.82
-0.815
-0.785
-0.77
-0.77
-0.765
-0.775
-0.795
-0.815
-0.83
-0.845
-0.86
-0.885
-0.905
-0.91
-0.905
-0.905
-0.93
-0.95
-0.985
-1.015
-1.03
-1.015
-0.99
-0.965
-0.955
-0.94
-0.955
-0.965
-0.98
-0.975
-0.965
-0.95
-0.94
-0.95
-0.97
-1.015
-1.04
-1.05
-1.055
-1.05
-1.055
-1.08
-1.1
-1.11
-1.12
-1.07
-0.955
-0.84
-0.72
-0.595
-0.52
-0.475
-0.455
-0.425
-0.34
-0.175
0.06
0.325
0.53
0.665
0.59
0.285
-0.265
-0.905
-1.51
-1.935
-2.135
-2.16
-2.115
-2.08
-2.065
-2.055
-2.075
-2.105
-2.125
-2.145
-2.15
-2.145
-2.13
-2.115
-2.065
-2.01
-1.955
-1.865
-1.795
-1.635
-1.485
-1.325
-1.19
-1.11
-1.07
-1.03
-1.01
-1.01
-1.01
-1.015
-1.015
-1.01
-1.0
-0.99
-0.975
-0.955
-0.965
-0.985
-1.0
-1.005
-1.005
-0.995
-0.99
-0.975
-0.99
-0.99
-1.0
-0.99
-1.005
-1.02
-1.025
-1.045
-1.06
-1.1
-1.12
-1.12
-1.135
-1.135
-1.145
-1.12
-1.09
-1.075
-1.06
-1.085
-1.1
-1.15
-1.18
-1.19
-1.185
-1.16
-1.135
-1.12
-1.13
-1.16
-1.18
-1.155
-1.13
-1.085
-1.05
-1.03
-1.015
-1.02
-1.015
-0.995
-0.98
-0.95
-0.92
-0.91
-0.9
-0.92
-0.945
-0.955
-0.925
-0.9
-0.895
-0.875
-0.88
-0.9
-0.925
-0.95
-0.975
-0.945
-0.935
-0.92
-0.895
-0.885
-0.87
-0.875
-0.9
-0.925
-0.945
-0.96
-0.93
-0.89
-0.865
-0.83
-0.81
-0.85
-0.885
-0.935
-0.98
-0.995
-0.99
-0.97
-0.94
-0.925
-0.905
-0.885
-0.885
-0.915
-0.93
-0.935
-0.95
-0.96
-0.945
-0.945
-0.925
-0.925
-0.92
-0.91
-0.895
-0.92
-0.97
-1.005
-1.025
-1.01
-0.99
-0.97
-0.96
-0.965
-0.98
-0.965
-0.985
-0.985
-0.975
-0.955
-0.955
-0.96
-0.955
-0.955
-0.945
-0.92
-0.925
-0.94
-0.965
-1.01
-1.01
-0.985
-0.915
-0.875
-0.825
-0.835
-0.85
-0.89
-0.915
-0.93
-0.935
-0.91
-0.865
-0.8
-0.735
-0.7
-0.68
-0.68
-0.705
-0.755
-0.8
-0.815
-0.825
-0.825
-0.84
-0.86
-0.9
-0.905
-0.895
-0.88
-0.835
-0.815
-0.825
-0.835
-0.885
-0.92
-0.945
-0.96
-0.96
-0.965
-0.965
-0.975
-0.98
-1.005
-1.025
-1.035
-1.02
-1.005
-1.005
-0.995
-0.975
-0.98
-1.01
-1.055
-1.07
-1.12
-1.1
-1.07
-1.04
-1.02
-1.01
-1.0
-1.005
-1.03
-1.045
-1.09
-1.125
-1.14
-1.15
-1.16
-1.17
-1.175
-1.155
-1.12
-1.015
-0.865
-0.705
-0.575
-0.51
-0.445
-0.4
-0.295
-0.145
0.08
0.295
0.45
0.495
0.3
-0.115
-0.675
-1.245
-1.7
-1.975
-2.1
-2.115
-2.12
-2.125
-2.14
-2.125
-2.105
-2.095
-2.095
-2.11
-2.155
-2.155
-2.16
-2.12
-2.07
-1.995
-1.85
-1.7
-1.535
-1.39
-1.25
-1.155
-1.085
-1.04
-1.02
-1.02
-1.06
-1.095
-1.11
-1.105
-1.085
-1.07
-1.06
-1.035
-1.02
-1.025
-1.035
-1.045
-1.06
-1.035
-1.015
-1.005
-0.975
-0.99
-1.055
-1.12
-1.155
-1.18
-1.165
-1.16
-1.145
-1.155
-1.15
-1.135
-1.13
-1.125
-1.13
-1.16
-1.195
-1.185
-1.155
-1.145
-1.155
-1.16
-1.2
-1.23
-1.24
-1.24
-1.21
-1.165
-1.095
-1.025
-0.99
-1.02
-1.085
-1.195
-1.245
-1.25
-1.18
-1.07
-0.98
-0.86
-0.775
-0.73
-0.75
-0.82
-0.905
-0.965
-0.995
-1.0
-0.98
-0.95
-0.915
-0.94
-0.96
-0.985
-1.005
-1.025
-1.025
-1.025
-0.985
-0.93
-0.935
-0.945
-0.965
-0.98
-0.995
-1.015
-1.05
-1.09
-1.115
-1.11
-1.095
-1.065
-1.035
-1.015
-1.025
-1.025
-1.03
-1.04
-1.045
-1.045
-1.04
-1.04
-1.055
-1.08
-1.085
-1.08
-1.065
-1.025
-0.99
-0.965
-0.945
-0.98
-1.015
-1.06
-1.08
-1.085
-1.075
-1.085
-1.09
-1.105
-1.11
-1.08
-1.065
-1.05
-1.045
-1.06
-1.05
-1.03
-0.98
-0.975
-0.97
-0.985
-0.99
-0.995
-1.035
-1.08
-1.115
-1.15
-1.12
-1.085
-1.03
-0.975
-0.985
-1.025
-1.06
-1.115
-1.135
-1.175
-1.18
-1.15
-1.09
-1.03
-0.97
-0.915
-0.865
-0.805
-0.73
-0.645
-0.59
-0.495
-0.365
-0.18
0.065
0.305
0.45
0.495
0.335
-0.02
-0.505
-1.065
-1.52
-1.805
-1.95
-2.015
-2.025
-2.015
-2.04
-2.06
-2.065
-2.06
-2.045
-2.05
-2.045
-2.055
-2.02
-2.005
-1.99
-1.98
-1.91
-1.795
-1.655
-1.515
-1.38
-1.245
-1.12
-1.06
-1.045
-1.07
-1.06
-1.03
-0.985
-0.93
-0.89
-0.875
-0.935
-1.0
-1.035
-1.025
-1.02
-1.01
-1.015
-1.0
-1.015
-1.025
-1.055
-1.055
-1.04
-1.045
-1.045
-1.07
-1.075
-1.09
-1.075
-1.075
-1.105
-1.145
-1.18
-1.175
-1.16
-1.125
-1.095
-1.09
-1.12
-1.175
-1.21
-1.235
-1.24
-1.22
-1.21
-1.19
-1.175
-1.12
-1.105
-1.11
-1.13
-1.15
-1.185
-1.21
-1.2
-1.18
-1.155
-1.105
-1.065
-1.035
-1.015
-0.995
-0.965
-0.935
-0.925
-0.955
-1.035
-1.07
-1.09
-1.08
-1.035
-0.955
-0.91
-0.905
-0.915
-0.95
-0.97
-0.98
-0.965
-0.97
-0.955
-0.925
-0.915
-0.91
-0.915
-0.895
-0.9
-0.925
-0.945
-0.975
-0.98
-0.985
-0.99
-0.99
-0.995
-0.99
-0.98
-0.955
-0.93
-0.93
-0.93
-0.96
-0.99
-0.965
-0.95
-0.94
-0.945
-0.955
-0.945
-0.93
-0.915
-0.94
-0.985
-0.995
-1.0
-0.96
-0.945
-0.94
-0.975
-1.015
-1.055
-1.05
-1.05
-1.015
-0.975
-0.935
-0.915
-0.905
-0.92
-0.96
-0.975
-0.985
-0.965
-0.975
-0.98
-0.98
-0.98
-0.97
-0.94
-0.94
-0.92
-0.915
-0.92
-0.97
-0.995
-0.99
-0.995
-0.995
-0.995
-1.005
-1.015
-0.985
-0.97
-0.945
-0.93
-0.92
-0.91
-0.905
-0.895
-0.89
-0.87
-0.88
-0.94
-0.99
-1.0
-0.99
-0.985
-0.94
-0.93
-0.915
-0.925
-0.935
-0.945
-0.92
-0.905
-0.865
-0.865
-0.87
-0.855
-0.825
-0.785
-0.755
-0.75
-0.74
-0.755
-0.795
-0.845
-0.885
-0.905
-0.89
-0.84
-0.825
-0.825
-0.835
-0.855
-0.855
-0.85
-0.86
-0.875
-0.9
-0.93
-0.965
-1.0
-1.005
-0.99
-0.97
-0.95
-0.935
-0.94
-0.98
-1.045
-1.07
-1.095
-1.095
-1.075
-1.06
-1.01
-0.99
-0.99
-1.03
-1.065
-1.095
-1.085
-1.065
-1.025
-1.025
-1.035
-1.05
-1.05
-1.045
-1.045
-1.08
-1.095
-1.105
-1.09
-1.11
-1.14
-1.155
-1.115
-1.05
-0.94
-0.815
-0.67
-0.54
-0.46
-0.44
-0.455
-0.41
-0.3
-0.095
0.15
0.42
0.555
0.48
0.165
-0.335
-0.925
-1.465
-1.85
-2.04
-2.095
-2.07
-2.035
-2.015
-2.035
-2.09
-2.16
-2.195
-2.205
-2.19
-2.14
-2.12
-2.08
-2.05
-2.005
-1.935
-1.85
-1.77
-1.655
-1.52
-1.395
-1.25
-1.17
-1.09
-1.075
-1.08
-1.085
-1.09
-1.08
-1.065
-1.045
-1.035
-1.02
-1.025
-1.04
-1.065
-1.075
-1.075
-1.05
-1.035
-1.03
-1.05
-1.08
-1.095
-1.1
-1.11
-1.105
-1.115
-1.125
-1.135
-1.115
-1.085
-1.09
-1.115
-1.13
-1.145
-1.16
-1.19
-1.23
-1.245
-1.235
-1.21
-1.185
-1.17
-1.18
-1.205
-1.24
-1.29
-1.305
-1.33
-1.315
-1.305
-1.26
-1.22
-1.175
-1.165
-1.15
-1.155
-1.115
-1.105
-1.13
-1.16
-1.16
-1.135
-1.11
-1.06
-1.045
-1.045
-1.035
-1.015
-1.035
-1.02
-1.01
-0.99
-0.945
-0.915
-0.92
-0.95
-1.005
-1.035
-1.05
-1.015
-0.955
-0.925
-0.915
-0.94
-0.96
-0.96
-0.95
-0.955
-0.915
-0.93
-0.955
-0.97
-0.985
-0.96
-0.96
-0.98
-1.01
-1.015
-1.005
-0.98
-0.95
-0.935
-0.945
-0.945
-0.95
-0.98
-0.99
-0.995
-0.98
-0.93
-0.92
-0.93
-0.96
-0.985
-0.965
-0.955
-0.955
-1.0
-1.015
-1.055
-1.035
-1.03
-1.015
-1.01
-0.995
-0.98
-0.96
-0.975
-0.955
-0.95
-0.965
-0.99
-1.0
-1.0
-0.995
-0.99
-0.965
-0.955
-0.92
-0.91
-0.885
-0.92
-0.915
-0.925
-0.96
-0.975
-0.95
-0.935
-0.89
-0.87
-0.86
-0.905
-0.94
-0.985
-0.96
-0.89
-0.82
-0.72
-0.665
-0.67
-0.73
-0.81
-0.89
-0.925
-0.955
-0.96
-0.925
-0.9
-0.87
-0.83
-0.805
-0.795
-0.785
-0.795
-0.81
-0.845
-0.895
-0.94
-0.95
-0.97
-0.965
-0.97
-0.98
-0.995
-1.01
-1.015
-1.02
-1.02
-1.01
-0.995
-0.965
-0.96
-0.975
-1.01
-1.05
-1.065
-1.06
-1.06
-1.04
-1.015
-1.0
-1.0
-1.0
-1.01
-0.995
-0.985
-0.99
-1.04
-1.055
-1.07
-1.07
-1.075
-1.09
-1.08
-1.05
-0.985
-0.875
-0.705
-0.56
-0.445
-0.395
-0.37
-0.335
-0.245
-0.05
0.19
0.41
0.535
0.445
0.15
-0.325
-0.865
-1.36
-1.74
-1.96
-2.04
-2.095
-2.12
-2.135
-2.155
-2.185
-2.2
-2.205
-2.17
-2.145
-2.11
-2.08
-2.045
-1.995
-1.99
-1.935
-1.845
-1.72
-1.555
-1.4
-1.265
-1.17
-1.07
-1.015
-0.985
-0.995
-1.04
-1.08
-1.095
-1.075
-1.01
-0.965
-0.93
-0.915
-0.93
-0.935
-0.945
-0.96
-0.955
-0.945
-0.945
-0.96
-0.96
-0.975
-0.96
-0.975
-0.98
-0.98
-0.96
-0.965
-0.985
-1.02
-1.06
-1.095
-1.07
-1.055
-1.04
-1.05
-1.07
-1.075
-1.095
-1.095
-1.1
-1.09
-1.09
-1.125
-1.115
-1.13
-1.135
-1.14
-1.15
-1.16
-1.155
-1.165
-1.16
-1.14
-1.12
-1.125
-1.085
-1.07
-1.025
-0.995
-0.99
-0.96
-0.94
-0.93
-0.9
-0.905
-0.905
-0.88
-0.895
-0.88
-0.87
-0.85
-0.835
-0.84
-0.85
-0.875
-0.905
-0.91
-0.935
-0.915
-0.905
-0.87
-0.845
-0.83
-0.84
-0.85
-0.85
-0.855
-0.86
-0.88
-0.87
-0.87
-0.86
-0.865
-0.875
-0.895
-0.905
-0.895
-0.875
-0.835
-0.82
-0.815
-0.825
-0.845
-0.895
-0.93
-0.965
-0.96
-0.945
-0.905
-0.885
-0.91
-0.96
-1.015
-1.035
-1.015
-0.985
-0.925
-0.9
-0.88
-0.855
-0.855
-0.845
-0.85
-0.895
-0.96
-0.975
-0.985
-0.975
-0.945
-0.92
-0.91
-0.885
-0.865
-0.865
-0.91
-0.965
-1.0
-0.985
-0.96
-0.895
-0.84
-0.82
-0.805
-0.835
-0.885
-0.945
-0.94
-0.925
-0.88
-0.82
-0.775
-0.72
-0.72
-0.75
-0.745
-0.735
-0.75
-0.755
-0.77
-0.785
-0.79
-0.795
-0.8
-0.795
-0.82
-0.84
-0.825
-0.84
-0.825
-0.82
-0.82
-0.825
-0.82
-0.82
-0.845
-0.885
-0.89
-0.895
-0.91
-0.93
-0.955
-0.99
-1.035
-1.05
-1.06
-1.07
-1.035
-1.0
-0.95
-0.92
-0.9
-0.92
-0.965
-0.985
-1.05
-1.075
-1.095
-1.09
-1.075
-1.035
-0.995
-0.95
-0.94
-0.95
-0.975
-1.01
-1.045
-1.095
-1.11
-1.13
-1.11
-1.04
-0.945
-0.795
-0.63
-0.505
-0.43
-0.41
-0.36
-0.26
-0.09
0.11
0.345
0.505
0.58
0.435
0.04
-0.505
-1.11
-1.61
-1.92
-2.09
-2.105
-2.11
-2.08
-2.055
-2.06
-2.05
-2.055
-2.07
-2.08
-2.095
-2.115
-2.105
-2.08
-2.055
-1.97
-1.86
-1.735
-1.62
-1.5
-1.385
-1.285
-1.18
-1.105
-1.07
-1.07
-1.06
-1.085
-1.045
-1.05
-1.045
-1.02
-0.99
-0.97
-0.955
-0.97
-0.97
-0.975
-0.965
-0.95
-0.945
-0.965
-0.995
-1.03
-1.05
-1.08
-1.09
-1.105
-1.09
-1.08
-1.06
-1.08
-1.085
-1.095
-1.1
-1.095
-1.1
-1.115
-1.145
-1.155
-1.165
-1.155
-1.145
-1.13
-1.135
-1.13
-1.135
-1.14
-1.155
-1.18
-1.195
-1.215
-1.21
-1.21
-1.18
-1.16
-1.14
-1.1
-1.06
-1.015
-0.99
-0.99
-0.985
-1.0
-0.99
-0.99
-0.97
-0.955
-0.96
-0.98
-0.98
-0.945
-0.915
-0.875
-0.875
-0.885
-0.875
-0.89
-0.93
-0.935
-0.925
-0.915
-0.895
-0.85
-0.84
-0.81
-0.845
-0.875
-0.89
-0.895
-0.86
-0.81
-0.795
-0.795
-0.845
-0.905
-0.945
-0.985
-1.015
-1.03
-1.015
-0.965
-0.91
-0.9
-0.905
-0.895
-0.895
-0.895
-0.885
-0.86
-0.86
-0.88
-0.91
-0.92
-0.92
-0.895
-0.88
-0.875
-0.865
-0.85
-0.84
-0.87
-0.89
-0.92
-0.94
-0.955
-0.95
-0.945
-0.955
-0.95
-0.945
-0.94
-0.935
-0.935
-0.925
-0.915
-0.91
-0.91
-0.925
-0.94
-0.92
-0.905
-0.89
-0.885
-0.84
-0.805
-0.795
-0.775
-0.755
-0.775
-0.775
-0.785
-0.75
-0.73
-0.715
-0.69
-0.695
-0.68
-0.67
-0.72
-0.755
-0.815
-0.885
-0.895
-0.895
-0.87
-0.86
-0.845
-0.8
-0.765
-0.73
-0.735
-0.775
-0.815
-0.855
-0.875
-0.9
-0.895
-0.885
-0.87
-0.87
-0.88
-0.91
-0.96
-0.985
-1.0
-1.01
-0.995
-0.98
-0.96
-0.95
-0.96
-0.95
-0.96
-0.955
-0.935
-0.95
-0.935
-0.92
-0.92
-0.945
-0.96
-0.98
-0.99
-0.97
-1.01
-1.045
-1.09
-1.125
-1.135
-1.105
-1.04
-0.925
-0.8
-0.685
-0.575
-0.49
-0.45
-0.41
-0.365
-0.285
-0.1
0.115
0.345
0.52
0.54
0.335
-0.07
-0.59
-1.125
-1.51
-1.785
-1.895
-1.935
-1.975
-2.025
-2.07
-2.11
-2.11
-2.125
-2.1
-2.1
-2.125
-2.11
-2.07
-2.04
-1.98
-1.91
-1.81
-1.65
-1.5
-1.39
-1.275
-1.21
-1.135
-1.105
-1.055
-1.01
-0.965
-0.945
-0.94
-0.95
-0.95
-0.94
-0.945
-0.945
-0.965
-0.98
-0.995
-1.005
-0.965
-0.945
-0.915
-0.9
-0.89
-0.895
-0.91
-0.93
-0.995
-1.06
-1.125
-1.17
-1.165
-1.135
-1.105
-1.045
-1.02
-1.0
-1.02
-1.07
-1.07
-1.065
-1.06
-1.075
-1.105
-1.155
-1.175
-1.205
-1.215
-1.185
-1.14
-1.095
-1.055
-1.025
-1.015
-1.0
-0.995
-0.965
-0.95
-0.92
-0.915
-0.925
-0.93
-0.915
-0.885
-0.835
-0.785
-0.74
-0.7
-0.68
-0.685
-0.695
-0.745
-0.765
-0.785
-0.815
-0.85
-0.94
-0.975
-1.005
-0.98
-0.95
-0.915
-0.855
-0.825
-0.825
-0.825
-0.825
-0.86
-0.88
-0.895
-0.915
-0.925
-0.95
-0.97
-0.99
-1.025
-1.02
-1.025
-0.995
-0.955
-0.93
-0.91
-0.925
-0.935
-0.955
-0.97
-0.955
-0.92
-0.895
-0.86
-0.845
-0.875
-0.925
-0.98
-1.005
-0.98
-0.96
-0.965
-0.945
-0.95
-0.965
-0.995
-0.99
-1.005
-0.995
-1.015
-1.055
-1.065
-1.055
-1.045
-1.0
-1.0
-1.015
-1.03
-1.04
-1.07
-1.055
-1.055
-1.045
-1.015
-1.005
-1.01
-1.02
-1.04
-1.025
-0.995
-0.97
-0.965
-1.01
-1.02
-1.045
-1.065
-1.11
-1.1
-1.085
-1.065
-1.005
-0.895
-0.775
-0.66
-0.605
-0.585
-0.555
-0.47
-0.305
-0.035
0.26
0.545
0.685
0.62
0.375
-0.095
-0.645
-1.18
-1.585
-1.835
-1.96
-1.965
-1.94
-1.96
-1.985
-2.025
-2.05
-2.045
-2.075
-2.08
-2.065
-2.04
-1.98
-1.93
-1.865
-1.805
-1.705
-1.585
-1.445
-1.275
-1.16
-1.09
-1.045
-1.04
-1.05
-1.055
-1.05
-1.03
-0.975
-0.95
-0.94
-0.96
-0.97
-0.96
-0.97
-0.97
-0.96
-0.96
-0.94
-0.955
-0.945
-0.945
-0.935
-0.925
-0.885
-0.87
-0.91
-0.94
-0.99
-1.04
-1.085
-1.12
-1.145
-1.155
-1.14
-1.115
-1.1
-1.11
-1.12
-1.165
-1.17
-1.185
-1.175
-1.145
-1.12
-1.095
-1.1
-1.09
-1.085
-1.08
-1.095
-1.11
-1.15
-1.16
-1.1
-1.06
-0.995
-0.945
-0.905
-0.91
-0.965
-1.03
-1.085
-1.055
-1.005
-0.95
-0.9
-0.895
-0.89
-0.875
-0.87
-0.85
-0.88
-0.89
-0.93
-0.945
-0.94
-0.885
-0.865
-0.83
-0.795
-0.77
-0.765
-0.825
-0.915
-1.005
-1.035
-1.015
-0.955
-0.91
-0.85
-0.825
-0.79
-0.795
-0.825
-0.86
-0.91
-0.935
-0.955
-0.965
-0.98
-0.985
-0.945
-0.895
-0.87
-0.83
-0.85
-0.86
-0.905
-0.935
-0.925
-0.915
-0.92
-0.94
-0.965
-0.965
-0.925
-0.88
-0.835
-0.84
-0.85
-0.88
-0.915
-0.94
-0.93
-0.905
-0.875
-0.86
-0.865
-0.855
-0.84
-0.835
-0.85
-0.895
-0.925
-0.95
-0.95
-0.95
