Lead II
-0.14
-0.13
-0.11
-0.105
-0.11
-0.09
-0.075
-0.055
-0.065
-0.08
-0.09
-0.085
-0.09
-0.1
-0.105
-0.14
-0.16
-0.175
-0.18
-0.185
-0.21
-0.23
-0.24
-0.245
-0.24
-0.235
-0.235
-0.22
-0.185
-0.145
-0.1
-0.035
0.02
0.07
0.14
0.205
0.285
0.375
0.465
0.5
0.545
0.61
0.695
0.78
0.865
0.915
0.995
1.07
1.165
1.275
1.365
1.42
1.47
1.53
1.605
1.69
1.755
1.81
1.865
1.92
1.89
1.665
1.335
1.005
0.695
0.435
0.195
0.035
-0.105
-0.255
-0.345
-0.38
-0.4
-0.41
-0.435
-0.48
-0.5
-0.52
-0.53
-0.525
-0.53
-0.55
-0.575
-0.575
-0.57
-0.565
-0.565
-0.59
-0.59
-0.595
-0.59
-0.595
-0.6
-0.61
-0.62
-0.62
-0.615
-0.61
-0.625
-0.655
-0.665
-0.67
-0.66
-0.66
-0.675
-0.685
-0.71
-0.705
-0.7
-0.695
-0.695
-0.725
-0.745
-0.725
-0.72
-0.73
-0.725
-0.74
-0.745
-0.755
-0.725
-0.705
-0.715
-0.73
-0.72
-0.72
-0.685
-0.67
-0.665
-0.67
-0.665
-0.64
-0.615
-0.59
-0.56
-0.545
-0.535
-0.52
-0.485
-0.45
-0.43
-0.435
-0.415
-0.395
-0.36
-0.34
-0.335
-0.345
-0.345
-0.33
-0.325
-0.31
-0.3
-0.325
-0.33
-0.34
-0.34
-0.31
-0.31
-0.325
-0.345
-0.335
-0.32
-0.31
-0.32
-0.33
-0.35
-0.345
-0.32
-0.32
-0.315
-0.325
-0.335
-0.33
-0.31
-0.315
-0.305
-0.32
-0.32
-0.32
-0.32
-0.32
-0.32
-0.31
-0.325
-0.31
-0.29
-0.255
-0.275
-0.255
-0.23
-0.19
-0.145
-0.075
-0.02
0.035
0.095
0.185
0.285
0.39
0.475
0.53
0.59
0.67
0.76
0.85
0.94
0.99
1.035
1.115
1.2
1.285
1.305
1.28
1.23
1.195
1.155
1.115
1.095
1.05
1.035
1.02
1.01
1.01
1.005
1.005
1.035
1.065
1.05
0.97
0.835
0.61
0.365
0.15
-0.02
-0.14
-0.24
-0.355
-0.44
-0.485
-0.5
-0.505
-0.525
-0.575
-0.6
-0.62
-0.625
-0.63
-0.635
-0.665
-0.675
-0.68
-0.68
-0.685
-0.685
-0.71
-0.73
-0.735
-0.735
-0.73
-0.725
-0.755
-0.785
-0.785
-0.785
-0.77
-0.78
-0.805
-0.82
-0.82
-0.815
-0.815
-0.84
-0.86
-0.87
-0.865
-0.87
-0.855
-0.85
-0.885
-0.895
-0.88
-0.86
-0.855
-0.865
-0.87
-0.885
-0.86
-0.845
-0.83
-0.82
-0.825
-0.815
-0.8
-0.775
-0.745
-0.725
-0.72
-0.71
-0.7
-0.655
-0.615
-0.6
-0.58
-0.565
-0.535
-0.51
-0.48
-0.455
-0.445
-0.45
-0.435
-0.415
-0.385
-0.38
-0.38
-0.39
-0.385
-0.37
-0.355
-0.355
-0.385
-0.395
-0.38
-0.375
-0.375
-0.36
-0.375
-0.38
-0.385
-0.37
-0.37
-0.37
-0.38
-0.385
-0.37
-0.375
-0.35
-0.35
-0.37
-0.37
-0.365
-0.345
-0.335
-0.34
-0.345
-0.35
-0.36
-0.345
-0.335
-0.335
-0.355
-0.355
-0.34
-0.335
-0.315
-0.325
-0.34
-0.335
-0.35
-0.345
-0.335
-0.33
-0.34
-0.36
-0.34
-0.335
-0.32
-0.325
-0.345
-0.36
-0.35
-0.335
-0.315
-0.305
-0.325
-0.335
-0.34
-0.325
-0.315
-0.32
-0.325
-0.335
-0.33
-0.31
-0.32
-0.33
-0.33
-0.34
-0.325
-0.305
-0.31
-0.295
-0.31
-0.33
-0.325
-0.31
-0.295
-0.31
-0.31
-0.315
-0.315
-0.3
-0.3
-0.295
-0.315
-0.32
-0.31
-0.31
-0.315
-0.315
-0.32
-0.33
-0.32
-0.32
-0.305
-0.29
-0.305
-0.315
-0.34
-0.29
-0.26
-0.275
-0.305
-0.315
-0.315
-0.285
-0.28
-0.295
-0.3
-0.31
-0.3
-0.285
-0.265
-0.275
-0.295
-0.305
-0.285
-0.27
-0.255
-0.26
-0.275
-0.28
-0.265
-0.25
-0.21
-0.2
-0.21
-0.205
-0.215
-0.185
-0.155
-0.12
-0.125
-0.135
-0.125
-0.11
-0.11
-0.13
-0.14
-0.175
-0.17
-0.155
-0.17
-0.18
-0.215
-0.24
-0.24
-0.24
-0.245
-0.235
-0.275
-0.29
-0.295
-0.285
-0.265
-0.275
-0.28
-0.285
-0.29
-0.29
-0.28
-0.27
-0.275
-0.285
-0.28
-0.275
-0.27
-0.255
-0.265
-0.295
-0.305
-0.26
-0.17
-0.035
0.125
0.33
0.655
1.015
1.35
1.575
1.61
1.395
1.045
0.66
0.295
0.02
-0.13
-0.195
-0.22
-0.245
-0.265
-0.235
-0.23
-0.245
-0.255
-0.26
-0.255
-0.26
-0.28
-0.29
-0.3
-0.285
-0.27
-0.265
-0.285
-0.29
-0.29
-0.275
-0.255
-0.245
-0.28
-0.275
-0.27
-0.265
-0.24
-0.245
-0.27
-0.265
-0.255
-0.24
-0.22
-0.225
-0.22
-0.23
-0.225
-0.205
-0.185
-0.175
-0.185
-0.195
-0.175
-0.155
-0.145
-0.145
-0.155
-0.15
-0.125
-0.115
-0.08
-0.085
-0.08
-0.065
-0.07
-0.04
-0.02
-0.005
0.015
0.01
0.025
0.05
0.08
0.1
0.095
0.09
0.115
0.14
0.17
0.18
0.17
0.165
0.16
0.19
0.205
0.215
0.195
0.205
0.195
0.195
0.2
0.19
0.165
0.115
0.125
0.1
0.085
0.065
0.02
-0.005
-0.02
-0.04
-0.055
-0.075
-0.12
-0.13
-0.145
-0.155
-0.165
-0.16
-0.2
-0.21
-0.21
-0.2
-0.19
-0.195
-0.215
-0.23
-0.225
-0.205
-0.19
-0.195
-0.205
-0.21
-0.225
-0.2
-0.19
-0.19
-0.21
-0.215
-0.205
-0.19
-0.185
-0.175
-0.195
-0.215
-0.21
-0.185
-0.175
-0.18
-0.185
-0.195
-0.195
-0.18
-0.155
-0.15
-0.16
-0.15
-0.12
-0.105
-0.105
-0.105
-0.105
-0.095
-0.07
-0.05
-0.025
-0.02
-0.045
-0.06
-0.04
-0.035
-0.03
-0.03
-0.055
-0.1
-0.105
-0.11
-0.11
-0.13
-0.15
-0.18
-0.17
-0.15
-0.115
-0.08
-0.04
-0.025
0.045
0.1
0.185
0.255
0.31
0.365
0.445
0.535
0.605
0.65
0.695
0.76
0.855
0.96
1.055
1.13
1.205
1.305
1.37
1.42
1.415
1.38
1.38
1.445
1.505
1.575
1.65
1.72
1.76
1.77
1.71
1.49
1.21
0.94
0.69
0.415
0.175
0.005
-0.13
-0.24
-0.34
-0.395
-0.415
-0.43
-0.45
-0.48
-0.5
-0.52
-0.525
-0.525
-0.515
-0.53
-0.55
-0.585
-0.575
-0.575
-0.56
-0.575
-0.59
-0.605
-0.615
-0.61
-0.605
-0.6
-0.62
-0.64
-0.655
-0.64
-0.63
-0.635
-0.67
-0.685
-0.695
-0.69
-0.675
-0.695
-0.705
-0.725
-0.725
-0.72
-0.705
-0.725
-0.74
-0.755
-0.755
-0.75
-0.745
-0.735
-0.76
-0.76
-0.755
-0.74
-0.72
-0.715
-0.72
-0.72
-0.71
-0.68
-0.67
-0.655
-0.66
-0.65
-0.635
-0.59
-0.56
-0.54
-0.54
-0.53
-0.51
-0.46
-0.425
-0.39
-0.38
-0.365
-0.34
-0.315
-0.31
-0.295
-0.31
-0.315
-0.295
-0.29
-0.28
-0.275
-0.295
-0.305
-0.3
-0.285
-0.28
-0.275
-0.305
-0.32
-0.315
-0.3
-0.295
-0.29
-0.31
-0.32
-0.305
-0.3
-0.29
-0.305
-0.305
-0.32
-0.32
-0.305
-0.295
-0.3
-0.305
-0.315
-0.305
-0.29
-0.275
-0.265
-0.285
-0.29
-0.27
-0.245
-0.215
-0.19
-0.18
-0.155
-0.115
-0.045
0.015
0.075
0.13
0.185
0.275
0.365
0.455
0.525
0.595
0.65
0.735
0.825
0.89
0.965
1.01
1.075
1.17
1.255
1.295
1.275
1.225
1.19
1.16
1.145
1.11
1.07
1.05
0.995
0.975
0.98
0.99
1.005
1.025
1.06
1.08
1.08
1.03
0.92
0.77
0.555
0.33
0.11
-0.08
-0.225
-0.335
-0.4
-0.445
-0.47
-0.49
-0.515
-0.56
-0.585
-0.595
-0.59
-0.595
-0.615
-0.645
-0.665
-0.665
-0.66
-0.65
-0.665
-0.685
-0.7
-0.71
-0.705
-0.695
-0.71
-0.73
-0.755
-0.76
-0.755
-0.765
-0.755
-0.775
-0.815
-0.805
-0.8
-0.79
-0.795
-0.82
-0.855
-0.835
-0.85
-0.82
-0.835
-0.84
-0.84
-0.84
-0.83
-0.82
-0.825
-0.85
-0.845
-0.84
-0.82
-0.805
-0.79
-0.8
-0.8
-0.79
-0.755
-0.735
-0.72
-0.725
-0.72
-0.695
-0.665
-0.64
-0.62
-0.61
-0.6
-0.575
-0.525
-0.51
-0.495
-0.49
-0.48
-0.45
-0.435
-0.4
-0.395
-0.405
-0.41
-0.385
-0.365
-0.355
-0.355
-0.37
-0.37
-0.365
-0.35
-0.345
-0.355
-0.36
-0.385
-0.37
-0.355
-0.34
-0.36
-0.36
-0.37
-0.37
-0.36
-0.355
-0.355
-0.38
-0.39
-0.38
-0.37
-0.335
-0.35
-0.365
-0.37
-0.38
-0.365
-0.35
-0.345
-0.36
-0.365
-0.355
-0.345
-0.33
-0.34
-0.345
-0.345
-0.34
-0.335
-0.325
-0.325
-0.34
-0.345
-0.35
-0.335
-0.325
-0.32
-0.34
-0.345
-0.34
-0.335
-0.32
-0.315
-0.32
-0.34
-0.355
-0.33
-0.31
-0.315
-0.34
-0.345
-0.345
-0.335
-0.315
-0.315
-0.34
-0.36
-0.355
-0.34
-0.305
-0.305
-0.325
-0.35
-0.345
-0.335
-0.31
-0.31
-0.33
-0.345
-0.34
-0.325
-0.315
-0.31
-0.335
-0.34
-0.325
-0.32
-0.315
-0.31
-0.33
-0.335
-0.345
-0.33
-0.32
-0.325
-0.33
-0.345
-0.335
-0.325
-0.315
-0.315
-0.335
-0.34
-0.335
-0.325
-0.315
-0.31
-0.325
-0.34
-0.355
-0.325
-0.32
-0.32
-0.33
-0.355
-0.345
-0.33
-0.32
-0.335
-0.35
-0.35
-0.345
-0.33
-0.33
-0.32
-0.34
-0.35
-0.35
-0.325
-0.315
-0.32
-0.335
-0.335
-0.335
-0.335
-0.31
-0.32
-0.33
-0.34
-0.34
-0.33
-0.315
-0.32
-0.34
-0.34
-0.335
-0.325
-0.31
-0.31
-0.325
-0.35
-0.34
-0.32
-0.3
-0.295
-0.31
-0.305
-0.275
-0.245
-0.23
-0.235
-0.255
-0.245
-0.22
-0.195
-0.17
-0.16
-0.17
-0.195
-0.185
-0.18
-0.18
-0.2
-0.215
-0.24
-0.245
-0.25
-0.255
-0.28
-0.315
-0.335
-0.35
-0.32
-0.31
-0.325
-0.345
-0.35
-0.35
-0.34
-0.32
-0.33
-0.33
-0.355
-0.35
-0.34
-0.325
-0.32
-0.33
-0.345
-0.345
-0.335
-0.33
-0.33
-0.345
-0.37
-0.375
-0.365
-0.305
-0.22
-0.11
0.05
0.285
0.59
0.92
1.195
1.42
1.475
1.36
1.085
0.755
0.405
0.08
-0.13
-0.225
-0.26
-0.29
-0.335
-0.355
-0.36
-0.33
-0.32
-0.33
-0.34
-0.365
-0.375
-0.38
-0.355
-0.36
-0.375
-0.38
-0.385
-0.38
-0.375
-0.355
-0.36
-0.385
-0.39
-0.375
-0.36
-0.36
-0.375
-0.38
-0.375
-0.38
-0.36
-0.33
-0.325
-0.34
-0.34
-0.33
-0.315
-0.31
-0.305
-0.315
-0.315
-0.31
-0.305
-0.3
-0.305
-0.3
-0.305
-0.29
-0.255
-0.235
-0.24
-0.24
-0.25
-0.25
-0.22
-0.21
-0.205
-0.205
-0.195
-0.18
-0.155
-0.14
-0.13
-0.125
-0.12
-0.12
-0.105
-0.07
-0.055
-0.065
-0.075
-0.045
-0.025
-0.01
0.005
0.0
-0.005
0.025
0.04
0.055
0.065
0.045
0.05
0.05
0.065
0.075
0.065
0.045
0.02
0.03
0.025
0.025
-0.015
-0.025
-0.07
-0.085
-0.095
-0.12
-0.155
-0.18
-0.21
-0.22
-0.22
-0.225
-0.25
-0.275
-0.305
-0.315
-0.31
-0.305
-0.325
-0.34
-0.35
-0.345
-0.335
-0.33
-0.33
-0.35
-0.37
-0.38
-0.365
-0.345
-0.335
-0.36
-0.36
-0.355
-0.335
-0.34
-0.335
-0.355
-0.365
-0.345
-0.335
-0.32
-0.33
-0.355
-0.365
-0.35
-0.33
-0.32
-0.34
-0.355
-0.36
-0.355
-0.34
-0.33
-0.34
-0.355
-0.365
-0.35
-0.345
-0.335
-0.335
-0.345
-0.345
-0.345
-0.32
-0.305
-0.3
-0.295
-0.295
-0.295
-0.27
-0.255
-0.25
-0.255
-0.25
-0.22
-0.21
-0.205
-0.205
-0.21
-0.215
-0.205
-0.165
-0.13
-0.11
-0.09
-0.055
-0.015
0.045
0.105
0.16
0.21
0.255
0.305
0.405
0.485
0.545
0.6
0.67
0.76
0.845
0.92
0.98
1.035
1.12
1.22
1.295
1.315
1.295
1.225
1.175
1.14
1.13
1.09
1.055
1.02
0.99
0.96
0.94
0.935
0.915
0.885
0.905
0.93
0.915
0.88
0.785
0.65
0.46
0.255
0.015
-0.175
-0.345
-0.465
-0.54
-0.6
-0.615
-0.64
-0.675
-0.7
-0.715
-0.72
-0.72
-0.725
-0.735
-0.755
-0.775
-0.79
-0.79
-0.8
-0.8
-0.81
-0.84
-0.84
-0.82
-0.815
-0.825
-0.855
-0.88
-0.875
-0.86
-0.875
-0.875
-0.91
-0.92
-0.93
-0.925
-0.92
-0.93
-0.96
-0.975
-0.975
-0.97
-0.97
-0.99
-1.0
-1.005
-1.005
-1.0
-1.01
-1.0
-1.015
-1.03
-1.015
-0.99
-0.97
-0.97
-0.975
-0.975
-0.965
-0.945
-0.92
-0.91
-0.895
-0.865
-0.845
-0.815
-0.79
-0.76
-0.75
-0.725
-0.695
-0.655
-0.605
-0.6
-0.59
-0.57
-0.545
-0.52
-0.495
-0.485
-0.505
-0.49
-0.465
-0.45
-0.425
-0.425
-0.445
-0.445
-0.43
-0.425
-0.42
-0.415
-0.45
-0.445
-0.455
-0.445
-0.42
-0.435
-0.45
-0.455
-0.47
-0.455
-0.435
-0.44
-0.445
-0.445
-0.45
-0.455
-0.445
-0.455
-0.455
-0.465
-0.455
-0.435
-0.425
-0.425
-0.45
-0.46
-0.455
-0.445
-0.42
-0.415
-0.435
-0.435
-0.44
-0.425
-0.42
-0.425
-0.42
-0.425
-0.415
-0.39
-0.375
-0.375
-0.345
-0.325
-0.27
-0.21
-0.15
-0.11
-0.05
0.01
0.07
0.17
0.245
0.3
0.37
0.44
0.515
0.585
0.67
0.76
0.835
0.895
0.965
1.075
1.185
1.265
1.27
1.22
1.145
1.085
1.05
1.01
0.975
0.96
0.955
0.945
0.945
0.94
0.955
0.99
1.035
1.07
1.045
0.945
0.78
0.575
0.34
0.13
-0.065
-0.235
-0.365
-0.47
-0.53
-0.555
-0.565
-0.595
-0.62
-0.655
-0.68
-0.68
-0.69
-0.71
-0.735
-0.745
-0.76
-0.755
-0.75
-0.76
-0.785
-0.81
-0.815
-0.8
-0.815
-0.805
-0.83
-0.845
-0.855
-0.84
-0.845
-0.855
-0.9
-0.905
-0.905
-0.92
-0.915
-0.915
-0.925
-0.945
-0.945
-0.935
-0.93
-0.94
-0.965
-0.985
-0.985
-0.97
-0.97
-0.975
-0.98
-0.995
-0.99
-0.99
-0.965
-0.965
-0.985
-0.985
-0.985
-0.945
-0.925
-0.92
-0.92
-0.915
-0.885
-0.855
-0.83
-0.81
-0.8
-0.79
-0.76
-0.71
-0.675
-0.64
-0.63
-0.605
-0.585
-0.555
-0.51
-0.5
-0.5
-0.5
-0.475
-0.46
-0.42
-0.425
-0.445
-0.45
-0.43
-0.415
-0.405
-0.41
-0.42
-0.43
-0.425
-0.415
-0.41
-0.41
-0.425
-0.43
-0.43
-0.415
-0.415
-0.41
-0.43
-0.425
-0.435
-0.41
-0.395
-0.405
-0.415
-0.425
-0.42
-0.415
-0.4
-0.405
-0.41
-0.42
-0.43
-0.4
-0.39
-0.39
-0.405
-0.4
-0.41
-0.395
-0.37
-0.375
-0.38
-0.41
-0.39
-0.38
-0.36
-0.365
-0.375
-0.38
-0.375
-0.36
-0.36
-0.345
-0.37
-0.36
-0.36
-0.35
-0.335
-0.345
-0.35
-0.365
-0.36
-0.345
-0.345
-0.35
-0.355
-0.365
-0.36
-0.335
-0.33
-0.34
-0.345
-0.355
-0.35
-0.345
-0.335
-0.335
-0.345
-0.355
-0.355
-0.33
-0.33
-0.325
-0.335
-0.35
-0.34
-0.34
-0.325
-0.32
-0.33
-0.34
-0.34
-0.32
-0.305
-0.315
-0.32
-0.335
-0.335
-0.315
-0.305
-0.305
-0.315
-0.33
-0.33
-0.315
-0.315
-0.31
-0.315
-0.33
-0.33
-0.325
-0.305
-0.31
-0.33
-0.33
-0.315
-0.32
-0.305
-0.305
-0.32
-0.33
-0.325
-0.315
-0.29
-0.295
-0.31
-0.33
-0.31
-0.29
-0.285
-0.275
-0.295
-0.28
-0.27
-0.225
-0.2
-0.21
-0.22
-0.22
-0.2
-0.16
-0.145
-0.145
-0.15
-0.155
-0.155
-0.145
-0.145
-0.155
-0.185
-0.205
-0.215
-0.205
-0.205
-0.235
-0.255
-0.28
-0.28
-0.28
-0.275
-0.285
-0.31
-0.31
-0.33
-0.31
-0.29
-0.3
-0.31
-0.325
-0.325
-0.295
-0.295
-0.3
-0.325
-0.33
-0.335
-0.3
-0.29
-0.3
-0.305
-0.32
-0.31
-0.335
-0.31
-0.27
-0.18
-0.065
0.105
0.36
0.665
0.97
1.235
1.435
1.575
1.505
1.235
0.885
0.495
0.135
-0.075
-0.165
-0.2
-0.25
-0.305
-0.335
-0.295
-0.265
-0.255
-0.28
-0.295
-0.32
-0.325
-0.305
-0.31
-0.31
-0.315
-0.33
-0.335
-0.32
-0.31
-0.305
-0.315
-0.33
-0.315
-0.305
-0.3
-0.29
-0.295
-0.32
-0.31
-0.305
-0.28
-0.285
-0.3
-0.305
-0.285
-0.265
-0.255
-0.245
-0.26
-0.265
-0.26
-0.24
-0.215
-0.225
-0.225
-0.23
-0.21
-0.185
-0.165
-0.15
-0.18
-0.175
-0.16
-0.13
-0.11
-0.11
-0.105
-0.095
-0.09
-0.055
-0.025
-0.025
-0.03
-0.025
0.005
0.035
0.065
0.065
0.065
0.05
0.08
0.115
0.135
0.14
0.145
0.155
0.165
0.19
0.2
0.215
0.195
0.19
0.19
0.19
0.195
0.185
0.155
0.15
0.13
0.12
0.11
0.075
0.045
0.01
0.0
-0.01
-0.02
-0.05
-0.1
-0.13
-0.14
-0.145
-0.145
-0.16
-0.185
-0.225
-0.225
-0.21
-0.205
-0.225
-0.23
-0.245
-0.245
-0.24
-0.245
-0.25
-0.25
-0.255
-0.26
-0.255
-0.23
-0.235
-0.26
-0.26
-0.27
-0.245
-0.235
-0.24
-0.24
-0.25
-0.25
-0.235
-0.225
-0.23
-0.235
-0.245
-0.26
-0.235
-0.22
-0.22
-0.23
-0.25
-0.23
-0.225
-0.205
-0.195
-0.21
-0.215
-0.18
-0.16
-0.14
-0.13
-0.155
-0.155
-0.125
-0.11
-0.08
-0.065
-0.07
-0.08
-0.08
-0.08
-0.05
-0.08
-0.11
-0.115
-0.135
-0.12
-0.115
-0.13
-0.15
-0.175
-0.175
-0.135
-0.09
-0.05
-0.025
0.01
0.06
0.135
0.21
0.29
0.36
0.44
0.505
0.585
0.65
0.7
0.775
0.845
0.92
1.025
1.11
1.19
1.275
1.345
1.395
1.38
1.33
1.265
1.225
1.21
1.245
1.305
1.33
1.34
1.38
1.41
1.44
1.46
1.41
1.275
1.05
0.785
0.54
0.28
0.065
-0.12
-0.28
-0.39
-0.445
-0.455
-0.47
-0.48
-0.525
-0.555
-0.565
-0.56
-0.56
-0.565
-0.61
-0.625
-0.62
-0.625
-0.62
-0.62
-0.635
-0.655
-0.655
-0.65
-0.665
-0.66
-0.665
-0.685
-0.69
-0.7
-0.69
-0.705
-0.73
-0.74
-0.745
-0.74
-0.74
-0.74
-0.765
-0.8
-0.78
-0.785
-0.765
-0.775
-0.79
-0.795
-0.8
-0.785
-0.78
-0.78
-0.8
-0.8
-0.795
-0.78
-0.76
-0.755
-0.765
-0.76
-0.75
-0.72
-0.72
-0.685
-0.685
-0.675
-0.655
-0.62
-0.585
-0.555
-0.555
-0.53
-0.5
-0.465
-0.425
-0.395
-0.385
-0.385
-0.365
-0.35
-0.34
-0.33
-0.335
-0.345
-0.34
-0.33
-0.305
-0.315
-0.325
-0.335
-0.33
-0.33
-0.325
-0.31
-0.33
-0.35
-0.345
-0.35
-0.32
-0.32
-0.335
-0.36
-0.345
-0.33
-0.335
-0.34
-0.355
-0.355
-0.36
-0.33
-0.335
-0.335
-0.335
-0.345
-0.34
-0.335
-0.32
-0.31
-0.32
-0.335
-0.335
-0.32
-0.295
-0.28
-0.285
-0.29
-0.265
-0.24
-0.195
-0.15
-0.135
-0.09
-0.03
0.05
0.12
0.18
0.23
0.295
0.38
0.49
0.575
0.635
0.695
0.755
0.83
0.91
0.98
1.045
1.125
1.2
1.25
1.28
1.265
1.22
1.175
1.145
1.11
1.08
1.06
1.025
0.965
0.925
0.925
0.945
0.96
0.995
1.02
1.02
0.965
0.9
0.775
0.61
0.39
0.165
-0.045
-0.185
-0.295
-0.37
-0.445
-0.505
-0.53
-0.535
-0.54
-0.56
-0.605
-0.63
-0.635
-0.635
-0.63
-0.645
-0.665
-0.69
-0.7
-0.69
-0.685
-0.7
-0.72
-0.74
-0.745
-0.74
-0.725
-0.74
-0.76
-0.77
-0.775
-0.77
-0.77
-0.77
-0.805
-0.815
-0.8
-0.785
-0.785
-0.79
-0.825
-0.845
-0.85
-0.835
-0.835
-0.84
-0.855
-0.87
-0.87
-0.84
-0.825
-0.815
-0.825
-0.825
-0.83
-0.805
-0.785
-0.775
-0.785
-0.775
-0.76
-0.73
-0.705
-0.705
-0.705
-0.69
-0.675
-0.64
-0.605
-0.585
-0.58
-0.56
-0.54
-0.5
-0.46
-0.46
-0.455
-0.455
-0.435
-0.41
-0.39
-0.38
-0.405
-0.4
-0.395
-0.375
-0.355
-0.36
-0.385
-0.405
-0.405
-0.38
-0.375
-0.37
-0.385
-0.39
-0.375
-0.37
-0.38
-0.385
-0.4
-0.405
-0.41
-0.385
-0.36
-0.365
-0.375
-0.385
-0.38
-0.37
-0.365
-0.355
-0.375
-0.39
-0.4
-0.37
-0.355
-0.36
-0.36
-0.36
-0.355
-0.345
-0.335
-0.35
-0.365
-0.37
-0.37
-0.355
-0.34
-0.335
-0.35
-0.35
-0.34
-0.33
-0.32
-0.32
-0.33
-0.335
-0.33
-0.32
-0.305
-0.3
-0.32
-0.34
-0.33
-0.31
-0.31
-0.3
-0.335
-0.335
-0.32
-0.305
-0.305
-0.305
-0.32
-0.335
-0.32
-0.31
-0.32
-0.31
-0.325
-0.34
-0.325
-0.305
-0.3
-0.32
-0.335
-0.33
-0.32
-0.3
-0.28
-0.295
-0.31
-0.315
-0.315
-0.305
-0.3
-0.29
-0.295
-0.305
-0.31
-0.3
-0.29
-0.305
-0.31
-0.315
-0.3
-0.29
-0.295
-0.3
-0.295
-0.3
-0.305
-0.28
-0.27
-0.27
-0.285
-0.3
-0.3
-0.295
-0.27
-0.26
-0.26
-0.28
-0.27
-0.23
-0.215
-0.21
-0.215
-0.22
-0.205
-0.17
-0.155
-0.13
-0.135
-0.155
-0.135
-0.13
-0.115
-0.13
-0.16
-0.17
-0.175
-0.175
-0.175
-0.195
-0.23
-0.235
-0.245
-0.24
-0.235
-0.25
-0.28
-0.3
-0.29
-0.275
-0.26
-0.27
-0.285
-0.285
-0.3
-0.265
-0.265
-0.265
-0.265
-0.28
-0.265
-0.255
-0.26
-0.26
-0.27
-0.28
-0.275
-0.28
-0.28
-0.255
-0.185
-0.065
0.11
0.36
0.64
0.88
1.14
1.37
1.545
1.565
1.36
0.985
0.58
0.19
-0.085
-0.2
-0.22
-0.24
-0.26
-0.275
-0.27
-0.23
-0.215
-0.25
-0.27
-0.29
-0.305
-0.28
-0.27
-0.285
-0.285
-0.295
-0.295
-0.285
-0.275
-0.255
-0.275
-0.3
-0.27
-0.265
-0.255
-0.25
-0.275
-0.28
-0.27
-0.245
-0.24
-0.235
-0.255
-0.26
-0.245
-0.225
-0.21
-0.21
-0.215
-0.23
-0.215
-0.215
-0.195
-0.19
-0.2
-0.195
-0.185
-0.17
-0.155
-0.155
-0.15
-0.155
-0.135
-0.11
-0.105
-0.105
-0.085
-0.085
-0.075
-0.05
-0.02
-0.015
-0.01
-0.005
0.01
0.03
0.05
0.06
0.065
0.07
0.095
0.12
0.135
0.14
0.135
0.14
0.15
0.175
0.19
0.205
0.175
0.18
0.175
0.19
0.2
0.185
0.165
0.145
0.105
0.105
0.095
0.075
0.04
0.0
-0.01
-0.025
-0.05
-0.08
-0.095
-0.13
-0.155
-0.145
-0.15
-0.155
-0.195
-0.21
-0.215
-0.2
-0.205
-0.205
-0.235
-0.23
-0.245
-0.245
-0.22
-0.24
-0.245
-0.255
-0.235
-0.23
-0.215
-0.215
-0.235
-0.25
-0.24
-0.225
-0.21
-0.205
-0.22
-0.245
-0.225
-0.2
-0.185
-0.19
-0.2
-0.215
-0.21
-0.2
-0.185
-0.185
-0.19
-0.185
-0.175
-0.135
-0.12
-0.12
-0.135
-0.13
-0.115
-0.075
-0.055
-0.05
-0.07
-0.08
-0.08
-0.075
-0.06
-0.06
-0.085
-0.105
-0.115
-0.105
-0.115
-0.13
-0.175
-0.195
-0.2
-0.21
-0.205
-0.215
-0.23
-0.255
-0.245
-0.23
-0.215
-0.205
-0.19
-0.16
-0.09
-0.015
0.04
0.12
0.18
0.255
0.345
0.42
0.495
0.56
0.595
0.62
0.7
0.81
0.885
0.935
1.0
1.13
1.305
1.49
1.67
1.815
1.92
2.01
2.095
2.05
1.76
1.35
0.92
0.545
0.275
0.085
-0.075
-0.195
-0.29
-0.33
-0.325
-0.315
-0.35
-0.39
-0.405
-0.435
-0.43
-0.425
-0.425
-0.445
-0.455
-0.47
-0.475
-0.465
-0.445
-0.45
-0.47
-0.5
-0.495
-0.48
-0.47
-0.47
-0.485
-0.51
-0.505
-0.5
-0.485
-0.5
-0.505
-0.52
-0.525
-0.525
-0.51
-0.53
-0.545
-0.555
-0.56
-0.55
-0.545
-0.555
-0.57
-0.565
-0.58
-0.565
-0.555
-0.555
-0.575
-0.57
-0.565
-0.55
-0.535
-0.535
-0.535
-0.54
-0.525
-0.495
-0.47
-0.47
-0.465
-0.455
-0.44
-0.405
-0.385
-0.36
-0.375
-0.375
-0.345
-0.31
-0.265
-0.255
-0.265
-0.265
-0.255
-0.24
-0.225
-0.245
-0.265
-0.26
-0.25
-0.26
-0.23
-0.245
-0.27
-0.28
-0.28
-0.265
-0.26
-0.265
-0.285
-0.29
-0.28
-0.28
-0.28
-0.265
-0.28
-0.285
-0.285
-0.265
-0.265
-0.265
-0.285
-0.295
-0.27
-0.265
-0.265
-0.26
-0.27
-0.29
-0.275
-0.26
-0.245
-0.25
-0.27
-0.285
-0.275
-0.27
-0.25
-0.25
-0.275
-0.265
-0.265
-0.23
-0.215
-0.215
-0.215
-0.21
-0.175
-0.125
-0.085
-0.05
-0.025
0.03
0.12
0.215
0.315
0.41
0.475
0.56
0.67
0.765
0.865
0.97
1.06
1.135
1.185
1.275
1.345
1.405
1.415
1.385
1.315
1.26
1.205
1.155
1.09
1.035
0.995
0.975
0.96
0.95
0.945
0.935
0.96
1.035
1.06
1.01
0.91
0.785
0.625
0.435
0.22
0.01
-0.175
-0.31
-0.385
-0.415
-0.45
-0.47
-0.515
-0.54
-0.55
-0.58
-0.58
-0.59
-0.61
-0.635
-0.64
-0.645
-0.64
-0.66
-0.695
-0.685
-0.7
-0.685
-0.685
-0.685
-0.715
-0.725
-0.73
-0.73
-0.74
-0.74
-0.765
-0.775
-0.77
-0.765
-0.765
-0.77
-0.79
-0.8
-0.8
-0.795
-0.795
-0.785
-0.81
-0.815
-0.82
-0.805
-0.78
-0.795
-0.815
-0.805
-0.78
-0.775
-0.75
-0.735
-0.725
-0.71
-0.68
-0.64
-0.6
-0.58
-0.55
-0.545
-0.51
-0.475
-0.425
-0.425
-0.41
-0.4
-0.38
-0.355
-0.345
-0.34
-0.355
-0.35
-0.345
-0.33
-0.32
-0.32
-0.35
-0.35
-0.35
-0.335
-0.33
-0.335
-0.35
-0.36
-0.345
-0.34
-0.325
-0.335
-0.36
-0.365
-0.355
-0.34
-0.325
-0.325
-0.34
-0.35
-0.345
-0.33
-0.32
-0.33
-0.355
-0.34
-0.34
-0.315
-0.31
-0.315
-0.32
-0.325
-0.32
-0.305
-0.295
-0.305
-0.31
-0.315
-0.32
-0.3
-0.285
-0.285
-0.29
-0.305
-0.315
-0.29
-0.285
-0.28
-0.295
-0.305
-0.305
-0.295
-0.275
-0.285
-0.29
-0.3
-0.29
-0.275
-0.265
-0.27
-0.29
-0.29
-0.29
-0.28
-0.275
-0.265
-0.285
-0.305
-0.29
-0.265
-0.25
-0.27
-0.265
-0.28
-0.28
-0.26
-0.255
-0.26
-0.27
-0.285
-0.275
-0.265
-0.25
-0.255
-0.27
-0.275
-0.265
-0.255
-0.245
-0.25
-0.27
-0.275
-0.27
-0.27
-0.245
-0.255
-0.255
-0.265
-0.25
-0.24
-0.23
-0.245
-0.245
-0.245
-0.245
-0.195
-0.16
-0.155
-0.17
-0.175
-0.17
-0.13
-0.11
-0.105
-0.11
-0.11
-0.11
-0.09
-0.095
-0.1
-0.13
-0.14
-0.145
-0.16
-0.16
-0.19
-0.21
-0.24
-0.235
-0.25
-0.23
-0.245
-0.26
-0.28
-0.28
-0.28
-0.265
-0.26
-0.28
-0.3
-0.27
-0.275
-0.26
-0.245
-0.265
-0.27
-0.255
-0.26
-0.235
-0.24
-0.255
-0.27
-0.28
-0.255
-0.24
-0.165
-0.08
0.06
0.27
0.515
0.77
1.025
1.245
1.45
1.55
1.395
1.065
0.635
0.26
0.005
-0.095
-0.135
-0.18
-0.23
-0.27
-0.27
-0.255
-0.22
-0.235
-0.255
-0.27
-0.285
-0.285
-0.28
-0.265
-0.285
-0.285
-0.295
-0.28
-0.26
-0.26
-0.265
-0.275
-0.28
-0.28
-0.25
-0.25
-0.245
-0.27
-0.275
-0.275
-0.255
-0.24
-0.23
-0.245
-0.25
-0.245
-0.235
-0.205
-0.21
-0.21
-0.22
-0.22
-0.21
-0.195
-0.19
-0.205
-0.2
-0.19
-0.16
-0.145
-0.13
-0.14
-0.14
-0.12
-0.1
-0.09
-0.065
-0.065
-0.05
-0.045
-0.015
0.0
-0.005
-0.01
-0.005
0.02
0.045
0.065
0.085
0.08
0.07
0.09
0.13
0.135
0.135
0.14
0.14
0.145
0.165
0.175
0.185
0.16
0.16
0.15
0.145
0.13
0.115
0.085
0.045
0.025
0.02
0.005
-0.015
-0.045
-0.075
-0.105
-0.115
-0.12
-0.145
-0.18
-0.205
-0.215
-0.21
-0.215
-0.22
-0.235
-0.25
-0.25
-0.26
-0.245
-0.255
-0.27
-0.265
-0.27
-0.25
-0.245
-0.25
-0.265
-0.27
-0.265
-0.24
-0.225
-0.235
-0.25
-0.27
-0.27
-0.26
-0.24
-0.24
-0.255
-0.275
-0.26
-0.245
-0.235
-0.245
-0.255
-0.27
-0.27
-0.245
-0.24
-0.24
-0.265
-0.25
-0.245
-0.225
-0.205
-0.19
-0.19
-0.2
-0.19
-0.17
-0.165
-0.145
-0.14
-0.13
-0.11
-0.1
-0.09
-0.1
-0.115
-0.125
-0.135
-0.135
-0.145
-0.14
-0.17
-0.19
-0.19
-0.215
-0.235
-0.26
-0.275
-0.295
-0.295
-0.275
-0.27
-0.295
-0.295
-0.32
-0.33
-0.285
-0.235
-0.2
-0.165
-0.14
-0.08
0.0
0.075
0.14
0.2
0.27
0.355
0.435
0.515
0.575
0.625
0.685
0.765
0.845
0.915
0.97
1.065
1.195
1.385
1.57
1.71
1.81
1.905
1.995
2.085
2.14
2.065
1.81
1.44
1.05
0.695
0.375
0.12
-0.03
-0.16
-0.27
-0.34
-0.365
-0.39
-0.415
-0.45
-0.475
-0.485
-0.485
-0.485
-0.51
-0.53
-0.535
-0.54
-0.535
-0.535
-0.545
-0.56
-0.565
-0.56
-0.56
-0.555
-0.555
-0.56
-0.58
-0.575
-0.565
-0.565
-0.585
-0.605
-0.61
-0.615
-0.61
-0.6
-0.6
-0.625
-0.645
-0.64
-0.63
-0.625
-0.65
-0.66
-0.68
-0.67
-0.655
-0.645
-0.66
-0.69
-0.705
-0.695
-0.68
-0.675
-0.685
-0.695
-0.705
-0.725
-0.675
-0.665
-0.675
-0.67
-0.665
-0.655
-0.63
-0.63
-0.625
-0.62
-0.63
-0.605
-0.58
-0.555
-0.55
-0.54
-0.555
-0.545
-0.505
-0.475
-0.455
-0.46
-0.47
-0.445
-0.405
-0.375
-0.365
-0.38
-0.375
-0.36
-0.35
-0.345
-0.335
-0.35
-0.355
-0.36
-0.355
-0.36
-0.345
-0.36
-0.375
-0.37
-0.365
-0.37
-0.36
-0.375
-0.38
-0.375
-0.36
-0.345
-0.355
-0.365
-0.38
-0.37
-0.36
-0.35
-0.355
-0.37
-0.37
-0.36
-0.35
-0.33
-0.335
-0.355
-0.36
-0.355
-0.33
-0.325
-0.325
-0.35
-0.355
-0.355
-0.315
-0.305
-0.32
-0.335
-0.33
-0.315
-0.265
-0.23
-0.19
-0.18
-0.15
-0.08
0.01
0.075
0.155
0.215
0.27
0.345
0.445
0.545
0.635
0.72
0.8
0.9
1.01
1.125
1.195
1.28
1.355
1.425
1.44
1.415
1.345
1.28
1.23
1.205
1.185
1.15
1.14
1.075
1.02
1.01
1.015
1.03
1.05
1.045
1.02
0.955
0.83
0.68
0.51
0.295
0.095
-0.065
-0.195
-0.29
-0.375
-0.455
-0.51
-0.535
-0.555
-0.555
-0.575
-0.605
-0.65
-0.66
-0.665
-0.655
-0.66
-0.685
-0.705
-0.7
