Lead II
-0.225
-0.23
-0.245
-0.24
-0.25
-0.25
-0.225
-0.23
-0.225
-0.23
-0.235
-0.215
-0.19
-0.2
-0.22
-0.24
-0.25
-0.225
-0.21
-0.22
-0.23
-0.235
-0.245
-0.245
-0.25
-0.245
-0.24
-0.225
-0.215
-0.205
-0.19
-0.195
-0.21
-0.24
-0.235
-0.205
-0.18
-0.15
-0.165
-0.205
-0.265
-0.285
-0.29
-0.28
-0.25
-0.245
-0.25
-0.28
-0.295
-0.29
-0.265
-0.24
-0.225
-0.205
-0.165
-0.135
-0.115
-0.105
-0.12
-0.13
-0.11
-0.075
-0.065
-0.075
-0.065
-0.035
-0.025
-0.02
-0.005
0.0
-0.015
-0.02
-0.02
-0.01
-0.04
-0.06
-0.08
-0.09
-0.135
-0.195
-0.26
-0.305
-0.34
-0.34
-0.33
-0.33
-0.35
-0.36
-0.37
-0.36
-0.34
-0.34
-0.34
-0.355
-0.365
-0.36
-0.35
-0.37
-0.355
-0.35
-0.355
-0.34
-0.355
-0.36
-0.345
-0.34
-0.345
-0.325
-0.345
-0.36
-0.36
-0.34
-0.27
-0.145
0.04
0.255
0.475
0.695
0.92
1.09
1.205
1.265
1.265
1.165
1.0
0.885
0.775
0.65
0.5
0.34
0.23
0.15
0.085
-0.005
-0.115
-0.195
-0.26
-0.31
-0.375
-0.41
-0.43
-0.435
-0.445
-0.445
-0.44
-0.465
-0.5
-0.52
-0.54
-0.535
-0.53
-0.525
-0.51
-0.52
-0.515
-0.495
-0.485
-0.505
-0.505
-0.51
-0.505
-0.485
-0.48
-0.49
-0.505
-0.5
-0.5
-0.495
-0.485
-0.495
-0.495
-0.49
-0.48
-0.48
-0.455
-0.47
-0.48
-0.485
-0.495
-0.485
-0.475
-0.465
-0.46
-0.46
-0.47
-0.47
-0.455
-0.455
-0.46
-0.465
-0.475
-0.455
-0.44
-0.42
-0.405
-0.4
-0.39
-0.37
-0.37
-0.355
-0.34
-0.35
-0.34
-0.31
-0.295
-0.27
-0.255
-0.25
-0.245
-0.21
-0.2
-0.18
-0.17
-0.165
-0.16
-0.15
-0.15
-0.135
-0.14
-0.135
-0.135
-0.12
-0.125
-0.155
-0.17
-0.17
-0.17
-0.17
-0.175
-0.195
-0.205
-0.22
-0.23
-0.24
-0.225
-0.24
-0.245
-0.24
-0.26
-0.25
-0.26
-0.25
-0.26
-0.275
-0.28
-0.28
-0.26
-0.265
-0.265
-0.29
-0.3
-0.295
-0.295
-0.285
-0.3
-0.315
-0.325
-0.305
-0.28
-0.28
-0.285
-0.275
-0.28
-0.28
-0.285
-0.28
-0.305
-0.31
-0.32
-0.325
-0.315
-0.325
-0.34
-0.355
-0.35
-0.315
-0.29
-0.305
-0.33
-0.34
-0.36
-0.36
-0.355
-0.365
-0.365
-0.355
-0.36
-0.35
-0.345
-0.335
-0.345
-0.34
-0.35
-0.33
-0.31
-0.3
-0.295
-0.31
-0.305
-0.285
-0.275
-0.295
-0.3
-0.285
-0.265
-0.225
-0.195
-0.17
-0.165
-0.155
-0.185
-0.215
-0.19
-0.165
-0.145
-0.15
-0.165
-0.13
-0.095
-0.085
-0.085
-0.085
-0.085
-0.09
-0.08
-0.095
-0.115
-0.145
-0.18
-0.21
-0.255
-0.28
-0.32
-0.355
-0.385
-0.385
-0.365
-0.36
-0.36
-0.385
-0.39
-0.365
-0.365
-0.355
-0.37
-0.38
-0.365
-0.36
-0.35
-0.345
-0.34
-0.335
-0.34
-0.325
-0.315
-0.3
-0.3
-0.315
-0.35
-0.35
-0.355
-0.375
-0.355
-0.305
-0.195
-0.035
0.155
0.355
0.58
0.76
0.92
1.065
1.17
1.205
1.14
1.01
0.875
0.77
0.66
0.52
0.355
0.24
0.16
0.1
0.035
-0.045
-0.145
-0.245
-0.315
-0.375
-0.41
-0.43
-0.45
-0.48
-0.51
-0.51
-0.51
-0.51
-0.535
-0.555
-0.555
-0.54
-0.53
-0.525
-0.525
-0.535
-0.535
-0.52
-0.515
-0.48
-0.485
-0.495
-0.52
-0.525
-0.495
-0.485
-0.485
-0.485
-0.51
-0.505
-0.495
-0.5
-0.49
-0.48
-0.5
-0.5
-0.48
-0.475
-0.475
-0.47
-0.47
-0.47
-0.49
-0.475
-0.48
-0.475
-0.5
-0.495
-0.475
-0.47
-0.48
-0.48
-0.485
-0.475
-0.445
-0.44
-0.435
-0.415
-0.415
-0.395
-0.365
-0.35
-0.355
-0.37
-0.35
-0.32
-0.285
-0.27
-0.255
-0.26
-0.25
-0.23
-0.21
-0.195
-0.175
-0.19
-0.19
-0.175
-0.155
-0.15
-0.155
-0.175
-0.18
-0.19
-0.195
-0.21
-0.22
-0.235
-0.24
-0.24
-0.225
-0.23
-0.25
-0.275
-0.265
-0.26
-0.255
-0.26
-0.275
-0.3
-0.29
-0.27
-0.25
-0.25
-0.27
-0.305
-0.315
-0.31
-0.285
-0.28
-0.285
-0.295
-0.3
-0.29
-0.265
-0.275
-0.295
-0.325
-0.325
-0.28
-0.27
-0.275
-0.285
-0.295
-0.27
-0.265
-0.275
-0.285
-0.29
-0.3
-0.3
-0.275
-0.245
-0.245
-0.25
-0.255
-0.245
-0.265
-0.27
-0.27
-0.29
-0.3
-0.3
-0.285
-0.26
-0.26
-0.27
-0.29
-0.29
-0.28
-0.27
-0.265
-0.28
-0.285
-0.28
-0.265
-0.265
-0.27
-0.26
-0.27
-0.275
-0.27
-0.235
-0.205
-0.175
-0.16
-0.185
-0.17
-0.19
-0.19
-0.16
-0.115
-0.105
-0.085
-0.07
-0.07
-0.075
-0.055
-0.04
-0.025
-0.035
-0.05
-0.075
-0.08
-0.105
-0.145
-0.19
-0.25
-0.295
-0.33
-0.35
-0.345
-0.35
-0.335
-0.345
-0.355
-0.37
-0.35
-0.35
-0.34
-0.355
-0.355
-0.355
-0.325
-0.305
-0.29
-0.28
-0.29
-0.305
-0.295
-0.275
-0.27
-0.28
-0.3
-0.31
-0.32
-0.315
-0.3
-0.285
-0.27
-0.185
-0.02
0.175
0.395
0.615
0.81
0.98
1.13
1.23
1.23
1.135
1.01
0.895
0.805
0.705
0.59
0.44
0.32
0.24
0.195
0.14
0.055
-0.045
-0.125
-0.205
-0.29
-0.345
-0.385
-0.405
-0.44
-0.48
-0.475
-0.49
-0.48
-0.5
-0.51
-0.515
-0.51
-0.495
-0.485
-0.48
-0.49
-0.49
-0.485
-0.455
-0.445
-0.44
-0.46
-0.48
-0.475
-0.47
-0.465
-0.465
-0.465
-0.47
-0.47
-0.47
-0.46
-0.44
-0.44
-0.44
-0.435
-0.43
-0.43
-0.43
-0.43
-0.41
-0.405
-0.41
-0.41
-0.42
-0.44
-0.45
-0.435
-0.415
-0.4
-0.405
-0.405
-0.41
-0.42
-0.4
-0.38
-0.385
-0.385
-0.385
-0.37
-0.34
-0.32
-0.31
-0.315
-0.33
-0.295
-0.29
-0.28
-0.28
-0.27
-0.255
-0.235
-0.21
-0.205
-0.19
-0.185
-0.185
-0.16
-0.15
-0.15
-0.17
-0.175
-0.18
-0.18
-0.185
-0.18
-0.22
-0.23
-0.24
-0.23
-0.235
-0.245
-0.28
-0.275
-0.27
-0.275
-0.275
-0.27
-0.28
-0.305
-0.305
-0.295
-0.295
-0.31
-0.33
-0.325
-0.32
-0.31
-0.285
-0.29
-0.305
-0.325
-0.335
-0.315
-0.31
-0.285
-0.295
-0.32
-0.315
-0.315
-0.295
-0.3
-0.31
-0.325
-0.345
-0.355
-0.355
-0.35
-0.325
-0.33
-0.34
-0.35
-0.35
-0.345
-0.34
-0.34
-0.35
-0.36
-0.355
-0.34
-0.345
-0.345
-0.365
-0.35
-0.34
-0.33
-0.32
-0.32
-0.33
-0.34
-0.33
-0.315
-0.315
-0.315
-0.32
-0.315
-0.31
-0.305
-0.285
-0.28
-0.26
-0.235
-0.2
-0.17
-0.16
-0.17
-0.205
-0.22
-0.2
-0.18
-0.155
-0.12
-0.115
-0.11
-0.1
-0.08
-0.075
-0.07
-0.085
-0.09
-0.11
-0.12
-0.14
-0.165
-0.225
-0.26
-0.295
-0.325
-0.34
-0.335
-0.365
-0.37
-0.375
-0.38
-0.38
-0.365
-0.35
-0.345
-0.33
-0.335
-0.335
-0.355
-0.36
-0.345
-0.32
-0.335
-0.33
-0.33
-0.34
-0.33
-0.32
-0.33
-0.345
-0.37
-0.345
-0.255
-0.125
0.05
0.245
0.43
0.59
0.78
0.95
1.09
1.2
1.23
1.155
0.995
0.835
0.715
0.605
0.465
0.295
0.175
0.12
0.075
-0.01
-0.105
-0.19
-0.255
-0.305
-0.345
-0.395
-0.445
-0.48
-0.485
-0.49
-0.495
-0.495
-0.495
-0.505
-0.515
-0.525
-0.54
-0.53
-0.53
-0.52
-0.505
-0.48
-0.5
-0.49
-0.495
-0.5
-0.49
-0.485
-0.475
-0.48
-0.49
-0.5
-0.5
-0.5
-0.48
-0.475
-0.47
-0.485
-0.49
-0.48
-0.46
-0.455
-0.47
-0.48
-0.47
-0.455
-0.46
-0.47
-0.48
-0.495
-0.475
-0.46
-0.445
-0.455
-0.48
-0.48
-0.455
-0.435
-0.435
-0.445
-0.45
-0.445
-0.415
-0.395
-0.38
-0.375
-0.39
-0.395
-0.38
-0.355
-0.34
-0.335
-0.315
-0.305
-0.285
-0.26
-0.255
-0.23
-0.22
-0.2
-0.185
-0.175
-0.175
-0.19
-0.18
-0.18
-0.16
-0.155
-0.165
-0.17
-0.175
-0.185
-0.185
-0.185
-0.19
-0.2
-0.21
-0.22
-0.23
-0.215
-0.215
-0.23
-0.24
-0.26
-0.255
-0.24
-0.23
-0.225
-0.235
-0.245
-0.25
-0.255
-0.25
-0.245
-0.255
-0.27
-0.26
-0.26
-0.27
-0.265
-0.27
-0.27
-0.27
-0.255
-0.25
-0.27
-0.265
-0.28
-0.27
-0.255
-0.26
-0.275
-0.275
-0.28
-0.265
-0.25
-0.26
-0.28
-0.295
-0.295
-0.305
-0.28
-0.265
-0.3
-0.295
-0.305
-0.285
-0.27
-0.275
-0.275
-0.29
-0.3
-0.295
-0.29
-0.275
-0.275
-0.29
-0.3
-0.29
-0.265
-0.26
-0.26
-0.265
-0.29
-0.315
-0.305
-0.3
-0.295
-0.3
-0.305
-0.29
-0.265
-0.25
-0.25
-0.24
-0.24
-0.215
-0.18
-0.17
-0.17
-0.185
-0.195
-0.175
-0.13
-0.095
-0.08
-0.065
-0.07
-0.05
-0.05
-0.045
-0.055
-0.075
-0.085
-0.09
-0.09
-0.115
-0.15
-0.205
-0.265
-0.295
-0.31
-0.33
-0.34
-0.34
-0.33
-0.31
-0.31
-0.315
-0.32
-0.35
-0.37
-0.385
-0.385
-0.36
-0.355
-0.35
-0.375
-0.35
-0.33
-0.32
-0.31
-0.32
-0.325
-0.325
-0.335
-0.345
-0.365
-0.365
-0.305
-0.21
-0.065
0.1
0.25
0.41
0.58
0.79
0.96
1.095
1.15
1.12
0.975
0.82
0.705
0.62
0.535
0.41
0.27
0.175
0.125
0.075
-0.02
-0.125
-0.205
-0.255
-0.3
-0.36
-0.415
-0.46
-0.48
-0.485
-0.5
-0.49
-0.505
-0.515
-0.515
-0.525
-0.525
-0.51
-0.51
-0.515
-0.52
-0.515
-0.52
-0.51
-0.515
-0.52
-0.51
-0.505
-0.495
-0.485
-0.49
-0.505
-0.505
-0.51
-0.49
-0.49
-0.49
-0.505
-0.505
-0.495
-0.49
-0.5
-0.5
-0.51
-0.525
-0.525
-0.515
-0.505
-0.5
-0.51
-0.515
-0.52
-0.515
-0.505
-0.51
-0.495
-0.495
-0.475
-0.47
-0.46
-0.46
-0.475
-0.485
-0.465
-0.45
-0.43
-0.43
-0.425
-0.43
-0.41
-0.39
-0.365
-0.35
-0.335
-0.325
-0.305
-0.28
-0.275
-0.28
-0.26
-0.245
-0.22
-0.19
-0.185
-0.19
-0.185
-0.17
-0.155
-0.16
-0.165
-0.18
-0.195
-0.2
-0.2
-0.19
-0.21
-0.21
-0.225
-0.245
-0.24
-0.235
-0.23
-0.24
-0.245
-0.26
-0.255
-0.26
-0.265
-0.275
-0.28
-0.275
-0.275
-0.26
-0.265
-0.27
-0.275
-0.295
-0.3
-0.285
-0.285
-0.285
-0.29
-0.305
-0.305
-0.3
-0.295
-0.3
-0.3
-0.305
-0.295
-0.275
-0.275
-0.3
-0.31
-0.325
-0.305
-0.295
-0.295
-0.31
-0.305
-0.315
-0.305
-0.29
-0.29
-0.305
-0.305
-0.305
-0.295
-0.28
-0.29
-0.285
-0.285
-0.295
-0.285
-0.275
-0.275
-0.285
-0.305
-0.31
-0.29
-0.275
-0.285
-0.295
-0.31
-0.31
-0.3
-0.285
-0.285
-0.31
-0.305
-0.305
-0.29
-0.265
-0.25
-0.25
-0.24
-0.24
-0.22
-0.2
-0.175
-0.195
-0.2
-0.2
-0.175
-0.145
-0.15
-0.14
-0.14
-0.135
-0.115
-0.085
-0.07
-0.09
-0.105
-0.09
-0.09
-0.08
-0.1
-0.14
-0.18
-0.24
-0.275
-0.325
-0.345
-0.375
-0.395
-0.405
-0.4
-0.385
-0.375
-0.37
-0.385
-0.385
-0.395
-0.38
-0.37
-0.355
-0.345
-0.36
-0.345
-0.335
-0.335
-0.33
-0.345
-0.34
-0.335
-0.335
-0.33
-0.35
-0.365
-0.37
-0.355
-0.31
-0.22
-0.11
0.02
0.185
0.395
0.615
0.83
1.01
1.12
1.19
1.185
1.085
0.94
0.8
0.69
0.57
0.425
0.29
0.21
0.155
0.075
-0.04
-0.14
-0.21
-0.295
-0.35
-0.41
-0.445
-0.47
-0.47
-0.485
-0.515
-0.525
-0.55
-0.53
-0.535
-0.535
-0.535
-0.535
-0.525
-0.515
-0.505
-0.505
-0.515
-0.52
-0.52
-0.515
-0.515
-0.51
-0.525
-0.54
-0.54
-0.515
-0.485
-0.485
-0.485
-0.485
-0.495
-0.5
-0.49
-0.485
-0.505
-0.525
-0.53
-0.5
-0.49
-0.5
-0.51
-0.51
-0.52
-0.5
-0.475
-0.465
-0.485
-0.495
-0.505
-0.505
-0.49
-0.455
-0.45
-0.44
-0.455
-0.44
-0.415
-0.395
-0.395
-0.38
-0.38
-0.355
-0.345
-0.33
-0.31
-0.285
-0.29
-0.255
-0.245
-0.225
-0.215
-0.205
-0.19
-0.18
-0.175
-0.155
-0.17
-0.165
-0.165
-0.165
-0.155
-0.145
-0.16
-0.175
-0.19
-0.19
-0.18
-0.185
-0.21
-0.22
-0.24
-0.245
-0.24
-0.23
-0.23
-0.25
-0.255
-0.245
-0.235
-0.235
-0.25
-0.245
-0.265
-0.28
-0.27
-0.275
-0.27
-0.285
-0.285
-0.27
-0.25
-0.26
-0.285
-0.295
-0.31
-0.315
-0.305
-0.295
-0.315
-0.31
-0.33
-0.305
-0.29
-0.29
-0.305
-0.32
-0.33
-0.315
-0.295
-0.29
-0.295
-0.315
-0.32
-0.315
-0.305
-0.29
-0.305
-0.31
-0.32
-0.31
-0.32
-0.305
-0.305
-0.31
-0.32
-0.31
-0.295
-0.295
-0.295
-0.3
-0.315
-0.305
-0.3
-0.3
-0.305
-0.315
-0.3
-0.275
-0.26
-0.28
-0.285
-0.29
-0.275
-0.255
-0.24
-0.195
-0.19
-0.18
-0.205
-0.2
-0.2
-0.175
-0.16
-0.135
-0.13
-0.115
-0.1
-0.09
-0.075
-0.075
-0.08
-0.11
-0.095
-0.105
-0.105
-0.14
-0.16
-0.195
-0.24
-0.295
-0.34
-0.365
-0.375
-0.38
-0.365
-0.36
-0.36
-0.355
-0.365
-0.355
-0.345
-0.335
-0.335
-0.36
-0.36
-0.36
-0.345
-0.34
-0.345
-0.35
-0.355
-0.33
-0.31
-0.305
-0.31
-0.32
-0.325
-0.335
-0.345
-0.335
-0.33
-0.29
-0.225
-0.085
0.095
0.295
0.49
0.695
0.865
1.04
1.155
1.22
1.19
1.075
0.94
0.84
0.765
0.65
0.515
0.345
0.23
0.165
0.135
0.08
-0.01
-0.095
-0.175
-0.235
-0.29
-0.35
-0.405
-0.44
-0.48
-0.495
-0.505
-0.5
-0.51
-0.53
-0.54
-0.535
-0.545
-0.52
-0.515
-0.53
-0.515
-0.505
-0.495
-0.485
-0.5
-0.505
-0.52
-0.51
-0.49
-0.495
-0.49
-0.485
-0.495
-0.485
-0.495
-0.485
-0.485
-0.485
-0.505
-0.495
-0.48
-0.47
-0.485
-0.49
-0.505
-0.49
-0.495
-0.485
-0.475
-0.48
-0.5
-0.49
-0.475
-0.48
-0.49
-0.49
-0.495
-0.48
-0.46
-0.46
-0.455
-0.465
-0.465
-0.44
-0.435
-0.415
-0.41
-0.405
-0.405
-0.4
-0.38
-0.345
-0.335
-0.32
-0.315
-0.3
-0.285
-0.265
-0.26
-0.255
-0.24
-0.2
-0.19
-0.17
-0.16
-0.165
-0.155
-0.135
-0.115
-0.12
-0.14
-0.16
-0.16
-0.155
-0.155
-0.15
-0.165
-0.175
-0.19
-0.19
-0.175
-0.195
-0.205
-0.22
-0.24
-0.24
-0.24
-0.235
-0.235
-0.24
-0.25
-0.265
-0.26
-0.255
-0.26
-0.265
-0.28
-0.27
-0.285
-0.27
-0.275
-0.28
-0.295
-0.29
-0.275
-0.295
-0.3
-0.315
-0.33
-0.31
-0.3
-0.295
-0.31
-0.315
-0.32
-0.315
-0.31
-0.3
-0.32
-0.315
-0.32
-0.305
-0.295
-0.285
-0.29
-0.3
-0.3
-0.3
-0.295
-0.3
-0.29
-0.305
-0.32
-0.315
-0.305
-0.3
-0.295
-0.305
-0.305
-0.295
-0.29
-0.305
-0.305
-0.31
-0.32
-0.295
-0.285
-0.285
-0.285
-0.29
-0.29
-0.29
-0.275
-0.28
-0.285
-0.29
-0.285
-0.255
-0.235
-0.215
-0.19
-0.205
-0.225
-0.215
-0.215
-0.2
-0.185
-0.165
-0.15
-0.12
-0.11
-0.085
-0.065
-0.08
-0.09
-0.095
-0.1
-0.105
-0.11
-0.12
-0.13
-0.145
-0.165
-0.185
-0.225
-0.295
-0.35
-0.345
-0.355
-0.355
-0.365
-0.38
-0.385
-0.375
-0.35
-0.35
-0.355
-0.365
-0.375
-0.345
-0.33
-0.32
-0.325
-0.35
-0.365
-0.355
-0.335
-0.32
-0.31
-0.32
-0.32
-0.335
-0.33
-0.345
-0.345
-0.335
-0.28
-0.16
-0.025
0.15
0.29
0.455
0.63
0.81
0.98
1.1
1.185
1.215
1.145
1.02
0.89
0.77
0.655
0.51
0.34
0.2
0.14
0.095
0.015
-0.085
-0.18
-0.235
-0.295
-0.335
-0.4
-0.445
-0.465
-0.47
-0.48
-0.5
-0.515
-0.52
-0.54
-0.53
-0.51
-0.52
-0.525
-0.535
-0.52
-0.51
-0.495
-0.495
-0.5
-0.51
-0.515
-0.515
-0.495
-0.49
-0.5
-0.505
-0.515
-0.5
-0.475
-0.47
-0.495
-0.49
-0.51
-0.49
-0.48
-0.49
-0.485
-0.485
-0.49
-0.49
-0.49
-0.49
-0.505
-0.505
-0.52
-0.51
-0.5
-0.485
-0.485
-0.49
-0.49
-0.49
-0.47
-0.485
-0.47
-0.46
-0.47
-0.46
-0.44
-0.435
-0.435
-0.43
-0.43
-0.4
-0.39
-0.375
-0.37
-0.365
-0.36
-0.335
-0.31
-0.295
-0.27
-0.27
-0.255
-0.23
-0.2
-0.2
-0.195
-0.19
-0.195
-0.17
-0.155
-0.155
-0.16
-0.175
-0.185
-0.17
-0.175
-0.18
-0.175
-0.195
-0.21
-0.195
-0.19
-0.205
-0.205
-0.23
-0.245
-0.24
-0.235
-0.245
-0.25
-0.25
-0.25
-0.245
-0.24
-0.245
-0.25
-0.255
-0.27
-0.265
-0.275
-0.27
-0.275
-0.29
-0.295
-0.285
-0.26
-0.27
-0.27
-0.285
-0.3
-0.31
-0.295
-0.29
-0.3
-0.305
-0.31
-0.315
-0.31
-0.29
-0.285
-0.285
-0.295
-0.295
-0.285
-0.29
-0.295
-0.3
-0.305
-0.29
-0.275
-0.275
-0.28
-0.285
-0.29
-0.3
-0.285
-0.29
-0.285
-0.285
-0.295
-0.285
-0.27
-0.27
-0.285
-0.305
-0.3
-0.295
-0.29
-0.27
-0.285
-0.27
-0.285
-0.285
-0.285
-0.275
-0.275
-0.275
-0.28
-0.27
-0.265
-0.245
-0.265
-0.24
-0.23
-0.205
-0.185
-0.17
-0.175
-0.19
-0.2
-0.19
-0.155
-0.14
-0.115
-0.11
-0.11
-0.1
-0.08
-0.06
-0.065
-0.065
-0.08
-0.085
-0.065
-0.075
-0.08
-0.1
-0.155
-0.185
-0.21
-0.245
-0.29
-0.315
-0.34
-0.335
-0.33
-0.325
-0.325
-0.34
-0.345
-0.315
-0.315
-0.32
-0.32
-0.32
-0.31
-0.31
-0.31
-0.31
-0.315
-0.31
-0.305
-0.29
-0.29
-0.295
-0.285
-0.295
-0.315
-0.305
-0.305
-0.325
-0.325
-0.305
-0.245
-0.145
0.005
0.165
0.31
0.5
0.695
0.89
1.055
1.17
1.23
1.225
1.14
1.0
0.875
0.77
0.67
0.54
0.36
0.225
0.15
0.125
0.04
-0.06
-0.155
-0.21
-0.24
-0.29
-0.34
-0.395
-0.45
-0.465
-0.47
-0.475
-0.49
-0.51
-0.52
-0.525
-0.515
-0.515
-0.515
-0.52
-0.515
-0.505
-0.485
-0.485
-0.49
-0.515
-0.525
-0.515
-0.495
-0.485
-0.495
-0.475
-0.47
-0.475
-0.475
-0.485
-0.49
-0.495
-0.505
-0.49
-0.485
-0.485
-0.48
-0.485
-0.495
-0.48
-0.47
-0.475
-0.48
-0.5
-0.5
-0.49
-0.495
-0.48
-0.5
-0.49
-0.485
-0.47
-0.465
-0.465
-0.47
-0.47
-0.475
-0.47
-0.455
-0.45
-0.45
-0.46
-0.44
-0.415
-0.405
-0.385
-0.38
-0.39
-0.38
-0.355
-0.34
-0.325
-0.305
-0.3
-0.295
-0.265
-0.23
-0.225
-0.225
-0.22
-0.215
-0.2
-0.16
-0.16
-0.165
-0.16
-0.165
-0.155
-0.145
-0.145
-0.165
-0.18
-0.185
-0.185
-0.175
-0.18
-0.215
-0.21
-0.225
-0.22
-0.225
-0.23
-0.23
-0.23
-0.255
-0.26
-0.255
-0.26
-0.25
-0.26
-0.275
-0.27
-0.275
-0.265
-0.27
-0.275
-0.285
-0.285
-0.265
-0.27
-0.275
-0.28
-0.295
-0.29
-0.28
-0.28
-0.285
-0.305
-0.31
-0.305
-0.29
-0.295
-0.3
-0.31
-0.31
-0.305
-0.3
-0.31
-0.31
-0.31
-0.325
-0.325
-0.32
-0.31
-0.305
-0.32
-0.325
-0.305
-0.285
-0.3
-0.3
-0.315
-0.315
-0.31
-0.3
-0.295
-0.305
-0.295
-0.32
-0.305
-0.285
-0.285
-0.295
-0.32
-0.325
-0.31
-0.285
-0.285
-0.31
-0.315
-0.305
-0.295
-0.28
-0.29
-0.285
-0.31
-0.305
-0.295
-0.265
-0.23
-0.225
-0.21
-0.215
-0.185
-0.175
-0.18
-0.195
-0.2
-0.18
-0.155
-0.135
-0.115
-0.125
-0.115
-0.1
-0.055
-0.055
-0.07
-0.095
-0.1
-0.11
-0.105
-0.1
-0.1
-0.13
-0.16
-0.195
-0.24
-0.28
-0.315
-0.34
-0.36
-0.365
-0.37
-0.355
-0.36
-0.37
-0.37
-0.365
-0.37
-0.355
-0.35
-0.35
-0.35
-0.355
-0.335
-0.33
-0.33
-0.335
-0.335
-0.36
-0.34
-0.34
-0.325
-0.33
-0.335
-0.35
-0.34
-0.335
-0.34
-0.325
-0.285
-0.2
-0.06
0.085
0.22
0.41
0.6
0.785
0.96
1.1
1.18
1.215
1.135
1.005
0.87
0.755
0.65
0.53
0.385
0.25
0.185
0.13
0.075
-0.03
-0.14
-0.2
-0.255
-0.295
-0.35
-0.405
-0.46
-0.495
-0.485
-0.505
-0.505
-0.53
-0.555
-0.55
-0.555
-0.555
-0.545
-0.54
-0.54
-0.545
-0.535
-0.515
-0.515
-0.51
-0.525
-0.535
-0.54
-0.525
-0.525
-0.52
-0.525
-0.535
-0.525
-0.505
-0.505
-0.51
-0.52
-0.545
-0.535
-0.52
-0.505
-0.52
-0.525
-0.535
-0.525
-0.51
-0.5
-0.51
-0.52
-0.525
-0.525
-0.505
-0.495
-0.485
-0.5
-0.505
-0.5
-0.495
-0.485
-0.49
-0.485
-0.485
-0.465
-0.45
-0.435
-0.45
-0.445
-0.445
-0.42
-0.395
-0.385
-0.36
-0.355
-0.35
-0.325
-0.295
-0.28
-0.27
-0.265
-0.26
-0.23
-0.205
-0.19
-0.18
-0.17
-0.18
-0.18
-0.16
-0.16
-0.165
-0.19
-0.19
-0.2
-0.205
-0.205
-0.22
-0.24
-0.23
-0.24
-0.24
-0.25
-0.265
-0.28
-0.285
-0.28
-0.27
-0.28
-0.28
-0.295
-0.29
-0.28
-0.29
-0.295
-0.3
-0.32
-0.325
-0.315
-0.315
-0.315
-0.34
-0.335
-0.325
-0.315
-0.305
-0.3
-0.28
-0.25
-0.19
-0.115
-0.015
0.09
0.22
0.385
0.535
0.68
0.795
0.9
1.015
1.17
1.33
1.5
1.645
1.77
1.805
1.705
1.435
1.09
0.79
0.505
0.22
-0.035
-0.265
-0.42
-0.545
-0.6
-0.625
-0.645
-0.65
-0.65
-0.645
-0.645
-0.64
-0.655
-0.665
-0.65
-0.645
-0.645
-0.655
-0.66
-0.67
-0.66
-0.66
-0.68
-0.685
-0.715
-0.765
-0.77
-0.745
-0.715
-0.68
-0.675
-0.685
-0.68
-0.675
-0.665
-0.645
-0.64
-0.65
-0.64
-0.63
-0.62
-0.635
-0.635
-0.66
-0.665
-0.655
-0.655
-0.665
-0.66
-0.655
-0.655
-0.655
-0.66
-0.665
-0.675
-0.665
-0.665
-0.655
-0.645
-0.65
-0.645
-0.645
-0.63
-0.625
-0.6
-0.61
-0.595
-0.6
-0.58
-0.565
-0.55
-0.54
-0.53
-0.53
-0.505
-0.485
-0.46
-0.44
-0.42
-0.4
-0.385
-0.36
-0.34
-0.34
-0.325
-0.33
-0.315
-0.295
-0.285
-0.28
-0.285
-0.28
-0.265
-0.245
-0.25
-0.25
-0.255
-0.265
-0.255
-0.25
-0.24
-0.24
-0.26
-0.26
-0.255
-0.25
-0.235
-0.25
-0.25
-0.27
-0.25
-0.24
-0.245
-0.24
-0.245
-0.26
-0.255
-0.24
-0.24
-0.245
-0.25
-0.27
-0.25
-0.255
-0.26
-0.255
-0.265
-0.275
-0.28
-0.27
-0.265
-0.265
-0.26
-0.275
-0.27
-0.265
-0.265
-0.275
-0.275
-0.29
-0.3
-0.28
-0.275
-0.285
-0.29
-0.295
-0.28
-0.28
-0.28
-0.29
-0.31
-0.315
-0.3
-0.285
-0.29
-0.295
-0.31
-0.325
-0.32
-0.305
-0.3
-0.295
-0.31
-0.31
-0.32
-0.31
-0.305
-0.305
-0.31
-0.315
-0.31
-0.305
-0.305
-0.3
-0.31
-0.3
-0.3
-0.29
-0.295
-0.315
-0.31
-0.315
-0.305
-0.29
-0.295
-0.295
-0.315
-0.325
-0.315
-0.29
-0.285
-0.295
-0.31
-0.305
-0.3
-0.29
-0.285
-0.3
-0.31
-0.315
-0.305
-0.295
-0.28
-0.3
-0.305
-0.31
-0.305
-0.3
-0.295
-0.3
-0.3
-0.305
-0.305
-0.3
-0.295
-0.305
-0.29
-0.29
-0.29
-0.285
-0.29
-0.3
-0.295
-0.305
-0.29
-0.29
-0.285
-0.305
-0.3
-0.295
-0.285
-0.265
-0.255
-0.27
-0.28
-0.285
-0.285
-0.275
-0.28
-0.295
-0.285
-0.285
-0.27
-0.255
-0.265
-0.27
-0.28
-0.28
-0.275
-0.27
-0.27
-0.27
-0.275
-0.28
-0.285
-0.265
-0.255
-0.255
-0.265
-0.27
-0.265
-0.255
-0.27
-0.25
-0.255
-0.265
-0.26
-0.245
-0.24
-0.225
-0.23
-0.215
-0.19
-0.175
-0.15
-0.17
-0.17
-0.165
-0.135
-0.115
-0.095
-0.085
-0.1
-0.105
-0.095
-0.055
-0.05
-0.06
-0.075
-0.09
-0.1
-0.095
-0.105
-0.155
-0.21
-0.275
-0.31
-0.31
-0.315
-0.31
-0.315
-0.33
-0.32
-0.305
-0.305
-0.3
-0.315
-0.33
-0.315
-0.29
-0.28
-0.28
-0.285
-0.295
-0.29
-0.3
-0.29
-0.305
-0.315
-0.315
-0.27
-0.18
-0.055
0.085
0.24
0.405
0.62
0.845
1.035
1.165
1.27
1.265
1.17
1.02
0.86
0.72
0.56
0.39
0.275
0.23
0.165
0.07
-0.04
-0.135
-0.195
-0.255
-0.315
-0.38
-0.435
-0.45
-0.45
-0.455
-0.465
-0.5
-0.515
-0.52
-0.505
-0.5
-0.505
-0.49
-0.475
-0.48
-0.47
-0.465
-0.475
-0.47
-0.47
-0.48
-0.465
-0.46
-0.445
-0.46
-0.465
-0.46
-0.455
-0.45
-0.435
-0.44
-0.435
-0.455
-0.46
-0.445
-0.44
-0.435
-0.435
-0.44
-0.425
-0.42
-0.42
-0.42
-0.425
-0.42
-0.415
-0.4
-0.39
-0.385
-0.39
-0.395
-0.38
-0.37
-0.355
-0.35
-0.345
-0.335
-0.295
-0.285
-0.285
-0.27
-0.255
-0.24
-0.21
-0.19
-0.17
-0.16
-0.16
-0.16
-0.125
-0.095
-0.065
-0.055
-0.055
-0.055
-0.025
-0.015
-0.015
-0.015
-0.005
-0.015
-0.01
0.005
0.0
0.0
-0.015
-0.025
-0.045
-0.03
-0.04
-0.035
-0.055
-0.08
-0.1
-0.1
-0.12
-0.14
-0.165
-0.185
-0.185
-0.195
-0.19
-0.185
-0.2
-0.2
-0.22
-0.215
-0.22
-0.225
-0.24
-0.26
-0.245
-0.26
-0.27
-0.27
-0.27
-0.27
-0.275
-0.29
-0.28
-0.285
-0.305
-0.31
-0.3
-0.295
-0.285
-0.305
-0.325
-0.325
-0.325
-0.32
-0.32
-0.32
-0.32
-0.32
-0.32
-0.295
-0.31
-0.305
-0.315
-0.315
-0.295
-0.285
-0.29
-0.31
-0.315
-0.325
-0.315
-0.31
-0.285
-0.295
-0.3
-0.3
-0.295
-0.28
-0.275
-0.285
-0.285
-0.3
-0.3
-0.285
-0.265
-0.275
-0.27
-0.26
-0.225
-0.215
-0.195
-0.185
-0.2
-0.215
-0.2
-0.175
-0.135
-0.12
-0.11
-0.095
-0.08
-0.055
-0.055
-0.06
-0.08
-0.09
-0.09
-0.075
-0.08
-0.11
-0.15
-0.21
-0.255
-0.29
-0.305
-0.32
-0.335
-0.345
-0.34
-0.33
-0.325
-0.32
-0.335
-0.34
-0.32
-0.31
-0.295
-0.295
-0.3
-0.3
-0.305
-0.3
-0.295
-0.28
-0.28
-0.295
-0.295
-0.305
-0.32
-0.315
-0.295
-0.25
-0.145
0.005
0.16
0.31
0.48
0.68
0.9
1.085
1.195
1.235
1.165
1.01
0.865
0.755
0.655
0.52
0.355
0.225
0.16
0.115
0.03
-0.08
-0.165
-0.225
-0.285
-0.34
-0.38
-0.41
-0.435
-0.455
-0.47
-0.465
-0.47
-0.475
-0.475
-0.47
-0.46
-0.45
-0.45
-0.455
-0.45
-0.46
-0.45
-0.435
-0.435
-0.415
-0.43
-0.45
-0.44
-0.425
-0.445
-0.445
-0.445
-0.44
-0.42
-0.41
-0.41
-0.43
-0.435
-0.435
-0.425
-0.415
-0.435
-0.445
-0.445
-0.46
-0.445
-0.425
-0.43
-0.43
-0.43
-0.44
-0.435
-0.435
-0.42
-0.43
-0.43
-0.42
-0.405
-0.4
-0.385
-0.375
-0.37
-0.37
-0.36
-0.345
-0.32
-0.3
-0.295
-0.28
-0.26
-0.235
-0.235
-0.205
-0.195
-0.2
-0.19
-0.165
-0.14
-0.13
-0.125
-0.12
-0.105
-0.105
-0.095
-0.13
-0.125
-0.13
-0.135
-0.145
-0.15
-0.145
-0.16
-0.165
-0.19
-0.17
-0.175
-0.19
-0.195
-0.2
-0.2
-0.195
-0.205
-0.2
-0.21
-0.215
-0.2
-0.205
-0.215
-0.215
-0.21
-0.215
-0.215
-0.205
-0.205
-0.225
-0.23
-0.24
-0.23
-0.225
-0.23
-0.245
-0.25
-0.24
-0.22
-0.225
-0.22
-0.225
-0.24
-0.26
-0.245
-0.235
-0.23
-0.23
-0.225
-0.24
-0.225
-0.22
-0.215
-0.21
-0.22
-0.225
-0.235
-0.22
-0.23
-0.225
-0.23
-0.26
-0.245
-0.22
-0.22
-0.22
-0.235
-0.235
-0.225
-0.22
-0.21
-0.225
-0.235
-0.24
-0.23
-0.235
-0.215
-0.22
-0.22
-0.225
-0.215
-0.185
-0.17
-0.14
-0.135
-0.11
-0.1
-0.095
-0.105
-0.11
-0.12
-0.11
-0.07
-0.045
-0.04
-0.03
-0.03
-0.015
0.005
0.005
-0.005
-0.015
-0.03
-0.05
-0.06
-0.055
-0.075
-0.115
-0.175
-0.23
-0.265
-0.275
-0.295
-0.29
-0.295
-0.295
-0.295
-0.275
-0.275
-0.28
-0.28
-0.3
-0.29
-0.285
-0.28
-0.275
-0.27
-0.265
-0.26
-0.245
-0.245
-0.255
-0.25
-0.245
-0.255
-0.255
-0.27
-0.275
-0.27
-0.26
-0.2
-0.1
0.025
0.16
0.31
0.485
0.675
0.885
1.045
1.175
1.26
1.265
1.185
1.03
0.89
0.76
0.625
0.475
0.335
0.255
0.21
0.125
0.035
-0.06
-0.13
-0.165
-0.225
-0.285
-0.34
-0.4
-0.405
-0.425
-0.42
-0.445
-0.46
-0.47
-0.46
-0.46
-0.445
-0.435
-0.445
-0.45
-0.45
-0.43
-0.425
-0.43
-0.445
-0.445
-0.445
-0.425
-0.41
-0.42
-0.43
-0.44
-0.43
-0.42
-0.41
-0.425
-0.43
-0.435
-0.41
-0.415
-0.415
-0.43
-0.44
-0.455
-0.44
-0.41
-0.41
-0.41
-0.43
-0.435
-0.435
-0.42
-0.4
-0.4
-0.41
-0.405
-0.4
-0.385
-0.37
-0.38
-0.375
-0.36
-0.35
-0.33
-0.305
-0.285
-0.285
-0.28
-0.265
-0.23
-0.215
-0.2
-0.19
-0.175
-0.155
-0.125
-0.115
-0.105
-0.105
-0.1
-0.085
-0.075
-0.08
-0.075
-0.08
-0.095
-0.095
-0.095
-0.105
-0.115
-0.14
-0.165
-0.15
-0.15
-0.135
-0.155
-0.185
-0.195
-0.2
-0.19
-0.195
-0.2
-0.22
-0.22
-0.215
-0.19
-0.2
-0.205
-0.225
-0.23
-0.22
-0.21
-0.2
-0.215
-0.225
-0.24
-0.235
-0.23
-0.24
-0.24
-0.25
-0.25
-0.25
-0.25
-0.25
-0.26
-0.26
-0.26
-0.245
-0.235
-0.245
-0.25
-0.26
-0.27
-0.26
-0.245
-0.255
-0.265
-0.26
-0.26
-0.25
-0.25
-0.24
-0.255
-0.26
-0.26
-0.26
-0.26
-0.25
-0.255
-0.255
-0.255
-0.25
-0.26
-0.255
-0.255
-0.26
-0.26
-0.25
-0.25
-0.235
-0.245
-0.26
-0.28
-0.265
-0.26
-0.23
-0.2
-0.18
-0.17
-0.14
-0.135
-0.13
-0.135
-0.165
-0.18
-0.145
-0.115
-0.085
-0.075
-0.08
-0.08
-0.075
-0.04
-0.035
-0.04
-0.065
-0.09
-0.09
-0.07
-0.065
-0.08
-0.12
-0.165
-0.215
