Lead II
-0.88
-0.88
-0.89
-0.895
-0.89
-0.88
-0.885
-0.87
-0.865
-0.85
-0.86
-0.865
-0.875
-0.885
-0.885
-0.91
-0.9
-0.91
-0.895
-0.875
-0.88
-0.875
-0.865
-0.875
-0.89
-0.885
-0.885
-0.885
-0.885
-0.885
-0.875
-0.87
-0.86
-0.855
-0.86
-0.855
-0.855
-0.87
-0.87
-0.88
-0.89
-0.885
-0.875
-0.87
-0.865
-0.855
-0.85
-0.85
-0.85
-0.85
-0.86
-0.85
-0.86
-0.865
-0.86
-0.845
-0.835
-0.83
-0.8
-0.785
-0.8
-0.79
-0.785
-0.8
-0.805
-0.825
-0.83
-0.825
-0.83
-0.83
-0.82
-0.82
-0.825
-0.825
-0.825
-0.83
-0.83
-0.8
-0.79
-0.795
-0.785
-0.795
-0.815
-0.83
-0.84
-0.865
-0.885
-0.89
-0.9
-0.9
-0.89
-0.885
-0.88
-0.865
-0.88
-0.87
-0.875
-0.875
-0.885
-0.9
-0.92
-0.925
-0.925
-0.89
-0.83
-0.725
-0.625
-0.545
-0.485
-0.435
-0.44
-0.5
-0.605
-0.76
-0.89
-0.955
-0.91
-0.74
-0.505
-0.225
0.055
0.335
0.575
0.785
0.98
1.155
1.26
1.28
1.23
1.105
0.905
0.645
0.36
0.065
-0.195
-0.42
-0.635
-0.825
-0.965
-1.065
-1.11
-1.13
-1.12
-1.095
-1.085
-1.06
-1.04
-1.03
-1.04
-1.025
-1.015
-0.99
-0.995
-0.97
-0.975
-0.98
-0.975
-0.98
-0.99
-0.99
-1.005
-0.995
-1.0
-0.995
-1.0
-0.985
-0.975
-0.985
-0.995
-1.005
-1.02
-1.015
-1.02
-1.015
-1.01
-1.01
-1.01
-1.0
-0.99
-0.995
-1.0
-1.005
-1.02
-1.03
-1.045
-1.05
-1.04
-1.025
-1.02
-1.025
-1.04
-1.04
-1.06
-1.06
-1.065
-1.075
-1.08
-1.095
-1.095
-1.085
-1.085
-1.075
-1.08
-1.085
-1.085
-1.105
-1.11
-1.125
-1.135
-1.14
-1.135
-1.14
-1.145
-1.13
-1.135
-1.15
-1.16
-1.165
-1.17
-1.165
-1.18
-1.19
-1.21
-1.19
-1.19
-1.18
-1.175
-1.175
-1.17
-1.185
-1.18
-1.18
-1.185
-1.175
-1.16
-1.16
-1.15
-1.12
-1.11
-1.095
-1.085
-1.075
-1.09
-1.075
-1.07
-1.06
-1.025
-1.015
-1.0
-0.985
-0.945
-0.94
-0.915
-0.91
-0.89
-0.88
-0.88
-0.87
-0.86
-0.835
-0.83
-0.825
-0.815
-0.805
-0.795
-0.81
-0.815
-0.81
-0.805
-0.815
-0.82
-0.825
-0.83
-0.825
-0.835
-0.845
-0.87
-0.88
-0.895
-0.905
-0.91
-0.925
-0.925
-0.925
-0.935
-0.92
-0.925
-0.945
-0.955
-0.95
-0.97
-0.97
-0.97
-0.985
-0.965
-0.97
-0.96
-0.955
-0.96
-0.955
-0.955
-0.965
-0.97
-0.96
-0.965
-0.95
-0.945
-0.935
-0.925
-0.93
-0.925
-0.925
-0.925
-0.92
-0.92
-0.915
-0.92
-0.92
-0.915
-0.915
-0.895
-0.895
-0.895
-0.89
-0.9
-0.915
-0.91
-0.915
-0.91
-0.91
-0.905
-0.88
-0.89
-0.885
-0.87
-0.88
-0.88
-0.885
-0.895
-0.9
-0.905
-0.9
-0.88
-0.875
-0.88
-0.86
-0.86
-0.855
-0.865
-0.87
-0.87
-0.875
-0.885
-0.88
-0.87
-0.865
-0.855
-0.84
-0.845
-0.835
-0.835
-0.845
-0.865
-0.86
-0.86
-0.86
-0.855
-0.855
-0.845
-0.845
-0.835
-0.83
-0.84
-0.855
-0.855
-0.865
-0.855
-0.86
-0.86
-0.855
-0.86
-0.84
-0.835
-0.84
-0.85
-0.86
-0.86
-0.865
-0.855
-0.86
-0.865
-0.84
-0.83
-0.83
-0.825
-0.825
-0.825
-0.835
-0.835
-0.845
-0.84
-0.855
-0.845
-0.835
-0.825
-0.825
-0.815
-0.82
-0.825
-0.845
-0.83
-0.835
-0.835
-0.85
-0.84
-0.835
-0.83
-0.83
-0.825
-0.83
-0.83
-0.83
-0.84
-0.84
-0.85
-0.84
-0.84
-0.83
-0.825
-0.815
-0.815
-0.815
-0.81
-0.82
-0.82
-0.825
-0.825
-0.835
-0.825
-0.815
-0.82
-0.81
-0.81
-0.825
-0.82
-0.83
-0.835
-0.845
-0.85
-0.835
-0.83
-0.84
-0.83
-0.815
-0.81
-0.81
-0.81
-0.83
-0.825
-0.84
-0.835
-0.83
-0.82
-0.83
-0.825
-0.8
-0.795
-0.805
-0.81
-0.81
-0.82
-0.82
-0.835
-0.82
-0.81
-0.81
-0.81
-0.795
-0.79
-0.81
-0.815
-0.825
-0.83
-0.845
-0.84
-0.83
-0.83
-0.81
-0.81
-0.79
-0.79
-0.8
-0.81
-0.81
-0.81
-0.825
-0.83
-0.82
-0.83
-0.82
-0.825
-0.82
-0.8
-0.8
-0.805
-0.805
-0.805
-0.805
-0.815
-0.805
-0.81
-0.79
-0.795
-0.78
-0.78
-0.79
-0.78
-0.79
-0.785
-0.785
-0.78
-0.775
-0.77
-0.765
-0.77
-0.765
-0.765
-0.77
-0.785
-0.8
-0.815
-0.815
-0.805
-0.805
-0.785
-0.76
-0.74
-0.725
-0.73
-0.73
-0.725
-0.755
-0.78
-0.805
-0.825
-0.835
-0.855
-0.86
-0.85
-0.845
-0.84
-0.84
-0.83
-0.845
-0.85
-0.85
-0.85
-0.85
-0.86
-0.855
-0.855
-0.855
-0.845
-0.81
-0.735
-0.665
-0.57
-0.49
-0.45
-0.46
-0.54
-0.68
-0.825
-0.905
-0.885
-0.74
-0.49
-0.21
0.085
0.36
0.615
0.855
1.05
1.215
1.33
1.36
1.34
1.27
1.14
0.965
0.745
0.49
0.265
0.04
-0.19
-0.415
-0.63
-0.815
-0.96
-1.055
-1.105
-1.13
-1.115
-1.11
-1.085
-1.055
-1.02
-1.015
-0.985
-0.97
-0.95
-0.955
-0.97
-0.97
-0.97
-0.965
-0.975
-0.98
-0.99
-0.975
-0.96
-0.96
-0.95
-0.945
-0.965
-0.96
-0.97
-0.97
-0.985
-0.99
-0.99
-0.975
-0.97
-0.96
-0.955
-0.97
-0.98
-0.98
-0.985
-0.995
-1.0
-1.0
-0.995
-0.98
-0.995
-0.985
-0.985
-0.99
-1.005
-1.0
-1.01
-1.015
-1.01
-1.01
-1.02
-1.025
-1.02
-1.02
-1.025
-1.035
-1.025
-1.045
-1.055
-1.05
-1.05
-1.06
-1.06
-1.07
-1.065
-1.06
-1.06
-1.075
-1.075
-1.08
-1.1
-1.115
-1.115
-1.12
-1.125
-1.125
-1.135
-1.13
-1.13
-1.135
-1.155
-1.16
-1.145
-1.145
-1.15
-1.15
-1.15
-1.14
-1.125
-1.125
-1.115
-1.12
-1.125
-1.13
-1.13
-1.12
-1.12
-1.105
-1.1
-1.09
-1.06
-1.045
-1.04
-1.03
-1.025
-1.02
-1.02
-1.01
-1.005
-0.98
-0.965
-0.93
-0.905
-0.89
-0.86
-0.86
-0.84
-0.845
-0.845
-0.84
-0.83
-0.815
-0.8
-0.795
-0.79
-0.77
-0.76
-0.785
-0.77
-0.79
-0.8
-0.82
-0.82
-0.825
-0.835
-0.84
-0.845
-0.84
-0.85
-0.86
-0.875
-0.89
-0.9
-0.925
-0.93
-0.935
-0.94
-0.94
-0.935
-0.935
-0.94
-0.945
-0.95
-0.955
-0.965
-0.975
-0.98
-0.985
-0.98
-0.975
-0.97
-0.975
-0.96
-0.95
-0.95
-0.965
-0.97
-0.97
-0.975
-0.975
-0.965
-0.96
-0.945
-0.94
-0.93
-0.935
-0.935
-0.93
-0.935
-0.94
-0.94
-0.94
-0.935
-0.91
-0.92
-0.91
-0.905
-0.9
-0.905
-0.895
-0.905
-0.91
-0.9
-0.91
-0.895
-0.895
-0.885
-0.88
-0.865
-0.875
-0.875
-0.87
-0.88
-0.875
-0.88
-0.885
-0.88
-0.885
-0.87
-0.87
-0.865
-0.865
-0.86
-0.87
-0.87
-0.88
-0.88
-0.875
-0.875
-0.88
-0.87
-0.87
-0.87
-0.865
-0.87
-0.865
-0.87
-0.865
-0.88
-0.875
-0.87
-0.865
-0.86
-0.855
-0.855
-0.855
-0.85
-0.86
-0.865
-0.865
-0.865
-0.87
-0.88
-0.875
-0.87
-0.855
-0.845
-0.85
-0.85
-0.87
-0.86
-0.865
-0.87
-0.865
-0.855
-0.865
-0.845
-0.85
-0.84
-0.85
-0.85
-0.85
-0.85
-0.855
-0.865
-0.855
-0.855
-0.85
-0.855
-0.85
-0.835
-0.84
-0.84
-0.86
-0.86
-0.865
-0.865
-0.87
-0.865
-0.86
-0.845
-0.845
-0.835
-0.85
-0.84
-0.855
-0.85
-0.85
-0.875
-0.88
-0.88
-0.875
-0.87
-0.855
-0.86
-0.845
-0.845
-0.85
-0.855
-0.865
-0.87
-0.86
-0.87
-0.855
-0.855
-0.845
-0.845
-0.85
-0.845
-0.84
-0.85
-0.87
-0.88
-0.87
-0.865
-0.86
-0.855
-0.855
-0.845
-0.845
-0.845
-0.85
-0.865
-0.86
-0.87
-0.87
-0.86
-0.86
-0.86
-0.84
-0.84
-0.835
-0.84
-0.845
-0.845
-0.86
-0.855
-0.87
-0.865
-0.86
-0.855
-0.845
-0.84
-0.83
-0.84
-0.84
-0.845
-0.85
-0.855
-0.865
-0.85
-0.845
-0.845
-0.835
-0.825
-0.83
-0.82
-0.815
-0.8
-0.81
-0.805
-0.8
-0.805
-0.79
-0.785
-0.785
-0.8
-0.805
-0.81
-0.815
-0.825
-0.84
-0.835
-0.835
-0.825
-0.825
-0.81
-0.78
-0.76
-0.745
-0.76
-0.755
-0.785
-0.8
-0.825
-0.835
-0.85
-0.85
-0.865
-0.85
-0.86
-0.865
-0.865
-0.88
-0.885
-0.885
-0.89
-0.875
-0.875
-0.87
-0.86
-0.875
-0.87
-0.87
-0.855
-0.79
-0.71
-0.625
-0.53
-0.45
-0.425
-0.43
-0.515
-0.65
-0.81
-0.94
-1.0
-0.945
-0.77
-0.545
-0.27
-0.005
0.235
0.475
0.66
0.86
1.01
1.105
1.135
1.135
1.075
0.99
0.875
0.725
0.55
0.36
0.185
0.01
-0.18
-0.375
-0.57
-0.76
-0.905
-1.01
-1.085
-1.105
-1.12
-1.075
-1.035
-1.02
-0.985
-0.985
-0.975
-0.975
-0.97
-0.97
-0.97
-0.965
-0.965
-0.98
-0.97
-0.955
-0.96
-0.95
-0.96
-0.965
-0.965
-0.975
-0.98
-0.98
-0.985
-0.97
-0.98
-0.97
-0.96
-0.96
-0.96
-0.97
-0.975
-0.99
-1.0
-1.0
-1.0
-1.005
-0.985
-0.99
-0.99
-0.985
-1.0
-1.005
-1.01
-1.02
-1.03
-1.035
-1.05
-1.04
-1.04
-1.025
-1.015
-1.01
-1.025
-1.035
-1.045
-1.055
-1.065
-1.06
-1.065
-1.06
-1.055
-1.05
-1.05
-1.065
-1.07
-1.085
-1.08
-1.095
-1.115
-1.12
-1.125
-1.125
-1.12
-1.11
-1.11
-1.115
-1.13
-1.125
-1.15
-1.145
-1.17
-1.175
-1.18
-1.17
-1.17
-1.17
-1.16
-1.16
-1.155
-1.175
-1.17
-1.18
-1.18
-1.18
-1.175
-1.17
-1.155
-1.14
-1.12
-1.105
-1.105
-1.095
-1.08
-1.08
-1.075
-1.055
-1.035
-1.01
-0.985
-0.975
-0.945
-0.925
-0.915
-0.91
-0.9
-0.89
-0.89
-0.88
-0.87
-0.855
-0.825
-0.825
-0.8
-0.8
-0.795
-0.815
-0.82
-0.84
-0.845
-0.84
-0.85
-0.85
-0.855
-0.85
-0.855
-0.865
-0.88
-0.885
-0.905
-0.915
-0.925
-0.93
-0.94
-0.955
-0.95
-0.945
-0.945
-0.945
-0.955
-0.965
-0.975
-0.985
-0.985
-0.995
-0.995
-0.98
-0.965
-0.96
-0.95
-0.95
-0.95
-0.96
-0.965
-0.97
-0.97
-0.975
-0.965
-0.965
-0.96
-0.935
-0.93
-0.92
-0.925
-0.94
-0.94
-0.955
-0.95
-0.955
-0.94
-0.935
-0.93
-0.91
-0.91
-0.895
-0.905
-0.915
-0.92
-0.92
-0.935
-0.92
-0.935
-0.92
-0.915
-0.905
-0.895
-0.885
-0.885
-0.905
-0.89
-0.9
-0.91
-0.91
-0.91
-0.895
-0.9
-0.9
-0.875
-0.885
-0.89
-0.9
-0.895
-0.9
-0.9
-0.905
-0.895
-0.9
-0.89
-0.89
-0.88
-0.885
-0.875
-0.895
-0.895
-0.905
-0.905
-0.89
-0.895
-0.885
-0.875
-0.88
-0.87
-0.875
-0.875
-0.875
-0.88
-0.885
-0.89
-0.9
-0.89
-0.895
-0.885
-0.89
-0.88
-0.87
-0.875
-0.885
-0.89
-0.88
-0.905
-0.895
-0.9
-0.9
-0.89
-0.89
-0.885
-0.89
-0.89
-0.895
-0.89
-0.905
-0.9
-0.895
-0.895
-0.9
-0.89
-0.875
-0.87
-0.865
-0.87
-0.87
-0.89
-0.895
-0.895
-0.9
-0.895
-0.895
-0.88
-0.88
-0.87
-0.865
-0.87
-0.88
-0.885
-0.89
-0.89
-0.885
-0.885
-0.875
-0.87
-0.87
-0.865
-0.87
-0.875
-0.87
-0.875
-0.89
-0.89
-0.885
-0.88
-0.87
-0.865
-0.875
-0.865
-0.865
-0.87
-0.865
-0.875
-0.88
-0.885
-0.895
-0.875
-0.865
-0.86
-0.86
-0.86
-0.855
-0.855
-0.86
-0.88
-0.885
-0.875
-0.875
-0.87
-0.86
-0.865
-0.845
-0.86
-0.865
-0.875
-0.88
-0.885
-0.88
-0.885
-0.885
-0.89
-0.88
-0.87
-0.855
-0.86
-0.855
-0.865
-0.88
-0.88
-0.875
-0.88
-0.865
-0.865
-0.86
-0.855
-0.835
-0.835
-0.83
-0.84
-0.855
-0.86
-0.855
-0.875
-0.85
-0.845
-0.805
-0.8
-0.795
-0.775
-0.785
-0.795
-0.8
-0.81
-0.825
-0.835
-0.835
-0.83
-0.83
-0.825
-0.81
-0.81
-0.805
-0.81
-0.805
-0.8
-0.8
-0.79
-0.78
-0.78
-0.785
-0.785
-0.81
-0.815
-0.83
-0.85
-0.87
-0.875
-0.885
-0.9
-0.9
-0.885
-0.875
-0.875
-0.865
-0.86
-0.86
-0.865
-0.89
-0.91
-0.915
-0.9
-0.85
-0.765
-0.665
-0.57
-0.5
-0.45
-0.46
-0.53
-0.66
-0.805
-0.91
-0.915
-0.8
-0.6
-0.31
-0.03
0.25
0.515
0.735
0.94
1.105
1.235
1.31
1.33
1.285
1.2
1.055
0.855
0.635
0.41
0.19
0.0
-0.215
-0.44
-0.65
-0.83
-0.975
-1.09
-1.14
-1.155
-1.135
-1.11
-1.09
-1.07
-1.065
-1.055
-1.05
-1.045
-1.05
-1.025
-1.02
-1.0
-0.99
-1.0
-0.99
-1.0
-1.01
-1.01
-1.02
-1.025
-1.04
-1.015
-1.01
-1.01
-1.005
-1.005
-1.005
-1.01
-1.03
-1.04
-1.045
-1.04
-1.05
-1.045
-1.03
-1.025
-1.03
-1.025
-1.02
-1.025
-1.035
-1.04
-1.06
-1.065
-1.07
-1.07
-1.06
-1.05
-1.05
-1.035
-1.045
-1.055
-1.055
-1.08
-1.085
-1.09
-1.11
-1.105
-1.105
-1.105
-1.1
-1.095
-1.095
-1.115
-1.11
-1.125
-1.135
-1.15
-1.16
-1.15
-1.155
-1.155
-1.165
-1.155
-1.155
-1.16
-1.16
-1.18
-1.19
-1.195
-1.2
-1.205
-1.205
-1.205
-1.205
-1.2
-1.19
-1.19
-1.195
-1.195
-1.2
-1.21
-1.205
-1.19
-1.18
-1.145
-1.12
-1.12
-1.115
-1.09
-1.075
-1.07
-1.055
-1.05
-1.05
-1.02
-1.0
-0.975
-0.95
-0.93
-0.925
-0.905
-0.91
-0.91
-0.905
-0.89
-0.875
-0.865
-0.855
-0.845
-0.83
-0.825
-0.835
-0.825
-0.825
-0.835
-0.85
-0.85
-0.86
-0.87
-0.865
-0.875
-0.885
-0.885
-0.885
-0.905
-0.915
-0.92
-0.94
-0.95
-0.96
-0.97
-0.97
-0.98
-0.97
-0.965
-0.975
-0.98
-1.0
-1.0
-1.02
-1.02
-1.025
-1.025
-1.015
-1.015
-1.01
-1.0
-0.99
-0.995
-1.0
-1.01
-1.0
-1.01
-1.0
-0.995
-1.0
-0.99
-0.98
-0.975
-0.975
-0.98
-0.97
-0.975
-0.99
-0.98
-0.975
-0.965
-0.96
-0.945
-0.94
-0.935
-0.935
-0.93
-0.93
-0.93
-0.93
-0.925
-0.93
-0.94
-0.92
-0.925
-0.91
-0.91
-0.915
-0.91
-0.915
-0.91
-0.92
-0.925
-0.915
-0.915
-0.91
-0.89
-0.895
-0.88
-0.885
-0.89
-0.9
-0.895
-0.9
-0.895
-0.895
-0.895
-0.895
-0.895
-0.895
-0.9
-0.875
-0.875
-0.885
-0.885
-0.9
-0.91
-0.9
-0.9
-0.905
-0.89
-0.875
-0.86
-0.87
-0.87
-0.875
-0.88
-0.895
-0.895
-0.9
-0.9
-0.885
-0.87
-0.88
-0.86
-0.865
-0.865
-0.875
-0.88
-0.885
-0.9
-0.895
-0.885
-0.885
-0.88
-0.865
-0.85
-0.855
-0.86
-0.87
-0.87
-0.885
-0.89
-0.885
-0.89
-0.895
-0.88
-0.86
-0.84
-0.85
-0.85
-0.855
-0.87
-0.88
-0.885
-0.89
-0.875
-0.87
-0.855
-0.85
-0.845
-0.845
-0.845
-0.86
-0.875
-0.875
-0.875
-0.88
-0.88
-0.875
-0.86
-0.85
-0.835
-0.835
-0.84
-0.845
-0.855
-0.855
-0.855
-0.87
-0.855
-0.855
-0.85
-0.835
-0.83
-0.835
-0.835
-0.84
-0.86
-0.85
-0.845
-0.865
-0.87
-0.85
-0.86
-0.855
-0.84
-0.855
-0.855
-0.855
-0.88
-0.865
-0.875
-0.87
-0.87
-0.865
-0.85
-0.85
-0.84
-0.85
-0.85
-0.845
-0.855
-0.855
-0.855
-0.855
-0.865
-0.855
-0.855
-0.845
-0.84
-0.84
-0.84
-0.84
-0.845
-0.845
-0.85
-0.855
-0.855
-0.84
-0.845
-0.84
-0.825
-0.84
-0.845
-0.825
-0.82
-0.85
-0.835
-0.84
-0.845
-0.84
-0.825
-0.835
-0.805
-0.805
-0.8
-0.81
-0.815
-0.825
-0.82
-0.81
-0.795
-0.79
-0.775
-0.76
-0.75
-0.745
-0.755
-0.765
-0.775
-0.79
-0.795
-0.805
-0.8
-0.79
-0.815
-0.795
-0.79
-0.775
-0.755
-0.74
-0.75
-0.75
-0.755
-0.78
-0.78
-0.805
-0.82
-0.825
-0.83
-0.835
-0.835
-0.865
-0.85
-0.855
-0.855
-0.86
-0.85
-0.845
-0.845
-0.83
-0.83
-0.835
-0.845
-0.84
-0.83
-0.785
-0.7
-0.625
-0.54
-0.465
-0.43
-0.465
-0.555
-0.71
-0.865
-0.945
-0.925
-0.785
-0.565
-0.305
-0.035
0.215
0.445
0.665
0.86
1.01
1.115
1.185
1.2
1.16
1.08
0.945
0.79
0.595
0.405
0.21
0.02
-0.205
-0.425
-0.64
-0.81
-0.955
-1.035
-1.065
-1.075
-1.065
-1.05
-1.02
-1.005
-0.995
-0.99
-0.965
-0.955
-0.965
-0.955
-0.965
-0.975
-0.97
-0.975
-0.975
-0.96
-0.965
-0.97
-0.96
-0.96
-0.96
-0.965
-0.97
-0.975
-0.97
-0.98
-0.97
-0.955
-0.955
-0.965
-0.955
-0.97
-0.965
-0.98
-0.975
-0.985
-0.975
-0.975
-0.965
-0.975
-0.97
-0.99
-0.99
-1.0
-0.99
-1.0
-1.01
-1.015
-1.015
-1.01
-1.015
-1.0
-1.005
-1.02
-1.02
-1.02
-1.035
-1.04
-1.045
-1.055
-1.045
-1.055
-1.05
-1.05
-1.055
-1.07
-1.08
-1.08
-1.095
-1.115
-1.105
-1.12
-1.105
-1.11
-1.105
-1.1
-1.11
-1.125
-1.125
-1.155
-1.13
-1.13
-1.14
-1.135
-1.13
-1.13
-1.115
-1.1
-1.1
-1.085
-1.095
-1.085
-1.09
-1.08
-1.075
-1.05
-1.045
-1.025
-1.01
-0.98
-0.975
-0.96
-0.955
-0.945
-0.935
-0.915
-0.91
-0.9
-0.89
-0.865
-0.845
-0.815
-0.815
-0.81
-0.805
-0.795
-0.79
-0.81
-0.8
-0.805
-0.795
-0.8
-0.79
-0.78
-0.785
-0.78
-0.8
-0.82
-0.83
-0.86
-0.845
-0.875
-0.88
-0.875
-0.875
-0.87
-0.88
-0.895
-0.91
-0.92
-0.925
-0.935
-0.945
-0.96
-0.955
-0.95
-0.95
-0.94
-0.955
-0.955
-0.96
-0.97
-0.97
-0.98
-0.965
-0.965
-0.955
-0.95
-0.945
-0.95
-0.95
-0.95
-0.935
-0.94
-0.945
-0.945
-0.95
-0.94
-0.935
-0.93
-0.925
-0.91
-0.905
-0.905
-0.925
-0.93
-0.915
-0.91
-0.92
-0.915
-0.91
-0.89
-0.89
-0.89
-0.88
-0.885
-0.895
-0.9
-0.9
-0.895
-0.9
-0.9
-0.885
-0.87
-0.875
-0.87
-0.87
-0.88
-0.87
-0.885
-0.9
-0.9
-0.905
-0.89
-0.89
-0.88
-0.875
-0.87
-0.865
-0.865
-0.875
-0.87
-0.88
-0.895
-0.89
-0.88
-0.885
-0.86
-0.855
-0.85
-0.86
-0.855
-0.855
-0.865
-0.875
-0.88
-0.875
-0.875
-0.86
-0.855
-0.845
-0.85
-0.845
-0.85
-0.865
-0.865
-0.88
-0.88
-0.87
-0.88
-0.865
-0.86
-0.85
-0.835
-0.845
-0.84
-0.85
-0.86
-0.865
-0.88
-0.87
-0.865
-0.86
-0.845
-0.835
-0.85
-0.84
-0.85
-0.845
-0.865
-0.855
-0.855
-0.865
-0.865
-0.855
-0.845
-0.845
-0.83
-0.825
-0.84
-0.85
-0.855
-0.87
-0.86
-0.865
-0.865
-0.84
-0.835
-0.82
-0.815
-0.825
-0.83
-0.84
-0.84
-0.85
-0.855
-0.855
-0.855
-0.855
-0.825
-0.83
-0.81
-0.825
-0.815
-0.835
-0.85
-0.86
-0.85
-0.86
-0.85
-0.84
-0.835
-0.84
-0.825
-0.835
-0.83
-0.835
-0.84
-0.845
-0.85
-0.845
-0.845
-0.85
-0.84
-0.83
-0.815
-0.82
-0.83
-0.835
-0.84
-0.85
-0.845
-0.845
-0.835
-0.83
-0.82
-0.81
-0.8
-0.815
-0.82
-0.81
-0.825
-0.825
-0.82
-0.825
-0.82
-0.815
-0.8
-0.795
-0.78
-0.79
-0.79
-0.805
-0.82
-0.81
-0.81
-0.79
-0.795
-0.765
-0.755
-0.745
-0.745
-0.745
-0.745
-0.765
-0.765
-0.775
-0.795
-0.805
-0.815
-0.805
-0.795
-0.785
-0.775
-0.77
-0.765
-0.76
-0.755
-0.74
-0.745
-0.745
-0.765
-0.77
-0.785
-0.795
-0.795
-0.81
-0.82
-0.835
-0.845
-0.855
-0.86
-0.86
-0.865
-0.855
-0.845
-0.835
-0.825
-0.825
-0.835
-0.85
-0.855
-0.865
-0.84
-0.78
-0.69
-0.595
-0.52
-0.455
-0.415
-0.43
-0.485
-0.585
-0.735
-0.855
-0.91
-0.88
-0.75
-0.55
-0.305
-0.065
0.19
0.405
0.63
0.82
1.0
1.145
1.25
1.3
1.315
1.27
1.185
1.08
0.915
0.73
0.52
0.32
0.135
-0.055
-0.235
-0.425
-0.605
-0.765
-0.9
-0.99
-1.05
-1.07
-1.075
-1.07
-1.06
-1.05
-1.055
-1.04
-1.03
-1.0
-0.99
-0.965
-0.95
-0.94
-0.955
-0.965
-0.985
-0.99
-0.985
-0.98
-0.975
-0.97
-0.965
-0.95
-0.965
-0.965
-0.96
-0.97
-0.975
-0.975
-0.995
-1.0
-1.0
-0.985
-0.98
-0.98
-0.965
-0.985
-0.98
-0.99
-0.995
-1.0
-1.005
-1.015
-1.005
-1.005
-1.0
-1.005
-0.995
-1.005
-1.015
-1.015
-1.02
-1.025
-1.045
-1.055
-1.04
-1.055
-1.04
-1.03
-1.03
-1.03
-1.03
-1.04
-1.05
-1.055
-1.08
-1.08
-1.085
-1.08
-1.085
-1.08
-1.085
-1.08
-1.09
-1.105
-1.115
-1.105
-1.125
-1.135
-1.135
-1.15
-1.145
-1.13
-1.125
-1.145
-1.145
-1.145
-1.165
-1.175
-1.175
-1.185
-1.19
-1.175
-1.175
-1.16
-1.14
-1.13
-1.13
-1.125
-1.12
-1.12
-1.115
-1.115
-1.1
-1.095
-1.08
-1.06
-1.04
-1.035
-1.02
-0.995
-0.995
-0.965
-0.96
-0.965
-0.95
-0.91
-0.885
-0.865
-0.855
-0.835
-0.84
-0.835
-0.82
-0.825
-0.805
-0.795
-0.79
-0.785
-0.77
-0.775
-0.77
-0.765
-0.77
-0.775
-0.78
-0.8
-0.805
-0.815
-0.82
-0.82
-0.825
-0.835
-0.845
-0.86
-0.875
-0.88
-0.88
-0.895
-0.91
-0.92
-0.935
-0.94
-0.925
-0.935
-0.93
-0.945
-0.935
-0.935
-0.95
-0.945
-0.945
-0.955
-0.95
-0.945
-0.945
-0.935
-0.925
-0.935
-0.925
-0.925
-0.93
-0.93
-0.925
-0.925
-0.925
-0.915
-0.9
-0.9
-0.895
-0.88
-0.88
-0.885
-0.88
-0.89
-0.89
-0.885
-0.885
-0.885
-0.87
-0.87
-0.865
-0.86
-0.87
-0.87
-0.875
-0.875
-0.875
-0.875
-0.87
-0.865
-0.865
-0.865
-0.85
-0.85
-0.85
-0.855
-0.87
-0.875
-0.875
-0.875
-0.87
-0.855
-0.85
-0.855
-0.86
-0.86
-0.855
-0.86
-0.855
-0.86
-0.87
-0.865
-0.865
-0.875
-0.85
-0.85
-0.83
-0.84
-0.845
-0.85
-0.845
-0.86
-0.86
-0.845
-0.865
-0.855
-0.845
-0.835
-0.835
-0.83
-0.83
-0.84
-0.845
-0.85
-0.84
-0.84
-0.845
-0.835
-0.83
-0.83
-0.825
-0.825
-0.825
-0.84
-0.84
-0.84
-0.84
-0.835
-0.84
-0.835
-0.835
-0.815
-0.845
-0.83
-0.835
-0.825
-0.83
-0.84
-0.84
-0.84
-0.835
-0.83
-0.83
-0.83
-0.835
-0.83
-0.84
-0.83
-0.835
-0.84
-0.845
-0.845
-0.83
-0.835
-0.825
-0.825
-0.81
-0.795
-0.805
-0.815
-0.835
-0.83
-0.835
-0.84
-0.825
-0.82
-0.815
-0.805
-0.81
-0.795
-0.805
-0.81
-0.83
-0.84
-0.845
-0.855
-0.84
-0.845
-0.83
-0.825
-0.825
-0.82
-0.82
-0.84
-0.84
-0.85
-0.85
-0.85
-0.845
-0.845
-0.825
-0.82
-0.815
-0.81
-0.81
-0.82
-0.82
-0.835
-0.83
-0.835
-0.835
-0.835
-0.825
-0.825
-0.82
-0.81
-0.815
-0.82
-0.815
-0.83
-0.84
-0.845
-0.845
-0.835
-0.835
-0.815
-0.815
-0.8
-0.81
-0.82
-0.83
-0.835
-0.83
-0.83
-0.83
-0.825
-0.815
-0.8
-0.79
-0.795
-0.79
-0.79
-0.795
-0.805
-0.805
-0.805
-0.79
-0.775
-0.76
-0.755
-0.735
-0.735
-0.73
-0.745
-0.755
-0.77
-0.8
-0.815
-0.805
-0.81
-0.795
-0.795
-0.775
-0.77
-0.76
-0.765
-0.745
-0.745
-0.76
-0.76
-0.765
-0.765
-0.765
-0.775
-0.795
-0.81
-0.815
-0.83
-0.84
-0.845
-0.86
-0.86
-0.86
-0.845
-0.84
-0.83
-0.83
-0.82
-0.82
-0.835
-0.845
-0.865
-0.875
-0.865
-0.83
-0.76
-0.655
-0.565
-0.49
-0.43
-0.41
-0.44
-0.535
-0.68
-0.815
-0.9
-0.87
-0.745
-0.505
-0.235
0.035
0.32
0.56
0.78
0.975
1.115
1.23
1.27
1.265
1.215
1.14
1.015
0.835
0.635
0.405
0.165
-0.09
-0.355
-0.615
-0.83
-1.0
-1.095
-1.13
-1.135
-1.095
-1.055
-1.02
-0.985
-0.97
-0.97
-0.965
-0.965
-0.955
-0.965
-0.97
-0.96
-0.955
-0.95
-0.945
-0.945
-0.955
-0.965
-0.965
-0.97
-0.965
-0.97
-0.965
-0.96
-0.94
-0.945
-0.955
-0.96
-0.975
-0.99
-0.99
-0.985
-0.99
-0.985
-0.98
-0.995
-0.975
-0.97
-0.985
-0.99
-0.985
-1.005
-1.015
-1.015
-1.02
-1.015
-1.005
-1.0
-0.99
-0.995
-1.005
-1.005
-1.025
-1.04
-1.055
-1.06
-1.065
-1.055
-1.06
-1.055
-1.06
-1.06
-1.06
-1.07
-1.08
-1.085
-1.105
-1.115
-1.125
-1.125
-1.13
-1.125
-1.12
-1.105
-1.125
-1.13
-1.145
-1.155
-1.16
-1.17
-1.16
-1.155
-1.135
-1.13
-1.105
-1.105
-1.1
-1.095
-1.095
-1.1
-1.09
-1.075
-1.055
-1.04
-1.02
-0.995
-0.975
-0.96
-0.95
-0.935
-0.93
-0.93
-0.91
-0.9
-0.89
-0.865
-0.84
-0.835
-0.815
-0.8
-0.79
-0.795
-0.81
-0.805
-0.81
-0.81
-0.81
-0.8
-0.8
-0.81
-0.82
-0.82
-0.825
-0.85
-0.87
-0.87
-0.885
-0.905
-0.915
-0.92
-0.91
-0.92
-0.92
-0.925
-0.935
-0.94
-0.97
-0.98
-1.01
-1.0
-1.015
-0.995
-0.995
-0.985
-0.985
-0.97
-0.98
-0.995
-0.995
-1.005
-1.01
-1.005
-0.995
-0.99
-0.985
-0.98
-0.955
-0.97
-0.96
-0.98
-0.98
-0.98
-0.97
-0.98
-0.975
-0.96
-0.955
-0.94
-0.935
-0.935
-0.935
-0.94
-0.945
-0.945
-0.95
-0.95
-0.95
-0.935
-0.925
-0.925
-0.91
-0.9
-0.905
-0.905
-0.91
-0.925
-0.93
-0.95
-0.93
-0.925
-0.92
-0.915
-0.9
-0.895
-0.9
-0.895
-0.905
-0.91
-0.91
-0.915
-0.915
-0.915
-0.895
-0.895
-0.885
-0.885
-0.885
-0.89
-0.895
-0.895
-0.905
-0.915
-0.91
-0.91
-0.91
-0.895
-0.89
-0.885
-0.885
-0.89
-0.9
-0.9
-0.895
-0.905
-0.905
-0.895
-0.895
-0.885
-0.89
-0.875
-0.875
-0.88
-0.88
-0.895
-0.905
-0.91
-0.905
-0.895
-0.905
-0.9
-0.885
-0.88
-0.88
-0.885
-0.885
-0.9
-0.9
-0.905
-0.895
-0.895
-0.9
-0.89
-0.885
-0.88
-0.89
-0.89
-0.885
-0.89
-0.88
-0.89
-0.9
-0.895
-0.89
-0.885
-0.87
-0.86
-0.875
-0.875
-0.88
-0.895
-0.91
-0.89
-0.89
-0.88
-0.87
-0.875
-0.87
-0.855
-0.87
-0.875
-0.875
-0.875
-0.895
-0.9
-0.9
-0.89
-0.88
-0.88
-0.865
-0.865
-0.875
-0.89
-0.885
-0.91
-0.905
-0.905
-0.89
-0.9
-0.885
-0.885
-0.88
-0.87
-0.875
-0.875
-0.89
-0.895
-0.895
-0.9
-0.895
-0.885
-0.885
-0.875
-0.87
-0.87
-0.875
-0.87
-0.88
-0.88
-0.89
-0.885
-0.89
-0.89
-0.875
-0.865
-0.865
-0.865
-0.88
-0.88
-0.88
-0.89
-0.9
-0.89
-0.9
-0.885
-0.87
-0.86
-0.87
-0.855
-0.87
-0.88
-0.885
-0.875
-0.885
-0.89
-0.885
-0.88
-0.875
-0.875
-0.86
-0.86
-0.87
-0.875
-0.88
-0.885
-0.9
-0.88
-0.885
-0.865
-0.865
-0.85
-0.86
-0.855
-0.85
-0.855
-0.845
-0.845
-0.85
-0.85
-0.835
-0.81
-0.815
-0.81
-0.83
-0.835
-0.845
-0.855
-0.86
-0.865
-0.86
-0.855
-0.855
-0.835
-0.805
-0.795
-0.78
-0.785
-0.785
-0.805
-0.83
-0.86
-0.88
-0.885
-0.89
-0.905
-0.895
-0.9
-0.895
-0.885
-0.885
-0.9
-0.89
-0.9
-0.895
-0.9
-0.89
-0.895
-0.895
-0.895
-0.89
-0.895
-0.85
-0.765
-0.69
-0.6
-0.54
-0.49
-0.485
-0.515
-0.605
-0.725
-0.86
-0.94
-0.92
-0.795
-0.595
-0.34
-0.055
0.21
0.445
0.7
0.93
1.1
1.2
1.245
1.205
1.105
0.94
0.735
0.485
0.25
0.005
-0.225
-0.455
-0.67
-0.865
-0.995
-1.085
-1.135
-1.145
-1.14
-1.125
-1.095
-1.075
-1.055
-1.04
-1.01
-0.99
-0.985
-0.995
-1.0
-1.015
-1.02
-1.035
-1.035
-1.025
-1.02
-1.01
-1.005
-1.0
-0.995
-1.0
-1.0
-1.015
-1.015
-1.02
-1.04
-1.035
-1.025
-1.02
-1.025
-1.015
-1.015
-1.015
-1.03
-1.035
-1.055
-1.065
-1.05
-1.06
-1.06
-1.055
-1.045
-1.035
-1.02
-1.025
-1.04
-1.045
-1.06
-1.075
-1.085
-1.085
-1.095
-1.08
-1.08
-1.07
-1.065
-1.08
-1.085
-1.105
-1.105
-1.115
-1.13
-1.12
-1.135
-1.145
-1.14
-1.125
-1.125
-1.125
-1.145
-1.16
-1.165
-1.175
-1.18
-1.19
-1.18
-1.175
-1.17
-1.175
-1.18
-1.18
-1.185
-1.19
-1.2
-1.205
-1.21
-1.2
-1.2
-1.19
-1.185
-1.155
-1.135
-1.15
-1.135
-1.125
-1.135
-1.13
-1.13
-1.105
-1.105
-1.08
-1.05
-1.04
-1.005
-1.0
-0.98
-0.985
-0.97
-0.98
-0.96
-0.94
-0.92
-0.905
-0.88
-0.865
-0.845
-0.835
-0.84
-0.85
-0.84
-0.855
-0.855
-0.865
-0.85
-0.845
-0.845
-0.845
-0.845
-0.85
-0.865
-0.885
-0.895
-0.92
-0.93
-0.945
-0.95
-0.96
-0.96
-0.955
-0.97
-0.98
-0.99
-1.005
-1.02
-1.02
-1.05
-1.035
-1.03
-1.025
-1.02
-1.0
-1.0
-1.0
-1.005
-1.01
-1.015
-1.015
-1.01
-1.015
-1.0
-0.99
-0.985
-0.99
-0.98
-0.97
-0.975
-1.0
-1.0
-1.005
-0.995
-0.985
-0.975
-0.955
-0.96
-0.945
-0.935
-0.945
-0.935
-0.945
-0.95
-0.955
-0.95
-0.955
-0.935
-0.93
-0.92
-0.915
-0.91
-0.905
-0.905
-0.91
-0.92
-0.935
-0.93
-0.925
-0.925
-0.915
-0.9
-0.885
-0.885
-0.89
-0.88
-0.885
-0.895
-0.905
-0.905
-0.905
-0.905
-0.895
-0.895
-0.885
-0.87
-0.87
-0.87
-0.875
-0.885
-0.89
-0.89
-0.895
-0.865
-0.865
-0.86
-0.85
-0.85
-0.855
-0.85
-0.875
-0.87
-0.86
-0.87
-0.87
-0.86
-0.855
-0.84
-0.83
-0.83
-0.825
-0.83
-0.835
-0.855
-0.86
-0.86
-0.855
-0.86
-0.835
-0.83
-0.825
-0.815
-0.81
-0.82
-0.82
-0.83
-0.835
-0.835
-0.84
-0.83
-0.82
-0.805
-0.8
-0.77
-0.77
-0.77
-0.765
-0.775
-0.79
-0.81
-0.825
-0.83
-0.835
-0.82
-0.81
-0.795
-0.79
-0.79
-0.805
-0.8
-0.81
-0.805
-0.805
-0.8
-0.79
-0.785
-0.765
-0.755
-0.75
-0.75
-0.755
-0.76
-0.77
-0.765
-0.78
-0.77
-0.77
-0.755
-0.74
-0.745
-0.75
-0.74
-0.75
-0.755
-0.76
-0.77
-0.76
-0.76
-0.745
-0.755
-0.735
-0.72
