Lead II
-0.2
-0.195
-0.18
-0.18
-0.19
-0.215
-0.195
-0.185
-0.16
-0.185
-0.2
-0.22
-0.23
-0.21
-0.19
-0.205
-0.21
-0.22
-0.225
-0.205
-0.18
-0.17
-0.17
-0.18
-0.195
-0.205
-0.215
-0.215
-0.225
-0.22
-0.225
-0.225
-0.2
-0.205
-0.225
-0.23
-0.245
-0.25
-0.245
-0.26
-0.25
-0.245
-0.25
-0.25
-0.225
-0.235
-0.23
-0.245
-0.245
-0.235
-0.21
-0.195
-0.2
-0.205
-0.225
-0.225
-0.215
-0.235
-0.255
-0.26
-0.255
-0.24
-0.2
-0.2
-0.22
-0.22
-0.215
-0.21
-0.215
-0.225
-0.22
-0.24
-0.225
-0.225
-0.205
-0.22
-0.25
-0.27
-0.26
-0.225
-0.195
-0.19
-0.18
-0.185
-0.19
-0.18
-0.175
-0.18
-0.175
-0.185
-0.175
-0.15
-0.135
-0.125
-0.145
-0.16
-0.17
-0.18
-0.18
-0.19
-0.205
-0.22
-0.225
-0.22
-0.22
-0.25
-0.27
-0.29
-0.305
-0.325
-0.305
-0.33
-0.305
-0.31
-0.31
-0.31
-0.31
-0.325
-0.35
-0.36
-0.355
-0.34
-0.325
-0.33
-0.345
-0.385
-0.4
-0.4
-0.395
-0.41
-0.415
-0.405
-0.405
-0.405
-0.39
-0.395
-0.4
-0.405
-0.395
-0.385
-0.38
-0.385
-0.37
-0.365
-0.355
-0.335
-0.33
-0.355
-0.365
-0.375
-0.36
-0.33
-0.32
-0.315
-0.315
-0.325
-0.33
-0.315
-0.29
-0.295
-0.3
-0.31
-0.32
-0.3
-0.29
-0.295
-0.3
-0.3
-0.305
-0.3
-0.29
-0.3
-0.345
-0.365
-0.385
-0.41
-0.425
-0.435
-0.43
-0.415
-0.385
-0.345
-0.285
-0.28
-0.255
-0.25
-0.23
-0.215
-0.19
-0.11
-0.05
0.03
0.14
0.27
0.36
0.355
0.31
0.24
0.15
0.05
-0.02
-0.085
-0.145
-0.205
-0.255
-0.265
-0.25
-0.28
-0.29
-0.29
-0.275
-0.24
-0.235
-0.24
-0.24
-0.26
-0.26
-0.29
-0.265
-0.27
-0.25
-0.25
-0.23
-0.215
-0.2
-0.21
-0.23
-0.25
-0.235
-0.245
-0.21
-0.195
-0.195
-0.2
-0.2
-0.2
-0.19
-0.18
-0.19
-0.185
-0.18
-0.155
-0.14
-0.12
-0.115
-0.145
-0.145
-0.15
-0.15
-0.175
-0.145
-0.15
-0.14
-0.12
-0.09
-0.095
-0.105
-0.11
-0.12
-0.125
-0.095
-0.11
-0.11
-0.105
-0.1
-0.07
-0.045
-0.055
-0.06
-0.095
-0.09
-0.08
-0.04
-0.04
-0.03
-0.04
-0.045
-0.04
-0.03
-0.04
-0.05
-0.05
-0.05
-0.035
-0.015
-0.005
-0.02
-0.015
-0.02
-0.015
-0.005
-0.015
-0.01
-0.03
-0.04
-0.02
0.01
0.025
0.02
-0.015
-0.025
-0.035
-0.03
-0.035
-0.05
-0.055
-0.06
-0.04
-0.04
-0.045
-0.06
-0.075
-0.09
-0.08
-0.08
-0.085
-0.105
-0.125
-0.15
-0.155
-0.15
-0.16
-0.17
-0.185
-0.195
-0.19
-0.18
-0.19
-0.22
-0.225
-0.23
-0.22
-0.21
-0.205
-0.215
-0.225
-0.23
-0.22
-0.22
-0.23
-0.255
-0.265
-0.27
-0.245
-0.22
-0.235
-0.215
-0.225
-0.235
-0.245
-0.23
-0.265
-0.28
-0.26
-0.27
-0.27
-0.265
-0.3
-0.345
-0.345
-0.35
-0.34
-0.325
-0.325
-0.33
-0.325
-0.335
-0.32
-0.3
-0.305
-0.315
-0.335
-0.345
-0.35
-0.34
-0.345
-0.34
-0.335
-0.335
-0.31
-0.3
-0.29
-0.295
-0.325
-0.345
-0.35
-0.33
-0.33
-0.325
-0.315
-0.31
-0.3
-0.285
-0.305
-0.33
-0.345
-0.365
-0.365
-0.365
-0.385
-0.39
-0.405
-0.38
-0.355
-0.34
-0.325
-0.29
-0.225
-0.145
-0.065
0.04
0.115
0.2
0.27
0.365
0.5
0.645
0.785
0.92
1.02
1.11
1.21
1.34
1.44
1.525
1.585
1.64
1.715
1.8
1.845
1.89
1.935
1.955
1.97
1.955
1.89
1.77
1.63
1.46
1.285
1.07
0.835
0.585
0.355
0.15
0.005
-0.095
-0.205
-0.32
-0.435
-0.53
-0.58
-0.585
-0.61
-0.615
-0.625
-0.625
-0.625
-0.615
-0.63
-0.645
-0.68
-0.69
-0.68
-0.67
-0.685
-0.69
-0.705
-0.7
-0.68
-0.68
-0.695
-0.705
-0.71
-0.715
-0.71
-0.705
-0.7
-0.705
-0.705
-0.725
-0.7
-0.685
-0.675
-0.665
-0.67
-0.68
-0.66
-0.67
-0.68
-0.705
-0.695
-0.71
-0.7
-0.685
-0.695
-0.705
-0.72
-0.75
-0.72
-0.7
-0.7
-0.705
-0.725
-0.74
-0.73
-0.725
-0.74
-0.745
-0.745
-0.755
-0.76
-0.73
-0.73
-0.74
-0.73
-0.755
-0.74
-0.75
-0.74
-0.74
-0.735
-0.71
-0.69
-0.685
-0.695
-0.705
-0.71
-0.72
-0.695
-0.68
-0.675
-0.685
-0.655
-0.645
-0.615
-0.6
-0.61
-0.605
-0.61
-0.6
-0.57
-0.525
-0.51
-0.51
-0.51
-0.51
-0.495
-0.465
-0.465
-0.455
-0.42
-0.395
-0.375
-0.355
-0.37
-0.38
-0.4
-0.4
-0.37
-0.36
-0.355
-0.33
-0.32
-0.34
-0.31
-0.305
-0.31
-0.32
-0.33
-0.33
-0.3
-0.27
-0.265
-0.285
-0.295
-0.315
-0.32
-0.315
-0.325
-0.325
-0.31
-0.32
-0.285
-0.27
-0.275
-0.295
-0.305
-0.34
-0.305
-0.29
-0.27
-0.265
-0.265
-0.265
-0.265
-0.265
-0.3
-0.29
-0.295
-0.26
-0.25
-0.255
-0.28
-0.29
-0.31
-0.33
-0.32
-0.305
-0.305
-0.29
-0.275
-0.265
-0.265
-0.275
-0.295
-0.3
-0.31
-0.32
-0.305
-0.285
-0.28
-0.28
-0.27
-0.285
-0.29
-0.275
-0.285
-0.295
-0.295
-0.295
-0.27
-0.27
-0.285
-0.305
-0.295
-0.32
-0.315
-0.29
-0.285
-0.285
-0.29
-0.285
-0.255
-0.265
-0.27
-0.28
-0.3
-0.31
-0.305
-0.285
-0.29
-0.315
-0.305
-0.3
-0.3
-0.285
-0.305
-0.31
-0.315
-0.33
-0.295
-0.285
-0.285
-0.3
-0.3
-0.32
-0.29
-0.27
-0.285
-0.3
-0.31
-0.33
-0.3
-0.29
-0.285
-0.305
-0.295
-0.305
-0.295
-0.27
-0.275
-0.28
-0.275
-0.28
-0.28
-0.28
-0.31
-0.3
-0.32
-0.33
-0.31
-0.3
-0.29
-0.295
-0.315
-0.32
-0.3
-0.285
-0.29
-0.31
-0.305
-0.3
-0.285
-0.275
-0.29
-0.31
-0.33
-0.32
-0.325
-0.31
-0.29
-0.295
-0.285
-0.29
-0.29
-0.285
-0.305
-0.315
-0.3
-0.31
-0.285
-0.265
-0.27
-0.275
-0.295
-0.285
-0.285
-0.285
-0.275
-0.26
-0.26
-0.245
-0.23
-0.2
-0.21
-0.225
-0.22
-0.225
-0.21
-0.19
-0.185
-0.21
-0.23
-0.25
-0.26
-0.265
-0.265
-0.29
-0.3
-0.275
-0.275
-0.25
-0.295
-0.34
-0.385
-0.4
-0.38
-0.38
-0.365
-0.385
-0.405
-0.405
-0.405
-0.375
-0.375
-0.385
-0.395
-0.415
-0.41
-0.41
-0.42
-0.425
-0.435
-0.445
-0.44
-0.42
-0.4
-0.395
-0.415
-0.415
-0.41
-0.38
-0.385
-0.41
-0.39
-0.4
-0.38
-0.37
-0.385
-0.365
-0.375
-0.38
-0.37
-0.335
-0.34
-0.35
-0.355
-0.345
-0.34
-0.31
-0.295
-0.305
-0.32
-0.32
-0.295
-0.285
-0.3
-0.315
-0.325
-0.35
-0.345
-0.345
-0.38
-0.41
-0.455
-0.445
-0.395
-0.355
-0.32
-0.29
-0.27
-0.24
-0.215
-0.19
-0.19
-0.16
-0.095
0.005
0.16
0.295
0.35
0.35
0.31
0.24
0.125
0.02
-0.07
-0.145
-0.205
-0.245
-0.25
-0.235
-0.24
-0.25
-0.27
-0.28
-0.285
-0.265
-0.27
-0.25
-0.235
-0.24
-0.235
-0.235
-0.225
-0.225
-0.24
-0.235
-0.25
-0.235
-0.25
-0.24
-0.235
-0.25
-0.245
-0.215
-0.205
-0.205
-0.185
-0.175
-0.18
-0.18
-0.175
-0.185
-0.19
-0.2
-0.185
-0.16
-0.15
-0.16
-0.165
-0.175
-0.16
-0.16
-0.165
-0.145
-0.14
-0.135
-0.1
-0.08
-0.08
-0.085
-0.11
-0.115
-0.115
-0.1
-0.085
-0.115
-0.1
-0.105
-0.1
-0.075
-0.085
-0.08
-0.075
-0.06
-0.045
-0.035
-0.03
-0.04
-0.045
-0.05
-0.04
-0.03
-0.04
-0.03
-0.03
-0.03
-0.025
-0.04
-0.035
-0.05
-0.06
-0.055
-0.045
-0.035
-0.035
-0.04
-0.05
-0.08
-0.08
-0.085
-0.08
-0.09
-0.095
-0.12
-0.13
-0.12
-0.14
-0.155
-0.155
-0.18
-0.19
-0.175
-0.19
-0.185
-0.19
-0.21
-0.215
-0.21
-0.225
-0.24
-0.235
-0.245
-0.25
-0.245
-0.26
-0.265
-0.285
-0.28
-0.285
-0.28
-0.28
-0.275
-0.28
-0.29
-0.285
-0.28
-0.305
-0.325
-0.305
-0.305
-0.295
-0.285
-0.295
-0.315
-0.345
-0.34
-0.335
-0.33
-0.305
-0.31
-0.32
-0.34
-0.345
-0.355
-0.355
-0.355
-0.355
-0.355
-0.33
-0.305
-0.315
-0.34
-0.355
-0.38
-0.35
-0.32
-0.305
-0.325
-0.34
-0.39
-0.42
-0.44
-0.44
-0.425
-0.405
-0.365
-0.275
-0.17
-0.065
0.025
0.1
0.18
0.315
0.48
0.645
0.84
0.975
1.105
1.245
1.37
1.48
1.575
1.68
1.78
1.895
1.97
2.02
2.03
1.995
1.895
1.75
1.565
1.315
1.01
0.68
0.365
0.12
-0.07
-0.23
-0.365
-0.485
-0.57
-0.605
-0.615
-0.625
-0.64
-0.655
-0.665
-0.665
-0.66
-0.665
-0.695
-0.71
-0.73
-0.745
-0.72
-0.725
-0.725
-0.73
-0.74
-0.745
-0.745
-0.76
-0.77
-0.765
-0.77
-0.755
-0.735
-0.725
-0.725
-0.725
-0.75
-0.725
-0.715
-0.715
-0.705
-0.725
-0.735
-0.73
-0.74
-0.755
-0.76
-0.775
-0.78
-0.765
-0.75
-0.75
-0.75
-0.75
-0.77
-0.775
-0.775
-0.77
-0.785
-0.77
-0.785
-0.76
-0.74
-0.735
-0.745
-0.755
-0.76
-0.75
-0.72
-0.72
-0.71
-0.68
-0.68
-0.655
-0.63
-0.635
-0.63
-0.645
-0.63
-0.6
-0.58
-0.575
-0.585
-0.59
-0.575
-0.545
-0.505
-0.485
-0.455
-0.43
-0.42
-0.4
-0.395
-0.39
-0.38
-0.37
-0.345
-0.31
-0.295
-0.305
-0.29
-0.295
-0.3
-0.285
-0.26
-0.22
-0.22
-0.185
-0.2
-0.205
-0.195
-0.205
-0.22
-0.24
-0.22
-0.215
-0.195
-0.185
-0.185
-0.2
-0.205
-0.205
-0.2
-0.195
-0.2
-0.19
-0.185
-0.17
-0.15
-0.145
-0.165
-0.175
-0.18
-0.17
-0.14
-0.145
-0.135
-0.155
-0.145
-0.145
-0.135
-0.15
-0.155
-0.16
-0.14
-0.125
-0.105
-0.105
-0.11
-0.13
-0.15
-0.13
-0.13
-0.125
-0.125
-0.12
-0.115
-0.105
-0.085
-0.105
-0.135
-0.145
-0.135
-0.115
-0.115
-0.14
-0.135
-0.125
-0.13
-0.115
-0.105
-0.11
-0.13
-0.15
-0.145
-0.135
-0.12
-0.13
-0.13
-0.15
-0.14
-0.125
-0.11
-0.12
-0.135
-0.155
-0.165
-0.165
-0.135
-0.125
-0.13
-0.135
-0.15
-0.14
-0.135
-0.13
-0.14
-0.15
-0.155
-0.14
-0.125
-0.13
-0.145
-0.165
-0.18
-0.185
-0.17
-0.16
-0.18
-0.18
-0.195
-0.175
-0.175
-0.16
-0.155
-0.155
-0.17
-0.175
-0.16
-0.175
-0.18
-0.18
-0.175
-0.17
-0.15
-0.165
-0.185
-0.195
-0.2
-0.205
-0.195
-0.2
-0.195
-0.19
-0.185
-0.185
-0.17
-0.185
-0.19
-0.205
-0.2
-0.19
-0.185
-0.2
-0.205
-0.21
-0.2
-0.205
-0.205
-0.215
-0.215
-0.225
-0.235
-0.205
-0.18
-0.18
-0.19
-0.215
-0.225
-0.22
-0.21
-0.185
-0.18
-0.175
-0.18
-0.195
-0.195
-0.19
-0.195
-0.19
-0.175
-0.16
-0.125
-0.125
-0.13
-0.155
-0.16
-0.15
-0.135
-0.13
-0.13
-0.145
-0.155
-0.155
-0.18
-0.195
-0.235
-0.25
-0.255
-0.25
-0.25
-0.26
-0.255
-0.28
-0.3
-0.3
-0.29
-0.28
-0.3
-0.295
-0.29
-0.29
-0.28
-0.28
-0.29
-0.315
-0.335
-0.34
-0.34
-0.345
-0.345
-0.36
-0.35
-0.34
-0.34
-0.335
-0.345
-0.35
-0.35
-0.32
-0.3
-0.295
-0.295
-0.315
-0.315
-0.29
-0.28
-0.255
-0.26
-0.27
-0.28
-0.275
-0.265
-0.255
-0.265
-0.26
-0.26
-0.25
-0.245
-0.245
-0.255
-0.255
-0.27
-0.26
-0.25
-0.25
-0.26
-0.265
-0.295
-0.33
-0.345
-0.37
-0.37
-0.37
-0.345
-0.32
-0.29
-0.26
-0.24
-0.22
-0.18
-0.14
-0.1
-0.05
0.03
0.155
0.275
0.365
0.395
0.37
0.3
0.155
0.05
-0.05
-0.13
-0.19
-0.23
-0.26
-0.255
-0.225
-0.21
-0.215
-0.23
-0.27
-0.275
-0.265
-0.245
-0.235
-0.23
-0.225
-0.215
-0.195
-0.185
-0.185
-0.215
-0.235
-0.225
-0.235
-0.23
-0.225
-0.215
-0.195
-0.195
-0.195
-0.19
-0.2
-0.21
-0.2
-0.185
-0.16
-0.155
-0.16
-0.155
-0.16
-0.165
-0.165
-0.15
-0.155
-0.145
-0.15
-0.145
-0.135
-0.125
-0.115
-0.135
-0.13
-0.13
-0.115
-0.085
-0.08
-0.065
-0.075
-0.095
-0.1
-0.1
-0.085
-0.07
-0.075
-0.065
-0.055
-0.04
-0.03
-0.035
-0.05
-0.04
-0.045
-0.03
-0.045
-0.055
-0.065
-0.06
-0.05
-0.045
-0.055
-0.07
-0.08
-0.07
-0.06
-0.04
-0.025
-0.015
-0.03
-0.025
-0.04
-0.03
-0.035
-0.025
-0.035
-0.03
-0.015
-0.005
-0.01
-0.035
-0.045
-0.085
-0.085
-0.075
-0.085
-0.09
-0.105
-0.115
-0.105
-0.095
-0.1
-0.11
-0.12
-0.13
-0.13
-0.145
-0.165
-0.18
-0.19
-0.19
-0.185
-0.2
-0.195
-0.2
-0.215
-0.21
-0.205
-0.215
-0.21
-0.235
-0.245
-0.235
-0.24
-0.23
-0.25
-0.27
-0.275
-0.28
-0.295
-0.3
-0.295
-0.29
-0.285
-0.295
-0.285
-0.265
-0.275
-0.28
-0.29
-0.295
-0.305
-0.29
-0.295
-0.3
-0.3
-0.32
-0.29
-0.29
-0.29
-0.3
-0.315
-0.31
-0.3
-0.29
-0.295
-0.315
-0.315
-0.325
-0.32
-0.315
-0.31
-0.31
-0.325
-0.32
-0.31
-0.3
-0.295
-0.3
-0.315
-0.315
-0.325
-0.325
-0.335
-0.35
-0.38
-0.4
-0.405
-0.4
-0.395
-0.395
-0.41
-0.4
-0.335
-0.255
-0.155
-0.065
0.03
0.105
0.2
0.3
0.405
0.54
0.695
0.85
0.995
1.14
1.24
1.35
1.435
1.505
1.6
1.675
1.74
1.81
1.86
1.93
1.98
2.03
2.03
1.985
1.875
1.71
1.535
1.325
1.085
0.82
0.555
0.33
0.155
-0.005
-0.115
-0.205
-0.32
-0.42
-0.495
-0.555
-0.6
-0.625
-0.625
-0.63
-0.62
-0.615
-0.625
-0.65
-0.665
-0.675
-0.69
-0.675
-0.68
-0.675
-0.69
-0.695
-0.69
-0.705
-0.695
-0.7
-0.71
-0.71
-0.715
-0.705
-0.72
-0.735
-0.74
-0.745
-0.725
-0.7
-0.695
-0.69
-0.695
-0.71
-0.715
-0.71
-0.725
-0.7
-0.7
-0.705
-0.705
-0.695
-0.695
-0.695
-0.725
-0.735
-0.735
-0.71
-0.705
-0.71
-0.715
-0.71
-0.725
-0.715
-0.72
-0.74
-0.73
-0.74
-0.72
-0.735
-0.74
-0.735
-0.725
-0.735
-0.71
-0.69
-0.695
-0.7
-0.69
-0.685
-0.68
-0.655
-0.655
-0.66
-0.67
-0.67
-0.645
-0.61
-0.59
-0.58
-0.58
-0.585
-0.565
-0.55
-0.565
-0.545
-0.51
-0.485
-0.465
-0.43
-0.425
-0.415
-0.42
-0.42
-0.405
-0.375
-0.37
-0.36
-0.33
-0.325
-0.285
-0.29
-0.29
-0.285
-0.275
-0.28
-0.24
-0.22
-0.2
-0.195
-0.18
-0.185
-0.185
-0.165
-0.16
-0.165
-0.16
-0.15
-0.125
-0.115
-0.135
-0.13
-0.15
-0.155
-0.135
-0.105
-0.105
-0.1
-0.11
-0.115
-0.11
-0.105
-0.1
-0.105
-0.095
-0.085
-0.065
-0.04
-0.065
-0.065
-0.1
-0.115
-0.1
-0.085
-0.08
-0.065
-0.075
-0.065
-0.07
-0.07
-0.065
-0.075
-0.065
-0.07
-0.04
-0.03
-0.02
-0.035
-0.045
-0.06
-0.045
-0.065
-0.065
-0.055
-0.055
-0.045
-0.03
-0.02
-0.02
-0.03
-0.05
-0.075
-0.065
-0.055
-0.045
-0.05
-0.05
-0.055
-0.05
-0.045
-0.05
-0.06
-0.05
-0.06
-0.055
-0.045
-0.025
-0.03
-0.06
-0.065
-0.05
-0.035
-0.045
-0.06
-0.065
-0.06
-0.05
-0.035
-0.04
-0.035
-0.045
-0.055
-0.06
-0.04
-0.04
-0.045
-0.055
-0.07
-0.065
-0.08
-0.075
-0.09
-0.075
-0.08
-0.065
-0.065
-0.065
-0.075
-0.085
-0.08
-0.08
-0.07
-0.07
-0.075
-0.09
-0.1
-0.1
-0.085
-0.085
-0.095
-0.105
-0.11
-0.115
-0.09
-0.085
-0.1
-0.095
-0.1
-0.095
-0.1
-0.11
-0.125
-0.125
-0.13
-0.11
-0.085
-0.085
-0.085
-0.11
-0.12
-0.13
-0.125
-0.115
-0.105
-0.12
-0.125
-0.11
-0.115
-0.125
-0.13
-0.13
-0.15
-0.14
-0.135
-0.12
-0.095
-0.115
-0.125
-0.13
-0.13
-0.135
-0.145
-0.155
-0.15
-0.13
-0.11
-0.08
-0.085
-0.065
-0.07
-0.055
-0.065
-0.08
-0.07
-0.065
-0.055
-0.04
-0.055
-0.075
-0.09
-0.11
-0.145
-0.145
-0.15
-0.155
-0.145
-0.155
-0.175
-0.18
-0.185
-0.21
-0.215
-0.225
-0.23
-0.23
-0.225
-0.24
-0.23
-0.245
-0.26
-0.24
-0.25
-0.245
-0.25
-0.28
-0.285
-0.27
-0.255
-0.24
-0.245
-0.27
-0.285
-0.31
-0.305
-0.305
-0.305
-0.31
-0.305
-0.305
-0.28
-0.295
-0.285
-0.295
-0.285
-0.265
-0.235
-0.235
-0.225
-0.235
-0.24
-0.22
-0.205
-0.2
-0.2
-0.215
-0.22
-0.22
-0.2
-0.2
-0.215
-0.215
-0.215
-0.205
-0.205
-0.19
-0.19
-0.205
-0.215
-0.215
-0.22
-0.245
-0.275
-0.315
-0.35
-0.335
-0.31
-0.295
-0.295
-0.26
-0.25
-0.2
-0.14
-0.09
-0.06
-0.05
-0.025
0.04
0.145
0.27
0.395
0.475
0.495
0.48
0.455
0.435
0.355
0.245
0.14
0.045
-0.03
-0.085
-0.12
-0.16
-0.175
-0.165
-0.16
-0.17
-0.18
-0.195
-0.205
-0.2
-0.185
-0.175
-0.17
-0.185
-0.18
-0.18
-0.165
-0.17
-0.175
-0.175
-0.165
-0.15
-0.135
-0.125
-0.13
-0.15
-0.165
-0.18
-0.16
-0.155
-0.15
-0.145
-0.125
-0.115
-0.09
-0.095
-0.095
-0.12
-0.145
-0.135
-0.11
-0.11
-0.1
-0.105
-0.1
-0.1
-0.09
-0.08
-0.09
-0.09
-0.095
-0.085
-0.065
-0.045
-0.045
-0.06
-0.07
-0.075
-0.07
-0.07
-0.07
-0.075
-0.075
-0.055
-0.03
-0.03
-0.02
-0.015
-0.035
-0.02
-0.015
-0.03
-0.02
-0.035
-0.035
-0.025
-0.01
-0.015
-0.03
-0.05
-0.045
-0.03
-0.04
-0.015
0.0
-0.015
-0.025
-0.025
-0.015
-0.02
-0.02
-0.01
-0.015
-0.015
-0.005
-0.02
-0.045
-0.06
-0.07
-0.07
-0.06
-0.06
-0.085
-0.1
-0.105
-0.12
-0.12
-0.145
-0.145
-0.16
-0.16
-0.155
-0.16
-0.155
-0.175
-0.2
-0.22
-0.225
-0.215
-0.23
-0.24
-0.24
-0.235
-0.23
-0.24
-0.23
-0.235
-0.23
-0.24
-0.22
-0.22
-0.235
-0.25
-0.275
-0.275
-0.26
-0.255
-0.24
-0.25
-0.26
-0.25
-0.235
-0.245
-0.255
-0.27
-0.27
-0.28
-0.265
-0.26
-0.265
-0.28
-0.29
-0.29
-0.29
-0.295
-0.29
-0.3
-0.3
-0.305
-0.295
-0.305
-0.32
-0.33
-0.345
-0.335
-0.3
-0.285
-0.28
-0.3
-0.335
-0.365
-0.38
-0.405
-0.425
-0.44
-0.43
-0.425
-0.4
-0.395
-0.345
-0.265
-0.19
-0.12
-0.04
0.06
0.14
0.225
0.325
0.445
0.6
0.76
0.89
1.01
1.13
1.255
1.36
1.45
1.54
1.61
1.66
1.715
1.8
1.84
1.9
1.92
1.885
1.805
1.665
1.49
1.265
1.015
0.745
0.5
0.29
0.125
-0.01
-0.115
-0.205
-0.295
-0.39
-0.495
-0.565
-0.61
-0.63
-0.64
-0.635
-0.62
-0.615
-0.63
-0.645
-0.65
-0.655
-0.645
-0.65
-0.655
-0.68
-0.68
-0.68
-0.705
-0.72
-0.725
-0.74
-0.745
-0.75
-0.75
-0.755
-0.76
-0.76
-0.8
-0.795
-0.785
-0.8
-0.795
-0.81
-0.815
-0.815
-0.8
-0.795
-0.805
-0.8
-0.81
-0.8
-0.785
-0.79
-0.8
-0.805
-0.805
-0.81
-0.79
-0.785
-0.795
-0.81
-0.815
-0.81
-0.795
-0.805
-0.8
-0.81
-0.795
-0.785
-0.78
-0.79
-0.79
-0.81
-0.81
-0.8
-0.79
-0.775
-0.785
-0.795
-0.8
-0.775
-0.755
-0.74
-0.745
-0.755
-0.73
-0.715
-0.7
-0.71
-0.71
-0.715
-0.715
-0.69
-0.665
-0.645
-0.655
-0.63
-0.625
-0.61
-0.595
-0.575
-0.56
-0.55
-0.55
-0.52
-0.505
-0.505
-0.495
-0.505
-0.49
-0.455
-0.44
-0.42
-0.4
-0.4
-0.4
-0.395
-0.37
-0.365
-0.355
-0.355
-0.345
-0.315
-0.305
-0.285
-0.29
-0.3
-0.305
-0.305
-0.28
-0.285
-0.275
-0.27
-0.27
-0.255
-0.255
-0.245
-0.26
-0.265
-0.28
-0.275
-0.26
-0.265
-0.25
-0.24
-0.24
-0.235
-0.225
-0.225
-0.235
-0.245
-0.25
-0.235
-0.22
-0.215
-0.22
-0.23
-0.225
-0.22
-0.21
-0.22
-0.215
-0.225
-0.245
-0.215
-0.195
-0.18
-0.185
-0.2
-0.205
-0.215
-0.205
-0.19
-0.195
-0.2
-0.19
-0.165
-0.16
-0.16
-0.17
-0.175
-0.195
-0.185
-0.185
-0.18
-0.17
-0.175
-0.175
-0.145
-0.13
-0.155
-0.145
-0.175
-0.18
-0.17
-0.15
-0.15
-0.16
-0.165
-0.165
-0.155
-0.14
-0.14
-0.14
-0.16
-0.155
-0.145
-0.105
-0.105
-0.105
-0.12
-0.12
-0.125
-0.13
-0.135
-0.14
-0.14
-0.135
-0.12
-0.12
-0.115
-0.115
-0.125
-0.13
-0.12
-0.11
-0.095
-0.1
-0.105
-0.105
-0.105
-0.09
-0.07
-0.085
-0.09
-0.105
-0.1
-0.095
-0.09
-0.09
-0.1
-0.11
-0.11
-0.08
-0.09
-0.085
-0.085
-0.09
-0.07
-0.055
-0.07
-0.075
-0.085
-0.095
-0.11
-0.08
-0.085
-0.055
-0.05
-0.065
-0.065
-0.06
-0.07
-0.07
-0.08
-0.075
-0.05
-0.04
-0.03
-0.03
-0.05
-0.065
-0.065
-0.055
-0.05
-0.04
-0.045
-0.02
-0.01
-0.01
-0.02
-0.04
-0.07
-0.075
-0.065
-0.04
-0.02
-0.015
-0.005
-0.025
-0.015
-0.02
-0.02
-0.035
-0.05
-0.065
-0.045
-0.04
-0.015
-0.01
0.0
-0.015
-0.005
-0.005
-0.025
-0.03
-0.03
-0.035
-0.01
0.005
0.015
0.01
0.0
0.0
-0.005
-0.005
-0.02
-0.02
0.0
0.02
0.065
0.08
0.075
0.075
0.065
0.065
0.085
0.09
0.09
0.085
0.085
0.045
0.05
0.03
0.005
-0.005
-0.025
-0.05
-0.04
-0.045
-0.03
-0.03
-0.05
-0.055
-0.055
-0.055
-0.07
-0.08
-0.08
-0.08
-0.065
-0.045
-0.04
-0.04
-0.06
-0.065
-0.065
-0.08
-0.09
-0.115
-0.12
-0.12
-0.115
-0.115
-0.125
-0.125
-0.14
-0.155
-0.14
-0.13
-0.125
-0.125
-0.125
-0.12
-0.1
-0.085
-0.085
-0.07
-0.09
-0.075
-0.065
-0.04
-0.015
-0.02
-0.045
-0.05
-0.045
-0.025
-0.025
-0.03
-0.04
-0.05
-0.04
-0.04
-0.03
-0.035
-0.04
-0.045
-0.04
-0.035
-0.035
-0.05
-0.08
-0.1
-0.125
-0.125
-0.11
-0.08
-0.04
-0.02
0.025
0.075
0.12
0.145
0.16
0.185
0.245
0.335
0.46
0.565
0.61
0.585
0.535
0.49
0.405
0.28
0.165
0.08
0.01
-0.03
-0.055
-0.07
-0.08
-0.07
-0.06
-0.03
-0.03
-0.02
-0.045
-0.075
-0.08
-0.09
-0.075
-0.075
-0.06
-0.06
-0.04
-0.025
-0.03
-0.05
-0.06
-0.055
-0.06
-0.045
-0.04
-0.04
-0.045
-0.06
-0.045
-0.03
-0.015
-0.005
0.005
0.005
0.015
0.01
0.015
-0.005
-0.005
-0.005
0.01
0.025
0.02
0.035
0.015
-0.005
0.005
0.01
0.035
0.05
0.045
0.065
0.07
0.07
0.055
0.03
0.03
0.01
0.045
0.065
0.065
0.065
0.06
0.045
0.045
0.045
0.065
0.075
0.075
0.08
0.105
0.09
0.1
0.075
0.055
0.04
0.065
0.075
0.06
0.055
0.08
0.075
0.085
0.075
0.08
0.075
0.06
0.05
0.055
0.07
0.07
0.075
0.075
0.065
0.05
0.04
0.035
0.005
-0.015
-0.025
-0.035
-0.05
-0.06
-0.07
-0.085
-0.085
-0.08
-0.09
-0.12
-0.145
-0.155
-0.16
-0.16
-0.16
-0.155
-0.145
-0.17
-0.18
-0.18
-0.17
-0.17
-0.185
-0.195
-0.21
-0.195
-0.195
-0.19
-0.195
-0.19
-0.195
-0.17
-0.18
-0.18
-0.205
-0.215
-0.225
-0.21
-0.19
-0.17
-0.185
-0.185
-0.225
-0.24
-0.245
-0.245
-0.245
-0.255
-0.26
-0.25
-0.245
-0.235
-0.25
-0.265
-0.27
-0.285
-0.285
-0.28
-0.265
-0.265
-0.26
-0.26
-0.31
-0.33
-0.37
-0.41
-0.425
-0.42
-0.365
-0.35
-0.315
-0.26
-0.18
-0.1
-0.01
0.065
0.14
0.24
0.35
0.495
0.675
0.845
0.96
1.07
1.17
1.3
1.395
1.5
1.595
1.675
1.75
1.825
1.88
1.925
1.91
1.855
1.77
1.605
1.425
1.21
0.94
0.65
0.38
0.18
0.0
-0.125
-0.235
-0.35
-0.475
-0.55
-0.62
-0.61
-0.63
-0.645
-0.655
-0.65
-0.645
-0.66
-0.655
-0.67
-0.685
-0.67
-0.675
-0.67
-0.665
-0.655
-0.67
-0.675
-0.68
-0.705
-0.72
-0.74
-0.74
-0.75
-0.725
-0.73
-0.74
-0.775
-0.78
-0.775
-0.765
-0.77
-0.755
-0.77
-0.76
-0.745
-0.74
-0.74
-0.75
-0.77
-0.79
-0.79
-0.775
-0.795
-0.8
-0.805
-0.81
-0.795
-0.775
-0.775
-0.765
-0.76
-0.78
-0.78
-0.765
-0.77
-0.765
-0.77
-0.78
-0.78
-0.79
-0.765
-0.755
-0.765
-0.765
-0.755
-0.735
-0.725
-0.73
-0.73
-0.725
-0.72
-0.685
-0.665
-0.66
-0.655
-0.655
-0.63
-0.61
-0.585
-0.58
-0.565
-0.565
-0.535
-0.535
-0.525
-0.51
-0.5
-0.465
-0.435
-0.385
-0.375
-0.395
-0.415
-0.43
-0.4
-0.37
-0.345
-0.335
-0.34
-0.335
-0.335
-0.335
-0.335
-0.335
-0.34
-0.34
-0.33
-0.32
-0.3
-0.305
-0.33
-0.335
-0.32
-0.29
-0.28
-0.3
-0.305
-0.295
-0.3
-0.29
-0.285
-0.3
-0.305
-0.295
-0.27
-0.255
-0.245
-0.27
-0.285
-0.31
-0.305
-0.285
-0.275
-0.26
-0.27
-0.26
-0.26
-0.25
-0.255
-0.26
-0.245
-0.27
-0.255
-0.245
-0.235
-0.245
-0.255
-0.27
-0.255
-0.24
-0.22
-0.21
-0.23
-0.23
-0.225
-0.235
-0.24
-0.25
-0.24
-0.245
-0.225
-0.2
-0.22
-0.24
-0.255
-0.265
-0.245
-0.225
-0.215
-0.22
-0.215
-0.22
-0.235
-0.23
-0.215
-0.225
-0.22
-0.225
-0.205
-0.175
-0.185
-0.2
-0.2
-0.21
-0.215
-0.195
-0.2
-0.195
-0.195
-0.205
-0.21
-0.185
-0.18
-0.195
-0.185
-0.195
-0.185
-0.17
-0.185
-0.19
-0.205
-0.225
-0.215
-0.2
-0.19
-0.19
-0.175
-0.17
-0.165
-0.15
-0.16
-0.2
-0.2
-0.205
-0.19
-0.17
-0.17
-0.16
-0.17
-0.17
-0.19
-0.18
-0.185
-0.185
-0.16
-0.165
-0.15
-0.145
-0.15
-0.155
-0.165
-0.17
-0.15
-0.13
-0.105
-0.11
-0.135
-0.155
-0.16
-0.165
-0.155
-0.15
-0.135
-0.12
-0.115
-0.12
-0.135
-0.145
-0.165
-0.165
-0.145
-0.105
-0.095
-0.09
-0.11
-0.13
-0.125
-0.115
-0.085
-0.06
-0.035
-0.02
-0.005
-0.005
-0.01
-0.025
-0.03
-0.03
-0.03
-0.035
-0.04
-0.065
-0.095
-0.135
-0.12
-0.1
-0.095
-0.095
-0.105
-0.115
-0.125
-0.125
-0.13
-0.13
-0.145
-0.155
-0.155
-0.145
-0.165
-0.17
-0.2
-0.19
-0.19
-0.17
-0.15
-0.155
-0.16
-0.18
-0.2
-0.2
-0.185
-0.17
-0.18
-0.17
-0.145
-0.125
-0.115
-0.12
-0.12
-0.105
-0.085
-0.065
-0.05
-0.055
-0.07
-0.065
-0.065
-0.065
-0.045
-0.055
-0.05
-0.055
-0.03
-0.02
-0.02
-0.02
-0.04
-0.045
-0.055
-0.07
-0.09
-0.11
-0.105
-0.095
-0.035
0.025
0.075
0.115
0.15
0.19
0.195
0.215
0.255
0.335
0.455
0.595
0.675
0.67
0.6
0.465
0.315
0.185
0.09
0.05
0.015
-0.01
-0.025
-0.04
-0.035
-0.05
-0.015
-0.005
-0.02
-0.02
-0.02
-0.02
-0.005
0.01
0.005
0.005
-0.005
0.01
0.01
0.005
-0.005
0.0
0.005
0.03
0.045
0.05
0.05
0.045
0.045
0.07
0.07
0.065
0.06
0.06
0.07
0.09
0.095
0.07
0.055
0.03
0.025
0.06
0.095
0.1
0.1
0.095
0.09
0.095
0.09
0.11
0.095
0.09
0.095
0.095
0.1
0.105
0.085
0.065
0.08
0.1
0.125
0.14
0.12
0.115
0.095
0.105
0.115
0.1
0.105
0.115
0.13
0.14
0.135
0.11
0.095
0.065
0.085
0.1
0.125
0.125
0.12
0.105
0.095
0.09
0.09
0.1
0.095
0.065
0.075
0.06
0.06
0.04
0.02
0.005
0.005
0.02
0.015
0.01
-0.005
-0.035
-0.04
-0.055
-0.06
-0.07
-0.08
-0.105
-0.105
-0.095
-0.105
-0.12
-0.135
-0.14
-0.14
-0.135
-0.135
-0.13
-0.135
-0.155
-0.175
-0.185
-0.185
-0.175
-0.175
-0.185
-0.195
-0.195
-0.18
-0.195
-0.19
-0.215
-0.215
-0.215
-0.21
-0.195
-0.2
-0.205
-0.195
-0.19
-0.195
-0.225
-0.235
-0.25
-0.255
-0.24
-0.235
-0.24
-0.235
-0.255
-0.255
-0.25
-0.255
-0.26
-0.26
-0.285
-0.27
-0.25
-0.25
-0.235
-0.26
-0.27
-0.295
-0.315
-0.34
-0.36
-0.375
-0.38
-0.35
-0.33
-0.305
-0.25
-0.185
-0.105
-0.02
0.09
0.16
0.235
0.295
0.375
0.48
0.59
0.72
0.845
0.965
1.115
1.265
1.4
1.495
1.59
1.655
1.71
1.75
1.79
1.805
1.785
1.695
1.55
1.375
1.18
0.94
0.69
0.445
0.225
0.055
-0.075
-0.175
-0.31
-0.425
-0.53
-0.585
-0.59
-0.59
-0.6
-0.625
-0.65
-0.66
-0.675
-0.68
-0.705
-0.71
-0.705
-0.7
-0.705
-0.71
-0.735
-0.765
-0.79
-0.805
-0.8
-0.795
-0.81
-0.825
-0.825
-0.815
-0.83
-0.815
-0.825
-0.84
-0.865
-0.84
-0.825
-0.795
-0.805
-0.815
-0.85
-0.855
-0.855
-0.855
-0.845
-0.855
-0.855
-0.86
-0.85
-0.855
-0.86
-0.865
-0.895
-0.89
-0.875
-0.865
-0.875
-0.885
-0.895
-0.885
-0.86
-0.87
-0.87
-0.865
-0.885
-0.875
-0.87
-0.86
-0.86
-0.87
-0.875
-0.83
-0.825
-0.815
-0.815
-0.835
-0.835
-0.805
-0.775
-0.785
-0.765
-0.775
-0.76
-0.77
-0.74
-0.705
-0.68
-0.685
-0.685
-0.675
-0.67
-0.645
-0.64
-0.64
-0.63
-0.61
-0.58
-0.57
-0.545
-0.53
-0.535
-0.51
-0.49
-0.485
-0.475
-0.475
-0.485
-0.475
-0.455
-0.445
-0.435
-0.435
-0.43
-0.45
-0.435
-0.41
-0.42
-0.415
-0.405
-0.395
-0.37
-0.365
-0.37
-0.385
-0.39
-0.41
-0.375
-0.37
-0.365
-0.37
-0.375
-0.405
-0.39
-0.39
-0.385
-0.405
-0.39
-0.375
-0.345
-0.33
-0.345
-0.35
-0.37
-0.365
-0.36
-0.355
-0.355
-0.355
-0.355
-0.345
-0.34
-0.325
-0.34
-0.35
