Lead II
-0.54
-0.605
-0.675
-0.715
-0.77
-0.79
-0.795
-0.81
-0.82
-0.845
-0.85
-0.855
-0.84
-0.83
-0.815
-0.8
-0.79
-0.805
-0.825
-0.835
-0.835
-0.835
-0.815
-0.81
-0.815
-0.82
-0.83
-0.815
-0.8
-0.78
-0.74
-0.74
-0.735
-0.74
-0.67
-0.475
-0.18
0.19
0.595
1.0
1.35
1.585
1.65
1.505
1.22
0.83
0.395
-0.05
-0.44
-0.75
-0.995
-1.195
-1.36
-1.46
-1.475
-1.41
-1.295
-1.14
-1.045
-0.99
-0.985
-1.01
-1.045
-1.04
-1.055
-1.045
-1.06
-1.075
-1.08
-1.095
-1.1
-1.115
-1.12
-1.12
-1.12
-1.13
-1.15
-1.15
-1.155
-1.17
-1.195
-1.195
-1.2
-1.205
-1.205
-1.185
-1.175
-1.17
-1.15
-1.14
-1.125
-1.115
-1.115
-1.11
-1.09
-1.07
-1.015
-0.965
-0.91
-0.84
-0.81
-0.815
-0.835
-0.87
-0.845
-0.815
-0.77
-0.71
-0.645
-0.575
-0.535
-0.49
-0.445
-0.4
-0.355
-0.34
-0.335
-0.345
-0.335
-0.3
-0.255
-0.205
-0.19
-0.155
-0.125
-0.075
-0.045
-0.025
-0.015
-0.015
-0.02
-0.015
0.015
0.03
0.025
0.025
0.0
-0.02
-0.025
-0.03
-0.045
-0.055
-0.08
-0.105
-0.135
-0.15
-0.17
-0.175
-0.17
-0.17
-0.195
-0.225
-0.265
-0.32
-0.375
-0.45
-0.47
-0.505
-0.51
-0.525
-0.54
-0.555
-0.59
-0.6
-0.64
-0.66
-0.685
-0.705
-0.73
-0.74
-0.76
-0.775
-0.775
-0.765
-0.755
-0.76
-0.78
-0.795
-0.825
-0.855
-0.845
-0.835
-0.82
-0.79
-0.775
-0.76
-0.74
-0.72
-0.685
-0.66
-0.605
-0.59
-0.565
-0.555
-0.55
-0.55
-0.56
-0.555
-0.565
-0.58
-0.625
-0.695
-0.765
-0.835
-0.875
-0.89
-0.895
-0.885
-0.9
-0.965
-1.04
-1.09
-1.1
-1.065
-1.005
-0.985
-0.95
-0.955
-0.99
-1.01
-1.03
-1.045
-1.055
-1.055
-1.055
-1.05
-1.04
-1.065
-1.055
-1.065
-1.075
-1.07
-1.065
-1.015
-0.925
-0.76
-0.55
-0.315
-0.035
0.285
0.615
0.965
1.245
1.39
1.335
1.075
0.685
0.215
-0.255
-0.685
-1.065
-1.39
-1.645
-1.83
-1.92
-1.895
-1.805
-1.675
-1.52
-1.4
-1.315
-1.28
-1.31
-1.375
-1.44
-1.5
-1.55
-1.54
-1.535
-1.52
-1.51
-1.52
-1.525
-1.54
-1.55
-1.55
-1.545
-1.55
-1.56
-1.57
-1.565
-1.54
-1.515
-1.505
-1.5
-1.52
-1.535
-1.535
-1.54
-1.525
-1.485
-1.455
-1.43
-1.42
-1.415
-1.38
-1.355
-1.325
-1.31
-1.32
-1.325
-1.335
-1.32
-1.31
-1.28
-1.25
-1.225
-1.175
-1.115
-1.08
-1.04
-1.035
-1.03
-1.025
-0.99
-0.955
-0.915
-0.865
-0.83
-0.795
-0.765
-0.745
-0.715
-0.675
-0.635
-0.6
-0.57
-0.535
-0.505
-0.475
-0.425
-0.385
-0.34
-0.32
-0.34
-0.38
-0.43
-0.455
-0.49
-0.5
-0.5
-0.525
-0.56
-0.635
-0.715
-0.79
-0.84
-0.87
-0.89
-0.905
-0.94
-0.975
-0.99
-0.99
-0.98
-0.975
-0.985
-1.025
-1.08
-1.14
-1.19
-1.225
-1.23
-1.24
-1.255
-1.27
-1.295
-1.325
-1.345
-1.355
-1.36
-1.36
-1.365
-1.385
-1.39
-1.38
-1.365
-1.335
-1.315
-1.315
-1.325
-1.36
-1.385
-1.41
-1.41
-1.365
-1.26
-1.07
-0.825
-0.47
0.005
0.505
1.005
1.395
1.585
1.545
1.29
0.895
0.44
-0.05
-0.48
-0.835
-1.135
-1.425
-1.66
-1.835
-1.9
-1.865
-1.745
-1.61
-1.525
-1.505
-1.545
-1.62
-1.685
-1.735
-1.74
-1.745
-1.75
-1.755
-1.75
-1.745
-1.75
-1.745
-1.74
-1.75
-1.77
-1.795
-1.825
-1.835
-1.855
-1.85
-1.85
-1.83
-1.825
-1.82
-1.82
-1.83
-1.83
-1.81
-1.78
-1.76
-1.755
-1.72
-1.67
-1.655
-1.675
-1.695
-1.695
-1.66
-1.6
-1.56
-1.525
-1.5
-1.48
-1.45
-1.41
-1.38
-1.37
-1.35
-1.32
-1.27
-1.22
-1.16
-1.09
-1.055
-1.04
-1.04
-1.02
-1.015
-1.005
-0.97
-0.915
-0.845
-0.79
-0.76
-0.76
-0.81
-0.835
-0.85
-0.85
-0.875
-0.885
-0.865
-0.85
-0.81
-0.825
-0.875
-0.92
-0.99
-1.07
-1.135
-1.17
-1.17
-1.16
-1.15
-1.15
-1.14
-1.16
-1.175
-1.205
-1.23
-1.27
-1.28
-1.265
-1.225
-1.195
-1.185
-1.23
-1.325
-1.405
-1.485
-1.505
-1.485
-1.445
-1.43
-1.455
-1.48
-1.51
-1.505
-1.495
-1.47
-1.46
-1.45
-1.465
-1.5
-1.51
-1.505
-1.49
-1.465
-1.435
-1.41
-1.425
-1.435
-1.45
-1.475
-1.48
-1.495
-1.5
-1.51
-1.5
-1.51
-1.515
-1.52
-1.53
-1.53
-1.525
-1.515
-1.515
-1.52
-1.53
-1.535
-1.535
-1.515
-1.51
-1.495
-1.49
-1.49
-1.515
-1.505
-1.49
-1.45
-1.375
-1.325
-1.31
-1.34
-1.36
-1.37
-1.41
-1.46
-1.49
-1.485
-1.435
-1.39
-1.345
-1.305
-1.285
-1.265
-1.26
-1.24
-1.245
-1.235
-1.24
-1.23
-1.24
-1.27
-1.315
-1.39
-1.48
-1.515
-1.53
-1.53
-1.505
-1.455
-1.395
-1.36
-1.345
-1.375
-1.41
-1.45
-1.475
-1.51
-1.54
-1.535
-1.505
-1.455
-1.395
-1.34
-1.275
-1.205
-1.145
-1.105
-1.095
-1.12
-1.205
-1.335
-1.52
-1.685
-1.78
-1.7
-1.465
-1.05
-0.5
0.11
0.705
1.19
1.52
1.68
1.71
1.635
1.475
1.24
0.9
0.485
0.035
-0.465
-0.945
-1.4
-1.75
-1.975
-2.055
-1.99
-1.86
-1.72
-1.625
-1.555
-1.515
-1.485
-1.46
-1.465
-1.51
-1.59
-1.665
-1.745
-1.805
-1.84
-1.875
-1.89
-1.87
-1.8
-1.73
-1.685
-1.715
-1.775
-1.795
-1.74
-1.69
-1.655
-1.65
-1.68
-1.745
-1.78
-1.8
-1.79
-1.785
-1.77
-1.735
-1.69
-1.665
-1.675
-1.715
-1.77
-1.8
-1.795
-1.765
-1.685
-1.64
-1.61
-1.605
-1.6
-1.585
-1.565
-1.53
-1.495
-1.45
-1.435
-1.45
-1.5
-1.56
-1.61
-1.62
-1.58
-1.495
-1.445
-1.405
-1.38
-1.33
-1.245
-1.185
-1.14
-1.125
-1.12
-1.115
-1.11
-1.045
-0.945
-0.825
-0.765
-0.8
-0.91
-1.02
-1.105
-1.135
-1.105
-1.03
-0.945
-0.865
-0.825
-0.805
-0.825
-0.83
-0.84
-0.83
-0.81
-0.775
-0.75
-0.76
-0.79
-0.83
-0.865
-0.885
-0.9
-0.915
-0.945
-0.985
-1.04
-1.085
-1.095
-1.085
-1.065
-1.045
-1.045
-1.055
-1.08
-1.105
-1.115
-1.095
-1.065
-1.065
-1.055
-1.055
-1.055
-1.035
-1.005
-0.96
-0.935
-0.93
-0.96
-0.995
-1.01
-1.015
-0.99
-0.935
-0.875
-0.85
-0.85
-0.85
-0.895
-0.935
-0.985
-1.025
-1.075
-1.105
-1.16
-1.175
-1.2
-1.21
-1.21
-1.21
-1.21
-1.23
-1.255
-1.28
-1.27
-1.25
-1.235
-1.24
-1.235
-1.24
-1.24
-1.255
-1.27
-1.255
-1.27
-1.27
-1.28
-1.295
-1.31
-1.32
-1.33
-1.335
-1.28
-1.15
-0.95
-0.63
-0.2
0.31
0.815
1.255
1.545
1.62
1.475
1.17
0.745
0.29
-0.135
-0.5
-0.825
-1.1
-1.385
-1.595
-1.705
-1.7
-1.61
-1.495
-1.385
-1.345
-1.355
-1.4
-1.46
-1.48
-1.495
-1.48
-1.475
-1.455
-1.45
-1.44
-1.455
-1.46
-1.47
-1.48
-1.48
-1.47
-1.465
-1.455
-1.44
-1.425
-1.405
-1.395
-1.4
-1.405
-1.415
-1.43
-1.44
-1.43
-1.405
-1.365
-1.365
-1.355
-1.34
-1.34
-1.32
-1.345
-1.33
-1.32
-1.29
-1.26
-1.205
-1.16
-1.12
-1.08
-1.04
-1.005
-0.985
-0.945
-0.93
-0.915
-0.895
-0.855
-0.815
-0.76
-0.705
-0.665
-0.64
-0.6
-0.59
-0.58
-0.565
-0.535
-0.505
-0.485
-0.475
-0.455
-0.44
-0.405
-0.385
-0.36
-0.345
-0.34
-0.355
-0.365
-0.37
-0.375
-0.355
-0.345
-0.335
-0.325
-0.34
-0.345
-0.36
-0.39
-0.42
-0.465
-0.48
-0.495
-0.49
-0.495
-0.505
-0.515
-0.545
-0.585
-0.655
-0.72
-0.765
-0.78
-0.78
-0.775
-0.755
-0.75
-0.745
-0.77
-0.81
-0.82
-0.84
-0.845
-0.83
-0.81
-0.785
-0.77
-0.765
-0.76
-0.745
-0.725
-0.68
-0.645
-0.61
-0.565
-0.545
-0.545
-0.56
-0.575
-0.57
-0.54
-0.51
-0.48
-0.46
-0.465
-0.48
-0.52
-0.565
-0.615
-0.68
-0.745
-0.76
-0.785
-0.785
-0.785
-0.775
-0.79
-0.83
-0.875
-0.9
-0.895
-0.9
-0.87
-0.865
-0.85
-0.835
-0.79
-0.785
-0.79
-0.81
-0.815
-0.83
-0.84
-0.835
-0.83
-0.835
-0.855
-0.89
-0.925
-0.93
-0.895
-0.81
-0.655
-0.445
-0.14
0.24
0.665
1.09
1.51
1.81
1.94
1.9
1.705
1.41
1.045
0.655
0.275
-0.105
-0.48
-0.795
-1.025
-1.155
-1.155
-1.11
-1.025
-0.965
-0.935
-0.91
-0.905
-0.905
-0.925
-0.96
-0.99
-1.005
-1.015
-1.01
-1.01
-1.04
-1.07
-1.085
-1.085
-1.06
-1.02
-0.98
-0.97
-0.965
-0.98
-1.025
-1.07
-1.085
-1.08
-1.08
-1.07
-1.05
-1.035
-1.015
-0.995
-0.97
-0.96
-0.925
-0.9
-0.895
-0.895
-0.9
-0.91
-0.915
-0.92
-0.885
-0.855
-0.78
-0.74
-0.675
-0.625
-0.6
-0.59
-0.55
-0.525
-0.495
-0.47
-0.405
-0.345
-0.31
-0.23
-0.205
-0.18
-0.17
-0.125
-0.09
-0.075
-0.075
-0.05
-0.02
0.035
0.08
0.115
0.11
0.105
0.105
0.11
0.13
0.155
0.175
0.2
0.21
0.21
0.205
0.205
0.2
0.2
0.2
0.19
0.165
0.135
0.11
0.115
0.105
0.11
0.11
0.105
0.085
0.06
0.045
0.035
0.005
-0.045
-0.13
-0.195
-0.245
-0.29
-0.31
-0.31
-0.28
-0.245
-0.205
-0.2
-0.24
-0.28
-0.31
-0.32
-0.305
-0.285
-0.27
-0.245
-0.225
-0.22
-0.225
-0.255
-0.275
-0.305
-0.31
-0.305
-0.275
-0.245
-0.195
-0.17
-0.145
-0.12
-0.135
-0.14
-0.155
-0.175
-0.205
-0.225
-0.255
-0.29
-0.335
-0.385
-0.42
-0.475
-0.52
-0.545
-0.565
-0.575
-0.58
-0.565
-0.56
-0.555
-0.555
-0.545
-0.545
-0.55
-0.535
-0.535
-0.54
-0.535
-0.535
-0.54
-0.515
-0.5
-0.485
-0.465
-0.45
-0.47
-0.49
-0.515
-0.53
-0.505
-0.405
-0.23
0.03
0.34
0.69
1.05
1.425
1.755
2.005
2.095
1.99
1.72
1.355
0.92
0.455
0.025
-0.34
-0.635
-0.845
-0.985
-1.045
-1.005
-0.91
-0.77
-0.635
-0.545
-0.51
-0.535
-0.58
-0.615
-0.645
-0.665
-0.655
-0.645
-0.625
-0.605
-0.615
-0.63
-0.655
-0.665
-0.68
-0.69
-0.69
-0.695
-0.7
-0.695
-0.69
-0.69
-0.71
-0.715
-0.72
-0.685
-0.665
-0.655
-0.63
-0.625
-0.605
-0.59
-0.575
-0.545
-0.535
-0.51
-0.495
-0.48
-0.45
-0.41
-0.38
-0.335
-0.29
-0.255
-0.225
-0.195
-0.19
-0.17
-0.15
-0.11
-0.09
-0.05
-0.03
0.005
0.035
0.06
0.085
0.12
0.165
0.205
0.23
0.25
0.255
0.265
0.285
0.29
0.315
0.32
0.32
0.32
0.32
0.305
0.3
0.31
0.325
0.35
0.345
0.34
0.32
0.28
0.255
0.205
0.18
0.16
0.165
0.16
0.14
0.125
0.08
0.04
0.005
-0.035
-0.065
-0.085
-0.11
-0.125
-0.16
-0.19
-0.215
-0.255
-0.285
-0.305
-0.355
-0.405
-0.445
-0.5
-0.52
-0.545
-0.55
-0.56
-0.565
-0.585
-0.59
-0.615
-0.625
-0.615
-0.62
-0.625
-0.625
-0.62
-0.635
-0.64
-0.65
-0.64
-0.64
-0.64
-0.615
-0.605
-0.59
-0.575
-0.555
-0.54
-0.49
-0.45
-0.405
-0.37
-0.34
-0.325
-0.325
-0.335
-0.345
-0.34
-0.325
-0.325
-0.35
-0.385
-0.46
-0.52
-0.6
-0.64
-0.665
-0.7
-0.705
-0.72
-0.73
-0.745
-0.75
-0.735
-0.73
-0.715
-0.705
-0.705
-0.725
-0.76
-0.775
-0.805
-0.815
-0.81
-0.79
-0.76
-0.74
-0.74
-0.765
-0.775
-0.79
-0.81
-0.815
-0.85
-0.87
-0.85
-0.765
-0.575
-0.31
0.01
0.39
0.8
1.205
1.555
1.8
1.855
1.725
1.4
0.99
0.515
0.015
-0.445
-0.88
-1.225
-1.505
-1.685
-1.735
-1.685
-1.56
-1.435
-1.32
-1.25
-1.18
-1.15
-1.14
-1.135
-1.135
-1.16
-1.17
-1.195
-1.22
-1.22
-1.23
-1.235
-1.22
-1.21
-1.18
-1.195
-1.205
-1.215
-1.225
-1.25
-1.265
-1.24
-1.225
-1.21
-1.195
-1.19
-1.19
-1.165
-1.16
-1.155
-1.145
-1.135
-1.135
-1.125
-1.115
-1.11
-1.09
-1.065
-1.055
-1.03
-0.995
-0.98
-0.96
-0.955
-0.93
-0.905
-0.875
-0.835
-0.82
-0.78
-0.765
-0.765
-0.75
-0.725
-0.715
-0.68
-0.665
-0.63
-0.605
-0.57
-0.54
-0.495
-0.49
-0.445
-0.435
-0.415
-0.41
-0.4
-0.39
-0.365
-0.34
-0.3
-0.275
-0.255
-0.25
-0.245
-0.23
-0.25
-0.255
-0.255
-0.265
-0.295
-0.3
-0.305
-0.32
-0.34
-0.375
-0.4
-0.435
-0.485
-0.515
-0.555
-0.575
-0.595
-0.615
-0.64
-0.67
-0.705
-0.74
-0.77
-0.805
-0.84
-0.865
-0.89
-0.915
-0.935
-0.955
-0.96
-0.955
-0.955
-0.945
-0.94
-0.935
-0.945
-0.965
-0.975
-0.98
-0.965
-0.955
-0.955
-0.93
-0.91
-0.88
-0.86
-0.84
-0.805
-0.785
-0.765
-0.77
-0.75
-0.735
-0.725
-0.67
-0.64
-0.635
-0.635
-0.645
-0.685
-0.73
-0.795
-0.835
-0.885
-0.93
-0.945
-0.98
-0.995
-1.02
-1.025
-1.025
-1.015
-1.02
-1.015
-1.015
-1.02
-1.01
-1.01
-1.01
-1.005
-0.99
-0.985
-0.985
-0.985
-0.99
-1.0
-1.015
-1.025
-1.025
-1.01
-1.025
-1.05
-1.07
-1.09
-1.07
-1.0
-0.825
-0.555
-0.2
0.235
0.7
1.155
1.55
1.775
1.805
1.62
1.275
0.82
0.31
-0.225
-0.705
-1.1
-1.44
-1.685
-1.81
-1.835
-1.75
-1.615
-1.485
-1.365
-1.29
-1.245
-1.225
-1.24
-1.27
-1.28
-1.3
-1.29
-1.28
-1.265
-1.27
-1.27
-1.28
-1.31
-1.33
-1.36
-1.37
-1.375
-1.36
-1.34
-1.33
-1.34
-1.34
-1.345
-1.35
-1.335
-1.335
-1.325
-1.325
-1.315
-1.31
-1.295
-1.275
-1.25
-1.225
-1.22
-1.22
-1.23
-1.215
-1.205
-1.185
-1.145
-1.12
-1.085
-1.055
-1.03
-1.015
-1.005
-0.98
-0.955
-0.93
-0.89
-0.84
-0.82
-0.8
-0.765
-0.725
-0.665
-0.63
-0.595
-0.58
-0.55
-0.53
-0.48
-0.42
-0.375
-0.315
-0.285
-0.28
-0.27
-0.27
-0.28
-0.255
-0.235
-0.21
-0.2
-0.19
-0.2
-0.2
-0.21
-0.215
-0.215
-0.21
-0.22
-0.265
-0.285
-0.33
-0.36
-0.385
-0.405
-0.41
-0.41
-0.425
-0.455
-0.485
-0.52
-0.555
-0.585
-0.61
-0.625
-0.64
-0.655
-0.68
-0.685
-0.705
-0.68
-0.69
-0.695
-0.69
-0.695
-0.73
-0.73
-0.745
-0.73
-0.715
-0.68
-0.66
-0.65
-0.64
-0.645
-0.64
-0.625
-0.61
-0.56
-0.515
-0.47
-0.435
-0.41
-0.415
-0.405
-0.405
-0.4
-0.37
-0.35
-0.32
-0.3
-0.32
-0.36
-0.415
-0.475
-0.52
-0.555
-0.59
-0.635
-0.67
-0.705
-0.715
-0.715
-0.69
-0.68
-0.675
-0.675
-0.69
-0.685
-0.685
-0.71
-0.705
-0.7
-0.69
-0.675
-0.67
-0.665
-0.66
-0.66
-0.66
-0.655
-0.655
-0.665
-0.68
-0.72
-0.72
-0.69
-0.605
-0.42
-0.15
0.165
0.515
0.905
1.3
1.67
1.94
2.045
1.945
1.65
1.235
0.74
0.245
-0.19
-0.585
-0.92
-1.165
-1.3
-1.31
-1.235
-1.08
-0.97
-0.855
-0.78
-0.77
-0.765
-0.8
-0.835
-0.87
-0.895
-0.92
-0.92
-0.905
-0.895
-0.87
-0.885
-0.895
-0.92
-0.935
-0.93
-0.915
-0.915
-0.89
-0.9
-0.905
-0.915
-0.925
-0.91
-0.895
-0.865
-0.86
-0.845
-0.855
-0.845
-0.83
-0.8
-0.765
-0.735
-0.71
-0.69
-0.69
-0.655
-0.64
-0.605
-0.555
-0.525
-0.495
-0.475
-0.475
-0.47
-0.44
-0.375
-0.3
-0.235
-0.2
-0.16
-0.13
-0.09
-0.035
0.025
0.12
0.205
0.275
0.295
0.25
0.155
0.07
0.04
0.065
0.125
0.205
0.285
0.31
0.33
0.34
0.35
0.35
0.36
0.36
0.35
0.325
0.3
0.275
0.255
0.235
0.21
0.21
0.21
0.21
0.205
0.185
0.185
0.16
0.135
0.12
0.085
0.045
-0.02
-0.08
-0.115
-0.13
-0.12
-0.125
-0.105
-0.14
-0.195
-0.275
-0.35
-0.385
-0.405
-0.41
-0.42
-0.4
-0.375
-0.355
-0.34
-0.335
-0.335
-0.32
-0.3
-0.28
-0.265
-0.225
-0.19
-0.16
-0.135
-0.105
-0.08
-0.025
-0.005
-0.005
-0.005
-0.035
-0.06
-0.095
-0.11
-0.145
-0.15
-0.17
-0.205
-0.26
-0.345
-0.42
-0.5
-0.515
-0.495
-0.47
-0.44
-0.42
-0.405
-0.415
-0.405
-0.42
-0.415
-0.415
-0.405
-0.405
-0.4
-0.415
-0.425
-0.445
-0.45
-0.435
-0.435
-0.435
-0.46
-0.49
-0.5
-0.435
-0.29
-0.04
0.28
0.68
1.135
1.6
2.015
2.275
2.38
2.27
2.015
1.675
1.26
0.805
0.365
-0.05
-0.415
-0.725
-0.93
-1.01
-0.975
-0.855
-0.725
-0.625
-0.56
-0.53
-0.545
-0.585
-0.62
-0.665
-0.695
-0.72
-0.725
-0.705
-0.69
-0.685
-0.705
-0.71
-0.72
-0.725
-0.74
-0.735
-0.725
-0.725
-0.75
-0.77
-0.76
-0.76
-0.755
-0.735
-0.72
-0.71
-0.695
-0.695
-0.685
-0.675
-0.65
-0.63
-0.61
-0.585
-0.57
-0.55
-0.52
-0.49
-0.44
-0.4
-0.36
-0.32
-0.28
-0.235
-0.215
-0.205
-0.155
-0.11
-0.065
0.0
0.05
0.085
0.135
0.165
0.2
0.25
0.295
0.34
0.38
0.42
0.45
0.49
0.535
0.555
0.59
0.62
0.63
0.63
0.63
0.625
0.63
0.64
0.65
0.66
0.665
0.655
0.645
0.62
0.6
0.57
0.56
0.555
0.525
0.495
0.465
0.445
0.43
0.405
0.395
0.38
0.36
0.32
0.295
0.25
0.22
0.21
0.185
0.17
0.15
0.135
0.105
0.06
0.04
0.01
-0.01
-0.03
-0.035
-0.045
-0.045
-0.055
-0.055
-0.045
-0.04
-0.04
-0.03
-0.03
-0.03
-0.015
0.0
0.025
0.055
0.09
0.125
0.145
0.17
0.17
0.185
0.205
0.215
0.235
0.23
0.215
0.18
0.12
0.07
0.02
-0.03
-0.065
-0.105
-0.13
-0.155
-0.175
-0.17
-0.165
-0.16
-0.14
-0.12
-0.105
-0.11
-0.11
-0.11
-0.115
-0.11
-0.1
-0.095
-0.085
-0.08
-0.1
-0.095
-0.095
-0.1
-0.095
-0.12
-0.145
-0.165
-0.16
-0.085
0.045
0.265
0.54
0.885
1.275
1.675
2.035
2.265
2.305
2.145
1.825
1.375
0.88
0.42
0.03
-0.265
-0.485
-0.62
-0.69
-0.665
-0.58
-0.47
-0.365
-0.29
-0.245
-0.21
-0.23
-0.235
-0.26
-0.28
-0.285
-0.29
-0.3
-0.31
-0.315
-0.305
-0.31
-0.325
-0.325
-0.335
-0.335
-0.33
-0.325
-0.31
-0.32
-0.335
-0.345
-0.34
-0.33
-0.305
-0.27
-0.225
-0.205
-0.195
-0.185
-0.185
-0.17
-0.145
-0.11
-0.08
-0.04
-0.005
0.035
0.07
0.12
0.15
0.19
0.21
0.23
0.24
0.235
0.26
0.305
0.37
0.415
0.47
0.505
0.53
0.56
0.58
0.615
0.625
0.64
0.655
0.67
0.685
0.705
0.735
0.765
0.775
0.76
0.745
0.725
0.71
0.7
0.705
0.705
0.715
0.705
0.695
0.67
0.63
0.585
0.555
0.54
0.52
0.49
0.45
0.42
0.39
0.36
0.345
0.33
0.3
0.25
0.22
0.155
0.14
0.12
0.1
0.06
0.065
0.04
0.015
-0.025
-0.06
-0.12
-0.155
-0.205
-0.235
-0.24
-0.255
-0.245
-0.255
-0.265
-0.255
-0.25
-0.235
-0.235
-0.24
-0.24
-0.255
-0.255
-0.25
-0.215
-0.155
-0.1
-0.055
-0.03
-0.02
-0.02
-0.045
-0.015
-0.005
0.035
0.055
0.075
0.065
0.05
0.015
-0.03
-0.075
-0.145
-0.21
-0.25
-0.3
-0.35
-0.38
-0.39
-0.39
-0.385
-0.375
-0.37
-0.36
-0.365
-0.38
-0.39
-0.395
-0.38
-0.37
-0.365
-0.36
-0.365
-0.38
-0.39
-0.395
-0.395
-0.4
-0.39
-0.405
-0.425
-0.455
-0.48
-0.495
-0.44
-0.29
-0.055
0.26
0.625
1.005
1.42
1.78
2.065
2.205
2.18
1.995
1.67
1.265
0.785
0.315
-0.13
-0.52
-0.845
-1.095
-1.245
-1.29
-1.235
-1.12
-0.98
-0.855
-0.76
-0.715
-0.705
-0.74
-0.775
-0.83
-0.85
-0.855
-0.84
-0.815
-0.81
-0.82
-0.84
-0.865
-0.865
-0.86
-0.855
-0.855
-0.855
-0.875
-0.885
-0.895
-0.88
-0.86
-0.825
-0.805
-0.795
-0.79
-0.805
-0.82
-0.83
-0.825
-0.8
-0.76
-0.74
-0.705
-0.685
-0.685
-0.67
-0.675
-0.65
-0.61
-0.585
-0.555
-0.54
-0.53
-0.52
-0.515
-0.485
-0.46
-0.425
-0.4
-0.37
-0.345
-0.315
-0.295
-0.275
-0.23
-0.195
-0.16
-0.115
-0.095
-0.075
-0.07
-0.055
-0.045
0.005
0.045
0.07
0.095
0.115
0.13
0.12
0.125
0.14
0.155
0.16
0.175
0.17
0.16
0.15
0.145
0.13
0.135
0.13
0.12
0.095
0.075
0.035
-0.02
-0.06
-0.075
-0.09
-0.095
-0.125
-0.14
-0.165
-0.19
-0.24
-0.29
-0.32
-0.36
-0.385
-0.41
-0.43
-0.45
-0.465
-0.47
-0.48
-0.485
-0.485
-0.495
-0.535
-0.56
-0.575
-0.595
-0.6
-0.59
-0.57
-0.545
-0.535
-0.545
-0.555
-0.565
-0.56
-0.545
-0.515
-0.485
-0.445
-0.42
-0.405
-0.36
-0.325
-0.295
-0.26
-0.245
-0.235
-0.23
-0.245
-0.255
-0.265
-0.28
-0.295
-0.315
-0.365
-0.43
-0.485
-0.555
-0.605
-0.62
-0.635
-0.63
-0.615
-0.595
-0.59
-0.585
-0.59
-0.585
-0.585
-0.585
-0.58
-0.59
-0.605
-0.615
-0.6
-0.595
-0.58
-0.56
-0.55
-0.555
-0.58
-0.625
-0.675
-0.68
-0.67
-0.62
-0.51
-0.32
-0.065
0.21
0.55
0.945
1.355
1.735
1.98
2.02
1.87
1.55
1.125
0.645
0.15
-0.295
-0.7
-1.025
-1.245
-1.345
-1.32
-1.19
-1.04
-0.89
-0.8
-0.765
-0.77
-0.805
-0.815
-0.85
-0.855
-0.865
-0.855
-0.88
-0.885
-0.885
-0.89
-0.885
-0.865
-0.855
-0.87
-0.885
-0.88
-0.9
-0.915
-0.905
-0.9
-0.9
-0.88
-0.88
-0.87
-0.855
-0.815
-0.8
-0.78
-0.765
-0.76
-0.755
-0.74
-0.72
-0.675
-0.64
-0.6
-0.565
-0.55
-0.535
-0.515
-0.49
-0.46
-0.4
-0.365
-0.335
-0.305
-0.27
-0.22
-0.16
-0.12
-0.055
-0.025
0.02
0.055
0.065
0.085
0.135
0.17
0.215
0.255
0.275
0.3
0.335
0.355
0.38
0.405
0.42
0.43
0.425
0.43
0.425
0.435
0.425
0.44
0.44
0.43
0.415
0.39
0.36
0.34
0.325
0.315
0.32
0.3
0.29
0.255
0.22
0.175
0.145
0.11
0.08
0.05
0.035
0.005
-0.025
-0.05
-0.055
-0.07
-0.075
-0.07
-0.08
-0.09
-0.115
-0.155
-0.175
-0.175
-0.15
-0.14
-0.13
-0.135
-0.115
-0.125
-0.13
-0.125
-0.12
-0.085
-0.055
-0.02
0.025
0.04
0.07
0.08
0.095
0.12
0.14
0.135
0.145
0.145
0.145
0.15
0.11
0.09
0.055
0.0
-0.05
-0.11
-0.165
-0.215
-0.24
-0.245
-0.245
-0.225
-0.215
-0.22
-0.24
-0.24
-0.245
-0.24
-0.225
-0.21
-0.21
-0.225
-0.23
-0.24
-0.245
-0.245
-0.23
-0.215
-0.21
-0.21
-0.225
-0.28
-0.295
-0.315
-0.3
-0.23
-0.1
0.1
0.355
0.67
1.03
1.435
1.825
2.145
2.33
2.37
2.245
2.02
1.73
1.42
1.07
0.72
0.345
0.0
-0.345
-0.61
-0.795
-0.84
-0.78
-0.645
-0.495
-0.375
-0.325
-0.33
-0.365
-0.42
-0.455
-0.485
-0.5
-0.5
-0.49
-0.48
-0.485
-0.485
-0.495
-0.5
-0.51
-0.52
-0.515
-0.52
-0.53
-0.535
-0.555
-0.565
-0.56
-0.545
-0.53
-0.52
-0.52
-0.52
-0.525
-0.53
-0.53
-0.51
-0.5
-0.475
-0.445
-0.425
-0.41
-0.395
-0.375
-0.35
-0.33
-0.285
-0.255
-0.23
-0.205
-0.19
-0.155
-0.115
-0.055
0.0
0.045
0.09
0.125
0.145
0.175
0.23
0.27
0.325
0.37
0.395
0.425
0.46
0.49
0.53
0.56
0.595
0.63
0.665
0.69
0.715
0.72
0.735
0.755
0.79
0.81
0.825
0.825
0.81
0.785
0.77
0.765
0.765
0.76
0.74
0.755
0.76
0.75
0.725
0.7
0.665
0.655
0.625
0.6
0.58
0.535
0.525
0.51
0.5
0.485
0.465
0.44
0.4
0.37
0.33
0.295
0.27
0.26
0.255
0.25
0.23
0.205
0.19
0.18
0.14
0.125
0.12
0.115
0.105
0.1
0.09
0.09
0.1
0.11
0.145
0.17
0.2
0.215
0.215
0.225
0.225
0.235
0.255
0.295
0.34
0.38
0.395
0.4
0.365
0.335
0.285
0.24
0.18
0.13
0.065
0.025
-0.01
-0.015
0.0
-0.01
-0.01
-0.01
-0.02
-0.045
-0.06
-0.055
-0.05
-0.03
-0.02
0.01
0.01
-0.015
-0.025
-0.035
-0.045
-0.03
-0.01
0.005
0.0
-0.005
-0.03
-0.04
-0.03
0.02
0.14
0.305
0.49
0.72
0.985
1.33
1.7
2.035
2.26
2.315
2.16
1.835
1.405
0.93
0.475
0.1
-0.195
-0.405
-0.53
-0.575
-0.515
-0.415
-0.265
-0.14
-0.06
-0.025
-0.04
-0.09
-0.155
-0.19
-0.2
-0.205
-0.19
-0.165
-0.165
-0.175
-0.195
-0.215
-0.225
-0.23
-0.22
-0.215
-0.19
-0.2
-0.19
-0.19
-0.185
-0.185
-0.175
-0.19
-0.185
-0.195
-0.2
-0.18
-0.17
-0.145
-0.115
-0.07
-0.035
-0.025
-0.01
-0.005
-0.005
0.02
0.065
0.11
0.17
0.205
0.245
0.27
0.28
0.295
0.33
0.37
0.39
0.405
0.43
0.455
0.47
0.505
0.545
0.59
0.615
0.655
0.68
0.695
0.705
0.715
0.74
0.78
0.815
0.855
0.89
0.905
0.915
0.905
0.87
0.835
0.805
0.795
0.79
0.81
0.795
0.795
0.795
0.785
0.785
0.785
0.77
0.735
0.705
0.675
0.64
0.6
0.585
0.56
0.54
0.515
0.495
0.455
0.415
0.385
0.355
0.31
0.31
0.305
0.285
0.27
0.23
0.19
0.145
0.095
0.065
0.03
-0.005
-0.03
-0.06
-0.095
-0.13
-0.13
-0.12
-0.115
-0.115
-0.12
-0.14
-0.15
-0.16
-0.16
-0.16
-0.15
-0.125
-0.11
-0.09
-0.085
-0.07
-0.045
-0.02
0.015
0.045
0.075
0.1
0.105
0.125
0.135
0.155
0.17
0.175
0.16
0.095
0.01
-0.065
-0.12
-0.185
-0.18
-0.18
-0.185
-0.2
-0.235
-0.265
-0.28
-0.295
-0.31
-0.305
-0.305
-0.29
-0.275
-0.27
-0.28
-0.3
-0.3
-0.3
-0.295
-0.3
-0.28
-0.3
-0.31
-0.32
-0.34
-0.33
-0.33
-0.315
-0.325
-0.33
-0.355
-0.325
-0.23
-0.045
0.235
0.57
0.96
1.355
1.715
2.005
2.12
2.04
1.8
1.455
1.04
0.58
0.155
-0.205
-0.49
-0.735
-0.935
-1.09
-1.17
-1.16
-1.075
-0.955
-0.84
-0.725
-0.675
-0.635
-0.615
-0.65
-0.69
-0.7
-0.72
-0.725
-0.73
-0.725
-0.72
-0.715
-0.72
-0.73
-0.74
-0.745
-0.745
-0.75
-0.745
-0.735
-0.735
-0.73
-0.74
-0.755
-0.77
-0.765
-0.74
-0.695
-0.68
-0.66
-0.665
-0.66
-0.655
-0.64
-0.62
-0.6
-0.58
-0.56
-0.53
-0.52
-0.5
-0.485
-0.46
-0.435
-0.415
-0.395
-0.355
-0.325
-0.315
-0.295
-0.275
-0.25
-0.225
-0.175
-0.145
-0.11
-0.09
-0.07
-0.05
-0.045
-0.02
0.015
0.07
0.115
0.155
0.175
0.19
0.205
0.205
0.24
0.265
0.29
0.3
0.31
0.31
0.3
0.305
0.315
0.34
0.335
0.335
0.305
0.275
0.23
0.2
0.18
0.165
0.155
0.125
0.12
0.085
0.06
0.02
-0.01
-0.05
-0.075
-0.1
-0.12
-0.15
-0.17
-0.205
-0.21
-0.235
-0.255
-0.285
-0.32
-0.36
-0.39
-0.415
-0.425
-0.435
-0.425
-0.43
-0.42
-0.435
-0.45
-0.455
-0.48
-0.47
-0.47
-0.455
-0.45
-0.44
-0.44
-0.44
-0.43
-0.42
-0.395
-0.355
-0.34
-0.305
-0.29
-0.265
-0.235
-0.205
-0.18
-0.14
-0.125
-0.115
-0.11
-0.135
-0.155
-0.17
-0.205
-0.25
-0.29
-0.325
-0.375
-0.43
-0.46
-0.485
-0.49
-0.5
-0.505
-0.49
-0.495
-0.51
-0.51
-0.515
-0.495
-0.48
-0.475
-0.48
-0.48
-0.495
-0.505
-0.505
-0.5
-0.49
-0.51
-0.5
-0.515
-0.53
-0.55
-0.555
-0.535
-0.455
-0.285
-0.045
0.275
0.635
1.045
1.465
1.84
2.08
2.175
2.07
1.815
1.45
1.04
0.61
0.19
-0.195
-0.54
-0.825
-1.055
-1.185
-1.195
-1.11
-0.99
-0.845
-0.73
-0.67
-0.665
-0.695
-0.745
-0.775
-0.8
-0.81
-0.78
-0.775
-0.765
-0.775
-0.79
-0.81
-0.84
-0.84
-0.835
-0.83
-0.825
-0.82
-0.825
-0.84
-0.83
-0.825
-0.825
-0.83
-0.83
-0.83
-0.835
-0.82
-0.79
-0.77
-0.745
-0.72
-0.715
-0.705
-0.7
-0.685
-0.675
-0.645
-0.615
-0.59
-0.54
-0.525
-0.505
-0.47
-0.435
-0.41
-0.36
-0.325
-0.295
-0.255
-0.22
-0.17
-0.135
-0.095
-0.025
0.03
0.07
0.1
0.11
0.155
0.175
0.21
0.245
0.285
0.33
0.375
0.405
0.43
0.455
0.455
0.47
0.475
0.48
0.49
0.485
0.48
0.495
0.5
0.505
0.51
0.5
0.475
0.445
0.41
0.375
0.365
0.345
0.345
0.34
0.32
0.3
0.27
0.23
0.2
0.17
0.15
0.125
0.1
0.075
0.04
0.015
0.005
-0.01
-0.01
-0.04
-0.05
-0.055
-0.07
-0.085
-0.1
-0.1
-0.095
-0.075
-0.065
-0.055
-0.06
-0.06
-0.07
-0.07
-0.055
-0.035
0.0
0.025
0.07
0.08
0.1
0.12
0.14
0.155
0.175
0.175
0.17
0.19
0.175
0.155
0.165
0.15
0.12
0.075
0.035
-0.02
-0.075
-0.145
-0.185
-0.215
-0.24
-0.24
-0.225
-0.215
-0.22
-0.225
-0.22
-0.235
-0.235
-0.225
-0.23
-0.24
-0.255
-0.25
-0.255
-0.255
-0.24
-0.225
-0.22
-0.22
-0.23
-0.25
-0.275
-0.27
-0.235
-0.145
0.025
0.255
0.535
0.875
1.25
1.63
1.93
2.16
2.23
2.165
1.965
1.685
1.365
0.99
0.625
0.275
-0.04
-0.345
-0.585
-0.74
-0.8
-0.74
