Lead II
0.615
0.61
0.6
0.595
0.595
0.595
0.595
0.59
0.57
0.545
0.505
0.49
0.48
0.47
0.455
0.44
0.4
0.355
0.31
0.275
0.225
0.195
0.195
0.19
0.185
0.175
0.15
0.11
0.065
0.01
-0.02
-0.04
-0.06
-0.075
-0.085
-0.11
-0.125
-0.14
-0.155
-0.16
-0.175
-0.195
-0.195
-0.195
-0.215
-0.235
-0.235
-0.23
-0.205
-0.175
-0.15
-0.135
-0.14
-0.16
-0.17
-0.18
-0.185
-0.17
-0.155
-0.145
-0.11
-0.09
-0.06
-0.03
0.01
0.045
0.075
0.085
0.08
0.09
0.09
0.105
0.12
0.14
0.14
0.13
0.11
0.07
0.015
-0.05
-0.11
-0.14
-0.175
-0.185
-0.205
-0.215
-0.225
-0.23
-0.23
-0.235
-0.235
-0.235
-0.245
-0.25
-0.25
-0.245
-0.245
-0.235
-0.215
-0.225
-0.21
-0.225
-0.24
-0.25
-0.265
-0.275
-0.285
-0.3
-0.345
-0.395
-0.425
-0.42
-0.35
-0.165
0.135
0.535
1.015
1.525
2.025
2.435
2.715
2.85
2.835
2.705
2.49
2.23
1.945
1.635
1.28
0.935
0.59
0.225
-0.105
-0.35
-0.48
-0.535
-0.52
-0.485
-0.435
-0.445
-0.46
-0.495
-0.515
-0.545
-0.57
-0.585
-0.595
-0.595
-0.59
-0.61
-0.615
-0.61
-0.63
-0.66
-0.665
-0.655
-0.65
-0.64
-0.645
-0.635
-0.66
-0.67
-0.69
-0.695
-0.695
-0.665
-0.65
-0.645
-0.635
-0.64
-0.645
-0.65
-0.64
-0.64
-0.62
-0.62
-0.62
-0.615
-0.6
-0.575
-0.55
-0.515
-0.495
-0.48
-0.465
-0.44
-0.415
-0.39
-0.365
-0.33
-0.3
-0.265
-0.245
-0.205
-0.17
-0.115
-0.08
-0.03
-0.005
0.025
0.05
0.08
0.12
0.16
0.215
0.27
0.295
0.32
0.335
0.355
0.365
0.395
0.405
0.425
0.435
0.455
0.455
0.465
0.47
0.49
0.485
0.46
0.45
0.425
0.4
0.38
0.38
0.38
0.385
0.385
0.365
0.33
0.295
0.265
0.245
0.235
0.21
0.18
0.15
0.135
0.095
0.1
0.09
0.105
0.11
0.095
0.09
0.07
0.045
0.02
0.03
0.045
0.07
0.095
0.13
0.155
0.185
0.21
0.245
0.26
0.27
0.29
0.3
0.31
0.33
0.325
0.34
0.335
0.32
0.27
0.195
0.125
0.04
0.0
-0.03
-0.04
-0.035
-0.035
-0.035
-0.04
-0.05
-0.065
-0.08
-0.075
-0.075
-0.065
-0.07
-0.06
-0.06
-0.04
-0.035
-0.025
-0.015
-0.03
-0.045
-0.06
-0.07
-0.085
-0.09
-0.095
-0.105
-0.105
-0.095
-0.035
0.085
0.31
0.595
0.95
1.36
1.79
2.18
2.48
2.6
2.54
2.31
1.99
1.6
1.17
0.745
0.35
-0.015
-0.33
-0.545
-0.665
-0.65
-0.545
-0.42
-0.29
-0.2
-0.185
-0.2
-0.25
-0.28
-0.305
-0.325
-0.32
-0.34
-0.325
-0.325
-0.325
-0.325
-0.335
-0.35
-0.355
-0.365
-0.375
-0.375
-0.385
-0.375
-0.36
-0.355
-0.35
-0.36
-0.36
-0.38
-0.38
-0.375
-0.37
-0.35
-0.33
-0.315
-0.31
-0.295
-0.29
-0.27
-0.23
-0.205
-0.185
-0.175
-0.16
-0.125
-0.09
-0.055
-0.015
0.03
0.08
0.085
0.115
0.13
0.155
0.19
0.225
0.275
0.33
0.375
0.415
0.455
0.485
0.525
0.565
0.605
0.645
0.68
0.71
0.72
0.76
0.785
0.815
0.84
0.87
0.875
0.895
0.9
0.89
0.88
0.89
0.91
0.915
0.915
0.91
0.905
0.88
0.86
0.825
0.825
0.805
0.8
0.775
0.755
0.735
0.72
0.705
0.7
0.685
0.675
0.64
0.615
0.585
0.545
0.525
0.5
0.49
0.47
0.45
0.425
0.405
0.37
0.33
0.32
0.3
0.295
0.285
0.29
0.285
0.285
0.265
0.285
0.3
0.3
0.295
0.295
0.28
0.26
0.26
0.275
0.3
0.345
0.39
0.44
0.48
0.49
0.49
0.49
0.505
0.535
0.56
0.585
0.605
0.605
0.61
0.585
0.555
0.51
0.475
0.425
0.36
0.305
0.245
0.22
0.2
0.21
0.235
0.235
0.25
0.265
0.245
0.215
0.225
0.215
0.225
0.23
0.24
0.255
0.25
0.25
0.26
0.26
0.265
0.265
0.25
0.23
0.22
0.2
0.205
0.225
0.29
0.395
0.58
0.805
1.11
1.47
1.865
2.255
2.53
2.65
2.545
2.265
1.875
1.425
0.995
0.625
0.345
0.105
-0.09
-0.24
-0.31
-0.29
-0.2
-0.065
0.045
0.12
0.135
0.1
0.055
0.015
-0.02
-0.04
-0.045
-0.025
-0.025
-0.02
-0.03
-0.03
-0.04
-0.04
-0.055
-0.06
-0.07
-0.085
-0.08
-0.075
-0.075
-0.05
-0.04
-0.03
-0.025
-0.04
-0.04
-0.05
-0.025
-0.02
-0.01
0.01
0.025
0.04
0.065
0.105
0.14
0.17
0.195
0.22
0.23
0.23
0.255
0.285
0.3
0.34
0.38
0.4
0.425
0.43
0.44
0.47
0.51
0.545
0.58
0.63
0.665
0.695
0.725
0.76
0.78
0.8
0.83
0.84
0.835
0.83
0.835
0.83
0.86
0.865
0.88
0.88
0.875
0.84
0.835
0.82
0.81
0.8
0.795
0.78
0.76
0.73
0.71
0.69
0.68
0.665
0.66
0.635
0.595
0.555
0.525
0.485
0.46
0.425
0.425
0.41
0.38
0.355
0.29
0.265
0.21
0.17
0.145
0.12
0.115
0.1
0.075
0.04
0.015
-0.025
-0.03
-0.055
-0.06
-0.07
-0.08
-0.07
-0.05
-0.04
-0.02
0.0
-0.01
-0.005
-0.025
-0.04
-0.05
-0.03
-0.005
0.03
0.065
0.1
0.14
0.155
0.175
0.185
0.2
0.215
0.23
0.24
0.25
0.245
0.245
0.22
0.175
0.125
0.08
0.03
-0.02
-0.07
-0.105
-0.125
-0.135
-0.14
-0.125
-0.12
-0.11
-0.125
-0.135
-0.16
-0.175
-0.18
-0.18
-0.18
-0.165
-0.17
-0.16
-0.155
-0.14
-0.14
-0.13
-0.14
-0.145
-0.165
-0.195
-0.225
-0.255
-0.26
-0.25
-0.2
-0.085
0.12
0.38
0.7
1.075
1.49
1.875
2.2
2.415
2.485
2.36
2.08
1.72
1.29
0.84
0.405
0.005
-0.36
-0.675
-0.91
-1.01
-0.98
-0.88
-0.73
-0.595
-0.48
-0.435
-0.415
-0.435
-0.48
-0.515
-0.54
-0.55
-0.54
-0.515
-0.515
-0.525
-0.545
-0.56
-0.57
-0.59
-0.585
-0.585
-0.59
-0.585
-0.585
-0.58
-0.575
-0.555
-0.555
-0.535
-0.54
-0.54
-0.545
-0.555
-0.545
-0.525
-0.505
-0.475
-0.455
-0.455
-0.445
-0.44
-0.44
-0.42
-0.4
-0.39
-0.36
-0.34
-0.315
-0.3
-0.29
-0.265
-0.24
-0.205
-0.155
-0.125
-0.105
-0.09
-0.075
-0.065
-0.03
-0.005
0.045
0.09
0.13
0.175
0.2
0.235
0.26
0.285
0.32
0.335
0.37
0.38
0.395
0.41
0.435
0.455
0.47
0.48
0.5
0.5
0.49
0.465
0.46
0.45
0.455
0.47
0.465
0.455
0.425
0.395
0.37
0.33
0.315
0.3
0.285
0.28
0.25
0.225
0.19
0.16
0.13
0.11
0.095
0.07
0.04
0.0
-0.025
-0.045
-0.06
-0.065
-0.06
-0.08
-0.095
-0.115
-0.14
-0.16
-0.175
-0.175
-0.165
-0.15
-0.145
-0.13
-0.13
-0.125
-0.13
-0.135
-0.12
-0.12
-0.11
-0.105
-0.085
-0.08
-0.05
-0.015
0.03
0.075
0.105
0.13
0.135
0.145
0.15
0.155
0.185
0.21
0.22
0.24
0.22
0.185
0.12
0.06
-0.01
-0.055
-0.095
-0.125
-0.15
-0.16
-0.175
-0.175
-0.16
-0.145
-0.145
-0.165
-0.18
-0.2
-0.21
-0.205
-0.19
-0.17
-0.16
-0.155
-0.155
-0.16
-0.15
-0.155
-0.145
-0.145
-0.155
-0.175
-0.2
-0.23
-0.22
-0.135
0.04
0.315
0.665
1.06
1.49
1.92
2.23
2.38
2.325
2.1
1.77
1.385
0.945
0.525
0.145
-0.185
-0.47
-0.68
-0.795
-0.8
-0.705
-0.575
-0.435
-0.345
-0.305
-0.315
-0.345
-0.395
-0.435
-0.465
-0.47
-0.46
-0.445
-0.42
-0.425
-0.43
-0.435
-0.455
-0.465
-0.465
-0.465
-0.485
-0.48
-0.49
-0.49
-0.49
-0.48
-0.46
-0.435
-0.43
-0.415
-0.435
-0.445
-0.445
-0.45
-0.44
-0.415
-0.39
-0.365
-0.35
-0.33
-0.305
-0.29
-0.265
-0.235
-0.215
-0.195
-0.175
-0.155
-0.125
-0.095
-0.05
-0.02
0.015
0.07
0.1
0.125
0.145
0.17
0.205
0.255
0.305
0.365
0.395
0.415
0.445
0.475
0.505
0.54
0.56
0.585
0.615
0.645
0.66
0.665
0.7
0.705
0.725
0.74
0.745
0.725
0.71
0.705
0.7
0.695
0.7
0.69
0.685
0.675
0.64
0.62
0.6
0.59
0.565
0.55
0.525
0.505
0.48
0.44
0.42
0.42
0.4
0.395
0.37
0.35
0.305
0.28
0.245
0.22
0.22
0.215
0.21
0.195
0.19
0.17
0.16
0.15
0.15
0.155
0.17
0.18
0.175
0.165
0.165
0.155
0.165
0.19
0.21
0.24
0.27
0.3
0.3
0.33
0.355
0.38
0.405
0.425
0.47
0.48
0.48
0.475
0.455
0.44
0.41
0.375
0.335
0.295
0.24
0.185
0.145
0.12
0.095
0.095
0.115
0.115
0.11
0.11
0.105
0.095
0.095
0.105
0.12
0.125
0.13
0.12
0.1
0.095
0.085
0.09
0.105
0.115
0.125
0.115
0.1
0.07
0.045
0.02
0.01
0.045
0.13
0.275
0.49
0.74
1.03
1.375
1.72
2.055
2.31
2.46
2.465
2.3
2.015
1.67
1.25
0.865
0.485
0.155
-0.145
-0.37
-0.51
-0.535
-0.475
-0.34
-0.2
-0.095
-0.03
-0.035
-0.07
-0.115
-0.16
-0.175
-0.175
-0.175
-0.185
-0.185
-0.2
-0.21
-0.215
-0.2
-0.195
-0.175
-0.175
-0.175
-0.205
-0.215
-0.26
-0.27
-0.275
-0.265
-0.245
-0.235
-0.22
-0.22
-0.215
-0.225
-0.21
-0.195
-0.185
-0.155
-0.145
-0.13
-0.125
-0.1
-0.075
-0.035
0.0
0.03
0.055
0.07
0.085
0.11
0.135
0.19
0.255
0.32
0.37
0.415
0.45
0.495
0.535
0.57
0.605
0.635
0.655
0.69
0.715
0.76
0.79
0.865
0.92
0.965
1.01
1.025
1.04
1.035
1.05
1.065
1.075
1.09
1.09
1.095
1.105
1.105
1.085
1.08
1.05
1.045
1.04
1.03
1.025
1.015
1.005
0.99
0.97
0.95
0.915
0.89
0.86
0.825
0.78
0.755
0.73
0.73
0.73
0.715
0.68
0.65
0.62
0.58
0.55
0.52
0.475
0.45
0.435
0.4
0.385
0.38
0.355
0.335
0.32
0.31
0.275
0.255
0.235
0.24
0.25
0.265
0.285
0.29
0.29
0.285
0.265
0.27
0.3
0.34
0.385
0.43
0.465
0.49
0.505
0.515
0.52
0.52
0.515
0.505
0.49
0.46
0.425
0.375
0.32
0.255
0.215
0.18
0.135
0.11
0.085
0.075
0.06
0.06
0.065
0.06
0.055
0.055
0.055
0.055
0.045
0.05
0.05
0.06
0.055
0.04
0.03
0.025
0.01
0.015
0.015
0.015
0.0
-0.005
-0.045
-0.06
-0.05
0.035
0.185
0.42
0.71
1.045
1.4
1.75
2.055
2.26
2.275
2.145
1.88
1.54
1.15
0.775
0.405
0.11
-0.16
-0.39
-0.61
-0.755
-0.825
-0.815
-0.735
-0.625
-0.495
-0.405
-0.355
-0.335
-0.355
-0.375
-0.415
-0.435
-0.455
-0.46
-0.47
-0.47
-0.495
-0.49
-0.5
-0.52
-0.535
-0.52
-0.52
-0.505
-0.49
-0.505
-0.52
-0.54
-0.545
-0.545
-0.535
-0.525
-0.485
-0.495
-0.495
-0.485
-0.475
-0.47
-0.465
-0.455
-0.425
-0.42
-0.42
-0.4
-0.37
-0.35
-0.32
-0.285
-0.27
-0.26
-0.25
-0.235
-0.245
-0.21
-0.17
-0.13
-0.09
-0.055
-0.03
-0.01
-0.005
0.02
0.04
0.09
0.12
0.17
0.21
0.23
0.265
0.265
0.275
0.295
0.315
0.325
0.355
0.375
0.39
0.395
0.41
0.42
0.43
0.44
0.45
0.445
0.43
0.405
0.375
0.355
0.335
0.33
0.34
0.34
0.325
0.3
0.27
0.235
0.19
0.175
0.155
0.145
0.105
0.09
0.07
0.035
0.02
0.01
-0.02
-0.055
-0.07
-0.09
-0.13
-0.155
-0.185
-0.22
-0.235
-0.25
-0.26
-0.27
-0.285
-0.305
-0.33
-0.345
-0.365
-0.36
-0.365
-0.36
-0.35
-0.36
-0.345
-0.34
-0.325
-0.32
-0.32
-0.315
-0.305
-0.32
-0.32
-0.32
-0.31
-0.285
-0.215
-0.17
-0.14
-0.105
-0.105
-0.105
-0.095
-0.08
-0.065
-0.03
0.01
0.015
0.015
-0.005
-0.025
-0.065
-0.12
-0.17
-0.215
-0.285
-0.315
-0.345
-0.355
-0.37
-0.355
-0.345
-0.345
-0.35
-0.35
-0.385
-0.395
-0.415
-0.41
-0.405
-0.39
-0.37
-0.36
-0.355
-0.36
-0.37
-0.38
-0.375
-0.385
-0.395
-0.42
-0.45
-0.485
-0.505
-0.46
-0.35
-0.155
0.105
0.41
0.75
1.13
1.515
1.86
2.11
2.19
2.095
1.85
1.52
1.13
0.71
0.295
-0.06
-0.415
-0.705
-0.94
-1.08
-1.115
-1.065
-0.945
-0.79
-0.67
-0.615
-0.59
-0.61
-0.66
-0.715
-0.745
-0.755
-0.74
-0.725
-0.71
-0.705
-0.72
-0.72
-0.735
-0.76
-0.765
-0.77
-0.78
-0.78
-0.78
-0.78
-0.79
-0.775
-0.765
-0.76
-0.75
-0.735
-0.745
-0.755
-0.74
-0.75
-0.74
-0.73
-0.705
-0.685
-0.67
-0.665
-0.67
-0.655
-0.635
-0.615
-0.6
-0.565
-0.535
-0.515
-0.485
-0.475
-0.445
-0.415
-0.385
-0.345
-0.31
-0.28
-0.255
-0.21
-0.18
-0.12
-0.09
-0.035
0.005
0.03
0.065
0.07
0.1
0.14
0.165
0.205
0.24
0.245
0.29
0.305
0.31
0.34
0.35
0.36
0.355
0.35
0.345
0.33
0.335
0.345
0.35
0.355
0.33
0.315
0.28
0.245
0.225
0.2
0.175
0.16
0.13
0.105
0.08
0.06
0.055
0.03
0.01
-0.005
-0.035
-0.065
-0.11
-0.125
-0.145
-0.14
-0.16
-0.16
-0.16
-0.175
-0.185
-0.19
-0.185
-0.19
-0.185
-0.18
-0.19
-0.185
-0.185
-0.15
-0.12
-0.065
-0.03
0.005
0.005
0.005
0.01
0.03
0.045
0.075
0.105
0.12
0.13
0.12
0.085
0.035
0.01
-0.03
-0.095
-0.155
-0.2
-0.235
-0.27
-0.295
-0.29
-0.275
-0.265
-0.26
-0.275
-0.28
-0.3
-0.305
-0.31
-0.3
-0.275
-0.265
-0.27
-0.28
-0.28
-0.295
-0.315
-0.32
-0.335
-0.36
-0.385
-0.4
-0.425
-0.39
-0.345
-0.245
-0.09
0.15
0.46
0.835
1.24
1.63
1.985
2.295
2.485
2.56
2.54
2.435
2.265
2.055
1.785
1.485
1.18
0.83
0.46
0.08
-0.245
-0.47
-0.57
-0.595
-0.55
-0.51
-0.49
-0.51
-0.55
-0.595
-0.625
-0.655
-0.655
-0.645
-0.645
-0.66
-0.675
-0.72
-0.73
-0.755
-0.765
-0.765
-0.755
-0.77
-0.775
-0.775
-0.795
-0.805
-0.815
-0.83
-0.83
-0.83
-0.845
-0.845
-0.865
-0.865
-0.87
-0.86
-0.84
-0.83
-0.84
-0.835
-0.835
-0.84
-0.845
-0.83
-0.81
-0.775
-0.745
-0.73
-0.71
-0.695
-0.68
-0.65
-0.635
-0.59
-0.54
-0.5
-0.465
-0.445
-0.405
-0.36
-0.32
-0.275
-0.235
-0.19
-0.14
-0.11
-0.07
-0.025
0.025
0.085
0.135
0.195
0.24
0.265
0.285
0.3
0.31
0.335
0.35
0.395
0.41
0.435
0.445
0.465
0.47
0.485
0.485
0.475
0.475
0.46
0.43
0.41
0.41
0.395
0.395
0.395
0.4
0.365
0.32
0.295
0.26
0.225
0.215
0.175
0.175
0.16
0.145
0.12
0.1
0.075
0.045
0.02
0.0
-0.02
-0.045
-0.075
-0.095
-0.115
-0.11
-0.095
-0.07
-0.055
-0.07
-0.07
-0.06
-0.09
-0.08
-0.075
-0.05
-0.01
0.015
0.05
0.09
0.115
0.15
0.165
0.19
0.21
0.235
0.26
0.275
0.31
0.325
0.355
0.365
0.355
0.355
0.31
0.26
0.21
0.155
0.12
0.1
0.09
0.085
0.08
0.07
0.06
0.045
0.045
0.035
0.025
0.035
0.05
0.05
0.055
0.05
0.065
0.065
0.07
0.07
0.075
0.07
0.065
0.05
0.06
0.06
0.055
0.045
0.04
0.025
0.045
0.105
0.205
0.375
0.6
0.86
1.175
1.515
1.855
2.12
2.28
2.28
2.115
1.83
1.46
1.07
0.665
0.28
-0.025
-0.28
-0.49
-0.625
-0.675
-0.615
-0.52
-0.395
-0.275
-0.205
-0.185
-0.21
-0.235
-0.275
-0.3
-0.315
-0.315
-0.325
-0.33
-0.35
-0.36
-0.355
-0.36
-0.375
-0.39
-0.39
-0.4
-0.4
-0.39
-0.395
-0.4
-0.4
-0.39
-0.395
-0.39
-0.385
-0.38
-0.345
-0.33
-0.335
-0.325
-0.315
-0.285
-0.245
-0.21
-0.185
-0.165
-0.16
-0.155
-0.13
-0.11
-0.065
-0.025
0.01
0.045
0.07
0.085
0.115
0.14
0.185
0.235
0.285
0.31
0.325
0.355
0.38
0.405
0.435
0.46
0.485
0.515
0.525
0.55
0.58
0.6
0.62
0.655
0.66
0.67
0.655
0.63
0.62
0.605
0.59
0.595
0.595
0.58
0.545
0.535
0.505
0.475
0.45
0.425
0.39
0.35
0.32
0.28
0.25
0.22
0.205
0.19
0.175
0.16
0.13
0.105
0.075
0.025
-0.01
-0.035
-0.06
-0.105
-0.14
-0.165
-0.195
-0.22
-0.23
-0.255
-0.275
-0.315
-0.345
-0.36
-0.38
-0.375
-0.38
-0.345
-0.33
-0.315
-0.31
-0.335
-0.345
-0.35
-0.34
-0.33
-0.31
-0.285
-0.255
-0.21
-0.18
-0.14
-0.11
-0.08
-0.065
-0.065
-0.07
-0.08
-0.06
-0.065
-0.055
-0.03
-0.045
-0.08
-0.145
-0.225
-0.295
-0.365
-0.39
-0.4
-0.39
-0.38
-0.385
-0.395
-0.395
-0.4
-0.4
-0.4
-0.4
-0.41
-0.41
-0.43
-0.425
-0.415
-0.395
-0.38
-0.37
-0.37
-0.375
-0.395
-0.415
-0.44
-0.475
-0.495
-0.515
-0.48
-0.395
-0.23
0.03
0.38
0.77
1.195
1.605
1.945
2.15
2.165
2.005
1.72
1.33
0.92
0.48
0.045
-0.335
-0.68
-0.965
-1.14
-1.19
-1.13
-1.02
-0.88
-0.765
-0.68
-0.65
-0.65
-0.665
-0.695
-0.72
-0.74
-0.765
-0.765
-0.77
-0.77
-0.775
-0.755
-0.76
-0.765
-0.77
-0.79
-0.815
-0.85
-0.855
-0.835
-0.82
-0.82
-0.815
-0.82
-0.805
-0.81
-0.81
-0.805
-0.795
-0.78
-0.79
-0.79
-0.785
-0.77
-0.755
-0.735
-0.7
-0.685
-0.67
-0.665
-0.665
-0.65
-0.625
-0.59
-0.555
-0.51
-0.475
-0.44
-0.42
-0.395
-0.365
-0.345
-0.305
-0.29
-0.27
-0.26
-0.225
-0.195
-0.155
-0.1
-0.075
-0.03
0.0
0.02
0.035
0.045
0.07
0.095
0.125
0.135
0.15
0.165
0.16
0.165
0.175
0.17
0.165
0.16
0.135
0.12
0.11
0.105
0.095
0.09
0.075
0.06
0.03
-0.02
-0.06
-0.1
-0.12
-0.14
-0.18
-0.18
-0.2
-0.23
-0.26
-0.27
-0.295
-0.31
-0.325
-0.34
-0.37
-0.39
-0.405
-0.41
-0.42
-0.405
-0.395
-0.395
-0.41
-0.405
-0.425
-0.43
-0.435
-0.43
-0.42
-0.4
-0.385
-0.38
-0.35
-0.34
-0.305
-0.285
-0.24
-0.22
-0.195
-0.18
-0.175
-0.155
-0.14
-0.14
-0.115
-0.09
-0.08
-0.11
-0.135
-0.185
-0.24
-0.31
-0.35
-0.37
-0.39
-0.405
-0.445
-0.465
-0.49
-0.515
-0.51
-0.515
-0.5
-0.49
-0.495
-0.495
-0.505
-0.5
-0.485
-0.47
-0.47
-0.465
-0.47
-0.465
-0.5
-0.495
-0.51
-0.495
-0.49
-0.485
-0.485
-0.515
-0.55
-0.55
-0.51
-0.385
-0.16
0.145
0.525
0.94
1.36
1.74
2.025
2.18
2.18
2.02
1.735
1.39
0.96
0.535
0.13
-0.25
-0.575
-0.845
-1.015
-1.06
-1.025
-0.91
-0.775
-0.675
-0.63
-0.625
-0.645
-0.68
-0.7
-0.725
-0.75
-0.75
-0.735
-0.73
-0.73
-0.725
-0.755
-0.765
-0.775
-0.79
-0.785
-0.78
-0.77
-0.755
-0.76
-0.77
-0.775
-0.8
-0.805
-0.81
-0.785
-0.765
-0.76
-0.74
-0.74
-0.74
-0.745
-0.745
-0.73
-0.705
-0.69
-0.675
-0.67
-0.65
-0.63
-0.605
-0.565
-0.51
-0.49
-0.46
-0.42
-0.395
-0.375
-0.345
-0.29
-0.245
-0.19
-0.135
-0.1
-0.06
-0.04
-0.01
0.025
0.07
0.115
0.15
0.185
0.22
0.255
0.285
0.315
0.355
0.39
0.41
0.415
0.415
0.41
0.415
0.41
0.43
0.445
0.47
0.475
0.47
0.45
0.425
0.415
0.39
0.375
0.36
0.355
0.34
0.33
0.305
0.29
0.28
0.265
0.245
0.23
0.205
0.19
0.15
0.13
0.1
0.08
0.06
0.065
0.055
0.03
-0.01
-0.04
-0.075
-0.11
-0.135
-0.14
-0.155
-0.17
-0.18
-0.2
-0.205
-0.205
-0.215
-0.2
-0.195
-0.195
-0.2
-0.205
-0.195
-0.2
-0.18
-0.145
-0.115
-0.095
-0.07
-0.05
-0.04
-0.04
-0.02
0.0
0.04
0.05
0.065
0.055
0.07
0.045
0.015
-0.005
-0.04
-0.1
-0.165
-0.225
-0.265
-0.29
-0.31
-0.315
-0.3
-0.29
-0.275
-0.28
-0.29
-0.31
-0.33
-0.33
-0.325
-0.315
-0.31
-0.28
-0.27
-0.28
-0.285
-0.28
-0.27
-0.26
-0.27
-0.27
-0.295
-0.32
-0.35
-0.38
-0.395
-0.375
-0.31
-0.155
0.08
0.41
0.785
1.2
1.6
1.97
2.235
2.4
2.44
2.345
2.165
1.945
1.705
1.47
1.215
0.965
0.72
0.47
0.21
-0.055
-0.265
-0.395
-0.435
-0.43
-0.415
-0.39
-0.405
-0.43
-0.455
-0.465
-0.485
-0.49
-0.485
-0.485
-0.52
-0.55
-0.58
-0.6
-0.61
-0.615
-0.6
-0.58
-0.575
-0.58
-0.595
-0.615
-0.63
-0.635
-0.625
-0.625
-0.625
-0.61
-0.61
-0.625
-0.615
-0.62
-0.595
-0.58
-0.565
-0.565
-0.545
-0.55
-0.565
-0.545
-0.53
-0.51
-0.495
-0.47
-0.46
-0.44
-0.44
-0.42
-0.41
-0.37
-0.335
-0.28
-0.25
-0.22
-0.195
-0.175
-0.145
-0.115
-0.085
-0.06
-0.035
-0.02
0.01
0.03
0.065
0.095
0.165
0.205
0.245
0.265
0.29
0.29
0.29
0.3
0.31
0.32
0.35
0.37
0.385
0.38
0.37
0.35
0.35
0.355
0.35
0.345
0.355
0.34
0.33
0.295
0.28
0.26
0.245
0.225
0.215
0.19
0.16
0.135
0.11
0.09
0.075
0.07
0.055
0.04
0.015
-0.025
-0.08
-0.125
-0.175
-0.2
-0.22
-0.25
-0.27
-0.29
-0.33
-0.35
-0.365
-0.395
-0.395
-0.4
-0.41
-0.4
-0.395
-0.395
-0.395
-0.395
-0.39
-0.385
-0.37
-0.365
-0.36
-0.36
-0.38
-0.385
-0.41
-0.395
-0.36
-0.345
-0.29
-0.25
-0.23
-0.22
-0.205
-0.19
-0.16
-0.14
-0.095
-0.06
-0.045
-0.055
-0.07
-0.1
-0.135
-0.195
-0.245
-0.305
-0.35
-0.405
-0.465
-0.475
-0.47
-0.46
-0.45
-0.44
-0.44
-0.455
-0.475
-0.475
-0.49
-0.49
-0.5
-0.48
-0.46
-0.445
-0.455
-0.46
-0.465
-0.485
-0.48
-0.485
-0.49
-0.49
-0.505
-0.53
-0.56
-0.59
-0.575
-0.52
-0.42
-0.235
-0.015
0.275
0.605
1.0
1.405
1.745
1.965
2.005
1.885
1.585
1.185
0.72
0.255
-0.18
-0.56
-0.885
-1.135
-1.3
-1.355
-1.3
-1.175
-1.04
-0.905
-0.8
-0.76
-0.755
-0.775
-0.815
-0.845
-0.875
-0.86
-0.86
-0.845
-0.84
-0.84
-0.85
-0.865
-0.87
-0.88
-0.88
-0.89
-0.885
-0.89
-0.895
-0.885
-0.875
-0.855
-0.835
-0.84
-0.84
-0.855
-0.86
-0.855
-0.845
-0.825
-0.805
-0.785
-0.755
-0.745
-0.745
-0.73
-0.71
-0.695
-0.68
-0.645
-0.615
-0.59
-0.57
-0.555
-0.52
-0.485
-0.445
-0.41
-0.385
-0.37
-0.355
-0.33
-0.295
-0.265
-0.245
-0.2
-0.18
-0.16
-0.13
-0.105
-0.065
-0.045
-0.005
0.025
0.055
0.065
0.095
0.135
0.155
0.175
0.19
0.19
0.205
0.19
0.175
0.155
0.145
0.155
0.155
0.15
0.14
0.115
0.085
0.04
-0.005
-0.025
-0.035
-0.055
-0.085
-0.105
-0.15
-0.18
-0.21
-0.22
-0.255
-0.285
-0.305
-0.345
-0.38
-0.405
-0.415
-0.435
-0.45
-0.45
-0.45
-0.48
-0.51
-0.525
-0.56
-0.58
-0.57
-0.57
-0.565
-0.565
-0.56
-0.56
-0.55
-0.555
-0.54
-0.545
-0.53
-0.52
-0.525
-0.55
-0.575
-0.575
-0.55
-0.515
-0.48
-0.435
-0.4
-0.385
-0.375
-0.36
-0.35
-0.34
-0.32
-0.285
-0.275
-0.265
-0.265
-0.28
-0.295
-0.31
-0.35
-0.395
-0.465
-0.515
-0.57
-0.615
-0.645
-0.665
-0.67
-0.66
-0.675
-0.66
-0.675
-0.705
-0.715
-0.735
-0.715
-0.7
-0.685
-0.69
-0.695
-0.72
-0.78
-0.825
-0.87
-0.865
-0.84
-0.785
-0.705
-0.595
-0.455
-0.29
-0.125
0.07
0.285
0.515
0.77
1.03
1.305
1.565
1.845
2.075
2.245
2.34
2.34
2.26
2.1
1.85
1.525
1.15
0.75
0.32
-0.12
-0.53
-0.85
-1.055
-1.125
-1.115
-1.07
-1.03
-1.005
-1.02
-1.06
-1.12
-1.155
-1.205
-1.23
-1.225
-1.23
-1.23
-1.245
-1.26
-1.29
-1.32
-1.35
-1.355
-1.355
-1.36
-1.36
-1.38
-1.385
-1.4
-1.425
-1.44
-1.44
-1.455
-1.445
-1.465
-1.47
-1.49
-1.5
-1.495
-1.49
-1.48
-1.495
-1.505
-1.515
-1.52
-1.52
-1.51
-1.51
-1.49
-1.465
-1.455
-1.44
-1.42
-1.42
-1.405
-1.39
-1.37
-1.335
-1.305
-1.28
-1.24
-1.205
-1.165
-1.13
-1.08
-1.035
-1.015
-0.98
-0.955
-0.94
-0.92
-0.875
-0.815
-0.77
-0.72
-0.67
-0.63
-0.605
-0.565
-0.535
-0.51
-0.47
-0.42
-0.395
-0.36
-0.345
-0.335
-0.315
-0.3
-0.28
-0.27
-0.275
-0.28
-0.3
-0.3
-0.32
-0.32
-0.33
-0.33
-0.335
-0.35
-0.375
-0.41
-0.44
-0.46
-0.485
-0.495
-0.52
-0.53
-0.555
-0.575
-0.605
-0.62
-0.635
-0.655
-0.66
-0.67
-0.695
-0.715
-0.73
-0.735
-0.73
-0.725
-0.71
-0.7
-0.7
-0.705
-0.7
-0.685
-0.655
-0.62
-0.585
-0.56
-0.535
-0.515
-0.505
-0.5
-0.47
-0.455
-0.44
-0.445
-0.455
-0.48
-0.5
-0.535
-0.57
-0.615
-0.65
-0.685
-0.735
-0.765
-0.795
-0.805
-0.805
-0.795
-0.775
-0.755
-0.74
-0.75
-0.755
-0.76
-0.77
-0.765
-0.77
-0.76
-0.77
-0.775
-0.765
-0.765
-0.755
-0.745
-0.745
-0.72
-0.745
-0.79
-0.825
-0.845
-0.82
-0.72
-0.515
-0.195
0.2
0.66
1.15
1.585
1.87
1.965
1.835
1.545
1.165
0.73
0.305
-0.075
-0.39
-0.67
-0.935
-1.155
-1.285
-1.315
-1.27
-1.14
-1.02
-0.95
-0.92
-0.94
-0.975
-1.02
-1.045
-1.065
-1.05
-1.07
-1.06
-1.065
-1.07
-1.105
-1.115
-1.11
-1.105
-1.095
-1.095
-1.1
-1.11
-1.125
-1.145
-1.15
-1.15
-1.14
-1.135
-1.125
-1.125
-1.125
-1.125
-1.12
-1.11
-1.09
-1.085
-1.07
-1.065
-1.06
-1.04
-1.02
-0.99
-0.945
-0.92
-0.89
-0.86
-0.84
-0.83
-0.78
-0.74
-0.69
-0.635
-0.59
-0.545
-0.5
-0.47
-0.41
-0.365
-0.31
-0.285
-0.245
-0.205
-0.17
-0.14
-0.09
-0.04
0.0
0.04
0.065
0.085
0.1
0.105
0.105
0.125
0.135
0.155
0.155
0.155
0.145
0.14
0.135
0.13
0.13
0.105
0.07
0.04
0.02
-0.015
-0.005
-0.02
-0.04
-0.065
-0.09
-0.14
-0.165
-0.2
-0.225
-0.24
-0.27
-0.29
-0.305
-0.335
-0.375
-0.4
-0.42
-0.435
-0.455
-0.475
-0.505
-0.545
-0.565
-0.575
-0.565
-0.55
-0.54
-0.53
-0.525
-0.525
-0.56
-0.57
-0.57
-0.57
-0.555
-0.53
-0.505
-0.48
-0.455
-0.425
-0.385
-0.36
-0.33
-0.315
-0.32
-0.31
-0.305
-0.3
-0.29
-0.27
-0.27
-0.255
-0.28
-0.305
-0.355
-0.415
-0.46
-0.51
-0.54
-0.56
-0.57
-0.585
-0.57
-0.565
-0.55
-0.535
-0.54
-0.55
-0.575
-0.605
-0.625
-0.605
-0.57
-0.46
-0.315
-0.12
0.085
0.28
0.485
0.69
0.885
1.1
1.315
1.5
1.67
1.78
1.87
1.96
2.045
2.13
2.18
2.215
2.24
2.265
2.315
2.345
2.37
2.36
2.3
2.18
1.98
1.675
1.295
0.875
0.425
-0.04
-0.48
-0.805
-0.99
-1.05
-1.04
-0.995
-0.98
-0.99
-1.025
-1.08
-1.12
-1.155
-1.185
-1.21
-1.225
-1.25
-1.265
-1.28
-1.295
-1.31
-1.32
-1.34
-1.365
-1.38
-1.4
-1.42
-1.44
-1.455
-1.445
-1.445
-1.47
-1.495
-1.51
-1.535
-1.555
-1.585
-1.575
-1.58
-1.575
-1.58
-1.585
-1.59
-1.6
-1.61
-1.605
-1.605
-1.6
-1.59
-1.585
-1.56
-1.56
-1.54
-1.525
-1.495
-1.465
-1.43
-1.39
-1.36
-1.335
-1.285
-1.225
-1.17
-1.11
-1.03
-0.96
-0.92
-0.88
-0.84
-0.825
-0.81
-0.775
-0.77
-0.765
-0.75
-0.72
-0.69
-0.65
-0.62
-0.59
-0.565
-0.54
-0.525
-0.505
-0.485
-0.465
-0.43
-0.39
-0.375
-0.38
-0.38
-0.395
-0.41
-0.425
-0.45
-0.48
-0.485
-0.515
-0.525
-0.525
-0.53
-0.53
-0.54
-0.56
-0.59
-0.625
-0.66
-0.69
-0.705
-0.71
-0.72
-0.74
-0.765
-0.77
-0.78
-0.755
-0.755
-0.74
-0.74
-0.75
-0.77
-0.805
-0.81
-0.795
-0.755
-0.685
-0.57
-0.425
-0.23
0.045
0.41
0.855
1.32
1.7
1.93
1.955
1.765
1.42
0.965
0.465
-0.065
-0.555
-0.97
-1.28
-1.43
-1.435
-1.315
-1.155
-1.0
-0.88
-0.835
-0.81
-0.85
-0.9
-0.95
-0.985
-1.015
-1.015
-1.01
-1.01
-1.015
-1.02
-1.035
-1.05
-1.065
-1.08
-1.08
-1.09
-1.095
-1.11
-1.125
-1.125
-1.115
-1.095
-1.075
-1.06
-1.065
-1.06
-1.04
-1.03
-1.02
-1.005
-0.98
-0.955
-0.93
-0.91
-0.89
-0.855
-0.82
-0.785
-0.74
-0.705
-0.675
-0.645
-0.63
-0.575
-0.525
-0.45
-0.38
-0.33
-0.29
-0.27
-0.245
-0.215
-0.185
-0.13
-0.085
-0.04
-0.025
0.01
0.025
0.035
0.05
0.055
0.06
0.05
0.04
0.01
0.005
-0.02
-0.035
-0.05
-0.06
-0.075
-0.105
-0.135
-0.165
-0.215
-0.24
-0.28
-0.295
-0.3
-0.31
-0.345
-0.385
-0.415
-0.45
-0.475
-0.5
-0.53
-0.54
-0.555
-0.58
