Lead II
-0.35
-0.365
-0.35
-0.345
-0.35
-0.365
-0.365
-0.38
-0.37
-0.37
-0.36
-0.37
-0.39
-0.375
-0.375
-0.355
-0.355
-0.37
-0.385
-0.38
-0.375
-0.36
-0.365
-0.385
-0.39
-0.385
-0.375
-0.355
-0.365
-0.395
-0.39
-0.4
-0.37
-0.37
-0.37
-0.39
-0.425
-0.41
-0.395
-0.395
-0.39
-0.395
-0.39
-0.4
-0.385
-0.365
-0.375
-0.385
-0.39
-0.395
-0.38
-0.37
-0.38
-0.375
-0.38
-0.36
-0.35
-0.325
-0.32
-0.34
-0.355
-0.36
-0.37
-0.385
-0.395
-0.41
-0.46
-0.485
-0.47
-0.5
-0.545
-0.625
-0.73
-0.795
-0.835
-0.865
-0.915
-1.015
-1.155
-1.35
-1.55
-1.66
-1.645
-1.61
-1.575
-1.53
-1.44
-1.35
-1.29
-1.225
-1.155
-1.045
-0.96
-0.885
-0.82
-0.78
-0.735
-0.72
-0.665
-0.6
-0.53
-0.475
-0.43
-0.365
-0.32
-0.3
-0.29
-0.295
-0.3
-0.3
-0.265
-0.26
-0.28
-0.265
-0.27
-0.255
-0.245
-0.235
-0.245
-0.245
-0.25
-0.245
-0.215
-0.21
-0.205
-0.215
-0.23
-0.23
-0.205
-0.185
-0.175
-0.2
-0.185
-0.175
-0.155
-0.155
-0.15
-0.15
-0.175
-0.145
-0.125
-0.11
-0.11
-0.11
-0.115
-0.095
-0.07
-0.055
-0.06
-0.07
-0.06
-0.04
-0.015
-0.01
-0.005
-0.01
-0.01
0.005
0.025
0.045
0.035
0.035
0.035
0.05
0.07
0.08
0.085
0.07
0.07
0.075
0.1
0.115
0.11
0.1
0.095
0.105
0.105
0.13
0.12
0.11
0.095
0.1
0.11
0.115
0.1
0.1
0.085
0.08
0.075
0.075
0.08
0.065
0.05
0.05
0.055
0.06
0.035
0.02
-0.005
-0.005
-0.005
-0.01
-0.02
-0.035
-0.06
-0.065
-0.06
-0.055
-0.07
-0.09
-0.115
-0.125
-0.115
-0.105
-0.135
-0.14
-0.15
-0.155
-0.14
-0.13
-0.165
-0.165
-0.185
-0.195
-0.17
-0.16
-0.17
-0.195
-0.19
-0.195
-0.195
-0.175
-0.18
-0.2
-0.215
-0.215
-0.195
-0.19
-0.19
-0.2
-0.21
-0.195
-0.2
-0.195
-0.2
-0.225
-0.215
-0.21
-0.205
-0.205
-0.225
-0.225
-0.245
-0.235
-0.23
-0.23
-0.235
-0.25
-0.255
-0.255
-0.255
-0.25
-0.255
-0.265
-0.28
-0.27
-0.27
-0.255
-0.26
-0.265
-0.29
-0.285
-0.27
-0.26
-0.25
-0.28
-0.3
-0.305
-0.295
-0.29
-0.315
-0.32
-0.325
-0.315
-0.305
-0.305
-0.32
-0.33
-0.33
-0.32
-0.31
-0.305
-0.32
-0.33
-0.35
-0.345
-0.335
-0.33
-0.33
-0.36
-0.36
-0.355
-0.35
-0.335
-0.335
-0.34
-0.35
-0.365
-0.35
-0.335
-0.35
-0.36
-0.36
-0.355
-0.345
-0.34
-0.345
-0.38
-0.385
-0.375
-0.355
-0.345
-0.355
-0.355
-0.365
-0.355
-0.35
-0.35
-0.36
-0.365
-0.37
-0.375
-0.36
-0.35
-0.36
-0.375
-0.37
-0.37
-0.36
-0.345
-0.365
-0.355
-0.365
-0.36
-0.355
-0.35
-0.36
-0.355
-0.36
-0.35
-0.335
-0.325
-0.31
-0.33
-0.325
-0.325
-0.33
-0.315
-0.325
-0.365
-0.39
-0.38
-0.405
-0.415
-0.44
-0.485
-0.535
-0.59
-0.685
-0.76
-0.82
-0.86
-0.93
-1.03
-1.18
-1.375
-1.55
-1.625
-1.59
-1.54
-1.515
-1.46
-1.385
-1.305
-1.245
-1.175
-1.08
-1.0
-0.92
-0.87
-0.815
-0.77
-0.71
-0.67
-0.64
-0.595
-0.525
-0.445
-0.375
-0.325
-0.295
-0.28
-0.285
-0.265
-0.26
-0.255
-0.255
-0.255
-0.25
-0.255
-0.255
-0.235
-0.245
-0.225
-0.225
-0.225
-0.225
-0.21
-0.21
-0.22
-0.215
-0.195
-0.19
-0.18
-0.18
-0.19
-0.19
-0.185
-0.16
-0.155
-0.16
-0.165
-0.155
-0.15
-0.13
-0.115
-0.105
-0.115
-0.095
-0.09
-0.065
-0.055
-0.065
-0.07
-0.075
-0.06
-0.04
-0.02
-0.02
-0.015
-0.02
-0.005
0.015
0.03
0.03
0.015
0.025
0.045
0.06
0.085
0.075
0.065
0.07
0.075
0.09
0.1
0.11
0.08
0.07
0.095
0.105
0.12
0.12
0.115
0.09
0.1
0.115
0.115
0.105
0.095
0.09
0.09
0.1
0.09
0.085
0.065
0.05
0.04
0.045
0.05
0.03
0.015
0.01
0.01
0.015
-0.005
-0.015
-0.03
-0.045
-0.045
-0.045
-0.05
-0.07
-0.09
-0.1
-0.095
-0.095
-0.11
-0.105
-0.13
-0.135
-0.135
-0.145
-0.135
-0.145
-0.16
-0.175
-0.17
-0.155
-0.16
-0.17
-0.19
-0.19
-0.19
-0.18
-0.175
-0.195
-0.2
-0.19
-0.19
-0.18
-0.195
-0.19
-0.21
-0.21
-0.215
-0.21
-0.21
-0.22
-0.235
-0.235
-0.225
-0.225
-0.235
-0.235
-0.255
-0.245
-0.245
-0.245
-0.245
-0.255
-0.275
-0.26
-0.26
-0.26
-0.26
-0.26
-0.27
-0.28
-0.285
-0.27
-0.275
-0.27
-0.285
-0.285
-0.27
-0.26
-0.275
-0.285
-0.31
-0.33
-0.335
-0.325
-0.325
-0.325
-0.335
-0.335
-0.33
-0.33
-0.325
-0.33
-0.34
-0.345
-0.34
-0.345
-0.34
-0.345
-0.36
-0.36
-0.355
-0.34
-0.355
-0.36
-0.375
-0.38
-0.38
-0.36
-0.35
-0.355
-0.37
-0.375
-0.365
-0.355
-0.35
-0.36
-0.365
-0.385
-0.385
-0.365
-0.355
-0.355
-0.375
-0.38
-0.38
-0.37
-0.355
-0.365
-0.37
-0.385
-0.375
-0.365
-0.36
-0.365
-0.37
-0.385
-0.365
-0.36
-0.36
-0.365
-0.375
-0.39
-0.37
-0.365
-0.355
-0.37
-0.39
-0.38
-0.355
-0.345
-0.34
-0.355
-0.345
-0.355
-0.34
-0.315
-0.32
-0.345
-0.38
-0.385
-0.395
-0.395
-0.425
-0.455
-0.48
-0.52
-0.58
-0.67
-0.755
-0.825
-0.86
-0.915
-1.0
-1.175
-1.375
-1.54
-1.625
-1.59
-1.545
-1.505
-1.45
-1.365
-1.305
-1.225
-1.145
-1.045
-0.95
-0.875
-0.825
-0.775
-0.73
-0.7
-0.65
-0.585
-0.54
-0.465
-0.39
-0.315
-0.295
-0.275
-0.275
-0.275
-0.265
-0.255
-0.26
-0.255
-0.255
-0.27
-0.265
-0.24
-0.235
-0.23
-0.23
-0.25
-0.23
-0.205
-0.21
-0.21
-0.225
-0.21
-0.215
-0.185
-0.175
-0.17
-0.175
-0.18
-0.17
-0.15
-0.15
-0.145
-0.155
-0.145
-0.135
-0.12
-0.105
-0.11
-0.1
-0.1
-0.085
-0.075
-0.06
-0.055
-0.055
-0.05
-0.04
-0.015
-0.01
-0.01
-0.01
-0.005
-0.01
0.015
0.03
0.04
0.05
0.04
0.04
0.06
0.08
0.08
0.08
0.065
0.08
0.1
0.1
0.095
0.09
0.095
0.115
0.12
0.125
0.125
0.115
0.105
0.105
0.12
0.12
0.115
0.1
0.1
0.105
0.095
0.115
0.095
0.08
0.065
0.07
0.075
0.065
0.055
0.05
0.04
0.03
0.035
0.025
0.015
-0.015
-0.02
-0.015
-0.015
-0.02
-0.035
-0.065
-0.08
-0.065
-0.07
-0.07
-0.085
-0.11
-0.12
-0.125
-0.12
-0.12
-0.13
-0.145
-0.15
-0.145
-0.14
-0.155
-0.165
-0.17
-0.17
-0.18
-0.16
-0.16
-0.175
-0.2
-0.2
-0.18
-0.175
-0.17
-0.175
-0.19
-0.205
-0.205
-0.19
-0.19
-0.2
-0.205
-0.21
-0.22
-0.21
-0.22
-0.235
-0.25
-0.255
-0.24
-0.22
-0.23
-0.235
-0.25
-0.25
-0.245
-0.235
-0.225
-0.24
-0.275
-0.265
-0.265
-0.26
-0.26
-0.255
-0.275
-0.265
-0.27
-0.25
-0.25
-0.25
-0.245
-0.265
-0.28
-0.27
-0.285
-0.305
-0.31
-0.325
-0.32
-0.305
-0.305
-0.3
-0.325
-0.33
-0.32
-0.305
-0.305
-0.315
-0.34
-0.33
-0.33
-0.325
-0.32
-0.325
-0.34
-0.335
-0.345
-0.33
-0.335
-0.335
-0.345
-0.345
-0.34
-0.325
-0.315
-0.335
-0.33
-0.355
-0.34
-0.33
-0.315
-0.335
-0.34
-0.345
-0.345
-0.33
-0.325
-0.33
-0.34
-0.34
-0.335
-0.325
-0.325
-0.33
-0.335
-0.335
-0.33
-0.33
-0.33
-0.33
-0.345
-0.345
-0.345
-0.315
-0.335
-0.33
-0.33
-0.34
-0.33
-0.325
-0.31
-0.32
-0.325
-0.33
-0.32
-0.305
-0.295
-0.3
-0.295
-0.29
-0.29
-0.29
-0.29
-0.315
-0.35
-0.375
-0.38
-0.4
-0.41
-0.44
-0.5
-0.6
-0.695
-0.755
-0.8
-0.84
-0.92
-1.07
-1.26
-1.45
-1.55
-1.57
-1.5
-1.47
-1.43
-1.345
-1.25
-1.19
-1.13
-1.055
-0.95
-0.86
-0.79
-0.735
-0.695
-0.68
-0.64
-0.585
-0.515
-0.445
-0.38
-0.325
-0.265
-0.25
-0.225
-0.225
-0.235
-0.235
-0.215
-0.195
-0.185
-0.21
-0.215
-0.215
-0.2
-0.195
-0.19
-0.18
-0.195
-0.195
-0.185
-0.175
-0.16
-0.16
-0.17
-0.165
-0.145
-0.145
-0.125
-0.12
-0.125
-0.13
-0.115
-0.105
-0.095
-0.095
-0.095
-0.09
-0.075
-0.055
-0.04
-0.045
-0.045
-0.035
-0.02
0.005
0.0
0.0
0.01
0.015
0.03
0.04
0.05
0.06
0.05
0.055
0.06
0.09
0.1
0.105
0.115
0.1
0.12
0.125
0.14
0.12
0.135
0.125
0.155
0.16
0.165
0.16
0.145
0.14
0.16
0.17
0.165
0.165
0.16
0.145
0.155
0.17
0.16
0.15
0.125
0.12
0.12
0.13
0.125
0.11
0.105
0.085
0.095
0.095
0.095
0.075
0.05
0.045
0.04
0.025
0.03
0.015
-0.005
-0.02
-0.015
-0.035
-0.03
-0.045
-0.055
-0.065
-0.06
-0.055
-0.05
-0.075
-0.095
-0.105
-0.105
-0.095
-0.09
-0.095
-0.11
-0.12
-0.11
-0.11
-0.1
-0.115
-0.12
-0.13
-0.13
-0.115
-0.11
-0.125
-0.14
-0.155
-0.15
-0.135
-0.135
-0.15
-0.155
-0.155
-0.155
-0.155
-0.15
-0.16
-0.185
-0.18
-0.17
-0.17
-0.17
-0.18
-0.185
-0.19
-0.18
-0.18
-0.175
-0.195
-0.22
-0.225
-0.2
-0.195
-0.195
-0.2
-0.21
-0.215
-0.2
-0.195
-0.185
-0.185
-0.215
-0.225
-0.215
-0.215
-0.225
-0.245
-0.26
-0.27
-0.28
-0.245
-0.24
-0.255
-0.265
-0.27
-0.255
-0.265
-0.25
-0.255
-0.27
-0.295
-0.275
-0.27
-0.27
-0.28
-0.285
-0.29
-0.285
-0.27
-0.27
-0.285
-0.295
-0.295
-0.28
-0.275
-0.28
-0.29
-0.3
-0.3
-0.295
-0.29
-0.295
-0.29
-0.31
-0.325
-0.315
-0.29
-0.295
-0.315
-0.32
-0.315
-0.315
-0.305
-0.31
-0.29
-0.31
-0.315
-0.295
-0.295
-0.295
-0.31
-0.32
-0.325
-0.305
-0.29
-0.305
-0.3
-0.315
-0.32
-0.3
-0.29
-0.3
-0.295
-0.305
-0.305
-0.285
-0.27
-0.265
-0.285
-0.27
-0.28
-0.285
-0.3
-0.315
-0.35
-0.37
-0.405
-0.415
-0.435
-0.495
-0.62
-0.72
-0.82
-0.83
-0.865
-0.955
-1.155
-1.375
-1.52
-1.565
-1.5
-1.445
-1.425
-1.38
-1.29
-1.2
-1.125
-1.025
-0.94
-0.865
-0.795
-0.71
-0.66
-0.625
-0.575
-0.525
-0.435
-0.345
-0.28
-0.24
-0.24
-0.24
-0.235
-0.215
-0.195
-0.195
-0.195
-0.21
-0.2
-0.195
-0.175
-0.165
-0.175
-0.185
-0.18
-0.175
-0.16
-0.135
-0.145
-0.15
-0.155
-0.15
-0.13
-0.105
-0.13
-0.12
-0.12
-0.115
-0.085
-0.07
-0.08
-0.08
-0.065
-0.045
-0.03
-0.035
-0.035
-0.025
-0.015
0.005
0.0
0.025
0.03
0.035
0.025
0.04
0.055
0.085
0.065
0.075
0.075
0.09
0.11
0.125
0.12
0.11
0.105
0.12
0.135
0.14
0.155
0.145
0.15
0.155
0.17
0.17
0.145
0.165
0.15
0.155
0.17
0.17
0.15
0.145
0.13
0.135
0.145
0.135
0.12
0.11
0.11
0.115
0.115
0.11
0.085
0.085
0.065
0.07
0.075
0.065
0.055
0.04
0.015
0.03
0.03
0.02
0.01
-0.005
-0.015
-0.01
-0.005
-0.025
-0.045
-0.06
-0.07
-0.065
-0.05
-0.055
-0.07
-0.08
-0.1
-0.09
-0.085
-0.085
-0.1
-0.11
-0.115
-0.105
-0.1
-0.11
-0.12
-0.13
-0.13
-0.125
-0.11
-0.115
-0.115
-0.14
-0.14
-0.125
-0.12
-0.115
-0.135
-0.145
-0.15
-0.135
-0.125
-0.135
-0.15
-0.165
-0.16
-0.15
-0.145
-0.135
-0.16
-0.18
-0.17
-0.165
-0.155
-0.16
-0.17
-0.175
-0.18
-0.18
-0.175
-0.17
-0.17
-0.18
-0.19
-0.17
-0.18
-0.195
-0.215
-0.245
-0.24
-0.235
-0.22
-0.205
-0.22
-0.23
-0.225
-0.225
-0.215
-0.23
-0.225
-0.25
-0.245
-0.24
-0.23
-0.245
-0.255
-0.25
-0.255
-0.245
-0.245
-0.245
-0.255
-0.255
-0.275
-0.25
-0.245
-0.245
-0.26
-0.26
-0.27
-0.27
-0.26
-0.245
-0.255
-0.265
-0.265
-0.255
-0.23
-0.255
-0.26
-0.265
-0.26
-0.26
-0.255
-0.245
-0.255
-0.265
-0.27
-0.255
-0.245
-0.25
-0.26
-0.265
-0.27
-0.27
-0.25
-0.25
-0.255
-0.275
-0.27
-0.255
-0.245
-0.245
-0.245
-0.24
-0.245
-0.23
-0.22
-0.22
-0.21
-0.225
-0.22
-0.195
-0.2
-0.21
-0.255
-0.28
-0.3
-0.31
-0.315
-0.335
-0.365
-0.445
-0.535
-0.635
-0.69
-0.73
-0.78
-0.89
-1.07
-1.28
-1.435
-1.485
-1.43
-1.39
-1.365
-1.29
-1.19
-1.11
-1.055
-0.985
-0.895
-0.805
-0.72
-0.67
-0.635
-0.6
-0.57
-0.515
-0.425
-0.36
-0.305
-0.235
-0.21
-0.175
-0.14
-0.135
-0.16
-0.155
-0.155
-0.145
-0.135
-0.13
-0.145
-0.14
-0.13
-0.125
-0.085
-0.085
-0.1
-0.105
-0.115
-0.095
-0.065
-0.07
-0.075
-0.075
-0.085
-0.055
-0.04
-0.025
-0.025
-0.03
-0.015
0.0
0.01
0.01
0.015
0.015
0.015
0.03
0.05
0.055
0.06
0.06
0.075
0.095
0.115
0.12
0.11
0.115
0.125
0.14
0.165
0.17
0.16
0.15
0.155
0.17
0.18
0.19
0.195
0.19
0.195
0.215
0.225
0.215
0.22
0.21
0.21
0.23
0.23
0.235
0.23
0.215
0.2
0.225
0.23
0.22
0.215
0.205
0.195
0.205
0.205
0.205
0.185
0.18
0.17
0.155
0.165
0.15
0.135
0.115
0.12
0.105
0.115
0.095
0.07
0.06
0.05
0.045
0.05
0.04
0.02
0.005
-0.005
-0.005
-0.005
-0.015
-0.025
-0.025
-0.04
-0.04
-0.035
-0.05
-0.06
-0.06
-0.06
-0.05
-0.04
-0.05
-0.06
-0.075
-0.07
-0.06
-0.05
-0.055
-0.08
-0.085
-0.09
-0.09
-0.07
-0.085
-0.1
-0.115
-0.105
-0.09
-0.08
-0.08
-0.1
-0.11
-0.115
-0.115
-0.1
-0.105
-0.115
-0.14
-0.14
-0.125
-0.11
-0.13
-0.135
-0.145
-0.15
-0.14
-0.11
-0.11
-0.135
-0.145
-0.175
-0.175
-0.17
-0.175
-0.175
-0.19
-0.19
-0.18
-0.175
-0.18
-0.2
-0.215
-0.215
-0.2
-0.185
-0.195
-0.195
-0.225
-0.21
-0.205
-0.195
-0.195
-0.195
-0.21
-0.215
-0.21
-0.205
-0.2
-0.21
-0.215
-0.215
-0.21
-0.195
-0.195
-0.205
-0.205
-0.21
-0.195
-0.19
-0.19
-0.215
-0.205
-0.215
-0.21
-0.21
-0.205
-0.215
-0.23
-0.225
-0.205
-0.195
-0.2
-0.215
-0.22
-0.21
-0.205
-0.2
-0.215
-0.215
-0.225
-0.23
-0.23
-0.21
-0.205
-0.205
-0.22
-0.22
-0.2
-0.195
-0.2
-0.205
-0.215
-0.2
-0.18
-0.16
-0.15
-0.17
-0.185
-0.21
-0.215
-0.21
-0.225
-0.26
-0.305
-0.34
-0.35
-0.375
-0.485
-0.585
-0.685
-0.71
-0.75
-0.84
-0.97
-1.19
-1.375
-1.465
-1.41
-1.365
-1.325
-1.305
-1.22
-1.13
-1.055
-0.965
-0.885
-0.81
-0.74
-0.68
-0.61
-0.565
-0.53
-0.505
-0.46
-0.385
-0.295
-0.22
-0.16
-0.14
-0.15
-0.145
-0.115
-0.11
-0.1
-0.125
-0.125
-0.125
-0.095
-0.08
-0.09
-0.08
-0.085
-0.1
-0.095
-0.07
-0.055
-0.06
-0.07
-0.065
-0.06
-0.045
-0.04
-0.04
-0.04
-0.035
-0.03
0.01
0.005
-0.01
-0.01
-0.01
0.01
0.03
0.04
0.04
0.045
0.055
0.055
0.075
0.09
0.09
0.09
0.095
0.12
0.155
0.155
0.15
0.145
0.135
0.145
0.165
0.185
0.185
0.18
0.18
0.19
0.215
0.225
0.21
0.21
0.2
0.24
0.28
0.3
0.28
0.26
0.26
0.27
0.275
0.295
0.28
0.28
0.295
0.31
0.325
0.305
0.275
0.28
0.28
0.28
0.29
0.28
0.27
0.28
0.275
0.285
0.26
0.24
0.245
0.23
0.22
0.225
0.235
0.215
0.195
0.175
0.17
0.175
0.16
0.16
0.145
0.115
0.11
0.11
0.12
0.105
0.095
0.08
0.05
0.055
0.075
0.045
0.04
0.03
0.035
0.04
0.05
0.055
0.035
0.02
0.0
-0.01
0.0
0.0
0.0
-0.015
-0.005
-0.01
-0.01
-0.015
-0.015
-0.025
-0.02
-0.02
-0.015
-0.02
-0.035
-0.04
-0.04
-0.035
-0.035
-0.04
-0.05
-0.07
-0.065
-0.065
-0.05
-0.055
-0.065
-0.08
-0.075
-0.075
-0.07
-0.075
-0.085
-0.105
-0.105
-0.095
-0.1
-0.095
-0.105
-0.105
-0.135
-0.115
-0.095
-0.1
-0.11
-0.12
-0.11
-0.1
-0.12
-0.135
-0.165
-0.17
-0.16
-0.155
-0.14
-0.145
-0.14
-0.16
-0.165
-0.165
-0.15
-0.165
-0.205
-0.225
-0.205
-0.195
-0.165
-0.18
-0.205
-0.19
-0.2
-0.19
-0.18
-0.185
-0.21
-0.205
-0.21
-0.2
-0.205
-0.21
-0.205
-0.215
-0.205
-0.2
-0.19
-0.185
-0.2
-0.225
-0.225
-0.2
-0.19
-0.19
-0.215
-0.225
-0.22
-0.215
-0.195
-0.205
-0.215
-0.225
-0.22
-0.21
-0.195
-0.195
-0.215
-0.235
-0.245
-0.22
-0.21
-0.2
-0.225
-0.23
-0.235
-0.22
-0.205
-0.21
-0.235
-0.25
-0.23
-0.21
-0.205
-0.21
-0.23
-0.235
-0.21
-0.19
-0.185
-0.19
-0.185
-0.21
-0.19
-0.165
-0.175
-0.19
-0.225
-0.25
-0.27
-0.28
-0.305
-0.32
-0.355
-0.415
-0.49
-0.59
-0.65
-0.69
-0.735
-0.79
-0.89
-1.02
-1.195
-1.34
-1.43
-1.425
-1.37
-1.33
-1.3
-1.24
-1.165
-1.1
-1.04
-0.955
-0.885
-0.815
-0.75
-0.695
-0.645
-0.605
-0.57
-0.54
-0.5
-0.445
-0.38
-0.28
-0.225
-0.195
-0.19
-0.175
-0.175
-0.14
-0.125
-0.13
-0.155
-0.145
-0.145
-0.13
-0.12
-0.115
-0.13
-0.125
-0.12
-0.11
-0.1
-0.11
-0.115
-0.11
-0.095
-0.09
-0.075
-0.08
-0.09
-0.09
-0.08
-0.055
-0.04
-0.03
-0.045
-0.035
-0.025
-0.025
-0.035
-0.03
-0.03
-0.005
0.005
0.02
0.035
0.04
0.055
0.055
0.065
0.055
0.07
0.08
0.085
0.08
0.085
0.105
0.12
0.125
0.12
0.125
0.135
0.14
0.16
0.15
0.145
0.14
0.155
0.175
0.19
0.175
0.185
0.185
0.19
0.19
0.2
0.205
0.19
0.18
0.205
0.225
0.225
0.215
0.2
0.185
0.19
0.205
0.215
0.22
0.205
0.195
0.195
0.2
0.2
0.19
0.16
0.14
0.125
0.15
0.145
0.15
0.13
0.11
0.1
0.105
0.1
0.1
0.08
0.055
0.03
0.035
0.045
0.025
0.01
-0.005
-0.015
-0.015
-0.01
-0.025
-0.05
-0.05
-0.04
-0.04
-0.035
-0.045
-0.065
-0.08
-0.085
-0.065
-0.065
-0.08
-0.07
-0.09
-0.09
-0.08
-0.075
-0.085
-0.115
-0.13
-0.125
-0.11
-0.105
-0.1
-0.115
-0.12
-0.11
-0.115
-0.11
-0.13
-0.125
-0.135
-0.135
-0.125
-0.12
-0.125
-0.15
-0.16
-0.155
-0.16
-0.15
-0.155
-0.16
-0.16
-0.16
-0.16
-0.16
-0.165
-0.18
-0.18
-0.175
-0.175
-0.16
-0.175
-0.195
-0.2
-0.19
-0.165
-0.155
-0.16
-0.175
-0.205
-0.215
-0.22
-0.21
-0.22
-0.23
-0.23
-0.225
-0.225
-0.215
-0.22
-0.235
-0.25
-0.255
-0.24
-0.22
-0.24
-0.25
-0.26
-0.26
-0.265
-0.26
-0.24
-0.255
-0.26
-0.275
-0.26
-0.25
-0.255
-0.275
-0.275
-0.275
-0.27
-0.255
-0.26
-0.26
-0.255
-0.275
-0.26
-0.25
-0.255
-0.26
-0.265
-0.26
-0.25
-0.255
-0.27
-0.265
-0.27
-0.28
-0.26
-0.25
-0.26
-0.275
-0.28
-0.265
-0.265
-0.25
-0.26
-0.265
-0.275
-0.26
-0.275
-0.27
-0.275
-0.285
-0.285
-0.28
-0.26
-0.26
-0.265
-0.28
-0.275
-0.27
-0.255
-0.24
-0.245
-0.245
-0.235
-0.22
-0.225
-0.215
-0.22
-0.24
-0.265
-0.275
-0.26
-0.275
-0.305
-0.34
-0.365
-0.38
-0.41
-0.465
-0.57
-0.67
-0.75
-0.775
-0.81
-0.87
-1.02
-1.22
-1.39
-1.48
-1.45
-1.4
-1.38
-1.35
-1.275
-1.19
-1.095
-1.02
-0.94
-0.875
-0.8
-0.73
-0.665
-0.61
-0.585
-0.575
-0.545
-0.47
-0.38
-0.305
-0.255
-0.215
-0.18
-0.165
-0.15
-0.155
-0.16
-0.16
-0.165
-0.155
-0.145
-0.125
-0.135
-0.135
-0.135
-0.125
-0.125
-0.125
-0.12
-0.12
-0.13
-0.105
-0.09
-0.08
-0.085
-0.1
-0.09
-0.08
-0.07
-0.045
-0.055
-0.07
-0.055
-0.035
-0.015
-0.005
-0.02
-0.01
-0.015
0.005
0.01
0.035
0.045
0.045
0.04
0.055
0.06
0.075
0.07
0.085
0.08
0.075
0.11
0.115
0.115
0.11
0.11
0.14
0.145
0.15
0.17
0.17
0.17
0.18
0.185
0.17
0.17
0.175
0.17
0.185
0.205
0.2
0.205
0.195
0.2
0.19
0.21
0.22
0.215
0.2
0.195
0.195
0.205
0.205
0.205
0.175
0.17
0.165
0.155
0.155
0.145
0.13
0.115
0.11
0.115
0.115
0.095
0.07
0.07
0.055
0.06
0.055
0.055
0.04
0.025
0.035
0.015
0.02
0.0
-0.01
-0.03
-0.035
-0.035
-0.03
-0.04
-0.055
-0.055
-0.055
-0.055
-0.065
-0.075
-0.08
-0.075
-0.07
-0.075
-0.07
-0.075
-0.1
-0.11
-0.1
-0.1
-0.105
-0.115
-0.125
-0.125
-0.125
-0.12
-0.105
-0.11
-0.135
-0.13
-0.145
-0.125
-0.115
-0.125
-0.13
-0.155
-0.14
-0.14
-0.135
-0.15
-0.145
-0.16
-0.16
-0.155
-0.155
-0.16
-0.17
-0.18
-0.18
-0.19
-0.17
-0.17
-0.19
-0.21
-0.185
-0.175
-0.175
-0.2
-0.215
-0.21
-0.2
-0.195
-0.19
-0.21
-0.245
-0.26
-0.28
-0.255
-0.245
-0.25
-0.27
-0.265
-0.275
-0.265
-0.26
-0.28
-0.285
-0.305
-0.29
-0.285
-0.28
-0.295
-0.3
-0.315
-0.32
-0.305
-0.3
-0.315
-0.32
-0.325
-0.33
-0.325
-0.3
-0.315
-0.325
-0.325
-0.325
-0.32
-0.31
-0.305
-0.325
-0.335
-0.335
-0.335
-0.32
-0.32
-0.325
-0.35
-0.33
-0.325
-0.32
-0.335
-0.35
-0.35
-0.35
-0.33
-0.325
-0.33
-0.33
-0.345
-0.355
-0.365
-0.355
-0.36
-0.355
-0.365
-0.365
-0.355
-0.355
-0.355
-0.355
-0.375
-0.365
-0.35
-0.335
-0.355
-0.37
-0.36
-0.36
-0.355
-0.345
-0.34
-0.345
-0.34
-0.355
-0.33
-0.34
-0.345
-0.37
-0.405
-0.41
-0.42
-0.44
-0.46
-0.485
-0.53
-0.595
-0.69
-0.795
-0.88
-0.905
-0.96
-1.06
-1.24
-1.465
-1.6
-1.615
-1.57
-1.525
-1.455
-1.385
-1.325
-1.255
-1.175
-1.095
-0.99
-0.9
-0.84
-0.8
-0.775
-0.75
-0.695
-0.63
-0.555
-0.49
-0.43
-0.365
-0.335
-0.315
-0.31
-0.31
-0.325
-0.32
-0.31
-0.295
-0.29
-0.305
-0.305
-0.295
-0.28
-0.275
-0.29
-0.285
-0.29
-0.27
-0.25
-0.235
-0.255
-0.26
-0.26
-0.26
-0.245
-0.235
-0.225
-0.235
-0.225
-0.21
-0.185
-0.195
-0.205
-0.21
-0.215
-0.18
-0.16
-0.16
-0.16
-0.14
-0.14
-0.125
-0.12
-0.11
-0.095
-0.115
-0.1
-0.1
-0.08
-0.07
-0.065
-0.07
-0.055
-0.055
-0.03
-0.02
-0.025
-0.03
-0.025
-0.02
-0.015
0.0
0.0
0.005
-0.005
-0.01
-0.005
0.005
0.0
-0.005
-0.01
-0.015
-0.01
-0.01
-0.035
-0.02
-0.03
-0.04
-0.04
-0.05
-0.065
-0.08
-0.095
-0.08
-0.08
-0.08
-0.105
-0.12
-0.125
-0.13
-0.125
-0.13
-0.145
-0.165
-0.165
-0.16
-0.17
-0.175
-0.205
-0.225
-0.24
-0.235
-0.23
-0.23
-0.24
-0.26
-0.26
-0.265
-0.25
-0.265
-0.275
-0.295
-0.3
-0.305
-0.3
-0.295
-0.31
-0.31
-0.315
-0.31
-0.315
-0.315
-0.32
-0.32
-0.32
-0.32
-0.305
-0.32
-0.335
-0.355
-0.335
-0.345
-0.32
-0.315
-0.33
-0.35
-0.375
-0.355
-0.345
-0.35
-0.355
-0.36
-0.365
-0.36
-0.36
-0.355
-0.355
-0.375
-0.37
-0.36
-0.36
-0.375
-0.385
-0.4
-0.385
-0.38
-0.38
-0.355
-0.355
-0.37
-0.39
-0.4
-0.4
-0.4
-0.405
-0.42
-0.42
-0.415
-0.415
-0.4
-0.405
-0.42
-0.43
-0.42
-0.41
-0.425
-0.42
-0.43
-0.445
-0.44
-0.44
-0.42
-0.415
-0.435
-0.425
-0.43
-0.425
-0.425
-0.42
-0.425
-0.415
-0.42
-0.405
-0.41
-0.415
-0.425
-0.435
-0.42
-0.4
-0.39
-0.39
-0.405
-0.41
-0.405
-0.385
-0.385
-0.39
-0.415
-0.41
-0.4
-0.395
-0.385
-0.38
-0.4
-0.405
-0.38
-0.38
-0.37
-0.385
-0.39
-0.4
-0.4
-0.38
-0.37
-0.38
-0.385
-0.395
-0.385
-0.37
-0.36
-0.36
-0.39
-0.385
-0.365
-0.355
-0.33
-0.335
-0.345
-0.345
-0.33
-0.305
-0.295
-0.3
-0.32
-0.345
-0.35
-0.36
-0.37
-0.4
-0.44
-0.465
-0.495
-0.565
-0.66
-0.755
-0.825
-0.87
-0.935
-1.035
-1.21
-1.415
-1.535
-1.545
-1.48
-1.425
-1.38
-1.305
-1.23
-1.17
-1.08
-0.995
-0.905
-0.83
-0.77
-0.71
-0.645
-0.61
-0.585
-0.515
-0.445
-0.37
-0.29
-0.235
-0.21
-0.19
-0.195
-0.175
-0.175
-0.15
-0.155
-0.155
-0.155
-0.145
-0.145
-0.145
-0.135
-0.125
-0.13
-0.11
-0.1
-0.095
-0.09
-0.09
-0.09
-0.115
-0.09
-0.075
-0.06
-0.055
-0.065
-0.065
-0.04
-0.02
0.01
0.01
0.01
0.02
0.02
0.045
0.06
0.07
0.065
0.05
0.06
0.095
0.11
0.115
0.115
0.105
0.13
0.145
0.16
0.17
0.16
0.165
0.19
0.2
0.21
0.215
0.205
0.22
0.235
0.255
0.255
0.25
0.245
0.245
0.25
0.265
0.275
0.29
0.28
0.27
0.29
0.285
0.305
0.285
0.265
0.265
0.27
0.28
0.285
0.27
0.255
0.25
0.245
0.26
0.255
0.235
0.21
0.19
0.21
0.215
0.205
0.195
0.165
0.16
0.16
0.155
0.15
0.135
0.12
0.115
0.125
0.12
0.125
0.105
0.09
0.075
0.08
0.08
0.08
0.08
0.06
0.06
0.065
0.075
0.08
0.065
0.065
0.055
0.06
0.065
0.07
0.055
0.04
0.045
0.05
0.055
0.055
0.06
0.035
0.035
0.03
0.045
0.05
0.035
0.025
0.02
0.015
0.045
0.03
0.02
0.015
0.025
0.03
0.05
0.04
0.025
0.025
0.01
0.01
0.025
0.015
0.02
0.0
-0.005
-0.005
0.015
0.025
0.01
0.01
0.015
0.015
0.015
0.01
-0.005
-0.025
-0.03
-0.035
-0.02
-0.01
-0.03
-0.035
-0.025
-0.045
-0.035
-0.035
-0.02
-0.025
-0.02
-0.025
-0.045
-0.05
-0.06
-0.045
-0.07
-0.045
-0.035
-0.025
-0.04
-0.045
-0.045
-0.045
-0.035
-0.04
-0.04
-0.045
-0.05
-0.04
-0.05
-0.025
-0.04
-0.06
-0.065
-0.05
-0.025
-0.005
-0.015
-0.035
-0.055
-0.04
-0.03
-0.03
-0.025
-0.03
-0.035
-0.02
-0.02
-0.01
-0.015
-0.02
-0.035
-0.035
-0.055
-0.025
-0.035
-0.04
-0.04
-0.03
-0.035
-0.015
-0.035
-0.025
-0.03
-0.04
-0.005
0.005
0.0
-0.03
-0.025
0.005
0.015
0.03
0.015
0.01
-0.005
-0.025
-0.02
-0.015
-0.055
-0.095
-0.125
-0.135
-0.155
-0.25
-0.365
-0.47
-0.545
-0.565
-0.6
-0.715
-0.92
-1.105
-1.22
-1.22
-1.15
-1.105
-1.09
-1.04
-0.975
-0.905
-0.855
-0.77
-0.685
-0.615
-0.54
-0.48
-0.41
-0.375
-0.355
-0.315
-0.27
-0.19
-0.105
-0.02
0.025
0.05
0.07
0.07
0.1
0.115
0.11
0.1
0.09
0.095
0.11
0.125
0.12
0.11
0.12
0.13
0.15
0.15
0.14
0.125
0.13
0.14
0.17
0.19
0.17
0.14
0.155
0.18
0.205
0.225
0.215
0.2
0.19
0.22
0.235
0.255
0.235
0.25
0.255
0.26
0.29
0.3
0.285
0.275
0.29
0.31
0.315
0.335
0.335
0.34
0.34
0.355
0.365
0.365
0.37
0.37
0.375
0.39
0.4
0.41
0.405
0.4
0.405
0.41
0.425
0.44
0.435
0.425
0.415
0.44
0.435
0.455
0.44
0.435
0.445
0.45
0.445
0.445
0.425
0.42
0.405
0.405
0.42
0.415
0.395
0.39
0.385
0.39
0.385
0.385
0.365
0.36
0.34
0.34
0.34
0.32
0.31
0.29
0.27
0.28
0.275
0.27
0.25
0.23
0.215
0.23
0.24
0.23
0.22
0.21
0.2
0.195
0.205
0.195
0.18
0.165
0.165
0.165
0.185
0.17
0.15
0.14
0.145
0.155
0.16
0.145
0.135
0.12
0.13
0.15
0.15
0.15
0.13
0.125
0.11
0.115
0.125
0.13
0.135
0.115
0.1
0.085
0.095
0.11
0.1
0.095
0.09
0.09
0.095
0.09
0.09
0.065
0.07
0.075
0.1
0.11
0.08
0.055
0.04
0.055
0.06
0.06
0.035
0.005
-0.005
0.015
0.035
0.03
0.01
0.005
0.005
0.015
0.0
-0.005
-0.005
0.0
-0.01
0.005
-0.015
-0.02
-0.04
-0.03
-0.035
-0.03
-0.02
-0.015
-0.025
-0.04
-0.04
-0.025
-0.02
-0.02
-0.035
-0.045
-0.04
-0.05
-0.035
-0.015
-0.03
-0.04
-0.045
-0.025
-0.01
-0.025
-0.03
-0.06
-0.055
-0.04
-0.03
-0.02
-0.03
-0.02
-0.04
-0.045
-0.04
-0.045
-0.04
-0.05
-0.055
-0.05
-0.035
-0.025
-0.035
-0.05
-0.05
-0.025
-0.015
-0.01
-0.015
-0.035
-0.035
-0.025
-0.015
-0.015
-0.025
-0.025
-0.025
-0.005
0.01
0.005
0.005
-0.015
-0.02
-0.035
-0.025
-0.02
-0.05
-0.1
-0.15
-0.155
-0.165
-0.22
-0.335
-0.44
-0.5
-0.525
-0.565
-0.66
-0.835
-1.04
-1.2
-1.225
-1.155
-1.1
-1.065
-1.025
-0.955
-0.865
-0.79
-0.72
-0.665
-0.63
-0.575
-0.475
-0.415
-0.375
-0.36
-0.34
-0.295
-0.21
-0.15
-0.07
-0.015
0.015
0.045
0.045
0.05
0.055
0.055
0.06
0.07
0.06
0.075
0.065
0.075
0.07
0.06
0.09
0.1
0.1
0.09
0.085
0.08
0.09
0.1
0.115
0.105
0.105
0.095
0.12
0.14
0.15
0.15
0.14
0.135
0.15
0.16
0.175
0.185
0.18
0.175
