Lead II
-0.28
-0.295
-0.31
-0.32
-0.32
-0.31
-0.3
-0.3
-0.295
-0.32
-0.295
-0.285
-0.285
-0.295
-0.305
-0.325
-0.315
-0.295
-0.28
-0.29
-0.29
-0.295
-0.28
-0.28
-0.275
-0.285
-0.31
-0.325
-0.31
-0.3
-0.29
-0.29
-0.315
-0.325
-0.34
-0.31
-0.3
-0.29
-0.28
-0.3
-0.295
-0.295
-0.285
-0.3
-0.305
-0.31
-0.305
-0.305
-0.265
-0.27
-0.28
-0.29
-0.29
-0.28
-0.275
-0.275
-0.28
-0.295
-0.29
-0.285
-0.28
-0.275
-0.275
-0.265
-0.275
-0.27
-0.245
-0.22
-0.215
-0.16
-0.105
-0.005
0.105
0.23
0.4
0.585
0.815
1.06
1.26
1.31
1.185
0.91
0.565
0.275
0.0
-0.265
-0.425
-0.44
-0.36
-0.285
-0.245
-0.245
-0.28
-0.3
-0.295
-0.29
-0.275
-0.3
-0.33
-0.35
-0.35
-0.345
-0.33
-0.34
-0.36
-0.37
-0.37
-0.37
-0.36
-0.365
-0.375
-0.38
-0.375
-0.365
-0.365
-0.37
-0.385
-0.395
-0.365
-0.36
-0.345
-0.335
-0.35
-0.36
-0.365
-0.36
-0.33
-0.36
-0.355
-0.375
-0.365
-0.33
-0.31
-0.32
-0.345
-0.365
-0.36
-0.345
-0.31
-0.32
-0.325
-0.345
-0.325
-0.305
-0.29
-0.3
-0.295
-0.315
-0.315
-0.285
-0.255
-0.24
-0.245
-0.265
-0.245
-0.245
-0.225
-0.225
-0.235
-0.225
-0.215
-0.195
-0.19
-0.16
-0.155
-0.16
-0.175
-0.15
-0.12
-0.105
-0.09
-0.1
-0.105
-0.08
-0.06
-0.06
-0.07
-0.075
-0.06
-0.035
-0.03
-0.04
-0.075
-0.075
-0.085
-0.11
-0.075
-0.075
-0.09
-0.11
-0.15
-0.135
-0.13
-0.125
-0.14
-0.17
-0.16
-0.15
-0.15
-0.165
-0.19
-0.19
-0.2
-0.18
-0.18
-0.18
-0.18
-0.18
-0.185
-0.185
-0.175
-0.185
-0.195
-0.21
-0.22
-0.195
-0.195
-0.195
-0.215
-0.225
-0.215
-0.19
-0.175
-0.18
-0.195
-0.2
-0.175
-0.185
-0.165
-0.17
-0.18
-0.17
-0.17
-0.155
-0.15
-0.16
-0.16
-0.155
-0.16
-0.15
-0.155
-0.155
-0.16
-0.165
-0.165
-0.145
-0.14
-0.155
-0.165
-0.18
-0.19
-0.185
-0.175
-0.185
-0.19
-0.195
-0.185
-0.185
-0.175
-0.18
-0.21
-0.22
-0.21
-0.195
-0.175
-0.185
-0.2
-0.215
-0.2
-0.2
-0.175
-0.195
-0.2
-0.23
-0.19
-0.175
-0.18
-0.18
-0.2
-0.205
-0.17
-0.12
-0.06
0.01
0.1
0.235
0.41
0.64
0.885
1.11
1.305
1.425
1.415
1.27
0.98
0.62
0.23
-0.095
-0.31
-0.355
-0.3
-0.23
-0.19
-0.18
-0.185
-0.2
-0.22
-0.25
-0.285
-0.3
-0.29
-0.275
-0.27
-0.29
-0.315
-0.315
-0.31
-0.3
-0.29
-0.3
-0.315
-0.33
-0.325
-0.32
-0.325
-0.325
-0.34
-0.355
-0.335
-0.32
-0.31
-0.32
-0.33
-0.365
-0.345
-0.325
-0.325
-0.325
-0.32
-0.325
-0.325
-0.315
-0.305
-0.32
-0.325
-0.325
-0.335
-0.3
-0.29
-0.3
-0.3
-0.32
-0.315
-0.285
-0.265
-0.28
-0.295
-0.285
-0.275
-0.26
-0.245
-0.245
-0.245
-0.245
-0.225
-0.21
-0.19
-0.18
-0.205
-0.205
-0.19
-0.185
-0.185
-0.17
-0.175
-0.18
-0.175
-0.15
-0.13
-0.125
-0.145
-0.165
-0.165
-0.15
-0.135
-0.135
-0.155
-0.16
-0.15
-0.13
-0.135
-0.155
-0.175
-0.205
-0.21
-0.2
-0.2
-0.205
-0.22
-0.24
-0.245
-0.245
-0.23
-0.245
-0.255
-0.28
-0.28
-0.25
-0.235
-0.255
-0.26
-0.265
-0.255
-0.245
-0.24
-0.225
-0.23
-0.235
-0.235
-0.235
-0.21
-0.215
-0.24
-0.25
-0.25
-0.24
-0.22
-0.22
-0.23
-0.235
-0.225
-0.22
-0.215
-0.22
-0.23
-0.245
-0.24
-0.245
-0.235
-0.23
-0.25
-0.27
-0.26
-0.255
-0.23
-0.24
-0.26
-0.26
-0.25
-0.225
-0.22
-0.23
-0.255
-0.265
-0.255
-0.245
-0.22
-0.23
-0.225
-0.245
-0.255
-0.245
-0.255
-0.25
-0.245
-0.255
-0.245
-0.23
-0.225
-0.245
-0.245
-0.24
-0.235
-0.23
-0.225
-0.225
-0.25
-0.275
-0.27
-0.26
-0.265
-0.26
-0.28
-0.285
-0.265
-0.26
-0.265
-0.25
-0.26
-0.28
-0.265
-0.245
-0.24
-0.25
-0.255
-0.26
-0.25
-0.23
-0.23
-0.225
-0.245
-0.24
-0.24
-0.215
-0.205
-0.215
-0.235
-0.235
-0.2
-0.16
-0.085
-0.015
0.05
0.175
0.32
0.52
0.77
0.975
1.17
1.34
1.395
1.295
1.045
0.705
0.33
0.0
-0.285
-0.395
-0.395
-0.345
-0.295
-0.255
-0.235
-0.215
-0.225
-0.265
-0.295
-0.315
-0.315
-0.31
-0.3
-0.33
-0.335
-0.345
-0.34
-0.345
-0.35
-0.345
-0.365
-0.37
-0.36
-0.35
-0.345
-0.35
-0.365
-0.37
-0.375
-0.365
-0.35
-0.36
-0.36
-0.385
-0.36
-0.35
-0.33
-0.335
-0.365
-0.385
-0.37
-0.365
-0.37
-0.36
-0.345
-0.35
-0.34
-0.34
-0.335
-0.345
-0.345
-0.35
-0.34
-0.325
-0.31
-0.32
-0.335
-0.325
-0.315
-0.305
-0.29
-0.3
-0.315
-0.305
-0.29
-0.26
-0.24
-0.235
-0.27
-0.27
-0.265
-0.25
-0.23
-0.225
-0.23
-0.24
-0.23
-0.215
-0.22
-0.24
-0.245
-0.245
-0.21
-0.205
-0.195
-0.195
-0.19
-0.185
-0.185
-0.17
-0.155
-0.16
-0.17
-0.16
-0.17
-0.17
-0.175
-0.18
-0.185
-0.19
-0.185
-0.18
-0.185
-0.19
-0.195
-0.215
-0.215
-0.21
-0.21
-0.21
-0.24
-0.255
-0.26
-0.245
-0.23
-0.225
-0.235
-0.26
-0.26
-0.245
-0.245
-0.255
-0.27
-0.27
-0.255
-0.24
-0.23
-0.25
-0.275
-0.285
-0.28
-0.27
-0.255
-0.265
-0.255
-0.25
-0.245
-0.25
-0.25
-0.265
-0.27
-0.275
-0.27
-0.255
-0.255
-0.245
-0.245
-0.26
-0.25
-0.24
-0.23
-0.24
-0.255
-0.255
-0.225
-0.22
-0.22
-0.235
-0.24
-0.235
-0.24
-0.22
-0.22
-0.24
-0.245
-0.25
-0.25
-0.22
-0.22
-0.235
-0.25
-0.25
-0.245
-0.23
-0.225
-0.22
-0.255
-0.265
-0.265
-0.24
-0.235
-0.235
-0.25
-0.24
-0.24
-0.225
-0.225
-0.24
-0.25
-0.275
-0.26
-0.25
-0.245
-0.255
-0.255
-0.275
-0.25
-0.23
-0.235
-0.235
-0.27
-0.285
-0.28
-0.255
-0.26
-0.255
-0.245
-0.26
-0.245
-0.235
-0.235
-0.23
-0.25
-0.255
-0.24
-0.22
-0.21
-0.22
-0.235
-0.24
-0.24
-0.22
-0.21
-0.23
-0.245
-0.265
-0.255
-0.25
-0.245
-0.26
-0.27
-0.275
-0.255
-0.23
-0.215
-0.2
-0.225
-0.24
-0.235
-0.18
-0.13
-0.08
-0.01
0.06
0.205
0.365
0.56
0.73
0.915
1.115
1.29
1.38
1.32
1.085
0.775
0.435
0.115
-0.125
-0.295
-0.365
-0.34
-0.295
-0.24
-0.185
-0.185
-0.215
-0.24
-0.275
-0.29
-0.3
-0.305
-0.31
-0.33
-0.335
-0.325
-0.325
-0.325
-0.315
-0.335
-0.34
-0.32
-0.32
-0.315
-0.33
-0.35
-0.34
-0.335
-0.335
-0.32
-0.32
-0.325
-0.35
-0.33
-0.315
-0.3
-0.3
-0.31
-0.32
-0.32
-0.315
-0.305
-0.315
-0.33
-0.33
-0.315
-0.29
-0.285
-0.31
-0.315
-0.32
-0.3
-0.295
-0.27
-0.29
-0.295
-0.295
-0.275
-0.275
-0.265
-0.26
-0.28
-0.28
-0.27
-0.24
-0.23
-0.22
-0.24
-0.25
-0.235
-0.205
-0.19
-0.19
-0.2
-0.205
-0.205
-0.18
-0.165
-0.17
-0.19
-0.195
-0.19
-0.16
-0.14
-0.135
-0.135
-0.14
-0.105
-0.11
-0.11
-0.105
-0.1
-0.105
-0.095
-0.09
-0.085
-0.095
-0.13
-0.125
-0.14
-0.125
-0.125
-0.13
-0.145
-0.16
-0.16
-0.155
-0.145
-0.17
-0.195
-0.21
-0.21
-0.185
-0.18
-0.185
-0.2
-0.21
-0.22
-0.195
-0.2
-0.195
-0.215
-0.225
-0.225
-0.195
-0.195
-0.215
-0.23
-0.235
-0.23
-0.225
-0.23
-0.235
-0.255
-0.255
-0.22
-0.2
-0.205
-0.23
-0.24
-0.24
-0.225
-0.215
-0.2
-0.205
-0.235
-0.215
-0.205
-0.205
-0.205
-0.215
-0.235
-0.23
-0.215
-0.19
-0.18
-0.175
-0.2
-0.205
-0.2
-0.19
-0.205
-0.21
-0.23
-0.23
-0.21
-0.195
-0.195
-0.2
-0.215
-0.225
-0.235
-0.205
-0.185
-0.185
-0.205
-0.23
-0.225
-0.21
-0.21
-0.225
-0.23
-0.225
-0.23
-0.22
-0.215
-0.225
-0.23
-0.245
-0.23
-0.23
-0.22
-0.24
-0.26
-0.245
-0.23
-0.225
-0.205
-0.21
-0.225
-0.225
-0.235
-0.225
-0.22
-0.21
-0.22
-0.225
-0.215
-0.205
-0.19
-0.205
-0.22
-0.2
-0.15
-0.055
0.005
0.055
0.175
0.33
0.53
0.76
0.98
1.175
1.345
1.415
1.36
1.155
0.845
0.48
0.12
-0.2
-0.41
-0.455
-0.405
-0.34
-0.31
-0.285
-0.265
-0.255
-0.27
-0.315
-0.33
-0.345
-0.345
-0.34
-0.35
-0.355
-0.37
-0.385
-0.375
-0.365
-0.34
-0.355
-0.35
-0.36
-0.345
-0.355
-0.365
-0.375
-0.375
-0.365
-0.36
-0.355
-0.345
-0.355
-0.385
-0.395
-0.39
-0.38
-0.37
-0.385
-0.39
-0.4
-0.385
-0.38
-0.37
-0.37
-0.395
-0.395
-0.38
-0.375
-0.385
-0.36
-0.375
-0.375
-0.365
-0.36
-0.36
-0.36
-0.38
-0.38
-0.37
-0.34
-0.33
-0.35
-0.36
-0.36
-0.34
-0.305
-0.285
-0.29
-0.295
-0.295
-0.265
-0.245
-0.235
-0.245
-0.24
-0.25
-0.23
-0.195
-0.19
-0.205
-0.215
-0.225
-0.2
-0.2
-0.18
-0.18
-0.195
-0.195
-0.2
-0.195
-0.19
-0.175
-0.195
-0.205
-0.195
-0.19
-0.2
-0.205
-0.23
-0.22
-0.215
-0.21
-0.205
-0.225
-0.245
-0.26
-0.255
-0.26
-0.255
-0.28
-0.285
-0.3
-0.32
-0.295
-0.285
-0.305
-0.315
-0.33
-0.32
-0.31
-0.305
-0.32
-0.31
-0.33
-0.305
-0.31
-0.3
-0.315
-0.33
-0.345
-0.32
-0.305
-0.295
-0.3
-0.315
-0.32
-0.315
-0.3
-0.29
-0.295
-0.31
-0.315
-0.3
-0.285
-0.265
-0.285
-0.29
-0.29
-0.295
-0.27
-0.27
-0.295
-0.295
-0.285
-0.295
-0.28
-0.275
-0.3
-0.315
-0.315
-0.305
-0.285
-0.28
-0.285
-0.295
-0.295
-0.29
-0.27
-0.285
-0.285
-0.31
-0.335
-0.315
-0.305
-0.305
-0.3
-0.33
-0.335
-0.33
-0.33
-0.33
-0.335
-0.36
-0.36
-0.345
-0.315
-0.315
-0.305
-0.325
-0.345
-0.355
-0.325
-0.315
-0.34
-0.35
-0.33
-0.33
-0.33
-0.335
-0.355
-0.365
-0.36
-0.34
-0.325
-0.34
-0.36
-0.37
-0.36
-0.345
-0.34
-0.335
-0.355
-0.355
-0.36
-0.35
-0.34
-0.33
-0.335
-0.355
-0.35
-0.355
-0.34
-0.35
-0.36
-0.38
-0.38
-0.35
-0.345
-0.325
-0.33
-0.34
-0.34
-0.34
-0.35
-0.32
-0.32
-0.345
-0.34
-0.325
-0.32
-0.32
-0.325
-0.33
-0.345
-0.345
-0.34
-0.335
-0.34
-0.345
-0.345
-0.34
-0.335
-0.32
-0.325
-0.34
-0.345
-0.34
-0.315
-0.3
-0.315
-0.32
-0.34
-0.32
-0.295
-0.3
-0.315
-0.32
-0.315
-0.325
-0.305
-0.295
-0.275
-0.235
-0.185
-0.115
-0.015
0.11
0.245
0.415
0.595
0.805
1.015
1.2
1.305
1.305
1.18
0.945
0.66
0.365
0.085
-0.21
-0.445
-0.505
-0.465
-0.42
-0.365
-0.355
-0.335
-0.32
-0.305
-0.32
-0.35
-0.375
-0.385
-0.405
-0.395
-0.395
-0.41
-0.415
-0.43
-0.425
-0.435
-0.43
-0.435
-0.445
-0.435
-0.43
-0.425
-0.42
-0.425
-0.43
-0.44
-0.435
-0.42
-0.415
-0.42
-0.425
-0.435
-0.44
-0.4
-0.4
-0.425
-0.43
-0.44
-0.45
-0.435
-0.415
-0.415
-0.42
-0.405
-0.395
-0.385
-0.395
-0.405
-0.43
-0.415
-0.42
-0.385
-0.38
-0.375
-0.38
-0.385
-0.38
-0.345
-0.34
-0.345
-0.345
-0.35
-0.34
-0.31
-0.295
-0.31
-0.31
-0.32
-0.29
-0.265
-0.26
-0.27
-0.285
-0.275
-0.265
-0.26
-0.25
-0.245
-0.25
-0.245
-0.235
-0.215
-0.21
-0.22
-0.23
-0.255
-0.235
-0.205
-0.195
-0.19
-0.2
-0.21
-0.195
-0.18
-0.17
-0.17
-0.2
-0.22
-0.21
-0.21
-0.215
-0.22
-0.225
-0.205
-0.205
-0.2
-0.21
-0.245
-0.265
-0.29
-0.295
-0.27
-0.28
-0.28
-0.305
-0.305
-0.285
-0.295
-0.3
-0.31
-0.335
-0.335
-0.325
-0.305
-0.295
-0.305
-0.325
-0.325
-0.33
-0.31
-0.305
-0.295
-0.315
-0.305
-0.295
-0.285
-0.275
-0.285
-0.305
-0.31
-0.305
-0.285
-0.275
-0.28
-0.295
-0.295
-0.295
-0.27
-0.255
-0.275
-0.295
-0.29
-0.285
-0.285
-0.27
-0.275
-0.29
-0.285
-0.285
-0.275
-0.265
-0.28
-0.3
-0.285
-0.27
-0.25
-0.255
-0.295
-0.3
-0.295
-0.3
-0.3
-0.28
-0.27
-0.28
-0.3
-0.31
-0.295
-0.285
-0.295
-0.305
-0.305
-0.3
-0.285
-0.275
-0.285
-0.31
-0.31
-0.31
-0.295
-0.305
-0.315
-0.325
-0.325
-0.315
-0.305
-0.285
-0.295
-0.3
-0.31
-0.295
-0.3
-0.3
-0.29
-0.32
-0.325
-0.305
-0.29
-0.285
-0.29
-0.31
-0.32
-0.31
-0.295
-0.285
-0.28
-0.285
-0.305
-0.29
-0.295
-0.29
-0.3
-0.31
-0.32
-0.3
-0.285
-0.27
-0.295
-0.305
-0.315
-0.31
-0.295
-0.275
-0.295
-0.3
-0.31
-0.295
-0.285
-0.29
-0.31
-0.32
-0.325
-0.315
-0.3
-0.29
-0.295
-0.3
-0.295
-0.29
-0.29
-0.27
-0.29
-0.29
-0.26
-0.215
-0.145
-0.095
-0.005
0.1
0.24
0.41
0.63
0.835
1.04
1.225
1.335
1.33
1.175
0.905
0.575
0.26
-0.035
-0.29
-0.4
-0.42
-0.385
-0.35
-0.3
-0.275
-0.255
-0.26
-0.3
-0.31
-0.34
-0.35
-0.335
-0.33
-0.34
-0.355
-0.375
-0.385
-0.375
-0.365
-0.385
-0.41
-0.4
-0.39
-0.395
-0.39
-0.4
-0.405
-0.42
-0.415
-0.4
-0.39
-0.39
-0.42
-0.41
-0.42
-0.39
-0.395
-0.405
-0.41
-0.41
-0.415
-0.385
-0.38
-0.375
-0.39
-0.385
-0.375
-0.36
-0.365
-0.375
-0.39
-0.38
-0.365
-0.335
-0.335
-0.345
-0.34
-0.34
-0.33
-0.33
-0.32
-0.335
-0.33
-0.325
-0.325
-0.315
-0.31
-0.305
-0.3
-0.295
-0.255
-0.26
-0.255
-0.265
-0.27
-0.265
-0.25
-0.23
-0.235
-0.24
-0.24
-0.25
-0.235
-0.225
-0.21
-0.205
-0.23
-0.24
-0.22
-0.2
-0.185
-0.205
-0.21
-0.205
-0.205
-0.185
-0.195
-0.19
-0.2
-0.2
-0.185
-0.175
-0.185
-0.215
-0.215
-0.24
-0.24
-0.235
-0.225
-0.245
-0.265
-0.27
-0.275
-0.28
-0.275
-0.295
-0.32
-0.31
-0.315
-0.305
-0.31
-0.345
-0.34
-0.35
-0.345
-0.34
-0.325
-0.335
-0.355
-0.35
-0.335
-0.335
-0.34
-0.355
-0.365
-0.36
-0.345
-0.325
-0.325
-0.33
-0.33
-0.345
-0.33
-0.315
-0.32
-0.32
-0.325
-0.325
-0.305
-0.3
-0.305
-0.315
-0.32
-0.33
-0.315
-0.29
-0.285
-0.315
-0.335
-0.345
-0.33
-0.33
-0.31
-0.31
-0.32
-0.315
-0.295
-0.285
-0.28
-0.31
-0.315
-0.335
-0.32
-0.29
-0.3
-0.305
-0.325
-0.33
-0.32
-0.325
-0.32
-0.34
-0.34
-0.335
-0.33
-0.325
-0.335
-0.335
-0.365
-0.345
-0.325
-0.32
-0.315
-0.32
-0.33
-0.33
-0.32
-0.315
-0.31
-0.325
-0.335
-0.34
-0.32
-0.315
-0.325
-0.35
-0.365
-0.35
-0.34
-0.31
-0.32
-0.325
-0.35
-0.33
-0.32
-0.305
-0.305
-0.275
-0.24
-0.195
-0.115
-0.01
0.13
0.295
0.47
0.68
0.895
1.12
1.3
1.365
1.27
0.99
0.63
0.295
0.01
-0.24
-0.39
-0.45
-0.45
-0.465
-0.44
-0.38
-0.3
-0.24
-0.235
-0.3
-0.385
-0.46
-0.495
-0.46
-0.435
-0.44
-0.455
-0.46
-0.45
-0.455
-0.475
-0.465
-0.46
-0.475
-0.485
-0.49
-0.485
-0.47
-0.455
-0.445
-0.46
-0.445
-0.455
-0.44
-0.43
-0.43
-0.44
-0.43
-0.425
-0.415
-0.42
-0.435
-0.435
-0.44
-0.425
-0.405
-0.405
-0.425
-0.44
-0.43
-0.415
-0.41
-0.4
-0.375
-0.355
-0.33
-0.325
-0.34
-0.36
-0.375
-0.375
-0.38
-0.38
-0.36
-0.33
-0.32
-0.32
-0.325
-0.315
-0.29
-0.29
-0.305
-0.32
-0.315
-0.305
-0.275
-0.265
-0.28
-0.27
-0.27
-0.255
-0.26
-0.25
-0.255
-0.27
-0.26
-0.26
-0.22
-0.235
-0.235
-0.235
-0.23
-0.21
-0.19
-0.2
-0.205
-0.215
-0.22
-0.21
-0.205
-0.22
-0.235
-0.245
-0.255
-0.255
-0.265
-0.275
-0.285
-0.3
-0.295
-0.295
-0.285
-0.28
-0.305
-0.33
-0.345
-0.35
-0.35
-0.36
-0.36
-0.37
-0.35
-0.33
-0.32
-0.335
-0.325
-0.345
-0.345
-0.355
-0.33
-0.33
-0.335
-0.355
-0.355
-0.35
-0.335
-0.32
-0.335
-0.35
-0.355
-0.335
-0.315
-0.32
-0.335
-0.345
-0.345
-0.33
-0.325
-0.33
-0.32
-0.315
-0.3
-0.28
-0.26
-0.26
-0.28
-0.33
-0.35
-0.335
-0.3
-0.29
-0.29
-0.31
-0.315
-0.305
-0.3
-0.31
-0.33
-0.34
-0.36
-0.34
-0.32
-0.295
-0.3
-0.325
-0.34
-0.32
-0.335
-0.32
-0.345
-0.36
-0.355
-0.34
-0.33
-0.335
-0.34
-0.345
-0.355
-0.345
-0.325
-0.325
-0.34
-0.375
-0.365
-0.36
-0.34
-0.345
-0.355
-0.355
-0.345
-0.345
-0.35
-0.345
-0.335
-0.33
-0.335
-0.335
-0.325
-0.32
-0.33
-0.33
-0.33
-0.32
-0.305
-0.32
-0.345
-0.345
-0.34
-0.295
-0.24
-0.195
-0.135
-0.095
0.005
0.155
0.345
0.55
0.775
0.99
1.195
1.285
1.22
0.975
0.635
0.3
-0.055
-0.35
-0.52
-0.545
-0.485
-0.425
-0.375
-0.365
-0.325
-0.335
-0.37
-0.395
-0.395
-0.4
-0.38
-0.4
-0.43
-0.46
-0.455
-0.44
-0.4
-0.4
-0.43
-0.46
-0.445
-0.43
-0.43
-0.405
-0.44
-0.435
-0.42
-0.415
-0.39
-0.4
-0.415
-0.415
-0.415
-0.415
-0.42
-0.425
-0.445
-0.45
-0.44
-0.43
-0.42
-0.395
-0.4
-0.405
-0.405
-0.405
-0.4
-0.39
-0.395
-0.41
-0.43
-0.41
-0.4
-0.39
-0.39
-0.42
-0.44
-0.42
-0.38
-0.365
-0.365
-0.365
-0.335
-0.325
-0.305
-0.305
-0.31
-0.32
-0.32
-0.28
-0.245
-0.24
-0.25
-0.27
-0.275
-0.265
-0.25
-0.225
-0.22
-0.21
-0.21
-0.21
-0.195
-0.19
-0.195
-0.215
-0.235
-0.215
-0.205
-0.205
-0.225
-0.22
-0.245
-0.27
-0.265
-0.27
-0.265
-0.285
-0.305
-0.315
-0.3
-0.315
-0.33
-0.355
-0.365
-0.345
-0.345
-0.34
-0.335
-0.355
-0.36
-0.34
-0.335
-0.345
-0.33
-0.345
-0.36
-0.33
-0.32
-0.33
-0.35
-0.36
-0.36
-0.335
-0.33
-0.31
-0.315
-0.32
-0.32
-0.3
-0.29
-0.285
-0.305
-0.31
-0.315
-0.32
-0.3
-0.31
-0.32
-0.325
-0.32
-0.3
-0.285
-0.28
-0.3
-0.315
-0.32
-0.32
-0.285
-0.275
-0.275
-0.29
-0.31
-0.305
-0.29
-0.275
-0.305
-0.31
-0.305
-0.315
-0.305
-0.295
-0.305
-0.31
-0.315
-0.3
-0.275
-0.28
-0.3
-0.31
-0.31
-0.315
-0.305
-0.315
-0.325
-0.32
-0.31
-0.305
-0.32
-0.315
-0.32
-0.32
-0.315
-0.305
-0.29
-0.285
-0.305
-0.315
-0.32
-0.31
-0.3
-0.31
-0.32
-0.325
-0.33
-0.3
-0.305
-0.295
-0.3
-0.325
-0.345
-0.325
-0.315
-0.305
-0.305
-0.32
-0.31
-0.3
-0.28
-0.285
-0.31
-0.34
-0.335
-0.32
-0.31
-0.315
-0.295
-0.325
-0.34
-0.33
-0.315
-0.31
-0.31
-0.305
-0.285
-0.27
-0.255
-0.245
-0.27
-0.295
-0.295
-0.255
-0.19
-0.125
-0.075
0.015
0.16
0.33
0.535
0.76
0.995
1.205
1.355
1.37
1.25
0.97
0.625
0.275
-0.065
-0.385
-0.515
-0.485
-0.425
-0.365
-0.335
-0.305
-0.295
-0.33
-0.35
-0.365
-0.37
-0.365
-0.355
-0.36
-0.38
-0.42
-0.43
-0.425
-0.41
-0.4
-0.41
-0.42
-0.42
-0.41
-0.385
-0.375
-0.395
-0.4
-0.41
-0.39
-0.37
-0.375
-0.395
-0.41
-0.405
-0.395
-0.38
-0.375
-0.38
-0.405
-0.41
-0.38
-0.365
-0.35
-0.375
-0.4
-0.405
-0.375
-0.36
-0.36
-0.39
-0.395
-0.395
-0.375
-0.36
-0.355
-0.36
-0.355
-0.355
-0.355
-0.33
-0.34
-0.34
-0.35
-0.35
-0.34
-0.31
-0.29
-0.3
-0.3
-0.29
-0.27
-0.265
-0.25
-0.25
-0.24
-0.265
-0.255
-0.23
-0.225
-0.225
-0.245
-0.23
-0.215
-0.19
-0.195
-0.195
-0.205
-0.175
-0.155
-0.15
-0.175
-0.185
-0.19
-0.18
-0.17
-0.155
-0.155
-0.17
-0.19
-0.195
-0.185
-0.17
-0.185
-0.21
-0.235
-0.265
-0.27
-0.26
-0.255
-0.27
-0.29
-0.305
-0.295
-0.285
-0.285
-0.3
-0.32
-0.325
-0.345
-0.32
-0.305
-0.31
-0.31
-0.32
-0.315
-0.285
-0.305
-0.305
-0.315
-0.31
-0.295
-0.27
-0.27
-0.28
-0.285
-0.28
-0.27
-0.27
-0.265
-0.28
-0.28
-0.28
-0.265
-0.26
-0.245
-0.26
-0.26
-0.265
-0.26
-0.24
-0.22
-0.23
-0.25
-0.245
-0.22
-0.23
-0.225
-0.255
-0.265
-0.27
-0.27
-0.26
-0.235
-0.25
-0.255
-0.265
-0.27
-0.255
-0.25
-0.25
-0.27
-0.27
-0.245
-0.245
-0.25
-0.265
-0.29
-0.285
-0.27
-0.255
-0.25
-0.27
-0.295
-0.275
-0.275
-0.265
-0.26
-0.285
-0.285
-0.285
-0.265
-0.265
-0.265
-0.26
-0.27
-0.28
-0.27
-0.255
-0.26
-0.28
-0.31
-0.29
-0.29
-0.27
-0.265
-0.275
-0.295
-0.29
-0.27
-0.25
-0.265
-0.28
-0.285
-0.29
-0.265
-0.245
-0.24
-0.265
-0.27
-0.27
-0.255
-0.25
-0.26
-0.255
-0.265
-0.27
-0.265
-0.25
-0.245
-0.25
-0.27
-0.27
-0.27
-0.265
-0.27
-0.29
-0.295
-0.3
-0.28
-0.26
-0.26
-0.265
-0.28
-0.295
-0.28
-0.27
-0.26
-0.245
-0.26
-0.275
-0.255
-0.235
-0.235
-0.245
-0.29
-0.265
-0.25
-0.24
-0.235
-0.245
-0.25
-0.25
-0.245
-0.23
-0.23
-0.23
-0.245
-0.24
-0.235
-0.225
-0.25
-0.255
-0.27
-0.285
-0.265
-0.245
-0.23
-0.24
-0.255
-0.265
-0.255
-0.245
-0.24
-0.25
-0.285
-0.29
-0.265
-0.24
-0.245
-0.25
-0.255
-0.25
-0.27
-0.255
-0.235
-0.24
-0.26
-0.255
-0.23
-0.21
-0.19
-0.19
-0.225
-0.235
-0.245
-0.235
-0.23
-0.215
-0.235
-0.235
-0.215
-0.195
-0.185
-0.18
-0.195
-0.205
-0.205
-0.185
-0.185
-0.205
-0.21
-0.215
-0.19
-0.175
-0.175
-0.185
-0.2
-0.225
-0.22
-0.225
-0.215
-0.21
-0.205
-0.2
-0.185
-0.17
-0.18
-0.195
-0.215
-0.21
-0.18
-0.16
-0.095
-0.035
0.045
0.16
0.3
0.455
0.625
0.8
0.98
1.165
1.365
1.495
1.455
1.245
0.915
0.6
0.34
0.075
-0.17
-0.3
-0.315
-0.245
-0.16
-0.135
-0.155
-0.205
-0.235
-0.255
-0.255
-0.26
-0.275
-0.29
-0.29
-0.28
-0.265
-0.27
-0.28
-0.305
-0.31
-0.3
-0.285
-0.28
-0.28
-0.29
-0.315
-0.315
-0.325
-0.3
-0.285
-0.285
-0.3
-0.295
-0.285
-0.28
-0.275
-0.28
-0.295
-0.305
-0.3
-0.29
-0.28
-0.285
-0.29
-0.3
-0.31
-0.275
-0.275
-0.265
-0.295
-0.285
-0.265
-0.24
-0.25
-0.26
-0.27
-0.265
-0.235
-0.225
-0.215
-0.23
-0.235
-0.225
-0.19
-0.185
-0.165
-0.17
-0.175
-0.18
-0.175
-0.145
-0.125
-0.115
-0.115
-0.12
-0.11
-0.115
-0.095
-0.085
-0.085
-0.09
-0.07
-0.05
-0.035
-0.05
-0.06
-0.07
-0.075
-0.055
-0.045
-0.04
-0.035
-0.06
-0.045
-0.045
-0.06
-0.075
-0.09
-0.08
-0.07
-0.065
-0.08
-0.105
-0.14
-0.145
-0.125
-0.11
-0.13
-0.14
-0.165
-0.18
-0.18
-0.165
-0.195
-0.225
-0.235
-0.235
-0.23
-0.21
-0.205
-0.215
-0.225
-0.23
-0.23
-0.205
-0.205
-0.23
-0.245
-0.235
-0.2
-0.21
-0.195
-0.205
-0.24
-0.235
-0.22
-0.2
-0.22
-0.225
-0.235
-0.225
-0.215
-0.205
-0.195
-0.215
-0.25
-0.245
-0.24
-0.235
-0.235
-0.255
-0.26
-0.265
-0.24
-0.245
-0.245
-0.255
-0.255
-0.245
-0.23
-0.23
-0.23
-0.235
-0.235
-0.215
-0.19
-0.185
-0.205
-0.225
-0.245
-0.23
-0.225
-0.215
-0.205
-0.21
-0.225
-0.225
-0.21
-0.21
-0.215
-0.215
-0.24
-0.25
-0.235
-0.245
-0.25
-0.24
-0.24
-0.23
-0.23
-0.21
-0.23
-0.245
-0.255
-0.24
-0.245
-0.245
-0.265
-0.265
-0.285
-0.28
-0.265
-0.245
-0.255
-0.26
-0.27
-0.28
-0.28
-0.275
-0.255
-0.25
-0.24
-0.26
-0.28
-0.27
-0.26
-0.265
-0.285
-0.3
-0.305
-0.295
-0.28
-0.29
-0.295
-0.28
-0.27
-0.26
-0.26
-0.255
-0.26
-0.265
-0.255
-0.23
-0.225
-0.225
-0.24
-0.265
-0.245
-0.22
-0.21
-0.235
-0.28
-0.275
-0.23
-0.22
-0.245
-0.265
-0.275
-0.265
-0.25
-0.24
-0.23
-0.24
-0.24
-0.255
-0.225
-0.225
-0.24
-0.255
-0.275
-0.295
-0.26
-0.225
-0.215
-0.21
-0.24
-0.255
-0.235
-0.22
-0.225
-0.23
-0.22
-0.19
-0.12
-0.04
0.07
0.2
0.355
0.54
0.775
1.015
1.205
1.355
1.385
1.285
1.05
0.71
0.365
0.035
-0.24
-0.395
-0.425
-0.355
-0.295
-0.26
-0.265
-0.26
-0.285
-0.28
-0.275
-0.295
-0.315
-0.345
-0.355
-0.34
-0.345
-0.36
-0.375
-0.36
-0.36
-0.33
-0.325
-0.35
-0.365
-0.385
-0.38
-0.35
-0.365
-0.37
-0.39
-0.37
-0.35
-0.335
-0.35
-0.36
-0.365
-0.36
-0.365
-0.36
-0.355
-0.35
-0.355
-0.37
-0.37
-0.355
-0.345
-0.325
-0.32
-0.34
-0.345
-0.33
-0.315
-0.34
-0.34
-0.345
-0.335
-0.31
-0.295
-0.305
-0.305
-0.285
-0.265
-0.24
-0.245
-0.255
-0.235
-0.235
-0.215
-0.19
-0.175
-0.175
-0.2
-0.19
-0.16
-0.165
-0.165
-0.17
-0.16
-0.15
-0.145
-0.13
-0.13
-0.145
-0.13
-0.125
-0.115
-0.1
-0.11
-0.125
-0.13
-0.12
-0.11
-0.1
-0.12
-0.13
-0.145
-0.15
-0.15
-0.135
-0.15
-0.165
-0.185
-0.18
-0.175
-0.17
-0.18
-0.195
-0.22
-0.235
-0.255
-0.245
-0.25
-0.255
-0.26
-0.27
-0.275
-0.255
-0.24
-0.245
-0.255
-0.255
-0.26
-0.26
-0.265
-0.28
-0.27
-0.255
-0.23
-0.2
-0.185
-0.195
-0.185
-0.165
-0.125
-0.1
-0.105
-0.105
-0.11
-0.05
0.035
0.13
0.19
0.265
0.3
0.38
0.465
0.575
0.63
0.7
0.765
0.88
0.985
1.09
1.165
1.18
1.165
1.17
1.15
1.155
1.135
1.07
1.005
0.925
0.85
0.765
0.64
0.485
0.34
0.21
0.14
0.09
0.075
0.035
0.015
-0.02
-0.02
-0.005
-0.005
0.05
0.125
0.215
0.255
0.215
0.055
-0.145
-0.345
-0.465
-0.505
-0.525
-0.54
-0.575
-0.605
-0.625
-0.615
-0.63
-0.65
-0.665
-0.69
-0.71
-0.71
-0.69
-0.69
-0.71
-0.72
-0.73
-0.715
-0.715
-0.73
-0.75
-0.755
-0.765
-0.76
-0.74
-0.75
-0.775
-0.775
-0.785
-0.765
-0.765
-0.775
-0.785
-0.79
-0.795
-0.78
-0.78
-0.8
-0.81
-0.82
-0.82
-0.81
-0.79
-0.8
-0.795
-0.805
-0.795
-0.785
-0.77
-0.765
-0.78
-0.79
-0.79
-0.755
-0.725
-0.69
-0.705
-0.725
-0.725
-0.69
-0.65
-0.645
-0.64
-0.64
-0.625
-0.595
-0.555
-0.545
-0.52
-0.495
-0.48
-0.455
-0.425
-0.425
-0.43
-0.425
-0.415
-0.385
-0.355
-0.35
-0.355
-0.35
-0.345
-0.325
-0.31
-0.29
-0.295
-0.32
-0.315
-0.305
-0.285
-0.295
-0.305
-0.315
-0.325
-0.295
-0.3
-0.29
-0.28
-0.285
-0.285
-0.29
-0.27
-0.285
-0.295
-0.3
-0.32
-0.29
-0.275
-0.295
-0.31
-0.325
-0.315
-0.32
-0.295
-0.3
-0.31
-0.325
-0.32
-0.315
-0.305
-0.32
-0.31
-0.295
-0.295
-0.27
-0.265
-0.26
-0.27
-0.26
-0.275
-0.255
-0.255
-0.25
-0.265
-0.27
-0.265
-0.27
-0.265
-0.28
-0.27
-0.285
-0.285
-0.265
-0.25
-0.255
-0.26
-0.28
-0.29
-0.265
-0.26
-0.265
-0.275
-0.28
-0.295
-0.295
-0.265
-0.265
-0.26
-0.285
-0.28
-0.28
-0.285
-0.295
-0.29
-0.3
-0.295
-0.275
-0.27
-0.275
-0.28
-0.295
-0.28
-0.27
-0.245
-0.265
-0.28
-0.29
-0.285
-0.25
-0.24
-0.255
-0.27
-0.275
-0.28
-0.265
-0.22
-0.22
-0.225
-0.24
-0.235
-0.23
-0.225
-0.23
-0.25
-0.27
-0.265
-0.245
-0.23
-0.245
-0.26
-0.28
-0.265
-0.265
-0.245
-0.245
-0.27
-0.27
-0.28
-0.28
-0.26
-0.27
-0.29
-0.28
-0.3
-0.28
-0.28
-0.26
-0.265
-0.26
-0.285
-0.295
-0.285
-0.27
-0.275
-0.275
-0.28
-0.25
-0.225
-0.225
-0.23
-0.255
-0.255
-0.26
-0.245
-0.235
-0.24
-0.245
-0.255
-0.245
-0.25
-0.245
-0.26
-0.26
-0.255
-0.255
-0.245
-0.25
-0.255
-0.27
-0.285
-0.26
-0.25
-0.26
-0.27
-0.275
-0.275
-0.255
-0.245
-0.255
-0.255
-0.255
-0.255
-0.24
-0.235
-0.26
-0.265
-0.28
-0.265
-0.255
-0.24
-0.25
-0.265
-0.255
-0.245
-0.24
-0.23
-0.24
-0.245
-0.25
-0.24
-0.23
-0.23
-0.235
-0.235
-0.245
-0.225
-0.205
-0.18
-0.18
-0.21
-0.22
-0.235
-0.215
-0.205
-0.2
-0.16
-0.11
-0.03
0.075
0.2
0.345
0.5
0.66
0.86
1.07
1.26
1.4
1.43
1.335
1.125
0.84
0.565
0.275
-0.02
-0.28
-0.39
-0.36
-0.31
-0.24
-0.22
-0.25
-0.265
-0.27
-0.275
-0.285
-0.3
-0.315
-0.32
-0.32
-0.305
-0.31
-0.315
-0.33
-0.335
-0.335
-0.315
-0.325
-0.32
-0.35
-0.35
-0.33
-0.32
-0.33
-0.34
-0.365
-0.365
-0.345
-0.32
-0.31
-0.315
-0.35
-0.35
-0.34
-0.325
-0.33
-0.34
-0.335
-0.335
-0.315
-0.305
-0.305
-0.315
-0.335
-0.35
-0.345
-0.325
-0.325
-0.345
-0.345
-0.335
-0.33
-0.32
-0.305
-0.31
-0.31
-0.305
-0.295
-0.275
-0.27
-0.27
-0.275
-0.265
-0.255
-0.235
-0.25
-0.245
-0.25
-0.23
-0.21
-0.19
-0.165
-0.155
-0.17
-0.175
-0.155
-0.13
-0.14
-0.16
-0.195
-0.17
-0.135
-0.12
-0.115
-0.135
-0.145
-0.125
-0.095
-0.075
-0.1
-0.125
-0.145
-0.135
-0.12
-0.095
-0.1
-0.13
-0.15
-0.145
-0.14
-0.12
-0.13
-0.155
-0.18
-0.185
-0.185
-0.17
-0.21
-0.215
-0.23
-0.225
-0.205
-0.2
-0.225
-0.245
-0.28
-0.285
-0.26
-0.24
-0.25
-0.25
-0.27
-0.265
-0.27
-0.255
