Lead II
-0.99
-0.965
-0.945
-0.925
-0.885
-0.865
-0.84
-0.815
-0.805
-0.805
-0.805
-0.815
-0.795
-0.79
-0.81
-0.815
-0.81
-0.825
-0.825
-0.835
-0.835
-0.835
-0.845
-0.865
-0.86
-0.865
-0.865
-0.87
-0.89
-0.9
-0.89
-0.91
-0.905
-0.895
-0.905
-0.92
-0.91
-0.895
-0.89
-0.885
-0.9
-0.9
-0.89
-0.87
-0.855
-0.855
-0.85
-0.85
-0.84
-0.815
-0.79
-0.78
-0.765
-0.755
-0.73
-0.715
-0.68
-0.665
-0.64
-0.62
-0.58
-0.56
-0.52
-0.495
-0.48
-0.46
-0.42
-0.38
-0.34
-0.315
-0.29
-0.26
-0.23
-0.195
-0.155
-0.13
-0.115
-0.095
-0.05
-0.015
0.01
0.03
0.035
0.05
0.075
0.095
0.11
0.125
0.13
0.125
0.13
0.14
0.145
0.145
0.14
0.13
0.115
0.11
0.11
0.1
0.085
0.07
0.065
0.045
0.035
0.015
0.005
-0.005
-0.01
-0.005
-0.015
-0.02
-0.025
-0.04
-0.05
-0.055
-0.07
-0.08
-0.09
-0.095
-0.105
-0.11
-0.12
-0.12
-0.14
-0.155
-0.145
-0.145
-0.14
-0.14
-0.145
-0.16
-0.155
-0.155
-0.155
-0.165
-0.18
-0.19
-0.175
-0.165
-0.14
-0.14
-0.15
-0.18
-0.195
-0.22
-0.23
-0.245
-0.275
-0.305
-0.33
-0.345
-0.35
-0.365
-0.365
-0.355
-0.365
-0.37
-0.36
-0.36
-0.37
-0.38
-0.385
-0.375
-0.355
-0.36
-0.37
-0.37
-0.365
-0.35
-0.345
-0.355
-0.36
-0.375
-0.36
-0.34
-0.33
-0.34
-0.335
-0.34
-0.335
-0.33
-0.31
-0.335
-0.35
-0.35
-0.33
-0.32
-0.31
-0.315
-0.31
-0.315
-0.305
-0.285
-0.285
-0.29
-0.3
-0.305
-0.29
-0.29
-0.295
-0.285
-0.255
-0.185
-0.03
0.215
0.51
0.81
1.07
1.31
1.5
1.625
1.775
1.975
2.17
2.325
2.415
2.435
2.425
2.35
2.175
1.975
1.82
1.695
1.515
1.3
1.16
1.07
0.99
0.915
0.83
0.715
0.525
0.225
-0.09
-0.385
-0.685
-0.96
-1.175
-1.32
-1.37
-1.38
-1.375
-1.37
-1.335
-1.31
-1.29
-1.265
-1.23
-1.17
-1.145
-1.105
-1.07
-1.035
-1.02
-1.005
-0.99
-0.965
-0.915
-0.895
-0.88
-0.87
-0.865
-0.865
-0.87
-0.85
-0.85
-0.875
-0.885
-0.89
-0.89
-0.885
-0.885
-0.9
-0.915
-0.93
-0.915
-0.925
-0.925
-0.935
-0.945
-0.95
-0.95
-0.95
-0.95
-0.955
-0.96
-0.97
-0.965
-0.96
-0.95
-0.965
-0.975
-0.985
-0.96
-0.955
-0.945
-0.94
-0.94
-0.935
-0.925
-0.915
-0.88
-0.885
-0.885
-0.865
-0.835
-0.805
-0.785
-0.77
-0.745
-0.725
-0.7
-0.67
-0.635
-0.605
-0.585
-0.57
-0.535
-0.485
-0.45
-0.425
-0.405
-0.375
-0.335
-0.3
-0.27
-0.25
-0.225
-0.205
-0.185
-0.145
-0.12
-0.105
-0.085
-0.07
-0.05
-0.025
-0.005
0.0
-0.005
0.005
0.015
0.045
0.045
0.03
0.03
0.015
0.025
0.015
0.035
0.01
-0.005
-0.01
0.0
0.005
0.005
-0.005
-0.015
-0.03
-0.04
-0.05
-0.055
-0.06
-0.085
-0.115
-0.12
-0.12
-0.12
-0.125
-0.14
-0.165
-0.155
-0.15
-0.15
-0.16
-0.165
-0.19
-0.2
-0.195
-0.205
-0.215
-0.24
-0.24
-0.23
-0.21
-0.2
-0.2
-0.23
-0.26
-0.29
-0.3
-0.305
-0.34
-0.375
-0.425
-0.42
-0.425
-0.42
-0.425
-0.445
-0.46
-0.44
-0.435
-0.44
-0.435
-0.45
-0.45
-0.455
-0.44
-0.42
-0.44
-0.435
-0.445
-0.435
-0.42
-0.41
-0.415
-0.42
-0.43
-0.425
-0.415
-0.41
-0.415
-0.415
-0.415
-0.41
-0.395
-0.39
-0.395
-0.4
-0.41
-0.385
-0.385
-0.37
-0.38
-0.39
-0.385
-0.38
-0.36
-0.35
-0.36
-0.365
-0.37
-0.37
-0.365
-0.36
-0.355
-0.345
-0.3
-0.185
0.0
0.265
0.545
0.815
1.07
1.275
1.43
1.585
1.79
2.03
2.24
2.395
2.49
2.5
2.495
2.385
2.23
2.11
2.005
1.835
1.62
1.455
1.34
1.25
1.16
1.07
0.905
0.605
0.265
-0.085
-0.42
-0.74
-1.04
-1.245
-1.355
-1.375
-1.365
-1.35
-1.335
-1.32
-1.3
-1.27
-1.22
-1.185
-1.145
-1.12
-1.085
-1.06
-1.03
-1.015
-0.995
-0.975
-0.94
-0.905
-0.89
-0.875
-0.87
-0.875
-0.88
-0.87
-0.865
-0.87
-0.87
-0.88
-0.9
-0.9
-0.905
-0.905
-0.915
-0.915
-0.935
-0.935
-0.94
-0.94
-0.95
-0.96
-0.96
-0.965
-0.965
-0.965
-0.975
-0.985
-0.985
-0.99
-0.975
-0.965
-0.98
-0.975
-0.975
-0.97
-0.955
-0.935
-0.935
-0.935
-0.935
-0.905
-0.88
-0.875
-0.855
-0.85
-0.84
-0.81
-0.77
-0.74
-0.73
-0.71
-0.695
-0.66
-0.63
-0.59
-0.57
-0.54
-0.525
-0.485
-0.45
-0.42
-0.385
-0.365
-0.345
-0.31
-0.28
-0.25
-0.22
-0.185
-0.175
-0.15
-0.11
-0.08
-0.065
-0.045
-0.035
-0.005
0.015
0.04
0.05
0.055
0.04
0.055
0.08
0.07
0.065
0.065
0.05
0.045
0.05
0.045
0.035
0.025
0.005
0.005
0.025
0.025
0.02
0.0
-0.02
-0.02
-0.035
-0.04
-0.055
-0.07
-0.095
-0.09
-0.095
-0.09
-0.1
-0.11
-0.125
-0.12
-0.12
-0.11
-0.11
-0.135
-0.16
-0.155
-0.165
-0.15
-0.155
-0.16
-0.15
-0.15
-0.16
-0.185
-0.205
-0.24
-0.265
-0.29
-0.305
-0.325
-0.345
-0.36
-0.38
-0.365
-0.365
-0.365
-0.365
-0.365
-0.37
-0.365
-0.34
-0.34
-0.34
-0.35
-0.355
-0.365
-0.335
-0.33
-0.33
-0.34
-0.345
-0.335
-0.32
-0.315
-0.315
-0.325
-0.325
-0.31
-0.3
-0.305
-0.315
-0.32
-0.31
-0.3
-0.285
-0.285
-0.27
-0.275
-0.285
-0.27
-0.26
-0.25
-0.25
-0.27
-0.29
-0.28
-0.275
-0.27
-0.25
-0.235
-0.145
0.045
0.305
0.605
0.88
1.135
1.37
1.535
1.705
1.935
2.19
2.41
2.555
2.645
2.68
2.66
2.535
2.39
2.295
2.18
2.005
1.82
1.65
1.525
1.4
1.285
1.135
0.88
0.52
0.16
-0.205
-0.565
-0.895
-1.13
-1.26
-1.325
-1.325
-1.3
-1.265
-1.245
-1.22
-1.21
-1.185
-1.13
-1.085
-1.02
-0.985
-0.96
-0.96
-0.925
-0.89
-0.84
-0.825
-0.8
-0.79
-0.765
-0.755
-0.735
-0.745
-0.755
-0.77
-0.755
-0.755
-0.76
-0.775
-0.795
-0.8
-0.795
-0.79
-0.795
-0.8
-0.815
-0.82
-0.835
-0.82
-0.815
-0.83
-0.835
-0.85
-0.845
-0.83
-0.825
-0.83
-0.84
-0.84
-0.83
-0.81
-0.81
-0.805
-0.81
-0.805
-0.79
-0.775
-0.76
-0.77
-0.74
-0.735
-0.71
-0.68
-0.66
-0.655
-0.63
-0.605
-0.59
-0.54
-0.51
-0.5
-0.485
-0.475
-0.425
-0.39
-0.345
-0.33
-0.315
-0.285
-0.24
-0.195
-0.18
-0.16
-0.13
-0.095
-0.055
-0.02
0.0
0.025
0.05
0.065
0.095
0.13
0.145
0.16
0.185
0.195
0.22
0.24
0.24
0.235
0.24
0.24
0.245
0.25
0.255
0.245
0.24
0.23
0.24
0.245
0.24
0.225
0.21
0.2
0.2
0.205
0.215
0.19
0.18
0.16
0.16
0.155
0.145
0.135
0.11
0.105
0.1
0.1
0.1
0.085
0.07
0.075
0.075
0.085
0.075
0.07
0.06
0.04
0.06
0.045
0.03
0.025
0.005
0.03
0.05
0.065
0.065
0.045
0.005
-0.03
-0.03
-0.04
-0.08
-0.1
-0.125
-0.145
-0.155
-0.15
-0.13
-0.13
-0.12
-0.17
-0.2
-0.205
-0.19
-0.165
-0.125
-0.085
-0.09
-0.105
-0.175
-0.17
-0.15
-0.125
-0.115
-0.14
-0.145
-0.155
-0.14
-0.135
-0.125
-0.125
-0.12
-0.12
-0.12
-0.085
-0.05
-0.035
-0.045
-0.05
-0.06
-0.05
-0.015
0.01
0.03
0.035
0.03
0.0
0.02
0.05
0.1
0.1
0.11
0.125
0.205
0.325
0.515
0.76
1.035
1.325
1.645
1.925
2.125
2.26
2.42
2.605
2.8
2.975
3.075
3.12
3.13
3.115
3.095
3.065
3.04
2.965
2.85
2.735
2.665
2.56
2.42
2.235
1.97
1.555
1.125
0.795
0.515
0.27
0.055
-0.065
-0.08
-0.02
0.04
0.095
0.135
0.16
0.2
0.27
0.375
0.46
0.52
0.565
0.635
0.665
0.695
0.73
0.775
0.835
0.88
0.91
0.925
0.965
0.98
1.035
1.055
1.02
0.96
0.875
0.89
0.95
0.985
0.99
1.0
1.0
0.985
0.97
0.95
0.96
0.97
0.975
0.95
0.875
0.805
0.79
0.84
0.905
0.91
0.88
0.84
0.825
0.845
0.875
0.895
0.895
0.87
0.855
0.855
0.885
0.9
0.9
0.905
0.915
0.94
0.955
0.955
0.965
0.97
0.995
1.03
1.045
1.055
1.07
1.095
1.135
1.15
1.165
1.19
1.23
1.28
1.32
1.34
1.35
1.33
1.325
1.345
1.38
1.42
1.45
1.48
1.495
1.52
1.545
1.565
1.575
1.585
1.585
1.61
1.63
1.64
1.645
1.64
1.605
1.605
1.6
1.62
1.625
1.6
1.57
1.58
1.58
1.575
1.565
1.56
1.565
1.57
1.575
1.54
1.52
1.5
1.485
1.49
1.48
1.44
1.4
1.35
1.335
1.355
1.385
1.375
1.36
1.355
1.34
1.325
1.315
1.295
1.29
1.27
1.26
1.26
1.26
1.26
1.25
1.225
1.215
1.225
1.23
1.21
1.2
1.185
1.15
1.11
1.065
1.04
1.035
1.025
0.985
0.965
0.965
0.96
0.95
0.935
0.945
0.965
0.97
0.98
0.97
0.965
0.975
1.0
1.005
1.02
1.01
1.0
0.995
1.025
1.06
1.075
1.08
1.075
1.075
1.08
1.09
1.105
1.125
1.125
1.12
1.135
1.13
1.14
1.145
1.165
1.16
1.19
1.19
1.185
1.18
1.18
1.215
1.22
1.215
1.205
1.205
1.205
1.2
1.19
1.205
1.225
1.305
1.435
1.64
1.885
2.125
2.315
2.45
2.53
2.575
2.645
2.72
2.745
2.765
2.755
2.745
2.76
2.76
2.765
2.745
2.725
2.7
2.675
2.615
2.565
2.455
2.305
2.035
1.625
1.215
0.87
0.55
0.265
0.09
0.025
0.04
0.055
0.05
0.08
0.105
0.125
0.165
0.215
0.235
0.285
0.32
0.355
0.375
0.395
0.425
0.45
0.465
0.505
0.525
0.53
0.515
0.51
0.505
0.495
0.5
0.495
0.495
0.47
0.445
0.445
0.435
0.43
0.415
0.395
0.355
0.365
0.345
0.355
0.325
0.3
0.29
0.29
0.3
0.27
0.26
0.245
0.245
0.23
0.225
0.215
0.21
0.19
0.19
0.2
0.205
0.2
0.21
0.2
0.2
0.21
0.235
0.24
0.245
0.24
0.25
0.28
0.31
0.33
0.34
0.35
0.36
0.375
0.41
0.45
0.46
0.465
0.495
0.52
0.535
0.555
0.585
0.605
0.615
0.645
0.675
0.705
0.715
0.745
0.76
0.78
0.785
0.815
0.825
0.85
0.86
0.885
0.89
0.895
0.9
0.895
0.895
0.915
0.92
0.935
0.93
0.91
0.9
0.905
0.91
0.905
0.9
0.895
0.885
0.9
0.89
0.875
0.875
0.86
0.825
0.815
0.815
0.815
0.8
0.785
0.785
0.77
0.785
0.775
0.77
0.745
0.74
0.735
0.74
0.725
0.7
0.68
0.67
0.675
0.685
0.69
0.69
0.685
0.665
0.66
0.635
0.61
0.59
0.575
0.54
0.5
0.485
0.47
0.455
0.425
0.42
0.425
0.415
0.405
0.4
0.39
0.38
0.395
0.395
0.39
0.385
0.37
0.375
0.37
0.37
0.36
0.355
0.345
0.345
0.36
0.36
0.36
0.355
0.34
0.345
0.35
0.355
0.355
0.35
0.335
0.325
0.335
0.36
0.365
0.355
0.335
0.325
0.33
0.335
0.35
0.35
0.345
0.33
0.34
0.34
0.31
0.285
0.26
0.235
0.25
0.285
0.35
0.46
0.65
0.87
1.12
1.335
1.51
1.635
1.735
1.87
2.02
2.115
2.16
2.17
2.145
2.16
2.165
2.18
2.175
2.165
2.15
2.135
2.115
2.075
2.02
1.95
1.825
1.59
1.23
0.845
0.465
0.045
-0.355
-0.68
-0.85
-0.905
-0.895
-0.89
-0.89
-0.885
-0.86
-0.84
-0.795
-0.745
-0.72
-0.685
-0.65
-0.62
-0.6
-0.58
-0.555
-0.52
-0.495
-0.45
-0.44
-0.445
-0.46
-0.465
-0.46
-0.46
-0.475
-0.485
-0.5
-0.52
-0.535
-0.535
-0.545
-0.555
-0.575
-0.585
-0.61
-0.6
-0.62
-0.64
-0.655
-0.665
-0.665
-0.66
-0.675
-0.69
-0.71
-0.715
-0.725
-0.72
-0.725
-0.735
-0.74
-0.75
-0.735
-0.725
-0.72
-0.73
-0.735
-0.73
-0.715
-0.695
-0.67
-0.665
-0.66
-0.645
-0.635
-0.605
-0.575
-0.555
-0.545
-0.52
-0.5
-0.465
-0.445
-0.43
-0.415
-0.39
-0.35
-0.325
-0.305
-0.275
-0.26
-0.23
-0.215
-0.175
-0.16
-0.15
-0.13
-0.1
-0.06
-0.04
-0.015
0.0
0.01
0.025
0.05
0.075
0.08
0.085
0.09
0.1
0.11
0.14
0.145
0.15
0.155
0.15
0.155
0.17
0.17
0.18
0.16
0.145
0.145
0.15
0.14
0.115
0.1
0.075
0.065
0.065
0.07
0.07
0.055
0.04
0.035
0.04
0.035
0.01
0.005
-0.005
-0.01
-0.015
-0.03
-0.055
-0.065
-0.07
-0.07
-0.06
-0.045
-0.065
-0.085
-0.11
-0.145
-0.16
-0.18
-0.2
-0.245
-0.27
-0.285
-0.28
-0.29
-0.3
-0.305
-0.33
-0.345
-0.345
-0.34
-0.35
-0.355
-0.36
-0.35
-0.33
-0.34
-0.355
-0.37
-0.385
-0.38
-0.375
-0.345
-0.33
-0.34
-0.355
-0.345
-0.355
-0.355
-0.35
-0.35
-0.36
-0.36
-0.36
-0.35
-0.36
-0.37
-0.37
-0.365
-0.355
-0.36
-0.36
-0.365
-0.375
-0.375
-0.365
-0.37
-0.385
-0.38
-0.395
-0.395
-0.39
-0.4
-0.42
-0.445
-0.45
-0.435
-0.38
-0.31
-0.16
0.025
0.25
0.485
0.705
0.885
1.015
1.12
1.265
1.465
1.645
1.76
1.815
1.825
1.845
1.865
1.88
1.87
1.865
1.855
1.81
1.775
1.725
1.665
1.595
1.51
1.425
1.295
1.085
0.74
0.385
0.05
-0.34
-0.765
-1.135
-1.35
-1.465
-1.505
-1.535
-1.52
-1.51
-1.5
-1.51
-1.495
-1.475
-1.43
-1.385
-1.35
-1.31
-1.28
-1.26
-1.25
-1.23
-1.21
-1.18
-1.16
-1.145
-1.11
-1.09
-1.08
-1.085
-1.1
-1.09
-1.09
-1.085
-1.09
-1.115
-1.14
-1.16
-1.165
-1.16
-1.145
-1.17
-1.18
-1.2
-1.21
-1.21
-1.205
-1.22
-1.24
-1.245
-1.255
-1.245
-1.25
-1.26
-1.285
-1.28
-1.285
-1.285
-1.28
-1.29
-1.29
-1.305
-1.3
-1.275
-1.28
-1.29
-1.295
-1.295
-1.27
-1.245
-1.225
-1.235
-1.24
-1.23
-1.205
-1.165
-1.155
-1.135
-1.115
-1.1
-1.055
-1.04
-1.02
-1.0
-0.995
-0.985
-0.945
-0.91
-0.88
-0.865
-0.855
-0.835
-0.8
-0.76
-0.725
-0.71
-0.705
-0.685
-0.63
-0.595
-0.585
-0.56
-0.55
-0.54
-0.52
-0.49
-0.445
-0.435
-0.435
-0.42
-0.4
-0.38
-0.375
-0.37
-0.37
-0.37
-0.34
-0.34
-0.33
-0.33
-0.335
-0.35
-0.34
-0.335
-0.325
-0.335
-0.335
-0.34
-0.345
-0.335
-0.33
-0.35
-0.36
-0.36
-0.35
-0.345
-0.36
-0.37
-0.4
-0.415
-0.41
-0.41
-0.425
-0.44
-0.445
-0.465
-0.455
-0.45
-0.46
-0.465
-0.48
-0.495
-0.465
-0.465
-0.47
-0.485
-0.51
-0.535
-0.515
-0.515
-0.52
-0.53
-0.525
-0.505
-0.485
-0.485
-0.485
-0.515
-0.545
-0.57
-0.59
-0.59
-0.62
-0.645
-0.68
-0.7
-0.705
-0.705
-0.71
-0.705
-0.715
-0.73
-0.71
-0.705
-0.71
-0.715
-0.73
-0.72
-0.71
-0.69
-0.685
-0.695
-0.72
-0.73
-0.71
-0.705
-0.695
-0.695
-0.695
-0.7
-0.68
-0.68
-0.67
-0.68
-0.69
-0.69
-0.69
-0.68
-0.69
-0.695
-0.705
-0.695
-0.69
-0.675
-0.665
-0.675
-0.7
-0.69
-0.67
-0.675
-0.66
-0.65
-0.67
-0.67
-0.66
-0.66
-0.685
-0.69
-0.7
-0.7
-0.715
-0.71
-0.685
-0.64
-0.54
-0.37
-0.17
0.045
0.24
0.43
0.62
0.735
0.86
1.035
1.235
1.45
1.605
1.71
1.795
1.855
1.885
1.875
1.845
1.83
1.83
1.81
1.745
1.66
1.55
1.485
1.4
1.305
1.19
1.0
0.685
0.34
0.035
-0.275
-0.61
-0.96
-1.3
-1.525
-1.62
-1.66
-1.665
-1.685
-1.7
-1.695
-1.685
-1.665
-1.66
-1.63
-1.6
-1.58
-1.55
-1.515
-1.485
-1.48
-1.475
-1.455
-1.42
-1.37
-1.35
-1.32
-1.315
-1.3
-1.28
-1.275
-1.265
-1.26
-1.285
-1.29
-1.29
-1.295
-1.31
-1.315
-1.33
-1.33
-1.335
-1.345
-1.365
-1.365
-1.38
-1.38
-1.38
-1.37
-1.37
-1.405
-1.415
-1.415
-1.415
-1.41
-1.42
-1.425
-1.435
-1.455
-1.44
-1.425
-1.43
-1.435
-1.445
-1.45
-1.43
-1.415
-1.425
-1.425
-1.435
-1.42
-1.41
-1.38
-1.365
-1.365
-1.365
-1.35
-1.34
-1.31
-1.285
-1.275
-1.265
-1.235
-1.2
-1.165
-1.15
-1.12
-1.11
-1.095
-1.06
-1.025
-0.99
-0.985
-0.975
-0.955
-0.9
-0.87
-0.855
-0.825
-0.8
-0.785
-0.75
-0.71
-0.685
-0.665
-0.65
-0.645
-0.6
-0.575
-0.57
-0.555
-0.54
-0.525
-0.5
-0.49
-0.49
-0.485
-0.475
-0.465
-0.44
-0.44
-0.445
-0.42
-0.43
-0.425
-0.415
-0.415
-0.4
-0.4
-0.42
-0.41
-0.415
-0.415
-0.42
-0.425
-0.445
-0.455
-0.46
-0.46
-0.47
-0.49
-0.5
-0.5
-0.49
-0.495
-0.495
-0.515
-0.52
-0.53
-0.52
-0.535
-0.55
-0.55
-0.59
-0.565
-0.565
-0.56
-0.545
-0.55
-0.55
-0.555
-0.56
-0.57
-0.595
-0.625
-0.65
-0.675
-0.7
-0.715
-0.735
-0.75
-0.765
-0.775
-0.755
-0.755
-0.765
-0.78
-0.8
-0.79
-0.78
-0.775
-0.78
-0.775
-0.77
-0.785
-0.765
-0.77
-0.755
-0.765
-0.775
-0.765
-0.775
-0.75
-0.755
-0.755
-0.755
-0.755
-0.765
-0.74
-0.745
-0.745
-0.75
-0.75
-0.74
-0.725
-0.725
-0.725
-0.725
-0.745
-0.715
-0.71
-0.7
-0.705
-0.705
-0.71
-0.705
-0.7
-0.715
-0.73
-0.745
-0.77
-0.76
-0.72
-0.655
-0.54
-0.36
-0.125
0.12
0.355
0.59
0.78
0.92
1.065
1.295
1.525
1.71
1.85
1.92
1.96
1.965
1.93
1.875
1.82
1.765
1.65
1.51
1.39
1.29
1.18
1.065
0.925
0.715
0.42
0.095
-0.27
-0.62
-0.995
-1.34
-1.585
-1.725
-1.785
-1.795
-1.8
-1.775
-1.74
-1.73
-1.715
-1.68
-1.64
-1.6
-1.56
-1.515
-1.49
-1.475
-1.455
-1.415
-1.365
-1.335
-1.32
-1.31
-1.305
-1.285
-1.255
-1.26
-1.265
-1.285
-1.3
-1.285
-1.26
-1.27
-1.29
-1.305
-1.31
-1.315
-1.31
-1.3
-1.32
-1.335
-1.345
-1.345
-1.34
-1.35
-1.35
-1.345
-1.35
-1.335
-1.32
-1.32
-1.33
-1.355
-1.355
-1.335
-1.315
-1.315
-1.315
-1.315
-1.305
-1.28
-1.27
-1.25
-1.25
-1.26
-1.235
-1.22
-1.18
-1.165
-1.16
-1.16
-1.115
-1.085
-1.065
-1.03
-1.01
-0.995
-0.98
-0.94
-0.895
-0.875
-0.845
-0.835
-0.8
-0.77
-0.725
-0.69
-0.67
-0.64
-0.625
-0.595
-0.55
-0.535
-0.525
-0.505
-0.475
-0.445
-0.42
-0.39
-0.39
-0.37
-0.37
-0.34
-0.305
-0.295
-0.295
-0.295
-0.295
-0.28
-0.27
-0.265
-0.27
-0.27
-0.285
-0.28
-0.265
-0.28
-0.29
-0.32
-0.315
-0.32
-0.315
-0.33
-0.335
-0.355
-0.355
-0.355
-0.35
-0.355
-0.37
-0.385
-0.41
-0.41
-0.415
-0.415
-0.445
-0.47
-0.48
-0.475
-0.47
-0.465
-0.48
-0.495
-0.5
-0.48
-0.48
-0.485
-0.495
-0.495
-0.51
-0.51
-0.505
-0.51
-0.525
-0.54
-0.545
-0.535
-0.505
-0.495
-0.505
-0.52
-0.53
-0.54
-0.555
-0.58
-0.62
-0.665
-0.695
-0.705
-0.7
-0.69
-0.705
-0.73
-0.73
-0.73
-0.73
-0.735
-0.74
-0.74
-0.745
-0.745
-0.735
-0.735
-0.74
-0.75
-0.755
-0.74
-0.735
-0.73
-0.715
-0.735
-0.74
-0.72
-0.73
-0.74
-0.74
-0.745
-0.735
-0.725
-0.72
-0.71
-0.715
-0.715
-0.73
-0.705
-0.7
-0.705
-0.695
-0.695
-0.69
-0.69
-0.69
-0.69
-0.685
-0.705
-0.705
-0.72
-0.71
-0.67
-0.605
-0.45
-0.225
0.065
0.345
0.655
0.91
1.08
1.25
1.45
1.675
1.86
1.975
2.025
2.05
2.025
1.93
1.845
1.785
1.655
1.465
1.305
1.155
0.99
0.795
0.555
0.22
-0.17
-0.525
-0.88
-1.245
-1.59
-1.825
-1.915
-1.9
-1.875
-1.86
-1.86
-1.835
-1.8
-1.745
-1.69
-1.65
-1.605
-1.575
-1.535
-1.5
-1.475
-1.45
-1.42
-1.385
-1.345
-1.31
-1.295
-1.29
-1.3
-1.31
-1.305
-1.29
-1.305
-1.32
-1.33
-1.345
-1.34
-1.34
-1.36
-1.375
-1.38
-1.385
-1.39
-1.385
-1.395
-1.41
-1.425
-1.43
-1.41
-1.405
-1.415
-1.43
-1.435
-1.44
-1.435
-1.435
-1.44
-1.43
-1.435
-1.425
-1.41
-1.39
-1.39
-1.38
-1.37
-1.365
-1.345
-1.325
-1.315
-1.3
-1.275
-1.27
-1.24
-1.2
-1.18
-1.165
-1.155
-1.135
-1.1
-1.06
-1.04
-1.015
-0.995
-0.98
-0.93
-0.905
-0.87
-0.845
-0.83
-0.8
-0.765
-0.73
-0.695
-0.67
-0.66
-0.635
-0.6
-0.56
-0.55
-0.53
-0.525
-0.5
-0.47
-0.44
-0.435
-0.43
-0.42
-0.4
-0.395
-0.37
-0.37
-0.375
-0.385
-0.39
-0.365
-0.36
-0.365
-0.38
-0.39
-0.395
-0.385
-0.38
-0.375
-0.375
-0.4
-0.41
-0.405
-0.41
-0.42
-0.435
-0.45
-0.475
-0.475
-0.485
-0.48
-0.5
-0.515
-0.515
-0.525
-0.515
-0.52
-0.54
-0.535
-0.545
-0.55
-0.555
-0.555
-0.57
-0.585
-0.585
-0.58
-0.565
-0.565
-0.56
-0.565
-0.57
-0.57
-0.59
-0.615
-0.66
-0.7
-0.725
-0.735
-0.755
-0.765
-0.79
-0.79
-0.795
-0.79
-0.79
-0.795
-0.795
-0.8
-0.81
-0.785
-0.78
-0.775
-0.785
-0.795
-0.79
-0.78
-0.77
-0.765
-0.78
-0.785
-0.785
-0.765
-0.775
-0.765
-0.765
-0.775
-0.775
-0.76
-0.77
-0.755
-0.755
-0.76
-0.755
-0.755
-0.745
-0.745
-0.735
-0.745
-0.725
-0.72
-0.705
-0.72
-0.725
-0.745
-0.755
-0.76
-0.75
-0.74
-0.71
-0.635
-0.5
-0.275
-0.015
0.265
0.55
0.795
0.97
1.135
1.325
1.58
1.815
1.985
2.09
2.155
2.17
2.13
2.035
1.98
1.9
1.775
1.615
1.475
1.325
1.165
1.0
0.765
0.42
0.06
-0.3
-0.665
-1.075
-1.47
-1.7
-1.79
-1.785
-1.8
-1.8
-1.775
-1.74
-1.725
-1.695
-1.66
-1.615
-1.57
-1.525
-1.49
-1.48
-1.48
-1.445
-1.4
-1.35
-1.33
-1.325
-1.315
-1.31
-1.285
-1.27
-1.265
-1.295
-1.305
-1.31
-1.305
-1.3
-1.31
-1.33
-1.34
-1.36
-1.35
-1.345
-1.355
-1.36
-1.375
-1.385
-1.375
-1.37
-1.38
-1.38
-1.38
-1.395
-1.39
-1.39
-1.38
-1.395
-1.4
-1.395
-1.38
-1.37
-1.345
-1.345
-1.335
-1.34
-1.32
-1.295
-1.28
-1.285
-1.26
-1.25
-1.22
-1.195
-1.17
-1.145
-1.135
-1.105
-1.08
-1.045
-1.0
-0.97
-0.965
-0.945
-0.9
-0.865
-0.835
-0.815
-0.785
-0.765
-0.715
-0.68
-0.655
-0.635
-0.625
-0.58
-0.565
-0.525
-0.505
-0.48
-0.48
-0.455
-0.43
-0.405
-0.4
-0.39
-0.385
-0.4
-0.365
-0.35
-0.35
-0.35
-0.36
-0.36
-0.35
-0.355
-0.36
-0.37
-0.38
-0.375
-0.375
-0.38
-0.39
-0.405
-0.42
-0.43
-0.44
-0.45
-0.47
-0.495
-0.515
-0.515
-0.51
-0.515
-0.51
-0.515
-0.53
-0.55
-0.545
-0.54
-0.545
-0.565
-0.575
-0.575
-0.58
-0.58
-0.59
-0.585
-0.6
-0.58
-0.57
-0.565
-0.57
-0.605
-0.625
-0.65
-0.65
-0.685
-0.705
-0.755
-0.775
-0.79
-0.795
-0.79
-0.795
-0.81
-0.8
-0.81
-0.815
-0.8
-0.8
-0.81
-0.81
-0.81
-0.805
-0.785
-0.81
-0.81
-0.82
-0.815
-0.8
-0.795
-0.79
-0.79
-0.805
-0.805
-0.79
-0.775
-0.77
-0.785
-0.79
-0.81
-0.795
-0.77
-0.765
-0.76
-0.78
-0.785
-0.765
-0.745
-0.745
-0.745
-0.75
-0.76
-0.745
-0.75
-0.745
-0.765
-0.78
-0.78
-0.75
-0.695
-0.6
-0.44
-0.22
0.035
0.295
0.535
0.73
0.855
0.975
1.175
1.415
1.64
1.775
1.82
1.815
1.71
1.57
1.46
1.345
1.145
0.96
0.805
0.68
0.575
0.49
0.315
0.03
-0.28
-0.6
-0.93
-1.23
-1.47
-1.6
-1.65
-1.645
-1.63
-1.63
-1.63
-1.625
-1.58
-1.545
-1.51
-1.48
-1.47
-1.46
-1.44
-1.41
-1.37
-1.335
-1.325
-1.295
-1.29
-1.275
-1.265
-1.26
-1.275
-1.275
-1.285
-1.285
-1.275
-1.28
-1.285
-1.3
-1.305
-1.305
-1.305
-1.31
-1.33
-1.33
-1.335
-1.33
-1.33
-1.325
-1.335
-1.35
-1.35
-1.345
-1.31
-1.32
-1.33
-1.335
-1.33
-1.31
-1.295
-1.29
-1.275
-1.27
-1.275
-1.24
-1.205
-1.185
-1.185
-1.165
-1.155
-1.11
-1.085
-1.05
-1.035
-1.03
-0.995
-0.965
-0.925
-0.89
-0.875
-0.845
-0.81
-0.785
-0.745
-0.725
-0.69
-0.68
-0.645
-0.605
-0.585
-0.56
-0.535
-0.53
-0.495
-0.47
-0.44
-0.425
-0.42
-0.4
-0.395
-0.37
-0.35
-0.355
-0.35
-0.345
-0.345
-0.325
-0.325
-0.33
-0.34
-0.35
-0.345
-0.345
-0.335
-0.345
-0.355
-0.355
-0.36
-0.355
-0.35
-0.36
-0.375
-0.39
-0.395
-0.405
-0.415
-0.415
-0.43
-0.435
-0.445
-0.44
-0.445
-0.445
-0.445
-0.44
-0.455
-0.455
-0.455
-0.46
-0.47
-0.475
-0.49
-0.485
-0.495
-0.49
-0.495
-0.495
-0.48
-0.465
-0.465
-0.48
-0.515
-0.55
-0.575
-0.58
-0.585
-0.62
-0.655
-0.69
-0.71
-0.705
-0.7
-0.695
-0.7
-0.715
-0.725
-0.725
-0.71
-0.695
-0.715
-0.71
-0.72
-0.71
-0.7
-0.7
-0.71
-0.695
-0.705
-0.695
-0.68
-0.67
-0.695
-0.71
-0.705
-0.7
-0.675
-0.68
-0.685
-0.68
-0.69
-0.675
-0.65
-0.65
-0.65
-0.655
-0.665
-0.665
-0.64
-0.635
-0.64
-0.645
-0.645
-0.625
-0.605
-0.62
-0.63
-0.645
-0.65
-0.655
-0.64
-0.64
-0.615
-0.555
-0.415
-0.195
0.055
0.3
0.515
0.72
0.86
1.03
1.235
1.48
1.725
1.91
2.045
2.155
2.225
2.21
2.11
2.025
1.95
1.81
1.625
1.47
1.315
1.2
1.115
1.05
0.9
0.64
0.32
-0.02
-0.405
-0.815
-1.13
-1.325
-1.425
-1.47
-1.48
-1.47
-1.46
-1.455
-1.445
-1.425
-1.395
-1.375
-1.325
-1.3
-1.305
-1.29
-1.265
-1.225
-1.17
-1.15
-1.155
-1.14
-1.135
-1.13
-1.11
-1.105
-1.13
-1.155
-1.17
-1.16
-1.15
-1.165
-1.17
-1.18
-1.185
-1.195
-1.185
-1.205
-1.205
-1.23
-1.225
-1.205
-1.21
-1.215
-1.225
-1.235
-1.24
-1.25
-1.235
-1.235
-1.24
-1.24
-1.24
-1.23
-1.215
-1.21
-1.205
-1.21
-1.18
-1.175
-1.15
-1.14
-1.135
-1.115
-1.11
-1.08
-1.065
-1.035
-1.025
-1.01
-0.98
-0.955
-0.93
-0.895
-0.88
-0.855
-0.83
-0.795
-0.75
-0.725
-0.715
-0.7
-0.665
-0.635
-0.59
-0.56
-0.545
-0.525
-0.5
-0.465
-0.425
-0.41
-0.39
-0.375
-0.36
-0.33
-0.31
-0.285
-0.27
-0.27
-0.25
-0.24
-0.21
-0.21
-0.215
-0.21
-0.215
-0.21
-0.19
-0.205
-0.205
-0.205
-0.215
-0.2
-0.19
-0.19
-0.195
-0.21
-0.205
-0.195
-0.2
-0.21
-0.225
-0.25
-0.26
-0.255
-0.27
-0.26
-0.28
-0.3
-0.305
-0.3
-0.29
-0.295
-0.3
-0.31
-0.335
-0.305
-0.295
-0.305
-0.335
-0.34
-0.345
-0.35
-0.335
-0.335
-0.34
-0.34
-0.33
-0.32
-0.32
-0.33
-0.365
-0.385
-0.415
-0.42
-0.435
-0.465
-0.495
-0.525
-0.545
-0.54
-0.53
-0.535
-0.54
-0.56
-0.565
-0.55
-0.535
-0.545
-0.54
-0.545
-0.55
-0.525
-0.52
-0.52
-0.525
-0.53
-0.54
-0.52
-0.51
-0.51
-0.51
-0.52
-0.515
-0.51
-0.495
-0.5
-0.5
-0.51
-0.505
-0.5
-0.485
-0.47
-0.485
-0.48
-0.48
-0.47
-0.46
-0.46
-0.46
-0.46
-0.46
-0.465
-0.445
-0.455
-0.47
-0.48
-0.495
-0.505
-0.5
-0.475
-0.41
-0.305
-0.12
0.12
0.37
0.6
0.835
1.025
1.19
1.365
1.615
1.865
2.095
2.285
2.4
2.505
2.555
2.53
2.45
2.39
2.35
2.23
2.07
1.915
1.775
1.665
1.565
1.455
1.345
1.115
0.805
0.485
0.16
-0.205
-0.585
-0.955
-1.225
-1.365
-1.42
-1.425
-1.425
-1.415
-1.405
-1.41
-1.39
-1.35
-1.31
-1.29
-1.265
-1.23
-1.215
-1.19
-1.16
-1.13
-1.1
-1.075
-1.065
-1.03
-1.015
-1.015
-1.015
-1.01
-1.015
-1.02
-1.02
-1.02
-1.04
-1.045
-1.065
-1.05
-1.065
-1.07
-1.085
-1.105
-1.095
-1.1
-1.1
-1.11
-1.12
-1.135
-1.145
-1.145
-1.13
-1.135
-1.14
-1.15
-1.15
-1.155
-1.135
-1.13
-1.145
-1.125
-1.13
-1.105
-1.09
-1.1
-1.085
-1.075
-1.06
-1.035
-1.01
-0.995
-0.975
-0.965
-0.94
-0.905
-0.875
-0.845
-0.83
-0.815
-0.785
-0.75
-0.72
-0.69
-0.67
-0.64
-0.605
-0.575
-0.54
-0.51
-0.5
-0.47
-0.445
-0.395
-0.355
-0.33
-0.315
-0.29
-0.28
-0.245
-0.215
-0.195
-0.18
-0.165
-0.16
-0.13
-0.12
-0.11
-0.1
-0.105
-0.095
-0.1
-0.09
-0.095
-0.1
-0.11
-0.135
-0.125
-0.12
-0.135
-0.145
-0.155
-0.175
-0.15
-0.155
-0.155
-0.17
-0.175
-0.19
-0.18
-0.18
-0.19
-0.215
-0.215
-0.245
-0.245
-0.255
-0.26
-0.26
-0.27
-0.28
-0.28
-0.26
-0.265
-0.265
-0.275
-0.3
-0.28
-0.275
-0.27
-0.28
-0.285
-0.29
-0.29
-0.275
-0.27
-0.28
-0.25
-0.255
-0.255
-0.255
-0.28
-0.305
-0.33
-0.35
-0.365
-0.38
-0.405
-0.435
-0.445
-0.455
-0.445
-0.435
-0.435
-0.44
-0.465
-0.465
-0.445
-0.43
-0.44
-0.445
-0.455
-0.455
