Lead II
-0.27
-0.27
-0.28
-0.275
-0.275
-0.255
-0.245
-0.235
-0.255
-0.275
-0.28
-0.28
-0.245
-0.245
-0.27
-0.285
-0.285
-0.255
-0.235
-0.245
-0.25
-0.275
-0.275
-0.255
-0.245
-0.255
-0.275
-0.29
-0.285
-0.28
-0.27
-0.265
-0.265
-0.275
-0.275
-0.255
-0.26
-0.24
-0.26
-0.28
-0.28
-0.26
-0.265
-0.265
-0.27
-0.27
-0.26
-0.255
-0.25
-0.255
-0.265
-0.27
-0.275
-0.265
-0.255
-0.245
-0.265
-0.255
-0.26
-0.245
-0.23
-0.24
-0.25
-0.255
-0.245
-0.235
-0.235
-0.245
-0.28
-0.275
-0.275
-0.255
-0.245
-0.23
-0.24
-0.26
-0.26
-0.23
-0.22
-0.22
-0.24
-0.255
-0.285
-0.26
-0.26
-0.255
-0.265
-0.275
-0.25
-0.24
-0.23
-0.23
-0.24
-0.26
-0.27
-0.25
-0.245
-0.26
-0.26
-0.275
-0.255
-0.225
-0.165
-0.165
-0.165
-0.18
-0.18
-0.145
-0.11
-0.095
-0.095
-0.11
-0.125
-0.115
-0.095
-0.095
-0.12
-0.14
-0.155
-0.17
-0.17
-0.19
-0.21
-0.24
-0.25
-0.24
-0.235
-0.235
-0.26
-0.27
-0.275
-0.25
-0.235
-0.225
-0.26
-0.28
-0.27
-0.26
-0.245
-0.26
-0.28
-0.28
-0.27
-0.26
-0.235
-0.235
-0.255
-0.275
-0.28
-0.235
-0.13
-0.01
0.14
0.365
0.63
0.96
1.285
1.57
1.735
1.65
1.28
0.805
0.265
-0.19
-0.41
-0.395
-0.335
-0.3
-0.295
-0.29
-0.27
-0.26
-0.265
-0.265
-0.25
-0.26
-0.26
-0.265
-0.28
-0.275
-0.27
-0.275
-0.29
-0.295
-0.28
-0.275
-0.255
-0.245
-0.255
-0.27
-0.27
-0.255
-0.24
-0.24
-0.23
-0.225
-0.215
-0.2
-0.18
-0.19
-0.2
-0.2
-0.21
-0.19
-0.165
-0.16
-0.155
-0.145
-0.14
-0.11
-0.105
-0.08
-0.065
-0.06
-0.05
-0.025
0.0
0.01
0.01
0.01
0.045
0.075
0.11
0.125
0.13
0.135
0.14
0.165
0.19
0.21
0.195
0.175
0.19
0.23
0.27
0.285
0.28
0.25
0.28
0.295
0.295
0.29
0.265
0.215
0.175
0.165
0.145
0.11
0.08
0.05
0.03
0.005
-0.015
-0.045
-0.065
-0.115
-0.12
-0.145
-0.135
-0.15
-0.185
-0.205
-0.225
-0.22
-0.22
-0.21
-0.21
-0.245
-0.245
-0.25
-0.23
-0.235
-0.255
-0.27
-0.28
-0.255
-0.245
-0.24
-0.25
-0.265
-0.255
-0.245
-0.22
-0.23
-0.245
-0.245
-0.255
-0.245
-0.225
-0.235
-0.26
-0.275
-0.275
-0.255
-0.24
-0.23
-0.245
-0.24
-0.25
-0.235
-0.22
-0.22
-0.22
-0.235
-0.245
-0.24
-0.24
-0.23
-0.24
-0.24
-0.21
-0.18
-0.16
-0.15
-0.155
-0.16
-0.14
-0.12
-0.105
-0.09
-0.08
-0.09
-0.085
-0.04
0.02
0.07
0.095
0.125
0.165
0.225
0.305
0.36
0.405
0.45
0.49
0.555
0.63
0.7
0.78
0.84
0.91
0.985
1.045
1.12
1.205
1.295
1.31
1.32
1.275
1.21
1.135
1.075
1.02
0.985
0.96
0.945
0.91
0.875
0.875
0.885
0.91
0.925
0.955
0.985
0.975
0.92
0.815
0.66
0.44
0.215
0.025
-0.135
-0.235
-0.32
-0.405
-0.465
-0.495
-0.505
-0.51
-0.555
-0.565
-0.605
-0.625
-0.62
-0.61
-0.61
-0.635
-0.65
-0.68
-0.65
-0.655
-0.665
-0.68
-0.7
-0.715
-0.71
-0.705
-0.71
-0.725
-0.75
-0.76
-0.745
-0.74
-0.75
-0.775
-0.795
-0.805
-0.795
-0.78
-0.785
-0.815
-0.835
-0.845
-0.825
-0.815
-0.82
-0.83
-0.845
-0.85
-0.855
-0.845
-0.835
-0.845
-0.865
-0.865
-0.86
-0.83
-0.84
-0.835
-0.855
-0.835
-0.815
-0.785
-0.74
-0.74
-0.72
-0.7
-0.67
-0.635
-0.6
-0.59
-0.575
-0.55
-0.505
-0.46
-0.43
-0.39
-0.38
-0.37
-0.32
-0.285
-0.27
-0.255
-0.25
-0.235
-0.24
-0.23
-0.23
-0.245
-0.265
-0.275
-0.27
-0.25
-0.245
-0.255
-0.27
-0.285
-0.275
-0.265
-0.26
-0.28
-0.305
-0.315
-0.315
-0.29
-0.295
-0.31
-0.315
-0.32
-0.3
-0.285
-0.285
-0.305
-0.31
-0.31
-0.305
-0.295
-0.295
-0.325
-0.33
-0.335
-0.33
-0.31
-0.31
-0.325
-0.325
-0.32
-0.31
-0.285
-0.305
-0.3
-0.31
-0.31
-0.305
-0.305
-0.315
-0.33
-0.34
-0.335
-0.31
-0.295
-0.29
-0.305
-0.3
-0.295
-0.285
-0.27
-0.28
-0.29
-0.295
-0.295
-0.28
-0.285
-0.29
-0.29
-0.3
-0.3
-0.275
-0.27
-0.255
-0.27
-0.28
-0.28
-0.26
-0.255
-0.255
-0.275
-0.3
-0.29
-0.29
-0.255
-0.25
-0.25
-0.265
-0.265
-0.235
-0.24
-0.225
-0.23
-0.22
-0.215
-0.19
-0.185
-0.195
-0.205
-0.195
-0.18
-0.14
-0.095
-0.085
-0.09
-0.095
-0.11
-0.11
-0.1
-0.11
-0.115
-0.145
-0.16
-0.17
-0.17
-0.185
-0.225
-0.23
-0.24
-0.24
-0.235
-0.23
-0.25
-0.265
-0.285
-0.275
-0.265
-0.26
-0.28
-0.29
-0.3
-0.29
-0.28
-0.285
-0.27
-0.28
-0.28
-0.265
-0.25
-0.255
-0.26
-0.265
-0.27
-0.265
-0.26
-0.255
-0.26
-0.275
-0.275
-0.265
-0.26
-0.26
-0.245
-0.18
-0.06
0.13
0.41
0.7
0.985
1.24
1.47
1.66
1.68
1.43
0.96
0.42
-0.055
-0.325
-0.39
-0.36
-0.335
-0.325
-0.335
-0.305
-0.25
-0.235
-0.25
-0.275
-0.29
-0.29
-0.275
-0.275
-0.28
-0.295
-0.295
-0.275
-0.26
-0.255
-0.265
-0.275
-0.28
-0.265
-0.255
-0.27
-0.28
-0.28
-0.285
-0.255
-0.24
-0.23
-0.24
-0.245
-0.245
-0.23
-0.205
-0.195
-0.22
-0.24
-0.235
-0.22
-0.195
-0.195
-0.21
-0.195
-0.19
-0.17
-0.15
-0.15
-0.155
-0.155
-0.15
-0.13
-0.1
-0.095
-0.11
-0.105
-0.105
-0.07
-0.035
-0.02
-0.015
-0.005
0.005
0.04
0.075
0.105
0.105
0.11
0.12
0.15
0.165
0.175
0.19
0.205
0.22
0.255
0.29
0.305
0.305
0.31
0.29
0.315
0.33
0.335
0.295
0.255
0.22
0.21
0.2
0.175
0.145
0.095
0.065
0.04
0.025
0.005
-0.04
-0.09
-0.125
-0.135
-0.165
-0.185
-0.215
-0.23
-0.245
-0.245
-0.23
-0.245
-0.25
-0.27
-0.27
-0.275
-0.27
-0.27
-0.275
-0.31
-0.33
-0.31
-0.295
-0.285
-0.295
-0.305
-0.31
-0.305
-0.29
-0.28
-0.3
-0.305
-0.31
-0.295
-0.285
-0.295
-0.31
-0.325
-0.33
-0.31
-0.285
-0.285
-0.285
-0.29
-0.305
-0.3
-0.295
-0.3
-0.3
-0.32
-0.34
-0.3
-0.275
-0.26
-0.275
-0.305
-0.3
-0.29
-0.27
-0.26
-0.275
-0.3
-0.31
-0.295
-0.275
-0.265
-0.27
-0.26
-0.25
-0.225
-0.205
-0.205
-0.215
-0.21
-0.205
-0.18
-0.14
-0.14
-0.155
-0.16
-0.16
-0.16
-0.145
-0.15
-0.165
-0.19
-0.215
-0.22
-0.21
-0.23
-0.25
-0.28
-0.3
-0.31
-0.32
-0.31
-0.325
-0.33
-0.335
-0.325
-0.315
-0.31
-0.315
-0.33
-0.345
-0.34
-0.335
-0.335
-0.345
-0.37
-0.365
-0.35
-0.34
-0.315
-0.33
-0.33
-0.34
-0.335
-0.315
-0.315
-0.325
-0.335
-0.355
-0.36
-0.335
-0.285
-0.19
-0.07
0.105
0.355
0.665
0.955
1.2
1.38
1.535
1.565
1.385
1.02
0.54
0.055
-0.295
-0.425
-0.415
-0.39
-0.385
-0.41
-0.43
-0.365
-0.32
-0.305
-0.33
-0.36
-0.375
-0.365
-0.355
-0.35
-0.35
-0.35
-0.35
-0.335
-0.33
-0.335
-0.33
-0.35
-0.35
-0.34
-0.34
-0.33
-0.345
-0.34
-0.33
-0.315
-0.305
-0.29
-0.29
-0.3
-0.3
-0.29
-0.27
-0.275
-0.285
-0.285
-0.295
-0.28
-0.265
-0.255
-0.255
-0.265
-0.26
-0.235
-0.21
-0.2
-0.22
-0.21
-0.2
-0.19
-0.155
-0.145
-0.155
-0.165
-0.165
-0.135
-0.11
-0.08
-0.075
-0.08
-0.055
-0.035
0.01
0.02
0.035
0.03
0.055
0.075
0.105
0.12
0.12
0.11
0.115
0.15
0.185
0.205
0.215
0.195
0.19
0.21
0.225
0.22
0.205
0.18
0.15
0.13
0.11
0.09
0.055
0.005
-0.02
-0.045
-0.05
-0.075
-0.1
-0.135
-0.165
-0.18
-0.195
-0.22
-0.235
-0.28
-0.295
-0.29
-0.28
-0.29
-0.295
-0.315
-0.31
-0.315
-0.3
-0.295
-0.305
-0.31
-0.335
-0.345
-0.36
-0.345
-0.355
-0.35
-0.365
-0.34
-0.33
-0.33
-0.335
-0.355
-0.345
-0.345
-0.335
-0.32
-0.34
-0.37
-0.375
-0.36
-0.345
-0.32
-0.32
-0.32
-0.33
-0.33
-0.315
-0.305
-0.315
-0.32
-0.325
-0.325
-0.32
-0.315
-0.335
-0.34
-0.34
-0.325
-0.305
-0.3
-0.31
-0.32
-0.335
-0.32
-0.3
-0.315
-0.32
-0.33
-0.345
-0.33
-0.315
-0.3
-0.305
-0.32
-0.335
-0.32
-0.295
-0.28
-0.27
-0.28
-0.255
-0.245
-0.23
-0.2
-0.175
-0.135
-0.085
0.0
0.095
0.205
0.275
0.355
0.415
0.475
0.535
0.585
0.63
0.665
0.74
0.83
0.905
0.96
1.01
1.09
1.18
1.22
1.2
1.135
1.045
0.97
0.925
0.89
0.87
0.825
0.82
0.79
0.77
0.815
0.86
0.885
0.9
0.95
0.97
0.955
0.885
0.775
0.605
0.37
0.105
-0.105
-0.275
-0.39
-0.475
-0.525
-0.56
-0.575
-0.575
-0.61
-0.63
-0.66
-0.685
-0.695
-0.695
-0.695
-0.71
-0.74
-0.74
-0.725
-0.715
-0.715
-0.72
-0.745
-0.76
-0.76
-0.765
-0.765
-0.785
-0.815
-0.82
-0.815
-0.805
-0.81
-0.815
-0.855
-0.86
-0.865
-0.835
-0.835
-0.85
-0.875
-0.88
-0.885
-0.87
-0.87
-0.875
-0.895
-0.895
-0.88
-0.86
-0.865
-0.875
-0.895
-0.9
-0.865
-0.83
-0.82
-0.835
-0.84
-0.855
-0.825
-0.775
-0.735
-0.725
-0.715
-0.69
-0.65
-0.6
-0.585
-0.565
-0.545
-0.52
-0.495
-0.465
-0.43
-0.42
-0.42
-0.395
-0.365
-0.335
-0.31
-0.305
-0.315
-0.32
-0.31
-0.305
-0.31
-0.34
-0.35
-0.37
-0.375
-0.365
-0.36
-0.375
-0.395
-0.4
-0.4
-0.365
-0.37
-0.38
-0.41
-0.425
-0.415
-0.395
-0.4
-0.4
-0.41
-0.42
-0.415
-0.4
-0.405
-0.41
-0.43
-0.435
-0.42
-0.405
-0.385
-0.395
-0.42
-0.42
-0.42
-0.425
-0.395
-0.41
-0.42
-0.42
-0.405
-0.38
-0.38
-0.385
-0.41
-0.415
-0.39
-0.39
-0.385
-0.395
-0.405
-0.405
-0.4
-0.375
-0.355
-0.355
-0.37
-0.375
-0.365
-0.355
-0.35
-0.365
-0.38
-0.385
-0.385
-0.375
-0.375
-0.365
-0.38
-0.365
-0.355
-0.345
-0.335
-0.345
-0.355
-0.37
-0.355
-0.35
-0.35
-0.36
-0.37
-0.38
-0.375
-0.38
-0.34
-0.345
-0.36
-0.37
-0.365
-0.33
-0.325
-0.335
-0.34
-0.365
-0.38
-0.355
-0.35
-0.36
-0.36
-0.375
-0.35
-0.345
-0.33
-0.335
-0.35
-0.345
-0.345
-0.325
-0.33
-0.35
-0.36
-0.365
-0.355
-0.32
-0.315
-0.305
-0.31
-0.31
-0.32
-0.28
-0.25
-0.24
-0.24
-0.24
-0.245
-0.205
-0.175
-0.17
-0.18
-0.195
-0.185
-0.18
-0.195
-0.215
-0.245
-0.27
-0.29
-0.29
-0.3
-0.32
-0.34
-0.34
-0.34
-0.315
-0.305
-0.32
-0.34
-0.35
-0.34
-0.325
-0.315
-0.335
-0.35
-0.355
-0.33
-0.32
-0.32
-0.325
-0.33
-0.33
-0.315
-0.295
-0.29
-0.295
-0.32
-0.325
-0.335
-0.335
-0.295
-0.21
-0.065
0.14
0.415
0.755
1.075
1.36
1.61
1.7
1.535
1.095
0.535
-0.055
-0.465
-0.565
-0.475
-0.375
-0.35
-0.365
-0.355
-0.305
-0.285
-0.295
-0.305
-0.31
-0.33
-0.335
-0.335
-0.315
-0.31
-0.315
-0.32
-0.31
-0.315
-0.295
-0.28
-0.295
-0.31
-0.315
-0.305
-0.285
-0.275
-0.275
-0.31
-0.3
-0.28
-0.265
-0.255
-0.255
-0.27
-0.27
-0.25
-0.245
-0.235
-0.24
-0.245
-0.245
-0.24
-0.215
-0.2
-0.19
-0.185
-0.19
-0.16
-0.155
-0.12
-0.115
-0.13
-0.125
-0.095
-0.075
-0.045
-0.035
-0.035
-0.025
0.02
0.05
0.08
0.08
0.1
0.11
0.145
0.175
0.2
0.185
0.19
0.195
0.22
0.255
0.29
0.28
0.265
0.27
0.28
0.295
0.295
0.25
0.22
0.17
0.155
0.125
0.1
0.06
0.02
-0.02
-0.04
-0.05
-0.075
-0.1
-0.145
-0.165
-0.2
-0.195
-0.225
-0.245
-0.29
-0.3
-0.305
-0.29
-0.29
-0.31
-0.31
-0.33
-0.31
-0.31
-0.31
-0.31
-0.335
-0.34
-0.345
-0.335
-0.34
-0.345
-0.36
-0.37
-0.35
-0.34
-0.32
-0.325
-0.34
-0.34
-0.33
-0.325
-0.32
-0.345
-0.37
-0.37
-0.355
-0.33
-0.325
-0.32
-0.34
-0.355
-0.345
-0.325
-0.33
-0.32
-0.34
-0.355
-0.35
-0.34
-0.335
-0.345
-0.345
-0.345
-0.33
-0.305
-0.31
-0.32
-0.33
-0.345
-0.335
-0.325
-0.305
-0.31
-0.31
-0.3
-0.29
-0.255
-0.24
-0.25
-0.235
-0.235
-0.22
-0.185
-0.17
-0.185
-0.19
-0.195
-0.21
-0.205
-0.23
-0.25
-0.285
-0.31
-0.295
-0.295
-0.3
-0.32
-0.335
-0.35
-0.345
-0.33
-0.34
-0.36
-0.395
-0.405
-0.405
-0.375
-0.36
-0.365
-0.38
-0.39
-0.385
-0.365
-0.37
-0.37
-0.375
-0.385
-0.385
-0.37
-0.375
-0.38
-0.395
-0.4
-0.375
-0.365
-0.375
-0.375
-0.375
-0.31
-0.165
0.05
0.305
0.6
0.885
1.17
1.435
1.655
1.735
1.55
1.175
0.71
0.27
-0.125
-0.34
-0.4
-0.405
-0.405
-0.425
-0.405
-0.39
-0.36
-0.365
-0.39
-0.39
-0.38
-0.37
-0.385
-0.4
-0.405
-0.38
-0.375
-0.375
-0.38
-0.405
-0.42
-0.41
-0.385
-0.365
-0.375
-0.38
-0.395
-0.39
-0.355
-0.34
-0.35
-0.365
-0.365
-0.35
-0.345
-0.325
-0.34
-0.355
-0.335
-0.32
-0.305
-0.285
-0.285
-0.3
-0.3
-0.28
-0.265
-0.245
-0.27
-0.275
-0.27
-0.25
-0.23
-0.19
-0.185
-0.18
-0.17
-0.145
-0.115
-0.095
-0.08
-0.08
-0.085
-0.055
-0.01
0.015
0.02
0.015
0.05
0.08
0.1
0.13
0.115
0.115
0.115
0.12
0.135
0.115
0.08
0.06
0.03
0.01
0.015
-0.02
-0.06
-0.105
-0.135
-0.16
-0.175
-0.22
-0.25
-0.295
-0.31
-0.31
-0.305
-0.32
-0.325
-0.34
-0.36
-0.35
-0.34
-0.355
-0.365
-0.375
-0.38
-0.375
-0.365
-0.37
-0.375
-0.38
-0.385
-0.375
-0.37
-0.375
-0.37
-0.4
-0.395
-0.395
-0.385
-0.38
-0.38
-0.405
-0.41
-0.385
-0.35
-0.34
-0.345
-0.36
-0.375
-0.37
-0.34
-0.34
-0.34
-0.365
-0.385
-0.37
-0.345
-0.335
-0.35
-0.35
-0.35
-0.34
-0.305
-0.285
-0.29
-0.305
-0.315
-0.3
-0.245
-0.185
-0.155
-0.115
-0.05
0.02
0.135
0.23
0.29
0.36
0.42
0.52
0.61
0.685
0.77
0.855
0.935
1.015
1.115
1.19
1.245
1.255
1.22
1.165
1.115
1.065
0.995
0.935
0.895
0.895
0.91
0.895
0.88
0.89
0.905
0.955
1.005
1.055
1.05
0.975
0.845
0.69
0.485
0.25
0.02
-0.18
-0.33
-0.405
-0.46
-0.505
-0.525
-0.56
-0.585
-0.615
-0.63
-0.64
-0.67
-0.695
-0.71
-0.695
-0.69
-0.7
-0.72
-0.74
-0.755
-0.74
-0.74
-0.745
-0.755
-0.785
-0.785
-0.785
-0.775
-0.785
-0.805
-0.82
-0.83
-0.82
-0.805
-0.82
-0.845
-0.87
-0.885
-0.88
-0.87
-0.87
-0.885
-0.89
-0.905
-0.895
-0.885
-0.875
-0.885
-0.905
-0.91
-0.91
-0.88
-0.88
-0.89
-0.91
-0.885
-0.845
-0.82
-0.81
-0.79
-0.79
-0.765
-0.735
-0.7
-0.665
-0.645
-0.625
-0.625
-0.57
-0.53
-0.49
-0.475
-0.455
-0.425
-0.385
-0.355
-0.335
-0.325
-0.325
-0.33
-0.31
-0.285
-0.29
-0.3
-0.32
-0.33
-0.32
-0.305
-0.305
-0.315
-0.335
-0.34
-0.335
-0.315
-0.32
-0.335
-0.355
-0.37
-0.36
-0.34
-0.35
-0.355
-0.375
-0.38
-0.375
-0.355
-0.355
-0.35
-0.365
-0.375
-0.36
-0.345
-0.335
-0.355
-0.38
-0.385
-0.375
-0.35
-0.35
-0.34
-0.35
-0.35
-0.345
-0.33
-0.315
-0.315
-0.34
-0.34
-0.33
-0.32
-0.305
-0.31
-0.32
-0.305
-0.295
-0.255
-0.245
-0.24
-0.245
-0.215
-0.155
-0.1
-0.03
-0.01
0.05
0.11
0.195
0.285
0.37
0.44
0.49
0.57
0.635
0.71
0.8
0.855
0.9
0.965
1.06
1.16
1.21
1.175
1.105
1.015
0.965
0.91
0.87
0.81
0.79
0.79
0.78
0.805
0.82
0.855
0.9
0.965
1.03
1.04
0.975
0.835
0.65
0.395
0.175
-0.04
-0.205
-0.32
-0.395
-0.46
-0.485
-0.49
-0.505
-0.525
-0.54
-0.57
-0.575
-0.58
-0.585
-0.585
-0.615
-0.625
-0.635
-0.625
-0.645
-0.65
-0.665
-0.665
-0.66
-0.65
-0.655
-0.67
-0.695
-0.715
-0.7
-0.705
-0.69
-0.72
-0.74
-0.76
-0.755
-0.74
-0.735
-0.73
-0.75
-0.765
-0.765
-0.755
-0.75
-0.755
-0.775
-0.775
-0.785
-0.77
-0.76
-0.78
-0.785
-0.775
-0.755
-0.725
-0.7
-0.685
-0.68
-0.675
-0.645
-0.605
-0.58
-0.555
-0.54
-0.51
-0.475
-0.405
-0.36
-0.33
-0.315
-0.29
-0.255
-0.24
-0.21
-0.22
-0.23
-0.25
-0.235
-0.235
-0.23
-0.225
-0.24
-0.245
-0.24
-0.235
-0.25
-0.27
-0.3
-0.315
-0.33
-0.325
-0.34
-0.365
-0.39
-0.41
-0.395
-0.38
-0.38
-0.375
-0.405
-0.41
-0.405
-0.395
-0.39
-0.41
-0.425
-0.435
-0.435
-0.425
-0.415
-0.405
-0.42
-0.415
-0.41
-0.385
-0.375
-0.385
-0.4
-0.41
-0.4
-0.39
-0.385
-0.405
-0.41
-0.405
-0.385
-0.36
-0.345
-0.36
-0.38
-0.39
-0.36
-0.285
-0.18
-0.045
0.145
0.405
0.71
1.01
1.245
1.365
1.28
0.965
0.505
-0.005
-0.405
-0.54
-0.515
-0.455
-0.43
-0.4
-0.365
-0.34
-0.325
-0.33
-0.33
-0.305
-0.31
-0.31
-0.335
-0.34
-0.33
-0.32
-0.31
-0.32
-0.33
-0.345
-0.33
-0.32
-0.31
-0.325
-0.335
-0.33
-0.305
-0.295
-0.285
-0.29
-0.295
-0.315
-0.29
-0.265
-0.27
-0.275
-0.285
-0.295
-0.275
-0.25
-0.225
-0.23
-0.25
-0.24
-0.225
-0.2
-0.195
-0.185
-0.18
-0.195
-0.185
-0.15
-0.135
-0.135
-0.13
-0.125
-0.09
-0.075
-0.06
-0.04
-0.055
-0.04
-0.005
0.005
0.03
0.02
0.015
0.01
0.05
0.09
0.095
0.115
0.115
0.105
0.13
0.145
0.16
0.15
0.115
0.09
0.075
0.08
0.055
0.03
0.0
-0.03
-0.05
-0.06
-0.075
-0.115
-0.155
-0.19
-0.195
-0.195
-0.21
-0.24
-0.285
-0.305
-0.31
-0.31
-0.305
-0.31
-0.33
-0.345
-0.34
-0.315
-0.33
-0.33
-0.35
-0.36
-0.34
-0.34
-0.335
-0.34
-0.355
-0.345
-0.34
-0.335
-0.32
-0.31
-0.33
-0.345
-0.335
-0.325
-0.345
-0.355
-0.375
-0.385
-0.365
-0.34
-0.34
-0.335
-0.36
-0.365
-0.345
-0.33
-0.345
-0.36
-0.37
-0.38
-0.385
-0.36
-0.365
-0.36
-0.375
-0.365
-0.365
-0.36
-0.35
-0.345
-0.36
-0.365
-0.37
-0.355
-0.365
-0.38
-0.4
-0.395
-0.375
-0.34
-0.34
-0.335
-0.345
-0.35
-0.33
-0.33
-0.315
-0.31
-0.335
-0.35
-0.34
-0.325
-0.29
-0.27
-0.27
-0.265
-0.255
-0.245
-0.24
-0.255
-0.27
-0.31
-0.295
-0.295
-0.285
-0.29
-0.33
-0.33
-0.35
-0.34
-0.34
-0.345
-0.37
-0.38
-0.39
-0.4
-0.38
-0.395
-0.42
-0.42
-0.42
-0.4
-0.375
-0.385
-0.39
-0.39
-0.395
-0.375
-0.385
-0.385
-0.41
-0.43
-0.415
-0.39
-0.37
-0.375
-0.38
-0.395
-0.385
-0.36
-0.375
-0.39
-0.42
-0.395
-0.27
-0.09
0.14
0.46
0.795
1.14
1.425
1.615
1.565
1.14
0.5
-0.14
-0.58
-0.605
-0.495
-0.42
-0.41
-0.385
-0.365
-0.34
-0.34
-0.355
-0.38
-0.385
-0.385
-0.37
-0.37
-0.37
-0.37
-0.375
-0.355
-0.34
-0.345
-0.335
-0.335
-0.35
-0.34
-0.35
-0.325
-0.325
-0.345
-0.345
-0.335
-0.31
-0.29
-0.295
-0.3
-0.3
-0.295
-0.29
-0.26
-0.275
-0.285
-0.28
-0.27
-0.225
-0.205
-0.195
-0.2
-0.205
-0.19
-0.165
-0.135
-0.13
-0.13
-0.125
-0.11
-0.085
-0.06
-0.035
-0.025
-0.02
0.005
0.045
0.06
0.07
0.065
0.06
0.095
0.1
0.115
0.12
0.1
0.1
0.115
0.13
0.13
0.125
0.12
0.08
0.075
0.07
0.055
0.0
-0.05
-0.095
-0.12
-0.135
-0.145
-0.2
-0.225
-0.24
-0.26
-0.255
-0.27
-0.29
-0.31
-0.34
-0.35
-0.325
-0.335
-0.35
-0.37
-0.375
-0.36
-0.34
-0.34
-0.35
-0.355
-0.365
-0.355
-0.34
-0.36
-0.355
-0.38
-0.385
-0.375
-0.36
-0.355
-0.355
-0.365
-0.36
-0.345
-0.335
-0.33
-0.335
-0.36
-0.36
-0.35
-0.335
-0.34
-0.35
-0.345
-0.35
-0.35
-0.32
-0.31
-0.33
-0.335
-0.34
-0.345
-0.325
-0.32
-0.325
-0.335
-0.355
-0.34
-0.35
-0.325
-0.34
-0.34
-0.34
-0.325
-0.3
-0.3
-0.3
-0.315
-0.315
-0.285
-0.27
-0.26
-0.255
-0.25
-0.23
-0.16
-0.08
0.02
0.09
0.155
0.215
0.29
0.38
0.435
0.47
0.525
0.59
0.635
0.71
0.795
0.89
0.95
1.015
1.11
1.22
1.325
1.36
1.34
1.315
1.26
1.205
1.14
1.075
1.01
0.955
0.935
0.945
0.91
0.9
0.9
0.91
0.945
0.995
1.045
1.07
1.02
0.925
0.78
0.605
0.355
0.075
-0.17
-0.315
-0.415
-0.48
-0.535
-0.575
-0.63
-0.66
-0.68
-0.675
-0.705
-0.735
-0.755
-0.77
-0.77
-0.77
-0.755
-0.77
-0.795
-0.82
-0.805
-0.795
-0.81
-0.825
-0.85
-0.87
-0.865
-0.865
-0.855
-0.88
-0.895
-0.895
-0.905
-0.895
-0.895
-0.905
-0.925
-0.945
-0.95
-0.945
-0.945
-0.955
-0.985
-0.985
-0.97
-0.955
-0.975
-0.97
-0.98
-0.985
-0.995
-0.965
-0.975
-0.97
-0.98
-0.97
-0.965
-0.93
-0.91
-0.91
-0.895
-0.875
-0.845
-0.815
-0.785
-0.76
-0.74
-0.725
-0.695
-0.655
-0.625
-0.605
-0.575
-0.55
-0.49
-0.445
-0.415
-0.4
-0.395
-0.385
-0.375
-0.36
-0.365
-0.36
-0.395
-0.405
-0.395
-0.39
-0.38
-0.385
-0.4
-0.42
-0.425
-0.41
-0.395
-0.395
-0.41
-0.425
-0.42
-0.415
-0.42
-0.41
-0.435
-0.435
-0.43
-0.42
-0.415
-0.415
-0.425
-0.43
-0.445
-0.425
-0.415
-0.425
-0.435
-0.455
-0.445
-0.42
-0.415
-0.415
-0.42
-0.435
-0.425
-0.41
-0.4
-0.395
-0.425
-0.415
-0.415
-0.405
-0.405
-0.415
-0.425
-0.43
-0.41
-0.4
-0.4
-0.385
-0.41
-0.405
-0.39
-0.375
-0.38
-0.39
-0.4
-0.415
-0.41
-0.395
-0.4
-0.385
-0.39
-0.385
-0.375
-0.36
-0.355
-0.365
-0.39
-0.395
-0.395
-0.37
-0.375
-0.385
-0.39
-0.39
-0.375
-0.37
-0.355
-0.355
-0.37
-0.375
-0.38
-0.37
-0.355
-0.365
-0.385
-0.41
-0.39
-0.385
-0.365
-0.38
-0.38
-0.375
-0.365
-0.355
-0.36
-0.355
-0.37
-0.38
-0.38
-0.37
-0.375
-0.38
-0.385
-0.385
-0.375
-0.365
-0.36
-0.355
-0.365
-0.37
-0.37
-0.35
-0.34
-0.365
-0.375
-0.38
-0.38
-0.355
-0.35
-0.33
-0.34
-0.335
-0.325
-0.31
-0.285
-0.28
-0.295
-0.29
-0.275
-0.25
-0.25
-0.255
-0.255
-0.265
-0.24
-0.24
-0.235
-0.245
-0.265
-0.31
-0.285
-0.28
-0.275
-0.3
-0.315
-0.33
-0.34
-0.335
-0.355
-0.375
-0.375
-0.375
-0.365
-0.375
-0.375
-0.39
-0.39
-0.395
-0.375
-0.38
-0.38
-0.385
-0.395
-0.385
-0.38
-0.365
-0.355
-0.355
-0.365
-0.375
-0.36
-0.345
-0.345
-0.355
-0.36
-0.37
-0.37
-0.36
-0.36
-0.355
-0.37
-0.37
-0.35
-0.275
-0.17
-0.03
0.16
0.425
0.695
0.995
1.255
1.455
1.595
1.545
1.29
0.845
0.365
-0.095
-0.405
-0.51
-0.48
-0.43
-0.405
-0.43
-0.425
-0.39
-0.355
-0.355
-0.37
-0.39
-0.405
-0.405
-0.395
-0.38
-0.37
-0.365
-0.38
-0.39
-0.4
-0.36
-0.375
-0.375
-0.39
-0.395
-0.39
-0.37
-0.355
-0.355
-0.37
-0.37
-0.355
-0.335
-0.325
-0.32
-0.355
-0.36
-0.36
-0.325
-0.31
-0.33
-0.335
-0.33
-0.325
-0.295
-0.285
-0.275
-0.285
-0.29
-0.285
-0.24
-0.225
-0.21
-0.22
-0.24
-0.22
-0.2
-0.17
-0.18
-0.18
-0.16
-0.145
-0.115
-0.095
-0.07
-0.07
-0.065
-0.05
-0.01
0.02
0.025
0.015
0.025
0.045
0.08
0.105
0.13
0.14
0.135
0.15
0.175
0.205
0.22
0.215
0.215
0.21
0.23
0.23
0.225
0.185
0.16
0.145
0.115
0.11
0.085
0.065
0.025
-0.005
-0.02
-0.05
-0.085
-0.13
-0.175
-0.2
-0.195
-0.215
-0.245
-0.26
-0.27
-0.28
-0.28
-0.275
-0.285
-0.32
-0.32
-0.325
-0.325
-0.33
-0.345
-0.365
-0.355
-0.355
-0.34
-0.33
-0.33
-0.355
-0.375
-0.345
-0.345
-0.335
-0.345
-0.355
-0.36
-0.355
-0.355
-0.355
-0.35
-0.37
-0.37
-0.345
-0.33
-0.33
-0.34
-0.35
-0.355
-0.34
-0.34
-0.325
-0.335
-0.355
-0.36
-0.355
-0.345
-0.335
-0.345
-0.345
-0.345
-0.345
-0.325
-0.325
-0.325
-0.345
-0.355
-0.35
-0.33
-0.335
-0.35
-0.36
-0.37
-0.355
-0.34
-0.335
-0.355
-0.36
-0.355
-0.35
-0.33
-0.35
-0.355
-0.375
-0.375
-0.365
-0.34
-0.32
-0.33
-0.325
-0.33
-0.32
-0.305
-0.275
-0.27
-0.27
-0.255
-0.23
-0.18
-0.115
-0.065
-0.03
0.035
0.11
0.195
0.275
0.325
0.37
0.415
0.46
0.525
0.585
0.63
0.66
0.705
0.775
0.855
0.905
0.955
1.02
1.1
1.175
1.215
1.2
1.17
1.085
1.01
0.955
0.925
0.875
0.84
0.815
0.815
0.79
0.805
0.83
0.865
0.905
0.935
0.985
1.03
1.03
0.95
0.835
0.69
0.5
0.25
-0.005
-0.235
-0.38
-0.46
-0.505
-0.54
-0.57
-0.595
-0.625
-0.65
-0.675
-0.67
-0.68
-0.7
-0.735
-0.76
-0.76
-0.76
-0.755
-0.775
-0.78
-0.795
-0.775
-0.775
-0.77
-0.785
-0.815
-0.825
-0.82
-0.825
-0.83
-0.845
-0.87
-0.885
-0.865
-0.855
-0.845
-0.85
-0.865
-0.885
-0.885
-0.87
-0.875
-0.89
-0.92
-0.915
-0.915
-0.9
-0.89
-0.91
-0.915
-0.915
-0.91
-0.895
-0.895
-0.9
-0.9
-0.91
-0.895
-0.875
-0.86
-0.87
-0.88
-0.895
-0.87
-0.855
-0.825
-0.815
-0.81
-0.79
-0.765
-0.725
-0.68
-0.66
-0.645
-0.61
-0.595
-0.57
-0.525
-0.505
-0.48
-0.46
-0.44
-0.4
-0.375
-0.37
-0.365
-0.38
-0.37
-0.36
-0.35
-0.35
-0.38
-0.4
-0.415
-0.405
-0.39
-0.4
-0.415
-0.42
-0.425
-0.415
-0.425
-0.41
-0.435
-0.445
-0.445
-0.435
-0.425
-0.435
-0.46
-0.46
-0.47
-0.455
-0.445
-0.445
-0.445
-0.455
-0.45
-0.44
-0.445
-0.435
-0.465
-0.48
-0.48
-0.45
-0.455
-0.455
-0.47
-0.465
-0.46
-0.435
-0.43
-0.435
-0.455
-0.46
-0.45
-0.425
-0.425
-0.43
-0.455
-0.475
-0.465
-0.45
-0.45
-0.44
-0.445
-0.46
-0.455
-0.43
-0.425
-0.42
-0.445
-0.45
-0.44
-0.42
-0.42
-0.42
-0.435
-0.445
-0.43
-0.415
-0.4
-0.405
-0.425
-0.43
-0.42
-0.405
-0.39
-0.4
-0.42
-0.435
-0.435
-0.41
-0.405
-0.415
-0.44
-0.43
-0.425
-0.39
-0.375
-0.38
-0.4
-0.41
-0.41
-0.41
-0.385
-0.4
-0.415
-0.42
-0.41
-0.395
-0.37
-0.37
-0.4
-0.405
-0.405
-0.39
-0.385
-0.37
-0.395
-0.41
-0.405
-0.405
-0.38
-0.37
-0.39
-0.4
-0.385
-0.385
-0.375
-0.36
-0.385
-0.4
-0.39
-0.375
-0.36
-0.37
-0.385
-0.4
-0.405
-0.39
-0.36
-0.355
-0.37
-0.37
-0.38
-0.36
-0.345
-0.355
-0.365
-0.385
-0.39
-0.37
-0.375
-0.37
-0.385
-0.37
-0.375
-0.365
-0.335
-0.34
-0.36
-0.355
-0.36
-0.345
-0.335
-0.335
-0.33
-0.33
-0.315
-0.29
-0.275
-0.26
-0.275
-0.255
-0.25
-0.23
-0.22
-0.21
-0.225
-0.24
-0.245
-0.255
-0.275
-0.305
-0.31
-0.3
-0.29
-0.29
-0.28
-0.29
-0.315
-0.34
-0.35
-0.34
-0.33
-0.33
-0.355
-0.39
-0.385
-0.365
-0.36
-0.355
-0.36
-0.36
-0.37
-0.36
-0.36
-0.36
-0.38
-0.375
-0.38
-0.37
-0.365
-0.36
-0.38
-0.395
-0.38
-0.355
-0.335
-0.33
-0.335
-0.36
-0.365
-0.365
-0.315
-0.265
-0.125
0.035
0.27
0.605
0.95
1.25
1.515
1.665
1.54
1.165
0.655
0.105
-0.34
-0.52
-0.505
-0.41
-0.385
-0.38
-0.38
-0.355
-0.325
-0.315
-0.325
-0.34
-0.345
-0.35
-0.36
-0.345
-0.33
-0.345
-0.36
-0.38
-0.365
-0.345
-0.33
-0.32
-0.34
-0.35
-0.34
-0.32
-0.31
-0.305
-0.31
-0.345
-0.325
-0.32
-0.31
-0.3
-0.295
-0.31
-0.285
-0.27
-0.25
-0.245
-0.26
-0.285
-0.27
-0.245
-0.23
-0.225
-0.245
-0.24
-0.23
-0.19
-0.165
-0.15
-0.16
-0.17
-0.145
-0.12
-0.1
-0.1
-0.09
-0.09
-0.075
-0.035
0.005
0.015
0.03
0.035
0.065
0.1
0.12
0.135
0.135
0.14
0.16
0.185
0.21
0.205
0.2
0.2
0.215
0.23
0.255
0.24
0.215
0.205
0.175
0.16
0.135
0.12
0.055
0.01
-0.035
-0.05
-0.065
-0.08
-0.13
-0.155
-0.16
-0.17
-0.185
-0.205
-0.255
-0.265
-0.26
-0.26
-0.27
-0.295
-0.315
-0.325
-0.325
-0.325
-0.31
-0.325
-0.335
-0.355
-0.365
-0.34
-0.325
-0.32
-0.365
-0.38
-0.37
-0.34
-0.325
-0.33
-0.345
-0.35
-0.34
-0.325
-0.32
-0.32
-0.345
-0.355
-0.35
-0.35
-0.335
-0.335
-0.355
-0.38
-0.365
-0.355
-0.33
-0.33
-0.355
-0.345
-0.335
-0.315
-0.31
-0.32
-0.345
-0.355
-0.35
-0.34
-0.33
-0.33
-0.34
-0.345
-0.32
-0.3
-0.285
-0.31
-0.345
-0.335
-0.32
-0.31
-0.305
-0.325
-0.345
-0.355
-0.36
-0.335
-0.3
-0.3
-0.305
-0.325
-0.31
-0.285
-0.26
-0.26
-0.27
-0.27
-0.255
-0.245
-0.22
-0.21
-0.21
-0.205
-0.185
