Lead II
-0.185
-0.17
-0.15
-0.16
-0.165
-0.165
-0.155
-0.145
-0.14
-0.135
-0.14
-0.15
-0.15
-0.13
-0.13
-0.125
-0.15
-0.16
-0.15
-0.145
-0.135
-0.16
-0.165
-0.175
-0.185
-0.165
-0.14
-0.15
-0.165
-0.18
-0.18
-0.175
-0.165
-0.18
-0.185
-0.19
-0.175
-0.16
-0.14
-0.17
-0.17
-0.17
-0.165
-0.16
-0.145
-0.155
-0.17
-0.175
-0.15
-0.135
-0.135
-0.115
-0.105
-0.09
-0.035
0.055
0.135
0.235
0.34
0.48
0.655
0.85
1.05
1.24
1.38
1.44
1.39
1.22
0.945
0.63
0.33
0.06
-0.12
-0.195
-0.18
-0.13
-0.09
-0.085
-0.105
-0.12
-0.14
-0.155
-0.195
-0.21
-0.21
-0.2
-0.195
-0.215
-0.25
-0.265
-0.255
-0.26
-0.245
-0.25
-0.27
-0.275
-0.28
-0.27
-0.265
-0.265
-0.275
-0.28
-0.27
-0.265
-0.24
-0.245
-0.255
-0.265
-0.25
-0.225
-0.22
-0.23
-0.24
-0.24
-0.245
-0.235
-0.225
-0.235
-0.25
-0.26
-0.25
-0.235
-0.24
-0.25
-0.26
-0.26
-0.26
-0.235
-0.215
-0.22
-0.245
-0.255
-0.255
-0.23
-0.215
-0.215
-0.24
-0.235
-0.23
-0.21
-0.19
-0.2
-0.21
-0.21
-0.195
-0.17
-0.17
-0.165
-0.17
-0.185
-0.165
-0.15
-0.125
-0.12
-0.135
-0.13
-0.11
-0.095
-0.075
-0.07
-0.09
-0.09
-0.08
-0.06
-0.05
-0.065
-0.06
-0.055
-0.04
-0.02
-0.02
-0.025
-0.025
-0.04
-0.03
0.0
0.01
0.0
-0.015
-0.025
-0.035
-0.025
-0.04
-0.045
-0.06
-0.075
-0.09
-0.075
-0.06
-0.08
-0.105
-0.125
-0.12
-0.115
-0.105
-0.115
-0.135
-0.155
-0.135
-0.13
-0.125
-0.115
-0.135
-0.15
-0.14
-0.135
-0.125
-0.13
-0.15
-0.155
-0.145
-0.125
-0.12
-0.135
-0.16
-0.15
-0.15
-0.13
-0.14
-0.135
-0.135
-0.125
-0.115
-0.105
-0.11
-0.125
-0.13
-0.15
-0.135
-0.12
-0.13
-0.125
-0.145
-0.165
-0.175
-0.16
-0.16
-0.165
-0.18
-0.19
-0.17
-0.165
-0.14
-0.155
-0.17
-0.18
-0.16
-0.15
-0.14
-0.15
-0.165
-0.18
-0.165
-0.165
-0.16
-0.165
-0.18
-0.195
-0.185
-0.175
-0.165
-0.17
-0.19
-0.195
-0.18
-0.17
-0.16
-0.165
-0.2
-0.19
-0.18
-0.18
-0.19
-0.195
-0.175
-0.195
-0.17
-0.17
-0.155
-0.17
-0.185
-0.19
-0.175
-0.17
-0.175
-0.175
-0.2
-0.205
-0.19
-0.19
-0.17
-0.175
-0.185
-0.18
-0.18
-0.185
-0.175
-0.175
-0.175
-0.17
-0.18
-0.18
-0.155
-0.17
-0.17
-0.185
-0.185
-0.165
-0.155
-0.16
-0.19
-0.2
-0.205
-0.2
-0.19
-0.195
-0.23
-0.23
-0.215
-0.185
-0.185
-0.185
-0.205
-0.21
-0.195
-0.17
-0.19
-0.205
-0.22
-0.215
-0.195
-0.175
-0.16
-0.175
-0.195
-0.2
-0.2
-0.175
-0.17
-0.175
-0.19
-0.19
-0.19
-0.175
-0.155
-0.165
-0.19
-0.21
-0.175
-0.155
-0.14
-0.15
-0.17
-0.18
-0.155
-0.16
-0.145
-0.145
-0.155
-0.17
-0.16
-0.15
-0.135
-0.14
-0.165
-0.175
-0.16
-0.15
-0.15
-0.145
-0.145
-0.12
-0.065
0.0
0.085
0.16
0.27
0.42
0.59
0.795
1.015
1.21
1.375
1.455
1.44
1.28
1.025
0.72
0.39
0.08
-0.16
-0.245
-0.245
-0.21
-0.18
-0.15
-0.125
-0.115
-0.12
-0.155
-0.19
-0.205
-0.21
-0.21
-0.205
-0.24
-0.255
-0.255
-0.235
-0.24
-0.24
-0.255
-0.27
-0.27
-0.27
-0.265
-0.255
-0.265
-0.28
-0.285
-0.275
-0.275
-0.26
-0.27
-0.275
-0.275
-0.265
-0.275
-0.265
-0.285
-0.28
-0.29
-0.28
-0.255
-0.255
-0.265
-0.285
-0.285
-0.26
-0.25
-0.245
-0.255
-0.265
-0.3
-0.285
-0.27
-0.24
-0.23
-0.24
-0.255
-0.25
-0.235
-0.225
-0.225
-0.21
-0.215
-0.195
-0.2
-0.18
-0.18
-0.205
-0.225
-0.2
-0.18
-0.155
-0.18
-0.2
-0.205
-0.2
-0.18
-0.17
-0.16
-0.175
-0.165
-0.16
-0.14
-0.135
-0.13
-0.135
-0.13
-0.11
-0.1
-0.085
-0.095
-0.095
-0.09
-0.07
-0.055
-0.03
-0.035
-0.045
-0.055
-0.05
-0.04
-0.02
-0.03
-0.05
-0.055
-0.04
-0.015
-0.04
-0.065
-0.085
-0.095
-0.1
-0.065
-0.08
-0.095
-0.1
-0.115
-0.11
-0.115
-0.1
-0.095
-0.11
-0.12
-0.115
-0.125
-0.12
-0.135
-0.135
-0.125
-0.14
-0.12
-0.105
-0.14
-0.16
-0.16
-0.15
-0.135
-0.13
-0.13
-0.155
-0.16
-0.155
-0.15
-0.14
-0.13
-0.15
-0.15
-0.14
-0.125
-0.105
-0.11
-0.13
-0.14
-0.13
-0.12
-0.115
-0.115
-0.125
-0.13
-0.125
-0.115
-0.115
-0.125
-0.15
-0.15
-0.16
-0.14
-0.14
-0.13
-0.17
-0.18
-0.16
-0.16
-0.155
-0.16
-0.175
-0.185
-0.18
-0.175
-0.175
-0.19
-0.185
-0.19
-0.185
-0.155
-0.14
-0.155
-0.17
-0.185
-0.185
-0.16
-0.145
-0.145
-0.175
-0.185
-0.165
-0.155
-0.145
-0.15
-0.165
-0.2
-0.195
-0.16
-0.14
-0.155
-0.18
-0.185
-0.18
-0.18
-0.155
-0.165
-0.175
-0.205
-0.195
-0.165
-0.155
-0.155
-0.155
-0.17
-0.16
-0.145
-0.135
-0.145
-0.15
-0.145
-0.14
-0.125
-0.13
-0.12
-0.135
-0.15
-0.155
-0.13
-0.12
-0.115
-0.135
-0.145
-0.145
-0.125
-0.13
-0.15
-0.16
-0.17
-0.15
-0.135
-0.125
-0.12
-0.11
-0.105
-0.04
0.035
0.105
0.215
0.35
0.525
0.735
0.95
1.165
1.32
1.42
1.38
1.225
0.98
0.66
0.35
0.055
-0.155
-0.245
-0.21
-0.17
-0.15
-0.135
-0.135
-0.145
-0.14
-0.14
-0.165
-0.185
-0.19
-0.2
-0.195
-0.19
-0.21
-0.225
-0.24
-0.23
-0.225
-0.22
-0.23
-0.25
-0.245
-0.23
-0.21
-0.205
-0.215
-0.23
-0.245
-0.23
-0.215
-0.2
-0.23
-0.215
-0.245
-0.225
-0.21
-0.215
-0.225
-0.25
-0.265
-0.26
-0.255
-0.235
-0.23
-0.25
-0.245
-0.225
-0.2
-0.2
-0.205
-0.22
-0.215
-0.205
-0.175
-0.18
-0.17
-0.185
-0.19
-0.19
-0.175
-0.16
-0.15
-0.15
-0.16
-0.15
-0.125
-0.125
-0.125
-0.12
-0.115
-0.085
-0.075
-0.06
-0.055
-0.07
-0.09
-0.075
-0.045
-0.03
-0.035
-0.05
-0.05
-0.025
0.0
-0.01
0.0
0.015
0.005
0.01
0.04
0.05
0.05
0.04
0.03
0.02
0.01
0.02
0.0
-0.01
-0.03
-0.02
-0.02
-0.02
-0.05
-0.085
-0.08
-0.07
-0.06
-0.065
-0.09
-0.11
-0.115
-0.115
-0.095
-0.095
-0.085
-0.1
-0.11
-0.11
-0.105
-0.095
-0.1
-0.115
-0.12
-0.105
-0.105
-0.075
-0.08
-0.095
-0.095
-0.09
-0.07
-0.06
-0.065
-0.07
-0.08
-0.07
-0.065
-0.055
-0.08
-0.09
-0.105
-0.08
-0.06
-0.07
-0.075
-0.085
-0.075
-0.07
-0.05
-0.055
-0.075
-0.09
-0.11
-0.11
-0.095
-0.095
-0.095
-0.115
-0.14
-0.14
-0.11
-0.105
-0.11
-0.12
-0.13
-0.12
-0.09
-0.09
-0.11
-0.115
-0.125
-0.11
-0.085
-0.07
-0.105
-0.11
-0.12
-0.09
-0.075
-0.075
-0.105
-0.095
-0.1
-0.095
-0.09
-0.06
-0.065
-0.09
-0.1
-0.085
-0.075
-0.06
-0.08
-0.085
-0.085
-0.08
-0.075
-0.085
-0.105
-0.135
-0.14
-0.115
-0.09
-0.09
-0.095
-0.115
-0.13
-0.125
-0.12
-0.105
-0.115
-0.13
-0.13
-0.12
-0.115
-0.11
-0.11
-0.11
-0.115
-0.11
-0.105
-0.105
-0.12
-0.12
-0.115
-0.115
-0.1
-0.085
-0.09
-0.1
-0.105
-0.095
-0.085
-0.075
-0.055
-0.075
-0.075
-0.07
-0.055
-0.04
-0.05
-0.065
-0.07
-0.06
-0.05
-0.055
-0.045
-0.03
0.0
0.055
0.135
0.235
0.335
0.49
0.655
0.855
1.05
1.275
1.48
1.585
1.59
1.445
1.175
0.86
0.515
0.2
-0.01
-0.115
-0.12
-0.09
-0.025
-0.03
-0.05
-0.08
-0.085
-0.08
-0.085
-0.105
-0.145
-0.155
-0.145
-0.13
-0.125
-0.155
-0.165
-0.17
-0.17
-0.175
-0.16
-0.185
-0.18
-0.18
-0.17
-0.16
-0.18
-0.2
-0.2
-0.2
-0.18
-0.175
-0.195
-0.2
-0.21
-0.235
-0.215
-0.205
-0.2
-0.21
-0.205
-0.205
-0.205
-0.2
-0.205
-0.195
-0.21
-0.205
-0.195
-0.175
-0.19
-0.195
-0.18
-0.17
-0.16
-0.16
-0.16
-0.165
-0.16
-0.15
-0.125
-0.11
-0.11
-0.085
-0.075
-0.055
-0.045
-0.03
-0.025
-0.035
-0.035
-0.015
0.0
-0.01
-0.02
-0.055
-0.035
-0.015
0.005
0.015
0.01
-0.005
0.0
0.025
0.025
0.045
0.03
0.035
0.025
0.02
0.03
0.025
0.04
0.015
-0.01
-0.01
-0.005
-0.005
-0.035
-0.055
-0.055
-0.045
-0.04
-0.04
-0.05
-0.075
-0.095
-0.085
-0.085
-0.1
-0.105
-0.13
-0.125
-0.1
-0.105
-0.095
-0.095
-0.1
-0.12
-0.095
-0.08
-0.085
-0.095
-0.1
-0.1
-0.095
-0.085
-0.08
-0.075
-0.075
-0.1
-0.08
-0.075
-0.06
-0.075
-0.09
-0.105
-0.1
-0.08
-0.09
-0.085
-0.115
-0.11
-0.115
-0.1
-0.105
-0.115
-0.115
-0.125
-0.125
-0.11
-0.11
-0.125
-0.13
-0.135
-0.13
-0.095
-0.095
-0.125
-0.145
-0.145
-0.135
-0.125
-0.125
-0.12
-0.13
-0.13
-0.13
-0.105
-0.105
-0.11
-0.12
-0.125
-0.125
-0.125
-0.12
-0.12
-0.125
-0.12
-0.115
-0.115
-0.12
-0.13
-0.145
-0.145
-0.125
-0.12
-0.12
-0.13
-0.155
-0.16
-0.15
-0.145
-0.14
-0.135
-0.135
-0.145
-0.125
-0.11
-0.11
-0.115
-0.135
-0.14
-0.13
-0.11
-0.115
-0.115
-0.13
-0.145
-0.14
-0.125
-0.105
-0.115
-0.12
-0.15
-0.11
-0.095
-0.095
-0.11
-0.105
-0.105
-0.08
-0.045
0.02
0.06
0.17
0.28
0.445
0.635
0.835
1.04
1.205
1.335
1.345
1.275
1.075
0.785
0.49
0.19
-0.03
-0.13
-0.145
-0.14
-0.1
-0.085
-0.1
-0.1
-0.125
-0.145
-0.17
-0.19
-0.19
-0.205
-0.19
-0.215
-0.23
-0.235
-0.24
-0.24
-0.245
-0.26
-0.26
-0.25
-0.26
-0.225
-0.225
-0.225
-0.25
-0.25
-0.235
-0.24
-0.235
-0.265
-0.275
-0.265
-0.25
-0.24
-0.235
-0.235
-0.24
-0.24
-0.225
-0.215
-0.21
-0.21
-0.24
-0.235
-0.22
-0.21
-0.21
-0.215
-0.225
-0.215
-0.215
-0.185
-0.175
-0.18
-0.185
-0.19
-0.19
-0.155
-0.145
-0.145
-0.145
-0.155
-0.13
-0.12
-0.105
-0.095
-0.09
-0.085
-0.07
-0.065
-0.05
-0.055
-0.07
-0.065
-0.055
-0.045
-0.025
-0.03
-0.04
-0.035
-0.03
-0.01
-0.01
-0.015
-0.025
-0.025
-0.02
-0.02
0.0
-0.01
-0.03
-0.025
-0.03
-0.015
-0.025
-0.03
-0.045
-0.055
-0.065
-0.055
-0.065
-0.07
-0.105
-0.12
-0.115
-0.085
-0.085
-0.12
-0.135
-0.125
-0.145
-0.125
-0.12
-0.125
-0.135
-0.14
-0.13
-0.125
-0.12
-0.115
-0.13
-0.13
-0.12
-0.135
-0.115
-0.115
-0.135
-0.135
-0.125
-0.105
-0.105
-0.12
-0.14
-0.155
-0.14
-0.125
-0.135
-0.125
-0.14
-0.14
-0.13
-0.11
-0.12
-0.11
-0.125
-0.135
-0.13
-0.12
-0.12
-0.135
-0.14
-0.145
-0.13
-0.125
-0.13
-0.145
-0.145
-0.15
-0.14
-0.12
-0.12
-0.13
-0.145
-0.145
-0.145
-0.14
-0.115
-0.13
-0.145
-0.145
-0.135
-0.12
-0.13
-0.145
-0.175
-0.175
-0.175
-0.15
-0.145
-0.155
-0.16
-0.175
-0.175
-0.15
-0.145
-0.175
-0.19
-0.19
-0.185
-0.165
-0.165
-0.165
-0.18
-0.175
-0.16
-0.14
-0.125
-0.11
-0.09
-0.025
0.04
0.15
0.285
0.435
0.64
0.875
1.135
1.385
1.59
1.625
1.53
1.27
0.95
0.605
0.25
-0.05
-0.23
-0.255
-0.18
-0.115
-0.085
-0.1
-0.125
-0.155
-0.18
-0.175
-0.2
-0.22
-0.25
-0.265
-0.27
-0.245
-0.265
-0.28
-0.29
-0.29
-0.29
-0.28
-0.28
-0.29
-0.285
-0.3
-0.285
-0.265
-0.27
-0.275
-0.31
-0.3
-0.285
-0.27
-0.255
-0.275
-0.27
-0.27
-0.25
-0.26
-0.265
-0.265
-0.275
-0.275
-0.26
-0.25
-0.245
-0.245
-0.25
-0.26
-0.265
-0.255
-0.25
-0.26
-0.28
-0.27
-0.255
-0.24
-0.235
-0.24
-0.255
-0.26
-0.265
-0.25
-0.235
-0.235
-0.22
-0.235
-0.21
-0.205
-0.205
-0.21
-0.21
-0.2
-0.175
-0.135
-0.12
-0.14
-0.135
-0.135
-0.135
-0.12
-0.105
-0.11
-0.1
-0.095
-0.08
-0.055
-0.055
-0.055
-0.06
-0.065
-0.065
-0.055
-0.045
-0.065
-0.09
-0.075
-0.065
-0.09
-0.08
-0.1
-0.125
-0.145
-0.12
-0.11
-0.115
-0.125
-0.145
-0.165
-0.165
-0.16
-0.145
-0.165
-0.195
-0.19
-0.19
-0.175
-0.17
-0.185
-0.205
-0.2
-0.2
-0.185
-0.175
-0.185
-0.195
-0.2
-0.185
-0.165
-0.155
-0.165
-0.17
-0.185
-0.155
-0.155
-0.14
-0.155
-0.165
-0.16
-0.16
-0.15
-0.14
-0.15
-0.165
-0.19
-0.18
-0.17
-0.16
-0.18
-0.195
-0.19
-0.18
-0.16
-0.17
-0.16
-0.17
-0.175
-0.17
-0.16
-0.15
-0.165
-0.18
-0.19
-0.17
-0.16
-0.17
-0.18
-0.185
-0.205
-0.195
-0.18
-0.155
-0.16
-0.18
-0.195
-0.19
-0.18
-0.17
-0.18
-0.195
-0.205
-0.2
-0.185
-0.19
-0.2
-0.2
-0.22
-0.195
-0.17
-0.165
-0.18
-0.2
-0.21
-0.2
-0.2
-0.18
-0.2
-0.195
-0.2
-0.205
-0.19
-0.195
-0.19
-0.195
-0.205
-0.205
-0.19
-0.175
-0.145
-0.13
-0.1
-0.02
0.065
0.185
0.31
0.47
0.665
0.86
1.08
1.295
1.435
1.44
1.305
1.065
0.795
0.49
0.185
-0.1
-0.28
-0.34
-0.29
-0.23
-0.19
-0.175
-0.175
-0.175
-0.17
-0.19
-0.215
-0.245
-0.26
-0.27
-0.26
-0.25
-0.265
-0.285
-0.295
-0.285
-0.27
-0.27
-0.285
-0.295
-0.3
-0.295
-0.295
-0.305
-0.32
-0.33
-0.325
-0.32
-0.3
-0.305
-0.31
-0.305
-0.32
-0.31
-0.295
-0.295
-0.305
-0.33
-0.315
-0.32
-0.3
-0.3
-0.3
-0.32
-0.32
-0.3
-0.295
-0.28
-0.3
-0.31
-0.305
-0.305
-0.285
-0.275
-0.275
-0.305
-0.3
-0.29
-0.28
-0.285
-0.27
-0.285
-0.28
-0.27
-0.255
-0.245
-0.24
-0.25
-0.255
-0.24
-0.225
-0.22
-0.245
-0.22
-0.225
-0.22
-0.195
-0.18
-0.175
-0.18
-0.18
-0.16
-0.135
-0.155
-0.135
-0.14
-0.145
-0.115
-0.115
-0.12
-0.12
-0.125
-0.125
-0.11
-0.095
-0.085
-0.09
-0.115
-0.1
-0.1
-0.095
-0.09
-0.105
-0.14
-0.13
-0.125
-0.13
-0.12
-0.135
-0.155
-0.175
-0.16
-0.145
-0.16
-0.15
-0.175
-0.185
-0.19
-0.175
-0.165
-0.18
-0.17
-0.185
-0.17
-0.16
-0.15
-0.165
-0.165
-0.19
-0.18
-0.15
-0.145
-0.17
-0.175
-0.185
-0.18
-0.185
-0.175
-0.185
-0.195
-0.2
-0.19
-0.17
-0.165
-0.17
-0.17
-0.19
-0.18
-0.17
-0.175
-0.165
-0.175
-0.175
-0.175
-0.14
-0.145
-0.16
-0.175
-0.185
-0.17
-0.14
-0.145
-0.185
-0.185
-0.17
-0.15
-0.16
-0.165
-0.18
-0.195
-0.17
-0.165
-0.16
-0.165
-0.16
-0.19
-0.2
-0.195
-0.2
-0.205
-0.21
-0.2
-0.2
-0.185
-0.185
-0.195
-0.2
-0.2
-0.2
-0.19
-0.165
-0.165
-0.2
-0.215
-0.235
-0.2
-0.165
-0.17
-0.2
-0.225
-0.23
-0.215
-0.19
-0.18
-0.2
-0.225
-0.205
-0.19
-0.175
-0.165
-0.17
-0.195
-0.175
-0.155
-0.16
-0.16
-0.2
-0.21
-0.2
-0.19
-0.175
-0.195
-0.175
-0.19
-0.185
-0.185
-0.18
-0.175
-0.185
-0.195
-0.19
-0.17
-0.15
-0.16
-0.17
-0.19
-0.185
-0.155
-0.1
-0.075
-0.045
-0.02
0.05
0.185
0.335
0.515
0.67
0.845
1.04
1.24
1.435
1.53
1.465
1.29
1.03
0.74
0.47
0.16
-0.12
-0.32
-0.365
-0.32
-0.245
-0.21
-0.18
-0.185
-0.175
-0.165
-0.175
-0.175
-0.185
-0.22
-0.23
-0.215
-0.21
-0.225
-0.245
-0.27
-0.27
-0.26
-0.25
-0.27
-0.29
-0.3
-0.305
-0.28
-0.285
-0.275
-0.295
-0.315
-0.315
-0.305
-0.295
-0.3
-0.32
-0.335
-0.31
-0.31
-0.3
-0.29
-0.3
-0.31
-0.3
-0.3
-0.31
-0.315
-0.31
-0.305
-0.305
-0.295
-0.285
-0.285
-0.29
-0.29
-0.285
-0.285
-0.26
-0.26
-0.255
-0.27
-0.28
-0.265
-0.265
-0.265
-0.285
-0.27
-0.265
-0.245
-0.225
-0.22
-0.225
-0.23
-0.235
-0.23
-0.235
-0.215
-0.205
-0.225
-0.225
-0.23
-0.195
-0.19
-0.18
-0.19
-0.185
-0.15
-0.135
-0.14
-0.15
-0.155
-0.175
-0.145
-0.115
-0.105
-0.1
-0.115
-0.11
-0.085
-0.08
-0.055
-0.055
-0.065
-0.07
-0.06
-0.055
-0.055
-0.075
-0.085
-0.09
-0.075
-0.07
-0.07
-0.095
-0.115
-0.11
-0.115
-0.115
-0.125
-0.14
-0.16
-0.165
-0.15
-0.15
-0.165
-0.175
-0.19
-0.205
-0.19
-0.175
-0.16
-0.175
-0.185
-0.2
-0.19
-0.18
-0.175
-0.19
-0.195
-0.21
-0.19
-0.18
-0.18
-0.19
-0.21
-0.21
-0.195
-0.18
-0.17
-0.175
-0.205
-0.21
-0.19
-0.18
-0.18
-0.18
-0.19
-0.215
-0.195
-0.18
-0.18
-0.175
-0.18
-0.18
-0.17
-0.165
-0.14
-0.155
-0.175
-0.16
-0.145
-0.135
-0.125
-0.125
-0.145
-0.155
-0.15
-0.13
-0.145
-0.15
-0.17
-0.18
-0.165
-0.155
-0.15
-0.16
-0.19
-0.195
-0.19
-0.18
-0.18
-0.19
-0.195
-0.21
-0.2
-0.195
-0.19
-0.21
-0.225
-0.225
-0.215
-0.205
-0.21
-0.21
-0.22
-0.225
-0.215
-0.21
-0.22
-0.22
-0.235
-0.245
-0.22
-0.215
-0.19
-0.2
-0.195
-0.2
-0.185
-0.18
-0.185
-0.175
-0.2
-0.195
-0.175
-0.175
-0.175
-0.18
-0.205
-0.205
-0.185
-0.175
-0.175
-0.165
-0.17
-0.185
-0.18
-0.165
-0.16
-0.175
-0.18
-0.195
-0.19
-0.18
-0.17
-0.18
-0.195
-0.2
-0.19
-0.175
-0.175
-0.195
-0.21
-0.21
-0.2
-0.195
-0.18
-0.175
-0.19
-0.19
-0.175
-0.165
-0.155
-0.15
-0.145
-0.15
-0.135
-0.11
-0.11
-0.12
-0.135
-0.14
-0.12
-0.065
-0.03
0.0
0.05
0.12
0.215
0.355
0.535
0.72
0.91
1.13
1.34
1.51
1.555
1.47
1.27
0.98
0.66
0.37
0.06
-0.185
-0.35
-0.355
-0.285
-0.205
-0.165
-0.145
-0.16
-0.185
-0.19
-0.205
-0.225
-0.235
-0.245
-0.265
-0.255
-0.235
-0.25
-0.27
-0.28
-0.28
-0.275
-0.265
-0.255
-0.265
-0.26
-0.265
-0.27
-0.25
-0.245
-0.25
-0.26
-0.26
-0.255
-0.225
-0.24
-0.255
-0.27
-0.27
-0.27
-0.255
-0.255
-0.26
-0.275
-0.275
-0.28
-0.265
-0.255
-0.265
-0.285
-0.275
-0.275
-0.265
-0.245
-0.255
-0.285
-0.27
-0.275
-0.245
-0.23
-0.23
-0.26
-0.27
-0.25
-0.225
-0.235
-0.22
-0.24
-0.24
-0.22
-0.19
-0.19
-0.195
-0.195
-0.19
-0.17
-0.145
-0.145
-0.155
-0.16
-0.17
-0.15
-0.135
-0.145
-0.15
-0.155
-0.15
-0.135
-0.12
-0.11
-0.125
-0.13
-0.105
-0.08
-0.085
-0.06
-0.07
-0.085
-0.08
-0.07
-0.045
-0.035
-0.035
-0.03
-0.045
-0.04
-0.055
-0.035
-0.05
-0.055
-0.06
-0.05
-0.045
-0.055
-0.06
-0.07
-0.085
-0.08
-0.055
-0.07
-0.095
-0.12
-0.1
-0.09
-0.1
-0.11
-0.115
-0.125
-0.12
-0.12
-0.12
-0.125
-0.125
-0.14
-0.15
-0.13
-0.105
-0.095
-0.11
-0.125
-0.12
-0.105
-0.085
-0.09
-0.095
-0.11
-0.11
-0.105
-0.1
-0.105
-0.115
-0.115
-0.12
-0.12
-0.11
-0.105
-0.12
-0.115
-0.125
-0.115
-0.11
-0.095
-0.1
-0.12
-0.11
-0.105
-0.09
-0.105
-0.135
-0.14
-0.13
-0.125
-0.105
-0.095
-0.11
-0.135
-0.135
-0.13
-0.1
-0.115
-0.12
-0.15
-0.155
-0.14
-0.11
-0.11
-0.135
-0.155
-0.15
-0.145
-0.14
-0.13
-0.13
-0.15
-0.155
-0.125
-0.11
-0.105
-0.11
-0.13
-0.125
-0.12
-0.09
-0.09
-0.11
-0.12
-0.115
-0.12
-0.115
-0.12
-0.13
-0.145
-0.145
-0.14
-0.115
-0.125
-0.13
-0.15
-0.15
-0.16
-0.135
-0.135
-0.155
-0.17
-0.165
-0.16
-0.155
-0.14
-0.16
-0.175
-0.165
-0.15
-0.14
-0.145
-0.15
-0.165
-0.155
-0.155
-0.125
-0.105
-0.1
-0.035
0.005
0.1
0.195
0.33
0.49
0.67
0.895
1.115
1.345
1.49
1.515
1.445
1.23
0.945
0.63
0.3
0.0
-0.21
-0.255
-0.19
-0.155
-0.095
-0.095
-0.1
-0.115
-0.13
-0.145
-0.16
-0.185
-0.215
-0.24
-0.225
-0.22
-0.2
-0.215
-0.22
-0.225
-0.225
-0.215
-0.215
-0.23
-0.235
-0.225
-0.23
-0.215
-0.215
-0.24
-0.24
-0.255
-0.235
-0.215
-0.205
-0.22
-0.23
-0.23
-0.215
-0.19
-0.21
-0.195
-0.22
-0.24
-0.225
-0.21
-0.205
-0.215
-0.23
-0.205
-0.195
-0.19
-0.18
-0.205
-0.21
-0.2
-0.19
-0.165
-0.18
-0.18
-0.21
-0.195
-0.19
-0.165
-0.15
-0.165
-0.17
-0.155
-0.13
-0.115
-0.125
-0.115
-0.12
-0.125
-0.11
-0.085
-0.08
-0.085
-0.1
-0.1
-0.075
-0.055
-0.04
-0.065
-0.07
-0.05
-0.035
-0.015
-0.015
-0.02
-0.035
-0.025
-0.015
0.005
-0.015
-0.025
-0.035
-0.03
-0.03
-0.01
-0.015
-0.035
-0.055
-0.07
-0.065
-0.07
-0.08
-0.1
-0.115
-0.125
-0.135
-0.115
-0.135
-0.14
-0.155
-0.165
-0.165
-0.145
-0.145
-0.165
-0.165
-0.17
-0.155
-0.135
-0.125
-0.135
-0.14
-0.14
-0.135
-0.12
-0.11
-0.11
-0.125
-0.12
-0.105
-0.09
-0.1
-0.105
-0.11
-0.1
-0.11
-0.1
-0.09
-0.1
-0.115
-0.105
-0.1
-0.105
-0.105
-0.115
-0.12
-0.14
-0.11
-0.115
-0.11
-0.12
-0.135
-0.14
-0.14
-0.13
-0.13
-0.145
-0.165
-0.165
-0.15
-0.15
-0.145
-0.16
-0.18
-0.2
-0.175
-0.16
-0.155
-0.155
-0.17
-0.18
-0.165
-0.155
-0.145
-0.15
-0.155
-0.175
-0.15
-0.14
-0.135
-0.15
-0.165
-0.15
-0.135
-0.135
-0.135
-0.155
-0.145
-0.155
-0.145
-0.12
-0.13
-0.155
-0.155
-0.17
-0.155
-0.15
-0.15
-0.155
-0.165
-0.165
-0.165
-0.16
-0.15
-0.16
-0.17
-0.18
-0.18
-0.15
-0.16
-0.17
-0.19
-0.195
-0.175
-0.16
-0.155
-0.175
-0.175
-0.165
-0.155
-0.15
-0.14
-0.14
-0.15
-0.155
-0.135
-0.125
-0.13
-0.13
-0.14
-0.135
-0.115
-0.1
-0.105
-0.11
-0.13
-0.12
-0.1
-0.075
-0.065
-0.085
-0.105
-0.1
-0.095
-0.06
-0.045
-0.035
0.005
0.06
0.145
0.24
0.37
0.51
0.66
0.84
1.035
1.23
1.355
1.405
1.335
1.135
0.9
0.645
0.355
0.125
-0.065
-0.13
-0.125
-0.095
-0.06
-0.065
-0.09
-0.115
-0.14
-0.125
-0.15
-0.155
-0.185
-0.205
-0.185
-0.18
-0.19
-0.205
-0.23
-0.235
-0.215
-0.195
-0.195
-0.205
-0.22
-0.22
-0.22
-0.23
-0.23
-0.245
-0.265
-0.26
-0.26
-0.245
-0.265
-0.27
-0.28
-0.27
-0.26
-0.255
-0.25
-0.255
-0.265
-0.245
-0.23
-0.21
-0.215
-0.225
-0.24
-0.235
-0.22
-0.2
-0.19
-0.21
-0.205
-0.2
-0.18
-0.18
-0.205
-0.195
-0.21
-0.205
-0.19
-0.17
-0.165
-0.16
-0.18
-0.155
-0.125
-0.11
-0.125
-0.14
-0.155
-0.125
-0.12
-0.095
-0.085
-0.09
-0.095
-0.11
-0.085
-0.075
-0.06
-0.07
-0.08
-0.075
-0.055
-0.04
-0.03
-0.035
-0.04
-0.025
-0.015
0.0
-0.005
-0.005
-0.005
-0.005
-0.005
-0.005
-0.005
-0.025
-0.045
-0.04
-0.045
-0.045
-0.065
-0.08
-0.115
-0.125
-0.12
-0.105
-0.12
-0.12
-0.135
-0.135
-0.135
-0.12
-0.13
-0.155
-0.17
-0.16
-0.155
-0.15
-0.15
-0.155
-0.175
-0.165
-0.16
-0.155
-0.14
-0.15
-0.16
-0.15
-0.13
-0.105
-0.115
-0.12
-0.13
-0.12
-0.1
-0.11
-0.105
-0.125
-0.14
-0.14
-0.125
-0.12
-0.13
-0.14
-0.155
-0.15
-0.13
-0.13
-0.13
-0.14
-0.16
-0.175
-0.155
-0.15
-0.155
-0.16
-0.165
-0.165
-0.155
-0.145
-0.145
-0.15
-0.175
-0.17
-0.175
-0.15
-0.165
-0.17
-0.175
-0.195
-0.185
-0.17
-0.19
-0.185
-0.19
-0.18
-0.16
-0.145
-0.14
-0.155
-0.17
-0.17
-0.16
-0.155
-0.15
-0.175
-0.195
-0.19
-0.175
-0.165
-0.175
-0.175
-0.18
-0.185
-0.17
-0.15
-0.17
-0.175
-0.19
-0.185
-0.185
-0.17
-0.155
-0.17
-0.165
-0.155
-0.14
-0.14
-0.12
-0.11
-0.085
-0.03
0.04
0.125
0.21
0.335
0.475
0.64
0.835
1.02
1.2
1.31
1.32
1.205
1.025
0.81
0.555
0.265
0.01
-0.17
-0.235
-0.19
-0.16
-0.13
-0.14
-0.15
-0.155
-0.16
-0.155
-0.165
-0.19
-0.21
-0.21
-0.19
-0.2
-0.205
-0.225
-0.24
-0.26
-0.26
-0.265
-0.27
-0.295
-0.31
-0.29
-0.28
-0.28
-0.275
-0.295
-0.29
-0.29
-0.285
-0.28
-0.275
-0.29
-0.29
-0.285
-0.27
-0.28
-0.29
-0.3
-0.29
-0.27
-0.23
-0.22
-0.215
-0.23
-0.205
-0.195
-0.2
-0.205
-0.225
-0.225
-0.235
-0.23
-0.215
-0.2
-0.225
-0.22
-0.205
-0.21
-0.195
-0.19
-0.205
-0.21
-0.195
-0.185
-0.165
-0.165
-0.175
-0.19
-0.2
-0.185
-0.155
-0.14
-0.145
-0.15
-0.155
-0.16
-0.125
-0.1
-0.1
-0.09
-0.08
-0.095
-0.095
-0.07
-0.065
-0.075
-0.11
-0.12
-0.155
-0.14
-0.13
-0.11
-0.09
-0.07
-0.04
-0.03
-0.065
-0.125
-0.17
-0.19
-0.205
-0.18
-0.185
-0.185
-0.18
-0.15
-0.125
-0.105
-0.115
-0.135
-0.135
-0.17
-0.24
-0.29
-0.285
-0.26
-0.24
-0.235
-0.225
-0.215
-0.215
-0.235
-0.23
-0.22
-0.185
-0.195
-0.22
-0.245
-0.27
-0.23
-0.17
-0.12
-0.095
-0.145
-0.215
-0.21
-0.17
-0.145
-0.145
-0.175
-0.2
-0.2
-0.21
-0.255
-0.28
-0.3
-0.275
-0.245
-0.21
-0.185
-0.18
-0.205
-0.23
-0.245
-0.23
-0.21
-0.21
-0.235
-0.235
-0.225
-0.21
-0.175
-0.165
-0.16
-0.185
-0.2
-0.235
-0.26
-0.29
-0.275
-0.225
-0.15
-0.115
-0.19
-0.29
-0.34
-0.33
-0.28
-0.27
-0.29
-0.345
-0.32
-0.27
-0.225
-0.185
-0.185
-0.225
-0.27
-0.29
-0.3
-0.285
-0.255
-0.225
-0.19
-0.2
-0.225
-0.25
-0.255
-0.245
-0.245
-0.245
-0.215
-0.2
-0.19
-0.195
-0.195
-0.175
-0.185
-0.235
-0.305
-0.335
-0.35
-0.34
-0.31
-0.29
-0.29
-0.29
-0.3
-0.29
-0.29
-0.29
-0.28
-0.275
-0.285
-0.275
-0.245
-0.2
-0.19
-0.19
-0.235
-0.28
-0.3
-0.295
-0.26
-0.255
-0.255
-0.235
-0.215
-0.185
-0.2
-0.22
-0.225
-0.195
-0.12
-0.025
0.045
0.05
0.07
0.17
0.375
0.585
0.77
0.945
1.07
1.08
0.965
0.735
0.435
0.14
-0.115
-0.275
-0.315
-0.29
-0.23
-0.205
-0.245
-0.295
-0.315
-0.32
-0.315
-0.33
-0.345
-0.34
-0.335
-0.36
-0.36
-0.37
-0.37
-0.35
-0.33
-0.315
-0.3
-0.285
-0.295
-0.305
-0.33
-0.355
-0.39
-0.38
-0.385
-0.36
-0.35
-0.35
-0.35
-0.36
-0.37
-0.36
-0.345
-0.33
-0.32
-0.33
-0.345
-0.295
-0.26
-0.27
-0.32
-0.395
-0.41
-0.355
-0.31
-0.285
-0.275
-0.3
-0.315
-0.315
-0.305
-0.305
-0.31
-0.335
-0.36
-0.36
-0.335
-0.295
-0.27
-0.275
-0.275
-0.275
-0.26
-0.23
-0.24
-0.245
-0.245
-0.245
-0.26
-0.25
-0.255
-0.24
-0.235
-0.225
-0.215
-0.17
-0.17
-0.19
-0.215
-0.205
-0.17
-0.11
-0.11
-0.14
-0.21
-0.245
-0.25
-0.21
-0.18
-0.195
-0.21
-0.19
-0.175
-0.18
-0.19
-0.235
-0.235
-0.24
-0.22
-0.2
-0.19
-0.225
-0.255
-0.28
-0.29
-0.26
-0.255
-0.255
-0.27
-0.27
-0.27
-0.26
-0.25
-0.255
-0.265
-0.235
-0.23
-0.195
-0.175
-0.175
-0.18
-0.195
-0.175
-0.16
-0.155
-0.165
-0.165
-0.2
-0.24
-0.265
-0.32
-0.36
-0.38
-0.405
-0.44
-0.505
-0.625
-0.79
-0.97
-1.13
-1.195
-1.18
-1.15
-1.125
-1.1
-1.065
-1.01
-0.935
-0.885
-0.85
-0.84
-0.86
-0.865
-0.855
-0.84
-0.815
-0.8
-0.79
-0.735
-0.7
-0.66
-0.63
-0.6
-0.575
-0.52
-0.46
-0.44
-0.395
-0.37
-0.33
-0.29
-0.26
-0.25
-0.235
-0.2
-0.17
-0.12
-0.105
-0.1
-0.115
-0.11
-0.095
-0.07
-0.045
-0.05
-0.05
-0.055
-0.025
-0.005
0.02
0.02
0.005
0.015
0.03
0.07
0.105
0.12
0.09
0.11
0.135
0.165
0.2
0.225
0.25
0.275
0.3
0.33
0.365
0.395
0.41
0.405
0.43
0.465
0.495
0.52
0.545
0.56
0.595
0.625
0.645
0.66
0.68
0.69
0.7
0.74
0.745
0.75
0.75
0.74
0.73
0.72
0.72
0.705
0.695
0.665
0.64
0.63
0.62
0.59
0.555
0.515
0.46
0.455
0.42
0.39
0.355
0.32
0.28
0.245
0.215
0.19
0.155
0.11
0.07
0.06
0.07
0.04
0.025
-0.005
-0.055
-0.08
-0.1
-0.115
-0.135
-0.17
-0.185
-0.185
-0.19
-0.18
-0.195
-0.23
-0.23
-0.225
-0.205
-0.205
-0.23
-0.255
-0.255
-0.25
-0.24
-0.235
-0.265
-0.265
-0.27
-0.275
-0.275
-0.29
-0.3
-0.295
-0.295
-0.29
-0.255
-0.23
-0.235
-0.275
-0.31
-0.35
-0.31
-0.3
-0.295
-0.3
-0.3
-0.3
-0.31
-0.31
-0.315
-0.315
-0.32
-0.31
-0.295
-0.295
-0.3
-0.315
-0.335
-0.315
-0.295
-0.29
-0.33
-0.36
-0.365
-0.34
-0.325
-0.315
-0.335
-0.35
-0.35
-0.32
-0.295
-0.305
-0.325
-0.325
-0.32
-0.3
-0.28
-0.285
-0.33
-0.345
-0.36
-0.345
-0.325
-0.32
-0.345
-0.35
-0.335
-0.325
-0.295
-0.28
-0.3
-0.335
-0.335
-0.345
-0.315
-0.32
-0.32
-0.33
-0.33
-0.305
-0.28
-0.275
-0.32
-0.325
-0.32
-0.32
-0.31
-0.315
-0.33
-0.315
-0.31
-0.3
-0.31
-0.37
-0.38
-0.395
-0.375
-0.365
-0.34
-0.335
-0.345
-0.375
-0.385
-0.375
-0.345
-0.345
-0.355
-0.375
-0.38
-0.345
-0.32
-0.32
-0.33
-0.345
-0.33
