Lead II
-0.13
-0.14
-0.15
-0.18
-0.19
-0.19
-0.17
-0.16
-0.16
-0.165
-0.18
-0.185
-0.175
-0.175
-0.175
-0.175
-0.19
-0.18
-0.16
-0.17
-0.165
-0.18
-0.185
-0.19
-0.18
-0.16
-0.15
-0.17
-0.18
-0.175
-0.16
-0.155
-0.15
-0.165
-0.16
-0.155
-0.14
-0.145
-0.145
-0.165
-0.175
-0.155
-0.14
-0.125
-0.14
-0.145
-0.16
-0.175
-0.15
-0.155
-0.155
-0.15
-0.17
-0.165
-0.15
-0.16
-0.16
-0.165
-0.17
-0.175
-0.17
-0.145
-0.16
-0.185
-0.185
-0.165
-0.145
-0.15
-0.15
-0.16
-0.165
-0.155
-0.135
-0.125
-0.115
-0.135
-0.13
-0.115
-0.095
-0.075
-0.08
-0.09
-0.075
-0.095
-0.06
-0.07
-0.07
-0.08
-0.075
-0.06
-0.045
-0.035
-0.065
-0.08
-0.075
-0.075
-0.04
-0.03
-0.03
-0.075
-0.105
-0.105
-0.09
-0.095
-0.105
-0.11
-0.115
-0.11
-0.12
-0.14
-0.155
-0.19
-0.185
-0.16
-0.14
-0.125
-0.145
-0.165
-0.18
-0.175
-0.15
-0.125
-0.135
-0.145
-0.16
-0.17
-0.165
-0.15
-0.14
-0.145
-0.16
-0.155
-0.14
-0.145
-0.135
-0.15
-0.125
-0.06
0.045
0.2
0.285
0.37
0.46
0.57
0.735
0.9
1.11
1.335
1.56
1.8
2.025
2.16
2.23
2.205
2.115
1.935
1.655
1.35
1.05
0.805
0.61
0.51
0.465
0.45
0.435
0.39
0.335
0.29
0.225
0.175
0.105
0.06
0.02
-0.005
-0.04
-0.075
-0.12
-0.165
-0.195
-0.215
-0.23
-0.25
-0.3
-0.355
-0.385
-0.39
-0.385
-0.385
-0.385
-0.395
-0.42
-0.43
-0.42
-0.42
-0.42
-0.445
-0.445
-0.445
-0.44
-0.45
-0.455
-0.47
-0.49
-0.475
-0.475
-0.47
-0.485
-0.515
-0.52
-0.515
-0.5
-0.52
-0.535
-0.555
-0.565
-0.57
-0.565
-0.555
-0.56
-0.58
-0.595
-0.605
-0.61
-0.605
-0.635
-0.66
-0.665
-0.67
-0.665
-0.675
-0.7
-0.725
-0.725
-0.725
-0.725
-0.695
-0.705
-0.715
-0.735
-0.725
-0.72
-0.715
-0.725
-0.73
-0.715
-0.705
-0.685
-0.67
-0.65
-0.645
-0.645
-0.605
-0.575
-0.54
-0.535
-0.545
-0.52
-0.475
-0.455
-0.42
-0.41
-0.405
-0.395
-0.355
-0.32
-0.295
-0.295
-0.285
-0.28
-0.25
-0.23
-0.2
-0.215
-0.225
-0.235
-0.225
-0.205
-0.19
-0.18
-0.2
-0.205
-0.195
-0.195
-0.195
-0.2
-0.21
-0.21
-0.205
-0.185
-0.195
-0.21
-0.23
-0.215
-0.215
-0.185
-0.19
-0.2
-0.215
-0.235
-0.24
-0.225
-0.215
-0.22
-0.245
-0.245
-0.22
-0.215
-0.21
-0.22
-0.24
-0.255
-0.24
-0.23
-0.215
-0.22
-0.255
-0.275
-0.255
-0.25
-0.265
-0.255
-0.265
-0.27
-0.265
-0.255
-0.25
-0.27
-0.28
-0.28
-0.265
-0.245
-0.235
-0.255
-0.27
-0.275
-0.27
-0.265
-0.24
-0.245
-0.265
-0.275
-0.275
-0.25
-0.24
-0.22
-0.23
-0.235
-0.235
-0.235
-0.24
-0.25
-0.26
-0.255
-0.245
-0.25
-0.24
-0.245
-0.27
-0.26
-0.255
-0.255
-0.235
-0.245
-0.26
-0.265
-0.25
-0.225
-0.22
-0.22
-0.24
-0.25
-0.245
-0.235
-0.23
-0.24
-0.245
-0.24
-0.26
-0.245
-0.23
-0.24
-0.25
-0.24
-0.235
-0.205
-0.195
-0.19
-0.2
-0.195
-0.18
-0.165
-0.145
-0.155
-0.18
-0.185
-0.195
-0.185
-0.16
-0.165
-0.155
-0.17
-0.15
-0.15
-0.145
-0.155
-0.17
-0.18
-0.17
-0.145
-0.145
-0.15
-0.2
-0.22
-0.225
-0.21
-0.205
-0.21
-0.24
-0.255
-0.265
-0.25
-0.235
-0.22
-0.22
-0.225
-0.225
-0.225
-0.23
-0.245
-0.24
-0.255
-0.25
-0.235
-0.22
-0.24
-0.265
-0.26
-0.25
-0.22
-0.22
-0.21
-0.24
-0.25
-0.24
-0.245
-0.235
-0.225
-0.215
-0.17
-0.075
0.05
0.2
0.315
0.425
0.55
0.7
0.86
1.06
1.27
1.46
1.68
1.91
2.085
2.165
2.17
2.12
2.025
1.865
1.64
1.34
1.01
0.69
0.465
0.36
0.32
0.315
0.305
0.26
0.21
0.165
0.12
0.085
0.035
-0.035
-0.065
-0.08
-0.09
-0.1
-0.13
-0.16
-0.205
-0.23
-0.26
-0.295
-0.325
-0.36
-0.385
-0.385
-0.405
-0.425
-0.44
-0.465
-0.475
-0.47
-0.445
-0.44
-0.45
-0.475
-0.485
-0.485
-0.485
-0.48
-0.495
-0.49
-0.495
-0.485
-0.475
-0.5
-0.5
-0.525
-0.545
-0.53
-0.515
-0.51
-0.505
-0.525
-0.54
-0.55
-0.55
-0.56
-0.56
-0.565
-0.575
-0.56
-0.555
-0.55
-0.58
-0.61
-0.62
-0.625
-0.595
-0.605
-0.615
-0.645
-0.67
-0.685
-0.665
-0.665
-0.67
-0.7
-0.72
-0.725
-0.735
-0.73
-0.74
-0.77
-0.765
-0.75
-0.745
-0.74
-0.755
-0.765
-0.775
-0.76
-0.725
-0.7
-0.695
-0.7
-0.695
-0.675
-0.655
-0.635
-0.61
-0.605
-0.595
-0.555
-0.52
-0.515
-0.5
-0.515
-0.485
-0.45
-0.405
-0.365
-0.35
-0.34
-0.35
-0.315
-0.29
-0.265
-0.255
-0.24
-0.24
-0.225
-0.215
-0.23
-0.215
-0.24
-0.235
-0.225
-0.2
-0.21
-0.21
-0.23
-0.235
-0.23
-0.22
-0.21
-0.205
-0.21
-0.215
-0.235
-0.235
-0.225
-0.23
-0.235
-0.24
-0.23
-0.23
-0.2
-0.2
-0.225
-0.265
-0.26
-0.245
-0.225
-0.225
-0.255
-0.265
-0.25
-0.25
-0.255
-0.245
-0.26
-0.25
-0.245
-0.25
-0.245
-0.25
-0.265
-0.28
-0.265
-0.245
-0.245
-0.23
-0.24
-0.26
-0.255
-0.235
-0.22
-0.22
-0.24
-0.245
-0.245
-0.245
-0.23
-0.235
-0.245
-0.23
-0.23
-0.215
-0.22
-0.235
-0.25
-0.26
-0.245
-0.23
-0.225
-0.245
-0.24
-0.25
-0.25
-0.225
-0.21
-0.22
-0.225
-0.245
-0.25
-0.22
-0.21
-0.22
-0.22
-0.25
-0.235
-0.23
-0.22
-0.24
-0.265
-0.255
-0.245
-0.22
-0.205
-0.215
-0.235
-0.24
-0.24
-0.215
-0.19
-0.215
-0.23
-0.23
-0.2
-0.175
-0.145
-0.145
-0.16
-0.18
-0.17
-0.155
-0.165
-0.16
-0.155
-0.165
-0.15
-0.13
-0.13
-0.14
-0.15
-0.155
-0.145
-0.13
-0.135
-0.15
-0.17
-0.19
-0.175
-0.17
-0.165
-0.16
-0.18
-0.21
-0.22
-0.205
-0.205
-0.2
-0.2
-0.22
-0.225
-0.21
-0.205
-0.215
-0.235
-0.225
-0.215
-0.21
-0.185
-0.21
-0.23
-0.24
-0.23
-0.22
-0.2
-0.2
-0.22
-0.24
-0.215
-0.195
-0.175
-0.195
-0.215
-0.24
-0.17
-0.08
0.055
0.155
0.23
0.29
0.385
0.515
0.655
0.79
0.955
1.155
1.39
1.62
1.835
2.0
2.085
2.105
2.085
1.995
1.79
1.445
1.06
0.725
0.535
0.415
0.325
0.27
0.235
0.22
0.2
0.175
0.12
0.07
0.025
-0.025
-0.05
-0.065
-0.08
-0.115
-0.16
-0.195
-0.21
-0.22
-0.245
-0.27
-0.305
-0.325
-0.325
-0.335
-0.355
-0.4
-0.425
-0.445
-0.435
-0.42
-0.415
-0.435
-0.445
-0.465
-0.46
-0.45
-0.435
-0.445
-0.445
-0.455
-0.455
-0.46
-0.46
-0.475
-0.5
-0.495
-0.475
-0.475
-0.455
-0.475
-0.505
-0.525
-0.515
-0.5
-0.505
-0.515
-0.54
-0.545
-0.555
-0.545
-0.55
-0.545
-0.555
-0.56
-0.56
-0.545
-0.535
-0.555
-0.595
-0.615
-0.605
-0.6
-0.6
-0.595
-0.63
-0.65
-0.645
-0.645
-0.66
-0.665
-0.68
-0.69
-0.705
-0.67
-0.67
-0.68
-0.7
-0.715
-0.71
-0.68
-0.66
-0.655
-0.675
-0.675
-0.665
-0.645
-0.625
-0.615
-0.61
-0.595
-0.57
-0.55
-0.53
-0.52
-0.52
-0.495
-0.475
-0.44
-0.415
-0.385
-0.36
-0.365
-0.33
-0.315
-0.28
-0.26
-0.255
-0.235
-0.225
-0.205
-0.195
-0.19
-0.22
-0.205
-0.185
-0.185
-0.15
-0.155
-0.175
-0.18
-0.165
-0.18
-0.155
-0.165
-0.17
-0.165
-0.17
-0.15
-0.155
-0.155
-0.135
-0.1
-0.025
0.06
0.145
0.225
0.315
0.405
0.52
0.61
0.755
0.875
1.02
1.145
1.27
1.37
1.465
1.505
1.54
1.5
1.34
1.06
0.68
0.28
-0.065
-0.37
-0.635
-0.865
-1.035
-1.185
-1.33
-1.445
-1.535
-1.615
-1.705
-1.8
-1.9
-1.98
-2.04
-2.08
-2.095
-2.1
-2.12
-2.12
-2.13
-2.125
-2.09
-2.05
-2.005
-1.93
-1.8
-1.655
-1.515
-1.385
-1.3
-1.195
-1.075
-0.98
-0.915
-0.885
-0.855
-0.81
-0.765
-0.705
-0.635
-0.6
-0.56
-0.515
-0.45
-0.4
-0.33
-0.31
-0.295
-0.27
-0.245
-0.165
-0.13
-0.08
-0.05
-0.035
-0.005
0.03
0.055
0.06
0.065
0.08
0.115
0.165
0.2
0.225
0.225
0.24
0.26
0.29
0.34
0.365
0.39
0.405
0.445
0.475
0.52
0.555
0.56
0.585
0.615
0.655
0.7
0.725
0.745
0.77
0.81
0.835
0.865
0.875
0.885
0.895
0.915
0.96
1.005
1.025
1.035
1.06
1.085
1.115
1.12
1.155
1.15
1.16
1.175
1.195
1.19
1.195
1.185
1.17
1.165
1.18
1.175
1.15
1.12
1.07
1.065
1.045
1.04
0.985
0.95
0.895
0.85
0.83
0.79
0.75
0.705
0.655
0.63
0.605
0.575
0.54
0.505
0.46
0.41
0.395
0.385
0.335
0.28
0.225
0.195
0.17
0.14
0.1
0.07
0.045
0.035
0.02
0.005
-0.025
-0.055
-0.075
-0.065
-0.065
-0.05
-0.07
-0.1
-0.12
-0.125
-0.13
-0.13
-0.13
-0.14
-0.165
-0.165
-0.16
-0.16
-0.165
-0.19
-0.195
-0.195
-0.18
-0.155
-0.175
-0.21
-0.23
-0.235
-0.225
-0.2
-0.21
-0.205
-0.21
-0.21
-0.23
-0.21
-0.205
-0.22
-0.23
-0.22
-0.225
-0.23
-0.24
-0.26
-0.265
-0.255
-0.23
-0.215
-0.225
-0.24
-0.255
-0.28
-0.265
-0.245
-0.26
-0.265
-0.28
-0.265
-0.265
-0.255
-0.27
-0.29
-0.29
-0.28
-0.275
-0.265
-0.27
-0.295
-0.305
-0.305
-0.295
-0.29
-0.275
-0.295
-0.31
-0.32
-0.315
-0.3
-0.3
-0.295
-0.3
-0.3
-0.305
-0.285
-0.285
-0.31
-0.32
-0.31
-0.29
-0.285
-0.295
-0.31
-0.315
-0.31
-0.305
-0.3
-0.29
-0.305
-0.305
-0.32
-0.29
-0.3
-0.295
-0.31
-0.32
-0.305
-0.3
-0.28
-0.29
-0.32
-0.34
-0.33
-0.315
-0.315
-0.305
-0.32
-0.33
-0.31
-0.295
-0.29
-0.295
-0.295
-0.31
-0.3
-0.29
-0.285
-0.31
-0.325
-0.335
-0.335
-0.315
-0.29
-0.3
-0.305
-0.315
-0.32
-0.31
-0.295
-0.305
-0.305
-0.315
-0.31
-0.325
-0.315
-0.31
-0.32
-0.32
-0.315
-0.31
-0.3
-0.31
-0.325
-0.34
-0.34
-0.325
-0.305
-0.3
-0.315
-0.335
-0.335
-0.32
-0.32
-0.315
-0.31
-0.33
-0.32
-0.32
-0.305
-0.325
-0.32
-0.305
-0.315
-0.29
-0.285
-0.3
-0.31
-0.33
-0.31
-0.305
-0.285
-0.285
-0.3
-0.305
-0.31
-0.31
-0.285
-0.285
-0.305
-0.325
-0.315
-0.295
-0.285
-0.3
-0.315
-0.32
-0.31
-0.29
-0.27
-0.3
-0.32
-0.325
-0.31
-0.295
-0.28
-0.295
-0.315
-0.305
-0.3
-0.285
-0.28
-0.285
-0.295
-0.305
-0.31
-0.3
-0.295
-0.29
-0.3
-0.305
-0.31
-0.3
-0.285
-0.28
-0.285
-0.31
-0.305
-0.295
-0.29
-0.295
-0.3
-0.3
-0.29
-0.27
-0.265
-0.27
-0.29
-0.285
-0.27
-0.265
-0.265
-0.27
-0.295
-0.275
-0.265
-0.205
-0.185
-0.2
-0.205
-0.23
-0.205
-0.21
-0.2
-0.185
-0.205
-0.195
-0.2
-0.195
-0.185
-0.175
-0.18
-0.18
-0.185
-0.185
-0.175
-0.185
-0.205
-0.23
-0.225
-0.215
-0.22
-0.245
-0.275
-0.28
-0.285
-0.26
-0.26
-0.26
-0.27
-0.28
-0.275
-0.26
-0.25
-0.245
-0.275
-0.28
-0.285
-0.26
-0.23
-0.23
-0.24
-0.255
-0.255
-0.275
-0.25
-0.26
-0.27
-0.24
-0.16
-0.055
0.075
0.155
0.23
0.3
0.41
0.555
0.74
0.95
1.185
1.44
1.715
1.945
2.1
2.15
2.12
1.96
1.66
1.215
0.785
0.5
0.365
0.305
0.305
0.305
0.28
0.24
0.165
0.105
0.05
-0.005
-0.025
-0.065
-0.105
-0.14
-0.165
-0.205
-0.26
-0.28
-0.31
-0.325
-0.345
-0.35
-0.37
-0.395
-0.435
-0.455
-0.465
-0.45
-0.435
-0.44
-0.455
-0.48
-0.485
-0.475
-0.45
-0.455
-0.47
-0.465
-0.47
-0.465
-0.465
-0.485
-0.495
-0.5
-0.505
-0.49
-0.495
-0.515
-0.53
-0.52
-0.525
-0.515
-0.505
-0.525
-0.555
-0.585
-0.585
-0.575
-0.56
-0.555
-0.59
-0.61
-0.62
-0.625
-0.625
-0.63
-0.65
-0.67
-0.685
-0.685
-0.685
-0.695
-0.71
-0.72
-0.715
-0.7
-0.69
-0.695
-0.725
-0.745
-0.735
-0.705
-0.675
-0.67
-0.68
-0.685
-0.65
-0.615
-0.57
-0.565
-0.55
-0.54
-0.53
-0.495
-0.465
-0.43
-0.415
-0.395
-0.37
-0.33
-0.29
-0.25
-0.255
-0.23
-0.21
-0.205
-0.175
-0.165
-0.165
-0.16
-0.16
-0.145
-0.12
-0.15
-0.17
-0.185
-0.17
-0.165
-0.15
-0.155
-0.19
-0.2
-0.19
-0.17
-0.155
-0.155
-0.18
-0.19
-0.19
-0.18
-0.165
-0.17
-0.175
-0.185
-0.205
-0.2
-0.195
-0.205
-0.215
-0.23
-0.21
-0.205
-0.19
-0.21
-0.21
-0.22
-0.23
-0.195
-0.18
-0.19
-0.205
-0.215
-0.205
-0.19
-0.165
-0.18
-0.185
-0.195
-0.215
-0.18
-0.17
-0.175
-0.18
-0.21
-0.21
-0.205
-0.17
-0.17
-0.18
-0.195
-0.2
-0.19
-0.18
-0.2
-0.195
-0.19
-0.2
-0.19
-0.17
-0.175
-0.205
-0.2
-0.185
-0.175
-0.155
-0.16
-0.19
-0.215
-0.2
-0.18
-0.17
-0.18
-0.17
-0.165
-0.16
-0.125
-0.12
-0.11
-0.135
-0.155
-0.155
-0.145
-0.135
-0.135
-0.145
-0.13
-0.13
-0.125
-0.11
-0.115
-0.13
-0.125
-0.11
-0.105
-0.115
-0.14
-0.135
-0.15
-0.145
-0.125
-0.135
-0.155
-0.185
-0.21
-0.205
-0.195
-0.165
-0.17
-0.2
-0.235
-0.215
-0.2
-0.175
-0.175
-0.2
-0.22
-0.23
-0.215
-0.19
-0.19
-0.2
-0.22
-0.215
-0.2
-0.175
-0.19
-0.205
-0.19
-0.125
0.025
0.16
0.29
0.385
0.45
0.565
0.675
0.81
0.965
1.205
1.465
1.74
1.965
2.065
2.055
1.925
1.675
1.29
0.87
0.545
0.335
0.245
0.245
0.245
0.265
0.265
0.235
0.165
0.085
0.055
0.0
-0.01
-0.035
-0.09
-0.13
-0.155
-0.185
-0.215
-0.23
-0.245
-0.28
-0.28
-0.28
-0.305
-0.33
-0.35
-0.375
-0.37
-0.365
-0.36
-0.375
-0.395
-0.41
-0.415
-0.4
-0.37
-0.39
-0.415
-0.445
-0.425
-0.415
-0.405
-0.405
-0.425
-0.44
-0.455
-0.44
-0.425
-0.435
-0.445
-0.48
-0.47
-0.47
-0.455
-0.465
-0.48
-0.505
-0.505
-0.485
-0.485
-0.515
-0.54
-0.55
-0.56
-0.545
-0.54
-0.56
-0.595
-0.62
-0.615
-0.605
-0.6
-0.605
-0.62
-0.635
-0.635
-0.62
-0.615
-0.61
-0.62
-0.62
-0.61
-0.59
-0.57
-0.55
-0.565
-0.545
-0.515
-0.485
-0.445
-0.43
-0.42
-0.41
-0.38
-0.345
-0.305
-0.29
-0.28
-0.28
-0.255
-0.22
-0.195
-0.2
-0.19
-0.205
-0.2
-0.185
-0.16
-0.17
-0.17
-0.195
-0.195
-0.18
-0.165
-0.175
-0.195
-0.19
-0.185
-0.175
-0.17
-0.175
-0.19
-0.2
-0.19
-0.185
-0.185
-0.195
-0.19
-0.215
-0.215
-0.19
-0.17
-0.175
-0.19
-0.21
-0.205
-0.205
-0.18
-0.175
-0.19
-0.21
-0.21
-0.2
-0.18
-0.18
-0.185
-0.195
-0.2
-0.185
-0.18
-0.185
-0.205
-0.215
-0.21
-0.19
-0.175
-0.175
-0.185
-0.205
-0.195
-0.18
-0.155
-0.16
-0.19
-0.185
-0.195
-0.18
-0.165
-0.165
-0.17
-0.185
-0.16
-0.17
-0.155
-0.175
-0.19
-0.22
-0.21
-0.18
-0.165
-0.18
-0.185
-0.21
-0.215
-0.19
-0.165
-0.165
-0.17
-0.195
-0.19
-0.185
-0.16
-0.17
-0.19
-0.185
-0.185
-0.18
-0.175
-0.185
-0.2
-0.19
-0.165
-0.16
-0.16
-0.175
-0.19
-0.195
-0.185
-0.14
-0.12
-0.11
-0.115
-0.12
-0.13
-0.12
-0.095
-0.1
-0.11
-0.12
-0.115
-0.11
-0.1
-0.085
-0.09
-0.095
-0.105
-0.095
-0.09
-0.1
-0.11
-0.115
-0.105
-0.1
-0.09
-0.095
-0.11
-0.135
-0.155
-0.14
-0.13
-0.15
-0.155
-0.175
-0.18
-0.18
-0.155
-0.175
-0.17
-0.19
-0.17
-0.14
-0.13
-0.14
-0.165
-0.185
-0.19
-0.18
-0.17
-0.165
-0.175
-0.185
-0.18
-0.18
-0.17
-0.17
-0.17
-0.17
-0.17
-0.16
-0.16
-0.17
-0.18
-0.185
-0.14
-0.065
0.07
0.21
0.3
0.385
0.5
0.645
0.79
0.97
1.15
1.355
1.56
1.775
1.95
2.065
2.1
2.115
2.085
2.02
1.86
1.54
1.135
0.795
0.58
0.485
0.445
0.425
0.395
0.325
0.3
0.245
0.215
0.155
0.11
0.05
0.04
0.01
-0.005
-0.045
-0.08
-0.115
-0.14
-0.145
-0.16
-0.2
-0.26
-0.32
-0.325
-0.335
-0.32
-0.34
-0.345
-0.38
-0.385
-0.385
-0.36
-0.39
-0.39
-0.39
-0.39
-0.385
-0.38
-0.395
-0.405
-0.42
-0.415
-0.4
-0.39
-0.405
-0.42
-0.445
-0.455
-0.44
-0.42
-0.425
-0.46
-0.475
-0.475
-0.475
-0.47
-0.465
-0.48
-0.49
-0.49
-0.49
-0.485
-0.49
-0.52
-0.54
-0.54
-0.525
-0.52
-0.535
-0.585
-0.605
-0.61
-0.6
-0.565
-0.585
-0.595
-0.615
-0.625
-0.61
-0.61
-0.61
-0.625
-0.65
-0.655
-0.635
-0.63
-0.62
-0.625
-0.625
-0.605
-0.585
-0.545
-0.555
-0.545
-0.555
-0.54
-0.505
-0.475
-0.47
-0.46
-0.43
-0.385
-0.355
-0.325
-0.325
-0.31
-0.3
-0.265
-0.235
-0.21
-0.22
-0.21
-0.2
-0.195
-0.17
-0.15
-0.14
-0.15
-0.165
-0.185
-0.185
-0.16
-0.145
-0.155
-0.17
-0.17
-0.165
-0.145
-0.17
-0.195
-0.19
-0.19
-0.17
-0.155
-0.17
-0.18
-0.2
-0.195
-0.185
-0.175
-0.165
-0.16
-0.17
-0.17
-0.175
-0.155
-0.175
-0.195
-0.2
-0.19
-0.19
-0.18
-0.19
-0.2
-0.21
-0.22
-0.205
-0.195
-0.195
-0.205
-0.225
-0.225
-0.205
-0.205
-0.215
-0.225
-0.225
-0.22
-0.195
-0.195
-0.21
-0.22
-0.245
-0.255
-0.22
-0.2
-0.205
-0.215
-0.21
-0.225
-0.21
-0.2
-0.205
-0.205
-0.21
-0.21
-0.205
-0.2
-0.21
-0.225
-0.235
-0.22
-0.205
-0.165
-0.185
-0.205
-0.23
-0.23
-0.195
-0.19
-0.185
-0.2
-0.19
-0.19
-0.195
-0.19
-0.195
-0.21
-0.205
-0.195
-0.2
-0.185
-0.19
-0.205
-0.21
-0.2
-0.19
-0.18
-0.18
-0.18
-0.19
-0.17
-0.165
-0.15
-0.16
-0.17
-0.175
-0.165
-0.14
-0.14
-0.155
-0.165
-0.16
-0.16
-0.12
-0.11
-0.115
-0.12
-0.135
-0.135
-0.125
-0.095
-0.1
-0.11
-0.115
-0.11
-0.095
-0.1
-0.105
-0.135
-0.15
-0.16
-0.145
-0.16
-0.165
-0.18
-0.21
-0.2
-0.17
-0.165
-0.17
-0.2
-0.215
-0.22
-0.225
-0.22
-0.2
-0.205
-0.22
-0.21
-0.205
-0.2
-0.19
-0.2
-0.21
-0.21
-0.195
-0.18
-0.185
-0.18
-0.19
-0.19
-0.195
-0.175
-0.175
-0.145
-0.07
0.075
0.215
0.33
0.435
0.54
0.65
0.795
0.995
1.185
1.39
1.585
1.77
1.915
2.02
2.07
2.055
2.01
1.905
1.71
1.41
1.04
0.69
0.465
0.35
0.315
0.32
0.325
0.29
0.24
0.185
0.14
0.1
0.065
0.025
0.005
-0.03
-0.045
-0.08
-0.105
-0.145
-0.185
-0.23
-0.255
-0.27
-0.28
-0.325
-0.38
-0.415
-0.435
-0.4
-0.395
-0.415
-0.405
-0.43
-0.44
-0.425
-0.415
-0.42
-0.43
-0.445
-0.45
-0.445
-0.435
-0.46
-0.465
-0.455
-0.46
-0.455
-0.445
-0.485
-0.485
-0.5
-0.49
-0.48
-0.48
-0.49
-0.49
-0.535
-0.54
-0.55
-0.515
-0.55
-0.545
-0.565
-0.57
-0.565
-0.565
-0.58
-0.605
-0.62
-0.625
-0.62
-0.615
-0.63
-0.655
-0.695
-0.685
-0.66
-0.645
-0.64
-0.655
-0.68
-0.69
-0.685
-0.67
-0.66
-0.66
-0.685
-0.69
-0.665
-0.645
-0.645
-0.63
-0.63
-0.605
-0.595
-0.55
-0.555
-0.56
-0.555
-0.515
-0.47
-0.41
-0.4
-0.39
-0.38
-0.365
-0.345
-0.32
-0.295
-0.285
-0.27
-0.25
-0.26
-0.225
-0.23
-0.245
-0.255
-0.245
-0.21
-0.185
-0.19
-0.205
-0.23
-0.24
-0.225
-0.205
-0.21
-0.205
-0.215
-0.22
-0.235
-0.23
-0.205
-0.215
-0.215
-0.215
-0.215
-0.19
-0.195
-0.205
-0.22
-0.23
-0.225
-0.21
-0.21
-0.22
-0.23
-0.24
-0.23
-0.215
-0.23
-0.245
-0.255
-0.245
-0.235
-0.205
-0.215
-0.235
-0.25
-0.255
-0.235
-0.22
-0.215
-0.23
-0.235
-0.24
-0.225
-0.22
-0.225
-0.24
-0.245
-0.24
-0.23
-0.23
-0.235
-0.235
-0.245
-0.25
-0.23
-0.205
-0.215
-0.235
-0.255
-0.25
-0.24
-0.23
-0.23
-0.235
-0.235
-0.225
-0.235
-0.21
-0.23
-0.235
-0.24
-0.235
-0.225
-0.205
-0.205
-0.215
-0.23
-0.24
-0.23
-0.22
-0.215
-0.21
-0.23
-0.25
-0.22
-0.21
-0.22
-0.225
-0.225
-0.22
-0.21
-0.21
-0.2
-0.21
-0.225
-0.215
-0.195
-0.155
-0.145
-0.16
-0.165
-0.175
-0.165
-0.155
-0.15
-0.155
-0.15
-0.155
-0.13
-0.115
-0.135
-0.135
-0.14
-0.145
-0.12
-0.11
-0.115
-0.13
-0.145
-0.15
-0.15
-0.135
-0.15
-0.145
-0.155
-0.18
-0.165
-0.165
-0.185
-0.2
-0.22
-0.225
-0.215
-0.195
-0.195
-0.2
-0.22
-0.225
-0.195
-0.185
-0.19
-0.2
-0.21
-0.215
-0.215
-0.19
-0.195
-0.205
-0.205
-0.205
-0.205
-0.18
-0.185
-0.19
-0.2
-0.215
-0.2
-0.18
-0.12
-0.045
0.075
0.2
0.285
0.34
0.41
0.48
0.6
0.765
0.985
1.205
1.42
1.63
1.83
1.98
2.06
2.065
2.0
1.825
1.525
1.145
0.78
0.52
0.32
0.21
0.155
0.175
0.195
0.205
0.17
0.105
0.05
0.005
-0.04
-0.05
-0.07
-0.125
-0.16
-0.2
-0.205
-0.225
-0.245
-0.27
-0.29
-0.315
-0.335
-0.345
-0.36
-0.39
-0.41
-0.405
-0.385
-0.4
-0.4
-0.415
-0.425
-0.43
-0.41
-0.4
-0.415
-0.44
-0.45
-0.45
-0.445
-0.445
-0.435
-0.435
-0.46
-0.46
-0.46
-0.435
-0.45
-0.455
-0.465
-0.47
-0.465
-0.465
-0.5
-0.515
-0.52
-0.52
-0.5
-0.49
-0.5
-0.515
-0.545
-0.57
-0.555
-0.55
-0.555
-0.58
-0.61
-0.63
-0.625
-0.62
-0.63
-0.655
-0.66
-0.67
-0.665
-0.66
-0.66
-0.665
-0.695
-0.665
-0.65
-0.615
-0.62
-0.625
-0.615
-0.605
-0.565
-0.535
-0.53
-0.515
-0.505
-0.475
-0.45
-0.44
-0.405
-0.395
-0.385
-0.375
-0.33
-0.305
-0.3
-0.3
-0.295
-0.265
-0.235
-0.22
-0.225
-0.235
-0.23
-0.24
-0.205
-0.185
-0.18
-0.19
-0.22
-0.22
-0.21
-0.19
-0.205
-0.21
-0.24
-0.225
-0.22
-0.185
-0.19
-0.215
-0.215
-0.235
-0.225
-0.19
-0.2
-0.215
-0.235
-0.24
-0.225
-0.22
-0.225
-0.225
-0.24
-0.245
-0.245
-0.225
-0.23
-0.255
-0.265
-0.255
-0.235
-0.22
-0.23
-0.22
-0.235
-0.245
-0.245
-0.225
-0.235
-0.235
-0.24
-0.235
-0.235
-0.215
-0.22
-0.235
-0.25
-0.26
-0.23
-0.215
-0.225
-0.225
-0.25
-0.25
-0.23
-0.21
-0.205
-0.215
-0.225
-0.24
-0.235
-0.235
-0.235
-0.235
-0.255
-0.23
-0.22
-0.2
-0.21
-0.23
-0.255
-0.25
-0.24
-0.22
-0.225
-0.225
-0.245
-0.26
-0.245
-0.225
-0.22
-0.235
-0.25
-0.245
-0.235
-0.22
-0.22
-0.225
-0.25
-0.25
-0.23
-0.21
-0.21
-0.215
-0.24
-0.24
-0.21
-0.195
-0.17
-0.175
-0.18
-0.19
-0.185
-0.175
-0.165
-0.18
-0.185
-0.175
-0.175
-0.165
-0.15
-0.175
-0.175
-0.17
-0.16
-0.145
-0.155
-0.175
-0.175
-0.2
-0.19
-0.19
-0.18
-0.19
-0.21
-0.225
-0.225
-0.22
-0.235
-0.23
-0.245
-0.26
-0.25
-0.24
-0.25
-0.245
-0.275
-0.25
-0.24
-0.24
-0.25
-0.26
-0.275
-0.265
-0.24
-0.225
-0.225
-0.24
-0.255
-0.26
-0.26
-0.235
-0.22
-0.245
-0.235
-0.24
-0.245
-0.21
-0.135
-0.025
0.095
0.22
0.31
0.395
0.455
0.53
0.58
0.665
0.82
1.045
1.27
1.48
1.685
1.86
1.985
2.025
1.985
1.77
1.42
1.01
0.68
0.475
0.365
0.295
0.27
0.26
0.265
0.27
0.215
0.155
0.08
0.045
0.025
-0.015
-0.05
-0.085
-0.14
-0.175
-0.185
-0.21
-0.24
-0.28
-0.305
-0.32
-0.35
-0.35
-0.37
-0.41
-0.425
-0.43
-0.425
-0.42
-0.42
-0.44
-0.46
-0.45
-0.445
-0.43
-0.42
-0.45
-0.48
-0.48
-0.465
-0.45
-0.45
-0.465
-0.465
-0.475
-0.45
-0.45
-0.465
-0.5
-0.52
-0.51
-0.505
-0.48
-0.47
-0.485
-0.52
-0.525
-0.535
-0.52
-0.515
-0.525
-0.54
-0.55
-0.555
-0.525
-0.54
-0.555
-0.59
-0.595
-0.58
-0.565
-0.58
-0.605
-0.64
-0.645
-0.64
-0.625
-0.635
-0.66
-0.675
-0.68
-0.685
-0.675
-0.675
-0.675
-0.675
-0.655
-0.645
-0.645
-0.65
-0.64
-0.65
-0.635
-0.59
-0.57
-0.55
-0.55
-0.55
-0.535
-0.5
-0.465
-0.425
-0.415
-0.41
-0.385
-0.38
-0.35
-0.325
-0.32
-0.315
-0.295
-0.27
-0.24
-0.23
-0.225
-0.245
-0.25
-0.22
-0.2
-0.18
-0.185
-0.205
-0.225
-0.215
-0.21
-0.21
-0.215
-0.22
-0.205
-0.2
-0.175
-0.18
-0.2
-0.21
-0.205
-0.195
-0.18
-0.17
-0.19
-0.19
-0.22
-0.21
-0.205
-0.205
-0.21
-0.21
-0.215
-0.2
-0.2
-0.21
-0.21
-0.22
-0.245
-0.235
-0.22
-0.2
-0.215
-0.23
-0.25
-0.24
-0.235
-0.245
-0.24
-0.235
-0.24
-0.235
-0.235
-0.225
-0.24
-0.25
-0.26
-0.23
-0.22
-0.225
-0.235
-0.25
-0.245
-0.25
-0.23
-0.225
-0.245
-0.235
-0.225
-0.215
-0.21
-0.22
-0.24
-0.25
-0.245
-0.22
-0.215
-0.21
-0.235
-0.255
-0.255
-0.225
-0.205
-0.19
-0.215
-0.21
-0.215
-0.215
-0.215
-0.215
-0.235
-0.24
-0.235
-0.21
-0.19
-0.19
-0.215
-0.23
-0.235
-0.215
-0.2
-0.18
-0.195
-0.21
-0.22
-0.2
-0.195
-0.2
-0.2
-0.21
-0.18
-0.17
-0.16
-0.145
-0.16
-0.165
-0.165
-0.145
-0.14
-0.14
-0.155
-0.185
-0.165
-0.15
-0.115
-0.11
-0.11
-0.155
-0.145
-0.155
-0.135
-0.12
-0.13
-0.135
-0.15
-0.135
-0.145
-0.16
-0.165
-0.185
-0.19
-0.195
-0.19
-0.195
-0.215
-0.225
-0.225
-0.21
-0.2
-0.18
-0.205
-0.235
-0.24
-0.225
-0.19
-0.2
-0.195
-0.21
-0.22
-0.21
-0.205
-0.2
-0.195
-0.21
-0.205
-0.185
-0.18
-0.185
-0.19
-0.19
-0.135
-0.02
0.125
0.255
0.36
0.455
0.58
0.745
0.94
1.1
1.25
1.385
1.545
1.775
1.95
2.02
1.99
1.835
1.57
1.185
0.825
0.56
0.4
0.325
0.31
0.31
0.3
0.265
0.215
0.17
0.135
0.095
0.065
0.03
-0.03
-0.09
-0.12
-0.12
-0.135
-0.16
-0.21
-0.25
-0.28
-0.305
-0.305
-0.33
-0.35
-0.395
-0.4
-0.385
-0.375
-0.38
-0.405
-0.41
-0.415
-0.41
-0.405
-0.43
-0.435
-0.44
-0.44
-0.42
-0.415
-0.42
-0.435
-0.47
-0.47
-0.47
-0.465
-0.45
-0.465
-0.48
-0.475
-0.475
-0.47
-0.5
-0.5
-0.5
-0.51
-0.52
-0.515
-0.52
-0.545
-0.56
-0.575
-0.57
-0.56
-0.555
-0.575
-0.595
-0.6
-0.62
-0.61
-0.605
-0.615
-0.66
-0.675
-0.68
-0.66
-0.665
-0.66
-0.675
-0.675
-0.67
-0.655
-0.66
-0.675
-0.67
-0.665
-0.645
-0.62
-0.6
-0.59
-0.61
-0.59
-0.535
-0.51
-0.465
-0.45
-0.45
-0.42
-0.375
-0.355
-0.325
-0.315
-0.295
-0.275
-0.24
-0.225
-0.23
-0.25
-0.235
-0.23
-0.2
-0.175
-0.18
-0.185
-0.195
-0.195
-0.18
-0.155
-0.165
-0.16
-0.17
-0.185
-0.185
-0.17
-0.18
-0.195
-0.205
-0.19
-0.175
-0.18
-0.165
-0.19
-0.2
-0.215
-0.19
-0.165
-0.165
-0.185
-0.205
-0.205
-0.195
-0.185
-0.185
-0.185
-0.17
-0.185
-0.18
-0.175
-0.185
-0.2
-0.205
-0.2
-0.2
-0.19
-0.215
-0.21
-0.23
-0.23
-0.195
-0.2
-0.185
-0.195
-0.23
-0.215
-0.215
-0.21
-0.195
-0.195
-0.205
-0.21
-0.19
-0.18
-0.175
-0.2
-0.2
-0.205
-0.2
-0.185
-0.185
-0.215
-0.215
-0.215
-0.2
-0.17
-0.155
-0.17
-0.175
-0.175
-0.185
-0.175
-0.18
-0.19
-0.2
-0.19
-0.19
-0.165
-0.16
-0.19
-0.2
-0.195
-0.17
-0.15
-0.165
-0.17
-0.19
-0.185
-0.165
-0.125
-0.115
-0.115
-0.125
-0.135
-0.12
-0.125
-0.115
-0.11
-0.12
-0.115
-0.105
-0.105
-0.095
-0.12
-0.115
-0.11
-0.095
-0.085
-0.1
-0.11
-0.14
-0.155
-0.14
-0.11
-0.13
-0.145
-0.19
-0.19
-0.195
-0.185
-0.18
-0.19
-0.21
-0.2
-0.2
-0.195
-0.185
-0.2
-0.215
-0.21
-0.21
-0.2
-0.18
-0.19
-0.205
-0.195
-0.19
-0.18
-0.18
-0.18
-0.18
-0.185
-0.155
-0.15
-0.14
-0.16
-0.13
-0.04
0.115
0.265
0.385
0.525
0.65
0.835
1.05
1.295
1.545
1.775
1.965
2.095
2.15
2.165
2.115
1.985
1.675
1.21
0.765
0.48
0.34
0.29
0.26
0.255
0.23
0.2
0.155
0.09
0.025
-0.02
-0.03
-0.015
-0.04
-0.06
-0.125
-0.15
-0.185
-0.205
-0.225
-0.255
-0.29
-0.315
-0.33
-0.34
-0.345
-0.38
-0.38
-0.39
-0.385
-0.395
-0.395
-0.39
-0.41
-0.415
-0.4
-0.39
-0.395
-0.405
-0.435
-0.44
-0.42
-0.425
-0.415
-0.43
-0.465
-0.46
-0.445
-0.455
-0.44
-0.46
-0.47
-0.46
-0.47
-0.455
-0.47
-0.48
-0.5
-0.49
-0.49
-0.5
-0.5
-0.53
-0.55
-0.55
-0.55
-0.545
-0.565
-0.575
-0.595
-0.61
-0.61
-0.595
-0.59
-0.6
-0.62
-0.62
-0.625
-0.615
-0.625
-0.63
-0.62
-0.625
-0.605
-0.59
-0.57
-0.565
-0.565
-0.535
-0.505
-0.485
-0.47
-0.46
-0.46
-0.42
-0.38
-0.345
-0.305
-0.305
-0.29
-0.275
-0.245
-0.215
-0.205
-0.19
-0.195
-0.2
