Lead II
0.8
0.315
-0.17
-0.47
-0.56
-0.515
-0.42
-0.41
-0.465
-0.52
-0.55
-0.565
-0.585
-0.595
-0.59
-0.59
-0.57
-0.555
-0.56
-0.59
-0.625
-0.61
-0.575
-0.51
-0.45
-0.41
-0.39
-0.35
-0.295
-0.22
-0.16
-0.115
-0.095
-0.055
-0.04
-0.025
-0.02
0.005
0.0
-0.005
0.01
0.03
0.045
0.055
0.055
0.05
0.08
0.08
0.095
0.1
0.095
0.09
0.105
0.12
0.145
0.165
0.16
0.155
0.17
0.19
0.2
0.21
0.22
0.23
0.255
0.285
0.3
0.31
0.3
0.315
0.335
0.36
0.38
0.41
0.41
0.41
0.42
0.435
0.445
0.45
0.465
0.46
0.47
0.495
0.495
0.465
0.425
0.395
0.365
0.365
0.355
0.33
0.295
0.26
0.235
0.21
0.185
0.155
0.125
0.105
0.075
0.075
0.075
0.035
0.01
-0.02
-0.04
-0.07
-0.055
-0.07
-0.07
-0.09
-0.105
-0.09
-0.085
-0.09
-0.11
-0.12
-0.12
-0.12
-0.085
-0.095
-0.105
-0.115
-0.115
-0.115
-0.095
-0.105
-0.115
-0.11
-0.1
-0.08
-0.07
-0.075
-0.09
-0.115
-0.105
-0.095
-0.075
-0.075
-0.07
-0.075
-0.085
-0.095
-0.06
-0.085
-0.085
-0.085
-0.08
-0.06
-0.045
-0.06
-0.08
-0.1
-0.11
-0.11
-0.07
-0.08
-0.105
-0.105
-0.08
-0.065
-0.055
-0.05
-0.05
-0.05
-0.025
0.015
0.025
0.04
0.045
0.035
0.06
0.085
0.11
0.115
0.12
0.12
0.125
0.16
0.165
0.135
0.105
0.08
0.055
0.035
0.015
-0.025
-0.08
-0.1
-0.12
-0.125
-0.135
-0.145
-0.165
-0.19
-0.175
-0.145
-0.145
-0.165
-0.19
-0.21
-0.205
-0.19
-0.17
-0.175
-0.185
-0.18
-0.17
-0.165
-0.16
-0.155
-0.18
-0.165
-0.15
-0.125
-0.095
-0.075
-0.075
-0.035
0.055
0.18
0.365
0.6
0.87
1.135
1.395
1.525
1.445
1.1
0.58
0.07
-0.295
-0.44
-0.405
-0.33
-0.335
-0.375
-0.435
-0.455
-0.485
-0.5
-0.505
-0.5
-0.485
-0.465
-0.47
-0.485
-0.52
-0.525
-0.505
-0.465
-0.39
-0.34
-0.305
-0.29
-0.22
-0.155
-0.07
-0.03
-0.01
0.0
0.02
0.035
0.07
0.07
0.05
0.045
0.055
0.08
0.12
0.125
0.115
0.11
0.115
0.145
0.145
0.145
0.135
0.115
0.15
0.195
0.205
0.205
0.2
0.2
0.21
0.25
0.265
0.28
0.285
0.3
0.31
0.33
0.355
0.355
0.365
0.36
0.395
0.42
0.445
0.44
0.435
0.46
0.465
0.49
0.5
0.51
0.51
0.5
0.49
0.475
0.47
0.435
0.42
0.39
0.375
0.35
0.35
0.3
0.255
0.215
0.185
0.165
0.165
0.145
0.105
0.07
0.05
0.05
0.035
0.01
-0.03
-0.045
-0.04
-0.04
-0.035
-0.04
-0.07
-0.115
-0.095
-0.095
-0.065
-0.07
-0.08
-0.095
-0.095
-0.095
-0.09
-0.1
-0.115
-0.115
-0.1
-0.08
-0.06
-0.075
-0.09
-0.095
-0.1
-0.08
-0.06
-0.07
-0.09
-0.09
-0.085
-0.08
-0.07
-0.08
-0.105
-0.115
-0.1
-0.075
-0.08
-0.085
-0.125
-0.115
-0.125
-0.12
-0.115
-0.12
-0.125
-0.12
-0.125
-0.115
-0.13
-0.125
-0.13
-0.135
-0.11
-0.085
-0.05
-0.035
-0.035
-0.02
-0.015
-0.01
0.015
0.04
0.05
0.07
0.105
0.115
0.11
0.115
0.09
0.065
0.07
0.07
0.06
0.035
0.0
-0.05
-0.095
-0.125
-0.145
-0.16
-0.17
-0.185
-0.19
-0.185
-0.18
-0.195
-0.225
-0.255
-0.26
-0.265
-0.225
-0.24
-0.255
-0.27
-0.27
-0.26
-0.24
-0.26
-0.27
-0.29
-0.275
-0.245
-0.225
-0.23
-0.235
-0.24
-0.225
-0.185
-0.13
-0.035
0.11
0.305
0.575
0.87
1.145
1.335
1.37
1.18
0.76
0.275
-0.17
-0.485
-0.575
-0.535
-0.475
-0.47
-0.5
-0.53
-0.565
-0.605
-0.625
-0.64
-0.62
-0.615
-0.62
-0.65
-0.66
-0.655
-0.65
-0.645
-0.625
-0.585
-0.555
-0.51
-0.455
-0.415
-0.365
-0.305
-0.235
-0.2
-0.18
-0.195
-0.185
-0.17
-0.155
-0.135
-0.125
-0.115
-0.125
-0.11
-0.1
-0.085
-0.08
-0.1
-0.08
-0.065
-0.04
-0.03
-0.005
0.005
-0.01
-0.025
-0.02
-0.01
0.015
0.03
0.035
0.05
0.07
0.09
0.11
0.11
0.13
0.12
0.145
0.185
0.205
0.23
0.22
0.22
0.23
0.245
0.265
0.285
0.3
0.305
0.31
0.315
0.345
0.345
0.32
0.31
0.29
0.3
0.305
0.29
0.24
0.185
0.15
0.14
0.13
0.08
0.035
0.0
-0.01
-0.01
-0.025
-0.055
-0.095
-0.13
-0.16
-0.17
-0.16
-0.17
-0.195
-0.215
-0.245
-0.26
-0.235
-0.26
-0.28
-0.29
-0.285
-0.28
-0.265
-0.275
-0.29
-0.32
-0.32
-0.295
-0.275
-0.265
-0.275
-0.285
-0.27
-0.265
-0.255
-0.27
-0.28
-0.28
-0.27
-0.255
-0.235
-0.24
-0.265
-0.27
-0.265
-0.265
-0.23
-0.235
-0.25
-0.245
-0.25
-0.245
-0.24
-0.26
-0.27
-0.275
-0.26
-0.245
-0.23
-0.23
-0.245
-0.26
-0.26
-0.255
-0.255
-0.26
-0.26
-0.265
-0.255
-0.225
-0.175
-0.185
-0.195
-0.195
-0.195
-0.155
-0.145
-0.115
-0.115
-0.09
-0.07
-0.035
-0.02
-0.035
-0.03
-0.045
-0.035
-0.025
-0.035
-0.065
-0.11
-0.175
-0.21
-0.245
-0.245
-0.26
-0.265
-0.285
-0.3
-0.31
-0.32
-0.33
-0.335
-0.36
-0.365
-0.345
-0.34
-0.33
-0.35
-0.375
-0.375
-0.37
-0.37
-0.36
-0.365
-0.355
-0.35
-0.335
-0.325
-0.335
-0.36
-0.36
-0.335
-0.325
-0.3
-0.26
-0.225
-0.13
-0.005
0.19
0.43
0.67
0.92
1.135
1.27
1.25
1.005
0.575
0.075
-0.36
-0.64
-0.705
-0.645
-0.575
-0.585
-0.64
-0.67
-0.685
-0.71
-0.75
-0.78
-0.78
-0.765
-0.725
-0.73
-0.74
-0.765
-0.79
-0.775
-0.75
-0.7
-0.66
-0.615
-0.58
-0.535
-0.47
-0.4
-0.355
-0.305
-0.275
-0.25
-0.24
-0.21
-0.19
-0.195
-0.19
-0.175
-0.16
-0.14
-0.135
-0.15
-0.14
-0.135
-0.12
-0.095
-0.07
-0.075
-0.075
-0.08
-0.06
-0.045
-0.035
-0.025
-0.02
-0.01
0.005
0.04
0.05
0.04
0.025
0.035
0.08
0.11
0.12
0.13
0.145
0.15
0.185
0.2
0.205
0.195
0.215
0.245
0.265
0.29
0.31
0.31
0.29
0.31
0.315
0.34
0.335
0.33
0.31
0.29
0.285
0.3
0.26
0.225
0.185
0.17
0.155
0.15
0.12
0.085
0.06
0.015
0.01
-0.02
-0.045
-0.08
-0.105
-0.095
-0.08
-0.085
-0.11
-0.13
-0.16
-0.175
-0.17
-0.18
-0.18
-0.18
-0.19
-0.195
-0.205
-0.18
-0.18
-0.2
-0.215
-0.21
-0.195
-0.18
-0.165
-0.17
-0.185
-0.18
-0.18
-0.175
-0.19
-0.18
-0.185
-0.18
-0.165
-0.15
-0.135
-0.155
-0.175
-0.165
-0.16
-0.15
-0.13
-0.13
-0.14
-0.135
-0.12
-0.12
-0.12
-0.13
-0.155
-0.145
-0.13
-0.105
-0.105
-0.12
-0.135
-0.14
-0.13
-0.13
-0.13
-0.125
-0.14
-0.13
-0.12
-0.1
-0.105
-0.105
-0.11
-0.095
-0.075
-0.03
-0.025
-0.005
-0.005
0.01
0.01
0.04
0.05
0.065
0.075
0.09
0.11
0.125
0.13
0.115
0.09
0.06
0.06
0.04
0.015
-0.025
-0.075
-0.1
-0.11
-0.115
-0.13
-0.15
-0.18
-0.18
-0.185
-0.18
-0.16
-0.17
-0.19
-0.195
-0.2
-0.195
-0.215
-0.225
-0.22
-0.22
-0.195
-0.185
-0.19
-0.22
-0.21
-0.215
-0.185
-0.175
-0.16
-0.15
-0.155
-0.125
-0.11
-0.055
0.005
0.075
0.195
0.385
0.635
0.915
1.155
1.37
1.485
1.47
1.265
0.85
0.35
-0.105
-0.42
-0.52
-0.485
-0.395
-0.39
-0.43
-0.465
-0.51
-0.54
-0.565
-0.57
-0.555
-0.545
-0.53
-0.52
-0.53
-0.565
-0.57
-0.585
-0.55
-0.5
-0.435
-0.4
-0.365
-0.33
-0.27
-0.2
-0.12
-0.07
-0.06
-0.045
-0.025
-0.005
0.035
0.035
0.025
0.015
0.02
0.03
0.055
0.075
0.08
0.08
0.075
0.1
0.1
0.11
0.1
0.1
0.095
0.13
0.16
0.185
0.19
0.18
0.175
0.19
0.21
0.235
0.245
0.25
0.27
0.3
0.315
0.32
0.325
0.325
0.34
0.365
0.405
0.425
0.425
0.425
0.43
0.455
0.475
0.475
0.48
0.48
0.485
0.505
0.525
0.525
0.485
0.465
0.445
0.435
0.44
0.395
0.36
0.325
0.31
0.305
0.275
0.26
0.195
0.165
0.13
0.13
0.135
0.12
0.09
0.05
0.025
0.015
0.015
0.0
-0.035
-0.05
-0.045
-0.025
-0.025
-0.055
-0.08
-0.115
-0.105
-0.095
-0.07
-0.075
-0.09
-0.11
-0.115
-0.095
-0.085
-0.1
-0.11
-0.12
-0.115
-0.1
-0.065
-0.065
-0.09
-0.115
-0.11
-0.075
-0.07
-0.065
-0.08
-0.09
-0.085
-0.065
-0.055
-0.055
-0.08
-0.09
-0.09
-0.08
-0.05
-0.05
-0.06
-0.075
-0.08
-0.075
-0.065
-0.065
-0.075
-0.1
-0.09
-0.09
-0.07
-0.07
-0.08
-0.12
-0.115
-0.095
-0.08
-0.085
-0.11
-0.11
-0.09
-0.075
-0.045
-0.04
-0.045
-0.05
-0.03
0.005
0.045
0.055
0.045
0.045
0.065
0.095
0.14
0.14
0.13
0.13
0.14
0.15
0.17
0.15
0.115
0.07
0.04
0.02
0.005
-0.015
-0.06
-0.085
-0.105
-0.1
-0.1
-0.11
-0.15
-0.18
-0.185
-0.155
-0.13
-0.14
-0.155
-0.175
-0.18
-0.17
-0.165
-0.17
-0.19
-0.21
-0.2
-0.175
-0.15
-0.165
-0.175
-0.195
-0.2
-0.18
-0.16
-0.145
-0.15
-0.14
-0.12
-0.05
0.045
0.17
0.33
0.53
0.805
1.07
1.295
1.455
1.475
1.3
0.95
0.475
0.025
-0.345
-0.52
-0.525
-0.44
-0.395
-0.41
-0.445
-0.5
-0.55
-0.605
-0.61
-0.57
-0.555
-0.53
-0.56
-0.575
-0.57
-0.585
-0.58
-0.575
-0.555
-0.51
-0.47
-0.415
-0.375
-0.335
-0.29
-0.225
-0.175
-0.12
-0.095
-0.085
-0.09
-0.06
-0.03
-0.005
0.0
-0.005
-0.005
0.0
0.0
0.02
0.02
0.02
0.035
0.05
0.055
0.07
0.06
0.05
0.04
0.05
0.085
0.115
0.11
0.125
0.135
0.135
0.145
0.14
0.145
0.16
0.16
0.17
0.205
0.24
0.26
0.25
0.24
0.25
0.275
0.29
0.3
0.295
0.3
0.335
0.36
0.385
0.385
0.375
0.36
0.365
0.39
0.415
0.42
0.385
0.38
0.375
0.35
0.355
0.315
0.265
0.245
0.22
0.215
0.21
0.19
0.15
0.12
0.085
0.06
0.055
0.02
-0.01
-0.04
-0.05
-0.055
-0.045
-0.075
-0.12
-0.155
-0.16
-0.15
-0.15
-0.165
-0.165
-0.175
-0.195
-0.18
-0.175
-0.195
-0.205
-0.22
-0.215
-0.225
-0.18
-0.18
-0.19
-0.21
-0.225
-0.21
-0.195
-0.185
-0.19
-0.19
-0.195
-0.18
-0.165
-0.18
-0.18
-0.205
-0.21
-0.21
-0.185
-0.165
-0.175
-0.185
-0.18
-0.19
-0.175
-0.18
-0.195
-0.22
-0.21
-0.195
-0.17
-0.185
-0.195
-0.22
-0.21
-0.22
-0.215
-0.23
-0.225
-0.22
-0.22
-0.21
-0.2
-0.21
-0.225
-0.23
-0.22
-0.195
-0.16
-0.145
-0.135
-0.15
-0.14
-0.11
-0.095
-0.075
-0.06
-0.055
-0.03
0.0
0.02
0.0
-0.005
-0.015
-0.035
-0.025
-0.03
-0.045
-0.085
-0.135
-0.155
-0.195
-0.195
-0.24
-0.265
-0.29
-0.315
-0.305
-0.28
-0.305
-0.32
-0.33
-0.35
-0.345
-0.35
-0.355
-0.36
-0.39
-0.36
-0.35
-0.345
-0.345
-0.365
-0.375
-0.39
-0.375
-0.35
-0.35
-0.355
-0.365
-0.35
-0.34
-0.325
-0.315
-0.305
-0.255
-0.16
-0.005
0.205
0.415
0.67
0.905
1.12
1.245
1.19
0.915
0.465
0.0
-0.38
-0.625
-0.68
-0.645
-0.615
-0.64
-0.665
-0.695
-0.71
-0.73
-0.775
-0.79
-0.785
-0.77
-0.76
-0.785
-0.8
-0.82
-0.83
-0.8
-0.755
-0.705
-0.68
-0.66
-0.615
-0.58
-0.52
-0.45
-0.395
-0.355
-0.31
-0.3
-0.29
-0.275
-0.29
-0.285
-0.265
-0.24
-0.21
-0.215
-0.21
-0.215
-0.21
-0.195
-0.185
-0.175
-0.18
-0.195
-0.16
-0.15
-0.125
-0.13
-0.13
-0.13
-0.12
-0.1
-0.08
-0.065
-0.04
-0.04
-0.015
-0.005
-0.005
-0.005
-0.01
0.005
0.015
0.05
0.1
0.1
0.095
0.07
0.095
0.125
0.15
0.16
0.155
0.15
0.17
0.195
0.22
0.235
0.205
0.195
0.185
0.185
0.17
0.145
0.125
0.085
0.08
0.06
0.055
0.025
-0.03
-0.065
-0.09
-0.09
-0.1
-0.12
-0.165
-0.205
-0.23
-0.245
-0.245
-0.275
-0.305
-0.315
-0.305
-0.29
-0.3
-0.315
-0.345
-0.37
-0.37
-0.37
-0.35
-0.355
-0.38
-0.385
-0.375
-0.38
-0.375
-0.37
-0.39
-0.39
-0.385
-0.37
-0.35
-0.345
-0.355
-0.35
-0.36
-0.355
-0.355
-0.35
-0.36
-0.385
-0.365
-0.33
-0.32
-0.32
-0.34
-0.345
-0.35
-0.34
-0.325
-0.33
-0.355
-0.35
-0.335
-0.315
-0.3
-0.305
-0.335
-0.345
-0.345
-0.325
-0.32
-0.32
-0.325
-0.34
-0.325
-0.32
-0.315
-0.32
-0.335
-0.335
-0.325
-0.29
-0.26
-0.255
-0.255
-0.26
-0.255
-0.245
-0.22
-0.195
-0.19
-0.18
-0.155
-0.125
-0.095
-0.08
-0.095
-0.125
-0.1
-0.085
-0.075
-0.08
-0.125
-0.135
-0.14
-0.16
-0.195
-0.24
-0.29
-0.325
-0.32
-0.31
-0.305
-0.31
-0.335
-0.34
-0.345
-0.35
-0.365
-0.37
-0.365
-0.38
-0.375
-0.36
-0.335
-0.34
-0.36
-0.36
-0.375
-0.35
-0.335
-0.34
-0.34
-0.335
-0.325
-0.29
-0.28
-0.3
-0.31
-0.315
-0.28
-0.235
-0.165
-0.085
0.03
0.195
0.415
0.69
0.955
1.19
1.325
1.35
1.18
0.83
0.37
-0.095
-0.455
-0.645
-0.655
-0.565
-0.535
-0.555
-0.6
-0.625
-0.64
-0.66
-0.68
-0.685
-0.685
-0.7
-0.7
-0.675
-0.675
-0.69
-0.705
-0.705
-0.67
-0.645
-0.595
-0.575
-0.56
-0.535
-0.47
-0.39
-0.31
-0.24
-0.2
-0.195
-0.18
-0.16
-0.135
-0.12
-0.125
-0.105
-0.095
-0.065
-0.04
-0.045
-0.065
-0.085
-0.065
-0.035
-0.005
-0.01
0.005
0.01
0.035
0.025
0.06
0.055
0.045
0.055
0.075
0.1
0.13
0.135
0.14
0.135
0.14
0.16
0.185
0.195
0.205
0.205
0.225
0.255
0.285
0.295
0.28
0.285
0.3
0.325
0.345
0.36
0.385
0.36
0.375
0.38
0.4
0.39
0.375
0.36
0.355
0.36
0.36
0.34
0.31
0.28
0.24
0.225
0.2
0.17
0.13
0.105
0.1
0.09
0.07
0.04
0.015
-0.025
-0.04
-0.045
-0.04
-0.06
-0.09
-0.105
-0.105
-0.11
-0.12
-0.15
-0.175
-0.17
-0.17
-0.155
-0.14
-0.145
-0.16
-0.185
-0.185
-0.185
-0.17
-0.18
-0.175
-0.18
-0.17
-0.155
-0.14
-0.155
-0.175
-0.18
-0.185
-0.17
-0.16
-0.145
-0.155
-0.17
-0.16
-0.145
-0.125
-0.13
-0.145
-0.155
-0.145
-0.125
-0.115
-0.115
-0.115
-0.125
-0.125
-0.115
-0.115
-0.12
-0.135
-0.14
-0.125
-0.115
-0.105
-0.115
-0.125
-0.14
-0.135
-0.125
-0.105
-0.105
-0.105
-0.115
-0.095
-0.09
-0.075
-0.085
-0.09
-0.075
-0.05
-0.02
0.015
0.01
0.02
0.025
0.04
0.06
0.075
0.09
0.09
0.085
0.095
0.13
0.15
0.125
0.105
0.095
0.095
0.06
0.045
0.02
-0.035
-0.08
-0.09
-0.11
-0.115
-0.145
-0.17
-0.195
-0.21
-0.215
-0.19
-0.18
-0.185
-0.195
-0.195
-0.195
-0.205
-0.215
-0.235
-0.255
-0.24
-0.215
-0.205
-0.195
-0.21
-0.23
-0.22
-0.21
-0.205
-0.205
-0.215
-0.2
-0.185
-0.16
-0.125
-0.105
-0.08
-0.025
0.08
0.22
0.43
0.645
0.87
1.1
1.315
1.44
1.43
1.17
0.755
0.29
-0.12
-0.395
-0.495
-0.465
-0.42
-0.415
-0.445
-0.48
-0.505
-0.535
-0.6
-0.63
-0.615
-0.585
-0.53
-0.535
-0.555
-0.575
-0.595
-0.6
-0.58
-0.56
-0.535
-0.48
-0.43
-0.375
-0.325
-0.285
-0.235
-0.195
-0.15
-0.105
-0.075
-0.055
-0.05
-0.055
-0.045
-0.03
-0.015
-0.025
-0.03
-0.045
-0.015
0.005
0.025
0.035
0.03
0.025
0.02
0.035
0.04
0.06
0.045
0.045
0.075
0.095
0.125
0.11
0.115
0.1
0.12
0.15
0.175
0.18
0.195
0.205
0.22
0.24
0.26
0.26
0.25
0.26
0.285
0.315
0.345
0.35
0.35
0.355
0.36
0.385
0.39
0.395
0.39
0.405
0.405
0.415
0.425
0.39
0.365
0.325
0.305
0.29
0.29
0.255
0.22
0.19
0.155
0.135
0.11
0.08
0.055
0.015
-0.005
-0.015
-0.005
-0.035
-0.06
-0.095
-0.12
-0.125
-0.12
-0.13
-0.14
-0.17
-0.17
-0.165
-0.165
-0.18
-0.21
-0.225
-0.21
-0.195
-0.18
-0.2
-0.19
-0.225
-0.24
-0.22
-0.21
-0.215
-0.22
-0.21
-0.195
-0.175
-0.165
-0.175
-0.2
-0.215
-0.205
-0.19
-0.16
-0.155
-0.145
-0.17
-0.185
-0.165
-0.155
-0.165
-0.17
-0.185
-0.175
-0.15
-0.15
-0.15
-0.18
-0.195
-0.195
-0.175
-0.16
-0.16
-0.175
-0.19
-0.185
-0.18
-0.165
-0.17
-0.195
-0.205
-0.185
-0.16
-0.145
-0.145
-0.155
-0.16
-0.135
-0.115
-0.09
-0.08
-0.095
-0.08
-0.06
-0.025
-0.005
-0.005
0.005
0.005
0.015
0.04
0.045
0.04
0.03
-0.01
-0.04
-0.055
-0.08
-0.13
-0.195
-0.21
-0.215
-0.225
-0.23
-0.245
-0.28
-0.285
-0.295
-0.27
-0.27
-0.27
-0.305
-0.32
-0.31
-0.315
-0.295
-0.305
-0.315
-0.31
-0.32
-0.3
-0.275
-0.295
-0.31
-0.31
-0.295
-0.265
-0.255
-0.245
-0.245
-0.22
-0.16
-0.085
0.03
0.2
0.405
0.655
0.92
1.16
1.305
1.315
1.14
0.785
0.315
-0.125
-0.44
-0.58
-0.595
-0.53
-0.515
-0.525
-0.545
-0.6
-0.655
-0.7
-0.715
-0.71
-0.67
-0.655
-0.67
-0.685
-0.71
-0.72
-0.72
-0.705
-0.67
-0.645
-0.59
-0.53
-0.49
-0.43
-0.39
-0.345
-0.305
-0.265
-0.24
-0.22
-0.21
-0.21
-0.195
-0.175
-0.165
-0.17
-0.16
-0.16
-0.165
-0.145
-0.125
-0.12
-0.12
-0.125
-0.12
-0.11
-0.11
-0.115
-0.1
-0.105
-0.08
-0.06
-0.035
-0.045
-0.035
-0.045
-0.035
-0.02
-0.005
0.015
0.035
0.045
0.06
0.095
0.095
0.105
0.09
0.095
0.11
0.15
0.175
0.195
0.19
0.175
0.205
0.205
0.23
0.235
0.205
0.215
0.23
0.23
0.225
0.215
0.18
0.135
0.13
0.105
0.09
0.065
0.04
0.005
-0.01
-0.04
-0.05
-0.09
-0.11
-0.13
-0.155
-0.17
-0.17
-0.2
-0.23
-0.25
-0.265
-0.285
-0.3
-0.305
-0.32
-0.34
-0.33
-0.33
-0.33
-0.33
-0.36
-0.39
-0.385
-0.375
-0.36
-0.35
-0.35
-0.36
-0.35
-0.35
-0.36
-0.37
-0.385
-0.395
-0.385
-0.36
-0.34
-0.345
-0.355
-0.395
-0.395
-0.38
-0.365
-0.36
-0.365
-0.36
-0.355
-0.355
-0.335
-0.35
-0.38
-0.39
-0.365
-0.355
-0.34
-0.335
-0.365
-0.38
-0.39
-0.375
-0.37
-0.365
-0.39
-0.385
-0.39
-0.37
-0.345
-0.36
-0.375
-0.4
-0.385
-0.345
-0.305
-0.29
-0.3
-0.29
-0.285
-0.255
-0.245
-0.23
-0.21
-0.205
-0.18
-0.14
-0.11
-0.135
-0.165
-0.18
-0.185
-0.205
-0.185
-0.195
-0.225
-0.27
-0.325
-0.345
-0.36
-0.38
-0.42
-0.44
-0.44
-0.43
-0.415
-0.42
-0.46
-0.485
-0.48
-0.47
-0.46
-0.47
-0.485
-0.495
-0.48
-0.48
-0.475
-0.49
-0.5
-0.505
-0.5
-0.47
-0.45
-0.435
-0.46
-0.45
-0.435
-0.415
-0.36
-0.29
-0.18
-0.015
0.225
0.51
0.79
1.025
1.15
1.1
0.855
0.465
-0.005
-0.4
-0.69
-0.785
-0.745
-0.67
-0.655
-0.705
-0.745
-0.785
-0.81
-0.82
-0.82
-0.82
-0.82
-0.84
-0.845
-0.85
-0.835
-0.85
-0.845
-0.815
-0.765
-0.725
-0.675
-0.645
-0.62
-0.555
-0.49
-0.4
-0.34
-0.325
-0.315
-0.32
-0.315
-0.29
-0.265
-0.265
-0.26
-0.265
-0.245
-0.245
-0.205
-0.21
-0.22
-0.23
-0.21
-0.19
-0.16
-0.17
-0.165
-0.175
-0.15
-0.14
-0.14
-0.13
-0.14
-0.115
-0.095
-0.075
-0.045
-0.03
-0.03
-0.04
-0.03
0.0
0.03
0.045
0.07
0.065
0.095
0.105
0.135
0.135
0.13
0.14
0.17
0.195
0.22
0.215
0.19
0.185
0.165
0.17
0.195
0.165
0.135
0.105
0.07
0.075
0.05
0.0
-0.025
-0.065
-0.095
-0.1
-0.1
-0.115
-0.155
-0.18
-0.195
-0.21
-0.23
-0.245
-0.26
-0.285
-0.28
-0.27
-0.27
-0.305
-0.33
-0.355
-0.355
-0.35
-0.305
-0.32
-0.33
-0.325
-0.34
-0.315
-0.305
-0.32
-0.33
-0.33
-0.325
-0.31
-0.29
-0.295
-0.31
-0.325
-0.35
-0.315
-0.295
-0.3
-0.305
-0.31
-0.295
-0.285
-0.28
-0.29
-0.305
-0.315
-0.295
-0.28
-0.275
-0.29
-0.285
-0.305
-0.295
-0.28
-0.275
-0.29
-0.31
-0.315
-0.295
-0.28
-0.255
-0.28
-0.29
-0.33
-0.305
-0.28
-0.245
-0.225
-0.225
-0.205
-0.195
-0.175
-0.17
-0.175
-0.165
-0.165
-0.125
-0.07
-0.03
-0.035
-0.04
-0.075
-0.05
-0.045
-0.025
-0.055
-0.07
-0.08
-0.1
-0.13
-0.175
-0.215
-0.25
-0.265
-0.275
-0.26
-0.26
-0.275
-0.29
-0.315
-0.305
-0.31
-0.305
-0.315
-0.345
-0.345
-0.33
-0.32
-0.31
-0.31
-0.315
-0.335
-0.325
-0.325
-0.31
-0.325
-0.31
-0.315
-0.3
-0.28
-0.27
-0.295
-0.27
-0.24
-0.175
-0.055
0.085
0.285
0.495
0.765
1.03
1.265
1.38
1.28
0.985
0.545
0.08
-0.31
-0.535
-0.61
-0.565
-0.525
-0.535
-0.55
-0.565
-0.595
-0.635
-0.665
-0.67
-0.645
-0.63
-0.65
-0.67
-0.675
-0.68
-0.665
-0.645
-0.605
-0.575
-0.535
-0.495
-0.455
-0.38
-0.31
-0.245
-0.195
-0.145
-0.13
-0.11
-0.105
-0.11
-0.115
-0.1
-0.07
-0.035
-0.04
-0.045
-0.06
-0.04
-0.04
-0.025
-0.005
-0.02
-0.01
-0.005
0.025
0.035
0.035
0.025
0.01
0.025
0.04
0.08
0.1
0.095
0.1
0.11
0.125
0.155
0.16
0.17
0.18
0.215
0.24
0.265
0.28
0.275
0.255
0.27
0.31
0.33
0.335
0.345
0.35
0.35
0.37
0.375
0.36
0.335
0.325
0.305
0.285
0.295
0.275
0.235
0.195
0.165
0.16
0.14
0.115
0.075
0.04
0.02
0.0
0.0
-0.04
-0.08
-0.12
-0.115
-0.11
-0.09
-0.145
-0.16
-0.185
-0.19
-0.21
-0.175
-0.21
-0.205
-0.22
-0.21
-0.18
-0.18
-0.2
-0.225
-0.23
-0.215
-0.205
-0.19
-0.195
-0.2
-0.205
-0.205
-0.19
-0.185
-0.175
-0.175
-0.19
-0.17
-0.18
-0.165
-0.18
-0.18
-0.19
-0.19
-0.19
-0.165
-0.165
-0.17
-0.19
-0.19
-0.185
-0.185
-0.195
-0.195
-0.21
-0.2
-0.19
-0.185
-0.195
-0.215
-0.225
-0.235
-0.22
-0.19
-0.19
-0.19
-0.2
-0.185
-0.145
-0.105
-0.105
-0.105
-0.09
-0.06
-0.04
-0.01
0.005
0.005
-0.01
0.005
0.01
0.045
0.035
0.02
-0.015
-0.05
-0.065
-0.1
-0.14
-0.19
-0.225
-0.23
-0.21
-0.21
-0.235
-0.255
-0.265
-0.275
-0.27
-0.265
-0.285
-0.295
-0.3
-0.29
-0.275
-0.28
-0.3
-0.31
-0.31
-0.3
-0.28
-0.27
-0.26
-0.28
-0.29
-0.285
-0.27
-0.25
-0.24
-0.215
-0.175
-0.105
0.0
0.16
0.36
0.59
0.835
1.1
1.31
1.37
1.21
0.805
0.295
-0.195
-0.5
-0.61
-0.575
-0.51
-0.495
-0.535
-0.56
-0.585
-0.63
-0.685
-0.7
-0.695
-0.665
-0.645
-0.65
-0.66
-0.705
-0.705
-0.675
-0.62
-0.565
-0.535
-0.5
-0.46
-0.365
-0.295
-0.24
-0.225
-0.2
-0.18
-0.165
-0.135
-0.115
-0.11
-0.12
-0.105
-0.095
-0.08
-0.075
-0.09
-0.085
-0.075
-0.04
-0.02
-0.015
-0.02
-0.025
-0.03
-0.015
0.01
0.015
0.03
0.025
0.055
0.075
0.09
0.085
0.075
0.085
0.1
0.13
0.16
0.17
0.175
0.17
0.175
0.195
0.215
0.225
0.22
0.235
0.245
0.285
0.305
0.295
0.285
0.27
0.295
0.3
0.32
0.315
0.29
0.28
0.25
0.255
0.245
0.205
0.155
0.12
0.105
0.095
0.08
0.05
0.015
-0.02
-0.045
-0.06
-0.08
-0.105
-0.13
-0.14
-0.16
-0.155
-0.175
-0.2
-0.23
-0.24
-0.24
-0.24
-0.215
-0.22
-0.255
-0.29
-0.3
-0.275
-0.275
-0.285
-0.28
-0.3
-0.28
-0.265
-0.245
-0.26
-0.295
-0.315
-0.29
-0.285
-0.255
-0.265
-0.27
-0.275
-0.265
-0.275
-0.265
-0.28
-0.275
-0.28
-0.28
-0.27
-0.265
-0.28
-0.275
-0.29
-0.295
-0.305
-0.285
-0.285
-0.285
-0.3
-0.28
-0.275
-0.285
-0.295
-0.315
-0.325
-0.31
-0.31
-0.285
-0.29
-0.3
-0.3
-0.32
-0.315
-0.305
-0.295
-0.295
-0.275
-0.25
-0.215
-0.21
-0.215
-0.225
-0.21
-0.19
-0.155
-0.105
-0.09
-0.07
-0.075
-0.08
-0.08
-0.06
-0.065
-0.085
-0.105
-0.115
-0.13
-0.16
-0.21
-0.255
-0.31
-0.34
-0.33
-0.315
-0.32
-0.33
-0.35
-0.38
-0.355
-0.35
-0.365
-0.385
-0.4
-0.395
-0.4
-0.38
-0.39
-0.41
-0.42
-0.43
-0.4
-0.385
-0.375
-0.37
-0.4
-0.39
-0.38
-0.35
-0.365
-0.35
-0.33
-0.26
-0.155
-0.02
0.14
0.35
0.595
0.84
1.085
1.23
1.185
0.935
0.505
0.025
-0.365
-0.61
-0.68
-0.645
-0.63
-0.625
-0.645
-0.665
-0.7
-0.75
-0.78
-0.795
-0.775
-0.745
-0.765
-0.78
-0.81
-0.805
-0.795
-0.765
-0.75
-0.74
-0.695
-0.655
-0.595
-0.525
-0.5
-0.44
-0.4
-0.335
-0.28
-0.265
-0.265
-0.285
-0.28
-0.265
-0.23
-0.205
-0.21
-0.215
-0.22
-0.2
-0.19
-0.18
-0.18
-0.175
-0.15
-0.155
-0.135
-0.125
-0.14
-0.135
-0.14
-0.12
-0.08
-0.055
-0.055
-0.045
-0.055
-0.045
-0.02
-0.015
0.005
0.005
0.01
0.025
0.055
0.1
0.085
0.1
0.09
0.095
0.12
0.145
0.17
0.175
0.18
0.175
0.2
0.215
0.2
0.18
0.18
0.175
0.165
0.155
0.14
0.09
0.06
0.03
0.005
0.01
-0.03
-0.055
-0.095
-0.1
-0.13
-0.145
-0.165
-0.2
-0.235
-0.24
-0.245
-0.24
-0.265
-0.28
-0.315
-0.33
-0.365
-0.335
-0.345
-0.36
-0.37
-0.355
-0.335
-0.335
-0.355
-0.37
-0.385
-0.38
-0.375
-0.365
-0.36
-0.355
-0.36
-0.365
-0.365
-0.35
-0.355
-0.38
-0.395
-0.38
-0.365
-0.355
-0.35
-0.35
-0.365
-0.375
-0.365
-0.34
-0.34
-0.35
-0.355
-0.36
-0.34
-0.33
-0.34
-0.36
-0.37
-0.375
-0.38
-0.345
-0.345
-0.35
-0.36
-0.35
-0.365
-0.35
-0.34
-0.34
-0.335
-0.315
-0.28
-0.26
-0.245
-0.25
-0.26
-0.245
-0.225
-0.18
-0.165
-0.16
-0.14
-0.12
-0.1
-0.105
-0.11
-0.12
-0.16
-0.165
-0.17
-0.18
-0.205
-0.265
-0.295
-0.335
-0.345
-0.345
-0.355
-0.375
-0.385
-0.38
-0.375
-0.375
-0.39
-0.4
-0.425
-0.435
-0.42
-0.41
-0.415
-0.41
-0.435
-0.435
-0.425
-0.395
-0.405
-0.415
-0.425
-0.415
-0.405
-0.37
-0.355
-0.37
-0.38
-0.37
-0.365
-0.315
-0.255
-0.2
-0.08
0.12
0.365
0.615
0.855
1.075
1.21
1.22
1.055
0.7
0.245
-0.18
-0.51
-0.67
-0.66
-0.595
-0.575
-0.605
-0.635
-0.65
-0.665
-0.68
-0.705
-0.72
-0.725
-0.695
-0.695
-0.7
-0.705
-0.74
-0.75
-0.73
-0.695
-0.655
-0.62
-0.59
-0.565
-0.52
-0.475
-0.405
-0.34
-0.28
-0.245
-0.22
-0.185
-0.165
-0.165
-0.17
-0.165
-0.155
-0.13
-0.115
-0.095
-0.09
-0.095
-0.08
-0.07
-0.06
-0.065
-0.08
-0.065
-0.05
-0.03
-0.02
-0.005
-0.01
-0.005
0.0
0.01
0.035
0.035
0.035
0.035
0.075
0.105
0.13
0.12
0.12
0.115
0.135
0.165
0.195
0.21
0.215
0.22
0.24
0.27
0.285
0.28
0.27
0.285
0.315
0.33
0.355
0.36
0.375
0.355
0.345
0.335
0.36
0.32
0.3
0.275
0.255
0.245
0.24
0.205
0.16
0.125
0.09
0.08
0.075
0.045
0.025
-0.005
-0.01
-0.015
-0.025
-0.05
-0.09
-0.12
-0.135
-0.13
-0.12
-0.14
-0.16
-0.18
-0.195
-0.18
-0.18
-0.195
-0.2
-0.23
-0.22
-0.215
-0.195
-0.2
-0.22
-0.235
-0.24
-0.225
-0.22
-0.205
-0.22
-0.215
-0.21
-0.2
-0.195
-0.2
-0.22
-0.235
-0.215
-0.215
-0.21
-0.19
-0.195
-0.205
-0.2
-0.195
-0.175
-0.195
-0.2
-0.205
-0.195
-0.175
-0.16
-0.16
-0.18
-0.2
-0.205
-0.205
-0.2
-0.19
-0.19
-0.205
-0.2
-0.185
-0.175
-0.185
-0.205
-0.23
-0.225
-0.215
-0.2
-0.175
-0.15
-0.14
-0.125
-0.105
-0.085
-0.09
-0.1
-0.1
-0.075
-0.04
0.005
0.025
0.035
0.035
0.035
0.04
0.055
0.04
0.015
0.0
-0.01
-0.01
-0.01
-0.055
-0.095
-0.145
-0.17
-0.195
-0.2
-0.21
-0.245
-0.25
-0.24
-0.22
-0.23
-0.26
-0.26
-0.28
-0.275
-0.27
-0.27
-0.285
-0.29
-0.305
-0.295
-0.275
-0.275
-0.285
-0.305
-0.32
-0.29
-0.265
-0.245
-0.24
-0.255
-0.265
-0.255
-0.225
-0.21
-0.195
-0.165
-0.11
0.005
0.16
0.37
0.6
0.81
1.04
1.24
1.38
1.385
1.18
0.805
0.365
-0.055
-0.365
-0.515
-0.56
-0.525
-0.515
-0.515
-0.54
-0.54
-0.57
-0.61
-0.655
-0.665
-0.64
-0.63
-0.62
-0.64
-0.66
-0.675
-0.67
-0.63
-0.625
-0.59
-0.56
-0.535
-0.49
-0.44
-0.39
-0.35
-0.305
-0.24
-0.165
-0.13
-0.12
-0.12
-0.12
-0.135
-0.12
-0.08
-0.08
-0.065
-0.06
-0.05
-0.035
