Lead II
-1.245
-1.21
-1.18
-1.17
-1.17
-1.17
-1.18
-1.18
-1.185
-1.18
-1.19
-1.185
-1.17
-1.165
-1.16
-1.17
-1.175
-1.175
-1.185
-1.19
-1.19
-1.195
-1.185
-1.18
-1.16
-1.16
-1.17
-1.18
-1.19
-1.19
-1.2
-1.21
-1.215
-1.22
-1.225
-1.21
-1.21
-1.205
-1.205
-1.22
-1.225
-1.225
-1.22
-1.225
-1.23
-1.235
-1.23
-1.235
-1.23
-1.235
-1.245
-1.235
-1.25
-1.265
-1.27
-1.265
-1.265
-1.255
-1.255
-1.25
-1.25
-1.26
-1.275
-1.265
-1.27
-1.265
-1.275
-1.295
-1.28
-1.265
-1.27
-1.265
-1.24
-1.245
-1.25
-1.27
-1.255
-1.265
-1.275
-1.26
-1.255
-1.235
-1.215
-1.2
-1.175
-1.18
-1.17
-1.165
-1.15
-1.145
-1.135
-1.11
-1.095
-1.07
-1.055
-1.035
-1.01
-1.0
-0.985
-0.985
-0.97
-0.96
-0.95
-0.94
-0.925
-0.91
-0.9
-0.895
-0.885
-0.875
-0.88
-0.885
-0.895
-0.91
-0.915
-0.92
-0.925
-0.935
-0.935
-0.94
-0.945
-0.965
-0.98
-1.0
-1.015
-1.025
-1.04
-1.04
-1.05
-1.05
-1.05
-1.065
-1.075
-1.085
-1.085
-1.1
-1.105
-1.115
-1.12
-1.115
-1.12
-1.12
-1.105
-1.1
-1.1
-1.09
-1.1
-1.1
-1.115
-1.13
-1.135
-1.125
-1.12
-1.11
-1.105
-1.085
-1.08
-1.08
-1.095
-1.1
-1.09
-1.115
-1.105
-1.095
-1.09
-1.095
-1.07
-1.06
-1.055
-1.06
-1.07
-1.07
-1.09
-1.1
-1.08
-1.065
-1.06
-1.05
-1.05
-1.035
-1.04
-1.04
-1.04
-1.055
-1.05
-1.055
-1.055
-1.05
-1.04
-1.04
-1.035
-1.025
-1.02
-1.02
-1.03
-1.035
-1.03
-1.04
-1.055
-1.055
-1.05
-1.05
-1.025
-1.015
-1.01
-1.01
-1.005
-1.0
-1.01
-1.025
-1.025
-1.035
-1.03
-1.03
-1.03
-1.015
-1.0
-1.01
-1.01
-1.02
-1.03
-1.035
-1.04
-1.035
-1.03
-1.025
-1.03
-1.01
-0.995
-1.005
-0.995
-0.995
-1.01
-1.02
-1.03
-1.025
-1.02
-1.015
-1.01
-0.995
-0.99
-1.0
-0.995
-1.015
-1.02
-1.035
-1.035
-1.025
-1.02
-1.02
-1.0
-1.005
-0.985
-1.0
-0.995
-1.005
-1.015
-1.02
-1.03
-1.035
-1.025
-1.02
-1.0
-0.995
-0.995
-0.985
-0.995
-1.0
-1.01
-1.01
-1.01
-1.03
-1.015
-1.005
-1.0
-1.0
-0.98
-0.98
-0.975
-0.985
-0.995
-0.995
-1.0
-1.0
-1.005
-0.995
-0.975
-0.97
-0.955
-0.95
-0.935
-0.945
-0.945
-0.955
-0.975
-0.995
-0.995
-0.97
-0.95
-0.93
-0.91
-0.9
-0.885
-0.89
-0.895
-0.9
-0.905
-0.935
-0.93
-0.94
-0.935
-0.93
-0.92
-0.92
-0.92
-0.92
-0.91
-0.9
-0.9
-0.905
-0.91
-0.91
-0.905
-0.915
-0.925
-0.94
-0.97
-0.985
-0.995
-1.0
-1.015
-1.02
-1.02
-1.01
-1.0
-0.995
-0.99
-0.98
-0.99
-1.005
-1.01
-0.995
-0.955
-0.895
-0.815
-0.745
-0.665
-0.61
-0.575
-0.595
-0.635
-0.72
-0.81
-0.85
-0.815
-0.685
-0.495
-0.255
-0.015
0.245
0.485
0.705
0.945
1.16
1.31
1.38
1.375
1.32
1.165
0.935
0.625
0.29
-0.05
-0.39
-0.68
-0.95
-1.165
-1.3
-1.355
-1.375
-1.355
-1.325
-1.295
-1.26
-1.225
-1.2
-1.18
-1.175
-1.195
-1.21
-1.2
-1.195
-1.2
-1.19
-1.175
-1.175
-1.165
-1.175
-1.18
-1.175
-1.19
-1.195
-1.185
-1.205
-1.2
-1.19
-1.175
-1.175
-1.17
-1.17
-1.17
-1.165
-1.18
-1.185
-1.205
-1.205
-1.215
-1.2
-1.205
-1.19
-1.18
-1.19
-1.205
-1.195
-1.215
-1.22
-1.23
-1.225
-1.23
-1.225
-1.225
-1.21
-1.2
-1.21
-1.23
-1.225
-1.225
-1.23
-1.235
-1.235
-1.235
-1.24
-1.24
-1.235
-1.22
-1.22
-1.245
-1.24
-1.25
-1.26
-1.26
-1.25
-1.25
-1.25
-1.25
-1.255
-1.23
-1.245
-1.245
-1.25
-1.245
-1.245
-1.25
-1.24
-1.245
-1.235
-1.23
-1.23
-1.205
-1.205
-1.2
-1.185
-1.185
-1.17
-1.16
-1.16
-1.165
-1.15
-1.13
-1.115
-1.085
-1.065
-1.045
-1.04
-1.03
-1.025
-1.025
-1.02
-1.005
-0.97
-0.96
-0.95
-0.92
-0.915
-0.915
-0.92
-0.915
-0.895
-0.895
-0.89
-0.885
-0.87
-0.87
-0.87
-0.87
-0.87
-0.89
-0.89
-0.89
-0.885
-0.895
-0.9
-0.91
-0.925
-0.935
-0.935
-0.945
-0.95
-0.95
-0.985
-0.99
-1.02
-1.025
-1.04
-1.055
-1.055
-1.06
-1.055
-1.055
-1.06
-1.075
-1.095
-1.09
-1.115
-1.12
-1.12
-1.115
-1.125
-1.11
-1.105
-1.1
-1.1
-1.095
-1.09
-1.095
-1.105
-1.11
-1.125
-1.115
-1.11
-1.095
-1.09
-1.065
-1.06
-1.06
-1.065
-1.06
-1.07
-1.07
-1.085
-1.07
-1.045
-1.045
-1.05
-1.035
-1.035
-1.03
-1.025
-1.02
-1.02
-1.025
-1.025
-1.025
-1.03
-1.02
-1.015
-1.005
-0.99
-1.0
-1.01
-1.005
-1.015
-1.01
-1.02
-1.025
-1.0
-0.995
-0.98
-0.99
-0.975
-0.99
-0.985
-0.985
-0.99
-0.99
-1.0
-1.0
-0.99
-0.985
-0.975
-0.97
-0.96
-0.975
-0.97
-0.975
-0.985
-0.995
-0.99
-0.99
-0.97
-0.965
-0.955
-0.95
-0.95
-0.95
-0.96
-0.965
-0.97
-0.97
-0.98
-0.98
-0.975
-0.97
-0.98
-0.955
-0.96
-0.96
-0.96
-0.965
-0.965
-0.955
-0.96
-0.975
-0.96
-0.955
-0.94
-0.94
-0.945
-0.95
-0.965
-0.96
-0.985
-0.98
-0.995
-0.99
-0.96
-0.945
-0.935
-0.93
-0.93
-0.925
-0.935
-0.93
-0.945
-0.95
-0.96
-0.955
-0.955
-0.93
-0.925
-0.905
-0.915
-0.925
-0.915
-0.94
-0.94
-0.945
-0.955
-0.955
-0.94
-0.915
-0.9
-0.905
-0.885
-0.905
-0.905
-0.935
-0.945
-0.93
-0.935
-0.925
-0.915
-0.9
-0.875
-0.875
-0.875
-0.875
-0.895
-0.89
-0.89
-0.89
-0.89
-0.87
-0.87
-0.855
-0.84
-0.825
-0.82
-0.805
-0.81
-0.8
-0.825
-0.825
-0.83
-0.845
-0.835
-0.835
-0.83
-0.825
-0.82
-0.82
-0.81
-0.81
-0.805
-0.8
-0.815
-0.82
-0.825
-0.84
-0.85
-0.875
-0.89
-0.905
-0.905
-0.915
-0.92
-0.92
-0.92
-0.915
-0.91
-0.9
-0.9
-0.895
-0.895
-0.905
-0.9
-0.91
-0.875
-0.815
-0.74
-0.65
-0.605
-0.54
-0.515
-0.505
-0.545
-0.635
-0.695
-0.71
-0.65
-0.5
-0.305
-0.105
0.13
0.345
0.585
0.81
1.04
1.24
1.39
1.475
1.47
1.415
1.295
1.125
0.9
0.625
0.35
0.075
-0.17
-0.4
-0.615
-0.82
-0.975
-1.095
-1.17
-1.205
-1.215
-1.205
-1.19
-1.165
-1.145
-1.115
-1.095
-1.07
-1.07
-1.06
-1.05
-1.055
-1.05
-1.045
-1.055
-1.045
-1.05
-1.05
-1.055
-1.05
-1.05
-1.055
-1.06
-1.07
-1.07
-1.065
-1.07
-1.06
-1.045
-1.055
-1.055
-1.065
-1.07
-1.075
-1.075
-1.09
-1.09
-1.085
-1.075
-1.07
-1.07
-1.075
-1.07
-1.065
-1.08
-1.08
-1.09
-1.095
-1.09
-1.105
-1.085
-1.07
-1.065
-1.065
-1.08
-1.09
-1.105
-1.11
-1.115
-1.115
-1.11
-1.105
-1.1
-1.095
-1.1
-1.1
-1.1
-1.11
-1.125
-1.125
-1.125
-1.125
-1.115
-1.11
-1.115
-1.095
-1.11
-1.1
-1.105
-1.11
-1.11
-1.1
-1.1
-1.1
-1.09
-1.07
-1.065
-1.06
-1.04
-1.035
-1.045
-1.03
-1.01
-1.02
-0.995
-0.99
-0.96
-0.95
-0.945
-0.925
-0.91
-0.895
-0.885
-0.885
-0.88
-0.855
-0.84
-0.815
-0.805
-0.79
-0.775
-0.74
-0.735
-0.73
-0.735
-0.72
-0.715
-0.71
-0.705
-0.7
-0.695
-0.695
-0.69
-0.685
-0.68
-0.695
-0.715
-0.73
-0.745
-0.755
-0.77
-0.775
-0.78
-0.77
-0.78
-0.78
-0.815
-0.805
-0.825
-0.82
-0.84
-0.86
-0.86
-0.88
-0.875
-0.87
-0.875
-0.87
-0.885
-0.89
-0.9
-0.91
-0.91
-0.92
-0.93
-0.93
-0.92
-0.915
-0.915
-0.905
-0.9
-0.91
-0.895
-0.895
-0.895
-0.89
-0.89
-0.885
-0.885
-0.88
-0.875
-0.87
-0.86
-0.87
-0.87
-0.865
-0.865
-0.865
-0.87
-0.855
-0.845
-0.85
-0.83
-0.83
-0.82
-0.815
-0.825
-0.825
-0.83
-0.84
-0.845
-0.845
-0.83
-0.82
-0.82
-0.805
-0.79
-0.8
-0.805
-0.82
-0.83
-0.835
-0.84
-0.835
-0.83
-0.81
-0.795
-0.78
-0.775
-0.795
-0.79
-0.8
-0.8
-0.805
-0.81
-0.815
-0.805
-0.795
-0.795
-0.78
-0.785
-0.77
-0.755
-0.765
-0.775
-0.79
-0.8
-0.795
-0.8
-0.79
-0.78
-0.765
-0.765
-0.765
-0.77
-0.785
-0.79
-0.79
-0.8
-0.8
-0.785
-0.78
-0.77
-0.75
-0.76
-0.755
-0.745
-0.76
-0.785
-0.785
-0.79
-0.79
-0.785
-0.77
-0.755
-0.745
-0.755
-0.76
-0.765
-0.76
-0.765
-0.77
-0.775
-0.78
-0.765
-0.76
-0.745
-0.74
-0.745
-0.745
-0.75
-0.76
-0.77
-0.78
-0.775
-0.785
-0.77
-0.745
-0.755
-0.745
-0.745
-0.74
-0.75
-0.765
-0.765
-0.78
-0.775
-0.76
-0.74
-0.725
-0.725
-0.725
-0.725
-0.73
-0.74
-0.75
-0.755
-0.75
-0.745
-0.73
-0.72
-0.71
-0.695
-0.69
-0.685
-0.705
-0.7
-0.71
-0.73
-0.72
-0.725
-0.73
-0.7
-0.675
-0.66
-0.645
-0.64
-0.635
-0.66
-0.655
-0.65
-0.67
-0.67
-0.67
-0.675
-0.67
-0.685
-0.675
-0.68
-0.68
-0.67
-0.655
-0.645
-0.63
-0.635
-0.645
-0.65
-0.67
-0.675
-0.68
-0.705
-0.71
-0.73
-0.745
-0.75
-0.75
-0.745
-0.755
-0.75
-0.74
-0.73
-0.725
-0.73
-0.74
-0.745
-0.76
-0.775
-0.77
-0.75
-0.71
-0.64
-0.545
-0.47
-0.395
-0.325
-0.295
-0.28
-0.32
-0.4
-0.495
-0.59
-0.61
-0.545
-0.405
-0.19
0.045
0.27
0.485
0.69
0.885
1.09
1.26
1.405
1.475
1.515
1.515
1.455
1.36
1.215
0.99
0.725
0.435
0.125
-0.135
-0.4
-0.65
-0.84
-0.99
-1.07
-1.095
-1.09
-1.065
-1.035
-1.015
-0.985
-0.975
-0.95
-0.94
-0.94
-0.92
-0.925
-0.92
-0.915
-0.905
-0.91
-0.925
-0.925
-0.93
-0.935
-0.94
-0.935
-0.935
-0.925
-0.92
-0.915
-0.91
-0.91
-0.92
-0.945
-0.945
-0.94
-0.935
-0.935
-0.93
-0.93
-0.92
-0.925
-0.925
-0.935
-0.95
-0.95
-0.955
-0.965
-0.97
-0.98
-0.955
-0.955
-0.945
-0.95
-0.94
-0.95
-0.96
-0.96
-0.965
-0.945
-0.965
-0.96
-0.96
-0.96
-0.965
-0.97
-0.97
-0.975
-0.97
-0.975
-0.99
-0.995
-0.99
-0.985
-0.985
-0.975
-0.98
-0.97
-0.97
-0.985
-0.99
-1.0
-1.01
-1.015
-1.015
-1.005
-0.995
-0.995
-0.985
-0.985
-0.98
-0.965
-0.955
-0.96
-0.96
-0.95
-0.94
-0.925
-0.92
-0.905
-0.89
-0.875
-0.86
-0.855
-0.845
-0.83
-0.815
-0.8
-0.78
-0.765
-0.755
-0.72
-0.72
-0.71
-0.705
-0.7
-0.69
-0.68
-0.665
-0.64
-0.635
-0.615
-0.605
-0.595
-0.605
-0.595
-0.595
-0.585
-0.59
-0.6
-0.615
-0.615
-0.625
-0.62
-0.635
-0.64
-0.645
-0.645
-0.67
-0.675
-0.69
-0.725
-0.75
-0.755
-0.765
-0.765
-0.76
-0.775
-0.77
-0.78
-0.79
-0.815
-0.84
-0.845
-0.85
-0.845
-0.84
-0.845
-0.835
-0.83
-0.82
-0.815
-0.81
-0.805
-0.825
-0.83
-0.84
-0.84
-0.835
-0.815
-0.815
-0.79
-0.78
-0.77
-0.805
-0.8
-0.79
-0.8
-0.815
-0.8
-0.795
-0.795
-0.79
-0.775
-0.755
-0.735
-0.745
-0.74
-0.76
-0.765
-0.78
-0.78
-0.77
-0.77
-0.755
-0.76
-0.75
-0.745
-0.745
-0.74
-0.745
-0.775
-0.77
-0.765
-0.76
-0.76
-0.76
-0.75
-0.735
-0.735
-0.72
-0.74
-0.74
-0.745
-0.76
-0.765
-0.775
-0.76
-0.755
-0.745
-0.735
-0.73
-0.71
-0.71
-0.72
-0.74
-0.74
-0.765
-0.76
-0.765
-0.75
-0.74
-0.735
-0.71
-0.705
-0.71
-0.71
-0.72
-0.73
-0.745
-0.74
-0.745
-0.73
-0.72
-0.71
-0.71
-0.705
-0.7
-0.71
-0.72
-0.725
-0.73
-0.735
-0.725
-0.715
-0.705
-0.68
-0.68
-0.685
-0.695
-0.705
-0.715
-0.73
-0.73
-0.725
-0.72
-0.71
-0.7
-0.695
-0.69
-0.695
-0.7
-0.705
-0.71
-0.73
-0.735
-0.75
-0.735
-0.735
-0.72
-0.705
-0.705
-0.705
-0.71
-0.715
-0.72
-0.73
-0.735
-0.73
-0.715
-0.71
-0.715
-0.685
-0.69
-0.69
-0.69
-0.7
-0.715
-0.735
-0.725
-0.72
-0.7
-0.69
-0.68
-0.68
-0.66
-0.67
-0.67
-0.685
-0.695
-0.7
-0.715
-0.715
-0.705
-0.675
-0.655
-0.64
-0.62
-0.625
-0.625
-0.63
-0.63
-0.64
-0.645
-0.655
-0.65
-0.65
-0.65
-0.645
-0.635
-0.64
-0.64
-0.645
-0.64
-0.63
-0.625
-0.615
-0.615
-0.6
-0.62
-0.63
-0.65
-0.67
-0.7
-0.72
-0.73
-0.74
-0.755
-0.75
-0.76
-0.74
-0.735
-0.725
-0.72
-0.715
-0.715
-0.74
-0.75
-0.755
-0.755
-0.725
-0.66
-0.59
-0.51
-0.435
-0.375
-0.34
-0.345
-0.405
-0.48
-0.52
-0.515
-0.385
-0.185
0.04
0.29
0.55
0.785
1.01
1.235
1.425
1.555
1.615
1.6
1.52
1.38
1.18
0.92
0.65
0.37
0.11
-0.15
-0.375
-0.61
-0.79
-0.925
-1.015
-1.065
-1.07
-1.06
-1.05
-1.015
-1.0
-0.96
-0.935
-0.915
-0.915
-0.92
-0.92
-0.925
-0.92
-0.915
-0.905
-0.89
-0.895
-0.9
-0.895
-0.9
-0.915
-0.915
-0.915
-0.91
-0.91
-0.895
-0.895
-0.89
-0.89
-0.9
-0.92
-0.925
-0.935
-0.945
-0.95
-0.935
-0.935
-0.945
-0.93
-0.915
-0.915
-0.92
-0.92
-0.925
-0.93
-0.94
-0.945
-0.945
-0.95
-0.94
-0.955
-0.95
-0.95
-0.955
-0.955
-0.96
-0.99
-0.98
-0.975
-0.975
-0.965
-0.965
-0.97
-0.97
-0.975
-0.98
-0.99
-0.995
-1.0
-1.005
-1.0
-1.0
-0.995
-0.985
-0.985
-0.98
-0.965
-0.965
-0.97
-0.97
-0.975
-0.97
-0.975
-0.965
-0.97
-0.965
-0.95
-0.915
-0.91
-0.905
-0.905
-0.895
-0.905
-0.89
-0.88
-0.87
-0.84
-0.83
-0.805
-0.78
-0.765
-0.76
-0.75
-0.745
-0.735
-0.73
-0.71
-0.715
-0.675
-0.67
-0.65
-0.635
-0.615
-0.62
-0.62
-0.625
-0.625
-0.61
-0.605
-0.635
-0.63
-0.63
-0.63
-0.64
-0.64
-0.64
-0.645
-0.665
-0.685
-0.705
-0.735
-0.75
-0.745
-0.75
-0.77
-0.765
-0.775
-0.785
-0.795
-0.82
-0.825
-0.845
-0.86
-0.845
-0.845
-0.835
-0.83
-0.825
-0.83
-0.835
-0.84
-0.845
-0.855
-0.845
-0.85
-0.835
-0.83
-0.82
-0.815
-0.815
-0.82
-0.83
-0.845
-0.855
-0.845
-0.85
-0.83
-0.84
-0.825
-0.815
-0.81
-0.795
-0.805
-0.805
-0.8
-0.815
-0.82
-0.825
-0.8
-0.8
-0.79
-0.78
-0.775
-0.775
-0.775
-0.775
-0.78
-0.78
-0.79
-0.775
-0.775
-0.77
-0.755
-0.755
-0.755
-0.75
-0.755
-0.76
-0.765
-0.77
-0.78
-0.775
-0.785
-0.78
-0.78
-0.77
-0.765
-0.745
-0.745
-0.75
-0.745
-0.75
-0.755
-0.76
-0.75
-0.74
-0.74
-0.745
-0.74
-0.73
-0.745
-0.745
-0.76
-0.755
-0.755
-0.77
-0.765
-0.75
-0.74
-0.74
-0.735
-0.725
-0.725
-0.73
-0.735
-0.73
-0.73
-0.735
-0.74
-0.75
-0.755
-0.755
-0.735
-0.73
-0.735
-0.73
-0.745
-0.74
-0.74
-0.745
-0.75
-0.745
-0.74
-0.735
-0.725
-0.715
-0.72
-0.72
-0.73
-0.725
-0.72
-0.735
-0.75
-0.75
-0.75
-0.745
-0.725
-0.72
-0.725
-0.735
-0.735
-0.73
-0.74
-0.745
-0.745
-0.735
-0.735
-0.745
-0.73
-0.725
-0.725
-0.74
-0.73
-0.73
-0.745
-0.73
-0.74
-0.74
-0.75
-0.745
-0.74
-0.72
-0.715
-0.725
-0.72
-0.735
-0.73
-0.715
-0.74
-0.73
-0.73
-0.725
-0.71
-0.7
-0.705
-0.715
-0.71
-0.7
-0.725
-0.725
-0.73
-0.71
-0.71
-0.7
-0.685
-0.69
-0.69
-0.685
-0.7
-0.695
-0.69
-0.695
-0.67
-0.665
-0.64
-0.635
-0.635
-0.62
-0.62
-0.63
-0.635
-0.645
-0.67
-0.675
-0.69
-0.675
-0.665
-0.66
-0.66
-0.665
-0.67
-0.655
-0.66
-0.66
-0.645
-0.65
-0.645
-0.665
-0.655
-0.67
-0.68
-0.695
-0.715
-0.735
-0.75
-0.76
-0.785
-0.775
-0.77
-0.76
-0.755
-0.75
-0.745
-0.735
-0.745
-0.74
-0.755
-0.765
-0.775
-0.76
-0.715
-0.64
-0.565
-0.47
-0.395
-0.335
-0.31
-0.295
-0.33
-0.42
-0.505
-0.6
-0.615
-0.55
-0.4
-0.2
0.03
0.26
0.47
0.67
0.865
1.05
1.215
1.345
1.425
1.45
1.43
1.36
1.235
1.035
0.79
0.51
0.21
-0.055
-0.32
-0.575
-0.785
-0.955
-1.06
-1.095
-1.105
-1.07
-1.055
-1.03
-0.99
-0.97
-0.95
-0.93
-0.93
-0.92
-0.915
-0.91
-0.91
-0.915
-0.93
-0.93
-0.93
-0.925
-0.93
-0.925
-0.93
-0.94
-0.93
-0.935
-0.92
-0.92
-0.915
-0.915
-0.925
-0.94
-0.945
-0.955
-0.95
-0.96
-0.96
-0.95
-0.95
-0.94
-0.945
-0.95
-0.955
-0.965
-0.975
-0.985
-0.99
-0.995
-0.99
-0.97
-0.96
-0.955
-0.975
-0.98
-0.985
-0.995
-0.99
-0.995
-1.0
-0.99
-0.995
-0.99
-0.995
-0.99
-1.005
-1.015
-1.02
-1.025
-1.03
-1.025
-1.035
-1.025
-1.02
-1.005
-1.02
-1.015
-1.015
-1.01
-1.015
-1.025
-1.025
-1.025
-1.03
-1.03
-1.02
-1.005
-0.995
-0.965
-0.965
-0.945
-0.95
-0.935
-0.93
-0.915
-0.915
-0.91
-0.89
-0.865
-0.855
-0.82
-0.785
-0.775
-0.765
-0.75
-0.735
-0.735
-0.72
-0.715
-0.7
-0.69
-0.67
-0.655
-0.645
-0.64
-0.635
-0.645
-0.65
-0.64
-0.65
-0.655
-0.64
-0.64
-0.635
-0.64
-0.65
-0.65
-0.665
-0.68
-0.705
-0.72
-0.735
-0.73
-0.745
-0.735
-0.755
-0.755
-0.77
-0.805
-0.82
-0.83
-0.835
-0.83
-0.84
-0.85
-0.85
-0.855
-0.86
-0.855
-0.86
-0.86
-0.87
-0.875
-0.875
-0.89
-0.895
-0.9
-0.895
-0.885
-0.86
-0.85
-0.845
-0.84
-0.845
-0.845
-0.855
-0.865
-0.87
-0.865
-0.85
-0.845
-0.83
-0.82
-0.82
-0.825
-0.835
-0.83
-0.84
-0.835
-0.84
-0.835
-0.84
-0.825
-0.82
-0.81
-0.81
-0.805
-0.81
-0.82
-0.82
-0.825
-0.83
-0.85
-0.84
-0.82
-0.82
-0.81
-0.815
-0.82
-0.82
-0.825
-0.85
-0.84
-0.845
-0.85
-0.84
-0.825
-0.81
-0.8
-0.79
-0.81
-0.81
-0.82
-0.83
-0.825
-0.84
-0.83
-0.81
-0.805
-0.795
-0.785
-0.8
-0.805
-0.815
-0.82
-0.81
-0.815
-0.825
-0.825
-0.825
-0.81
-0.8
-0.795
-0.8
-0.8
-0.805
-0.81
-0.82
-0.83
-0.835
-0.83
-0.825
-0.81
-0.815
-0.8
-0.795
-0.815
-0.81
-0.82
-0.83
-0.83
-0.83
-0.83
-0.815
-0.81
-0.8
-0.805
-0.8
-0.805
-0.815
-0.83
-0.83
-0.83
-0.82
-0.83
-0.815
-0.805
-0.805
-0.795
-0.785
-0.795
-0.8
-0.815
-0.82
-0.83
-0.83
-0.84
-0.83
-0.82
-0.815
-0.815
-0.81
-0.815
-0.825
-0.835
-0.835
-0.84
-0.845
-0.835
-0.83
-0.83
-0.825
-0.825
-0.83
-0.82
-0.825
-0.83
-0.835
-0.845
-0.84
-0.84
-0.83
-0.815
-0.81
-0.795
-0.785
-0.78
-0.785
-0.79
-0.78
-0.795
-0.805
-0.805
-0.8
-0.785
-0.77
-0.745
-0.75
-0.755
-0.755
-0.76
-0.755
-0.76
-0.76
-0.76
-0.765
-0.77
-0.775
-0.77
-0.785
-0.78
-0.785
-0.8
-0.795
-0.79
-0.78
-0.76
-0.74
-0.73
-0.74
-0.745
-0.76
-0.785
-0.81
-0.835
-0.855
-0.87
-0.89
-0.895
-0.895
-0.89
-0.88
-0.87
-0.85
-0.85
-0.855
-0.86
-0.875
-0.885
-0.885
-0.865
-0.83
-0.77
-0.685
-0.61
-0.545
-0.49
-0.48
-0.52
-0.59
-0.67
-0.68
-0.6
-0.42
-0.165
0.11
0.395
0.665
0.935
1.18
1.36
1.46
1.495
1.435
1.325
1.13
0.865
0.6
0.3
0.025
-0.275
-0.55
-0.8
-0.975
-1.125
-1.215
-1.245
-1.235
-1.215
-1.175
-1.14
-1.12
-1.085
-1.065
-1.065
-1.06
-1.055
-1.06
-1.065
-1.065
-1.06
-1.05
-1.045
-1.045
-1.04
-1.045
-1.06
-1.055
-1.065
-1.055
-1.06
-1.06
-1.065
-1.07
-1.065
-1.06
-1.06
-1.055
-1.075
-1.075
-1.085
-1.095
-1.1
-1.1
-1.09
-1.1
-1.1
-1.09
-1.095
-1.11
-1.115
-1.12
-1.125
-1.125
-1.125
-1.13
-1.13
-1.11
-1.105
-1.115
-1.105
-1.125
-1.15
-1.14
-1.145
-1.15
-1.145
-1.145
-1.145
-1.14
-1.15
-1.15
-1.15
-1.16
-1.18
-1.185
-1.175
-1.19
-1.18
-1.175
-1.165
-1.165
-1.17
-1.17
-1.18
-1.175
-1.19
-1.18
-1.185
-1.185
-1.18
-1.175
-1.165
-1.155
-1.145
-1.13
-1.135
-1.145
-1.12
-1.13
-1.115
-1.11
-1.09
-1.08
-1.075
-1.06
-1.035
-1.02
-1.005
-0.995
-0.995
-0.98
-0.965
-0.95
-0.945
-0.935
-0.92
-0.91
-0.89
-0.88
-0.865
-0.86
-0.845
-0.845
-0.85
-0.835
-0.83
-0.82
-0.815
-0.815
-0.8
-0.81
-0.81
-0.82
-0.825
-0.845
-0.865
-0.88
-0.885
-0.885
-0.89
-0.905
-0.91
-0.93
-0.935
-0.94
-0.96
-0.97
-0.995
-1.005
-1.01
-1.01
-1.02
-1.02
-1.02
-1.01
-1.03
-1.05
-1.07
-1.07
-1.075
-1.09
-1.08
-1.08
-1.08
-1.065
-1.05
-1.055
-1.06
-1.07
-1.075
-1.08
-1.08
-1.08
-1.065
-1.06
-1.04
-1.04
-1.035
-1.04
-1.045
-1.055
-1.05
-1.045
-1.055
-1.065
-1.035
-1.035
-1.02
-1.02
-1.01
-1.0
-1.005
-1.015
-1.0
-1.0
-1.0
-1.01
-1.01
-1.0
-0.995
-1.01
-1.01
-1.0
-1.005
-1.015
-1.015
-1.005
-1.005
-0.995
-0.995
-0.99
-0.99
-0.985
-0.98
-0.975
-0.97
-0.97
-0.985
-0.985
-0.99
-0.99
-0.985
-0.975
-0.965
-0.96
-0.955
-0.965
-0.97
-0.975
-0.97
-0.975
-0.99
-0.995
-0.985
-0.97
-0.96
-0.955
-0.94
-0.95
-0.955
-0.96
-0.975
-0.99
-0.995
-0.99
-0.98
-0.99
-1.0
-0.985
-0.955
-0.96
-0.95
-0.965
-0.96
-0.96
-0.975
-0.985
-0.985
-0.975
-0.97
-0.945
-0.95
-0.94
-0.935
-0.95
-0.955
-0.965
-0.965
-0.97
-0.975
-0.96
-0.965
-0.95
-0.935
-0.92
-0.935
-0.93
-0.945
-0.97
-0.98
-0.975
-0.965
-0.96
-0.955
-0.955
-0.955
-0.95
-0.955
-0.96
-0.965
-0.96
-0.965
-0.965
-0.96
-0.96
-0.95
-0.95
-0.94
-0.925
-0.94
-0.935
-0.94
-0.94
-0.95
-0.955
-0.95
-0.95
-0.94
-0.94
-0.91
-0.92
-0.905
-0.915
-0.935
-0.935
-0.95
-0.95
-0.955
-0.94
-0.93
-0.915
-0.89
-0.87
-0.865
-0.865
-0.875
-0.87
-0.87
-0.87
-0.885
-0.88
-0.885
-0.895
-0.9
-0.895
-0.91
-0.91
-0.905
-0.905
-0.905
-0.89
-0.875
-0.875
-0.865
-0.855
-0.87
-0.875
-0.895
-0.925
-0.94
-0.965
-0.99
-0.995
-0.995
-0.995
-0.985
-0.98
-0.98
-0.965
-0.97
-0.97
-0.97
-0.995
-0.985
-0.97
-0.925
-0.86
-0.78
-0.705
-0.64
-0.585
-0.54
-0.555
-0.61
-0.705
-0.78
-0.805
-0.73
-0.575
-0.345
-0.115
0.13
0.375
0.61
0.835
1.04
1.21
1.305
1.37
1.345
1.265
1.145
0.97
0.73
0.475
0.195
-0.065
-0.31
-0.545
-0.76
-0.96
-1.12
-1.21
-1.29
-1.3
-1.285
-1.265
-1.23
-1.22
-1.21
-1.2
-1.19
-1.18
-1.18
-1.17
-1.16
-1.14
-1.13
-1.115
-1.12
-1.125
-1.14
-1.135
-1.14
-1.14
-1.135
-1.135
-1.13
-1.15
-1.16
-1.165
-1.155
-1.155
-1.15
-1.155
-1.155
-1.16
-1.165
-1.17
-1.16
-1.155
-1.15
-1.15
-1.145
-1.135
-1.145
-1.15
-1.17
-1.165
-1.18
-1.185
-1.185
-1.19
-1.185
-1.17
-1.175
-1.18
-1.185
-1.185
-1.205
-1.195
-1.2
-1.19
-1.205
-1.2
-1.185
-1.185
-1.175
-1.185
-1.215
-1.22
-1.225
-1.225
-1.235
-1.225
-1.22
-1.205
-1.185
-1.195
-1.205
-1.21
-1.22
-1.22
-1.23
-1.23
-1.24
-1.23
-1.23
-1.23
-1.225
-1.2
-1.19
-1.19
-1.19
-1.17
-1.175
-1.185
-1.16
-1.145
-1.125
-1.105
-1.095
-1.07
-1.07
-1.065
-1.06
-1.035
-1.02
-1.005
-0.99
-0.975
-0.955
-0.935
-0.915
-0.89
-0.885
-0.87
-0.86
-0.865
-0.86
-0.855
-0.86
-0.86
-0.845
-0.84
-0.84
-0.83
-0.82
-0.825
-0.835
-0.86
-0.88
-0.885
-0.885
-0.88
-0.89
-0.895
-0.9
-0.895
-0.925
-0.945
-0.965
-0.98
-1.0
-1.01
-1.01
-1.0
-1.005
-1.005
-1.02
-1.015
-1.03
-1.03
-1.045
-1.055
-1.07
-1.085
-1.08
-1.075
-1.08
-1.07
-1.07
-1.055
-1.055
-1.045
-1.05
-1.055
-1.07
-1.065
-1.075
-1.075
-1.06
-1.05
-1.06
-1.045
-1.035
-1.03
-1.03
-1.045
-1.045
-1.045
-1.045
-1.02
-1.015
-1.005
-1.0
-0.995
-0.995
-1.005
-1.005
-1.015
-1.025
-1.025
-1.02
-1.02
-1.025
-1.015
-1.015
-1.015
-1.015
-1.005
-1.015
-1.01
-1.005
-1.02
-1.025
-1.005
-1.0
-1.0
-0.99
-0.99
-0.985
-0.985
-0.99
-0.99
-0.995
-0.995
-1.005
-1.005
-0.985
-0.98
-0.98
-0.97
-0.97
-0.965
-0.97
-0.985
-0.985
-0.985
-0.985
-0.985
-0.97
-0.955
-0.96
-0.96
-0.965
-0.975
-0.98
-0.98
-0.98
-0.975
-0.975
-0.975
-0.97
-0.965
-0.96
-0.96
-0.955
-0.965
-0.965
-0.97
-0.98
-0.98
-0.975
-0.975
-0.96
-0.96
-0.94
-0.945
-0.95
-0.95
-0.945
-0.945
-0.96
-0.975
-0.985
-0.97
-0.97
-0.97
-0.955
-0.945
-0.94
-0.945
-0.945
-0.95
-0.965
-0.975
-0.985
-0.97
-0.955
-0.945
-0.945
-0.95
-0.945
-0.95
-0.965
-0.965
-0.97
-0.965
-0.965
-0.955
-0.95
-0.935
-0.935
-0.95
-0.94
-0.95
-0.95
-0.955
-0.955
-0.94
-0.955
-0.95
-0.94
-0.945
-0.95
-0.945
-0.93
-0.93
-0.925
-0.95
-0.955
-0.95
-0.95
-0.96
-0.955
-0.935
-0.92
-0.915
-0.915
-0.91
-0.91
-0.925
-0.93
-0.935
-0.945
-0.925
-0.905
-0.885
-0.865
-0.86
-0.85
-0.84
-0.84
-0.855
-0.85
-0.86
-0.875
-0.89
-0.885
-0.89
-0.88
-0.875
-0.865
-0.885
-0.885
-0.885
-0.885
-0.875
-0.875
-0.855
-0.84
-0.85
-0.855
-0.86
-0.875
-0.89
-0.91
-0.94
-0.95
-0.965
-0.975
-0.975
-0.97
-0.96
-0.95
-0.95
-0.935
-0.945
-0.955
-0.98
-0.97
-0.97
-0.98
-0.98
-0.97
-0.935
-0.88
-0.815
-0.745
-0.68
-0.625
-0.58
-0.58
-0.6
-0.685
-0.76
-0.81
-0.78
-0.67
-0.495
-0.28
-0.05
0.145
0.355
0.575
0.79
1.01
1.2
1.35
1.435
1.43
1.38
1.27
1.115
0.925
0.695
0.46
0.23
-0.005
-0.25
-0.5
-0.73
-0.925
-1.095
-1.2
-1.265
-1.28
-1.285
-1.28
-1.255
-1.24
-1.22
-1.19
-1.165
-1.145
-1.145
-1.145
-1.145
-1.14
-1.145
-1.17
-1.17
-1.165
-1.17
-1.15
-1.155
-1.165
-1.155
-1.15
-1.16
-1.16
-1.155
-1.16
-1.15
-1.155
-1.16
-1.155
-1.145
-1.14
-1.15
-1.14
-1.145
-1.145
-1.155
-1.155
-1.16
-1.155
-1.175
-1.16
-1.185
-1.175
-1.175
-1.165
-1.17
-1.175
-1.18
-1.185
-1.195
-1.195
-1.2
-1.185
-1.18
-1.175
-1.17
-1.18
-1.205
-1.21
-1.225
-1.22
-1.225
-1.215
-1.21
-1.21
-1.21
-1.2
-1.22
-1.225
-1.225
-1.225
-1.225
-1.23
-1.225
-1.24
-1.225
-1.225
-1.21
-1.205
-1.195
-1.215
-1.225
-1.225
-1.23
-1.235
-1.23
-1.22
-1.215
-1.2
-1.185
-1.155
-1.15
-1.135
-1.135
-1.13
-1.125
-1.125
-1.125
-1.115
-1.095
-1.06
-1.04
-1.005
-0.985
-0.995
-0.975
-0.975
-0.96
-0.955
-0.94
-0.92
-0.895
-0.875
-0.855
-0.845
-0.835
-0.83
-0.835
-0.85
-0.84
-0.84
-0.835
-0.84
-0.845
-0.855
-0.865
-0.87
-0.865
-0.885
-0.87
-0.89
-0.91
-0.935
-0.955
-0.965
-0.975
-0.97
-0.97
-0.985
-0.98
-0.995
-1.0
-1.02
-1.04
-1.055
-1.065
-1.065
-1.07
-1.08
-1.065
-1.08
-1.065
-1.07
-1.07
-1.085
-1.09
-1.095
-1.085
-1.09
-1.09
-1.085
-1.075
-1.075
-1.045
-1.04
-1.045
-1.055
-1.055
-1.07
-1.07
-1.07
-1.055
-1.05
-1.03
-1.02
-1.03
-1.015
-1.015
-1.01
-1.025
-1.03
-1.025
-1.025
-1.01
-1.01
-1.005
-0.995
-0.985
-0.99
-0.985
-0.995
-0.99
-1.01
-1.015
-1.0
-1.005
-1.005
-0.99
-0.98
-0.975
-0.97
-0.97
-0.98
-0.98
-0.98
-0.98
-0.99
-0.985
-0.98
-0.975
-0.975
-0.97
-0.975
-0.96
-0.965
-0.97
-0.985
-0.975
-0.985
-0.99
-0.98
-0.975
-0.965
-0.95
-0.94
-0.95
-0.955
-0.96
-0.98
-0.975
-0.98
-0.975
-0.985
-0.965
-0.955
-0.945
-0.955
-0.95
-0.935
-0.94
-0.95
-0.95
-0.98
-0.99
-0.98
-0.97
-0.94
-0.925
-0.935
-0.935
-0.94
-0.945
-0.955
-0.955
-0.965
-0.955
-0.94
-0.94
-0.945
-0.94
-0.945
-0.935
-0.945
-0.955
-0.955
-0.955
-0.955
-0.955
-0.945
-0.94
-0.935
-0.935
-0.94
-0.935
-0.95
-0.96
-0.955
-0.95
-0.945
-0.94
-0.93
-0.93
-0.935
-0.93
-0.93
-0.93
-0.935
-0.945
-0.945
-0.94
-0.94
-0.94
-0.94
-0.935
-0.925
-0.915
-0.915
-0.915
-0.915
-0.915
-0.905
-0.905
-0.915
-0.92
-0.915
-0.925
-0.92
-0.895
-0.885
-0.875
-0.87
-0.865
-0.855
-0.855
-0.855
-0.855
-0.85
-0.84
-0.835
-0.835
-0.855
-0.875
-0.88
-0.885
-0.9
-0.915
-0.91
-0.9
-0.88
-0.855
-0.835
-0.82
-0.815
-0.825
-0.86
-0.88
-0.905
-0.925
-0.945
-0.965
-0.97
-0.965
-0.965
-0.955
-0.95
-0.955
-0.95
-0.955
-0.965
-0.975
-0.98
-0.98
-0.975
-0.955
-0.91
-0.84
-0.785
-0.72
-0.655
-0.615
-0.57
-0.565
-0.595
-0.66
-0.715
-0.76
-0.71
-0.59
-0.395
-0.18
0.04
0.26
0.48
0.7
0.905
1.12
1.295
1.395
1.425
1.395
1.28
1.105
0.87
0.59
0.31
0.055
-0.18
-0.39
-0.6
-0.785
-0.955
-1.085
-1.18
-1.22
-1.25
-1.25
-1.25
-1.23
-1.21
-1.175
-1.135
-1.105
-1.09
-1.075
-1.075
-1.1
-1.105
-1.11
-1.11
-1.125
-1.12
-1.11
-1.11
