Lead II
2.06
1.835
1.56
1.22
0.855
0.48
0.125
-0.2
-0.5
-0.765
-0.945
-1.065
-1.115
-1.12
-1.085
-1.07
-1.075
-1.1
-1.145
-1.185
-1.215
-1.235
-1.26
-1.265
-1.295
-1.295
-1.31
-1.315
-1.33
-1.35
-1.37
-1.39
-1.42
-1.45
-1.475
-1.48
-1.495
-1.49
-1.495
-1.51
-1.52
-1.525
-1.545
-1.545
-1.545
-1.55
-1.565
-1.56
-1.555
-1.54
-1.515
-1.505
-1.49
-1.47
-1.46
-1.445
-1.45
-1.43
-1.415
-1.375
-1.315
-1.275
-1.235
-1.215
-1.19
-1.17
-1.14
-1.105
-1.06
-1.005
-0.965
-0.92
-0.875
-0.83
-0.785
-0.74
-0.7
-0.655
-0.645
-0.615
-0.605
-0.59
-0.575
-0.545
-0.515
-0.49
-0.47
-0.455
-0.455
-0.455
-0.45
-0.445
-0.455
-0.455
-0.475
-0.46
-0.475
-0.475
-0.47
-0.465
-0.455
-0.465
-0.48
-0.49
-0.525
-0.53
-0.545
-0.545
-0.535
-0.545
-0.54
-0.56
-0.56
-0.565
-0.565
-0.575
-0.58
-0.575
-0.59
-0.59
-0.59
-0.575
-0.56
-0.545
-0.52
-0.515
-0.51
-0.53
-0.53
-0.53
-0.52
-0.495
-0.505
-0.475
-0.475
-0.475
-0.45
-0.435
-0.41
-0.38
-0.365
-0.345
-0.33
-0.305
-0.26
-0.22
-0.19
-0.165
-0.165
-0.175
-0.195
-0.225
-0.25
-0.285
-0.335
-0.4
-0.435
-0.46
-0.485
-0.5
-0.515
-0.515
-0.52
-0.525
-0.53
-0.54
-0.55
-0.535
-0.53
-0.52
-0.505
-0.48
-0.46
-0.475
-0.485
-0.51
-0.505
-0.5
-0.48
-0.46
-0.46
-0.47
-0.47
-0.495
-0.52
-0.53
-0.5
-0.42
-0.27
-0.015
0.3
0.71
1.165
1.615
2.015
2.285
2.375
2.26
1.94
1.515
1.01
0.49
-0.005
-0.45
-0.8
-1.05
-1.18
-1.21
-1.125
-1.005
-0.885
-0.79
-0.72
-0.695
-0.71
-0.72
-0.745
-0.755
-0.775
-0.775
-0.775
-0.785
-0.79
-0.8
-0.81
-0.82
-0.82
-0.815
-0.81
-0.815
-0.815
-0.835
-0.815
-0.815
-0.81
-0.8
-0.805
-0.805
-0.815
-0.81
-0.8
-0.785
-0.755
-0.735
-0.715
-0.71
-0.705
-0.695
-0.695
-0.68
-0.65
-0.62
-0.595
-0.575
-0.555
-0.53
-0.515
-0.48
-0.455
-0.425
-0.4
-0.37
-0.37
-0.305
-0.275
-0.23
-0.21
-0.17
-0.125
-0.115
-0.095
-0.08
-0.055
-0.015
0.015
0.065
0.1
0.12
0.14
0.155
0.165
0.17
0.2
0.23
0.24
0.245
0.235
0.24
0.24
0.235
0.235
0.235
0.215
0.2
0.175
0.145
0.105
0.085
0.055
0.06
0.025
0.005
-0.03
-0.07
-0.105
-0.135
-0.17
-0.2
-0.225
-0.25
-0.29
-0.32
-0.34
-0.365
-0.365
-0.385
-0.395
-0.41
-0.43
-0.465
-0.47
-0.48
-0.475
-0.465
-0.47
-0.465
-0.46
-0.465
-0.465
-0.475
-0.475
-0.46
-0.44
-0.44
-0.41
-0.38
-0.345
-0.31
-0.27
-0.245
-0.225
-0.215
-0.21
-0.22
-0.21
-0.21
-0.215
-0.225
-0.24
-0.28
-0.32
-0.385
-0.445
-0.5
-0.54
-0.57
-0.59
-0.61
-0.6
-0.6
-0.605
-0.595
-0.59
-0.585
-0.59
-0.59
-0.595
-0.615
-0.61
-0.605
-0.595
-0.6
-0.6
-0.595
-0.595
-0.595
-0.605
-0.635
-0.675
-0.71
-0.71
-0.675
-0.55
-0.3
0.055
0.5
0.99
1.515
1.99
2.38
2.62
2.685
2.595
2.36
2.055
1.69
1.305
0.89
0.47
0.02
-0.4
-0.715
-0.885
-0.92
-0.865
-0.795
-0.765
-0.755
-0.775
-0.81
-0.845
-0.875
-0.9
-0.925
-0.94
-0.97
-0.98
-0.975
-0.995
-1.0
-1.0
-1.025
-1.025
-1.04
-1.035
-1.035
-1.04
-1.06
-1.08
-1.1
-1.11
-1.11
-1.1
-1.1
-1.09
-1.095
-1.105
-1.11
-1.11
-1.11
-1.11
-1.09
-1.075
-1.07
-1.055
-1.05
-1.035
-1.02
-0.99
-0.965
-0.945
-0.925
-0.91
-0.905
-0.89
-0.845
-0.805
-0.76
-0.715
-0.695
-0.655
-0.625
-0.595
-0.56
-0.53
-0.48
-0.44
-0.395
-0.365
-0.33
-0.3
-0.265
-0.22
-0.19
-0.165
-0.17
-0.14
-0.135
-0.1
-0.075
-0.06
-0.035
-0.01
-0.005
-0.005
-0.01
-0.025
-0.03
-0.025
-0.025
-0.03
-0.045
-0.06
-0.075
-0.085
-0.095
-0.11
-0.13
-0.16
-0.195
-0.23
-0.27
-0.28
-0.295
-0.295
-0.315
-0.34
-0.345
-0.37
-0.39
-0.415
-0.42
-0.425
-0.43
-0.45
-0.455
-0.455
-0.465
-0.47
-0.465
-0.44
-0.42
-0.395
-0.38
-0.36
-0.345
-0.33
-0.31
-0.275
-0.25
-0.23
-0.22
-0.205
-0.205
-0.21
-0.23
-0.24
-0.285
-0.33
-0.395
-0.44
-0.465
-0.495
-0.51
-0.53
-0.53
-0.53
-0.54
-0.55
-0.545
-0.56
-0.535
-0.53
-0.515
-0.525
-0.525
-0.53
-0.54
-0.54
-0.52
-0.51
-0.52
-0.515
-0.525
-0.53
-0.52
-0.51
-0.505
-0.515
-0.515
-0.485
-0.41
-0.27
-0.035
0.295
0.69
1.185
1.675
2.09
2.35
2.385
2.185
1.825
1.365
0.86
0.38
-0.025
-0.365
-0.62
-0.815
-0.94
-0.965
-0.9
-0.805
-0.72
-0.645
-0.615
-0.615
-0.65
-0.68
-0.685
-0.705
-0.72
-0.715
-0.715
-0.725
-0.74
-0.755
-0.755
-0.78
-0.785
-0.785
-0.79
-0.785
-0.785
-0.785
-0.78
-0.8
-0.8
-0.825
-0.835
-0.835
-0.835
-0.815
-0.805
-0.795
-0.78
-0.77
-0.76
-0.75
-0.735
-0.72
-0.7
-0.69
-0.68
-0.67
-0.64
-0.605
-0.56
-0.505
-0.465
-0.44
-0.42
-0.4
-0.39
-0.34
-0.315
-0.25
-0.2
-0.15
-0.095
-0.06
-0.03
0.005
0.055
0.095
0.115
0.15
0.175
0.205
0.235
0.275
0.315
0.335
0.375
0.395
0.425
0.425
0.405
0.4
0.41
0.42
0.435
0.425
0.42
0.395
0.38
0.35
0.345
0.325
0.295
0.265
0.25
0.225
0.2
0.18
0.17
0.155
0.145
0.125
0.105
0.07
0.04
-0.005
-0.03
-0.05
-0.07
-0.09
-0.115
-0.135
-0.16
-0.175
-0.2
-0.225
-0.245
-0.265
-0.28
-0.275
-0.27
-0.26
-0.245
-0.235
-0.24
-0.255
-0.285
-0.275
-0.27
-0.25
-0.215
-0.16
-0.14
-0.1
-0.06
-0.045
-0.025
-0.02
-0.005
-0.005
0.005
0.025
0.015
0.005
-0.005
-0.03
-0.08
-0.13
-0.18
-0.24
-0.285
-0.32
-0.34
-0.34
-0.325
-0.32
-0.31
-0.3
-0.305
-0.315
-0.315
-0.315
-0.31
-0.29
-0.3
-0.315
-0.33
-0.36
-0.4
-0.43
-0.435
-0.43
-0.415
-0.37
-0.325
-0.245
-0.14
-0.005
0.165
0.4
0.68
1.005
1.355
1.73
2.085
2.405
2.665
2.85
2.92
2.88
2.74
2.53
2.295
2.0
1.645
1.26
0.88
0.5
0.13
-0.19
-0.425
-0.57
-0.625
-0.61
-0.575
-0.55
-0.53
-0.55
-0.59
-0.63
-0.68
-0.7
-0.72
-0.72
-0.725
-0.73
-0.735
-0.755
-0.76
-0.78
-0.78
-0.79
-0.795
-0.79
-0.8
-0.825
-0.835
-0.845
-0.84
-0.835
-0.825
-0.83
-0.81
-0.81
-0.835
-0.855
-0.85
-0.845
-0.84
-0.84
-0.835
-0.825
-0.82
-0.82
-0.81
-0.8
-0.795
-0.78
-0.78
-0.77
-0.755
-0.74
-0.72
-0.705
-0.66
-0.63
-0.6
-0.585
-0.58
-0.56
-0.54
-0.5
-0.47
-0.41
-0.38
-0.34
-0.32
-0.29
-0.265
-0.23
-0.195
-0.155
-0.125
-0.1
-0.075
-0.04
-0.02
0.015
0.05
0.085
0.1
0.12
0.135
0.14
0.13
0.135
0.135
0.14
0.17
0.175
0.18
0.16
0.155
0.12
0.115
0.11
0.09
0.075
0.055
0.05
0.04
0.025
0.005
-0.005
-0.035
-0.055
-0.075
-0.095
-0.135
-0.17
-0.18
-0.205
-0.2
-0.215
-0.225
-0.24
-0.255
-0.265
-0.28
-0.295
-0.3
-0.315
-0.305
-0.315
-0.295
-0.295
-0.29
-0.27
-0.26
-0.245
-0.255
-0.25
-0.265
-0.27
-0.285
-0.275
-0.255
-0.225
-0.18
-0.14
-0.11
-0.09
-0.075
-0.045
-0.03
-0.005
0.025
0.04
0.055
0.045
0.035
0.02
0.0
-0.015
-0.055
-0.115
-0.175
-0.24
-0.29
-0.32
-0.335
-0.325
-0.31
-0.285
-0.295
-0.305
-0.32
-0.335
-0.345
-0.355
-0.36
-0.33
-0.32
-0.315
-0.315
-0.33
-0.315
-0.32
-0.31
-0.305
-0.31
-0.32
-0.34
-0.365
-0.375
-0.4
-0.385
-0.35
-0.28
-0.16
0.015
0.215
0.48
0.8
1.175
1.6
2.0
2.295
2.43
2.34
2.04
1.615
1.105
0.595
0.125
-0.275
-0.61
-0.905
-1.06
-1.11
-1.08
-0.995
-0.865
-0.735
-0.65
-0.59
-0.575
-0.585
-0.61
-0.635
-0.645
-0.66
-0.655
-0.655
-0.65
-0.65
-0.68
-0.68
-0.695
-0.7
-0.695
-0.705
-0.705
-0.71
-0.715
-0.705
-0.7
-0.715
-0.71
-0.71
-0.725
-0.735
-0.725
-0.73
-0.72
-0.71
-0.685
-0.67
-0.665
-0.655
-0.655
-0.635
-0.625
-0.615
-0.6
-0.57
-0.555
-0.505
-0.495
-0.47
-0.45
-0.435
-0.405
-0.385
-0.36
-0.325
-0.32
-0.285
-0.245
-0.215
-0.175
-0.13
-0.09
-0.06
-0.04
-0.025
-0.005
0.025
0.055
0.1
0.135
0.17
0.21
0.235
0.265
0.295
0.315
0.345
0.36
0.365
0.37
0.38
0.37
0.385
0.39
0.42
0.415
0.41
0.395
0.365
0.34
0.31
0.29
0.28
0.245
0.23
0.2
0.175
0.14
0.1
0.07
0.025
0.015
-0.015
-0.035
-0.065
-0.095
-0.125
-0.13
-0.145
-0.15
-0.16
-0.17
-0.185
-0.21
-0.225
-0.24
-0.22
-0.215
-0.215
-0.205
-0.215
-0.225
-0.225
-0.215
-0.205
-0.175
-0.145
-0.115
-0.075
-0.05
-0.025
0.0
0.03
0.06
0.075
0.07
0.075
0.06
0.05
0.035
0.015
0.0
-0.02
-0.065
-0.13
-0.19
-0.235
-0.285
-0.305
-0.31
-0.315
-0.325
-0.325
-0.33
-0.325
-0.335
-0.32
-0.32
-0.305
-0.315
-0.32
-0.35
-0.39
-0.42
-0.435
-0.425
-0.41
-0.34
-0.24
-0.12
-0.005
0.135
0.29
0.465
0.665
0.915
1.23
1.565
1.915
2.245
2.555
2.81
2.98
3.06
3.03
2.905
2.72
2.43
2.085
1.675
1.245
0.76
0.285
-0.15
-0.465
-0.65
-0.695
-0.665
-0.625
-0.59
-0.595
-0.65
-0.68
-0.715
-0.72
-0.75
-0.76
-0.785
-0.805
-0.815
-0.84
-0.85
-0.85
-0.865
-0.865
-0.88
-0.895
-0.915
-0.915
-0.93
-0.935
-0.955
-0.945
-0.96
-0.98
-0.985
-0.995
-0.985
-0.995
-0.985
-0.98
-0.99
-0.995
-1.005
-1.01
-0.995
-0.99
-0.97
-0.955
-0.95
-0.935
-0.935
-0.925
-0.91
-0.88
-0.845
-0.815
-0.785
-0.765
-0.74
-0.71
-0.66
-0.625
-0.595
-0.545
-0.515
-0.5
-0.48
-0.445
-0.415
-0.37
-0.315
-0.27
-0.205
-0.155
-0.125
-0.09
-0.05
-0.01
0.02
0.045
0.055
0.07
0.08
0.105
0.13
0.165
0.195
0.21
0.205
0.195
0.19
0.175
0.165
0.15
0.16
0.155
0.145
0.13
0.105
0.085
0.075
0.055
0.03
0.025
0.005
-0.01
-0.045
-0.075
-0.11
-0.12
-0.135
-0.15
-0.17
-0.18
-0.205
-0.22
-0.225
-0.215
-0.215
-0.205
-0.195
-0.19
-0.185
-0.195
-0.185
-0.19
-0.18
-0.175
-0.165
-0.145
-0.13
-0.105
-0.065
-0.01
0.015
0.05
0.075
0.075
0.09
0.105
0.115
0.145
0.16
0.155
0.14
0.11
0.06
0.015
-0.04
-0.09
-0.13
-0.16
-0.205
-0.22
-0.235
-0.235
-0.235
-0.23
-0.215
-0.21
-0.21
-0.215
-0.23
-0.235
-0.25
-0.26
-0.235
-0.23
-0.2
-0.19
-0.18
-0.18
-0.2
-0.2
-0.215
-0.22
-0.22
-0.23
-0.235
-0.22
-0.2
-0.12
0.005
0.18
0.405
0.635
0.885
1.18
1.53
1.885
2.19
2.345
2.27
2.005
1.585
1.105
0.595
0.145
-0.225
-0.515
-0.715
-0.83
-0.89
-0.885
-0.81
-0.71
-0.595
-0.49
-0.43
-0.4
-0.405
-0.425
-0.45
-0.475
-0.49
-0.5
-0.495
-0.48
-0.46
-0.465
-0.465
-0.485
-0.51
-0.53
-0.54
-0.545
-0.52
-0.5
-0.495
-0.49
-0.5
-0.49
-0.495
-0.495
-0.475
-0.47
-0.46
-0.45
-0.445
-0.435
-0.43
-0.41
-0.395
-0.38
-0.34
-0.325
-0.315
-0.295
-0.29
-0.255
-0.235
-0.2
-0.16
-0.125
-0.095
-0.065
-0.035
-0.01
0.02
0.055
0.09
0.13
0.17
0.215
0.255
0.31
0.34
0.375
0.38
0.41
0.425
0.445
0.465
0.505
0.535
0.57
0.61
0.64
0.665
0.67
0.67
0.655
0.65
0.645
0.635
0.635
0.63
0.625
0.62
0.59
0.575
0.56
0.535
0.495
0.455
0.415
0.385
0.36
0.355
0.34
0.34
0.315
0.265
0.23
0.19
0.15
0.115
0.1
0.085
0.07
0.04
0.015
-0.02
-0.04
-0.065
-0.09
-0.095
-0.105
-0.11
-0.125
-0.135
-0.14
-0.135
-0.14
-0.115
-0.11
-0.11
-0.12
-0.135
-0.15
-0.145
-0.14
-0.115
-0.085
-0.06
-0.025
0.005
0.045
0.07
0.095
0.115
0.12
0.14
0.155
0.155
0.165
0.165
0.18
0.17
0.155
0.11
0.045
-0.03
-0.1
-0.14
-0.195
-0.245
-0.29
-0.34
-0.37
-0.365
-0.32
-0.215
-0.065
0.155
0.385
0.62
0.855
1.07
1.305
1.53
1.78
2.02
2.25
2.475
2.63
2.755
2.85
2.915
2.93
2.92
2.89
2.82
2.77
2.695
2.66
2.62
2.59
2.56
2.53
2.475
2.385
2.23
2.015
1.755
1.42
1.065
0.68
0.325
0.01
-0.26
-0.495
-0.69
-0.815
-0.885
-0.915
-0.89
-0.9
-0.905
-0.92
-0.96
-1.0
-1.035
-1.065
-1.09
-1.12
-1.145
-1.16
-1.175
-1.18
-1.195
-1.215
-1.235
-1.26
-1.28
-1.31
-1.33
-1.345
-1.37
-1.395
-1.41
-1.41
-1.425
-1.415
-1.42
-1.42
-1.44
-1.44
-1.455
-1.465
-1.475
-1.46
-1.435
-1.42
-1.4
-1.38
-1.355
-1.355
-1.33
-1.285
-1.245
-1.235
-1.205
-1.175
-1.145
-1.105
-1.05
-0.99
-0.935
-0.88
-0.84
-0.805
-0.765
-0.73
-0.67
-0.615
-0.565
-0.505
-0.475
-0.445
-0.415
-0.375
-0.345
-0.315
-0.285
-0.27
-0.265
-0.25
-0.235
-0.215
-0.195
-0.175
-0.18
-0.185
-0.19
-0.205
-0.215
-0.23
-0.215
-0.23
-0.24
-0.24
-0.25
-0.255
-0.28
-0.285
-0.305
-0.325
-0.335
-0.365
-0.395
-0.395
-0.395
-0.39
-0.375
-0.37
-0.37
-0.375
-0.395
-0.4
-0.41
-0.39
-0.385
-0.365
-0.355
-0.36
-0.36
-0.355
-0.33
-0.335
-0.315
-0.295
-0.275
-0.265
-0.24
-0.225
-0.19
-0.155
-0.12
-0.095
-0.075
-0.065
-0.055
-0.055
-0.055
-0.05
-0.06
-0.075
-0.09
-0.15
-0.185
-0.24
-0.3
-0.34
-0.36
-0.37
-0.395
-0.4
-0.41
-0.425
-0.41
-0.395
-0.39
-0.375
-0.375
-0.38
-0.39
-0.4
-0.4
-0.4
-0.395
-0.375
-0.355
-0.35
-0.345
-0.34
-0.35
-0.35
-0.365
-0.365
-0.4
-0.4
-0.38
-0.315
-0.205
-0.01
0.255
0.58
0.97
1.405
1.82
2.165
2.345
2.32
2.09
1.72
1.26
0.775
0.335
-0.045
-0.345
-0.615
-0.8
-0.905
-0.93
-0.865
-0.765
-0.64
-0.545
-0.5
-0.485
-0.49
-0.525
-0.56
-0.58
-0.6
-0.625
-0.62
-0.625
-0.62
-0.615
-0.605
-0.615
-0.62
-0.63
-0.635
-0.645
-0.64
-0.65
-0.66
-0.665
-0.66
-0.67
-0.665
-0.645
-0.625
-0.625
-0.595
-0.595
-0.6
-0.585
-0.58
-0.57
-0.54
-0.515
-0.505
-0.48
-0.45
-0.43
-0.405
-0.365
-0.325
-0.305
-0.28
-0.255
-0.215
-0.195
-0.15
-0.1
-0.065
-0.005
0.045
0.08
0.12
0.16
0.2
0.23
0.275
0.315
0.345
0.375
0.39
0.42
0.46
0.495
0.545
0.57
0.59
0.6
0.6
0.615
0.63
0.635
0.65
0.645
0.625
0.605
0.57
0.56
0.565
0.555
0.54
0.51
0.485
0.455
0.415
0.395
0.37
0.345
0.31
0.275
0.23
0.195
0.165
0.14
0.13
0.125
0.1
0.085
0.045
0.01
-0.01
-0.035
-0.04
-0.05
-0.06
-0.065
-0.08
-0.075
-0.085
-0.085
-0.075
-0.08
-0.07
-0.065
-0.07
-0.06
-0.025
0.02
0.065
0.1
0.135
0.13
0.14
0.155
0.17
0.185
0.2
0.215
0.215
0.205
0.19
0.15
0.125
0.08
0.025
-0.025
-0.085
-0.12
-0.125
-0.095
0.0
0.145
0.35
0.55
0.76
0.97
1.195
1.445
1.725
1.975
2.205
2.395
2.54
2.66
2.76
2.83
2.88
2.885
2.855
2.785
2.7
2.61
2.545
2.475
2.47
2.45
2.41
2.335
2.21
2.025
1.795
1.525
1.225
0.89
0.57
0.29
0.055
-0.1
-0.255
-0.36
-0.465
-0.57
-0.68
-0.78
-0.85
-0.91
-0.915
-0.925
-0.93
-0.915
-0.915
-0.915
-0.925
-0.945
-0.98
-1.0
-1.02
-1.045
-1.06
-1.08
-1.095
-1.105
-1.115
-1.125
-1.135
-1.145
-1.16
-1.165
-1.185
-1.19
-1.2
-1.22
-1.235
-1.235
-1.225
-1.205
-1.19
-1.19
-1.175
-1.18
-1.195
-1.175
-1.16
-1.135
-1.1
-1.09
-1.075
-1.06
-1.02
-0.975
-0.945
-0.925
-0.885
-0.85
-0.825
-0.79
-0.745
-0.7
-0.65
-0.585
-0.515
-0.465
-0.435
-0.4
-0.355
-0.315
-0.285
-0.26
-0.23
-0.215
-0.185
-0.17
-0.155
-0.12
-0.085
-0.05
-0.04
-0.04
-0.045
-0.05
-0.05
-0.045
-0.03
-0.025
-0.01
-0.02
-0.01
-0.025
-0.035
-0.035
-0.04
-0.04
-0.05
-0.06
-0.085
-0.1
-0.115
-0.12
-0.115
-0.13
-0.14
-0.145
-0.165
-0.19
-0.2
-0.2
-0.19
-0.18
-0.16
-0.155
-0.17
-0.18
-0.2
-0.19
-0.185
-0.17
-0.16
-0.155
-0.155
-0.155
-0.16
-0.155
-0.15
-0.13
-0.12
-0.12
-0.115
-0.13
-0.135
-0.145
-0.145
-0.14
-0.12
-0.08
-0.055
-0.03
-0.01
0.02
0.025
0.05
0.075
0.105
0.145
0.155
0.17
0.17
0.155
0.135
0.125
0.1
0.045
-0.015
-0.085
-0.125
-0.14
-0.16
-0.15
-0.16
-0.16
-0.16
-0.17
-0.185
-0.2
-0.22
-0.225
-0.21
-0.205
-0.185
-0.19
-0.175
-0.165
-0.16
-0.165
-0.165
-0.16
-0.165
-0.185
-0.17
-0.185
-0.19
-0.195
-0.2
-0.195
-0.17
-0.09
0.05
0.26
0.545
0.87
1.255
1.675
2.05
2.32
2.365
2.195
1.825
1.355
0.845
0.34
-0.105
-0.485
-0.765
-0.95
-1.015
-0.965
-0.855
-0.715
-0.58
-0.495
-0.44
-0.445
-0.46
-0.475
-0.49
-0.495
-0.5
-0.515
-0.515
-0.5
-0.5
-0.5
-0.505
-0.52
-0.525
-0.55
-0.55
-0.54
-0.535
-0.51
-0.495
-0.485
-0.49
-0.5
-0.5
-0.5
-0.485
-0.47
-0.45
-0.43
-0.41
-0.405
-0.38
-0.365
-0.345
-0.325
-0.29
-0.27
-0.26
-0.245
-0.22
-0.19
-0.165
-0.125
-0.075
-0.06
-0.05
-0.02
-0.005
0.035
0.07
0.105
0.145
0.18
0.205
0.235
0.275
0.31
0.34
0.37
0.405
0.425
0.435
0.455
0.495
0.525
0.565
0.61
0.625
0.645
0.66
0.655
0.645
0.645
0.64
0.645
0.645
0.63
0.61
0.59
0.57
0.56
0.535
0.5
0.455
0.415
0.36
0.32
0.295
0.27
0.25
0.24
0.2
0.17
0.135
0.085
0.055
0.04
0.03
0.0
-0.015
-0.035
-0.065
-0.085
-0.075
-0.08
-0.085
-0.085
-0.1
-0.11
-0.115
-0.13
-0.125
-0.095
-0.085
-0.075
-0.065
-0.065
-0.08
-0.09
-0.065
-0.055
-0.01
0.03
0.065
0.09
0.115
0.135
0.155
0.175
0.185
0.215
0.205
0.18
0.155
0.135
0.115
0.08
0.035
0.0
-0.04
-0.1
-0.14
-0.175
-0.2
-0.215
-0.24
-0.26
-0.29
-0.325
-0.34
-0.345
-0.315
-0.235
-0.115
0.055
0.255
0.45
0.65
0.845
1.05
1.27
1.485
1.735
1.975
2.185
2.35
2.475
2.575
2.65
2.69
2.705
2.71
2.725
2.725
2.715
2.72
2.725
2.75
2.765
2.77
2.75
2.695
2.575
2.405
2.165
1.88
1.52
1.095
0.62
0.115
-0.34
-0.685
-0.88
-0.93
-0.91
-0.865
-0.825
-0.81
-0.835
-0.875
-0.93
-0.98
-1.02
-1.065
-1.07
-1.085
-1.1
-1.13
-1.14
-1.17
-1.185
-1.19
-1.21
-1.225
-1.24
-1.26
-1.285
-1.315
-1.35
-1.355
-1.365
-1.375
-1.38
-1.395
-1.4
-1.415
-1.435
-1.445
-1.45
-1.45
-1.46
-1.455
-1.445
-1.445
-1.43
-1.42
-1.41
-1.385
-1.375
-1.39
-1.35
-1.345
-1.325
-1.29
-1.26
-1.2
-1.165
-1.12
-1.09
-1.04
-1.035
-0.995
-0.95
-0.905
-0.86
-0.795
-0.745
-0.705
-0.66
-0.62
-0.56
-0.52
-0.46
-0.41
-0.38
-0.345
-0.32
-0.3
-0.265
-0.23
-0.18
-0.14
-0.1
-0.095
-0.075
-0.08
-0.08
-0.075
-0.065
-0.04
-0.02
-0.02
-0.005
-0.015
-0.02
-0.03
-0.045
-0.05
-0.055
-0.07
-0.08
-0.095
-0.115
-0.125
-0.135
-0.155
-0.155
-0.17
-0.175
-0.195
-0.225
-0.24
-0.245
-0.235
-0.215
-0.21
-0.19
-0.19
-0.19
-0.195
-0.215
-0.21
-0.215
-0.205
-0.2
-0.195
-0.185
-0.17
-0.15
-0.12
-0.085
-0.035
-0.01
0.025
0.045
0.055
0.06
0.07
0.095
0.135
0.165
0.165
0.175
0.15
0.12
0.085
0.02
-0.03
-0.075
-0.115
-0.13
-0.165
-0.18
-0.195
-0.21
-0.21
-0.205
-0.2
-0.205
-0.21
-0.22
-0.23
-0.225
-0.215
-0.2
-0.18
-0.16
-0.165
-0.18
-0.185
-0.195
-0.19
-0.18
-0.165
-0.165
-0.17
-0.195
-0.215
-0.225
-0.19
-0.12
0.02
0.225
0.475
0.735
1.035
1.395
1.78
2.135
2.37
2.42
2.245
1.925
1.495
1.005
0.52
0.095
-0.255
-0.535
-0.735
-0.835
-0.835
-0.77
-0.65
-0.52
-0.405
-0.35
-0.325
-0.355
-0.405
-0.435
-0.46
-0.46
-0.455
-0.435
-0.435
-0.445
-0.455
-0.48
-0.49
-0.51
-0.5
-0.495
-0.495
-0.495
-0.5
-0.51
-0.51
-0.515
-0.505
-0.505
-0.505
-0.5
-0.505
-0.5
-0.48
-0.465
-0.43
-0.42
-0.395
-0.405
-0.375
-0.375
-0.355
-0.33
-0.285
-0.235
-0.21
-0.17
-0.15
-0.115
-0.085
-0.045
-0.015
0.02
0.045
0.09
0.135
0.185
0.235
0.275
0.33
0.38
0.425
0.465
0.495
0.51
0.555
0.575
0.615
0.65
0.68
0.72
0.735
0.75
0.77
0.785
0.795
0.815
0.81
0.8
0.795
0.785
0.79
0.78
0.775
0.76
0.76
0.745
0.705
0.685
0.645
0.62
0.6
0.585
0.565
0.545
0.51
0.485
0.445
0.39
0.37
0.345
0.315
0.29
0.27
0.245
0.215
0.2
0.19
0.165
0.155
0.14
0.125
0.09
0.075
0.055
0.055
0.04
0.045
0.06
0.055
0.045
0.025
0.015
0.02
0.025
0.055
0.085
0.12
0.16
0.205
0.23
0.24
0.265
0.27
0.285
0.295
0.295
0.31
0.305
0.3
0.29
0.275
0.25
0.22
0.16
0.115
0.045
-0.01
-0.045
-0.07
-0.08
-0.08
-0.07
-0.075
-0.08
-0.07
-0.075
-0.07
-0.08
-0.085
-0.09
-0.11
-0.13
-0.14
-0.175
-0.175
-0.155
-0.09
0.0
0.12
0.275
0.435
0.61
0.8
0.975
1.15
1.325
1.525
1.715
1.905
2.1
2.295
2.485
2.655
2.8
2.89
2.92
2.905
2.825
2.67
2.44
2.14
1.745
1.35
0.96
0.595
0.255
-0.045
-0.255
-0.4
-0.445
-0.445
-0.42
-0.415
-0.43
-0.44
-0.49
-0.545
-0.565
-0.6
-0.61
-0.605
-0.615
-0.63
-0.65
-0.655
-0.67
-0.665
-0.68
-0.695
-0.72
-0.74
-0.755
-0.765
-0.77
-0.78
-0.77
-0.78
-0.795
-0.82
-0.83
-0.825
-0.84
-0.83
-0.83
-0.825
-0.83
-0.825
-0.825
-0.81
-0.8
-0.785
-0.78
-0.775
-0.755
-0.76
-0.76
-0.77
-0.75
-0.74
-0.7
-0.675
-0.635
-0.605
-0.605
-0.58
-0.555
-0.53
-0.49
-0.455
-0.4
-0.36
-0.32
-0.28
-0.25
-0.21
-0.18
-0.155
-0.11
-0.08
-0.04
-0.005
0.04
0.06
0.105
0.15
0.18
0.215
0.23
0.245
0.255
0.265
0.27
0.29
0.315
0.33
0.355
0.345
0.34
0.32
0.31
0.28
0.25
0.25
0.235
0.225
0.205
0.205
0.195
0.185
0.165
0.145
0.12
0.09
0.075
0.045
0.025
0.02
0.01
-0.01
-0.015
-0.04
-0.06
-0.085
-0.105
-0.115
-0.125
-0.115
-0.11
-0.09
-0.08
-0.08
-0.075
-0.08
-0.085
-0.08
-0.07
-0.055
-0.05
-0.04
-0.05
-0.05
-0.02
0.02
0.06
0.105
0.15
0.17
0.19
0.2
0.21
0.225
0.245
0.24
0.255
0.25
0.235
0.21
0.165
0.11
0.065
0.01
-0.025
-0.065
-0.095
-0.11
-0.12
-0.11
-0.095
-0.08
-0.075
-0.08
-0.09
-0.11
-0.115
-0.115
-0.12
-0.115
-0.12
-0.105
-0.09
-0.09
-0.09
-0.075
-0.075
-0.075
-0.09
-0.11
-0.13
-0.15
-0.13
-0.065
0.075
0.285
0.56
0.88
1.235
1.605
1.95
2.22
2.36
2.345
2.155
1.8
1.38
0.905
0.435
0.025
-0.325
-0.6
-0.8
-0.89
-0.9
-0.83
-0.695
-0.565
-0.465
-0.38
-0.35
-0.365
-0.39
-0.43
-0.46
-0.465
-0.46
-0.465
-0.455
-0.46
-0.46
-0.46
-0.455
-0.46
-0.45
-0.46
-0.47
-0.49
-0.495
-0.485
-0.475
-0.46
-0.44
-0.44
-0.43
-0.42
-0.405
-0.385
-0.38
-0.36
-0.355
-0.32
-0.305
-0.295
-0.265
-0.25
-0.215
-0.195
-0.165
-0.145
-0.115
-0.1
-0.08
-0.045
0.0
0.05
0.08
0.105
0.145
0.17
0.195
0.225
0.26
0.28
0.32
0.35
0.375
0.405
0.455
0.5
0.535
0.565
0.585
0.605
0.62
0.63
0.64
0.655
0.68
0.675
0.675
0.67
0.655
0.645
0.63
0.62
0.615
0.6
0.57
0.545
0.525
0.5
0.485
0.465
0.455
0.42
0.39
0.35
0.305
0.265
0.225
0.205
0.19
0.175
0.145
0.12
0.09
0.055
0.03
0.005
-0.005
-0.02
-0.03
-0.045
-0.065
-0.07
-0.07
-0.065
-0.07
-0.05
-0.06
-0.075
-0.085
-0.095
-0.095
-0.075
-0.055
-0.025
0.01
0.04
0.06
0.085
0.125
0.145
0.165
0.19
0.2
0.2
0.225
0.225
0.23
0.23
0.22
0.195
0.145
0.085
0.025
-0.055
-0.1
-0.15
-0.155
-0.17
-0.18
-0.175
-0.175
-0.185
-0.2
-0.205
-0.21
-0.205
-0.215
-0.23
-0.22
-0.235
-0.22
-0.205
-0.19
-0.195
-0.195
-0.215
-0.23
-0.24
-0.27
-0.295
-0.33
-0.37
-0.405
-0.395
-0.34
-0.215
-0.01
0.295
0.675
1.11
1.59
2.035
2.385
2.595
2.655
2.545
2.32
2.05
1.735
1.4
1.075
0.76
0.425
0.115
-0.18
-0.39
-0.5
-0.53
-0.495
-0.46
-0.445
-0.45
-0.485
-0.52
-0.555
-0.575
-0.59
-0.605
-0.615
-0.615
-0.625
-0.63
-0.635
-0.65
-0.665
-0.695
-0.72
-0.72
-0.72
-0.72
-0.71
-0.695
-0.71
-0.725
-0.745
-0.755
-0.765
-0.76
-0.755
-0.745
-0.73
-0.725
-0.73
-0.73
-0.735
-0.715
-0.71
-0.695
-0.685
-0.68
-0.685
-0.66
-0.64
-0.62
-0.59
-0.565
-0.535
-0.51
-0.5
-0.475
-0.46
-0.425
-0.395
-0.36
-0.315
-0.255
-0.23
-0.195
-0.155
-0.11
-0.08
-0.035
-0.005
0.02
0.035
0.07
0.09
0.13
0.18
0.22
0.245
0.275
0.295
0.31
0.31
0.33
0.345
0.365
0.385
0.39
0.395
0.41
0.39
0.38
0.365
0.36
0.365
0.35
0.335
0.32
0.305
0.285
0.27
0.27
0.27
0.255
0.23
0.205
0.17
0.135
0.105
0.085
0.06
0.07
0.045
0.03
0.015
-0.005
-0.025
-0.035
-0.04
-0.045
-0.055
-0.075
-0.085
-0.085
-0.06
-0.03
0.005
0.03
0.055
0.07
0.075
0.08
0.08
0.11
0.135
0.16
0.185
0.185
0.165
0.145
0.105
0.06
0.01
-0.035
-0.09
-0.115
-0.165
-0.19
-0.2
-0.195
-0.175
-0.165
-0.155
-0.175
-0.18
-0.19
-0.2
-0.195
-0.195
-0.18
-0.165
-0.165
-0.17
-0.175
-0.175
-0.17
-0.16
-0.165
-0.175
-0.185
-0.2
-0.21
-0.215
-0.21
-0.165
-0.06
0.11
0.35
0.68
1.1
1.56
1.99
2.325
2.47
2.43
2.225
1.91
1.55
1.155
0.765
0.38
0.025
-0.315
-0.58
-0.7
-0.69
-0.6
-0.455
-0.345
-0.29
-0.305
-0.36
-0.4
-0.445
-0.48
-0.475
-0.465
-0.455
-0.46
-0.47
-0.47
-0.485
-0.495
-0.505
-0.51
-0.535
-0.55
-0.56
-0.565
-0.555
-0.555
-0.545
-0.54
-0.535
-0.555
-0.565
-0.565
-0.575
-0.57
-0.56
-0.535
-0.515
-0.505
-0.49
-0.49
-0.47
-0.445
-0.42
-0.4
-0.38
-0.37
-0.35
-0.335
-0.305
-0.265
-0.22
-0.18
-0.135
-0.085
-0.065
-0.02
0.015
0.045
0.115
0.17
0.21
0.24
0.265
0.3
0.345
0.385
0.425
0.46
0.495
0.52
0.54
0.57
0.58
0.62
0.64
0.655
0.655
0.655
0.64
0.625
0.615
0.61
0.615
0.615
0.62
0.6
0.59
0.56
0.54
0.52
0.505
0.5
0.475
0.435
0.42
0.38
0.37
0.365
0.36
0.335
0.3
0.27
0.235
0.185
0.155
0.12
0.11
0.085
0.065
0.04
0.045
0.02
0.02
0.015
0.02
0.02
0.01
-0.02
-0.02
-0.015
0.01
0.045
0.075
0.115
0.135
0.15
0.155
0.165
0.165
0.185
0.215
0.24
0.25
0.25
0.235
0.225
0.2
0.155
0.095
0.02
-0.045
-0.085
-0.125
-0.125
-0.12
-0.095
-0.105
-0.09
-0.1
-0.11
-0.14
-0.13
-0.13
-0.12
-0.11
-0.11
-0.12
-0.125
-0.125
-0.105
-0.1
-0.085
-0.09
-0.095
-0.115
-0.13
-0.15
-0.16
-0.18
-0.165
-0.145
-0.07
0.065
0.275
0.565
0.925
1.365
1.83
2.235
2.53
2.665
2.62
2.44
2.165
1.85
1.495
1.145
0.795
0.425
0.035
-0.28
-0.495
-0.53
-0.475
-0.37
-0.295
-0.275
-0.285
-0.34
-0.41
-0.445
-0.465
-0.48
-0.475
-0.47
-0.465
-0.475
-0.49
-0.51
-0.525
-0.52
-0.54
-0.55
-0.57
-0.585
-0.575
-0.59
-0.57
-0.565
-0.565
-0.56
-0.57
-0.585
-0.605
-0.6
-0.595
-0.585
-0.58
-0.57
-0.555
-0.55
-0.535
-0.51
-0.49
-0.47
-0.45
-0.445
-0.44
