Lead II
-1.445
-1.435
-1.43
-1.42
-1.415
-1.4
-1.405
-1.425
-1.44
-1.445
-1.46
-1.48
-1.465
-1.46
-1.45
-1.435
-1.43
-1.43
-1.445
-1.465
-1.47
-1.495
-1.48
-1.485
-1.49
-1.48
-1.5
-1.5
-1.505
-1.5
-1.505
-1.52
-1.52
-1.51
-1.51
-1.53
-1.515
-1.535
-1.54
-1.535
-1.545
-1.535
-1.53
-1.51
-1.51
-1.52
-1.5
-1.505
-1.5
-1.485
-1.475
-1.455
-1.435
-1.42
-1.42
-1.43
-1.43
-1.455
-1.47
-1.48
-1.47
-1.47
-1.44
-1.41
-1.37
-1.34
-1.32
-1.325
-1.33
-1.345
-1.395
-1.415
-1.44
-1.44
-1.435
-1.41
-1.41
-1.395
-1.415
-1.43
-1.47
-1.515
-1.55
-1.57
-1.6
-1.595
-1.575
-1.56
-1.535
-1.51
-1.51
-1.495
-1.51
-1.515
-1.51
-1.51
-1.505
-1.51
-1.5
-1.49
-1.475
-1.445
-1.41
-1.35
-1.24
-1.085
-0.875
-0.64
-0.37
-0.07
0.265
0.595
0.875
1.13
1.27
1.29
1.135
0.735
0.13
-0.51
-1.15
-1.79
-2.025
-1.975
-1.78
-1.535
-1.35
-1.27
-1.265
-1.325
-1.39
-1.44
-1.48
-1.48
-1.465
-1.45
-1.43
-1.405
-1.41
-1.42
-1.43
-1.465
-1.465
-1.455
-1.44
-1.43
-1.42
-1.395
-1.38
-1.36
-1.355
-1.36
-1.38
-1.36
-1.375
-1.37
-1.375
-1.345
-1.345
-1.325
-1.31
-1.285
-1.29
-1.265
-1.27
-1.265
-1.27
-1.27
-1.255
-1.245
-1.23
-1.225
-1.19
-1.175
-1.165
-1.14
-1.115
-1.115
-1.09
-1.075
-1.065
-1.065
-1.05
-1.03
-1.0
-0.965
-0.94
-0.92
-0.905
-0.9
-0.85
-0.81
-0.805
-0.81
-0.79
-0.775
-0.75
-0.73
-0.73
-0.735
-0.73
-0.745
-0.755
-0.785
-0.8
-0.845
-0.875
-0.885
-0.915
-0.925
-0.965
-0.995
-1.05
-1.085
-1.12
-1.16
-1.18
-1.21
-1.23
-1.225
-1.24
-1.255
-1.25
-1.265
-1.275
-1.3
-1.315
-1.34
-1.345
-1.35
-1.34
-1.325
-1.32
-1.305
-1.295
-1.31
-1.33
-1.34
-1.34
-1.34
-1.345
-1.33
-1.32
-1.31
-1.32
-1.3
-1.305
-1.295
-1.285
-1.295
-1.305
-1.315
-1.32
-1.33
-1.325
-1.305
-1.295
-1.28
-1.28
-1.285
-1.285
-1.285
-1.305
-1.3
-1.31
-1.315
-1.3
-1.28
-1.275
-1.25
-1.27
-1.265
-1.29
-1.3
-1.31
-1.305
-1.32
-1.315
-1.31
-1.29
-1.28
-1.27
-1.28
-1.3
-1.285
-1.295
-1.31
-1.31
-1.315
-1.325
-1.32
-1.315
-1.31
-1.3
-1.285
-1.275
-1.29
-1.3
-1.305
-1.33
-1.31
-1.32
-1.315
-1.32
-1.33
-1.33
-1.33
-1.325
-1.325
-1.325
-1.325
-1.32
-1.325
-1.325
-1.315
-1.315
-1.32
-1.315
-1.305
-1.3
-1.3
-1.31
-1.305
-1.295
-1.26
-1.225
-1.225
-1.205
-1.18
-1.15
-1.145
-1.14
-1.155
-1.17
-1.18
-1.195
-1.175
-1.175
-1.15
-1.125
-1.105
-1.1
-1.11
-1.1
-1.135
-1.14
-1.15
-1.16
-1.17
-1.175
-1.175
-1.165
-1.16
-1.17
-1.19
-1.19
-1.23
-1.265
-1.285
-1.31
-1.355
-1.34
-1.35
-1.34
-1.335
-1.325
-1.315
-1.32
-1.325
-1.33
-1.33
-1.345
-1.325
-1.335
-1.325
-1.33
-1.305
-1.285
-1.275
-1.265
-1.235
-1.185
-1.105
-0.995
-0.815
-0.58
-0.305
0.015
0.35
0.75
1.145
1.505
1.785
1.94
1.9
1.605
1.02
0.38
-0.26
-0.9
-1.54
-1.88
-1.71
-1.445
-1.19
-1.02
-0.98
-1.015
-1.1
-1.18
-1.225
-1.255
-1.25
-1.24
-1.22
-1.225
-1.225
-1.23
-1.24
-1.26
-1.27
-1.27
-1.26
-1.25
-1.25
-1.21
-1.19
-1.185
-1.19
-1.2
-1.205
-1.205
-1.205
-1.18
-1.195
-1.17
-1.15
-1.115
-1.11
-1.11
-1.13
-1.12
-1.125
-1.125
-1.12
-1.1
-1.085
-1.06
-1.03
-1.005
-0.985
-0.97
-0.95
-0.95
-0.955
-0.94
-0.915
-0.9
-0.865
-0.83
-0.795
-0.76
-0.73
-0.7
-0.685
-0.675
-0.675
-0.655
-0.625
-0.6
-0.57
-0.54
-0.51
-0.49
-0.48
-0.48
-0.5
-0.495
-0.505
-0.52
-0.53
-0.54
-0.565
-0.575
-0.605
-0.595
-0.61
-0.66
-0.705
-0.77
-0.825
-0.875
-0.915
-0.97
-1.005
-1.02
-1.045
-1.07
-1.08
-1.095
-1.115
-1.14
-1.155
-1.16
-1.17
-1.175
-1.165
-1.165
-1.16
-1.155
-1.17
-1.18
-1.205
-1.2
-1.205
-1.22
-1.205
-1.205
-1.195
-1.185
-1.18
-1.165
-1.15
-1.14
-1.135
-1.14
-1.155
-1.165
-1.17
-1.18
-1.18
-1.17
-1.14
-1.13
-1.115
-1.12
-1.135
-1.14
-1.16
-1.175
-1.175
-1.175
-1.16
-1.155
-1.14
-1.125
-1.125
-1.135
-1.165
-1.165
-1.175
-1.195
-1.205
-1.2
-1.205
-1.2
-1.205
-1.2
-1.185
-1.19
-1.205
-1.22
-1.235
-1.235
-1.25
-1.24
-1.25
-1.235
-1.22
-1.195
-1.2
-1.22
-1.225
-1.235
-1.255
-1.265
-1.27
-1.26
-1.26
-1.245
-1.245
-1.24
-1.225
-1.235
-1.255
-1.265
-1.265
-1.27
-1.27
-1.27
-1.265
-1.25
-1.25
-1.24
-1.23
-1.205
-1.19
-1.18
-1.185
-1.18
-1.18
-1.18
-1.16
-1.16
-1.155
-1.145
-1.15
-1.135
-1.105
-1.105
-1.115
-1.145
-1.13
-1.16
-1.15
-1.135
-1.115
-1.105
-1.095
-1.13
-1.14
-1.16
-1.155
-1.185
-1.19
-1.225
-1.255
-1.265
-1.285
-1.295
-1.3
-1.305
-1.32
-1.335
-1.335
-1.35
-1.345
-1.355
-1.355
-1.35
-1.34
-1.325
-1.3
-1.295
-1.31
-1.325
-1.335
-1.325
-1.32
-1.275
-1.17
-1.01
-0.805
-0.53
-0.205
0.125
0.48
0.855
1.23
1.575
1.84
1.97
1.91
1.61
1.0
0.36
-0.28
-0.92
-1.56
-1.89
-1.735
-1.48
-1.25
-1.1
-1.065
-1.075
-1.16
-1.225
-1.285
-1.305
-1.315
-1.31
-1.335
-1.33
-1.32
-1.325
-1.325
-1.31
-1.305
-1.305
-1.28
-1.3
-1.285
-1.3
-1.3
-1.28
-1.28
-1.295
-1.295
-1.26
-1.255
-1.25
-1.245
-1.235
-1.225
-1.22
-1.22
-1.215
-1.215
-1.22
-1.19
-1.165
-1.155
-1.15
-1.135
-1.13
-1.11
-1.125
-1.12
-1.115
-1.1
-1.07
-1.04
-1.02
-0.995
-0.945
-0.92
-0.905
-0.875
-0.86
-0.84
-0.82
-0.8
-0.805
-0.79
-0.76
-0.735
-0.705
-0.665
-0.64
-0.645
-0.65
-0.62
-0.64
-0.64
-0.65
-0.655
-0.64
-0.64
-0.65
-0.675
-0.7
-0.725
-0.77
-0.815
-0.875
-0.9
-0.955
-0.99
-1.01
-1.04
-1.07
-1.08
-1.11
-1.13
-1.17
-1.195
-1.23
-1.25
-1.285
-1.31
-1.305
-1.295
-1.29
-1.275
-1.285
-1.28
-1.305
-1.305
-1.31
-1.335
-1.345
-1.34
-1.32
-1.315
-1.295
-1.28
-1.285
-1.27
-1.285
-1.28
-1.285
-1.3
-1.305
-1.305
-1.29
-1.285
-1.26
-1.25
-1.245
-1.235
-1.23
-1.24
-1.255
-1.265
-1.27
-1.27
-1.25
-1.25
-1.24
-1.22
-1.225
-1.23
-1.24
-1.24
-1.27
-1.275
-1.285
-1.28
-1.265
-1.265
-1.255
-1.25
-1.245
-1.24
-1.25
-1.28
-1.28
-1.285
-1.3
-1.29
-1.275
-1.27
-1.265
-1.26
-1.25
-1.26
-1.26
-1.275
-1.31
-1.305
-1.32
-1.32
-1.305
-1.31
-1.3
-1.29
-1.29
-1.29
-1.285
-1.305
-1.315
-1.305
-1.315
-1.315
-1.285
-1.275
-1.265
-1.24
-1.225
-1.21
-1.2
-1.19
-1.195
-1.21
-1.21
-1.185
-1.175
-1.165
-1.16
-1.14
-1.14
-1.13
-1.12
-1.105
-1.105
-1.105
-1.105
-1.105
-1.105
-1.105
-1.095
-1.11
-1.105
-1.125
-1.12
-1.12
-1.13
-1.16
-1.185
-1.2
-1.205
-1.215
-1.225
-1.23
-1.235
-1.255
-1.265
-1.26
-1.275
-1.255
-1.26
-1.245
-1.23
-1.22
-1.205
-1.2
-1.195
-1.2
-1.2
-1.21
-1.19
-1.16
-1.11
-1.02
-0.9
-0.715
-0.48
-0.18
0.14
0.51
0.88
1.19
1.42
1.465
1.32
0.865
0.225
-0.415
-1.055
-1.695
-1.855
-1.755
-1.515
-1.26
-1.065
-0.95
-0.93
-0.97
-1.03
-1.065
-1.09
-1.1
-1.09
-1.085
-1.085
-1.07
-1.07
-1.075
-1.075
-1.075
-1.07
-1.055
-1.045
-1.04
-1.025
-1.02
-1.03
-1.025
-1.04
-1.03
-1.02
-0.99
-0.98
-0.965
-0.95
-0.95
-0.945
-0.92
-0.935
-0.935
-0.935
-0.94
-0.93
-0.915
-0.905
-0.885
-0.875
-0.85
-0.835
-0.82
-0.81
-0.79
-0.77
-0.765
-0.75
-0.735
-0.71
-0.7
-0.665
-0.625
-0.605
-0.575
-0.565
-0.565
-0.565
-0.545
-0.525
-0.495
-0.465
-0.45
-0.425
-0.39
-0.405
-0.4
-0.395
-0.405
-0.405
-0.4
-0.43
-0.42
-0.415
-0.405
-0.41
-0.42
-0.445
-0.48
-0.525
-0.56
-0.605
-0.61
-0.64
-0.655
-0.675
-0.705
-0.74
-0.755
-0.785
-0.805
-0.815
-0.845
-0.87
-0.885
-0.895
-0.915
-0.92
-0.92
-0.93
-0.93
-0.93
-0.935
-0.955
-0.96
-0.96
-0.97
-0.97
-0.965
-0.965
-0.97
-0.955
-0.945
-0.94
-0.935
-0.95
-0.95
-0.945
-0.945
-0.96
-0.95
-0.95
-0.94
-0.94
-0.92
-0.915
-0.915
-0.9
-0.905
-0.905
-0.93
-0.92
-0.905
-0.91
-0.89
-0.895
-0.88
-0.89
-0.875
-0.895
-0.9
-0.92
-0.925
-0.935
-0.91
-0.905
-0.89
-0.87
-0.87
-0.87
-0.88
-0.905
-0.925
-0.94
-0.95
-0.95
-0.945
-0.93
-0.92
-0.91
-0.89
-0.885
-0.9
-0.915
-0.92
-0.92
-0.945
-0.945
-0.97
-0.95
-0.94
-0.925
-0.915
-0.91
-0.915
-0.925
-0.93
-0.935
-0.935
-0.925
-0.945
-0.925
-0.945
-0.94
-0.925
-0.93
-0.925
-0.935
-0.95
-0.945
-0.965
-0.96
-0.945
-0.935
-0.905
-0.885
-0.86
-0.84
-0.795
-0.79
-0.79
-0.81
-0.835
-0.84
-0.845
-0.835
-0.815
-0.815
-0.78
-0.765
-0.75
-0.75
-0.74
-0.73
-0.745
-0.745
-0.75
-0.755
-0.745
-0.77
-0.755
-0.78
-0.795
-0.8
-0.83
-0.86
-0.89
-0.9
-0.92
-0.925
-0.935
-0.935
-0.945
-0.95
-0.955
-0.955
-0.975
-0.99
-0.975
-0.97
-0.965
-0.96
-0.95
-0.95
-0.945
-0.95
-0.965
-0.98
-0.98
-0.965
-0.955
-0.92
-0.845
-0.71
-0.54
-0.315
-0.05
0.245
0.57
0.915
1.28
1.6
1.855
1.99
1.98
1.785
1.355
0.745
0.105
-0.535
-1.175
-1.485
-1.505
-1.325
-1.08
-0.855
-0.715
-0.67
-0.705
-0.77
-0.82
-0.885
-0.915
-0.92
-0.945
-0.935
-0.94
-0.95
-0.945
-0.915
-0.9
-0.885
-0.865
-0.87
-0.87
-0.88
-0.89
-0.91
-0.905
-0.88
-0.865
-0.85
-0.85
-0.83
-0.8
-0.8
-0.805
-0.81
-0.825
-0.83
-0.835
-0.82
-0.825
-0.8
-0.77
-0.745
-0.715
-0.705
-0.695
-0.685
-0.68
-0.665
-0.66
-0.66
-0.65
-0.65
-0.625
-0.59
-0.58
-0.545
-0.53
-0.5
-0.495
-0.465
-0.45
-0.445
-0.42
-0.395
-0.36
-0.345
-0.315
-0.29
-0.285
-0.29
-0.305
-0.32
-0.31
-0.305
-0.295
-0.29
-0.28
-0.29
-0.29
-0.32
-0.34
-0.39
-0.44
-0.485
-0.52
-0.575
-0.595
-0.63
-0.665
-0.685
-0.695
-0.725
-0.755
-0.785
-0.8
-0.83
-0.855
-0.87
-0.885
-0.9
-0.91
-0.905
-0.905
-0.91
-0.915
-0.925
-0.925
-0.945
-0.935
-0.955
-0.97
-0.955
-0.945
-0.95
-0.945
-0.935
-0.945
-0.95
-0.965
-0.97
-0.955
-0.95
-0.95
-0.95
-0.95
-0.925
-0.905
-0.9
-0.915
-0.925
-0.945
-0.96
-0.965
-0.975
-0.99
-0.985
-0.955
-0.955
-0.925
-0.925
-0.935
-0.945
-0.965
-0.965
-0.985
-0.995
-1.015
-1.01
-0.985
-0.97
-0.955
-0.955
-0.965
-0.96
-0.985
-0.995
-0.995
-1.015
-1.015
-1.02
-1.015
-1.01
-1.0
-1.005
-1.025
-1.015
-1.03
-1.04
-1.04
-1.035
-1.04
-1.045
-1.035
-1.045
-1.035
-1.04
-1.05
-1.07
-1.07
-1.08
-1.075
-1.075
-1.08
-1.07
-1.06
-1.07
-1.05
-1.055
-1.07
-1.075
-1.08
-1.05
-1.045
-1.035
-1.03
-0.995
-0.98
-0.98
-0.955
-0.975
-0.99
-0.99
-0.995
-0.99
-0.97
-0.96
-0.94
-0.925
-0.94
-0.945
-0.955
-0.95
-0.97
-0.985
-0.985
-0.995
-1.005
-1.01
-1.01
-1.03
-1.045
-1.08
-1.095
-1.11
-1.14
-1.15
-1.18
-1.22
-1.24
-1.25
-1.25
-1.23
-1.22
-1.205
-1.175
-1.17
-1.195
-1.205
-1.2
-1.225
-1.235
-1.24
-1.24
-1.23
-1.205
-1.19
-1.15
-1.09
-0.99
-0.865
-0.68
-0.43
-0.14
0.185
0.555
0.935
1.3
1.59
1.745
1.7
1.425
0.885
0.245
-0.395
-1.035
-1.675
-1.945
-1.86
-1.635
-1.38
-1.16
-1.06
-1.03
-1.06
-1.165
-1.22
-1.265
-1.295
-1.295
-1.27
-1.25
-1.245
-1.235
-1.245
-1.24
-1.245
-1.245
-1.245
-1.255
-1.27
-1.26
-1.265
-1.26
-1.25
-1.235
-1.225
-1.2
-1.19
-1.21
-1.215
-1.21
-1.225
-1.225
-1.19
-1.185
-1.175
-1.155
-1.145
-1.15
-1.165
-1.16
-1.15
-1.125
-1.115
-1.095
-1.09
-1.07
-1.055
-1.035
-1.04
-1.02
-1.015
-1.005
-0.98
-0.97
-0.945
-0.93
-0.895
-0.87
-0.825
-0.785
-0.765
-0.755
-0.75
-0.76
-0.745
-0.735
-0.745
-0.73
-0.73
-0.71
-0.695
-0.695
-0.71
-0.705
-0.72
-0.745
-0.77
-0.795
-0.84
-0.875
-0.925
-0.98
-1.01
-1.045
-1.075
-1.135
-1.155
-1.185
-1.21
-1.225
-1.265
-1.285
-1.31
-1.335
-1.35
-1.365
-1.36
-1.4
-1.36
-1.39
-1.42
-1.415
-1.43
-1.43
-1.43
-1.415
-1.41
-1.385
-1.395
-1.415
-1.415
-1.43
-1.435
-1.44
-1.445
-1.46
-1.445
-1.44
-1.41
-1.395
-1.395
-1.39
-1.395
-1.41
-1.415
-1.41
-1.42
-1.41
-1.415
-1.42
-1.41
-1.41
-1.38
-1.38
-1.37
-1.37
-1.38
-1.375
-1.4
-1.415
-1.41
-1.39
-1.37
-1.355
-1.355
-1.35
-1.385
-1.385
-1.395
-1.405
-1.4
-1.41
-1.39
-1.375
-1.365
-1.345
-1.355
-1.36
-1.36
-1.375
-1.385
-1.385
-1.4
-1.41
-1.4
-1.395
-1.37
-1.345
-1.335
-1.34
-1.35
-1.355
-1.365
-1.36
-1.35
-1.385
-1.345
-1.35
-1.33
-1.33
-1.315
-1.325
-1.325
-1.305
-1.29
-1.27
-1.25
-1.25
-1.215
-1.225
-1.205
-1.185
-1.195
-1.2
-1.205
-1.2
-1.19
-1.185
-1.17
-1.16
-1.14
-1.12
-1.115
-1.105
-1.12
-1.125
-1.14
-1.17
-1.17
-1.2
-1.21
-1.21
-1.21
-1.215
-1.22
-1.235
-1.245
-1.265
-1.28
-1.3
-1.31
-1.32
-1.32
-1.32
-1.31
-1.295
-1.285
-1.255
-1.25
-1.25
-1.26
-1.265
-1.275
-1.26
-1.29
-1.275
-1.245
-1.205
-1.13
-1.03
-0.895
-0.705
-0.495
-0.275
-0.055
0.195
0.465
0.745
1.03
1.275
1.395
1.375
1.08
0.51
-0.13
-0.77
-1.41
-1.8
-1.785
-1.6
-1.335
-1.115
-1.0
-0.96
-1.005
-1.1
-1.16
-1.2
-1.22
-1.235
-1.22
-1.215
-1.215
-1.21
-1.205
-1.185
-1.175
-1.18
-1.175
-1.155
-1.155
-1.16
-1.15
-1.155
-1.145
-1.145
-1.135
-1.13
-1.115
-1.12
-1.125
-1.105
-1.105
-1.095
-1.095
-1.1
-1.085
-1.065
-1.05
-1.025
-1.025
-1.02
-1.02
-1.025
-1.025
-1.03
-1.01
-0.99
-0.965
-0.955
-0.95
-0.91
-0.885
-0.865
-0.845
-0.825
-0.8
-0.785
-0.775
-0.73
-0.71
-0.68
-0.65
-0.64
-0.62
-0.6
-0.595
-0.6
-0.59
-0.58
-0.555
-0.535
-0.505
-0.505
-0.48
-0.47
-0.475
-0.49
-0.5
-0.515
-0.53
-0.57
-0.6
-0.625
-0.66
-0.685
-0.675
-0.695
-0.7
-0.74
-0.765
-0.8
-0.85
-0.875
-0.91
-0.94
-0.965
-0.985
-0.995
-0.995
-0.985
-0.99
-0.99
-1.015
-1.03
-1.035
-1.05
-1.06
-1.06
-1.04
-1.05
-1.025
-1.025
-1.025
-1.025
-1.045
-1.045
-1.055
-1.06
-1.05
-1.035
-1.015
-1.005
-1.01
-1.005
-1.015
-1.03
-1.035
-1.025
-1.04
-1.025
-1.035
-1.01
-1.0
-0.99
-0.985
-0.97
-0.965
-0.97
-1.0
-1.0
-1.0
-1.015
-1.0
-1.0
-0.98
-0.985
-0.985
-0.975
-0.975
-0.985
-0.99
-1.0
-1.015
-1.0
-1.01
-1.005
-0.99
-0.975
-0.975
-0.975
-0.975
-1.015
-1.015
-1.04
-1.025
-1.01
-1.0
-0.99
-0.985
-0.985
-0.985
-0.98
-0.995
-0.995
-0.985
-1.005
-1.005
-1.015
-1.02
-1.015
-1.005
-1.0
-0.985
-0.985
-0.985
-0.995
-1.0
-1.015
-1.02
-1.015
-1.025
-1.035
-1.015
-1.0
-0.975
-0.955
-0.93
-0.915
-0.895
-0.895
-0.89
-0.895
-0.9
-0.905
-0.885
-0.86
-0.85
-0.84
-0.845
-0.835
-0.84
-0.83
-0.825
-0.82
-0.84
-0.84
-0.825
-0.82
-0.83
-0.83
-0.84
-0.855
-0.885
-0.91
-0.945
-0.98
-0.995
-1.005
-1.0
-1.02
-1.01
-1.015
-1.01
-1.02
-1.045
-1.045
-1.06
-1.07
-1.065
-1.06
-1.045
-1.035
-1.01
-1.005
-0.995
-0.995
-0.995
-0.98
-0.96
-0.895
-0.795
-0.615
-0.365
-0.065
0.28
0.64
1.035
1.395
1.655
1.855
1.89
1.71
1.275
0.635
-0.005
-0.645
-1.285
-1.585
-1.555
-1.345
-1.095
-0.885
-0.79
-0.79
-0.86
-0.93
-0.99
-1.01
-1.01
-1.0
-0.98
-0.99
-1.01
-1.04
-1.045
-1.05
-1.045
-1.02
-1.005
-0.995
-0.985
-0.975
-0.96
-0.96
-0.97
-0.97
-0.96
-0.965
-0.96
-0.97
-0.955
-0.935
-0.94
-0.935
-0.92
-0.905
-0.92
-0.92
-0.91
-0.91
-0.895
-0.875
-0.86
-0.815
-0.81
-0.805
-0.81
-0.82
-0.835
-0.815
-0.795
-0.78
-0.77
-0.73
-0.7
-0.69
-0.67
-0.665
-0.65
-0.645
-0.625
-0.6
-0.59
-0.57
-0.565
-0.535
-0.505
-0.465
-0.445
-0.435
-0.415
-0.39
-0.39
-0.405
-0.405
-0.42
-0.425
-0.42
-0.42
-0.435
-0.42
-0.43
-0.46
-0.515
-0.56
-0.61
-0.66
-0.735
-0.775
-0.8
-0.815
-0.835
-0.83
-0.85
-0.87
-0.885
-0.93
-0.95
-0.97
-0.97
-0.985
-0.99
-0.975
-0.995
-0.98
-0.99
-1.0
-1.015
-1.05
-1.045
-1.045
-1.06
-1.04
-1.05
-1.04
-1.035
-1.02
-1.025
-1.015
-1.01
-1.025
-1.03
-1.04
-1.05
-1.045
-1.05
-1.035
-1.045
-1.025
-1.02
-1.025
-1.035
-1.05
-1.03
-1.045
-1.05
-1.055
-1.07
-1.045
-1.055
-1.04
-1.055
-1.045
-1.035
-1.05
-1.065
-1.075
-1.085
-1.105
-1.115
-1.09
-1.08
-1.075
-1.08
-1.08
-1.09
-1.105
-1.115
-1.12
-1.135
-1.14
-1.135
-1.135
-1.12
-1.11
-1.105
-1.12
-1.13
-1.14
-1.135
-1.17
-1.185
-1.17
-1.175
-1.165
-1.155
-1.15
-1.125
-1.135
-1.135
-1.155
-1.16
-1.175
-1.185
-1.185
-1.205
-1.175
-1.18
-1.155
-1.14
-1.13
-1.14
-1.15
-1.155
-1.15
-1.14
-1.12
-1.105
-1.085
-1.08
-1.07
-1.07
-1.07
-1.09
-1.095
-1.095
-1.105
-1.1
-1.08
-1.06
-1.04
-1.03
-1.005
-0.995
-1.005
-1.01
-1.04
-1.065
-1.08
-1.1
-1.095
-1.11
-1.105
-1.11
-1.12
-1.12
-1.165
-1.2
-1.235
-1.265
-1.275
-1.285
-1.27
-1.29
-1.265
-1.26
-1.25
-1.25
-1.26
-1.265
-1.265
-1.27
-1.265
-1.275
-1.265
-1.27
-1.25
-1.23
-1.18
-1.11
-1.005
-0.865
-0.67
-0.415
-0.135
0.175
0.5
0.835
1.165
1.425
1.625
1.7
1.6
1.235
0.61
-0.03
-0.67
-1.31
-1.84
-1.805
-1.6
-1.34
-1.145
-1.04
-1.05
-1.095
-1.18
-1.235
-1.27
-1.285
-1.29
-1.285
-1.27
-1.265
-1.255
-1.26
-1.265
-1.27
-1.27
-1.28
-1.29
-1.295
-1.305
-1.29
-1.28
-1.26
-1.235
-1.225
-1.215
-1.225
-1.225
-1.235
-1.235
-1.245
-1.24
-1.24
-1.235
-1.215
-1.2
-1.185
-1.165
-1.155
-1.14
-1.15
-1.145
-1.135
-1.115
-1.12
-1.08
-1.065
-1.05
-1.035
-1.04
-1.035
-1.035
-1.03
-1.005
-0.98
-0.94
-0.91
-0.87
-0.84
-0.815
-0.81
-0.78
-0.775
-0.765
-0.76
-0.75
-0.745
-0.735
-0.72
-0.69
-0.68
-0.665
-0.66
-0.67
-0.675
-0.69
-0.695
-0.71
-0.745
-0.76
-0.81
-0.83
-0.855
-0.875
-0.9
-0.945
-0.975
-1.025
-1.07
-1.095
-1.145
-1.165
-1.19
-1.205
-1.225
-1.245
-1.25
-1.275
-1.295
-1.315
-1.315
-1.325
-1.325
-1.32
-1.34
-1.33
-1.34
-1.335
-1.32
-1.335
-1.335
-1.34
-1.34
-1.355
-1.355
-1.37
-1.365
-1.34
-1.325
-1.305
-1.295
-1.315
-1.305
-1.315
-1.315
-1.3
-1.31
-1.31
-1.305
-1.29
-1.29
-1.29
-1.27
-1.27
-1.27
-1.275
-1.28
-1.285
-1.28
-1.275
-1.26
-1.255
-1.235
-1.215
-1.18
-1.145
-1.11
-1.1
-1.06
-1.035
-0.99
-0.93
-0.845
-0.785
-0.695
-0.63
-0.545
-0.455
-0.35
-0.24
-0.12
-0.035
0.085
0.22
0.37
0.535
0.69
0.855
1.03
1.195
1.37
1.52
1.65
1.775
1.86
1.96
2.065
2.18
2.255
2.29
2.305
2.21
1.99
1.565
0.965
0.325
-0.315
-0.955
-1.31
-1.415
-1.43
-1.41
-1.395
-1.405
-1.445
-1.51
-1.575
-1.625
-1.65
-1.68
-1.685
-1.665
-1.645
-1.615
-1.595
-1.605
-1.615
-1.655
-1.675
-1.71
-1.745
-1.775
-1.775
-1.785
-1.785
-1.785
-1.79
-1.79
-1.815
-1.845
-1.845
-1.86
-1.875
-1.88
-1.895
-1.88
-1.88
-1.895
-1.895
-1.915
-1.945
-1.96
-1.985
-2.005
-2.03
-2.035
-2.04
-2.05
-2.055
-2.075
-2.08
-2.095
-2.11
-2.125
-2.15
-2.17
-2.185
-2.18
-2.18
-2.175
-2.18
-2.16
-2.145
-2.145
-2.115
-2.1
-2.09
-2.075
-2.06
-2.025
-1.975
-1.925
-1.885
-1.855
-1.81
-1.74
-1.71
-1.675
-1.655
-1.62
-1.59
-1.56
-1.525
-1.48
-1.44
-1.385
-1.345
-1.335
-1.31
-1.32
-1.32
-1.325
-1.31
-1.31
-1.3
-1.285
-1.275
-1.265
-1.25
-1.24
-1.23
-1.245
-1.235
-1.245
-1.25
-1.26
-1.265
-1.27
-1.25
-1.225
-1.215
-1.22
-1.235
-1.23
-1.245
-1.245
-1.24
-1.24
-1.23
-1.215
-1.205
-1.2
-1.195
-1.22
-1.23
-1.26
-1.265
-1.28
-1.26
-1.265
-1.245
-1.24
-1.235
-1.215
-1.205
-1.2
-1.215
-1.22
-1.245
-1.245
-1.255
-1.245
-1.255
-1.245
-1.235
-1.225
-1.225
-1.225
-1.245
-1.255
-1.26
-1.26
-1.26
-1.265
-1.255
-1.235
-1.23
-1.215
-1.22
-1.215
-1.23
-1.245
-1.245
-1.255
-1.265
-1.265
-1.255
-1.235
-1.225
-1.22
-1.2
-1.21
-1.22
-1.235
-1.23
-1.235
-1.235
-1.23
-1.23
-1.215
-1.21
-1.195
-1.18
-1.19
-1.195
-1.215
-1.21
-1.215
-1.215
-1.22
-1.2
-1.195
-1.19
-1.195
-1.18
-1.175
-1.18
-1.19
-1.18
-1.185
-1.19
-1.185
-1.2
-1.205
-1.215
-1.185
-1.175
-1.17
-1.19
-1.195
-1.195
-1.2
-1.205
-1.21
-1.225
-1.21
-1.19
-1.195
-1.195
-1.17
-1.165
-1.15
-1.15
-1.17
-1.165
-1.19
-1.2
-1.185
-1.18
-1.185
-1.165
-1.165
-1.145
-1.155
-1.155
-1.155
-1.165
-1.175
-1.19
-1.185
-1.195
-1.195
-1.17
-1.185
-1.16
-1.14
-1.155
-1.15
-1.14
-1.145
-1.15
-1.135
-1.135
-1.115
-1.105
-1.125
-1.12
-1.145
-1.145
-1.155
-1.16
-1.16
-1.155
-1.15
-1.135
-1.115
-1.11
-1.105
-1.095
-1.105
-1.115
-1.125
-1.13
-1.13
-1.115
-1.08
-1.06
-1.05
-1.025
-1.015
-1.015
-0.99
-0.975
-0.965
-0.955
-0.955
-0.96
-0.965
-0.97
-0.955
-0.935
-0.905
-0.91
-0.885
-0.87
-0.875
-0.875
-0.875
-0.87
-0.865
-0.87
-0.855
-0.83
-0.85
-0.845
-0.865
-0.885
-0.91
-0.905
-0.94
-0.96
-0.97
-0.98
-0.99
-0.995
-1.015
-1.03
-1.04
-1.035
-1.06
-1.03
-1.03
-1.035
-1.025
-1.02
-1.005
-0.98
-0.985
-0.97
-0.96
-0.965
-0.95
-0.945
-0.88
-0.77
-0.605
-0.395
-0.16
0.1
0.38
0.67
0.99
1.31
1.61
1.855
1.98
1.87
1.49
0.85
0.21
-0.43
-1.07
-1.45
-1.355
-1.11
-0.89
-0.79
-0.775
-0.835
-0.915
-0.995
-1.025
-1.02
-1.005
-1.0
-0.98
-1.0
-1.015
-1.02
-1.04
-1.045
-1.045
-1.025
-1.025
-0.99
-0.985
-0.98
-0.975
-0.975
-0.98
-0.97
-0.955
-0.95
-0.94
-0.93
-0.915
-0.905
-0.91
-0.93
-0.925
-0.915
-0.91
-0.9
-0.89
-0.885
-0.88
-0.855
-0.84
-0.795
-0.79
-0.775
-0.785
-0.785
-0.775
-0.765
-0.74
-0.72
-0.685
-0.67
-0.67
-0.635
-0.615
-0.605
-0.59
-0.56
-0.55
-0.53
-0.53
-0.515
-0.51
-0.485
-0.455
-0.42
-0.385
-0.37
-0.35
-0.345
-0.335
-0.335
-0.33
-0.305
-0.28
-0.27
-0.275
-0.26
-0.26
-0.27
-0.28
-0.3
-0.3
-0.33
-0.355
-0.39
-0.42
-0.455
-0.485
-0.505
-0.54
-0.585
-0.625
-0.7
-0.775
-0.81
-0.85
-0.895
-0.9
-0.905
-0.905
-0.905
-0.91
-0.92
-0.935
-0.965
-0.965
-1.01
-1.03
-1.03
-1.035
-1.025
-1.01
-0.985
-1.0
-1.015
-1.015
-1.045
-1.06
-1.075
-1.075
-1.07
-1.055
-1.05
-1.03
-1.015
-1.015
-1.03
-1.03
-1.07
-1.085
-1.105
-1.105
-1.09
-1.075
-1.075
-1.07
-1.06
-1.07
-1.08
-1.09
-1.115
-1.135
-1.155
-1.16
-1.145
-1.155
-1.12
-1.1
-1.095
-1.11
-1.125
-1.145
-1.195
-1.215
-1.19
-1.215
-1.2
-1.195
-1.18
-1.195
-1.165
-1.18
-1.18
-1.19
-1.215
-1.225
-1.235
-1.245
-1.255
-1.25
-1.25
-1.215
-1.195
-1.215
-1.21
-1.23
-1.235
-1.245
-1.26
-1.26
-1.26
-1.27
-1.26
-1.26
-1.23
-1.235
-1.23
-1.25
-1.28
-1.29
-1.27
-1.245
-1.205
-1.175
-1.155
-1.14
-1.145
-1.155
-1.16
-1.175
-1.2
-1.2
-1.19
-1.175
-1.15
-1.12
-1.105
-1.095
-1.095
-1.115
-1.145
-1.165
-1.17
-1.185
-1.21
-1.22
-1.235
-1.235
-1.24
-1.25
-1.24
-1.25
-1.275
-1.305
-1.345
-1.375
-1.4
-1.4
-1.4
-1.385
-1.36
-1.35
-1.355
-1.365
-1.36
-1.365
-1.36
-1.38
-1.4
-1.4
-1.395
-1.37
-1.35
-1.325
-1.305
-1.29
-1.205
-1.095
-0.93
-0.71
-0.415
-0.105
0.27
0.655
1.02
1.315
1.48
1.44
1.16
0.635
-0.005
-0.645
-1.285
-1.925
-2.12
-2.055
-1.82
-1.565
-1.355
-1.225
-1.18
-1.185
-1.27
-1.335
-1.385
-1.41
-1.41
-1.39
-1.365
-1.35
-1.335
-1.345
-1.34
-1.34
-1.355
-1.36
-1.38
-1.37
-1.375
-1.37
-1.355
-1.33
-1.3
-1.295
-1.285
-1.28
-1.275
-1.265
-1.27
-1.285
-1.275
-1.275
-1.26
-1.24
-1.23
-1.215
-1.21
-1.22
-1.2
-1.185
-1.155
-1.135
-1.125
-1.1
-1.095
-1.055
-1.035
-1.03
-1.025
-1.04
-1.02
-1.02
-1.0
-0.975
-0.96
-0.945
-0.91
-0.88
-0.85
-0.83
-0.805
-0.785
-0.775
-0.765
-0.765
-0.76
-0.745
-0.75
-0.725
-0.735
-0.73
-0.745
-0.755
-0.75
-0.765
-0.785
-0.785
-0.805
-0.815
-0.84
-0.87
-0.905
-0.93
-0.955
-0.98
-0.99
-1.03
-1.05
-1.075
-1.095
-1.115
-1.11
-1.115
-1.125
-1.12
-1.15
-1.15
-1.145
-1.175
-1.19
-1.19
-1.205
-1.21
-1.22
-1.225
-1.2
-1.19
-1.18
-1.185
-1.215
-1.235
-1.23
-1.235
-1.225
-1.215
-1.21
-1.2
-1.19
-1.165
-1.165
-1.17
-1.175
-1.185
-1.175
-1.185
-1.19
-1.175
-1.15
-1.16
-1.15
-1.165
-1.17
-1.165
-1.18
-1.175
-1.18
-1.185
-1.19
-1.21
-1.19
-1.185
-1.185
-1.15
-1.155
-1.155
-1.165
-1.18
-1.185
-1.195
-1.21
-1.21
-1.2
-1.195
-1.185
-1.17
-1.18
-1.17
-1.165
-1.19
-1.205
-1.225
-1.22
-1.235
-1.215
-1.195
-1.17
-1.155
-1.18
-1.19
-1.21
-1.22
-1.225
-1.225
-1.23
-1.23
-1.225
-1.205
-1.19
-1.15
-1.135
-1.145
-1.165
-1.21
-1.22
-1.21
-1.215
-1.205
-1.19
-1.18
-1.17
-1.16
-1.175
-1.195
-1.19
-1.185
-1.18
-1.165
-1.14
-1.125
-1.095
-1.065
-1.05
-1.055
-1.085
-1.065
-1.09
-1.105
-1.11
-1.085
-1.105
-1.08
-1.05
-1.02
-0.995
-0.975
-0.99
-1.01
-1.035
-1.07
-1.085
-1.105
-1.095
-1.105
-1.12
-1.12
-1.13
-1.13
-1.125
-1.145
-1.17
-1.205
-1.25
-1.27
-1.27
-1.275
-1.265
-1.25
-1.245
-1.24
-1.225
-1.22
-1.22
-1.22
-1.235
-1.255
-1.27
-1.28
-1.28
-1.26
-1.235
-1.185
-1.11
-1.03
-0.9
-0.71
-0.485
-0.2
0.11
0.47
0.865
1.245
1.545
1.76
1.865
1.8
1.545
1.08
0.44
-0.2
-0.84
-1.48
-1.805
-1.765
-1.55
-1.28
-1.07
-0.965
-0.965
-1.005
-1.105
-1.175
-1.22
-1.235
-1.215
-1.19
-1.165
-1.145
-1.17
-1.19
-1.22
-1.24
-1.24
-1.23
-1.225
-1.21
-1.185
-1.175
-1.155
-1.135
-1.13
-1.14
-1.17
-1.19
-1.2
-1.185
-1.165
-1.125
-1.1
-1.085
-1.095
-1.09
-1.085
-1.095
-1.08
-1.06
-1.05
-1.03
-1.015
-1.01
-1.005
-0.995
-0.98
-0.95
-0.935
-0.935
-0.91
-0.91
-0.89
-0.855
-0.835
-0.81
-0.77
-0.75
-0.715
-0.69
-0.675
-0.64
-0.635
-0.635
-0.63
-0.615
-0.61
-0.595
-0.585
-0.565
-0.585
-0.595
-0.585
-0.585
-0.585
-0.6
-0.6
-0.62
-0.65
-0.685
-0.71
-0.745
-0.8
-0.8
-0.845
-0.88
-0.905
-0.925
-0.965
-0.98
-1.035
-1.065
-1.075
-1.08
-1.085
-1.095
-1.105
-1.095
-1.09
-1.13
-1.145
-1.165
-1.17
-1.175
-1.17
-1.16
-1.145
-1.135
-1.145
-1.15
-1.185
-1.2
-1.19
-1.17
-1.17
-1.165
-1.155
-1.135
-1.12
-1.105
-1.115
-1.125
-1.14
-1.16
-1.165
-1.175
-1.17
-1.145
-1.13
-1.115
-1.115
-1.08
-1.09
-1.1
-1.115
-1.125
-1.145
-1.12
-1.12
-1.145
-1.13
-1.12
-1.125
-1.13
-1.14
-1.15
-1.145
-1.155
-1.15
-1.18
-1.2
-1.17
-1.175
-1.17
-1.16
-1.165
-1.185
-1.18
-1.2
-1.215
-1.22
-1.235
-1.22
-1.2
-1.19
-1.17
-1.15
-1.15
-1.145
-1.185
-1.175
-1.205
-1.215
-1.215
-1.225
-1.215
-1.2
-1.185
-1.18
-1.175
-1.175
-1.185
-1.17
-1.195
-1.215
-1.23
-1.24
-1.26
-1.225
-1.185
-1.155
-1.115
-1.08
-1.08
-1.075
-1.08
-1.1
-1.105
-1.11
-1.105
-1.095
-1.09
-1.085
-1.06
-1.04
-1.015
-1.005
-1.02
-1.025
-1.035
-1.07
-1.085
-1.09
-1.08
-1.08
-1.08
-1.085
-1.085
-1.08
-1.085
