Lead II
-0.015
-0.08
-0.11
-0.15
-0.17
-0.21
-0.255
-0.31
-0.33
-0.34
-0.355
-0.35
-0.355
-0.375
-0.365
-0.365
-0.37
-0.385
-0.4
-0.415
-0.41
-0.4
-0.4
-0.41
-0.43
-0.44
-0.455
-0.42
-0.415
-0.415
-0.44
-0.46
-0.475
-0.465
-0.45
-0.445
-0.46
-0.48
-0.48
-0.475
-0.47
-0.505
-0.51
-0.5
-0.515
-0.505
-0.5
-0.515
-0.54
-0.565
-0.555
-0.545
-0.53
-0.535
-0.55
-0.59
-0.61
-0.6
-0.59
-0.6
-0.61
-0.66
-0.67
-0.67
-0.64
-0.645
-0.655
-0.68
-0.68
-0.675
-0.67
-0.675
-0.67
-0.67
-0.665
-0.635
-0.62
-0.585
-0.585
-0.585
-0.555
-0.525
-0.47
-0.435
-0.43
-0.44
-0.39
-0.345
-0.305
-0.285
-0.285
-0.27
-0.275
-0.245
-0.22
-0.195
-0.19
-0.185
-0.185
-0.18
-0.165
-0.14
-0.155
-0.16
-0.17
-0.175
-0.17
-0.17
-0.165
-0.17
-0.185
-0.185
-0.165
-0.165
-0.185
-0.185
-0.2
-0.185
-0.155
-0.17
-0.195
-0.19
-0.205
-0.18
-0.16
-0.17
-0.17
-0.2
-0.21
-0.205
-0.185
-0.18
-0.185
-0.21
-0.225
-0.215
-0.205
-0.2
-0.2
-0.21
-0.225
-0.21
-0.2
-0.195
-0.205
-0.2
-0.2
-0.195
-0.195
-0.19
-0.205
-0.21
-0.205
-0.185
-0.18
-0.195
-0.2
-0.21
-0.21
-0.195
-0.165
-0.16
-0.17
-0.2
-0.205
-0.19
-0.19
-0.19
-0.19
-0.195
-0.2
-0.22
-0.185
-0.195
-0.2
-0.205
-0.195
-0.18
-0.19
-0.185
-0.2
-0.205
-0.215
-0.195
-0.175
-0.17
-0.195
-0.205
-0.225
-0.2
-0.185
-0.175
-0.185
-0.2
-0.205
-0.21
-0.19
-0.195
-0.205
-0.205
-0.195
-0.205
-0.185
-0.175
-0.205
-0.22
-0.225
-0.21
-0.19
-0.17
-0.195
-0.2
-0.22
-0.2
-0.19
-0.18
-0.19
-0.185
-0.19
-0.185
-0.165
-0.17
-0.175
-0.165
-0.165
-0.15
-0.12
-0.12
-0.11
-0.135
-0.14
-0.13
-0.11
-0.105
-0.105
-0.11
-0.13
-0.115
-0.105
-0.09
-0.105
-0.11
-0.115
-0.125
-0.105
-0.11
-0.14
-0.15
-0.16
-0.145
-0.125
-0.13
-0.145
-0.165
-0.19
-0.18
-0.16
-0.165
-0.18
-0.21
-0.205
-0.21
-0.21
-0.2
-0.2
-0.215
-0.185
-0.16
-0.16
-0.165
-0.18
-0.21
-0.22
-0.215
-0.18
-0.175
-0.195
-0.2
-0.2
-0.19
-0.175
-0.175
-0.16
-0.175
-0.18
-0.17
-0.16
-0.145
-0.15
-0.16
-0.16
-0.16
-0.16
-0.135
-0.07
0.025
0.145
0.275
0.4
0.51
0.605
0.7
0.82
1.0
1.2
1.38
1.545
1.7
1.855
1.99
2.11
2.165
2.18
2.155
2.06
1.845
1.53
1.155
0.845
0.625
0.55
0.53
0.54
0.55
0.51
0.46
0.405
0.345
0.31
0.275
0.22
0.18
0.14
0.1
0.08
0.03
-0.025
-0.08
-0.13
-0.165
-0.185
-0.225
-0.275
-0.32
-0.375
-0.36
-0.35
-0.345
-0.355
-0.365
-0.375
-0.37
-0.385
-0.375
-0.385
-0.395
-0.405
-0.41
-0.4
-0.405
-0.42
-0.44
-0.44
-0.445
-0.41
-0.41
-0.425
-0.455
-0.455
-0.455
-0.445
-0.44
-0.435
-0.465
-0.48
-0.48
-0.47
-0.48
-0.485
-0.51
-0.515
-0.51
-0.515
-0.51
-0.55
-0.555
-0.58
-0.555
-0.535
-0.545
-0.565
-0.595
-0.62
-0.625
-0.61
-0.63
-0.635
-0.67
-0.67
-0.67
-0.665
-0.655
-0.66
-0.685
-0.7
-0.69
-0.685
-0.68
-0.66
-0.665
-0.675
-0.64
-0.615
-0.595
-0.6
-0.585
-0.56
-0.525
-0.49
-0.46
-0.45
-0.44
-0.435
-0.41
-0.36
-0.33
-0.32
-0.315
-0.3
-0.27
-0.24
-0.215
-0.205
-0.21
-0.21
-0.2
-0.19
-0.19
-0.185
-0.19
-0.18
-0.175
-0.155
-0.15
-0.17
-0.19
-0.205
-0.195
-0.17
-0.165
-0.185
-0.2
-0.2
-0.21
-0.2
-0.205
-0.2
-0.205
-0.215
-0.215
-0.2
-0.205
-0.205
-0.22
-0.215
-0.195
-0.18
-0.19
-0.205
-0.225
-0.24
-0.235
-0.215
-0.205
-0.225
-0.24
-0.245
-0.245
-0.225
-0.215
-0.22
-0.225
-0.235
-0.23
-0.225
-0.225
-0.235
-0.245
-0.26
-0.255
-0.22
-0.195
-0.215
-0.235
-0.24
-0.225
-0.2
-0.19
-0.195
-0.205
-0.215
-0.215
-0.2
-0.2
-0.205
-0.215
-0.22
-0.21
-0.195
-0.195
-0.205
-0.23
-0.235
-0.215
-0.22
-0.2
-0.2
-0.22
-0.225
-0.22
-0.205
-0.195
-0.2
-0.21
-0.22
-0.22
-0.2
-0.195
-0.2
-0.215
-0.225
-0.215
-0.19
-0.205
-0.21
-0.225
-0.235
-0.235
-0.2
-0.205
-0.215
-0.235
-0.23
-0.235
-0.21
-0.2
-0.205
-0.215
-0.22
-0.21
-0.205
-0.205
-0.225
-0.23
-0.245
-0.235
-0.22
-0.225
-0.225
-0.24
-0.24
-0.225
-0.22
-0.205
-0.21
-0.23
-0.245
-0.235
-0.22
-0.225
-0.215
-0.22
-0.215
-0.215
-0.18
-0.185
-0.195
-0.225
-0.22
-0.195
-0.185
-0.17
-0.16
-0.175
-0.185
-0.175
-0.15
-0.14
-0.14
-0.15
-0.16
-0.15
-0.14
-0.135
-0.165
-0.16
-0.18
-0.17
-0.175
-0.185
-0.205
-0.215
-0.22
-0.2
-0.2
-0.185
-0.185
-0.21
-0.23
-0.245
-0.245
-0.24
-0.26
-0.265
-0.26
-0.25
-0.22
-0.225
-0.245
-0.265
-0.275
-0.25
-0.23
-0.23
-0.215
-0.235
-0.255
-0.23
-0.205
-0.195
-0.19
-0.19
-0.2
-0.205
-0.19
-0.18
-0.2
-0.195
-0.195
-0.19
-0.19
-0.19
-0.19
-0.18
-0.11
0.015
0.14
0.265
0.355
0.43
0.52
0.63
0.74
0.855
0.96
1.12
1.305
1.485
1.685
1.89
2.03
2.125
2.145
2.115
1.975
1.76
1.415
1.02
0.735
0.54
0.435
0.39
0.405
0.4
0.405
0.41
0.38
0.33
0.265
0.195
0.155
0.115
0.1
0.065
0.02
-0.035
-0.08
-0.11
-0.135
-0.155
-0.2
-0.255
-0.315
-0.315
-0.315
-0.33
-0.35
-0.385
-0.4
-0.415
-0.405
-0.405
-0.415
-0.425
-0.44
-0.46
-0.445
-0.44
-0.45
-0.45
-0.46
-0.44
-0.44
-0.435
-0.44
-0.46
-0.495
-0.485
-0.47
-0.46
-0.485
-0.495
-0.525
-0.53
-0.51
-0.505
-0.525
-0.545
-0.565
-0.575
-0.565
-0.57
-0.575
-0.59
-0.605
-0.605
-0.585
-0.605
-0.63
-0.645
-0.675
-0.66
-0.66
-0.675
-0.67
-0.71
-0.72
-0.72
-0.71
-0.705
-0.72
-0.735
-0.74
-0.74
-0.74
-0.74
-0.735
-0.74
-0.735
-0.735
-0.705
-0.695
-0.68
-0.68
-0.665
-0.615
-0.575
-0.565
-0.545
-0.535
-0.515
-0.485
-0.435
-0.415
-0.4
-0.4
-0.385
-0.35
-0.315
-0.275
-0.265
-0.265
-0.27
-0.26
-0.235
-0.205
-0.215
-0.205
-0.21
-0.205
-0.2
-0.2
-0.21
-0.205
-0.21
-0.21
-0.195
-0.185
-0.215
-0.22
-0.23
-0.23
-0.205
-0.195
-0.205
-0.215
-0.235
-0.245
-0.225
-0.21
-0.2
-0.21
-0.225
-0.225
-0.215
-0.215
-0.215
-0.23
-0.23
-0.225
-0.22
-0.215
-0.215
-0.23
-0.265
-0.245
-0.235
-0.22
-0.225
-0.24
-0.255
-0.25
-0.23
-0.225
-0.21
-0.23
-0.24
-0.23
-0.23
-0.22
-0.23
-0.23
-0.235
-0.22
-0.21
-0.21
-0.225
-0.235
-0.235
-0.235
-0.205
-0.18
-0.195
-0.21
-0.22
-0.22
-0.205
-0.205
-0.2
-0.21
-0.215
-0.205
-0.2
-0.2
-0.2
-0.215
-0.22
-0.21
-0.19
-0.185
-0.195
-0.21
-0.225
-0.22
-0.215
-0.2
-0.19
-0.205
-0.22
-0.21
-0.215
-0.215
-0.2
-0.22
-0.225
-0.215
-0.205
-0.2
-0.215
-0.23
-0.24
-0.225
-0.2
-0.2
-0.21
-0.23
-0.23
-0.23
-0.225
-0.195
-0.19
-0.22
-0.22
-0.225
-0.215
-0.2
-0.195
-0.21
-0.21
-0.205
-0.19
-0.2
-0.2
-0.21
-0.2
-0.185
-0.175
-0.175
-0.185
-0.195
-0.2
-0.205
-0.175
-0.15
-0.15
-0.15
-0.17
-0.16
-0.15
-0.155
-0.145
-0.15
-0.155
-0.16
-0.15
-0.165
-0.175
-0.19
-0.205
-0.19
-0.18
-0.17
-0.165
-0.175
-0.19
-0.2
-0.185
-0.2
-0.21
-0.22
-0.225
-0.245
-0.235
-0.215
-0.22
-0.23
-0.24
-0.235
-0.235
-0.215
-0.23
-0.25
-0.245
-0.24
-0.215
-0.2
-0.205
-0.2
-0.225
-0.205
-0.18
-0.175
-0.165
-0.17
-0.175
-0.175
-0.16
-0.155
-0.17
-0.215
-0.235
-0.205
-0.15
-0.075
0.025
0.145
0.27
0.42
0.57
0.715
0.88
1.06
1.25
1.48
1.71
1.94
2.13
2.245
2.285
2.25
2.17
1.985
1.725
1.435
1.185
0.965
0.775
0.65
0.55
0.505
0.49
0.495
0.465
0.43
0.365
0.3
0.225
0.18
0.155
0.13
0.085
0.045
-0.015
-0.06
-0.09
-0.11
-0.155
-0.195
-0.235
-0.265
-0.285
-0.315
-0.345
-0.37
-0.375
-0.39
-0.365
-0.37
-0.385
-0.41
-0.435
-0.42
-0.4
-0.395
-0.405
-0.43
-0.46
-0.455
-0.43
-0.415
-0.42
-0.44
-0.46
-0.47
-0.46
-0.455
-0.455
-0.475
-0.485
-0.48
-0.485
-0.48
-0.495
-0.51
-0.52
-0.51
-0.525
-0.54
-0.565
-0.57
-0.59
-0.585
-0.59
-0.6
-0.615
-0.65
-0.66
-0.665
-0.65
-0.645
-0.655
-0.69
-0.71
-0.705
-0.71
-0.7
-0.7
-0.71
-0.73
-0.725
-0.7
-0.68
-0.67
-0.665
-0.655
-0.66
-0.625
-0.61
-0.595
-0.585
-0.56
-0.515
-0.475
-0.42
-0.415
-0.4
-0.375
-0.335
-0.31
-0.27
-0.26
-0.265
-0.265
-0.235
-0.22
-0.19
-0.19
-0.195
-0.205
-0.205
-0.185
-0.16
-0.17
-0.175
-0.18
-0.19
-0.18
-0.175
-0.175
-0.175
-0.195
-0.19
-0.18
-0.175
-0.2
-0.2
-0.21
-0.195
-0.19
-0.19
-0.21
-0.22
-0.215
-0.21
-0.21
-0.195
-0.21
-0.22
-0.235
-0.225
-0.215
-0.19
-0.19
-0.22
-0.23
-0.23
-0.21
-0.195
-0.19
-0.215
-0.235
-0.22
-0.225
-0.215
-0.2
-0.225
-0.22
-0.225
-0.21
-0.21
-0.2
-0.21
-0.225
-0.215
-0.195
-0.195
-0.21
-0.22
-0.215
-0.2
-0.18
-0.185
-0.19
-0.22
-0.225
-0.205
-0.195
-0.175
-0.19
-0.215
-0.22
-0.22
-0.2
-0.195
-0.2
-0.2
-0.21
-0.215
-0.215
-0.2
-0.19
-0.2
-0.22
-0.215
-0.21
-0.2
-0.195
-0.205
-0.215
-0.21
-0.19
-0.19
-0.195
-0.215
-0.215
-0.23
-0.205
-0.2
-0.21
-0.225
-0.23
-0.22
-0.2
-0.18
-0.2
-0.225
-0.245
-0.225
-0.2
-0.19
-0.185
-0.2
-0.23
-0.215
-0.21
-0.185
-0.19
-0.2
-0.205
-0.2
-0.195
-0.185
-0.185
-0.19
-0.18
-0.165
-0.145
-0.145
-0.14
-0.15
-0.16
-0.145
-0.135
-0.125
-0.135
-0.155
-0.18
-0.19
-0.18
-0.16
-0.185
-0.195
-0.21
-0.21
-0.19
-0.165
-0.17
-0.185
-0.22
-0.22
-0.23
-0.225
-0.245
-0.24
-0.24
-0.255
-0.245
-0.245
-0.245
-0.245
-0.24
-0.23
-0.235
-0.225
-0.215
-0.235
-0.235
-0.215
-0.19
-0.175
-0.175
-0.18
-0.205
-0.21
-0.195
-0.17
-0.175
-0.205
-0.2
-0.125
0.005
0.165
0.295
0.4
0.495
0.615
0.735
0.89
1.045
1.21
1.37
1.565
1.79
2.005
2.16
2.225
2.215
2.13
1.895
1.52
1.09
0.755
0.575
0.53
0.545
0.56
0.535
0.485
0.42
0.385
0.365
0.355
0.285
0.215
0.165
0.105
0.06
0.025
-0.04
-0.1
-0.165
-0.19
-0.235
-0.28
-0.32
-0.365
-0.39
-0.39
-0.375
-0.38
-0.385
-0.425
-0.455
-0.435
-0.42
-0.41
-0.415
-0.45
-0.465
-0.465
-0.46
-0.445
-0.455
-0.475
-0.5
-0.505
-0.505
-0.495
-0.49
-0.495
-0.485
-0.485
-0.49
-0.495
-0.51
-0.53
-0.54
-0.56
-0.545
-0.535
-0.555
-0.58
-0.605
-0.595
-0.585
-0.575
-0.6
-0.625
-0.655
-0.655
-0.65
-0.64
-0.645
-0.67
-0.695
-0.705
-0.705
-0.69
-0.705
-0.725
-0.725
-0.75
-0.74
-0.73
-0.745
-0.745
-0.745
-0.725
-0.71
-0.69
-0.685
-0.695
-0.66
-0.625
-0.595
-0.55
-0.53
-0.515
-0.495
-0.465
-0.42
-0.37
-0.355
-0.345
-0.35
-0.32
-0.275
-0.255
-0.25
-0.24
-0.24
-0.23
-0.22
-0.2
-0.19
-0.195
-0.21
-0.205
-0.2
-0.195
-0.185
-0.195
-0.21
-0.22
-0.205
-0.21
-0.21
-0.215
-0.235
-0.23
-0.205
-0.19
-0.195
-0.215
-0.24
-0.225
-0.215
-0.21
-0.23
-0.24
-0.245
-0.25
-0.235
-0.21
-0.21
-0.24
-0.245
-0.255
-0.25
-0.235
-0.235
-0.24
-0.25
-0.245
-0.24
-0.22
-0.245
-0.245
-0.24
-0.24
-0.235
-0.245
-0.24
-0.245
-0.26
-0.25
-0.245
-0.23
-0.22
-0.225
-0.27
-0.265
-0.24
-0.225
-0.215
-0.23
-0.245
-0.245
-0.235
-0.215
-0.215
-0.225
-0.24
-0.25
-0.245
-0.24
-0.245
-0.25
-0.25
-0.24
-0.215
-0.215
-0.215
-0.245
-0.245
-0.235
-0.235
-0.225
-0.225
-0.24
-0.255
-0.26
-0.215
-0.205
-0.205
-0.235
-0.24
-0.235
-0.24
-0.215
-0.23
-0.225
-0.25
-0.25
-0.24
-0.23
-0.235
-0.245
-0.245
-0.235
-0.225
-0.23
-0.235
-0.24
-0.24
-0.25
-0.225
-0.19
-0.2
-0.225
-0.23
-0.225
-0.22
-0.21
-0.21
-0.22
-0.22
-0.215
-0.21
-0.2
-0.205
-0.215
-0.23
-0.225
-0.205
-0.19
-0.19
-0.2
-0.185
-0.18
-0.15
-0.145
-0.17
-0.185
-0.185
-0.18
-0.165
-0.165
-0.18
-0.205
-0.215
-0.23
-0.22
-0.215
-0.2
-0.21
-0.2
-0.21
-0.215
-0.215
-0.235
-0.25
-0.255
-0.26
-0.26
-0.245
-0.24
-0.265
-0.27
-0.275
-0.26
-0.265
-0.27
-0.275
-0.27
-0.255
-0.24
-0.225
-0.21
-0.225
-0.235
-0.225
-0.2
-0.19
-0.205
-0.2
-0.23
-0.25
-0.245
-0.25
-0.225
-0.185
-0.09
0.025
0.18
0.305
0.425
0.56
0.705
0.9
1.13
1.375
1.61
1.84
2.055
2.18
2.24
2.245
2.145
2.01
1.78
1.415
1.01
0.685
0.51
0.47
0.465
0.44
0.395
0.34
0.27
0.195
0.13
0.09
0.06
0.03
-0.005
-0.065
-0.11
-0.17
-0.18
-0.205
-0.245
-0.27
-0.32
-0.355
-0.385
-0.38
-0.395
-0.405
-0.41
-0.415
-0.41
-0.42
-0.425
-0.455
-0.455
-0.445
-0.44
-0.42
-0.425
-0.46
-0.475
-0.49
-0.475
-0.455
-0.48
-0.505
-0.52
-0.54
-0.505
-0.5
-0.515
-0.52
-0.55
-0.56
-0.555
-0.555
-0.57
-0.575
-0.595
-0.595
-0.61
-0.625
-0.63
-0.645
-0.65
-0.67
-0.68
-0.68
-0.68
-0.71
-0.725
-0.735
-0.725
-0.735
-0.755
-0.77
-0.77
-0.77
-0.77
-0.75
-0.745
-0.765
-0.78
-0.755
-0.71
-0.66
-0.66
-0.65
-0.645
-0.64
-0.595
-0.555
-0.53
-0.53
-0.515
-0.485
-0.44
-0.38
-0.355
-0.34
-0.33
-0.32
-0.285
-0.255
-0.23
-0.22
-0.245
-0.245
-0.22
-0.215
-0.21
-0.215
-0.22
-0.21
-0.22
-0.2
-0.205
-0.22
-0.235
-0.215
-0.21
-0.22
-0.22
-0.235
-0.235
-0.24
-0.21
-0.2
-0.2
-0.225
-0.245
-0.25
-0.23
-0.21
-0.21
-0.225
-0.24
-0.245
-0.23
-0.225
-0.21
-0.22
-0.24
-0.255
-0.245
-0.24
-0.235
-0.225
-0.24
-0.23
-0.22
-0.215
-0.225
-0.24
-0.25
-0.245
-0.235
-0.23
-0.225
-0.235
-0.245
-0.235
-0.215
-0.21
-0.215
-0.23
-0.24
-0.245
-0.23
-0.205
-0.19
-0.225
-0.225
-0.23
-0.215
-0.195
-0.215
-0.21
-0.22
-0.225
-0.2
-0.21
-0.2
-0.22
-0.22
-0.21
-0.2
-0.185
-0.205
-0.22
-0.235
-0.24
-0.225
-0.21
-0.195
-0.215
-0.225
-0.23
-0.23
-0.22
-0.215
-0.22
-0.225
-0.22
-0.23
-0.205
-0.215
-0.215
-0.225
-0.22
-0.21
-0.19
-0.2
-0.2
-0.21
-0.225
-0.21
-0.205
-0.185
-0.2
-0.22
-0.22
-0.21
-0.185
-0.185
-0.19
-0.19
-0.2
-0.195
-0.19
-0.175
-0.185
-0.18
-0.175
-0.15
-0.145
-0.15
-0.15
-0.145
-0.145
-0.13
-0.13
-0.14
-0.155
-0.175
-0.18
-0.17
-0.15
-0.165
-0.175
-0.2
-0.18
-0.18
-0.14
-0.145
-0.17
-0.185
-0.205
-0.21
-0.205
-0.22
-0.23
-0.225
-0.235
-0.21
-0.225
-0.24
-0.24
-0.245
-0.24
-0.225
-0.215
-0.21
-0.2
-0.215
-0.22
-0.21
-0.18
-0.18
-0.17
-0.19
-0.18
-0.17
-0.155
-0.16
-0.16
-0.175
-0.185
-0.185
-0.11
-0.01
0.12
0.255
0.355
0.455
0.535
0.625
0.705
0.835
1.06
1.325
1.58
1.815
2.005
2.115
2.165
2.14
1.995
1.69
1.29
0.91
0.64
0.51
0.48
0.485
0.485
0.475
0.455
0.44
0.4
0.335
0.275
0.22
0.175
0.14
0.1
0.06
-0.01
-0.065
-0.1
-0.11
-0.155
-0.23
-0.26
-0.3
-0.305
-0.315
-0.325
-0.345
-0.365
-0.385
-0.4
-0.385
-0.375
-0.37
-0.395
-0.41
-0.43
-0.415
-0.41
-0.38
-0.4
-0.415
-0.42
-0.425
-0.425
-0.44
-0.44
-0.44
-0.465
-0.475
-0.475
-0.46
-0.465
-0.485
-0.495
-0.51
-0.495
-0.515
-0.515
-0.535
-0.53
-0.54
-0.535
-0.565
-0.58
-0.605
-0.62
-0.615
-0.615
-0.63
-0.655
-0.675
-0.67
-0.665
-0.675
-0.68
-0.7
-0.71
-0.71
-0.695
-0.675
-0.67
-0.67
-0.68
-0.67
-0.65
-0.615
-0.59
-0.575
-0.57
-0.54
-0.49
-0.455
-0.425
-0.4
-0.385
-0.36
-0.345
-0.315
-0.285
-0.28
-0.275
-0.255
-0.225
-0.205
-0.19
-0.2
-0.205
-0.175
-0.175
-0.18
-0.185
-0.18
-0.19
-0.17
-0.17
-0.16
-0.175
-0.18
-0.2
-0.19
-0.175
-0.16
-0.17
-0.185
-0.195
-0.195
-0.195
-0.16
-0.17
-0.2
-0.215
-0.215
-0.205
-0.175
-0.18
-0.175
-0.215
-0.205
-0.2
-0.19
-0.18
-0.205
-0.205
-0.2
-0.195
-0.185
-0.195
-0.205
-0.2
-0.195
-0.195
-0.2
-0.205
-0.21
-0.21
-0.205
-0.18
-0.17
-0.175
-0.185
-0.21
-0.205
-0.195
-0.165
-0.175
-0.18
-0.2
-0.205
-0.2
-0.18
-0.16
-0.165
-0.175
-0.19
-0.195
-0.18
-0.18
-0.18
-0.19
-0.19
-0.185
-0.165
-0.18
-0.195
-0.205
-0.215
-0.2
-0.17
-0.165
-0.2
-0.21
-0.21
-0.185
-0.17
-0.165
-0.175
-0.19
-0.215
-0.21
-0.21
-0.19
-0.2
-0.2
-0.215
-0.2
-0.18
-0.185
-0.195
-0.21
-0.2
-0.19
-0.185
-0.19
-0.195
-0.205
-0.195
-0.19
-0.165
-0.165
-0.185
-0.21
-0.205
-0.205
-0.185
-0.18
-0.185
-0.175
-0.18
-0.18
-0.16
-0.17
-0.165
-0.175
-0.17
-0.16
-0.145
-0.145
-0.145
-0.15
-0.14
-0.11
-0.085
-0.085
-0.105
-0.13
-0.13
-0.13
-0.115
-0.12
-0.125
-0.135
-0.175
-0.145
-0.15
-0.15
-0.16
-0.165
-0.16
-0.15
-0.145
-0.165
-0.175
-0.205
-0.2
-0.205
-0.19
-0.19
-0.215
-0.23
-0.225
-0.2
-0.195
-0.205
-0.21
-0.22
-0.215
-0.21
-0.18
-0.185
-0.18
-0.185
-0.185
-0.18
-0.16
-0.175
-0.17
-0.175
-0.16
-0.14
-0.13
-0.14
-0.165
-0.175
-0.14
-0.035
0.115
0.24
0.345
0.425
0.54
0.67
0.855
1.03
1.185
1.32
1.42
1.56
1.725
1.915
2.07
2.135
2.125
2.015
1.745
1.365
0.98
0.705
0.575
0.525
0.525
0.52
0.475
0.45
0.415
0.385
0.355
0.315
0.27
0.205
0.17
0.14
0.12
0.075
0.015
-0.06
-0.115
-0.15
-0.185
-0.22
-0.255
-0.295
-0.33
-0.345
-0.35
-0.355
-0.365
-0.37
-0.37
-0.375
-0.38
-0.385
-0.4
-0.415
-0.415
-0.41
-0.405
-0.415
-0.425
-0.44
-0.465
-0.445
-0.435
-0.425
-0.455
-0.47
-0.48
-0.475
-0.47
-0.46
-0.47
-0.48
-0.48
-0.485
-0.49
-0.5
-0.515
-0.535
-0.53
-0.52
-0.52
-0.535
-0.555
-0.58
-0.58
-0.575
-0.575
-0.6
-0.61
-0.63
-0.64
-0.65
-0.63
-0.62
-0.64
-0.665
-0.69
-0.695
-0.69
-0.68
-0.685
-0.705
-0.705
-0.69
-0.665
-0.68
-0.66
-0.665
-0.66
-0.63
-0.6
-0.595
-0.595
-0.605
-0.58
-0.545
-0.51
-0.465
-0.45
-0.44
-0.415
-0.385
-0.35
-0.335
-0.295
-0.275
-0.255
-0.24
-0.21
-0.19
-0.195
-0.2
-0.18
-0.175
-0.155
-0.155
-0.165
-0.185
-0.19
-0.175
-0.15
-0.16
-0.175
-0.175
-0.195
-0.185
-0.16
-0.155
-0.15
-0.17
-0.18
-0.175
-0.175
-0.165
-0.175
-0.17
-0.175
-0.165
-0.155
-0.15
-0.16
-0.185
-0.195
-0.195
-0.17
-0.15
-0.17
-0.195
-0.21
-0.195
-0.19
-0.18
-0.195
-0.195
-0.2
-0.2
-0.185
-0.19
-0.195
-0.22
-0.215
-0.19
-0.185
-0.175
-0.18
-0.21
-0.23
-0.225
-0.22
-0.205
-0.205
-0.225
-0.22
-0.21
-0.21
-0.195
-0.21
-0.22
-0.215
-0.2
-0.185
-0.19
-0.205
-0.23
-0.225
-0.225
-0.21
-0.18
-0.2
-0.215
-0.21
-0.215
-0.205
-0.205
-0.205
-0.21
-0.22
-0.195
-0.2
-0.2
-0.215
-0.2
-0.2
-0.19
-0.185
-0.18
-0.195
-0.22
-0.225
-0.22
-0.21
-0.195
-0.205
-0.22
-0.22
-0.215
-0.21
-0.195
-0.21
-0.22
-0.215
-0.2
-0.195
-0.19
-0.215
-0.235
-0.245
-0.225
-0.19
-0.19
-0.2
-0.22
-0.24
-0.21
-0.205
-0.19
-0.21
-0.21
-0.205
-0.205
-0.205
-0.195
-0.215
-0.225
-0.23
-0.21
-0.19
-0.185
-0.2
-0.23
-0.21
-0.195
-0.175
-0.18
-0.205
-0.21
-0.215
-0.21
-0.185
-0.175
-0.18
-0.195
-0.175
-0.145
-0.125
-0.135
-0.14
-0.16
-0.165
-0.155
-0.14
-0.15
-0.165
-0.185
-0.19
-0.17
-0.16
-0.17
-0.165
-0.165
-0.18
-0.175
-0.17
-0.16
-0.185
-0.225
-0.23
-0.23
-0.21
-0.21
-0.225
-0.24
-0.235
-0.22
-0.22
-0.215
-0.225
-0.22
-0.21
-0.185
-0.18
-0.18
-0.185
-0.205
-0.19
-0.175
-0.16
-0.165
-0.165
-0.185
-0.19
-0.18
-0.175
-0.165
-0.105
-0.01
0.14
0.28
0.415
0.52
0.615
0.715
0.79
0.97
1.195
1.445
1.675
1.86
1.99
2.045
2.005
1.865
1.58
1.2
0.84
0.6
0.48
0.48
0.49
0.49
0.495
0.465
0.415
0.375
0.305
0.225
0.16
0.12
0.125
0.12
0.065
-0.01
-0.075
-0.105
-0.15
-0.175
-0.2
-0.25
-0.28
-0.31
-0.33
-0.34
-0.36
-0.385
-0.375
-0.37
-0.355
-0.36
-0.385
-0.405
-0.415
-0.415
-0.39
-0.39
-0.385
-0.42
-0.41
-0.425
-0.41
-0.405
-0.435
-0.445
-0.455
-0.465
-0.455
-0.445
-0.45
-0.47
-0.48
-0.47
-0.475
-0.485
-0.495
-0.52
-0.525
-0.52
-0.53
-0.535
-0.555
-0.575
-0.585
-0.585
-0.575
-0.565
-0.59
-0.62
-0.63
-0.625
-0.605
-0.615
-0.635
-0.645
-0.66
-0.69
-0.68
-0.68
-0.685
-0.7
-0.7
-0.705
-0.7
-0.69
-0.695
-0.695
-0.71
-0.68
-0.665
-0.655
-0.655
-0.65
-0.645
-0.625
-0.6
-0.59
-0.58
-0.57
-0.54
-0.49
-0.455
-0.435
-0.415
-0.4
-0.38
-0.345
-0.305
-0.275
-0.285
-0.28
-0.255
-0.24
-0.225
-0.185
-0.19
-0.195
-0.195
-0.19
-0.185
-0.19
-0.17
-0.18
-0.18
-0.17
-0.165
-0.185
-0.175
-0.175
-0.175
-0.16
-0.155
-0.165
-0.17
-0.185
-0.185
-0.18
-0.165
-0.15
-0.18
-0.175
-0.2
-0.195
-0.18
-0.16
-0.175
-0.185
-0.185
-0.17
-0.17
-0.18
-0.19
-0.2
-0.215
-0.2
-0.185
-0.165
-0.165
-0.19
-0.19
-0.185
-0.17
-0.17
-0.175
-0.19
-0.18
-0.17
-0.18
-0.185
-0.195
-0.205
-0.2
-0.175
-0.165
-0.16
-0.175
-0.195
-0.19
-0.185
-0.16
-0.145
-0.15
-0.175
-0.195
-0.195
-0.175
-0.16
-0.165
-0.18
-0.19
-0.165
-0.15
-0.145
-0.16
-0.18
-0.19
-0.16
-0.145
-0.125
-0.14
-0.17
-0.18
-0.16
-0.155
-0.135
-0.14
-0.175
-0.175
-0.175
-0.15
-0.15
-0.17
-0.17
-0.175
-0.175
-0.15
-0.165
-0.16
-0.175
-0.175
-0.17
-0.155
-0.13
-0.135
-0.17
-0.155
-0.155
-0.145
-0.16
-0.16
-0.165
-0.17
-0.15
-0.14
-0.135
-0.15
-0.17
-0.18
-0.15
-0.14
-0.13
-0.135
-0.15
-0.165
-0.16
-0.135
-0.125
-0.135
-0.135
-0.15
-0.16
-0.16
-0.14
-0.125
-0.135
-0.145
-0.12
-0.085
-0.09
-0.095
-0.1
-0.11
-0.085
-0.065
-0.07
-0.09
-0.11
-0.115
-0.125
-0.11
-0.095
-0.11
-0.125
-0.14
-0.14
-0.12
-0.105
-0.095
-0.11
-0.125
-0.12
-0.115
-0.135
-0.17
-0.185
-0.17
-0.15
-0.14
-0.145
-0.16
-0.17
-0.185
-0.165
-0.155
-0.14
-0.135
-0.15
-0.155
-0.145
-0.125
-0.115
-0.11
-0.115
-0.12
-0.115
-0.1
-0.095
-0.1
-0.095
-0.125
-0.12
-0.11
-0.035
0.065
0.175
0.305
0.43
0.53
0.635
0.72
0.78
0.865
0.99
1.175
1.385
1.595
1.775
1.955
2.09
2.135
2.145
2.075
1.92
1.65
1.315
0.99
0.735
0.585
0.515
0.515
0.52
0.55
0.54
0.5
0.42
0.375
0.325
0.3
0.265
0.21
0.17
0.12
0.09
0.055
0.035
0.005
-0.06
-0.09
-0.11
-0.14
-0.175
-0.21
-0.24
-0.27
-0.27
-0.255
-0.25
-0.27
-0.29
-0.305
-0.305
-0.3
-0.29
-0.31
-0.32
-0.32
-0.32
-0.33
-0.325
-0.33
-0.345
-0.35
-0.345
-0.335
-0.35
-0.355
-0.375
-0.39
-0.375
-0.35
-0.355
-0.37
-0.38
-0.38
-0.38
-0.38
-0.38
-0.4
-0.43
-0.425
-0.41
-0.415
-0.425
-0.445
-0.465
-0.5
-0.47
-0.465
-0.465
-0.495
-0.53
-0.54
-0.535
-0.535
-0.54
-0.54
-0.545
-0.565
-0.57
-0.585
-0.595
-0.595
-0.625
-0.64
-0.63
-0.62
-0.62
-0.64
-0.645
-0.64
-0.645
-0.625
-0.615
-0.63
-0.635
-0.64
-0.615
-0.585
-0.58
-0.55
-0.55
-0.53
-0.515
-0.47
-0.46
-0.455
-0.41
-0.4
-0.37
-0.315
-0.305
-0.285
-0.27
-0.26
-0.23
-0.19
-0.16
-0.16
-0.185
-0.17
-0.16
-0.14
-0.125
-0.12
-0.125
-0.12
-0.115
-0.1
-0.105
-0.115
-0.11
-0.115
-0.11
-0.09
-0.09
-0.105
-0.11
-0.13
-0.13
-0.1
-0.085
-0.095
-0.11
-0.12
-0.115
-0.12
-0.105
-0.12
-0.13
-0.13
-0.13
-0.115
-0.11
-0.13
-0.14
-0.135
-0.125
-0.115
-0.1
-0.13
-0.135
-0.15
-0.14
-0.125
-0.105
-0.13
-0.13
-0.13
-0.135
-0.115
-0.12
-0.12
-0.12
-0.125
-0.125
-0.105
-0.11
-0.105
-0.135
-0.155
-0.13
-0.1
-0.095
-0.1
-0.12
-0.13
-0.115
-0.105
-0.09
-0.095
-0.1
-0.11
-0.095
-0.09
-0.1
-0.1
-0.12
-0.115
-0.1
-0.085
-0.085
-0.095
-0.115
-0.125
-0.115
-0.115
-0.09
-0.105
-0.105
-0.115
-0.12
-0.1
-0.1
-0.11
-0.105
-0.11
-0.1
-0.1
-0.1
-0.115
-0.145
-0.125
-0.115
-0.11
-0.1
-0.105
-0.115
-0.13
-0.125
-0.095
-0.08
-0.08
-0.095
-0.115
-0.11
-0.1
-0.1
-0.09
-0.105
-0.125
-0.125
-0.11
-0.095
-0.095
-0.105
-0.12
-0.105
-0.11
-0.09
-0.115
-0.12
-0.115
-0.1
-0.065
-0.055
-0.075
-0.09
-0.09
-0.075
-0.065
-0.035
-0.04
-0.055
-0.06
-0.07
-0.045
-0.04
-0.03
-0.06
-0.06
-0.07
-0.06
-0.06
-0.065
-0.1
-0.095
-0.095
-0.085
-0.075
-0.07
-0.1
-0.11
-0.1
-0.1
-0.105
-0.1
-0.15
-0.16
-0.145
-0.135
-0.115
-0.115
-0.13
-0.14
-0.155
-0.135
-0.125
-0.125
-0.125
-0.125
-0.12
-0.125
-0.095
-0.105
-0.11
-0.105
-0.09
-0.1
-0.075
-0.09
-0.115
-0.12
-0.12
-0.08
-0.005
0.06
0.155
0.265
0.385
0.535
0.675
0.825
1.0
1.205
1.455
1.71
1.925
2.095
2.175
2.19
2.15
2.005
1.775
1.44
1.115
0.875
0.735
0.655
0.61
0.575
0.55
0.505
0.485
0.43
0.375
0.32
0.25
0.195
0.175
0.155
0.11
0.06
0.01
-0.045
-0.055
-0.06
-0.075
-0.125
-0.175
-0.215
-0.25
-0.26
-0.25
-0.265
-0.285
-0.305
-0.315
-0.31
-0.3
-0.295
-0.305
-0.335
-0.34
-0.33
-0.32
-0.335
-0.34
-0.355
-0.355
-0.34
-0.335
-0.35
-0.355
-0.375
-0.365
-0.36
-0.345
-0.38
-0.4
-0.41
-0.405
-0.39
-0.395
-0.4
-0.415
-0.45
-0.45
-0.435
-0.44
-0.44
-0.465
-0.475
-0.485
-0.495
-0.505
-0.52
-0.53
-0.535
-0.555
-0.54
-0.56
-0.58
-0.61
-0.62
-0.595
-0.605
-0.59
-0.605
-0.61
-0.63
-0.635
-0.61
-0.585
-0.59
-0.575
-0.58
-0.56
-0.54
-0.515
-0.485
-0.46
-0.445
-0.425
-0.4
-0.36
-0.35
-0.33
-0.315
-0.29
-0.26
-0.23
-0.22
-0.205
-0.195
-0.165
-0.125
-0.105
-0.12
-0.135
-0.125
-0.125
-0.1
-0.065
-0.08
-0.115
-0.115
-0.12
-0.115
-0.09
-0.095
-0.1
-0.11
-0.13
-0.125
-0.105
-0.115
-0.115
-0.12
-0.12
-0.11
-0.115
-0.125
-0.13
-0.13
-0.12
-0.105
-0.105
-0.12
-0.135
-0.145
-0.145
-0.13
-0.115
-0.12
-0.145
-0.15
-0.155
-0.15
-0.13
-0.13
-0.14
-0.17
-0.17
-0.16
-0.145
-0.15
-0.15
-0.155
-0.14
-0.135
-0.125
-0.14
-0.155
-0.175
-0.185
-0.145
-0.14
-0.155
-0.165
-0.165
-0.145
-0.13
-0.13
-0.135
-0.155
-0.165
-0.155
-0.14
-0.125
-0.13
-0.14
-0.165
-0.16
-0.14
-0.12
-0.105
-0.125
-0.14
-0.155
-0.14
-0.14
-0.14
-0.15
-0.15
-0.17
-0.15
-0.145
-0.15
-0.155
-0.16
-0.145
-0.145
-0.155
-0.165
-0.165
-0.165
-0.15
-0.135
-0.14
-0.15
-0.165
-0.16
-0.155
-0.15
-0.135
-0.135
-0.16
-0.18
-0.15
-0.125
-0.12
-0.115
-0.13
-0.135
-0.14
-0.1
-0.08
-0.08
-0.09
-0.11
-0.105
-0.09
-0.075
-0.08
-0.09
-0.11
-0.12
-0.09
-0.09
-0.095
-0.12
-0.13
-0.13
-0.095
-0.09
-0.12
-0.13
-0.16
-0.15
-0.145
-0.145
-0.16
-0.18
-0.19
-0.2
-0.175
-0.16
-0.18
-0.175
-0.185
-0.175
-0.185
-0.155
-0.165
-0.165
-0.185
-0.175
-0.165
-0.135
-0.125
-0.13
-0.15
-0.16
-0.145
-0.12
-0.11
-0.15
-0.18
-0.185
-0.18
-0.145
-0.055
0.08
0.235
0.37
0.495
0.63
0.785
0.96
1.155
1.37
1.585
1.805
1.965
2.035
2.065
2.005
1.92
1.76
1.53
1.255
0.95
0.675
0.52
0.485
0.49
0.485
0.415
0.345
0.3
