Lead II
0.84
1.12
1.385
1.55
1.52
1.265
0.85
0.375
0.015
-0.155
-0.215
-0.23
-0.255
-0.275
-0.27
-0.24
-0.245
-0.235
-0.255
-0.265
-0.285
-0.29
-0.275
-0.28
-0.275
-0.29
-0.29
-0.275
-0.27
-0.27
-0.25
-0.255
-0.26
-0.255
-0.25
-0.25
-0.26
-0.265
-0.26
-0.255
-0.235
-0.22
-0.23
-0.235
-0.235
-0.22
-0.2
-0.195
-0.2
-0.22
-0.21
-0.2
-0.175
-0.17
-0.175
-0.155
-0.15
-0.135
-0.1
-0.08
-0.075
-0.07
-0.06
-0.045
-0.02
-0.005
0.015
0.01
0.03
0.075
0.115
0.13
0.145
0.145
0.175
0.205
0.225
0.24
0.25
0.24
0.24
0.245
0.27
0.285
0.255
0.235
0.22
0.2
0.205
0.18
0.14
0.085
0.045
0.015
-0.005
-0.025
-0.06
-0.11
-0.13
-0.145
-0.165
-0.16
-0.185
-0.205
-0.22
-0.23
-0.24
-0.235
-0.255
-0.275
-0.28
-0.27
-0.255
-0.26
-0.265
-0.29
-0.29
-0.28
-0.265
-0.265
-0.3
-0.32
-0.3
-0.31
-0.29
-0.285
-0.285
-0.3
-0.28
-0.275
-0.255
-0.25
-0.265
-0.28
-0.29
-0.285
-0.27
-0.265
-0.265
-0.275
-0.28
-0.27
-0.25
-0.245
-0.255
-0.28
-0.275
-0.285
-0.275
-0.27
-0.265
-0.28
-0.275
-0.28
-0.255
-0.235
-0.235
-0.265
-0.265
-0.265
-0.25
-0.225
-0.22
-0.23
-0.23
-0.21
-0.16
-0.145
-0.14
-0.155
-0.15
-0.13
-0.115
-0.125
-0.145
-0.165
-0.2
-0.21
-0.195
-0.205
-0.215
-0.245
-0.25
-0.24
-0.235
-0.24
-0.255
-0.275
-0.3
-0.305
-0.28
-0.29
-0.3
-0.295
-0.31
-0.285
-0.27
-0.265
-0.265
-0.28
-0.285
-0.275
-0.265
-0.265
-0.28
-0.285
-0.3
-0.28
-0.26
-0.255
-0.26
-0.27
-0.265
-0.25
-0.255
-0.235
-0.225
-0.165
-0.065
0.07
0.24
0.44
0.675
0.91
1.15
1.385
1.505
1.4
1.11
0.77
0.435
0.155
-0.035
-0.145
-0.205
-0.255
-0.31
-0.295
-0.255
-0.215
-0.21
-0.24
-0.26
-0.26
-0.255
-0.245
-0.245
-0.27
-0.265
-0.25
-0.245
-0.255
-0.255
-0.285
-0.27
-0.265
-0.24
-0.23
-0.235
-0.25
-0.25
-0.245
-0.22
-0.2
-0.205
-0.225
-0.25
-0.24
-0.21
-0.2
-0.2
-0.2
-0.22
-0.19
-0.175
-0.17
-0.16
-0.17
-0.155
-0.14
-0.125
-0.125
-0.135
-0.14
-0.14
-0.1
-0.08
-0.065
-0.065
-0.06
-0.055
-0.025
0.0
0.025
0.04
0.045
0.07
0.08
0.1
0.135
0.15
0.155
0.17
0.195
0.22
0.25
0.26
0.255
0.26
0.275
0.285
0.305
0.285
0.25
0.225
0.225
0.22
0.195
0.185
0.13
0.105
0.095
0.075
0.065
0.025
-0.015
-0.06
-0.08
-0.105
-0.13
-0.15
-0.16
-0.2
-0.195
-0.195
-0.195
-0.2
-0.22
-0.22
-0.22
-0.22
-0.235
-0.235
-0.26
-0.25
-0.24
-0.23
-0.23
-0.235
-0.26
-0.26
-0.25
-0.235
-0.23
-0.24
-0.255
-0.28
-0.27
-0.255
-0.25
-0.235
-0.245
-0.255
-0.275
-0.26
-0.235
-0.245
-0.24
-0.255
-0.25
-0.225
-0.22
-0.24
-0.25
-0.25
-0.26
-0.245
-0.23
-0.24
-0.245
-0.25
-0.245
-0.24
-0.225
-0.235
-0.24
-0.245
-0.25
-0.245
-0.24
-0.245
-0.25
-0.26
-0.24
-0.23
-0.215
-0.22
-0.23
-0.225
-0.23
-0.21
-0.205
-0.215
-0.225
-0.22
-0.2
-0.165
-0.16
-0.145
-0.12
-0.08
-0.01
0.04
0.105
0.175
0.23
0.285
0.355
0.44
0.505
0.55
0.585
0.625
0.69
0.73
0.8
0.87
0.925
0.975
1.035
1.12
1.19
1.25
1.265
1.245
1.195
1.145
1.105
1.075
1.035
1.005
0.995
1.015
1.035
1.02
1.015
1.01
1.02
1.03
1.05
1.055
1.05
0.99
0.895
0.76
0.605
0.405
0.195
0.0
-0.15
-0.26
-0.35
-0.415
-0.48
-0.505
-0.515
-0.535
-0.55
-0.57
-0.605
-0.625
-0.635
-0.63
-0.635
-0.635
-0.66
-0.665
-0.66
-0.65
-0.66
-0.68
-0.695
-0.72
-0.725
-0.72
-0.72
-0.735
-0.755
-0.765
-0.775
-0.74
-0.745
-0.745
-0.765
-0.765
-0.765
-0.765
-0.77
-0.785
-0.8
-0.82
-0.83
-0.8
-0.8
-0.81
-0.815
-0.82
-0.81
-0.805
-0.79
-0.8
-0.815
-0.81
-0.805
-0.8
-0.795
-0.79
-0.8
-0.8
-0.79
-0.77
-0.755
-0.75
-0.74
-0.73
-0.695
-0.66
-0.63
-0.62
-0.615
-0.6
-0.585
-0.56
-0.525
-0.5
-0.485
-0.475
-0.445
-0.415
-0.385
-0.375
-0.38
-0.36
-0.34
-0.33
-0.32
-0.33
-0.35
-0.34
-0.365
-0.35
-0.345
-0.35
-0.36
-0.365
-0.365
-0.35
-0.35
-0.35
-0.375
-0.38
-0.365
-0.35
-0.34
-0.365
-0.39
-0.39
-0.385
-0.375
-0.38
-0.385
-0.41
-0.405
-0.41
-0.375
-0.365
-0.365
-0.385
-0.385
-0.37
-0.38
-0.37
-0.385
-0.385
-0.39
-0.385
-0.375
-0.355
-0.355
-0.365
-0.375
-0.375
-0.345
-0.33
-0.335
-0.35
-0.365
-0.365
-0.335
-0.33
-0.345
-0.36
-0.365
-0.365
-0.335
-0.32
-0.33
-0.33
-0.345
-0.335
-0.335
-0.32
-0.325
-0.335
-0.35
-0.355
-0.34
-0.325
-0.325
-0.335
-0.34
-0.34
-0.31
-0.3
-0.3
-0.315
-0.325
-0.325
-0.31
-0.305
-0.325
-0.335
-0.34
-0.33
-0.32
-0.325
-0.305
-0.33
-0.335
-0.325
-0.31
-0.29
-0.305
-0.31
-0.31
-0.315
-0.32
-0.305
-0.31
-0.32
-0.325
-0.315
-0.305
-0.295
-0.3
-0.31
-0.31
-0.315
-0.295
-0.29
-0.29
-0.325
-0.33
-0.335
-0.315
-0.31
-0.33
-0.33
-0.325
-0.33
-0.3
-0.305
-0.285
-0.285
-0.295
-0.275
-0.26
-0.26
-0.24
-0.26
-0.265
-0.26
-0.24
-0.215
-0.22
-0.22
-0.225
-0.215
-0.205
-0.185
-0.185
-0.195
-0.21
-0.215
-0.22
-0.23
-0.24
-0.25
-0.26
-0.265
-0.255
-0.27
-0.28
-0.305
-0.325
-0.305
-0.295
-0.305
-0.315
-0.33
-0.34
-0.325
-0.32
-0.315
-0.31
-0.345
-0.345
-0.335
-0.315
-0.305
-0.315
-0.32
-0.33
-0.325
-0.33
-0.325
-0.34
-0.33
-0.325
-0.31
-0.295
-0.31
-0.335
-0.365
-0.32
-0.225
-0.085
0.095
0.295
0.525
0.8
1.065
1.32
1.445
1.34
1.025
0.66
0.295
-0.045
-0.23
-0.305
-0.33
-0.33
-0.325
-0.315
-0.295
-0.275
-0.295
-0.3
-0.31
-0.305
-0.315
-0.295
-0.32
-0.33
-0.31
-0.295
-0.28
-0.3
-0.3
-0.31
-0.3
-0.3
-0.305
-0.295
-0.305
-0.31
-0.31
-0.305
-0.27
-0.28
-0.28
-0.275
-0.265
-0.245
-0.235
-0.25
-0.255
-0.28
-0.27
-0.25
-0.245
-0.245
-0.245
-0.255
-0.23
-0.21
-0.2
-0.195
-0.2
-0.2
-0.2
-0.17
-0.15
-0.15
-0.155
-0.16
-0.145
-0.115
-0.1
-0.085
-0.085
-0.06
-0.03
0.005
0.025
0.03
0.02
0.025
0.035
0.075
0.115
0.135
0.115
0.115
0.16
0.18
0.2
0.215
0.22
0.22
0.23
0.245
0.245
0.215
0.195
0.16
0.16
0.16
0.145
0.115
0.085
0.05
0.035
0.015
-0.005
-0.03
-0.065
-0.11
-0.13
-0.14
-0.16
-0.195
-0.21
-0.245
-0.245
-0.245
-0.235
-0.26
-0.27
-0.28
-0.275
-0.275
-0.275
-0.29
-0.31
-0.31
-0.305
-0.305
-0.295
-0.295
-0.32
-0.32
-0.325
-0.31
-0.29
-0.29
-0.295
-0.305
-0.3
-0.29
-0.285
-0.29
-0.315
-0.32
-0.315
-0.3
-0.29
-0.285
-0.3
-0.3
-0.3
-0.275
-0.27
-0.27
-0.29
-0.305
-0.3
-0.29
-0.3
-0.295
-0.31
-0.31
-0.3
-0.28
-0.285
-0.29
-0.3
-0.31
-0.29
-0.265
-0.25
-0.26
-0.275
-0.305
-0.31
-0.275
-0.265
-0.26
-0.275
-0.295
-0.27
-0.235
-0.215
-0.205
-0.21
-0.205
-0.185
-0.17
-0.16
-0.15
-0.185
-0.205
-0.19
-0.205
-0.2
-0.195
-0.21
-0.23
-0.24
-0.23
-0.225
-0.225
-0.25
-0.29
-0.285
-0.28
-0.285
-0.29
-0.31
-0.325
-0.325
-0.32
-0.305
-0.305
-0.32
-0.33
-0.335
-0.325
-0.3
-0.31
-0.32
-0.32
-0.325
-0.315
-0.305
-0.295
-0.315
-0.315
-0.305
-0.295
-0.285
-0.28
-0.295
-0.305
-0.31
-0.32
-0.32
-0.31
-0.28
-0.205
-0.1
0.045
0.24
0.475
0.75
1.025
1.295
1.5
1.54
1.34
0.97
0.58
0.22
-0.06
-0.2
-0.255
-0.29
-0.31
-0.315
-0.29
-0.26
-0.235
-0.26
-0.28
-0.305
-0.29
-0.28
-0.285
-0.29
-0.32
-0.315
-0.31
-0.29
-0.295
-0.305
-0.305
-0.285
-0.285
-0.27
-0.27
-0.295
-0.305
-0.3
-0.285
-0.27
-0.275
-0.285
-0.28
-0.275
-0.245
-0.23
-0.225
-0.24
-0.245
-0.245
-0.24
-0.215
-0.22
-0.235
-0.235
-0.22
-0.19
-0.18
-0.18
-0.165
-0.16
-0.145
-0.13
-0.125
-0.115
-0.12
-0.115
-0.105
-0.085
-0.045
-0.03
-0.03
-0.02
0.005
0.04
0.055
0.09
0.095
0.125
0.135
0.16
0.185
0.2
0.175
0.19
0.205
0.225
0.245
0.225
0.215
0.22
0.215
0.205
0.2
0.18
0.135
0.085
0.04
0.035
0.005
-0.03
-0.065
-0.115
-0.13
-0.13
-0.145
-0.165
-0.195
-0.22
-0.23
-0.24
-0.225
-0.26
-0.265
-0.3
-0.31
-0.295
-0.285
-0.27
-0.28
-0.315
-0.295
-0.285
-0.27
-0.27
-0.315
-0.32
-0.32
-0.305
-0.305
-0.305
-0.31
-0.335
-0.315
-0.3
-0.3
-0.285
-0.295
-0.305
-0.295
-0.285
-0.265
-0.275
-0.295
-0.305
-0.3
-0.285
-0.27
-0.29
-0.29
-0.3
-0.29
-0.285
-0.275
-0.27
-0.275
-0.29
-0.285
-0.27
-0.275
-0.28
-0.295
-0.295
-0.295
-0.275
-0.27
-0.27
-0.275
-0.275
-0.29
-0.255
-0.24
-0.245
-0.25
-0.265
-0.25
-0.22
-0.195
-0.205
-0.205
-0.185
-0.16
-0.135
-0.095
-0.06
-0.05
-0.01
0.025
0.055
0.11
0.15
0.19
0.245
0.31
0.395
0.48
0.535
0.555
0.58
0.645
0.72
0.805
0.865
0.905
0.94
0.99
1.085
1.18
1.21
1.185
1.14
1.085
1.055
1.05
1.02
0.99
0.985
0.99
1.0
0.995
0.97
0.95
0.935
0.945
0.97
0.975
0.935
0.82
0.67
0.48
0.265
0.04
-0.155
-0.32
-0.425
-0.485
-0.51
-0.515
-0.52
-0.555
-0.59
-0.6
-0.6
-0.605
-0.61
-0.63
-0.64
-0.655
-0.66
-0.67
-0.66
-0.675
-0.7
-0.7
-0.69
-0.68
-0.68
-0.7
-0.715
-0.72
-0.72
-0.71
-0.725
-0.745
-0.755
-0.785
-0.765
-0.765
-0.77
-0.775
-0.795
-0.795
-0.785
-0.78
-0.77
-0.795
-0.81
-0.815
-0.795
-0.79
-0.8
-0.81
-0.81
-0.8
-0.79
-0.77
-0.76
-0.77
-0.775
-0.755
-0.735
-0.7
-0.7
-0.695
-0.69
-0.665
-0.635
-0.595
-0.57
-0.54
-0.525
-0.5
-0.455
-0.42
-0.385
-0.375
-0.37
-0.345
-0.32
-0.305
-0.295
-0.31
-0.315
-0.305
-0.29
-0.29
-0.285
-0.305
-0.305
-0.31
-0.31
-0.305
-0.32
-0.345
-0.355
-0.36
-0.36
-0.335
-0.34
-0.36
-0.355
-0.355
-0.345
-0.345
-0.345
-0.375
-0.375
-0.38
-0.37
-0.345
-0.35
-0.365
-0.38
-0.37
-0.36
-0.345
-0.34
-0.36
-0.37
-0.35
-0.345
-0.345
-0.335
-0.355
-0.36
-0.38
-0.37
-0.345
-0.345
-0.35
-0.365
-0.35
-0.33
-0.315
-0.325
-0.335
-0.335
-0.335
-0.31
-0.3
-0.3
-0.315
-0.325
-0.325
-0.305
-0.3
-0.3
-0.31
-0.315
-0.31
-0.3
-0.3
-0.3
-0.315
-0.32
-0.315
-0.32
-0.315
-0.31
-0.32
-0.32
-0.32
-0.3
-0.29
-0.28
-0.295
-0.315
-0.315
-0.305
-0.295
-0.295
-0.295
-0.3
-0.29
-0.28
-0.27
-0.265
-0.28
-0.3
-0.31
-0.3
-0.29
-0.285
-0.3
-0.315
-0.31
-0.3
-0.29
-0.275
-0.28
-0.27
-0.265
-0.255
-0.23
-0.225
-0.235
-0.23
-0.215
-0.2
-0.18
-0.19
-0.19
-0.195
-0.19
-0.18
-0.16
-0.165
-0.185
-0.215
-0.235
-0.235
-0.225
-0.22
-0.235
-0.245
-0.245
-0.23
-0.24
-0.24
-0.27
-0.305
-0.29
-0.29
-0.285
-0.29
-0.31
-0.34
-0.32
-0.315
-0.3
-0.305
-0.31
-0.325
-0.32
-0.315
-0.295
-0.305
-0.315
-0.31
-0.315
-0.3
-0.3
-0.29
-0.315
-0.32
-0.31
-0.3
-0.275
-0.275
-0.305
-0.32
-0.305
-0.225
-0.11
0.015
0.15
0.36
0.595
0.84
1.1
1.335
1.435
1.345
1.09
0.765
0.43
0.135
-0.085
-0.225
-0.27
-0.29
-0.295
-0.305
-0.31
-0.31
-0.29
-0.27
-0.27
-0.275
-0.31
-0.32
-0.32
-0.31
-0.295
-0.305
-0.325
-0.33
-0.33
-0.33
-0.305
-0.29
-0.315
-0.33
-0.33
-0.305
-0.295
-0.3
-0.295
-0.31
-0.295
-0.275
-0.27
-0.275
-0.29
-0.31
-0.3
-0.295
-0.265
-0.265
-0.275
-0.265
-0.25
-0.225
-0.21
-0.22
-0.24
-0.245
-0.23
-0.215
-0.195
-0.195
-0.205
-0.2
-0.19
-0.17
-0.14
-0.11
-0.12
-0.11
-0.105
-0.075
-0.035
-0.015
-0.02
-0.025
-0.02
0.005
0.04
0.065
0.07
0.08
0.095
0.12
0.155
0.17
0.155
0.155
0.165
0.205
0.205
0.215
0.205
0.195
0.17
0.155
0.17
0.14
0.12
0.065
0.065
0.045
0.045
0.025
-0.025
-0.065
-0.095
-0.11
-0.135
-0.16
-0.19
-0.24
-0.25
-0.245
-0.235
-0.255
-0.285
-0.3
-0.31
-0.315
-0.315
-0.31
-0.335
-0.355
-0.36
-0.355
-0.355
-0.345
-0.365
-0.36
-0.355
-0.35
-0.33
-0.335
-0.345
-0.355
-0.35
-0.345
-0.345
-0.335
-0.355
-0.38
-0.36
-0.34
-0.32
-0.31
-0.325
-0.345
-0.36
-0.345
-0.325
-0.32
-0.34
-0.355
-0.36
-0.34
-0.32
-0.325
-0.34
-0.345
-0.37
-0.35
-0.34
-0.315
-0.325
-0.34
-0.325
-0.33
-0.325
-0.32
-0.33
-0.355
-0.35
-0.325
-0.295
-0.29
-0.29
-0.29
-0.285
-0.28
-0.24
-0.235
-0.245
-0.27
-0.25
-0.235
-0.215
-0.235
-0.255
-0.24
-0.245
-0.225
-0.22
-0.225
-0.235
-0.265
-0.275
-0.275
-0.275
-0.29
-0.325
-0.345
-0.36
-0.34
-0.33
-0.325
-0.345
-0.345
-0.35
-0.345
-0.345
-0.345
-0.365
-0.38
-0.38
-0.37
-0.365
-0.365
-0.39
-0.39
-0.39
-0.365
-0.36
-0.36
-0.38
-0.38
-0.365
-0.365
-0.365
-0.345
-0.36
-0.375
-0.375
-0.385
-0.39
-0.385
-0.35
-0.27
-0.135
0.025
0.26
0.5
0.745
1.01
1.25
1.43
1.415
1.185
0.825
0.425
0.04
-0.225
-0.345
-0.37
-0.37
-0.37
-0.37
-0.32
-0.31
-0.32
-0.35
-0.385
-0.39
-0.375
-0.365
-0.345
-0.365
-0.375
-0.375
-0.37
-0.345
-0.345
-0.35
-0.37
-0.365
-0.355
-0.345
-0.34
-0.335
-0.34
-0.33
-0.33
-0.31
-0.29
-0.31
-0.32
-0.32
-0.3
-0.285
-0.285
-0.29
-0.3
-0.305
-0.285
-0.25
-0.23
-0.25
-0.245
-0.24
-0.22
-0.205
-0.195
-0.2
-0.2
-0.19
-0.175
-0.14
-0.135
-0.12
-0.125
-0.09
-0.065
-0.025
-0.01
-0.015
-0.01
0.005
0.045
0.075
0.1
0.095
0.075
0.095
0.12
0.14
0.165
0.15
0.135
0.14
0.125
0.135
0.115
0.075
0.015
-0.02
-0.04
-0.045
-0.07
-0.105
-0.15
-0.18
-0.2
-0.215
-0.235
-0.275
-0.31
-0.33
-0.345
-0.32
-0.33
-0.345
-0.365
-0.375
-0.365
-0.36
-0.36
-0.38
-0.385
-0.395
-0.39
-0.375
-0.385
-0.39
-0.41
-0.395
-0.375
-0.37
-0.365
-0.38
-0.39
-0.39
-0.38
-0.375
-0.36
-0.38
-0.4
-0.395
-0.38
-0.37
-0.365
-0.375
-0.37
-0.365
-0.375
-0.345
-0.345
-0.37
-0.38
-0.365
-0.36
-0.355
-0.355
-0.37
-0.375
-0.375
-0.36
-0.34
-0.335
-0.345
-0.345
-0.36
-0.33
-0.335
-0.33
-0.34
-0.355
-0.335
-0.31
-0.275
-0.26
-0.275
-0.275
-0.28
-0.265
-0.225
-0.21
-0.2
-0.205
-0.215
-0.21
-0.195
-0.175
-0.135
-0.1
-0.075
-0.015
0.04
0.09
0.135
0.195
0.24
0.32
0.39
0.43
0.465
0.49
0.555
0.635
0.725
0.815
0.875
0.945
1.03
1.135
1.22
1.25
1.22
1.145
1.11
1.07
1.04
1.01
0.995
0.985
0.975
0.98
0.985
0.975
0.955
0.94
0.955
0.97
0.985
0.955
0.865
0.7
0.51
0.31
0.1
-0.1
-0.28
-0.41
-0.5
-0.555
-0.57
-0.595
-0.62
-0.655
-0.68
-0.68
-0.685
-0.695
-0.71
-0.725
-0.725
-0.735
-0.725
-0.725
-0.74
-0.765
-0.765
-0.76
-0.75
-0.75
-0.79
-0.82
-0.83
-0.825
-0.805
-0.805
-0.825
-0.825
-0.84
-0.83
-0.825
-0.84
-0.85
-0.875
-0.88
-0.875
-0.875
-0.87
-0.9
-0.91
-0.905
-0.895
-0.88
-0.88
-0.895
-0.92
-0.91
-0.9
-0.9
-0.88
-0.88
-0.89
-0.875
-0.85
-0.815
-0.795
-0.78
-0.78
-0.745
-0.72
-0.68
-0.66
-0.635
-0.62
-0.595
-0.56
-0.53
-0.485
-0.475
-0.47
-0.435
-0.395
-0.355
-0.33
-0.34
-0.36
-0.36
-0.335
-0.32
-0.315
-0.33
-0.35
-0.35
-0.345
-0.33
-0.33
-0.37
-0.375
-0.375
-0.36
-0.33
-0.335
-0.36
-0.37
-0.38
-0.365
-0.355
-0.355
-0.37
-0.375
-0.38
-0.36
-0.35
-0.355
-0.365
-0.38
-0.375
-0.37
-0.36
-0.36
-0.375
-0.385
-0.375
-0.365
-0.35
-0.34
-0.36
-0.36
-0.36
-0.365
-0.34
-0.33
-0.33
-0.345
-0.35
-0.34
-0.32
-0.325
-0.335
-0.345
-0.335
-0.305
-0.3
-0.295
-0.3
-0.315
-0.315
-0.3
-0.285
-0.285
-0.3
-0.31
-0.32
-0.305
-0.285
-0.285
-0.29
-0.315
-0.31
-0.3
-0.28
-0.27
-0.29
-0.31
-0.3
-0.29
-0.27
-0.265
-0.275
-0.285
-0.28
-0.265
-0.24
-0.24
-0.26
-0.26
-0.24
-0.205
-0.185
-0.18
-0.175
-0.17
-0.155
-0.115
-0.105
-0.1
-0.125
-0.13
-0.135
-0.135
-0.135
-0.145
-0.175
-0.2
-0.205
-0.205
-0.2
-0.21
-0.225
-0.245
-0.25
-0.255
-0.24
-0.25
-0.27
-0.28
-0.28
-0.27
-0.26
-0.26
-0.265
-0.275
-0.275
-0.255
-0.25
-0.255
-0.265
-0.28
-0.27
-0.26
-0.25
-0.265
-0.26
-0.275
-0.27
-0.255
-0.245
-0.21
-0.155
-0.055
0.105
0.34
0.63
0.9
1.155
1.375
1.515
1.455
1.155
0.77
0.36
0.025
-0.135
-0.195
-0.21
-0.23
-0.28
-0.26
-0.245
-0.225
-0.235
-0.24
-0.275
-0.28
-0.285
-0.27
-0.235
-0.24
-0.245
-0.26
-0.255
-0.245
-0.235
-0.235
-0.25
-0.26
-0.245
-0.235
-0.225
-0.21
-0.215
-0.23
-0.22
-0.215
-0.2
-0.2
-0.21
-0.225
-0.225
-0.2
-0.165
-0.18
-0.195
-0.185
-0.17
-0.16
-0.14
-0.14
-0.145
-0.145
-0.135
-0.115
-0.085
-0.085
-0.085
-0.08
-0.07
-0.035
0.0
0.015
0.025
0.035
0.05
0.085
0.105
0.13
0.13
0.125
0.15
0.18
0.205
0.235
0.25
0.25
0.25
0.275
0.315
0.31
0.3
0.295
0.29
0.28
0.285
0.265
0.235
0.21
0.19
0.165
0.165
0.135
0.095
0.055
0.015
0.0
-0.025
-0.045
-0.075
-0.12
-0.14
-0.16
-0.15
-0.17
-0.19
-0.215
-0.215
-0.22
-0.195
-0.21
-0.23
-0.255
-0.255
-0.24
-0.23
-0.235
-0.265
-0.28
-0.28
-0.25
-0.235
-0.24
-0.25
-0.27
-0.275
-0.255
-0.245
-0.25
-0.27
-0.275
-0.275
-0.27
-0.245
-0.24
-0.25
-0.26
-0.265
-0.25
-0.25
-0.25
-0.265
-0.285
-0.28
-0.27
-0.26
-0.265
-0.255
-0.265
-0.27
-0.265
-0.255
-0.245
-0.26
-0.27
-0.26
-0.225
-0.195
-0.18
-0.175
-0.185
-0.165
-0.14
-0.12
-0.11
-0.115
-0.12
-0.125
-0.135
-0.135
-0.145
-0.175
-0.2
-0.205
-0.195
-0.195
-0.21
-0.25
-0.27
-0.285
-0.3
-0.295
-0.29
-0.315
-0.335
-0.335
-0.315
-0.3
-0.3
-0.32
-0.32
-0.32
-0.305
-0.295
-0.305
-0.325
-0.345
-0.365
-0.345
-0.325
-0.32
-0.31
-0.32
-0.325
-0.32
-0.31
-0.315
-0.335
-0.35
-0.335
-0.265
-0.155
-0.025
0.155
0.395
0.695
0.995
1.27
1.45
1.435
1.21
0.885
0.51
0.145
-0.12
-0.25
-0.31
-0.34
-0.355
-0.355
-0.33
-0.31
-0.31
-0.32
-0.33
-0.325
-0.33
-0.35
-0.365
-0.355
-0.355
-0.345
-0.335
-0.34
-0.36
-0.35
-0.34
-0.315
-0.33
-0.33
-0.34
-0.335
-0.31
-0.295
-0.295
-0.315
-0.33
-0.325
-0.3
-0.285
-0.27
-0.27
-0.285
-0.31
-0.275
-0.26
-0.245
-0.255
-0.27
-0.255
-0.245
-0.225
-0.22
-0.215
-0.215
-0.205
-0.18
-0.155
-0.145
-0.15
-0.16
-0.13
-0.11
-0.085
-0.07
-0.07
-0.07
-0.06
-0.04
0.015
0.035
0.035
0.025
0.055
0.085
0.105
0.135
0.135
0.12
0.12
0.155
0.165
0.16
0.13
0.105
0.09
0.085
0.09
0.055
0.03
-0.005
-0.04
-0.045
-0.07
-0.09
-0.135
-0.185
-0.21
-0.22
-0.23
-0.245
-0.275
-0.305
-0.335
-0.325
-0.33
-0.32
-0.335
-0.36
-0.365
-0.36
-0.355
-0.355
-0.38
-0.385
-0.405
-0.395
-0.365
-0.365
-0.37
-0.395
-0.395
-0.375
-0.355
-0.36
-0.39
-0.395
-0.41
-0.38
-0.38
-0.365
-0.385
-0.4
-0.4
-0.375
-0.365
-0.36
-0.375
-0.395
-0.405
-0.385
-0.38
-0.385
-0.39
-0.405
-0.405
-0.395
-0.37
-0.36
-0.36
-0.37
-0.37
-0.365
-0.38
-0.38
-0.385
-0.375
-0.37
-0.365
-0.335
-0.345
-0.355
-0.38
-0.39
-0.38
-0.35
-0.365
-0.365
-0.35
-0.35
-0.325
-0.305
-0.275
-0.285
-0.305
-0.31
-0.29
-0.24
-0.235
-0.24
-0.255
-0.25
-0.225
-0.21
-0.215
-0.195
-0.17
-0.15
-0.1
-0.045
0.005
0.04
0.075
0.1
0.17
0.225
0.295
0.345
0.395
0.465
0.54
0.64
0.72
0.775
0.815
0.89
0.995
1.11
1.21
1.25
1.235
1.205
1.185
1.17
1.135
1.09
1.04
0.995
0.995
1.01
0.96
0.945
0.92
0.905
0.895
0.945
0.945
0.905
0.835
0.74
0.63
0.48
0.27
0.03
-0.19
-0.34
-0.44
-0.49
-0.55
-0.605
-0.645
-0.675
-0.67
-0.69
-0.705
-0.725
-0.735
-0.755
-0.755
-0.75
-0.765
-0.785
-0.81
-0.825
-0.81
-0.8
-0.81
-0.84
-0.845
-0.86
-0.84
-0.825
-0.845
-0.86
-0.885
-0.91
-0.9
-0.895
-0.91
-0.92
-0.935
-0.945
-0.94
-0.945
-0.94
-0.97
-0.985
-0.985
-0.97
-0.955
-0.96
-0.98
-0.995
-1.01
-1.01
-0.99
-0.985
-0.99
-1.0
-1.02
-0.99
-0.965
-0.95
-0.935
-0.93
-0.93
-0.9
-0.855
-0.83
-0.82
-0.805
-0.78
-0.735
-0.68
-0.67
-0.635
-0.62
-0.585
-0.535
-0.495
-0.465
-0.465
-0.455
-0.44
-0.43
-0.41
-0.415
-0.415
-0.425
-0.4
-0.4
-0.385
-0.39
-0.415
-0.415
-0.425
-0.42
-0.405
-0.405
-0.41
-0.445
-0.44
-0.435
-0.415
-0.415
-0.43
-0.44
-0.44
-0.43
-0.415
-0.41
-0.41
-0.43
-0.44
-0.435
-0.43
-0.44
-0.45
-0.45
-0.445
-0.42
-0.41
-0.405
-0.415
-0.435
-0.435
-0.415
-0.39
-0.395
-0.4
-0.41
-0.415
-0.415
-0.405
-0.395
-0.405
-0.405
-0.405
-0.385
-0.36
-0.365
-0.365
-0.38
-0.39
-0.375
-0.365
-0.37
-0.38
-0.38
-0.385
-0.365
-0.36
-0.37
-0.36
-0.38
-0.365
-0.34
-0.325
-0.315
-0.335
-0.355
-0.355
-0.34
-0.335
-0.34
-0.35
-0.365
-0.36
-0.34
-0.325
-0.32
-0.335
-0.345
-0.345
-0.33
-0.33
-0.33
-0.325
-0.34
-0.32
-0.305
-0.27
-0.275
-0.255
-0.255
-0.255
-0.235
-0.205
-0.195
-0.19
-0.2
-0.19
-0.185
-0.185
-0.195
-0.21
-0.245
-0.255
-0.26
-0.245
-0.265
-0.27
-0.29
-0.31
-0.295
-0.29
-0.29
-0.325
-0.33
-0.335
-0.34
-0.315
-0.315
-0.33
-0.33
-0.33
-0.325
-0.295
-0.29
-0.305
-0.32
-0.315
-0.31
-0.3
-0.29
-0.3
-0.325
-0.315
-0.305
-0.285
-0.285
-0.295
-0.31
-0.315
-0.32
-0.26
-0.21
-0.115
-0.005
0.165
0.375
0.64
0.905
1.145
1.37
1.52
1.51
1.33
1.025
0.695
0.365
0.075
-0.11
-0.205
-0.245
-0.265
-0.285
-0.315
-0.295
-0.265
-0.255
-0.265
-0.285
-0.285
-0.28
-0.27
-0.275
-0.275
-0.31
-0.295
-0.29
-0.265
-0.275
-0.3
-0.29
-0.3
-0.29
-0.275
-0.275
-0.285
-0.29
-0.275
-0.27
-0.275
-0.265
-0.255
-0.265
-0.275
-0.27
-0.23
-0.23
-0.23
-0.245
-0.24
-0.22
-0.215
-0.215
-0.23
-0.225
-0.215
-0.185
-0.18
-0.17
-0.165
-0.16
-0.155
-0.135
-0.11
-0.13
-0.135
-0.125
-0.115
-0.075
-0.05
-0.03
-0.015
-0.005
0.0
0.04
0.06
0.09
0.1
0.095
0.11
0.135
0.18
0.19
0.19
0.19
0.195
0.225
0.255
0.285
0.29
0.28
0.285
0.285
0.305
0.32
0.305
0.28
0.255
0.25
0.24
0.22
0.175
0.135
0.11
0.1
0.075
0.055
0.01
-0.025
-0.065
-0.085
-0.075
-0.1
-0.13
-0.17
-0.18
-0.19
-0.185
-0.19
-0.2
-0.22
-0.23
-0.225
-0.23
-0.215
-0.23
-0.245
-0.245
-0.245
-0.245
-0.25
-0.265
-0.275
-0.28
-0.255
-0.24
-0.23
-0.245
-0.26
-0.245
-0.235
-0.235
-0.24
-0.24
-0.26
-0.26
-0.26
-0.24
-0.235
-0.245
-0.26
-0.26
-0.245
-0.215
-0.215
-0.22
-0.235
-0.24
-0.235
-0.22
-0.22
-0.24
-0.26
-0.245
-0.24
-0.225
-0.225
-0.23
-0.23
-0.235
-0.22
-0.225
-0.21
-0.22
-0.25
-0.235
-0.22
-0.21
-0.2
-0.19
-0.19
-0.205
-0.165
-0.135
-0.11
-0.11
-0.12
-0.105
-0.095
-0.065
-0.06
-0.065
-0.08
-0.085
-0.09
-0.09
-0.09
-0.12
-0.135
-0.145
-0.16
-0.155
-0.175
-0.175
-0.195
-0.21
-0.21
-0.205
-0.215
-0.245
-0.26
-0.285
-0.255
-0.235
-0.225
-0.24
-0.25
-0.265
-0.245
-0.235
-0.245
-0.24
-0.25
-0.255
-0.255
-0.24
-0.24
-0.225
-0.24
-0.225
-0.215
-0.21
-0.21
-0.24
-0.255
-0.26
-0.24
-0.16
-0.075
0.0
0.135
0.315
0.52
0.795
1.06
1.29
1.49
1.54
1.38
1.09
0.755
0.415
0.125
-0.065
-0.135
-0.165
-0.2
-0.255
-0.26
-0.24
-0.205
-0.195
-0.205
-0.21
-0.235
-0.25
-0.245
-0.22
-0.225
-0.235
-0.255
-0.255
-0.245
-0.225
-0.215
-0.235
-0.24
-0.23
-0.215
-0.21
-0.205
-0.215
-0.22
-0.205
-0.195
-0.18
-0.18
-0.195
-0.205
-0.205
-0.2
-0.175
-0.175
-0.175
-0.175
-0.17
-0.165
-0.155
-0.14
-0.15
-0.165
-0.14
-0.13
-0.105
-0.1
-0.11
-0.125
-0.115
-0.09
-0.065
-0.04
-0.045
-0.04
-0.03
-0.005
0.02
0.04
0.04
0.055
0.06
0.09
0.095
0.12
0.13
0.15
0.15
0.185
0.225
0.225
0.245
0.24
0.255
0.275
0.285
0.305
0.29
0.285
0.29
0.295
0.295
0.275
0.255
0.225
0.21
0.215
0.195
0.17
0.13
0.085
0.05
0.045
0.015
0.0
-0.04
-0.07
-0.11
-0.11
-0.11
-0.115
-0.14
-0.17
-0.18
-0.17
-0.185
-0.185
-0.215
-0.22
-0.225
-0.21
-0.21
-0.205
-0.21
-0.23
-0.245
-0.235
-0.225
-0.225
-0.23
-0.24
-0.24
-0.235
-0.22
-0.225
-0.24
-0.25
-0.25
-0.24
-0.235
-0.23
-0.225
-0.245
-0.25
-0.24
-0.215
-0.22
-0.225
-0.23
-0.24
-0.235
-0.225
-0.24
-0.25
-0.255
-0.27
-0.235
-0.22
-0.215
-0.22
-0.235
-0.24
-0.23
-0.22
-0.24
-0.225
-0.26
-0.26
-0.24
-0.23
-0.215
-0.225
-0.235
-0.23
-0.225
-0.21
-0.2
-0.21
-0.22
-0.205
-0.195
-0.175
-0.165
-0.155
-0.155
-0.155
-0.13
-0.115
-0.09
-0.095
-0.085
-0.075
-0.045
-0.015
0.01
0.03
0.035
0.06
0.115
0.175
0.22
0.245
0.285
0.34
0.4
0.455
0.51
0.555
0.575
0.6
0.665
0.755
0.825
0.87
0.915
0.97
1.045
1.155
1.225
1.23
1.185
1.12
1.085
1.09
1.08
1.045
1.01
1.005
1.035
1.03
1.015
1.0
0.97
0.945
0.96
0.99
0.98
0.91
0.81
0.67
0.48
0.275
0.065
-0.15
-0.305
-0.405
-0.485
-0.52
-0.54
-0.55
-0.585
-0.595
-0.605
-0.605
-0.615
-0.63
-0.655
-0.66
-0.67
-0.665
-0.67
-0.705
-0.72
-0.74
-0.735
-0.735
-0.72
-0.74
-0.76
-0.78
-0.77
-0.765
-0.75
-0.77
-0.78
-0.795
-0.815
-0.795
-0.805
-0.82
-0.83
-0.835
-0.845
-0.81
-0.825
-0.835
-0.85
-0.86
-0.85
-0.84
-0.845
-0.84
-0.865
-0.865
-0.84
-0.81
-0.815
-0.82
-0.835
-0.825
-0.81
-0.76
-0.74
-0.725
-0.725
-0.72
-0.675
-0.64
-0.6
-0.57
-0.57
-0.545
-0.515
-0.47
-0.435
-0.415
-0.415
-0.41
-0.39
-0.355
-0.35
-0.35
-0.36
-0.365
-0.36
-0.345
-0.345
-0.345
-0.355
-0.37
-0.365
-0.36
-0.36
-0.365
-0.38
-0.4
-0.405
-0.39
-0.39
-0.4
-0.42
-0.415
-0.415
-0.38
-0.395
-0.385
-0.415
-0.42
-0.425
-0.405
-0.405
-0.425
-0.445
-0.435
-0.41
-0.38
-0.39
-0.4
-0.425
-0.425
-0.42
-0.405
-0.39
-0.4
-0.405
-0.42
-0.415
-0.405
-0.4
-0.395
-0.39
-0.385
-0.395
-0.385
-0.375
-0.395
-0.4
-0.38
-0.38
-0.365
-0.375
-0.375
-0.38
-0.385
-0.38
-0.36
-0.36
-0.365
-0.39
-0.385
-0.375
-0.36
-0.35
-0.365
-0.375
-0.385
-0.38
-0.365
-0.345
-0.36
-0.365
-0.375
-0.36
-0.345
-0.34
-0.35
-0.375
-0.375
-0.36
-0.335
-0.33
-0.35
-0.37
-0.37
-0.355
-0.325
-0.31
-0.285
-0.295
-0.29
-0.27
-0.24
-0.24
-0.245
-0.245
-0.23
-0.22
-0.2
-0.2
-0.21
-0.225
-0.245
-0.25
-0.25
-0.265
-0.285
-0.32
-0.345
-0.365
-0.33
-0.35
-0.355
-0.375
-0.39
-0.39
-0.355
-0.34
-0.345
-0.365
-0.38
-0.365
-0.345
-0.355
-0.375
-0.385
-0.395
-0.415
-0.38
-0.375
-0.37
-0.37
-0.36
-0.355
-0.355
-0.345
-0.345
-0.36
-0.385
-0.39
-0.385
-0.375
-0.335
-0.25
-0.11
0.09
0.34
0.64
0.895
1.125
1.32
1.44
1.35
