Lead II
-0.05
-0.07
-0.095
-0.105
-0.08
-0.05
-0.06
-0.09
-0.1
-0.115
-0.105
-0.085
-0.075
-0.08
-0.085
-0.11
-0.11
-0.09
-0.085
-0.105
-0.12
-0.1
-0.1
-0.115
-0.1
-0.1
-0.12
-0.135
-0.13
-0.125
-0.095
-0.115
-0.145
-0.135
-0.12
-0.115
-0.125
-0.12
-0.135
-0.16
-0.13
-0.09
-0.095
-0.115
-0.135
-0.135
-0.11
-0.095
-0.075
-0.085
-0.085
-0.08
-0.08
-0.075
-0.085
-0.09
-0.1
-0.11
-0.095
-0.07
-0.075
-0.085
-0.105
-0.11
-0.085
-0.05
-0.07
-0.13
-0.155
-0.145
-0.09
-0.055
-0.075
-0.085
-0.095
-0.1
-0.085
-0.07
-0.075
-0.105
-0.115
-0.11
-0.09
-0.085
-0.095
-0.1
-0.145
-0.105
-0.105
-0.08
-0.08
-0.09
-0.125
-0.115
-0.1
-0.075
-0.065
-0.08
-0.075
-0.08
-0.065
-0.04
-0.035
-0.06
-0.075
-0.075
-0.065
-0.065
-0.055
-0.07
-0.085
-0.085
-0.065
-0.055
-0.055
-0.05
-0.065
-0.065
-0.065
-0.05
-0.04
-0.05
-0.055
-0.055
-0.06
-0.04
-0.03
-0.04
-0.05
-0.05
-0.03
-0.03
-0.035
-0.035
-0.04
0.015
0.08
0.155
0.25
0.355
0.49
0.69
0.905
1.145
1.355
1.515
1.58
1.535
1.36
1.115
0.81
0.495
0.18
-0.08
-0.19
-0.18
-0.13
-0.085
-0.07
-0.05
-0.06
-0.08
-0.115
-0.13
-0.165
-0.175
-0.16
-0.155
-0.18
-0.185
-0.205
-0.2
-0.19
-0.195
-0.21
-0.21
-0.2
-0.21
-0.21
-0.185
-0.185
-0.195
-0.205
-0.19
-0.185
-0.18
-0.19
-0.225
-0.24
-0.24
-0.235
-0.2
-0.19
-0.185
-0.175
-0.175
-0.165
-0.155
-0.145
-0.16
-0.17
-0.175
-0.165
-0.145
-0.155
-0.16
-0.17
-0.18
-0.16
-0.14
-0.125
-0.135
-0.15
-0.15
-0.135
-0.13
-0.13
-0.135
-0.15
-0.14
-0.135
-0.105
-0.13
-0.13
-0.12
-0.115
-0.1
-0.055
-0.055
-0.08
-0.095
-0.08
-0.05
-0.035
-0.03
-0.035
-0.055
-0.045
-0.015
-0.005
-0.005
-0.015
-0.035
-0.015
0.005
0.01
0.02
0.005
-0.005
-0.005
-0.005
0.035
0.04
0.04
0.02
0.0
0.01
0.025
0.02
0.0
-0.02
-0.045
-0.015
-0.025
-0.03
-0.035
-0.06
-0.065
-0.07
-0.085
-0.08
-0.095
-0.1
-0.115
-0.095
-0.075
-0.085
-0.1
-0.105
-0.11
-0.1
-0.1
-0.105
-0.105
-0.1
-0.095
-0.065
-0.05
-0.075
-0.085
-0.08
-0.105
-0.105
-0.105
-0.11
-0.095
-0.105
-0.1
-0.075
-0.07
-0.075
-0.085
-0.11
-0.115
-0.125
-0.1
-0.095
-0.11
-0.12
-0.135
-0.13
-0.1
-0.115
-0.125
-0.135
-0.135
-0.125
-0.13
-0.11
-0.125
-0.145
-0.135
-0.13
-0.115
-0.125
-0.145
-0.14
-0.15
-0.135
-0.145
-0.13
-0.15
-0.165
-0.155
-0.155
-0.14
-0.15
-0.165
-0.17
-0.165
-0.15
-0.135
-0.145
-0.15
-0.155
-0.16
-0.165
-0.14
-0.15
-0.155
-0.16
-0.165
-0.16
-0.15
-0.175
-0.18
-0.18
-0.19
-0.18
-0.175
-0.165
-0.17
-0.19
-0.185
-0.17
-0.175
-0.165
-0.17
-0.185
-0.19
-0.17
-0.155
-0.165
-0.17
-0.17
-0.185
-0.165
-0.145
-0.155
-0.17
-0.18
-0.16
-0.14
-0.135
-0.16
-0.155
-0.155
-0.155
-0.14
-0.125
-0.135
-0.165
-0.14
-0.105
-0.06
-0.01
0.03
0.08
0.16
0.275
0.425
0.58
0.715
0.855
0.975
1.025
1.01
0.925
0.78
0.58
0.38
0.15
-0.04
-0.18
-0.255
-0.26
-0.245
-0.22
-0.185
-0.16
-0.17
-0.185
-0.2
-0.215
-0.2
-0.2
-0.22
-0.225
-0.245
-0.24
-0.245
-0.235
-0.22
-0.24
-0.25
-0.245
-0.245
-0.225
-0.23
-0.24
-0.245
-0.25
-0.225
-0.205
-0.205
-0.215
-0.235
-0.235
-0.215
-0.215
-0.225
-0.235
-0.25
-0.235
-0.21
-0.205
-0.2
-0.215
-0.215
-0.225
-0.215
-0.21
-0.205
-0.225
-0.22
-0.225
-0.205
-0.2
-0.19
-0.195
-0.21
-0.2
-0.195
-0.175
-0.18
-0.18
-0.2
-0.185
-0.17
-0.145
-0.155
-0.175
-0.16
-0.145
-0.125
-0.115
-0.1
-0.11
-0.115
-0.12
-0.085
-0.08
-0.085
-0.08
-0.09
-0.09
-0.05
-0.03
-0.03
-0.03
-0.03
-0.015
-0.005
-0.01
-0.005
-0.005
0.01
0.005
0.01
0.02
0.035
0.03
0.01
0.025
0.03
0.04
0.03
0.015
0.015
0.025
0.03
0.035
0.035
-0.005
-0.025
-0.03
-0.03
-0.025
-0.015
-0.045
-0.055
-0.075
-0.07
-0.075
-0.09
-0.105
-0.13
-0.125
-0.12
-0.1
-0.11
-0.135
-0.15
-0.145
-0.13
-0.12
-0.145
-0.145
-0.15
-0.15
-0.135
-0.105
-0.115
-0.115
-0.125
-0.12
-0.11
-0.085
-0.105
-0.11
-0.115
-0.095
-0.075
-0.075
-0.07
-0.09
-0.1
-0.105
-0.09
-0.075
-0.07
-0.1
-0.13
-0.135
-0.125
-0.1
-0.1
-0.09
-0.105
-0.1
-0.09
-0.085
-0.08
-0.09
-0.095
-0.095
-0.08
-0.075
-0.095
-0.105
-0.12
-0.12
-0.1
-0.09
-0.09
-0.11
-0.105
-0.095
-0.09
-0.075
-0.085
-0.1
-0.115
-0.115
-0.085
-0.085
-0.09
-0.11
-0.12
-0.1
-0.095
-0.085
-0.085
-0.1
-0.115
-0.135
-0.12
-0.135
-0.125
-0.13
-0.14
-0.145
-0.14
-0.13
-0.13
-0.14
-0.16
-0.15
-0.155
-0.14
-0.145
-0.18
-0.19
-0.17
-0.155
-0.135
-0.14
-0.145
-0.16
-0.16
-0.15
-0.135
-0.135
-0.14
-0.17
-0.145
-0.14
-0.13
-0.135
-0.16
-0.18
-0.175
-0.145
-0.125
-0.115
-0.125
-0.135
-0.125
-0.115
-0.105
-0.12
-0.12
-0.15
-0.135
-0.12
-0.125
-0.135
-0.135
-0.145
-0.14
-0.14
-0.125
-0.125
-0.13
-0.13
-0.12
-0.11
-0.07
-0.07
-0.085
-0.09
-0.06
-0.005
0.065
0.155
0.235
0.36
0.535
0.73
0.925
1.12
1.31
1.445
1.53
1.48
1.28
0.98
0.665
0.36
0.06
-0.175
-0.26
-0.26
-0.225
-0.195
-0.16
-0.115
-0.1
-0.125
-0.16
-0.195
-0.22
-0.21
-0.215
-0.24
-0.235
-0.25
-0.26
-0.245
-0.235
-0.235
-0.255
-0.27
-0.275
-0.275
-0.27
-0.275
-0.27
-0.27
-0.285
-0.27
-0.26
-0.25
-0.255
-0.25
-0.25
-0.24
-0.245
-0.25
-0.25
-0.27
-0.26
-0.265
-0.23
-0.22
-0.245
-0.24
-0.245
-0.22
-0.24
-0.24
-0.26
-0.27
-0.265
-0.26
-0.24
-0.245
-0.26
-0.285
-0.275
-0.255
-0.225
-0.23
-0.23
-0.23
-0.22
-0.19
-0.18
-0.2
-0.2
-0.205
-0.195
-0.175
-0.15
-0.135
-0.15
-0.165
-0.155
-0.155
-0.13
-0.12
-0.12
-0.13
-0.12
-0.105
-0.09
-0.075
-0.095
-0.085
-0.07
-0.065
-0.04
-0.03
-0.045
-0.055
-0.06
-0.045
-0.025
-0.03
-0.05
-0.055
-0.055
-0.05
-0.055
-0.065
-0.085
-0.11
-0.105
-0.105
-0.11
-0.09
-0.105
-0.125
-0.145
-0.16
-0.14
-0.145
-0.17
-0.165
-0.16
-0.16
-0.16
-0.17
-0.195
-0.18
-0.18
-0.17
-0.185
-0.18
-0.165
-0.165
-0.175
-0.185
-0.175
-0.155
-0.145
-0.155
-0.165
-0.145
-0.125
-0.14
-0.16
-0.17
-0.175
-0.16
-0.14
-0.145
-0.155
-0.19
-0.2
-0.19
-0.17
-0.175
-0.2
-0.21
-0.2
-0.195
-0.195
-0.18
-0.195
-0.21
-0.21
-0.175
-0.145
-0.155
-0.18
-0.19
-0.185
-0.18
-0.16
-0.165
-0.185
-0.19
-0.195
-0.18
-0.175
-0.175
-0.18
-0.19
-0.2
-0.185
-0.155
-0.155
-0.185
-0.2
-0.22
-0.2
-0.17
-0.17
-0.185
-0.205
-0.2
-0.195
-0.19
-0.19
-0.205
-0.215
-0.215
-0.19
-0.19
-0.195
-0.2
-0.215
-0.21
-0.195
-0.185
-0.18
-0.195
-0.22
-0.205
-0.205
-0.175
-0.185
-0.21
-0.225
-0.25
-0.225
-0.205
-0.195
-0.2
-0.22
-0.205
-0.195
-0.185
-0.185
-0.205
-0.22
-0.22
-0.215
-0.2
-0.2
-0.215
-0.245
-0.24
-0.215
-0.195
-0.19
-0.205
-0.215
-0.215
-0.21
-0.21
-0.215
-0.22
-0.22
-0.215
-0.225
-0.215
-0.22
-0.235
-0.25
-0.23
-0.22
-0.19
-0.18
-0.19
-0.205
-0.195
-0.17
-0.17
-0.19
-0.195
-0.22
-0.2
-0.19
-0.17
-0.18
-0.19
-0.21
-0.21
-0.2
-0.17
-0.17
-0.18
-0.19
-0.185
-0.18
-0.175
-0.17
-0.195
-0.2
-0.18
-0.18
-0.165
-0.175
-0.19
-0.2
-0.2
-0.205
-0.18
-0.16
-0.18
-0.2
-0.19
-0.18
-0.165
-0.17
-0.155
-0.13
-0.075
-0.03
0.08
0.18
0.295
0.435
0.63
0.835
1.04
1.23
1.385
1.47
1.46
1.34
1.115
0.82
0.505
0.195
-0.065
-0.225
-0.265
-0.24
-0.2
-0.17
-0.16
-0.145
-0.145
-0.165
-0.2
-0.24
-0.24
-0.24
-0.23
-0.245
-0.27
-0.29
-0.295
-0.275
-0.255
-0.265
-0.28
-0.31
-0.3
-0.3
-0.31
-0.29
-0.315
-0.32
-0.32
-0.315
-0.295
-0.3
-0.315
-0.335
-0.355
-0.335
-0.33
-0.33
-0.345
-0.36
-0.355
-0.365
-0.34
-0.335
-0.34
-0.365
-0.375
-0.335
-0.32
-0.33
-0.34
-0.355
-0.36
-0.325
-0.31
-0.285
-0.28
-0.295
-0.265
-0.25
-0.235
-0.235
-0.23
-0.24
-0.235
-0.21
-0.195
-0.195
-0.195
-0.2
-0.195
-0.2
-0.185
-0.18
-0.19
-0.185
-0.19
-0.18
-0.155
-0.165
-0.175
-0.195
-0.19
-0.165
-0.16
-0.165
-0.165
-0.18
-0.185
-0.17
-0.165
-0.175
-0.185
-0.195
-0.19
-0.18
-0.175
-0.165
-0.17
-0.18
-0.18
-0.175
-0.155
-0.18
-0.175
-0.2
-0.19
-0.19
-0.185
-0.22
-0.215
-0.235
-0.22
-0.21
-0.2
-0.215
-0.225
-0.23
-0.235
-0.225
-0.225
-0.23
-0.24
-0.26
-0.28
-0.25
-0.25
-0.24
-0.27
-0.28
-0.285
-0.265
-0.25
-0.26
-0.27
-0.275
-0.275
-0.27
-0.255
-0.26
-0.27
-0.28
-0.285
-0.26
-0.25
-0.25
-0.275
-0.28
-0.275
-0.27
-0.265
-0.25
-0.27
-0.275
-0.29
-0.265
-0.255
-0.26
-0.29
-0.29
-0.29
-0.28
-0.27
-0.28
-0.3
-0.3
-0.305
-0.295
-0.28
-0.28
-0.29
-0.3
-0.295
-0.28
-0.26
-0.265
-0.28
-0.295
-0.295
-0.285
-0.275
-0.29
-0.295
-0.3
-0.305
-0.29
-0.285
-0.285
-0.31
-0.315
-0.31
-0.305
-0.285
-0.29
-0.3
-0.31
-0.305
-0.295
-0.28
-0.285
-0.305
-0.31
-0.31
-0.285
-0.265
-0.275
-0.29
-0.32
-0.305
-0.285
-0.275
-0.285
-0.29
-0.29
-0.25
-0.2
-0.145
-0.09
-0.025
0.06
0.19
0.35
0.515
0.655
0.74
0.755
0.675
0.555
0.37
0.15
-0.105
-0.275
-0.36
-0.37
-0.33
-0.3
-0.285
-0.305
-0.305
-0.305
-0.315
-0.32
-0.33
-0.36
-0.355
-0.35
-0.35
-0.37
-0.375
-0.38
-0.375
-0.365
-0.345
-0.36
-0.365
-0.385
-0.37
-0.355
-0.34
-0.34
-0.36
-0.375
-0.36
-0.335
-0.325
-0.355
-0.345
-0.355
-0.355
-0.35
-0.325
-0.325
-0.345
-0.36
-0.35
-0.345
-0.34
-0.345
-0.34
-0.355
-0.35
-0.325
-0.32
-0.315
-0.335
-0.34
-0.335
-0.3
-0.295
-0.3
-0.305
-0.32
-0.305
-0.28
-0.265
-0.26
-0.275
-0.26
-0.25
-0.245
-0.22
-0.22
-0.215
-0.22
-0.215
-0.18
-0.165
-0.16
-0.165
-0.165
-0.175
-0.16
-0.145
-0.14
-0.14
-0.155
-0.145
-0.12
-0.115
-0.12
-0.125
-0.155
-0.15
-0.14
-0.13
-0.14
-0.16
-0.16
-0.165
-0.15
-0.15
-0.16
-0.18
-0.195
-0.19
-0.205
-0.19
-0.21
-0.235
-0.255
-0.245
-0.245
-0.215
-0.245
-0.265
-0.275
-0.265
-0.245
-0.225
-0.245
-0.26
-0.26
-0.245
-0.235
-0.23
-0.215
-0.225
-0.24
-0.24
-0.22
-0.205
-0.215
-0.22
-0.22
-0.225
-0.23
-0.2
-0.22
-0.235
-0.245
-0.235
-0.23
-0.215
-0.22
-0.24
-0.25
-0.235
-0.23
-0.225
-0.23
-0.235
-0.255
-0.255
-0.26
-0.23
-0.23
-0.24
-0.25
-0.25
-0.245
-0.245
-0.25
-0.255
-0.25
-0.25
-0.245
-0.225
-0.25
-0.23
-0.24
-0.24
-0.235
-0.225
-0.23
-0.235
-0.24
-0.245
-0.23
-0.22
-0.22
-0.24
-0.26
-0.255
-0.225
-0.215
-0.23
-0.255
-0.26
-0.26
-0.245
-0.23
-0.22
-0.25
-0.24
-0.24
-0.25
-0.23
-0.245
-0.245
-0.235
-0.24
-0.23
-0.225
-0.215
-0.24
-0.25
-0.24
-0.235
-0.215
-0.22
-0.235
-0.24
-0.235
-0.195
-0.15
-0.085
-0.01
0.07
0.21
0.405
0.65
0.89
1.125
1.325
1.47
1.46
1.295
0.995
0.655
0.3
-0.01
-0.28
-0.39
-0.385
-0.32
-0.26
-0.22
-0.21
-0.245
-0.28
-0.295
-0.32
-0.33
-0.33
-0.32
-0.33
-0.34
-0.35
-0.345
-0.34
-0.335
-0.35
-0.355
-0.365
-0.375
-0.365
-0.355
-0.365
-0.365
-0.385
-0.385
-0.36
-0.355
-0.375
-0.4
-0.41
-0.395
-0.365
-0.345
-0.355
-0.37
-0.37
-0.365
-0.365
-0.37
-0.36
-0.36
-0.365
-0.365
-0.365
-0.36
-0.335
-0.35
-0.375
-0.38
-0.37
-0.345
-0.345
-0.34
-0.335
-0.31
-0.305
-0.305
-0.32
-0.325
-0.31
-0.305
-0.285
-0.26
-0.28
-0.29
-0.29
-0.275
-0.265
-0.26
-0.265
-0.255
-0.265
-0.265
-0.265
-0.24
-0.22
-0.22
-0.21
-0.23
-0.21
-0.185
-0.175
-0.18
-0.185
-0.17
-0.15
-0.135
-0.15
-0.185
-0.195
-0.175
-0.165
-0.155
-0.185
-0.185
-0.22
-0.205
-0.205
-0.195
-0.2
-0.23
-0.255
-0.245
-0.25
-0.24
-0.245
-0.265
-0.275
-0.27
-0.255
-0.24
-0.245
-0.275
-0.275
-0.28
-0.265
-0.265
-0.25
-0.285
-0.295
-0.29
-0.26
-0.24
-0.245
-0.25
-0.27
-0.275
-0.255
-0.235
-0.235
-0.24
-0.245
-0.24
-0.21
-0.2
-0.215
-0.245
-0.25
-0.25
-0.225
-0.215
-0.23
-0.235
-0.24
-0.235
-0.235
-0.235
-0.245
-0.275
-0.275
-0.28
-0.265
-0.255
-0.26
-0.275
-0.28
-0.275
-0.25
-0.245
-0.265
-0.29
-0.29
-0.29
-0.275
-0.27
-0.275
-0.27
-0.28
-0.285
-0.275
-0.26
-0.27
-0.29
-0.32
-0.295
-0.28
-0.255
-0.26
-0.26
-0.27
-0.26
-0.25
-0.24
-0.255
-0.27
-0.27
-0.265
-0.25
-0.23
-0.235
-0.265
-0.27
-0.25
-0.245
-0.235
-0.23
-0.23
-0.2
-0.14
-0.06
0.06
0.175
0.34
0.56
0.805
1.08
1.345
1.495
1.49
1.32
1.05
0.715
0.36
-0.03
-0.315
-0.465
-0.445
-0.36
-0.28
-0.265
-0.275
-0.285
-0.31
-0.305
-0.3
-0.31
-0.36
-0.365
-0.375
-0.355
-0.345
-0.35
-0.38
-0.38
-0.4
-0.38
-0.36
-0.37
-0.375
-0.385
-0.39
-0.385
-0.365
-0.39
-0.395
-0.415
-0.415
-0.395
-0.38
-0.385
-0.39
-0.41
-0.4
-0.385
-0.38
-0.38
-0.4
-0.405
-0.385
-0.37
-0.355
-0.365
-0.37
-0.38
-0.38
-0.34
-0.315
-0.315
-0.31
-0.31
-0.31
-0.28
-0.275
-0.275
-0.29
-0.305
-0.3
-0.295
-0.27
-0.27
-0.275
-0.29
-0.3
-0.275
-0.255
-0.26
-0.255
-0.265
-0.28
-0.265
-0.25
-0.25
-0.26
-0.27
-0.26
-0.24
-0.23
-0.23
-0.23
-0.25
-0.235
-0.2
-0.185
-0.185
-0.17
-0.185
-0.195
-0.18
-0.155
-0.145
-0.16
-0.165
-0.16
-0.16
-0.145
-0.145
-0.195
-0.23
-0.22
-0.205
-0.205
-0.215
-0.235
-0.265
-0.255
-0.265
-0.245
-0.27
-0.28
-0.3
-0.28
-0.275
-0.255
-0.25
-0.28
-0.29
-0.275
-0.27
-0.245
-0.25
-0.27
-0.27
-0.275
-0.26
-0.245
-0.255
-0.265
-0.265
-0.265
-0.255
-0.24
-0.24
-0.235
-0.24
-0.22
-0.2
-0.18
-0.185
-0.215
-0.23
-0.225
-0.21
-0.21
-0.225
-0.24
-0.26
-0.255
-0.245
-0.235
-0.25
-0.28
-0.285
-0.28
-0.29
-0.275
-0.29
-0.3
-0.3
-0.295
-0.315
-0.305
-0.29
-0.3
-0.32
-0.32
-0.305
-0.28
-0.295
-0.315
-0.32
-0.31
-0.295
-0.285
-0.305
-0.3
-0.3
-0.295
-0.295
-0.285
-0.3
-0.32
-0.32
-0.315
-0.32
-0.295
-0.3
-0.315
-0.33
-0.325
-0.32
-0.295
-0.295
-0.3
-0.315
-0.32
-0.305
-0.305
-0.305
-0.325
-0.335
-0.32
-0.305
-0.3
-0.31
-0.31
-0.32
-0.315
-0.305
-0.3
-0.315
-0.315
-0.33
-0.325
-0.315
-0.315
-0.31
-0.31
-0.325
-0.32
-0.31
-0.31
-0.305
-0.295
-0.285
-0.245
-0.185
-0.105
-0.035
0.07
0.195
0.375
0.555
0.73
0.86
0.935
0.92
0.8
0.595
0.36
0.075
-0.195
-0.365
-0.43
-0.41
-0.35
-0.325
-0.335
-0.34
-0.355
-0.35
-0.35
-0.36
-0.38
-0.39
-0.39
-0.385
-0.375
-0.38
-0.39
-0.39
-0.385
-0.39
-0.385
-0.38
-0.4
-0.41
-0.38
-0.375
-0.36
-0.365
-0.37
-0.38
-0.37
-0.365
-0.355
-0.36
-0.36
-0.37
-0.365
-0.36
-0.35
-0.365
-0.38
-0.38
-0.38
-0.385
-0.36
-0.355
-0.36
-0.375
-0.38
-0.36
-0.33
-0.33
-0.36
-0.365
-0.365
-0.345
-0.335
-0.33
-0.35
-0.375
-0.36
-0.345
-0.32
-0.32
-0.345
-0.345
-0.34
-0.33
-0.32
-0.315
-0.325
-0.325
-0.315
-0.295
-0.29
-0.305
-0.31
-0.32
-0.31
-0.285
-0.275
-0.26
-0.275
-0.275
-0.275
-0.265
-0.255
-0.23
-0.24
-0.255
-0.26
-0.245
-0.23
-0.225
-0.23
-0.24
-0.25
-0.22
-0.205
-0.225
-0.24
-0.255
-0.24
-0.235
-0.22
-0.245
-0.265
-0.275
-0.28
-0.275
-0.27
-0.27
-0.295
-0.32
-0.325
-0.31
-0.275
-0.295
-0.32
-0.33
-0.335
-0.315
-0.31
-0.3
-0.31
-0.315
-0.32
-0.32
-0.29
-0.305
-0.315
-0.33
-0.335
-0.32
-0.31
-0.3
-0.31
-0.31
-0.305
-0.3
-0.3
-0.29
-0.3
-0.31
-0.305
-0.295
-0.295
-0.31
-0.315
-0.32
-0.31
-0.285
-0.27
-0.26
-0.26
-0.285
-0.29
-0.285
-0.275
-0.27
-0.295
-0.31
-0.3
-0.29
-0.295
-0.31
-0.335
-0.36
-0.345
-0.33
-0.32
-0.33
-0.35
-0.36
-0.34
-0.33
-0.34
-0.355
-0.365
-0.375
-0.36
-0.335
-0.305
-0.3
-0.325
-0.33
-0.315
-0.285
-0.27
-0.3
-0.31
-0.315
-0.32
-0.315
-0.32
-0.325
-0.31
-0.31
-0.335
-0.335
-0.315
-0.32
-0.305
-0.315
-0.325
-0.305
-0.285
-0.27
-0.29
-0.33
-0.305
-0.305
-0.295
-0.31
-0.32
-0.325
-0.31
-0.295
-0.295
-0.295
-0.31
-0.31
-0.3
-0.3
-0.295
-0.305
-0.315
-0.3
-0.29
-0.285
-0.26
-0.26
-0.27
-0.275
-0.285
-0.295
-0.3
-0.29
-0.3
-0.305
-0.29
-0.295
-0.29
-0.285
-0.33
-0.325
-0.295
-0.305
-0.29
-0.29
-0.3
-0.31
-0.305
-0.31
-0.29
-0.29
-0.31
-0.315
-0.34
-0.325
-0.325
-0.325
-0.335
-0.35
-0.35
-0.34
-0.33
-0.325
-0.325
-0.33
-0.335
-0.34
-0.32
-0.32
-0.315
-0.34
-0.32
-0.31
-0.295
-0.305
-0.295
-0.305
-0.305
-0.295
-0.275
-0.265
-0.26
-0.275
-0.285
-0.275
-0.285
-0.29
-0.29
-0.29
-0.285
-0.285
-0.26
-0.28
-0.285
-0.295
-0.285
-0.27
-0.26
-0.285
-0.295
-0.3
-0.29
-0.29
-0.275
-0.295
-0.29
-0.315
-0.295
-0.29
-0.285
-0.305
-0.32
-0.3
-0.28
-0.27
-0.275
-0.285
-0.295
-0.315
-0.315
-0.285
-0.27
-0.275
-0.285
-0.285
-0.295
-0.265
-0.25
-0.265
-0.29
-0.3
-0.29
-0.28
-0.275
-0.285
-0.305
-0.305
-0.3
-0.29
-0.27
-0.275
-0.285
-0.3
-0.295
-0.285
-0.265
-0.28
-0.285
-0.275
-0.27
-0.255
-0.26
-0.265
-0.29
-0.285
-0.28
-0.25
-0.255
-0.25
-0.265
-0.27
-0.255
-0.25
-0.235
-0.24
-0.24
-0.26
-0.255
-0.24
-0.215
-0.215
-0.225
-0.225
-0.23
-0.205
-0.19
-0.22
-0.235
-0.25
-0.245
-0.215
-0.215
-0.205
-0.24
-0.245
-0.23
-0.22
-0.205
-0.215
-0.22
-0.23
-0.225
-0.205
-0.21
-0.22
-0.235
-0.245
-0.235
-0.23
-0.21
-0.215
-0.225
-0.25
-0.245
-0.22
-0.17
-0.1
-0.03
0.055
0.19
0.34
0.535
0.735
0.945
1.13
1.325
1.435
1.41
1.21
0.905
0.575
0.27
0.02
-0.19
-0.335
-0.36
-0.315
-0.255
-0.205
-0.19
-0.24
-0.27
-0.29
-0.305
-0.29
-0.285
-0.3
-0.32
-0.345
-0.33
-0.35
-0.34
-0.34
-0.355
-0.365
-0.36
-0.35
-0.33
-0.335
-0.36
-0.35
-0.35
-0.345
-0.335
-0.36
-0.37
-0.385
-0.385
-0.38
-0.365
-0.39
-0.38
-0.385
-0.38
-0.355
-0.345
-0.355
-0.365
-0.375
-0.36
-0.34
-0.33
-0.35
-0.34
-0.365
-0.365
-0.36
-0.345
-0.35
-0.355
-0.375
-0.38
-0.375
-0.36
-0.345
-0.345
-0.355
-0.34
-0.325
-0.315
-0.31
-0.33
-0.33
-0.32
-0.305
-0.305
-0.29
-0.295
-0.31
-0.31
-0.29
-0.27
-0.27
-0.27
-0.27
-0.265
-0.245
-0.23
-0.235
-0.24
-0.245
-0.225
-0.19
-0.18
-0.19
-0.195
-0.19
-0.18
-0.145
-0.12
-0.11
-0.115
-0.12
-0.105
-0.085
-0.065
-0.075
-0.085
-0.11
-0.115
-0.105
-0.095
-0.105
-0.12
-0.145
-0.16
-0.16
-0.16
-0.175
-0.19
-0.215
-0.235
-0.235
-0.235
-0.255
-0.275
-0.275
-0.285
-0.27
-0.26
-0.285
-0.3
-0.3
-0.29
-0.295
-0.295
-0.29
-0.285
-0.285
-0.27
-0.255
-0.235
-0.22
-0.245
-0.26
-0.24
-0.225
-0.22
-0.235
-0.24
-0.24
-0.235
-0.235
-0.24
-0.22
-0.22
-0.23
-0.215
-0.195
-0.19
-0.21
-0.22
-0.23
-0.23
-0.225
-0.22
-0.245
-0.255
-0.25
-0.245
-0.235
-0.23
-0.255
-0.265
-0.27
-0.27
-0.275
-0.26
-0.285
-0.31
-0.315
-0.305
-0.285
-0.27
-0.285
-0.305
-0.315
-0.305
-0.29
-0.285
-0.305
-0.305
-0.3
-0.3
-0.27
-0.27
-0.275
-0.28
-0.29
-0.275
-0.26
-0.26
-0.26
-0.265
-0.275
-0.29
-0.285
-0.265
-0.275
-0.28
-0.275
-0.275
-0.265
-0.245
-0.255
-0.275
-0.29
-0.285
-0.275
-0.265
-0.27
-0.28
-0.305
-0.3
-0.29
-0.265
-0.275
-0.285
-0.29
-0.29
-0.27
-0.265
-0.275
-0.275
-0.29
-0.29
-0.29
-0.28
-0.29
-0.285
-0.3
-0.285
-0.27
-0.26
-0.265
-0.27
-0.265
-0.225
-0.19
-0.13
-0.085
-0.01
0.1
0.25
0.425
0.62
0.815
1.0
1.17
1.32
1.38
1.31
1.08
0.805
0.51
0.185
-0.105
-0.315
-0.44
-0.45
-0.4
-0.35
-0.295
-0.26
-0.27
-0.3
-0.325
-0.345
-0.335
-0.335
-0.355
-0.385
-0.395
-0.4
-0.39
-0.395
-0.4
-0.41
-0.43
-0.415
-0.395
-0.38
-0.385
-0.4
-0.405
-0.405
-0.38
-0.385
-0.395
-0.4
-0.425
-0.41
-0.39
-0.385
-0.41
-0.405
-0.4
-0.4
-0.395
-0.375
-0.385
-0.395
-0.4
-0.4
-0.38
-0.365
-0.365
-0.37
-0.37
-0.37
-0.375
-0.365
-0.375
-0.405
-0.39
-0.37
-0.345
-0.335
-0.35
-0.365
-0.37
-0.37
-0.35
-0.33
-0.33
-0.34
-0.345
-0.345
-0.325
-0.315
-0.315
-0.305
-0.295
-0.29
-0.275
-0.245
-0.25
-0.265
-0.28
-0.275
-0.245
-0.24
-0.24
-0.25
-0.25
-0.24
-0.235
-0.23
-0.235
-0.255
-0.255
-0.265
-0.225
-0.205
-0.195
-0.22
-0.22
-0.205
-0.19
-0.185
-0.185
-0.2
-0.215
-0.205
-0.21
-0.205
-0.22
-0.235
-0.265
-0.265
-0.27
-0.27
-0.28
-0.31
-0.315
-0.32
-0.315
-0.305
-0.285
-0.305
-0.32
-0.325
-0.305
-0.295
-0.3
-0.315
-0.33
-0.31
-0.3
-0.29
-0.31
-0.325
-0.325
-0.325
-0.32
-0.295
-0.305
-0.305
-0.33
-0.335
-0.315
-0.285
-0.295
-0.29
-0.3
-0.29
-0.275
-0.28
-0.295
-0.315
-0.315
-0.3
-0.285
-0.275
-0.285
-0.3
-0.285
-0.285
-0.285
-0.285
-0.285
-0.295
-0.315
-0.3
-0.28
-0.285
-0.29
-0.305
-0.31
-0.3
-0.3
-0.3
-0.305
-0.3
-0.31
-0.315
-0.3
-0.3
-0.31
-0.315
-0.32
-0.33
-0.32
-0.31
-0.33
-0.345
-0.33
-0.325
-0.295
-0.295
-0.29
-0.305
-0.32
-0.32
-0.3
-0.29
-0.3
-0.295
-0.31
-0.315
-0.295
-0.3
-0.32
-0.32
-0.315
-0.31
-0.29
-0.285
-0.285
-0.3
-0.32
-0.325
-0.31
-0.3
-0.3
-0.315
-0.325
-0.32
-0.305
-0.305
-0.325
-0.335
-0.34
-0.33
-0.315
-0.305
-0.31
-0.335
-0.36
-0.365
-0.375
-0.35
-0.345
-0.35
-0.365
-0.345
-0.325
-0.31
-0.31
-0.315
-0.325
-0.32
-0.31
-0.295
-0.3
-0.32
-0.325
-0.32
-0.3
-0.295
-0.3
-0.305
-0.315
-0.31
-0.29
-0.28
-0.29
-0.31
-0.33
-0.325
-0.305
-0.295
-0.3
-0.31
-0.31
-0.305
-0.28
-0.275
-0.285
-0.305
-0.31
-0.285
-0.23
-0.165
-0.105
-0.04
0.065
0.22
0.39
0.6
0.775
0.96
1.125
1.26
1.3
1.225
1.03
0.755
0.45
0.175
-0.1
-0.315
-0.42
-0.45
-0.41
-0.35
-0.29
-0.27
-0.285
-0.31
-0.34
-0.33
-0.325
-0.33
-0.35
-0.355
-0.365
-0.36
-0.35
-0.345
-0.365
-0.38
-0.395
-0.39
-0.395
-0.38
-0.385
-0.4
-0.405
-0.405
-0.39
-0.375
-0.38
-0.4
-0.4
-0.41
-0.38
-0.37
-0.365
-0.375
-0.385
-0.395
-0.39
-0.37
-0.4
-0.41
-0.405
-0.425
-0.4
-0.38
-0.385
-0.41
-0.41
-0.395
-0.39
-0.375
-0.365
-0.395
-0.38
-0.37
-0.35
-0.34
-0.33
-0.345
-0.35
-0.325
-0.315
-0.285
-0.3
-0.295
-0.295
-0.305
-0.29
-0.275
-0.27
-0.255
-0.255
-0.26
-0.26
-0.24
-0.23
-0.235
-0.24
-0.22
-0.21
-0.2
-0.205
-0.22
-0.23
-0.215
-0.21
-0.205
-0.215
-0.21
-0.22
-0.215
-0.215
-0.21
-0.19
-0.19
-0.195
-0.185
-0.165
-0.155
-0.16
-0.17
-0.185
-0.175
-0.18
-0.155
-0.15
-0.165
-0.17
-0.185
-0.17
-0.155
-0.18
-0.195
-0.215
-0.215
-0.215
-0.215
-0.21
-0.225
-0.24
-0.245
-0.25
-0.24
-0.25
-0.26
-0.265
-0.26
-0.265
-0.25
-0.25
-0.245
-0.26
-0.25
-0.235
-0.22
-0.245
-0.245
-0.26
-0.265
-0.24
-0.24
-0.23
-0.255
-0.265
-0.26
-0.24
-0.22
-0.225
-0.245
-0.26
-0.255
-0.245
-0.24
-0.24
-0.26
-0.255
-0.245
-0.235
-0.245
-0.25
-0.29
-0.275
-0.285
-0.275
-0.24
-0.255
-0.245
-0.265
-0.25
-0.25
-0.23
-0.235
-0.26
-0.26
-0.255
-0.25
-0.26
-0.27
-0.265
-0.285
-0.285
-0.265
-0.255
-0.27
-0.295
-0.3
-0.305
-0.28
-0.26
-0.27
-0.29
-0.295
-0.295
-0.265
-0.255
-0.27
-0.295
-0.29
-0.295
-0.275
-0.265
-0.265
-0.29
-0.3
-0.305
-0.295
-0.28
-0.28
-0.285
-0.3
-0.285
-0.275
-0.285
-0.31
-0.315
-0.335
-0.315
-0.3
-0.285
-0.3
-0.31
-0.33
-0.31
-0.28
-0.275
-0.275
-0.295
-0.285
-0.285
-0.27
-0.26
-0.26
-0.28
-0.275
-0.25
-0.265
-0.26
-0.26
-0.28
-0.27
-0.265
-0.265
-0.235
-0.215
-0.185
-0.15
-0.07
0.025
0.16
0.31
0.49
0.7
0.93
1.145
1.29
1.32
1.205
0.905
0.555
0.2
-0.13
-0.39
-0.51
-0.51
-0.43
-0.355
-0.28
-0.255
-0.27
-0.305
-0.315
-0.31
-0.305
-0.325
-0.345
-0.385
-0.385
-0.365
-0.35
-0.35
-0.355
-0.36
-0.375
-0.37
-0.35
-0.35
-0.36
-0.37
-0.385
-0.38
-0.36
-0.355
-0.38
-0.365
-0.37
-0.37
-0.36
-0.37
-0.375
-0.385
-0.395
-0.38
-0.365
-0.375
-0.39
-0.405
-0.385
-0.37
-0.35
-0.355
-0.38
-0.4
-0.41
-0.395
-0.355
-0.345
-0.345
-0.345
-0.355
-0.35
-0.335
-0.335
-0.34
-0.36
-0.335
-0.315
-0.32
-0.32
-0.325
-0.33
-0.325
-0.295
-0.26
-0.27
-0.275
-0.285
-0.27
-0.255
-0.245
-0.255
-0.25
-0.26
-0.255
-0.23
-0.23
-0.235
-0.245
-0.245
-0.245
-0.215
-0.23
-0.23
-0.23
-0.245
-0.225
-0.205
-0.185
-0.195
-0.21
-0.21
-0.2
-0.195
-0.18
-0.17
-0.21
-0.23
-0.23
-0.21
-0.2
-0.205
-0.23
-0.255
-0.25
-0.26
-0.245
-0.265
-0.26
-0.27
-0.25
-0.225
-0.22
-0.24
-0.25
-0.255
-0.255
-0.23
-0.23
-0.24
-0.255
-0.255
-0.235
-0.22
-0.215
-0.215
-0.205
-0.185
-0.165
-0.13
-0.105
-0.115
-0.135
-0.125
-0.13
-0.155
-0.16
-0.16
-0.135
-0.105
-0.075
-0.03
-0.04
-0.11
-0.195
-0.29
-0.405
-0.49
-0.525
-0.52
-0.525
-0.545
-0.585
-0.595
-0.59
-0.605
-0.635
-0.645
-0.625
-0.62
-0.63
-0.665
-0.685
-0.705
-0.72
-0.715
-0.695
-0.675
-0.67
-0.655
-0.62
-0.585
-0.535
-0.525
-0.505
-0.49
-0.45
-0.4
-0.365
-0.34
-0.34
-0.32
-0.295
-0.285
-0.28
-0.275
-0.295
-0.29
-0.275
-0.255
-0.235
-0.255
-0.255
-0.26
-0.245
-0.23
-0.205
-0.19
-0.18
-0.165
-0.15
-0.12
-0.09
-0.08
-0.08
-0.065
-0.045
-0.03
0.01
0.015
0.025
0.03
0.075
0.125
0.16
0.165
0.205
0.22
0.23
0.28
0.305
0.325
0.34
0.36
0.415
0.47
0.49
0.525
0.535
0.565
0.595
0.64
0.65
0.655
0.655
0.67
0.685
0.695
0.705
0.7
0.685
0.68
0.655
0.655
0.645
0.62
0.58
0.55
0.52
0.485
0.47
0.425
0.38
0.335
0.31
0.3
0.28
0.23
0.195
0.15
0.125
0.105
0.07
0.045
0.005
-0.03
-0.05
-0.065
-0.075
-0.105
-0.145
-0.165
-0.175
-0.195
-0.185
-0.2
-0.225
-0.23
-0.255
-0.24
-0.235
-0.245
-0.27
-0.29
-0.275
-0.27
-0.26
-0.265
-0.29
-0.3
-0.29
-0.295
-0.27
-0.28
-0.3
-0.305
-0.31
-0.29
-0.285
-0.29
-0.305
-0.305
-0.3
-0.29
-0.285
-0.29
-0.31
-0.315
-0.315
-0.29
-0.305
-0.295
-0.305
-0.32
-0.31
-0.305
-0.305
-0.305
-0.315
-0.325
-0.325
-0.285
-0.285
-0.305
-0.315
-0.325
-0.325
-0.31
-0.3
-0.305
-0.315
-0.325
-0.32
-0.32
-0.295
-0.3
-0.32
-0.335
-0.325
-0.295
-0.295
-0.3
-0.33
-0.335
-0.315
-0.31
-0.29
-0.305
-0.31
-0.325
-0.325
-0.295
-0.3
-0.31
-0.325
-0.345
-0.315
-0.325
-0.295
-0.3
-0.31
-0.315
-0.32
-0.315
-0.305
-0.305
-0.31
-0.325
-0.34
-0.325
-0.295
-0.3
-0.32
-0.32
-0.315
-0.31
-0.295
-0.305
-0.32
-0.325
-0.31
-0.295
-0.295
-0.285
-0.305
-0.32
-0.305
-0.31
-0.28
-0.3
-0.305
-0.315
-0.3
-0.29
-0.295
