Lead II
-0.205
-0.225
-0.215
-0.205
-0.185
-0.18
-0.215
-0.24
-0.24
-0.25
-0.23
-0.24
-0.235
-0.25
-0.265
-0.275
-0.27
-0.285
-0.29
-0.305
-0.31
-0.3
-0.305
-0.31
-0.315
-0.335
-0.325
-0.315
-0.305
-0.31
-0.31
-0.325
-0.32
-0.305
-0.29
-0.29
-0.295
-0.31
-0.31
-0.3
-0.28
-0.29
-0.295
-0.315
-0.31
-0.315
-0.29
-0.24
-0.14
0.045
0.31
0.63
0.965
1.26
1.495
1.67
1.685
1.425
0.925
0.34
-0.2
-0.49
-0.515
-0.425
-0.35
-0.335
-0.34
-0.315
-0.285
-0.27
-0.27
-0.285
-0.295
-0.32
-0.32
-0.305
-0.3
-0.28
-0.3
-0.315
-0.31
-0.31
-0.29
-0.29
-0.3
-0.29
-0.3
-0.28
-0.255
-0.26
-0.27
-0.28
-0.275
-0.255
-0.24
-0.26
-0.25
-0.26
-0.26
-0.23
-0.225
-0.205
-0.205
-0.215
-0.21
-0.2
-0.175
-0.165
-0.175
-0.175
-0.16
-0.145
-0.12
-0.11
-0.11
-0.105
-0.09
-0.06
-0.03
-0.02
-0.005
0.0
0.025
0.055
0.085
0.115
0.12
0.13
0.15
0.185
0.215
0.24
0.235
0.24
0.26
0.27
0.305
0.3
0.305
0.285
0.28
0.28
0.26
0.255
0.21
0.165
0.145
0.115
0.085
0.055
0.01
-0.03
-0.07
-0.09
-0.13
-0.145
-0.18
-0.2
-0.225
-0.225
-0.21
-0.22
-0.245
-0.275
-0.275
-0.28
-0.265
-0.27
-0.28
-0.295
-0.28
-0.29
-0.27
-0.275
-0.29
-0.3
-0.3
-0.29
-0.295
-0.28
-0.28
-0.295
-0.29
-0.3
-0.28
-0.295
-0.305
-0.315
-0.305
-0.29
-0.28
-0.28
-0.29
-0.305
-0.295
-0.3
-0.28
-0.28
-0.3
-0.31
-0.3
-0.295
-0.275
-0.28
-0.29
-0.305
-0.305
-0.31
-0.275
-0.285
-0.3
-0.31
-0.305
-0.28
-0.25
-0.25
-0.255
-0.255
-0.25
-0.24
-0.21
-0.21
-0.21
-0.21
-0.195
-0.17
-0.165
-0.18
-0.205
-0.195
-0.205
-0.2
-0.205
-0.215
-0.24
-0.255
-0.26
-0.25
-0.255
-0.28
-0.305
-0.325
-0.335
-0.31
-0.3
-0.32
-0.345
-0.36
-0.35
-0.34
-0.32
-0.335
-0.345
-0.355
-0.355
-0.355
-0.34
-0.33
-0.345
-0.365
-0.35
-0.335
-0.335
-0.315
-0.33
-0.335
-0.315
-0.315
-0.31
-0.315
-0.34
-0.34
-0.28
-0.165
0.01
0.21
0.455
0.75
1.055
1.36
1.61
1.725
1.58
1.225
0.755
0.23
-0.2
-0.415
-0.455
-0.415
-0.375
-0.38
-0.36
-0.345
-0.335
-0.35
-0.355
-0.345
-0.315
-0.325
-0.335
-0.33
-0.33
-0.31
-0.32
-0.31
-0.32
-0.32
-0.335
-0.32
-0.305
-0.3
-0.305
-0.32
-0.3
-0.3
-0.27
-0.285
-0.295
-0.285
-0.285
-0.265
-0.245
-0.245
-0.25
-0.25
-0.245
-0.23
-0.225
-0.21
-0.21
-0.22
-0.215
-0.195
-0.18
-0.17
-0.175
-0.19
-0.185
-0.15
-0.115
-0.1
-0.095
-0.1
-0.085
-0.055
-0.02
-0.005
0.01
0.01
0.035
0.08
0.1
0.12
0.135
0.145
0.165
0.195
0.22
0.225
0.235
0.24
0.255
0.27
0.285
0.29
0.265
0.245
0.215
0.225
0.19
0.165
0.11
0.085
0.05
0.025
0.005
-0.025
-0.085
-0.115
-0.145
-0.14
-0.14
-0.175
-0.2
-0.23
-0.235
-0.23
-0.225
-0.24
-0.26
-0.285
-0.28
-0.28
-0.265
-0.275
-0.275
-0.32
-0.31
-0.29
-0.28
-0.28
-0.295
-0.3
-0.3
-0.29
-0.29
-0.285
-0.305
-0.305
-0.305
-0.29
-0.285
-0.28
-0.285
-0.3
-0.295
-0.28
-0.28
-0.265
-0.275
-0.285
-0.29
-0.27
-0.255
-0.26
-0.265
-0.285
-0.275
-0.265
-0.24
-0.25
-0.26
-0.29
-0.27
-0.265
-0.245
-0.235
-0.27
-0.26
-0.25
-0.23
-0.215
-0.205
-0.21
-0.21
-0.195
-0.185
-0.18
-0.17
-0.165
-0.16
-0.14
-0.11
-0.085
-0.07
-0.065
-0.05
-0.025
0.015
0.09
0.125
0.16
0.2
0.295
0.395
0.46
0.53
0.57
0.615
0.66
0.745
0.83
0.925
0.97
1.025
1.105
1.22
1.31
1.315
1.27
1.195
1.11
1.065
1.03
0.99
0.935
0.915
0.905
0.885
0.91
0.91
0.91
0.91
0.94
0.99
1.035
1.02
0.945
0.825
0.65
0.45
0.245
0.02
-0.135
-0.27
-0.35
-0.4
-0.425
-0.45
-0.48
-0.505
-0.535
-0.53
-0.525
-0.535
-0.565
-0.595
-0.585
-0.575
-0.57
-0.575
-0.6
-0.615
-0.625
-0.615
-0.61
-0.615
-0.635
-0.645
-0.655
-0.645
-0.645
-0.665
-0.675
-0.69
-0.685
-0.675
-0.68
-0.68
-0.685
-0.705
-0.725
-0.71
-0.695
-0.7
-0.715
-0.74
-0.745
-0.725
-0.72
-0.71
-0.72
-0.73
-0.73
-0.72
-0.715
-0.7
-0.715
-0.715
-0.72
-0.69
-0.68
-0.66
-0.67
-0.66
-0.645
-0.625
-0.59
-0.57
-0.57
-0.555
-0.535
-0.49
-0.44
-0.405
-0.39
-0.375
-0.355
-0.32
-0.275
-0.255
-0.24
-0.23
-0.22
-0.205
-0.165
-0.165
-0.175
-0.205
-0.205
-0.195
-0.19
-0.2
-0.215
-0.23
-0.245
-0.24
-0.235
-0.225
-0.235
-0.275
-0.265
-0.265
-0.25
-0.245
-0.275
-0.285
-0.295
-0.285
-0.27
-0.275
-0.28
-0.3
-0.3
-0.295
-0.29
-0.295
-0.3
-0.305
-0.315
-0.3
-0.27
-0.285
-0.295
-0.3
-0.315
-0.28
-0.28
-0.285
-0.295
-0.3
-0.305
-0.285
-0.275
-0.275
-0.295
-0.295
-0.29
-0.285
-0.275
-0.28
-0.295
-0.285
-0.28
-0.285
-0.26
-0.265
-0.275
-0.27
-0.285
-0.28
-0.26
-0.265
-0.26
-0.275
-0.275
-0.255
-0.245
-0.26
-0.265
-0.275
-0.265
-0.265
-0.25
-0.245
-0.245
-0.27
-0.27
-0.27
-0.25
-0.255
-0.26
-0.27
-0.27
-0.26
-0.255
-0.25
-0.26
-0.265
-0.26
-0.23
-0.23
-0.225
-0.25
-0.26
-0.23
-0.22
-0.185
-0.19
-0.2
-0.2
-0.195
-0.17
-0.135
-0.11
-0.115
-0.11
-0.1
-0.1
-0.095
-0.115
-0.12
-0.145
-0.16
-0.17
-0.165
-0.17
-0.195
-0.215
-0.21
-0.225
-0.235
-0.22
-0.245
-0.265
-0.26
-0.25
-0.245
-0.24
-0.265
-0.29
-0.275
-0.26
-0.245
-0.265
-0.275
-0.29
-0.285
-0.265
-0.255
-0.25
-0.27
-0.275
-0.265
-0.255
-0.24
-0.245
-0.25
-0.265
-0.25
-0.25
-0.245
-0.245
-0.205
-0.11
0.04
0.28
0.595
0.895
1.19
1.425
1.61
1.69
1.5
1.055
0.475
-0.045
-0.36
-0.44
-0.385
-0.35
-0.345
-0.355
-0.335
-0.27
-0.23
-0.24
-0.255
-0.28
-0.285
-0.275
-0.275
-0.275
-0.28
-0.29
-0.295
-0.29
-0.26
-0.26
-0.275
-0.295
-0.275
-0.265
-0.245
-0.245
-0.25
-0.27
-0.28
-0.255
-0.24
-0.235
-0.24
-0.26
-0.255
-0.245
-0.225
-0.21
-0.22
-0.22
-0.21
-0.205
-0.19
-0.195
-0.205
-0.195
-0.195
-0.17
-0.14
-0.135
-0.15
-0.15
-0.155
-0.13
-0.105
-0.085
-0.09
-0.09
-0.065
-0.05
-0.02
0.01
0.0
0.01
0.025
0.06
0.085
0.095
0.105
0.105
0.125
0.16
0.2
0.215
0.22
0.24
0.25
0.265
0.285
0.305
0.31
0.305
0.305
0.325
0.34
0.32
0.3
0.265
0.235
0.245
0.23
0.185
0.145
0.1
0.06
0.055
0.035
0.01
-0.035
-0.055
-0.085
-0.1
-0.1
-0.135
-0.16
-0.18
-0.195
-0.185
-0.19
-0.205
-0.23
-0.245
-0.25
-0.245
-0.24
-0.24
-0.26
-0.28
-0.29
-0.275
-0.27
-0.25
-0.27
-0.285
-0.27
-0.265
-0.26
-0.27
-0.275
-0.285
-0.28
-0.26
-0.265
-0.275
-0.29
-0.295
-0.3
-0.29
-0.265
-0.26
-0.285
-0.29
-0.295
-0.285
-0.26
-0.265
-0.295
-0.3
-0.295
-0.29
-0.28
-0.275
-0.28
-0.285
-0.275
-0.27
-0.26
-0.25
-0.26
-0.265
-0.245
-0.23
-0.2
-0.205
-0.22
-0.215
-0.2
-0.18
-0.15
-0.145
-0.145
-0.145
-0.14
-0.14
-0.115
-0.12
-0.14
-0.15
-0.165
-0.175
-0.185
-0.185
-0.2
-0.225
-0.24
-0.235
-0.24
-0.275
-0.28
-0.295
-0.305
-0.29
-0.27
-0.28
-0.295
-0.305
-0.315
-0.305
-0.29
-0.285
-0.305
-0.32
-0.31
-0.31
-0.29
-0.3
-0.305
-0.32
-0.305
-0.275
-0.265
-0.26
-0.27
-0.29
-0.29
-0.3
-0.295
-0.32
-0.305
-0.26
-0.16
0.005
0.23
0.515
0.835
1.145
1.415
1.635
1.735
1.605
1.205
0.62
0.035
-0.375
-0.49
-0.44
-0.39
-0.37
-0.38
-0.34
-0.29
-0.28
-0.28
-0.3
-0.315
-0.305
-0.295
-0.29
-0.305
-0.3
-0.305
-0.28
-0.265
-0.265
-0.28
-0.295
-0.295
-0.285
-0.26
-0.255
-0.255
-0.28
-0.275
-0.27
-0.245
-0.245
-0.245
-0.26
-0.245
-0.225
-0.23
-0.215
-0.23
-0.22
-0.22
-0.185
-0.16
-0.155
-0.16
-0.165
-0.155
-0.14
-0.105
-0.1
-0.095
-0.105
-0.1
-0.085
-0.05
-0.035
-0.03
-0.02
-0.005
0.035
0.06
0.085
0.095
0.1
0.115
0.145
0.18
0.19
0.205
0.215
0.22
0.255
0.29
0.305
0.3
0.285
0.29
0.305
0.325
0.315
0.28
0.25
0.22
0.215
0.195
0.16
0.105
0.075
0.035
0.01
0.0
-0.025
-0.065
-0.12
-0.125
-0.14
-0.135
-0.15
-0.175
-0.215
-0.215
-0.225
-0.22
-0.23
-0.26
-0.27
-0.28
-0.265
-0.235
-0.24
-0.255
-0.275
-0.275
-0.28
-0.255
-0.265
-0.265
-0.29
-0.28
-0.27
-0.255
-0.26
-0.26
-0.295
-0.295
-0.28
-0.26
-0.26
-0.27
-0.285
-0.27
-0.265
-0.245
-0.245
-0.255
-0.265
-0.28
-0.27
-0.245
-0.245
-0.255
-0.265
-0.255
-0.245
-0.24
-0.245
-0.245
-0.25
-0.245
-0.225
-0.195
-0.17
-0.19
-0.18
-0.195
-0.165
-0.135
-0.115
-0.115
-0.115
-0.1
-0.1
-0.075
-0.08
-0.095
-0.11
-0.12
-0.11
-0.11
-0.125
-0.135
-0.15
-0.165
-0.16
-0.16
-0.16
-0.19
-0.21
-0.205
-0.175
-0.12
-0.09
-0.06
-0.03
0.0
0.08
0.175
0.235
0.3
0.35
0.42
0.49
0.555
0.635
0.685
0.725
0.805
0.89
0.99
1.065
1.13
1.225
1.345
1.445
1.47
1.45
1.375
1.295
1.245
1.235
1.29
1.33
1.375
1.415
1.475
1.55
1.665
1.725
1.72
1.555
1.31
1.025
0.715
0.43
0.165
-0.04
-0.15
-0.225
-0.28
-0.335
-0.36
-0.41
-0.43
-0.445
-0.455
-0.475
-0.52
-0.535
-0.54
-0.535
-0.525
-0.535
-0.55
-0.565
-0.58
-0.56
-0.56
-0.555
-0.575
-0.61
-0.615
-0.615
-0.595
-0.605
-0.635
-0.65
-0.655
-0.64
-0.64
-0.645
-0.665
-0.7
-0.71
-0.7
-0.7
-0.685
-0.7
-0.73
-0.74
-0.74
-0.735
-0.75
-0.765
-0.78
-0.79
-0.77
-0.77
-0.76
-0.78
-0.8
-0.79
-0.765
-0.765
-0.75
-0.765
-0.77
-0.755
-0.74
-0.71
-0.695
-0.675
-0.69
-0.66
-0.625
-0.59
-0.555
-0.555
-0.53
-0.49
-0.45
-0.39
-0.36
-0.34
-0.33
-0.295
-0.245
-0.225
-0.2
-0.205
-0.22
-0.215
-0.19
-0.19
-0.195
-0.205
-0.225
-0.23
-0.225
-0.22
-0.225
-0.245
-0.255
-0.255
-0.245
-0.24
-0.24
-0.245
-0.265
-0.26
-0.255
-0.245
-0.245
-0.26
-0.27
-0.28
-0.26
-0.26
-0.245
-0.27
-0.28
-0.28
-0.28
-0.27
-0.26
-0.295
-0.29
-0.29
-0.27
-0.26
-0.26
-0.28
-0.295
-0.295
-0.285
-0.27
-0.275
-0.275
-0.3
-0.315
-0.285
-0.27
-0.265
-0.27
-0.27
-0.275
-0.265
-0.245
-0.24
-0.25
-0.27
-0.26
-0.245
-0.22
-0.215
-0.205
-0.21
-0.19
-0.18
-0.17
-0.145
-0.14
-0.145
-0.13
-0.095
-0.065
-0.065
-0.07
-0.09
-0.095
-0.095
-0.1
-0.1
-0.125
-0.145
-0.165
-0.165
-0.165
-0.18
-0.21
-0.23
-0.245
-0.24
-0.225
-0.225
-0.245
-0.255
-0.27
-0.25
-0.23
-0.245
-0.255
-0.26
-0.26
-0.245
-0.255
-0.255
-0.24
-0.255
-0.25
-0.235
-0.215
-0.225
-0.22
-0.235
-0.24
-0.23
-0.21
-0.215
-0.235
-0.25
-0.235
-0.165
-0.035
0.12
0.325
0.585
0.925
1.25
1.52
1.705
1.745
1.535
1.145
0.655
0.14
-0.225
-0.36
-0.35
-0.315
-0.29
-0.29
-0.275
-0.255
-0.25
-0.225
-0.225
-0.225
-0.225
-0.235
-0.265
-0.26
-0.255
-0.245
-0.24
-0.25
-0.26
-0.265
-0.245
-0.225
-0.23
-0.24
-0.255
-0.255
-0.24
-0.225
-0.22
-0.24
-0.235
-0.23
-0.22
-0.2
-0.2
-0.205
-0.22
-0.225
-0.205
-0.165
-0.185
-0.18
-0.19
-0.185
-0.15
-0.14
-0.125
-0.14
-0.145
-0.135
-0.135
-0.105
-0.075
-0.08
-0.08
-0.085
-0.045
-0.01
-0.005
-0.005
0.005
0.02
0.035
0.08
0.11
0.11
0.115
0.125
0.165
0.19
0.225
0.225
0.235
0.24
0.255
0.295
0.305
0.305
0.305
0.315
0.325
0.335
0.34
0.325
0.295
0.27
0.265
0.245
0.21
0.18
0.135
0.095
0.06
0.055
0.025
-0.02
-0.06
-0.085
-0.1
-0.11
-0.145
-0.16
-0.205
-0.22
-0.21
-0.205
-0.215
-0.23
-0.25
-0.27
-0.265
-0.25
-0.255
-0.275
-0.27
-0.29
-0.27
-0.26
-0.27
-0.27
-0.29
-0.285
-0.285
-0.28
-0.265
-0.285
-0.295
-0.3
-0.28
-0.27
-0.255
-0.27
-0.285
-0.29
-0.27
-0.26
-0.25
-0.26
-0.265
-0.265
-0.265
-0.245
-0.25
-0.26
-0.275
-0.28
-0.255
-0.245
-0.25
-0.245
-0.255
-0.25
-0.25
-0.225
-0.22
-0.245
-0.255
-0.265
-0.25
-0.24
-0.235
-0.225
-0.225
-0.205
-0.2
-0.18
-0.18
-0.19
-0.17
-0.16
-0.135
-0.11
-0.105
-0.105
-0.12
-0.125
-0.14
-0.135
-0.145
-0.165
-0.185
-0.195
-0.2
-0.22
-0.215
-0.25
-0.265
-0.29
-0.255
-0.25
-0.26
-0.295
-0.3
-0.32
-0.295
-0.28
-0.285
-0.295
-0.3
-0.31
-0.305
-0.285
-0.29
-0.31
-0.305
-0.315
-0.305
-0.29
-0.275
-0.285
-0.29
-0.295
-0.275
-0.27
-0.265
-0.28
-0.28
-0.265
-0.18
-0.055
0.11
0.295
0.52
0.82
1.12
1.38
1.575
1.585
1.33
0.935
0.465
-0.01
-0.33
-0.435
-0.4
-0.365
-0.36
-0.345
-0.31
-0.28
-0.285
-0.3
-0.315
-0.305
-0.295
-0.305
-0.325
-0.33
-0.32
-0.3
-0.29
-0.305
-0.325
-0.315
-0.305
-0.28
-0.28
-0.285
-0.295
-0.29
-0.285
-0.26
-0.265
-0.26
-0.27
-0.27
-0.26
-0.245
-0.235
-0.255
-0.245
-0.255
-0.235
-0.21
-0.2
-0.205
-0.205
-0.21
-0.19
-0.165
-0.145
-0.165
-0.155
-0.145
-0.12
-0.095
-0.085
-0.08
-0.075
-0.06
-0.03
0.0
0.015
0.015
0.02
0.05
0.08
0.11
0.12
0.135
0.13
0.155
0.175
0.205
0.23
0.22
0.225
0.225
0.23
0.245
0.245
0.235
0.195
0.17
0.15
0.145
0.11
0.065
0.02
-0.01
-0.035
-0.045
-0.07
-0.12
-0.15
-0.19
-0.19
-0.18
-0.195
-0.23
-0.235
-0.26
-0.255
-0.255
-0.25
-0.27
-0.275
-0.29
-0.295
-0.275
-0.28
-0.295
-0.31
-0.305
-0.285
-0.275
-0.29
-0.295
-0.32
-0.32
-0.305
-0.295
-0.275
-0.29
-0.3
-0.3
-0.29
-0.28
-0.275
-0.295
-0.29
-0.295
-0.295
-0.275
-0.28
-0.285
-0.295
-0.3
-0.29
-0.26
-0.265
-0.27
-0.275
-0.285
-0.265
-0.26
-0.25
-0.27
-0.28
-0.275
-0.27
-0.265
-0.245
-0.27
-0.265
-0.29
-0.255
-0.23
-0.235
-0.25
-0.26
-0.26
-0.245
-0.225
-0.23
-0.245
-0.24
-0.23
-0.22
-0.19
-0.18
-0.185
-0.205
-0.185
-0.145
-0.115
-0.08
-0.045
-0.01
0.035
0.1
0.17
0.24
0.3
0.36
0.405
0.49
0.56
0.605
0.645
0.675
0.735
0.83
0.905
0.965
1.005
1.065
1.16
1.255
1.295
1.28
1.215
1.115
1.065
1.03
1.01
0.98
0.935
0.93
0.915
0.895
0.92
0.935
0.955
0.985
1.01
1.065
1.055
0.985
0.855
0.665
0.42
0.185
-0.03
-0.22
-0.34
-0.425
-0.47
-0.49
-0.505
-0.53
-0.545
-0.58
-0.6
-0.6
-0.605
-0.59
-0.625
-0.645
-0.655
-0.66
-0.655
-0.655
-0.67
-0.68
-0.685
-0.675
-0.67
-0.67
-0.695
-0.71
-0.71
-0.715
-0.705
-0.71
-0.735
-0.765
-0.755
-0.755
-0.75
-0.75
-0.775
-0.785
-0.79
-0.785
-0.78
-0.78
-0.8
-0.82
-0.805
-0.795
-0.78
-0.76
-0.78
-0.785
-0.785
-0.77
-0.755
-0.745
-0.745
-0.735
-0.73
-0.71
-0.65
-0.635
-0.62
-0.61
-0.59
-0.555
-0.52
-0.51
-0.49
-0.45
-0.43
-0.395
-0.355
-0.33
-0.325
-0.315
-0.31
-0.29
-0.265
-0.255
-0.275
-0.275
-0.285
-0.3
-0.285
-0.29
-0.31
-0.335
-0.335
-0.33
-0.325
-0.32
-0.335
-0.35
-0.36
-0.36
-0.355
-0.355
-0.36
-0.39
-0.38
-0.365
-0.355
-0.355
-0.375
-0.385
-0.39
-0.385
-0.365
-0.36
-0.375
-0.4
-0.4
-0.37
-0.365
-0.38
-0.365
-0.385
-0.38
-0.37
-0.36
-0.365
-0.37
-0.375
-0.39
-0.38
-0.36
-0.36
-0.365
-0.375
-0.38
-0.37
-0.35
-0.35
-0.345
-0.355
-0.36
-0.355
-0.33
-0.34
-0.34
-0.35
-0.355
-0.35
-0.33
-0.345
-0.345
-0.35
-0.365
-0.345
-0.335
-0.335
-0.345
-0.34
-0.345
-0.33
-0.31
-0.32
-0.315
-0.33
-0.335
-0.33
-0.32
-0.315
-0.33
-0.345
-0.35
-0.33
-0.325
-0.32
-0.335
-0.33
-0.35
-0.33
-0.325
-0.33
-0.32
-0.345
-0.35
-0.33
-0.315
-0.315
-0.315
-0.33
-0.32
-0.31
-0.27
-0.255
-0.27
-0.275
-0.26
-0.25
-0.21
-0.195
-0.19
-0.21
-0.215
-0.205
-0.205
-0.21
-0.24
-0.275
-0.275
-0.28
-0.275
-0.29
-0.31
-0.325
-0.35
-0.335
-0.325
-0.34
-0.355
-0.375
-0.365
-0.355
-0.335
-0.33
-0.335
-0.36
-0.36
-0.345
-0.345
-0.35
-0.35
-0.375
-0.36
-0.345
-0.325
-0.325
-0.33
-0.345
-0.35
-0.34
-0.33
-0.33
-0.36
-0.35
-0.295
-0.145
0.055
0.345
0.69
1.025
1.32
1.535
1.635
1.475
1.01
0.405
-0.195
-0.52
-0.555
-0.455
-0.405
-0.395
-0.4
-0.36
-0.315
-0.31
-0.345
-0.37
-0.375
-0.365
-0.345
-0.35
-0.35
-0.355
-0.355
-0.355
-0.335
-0.33
-0.345
-0.355
-0.35
-0.34
-0.325
-0.315
-0.32
-0.34
-0.34
-0.32
-0.32
-0.315
-0.3
-0.3
-0.3
-0.295
-0.265
-0.26
-0.27
-0.285
-0.275
-0.26
-0.235
-0.225
-0.225
-0.235
-0.225
-0.225
-0.2
-0.195
-0.185
-0.2
-0.18
-0.16
-0.125
-0.11
-0.095
-0.095
-0.085
-0.06
-0.04
-0.015
0.005
0.025
0.045
0.065
0.09
0.105
0.125
0.135
0.145
0.18
0.21
0.24
0.225
0.21
0.23
0.245
0.245
0.24
0.21
0.175
0.14
0.13
0.125
0.085
0.055
-0.015
-0.04
-0.06
-0.085
-0.115
-0.155
-0.19
-0.215
-0.225
-0.23
-0.245
-0.275
-0.295
-0.31
-0.315
-0.315
-0.31
-0.335
-0.35
-0.34
-0.345
-0.325
-0.32
-0.345
-0.36
-0.365
-0.35
-0.335
-0.335
-0.35
-0.36
-0.365
-0.375
-0.345
-0.345
-0.35
-0.365
-0.35
-0.35
-0.335
-0.35
-0.35
-0.375
-0.36
-0.35
-0.335
-0.345
-0.34
-0.36
-0.365
-0.35
-0.33
-0.33
-0.335
-0.35
-0.345
-0.34
-0.325
-0.33
-0.345
-0.345
-0.34
-0.325
-0.32
-0.325
-0.335
-0.325
-0.34
-0.315
-0.29
-0.275
-0.275
-0.29
-0.275
-0.255
-0.24
-0.225
-0.21
-0.215
-0.215
-0.185
-0.18
-0.175
-0.18
-0.22
-0.235
-0.23
-0.23
-0.24
-0.27
-0.275
-0.285
-0.295
-0.3
-0.31
-0.32
-0.345
-0.35
-0.34
-0.33
-0.335
-0.35
-0.35
-0.36
-0.35
-0.34
-0.34
-0.345
-0.375
-0.38
-0.35
-0.345
-0.34
-0.345
-0.355
-0.355
-0.355
-0.345
-0.325
-0.34
-0.34
-0.355
-0.345
-0.32
-0.235
-0.07
0.21
0.615
1.05
1.44
1.675
1.575
1.06
0.42
-0.22
-0.57
-0.49
-0.39
-0.365
-0.375
-0.36
-0.305
-0.28
-0.31
-0.345
-0.34
-0.34
-0.32
-0.325
-0.34
-0.335
-0.335
-0.325
-0.335
-0.315
-0.32
-0.335
-0.335
-0.32
-0.31
-0.3
-0.3
-0.315
-0.305
-0.29
-0.28
-0.26
-0.275
-0.28
-0.275
-0.29
-0.265
-0.235
-0.245
-0.26
-0.24
-0.23
-0.21
-0.205
-0.195
-0.215
-0.215
-0.2
-0.16
-0.15
-0.155
-0.15
-0.155
-0.13
-0.1
-0.085
-0.075
-0.095
-0.075
-0.035
0.0
0.01
0.025
0.03
0.05
0.085
0.125
0.145
0.14
0.155
0.155
0.195
0.225
0.24
0.25
0.245
0.25
0.27
0.27
0.27
0.26
0.23
0.215
0.195
0.175
0.15
0.115
0.065
0.03
0.015
-0.01
-0.045
-0.085
-0.13
-0.145
-0.16
-0.16
-0.185
-0.2
-0.24
-0.245
-0.245
-0.23
-0.25
-0.26
-0.275
-0.29
-0.28
-0.265
-0.26
-0.28
-0.295
-0.3
-0.285
-0.285
-0.285
-0.3
-0.33
-0.33
-0.325
-0.295
-0.29
-0.305
-0.32
-0.315
-0.315
-0.3
-0.3
-0.29
-0.31
-0.31
-0.3
-0.285
-0.29
-0.295
-0.295
-0.29
-0.275
-0.265
-0.255
-0.27
-0.29
-0.28
-0.29
-0.265
-0.25
-0.255
-0.28
-0.275
-0.25
-0.245
-0.235
-0.24
-0.25
-0.275
-0.26
-0.24
-0.25
-0.255
-0.255
-0.26
-0.255
-0.235
-0.23
-0.24
-0.26
-0.25
-0.24
-0.235
-0.225
-0.225
-0.24
-0.225
-0.22
-0.21
-0.195
-0.19
-0.175
-0.125
-0.075
-0.005
0.04
0.09
0.145
0.215
0.3
0.41
0.495
0.56
0.6
0.675
0.74
0.81
0.87
0.925
0.99
1.025
1.075
1.155
1.225
1.3
1.325
1.315
1.275
1.21
1.13
1.06
1.015
0.97
0.935
0.92
0.905
0.885
0.865
0.85
0.875
0.92
0.96
0.995
1.03
1.06
1.035
0.97
0.84
0.665
0.415
0.195
-0.035
-0.185
-0.29
-0.38
-0.44
-0.46
-0.48
-0.475
-0.49
-0.515
-0.565
-0.58
-0.585
-0.585
-0.575
-0.59
-0.625
-0.625
-0.64
-0.62
-0.625
-0.64
-0.64
-0.65
-0.66
-0.655
-0.65
-0.665
-0.685
-0.7
-0.69
-0.695
-0.69
-0.695
-0.73
-0.735
-0.73
-0.72
-0.725
-0.74
-0.755
-0.745
-0.755
-0.74
-0.755
-0.755
-0.77
-0.765
-0.76
-0.745
-0.73
-0.755
-0.765
-0.775
-0.755
-0.725
-0.72
-0.715
-0.735
-0.735
-0.71
-0.695
-0.67
-0.66
-0.655
-0.64
-0.59
-0.57
-0.54
-0.52
-0.515
-0.505
-0.455
-0.4
-0.365
-0.365
-0.35
-0.335
-0.31
-0.275
-0.25
-0.245
-0.24
-0.245
-0.23
-0.205
-0.215
-0.23
-0.245
-0.26
-0.255
-0.25
-0.245
-0.26
-0.29
-0.31
-0.3
-0.28
-0.285
-0.3
-0.295
-0.31
-0.3
-0.295
-0.3
-0.305
-0.32
-0.33
-0.32
-0.31
-0.315
-0.31
-0.32
-0.335
-0.31
-0.3
-0.29
-0.295
-0.3
-0.315
-0.305
-0.295
-0.285
-0.29
-0.3
-0.305
-0.3
-0.28
-0.27
-0.28
-0.3
-0.3
-0.29
-0.28
-0.275
-0.275
-0.29
-0.29
-0.28
-0.275
-0.255
-0.28
-0.27
-0.275
-0.27
-0.25
-0.255
-0.265
-0.27
-0.285
-0.26
-0.255
-0.24
-0.25
-0.265
-0.27
-0.26
-0.245
-0.24
-0.235
-0.255
-0.25
-0.25
-0.235
-0.235
-0.235
-0.26
-0.26
-0.255
-0.23
-0.23
-0.235
-0.24
-0.25
-0.245
-0.22
-0.23
-0.225
-0.235
-0.27
-0.25
-0.23
-0.225
-0.225
-0.25
-0.245
-0.23
-0.205
-0.21
-0.22
-0.23
-0.235
-0.23
-0.21
-0.215
-0.21
-0.225
-0.235
-0.23
-0.22
-0.21
-0.205
-0.22
-0.235
-0.22
-0.22
-0.205
-0.21
-0.23
-0.23
-0.215
-0.185
-0.205
-0.2
-0.225
-0.215
-0.205
-0.185
-0.175
-0.185
-0.185
-0.185
-0.17
-0.145
-0.13
-0.11
-0.125
-0.12
-0.105
-0.075
-0.05
-0.05
-0.07
-0.075
-0.075
-0.06
-0.07
-0.09
-0.13
-0.14
-0.14
-0.135
-0.125
-0.14
-0.165
-0.165
-0.175
-0.17
-0.165
-0.19
-0.2
-0.21
-0.21
-0.195
-0.2
-0.21
-0.23
-0.245
-0.225
-0.2
-0.21
-0.225
-0.225
-0.225
-0.22
-0.23
-0.22
-0.215
-0.22
-0.225
-0.22
-0.185
-0.19
-0.205
-0.195
-0.21
-0.21
-0.195
-0.18
-0.185
-0.205
-0.2
-0.14
-0.04
0.11
0.305
0.57
0.88
1.185
1.46
1.655
1.695
1.485
1.1
0.645
0.215
-0.135
-0.27
-0.28
-0.265
-0.255
-0.255
-0.25
-0.215
-0.195
-0.195
-0.195
-0.19
-0.185
-0.195
-0.22
-0.25
-0.23
-0.2
-0.2
-0.205
-0.21
-0.225
-0.21
-0.21
-0.195
-0.195
-0.2
-0.21
-0.205
-0.19
-0.175
-0.175
-0.185
-0.185
-0.185
-0.185
-0.165
-0.17
-0.165
-0.165
-0.155
-0.15
-0.14
-0.13
-0.16
-0.155
-0.135
-0.125
-0.115
-0.105
-0.12
-0.11
-0.09
-0.08
-0.07
-0.07
-0.065
-0.07
-0.06
-0.035
-0.01
-0.01
-0.015
-0.005
0.015
0.045
0.065
0.085
0.075
0.1
0.12
0.16
0.195
0.2
0.21
0.21
0.235
0.27
0.3
0.31
0.305
0.315
0.34
0.375
0.39
0.38
0.375
0.37
0.375
0.38
0.37
0.365
0.33
0.3
0.3
0.28
0.255
0.21
0.175
0.14
0.105
0.08
0.055
0.035
-0.01
-0.03
-0.055
-0.06
-0.065
-0.08
-0.115
-0.12
-0.125
-0.13
-0.13
-0.14
-0.16
-0.17
-0.17
-0.165
-0.175
-0.185
-0.2
-0.195
-0.19
-0.17
-0.175
-0.185
-0.19
-0.2
-0.195
-0.18
-0.17
-0.175
-0.185
-0.19
-0.175
-0.185
-0.165
-0.175
-0.195
-0.195
-0.19
-0.175
-0.17
-0.175
-0.205
-0.215
-0.195
-0.18
-0.18
-0.18
-0.2
-0.215
-0.21
-0.19
-0.185
-0.19
-0.21
-0.205
-0.19
-0.185
-0.17
-0.185
-0.21
-0.205
-0.195
-0.185
-0.19
-0.185
-0.19
-0.2
-0.19
-0.17
-0.165
-0.16
-0.17
-0.165
-0.15
-0.13
-0.115
-0.115
-0.105
-0.1
-0.07
-0.05
-0.04
-0.065
-0.095
-0.12
-0.12
-0.125
-0.125
-0.135
-0.14
-0.17
-0.18
-0.18
-0.18
-0.2
-0.22
-0.225
-0.185
-0.16
-0.12
-0.075
-0.035
0.015
0.085
0.165
0.245
0.33
0.375
0.44
0.505
0.575
0.645
0.69
0.76
0.835
0.94
1.035
1.14
1.25
1.35
1.405
1.41
1.37
1.32
1.265
1.25
1.27
1.31
1.38
1.43
1.49
1.545
1.63
1.695
1.685
1.57
1.305
0.985
0.665
0.395
0.14
-0.06
-0.21
-0.295
-0.37
-0.41
-0.42
-0.44
-0.465
-0.5
-0.52
-0.535
-0.535
-0.535
-0.55
-0.585
-0.59
-0.59
-0.575
-0.575
-0.595
-0.62
-0.625
-0.63
-0.6
-0.605
-0.61
-0.63
-0.645
-0.64
-0.62
-0.63
-0.64
-0.655
-0.67
-0.68
-0.685
-0.695
-0.69
-0.71
-0.725
-0.73
-0.725
-0.725
-0.74
-0.76
-0.765
-0.76
-0.74
-0.745
-0.755
-0.77
-0.785
-0.77
-0.765
-0.755
-0.755
-0.775
-0.775
-0.785
-0.76
-0.76
-0.75
-0.75
-0.745
-0.73
-0.7
-0.695
-0.68
-0.66
-0.64
-0.625
-0.595
-0.555
-0.525
-0.51
-0.5
-0.475
-0.435
-0.4
-0.375
-0.365
-0.345
-0.31
-0.29
-0.265
-0.25
-0.26
-0.27
-0.255
-0.235
-0.23
-0.24
-0.265
-0.265
-0.265
-0.265
-0.255
-0.265
-0.29
-0.3
-0.295
-0.275
-0.285
-0.285
-0.305
-0.325
-0.315
-0.29
-0.285
-0.285
-0.305
-0.31
-0.305
-0.305
-0.29
-0.3
-0.305
-0.315
-0.29
-0.27
-0.25
-0.26
-0.255
-0.265
-0.23
-0.175
-0.135
-0.095
-0.06
-0.025
0.055
0.14
0.205
0.27
0.315
0.37
0.455
0.545
0.63
0.685
0.735
0.8
0.86
0.895
0.95
1.025
1.065
1.105
1.13
1.12
1.06
0.98
0.905
0.835
0.805
0.775
0.785
0.795
0.76
0.78
0.81
0.85
0.9
0.935
0.935
0.88
0.785
0.655
0.47
0.265
0.04
-0.13
-0.235
-0.305
-0.325
-0.375
-0.395
-0.42
-0.42
-0.405
-0.42
-0.425
-0.46
-0.45
-0.44
-0.435
-0.425
-0.45
-0.475
-0.48
-0.495
-0.495
-0.505
-0.53
-0.55
-0.58
-0.59
-0.6
-0.605
-0.635
-0.66
-0.68
-0.675
-0.69
-0.68
-0.69
-0.725
-0.75
-0.755
-0.735
-0.73
-0.735
-0.75
-0.77
-0.77
-0.76
-0.755
-0.755
-0.77
-0.78
-0.785
-0.77
-0.77
-0.76
-0.785
-0.785
-0.765
-0.74
-0.725
-0.7
-0.715
-0.705
-0.675
-0.655
-0.63
-0.62
-0.6
-0.6
-0.565
-0.52
-0.495
-0.485
-0.455
-0.435
-0.42
-0.38
-0.36
-0.35
-0.34
-0.355
-0.335
-0.32
-0.305
-0.32
-0.335
-0.355
-0.35
-0.355
-0.35
-0.35
-0.355
-0.375
-0.375
-0.37
-0.365
-0.37
-0.39
-0.395
-0.39
-0.385
-0.37
-0.37
-0.385
-0.405
-0.385
-0.37
-0.35
-0.35
-0.36
-0.375
-0.375
-0.35
-0.345
-0.34
-0.36
-0.36
-0.35
-0.345
-0.335
-0.335
-0.345
-0.34
-0.325
-0.315
-0.32
-0.32
-0.325
-0.34
-0.345
-0.325
-0.325
-0.315
-0.33
-0.35
-0.345
-0.33
-0.31
-0.315
-0.32
-0.325
-0.32
-0.295
-0.3
-0.3
-0.315
-0.32
-0.31
-0.305
-0.3
-0.305
-0.32
-0.315
-0.32
-0.31
-0.305
-0.305
-0.32
-0.325
-0.32
-0.3
-0.29
-0.295
-0.315
-0.31
-0.31
-0.29
-0.295
-0.29
-0.31
-0.32
-0.315
-0.305
-0.28
-0.295
-0.3
-0.31
-0.305
-0.295
-0.29
-0.295
-0.305
-0.335
-0.305
-0.295
-0.285
-0.285
-0.315
-0.3
-0.3
-0.285
-0.28
-0.275
-0.3
-0.305
-0.29
-0.28
-0.27
-0.27
-0.295
-0.305
-0.295
-0.285
-0.27
-0.28
-0.305
-0.3
-0.285
-0.28
-0.27
-0.285
-0.29
-0.285
-0.285
-0.28
-0.27
-0.28
-0.28
-0.29
-0.285
-0.27
-0.265
-0.26
-0.29
-0.295
-0.28
-0.26
-0.25
-0.255
-0.28
-0.29
-0.29
-0.265
-0.255
-0.265
-0.28
-0.29
-0.275
-0.265
-0.26
-0.255
-0.27
-0.28
-0.27
-0.255
-0.25
-0.255
-0.275
-0.29
-0.275
-0.265
-0.265
-0.26
-0.275
-0.28
-0.28
-0.265
-0.255
-0.25
-0.26
-0.265
-0.26
-0.26
-0.24
-0.245
-0.26
-0.27
-0.26
-0.25
-0.235
-0.235
-0.24
-0.235
-0.225
-0.2
-0.175
-0.17
-0.18
-0.17
-0.16
-0.13
-0.1
-0.1
-0.115
-0.12
-0.12
-0.115
-0.115
-0.115
-0.15
-0.175
-0.19
-0.18
-0.19
