Lead II
-0.275
-0.26
-0.27
-0.265
-0.275
-0.27
-0.26
-0.25
-0.25
-0.26
-0.26
-0.26
-0.255
-0.25
-0.25
-0.255
-0.26
-0.265
-0.25
-0.235
-0.235
-0.255
-0.25
-0.255
-0.23
-0.235
-0.225
-0.23
-0.23
-0.225
-0.21
-0.2
-0.2
-0.205
-0.205
-0.2
-0.19
-0.185
-0.195
-0.2
-0.195
-0.205
-0.215
-0.23
-0.245
-0.26
-0.25
-0.185
-0.065
0.09
0.25
0.385
0.49
0.59
0.69
0.825
0.995
1.155
1.29
1.42
1.55
1.65
1.685
1.675
1.66
1.615
1.525
1.385
1.175
0.99
0.83
0.7
0.565
0.405
0.2
-0.03
-0.24
-0.4
-0.53
-0.66
-0.76
-0.835
-0.89
-0.91
-0.9
-0.88
-0.875
-0.865
-0.88
-0.855
-0.8
-0.755
-0.71
-0.68
-0.67
-0.65
-0.62
-0.58
-0.565
-0.545
-0.535
-0.515
-0.505
-0.475
-0.48
-0.475
-0.485
-0.485
-0.47
-0.47
-0.475
-0.485
-0.495
-0.51
-0.5
-0.5
-0.51
-0.53
-0.53
-0.535
-0.53
-0.53
-0.535
-0.545
-0.545
-0.55
-0.545
-0.54
-0.555
-0.56
-0.57
-0.565
-0.555
-0.545
-0.55
-0.555
-0.555
-0.545
-0.54
-0.525
-0.515
-0.515
-0.51
-0.5
-0.49
-0.475
-0.46
-0.455
-0.455
-0.43
-0.41
-0.375
-0.37
-0.365
-0.345
-0.33
-0.3
-0.275
-0.26
-0.25
-0.24
-0.23
-0.2
-0.175
-0.165
-0.155
-0.155
-0.13
-0.1
-0.075
-0.07
-0.065
-0.055
-0.04
-0.02
0.01
0.015
0.015
0.01
0.02
0.04
0.04
0.04
0.03
0.04
0.04
0.04
0.04
0.04
0.03
0.025
0.015
0.025
0.03
0.015
-0.005
-0.01
-0.015
-0.015
-0.015
-0.01
-0.03
-0.04
-0.065
-0.04
-0.035
-0.05
-0.055
-0.07
-0.05
-0.03
-0.02
-0.03
-0.035
-0.03
-0.035
-0.015
-0.005
-0.01
0.01
0.0
0.015
0.025
0.045
0.035
0.02
0.025
0.025
0.015
0.01
0.015
0.0
0.0
0.01
0.02
0.035
0.025
0.02
0.0
-0.03
-0.045
-0.065
-0.11
-0.14
-0.18
-0.2
-0.205
-0.22
-0.225
-0.235
-0.245
-0.25
-0.255
-0.235
-0.235
-0.24
-0.26
-0.24
-0.24
-0.23
-0.23
-0.23
-0.245
-0.25
-0.235
-0.225
-0.225
-0.245
-0.245
-0.23
-0.215
-0.21
-0.21
-0.22
-0.22
-0.225
-0.215
-0.2
-0.195
-0.21
-0.215
-0.205
-0.205
-0.185
-0.2
-0.195
-0.195
-0.19
-0.195
-0.185
-0.2
-0.22
-0.24
-0.26
-0.25
-0.235
-0.18
-0.075
0.065
0.225
0.385
0.525
0.615
0.71
0.835
1.02
1.19
1.37
1.515
1.635
1.7
1.73
1.725
1.69
1.61
1.45
1.225
1.015
0.855
0.725
0.545
0.345
0.115
-0.13
-0.315
-0.475
-0.615
-0.755
-0.855
-0.9
-0.91
-0.915
-0.9
-0.895
-0.895
-0.9
-0.86
-0.805
-0.755
-0.715
-0.68
-0.675
-0.63
-0.595
-0.57
-0.555
-0.535
-0.525
-0.5
-0.48
-0.475
-0.475
-0.48
-0.49
-0.48
-0.47
-0.48
-0.5
-0.5
-0.52
-0.495
-0.5
-0.515
-0.53
-0.53
-0.535
-0.52
-0.53
-0.52
-0.535
-0.545
-0.55
-0.55
-0.53
-0.545
-0.56
-0.57
-0.57
-0.565
-0.55
-0.55
-0.555
-0.555
-0.555
-0.55
-0.525
-0.52
-0.52
-0.51
-0.52
-0.49
-0.455
-0.46
-0.465
-0.46
-0.425
-0.415
-0.385
-0.37
-0.36
-0.35
-0.34
-0.315
-0.295
-0.27
-0.26
-0.24
-0.22
-0.185
-0.16
-0.15
-0.135
-0.14
-0.125
-0.085
-0.07
-0.055
-0.04
-0.04
-0.03
-0.02
0.01
0.02
0.02
0.015
0.02
0.035
0.05
0.04
0.04
0.04
0.025
0.035
0.04
0.035
0.03
0.01
0.005
0.02
0.025
0.015
-0.005
-0.025
-0.02
-0.025
-0.02
-0.02
-0.035
-0.05
-0.05
-0.05
-0.04
-0.05
-0.065
-0.06
-0.05
-0.045
-0.035
-0.035
-0.03
-0.035
-0.04
-0.045
-0.03
-0.005
-0.015
0.005
-0.005
-0.005
0.025
0.025
0.015
0.01
0.01
0.015
0.0
-0.005
-0.01
-0.015
0.0
0.0
0.015
0.02
0.01
0.0
-0.025
-0.03
-0.05
-0.08
-0.125
-0.16
-0.175
-0.195
-0.205
-0.22
-0.245
-0.26
-0.265
-0.245
-0.255
-0.265
-0.27
-0.275
-0.27
-0.25
-0.25
-0.255
-0.26
-0.26
-0.26
-0.25
-0.24
-0.245
-0.25
-0.26
-0.25
-0.24
-0.235
-0.235
-0.24
-0.24
-0.245
-0.22
-0.22
-0.22
-0.215
-0.225
-0.225
-0.22
-0.205
-0.2
-0.2
-0.21
-0.21
-0.195
-0.185
-0.195
-0.2
-0.21
-0.22
-0.225
-0.245
-0.255
-0.265
-0.235
-0.165
-0.025
0.155
0.32
0.47
0.575
0.685
0.83
1.01
1.19
1.355
1.485
1.625
1.71
1.76
1.76
1.72
1.635
1.49
1.285
1.085
0.905
0.73
0.555
0.35
0.115
-0.12
-0.335
-0.52
-0.675
-0.805
-0.875
-0.905
-0.935
-0.945
-0.945
-0.94
-0.935
-0.9
-0.885
-0.85
-0.81
-0.765
-0.725
-0.685
-0.665
-0.655
-0.635
-0.605
-0.57
-0.54
-0.52
-0.515
-0.52
-0.515
-0.51
-0.5
-0.51
-0.52
-0.535
-0.56
-0.54
-0.54
-0.53
-0.545
-0.56
-0.57
-0.565
-0.555
-0.575
-0.58
-0.595
-0.59
-0.585
-0.57
-0.575
-0.59
-0.6
-0.6
-0.595
-0.58
-0.58
-0.6
-0.6
-0.59
-0.585
-0.565
-0.555
-0.565
-0.56
-0.55
-0.53
-0.505
-0.49
-0.495
-0.47
-0.45
-0.43
-0.41
-0.395
-0.375
-0.355
-0.35
-0.325
-0.285
-0.28
-0.275
-0.255
-0.23
-0.19
-0.17
-0.15
-0.14
-0.135
-0.12
-0.1
-0.07
-0.065
-0.065
-0.06
-0.035
-0.02
-0.005
0.005
0.005
-0.005
0.005
0.015
0.03
0.02
0.015
0.005
-0.005
0.01
0.01
0.01
-0.005
-0.015
-0.015
-0.015
-0.01
-0.025
-0.045
-0.055
-0.055
-0.055
-0.06
-0.065
-0.07
-0.095
-0.095
-0.08
-0.065
-0.06
-0.06
-0.07
-0.07
-0.05
-0.035
-0.045
-0.05
-0.065
-0.06
-0.03
-0.025
-0.01
-0.01
-0.015
-0.03
-0.015
0.0
-0.005
0.0
-0.02
-0.025
-0.035
-0.025
-0.015
-0.025
-0.02
-0.02
-0.01
0.01
-0.015
-0.03
-0.06
-0.075
-0.115
-0.125
-0.16
-0.19
-0.205
-0.25
-0.25
-0.255
-0.265
-0.275
-0.285
-0.28
-0.285
-0.265
-0.275
-0.295
-0.29
-0.295
-0.295
-0.265
-0.27
-0.3
-0.295
-0.285
-0.275
-0.255
-0.25
-0.265
-0.275
-0.265
-0.265
-0.25
-0.25
-0.26
-0.255
-0.265
-0.25
-0.24
-0.245
-0.245
-0.255
-0.25
-0.24
-0.225
-0.22
-0.235
-0.235
-0.24
-0.22
-0.215
-0.215
-0.22
-0.235
-0.23
-0.23
-0.225
-0.25
-0.275
-0.295
-0.295
-0.26
-0.185
-0.08
0.065
0.215
0.345
0.48
0.58
0.675
0.795
0.96
1.12
1.26
1.4
1.515
1.62
1.665
1.695
1.705
1.7
1.635
1.51
1.325
1.115
0.95
0.795
0.635
0.435
0.22
-0.015
-0.225
-0.395
-0.56
-0.69
-0.815
-0.89
-0.935
-0.955
-0.97
-0.96
-0.96
-0.965
-0.945
-0.925
-0.895
-0.855
-0.81
-0.77
-0.74
-0.7
-0.695
-0.67
-0.66
-0.635
-0.6
-0.57
-0.555
-0.54
-0.54
-0.545
-0.54
-0.525
-0.525
-0.53
-0.54
-0.545
-0.545
-0.55
-0.55
-0.56
-0.575
-0.57
-0.585
-0.565
-0.575
-0.595
-0.62
-0.625
-0.615
-0.6
-0.615
-0.62
-0.635
-0.63
-0.625
-0.615
-0.615
-0.615
-0.62
-0.635
-0.63
-0.62
-0.61
-0.62
-0.615
-0.625
-0.605
-0.585
-0.585
-0.59
-0.595
-0.58
-0.56
-0.52
-0.52
-0.515
-0.505
-0.495
-0.475
-0.445
-0.44
-0.425
-0.42
-0.405
-0.39
-0.37
-0.34
-0.34
-0.355
-0.325
-0.31
-0.275
-0.26
-0.25
-0.24
-0.23
-0.2
-0.175
-0.17
-0.17
-0.145
-0.14
-0.11
-0.085
-0.09
-0.095
-0.07
-0.075
-0.065
-0.045
-0.045
-0.05
-0.065
-0.05
-0.03
-0.025
-0.035
-0.05
-0.045
-0.055
-0.04
-0.04
-0.05
-0.055
-0.065
-0.08
-0.075
-0.07
-0.09
-0.1
-0.115
-0.115
-0.115
-0.105
-0.11
-0.13
-0.14
-0.15
-0.135
-0.125
-0.13
-0.125
-0.125
-0.13
-0.11
-0.105
-0.1
-0.1
-0.125
-0.14
-0.125
-0.095
-0.09
-0.09
-0.08
-0.08
-0.075
-0.045
-0.045
-0.065
-0.06
-0.065
-0.055
-0.055
-0.07
-0.075
-0.085
-0.095
-0.075
-0.065
-0.06
-0.065
-0.065
-0.075
-0.065
-0.07
-0.085
-0.125
-0.165
-0.195
-0.205
-0.22
-0.245
-0.275
-0.29
-0.31
-0.315
-0.305
-0.315
-0.325
-0.33
-0.34
-0.35
-0.315
-0.315
-0.325
-0.33
-0.34
-0.32
-0.31
-0.315
-0.315
-0.32
-0.33
-0.315
-0.3
-0.305
-0.315
-0.33
-0.32
-0.31
-0.3
-0.29
-0.31
-0.315
-0.31
-0.3
-0.295
-0.29
-0.29
-0.295
-0.295
-0.28
-0.275
-0.265
-0.28
-0.28
-0.285
-0.28
-0.255
-0.25
-0.255
-0.255
-0.27
-0.26
-0.25
-0.25
-0.265
-0.28
-0.305
-0.315
-0.32
-0.31
-0.295
-0.24
-0.12
0.03
0.19
0.315
0.43
0.52
0.605
0.73
0.88
1.035
1.175
1.32
1.45
1.58
1.66
1.675
1.675
1.67
1.64
1.57
1.435
1.225
1.02
0.88
0.72
0.58
0.44
0.245
0.055
-0.14
-0.31
-0.455
-0.565
-0.7
-0.825
-0.895
-0.95
-0.975
-0.985
-1.005
-1.0
-1.0
-0.98
-0.975
-0.955
-0.915
-0.875
-0.845
-0.81
-0.76
-0.73
-0.71
-0.705
-0.685
-0.665
-0.645
-0.6
-0.585
-0.58
-0.575
-0.57
-0.56
-0.545
-0.56
-0.575
-0.575
-0.575
-0.575
-0.56
-0.565
-0.585
-0.585
-0.6
-0.59
-0.58
-0.59
-0.605
-0.61
-0.62
-0.615
-0.6
-0.615
-0.63
-0.625
-0.635
-0.64
-0.625
-0.63
-0.635
-0.635
-0.65
-0.635
-0.625
-0.625
-0.625
-0.625
-0.63
-0.605
-0.59
-0.595
-0.595
-0.58
-0.575
-0.565
-0.54
-0.53
-0.515
-0.525
-0.51
-0.475
-0.45
-0.435
-0.425
-0.415
-0.405
-0.36
-0.34
-0.325
-0.315
-0.3
-0.285
-0.255
-0.225
-0.21
-0.2
-0.2
-0.185
-0.155
-0.125
-0.12
-0.12
-0.11
-0.115
-0.08
-0.05
-0.07
-0.05
-0.055
-0.06
-0.04
-0.025
-0.015
-0.02
-0.035
-0.04
-0.02
-0.02
-0.02
-0.03
-0.035
-0.05
-0.05
-0.045
-0.05
-0.065
-0.075
-0.08
-0.085
-0.08
-0.085
-0.1
-0.1
-0.105
-0.105
-0.09
-0.105
-0.11
-0.1
-0.095
-0.09
-0.07
-0.075
-0.08
-0.105
-0.1
-0.075
-0.07
-0.05
-0.04
-0.045
-0.055
-0.035
-0.025
-0.025
-0.03
-0.035
-0.04
-0.04
-0.04
-0.05
-0.05
-0.05
-0.05
-0.04
-0.03
-0.025
-0.03
-0.055
-0.07
-0.085
-0.105
-0.135
-0.175
-0.2
-0.235
-0.245
-0.245
-0.28
-0.285
-0.3
-0.305
-0.3
-0.285
-0.29
-0.3
-0.295
-0.3
-0.295
-0.29
-0.285
-0.285
-0.295
-0.305
-0.29
-0.275
-0.27
-0.27
-0.275
-0.275
-0.27
-0.26
-0.26
-0.275
-0.275
-0.275
-0.27
-0.26
-0.255
-0.26
-0.27
-0.265
-0.25
-0.245
-0.26
-0.26
-0.255
-0.26
-0.245
-0.235
-0.245
-0.245
-0.245
-0.245
-0.24
-0.23
-0.235
-0.26
-0.295
-0.305
-0.305
-0.28
-0.24
-0.18
-0.07
0.07
0.22
0.365
0.465
0.535
0.61
0.74
0.9
1.065
1.2
1.33
1.46
1.57
1.665
1.72
1.715
1.705
1.655
1.56
1.415
1.215
1.025
0.875
0.705
0.535
0.35
0.155
-0.065
-0.28
-0.455
-0.61
-0.725
-0.815
-0.9
-0.94
-0.97
-0.985
-0.975
-0.945
-0.955
-0.94
-0.935
-0.925
-0.875
-0.815
-0.775
-0.75
-0.74
-0.72
-0.7
-0.67
-0.645
-0.635
-0.605
-0.59
-0.56
-0.545
-0.55
-0.545
-0.54
-0.555
-0.545
-0.53
-0.535
-0.55
-0.56
-0.565
-0.57
-0.555
-0.56
-0.575
-0.575
-0.585
-0.58
-0.585
-0.58
-0.59
-0.6
-0.6
-0.59
-0.595
-0.595
-0.615
-0.615
-0.615
-0.615
-0.605
-0.62
-0.605
-0.625
-0.615
-0.61
-0.595
-0.6
-0.605
-0.595
-0.595
-0.58
-0.57
-0.56
-0.565
-0.55
-0.535
-0.51
-0.47
-0.495
-0.475
-0.46
-0.445
-0.41
-0.39
-0.36
-0.355
-0.345
-0.325
-0.31
-0.285
-0.275
-0.27
-0.255
-0.245
-0.205
-0.19
-0.165
-0.15
-0.145
-0.14
-0.115
-0.095
-0.085
-0.08
-0.06
-0.06
-0.045
-0.03
-0.025
-0.05
-0.045
-0.035
-0.025
-0.015
-0.015
-0.02
-0.03
-0.03
-0.025
-0.02
-0.02
-0.035
-0.055
-0.055
-0.05
-0.055
-0.055
-0.075
-0.1
-0.105
-0.105
-0.105
-0.1
-0.12
-0.13
-0.125
-0.12
-0.09
-0.09
-0.095
-0.095
-0.09
-0.08
-0.075
-0.08
-0.085
-0.085
-0.075
-0.06
-0.045
-0.04
-0.04
-0.055
-0.05
-0.035
-0.03
-0.04
-0.06
-0.07
-0.07
-0.055
-0.04
-0.045
-0.04
-0.045
-0.05
-0.06
-0.055
-0.075
-0.12
-0.14
-0.175
-0.19
-0.205
-0.235
-0.265
-0.285
-0.29
-0.29
-0.29
-0.29
-0.3
-0.3
-0.31
-0.3
-0.285
-0.295
-0.3
-0.305
-0.305
-0.29
-0.275
-0.275
-0.29
-0.29
-0.3
-0.275
-0.265
-0.27
-0.28
-0.275
-0.28
-0.275
-0.25
-0.265
-0.255
-0.265
-0.27
-0.265
-0.245
-0.245
-0.255
-0.255
-0.25
-0.24
-0.225
-0.23
-0.235
-0.235
-0.26
-0.25
-0.255
-0.29
-0.31
-0.32
-0.305
-0.235
-0.12
0.05
0.21
0.365
0.495
0.59
0.71
0.87
1.045
1.21
1.37
1.53
1.65
1.715
1.72
1.7
1.65
1.56
1.395
1.18
0.985
0.82
0.665
0.505
0.335
0.11
-0.12
-0.34
-0.515
-0.655
-0.76
-0.855
-0.92
-0.965
-0.99
-0.99
-0.965
-0.96
-0.96
-0.965
-0.955
-0.91
-0.845
-0.805
-0.765
-0.745
-0.73
-0.685
-0.66
-0.635
-0.625
-0.605
-0.595
-0.565
-0.545
-0.535
-0.535
-0.54
-0.545
-0.545
-0.53
-0.54
-0.545
-0.555
-0.56
-0.555
-0.56
-0.575
-0.58
-0.595
-0.61
-0.6
-0.585
-0.585
-0.605
-0.61
-0.605
-0.615
-0.59
-0.6
-0.61
-0.625
-0.645
-0.625
-0.605
-0.61
-0.62
-0.625
-0.635
-0.625
-0.605
-0.605
-0.6
-0.61
-0.59
-0.585
-0.56
-0.56
-0.565
-0.555
-0.545
-0.54
-0.505
-0.5
-0.48
-0.47
-0.465
-0.44
-0.41
-0.395
-0.39
-0.39
-0.37
-0.36
-0.315
-0.3
-0.28
-0.27
-0.265
-0.235
-0.215
-0.2
-0.185
-0.18
-0.175
-0.15
-0.13
-0.11
-0.09
-0.1
-0.08
-0.065
-0.045
-0.035
-0.035
-0.04
-0.045
-0.025
-0.02
-0.01
-0.025
-0.045
-0.05
-0.025
-0.015
-0.035
-0.04
-0.06
-0.07
-0.065
-0.055
-0.08
-0.085
-0.105
-0.105
-0.105
-0.095
-0.1
-0.11
-0.125
-0.13
-0.125
-0.095
-0.1
-0.1
-0.105
-0.09
-0.09
-0.09
-0.095
-0.09
-0.09
-0.08
-0.065
-0.05
-0.05
-0.045
-0.045
-0.045
-0.03
-0.035
-0.04
-0.06
-0.075
-0.095
-0.08
-0.055
-0.055
-0.055
-0.06
-0.07
-0.055
-0.06
-0.075
-0.125
-0.165
-0.205
-0.215
-0.21
-0.24
-0.27
-0.285
-0.305
-0.295
-0.285
-0.29
-0.3
-0.315
-0.315
-0.31
-0.3
-0.305
-0.315
-0.315
-0.315
-0.305
-0.295
-0.29
-0.305
-0.315
-0.31
-0.295
-0.275
-0.285
-0.29
-0.285
-0.295
-0.285
-0.275
-0.265
-0.275
-0.29
-0.275
-0.27
-0.25
-0.265
-0.26
-0.26
-0.265
-0.255
-0.24
-0.235
-0.235
-0.245
-0.245
-0.24
-0.235
-0.245
-0.265
-0.285
-0.3
-0.29
-0.25
-0.18
-0.06
0.1
0.25
0.41
0.55
0.645
0.745
0.875
1.04
1.2
1.365
1.505
1.62
1.68
1.705
1.7
1.67
1.615
1.49
1.285
1.085
0.91
0.79
0.61
0.425
0.23
0.03
-0.175
-0.36
-0.525
-0.675
-0.795
-0.895
-0.945
-0.96
-0.975
-1.0
-0.99
-0.98
-0.955
-0.935
-0.935
-0.915
-0.87
-0.84
-0.8
-0.76
-0.735
-0.715
-0.7
-0.67
-0.65
-0.585
-0.585
-0.58
-0.565
-0.56
-0.545
-0.545
-0.54
-0.55
-0.56
-0.57
-0.555
-0.55
-0.56
-0.57
-0.585
-0.6
-0.585
-0.575
-0.585
-0.585
-0.605
-0.615
-0.61
-0.61
-0.615
-0.63
-0.65
-0.645
-0.62
-0.61
-0.615
-0.63
-0.64
-0.64
-0.63
-0.61
-0.615
-0.62
-0.62
-0.625
-0.615
-0.59
-0.59
-0.58
-0.585
-0.575
-0.55
-0.52
-0.515
-0.51
-0.5
-0.475
-0.46
-0.44
-0.425
-0.415
-0.4
-0.39
-0.36
-0.345
-0.32
-0.325
-0.31
-0.29
-0.255
-0.235
-0.22
-0.205
-0.2
-0.19
-0.155
-0.13
-0.13
-0.115
-0.105
-0.105
-0.085
-0.07
-0.075
-0.07
-0.075
-0.075
-0.045
-0.04
-0.04
-0.045
-0.045
-0.065
-0.055
-0.035
-0.05
-0.065
-0.07
-0.075
-0.075
-0.07
-0.08
-0.09
-0.11
-0.12
-0.115
-0.11
-0.125
-0.13
-0.145
-0.14
-0.13
-0.115
-0.12
-0.125
-0.135
-0.12
-0.095
-0.095
-0.105
-0.11
-0.135
-0.12
-0.095
-0.09
-0.085
-0.08
-0.07
-0.075
-0.06
-0.05
-0.055
-0.055
-0.08
-0.1
-0.08
-0.06
-0.075
-0.07
-0.075
-0.08
-0.07
-0.07
-0.09
-0.125
-0.16
-0.2
-0.205
-0.225
-0.255
-0.28
-0.32
-0.34
-0.325
-0.315
-0.315
-0.335
-0.345
-0.345
-0.335
-0.315
-0.325
-0.33
-0.34
-0.33
-0.32
-0.315
-0.315
-0.31
-0.315
-0.325
-0.325
-0.315
-0.31
-0.315
-0.325
-0.32
-0.3
-0.29
-0.3
-0.295
-0.315
-0.315
-0.3
-0.29
-0.28
-0.28
-0.295
-0.285
-0.265
-0.255
-0.26
-0.265
-0.27
-0.29
-0.29
-0.285
-0.305
-0.31
-0.295
-0.22
-0.055
0.115
0.275
0.42
0.525
0.62
0.735
0.9
1.045
1.185
1.315
1.42
1.495
1.525
1.5
1.47
1.4
1.265
1.075
0.89
0.73
0.565
0.405
0.225
0.02
-0.19
-0.38
-0.555
-0.695
-0.81
-0.875
-0.91
-0.935
-0.95
-0.945
-0.935
-0.92
-0.91
-0.89
-0.865
-0.825
-0.79
-0.745
-0.705
-0.68
-0.67
-0.645
-0.625
-0.61
-0.555
-0.56
-0.555
-0.555
-0.545
-0.53
-0.53
-0.535
-0.53
-0.54
-0.555
-0.545
-0.54
-0.55
-0.555
-0.57
-0.57
-0.565
-0.565
-0.565
-0.58
-0.59
-0.59
-0.585
-0.58
-0.58
-0.59
-0.6
-0.615
-0.605
-0.595
-0.59
-0.59
-0.6
-0.6
-0.58
-0.575
-0.58
-0.575
-0.58
-0.58
-0.555
-0.545
-0.53
-0.53
-0.52
-0.51
-0.495
-0.47
-0.465
-0.45
-0.445
-0.43
-0.405
-0.375
-0.36
-0.355
-0.345
-0.33
-0.305
-0.285
-0.265
-0.25
-0.24
-0.23
-0.21
-0.185
-0.17
-0.17
-0.165
-0.155
-0.12
-0.1
-0.1
-0.095
-0.1
-0.085
-0.065
-0.05
-0.05
-0.05
-0.06
-0.05
-0.055
-0.03
-0.035
-0.035
-0.045
-0.055
-0.045
-0.04
-0.045
-0.055
-0.07
-0.075
-0.065
-0.075
-0.085
-0.08
-0.095
-0.1
-0.095
-0.085
-0.095
-0.1
-0.105
-0.1
-0.085
-0.075
-0.07
-0.07
-0.08
-0.09
-0.085
-0.075
-0.07
-0.065
-0.065
-0.07
-0.045
-0.03
-0.02
-0.035
-0.05
-0.045
-0.045
-0.05
-0.06
-0.07
-0.07
-0.075
-0.05
-0.045
-0.04
-0.045
-0.055
-0.075
-0.07
-0.08
-0.11
-0.15
-0.185
-0.215
-0.23
-0.235
-0.275
-0.285
-0.305
-0.315
-0.315
-0.3
-0.32
-0.315
-0.33
-0.325
-0.31
-0.3
-0.3
-0.31
-0.31
-0.31
-0.305
-0.295
-0.3
-0.3
-0.315
-0.31
-0.295
-0.295
-0.285
-0.285
-0.295
-0.29
-0.28
-0.275
-0.275
-0.27
-0.29
-0.285
-0.28
-0.265
-0.25
-0.27
-0.27
-0.26
-0.265
-0.25
-0.245
-0.255
-0.26
-0.265
-0.265
-0.275
-0.305
-0.315
-0.315
-0.265
-0.16
-0.02
0.15
0.28
0.39
0.47
0.58
0.73
0.88
1.045
1.185
1.315
1.43
1.51
1.53
1.535
1.52
1.45
1.33
1.135
0.945
0.78
0.635
0.465
0.295
0.1
-0.12
-0.315
-0.51
-0.65
-0.755
-0.825
-0.87
-0.905
-0.93
-0.935
-0.9
-0.88
-0.87
-0.875
-0.85
-0.805
-0.755
-0.705
-0.67
-0.665
-0.65
-0.625
-0.59
-0.555
-0.525
-0.52
-0.515
-0.51
-0.505
-0.48
-0.485
-0.5
-0.515
-0.525
-0.515
-0.51
-0.515
-0.53
-0.53
-0.545
-0.545
-0.53
-0.545
-0.555
-0.565
-0.57
-0.57
-0.565
-0.565
-0.595
-0.585
-0.59
-0.58
-0.58
-0.58
-0.585
-0.595
-0.6
-0.585
-0.565
-0.565
-0.57
-0.59
-0.575
-0.565
-0.545
-0.535
-0.535
-0.535
-0.535
-0.51
-0.495
-0.48
-0.47
-0.46
-0.45
-0.43
-0.405
-0.39
-0.38
-0.36
-0.36
-0.33
-0.3
-0.28
-0.265
-0.27
-0.25
-0.23
-0.21
-0.19
-0.175
-0.16
-0.155
-0.13
-0.105
-0.095
-0.085
-0.095
-0.085
-0.06
-0.045
-0.045
-0.04
-0.035
-0.04
-0.025
-0.01
-0.015
-0.025
-0.025
-0.035
-0.02
-0.02
-0.035
-0.03
-0.05
-0.05
-0.04
-0.04
-0.04
-0.055
-0.07
-0.07
-0.07
-0.07
-0.075
-0.085
-0.095
-0.095
-0.08
-0.055
-0.065
-0.065
-0.065
-0.07
-0.06
-0.06
-0.06
-0.065
-0.06
-0.06
-0.04
-0.025
-0.025
-0.035
-0.04
-0.035
-0.035
-0.035
-0.04
-0.07
-0.08
-0.085
-0.055
-0.04
-0.035
-0.035
-0.04
-0.04
-0.04
-0.055
-0.07
-0.09
-0.13
-0.16
-0.175
-0.19
-0.215
-0.25
-0.265
-0.285
-0.285
-0.275
-0.27
-0.29
-0.295
-0.305
-0.295
-0.285
-0.3
-0.295
-0.31
-0.3
-0.295
-0.285
-0.29
-0.295
-0.295
-0.305
-0.305
-0.295
-0.305
-0.33
-0.335
-0.36
-0.38
-0.37
-0.365
-0.39
-0.42
-0.44
-0.45
-0.455
-0.455
-0.445
-0.405
-0.345
-0.245
-0.18
-0.145
-0.12
-0.07
0.035
0.195
0.36
0.505
0.62
0.645
0.535
0.33
0.07
-0.21
-0.52
-0.775
-0.92
-0.955
-0.965
-0.945
-0.9
-0.925
-0.97
-1.005
-1.04
-1.055
-1.025
-0.975
-0.9
-0.795
-0.7
-0.61
-0.525
-0.46
-0.4
-0.37
-0.33
-0.31
-0.285
-0.27
-0.255
-0.23
-0.22
-0.215
-0.215
-0.23
-0.23
-0.215
-0.205
-0.205
-0.215
-0.24
-0.22
-0.21
-0.2
-0.21
-0.205
-0.22
-0.215
-0.205
-0.195
-0.19
-0.205
-0.215
-0.22
-0.2
-0.195
-0.185
-0.185
-0.185
-0.195
-0.175
-0.165
-0.16
-0.16
-0.165
-0.165
-0.145
-0.13
-0.11
-0.115
-0.105
-0.095
-0.08
-0.05
-0.04
-0.04
-0.04
-0.025
0.005
0.015
0.03
0.04
0.045
0.05
0.07
0.08
0.095
0.105
0.105
0.095
0.115
0.14
0.155
0.155
0.165
0.17
0.175
0.19
0.205
0.195
0.2
0.19
0.21
0.22
0.215
0.2
0.195
0.185
0.19
0.2
0.19
0.175
0.15
0.15
0.135
0.145
0.14
0.12
0.105
0.09
0.085
0.085
0.085
0.05
0.055
0.035
0.02
0.035
0.01
0.005
-0.015
-0.02
-0.025
-0.025
-0.03
-0.03
-0.04
-0.06
-0.045
-0.04
-0.045
-0.045
-0.055
-0.08
-0.065
-0.06
-0.06
-0.075
-0.09
-0.095
-0.07
-0.06
-0.055
-0.06
-0.065
-0.045
-0.035
-0.015
-0.01
-0.025
-0.025
-0.04
-0.025
0.0
0.01
0.01
0.01
0.015
0.025
0.045
0.05
0.045
0.04
0.015
0.02
0.025
0.02
0.005
0.005
0.0
0.025
0.03
0.03
0.015
-0.01
-0.02
-0.035
-0.065
-0.09
-0.115
-0.15
-0.18
-0.185
-0.2
-0.21
-0.23
-0.255
-0.255
-0.245
-0.25
-0.26
-0.26
-0.27
-0.27
-0.265
-0.26
-0.255
-0.275
-0.265
-0.265
-0.26
-0.255
-0.275
-0.255
-0.265
-0.275
-0.265
-0.26
-0.255
-0.26
-0.275
-0.275
-0.27
-0.26
-0.25
-0.265
-0.26
-0.265
-0.245
-0.23
-0.24
-0.245
-0.25
-0.24
-0.24
-0.235
-0.23
-0.23
-0.235
-0.225
-0.23
-0.21
-0.22
-0.25
-0.26
-0.28
-0.28
-0.255
-0.23
-0.17
-0.06
0.075
0.225
0.35
0.46
0.53
0.615
0.74
0.92
1.085
1.21
1.34
1.455
1.55
1.595
1.635
1.635
1.6
1.51
1.37
1.19
1.015
0.845
0.705
0.54
0.375
0.2
0.0
-0.205
-0.38
-0.515
-0.655
-0.75
-0.82
-0.89
-0.93
-0.95
-0.95
-0.92
-0.9
-0.9
-0.9
-0.89
-0.87
-0.81
-0.75
-0.725
-0.71
-0.7
-0.685
-0.655
-0.6
-0.575
-0.575
-0.575
-0.56
-0.545
-0.53
-0.525
-0.535
-0.545
-0.565
-0.54
-0.54
-0.535
-0.545
-0.555
-0.58
-0.565
-0.565
-0.565
-0.58
-0.58
-0.585
-0.59
-0.58
-0.595
-0.6
-0.615
-0.62
-0.615
-0.605
-0.605
-0.615
-0.62
-0.63
-0.615
-0.61
-0.61
-0.61
-0.61
-0.605
-0.58
-0.565
-0.565
-0.555
-0.545
-0.54
-0.53
-0.5
-0.475
-0.48
-0.47
-0.46
-0.435
-0.42
-0.4
-0.39
-0.375
-0.36
-0.335
-0.32
-0.285
-0.275
-0.26
-0.255
-0.23
-0.205
-0.2
-0.175
-0.155
-0.145
-0.135
-0.105
-0.1
-0.09
-0.09
-0.08
-0.06
-0.05
-0.045
-0.045
-0.045
-0.05
-0.025
-0.015
-0.02
-0.02
-0.035
-0.035
-0.025
-0.025
-0.025
-0.035
-0.05
-0.055
-0.05
-0.045
-0.065
-0.055
-0.065
-0.07
-0.05
-0.04
-0.04
-0.045
-0.07
-0.06
-0.055
-0.045
-0.055
-0.055
-0.06
-0.06
-0.045
-0.02
-0.015
-0.025
-0.045
-0.045
-0.035
-0.04
-0.06
-0.07
-0.085
-0.08
-0.075
-0.065
-0.06
-0.065
-0.065
-0.095
-0.1
-0.115
-0.145
-0.175
-0.22
-0.24
-0.255
-0.27
-0.29
-0.325
-0.34
-0.36
-0.355
-0.34
-0.345
-0.35
-0.36
-0.36
-0.345
-0.345
-0.345
-0.33
-0.345
-0.35
-0.34
-0.335
-0.33
-0.335
-0.345
-0.33
-0.325
-0.315
-0.32
-0.32
-0.325
-0.32
-0.305
-0.305
-0.3
-0.3
-0.305
-0.315
-0.295
-0.28
-0.285
-0.285
-0.29
-0.29
-0.3
-0.275
-0.265
-0.27
-0.28
-0.285
-0.275
-0.27
-0.28
-0.3
-0.33
-0.335
-0.325
-0.32
-0.27
-0.19
-0.075
0.055
0.21
0.35
0.45
0.515
0.615
0.76
0.92
1.09
1.225
1.355
1.44
1.52
1.565
1.585
1.57
1.53
1.435
1.27
1.075
0.915
0.76
0.615
0.465
0.305
0.12
-0.085
-0.295
-0.44
-0.595
-0.735
-0.82
-0.885
-0.91
-0.945
-0.96
-0.96
-0.93
-0.92
-0.915
-0.92
-0.905
-0.865
-0.805
-0.77
-0.745
-0.725
-0.71
-0.7
-0.665
-0.63
-0.605
-0.6
-0.575
-0.565
-0.555
-0.53
-0.535
-0.545
-0.545
-0.555
-0.54
-0.54
-0.55
-0.555
-0.565
-0.575
-0.555
-0.565
-0.56
-0.57
-0.595
-0.59
-0.585
-0.585
-0.585
-0.585
-0.605
-0.62
-0.6
-0.59
-0.61
-0.615
-0.61
-0.625
-0.605
-0.605
-0.605
-0.605
-0.61
-0.62
-0.605
-0.585
-0.58
-0.585
-0.59
-0.575
-0.56
-0.54
-0.54
-0.53
-0.535
-0.525
-0.495
-0.47
-0.465
-0.46
-0.45
-0.425
-0.41
-0.375
-0.355
-0.34
-0.335
-0.32
-0.295
-0.275
-0.265
-0.25
-0.245
-0.23
-0.205
-0.19
-0.16
-0.16
-0.15
-0.14
-0.11
-0.095
-0.085
-0.085
-0.085
-0.075
-0.07
-0.05
-0.045
-0.045
-0.05
-0.045
-0.04
-0.03
-0.02
-0.04
-0.05
-0.05
-0.05
-0.05
-0.04
-0.05
-0.085
-0.085
-0.08
-0.06
-0.08
-0.08
-0.095
-0.115
-0.115
-0.105
-0.1
-0.095
-0.11
-0.095
-0.08
-0.07
-0.075
-0.08
-0.1
-0.1
-0.095
-0.09
-0.08
-0.075
-0.085
-0.085
-0.065
-0.04
-0.03
-0.04
-0.055
-0.065
-0.045
-0.045
-0.055
-0.06
-0.08
-0.08
-0.06
-0.055
-0.05
-0.055
-0.055
-0.06
-0.055
-0.05
-0.07
-0.095
-0.125
-0.165
-0.16
-0.175
-0.205
-0.225
-0.26
-0.285
-0.27
-0.29
-0.275
-0.29
-0.295
-0.305
-0.3
-0.295
-0.3
-0.3
-0.305
-0.3
-0.3
-0.28
-0.295
-0.295
-0.305
-0.305
-0.29
-0.28
-0.285
-0.295
-0.305
-0.295
-0.3
-0.285
-0.275
-0.28
-0.29
-0.29
-0.28
-0.27
-0.27
-0.27
-0.275
-0.265
-0.25
-0.25
-0.25
-0.255
-0.265
-0.27
-0.245
-0.25
-0.245
-0.245
-0.24
-0.25
-0.25
-0.245
-0.245
-0.26
-0.285
-0.315
-0.32
-0.3
-0.275
-0.195
-0.095
0.025
0.165
0.3
0.42
0.495
0.565
0.66
0.825
0.985
1.12
1.245
1.375
1.48
1.56
1.61
1.61
1.59
1.56
1.465
1.34
1.165
0.98
0.82
0.68
0.525
0.38
0.21
-0.01
-0.225
-0.385
-0.535
-0.665
-0.76
-0.84
-0.9
-0.94
-0.965
-0.96
-0.945
-0.935
-0.935
-0.94
-0.945
-0.91
-0.875
-0.83
-0.795
-0.77
-0.75
-0.71
-0.685
-0.67
-0.66
-0.645
-0.625
-0.6
-0.57
-0.56
-0.56
-0.555
-0.545
-0.545
-0.535
-0.54
-0.535
-0.555
-0.565
-0.545
-0.555
-0.56
-0.575
-0.58
-0.58
-0.575
-0.58
-0.58
-0.595
-0.615
-0.605
-0.6
-0.595
-0.61
-0.62
-0.63
-0.635
-0.63
-0.615
-0.615
-0.635
-0.63
-0.62
-0.62
-0.615
-0.62
-0.62
-0.625
-0.635
-0.615
-0.595
-0.59
-0.595
-0.585
-0.575
-0.56
-0.545
-0.545
-0.545
-0.535
-0.53
-0.51
-0.48
-0.47
-0.46
-0.46
-0.445
-0.42
-0.395
-0.37
-0.365
-0.37
-0.345
-0.33
-0.31
-0.29
-0.275
-0.26
-0.245
-0.22
-0.2
-0.18
-0.17
-0.16
-0.165
-0.14
-0.12
-0.115
-0.11
-0.105
-0.1
-0.075
-0.065
-0.055
-0.06
-0.06
-0.07
-0.035
-0.04
-0.025
-0.03
-0.04
-0.06
-0.045
-0.045
-0.045
-0.06
-0.075
-0.075
-0.08
-0.08
-0.09
-0.095
-0.1
-0.11
-0.11
-0.09
-0.09
-0.095
-0.105
-0.095
-0.08
-0.08
-0.07
-0.09
-0.095
-0.105
-0.095
-0.085
-0.09
-0.09
-0.09
-0.07
-0.065
-0.045
-0.045
-0.075
-0.065
-0.07
-0.07
-0.065
-0.075
-0.08
-0.085
-0.095
-0.085
-0.08
-0.075
-0.085
-0.095
-0.1
-0.11
-0.12
-0.14
-0.18
-0.215
-0.225
-0.245
-0.25
-0.275
-0.3
-0.315
-0.33
-0.325
-0.32
-0.315
-0.33
-0.35
-0.35
-0.345
-0.325
-0.33
-0.32
-0.32
-0.33
-0.335
-0.315
-0.32
-0.33
-0.32
-0.325
-0.325
-0.315
-0.31
-0.305
-0.32
-0.325
-0.315
-0.31
-0.315
-0.305
-0.305
-0.31
-0.305
-0.29
-0.28
-0.29
-0.29
-0.295
-0.285
-0.29
-0.28
-0.275
-0.285
-0.29
-0.27
-0.255
-0.245
-0.27
-0.285
-0.315
