Lead II
-0.61
-0.6
-0.61
-0.605
-0.605
-0.605
-0.615
-0.625
-0.625
-0.61
-0.6
-0.59
-0.595
-0.615
-0.615
-0.635
-0.635
-0.63
-0.625
-0.635
-0.64
-0.63
-0.61
-0.595
-0.595
-0.61
-0.615
-0.61
-0.595
-0.575
-0.57
-0.565
-0.57
-0.56
-0.555
-0.545
-0.54
-0.54
-0.54
-0.51
-0.495
-0.47
-0.47
-0.495
-0.5
-0.485
-0.455
-0.42
-0.4
-0.405
-0.415
-0.41
-0.415
-0.4
-0.4
-0.405
-0.39
-0.37
-0.355
-0.33
-0.33
-0.33
-0.33
-0.305
-0.285
-0.26
-0.26
-0.265
-0.295
-0.295
-0.3
-0.295
-0.31
-0.33
-0.365
-0.4
-0.415
-0.45
-0.475
-0.5
-0.525
-0.55
-0.565
-0.57
-0.605
-0.64
-0.66
-0.665
-0.655
-0.655
-0.685
-0.71
-0.735
-0.72
-0.71
-0.695
-0.715
-0.73
-0.745
-0.735
-0.73
-0.72
-0.735
-0.74
-0.755
-0.755
-0.75
-0.74
-0.735
-0.755
-0.765
-0.76
-0.745
-0.74
-0.74
-0.77
-0.785
-0.785
-0.765
-0.745
-0.745
-0.755
-0.765
-0.78
-0.77
-0.755
-0.765
-0.78
-0.78
-0.78
-0.765
-0.755
-0.76
-0.785
-0.8
-0.795
-0.775
-0.77
-0.78
-0.785
-0.8
-0.795
-0.785
-0.77
-0.77
-0.785
-0.815
-0.835
-0.835
-0.825
-0.825
-0.83
-0.825
-0.825
-0.82
-0.8
-0.81
-0.815
-0.845
-0.845
-0.83
-0.825
-0.825
-0.855
-0.87
-0.88
-0.86
-0.85
-0.84
-0.855
-0.86
-0.855
-0.84
-0.825
-0.845
-0.86
-0.865
-0.865
-0.855
-0.825
-0.82
-0.835
-0.855
-0.845
-0.83
-0.815
-0.81
-0.805
-0.83
-0.825
-0.815
-0.81
-0.805
-0.82
-0.815
-0.795
-0.8
-0.79
-0.79
-0.81
-0.825
-0.825
-0.815
-0.81
-0.825
-0.82
-0.85
-0.84
-0.85
-0.835
-0.845
-0.88
-0.91
-0.91
-0.895
-0.865
-0.86
-0.85
-0.885
-0.88
-0.88
-0.9
-0.92
-0.945
-0.95
-0.935
-0.92
-0.9
-0.89
-0.91
-0.92
-0.94
-0.91
-0.905
-0.905
-0.925
-0.935
-0.935
-0.935
-0.92
-0.92
-0.94
-0.955
-0.955
-0.945
-0.92
-0.915
-0.94
-0.955
-0.955
-0.94
-0.93
-0.93
-0.935
-0.94
-0.94
-0.93
-0.925
-0.925
-0.92
-0.91
-0.915
-0.915
-0.915
-0.93
-0.905
-0.89
-0.855
-0.805
-0.75
-0.685
-0.63
-0.6
-0.545
-0.5
-0.475
-0.475
-0.525
-0.605
-0.655
-0.675
-0.65
-0.585
-0.515
-0.405
-0.27
-0.135
-0.03
0.045
0.06
0.035
-0.02
-0.13
-0.255
-0.365
-0.465
-0.58
-0.685
-0.79
-0.87
-0.995
-1.095
-1.16
-1.22
-1.22
-1.215
-1.21
-1.175
-1.15
-1.105
-1.065
-1.04
-1.03
-1.025
-1.015
-1.015
-1.015
-0.985
-0.995
-1.005
-1.01
-1.01
-0.98
-0.97
-0.975
-0.99
-1.0
-0.995
-0.97
-0.95
-0.945
-0.96
-0.96
-0.96
-0.945
-0.945
-0.955
-0.98
-0.975
-0.945
-0.93
-0.915
-0.925
-0.925
-0.94
-0.925
-0.9
-0.88
-0.885
-0.885
-0.885
-0.875
-0.86
-0.84
-0.835
-0.855
-0.835
-0.83
-0.81
-0.77
-0.77
-0.77
-0.765
-0.75
-0.73
-0.72
-0.71
-0.7
-0.69
-0.66
-0.645
-0.63
-0.62
-0.62
-0.625
-0.62
-0.605
-0.59
-0.585
-0.57
-0.57
-0.545
-0.52
-0.495
-0.5
-0.5
-0.51
-0.52
-0.51
-0.51
-0.55
-0.595
-0.625
-0.64
-0.64
-0.63
-0.655
-0.685
-0.71
-0.73
-0.74
-0.74
-0.75
-0.785
-0.81
-0.815
-0.815
-0.805
-0.795
-0.805
-0.825
-0.82
-0.815
-0.805
-0.82
-0.83
-0.845
-0.85
-0.845
-0.83
-0.84
-0.85
-0.86
-0.855
-0.835
-0.825
-0.83
-0.84
-0.85
-0.835
-0.835
-0.805
-0.81
-0.815
-0.82
-0.825
-0.81
-0.81
-0.815
-0.83
-0.825
-0.82
-0.81
-0.79
-0.8
-0.805
-0.82
-0.815
-0.805
-0.79
-0.79
-0.805
-0.82
-0.81
-0.8
-0.79
-0.795
-0.825
-0.825
-0.825
-0.805
-0.795
-0.8
-0.825
-0.83
-0.82
-0.805
-0.8
-0.795
-0.8
-0.805
-0.81
-0.79
-0.79
-0.78
-0.81
-0.815
-0.825
-0.81
-0.795
-0.805
-0.81
-0.81
-0.8
-0.795
-0.78
-0.8
-0.825
-0.835
-0.83
-0.82
-0.795
-0.8
-0.79
-0.79
-0.77
-0.755
-0.735
-0.74
-0.745
-0.755
-0.75
-0.75
-0.715
-0.72
-0.72
-0.735
-0.73
-0.715
-0.69
-0.705
-0.71
-0.73
-0.725
-0.72
-0.695
-0.7
-0.715
-0.725
-0.725
-0.715
-0.71
-0.735
-0.76
-0.77
-0.755
-0.74
-0.735
-0.75
-0.765
-0.775
-0.78
-0.755
-0.74
-0.75
-0.765
-0.78
-0.78
-0.78
-0.76
-0.755
-0.77
-0.8
-0.785
-0.765
-0.755
-0.75
-0.77
-0.775
-0.77
-0.755
-0.75
-0.75
-0.75
-0.765
-0.765
-0.74
-0.73
-0.745
-0.745
-0.76
-0.75
-0.735
-0.705
-0.705
-0.715
-0.73
-0.735
-0.735
-0.73
-0.75
-0.76
-0.76
-0.735
-0.715
-0.685
-0.68
-0.68
-0.66
-0.64
-0.585
-0.53
-0.475
-0.425
-0.385
-0.33
-0.3
-0.26
-0.265
-0.32
-0.385
-0.445
-0.475
-0.485
-0.45
-0.35
-0.27
-0.15
-0.015
0.105
0.19
0.24
0.245
0.2
0.13
0.03
-0.09
-0.21
-0.335
-0.43
-0.53
-0.615
-0.73
-0.83
-0.925
-0.965
-0.98
-0.98
-0.96
-0.945
-0.915
-0.865
-0.825
-0.775
-0.755
-0.75
-0.755
-0.72
-0.71
-0.705
-0.71
-0.725
-0.715
-0.71
-0.695
-0.68
-0.675
-0.69
-0.695
-0.69
-0.675
-0.665
-0.66
-0.685
-0.685
-0.66
-0.65
-0.63
-0.645
-0.65
-0.66
-0.65
-0.635
-0.635
-0.635
-0.63
-0.635
-0.63
-0.61
-0.585
-0.58
-0.585
-0.59
-0.575
-0.58
-0.525
-0.54
-0.535
-0.535
-0.525
-0.495
-0.47
-0.45
-0.455
-0.45
-0.435
-0.415
-0.385
-0.37
-0.365
-0.375
-0.35
-0.325
-0.31
-0.3
-0.295
-0.305
-0.295
-0.265
-0.245
-0.23
-0.24
-0.245
-0.23
-0.215
-0.19
-0.205
-0.19
-0.2
-0.21
-0.2
-0.21
-0.24
-0.26
-0.295
-0.315
-0.32
-0.34
-0.37
-0.395
-0.44
-0.44
-0.45
-0.45
-0.465
-0.485
-0.5
-0.5
-0.485
-0.48
-0.49
-0.53
-0.52
-0.535
-0.52
-0.5
-0.515
-0.52
-0.535
-0.525
-0.51
-0.505
-0.5
-0.525
-0.535
-0.53
-0.52
-0.495
-0.495
-0.51
-0.505
-0.51
-0.515
-0.505
-0.52
-0.51
-0.525
-0.51
-0.51
-0.5
-0.495
-0.515
-0.52
-0.515
-0.505
-0.48
-0.49
-0.51
-0.52
-0.51
-0.505
-0.49
-0.495
-0.51
-0.52
-0.52
-0.51
-0.485
-0.495
-0.495
-0.515
-0.505
-0.495
-0.48
-0.485
-0.495
-0.525
-0.5
-0.505
-0.49
-0.5
-0.505
-0.505
-0.51
-0.5
-0.505
-0.485
-0.5
-0.51
-0.505
-0.49
-0.475
-0.48
-0.48
-0.49
-0.485
-0.45
-0.44
-0.45
-0.46
-0.465
-0.46
-0.44
-0.42
-0.415
-0.43
-0.425
-0.415
-0.39
-0.38
-0.38
-0.4
-0.415
-0.415
-0.4
-0.385
-0.395
-0.41
-0.435
-0.44
-0.44
-0.415
-0.425
-0.455
-0.475
-0.48
-0.47
-0.45
-0.445
-0.46
-0.475
-0.48
-0.47
-0.445
-0.455
-0.495
-0.5
-0.485
-0.475
-0.44
-0.45
-0.455
-0.48
-0.465
-0.45
-0.43
-0.42
-0.435
-0.47
-0.47
-0.46
-0.45
-0.45
-0.47
-0.485
-0.47
-0.445
-0.425
-0.445
-0.455
-0.475
-0.465
-0.45
-0.44
-0.44
-0.45
-0.455
-0.445
-0.43
-0.405
-0.4
-0.415
-0.44
-0.445
-0.425
-0.39
-0.39
-0.365
-0.36
-0.315
-0.26
-0.18
-0.115
-0.06
-0.035
-0.01
-0.005
-0.01
-0.06
-0.125
-0.185
-0.185
-0.13
-0.02
0.09
0.205
0.295
0.365
0.43
0.455
0.415
0.335
0.2
0.085
-0.015
-0.1
-0.225
-0.335
-0.45
-0.565
-0.63
-0.68
-0.715
-0.705
-0.71
-0.69
-0.645
-0.595
-0.55
-0.52
-0.505
-0.485
-0.45
-0.43
-0.425
-0.435
-0.44
-0.44
-0.43
-0.43
-0.41
-0.42
-0.43
-0.435
-0.4
-0.38
-0.39
-0.4
-0.42
-0.415
-0.39
-0.365
-0.35
-0.36
-0.365
-0.355
-0.35
-0.325
-0.34
-0.365
-0.37
-0.365
-0.335
-0.31
-0.305
-0.295
-0.31
-0.31
-0.28
-0.26
-0.26
-0.265
-0.265
-0.25
-0.23
-0.215
-0.2
-0.2
-0.2
-0.18
-0.15
-0.125
-0.105
-0.115
-0.115
-0.1
-0.07
-0.02
-0.02
-0.01
-0.04
-0.04
-0.02
-0.005
0.025
0.03
0.025
0.035
0.05
0.075
0.08
0.065
0.07
0.065
0.05
0.045
0.055
0.01
0.0
-0.01
-0.03
-0.05
-0.085
-0.13
-0.165
-0.17
-0.175
-0.18
-0.2
-0.23
-0.235
-0.24
-0.23
-0.22
-0.235
-0.26
-0.3
-0.3
-0.3
-0.3
-0.275
-0.29
-0.3
-0.29
-0.295
-0.285
-0.29
-0.295
-0.295
-0.295
-0.29
-0.285
-0.29
-0.315
-0.33
-0.325
-0.3
-0.285
-0.28
-0.305
-0.315
-0.3
-0.29
-0.27
-0.275
-0.295
-0.3
-0.295
-0.275
-0.265
-0.26
-0.275
-0.295
-0.285
-0.28
-0.28
-0.29
-0.28
-0.28
-0.26
-0.25
-0.25
-0.27
-0.28
-0.3
-0.285
-0.285
-0.27
-0.27
-0.28
-0.285
-0.285
-0.275
-0.245
-0.265
-0.27
-0.285
-0.285
-0.275
-0.265
-0.25
-0.27
-0.285
-0.285
-0.265
-0.265
-0.275
-0.28
-0.29
-0.295
-0.285
-0.27
-0.275
-0.285
-0.275
-0.265
-0.25
-0.235
-0.25
-0.28
-0.285
-0.275
-0.26
-0.23
-0.22
-0.23
-0.235
-0.235
-0.215
-0.185
-0.17
-0.18
-0.19
-0.195
-0.185
-0.195
-0.21
-0.23
-0.235
-0.22
-0.195
-0.195
-0.195
-0.225
-0.245
-0.24
-0.245
-0.23
-0.235
-0.25
-0.255
-0.265
-0.25
-0.25
-0.26
-0.27
-0.275
-0.27
-0.27
-0.245
-0.25
-0.255
-0.28
-0.275
-0.27
-0.26
-0.27
-0.285
-0.295
-0.29
-0.275
-0.26
-0.255
-0.28
-0.305
-0.305
-0.285
-0.265
-0.265
-0.285
-0.29
-0.28
-0.27
-0.255
-0.265
-0.285
-0.275
-0.26
-0.255
-0.235
-0.23
-0.245
-0.275
-0.29
-0.285
-0.275
-0.26
-0.265
-0.255
-0.26
-0.21
-0.195
-0.175
-0.15
-0.13
-0.08
-0.015
0.06
0.11
0.115
0.11
0.11
0.085
0.035
-0.03
-0.08
-0.085
-0.025
0.095
0.23
0.345
0.445
0.51
0.555
0.565
0.51
0.41
0.265
0.135
0.03
-0.06
-0.15
-0.24
-0.35
-0.445
-0.51
-0.53
-0.535
-0.54
-0.53
-0.515
-0.485
-0.43
-0.38
-0.375
-0.345
-0.335
-0.305
-0.295
-0.29
-0.275
-0.285
-0.28
-0.295
-0.27
-0.25
-0.26
-0.275
-0.295
-0.295
-0.275
-0.25
-0.24
-0.255
-0.255
-0.25
-0.225
-0.21
-0.225
-0.24
-0.26
-0.27
-0.24
-0.22
-0.205
-0.205
-0.2
-0.195
-0.17
-0.155
-0.17
-0.17
-0.165
-0.16
-0.135
-0.11
-0.11
-0.105
-0.09
-0.065
-0.055
-0.035
-0.03
-0.045
-0.055
-0.025
0.01
0.04
0.05
0.035
0.055
0.065
0.1
0.125
0.135
0.13
0.115
0.12
0.145
0.175
0.2
0.185
0.195
0.185
0.21
0.205
0.2
0.175
0.175
0.175
0.175
0.155
0.135
0.09
0.06
0.04
0.045
0.035
0.01
-0.03
-0.055
-0.06
-0.05
-0.05
-0.075
-0.095
-0.125
-0.135
-0.13
-0.125
-0.14
-0.135
-0.14
-0.14
-0.14
-0.13
-0.14
-0.155
-0.17
-0.165
-0.145
-0.125
-0.12
-0.14
-0.15
-0.155
-0.14
-0.115
-0.12
-0.125
-0.14
-0.145
-0.14
-0.13
-0.125
-0.135
-0.135
-0.125
-0.135
-0.105
-0.105
-0.11
-0.14
-0.125
-0.105
-0.1
-0.09
-0.135
-0.15
-0.15
-0.135
-0.1
-0.1
-0.125
-0.145
-0.135
-0.125
-0.115
-0.11
-0.12
-0.125
-0.13
-0.115
-0.1
-0.11
-0.125
-0.135
-0.135
-0.13
-0.11
-0.11
-0.1
-0.125
-0.135
-0.155
-0.14
-0.14
-0.125
-0.125
-0.13
-0.12
-0.105
-0.115
-0.14
-0.145
-0.14
-0.125
-0.11
-0.115
-0.13
-0.135
-0.125
-0.1
-0.08
-0.11
-0.115
-0.125
-0.115
-0.085
-0.06
-0.06
-0.075
-0.085
-0.085
-0.055
-0.035
-0.035
-0.045
-0.04
-0.035
-0.02
-0.025
-0.035
-0.035
-0.07
-0.09
-0.09
-0.095
-0.1
-0.1
-0.115
-0.11
-0.11
-0.095
-0.09
-0.115
-0.13
-0.125
-0.115
-0.1
-0.095
-0.105
-0.125
-0.135
-0.115
-0.11
-0.105
-0.135
-0.155
-0.145
-0.125
-0.125
-0.13
-0.14
-0.16
-0.145
-0.115
-0.105
-0.105
-0.105
-0.105
-0.11
-0.1
-0.1
-0.12
-0.13
-0.14
-0.13
-0.12
-0.09
-0.095
-0.105
-0.115
-0.11
-0.1
-0.075
-0.08
-0.09
-0.115
-0.1
-0.07
-0.03
-0.04
-0.055
-0.06
-0.035
0.03
0.11
0.175
0.24
0.28
0.325
0.34
0.33
0.27
0.17
0.1
0.1
0.155
0.275
0.395
0.505
0.615
0.735
0.81
0.83
0.745
0.615
0.47
0.35
0.25
0.15
0.02
-0.12
-0.235
-0.32
-0.35
-0.365
-0.37
-0.36
-0.35
-0.285
-0.215
-0.18
-0.14
-0.125
-0.115
-0.12
-0.1
-0.09
-0.07
-0.09
-0.095
-0.1
-0.095
-0.095
-0.07
-0.07
-0.065
-0.065
-0.06
-0.035
-0.025
-0.025
-0.035
-0.04
-0.025
-0.025
-0.035
-0.045
-0.055
-0.035
0.005
0.03
0.05
0.03
0.03
0.04
0.05
0.075
0.075
0.055
0.05
0.06
0.09
0.11
0.105
0.1
0.1
0.11
0.14
0.18
0.195
0.185
0.19
0.2
0.24
0.265
0.295
0.29
0.295
0.295
0.3
0.31
0.325
0.315
0.32
0.34
0.375
0.4
0.42
0.425
0.415
0.425
0.42
0.42
0.41
0.395
0.375
0.37
0.345
0.335
0.325
0.285
0.255
0.235
0.22
0.205
0.175
0.16
0.135
0.13
0.12
0.13
0.12
0.115
0.08
0.085
0.085
0.085
0.09
0.055
0.035
0.01
0.02
0.045
0.06
0.045
0.045
0.04
0.06
0.07
0.07
0.065
0.04
0.04
0.04
0.055
0.055
0.06
0.03
0.045
0.05
0.055
0.055
0.05
0.03
0.06
0.06
0.08
0.07
0.045
0.015
0.015
0.045
0.055
0.05
0.015
0.005
0.01
0.025
0.055
0.05
0.045
0.015
0.04
0.035
0.05
0.045
0.045
0.03
0.035
0.035
0.065
0.045
0.045
0.03
0.03
0.025
0.04
0.03
0.02
0.015
0.015
0.025
0.045
0.04
0.035
0.015
-0.02
-0.025
-0.03
-0.025
-0.02
-0.015
-0.02
-0.01
0.01
0.01
0.0
0.0
0.015
0.02
0.04
0.05
0.04
0.03
0.025
0.05
0.065
0.065
0.055
0.06
0.06
0.075
0.1
0.07
0.065
0.05
0.05
0.055
0.065
0.05
0.03
0.03
0.025
0.035
0.03
0.02
0.005
-0.015
-0.005
0.0
0.005
-0.005
-0.02
-0.04
-0.03
-0.02
-0.015
-0.04
-0.065
-0.065
-0.055
-0.045
-0.015
-0.04
-0.07
-0.07
-0.065
-0.07
-0.05
-0.055
-0.07
-0.07
-0.08
-0.06
-0.055
-0.05
-0.055
-0.08
-0.08
-0.075
-0.045
-0.06
-0.08
-0.08
-0.07
-0.07
-0.06
-0.06
-0.07
-0.075
-0.085
-0.075
-0.07
-0.055
-0.05
-0.055
-0.04
-0.025
0.01
0.035
0.075
0.115
0.195
0.27
0.35
0.385
0.405
0.39
0.35
0.3
0.28
0.27
0.305
0.38
0.51
0.67
0.82
0.94
0.995
1.0
0.95
0.835
0.72
0.575
0.44
0.3
0.17
0.06
-0.055
-0.165
-0.26
-0.325
-0.35
-0.33
-0.3
-0.265
-0.245
-0.215
-0.17
-0.14
-0.11
-0.08
-0.1
-0.11
-0.105
-0.085
-0.085
-0.075
-0.08
-0.085
-0.08
-0.07
-0.045
-0.05
-0.06
-0.07
-0.06
-0.045
-0.04
-0.04
-0.05
-0.065
-0.055
-0.025
-0.025
-0.015
-0.015
-0.005
0.0
0.015
0.04
0.05
0.05
0.045
0.06
0.075
0.11
0.125
0.12
0.12
0.13
0.14
0.15
0.145
0.15
0.155
0.175
0.21
0.245
0.25
0.265
0.255
0.275
0.295
0.32
0.33
0.34
0.34
0.34
0.345
0.365
0.38
0.385
0.395
0.395
0.395
0.41
0.39
0.365
0.345
0.34
0.315
0.305
0.275
0.25
0.21
0.205
0.205
0.205
0.185
0.17
0.145
0.145
0.155
0.155
0.13
0.105
0.08
0.075
0.085
0.09
0.075
0.075
0.08
0.085
0.085
0.08
0.065
0.04
0.035
0.015
0.035
0.07
0.075
0.07
0.07
0.06
0.09
0.085
0.08
0.065
0.05
0.05
0.07
0.095
0.09
0.07
0.055
0.05
0.065
0.085
0.085
0.08
0.075
0.09
0.095
0.1
0.09
0.065
0.055
0.06
0.085
0.095
0.09
0.07
0.06
0.055
0.07
0.09
0.07
0.06
0.06
0.055
0.075
0.09
0.08
0.08
0.065
0.075
0.1
0.11
0.075
0.065
0.045
0.045
0.06
0.075
0.065
0.055
0.045
0.04
0.065
0.08
0.08
0.075
0.065
0.06
0.07
0.085
0.075
0.075
0.075
0.09
0.105
0.125
0.125
0.115
0.13
0.13
0.14
0.15
0.15
0.145
0.155
0.15
0.16
0.175
0.165
0.165
0.15
0.145
0.125
0.135
0.125
0.115
0.105
0.105
0.12
0.125
0.115
0.095
0.095
0.1
0.11
0.125
0.105
0.09
0.075
0.065
0.08
0.095
0.065
0.06
0.03
0.035
0.05
0.075
0.09
0.08
0.065
0.05
0.055
0.06
0.05
0.04
0.03
0.035
0.055
0.06
0.055
0.045
0.04
0.04
0.045
0.075
0.065
0.055
0.04
0.06
0.07
0.08
0.08
0.075
0.065
0.065
0.075
0.085
0.08
0.055
0.03
0.035
0.055
0.07
0.07
0.075
0.08
0.095
0.12
0.15
0.155
0.165
0.195
0.235
0.31
0.375
0.445
0.505
0.545
0.585
0.59
0.59
0.535
0.47
0.43
0.455
0.56
0.69
0.83
0.96
1.035
1.115
1.155
1.16
1.115
1.005
0.88
0.75
0.655
0.575
0.45
0.31
0.185
0.05
-0.04
-0.115
-0.165
-0.215
-0.235
-0.215
-0.175
-0.12
-0.08
-0.055
-0.035
-0.005
0.01
0.03
0.01
-0.005
-0.015
-0.01
0.01
0.025
0.025
0.025
0.01
0.015
0.03
0.04
0.04
0.02
0.025
0.03
0.04
0.055
0.06
0.045
0.04
0.035
0.065
0.065
0.065
0.055
0.04
0.06
0.075
0.09
0.1
0.11
0.1
0.095
0.12
0.14
0.145
0.155
0.145
0.145
0.175
0.19
0.2
0.2
0.185
0.195
0.22
0.26
0.27
0.265
0.255
0.26
0.285
0.32
0.31
0.335
0.33
0.345
0.365
0.395
0.4
0.39
0.375
0.39
0.41
0.445
0.465
0.465
0.455
0.46
0.48
0.495
0.495
0.475
0.45
0.435
0.42
0.425
0.395
0.355
0.335
0.315
0.3
0.295
0.26
0.23
0.205
0.185
0.195
0.185
0.17
0.15
0.125
0.13
0.12
0.135
0.14
0.125
0.115
0.1
0.09
0.105
0.075
0.055
0.045
0.07
0.075
0.085
0.075
0.065
0.06
0.055
0.07
0.075
0.085
0.07
0.065
0.075
0.085
0.08
0.07
0.065
0.045
0.03
0.045
0.065
0.07
0.04
0.045
0.045
0.07
0.09
0.09
0.065
0.07
0.05
0.05
0.05
0.045
0.02
0.03
0.05
0.055
0.07
0.06
0.035
0.015
0.02
0.04
0.065
0.06
0.06
0.04
0.065
0.075
0.075
0.075
0.045
0.035
0.02
0.04
0.045
0.04
0.045
0.04
0.03
0.035
0.06
0.04
0.035
0.025
0.02
0.035
0.065
0.08
0.065
0.04
0.035
0.03
0.035
0.045
0.05
0.04
0.055
0.075
0.09
0.08
0.07
0.07
0.085
0.105
0.125
0.12
0.115
0.11
0.105
0.125
0.13
0.13
0.1
0.1
0.09
0.095
0.105
0.1
0.08
0.065
0.06
0.075
0.085
0.09
0.075
0.05
0.05
0.05
0.065
0.075
0.06
0.055
0.035
0.035
0.01
0.02
0.01
0.02
0.03
0.035
0.06
0.055
0.035
0.015
0.02
0.035
0.06
0.055
0.035
0.045
0.04
0.055
0.055
0.06
0.045
0.03
0.025
0.045
0.065
0.06
0.05
0.04
0.035
0.055
0.07
0.07
0.055
0.06
0.05
0.065
0.1
0.095
0.08
0.07
0.07
0.09
0.105
0.1
0.095
0.09
0.095
0.13
0.145
0.175
0.185
0.22
0.275
0.35
0.42
0.48
0.515
0.53
0.55
0.565
0.55
0.49
0.44
0.39
0.385
0.455
0.55
0.65
0.735
0.83
0.935
1.04
1.11
1.135
1.095
1.005
0.9
0.79
0.685
0.585
0.46
0.335
0.235
0.125
0.065
-0.015
-0.08
-0.13
-0.16
-0.135
-0.11
-0.085
-0.05
-0.035
0.005
0.035
0.065
0.065
0.055
0.055
0.06
0.07
0.085
0.08
0.075
0.075
0.075
0.1
0.11
0.11
0.105
0.075
0.07
0.075
0.09
0.09
0.09
0.07
0.075
0.1
0.125
0.115
0.1
0.095
0.1
0.115
0.15
0.14
0.135
0.14
0.145
0.165
0.19
0.2
0.205
0.195
0.195
0.2
0.215
0.215
0.23
0.225
0.245
0.265
0.275
0.275
0.26
0.275
0.295
0.335
0.365
0.37
0.38
0.375
0.375
0.395
0.42
0.435
0.435
0.425
0.425
0.445
0.475
0.5
0.495
0.505
0.515
0.54
0.57
0.575
0.57
0.56
0.555
0.555
0.565
0.56
0.545
0.53
0.515
0.5
0.48
0.445
0.39
0.34
0.3
0.31
0.32
0.305
0.255
0.235
0.21
0.22
0.225
0.215
0.205
0.195
0.185
0.215
0.22
0.2
0.19
0.16
0.165
0.17
0.185
0.19
0.175
0.175
0.175
0.185
0.205
0.205
0.185
0.16
0.155
0.155
0.165
0.155
0.155
0.15
0.145
0.155
0.175
0.165
0.16
0.15
0.155
0.17
0.185
0.18
0.175
0.155
0.155
0.175
0.185
0.175
0.165
0.155
0.15
0.17
0.19
0.2
0.195
0.19
0.2
0.18
0.19
0.14
0.125
0.125
0.14
0.15
0.175
0.17
0.155
0.15
0.14
0.16
0.18
0.17
0.165
0.145
0.14
0.15
0.16
0.16
0.16
0.145
0.145
0.155
0.16
0.145
0.14
0.14
0.135
0.155
0.155
0.15
0.15
0.135
0.145
0.14
0.155
0.155
0.15
0.155
0.18
0.205
0.215
0.21
0.175
0.175
0.17
0.185
0.205
0.225
0.21
0.205
0.205
0.215
0.245
0.235
0.215
0.19
0.185
0.175
0.195
0.18
0.16
0.145
0.13
0.15
0.17
0.175
0.16
0.15
0.125
0.135
0.15
0.135
0.135
0.13
0.12
0.125
0.13
0.115
0.12
0.1
0.09
0.105
0.125
0.115
0.105
0.085
0.09
0.115
0.12
0.115
0.095
0.08
0.08
0.1
0.11
0.1
0.09
0.06
0.06
0.06
0.09
0.095
0.075
0.075
0.085
0.09
0.095
0.115
0.105
0.095
0.1
0.115
0.115
0.105
0.105
0.105
0.11
0.115
0.135
0.15
0.16
0.18
0.21
0.265
0.33
0.405
0.465
0.52
0.59
0.645
0.655
0.61
0.54
0.485
0.455
0.47
0.535
0.62
0.715
0.82
0.96
1.085
1.16
1.2
1.195
1.125
1.03
0.92
0.82
0.71
0.6
0.465
0.365
0.235
0.14
0.025
-0.08
-0.15
-0.19
-0.2
-0.18
-0.145
-0.125
-0.105
-0.075
-0.02
0.01
0.03
0.035
0.01
-0.005
-0.005
0.02
0.025
0.03
0.03
0.02
0.035
0.045
0.055
0.045
0.03
0.035
0.045
0.07
0.065
0.065
0.055
0.06
0.075
0.095
0.075
0.065
0.065
0.07
0.08
0.105
0.1
0.1
0.095
0.1
0.12
0.145
0.15
0.155
0.15
0.15
0.155
0.15
0.155
0.155
0.175
0.19
0.215
0.24
0.24
0.245
0.265
0.265
0.29
0.315
0.33
0.31
0.31
0.295
0.335
0.355
0.375
0.37
0.385
0.39
0.42
0.45
0.46
0.445
0.46
0.48
0.505
0.52
0.515
0.505
0.5
0.5
0.505
0.525
0.485
0.455
0.425
0.4
0.385
0.375
0.35
0.335
0.31
0.28
0.275
0.285
0.26
0.24
0.21
0.19
0.2
0.21
0.205
0.2
0.175
0.17
0.17
0.165
0.165
0.145
0.13
0.145
0.155
0.17
0.17
0.15
0.135
0.115
0.125
0.13
0.12
0.11
0.12
0.115
0.125
0.14
0.135
0.12
0.11
0.1
0.115
0.13
0.125
0.11
0.105
0.095
0.1
0.12
0.135
0.12
0.115
0.115
0.12
0.14
0.135
0.105
0.09
0.085
0.1
0.12
0.12
0.105
0.095
0.115
0.13
0.145
0.15
0.13
0.09
0.085
0.08
0.095
0.075
0.075
0.07
0.07
0.09
0.1
0.105
0.085
0.07
0.075
0.085
0.1
0.095
0.085
0.075
0.075
0.085
0.095
0.085
0.08
0.08
0.085
0.085
0.11
0.105
0.105
0.085
0.08
0.095
0.115
0.11
0.1
0.095
0.115
0.13
0.14
0.145
0.14
0.125
0.13
0.15
0.17
0.17
0.165
0.175
0.17
0.165
0.165
0.14
0.13
0.11
0.115
0.12
0.13
0.12
0.11
0.09
0.085
0.095
0.11
0.11
0.09
0.075
0.06
0.09
0.1
0.1
0.08
0.06
0.03
0.04
0.04
0.06
0.05
0.05
0.04
0.05
0.075
0.055
0.045
0.04
0.035
0.04
0.055
0.055
0.055
0.045
0.025
0.055
0.06
0.065
0.055
0.045
0.05
0.06
0.07
0.075
0.055
0.025
0.03
0.045
0.055
0.045
0.045
0.025
0.035
0.055
0.085
0.08
0.07
0.06
0.07
0.085
0.12
0.145
0.16
0.185
0.225
0.31
0.405
0.46
0.515
0.555
0.575
0.585
0.565
0.51
0.45
0.415
0.465
0.555
0.68
0.81
0.945
1.04
1.115
1.16
1.155
1.065
0.93
0.78
0.665
0.56
0.43
0.295
0.13
-0.015
-0.13
-0.19
-0.215
-0.235
-0.255
-0.26
-0.225
-0.165
-0.11
-0.095
-0.07
-0.065
-0.055
-0.04
-0.015
-0.02
-0.015
-0.025
-0.015
-0.005
0.0
0.0
-0.01
-0.015
-0.015
0.005
0.025
0.02
0.015
0.0
0.01
0.02
0.045
0.04
0.02
0.025
0.02
0.035
0.055
0.05
0.045
0.055
0.065
0.075
0.095
0.085
0.065
0.055
0.085
0.105
0.115
0.115
0.13
0.13
0.125
0.15
0.175
0.18
0.185
0.175
0.19
0.21
0.23
0.25
0.255
0.26
0.28
0.305
0.31
0.32
0.315
0.315
0.33
0.355
0.385
0.405
0.405
0.4
0.395
0.42
0.44
0.45
0.46
0.47
0.48
0.485
0.505
0.495
0.48
0.46
0.44
0.425
0.425
0.385
0.34
0.33
0.3
0.295
0.28
0.25
0.22
0.195
0.18
0.175
0.185
0.165
0.155
0.13
0.115
0.14
0.15
0.145
0.14
0.115
0.095
0.075
0.07
0.08
0.09
0.07
0.065
0.065
0.095
0.08
0.08
0.07
0.065
0.09
0.09
0.075
0.065
0.06
0.06
0.075
0.09
0.08
0.045
0.035
0.05
0.065
0.08
0.08
0.07
0.065
0.05
0.075
0.085
0.07
0.06
0.05
0.045
0.05
0.06
0.06
0.045
0.03
0.025
0.055
0.06
0.065
0.06
0.045
0.05
0.045
0.065
0.06
0.035
0.02
0.03
0.04
0.05
0.05
0.04
0.035
0.025
0.045
0.06
0.055
0.045
0.035
0.035
0.045
0.065
0.06
0.06
0.015
0.02
0.03
0.045
0.04
0.03
0.025
0.015
0.035
0.05
0.04
0.025
0.015
0.01
0.025
0.04
0.035
0.025
0.03
0.04
0.055
0.05
0.07
0.08
0.065
0.055
0.075
0.1
0.1
0.09
0.09
0.09
0.115
0.125
0.125
0.095
0.08
0.08
0.095
0.11
0.12
0.1
0.09
0.07
0.055
0.07
0.055
0.06
0.05
0.035
0.03
0.04
0.045
0.035
0.015
0.015
0.02
0.04
0.02
0.01
-0.01
-0.02
-0.005
0.005
0.005
-0.005
-0.015
-0.02
-0.015
0.0
-0.005
-0.015
-0.025
-0.035
-0.02
0.0
0.0
-0.005
-0.01
-0.005
0.005
0.025
0.015
-0.01
-0.02
-0.04
-0.03
-0.01
0.0
-0.01
-0.02
-0.02
0.005
0.01
0.015
-0.005
-0.005
-0.015
0.005
0.015
0.035
0.025
0.02
0.045
0.065
0.105
0.14
0.185
0.24
0.31
0.395
0.48
0.525
0.52
0.485
0.435
0.39
0.39
0.41
0.48
0.59
0.725
0.87
0.97
1.03
1.03
0.995
0.92
0.81
0.7
0.57
0.445
0.315
0.165
0.03
-0.1
-0.195
-0.27
-0.325
-0.335
-0.32
-0.27
-0.245
-0.22
-0.19
-0.155
-0.105
-0.08
-0.08
-0.075
-0.09
-0.09
-0.08
-0.06
-0.06
-0.06
-0.065
-0.07
-0.055
-0.045
-0.04
-0.05
-0.065
-0.065
-0.055
-0.02
-0.03
-0.035
-0.045
-0.035
-0.02
-0.005
-0.005
-0.005
-0.01
-0.01
0.01
0.02
0.045
0.04
0.03
0.03
0.045
0.065
0.085
0.065
0.07
0.08
0.11
0.135
0.13
0.14
0.135
0.15
0.17
0.2
0.205
0.21
0.215
0.23
0.26
0.295
0.305
0.31
0.3
0.315
0.35
0.38
0.385
0.385
0.375
0.375
0.415
0.435
0.445
0.425
0.425
0.415
0.425
0.435
0.405
0.37
0.34
0.32
0.31
0.29
0.27
0.24
0.21
0.18
0.175
0.175
0.155
0.13
0.105
0.085
0.09
0.1
0.095
0.07
0.045
0.05
0.05
0.065
0.05
0.03
0.02
0.02
0.025
0.035
0.03
0.015
0.01
-0.005
0.005
0.02
0.02
0.02
0.0
-0.01
0.0
0.02
0.01
0.0
-0.01
-0.01
-0.005
0.01
0.0
-0.005
-0.025
-0.04
-0.025
-0.015
-0.01
-0.025
-0.035
-0.035
-0.02
-0.015
-0.01
-0.03
-0.045
-0.04
-0.03
-0.03
-0.035
-0.03
-0.05
-0.055
-0.04
-0.025
-0.04
-0.07
-0.08
-0.075
-0.08
-0.065
-0.065
-0.07
-0.08
-0.085
-0.08
-0.075
-0.065
-0.075
-0.095
-0.095
-0.095
-0.08
-0.08
-0.09
-0.095
-0.105
-0.1
-0.095
-0.11
-0.13
-0.14
-0.14
-0.12
-0.11
-0.12
-0.115
-0.12
-0.125
-0.11
-0.09
-0.105
-0.11
-0.125
-0.11
-0.095
-0.08
-0.07
-0.07
-0.08
-0.08
-0.075
-0.05
-0.04
-0.04
-0.04
-0.035
-0.03
-0.005
