Lead II
-0.955
-0.955
-0.925
-0.925
-0.91
-0.905
-0.905
-0.915
-0.93
-0.945
-0.96
-0.985
-1.0
-1.035
-1.025
-1.025
-1.02
-1.015
-1.0
-1.005
-1.01
-1.005
-1.015
-1.02
-1.035
-1.05
-1.035
-1.005
-0.94
-0.825
-0.72
-0.62
-0.535
-0.5
-0.525
-0.615
-0.8
-0.98
-1.1
-1.1
-0.97
-0.715
-0.425
-0.12
0.155
0.395
0.625
0.82
0.955
1.035
1.07
1.065
1.025
0.95
0.825
0.63
0.425
0.195
-0.035
-0.29
-0.555
-0.805
-1.005
-1.15
-1.245
-1.27
-1.26
-1.235
-1.185
-1.15
-1.125
-1.105
-1.085
-1.07
-1.06
-1.045
-1.045
-1.04
-1.025
-1.02
-1.04
-1.04
-1.05
-1.055
-1.06
-1.065
-1.055
-1.06
-1.06
-1.055
-1.05
-1.045
-1.055
-1.055
-1.055
-1.055
-1.06
-1.08
-1.08
-1.06
-1.065
-1.07
-1.055
-1.055
-1.05
-1.06
-1.075
-1.08
-1.09
-1.085
-1.08
-1.08
-1.075
-1.075
-1.065
-1.08
-1.09
-1.095
-1.11
-1.115
-1.125
-1.13
-1.135
-1.13
-1.12
-1.125
-1.125
-1.13
-1.14
-1.155
-1.165
-1.175
-1.17
-1.19
-1.19
-1.195
-1.19
-1.205
-1.195
-1.195
-1.195
-1.205
-1.215
-1.22
-1.225
-1.225
-1.23
-1.23
-1.205
-1.21
-1.185
-1.19
-1.19
-1.195
-1.185
-1.175
-1.18
-1.175
-1.17
-1.15
-1.145
-1.12
-1.105
-1.08
-1.06
-1.055
-1.03
-1.015
-1.005
-0.97
-0.955
-0.935
-0.91
-0.895
-0.87
-0.845
-0.835
-0.83
-0.83
-0.84
-0.84
-0.845
-0.84
-0.83
-0.83
-0.82
-0.81
-0.805
-0.82
-0.82
-0.84
-0.84
-0.86
-0.87
-0.865
-0.87
-0.875
-0.89
-0.875
-0.88
-0.89
-0.895
-0.91
-0.925
-0.94
-0.95
-0.955
-0.965
-0.965
-0.975
-0.97
-0.965
-0.975
-0.98
-0.98
-0.995
-0.995
-1.0
-1.005
-1.0
-0.99
-0.995
-0.985
-0.975
-0.975
-0.98
-0.98
-0.985
-0.995
-0.98
-0.98
-0.975
-0.96
-0.96
-0.955
-0.95
-0.94
-0.94
-0.94
-0.965
-0.955
-0.955
-0.95
-0.955
-0.945
-0.94
-0.94
-0.92
-0.935
-0.935
-0.925
-0.93
-0.94
-0.945
-0.94
-0.925
-0.91
-0.905
-0.89
-0.895
-0.9
-0.9
-0.9
-0.915
-0.91
-0.91
-0.905
-0.91
-0.89
-0.89
-0.885
-0.87
-0.88
-0.89
-0.905
-0.92
-0.91
-0.9
-0.905
-0.895
-0.89
-0.885
-0.875
-0.87
-0.875
-0.87
-0.875
-0.88
-0.895
-0.89
-0.89
-0.89
-0.885
-0.875
-0.865
-0.865
-0.87
-0.885
-0.865
-0.875
-0.885
-0.885
-0.88
-0.88
-0.865
-0.865
-0.86
-0.86
-0.86
-0.865
-0.87
-0.875
-0.885
-0.875
-0.87
-0.88
-0.875
-0.875
-0.86
-0.86
-0.86
-0.855
-0.86
-0.87
-0.865
-0.87
-0.855
-0.855
-0.855
-0.85
-0.865
-0.855
-0.85
-0.84
-0.855
-0.865
-0.855
-0.845
-0.855
-0.845
-0.845
-0.84
-0.835
-0.83
-0.85
-0.845
-0.855
-0.85
-0.86
-0.86
-0.855
-0.845
-0.835
-0.82
-0.82
-0.82
-0.825
-0.83
-0.845
-0.85
-0.86
-0.855
-0.855
-0.855
-0.84
-0.83
-0.83
-0.83
-0.835
-0.84
-0.84
-0.86
-0.855
-0.845
-0.84
-0.845
-0.835
-0.835
-0.825
-0.815
-0.805
-0.82
-0.83
-0.84
-0.84
-0.82
-0.815
-0.81
-0.8
-0.805
-0.8
-0.79
-0.8
-0.8
-0.805
-0.795
-0.785
-0.78
-0.79
-0.78
-0.775
-0.76
-0.755
-0.76
-0.76
-0.785
-0.795
-0.815
-0.815
-0.82
-0.82
-0.82
-0.805
-0.775
-0.76
-0.745
-0.735
-0.735
-0.74
-0.75
-0.77
-0.785
-0.8
-0.83
-0.835
-0.84
-0.84
-0.855
-0.84
-0.845
-0.855
-0.865
-0.88
-0.865
-0.875
-0.87
-0.87
-0.885
-0.885
-0.885
-0.845
-0.775
-0.695
-0.595
-0.525
-0.465
-0.43
-0.455
-0.545
-0.695
-0.855
-0.98
-0.955
-0.83
-0.625
-0.37
-0.11
0.16
0.41
0.665
0.905
1.095
1.245
1.325
1.345
1.325
1.275
1.16
0.995
0.79
0.56
0.305
0.045
-0.26
-0.545
-0.775
-0.985
-1.105
-1.175
-1.195
-1.155
-1.125
-1.08
-1.05
-1.025
-1.0
-0.98
-0.96
-0.96
-0.965
-0.955
-0.965
-0.98
-0.975
-0.985
-0.985
-0.975
-0.96
-0.96
-0.955
-0.955
-0.96
-0.97
-0.975
-0.98
-0.98
-0.98
-0.98
-0.975
-0.98
-0.97
-0.975
-0.97
-0.99
-1.0
-1.0
-1.01
-1.015
-1.015
-1.015
-1.015
-1.0
-1.005
-1.01
-1.025
-1.025
-1.045
-1.055
-1.055
-1.06
-1.065
-1.055
-1.055
-1.06
-1.065
-1.07
-1.08
-1.095
-1.11
-1.105
-1.11
-1.13
-1.125
-1.135
-1.125
-1.13
-1.125
-1.12
-1.13
-1.14
-1.155
-1.16
-1.165
-1.185
-1.185
-1.175
-1.17
-1.17
-1.16
-1.165
-1.165
-1.17
-1.175
-1.175
-1.185
-1.19
-1.185
-1.17
-1.155
-1.14
-1.12
-1.1
-1.115
-1.105
-1.105
-1.09
-1.1
-1.065
-1.055
-1.035
-1.03
-0.995
-0.98
-0.96
-0.945
-0.92
-0.915
-0.895
-0.9
-0.885
-0.87
-0.86
-0.84
-0.825
-0.81
-0.805
-0.8
-0.795
-0.82
-0.81
-0.825
-0.825
-0.83
-0.825
-0.825
-0.83
-0.82
-0.83
-0.84
-0.85
-0.865
-0.885
-0.9
-0.91
-0.93
-0.945
-0.95
-0.95
-0.955
-0.965
-0.985
-0.995
-1.01
-1.03
-1.04
-1.06
-1.075
-1.08
-1.08
-1.08
-1.075
-1.08
-1.085
-1.08
-1.085
-1.095
-1.11
-1.105
-1.105
-1.1
-1.1
-1.105
-1.09
-1.07
-1.075
-1.07
-1.075
-1.08
-1.08
-1.085
-1.085
-1.075
-1.07
-1.05
-1.04
-1.035
-1.05
-1.04
-1.04
-1.04
-1.04
-1.04
-1.04
-1.035
-1.03
-1.02
-1.025
-1.005
-1.015
-1.02
-1.035
-1.035
-1.035
-1.04
-1.025
-1.025
-1.02
-1.025
-1.02
-1.02
-1.01
-1.015
-1.025
-1.03
-1.025
-1.02
-1.025
-1.015
-1.015
-1.005
-1.015
-1.005
-1.005
-1.01
-1.015
-1.02
-1.02
-1.02
-1.025
-1.02
-1.02
-1.02
-1.03
-1.005
-1.015
-1.005
-1.015
-1.035
-1.03
-1.04
-1.025
-1.015
-1.02
-1.015
-1.02
-1.025
-1.015
-1.02
-1.05
-1.05
-1.055
-1.05
-1.05
-1.045
-1.045
-1.025
-1.025
-1.025
-1.035
-1.025
-1.035
-1.035
-1.05
-1.05
-1.05
-1.04
-1.03
-1.035
-1.03
-1.02
-1.035
-1.04
-1.05
-1.05
-1.065
-1.05
-1.055
-1.06
-1.06
-1.04
-1.05
-1.04
-1.05
-1.045
-1.05
-1.055
-1.065
-1.07
-1.065
-1.07
-1.06
-1.06
-1.045
-1.045
-1.045
-1.06
-1.06
-1.07
-1.07
-1.06
-1.05
-1.06
-1.06
-1.035
-1.03
-1.04
-1.05
-1.055
-1.04
-1.035
-1.04
-1.025
-1.015
-1.005
-1.0
-1.01
-0.99
-0.995
-1.005
-1.035
-1.045
-1.05
-1.065
-1.065
-1.065
-1.055
-1.035
-1.025
-1.0
-0.99
-0.99
-0.99
-0.99
-1.015
-1.035
-1.06
-1.09
-1.105
-1.11
-1.13
-1.13
-1.115
-1.13
-1.12
-1.135
-1.145
-1.15
-1.155
-1.175
-1.17
-1.175
-1.16
-1.14
-1.065
-0.975
-0.88
-0.78
-0.715
-0.71
-0.76
-0.915
-1.08
-1.145
-1.11
-0.915
-0.615
-0.27
0.05
0.36
0.635
0.87
1.035
1.135
1.17
1.13
1.04
0.905
0.715
0.475
0.215
-0.05
-0.3
-0.555
-0.785
-1.025
-1.215
-1.365
-1.445
-1.485
-1.485
-1.48
-1.45
-1.43
-1.405
-1.38
-1.355
-1.345
-1.33
-1.31
-1.295
-1.28
-1.295
-1.3
-1.305
-1.315
-1.31
-1.32
-1.325
-1.34
-1.325
-1.315
-1.305
-1.3
-1.29
-1.3
-1.3
-1.32
-1.345
-1.345
-1.35
-1.34
-1.345
-1.34
-1.33
-1.325
-1.32
-1.335
-1.335
-1.345
-1.355
-1.355
-1.36
-1.38
-1.37
-1.365
-1.375
-1.375
-1.39
-1.39
-1.395
-1.4
-1.41
-1.41
-1.425
-1.43
-1.435
-1.435
-1.445
-1.43
-1.43
-1.43
-1.445
-1.45
-1.47
-1.48
-1.48
-1.495
-1.5
-1.5
-1.495
-1.495
-1.48
-1.495
-1.495
-1.5
-1.515
-1.53
-1.54
-1.545
-1.545
-1.535
-1.545
-1.53
-1.51
-1.51
-1.505
-1.51
-1.51
-1.52
-1.515
-1.51
-1.505
-1.495
-1.465
-1.45
-1.445
-1.425
-1.415
-1.42
-1.42
-1.405
-1.395
-1.375
-1.37
-1.335
-1.325
-1.295
-1.275
-1.27
-1.245
-1.245
-1.235
-1.23
-1.22
-1.2
-1.19
-1.17
-1.17
-1.15
-1.16
-1.15
-1.15
-1.165
-1.175
-1.175
-1.205
-1.195
-1.195
-1.2
-1.19
-1.205
-1.21
-1.215
-1.23
-1.245
-1.265
-1.285
-1.295
-1.32
-1.325
-1.32
-1.33
-1.32
-1.34
-1.35
-1.365
-1.375
-1.395
-1.41
-1.415
-1.41
-1.415
-1.415
-1.41
-1.4
-1.39
-1.39
-1.405
-1.415
-1.43
-1.425
-1.43
-1.42
-1.425
-1.415
-1.4
-1.395
-1.385
-1.39
-1.385
-1.385
-1.395
-1.405
-1.41
-1.395
-1.385
-1.38
-1.365
-1.35
-1.345
-1.345
-1.35
-1.35
-1.36
-1.37
-1.37
-1.37
-1.365
-1.355
-1.35
-1.335
-1.325
-1.33
-1.335
-1.335
-1.34
-1.355
-1.355
-1.365
-1.36
-1.35
-1.33
-1.33
-1.315
-1.315
-1.325
-1.335
-1.34
-1.34
-1.345
-1.34
-1.34
-1.33
-1.32
-1.32
-1.315
-1.325
-1.315
-1.315
-1.32
-1.325
-1.34
-1.33
-1.33
-1.33
-1.32
-1.32
-1.31
-1.305
-1.31
-1.315
-1.32
-1.335
-1.325
-1.325
-1.32
-1.315
-1.31
-1.31
-1.295
-1.3
-1.3
-1.305
-1.31
-1.325
-1.33
-1.33
-1.335
-1.33
-1.325
-1.31
-1.3
-1.295
-1.305
-1.31
-1.32
-1.33
-1.345
-1.34
-1.345
-1.335
-1.335
-1.32
-1.31
-1.315
-1.31
-1.325
-1.315
-1.325
-1.32
-1.32
-1.335
-1.33
-1.31
-1.305
-1.29
-1.29
-1.29
-1.3
-1.305
-1.325
-1.33
-1.335
-1.33
-1.32
-1.325
-1.31
-1.295
-1.285
-1.3
-1.31
-1.31
-1.33
-1.335
-1.32
-1.33
-1.315
-1.32
-1.305
-1.295
-1.295
-1.295
-1.29
-1.295
-1.3
-1.305
-1.305
-1.31
-1.3
-1.295
-1.305
-1.29
-1.29
-1.285
-1.285
-1.285
-1.28
-1.285
-1.265
-1.26
-1.255
-1.255
-1.24
-1.225
-1.23
-1.245
-1.26
-1.28
-1.285
-1.28
-1.3
-1.29
-1.285
-1.27
-1.265
-1.24
-1.225
-1.215
-1.22
-1.23
-1.245
-1.265
-1.28
-1.3
-1.305
-1.32
-1.32
-1.33
-1.335
-1.325
-1.33
-1.335
-1.335
-1.345
-1.35
-1.34
-1.345
-1.335
-1.34
-1.35
-1.345
-1.315
-1.255
-1.16
-1.06
-0.95
-0.88
-0.845
-0.85
-0.935
-1.095
-1.28
-1.42
-1.47
-1.395
-1.185
-0.92
-0.645
-0.365
-0.125
0.14
0.37
0.56
0.71
0.795
0.845
0.83
0.765
0.685
0.54
0.35
0.12
-0.115
-0.355
-0.615
-0.885
-1.145
-1.35
-1.5
-1.59
-1.635
-1.62
-1.58
-1.535
-1.485
-1.46
-1.425
-1.4
-1.395
-1.39
-1.38
-1.405
-1.41
-1.42
-1.425
-1.425
-1.41
-1.395
-1.4
-1.385
-1.4
-1.4
-1.405
-1.415
-1.43
-1.42
-1.435
-1.43
-1.425
-1.415
-1.415
-1.405
-1.405
-1.405
-1.435
-1.44
-1.435
-1.435
-1.44
-1.44
-1.43
-1.435
-1.43
-1.435
-1.435
-1.44
-1.445
-1.465
-1.48
-1.495
-1.49
-1.485
-1.485
-1.475
-1.475
-1.48
-1.505
-1.525
-1.52
-1.525
-1.53
-1.54
-1.54
-1.55
-1.555
-1.56
-1.555
-1.555
-1.555
-1.56
-1.57
-1.575
-1.6
-1.615
-1.625
-1.615
-1.62
-1.615
-1.6
-1.595
-1.61
-1.61
-1.62
-1.62
-1.62
-1.615
-1.61
-1.605
-1.6
-1.58
-1.575
-1.545
-1.54
-1.535
-1.53
-1.535
-1.525
-1.515
-1.5
-1.47
-1.46
-1.415
-1.405
-1.375
-1.36
-1.355
-1.335
-1.345
-1.355
-1.34
-1.325
-1.305
-1.295
-1.275
-1.265
-1.265
-1.255
-1.245
-1.255
-1.26
-1.265
-1.275
-1.3
-1.29
-1.285
-1.285
-1.285
-1.285
-1.295
-1.315
-1.335
-1.34
-1.355
-1.36
-1.375
-1.395
-1.395
-1.41
-1.41
-1.395
-1.41
-1.415
-1.425
-1.43
-1.45
-1.455
-1.465
-1.47
-1.47
-1.46
-1.455
-1.455
-1.45
-1.455
-1.455
-1.47
-1.47
-1.48
-1.465
-1.47
-1.455
-1.46
-1.445
-1.44
-1.43
-1.43
-1.44
-1.435
-1.455
-1.45
-1.45
-1.45
-1.435
-1.425
-1.41
-1.41
-1.415
-1.415
-1.41
-1.41
-1.415
-1.425
-1.44
-1.43
-1.42
-1.42
-1.415
-1.395
-1.405
-1.405
-1.41
-1.405
-1.415
-1.415
-1.405
-1.41
-1.41
-1.39
-1.4
-1.38
-1.38
-1.38
-1.385
-1.385
-1.4
-1.415
-1.395
-1.385
-1.39
-1.385
-1.39
-1.385
-1.375
-1.385
-1.385
-1.39
-1.4
-1.385
-1.4
-1.385
-1.375
-1.37
-1.37
-1.36
-1.36
-1.365
-1.365
-1.38
-1.38
-1.375
-1.385
-1.375
-1.375
-1.37
-1.38
-1.365
-1.365
-1.375
-1.37
-1.37
-1.365
-1.37
-1.375
-1.385
-1.36
-1.36
-1.35
-1.345
-1.345
-1.35
-1.36
-1.385
-1.365
-1.37
-1.37
-1.375
-1.37
-1.365
-1.355
-1.35
-1.36
-1.365
-1.355
-1.365
-1.37
-1.375
-1.365
-1.365
-1.365
-1.355
-1.345
-1.34
-1.35
-1.365
-1.37
-1.355
-1.365
-1.355
-1.365
-1.36
-1.355
-1.345
-1.335
-1.325
-1.335
-1.34
-1.35
-1.36
-1.375
-1.37
-1.36
-1.355
-1.36
-1.35
-1.35
-1.335
-1.34
-1.345
-1.355
-1.355
-1.36
-1.35
-1.345
-1.33
-1.33
-1.32
-1.315
-1.31
-1.31
-1.33
-1.32
-1.325
-1.325
-1.31
-1.305
-1.295
-1.275
-1.27
-1.26
-1.255
-1.26
-1.27
-1.275
-1.29
-1.295
-1.31
-1.325
-1.33
-1.32
-1.32
-1.31
-1.29
-1.285
-1.275
-1.265
-1.26
-1.26
-1.26
-1.255
-1.26
-1.265
-1.28
-1.285
-1.285
-1.315
-1.325
-1.33
-1.345
-1.345
-1.35
-1.365
-1.36
-1.355
-1.35
-1.35
-1.34
-1.345
-1.36
-1.37
-1.395
-1.395
-1.385
-1.34
-1.28
-1.18
-1.085
-1.01
-0.935
-0.9
-0.91
-0.995
-1.11
-1.27
-1.36
-1.35
-1.2
-0.955
-0.65
-0.345
-0.045
0.22
0.465
0.69
0.875
1.005
1.075
1.07
1.01
0.91
0.76
0.57
0.325
0.085
-0.165
-0.4
-0.64
-0.885
-1.1
-1.3
-1.44
-1.555
-1.615
-1.635
-1.615
-1.605
-1.585
-1.565
-1.575
-1.56
-1.52
-1.515
-1.485
-1.45
-1.43
-1.425
-1.415
-1.415
-1.43
-1.435
-1.44
-1.455
-1.455
-1.455
-1.45
-1.445
-1.43
-1.435
-1.435
-1.425
-1.43
-1.435
-1.445
-1.445
-1.45
-1.45
-1.46
-1.45
-1.445
-1.435
-1.435
-1.435
-1.43
-1.455
-1.455
-1.465
-1.47
-1.475
-1.465
-1.46
-1.455
-1.46
-1.44
-1.45
-1.465
-1.47
-1.48
-1.485
-1.49
-1.5
-1.51
-1.495
-1.505
-1.505
-1.5
-1.5
-1.515
-1.52
-1.525
-1.535
-1.55
-1.555
-1.555
-1.555
-1.535
-1.545
-1.535
-1.535
-1.545
-1.55
-1.565
-1.57
-1.565
-1.575
-1.575
-1.58
-1.57
-1.58
-1.565
-1.545
-1.535
-1.545
-1.55
-1.56
-1.54
-1.55
-1.545
-1.54
-1.505
-1.485
-1.475
-1.475
-1.47
-1.455
-1.43
-1.42
-1.41
-1.395
-1.385
-1.365
-1.34
-1.33
-1.32
-1.29
-1.28
-1.27
-1.255
-1.245
-1.24
-1.24
-1.225
-1.215
-1.205
-1.2
-1.195
-1.185
-1.19
-1.185
-1.195
-1.21
-1.215
-1.225
-1.24
-1.245
-1.255
-1.265
-1.265
-1.28
-1.29
-1.3
-1.325
-1.33
-1.35
-1.36
-1.375
-1.39
-1.4
-1.395
-1.4
-1.405
-1.405
-1.42
-1.45
-1.45
-1.445
-1.45
-1.44
-1.45
-1.435
-1.435
-1.42
-1.43
-1.435
-1.42
-1.44
-1.435
-1.42
-1.425
-1.42
-1.415
-1.405
-1.41
-1.39
-1.38
-1.38
-1.385
-1.38
-1.38
-1.385
-1.37
-1.38
-1.37
-1.365
-1.36
-1.35
-1.335
-1.34
-1.34
-1.34
-1.35
-1.355
-1.35
-1.355
-1.345
-1.335
-1.345
-1.33
-1.33
-1.33
-1.32
-1.325
-1.335
-1.34
-1.325
-1.33
-1.315
-1.315
-1.315
-1.305
-1.31
-1.32
-1.32
-1.31
-1.32
-1.32
-1.32
-1.32
-1.31
-1.29
-1.295
-1.275
-1.28
-1.285
-1.29
-1.29
-1.3
-1.3
-1.305
-1.3
-1.3
-1.285
-1.285
-1.275
-1.27
-1.265
-1.265
-1.27
-1.285
-1.29
-1.29
-1.265
-1.265
-1.255
-1.255
-1.26
-1.25
-1.25
-1.265
-1.255
-1.265
-1.265
-1.265
-1.26
-1.26
-1.255
-1.255
-1.245
-1.245
-1.25
-1.25
-1.25
-1.255
-1.255
-1.255
-1.25
-1.255
-1.245
-1.245
-1.24
-1.235
-1.24
-1.245
-1.25
-1.25
-1.245
-1.25
-1.245
-1.24
-1.23
-1.22
-1.215
-1.22
-1.215
-1.215
-1.225
-1.24
-1.235
-1.24
-1.23
-1.23
-1.225
-1.225
-1.2
-1.205
-1.205
-1.205
-1.21
-1.215
-1.225
-1.23
-1.22
-1.21
-1.205
-1.195
-1.18
-1.18
-1.18
-1.195
-1.185
-1.195
-1.21
-1.2
-1.195
-1.2
-1.185
-1.16
-1.135
-1.125
-1.12
-1.13
-1.13
-1.13
-1.14
-1.14
-1.15
-1.155
-1.155
-1.145
-1.15
-1.145
-1.15
-1.16
-1.155
-1.155
-1.16
-1.14
-1.12
-1.12
-1.11
-1.115
-1.11
-1.135
-1.16
-1.17
-1.19
-1.215
-1.215
-1.22
-1.22
-1.22
-1.22
-1.21
-1.185
-1.17
-1.17
-1.195
-1.21
-1.225
-1.24
-1.23
-1.185
-1.08
-0.975
-0.865
-0.76
-0.7
-0.675
-0.71
-0.83
-1.01
-1.19
-1.305
-1.315
-1.185
-0.96
-0.68
-0.395
-0.13
0.13
0.345
0.555
0.72
0.85
0.93
0.97
0.975
0.935
0.85
0.715
0.505
0.27
0.025
-0.235
-0.49
-0.745
-0.995
-1.195
-1.335
-1.42
-1.455
-1.46
-1.415
-1.375
-1.35
-1.325
-1.31
-1.295
-1.28
-1.275
-1.265
-1.255
-1.24
-1.23
-1.23
-1.24
-1.245
-1.25
-1.255
-1.255
-1.26
-1.26
-1.25
-1.255
-1.235
-1.23
-1.215
-1.23
-1.215
-1.22
-1.245
-1.26
-1.255
-1.25
-1.24
-1.245
-1.25
-1.23
-1.235
-1.225
-1.235
-1.245
-1.255
-1.27
-1.28
-1.28
-1.285
-1.27
-1.275
-1.265
-1.265
-1.285
-1.27
-1.295
-1.305
-1.315
-1.315
-1.315
-1.325
-1.32
-1.32
-1.315
-1.315
-1.305
-1.325
-1.34
-1.35
-1.365
-1.37
-1.38
-1.39
-1.38
-1.375
-1.38
-1.38
-1.385
-1.395
-1.395
-1.4
-1.41
-1.41
-1.42
-1.425
-1.415
-1.405
-1.395
-1.385
-1.38
-1.37
-1.355
-1.355
-1.35
-1.34
-1.325
-1.31
-1.295
-1.28
-1.255
-1.235
-1.225
-1.205
-1.205
-1.19
-1.175
-1.155
-1.145
-1.125
-1.105
-1.095
-1.055
-1.05
-1.035
-1.035
-1.035
-1.05
-1.045
-1.04
-1.04
-1.04
-1.03
-1.04
-1.025
-1.02
-1.035
-1.045
-1.05
-1.065
-1.07
-1.085
-1.1
-1.1
-1.1
-1.095
-1.105
-1.115
-1.135
-1.135
-1.15
-1.17
-1.18
-1.19
-1.205
-1.2
-1.195
-1.19
-1.185
-1.185
-1.19
-1.215
-1.21
-1.205
-1.21
-1.21
-1.22
-1.205
-1.195
-1.19
-1.19
-1.195
-1.185
-1.175
-1.185
-1.185
-1.185
-1.19
-1.175
-1.17
-1.165
-1.16
-1.155
-1.15
-1.145
-1.155
-1.16
-1.16
-1.16
-1.165
-1.17
-1.155
-1.145
-1.14
-1.13
-1.125
-1.125
-1.135
-1.145
-1.15
-1.15
-1.145
-1.145
-1.15
-1.14
-1.145
-1.13
-1.13
-1.13
-1.13
-1.13
-1.125
-1.14
-1.14
-1.135
-1.14
-1.125
-1.11
-1.115
-1.115
-1.125
-1.125
-1.12
-1.125
-1.12
-1.13
-1.13
-1.13
-1.12
-1.115
-1.1
-1.1
-1.1
-1.11
-1.12
-1.125
-1.135
-1.13
-1.135
-1.125
-1.115
-1.12
-1.105
-1.11
-1.105
-1.1
-1.125
-1.13
-1.125
-1.115
-1.12
-1.105
-1.1
-1.095
-1.09
-1.085
-1.085
-1.085
-1.095
-1.1
-1.11
-1.13
-1.12
-1.115
-1.12
-1.105
-1.11
-1.1
-1.1
-1.1
-1.095
-1.1
-1.1
-1.095
-1.1
-1.105
-1.09
-1.09
-1.085
-1.075
-1.08
-1.075
-1.09
-1.1
-1.1
-1.105
-1.1
-1.095
-1.085
-1.085
-1.085
-1.085
-1.065
-1.08
-1.08
-1.085
-1.105
-1.105
-1.105
-1.095
-1.095
-1.08
-1.075
-1.075
-1.07
-1.08
-1.105
-1.095
-1.1
-1.095
-1.09
-1.095
-1.09
-1.085
-1.07
-1.07
-1.075
-1.07
-1.085
-1.085
-1.08
-1.09
-1.08
-1.08
-1.075
-1.06
-1.05
-1.055
-1.05
-1.04
-1.045
-1.055
-1.07
-1.07
-1.08
-1.075
-1.06
-1.035
-1.025
-1.02
-1.02
-1.005
-1.01
-1.015
-1.015
-1.025
-1.03
-1.035
-1.04
-1.05
-1.035
-1.035
-1.04
-1.045
-1.055
-1.04
-1.035
-1.02
-1.0
-0.995
-0.97
-0.985
-0.98
-0.975
-0.995
-1.02
-1.045
-1.07
-1.09
-1.11
-1.115
-1.12
-1.105
-1.095
-1.085
-1.08
-1.09
-1.09
-1.09
-1.12
-1.135
-1.145
-1.145
-1.145
-1.105
-1.045
-0.95
-0.85
-0.75
-0.69
-0.67
-0.7
-0.82
-0.99
-1.13
-1.17
-1.095
-0.875
-0.57
-0.245
0.1
0.425
0.71
0.95
1.13
1.24
1.275
1.28
1.235
1.155
1.02
0.815
0.545
0.27
-0.015
-0.31
-0.625
-0.91
-1.14
-1.3
-1.385
-1.415
-1.39
-1.355
-1.325
-1.295
-1.27
-1.255
-1.255
-1.24
-1.22
-1.205
-1.2
-1.205
-1.2
-1.195
-1.195
-1.2
-1.205
-1.205
-1.21
-1.215
-1.205
-1.205
-1.195
-1.195
-1.185
-1.185
-1.185
-1.205
-1.205
-1.21
-1.22
-1.225
-1.225
-1.225
-1.215
-1.215
-1.21
-1.2
-1.21
-1.23
-1.235
-1.26
-1.25
-1.26
-1.27
-1.265
-1.265
-1.25
-1.255
-1.26
-1.27
-1.275
-1.29
-1.295
-1.31
-1.31
-1.315
-1.32
-1.33
-1.315
-1.305
-1.305
-1.33
-1.335
-1.345
-1.35
-1.36
-1.36
-1.36
-1.355
-1.35
-1.35
-1.35
-1.35
-1.345
-1.35
-1.365
-1.36
-1.37
-1.375
-1.37
-1.365
-1.355
-1.345
-1.345
-1.325
-1.32
-1.32
-1.32
-1.305
-1.295
-1.29
-1.265
-1.265
-1.22
-1.21
-1.175
-1.175
-1.16
-1.135
-1.135
-1.12
-1.115
-1.115
-1.085
-1.07
-1.045
-1.035
-1.025
-1.005
-1.01
-1.005
-1.015
-1.015
-1.02
-1.025
-1.025
-1.025
-1.02
-1.035
-1.04
-1.045
-1.06
-1.055
-1.08
-1.095
-1.115
-1.145
-1.155
-1.165
-1.17
-1.18
-1.18
-1.18
-1.195
-1.2
-1.23
-1.235
-1.255
-1.27
-1.28
-1.265
-1.27
-1.255
-1.26
-1.27
-1.26
-1.26
-1.28
-1.285
-1.29
-1.29
-1.29
-1.295
-1.285
-1.29
-1.275
-1.25
-1.25
-1.255
-1.255
-1.245
-1.26
-1.255
-1.25
-1.26
-1.24
-1.235
-1.225
-1.215
-1.205
-1.215
-1.21
-1.22
-1.205
-1.215
-1.23
-1.215
-1.205
-1.195
-1.185
-1.17
-1.18
-1.18
-1.18
-1.19
-1.195
-1.19
-1.19
-1.19
-1.185
-1.18
-1.165
-1.17
-1.165
-1.165
-1.175
-1.175
-1.175
-1.175
-1.18
-1.175
-1.17
-1.175
-1.155
-1.15
-1.16
-1.155
-1.165
-1.17
-1.175
-1.17
-1.175
-1.16
-1.165
-1.155
-1.15
-1.135
-1.14
-1.145
-1.14
-1.155
-1.16
-1.155
-1.16
-1.155
-1.155
-1.145
-1.14
-1.135
-1.145
-1.14
-1.135
-1.15
-1.165
-1.155
-1.15
-1.145
-1.14
-1.13
-1.125
-1.13
-1.14
-1.14
-1.145
-1.155
-1.145
-1.15
-1.155
-1.165
-1.16
-1.15
-1.13
-1.135
-1.145
-1.13
-1.135
-1.14
-1.165
-1.16
-1.165
-1.15
-1.135
-1.145
-1.155
-1.145
-1.145
-1.135
-1.15
-1.145
-1.145
-1.155
-1.15
-1.145
-1.14
-1.14
-1.125
-1.125
-1.12
-1.13
-1.13
-1.14
-1.14
-1.15
-1.14
-1.14
-1.13
-1.12
-1.125
-1.13
-1.115
-1.115
-1.13
-1.125
-1.125
-1.135
-1.14
-1.145
-1.115
-1.09
-1.075
-1.07
-1.065
-1.055
-1.065
-1.075
-1.075
-1.07
-1.085
-1.085
-1.085
-1.085
-1.085
-1.08
-1.09
-1.085
-1.085
-1.075
-1.065
-1.05
-1.065
-1.055
-1.055
-1.065
-1.08
-1.09
-1.115
-1.125
-1.14
-1.15
-1.17
-1.165
-1.165
-1.155
-1.155
-1.145
-1.135
-1.15
-1.16
-1.155
-1.135
-1.055
-0.96
-0.845
-0.755
-0.685
-0.67
-0.76
-0.92
-1.105
-1.21
-1.15
-0.97
-0.67
-0.325
0.02
0.375
0.675
0.915
1.085
1.17
1.165
1.105
0.975
0.825
0.61
0.345
0.07
-0.19
-0.46
-0.715
-0.955
-1.16
-1.31
-1.4
-1.425
-1.425
-1.39
-1.36
-1.33
-1.305
-1.285
-1.255
-1.245
-1.235
-1.225
-1.215
-1.22
-1.21
-1.225
-1.235
-1.255
-1.255
-1.25
-1.255
-1.24
-1.23
-1.225
-1.225
-1.23
-1.235
-1.245
-1.25
-1.255
-1.25
-1.245
-1.26
-1.24
-1.235
-1.23
-1.24
-1.24
-1.235
-1.26
-1.26
-1.265
-1.28
-1.28
-1.27
-1.27
-1.265
-1.26
-1.265
-1.27
-1.28
-1.285
-1.3
-1.3
-1.305
-1.305
-1.3
-1.3
-1.315
-1.32
-1.32
-1.33
-1.33
-1.345
-1.365
-1.37
-1.37
-1.36
-1.365
-1.365
-1.38
-1.37
-1.38
-1.385
-1.38
-1.385
-1.39
-1.405
-1.41
-1.41
-1.405
-1.385
-1.39
-1.39
-1.395
-1.4
-1.415
-1.41
-1.4
-1.39
-1.385
-1.39
-1.375
-1.365
-1.355
-1.33
-1.33
-1.325
-1.305
-1.31
-1.29
-1.285
-1.26
-1.25
-1.225
-1.2
-1.18
-1.17
-1.15
-1.12
-1.125
-1.115
-1.095
-1.095
-1.07
-1.06
-1.05
-1.05
-1.035
-1.015
-1.025
-1.025
-1.03
-1.035
-1.04
-1.04
-1.05
-1.06
-1.055
-1.06
-1.065
-1.065
-1.065
-1.085
-1.1
-1.11
-1.13
-1.13
-1.14
-1.145
-1.145
-1.155
-1.155
-1.155
-1.17
-1.17
-1.185
-1.205
-1.215
-1.22
-1.215
-1.215
-1.2
-1.205
-1.2
-1.2
-1.205
-1.205
-1.21
-1.245
-1.23
-1.235
-1.23
-1.225
-1.21
-1.205
-1.195
-1.19
-1.19
-1.19
-1.195
-1.19
-1.205
-1.205
-1.21
-1.19
-1.185
-1.185
-1.165
-1.16
-1.165
-1.145
-1.175
-1.175
-1.155
-1.165
-1.16
-1.16
-1.15
-1.15
-1.145
-1.13
-1.13
-1.135
-1.135
-1.145
-1.155
-1.16
-1.15
-1.15
-1.135
-1.135
-1.115
-1.125
-1.105
-1.115
-1.11
-1.13
-1.13
-1.135
-1.13
-1.13
-1.11
-1.095
-1.1
-1.095
-1.095
-1.105
-1.1
-1.115
-1.125
-1.125
-1.11
-1.115
-1.115
-1.1
-1.1
-1.075
-1.09
-1.09
-1.095
-1.1
-1.1
-1.11
-1.1
-1.1
-1.11
-1.09
-1.095
-1.08
-1.08
-1.075
-1.085
-1.09
-1.095
-1.1
-1.1
-1.1
-1.1
-1.095
-1.085
-1.085
-1.07
-1.075
-1.08
-1.085
-1.09
-1.09
-1.09
-1.085
-1.08
-1.075
-1.06
-1.05
-1.045
-1.055
-1.06
-1.06
-1.075
-1.09
-1.09
-1.085
-1.06
-1.07
-1.055
-1.05
-1.05
-1.05
-1.06
-1.06
-1.07
-1.075
-1.07
-1.07
-1.065
-1.05
-1.04
-1.035
-1.04
-1.035
-1.05
-1.05
-1.055
-1.065
-1.06
-1.06
-1.065
-1.05
-1.035
-1.025
-1.025
-1.03
-1.02
-1.02
-1.025
-1.02
-1.03
-1.02
-1.02
-1.01
-1.01
-1.0
-1.01
-1.005
-1.0
-0.99
-0.985
-0.98
-0.975
-0.97
-0.965
-0.965
-0.95
-0.95
-0.96
-0.975
-0.985
-0.99
-0.995
-1.005
-1.0
-1.01
-0.995
-0.99
-0.97
-0.94
-0.95
-0.935
-0.955
-0.975
-0.995
-1.02
-1.035
-1.04
-1.045
-1.04
-1.04
-1.035
-1.045
-1.045
-1.055
-1.04
-1.055
-1.045
-1.055
-1.065
-1.075
-1.085
-1.075
-1.045
-0.99
-0.905
-0.805
-0.72
-0.65
-0.605
-0.6
-0.66
-0.785
-0.945
-1.105
-1.175
-1.13
-0.98
-0.74
-0.45
-0.175
0.1
0.35
0.585
0.815
0.99
1.115
1.215
1.255
1.255
1.23
1.16
1.045
0.86
0.615
0.36
0.075
-0.22
-0.535
-0.82
-1.055
-1.235
-1.325
-1.34
-1.335
-1.295
-1.245
-1.2
-1.165
-1.145
-1.12
-1.12
-1.13
-1.135
-1.135
-1.135
-1.135
-1.15
-1.15
-1.145
-1.16
-1.145
-1.145
-1.125
-1.13
-1.13
-1.125
-1.135
-1.16
-1.15
-1.16
-1.16
-1.155
-1.145
-1.145
-1.14
-1.155
-1.15
-1.17
-1.165
-1.175
-1.18
-1.18
-1.18
-1.18
-1.2
-1.195
-1.19
-1.2
-1.19
-1.215
-1.2
-1.21
-1.215
-1.215
-1.23
-1.23
-1.23
-1.225
-1.225
-1.24
-1.245
-1.245
-1.255
-1.265
-1.275
-1.28
-1.28
-1.285
-1.28
-1.285
-1.285
-1.29
-1.295
-1.295
-1.31
-1.31
-1.32
-1.32
-1.335
-1.325
-1.315
-1.315
-1.305
-1.3
-1.3
-1.305
-1.31
-1.31
-1.295
-1.28
-1.27
-1.26
-1.245
-1.21
-1.195
-1.19
-1.185
-1.17
-1.14
-1.135
-1.125
-1.11
-1.095
-1.07
-1.065
-1.045
-1.01
-1.005
-0.985
-0.98
-0.975
-0.97
-0.975
-0.97
-0.965
-0.95
-0.945
-0.95
-0.94
-0.935
-0.94
-0.945
-0.955
-0.955
-0.97
-0.97
-0.98
-0.98
-0.99
-1.0
-1.0
-1.03
-1.04
-1.05
-1.065
-1.08
-1.08
-1.105
-1.11
-1.105
-1.11
-1.12
-1.13
-1.14
-1.14
-1.165
-1.165
-1.175
-1.185
-1.185
-1.195
-1.185
-1.17
-1.165
-1.175
-1.175
-1.165
-1.16
-1.17
-1.18
-1.18
-1.17
-1.175
-1.17
-1.155
-1.145
-1.135
-1.14
-1.13
-1.145
-1.145
-1.14
-1.145
-1.14
-1.12
-1.12
-1.125
-1.13
-1.105
-1.11
-1.105
-1.11
-1.115
-1.12
-1.12
-1.115
-1.11
-1.105
-1.1
-1.1
-1.09
-1.085
-1.08
-1.09
-1.1
-1.1
-1.12
-1.11
-1.105
-1.09
-1.085
-1.09
-1.09
-1.085
-1.095
-1.09
-1.095
-1.095
-1.115
-1.105
-1.1
-1.08
-1.08
-1.085
-1.09
-1.07
-1.07
-1.07
-1.085
-1.09
-1.085
-1.085
-1.085
-1.085
-1.075
-1.075
-1.065
-1.065
-1.055
-1.07
-1.08
-1.095
-1.09
-1.09
-1.08
-1.085
-1.075
-1.065
-1.06
-1.055
-1.065
-1.07
-1.07
-1.07
-1.08
-1.07
-1.075
-1.065
-1.06
-1.05
-1.055
-1.05
-1.055
-1.055
-1.085
-1.09
-1.08
-1.075
-1.08
-1.065
-1.055
-1.045
-1.05
-1.05
-1.05
-1.05
-1.065
-1.07
-1.07
-1.08
-1.085
-1.08
-1.065
-1.06
-1.045
-1.05
-1.05
-1.05
-1.06
-1.065
-1.055
-1.065
-1.065
-1.06
-1.06
-1.055
-1.04
-1.04
-1.025
-1.025
-1.035
-1.035
-1.04
-1.05
-1.05
-1.05
-1.035
-1.025
-1.005
-0.995
-0.99
-0.98
-0.975
-0.995
-1.005
-1.005
-1.005
-1.005
-1.0
-1.005
-0.995
-1.015
-1.03
-1.015
-1.02
-1.03
-1.025
-1.025
-1.02
-0.985
-0.975
-0.955
-0.95
-0.945
-0.955
-0.975
-0.99
-1.015
-1.035
-1.06
-1.08
-1.07
-1.085
-1.075
-1.07
-1.065
-1.065
-1.07
-1.06
-1.075
-1.08
-1.085
-1.1
-1.115
-1.13
-1.11
-1.07
-1.015
-0.915
-0.825
-0.75
-0.695
-0.655
-0.655
-0.695
-0.79
-0.92
-1.055
-1.14
-1.1
-0.945
-0.695
