Lead II
-0.93
-0.92
-0.935
-0.94
-0.965
-0.97
-0.965
-0.965
-0.96
-0.97
-0.975
-0.965
-0.965
-0.94
-0.945
-0.945
-0.945
-0.96
-0.995
-1.005
-0.99
-0.99
-1.01
-0.985
-0.99
-0.97
-0.97
-0.965
-0.975
-0.98
-0.98
-0.985
-0.975
-0.97
-0.94
-0.905
-0.885
-0.865
-0.835
-0.835
-0.84
-0.855
-0.86
-0.855
-0.865
-0.855
-0.825
-0.805
-0.78
-0.78
-0.78
-0.775
-0.8
-0.81
-0.825
-0.83
-0.86
-0.875
-0.88
-0.885
-0.915
-0.92
-0.95
-0.97
-0.985
-1.01
-1.025
-1.055
-1.075
-1.09
-1.075
-1.065
-1.07
-1.05
-1.035
-1.04
-1.04
-1.05
-1.06
-1.07
-1.07
-1.065
-1.07
-1.05
-1.04
-1.01
-0.94
-0.84
-0.695
-0.5
-0.2
0.095
0.42
0.75
1.1
1.455
1.78
2.075
2.25
2.28
2.12
1.655
1.015
0.375
-0.265
-0.905
-1.545
-1.555
-1.28
-0.99
-0.78
-0.715
-0.735
-0.83
-0.925
-1.01
-1.07
-1.06
-1.055
-1.03
-1.02
-1.01
-1.0
-1.015
-1.025
-1.035
-1.05
-1.04
-1.045
-1.05
-1.03
-1.01
-0.995
-0.99
-0.97
-0.975
-0.985
-0.97
-0.98
-0.98
-0.98
-0.985
-0.985
-0.97
-0.935
-0.91
-0.885
-0.885
-0.865
-0.88
-0.88
-0.875
-0.855
-0.86
-0.835
-0.825
-0.81
-0.775
-0.765
-0.75
-0.75
-0.73
-0.72
-0.695
-0.685
-0.66
-0.625
-0.575
-0.545
-0.51
-0.485
-0.46
-0.44
-0.43
-0.42
-0.415
-0.41
-0.41
-0.39
-0.385
-0.37
-0.345
-0.345
-0.345
-0.355
-0.39
-0.435
-0.465
-0.5
-0.55
-0.58
-0.605
-0.63
-0.675
-0.7
-0.74
-0.765
-0.815
-0.85
-0.89
-0.925
-0.96
-0.98
-0.99
-1.005
-1.015
-1.01
-1.005
-1.02
-1.03
-1.035
-1.06
-1.065
-1.065
-1.08
-1.065
-1.075
-1.06
-1.065
-1.07
-1.09
-1.1
-1.11
-1.115
-1.09
-1.095
-1.09
-1.09
-1.065
-1.05
-1.04
-1.05
-1.045
-1.06
-1.085
-1.09
-1.1
-1.09
-1.09
-1.07
-1.07
-1.06
-1.04
-1.045
-1.05
-1.055
-1.09
-1.105
-1.1
-1.12
-1.1
-1.08
-1.065
-1.065
-1.065
-1.07
-1.09
-1.1
-1.115
-1.125
-1.135
-1.125
-1.115
-1.105
-1.1
-1.1
-1.115
-1.105
-1.12
-1.125
-1.125
-1.14
-1.14
-1.14
-1.135
-1.125
-1.12
-1.11
-1.12
-1.13
-1.135
-1.14
-1.16
-1.165
-1.16
-1.175
-1.165
-1.155
-1.14
-1.13
-1.105
-1.09
-1.075
-1.07
-1.06
-1.085
-1.08
-1.095
-1.105
-1.085
-1.09
-1.06
-1.035
-1.02
-1.015
-1.005
-0.995
-0.985
-0.96
-0.97
-0.97
-0.96
-0.96
-0.97
-0.965
-0.98
-1.01
-1.025
-1.025
-1.035
-1.05
-1.075
-1.085
-1.105
-1.125
-1.135
-1.125
-1.16
-1.17
-1.17
-1.185
-1.185
-1.17
-1.17
-1.19
-1.165
-1.165
-1.15
-1.15
-1.135
-1.145
-1.155
-1.15
-1.155
-1.155
-1.125
-1.07
-0.94
-0.775
-0.515
-0.205
0.155
0.515
0.885
1.25
1.59
1.875
2.08
2.135
2.005
1.62
0.98
0.34
-0.3
-0.94
-1.58
-1.66
-1.45
-1.185
-0.975
-0.865
-0.885
-0.925
-1.0
-1.06
-1.11
-1.125
-1.11
-1.12
-1.115
-1.105
-1.1
-1.115
-1.095
-1.085
-1.09
-1.06
-1.07
-1.065
-1.06
-1.055
-1.06
-1.04
-1.04
-1.03
-1.0
-0.98
-0.975
-0.96
-0.955
-0.95
-0.94
-0.94
-0.935
-0.925
-0.905
-0.89
-0.87
-0.87
-0.845
-0.83
-0.81
-0.8
-0.785
-0.775
-0.765
-0.75
-0.725
-0.69
-0.665
-0.625
-0.585
-0.55
-0.525
-0.5
-0.5
-0.495
-0.475
-0.465
-0.465
-0.46
-0.435
-0.415
-0.38
-0.375
-0.37
-0.365
-0.38
-0.4
-0.41
-0.42
-0.455
-0.475
-0.5
-0.52
-0.555
-0.585
-0.615
-0.655
-0.68
-0.71
-0.74
-0.78
-0.825
-0.855
-0.865
-0.905
-0.925
-0.95
-0.96
-0.97
-0.985
-0.995
-1.02
-1.03
-1.04
-1.055
-1.04
-1.03
-1.015
-1.015
-0.995
-1.005
-1.01
-1.03
-1.04
-1.04
-1.06
-1.06
-1.045
-1.04
-1.025
-1.01
-1.01
-1.03
-1.07
-1.11
-1.14
-1.145
-1.155
-1.15
-1.14
-1.11
-1.09
-1.075
-1.075
-1.085
-1.1
-1.135
-1.155
-1.16
-1.18
-1.165
-1.165
-1.145
-1.145
-1.13
-1.145
-1.16
-1.175
-1.19
-1.185
-1.2
-1.21
-1.205
-1.205
-1.23
-1.2
-1.205
-1.18
-1.185
-1.19
-1.195
-1.195
-1.21
-1.21
-1.225
-1.205
-1.205
-1.2
-1.2
-1.21
-1.2
-1.215
-1.22
-1.22
-1.23
-1.225
-1.24
-1.225
-1.225
-1.215
-1.215
-1.205
-1.215
-1.22
-1.225
-1.235
-1.235
-1.245
-1.265
-1.245
-1.205
-1.17
-1.15
-1.14
-1.13
-1.125
-1.135
-1.15
-1.16
-1.15
-1.155
-1.135
-1.12
-1.1
-1.08
-1.06
-1.07
-1.055
-1.06
-1.065
-1.07
-1.055
-1.065
-1.055
-1.05
-1.045
-1.035
-1.055
-1.055
-1.095
-1.095
-1.105
-1.135
-1.175
-1.19
-1.22
-1.235
-1.235
-1.24
-1.255
-1.25
-1.265
-1.26
-1.275
-1.265
-1.26
-1.25
-1.265
-1.26
-1.24
-1.23
-1.23
-1.23
-1.26
-1.265
-1.255
-1.245
-1.225
-1.175
-1.06
-0.885
-0.62
-0.3
0.075
0.465
0.845
1.21
1.55
1.825
2.04
2.185
2.245
2.16
1.86
1.28
0.64
0.0
-0.64
-1.28
-1.69
-1.51
-1.24
-1.02
-0.895
-0.895
-0.95
-1.03
-1.115
-1.165
-1.19
-1.18
-1.175
-1.17
-1.18
-1.185
-1.185
-1.195
-1.185
-1.195
-1.195
-1.21
-1.2
-1.17
-1.17
-1.19
-1.175
-1.175
-1.165
-1.145
-1.13
-1.125
-1.1
-1.095
-1.095
-1.1
-1.115
-1.115
-1.125
-1.105
-1.085
-1.055
-1.035
-1.02
-1.005
-0.99
-0.985
-0.985
-0.97
-0.96
-0.96
-0.915
-0.875
-0.865
-0.835
-0.8
-0.795
-0.8
-0.75
-0.725
-0.695
-0.68
-0.655
-0.64
-0.605
-0.575
-0.54
-0.515
-0.49
-0.48
-0.475
-0.465
-0.475
-0.475
-0.47
-0.48
-0.485
-0.465
-0.475
-0.475
-0.495
-0.51
-0.545
-0.6
-0.645
-0.69
-0.725
-0.765
-0.8
-0.84
-0.87
-0.89
-0.915
-0.935
-0.975
-1.005
-1.03
-1.055
-1.06
-1.075
-1.11
-1.09
-1.11
-1.095
-1.105
-1.115
-1.125
-1.14
-1.16
-1.155
-1.165
-1.175
-1.165
-1.15
-1.14
-1.125
-1.12
-1.125
-1.115
-1.125
-1.13
-1.14
-1.14
-1.14
-1.13
-1.13
-1.125
-1.11
-1.11
-1.1
-1.09
-1.095
-1.095
-1.1
-1.105
-1.1
-1.07
-1.06
-1.055
-1.055
-1.06
-1.075
-1.1
-1.12
-1.135
-1.14
-1.135
-1.135
-1.145
-1.14
-1.12
-1.115
-1.105
-1.11
-1.125
-1.135
-1.135
-1.14
-1.165
-1.17
-1.165
-1.165
-1.15
-1.13
-1.125
-1.145
-1.14
-1.165
-1.18
-1.165
-1.16
-1.15
-1.155
-1.15
-1.145
-1.145
-1.145
-1.145
-1.145
-1.15
-1.15
-1.165
-1.17
-1.18
-1.15
-1.16
-1.135
-1.11
-1.1
-1.08
-1.07
-1.08
-1.09
-1.09
-1.1
-1.095
-1.09
-1.08
-1.09
-1.05
-1.035
-1.03
-1.025
-1.01
-1.0
-1.005
-1.0
-1.015
-1.0
-1.02
-1.035
-1.03
-1.04
-1.055
-1.06
-1.075
-1.08
-1.105
-1.12
-1.14
-1.15
-1.18
-1.195
-1.205
-1.22
-1.24
-1.255
-1.26
-1.26
-1.26
-1.26
-1.25
-1.25
-1.245
-1.235
-1.21
-1.21
-1.22
-1.23
-1.25
-1.26
-1.265
-1.26
-1.21
-1.12
-0.975
-0.765
-0.475
-0.165
0.205
0.595
1.0
1.385
1.76
2.08
2.275
2.365
2.275
1.915
1.275
0.635
-0.005
-0.645
-1.285
-1.72
-1.48
-1.225
-1.02
-0.96
-0.975
-1.065
-1.165
-1.23
-1.275
-1.29
-1.295
-1.295
-1.305
-1.295
-1.27
-1.295
-1.27
-1.26
-1.26
-1.265
-1.255
-1.255
-1.26
-1.26
-1.26
-1.25
-1.25
-1.24
-1.21
-1.21
-1.195
-1.185
-1.18
-1.185
-1.18
-1.18
-1.18
-1.18
-1.17
-1.15
-1.12
-1.115
-1.09
-1.09
-1.08
-1.06
-1.055
-1.07
-1.04
-1.035
-1.015
-0.985
-0.965
-0.94
-0.9
-0.9
-0.875
-0.845
-0.82
-0.805
-0.79
-0.78
-0.74
-0.72
-0.685
-0.67
-0.625
-0.62
-0.6
-0.6
-0.6
-0.61
-0.62
-0.625
-0.63
-0.625
-0.625
-0.645
-0.65
-0.695
-0.73
-0.755
-0.795
-0.835
-0.86
-0.905
-0.955
-0.985
-1.0
-1.03
-1.06
-1.1
-1.13
-1.165
-1.19
-1.23
-1.24
-1.255
-1.275
-1.28
-1.28
-1.28
-1.275
-1.28
-1.29
-1.3
-1.325
-1.325
-1.33
-1.335
-1.365
-1.365
-1.345
-1.34
-1.32
-1.33
-1.31
-1.315
-1.325
-1.33
-1.32
-1.33
-1.325
-1.33
-1.315
-1.315
-1.3
-1.315
-1.31
-1.315
-1.305
-1.315
-1.315
-1.315
-1.3
-1.295
-1.29
-1.29
-1.29
-1.295
-1.31
-1.32
-1.32
-1.33
-1.32
-1.33
-1.33
-1.325
-1.33
-1.345
-1.335
-1.345
-1.33
-1.335
-1.345
-1.365
-1.37
-1.38
-1.395
-1.375
-1.365
-1.365
-1.355
-1.335
-1.35
-1.345
-1.365
-1.37
-1.38
-1.385
-1.4
-1.395
-1.39
-1.385
-1.37
-1.37
-1.38
-1.375
-1.395
-1.4
-1.4
-1.4
-1.395
-1.375
-1.36
-1.35
-1.31
-1.31
-1.295
-1.285
-1.285
-1.3
-1.295
-1.3
-1.3
-1.28
-1.285
-1.27
-1.255
-1.24
-1.225
-1.22
-1.205
-1.205
-1.205
-1.215
-1.215
-1.22
-1.23
-1.235
-1.25
-1.245
-1.25
-1.245
-1.255
-1.25
-1.295
-1.315
-1.32
-1.335
-1.365
-1.38
-1.375
-1.385
-1.395
-1.39
-1.4
-1.405
-1.395
-1.395
-1.4
-1.385
-1.375
-1.375
-1.355
-1.345
-1.35
-1.345
-1.35
-1.325
-1.285
-1.195
-1.035
-0.79
-0.48
-0.105
0.345
0.8
1.265
1.685
2.005
2.215
2.27
2.08
1.62
0.98
0.34
-0.3
-0.94
-1.58
-1.81
-1.575
-1.31
-1.095
-1.01
-1.03
-1.115
-1.19
-1.245
-1.28
-1.29
-1.295
-1.28
-1.285
-1.29
-1.295
-1.3
-1.305
-1.29
-1.29
-1.27
-1.26
-1.235
-1.225
-1.22
-1.205
-1.225
-1.225
-1.235
-1.225
-1.23
-1.215
-1.195
-1.175
-1.16
-1.14
-1.13
-1.125
-1.125
-1.125
-1.115
-1.12
-1.095
-1.09
-1.065
-1.055
-1.025
-1.01
-1.015
-0.995
-0.98
-0.97
-0.94
-0.945
-0.925
-0.885
-0.85
-0.83
-0.805
-0.8
-0.775
-0.74
-0.715
-0.685
-0.655
-0.645
-0.63
-0.605
-0.6
-0.59
-0.56
-0.535
-0.535
-0.535
-0.515
-0.535
-0.525
-0.535
-0.535
-0.56
-0.56
-0.58
-0.6
-0.62
-0.67
-0.705
-0.74
-0.79
-0.815
-0.85
-0.885
-0.905
-0.935
-0.96
-0.98
-1.02
-1.035
-1.065
-1.1
-1.13
-1.13
-1.155
-1.155
-1.14
-1.15
-1.145
-1.135
-1.13
-1.15
-1.145
-1.165
-1.19
-1.205
-1.195
-1.195
-1.185
-1.155
-1.14
-1.125
-1.12
-1.12
-1.13
-1.13
-1.125
-1.125
-1.135
-1.135
-1.105
-1.1
-1.1
-1.095
-1.1
-1.1
-1.1
-1.11
-1.11
-1.11
-1.1
-1.115
-1.105
-1.08
-1.065
-1.035
-1.02
-0.98
-0.96
-0.94
-0.9
-0.855
-0.795
-0.74
-0.67
-0.585
-0.495
-0.41
-0.345
-0.29
-0.22
-0.135
-0.05
0.045
0.135
0.245
0.345
0.48
0.645
0.825
1.015
1.24
1.43
1.625
1.825
2.0
2.135
2.26
2.375
2.475
2.54
2.6
2.61
2.6
2.58
2.53
2.455
2.29
1.96
1.365
0.725
0.085
-0.555
-1.13
-1.29
-1.32
-1.315
-1.335
-1.375
-1.44
-1.525
-1.59
-1.635
-1.65
-1.66
-1.655
-1.64
-1.65
-1.65
-1.655
-1.67
-1.69
-1.72
-1.76
-1.765
-1.76
-1.78
-1.77
-1.8
-1.815
-1.83
-1.865
-1.88
-1.89
-1.915
-1.945
-1.935
-1.935
-1.935
-1.95
-1.96
-1.965
-2.0
-2.025
-2.055
-2.085
-2.125
-2.15
-2.175
-2.18
-2.2
-2.19
-2.195
-2.21
-2.24
-2.26
-2.285
-2.315
-2.34
-2.34
-2.365
-2.355
-2.345
-2.34
-2.34
-2.34
-2.32
-2.345
-2.32
-2.305
-2.27
-2.25
-2.215
-2.16
-2.13
-2.065
-2.04
-1.99
-1.925
-1.88
-1.825
-1.76
-1.71
-1.655
-1.61
-1.555
-1.505
-1.46
-1.42
-1.385
-1.37
-1.345
-1.35
-1.33
-1.35
-1.35
-1.32
-1.305
-1.305
-1.28
-1.3
-1.305
-1.305
-1.315
-1.3
-1.31
-1.3
-1.3
-1.295
-1.295
-1.275
-1.27
-1.27
-1.27
-1.28
-1.3
-1.295
-1.3
-1.305
-1.31
-1.295
-1.29
-1.29
-1.275
-1.265
-1.265
-1.28
-1.28
-1.295
-1.31
-1.325
-1.325
-1.325
-1.33
-1.32
-1.295
-1.29
-1.295
-1.31
-1.315
-1.315
-1.32
-1.31
-1.31
-1.315
-1.31
-1.305
-1.335
-1.32
-1.325
-1.34
-1.33
-1.345
-1.345
-1.345
-1.34
-1.33
-1.32
-1.325
-1.315
-1.31
-1.315
-1.31
-1.325
-1.335
-1.325
-1.355
-1.345
-1.34
-1.33
-1.325
-1.305
-1.3
-1.3
-1.3
-1.32
-1.325
-1.32
-1.33
-1.325
-1.305
-1.295
-1.295
-1.285
-1.28
-1.28
-1.3
-1.31
-1.31
-1.305
-1.325
-1.32
-1.335
-1.315
-1.32
-1.3
-1.275
-1.28
-1.28
-1.285
-1.29
-1.3
-1.305
-1.3
-1.3
-1.295
-1.285
-1.285
-1.275
-1.28
-1.285
-1.3
-1.295
-1.3
-1.31
-1.315
-1.31
-1.305
-1.275
-1.26
-1.245
-1.245
-1.24
-1.255
-1.27
-1.275
-1.285
-1.29
-1.285
-1.27
-1.26
-1.245
-1.235
-1.24
-1.255
-1.26
-1.27
-1.285
-1.285
-1.295
-1.285
-1.285
-1.26
-1.255
-1.245
-1.255
-1.25
-1.265
-1.28
-1.26
-1.275
-1.26
-1.265
-1.25
-1.235
-1.23
-1.225
-1.225
-1.23
-1.23
-1.27
-1.26
-1.27
-1.255
-1.235
-1.215
-1.2
-1.195
-1.2
-1.205
-1.215
-1.225
-1.225
-1.245
-1.235
-1.245
-1.23
-1.22
-1.2
-1.16
-1.135
-1.11
-1.105
-1.085
-1.095
-1.095
-1.105
-1.105
-1.11
-1.09
-1.085
-1.07
-1.055
-1.035
-1.025
-1.01
-1.01
-1.02
-1.03
-1.035
-1.03
-1.03
-1.03
-1.025
-1.025
-1.03
-1.045
-1.065
-1.1
-1.13
-1.155
-1.18
-1.195
-1.21
-1.21
-1.22
-1.23
-1.225
-1.225
-1.205
-1.215
-1.215
-1.225
-1.22
-1.21
-1.225
-1.195
-1.19
-1.17
-1.155
-1.15
-1.11
-1.025
-0.88
-0.68
-0.38
-0.005
0.415
0.89
1.38
1.825
2.18
2.42
2.5
2.495
2.355
2.065
1.52
0.88
0.24
-0.4
-1.04
-1.595
-1.425
-1.17
-0.96
-0.865
-0.875
-0.96
-1.065
-1.145
-1.185
-1.195
-1.165
-1.16
-1.145
-1.165
-1.195
-1.21
-1.205
-1.205
-1.21
-1.2
-1.185
-1.19
-1.165
-1.155
-1.155
-1.135
-1.15
-1.145
-1.155
-1.17
-1.15
-1.155
-1.135
-1.12
-1.1
-1.08
-1.085
-1.085
-1.09
-1.075
-1.065
-1.04
-1.035
-1.005
-0.985
-0.995
-0.965
-0.94
-0.91
-0.89
-0.875
-0.875
-0.885
-0.855
-0.86
-0.855
-0.81
-0.76
-0.715
-0.69
-0.665
-0.64
-0.615
-0.61
-0.585
-0.565
-0.53
-0.505
-0.46
-0.44
-0.405
-0.355
-0.335
-0.325
-0.315
-0.31
-0.315
-0.295
-0.285
-0.265
-0.255
-0.245
-0.23
-0.23
-0.245
-0.27
-0.295
-0.335
-0.375
-0.41
-0.47
-0.515
-0.565
-0.61
-0.63
-0.67
-0.695
-0.745
-0.785
-0.84
-0.875
-0.905
-0.94
-0.955
-0.97
-0.995
-1.0
-1.005
-0.995
-1.005
-1.015
-1.04
-1.06
-1.075
-1.08
-1.075
-1.075
-1.065
-1.065
-1.05
-1.055
-1.05
-1.06
-1.08
-1.085
-1.095
-1.095
-1.09
-1.085
-1.085
-1.09
-1.09
-1.085
-1.075
-1.075
-1.075
-1.09
-1.11
-1.12
-1.125
-1.11
-1.095
-1.095
-1.11
-1.115
-1.105
-1.13
-1.14
-1.16
-1.17
-1.175
-1.165
-1.155
-1.16
-1.15
-1.155
-1.165
-1.17
-1.19
-1.2
-1.22
-1.225
-1.215
-1.225
-1.23
-1.23
-1.215
-1.225
-1.23
-1.23
-1.23
-1.255
-1.27
-1.275
-1.285
-1.3
-1.3
-1.27
-1.275
-1.27
-1.275
-1.27
-1.27
-1.285
-1.305
-1.29
-1.305
-1.285
-1.255
-1.245
-1.215
-1.2
-1.195
-1.19
-1.225
-1.22
-1.235
-1.255
-1.24
-1.23
-1.205
-1.195
-1.17
-1.16
-1.145
-1.14
-1.15
-1.15
-1.155
-1.15
-1.165
-1.175
-1.175
-1.185
-1.195
-1.195
-1.195
-1.2
-1.22
-1.235
-1.28
-1.3
-1.34
-1.375
-1.385
-1.405
-1.405
-1.385
-1.385
-1.37
-1.38
-1.38
-1.395
-1.405
-1.405
-1.39
-1.37
-1.39
-1.395
-1.365
-1.375
-1.37
-1.375
-1.365
-1.34
-1.255
-1.14
-0.94
-0.63
-0.26
0.18
0.655
1.155
1.615
1.99
2.25
2.375
2.385
2.265
2.005
1.53
0.89
0.25
-0.39
-1.03
-1.67
-1.88
-1.66
-1.425
-1.215
-1.125
-1.115
-1.175
-1.245
-1.31
-1.355
-1.375
-1.375
-1.37
-1.36
-1.37
-1.37
-1.37
-1.38
-1.38
-1.38
-1.37
-1.355
-1.36
-1.345
-1.335
-1.34
-1.345
-1.33
-1.34
-1.32
-1.3
-1.285
-1.28
-1.26
-1.27
-1.265
-1.28
-1.29
-1.295
-1.29
-1.27
-1.25
-1.235
-1.215
-1.2
-1.2
-1.175
-1.16
-1.155
-1.155
-1.14
-1.13
-1.125
-1.105
-1.095
-1.07
-1.045
-1.01
-0.98
-0.97
-0.96
-0.94
-0.93
-0.91
-0.89
-0.87
-0.845
-0.81
-0.765
-0.765
-0.745
-0.74
-0.74
-0.74
-0.735
-0.745
-0.735
-0.725
-0.73
-0.73
-0.72
-0.7
-0.705
-0.73
-0.765
-0.805
-0.835
-0.875
-0.915
-0.95
-0.985
-1.0
-1.045
-1.045
-1.07
-1.11
-1.13
-1.155
-1.19
-1.205
-1.235
-1.26
-1.265
-1.305
-1.315
-1.31
-1.31
-1.335
-1.345
-1.36
-1.37
-1.385
-1.385
-1.385
-1.405
-1.4
-1.375
-1.36
-1.365
-1.345
-1.35
-1.365
-1.38
-1.375
-1.37
-1.375
-1.355
-1.34
-1.34
-1.325
-1.325
-1.315
-1.34
-1.35
-1.36
-1.365
-1.375
-1.375
-1.35
-1.345
-1.33
-1.32
-1.315
-1.315
-1.325
-1.335
-1.345
-1.36
-1.355
-1.365
-1.355
-1.35
-1.345
-1.345
-1.33
-1.345
-1.36
-1.36
-1.385
-1.395
-1.38
-1.37
-1.355
-1.36
-1.345
-1.35
-1.37
-1.36
-1.38
-1.39
-1.41
-1.4
-1.405
-1.4
-1.37
-1.365
-1.36
-1.345
-1.355
-1.345
-1.36
-1.37
-1.39
-1.4
-1.39
-1.38
-1.365
-1.38
-1.375
-1.36
-1.34
-1.355
-1.37
-1.355
-1.365
-1.365
-1.375
-1.35
-1.33
-1.3
-1.27
-1.245
-1.245
-1.24
-1.25
-1.26
-1.265
-1.265
-1.3
-1.28
-1.24
-1.22
-1.2
-1.16
-1.165
-1.165
-1.155
-1.165
-1.185
-1.19
-1.19
-1.205
-1.215
-1.215
-1.215
-1.21
-1.24
-1.255
-1.295
-1.325
-1.35
-1.375
-1.395
-1.41
-1.405
-1.39
-1.375
-1.365
-1.36
-1.365
-1.385
-1.385
-1.4
-1.385
-1.4
-1.405
-1.4
-1.38
-1.375
-1.365
-1.33
-1.265
-1.185
-1.06
-0.885
-0.655
-0.37
-0.025
0.385
0.89
1.405
1.87
2.185
2.3
2.17
1.7
1.06
0.42
-0.22
-0.86
-1.5
-1.785
-1.465
-1.165
-0.98
-0.945
-1.015
-1.13
-1.235
-1.305
-1.34
-1.345
-1.335
-1.315
-1.295
-1.285
-1.285
-1.285
-1.295
-1.295
-1.295
-1.305
-1.305
-1.295
-1.27
-1.27
-1.26
-1.245
-1.23
-1.225
-1.22
-1.23
-1.24
-1.24
-1.225
-1.22
-1.195
-1.165
-1.155
-1.135
-1.13
-1.12
-1.135
-1.115
-1.115
-1.115
-1.13
-1.09
-1.07
-1.04
-1.02
-0.98
-0.965
-0.945
-0.945
-0.945
-0.925
-0.895
-0.88
-0.85
-0.82
-0.78
-0.75
-0.705
-0.68
-0.65
-0.65
-0.645
-0.63
-0.615
-0.61
-0.585
-0.565
-0.545
-0.525
-0.515
-0.51
-0.52
-0.535
-0.54
-0.565
-0.575
-0.615
-0.63
-0.655
-0.685
-0.71
-0.73
-0.77
-0.805
-0.845
-0.87
-0.91
-0.95
-1.0
-1.015
-1.05
-1.07
-1.08
-1.11
-1.13
-1.145
-1.17
-1.195
-1.21
-1.22
-1.22
-1.215
-1.215
-1.21
-1.215
-1.2
-1.205
-1.19
-1.2
-1.22
-1.22
-1.22
-1.235
-1.23
-1.22
-1.2
-1.19
-1.185
-1.155
-1.165
-1.16
-1.17
-1.17
-1.175
-1.18
-1.17
-1.165
-1.16
-1.16
-1.155
-1.15
-1.15
-1.16
-1.16
-1.17
-1.16
-1.17
-1.165
-1.155
-1.15
-1.14
-1.145
-1.155
-1.16
-1.185
-1.2
-1.225
-1.215
-1.22
-1.225
-1.22
-1.21
-1.19
-1.18
-1.19
-1.2
-1.22
-1.235
-1.24
-1.245
-1.25
-1.25
-1.235
-1.225
-1.21
-1.195
-1.2
-1.205
-1.22
-1.235
-1.25
-1.255
-1.255
-1.26
-1.265
-1.26
-1.26
-1.235
-1.245
-1.24
-1.25
-1.27
-1.265
-1.295
-1.275
-1.27
-1.26
-1.245
-1.245
-1.23
-1.23
-1.195
-1.195
-1.17
-1.155
-1.165
-1.155
-1.165
-1.155
-1.155
-1.135
-1.14
-1.135
-1.105
-1.085
-1.085
-1.075
-1.07
-1.07
-1.07
-1.06
-1.055
-1.065
-1.07
-1.085
-1.11
-1.125
-1.145
-1.155
-1.15
-1.16
-1.185
-1.2
-1.225
-1.245
-1.255
-1.265
-1.29
-1.305
-1.31
-1.325
-1.345
-1.33
-1.325
-1.305
-1.3
-1.29
-1.285
-1.265
-1.255
-1.275
-1.295
-1.325
-1.34
-1.335
-1.3
-1.245
-1.12
-0.965
-0.745
-0.485
-0.17
0.17
0.55
0.96
1.405
1.82
2.145
2.33
2.35
2.16
1.725
1.085
0.445
-0.195
-0.835
-1.475
-1.725
-1.465
-1.18
-0.945
-0.85
-0.875
-0.945
-1.08
-1.165
-1.235
-1.275
-1.285
-1.28
-1.265
-1.255
-1.26
-1.235
-1.225
-1.2
-1.2
-1.195
-1.2
-1.205
-1.215
-1.215
-1.215
-1.21
-1.205
-1.195
-1.185
-1.155
-1.14
-1.125
-1.13
-1.125
-1.125
-1.125
-1.12
-1.12
-1.09
-1.08
-1.065
-1.04
-1.025
-1.015
-1.02
-1.02
-0.995
-0.98
-0.95
-0.92
-0.89
-0.87
-0.83
-0.785
-0.765
-0.735
-0.735
-0.705
-0.69
-0.67
-0.645
-0.615
-0.6
-0.575
-0.545
-0.5
-0.495
-0.47
-0.475
-0.475
-0.49
-0.505
-0.515
-0.515
-0.52
-0.535
-0.55
-0.57
-0.58
-0.62
-0.655
-0.705
-0.755
-0.785
-0.855
-0.905
-0.92
-0.95
-0.97
-0.99
-1.015
-1.045
-1.07
-1.08
-1.125
-1.14
-1.155
-1.185
-1.18
-1.185
-1.175
-1.155
-1.155
-1.15
-1.155
-1.16
-1.175
-1.18
-1.185
-1.18
-1.175
-1.15
-1.135
-1.11
-1.125
-1.135
-1.14
-1.14
-1.145
-1.14
-1.135
-1.14
-1.12
-1.115
-1.1
-1.09
-1.09
-1.095
-1.095
-1.11
-1.115
-1.115
-1.135
-1.14
-1.135
-1.13
-1.13
-1.105
-1.11
-1.13
-1.13
-1.135
-1.14
-1.145
-1.16
-1.17
-1.175
-1.175
-1.175
-1.155
-1.165
-1.16
-1.165
-1.19
-1.2
-1.19
-1.2
-1.205
-1.205
-1.205
-1.205
-1.19
-1.185
-1.195
-1.19
-1.205
-1.22
-1.23
-1.24
-1.245
-1.235
-1.23
-1.2
-1.195
-1.195
-1.195
-1.195
-1.215
-1.235
-1.23
-1.235
-1.245
-1.225
-1.21
-1.2
-1.175
-1.16
-1.16
-1.14
-1.12
-1.125
-1.12
-1.13
-1.125
-1.125
-1.115
-1.11
-1.115
-1.085
-1.08
-1.055
-1.05
-1.035
-1.025
-1.03
-1.045
-1.04
-1.035
-1.02
-1.02
-1.03
-1.04
-1.06
-1.085
-1.1
-1.11
-1.13
-1.165
-1.165
-1.18
-1.2
-1.22
-1.235
-1.26
-1.27
-1.275
-1.28
-1.27
-1.275
-1.27
-1.26
-1.25
-1.24
-1.23
-1.225
-1.215
-1.23
-1.255
-1.265
-1.29
-1.285
-1.27
-1.23
-1.17
-1.07
-0.915
-0.705
-0.43
-0.07
0.35
0.815
1.315
1.785
2.115
2.345
2.43
2.345
2.045
1.48
0.84
0.2
-0.44
-1.08
-1.72
-1.595
-1.305
-1.025
-0.85
-0.79
-0.845
-0.945
-1.06
-1.16
-1.22
-1.26
-1.24
-1.24
-1.245
-1.225
-1.245
-1.215
-1.205
-1.22
-1.215
-1.205
-1.21
-1.21
-1.19
-1.2
-1.21
-1.195
-1.18
-1.175
-1.165
-1.165
-1.155
-1.145
-1.14
-1.14
-1.135
-1.135
-1.125
-1.1
-1.08
-1.055
-1.04
-1.035
-1.03
-1.015
-1.02
-1.005
-0.99
-0.98
-0.965
-0.94
-0.91
-0.895
-0.86
-0.84
-0.825
-0.79
-0.775
-0.76
-0.725
-0.71
-0.695
-0.655
-0.63
-0.59
-0.555
-0.52
-0.51
-0.485
-0.485
-0.5
-0.49
-0.49
-0.48
-0.465
-0.455
-0.435
-0.43
-0.44
-0.47
-0.5
-0.53
-0.56
-0.59
-0.64
-0.675
-0.71
-0.75
-0.81
-0.83
-0.87
-0.895
-0.925
-0.965
-0.98
-1.015
-1.05
-1.08
-1.105
-1.115
-1.12
-1.115
-1.13
-1.14
-1.155
-1.17
-1.17
-1.185
-1.19
-1.19
-1.19
-1.2
-1.175
-1.17
-1.17
-1.165
-1.15
-1.16
-1.175
-1.18
-1.17
-1.17
-1.165
-1.145
-1.135
-1.13
-1.135
-1.14
-1.125
-1.145
-1.17
-1.175
-1.16
-1.15
-1.14
-1.12
-1.115
-1.09
-1.095
-1.125
-1.125
-1.14
-1.155
-1.185
-1.205
-1.19
-1.19
-1.17
-1.18
-1.18
-1.175
-1.175
-1.17
-1.19
-1.195
-1.21
-1.22
-1.23
-1.23
-1.22
-1.23
-1.21
-1.21
-1.225
-1.215
-1.225
-1.23
-1.235
-1.255
-1.26
-1.245
-1.245
-1.23
-1.235
-1.24
-1.23
-1.25
-1.26
-1.265
-1.275
-1.285
-1.285
-1.275
-1.27
-1.265
-1.26
-1.26
-1.26
-1.255
-1.26
-1.26
-1.24
-1.25
-1.22
-1.21
-1.18
-1.165
-1.15
-1.17
-1.17
-1.18
-1.185
-1.185
-1.175
-1.165
-1.16
-1.14
-1.12
-1.085
-1.075
-1.07
-1.07
-1.075
-1.095
-1.11
-1.15
-1.175
-1.17
-1.165
-1.16
-1.15
-1.14
-1.13
-1.15
-1.19
-1.23
-1.27
-1.295
-1.33
-1.365
-1.365
-1.345
-1.33
-1.315
-1.315
-1.31
-1.31
-1.32
-1.325
-1.32
-1.32
-1.31
-1.295
-1.3
-1.295
-1.295
-1.3
-1.285
-1.24
-1.185
-1.05
-0.815
-0.49
-0.08
0.41
0.955
1.485
1.945
2.29
2.46
2.47
2.28
1.935
1.33
0.69
0.05
-0.59
-1.23
-1.87
-1.825
-1.525
-1.22
-1.02
-0.965
-1.005
-1.095
-1.22
-1.31
-1.335
-1.335
-1.315
-1.305
-1.29
-1.265
-1.265
-1.285
-1.295
-1.3
-1.31
-1.31
-1.295
-1.275
-1.26
-1.245
-1.24
-1.235
-1.23
-1.25
-1.24
-1.25
-1.27
-1.25
-1.245
-1.21
-1.205
-1.165
-1.16
-1.15
-1.145
-1.15
-1.165
-1.16
-1.175
-1.145
-1.105
-1.085
-1.05
-1.02
-1.005
-0.98
-0.97
-0.965
-0.93
-0.93
-0.895
-0.88
-0.82
-0.79
-0.75
-0.715
-0.7
-0.67
-0.645
-0.645
-0.63
-0.63
-0.62
-0.595
-0.575
-0.565
-0.55
-0.535
-0.525
-0.525
-0.53
-0.55
-0.6
-0.595
-0.63
-0.675
-0.695
-0.73
-0.745
-0.775
-0.81
-0.865
-0.905
-0.945
-0.99
-1.02
-1.06
-1.095
-1.11
-1.13
-1.15
-1.16
-1.165
-1.185
-1.2
-1.215
-1.24
-1.23
-1.25
-1.255
-1.26
-1.24
-1.255
-1.245
-1.24
-1.235
-1.25
-1.24
-1.255
-1.265
-1.245
-1.27
-1.255
-1.235
-1.225
-1.2
-1.175
-1.175
-1.17
-1.185
-1.185
-1.185
-1.22
-1.22
-1.225
-1.21
-1.195
-1.18
-1.18
-1.18
-1.175
-1.18
-1.195
-1.195
-1.205
-1.205
-1.205
-1.205
-1.19
-1.19
-1.175
-1.21
-1.2
-1.225
-1.21
-1.225
-1.235
-1.24
-1.23
-1.225
-1.215
-1.2
-1.205
-1.23
-1.23
-1.255
-1.275
-1.28
-1.28
-1.265
-1.26
-1.245
-1.25
-1.255
-1.26
-1.26
-1.265
-1.265
-1.265
-1.265
-1.27
-1.285
-1.29
-1.27
-1.27
-1.26
-1.255
-1.265
-1.265
-1.255
-1.275
-1.295
-1.29
-1.29
-1.275
-1.265
-1.265
-1.255
-1.24
-1.23
-1.22
-1.22
-1.215
-1.205
-1.18
-1.185
-1.175
-1.15
-1.14
-1.14
-1.135
-1.135
-1.155
-1.145
-1.145
-1.135
-1.115
-1.105
-1.075
-1.055
-1.045
-1.065
-1.065
-1.07
-1.075
-1.085
-1.11
-1.12
-1.135
-1.14
-1.15
-1.155
-1.18
-1.19
-1.215
-1.255
-1.275
-1.295
-1.31
-1.32
-1.31
-1.31
-1.295
-1.28
-1.28
-1.27
-1.255
-1.265
-1.26
-1.28
-1.285
-1.295
-1.285
-1.28
-1.28
-1.245
-1.21
-1.125
-0.995
-0.765
-0.445
-0.07
0.35
0.755
1.18
1.575
1.94
2.23
2.405
2.455
2.395
2.165
1.69
1.05
0.41
-0.23
-0.87
-1.51
-1.64
-1.365
-1.085
-0.905
-0.84
-0.91
-1.005
-1.115
-1.185
-1.245
-1.235
-1.225
-1.21
-1.195
-1.2
-1.205
-1.2
-1.205
-1.195
-1.21
-1.215
-1.215
-1.21
-1.205
-1.185
-1.175
-1.17
-1.15
-1.13
-1.135
-1.135
-1.14
-1.175
-1.165
-1.135
-1.15
-1.13
-1.12
-1.1
-1.065
-1.05
-1.055
-1.03
-1.02
-1.02
-1.015
-1.015
-1.005
-0.965
-0.955
-0.94
-0.9
-0.89
-0.875
-0.87
-0.835
-0.825
-0.815
-0.795
-0.765
-0.75
-0.7
-0.665
-0.64
-0.59
-0.55
-0.565
-0.55
-0.545
-0.5
-0.51
-0.505
-0.495
-0.44
-0.43
-0.415
-0.405
-0.42
-0.43
-0.435
-0.47
-0.5
-0.51
-0.535
-0.56
-0.605
-0.65
-0.705
-0.73
-0.77
-0.825
-0.875
-0.9
-0.95
-0.98
-0.995
-1.02
-1.02
-1.02
-1.04
-1.04
-1.08
-1.1
-1.12
-1.135
-1.15
-1.155
-1.17
-1.17
-1.17
-1.165
-1.175
-1.155
-1.145
-1.15
-1.15
-1.15
-1.145
-1.17
-1.18
-1.165
-1.14
-1.13
-1.115
-1.11
-1.105
-1.09
-1.1
-1.115
-1.115
-1.095
-1.09
-1.08
-1.065
-1.055
-1.035
-1.015
-0.98
-0.93
-0.885
-0.85
-0.82
-0.775
-0.72
-0.67
-0.59
-0.52
-0.435
-0.35
-0.3
-0.22
-0.135
-0.03
0.1
0.255
0.41
0.58
0.77
0.985
1.2
1.43
1.655
1.835
2.015
2.175
2.31
2.405
2.48
2.53
2.58
2.61
2.635
2.65
2.635
2.61
2.575
2.525
2.445
2.25
1.84
1.2
0.56
-0.08
-0.72
-1.12
-1.275
-1.34
-1.345
-1.37
-1.41
-1.47
-1.545
-1.635
-1.695
-1.74
-1.755
-1.78
-1.76
-1.755
-1.755
-1.755
-1.765
-1.765
-1.805
-1.84
-1.855
-1.855
-1.85
-1.87
-1.875
-1.875
-1.88
-1.905
-1.95
-1.97
-1.995
-2.01
-2.015
-2.025
-2.035
-2.05
-2.075
-2.095
-2.13
-2.17
-2.2
-2.225
-2.235
-2.255
-2.27
-2.28
-2.305
-2.315
-2.335
-2.35
-2.375
-2.415
-2.465
-2.495
-2.53
-2.525
-2.525
-2.52
-2.505
-2.495
-2.49
-2.485
-2.485
-2.46
-2.435
-2.405
-2.375
-2.33
-2.285
-2.215
-2.16
-2.1
-2.04
-1.99
-1.95
-1.9
-1.845
-1.79
-1.73
-1.665
-1.6
-1.53
-1.48
-1.42
-1.4
-1.375
-1.355
-1.34
-1.34
-1.355
-1.36
-1.345
-1.325
-1.315
-1.32
-1.305
-1.305
-1.315
-1.32
-1.32
-1.34
-1.345
-1.335
