Lead II
-0.165
-0.17
-0.17
-0.17
-0.165
-0.165
-0.17
-0.18
-0.185
-0.205
-0.205
-0.2
-0.2
-0.2
-0.19
-0.175
-0.175
-0.175
-0.175
-0.185
-0.19
-0.2
-0.205
-0.215
-0.215
-0.21
-0.205
-0.195
-0.19
-0.175
-0.175
-0.185
-0.2
-0.195
-0.205
-0.205
-0.2
-0.205
-0.205
-0.19
-0.195
-0.195
-0.2
-0.215
-0.205
-0.21
-0.22
-0.22
-0.22
-0.21
-0.21
-0.21
-0.195
-0.195
-0.195
-0.18
-0.175
-0.16
-0.155
-0.155
-0.16
-0.145
-0.15
-0.145
-0.135
-0.14
-0.115
-0.095
-0.075
-0.085
-0.1
-0.11
-0.14
-0.16
-0.165
-0.16
-0.155
-0.145
-0.145
-0.155
-0.16
-0.18
-0.19
-0.205
-0.21
-0.21
-0.22
-0.215
-0.22
-0.22
-0.215
-0.225
-0.235
-0.245
-0.24
-0.235
-0.245
-0.245
-0.235
-0.23
-0.215
-0.205
-0.2
-0.2
-0.215
-0.215
-0.225
-0.235
-0.26
-0.28
-0.285
-0.27
-0.215
-0.13
0.005
0.17
0.345
0.555
0.775
0.975
1.115
1.14
1.02
0.775
0.45
0.135
-0.095
-0.21
-0.225
-0.18
-0.125
-0.075
-0.05
-0.05
-0.05
-0.095
-0.115
-0.145
-0.155
-0.165
-0.175
-0.185
-0.185
-0.185
-0.195
-0.185
-0.19
-0.18
-0.17
-0.17
-0.17
-0.17
-0.175
-0.175
-0.175
-0.17
-0.17
-0.17
-0.175
-0.17
-0.16
-0.15
-0.15
-0.15
-0.16
-0.16
-0.165
-0.175
-0.17
-0.165
-0.16
-0.15
-0.125
-0.12
-0.12
-0.125
-0.135
-0.135
-0.14
-0.14
-0.145
-0.14
-0.13
-0.12
-0.12
-0.11
-0.115
-0.1
-0.11
-0.11
-0.125
-0.13
-0.12
-0.125
-0.125
-0.105
-0.1
-0.09
-0.085
-0.09
-0.11
-0.125
-0.115
-0.12
-0.12
-0.105
-0.09
-0.09
-0.09
-0.105
-0.105
-0.1
-0.105
-0.1
-0.105
-0.1
-0.095
-0.075
-0.06
-0.06
-0.045
-0.035
-0.03
-0.03
-0.04
-0.05
-0.05
-0.055
-0.05
-0.045
-0.045
-0.05
-0.045
-0.065
-0.065
-0.075
-0.095
-0.11
-0.115
-0.12
-0.115
-0.12
-0.12
-0.12
-0.115
-0.125
-0.13
-0.14
-0.145
-0.15
-0.155
-0.165
-0.165
-0.17
-0.165
-0.165
-0.16
-0.155
-0.16
-0.16
-0.175
-0.175
-0.18
-0.2
-0.21
-0.21
-0.21
-0.215
-0.225
-0.23
-0.245
-0.24
-0.265
-0.27
-0.285
-0.3
-0.305
-0.29
-0.28
-0.28
-0.285
-0.29
-0.295
-0.3
-0.295
-0.31
-0.315
-0.32
-0.325
-0.32
-0.31
-0.295
-0.305
-0.3
-0.3
-0.295
-0.305
-0.31
-0.32
-0.32
-0.31
-0.3
-0.28
-0.27
-0.25
-0.245
-0.245
-0.25
-0.245
-0.255
-0.25
-0.25
-0.25
-0.23
-0.23
-0.245
-0.255
-0.265
-0.285
-0.28
-0.3
-0.315
-0.32
-0.315
-0.315
-0.32
-0.325
-0.335
-0.34
-0.35
-0.355
-0.37
-0.38
-0.39
-0.39
-0.385
-0.405
-0.395
-0.38
-0.38
-0.375
-0.375
-0.355
-0.36
-0.36
-0.365
-0.375
-0.385
-0.4
-0.42
-0.44
-0.46
-0.435
-0.35
-0.23
-0.08
0.1
0.315
0.535
0.77
0.94
0.985
0.875
0.6
0.265
-0.055
-0.295
-0.41
-0.4
-0.34
-0.27
-0.23
-0.22
-0.235
-0.275
-0.295
-0.305
-0.32
-0.34
-0.355
-0.355
-0.36
-0.37
-0.37
-0.375
-0.375
-0.355
-0.355
-0.34
-0.34
-0.35
-0.355
-0.36
-0.365
-0.375
-0.37
-0.36
-0.365
-0.36
-0.365
-0.36
-0.355
-0.355
-0.365
-0.35
-0.36
-0.355
-0.355
-0.35
-0.35
-0.345
-0.345
-0.335
-0.33
-0.33
-0.32
-0.33
-0.315
-0.325
-0.325
-0.335
-0.335
-0.33
-0.32
-0.315
-0.32
-0.31
-0.305
-0.31
-0.32
-0.32
-0.32
-0.33
-0.315
-0.315
-0.315
-0.295
-0.29
-0.285
-0.295
-0.29
-0.295
-0.3
-0.29
-0.295
-0.285
-0.29
-0.285
-0.29
-0.295
-0.29
-0.28
-0.27
-0.26
-0.255
-0.26
-0.25
-0.245
-0.245
-0.225
-0.215
-0.2
-0.2
-0.2
-0.225
-0.215
-0.205
-0.2
-0.2
-0.205
-0.22
-0.23
-0.23
-0.24
-0.245
-0.25
-0.255
-0.27
-0.29
-0.305
-0.31
-0.3
-0.295
-0.285
-0.29
-0.3
-0.3
-0.31
-0.32
-0.32
-0.33
-0.34
-0.345
-0.345
-0.345
-0.335
-0.335
-0.34
-0.33
-0.335
-0.345
-0.35
-0.36
-0.36
-0.37
-0.35
-0.35
-0.35
-0.345
-0.34
-0.34
-0.355
-0.365
-0.365
-0.36
-0.36
-0.365
-0.36
-0.355
-0.355
-0.355
-0.365
-0.37
-0.365
-0.38
-0.38
-0.39
-0.39
-0.39
-0.395
-0.39
-0.385
-0.385
-0.385
-0.385
-0.375
-0.37
-0.365
-0.36
-0.34
-0.335
-0.315
-0.315
-0.305
-0.31
-0.305
-0.305
-0.305
-0.3
-0.285
-0.285
-0.29
-0.3
-0.315
-0.325
-0.34
-0.33
-0.335
-0.34
-0.345
-0.355
-0.37
-0.37
-0.385
-0.395
-0.405
-0.41
-0.425
-0.43
-0.425
-0.435
-0.435
-0.44
-0.44
-0.44
-0.44
-0.455
-0.435
-0.435
-0.43
-0.425
-0.415
-0.415
-0.41
-0.425
-0.435
-0.475
-0.5
-0.535
-0.52
-0.465
-0.38
-0.24
-0.075
0.15
0.375
0.62
0.82
0.94
0.925
0.74
0.45
0.125
-0.16
-0.355
-0.445
-0.46
-0.41
-0.345
-0.315
-0.315
-0.315
-0.33
-0.36
-0.37
-0.38
-0.395
-0.405
-0.415
-0.425
-0.43
-0.435
-0.44
-0.44
-0.445
-0.44
-0.435
-0.435
-0.425
-0.425
-0.43
-0.415
-0.415
-0.415
-0.41
-0.415
-0.425
-0.41
-0.41
-0.405
-0.39
-0.385
-0.385
-0.38
-0.385
-0.4
-0.4
-0.4
-0.405
-0.395
-0.38
-0.375
-0.375
-0.375
-0.375
-0.38
-0.385
-0.38
-0.38
-0.38
-0.38
-0.375
-0.375
-0.36
-0.36
-0.36
-0.36
-0.355
-0.37
-0.37
-0.37
-0.37
-0.37
-0.365
-0.355
-0.355
-0.35
-0.345
-0.34
-0.335
-0.34
-0.345
-0.35
-0.37
-0.375
-0.375
-0.37
-0.355
-0.35
-0.34
-0.335
-0.325
-0.325
-0.32
-0.325
-0.32
-0.31
-0.29
-0.285
-0.27
-0.265
-0.26
-0.24
-0.22
-0.21
-0.22
-0.225
-0.24
-0.245
-0.255
-0.26
-0.26
-0.255
-0.26
-0.265
-0.295
-0.29
-0.3
-0.3
-0.315
-0.32
-0.325
-0.335
-0.33
-0.325
-0.32
-0.32
-0.325
-0.34
-0.37
-0.38
-0.385
-0.375
-0.385
-0.365
-0.36
-0.35
-0.345
-0.34
-0.345
-0.355
-0.365
-0.375
-0.385
-0.39
-0.385
-0.39
-0.375
-0.37
-0.37
-0.375
-0.38
-0.395
-0.4
-0.4
-0.39
-0.405
-0.4
-0.39
-0.39
-0.39
-0.385
-0.38
-0.38
-0.385
-0.38
-0.385
-0.395
-0.4
-0.41
-0.41
-0.4
-0.39
-0.39
-0.385
-0.385
-0.395
-0.385
-0.38
-0.38
-0.375
-0.37
-0.345
-0.345
-0.345
-0.33
-0.33
-0.325
-0.315
-0.31
-0.295
-0.3
-0.295
-0.285
-0.305
-0.315
-0.325
-0.33
-0.335
-0.345
-0.34
-0.345
-0.365
-0.37
-0.385
-0.375
-0.37
-0.375
-0.365
-0.365
-0.385
-0.4
-0.42
-0.43
-0.435
-0.425
-0.435
-0.43
-0.425
-0.415
-0.415
-0.405
-0.41
-0.41
-0.405
-0.415
-0.42
-0.42
-0.445
-0.44
-0.45
-0.46
-0.475
-0.485
-0.45
-0.37
-0.24
-0.08
0.15
0.415
0.685
0.92
1.05
1.02
0.815
0.505
0.15
-0.15
-0.35
-0.445
-0.455
-0.41
-0.365
-0.33
-0.305
-0.295
-0.29
-0.295
-0.315
-0.33
-0.35
-0.37
-0.385
-0.395
-0.4
-0.395
-0.39
-0.385
-0.37
-0.37
-0.36
-0.355
-0.355
-0.355
-0.365
-0.36
-0.36
-0.35
-0.34
-0.325
-0.325
-0.325
-0.335
-0.335
-0.34
-0.345
-0.355
-0.36
-0.355
-0.355
-0.345
-0.34
-0.325
-0.315
-0.31
-0.305
-0.32
-0.335
-0.33
-0.33
-0.335
-0.335
-0.33
-0.32
-0.32
-0.315
-0.31
-0.315
-0.305
-0.305
-0.315
-0.32
-0.325
-0.315
-0.31
-0.31
-0.305
-0.31
-0.305
-0.31
-0.315
-0.315
-0.325
-0.33
-0.33
-0.32
-0.32
-0.305
-0.31
-0.285
-0.28
-0.285
-0.28
-0.29
-0.28
-0.27
-0.26
-0.24
-0.22
-0.215
-0.205
-0.195
-0.19
-0.195
-0.205
-0.215
-0.21
-0.215
-0.225
-0.235
-0.23
-0.245
-0.23
-0.23
-0.25
-0.26
-0.275
-0.28
-0.285
-0.295
-0.305
-0.31
-0.31
-0.315
-0.315
-0.31
-0.305
-0.305
-0.31
-0.325
-0.325
-0.335
-0.335
-0.33
-0.33
-0.33
-0.33
-0.335
-0.335
-0.33
-0.34
-0.345
-0.35
-0.35
-0.355
-0.36
-0.345
-0.35
-0.34
-0.345
-0.34
-0.33
-0.335
-0.35
-0.35
-0.345
-0.36
-0.365
-0.365
-0.37
-0.355
-0.365
-0.375
-0.36
-0.36
-0.365
-0.37
-0.37
-0.37
-0.37
-0.36
-0.345
-0.345
-0.335
-0.34
-0.33
-0.33
-0.32
-0.32
-0.325
-0.325
-0.32
-0.315
-0.31
-0.3
-0.28
-0.275
-0.265
-0.255
-0.265
-0.27
-0.285
-0.31
-0.325
-0.335
-0.32
-0.325
-0.32
-0.315
-0.325
-0.33
-0.345
-0.35
-0.375
-0.395
-0.395
-0.395
-0.405
-0.385
-0.395
-0.395
-0.39
-0.4
-0.395
-0.41
-0.41
-0.41
-0.41
-0.405
-0.4
-0.395
-0.39
-0.385
-0.385
-0.39
-0.395
-0.405
-0.415
-0.435
-0.465
-0.48
-0.48
-0.445
-0.37
-0.25
-0.085
0.115
0.32
0.525
0.74
0.895
0.955
0.89
0.695
0.4
0.085
-0.185
-0.36
-0.44
-0.42
-0.365
-0.305
-0.255
-0.235
-0.225
-0.26
-0.29
-0.315
-0.33
-0.33
-0.34
-0.335
-0.345
-0.35
-0.365
-0.365
-0.38
-0.37
-0.37
-0.375
-0.355
-0.34
-0.335
-0.345
-0.35
-0.345
-0.345
-0.345
-0.35
-0.34
-0.325
-0.32
-0.3
-0.275
-0.255
-0.26
-0.27
-0.3
-0.34
-0.36
-0.375
-0.365
-0.345
-0.33
-0.33
-0.32
-0.315
-0.335
-0.33
-0.315
-0.305
-0.29
-0.29
-0.28
-0.265
-0.275
-0.29
-0.285
-0.28
-0.29
-0.28
-0.29
-0.3
-0.3
-0.295
-0.3
-0.29
-0.28
-0.26
-0.26
-0.26
-0.26
-0.28
-0.28
-0.285
-0.29
-0.29
-0.29
-0.29
-0.29
-0.285
-0.285
-0.275
-0.285
-0.265
-0.255
-0.245
-0.225
-0.22
-0.2
-0.19
-0.18
-0.175
-0.175
-0.175
-0.17
-0.165
-0.165
-0.17
-0.18
-0.195
-0.215
-0.205
-0.195
-0.195
-0.19
-0.2
-0.215
-0.24
-0.25
-0.25
-0.24
-0.225
-0.215
-0.21
-0.21
-0.215
-0.235
-0.255
-0.29
-0.32
-0.34
-0.345
-0.335
-0.315
-0.29
-0.265
-0.255
-0.26
-0.26
-0.275
-0.285
-0.3
-0.3
-0.305
-0.305
-0.295
-0.295
-0.295
-0.28
-0.275
-0.265
-0.26
-0.26
-0.28
-0.305
-0.33
-0.34
-0.33
-0.285
-0.235
-0.205
-0.205
-0.235
-0.285
-0.345
-0.375
-0.385
-0.365
-0.36
-0.335
-0.305
-0.275
-0.27
-0.26
-0.255
-0.265
-0.26
-0.25
-0.245
-0.235
-0.245
-0.245
-0.235
-0.22
-0.195
-0.185
-0.185
-0.2
-0.22
-0.245
-0.245
-0.25
-0.255
-0.25
-0.245
-0.23
-0.205
-0.18
-0.18
-0.205
-0.29
-0.36
-0.41
-0.44
-0.43
-0.405
-0.37
-0.345
-0.32
-0.325
-0.33
-0.35
-0.35
-0.355
-0.345
-0.335
-0.325
-0.315
-0.32
-0.32
-0.315
-0.32
-0.335
-0.355
-0.375
-0.405
-0.415
-0.385
-0.33
-0.22
-0.075
0.085
0.29
0.525
0.75
0.95
1.055
1.0
0.805
0.485
0.15
-0.125
-0.295
-0.33
-0.285
-0.215
-0.145
-0.115
-0.105
-0.1
-0.12
-0.15
-0.21
-0.27
-0.335
-0.34
-0.325
-0.29
-0.245
-0.2
-0.165
-0.17
-0.18
-0.195
-0.205
-0.2
-0.195
-0.175
-0.17
-0.17
-0.16
-0.165
-0.175
-0.18
-0.185
-0.175
-0.17
-0.16
-0.155
-0.155
-0.15
-0.135
-0.115
-0.115
-0.12
-0.13
-0.155
-0.18
-0.19
-0.2
-0.195
-0.17
-0.14
-0.12
-0.11
-0.1
-0.105
-0.115
-0.12
-0.135
-0.14
-0.145
-0.15
-0.145
-0.135
-0.12
-0.115
-0.105
-0.105
-0.12
-0.11
-0.11
-0.11
-0.09
-0.085
-0.095
-0.115
-0.15
-0.175
-0.175
-0.16
-0.125
-0.115
-0.105
-0.115
-0.115
-0.11
-0.105
-0.09
-0.085
-0.08
-0.07
-0.075
-0.075
-0.095
-0.085
-0.085
-0.065
-0.045
-0.03
-0.015
-0.015
-0.015
-0.025
-0.02
-0.02
-0.025
-0.025
-0.035
-0.04
-0.05
-0.06
-0.06
-0.06
-0.06
-0.065
-0.075
-0.09
-0.11
-0.12
-0.135
-0.12
-0.115
-0.11
-0.105
-0.105
-0.11
-0.11
-0.12
-0.115
-0.13
-0.145
-0.15
-0.14
-0.13
-0.105
-0.095
-0.08
-0.095
-0.125
-0.145
-0.17
-0.175
-0.165
-0.145
-0.115
-0.085
-0.075
-0.095
-0.13
-0.155
-0.185
-0.19
-0.195
-0.19
-0.195
-0.2
-0.185
-0.16
-0.165
-0.15
-0.16
-0.16
-0.165
-0.17
-0.175
-0.175
-0.175
-0.17
-0.165
-0.155
-0.15
-0.155
-0.15
-0.145
-0.15
-0.165
-0.19
-0.19
-0.205
-0.185
-0.165
-0.135
-0.115
-0.105
-0.1
-0.1
-0.095
-0.095
-0.1
-0.095
-0.07
-0.05
-0.04
-0.045
-0.05
-0.07
-0.095
-0.11
-0.115
-0.125
-0.135
-0.135
-0.14
-0.145
-0.14
-0.125
-0.13
-0.145
-0.16
-0.18
-0.195
-0.2
-0.22
-0.235
-0.23
-0.23
-0.23
-0.21
-0.19
-0.185
-0.185
-0.19
-0.18
-0.19
-0.185
-0.195
-0.215
-0.22
-0.23
-0.26
-0.275
-0.27
-0.245
-0.165
-0.065
0.08
0.25
0.445
0.69
0.915
1.095
1.16
1.075
0.855
0.525
0.2
-0.06
-0.21
-0.235
-0.185
-0.125
-0.075
-0.055
-0.055
-0.085
-0.11
-0.125
-0.14
-0.155
-0.17
-0.185
-0.18
-0.18
-0.18
-0.175
-0.185
-0.185
-0.19
-0.185
-0.18
-0.18
-0.17
-0.18
-0.175
-0.18
-0.18
-0.175
-0.17
-0.17
-0.155
-0.15
-0.14
-0.15
-0.16
-0.17
-0.175
-0.175
-0.175
-0.17
-0.165
-0.15
-0.14
-0.14
-0.13
-0.14
-0.145
-0.15
-0.145
-0.14
-0.145
-0.135
-0.135
-0.13
-0.125
-0.135
-0.125
-0.135
-0.125
-0.13
-0.135
-0.135
-0.145
-0.14
-0.125
-0.13
-0.12
-0.125
-0.115
-0.115
-0.13
-0.125
-0.135
-0.135
-0.135
-0.13
-0.135
-0.12
-0.12
-0.115
-0.115
-0.12
-0.12
-0.11
-0.11
-0.095
-0.09
-0.065
-0.06
-0.035
-0.01
-0.015
-0.01
-0.01
-0.01
-0.015
-0.02
-0.025
-0.03
-0.035
-0.025
-0.015
-0.015
-0.04
-0.04
-0.05
-0.07
-0.09
-0.105
-0.12
-0.125
-0.125
-0.125
-0.125
-0.125
-0.125
-0.12
-0.14
-0.14
-0.16
-0.165
-0.18
-0.175
-0.16
-0.155
-0.14
-0.125
-0.125
-0.125
-0.125
-0.13
-0.135
-0.155
-0.165
-0.17
-0.16
-0.16
-0.155
-0.155
-0.16
-0.16
-0.175
-0.165
-0.165
-0.16
-0.165
-0.165
-0.17
-0.18
-0.185
-0.18
-0.175
-0.17
-0.16
-0.17
-0.17
-0.185
-0.205
-0.215
-0.205
-0.185
-0.175
-0.18
-0.17
-0.18
-0.185
-0.195
-0.19
-0.185
-0.18
-0.155
-0.135
-0.12
-0.12
-0.11
-0.115
-0.11
-0.105
-0.095
-0.08
-0.085
-0.08
-0.095
-0.105
-0.13
-0.135
-0.135
-0.135
-0.13
-0.13
-0.14
-0.165
-0.18
-0.21
-0.225
-0.225
-0.225
-0.22
-0.225
-0.23
-0.225
-0.225
-0.225
-0.25
-0.26
-0.26
-0.265
-0.26
-0.25
-0.235
-0.21
-0.215
-0.215
-0.24
-0.225
-0.235
-0.235
-0.255
-0.295
-0.33
-0.345
-0.31
-0.215
-0.085
0.085
0.29
0.51
0.76
0.985
1.16
1.21
1.1
0.835
0.505
0.19
-0.06
-0.2
-0.24
-0.195
-0.13
-0.095
-0.085
-0.085
-0.105
-0.135
-0.15
-0.17
-0.19
-0.205
-0.19
-0.2
-0.215
-0.225
-0.235
-0.255
-0.245
-0.24
-0.23
-0.2
-0.185
-0.19
-0.195
-0.2
-0.205
-0.21
-0.22
-0.225
-0.215
-0.21
-0.2
-0.18
-0.175
-0.175
-0.175
-0.18
-0.185
-0.195
-0.21
-0.235
-0.235
-0.21
-0.19
-0.18
-0.17
-0.17
-0.165
-0.18
-0.2
-0.205
-0.215
-0.215
-0.215
-0.215
-0.21
-0.205
-0.2
-0.195
-0.18
-0.18
-0.185
-0.195
-0.205
-0.2
-0.19
-0.185
-0.165
-0.16
-0.15
-0.145
-0.145
-0.155
-0.175
-0.205
-0.21
-0.22
-0.21
-0.185
-0.17
-0.155
-0.14
-0.145
-0.15
-0.145
-0.135
-0.12
-0.11
-0.1
-0.085
-0.08
-0.06
-0.05
-0.055
-0.06
-0.065
-0.08
-0.09
-0.105
-0.11
-0.115
-0.125
-0.14
-0.155
-0.165
-0.17
-0.16
-0.16
-0.16
-0.165
-0.19
-0.195
-0.2
-0.21
-0.21
-0.185
-0.185
-0.175
-0.165
-0.185
-0.21
-0.235
-0.255
-0.24
-0.245
-0.23
-0.215
-0.2
-0.195
-0.21
-0.215
-0.235
-0.23
-0.24
-0.24
-0.235
-0.245
-0.235
-0.23
-0.21
-0.22
-0.22
-0.23
-0.235
-0.255
-0.255
-0.26
-0.255
-0.25
-0.24
-0.23
-0.23
-0.235
-0.26
-0.275
-0.285
-0.285
-0.275
-0.28
-0.28
-0.28
-0.27
-0.265
-0.24
-0.235
-0.23
-0.21
-0.2
-0.215
-0.225
-0.24
-0.23
-0.22
-0.2
-0.185
-0.165
-0.165
-0.15
-0.17
-0.18
-0.205
-0.225
-0.245
-0.245
-0.26
-0.255
-0.245
-0.255
-0.24
-0.25
-0.255
-0.275
-0.295
-0.315
-0.32
-0.33
-0.34
-0.33
-0.325
-0.335
-0.31
-0.31
-0.3
-0.31
-0.31
-0.305
-0.315
-0.33
-0.33
-0.335
-0.325
-0.335
-0.34
-0.36
-0.39
-0.42
-0.415
-0.37
-0.27
-0.135
0.055
0.285
0.545
0.805
0.995
1.095
1.06
0.855
0.545
0.215
-0.1
-0.295
-0.405
-0.395
-0.325
-0.245
-0.205
-0.185
-0.17
-0.19
-0.225
-0.25
-0.27
-0.285
-0.3
-0.31
-0.305
-0.315
-0.31
-0.31
-0.3
-0.295
-0.3
-0.305
-0.32
-0.315
-0.315
-0.32
-0.315
-0.31
-0.305
-0.305
-0.3
-0.315
-0.305
-0.32
-0.315
-0.315
-0.31
-0.3
-0.305
-0.31
-0.3
-0.295
-0.295
-0.295
-0.285
-0.29
-0.295
-0.29
-0.31
-0.31
-0.31
-0.31
-0.31
-0.29
-0.27
-0.27
-0.26
-0.26
-0.265
-0.28
-0.295
-0.315
-0.325
-0.325
-0.315
-0.31
-0.295
-0.29
-0.29
-0.3
-0.32
-0.335
-0.34
-0.335
-0.325
-0.32
-0.3
-0.295
-0.295
-0.315
-0.325
-0.33
-0.335
-0.33
-0.325
-0.315
-0.305
-0.285
-0.29
-0.28
-0.295
-0.28
-0.28
-0.265
-0.26
-0.25
-0.255
-0.245
-0.245
-0.24
-0.24
-0.245
-0.245
-0.25
-0.265
-0.265
-0.27
-0.27
-0.275
-0.29
-0.3
-0.305
-0.31
-0.305
-0.31
-0.31
-0.32
-0.325
-0.32
-0.32
-0.335
-0.345
-0.355
-0.35
-0.345
-0.345
-0.345
-0.355
-0.36
-0.38
-0.385
-0.39
-0.385
-0.38
-0.375
-0.37
-0.37
-0.375
-0.38
-0.375
-0.385
-0.385
-0.4
-0.405
-0.405
-0.395
-0.39
-0.39
-0.4
-0.4
-0.405
-0.395
-0.4
-0.4
-0.4
-0.405
-0.415
-0.42
-0.42
-0.42
-0.4
-0.405
-0.385
-0.385
-0.375
-0.36
-0.365
-0.37
-0.385
-0.4
-0.4
-0.415
-0.39
-0.365
-0.355
-0.335
-0.325
-0.31
-0.31
-0.315
-0.32
-0.33
-0.345
-0.355
-0.35
-0.36
-0.37
-0.37
-0.38
-0.385
-0.4
-0.405
-0.41
-0.41
-0.415
-0.43
-0.435
-0.44
-0.45
-0.45
-0.455
-0.45
-0.46
-0.465
-0.46
-0.465
-0.46
-0.465
-0.45
-0.445
-0.43
-0.425
-0.43
-0.455
-0.47
-0.48
-0.495
-0.525
-0.545
-0.535
-0.49
-0.4
-0.275
-0.125
0.05
0.265
0.48
0.69
0.84
0.92
0.855
0.665
0.385
0.065
-0.205
-0.385
-0.455
-0.44
-0.39
-0.325
-0.31
-0.295
-0.31
-0.33
-0.35
-0.37
-0.395
-0.405
-0.41
-0.42
-0.42
-0.435
-0.43
-0.44
-0.435
-0.435
-0.425
-0.425
-0.425
-0.435
-0.425
-0.445
-0.45
-0.445
-0.455
-0.44
-0.43
-0.425
-0.42
-0.41
-0.41
-0.425
-0.425
-0.42
-0.43
-0.44
-0.44
-0.435
-0.43
-0.425
-0.42
-0.415
-0.4
-0.4
-0.405
-0.415
-0.425
-0.43
-0.45
-0.43
-0.43
-0.42
-0.405
-0.4
-0.39
-0.4
-0.395
-0.405
-0.405
-0.415
-0.43
-0.43
-0.41
-0.405
-0.4
-0.415
-0.4
-0.4
-0.4
-0.4
-0.41
-0.42
-0.42
-0.43
-0.415
-0.41
-0.405
-0.39
-0.395
-0.395
-0.395
-0.405
-0.405
-0.41
-0.41
-0.39
-0.37
-0.39
-0.38
-0.365
-0.355
-0.355
-0.355
-0.365
-0.36
-0.355
-0.355
-0.35
-0.35
-0.35
-0.355
-0.345
-0.355
-0.34
-0.35
-0.365
-0.38
-0.395
-0.405
-0.41
-0.41
-0.41
-0.41
-0.415
-0.42
-0.435
-0.43
-0.445
-0.46
-0.47
-0.475
-0.465
-0.465
-0.455
-0.455
-0.45
-0.45
-0.455
-0.455
-0.465
-0.49
-0.48
-0.495
-0.5
-0.485
-0.485
-0.475
-0.485
-0.485
-0.49
-0.49
-0.5
-0.505
-0.5
-0.51
-0.5
-0.51
-0.5
-0.505
-0.505
-0.495
-0.49
-0.505
-0.515
-0.515
-0.52
-0.52
-0.52
-0.52
-0.515
-0.505
-0.51
-0.505
-0.505
-0.515
-0.525
-0.525
-0.525
-0.53
-0.535
-0.535
-0.52
-0.51
-0.5
-0.49
-0.48
-0.475
-0.47
-0.465
-0.46
-0.465
-0.465
-0.455
-0.45
-0.45
-0.43
-0.41
-0.39
-0.405
-0.415
-0.435
-0.45
-0.475
-0.48
-0.47
-0.47
-0.455
-0.465
-0.475
-0.48
-0.49
-0.49
-0.51
-0.53
-0.535
-0.54
-0.535
-0.53
-0.53
-0.515
-0.525
-0.51
-0.525
-0.545
-0.55
-0.56
-0.555
-0.545
-0.545
-0.535
-0.525
-0.52
-0.53
-0.55
-0.575
-0.605
-0.625
-0.615
-0.56
-0.465
-0.315
-0.12
0.115
0.36
0.605
0.805
0.885
0.815
0.58
0.25
-0.105
-0.385
-0.55
-0.595
-0.56
-0.49
-0.44
-0.4
-0.39
-0.415
-0.445
-0.48
-0.51
-0.515
-0.525
-0.515
-0.51
-0.51
-0.5
-0.505
-0.52
-0.51
-0.515
-0.525
-0.52
-0.52
-0.515
-0.505
-0.505
-0.495
-0.49
-0.485
-0.485
-0.49
-0.49
-0.5
-0.505
-0.505
-0.495
-0.495
-0.49
-0.48
-0.475
-0.47
-0.465
-0.48
-0.47
-0.48
-0.475
-0.475
-0.465
-0.46
-0.475
-0.465
-0.46
-0.46
-0.455
-0.47
-0.47
-0.465
-0.47
-0.475
-0.47
-0.455
-0.45
-0.445
-0.435
-0.43
-0.45
-0.46
-0.455
-0.465
-0.455
-0.455
-0.445
-0.445
-0.43
-0.43
-0.425
-0.42
-0.42
-0.425
-0.43
-0.43
-0.43
-0.435
-0.425
-0.42
-0.405
-0.395
-0.38
-0.38
-0.365
-0.36
-0.355
-0.355
-0.345
-0.34
-0.33
-0.33
-0.32
-0.315
-0.32
-0.33
-0.34
-0.35
-0.36
-0.37
-0.375
-0.385
-0.385
-0.385
-0.39
-0.395
-0.405
-0.395
-0.42
-0.41
-0.42
-0.43
-0.435
-0.425
-0.425
-0.43
-0.42
-0.43
-0.43
-0.435
-0.43
-0.44
-0.445
-0.455
-0.45
-0.455
-0.445
-0.45
-0.44
-0.445
-0.445
-0.445
-0.45
-0.45
-0.45
-0.46
-0.46
-0.47
-0.465
-0.46
-0.45
-0.455
-0.445
-0.45
-0.445
-0.455
-0.46
-0.475
-0.47
-0.465
-0.465
-0.465
-0.46
-0.45
-0.46
-0.45
-0.455
-0.455
-0.475
-0.47
-0.48
-0.46
-0.45
-0.435
-0.43
-0.415
-0.395
-0.39
-0.39
-0.39
-0.4
-0.41
-0.405
-0.39
-0.395
-0.375
-0.355
-0.34
-0.335
-0.345
-0.355
-0.385
-0.415
-0.44
-0.45
-0.455
-0.455
-0.445
-0.45
-0.44
-0.44
-0.425
-0.435
-0.45
-0.475
-0.485
-0.49
-0.495
-0.495
-0.49
-0.48
-0.475
-0.47
-0.475
-0.475
-0.48
-0.49
-0.495
-0.495
-0.5
-0.49
-0.48
-0.465
-0.465
-0.46
-0.465
-0.495
-0.52
-0.545
-0.57
-0.56
-0.48
-0.365
-0.23
-0.035
0.195
0.46
0.705
0.9
0.96
0.85
0.585
0.235
-0.115
-0.38
-0.505
-0.52
-0.46
-0.395
-0.34
-0.33
-0.335
-0.38
-0.39
-0.42
-0.44
-0.44
-0.435
-0.415
-0.415
-0.42
-0.415
-0.43
-0.43
-0.445
-0.45
-0.445
-0.455
-0.45
-0.44
-0.43
-0.425
-0.41
-0.415
-0.425
-0.44
-0.445
-0.44
-0.435
-0.43
-0.415
-0.405
-0.395
-0.385
-0.395
-0.4
-0.415
-0.42
-0.42
-0.435
-0.43
-0.42
-0.42
-0.4
-0.38
-0.375
-0.365
-0.37
-0.375
-0.385
-0.395
-0.395
-0.4
-0.39
-0.38
-0.385
-0.38
-0.365
-0.37
-0.365
-0.355
-0.375
-0.37
-0.39
-0.38
-0.38
-0.365
-0.355
-0.35
-0.34
-0.335
-0.34
-0.35
-0.355
-0.365
-0.355
-0.35
-0.35
-0.335
-0.32
-0.305
-0.285
-0.275
-0.26
-0.25
-0.25
-0.25
-0.265
-0.275
-0.27
-0.26
-0.25
-0.25
-0.24
-0.245
-0.255
-0.265
-0.285
-0.29
-0.31
-0.325
-0.335
-0.355
-0.365
-0.345
-0.335
-0.335
-0.335
-0.34
-0.34
-0.355
-0.375
-0.395
-0.395
-0.38
-0.365
-0.35
-0.345
-0.345
-0.355
-0.37
-0.385
-0.395
-0.415
-0.43
-0.415
-0.41
-0.405
-0.4
-0.395
-0.385
-0.38
-0.375
-0.38
-0.385
-0.395
-0.41
-0.42
-0.4
-0.4
-0.385
-0.37
-0.39
-0.4
-0.415
-0.425
-0.44
-0.455
-0.445
-0.435
-0.415
-0.39
-0.375
-0.375
-0.365
-0.37
-0.365
-0.37
-0.365
-0.38
-0.37
-0.37
-0.37
-0.35
-0.35
-0.34
-0.34
-0.33
-0.32
-0.345
-0.35
-0.365
-0.37
-0.37
-0.36
-0.355
-0.355
-0.355
-0.37
-0.375
-0.39
-0.395
-0.425
-0.44
-0.455
-0.465
-0.47
-0.455
-0.46
-0.44
-0.435
-0.435
-0.44
-0.445
-0.445
-0.45
-0.435
-0.435
-0.43
-0.44
-0.425
-0.415
-0.42
-0.41
-0.405
-0.4
-0.355
-0.27
-0.13
0.045
0.25
0.445
0.63
0.815
0.96
1.08
1.125
1.06
0.865
0.6
0.33
0.13
0.015
-0.06
-0.095
-0.12
-0.175
-0.23
-0.3
-0.345
-0.39
-0.405
-0.405
-0.405
-0.42
-0.42
-0.425
-0.42
-0.425
-0.425
-0.435
-0.44
-0.45
-0.445
-0.45
-0.45
-0.45
-0.44
-0.43
-0.43
-0.435
-0.45
-0.455
-0.465
-0.465
-0.46
-0.46
-0.46
-0.455
-0.445
-0.445
-0.435
-0.435
-0.43
-0.44
-0.43
-0.435
-0.445
-0.45
-0.455
-0.445
-0.43
-0.425
-0.425
-0.43
-0.425
-0.44
-0.445
-0.445
-0.455
-0.46
-0.46
-0.455
-0.445
-0.45
-0.44
-0.44
-0.45
-0.45
-0.46
-0.47
-0.475
-0.48
-0.485
-0.48
-0.48
-0.475
-0.47
-0.485
-0.47
-0.485
-0.495
-0.5
-0.5
-0.5
-0.495
-0.49
-0.485
-0.48
-0.46
-0.45
-0.43
-0.43
-0.425
-0.435
-0.415
-0.405
-0.4
-0.385
-0.355
-0.35
-0.345
-0.335
-0.34
-0.335
-0.34
-0.345
-0.35
-0.35
-0.36
-0.35
-0.36
-0.35
-0.345
-0.35
-0.335
-0.345
-0.345
-0.36
-0.36
-0.36
-0.365
-0.36
-0.36
-0.355
-0.36
-0.35
-0.35
-0.36
-0.365
-0.37
-0.355
-0.37
-0.36
-0.36
-0.355
-0.35
-0.35
-0.345
-0.345
-0.33
-0.35
-0.35
-0.355
-0.36
-0.355
-0.36
-0.355
-0.35
-0.335
-0.34
-0.335
-0.35
-0.365
-0.36
-0.37
-0.385
-0.375
-0.37
-0.36
-0.355
-0.335
-0.35
-0.335
-0.335
-0.355
-0.355
-0.345
-0.34
-0.32
-0.305
-0.29
-0.28
-0.285
-0.28
-0.26
-0.265
-0.265
-0.26
-0.255
-0.255
-0.255
-0.26
-0.275
-0.275
-0.28
-0.28
-0.29
-0.3
-0.315
-0.33
-0.335
-0.34
-0.35
-0.345
-0.35
-0.35
-0.345
-0.35
-0.35
-0.36
-0.37
-0.375
-0.38
-0.38
-0.385
-0.375
-0.37
-0.37
-0.36
-0.35
-0.335
-0.34
-0.35
-0.36
-0.39
-0.425
-0.445
-0.435
-0.39
-0.3
-0.175
-0.01
0.195
0.425
0.65
0.845
0.97
0.97
0.805
0.54
0.22
-0.07
-0.275
-0.37
-0.37
-0.32
-0.26
-0.22
-0.21
-0.215
-0.23
-0.25
-0.27
-0.29
-0.305
-0.3
-0.305
-0.305
-0.3
-0.305
-0.305
-0.32
-0.315
-0.33
-0.33
-0.325
-0.325
-0.315
-0.305
-0.31
-0.315
-0.315
-0.32
-0.32
-0.325
-0.32
-0.31
-0.305
-0.295
-0.295
-0.28
-0.295
-0.295
-0.295
-0.3
-0.295
-0.305
-0.305
-0.3
-0.29
-0.28
-0.285
-0.28
-0.275
-0.28
-0.285
-0.285
-0.275
-0.285
-0.28
-0.275
-0.265
-0.265
-0.255
-0.25
-0.26
-0.26
-0.275
-0.275
-0.27
-0.27
-0.265
-0.26
-0.26
-0.245
-0.245
-0.24
-0.24
-0.245
-0.25
-0.25
-0.255
-0.255
-0.255
-0.24
-0.23
-0.22
-0.225
-0.215
-0.21
-0.225
-0.225
-0.225
-0.225
-0.22
-0.2
-0.19
-0.175
-0.155
-0.145
-0.14
-0.15
-0.14
-0.14
-0.15
-0.16
-0.165
-0.165
-0.165
-0.165
-0.165
-0.17
-0.18
-0.19
-0.205
-0.215
-0.22
-0.235
-0.24
-0.245
-0.25
-0.25
-0.24
-0.255
-0.25
-0.245
-0.255
-0.265
-0.275
-0.28
-0.285
-0.28
-0.265
-0.265
-0.26
-0.27
-0.25
-0.265
-0.27
-0.27
-0.28
-0.285
-0.29
-0.285
-0.285
-0.28
-0.28
-0.27
-0.255
-0.265
-0.27
-0.28
-0.29
-0.29
-0.3
-0.295
-0.29
-0.29
-0.28
-0.275
-0.275
-0.275
-0.285
-0.29
-0.295
-0.305
-0.31
-0.295
-0.295
-0.285
-0.295
-0.265
-0.255
-0.245
-0.235
-0.25
-0.245
-0.24
-0.235
-0.23
-0.225
-0.215
-0.215
-0.195
-0.165
-0.165
-0.175
-0.185
-0.215
-0.24
-0.265
-0.26
-0.25
-0.255
-0.24
-0.25
-0.255
-0.25
-0.265
-0.28
-0.305
-0.315
-0.33
-0.33
-0.335
-0.33
-0.32
-0.31
-0.305
-0.295
-0.31
-0.32
-0.33
-0.33
-0.34
-0.335
-0.32
-0.305
-0.315
-0.315
-0.31
-0.335
-0.37
-0.39
-0.385
-0.33
-0.245
-0.12
0.05
0.255
0.485
0.73
0.92
1.035
0.965
0.725
0.39
0.04
-0.23
-0.355
-0.375
-0.315
-0.235
-0.175
-0.145
-0.145
-0.165
-0.205
-0.24
-0.27
-0.275
-0.285
-0.275
-0.275
-0.26
-0.255
-0.25
-0.255
-0.27
-0.28
-0.285
-0.29
-0.285
-0.28
-0.27
-0.255
-0.26
-0.26
-0.245
-0.26
-0.255
-0.265
-0.275
-0.27
-0.27
-0.255
-0.255
-0.25
-0.24
-0.235
-0.23
-0.225
-0.235
-0.235
-0.235
-0.24
-0.25
-0.24
-0.245
-0.23
-0.225
-0.225
-0.22
-0.225
-0.225
-0.225
-0.23
-0.225
-0.23
-0.225
-0.225
-0.22
-0.22
-0.21
-0.205
-0.21
-0.215
-0.215
-0.215
-0.23
-0.23
-0.23
-0.22
-0.21
-0.2
-0.2
-0.2
-0.2
-0.205
-0.21
-0.215
-0.215
-0.205
-0.195
-0.185
-0.165
-0.16
-0.155
-0.14
-0.14
-0.145
-0.155
-0.155
-0.15
-0.145
-0.145
-0.13
-0.13
-0.115
-0.12
-0.12
-0.135
-0.15
-0.17
-0.185
-0.185
-0.185
-0.19
-0.19
-0.195
-0.19
-0.185
-0.195
-0.195
-0.2
-0.22
-0.22
-0.225
-0.245
-0.24
-0.245
-0.225
-0.215
-0.215
-0.215
-0.22
-0.22
-0.23
-0.23
-0.24
-0.24
-0.24
-0.245
-0.235
-0.235
-0.23
-0.235
-0.24
-0.24
-0.25
