Lead II
0.065
0.045
0.025
0.005
0.0
0.01
0.02
0.015
0.03
0.035
0.03
0.035
0.04
0.02
0.005
-0.01
-0.005
0.01
0.01
0.005
0.0
0.0
0.0
-0.005
0.005
0.015
0.015
0.01
0.0
-0.005
-0.025
-0.03
-0.03
-0.03
-0.01
0.02
0.05
0.055
0.075
0.095
0.13
0.18
0.17
0.11
0.01
-0.035
-0.015
0.035
0.07
0.08
0.095
0.14
0.18
0.19
0.14
0.03
-0.16
-0.45
-0.82
-1.19
-1.505
-1.755
-1.955
-2.085
-2.12
-2.115
-2.115
-2.12
-2.125
-2.085
-2.01
-1.91
-1.815
-1.72
-1.615
-1.495
-1.34
-1.17
-1.005
-0.895
-0.89
-0.93
-0.945
-0.92
-0.855
-0.75
-0.655
-0.56
-0.48
-0.45
-0.445
-0.44
-0.41
-0.365
-0.3
-0.22
-0.145
-0.06
0.035
0.125
0.185
0.24
0.28
0.29
0.28
0.265
0.295
0.36
0.46
0.54
0.565
0.54
0.495
0.47
0.475
0.47
0.465
0.445
0.44
0.485
0.51
0.53
0.565
0.58
0.62
0.655
0.67
0.655
0.63
0.615
0.61
0.63
0.66
0.675
0.675
0.67
0.685
0.715
0.715
0.73
0.72
0.72
0.735
0.755
0.765
0.79
0.82
0.85
0.865
0.875
0.885
0.9
0.92
0.945
0.93
0.875
0.8
0.755
0.745
0.775
0.82
0.845
0.845
0.845
0.845
0.835
0.845
0.835
0.85
0.83
0.81
0.805
0.82
0.81
0.8
0.79
0.765
0.745
0.74
0.735
0.715
0.69
0.665
0.64
0.625
0.595
0.585
0.57
0.57
0.56
0.55
0.53
0.5
0.455
0.41
0.415
0.43
0.455
0.465
0.44
0.38
0.315
0.28
0.275
0.29
0.265
0.205
0.15
0.14
0.15
0.16
0.18
0.21
0.22
0.24
0.23
0.175
0.14
0.12
0.12
0.115
0.11
0.1
0.095
0.07
0.045
0.085
0.125
0.15
0.15
0.145
0.135
0.125
0.105
0.09
0.065
0.05
0.055
0.085
0.105
0.105
0.105
0.095
0.065
0.06
0.125
0.16
0.145
0.065
-0.025
-0.075
-0.085
-0.055
-0.035
-0.035
-0.03
-0.02
-0.02
0.0
0.015
0.0
-0.01
0.015
0.035
0.045
0.035
0.01
0.005
0.005
0.015
0.025
0.02
0.005
-0.01
-0.005
0.0
0.005
0.005
0.005
0.015
0.01
0.0
0.005
0.01
0.005
0.01
0.01
-0.01
-0.015
-0.03
-0.015
0.03
0.055
0.085
0.08
0.055
0.02
-0.045
-0.07
-0.085
-0.095
-0.06
-0.04
-0.045
-0.09
-0.135
-0.14
-0.115
-0.08
-0.065
-0.055
-0.07
-0.07
-0.07
-0.055
-0.065
-0.05
-0.04
-0.03
-0.025
-0.03
-0.04
-0.035
-0.035
-0.035
-0.05
-0.055
-0.075
-0.095
-0.11
-0.09
-0.06
-0.05
-0.04
-0.035
-0.04
-0.035
-0.035
-0.065
-0.08
-0.085
-0.08
-0.065
-0.055
-0.045
-0.05
-0.05
-0.025
-0.005
-0.005
-0.025
-0.025
0.005
0.06
0.09
0.05
-0.04
-0.165
-0.255
-0.275
-0.26
-0.225
-0.185
-0.155
-0.14
-0.13
-0.135
-0.14
-0.15
-0.16
-0.145
-0.135
-0.125
-0.115
-0.12
-0.12
-0.11
-0.12
-0.115
-0.125
-0.135
-0.13
-0.1
-0.1
-0.135
-0.18
-0.215
-0.21
-0.2
-0.195
-0.185
-0.18
-0.17
-0.145
-0.1
-0.02
0.045
0.045
-0.025
-0.1
-0.13
-0.125
-0.115
-0.15
-0.215
-0.26
-0.25
-0.23
-0.245
-0.26
-0.265
-0.255
-0.24
-0.215
-0.225
-0.225
-0.215
-0.21
-0.195
-0.215
-0.205
-0.22
-0.24
-0.245
-0.235
-0.225
-0.21
-0.205
-0.205
-0.215
-0.21
-0.215
-0.235
-0.235
-0.26
-0.265
-0.26
-0.245
-0.25
-0.265
-0.265
-0.26
-0.245
-0.24
-0.24
-0.23
-0.235
-0.235
-0.245
-0.24
-0.245
-0.265
-0.295
-0.315
-0.29
-0.23
-0.135
-0.065
-0.005
0.085
0.18
0.27
0.355
0.435
0.555
0.67
0.77
0.83
0.835
0.765
0.65
0.51
0.35
0.115
-0.15
-0.365
-0.485
-0.545
-0.56
-0.525
-0.475
-0.435
-0.42
-0.405
-0.375
-0.365
-0.365
-0.38
-0.39
-0.42
-0.435
-0.44
-0.45
-0.445
-0.425
-0.415
-0.4
-0.395
-0.385
-0.37
-0.38
-0.375
-0.365
-0.34
-0.33
-0.33
-0.35
-0.35
-0.33
-0.3
-0.295
-0.305
-0.325
-0.33
-0.315
-0.285
-0.29
-0.31
-0.335
-0.385
-0.4
-0.4
-0.385
-0.395
-0.43
-0.43
-0.395
-0.355
-0.345
-0.34
-0.345
-0.355
-0.36
-0.355
-0.38
-0.34
-0.34
-0.34
-0.325
-0.325
-0.325
-0.335
-0.34
-0.33
-0.33
-0.32
-0.315
-0.3
-0.28
-0.265
-0.265
-0.265
-0.29
-0.31
-0.34
-0.36
-0.37
-0.38
-0.37
-0.375
-0.365
-0.355
-0.34
-0.34
-0.34
-0.335
-0.355
-0.37
-0.365
-0.33
-0.3
-0.29
-0.31
-0.305
-0.295
-0.295
-0.29
-0.27
-0.26
-0.26
-0.25
-0.23
-0.215
-0.18
-0.14
-0.11
-0.11
-0.175
-0.27
-0.355
-0.395
-0.385
-0.345
-0.28
-0.24
-0.25
-0.25
-0.255
-0.255
-0.235
-0.235
-0.235
-0.255
-0.265
-0.265
-0.255
-0.23
-0.24
-0.26
-0.26
-0.24
-0.23
-0.24
-0.25
-0.265
-0.26
-0.26
-0.27
-0.265
-0.285
-0.285
-0.295
-0.295
-0.29
-0.305
-0.31
-0.325
-0.335
-0.325
-0.315
-0.32
-0.34
-0.34
-0.335
-0.31
-0.315
-0.315
-0.31
-0.31
-0.32
-0.33
-0.335
-0.335
-0.32
-0.32
-0.325
-0.33
-0.335
-0.34
-0.335
-0.34
-0.33
-0.315
-0.315
-0.31
-0.31
-0.315
-0.33
-0.33
-0.32
-0.315
-0.315
-0.32
-0.31
-0.29
-0.28
-0.27
-0.28
-0.285
-0.29
-0.285
-0.28
-0.26
-0.255
-0.27
-0.275
-0.27
-0.245
-0.24
-0.22
-0.21
-0.21
-0.22
-0.205
-0.21
-0.22
-0.23
-0.25
-0.27
-0.275
-0.25
-0.24
-0.26
-0.29
-0.295
-0.28
-0.26
-0.255
-0.275
-0.295
-0.305
-0.29
-0.265
-0.26
-0.285
-0.3
-0.29
-0.265
-0.23
-0.225
-0.235
-0.23
-0.23
-0.23
-0.255
-0.28
-0.295
-0.295
-0.295
-0.265
-0.27
-0.275
-0.275
-0.285
-0.275
-0.26
-0.25
-0.245
-0.255
-0.27
-0.265
-0.26
-0.24
-0.24
-0.245
-0.265
-0.275
-0.295
-0.32
-0.325
-0.315
-0.295
-0.24
-0.16
-0.08
0.01
0.105
0.175
0.25
0.335
0.45
0.535
0.615
0.665
0.7
0.715
0.665
0.585
0.48
0.36
0.23
0.035
-0.165
-0.32
-0.44
-0.52
-0.54
-0.5
-0.465
-0.425
-0.395
-0.385
-0.38
-0.37
-0.36
-0.365
-0.38
-0.4
-0.415
-0.41
-0.42
-0.42
-0.42
-0.435
-0.44
-0.42
-0.395
-0.37
-0.37
-0.345
-0.33
-0.34
-0.37
-0.39
-0.38
-0.375
-0.36
-0.35
-0.355
-0.37
-0.38
-0.37
-0.36
-0.34
-0.335
-0.34
-0.35
-0.345
-0.35
-0.335
-0.33
-0.32
-0.335
-0.325
-0.315
-0.29
-0.305
-0.32
-0.34
-0.34
-0.33
-0.32
-0.31
-0.305
-0.32
-0.33
-0.325
-0.31
-0.31
-0.3
-0.3
-0.295
-0.285
-0.275
-0.26
-0.265
-0.275
-0.265
-0.235
-0.22
-0.205
-0.21
-0.21
-0.215
-0.21
-0.2
-0.195
-0.18
-0.18
-0.17
-0.155
-0.155
-0.15
-0.165
-0.155
-0.14
-0.125
-0.105
-0.135
-0.165
-0.18
-0.17
-0.135
-0.115
-0.11
-0.135
-0.155
-0.175
-0.16
-0.15
-0.145
-0.155
-0.145
-0.14
-0.14
-0.145
-0.16
-0.16
-0.17
-0.17
-0.165
-0.155
-0.17
-0.17
-0.18
-0.2
-0.215
-0.21
-0.21
-0.22
-0.23
-0.225
-0.205
-0.195
-0.2
-0.22
-0.26
-0.275
-0.29
-0.275
-0.28
-0.275
-0.28
-0.28
-0.27
-0.265
-0.27
-0.27
-0.29
-0.295
-0.3
-0.275
-0.285
-0.285
-0.315
-0.33
-0.325
-0.31
-0.29
-0.28
-0.29
-0.31
-0.305
-0.305
-0.3
-0.305
-0.32
-0.33
-0.335
-0.32
-0.295
-0.29
-0.28
-0.295
-0.305
-0.295
-0.3
-0.3
-0.31
-0.315
-0.3
-0.28
-0.275
-0.28
-0.295
-0.295
-0.295
-0.28
-0.28
-0.275
-0.285
-0.29
-0.275
-0.26
-0.255
-0.26
-0.275
-0.27
-0.26
-0.24
-0.225
-0.23
-0.235
-0.245
-0.245
-0.24
-0.22
-0.205
-0.195
-0.205
-0.2
-0.21
-0.22
-0.245
-0.265
-0.275
-0.265
-0.26
-0.255
-0.26
-0.27
-0.26
-0.255
-0.26
-0.275
-0.29
-0.31
-0.29
-0.24
-0.205
-0.205
-0.23
-0.25
-0.25
-0.235
-0.21
-0.215
-0.215
-0.235
-0.25
-0.25
-0.24
-0.245
-0.23
-0.22
-0.225
-0.225
-0.235
-0.225
-0.23
-0.24
-0.245
-0.25
-0.25
-0.24
-0.23
-0.22
-0.215
-0.205
-0.185
-0.185
-0.19
-0.205
-0.225
-0.245
-0.245
-0.245
-0.2
-0.14
-0.07
0.02
0.11
0.21
0.28
0.36
0.465
0.57
0.675
0.8
0.89
0.87
0.77
0.63
0.495
0.33
0.075
-0.21
-0.45
-0.585
-0.64
-0.63
-0.59
-0.54
-0.475
-0.435
-0.405
-0.375
-0.355
-0.34
-0.35
-0.34
-0.35
-0.365
-0.36
-0.36
-0.36
-0.325
-0.3
-0.275
-0.24
-0.245
-0.25
-0.255
-0.26
-0.255
-0.26
-0.255
-0.26
-0.255
-0.24
-0.255
-0.24
-0.255
-0.255
-0.25
-0.235
-0.23
-0.23
-0.235
-0.245
-0.245
-0.225
-0.225
-0.235
-0.235
-0.245
-0.23
-0.205
-0.175
-0.175
-0.2
-0.21
-0.18
-0.15
-0.165
-0.17
-0.18
-0.165
-0.15
-0.125
-0.11
-0.115
-0.125
-0.115
-0.11
-0.085
-0.09
-0.085
-0.105
-0.095
-0.085
-0.07
-0.055
-0.055
-0.045
-0.055
-0.045
-0.02
-0.005
-0.005
-0.01
-0.025
-0.06
-0.05
-0.055
-0.035
-0.02
-0.005
-0.005
-0.01
-0.01
-0.015
-0.025
-0.03
-0.03
-0.03
-0.03
-0.035
-0.04
-0.04
-0.04
-0.03
-0.04
-0.04
-0.06
-0.065
-0.065
-0.06
-0.065
-0.065
-0.08
-0.085
-0.085
-0.085
-0.07
-0.09
-0.1
-0.11
-0.095
-0.09
-0.095
-0.105
-0.135
-0.12
-0.105
-0.1
-0.08
-0.085
-0.095
-0.085
-0.07
-0.05
-0.045
-0.05
-0.05
-0.045
-0.05
-0.045
-0.065
-0.08
-0.095
-0.11
-0.09
-0.095
-0.105
-0.115
-0.115
-0.12
-0.11
-0.11
-0.125
-0.145
-0.155
-0.17
-0.17
-0.175
-0.165
-0.185
-0.185
-0.2
-0.19
-0.165
-0.165
-0.17
-0.17
-0.175
-0.17
-0.15
-0.135
-0.15
-0.165
-0.175
-0.17
-0.16
-0.16
-0.14
-0.12
-0.13
-0.13
-0.11
-0.11
-0.1
-0.12
-0.135
-0.14
-0.16
-0.175
-0.18
-0.155
-0.105
-0.025
0.07
0.15
0.255
0.355
0.455
0.55
0.635
0.72
0.815
0.89
0.96
0.975
0.89
0.735
0.575
0.385
0.145
-0.095
-0.27
-0.375
-0.46
-0.48
-0.465
-0.37
-0.315
-0.29
-0.295
-0.275
-0.265
-0.25
-0.245
-0.245
-0.25
-0.27
-0.27
-0.265
-0.255
-0.25
-0.26
-0.255
-0.24
-0.205
-0.18
-0.18
-0.185
-0.18
-0.19
-0.185
-0.185
-0.19
-0.195
-0.19
-0.195
-0.185
-0.18
-0.16
-0.155
-0.165
-0.17
-0.165
-0.14
-0.145
-0.145
-0.155
-0.17
-0.155
-0.14
-0.145
-0.14
-0.145
-0.15
-0.14
-0.12
-0.115
-0.115
-0.115
-0.115
-0.105
-0.095
-0.1
-0.095
-0.105
-0.1
-0.085
-0.06
-0.055
-0.06
-0.055
-0.06
-0.045
-0.04
-0.035
-0.025
-0.02
-0.02
-0.015
-0.005
-0.01
-0.01
-0.01
0.0
0.02
0.03
0.03
0.03
0.02
0.03
0.045
0.06
0.06
0.05
0.05
0.065
0.075
0.1
0.085
0.095
0.075
0.065
0.07
0.07
0.075
0.06
0.055
0.04
0.045
0.055
0.055
0.04
0.03
0.0
0.0
0.01
-0.005
-0.01
-0.025
-0.035
-0.025
-0.02
-0.02
-0.02
-0.035
-0.055
-0.055
-0.045
-0.04
-0.045
-0.055
-0.065
-0.06
-0.045
-0.06
-0.06
-0.075
-0.075
-0.065
-0.06
-0.07
-0.07
-0.075
-0.095
-0.095
-0.1
-0.1
-0.1
-0.105
-0.105
-0.09
-0.085
-0.09
-0.1
-0.115
-0.11
-0.095
-0.08
-0.085
-0.095
-0.105
-0.105
-0.095
-0.08
-0.085
-0.095
-0.095
-0.085
-0.075
-0.065
-0.07
-0.085
-0.1
-0.1
-0.095
-0.08
-0.07
-0.07
-0.09
-0.085
-0.085
-0.075
-0.08
-0.065
-0.065
-0.075
-0.08
-0.065
-0.06
-0.03
-0.005
0.0
0.01
-0.03
-0.07
-0.085
-0.075
-0.075
-0.075
-0.08
-0.1
-0.095
-0.075
-0.05
-0.02
-0.02
-0.04
-0.03
-0.035
-0.01
0.015
0.045
0.025
0.005
-0.015
-0.01
-0.015
-0.015
-0.03
-0.02
-0.025
-0.02
-0.025
-0.01
-0.02
-0.035
-0.035
-0.03
-0.02
0.0
-0.015
-0.04
-0.05
-0.06
-0.05
-0.04
-0.06
-0.085
-0.115
-0.125
-0.1
-0.075
-0.065
-0.07
-0.08
-0.085
-0.08
-0.075
-0.075
-0.085
-0.085
-0.085
-0.075
-0.05
-0.055
-0.08
-0.11
-0.13
-0.09
-0.02
0.075
0.195
0.295
0.405
0.53
0.665
0.775
0.88
0.975
1.03
1.025
0.925
0.78
0.605
0.395
0.145
-0.075
-0.21
-0.27
-0.265
-0.215
-0.165
-0.12
-0.105
-0.115
-0.145
-0.17
-0.175
-0.15
-0.11
-0.1
-0.13
-0.22
-0.28
-0.295
-0.255
-0.23
-0.22
-0.215
-0.225
-0.22
-0.2
-0.17
-0.165
-0.17
-0.17
-0.155
-0.155
-0.145
-0.15
-0.16
-0.165
-0.14
-0.095
-0.055
-0.06
-0.1
-0.15
-0.165
-0.16
-0.155
-0.15
-0.135
-0.105
-0.085
-0.085
-0.11
-0.11
-0.11
-0.11
-0.105
-0.105
-0.11
-0.105
-0.1
-0.09
-0.08
-0.065
-0.055
-0.045
-0.04
-0.045
-0.035
-0.015
-0.005
-0.005
0.0
-0.005
0.015
0.035
0.025
0.035
0.02
0.02
0.02
0.045
0.055
0.055
0.055
0.07
0.085
0.11
0.1
0.105
0.095
0.095
0.1
0.11
0.125
0.125
0.1
0.095
0.105
0.115
0.12
0.11
0.105
0.09
0.085
0.085
0.085
0.085
0.07
0.075
0.065
0.055
0.055
0.05
0.035
0.035
0.04
0.06
0.05
0.04
0.025
0.03
0.035
0.03
0.015
0.0
-0.015
-0.015
-0.01
-0.005
-0.02
-0.025
-0.035
-0.035
-0.02
-0.015
-0.035
-0.04
-0.065
-0.07
-0.055
-0.055
-0.06
-0.07
-0.075
-0.075
-0.07
-0.055
-0.06
-0.07
-0.09
-0.095
-0.09
-0.07
-0.08
-0.075
-0.08
-0.105
-0.105
-0.105
-0.105
-0.1
-0.09
-0.105
-0.1
-0.075
-0.075
-0.05
-0.04
-0.01
0.0
0.005
-0.005
0.015
0.02
0.045
0.07
0.095
0.09
0.1
0.14
0.21
0.255
0.285
0.285
0.25
0.225
0.22
0.17
0.055
-0.145
-0.43
-0.77
-1.105
-1.38
-1.61
-1.82
-1.97
-2.035
-2.025
-1.99
-1.945
-1.915
-1.84
-1.705
-1.55
-1.41
-1.315
-1.27
-1.265
-1.23
-1.165
-1.075
-0.99
-0.92
-0.865
-0.82
-0.77
-0.695
-0.62
-0.58
-0.56
-0.535
-0.495
-0.445
-0.4
-0.35
-0.26
-0.165
-0.08
-0.005
0.05
0.08
0.105
0.14
0.17
0.2
0.23
0.255
0.265
0.295
0.36
0.425
0.46
0.425
0.395
0.34
0.32
0.315
0.34
0.35
0.38
0.405
0.42
0.43
0.425
0.435
0.43
0.435
0.46
0.49
0.51
0.535
0.53
0.535
0.555
0.595
0.615
0.62
0.625
0.63
0.635
0.65
0.67
0.68
0.695
0.71
0.71
0.725
0.755
0.745
0.745
0.735
0.725
0.725
0.73
0.71
0.71
0.705
0.715
0.725
0.705
0.685
0.66
0.635
0.625
0.605
0.615
0.6
0.58
0.56
0.53
0.505
0.495
0.47
0.45
0.425
0.405
0.38
0.37
0.335
0.315
0.315
0.305
0.31
0.305
0.285
0.275
0.255
0.22
0.2
0.205
0.195
0.2
0.195
0.18
0.175
0.18
0.185
0.175
0.15
0.13
0.11
0.105
0.11
0.12
0.11
0.1
0.12
0.14
0.125
0.115
0.095
0.08
0.08
0.085
0.095
0.11
0.115
0.12
0.155
0.165
0.14
0.12
0.075
0.055
0.065
0.07
0.105
0.125
0.12
0.1
0.1
0.105
0.145
0.185
0.195
0.195
0.195
0.175
0.135
0.085
0.015
-0.005
0.035
0.07
0.07
0.03
0.015
-0.005
0.015
0.07
0.11
0.11
0.085
0.035
0.01
0.015
0.03
0.06
0.06
0.055
0.05
0.055
0.055
0.05
0.035
0.045
0.06
0.075
0.08
0.09
0.085
0.09
0.095
0.085
0.065
0.02
0.005
0.01
0.035
0.06
0.07
0.075
0.065
0.07
0.08
0.08
0.08
0.065
0.035
0.035
0.05
0.07
0.075
0.075
0.055
0.06
0.07
0.075
0.065
0.075
0.065
0.065
0.06
0.075
0.075
0.045
0.04
0.055
0.07
0.085
0.08
0.055
0.05
0.04
0.035
0.055
0.065
0.065
0.065
0.085
0.095
0.1
0.095
0.085
0.08
0.065
0.055
0.06
0.045
0.035
0.01
0.005
0.02
0.055
0.07
0.06
0.03
0.03
0.025
0.035
0.05
0.06
0.065
0.09
0.11
0.145
0.155
0.14
0.095
0.055
0.04
0.045
0.045
0.045
0.025
0.015
0.02
0.035
0.03
0.03
0.01
0.0
0.025
0.05
0.06
0.06
0.05
0.05
0.045
0.05
0.065
0.055
0.06
0.055
0.05
0.045
0.07
0.065
0.05
0.035
0.04
0.06
0.07
0.07
0.07
0.085
0.085
0.08
0.065
0.075
0.11
0.155
0.19
0.22
0.2
0.145
0.07
-0.005
-0.09
-0.11
-0.08
-0.035
0.01
0.045
0.09
0.1
0.095
0.08
0.065
0.07
0.08
0.095
0.095
0.115
0.135
0.14
0.145
0.12
0.095
0.075
0.055
0.075
0.1
0.125
0.145
0.16
0.14
0.095
0.04
-0.01
-0.015
0.02
0.035
0.02
0.01
-0.01
0.005
0.045
0.045
0.025
0.01
-0.005
0.005
0.005
-0.005
0.005
0.02
0.055
0.07
0.06
0.035
0.015
0.015
0.04
0.075
0.07
0.02
0.005
0.03
0.06
0.06
0.0
-0.06
-0.075
-0.05
-0.005
0.0
-0.025
-0.07
-0.075
-0.04
0.04
0.11
0.175
0.27
0.395
0.525
0.65
0.77
0.875
0.955
1.05
1.1
1.085
1.0
0.86
0.64
0.365
0.045
-0.215
-0.385
-0.475
-0.49
-0.435
-0.37
-0.305
-0.3
-0.305
-0.29
-0.24
-0.205
-0.2
-0.255
-0.27
-0.285
-0.275
-0.265
-0.23
-0.17
-0.14
-0.13
-0.14
-0.155
-0.145
-0.14
-0.12
-0.12
-0.11
-0.12
-0.14
-0.175
-0.195
-0.195
-0.165
-0.14
-0.12
-0.125
-0.145
-0.16
-0.155
-0.13
-0.105
-0.1
-0.11
-0.14
-0.145
-0.14
-0.125
-0.115
-0.095
-0.08
-0.045
-0.02
-0.02
-0.035
-0.095
-0.165
-0.205
-0.21
-0.18
-0.15
-0.16
-0.17
-0.165
-0.145
-0.115
-0.1
-0.1
-0.11
-0.115
-0.115
-0.1
-0.11
-0.12
-0.115
-0.09
-0.065
-0.04
-0.02
0.005
0.01
-0.02
-0.035
-0.055
-0.08
-0.065
-0.07
-0.065
-0.09
-0.085
-0.085
-0.085
-0.075
-0.055
-0.02
0.01
0.025
0.04
0.05
0.05
0.045
0.045
0.055
0.065
0.05
0.03
0.01
0.01
0.0
0.0
-0.01
-0.02
-0.04
-0.035
-0.02
-0.01
-0.01
0.01
0.015
0.025
0.015
0.015
0.0
0.0
-0.005
0.0
0.005
0.0
-0.01
-0.015
-0.015
-0.015
-0.015
-0.025
-0.055
-0.05
-0.055
-0.06
-0.06
-0.055
-0.065
-0.07
-0.06
-0.055
-0.05
-0.06
-0.085
-0.095
-0.09
-0.075
-0.05
-0.07
-0.095
-0.1
-0.095
-0.08
-0.08
-0.085
-0.105
-0.1
-0.085
-0.07
-0.07
-0.07
-0.075
-0.045
-0.03
-0.01
0.0
0.005
0.005
-0.005
0.005
0.01
0.05
0.075
0.08
0.065
0.015
-0.12
-0.36
-0.705
-1.075
-1.435
-1.765
-2.035
-2.25
-2.385
-2.465
-2.49
-2.495
-2.495
-2.48
-2.45
-2.42
-2.375
-2.305
-2.225
-2.135
-2.035
-1.915
-1.755
-1.575
-1.41
-1.3
-1.215
-1.16
-1.1
-1.025
-0.93
-0.84
-0.755
-0.71
-0.63
-0.565
-0.48
-0.39
-0.33
-0.265
-0.155
-0.005
0.185
0.29
0.285
0.19
0.125
0.13
0.28
0.45
0.515
0.425
0.265
0.095
-0.005
-0.015
0.065
0.175
0.255
0.3
0.33
0.345
0.365
0.375
0.41
0.44
0.475
0.485
0.495
0.47
0.48
0.475
0.495
0.505
0.5
0.49
0.495
0.5
0.52
0.53
0.525
0.525
0.545
0.565
0.57
0.58
0.58
0.585
0.605
0.605
0.62
0.63
0.63
0.625
0.64
0.66
0.69
0.695
0.685
0.69
0.695
0.7
0.71
0.725
0.72
0.705
0.725
0.735
0.75
0.755
0.745
0.74
0.75
0.765
0.77
0.77
0.775
0.76
0.77
0.76
0.785
0.77
0.75
0.755
0.765
0.75
0.735
0.705
0.685
0.67
0.66
0.65
0.63
0.62
0.58
0.54
0.52
0.535
0.55
0.56
0.54
0.46
0.385
0.31
0.275
0.255
0.275
0.29
0.295
0.27
0.25
0.22
0.205
0.165
0.155
0.155
0.17
0.14
0.115
0.085
0.085
0.095
0.1
0.085
0.07
0.05
0.025
0.015
0.02
0.05
0.09
0.13
0.12
0.05
-0.075
-0.165
-0.2
-0.19
-0.155
-0.12
-0.095
-0.09
-0.09
-0.085
-0.08
-0.065
-0.075
-0.065
-0.08
-0.095
-0.095
-0.085
-0.08
-0.075
-0.09
-0.095
-0.105
-0.095
-0.07
-0.065
-0.085
-0.095
-0.095
-0.08
-0.075
-0.095
-0.11
-0.11
-0.115
-0.115
-0.11
-0.11
-0.105
-0.125
-0.115
-0.115
-0.115
-0.13
-0.135
-0.15
-0.14
-0.135
-0.12
-0.12
-0.12
-0.135
-0.14
-0.135
-0.125
-0.115
-0.14
-0.155
-0.16
-0.15
-0.135
-0.14
-0.145
-0.155
-0.15
-0.15
-0.14
-0.14
-0.145
-0.155
-0.15
-0.145
-0.145
-0.14
-0.14
-0.155
-0.14
-0.135
-0.135
-0.14
-0.145
-0.155
-0.145
-0.135
-0.13
-0.135
-0.14
-0.16
-0.15
-0.14
-0.135
-0.14
-0.13
-0.135
-0.14
-0.135
-0.13
-0.14
-0.135
-0.14
-0.135
-0.135
-0.13
-0.14
-0.17
-0.195
-0.185
-0.185
-0.175
-0.165
-0.145
-0.14
-0.14
-0.145
-0.13
-0.13
-0.13
-0.14
-0.145
-0.145
-0.14
-0.15
-0.155
-0.16
-0.15
-0.14
-0.125
-0.115
-0.125
-0.13
-0.14
-0.15
-0.155
-0.145
-0.15
-0.15
-0.14
-0.14
-0.125
-0.11
-0.12
-0.14
-0.13
-0.135
-0.12
-0.12
-0.125
-0.11
-0.09
-0.095
-0.085
-0.095
-0.105
-0.115
-0.1
-0.08
-0.075
-0.06
-0.06
-0.06
-0.07
-0.08
-0.085
-0.095
-0.115
-0.125
-0.12
-0.11
-0.115
-0.115
-0.125
-0.14
-0.135
-0.12
-0.115
-0.115
-0.125
-0.145
-0.155
-0.145
-0.135
-0.135
-0.135
-0.145
-0.13
-0.105
-0.095
-0.1
-0.13
-0.15
-0.15
-0.145
-0.145
-0.155
-0.16
-0.17
-0.165
-0.15
-0.14
-0.145
-0.16
-0.18
-0.175
-0.165
-0.155
-0.15
-0.15
-0.145
-0.135
-0.13
-0.13
-0.13
-0.145
-0.17
-0.18
-0.185
-0.17
-0.135
-0.08
-0.03
0.035
0.115
0.19
0.26
0.325
0.375
0.45
0.555
0.66
0.765
0.835
0.87
0.855
0.795
0.72
0.635
0.515
0.335
0.085
-0.15
-0.3
-0.4
-0.45
-0.465
-0.45
-0.405
-0.365
-0.35
-0.345
-0.345
-0.32
-0.3
-0.275
-0.275
-0.27
-0.3
-0.31
-0.315
-0.29
-0.295
-0.29
-0.285
-0.265
-0.27
-0.275
-0.275
-0.275
-0.275
-0.245
-0.22
-0.21
-0.2
-0.195
-0.205
-0.21
-0.21
-0.205
-0.21
-0.21
-0.235
-0.225
-0.21
-0.19
-0.175
-0.18
-0.185
-0.185
-0.17
-0.17
-0.18
-0.185
-0.18
-0.17
-0.155
-0.155
-0.155
-0.18
-0.205
-0.195
-0.185
-0.185
-0.175
-0.185
-0.18
-0.175
-0.175
-0.165
-0.15
-0.16
-0.18
-0.175
-0.15
-0.135
-0.145
-0.15
-0.165
-0.16
-0.15
-0.125
-0.13
-0.12
-0.14
-0.13
-0.125
-0.105
-0.1
-0.12
-0.115
-0.1
-0.085
-0.08
-0.085
-0.1
-0.115
-0.1
-0.095
-0.085
-0.065
-0.08
-0.09
-0.085
-0.09
-0.075
-0.055
-0.06
-0.075
-0.065
-0.06
-0.045
-0.045
-0.025
-0.025
-0.015
0.015
0.01
-0.01
-0.03
-0.04
-0.01
0.0
0.01
0.015
0.02
0.0
0.0
0.005
0.015
0.015
0.0
-0.01
-0.005
0.015
0.005
-0.015
-0.02
-0.035
-0.02
-0.015
-0.02
-0.025
-0.04
-0.05
-0.055
-0.065
-0.045
-0.035
-0.025
-0.045
-0.065
-0.06
-0.06
-0.055
-0.05
-0.055
-0.065
-0.07
-0.08
-0.085
-0.105
-0.095
-0.085
-0.07
-0.06
-0.045
-0.055
-0.055
-0.04
-0.05
-0.05
-0.07
-0.1
-0.115
-0.085
-0.07
-0.045
-0.055
-0.07
-0.075
-0.08
-0.08
-0.07
-0.065
-0.07
-0.08
-0.065
-0.06
-0.05
-0.06
-0.07
-0.08
-0.07
-0.065
-0.045
-0.04
-0.045
-0.065
-0.065
-0.065
-0.045
-0.04
-0.045
-0.05
-0.05
-0.04
-0.03
-0.02
-0.015
-0.02
-0.02
0.0
0.005
0.005
0.005
0.005
0.005
0.01
0.025
0.025
0.01
-0.005
-0.005
-0.005
-0.005
-0.005
-0.01
-0.02
-0.01
-0.005
0.0
-0.005
-0.005
-0.035
-0.03
-0.02
-0.02
-0.015
-0.005
-0.02
-0.005
0.0
0.0
-0.02
-0.05
-0.08
-0.07
-0.06
-0.055
-0.05
-0.05
-0.07
-0.065
-0.075
-0.065
-0.06
-0.055
-0.065
-0.065
-0.06
-0.055
-0.05
-0.065
-0.075
-0.075
-0.085
-0.08
-0.075
-0.045
-0.01
0.075
0.175
0.265
0.35
0.44
0.51
0.585
0.685
0.82
0.915
0.975
0.945
0.83
0.68
0.5
0.235
-0.08
-0.33
-0.465
-0.5
-0.485
-0.435
-0.38
-0.34
-0.32
-0.29
-0.245
-0.23
-0.22
-0.25
-0.27
-0.265
-0.25
-0.24
-0.23
-0.22
-0.2
-0.18
-0.15
-0.145
-0.15
-0.175
-0.17
-0.155
-0.145
-0.145
-0.155
-0.16
-0.17
-0.17
-0.15
-0.155
-0.155
-0.17
-0.175
-0.165
-0.15
-0.155
-0.15
-0.15
-0.15
-0.145
-0.145
-0.15
-0.155
-0.175
-0.145
-0.11
-0.065
-0.08
-0.105
-0.125
-0.13
-0.14
-0.125
-0.125
-0.105
-0.09
-0.08
-0.08
-0.085
-0.07
-0.09
-0.09
-0.085
-0.065
-0.06
-0.06
-0.07
-0.08
-0.07
-0.07
-0.04
-0.01
-0.02
-0.025
-0.02
-0.03
-0.025
-0.02
-0.01
-0.02
-0.015
-0.02
-0.005
-0.025
-0.02
-0.025
-0.01
0.005
0.02
0.01
0.0
-0.03
-0.035
-0.02
-0.02
-0.025
-0.045
-0.055
-0.055
-0.05
-0.055
-0.045
-0.06
-0.075
-0.065
-0.065
-0.07
-0.09
-0.105
-0.115
-0.11
-0.1
-0.1
-0.105
-0.13
-0.14
-0.125
-0.13
-0.12
-0.125
-0.16
-0.175
-0.175
-0.16
-0.135
-0.15
-0.165
-0.195
-0.19
-0.175
-0.165
-0.19
-0.205
-0.21
-0.195
-0.185
-0.2
-0.205
-0.215
-0.245
-0.26
-0.26
-0.265
-0.275
-0.285
-0.315
-0.31
-0.325
-0.35
-0.38
-0.415
-0.44
-0.435
-0.4
-0.36
-0.315
-0.265
-0.225
-0.14
-0.03
0.075
0.195
0.295
0.355
0.39
0.34
0.205
-0.005
-0.18
-0.345
-0.455
-0.59
-0.72
-0.81
-0.855
-0.885
-0.84
-0.805
-0.755
-0.68
-0.605
-0.555
-0.49
-0.43
-0.37
-0.325
-0.27
-0.23
-0.195
-0.185
-0.17
-0.16
-0.16
-0.165
-0.15
-0.16
-0.16
-0.155
-0.165
-0.15
-0.135
-0.125
-0.125
-0.115
-0.11
-0.125
-0.12
-0.12
-0.115
-0.12
-0.14
-0.155
-0.15
-0.14
-0.125
-0.145
-0.145
-0.15
-0.135
-0.115
-0.12
-0.12
-0.125
-0.125
-0.115
-0.1
-0.075
-0.085
-0.085
-0.085
-0.075
-0.065
-0.045
-0.04
-0.05
-0.05
-0.055
-0.035
-0.02
-0.03
-0.025
-0.035
-0.03
-0.015
0.0
0.005
-0.005
-0.005
0.0
0.02
0.02
0.03
0.01
-0.01
-0.005
0.015
0.025
0.01
-0.01
-0.025
-0.025
-0.015
-0.015
-0.015
-0.025
-0.035
-0.04
-0.055
-0.065
-0.08
-0.095
-0.095
-0.11
-0.1
-0.105
-0.1
-0.105
-0.145
-0.155
-0.16
-0.155
-0.155
-0.15
-0.17
-0.19
-0.19
-0.175
-0.17
-0.18
-0.19
-0.18
-0.155
-0.15
-0.15
-0.185
-0.225
-0.24
-0.23
-0.21
-0.205
-0.215
-0.205
-0.185
-0.165
-0.145
-0.15
-0.15
-0.145
-0.12
-0.1
-0.085
-0.065
-0.065
-0.065
-0.055
-0.04
-0.005
0.005
0.0
0.0
0.025
0.035
0.065
0.085
0.1
0.12
0.16
0.205
0.24
0.275
0.305
0.355
0.445
0.555
0.68
0.79
0.85
0.89
0.925
0.96
0.975
0.945
0.77
0.465
0.12
-0.16
-0.385
-0.575
-0.76
-0.935
-1.045
-1.09
-1.09
-1.065
-1.05
-1.04
-1.0
-0.97
-0.94
-0.92
-0.89
-0.84
-0.77
-0.71
-0.645
-0.6
-0.575
-0.56
-0.515
-0.495
-0.485
-0.48
-0.485
-0.495
-0.51
-0.495
-0.505
-0.51
-0.525
-0.535
-0.54
-0.54
-0.545
-0.545
-0.555
-0.56
-0.57
-0.555
-0.55
-0.54
-0.535
-0.53
-0.525
-0.51
-0.46
-0.43
-0.43
-0.435
-0.445
-0.45
-0.445
-0.445
-0.45
-0.445
-0.425
-0.425
-0.415
-0.405
-0.415
-0.415
-0.385
-0.37
-0.355
-0.345
-0.34
-0.345
-0.335
-0.33
-0.32
-0.305
-0.3
-0.3
-0.275
-0.235
-0.19
-0.2
-0.21
-0.215
-0.2
-0.18
-0.15
-0.14
-0.135
-0.145
-0.155
-0.15
-0.135
-0.13
-0.115
-0.12
-0.125
-0.13
-0.13
-0.135
-0.145
-0.16
-0.16
-0.155
-0.145
-0.15
-0.165
-0.18
-0.18
-0.19
-0.2
-0.21
-0.195
-0.175
-0.175
-0.175
-0.19
-0.205
-0.2
-0.215
-0.205
-0.18
-0.165
-0.17
-0.185
-0.22
-0.225
-0.215
-0.195
-0.185
-0.185
-0.195
-0.185
-0.17
-0.165
-0.17
-0.185
-0.17
-0.175
-0.18
-0.195
-0.205
-0.225
-0.22
-0.205
-0.195
-0.18
-0.18
-0.195
-0.205
-0.195
-0.19
-0.17
-0.155
-0.16
-0.185
-0.165
-0.165
-0.165
-0.165
-0.175
-0.18
-0.18
-0.165
-0.165
-0.175
-0.19
-0.22
-0.215
-0.195
-0.18
-0.18
-0.185
-0.2
-0.195
-0.19
-0.185
-0.185
-0.18
-0.185
-0.195
-0.2
-0.17
-0.175
-0.18
-0.205
-0.2
-0.205
-0.195
-0.175
-0.175
-0.19
-0.185
-0.175
-0.165
-0.175
-0.19
-0.2
-0.19
-0.17
-0.165
-0.15
-0.16
-0.18
-0.17
-0.185
-0.185
-0.18
-0.175
-0.17
-0.16
-0.175
-0.165
-0.165
-0.17
-0.185
-0.19
-0.175
-0.16
