Lead II
-0.27
-0.28
-0.285
-0.31
-0.285
-0.285
-0.265
-0.24
-0.18
-0.11
-0.005
0.085
0.165
0.265
0.365
0.48
0.62
0.74
0.835
0.9
0.94
0.92
0.885
0.8
0.695
0.525
0.36
0.16
0.01
-0.075
-0.135
-0.2
-0.265
-0.32
-0.315
-0.3
-0.305
-0.34
-0.385
-0.4
-0.385
-0.405
-0.4
-0.415
-0.425
-0.445
-0.44
-0.43
-0.425
-0.42
-0.43
-0.45
-0.45
-0.46
-0.465
-0.47
-0.465
-0.475
-0.475
-0.475
-0.48
-0.48
-0.495
-0.51
-0.505
-0.48
-0.48
-0.485
-0.505
-0.515
-0.51
-0.5
-0.49
-0.51
-0.495
-0.5
-0.51
-0.5
-0.5
-0.515
-0.5
-0.5
-0.48
-0.465
-0.475
-0.485
-0.485
-0.465
-0.47
-0.47
-0.455
-0.45
-0.475
-0.475
-0.46
-0.45
-0.44
-0.44
-0.465
-0.465
-0.47
-0.46
-0.43
-0.44
-0.445
-0.45
-0.445
-0.435
-0.43
-0.435
-0.44
-0.425
-0.41
-0.36
-0.365
-0.385
-0.36
-0.355
-0.335
-0.325
-0.31
-0.315
-0.325
-0.345
-0.335
-0.325
-0.32
-0.32
-0.335
-0.335
-0.33
-0.335
-0.315
-0.315
-0.315
-0.305
-0.295
-0.28
-0.28
-0.295
-0.295
-0.31
-0.285
-0.26
-0.25
-0.255
-0.27
-0.275
-0.265
-0.255
-0.255
-0.275
-0.27
-0.285
-0.26
-0.25
-0.26
-0.255
-0.265
-0.265
-0.25
-0.245
-0.23
-0.23
-0.24
-0.245
-0.245
-0.245
-0.26
-0.245
-0.26
-0.265
-0.245
-0.235
-0.23
-0.235
-0.25
-0.255
-0.245
-0.23
-0.225
-0.245
-0.245
-0.245
-0.25
-0.23
-0.23
-0.23
-0.235
-0.245
-0.225
-0.205
-0.19
-0.2
-0.21
-0.22
-0.215
-0.215
-0.205
-0.21
-0.22
-0.21
-0.19
-0.16
-0.16
-0.16
-0.18
-0.165
-0.17
-0.16
-0.165
-0.14
-0.155
-0.165
-0.155
-0.155
-0.15
-0.165
-0.16
-0.18
-0.175
-0.16
-0.16
-0.165
-0.175
-0.175
-0.165
-0.145
-0.145
-0.155
-0.165
-0.155
-0.14
-0.125
-0.115
-0.125
-0.135
-0.15
-0.135
-0.135
-0.12
-0.13
-0.13
-0.145
-0.135
-0.13
-0.115
-0.12
-0.125
-0.13
-0.135
-0.13
-0.135
-0.125
-0.095
-0.045
0.05
0.17
0.27
0.37
0.455
0.56
0.69
0.83
0.925
0.965
0.955
0.915
0.85
0.775
0.66
0.475
0.275
0.09
-0.005
-0.055
-0.11
-0.17
-0.21
-0.235
-0.225
-0.22
-0.225
-0.255
-0.28
-0.28
-0.27
-0.275
-0.275
-0.29
-0.305
-0.32
-0.33
-0.325
-0.31
-0.3
-0.325
-0.32
-0.315
-0.31
-0.315
-0.32
-0.33
-0.345
-0.33
-0.325
-0.325
-0.335
-0.355
-0.365
-0.355
-0.365
-0.35
-0.365
-0.395
-0.41
-0.375
-0.355
-0.365
-0.38
-0.39
-0.405
-0.405
-0.375
-0.37
-0.375
-0.39
-0.385
-0.38
-0.365
-0.38
-0.365
-0.375
-0.38
-0.365
-0.345
-0.33
-0.33
-0.34
-0.35
-0.35
-0.335
-0.32
-0.31
-0.305
-0.315
-0.295
-0.29
-0.285
-0.29
-0.29
-0.295
-0.28
-0.27
-0.27
-0.27
-0.27
-0.265
-0.245
-0.235
-0.22
-0.225
-0.22
-0.225
-0.215
-0.19
-0.185
-0.185
-0.2
-0.21
-0.2
-0.205
-0.185
-0.195
-0.2
-0.21
-0.215
-0.21
-0.19
-0.21
-0.22
-0.23
-0.215
-0.225
-0.21
-0.225
-0.24
-0.23
-0.225
-0.21
-0.19
-0.195
-0.2
-0.195
-0.19
-0.175
-0.155
-0.15
-0.16
-0.175
-0.175
-0.165
-0.145
-0.14
-0.155
-0.175
-0.165
-0.175
-0.155
-0.16
-0.165
-0.17
-0.155
-0.145
-0.14
-0.145
-0.165
-0.175
-0.17
-0.165
-0.16
-0.17
-0.175
-0.195
-0.2
-0.185
-0.18
-0.19
-0.19
-0.205
-0.2
-0.185
-0.18
-0.18
-0.185
-0.205
-0.2
-0.19
-0.195
-0.185
-0.2
-0.215
-0.205
-0.19
-0.185
-0.175
-0.2
-0.19
-0.19
-0.175
-0.165
-0.185
-0.195
-0.2
-0.18
-0.165
-0.155
-0.16
-0.175
-0.195
-0.205
-0.185
-0.17
-0.185
-0.2
-0.225
-0.23
-0.235
-0.225
-0.215
-0.225
-0.23
-0.22
-0.215
-0.215
-0.215
-0.205
-0.205
-0.21
-0.195
-0.205
-0.205
-0.21
-0.2
-0.2
-0.19
-0.19
-0.195
-0.215
-0.235
-0.21
-0.215
-0.2
-0.22
-0.245
-0.25
-0.21
-0.11
0.005
0.13
0.235
0.32
0.455
0.61
0.77
0.87
0.905
0.885
0.84
0.765
0.64
0.44
0.21
-0.005
-0.115
-0.16
-0.21
-0.26
-0.305
-0.33
-0.325
-0.325
-0.33
-0.34
-0.365
-0.38
-0.365
-0.365
-0.36
-0.375
-0.4
-0.405
-0.385
-0.385
-0.4
-0.415
-0.41
-0.425
-0.41
-0.405
-0.405
-0.425
-0.44
-0.46
-0.465
-0.47
-0.475
-0.49
-0.51
-0.515
-0.51
-0.505
-0.485
-0.505
-0.5
-0.505
-0.5
-0.495
-0.49
-0.49
-0.485
-0.485
-0.47
-0.455
-0.47
-0.475
-0.465
-0.47
-0.445
-0.43
-0.435
-0.445
-0.455
-0.45
-0.44
-0.44
-0.435
-0.425
-0.445
-0.445
-0.445
-0.43
-0.415
-0.42
-0.415
-0.435
-0.42
-0.415
-0.4
-0.405
-0.395
-0.39
-0.375
-0.36
-0.345
-0.35
-0.35
-0.345
-0.34
-0.34
-0.325
-0.335
-0.35
-0.34
-0.335
-0.32
-0.3
-0.31
-0.33
-0.355
-0.33
-0.325
-0.32
-0.315
-0.325
-0.34
-0.345
-0.34
-0.34
-0.34
-0.345
-0.335
-0.35
-0.35
-0.34
-0.34
-0.33
-0.335
-0.335
-0.33
-0.32
-0.33
-0.355
-0.35
-0.345
-0.34
-0.32
-0.32
-0.325
-0.335
-0.34
-0.315
-0.31
-0.32
-0.33
-0.35
-0.345
-0.33
-0.31
-0.31
-0.32
-0.33
-0.34
-0.32
-0.325
-0.32
-0.32
-0.325
-0.325
-0.325
-0.32
-0.35
-0.35
-0.34
-0.345
-0.335
-0.315
-0.325
-0.345
-0.34
-0.345
-0.33
-0.32
-0.325
-0.33
-0.34
-0.335
-0.31
-0.305
-0.295
-0.29
-0.295
-0.285
-0.29
-0.29
-0.27
-0.28
-0.275
-0.275
-0.27
-0.27
-0.27
-0.285
-0.285
-0.265
-0.27
-0.26
-0.28
-0.29
-0.3
-0.3
-0.28
-0.28
-0.28
-0.285
-0.285
-0.28
-0.265
-0.255
-0.26
-0.265
-0.285
-0.285
-0.26
-0.245
-0.24
-0.255
-0.26
-0.26
-0.25
-0.23
-0.245
-0.245
-0.235
-0.235
-0.235
-0.23
-0.215
-0.195
-0.105
-0.005
0.12
0.245
0.37
0.485
0.62
0.765
0.86
0.905
0.89
0.835
0.755
0.64
0.51
0.31
0.095
-0.07
-0.155
-0.205
-0.245
-0.3
-0.3
-0.315
-0.33
-0.34
-0.335
-0.325
-0.335
-0.335
-0.37
-0.365
-0.345
-0.325
-0.325
-0.35
-0.355
-0.365
-0.36
-0.38
-0.355
-0.365
-0.37
-0.37
-0.36
-0.36
-0.37
-0.385
-0.38
-0.375
-0.375
-0.36
-0.365
-0.38
-0.395
-0.385
-0.365
-0.36
-0.365
-0.37
-0.385
-0.385
-0.375
-0.355
-0.365
-0.37
-0.385
-0.395
-0.36
-0.355
-0.37
-0.375
-0.38
-0.375
-0.36
-0.355
-0.35
-0.36
-0.37
-0.385
-0.355
-0.35
-0.345
-0.35
-0.34
-0.335
-0.32
-0.315
-0.31
-0.295
-0.295
-0.29
-0.275
-0.26
-0.26
-0.26
-0.265
-0.245
-0.23
-0.22
-0.225
-0.23
-0.23
-0.22
-0.2
-0.185
-0.2
-0.215
-0.21
-0.205
-0.195
-0.17
-0.185
-0.185
-0.19
-0.19
-0.18
-0.165
-0.17
-0.18
-0.18
-0.18
-0.185
-0.185
-0.17
-0.175
-0.19
-0.185
-0.175
-0.17
-0.18
-0.205
-0.205
-0.215
-0.185
-0.175
-0.185
-0.195
-0.205
-0.215
-0.2
-0.185
-0.175
-0.2
-0.215
-0.21
-0.205
-0.19
-0.19
-0.19
-0.195
-0.205
-0.185
-0.17
-0.17
-0.19
-0.185
-0.18
-0.155
-0.15
-0.145
-0.15
-0.155
-0.155
-0.145
-0.125
-0.125
-0.145
-0.16
-0.155
-0.15
-0.135
-0.13
-0.14
-0.16
-0.145
-0.155
-0.13
-0.14
-0.14
-0.145
-0.135
-0.14
-0.13
-0.14
-0.155
-0.155
-0.145
-0.14
-0.125
-0.13
-0.14
-0.15
-0.15
-0.135
-0.12
-0.13
-0.14
-0.175
-0.17
-0.155
-0.14
-0.15
-0.14
-0.15
-0.145
-0.135
-0.135
-0.135
-0.16
-0.175
-0.165
-0.13
-0.065
0.005
0.095
0.195
0.315
0.45
0.59
0.73
0.82
0.91
0.96
0.98
0.955
0.87
0.74
0.595
0.4
0.19
0.04
-0.04
-0.105
-0.175
-0.225
-0.255
-0.27
-0.29
-0.3
-0.315
-0.325
-0.32
-0.31
-0.32
-0.325
-0.345
-0.345
-0.35
-0.345
-0.35
-0.355
-0.365
-0.365
-0.355
-0.36
-0.375
-0.39
-0.41
-0.41
-0.405
-0.405
-0.405
-0.43
-0.45
-0.445
-0.435
-0.43
-0.44
-0.45
-0.455
-0.465
-0.45
-0.435
-0.44
-0.455
-0.455
-0.455
-0.455
-0.445
-0.445
-0.455
-0.44
-0.45
-0.44
-0.44
-0.435
-0.43
-0.445
-0.435
-0.425
-0.425
-0.415
-0.435
-0.43
-0.425
-0.41
-0.405
-0.405
-0.39
-0.39
-0.375
-0.355
-0.335
-0.325
-0.32
-0.33
-0.325
-0.305
-0.285
-0.285
-0.285
-0.29
-0.285
-0.275
-0.25
-0.255
-0.275
-0.29
-0.29
-0.29
-0.26
-0.255
-0.28
-0.285
-0.3
-0.295
-0.28
-0.28
-0.29
-0.325
-0.335
-0.335
-0.325
-0.32
-0.34
-0.36
-0.355
-0.34
-0.34
-0.335
-0.35
-0.365
-0.365
-0.345
-0.315
-0.32
-0.325
-0.33
-0.325
-0.3
-0.285
-0.275
-0.28
-0.29
-0.285
-0.265
-0.245
-0.255
-0.285
-0.27
-0.27
-0.27
-0.25
-0.255
-0.27
-0.27
-0.3
-0.27
-0.27
-0.27
-0.28
-0.305
-0.305
-0.29
-0.285
-0.305
-0.305
-0.33
-0.335
-0.315
-0.305
-0.31
-0.31
-0.32
-0.325
-0.315
-0.31
-0.325
-0.33
-0.33
-0.325
-0.32
-0.295
-0.3
-0.305
-0.32
-0.32
-0.295
-0.28
-0.29
-0.295
-0.32
-0.315
-0.285
-0.27
-0.28
-0.29
-0.31
-0.32
-0.305
-0.295
-0.285
-0.29
-0.31
-0.32
-0.31
-0.285
-0.285
-0.305
-0.315
-0.315
-0.31
-0.285
-0.275
-0.295
-0.295
-0.295
-0.285
-0.27
-0.275
-0.295
-0.315
-0.315
-0.305
-0.28
-0.29
-0.305
-0.305
-0.33
-0.3
-0.29
-0.28
-0.29
-0.31
-0.315
-0.31
-0.28
-0.29
-0.285
-0.295
-0.31
-0.31
-0.28
-0.285
-0.27
-0.285
-0.305
-0.265
-0.245
-0.245
-0.255
-0.27
-0.29
-0.27
-0.265
-0.2
-0.14
-0.055
0.04
0.16
0.285
0.405
0.525
0.635
0.76
0.85
0.91
0.905
0.87
0.79
0.675
0.52
0.33
0.11
-0.065
-0.165
-0.215
-0.26
-0.31
-0.35
-0.365
-0.375
-0.395
-0.4
-0.4
-0.415
-0.42
-0.43
-0.44
-0.445
-0.43
-0.425
-0.445
-0.455
-0.475
-0.47
-0.455
-0.475
-0.485
-0.495
-0.5
-0.505
-0.495
-0.5
-0.5
-0.515
-0.53
-0.51
-0.495
-0.48
-0.49
-0.5
-0.49
-0.48
-0.47
-0.47
-0.475
-0.47
-0.465
-0.475
-0.45
-0.47
-0.47
-0.49
-0.495
-0.485
-0.465
-0.455
-0.46
-0.485
-0.475
-0.465
-0.445
-0.44
-0.445
-0.44
-0.455
-0.445
-0.42
-0.42
-0.43
-0.435
-0.425
-0.415
-0.415
-0.395
-0.415
-0.415
-0.41
-0.39
-0.365
-0.37
-0.37
-0.36
-0.365
-0.335
-0.315
-0.32
-0.31
-0.32
-0.33
-0.305
-0.28
-0.285
-0.28
-0.285
-0.285
-0.27
-0.245
-0.255
-0.26
-0.26
-0.285
-0.26
-0.255
-0.26
-0.27
-0.275
-0.285
-0.275
-0.265
-0.265
-0.28
-0.285
-0.3
-0.29
-0.285
-0.275
-0.285
-0.3
-0.295
-0.28
-0.27
-0.25
-0.265
-0.285
-0.285
-0.275
-0.255
-0.255
-0.26
-0.275
-0.285
-0.27
-0.27
-0.275
-0.285
-0.295
-0.295
-0.27
-0.245
-0.25
-0.26
-0.255
-0.27
-0.25
-0.225
-0.23
-0.235
-0.24
-0.25
-0.24
-0.215
-0.22
-0.225
-0.235
-0.23
-0.21
-0.2
-0.205
-0.205
-0.205
-0.21
-0.2
-0.19
-0.195
-0.215
-0.215
-0.2
-0.195
-0.185
-0.19
-0.2
-0.195
-0.2
-0.185
-0.18
-0.19
-0.195
-0.225
-0.215
-0.215
-0.215
-0.215
-0.22
-0.23
-0.24
-0.235
-0.22
-0.215
-0.22
-0.235
-0.23
-0.22
-0.21
-0.2
-0.195
-0.19
-0.2
-0.185
-0.18
-0.165
-0.19
-0.175
-0.175
-0.18
-0.18
-0.175
-0.165
-0.175
-0.19
-0.165
-0.16
-0.14
-0.15
-0.165
-0.175
-0.16
-0.155
-0.165
-0.185
-0.2
-0.195
-0.185
-0.175
-0.175
-0.195
-0.19
-0.195
-0.165
-0.16
-0.155
-0.185
-0.19
-0.175
-0.185
-0.175
-0.17
-0.185
-0.205
-0.2
-0.19
-0.18
-0.175
-0.17
-0.195
-0.19
-0.15
-0.14
-0.13
-0.145
-0.15
-0.15
-0.15
-0.13
-0.12
-0.145
-0.16
-0.15
-0.165
-0.155
-0.145
-0.145
-0.095
-0.015
0.085
0.21
0.345
0.435
0.555
0.695
0.83
0.93
0.98
0.975
0.935
0.86
0.78
0.645
0.455
0.235
0.06
-0.035
-0.08
-0.105
-0.17
-0.225
-0.255
-0.26
-0.25
-0.255
-0.26
-0.27
-0.29
-0.295
-0.285
-0.28
-0.285
-0.29
-0.31
-0.285
-0.28
-0.275
-0.295
-0.305
-0.315
-0.32
-0.305
-0.305
-0.3
-0.315
-0.33
-0.32
-0.32
-0.305
-0.315
-0.325
-0.32
-0.335
-0.325
-0.305
-0.295
-0.32
-0.325
-0.33
-0.31
-0.31
-0.3
-0.305
-0.32
-0.32
-0.305
-0.295
-0.285
-0.3
-0.305
-0.32
-0.31
-0.315
-0.325
-0.34
-0.36
-0.345
-0.33
-0.32
-0.305
-0.295
-0.31
-0.285
-0.28
-0.265
-0.27
-0.27
-0.28
-0.275
-0.26
-0.275
-0.265
-0.255
-0.26
-0.24
-0.23
-0.22
-0.21
-0.2
-0.205
-0.2
-0.185
-0.17
-0.175
-0.185
-0.19
-0.19
-0.18
-0.175
-0.175
-0.175
-0.2
-0.2
-0.205
-0.195
-0.195
-0.195
-0.22
-0.23
-0.215
-0.22
-0.2
-0.195
-0.2
-0.205
-0.205
-0.19
-0.175
-0.18
-0.185
-0.205
-0.2
-0.195
-0.185
-0.19
-0.205
-0.205
-0.205
-0.195
-0.195
-0.2
-0.205
-0.215
-0.205
-0.185
-0.18
-0.195
-0.215
-0.22
-0.225
-0.22
-0.22
-0.23
-0.25
-0.25
-0.23
-0.215
-0.21
-0.205
-0.215
-0.215
-0.205
-0.175
-0.17
-0.195
-0.205
-0.215
-0.2
-0.18
-0.185
-0.195
-0.205
-0.21
-0.21
-0.185
-0.175
-0.185
-0.19
-0.205
-0.205
-0.2
-0.205
-0.2
-0.205
-0.195
-0.19
-0.185
-0.195
-0.19
-0.195
-0.22
-0.21
-0.205
-0.195
-0.19
-0.185
-0.205
-0.19
-0.195
-0.215
-0.23
-0.22
-0.17
-0.085
0.04
0.15
0.28
0.37
0.525
0.685
0.815
0.94
0.98
0.99
0.915
0.84
0.73
0.565
0.345
0.125
-0.045
-0.13
-0.18
-0.225
-0.28
-0.32
-0.34
-0.355
-0.355
-0.36
-0.375
-0.39
-0.395
-0.4
-0.415
-0.41
-0.42
-0.445
-0.44
-0.435
-0.415
-0.42
-0.42
-0.415
-0.41
-0.41
-0.4
-0.395
-0.405
-0.41
-0.42
-0.395
-0.385
-0.385
-0.405
-0.415
-0.425
-0.42
-0.4
-0.385
-0.405
-0.42
-0.42
-0.415
-0.415
-0.415
-0.415
-0.43
-0.445
-0.435
-0.435
-0.415
-0.42
-0.45
-0.455
-0.44
-0.43
-0.43
-0.425
-0.43
-0.445
-0.42
-0.425
-0.42
-0.41
-0.43
-0.42
-0.385
-0.375
-0.37
-0.385
-0.395
-0.375
-0.375
-0.345
-0.34
-0.335
-0.325
-0.33
-0.305
-0.285
-0.27
-0.27
-0.28
-0.29
-0.275
-0.265
-0.255
-0.265
-0.265
-0.275
-0.28
-0.255
-0.26
-0.265
-0.27
-0.275
-0.27
-0.255
-0.25
-0.25
-0.265
-0.26
-0.255
-0.26
-0.265
-0.28
-0.285
-0.27
-0.28
-0.26
-0.265
-0.275
-0.29
-0.285
-0.285
-0.29
-0.295
-0.305
-0.3
-0.305
-0.295
-0.28
-0.28
-0.275
-0.29
-0.3
-0.3
-0.29
-0.29
-0.275
-0.285
-0.285
-0.265
-0.25
-0.245
-0.245
-0.26
-0.275
-0.265
-0.235
-0.23
-0.23
-0.24
-0.25
-0.225
-0.215
-0.2
-0.225
-0.24
-0.23
-0.23
-0.215
-0.215
-0.225
-0.24
-0.24
-0.24
-0.24
-0.245
-0.245
-0.255
-0.275
-0.265
-0.27
-0.26
-0.27
-0.285
-0.285
-0.28
-0.27
-0.27
-0.285
-0.29
-0.295
-0.275
-0.27
-0.265
-0.27
-0.275
-0.28
-0.265
-0.26
-0.26
-0.245
-0.25
-0.255
-0.24
-0.24
-0.235
-0.225
-0.24
-0.245
-0.24
-0.22
-0.225
-0.225
-0.24
-0.255
-0.24
-0.23
-0.23
-0.245
-0.245
-0.25
-0.245
-0.23
-0.225
-0.245
-0.265
-0.28
-0.27
-0.265
-0.25
-0.26
-0.27
-0.275
-0.27
-0.255
-0.235
-0.225
-0.245
-0.24
-0.255
-0.225
-0.21
-0.205
-0.205
-0.21
-0.205
-0.205
-0.19
-0.18
-0.12
-0.035
0.085
0.21
0.335
0.445
0.57
0.7
0.835
0.925
0.96
0.93
0.855
0.765
0.63
0.43
0.205
-0.015
-0.14
-0.205
-0.26
-0.29
-0.325
-0.335
-0.365
-0.39
-0.385
-0.38
-0.38
-0.385
-0.405
-0.415
-0.415
-0.405
-0.395
-0.4
-0.41
-0.43
-0.425
-0.42
-0.42
-0.445
-0.435
-0.435
-0.425
-0.425
-0.415
-0.43
-0.43
-0.44
-0.43
-0.42
-0.415
-0.425
-0.45
-0.445
-0.435
-0.43
-0.42
-0.42
-0.445
-0.45
-0.44
-0.435
-0.44
-0.44
-0.445
-0.45
-0.425
-0.415
-0.41
-0.41
-0.41
-0.41
-0.415
-0.405
-0.4
-0.39
-0.4
-0.4
-0.395
-0.39
-0.385
-0.39
-0.395
-0.385
-0.37
-0.36
-0.37
-0.37
-0.355
-0.36
-0.345
-0.32
-0.31
-0.315
-0.32
-0.33
-0.3
-0.28
-0.26
-0.285
-0.275
-0.275
-0.285
-0.275
-0.275
-0.29
-0.265
-0.27
-0.265
-0.26
-0.26
-0.27
-0.265
-0.27
-0.27
-0.265
-0.25
-0.25
-0.26
-0.265
-0.265
-0.25
-0.235
-0.25
-0.27
-0.27
-0.26
-0.265
-0.26
-0.275
-0.285
-0.29
-0.28
-0.28
-0.27
-0.28
-0.295
-0.31
-0.29
-0.29
-0.275
-0.275
-0.285
-0.285
-0.275
-0.265
-0.265
-0.26
-0.265
-0.255
-0.265
-0.25
-0.255
-0.26
-0.27
-0.265
-0.27
-0.265
-0.26
-0.275
-0.265
-0.265
-0.24
-0.22
-0.21
-0.18
-0.165
-0.14
-0.105
-0.03
0.045
0.11
0.165
0.23
0.295
0.345
0.345
0.31
0.26
0.235
0.17
0.125
0.05
-0.035
-0.12
-0.19
-0.235
-0.285
-0.32
-0.34
-0.335
-0.335
-0.315
-0.295
-0.3
-0.3
-0.335
-0.355
-0.355
-0.35
-0.34
-0.34
-0.35
-0.355
-0.345
-0.335
-0.325
-0.325
-0.335
-0.34
-0.34
-0.33
-0.32
-0.315
-0.335
-0.365
-0.365
-0.345
-0.34
-0.335
-0.35
-0.365
-0.36
-0.335
-0.335
-0.335
-0.345
-0.355
-0.35
-0.345
-0.325
-0.32
-0.32
-0.305
-0.3
-0.285
-0.28
-0.265
-0.27
-0.26
-0.25
-0.225
-0.225
-0.215
-0.215
-0.23
-0.22
-0.205
-0.185
-0.195
-0.195
-0.21
-0.19
-0.165
-0.155
-0.15
-0.18
-0.165
-0.16
-0.155
-0.16
-0.16
-0.165
-0.17
-0.185
-0.19
-0.18
-0.19
-0.205
-0.225
-0.22
-0.205
-0.215
-0.23
-0.23
-0.245
-0.25
-0.23
-0.21
-0.215
-0.235
-0.25
-0.25
-0.245
-0.235
-0.245
-0.24
-0.265
-0.265
-0.26
-0.24
-0.25
-0.26
-0.27
-0.265
-0.245
-0.23
-0.235
-0.24
-0.255
-0.26
-0.235
-0.22
-0.21
-0.22
-0.225
-0.23
-0.215
-0.195
-0.205
-0.2
-0.22
-0.21
-0.21
-0.205
-0.2
-0.2
-0.21
-0.2
-0.2
-0.195
-0.2
-0.215
-0.215
-0.205
-0.2
-0.185
-0.19
-0.205
-0.21
-0.205
-0.2
-0.19
-0.195
-0.205
-0.22
-0.235
-0.225
-0.23
-0.23
-0.23
-0.24
-0.245
-0.235
-0.225
-0.25
-0.26
-0.26
-0.26
-0.245
-0.23
-0.25
-0.26
-0.27
-0.255
-0.24
-0.215
-0.225
-0.225
-0.23
-0.225
-0.22
-0.21
-0.205
-0.21
-0.22
-0.23
-0.23
-0.215
-0.23
-0.23
-0.24
-0.225
-0.22
-0.21
-0.2
-0.205
-0.215
-0.205
-0.22
-0.21
-0.2
-0.215
-0.215
-0.22
-0.22
-0.22
-0.22
-0.235
-0.24
-0.25
-0.235
-0.235
-0.23
-0.26
-0.255
-0.255
-0.24
-0.23
-0.24
-0.235
-0.24
-0.24
-0.235
-0.21
-0.205
-0.215
-0.235
-0.22
-0.21
-0.2
-0.215
-0.215
-0.21
-0.215
-0.215
-0.21
-0.21
-0.23
-0.235
-0.24
-0.225
-0.205
-0.2
-0.2
-0.215
-0.215
-0.2
-0.2
-0.205
-0.21
-0.225
-0.22
-0.21
-0.185
-0.135
-0.08
-0.015
0.075
0.175
0.29
0.375
0.465
0.57
0.685
0.795
0.88
0.9
0.9
0.86
0.81
0.735
0.63
0.455
0.255
0.075
-0.03
-0.09
-0.14
-0.18
-0.24
-0.29
-0.295
-0.295
-0.295
-0.305
-0.335
-0.355
-0.35
-0.365
-0.38
-0.385
-0.395
-0.39
-0.405
-0.405
-0.405
-0.41
-0.425
-0.425
-0.43
-0.43
-0.42
-0.43
-0.435
-0.435
-0.43
-0.43
-0.415
-0.415
-0.435
-0.445
-0.45
-0.45
-0.445
-0.435
-0.44
-0.455
-0.46
-0.44
-0.415
-0.42
-0.425
-0.43
-0.425
-0.41
-0.4
-0.39
-0.4
-0.4
-0.415
-0.42
-0.39
-0.395
-0.39
-0.415
-0.4
-0.39
-0.385
-0.385
-0.39
-0.4
-0.395
-0.395
-0.385
-0.39
-0.4
-0.4
-0.415
-0.4
-0.385
-0.38
-0.395
-0.39
-0.385
-0.375
-0.375
-0.375
-0.38
-0.375
-0.38
-0.36
-0.36
-0.355
-0.355
-0.345
-0.34
-0.32
-0.3
-0.3
-0.3
-0.3
-0.295
-0.275
-0.275
-0.255
-0.27
-0.285
-0.26
-0.25
-0.22
-0.225
-0.235
-0.245
-0.26
-0.245
-0.235
-0.225
-0.24
-0.25
-0.255
-0.245
-0.24
-0.25
-0.255
-0.265
-0.275
-0.275
-0.255
-0.26
-0.265
-0.275
-0.28
-0.265
-0.26
-0.25
-0.265
-0.275
-0.27
-0.265
-0.25
-0.255
-0.26
-0.26
-0.285
-0.265
-0.255
-0.255
-0.255
-0.265
-0.28
-0.265
-0.24
-0.245
-0.24
-0.23
-0.24
-0.23
-0.225
-0.245
-0.24
-0.225
-0.23
-0.23
-0.22
-0.22
-0.23
-0.24
-0.265
-0.25
-0.24
-0.25
-0.24
-0.255
-0.255
-0.25
-0.245
-0.24
-0.245
-0.245
-0.255
-0.24
-0.235
-0.225
-0.225
-0.24
-0.245
-0.23
-0.23
-0.245
-0.24
-0.24
-0.245
-0.225
-0.225
-0.23
-0.23
-0.23
-0.235
-0.22
-0.22
-0.21
-0.23
-0.23
-0.21
-0.205
-0.185
-0.19
-0.215
-0.235
-0.23
-0.21
-0.145
-0.06
0.025
0.135
0.255
0.4
0.555
0.695
0.81
0.895
0.95
0.945
0.915
0.8
0.675
0.495
0.3
0.095
-0.045
-0.12
-0.19
-0.245
-0.3
-0.32
-0.305
-0.33
-0.335
-0.355
-0.365
-0.365
-0.355
-0.355
-0.365
-0.37
-0.385
-0.36
-0.355
-0.36
-0.365
-0.38
-0.39
-0.375
-0.375
-0.385
-0.41
-0.415
-0.42
-0.405
-0.395
-0.395
-0.41
-0.42
-0.425
-0.425
-0.415
-0.41
-0.42
-0.43
-0.445
-0.43
-0.435
-0.425
-0.44
-0.435
-0.43
-0.42
-0.41
-0.415
-0.43
-0.44
-0.435
-0.43
-0.41
-0.415
-0.42
-0.42
-0.43
-0.41
-0.39
-0.375
-0.4
-0.42
-0.41
-0.375
-0.355
-0.36
-0.345
-0.36
-0.365
-0.335
-0.33
-0.315
-0.31
-0.31
-0.315
-0.315
-0.295
-0.285
-0.29
-0.285
-0.3
-0.27
-0.265
-0.275
-0.265
-0.27
-0.28
-0.27
-0.245
-0.245
-0.245
-0.255
-0.265
-0.27
-0.245
-0.26
-0.26
-0.255
-0.26
-0.26
-0.245
-0.245
-0.245
-0.245
-0.24
-0.22
-0.21
-0.21
-0.21
-0.23
-0.24
-0.205
-0.185
-0.19
-0.2
-0.2
-0.215
-0.195
-0.205
-0.18
-0.195
-0.215
-0.215
-0.21
-0.19
-0.18
-0.195
-0.205
-0.205
-0.2
-0.185
-0.19
-0.2
-0.21
-0.22
-0.2
-0.2
-0.19
-0.2
-0.22
-0.225
-0.225
-0.21
-0.19
-0.195
-0.215
-0.215
-0.215
-0.195
-0.185
-0.18
-0.18
-0.18
-0.18
-0.16
-0.165
-0.165
-0.185
-0.18
-0.155
-0.16
-0.16
-0.17
-0.19
-0.19
-0.165
-0.165
-0.18
-0.175
-0.2
-0.195
-0.19
-0.19
-0.18
-0.195
-0.195
-0.195
-0.195
-0.19
-0.19
-0.195
-0.205
-0.225
-0.215
-0.215
-0.22
-0.205
-0.21
-0.21
-0.195
-0.195
-0.195
-0.2
-0.205
-0.2
-0.18
-0.17
-0.17
-0.175
-0.185
-0.19
-0.185
-0.155
-0.16
-0.16
-0.185
-0.19
-0.18
-0.175
-0.185
-0.195
-0.205
-0.19
-0.19
-0.19
-0.19
-0.18
-0.2
-0.19
-0.18
-0.175
-0.18
-0.19
-0.195
-0.195
-0.185
-0.175
-0.155
-0.19
-0.2
-0.195
-0.185
-0.18
-0.165
-0.18
-0.19
-0.195
-0.18
-0.175
-0.17
-0.185
-0.205
-0.185
-0.175
-0.155
-0.165
-0.165
-0.17
-0.18
-0.17
-0.155
-0.16
-0.17
-0.165
-0.185
-0.185
-0.175
-0.16
-0.165
-0.165
-0.17
-0.185
-0.17
-0.16
-0.11
-0.07
0.045
0.185
0.305
0.46
0.595
0.73
0.86
0.965
1.01
1.0
0.945
0.855
0.7
0.495
0.235
0.045
-0.075
-0.125
-0.185
-0.24
-0.25
-0.25
-0.26
-0.285
-0.31
-0.31
-0.305
-0.315
-0.315
-0.315
-0.33
-0.34
-0.32
-0.32
-0.33
-0.345
-0.365
-0.36
-0.36
-0.36
-0.375
-0.385
-0.395
-0.395
-0.385
-0.38
-0.38
-0.405
-0.38
-0.375
-0.375
-0.38
-0.385
-0.395
-0.385
-0.38
-0.36
-0.37
-0.375
-0.38
-0.37
-0.38
-0.36
-0.35
-0.36
-0.365
-0.375
-0.35
-0.335
-0.335
-0.335
-0.345
-0.335
-0.34
-0.315
-0.31
-0.315
-0.32
-0.335
-0.32
-0.315
-0.315
-0.32
-0.315
-0.305
-0.295
-0.28
-0.27
-0.26
-0.26
-0.26
-0.25
-0.23
-0.245
-0.235
-0.24
-0.225
-0.21
-0.215
-0.21
-0.22
-0.22
-0.225
-0.195
-0.185
-0.195
-0.19
-0.185
-0.19
-0.175
-0.17
-0.17
-0.17
-0.185
-0.195
-0.175
-0.175
-0.17
-0.175
-0.195
-0.2
-0.205
-0.205
-0.19
-0.21
-0.21
-0.22
-0.215
-0.205
-0.2
-0.2
-0.215
-0.22
-0.21
-0.2
-0.195
-0.195
-0.205
-0.215
-0.215
-0.19
-0.19
-0.19
-0.205
-0.21
-0.215
-0.195
-0.19
-0.195
-0.205
-0.2
-0.19
-0.185
-0.17
-0.175
-0.185
-0.18
-0.165
-0.16
-0.165
-0.17
-0.17
-0.19
-0.185
-0.175
-0.17
-0.17
-0.19
-0.18
-0.19
-0.17
-0.165
-0.185
-0.18
-0.195
-0.185
-0.165
-0.155
-0.175
-0.185
-0.19
-0.195
-0.19
-0.195
-0.215
-0.21
-0.22
-0.21
-0.205
-0.2
-0.205
-0.21
-0.22
-0.2
-0.19
-0.2
-0.195
-0.195
-0.195
-0.185
-0.18
-0.18
-0.18
-0.2
-0.205
-0.185
-0.18
-0.175
-0.185
-0.18
-0.185
-0.19
-0.185
-0.165
-0.175
-0.185
-0.185
-0.175
-0.175
-0.18
-0.18
-0.195
-0.195
-0.205
-0.2
-0.18
-0.2
-0.2
-0.2
-0.215
-0.215
-0.195
-0.195
-0.195
-0.195
-0.195
-0.2
-0.195
-0.195
-0.2
-0.19
-0.195
-0.18
-0.17
-0.185
-0.18
-0.185
-0.17
-0.16
-0.15
-0.14
-0.155
-0.16
-0.15
-0.145
-0.135
-0.135
-0.165
-0.155
-0.155
-0.155
-0.155
-0.155
-0.175
-0.145
-0.1
-0.005
0.11
0.245
0.36
0.48
0.625
0.775
0.915
0.98
0.985
0.95
0.895
0.8
0.645
0.445
0.205
0.015
-0.06
-0.095
-0.145
-0.205
-0.245
-0.255
-0.265
-0.27
-0.28
-0.29
-0.315
-0.315
-0.325
-0.31
-0.29
-0.31
-0.315
-0.34
-0.33
-0.335
-0.305
-0.33
-0.345
-0.355
-0.355
-0.37
-0.355
-0.35
-0.365
-0.385
-0.375
-0.365
-0.36
-0.365
-0.38
-0.385
-0.37
-0.37
-0.37
-0.355
-0.36
-0.365
-0.345
-0.345
-0.33
-0.335
-0.355
-0.355
-0.35
-0.325
-0.315
-0.32
-0.335
-0.345
-0.35
-0.34
-0.33
-0.335
-0.355
-0.38
-0.35
-0.34
-0.33
-0.345
-0.35
-0.365
-0.355
-0.335
-0.335
-0.325
-0.33
-0.32
-0.32
-0.295
-0.275
-0.285
-0.28
-0.27
-0.26
-0.245
-0.23
-0.23
-0.235
-0.25
-0.23
-0.24
-0.215
-0.235
-0.27
-0.26
-0.255
-0.25
-0.235
-0.245
-0.235
-0.25
-0.245
-0.22
-0.21
-0.22
-0.225
-0.245
-0.235
-0.225
-0.22
-0.215
-0.23
-0.245
-0.24
-0.25
-0.235
-0.24
-0.24
-0.245
-0.23
-0.22
-0.22
-0.22
-0.225
-0.225
-0.225
-0.215
-0.21
-0.205
-0.22
-0.23
-0.225
-0.205
-0.2
-0.195
-0.225
-0.22
-0.22
-0.205
-0.2
-0.205
-0.2
-0.21
-0.21
-0.21
-0.205
-0.215
-0.225
-0.22
-0.23
-0.215
-0.21
-0.21
-0.235
-0.245
-0.225
-0.22
-0.21
-0.215
-0.24
-0.24
-0.235
-0.225
-0.215
-0.22
-0.225
-0.225
-0.215
-0.195
-0.18
-0.2
-0.21
-0.21
-0.205
-0.195
-0.195
-0.185
-0.185
-0.21
-0.2
-0.19
-0.185
-0.195
-0.195
-0.2
-0.205
-0.205
-0.205
-0.195
-0.21
-0.225
-0.21
-0.19
-0.195
-0.205
-0.215
-0.22
-0.23
-0.215
-0.205
-0.21
-0.23
-0.24
-0.225
-0.215
-0.2
-0.2
-0.215
-0.23
-0.22
-0.21
-0.19
-0.185
-0.2
-0.22
-0.22
-0.205
-0.195
-0.19
-0.19
-0.195
-0.19
-0.18
-0.185
-0.17
-0.2
-0.21
-0.2
-0.2
-0.2
-0.205
-0.19
-0.2
-0.215
-0.195
-0.195
-0.205
-0.195
-0.205
-0.205
-0.19
-0.19
-0.195
-0.205
-0.21
-0.2
-0.18
-0.17
-0.175
-0.18
-0.2
-0.185
-0.17
-0.165
-0.165
-0.175
-0.18
-0.165
-0.16
-0.155
-0.15
-0.17
-0.175
-0.19
-0.165
-0.15
-0.09
-0.005
0.095
0.24
0.375
0.505
0.65
0.795
0.89
0.965
0.995
0.96
0.89
0.785
0.635
0.42
0.17
-0.02
-0.095
-0.13
-0.19
-0.25
-0.26
-0.26
-0.275
-0.285
-0.3
-0.3
-0.295
-0.3
-0.3
-0.32
-0.33
-0.33
-0.315
-0.315
-0.325
-0.345
-0.355
-0.345
-0.345
-0.335
-0.355
-0.365
-0.38
-0.385
-0.375
-0.37
-0.37
-0.4
-0.395
-0.4
-0.37
-0.365
-0.37
-0.385
-0.39
-0.375
-0.365
-0.355
-0.345
-0.34
-0.345
-0.34
-0.33
-0.325
-0.34
-0.34
-0.35
-0.36
-0.335
-0.32
-0.335
-0.34
-0.34
-0.32
-0.315
-0.31
-0.315
-0.33
-0.335
-0.315
-0.305
-0.295
-0.305
-0.31
-0.32
-0.31
-0.295
-0.285
-0.28
-0.285
-0.305
-0.29
-0.26
-0.245
-0.24
-0.245
-0.24
-0.225
-0.205
-0.195
-0.195
-0.2
-0.195
-0.2
-0.2
-0.195
-0.19
-0.185
-0.2
-0.18
-0.17
-0.145
-0.17
-0.155
-0.16
-0.16
-0.155
-0.155
-0.16
-0.195
-0.185
-0.195
-0.18
-0.17
-0.18
-0.195
-0.205
-0.205
-0.195
-0.185
-0.19
-0.195
-0.21
-0.19
-0.185
-0.165
-0.165
-0.17
-0.17
-0.175
-0.17
-0.16
-0.165
-0.17
-0.165
-0.16
-0.15
-0.14
-0.135
-0.15
-0.145
-0.145
-0.135
-0.115
-0.145
-0.15
-0.14
-0.12
-0.12
-0.12
-0.12
-0.155
-0.16
-0.16
-0.15
-0.14
-0.155
-0.17
-0.17
-0.165
-0.155
-0.15
-0.145
-0.16
-0.155
