Lead II
-0.47
-0.465
-0.455
-0.445
-0.45
-0.455
-0.485
-0.475
-0.465
-0.45
-0.465
-0.47
-0.465
-0.47
-0.45
-0.445
-0.45
-0.465
-0.455
-0.45
-0.415
-0.4
-0.365
-0.37
-0.37
-0.375
-0.355
-0.335
-0.335
-0.345
-0.34
-0.315
-0.305
-0.275
-0.29
-0.305
-0.315
-0.31
-0.29
-0.28
-0.285
-0.29
-0.3
-0.295
-0.275
-0.255
-0.27
-0.26
-0.275
-0.285
-0.255
-0.245
-0.245
-0.275
-0.3
-0.305
-0.295
-0.29
-0.31
-0.315
-0.335
-0.365
-0.355
-0.345
-0.36
-0.385
-0.4
-0.395
-0.39
-0.38
-0.395
-0.385
-0.41
-0.42
-0.405
-0.405
-0.405
-0.41
-0.425
-0.415
-0.41
-0.395
-0.395
-0.41
-0.435
-0.43
-0.415
-0.395
-0.385
-0.39
-0.395
-0.395
-0.385
-0.365
-0.375
-0.375
-0.375
-0.385
-0.375
-0.36
-0.38
-0.39
-0.39
-0.4
-0.385
-0.385
-0.39
-0.39
-0.4
-0.395
-0.39
-0.375
-0.395
-0.41
-0.405
-0.41
-0.41
-0.385
-0.39
-0.41
-0.415
-0.41
-0.395
-0.375
-0.38
-0.4
-0.41
-0.4
-0.385
-0.37
-0.375
-0.385
-0.395
-0.385
-0.37
-0.35
-0.36
-0.36
-0.39
-0.39
-0.375
-0.355
-0.365
-0.37
-0.365
-0.375
-0.355
-0.33
-0.36
-0.355
-0.375
-0.38
-0.365
-0.355
-0.365
-0.375
-0.4
-0.405
-0.38
-0.36
-0.36
-0.34
-0.335
-0.33
-0.305
-0.285
-0.3
-0.315
-0.325
-0.33
-0.315
-0.31
-0.32
-0.32
-0.345
-0.355
-0.34
-0.345
-0.345
-0.345
-0.355
-0.355
-0.34
-0.325
-0.33
-0.35
-0.36
-0.37
-0.35
-0.33
-0.32
-0.325
-0.34
-0.34
-0.315
-0.305
-0.295
-0.32
-0.335
-0.35
-0.305
-0.295
-0.295
-0.32
-0.335
-0.345
-0.33
-0.315
-0.315
-0.34
-0.35
-0.355
-0.355
-0.335
-0.34
-0.36
-0.365
-0.38
-0.36
-0.34
-0.345
-0.345
-0.37
-0.38
-0.355
-0.35
-0.36
-0.35
-0.365
-0.38
-0.37
-0.35
-0.36
-0.37
-0.38
-0.4
-0.38
-0.35
-0.355
-0.35
-0.35
-0.34
-0.315
-0.285
-0.27
-0.27
-0.275
-0.26
-0.245
-0.215
-0.18
-0.16
-0.135
-0.115
-0.05
0.035
0.145
0.245
0.36
0.495
0.66
0.82
0.945
1.07
1.165
1.27
1.305
1.275
1.11
0.895
0.63
0.37
0.165
0.015
-0.1
-0.185
-0.255
-0.285
-0.26
-0.245
-0.27
-0.305
-0.335
-0.355
-0.36
-0.365
-0.38
-0.385
-0.41
-0.415
-0.42
-0.41
-0.42
-0.43
-0.45
-0.455
-0.465
-0.435
-0.435
-0.46
-0.465
-0.47
-0.465
-0.425
-0.425
-0.425
-0.425
-0.425
-0.41
-0.405
-0.395
-0.385
-0.38
-0.36
-0.33
-0.315
-0.31
-0.325
-0.32
-0.295
-0.285
-0.26
-0.26
-0.27
-0.28
-0.28
-0.28
-0.25
-0.255
-0.275
-0.285
-0.285
-0.27
-0.26
-0.27
-0.29
-0.28
-0.28
-0.255
-0.24
-0.25
-0.27
-0.27
-0.27
-0.27
-0.26
-0.25
-0.26
-0.27
-0.255
-0.255
-0.255
-0.265
-0.27
-0.285
-0.275
-0.3
-0.28
-0.305
-0.305
-0.31
-0.305
-0.285
-0.27
-0.26
-0.265
-0.285
-0.28
-0.265
-0.265
-0.26
-0.27
-0.285
-0.295
-0.285
-0.265
-0.285
-0.29
-0.32
-0.305
-0.31
-0.28
-0.285
-0.29
-0.29
-0.275
-0.275
-0.275
-0.27
-0.275
-0.275
-0.285
-0.28
-0.265
-0.29
-0.29
-0.31
-0.3
-0.3
-0.285
-0.29
-0.305
-0.31
-0.305
-0.305
-0.29
-0.305
-0.315
-0.315
-0.315
-0.3
-0.295
-0.285
-0.295
-0.305
-0.31
-0.3
-0.275
-0.28
-0.29
-0.29
-0.275
-0.255
-0.24
-0.245
-0.245
-0.265
-0.245
-0.23
-0.2
-0.205
-0.215
-0.23
-0.225
-0.22
-0.225
-0.225
-0.25
-0.255
-0.26
-0.255
-0.235
-0.22
-0.225
-0.225
-0.225
-0.195
-0.195
-0.19
-0.215
-0.22
-0.22
-0.21
-0.21
-0.205
-0.225
-0.24
-0.24
-0.24
-0.22
-0.23
-0.245
-0.26
-0.25
-0.25
-0.24
-0.245
-0.255
-0.275
-0.275
-0.265
-0.245
-0.25
-0.27
-0.29
-0.285
-0.29
-0.255
-0.265
-0.26
-0.27
-0.255
-0.26
-0.23
-0.23
-0.24
-0.25
-0.245
-0.22
-0.205
-0.19
-0.2
-0.21
-0.21
-0.195
-0.17
-0.17
-0.16
-0.15
-0.11
-0.06
0.005
0.095
0.2
0.32
0.455
0.625
0.815
0.98
1.13
1.26
1.385
1.485
1.505
1.415
1.235
0.985
0.705
0.445
0.215
0.025
-0.105
-0.225
-0.265
-0.27
-0.24
-0.23
-0.255
-0.275
-0.305
-0.31
-0.315
-0.32
-0.34
-0.355
-0.36
-0.345
-0.34
-0.345
-0.345
-0.365
-0.35
-0.345
-0.32
-0.32
-0.35
-0.36
-0.365
-0.36
-0.335
-0.33
-0.345
-0.35
-0.35
-0.345
-0.315
-0.33
-0.35
-0.36
-0.365
-0.35
-0.335
-0.345
-0.345
-0.35
-0.35
-0.34
-0.34
-0.34
-0.335
-0.36
-0.355
-0.34
-0.33
-0.325
-0.345
-0.355
-0.37
-0.335
-0.33
-0.325
-0.325
-0.325
-0.315
-0.305
-0.27
-0.275
-0.285
-0.295
-0.28
-0.28
-0.255
-0.26
-0.26
-0.27
-0.25
-0.24
-0.235
-0.215
-0.25
-0.245
-0.235
-0.24
-0.215
-0.21
-0.23
-0.255
-0.275
-0.265
-0.25
-0.255
-0.275
-0.29
-0.285
-0.285
-0.295
-0.29
-0.305
-0.325
-0.33
-0.335
-0.33
-0.325
-0.34
-0.35
-0.36
-0.35
-0.355
-0.34
-0.355
-0.37
-0.37
-0.375
-0.35
-0.36
-0.36
-0.385
-0.38
-0.37
-0.34
-0.345
-0.365
-0.38
-0.365
-0.37
-0.355
-0.335
-0.345
-0.355
-0.35
-0.335
-0.32
-0.31
-0.315
-0.315
-0.315
-0.285
-0.26
-0.265
-0.26
-0.27
-0.24
-0.22
-0.225
-0.21
-0.23
-0.24
-0.225
-0.205
-0.22
-0.215
-0.22
-0.23
-0.235
-0.215
-0.225
-0.235
-0.26
-0.29
-0.28
-0.285
-0.26
-0.265
-0.28
-0.29
-0.285
-0.265
-0.25
-0.25
-0.255
-0.24
-0.21
-0.17
-0.135
-0.105
-0.045
0.045
0.16
0.285
0.41
0.545
0.69
0.82
0.945
1.08
1.195
1.25
1.255
1.155
1.04
0.87
0.645
0.41
0.23
0.095
-0.01
-0.08
-0.13
-0.17
-0.175
-0.19
-0.2
-0.21
-0.22
-0.23
-0.255
-0.29
-0.295
-0.285
-0.28
-0.285
-0.315
-0.345
-0.325
-0.33
-0.325
-0.35
-0.36
-0.38
-0.4
-0.405
-0.39
-0.385
-0.415
-0.42
-0.42
-0.415
-0.41
-0.41
-0.425
-0.435
-0.435
-0.445
-0.41
-0.42
-0.425
-0.445
-0.435
-0.415
-0.4
-0.42
-0.415
-0.435
-0.425
-0.405
-0.4
-0.38
-0.38
-0.395
-0.385
-0.375
-0.355
-0.355
-0.355
-0.36
-0.355
-0.3
-0.28
-0.255
-0.255
-0.255
-0.245
-0.22
-0.19
-0.18
-0.17
-0.185
-0.175
-0.15
-0.135
-0.13
-0.145
-0.165
-0.175
-0.16
-0.155
-0.17
-0.195
-0.21
-0.225
-0.23
-0.23
-0.255
-0.265
-0.305
-0.31
-0.3
-0.29
-0.31
-0.32
-0.35
-0.355
-0.355
-0.345
-0.35
-0.385
-0.365
-0.37
-0.36
-0.355
-0.355
-0.39
-0.385
-0.385
-0.38
-0.38
-0.39
-0.41
-0.415
-0.405
-0.405
-0.39
-0.395
-0.405
-0.415
-0.405
-0.385
-0.385
-0.38
-0.385
-0.375
-0.375
-0.335
-0.305
-0.3
-0.3
-0.31
-0.295
-0.27
-0.27
-0.27
-0.275
-0.28
-0.275
-0.255
-0.235
-0.24
-0.26
-0.28
-0.27
-0.26
-0.245
-0.26
-0.275
-0.295
-0.29
-0.285
-0.275
-0.285
-0.3
-0.315
-0.315
-0.32
-0.305
-0.305
-0.325
-0.335
-0.335
-0.325
-0.31
-0.315
-0.33
-0.34
-0.34
-0.32
-0.315
-0.32
-0.34
-0.35
-0.35
-0.33
-0.315
-0.315
-0.32
-0.335
-0.325
-0.32
-0.29
-0.305
-0.32
-0.335
-0.33
-0.315
-0.32
-0.325
-0.33
-0.35
-0.345
-0.335
-0.31
-0.315
-0.325
-0.335
-0.315
-0.295
-0.255
-0.255
-0.275
-0.275
-0.265
-0.245
-0.22
-0.225
-0.235
-0.25
-0.27
-0.27
-0.255
-0.25
-0.265
-0.28
-0.285
-0.285
-0.265
-0.27
-0.31
-0.31
-0.32
-0.31
-0.305
-0.31
-0.325
-0.335
-0.335
-0.325
-0.31
-0.315
-0.325
-0.345
-0.345
-0.34
-0.32
-0.33
-0.335
-0.355
-0.35
-0.33
-0.32
-0.34
-0.31
-0.33
-0.325
-0.31
-0.285
-0.29
-0.3
-0.305
-0.31
-0.295
-0.29
-0.28
-0.29
-0.295
-0.295
-0.285
-0.275
-0.28
-0.3
-0.305
-0.295
-0.29
-0.27
-0.26
-0.265
-0.275
-0.27
-0.26
-0.24
-0.24
-0.25
-0.28
-0.255
-0.255
-0.25
-0.265
-0.27
-0.285
-0.295
-0.29
-0.275
-0.275
-0.295
-0.305
-0.32
-0.3
-0.305
-0.32
-0.35
-0.34
-0.335
-0.33
-0.32
-0.335
-0.34
-0.36
-0.365
-0.35
-0.325
-0.325
-0.335
-0.36
-0.345
-0.325
-0.325
-0.315
-0.33
-0.345
-0.35
-0.32
-0.31
-0.3
-0.325
-0.325
-0.31
-0.3
-0.27
-0.27
-0.285
-0.295
-0.3
-0.27
-0.27
-0.265
-0.285
-0.295
-0.295
-0.275
-0.28
-0.26
-0.275
-0.295
-0.285
-0.265
-0.24
-0.23
-0.24
-0.25
-0.25
-0.245
-0.23
-0.245
-0.26
-0.265
-0.26
-0.25
-0.24
-0.24
-0.26
-0.26
-0.26
-0.25
-0.25
-0.24
-0.245
-0.25
-0.24
-0.22
-0.2
-0.165
-0.155
-0.14
-0.095
-0.015
0.11
0.215
0.34
0.455
0.6
0.77
0.91
1.05
1.175
1.275
1.325
1.295
1.175
0.965
0.69
0.44
0.22
0.08
-0.04
-0.135
-0.19
-0.22
-0.21
-0.2
-0.195
-0.23
-0.25
-0.275
-0.29
-0.275
-0.28
-0.285
-0.315
-0.335
-0.35
-0.33
-0.33
-0.34
-0.365
-0.385
-0.38
-0.385
-0.37
-0.39
-0.395
-0.405
-0.405
-0.385
-0.39
-0.38
-0.405
-0.415
-0.41
-0.385
-0.38
-0.395
-0.39
-0.405
-0.39
-0.375
-0.37
-0.365
-0.365
-0.375
-0.37
-0.355
-0.34
-0.34
-0.34
-0.345
-0.325
-0.31
-0.295
-0.29
-0.315
-0.31
-0.305
-0.27
-0.245
-0.255
-0.25
-0.235
-0.22
-0.19
-0.165
-0.18
-0.215
-0.225
-0.22
-0.21
-0.185
-0.185
-0.2
-0.22
-0.22
-0.215
-0.195
-0.21
-0.24
-0.245
-0.255
-0.255
-0.25
-0.245
-0.27
-0.29
-0.29
-0.29
-0.29
-0.29
-0.31
-0.325
-0.33
-0.315
-0.325
-0.325
-0.33
-0.34
-0.335
-0.315
-0.29
-0.315
-0.325
-0.32
-0.325
-0.305
-0.32
-0.3
-0.31
-0.31
-0.305
-0.3
-0.275
-0.265
-0.26
-0.255
-0.245
-0.235
-0.23
-0.245
-0.27
-0.28
-0.27
-0.255
-0.26
-0.265
-0.265
-0.28
-0.28
-0.26
-0.26
-0.27
-0.285
-0.29
-0.285
-0.285
-0.28
-0.295
-0.305
-0.29
-0.3
-0.275
-0.275
-0.285
-0.305
-0.305
-0.315
-0.3
-0.275
-0.29
-0.31
-0.315
-0.31
-0.305
-0.29
-0.28
-0.285
-0.3
-0.305
-0.285
-0.27
-0.285
-0.29
-0.305
-0.295
-0.295
-0.27
-0.245
-0.235
-0.24
-0.225
-0.2
-0.185
-0.195
-0.205
-0.22
-0.22
-0.21
-0.2
-0.2
-0.215
-0.225
-0.235
-0.235
-0.21
-0.225
-0.245
-0.24
-0.245
-0.23
-0.22
-0.23
-0.245
-0.27
-0.265
-0.255
-0.22
-0.23
-0.25
-0.275
-0.28
-0.255
-0.23
-0.23
-0.22
-0.21
-0.18
-0.13
-0.09
-0.06
-0.03
0.005
0.05
0.085
0.09
0.065
0.045
-0.015
-0.12
-0.255
-0.4
-0.585
-0.695
-0.69
-0.66
-0.63
-0.595
-0.605
-0.595
-0.62
-0.625
-0.635
-0.63
-0.645
-0.66
-0.64
-0.64
-0.625
-0.63
-0.65
-0.685
-0.69
-0.685
-0.655
-0.59
-0.535
-0.475
-0.435
-0.365
-0.3
-0.255
-0.23
-0.215
-0.195
-0.18
-0.15
-0.13
-0.13
-0.15
-0.14
-0.12
-0.095
-0.06
-0.055
-0.07
-0.07
-0.05
-0.02
0.0
0.02
0.025
0.015
0.05
0.075
0.1
0.125
0.14
0.155
0.175
0.23
0.26
0.29
0.295
0.315
0.35
0.375
0.415
0.43
0.445
0.455
0.475
0.485
0.5
0.47
0.455
0.44
0.435
0.43
0.41
0.38
0.325
0.27
0.255
0.225
0.225
0.195
0.155
0.115
0.085
0.06
0.045
0.015
-0.025
-0.07
-0.095
-0.105
-0.1
-0.13
-0.165
-0.19
-0.21
-0.205
-0.21
-0.225
-0.255
-0.275
-0.28
-0.29
-0.3
-0.295
-0.32
-0.335
-0.34
-0.325
-0.305
-0.305
-0.315
-0.34
-0.33
-0.315
-0.305
-0.305
-0.3
-0.31
-0.3
-0.29
-0.26
-0.26
-0.27
-0.295
-0.295
-0.285
-0.26
-0.265
-0.265
-0.285
-0.285
-0.275
-0.29
-0.295
-0.31
-0.31
-0.315
-0.3
-0.3
-0.305
-0.32
-0.335
-0.335
-0.33
-0.32
-0.33
-0.345
-0.36
-0.365
-0.345
-0.345
-0.345
-0.37
-0.39
-0.375
-0.375
-0.37
-0.385
-0.38
-0.385
-0.405
-0.38
-0.37
-0.355
-0.365
-0.395
-0.405
-0.37
-0.36
-0.375
-0.39
-0.385
-0.385
-0.37
-0.355
-0.36
-0.36
-0.385
-0.355
-0.36
-0.345
-0.345
-0.35
-0.365
-0.37
-0.355
-0.35
-0.35
-0.365
-0.37
-0.365
-0.345
-0.355
-0.33
-0.355
-0.35
-0.35
-0.34
-0.35
-0.335
-0.355
-0.37
-0.365
-0.355
-0.345
-0.37
-0.38
-0.37
-0.365
-0.36
-0.35
-0.365
-0.385
-0.385
-0.385
-0.365
-0.355
-0.365
-0.385
-0.38
-0.365
-0.36
-0.35
-0.355
-0.365
-0.385
-0.385
-0.36
-0.345
-0.35
-0.375
-0.37
-0.37
-0.365
-0.345
-0.355
-0.365
-0.38
-0.375
-0.36
-0.35
-0.355
-0.375
-0.385
-0.39
-0.39
-0.37
-0.385
-0.385
-0.415
-0.42
-0.395
-0.39
-0.415
-0.405
-0.4
-0.39
-0.35
-0.325
-0.335
-0.345
-0.36
-0.36
-0.35
-0.335
-0.325
-0.345
-0.365
-0.36
-0.35
-0.34
-0.325
-0.35
-0.365
-0.375
-0.37
-0.35
-0.36
-0.37
-0.38
-0.355
-0.335
-0.33
-0.325
-0.34
-0.36
-0.355
-0.345
-0.325
-0.34
-0.355
-0.365
-0.365
-0.345
-0.345
-0.35
-0.365
-0.385
-0.37
-0.375
-0.36
-0.365
-0.38
-0.39
-0.38
-0.38
-0.37
-0.39
-0.395
-0.405
-0.375
-0.37
-0.35
-0.35
-0.36
-0.35
-0.33
-0.295
-0.275
-0.255
-0.245
-0.21
-0.18
-0.135
-0.075
0.01
0.135
0.255
0.415
0.605
0.78
0.925
1.065
1.18
1.3
1.35
1.295
1.12
0.87
0.575
0.3
0.115
-0.055
-0.2
-0.3
-0.35
-0.335
-0.31
-0.29
-0.31
-0.34
-0.375
-0.39
-0.4
-0.39
-0.425
-0.43
-0.45
-0.46
-0.465
-0.445
-0.47
-0.49
-0.5
-0.485
-0.48
-0.47
-0.47
-0.485
-0.49
-0.49
-0.48
-0.465
-0.44
-0.45
-0.45
-0.435
-0.41
-0.385
-0.405
-0.415
-0.415
-0.405
-0.38
-0.36
-0.365
-0.39
-0.39
-0.39
-0.4
-0.37
-0.39
-0.405
-0.43
-0.42
-0.385
-0.385
-0.385
-0.395
-0.4
-0.4
-0.385
-0.375
-0.385
-0.385
-0.415
-0.41
-0.38
-0.365
-0.38
-0.385
-0.39
-0.385
-0.37
-0.355
-0.36
-0.37
-0.395
-0.4
-0.385
-0.38
-0.39
-0.39
-0.405
-0.4
-0.4
-0.39
-0.4
-0.405
-0.405
-0.415
-0.4
-0.39
-0.385
-0.395
-0.42
-0.405
-0.405
-0.395
-0.405
-0.41
-0.42
-0.41
-0.41
-0.385
-0.385
-0.385
-0.38
-0.385
-0.355
-0.345
-0.355
-0.355
-0.365
-0.35
-0.36
-0.35
-0.35
-0.385
-0.385
-0.385
-0.385
-0.365
-0.37
-0.37
-0.395
-0.385
-0.38
-0.36
-0.355
-0.385
-0.395
-0.375
-0.355
-0.34
-0.35
-0.365
-0.365
-0.36
-0.35
-0.34
-0.345
-0.36
-0.36
-0.35
-0.32
-0.3
-0.305
-0.325
-0.345
-0.33
-0.32
-0.325
-0.33
-0.36
-0.375
-0.38
-0.355
-0.35
-0.365
-0.385
-0.405
-0.395
-0.385
-0.39
-0.4
-0.425
-0.425
-0.425
-0.405
-0.375
-0.36
-0.335
-0.335
-0.335
-0.32
-0.315
-0.32
-0.335
-0.36
-0.34
-0.325
-0.315
-0.325
-0.355
-0.36
-0.355
-0.35
-0.35
-0.36
-0.38
-0.395
-0.385
-0.365
-0.36
-0.37
-0.38
-0.38
-0.4
-0.37
-0.335
-0.355
-0.375
-0.38
-0.37
-0.345
-0.345
-0.35
-0.345
-0.37
-0.38
-0.355
-0.355
-0.365
-0.375
-0.385
-0.375
-0.36
-0.35
-0.345
-0.355
-0.37
-0.36
-0.345
-0.33
-0.325
-0.335
-0.325
-0.335
-0.315
-0.3
-0.3
-0.3
-0.305
-0.29
-0.245
-0.19
-0.165
-0.14
-0.12
-0.03
0.095
0.245
0.375
0.515
0.67
0.83
1.005
1.135
1.24
1.3
1.29
1.2
1.045
0.84
0.57
0.31
0.11
-0.015
-0.105
-0.18
-0.25
-0.26
-0.275
-0.29
-0.315
-0.325
-0.355
-0.38
-0.415
-0.42
-0.41
-0.405
-0.395
-0.42
-0.42
-0.42
-0.41
-0.4
-0.41
-0.425
-0.43
-0.435
-0.425
-0.415
-0.42
-0.43
-0.435
-0.44
-0.44
-0.42
-0.43
-0.46
-0.46
-0.445
-0.445
-0.415
-0.405
-0.41
-0.405
-0.39
-0.37
-0.355
-0.34
-0.35
-0.35
-0.35
-0.325
-0.315
-0.32
-0.34
-0.345
-0.325
-0.31
-0.31
-0.315
-0.32
-0.32
-0.31
-0.295
-0.28
-0.305
-0.285
-0.295
-0.28
-0.26
-0.245
-0.24
-0.26
-0.27
-0.27
-0.26
-0.25
-0.275
-0.3
-0.32
-0.33
-0.33
-0.335
-0.365
-0.38
-0.38
-0.38
-0.37
-0.37
-0.385
-0.4
-0.405
-0.405
-0.39
-0.38
-0.37
-0.395
-0.385
-0.37
-0.35
-0.335
-0.355
-0.375
-0.395
-0.38
-0.375
-0.36
-0.36
-0.38
-0.405
-0.39
-0.375
-0.36
-0.375
-0.39
-0.395
-0.385
-0.375
-0.365
-0.36
-0.37
-0.375
-0.375
-0.36
-0.35
-0.345
-0.37
-0.375
-0.375
-0.375
-0.355
-0.365
-0.37
-0.385
-0.385
-0.37
-0.375
-0.375
-0.37
-0.385
-0.385
-0.365
-0.355
-0.365
-0.375
-0.385
-0.38
-0.375
-0.35
-0.355
-0.36
-0.37
-0.37
-0.36
-0.35
-0.355
-0.36
-0.375
-0.375
-0.38
-0.35
-0.355
-0.36
-0.365
-0.365
-0.335
-0.32
-0.315
-0.305
-0.29
-0.235
-0.185
-0.14
-0.12
-0.075
0.005
0.135
0.25
0.395
0.53
0.675
0.81
0.925
1.04
1.15
1.17
1.105
0.95
0.75
0.53
0.305
0.09
-0.09
-0.205
-0.27
-0.305
-0.305
-0.29
-0.31
-0.34
-0.36
-0.385
-0.38
-0.39
-0.425
-0.44
-0.44
-0.43
-0.42
-0.43
-0.445
-0.46
-0.47
-0.46
-0.44
-0.445
-0.455
-0.47
-0.46
-0.46
-0.455
-0.47
-0.5
-0.485
-0.475
-0.47
-0.46
-0.44
-0.455
-0.45
-0.445
-0.415
-0.405
-0.405
-0.395
-0.41
-0.385
-0.345
-0.325
-0.325
-0.32
-0.32
-0.305
-0.28
-0.26
-0.265
-0.265
-0.27
-0.255
-0.245
-0.225
-0.22
-0.235
-0.24
-0.23
-0.215
-0.2
-0.2
-0.23
-0.235
-0.21
-0.185
-0.18
-0.175
-0.18
-0.19
-0.19
-0.195
-0.2
-0.225
-0.24
-0.255
-0.275
-0.27
-0.265
-0.28
-0.305
-0.325
-0.335
-0.33
-0.335
-0.355
-0.365
-0.385
-0.38
-0.375
-0.36
-0.385
-0.38
-0.385
-0.38
-0.385
-0.36
-0.36
-0.38
-0.39
-0.375
-0.355
-0.355
-0.345
-0.35
-0.355
-0.35
-0.345
-0.315
-0.32
-0.34
-0.355
-0.34
-0.345
-0.335
-0.34
-0.365
-0.38
-0.375
-0.36
-0.35
-0.36
-0.395
-0.39
-0.39
-0.365
-0.35
-0.37
-0.37
-0.375
-0.385
-0.36
-0.365
-0.365
-0.385
-0.38
-0.38
-0.365
-0.35
-0.36
-0.365
-0.38
-0.375
-0.36
-0.345
-0.355
-0.355
-0.385
-0.37
-0.36
-0.335
-0.34
-0.355
-0.36
-0.36
-0.35
-0.33
-0.325
-0.325
-0.335
-0.315
-0.3
-0.285
-0.285
-0.305
-0.32
-0.305
-0.275
-0.26
-0.27
-0.285
-0.3
-0.3
-0.29
-0.275
-0.285
-0.295
-0.31
-0.32
-0.305
-0.295
-0.3
-0.31
-0.32
-0.325
-0.305
-0.3
-0.305
-0.32
-0.355
-0.34
-0.33
-0.33
-0.33
-0.34
-0.35
-0.35
-0.34
-0.335
-0.33
-0.345
-0.36
-0.36
-0.345
-0.32
-0.325
-0.35
-0.355
-0.34
-0.31
-0.3
-0.295
-0.32
-0.325
-0.335
-0.315
-0.295
-0.3
-0.3
-0.32
-0.275
-0.26
-0.25
-0.265
-0.285
-0.295
-0.295
-0.29
-0.28
-0.275
-0.28
-0.31
-0.295
-0.26
-0.26
-0.26
-0.275
-0.285
-0.28
-0.27
-0.265
-0.28
-0.3
-0.32
-0.29
-0.29
-0.28
-0.29
-0.325
-0.31
-0.325
-0.31
-0.285
-0.285
-0.295
-0.315
-0.305
-0.3
-0.285
-0.29
-0.305
-0.315
-0.3
-0.29
-0.26
-0.27
-0.28
-0.295
-0.295
-0.275
-0.255
-0.28
-0.3
-0.3
-0.28
-0.265
-0.26
-0.265
-0.28
-0.295
-0.285
-0.265
-0.235
-0.235
-0.24
-0.235
-0.215
-0.19
-0.185
-0.18
-0.19
-0.2
-0.195
-0.19
-0.185
-0.185
-0.19
-0.205
-0.2
-0.18
-0.185
-0.19
-0.19
-0.195
-0.18
-0.16
-0.115
-0.075
-0.08
-0.04
0.02
0.13
0.27
0.4
0.53
0.67
0.845
0.995
1.135
1.27
1.38
1.47
1.5
1.435
1.295
1.045
0.755
0.49
0.27
0.09
-0.04
-0.175
-0.285
-0.305
-0.28
-0.26
-0.245
-0.275
-0.305
-0.33
-0.35
-0.355
-0.35
-0.365
-0.39
-0.385
-0.375
-0.36
-0.335
-0.33
-0.35
-0.345
-0.35
-0.335
-0.33
-0.33
-0.355
-0.355
-0.35
-0.35
-0.345
-0.345
-0.37
-0.38
-0.37
-0.355
-0.36
-0.36
-0.365
-0.385
-0.37
-0.365
-0.34
-0.35
-0.375
-0.385
-0.355
-0.355
-0.33
-0.345
-0.35
-0.365
-0.35
-0.33
-0.335
-0.315
-0.335
-0.34
-0.33
-0.335
-0.32
-0.32
-0.34
-0.34
-0.34
-0.33
-0.325
-0.325
-0.345
-0.355
-0.34
-0.33
-0.315
-0.31
-0.31
-0.29
-0.285
-0.27
-0.255
-0.26
-0.255
-0.25
-0.245
-0.23
-0.215
-0.23
-0.24
-0.255
-0.255
-0.235
-0.245
-0.255
-0.26
-0.285
-0.27
-0.265
-0.255
-0.275
-0.295
-0.31
-0.305
-0.295
-0.31
-0.315
-0.33
-0.345
-0.335
-0.32
-0.315
-0.335
-0.355
-0.365
-0.36
-0.34
-0.325
-0.335
-0.365
-0.365
-0.365
-0.34
-0.34
-0.34
-0.36
-0.385
-0.37
-0.35
-0.34
-0.345
-0.37
-0.365
-0.36
-0.34
-0.315
-0.32
-0.335
-0.325
-0.33
-0.305
-0.29
-0.29
-0.295
-0.29
-0.285
-0.28
-0.265
-0.265
-0.27
-0.275
-0.28
-0.26
-0.245
-0.24
-0.245
-0.23
-0.235
-0.24
-0.22
-0.23
-0.24
-0.245
-0.24
-0.24
-0.23
-0.24
-0.245
-0.265
-0.25
-0.255
-0.24
-0.245
-0.255
-0.27
-0.28
-0.265
-0.26
-0.27
-0.295
-0.29
-0.29
-0.285
-0.275
-0.285
-0.315
-0.305
-0.295
-0.295
-0.285
-0.3
-0.335
-0.35
-0.33
-0.33
-0.34
-0.325
-0.355
-0.35
-0.335
-0.305
-0.29
-0.3
-0.3
-0.31
-0.29
-0.295
-0.27
-0.27
-0.28
-0.3
-0.295
-0.305
-0.27
-0.28
-0.29
-0.29
-0.29
-0.27
-0.255
-0.26
-0.275
-0.29
-0.285
-0.255
-0.26
-0.255
-0.27
-0.28
-0.275
-0.265
-0.24
-0.26
-0.265
-0.305
-0.29
-0.29
-0.28
-0.295
-0.305
-0.315
-0.3
-0.295
-0.285
-0.295
-0.31
-0.315
-0.315
-0.305
-0.275
-0.285
-0.3
-0.285
-0.26
-0.25
-0.2
-0.175
-0.145
-0.095
0.01
0.13
0.28
0.405
0.55
0.695
0.875
1.03
1.19
1.315
1.4
1.405
1.335
1.195
1.0
0.715
0.475
0.27
0.115
0.02
-0.07
-0.12
-0.16
-0.175
-0.19
-0.2
-0.22
-0.25
-0.275
-0.305
-0.325
-0.33
-0.34
-0.345
-0.37
-0.38
-0.38
-0.375
-0.375
-0.405
-0.415
-0.435
-0.43
-0.415
-0.4
-0.415
-0.42
-0.44
-0.43
-0.415
-0.415
-0.425
-0.43
-0.43
-0.42
-0.4
-0.395
-0.4
-0.395
-0.41
-0.395
-0.365
-0.36
-0.35
-0.36
-0.36
-0.35
-0.34
-0.325
-0.32
-0.33
-0.335
-0.305
-0.285
-0.27
-0.265
-0.265
-0.27
-0.255
-0.24
-0.23
-0.24
-0.25
-0.26
-0.24
-0.24
-0.215
-0.235
-0.235
-0.23
-0.23
-0.225
-0.23
-0.22
-0.235
-0.245
-0.25
-0.235
-0.24
-0.245
-0.26
-0.28
-0.29
-0.29
-0.285
-0.31
-0.315
-0.335
-0.325
-0.31
-0.315
-0.34
-0.34
-0.35
-0.36
-0.345
-0.34
-0.345
-0.37
-0.37
-0.37
-0.365
-0.35
-0.345
-0.365
-0.365
-0.355
-0.34
-0.31
-0.305
-0.32
-0.325
-0.32
-0.3
-0.31
-0.305
-0.335
-0.325
-0.325
-0.32
-0.32
-0.335
-0.35
-0.365
-0.37
-0.355
-0.335
-0.335
-0.365
-0.38
-0.37
-0.35
-0.35
-0.345
-0.36
-0.38
-0.37
-0.35
-0.345
-0.345
-0.36
-0.365
-0.345
-0.335
-0.325
-0.33
-0.34
-0.35
-0.34
-0.315
-0.31
-0.325
-0.335
-0.325
-0.32
-0.315
-0.305
-0.31
-0.32
-0.32
-0.325
-0.31
-0.305
-0.305
-0.32
-0.315
-0.305
-0.285
-0.275
-0.255
-0.275
-0.285
-0.295
-0.29
-0.28
-0.295
-0.315
-0.315
-0.305
-0.305
-0.3
-0.31
-0.315
-0.335
-0.315
-0.315
-0.3
-0.315
-0.335
-0.34
-0.325
-0.325
-0.315
-0.31
-0.32
-0.325
-0.33
-0.315
-0.31
-0.32
-0.315
-0.335
-0.335
-0.315
-0.315
-0.325
-0.33
-0.315
-0.315
-0.3
-0.28
-0.29
-0.315
-0.32
-0.32
-0.295
-0.28
-0.305
-0.32
-0.32
-0.305
-0.305
-0.315
-0.295
-0.32
-0.335
-0.305
-0.285
-0.26
-0.275
-0.29
-0.295
-0.295
-0.285
-0.275
-0.28
-0.31
-0.31
-0.325
-0.305
-0.295
-0.285
-0.295
-0.305
-0.295
-0.295
-0.275
-0.29
-0.3
-0.3
-0.275
-0.24
-0.215
-0.205
-0.2
-0.18
-0.16
-0.075
0.015
0.115
0.22
0.33
0.475
0.63
0.78
0.9
1.025
1.13
1.245
1.34
1.355
1.275
1.14
0.935
0.69
0.46
0.275
0.115
-0.015
-0.13
-0.18
-0.21
-0.2
-0.215
-0.23
-0.26
-0.29
-0.29
-0.265
-0.29
-0.3
-0.33
-0.335
-0.35
-0.345
-0.35
-0.36
-0.37
-0.365
-0.36
-0.345
-0.355
-0.37
-0.38
-0.385
-0.38
-0.375
-0.39
-0.4
-0.41
-0.4
-0.395
-0.375
-0.39
-0.405
-0.41
-0.405
-0.39
-0.38
-0.39
-0.4
-0.405
-0.385
-0.385
-0.38
-0.38
-0.385
-0.385
-0.36
-0.35
-0.32
-0.31
-0.315
-0.305
-0.3
-0.27
-0.25
-0.25
-0.26
-0.26
-0.25
-0.23
-0.225
-0.205
-0.22
-0.215
-0.2
-0.185
-0.175
-0.19
-0.19
-0.185
-0.18
-0.16
-0.15
-0.165
-0.195
-0.22
-0.21
-0.215
-0.215
-0.225
-0.275
-0.295
-0.295
-0.285
-0.3
-0.305
-0.34
-0.35
-0.355
-0.345
-0.35
-0.37
-0.375
-0.385
-0.38
-0.365
-0.37
-0.375
-0.39
-0.41
-0.38
-0.365
-0.355
-0.355
-0.385
-0.375
-0.37
-0.36
-0.355
-0.36
-0.365
-0.365
-0.35
-0.335
-0.325
-0.345
-0.355
-0.36
-0.37
-0.36
-0.34
-0.345
-0.37
-0.375
-0.36
-0.36
-0.35
-0.365
-0.365
-0.385
-0.37
-0.34
-0.33
-0.325
-0.345
-0.35
-0.365
-0.33
-0.33
-0.36
-0.355
-0.37
-0.355
-0.345
-0.345
-0.35
-0.37
-0.365
-0.36
-0.34
-0.34
-0.345
-0.355
-0.365
-0.34
-0.325
-0.325
-0.335
-0.35
-0.345
-0.345
-0.32
-0.31
-0.31
-0.305
-0.31
-0.305
-0.285
-0.275
-0.285
-0.285
-0.285
-0.27
-0.245
-0.235
-0.24
-0.26
-0.28
-0.275
-0.26
-0.26
-0.28
-0.295
-0.305
-0.3
-0.3
-0.3
-0.295
-0.31
-0.315
-0.305
-0.325
-0.31
-0.31
-0.335
-0.345
-0.325
-0.325
-0.315
-0.325
-0.335
-0.35
-0.34
-0.345
-0.33
-0.325
-0.34
-0.34
-0.315
-0.32
-0.32
-0.325
-0.33
-0.335
-0.33
-0.325
-0.315
-0.295
-0.305
-0.3
-0.29
-0.265
-0.255
-0.245
-0.23
-0.22
-0.185
-0.135
-0.09
-0.065
0.0
0.11
0.255
0.41
0.595
0.755
0.93
1.1
1.255
1.41
1.53
1.565
1.475
1.275
1.04
0.74
0.445
0.175
-0.025
-0.18
-0.255
-0.24
-0.225
-0.2
-0.23
-0.25
-0.26
-0.285
-0.29
-0.32
-0.335
-0.38
-0.365
-0.365
-0.35
-0.36
-0.38
-0.39
-0.385
-0.38
-0.37
-0.375
-0.375
-0.38
-0.37
-0.35
-0.34
-0.35
-0.355
-0.36
-0.36
-0.34
-0.3
-0.3
-0.305
-0.305
-0.305
-0.28
-0.27
-0.28
-0.285
-0.3
-0.29
-0.265
-0.255
-0.25
-0.26
-0.275
-0.28
-0.255
-0.24
-0.22
-0.245
-0.25
-0.25
-0.225
-0.235
-0.235
-0.245
-0.25
-0.26
-0.215
-0.21
-0.205
-0.215
-0.225
-0.22
-0.21
-0.19
-0.22
-0.23
-0.225
-0.225
-0.21
-0.205
-0.235
-0.26
-0.275
-0.265
-0.25
-0.25
-0.265
-0.275
-0.295
-0.285
-0.28
-0.29
-0.295
-0.31
-0.325
-0.31
-0.275
-0.25
-0.26
-0.28
-0.29
-0.295
-0.29
-0.28
-0.295
-0.31
-0.32
-0.315
-0.295
-0.285
-0.31
-0.31
-0.33
-0.33
-0.31
-0.32
-0.32
-0.335
-0.345
-0.35
-0.34
-0.32
-0.335
-0.355
-0.37
-0.355
-0.345
-0.32
-0.325
-0.345
-0.36
-0.345
-0.33
-0.32
-0.325
-0.335
-0.325
-0.315
-0.305
-0.29
-0.3
-0.3
-0.305
-0.285
-0.26
-0.265
-0.27
-0.265
-0.27
-0.27
-0.245
-0.235
-0.225
-0.22
-0.225
-0.21
-0.21
-0.18
-0.2
-0.22
-0.225
-0.24
-0.245
-0.25
-0.255
-0.255
-0.26
-0.255
-0.25
-0.24
-0.245
-0.255
-0.275
-0.275
-0.255
-0.25
-0.25
-0.27
-0.295
-0.295
-0.28
-0.265
-0.26
-0.275
-0.26
-0.225
-0.19
-0.17
-0.17
-0.16
-0.125
-0.04
0.1
0.25
0.39
0.54
0.725
0.885
1.045
1.21
1.345
1.415
1.43
1.34
1.19
0.945
0.64
0.365
0.14
-0.02
-0.155
-0.24
-0.275
-0.265
-0.255
-0.25
-0.25
-0.265
-0.3
-0.33
-0.335
-0.335
-0.335
-0.345
-0.36
-0.385
-0.385
-0.385
-0.39
-0.37
-0.375
-0.385
-0.4
-0.4
-0.38
-0.385
-0.385
-0.4
-0.42
-0.415
-0.38
-0.38
-0.395
-0.395
-0.4
-0.39
-0.37
-0.36
-0.37
-0.38
-0.37
-0.37
-0.345
-0.335
-0.335
-0.355
-0.355
-0.33
-0.32
-0.3
-0.285
-0.305
-0.31
-0.305
-0.27
-0.26
-0.255
-0.26
-0.25
-0.225
-0.2
-0.2
-0.21
-0.21
-0.215
-0.2
-0.19
-0.18
-0.195
-0.225
-0.225
-0.23
-0.225
-0.21
-0.23
-0.25
-0.25
-0.25
-0.265
-0.26
-0.265
-0.29
-0.31
-0.305
-0.285
-0.285
-0.295
-0.315
-0.33
-0.325
-0.325
-0.335
-0.34
-0.36
-0.36
-0.375
-0.365
-0.35
-0.365
-0.385
-0.37
-0.365
-0.355
-0.345
-0.345
-0.365
-0.38
-0.37
-0.365
-0.35
-0.37
-0.365
-0.375
-0.37
-0.34
-0.355
-0.345
-0.345
-0.365
-0.36
-0.345
-0.34
-0.35
-0.36
-0.37
-0.355
-0.345
-0.315
-0.31
-0.3
-0.275
-0.235
-0.155
-0.065
0.08
0.23
