Lead II
-0.865
-0.895
-0.915
-0.94
-0.94
-0.95
-0.955
-0.965
-0.935
-0.955
-0.94
-0.93
-0.925
-0.92
-0.945
-0.955
-0.95
-0.96
-0.96
-0.955
-0.945
-0.93
-0.91
-0.925
-0.92
-0.95
-0.985
-1.015
-0.99
-0.94
-0.815
-0.605
-0.32
0.02
0.42
0.785
1.065
1.215
1.24
1.115
0.865
0.465
-0.065
-0.58
-0.94
-1.085
-1.025
-0.895
-0.74
-0.67
-0.69
-0.735
-0.79
-0.865
-0.915
-0.93
-0.94
-0.925
-0.91
-0.9
-0.905
-0.9
-0.92
-0.925
-0.935
-0.94
-0.945
-0.94
-0.935
-0.94
-0.925
-0.93
-0.925
-0.93
-0.935
-0.925
-0.945
-0.955
-0.955
-0.965
-0.975
-0.93
-0.935
-0.925
-0.92
-0.915
-0.92
-0.93
-0.935
-0.945
-0.96
-0.95
-0.94
-0.93
-0.92
-0.915
-0.915
-0.915
-0.91
-0.905
-0.915
-0.91
-0.92
-0.92
-0.895
-0.88
-0.87
-0.86
-0.84
-0.83
-0.825
-0.83
-0.83
-0.815
-0.805
-0.795
-0.785
-0.77
-0.74
-0.725
-0.71
-0.69
-0.705
-0.705
-0.69
-0.665
-0.665
-0.635
-0.615
-0.615
-0.585
-0.56
-0.53
-0.52
-0.52
-0.51
-0.505
-0.515
-0.5
-0.48
-0.465
-0.45
-0.435
-0.415
-0.405
-0.395
-0.395
-0.41
-0.42
-0.42
-0.435
-0.435
-0.44
-0.465
-0.46
-0.475
-0.505
-0.505
-0.535
-0.565
-0.585
-0.62
-0.645
-0.65
-0.665
-0.675
-0.68
-0.7
-0.695
-0.715
-0.73
-0.75
-0.775
-0.775
-0.79
-0.8
-0.795
-0.8
-0.78
-0.785
-0.8
-0.8
-0.78
-0.785
-0.81
-0.82
-0.81
-0.825
-0.82
-0.795
-0.79
-0.79
-0.785
-0.785
-0.785
-0.8
-0.8
-0.815
-0.815
-0.805
-0.805
-0.795
-0.795
-0.78
-0.77
-0.775
-0.765
-0.795
-0.785
-0.79
-0.81
-0.8
-0.79
-0.785
-0.785
-0.775
-0.765
-0.775
-0.79
-0.8
-0.805
-0.795
-0.81
-0.82
-0.82
-0.825
-0.8
-0.805
-0.79
-0.8
-0.805
-0.81
-0.815
-0.815
-0.82
-0.825
-0.83
-0.825
-0.83
-0.825
-0.82
-0.83
-0.865
-0.855
-0.85
-0.855
-0.87
-0.86
-0.85
-0.835
-0.85
-0.845
-0.835
-0.835
-0.84
-0.86
-0.855
-0.86
-0.865
-0.87
-0.87
-0.875
-0.86
-0.855
-0.855
-0.87
-0.88
-0.885
-0.88
-0.9
-0.885
-0.88
-0.885
-0.885
-0.885
-0.865
-0.87
-0.885
-0.865
-0.88
-0.88
-0.895
-0.89
-0.9
-0.9
-0.885
-0.89
-0.865
-0.85
-0.86
-0.865
-0.885
-0.895
-0.91
-0.905
-0.89
-0.895
-0.885
-0.88
-0.87
-0.87
-0.855
-0.855
-0.875
-0.885
-0.88
-0.88
-0.915
-0.875
-0.87
-0.86
-0.865
-0.84
-0.85
-0.86
-0.87
-0.885
-0.88
-0.865
-0.875
-0.855
-0.865
-0.845
-0.825
-0.795
-0.775
-0.755
-0.735
-0.735
-0.76
-0.725
-0.725
-0.695
-0.69
-0.63
-0.585
-0.545
-0.525
-0.495
-0.515
-0.52
-0.55
-0.56
-0.58
-0.58
-0.585
-0.595
-0.61
-0.645
-0.69
-0.755
-0.82
-0.86
-0.89
-0.9
-0.91
-0.9
-0.9
-0.89
-0.885
-0.875
-0.885
-0.895
-0.905
-0.925
-0.93
-0.925
-0.93
-0.915
-0.92
-0.905
-0.915
-0.885
-0.89
-0.905
-0.92
-0.925
-0.93
-0.93
-0.95
-0.98
-0.995
-0.985
-0.925
-0.82
-0.67
-0.43
-0.11
0.25
0.61
0.9
1.095
1.175
1.135
0.99
0.7
0.275
-0.245
-0.71
-1.0
-1.09
-1.0
-0.88
-0.75
-0.68
-0.685
-0.73
-0.78
-0.825
-0.87
-0.905
-0.92
-0.92
-0.915
-0.93
-0.94
-0.945
-0.93
-0.925
-0.92
-0.925
-0.95
-0.91
-0.925
-0.94
-0.93
-0.94
-0.955
-0.95
-0.945
-0.935
-0.93
-0.92
-0.945
-0.93
-0.935
-0.95
-0.955
-0.965
-0.97
-0.945
-0.93
-0.92
-0.935
-0.915
-0.91
-0.9
-0.9
-0.93
-0.935
-0.925
-0.93
-0.925
-0.935
-0.91
-0.89
-0.89
-0.88
-0.89
-0.89
-0.89
-0.885
-0.89
-0.89
-0.865
-0.84
-0.84
-0.82
-0.795
-0.805
-0.805
-0.8
-0.805
-0.795
-0.785
-0.77
-0.76
-0.72
-0.715
-0.69
-0.665
-0.67
-0.63
-0.61
-0.61
-0.6
-0.58
-0.56
-0.525
-0.52
-0.51
-0.465
-0.44
-0.43
-0.43
-0.405
-0.395
-0.41
-0.39
-0.39
-0.395
-0.385
-0.375
-0.38
-0.38
-0.395
-0.425
-0.46
-0.49
-0.53
-0.56
-0.61
-0.645
-0.645
-0.67
-0.685
-0.705
-0.725
-0.765
-0.79
-0.815
-0.83
-0.85
-0.87
-0.87
-0.88
-0.87
-0.865
-0.87
-0.885
-0.9
-0.895
-0.915
-0.92
-0.935
-0.93
-0.94
-0.915
-0.925
-0.915
-0.905
-0.91
-0.925
-0.935
-0.93
-0.92
-0.925
-0.94
-0.925
-0.905
-0.91
-0.89
-0.885
-0.87
-0.87
-0.875
-0.885
-0.91
-0.905
-0.91
-0.905
-0.885
-0.865
-0.845
-0.775
-0.685
-0.58
-0.44
-0.31
-0.155
0.005
0.175
0.36
0.6
0.815
1.055
1.29
1.48
1.65
1.77
1.865
1.92
1.96
1.955
1.945
1.925
1.885
1.815
1.745
1.685
1.62
1.59
1.61
1.61
1.575
1.51
1.425
1.285
1.15
0.995
0.82
0.595
0.3
-0.05
-0.43
-0.74
-0.955
-1.07
-1.095
-1.065
-1.05
-1.04
-1.05
-1.09
-1.14
-1.195
-1.235
-1.26
-1.265
-1.285
-1.295
-1.29
-1.315
-1.305
-1.32
-1.345
-1.355
-1.36
-1.38
-1.39
-1.39
-1.41
-1.415
-1.435
-1.425
-1.435
-1.45
-1.455
-1.48
-1.495
-1.53
-1.55
-1.555
-1.57
-1.59
-1.595
-1.6
-1.615
-1.63
-1.645
-1.675
-1.69
-1.72
-1.755
-1.765
-1.78
-1.79
-1.785
-1.785
-1.78
-1.79
-1.805
-1.85
-1.86
-1.875
-1.885
-1.88
-1.885
-1.875
-1.86
-1.855
-1.85
-1.875
-1.91
-1.93
-1.95
-1.97
-1.98
-1.99
-2.025
-2.045
-2.065
-2.065
-2.085
-2.105
-2.105
-2.085
-2.095
-2.07
-2.04
-1.995
-1.965
-1.905
-1.85
-1.785
-1.73
-1.66
-1.61
-1.55
-1.505
-1.46
-1.415
-1.37
-1.335
-1.3
-1.255
-1.215
-1.19
-1.165
-1.16
-1.155
-1.145
-1.165
-1.155
-1.15
-1.15
-1.15
-1.14
-1.14
-1.13
-1.135
-1.135
-1.135
-1.15
-1.14
-1.14
-1.15
-1.145
-1.14
-1.12
-1.12
-1.095
-1.09
-1.095
-1.105
-1.125
-1.115
-1.13
-1.135
-1.125
-1.125
-1.125
-1.1
-1.095
-1.075
-1.08
-1.07
-1.075
-1.08
-1.095
-1.09
-1.085
-1.105
-1.09
-1.075
-1.065
-1.075
-1.06
-1.06
-1.065
-1.075
-1.09
-1.09
-1.09
-1.08
-1.085
-1.07
-1.055
-1.05
-1.06
-1.065
-1.055
-1.06
-1.055
-1.06
-1.075
-1.075
-1.085
-1.07
-1.04
-1.03
-1.045
-1.04
-1.06
-1.075
-1.085
-1.085
-1.08
-1.07
-1.06
-1.055
-1.06
-1.045
-1.025
-1.035
-1.045
-1.055
-1.05
-1.05
-1.06
-1.05
-1.055
-1.03
-1.03
-1.02
-1.02
-1.025
-1.035
-1.055
-1.045
-1.055
-1.06
-1.045
-1.045
-1.04
-1.025
-1.015
-1.02
-1.02
-1.01
-1.03
-1.045
-1.045
-1.04
-1.035
-1.04
-1.025
-1.01
-1.01
-1.015
-1.01
-1.02
-1.015
-1.02
-1.03
-1.03
-1.065
-1.045
-1.035
-1.02
-1.02
-1.02
-1.0
-1.015
-1.02
-1.03
-1.035
-1.03
-1.03
-1.025
-1.01
-1.005
-0.995
-0.985
-1.005
-1.005
-1.01
-1.02
-1.025
-1.025
-1.005
-1.0
-0.985
-0.98
-0.97
-0.98
-0.99
-1.005
-1.01
-1.01
-1.01
-1.01
-1.005
-0.995
-1.0
-0.985
-0.975
-0.98
-1.0
-1.0
-1.0
-1.0
-0.995
-0.995
-0.99
-1.0
-0.98
-0.975
-0.96
-0.965
-0.965
-0.965
-0.98
-0.985
-0.975
-0.99
-0.985
-0.98
-0.98
-0.965
-0.955
-0.96
-0.975
-0.97
-0.98
-0.98
-0.99
-0.995
-0.985
-0.97
-0.955
-0.95
-0.945
-0.95
-0.965
-0.97
-0.975
-0.985
-0.98
-0.98
-0.97
-0.96
-0.945
-0.95
-0.94
-0.935
-0.93
-0.935
-0.94
-0.95
-0.94
-0.95
-0.935
-0.93
-0.925
-0.925
-0.92
-0.915
-0.935
-0.925
-0.935
-0.945
-0.935
-0.95
-0.955
-0.945
-0.935
-0.93
-0.915
-0.91
-0.915
-0.93
-0.93
-0.925
-0.93
-0.925
-0.925
-0.925
-0.935
-0.935
-0.92
-0.9
-0.925
-0.93
-0.945
-0.955
-0.945
-0.94
-0.93
-0.915
-0.905
-0.905
-0.89
-0.9
-0.89
-0.92
-0.91
-0.94
-0.935
-0.93
-0.94
-0.93
-0.92
-0.9
-0.885
-0.895
-0.9
-0.89
-0.905
-0.93
-0.95
-0.94
-0.93
-0.94
-0.91
-0.91
-0.885
-0.915
-0.91
-0.93
-0.915
-0.915
-0.92
-0.92
-0.92
-0.91
-0.9
-0.88
-0.855
-0.84
-0.835
-0.835
-0.83
-0.81
-0.805
-0.805
-0.8
-0.785
-0.77
-0.735
-0.72
-0.68
-0.655
-0.61
-0.585
-0.57
-0.56
-0.57
-0.585
-0.585
-0.59
-0.58
-0.565
-0.55
-0.59
-0.6
-0.65
-0.695
-0.755
-0.81
-0.855
-0.895
-0.91
-0.915
-0.91
-0.895
-0.895
-0.905
-0.92
-0.92
-0.945
-0.93
-0.945
-0.93
-0.93
-0.92
-0.915
-0.91
-0.92
-0.925
-0.925
-0.93
-0.925
-0.96
-0.99
-1.025
-0.985
-0.915
-0.815
-0.645
-0.415
-0.105
0.27
0.645
0.94
1.14
1.255
1.215
1.05
0.72
0.265
-0.255
-0.72
-0.99
-1.06
-0.975
-0.85
-0.755
-0.705
-0.695
-0.74
-0.815
-0.865
-0.895
-0.925
-0.915
-0.945
-0.94
-0.935
-0.95
-0.96
-0.945
-0.94
-0.95
-0.95
-0.93
-0.935
-0.935
-0.95
-0.955
-0.955
-0.965
-0.965
-0.955
-0.95
-0.95
-0.94
-0.935
-0.945
-0.945
-0.955
-0.965
-0.96
-0.97
-0.965
-0.955
-0.95
-0.945
-0.94
-0.93
-0.94
-0.94
-0.955
-0.965
-0.97
-0.96
-0.97
-0.965
-0.95
-0.93
-0.925
-0.925
-0.915
-0.945
-0.945
-0.96
-0.945
-0.925
-0.925
-0.91
-0.9
-0.885
-0.875
-0.865
-0.86
-0.87
-0.87
-0.86
-0.855
-0.86
-0.855
-0.82
-0.81
-0.79
-0.765
-0.755
-0.745
-0.73
-0.745
-0.74
-0.735
-0.725
-0.715
-0.685
-0.66
-0.655
-0.63
-0.615
-0.605
-0.585
-0.595
-0.6
-0.57
-0.57
-0.545
-0.535
-0.515
-0.5
-0.475
-0.465
-0.46
-0.45
-0.465
-0.455
-0.46
-0.45
-0.435
-0.445
-0.45
-0.46
-0.44
-0.46
-0.495
-0.51
-0.54
-0.57
-0.585
-0.615
-0.625
-0.64
-0.65
-0.685
-0.695
-0.705
-0.72
-0.745
-0.755
-0.775
-0.795
-0.805
-0.805
-0.8
-0.805
-0.805
-0.805
-0.82
-0.825
-0.82
-0.84
-0.84
-0.86
-0.865
-0.855
-0.85
-0.85
-0.83
-0.82
-0.82
-0.84
-0.83
-0.825
-0.82
-0.83
-0.85
-0.84
-0.815
-0.805
-0.79
-0.785
-0.77
-0.77
-0.775
-0.775
-0.795
-0.81
-0.815
-0.825
-0.82
-0.825
-0.805
-0.79
-0.745
-0.7
-0.605
-0.505
-0.4
-0.27
-0.115
0.05
0.245
0.45
0.675
0.92
1.15
1.37
1.565
1.72
1.87
1.97
2.02
2.055
2.07
2.055
2.015
1.945
1.855
1.755
1.695
1.655
1.66
1.67
1.69
1.655
1.61
1.495
1.345
1.17
0.97
0.715
0.42
0.07
-0.3
-0.64
-0.875
-1.015
-1.04
-1.01
-0.985
-0.985
-0.99
-1.035
-1.07
-1.14
-1.195
-1.225
-1.235
-1.26
-1.27
-1.255
-1.275
-1.27
-1.29
-1.31
-1.305
-1.32
-1.34
-1.35
-1.36
-1.38
-1.375
-1.39
-1.38
-1.395
-1.42
-1.42
-1.44
-1.45
-1.46
-1.505
-1.52
-1.525
-1.53
-1.535
-1.545
-1.555
-1.565
-1.61
-1.615
-1.635
-1.66
-1.68
-1.715
-1.735
-1.75
-1.76
-1.785
-1.8
-1.815
-1.83
-1.86
-1.895
-1.93
-1.955
-1.96
-1.975
-1.975
-1.97
-1.975
-1.98
-1.995
-1.995
-2.0
-2.01
-2.01
-1.985
-1.975
-1.95
-1.935
-1.92
-1.92
-1.905
-1.89
-1.865
-1.855
-1.865
-1.83
-1.835
-1.84
-1.835
-1.82
-1.78
-1.73
-1.7
-1.65
-1.6
-1.54
-1.49
-1.46
-1.42
-1.385
-1.325
-1.29
-1.265
-1.22
-1.195
-1.17
-1.155
-1.14
-1.135
-1.15
-1.155
-1.155
-1.135
-1.14
-1.12
-1.12
-1.11
-1.105
-1.1
-1.12
-1.115
-1.13
-1.14
-1.145
-1.13
-1.13
-1.11
-1.105
-1.11
-1.095
-1.105
-1.095
-1.11
-1.125
-1.12
-1.125
-1.115
-1.12
-1.1
-1.085
-1.085
-1.08
-1.09
-1.065
-1.09
-1.09
-1.08
-1.09
-1.085
-1.07
-1.065
-1.065
-1.045
-1.055
-1.055
-1.06
-1.065
-1.06
-1.07
-1.075
-1.075
-1.07
-1.055
-1.055
-1.045
-1.035
-1.04
-1.045
-1.06
-1.07
-1.085
-1.085
-1.05
-1.055
-1.065
-1.065
-1.025
-1.025
-1.04
-1.035
-1.065
-1.05
-1.075
-1.06
-1.06
-1.06
-1.04
-1.025
-1.04
-1.035
-1.035
-1.025
-1.05
-1.045
-1.055
-1.05
-1.05
-1.045
-1.04
-1.05
-1.02
-1.02
-1.025
-1.01
-1.045
-1.05
-1.065
-1.06
-1.045
-1.055
-1.035
-1.035
-1.025
-1.02
-1.01
-1.02
-1.03
-1.025
-1.05
-1.035
-1.025
-1.02
-1.025
-1.005
-0.995
-1.0
-1.0
-1.01
-1.025
-1.02
-1.03
-1.05
-1.04
-1.03
-1.01
-1.005
-0.99
-0.975
-0.98
-0.985
-0.995
-0.995
-1.0
-1.0
-1.005
-1.0
-0.99
-0.995
-0.99
-0.98
-0.995
-0.985
-0.99
-0.985
-1.0
-0.995
-1.0
-0.99
-0.99
-0.975
-0.97
-0.965
-0.96
-0.97
-0.965
-0.975
-0.975
-0.965
-0.99
-0.995
-0.975
-0.965
-0.965
-0.965
-0.975
-0.985
-0.99
-0.985
-0.985
-1.0
-0.99
-0.98
-0.98
-0.97
-0.955
-0.955
-0.955
-0.96
-0.975
-0.965
-0.97
-0.985
-0.985
-0.97
-0.95
-0.945
-0.94
-0.935
-0.94
-0.96
-0.97
-0.965
-0.98
-0.99
-0.985
-0.985
-0.98
-0.965
-0.965
-0.955
-0.96
-0.965
-0.965
-0.965
-0.98
-0.99
-0.98
-0.975
-0.975
-0.965
-0.95
-0.95
-0.925
-0.955
-0.95
-0.97
-0.96
-0.97
-0.97
-0.96
-0.955
-0.95
-0.945
-0.955
-0.965
-0.955
-0.975
-0.97
-0.98
-0.965
-0.975
-0.98
-0.98
-0.98
-0.965
-0.96
-0.95
-0.94
-0.96
-0.955
-0.965
-0.96
-0.975
-0.975
-0.975
-0.96
-0.95
-0.945
-0.95
-0.955
-0.955
-0.965
-0.97
-0.975
-0.97
-0.96
-0.96
-0.945
-0.95
-0.945
-0.96
-0.95
-0.97
-0.975
-0.97
-0.98
-0.97
-0.96
-0.955
-0.945
-0.94
-0.94
-0.955
-0.955
-0.96
-0.96
-0.96
-0.97
-0.97
-0.955
-0.955
-0.94
-0.96
-0.945
-0.955
-0.96
-0.96
-0.95
-0.97
-0.975
-0.965
-0.965
-0.94
-0.93
-0.915
-0.895
-0.89
-0.885
-0.87
-0.885
-0.845
-0.845
-0.845
-0.82
-0.79
-0.775
-0.745
-0.72
-0.685
-0.66
-0.63
-0.615
-0.625
-0.645
-0.65
-0.64
-0.63
-0.635
-0.645
-0.65
-0.705
-0.755
-0.81
-0.88
-0.93
-0.98
-1.0
-1.0
-0.99
-0.98
-0.97
-0.98
-0.97
-0.985
-0.98
-0.99
-1.0
-1.015
-1.02
-1.005
-0.985
-0.98
-0.975
-0.96
-0.975
-0.995
-1.015
-1.03
-1.05
-1.08
-1.08
-1.035
-0.905
-0.72
-0.48
-0.165
0.2
0.555
0.86
1.075
1.145
1.12
0.965
0.685
0.25
-0.25
-0.73
-1.045
-1.13
-1.085
-0.94
-0.835
-0.775
-0.78
-0.83
-0.9
-0.935
-0.97
-1.0
-1.0
-1.015
-1.015
-1.0
-1.0
-1.015
-1.035
-1.03
-1.035
-1.015
-1.0
-1.0
-0.995
-1.01
-1.02
-1.025
-1.035
-1.035
-1.055
-1.045
-1.045
-1.03
-1.035
-1.025
-1.01
-1.03
-1.03
-1.02
-1.035
-1.05
-1.05
-1.05
-1.055
-1.035
-1.03
-1.02
-1.01
-1.01
-1.015
-1.02
-1.025
-1.02
-1.005
-1.01
-0.995
-0.99
-0.975
-0.965
-0.965
-0.965
-0.96
-0.96
-0.965
-0.965
-0.955
-0.965
-0.945
-0.93
-0.92
-0.885
-0.87
-0.865
-0.855
-0.865
-0.85
-0.845
-0.825
-0.82
-0.81
-0.805
-0.77
-0.76
-0.72
-0.72
-0.71
-0.705
-0.68
-0.7
-0.69
-0.68
-0.65
-0.63
-0.615
-0.6
-0.575
-0.58
-0.575
-0.56
-0.54
-0.545
-0.53
-0.54
-0.52
-0.51
-0.5
-0.51
-0.505
-0.505
-0.505
-0.525
-0.55
-0.57
-0.58
-0.605
-0.62
-0.645
-0.66
-0.675
-0.685
-0.715
-0.75
-0.765
-0.795
-0.805
-0.815
-0.86
-0.855
-0.86
-0.875
-0.855
-0.865
-0.885
-0.895
-0.9
-0.915
-0.92
-0.925
-0.935
-0.92
-0.92
-0.92
-0.9
-0.89
-0.895
-0.91
-0.925
-0.935
-0.935
-0.925
-0.915
-0.92
-0.9
-0.9
-0.905
-0.895
-0.895
-0.885
-0.89
-0.885
-0.89
-0.89
-0.905
-0.895
-0.89
-0.885
-0.875
-0.87
-0.875
-0.875
-0.875
-0.885
-0.895
-0.89
-0.89
-0.91
-0.905
-0.895
-0.89
-0.875
-0.89
-0.895
-0.905
-0.905
-0.9
-0.9
-0.94
-0.935
-0.93
-0.905
-0.905
-0.905
-0.895
-0.91
-0.92
-0.935
-0.94
-0.94
-0.96
-0.95
-0.935
-0.935
-0.92
-0.91
-0.94
-0.925
-0.935
-0.945
-0.96
-0.95
-0.95
-0.955
-0.95
-0.95
-0.945
-0.935
-0.94
-0.94
-0.955
-0.955
-0.96
-0.99
-0.995
-1.0
-0.985
-0.97
-0.965
-0.955
-0.96
-0.95
-0.95
-0.96
-0.98
-0.97
-0.98
-0.985
-0.97
-0.96
-0.965
-0.95
-0.94
-0.96
-0.95
-0.96
-0.965
-0.965
-0.97
-0.975
-0.955
-0.96
-0.97
-0.945
-0.96
-0.96
-0.955
-0.94
-0.965
-0.965
-0.975
-0.95
-0.935
-0.935
-0.91
-0.885
-0.865
-0.835
-0.83
-0.83
-0.82
-0.815
-0.81
-0.8
-0.765
-0.74
-0.69
-0.64
-0.61
-0.575
-0.59
-0.6
-0.635
-0.63
-0.65
-0.635
-0.63
-0.635
-0.655
-0.665
-0.72
-0.765
-0.825
-0.88
-0.915
-0.94
-0.95
-0.985
-0.96
-0.965
-0.97
-0.96
-0.985
-0.99
-0.99
-1.0
-1.0
-0.985
-1.0
-1.005
-0.99
-0.975
-0.98
-0.965
-0.97
-0.97
-0.975
-0.97
-0.975
-0.975
-0.995
-0.995
-0.985
-0.985
-0.985
-0.99
-1.005
-1.01
-0.965
-0.885
-0.75
-0.545
-0.265
0.09
0.475
0.82
1.075
1.21
1.225
1.07
0.77
0.31
-0.23
-0.735
-1.055
-1.15
-1.08
-0.91
-0.78
-0.705
-0.7
-0.76
-0.84
-0.89
-0.935
-0.975
-0.97
-0.97
-0.955
-0.955
-0.925
-0.925
-0.935
-0.935
-0.94
-0.965
-0.97
-0.965
-0.975
-0.97
-0.96
-0.96
-0.95
-0.935
-0.93
-0.945
-0.955
-0.95
-0.96
-0.965
-0.995
-0.98
-0.965
-0.95
-0.94
-0.925
-0.92
-0.925
-0.94
-0.945
-0.94
-0.955
-0.955
-0.95
-0.955
-0.93
-0.92
-0.915
-0.905
-0.895
-0.905
-0.91
-0.915
-0.915
-0.91
-0.895
-0.895
-0.875
-0.855
-0.845
-0.835
-0.83
-0.835
-0.835
-0.825
-0.825
-0.795
-0.805
-0.785
-0.76
-0.75
-0.72
-0.7
-0.69
-0.68
-0.675
-0.675
-0.64
-0.64
-0.6
-0.58
-0.56
-0.54
-0.52
-0.51
-0.47
-0.46
-0.455
-0.45
-0.435
-0.435
-0.405
-0.4
-0.37
-0.375
-0.36
-0.35
-0.345
-0.355
-0.37
-0.375
-0.4
-0.41
-0.445
-0.465
-0.48
-0.49
-0.505
-0.535
-0.545
-0.58
-0.635
-0.67
-0.695
-0.725
-0.75
-0.755
-0.78
-0.8
-0.81
-0.8
-0.84
-0.87
-0.885
-0.885
-0.91
-0.925
-0.91
-0.895
-0.895
-0.89
-0.88
-0.89
-0.89
-0.9
-0.935
-0.93
-0.94
-0.93
-0.915
-0.905
-0.895
-0.885
-0.87
-0.875
-0.89
-0.865
-0.875
-0.895
-0.88
-0.87
-0.87
-0.87
-0.855
-0.85
-0.855
-0.835
-0.825
-0.835
-0.845
-0.805
-0.765
-0.7
-0.575
-0.425
-0.25
-0.09
0.075
0.25
0.45
0.665
0.88
1.12
1.345
1.525
1.69
1.825
1.935
1.985
2.025
2.03
2.005
1.945
1.865
1.77
1.675
1.62
1.61
1.63
1.64
1.63
1.6
1.53
1.4
1.23
1.055
0.86
0.605
0.305
-0.075
-0.455
-0.775
-0.955
-1.035
-1.065
-1.055
-1.03
-1.03
-1.07
-1.11
-1.15
-1.215
-1.245
-1.25
-1.255
-1.265
-1.265
-1.28
-1.3
-1.33
-1.34
-1.35
-1.365
-1.365
-1.38
-1.38
-1.38
-1.375
-1.415
-1.425
-1.445
-1.465
-1.465
-1.48
-1.5
-1.515
-1.505
-1.515
-1.535
-1.535
-1.555
-1.59
-1.595
-1.635
-1.64
-1.665
-1.68
-1.71
-1.725
-1.705
-1.72
-1.745
-1.77
-1.785
-1.815
-1.845
-1.875
-1.885
-1.9
-1.91
-1.905
-1.89
-1.9
-1.91
-1.93
-1.94
-1.96
-1.985
-1.99
-1.97
-1.97
-1.95
-1.945
-1.945
-1.955
-1.955
-1.95
-1.955
-1.965
-1.96
-1.99
-1.99
-2.0
-2.0
-2.02
-2.01
-1.995
-1.97
-1.94
-1.905
-1.88
-1.825
-1.785
-1.725
-1.685
-1.635
-1.575
-1.51
-1.47
-1.42
-1.37
-1.335
-1.3
-1.275
-1.245
-1.23
-1.22
-1.205
-1.21
-1.17
-1.14
-1.14
-1.135
-1.135
-1.135
-1.14
-1.145
-1.15
-1.155
-1.16
-1.155
-1.13
-1.13
-1.11
-1.11
-1.12
-1.115
-1.125
-1.125
-1.135
-1.145
-1.16
-1.135
-1.105
-1.105
-1.105
-1.105
-1.11
-1.105
-1.1
-1.105
-1.1
-1.125
-1.105
-1.09
-1.08
-1.075
-1.075
-1.06
-1.06
-1.075
-1.09
-1.1
-1.095
-1.095
-1.095
-1.105
-1.065
-1.06
-1.045
-1.045
-1.055
-1.07
-1.075
-1.07
-1.075
-1.1
-1.07
-1.085
-1.05
-1.055
-1.055
-1.06
-1.05
-1.045
-1.05
-1.05
-1.055
-1.07
-1.075
-1.06
-1.05
-1.04
-1.025
-1.03
-1.015
-1.03
-1.035
-1.04
-1.055
-1.045
-1.045
-1.04
-1.03
-1.025
-1.025
-1.02
-1.035
-1.04
-1.03
-1.05
-1.05
-1.055
-1.065
-1.025
-1.02
-1.015
-1.01
-1.02
-1.03
-1.04
-1.03
-1.025
-1.03
-1.04
-1.035
-1.03
-1.015
-1.01
-1.01
-1.025
-1.005
-1.015
-1.03
-1.035
-1.02
-1.04
-1.025
-1.015
-1.0
-0.99
-0.99
-0.995
-0.98
-0.99
-1.025
-1.02
-1.015
-1.01
-1.005
-1.01
-0.995
-1.0
-1.0
-0.985
-0.975
-0.975
-0.99
-0.99
-1.015
-1.015
-1.015
-1.01
-1.015
-1.005
-0.98
-0.975
-0.98
-0.975
-0.985
-1.005
-1.02
-1.01
-0.985
-0.985
-0.98
-0.97
-0.96
-0.96
-0.97
-0.96
-0.985
-0.98
-0.995
-0.985
-0.98
-0.98
-0.965
-0.965
-0.96
-0.96
-0.96
-0.96
-0.975
-0.985
-1.0
-1.0
-1.0
-0.99
-0.975
-0.975
-0.965
-0.955
-0.965
-0.98
-0.965
-0.98
-0.98
-0.985
-0.98
-0.97
-0.97
-0.965
-0.94
-0.95
-0.97
-0.965
-0.965
-0.98
-0.98
-0.985
-0.975
-0.965
-0.95
-0.955
-0.955
-0.955
-0.96
-0.975
-0.965
-0.965
-0.99
-0.98
-0.98
-0.98
-0.97
-0.955
-0.96
-0.95
-0.955
-0.96
-0.945
-0.96
-0.96
-0.97
-0.955
-0.965
-0.955
-0.955
-0.95
-0.935
-0.94
-0.945
-0.96
-0.965
-0.98
-0.975
-0.98
-0.98
-0.96
-0.945
-0.95
-0.94
-0.94
-0.96
-0.955
-0.965
-0.98
-0.98
-0.975
-0.99
-0.945
-0.95
-0.945
-0.94
-0.94
-0.96
-0.96
-0.965
-0.98
-0.975
-0.995
-0.965
-0.96
-0.96
-0.955
-0.95
-0.96
-0.95
-0.955
-0.95
-0.96
-0.98
-0.97
-0.955
-0.945
-0.95
-0.935
-0.93
-0.92
-0.95
-0.94
-0.94
-0.945
-0.955
-0.955
-0.935
-0.94
-0.92
-0.91
-0.89
-0.88
-0.865
-0.86
-0.85
-0.84
-0.83
-0.82
-0.8
-0.79
-0.75
-0.72
-0.69
-0.66
-0.62
-0.6
-0.6
-0.615
-0.635
-0.635
-0.64
-0.62
-0.625
-0.64
-0.635
-0.69
-0.75
-0.81
-0.855
-0.935
-0.97
-0.99
-0.985
-0.995
-0.98
-0.965
-0.975
-0.965
-0.99
-0.975
-0.98
-0.995
-0.995
-1.0
-0.98
-0.985
-0.965
-0.97
-0.975
-0.985
-0.995
-1.025
-1.035
-1.07
-1.055
-1.01
-0.9
-0.735
-0.505
-0.205
0.15
0.505
0.83
1.05
1.175
1.16
1.07
0.85
0.505
0.035
-0.48
-0.875
-1.085
-1.125
-1.015
-0.895
-0.795
-0.745
-0.76
-0.815
-0.885
-0.945
-0.97
-0.965
-0.985
-0.98
-0.965
-0.99
-0.995
-1.015
-1.035
-1.025
-1.02
-1.005
-0.99
-0.985
-1.0
-0.995
-1.005
-1.01
-1.035
-1.04
-1.03
-1.03
-1.025
-1.025
-1.02
-1.01
-1.015
-1.015
-1.035
-1.045
-1.045
-1.06
-1.055
-1.05
-1.045
-1.015
-1.025
-1.015
-1.0
-1.015
-1.015
-1.025
-1.035
-1.035
-1.03
-1.03
-1.025
-1.0
-1.0
-0.995
-0.995
-0.98
-0.985
-0.985
-0.98
-0.99
-0.99
-0.98
-0.975
-0.955
-0.93
-0.925
-0.905
-0.9
-0.89
-0.895
-0.885
-0.875
-0.865
-0.86
-0.845
-0.83
-0.805
-0.8
-0.78
-0.77
-0.765
-0.745
-0.74
-0.73
-0.725
-0.715
-0.7
-0.675
-0.66
-0.645
-0.615
-0.605
-0.595
-0.6
-0.595
-0.575
-0.58
-0.56
-0.56
-0.525
-0.51
-0.485
-0.47
-0.47
-0.48
-0.485
-0.485
-0.52
-0.54
-0.54
-0.54
-0.555
-0.57
-0.59
-0.62
-0.645
-0.665
-0.695
-0.73
-0.74
-0.77
-0.78
-0.795
-0.805
-0.81
-0.825
-0.825
-0.85
-0.845
-0.85
-0.86
-0.88
-0.885
-0.9
-0.9
-0.905
-0.87
-0.89
-0.875
-0.885
-0.9
-0.92
-0.92
-0.93
-0.935
-0.93
-0.91
-0.91
-0.895
-0.885
-0.87
-0.87
-0.865
-0.875
-0.88
-0.885
-0.89
-0.895
-0.89
-0.885
-0.865
-0.85
-0.845
-0.845
-0.845
-0.86
-0.87
-0.87
-0.88
-0.865
-0.85
-0.845
-0.845
-0.85
-0.83
-0.835
-0.84
-0.865
-0.865
-0.87
-0.885
-0.89
-0.88
-0.89
-0.87
-0.865
-0.88
-0.88
-0.895
-0.91
-0.895
-0.905
-0.905
-0.905
-0.9
-0.9
-0.895
-0.88
-0.865
-0.89
-0.9
-0.895
-0.915
-0.91
-0.92
-0.93
-0.92
-0.91
-0.89
-0.905
-0.9
-0.895
-0.91
-0.925
-0.94
-0.935
-0.95
-0.94
-0.945
-0.93
-0.93
-0.915
-0.905
-0.93
-0.92
-0.955
-0.955
-0.945
-0.95
-0.97
-0.955
-0.95
-0.94
-0.925
-0.935
-0.92
-0.925
-0.93
-0.935
-0.945
-0.975
-0.945
-0.955
-0.95
-0.935
-0.915
-0.92
-0.93
-0.925
-0.93
-0.94
-0.94
-0.935
-0.945
-0.945
-0.925
-0.91
-0.895
-0.895
-0.89
-0.88
-0.875
-0.875
-0.87
-0.855
-0.825
-0.805
-0.795
-0.775
-0.73
-0.71
-0.69
-0.67
-0.61
-0.59
-0.57
-0.575
-0.595
-0.615
-0.615
-0.605
-0.595
-0.59
-0.62
-0.645
-0.685
-0.75
-0.825
-0.86
-0.9
-0.925
-0.915
-0.92
-0.905
-0.905
-0.915
-0.92
-0.925
-0.95
-0.95
-0.965
-1.0
-0.99
-0.965
-0.955
-0.945
-0.93
-0.935
-0.925
-0.96
-0.955
-0.955
-0.96
-0.95
-0.95
-0.955
-0.975
-0.985
-1.005
-0.96
-0.86
-0.715
-0.475
-0.155
0.255
0.655
0.975
1.195
1.275
1.21
1.005
0.615
0.085
-0.46
-0.905
-1.11
-1.12
-0.99
-0.84
-0.725
-0.685
-0.715
-0.77
-0.825
-0.88
-0.91
-0.935
-0.945
-0.935
-0.93
-0.935
-0.93
-0.915
-0.915
-0.91
-0.915
-0.92
-0.925
-0.935
-0.95
-0.945
-0.95
-0.95
-0.94
-0.935
-0.94
-0.93
-0.915
-0.93
-0.925
-0.94
-0.95
-0.975
-0.96
-0.975
-0.945
-0.935
-0.92
-0.93
-0.915
-0.94
-0.94
-0.945
-0.955
-0.935
-0.945
-0.945
-0.935
-0.91
-0.9
-0.885
-0.885
-0.88
-0.89
-0.88
-0.88
-0.885
-0.89
-0.875
-0.86
-0.84
-0.825
-0.81
-0.805
-0.785
-0.78
-0.79
-0.78
-0.775
-0.76
-0.74
-0.705
-0.69
-0.67
-0.645
-0.63
-0.615
-0.595
-0.595
-0.585
-0.575
-0.555
-0.52
-0.49
-0.485
-0.46
-0.45
-0.43
-0.425
-0.41
-0.395
-0.405
-0.38
-0.39
-0.37
-0.355
-0.32
-0.32
-0.325
-0.32
-0.345
-0.35
-0.375
-0.4
-0.415
-0.455
-0.475
-0.505
-0.525
-0.545
-0.58
-0.605
-0.64
-0.68
-0.7
-0.725
-0.745
-0.77
-0.79
-0.78
-0.79
-0.8
-0.81
-0.815
-0.835
-0.86
-0.87
-0.885
-0.89
-0.89
-0.89
-0.9
-0.88
-0.875
-0.885
-0.89
-0.895
-0.905
-0.92
-0.91
-0.94
-0.915
-0.925
-0.895
-0.875
-0.885
-0.855
-0.87
-0.85
-0.86
-0.865
-0.87
-0.88
-0.865
-0.875
-0.87
-0.85
-0.835
-0.82
-0.835
-0.84
-0.855
-0.855
-0.86
-0.855
-0.85
-0.85
-0.84
-0.825
-0.825
-0.82
-0.83
-0.83
-0.83
-0.84
-0.84
-0.87
-0.855
-0.85
-0.84
-0.83
-0.83
-0.825
-0.835
-0.835
-0.84
-0.865
-0.855
-0.86
-0.89
-0.89
-0.89
-0.885
-0.88
-0.86
-0.87
-0.875
-0.895
-0.9
-0.905
-0.92
-0.915
-0.915
-0.905
-0.905
-0.885
-0.88
-0.885
-0.905
-0.89
-0.89
-0.915
-0.915
-0.925
-0.91
-0.9
-0.875
-0.89
-0.885
-0.88
-0.88
-0.895
-0.91
-0.915
-0.92
-0.935
-0.925
-0.92
-0.905
-0.905
-0.9
-0.895
-0.91
-0.905
-0.915
-0.92
-0.92
-0.93
-0.92
-0.93
-0.91
-0.915
-0.905
-0.9
-0.89
-0.905
-0.915
-0.895
-0.895
-0.895
-0.86
-0.83
-0.805
-0.8
-0.76
-0.75
-0.75
-0.745
-0.725
-0.715
-0.665
-0.635
-0.61
-0.585
-0.585
-0.575
-0.59
-0.62
-0.625
-0.605
-0.63
-0.66
-0.69
-0.73
-0.77
-0.82
-0.87
-0.895
-0.92
-0.935
-0.96
-0.965
-0.98
-0.96
-0.965
-0.97
-0.985
-0.995
-0.98
-0.98
-0.975
-0.975
-0.985
-0.985
-0.985
-1.01
-1.0
-0.995
-1.0
-0.99
-0.985
-0.965
-0.97
-0.98
-0.995
-1.035
-1.055
-1.075
-1.055
-0.985
-0.845
-0.63
-0.36
-0.025
0.34
0.695
0.965
1.125
1.175
1.115
0.97
0.675
0.255
-0.245
-0.705
-1.04
-1.145
-1.07
-0.93
-0.815
-0.77
-0.75
-0.795
-0.89
-0.925
-0.97
-0.975
-0.99
-0.965
-0.98
-0.97
-0.965
-0.98
-1.01
-1.015
-1.02
-1.02
-1.005
-1.005
-0.985
-0.98
-0.985
-0.99
-1.0
-1.01
-1.015
-1.025
-1.035
-1.02
-1.01
-1.005
-0.995
-0.99
-0.99
-1.0
-1.0
-1.015
-1.005
-1.01
-1.01
-0.995
-0.99
-0.985
-0.99
-0.985
-0.96
-0.955
-0.965
-0.96
-0.965
-0.975
-0.975
-0.96
-0.95
-0.945
-0.935
-0.915
-0.905
-0.925
-0.91
-0.915
-0.92
-0.895
-0.91
-0.895
-0.855
-0.84
-0.82
-0.795
-0.785
-0.76
-0.785
-0.77
-0.74
-0.715
-0.71
-0.685
-0.66
-0.63
-0.605
-0.58
-0.565
-0.55
-0.525
-0.52
-0.495
-0.48
-0.475
-0.455
-0.43
-0.405
-0.38
-0.345
-0.36
-0.345
-0.345
-0.35
-0.345
-0.365
-0.38
-0.4
-0.405
-0.43
-0.45
-0.47
-0.51
-0.555
-0.595
-0.65
-0.675
-0.71
-0.735
-0.76
-0.775
-0.79
-0.8
-0.815
-0.83
-0.84
-0.865
-0.89
-0.895
-0.91
-0.92
-0.925
-0.925
