Lead II
-0.185
-0.165
-0.18
-0.2
-0.17
-0.115
-0.035
0.065
0.15
0.255
0.36
0.475
0.6
0.725
0.865
1.0
1.135
1.27
1.395
1.48
1.49
1.425
1.18
0.83
0.405
-0.01
-0.375
-0.7
-0.975
-1.205
-1.4
-1.585
-1.745
-1.9
-2.005
-2.055
-2.055
-2.06
-2.09
-2.12
-2.14
-2.12
-2.085
-2.065
-2.065
-2.05
-2.005
-1.88
-1.705
-1.525
-1.34
-1.195
-1.08
-0.985
-0.91
-0.85
-0.8
-0.78
-0.78
-0.765
-0.74
-0.68
-0.62
-0.56
-0.495
-0.425
-0.36
-0.3
-0.255
-0.21
-0.17
-0.105
-0.08
-0.045
-0.035
-0.025
-0.01
0.02
0.05
0.06
0.07
0.1
0.12
0.17
0.215
0.27
0.305
0.305
0.315
0.365
0.41
0.455
0.48
0.5
0.51
0.535
0.565
0.61
0.63
0.66
0.69
0.74
0.78
0.83
0.86
0.895
0.92
0.96
1.0
1.04
1.055
1.085
1.1
1.125
1.16
1.195
1.18
1.16
1.16
1.165
1.19
1.195
1.18
1.16
1.125
1.11
1.11
1.085
1.075
1.025
0.98
0.955
0.93
0.92
0.865
0.825
0.76
0.705
0.66
0.625
0.56
0.485
0.45
0.39
0.37
0.34
0.285
0.24
0.19
0.17
0.165
0.155
0.1
0.06
0.015
-0.01
-0.035
-0.025
-0.035
-0.08
-0.125
-0.135
-0.135
-0.13
-0.145
-0.16
-0.155
-0.185
-0.17
-0.18
-0.19
-0.195
-0.215
-0.23
-0.22
-0.22
-0.22
-0.24
-0.24
-0.24
-0.235
-0.235
-0.245
-0.27
-0.275
-0.29
-0.265
-0.255
-0.255
-0.28
-0.3
-0.305
-0.295
-0.285
-0.29
-0.295
-0.305
-0.305
-0.29
-0.295
-0.29
-0.32
-0.305
-0.3
-0.29
-0.29
-0.305
-0.325
-0.34
-0.345
-0.32
-0.31
-0.315
-0.34
-0.35
-0.345
-0.33
-0.32
-0.325
-0.355
-0.375
-0.37
-0.36
-0.345
-0.345
-0.365
-0.36
-0.36
-0.34
-0.345
-0.355
-0.35
-0.365
-0.375
-0.355
-0.345
-0.355
-0.35
-0.365
-0.355
-0.34
-0.32
-0.345
-0.355
-0.37
-0.365
-0.35
-0.34
-0.34
-0.35
-0.37
-0.38
-0.36
-0.35
-0.35
-0.36
-0.37
-0.38
-0.38
-0.365
-0.365
-0.355
-0.37
-0.36
-0.355
-0.345
-0.355
-0.37
-0.385
-0.375
-0.36
-0.34
-0.35
-0.37
-0.385
-0.365
-0.365
-0.335
-0.345
-0.345
-0.37
-0.37
-0.365
-0.35
-0.345
-0.335
-0.36
-0.36
-0.355
-0.335
-0.355
-0.37
-0.36
-0.355
-0.34
-0.32
-0.32
-0.345
-0.36
-0.365
-0.35
-0.34
-0.335
-0.35
-0.36
-0.36
-0.345
-0.345
-0.34
-0.345
-0.36
-0.37
-0.36
-0.34
-0.345
-0.355
-0.355
-0.345
-0.325
-0.315
-0.325
-0.35
-0.35
-0.345
-0.335
-0.315
-0.33
-0.35
-0.35
-0.345
-0.335
-0.325
-0.325
-0.325
-0.335
-0.34
-0.315
-0.32
-0.345
-0.36
-0.365
-0.34
-0.33
-0.305
-0.315
-0.33
-0.34
-0.335
-0.325
-0.31
-0.295
-0.305
-0.31
-0.28
-0.27
-0.245
-0.255
-0.26
-0.25
-0.24
-0.23
-0.215
-0.23
-0.25
-0.255
-0.235
-0.205
-0.185
-0.205
-0.23
-0.255
-0.265
-0.25
-0.215
-0.225
-0.23
-0.24
-0.255
-0.255
-0.25
-0.26
-0.28
-0.3
-0.305
-0.29
-0.305
-0.33
-0.355
-0.365
-0.34
-0.325
-0.31
-0.3
-0.33
-0.345
-0.35
-0.345
-0.33
-0.32
-0.34
-0.325
-0.355
-0.33
-0.325
-0.32
-0.315
-0.305
-0.295
-0.295
-0.285
-0.31
-0.31
-0.32
-0.26
-0.2
-0.095
-0.03
0.03
0.09
0.135
0.2
0.3
0.39
0.515
0.685
0.905
1.16
1.42
1.655
1.84
1.925
1.92
1.835
1.625
1.32
1.0
0.69
0.445
0.26
0.175
0.11
0.095
0.065
0.055
0.055
0.02
-0.01
-0.09
-0.125
-0.14
-0.135
-0.135
-0.165
-0.21
-0.25
-0.29
-0.32
-0.35
-0.385
-0.41
-0.43
-0.46
-0.46
-0.46
-0.48
-0.485
-0.485
-0.485
-0.48
-0.465
-0.49
-0.515
-0.525
-0.52
-0.5
-0.495
-0.495
-0.52
-0.535
-0.535
-0.52
-0.505
-0.51
-0.53
-0.555
-0.57
-0.54
-0.53
-0.53
-0.54
-0.555
-0.555
-0.54
-0.55
-0.565
-0.585
-0.59
-0.595
-0.575
-0.57
-0.595
-0.605
-0.635
-0.63
-0.61
-0.61
-0.6
-0.64
-0.66
-0.69
-0.665
-0.655
-0.67
-0.685
-0.68
-0.67
-0.66
-0.635
-0.64
-0.64
-0.645
-0.635
-0.605
-0.58
-0.56
-0.58
-0.57
-0.545
-0.535
-0.49
-0.455
-0.43
-0.425
-0.405
-0.385
-0.355
-0.335
-0.325
-0.305
-0.295
-0.255
-0.23
-0.245
-0.24
-0.25
-0.245
-0.23
-0.21
-0.22
-0.245
-0.26
-0.26
-0.225
-0.205
-0.22
-0.24
-0.26
-0.27
-0.265
-0.245
-0.25
-0.265
-0.28
-0.275
-0.28
-0.27
-0.27
-0.285
-0.285
-0.28
-0.27
-0.285
-0.3
-0.315
-0.31
-0.315
-0.29
-0.285
-0.295
-0.305
-0.31
-0.305
-0.28
-0.28
-0.29
-0.3
-0.33
-0.32
-0.3
-0.3
-0.3
-0.305
-0.305
-0.305
-0.29
-0.29
-0.3
-0.305
-0.305
-0.295
-0.285
-0.275
-0.28
-0.295
-0.31
-0.31
-0.28
-0.275
-0.27
-0.29
-0.305
-0.31
-0.285
-0.265
-0.265
-0.285
-0.3
-0.295
-0.285
-0.275
-0.28
-0.285
-0.295
-0.29
-0.285
-0.265
-0.28
-0.275
-0.275
-0.26
-0.24
-0.22
-0.235
-0.245
-0.255
-0.245
-0.24
-0.23
-0.235
-0.23
-0.235
-0.245
-0.22
-0.21
-0.23
-0.245
-0.25
-0.24
-0.22
-0.215
-0.24
-0.25
-0.26
-0.265
-0.255
-0.255
-0.26
-0.28
-0.3
-0.31
-0.305
-0.31
-0.32
-0.33
-0.34
-0.34
-0.335
-0.315
-0.32
-0.33
-0.34
-0.355
-0.345
-0.33
-0.345
-0.355
-0.375
-0.34
-0.315
-0.31
-0.325
-0.33
-0.35
-0.355
-0.345
-0.315
-0.32
-0.32
-0.33
-0.325
-0.295
-0.25
-0.16
-0.05
0.045
0.12
0.185
0.275
0.355
0.45
0.575
0.74
0.915
1.105
1.275
1.46
1.615
1.73
1.79
1.785
1.685
1.475
1.165
0.815
0.495
0.26
0.115
0.01
-0.05
-0.045
-0.005
0.035
0.035
0.01
-0.025
-0.045
-0.06
-0.075
-0.11
-0.155
-0.2
-0.23
-0.235
-0.26
-0.285
-0.31
-0.355
-0.365
-0.395
-0.415
-0.43
-0.465
-0.48
-0.485
-0.475
-0.48
-0.495
-0.505
-0.535
-0.505
-0.495
-0.49
-0.49
-0.51
-0.53
-0.525
-0.5
-0.5
-0.49
-0.51
-0.52
-0.53
-0.515
-0.495
-0.495
-0.53
-0.535
-0.54
-0.53
-0.52
-0.52
-0.54
-0.54
-0.525
-0.53
-0.5
-0.535
-0.555
-0.56
-0.56
-0.53
-0.545
-0.555
-0.565
-0.585
-0.585
-0.58
-0.57
-0.575
-0.595
-0.615
-0.625
-0.605
-0.585
-0.585
-0.6
-0.61
-0.61
-0.6
-0.59
-0.595
-0.59
-0.58
-0.58
-0.56
-0.555
-0.555
-0.525
-0.515
-0.485
-0.45
-0.42
-0.425
-0.42
-0.405
-0.37
-0.335
-0.31
-0.32
-0.33
-0.32
-0.31
-0.305
-0.275
-0.28
-0.305
-0.31
-0.31
-0.295
-0.285
-0.28
-0.29
-0.31
-0.31
-0.305
-0.305
-0.3
-0.31
-0.31
-0.325
-0.305
-0.3
-0.32
-0.325
-0.33
-0.34
-0.305
-0.305
-0.32
-0.33
-0.34
-0.34
-0.315
-0.3
-0.31
-0.335
-0.34
-0.335
-0.315
-0.3
-0.295
-0.335
-0.325
-0.33
-0.3
-0.295
-0.3
-0.31
-0.325
-0.31
-0.31
-0.29
-0.31
-0.31
-0.32
-0.315
-0.3
-0.305
-0.31
-0.325
-0.33
-0.315
-0.3
-0.295
-0.3
-0.305
-0.325
-0.335
-0.31
-0.295
-0.31
-0.32
-0.34
-0.345
-0.31
-0.295
-0.295
-0.315
-0.335
-0.325
-0.315
-0.315
-0.325
-0.325
-0.325
-0.33
-0.305
-0.29
-0.3
-0.32
-0.34
-0.33
-0.3
-0.27
-0.27
-0.275
-0.27
-0.26
-0.25
-0.23
-0.24
-0.235
-0.235
-0.225
-0.22
-0.21
-0.23
-0.24
-0.25
-0.23
-0.21
-0.185
-0.21
-0.225
-0.25
-0.25
-0.235
-0.225
-0.235
-0.24
-0.245
-0.245
-0.255
-0.26
-0.285
-0.3
-0.3
-0.295
-0.295
-0.29
-0.32
-0.345
-0.35
-0.34
-0.32
-0.31
-0.33
-0.335
-0.35
-0.355
-0.345
-0.35
-0.345
-0.35
-0.345
-0.33
-0.31
-0.31
-0.315
-0.32
-0.335
-0.325
-0.305
-0.29
-0.3
-0.325
-0.335
-0.335
-0.325
-0.305
-0.31
-0.305
-0.275
-0.205
-0.14
-0.06
0.03
0.115
0.19
0.295
0.425
0.565
0.715
0.885
1.065
1.27
1.47
1.68
1.805
1.835
1.795
1.67
1.47
1.21
0.915
0.655
0.44
0.265
0.15
0.105
0.085
0.07
0.085
0.09
0.075
0.06
0.005
-0.06
-0.095
-0.105
-0.1
-0.115
-0.145
-0.185
-0.245
-0.26
-0.295
-0.305
-0.325
-0.37
-0.385
-0.42
-0.435
-0.44
-0.46
-0.46
-0.48
-0.47
-0.47
-0.47
-0.48
-0.5
-0.51
-0.49
-0.475
-0.465
-0.475
-0.495
-0.525
-0.525
-0.5
-0.49
-0.495
-0.505
-0.52
-0.515
-0.515
-0.495
-0.51
-0.535
-0.535
-0.53
-0.53
-0.52
-0.535
-0.55
-0.565
-0.55
-0.545
-0.535
-0.55
-0.595
-0.595
-0.59
-0.58
-0.58
-0.59
-0.61
-0.65
-0.635
-0.635
-0.625
-0.63
-0.635
-0.655
-0.65
-0.635
-0.635
-0.64
-0.665
-0.665
-0.65
-0.64
-0.615
-0.62
-0.61
-0.6
-0.58
-0.56
-0.545
-0.545
-0.545
-0.535
-0.51
-0.465
-0.42
-0.405
-0.39
-0.4
-0.385
-0.36
-0.33
-0.305
-0.315
-0.31
-0.315
-0.295
-0.28
-0.275
-0.27
-0.28
-0.275
-0.28
-0.27
-0.28
-0.295
-0.31
-0.31
-0.265
-0.255
-0.265
-0.305
-0.3
-0.305
-0.28
-0.28
-0.28
-0.295
-0.3
-0.295
-0.295
-0.285
-0.285
-0.305
-0.315
-0.305
-0.28
-0.28
-0.285
-0.315
-0.325
-0.305
-0.295
-0.28
-0.295
-0.33
-0.345
-0.335
-0.31
-0.32
-0.31
-0.305
-0.32
-0.32
-0.315
-0.31
-0.315
-0.32
-0.335
-0.325
-0.315
-0.31
-0.32
-0.325
-0.32
-0.32
-0.305
-0.295
-0.305
-0.315
-0.32
-0.32
-0.315
-0.31
-0.3
-0.315
-0.325
-0.335
-0.335
-0.33
-0.305
-0.305
-0.325
-0.315
-0.295
-0.3
-0.31
-0.33
-0.345
-0.32
-0.305
-0.29
-0.295
-0.325
-0.34
-0.32
-0.31
-0.32
-0.3
-0.31
-0.305
-0.3
-0.28
-0.27
-0.265
-0.265
-0.265
-0.255
-0.225
-0.215
-0.215
-0.23
-0.24
-0.23
-0.23
-0.215
-0.22
-0.23
-0.24
-0.24
-0.215
-0.205
-0.215
-0.235
-0.255
-0.25
-0.255
-0.25
-0.26
-0.28
-0.29
-0.29
-0.285
-0.27
-0.3
-0.295
-0.315
-0.33
-0.325
-0.32
-0.33
-0.335
-0.34
-0.36
-0.335
-0.32
-0.325
-0.345
-0.35
-0.35
-0.33
-0.33
-0.335
-0.33
-0.345
-0.345
-0.335
-0.315
-0.315
-0.32
-0.325
-0.35
-0.33
-0.305
-0.305
-0.31
-0.32
-0.33
-0.31
-0.31
-0.31
-0.305
-0.255
-0.17
-0.055
0.065
0.165
0.215
0.305
0.39
0.515
0.67
0.84
1.005
1.185
1.395
1.625
1.785
1.86
1.88
1.845
1.75
1.655
1.47
1.19
0.845
0.49
0.255
0.14
0.105
0.105
0.1
0.11
0.1
0.105
0.085
0.04
0.015
-0.025
-0.065
-0.075
-0.11
-0.145
-0.185
-0.225
-0.235
-0.23
-0.25
-0.28
-0.35
-0.39
-0.42
-0.4
-0.415
-0.425
-0.44
-0.465
-0.47
-0.465
-0.45
-0.445
-0.465
-0.47
-0.465
-0.465
-0.455
-0.455
-0.49
-0.5
-0.5
-0.48
-0.46
-0.48
-0.5
-0.515
-0.515
-0.505
-0.49
-0.495
-0.51
-0.53
-0.535
-0.515
-0.505
-0.51
-0.53
-0.525
-0.53
-0.525
-0.545
-0.55
-0.56
-0.565
-0.555
-0.55
-0.555
-0.575
-0.6
-0.61
-0.61
-0.61
-0.585
-0.6
-0.615
-0.62
-0.63
-0.625
-0.605
-0.61
-0.625
-0.65
-0.635
-0.615
-0.595
-0.585
-0.585
-0.585
-0.57
-0.56
-0.53
-0.53
-0.52
-0.51
-0.47
-0.43
-0.415
-0.4
-0.395
-0.385
-0.365
-0.325
-0.295
-0.295
-0.315
-0.315
-0.285
-0.265
-0.245
-0.235
-0.245
-0.26
-0.26
-0.275
-0.25
-0.24
-0.26
-0.28
-0.28
-0.28
-0.26
-0.26
-0.265
-0.275
-0.26
-0.26
-0.25
-0.275
-0.28
-0.29
-0.295
-0.285
-0.26
-0.25
-0.28
-0.3
-0.295
-0.295
-0.26
-0.28
-0.315
-0.3
-0.305
-0.295
-0.28
-0.285
-0.285
-0.305
-0.29
-0.275
-0.27
-0.285
-0.3
-0.3
-0.295
-0.26
-0.27
-0.295
-0.31
-0.31
-0.305
-0.29
-0.265
-0.28
-0.295
-0.31
-0.3
-0.29
-0.275
-0.28
-0.28
-0.3
-0.3
-0.295
-0.285
-0.285
-0.3
-0.305
-0.295
-0.27
-0.285
-0.285
-0.305
-0.305
-0.295
-0.27
-0.26
-0.255
-0.28
-0.295
-0.3
-0.285
-0.275
-0.265
-0.28
-0.3
-0.29
-0.27
-0.255
-0.275
-0.275
-0.27
-0.27
-0.245
-0.22
-0.24
-0.245
-0.245
-0.245
-0.225
-0.195
-0.205
-0.215
-0.23
-0.23
-0.22
-0.215
-0.21
-0.2
-0.205
-0.23
-0.225
-0.21
-0.235
-0.265
-0.28
-0.26
-0.245
-0.235
-0.24
-0.255
-0.275
-0.29
-0.27
-0.275
-0.295
-0.28
-0.285
-0.295
-0.285
-0.295
-0.305
-0.335
-0.325
-0.32
-0.29
-0.3
-0.3
-0.33
-0.335
-0.325
-0.315
-0.295
-0.295
-0.32
-0.31
-0.3
-0.3
-0.28
-0.285
-0.295
-0.295
-0.28
-0.265
-0.255
-0.26
-0.27
-0.275
-0.265
-0.25
-0.235
-0.255
-0.255
-0.255
-0.205
-0.12
-0.005
0.095
0.185
0.26
0.365
0.465
0.595
0.72
0.88
1.06
1.245
1.475
1.665
1.795
1.84
1.855
1.84
1.76
1.57
1.275
0.875
0.52
0.255
0.125
0.085
0.075
0.105
0.12
0.135
0.135
0.12
0.075
0.035
-0.01
-0.03
-0.035
-0.04
-0.075
-0.105
-0.145
-0.195
-0.215
-0.22
-0.265
-0.295
-0.325
-0.355
-0.375
-0.375
-0.4
-0.415
-0.43
-0.43
-0.41
-0.415
-0.425
-0.43
-0.465
-0.465
-0.445
-0.43
-0.43
-0.45
-0.48
-0.475
-0.455
-0.44
-0.445
-0.455
-0.47
-0.48
-0.48
-0.465
-0.47
-0.475
-0.49
-0.485
-0.475
-0.48
-0.495
-0.51
-0.52
-0.505
-0.505
-0.51
-0.525
-0.535
-0.55
-0.55
-0.525
-0.535
-0.565
-0.59
-0.59
-0.58
-0.565
-0.545
-0.575
-0.595
-0.61
-0.605
-0.59
-0.585
-0.59
-0.6
-0.605
-0.61
-0.6
-0.575
-0.58
-0.585
-0.57
-0.565
-0.52
-0.5
-0.495
-0.51
-0.495
-0.455
-0.425
-0.385
-0.385
-0.385
-0.37
-0.345
-0.305
-0.29
-0.285
-0.285
-0.295
-0.29
-0.27
-0.265
-0.245
-0.255
-0.25
-0.26
-0.255
-0.245
-0.26
-0.265
-0.255
-0.25
-0.24
-0.24
-0.26
-0.275
-0.28
-0.27
-0.265
-0.24
-0.23
-0.245
-0.265
-0.26
-0.255
-0.26
-0.27
-0.275
-0.29
-0.28
-0.275
-0.26
-0.27
-0.27
-0.28
-0.285
-0.27
-0.26
-0.28
-0.29
-0.295
-0.295
-0.285
-0.245
-0.265
-0.285
-0.295
-0.29
-0.28
-0.245
-0.26
-0.27
-0.285
-0.285
-0.275
-0.25
-0.26
-0.265
-0.28
-0.27
-0.25
-0.255
-0.265
-0.275
-0.275
-0.26
-0.255
-0.245
-0.255
-0.28
-0.265
-0.265
-0.25
-0.24
-0.235
-0.26
-0.275
-0.265
-0.265
-0.24
-0.24
-0.265
-0.265
-0.265
-0.25
-0.235
-0.245
-0.255
-0.27
-0.265
-0.25
-0.235
-0.245
-0.255
-0.265
-0.255
-0.24
-0.22
-0.21
-0.22
-0.23
-0.215
-0.19
-0.19
-0.175
-0.19
-0.2
-0.195
-0.19
-0.17
-0.175
-0.21
-0.21
-0.215
-0.22
-0.225
-0.24
-0.27
-0.265
-0.25
-0.245
-0.24
-0.26
-0.285
-0.305
-0.285
-0.275
-0.27
-0.285
-0.31
-0.335
-0.33
-0.3
-0.28
-0.29
-0.295
-0.295
-0.295
-0.29
-0.28
-0.305
-0.325
-0.305
-0.285
-0.285
-0.265
-0.27
-0.285
-0.285
-0.27
-0.245
-0.24
-0.255
-0.27
-0.27
-0.255
-0.24
-0.23
-0.25
-0.21
-0.15
-0.06
0.06
0.16
0.23
0.295
0.395
0.515
0.7
0.895
1.08
1.28
1.485
1.67
1.795
1.87
1.855
1.805
1.635
1.335
0.95
0.58
0.31
0.16
0.115
0.11
0.14
0.18
0.195
0.17
0.135
0.105
0.09
0.07
0.045
-0.005
-0.04
-0.065
-0.1
-0.145
-0.18
-0.245
-0.275
-0.295
-0.3
-0.315
-0.345
-0.39
-0.415
-0.41
-0.415
-0.39
-0.39
-0.41
-0.425
-0.435
-0.42
-0.425
-0.425
-0.445
-0.45
-0.46
-0.435
-0.445
-0.445
-0.45
-0.46
-0.465
-0.445
-0.445
-0.46
-0.48
-0.5
-0.49
-0.485
-0.47
-0.475
-0.485
-0.505
-0.51
-0.5
-0.495
-0.51
-0.515
-0.53
-0.53
-0.535
-0.535
-0.545
-0.55
-0.55
-0.565
-0.565
-0.565
-0.57
-0.585
-0.585
-0.595
-0.595
-0.585
-0.58
-0.6
-0.6
-0.59
-0.565
-0.555
-0.56
-0.585
-0.59
-0.565
-0.535
-0.505
-0.49
-0.48
-0.475
-0.465
-0.43
-0.38
-0.355
-0.35
-0.345
-0.325
-0.295
-0.275
-0.27
-0.28
-0.275
-0.27
-0.26
-0.235
-0.235
-0.24
-0.255
-0.245
-0.245
-0.24
-0.245
-0.25
-0.26
-0.26
-0.26
-0.245
-0.26
-0.27
-0.28
-0.27
-0.26
-0.245
-0.25
-0.28
-0.28
-0.28
-0.26
-0.25
-0.265
-0.305
-0.305
-0.285
-0.265
-0.26
-0.27
-0.3
-0.315
-0.305
-0.29
-0.27
-0.275
-0.29
-0.3
-0.3
-0.285
-0.275
-0.285
-0.285
-0.305
-0.31
-0.305
-0.275
-0.28
-0.285
-0.295
-0.3
-0.28
-0.275
-0.28
-0.29
-0.29
-0.285
-0.27
-0.275
-0.29
-0.305
-0.295
-0.275
-0.27
-0.26
-0.275
-0.275
-0.29
-0.29
-0.275
-0.26
-0.27
-0.28
-0.3
-0.315
-0.275
-0.265
-0.27
-0.285
-0.315
-0.305
-0.29
-0.27
-0.25
-0.245
-0.26
-0.245
-0.235
-0.225
-0.245
-0.235
-0.225
-0.205
-0.18
-0.21
-0.195
-0.21
-0.22
-0.215
-0.205
-0.195
-0.21
-0.235
-0.245
-0.27
-0.265
-0.255
-0.26
-0.27
-0.29
-0.305
-0.3
-0.285
-0.295
-0.315
-0.325
-0.335
-0.34
-0.31
-0.32
-0.325
-0.34
-0.32
-0.32
-0.3
-0.305
-0.335
-0.32
-0.305
-0.29
-0.285
-0.285
-0.28
-0.3
-0.28
-0.26
-0.24
-0.255
-0.27
-0.26
-0.26
-0.23
-0.175
-0.085
0.01
0.135
0.24
0.345
0.485
0.6
0.745
0.915
1.095
1.265
1.43
1.575
1.71
1.805
1.84
1.79
1.62
1.315
0.9
0.53
0.285
0.17
0.15
0.155
0.155
0.17
0.165
0.155
0.14
0.09
0.045
0.005
-0.035
-0.05
-0.07
-0.125
-0.195
-0.25
-0.285
-0.305
-0.32
-0.355
-0.4
-0.43
-0.44
-0.415
-0.4
-0.4
-0.42
-0.43
-0.445
-0.43
-0.425
-0.43
-0.445
-0.46
-0.465
-0.455
-0.455
-0.455
-0.465
-0.48
-0.475
-0.475
-0.47
-0.48
-0.495
-0.51
-0.5
-0.5
-0.485
-0.505
-0.53
-0.545
-0.535
-0.515
-0.505
-0.53
-0.55
-0.565
-0.575
-0.565
-0.555
-0.57
-0.59
-0.605
-0.62
-0.6
-0.59
-0.59
-0.605
-0.64
-0.63
-0.635
-0.62
-0.63
-0.635
-0.63
-0.625
-0.61
-0.6
-0.59
-0.6
-0.59
-0.57
-0.54
-0.505
-0.505
-0.505
-0.495
-0.46
-0.42
-0.375
-0.39
-0.38
-0.37
-0.345
-0.31
-0.295
-0.28
-0.285
-0.285
-0.29
-0.26
-0.24
-0.245
-0.245
-0.255
-0.26
-0.25
-0.255
-0.255
-0.25
-0.28
-0.265
-0.265
-0.255
-0.255
-0.265
-0.27
-0.275
-0.265
-0.265
-0.26
-0.28
-0.29
-0.29
-0.27
-0.27
-0.28
-0.29
-0.3
-0.28
-0.265
-0.265
-0.275
-0.305
-0.3
-0.285
-0.275
-0.26
-0.275
-0.29
-0.3
-0.285
-0.27
-0.26
-0.265
-0.285
-0.31
-0.3
-0.275
-0.26
-0.265
-0.28
-0.295
-0.295
-0.285
-0.28
-0.285
-0.29
-0.29
-0.29
-0.29
-0.275
-0.27
-0.28
-0.28
-0.28
-0.28
-0.265
-0.28
-0.285
-0.28
-0.285
-0.27
-0.27
-0.275
-0.285
-0.28
-0.265
-0.25
-0.245
-0.275
-0.285
-0.285
-0.275
-0.235
-0.23
-0.25
-0.255
-0.26
-0.245
-0.23
-0.21
-0.21
-0.205
-0.215
-0.22
-0.19
-0.18
-0.19
-0.21
-0.235
-0.245
-0.24
-0.24
-0.265
-0.285
-0.295
-0.28
-0.26
-0.245
-0.26
-0.29
-0.315
-0.31
-0.33
-0.315
-0.305
-0.325
-0.32
-0.315
-0.31
-0.305
-0.31
-0.345
-0.325
-0.33
-0.285
-0.285
-0.28
-0.29
-0.295
-0.28
-0.27
-0.25
-0.255
-0.275
-0.285
-0.27
-0.255
-0.255
-0.25
-0.23
-0.18
-0.075
0.06
0.19
0.305
0.41
0.535
0.695
0.915
1.145
1.385
1.6
1.785
1.895
1.93
1.87
1.72
1.515
1.215
0.855
0.525
0.29
0.18
0.15
0.15
0.185
0.19
0.175
0.14
0.08
0.04
0.01
-0.005
-0.02
-0.065
-0.105
-0.16
-0.18
-0.2
-0.22
-0.26
-0.305
-0.34
-0.36
-0.365
-0.355
-0.365
-0.39
-0.41
-0.42
-0.41
-0.41
-0.415
-0.43
-0.43
-0.43
-0.425
-0.41
-0.44
-0.445
-0.445
-0.45
-0.435
-0.44
-0.46
-0.48
-0.475
-0.475
-0.465
-0.455
-0.475
-0.485
-0.505
-0.505
-0.5
-0.485
-0.49
-0.5
-0.525
-0.53
-0.52
-0.515
-0.535
-0.545
-0.56
-0.565
-0.55
-0.55
-0.545
-0.59
-0.585
-0.58
-0.575
-0.57
-0.58
-0.585
-0.605
-0.595
-0.58
-0.56
-0.57
-0.595
-0.6
-0.59
-0.55
-0.53
-0.525
-0.54
-0.535
-0.515
-0.495
-0.47
-0.445
-0.435
-0.415
-0.39
-0.365
-0.335
-0.33
-0.32
-0.325
-0.29
-0.265
-0.255
-0.255
-0.27
-0.26
-0.245
-0.22
-0.21
-0.215
-0.235
-0.25
-0.255
-0.24
-0.225
-0.24
-0.245
-0.25
-0.26
-0.255
-0.24
-0.245
-0.265
-0.255
-0.27
-0.26
-0.235
-0.245
-0.255
-0.265
-0.25
-0.245
-0.245
-0.26
-0.27
-0.285
-0.275
-0.26
-0.245
-0.265
-0.28
-0.305
-0.29
-0.28
-0.265
-0.255
-0.265
-0.28
-0.285
-0.27
-0.255
-0.26
-0.265
-0.28
-0.285
-0.28
-0.265
-0.265
-0.27
-0.275
-0.265
-0.26
-0.245
-0.27
-0.275
-0.28
-0.265
-0.24
-0.235
-0.25
-0.27
-0.27
-0.285
-0.265
-0.235
-0.245
-0.255
-0.265
-0.27
-0.255
-0.245
-0.255
-0.26
-0.25
-0.25
-0.24
-0.245
-0.26
-0.275
-0.28
-0.26
-0.245
-0.25
-0.245
-0.275
-0.275
-0.265
-0.24
-0.23
-0.24
-0.25
-0.255
-0.255
-0.25
-0.25
-0.23
-0.24
-0.25
-0.255
-0.235
-0.22
-0.2
-0.215
-0.21
-0.2
-0.2
-0.175
-0.175
-0.18
-0.19
-0.19
-0.18
-0.175
-0.185
-0.22
-0.215
-0.225
-0.205
-0.2
-0.225
-0.25
-0.27
-0.265
-0.235
-0.23
-0.235
-0.27
-0.29
-0.305
-0.29
-0.28
-0.285
-0.275
-0.265
-0.255
-0.26
-0.265
-0.275
-0.295
-0.29
-0.29
-0.27
-0.255
-0.26
-0.28
-0.285
-0.27
-0.245
-0.23
-0.22
-0.24
-0.255
-0.27
-0.24
-0.23
-0.23
-0.23
-0.23
-0.225
-0.18
-0.1
-0.005
0.11
0.185
0.275
0.37
0.465
0.57
0.675
0.815
0.955
1.1
1.24
1.375
1.56
1.74
1.87
1.93
1.915
1.785
1.495
1.14
0.76
0.455
0.3
0.225
0.19
0.195
0.21
0.24
0.25
0.22
0.185
0.15
0.115
0.08
0.07
0.03
-0.03
-0.07
-0.105
-0.135
-0.155
-0.2
-0.235
-0.28
-0.315
-0.32
-0.335
-0.35
-0.39
-0.395
-0.415
-0.395
-0.385
-0.41
-0.435
-0.45
-0.44
-0.41
-0.4
-0.395
-0.42
-0.455
-0.445
-0.44
-0.435
-0.44
-0.455
-0.465
-0.465
-0.46
-0.44
-0.445
-0.465
-0.485
-0.48
-0.47
-0.455
-0.47
-0.49
-0.51
-0.535
-0.525
-0.505
-0.495
-0.52
-0.53
-0.535
-0.525
-0.535
-0.555
-0.545
-0.555
-0.55
-0.545
-0.545
-0.58
-0.6
-0.605
-0.6
-0.59
-0.59
-0.595
-0.615
-0.645
-0.65
-0.63
-0.625
-0.625
-0.645
-0.64
-0.635
-0.62
-0.61
-0.61
-0.635
-0.65
-0.635
-0.59
-0.57
-0.57
-0.58
-0.575
-0.56
-0.535
-0.495
-0.495
-0.475
-0.485
-0.445
-0.41
-0.4
-0.385
-0.39
-0.385
-0.35
-0.32
-0.305
-0.295
-0.305
-0.32
-0.285
-0.28
-0.26
-0.255
-0.265
-0.275
-0.275
-0.28
-0.26
-0.26
-0.26
-0.27
-0.26
-0.25
-0.245
-0.255
-0.27
-0.28
-0.275
-0.27
-0.245
-0.26
-0.27
-0.285
-0.295
-0.285
-0.255
-0.265
-0.28
-0.29
-0.3
-0.285
-0.26
-0.275
-0.295
-0.3
-0.285
-0.275
-0.255
-0.26
-0.285
-0.305
-0.3
-0.29
-0.275
-0.275
-0.28
-0.31
-0.305
-0.3
-0.285
-0.295
-0.285
-0.305
-0.295
-0.285
-0.29
-0.295
-0.305
-0.325
-0.315
-0.3
-0.275
-0.285
-0.3
-0.315
-0.325
-0.305
-0.28
-0.275
-0.285
-0.295
-0.31
-0.295
-0.28
-0.285
-0.285
-0.295
-0.27
-0.27
-0.27
-0.275
-0.295
-0.3
-0.3
-0.285
-0.28
-0.29
-0.32
-0.325
-0.315
-0.295
-0.27
-0.27
-0.31
-0.32
-0.315
-0.31
-0.295
-0.29
-0.295
-0.3
-0.3
-0.29
-0.3
-0.3
-0.3
-0.305
-0.29
-0.275
-0.27
-0.285
-0.29
-0.295
-0.285
-0.255
-0.245
-0.255
-0.27
-0.265
-0.28
-0.24
-0.215
-0.225
-0.22
-0.235
-0.225
-0.22
-0.215
-0.23
-0.235
-0.26
-0.27
-0.255
-0.275
-0.285
-0.31
-0.315
-0.28
-0.255
-0.24
-0.25
-0.29
-0.33
-0.35
-0.33
-0.32
-0.315
-0.33
-0.34
-0.35
-0.34
-0.33
-0.325
-0.33
-0.34
-0.335
-0.335
-0.315
-0.335
-0.345
-0.355
-0.33
-0.295
-0.28
-0.285
-0.3
-0.3
-0.3
-0.27
-0.26
-0.265
-0.295
-0.305
-0.3
-0.23
-0.15
-0.055
0.025
0.105
0.175
0.24
0.325
0.405
0.495
0.63
0.82
1.02
1.215
1.41
1.61
1.78
1.885
1.925
1.92
1.825
1.67
1.445
1.195
0.925
0.645
0.385
0.205
0.115
0.105
0.145
0.16
0.15
0.135
0.105
0.06
0.05
0.015
-0.02
-0.075
-0.135
-0.155
-0.16
-0.185
-0.205
-0.255
-0.3
-0.32
-0.335
-0.36
-0.375
-0.41
-0.43
-0.445
-0.43
-0.44
-0.445
-0.455
-0.465
-0.46
-0.45
-0.445
-0.445
-0.475
-0.48
-0.48
-0.47
-0.455
-0.47
-0.48
-0.5
-0.5
-0.49
-0.485
-0.485
-0.515
-0.51
-0.505
-0.495
-0.505
-0.505
-0.52
-0.53
-0.53
-0.52
-0.5
-0.505
-0.545
-0.55
-0.555
-0.545
-0.525
-0.535
-0.555
-0.58
-0.575
-0.575
-0.56
-0.575
-0.595
-0.6
-0.6
-0.58
-0.57
-0.595
-0.62
-0.63
-0.61
-0.6
-0.59
-0.595
-0.605
-0.625
-0.62
-0.62
-0.585
-0.585
-0.595
-0.59
-0.58
-0.56
-0.555
-0.54
-0.535
-0.535
-0.495
-0.465
-0.435
-0.42
-0.415
-0.415
-0.395
-0.355
-0.315
-0.32
-0.33
-0.31
-0.3
-0.28
-0.26
-0.265
-0.27
-0.265
-0.26
-0.245
-0.235
-0.255
-0.28
-0.27
-0.265
-0.245
-0.23
-0.24
-0.265
-0.27
-0.27
-0.265
-0.26
-0.255
-0.26
-0.26
-0.265
-0.255
-0.25
-0.26
-0.28
-0.285
-0.27
-0.265
-0.25
-0.255
-0.265
-0.285
-0.3
-0.295
-0.27
-0.275
-0.27
-0.285
-0.31
-0.285
-0.27
-0.28
-0.29
-0.3
-0.29
-0.28
-0.27
-0.285
-0.305
-0.32
-0.305
-0.27
-0.26
-0.27
-0.305
-0.315
-0.325
-0.285
-0.265
-0.255
-0.27
-0.28
-0.285
-0.28
-0.27
-0.29
-0.285
-0.295
-0.28
-0.265
-0.255
-0.27
-0.285
-0.305
-0.305
-0.265
-0.255
-0.255
-0.27
-0.28
-0.295
-0.29
-0.265
-0.265
-0.28
-0.29
-0.28
-0.265
-0.27
-0.295
-0.3
-0.3
-0.29
-0.27
-0.25
-0.275
-0.285
-0.3
-0.29
-0.27
-0.275
-0.28
-0.28
-0.285
-0.29
-0.27
-0.26
-0.275
-0.28
-0.29
-0.285
-0.27
-0.265
-0.275
-0.285
-0.295
-0.275
-0.27
-0.255
-0.275
-0.295
-0.305
-0.28
-0.265
-0.245
-0.245
-0.25
-0.25
-0.24
-0.215
-0.19
-0.2
-0.215
-0.23
-0.225
-0.215
-0.2
-0.205
-0.23
-0.24
-0.24
-0.24
-0.23
-0.245
-0.285
-0.29
-0.27
-0.265
-0.245
-0.28
-0.315
-0.325
-0.32
-0.325
-0.31
-0.315
-0.34
-0.345
-0.345
-0.34
-0.31
-0.31
-0.32
-0.335
-0.335
-0.315
-0.295
-0.29
-0.29
-0.305
-0.295
-0.275
-0.265
-0.27
-0.28
-0.28
-0.27
-0.25
-0.24
-0.255
-0.27
-0.29
-0.24
-0.115
0.035
0.15
0.23
0.33
0.46
0.635
0.83
1.005
1.14
1.27
1.435
1.675
1.87
1.95
1.88
1.66
1.3
0.89
0.54
0.315
0.21
0.17
0.18
0.21
0.215
0.195
0.175
0.155
0.125
0.1
0.055
-0.005
-0.065
-0.1
-0.14
-0.145
-0.175
-0.245
-0.3
-0.34
-0.36
-0.365
-0.375
-0.4
-0.42
-0.445
-0.445
-0.435
-0.43
-0.44
-0.455
-0.465
-0.47
-0.475
-0.475
-0.47
-0.485
-0.48
-0.48
-0.47
-0.495
-0.485
-0.52
-0.525
-0.515
-0.505
-0.485
-0.505
-0.5
-0.525
-0.525
-0.515
-0.52
-0.52
-0.53
-0.56
-0.555
-0.55
-0.55
-0.555
-0.575
-0.585
-0.58
-0.585
-0.575
-0.6
-0.625
-0.625
-0.61
-0.615
-0.615
-0.635
-0.655
-0.695
-0.68
-0.67
-0.655
-0.68
-0.69
-0.71
-0.71
-0.705
-0.69
-0.69
-0.695
-0.7
-0.685
-0.66
-0.635
-0.63
-0.64
-0.63
-0.625
-0.58
-0.555
-0.545
-0.535
-0.525
-0.495
-0.445
-0.415
-0.395
-0.4
-0.39
-0.385
-0.37
-0.345
-0.335
-0.335
-0.315
-0.305
-0.29
-0.27
-0.285
-0.295
-0.3
-0.305
-0.275
-0.25
-0.255
-0.27
-0.28
-0.285
-0.275
-0.26
-0.275
-0.265
-0.27
-0.27
-0.265
-0.27
-0.26
-0.285
-0.275
-0.275
-0.265
-0.275
-0.275
-0.285
-0.295
-0.285
-0.27
-0.255
-0.255
-0.275
-0.29
-0.295
-0.295
-0.275
-0.285
-0.3
-0.295
-0.305
-0.29
-0.295
-0.295
-0.295
-0.315
-0.295
-0.27
-0.27
-0.275
-0.295
-0.31
-0.31
-0.295
-0.29
-0.28
-0.29
-0.3
-0.31
-0.31
-0.285
-0.265
-0.29
-0.3
-0.3
-0.3
-0.28
-0.28
-0.3
-0.305
-0.305
-0.275
-0.275
-0.285
-0.305
-0.305
-0.285
-0.26
-0.25
-0.265
-0.29
-0.315
-0.3
-0.285
-0.255
-0.265
-0.28
-0.28
-0.28
-0.275
-0.27
-0.28
-0.29
-0.305
-0.305
-0.285
-0.28
-0.285
-0.285
-0.285
-0.28
-0.27
-0.26
-0.28
-0.29
-0.285
-0.29
-0.27
-0.26
-0.27
-0.26
-0.28
-0.285
-0.255
-0.24
-0.235
-0.235
-0.24
-0.24
