Lead II
1.195
1.165
1.125
1.105
1.075
1.03
0.985
0.93
0.895
0.87
0.825
0.77
0.7
0.655
0.59
0.54
0.48
0.42
0.37
0.295
0.235
0.19
0.155
0.105
0.05
0.0
-0.035
-0.07
-0.1
-0.135
-0.175
-0.225
-0.25
-0.26
-0.27
-0.3
-0.32
-0.34
-0.365
-0.37
-0.365
-0.38
-0.395
-0.405
-0.425
-0.425
-0.42
-0.42
-0.43
-0.45
-0.465
-0.465
-0.465
-0.46
-0.47
-0.47
-0.495
-0.495
-0.49
-0.485
-0.51
-0.51
-0.53
-0.535
-0.535
-0.53
-0.515
-0.515
-0.515
-0.52
-0.505
-0.5
-0.5
-0.51
-0.495
-0.48
-0.445
-0.43
-0.41
-0.395
-0.38
-0.345
-0.3
-0.265
-0.245
-0.225
-0.23
-0.21
-0.185
-0.16
-0.15
-0.17
-0.19
-0.225
-0.24
-0.25
-0.27
-0.28
-0.285
-0.29
-0.28
-0.285
-0.315
-0.335
-0.365
-0.39
-0.435
-0.465
-0.485
-0.5
-0.53
-0.545
-0.575
-0.6
-0.645
-0.65
-0.685
-0.69
-0.695
-0.715
-0.73
-0.765
-0.785
-0.785
-0.79
-0.81
-0.81
-0.84
-0.855
-0.855
-0.84
-0.84
-0.84
-0.85
-0.865
-0.85
-0.85
-0.845
-0.865
-0.87
-0.88
-0.865
-0.87
-0.86
-0.875
-0.88
-0.88
-0.87
-0.875
-0.875
-0.88
-0.89
-0.91
-0.895
-0.885
-0.895
-0.89
-0.885
-0.87
-0.875
-0.86
-0.855
-0.86
-0.87
-0.87
-0.845
-0.82
-0.82
-0.805
-0.795
-0.765
-0.69
-0.5
-0.145
0.45
1.085
1.55
1.615
1.415
1.205
1.09
1.025
0.92
0.815
0.71
0.62
0.525
0.44
0.345
0.26
0.16
0.045
-0.075
-0.21
-0.355
-0.49
-0.63
-0.78
-0.92
-1.055
-1.2
-1.335
-1.465
-1.61
-1.77
-1.895
-1.97
-2.035
-2.08
-2.115
-2.17
-2.255
-2.34
-2.435
-2.495
-2.54
-2.59
-2.645
-2.715
-2.705
-2.665
-2.6
-2.515
-2.425
-2.325
-2.19
-2.035
-1.935
-1.88
-1.84
-1.795
-1.735
-1.69
-1.64
-1.595
-1.575
-1.57
-1.56
-1.525
-1.48
-1.415
-1.36
-1.315
-1.265
-1.21
-1.16
-1.12
-1.075
-1.01
-0.94
-0.87
-0.785
-0.72
-0.655
-0.62
-0.56
-0.525
-0.5
-0.495
-0.49
-0.465
-0.425
-0.395
-0.36
-0.365
-0.355
-0.34
-0.325
-0.285
-0.26
-0.245
-0.245
-0.225
-0.21
-0.16
-0.14
-0.115
-0.1
-0.07
-0.04
0.005
0.025
0.06
0.09
0.115
0.145
0.185
0.22
0.24
0.27
0.295
0.33
0.37
0.4
0.42
0.42
0.445
0.475
0.495
0.52
0.515
0.515
0.505
0.52
0.525
0.53
0.525
0.495
0.475
0.47
0.445
0.425
0.395
0.36
0.335
0.31
0.295
0.265
0.255
0.215
0.2
0.19
0.175
0.155
0.135
0.125
0.095
0.075
0.05
0.015
-0.04
-0.075
-0.115
-0.125
-0.145
-0.2
-0.26
-0.32
-0.375
-0.41
-0.445
-0.5
-0.52
-0.55
-0.575
-0.585
-0.585
-0.62
-0.67
-0.7
-0.755
-0.795
-0.81
-0.825
-0.845
-0.87
-0.91
-0.935
-0.975
-1.005
-1.03
-1.055
-1.08
-1.08
-1.09
-1.09
-1.095
-1.115
-1.15
-1.155
-1.15
-1.16
-1.175
-1.165
-1.15
-1.14
-1.12
-1.13
-1.145
-1.15
-1.125
-1.115
-1.105
-1.12
-1.14
-1.15
-1.175
-1.155
-1.145
-1.16
-1.17
-1.175
-1.185
-1.155
-1.14
-1.125
-1.125
-1.135
-1.135
-1.125
-1.095
-1.095
-1.075
-1.075
-1.1
-1.12
-1.11
-1.12
-1.11
-1.11
-1.115
-1.11
-1.115
-1.115
-1.11
-1.12
-1.135
-1.125
-1.105
-1.11
-1.11
-1.11
-1.11
-1.105
-1.1
-1.13
-1.13
-1.12
-1.11
-1.095
-1.1
-1.095
-1.075
-1.08
-1.095
-1.09
-1.085
-1.085
-1.095
-1.12
-1.11
-1.1
-1.08
-1.075
-1.08
-1.085
-1.09
-1.075
-1.04
-1.06
-1.07
-1.065
-1.06
-1.055
-1.035
-1.045
-1.04
-1.055
-1.06
-1.04
-1.02
-1.005
-1.025
-1.035
-1.03
-1.03
-1.01
-1.01
-1.005
-0.99
-0.99
-0.965
-0.965
-0.965
-0.985
-0.98
-0.98
-0.955
-0.925
-0.93
-0.93
-0.94
-0.935
-0.91
-0.89
-0.855
-0.85
-0.81
-0.755
-0.635
-0.415
0.005
0.635
1.27
1.7
1.775
1.61
1.415
1.29
1.195
1.085
0.98
0.87
0.77
0.655
0.535
0.435
0.33
0.24
0.11
-0.015
-0.145
-0.285
-0.42
-0.53
-0.655
-0.82
-0.97
-1.135
-1.295
-1.455
-1.645
-1.81
-1.97
-2.11
-2.19
-2.245
-2.255
-2.295
-2.33
-2.36
-2.4
-2.465
-2.55
-2.595
-2.62
-2.65
-2.65
-2.665
-2.675
-2.655
-2.625
-2.55
-2.445
-2.315
-2.18
-2.005
-1.895
-1.77
-1.685
-1.63
-1.575
-1.525
-1.455
-1.405
-1.34
-1.3
-1.3
-1.285
-1.28
-1.24
-1.175
-1.09
-1.03
-0.965
-0.925
-0.89
-0.845
-0.79
-0.725
-0.64
-0.56
-0.48
-0.395
-0.3
-0.22
-0.145
-0.075
-0.015
0.06
0.11
0.155
0.195
0.235
0.275
0.315
0.37
0.42
0.475
0.53
0.585
0.62
0.65
0.655
0.635
0.645
0.665
0.725
0.755
0.805
0.845
0.855
0.875
0.885
0.925
0.955
0.98
0.98
0.995
1.005
1.03
1.04
1.045
1.04
1.04
1.06
1.09
1.095
1.1
1.105
1.1
1.085
1.1
1.11
1.085
1.065
1.045
1.035
1.045
1.04
1.035
1.03
0.99
0.975
0.94
0.875
0.8
0.74
0.665
0.635
0.61
0.575
0.53
0.475
0.415
0.355
0.31
0.245
0.165
0.095
0.04
-0.01
-0.05
-0.085
-0.135
-0.185
-0.23
-0.26
-0.295
-0.33
-0.375
-0.42
-0.47
-0.5
-0.505
-0.535
-0.555
-0.585
-0.6
-0.62
-0.62
-0.64
-0.645
-0.68
-0.69
-0.69
-0.68
-0.675
-0.7
-0.71
-0.705
-0.7
-0.69
-0.695
-0.715
-0.725
-0.74
-0.72
-0.72
-0.695
-0.705
-0.715
-0.725
-0.72
-0.71
-0.7
-0.69
-0.69
-0.695
-0.71
-0.71
-0.715
-0.72
-0.715
-0.71
-0.705
-0.695
-0.685
-0.705
-0.715
-0.73
-0.715
-0.71
-0.7
-0.7
-0.705
-0.69
-0.675
-0.675
-0.675
-0.68
-0.675
-0.665
-0.665
-0.645
-0.645
-0.635
-0.645
-0.665
-0.655
-0.655
-0.655
-0.665
-0.655
-0.665
-0.645
-0.64
-0.635
-0.64
-0.635
-0.63
-0.635
-0.64
-0.655
-0.655
-0.66
-0.66
-0.65
-0.63
-0.625
-0.615
-0.62
-0.62
-0.625
-0.635
-0.655
-0.685
-0.685
-0.675
-0.645
-0.625
-0.62
-0.625
-0.62
-0.625
-0.62
-0.605
-0.61
-0.62
-0.62
-0.615
-0.6
-0.6
-0.59
-0.6
-0.6
-0.59
-0.58
-0.58
-0.565
-0.565
-0.575
-0.575
-0.575
-0.57
-0.57
-0.575
-0.565
-0.57
-0.55
-0.55
-0.55
-0.54
-0.55
-0.54
-0.53
-0.52
-0.51
-0.52
-0.505
-0.48
-0.46
-0.45
-0.44
-0.42
-0.405
-0.36
-0.24
-0.01
0.47
1.105
1.74
2.105
1.995
1.805
1.665
1.6
1.515
1.405
1.305
1.2
1.11
1.02
0.935
0.855
0.76
0.645
0.515
0.35
0.22
0.08
-0.035
-0.14
-0.265
-0.435
-0.625
-0.81
-0.94
-1.06
-1.175
-1.29
-1.395
-1.485
-1.555
-1.61
-1.675
-1.78
-1.91
-2.025
-2.105
-2.155
-2.22
-2.28
-2.32
-2.295
-2.19
-2.04
-1.89
-1.76
-1.65
-1.53
-1.45
-1.38
-1.325
-1.29
-1.265
-1.22
-1.175
-1.15
-1.125
-1.13
-1.115
-1.06
-0.99
-0.905
-0.83
-0.78
-0.735
-0.68
-0.63
-0.56
-0.495
-0.415
-0.33
-0.25
-0.19
-0.105
-0.065
-0.045
-0.015
-0.01
0.0
0.015
0.05
0.06
0.1
0.105
0.14
0.185
0.205
0.23
0.25
0.26
0.3
0.325
0.355
0.375
0.415
0.445
0.495
0.54
0.59
0.63
0.65
0.685
0.71
0.735
0.765
0.79
0.81
0.855
0.895
0.96
1.005
1.04
1.06
1.075
1.115
1.14
1.135
1.14
1.14
1.135
1.16
1.18
1.18
1.18
1.17
1.145
1.15
1.115
1.1
1.065
1.035
1.01
0.98
0.94
0.89
0.835
0.79
0.745
0.71
0.675
0.625
0.57
0.505
0.45
0.41
0.37
0.32
0.255
0.195
0.135
0.11
0.075
0.025
-0.04
-0.075
-0.12
-0.145
-0.155
-0.18
-0.215
-0.28
-0.31
-0.32
-0.335
-0.35
-0.35
-0.355
-0.36
-0.36
-0.375
-0.39
-0.39
-0.405
-0.415
-0.43
-0.425
-0.425
-0.425
-0.425
-0.425
-0.42
-0.415
-0.42
-0.42
-0.43
-0.42
-0.415
-0.405
-0.41
-0.425
-0.44
-0.44
-0.435
-0.42
-0.42
-0.405
-0.41
-0.41
-0.41
-0.4
-0.385
-0.395
-0.395
-0.38
-0.375
-0.37
-0.375
-0.37
-0.385
-0.395
-0.39
-0.375
-0.38
-0.37
-0.37
-0.36
-0.36
-0.345
-0.34
-0.345
-0.355
-0.365
-0.355
-0.345
-0.34
-0.34
-0.35
-0.37
-0.37
-0.365
-0.365
-0.35
-0.38
-0.355
-0.345
-0.325
-0.315
-0.325
-0.345
-0.38
-0.385
-0.375
-0.35
-0.36
-0.355
-0.35
-0.31
-0.285
-0.285
-0.27
-0.27
-0.255
-0.195
-0.14
-0.115
-0.095
-0.09
-0.08
-0.05
-0.02
0.025
0.065
0.075
0.075
0.04
0.015
0.005
0.005
-0.01
-0.005
0.0
0.005
0.005
-0.01
-0.035
-0.065
-0.075
-0.1
-0.125
-0.155
-0.195
-0.215
-0.22
-0.23
-0.25
-0.27
-0.29
-0.295
-0.305
-0.305
-0.29
-0.29
-0.29
-0.285
-0.23
-0.07
0.29
0.925
1.56
2.035
2.035
1.84
1.66
1.555
1.475
1.36
1.235
1.14
1.025
0.915
0.805
0.71
0.585
0.48
0.36
0.215
0.07
-0.085
-0.275
-0.47
-0.7
-0.905
-1.1
-1.305
-1.505
-1.7
-1.855
-1.955
-2.01
-2.04
-2.045
-2.055
-2.13
-2.23
-2.33
-2.415
-2.45
-2.475
-2.515
-2.535
-2.475
-2.34
-2.175
-2.01
-1.82
-1.655
-1.515
-1.41
-1.335
-1.245
-1.19
-1.13
-1.05
-1.01
-0.98
-0.95
-0.91
-0.86
-0.78
-0.705
-0.625
-0.55
-0.485
-0.425
-0.35
-0.265
-0.16
-0.07
0.025
0.115
0.19
0.235
0.28
0.33
0.34
0.38
0.41
0.445
0.48
0.495
0.53
0.555
0.57
0.595
0.645
0.68
0.7
0.74
0.765
0.8
0.825
0.87
0.915
0.96
1.0
1.025
1.06
1.09
1.135
1.175
1.21
1.24
1.26
1.28
1.315
1.345
1.38
1.375
1.41
1.425
1.46
1.455
1.45
1.43
1.445
1.46
1.465
1.44
1.4
1.385
1.375
1.365
1.33
1.29
1.245
1.21
1.18
1.155
1.105
1.05
1.005
0.955
0.915
0.88
0.82
0.75
0.69
0.64
0.6
0.555
0.5
0.43
0.37
0.32
0.275
0.25
0.215
0.17
0.125
0.095
0.075
0.05
0.01
-0.03
-0.05
-0.05
-0.055
-0.065
-0.08
-0.095
-0.105
-0.125
-0.14
-0.13
-0.14
-0.15
-0.165
-0.17
-0.17
-0.155
-0.15
-0.145
-0.135
-0.12
-0.06
-0.06
-0.045
-0.03
-0.015
0.035
0.095
0.12
0.15
0.165
0.185
0.19
0.225
0.245
0.29
0.28
0.255
0.235
0.215
0.205
0.19
0.2
0.205
0.205
0.205
0.195
0.175
0.165
0.135
0.11
0.09
0.08
0.065
0.03
0.0
-0.025
-0.055
-0.075
-0.1
-0.125
-0.155
-0.17
-0.17
-0.175
-0.2
-0.225
-0.25
-0.29
-0.285
-0.275
-0.275
-0.28
-0.285
-0.3
-0.3
-0.29
-0.28
-0.29
-0.31
-0.31
-0.305
-0.31
-0.315
-0.325
-0.325
-0.335
-0.32
-0.33
-0.325
-0.32
-0.335
-0.33
-0.33
-0.315
-0.31
-0.32
-0.33
-0.345
-0.345
-0.325
-0.315
-0.32
-0.33
-0.335
-0.32
-0.305
-0.32
-0.315
-0.335
-0.34
-0.345
-0.335
-0.325
-0.335
-0.34
-0.34
-0.315
-0.315
-0.315
-0.315
-0.325
-0.32
-0.31
-0.29
-0.29
-0.29
-0.295
-0.275
-0.26
-0.24
-0.21
-0.175
-0.09
0.135
0.63
1.265
1.88
2.03
1.89
1.695
1.595
1.535
1.465
1.355
1.25
1.145
1.08
1.01
0.92
0.8
0.65
0.5
0.335
0.175
0.025
-0.16
-0.34
-0.52
-0.675
-0.835
-1.02
-1.185
-1.32
-1.435
-1.485
-1.535
-1.59
-1.685
-1.775
-1.89
-2.0
-2.075
-2.13
-2.205
-2.29
-2.365
-2.36
-2.3
-2.18
-2.025
-1.87
-1.705
-1.535
-1.39
-1.29
-1.24
-1.21
-1.155
-1.075
-1.005
-0.965
-0.935
-0.93
-0.915
-0.86
-0.79
-0.7
-0.62
-0.555
-0.49
-0.445
-0.38
-0.335
-0.27
-0.18
-0.1
-0.015
0.06
0.12
0.175
0.23
0.26
0.28
0.3
0.32
0.33
0.34
0.355
0.385
0.405
0.41
0.425
0.435
0.45
0.49
0.52
0.565
0.585
0.61
0.615
0.64
0.68
0.73
0.755
0.775
0.785
0.825
0.865
0.9
0.935
0.95
0.98
1.01
1.055
1.085
1.095
1.115
1.16
1.195
1.24
1.27
1.265
1.26
1.275
1.325
1.35
1.39
1.41
1.395
1.39
1.405
1.405
1.39
1.385
1.375
1.35
1.33
1.28
1.225
1.175
1.12
1.07
1.04
1.02
0.99
0.945
0.89
0.83
0.77
0.72
0.64
0.555
0.49
0.405
0.345
0.275
0.195
0.105
0.04
-0.02
-0.07
-0.1
-0.15
-0.2
-0.225
-0.255
-0.28
-0.3
-0.345
-0.4
-0.425
-0.43
-0.43
-0.43
-0.445
-0.47
-0.475
-0.485
-0.475
-0.48
-0.495
-0.49
-0.5
-0.505
-0.485
-0.49
-0.485
-0.5
-0.5
-0.52
-0.51
-0.515
-0.52
-0.535
-0.525
-0.52
-0.505
-0.485
-0.485
-0.48
-0.49
-0.5
-0.5
-0.48
-0.48
-0.475
-0.485
-0.485
-0.47
-0.45
-0.455
-0.465
-0.485
-0.495
-0.485
-0.48
-0.495
-0.5
-0.495
-0.49
-0.47
-0.47
-0.475
-0.47
-0.475
-0.48
-0.475
-0.47
-0.47
-0.47
-0.48
-0.5
-0.495
-0.49
-0.485
-0.48
-0.485
-0.475
-0.475
-0.475
-0.475
-0.475
-0.48
-0.49
-0.49
-0.485
-0.485
-0.49
-0.485
-0.49
-0.48
-0.465
-0.47
-0.475
-0.48
-0.485
-0.47
-0.46
-0.455
-0.47
-0.475
-0.465
-0.455
-0.44
-0.435
-0.455
-0.455
-0.445
-0.435
-0.425
-0.425
-0.44
-0.45
-0.45
-0.44
-0.425
-0.415
-0.425
-0.42
-0.415
-0.41
-0.405
-0.395
-0.4
-0.395
-0.39
-0.385
-0.355
-0.36
-0.36
-0.37
-0.37
-0.37
-0.35
-0.345
-0.35
-0.33
-0.32
-0.28
-0.245
-0.18
-0.035
0.3
0.865
1.5
1.93
1.935
1.73
1.555
1.465
1.435
1.36
1.265
1.16
1.08
0.995
0.93
0.87
0.76
0.635
0.5
0.355
0.195
0.025
-0.155
-0.34
-0.55
-0.785
-1.035
-1.265
-1.49
-1.665
-1.815
-1.92
-1.98
-2.04
-2.11
-2.195
-2.315
-2.435
-2.51
-2.565
-2.62
-2.675
-2.715
-2.7
-2.59
-2.405
-2.195
-2.015
-1.795
-1.6
-1.44
-1.345
-1.3
-1.225
-1.16
-1.065
-0.965
-0.89
-0.84
-0.805
-0.745
-0.66
-0.54
-0.415
-0.295
-0.205
-0.135
-0.06
0.05
0.175
0.27
0.345
0.4
0.455
0.515
0.575
0.635
0.67
0.69
0.7
0.715
0.735
0.735
0.735
0.73
0.715
0.735
0.74
0.745
0.75
0.745
0.74
0.745
0.77
0.79
0.805
0.815
0.825
0.85
0.885
0.92
0.93
0.925
0.935
0.965
1.03
1.085
1.1
1.12
1.13
1.16
1.185
1.215
1.245
1.26
1.275
1.285
1.3
1.29
1.28
1.27
1.275
1.285
1.29
1.27
1.25
1.215
1.19
1.165
1.155
1.13
1.085
1.04
0.995
0.95
0.905
0.86
0.805
0.74
0.685
0.645
0.6
0.55
0.49
0.43
0.365
0.315
0.275
0.225
0.155
0.1
0.05
0.0
-0.015
-0.065
-0.085
-0.115
-0.145
-0.165
-0.185
-0.2
-0.22
-0.23
-0.275
-0.31
-0.32
-0.315
-0.305
-0.32
-0.335
-0.345
-0.34
-0.345
-0.355
-0.375
-0.365
-0.355
-0.36
-0.37
-0.38
-0.395
-0.4
-0.385
-0.375
-0.375
-0.37
-0.375
-0.375
-0.375
-0.38
-0.38
-0.375
-0.38
-0.37
-0.37
-0.365
-0.37
-0.365
-0.355
-0.36
-0.355
-0.345
-0.35
-0.355
-0.365
-0.37
-0.365
-0.35
-0.34
-0.34
-0.345
-0.355
-0.34
-0.33
-0.34
-0.33
-0.33
-0.33
-0.315
-0.325
-0.315
-0.34
-0.335
-0.335
-0.33
-0.33
-0.33
-0.335
-0.355
-0.35
-0.345
-0.325
-0.335
-0.345
-0.34
-0.335
-0.325
-0.315
-0.315
-0.325
-0.34
-0.345
-0.335
-0.335
-0.33
-0.32
-0.335
-0.33
-0.305
-0.3
-0.315
-0.335
-0.36
-0.345
-0.32
-0.31
-0.315
-0.32
-0.33
-0.325
-0.32
-0.315
-0.315
-0.32
-0.34
-0.335
-0.32
-0.31
-0.31
-0.31
-0.305
-0.305
-0.32
-0.31
-0.3
-0.31
-0.31
-0.32
-0.315
-0.305
-0.295
-0.3
-0.3
-0.315
-0.305
-0.285
-0.295
-0.3
-0.305
-0.3
-0.275
-0.255
-0.25
-0.265
-0.28
-0.28
-0.235
-0.195
-0.15
-0.115
-0.09
-0.025
0.15
0.475
0.965
1.495
1.835
1.93
1.87
1.8
1.72
1.68
1.64
1.575
1.5
1.405
1.305
1.205
1.1
0.985
0.865
0.745
0.61
0.45
0.265
0.09
-0.085
-0.26
-0.455
-0.66
-0.865
-1.065
-1.24
-1.41
-1.545
-1.64
-1.73
-1.835
-1.87
-1.925
-1.98
-2.075
-2.19
-2.275
-2.33
-2.38
-2.465
-2.55
-2.595
-2.58
-2.485
-2.36
-2.2
-2.055
-1.88
-1.725
-1.575
-1.47
-1.405
-1.355
-1.315
-1.25
-1.19
-1.15
-1.145
-1.15
-1.14
-1.115
-1.055
-0.945
-0.885
-0.83
-0.79
-0.755
-0.685
-0.615
-0.545
-0.47
-0.41
-0.335
-0.245
-0.175
-0.115
-0.075
-0.035
-0.01
0.02
0.05
0.05
0.07
0.075
0.085
0.105
0.14
0.145
0.165
0.17
0.165
0.2
0.22
0.23
0.26
0.265
0.3
0.325
0.35
0.37
0.395
0.41
0.43
0.475
0.49
0.515
0.535
0.57
0.585
0.625
0.66
0.69
0.71
0.73
0.73
0.76
0.79
0.82
0.835
0.845
0.85
0.87
0.885
0.885
0.89
0.895
0.88
0.89
0.91
0.9
0.895
0.87
0.865
0.865
0.855
0.83
0.81
0.79
0.76
0.75
0.73
0.7
0.655
0.63
0.59
0.56
0.525
0.49
0.445
0.395
0.345
0.31
0.255
0.215
0.155
0.11
0.075
0.03
0.0
-0.045
-0.085
-0.115
-0.155
-0.175
-0.19
-0.2
-0.235
-0.265
-0.285
-0.285
-0.295
-0.315
-0.33
-0.345
-0.35
-0.35
-0.35
-0.365
-0.375
-0.385
-0.395
-0.4
-0.4
-0.385
-0.4
-0.405
-0.415
-0.405
-0.415
-0.41
-0.425
-0.425
-0.43
-0.42
-0.405
-0.41
-0.415
-0.42
-0.445
-0.43
-0.43
-0.42
-0.41
-0.42
-0.425
-0.42
-0.405
-0.41
-0.405
-0.415
-0.41
-0.415
-0.405
-0.4
-0.39
-0.4
-0.4
-0.39
-0.37
-0.385
-0.39
-0.39
-0.4
-0.375
-0.37
-0.365
-0.37
-0.385
-0.4
-0.395
-0.38
-0.385
-0.385
-0.385
-0.385
-0.385
-0.37
-0.36
-0.35
-0.35
-0.335
-0.315
-0.295
-0.275
-0.255
-0.24
-0.225
-0.19
-0.165
-0.13
-0.14
-0.125
-0.11
-0.065
-0.03
-0.02
-0.04
-0.07
-0.095
-0.1
-0.09
-0.095
-0.095
-0.1
-0.11
-0.11
-0.095
-0.1
-0.115
-0.145
-0.18
-0.195
-0.21
-0.235
-0.25
-0.295
-0.32
-0.33
-0.34
-0.355
-0.38
-0.41
-0.435
-0.445
-0.435
-0.445
-0.47
-0.485
-0.495
-0.5
-0.51
-0.515
-0.52
-0.55
-0.545
-0.53
-0.52
-0.53
-0.52
-0.535
-0.53
-0.52
-0.51
-0.505
-0.51
-0.51
-0.505
-0.49
-0.47
-0.455
-0.43
-0.4
-0.33
-0.19
0.115
0.62
1.21
1.6
1.68
1.555
1.415
1.34
1.28
1.205
1.135
1.055
0.995
0.925
0.865
0.815
0.76
0.71
0.665
0.595
0.525
0.44
0.365
0.29
0.21
0.105
-0.01
-0.13
-0.235
-0.33
-0.42
-0.53
-0.65
-0.77
-0.86
-0.915
-0.935
-0.94
-0.96
-0.95
-0.97
-1.02
-1.165
-1.3
-1.42
-1.515
-1.635
-1.755
-1.85
-1.915
-1.91
-1.87
-1.825
-1.72
-1.595
-1.5
-1.405
-1.345
-1.33
-1.3
-1.27
-1.245
-1.225
-1.21
-1.175
-1.145
-1.13
-1.135
-1.135
-1.14
-1.105
-1.025
-0.97
-0.915
-0.875
-0.84
-0.78
-0.71
-0.635
-0.565
-0.495
-0.43
-0.365
-0.285
-0.2
-0.135
-0.105
-0.085
-0.065
-0.045
-0.03
-0.015
0.005
0.02
0.025
0.055
0.08
0.1
0.115
0.125
0.125
0.145
0.195
0.215
0.225
0.24
0.255
0.28
0.31
0.34
0.36
0.38
0.39
0.42
0.445
0.485
0.505
0.53
0.545
0.575
0.61
0.63
0.645
0.655
0.675
0.705
0.75
0.765
0.77
0.78
0.78
0.82
0.855
0.855
0.855
0.845
0.85
0.855
0.86
0.865
0.85
0.82
0.795
0.795
0.78
0.765
0.725
0.695
0.655
0.625
0.6
0.57
0.52
0.475
0.445
0.4
0.36
0.31
0.26
0.21
0.155
0.12
0.095
0.055
0.005
-0.035
-0.07
-0.1
-0.125
-0.155
-0.185
-0.215
-0.225
-0.235
-0.23
-0.235
-0.25
-0.25
-0.24
-0.2
-0.165
-0.14
-0.105
-0.095
-0.085
-0.07
-0.055
-0.04
-0.025
-0.02
-0.03
-0.045
-0.06
-0.075
-0.11
-0.135
-0.145
-0.145
-0.14
-0.13
-0.135
-0.145
-0.16
-0.18
-0.19
-0.21
-0.25
-0.275
-0.305
-0.3
-0.3
-0.335
-0.37
-0.41
-0.43
-0.45
-0.465
-0.49
-0.5
-0.515
-0.525
-0.53
-0.525
-0.545
-0.565
-0.575
-0.58
-0.57
-0.575
-0.565
-0.575
-0.595
-0.585
-0.59
-0.58
-0.595
-0.61
-0.62
-0.615
-0.605
-0.595
-0.595
-0.615
-0.63
-0.62
-0.61
-0.6
-0.605
-0.595
-0.6
-0.63
-0.61
-0.595
-0.6
-0.605
-0.61
-0.62
-0.61
-0.595
-0.6
-0.605
-0.62
-0.625
-0.61
-0.61
-0.615
-0.615
-0.62
-0.62
-0.61
-0.61
-0.6
-0.61
-0.62
-0.61
-0.615
-0.6
-0.595
-0.6
-0.605
-0.61
-0.6
-0.6
-0.585
-0.59
-0.6
-0.59
-0.565
-0.56
-0.56
-0.58
-0.595
-0.61
-0.6
-0.59
-0.59
-0.595
-0.59
-0.585
-0.57
-0.545
-0.555
-0.555
-0.555
-0.56
-0.545
-0.525
-0.51
-0.49
-0.505
-0.505
-0.475
-0.45
-0.415
-0.375
-0.26
0.015
0.495
1.095
1.575
1.73
1.615
1.45
1.365
1.335
1.26
1.175
1.075
0.995
0.925
0.845
0.735
0.635
0.51
0.39
0.265
0.125
-0.035
-0.185
-0.34
-0.515
-0.675
-0.845
-1.01
-1.19
-1.4
-1.605
-1.785
-1.95
-2.085
-2.18
-2.245
-2.3
-2.35
-2.405
-2.43
-2.505
-2.605
-2.68
-2.72
-2.76
-2.805
-2.85
-2.88
-2.875
-2.81
-2.69
-2.545
-2.37
-2.22
-2.02
-1.825
-1.675
-1.555
-1.49
-1.44
-1.375
-1.3
-1.225
-1.155
-1.115
-1.1
-1.07
-1.04
-1.0
-0.925
-0.84
-0.76
-0.69
-0.61
-0.56
-0.51
-0.44
-0.385
-0.3
-0.215
-0.115
-0.045
0.03
0.08
0.125
0.19
0.245
0.275
0.295
0.31
0.335
0.37
0.375
0.4
0.42
0.45
0.465
0.49
0.525
0.55
0.57
0.6
0.615
0.655
0.705
0.74
0.765
0.81
0.85
0.885
0.945
0.99
1.045
1.11
1.16
1.235
1.28
1.32
1.35
1.38
1.405
1.47
1.52
1.54
1.54
1.53
1.505
1.5
1.51
1.52
1.525
1.52
1.51
1.505
1.51
1.48
1.435
1.41
1.375
1.35
1.32
1.275
1.21
1.165
1.115
1.065
1.005
0.945
0.87
0.8
0.715
0.665
0.605
0.55
0.465
0.39
0.305
0.255
0.225
0.16
0.07
0.03
-0.025
-0.07
-0.105
-0.145
-0.185
-0.235
-0.275
-0.28
-0.295
-0.32
-0.365
-0.405
-0.425
-0.42
-0.43
-0.455
-0.465
-0.48
-0.485
-0.47
-0.485
-0.5
-0.51
-0.535
-0.53
-0.53
-0.53
-0.52
-0.53
-0.535
-0.56
-0.58
-0.58
-0.56
-0.55
-0.53
-0.525
-0.53
-0.52
-0.53
-0.52
-0.54
-0.55
-0.545
-0.525
-0.52
-0.52
-0.535
-0.535
-0.535
-0.53
-0.525
-0.505
-0.505
-0.51
-0.505
-0.49
-0.485
-0.49
-0.49
-0.49
-0.475
-0.465
-0.46
-0.475
-0.49
-0.495
-0.49
-0.45
-0.44
-0.455
-0.49
-0.51
-0.495
-0.465
-0.47
-0.46
-0.485
-0.5
-0.5
-0.485
-0.48
-0.485
-0.49
-0.49
-0.495
-0.49
-0.5
-0.495
-0.49
-0.49
-0.49
-0.495
-0.475
-0.5
-0.515
-0.51
-0.495
-0.48
-0.485
-0.49
-0.485
-0.5
-0.465
-0.465
-0.47
-0.485
-0.5
-0.495
-0.47
-0.465
-0.465
-0.465
-0.475
-0.47
-0.46
-0.44
-0.46
-0.455
-0.48
-0.485
-0.47
-0.455
-0.445
-0.445
-0.455
-0.455
-0.445
-0.435
-0.435
-0.44
-0.455
-0.45
-0.42
-0.41
-0.41
-0.43
-0.425
-0.425
-0.425
-0.39
-0.385
-0.385
-0.38
-0.385
-0.355
-0.31
-0.235
-0.07
0.295
0.885
1.455
1.695
1.645
1.5
1.4
1.35
1.31
1.225
1.145
1.035
0.945
0.85
0.79
0.7
0.59
0.48
0.35
0.22
0.06
-0.09
-0.255
-0.42
-0.61
-0.79
-0.955
-1.12
-1.295
-1.465
-1.62
-1.725
-1.795
-1.83
-1.89
-1.935
-1.995
-2.085
-2.16
-2.26
-2.33
-2.39
-2.445
-2.515
-2.54
-2.495
-2.38
-2.205
-2.035
-1.835
-1.65
-1.485
-1.305
-1.175
-1.08
-1.005
-0.95
-0.905
-0.87
-0.84
-0.84
-0.85
-0.825
-0.79
-0.74
-0.675
-0.61
-0.56
-0.51
-0.48
-0.455
-0.435
-0.41
-0.355
-0.29
-0.205
-0.165
-0.13
-0.085
-0.07
-0.025
0.0
0.01
0.0
0.0
0.0
0.02
0.025
0.03
0.05
0.075
0.085
0.105
0.115
0.13
0.15
0.165
0.19
0.22
0.25
0.27
0.275
0.28
0.295
0.33
0.37
0.4
0.415
0.435
0.445
0.48
0.525
0.535
0.56
0.575
0.585
0.61
0.635
0.65
0.675
0.67
0.69
0.715
0.735
0.75
0.76
0.765
0.76
0.77
0.78
0.775
0.76
0.73
0.735
0.73
0.73
0.71
0.68
0.64
0.605
0.59
0.575
0.545
0.505
0.45
0.405
0.365
0.33
0.265
0.235
0.195
0.135
0.105
0.06
0.01
-0.04
-0.1
-0.145
-0.17
-0.185
-0.215
-0.27
-0.3
-0.345
-0.355
-0.36
-0.39
-0.405
-0.435
-0.46
-0.47
-0.485
-0.5
-0.52
-0.54
-0.54
-0.53
-0.52
-0.525
-0.545
-0.565
-0.585
-0.58
-0.56
-0.56
-0.585
-0.6
-0.6
-0.595
-0.59
-0.61
-0.605
-0.63
-0.61
-0.61
-0.605
-0.61
-0.62
-0.635
-0.63
-0.605
-0.585
-0.59
-0.615
-0.605
-0.615
-0.59
-0.585
-0.585
-0.585
-0.6
-0.585
-0.585
-0.565
-0.57
-0.565
-0.59
-0.585
-0.575
-0.56
-0.575
-0.57
-0.565
-0.57
-0.56
-0.545
-0.57
-0.58
-0.585
-0.59
-0.585
-0.58
-0.585
-0.59
-0.59
-0.605
-0.585
-0.58
-0.575
-0.595
-0.61
-0.61
-0.595
-0.585
-0.585
-0.615
-0.615
-0.615
-0.605
-0.585
-0.59
-0.61
-0.63
-0.635
-0.615
-0.605
-0.6
-0.625
-0.625
-0.615
-0.61
-0.615
-0.61
-0.615
-0.615
-0.615
-0.61
-0.625
-0.625
-0.61
-0.615
-0.63
-0.61
-0.615
-0.62
-0.62
-0.62
-0.595
-0.585
-0.575
-0.56
-0.54
-0.51
-0.51
-0.505
-0.475
-0.44
-0.4
-0.37
-0.345
-0.335
-0.305
-0.305
-0.275
-0.235
-0.195
-0.165
-0.16
-0.18
-0.205
-0.23
-0.24
-0.215
-0.15
-0.07
0.13
0.52
1.095
1.615
1.835
1.72
1.535
1.395
1.315
1.24
1.14
1.025
0.915
0.81
0.695
0.615
0.515
0.41
0.285
0.155
-0.005
-0.15
-0.295
-0.465
-0.645
-0.805
-0.975
-1.16
-1.34
-1.53
-1.695
-1.875
-2.01
-2.065
-2.125
-2.165
-2.205
-2.245
-2.305
-2.395
-2.495
-2.59
-2.635
-2.7
-2.765
-2.845
-2.87
-2.84
-2.73
-2.605
-2.415
-2.225
-2.06
-1.885
-1.745
-1.665
-1.62
-1.56
-1.525
-1.475
-1.43
-1.395
-1.39
-1.38
-1.365
-1.35
-1.31
-1.25
-1.195
-1.13
-1.05
-0.99
-0.945
-0.905
-0.855
-0.745
-0.63
-0.555
-0.505
-0.44
-0.375
-0.31
-0.265
-0.225
-0.215
-0.185
-0.175
-0.16
-0.13
-0.105
-0.085
-0.075
-0.05
-0.025
0.0
0.02
0.04
0.055
0.075
0.125
0.16
0.2
0.235
0.265
0.285
0.3
0.34
0.38
0.415
0.46
0.505
0.54
0.565
0.605
0.625
0.66
0.685
0.725
0.755
0.775
0.805
0.85
0.885
0.91
0.925
0.93
0.92
0.915
0.925
0.935
0.93
0.94
0.92
0.9
0.875
0.865
0.855
0.84
0.815
0.785
0.74
0.71
0.68
0.63
0.57
0.515
0.475
0.435
0.395
0.335
0.255
0.195
0.15
0.11
0.06
0.0
-0.045
-0.105
-0.17
-0.2
-0.23
-0.275
-0.305
-0.355
-0.4
-0.415
-0.42
-0.43
-0.45
-0.49
-0.51
-0.52
-0.53
-0.545
-0.575
-0.59
-0.6
-0.6
-0.585
-0.585
-0.61
-0.62
-0.63
-0.615
-0.615
-0.62
-0.625
-0.63
-0.63
-0.625
-0.625
-0.605
-0.635
-0.645
-0.65
-0.64
-0.63
-0.62
-0.625
-0.625
-0.655
-0.645
-0.645
-0.63
-0.63
-0.625
-0.615
-0.615
-0.605
-0.615
-0.61
-0.59
-0.575
-0.535
-0.515
-0.515
-0.5
-0.485
-0.46
-0.405
-0.375
-0.355
-0.34
-0.315
-0.29
-0.265
-0.25
-0.215
-0.19
-0.18
-0.18
-0.2
-0.215
-0.25
-0.275
-0.29
-0.29
-0.275
-0.27
-0.29
-0.31
-0.35
-0.385
-0.41
-0.435
-0.46
-0.49
-0.51
-0.545
-0.56
-0.585
-0.62
-0.67
-0.695
-0.695
-0.72
-0.715
-0.73
-0.74
-0.76
-0.77
-0.79
-0.81
-0.795
-0.805
-0.79
-0.81
-0.815
-0.79
-0.795
-0.79
-0.795
-0.82
-0.81
-0.795
-0.785
-0.79
-0.79
-0.82
-0.805
-0.8
-0.805
-0.815
-0.82
-0.8
-0.77
-0.755
-0.755
-0.79
-0.785
-0.78
-0.755
-0.765
-0.755
-0.75
-0.73
-0.73
-0.71
-0.68
-0.645
-0.585
-0.44
-0.11
0.485
1.12
1.57
1.535
1.3
1.095
1.025
0.97
0.87
0.76
0.64
0.54
0.465
0.39
0.285
0.155
0.03
-0.13
-0.26
-0.39
-0.555
-0.745
-0.935
-1.12
-1.28
-1.455
-1.65
-1.825
-1.985
-2.115
-2.185
-2.225
-2.24
-2.27
-2.3
-2.365
-2.435
-2.52
-2.57
-2.61
-2.665
-2.725
-2.735
-2.705
-2.615
