Lead II
-0.89
-0.9
-0.91
-0.91
-0.92
-0.92
-0.91
-0.905
-0.9
-0.89
-0.885
-0.89
-0.89
-0.905
-0.895
-0.895
-0.885
-0.89
-0.87
-0.865
-0.855
-0.825
-0.835
-0.825
-0.835
-0.845
-0.84
-0.85
-0.845
-0.835
-0.82
-0.77
-0.715
-0.605
-0.475
-0.34
-0.215
-0.1
0.045
0.195
0.365
0.565
0.785
1.015
1.22
1.415
1.59
1.725
1.815
1.87
1.9
1.89
1.85
1.8
1.74
1.675
1.625
1.575
1.555
1.555
1.55
1.525
1.47
1.345
1.215
1.055
0.88
0.645
0.385
0.06
-0.28
-0.595
-0.815
-0.93
-0.975
-0.995
-0.99
-0.985
-1.01
-1.04
-1.075
-1.125
-1.155
-1.185
-1.21
-1.22
-1.255
-1.255
-1.285
-1.29
-1.31
-1.3
-1.315
-1.31
-1.31
-1.32
-1.345
-1.35
-1.38
-1.4
-1.41
-1.405
-1.425
-1.415
-1.415
-1.425
-1.43
-1.455
-1.46
-1.48
-1.495
-1.51
-1.545
-1.53
-1.54
-1.53
-1.525
-1.515
-1.51
-1.51
-1.54
-1.565
-1.585
-1.625
-1.67
-1.71
-1.73
-1.765
-1.8
-1.845
-1.87
-1.905
-1.955
-1.975
-2.04
-2.075
-2.11
-2.13
-2.15
-2.17
-2.165
-2.17
-2.17
-2.17
-2.2
-2.2
-2.2
-2.18
-2.17
-2.15
-2.11
-2.075
-2.025
-2.01
-1.97
-1.905
-1.87
-1.84
-1.765
-1.725
-1.66
-1.61
-1.545
-1.48
-1.435
-1.37
-1.315
-1.285
-1.245
-1.225
-1.2
-1.165
-1.15
-1.12
-1.135
-1.09
-1.07
-1.075
-1.05
-1.045
-1.04
-1.05
-1.05
-1.06
-1.055
-1.065
-1.055
-1.05
-1.035
-1.035
-1.025
-1.045
-1.03
-1.03
-1.045
-1.045
-1.05
-1.045
-1.055
-1.035
-1.025
-1.02
-1.035
-1.02
-1.02
-1.02
-1.015
-1.015
-1.025
-1.01
-1.005
-0.995
-0.985
-0.98
-0.985
-0.975
-0.97
-0.99
-0.98
-0.98
-1.0
-0.99
-0.98
-0.975
-0.97
-0.96
-0.945
-0.965
-0.955
-0.97
-0.98
-0.99
-0.985
-0.995
-0.99
-0.99
-0.97
-0.95
-0.95
-0.965
-0.96
-0.96
-0.985
-0.96
-0.97
-0.975
-0.96
-0.95
-0.95
-0.945
-0.945
-0.945
-0.945
-0.96
-0.97
-0.99
-0.99
-0.995
-0.98
-0.965
-0.945
-0.945
-0.95
-0.96
-0.965
-0.96
-0.96
-0.98
-0.965
-0.97
-0.98
-0.975
-0.95
-0.93
-0.92
-0.935
-0.93
-0.945
-0.945
-0.97
-0.975
-0.975
-0.945
-0.94
-0.94
-0.92
-0.915
-0.925
-0.93
-0.94
-0.94
-0.935
-0.945
-0.955
-0.955
-0.955
-0.945
-0.93
-0.915
-0.92
-0.935
-0.95
-0.955
-0.97
-0.96
-0.945
-0.935
-0.94
-0.94
-0.935
-0.935
-0.925
-0.92
-0.935
-0.94
-0.94
-0.945
-0.935
-0.93
-0.925
-0.92
-0.91
-0.925
-0.94
-0.925
-0.935
-0.935
-0.965
-0.95
-0.95
-0.955
-0.95
-0.925
-0.925
-0.92
-0.92
-0.93
-0.945
-0.94
-0.95
-0.945
-0.945
-0.94
-0.925
-0.925
-0.91
-0.91
-0.935
-0.925
-0.925
-0.935
-0.93
-0.94
-0.935
-0.94
-0.925
-0.92
-0.92
-0.925
-0.925
-0.92
-0.93
-0.94
-0.945
-0.955
-0.96
-0.96
-0.95
-0.935
-0.935
-0.93
-0.935
-0.935
-0.925
-0.945
-0.945
-0.96
-0.955
-0.95
-0.935
-0.92
-0.915
-0.905
-0.915
-0.925
-0.91
-0.93
-0.94
-0.935
-0.93
-0.94
-0.92
-0.92
-0.9
-0.93
-0.93
-0.92
-0.925
-0.93
-0.935
-0.95
-0.945
-0.935
-0.94
-0.92
-0.915
-0.905
-0.91
-0.925
-0.955
-0.955
-0.935
-0.945
-0.94
-0.92
-0.93
-0.93
-0.92
-0.9
-0.905
-0.91
-0.915
-0.91
-0.925
-0.92
-0.94
-0.92
-0.915
-0.905
-0.905
-0.895
-0.91
-0.915
-0.925
-0.925
-0.93
-0.94
-0.94
-0.925
-0.92
-0.93
-0.92
-0.9
-0.905
-0.905
-0.915
-0.905
-0.915
-0.925
-0.925
-0.915
-0.9
-0.895
-0.895
-0.9
-0.9
-0.905
-0.925
-0.905
-0.915
-0.915
-0.905
-0.91
-0.89
-0.87
-0.86
-0.84
-0.83
-0.815
-0.805
-0.79
-0.8
-0.775
-0.76
-0.745
-0.73
-0.735
-0.74
-0.75
-0.77
-0.78
-0.81
-0.815
-0.835
-0.86
-0.875
-0.89
-0.895
-0.905
-0.88
-0.88
-0.885
-0.885
-0.885
-0.89
-0.9
-0.89
-0.88
-0.88
-0.87
-0.875
-0.855
-0.85
-0.85
-0.86
-0.865
-0.885
-0.87
-0.885
-0.905
-0.93
-0.94
-0.935
-0.88
-0.775
-0.645
-0.435
-0.18
0.15
0.48
0.795
1.025
1.165
1.215
1.155
1.015
0.745
0.32
-0.175
-0.625
-0.915
-1.03
-0.96
-0.81
-0.685
-0.625
-0.615
-0.655
-0.72
-0.785
-0.82
-0.855
-0.88
-0.865
-0.87
-0.865
-0.86
-0.86
-0.855
-0.855
-0.87
-0.875
-0.89
-0.88
-0.885
-0.88
-0.88
-0.885
-0.88
-0.88
-0.885
-0.88
-0.865
-0.86
-0.875
-0.885
-0.9
-0.885
-0.905
-0.9
-0.9
-0.88
-0.89
-0.89
-0.875
-0.87
-0.865
-0.87
-0.875
-0.89
-0.895
-0.895
-0.89
-0.89
-0.88
-0.875
-0.855
-0.865
-0.86
-0.87
-0.87
-0.865
-0.86
-0.865
-0.84
-0.825
-0.81
-0.79
-0.78
-0.78
-0.78
-0.78
-0.78
-0.77
-0.755
-0.755
-0.725
-0.715
-0.695
-0.665
-0.635
-0.645
-0.635
-0.635
-0.645
-0.625
-0.63
-0.625
-0.595
-0.565
-0.545
-0.52
-0.5
-0.475
-0.47
-0.465
-0.465
-0.465
-0.455
-0.435
-0.425
-0.405
-0.385
-0.355
-0.34
-0.355
-0.35
-0.385
-0.405
-0.415
-0.44
-0.43
-0.47
-0.485
-0.51
-0.515
-0.53
-0.56
-0.585
-0.615
-0.655
-0.68
-0.725
-0.715
-0.735
-0.74
-0.75
-0.745
-0.74
-0.755
-0.76
-0.79
-0.8
-0.795
-0.81
-0.83
-0.82
-0.825
-0.83
-0.8
-0.785
-0.8
-0.805
-0.8
-0.81
-0.81
-0.79
-0.81
-0.8
-0.79
-0.78
-0.765
-0.755
-0.785
-0.775
-0.775
-0.765
-0.765
-0.765
-0.765
-0.77
-0.76
-0.765
-0.775
-0.75
-0.755
-0.75
-0.73
-0.7
-0.625
-0.505
-0.385
-0.25
-0.09
0.075
0.255
0.445
0.645
0.85
1.075
1.3
1.49
1.675
1.83
1.95
2.035
2.1
2.11
2.12
2.085
2.025
1.955
1.825
1.725
1.685
1.665
1.685
1.695
1.68
1.645
1.545
1.39
1.195
0.995
0.745
0.47
0.13
-0.245
-0.57
-0.82
-0.945
-0.975
-0.96
-0.95
-0.94
-0.955
-1.005
-1.055
-1.115
-1.145
-1.185
-1.2
-1.195
-1.195
-1.2
-1.21
-1.225
-1.245
-1.26
-1.295
-1.3
-1.3
-1.31
-1.325
-1.315
-1.32
-1.34
-1.35
-1.36
-1.37
-1.4
-1.4
-1.43
-1.425
-1.44
-1.44
-1.455
-1.46
-1.47
-1.485
-1.505
-1.54
-1.55
-1.585
-1.6
-1.63
-1.635
-1.62
-1.625
-1.645
-1.64
-1.66
-1.695
-1.715
-1.735
-1.735
-1.745
-1.74
-1.745
-1.75
-1.75
-1.78
-1.8
-1.86
-1.89
-1.93
-1.96
-2.0
-2.025
-2.045
-2.065
-2.07
-2.08
-2.09
-2.11
-2.13
-2.145
-2.12
-2.125
-2.09
-2.08
-2.05
-1.99
-1.945
-1.89
-1.845
-1.79
-1.75
-1.69
-1.65
-1.605
-1.56
-1.48
-1.445
-1.39
-1.33
-1.265
-1.22
-1.175
-1.15
-1.13
-1.115
-1.1
-1.09
-1.075
-1.07
-1.055
-1.035
-1.035
-1.035
-1.02
-1.02
-1.025
-1.035
-1.03
-1.04
-1.055
-1.04
-1.03
-1.025
-1.015
-1.005
-1.02
-1.005
-1.0
-1.01
-1.02
-1.015
-1.02
-1.035
-1.025
-1.015
-1.01
-0.99
-0.975
-0.975
-0.98
-0.985
-0.995
-0.995
-0.99
-0.99
-0.985
-0.98
-0.97
-0.955
-0.955
-0.95
-0.955
-0.95
-0.96
-0.965
-0.97
-0.98
-0.975
-0.98
-0.985
-0.945
-0.935
-0.94
-0.96
-0.945
-0.955
-0.96
-0.95
-0.965
-0.96
-0.96
-0.945
-0.935
-0.92
-0.94
-0.94
-0.955
-0.965
-0.97
-0.975
-0.995
-0.99
-0.985
-0.965
-0.955
-0.925
-0.94
-0.955
-0.955
-0.965
-0.98
-0.97
-0.98
-0.975
-0.96
-0.965
-0.935
-0.925
-0.945
-0.96
-1.0
-0.965
-0.975
-0.965
-0.985
-0.975
-0.97
-0.96
-0.95
-0.935
-0.935
-0.94
-0.93
-0.96
-0.965
-0.975
-0.965
-0.975
-0.965
-0.955
-0.955
-0.95
-0.935
-0.96
-0.96
-0.96
-0.97
-0.975
-0.96
-0.98
-0.955
-0.95
-0.935
-0.935
-0.935
-0.94
-0.95
-0.965
-0.975
-0.96
-0.97
-0.975
-0.95
-0.955
-0.95
-0.93
-0.945
-0.945
-0.95
-0.97
-0.97
-0.96
-0.965
-0.99
-0.965
-0.96
-0.95
-0.935
-0.96
-0.95
-0.94
-0.965
-0.95
-0.94
-0.955
-0.96
-0.955
-0.965
-0.95
-0.93
-0.915
-0.92
-0.935
-0.95
-0.94
-0.95
-0.975
-0.965
-0.955
-0.955
-0.93
-0.91
-0.915
-0.935
-0.93
-0.945
-0.95
-0.95
-0.955
-0.96
-0.935
-0.925
-0.92
-0.915
-0.92
-0.91
-0.935
-0.935
-0.945
-0.95
-0.965
-0.96
-0.945
-0.95
-0.93
-0.925
-0.91
-0.925
-0.93
-0.955
-0.955
-0.945
-0.95
-0.95
-0.965
-0.94
-0.915
-0.92
-0.935
-0.935
-0.945
-0.945
-0.955
-0.96
-0.955
-0.96
-0.945
-0.935
-0.925
-0.915
-0.915
-0.92
-0.92
-0.945
-0.945
-0.955
-0.955
-0.93
-0.935
-0.925
-0.92
-0.915
-0.92
-0.915
-0.915
-0.925
-0.93
-0.93
-0.935
-0.93
-0.925
-0.905
-0.92
-0.925
-0.91
-0.91
-0.895
-0.915
-0.915
-0.92
-0.94
-0.95
-0.93
-0.93
-0.92
-0.92
-0.925
-0.91
-0.93
-0.93
-0.92
-0.935
-0.945
-0.955
-0.93
-0.93
-0.91
-0.905
-0.9
-0.91
-0.925
-0.92
-0.935
-0.935
-0.93
-0.93
-0.93
-0.925
-0.915
-0.905
-0.905
-0.9
-0.905
-0.905
-0.895
-0.875
-0.85
-0.835
-0.82
-0.795
-0.775
-0.76
-0.765
-0.775
-0.78
-0.795
-0.825
-0.84
-0.86
-0.855
-0.86
-0.865
-0.86
-0.87
-0.89
-0.9
-0.925
-0.955
-0.965
-0.945
-0.945
-0.945
-0.945
-0.93
-0.91
-0.9
-0.9
-0.9
-0.905
-0.925
-0.935
-0.93
-0.92
-0.91
-0.925
-0.91
-0.92
-0.94
-0.945
-0.98
-0.98
-0.955
-0.855
-0.74
-0.54
-0.28
0.045
0.41
0.75
1.01
1.165
1.215
1.19
1.09
0.855
0.525
0.09
-0.4
-0.8
-1.0
-1.015
-0.895
-0.76
-0.68
-0.615
-0.65
-0.715
-0.8
-0.865
-0.89
-0.895
-0.88
-0.885
-0.875
-0.89
-0.895
-0.885
-0.91
-0.915
-0.92
-0.925
-0.925
-0.905
-0.925
-0.905
-0.89
-0.9
-0.89
-0.905
-0.915
-0.905
-0.92
-0.925
-0.925
-0.92
-0.92
-0.935
-0.905
-0.91
-0.9
-0.91
-0.92
-0.925
-0.925
-0.92
-0.92
-0.905
-0.895
-0.885
-0.89
-0.895
-0.89
-0.905
-0.915
-0.92
-0.93
-0.935
-0.91
-0.9
-0.89
-0.89
-0.865
-0.865
-0.865
-0.875
-0.87
-0.875
-0.855
-0.865
-0.86
-0.835
-0.825
-0.8
-0.785
-0.775
-0.79
-0.795
-0.78
-0.785
-0.77
-0.78
-0.765
-0.72
-0.715
-0.685
-0.675
-0.655
-0.65
-0.645
-0.625
-0.63
-0.615
-0.61
-0.6
-0.575
-0.54
-0.535
-0.51
-0.48
-0.48
-0.475
-0.465
-0.45
-0.44
-0.435
-0.425
-0.41
-0.4
-0.385
-0.38
-0.375
-0.38
-0.385
-0.42
-0.43
-0.465
-0.49
-0.495
-0.525
-0.54
-0.56
-0.575
-0.595
-0.615
-0.65
-0.685
-0.695
-0.715
-0.74
-0.75
-0.75
-0.755
-0.78
-0.795
-0.795
-0.795
-0.785
-0.805
-0.815
-0.815
-0.82
-0.815
-0.82
-0.815
-0.805
-0.795
-0.8
-0.8
-0.81
-0.82
-0.83
-0.82
-0.83
-0.805
-0.815
-0.81
-0.785
-0.77
-0.775
-0.77
-0.755
-0.78
-0.79
-0.8
-0.8
-0.795
-0.79
-0.795
-0.745
-0.69
-0.61
-0.5
-0.365
-0.225
-0.09
0.075
0.26
0.46
0.7
0.94
1.19
1.42
1.625
1.78
1.9
1.99
2.055
2.065
2.07
2.04
1.97
1.87
1.765
1.685
1.645
1.63
1.645
1.66
1.65
1.59
1.475
1.33
1.135
0.94
0.705
0.435
0.105
-0.285
-0.63
-0.89
-1.01
-1.07
-1.045
-1.045
-1.01
-1.015
-1.065
-1.105
-1.145
-1.2
-1.22
-1.24
-1.265
-1.275
-1.295
-1.285
-1.32
-1.31
-1.325
-1.325
-1.32
-1.345
-1.365
-1.39
-1.405
-1.42
-1.44
-1.445
-1.45
-1.455
-1.445
-1.465
-1.49
-1.5
-1.52
-1.54
-1.555
-1.575
-1.6
-1.62
-1.625
-1.63
-1.655
-1.66
-1.69
-1.705
-1.74
-1.765
-1.8
-1.845
-1.855
-1.865
-1.895
-1.915
-1.95
-1.965
-1.99
-2.02
-2.055
-2.085
-2.105
-2.13
-2.155
-2.18
-2.195
-2.2
-2.21
-2.205
-2.195
-2.205
-2.205
-2.205
-2.195
-2.2
-2.17
-2.145
-2.105
-2.045
-2.0
-1.925
-1.885
-1.845
-1.8
-1.77
-1.72
-1.68
-1.64
-1.595
-1.545
-1.51
-1.47
-1.425
-1.38
-1.33
-1.295
-1.275
-1.26
-1.235
-1.235
-1.215
-1.195
-1.17
-1.14
-1.125
-1.115
-1.115
-1.105
-1.11
-1.115
-1.115
-1.12
-1.12
-1.115
-1.1
-1.1
-1.095
-1.1
-1.11
-1.115
-1.115
-1.125
-1.13
-1.13
-1.125
-1.11
-1.1
-1.09
-1.085
-1.1
-1.09
-1.085
-1.095
-1.105
-1.11
-1.145
-1.145
-1.135
-1.11
-1.1
-1.105
-1.08
-1.075
-1.085
-1.1
-1.1
-1.105
-1.09
-1.09
-1.075
-1.08
-1.065
-1.07
-1.06
-1.055
-1.075
-1.075
-1.08
-1.08
-1.09
-1.075
-1.06
-1.06
-1.055
-1.04
-1.035
-1.035
-1.04
-1.045
-1.055
-1.05
-1.055
-1.045
-1.04
-1.02
-1.05
-1.025
-1.03
-1.045
-1.05
-1.065
-1.04
-1.05
-1.05
-1.06
-1.055
-1.04
-1.04
-1.02
-1.03
-1.025
-1.035
-1.045
-1.055
-1.07
-1.07
-1.07
-1.04
-1.045
-1.04
-1.03
-1.035
-1.04
-1.06
-1.045
-1.07
-1.07
-1.07
-1.06
-1.055
-1.055
-1.04
-1.04
-1.04
-1.03
-1.03
-1.06
-1.065
-1.075
-1.075
-1.07
-1.065
-1.06
-1.055
-1.04
-1.03
-1.03
-1.025
-1.04
-1.045
-1.05
-1.06
-1.045
-1.04
-1.045
-1.03
-1.025
-1.02
-1.015
-1.03
-1.035
-1.045
-1.055
-1.045
-1.06
-1.04
-1.03
-1.015
-1.01
-1.01
-1.02
-1.025
-1.04
-1.055
-1.055
-1.065
-1.055
-1.04
-1.045
-1.035
-1.025
-1.025
-1.035
-1.025
-1.035
-1.03
-1.035
-1.04
-1.045
-1.035
-1.025
-1.01
-1.01
-1.01
-1.02
-1.02
-1.035
-1.03
-1.03
-1.035
-1.03
-1.02
-1.02
-1.025
-1.0
-0.995
-1.01
-1.01
-1.025
-1.03
-1.04
-1.03
-1.025
-1.02
-1.015
-1.005
-1.0
-1.01
-1.01
-1.015
-1.025
-1.03
-1.02
-1.03
-1.025
-1.005
-1.005
-0.99
-0.99
-0.985
-0.985
-0.99
-1.0
-1.01
-1.015
-1.005
-1.015
-1.02
-1.0
-1.0
-0.985
-0.975
-0.985
-0.99
-0.99
-1.005
-0.995
-1.005
-1.005
-0.985
-0.975
-1.005
-1.0
-0.985
-1.0
-0.985
-0.99
-0.99
-1.0
-1.005
-1.02
-1.005
-1.0
-0.985
-0.98
-0.965
-0.985
-0.985
-0.99
-1.0
-1.005
-1.0
-0.98
-1.0
-0.98
-0.98
-0.975
-0.965
-0.965
-0.975
-0.99
-1.015
-1.01
-1.005
-0.985
-0.985
-0.97
-0.97
-0.96
-0.965
-0.985
-0.97
-0.975
-0.965
-1.0
-0.995
-0.98
-0.99
-0.975
-0.97
-0.96
-0.97
-0.94
-0.95
-0.965
-0.99
-0.99
-0.995
-0.99
-0.975
-0.97
-0.965
-0.96
-0.945
-0.935
-0.945
-0.96
-0.98
-0.985
-0.98
-0.98
-0.975
-0.975
-0.95
-0.935
-0.935
-0.94
-0.94
-0.955
-0.96
-0.965
-0.97
-0.975
-0.965
-0.965
-0.955
-0.945
-0.94
-0.945
-0.95
-0.95
-0.95
-0.96
-0.97
-0.955
-0.95
-0.945
-0.94
-0.935
-0.925
-0.93
-0.94
-0.93
-0.93
-0.91
-0.885
-0.86
-0.835
-0.82
-0.8
-0.785
-0.78
-0.77
-0.78
-0.805
-0.825
-0.84
-0.85
-0.87
-0.875
-0.88
-0.9
-0.875
-0.885
-0.885
-0.91
-0.925
-0.94
-0.945
-0.96
-0.945
-0.945
-0.935
-0.925
-0.92
-0.905
-0.93
-0.93
-0.935
-0.93
-0.945
-0.935
-0.915
-0.92
-0.92
-0.92
-0.93
-0.945
-0.995
-0.965
-0.9
-0.785
-0.615
-0.355
-0.025
0.355
0.72
1.01
1.165
1.23
1.125
0.905
0.525
0.01
-0.5
-0.905
-1.05
-1.045
-0.89
-0.76
-0.66
-0.645
-0.685
-0.745
-0.82
-0.865
-0.905
-0.93
-0.94
-0.905
-0.895
-0.885
-0.89
-0.91
-0.915
-0.925
-0.925
-0.93
-0.925
-0.96
-0.945
-0.945
-0.93
-0.91
-0.91
-0.905
-0.915
-0.92
-0.935
-0.92
-0.93
-0.94
-0.945
-0.95
-0.935
-0.925
-0.92
-0.915
-0.915
-0.93
-0.92
-0.93
-0.935
-0.945
-0.94
-0.94
-0.925
-0.93
-0.92
-0.915
-0.92
-0.91
-0.905
-0.915
-0.925
-0.93
-0.91
-0.905
-0.885
-0.89
-0.87
-0.87
-0.865
-0.86
-0.855
-0.855
-0.845
-0.835
-0.835
-0.81
-0.8
-0.765
-0.77
-0.76
-0.745
-0.73
-0.72
-0.715
-0.705
-0.71
-0.705
-0.66
-0.655
-0.62
-0.6
-0.58
-0.585
-0.56
-0.58
-0.575
-0.555
-0.56
-0.55
-0.535
-0.51
-0.475
-0.455
-0.435
-0.44
-0.41
-0.425
-0.43
-0.44
-0.435
-0.45
-0.44
-0.435
-0.435
-0.445
-0.45
-0.485
-0.49
-0.52
-0.55
-0.57
-0.605
-0.62
-0.64
-0.665
-0.655
-0.68
-0.685
-0.71
-0.73
-0.74
-0.76
-0.785
-0.79
-0.79
-0.805
-0.81
-0.815
-0.8
-0.79
-0.805
-0.805
-0.82
-0.83
-0.84
-0.84
-0.84
-0.825
-0.85
-0.82
-0.8
-0.8
-0.82
-0.805
-0.8
-0.815
-0.825
-0.81
-0.8
-0.8
-0.79
-0.775
-0.76
-0.765
-0.765
-0.77
-0.79
-0.79
-0.805
-0.805
-0.78
-0.735
-0.69
-0.595
-0.47
-0.345
-0.215
-0.075
0.055
0.205
0.395
0.6
0.825
1.04
1.29
1.495
1.67
1.8
1.92
1.995
2.03
2.055
2.045
2.0
1.945
1.86
1.76
1.685
1.63
1.605
1.625
1.64
1.65
1.615
1.51
1.39
1.215
1.025
0.825
0.595
0.3
-0.045
-0.395
-0.715
-0.925
-1.04
-1.06
-1.05
-1.035
-1.025
-1.035
-1.075
-1.125
-1.145
-1.2
-1.215
-1.23
-1.25
-1.27
-1.29
-1.31
-1.305
-1.305
-1.33
-1.34
-1.345
-1.355
-1.36
-1.405
-1.41
-1.415
-1.425
-1.43
-1.455
-1.44
-1.465
-1.465
-1.48
-1.48
-1.5
-1.51
-1.52
-1.56
-1.58
-1.59
-1.61
-1.615
-1.615
-1.63
-1.645
-1.665
-1.69
-1.715
-1.74
-1.765
-1.78
-1.8
-1.825
-1.835
-1.85
-1.87
-1.875
-1.91
-1.94
-1.97
-2.0
-2.04
-2.055
-2.085
-2.1
-2.12
-2.125
-2.12
-2.14
-2.15
-2.165
-2.185
-2.18
-2.18
-2.16
-2.14
-2.12
-2.065
-2.04
-2.005
-1.955
-1.945
-1.91
-1.905
-1.88
-1.86
-1.845
-1.81
-1.775
-1.715
-1.675
-1.625
-1.56
-1.525
-1.5
-1.465
-1.42
-1.395
-1.34
-1.31
-1.25
-1.21
-1.17
-1.145
-1.115
-1.1
-1.1
-1.115
-1.13
-1.1
-1.09
-1.115
-1.1
-1.105
-1.095
-1.075
-1.07
-1.07
-1.09
-1.085
-1.1
-1.125
-1.12
-1.115
-1.11
-1.1
-1.075
-1.09
-1.075
-1.085
-1.085
-1.09
-1.095
-1.09
-1.09
-1.095
-1.08
-1.08
-1.065
-1.065
-1.055
-1.055
-1.065
-1.065
-1.085
-1.085
-1.07
-1.06
-1.065
-1.045
-1.045
-1.045
-1.06
-1.035
-1.025
-1.035
-1.04
-1.045
-1.035
-1.04
-1.045
-1.03
-1.03
-1.005
-1.0
-1.01
-1.01
-0.995
-1.015
-1.02
-1.035
-1.02
-1.02
-1.01
-0.99
-1.0
-0.99
-0.975
-0.995
-1.0
-1.0
-1.005
-1.02
-1.025
-1.01
-1.02
-1.0
-0.98
-0.995
-0.985
-0.99
-1.01
-1.01
-1.025
-1.04
-1.035
-1.025
-1.02
-1.015
-1.01
-0.975
-0.985
-0.995
-1.0
-1.01
-1.015
-1.025
-1.03
-1.03
-1.035
-1.03
-1.015
-0.99
-0.99
-1.005
-1.01
-1.025
-1.045
-1.055
-1.035
-1.03
-1.02
-0.99
-1.02
-0.98
-0.99
-0.995
-0.99
-0.99
-0.995
-1.015
-1.015
-1.02
-0.995
-0.985
-0.975
-0.96
-0.975
-0.985
-0.98
-1.0
-1.0
-1.0
-1.005
-1.005
-0.995
-1.0
-0.985
-0.985
-0.99
-0.995
-0.985
-0.99
-1.0
-1.005
-1.015
-1.005
-1.0
-0.985
-0.975
-0.96
-0.97
-0.98
-1.0
-0.98
-0.98
-1.0
-1.01
-1.015
-1.01
-0.99
-0.975
-0.96
-0.97
-0.97
-0.98
-0.99
-0.995
-1.0
-0.995
-0.985
-0.99
-0.975
-0.96
-0.945
-0.965
-0.96
-0.98
-0.98
-0.985
-0.975
-0.985
-0.98
-0.975
-0.96
-0.955
-0.94
-0.945
-0.965
-0.98
-0.985
-0.965
-0.955
-0.985
-0.95
-0.955
-0.94
-0.94
-0.925
-0.94
-0.95
-0.95
-0.96
-0.965
-0.965
-0.975
-0.975
-0.975
-0.965
-0.945
-0.955
-0.965
-0.955
-0.95
-0.975
-0.98
-0.99
-0.995
-0.985
-0.955
-0.945
-0.945
-0.94
-0.935
-0.945
-0.955
-0.965
-0.96
-0.965
-0.98
-0.97
-0.945
-0.955
-0.95
-0.935
-0.925
-0.925
-0.935
-0.945
-0.94
-0.945
-0.955
-0.97
-0.965
-0.96
-0.955
-0.935
-0.94
-0.95
-0.955
-0.96
-0.97
-0.97
-0.985
-0.99
-0.965
-0.94
-0.935
-0.92
-0.935
-0.935
-0.93
-0.95
-0.94
-0.96
-0.965
-0.955
-0.95
-0.945
-0.93
-0.925
-0.925
-0.92
-0.93
-0.935
-0.94
-0.95
-0.955
-0.965
-0.93
-0.925
-0.915
-0.92
-0.905
-0.91
-0.905
-0.92
-0.94
-0.95
-0.935
-0.955
-0.945
-0.935
-0.92
-0.91
-0.915
-0.92
-0.925
-0.91
-0.925
-0.925
-0.945
-0.96
-0.95
-0.945
-0.95
-0.94
-0.925
-0.93
-0.9
-0.91
-0.925
-0.9
-0.895
-0.865
-0.83
-0.795
-0.745
-0.71
-0.69
-0.69
-0.675
-0.685
-0.69
-0.72
-0.77
-0.79
-0.8
-0.815
-0.825
-0.835
-0.86
-0.885
-0.9
-0.915
-0.92
-0.93
-0.93
-0.92
-0.915
-0.905
-0.895
-0.905
-0.91
-0.915
-0.925
-0.91
-0.915
-0.925
-0.93
-0.925
-0.915
-0.91
-0.9
-0.9
-0.915
-0.935
-0.955
-0.99
-1.01
-0.965
-0.875
-0.73
-0.5
-0.23
0.115
0.48
0.795
1.045
1.18
1.205
1.115
0.905
0.54
0.05
-0.445
-0.83
-1.05
-1.05
-0.935
-0.79
-0.68
-0.655
-0.675
-0.75
-0.825
-0.87
-0.915
-0.905
-0.885
-0.875
-0.88
-0.88
-0.89
-0.905
-0.915
-0.925
-0.94
-0.93
-0.92
-0.915
-0.925
-0.925
-0.925
-0.93
-0.93
-0.94
-0.955
-0.955
-0.965
-0.97
-0.965
-0.955
-0.935
-0.915
-0.92
-0.925
-0.93
-0.935
-0.945
-0.93
-0.94
-0.935
-0.925
-0.915
-0.92
-0.91
-0.915
-0.92
-0.94
-0.945
-0.945
-0.935
-0.945
-0.925
-0.91
-0.905
-0.89
-0.88
-0.87
-0.88
-0.885
-0.895
-0.89
-0.885
-0.905
-0.885
-0.87
-0.84
-0.83
-0.81
-0.81
-0.795
-0.79
-0.795
-0.795
-0.77
-0.775
-0.75
-0.725
-0.715
-0.685
-0.67
-0.655
-0.64
-0.625
-0.615
-0.595
-0.605
-0.58
-0.57
-0.545
-0.545
-0.525
-0.505
-0.48
-0.475
-0.48
-0.47
-0.47
-0.47
-0.47
-0.47
-0.45
-0.45
-0.445
-0.45
-0.445
-0.465
-0.485
-0.51
-0.54
-0.555
-0.57
-0.605
-0.62
-0.66
-0.66
-0.67
-0.685
-0.71
-0.735
-0.745
-0.78
-0.81
-0.84
-0.83
-0.84
-0.855
-0.82
-0.82
-0.855
-0.855
-0.845
-0.85
-0.85
-0.86
-0.86
-0.87
-0.87
-0.855
-0.845
-0.84
-0.85
-0.86
-0.87
-0.88
-0.88
-0.88
-0.89
-0.875
-0.855
-0.845
-0.865
-0.835
-0.84
-0.83
-0.845
-0.845
-0.865
-0.865
-0.86
-0.87
-0.85
-0.835
-0.835
-0.825
-0.825
-0.83
-0.83
-0.845
-0.855
-0.855
-0.875
-0.88
-0.87
-0.86
-0.85
-0.85
-0.85
-0.855
-0.885
-0.89
-0.88
-0.885
-0.9
-0.885
-0.905
-0.89
-0.9
-0.885
-0.89
-0.895
-0.91
-0.93
-0.92
-0.935
-0.925
-0.925
-0.925
-0.915
-0.91
-0.9
-0.91
-0.905
-0.93
-0.925
-0.93
-0.945
-0.94
-0.945
-0.935
-0.94
-0.935
-0.915
-0.91
-0.92
-0.92
-0.94
-0.945
-0.935
-0.96
-0.945
-0.94
-0.93
-0.94
-0.915
-0.925
-0.92
-0.93
-0.945
-0.955
-0.955
-0.95
-0.96
-0.95
-0.93
-0.93
-0.94
-0.93
-0.935
-0.95
-0.95
-0.945
-0.965
-0.975
-0.96
-0.94
-0.93
-0.925
-0.91
-0.92
-0.93
-0.92
-0.93
-0.925
-0.93
-0.94
-0.945
-0.945
-0.925
-0.92
-0.92
-0.91
-0.915
-0.92
-0.92
-0.925
-0.94
-0.945
-0.925
-0.915
-0.885
-0.85
-0.845
-0.83
-0.805
-0.795
-0.79
-0.78
-0.775
-0.76
-0.73
-0.72
-0.665
-0.63
-0.59
-0.575
-0.58
-0.6
-0.61
-0.625
-0.635
-0.65
-0.65
-0.68
-0.68
-0.71
-0.735
-0.78
-0.825
-0.87
-0.93
-0.925
-0.94
-0.945
-0.945
-0.935
-0.92
-0.91
-0.91
-0.91
-0.905
-0.92
-0.925
-0.94
-0.95
-0.95
-0.96
-0.955
-0.945
-0.935
-0.915
-0.905
-0.92
-0.915
-0.925
-0.92
-0.93
-0.93
-0.95
-0.975
-0.985
-0.995
-0.965
-0.91
-0.79
-0.635
-0.425
-0.135
0.19
0.545
0.845
1.055
1.165
1.19
1.12
0.975
0.7
0.33
-0.15
-0.61
-0.925
-1.06
-1.02
-0.885
-0.735
-0.645
-0.63
-0.67
-0.72
-0.79
-0.845
-0.89
-0.905
-0.91
-0.915
-0.915
-0.905
-0.89
-0.89
-0.88
-0.89
-0.91
-0.91
-0.91
-0.915
-0.92
-0.905
-0.92
-0.9
-0.9
-0.89
-0.895
-0.89
-0.9
-0.905
-0.9
-0.92
-0.92
-0.9
-0.925
-0.9
-0.9
-0.89
-0.875
-0.895
-0.895
-0.905
-0.91
-0.915
-0.905
-0.905
-0.9
-0.88
-0.87
-0.865
-0.855
-0.86
-0.855
-0.88
-0.86
-0.875
-0.865
-0.87
-0.855
-0.85
-0.82
-0.805
-0.8
-0.805
-0.795
-0.8
-0.78
-0.785
-0.785
-0.775
-0.755
-0.73
-0.715
-0.72
-0.69
-0.67
-0.67
-0.665
-0.67
-0.645
-0.625
-0.605
-0.585
-0.565
-0.535
-0.51
-0.49
-0.47
-0.455
-0.46
-0.455
-0.43
-0.42
-0.41
-0.4
-0.385
-0.37
-0.34
-0.325
-0.32
-0.32
-0.32
-0.325
-0.33
-0.345
-0.335
-0.33
-0.335
-0.34
-0.355
-0.39
-0.415
-0.445
-0.49
-0.53
-0.57
-0.58
-0.61
-0.645
-0.655
-0.655
-0.68
-0.695
-0.735
-0.735
-0.78
-0.775
-0.8
-0.82
-0.82
-0.815
-0.81
-0.8
-0.82
-0.82
-0.825
-0.845
-0.85
-0.855
-0.855
-0.855
-0.855
-0.85
-0.84
-0.835
-0.815
-0.83
-0.82
-0.815
-0.84
-0.84
-0.84
-0.84
-0.83
-0.825
-0.825
-0.81
-0.805
-0.775
-0.78
-0.805
-0.815
-0.81
-0.82
-0.825
-0.82
-0.79
-0.74
-0.66
-0.555
-0.415
-0.255
-0.095
0.095
0.27
0.515
0.745
1.005
1.26
1.465
1.635
1.785
1.885
1.945
1.98
1.985
1.965
1.925
1.87
1.795
1.7
1.655
1.625
1.625
1.635
1.62
1.595
1.515
1.39
1.25
1.065
0.905
0.685
0.43
0.105
-0.245
-0.565
-0.81
-0.945
-1.0
-1.0
-0.99
-0.97
-0.985
-1.035
-1.07
-1.095
-1.145
-1.16
-1.18
-1.2
-1.215
-1.22
-1.26
-1.255
-1.285
-1.305
-1.285
-1.31
-1.305
-1.31
-1.315
-1.33
-1.345
-1.36
-1.375
-1.4
-1.41
-1.4
-1.41
-1.42
-1.44
-1.47
-1.465
-1.51
-1.52
-1.53
-1.56
-1.575
-1.59
-1.585
-1.605
-1.615
-1.63
-1.66
-1.68
-1.705
-1.74
-1.73
-1.775
-1.775
-1.79
-1.8
-1.79
-1.79
-1.8
-1.83
-1.825
-1.845
-1.86
-1.87
-1.875
-1.89
-1.885
-1.9
-1.925
-1.965
-1.995
-2.03
-2.065
-2.095
-2.11
-2.125
-2.15
-2.165
-2.165
-2.155
-2.145
-2.12
-2.08
-2.06
-2.01
-1.965
-1.925
-1.895
-1.83
-1.78
-1.725
-1.665
-1.615
-1.545
-1.49
-1.435
-1.38
-1.335
-1.3
-1.285
-1.24
-1.215
-1.19
-1.185
-1.16
-1.155
-1.135
-1.12
-1.12
-1.11
-1.105
-1.115
-1.14
-1.125
-1.13
-1.135
-1.12
-1.105
-1.09
-1.085
-1.095
-1.1
-1.105
-1.115
-1.11
-1.12
-1.12
-1.125
-1.105
-1.105
-1.085
-1.075
-1.09
-1.09
-1.095
-1.105
-1.105
-1.105
-1.105
-1.105
-1.08
-1.08
-1.07
-1.075
-1.08
-1.08
-1.075
-1.09
-1.09
-1.09
-1.095
-1.055
-1.06
-1.07
-1.055
-1.035
-1.035
-1.05
-1.05
-1.06
-1.08
-1.075
-1.06
-1.07
-1.06
-1.04
-1.04
-1.045
-1.04
-1.055
-1.06
-1.06
-1.065
-1.075
-1.085
-1.07
-1.065
-1.065
-1.07
-1.045
-1.05
-1.045
-1.065
-1.08
-1.08
-1.07
-1.07
-1.075
-1.065
-1.065
-1.045
-1.06
-1.055
-1.055
-1.07
-1.06
-1.07
-1.055
-1.06
-1.05
-1.05
-1.04
-1.055
-1.045
-1.035
-1.045
-1.04
-1.06
-1.06
-1.06
-1.055
-1.045
-1.03
-1.035
-1.02
-1.025
-1.025
-1.035
-1.04
-1.055
-1.055
-1.055
-1.055
-1.055
-1.045
-1.04
-1.035
-1.025
-1.025
-1.025
-1.035
-1.045
-1.05
-1.07
-1.065
-1.05
-1.035
-1.02
-1.025
-1.01
-1.0
-1.0
-1.015
-1.015
-1.03
-1.045
-1.05
-1.035
-1.05
-1.025
-1.025
-1.015
-1.025
-1.04
-1.035
-1.025
-1.04
-1.045
-1.035
-1.025
-1.01
-1.01
-1.005
-1.005
-1.005
-1.015
-1.03
-1.02
-1.02
-1.01
-1.02
-1.025
-1.015
-1.01
-1.0
-1.0
-1.005
-1.01
-1.005
-1.02
-1.05
-1.045
-1.065
-1.025
-1.035
-1.02
-1.0
-0.99
-1.005
-1.005
-1.01
-1.03
-1.01
-1.04
-1.025
-1.035
-1.015
-1.015
-1.01
-1.015
-1.03
-1.0
-1.01
-1.015
-1.01
-1.02
-1.015
-1.01
-0.99
-0.995
-0.99
-0.98
-0.995
-0.99
-1.0
-1.01
-1.01
-1.015
-1.02
-1.005
-1.0
-0.98
-0.98
-0.97
-0.965
-0.99
-0.995
-0.99
-1.015
-1.0
-1.0
-0.99
-0.98
-0.97
-0.97
-0.985
-0.975
-0.975
-0.99
-1.0
-1.01
-1.005
-1.02
-0.99
-0.97
-0.96
-0.96
-0.965
-0.95
-0.96
-0.97
-0.98
-0.995
-0.995
-1.005
-0.995
-0.985
-0.965
-0.965
-0.97
-0.975
-0.97
-0.97
-0.98
-0.98
-0.99
-0.99
-0.995
-0.98
-0.96
-0.965
-0.955
-0.955
-0.96
-0.97
-0.98
-0.98
-0.99
-0.985
-0.975
-0.99
-0.975
-0.955
-0.935
-0.945
-0.96
-0.95
-0.955
-0.96
-0.97
-0.98
-0.97
-0.985
-0.96
-0.95
-0.945
-0.95
-0.94
-0.935
-0.945
-0.945
-0.955
-0.955
-0.95
-0.94
-0.915
-0.905
-0.88
-0.86
-0.845
-0.835
-0.835
-0.84
-0.85
-0.825
-0.795
-0.75
-0.7
-0.645
-0.605
-0.595
-0.63
-0.66
-0.71
-0.745
-0.76
-0.76
-0.8
-0.805
-0.83
-0.84
