Lead II
-1.895
-1.72
-1.555
-1.405
-1.285
-1.21
-1.135
-1.115
-1.09
-1.08
-1.07
-1.065
-1.055
-1.03
-1.02
-1.025
-1.01
-0.985
-0.995
-1.005
-1.005
-1.025
-1.035
-1.04
-1.055
-1.055
-1.055
-1.035
-1.02
-1.045
-1.05
-1.065
-1.085
-1.095
-1.135
-1.13
-1.15
-1.165
-1.16
-1.18
-1.18
-1.2
-1.23
-1.24
-1.255
-1.28
-1.305
-1.32
-1.325
-1.315
-1.295
-1.285
-1.29
-1.305
-1.295
-1.305
-1.325
-1.325
-1.34
-1.335
-1.32
-1.31
-1.285
-1.265
-1.235
-1.245
-1.225
-1.225
-1.215
-1.19
-1.155
-1.14
-1.1
-1.075
-1.04
-1.0
-0.99
-0.98
-0.97
-0.985
-0.985
-0.96
-0.94
-0.95
-0.93
-0.905
-0.9
-0.885
-0.86
-0.865
-0.865
-0.86
-0.87
-0.885
-0.89
-0.885
-0.895
-0.87
-0.88
-0.85
-0.86
-0.88
-0.885
-0.885
-0.88
-0.875
-0.87
-0.88
-0.875
-0.88
-0.86
-0.87
-0.85
-0.85
-0.865
-0.87
-0.875
-0.91
-0.905
-0.91
-0.91
-0.895
-0.91
-0.895
-0.895
-0.895
-0.895
-0.89
-0.915
-0.93
-0.915
-0.915
-0.92
-0.895
-0.885
-0.885
-0.86
-0.87
-0.885
-0.87
-0.89
-0.89
-0.93
-0.93
-0.925
-0.905
-0.87
-0.875
-0.875
-0.87
-0.87
-0.885
-0.875
-0.88
-0.88
-0.885
-0.88
-0.885
-0.86
-0.865
-0.855
-0.85
-0.865
-0.855
-0.865
-0.87
-0.865
-0.87
-0.87
-0.855
-0.855
-0.835
-0.825
-0.82
-0.81
-0.81
-0.805
-0.815
-0.835
-0.82
-0.795
-0.785
-0.75
-0.75
-0.73
-0.73
-0.715
-0.705
-0.67
-0.645
-0.625
-0.605
-0.605
-0.615
-0.625
-0.64
-0.67
-0.685
-0.7
-0.69
-0.68
-0.675
-0.655
-0.61
-0.605
-0.6
-0.63
-0.65
-0.675
-0.72
-0.77
-0.77
-0.81
-0.83
-0.84
-0.85
-0.87
-0.875
-0.875
-0.875
-0.855
-0.865
-0.87
-0.885
-0.9
-0.9
-0.92
-0.915
-0.925
-0.91
-0.925
-0.91
-0.91
-0.905
-0.905
-0.915
-0.935
-0.92
-0.92
-0.935
-0.925
-0.925
-0.9
-0.905
-0.89
-0.915
-0.915
-0.92
-0.935
-0.935
-0.93
-0.93
-0.945
-0.94
-0.94
-0.93
-0.89
-0.81
-0.665
-0.495
-0.33
-0.15
-0.01
0.035
0.01
0.0
0.015
0.12
0.28
0.43
0.535
0.52
0.295
-0.095
-0.585
-1.105
-1.525
-1.825
-1.97
-2.04
-2.08
-2.115
-2.16
-2.19
-2.26
-2.28
-2.275
-2.29
-2.31
-2.3
-2.265
-2.245
-2.22
-2.15
-2.095
-1.995
-1.89
-1.735
-1.58
-1.44
-1.305
-1.2
-1.125
-1.085
-1.055
-1.04
-1.035
-1.03
-1.02
-1.02
-1.02
-1.015
-1.01
-0.995
-0.995
-0.975
-0.975
-0.99
-0.985
-1.0
-1.0
-1.02
-1.015
-1.045
-1.05
-1.04
-1.035
-1.035
-1.045
-1.055
-1.055
-1.095
-1.12
-1.14
-1.16
-1.175
-1.205
-1.21
-1.2
-1.21
-1.205
-1.21
-1.24
-1.255
-1.27
-1.285
-1.3
-1.32
-1.315
-1.3
-1.29
-1.305
-1.29
-1.31
-1.3
-1.295
-1.305
-1.305
-1.305
-1.3
-1.29
-1.26
-1.25
-1.235
-1.21
-1.185
-1.165
-1.15
-1.135
-1.13
-1.105
-1.11
-1.06
-1.035
-1.01
-0.98
-0.95
-0.95
-0.925
-0.92
-0.92
-0.93
-0.91
-0.905
-0.895
-0.885
-0.87
-0.845
-0.85
-0.825
-0.845
-0.835
-0.84
-0.85
-0.84
-0.84
-0.855
-0.845
-0.84
-0.82
-0.82
-0.82
-0.83
-0.835
-0.845
-0.85
-0.845
-0.865
-0.86
-0.855
-0.835
-0.83
-0.815
-0.825
-0.835
-0.845
-0.85
-0.86
-0.875
-0.885
-0.88
-0.895
-0.865
-0.87
-0.86
-0.865
-0.86
-0.875
-0.885
-0.9
-0.92
-0.915
-0.905
-0.88
-0.885
-0.89
-0.855
-0.855
-0.855
-0.865
-0.865
-0.88
-0.89
-0.89
-0.89
-0.88
-0.88
-0.865
-0.855
-0.85
-0.865
-0.865
-0.88
-0.875
-0.885
-0.88
-0.875
-0.87
-0.865
-0.855
-0.845
-0.845
-0.845
-0.845
-0.855
-0.855
-0.855
-0.835
-0.825
-0.81
-0.79
-0.765
-0.745
-0.745
-0.74
-0.74
-0.74
-0.73
-0.725
-0.705
-0.665
-0.64
-0.605
-0.605
-0.585
-0.625
-0.645
-0.67
-0.705
-0.715
-0.715
-0.705
-0.68
-0.63
-0.6
-0.59
-0.595
-0.615
-0.665
-0.705
-0.74
-0.785
-0.825
-0.84
-0.86
-0.85
-0.86
-0.87
-0.875
-0.88
-0.9
-0.895
-0.91
-0.92
-0.93
-0.925
-0.925
-0.925
-0.915
-0.915
-0.915
-0.905
-0.9
-0.91
-0.93
-0.945
-0.96
-0.955
-0.95
-0.935
-0.94
-0.925
-0.915
-0.92
-0.92
-0.925
-0.93
-0.935
-0.94
-0.955
-0.965
-0.95
-0.95
-0.965
-0.965
-0.945
-0.865
-0.755
-0.59
-0.425
-0.265
-0.17
-0.12
-0.13
-0.13
-0.07
0.055
0.245
0.435
0.565
0.525
0.3
-0.145
-0.715
-1.24
-1.67
-1.945
-2.065
-2.115
-2.14
-2.175
-2.21
-2.26
-2.3
-2.315
-2.32
-2.315
-2.28
-2.27
-2.245
-2.215
-2.18
-2.13
-2.06
-1.965
-1.815
-1.665
-1.51
-1.37
-1.255
-1.165
-1.11
-1.06
-1.06
-1.02
-1.01
-1.0
-0.99
-1.0
-0.98
-0.975
-0.985
-0.965
-0.965
-0.945
-0.96
-0.965
-0.965
-0.97
-0.97
-1.005
-1.01
-0.985
-0.995
-1.005
-1.005
-1.01
-1.015
-1.025
-1.03
-1.045
-1.075
-1.1
-1.105
-1.11
-1.13
-1.105
-1.12
-1.125
-1.14
-1.145
-1.195
-1.19
-1.215
-1.235
-1.255
-1.26
-1.24
-1.245
-1.23
-1.225
-1.235
-1.235
-1.24
-1.25
-1.25
-1.255
-1.26
-1.255
-1.24
-1.22
-1.215
-1.19
-1.17
-1.15
-1.15
-1.145
-1.135
-1.11
-1.1
-1.08
-1.065
-1.025
-0.98
-0.955
-0.95
-0.925
-0.92
-0.905
-0.9
-0.9
-0.9
-0.915
-0.885
-0.855
-0.85
-0.83
-0.815
-0.815
-0.825
-0.815
-0.83
-0.825
-0.83
-0.83
-0.815
-0.82
-0.81
-0.795
-0.795
-0.79
-0.805
-0.825
-0.825
-0.84
-0.84
-0.835
-0.825
-0.82
-0.815
-0.81
-0.805
-0.81
-0.84
-0.845
-0.855
-0.87
-0.885
-0.885
-0.865
-0.865
-0.865
-0.85
-0.86
-0.86
-0.865
-0.885
-0.895
-0.9
-0.9
-0.9
-0.91
-0.915
-0.895
-0.885
-0.865
-0.875
-0.88
-0.875
-0.91
-0.885
-0.915
-0.91
-0.895
-0.875
-0.875
-0.85
-0.86
-0.86
-0.86
-0.875
-0.89
-0.89
-0.875
-0.87
-0.87
-0.865
-0.865
-0.855
-0.845
-0.845
-0.855
-0.87
-0.865
-0.88
-0.875
-0.875
-0.88
-0.865
-0.86
-0.865
-0.84
-0.82
-0.81
-0.835
-0.825
-0.825
-0.81
-0.795
-0.77
-0.745
-0.735
-0.715
-0.7
-0.685
-0.665
-0.645
-0.63
-0.6
-0.595
-0.605
-0.645
-0.65
-0.66
-0.66
-0.685
-0.68
-0.665
-0.645
-0.625
-0.62
-0.615
-0.62
-0.65
-0.675
-0.715
-0.735
-0.77
-0.785
-0.81
-0.835
-0.855
-0.88
-0.895
-0.9
-0.9
-0.91
-0.9
-0.915
-0.91
-0.9
-0.925
-0.92
-0.92
-0.925
-0.935
-0.935
-0.945
-0.93
-0.955
-0.925
-0.915
-0.92
-0.93
-0.94
-0.935
-0.94
-0.945
-0.935
-0.935
-0.935
-0.93
-0.925
-0.915
-0.91
-0.925
-0.935
-0.95
-1.0
-0.995
-0.975
-0.93
-0.825
-0.685
-0.48
-0.3
-0.16
-0.075
-0.06
-0.095
-0.1
-0.015
0.135
0.35
0.51
0.545
0.38
-0.05
-0.6
-1.18
-1.66
-1.99
-2.16
-2.24
-2.28
-2.275
-2.27
-2.295
-2.31
-2.315
-2.32
-2.32
-2.32
-2.3
-2.28
-2.255
-2.175
-2.1
-1.975
-1.82
-1.64
-1.465
-1.32
-1.215
-1.145
-1.095
-1.085
-1.06
-1.04
-1.015
-0.995
-0.98
-0.97
-0.955
-0.95
-0.94
-0.955
-0.96
-0.975
-0.975
-0.98
-0.96
-0.975
-0.975
-0.975
-0.965
-0.97
-0.995
-1.005
-1.015
-1.035
-1.07
-1.075
-1.09
-1.1
-1.095
-1.1
-1.12
-1.125
-1.145
-1.16
-1.19
-1.2
-1.205
-1.225
-1.225
-1.23
-1.225
-1.225
-1.24
-1.235
-1.235
-1.23
-1.245
-1.24
-1.245
-1.25
-1.225
-1.22
-1.21
-1.19
-1.16
-1.145
-1.125
-1.12
-1.115
-1.115
-1.09
-1.06
-1.025
-1.01
-0.99
-0.965
-0.955
-0.925
-0.9
-0.9
-0.9
-0.89
-0.895
-0.89
-0.865
-0.85
-0.84
-0.82
-0.8
-0.8
-0.805
-0.82
-0.81
-0.83
-0.82
-0.83
-0.815
-0.805
-0.79
-0.795
-0.8
-0.81
-0.8
-0.81
-0.815
-0.825
-0.84
-0.83
-0.825
-0.82
-0.81
-0.8
-0.815
-0.815
-0.825
-0.83
-0.845
-0.86
-0.87
-0.87
-0.875
-0.865
-0.855
-0.855
-0.865
-0.865
-0.855
-0.88
-0.88
-0.88
-0.88
-0.89
-0.87
-0.87
-0.86
-0.845
-0.86
-0.855
-0.84
-0.85
-0.845
-0.865
-0.86
-0.855
-0.865
-0.865
-0.855
-0.84
-0.85
-0.84
-0.835
-0.84
-0.85
-0.845
-0.845
-0.875
-0.84
-0.83
-0.83
-0.815
-0.805
-0.82
-0.84
-0.845
-0.84
-0.845
-0.85
-0.84
-0.83
-0.84
-0.825
-0.79
-0.78
-0.78
-0.775
-0.765
-0.775
-0.76
-0.77
-0.765
-0.74
-0.73
-0.705
-0.685
-0.65
-0.625
-0.59
-0.575
-0.57
-0.59
-0.6
-0.62
-0.66
-0.65
-0.675
-0.665
-0.665
-0.65
-0.615
-0.595
-0.59
-0.58
-0.605
-0.635
-0.675
-0.725
-0.74
-0.755
-0.77
-0.79
-0.8
-0.83
-0.835
-0.865
-0.885
-0.89
-0.895
-0.895
-0.895
-0.885
-0.885
-0.89
-0.895
-0.91
-0.925
-0.92
-0.915
-0.93
-0.92
-0.915
-0.905
-0.89
-0.885
-0.9
-0.905
-0.915
-0.925
-0.935
-0.93
-0.915
-0.905
-0.9
-0.875
-0.895
-0.89
-0.895
-0.885
-0.91
-0.925
-0.945
-0.945
-0.935
-0.87
-0.765
-0.6
-0.42
-0.23
-0.085
-0.015
-0.01
-0.065
-0.09
-0.05
0.06
0.26
0.45
0.585
0.525
0.27
-0.19
-0.75
-1.32
-1.775
-2.07
-2.225
-2.275
-2.295
-2.285
-2.3
-2.305
-2.315
-2.32
-2.32
-2.325
-2.32
-2.315
-2.295
-2.24
-2.205
-2.11
-2.0
-1.86
-1.71
-1.545
-1.405
-1.285
-1.21
-1.16
-1.115
-1.105
-1.085
-1.055
-1.035
-1.0
-0.965
-0.965
-0.975
-0.97
-0.965
-0.965
-0.975
-0.975
-0.98
-0.975
-0.96
-0.97
-0.97
-0.975
-0.985
-0.995
-0.99
-1.01
-1.025
-1.055
-1.05
-1.05
-1.05
-1.045
-1.055
-1.065
-1.075
-1.1
-1.105
-1.13
-1.14
-1.145
-1.15
-1.19
-1.185
-1.18
-1.18
-1.2
-1.215
-1.22
-1.23
-1.235
-1.245
-1.26
-1.27
-1.255
-1.24
-1.225
-1.225
-1.23
-1.22
-1.23
-1.25
-1.24
-1.245
-1.235
-1.22
-1.185
-1.165
-1.12
-1.115
-1.095
-1.08
-1.065
-1.05
-1.04
-1.045
-1.025
-1.0
-0.95
-0.91
-0.895
-0.87
-0.865
-0.87
-0.865
-0.87
-0.855
-0.875
-0.855
-0.835
-0.825
-0.845
-0.845
-0.825
-0.82
-0.81
-0.815
-0.825
-0.83
-0.83
-0.825
-0.815
-0.81
-0.79
-0.79
-0.78
-0.78
-0.78
-0.8
-0.805
-0.815
-0.825
-0.825
-0.84
-0.84
-0.845
-0.845
-0.83
-0.835
-0.84
-0.855
-0.87
-0.865
-0.87
-0.86
-0.87
-0.865
-0.85
-0.84
-0.83
-0.845
-0.86
-0.865
-0.865
-0.855
-0.885
-0.87
-0.875
-0.855
-0.885
-0.85
-0.84
-0.845
-0.855
-0.87
-0.87
-0.885
-0.87
-0.85
-0.855
-0.85
-0.845
-0.83
-0.835
-0.815
-0.82
-0.84
-0.83
-0.835
-0.83
-0.835
-0.83
-0.805
-0.815
-0.81
-0.805
-0.815
-0.82
-0.815
-0.845
-0.865
-0.84
-0.835
-0.84
-0.845
-0.81
-0.78
-0.785
-0.78
-0.79
-0.78
-0.785
-0.775
-0.78
-0.755
-0.75
-0.735
-0.71
-0.69
-0.68
-0.655
-0.635
-0.625
-0.58
-0.59
-0.595
-0.615
-0.635
-0.65
-0.65
-0.66
-0.655
-0.655
-0.63
-0.615
-0.6
-0.595
-0.59
-0.6
-0.625
-0.66
-0.705
-0.71
-0.75
-0.775
-0.78
-0.8
-0.82
-0.845
-0.855
-0.86
-0.875
-0.89
-0.87
-0.86
-0.87
-0.865
-0.88
-0.87
-0.865
-0.885
-0.9
-0.89
-0.885
-0.885
-0.875
-0.87
-0.865
-0.895
-0.875
-0.88
-0.89
-0.895
-0.9
-0.91
-0.895
-0.885
-0.875
-0.88
-0.865
-0.865
-0.87
-0.885
-0.91
-0.925
-0.93
-0.93
-0.875
-0.76
-0.61
-0.39
-0.165
0.01
0.135
0.16
0.115
0.1
0.105
0.185
0.325
0.465
0.505
0.365
0.045
-0.46
-1.01
-1.5
-1.865
-2.08
-2.19
-2.225
-2.225
-2.225
-2.23
-2.21
-2.195
-2.21
-2.22
-2.225
-2.23
-2.2
-2.175
-2.145
-2.08
-2.0
-1.875
-1.745
-1.57
-1.425
-1.29
-1.195
-1.12
-1.06
-1.035
-1.025
-1.01
-1.01
-0.995
-0.96
-0.94
-0.93
-0.93
-0.93
-0.94
-0.945
-0.965
-0.95
-0.955
-0.95
-0.94
-0.93
-0.94
-0.945
-0.945
-0.97
-0.985
-0.995
-1.015
-1.035
-1.05
-1.045
-1.055
-1.055
-1.055
-1.07
-1.09
-1.11
-1.13
-1.155
-1.185
-1.215
-1.22
-1.195
-1.185
-1.205
-1.205
-1.21
-1.22
-1.23
-1.25
-1.245
-1.255
-1.26
-1.26
-1.25
-1.235
-1.225
-1.225
-1.21
-1.215
-1.2
-1.2
-1.195
-1.185
-1.165
-1.145
-1.13
-1.095
-1.09
-1.065
-1.035
-1.015
-0.98
-0.97
-0.96
-0.935
-0.93
-0.915
-0.88
-0.87
-0.85
-0.84
-0.84
-0.84
-0.84
-0.845
-0.835
-0.82
-0.825
-0.815
-0.795
-0.785
-0.765
-0.76
-0.765
-0.76
-0.77
-0.78
-0.79
-0.785
-0.78
-0.785
-0.77
-0.77
-0.765
-0.75
-0.76
-0.75
-0.765
-0.77
-0.785
-0.8
-0.795
-0.79
-0.795
-0.795
-0.785
-0.78
-0.77
-0.795
-0.79
-0.805
-0.815
-0.82
-0.84
-0.83
-0.83
-0.815
-0.81
-0.795
-0.805
-0.805
-0.8
-0.815
-0.825
-0.825
-0.83
-0.825
-0.8
-0.805
-0.81
-0.805
-0.82
-0.82
-0.825
-0.84
-0.835
-0.83
-0.825
-0.82
-0.815
-0.82
-0.79
-0.785
-0.79
-0.8
-0.8
-0.825
-0.825
-0.825
-0.835
-0.82
-0.815
-0.795
-0.785
-0.785
-0.785
-0.78
-0.785
-0.8
-0.805
-0.8
-0.8
-0.785
-0.77
-0.745
-0.735
-0.71
-0.72
-0.7
-0.69
-0.695
-0.705
-0.7
-0.69
-0.66
-0.61
-0.58
-0.535
-0.51
-0.535
-0.55
-0.58
-0.595
-0.635
-0.65
-0.68
-0.675
-0.665
-0.625
-0.58
-0.545
-0.545
-0.54
-0.575
-0.615
-0.655
-0.68
-0.73
-0.745
-0.76
-0.775
-0.775
-0.78
-0.8
-0.815
-0.83
-0.845
-0.86
-0.865
-0.865
-0.875
-0.875
-0.86
-0.855
-0.85
-0.86
-0.865
-0.87
-0.88
-0.895
-0.905
-0.895
-0.905
-0.9
-0.88
-0.87
-0.855
-0.875
-0.885
-0.88
-0.895
-0.885
-0.89
-0.9
-0.89
-0.89
-0.895
-0.875
-0.885
-0.91
-0.895
-0.86
-0.78
-0.64
-0.48
-0.295
-0.115
-0.03
-0.015
-0.02
-0.005
0.065
0.23
0.43
0.54
0.5
0.245
-0.205
-0.745
-1.265
-1.675
-1.935
-2.045
-2.1
-2.12
-2.16
-2.18
-2.195
-2.215
-2.22
-2.225
-2.22
-2.185
-2.15
-2.13
-2.08
-2.025
-1.935
-1.84
-1.695
-1.525
-1.39
-1.26
-1.145
-1.09
-1.04
-0.99
-0.985
-0.975
-0.965
-0.94
-0.94
-0.94
-0.945
-0.92
-0.93
-0.925
-0.9
-0.905
-0.9
-0.91
-0.92
-0.925
-0.945
-0.955
-0.97
-0.96
-0.985
-0.955
-0.965
-0.95
-0.97
-0.985
-1.01
-1.035
-1.05
-1.06
-1.08
-1.065
-1.095
-1.085
-1.085
-1.09
-1.095
-1.115
-1.135
-1.15
-1.175
-1.17
-1.19
-1.185
-1.195
-1.18
-1.17
-1.155
-1.16
-1.165
-1.18
-1.18
-1.17
-1.165
-1.185
-1.16
-1.145
-1.12
-1.095
-1.055
-1.04
-1.04
-1.015
-1.02
-0.975
-0.965
-0.94
-0.92
-0.905
-0.87
-0.845
-0.815
-0.815
-0.795
-0.795
-0.805
-0.8
-0.805
-0.795
-0.78
-0.775
-0.745
-0.745
-0.725
-0.72
-0.725
-0.725
-0.725
-0.74
-0.75
-0.74
-0.74
-0.735
-0.73
-0.73
-0.725
-0.725
-0.745
-0.73
-0.735
-0.755
-0.755
-0.77
-0.77
-0.775
-0.77
-0.77
-0.76
-0.75
-0.765
-0.785
-0.78
-0.79
-0.795
-0.8
-0.795
-0.785
-0.765
-0.76
-0.75
-0.78
-0.795
-0.785
-0.79
-0.8
-0.8
-0.81
-0.81
-0.795
-0.78
-0.775
-0.765
-0.76
-0.77
-0.775
-0.78
-0.785
-0.78
-0.785
-0.78
-0.775
-0.765
-0.75
-0.745
-0.75
-0.765
-0.755
-0.77
-0.755
-0.765
-0.79
-0.785
-0.765
-0.765
-0.76
-0.74
-0.75
-0.75
-0.755
-0.745
-0.75
-0.755
-0.765
-0.76
-0.735
-0.725
-0.715
-0.685
-0.685
-0.69
-0.665
-0.685
-0.665
-0.66
-0.655
-0.64
-0.64
-0.63
-0.605
-0.58
-0.56
-0.525
-0.5
-0.505
-0.48
-0.5
-0.525
-0.535
-0.545
-0.56
-0.575
-0.575
-0.555
-0.56
-0.53
-0.51
-0.51
-0.495
-0.52
-0.535
-0.565
-0.595
-0.615
-0.645
-0.665
-0.695
-0.7
-0.735
-0.755
-0.78
-0.8
-0.79
-0.79
-0.785
-0.78
-0.78
-0.8
-0.81
-0.795
-0.835
-0.835
-0.83
-0.825
-0.85
-0.82
-0.82
-0.815
-0.8
-0.815
-0.81
-0.81
-0.805
-0.82
-0.82
-0.825
-0.835
-0.82
-0.81
-0.8
-0.775
-0.795
-0.8
-0.815
-0.83
-0.85
-0.865
-0.87
-0.815
-0.69
-0.535
-0.36
-0.14
-0.01
0.05
0.04
-0.005
-0.005
0.045
0.185
0.385
0.54
0.585
0.435
0.085
-0.435
-1.0
-1.465
-1.81
-1.975
-2.07
-2.1
-2.135
-2.145
-2.155
-2.18
-2.2
-2.21
-2.2
-2.19
-2.185
-2.175
-2.15
-2.135
-2.11
-2.015
-1.92
-1.8
-1.67
-1.5
-1.35
-1.24
-1.145
-1.065
-1.02
-0.98
-0.96
-0.95
-0.925
-0.915
-0.875
-0.88
-0.86
-0.855
-0.865
-0.875
-0.875
-0.885
-0.88
-0.87
-0.865
-0.85
-0.845
-0.855
-0.855
-0.875
-0.89
-0.9
-0.9
-0.925
-0.93
-0.94
-0.955
-0.96
-0.96
-0.97
-0.98
-1.005
-1.01
-1.04
-1.045
-1.045
-1.06
-1.085
-1.08
-1.095
-1.085
-1.1
-1.12
-1.13
-1.13
-1.15
-1.15
-1.15
-1.145
-1.15
-1.13
-1.125
-1.12
-1.105
-1.105
-1.115
-1.125
-1.12
-1.1
-1.105
-1.08
-1.055
-1.03
-1.0
-0.965
-0.96
-0.93
-0.93
-0.915
-0.895
-0.875
-0.875
-0.845
-0.84
-0.82
-0.8
-0.785
-0.785
-0.78
-0.755
-0.75
-0.745
-0.735
-0.73
-0.72
-0.72
-0.71
-0.715
-0.685
-0.695
-0.69
-0.695
-0.72
-0.73
-0.735
-0.74
-0.725
-0.71
-0.705
-0.69
-0.69
-0.685
-0.695
-0.705
-0.715
-0.725
-0.74
-0.75
-0.735
-0.76
-0.755
-0.74
-0.715
-0.75
-0.74
-0.74
-0.76
-0.775
-0.775
-0.775
-0.795
-0.775
-0.76
-0.765
-0.76
-0.75
-0.745
-0.75
-0.765
-0.77
-0.775
-0.78
-0.77
-0.78
-0.765
-0.77
-0.765
-0.78
-0.78
-0.775
-0.765
-0.775
-0.775
-0.785
-0.77
-0.775
-0.765
-0.75
-0.74
-0.745
-0.74
-0.735
-0.75
-0.76
-0.75
-0.76
-0.755
-0.74
-0.735
-0.745
-0.73
-0.735
-0.745
-0.755
-0.765
-0.755
-0.76
-0.765
-0.765
-0.76
-0.735
-0.72
-0.71
-0.72
-0.72
-0.725
-0.735
-0.74
-0.735
-0.715
-0.73
-0.695
-0.665
-0.655
-0.65
-0.635
-0.63
-0.635
-0.63
-0.64
-0.635
-0.625
-0.6
-0.57
-0.535
-0.49
-0.49
-0.485
-0.505
-0.54
-0.56
-0.56
-0.58
-0.595
-0.62
-0.585
-0.56
-0.515
-0.49
-0.485
-0.49
-0.51
-0.56
-0.6
-0.62
-0.645
-0.675
-0.69
-0.695
-0.71
-0.72
-0.725
-0.745
-0.755
-0.78
-0.78
-0.785
-0.79
-0.8
-0.785
-0.79
-0.785
-0.78
-0.795
-0.8
-0.805
-0.805
-0.805
-0.805
-0.815
-0.795
-0.82
-0.79
-0.785
-0.765
-0.78
-0.795
-0.82
-0.82
-0.82
-0.815
-0.825
-0.83
-0.82
-0.81
-0.81
-0.8
-0.8
-0.765
-0.69
-0.58
-0.445
-0.235
-0.065
0.095
0.175
0.19
0.16
0.13
0.14
0.215
0.34
0.485
0.57
0.525
0.315
-0.065
-0.585
-1.11
-1.535
-1.805
-1.955
-2.02
-2.045
-2.04
-2.055
-2.075
-2.09
-2.11
-2.11
-2.09
-2.09
-2.065
-2.055
-2.015
-1.985
-1.93
-1.855
-1.715
-1.57
-1.4
-1.225
-1.11
-1.02
-0.955
-0.935
-0.945
-0.95
-0.95
-0.94
-0.93
-0.915
-0.895
-0.89
-0.865
-0.865
-0.86
-0.87
-0.865
-0.89
-0.89
-0.895
-0.895
-0.915
-0.905
-0.905
-0.91
-0.925
-0.93
-0.935
-0.955
-0.97
-0.98
-0.995
-1.005
-1.025
-1.05
-1.065
-1.07
-1.07
-1.055
-1.095
-1.09
-1.105
-1.125
-1.145
-1.16
-1.18
-1.185
-1.18
-1.18
-1.18
-1.175
-1.175
-1.16
-1.175
-1.185
-1.18
-1.2
-1.195
-1.185
-1.165
-1.15
-1.13
-1.1
-1.1
-1.065
-1.05
-1.035
-1.025
-1.02
-1.0
-0.975
-0.925
-0.925
-0.9
-0.87
-0.855
-0.825
-0.84
-0.83
-0.835
-0.825
-0.82
-0.81
-0.815
-0.79
-0.765
-0.75
-0.745
-0.76
-0.755
-0.76
-0.76
-0.775
-0.755
-0.74
-0.74
-0.73
-0.735
-0.74
-0.735
-0.73
-0.745
-0.75
-0.755
-0.75
-0.765
-0.77
-0.755
-0.745
-0.745
-0.74
-0.735
-0.74
-0.75
-0.76
-0.785
-0.78
-0.785
-0.785
-0.77
-0.77
-0.77
-0.77
-0.77
-0.765
-0.765
-0.775
-0.775
-0.795
-0.815
-0.805
-0.805
-0.785
-0.79
-0.78
-0.775
-0.785
-0.775
-0.775
-0.79
-0.8
-0.8
-0.815
-0.81
-0.795
-0.79
-0.78
-0.78
-0.785
-0.79
-0.795
-0.8
-0.805
-0.8
-0.795
-0.795
-0.8
-0.775
-0.78
-0.775
-0.765
-0.79
-0.79
-0.795
-0.805
-0.81
-0.81
-0.78
-0.785
-0.78
-0.76
-0.75
-0.76
-0.755
-0.785
-0.785
-0.78
-0.78
-0.76
-0.745
-0.72
-0.705
-0.68
-0.675
-0.68
-0.685
-0.67
-0.68
-0.675
-0.65
-0.615
-0.6
-0.57
-0.545
-0.55
-0.57
-0.595
-0.61
-0.635
-0.645
-0.68
-0.675
-0.655
-0.615
-0.575
-0.56
-0.545
-0.555
-0.595
-0.625
-0.66
-0.695
-0.735
-0.75
-0.78
-0.795
-0.805
-0.805
-0.795
-0.825
-0.835
-0.84
-0.87
-0.875
-0.87
-0.89
-0.875
-0.875
-0.86
-0.86
-0.855
-0.86
-0.855
-0.865
-0.87
-0.89
-0.9
-0.905
-0.9
-0.885
-0.875
-0.88
-0.865
-0.87
-0.875
-0.875
-0.885
-0.89
-0.91
-0.905
-0.92
-0.915
-0.895
-0.86
-0.765
-0.625
-0.46
-0.285
-0.145
-0.05
-0.04
-0.07
-0.08
-0.055
0.06
0.235
0.42
0.53
0.54
0.325
-0.065
-0.565
-1.075
-1.485
-1.76
-1.91
-1.985
-2.015
-2.025
-2.07
-2.105
-2.135
-2.145
-2.16
-2.165
-2.15
-2.155
-2.125
-2.095
-2.015
-1.92
-1.79
-1.635
-1.5
-1.36
-1.255
-1.175
-1.11
-1.065
-1.025
-1.015
-0.995
-0.965
-0.955
-0.945
-0.925
-0.925
-0.945
-0.96
-0.94
-0.96
-0.94
-0.945
-0.925
-0.91
-0.92
-0.93
-0.945
-0.955
-0.965
-0.99
-0.995
-1.0
-1.02
-1.01
-1.02
-1.025
-1.04
-1.05
-1.055
-1.09
-1.105
-1.13
-1.135
-1.145
-1.155
-1.155
-1.15
-1.155
-1.175
-1.175
-1.2
-1.19
-1.21
-1.22
-1.23
-1.23
-1.23
-1.22
-1.23
-1.2
-1.19
-1.18
-1.19
-1.195
-1.19
-1.18
-1.16
-1.145
-1.14
-1.085
-1.065
-1.035
-1.01
-0.995
-0.98
-0.99
-0.965
-0.95
-0.935
-0.92
-0.9
-0.875
-0.845
-0.83
-0.82
-0.8
-0.805
-0.8
-0.81
-0.815
-0.815
-0.8
-0.795
-0.79
-0.775
-0.775
-0.765
-0.77
-0.76
-0.79
-0.795
-0.79
-0.79
-0.785
-0.785
-0.8
-0.78
-0.775
-0.77
-0.79
-0.785
-0.815
-0.805
-0.82
-0.825
-0.83
-0.815
-0.81
-0.805
-0.81
-0.805
-0.81
-0.835
-0.83
-0.85
-0.865
-0.845
-0.85
-0.85
-0.825
-0.835
-0.825
-0.835
-0.82
-0.85
-0.845
-0.83
-0.83
-0.855
-0.85
-0.84
-0.835
-0.825
-0.82
-0.82
-0.815
-0.825
-0.825
-0.855
-0.845
-0.835
-0.835
-0.84
-0.83
-0.815
-0.8
-0.81
-0.8
-0.805
-0.815
-0.81
-0.81
-0.82
-0.82
-0.81
-0.795
-0.8
-0.79
-0.79
-0.785
-0.79
-0.8
-0.79
-0.8
-0.795
-0.78
-0.775
-0.775
-0.755
-0.73
-0.73
-0.715
-0.71
-0.71
-0.72
-0.72
-0.73
-0.705
-0.675
-0.63
-0.59
-0.56
-0.535
-0.54
-0.57
-0.61
-0.63
-0.65
-0.665
-0.675
-0.67
-0.655
-0.635
-0.6
-0.57
-0.555
-0.555
-0.57
-0.6
-0.655
-0.695
-0.73
-0.76
-0.77
-0.755
-0.785
-0.79
-0.815
-0.82
-0.83
-0.85
-0.865
-0.87
-0.885
-0.87
-0.86
-0.87
-0.855
-0.865
-0.865
-0.875
-0.905
-0.895
-0.91
-0.895
-0.895
-0.91
-0.89
-0.885
-0.885
-0.875
-0.885
-0.87
-0.88
-0.9
-0.9
-0.895
-0.89
-0.885
-0.88
-0.885
-0.885
-0.89
-0.885
-0.86
-0.805
-0.685
-0.555
-0.375
-0.22
-0.115
-0.065
-0.08
-0.1
-0.085
0.0
0.19
0.365
0.475
0.47
0.28
-0.1
-0.61
-1.125
-1.555
-1.845
-1.995
-2.075
-2.11
-2.165
-2.155
-2.175
-2.21
-2.22
-2.205
-2.19
-2.21
-2.175
-2.13
-2.085
-2.04
-1.965
-1.865
-1.73
-1.595
-1.435
-1.285
-1.16
-1.08
-1.04
-1.005
-0.99
-0.99
-0.975
-0.97
-0.96
-0.95
-0.935
-0.925
-0.925
-0.91
-0.9
-0.915
-0.91
-0.905
-0.935
-0.93
-0.945
-0.965
-0.965
-0.965
-0.955
-0.96
-0.96
-0.96
-0.97
-0.985
-1.015
-1.025
-1.045
-1.055
-1.07
-1.085
-1.085
-1.09
-1.09
-1.09
-1.11
-1.11
-1.14
-1.14
-1.16
-1.18
-1.2
-1.185
-1.175
-1.165
-1.175
-1.175
-1.18
-1.18
-1.19
-1.195
-1.205
-1.2
-1.2
-1.19
-1.185
-1.185
-1.155
-1.12
-1.11
-1.1
-1.08
-1.09
-1.075
-1.06
-1.02
-1.0
-0.97
-0.945
-0.91
-0.89
-0.88
-0.875
-0.86
-0.88
-0.875
-0.86
-0.865
-0.84
-0.815
-0.8
-0.79
-0.765
-0.78
-0.77
-0.77
-0.785
-0.78
-0.775
-0.775
-0.785
-0.78
-0.775
-0.765
-0.76
-0.76
-0.77
-0.765
-0.765
-0.775
-0.78
-0.785
-0.78
-0.78
-0.77
-0.775
-0.775
-0.775
-0.775
-0.785
-0.81
-0.815
-0.8
-0.815
-0.805
-0.805
-0.8
-0.79
-0.785
-0.795
-0.81
-0.815
-0.83
-0.84
-0.845
-0.85
-0.84
-0.845
-0.825
-0.815
-0.805
-0.81
-0.815
-0.835
-0.835
-0.855
-0.85
-0.865
-0.84
-0.845
-0.845
-0.825
-0.8
-0.805
-0.795
-0.825
-0.835
-0.85
-0.84
-0.825
-0.825
-0.82
-0.805
-0.815
-0.805
-0.805
-0.81
-0.815
-0.82
-0.84
-0.835
-0.835
-0.84
-0.815
-0.8
-0.81
-0.79
-0.805
-0.8
-0.805
-0.815
-0.815
-0.815
-0.815
-0.81
-0.795
-0.785
-0.77
-0.755
-0.745
-0.745
-0.735
-0.735
-0.735
-0.745
-0.74
-0.7
-0.69
-0.68
-0.655
-0.64
-0.63
-0.6
-0.575
-0.545
-0.55
-0.56
-0.555
-0.58
-0.585
-0.605
-0.605
-0.61
-0.61
-0.615
-0.625
-0.595
-0.575
-0.56
-0.55
-0.57
-0.6
-0.63
-0.675
-0.695
-0.71
-0.72
-0.74
-0.76
-0.8
-0.815
-0.83
-0.835
-0.83
-0.825
-0.82
-0.81
-0.835
-0.84
-0.855
-0.85
-0.87
-0.87
-0.87
-0.875
-0.865
-0.865
-0.835
-0.83
-0.845
-0.83
-0.85
-0.855
-0.87
-0.875
-0.87
-0.86
-0.85
-0.835
-0.83
-0.825
-0.83
-0.83
-0.845
-0.865
-0.885
-0.895
-0.88
-0.855
-0.76
-0.63
-0.445
-0.265
-0.1
0.015
0.065
0.035
-0.02
-0.04
0.005
0.14
0.32
0.48
0.585
0.55
0.34
-0.075
-0.625
-1.18
-1.625
-1.925
-2.09
-2.165
-2.16
-2.14
-2.135
-2.135
-2.145
-2.165
-2.17
-2.2
-2.21
-2.22
-2.21
-2.19
-2.15
-2.09
-2.01
-1.915
-1.835
-1.7
-1.54
-1.365
-1.22
-1.12
-1.035
-1.02
-0.995
-0.98
-0.945
-0.92
-0.895
-0.875
-0.88
-0.895
-0.895
-0.91
-0.92
-0.93
-0.95
-0.945
-0.94
-0.92
-0.895
-0.87
-0.875
-0.885
-0.9
-0.93
-0.975
-1.0
-1.015
-1.015
-1.015
-1.0
-0.98
-0.975
-0.99
-1.01
-1.025
-1.04
-1.055
-1.07
-1.085
-1.11
-1.1
-1.1
-1.11
-1.125
-1.165
-1.17
-1.18
-1.185
-1.195
-1.205
-1.195
-1.185
-1.18
-1.185
-1.2
-1.175
-1.17
-1.17
-1.15
-1.135
-1.1
-1.085
-1.09
-1.105
-1.12
-1.11
-1.085
-1.035
-0.975
-0.95
-0.91
-0.895
-0.88
-0.87
-0.87
-0.825
-0.825
-0.835
-0.865
-0.865
-0.85
-0.82
-0.785
-0.79
-0.78
-0.755
-0.755
-0.75
-0.745
-0.745
-0.76
-0.755
-0.765
-0.775
-0.77
-0.765
-0.78
-0.785
-0.8
-0.805
-0.8
-0.79
-0.775
-0.765
-0.765
-0.77
-0.785
-0.81
-0.825
-0.8
-0.805
-0.79
-0.775
-0.77
-0.8
-0.825
-0.85
-0.83
-0.825
-0.815
-0.82
-0.83
-0.845
-0.845
-0.83
-0.805
-0.8
-0.795
-0.81
-0.865
-0.94
-0.98
-0.96
-0.92
-0.84
-0.8
-0.81
-0.82
-0.84
-0.845
-0.835
-0.865
-0.86
-0.9
-0.91
-0.89
-0.88
-0.875
-0.845
-0.83
-0.83
-0.83
-0.855
-0.865
-0.875
-0.85
-0.82
-0.775
-0.765
-0.77
-0.795
-0.825
-0.865
-0.875
-0.89
-0.89
-0.88
-0.88
-0.87
-0.85
-0.82
-0.79
-0.795
-0.785
-0.785
-0.8
-0.8
-0.825
-0.835
-0.83
-0.82
-0.81
-0.775
-0.755
-0.76
-0.755
-0.745
-0.76
-0.755
-0.775
-0.74
-0.715
-0.69
-0.65
-0.63
-0.61
-0.615
-0.605
-0.63
-0.665
-0.69
-0.725
-0.74
-0.71
-0.685
-0.655
-0.625
-0.635
-0.625
-0.645
-0.66
-0.705
-0.755
-0.79
-0.825
-0.835
-0.86
-0.885
-0.89
-0.885
-0.87
-0.855
-0.86
-0.87
-0.905
-0.9
-0.905
-0.895
-0.895
-0.9
-0.895
-0.895
-0.88
-0.85
-0.84
-0.86
-0.875
-0.915
-0.94
-0.935
-0.91
-0.91
-0.87
-0.845
-0.84
-0.84
-0.855
-0.875
-0.88
-0.905
-0.925
-0.955
-0.95
-0.92
-0.865
-0.745
-0.595
-0.395
-0.245
-0.09
-0.005
0.02
-0.005
0.0
0.005
0.07
0.2
0.355
0.475
0.435
0.215
-0.19
-0.705
-1.195
-1.555
-1.775
-1.87
-1.895
-1.93
-1.93
-1.95
-1.98
-2.025
-2.065
-2.095
-2.1
-2.11
-2.115
-2.085
-2.05
-1.96
-1.87
-1.745
-1.59
-1.42
-1.285
-1.135
-1.045
-1.02
-1.03
-1.065
-1.095
-1.09
-1.07
-1.04
-0.975
-0.95
-0.92
-0.925
-0.95
-1.0
-1.065
-1.115
-1.09
-1.02
-0.95
-0.89
-0.87
-0.89
-0.96
-1.01
-1.055
-1.08
-1.06
-1.075
-1.045
-1.035
-1.04
-1.05
-1.065
-1.1
-1.12
-1.135
-1.11
-1.135
