Lead II
-0.845
-0.825
-0.82
-0.815
-0.8
-0.81
-0.8
-0.805
-0.805
-0.805
-0.82
-0.805
-0.79
-0.78
-0.76
-0.74
-0.72
-0.715
-0.715
-0.71
-0.705
-0.705
-0.705
-0.685
-0.67
-0.645
-0.615
-0.605
-0.58
-0.57
-0.565
-0.565
-0.545
-0.545
-0.55
-0.55
-0.53
-0.515
-0.505
-0.5
-0.475
-0.475
-0.48
-0.495
-0.495
-0.51
-0.525
-0.525
-0.53
-0.535
-0.54
-0.54
-0.545
-0.55
-0.545
-0.585
-0.595
-0.6
-0.63
-0.64
-0.635
-0.655
-0.65
-0.665
-0.665
-0.675
-0.685
-0.71
-0.715
-0.725
-0.73
-0.75
-0.735
-0.735
-0.72
-0.715
-0.71
-0.715
-0.715
-0.725
-0.735
-0.75
-0.75
-0.745
-0.735
-0.73
-0.72
-0.71
-0.695
-0.69
-0.685
-0.695
-0.705
-0.695
-0.705
-0.705
-0.7
-0.695
-0.68
-0.67
-0.66
-0.665
-0.665
-0.67
-0.675
-0.665
-0.675
-0.675
-0.68
-0.665
-0.655
-0.655
-0.63
-0.64
-0.64
-0.64
-0.645
-0.66
-0.66
-0.67
-0.655
-0.64
-0.65
-0.645
-0.64
-0.645
-0.63
-0.635
-0.655
-0.655
-0.65
-0.655
-0.655
-0.65
-0.65
-0.645
-0.64
-0.635
-0.625
-0.63
-0.645
-0.645
-0.645
-0.655
-0.645
-0.635
-0.63
-0.625
-0.62
-0.63
-0.63
-0.64
-0.645
-0.645
-0.655
-0.66
-0.645
-0.645
-0.64
-0.63
-0.625
-0.615
-0.61
-0.61
-0.615
-0.615
-0.62
-0.625
-0.615
-0.62
-0.62
-0.605
-0.605
-0.615
-0.6
-0.62
-0.62
-0.62
-0.625
-0.63
-0.63
-0.615
-0.61
-0.605
-0.6
-0.6
-0.605
-0.61
-0.615
-0.625
-0.63
-0.625
-0.625
-0.62
-0.625
-0.615
-0.6
-0.61
-0.61
-0.615
-0.63
-0.63
-0.63
-0.635
-0.64
-0.635
-0.61
-0.62
-0.6
-0.605
-0.61
-0.6
-0.615
-0.625
-0.625
-0.625
-0.615
-0.615
-0.605
-0.6
-0.595
-0.605
-0.62
-0.62
-0.64
-0.63
-0.635
-0.635
-0.615
-0.625
-0.625
-0.615
-0.605
-0.605
-0.585
-0.585
-0.58
-0.58
-0.58
-0.585
-0.585
-0.585
-0.59
-0.59
-0.565
-0.58
-0.575
-0.56
-0.555
-0.565
-0.54
-0.54
-0.535
-0.54
-0.55
-0.545
-0.55
-0.555
-0.565
-0.57
-0.565
-0.575
-0.58
-0.57
-0.56
-0.56
-0.535
-0.525
-0.54
-0.54
-0.545
-0.57
-0.595
-0.625
-0.63
-0.64
-0.64
-0.635
-0.635
-0.63
-0.62
-0.62
-0.62
-0.635
-0.65
-0.65
-0.655
-0.655
-0.665
-0.645
-0.595
-0.545
-0.46
-0.4
-0.355
-0.3
-0.275
-0.285
-0.345
-0.415
-0.475
-0.47
-0.39
-0.225
-0.015
0.21
0.455
0.695
0.94
1.19
1.405
1.59
1.7
1.76
1.725
1.62
1.435
1.2
0.915
0.6
0.31
0.05
-0.18
-0.38
-0.555
-0.7
-0.805
-0.865
-0.925
-0.92
-0.925
-0.925
-0.92
-0.915
-0.885
-0.855
-0.85
-0.83
-0.81
-0.785
-0.785
-0.79
-0.795
-0.81
-0.8
-0.815
-0.83
-0.82
-0.82
-0.815
-0.82
-0.81
-0.805
-0.795
-0.805
-0.815
-0.84
-0.83
-0.84
-0.84
-0.85
-0.84
-0.845
-0.83
-0.84
-0.84
-0.84
-0.835
-0.845
-0.86
-0.865
-0.865
-0.87
-0.875
-0.87
-0.86
-0.855
-0.86
-0.865
-0.875
-0.885
-0.9
-0.895
-0.895
-0.89
-0.875
-0.875
-0.875
-0.87
-0.88
-0.875
-0.89
-0.905
-0.91
-0.92
-0.93
-0.935
-0.925
-0.915
-0.905
-0.9
-0.9
-0.9
-0.91
-0.91
-0.92
-0.915
-0.905
-0.91
-0.905
-0.895
-0.885
-0.87
-0.87
-0.87
-0.865
-0.87
-0.87
-0.86
-0.865
-0.855
-0.845
-0.81
-0.8
-0.765
-0.755
-0.75
-0.74
-0.73
-0.72
-0.7
-0.7
-0.68
-0.64
-0.62
-0.605
-0.585
-0.585
-0.59
-0.575
-0.585
-0.58
-0.575
-0.575
-0.57
-0.575
-0.565
-0.565
-0.565
-0.575
-0.585
-0.605
-0.61
-0.625
-0.635
-0.645
-0.665
-0.665
-0.675
-0.685
-0.685
-0.7
-0.71
-0.725
-0.74
-0.75
-0.765
-0.77
-0.775
-0.775
-0.775
-0.77
-0.755
-0.78
-0.77
-0.79
-0.815
-0.815
-0.81
-0.81
-0.795
-0.78
-0.77
-0.77
-0.775
-0.77
-0.775
-0.775
-0.775
-0.78
-0.785
-0.77
-0.77
-0.755
-0.745
-0.74
-0.735
-0.735
-0.73
-0.73
-0.735
-0.735
-0.74
-0.745
-0.735
-0.72
-0.71
-0.705
-0.71
-0.69
-0.695
-0.7
-0.71
-0.725
-0.71
-0.72
-0.705
-0.71
-0.705
-0.69
-0.685
-0.68
-0.695
-0.7
-0.7
-0.71
-0.71
-0.71
-0.7
-0.695
-0.69
-0.695
-0.68
-0.675
-0.685
-0.68
-0.695
-0.7
-0.71
-0.7
-0.68
-0.68
-0.675
-0.67
-0.66
-0.655
-0.67
-0.675
-0.68
-0.69
-0.69
-0.7
-0.69
-0.685
-0.67
-0.655
-0.64
-0.655
-0.655
-0.655
-0.665
-0.68
-0.68
-0.69
-0.685
-0.675
-0.665
-0.655
-0.655
-0.65
-0.65
-0.665
-0.67
-0.675
-0.675
-0.685
-0.67
-0.665
-0.66
-0.655
-0.65
-0.675
-0.665
-0.655
-0.67
-0.675
-0.68
-0.68
-0.675
-0.66
-0.665
-0.645
-0.63
-0.64
-0.655
-0.645
-0.665
-0.67
-0.665
-0.655
-0.655
-0.66
-0.645
-0.64
-0.645
-0.64
-0.635
-0.65
-0.64
-0.665
-0.66
-0.67
-0.665
-0.655
-0.66
-0.65
-0.64
-0.64
-0.645
-0.64
-0.64
-0.65
-0.655
-0.65
-0.65
-0.645
-0.635
-0.62
-0.615
-0.615
-0.625
-0.635
-0.635
-0.635
-0.64
-0.645
-0.645
-0.645
-0.63
-0.615
-0.625
-0.625
-0.62
-0.62
-0.635
-0.63
-0.63
-0.645
-0.63
-0.63
-0.625
-0.61
-0.615
-0.605
-0.595
-0.595
-0.595
-0.6
-0.6
-0.595
-0.59
-0.59
-0.585
-0.58
-0.575
-0.57
-0.565
-0.555
-0.56
-0.54
-0.535
-0.54
-0.525
-0.525
-0.53
-0.525
-0.515
-0.525
-0.53
-0.545
-0.54
-0.545
-0.56
-0.565
-0.575
-0.57
-0.555
-0.545
-0.515
-0.52
-0.49
-0.5
-0.495
-0.51
-0.52
-0.54
-0.555
-0.555
-0.57
-0.58
-0.575
-0.58
-0.585
-0.585
-0.605
-0.6
-0.61
-0.61
-0.6
-0.59
-0.58
-0.575
-0.56
-0.565
-0.58
-0.585
-0.605
-0.605
-0.585
-0.545
-0.465
-0.385
-0.31
-0.235
-0.185
-0.18
-0.22
-0.3
-0.385
-0.425
-0.415
-0.31
-0.15
0.075
0.315
0.54
0.77
1.0
1.23
1.455
1.635
1.77
1.825
1.83
1.785
1.685
1.54
1.33
1.1
0.84
0.585
0.335
0.105
-0.12
-0.315
-0.485
-0.615
-0.71
-0.77
-0.8
-0.795
-0.79
-0.795
-0.8
-0.795
-0.79
-0.765
-0.75
-0.725
-0.705
-0.685
-0.665
-0.65
-0.67
-0.67
-0.675
-0.69
-0.69
-0.7
-0.7
-0.695
-0.69
-0.685
-0.665
-0.66
-0.67
-0.685
-0.67
-0.685
-0.685
-0.675
-0.68
-0.685
-0.68
-0.67
-0.675
-0.67
-0.655
-0.66
-0.66
-0.665
-0.675
-0.685
-0.69
-0.685
-0.665
-0.675
-0.66
-0.66
-0.66
-0.66
-0.67
-0.675
-0.68
-0.68
-0.69
-0.695
-0.69
-0.69
-0.67
-0.66
-0.66
-0.67
-0.665
-0.67
-0.685
-0.68
-0.68
-0.685
-0.68
-0.675
-0.67
-0.675
-0.66
-0.675
-0.67
-0.67
-0.68
-0.67
-0.68
-0.67
-0.665
-0.665
-0.655
-0.64
-0.62
-0.625
-0.625
-0.635
-0.63
-0.64
-0.625
-0.615
-0.61
-0.6
-0.59
-0.545
-0.545
-0.545
-0.525
-0.515
-0.5
-0.5
-0.485
-0.465
-0.455
-0.425
-0.41
-0.39
-0.375
-0.36
-0.335
-0.32
-0.315
-0.315
-0.305
-0.295
-0.285
-0.27
-0.245
-0.24
-0.235
-0.235
-0.235
-0.24
-0.26
-0.27
-0.275
-0.275
-0.265
-0.275
-0.275
-0.27
-0.29
-0.31
-0.305
-0.34
-0.35
-0.37
-0.375
-0.385
-0.38
-0.39
-0.395
-0.395
-0.415
-0.405
-0.41
-0.43
-0.425
-0.44
-0.435
-0.44
-0.425
-0.43
-0.42
-0.415
-0.415
-0.415
-0.42
-0.42
-0.42
-0.44
-0.415
-0.42
-0.395
-0.39
-0.375
-0.37
-0.365
-0.375
-0.37
-0.385
-0.38
-0.365
-0.355
-0.35
-0.35
-0.345
-0.33
-0.31
-0.31
-0.315
-0.32
-0.315
-0.315
-0.325
-0.32
-0.315
-0.32
-0.305
-0.305
-0.28
-0.27
-0.27
-0.275
-0.265
-0.27
-0.265
-0.275
-0.275
-0.26
-0.26
-0.255
-0.235
-0.245
-0.255
-0.255
-0.26
-0.255
-0.255
-0.265
-0.245
-0.245
-0.24
-0.225
-0.215
-0.2
-0.205
-0.23
-0.215
-0.22
-0.235
-0.225
-0.235
-0.22
-0.22
-0.2
-0.195
-0.195
-0.21
-0.205
-0.205
-0.205
-0.2
-0.21
-0.21
-0.21
-0.195
-0.18
-0.16
-0.16
-0.165
-0.165
-0.165
-0.175
-0.19
-0.195
-0.185
-0.165
-0.17
-0.155
-0.15
-0.15
-0.155
-0.155
-0.155
-0.155
-0.165
-0.17
-0.15
-0.15
-0.135
-0.14
-0.125
-0.13
-0.135
-0.13
-0.13
-0.15
-0.145
-0.14
-0.145
-0.13
-0.12
-0.125
-0.115
-0.12
-0.125
-0.13
-0.125
-0.135
-0.135
-0.14
-0.135
-0.115
-0.115
-0.105
-0.095
-0.1
-0.11
-0.12
-0.14
-0.13
-0.135
-0.13
-0.125
-0.1
-0.115
-0.11
-0.09
-0.08
-0.085
-0.1
-0.105
-0.11
-0.115
-0.11
-0.12
-0.095
-0.09
-0.08
-0.075
-0.04
-0.05
-0.06
-0.065
-0.075
-0.085
-0.07
-0.055
-0.05
-0.02
-0.005
0.005
0.025
0.03
0.025
0.01
0.005
-0.01
-0.03
-0.03
-0.035
-0.035
-0.035
-0.035
-0.03
-0.02
-0.005
0.0
0.0
0.0
-0.01
-0.015
-0.015
-0.025
-0.025
-0.035
-0.055
-0.075
-0.095
-0.11
-0.115
-0.11
-0.13
-0.13
-0.105
-0.09
-0.085
-0.07
-0.09
-0.095
-0.1
-0.115
-0.12
-0.13
-0.11
-0.06
0.01
0.095
0.185
0.25
0.275
0.3
0.29
0.22
0.165
0.1
0.11
0.195
0.36
0.565
0.78
1.005
1.215
1.435
1.635
1.835
1.97
2.07
2.095
2.05
1.945
1.79
1.585
1.355
1.11
0.845
0.62
0.39
0.175
-0.025
-0.19
-0.315
-0.375
-0.4
-0.415
-0.385
-0.37
-0.34
-0.325
-0.3
-0.275
-0.26
-0.245
-0.24
-0.24
-0.24
-0.245
-0.25
-0.225
-0.23
-0.24
-0.235
-0.24
-0.245
-0.245
-0.25
-0.255
-0.24
-0.235
-0.225
-0.23
-0.225
-0.23
-0.25
-0.25
-0.26
-0.26
-0.245
-0.255
-0.24
-0.25
-0.24
-0.255
-0.24
-0.24
-0.255
-0.25
-0.255
-0.26
-0.265
-0.265
-0.25
-0.25
-0.23
-0.235
-0.235
-0.25
-0.255
-0.26
-0.255
-0.265
-0.26
-0.25
-0.25
-0.255
-0.25
-0.25
-0.245
-0.24
-0.255
-0.26
-0.275
-0.27
-0.27
-0.265
-0.26
-0.25
-0.23
-0.23
-0.22
-0.23
-0.225
-0.215
-0.215
-0.2
-0.21
-0.195
-0.18
-0.175
-0.14
-0.12
-0.11
-0.09
-0.085
-0.08
-0.05
-0.04
-0.02
0.005
0.035
0.065
0.085
0.11
0.125
0.13
0.14
0.15
0.17
0.175
0.195
0.21
0.22
0.235
0.255
0.26
0.265
0.28
0.26
0.26
0.24
0.245
0.245
0.235
0.23
0.225
0.235
0.255
0.235
0.23
0.215
0.185
0.175
0.175
0.17
0.165
0.165
0.17
0.175
0.165
0.155
0.15
0.135
0.12
0.12
0.105
0.12
0.12
0.125
0.135
0.15
0.17
0.17
0.18
0.17
0.175
0.18
0.185
0.195
0.2
0.22
0.225
0.24
0.245
0.255
0.255
0.255
0.265
0.265
0.265
0.27
0.29
0.3
0.31
0.32
0.335
0.33
0.33
0.325
0.33
0.34
0.345
0.345
0.35
0.36
0.37
0.385
0.395
0.39
0.39
0.385
0.39
0.38
0.395
0.39
0.395
0.425
0.425
0.425
0.445
0.455
0.46
0.455
0.455
0.455
0.45
0.45
0.465
0.465
0.485
0.51
0.495
0.5
0.5
0.485
0.51
0.505
0.51
0.51
0.52
0.535
0.54
0.555
0.56
0.565
0.555
0.565
0.555
0.545
0.56
0.565
0.57
0.58
0.59
0.6
0.605
0.6
0.6
0.6
0.59
0.6
0.605
0.59
0.61
0.62
0.635
0.64
0.655
0.66
0.66
0.65
0.645
0.65
0.645
0.655
0.66
0.675
0.685
0.69
0.7
0.69
0.69
0.695
0.695
0.685
0.685
0.69
0.71
0.715
0.725
0.735
0.745
0.745
0.74
0.745
0.735
0.72
0.72
0.73
0.735
0.76
0.76
0.775
0.785
0.785
0.775
0.77
0.765
0.775
0.78
0.77
0.775
0.8
0.82
0.83
0.83
0.835
0.835
0.825
0.82
0.82
0.8
0.815
0.815
0.835
0.84
0.855
0.87
0.87
0.87
0.86
0.86
0.855
0.86
0.855
0.865
0.87
0.905
0.905
0.91
0.92
0.925
0.915
0.92
0.92
0.92
0.925
0.93
0.94
0.955
0.96
0.97
0.97
0.97
0.965
0.97
0.96
0.98
0.985
0.99
1.005
1.005
1.025
1.045
1.03
1.02
1.01
0.99
0.98
0.99
1.005
1.0
1.015
1.02
1.04
1.055
1.065
1.075
1.055
1.06
1.05
1.045
1.03
1.01
1.0
1.0
1.0
1.0
1.01
1.005
0.995
1.0
0.985
0.99
0.99
0.995
0.99
0.99
1.0
1.025
1.06
1.115
1.175
1.23
1.28
1.315
1.32
1.285
1.235
1.17
1.145
1.18
1.28
1.44
1.595
1.75
1.895
2.035
2.155
2.27
2.355
2.405
2.45
2.445
2.425
2.38
2.335
2.255
2.14
1.995
1.845
1.675
1.48
1.29
1.125
1.0
0.905
0.86
0.835
0.84
0.845
0.855
0.88
0.895
0.93
0.95
0.985
1.005
1.005
1.005
0.995
0.98
0.98
0.965
0.97
0.975
0.985
0.995
1.0
1.005
1.005
0.995
0.995
0.99
0.995
0.98
0.975
0.98
0.985
0.99
1.0
1.0
1.0
0.995
0.975
0.99
0.97
0.975
0.97
0.965
0.97
0.98
0.985
0.98
0.975
0.975
0.97
0.96
0.95
0.945
0.94
0.935
0.935
0.95
0.93
0.945
0.94
0.94
0.935
0.925
0.915
0.91
0.915
0.9
0.915
0.92
0.925
0.92
0.92
0.925
0.905
0.89
0.89
0.89
0.89
0.9
0.9
0.9
0.905
0.905
0.905
0.91
0.91
0.905
0.895
0.9
0.905
0.92
0.93
0.94
0.955
0.97
0.97
0.985
0.98
0.995
0.995
1.005
1.01
1.03
1.04
1.055
1.07
1.075
1.07
1.09
1.085
1.085
1.105
1.1
1.13
1.13
1.15
1.15
1.16
1.155
1.16
1.15
1.14
1.135
1.12
1.12
1.115
1.115
1.11
1.105
1.1
1.085
1.075
1.06
1.055
1.04
1.03
1.01
1.005
1.0
0.99
0.995
1.0
0.99
0.99
0.965
0.955
0.945
0.945
0.93
0.93
0.94
0.93
0.94
0.93
0.95
0.92
0.92
0.925
0.915
0.905
0.915
0.915
0.915
0.915
0.93
0.93
0.94
0.93
0.92
0.93
0.92
0.91
0.92
0.915
0.91
0.92
0.93
0.94
0.94
0.935
0.93
0.925
0.92
0.91
0.915
0.92
0.915
0.92
0.925
0.93
0.935
0.93
0.93
0.925
0.91
0.91
0.91
0.9
0.905
0.905
0.91
0.915
0.92
0.91
0.9
0.895
0.89
0.885
0.875
0.88
0.88
0.89
0.9
0.905
0.91
0.91
0.895
0.885
0.89
0.88
0.885
0.87
0.885
0.885
0.89
0.88
0.895
0.885
0.875
0.87
0.865
0.855
0.86
0.865
0.875
0.865
0.875
0.88
0.875
0.86
0.855
0.845
0.85
0.85
0.83
0.83
0.835
0.84
0.84
0.85
0.855
0.845
0.845
0.84
0.83
0.825
0.82
0.815
0.83
0.83
0.815
0.83
0.83
0.825
0.82
0.82
0.795
0.8
0.795
0.8
0.795
0.785
0.8
0.815
0.81
0.8
0.815
0.79
0.78
0.78
0.77
0.77
0.775
0.785
0.78
0.79
0.795
0.79
0.78
0.77
0.765
0.755
0.75
0.725
0.72
0.725
0.75
0.775
0.775
0.765
0.755
0.75
0.735
0.72
0.715
0.73
0.72
0.74
0.745
0.76
0.75
0.74
0.735
0.735
0.73
0.73
0.735
0.74
0.75
0.755
0.755
0.76
0.755
0.745
0.73
0.715
0.69
0.695
0.68
0.67
0.685
0.69
0.69
0.705
0.72
0.715
0.71
0.695
0.685
0.67
0.655
0.635
0.625
0.615
0.605
0.605
0.61
0.595
0.59
0.575
0.565
0.565
0.555
0.55
0.55
0.56
0.555
0.56
0.555
0.55
0.58
0.61
0.65
0.695
0.725
0.76
0.79
0.8
0.765
0.725
0.67
0.63
0.64
0.695
0.795
0.925
1.065
1.19
1.32
1.42
1.51
1.585
1.64
1.655
1.655
1.62
1.565
1.475
1.35
1.215
1.06
0.89
0.76
0.61
0.48
0.365
0.28
0.22
0.195
0.185
0.18
0.19
0.2
0.23
0.255
0.28
0.3
0.31
0.305
0.3
0.285
0.285
0.28
0.265
0.265
0.26
0.27
0.285
0.295
0.295
0.27
0.28
0.265
0.25
0.235
0.23
0.23
0.235
0.24
0.25
0.255
0.24
0.235
0.22
0.215
0.21
0.195
0.19
0.18
0.17
0.185
0.185
0.19
0.18
0.18
0.18
0.165
0.155
0.15
0.125
0.135
0.135
0.14
0.14
0.15
0.13
0.135
0.105
0.105
0.085
0.075
0.085
0.065
0.08
0.085
0.075
0.085
0.075
0.075
0.06
0.05
0.04
0.035
0.035
0.035
0.04
0.04
0.045
0.03
0.025
0.025
0.03
0.025
0.015
0.015
0.015
0.03
0.035
0.045
0.05
0.07
0.06
0.065
0.06
0.07
0.075
0.08
0.09
0.09
0.105
0.12
0.14
0.145
0.135
0.145
0.15
0.155
0.145
0.165
0.17
0.19
0.19
0.2
0.215
0.215
0.22
0.235
0.225
0.215
0.195
0.205
0.185
0.185
0.185
0.185
0.195
0.195
0.18
0.17
0.145
0.13
0.105
0.1
0.08
0.055
0.065
0.045
0.04
0.05
0.035
0.025
0.015
0.0
-0.01
-0.025
-0.045
-0.05
-0.05
-0.05
-0.045
-0.06
-0.07
-0.065
-0.09
-0.09
-0.105
-0.115
-0.11
-0.11
-0.1
-0.09
-0.09
-0.085
-0.08
-0.09
-0.11
-0.12
-0.12
-0.12
-0.115
-0.125
-0.11
-0.1
-0.095
-0.1
-0.105
-0.1
-0.11
-0.105
-0.135
-0.13
-0.13
-0.13
-0.135
-0.13
-0.12
-0.12
-0.12
-0.12
-0.125
-0.145
-0.13
-0.155
-0.155
-0.16
-0.165
-0.155
-0.15
-0.14
-0.16
-0.15
-0.155
-0.155
-0.165
-0.175
-0.18
-0.18
-0.19
-0.19
-0.18
-0.175
-0.175
-0.19
-0.2
-0.2
-0.195
-0.205
-0.21
-0.22
-0.21
-0.205
-0.21
-0.2
-0.195
-0.21
-0.21
-0.23
-0.235
-0.24
-0.245
-0.245
-0.255
-0.235
-0.23
-0.235
-0.24
-0.245
-0.26
-0.26
-0.265
-0.27
-0.27
-0.265
-0.26
-0.265
-0.255
-0.24
-0.255
-0.26
-0.265
-0.275
-0.28
-0.285
-0.305
-0.31
-0.295
-0.295
-0.29
-0.285
-0.295
-0.29
-0.31
-0.32
-0.335
-0.34
-0.335
-0.34
-0.34
-0.345
-0.335
-0.33
-0.335
-0.34
-0.345
-0.35
-0.355
-0.355
-0.38
-0.365
-0.36
-0.37
-0.36
-0.36
-0.365
-0.37
-0.38
-0.395
-0.4
-0.405
-0.41
-0.41
-0.405
-0.395
-0.395
-0.395
-0.395
-0.4
-0.41
-0.42
-0.425
-0.435
-0.435
-0.425
-0.44
-0.42
-0.41
-0.415
-0.42
-0.42
-0.435
-0.43
-0.44
-0.455
-0.44
-0.45
-0.445
-0.445
-0.43
-0.43
-0.43
-0.44
-0.45
-0.46
-0.465
-0.46
-0.47
-0.475
-0.455
-0.46
-0.455
-0.455
-0.445
-0.445
-0.46
-0.47
-0.485
-0.5
-0.5
-0.495
-0.47
-0.465
-0.445
-0.425
-0.43
-0.435
-0.43
-0.435
-0.43
-0.44
-0.455
-0.45
-0.47
-0.475
-0.465
-0.465
-0.475
-0.49
-0.485
-0.475
-0.47
-0.475
-0.475
-0.47
-0.48
-0.49
-0.505
-0.515
-0.535
-0.56
-0.575
-0.58
-0.605
-0.61
-0.6
-0.605
-0.605
-0.595
-0.59
-0.58
-0.6
-0.595
-0.61
-0.615
-0.635
-0.645
-0.64
-0.625
-0.575
-0.53
-0.455
-0.38
-0.365
-0.335
-0.335
-0.35
-0.415
-0.485
-0.545
-0.53
-0.46
-0.33
-0.175
0.01
0.18
0.335
0.465
0.6
0.68
0.755
0.8
0.81
0.805
0.785
0.725
0.635
0.495
0.33
0.14
-0.065
-0.285
-0.5
-0.685
-0.83
-0.915
-0.97
-0.97
-0.96
-0.945
-0.92
-0.91
-0.88
-0.875
-0.865
-0.855
-0.84
-0.85
-0.85
-0.865
-0.87
-0.87
-0.86
-0.85
-0.86
-0.87
-0.865
-0.875
-0.865
-0.86
-0.85
-0.855
-0.86
-0.86
-0.87
-0.885
-0.88
-0.895
-0.895
-0.91
-0.905
-0.9
-0.895
-0.89
-0.89
-0.905
-0.92
-0.925
-0.915
-0.92
-0.93
-0.935
-0.935
-0.935
-0.935
-0.93
-0.93
-0.935
-0.945
-0.945
-0.965
-0.98
-0.98
-0.975
-0.97
-0.97
-0.965
-0.97
-0.96
-0.97
-0.97
-0.985
-1.0
-1.01
-1.01
-1.015
-1.025
-1.01
-1.01
-1.01
-1.005
-1.02
-1.015
-1.025
-1.025
-1.025
-1.035
-1.025
-1.02
-1.01
-0.99
-0.985
-0.975
-0.965
-0.975
-0.96
-0.96
-0.96
-0.96
-0.94
-0.945
-0.915
-0.895
-0.88
-0.865
-0.865
-0.86
-0.845
-0.84
-0.845
-0.83
-0.81
-0.795
-0.79
-0.78
-0.775
-0.76
-0.76
-0.76
-0.755
-0.75
-0.765
-0.775
-0.775
-0.775
-0.77
-0.77
-0.78
-0.77
-0.78
-0.8
-0.82
-0.83
-0.835
-0.85
-0.86
-0.865
-0.87
-0.875
-0.88
-0.89
-0.905
-0.915
-0.95
-0.955
-0.955
-0.965
-0.985
-0.99
-0.99
-0.99
-0.995
-1.0
-1.01
-1.015
-1.015
-1.025
-1.03
-1.03
-1.035
-1.04
-1.025
-1.015
-1.015
-1.0
-1.0
-0.995
-1.005
-1.005
-1.01
-1.02
-1.015
-1.005
-1.0
-1.0
-0.995
-0.98
-0.985
-0.975
-0.995
-1.01
-0.995
-1.005
-1.015
-1.005
-1.01
-0.99
-0.975
-0.98
-0.965
-0.98
-0.995
-1.005
-1.01
-1.0
-1.005
-0.99
-0.99
-1.0
-0.965
-0.965
-0.98
-0.985
-0.985
-1.005
-0.995
-0.995
-1.01
-1.0
-0.995
-0.99
-0.975
-0.975
-0.98
-0.975
-0.99
-1.0
-1.005
-1.005
-1.01
-1.0
-1.005
-0.995
-1.0
-0.99
-1.0
-1.005
-1.01
-1.02
-1.015
-1.015
-1.02
-1.025
-1.02
-1.035
-1.03
-1.025
-1.0
-1.01
-1.02
-1.025
-1.04
-1.035
-1.04
-1.045
-1.045
-1.03
-1.015
-1.015
-1.025
-1.025
-1.035
-1.05
-1.06
-1.055
-1.06
-1.055
-1.045
-1.04
-1.04
-1.045
-1.035
-1.04
-1.04
-1.05
-1.06
-1.06
-1.075
-1.08
-1.065
-1.06
-1.055
-1.035
-1.05
-1.05
-1.055
-1.06
-1.075
-1.075
-1.08
-1.07
-1.07
-1.065
-1.06
-1.07
-1.06
-1.065
-1.075
-1.085
-1.08
-1.1
-1.095
-1.09
-1.085
-1.085
-1.08
-1.095
-1.09
-1.085
-1.09
-1.095
-1.1
-1.105
-1.105
-1.11
-1.1
-1.1
-1.1
-1.1
-1.095
-1.1
-1.1
-1.12
-1.12
-1.115
-1.12
-1.11
-1.11
-1.105
-1.09
-1.08
-1.095
-1.1
-1.1
-1.12
-1.115
-1.12
-1.1
-1.095
-1.085
-1.075
-1.07
-1.055
-1.06
-1.07
-1.085
-1.09
-1.125
-1.13
-1.13
-1.13
-1.14
-1.12
-1.12
-1.12
-1.11
-1.115
-1.105
-1.095
-1.105
-1.11
-1.115
-1.12
-1.135
-1.15
-1.17
-1.175
-1.195
-1.21
-1.215
-1.23
-1.24
-1.235
-1.24
-1.245
-1.235
-1.235
-1.23
-1.22
-1.23
-1.24
-1.26
-1.28
-1.28
-1.26
-1.22
-1.145
-1.09
-1.02
-0.96
-0.925
-0.93
-0.955
-1.025
-1.1
-1.13
-1.095
-1.005
-0.845
-0.68
-0.485
-0.315
-0.155
-0.015
0.13
0.24
0.32
0.36
0.385
0.345
0.28
0.195
0.075
-0.075
-0.25
-0.44
-0.625
-0.805
-0.99
-1.14
-1.295
-1.41
-1.505
-1.56
-1.615
-1.615
-1.61
-1.6
-1.595
-1.585
-1.555
-1.54
-1.52
-1.51
-1.495
-1.505
-1.5
-1.49
-1.495
-1.495
-1.495
-1.505
-1.53
-1.53
-1.54
-1.55
-1.55
-1.545
-1.53
-1.535
-1.53
-1.53
-1.54
-1.55
-1.555
-1.565
-1.575
-1.58
-1.57
-1.58
-1.595
-1.58
-1.58
-1.585
-1.58
-1.585
-1.6
-1.615
-1.635
-1.635
-1.64
-1.635
-1.62
-1.63
-1.62
-1.63
-1.64
-1.64
-1.655
-1.675
-1.675
-1.685
-1.69
-1.685
-1.68
-1.675
-1.68
-1.67
-1.675
-1.69
-1.705
-1.72
-1.73
-1.735
-1.735
-1.73
-1.72
-1.725
-1.715
-1.725
-1.725
-1.74
-1.74
-1.74
-1.74
-1.75
-1.74
-1.725
-1.715
-1.695
-1.69
-1.685
-1.68
-1.69
-1.685
-1.685
-1.655
-1.65
-1.64
-1.62
-1.61
-1.58
-1.56
-1.55
-1.54
-1.54
-1.535
-1.525
-1.52
-1.515
-1.505
-1.49
-1.475
-1.45
-1.44
-1.44
-1.44
-1.44
-1.455
-1.465
-1.46
-1.48
-1.485
-1.485
-1.485
-1.5
-1.51
-1.52
-1.525
-1.54
-1.565
-1.57
-1.59
-1.6
-1.61
-1.62
-1.625
-1.625
-1.625
-1.64
-1.645
-1.665
-1.695
-1.72
-1.71
-1.725
-1.73
-1.725
-1.73
-1.725
-1.725
-1.735
-1.74
-1.745
-1.74
-1.755
-1.755
-1.77
-1.76
-1.74
-1.725
-1.72
-1.715
-1.715
-1.725
-1.725
-1.735
-1.735
-1.75
-1.75
-1.755
-1.74
-1.75
-1.735
-1.72
-1.72
-1.73
-1.735
-1.725
-1.74
-1.74
-1.745
-1.73
-1.725
-1.715
-1.715
-1.71
-1.72
-1.725
-1.725
-1.74
-1.73
-1.745
-1.74
-1.73
-1.745
-1.72
-1.715
-1.715
-1.705
-1.72
-1.72
-1.73
-1.73
-1.745
-1.76
-1.75
-1.745
-1.74
-1.74
-1.735
-1.73
-1.725
-1.74
-1.745
-1.745
-1.75
-1.765
-1.765
-1.76
-1.755
-1.735
-1.72
-1.735
-1.735
-1.745
-1.75
-1.765
-1.77
-1.77
-1.765
-1.765
-1.76
-1.76
-1.745
-1.745
-1.76
-1.75
-1.765
-1.77
-1.77
-1.775
-1.775
-1.78
-1.77
-1.765
-1.765
-1.755
-1.77
-1.765
-1.77
-1.775
-1.78
-1.79
-1.795
-1.79
-1.78
-1.775
-1.775
-1.785
-1.785
-1.785
-1.795
-1.81
-1.805
-1.81
-1.815
-1.81
-1.825
-1.815
-1.805
-1.795
-1.795
-1.8
-1.815
-1.805
-1.805
-1.815
-1.81
-1.81
-1.81
-1.815
-1.81
-1.805
-1.81
-1.815
-1.825
-1.83
-1.83
-1.825
-1.84
-1.825
-1.825
-1.815
-1.815
-1.82
-1.81
-1.82
-1.825
-1.835
-1.84
-1.84
-1.84
-1.83
-1.83
-1.83
-1.83
-1.82
-1.825
-1.825
-1.83
-1.845
-1.83
-1.845
-1.845
-1.84
-1.835
-1.84
-1.84
-1.845
-1.845
-1.835
-1.845
-1.855
-1.85
-1.85
-1.845
-1.85
-1.85
-1.84
-1.845
-1.84
-1.85
-1.855
-1.845
-1.84
-1.84
-1.84
-1.835
-1.83
-1.835
-1.835
-1.82
-1.83
-1.825
-1.81
-1.81
-1.81
-1.795
-1.81
-1.805
-1.8
-1.795
-1.795
-1.805
-1.805
-1.81
-1.815
-1.83
-1.845
-1.845
-1.835
-1.82
-1.81
-1.79
-1.78
-1.785
-1.785
-1.815
-1.82
-1.855
-1.875
-1.89
-1.91
-1.91
-1.905
-1.91
-1.91
-1.89
-1.9
-1.895
-1.9
-1.92
-1.92
-1.915
-1.925
-1.925
-1.92
-1.915
-1.895
-1.835
-1.775
-1.7
-1.64
-1.595
-1.56
-1.57
-1.62
-1.685
-1.745
-1.755
-1.66
-1.485
-1.295
-1.05
-0.81
-0.57
-0.36
-0.19
-0.07
-0.035
-0.005
-0.05
-0.14
-0.27
-0.45
-0.665
-0.935
-1.2
-1.475
-1.72
-1.95
-2.115
-2.21
-2.27
-2.27
-2.255
-2.255
-2.225
-2.185
-2.17
-2.145
-2.14
-2.14
-2.13
-2.135
-2.135
-2.13
-2.13
-2.125
-2.125
-2.135
-2.13
-2.13
-2.14
-2.14
-2.145
-2.145
-2.13
-2.13
-2.125
-2.135
-2.13
-2.145
-2.145
-2.155
-2.165
-2.175
-2.17
-2.17
-2.165
-2.15
-2.14
-2.16
-2.16
-2.17
-2.17
-2.2
-2.19
-2.185
-2.195
-2.19
-2.19
-2.195
-2.195
-2.19
-2.195
-2.205
-2.21
-2.235
-2.225
-2.245
-2.23
-2.24
-2.245
-2.24
-2.235
-2.225
-2.24
-2.245
-2.245
-2.255
-2.26
-2.265
-2.275
-2.255
-2.265
-2.25
-2.25
-2.24
-2.235
-2.24
-2.245
-2.245
-2.24
-2.245
-2.24
-2.24
-2.23
-2.21
-2.19
-2.19
-2.19
-2.19
-2.175
-2.18
-2.185
-2.17
-2.16
-2.145
-2.125
-2.11
-2.07
-2.055
-2.045
-2.05
-2.035
-2.02
-2.01
-2.005
-1.995
-1.985
-1.955
-1.945
-1.93
-1.925
-1.93
-1.92
-1.935
-1.915
-1.92
-1.925
-1.925
-1.925
-1.915
-1.92
-1.925
-1.94
-1.94
-1.955
-1.97
-1.98
-2.0
-2.005
-2.005
-2.04
-2.03
-2.04
-2.05
-2.055
-2.07
-2.1
-2.105
-2.135
-2.145
-2.145
-2.145
-2.155
-2.14
-2.145
-2.14
-2.13
-2.145
-2.15
-2.16
-2.15
-2.16
-2.18
-2.175
-2.165
-2.16
-2.15
-2.145
-2.15
-2.145
-2.145
-2.145
-2.15
-2.145
-2.145
-2.15
-2.135
-2.125
-2.115
-2.12
-2.105
-2.125
-2.125
-2.12
-2.12
-2.13
-2.13
-2.125
-2.11
-2.1
-2.095
-2.08
-2.075
-2.075
-2.09
-2.095
-2.105
-2.105
-2.095
-2.1
-2.09
-2.08
-2.085
-2.075
-2.075
-2.075
-2.085
-2.085
-2.09
-2.09
-2.105
-2.1
-2.09
-2.095
-2.08
-2.075
-2.065
-2.075
-2.08
-2.08
-2.085
-2.09
-2.095
-2.085
-2.09
-2.09
-2.065
-2.075
-2.065
-2.065
-2.06
-2.075
-2.08
-2.08
-2.07
-2.085
-2.085
-2.08
-2.065
-2.065
-2.045
-2.045
-2.06
-2.065
-2.065
-2.07
-2.07
-2.065
-2.065
-2.065
-2.055
-2.05
-2.055
-2.055
-2.05
-2.05
-2.055
-2.075
-2.08
-2.07
-2.07
-2.08
-2.045
-2.045
-2.045
-2.045
-2.06
-2.06
-2.075
-2.07
-2.075
-2.065
-2.065
-2.055
-2.055
-2.035
-2.025
-2.04
-2.04
-2.055
-2.065
-2.06
-2.065
-2.07
-2.06
-2.045
-2.05
-2.045
-2.035
-2.055
-2.055
-2.055
-2.075
-2.075
-2.075
-2.085
-2.07
-2.07
-2.05
-2.04
-2.04
-2.05
-2.055
-2.045
-2.055
-2.055
-2.055
-2.06
-2.045
-2.055
-2.045
-2.03
-2.03
-2.02
-2.03
-2.025
-2.025
-2.025
-2.02
-2.025
-2.015
-2.02
-2.015
-2.0
-1.99
-1.98
-1.975
-1.97
-1.975
-1.98
-1.975
-1.965
-1.975
-1.975
-1.99
-1.975
-1.985
-1.99
-1.995
-2.015
-2.025
-2.03
-2.035
-2.025
-2.0
-1.98
-1.96
-1.955
-1.965
-1.975
-1.99
-2.02
-2.05
-2.07
-2.09
-2.09
-2.09
-2.085
-2.075
-2.085
-2.075
-2.08
-2.085
-2.105
-2.105
-2.12
-2.13
-2.11
-2.09
-2.02
-1.945
-1.86
-1.805
-1.755
-1.72
-1.72
-1.75
-1.825
