Lead II
0.125
0.115
0.085
0.065
0.045
0.03
0.03
0.035
0.035
0.045
0.025
0.0
-0.03
-0.065
-0.1
-0.14
-0.165
-0.2
-0.225
-0.24
-0.25
-0.255
-0.265
-0.27
-0.27
-0.275
-0.28
-0.28
-0.275
-0.27
-0.27
-0.265
-0.255
-0.265
-0.275
-0.275
-0.27
-0.23
-0.18
-0.1
0.015
0.19
0.395
0.6
0.835
1.04
1.23
1.39
1.52
1.6
1.595
1.545
1.405
1.2
0.945
0.655
0.38
0.145
0.005
-0.085
-0.145
-0.17
-0.21
-0.23
-0.295
-0.34
-0.39
-0.45
-0.47
-0.475
-0.47
-0.465
-0.475
-0.455
-0.455
-0.465
-0.485
-0.5
-0.505
-0.515
-0.505
-0.51
-0.52
-0.51
-0.505
-0.5
-0.515
-0.515
-0.535
-0.535
-0.53
-0.535
-0.535
-0.53
-0.535
-0.535
-0.54
-0.54
-0.555
-0.565
-0.585
-0.59
-0.59
-0.6
-0.6
-0.61
-0.625
-0.615
-0.625
-0.635
-0.64
-0.675
-0.695
-0.725
-0.74
-0.76
-0.775
-0.78
-0.785
-0.79
-0.79
-0.8
-0.81
-0.835
-0.87
-0.87
-0.885
-0.9
-0.905
-0.91
-0.91
-0.9
-0.885
-0.87
-0.865
-0.855
-0.86
-0.845
-0.84
-0.825
-0.805
-0.77
-0.75
-0.71
-0.67
-0.64
-0.61
-0.595
-0.575
-0.555
-0.54
-0.52
-0.495
-0.47
-0.44
-0.42
-0.41
-0.39
-0.395
-0.4
-0.385
-0.38
-0.37
-0.375
-0.37
-0.36
-0.355
-0.35
-0.335
-0.345
-0.355
-0.36
-0.38
-0.345
-0.36
-0.35
-0.335
-0.32
-0.3
-0.29
-0.275
-0.265
-0.26
-0.255
-0.26
-0.245
-0.24
-0.225
-0.205
-0.17
-0.13
-0.085
-0.025
0.04
0.135
0.24
0.34
0.455
0.56
0.65
0.75
0.855
0.935
1.01
1.08
1.13
1.185
1.25
1.26
1.225
1.14
0.97
0.705
0.335
-0.1
-0.57
-0.985
-1.3
-1.49
-1.575
-1.56
-1.48
-1.365
-1.275
-1.19
-1.115
-1.055
-0.98
-0.895
-0.785
-0.7
-0.605
-0.525
-0.48
-0.48
-0.495
-0.515
-0.54
-0.515
-0.51
-0.5
-0.485
-0.48
-0.49
-0.485
-0.5
-0.52
-0.52
-0.515
-0.51
-0.495
-0.48
-0.47
-0.465
-0.46
-0.46
-0.47
-0.48
-0.475
-0.475
-0.475
-0.465
-0.455
-0.455
-0.475
-0.475
-0.47
-0.475
-0.48
-0.48
-0.47
-0.475
-0.49
-0.47
-0.46
-0.45
-0.45
-0.435
-0.435
-0.42
-0.415
-0.425
-0.42
-0.43
-0.425
-0.415
-0.395
-0.375
-0.345
-0.32
-0.31
-0.3
-0.3
-0.3
-0.3
-0.29
-0.28
-0.27
-0.24
-0.215
-0.19
-0.2
-0.195
-0.19
-0.215
-0.24
-0.26
-0.27
-0.285
-0.3
-0.3
-0.3
-0.295
-0.295
-0.31
-0.33
-0.35
-0.355
-0.375
-0.385
-0.385
-0.38
-0.38
-0.39
-0.385
-0.395
-0.4
-0.4
-0.41
-0.42
-0.435
-0.445
-0.45
-0.45
-0.445
-0.435
-0.425
-0.41
-0.42
-0.425
-0.43
-0.435
-0.435
-0.45
-0.445
-0.44
-0.43
-0.41
-0.41
-0.4
-0.41
-0.42
-0.425
-0.425
-0.43
-0.43
-0.43
-0.41
-0.415
-0.415
-0.4
-0.395
-0.405
-0.4
-0.405
-0.395
-0.41
-0.41
-0.41
-0.42
-0.405
-0.415
-0.4
-0.405
-0.415
-0.415
-0.425
-0.405
-0.41
-0.41
-0.425
-0.435
-0.43
-0.41
-0.41
-0.415
-0.405
-0.385
-0.405
-0.4
-0.4
-0.395
-0.405
-0.405
-0.41
-0.41
-0.41
-0.405
-0.405
-0.405
-0.405
-0.395
-0.4
-0.405
-0.405
-0.405
-0.41
-0.405
-0.405
-0.39
-0.39
-0.375
-0.365
-0.365
-0.35
-0.325
-0.315
-0.3
-0.28
-0.26
-0.24
-0.225
-0.215
-0.195
-0.175
-0.16
-0.145
-0.115
-0.075
-0.065
-0.065
-0.08
-0.095
-0.105
-0.12
-0.105
-0.125
-0.115
-0.13
-0.155
-0.18
-0.2
-0.245
-0.27
-0.31
-0.325
-0.36
-0.37
-0.385
-0.405
-0.435
-0.44
-0.455
-0.465
-0.465
-0.46
-0.455
-0.44
-0.46
-0.44
-0.435
-0.45
-0.455
-0.45
-0.455
-0.45
-0.415
-0.36
-0.27
-0.12
0.07
0.295
0.51
0.74
0.93
1.105
1.26
1.38
1.44
1.435
1.35
1.205
0.99
0.715
0.425
0.165
-0.05
-0.19
-0.285
-0.33
-0.375
-0.4
-0.435
-0.47
-0.525
-0.555
-0.58
-0.6
-0.605
-0.615
-0.62
-0.64
-0.63
-0.62
-0.625
-0.615
-0.61
-0.61
-0.6
-0.615
-0.62
-0.645
-0.64
-0.65
-0.645
-0.65
-0.63
-0.63
-0.625
-0.63
-0.63
-0.64
-0.65
-0.66
-0.66
-0.665
-0.65
-0.645
-0.64
-0.645
-0.665
-0.68
-0.69
-0.705
-0.715
-0.725
-0.74
-0.745
-0.75
-0.75
-0.755
-0.77
-0.775
-0.785
-0.8
-0.815
-0.835
-0.85
-0.855
-0.875
-0.87
-0.875
-0.86
-0.875
-0.875
-0.885
-0.91
-0.92
-0.94
-0.935
-0.935
-0.925
-0.905
-0.89
-0.86
-0.83
-0.82
-0.815
-0.795
-0.78
-0.76
-0.755
-0.715
-0.69
-0.655
-0.62
-0.59
-0.555
-0.52
-0.5
-0.505
-0.49
-0.485
-0.465
-0.445
-0.43
-0.41
-0.405
-0.39
-0.375
-0.375
-0.365
-0.37
-0.38
-0.385
-0.38
-0.385
-0.38
-0.365
-0.36
-0.365
-0.36
-0.37
-0.355
-0.35
-0.36
-0.36
-0.375
-0.375
-0.38
-0.375
-0.365
-0.36
-0.35
-0.345
-0.35
-0.345
-0.36
-0.365
-0.375
-0.375
-0.37
-0.35
-0.33
-0.325
-0.305
-0.3
-0.285
-0.285
-0.265
-0.25
-0.245
-0.225
-0.215
-0.2
-0.19
-0.16
-0.13
-0.085
-0.04
-0.005
0.005
0.005
-0.01
-0.03
-0.065
-0.07
-0.055
-0.03
-0.02
-0.025
-0.03
-0.05
-0.105
-0.15
-0.185
-0.2
-0.22
-0.235
-0.245
-0.25
-0.265
-0.29
-0.315
-0.335
-0.35
-0.355
-0.36
-0.355
-0.35
-0.33
-0.31
-0.305
-0.295
-0.315
-0.32
-0.32
-0.34
-0.325
-0.325
-0.31
-0.295
-0.24
-0.145
0.015
0.205
0.41
0.625
0.825
1.005
1.18
1.31
1.45
1.52
1.54
1.485
1.395
1.245
1.035
0.785
0.515
0.255
0.055
-0.09
-0.165
-0.215
-0.22
-0.245
-0.255
-0.3
-0.34
-0.395
-0.43
-0.455
-0.47
-0.47
-0.465
-0.455
-0.45
-0.45
-0.445
-0.44
-0.43
-0.45
-0.45
-0.445
-0.47
-0.475
-0.475
-0.475
-0.475
-0.475
-0.46
-0.46
-0.47
-0.465
-0.455
-0.465
-0.46
-0.48
-0.48
-0.495
-0.495
-0.49
-0.495
-0.48
-0.495
-0.5
-0.505
-0.505
-0.515
-0.52
-0.535
-0.54
-0.55
-0.575
-0.57
-0.585
-0.6
-0.62
-0.62
-0.625
-0.64
-0.65
-0.655
-0.675
-0.665
-0.67
-0.655
-0.65
-0.645
-0.645
-0.64
-0.65
-0.635
-0.635
-0.61
-0.605
-0.555
-0.53
-0.495
-0.465
-0.435
-0.395
-0.395
-0.375
-0.365
-0.355
-0.34
-0.31
-0.275
-0.26
-0.23
-0.225
-0.215
-0.215
-0.21
-0.225
-0.235
-0.24
-0.23
-0.235
-0.23
-0.23
-0.225
-0.225
-0.22
-0.22
-0.225
-0.23
-0.215
-0.215
-0.215
-0.21
-0.22
-0.225
-0.235
-0.225
-0.23
-0.22
-0.215
-0.22
-0.225
-0.225
-0.22
-0.22
-0.235
-0.235
-0.22
-0.22
-0.205
-0.19
-0.18
-0.17
-0.16
-0.15
-0.125
-0.11
-0.085
-0.075
-0.05
-0.035
-0.02
0.01
0.045
0.08
0.11
0.125
0.12
0.1
0.08
0.065
0.06
0.05
0.075
0.08
0.095
0.075
0.055
0.02
-0.01
-0.05
-0.075
-0.1
-0.115
-0.12
-0.145
-0.16
-0.2
-0.215
-0.245
-0.25
-0.235
-0.23
-0.22
-0.21
-0.205
-0.2
-0.2
-0.205
-0.205
-0.22
-0.225
-0.225
-0.22
-0.205
-0.175
-0.11
-0.02
0.115
0.28
0.49
0.675
0.87
1.03
1.185
1.34
1.475
1.58
1.625
1.605
1.535
1.41
1.22
0.985
0.705
0.425
0.195
0.05
-0.05
-0.105
-0.125
-0.125
-0.145
-0.18
-0.215
-0.27
-0.315
-0.355
-0.375
-0.385
-0.38
-0.365
-0.35
-0.35
-0.35
-0.355
-0.355
-0.365
-0.375
-0.39
-0.395
-0.4
-0.4
-0.38
-0.375
-0.355
-0.355
-0.345
-0.35
-0.37
-0.405
-0.41
-0.41
-0.41
-0.405
-0.4
-0.4
-0.395
-0.395
-0.4
-0.4
-0.405
-0.445
-0.45
-0.46
-0.465
-0.48
-0.485
-0.48
-0.485
-0.495
-0.51
-0.52
-0.54
-0.565
-0.59
-0.61
-0.615
-0.62
-0.625
-0.615
-0.62
-0.625
-0.62
-0.615
-0.62
-0.615
-0.625
-0.625
-0.61
-0.595
-0.575
-0.535
-0.495
-0.465
-0.435
-0.405
-0.385
-0.375
-0.36
-0.345
-0.31
-0.29
-0.27
-0.24
-0.215
-0.215
-0.19
-0.19
-0.2
-0.2
-0.215
-0.21
-0.2
-0.185
-0.175
-0.16
-0.165
-0.15
-0.16
-0.155
-0.165
-0.18
-0.19
-0.19
-0.18
-0.17
-0.175
-0.17
-0.16
-0.155
-0.165
-0.165
-0.17
-0.18
-0.19
-0.18
-0.195
-0.185
-0.18
-0.17
-0.15
-0.13
-0.14
-0.145
-0.145
-0.145
-0.15
-0.155
-0.15
-0.12
-0.09
-0.06
-0.03
0.0
0.0
0.0
0.005
0.02
0.035
0.075
0.11
0.14
0.16
0.17
0.155
0.14
0.12
0.125
0.105
0.11
0.105
0.09
0.075
0.05
0.02
-0.01
-0.05
-0.07
-0.085
-0.115
-0.12
-0.15
-0.175
-0.185
-0.2
-0.2
-0.19
-0.195
-0.2
-0.185
-0.185
-0.195
-0.19
-0.195
-0.205
-0.215
-0.22
-0.205
-0.195
-0.165
-0.13
-0.05
0.06
0.215
0.395
0.61
0.805
0.98
1.16
1.33
1.47
1.575
1.62
1.595
1.51
1.41
1.22
1.005
0.72
0.455
0.23
0.07
-0.03
-0.07
-0.085
-0.095
-0.12
-0.16
-0.195
-0.245
-0.3
-0.34
-0.355
-0.345
-0.35
-0.345
-0.345
-0.355
-0.355
-0.365
-0.365
-0.37
-0.38
-0.395
-0.38
-0.39
-0.38
-0.385
-0.385
-0.38
-0.39
-0.385
-0.39
-0.395
-0.4
-0.39
-0.4
-0.41
-0.4
-0.4
-0.4
-0.405
-0.41
-0.425
-0.425
-0.43
-0.425
-0.44
-0.445
-0.455
-0.46
-0.465
-0.47
-0.48
-0.495
-0.515
-0.535
-0.54
-0.55
-0.565
-0.58
-0.585
-0.59
-0.595
-0.595
-0.6
-0.61
-0.62
-0.63
-0.65
-0.66
-0.665
-0.65
-0.65
-0.635
-0.615
-0.605
-0.58
-0.575
-0.565
-0.54
-0.525
-0.5
-0.48
-0.46
-0.425
-0.405
-0.355
-0.33
-0.315
-0.295
-0.285
-0.285
-0.275
-0.265
-0.25
-0.25
-0.235
-0.22
-0.22
-0.21
-0.195
-0.195
-0.18
-0.17
-0.185
-0.2
-0.21
-0.225
-0.235
-0.215
-0.205
-0.195
-0.185
-0.185
-0.185
-0.19
-0.195
-0.215
-0.215
-0.23
-0.23
-0.22
-0.21
-0.2
-0.195
-0.195
-0.195
-0.2
-0.205
-0.205
-0.215
-0.21
-0.22
-0.22
-0.215
-0.2
-0.175
-0.165
-0.155
-0.135
-0.12
-0.12
-0.12
-0.095
-0.075
-0.07
-0.06
-0.045
-0.025
0.005
0.035
0.07
0.105
0.115
0.105
0.08
0.055
0.04
0.035
0.05
0.055
0.065
0.065
0.06
0.02
-0.01
-0.06
-0.09
-0.125
-0.145
-0.155
-0.17
-0.185
-0.215
-0.235
-0.25
-0.265
-0.265
-0.265
-0.25
-0.245
-0.24
-0.24
-0.23
-0.225
-0.225
-0.23
-0.235
-0.24
-0.245
-0.245
-0.215
-0.16
-0.04
0.125
0.325
0.545
0.76
0.975
1.16
1.335
1.475
1.55
1.56
1.475
1.385
1.195
0.96
0.68
0.395
0.145
-0.02
-0.12
-0.175
-0.195
-0.22
-0.25
-0.29
-0.335
-0.365
-0.395
-0.405
-0.415
-0.42
-0.435
-0.43
-0.445
-0.45
-0.45
-0.455
-0.455
-0.45
-0.44
-0.44
-0.44
-0.45
-0.47
-0.46
-0.48
-0.48
-0.49
-0.475
-0.47
-0.465
-0.465
-0.47
-0.475
-0.48
-0.495
-0.515
-0.525
-0.525
-0.53
-0.535
-0.52
-0.525
-0.525
-0.525
-0.54
-0.56
-0.595
-0.61
-0.64
-0.655
-0.66
-0.665
-0.66
-0.655
-0.665
-0.66
-0.67
-0.695
-0.7
-0.72
-0.74
-0.745
-0.76
-0.745
-0.735
-0.715
-0.705
-0.69
-0.67
-0.665
-0.65
-0.64
-0.615
-0.595
-0.575
-0.55
-0.52
-0.48
-0.46
-0.445
-0.435
-0.41
-0.4
-0.38
-0.38
-0.38
-0.37
-0.335
-0.32
-0.31
-0.29
-0.28
-0.29
-0.295
-0.305
-0.32
-0.32
-0.31
-0.32
-0.295
-0.295
-0.295
-0.285
-0.29
-0.28
-0.3
-0.3
-0.295
-0.305
-0.31
-0.3
-0.3
-0.295
-0.29
-0.285
-0.29
-0.295
-0.295
-0.305
-0.31
-0.32
-0.325
-0.31
-0.31
-0.305
-0.31
-0.3
-0.295
-0.29
-0.28
-0.27
-0.27
-0.26
-0.24
-0.23
-0.21
-0.185
-0.16
-0.15
-0.145
-0.135
-0.11
-0.08
-0.05
-0.025
0.01
0.015
0.0
-0.02
-0.025
-0.03
-0.04
-0.035
-0.04
-0.035
-0.065
-0.1
-0.135
-0.145
-0.18
-0.2
-0.23
-0.24
-0.26
-0.28
-0.31
-0.33
-0.37
-0.38
-0.39
-0.39
-0.37
-0.365
-0.35
-0.35
-0.35
-0.345
-0.35
-0.35
-0.35
-0.35
-0.345
-0.345
-0.33
-0.32
-0.275
-0.225
-0.125
0.015
0.19
0.375
0.56
0.725
0.905
1.065
1.22
1.35
1.42
1.455
1.385
1.305
1.15
0.945
0.695
0.435
0.205
0.03
-0.095
-0.18
-0.23
-0.255
-0.285
-0.325
-0.375
-0.42
-0.48
-0.52
-0.535
-0.525
-0.52
-0.505
-0.505
-0.515
-0.52
-0.53
-0.535
-0.525
-0.525
-0.535
-0.545
-0.55
-0.57
-0.55
-0.565
-0.555
-0.555
-0.555
-0.56
-0.555
-0.555
-0.56
-0.57
-0.565
-0.565
-0.565
-0.575
-0.575
-0.575
-0.58
-0.58
-0.595
-0.6
-0.615
-0.615
-0.63
-0.63
-0.655
-0.665
-0.665
-0.675
-0.685
-0.7
-0.71
-0.73
-0.745
-0.75
-0.755
-0.765
-0.77
-0.775
-0.77
-0.78
-0.785
-0.785
-0.79
-0.8
-0.8
-0.785
-0.78
-0.76
-0.745
-0.72
-0.705
-0.69
-0.655
-0.63
-0.61
-0.585
-0.56
-0.535
-0.51
-0.485
-0.46
-0.435
-0.415
-0.415
-0.405
-0.405
-0.41
-0.39
-0.385
-0.37
-0.37
-0.365
-0.355
-0.35
-0.34
-0.335
-0.335
-0.335
-0.35
-0.35
-0.36
-0.36
-0.36
-0.36
-0.35
-0.35
-0.34
-0.35
-0.35
-0.365
-0.37
-0.37
-0.37
-0.375
-0.375
-0.36
-0.355
-0.345
-0.33
-0.335
-0.34
-0.33
-0.345
-0.35
-0.355
-0.365
-0.36
-0.35
-0.325
-0.305
-0.28
-0.26
-0.245
-0.225
-0.2
-0.2
-0.2
-0.19
-0.165
-0.13
-0.09
-0.05
-0.015
0.0
-0.01
-0.045
-0.075
-0.1
-0.11
-0.105
-0.085
-0.08
-0.065
-0.07
-0.1
-0.13
-0.17
-0.205
-0.25
-0.285
-0.295
-0.31
-0.32
-0.34
-0.34
-0.355
-0.365
-0.385
-0.405
-0.395
-0.415
-0.405
-0.39
-0.395
-0.39
-0.38
-0.385
-0.385
-0.36
-0.37
-0.37
-0.37
-0.365
-0.35
-0.305
-0.225
-0.085
0.08
0.29
0.5
0.68
0.85
1.025
1.175
1.315
1.405
1.445
1.425
1.36
1.25
1.11
0.925
0.69
0.415
0.18
-0.01
-0.145
-0.23
-0.285
-0.315
-0.33
-0.335
-0.365
-0.415
-0.455
-0.5
-0.525
-0.54
-0.56
-0.565
-0.565
-0.57
-0.57
-0.57
-0.585
-0.555
-0.56
-0.56
-0.56
-0.565
-0.575
-0.59
-0.59
-0.585
-0.59
-0.6
-0.58
-0.585
-0.585
-0.59
-0.59
-0.595
-0.595
-0.61
-0.6
-0.605
-0.61
-0.605
-0.61
-0.615
-0.62
-0.62
-0.625
-0.635
-0.64
-0.65
-0.66
-0.67
-0.69
-0.705
-0.725
-0.735
-0.745
-0.73
-0.745
-0.75
-0.77
-0.785
-0.805
-0.83
-0.83
-0.84
-0.835
-0.83
-0.83
-0.83
-0.825
-0.825
-0.825
-0.795
-0.79
-0.77
-0.74
-0.725
-0.695
-0.675
-0.655
-0.63
-0.615
-0.59
-0.57
-0.55
-0.52
-0.485
-0.46
-0.45
-0.44
-0.435
-0.43
-0.42
-0.42
-0.41
-0.415
-0.415
-0.415
-0.4
-0.4
-0.375
-0.375
-0.37
-0.355
-0.365
-0.37
-0.39
-0.39
-0.39
-0.4
-0.395
-0.37
-0.375
-0.355
-0.36
-0.35
-0.33
-0.345
-0.345
-0.355
-0.36
-0.375
-0.385
-0.385
-0.375
-0.36
-0.355
-0.34
-0.335
-0.355
-0.355
-0.365
-0.355
-0.35
-0.345
-0.34
-0.32
-0.29
-0.265
-0.24
-0.23
-0.21
-0.205
-0.195
-0.185
-0.155
-0.13
-0.085
-0.045
-0.035
-0.03
-0.03
-0.055
-0.065
-0.085
-0.1
-0.105
-0.11
-0.12
-0.15
-0.185
-0.2
-0.23
-0.25
-0.27
-0.295
-0.315
-0.34
-0.365
-0.38
-0.4
-0.41
-0.405
-0.385
-0.37
-0.36
-0.345
-0.34
-0.35
-0.36
-0.365
-0.375
-0.39
-0.39
-0.355
-0.31
-0.19
-0.005
0.205
0.435
0.67
0.87
1.06
1.215
1.345
1.435
1.485
1.435
1.335
1.17
0.925
0.63
0.315
0.05
-0.15
-0.255
-0.305
-0.33
-0.35
-0.355
-0.38
-0.425
-0.47
-0.5
-0.52
-0.53
-0.53
-0.53
-0.535
-0.55
-0.56
-0.56
-0.565
-0.535
-0.525
-0.52
-0.53
-0.53
-0.56
-0.585
-0.61
-0.605
-0.6
-0.59
-0.575
-0.56
-0.555
-0.54
-0.56
-0.57
-0.58
-0.585
-0.605
-0.605
-0.605
-0.605
-0.585
-0.585
-0.58
-0.6
-0.6
-0.62
-0.635
-0.66
-0.68
-0.68
-0.7
-0.7
-0.69
-0.69
-0.7
-0.7
-0.715
-0.745
-0.745
-0.77
-0.785
-0.79
-0.795
-0.8
-0.795
-0.78
-0.785
-0.775
-0.775
-0.775
-0.765
-0.755
-0.735
-0.695
-0.66
-0.615
-0.55
-0.485
-0.43
-0.39
-0.34
-0.295
-0.24
-0.205
-0.175
-0.13
-0.095
-0.055
-0.025
0.005
0.015
0.015
-0.005
-0.04
-0.08
-0.145
-0.195
-0.235
-0.26
-0.27
-0.27
-0.27
-0.275
-0.285
-0.295
-0.3
-0.3
-0.29
-0.265
-0.215
-0.15
-0.065
0.005
0.07
0.125
0.2
0.275
0.37
0.45
0.51
0.5
0.42
0.225
-0.09
-0.48
-0.915
-1.31
-1.65
-1.875
-2.04
-2.13
-2.17
-2.215
-2.255
-2.28
-2.32
-2.33
-2.32
-2.255
-2.15
-2.005
-1.805
-1.575
-1.35
-1.12
-0.93
-0.73
-0.575
-0.46
-0.38
-0.335
-0.32
-0.305
-0.295
-0.285
-0.27
-0.25
-0.22
-0.195
-0.175
-0.15
-0.135
-0.13
-0.12
-0.11
-0.095
-0.085
-0.07
-0.065
-0.05
-0.055
-0.02
-0.005
0.015
0.025
0.015
0.035
0.035
0.035
0.04
0.06
0.08
0.09
0.105
0.14
0.16
0.17
0.175
0.18
0.185
0.2
0.205
0.21
0.22
0.245
0.265
0.285
0.315
0.325
0.345
0.355
0.365
0.39
0.38
0.39
0.395
0.41
0.43
0.425
0.43
0.42
0.415
0.415
0.4
0.365
0.335
0.295
0.275
0.22
0.2
0.19
0.16
0.105
0.075
0.02
-0.005
-0.04
-0.05
-0.075
-0.095
-0.12
-0.13
-0.15
-0.165
-0.19
-0.205
-0.22
-0.24
-0.25
-0.265
-0.29
-0.28
-0.27
-0.265
-0.245
-0.245
-0.255
-0.27
-0.27
-0.3
-0.285
-0.275
-0.275
-0.255
-0.245
-0.24
-0.23
-0.23
-0.24
-0.25
-0.255
-0.265
-0.255
-0.245
-0.25
-0.235
-0.235
-0.24
-0.225
-0.225
-0.225
-0.215
-0.21
-0.21
-0.23
-0.215
-0.23
-0.235
-0.25
-0.235
-0.24
-0.24
-0.23
-0.225
-0.24
-0.265
-0.255
-0.26
-0.26
-0.275
-0.26
-0.265
-0.25
-0.245
-0.24
-0.245
-0.24
-0.255
-0.275
-0.275
-0.285
-0.29
-0.285
-0.285
-0.275
-0.27
-0.28
-0.27
-0.265
-0.26
-0.265
-0.255
-0.265
-0.24
-0.225
-0.2
-0.19
-0.185
-0.17
-0.165
-0.14
-0.145
-0.15
-0.14
-0.145
-0.125
-0.105
-0.065
-0.005
0.01
0.03
0.05
0.04
0.015
-0.01
-0.045
-0.04
-0.035
-0.035
-0.01
-0.005
-0.02
-0.05
-0.085
-0.125
-0.17
-0.185
-0.205
-0.22
-0.215
-0.225
-0.24
-0.245
-0.27
-0.285
-0.29
-0.3
-0.295
-0.3
-0.3
-0.29
-0.29
-0.285
-0.275
-0.28
-0.27
-0.26
-0.24
-0.23
-0.17
-0.065
0.105
0.31
0.515
0.74
0.96
1.165
1.345
1.49
1.58
1.605
1.56
1.455
1.295
1.05
0.765
0.46
0.195
0.015
-0.105
-0.165
-0.195
-0.2
-0.24
-0.26
-0.32
-0.375
-0.425
-0.455
-0.46
-0.47
-0.46
-0.46
-0.45
-0.455
-0.445
-0.465
-0.48
-0.475
-0.475
-0.49
-0.49
-0.495
-0.505
-0.505
-0.51
-0.515
-0.515
-0.535
-0.54
-0.545
-0.535
-0.53
-0.515
-0.51
-0.505
-0.505
-0.52
-0.525
-0.54
-0.545
-0.565
-0.57
-0.575
-0.58
-0.59
-0.595
-0.6
-0.615
-0.625
-0.64
-0.66
-0.69
-0.705
-0.73
-0.74
-0.74
-0.735
-0.745
-0.745
-0.76
-0.785
-0.81
-0.835
-0.835
-0.845
-0.86
-0.855
-0.835
-0.825
-0.815
-0.8
-0.79
-0.785
-0.775
-0.765
-0.765
-0.745
-0.72
-0.7
-0.665
-0.64
-0.6
-0.57
-0.535
-0.515
-0.48
-0.47
-0.435
-0.425
-0.41
-0.39
-0.36
-0.335
-0.315
-0.315
-0.295
-0.305
-0.29
-0.305
-0.305
-0.305
-0.315
-0.315
-0.29
-0.285
-0.27
-0.27
-0.28
-0.285
-0.275
-0.28
-0.285
-0.285
-0.285
-0.28
-0.265
-0.265
-0.25
-0.265
-0.245
-0.255
-0.255
-0.255
-0.26
-0.27
-0.26
-0.255
-0.25
-0.235
-0.235
-0.235
-0.24
-0.225
-0.195
-0.19
-0.15
-0.12
-0.105
-0.095
-0.05
-0.04
-0.02
0.015
0.04
0.075
0.145
0.205
0.305
0.425
0.535
0.655
0.75
0.795
0.85
0.89
0.95
1.03
1.12
1.21
1.3
1.355
1.37
1.35
1.315
1.235
1.08
0.855
0.515
0.075
-0.385
-0.855
-1.235
-1.53
-1.705
-1.76
-1.755
-1.645
-1.52
-1.385
-1.265
-1.195
-1.12
-1.05
-0.965
-0.87
-0.765
-0.635
-0.515
-0.43
-0.39
-0.36
-0.375
-0.395
-0.39
-0.39
-0.395
-0.39
-0.395
-0.385
-0.365
-0.36
-0.36
-0.36
-0.36
-0.36
-0.35
-0.355
-0.345
-0.355
-0.36
-0.355
-0.37
-0.375
-0.355
-0.355
-0.35
-0.34
-0.33
-0.325
-0.33
-0.335
-0.34
-0.355
-0.345
-0.35
-0.335
-0.32
-0.305
-0.31
-0.3
-0.295
-0.3
-0.3
-0.295
-0.285
-0.265
-0.24
-0.23
-0.205
-0.2
-0.205
-0.19
-0.18
-0.185
-0.17
-0.155
-0.14
-0.12
-0.095
-0.075
-0.055
-0.045
-0.04
-0.045
-0.04
-0.045
-0.05
-0.05
-0.05
-0.055
-0.055
-0.045
-0.05
-0.065
-0.075
-0.085
-0.105
-0.125
-0.14
-0.16
-0.17
-0.165
-0.17
-0.18
-0.19
-0.21
-0.215
-0.22
-0.235
-0.24
-0.25
-0.265
-0.27
-0.28
-0.27
-0.26
-0.245
-0.24
-0.255
-0.25
-0.25
-0.26
-0.27
-0.26
-0.245
-0.245
-0.24
-0.22
-0.23
-0.225
-0.225
-0.225
-0.23
-0.235
-0.25
-0.255
-0.235
-0.225
-0.22
-0.2
-0.195
-0.195
-0.185
-0.2
-0.21
-0.215
-0.225
-0.225
-0.225
-0.21
-0.205
-0.195
-0.18
-0.19
-0.185
-0.185
-0.195
-0.205
-0.205
-0.21
-0.215
-0.21
-0.2
-0.19
-0.17
-0.165
-0.17
-0.17
-0.195
-0.2
-0.205
-0.2
-0.195
-0.185
-0.19
-0.17
-0.165
-0.155
-0.14
-0.125
-0.12
-0.105
-0.1
-0.09
-0.075
-0.065
-0.045
-0.04
-0.02
-0.005
0.01
0.035
0.07
0.1
0.145
0.16
0.175
0.17
0.165
0.14
0.115
0.09
0.085
0.09
0.11
0.115
0.105
0.08
0.055
0.02
-0.03
-0.035
-0.07
-0.075
-0.09
-0.115
-0.14
-0.16
-0.185
-0.2
-0.21
-0.21
-0.21
-0.205
-0.185
-0.175
-0.175
-0.175
-0.18
-0.18
-0.18
-0.19
-0.18
-0.18
-0.175
-0.165
-0.14
-0.1
-0.02
0.095
0.24
0.425
0.63
0.83
1.01
1.19
1.355
1.505
1.625
1.685
1.665
1.585
1.47
1.3
1.065
0.815
0.565
0.34
0.19
0.09
0.03
-0.03
-0.06
-0.095
-0.14
-0.195
-0.245
-0.31
-0.345
-0.345
-0.335
-0.33
-0.315
-0.3
-0.31
-0.31
-0.33
-0.345
-0.36
-0.37
-0.37
-0.355
-0.345
-0.335
-0.335
-0.34
-0.365
-0.35
-0.365
-0.365
-0.365
-0.355
-0.345
-0.36
-0.35
-0.365
-0.37
-0.39
-0.395
-0.39
-0.395
-0.405
-0.405
-0.415
-0.42
-0.42
-0.425
-0.425
-0.43
-0.455
-0.475
-0.49
-0.515
-0.52
-0.545
-0.55
-0.555
-0.58
-0.57
-0.59
-0.585
-0.6
-0.605
-0.61
-0.625
-0.64
-0.65
-0.67
-0.655
-0.66
-0.635
-0.62
-0.595
-0.575
-0.565
-0.55
-0.54
-0.52
-0.495
-0.47
-0.465
-0.435
-0.405
-0.375
-0.34
-0.31
-0.285
-0.265
-0.25
-0.235
-0.215
-0.2
-0.195
-0.18
-0.15
-0.13
-0.125
-0.11
-0.13
-0.135
-0.115
-0.12
-0.13
-0.115
-0.12
-0.12
-0.115
-0.11
-0.105
-0.105
-0.1
-0.105
-0.1
-0.105
-0.11
-0.115
-0.12
-0.13
-0.115
-0.09
-0.085
-0.08
-0.085
-0.09
-0.095
-0.1
-0.09
-0.1
-0.105
-0.105
-0.09
-0.085
-0.075
-0.05
-0.04
-0.03
-0.025
-0.02
-0.015
-0.02
0.0
0.01
0.03
0.035
0.06
0.1
0.135
0.165
0.205
0.235
0.235
0.215
0.185
0.17
0.15
0.16
0.175
0.19
0.205
0.2
0.185
0.125
0.1
0.065
0.02
-0.005
-0.02
-0.03
-0.035
-0.04
-0.055
-0.065
-0.09
-0.11
-0.115
-0.125
-0.12
-0.115
-0.11
-0.11
-0.095
-0.095
-0.095
-0.1
-0.085
-0.095
-0.09
-0.085
-0.06
-0.005
0.1
0.25
0.455
0.685
0.91
1.115
1.29
1.46
1.595
1.7
1.75
1.725
1.64
1.505
1.305
1.06
0.765
0.495
0.285
0.13
0.05
-0.01
-0.035
-0.055
-0.07
-0.095
-0.14
-0.18
-0.22
-0.235
-0.245
-0.245
-0.235
-0.225
-0.23
-0.22
-0.225
-0.235
-0.23
-0.245
-0.245
-0.235
-0.255
-0.265
-0.28
-0.28
-0.295
-0.29
-0.27
-0.275
-0.27
-0.265
-0.27
-0.275
-0.29
-0.28
-0.3
-0.31
-0.3
-0.3
-0.3
-0.3
-0.305
-0.305
-0.3
-0.29
-0.295
-0.325
-0.34
-0.355
-0.36
-0.37
-0.36
-0.37
-0.375
-0.375
-0.385
-0.395
-0.425
-0.445
-0.465
-0.47
-0.47
-0.475
-0.48
-0.485
-0.495
-0.495
-0.49
-0.485
-0.465
-0.45
-0.435
-0.425
-0.405
-0.405
-0.39
-0.375
-0.365
-0.335
-0.31
-0.29
-0.275
-0.255
-0.235
-0.21
-0.19
-0.17
-0.155
-0.135
-0.105
-0.09
-0.075
-0.07
-0.065
-0.075
-0.09
-0.1
-0.08
-0.085
-0.08
-0.075
-0.06
-0.045
-0.05
-0.05
-0.06
-0.06
-0.075
-0.08
-0.075
-0.075
-0.08
-0.07
-0.07
-0.06
-0.05
-0.05
-0.04
-0.04
-0.045
-0.075
-0.065
-0.07
-0.07
-0.065
-0.05
-0.055
-0.055
-0.05
-0.055
-0.05
-0.07
-0.055
-0.035
-0.025
-0.02
-0.005
0.015
0.03
0.055
0.07
0.07
0.085
0.075
0.095
0.11
0.15
0.195
0.24
0.29
0.31
0.3
0.275
0.255
0.23
0.195
0.195
0.205
0.24
0.245
0.255
0.22
0.2
0.165
0.14
0.105
0.055
0.03
0.0
-0.02
-0.025
-0.035
-0.06
-0.06
-0.055
-0.06
-0.06
-0.065
-0.065
-0.055
-0.07
-0.06
-0.055
-0.045
-0.035
-0.035
-0.035
-0.025
-0.015
0.005
0.07
0.18
0.35
0.58
0.81
1.03
1.24
1.42
1.59
1.705
1.8
1.815
1.765
1.65
1.475
1.245
0.96
0.65
0.38
0.2
0.1
0.03
0.02
0.01
0.0
-0.03
-0.085
-0.145
-0.19
-0.21
-0.225
-0.205
-0.215
-0.21
-0.23
-0.215
-0.23
-0.24
-0.25
-0.25
-0.25
-0.245
-0.245
-0.24
-0.245
-0.24
-0.235
-0.24
-0.24
-0.26
-0.26
-0.275
-0.265
-0.275
-0.27
-0.275
-0.275
-0.26
-0.265
-0.275
-0.28
-0.29
-0.31
-0.32
-0.335
-0.35
-0.36
-0.36
-0.37
-0.38
-0.395
-0.42
-0.43
-0.43
-0.42
-0.43
-0.45
-0.46
-0.475
-0.495
-0.49
-0.5
-0.49
-0.49
-0.5
-0.51
-0.515
-0.52
-0.505
-0.475
-0.455
-0.405
-0.38
-0.365
-0.36
-0.35
-0.33
-0.325
-0.305
-0.275
-0.24
-0.225
-0.175
-0.15
-0.125
-0.125
-0.1
-0.1
-0.08
-0.075
-0.07
-0.055
-0.04
-0.04
-0.03
-0.03
-0.045
-0.035
-0.04
-0.035
-0.045
-0.035
-0.035
-0.04
-0.045
-0.035
-0.04
-0.045
-0.045
-0.04
-0.025
-0.02
-0.02
-0.005
0.0
0.01
0.02
0.025
0.025
0.03
0.055
0.06
0.06
0.07
0.1
0.13
0.14
0.155
0.18
0.225
0.255
0.32
0.415
0.545
0.65
0.755
0.855
0.95
1.03
1.13
1.23
1.33
1.41
1.505
1.585
1.655
1.695
1.7
1.62
1.445
1.15
0.735
0.26
-0.225
-0.63
-0.93
-1.105
-1.18
-1.165
-1.115
-1.035
-0.945
-0.865
-0.795
-0.74
-0.665
-0.585
-0.505
-0.405
-0.3
-0.24
-0.18
-0.18
-0.195
-0.215
-0.22
-0.215
-0.195
-0.185
-0.155
-0.14
-0.13
-0.135
-0.14
-0.15
-0.16
-0.165
-0.17
-0.185
-0.17
-0.165
-0.145
-0.135
-0.14
-0.14
-0.15
-0.155
-0.155
-0.16
-0.16
-0.165
-0.17
-0.165
-0.165
-0.155
-0.15
-0.18
-0.16
-0.16
-0.165
-0.15
-0.145
-0.145
-0.115
-0.11
-0.105
-0.085
-0.09
-0.075
-0.06
-0.04
-0.02
-0.01
-0.005
0.005
0.025
0.04
0.065
0.095
0.09
0.105
0.11
0.105
0.115
0.12
0.125
0.145
0.155
0.15
0.16
0.155
0.15
0.13
0.13
0.115
0.1
0.095
0.1
0.095
0.11
0.13
0.145
0.185
0.195
0.24
0.28
0.325
0.375
0.455
0.515
0.59
0.645
0.685
0.685
0.635
0.52
0.34
0.105
-0.17
-0.48
-0.775
-1.055
-1.315
-1.54
-1.735
-1.91
-2.055
-2.17
-2.235
-2.245
-2.225
-2.195
-2.13
-2.045
-1.935
-1.815
-1.685
-1.555
-1.45
-1.375
-1.315
-1.26
-1.195
-1.11
-1.035
-0.96
-0.895
-0.825
-0.775
-0.725
-0.67
-0.59
-0.505
-0.39
-0.285
-0.13
-0.005
0.13
0.23
0.32
0.385
0.43
0.46
0.475
0.505
0.52
0.545
0.56
0.565
0.6
0.62
0.63
0.66
0.67
0.69
0.715
0.735
0.74
0.75
0.77
0.78
0.8
0.82
0.85
0.87
0.895
0.915
0.94
0.95
0.965
0.99
1.0
1.015
1.03
1.05
1.075
1.095
1.12
1.13
1.135
1.135
1.14
1.14
1.135
1.135
1.14
1.12
1.12
1.095
1.095
1.075
1.045
1.01
0.98
0.935
0.9
0.86
0.82
0.785
0.735
0.7
0.665
0.65
0.61
0.585
0.55
0.505
0.465
0.435
0.405
0.375
0.36
0.335
0.315
0.305
0.29
0.26
0.24
0.225
0.22
0.205
0.2
0.185
0.19
0.185
0.19
0.19
0.17
0.18
0.175
0.17
0.15
0.14
0.14
0.15
0.155
