Lead II
-0.55
-0.555
-0.555
-0.55
-0.55
-0.53
-0.53
-0.515
-0.51
-0.52
-0.52
-0.52
-0.53
-0.55
-0.565
-0.565
-0.57
-0.555
-0.55
-0.55
-0.54
-0.54
-0.545
-0.56
-0.575
-0.575
-0.585
-0.595
-0.59
-0.58
-0.575
-0.58
-0.575
-0.575
-0.595
-0.59
-0.595
-0.61
-0.615
-0.63
-0.61
-0.615
-0.605
-0.585
-0.59
-0.58
-0.58
-0.585
-0.585
-0.595
-0.62
-0.62
-0.63
-0.625
-0.61
-0.57
-0.495
-0.38
-0.235
-0.09
0.05
0.155
0.21
0.235
0.21
0.145
0.05
-0.08
-0.21
-0.34
-0.46
-0.56
-0.705
-0.835
-0.985
-1.11
-1.2
-1.225
-1.24
-1.195
-1.145
-1.11
-1.085
-1.075
-1.06
-1.065
-1.06
-1.05
-1.04
-1.01
-0.965
-0.93
-0.89
-0.85
-0.82
-0.795
-0.78
-0.74
-0.725
-0.69
-0.66
-0.64
-0.625
-0.615
-0.605
-0.605
-0.615
-0.615
-0.63
-0.635
-0.645
-0.635
-0.645
-0.63
-0.625
-0.625
-0.61
-0.62
-0.615
-0.63
-0.63
-0.64
-0.65
-0.635
-0.655
-0.645
-0.64
-0.62
-0.625
-0.62
-0.625
-0.62
-0.63
-0.625
-0.63
-0.62
-0.6
-0.61
-0.575
-0.57
-0.545
-0.51
-0.495
-0.47
-0.45
-0.425
-0.41
-0.375
-0.345
-0.3
-0.27
-0.235
-0.21
-0.18
-0.16
-0.155
-0.125
-0.125
-0.095
-0.09
-0.07
-0.06
-0.055
-0.035
-0.03
-0.03
-0.04
-0.045
-0.065
-0.055
-0.08
-0.095
-0.11
-0.115
-0.125
-0.13
-0.145
-0.15
-0.175
-0.195
-0.23
-0.225
-0.25
-0.285
-0.3
-0.31
-0.315
-0.335
-0.335
-0.355
-0.36
-0.38
-0.41
-0.42
-0.425
-0.44
-0.435
-0.44
-0.445
-0.45
-0.455
-0.465
-0.46
-0.475
-0.46
-0.48
-0.495
-0.495
-0.5
-0.495
-0.495
-0.475
-0.475
-0.48
-0.475
-0.485
-0.48
-0.48
-0.495
-0.5
-0.495
-0.49
-0.48
-0.48
-0.465
-0.475
-0.465
-0.485
-0.475
-0.485
-0.5
-0.5
-0.495
-0.495
-0.49
-0.49
-0.48
-0.485
-0.485
-0.495
-0.495
-0.51
-0.505
-0.51
-0.505
-0.5
-0.5
-0.485
-0.485
-0.505
-0.5
-0.505
-0.52
-0.535
-0.525
-0.51
-0.51
-0.51
-0.505
-0.505
-0.51
-0.505
-0.51
-0.51
-0.52
-0.54
-0.535
-0.525
-0.52
-0.515
-0.53
-0.51
-0.505
-0.5
-0.505
-0.51
-0.525
-0.52
-0.535
-0.53
-0.53
-0.525
-0.52
-0.515
-0.515
-0.52
-0.52
-0.515
-0.535
-0.53
-0.54
-0.54
-0.545
-0.545
-0.535
-0.53
-0.515
-0.525
-0.525
-0.515
-0.525
-0.535
-0.535
-0.54
-0.54
-0.54
-0.52
-0.51
-0.515
-0.5
-0.5
-0.51
-0.51
-0.535
-0.53
-0.505
-0.51
-0.495
-0.5
-0.485
-0.47
-0.475
-0.475
-0.475
-0.465
-0.48
-0.485
-0.48
-0.46
-0.455
-0.43
-0.415
-0.395
-0.38
-0.385
-0.38
-0.39
-0.395
-0.4
-0.405
-0.41
-0.425
-0.415
-0.415
-0.42
-0.425
-0.44
-0.46
-0.47
-0.48
-0.5
-0.505
-0.52
-0.535
-0.54
-0.555
-0.56
-0.565
-0.565
-0.59
-0.59
-0.585
-0.6
-0.59
-0.575
-0.58
-0.56
-0.555
-0.55
-0.555
-0.555
-0.56
-0.555
-0.555
-0.545
-0.545
-0.525
-0.51
-0.475
-0.445
-0.41
-0.35
-0.285
-0.225
-0.125
-0.035
0.07
0.24
0.395
0.56
0.71
0.84
0.955
1.065
1.17
1.285
1.39
1.385
1.28
1.025
0.675
0.285
-0.09
-0.42
-0.635
-0.76
-0.805
-0.8
-0.77
-0.745
-0.73
-0.705
-0.7
-0.69
-0.68
-0.67
-0.67
-0.66
-0.68
-0.685
-0.69
-0.695
-0.71
-0.705
-0.705
-0.71
-0.71
-0.705
-0.705
-0.705
-0.695
-0.71
-0.71
-0.725
-0.73
-0.735
-0.75
-0.73
-0.725
-0.72
-0.72
-0.735
-0.73
-0.72
-0.73
-0.745
-0.755
-0.76
-0.76
-0.77
-0.77
-0.76
-0.755
-0.765
-0.775
-0.78
-0.78
-0.79
-0.795
-0.805
-0.815
-0.805
-0.81
-0.815
-0.825
-0.83
-0.84
-0.835
-0.845
-0.85
-0.86
-0.86
-0.885
-0.875
-0.88
-0.875
-0.875
-0.87
-0.875
-0.87
-0.88
-0.89
-0.885
-0.875
-0.865
-0.84
-0.845
-0.825
-0.8
-0.79
-0.775
-0.765
-0.755
-0.745
-0.73
-0.71
-0.69
-0.66
-0.65
-0.62
-0.6
-0.58
-0.58
-0.57
-0.57
-0.57
-0.555
-0.555
-0.555
-0.555
-0.545
-0.54
-0.525
-0.52
-0.53
-0.525
-0.54
-0.535
-0.55
-0.555
-0.56
-0.555
-0.555
-0.545
-0.53
-0.525
-0.54
-0.545
-0.55
-0.565
-0.575
-0.585
-0.585
-0.57
-0.585
-0.57
-0.565
-0.57
-0.57
-0.585
-0.6
-0.61
-0.615
-0.605
-0.6
-0.595
-0.585
-0.57
-0.555
-0.545
-0.535
-0.535
-0.555
-0.545
-0.58
-0.61
-0.62
-0.62
-0.605
-0.58
-0.525
-0.44
-0.345
-0.24
-0.14
-0.055
-0.01
0.015
0.005
-0.04
-0.145
-0.29
-0.485
-0.635
-0.76
-0.845
-0.915
-0.995
-1.09
-1.18
-1.26
-1.32
-1.33
-1.31
-1.26
-1.195
-1.115
-1.06
-1.0
-0.95
-0.9
-0.835
-0.78
-0.735
-0.67
-0.635
-0.62
-0.605
-0.59
-0.57
-0.575
-0.59
-0.58
-0.59
-0.595
-0.57
-0.555
-0.55
-0.54
-0.535
-0.53
-0.535
-0.54
-0.535
-0.535
-0.53
-0.53
-0.535
-0.53
-0.51
-0.495
-0.49
-0.5
-0.495
-0.495
-0.485
-0.485
-0.48
-0.475
-0.47
-0.46
-0.46
-0.44
-0.44
-0.425
-0.43
-0.415
-0.415
-0.42
-0.42
-0.405
-0.39
-0.38
-0.37
-0.36
-0.33
-0.315
-0.295
-0.29
-0.285
-0.27
-0.26
-0.245
-0.215
-0.195
-0.175
-0.15
-0.13
-0.115
-0.09
-0.09
-0.07
-0.075
-0.06
-0.055
-0.05
-0.04
-0.03
-0.02
-0.025
-0.025
-0.03
-0.05
-0.065
-0.07
-0.09
-0.1
-0.11
-0.125
-0.125
-0.145
-0.16
-0.18
-0.205
-0.22
-0.25
-0.275
-0.29
-0.295
-0.305
-0.335
-0.33
-0.35
-0.35
-0.37
-0.38
-0.405
-0.42
-0.425
-0.435
-0.45
-0.44
-0.44
-0.44
-0.445
-0.46
-0.48
-0.48
-0.495
-0.495
-0.51
-0.52
-0.51
-0.515
-0.515
-0.5
-0.49
-0.49
-0.485
-0.485
-0.495
-0.505
-0.5
-0.515
-0.5
-0.495
-0.485
-0.49
-0.48
-0.48
-0.48
-0.49
-0.495
-0.49
-0.5
-0.49
-0.5
-0.49
-0.49
-0.48
-0.485
-0.48
-0.485
-0.485
-0.5
-0.5
-0.505
-0.5
-0.5
-0.49
-0.495
-0.495
-0.5
-0.495
-0.5
-0.505
-0.515
-0.515
-0.515
-0.525
-0.515
-0.52
-0.51
-0.505
-0.495
-0.485
-0.495
-0.49
-0.51
-0.515
-0.54
-0.54
-0.52
-0.53
-0.515
-0.515
-0.495
-0.495
-0.51
-0.515
-0.515
-0.52
-0.525
-0.53
-0.525
-0.525
-0.515
-0.52
-0.5
-0.505
-0.505
-0.505
-0.515
-0.52
-0.535
-0.54
-0.53
-0.54
-0.525
-0.51
-0.505
-0.51
-0.505
-0.51
-0.515
-0.52
-0.54
-0.53
-0.53
-0.515
-0.52
-0.505
-0.485
-0.48
-0.485
-0.48
-0.49
-0.495
-0.5
-0.485
-0.475
-0.47
-0.45
-0.445
-0.425
-0.42
-0.4
-0.395
-0.395
-0.39
-0.38
-0.38
-0.375
-0.385
-0.385
-0.4
-0.4
-0.41
-0.42
-0.44
-0.465
-0.475
-0.495
-0.49
-0.51
-0.515
-0.51
-0.525
-0.53
-0.55
-0.545
-0.55
-0.54
-0.545
-0.55
-0.54
-0.545
-0.545
-0.545
-0.525
-0.52
-0.515
-0.505
-0.495
-0.485
-0.465
-0.445
-0.4
-0.33
-0.255
-0.155
-0.04
0.11
0.285
0.495
0.68
0.825
0.955
1.055
1.165
1.29
1.35
1.3
1.08
0.75
0.325
-0.105
-0.47
-0.72
-0.845
-0.87
-0.84
-0.775
-0.73
-0.68
-0.665
-0.645
-0.635
-0.64
-0.65
-0.65
-0.675
-0.66
-0.68
-0.68
-0.68
-0.665
-0.655
-0.655
-0.65
-0.665
-0.66
-0.675
-0.68
-0.685
-0.685
-0.695
-0.69
-0.675
-0.68
-0.67
-0.67
-0.67
-0.685
-0.7
-0.705
-0.71
-0.72
-0.73
-0.72
-0.71
-0.7
-0.695
-0.7
-0.7
-0.72
-0.74
-0.73
-0.745
-0.745
-0.735
-0.745
-0.755
-0.755
-0.735
-0.735
-0.76
-0.765
-0.765
-0.77
-0.785
-0.785
-0.79
-0.8
-0.8
-0.8
-0.795
-0.795
-0.8
-0.795
-0.805
-0.805
-0.815
-0.815
-0.815
-0.81
-0.8
-0.795
-0.79
-0.775
-0.775
-0.78
-0.78
-0.785
-0.775
-0.77
-0.755
-0.75
-0.725
-0.72
-0.71
-0.685
-0.675
-0.665
-0.655
-0.655
-0.64
-0.635
-0.6
-0.58
-0.56
-0.555
-0.535
-0.52
-0.52
-0.51
-0.515
-0.51
-0.51
-0.505
-0.51
-0.495
-0.495
-0.48
-0.47
-0.47
-0.465
-0.49
-0.465
-0.475
-0.485
-0.49
-0.49
-0.485
-0.475
-0.465
-0.475
-0.465
-0.475
-0.475
-0.475
-0.495
-0.5
-0.505
-0.51
-0.51
-0.505
-0.495
-0.495
-0.495
-0.49
-0.5
-0.525
-0.53
-0.54
-0.555
-0.54
-0.53
-0.525
-0.525
-0.525
-0.52
-0.525
-0.52
-0.52
-0.52
-0.53
-0.525
-0.525
-0.525
-0.53
-0.545
-0.56
-0.555
-0.555
-0.54
-0.5
-0.43
-0.32
-0.195
-0.065
0.055
0.17
0.235
0.28
0.285
0.29
0.24
0.155
0.025
-0.125
-0.265
-0.375
-0.44
-0.525
-0.62
-0.745
-0.885
-1.045
-1.17
-1.27
-1.295
-1.29
-1.265
-1.215
-1.16
-1.11
-1.085
-1.065
-1.06
-1.065
-1.055
-1.035
-1.005
-0.97
-0.935
-0.885
-0.86
-0.805
-0.765
-0.735
-0.695
-0.665
-0.635
-0.62
-0.6
-0.595
-0.585
-0.585
-0.595
-0.59
-0.595
-0.58
-0.575
-0.59
-0.59
-0.59
-0.59
-0.59
-0.615
-0.605
-0.6
-0.59
-0.585
-0.57
-0.565
-0.57
-0.565
-0.58
-0.58
-0.59
-0.595
-0.595
-0.595
-0.575
-0.57
-0.565
-0.57
-0.565
-0.56
-0.56
-0.555
-0.555
-0.555
-0.545
-0.525
-0.51
-0.49
-0.465
-0.455
-0.44
-0.42
-0.415
-0.395
-0.38
-0.345
-0.335
-0.3
-0.265
-0.235
-0.19
-0.16
-0.145
-0.125
-0.095
-0.09
-0.07
-0.04
-0.035
-0.01
0.0
0.01
0.025
0.025
0.015
0.005
-0.005
-0.015
-0.035
-0.055
-0.065
-0.07
-0.085
-0.09
-0.105
-0.125
-0.135
-0.155
-0.185
-0.195
-0.22
-0.235
-0.26
-0.27
-0.285
-0.305
-0.305
-0.315
-0.335
-0.34
-0.36
-0.38
-0.395
-0.42
-0.42
-0.425
-0.435
-0.43
-0.42
-0.415
-0.435
-0.435
-0.45
-0.46
-0.46
-0.47
-0.46
-0.465
-0.46
-0.445
-0.43
-0.445
-0.445
-0.45
-0.45
-0.465
-0.465
-0.465
-0.47
-0.465
-0.455
-0.455
-0.455
-0.45
-0.445
-0.45
-0.465
-0.475
-0.48
-0.49
-0.48
-0.47
-0.465
-0.46
-0.455
-0.455
-0.46
-0.465
-0.475
-0.475
-0.48
-0.495
-0.485
-0.48
-0.475
-0.485
-0.47
-0.475
-0.47
-0.48
-0.49
-0.495
-0.495
-0.5
-0.495
-0.505
-0.49
-0.495
-0.485
-0.475
-0.495
-0.505
-0.525
-0.5
-0.515
-0.52
-0.53
-0.52
-0.5
-0.49
-0.49
-0.49
-0.495
-0.51
-0.51
-0.52
-0.53
-0.53
-0.52
-0.505
-0.5
-0.5
-0.485
-0.49
-0.49
-0.49
-0.5
-0.515
-0.51
-0.52
-0.525
-0.525
-0.515
-0.51
-0.5
-0.505
-0.505
-0.495
-0.495
-0.505
-0.51
-0.525
-0.515
-0.515
-0.505
-0.51
-0.49
-0.485
-0.495
-0.5
-0.49
-0.5
-0.5
-0.485
-0.49
-0.485
-0.475
-0.465
-0.46
-0.455
-0.445
-0.45
-0.455
-0.455
-0.455
-0.45
-0.445
-0.43
-0.41
-0.39
-0.37
-0.36
-0.355
-0.36
-0.38
-0.375
-0.385
-0.395
-0.405
-0.41
-0.41
-0.415
-0.43
-0.43
-0.45
-0.47
-0.5
-0.52
-0.525
-0.545
-0.545
-0.56
-0.565
-0.57
-0.555
-0.54
-0.555
-0.565
-0.555
-0.575
-0.56
-0.57
-0.56
-0.55
-0.55
-0.54
-0.525
-0.52
-0.515
-0.52
-0.525
-0.51
-0.525
-0.515
-0.5
-0.465
-0.415
-0.365
-0.28
-0.19
-0.095
0.025
0.14
0.3
0.47
0.625
0.78
0.9
1.01
1.155
1.305
1.415
1.44
1.325
1.045
0.655
0.21
-0.21
-0.545
-0.75
-0.845
-0.84
-0.785
-0.725
-0.685
-0.655
-0.64
-0.655
-0.66
-0.66
-0.67
-0.685
-0.67
-0.675
-0.68
-0.665
-0.685
-0.67
-0.685
-0.68
-0.695
-0.695
-0.7
-0.7
-0.705
-0.7
-0.68
-0.7
-0.69
-0.695
-0.72
-0.725
-0.73
-0.75
-0.74
-0.74
-0.74
-0.74
-0.735
-0.745
-0.74
-0.755
-0.755
-0.78
-0.795
-0.805
-0.78
-0.79
-0.8
-0.8
-0.79
-0.79
-0.8
-0.81
-0.825
-0.84
-0.84
-0.85
-0.855
-0.855
-0.85
-0.845
-0.84
-0.84
-0.845
-0.855
-0.865
-0.87
-0.885
-0.885
-0.885
-0.89
-0.88
-0.87
-0.87
-0.84
-0.86
-0.845
-0.84
-0.835
-0.835
-0.84
-0.825
-0.82
-0.795
-0.775
-0.745
-0.725
-0.715
-0.71
-0.685
-0.68
-0.665
-0.655
-0.635
-0.62
-0.6
-0.595
-0.58
-0.56
-0.565
-0.555
-0.55
-0.56
-0.57
-0.56
-0.56
-0.55
-0.54
-0.555
-0.54
-0.52
-0.525
-0.525
-0.525
-0.54
-0.54
-0.545
-0.54
-0.53
-0.53
-0.53
-0.51
-0.51
-0.515
-0.525
-0.535
-0.54
-0.545
-0.565
-0.55
-0.55
-0.555
-0.555
-0.545
-0.555
-0.545
-0.555
-0.56
-0.555
-0.575
-0.585
-0.575
-0.59
-0.57
-0.57
-0.55
-0.55
-0.54
-0.53
-0.55
-0.545
-0.555
-0.575
-0.58
-0.57
-0.555
-0.52
-0.45
-0.345
-0.21
-0.075
0.03
0.12
0.2
0.24
0.25
0.225
0.175
0.07
-0.05
-0.175
-0.3
-0.395
-0.48
-0.565
-0.685
-0.8
-0.92
-1.045
-1.125
-1.175
-1.195
-1.19
-1.175
-1.145
-1.115
-1.09
-1.085
-1.075
-1.065
-1.05
-1.045
-1.015
-0.985
-0.965
-0.93
-0.925
-0.875
-0.845
-0.815
-0.78
-0.74
-0.695
-0.66
-0.63
-0.605
-0.585
-0.59
-0.58
-0.595
-0.59
-0.6
-0.595
-0.6
-0.6
-0.57
-0.565
-0.555
-0.555
-0.56
-0.555
-0.58
-0.585
-0.59
-0.58
-0.58
-0.57
-0.57
-0.56
-0.56
-0.55
-0.565
-0.555
-0.57
-0.565
-0.565
-0.57
-0.56
-0.565
-0.545
-0.535
-0.52
-0.525
-0.51
-0.515
-0.5
-0.49
-0.475
-0.465
-0.46
-0.435
-0.41
-0.385
-0.36
-0.335
-0.32
-0.305
-0.285
-0.275
-0.255
-0.225
-0.195
-0.165
-0.15
-0.12
-0.08
-0.065
-0.045
-0.035
-0.02
-0.005
-0.005
0.005
0.005
0.0
0.015
0.015
0.015
0.005
0.0
-0.02
-0.045
-0.065
-0.08
-0.105
-0.11
-0.11
-0.125
-0.135
-0.15
-0.17
-0.185
-0.2
-0.225
-0.275
-0.305
-0.33
-0.335
-0.34
-0.355
-0.365
-0.37
-0.37
-0.385
-0.385
-0.4
-0.405
-0.415
-0.43
-0.44
-0.43
-0.445
-0.455
-0.45
-0.44
-0.435
-0.44
-0.45
-0.45
-0.455
-0.455
-0.465
-0.475
-0.46
-0.465
-0.455
-0.45
-0.45
-0.455
-0.455
-0.46
-0.465
-0.465
-0.46
-0.475
-0.45
-0.445
-0.45
-0.44
-0.445
-0.475
-0.475
-0.48
-0.485
-0.49
-0.485
-0.47
-0.455
-0.455
-0.45
-0.45
-0.455
-0.47
-0.475
-0.485
-0.49
-0.49
-0.5
-0.495
-0.485
-0.475
-0.47
-0.465
-0.47
-0.48
-0.49
-0.49
-0.5
-0.495
-0.49
-0.495
-0.49
-0.485
-0.485
-0.485
-0.48
-0.47
-0.48
-0.485
-0.5
-0.495
-0.485
-0.485
-0.485
-0.475
-0.48
-0.47
-0.48
-0.475
-0.49
-0.5
-0.49
-0.495
-0.49
-0.485
-0.485
-0.47
-0.46
-0.455
-0.45
-0.455
-0.465
-0.455
-0.455
-0.47
-0.47
-0.455
-0.445
-0.45
-0.415
-0.405
-0.405
-0.4
-0.4
-0.39
-0.38
-0.37
-0.345
-0.35
-0.34
-0.345
-0.345
-0.34
-0.36
-0.37
-0.395
-0.41
-0.435
-0.45
-0.465
-0.48
-0.49
-0.49
-0.49
-0.495
-0.505
-0.515
-0.515
-0.53
-0.53
-0.535
-0.53
-0.525
-0.515
-0.52
-0.51
-0.495
-0.49
-0.485
-0.49
-0.49
-0.48
-0.48
-0.46
-0.445
-0.41
-0.385
-0.345
-0.285
-0.21
-0.14
-0.065
0.025
0.135
0.265
0.41
0.565
0.7
0.815
0.91
0.98
1.045
1.13
1.25
1.35
1.375
1.24
0.975
0.62
0.195
-0.2
-0.51
-0.71
-0.81
-0.82
-0.795
-0.745
-0.7
-0.68
-0.66
-0.625
-0.62
-0.63
-0.625
-0.625
-0.635
-0.64
-0.655
-0.675
-0.685
-0.68
-0.68
-0.665
-0.665
-0.65
-0.65
-0.635
-0.655
-0.67
-0.675
-0.69
-0.695
-0.695
-0.7
-0.69
-0.675
-0.68
-0.69
-0.685
-0.685
-0.695
-0.7
-0.71
-0.72
-0.73
-0.73
-0.73
-0.725
-0.725
-0.735
-0.725
-0.73
-0.74
-0.745
-0.765
-0.77
-0.77
-0.785
-0.785
-0.775
-0.775
-0.785
-0.775
-0.78
-0.79
-0.795
-0.805
-0.815
-0.82
-0.825
-0.82
-0.81
-0.81
-0.81
-0.8
-0.805
-0.81
-0.805
-0.815
-0.8
-0.815
-0.805
-0.795
-0.78
-0.755
-0.74
-0.71
-0.705
-0.685
-0.69
-0.68
-0.66
-0.64
-0.625
-0.61
-0.585
-0.575
-0.545
-0.525
-0.53
-0.535
-0.515
-0.52
-0.52
-0.51
-0.515
-0.52
-0.5
-0.49
-0.485
-0.485
-0.485
-0.475
-0.475
-0.485
-0.495
-0.49
-0.5
-0.51
-0.495
-0.485
-0.485
-0.48
-0.495
-0.475
-0.5
-0.485
-0.495
-0.51
-0.505
-0.505
-0.515
-0.515
-0.51
-0.5
-0.51
-0.515
-0.53
-0.535
-0.545
-0.55
-0.55
-0.535
-0.53
-0.52
-0.515
-0.52
-0.515
-0.505
-0.51
-0.505
-0.525
-0.525
-0.55
-0.565
-0.575
-0.59
-0.57
-0.52
-0.45
-0.335
-0.185
-0.055
0.07
0.155
0.195
0.225
0.2
0.135
0.03
-0.11
-0.265
-0.385
-0.505
-0.585
-0.675
-0.785
-0.925
-1.075
-1.205
-1.3
-1.36
-1.37
-1.345
-1.305
-1.26
-1.22
-1.185
-1.16
-1.135
-1.125
-1.11
-1.085
-1.06
-1.02
-0.985
-0.945
-0.92
-0.89
-0.875
-0.84
-0.82
-0.785
-0.76
-0.71
-0.66
-0.62
-0.595
-0.585
-0.58
-0.58
-0.595
-0.595
-0.605
-0.58
-0.585
-0.565
-0.565
-0.56
-0.55
-0.545
-0.545
-0.55
-0.56
-0.57
-0.56
-0.57
-0.55
-0.545
-0.53
-0.525
-0.52
-0.53
-0.54
-0.545
-0.545
-0.545
-0.55
-0.535
-0.53
-0.505
-0.505
-0.485
-0.475
-0.46
-0.45
-0.425
-0.42
-0.415
-0.39
-0.37
-0.335
-0.315
-0.29
-0.265
-0.23
-0.2
-0.19
-0.165
-0.14
-0.13
-0.105
-0.085
-0.055
-0.025
0.0
0.015
0.03
0.045
0.05
0.05
0.055
0.055
0.065
0.065
0.065
0.07
0.08
0.085
0.075
0.065
0.04
0.035
0.01
0.0
-0.025
-0.04
-0.055
-0.06
-0.065
-0.08
-0.11
-0.125
-0.155
-0.17
-0.19
-0.21
-0.235
-0.255
-0.27
-0.295
-0.295
-0.305
-0.325
-0.33
-0.345
-0.36
-0.36
-0.37
-0.38
-0.395
-0.39
-0.385
-0.375
-0.385
-0.38
-0.395
-0.41
-0.41
-0.42
-0.42
-0.425
-0.415
-0.42
-0.42
-0.415
-0.4
-0.4
-0.415
-0.415
-0.42
-0.43
-0.435
-0.435
-0.43
-0.44
-0.425
-0.425
-0.415
-0.41
-0.405
-0.43
-0.425
-0.425
-0.435
-0.43
-0.43
-0.42
-0.415
-0.42
-0.415
-0.415
-0.415
-0.4
-0.41
-0.405
-0.405
-0.405
-0.4
-0.395
-0.385
-0.4
-0.38
-0.38
-0.385
-0.39
-0.385
-0.365
-0.38
-0.37
-0.36
-0.35
-0.345
-0.325
-0.31
-0.32
-0.325
-0.345
-0.35
-0.36
-0.385
-0.395
-0.41
-0.435
-0.43
-0.445
-0.45
-0.465
-0.47
-0.485
-0.495
-0.52
-0.51
-0.515
-0.515
-0.51
-0.5
-0.495
-0.49
-0.49
-0.505
-0.495
-0.5
-0.505
-0.53
-0.52
-0.51
-0.485
-0.475
-0.465
-0.46
-0.455
-0.44
-0.44
-0.425
-0.405
-0.37
-0.315
-0.25
-0.175
-0.055
0.08
0.225
0.375
0.535
0.685
0.81
0.9
0.99
1.09
1.2
1.325
1.38
1.315
1.08
0.71
0.27
-0.17
-0.53
-0.74
-0.825
-0.815
-0.755
-0.675
-0.61
-0.57
-0.555
-0.565
-0.595
-0.63
-0.645
-0.645
-0.65
-0.665
-0.66
-0.67
-0.65
-0.635
-0.645
-0.655
-0.66
-0.665
-0.67
-0.675
-0.68
-0.69
-0.69
-0.685
-0.685
-0.67
-0.695
-0.695
-0.69
-0.7
-0.71
-0.72
-0.73
-0.74
-0.745
-0.735
-0.735
-0.74
-0.735
-0.735
-0.75
-0.755
-0.775
-0.8
-0.815
-0.805
-0.81
-0.8
-0.805
-0.81
-0.79
-0.805
-0.8
-0.825
-0.835
-0.84
-0.85
-0.845
-0.84
-0.84
-0.835
-0.845
-0.84
-0.825
-0.83
-0.82
-0.825
-0.82
-0.82
-0.82
-0.805
-0.805
-0.775
-0.755
-0.735
-0.725
-0.715
-0.7
-0.685
-0.665
-0.655
-0.64
-0.63
-0.605
-0.585
-0.56
-0.53
-0.535
-0.525
-0.535
-0.51
-0.51
-0.515
-0.51
-0.51
-0.51
-0.49
-0.49
-0.485
-0.485
-0.485
-0.495
-0.49
-0.49
-0.5
-0.495
-0.49
-0.485
-0.485
-0.48
-0.48
-0.475
-0.475
-0.47
-0.475
-0.48
-0.48
-0.47
-0.48
-0.455
-0.46
-0.45
-0.445
-0.44
-0.455
-0.46
-0.465
-0.475
-0.49
-0.485
-0.5
-0.515
-0.515
-0.525
-0.55
-0.565
-0.565
-0.595
-0.61
-0.61
-0.645
-0.645
-0.625
-0.635
-0.62
-0.625
-0.61
-0.61
-0.61
-0.61
-0.615
-0.62
-0.62
-0.61
-0.605
-0.595
-0.58
-0.565
-0.545
-0.535
-0.505
-0.5
-0.47
-0.44
-0.39
-0.34
-0.235
-0.13
-0.045
0.085
0.235
0.39
0.57
0.725
0.87
0.995
1.105
1.215
1.295
1.295
1.19
0.945
0.605
0.195
-0.205
-0.52
-0.715
-0.79
-0.805
-0.755
-0.725
-0.685
-0.655
-0.625
-0.605
-0.605
-0.605
-0.61
-0.62
-0.635
-0.64
-0.65
-0.65
-0.65
-0.63
-0.62
-0.62
-0.62
-0.62
-0.63
-0.64
-0.66
-0.655
-0.67
-0.655
-0.665
-0.655
-0.64
-0.645
-0.645
-0.66
-0.66
-0.67
-0.685
-0.69
-0.695
-0.7
-0.705
-0.695
-0.7
-0.685
-0.69
-0.7
-0.705
-0.705
-0.715
-0.72
-0.725
-0.73
-0.73
-0.745
-0.74
-0.735
-0.735
-0.735
-0.745
-0.75
-0.76
-0.76
-0.77
-0.77
-0.77
-0.755
-0.74
-0.73
-0.74
-0.715
-0.725
-0.715
-0.72
-0.715
-0.705
-0.705
-0.7
-0.69
-0.675
-0.655
-0.64
-0.63
-0.62
-0.61
-0.61
-0.58
-0.575
-0.565
-0.54
-0.53
-0.51
-0.49
-0.47
-0.47
-0.475
-0.475
-0.47
-0.475
-0.475
-0.475
-0.475
-0.47
-0.465
-0.46
-0.45
-0.455
-0.46
-0.47
-0.48
-0.5
-0.5
-0.505
-0.505
-0.495
-0.485
-0.485
-0.495
-0.495
-0.5
-0.51
-0.505
-0.515
-0.535
-0.53
-0.525
-0.515
-0.51
-0.505
-0.515
-0.525
-0.525
-0.53
-0.535
-0.55
-0.545
-0.555
-0.565
-0.56
-0.56
-0.55
-0.55
-0.545
-0.545
-0.56
-0.57
-0.595
-0.59
-0.585
-0.58
-0.565
-0.56
-0.55
-0.55
-0.54
-0.545
-0.545
-0.56
-0.56
-0.55
-0.565
-0.55
-0.535
-0.52
-0.54
-0.535
-0.535
-0.54
-0.545
-0.535
-0.55
-0.545
-0.55
-0.54
-0.53
-0.525
-0.515
-0.515
-0.51
-0.52
-0.525
-0.525
-0.53
-0.54
-0.53
-0.53
-0.52
-0.515
-0.51
-0.515
-0.515
-0.51
-0.525
-0.525
-0.535
-0.525
-0.525
-0.525
-0.525
-0.52
-0.515
-0.51
-0.52
-0.515
-0.51
-0.52
-0.535
-0.53
-0.53
-0.52
-0.52
-0.5
-0.505
-0.505
-0.5
-0.505
-0.5
-0.505
-0.505
-0.515
-0.515
-0.5
-0.485
-0.475
-0.475
-0.47
-0.47
-0.46
-0.465
-0.46
-0.47
-0.465
-0.465
-0.46
-0.445
-0.43
-0.415
-0.395
-0.39
-0.38
-0.39
-0.385
-0.375
-0.375
-0.365
-0.355
-0.36
-0.37
-0.37
-0.38
-0.385
-0.405
-0.43
-0.43
-0.45
-0.475
-0.48
-0.485
-0.48
-0.505
-0.515
-0.535
-0.535
-0.535
-0.54
-0.55
-0.54
-0.54
-0.53
-0.55
-0.525
-0.515
-0.505
-0.5
-0.5
-0.505
-0.5
-0.5
-0.495
-0.49
-0.465
-0.435
-0.385
-0.33
-0.26
-0.16
-0.055
0.05
0.185
0.33
0.5
0.67
0.835
0.96
1.095
1.19
1.325
1.45
1.525
1.455
1.215
0.845
0.41
-0.035
-0.395
-0.64
-0.76
-0.785
-0.75
-0.7
-0.665
-0.65
-0.645
-0.655
-0.655
-0.645
-0.64
-0.635
-0.635
-0.64
-0.625
-0.63
-0.645
-0.645
-0.655
-0.66
-0.66
-0.665
-0.655
-0.655
-0.66
-0.645
-0.645
-0.65
-0.655
-0.67
-0.665
-0.675
-0.685
-0.695
-0.685
-0.695
-0.69
-0.675
-0.665
-0.675
-0.68
-0.68
-0.695
-0.71
-0.705
-0.725
-0.735
-0.73
-0.72
-0.715
-0.71
-0.725
-0.73
-0.74
-0.75
-0.76
-0.77
-0.77
-0.77
-0.76
-0.765
-0.755
-0.75
-0.755
-0.765
-0.77
-0.79
-0.79
-0.79
-0.815
-0.81
-0.785
-0.785
-0.775
-0.755
-0.76
-0.755
-0.755
-0.765
-0.75
-0.755
-0.75
-0.74
-0.715
-0.695
-0.675
-0.67
-0.655
-0.65
-0.635
-0.63
-0.62
-0.605
-0.595
-0.59
-0.575
-0.56
-0.53
-0.515
-0.495
-0.485
-0.485
-0.485
-0.48
-0.475
-0.47
-0.46
-0.47
-0.465
-0.46
-0.45
-0.455
-0.455
-0.465
-0.475
-0.475
-0.47
-0.475
-0.485
-0.495
-0.47
-0.465
-0.47
-0.465
-0.475
-0.48
-0.485
-0.49
-0.495
-0.495
-0.505
-0.495
-0.495
-0.5
-0.51
-0.5
-0.5
-0.51
-0.51
-0.53
-0.53
-0.54
-0.54
-0.54
-0.535
-0.535
-0.53
-0.525
-0.535
-0.54
-0.54
-0.545
-0.56
-0.555
-0.535
-0.525
-0.52
-0.51
-0.51
-0.525
-0.53
-0.545
-0.525
-0.48
-0.4
-0.295
-0.15
-0.01
0.1
0.19
0.235
0.235
0.175
0.045
-0.125
-0.32
-0.47
-0.615
-0.745
-0.86
-1.005
-1.12
-1.225
-1.3
-1.34
-1.335
-1.3
-1.225
-1.17
-1.105
-1.065
-1.015
-0.98
-0.965
-0.915
-0.875
-0.83
-0.785
-0.76
-0.72
-0.685
-0.655
-0.62
-0.61
-0.57
-0.555
-0.53
-0.535
-0.535
-0.545
-0.56
-0.59
-0.595
-0.595
-0.605
-0.585
-0.59
-0.57
-0.555
-0.55
-0.56
-0.565
-0.575
-0.58
-0.595
-0.59
-0.595
-0.585
-0.585
-0.575
-0.565
-0.56
-0.565
-0.575
-0.565
-0.585
-0.58
-0.585
-0.59
-0.575
-0.57
-0.54
-0.53
-0.52
-0.515
-0.5
-0.49
-0.49
-0.475
-0.455
-0.42
-0.395
-0.385
-0.36
-0.32
-0.29
-0.28
-0.245
-0.235
-0.21
-0.195
-0.18
-0.16
-0.14
-0.11
-0.085
-0.04
-0.015
-0.005
-0.01
0.005
0.005
0.005
0.015
0.005
0.02
0.01
0.02
0.01
0.01
-0.01
-0.025
-0.04
-0.055
-0.08
-0.115
-0.135
-0.14
-0.14
-0.16
-0.165
-0.18
-0.2
-0.215
-0.235
-0.26
-0.28
-0.295
-0.315
-0.34
-0.34
-0.35
-0.35
-0.355
-0.38
-0.39
-0.41
-0.41
-0.43
-0.43
-0.44
-0.445
-0.435
-0.42
-0.43
-0.435
-0.44
-0.445
-0.465
-0.475
-0.465
-0.47
-0.475
-0.465
-0.45
-0.45
-0.445
-0.44
-0.45
-0.455
-0.45
-0.46
-0.47
-0.475
-0.475
-0.475
-0.465
-0.445
-0.44
-0.445
-0.45
-0.46
-0.46
-0.475
-0.48
-0.475
-0.465
-0.465
-0.47
-0.455
-0.45
-0.455
-0.455
-0.455
-0.465
-0.48
-0.485
-0.49
-0.49
-0.48
-0.485
-0.475
-0.47
-0.47
-0.47
-0.485
-0.49
-0.5
-0.495
-0.5
-0.495
-0.5
-0.485
-0.485
-0.47
-0.48
-0.475
-0.48
-0.49
-0.495
-0.505
-0.505
-0.51
-0.495
-0.5
-0.49
-0.485
-0.495
-0.475
-0.5
-0.49
-0.49
-0.5
-0.485
-0.49
-0.49
-0.485
-0.48
-0.48
-0.47
-0.48
-0.5
-0.505
-0.495
-0.5
-0.505
-0.515
-0.495
-0.495
-0.495
-0.49
-0.475
-0.475
-0.48
-0.49
-0.495
-0.505
-0.495
-0.49
-0.485
-0.49
-0.48
-0.465
-0.46
-0.47
-0.48
-0.48
-0.475
-0.48
-0.465
-0.47
-0.45
-0.445
-0.45
-0.425
-0.425
-0.435
-0.425
-0.43
-0.435
-0.435
-0.435
-0.425
-0.43
-0.41
-0.39
-0.37
-0.36
-0.35
-0.345
-0.34
-0.335
-0.35
-0.365
-0.365
-0.39
-0.385
-0.4
-0.39
-0.395
-0.415
-0.44
-0.445
-0.46
-0.49
-0.515
-0.525
-0.54
-0.53
-0.52
-0.51
-0.505
-0.515
-0.505
-0.51
-0.505
-0.505
-0.51
-0.495
-0.49
-0.48
-0.47
-0.45
-0.445
-0.425
-0.395
-0.375
-0.335
-0.285
-0.21
-0.12
0.0
0.145
0.28
0.465
0.63
0.79
0.915
0.995
1.07
1.165
1.28
1.39
1.445
1.4
1.205
0.885
0.515
0.115
-0.24
-0.525
-0.695
-0.775
-0.795
-0.755
-0.71
-0.665
-0.645
-0.62
-0.605
-0.6
-0.605
-0.61
-0.63
-0.655
-0.655
-0.665
-0.645
-0.635
-0.63
-0.615
-0.62
-0.63
-0.63
-0.645
-0.645
-0.655
-0.675
-0.655
-0.67
-0.655
-0.65
-0.65
-0.64
-0.655
-0.68
-0.685
-0.69
-0.69
-0.715
-0.71
-0.71
-0.7
-0.7
-0.695
-0.695
-0.7
-0.705
-0.725
-0.73
-0.75
-0.75
-0.75
-0.76
-0.755
-0.755
-0.75
-0.755
-0.755
-0.77
-0.775
-0.79
-0.78
-0.78
-0.79
-0.79
-0.785
-0.79
-0.78
-0.77
-0.79
-0.78
-0.79
-0.79
-0.8
-0.8
-0.8
-0.795
-0.785
-0.77
-0.75
-0.74
-0.735
-0.73
-0.73
-0.72
-0.715
-0.71
-0.69
-0.68
-0.665
-0.625
-0.595
-0.575
-0.57
-0.555
-0.55
-0.53
-0.535
-0.525
-0.515
-0.495
-0.5
-0.485
-0.465
-0.46
-0.46
-0.47
-0.465
-0.47
-0.485
-0.48
-0.475
-0.465
-0.465
-0.46
-0.455
-0.46
-0.455
-0.45
-0.465
-0.475
-0.49
-0.485
-0.49
-0.49
-0.49
-0.485
-0.485
-0.485
-0.485
-0.485
-0.49
-0.5
-0.51
-0.515
-0.51
-0.505
-0.505
-0.505
-0.51
-0.515
-0.51
-0.52
-0.515
-0.525
-0.535
-0.53
-0.52
-0.53
-0.52
-0.525
-0.515
-0.5
-0.505
-0.53
-0.535
-0.56
-0.565
-0.575
-0.565
-0.54
-0.465
-0.39
-0.25
-0.11
0.02
0.13
0.21
0.26
0.28
0.25
0.2
0.085
-0.045
-0.19
-0.31
-0.42
-0.535
-0.665
-0.805
-0.945
-1.095
-1.175
-1.215
-1.215
-1.2
-1.15
-1.095
-1.045
-1.005
-0.99
-0.965
-0.955
-0.96
-0.955
-0.935
-0.89
-0.85
-0.805
-0.77
-0.74
-0.71
-0.685
-0.67
-0.65
-0.625
-0.61
-0.585
-0.575
-0.57
-0.565
-0.56
-0.56
-0.565
-0.575
-0.575
-0.59
-0.57
-0.575
-0.575
-0.58
-0.565
-0.57
-0.56
-0.57
-0.565
-0.57
-0.57
-0.585
-0.585
-0.585
-0.585
-0.575
-0.58
-0.58
-0.57
-0.585
-0.575
-0.575
-0.57
-0.585
-0.595
-0.575
-0.57
-0.56
-0.545
-0.535
-0.51
-0.505
-0.475
-0.485
-0.445
-0.43
-0.41
-0.39
-0.36
-0.335
-0.31
-0.275
-0.245
-0.215
-0.2
