Lead II
0.83
0.865
0.885
0.9
0.895
0.895
0.905
0.93
0.94
0.935
0.93
0.925
0.905
0.89
0.865
0.85
0.81
0.78
0.75
0.725
0.695
0.67
0.655
0.635
0.6
0.56
0.515
0.465
0.425
0.39
0.375
0.365
0.34
0.31
0.275
0.25
0.22
0.2
0.185
0.17
0.145
0.12
0.1
0.095
0.11
0.105
0.07
0.02
-0.025
-0.055
-0.06
-0.035
0.005
0.03
0.045
0.045
0.005
-0.025
-0.08
-0.1
-0.105
-0.08
-0.075
-0.045
-0.035
-0.015
-0.02
-0.015
-0.055
-0.075
-0.07
-0.07
-0.065
-0.04
-0.045
-0.01
0.005
0.005
0.01
0.0
-0.015
-0.02
-0.055
-0.07
-0.11
-0.13
-0.135
-0.135
-0.125
-0.11
-0.095
-0.09
-0.09
-0.09
-0.09
-0.06
-0.07
-0.09
-0.08
-0.105
-0.105
-0.1
-0.105
-0.12
-0.14
-0.15
-0.155
-0.15
-0.125
-0.105
-0.085
-0.08
-0.075
-0.055
-0.06
-0.065
-0.08
-0.105
-0.125
-0.145
-0.145
-0.13
-0.115
-0.105
-0.08
-0.115
-0.115
-0.135
-0.135
-0.145
-0.13
-0.115
-0.1
-0.1
-0.095
-0.09
-0.105
-0.1
-0.115
-0.12
-0.11
-0.095
-0.095
-0.085
-0.075
-0.07
-0.055
-0.04
-0.015
-0.005
0.03
0.05
0.08
0.085
0.09
0.095
0.12
0.14
0.17
0.2
0.215
0.21
0.195
0.195
0.185
0.2
0.19
0.185
0.18
0.17
0.14
0.14
0.11
0.09
0.07
0.065
0.055
0.03
0.005
-0.02
-0.045
-0.07
-0.095
-0.11
-0.115
-0.1
-0.095
-0.09
-0.09
-0.065
-0.07
-0.065
-0.075
-0.105
-0.125
-0.13
-0.115
-0.08
0.0
0.11
0.26
0.45
0.645
0.84
1.015
1.18
1.33
1.47
1.565
1.63
1.63
1.595
1.505
1.36
1.15
0.87
0.59
0.36
0.21
0.125
0.1
0.075
0.04
0.005
-0.045
-0.1
-0.16
-0.185
-0.21
-0.2
-0.185
-0.2
-0.2
-0.21
-0.225
-0.225
-0.205
-0.185
-0.185
-0.185
-0.19
-0.21
-0.21
-0.195
-0.18
-0.16
-0.155
-0.165
-0.175
-0.185
-0.19
-0.19
-0.2
-0.2
-0.19
-0.185
-0.17
-0.165
-0.17
-0.18
-0.195
-0.19
-0.205
-0.2
-0.215
-0.21
-0.235
-0.245
-0.25
-0.26
-0.25
-0.265
-0.265
-0.28
-0.315
-0.335
-0.365
-0.375
-0.395
-0.415
-0.425
-0.425
-0.435
-0.46
-0.465
-0.47
-0.475
-0.46
-0.47
-0.505
-0.52
-0.525
-0.525
-0.495
-0.48
-0.44
-0.43
-0.42
-0.435
-0.41
-0.41
-0.405
-0.375
-0.355
-0.325
-0.295
-0.26
-0.24
-0.2
-0.165
-0.14
-0.125
-0.105
-0.09
-0.065
-0.04
-0.015
-0.02
-0.005
-0.005
0.01
0.02
0.035
0.045
0.04
0.04
0.035
0.04
0.04
0.04
0.04
0.04
0.045
0.05
0.055
0.065
0.065
0.06
0.06
0.05
0.06
0.065
0.075
0.09
0.095
0.09
0.085
0.09
0.085
0.09
0.09
0.075
0.09
0.085
0.095
0.11
0.12
0.135
0.155
0.2
0.215
0.225
0.245
0.235
0.245
0.255
0.27
0.285
0.31
0.34
0.36
0.405
0.42
0.415
0.41
0.395
0.375
0.37
0.375
0.38
0.4
0.41
0.4
0.385
0.34
0.305
0.28
0.25
0.215
0.215
0.205
0.2
0.19
0.19
0.17
0.155
0.13
0.105
0.075
0.07
0.085
0.09
0.115
0.11
0.12
0.115
0.11
0.095
0.075
0.065
0.08
0.11
0.17
0.255
0.39
0.555
0.74
0.915
1.085
1.24
1.385
1.53
1.665
1.76
1.81
1.81
1.77
1.66
1.505
1.305
1.05
0.805
0.62
0.475
0.375
0.3
0.27
0.235
0.205
0.145
0.09
0.035
-0.005
-0.025
-0.05
-0.055
-0.045
-0.055
-0.06
-0.07
-0.08
-0.075
-0.075
-0.075
-0.085
-0.09
-0.09
-0.095
-0.115
-0.11
-0.11
-0.12
-0.115
-0.125
-0.12
-0.125
-0.135
-0.125
-0.135
-0.125
-0.135
-0.15
-0.165
-0.155
-0.16
-0.175
-0.17
-0.17
-0.18
-0.175
-0.18
-0.185
-0.205
-0.195
-0.195
-0.215
-0.23
-0.25
-0.28
-0.295
-0.315
-0.32
-0.32
-0.34
-0.335
-0.34
-0.35
-0.37
-0.375
-0.37
-0.375
-0.36
-0.355
-0.36
-0.36
-0.36
-0.36
-0.345
-0.325
-0.315
-0.28
-0.26
-0.225
-0.2
-0.175
-0.14
-0.135
-0.105
-0.07
-0.045
-0.015
-0.015
-0.04
-0.045
-0.05
-0.03
-0.025
-0.01
-0.005
-0.005
-0.005
-0.01
-0.005
-0.01
-0.01
-0.01
-0.005
-0.01
-0.01
-0.01
-0.02
-0.02
-0.03
-0.025
-0.02
-0.02
-0.02
-0.025
-0.01
-0.005
-0.015
-0.015
-0.015
-0.025
-0.035
-0.03
-0.02
-0.015
0.0
0.005
0.02
0.01
-0.015
0.0
-0.025
-0.005
-0.005
0.03
0.05
0.075
0.1
0.11
0.12
0.115
0.115
0.14
0.155
0.175
0.215
0.225
0.23
0.225
0.22
0.205
0.22
0.21
0.215
0.21
0.205
0.19
0.17
0.14
0.105
0.09
0.065
0.035
0.03
0.015
0.01
-0.015
-0.025
-0.04
-0.055
-0.075
-0.08
-0.085
-0.09
-0.08
-0.07
-0.05
-0.045
-0.04
-0.055
-0.07
-0.065
-0.05
0.015
0.11
0.285
0.5
0.73
0.945
1.125
1.32
1.475
1.59
1.635
1.625
1.535
1.39
1.14
0.87
0.61
0.395
0.23
0.12
0.06
0.035
0.005
-0.045
-0.11
-0.175
-0.235
-0.25
-0.255
-0.26
-0.255
-0.25
-0.245
-0.26
-0.28
-0.29
-0.305
-0.295
-0.285
-0.29
-0.29
-0.27
-0.3
-0.315
-0.325
-0.33
-0.345
-0.335
-0.335
-0.325
-0.325
-0.315
-0.31
-0.31
-0.32
-0.315
-0.325
-0.325
-0.34
-0.36
-0.37
-0.37
-0.385
-0.38
-0.375
-0.375
-0.38
-0.37
-0.39
-0.4
-0.415
-0.445
-0.455
-0.48
-0.48
-0.495
-0.49
-0.5
-0.505
-0.51
-0.52
-0.54
-0.56
-0.59
-0.58
-0.58
-0.58
-0.58
-0.55
-0.54
-0.53
-0.525
-0.525
-0.52
-0.515
-0.52
-0.505
-0.48
-0.455
-0.42
-0.385
-0.36
-0.35
-0.335
-0.315
-0.31
-0.3
-0.275
-0.25
-0.23
-0.215
-0.195
-0.19
-0.18
-0.18
-0.17
-0.17
-0.175
-0.175
-0.175
-0.175
-0.19
-0.165
-0.14
-0.12
-0.095
-0.095
-0.085
-0.075
-0.055
-0.03
0.01
0.06
0.09
0.155
0.22
0.28
0.345
0.42
0.5
0.56
0.565
0.505
0.33
0.03
-0.37
-0.79
-1.19
-1.5
-1.74
-1.885
-1.98
-2.05
-2.095
-2.125
-2.145
-2.14
-2.105
-2.065
-2.0
-1.91
-1.81
-1.695
-1.56
-1.45
-1.35
-1.27
-1.195
-1.125
-1.06
-0.98
-0.905
-0.8
-0.7
-0.625
-0.555
-0.505
-0.455
-0.385
-0.27
-0.14
-0.01
0.115
0.2
0.24
0.26
0.25
0.24
0.22
0.215
0.205
0.195
0.2
0.225
0.245
0.275
0.3
0.325
0.345
0.34
0.345
0.34
0.345
0.345
0.36
0.385
0.43
0.44
0.45
0.475
0.48
0.5
0.51
0.52
0.52
0.52
0.53
0.555
0.565
0.595
0.625
0.65
0.665
0.69
0.71
0.705
0.69
0.69
0.685
0.695
0.725
0.735
0.735
0.745
0.735
0.715
0.69
0.67
0.64
0.62
0.59
0.56
0.54
0.505
0.47
0.44
0.405
0.365
0.335
0.3
0.275
0.245
0.235
0.205
0.185
0.15
0.12
0.1
0.055
0.05
0.015
-0.01
-0.03
-0.055
-0.065
-0.08
-0.09
-0.095
-0.115
-0.115
-0.12
-0.125
-0.13
-0.14
-0.15
-0.16
-0.17
-0.175
-0.155
-0.155
-0.16
-0.15
-0.16
-0.17
-0.19
-0.2
-0.195
-0.21
-0.195
-0.19
-0.185
-0.185
-0.19
-0.18
-0.17
-0.17
-0.185
-0.195
-0.2
-0.22
-0.225
-0.23
-0.235
-0.23
-0.225
-0.215
-0.21
-0.215
-0.225
-0.255
-0.245
-0.25
-0.25
-0.26
-0.27
-0.27
-0.265
-0.26
-0.26
-0.25
-0.255
-0.25
-0.26
-0.27
-0.26
-0.27
-0.26
-0.27
-0.26
-0.255
-0.235
-0.23
-0.24
-0.24
-0.26
-0.28
-0.285
-0.295
-0.295
-0.285
-0.275
-0.27
-0.27
-0.26
-0.265
-0.265
-0.28
-0.285
-0.275
-0.265
-0.27
-0.265
-0.26
-0.26
-0.255
-0.25
-0.255
-0.255
-0.255
-0.255
-0.245
-0.24
-0.215
-0.195
-0.17
-0.14
-0.135
-0.115
-0.11
-0.11
-0.11
-0.115
-0.115
-0.1
-0.05
-0.015
0.015
0.035
0.03
0.03
0.0
-0.035
-0.05
-0.06
-0.045
-0.04
-0.025
-0.02
-0.04
-0.075
-0.115
-0.155
-0.175
-0.195
-0.215
-0.235
-0.245
-0.255
-0.28
-0.29
-0.3
-0.305
-0.31
-0.315
-0.325
-0.325
-0.33
-0.33
-0.32
-0.32
-0.31
-0.315
-0.305
-0.3
-0.295
-0.245
-0.22
-0.125
-0.01
0.135
0.31
0.49
0.665
0.84
1.015
1.175
1.315
1.42
1.46
1.435
1.35
1.23
1.06
0.825
0.595
0.355
0.155
0.01
-0.085
-0.145
-0.175
-0.225
-0.275
-0.335
-0.395
-0.445
-0.47
-0.48
-0.475
-0.465
-0.475
-0.465
-0.475
-0.485
-0.495
-0.505
-0.5
-0.51
-0.51
-0.515
-0.52
-0.535
-0.525
-0.52
-0.51
-0.53
-0.535
-0.54
-0.545
-0.53
-0.535
-0.545
-0.55
-0.525
-0.545
-0.545
-0.54
-0.545
-0.555
-0.57
-0.565
-0.57
-0.565
-0.56
-0.575
-0.575
-0.59
-0.61
-0.625
-0.65
-0.675
-0.69
-0.705
-0.715
-0.71
-0.725
-0.735
-0.76
-0.77
-0.78
-0.8
-0.815
-0.835
-0.845
-0.845
-0.85
-0.845
-0.845
-0.83
-0.82
-0.825
-0.81
-0.82
-0.805
-0.8
-0.78
-0.765
-0.735
-0.71
-0.68
-0.645
-0.62
-0.585
-0.565
-0.55
-0.535
-0.505
-0.48
-0.45
-0.435
-0.415
-0.39
-0.375
-0.375
-0.37
-0.355
-0.35
-0.35
-0.33
-0.325
-0.335
-0.33
-0.32
-0.315
-0.3
-0.295
-0.295
-0.285
-0.3
-0.31
-0.325
-0.335
-0.33
-0.325
-0.335
-0.305
-0.285
-0.28
-0.28
-0.285
-0.3
-0.315
-0.32
-0.315
-0.315
-0.305
-0.3
-0.285
-0.275
-0.255
-0.235
-0.215
-0.2
-0.19
-0.185
-0.195
-0.185
-0.175
-0.155
-0.13
-0.1
-0.065
-0.045
-0.025
-0.02
-0.01
-0.02
-0.03
-0.04
-0.04
-0.04
-0.04
-0.03
-0.03
-0.045
-0.075
-0.115
-0.17
-0.2
-0.23
-0.235
-0.24
-0.25
-0.26
-0.275
-0.29
-0.295
-0.315
-0.315
-0.335
-0.33
-0.33
-0.345
-0.33
-0.32
-0.305
-0.29
-0.285
-0.265
-0.27
-0.27
-0.28
-0.27
-0.225
-0.135
0.015
0.2
0.415
0.62
0.805
0.98
1.14
1.295
1.4
1.455
1.45
1.42
1.34
1.22
1.045
0.84
0.605
0.395
0.245
0.1
0.005
-0.06
-0.11
-0.145
-0.175
-0.225
-0.305
-0.375
-0.415
-0.445
-0.465
-0.475
-0.47
-0.47
-0.48
-0.475
-0.47
-0.47
-0.465
-0.455
-0.44
-0.435
-0.445
-0.45
-0.47
-0.49
-0.505
-0.53
-0.54
-0.515
-0.51
-0.495
-0.48
-0.485
-0.475
-0.485
-0.5
-0.515
-0.53
-0.54
-0.535
-0.53
-0.525
-0.51
-0.515
-0.51
-0.515
-0.53
-0.55
-0.58
-0.595
-0.61
-0.61
-0.595
-0.59
-0.595
-0.6
-0.625
-0.65
-0.645
-0.66
-0.675
-0.68
-0.68
-0.68
-0.69
-0.695
-0.7
-0.7
-0.7
-0.695
-0.7
-0.695
-0.695
-0.685
-0.69
-0.66
-0.65
-0.63
-0.615
-0.58
-0.565
-0.535
-0.525
-0.495
-0.485
-0.47
-0.455
-0.45
-0.41
-0.385
-0.37
-0.345
-0.345
-0.335
-0.33
-0.32
-0.34
-0.34
-0.345
-0.335
-0.33
-0.33
-0.32
-0.31
-0.315
-0.305
-0.305
-0.315
-0.33
-0.34
-0.34
-0.34
-0.33
-0.32
-0.31
-0.305
-0.315
-0.305
-0.325
-0.33
-0.345
-0.35
-0.345
-0.35
-0.35
-0.34
-0.345
-0.33
-0.335
-0.33
-0.335
-0.33
-0.345
-0.35
-0.33
-0.33
-0.315
-0.295
-0.265
-0.235
-0.22
-0.2
-0.18
-0.19
-0.18
-0.175
-0.16
-0.155
-0.15
-0.125
-0.095
-0.08
-0.065
-0.055
-0.065
-0.09
-0.12
-0.14
-0.13
-0.12
-0.115
-0.11
-0.105
-0.135
-0.17
-0.2
-0.23
-0.25
-0.265
-0.285
-0.315
-0.325
-0.33
-0.33
-0.33
-0.34
-0.345
-0.355
-0.36
-0.36
-0.365
-0.37
-0.38
-0.375
-0.375
-0.36
-0.355
-0.345
-0.355
-0.335
-0.32
-0.27
-0.19
-0.06
0.125
0.33
0.525
0.725
0.905
1.065
1.21
1.34
1.405
1.39
1.33
1.22
1.08
0.9
0.68
0.435
0.23
0.08
-0.045
-0.125
-0.185
-0.23
-0.275
-0.325
-0.385
-0.425
-0.47
-0.505
-0.5
-0.505
-0.52
-0.515
-0.515
-0.53
-0.54
-0.545
-0.545
-0.54
-0.535
-0.54
-0.55
-0.54
-0.55
-0.555
-0.55
-0.55
-0.565
-0.57
-0.56
-0.565
-0.565
-0.57
-0.57
-0.57
-0.57
-0.57
-0.575
-0.58
-0.59
-0.595
-0.605
-0.615
-0.62
-0.62
-0.625
-0.615
-0.625
-0.62
-0.635
-0.655
-0.67
-0.685
-0.695
-0.715
-0.725
-0.73
-0.72
-0.72
-0.74
-0.755
-0.755
-0.765
-0.79
-0.805
-0.8
-0.8
-0.78
-0.775
-0.765
-0.74
-0.74
-0.73
-0.72
-0.725
-0.725
-0.705
-0.69
-0.67
-0.65
-0.62
-0.585
-0.57
-0.55
-0.53
-0.525
-0.51
-0.5
-0.495
-0.48
-0.455
-0.435
-0.415
-0.385
-0.37
-0.365
-0.37
-0.365
-0.37
-0.375
-0.385
-0.385
-0.38
-0.37
-0.345
-0.325
-0.305
-0.28
-0.245
-0.235
-0.205
-0.17
-0.12
-0.065
-0.02
0.03
0.09
0.16
0.24
0.315
0.37
0.355
0.26
0.095
-0.17
-0.5
-0.85
-1.205
-1.48
-1.695
-1.85
-1.97
-2.055
-2.125
-2.21
-2.275
-2.31
-2.325
-2.325
-2.28
-2.235
-2.17
-2.095
-2.015
-1.935
-1.835
-1.73
-1.635
-1.555
-1.48
-1.41
-1.325
-1.245
-1.15
-1.035
-0.93
-0.85
-0.79
-0.745
-0.71
-0.66
-0.57
-0.46
-0.315
-0.155
-0.01
0.1
0.16
0.165
0.155
0.12
0.085
0.07
0.07
0.08
0.1
0.12
0.12
0.14
0.13
0.15
0.16
0.18
0.19
0.215
0.215
0.22
0.225
0.245
0.26
0.265
0.285
0.295
0.305
0.31
0.325
0.34
0.345
0.36
0.38
0.39
0.42
0.435
0.46
0.49
0.515
0.515
0.525
0.53
0.54
0.545
0.57
0.58
0.605
0.605
0.61
0.61
0.58
0.56
0.565
0.55
0.55
0.535
0.53
0.505
0.485
0.455
0.42
0.39
0.35
0.315
0.28
0.24
0.205
0.18
0.15
0.1
0.07
0.05
0.01
-0.015
-0.065
-0.09
-0.11
-0.135
-0.14
-0.145
-0.15
-0.17
-0.19
-0.2
-0.24
-0.25
-0.27
-0.29
-0.29
-0.285
-0.28
-0.295
-0.285
-0.29
-0.295
-0.3
-0.31
-0.315
-0.325
-0.34
-0.345
-0.35
-0.345
-0.345
-0.32
-0.32
-0.315
-0.3
-0.3
-0.3
-0.32
-0.325
-0.335
-0.34
-0.34
-0.345
-0.335
-0.335
-0.335
-0.33
-0.335
-0.33
-0.325
-0.345
-0.36
-0.37
-0.38
-0.365
-0.35
-0.34
-0.33
-0.315
-0.33
-0.335
-0.35
-0.375
-0.385
-0.39
-0.395
-0.38
-0.365
-0.355
-0.35
-0.36
-0.365
-0.37
-0.37
-0.38
-0.38
-0.385
-0.395
-0.395
-0.395
-0.395
-0.39
-0.375
-0.375
-0.355
-0.365
-0.37
-0.37
-0.375
-0.365
-0.375
-0.37
-0.36
-0.36
-0.365
-0.36
-0.35
-0.365
-0.365
-0.365
-0.38
-0.385
-0.39
-0.375
-0.37
-0.36
-0.355
-0.35
-0.32
-0.305
-0.3
-0.275
-0.255
-0.245
-0.23
-0.2
-0.195
-0.185
-0.18
-0.175
-0.15
-0.135
-0.105
-0.09
-0.075
-0.08
-0.085
-0.105
-0.13
-0.13
-0.12
-0.11
-0.11
-0.1
-0.115
-0.14
-0.185
-0.21
-0.24
-0.26
-0.28
-0.27
-0.285
-0.295
-0.315
-0.33
-0.375
-0.385
-0.41
-0.42
-0.415
-0.405
-0.39
-0.37
-0.36
-0.36
-0.365
-0.37
-0.38
-0.405
-0.4
-0.36
-0.31
-0.2
-0.065
0.125
0.335
0.535
0.715
0.88
1.035
1.18
1.305
1.395
1.43
1.41
1.34
1.215
1.02
0.765
0.505
0.245
0.065
-0.07
-0.15
-0.205
-0.235
-0.265
-0.305
-0.345
-0.41
-0.475
-0.51
-0.535
-0.54
-0.545
-0.545
-0.55
-0.565
-0.555
-0.555
-0.555
-0.555
-0.565
-0.565
-0.56
-0.565
-0.59
-0.595
-0.59
-0.595
-0.585
-0.575
-0.58
-0.575
-0.595
-0.605
-0.61
-0.61
-0.615
-0.615
-0.61
-0.61
-0.605
-0.625
-0.625
-0.63
-0.635
-0.635
-0.64
-0.65
-0.665
-0.68
-0.69
-0.695
-0.7
-0.7
-0.72
-0.725
-0.75
-0.755
-0.765
-0.79
-0.815
-0.83
-0.845
-0.875
-0.865
-0.88
-0.875
-0.885
-0.91
-0.915
-0.91
-0.925
-0.92
-0.925
-0.92
-0.92
-0.905
-0.885
-0.865
-0.835
-0.825
-0.81
-0.8
-0.795
-0.79
-0.765
-0.735
-0.715
-0.685
-0.65
-0.615
-0.575
-0.56
-0.54
-0.525
-0.5
-0.495
-0.475
-0.465
-0.43
-0.42
-0.4
-0.39
-0.385
-0.38
-0.37
-0.375
-0.38
-0.385
-0.375
-0.38
-0.375
-0.38
-0.355
-0.355
-0.355
-0.34
-0.345
-0.355
-0.345
-0.34
-0.355
-0.35
-0.355
-0.355
-0.345
-0.345
-0.335
-0.34
-0.345
-0.35
-0.355
-0.375
-0.38
-0.38
-0.37
-0.345
-0.32
-0.295
-0.265
-0.245
-0.235
-0.22
-0.215
-0.21
-0.215
-0.215
-0.2
-0.185
-0.155
-0.13
-0.1
-0.07
-0.06
-0.07
-0.08
-0.11
-0.135
-0.145
-0.15
-0.145
-0.155
-0.165
-0.17
-0.19
-0.21
-0.24
-0.265
-0.29
-0.315
-0.33
-0.355
-0.36
-0.36
-0.37
-0.375
-0.385
-0.37
-0.355
-0.345
-0.335
-0.35
-0.35
-0.375
-0.39
-0.39
-0.385
-0.365
-0.34
-0.3
-0.215
-0.085
0.085
0.285
0.515
0.73
0.935
1.13
1.295
1.405
1.45
1.45
1.39
1.26
1.09
0.86
0.615
0.375
0.19
0.045
-0.06
-0.125
-0.165
-0.19
-0.245
-0.3
-0.365
-0.445
-0.48
-0.5
-0.51
-0.485
-0.48
-0.475
-0.49
-0.49
-0.515
-0.54
-0.545
-0.54
-0.56
-0.545
-0.525
-0.515
-0.505
-0.52
-0.515
-0.525
-0.525
-0.53
-0.545
-0.56
-0.57
-0.565
-0.54
-0.535
-0.53
-0.54
-0.55
-0.565
-0.555
-0.57
-0.58
-0.585
-0.58
-0.59
-0.595
-0.595
-0.595
-0.61
-0.625
-0.63
-0.645
-0.66
-0.67
-0.695
-0.69
-0.7
-0.71
-0.71
-0.715
-0.715
-0.72
-0.73
-0.735
-0.73
-0.745
-0.755
-0.75
-0.74
-0.735
-0.725
-0.695
-0.665
-0.66
-0.635
-0.625
-0.61
-0.59
-0.59
-0.58
-0.545
-0.525
-0.505
-0.47
-0.44
-0.415
-0.405
-0.405
-0.4
-0.405
-0.395
-0.4
-0.38
-0.365
-0.35
-0.335
-0.325
-0.335
-0.34
-0.35
-0.355
-0.36
-0.37
-0.375
-0.365
-0.36
-0.355
-0.325
-0.335
-0.33
-0.335
-0.35
-0.355
-0.365
-0.37
-0.38
-0.355
-0.375
-0.365
-0.35
-0.345
-0.345
-0.35
-0.345
-0.355
-0.36
-0.37
-0.375
-0.37
-0.375
-0.36
-0.36
-0.34
-0.325
-0.305
-0.3
-0.29
-0.28
-0.25
-0.22
-0.21
-0.19
-0.175
-0.155
-0.145
-0.14
-0.115
-0.1
-0.09
-0.075
-0.055
-0.05
-0.05
-0.055
-0.075
-0.09
-0.1
-0.095
-0.1
-0.105
-0.115
-0.135
-0.15
-0.18
-0.2
-0.21
-0.235
-0.245
-0.24
-0.26
-0.285
-0.305
-0.325
-0.355
-0.375
-0.365
-0.375
-0.36
-0.345
-0.335
-0.3
-0.295
-0.29
-0.315
-0.32
-0.345
-0.365
-0.37
-0.36
-0.33
-0.265
-0.17
-0.005
0.2
0.41
0.605
0.775
0.965
1.135
1.3
1.425
1.485
1.515
1.46
1.36
1.195
0.98
0.715
0.46
0.235
0.07
-0.025
-0.08
-0.115
-0.14
-0.175
-0.22
-0.295
-0.365
-0.43
-0.46
-0.51
-0.535
-0.545
-0.535
-0.515
-0.49
-0.475
-0.47
-0.48
-0.49
-0.52
-0.54
-0.565
-0.58
-0.565
-0.565
-0.54
-0.53
-0.525
-0.52
-0.52
-0.52
-0.54
-0.565
-0.585
-0.6
-0.61
-0.59
-0.59
-0.57
-0.545
-0.54
-0.55
-0.555
-0.58
-0.61
-0.65
-0.68
-0.68
-0.69
-0.665
-0.645
-0.615
-0.6
-0.585
-0.605
-0.64
-0.675
-0.715
-0.76
-0.785
-0.795
-0.81
-0.785
-0.76
-0.74
-0.76
-0.765
-0.765
-0.795
-0.815
-0.825
-0.815
-0.785
-0.765
-0.745
-0.745
-0.73
-0.715
-0.7
-0.68
-0.66
-0.625
-0.6
-0.57
-0.56
-0.54
-0.54
-0.51
-0.49
-0.47
-0.44
-0.42
-0.43
-0.44
-0.47
-0.465
-0.435
-0.405
-0.375
-0.37
-0.38
-0.405
-0.415
-0.41
-0.395
-0.385
-0.38
-0.375
-0.37
-0.355
-0.355
-0.34
-0.305
-0.255
-0.19
-0.135
-0.08
-0.035
0.005
0.055
0.1
0.15
0.22
0.32
0.395
0.42
0.37
0.21
-0.07
-0.44
-0.855
-1.255
-1.585
-1.825
-1.98
-2.075
-2.135
-2.195
-2.225
-2.25
-2.27
-2.28
-2.26
-2.22
-2.165
-2.1
-2.03
-1.94
-1.825
-1.72
-1.61
-1.53
-1.47
-1.405
-1.355
-1.29
-1.22
-1.13
-1.025
-0.91
-0.795
-0.745
-0.73
-0.72
-0.7
-0.635
-0.54
-0.375
-0.2
-0.055
0.065
0.11
0.12
0.12
0.1
0.09
0.085
0.1
0.115
0.12
0.13
0.135
0.125
0.125
0.16
0.185
0.22
0.255
0.255
0.275
0.275
0.28
0.285
0.28
0.28
0.28
0.285
0.305
0.345
0.37
0.41
0.445
0.46
0.48
0.48
0.495
0.495
0.5
0.515
0.54
0.575
0.625
0.655
0.69
0.685
0.695
0.665
0.655
0.66
0.655
0.67
0.68
0.68
0.69
0.69
0.695
0.675
0.665
0.62
0.57
0.545
0.525
0.525
0.52
0.515
0.52
0.495
0.445
0.375
0.29
0.24
0.22
0.2
0.195
0.2
0.185
0.16
0.11
0.055
0.0
-0.06
-0.085
-0.095
-0.1
-0.1
-0.075
-0.07
-0.105
-0.14
-0.175
-0.215
-0.235
-0.255
-0.26
-0.25
-0.245
-0.27
-0.28
-0.285
-0.275
-0.29
-0.295
-0.29
-0.28
-0.275
-0.285
-0.31
-0.34
-0.34
-0.345
-0.32
-0.295
-0.27
-0.255
-0.26
-0.275
-0.295
-0.32
-0.335
-0.335
-0.33
-0.31
-0.3
-0.3
-0.31
-0.315
-0.305
-0.31
-0.32
-0.33
-0.345
-0.33
-0.29
-0.255
-0.23
-0.21
-0.245
-0.32
-0.355
-0.38
-0.375
-0.335
-0.31
-0.315
-0.32
-0.32
-0.3
-0.3
-0.295
-0.315
-0.305
-0.305
-0.295
-0.305
-0.305
-0.32
-0.335
-0.335
-0.33
-0.32
-0.295
-0.295
-0.29
-0.285
-0.27
-0.245
-0.245
-0.28
-0.32
-0.345
-0.345
-0.335
-0.31
-0.285
-0.275
-0.27
-0.29
-0.295
-0.31
-0.315
-0.275
-0.24
-0.185
-0.21
-0.255
-0.29
-0.29
-0.255
-0.215
-0.195
-0.175
-0.15
-0.12
-0.09
-0.065
-0.04
-0.01
0.025
0.045
0.045
0.02
-0.005
-0.03
-0.045
-0.03
-0.01
0.01
0.025
0.01
0.005
-0.025
-0.055
-0.065
-0.09
-0.115
-0.155
-0.185
-0.185
-0.18
-0.185
-0.175
-0.17
-0.18
-0.22
-0.27
-0.315
-0.335
-0.33
-0.3
-0.275
-0.275
-0.265
-0.23
-0.22
-0.225
-0.24
-0.255
-0.27
-0.26
-0.22
-0.12
0.04
0.28
0.525
0.735
0.885
1.02
1.155
1.315
1.45
1.56
1.61
1.615
1.555
1.445
1.25
0.965
0.62
0.345
0.135
0.01
-0.04
-0.09
-0.145
-0.175
-0.22
-0.26
-0.32
-0.36
-0.375
-0.405
-0.435
-0.455
-0.445
-0.425
-0.385
-0.385
-0.385
-0.395
-0.4
-0.4
-0.415
-0.435
-0.43
-0.415
-0.395
-0.39
-0.405
-0.425
-0.425
-0.405
-0.415
-0.405
-0.42
-0.445
-0.485
-0.52
-0.51
-0.45
-0.41
-0.385
-0.38
-0.4
-0.455
-0.5
-0.52
-0.52
-0.495
-0.485
-0.475
-0.46
-0.48
-0.515
-0.52
-0.54
-0.55
-0.575
-0.605
-0.65
-0.66
-0.66
-0.65
-0.64
-0.63
-0.63
-0.65
-0.66
-0.675
-0.695
-0.695
-0.715
-0.74
-0.78
-0.79
-0.765
-0.73
-0.68
-0.63
-0.595
-0.61
-0.64
-0.655
-0.645
-0.625
-0.595
-0.545
-0.51
-0.475
-0.425
-0.38
-0.36
-0.335
-0.315
-0.29
-0.27
-0.255
-0.255
-0.245
-0.24
-0.2
-0.155
-0.115
-0.08
-0.07
-0.07
-0.11
-0.13
-0.15
-0.145
-0.125
-0.1
-0.065
-0.05
-0.045
-0.055
-0.08
-0.095
-0.09
-0.075
-0.055
-0.07
-0.085
-0.105
-0.095
-0.07
-0.045
-0.015
-0.035
-0.075
-0.105
-0.11
-0.085
-0.06
-0.035
-0.02
-0.005
-0.015
-0.03
-0.03
-0.035
-0.035
-0.02
0.005
0.015
0.045
0.07
0.11
0.115
0.13
0.145
0.145
0.14
0.16
0.185
0.225
0.26
0.26
0.25
0.205
0.18
0.175
0.195
0.23
0.25
0.255
0.22
0.18
0.13
0.11
0.08
0.08
0.08
0.075
0.06
0.06
0.045
0.04
0.035
0.0
-0.015
-0.055
-0.055
-0.06
-0.045
-0.04
-0.015
-0.015
-0.005
-0.01
0.0
0.0
0.0
-0.005
0.02
0.055
0.14
0.295
0.485
0.72
0.945
1.165
1.345
1.52
1.695
1.83
1.895
1.92
1.88
1.835
1.71
1.515
1.22
0.905
0.625
0.415
0.275
0.175
0.135
0.115
0.08
0.035
-0.005
-0.035
-0.07
-0.09
-0.1
-0.12
-0.135
-0.14
-0.13
-0.135
-0.125
-0.125
-0.14
-0.145
-0.13
-0.115
-0.105
-0.105
-0.13
-0.135
-0.14
-0.15
-0.145
-0.145
-0.16
-0.185
-0.19
-0.18
-0.15
-0.15
-0.145
-0.15
-0.165
-0.18
-0.205
-0.225
-0.225
-0.225
-0.235
-0.26
-0.265
-0.255
-0.29
-0.28
-0.285
-0.28
-0.295
-0.32
-0.345
-0.345
-0.355
-0.355
-0.355
-0.365
-0.36
-0.38
-0.38
-0.37
-0.345
-0.315
-0.295
-0.305
-0.34
-0.36
-0.325
-0.275
-0.225
-0.2
-0.19
-0.175
-0.15
-0.12
-0.1
-0.055
-0.045
-0.03
-0.03
-0.015
-0.015
-0.005
0.01
0.01
0.025
0.045
0.045
0.04
0.045
0.05
0.065
0.105
0.125
0.12
0.11
0.08
0.05
0.055
0.065
0.075
0.085
0.075
0.08
0.075
0.08
0.09
0.065
0.05
0.045
0.055
0.065
0.075
0.085
0.095
0.095
0.085
0.055
0.04
0.03
0.045
0.06
0.085
0.095
0.08
0.07
0.09
0.125
0.16
0.18
0.185
0.175
0.155
0.17
0.22
0.245
0.265
0.28
0.285
0.305
0.325
0.335
0.34
0.32
0.32
0.32
0.32
0.325
0.355
0.37
0.38
0.375
0.345
0.31
0.28
0.255
0.24
0.225
0.205
0.18
0.175
0.15
0.145
0.13
0.11
0.09
0.075
0.065
0.055
0.05
0.055
0.045
0.08
0.1
0.12
0.145
0.14
0.125
0.115
0.115
0.105
0.11
0.145
0.205
0.3
0.465
0.655
0.875
1.07
1.26
1.435
1.6
1.76
1.88
1.955
1.965
1.92
1.825
1.67
1.435
1.125
0.835
0.575
0.395
0.29
0.235
0.23
0.23
0.24
0.205
0.135
0.06
-0.015
-0.045
-0.065
-0.07
-0.06
-0.075
-0.075
-0.09
-0.085
-0.1
-0.095
-0.1
-0.095
-0.1
-0.1
-0.095
-0.085
-0.085
-0.115
-0.145
-0.135
-0.13
-0.115
-0.105
-0.115
-0.135
-0.135
-0.12
-0.115
-0.095
-0.1
-0.105
-0.13
-0.16
-0.17
-0.195
-0.215
-0.225
-0.215
-0.225
-0.21
-0.22
-0.215
-0.225
-0.245
-0.24
-0.255
-0.275
-0.295
-0.32
-0.345
-0.365
-0.375
-0.36
-0.37
-0.365
-0.365
-0.38
-0.4
-0.405
-0.405
-0.395
-0.375
-0.345
-0.325
-0.305
-0.29
-0.27
-0.245
-0.215
-0.185
-0.175
-0.165
-0.155
-0.14
-0.12
-0.09
-0.035
0.0
0.02
0.055
0.06
0.075
0.065
0.055
0.06
0.05
0.065
0.075
0.1
0.11
0.135
0.16
0.15
0.15
0.155
0.18
0.215
0.25
0.295
0.33
0.36
0.39
0.445
0.53
0.6
0.68
0.765
0.84
0.86
0.855
0.775
0.63
0.375
0.04
-0.35
-0.73
-1.055
-1.32
-1.51
-1.64
-1.765
-1.86
-1.945
-2.025
-2.07
-2.095
-2.045
-1.98
-1.91
-1.83
-1.745
-1.645
-1.535
-1.41
-1.315
-1.215
-1.125
-1.04
-0.94
-0.82
-0.67
-0.545
-0.435
-0.35
-0.3
-0.27
-0.215
-0.13
-0.005
0.17
0.345
0.51
0.6
0.63
0.61
0.575
0.55
0.53
0.52
0.55
0.555
0.565
0.575
0.59
0.575
0.585
0.595
0.6
0.615
0.635
0.65
0.655
0.655
0.67
0.68
0.7
0.73
0.74
0.76
0.78
0.775
0.76
0.755
0.775
0.805
0.845
0.88
0.9
0.895
0.895
0.885
0.895
0.92
0.95
0.98
0.995
1.005
1.015
1.02
1.03
1.035
1.045
1.04
1.035
1.035
1.025
1.02
1.005
0.985
0.965
0.94
0.91
0.89
0.87
0.84
0.79
0.755
0.705
0.665
0.625
0.6
0.59
0.57
0.55
0.535
0.5
0.46
0.41
0.36
0.325
0.295
0.28
0.26
0.24
0.225
0.225
0.22
0.225
0.215
0.215
0.19
0.175
0.145
0.135
0.11
0.105
0.105
0.11
0.12
0.125
0.12
0.125
0.115
0.12
0.11
0.11
0.105
0.105
0.11
0.12
0.135
0.16
0.17
0.18
0.18
0.16
0.135
0.115
0.09
0.065
0.055
0.06
0.06
0.07
0.06
0.035
0.045
0.04
0.035
0.04
0.05
0.055
0.06
0.06
0.025
0.03
0.04
0.035
0.035
0.025
0.015
0.015
0.02
0.035
0.045
0.045
0.035
0.02
0.015
0.035
0.03
0.035
0.045
0.055
0.03
0.04
0.045
0.07
0.07
0.06
0.055
0.04
0.025
0.025
0.005
-0.005
-0.01
-0.02
-0.02
-0.02
-0.02
-0.005
-0.005
-0.03
-0.025
-0.04
-0.06
-0.055
-0.04
-0.015
0.015
0.04
0.06
0.06
0.06
0.06
0.045
0.04
0.035
0.055
0.095
0.13
0.175
0.19
0.195
0.195
0.205
0.23
0.255
0.255
0.255
0.24
0.23
0.23
0.235
0.25
0.25
0.24
0.215
0.21
0.21
0.22
0.215
0.185
0.14
0.1
0.075
0.08
0.065
0.055
0.035
0.005
-0.03
-0.055
-0.07
-0.05
-0.02
0.015
0.035
-0.01
-0.07
-0.095
-0.11
-0.125
-0.125
-0.115
-0.085
-0.065
-0.05
-0.005
0.095
0.26
0.495
0.755
0.995
1.21
1.355
1.47
1.57
1.625
1.675
1.67
1.625
1.505
1.265
1.005
0.72
0.465
0.26
0.12
0.025
-0.015
-0.055
-0.09
-0.125
-0.155
-0.175
-0.18
