Lead II
-0.46
-0.475
-0.475
-0.445
-0.425
-0.435
-0.46
-0.46
-0.465
-0.445
-0.45
-0.49
-0.485
-0.475
-0.47
-0.47
-0.48
-0.495
-0.51
-0.51
-0.505
-0.52
-0.51
-0.515
-0.53
-0.55
-0.56
-0.55
-0.53
-0.555
-0.585
-0.59
-0.615
-0.62
-0.635
-0.595
-0.585
-0.59
-0.63
-0.64
-0.605
-0.595
-0.605
-0.605
-0.605
-0.565
-0.545
-0.555
-0.575
-0.575
-0.55
-0.51
-0.49
-0.52
-0.555
-0.555
-0.52
-0.475
-0.445
-0.475
-0.52
-0.535
-0.47
-0.345
-0.295
-0.37
-0.415
-0.39
-0.315
-0.25
-0.19
-0.155
-0.17
-0.22
-0.235
-0.225
-0.22
-0.215
-0.215
-0.23
-0.23
-0.185
-0.13
-0.125
-0.16
-0.2
-0.2
-0.17
-0.15
-0.145
-0.13
-0.12
-0.11
-0.15
-0.205
-0.245
-0.28
-0.265
-0.295
-0.315
-0.325
-0.285
-0.23
-0.2
-0.185
-0.19
-0.205
-0.23
-0.25
-0.24
-0.21
-0.175
-0.18
-0.2
-0.2
-0.155
-0.12
-0.125
-0.12
-0.145
-0.155
-0.19
-0.175
-0.145
-0.115
-0.1
-0.09
-0.095
-0.085
-0.05
-0.035
-0.025
-0.04
-0.03
-0.065
-0.095
-0.14
-0.145
-0.14
-0.15
-0.145
-0.15
-0.13
-0.12
-0.125
-0.125
-0.12
-0.1
-0.075
-0.075
-0.065
-0.035
-0.01
0.005
0.0
-0.02
-0.03
-0.06
-0.04
0.015
0.04
0.03
-0.01
-0.015
-0.015
-0.03
-0.05
-0.065
-0.09
-0.115
-0.145
-0.135
-0.105
-0.11
-0.12
-0.14
-0.16
-0.155
-0.12
-0.115
-0.125
-0.115
-0.1
-0.105
-0.125
-0.14
-0.17
-0.15
-0.13
-0.075
-0.06
-0.05
-0.075
-0.095
-0.115
-0.115
-0.1
-0.09
-0.09
-0.08
-0.06
-0.06
-0.06
-0.07
-0.08
-0.07
0.005
0.165
0.33
0.465
0.57
0.665
0.78
0.93
1.1
1.27
1.435
1.605
1.78
1.895
1.975
2.005
1.965
1.785
1.415
1.01
0.69
0.51
0.435
0.44
0.48
0.545
0.595
0.56
0.48
0.345
0.175
0.025
-0.07
-0.095
-0.055
-0.01
-0.015
-0.05
-0.125
-0.19
-0.265
-0.29
-0.275
-0.25
-0.24
-0.23
-0.24
-0.265
-0.27
-0.245
-0.225
-0.24
-0.26
-0.27
-0.29
-0.305
-0.31
-0.31
-0.29
-0.265
-0.225
-0.225
-0.235
-0.29
-0.325
-0.33
-0.28
-0.21
-0.215
-0.27
-0.325
-0.38
-0.42
-0.4
-0.385
-0.375
-0.375
-0.365
-0.355
-0.33
-0.33
-0.36
-0.415
-0.465
-0.5
-0.48
-0.475
-0.465
-0.485
-0.485
-0.48
-0.48
-0.47
-0.475
-0.47
-0.465
-0.465
-0.46
-0.45
-0.45
-0.465
-0.45
-0.415
-0.39
-0.355
-0.345
-0.33
-0.305
-0.25
-0.205
-0.165
-0.155
-0.165
-0.195
-0.195
-0.19
-0.16
-0.125
-0.12
-0.105
-0.085
-0.055
-0.035
-0.02
-0.055
-0.075
-0.085
-0.095
-0.1
-0.095
-0.105
-0.09
-0.085
-0.075
-0.1
-0.13
-0.13
-0.135
-0.12
-0.08
-0.085
-0.11
-0.135
-0.14
-0.095
-0.08
-0.065
-0.085
-0.11
-0.13
-0.11
-0.095
-0.075
-0.08
-0.1
-0.115
-0.11
-0.11
-0.11
-0.11
-0.115
-0.125
-0.12
-0.12
-0.12
-0.12
-0.13
-0.135
-0.115
-0.1
-0.085
-0.09
-0.11
-0.12
-0.095
-0.07
-0.05
-0.085
-0.09
-0.125
-0.115
-0.095
-0.075
-0.08
-0.085
-0.09
-0.085
-0.06
-0.065
-0.075
-0.07
-0.08
-0.07
-0.05
-0.055
-0.055
-0.07
-0.08
-0.06
-0.02
-0.01
-0.005
-0.015
-0.03
-0.015
-0.005
-0.015
-0.005
-0.005
0.0
0.01
0.03
0.035
0.02
0.005
-0.005
-0.005
0.005
-0.005
-0.005
-0.02
-0.035
-0.035
-0.02
-0.01
-0.02
-0.035
-0.07
-0.08
-0.075
-0.07
-0.065
-0.08
-0.085
-0.075
-0.065
-0.05
-0.06
-0.09
-0.115
-0.1
-0.07
-0.07
-0.08
-0.085
-0.1
-0.1
-0.075
-0.065
-0.065
-0.08
-0.1
-0.09
-0.075
-0.05
-0.06
-0.07
-0.08
-0.07
-0.04
0.02
0.1
0.17
0.275
0.365
0.47
0.57
0.675
0.8
0.99
1.21
1.43
1.64
1.795
1.91
1.96
2.0
2.005
1.935
1.755
1.465
1.11
0.815
0.62
0.52
0.44
0.375
0.33
0.31
0.315
0.305
0.245
0.2
0.135
0.1
0.085
0.055
0.035
-0.015
-0.07
-0.1
-0.12
-0.125
-0.145
-0.155
-0.18
-0.195
-0.21
-0.225
-0.23
-0.24
-0.255
-0.25
-0.235
-0.24
-0.26
-0.285
-0.29
-0.28
-0.27
-0.26
-0.26
-0.275
-0.3
-0.32
-0.31
-0.305
-0.31
-0.31
-0.315
-0.32
-0.31
-0.305
-0.325
-0.35
-0.35
-0.335
-0.34
-0.35
-0.36
-0.375
-0.385
-0.38
-0.37
-0.35
-0.365
-0.375
-0.39
-0.405
-0.41
-0.4
-0.395
-0.42
-0.43
-0.43
-0.42
-0.42
-0.435
-0.46
-0.475
-0.475
-0.45
-0.44
-0.45
-0.465
-0.475
-0.45
-0.425
-0.42
-0.405
-0.405
-0.42
-0.405
-0.375
-0.335
-0.315
-0.295
-0.3
-0.275
-0.245
-0.225
-0.19
-0.175
-0.18
-0.15
-0.14
-0.12
-0.125
-0.125
-0.115
-0.095
-0.105
-0.095
-0.1
-0.115
-0.12
-0.11
-0.09
-0.095
-0.105
-0.13
-0.165
-0.145
-0.12
-0.095
-0.09
-0.115
-0.14
-0.14
-0.13
-0.105
-0.11
-0.115
-0.145
-0.15
-0.145
-0.135
-0.14
-0.145
-0.155
-0.155
-0.145
-0.165
-0.15
-0.165
-0.18
-0.16
-0.15
-0.14
-0.155
-0.17
-0.185
-0.165
-0.145
-0.14
-0.16
-0.185
-0.185
-0.18
-0.155
-0.14
-0.155
-0.165
-0.18
-0.175
-0.155
-0.14
-0.135
-0.155
-0.18
-0.17
-0.155
-0.135
-0.14
-0.165
-0.16
-0.17
-0.16
-0.145
-0.14
-0.115
-0.095
-0.09
-0.095
-0.08
-0.08
-0.09
-0.08
-0.08
-0.07
-0.07
-0.075
-0.07
-0.07
-0.07
-0.06
-0.065
-0.085
-0.1
-0.12
-0.105
-0.1
-0.1
-0.105
-0.115
-0.135
-0.135
-0.135
-0.125
-0.145
-0.18
-0.19
-0.175
-0.165
-0.16
-0.175
-0.175
-0.18
-0.185
-0.185
-0.185
-0.19
-0.2
-0.21
-0.215
-0.19
-0.16
-0.165
-0.185
-0.195
-0.18
-0.175
-0.145
-0.14
-0.15
-0.17
-0.155
-0.145
-0.135
-0.095
-0.005
0.09
0.19
0.275
0.36
0.405
0.47
0.585
0.775
0.96
1.11
1.24
1.385
1.54
1.715
1.845
1.88
1.815
1.62
1.305
0.97
0.72
0.55
0.44
0.34
0.29
0.27
0.285
0.275
0.195
0.13
0.07
0.05
0.04
0.035
-0.01
-0.04
-0.08
-0.11
-0.145
-0.155
-0.195
-0.22
-0.26
-0.3
-0.31
-0.345
-0.385
-0.42
-0.43
-0.43
-0.43
-0.42
-0.425
-0.435
-0.455
-0.435
-0.44
-0.435
-0.455
-0.475
-0.48
-0.47
-0.48
-0.47
-0.48
-0.485
-0.495
-0.5
-0.5
-0.495
-0.515
-0.525
-0.53
-0.535
-0.535
-0.505
-0.53
-0.55
-0.55
-0.555
-0.555
-0.545
-0.555
-0.56
-0.575
-0.585
-0.59
-0.57
-0.585
-0.59
-0.615
-0.63
-0.62
-0.62
-0.61
-0.635
-0.66
-0.63
-0.615
-0.62
-0.62
-0.655
-0.685
-0.71
-0.685
-0.64
-0.61
-0.625
-0.64
-0.625
-0.62
-0.6
-0.595
-0.58
-0.58
-0.565
-0.54
-0.5
-0.495
-0.47
-0.445
-0.405
-0.365
-0.36
-0.355
-0.335
-0.315
-0.31
-0.295
-0.28
-0.26
-0.265
-0.265
-0.27
-0.265
-0.24
-0.235
-0.25
-0.255
-0.255
-0.25
-0.245
-0.255
-0.245
-0.245
-0.24
-0.26
-0.275
-0.265
-0.265
-0.26
-0.25
-0.265
-0.265
-0.28
-0.29
-0.3
-0.27
-0.26
-0.245
-0.25
-0.265
-0.26
-0.265
-0.27
-0.26
-0.265
-0.295
-0.33
-0.315
-0.31
-0.305
-0.305
-0.31
-0.325
-0.325
-0.3
-0.28
-0.305
-0.315
-0.32
-0.32
-0.28
-0.27
-0.26
-0.29
-0.31
-0.315
-0.295
-0.265
-0.255
-0.26
-0.295
-0.29
-0.285
-0.275
-0.275
-0.3
-0.29
-0.275
-0.265
-0.255
-0.275
-0.29
-0.28
-0.255
-0.235
-0.215
-0.22
-0.24
-0.235
-0.215
-0.195
-0.18
-0.195
-0.2
-0.225
-0.22
-0.21
-0.205
-0.21
-0.21
-0.205
-0.2
-0.175
-0.165
-0.2
-0.2
-0.21
-0.22
-0.22
-0.22
-0.23
-0.245
-0.255
-0.26
-0.25
-0.26
-0.265
-0.275
-0.275
-0.29
-0.27
-0.27
-0.27
-0.275
-0.295
-0.31
-0.27
-0.26
-0.285
-0.285
-0.29
-0.28
-0.255
-0.25
-0.255
-0.27
-0.29
-0.275
-0.265
-0.255
-0.26
-0.25
-0.26
-0.24
-0.225
-0.225
-0.235
-0.165
-0.085
0.045
0.16
0.24
0.28
0.36
0.455
0.59
0.76
0.965
1.185
1.38
1.565
1.775
1.925
1.96
1.925
1.81
1.6
1.355
1.08
0.795
0.495
0.265
0.095
0.025
0.015
0.03
0.045
0.01
-0.01
-0.055
-0.08
-0.09
-0.115
-0.145
-0.16
-0.16
-0.16
-0.155
-0.205
-0.22
-0.255
-0.27
-0.29
-0.285
-0.31
-0.34
-0.355
-0.375
-0.375
-0.375
-0.395
-0.395
-0.395
-0.395
-0.375
-0.38
-0.395
-0.415
-0.425
-0.425
-0.4
-0.39
-0.395
-0.415
-0.425
-0.425
-0.42
-0.4
-0.405
-0.41
-0.42
-0.42
-0.405
-0.4
-0.41
-0.425
-0.435
-0.43
-0.42
-0.4
-0.41
-0.425
-0.435
-0.43
-0.425
-0.42
-0.43
-0.44
-0.43
-0.44
-0.435
-0.44
-0.44
-0.455
-0.47
-0.47
-0.445
-0.445
-0.47
-0.47
-0.495
-0.49
-0.48
-0.45
-0.465
-0.485
-0.5
-0.5
-0.48
-0.47
-0.46
-0.47
-0.475
-0.47
-0.44
-0.44
-0.45
-0.435
-0.44
-0.44
-0.385
-0.365
-0.355
-0.36
-0.355
-0.33
-0.3
-0.25
-0.25
-0.25
-0.245
-0.225
-0.2
-0.18
-0.185
-0.195
-0.18
-0.18
-0.15
-0.145
-0.16
-0.19
-0.185
-0.17
-0.16
-0.135
-0.165
-0.18
-0.2
-0.2
-0.18
-0.165
-0.17
-0.17
-0.18
-0.205
-0.195
-0.19
-0.185
-0.205
-0.2
-0.205
-0.2
-0.2
-0.225
-0.23
-0.23
-0.205
-0.2
-0.185
-0.19
-0.2
-0.205
-0.2
-0.18
-0.165
-0.18
-0.195
-0.22
-0.215
-0.195
-0.165
-0.165
-0.185
-0.19
-0.185
-0.175
-0.16
-0.145
-0.155
-0.16
-0.175
-0.16
-0.155
-0.15
-0.16
-0.17
-0.155
-0.14
-0.145
-0.16
-0.165
-0.175
-0.17
-0.16
-0.125
-0.135
-0.17
-0.18
-0.165
-0.15
-0.115
-0.11
-0.11
-0.13
-0.125
-0.105
-0.09
-0.09
-0.1
-0.1
-0.095
-0.09
-0.095
-0.09
-0.085
-0.1
-0.075
-0.08
-0.085
-0.1
-0.13
-0.13
-0.13
-0.1
-0.095
-0.115
-0.14
-0.155
-0.16
-0.14
-0.145
-0.165
-0.175
-0.205
-0.2
-0.21
-0.185
-0.19
-0.19
-0.195
-0.195
-0.19
-0.185
-0.21
-0.215
-0.215
-0.21
-0.195
-0.17
-0.18
-0.18
-0.215
-0.205
-0.19
-0.195
-0.19
-0.185
-0.185
-0.18
-0.17
-0.165
-0.155
-0.13
-0.065
0.04
0.15
0.215
0.245
0.29
0.315
0.38
0.495
0.635
0.78
0.96
1.135
1.335
1.525
1.7
1.805
1.84
1.8
1.675
1.435
1.13
0.83
0.585
0.445
0.375
0.325
0.265
0.21
0.165
0.15
0.125
0.11
0.08
0.04
-0.02
-0.05
-0.065
-0.09
-0.08
-0.13
-0.135
-0.18
-0.185
-0.185
-0.19
-0.21
-0.24
-0.25
-0.265
-0.265
-0.285
-0.295
-0.315
-0.325
-0.325
-0.325
-0.335
-0.345
-0.355
-0.365
-0.355
-0.345
-0.335
-0.345
-0.37
-0.39
-0.4
-0.4
-0.385
-0.37
-0.37
-0.37
-0.36
-0.35
-0.37
-0.385
-0.415
-0.43
-0.41
-0.39
-0.39
-0.4
-0.43
-0.44
-0.435
-0.42
-0.425
-0.435
-0.445
-0.455
-0.455
-0.45
-0.445
-0.465
-0.465
-0.47
-0.47
-0.46
-0.455
-0.475
-0.49
-0.52
-0.515
-0.505
-0.495
-0.515
-0.525
-0.545
-0.54
-0.52
-0.515
-0.51
-0.53
-0.54
-0.515
-0.505
-0.49
-0.49
-0.49
-0.505
-0.47
-0.435
-0.395
-0.39
-0.39
-0.4
-0.37
-0.325
-0.295
-0.275
-0.27
-0.275
-0.265
-0.23
-0.22
-0.21
-0.22
-0.195
-0.165
-0.14
-0.12
-0.13
-0.145
-0.165
-0.135
-0.12
-0.1
-0.115
-0.135
-0.13
-0.115
-0.1
-0.11
-0.115
-0.125
-0.14
-0.135
-0.115
-0.11
-0.11
-0.135
-0.14
-0.14
-0.125
-0.115
-0.12
-0.125
-0.125
-0.13
-0.14
-0.12
-0.13
-0.135
-0.14
-0.145
-0.125
-0.105
-0.125
-0.145
-0.155
-0.125
-0.11
-0.09
-0.115
-0.135
-0.15
-0.145
-0.125
-0.105
-0.105
-0.12
-0.135
-0.13
-0.11
-0.13
-0.115
-0.14
-0.135
-0.13
-0.1
-0.09
-0.1
-0.13
-0.14
-0.12
-0.105
-0.08
-0.085
-0.095
-0.11
-0.12
-0.1
-0.085
-0.08
-0.095
-0.115
-0.11
-0.105
-0.07
-0.08
-0.08
-0.075
-0.035
-0.02
-0.01
-0.025
-0.035
-0.045
-0.05
-0.025
-0.03
-0.025
-0.035
-0.035
-0.035
-0.02
-0.01
-0.02
-0.045
-0.055
-0.055
-0.055
-0.04
-0.045
-0.07
-0.105
-0.105
-0.07
-0.065
-0.085
-0.105
-0.125
-0.13
-0.135
-0.135
-0.135
-0.145
-0.16
-0.165
-0.145
-0.13
-0.145
-0.165
-0.17
-0.175
-0.16
-0.14
-0.16
-0.17
-0.18
-0.165
-0.15
-0.135
-0.14
-0.13
-0.16
-0.16
-0.15
-0.14
-0.13
-0.145
-0.145
-0.135
-0.12
-0.075
-0.03
0.015
0.085
0.175
0.255
0.335
0.41
0.47
0.585
0.745
0.95
1.165
1.365
1.575
1.74
1.86
1.92
1.945
1.925
1.86
1.765
1.59
1.33
1.01
0.72
0.52
0.405
0.335
0.285
0.26
0.26
0.225
0.19
0.145
0.115
0.085
0.03
-0.025
-0.04
-0.035
-0.04
-0.055
-0.095
-0.14
-0.185
-0.21
-0.225
-0.22
-0.235
-0.285
-0.305
-0.315
-0.33
-0.325
-0.315
-0.315
-0.345
-0.355
-0.33
-0.34
-0.34
-0.355
-0.385
-0.36
-0.345
-0.34
-0.36
-0.375
-0.385
-0.395
-0.375
-0.365
-0.365
-0.38
-0.385
-0.385
-0.38
-0.375
-0.39
-0.42
-0.415
-0.42
-0.42
-0.395
-0.395
-0.41
-0.43
-0.435
-0.435
-0.43
-0.455
-0.44
-0.455
-0.465
-0.465
-0.44
-0.465
-0.48
-0.495
-0.49
-0.49
-0.47
-0.48
-0.495
-0.515
-0.52
-0.52
-0.5
-0.5
-0.51
-0.52
-0.52
-0.515
-0.52
-0.515
-0.53
-0.525
-0.495
-0.48
-0.465
-0.465
-0.455
-0.47
-0.46
-0.425
-0.39
-0.375
-0.37
-0.355
-0.33
-0.305
-0.295
-0.27
-0.265
-0.265
-0.245
-0.215
-0.185
-0.18
-0.18
-0.195
-0.195
-0.16
-0.13
-0.125
-0.15
-0.165
-0.145
-0.135
-0.135
-0.14
-0.16
-0.16
-0.16
-0.13
-0.125
-0.135
-0.15
-0.165
-0.165
-0.16
-0.14
-0.135
-0.15
-0.165
-0.155
-0.16
-0.15
-0.165
-0.175
-0.18
-0.17
-0.15
-0.155
-0.17
-0.18
-0.2
-0.195
-0.185
-0.165
-0.155
-0.18
-0.19
-0.195
-0.19
-0.165
-0.175
-0.18
-0.185
-0.165
-0.18
-0.165
-0.16
-0.18
-0.195
-0.185
-0.175
-0.145
-0.16
-0.17
-0.19
-0.185
-0.17
-0.155
-0.16
-0.17
-0.17
-0.155
-0.14
-0.14
-0.16
-0.17
-0.175
-0.17
-0.145
-0.135
-0.145
-0.16
-0.18
-0.17
-0.155
-0.14
-0.13
-0.13
-0.12
-0.125
-0.105
-0.08
-0.07
-0.08
-0.085
-0.075
-0.085
-0.065
-0.075
-0.1
-0.1
-0.09
-0.07
-0.045
-0.04
-0.06
-0.075
-0.115
-0.11
-0.08
-0.095
-0.1
-0.105
-0.105
-0.135
-0.135
-0.14
-0.15
-0.16
-0.155
-0.13
-0.14
-0.17
-0.205
-0.215
-0.21
-0.185
-0.15
-0.17
-0.19
-0.2
-0.215
-0.205
-0.185
-0.18
-0.19
-0.2
-0.205
-0.19
-0.18
-0.205
-0.195
-0.195
-0.205
-0.175
-0.17
-0.18
-0.185
-0.175
-0.125
-0.015
0.095
0.16
0.195
0.215
0.285
0.385
0.51
0.625
0.815
1.03
1.245
1.505
1.725
1.815
1.81
1.705
1.495
1.22
0.955
0.705
0.555
0.445
0.365
0.31
0.295
0.27
0.23
0.21
0.18
0.135
0.085
0.035
-0.02
-0.055
-0.065
-0.07
-0.085
-0.11
-0.16
-0.2
-0.24
-0.245
-0.26
-0.29
-0.31
-0.335
-0.355
-0.355
-0.34
-0.355
-0.365
-0.37
-0.365
-0.37
-0.35
-0.38
-0.385
-0.41
-0.42
-0.39
-0.38
-0.395
-0.41
-0.44
-0.435
-0.405
-0.41
-0.385
-0.415
-0.425
-0.43
-0.425
-0.43
-0.435
-0.455
-0.455
-0.455
-0.45
-0.45
-0.475
-0.475
-0.495
-0.49
-0.475
-0.465
-0.485
-0.5
-0.52
-0.52
-0.515
-0.51
-0.51
-0.525
-0.555
-0.55
-0.55
-0.53
-0.53
-0.545
-0.535
-0.52
-0.505
-0.505
-0.505
-0.505
-0.505
-0.485
-0.48
-0.44
-0.44
-0.43
-0.42
-0.39
-0.345
-0.31
-0.3
-0.305
-0.295
-0.28
-0.245
-0.215
-0.2
-0.2
-0.205
-0.195
-0.18
-0.175
-0.165
-0.19
-0.185
-0.195
-0.2
-0.175
-0.18
-0.195
-0.205
-0.18
-0.17
-0.165
-0.175
-0.205
-0.21
-0.215
-0.185
-0.18
-0.19
-0.21
-0.225
-0.215
-0.2
-0.185
-0.195
-0.2
-0.215
-0.225
-0.205
-0.2
-0.2
-0.22
-0.21
-0.205
-0.2
-0.19
-0.21
-0.21
-0.215
-0.21
-0.195
-0.175
-0.175
-0.21
-0.21
-0.205
-0.195
-0.175
-0.17
-0.195
-0.21
-0.205
-0.19
-0.17
-0.15
-0.155
-0.17
-0.175
-0.19
-0.18
-0.175
-0.175
-0.175
-0.185
-0.19
-0.17
-0.17
-0.16
-0.16
-0.15
-0.125
-0.09
-0.1
-0.11
-0.12
-0.115
-0.08
-0.075
-0.085
-0.1
-0.115
-0.11
-0.085
-0.07
-0.085
-0.095
-0.11
-0.125
-0.125
-0.125
-0.12
-0.125
-0.145
-0.14
-0.145
-0.14
-0.165
-0.175
-0.21
-0.205
-0.2
-0.18
-0.22
-0.225
-0.23
-0.225
-0.19
-0.18
-0.19
-0.22
-0.25
-0.25
-0.225
-0.195
-0.2
-0.205
-0.215
-0.22
-0.21
-0.2
-0.2
-0.195
-0.205
-0.215
-0.19
-0.175
-0.16
-0.115
-0.03
0.095
0.205
0.265
0.32
0.365
0.465
0.625
0.855
1.09
1.335
1.54
1.705
1.77
1.77
1.645
1.385
1.065
0.775
0.585
0.48
0.415
0.355
0.3
0.265
0.25
0.225
0.205
0.15
0.095
0.02
-0.02
-0.035
-0.05
-0.08
-0.125
-0.155
-0.205
-0.22
-0.24
-0.285
-0.325
-0.345
-0.35
-0.34
-0.35
-0.36
-0.385
-0.4
-0.405
-0.39
-0.39
-0.38
-0.39
-0.415
-0.425
-0.415
-0.42
-0.42
-0.43
-0.425
-0.45
-0.44
-0.43
-0.43
-0.445
-0.465
-0.47
-0.465
-0.47
-0.47
-0.49
-0.5
-0.505
-0.495
-0.49
-0.51
-0.515
-0.535
-0.54
-0.53
-0.53
-0.545
-0.545
-0.555
-0.56
-0.555
-0.54
-0.565
-0.575
-0.6
-0.585
-0.575
-0.555
-0.555
-0.58
-0.58
-0.56
-0.525
-0.495
-0.485
-0.475
-0.47
-0.45
-0.41
-0.36
-0.335
-0.31
-0.32
-0.285
-0.26
-0.235
-0.23
-0.23
-0.22
-0.2
-0.185
-0.175
-0.18
-0.185
-0.185
-0.185
-0.16
-0.16
-0.165
-0.195
-0.195
-0.205
-0.175
-0.165
-0.165
-0.19
-0.21
-0.21
-0.2
-0.18
-0.185
-0.2
-0.21
-0.22
-0.205
-0.185
-0.18
-0.2
-0.195
-0.2
-0.2
-0.2
-0.2
-0.21
-0.21
-0.185
-0.18
-0.18
-0.195
-0.225
-0.21
-0.185
-0.175
-0.16
-0.175
-0.19
-0.205
-0.205
-0.18
-0.165
-0.15
-0.185
-0.2
-0.195
-0.185
-0.16
-0.165
-0.18
-0.18
-0.195
-0.175
-0.18
-0.18
-0.19
-0.185
-0.18
-0.165
-0.135
-0.12
-0.125
-0.115
-0.115
-0.09
-0.075
-0.09
-0.11
-0.12
-0.095
-0.085
-0.055
-0.075
-0.08
-0.095
-0.11
-0.11
-0.095
-0.09
-0.1
-0.12
-0.125
-0.125
-0.125
-0.125
-0.15
-0.15
-0.175
-0.185
-0.185
-0.205
-0.2
-0.2
-0.18
-0.175
-0.185
-0.195
-0.21
-0.23
-0.235
-0.215
-0.2
-0.21
-0.21
-0.21
-0.215
-0.205
-0.185
-0.18
-0.195
-0.205
-0.2
-0.185
-0.165
-0.145
-0.12
-0.07
0.04
0.135
0.24
0.315
0.38
0.435
0.51
0.595
0.755
0.935
1.165
1.38
1.585
1.705
1.73
1.64
1.42
1.12
0.825
0.605
0.475
0.395
0.315
0.265
0.255
0.275
0.29
0.27
0.215
0.14
0.075
0.035
0.015
-0.005
-0.035
-0.08
-0.125
-0.145
-0.155
-0.185
-0.235
-0.27
-0.29
-0.3
-0.315
-0.325
-0.355
-0.395
-0.385
-0.37
-0.35
-0.36
-0.385
-0.4
-0.41
-0.4
-0.385
-0.395
-0.405
-0.415
-0.425
-0.425
-0.425
-0.425
-0.435
-0.455
-0.46
-0.455
-0.43
-0.445
-0.465
-0.48
-0.48
-0.455
-0.44
-0.465
-0.495
-0.51
-0.515
-0.505
-0.49
-0.495
-0.53
-0.53
-0.55
-0.545
-0.53
-0.545
-0.56
-0.565
-0.585
-0.565
-0.56
-0.57
-0.59
-0.615
-0.595
-0.585
-0.565
-0.56
-0.6
-0.6
-0.58
-0.585
-0.545
-0.53
-0.52
-0.51
-0.49
-0.465
-0.43
-0.4
-0.375
-0.37
-0.36
-0.345
-0.31
-0.3
-0.285
-0.285
-0.25
-0.22
-0.205
-0.195
-0.205
-0.22
-0.19
-0.165
-0.165
-0.165
-0.175
-0.19
-0.175
-0.16
-0.145
-0.15
-0.17
-0.2
-0.2
-0.19
-0.18
-0.175
-0.18
-0.205
-0.21
-0.2
-0.185
-0.195
-0.2
-0.21
-0.195
-0.175
-0.185
-0.185
-0.2
-0.21
-0.205
-0.185
-0.175
-0.19
-0.195
-0.225
-0.215
-0.2
-0.19
-0.18
-0.175
-0.2
-0.19
-0.185
-0.175
-0.165
-0.175
-0.185
-0.18
-0.175
-0.165
-0.17
-0.19
-0.185
-0.165
-0.16
-0.155
-0.165
-0.18
-0.19
-0.18
-0.18
-0.155
-0.16
-0.17
-0.17
-0.175
-0.15
-0.135
-0.11
-0.115
-0.105
-0.105
-0.09
-0.085
-0.08
-0.105
-0.105
-0.1
-0.08
-0.08
-0.075
-0.085
-0.095
-0.09
-0.085
-0.1
-0.1
-0.11
-0.135
-0.13
-0.115
-0.105
-0.095
-0.12
-0.14
-0.145
-0.16
-0.15
-0.165
-0.185
-0.205
-0.2
-0.19
-0.175
-0.175
-0.2
-0.2
-0.18
-0.17
-0.175
-0.19
-0.21
-0.22
-0.21
-0.195
-0.19
-0.18
-0.205
-0.21
-0.21
-0.2
-0.195
-0.19
-0.205
-0.225
-0.21
-0.17
-0.155
-0.17
-0.17
-0.135
-0.065
0.065
0.155
0.235
0.3
0.355
0.445
0.55
0.67
0.81
0.93
1.025
1.13
1.275
1.47
1.635
1.72
1.715
1.62
1.44
1.165
0.85
0.605
0.44
0.355
0.325
0.32
0.315
0.32
0.29
0.265
0.245
0.22
0.175
0.12
0.055
0.015
-0.005
-0.03
-0.075
-0.13
-0.185
-0.23
-0.255
-0.27
-0.31
-0.34
-0.345
-0.335
-0.355
-0.35
-0.375
-0.39
-0.41
-0.435
-0.43
-0.42
-0.45
-0.46
-0.445
-0.435
-0.42
-0.415
-0.435
-0.45
-0.475
-0.48
-0.465
-0.46
-0.475
-0.485
-0.485
-0.5
-0.495
-0.47
-0.475
-0.49
-0.52
-0.5
-0.52
-0.515
-0.55
-0.545
-0.565
-0.55
-0.54
-0.53
-0.525
-0.545
-0.55
-0.555
-0.57
-0.57
-0.57
-0.58
-0.59
-0.58
-0.57
-0.595
-0.61
-0.64
-0.64
-0.625
-0.605
-0.59
-0.59
-0.615
-0.63
-0.63
-0.6
-0.585
-0.565
-0.58
-0.585
-0.57
-0.555
-0.525
-0.535
-0.525
-0.52
-0.49
-0.475
-0.455
-0.44
-0.42
-0.4
-0.36
-0.335
-0.295
-0.295
-0.315
-0.305
-0.3
-0.25
-0.225
-0.215
-0.225
-0.24
-0.245
-0.215
-0.205
-0.23
-0.225
-0.23
-0.23
-0.225
-0.205
-0.225
-0.235
-0.245
-0.245
-0.22
-0.215
-0.21
-0.24
-0.235
-0.225
-0.195
-0.185
-0.2
-0.215
-0.215
-0.225
-0.235
-0.245
-0.26
-0.26
-0.265
-0.255
-0.245
-0.235
-0.25
-0.255
-0.26
-0.25
-0.24
-0.225
-0.21
-0.235
-0.255
-0.265
-0.245
-0.23
-0.23
-0.23
-0.27
-0.255
-0.225
-0.21
-0.215
-0.205
-0.22
-0.23
-0.245
-0.24
-0.235
-0.25
-0.225
-0.24
-0.225
-0.21
-0.19
-0.18
-0.17
-0.15
-0.12
-0.115
-0.125
-0.15
-0.16
-0.17
-0.155
-0.12
-0.12
-0.13
-0.15
-0.165
-0.16
-0.145
-0.135
-0.135
-0.16
-0.175
-0.185
-0.195
-0.19
-0.21
-0.21
-0.205
-0.19
-0.18
-0.2
-0.225
-0.245
-0.235
-0.22
-0.22
-0.245
-0.26
-0.27
-0.245
-0.22
-0.205
-0.22
-0.235
-0.27
-0.275
-0.275
-0.235
-0.23
-0.25
-0.265
-0.265
-0.25
-0.23
-0.225
-0.235
-0.225
-0.22
-0.195
-0.17
-0.145
-0.065
0.065
0.185
0.285
0.38
0.495
0.61
0.75
0.92
1.145
1.385
1.57
1.685
1.73
1.735
1.72
1.645
1.435
1.12
0.77
0.51
0.36
0.285
0.25
0.22
0.235
0.24
0.21
0.175
0.12
0.08
0.03
0.025
0.02
0.02
-0.02
-0.09
-0.14
-0.19
-0.225
-0.24
-0.27
-0.325
-0.355
-0.38
-0.395
-0.38
-0.385
-0.39
-0.385
-0.4
-0.405
-0.415
-0.44
-0.455
-0.455
-0.46
-0.435
-0.415
-0.44
-0.455
-0.465
-0.47
-0.45
-0.435
-0.425
-0.43
-0.46
-0.465
-0.47
-0.465
-0.48
-0.485
-0.49
-0.5
-0.485
-0.475
-0.485
-0.515
-0.535
-0.535
-0.53
-0.525
-0.55
-0.56
-0.56
-0.565
-0.565
-0.555
-0.555
-0.57
-0.595
-0.61
-0.61
-0.605
-0.61
-0.625
-0.63
-0.62
-0.605
-0.59
-0.595
-0.625
-0.62
-0.62
-0.585
-0.565
-0.575
-0.585
-0.595
-0.595
-0.585
-0.555
-0.545
-0.52
-0.505
-0.49
-0.45
-0.435
-0.42
-0.435
-0.415
-0.385
-0.36
-0.32
-0.3
-0.27
-0.285
-0.27
-0.255
-0.225
-0.215
-0.2
-0.21
-0.185
-0.175
-0.17
-0.205
-0.225
-0.23
-0.22
-0.205
-0.195
-0.21
-0.225
-0.25
-0.255
-0.23
-0.21
-0.195
-0.21
-0.225
-0.235
-0.235
-0.21
-0.2
-0.205
-0.23
-0.235
-0.215
-0.195
-0.195
-0.205
-0.22
-0.225
-0.215
-0.215
-0.21
-0.22
-0.23
-0.23
-0.21
-0.205
-0.225
-0.23
-0.23
-0.215
-0.21
-0.2
-0.205
-0.225
-0.235
-0.225
-0.21
-0.205
-0.21
-0.22
-0.245
-0.24
-0.225
-0.195
-0.205
-0.21
-0.22
-0.225
-0.225
-0.21
-0.215
-0.21
-0.22
-0.195
-0.175
-0.155
-0.15
-0.17
-0.17
-0.17
-0.16
-0.155
-0.15
-0.15
-0.16
-0.16
-0.155
-0.145
-0.135
-0.15
-0.15
-0.165
-0.155
-0.155
-0.155
-0.15
-0.155
-0.17
-0.175
-0.165
-0.175
-0.18
-0.195
-0.195
-0.19
-0.185
-0.21
-0.24
-0.255
-0.25
-0.235
-0.22
-0.205
-0.22
-0.255
-0.27
-0.26
-0.23
-0.225
-0.22
-0.24
-0.25
-0.255
-0.255
-0.255
-0.27
-0.255
-0.25
-0.235
-0.23
-0.215
-0.24
-0.235
-0.225
-0.19
-0.13
-0.055
0.005
0.1
0.205
0.32
0.435
0.55
0.685
0.855
1.065
1.335
1.575
1.74
1.81
1.78
1.71
1.59
1.41
1.135
0.785
0.495
0.31
0.245
0.235
0.23
0.23
0.205
0.18
0.15
0.105
0.05
0.01
-0.025
-0.045
-0.05
-0.055
-0.115
-0.17
-0.22
-0.265
-0.29
-0.32
-0.335
-0.37
-0.375
-0.385
-0.405
-0.405
-0.42
-0.445
-0.44
-0.43
-0.415
-0.405
-0.425
-0.43
-0.45
-0.45
-0.43
-0.43
-0.435
-0.46
-0.465
-0.47
-0.465
-0.435
-0.455
-0.485
-0.505
-0.495
-0.475
-0.48
-0.485
-0.495
-0.51
-0.51
-0.495
-0.505
-0.515
-0.53
-0.54
-0.525
-0.53
-0.525
-0.54
-0.555
-0.575
-0.565
-0.55
-0.545
-0.565
-0.585
-0.59
-0.585
-0.57
-0.565
-0.585
-0.605
-0.615
-0.61
-0.595
-0.565
-0.53
-0.535
-0.535
-0.535
-0.53
-0.5
-0.485
-0.47
-0.46
-0.43
-0.4
-0.375
-0.365
-0.355
-0.355
-0.325
-0.3
-0.265
-0.245
-0.24
-0.24
-0.235
-0.22
-0.2
-0.185
-0.185
-0.18
-0.175
-0.165
-0.17
-0.175
-0.19
-0.215
-0.21
-0.2
-0.17
-0.165
-0.18
-0.205
-0.215
-0.205
-0.2
-0.215
-0.205
-0.21
-0.195
-0.185
-0.185
-0.2
-0.22
-0.245
-0.25
-0.225
-0.205
-0.19
-0.205
-0.215
-0.225
-0.205
-0.21
-0.22
-0.235
-0.24
-0.235
-0.235
-0.205
-0.19
-0.195
-0.205
-0.205
-0.19
-0.185
-0.195
-0.2
-0.22
-0.225
-0.22
-0.205
-0.215
-0.22
-0.23
-0.225
-0.215
-0.205
-0.2
-0.205
-0.21
-0.21
-0.21
-0.2
-0.215
-0.23
-0.235
-0.225
-0.205
-0.18
-0.17
-0.165
-0.19
-0.19
-0.17
-0.16
-0.155
-0.16
-0.155
-0.16
-0.15
-0.125
-0.115
-0.135
-0.145
-0.155
-0.15
-0.13
-0.135
-0.155
-0.17
-0.185
-0.17
-0.17
-0.175
-0.17
-0.19
-0.165
-0.16
-0.165
-0.18
-0.21
-0.25
-0.26
-0.26
-0.245
-0.24
-0.245
-0.245
-0.23
-0.225
-0.21
-0.23
-0.255
-0.265
-0.27
-0.28
-0.26
-0.24
-0.25
-0.25
-0.25
-0.255
-0.24
-0.235
-0.245
-0.25
-0.23
-0.215
-0.205
-0.215
-0.195
-0.13
-0.02
0.11
0.225
0.285
0.34
0.415
0.54
0.7
0.89
1.055
1.245
1.46
1.65
1.775
1.765
1.635
1.425
1.195
0.965
0.72
0.505
0.28
0.095
0.005
-0.015
0.035
0.07
0.075
0.04
0.005
-0.035
-0.04
-0.02
-0.03
-0.04
-0.075
-0.115
-0.14
-0.175
-0.21
-0.245
-0.29
-0.34
-0.33
-0.335
-0.365
-0.405
-0.425
-0.435
-0.435
-0.405
-0.425
-0.425
-0.445
-0.445
-0.44
-0.415
-0.43
-0.44
-0.46
-0.475
-0.455
-0.44
-0.435
-0.455
-0.46
-0.48
-0.465
-0.45
-0.46
-0.47
-0.465
-0.465
-0.47
-0.48
-0.485
-0.515
-0.53
-0.525
-0.515
-0.5
-0.51
-0.525
-0.56
-0.565
-0.555
-0.54
-0.565
-0.575
-0.57
-0.575
-0.575
-0.58
-0.595
-0.615
-0.64
-0.635
-0.62
-0.605
-0.615
-0.635
-0.66
-0.65
-0.625
-0.615
-0.6
-0.59
-0.6
-0.615
-0.62
-0.585
-0.56
-0.54
-0.53
-0.52
-0.485
-0.445
-0.445
-0.43
-0.42
-0.39
-0.36
-0.33
-0.32
-0.32
-0.315
-0.305
-0.3
-0.265
-0.255
-0.255
-0.26
-0.25
-0.26
-0.24
-0.23
-0.245
-0.24
-0.23
-0.21
-0.215
-0.22
-0.24
-0.26
-0.255
-0.235
-0.21
-0.2
-0.22
-0.24
-0.26
-0.25
-0.24
-0.23
-0.235
-0.245
-0.245
-0.225
-0.21
-0.235
-0.235
-0.26
-0.24
-0.235
-0.205
-0.2
-0.205
-0.225
-0.22
-0.22
-0.2
-0.2
-0.215
-0.215
-0.21
-0.225
-0.215
-0.21
-0.215
-0.21
-0.21
-0.18
-0.165
-0.185
-0.19
-0.195
-0.2
-0.18
-0.165
-0.165
-0.17
-0.17
-0.155
-0.145
-0.13
-0.13
-0.125
-0.125
-0.135
-0.125
-0.12
-0.12
-0.15
-0.16
-0.145
-0.12
-0.095
-0.095
-0.11
-0.12
-0.125
-0.12
-0.1
-0.105
