Lead II
-0.55
-0.56
-0.575
-0.575
-0.57
-0.565
-0.545
-0.57
-0.575
-0.58
-0.56
-0.55
-0.55
-0.555
-0.57
-0.57
-0.555
-0.54
-0.545
-0.555
-0.545
-0.535
-0.52
-0.515
-0.535
-0.52
-0.51
-0.48
-0.44
-0.415
-0.385
-0.335
-0.31
-0.275
-0.23
-0.205
-0.21
-0.225
-0.22
-0.17
-0.125
-0.115
-0.14
-0.17
-0.21
-0.22
-0.225
-0.225
-0.21
-0.2
-0.185
-0.15
-0.1
0.07
0.435
0.955
1.39
1.51
1.4
1.245
1.14
1.07
0.985
0.9
0.805
0.7
0.575
0.46
0.34
0.235
0.135
0.03
-0.1
-0.27
-0.45
-0.615
-0.805
-0.975
-1.16
-1.36
-1.575
-1.74
-1.9
-2.05
-2.205
-2.3
-2.385
-2.445
-2.485
-2.505
-2.52
-2.545
-2.595
-2.65
-2.71
-2.75
-2.805
-2.885
-2.95
-3.0
-3.015
-2.97
-2.865
-2.69
-2.495
-2.265
-2.06
-1.925
-1.79
-1.66
-1.58
-1.505
-1.435
-1.405
-1.365
-1.33
-1.31
-1.275
-1.25
-1.24
-1.215
-1.19
-1.13
-1.06
-0.975
-0.905
-0.85
-0.815
-0.755
-0.695
-0.615
-0.53
-0.45
-0.385
-0.33
-0.26
-0.195
-0.125
-0.08
-0.045
-0.035
-0.02
0.015
0.035
0.065
0.08
0.08
0.11
0.145
0.175
0.205
0.225
0.23
0.265
0.3
0.35
0.375
0.405
0.41
0.435
0.47
0.51
0.535
0.56
0.575
0.61
0.635
0.695
0.735
0.765
0.78
0.79
0.84
0.865
0.9
0.935
0.945
0.95
0.975
0.995
1.01
1.01
1.025
1.035
1.04
1.03
1.03
1.01
0.99
0.985
0.985
0.97
0.945
0.9
0.87
0.84
0.81
0.765
0.74
0.685
0.65
0.63
0.61
0.565
0.505
0.43
0.37
0.33
0.315
0.295
0.24
0.17
0.125
0.07
0.04
0.01
-0.03
-0.075
-0.12
-0.16
-0.19
-0.215
-0.235
-0.275
-0.315
-0.325
-0.35
-0.37
-0.39
-0.415
-0.435
-0.45
-0.465
-0.49
-0.5
-0.515
-0.515
-0.5
-0.5
-0.51
-0.515
-0.55
-0.545
-0.555
-0.54
-0.52
-0.505
-0.525
-0.535
-0.555
-0.56
-0.555
-0.545
-0.56
-0.58
-0.57
-0.565
-0.555
-0.575
-0.58
-0.59
-0.57
-0.565
-0.57
-0.58
-0.59
-0.605
-0.62
-0.605
-0.585
-0.575
-0.59
-0.59
-0.605
-0.59
-0.56
-0.56
-0.575
-0.58
-0.565
-0.57
-0.55
-0.555
-0.555
-0.56
-0.56
-0.535
-0.545
-0.52
-0.53
-0.54
-0.525
-0.5
-0.45
-0.445
-0.395
-0.355
-0.305
-0.28
-0.24
-0.24
-0.25
-0.26
-0.24
-0.21
-0.21
-0.22
-0.26
-0.3
-0.315
-0.325
-0.335
-0.34
-0.355
-0.365
-0.37
-0.375
-0.385
-0.39
-0.385
-0.41
-0.445
-0.48
-0.515
-0.555
-0.585
-0.6
-0.6
-0.625
-0.62
-0.655
-0.67
-0.715
-0.725
-0.725
-0.73
-0.735
-0.75
-0.775
-0.795
-0.79
-0.79
-0.795
-0.815
-0.815
-0.815
-0.81
-0.81
-0.81
-0.83
-0.825
-0.82
-0.805
-0.79
-0.81
-0.805
-0.805
-0.79
-0.765
-0.73
-0.71
-0.69
-0.64
-0.51
-0.23
0.295
0.92
1.345
1.355
1.15
0.95
0.87
0.81
0.73
0.625
0.495
0.415
0.345
0.265
0.145
0.015
-0.105
-0.245
-0.355
-0.5
-0.64
-0.81
-0.965
-1.12
-1.265
-1.44
-1.595
-1.76
-1.91
-2.07
-2.195
-2.29
-2.34
-2.38
-2.405
-2.425
-2.485
-2.59
-2.69
-2.78
-2.83
-2.88
-2.9
-2.92
-2.855
-2.745
-2.59
-2.43
-2.235
-2.055
-1.9
-1.815
-1.75
-1.67
-1.59
-1.52
-1.475
-1.45
-1.405
-1.375
-1.355
-1.32
-1.275
-1.21
-1.145
-1.06
-0.985
-0.925
-0.865
-0.815
-0.745
-0.665
-0.57
-0.495
-0.45
-0.405
-0.34
-0.275
-0.235
-0.205
-0.205
-0.195
-0.16
-0.13
-0.11
-0.105
-0.09
-0.085
-0.05
-0.02
0.02
0.05
0.085
0.08
0.115
0.13
0.17
0.21
0.24
0.25
0.27
0.295
0.33
0.365
0.39
0.43
0.465
0.505
0.53
0.57
0.595
0.625
0.66
0.685
0.675
0.695
0.695
0.715
0.745
0.765
0.755
0.735
0.715
0.675
0.65
0.65
0.625
0.595
0.58
0.54
0.51
0.495
0.47
0.43
0.375
0.33
0.3
0.26
0.245
0.17
0.11
0.045
0.0
-0.05
-0.08
-0.125
-0.16
-0.215
-0.26
-0.3
-0.35
-0.375
-0.425
-0.48
-0.51
-0.52
-0.525
-0.555
-0.57
-0.605
-0.615
-0.635
-0.655
-0.655
-0.67
-0.685
-0.68
-0.695
-0.725
-0.72
-0.715
-0.71
-0.7
-0.68
-0.65
-0.635
-0.63
-0.61
-0.565
-0.52
-0.48
-0.44
-0.43
-0.42
-0.405
-0.39
-0.37
-0.355
-0.355
-0.37
-0.39
-0.415
-0.445
-0.47
-0.48
-0.5
-0.49
-0.475
-0.47
-0.485
-0.49
-0.515
-0.52
-0.53
-0.54
-0.56
-0.59
-0.61
-0.635
-0.65
-0.675
-0.7
-0.725
-0.75
-0.77
-0.78
-0.785
-0.805
-0.815
-0.83
-0.83
-0.83
-0.84
-0.865
-0.875
-0.88
-0.89
-0.875
-0.845
-0.86
-0.87
-0.875
-0.89
-0.87
-0.875
-0.88
-0.89
-0.895
-0.89
-0.89
-0.89
-0.9
-0.91
-0.915
-0.91
-0.895
-0.875
-0.885
-0.9
-0.9
-0.9
-0.91
-0.91
-0.91
-0.91
-0.915
-0.905
-0.89
-0.895
-0.89
-0.9
-0.91
-0.9
-0.88
-0.885
-0.87
-0.88
-0.88
-0.865
-0.855
-0.845
-0.87
-0.885
-0.89
-0.87
-0.87
-0.855
-0.86
-0.86
-0.86
-0.845
-0.835
-0.825
-0.8
-0.795
-0.815
-0.8
-0.785
-0.77
-0.77
-0.755
-0.735
-0.705
-0.63
-0.52
-0.265
0.26
0.895
1.46
1.53
1.315
1.095
1.005
0.95
0.855
0.77
0.655
0.555
0.435
0.33
0.215
0.095
-0.025
-0.18
-0.345
-0.525
-0.7
-0.88
-1.08
-1.29
-1.505
-1.685
-1.84
-2.005
-2.155
-2.27
-2.35
-2.405
-2.425
-2.44
-2.475
-2.53
-2.61
-2.695
-2.755
-2.785
-2.8
-2.82
-2.785
-2.725
-2.575
-2.42
-2.235
-2.015
-1.795
-1.675
-1.585
-1.53
-1.45
-1.39
-1.335
-1.29
-1.225
-1.18
-1.16
-1.125
-1.08
-1.035
-0.95
-0.875
-0.81
-0.755
-0.695
-0.625
-0.56
-0.48
-0.385
-0.3
-0.22
-0.17
-0.1
-0.055
-0.03
-0.005
0.005
0.02
0.055
0.075
0.1
0.115
0.13
0.16
0.175
0.215
0.25
0.285
0.3
0.33
0.365
0.395
0.425
0.455
0.485
0.505
0.545
0.575
0.615
0.655
0.69
0.72
0.74
0.78
0.81
0.84
0.87
0.88
0.9
0.925
0.955
0.96
0.965
0.965
0.985
1.005
1.01
1.0
0.99
0.98
0.98
0.985
0.975
0.955
0.94
0.94
0.955
0.97
0.98
0.965
0.94
0.895
0.88
0.86
0.855
0.79
0.735
0.65
0.57
0.51
0.465
0.4
0.335
0.275
0.245
0.215
0.165
0.105
0.045
-0.01
-0.055
-0.1
-0.145
-0.185
-0.235
-0.295
-0.32
-0.355
-0.375
-0.42
-0.46
-0.49
-0.515
-0.535
-0.565
-0.58
-0.625
-0.665
-0.68
-0.685
-0.66
-0.625
-0.62
-0.615
-0.62
-0.63
-0.65
-0.665
-0.68
-0.685
-0.665
-0.655
-0.64
-0.66
-0.67
-0.675
-0.68
-0.68
-0.67
-0.665
-0.675
-0.68
-0.66
-0.645
-0.635
-0.635
-0.645
-0.655
-0.66
-0.65
-0.655
-0.67
-0.68
-0.67
-0.65
-0.64
-0.63
-0.64
-0.645
-0.655
-0.665
-0.665
-0.64
-0.635
-0.645
-0.64
-0.645
-0.645
-0.64
-0.63
-0.63
-0.635
-0.635
-0.625
-0.625
-0.64
-0.645
-0.65
-0.635
-0.62
-0.625
-0.625
-0.63
-0.64
-0.625
-0.62
-0.63
-0.615
-0.605
-0.6
-0.6
-0.57
-0.565
-0.565
-0.58
-0.595
-0.59
-0.58
-0.58
-0.58
-0.605
-0.605
-0.565
-0.55
-0.545
-0.54
-0.555
-0.565
-0.55
-0.53
-0.52
-0.535
-0.545
-0.545
-0.53
-0.54
-0.55
-0.52
-0.495
-0.485
-0.485
-0.49
-0.495
-0.5
-0.495
-0.505
-0.48
-0.48
-0.485
-0.48
-0.47
-0.46
-0.435
-0.42
-0.41
-0.36
-0.335
-0.29
-0.18
0.1
0.635
1.27
1.77
1.81
1.62
1.49
1.425
1.365
1.285
1.14
1.03
0.94
0.85
0.755
0.64
0.495
0.35
0.19
-0.015
-0.245
-0.465
-0.675
-0.875
-1.08
-1.3
-1.52
-1.695
-1.84
-1.95
-2.015
-2.08
-2.14
-2.2
-2.225
-2.225
-2.255
-2.34
-2.44
-2.525
-2.585
-2.635
-2.68
-2.71
-2.69
-2.605
-2.435
-2.18
-1.955
-1.735
-1.58
-1.46
-1.375
-1.3
-1.26
-1.225
-1.17
-1.095
-1.04
-1.015
-1.02
-0.99
-0.92
-0.85
-0.765
-0.68
-0.62
-0.57
-0.53
-0.48
-0.41
-0.325
-0.2
-0.09
-0.025
0.005
0.03
0.07
0.14
0.185
0.235
0.26
0.285
0.335
0.38
0.405
0.415
0.455
0.515
0.61
0.655
0.675
0.695
0.74
0.79
0.845
0.88
0.885
0.9
0.925
0.98
1.015
1.045
1.04
1.02
1.035
1.045
1.095
1.14
1.175
1.19
1.215
1.25
1.27
1.255
1.25
1.23
1.24
1.235
1.215
1.185
1.155
1.155
1.14
1.13
1.135
1.145
1.115
1.08
1.055
1.02
0.99
0.93
0.865
0.82
0.815
0.815
0.79
0.71
0.61
0.535
0.525
0.51
0.5
0.455
0.385
0.36
0.33
0.25
0.13
0.06
0.035
0.065
0.07
0.02
-0.03
-0.085
-0.12
-0.145
-0.21
-0.285
-0.3
-0.26
-0.22
-0.21
-0.27
-0.33
-0.345
-0.365
-0.39
-0.42
-0.41
-0.39
-0.345
-0.375
-0.4
-0.445
-0.47
-0.49
-0.46
-0.46
-0.455
-0.455
-0.455
-0.465
-0.465
-0.47
-0.495
-0.49
-0.44
-0.425
-0.42
-0.47
-0.51
-0.49
-0.455
-0.415
-0.385
-0.39
-0.41
-0.445
-0.455
-0.445
-0.405
-0.4
-0.425
-0.445
-0.465
-0.44
-0.425
-0.4
-0.395
-0.395
-0.395
-0.39
-0.365
-0.345
-0.32
-0.345
-0.375
-0.41
-0.37
-0.34
-0.32
-0.345
-0.36
-0.355
-0.365
-0.365
-0.39
-0.41
-0.405
-0.42
-0.41
-0.395
-0.38
-0.385
-0.37
-0.34
-0.315
-0.315
-0.355
-0.37
-0.36
-0.345
-0.345
-0.355
-0.355
-0.365
-0.37
-0.375
-0.37
-0.355
-0.33
-0.32
-0.345
-0.36
-0.36
-0.355
-0.35
-0.34
-0.345
-0.355
-0.33
-0.31
-0.295
-0.31
-0.33
-0.365
-0.345
-0.335
-0.32
-0.315
-0.315
-0.31
-0.31
-0.3
-0.3
-0.32
-0.315
-0.33
-0.32
-0.3
-0.305
-0.315
-0.32
-0.31
-0.305
-0.295
-0.29
-0.275
-0.27
-0.27
-0.24
-0.205
-0.195
-0.195
-0.185
-0.14
0.015
0.36
0.93
1.545
1.935
1.975
1.885
1.765
1.71
1.655
1.57
1.455
1.345
1.245
1.155
1.045
0.93
0.785
0.63
0.475
0.295
0.105
-0.125
-0.355
-0.585
-0.81
-1.06
-1.31
-1.54
-1.74
-1.9
-2.03
-2.125
-2.23
-2.285
-2.3
-2.285
-2.28
-2.33
-2.42
-2.51
-2.58
-2.625
-2.66
-2.7
-2.705
-2.635
-2.47
-2.21
-1.935
-1.665
-1.43
-1.225
-1.06
-0.945
-0.855
-0.765
-0.68
-0.6
-0.535
-0.495
-0.48
-0.465
-0.47
-0.46
-0.45
-0.395
-0.295
-0.215
-0.155
-0.13
-0.09
-0.03
0.005
0.065
0.115
0.14
0.16
0.215
0.255
0.31
0.32
0.31
0.305
0.325
0.315
0.32
0.325
0.33
0.34
0.34
0.355
0.37
0.385
0.395
0.405
0.435
0.47
0.52
0.525
0.545
0.555
0.585
0.615
0.65
0.67
0.7
0.715
0.755
0.785
0.805
0.825
0.84
0.84
0.88
0.94
0.98
0.995
0.985
0.99
1.02
1.03
1.06
1.045
1.05
1.04
1.04
1.04
1.04
1.02
0.995
0.97
0.96
0.955
0.93
0.875
0.83
0.785
0.775
0.76
0.71
0.675
0.615
0.575
0.535
0.505
0.45
0.415
0.365
0.315
0.275
0.225
0.175
0.13
0.105
0.055
0.035
-0.015
-0.05
-0.1
-0.13
-0.18
-0.205
-0.23
-0.24
-0.255
-0.285
-0.325
-0.35
-0.36
-0.345
-0.365
-0.39
-0.405
-0.415
-0.42
-0.42
-0.43
-0.425
-0.44
-0.455
-0.435
-0.435
-0.45
-0.465
-0.48
-0.475
-0.455
-0.45
-0.455
-0.47
-0.49
-0.485
-0.485
-0.48
-0.485
-0.495
-0.5
-0.5
-0.5
-0.49
-0.485
-0.485
-0.51
-0.5
-0.49
-0.475
-0.465
-0.47
-0.47
-0.475
-0.47
-0.47
-0.47
-0.47
-0.47
-0.465
-0.47
-0.455
-0.46
-0.455
-0.47
-0.455
-0.43
-0.4
-0.425
-0.44
-0.45
-0.45
-0.455
-0.45
-0.44
-0.455
-0.465
-0.46
-0.46
-0.455
-0.46
-0.475
-0.49
-0.49
-0.485
-0.48
-0.475
-0.455
-0.465
-0.47
-0.475
-0.49
-0.475
-0.485
-0.5
-0.495
-0.49
-0.49
-0.49
-0.49
-0.49
-0.5
-0.485
-0.48
-0.49
-0.495
-0.505
-0.5
-0.49
-0.475
-0.47
-0.475
-0.49
-0.485
-0.485
-0.48
-0.485
-0.48
-0.495
-0.485
-0.48
-0.485
-0.495
-0.505
-0.525
-0.51
-0.485
-0.48
-0.475
-0.475
-0.49
-0.49
-0.485
-0.485
-0.48
-0.47
-0.47
-0.46
-0.455
-0.46
-0.465
-0.45
-0.465
-0.455
-0.455
-0.445
-0.445
-0.445
-0.435
-0.425
-0.375
-0.345
-0.28
-0.15
0.135
0.645
1.215
1.63
1.735
1.635
1.52
1.48
1.46
1.4
1.325
1.21
1.135
1.08
1.035
0.96
0.845
0.71
0.56
0.405
0.25
0.09
-0.08
-0.26
-0.47
-0.69
-0.905
-1.125
-1.35
-1.57
-1.76
-1.93
-2.08
-2.19
-2.27
-2.36
-2.42
-2.45
-2.48
-2.535
-2.615
-2.69
-2.755
-2.8
-2.825
-2.865
-2.92
-2.96
-2.955
-2.875
-2.745
-2.58
-2.4
-2.215
-2.065
-1.91
-1.765
-1.65
-1.56
-1.485
-1.44
-1.37
-1.29
-1.215
-1.17
-1.145
-1.155
-1.135
-1.095
-1.03
-0.975
-0.925
-0.85
-0.765
-0.715
-0.66
-0.6
-0.54
-0.475
-0.375
-0.31
-0.23
-0.18
-0.145
-0.1
-0.045
0.01
0.045
0.04
0.055
0.07
0.095
0.105
0.125
0.145
0.155
0.16
0.175
0.205
0.24
0.27
0.29
0.305
0.32
0.345
0.375
0.415
0.415
0.445
0.485
0.525
0.56
0.585
0.61
0.635
0.66
0.705
0.76
0.815
0.855
0.865
0.9
0.92
0.935
0.975
0.985
1.005
1.04
1.055
1.06
1.055
1.045
1.035
1.045
1.07
1.07
1.06
1.03
1.015
1.0
0.985
0.98
0.955
0.9
0.885
0.86
0.835
0.795
0.75
0.71
0.655
0.625
0.595
0.565
0.525
0.48
0.405
0.355
0.32
0.265
0.24
0.185
0.145
0.11
0.065
0.03
-0.02
-0.085
-0.115
-0.15
-0.175
-0.19
-0.225
-0.24
-0.255
-0.26
-0.27
-0.31
-0.335
-0.36
-0.38
-0.405
-0.405
-0.39
-0.38
-0.41
-0.42
-0.405
-0.405
-0.4
-0.415
-0.435
-0.45
-0.45
-0.435
-0.43
-0.44
-0.445
-0.465
-0.46
-0.44
-0.445
-0.435
-0.45
-0.455
-0.445
-0.43
-0.43
-0.445
-0.45
-0.45
-0.445
-0.43
-0.42
-0.425
-0.42
-0.425
-0.415
-0.425
-0.43
-0.43
-0.41
-0.41
-0.4
-0.38
-0.38
-0.38
-0.39
-0.4
-0.39
-0.395
-0.38
-0.37
-0.385
-0.385
-0.39
-0.385
-0.385
-0.39
-0.39
-0.4
-0.405
-0.39
-0.395
-0.405
-0.42
-0.42
-0.415
-0.4
-0.4
-0.405
-0.42
-0.43
-0.41
-0.405
-0.415
-0.415
-0.425
-0.415
-0.415
-0.415
-0.415
-0.405
-0.41
-0.415
-0.41
-0.4
-0.4
-0.395
-0.395
-0.395
-0.375
-0.35
-0.335
-0.325
-0.305
-0.28
-0.235
-0.18
-0.135
-0.11
-0.11
-0.105
-0.09
-0.07
-0.045
-0.03
-0.005
0.0
0.005
0.0
-0.01
-0.05
-0.065
-0.085
-0.075
-0.065
-0.065
-0.075
-0.09
-0.105
-0.105
-0.1
-0.105
-0.14
-0.17
-0.205
-0.225
-0.225
-0.25
-0.27
-0.305
-0.315
-0.325
-0.325
-0.33
-0.345
-0.335
-0.31
-0.255
-0.145
0.12
0.585
1.155
1.575
1.695
1.57
1.415
1.32
1.26
1.2
1.135
1.06
0.97
0.885
0.795
0.715
0.655
0.575
0.495
0.38
0.26
0.145
0.025
-0.08
-0.205
-0.345
-0.5
-0.625
-0.765
-0.91
-1.1
-1.275
-1.44
-1.615
-1.765
-1.865
-1.94
-2.015
-2.065
-2.115
-2.125
-2.14
-2.205
-2.325
-2.415
-2.49
-2.535
-2.6
-2.645
-2.675
-2.67
-2.585
-2.445
-2.3
-2.165
-2.02
-1.865
-1.72
-1.585
-1.505
-1.465
-1.425
-1.385
-1.35
-1.29
-1.245
-1.185
-1.165
-1.15
-1.145
-1.105
-1.06
-0.995
-0.935
-0.87
-0.79
-0.72
-0.66
-0.605
-0.55
-0.475
-0.39
-0.295
-0.215
-0.15
-0.095
-0.03
0.02
0.065
0.11
0.14
0.14
0.155
0.17
0.2
0.245
0.255
0.28
0.3
0.31
0.35
0.37
0.4
0.405
0.425
0.45
0.49
0.515
0.54
0.56
0.565
0.585
0.625
0.665
0.69
0.73
0.75
0.76
0.805
0.845
0.875
0.885
0.915
0.94
0.97
0.995
1.03
1.04
1.06
1.07
1.08
1.11
1.1
1.11
1.095
1.095
1.11
1.115
1.105
1.08
1.07
1.045
1.04
1.025
1.02
0.98
0.94
0.905
0.88
0.865
0.825
0.785
0.745
0.705
0.675
0.635
0.595
0.555
0.495
0.445
0.41
0.375
0.335
0.27
0.235
0.195
0.15
0.11
0.07
0.03
-0.03
-0.05
-0.075
-0.1
-0.12
-0.165
-0.2
-0.225
-0.23
-0.245
-0.255
-0.27
-0.3
-0.325
-0.325
-0.315
-0.32
-0.335
-0.345
-0.36
-0.35
-0.365
-0.365
-0.37
-0.375
-0.39
-0.385
-0.38
-0.37
-0.38
-0.395
-0.405
-0.395
-0.38
-0.38
-0.385
-0.385
-0.39
-0.38
-0.375
-0.375
-0.385
-0.385
-0.39
-0.375
-0.375
-0.37
-0.38
-0.375
-0.37
-0.345
-0.315
-0.3
-0.29
-0.28
-0.25
-0.205
-0.155
-0.115
-0.1
-0.08
-0.055
-0.035
-0.015
0.005
0.035
0.04
0.035
0.03
0.02
-0.01
-0.025
-0.045
-0.065
-0.055
-0.035
-0.055
-0.065
-0.08
-0.1
-0.105
-0.115
-0.14
-0.175
-0.205
-0.235
-0.25
-0.265
-0.29
-0.32
-0.35
-0.38
-0.38
-0.4
-0.41
-0.435
-0.46
-0.49
-0.49
-0.5
-0.51
-0.525
-0.525
-0.535
-0.525
-0.53
-0.53
-0.53
-0.54
-0.55
-0.545
-0.525
-0.53
-0.535
-0.54
-0.55
-0.535
-0.53
-0.525
-0.53
-0.545
-0.54
-0.535
-0.525
-0.52
-0.515
-0.535
-0.535
-0.52
-0.515
-0.5
-0.51
-0.525
-0.525
-0.52
-0.495
-0.49
-0.47
-0.46
-0.455
-0.425
-0.395
-0.36
-0.26
-0.04
0.43
1.065
1.59
1.695
1.54
1.35
1.245
1.19
1.15
1.065
0.975
0.89
0.825
0.77
0.72
0.665
0.58
0.48
0.395
0.305
0.235
0.135
0.02
-0.115
-0.25
-0.375
-0.525
-0.64
-0.78
-0.955
-1.125
-1.265
-1.38
-1.48
-1.54
-1.615
-1.66
-1.71
-1.77
-1.86
-1.99
-2.1
-2.17
-2.22
-2.285
-2.35
-2.375
-2.345
-2.24
-2.125
-2.005
-1.885
-1.74
-1.625
-1.54
-1.455
-1.395
-1.3
-1.245
-1.205
-1.165
-1.11
-1.065
-1.03
-1.025
-1.015
-0.99
-0.945
-0.88
-0.81
-0.75
-0.7
-0.65
-0.58
-0.5
-0.42
-0.335
-0.265
-0.205
-0.13
-0.07
-0.005
0.06
0.095
0.115
0.135
0.155
0.165
0.175
0.195
0.2
0.225
0.26
0.275
0.29
0.3
0.31
0.33
0.365
0.39
0.405
0.42
0.43
0.475
0.49
0.52
0.55
0.56
0.575
0.62
0.64
0.67
0.69
0.715
0.745
0.765
0.8
0.82
0.835
0.855
0.885
0.92
0.92
0.945
0.945
0.96
0.955
0.975
0.985
0.985
0.98
0.97
0.95
0.955
0.955
0.95
0.945
0.92
0.9
0.885
0.855
0.84
0.8
0.765
0.735
0.7
0.685
0.65
0.605
0.57
0.53
0.505
0.475
0.445
0.365
0.315
0.275
0.25
0.22
0.175
0.125
0.085
0.04
0.005
-0.015
-0.04
-0.06
-0.1
-0.115
-0.115
-0.125
-0.11
-0.1
-0.085
-0.055
0.005
0.05
0.07
0.07
0.06
0.065
0.07
0.085
0.095
0.07
0.05
0.01
-0.03
-0.05
-0.055
-0.075
-0.095
-0.1
-0.09
-0.1
-0.11
-0.15
-0.17
-0.195
-0.205
-0.21
-0.235
-0.26
-0.285
-0.33
-0.35
-0.37
-0.4
-0.42
-0.47
-0.47
-0.465
-0.45
-0.465
-0.475
-0.505
-0.545
-0.54
-0.535
-0.53
-0.545
-0.555
-0.555
-0.55
-0.545
-0.55
-0.55
-0.57
-0.585
-0.57
-0.57
-0.56
-0.58
-0.59
-0.585
-0.58
-0.585
-0.6
-0.59
-0.57
-0.565
-0.585
-0.585
-0.59
-0.585
-0.565
-0.56
-0.56
-0.56
-0.565
-0.585
-0.595
-0.585
-0.585
-0.575
-0.58
-0.59
-0.61
-0.605
-0.58
-0.57
-0.565
-0.595
-0.59
-0.59
-0.585
-0.58
-0.57
-0.57
-0.58
-0.59
-0.57
-0.565
-0.565
-0.56
-0.56
-0.575
-0.545
-0.54
-0.54
-0.545
-0.545
-0.53
-0.525
-0.51
-0.505
-0.505
-0.5
-0.5
-0.49
-0.48
-0.475
-0.47
-0.47
-0.465
-0.46
-0.45
-0.435
-0.42
-0.43
-0.405
-0.37
-0.31
-0.21
0.035
0.485
1.115
1.59
1.72
1.565
1.385
1.275
1.21
1.14
1.06
0.965
0.875
0.775
0.675
0.595
0.49
0.36
0.22
0.07
-0.09
-0.23
-0.385
-0.565
-0.745
-0.93
-1.11
-1.285
-1.445
-1.615
-1.785
-1.93
-2.06
-2.115
-2.145
-2.185
-2.25
-2.335
-2.42
-2.47
-2.52
-2.58
-2.64
-2.685
-2.67
-2.575
-2.425
-2.255
-2.085
-1.89
-1.715
-1.565
-1.46
-1.385
-1.315
-1.24
-1.18
-1.11
-1.065
-1.035
-1.025
-1.02
-1.005
-0.945
-0.875
-0.805
-0.755
-0.695
-0.65
-0.58
-0.515
-0.445
-0.355
-0.29
-0.215
-0.135
-0.06
-0.005
0.05
0.105
0.12
0.145
0.175
0.185
0.215
0.235
0.245
0.26
0.265
0.28
0.3
0.325
0.355
0.365
0.405
0.44
0.46
0.465
0.475
0.52
0.555
0.58
0.61
0.625
0.665
0.695
0.72
0.73
0.775
0.795
0.815
0.84
0.865
0.905
0.935
0.96
0.97
1.015
1.05
1.09
1.11
1.125
1.155
1.195
1.22
1.215
1.215
1.215
1.215
1.225
1.22
1.2
1.155
1.09
1.045
1.025
0.995
0.96
0.925
0.88
0.86
0.81
0.775
0.73
0.67
0.595
0.525
0.475
0.425
0.355
0.28
0.19
0.115
0.055
0.01
-0.045
-0.1
-0.17
-0.21
-0.23
-0.27
-0.32
-0.365
-0.415
-0.435
-0.45
-0.46
-0.47
-0.49
-0.515
-0.535
-0.545
-0.535
-0.535
-0.545
-0.555
-0.58
-0.57
-0.58
-0.575
-0.59
-0.605
-0.615
-0.6
-0.595
-0.6
-0.605
-0.62
-0.625
-0.615
-0.605
-0.61
-0.625
-0.625
-0.62
-0.625
-0.63
-0.625
-0.625
-0.62
-0.615
-0.61
-0.6
-0.6
-0.605
-0.615
-0.61
-0.6
-0.605
-0.6
-0.605
-0.595
-0.61
-0.605
-0.59
-0.585
-0.59
-0.59
-0.6
-0.58
-0.57
-0.58
-0.605
-0.61
-0.605
-0.59
-0.585
-0.58
-0.58
-0.585
-0.585
-0.575
-0.575
-0.575
-0.57
-0.585
-0.585
-0.58
-0.565
-0.565
-0.56
-0.56
-0.57
-0.55
-0.555
-0.545
-0.55
-0.555
-0.555
-0.555
-0.54
-0.535
-0.535
-0.545
-0.54
-0.535
-0.53
-0.515
-0.525
-0.525
-0.525
-0.515
-0.49
-0.495
-0.49
-0.505
-0.515
-0.485
-0.48
-0.48
-0.485
-0.505
-0.505
-0.475
-0.465
-0.465
-0.46
-0.46
-0.46
-0.44
-0.43
-0.425
-0.435
-0.43
-0.435
-0.44
-0.425
-0.415
-0.415
-0.41
-0.415
-0.4
-0.37
-0.355
-0.345
-0.325
-0.295
-0.205
-0.025
0.355
0.92
1.46
1.715
1.655
1.48
1.37
1.295
1.225
1.14
1.05
0.97
0.87
0.785
0.71
0.615
0.52
0.43
0.31
0.18
0.04
-0.1
-0.245
-0.405
-0.605
-0.835
-1.075
-1.285
-1.475
-1.62
-1.745
-1.845
-1.95
-2.01
-2.06
-2.09
-2.135
-2.225
-2.31
-2.365
-2.41
-2.465
-2.525
-2.57
-2.565
-2.48
-2.295
-2.095
-1.895
-1.73
-1.595
-1.46
-1.34
-1.255
-1.17
-1.13
-1.085
-1.05
-1.0
-0.965
-0.95
-0.955
-0.945
-0.915
-0.85
-0.79
-0.72
-0.67
-0.63
-0.57
-0.495
-0.415
-0.32
-0.21
-0.105
-0.01
0.08
0.165
0.265
0.345
0.425
0.47
0.51
0.555
0.575
0.61
0.64
0.685
0.72
0.725
0.72
0.695
0.695
0.705
0.74
0.775
0.81
0.825
0.84
0.835
0.86
0.89
0.91
0.91
0.91
0.905
0.935
0.955
0.975
0.965
0.975
0.98
0.995
1.025
1.025
1.035
1.04
1.05
1.06
1.095
1.085
1.085
1.085
1.08
1.075
1.09
1.08
1.07
1.035
1.025
1.03
1.015
0.985
0.95
0.92
0.88
0.86
0.85
0.81
0.77
0.715
0.675
0.655
0.61
0.565
0.525
0.46
0.41
0.38
0.335
0.285
0.23
0.175
0.13
0.105
0.065
0.025
-0.03
-0.085
-0.125
-0.165
-0.185
-0.215
-0.245
-0.275
-0.3
-0.32
-0.34
-0.365
-0.39
-0.415
-0.425
-0.425
-0.43
-0.43
-0.44
-0.455
-0.465
-0.46
-0.46
-0.465
-0.485
-0.485
-0.49
-0.495
-0.475
-0.48
-0.49
-0.495
-0.5
-0.495
-0.5
-0.495
-0.485
-0.49
-0.5
-0.49
-0.485
-0.495
-0.49
-0.49
-0.49
-0.48
-0.46
-0.455
-0.455
-0.475
-0.47
-0.45
-0.44
-0.435
-0.445
-0.455
-0.45
-0.44
-0.43
-0.43
-0.43
-0.425
-0.435
-0.425
-0.415
-0.42
-0.415
-0.42
-0.425
-0.405
-0.4
-0.39
-0.4
-0.41
-0.41
-0.41
-0.41
-0.405
-0.4
-0.405
-0.405
-0.405
-0.395
-0.4
-0.41
-0.43
-0.425
-0.42
-0.41
-0.4
-0.4
-0.415
-0.42
-0.42
-0.4
-0.395
-0.395
-0.395
-0.395
-0.395
-0.38
-0.385
-0.4
-0.41
-0.41
-0.385
-0.37
-0.365
-0.375
-0.38
-0.375
-0.37
-0.365
-0.37
-0.36
-0.38
-0.38
-0.38
-0.37
-0.36
-0.37
-0.375
-0.375
-0.36
-0.35
-0.36
-0.375
-0.375
-0.375
-0.37
-0.36
-0.35
-0.345
-0.345
-0.36
-0.345
-0.335
-0.33
-0.325
-0.325
-0.315
-0.305
-0.295
-0.255
-0.22
-0.135
0.08
0.53
1.145
1.655
1.785
1.63
1.435
1.34
1.305
1.245
1.14
1.03
0.92
0.83
0.74
0.66
0.535
0.405
0.265
0.105
-0.04
-0.195
-0.365
-0.54
-0.745
-0.955
-1.165
-1.36
-1.535
-1.69
-1.81
-1.87
-1.92
-1.925
-1.935
-1.965
-2.025
-2.105
-2.175
-2.22
-2.27
-2.345
-2.385
-2.37
-2.28
-2.09
-1.88
-1.65
-1.465
-1.305
-1.165
-1.06
-0.985
-0.91
-0.865
-0.82
-0.765
-0.74
-0.73
-0.75
-0.78
-0.785
-0.775
-0.76
-0.715
-0.675
-0.635
-0.585
-0.54
-0.48
-0.44
-0.39
-0.315
-0.24
-0.155
-0.105
-0.055
-0.005
0.04
0.085
0.12
0.13
0.145
0.15
0.18
0.21
0.245
0.255
0.275
0.28
0.29
0.33
0.365
0.385
0.405
0.415
0.43
0.45
0.48
0.51
0.545
0.565
0.59
0.62
0.665
0.695
0.735
0.75
0.775
0.81
0.83
0.845
0.855
0.865
0.88
0.915
0.95
0.96
0.975
0.97
0.97
0.985
0.995
0.99
0.985
0.975
0.97
0.95
0.96
0.94
0.93
0.89
0.86
0.845
0.835
0.785
0.76
0.72
0.685
0.635
0.59
0.55
0.495
0.47
0.43
0.39
0.34
0.305
0.245
0.205
0.145
0.115
0.085
0.05
0.005
-0.05
-0.085
-0.105
-0.125
-0.16
-0.195
-0.24
-0.26
-0.28
-0.275
-0.295
-0.325
-0.355
-0.37
-0.36
-0.38
-0.38
-0.395
-0.41
-0.42
-0.415
-0.405
-0.42
-0.43
-0.43
-0.44
-0.425
-0.43
-0.43
-0.445
-0.435
-0.445
-0.44
-0.435
-0.43
-0.425
-0.445
-0.45
-0.44
-0.425
-0.43
-0.43
-0.43
-0.445
-0.435
-0.425
-0.42
-0.425
-0.42
-0.415
-0.4
-0.405
-0.41
-0.41
-0.42
-0.41
-0.395
-0.37
-0.375
-0.375
-0.38
-0.385
-0.385
-0.365
-0.36
-0.385
-0.38
-0.385
-0.38
-0.39
-0.37
-0.38
-0.38
-0.385
-0.37
-0.365
-0.375
-0.385
-0.39
-0.4
-0.4
-0.385
-0.375
-0.385
-0.385
-0.395
-0.375
-0.37
-0.375
-0.385
-0.39
-0.395
-0.39
-0.375
-0.385
-0.4
-0.42
-0.42
-0.39
-0.385
-0.4
-0.405
-0.41
-0.41
-0.405
-0.39
-0.375
-0.385
-0.4
-0.405
-0.405
-0.385
-0.385
-0.39
-0.385
-0.395
-0.38
-0.375
-0.365
-0.375
-0.38
-0.375
-0.365
-0.36
-0.365
-0.37
-0.37
-0.37
-0.345
-0.33
-0.325
-0.315
-0.31
-0.3
-0.275
-0.235
-0.21
-0.185
-0.16
-0.14
-0.095
-0.065
-0.035
-0.01
0.04
0.115
0.255
0.51
0.935
1.43
1.785
1.835
1.71
1.61
1.535
1.49
1.405
1.325
1.245
1.17
1.09
1.005
0.915
0.805
0.71
0.61
0.485
0.345
0.205
0.045
-0.13
-0.3
-0.505
-0.725
-0.935
-1.135
-1.3
-1.46
-1.59
-1.705
-1.8
-1.865
-1.9
-1.92
-1.97
-2.065
-2.155
-2.205
-2.245
-2.295
-2.38
-2.45
-2.47
-2.425
-2.285
-2.095
-1.925
-1.755
-1.64
-1.5
-1.385
-1.3
-1.245
-1.205
-1.18
-1.15
-1.105
-1.06
-1.055
-1.07
-1.08
-1.07
-1.02
-0.96
-0.895
-0.855
-0.8
-0.75
-0.695
-0.63
-0.565
-0.48
-0.42
-0.365
-0.28
-0.24
-0.17
-0.105
-0.07
-0.05
-0.04
-0.02
-0.005
0.02
0.045
0.06
0.085
0.11
0.13
0.135
0.16
0.19
0.225
0.255
0.26
0.295
0.31
0.345
0.38
0.415
0.45
0.48
0.495
0.535
0.575
0.625
0.66
0.69
0.7
0.74
0.775
0.81
0.835
0.855
0.865
0.9
0.93
0.94
0.965
0.97
0.975
0.965
0.99
1.005
1.015
1.0
0.985
0.955
0.96
0.96
0.94
0.925
0.905
0.855
0.85
0.83
0.79
0.75
0.7
0.665
0.615
0.595
0.545
0.495
0.445
0.405
0.35
0.335
0.29
0.25
0.195
0.13
0.095
0.06
0.04
-0.01
-0.06
-0.1
-0.13
-0.15
-0.165
-0.185
-0.215
-0.235
-0.25
-0.25
-0.28
-0.295
-0.305
-0.32
-0.33
-0.325
-0.33
-0.345
-0.335
-0.335
-0.34
-0.35
-0.35
-0.355
-0.36
-0.365
-0.35
-0.335
-0.34
-0.36
-0.365
-0.37
-0.36
-0.36
-0.365
