Lead II
-0.125
-0.1
-0.07
-0.085
-0.095
-0.115
-0.12
-0.115
-0.115
-0.125
-0.125
-0.115
-0.11
-0.085
-0.08
-0.08
-0.08
-0.075
-0.06
-0.07
-0.07
-0.075
-0.075
-0.08
-0.075
-0.06
-0.045
-0.055
-0.07
-0.07
-0.065
-0.065
-0.06
-0.065
-0.07
-0.045
-0.05
-0.04
-0.04
-0.05
-0.065
-0.06
-0.055
-0.045
-0.045
-0.04
-0.05
-0.045
-0.04
-0.035
-0.035
-0.035
-0.04
-0.035
-0.015
-0.015
-0.015
-0.04
-0.05
-0.035
-0.04
-0.02
-0.035
-0.045
-0.06
-0.06
-0.06
-0.06
-0.07
-0.08
-0.075
-0.07
-0.045
-0.035
-0.04
-0.05
-0.05
-0.05
-0.045
-0.05
-0.05
-0.055
-0.06
-0.055
-0.04
-0.035
-0.03
-0.03
-0.04
-0.025
-0.015
0.005
0.01
0.0
-0.005
0.0
-0.005
0.015
0.02
0.015
0.02
0.015
0.035
0.05
0.05
0.04
0.035
0.055
0.06
0.07
0.08
0.07
0.055
0.06
0.055
0.055
0.05
0.04
0.03
0.035
0.05
0.06
0.06
0.045
0.02
0.015
0.025
0.035
0.025
0.015
0.0
0.01
0.02
0.035
0.025
0.015
0.005
0.0
0.005
0.02
0.025
0.02
0.01
0.01
0.01
0.015
0.01
0.0
-0.015
-0.015
-0.005
0.0
0.005
0.005
-0.005
-0.005
0.005
-0.005
-0.005
-0.005
-0.015
0.0
0.01
0.025
0.02
0.0
-0.005
0.01
0.03
0.045
0.03
0.04
0.045
0.045
0.06
0.06
0.065
0.065
0.05
0.04
0.035
0.035
0.025
0.01
0.0
0.005
0.0
0.0
0.0
0.0
0.0
-0.005
-0.005
-0.005
0.005
0.015
0.01
0.015
0.025
0.03
0.03
0.025
0.01
0.015
0.015
0.015
-0.005
-0.015
-0.015
-0.015
-0.005
0.005
0.005
0.005
0.0
-0.005
-0.01
0.005
-0.01
-0.015
-0.04
-0.035
-0.03
-0.005
-0.02
-0.055
-0.075
-0.07
-0.015
0.07
0.175
0.265
0.34
0.42
0.52
0.615
0.735
0.85
0.93
0.96
0.91
0.795
0.675
0.54
0.36
0.13
-0.075
-0.205
-0.275
-0.27
-0.23
-0.17
-0.11
-0.055
-0.03
-0.04
-0.06
-0.085
-0.095
-0.105
-0.12
-0.115
-0.135
-0.135
-0.14
-0.125
-0.1
-0.105
-0.095
-0.085
-0.075
-0.06
-0.06
-0.08
-0.085
-0.065
-0.055
-0.065
-0.065
-0.075
-0.075
-0.07
-0.07
-0.07
-0.075
-0.07
-0.08
-0.06
-0.06
-0.04
-0.04
-0.035
-0.04
-0.04
-0.035
-0.02
-0.015
-0.015
-0.02
-0.005
0.005
0.02
0.02
0.01
0.015
0.025
0.045
0.05
0.055
0.05
0.035
0.04
0.04
0.055
0.055
0.045
0.055
0.075
0.085
0.095
0.1
0.1
0.08
0.095
0.12
0.135
0.135
0.135
0.14
0.155
0.16
0.165
0.17
0.155
0.15
0.14
0.145
0.15
0.16
0.145
0.115
0.125
0.155
0.16
0.135
0.115
0.11
0.115
0.11
0.105
0.09
0.085
0.08
0.075
0.075
0.075
0.07
0.07
0.06
0.06
0.06
0.06
0.04
0.015
0.015
0.035
0.03
0.04
0.03
0.01
0.005
0.03
0.025
0.035
0.025
0.02
0.01
0.015
0.0
-0.01
-0.01
-0.015
-0.02
-0.015
-0.01
-0.005
-0.01
-0.015
-0.025
-0.005
0.005
0.02
0.015
0.02
0.025
0.05
0.07
0.04
0.015
-0.005
-0.015
-0.01
0.005
0.03
0.04
0.035
0.03
0.035
0.04
0.055
0.075
0.065
0.05
0.05
0.055
0.045
0.04
0.015
-0.01
0.0
0.005
0.02
0.04
0.045
0.025
0.02
0.005
0.0
0.005
0.0
-0.005
0.01
0.015
0.035
0.04
0.035
0.02
0.03
0.025
0.02
0.0
-0.03
-0.05
-0.045
-0.04
-0.04
-0.03
-0.035
-0.035
-0.03
-0.025
-0.02
-0.005
-0.015
-0.025
-0.015
-0.015
-0.005
-0.005
-0.015
-0.045
-0.05
-0.03
0.01
0.065
0.145
0.235
0.32
0.4
0.455
0.525
0.62
0.715
0.815
0.88
0.88
0.81
0.725
0.62
0.485
0.28
0.045
-0.15
-0.26
-0.3
-0.265
-0.225
-0.165
-0.125
-0.115
-0.115
-0.095
-0.06
-0.07
-0.09
-0.11
-0.13
-0.14
-0.13
-0.115
-0.09
-0.09
-0.095
-0.095
-0.1
-0.085
-0.09
-0.105
-0.115
-0.105
-0.09
-0.07
-0.08
-0.085
-0.085
-0.07
-0.065
-0.08
-0.085
-0.085
-0.09
-0.085
-0.08
-0.055
-0.055
-0.06
-0.055
-0.065
-0.045
-0.05
-0.06
-0.065
-0.055
-0.06
-0.045
-0.045
-0.04
-0.015
-0.02
-0.005
0.01
0.02
0.02
0.015
0.02
0.03
0.04
0.055
0.06
0.04
0.04
0.06
0.08
0.08
0.075
0.085
0.1
0.115
0.115
0.125
0.125
0.125
0.13
0.135
0.15
0.155
0.165
0.145
0.125
0.125
0.145
0.155
0.145
0.135
0.11
0.09
0.085
0.075
0.085
0.095
0.1
0.085
0.065
0.045
0.05
0.06
0.05
0.005
-0.005
0.03
0.04
0.045
0.04
0.03
0.03
0.0
-0.015
-0.025
-0.025
-0.005
0.005
-0.005
-0.005
-0.025
-0.05
-0.045
-0.035
-0.035
-0.025
-0.05
-0.045
-0.06
-0.055
-0.075
-0.07
-0.065
-0.06
-0.055
-0.065
-0.06
-0.065
-0.075
-0.06
-0.05
-0.04
-0.06
-0.075
-0.06
-0.025
0.0
0.0
0.005
-0.005
-0.015
0.0
0.015
0.025
0.0
-0.035
-0.07
-0.075
-0.075
-0.045
-0.04
-0.03
-0.045
-0.045
-0.045
-0.035
-0.05
-0.065
-0.09
-0.09
-0.085
-0.085
-0.08
-0.075
-0.09
-0.095
-0.095
-0.08
-0.06
-0.06
-0.03
-0.01
0.01
-0.01
-0.06
-0.08
-0.115
-0.14
-0.17
-0.195
-0.22
-0.23
-0.205
-0.145
-0.04
0.085
0.19
0.27
0.37
0.47
0.62
0.745
0.85
0.875
0.835
0.745
0.66
0.55
0.39
0.16
-0.07
-0.255
-0.305
-0.28
-0.23
-0.2
-0.19
-0.19
-0.19
-0.2
-0.18
-0.165
-0.175
-0.185
-0.205
-0.2
-0.2
-0.215
-0.215
-0.205
-0.165
-0.12
-0.13
-0.17
-0.2
-0.22
-0.18
-0.105
-0.065
-0.08
-0.175
-0.275
-0.3
-0.26
-0.2
-0.175
-0.19
-0.21
-0.23
-0.215
-0.2
-0.17
-0.165
-0.18
-0.175
-0.165
-0.14
-0.14
-0.145
-0.175
-0.175
-0.145
-0.13
-0.11
-0.115
-0.105
-0.065
-0.045
-0.035
-0.03
-0.035
-0.04
-0.045
-0.04
-0.025
-0.02
-0.07
-0.125
-0.165
-0.18
-0.18
-0.14
-0.105
-0.085
-0.07
-0.04
-0.01
0.025
0.015
-0.01
-0.015
0.0
0.015
0.01
0.02
0.015
0.015
0.03
0.04
0.055
0.05
0.04
0.025
0.01
0.005
0.03
0.03
0.02
0.025
-0.005
-0.025
-0.03
-0.025
0.0
0.01
0.005
-0.02
-0.03
-0.045
-0.07
-0.07
-0.04
-0.04
-0.07
-0.11
-0.14
-0.15
-0.125
-0.1
-0.08
-0.08
-0.095
-0.095
-0.095
-0.09
-0.115
-0.12
-0.125
-0.115
-0.085
-0.09
-0.115
-0.135
-0.15
-0.145
-0.14
-0.135
-0.14
-0.145
-0.14
-0.125
-0.105
-0.115
-0.145
-0.165
-0.175
-0.16
-0.135
-0.115
-0.125
-0.155
-0.16
-0.15
-0.12
-0.1
-0.11
-0.115
-0.12
-0.105
-0.095
-0.08
-0.075
-0.07
-0.06
-0.035
-0.025
-0.035
-0.08
-0.115
-0.145
-0.14
-0.115
-0.11
-0.115
-0.105
-0.095
-0.055
-0.03
-0.035
-0.06
-0.08
-0.09
-0.095
-0.085
-0.085
-0.095
-0.12
-0.11
-0.105
-0.08
-0.08
-0.08
-0.085
-0.105
-0.09
-0.085
-0.08
-0.08
-0.085
-0.075
-0.06
-0.04
-0.045
-0.055
-0.075
-0.085
-0.07
-0.03
-0.02
-0.03
-0.06
-0.09
-0.105
-0.1
-0.075
-0.065
-0.06
-0.07
-0.08
-0.065
-0.08
-0.1
-0.125
-0.15
-0.135
-0.105
-0.08
-0.075
-0.11
-0.14
-0.155
-0.135
-0.095
-0.05
0.0
0.1
0.2
0.305
0.375
0.42
0.465
0.52
0.61
0.725
0.84
0.905
0.9
0.815
0.745
0.67
0.6
0.455
0.235
0.01
-0.15
-0.245
-0.295
-0.31
-0.32
-0.325
-0.325
-0.315
-0.275
-0.205
-0.145
-0.125
-0.155
-0.21
-0.24
-0.26
-0.255
-0.23
-0.18
-0.165
-0.165
-0.205
-0.23
-0.23
-0.22
-0.2
-0.17
-0.145
-0.16
-0.155
-0.145
-0.13
-0.135
-0.155
-0.17
-0.165
-0.125
-0.085
-0.07
-0.095
-0.125
-0.14
-0.145
-0.125
-0.105
-0.085
-0.06
-0.055
-0.04
-0.015
0.005
0.005
0.015
-0.01
-0.045
-0.11
-0.155
-0.165
-0.145
-0.11
-0.09
-0.065
-0.06
-0.05
-0.055
-0.065
-0.06
-0.055
-0.06
-0.045
-0.035
-0.025
0.005
0.015
0.015
0.015
0.025
0.04
0.065
0.075
0.075
0.07
0.055
0.05
0.055
0.07
0.065
0.085
0.1
0.13
0.15
0.145
0.16
0.155
0.135
0.12
0.125
0.135
0.13
0.14
0.155
0.165
0.165
0.18
0.185
0.2
0.195
0.185
0.18
0.165
0.175
0.155
0.135
0.125
0.125
0.145
0.14
0.135
0.13
0.13
0.125
0.135
0.125
0.12
0.115
0.1
0.115
0.12
0.115
0.11
0.095
0.085
0.075
0.06
0.065
0.065
0.065
0.07
0.08
0.1
0.115
0.1
0.085
0.085
0.1
0.115
0.1
0.08
0.06
0.07
0.07
0.085
0.085
0.09
0.08
0.075
0.08
0.07
0.075
0.07
0.055
0.06
0.055
0.07
0.06
0.055
0.06
0.08
0.065
0.06
0.055
0.06
0.055
0.05
0.055
0.06
0.06
0.05
0.05
0.065
0.085
0.09
0.075
0.06
0.065
0.075
0.085
0.1
0.11
0.115
0.1
0.105
0.135
0.155
0.14
0.125
0.12
0.12
0.11
0.1
0.08
0.075
0.06
0.06
0.065
0.065
0.065
0.065
0.055
0.065
0.07
0.075
0.075
0.06
0.055
0.05
0.05
0.06
0.06
0.055
0.055
0.065
0.08
0.085
0.07
0.055
0.055
0.065
0.075
0.08
0.07
0.06
0.05
0.035
0.045
0.05
0.055
0.06
0.085
0.09
0.075
0.055
0.04
0.045
0.025
0.04
0.055
0.07
0.07
0.055
0.03
0.03
0.035
0.055
0.055
0.035
0.015
0.005
0.02
0.035
0.085
0.13
0.185
0.255
0.33
0.41
0.48
0.535
0.595
0.665
0.75
0.845
0.92
0.98
1.02
1.01
0.97
0.905
0.81
0.72
0.6
0.435
0.225
0.025
-0.14
-0.24
-0.305
-0.315
-0.295
-0.24
-0.215
-0.17
-0.14
-0.135
-0.1
-0.075
-0.06
-0.06
-0.09
-0.09
-0.08
-0.075
-0.08
-0.085
-0.105
-0.11
-0.08
-0.08
-0.06
-0.045
-0.035
-0.045
-0.04
-0.035
-0.035
-0.035
-0.045
-0.035
-0.035
-0.025
-0.02
-0.03
-0.04
-0.03
-0.015
0.0
-0.01
-0.025
-0.03
-0.04
-0.03
-0.02
-0.02
-0.015
-0.025
-0.015
-0.015
-0.01
-0.01
-0.02
-0.025
-0.035
-0.015
0.01
0.005
0.015
0.0
0.0
0.0
0.005
0.015
0.01
0.01
0.01
0.02
0.05
0.05
0.05
0.05
0.045
0.055
0.075
0.08
0.075
0.085
0.09
0.1
0.11
0.12
0.105
0.105
0.11
0.12
0.13
0.14
0.15
0.15
0.135
0.13
0.14
0.15
0.16
0.17
0.18
0.195
0.21
0.21
0.2
0.205
0.2
0.195
0.21
0.205
0.205
0.205
0.21
0.2
0.195
0.19
0.165
0.15
0.145
0.15
0.165
0.165
0.16
0.145
0.13
0.14
0.13
0.12
0.11
0.095
0.085
0.095
0.09
0.09
0.11
0.115
0.105
0.11
0.11
0.11
0.095
0.09
0.085
0.08
0.07
0.065
0.065
0.06
0.06
0.055
0.055
0.055
0.05
0.045
0.03
0.02
0.025
0.02
0.025
0.03
0.035
0.045
0.045
0.035
0.03
0.015
0.005
0.015
0.02
0.01
0.015
0.005
0.0
0.01
0.02
0.035
0.03
0.01
0.01
0.02
0.03
0.03
0.035
0.03
0.035
0.04
0.07
0.07
0.065
0.055
0.06
0.07
0.095
0.075
0.06
0.05
0.04
0.04
0.03
0.02
0.02
0.015
0.015
0.025
0.025
0.035
0.03
0.025
0.02
0.01
0.01
0.02
0.035
0.015
0.03
0.035
0.07
0.07
0.075
0.06
0.04
0.03
0.035
0.015
0.015
0.005
0.005
0.02
0.015
0.005
-0.015
-0.02
-0.025
-0.015
-0.005
-0.01
0.005
0.01
0.015
0.03
0.035
0.025
0.015
0.005
-0.005
0.005
0.005
-0.025
-0.03
-0.035
-0.01
0.04
0.12
0.2
0.275
0.365
0.45
0.55
0.64
0.735
0.83
0.915
0.985
1.025
1.0
0.945
0.86
0.765
0.67
0.545
0.37
0.195
0.045
-0.085
-0.165
-0.2
-0.18
-0.135
-0.075
-0.04
-0.03
-0.01
0.0
-0.025
-0.045
-0.055
-0.055
-0.045
-0.05
-0.06
-0.115
-0.165
-0.18
-0.18
-0.155
-0.13
-0.12
-0.125
-0.125
-0.09
-0.075
-0.065
-0.06
-0.07
-0.085
-0.085
-0.075
-0.065
-0.065
-0.075
-0.08
-0.07
-0.045
-0.04
-0.04
-0.055
-0.06
-0.055
-0.04
-0.04
-0.035
-0.035
-0.045
-0.04
-0.04
-0.035
-0.035
-0.03
-0.025
-0.025
-0.03
-0.035
-0.045
-0.045
-0.035
-0.025
-0.02
-0.03
-0.025
-0.03
-0.02
-0.01
0.005
0.01
0.005
0.0
-0.005
0.015
0.03
0.035
0.035
0.035
0.035
0.04
0.055
0.075
0.075
0.075
0.065
0.075
0.075
0.075
0.065
0.085
0.09
0.105
0.105
0.125
0.13
0.13
0.145
0.165
0.2
0.195
0.17
0.15
0.15
0.155
0.165
0.185
0.18
0.175
0.18
0.185
0.21
0.21
0.19
0.175
0.17
0.17
0.18
0.19
0.18
0.155
0.14
0.135
0.15
0.14
0.14
0.12
0.105
0.115
0.135
0.13
0.115
0.105
0.095
0.09
0.095
0.08
0.075
0.07
0.065
0.065
0.08
0.065
0.055
0.06
0.065
0.065
0.07
0.06
0.045
0.03
0.015
0.03
0.045
0.03
0.035
0.035
0.045
0.055
0.05
0.045
0.035
0.025
0.01
0.015
0.025
0.02
0.015
0.005
0.01
0.015
0.01
-0.005
0.0
-0.015
-0.015
-0.01
-0.005
-0.015
-0.01
-0.02
-0.02
-0.015
0.005
0.015
-0.015
-0.02
-0.01
0.005
0.02
0.025
0.03
0.02
0.01
0.01
0.035
0.035
0.045
0.045
0.045
0.06
0.065
0.065
0.06
0.05
0.045
0.045
0.065
0.055
0.045
0.025
0.02
0.025
0.03
0.02
0.005
0.005
0.005
0.025
0.05
0.06
0.055
0.045
0.01
-0.005
0.02
0.03
0.03
0.035
0.035
0.055
0.08
0.08
0.065
0.05
0.04
0.065
0.085
0.09
0.065
0.045
0.02
0.01
0.005
0.005
0.005
0.0
0.01
0.015
0.03
0.025
0.015
0.015
0.02
0.02
0.04
0.045
0.045
0.04
0.03
0.025
0.025
0.0
-0.02
-0.03
-0.005
0.055
0.135
0.195
0.25
0.31
0.41
0.51
0.605
0.69
0.77
0.855
0.935
0.995
1.01
0.935
0.815
0.69
0.57
0.39
0.17
-0.03
-0.17
-0.265
-0.28
-0.24
-0.16
-0.125
-0.105
-0.105
-0.1
-0.07
-0.035
-0.03
-0.055
-0.075
-0.12
-0.12
-0.08
-0.055
-0.055
-0.06
-0.06
-0.045
-0.025
-0.03
-0.045
-0.045
-0.05
-0.03
-0.02
-0.03
-0.01
-0.02
-0.02
-0.03
-0.02
-0.035
-0.01
-0.015
-0.01
0.005
0.01
0.01
-0.005
0.0
0.01
0.015
0.035
0.04
0.04
0.015
0.005
0.02
0.045
0.055
0.055
0.04
0.045
0.06
0.095
0.085
0.08
0.07
0.07
0.095
0.12
0.115
0.135
0.135
0.15
0.155
0.165
0.165
0.16
0.16
0.16
0.185
0.195
0.19
0.19
0.18
0.19
0.22
0.235
0.235
0.235
0.22
0.23
0.24
0.25
0.245
0.225
0.215
0.225
0.235
0.245
0.225
0.205
0.19
0.195
0.195
0.17
0.165
0.165
0.16
0.145
0.14
0.135
0.13
0.12
0.11
0.105
0.12
0.125
0.12
0.105
0.09
0.085
0.075
0.1
0.11
0.12
0.09
0.085
0.08
0.085
0.075
0.08
0.08
0.075
0.075
0.115
0.135
0.11
0.095
0.08
0.105
0.125
0.135
0.125
0.11
0.1
0.08
0.085
0.08
0.08
0.075
0.065
0.07
0.08
0.07
0.07
0.065
0.06
0.045
0.03
0.025
0.01
-0.005
0.005
0.0
0.005
-0.005
0.005
-0.01
-0.01
-0.01
-0.005
-0.015
-0.015
-0.025
-0.02
-0.005
0.01
0.015
0.005
0.005
0.01
0.015
0.015
0.015
0.0
-0.015
0.0
0.0
0.015
0.01
0.01
0.005
0.0
-0.01
-0.01
-0.03
-0.035
-0.02
0.025
0.095
0.19
0.29
0.37
0.44
0.515
0.595
0.685
0.77
0.85
0.94
1.01
1.05
1.03
0.935
0.815
0.67
0.495
0.235
-0.025
-0.235
-0.345
-0.405
-0.41
-0.36
-0.29
-0.24
-0.205
-0.205
-0.185
-0.16
-0.115
-0.11
-0.125
-0.16
-0.17
-0.16
-0.155
-0.15
-0.135
-0.135
-0.115
-0.105
-0.085
-0.08
-0.08
-0.08
-0.07
-0.06
-0.055
-0.06
-0.06
-0.065
-0.07
-0.06
-0.05
-0.06
-0.06
-0.06
-0.06
-0.055
-0.045
-0.04
-0.05
-0.05
-0.045
-0.025
-0.015
-0.03
-0.02
-0.03
-0.025
-0.005
-0.005
0.0
-0.01
-0.02
-0.025
-0.01
0.015
0.02
0.005
-0.005
0.005
0.02
0.035
0.035
0.05
0.045
0.045
0.055
0.075
0.06
0.065
0.065
0.065
0.075
0.09
0.09
0.085
0.08
0.09
0.1
0.115
0.11
0.11
0.11
0.12
0.135
0.145
0.135
0.14
0.125
0.125
0.135
0.155
0.15
0.14
0.115
0.11
0.12
0.11
0.105
0.095
0.085
0.08
0.08
0.095
0.08
0.07
0.055
0.05
0.045
0.045
0.04
0.025
0.025
0.01
0.015
0.035
0.02
0.015
0.005
-0.005
-0.015
-0.005
-0.01
-0.015
-0.03
-0.035
-0.035
-0.035
-0.05
-0.06
-0.075
-0.065
-0.065
-0.06
-0.065
-0.07
-0.09
-0.07
-0.05
-0.045
-0.065
-0.07
-0.065
-0.075
-0.08
-0.07
-0.07
-0.07
-0.065
-0.06
-0.06
-0.065
-0.07
-0.07
-0.09
-0.095
-0.09
-0.09
-0.095
-0.1
-0.105
-0.085
-0.06
-0.05
-0.05
-0.06
-0.07
-0.075
-0.075
-0.065
-0.075
-0.07
-0.08
-0.075
-0.075
-0.07
-0.06
-0.075
-0.08
-0.08
-0.06
-0.055
-0.055
-0.065
-0.085
-0.105
-0.1
-0.08
-0.085
-0.075
-0.085
-0.09
-0.08
-0.07
-0.06
-0.05
-0.045
-0.06
-0.045
-0.03
-0.005
0.0
-0.01
-0.01
0.005
0.02
0.01
0.0
-0.025
-0.03
-0.015
-0.005
-0.01
-0.02
-0.055
-0.04
-0.03
-0.005
0.005
-0.01
-0.02
-0.03
-0.05
-0.06
-0.09
-0.11
-0.115
-0.105
-0.095
-0.085
-0.085
-0.105
-0.125
-0.12
-0.115
-0.11
-0.105
-0.12
-0.135
-0.13
-0.13
-0.12
-0.12
-0.12
-0.115
-0.11
-0.105
-0.1
-0.115
-0.125
-0.135
-0.15
-0.145
-0.105
-0.05
0.03
0.115
0.215
0.32
0.415
0.505
0.585
0.665
0.765
0.865
0.93
0.925
0.855
0.74
0.635
0.525
0.38
0.16
-0.05
-0.21
-0.31
-0.32
-0.3
-0.245
-0.205
-0.18
-0.16
-0.165
-0.185
-0.2
-0.22
-0.245
-0.255
-0.245
-0.25
-0.25
-0.255
-0.275
-0.255
-0.225
-0.215
-0.22
-0.23
-0.24
-0.23
-0.22
-0.2
-0.2
-0.215
-0.23
-0.23
-0.22
-0.2
-0.19
-0.215
-0.225
-0.215
-0.215
-0.21
-0.21
-0.2
-0.205
-0.21
-0.19
-0.165
-0.16
-0.175
-0.185
-0.185
-0.185
-0.17
-0.175
-0.175
-0.175
-0.165
-0.165
-0.155
-0.15
-0.145
-0.145
-0.14
-0.13
-0.12
-0.11
-0.1
-0.1
-0.1
-0.1
-0.105
-0.11
-0.105
-0.095
-0.08
-0.075
-0.055
-0.045
-0.045
-0.045
-0.04
-0.025
-0.01
-0.005
-0.015
-0.005
0.0
0.02
0.035
0.04
0.035
0.035
0.05
0.06
0.07
0.065
0.075
0.055
0.05
0.06
0.075
0.08
0.055
0.045
0.035
0.045
0.04
0.05
0.03
0.015
-0.005
0.005
0.015
0.015
0.0
-0.015
-0.015
-0.01
-0.015
-0.02
-0.035
-0.05
-0.055
-0.055
-0.05
-0.05
-0.05
-0.065
-0.065
-0.055
-0.045
-0.05
-0.065
-0.085
-0.08
-0.08
-0.08
-0.09
-0.105
-0.11
-0.11
-0.11
-0.1
-0.105
-0.105
-0.11
-0.11
-0.12
-0.125
-0.14
-0.15
-0.155
-0.16
-0.15
-0.14
-0.125
-0.125
-0.125
-0.135
-0.14
-0.13
-0.135
-0.14
-0.13
-0.125
-0.135
-0.12
-0.135
-0.135
-0.15
-0.145
-0.145
-0.135
-0.115
-0.105
-0.12
-0.13
-0.125
-0.11
-0.09
-0.085
-0.095
-0.085
-0.075
-0.07
-0.065
-0.07
-0.07
-0.065
-0.05
-0.035
-0.015
-0.03
-0.065
-0.09
-0.09
-0.095
-0.1
-0.105
-0.115
-0.125
-0.115
-0.09
-0.08
-0.075
-0.09
-0.095
-0.105
-0.11
-0.1
-0.09
-0.085
-0.065
-0.05
-0.065
-0.085
-0.1
-0.12
-0.13
-0.13
-0.12
-0.115
-0.12
-0.155
-0.15
-0.125
-0.095
-0.08
-0.085
-0.1
-0.1
-0.095
-0.095
-0.1
-0.125
-0.145
-0.155
-0.14
-0.09
-0.015
0.08
0.17
0.275
0.36
0.445
0.545
0.665
0.765
0.855
0.89
0.845
0.745
0.615
0.455
0.275
0.05
-0.15
-0.285
-0.335
-0.33
-0.29
-0.23
-0.175
-0.16
-0.175
-0.18
-0.185
-0.17
-0.165
-0.18
-0.2
-0.21
-0.215
-0.21
-0.19
-0.165
-0.15
-0.15
-0.14
-0.13
-0.145
-0.14
-0.155
-0.165
-0.15
-0.135
-0.12
-0.115
-0.115
-0.13
-0.125
-0.125
-0.12
-0.13
-0.125
-0.12
-0.12
-0.1
-0.085
-0.09
-0.105
-0.125
-0.11
-0.08
-0.065
-0.06
-0.08
-0.095
-0.085
-0.06
-0.04
-0.03
-0.025
-0.035
-0.04
-0.03
-0.01
0.0
-0.005
-0.025
-0.01
0.0
0.02
0.04
0.05
0.04
0.04
0.05
0.065
0.07
0.08
0.08
0.09
0.09
0.105
0.105
0.115
0.12
0.125
0.135
0.17
0.175
0.185
0.175
0.165
0.15
0.155
0.145
0.165
0.15
0.145
0.135
0.125
0.11
0.095
0.095
0.09
0.085
0.085
0.085
0.065
0.055
0.055
0.05
0.05
0.04
0.025
0.02
0.025
0.015
0.025
0.015
0.0
0.0
-0.005
-0.015
-0.02
-0.03
-0.03
-0.03
-0.03
-0.005
-0.005
-0.02
-0.03
-0.05
-0.05
-0.045
-0.035
-0.04
-0.055
-0.06
-0.05
-0.03
-0.025
-0.035
-0.035
-0.055
-0.055
-0.05
-0.035
-0.04
-0.04
-0.07
-0.08
-0.075
-0.07
-0.065
-0.05
-0.055
-0.07
-0.08
-0.075
-0.08
-0.085
-0.095
-0.085
-0.06
-0.05
-0.05
-0.05
-0.07
-0.07
-0.055
-0.035
-0.035
-0.04
-0.065
-0.075
-0.07
-0.055
-0.04
-0.035
-0.04
-0.035
-0.03
-0.025
-0.02
-0.015
-0.025
-0.025
-0.01
0.0
-0.005
0.0
0.005
0.01
0.01
0.005
-0.005
-0.02
-0.045
-0.035
-0.035
-0.035
-0.04
-0.05
-0.055
-0.04
-0.025
-0.02
-0.03
-0.03
-0.045
-0.035
-0.02
-0.01
-0.005
-0.01
-0.025
-0.02
-0.02
-0.015
-0.03
-0.04
-0.055
-0.055
-0.06
-0.045
-0.05
-0.065
-0.08
-0.095
-0.085
-0.065
-0.065
-0.06
-0.075
-0.08
-0.07
-0.06
-0.065
-0.055
-0.055
-0.07
-0.075
-0.08
-0.08
-0.085
-0.065
-0.01
0.065
0.15
0.22
0.3
0.39
0.475
0.565
0.655
0.74
0.835
0.915
0.96
0.945
0.855
0.705
0.515
0.25
-0.05
-0.28
-0.41
-0.455
-0.45
-0.425
-0.36
-0.295
-0.285
-0.235
-0.215
-0.19
-0.16
-0.165
-0.17
-0.195
-0.195
-0.205
-0.185
-0.175
-0.16
-0.155
-0.155
-0.155
-0.145
-0.125
-0.11
-0.105
-0.11
-0.13
-0.13
-0.12
-0.095
-0.1
-0.105
-0.11
-0.12
-0.125
-0.125
-0.11
-0.11
-0.125
-0.13
-0.1
-0.09
-0.085
-0.095
-0.1
-0.095
-0.08
-0.075
-0.075
-0.09
-0.09
-0.085
-0.08
-0.075
-0.065
-0.055
-0.055
-0.06
-0.04
-0.015
-0.01
-0.02
-0.025
-0.015
0.0
-0.005
0.005
0.005
-0.005
0.01
0.02
0.035
0.045
0.03
0.04
0.05
0.05
0.055
0.065
0.07
0.075
0.09
0.09
0.1
0.115
0.105
0.085
0.085
0.09
0.11
0.105
0.1
0.08
0.095
0.095
0.105
0.095
0.09
0.07
0.075
0.07
0.065
0.055
0.05
0.045
0.05
0.05
0.045
0.03
0.02
0.0
0.0
0.0
0.005
0.005
-0.005
-0.015
-0.015
-0.01
-0.005
-0.02
-0.02
-0.03
-0.03
-0.03
-0.03
-0.025
-0.025
-0.025
-0.005
0.005
-0.01
-0.04
-0.08
-0.09
-0.095
-0.1
-0.11
-0.105
-0.105
-0.12
-0.105
-0.095
-0.085
-0.08
-0.085
-0.11
-0.095
-0.095
-0.09
-0.09
-0.105
-0.105
-0.105
-0.09
-0.09
-0.1
-0.12
-0.115
-0.11
-0.08
-0.06
-0.06
-0.08
-0.09
-0.075
-0.055
-0.045
-0.05
-0.07
-0.095
-0.095
-0.105
-0.095
-0.085
-0.07
-0.075
-0.075
-0.075
-0.05
-0.04
-0.03
-0.025
-0.02
-0.01
-0.015
-0.02
-0.035
-0.07
-0.085
-0.08
-0.065
-0.08
-0.09
-0.1
-0.095
-0.08
-0.07
-0.07
-0.07
-0.08
-0.085
-0.09
-0.095
-0.1
-0.085
-0.1
-0.085
-0.085
-0.065
-0.06
-0.06
-0.07
-0.09
-0.09
-0.1
-0.115
-0.125
-0.14
-0.135
-0.115
-0.11
-0.125
-0.135
-0.135
-0.14
-0.13
-0.14
-0.145
-0.14
-0.14
-0.125
-0.115
-0.115
-0.125
-0.135
-0.15
-0.135
-0.14
-0.125
-0.12
-0.11
-0.09
-0.055
-0.01
0.05
0.145
0.255
0.345
0.42
0.495
0.59
0.685
0.765
0.835
0.875
0.88
0.825
0.73
0.62
0.515
0.36
0.15
-0.065
-0.225
-0.32
-0.365
-0.345
-0.295
-0.235
-0.185
-0.165
-0.175
-0.18
-0.185
-0.18
-0.185
-0.215
-0.235
-0.24
-0.225
-0.225
-0.23
-0.24
-0.27
-0.27
-0.255
-0.235
-0.23
-0.22
-0.215
-0.225
-0.225
-0.235
-0.225
-0.235
-0.245
-0.255
-0.225
-0.195
-0.165
-0.18
-0.205
-0.215
-0.21
-0.22
-0.22
-0.22
-0.24
-0.225
-0.215
-0.185
-0.175
-0.175
-0.185
-0.18
-0.175
-0.17
-0.175
-0.18
-0.18
-0.175
-0.16
-0.155
-0.15
-0.155
-0.18
-0.18
-0.175
-0.15
-0.135
-0.13
-0.135
-0.13
-0.115
-0.11
-0.11
-0.125
-0.14
-0.115
-0.105
-0.1
-0.09
-0.095
-0.09
-0.08
-0.065
-0.045
-0.045
-0.04
-0.055
-0.05
-0.04
-0.02
-0.01
-0.005
-0.02
-0.025
-0.015
0.01
0.01
0.03
0.03
0.015
0.01
0.02
0.02
0.0
-0.005
-0.005
-0.005
0.0
0.01
0.01
0.0
-0.005
-0.005
-0.005
-0.02
-0.04
-0.065
-0.06
-0.06
-0.035
-0.03
-0.025
-0.055
-0.065
-0.075
-0.07
-0.09
-0.13
-0.13
-0.11
-0.095
-0.08
-0.085
-0.09
-0.095
-0.085
-0.08
-0.085
-0.1
-0.115
-0.11
-0.115
-0.1
-0.105
-0.125
-0.16
-0.17
-0.175
-0.16
-0.135
-0.135
-0.145
-0.185
-0.185
-0.19
-0.185
-0.165
-0.16
-0.17
-0.185
-0.19
-0.175
-0.15
-0.155
-0.15
-0.15
-0.155
-0.15
-0.165
-0.18
-0.195
-0.2
-0.195
-0.165
-0.15
-0.14
-0.15
-0.14
-0.13
-0.125
-0.135
-0.14
-0.135
-0.11
-0.1
-0.07
-0.075
-0.085
-0.085
-0.055
-0.055
-0.04
-0.055
-0.1
-0.15
-0.16
-0.12
-0.095
-0.09
-0.105
-0.13
-0.14
-0.135
-0.14
-0.12
-0.115
-0.14
-0.145
-0.13
-0.115
-0.115
-0.105
-0.11
-0.095
-0.095
-0.095
-0.09
-0.095
-0.115
-0.13
-0.15
-0.145
-0.15
-0.145
-0.145
-0.145
-0.145
-0.14
-0.135
-0.14
-0.155
-0.175
-0.165
-0.17
-0.15
-0.14
-0.145
-0.14
-0.145
-0.155
-0.175
-0.195
-0.2
-0.165
-0.115
-0.035
0.06
0.16
0.255
0.355
0.425
0.51
0.6
0.705
0.775
0.845
0.86
0.81
0.72
0.605
0.495
0.37
0.185
0.005
-0.155
-0.27
-0.32
-0.305
-0.255
-0.195
-0.14
-0.125
-0.13
-0.13
-0.14
-0.155
-0.17
-0.185
-0.205
-0.205
-0.2
-0.205
-0.21
-0.23
-0.255
-0.255
-0.245
-0.215
-0.195
-0.2
-0.21
-0.2
-0.2
-0.185
-0.195
-0.205
-0.215
-0.2
-0.19
-0.19
-0.17
-0.185
-0.195
-0.2
-0.195
-0.195
-0.2
-0.21
-0.215
-0.2
-0.195
-0.19
-0.17
-0.16
-0.155
-0.16
-0.155
-0.16
-0.16
-0.135
-0.14
-0.14
-0.155
-0.16
-0.16
-0.125
-0.115
-0.115
-0.11
-0.105
-0.1
-0.105
-0.12
-0.12
-0.11
-0.09
-0.07
-0.08
-0.08
-0.065
-0.055
-0.055
-0.055
-0.06
-0.06
-0.03
-0.01
0.025
0.05
0.055
0.025
0.01
0.005
0.025
0.045
0.045
0.04
0.04
0.045
0.055
0.065
0.08
0.085
0.095
0.09
0.08
0.055
0.055
0.065
0.09
0.1
0.105
0.08
0.045
0.015
0.02
0.03
0.02
0.025
0.005
-0.01
-0.005
0.005
0.005
0.0
-0.01
-0.05
-0.045
-0.02
0.0
0.0
-0.03
-0.055
-0.045
-0.03
-0.01
-0.025
-0.05
-0.07
-0.07
-0.065
-0.04
-0.03
-0.03
-0.035
-0.035
-0.035
-0.04
-0.05
-0.04
-0.01
0.01
0.015
0.0
-0.01
-0.01
-0.015
-0.02
-0.04
-0.04
-0.06
-0.07
-0.07
-0.07
-0.055
-0.04
-0.04
-0.05
-0.06
-0.06
-0.05
-0.055
-0.075
-0.125
-0.155
-0.16
-0.14
-0.115
-0.105
-0.11
-0.14
-0.17
-0.185
-0.18
-0.17
-0.165
-0.16
-0.165
-0.15
-0.145
-0.14
-0.13
-0.13
-0.105
-0.1
-0.095
-0.1
-0.11
-0.115
-0.11
-0.12
-0.115
-0.13
-0.13
-0.115
-0.105
-0.1
-0.135
-0.135
-0.12
-0.085
-0.01
0.07
0.165
0.245
0.335
0.415
0.51
0.585
0.655
0.735
0.815
0.88
0.895
0.825
0.69
0.52
0.32
0.075
-0.12
-0.245
-0.34
-0.395
-0.385
-0.34
-0.275
-0.225
-0.185
-0.165
-0.175
-0.18
-0.18
-0.175
-0.15
-0.16
-0.19
-0.215
-0.2
-0.195
-0.195
-0.195
-0.2
-0.2
-0.175
-0.145
-0.14
-0.13
-0.14
-0.16
-0.165
-0.15
-0.13
-0.125
-0.115
-0.12
-0.12
-0.095
-0.09
-0.105
-0.115
-0.125
-0.11
-0.1
