Lead II
-0.68
-0.72
-0.75
-0.765
-0.77
-0.715
-0.67
-0.625
-0.605
-0.61
-0.605
-0.62
-0.61
-0.585
-0.595
-0.59
-0.605
-0.605
-0.59
-0.57
-0.575
-0.59
-0.59
-0.595
-0.59
-0.575
-0.57
-0.58
-0.575
-0.57
-0.555
-0.56
-0.545
-0.55
-0.555
-0.55
-0.54
-0.515
-0.505
-0.495
-0.485
-0.495
-0.495
-0.475
-0.46
-0.46
-0.47
-0.47
-0.425
-0.395
-0.375
-0.375
-0.385
-0.375
-0.365
-0.345
-0.33
-0.325
-0.32
-0.305
-0.28
-0.26
-0.26
-0.25
-0.24
-0.23
-0.2
-0.18
-0.18
-0.175
-0.19
-0.175
-0.155
-0.14
-0.155
-0.14
-0.13
-0.11
-0.115
-0.105
-0.11
-0.125
-0.155
-0.165
-0.17
-0.185
-0.23
-0.26
-0.3
-0.325
-0.355
-0.36
-0.405
-0.41
-0.45
-0.475
-0.48
-0.495
-0.495
-0.51
-0.53
-0.53
-0.535
-0.525
-0.52
-0.54
-0.56
-0.575
-0.56
-0.555
-0.565
-0.575
-0.585
-0.595
-0.59
-0.585
-0.58
-0.595
-0.595
-0.595
-0.59
-0.575
-0.585
-0.595
-0.61
-0.61
-0.595
-0.59
-0.605
-0.6
-0.61
-0.605
-0.59
-0.595
-0.59
-0.61
-0.62
-0.63
-0.625
-0.61
-0.61
-0.62
-0.63
-0.63
-0.615
-0.605
-0.605
-0.625
-0.63
-0.64
-0.625
-0.615
-0.615
-0.625
-0.64
-0.645
-0.66
-0.62
-0.61
-0.64
-0.64
-0.62
-0.63
-0.615
-0.625
-0.64
-0.635
-0.63
-0.615
-0.605
-0.6
-0.615
-0.63
-0.62
-0.63
-0.62
-0.615
-0.635
-0.64
-0.64
-0.65
-0.625
-0.615
-0.61
-0.62
-0.625
-0.625
-0.61
-0.595
-0.595
-0.62
-0.625
-0.595
-0.57
-0.585
-0.585
-0.575
-0.555
-0.55
-0.53
-0.535
-0.545
-0.57
-0.57
-0.57
-0.555
-0.56
-0.56
-0.59
-0.585
-0.59
-0.57
-0.59
-0.59
-0.61
-0.615
-0.61
-0.59
-0.6
-0.615
-0.62
-0.645
-0.635
-0.635
-0.63
-0.65
-0.685
-0.655
-0.635
-0.63
-0.64
-0.66
-0.665
-0.665
-0.67
-0.65
-0.665
-0.66
-0.69
-0.68
-0.68
-0.66
-0.655
-0.655
-0.68
-0.68
-0.665
-0.655
-0.64
-0.65
-0.675
-0.675
-0.67
-0.665
-0.675
-0.67
-0.675
-0.655
-0.645
-0.63
-0.635
-0.635
-0.635
-0.62
-0.61
-0.565
-0.515
-0.48
-0.45
-0.36
-0.26
-0.175
-0.15
-0.17
-0.22
-0.3
-0.405
-0.51
-0.61
-0.655
-0.63
-0.55
-0.46
-0.33
-0.24
-0.16
-0.14
-0.125
-0.19
-0.26
-0.35
-0.45
-0.545
-0.63
-0.65
-0.69
-0.745
-0.81
-0.87
-0.9
-0.885
-0.875
-0.835
-0.81
-0.8
-0.78
-0.75
-0.725
-0.725
-0.705
-0.71
-0.71
-0.7
-0.7
-0.7
-0.71
-0.71
-0.705
-0.7
-0.67
-0.675
-0.69
-0.69
-0.695
-0.68
-0.67
-0.67
-0.675
-0.68
-0.685
-0.66
-0.66
-0.63
-0.63
-0.62
-0.625
-0.61
-0.58
-0.56
-0.58
-0.57
-0.565
-0.545
-0.515
-0.5
-0.505
-0.49
-0.48
-0.45
-0.435
-0.4
-0.4
-0.385
-0.36
-0.32
-0.3
-0.275
-0.28
-0.275
-0.26
-0.245
-0.22
-0.205
-0.19
-0.185
-0.17
-0.15
-0.135
-0.125
-0.12
-0.115
-0.12
-0.115
-0.095
-0.11
-0.145
-0.16
-0.2
-0.215
-0.225
-0.26
-0.295
-0.34
-0.37
-0.4
-0.39
-0.4
-0.42
-0.43
-0.445
-0.45
-0.445
-0.45
-0.48
-0.485
-0.5
-0.5
-0.49
-0.49
-0.51
-0.52
-0.535
-0.52
-0.515
-0.515
-0.515
-0.525
-0.53
-0.53
-0.515
-0.51
-0.525
-0.53
-0.535
-0.52
-0.49
-0.49
-0.495
-0.515
-0.525
-0.515
-0.485
-0.485
-0.48
-0.495
-0.5
-0.495
-0.48
-0.49
-0.47
-0.49
-0.485
-0.475
-0.47
-0.455
-0.455
-0.485
-0.485
-0.475
-0.45
-0.445
-0.45
-0.46
-0.46
-0.45
-0.445
-0.42
-0.435
-0.445
-0.445
-0.445
-0.435
-0.43
-0.45
-0.455
-0.47
-0.47
-0.45
-0.445
-0.44
-0.46
-0.46
-0.45
-0.44
-0.435
-0.43
-0.445
-0.465
-0.47
-0.43
-0.435
-0.435
-0.445
-0.44
-0.425
-0.41
-0.395
-0.4
-0.4
-0.4
-0.41
-0.385
-0.375
-0.375
-0.39
-0.385
-0.36
-0.34
-0.33
-0.335
-0.345
-0.345
-0.355
-0.34
-0.33
-0.345
-0.36
-0.375
-0.36
-0.35
-0.365
-0.36
-0.385
-0.39
-0.385
-0.37
-0.37
-0.375
-0.405
-0.4
-0.39
-0.39
-0.385
-0.415
-0.425
-0.445
-0.42
-0.4
-0.38
-0.38
-0.4
-0.4
-0.405
-0.38
-0.37
-0.38
-0.38
-0.375
-0.385
-0.355
-0.345
-0.36
-0.365
-0.37
-0.35
-0.33
-0.33
-0.34
-0.36
-0.36
-0.35
-0.325
-0.33
-0.33
-0.34
-0.35
-0.35
-0.31
-0.295
-0.31
-0.315
-0.325
-0.305
-0.265
-0.265
-0.245
-0.23
-0.21
-0.165
-0.115
-0.04
0.025
0.07
0.12
0.17
0.235
0.225
0.205
0.145
0.07
0.0
-0.05
-0.035
-0.015
0.04
0.13
0.235
0.335
0.41
0.455
0.46
0.4
0.315
0.25
0.19
0.125
0.045
-0.025
-0.075
-0.13
-0.2
-0.285
-0.365
-0.42
-0.455
-0.475
-0.485
-0.47
-0.475
-0.445
-0.4
-0.37
-0.355
-0.325
-0.34
-0.345
-0.35
-0.34
-0.33
-0.34
-0.35
-0.35
-0.33
-0.33
-0.325
-0.325
-0.33
-0.34
-0.34
-0.325
-0.34
-0.345
-0.35
-0.345
-0.335
-0.31
-0.315
-0.3
-0.335
-0.315
-0.31
-0.3
-0.29
-0.305
-0.295
-0.295
-0.29
-0.27
-0.25
-0.26
-0.27
-0.27
-0.24
-0.235
-0.22
-0.225
-0.225
-0.23
-0.2
-0.185
-0.17
-0.165
-0.17
-0.16
-0.13
-0.115
-0.11
-0.1
-0.1
-0.095
-0.085
-0.05
-0.035
-0.03
-0.04
-0.025
-0.01
0.02
0.025
0.045
0.035
0.055
0.06
0.105
0.135
0.13
0.125
0.13
0.125
0.13
0.12
0.095
0.08
0.045
0.035
0.025
0.025
-0.005
-0.04
-0.06
-0.065
-0.075
-0.09
-0.12
-0.15
-0.175
-0.17
-0.18
-0.17
-0.195
-0.21
-0.225
-0.225
-0.225
-0.23
-0.235
-0.25
-0.26
-0.25
-0.215
-0.22
-0.23
-0.245
-0.255
-0.24
-0.22
-0.23
-0.235
-0.26
-0.25
-0.245
-0.24
-0.21
-0.215
-0.235
-0.24
-0.24
-0.22
-0.225
-0.23
-0.255
-0.235
-0.225
-0.21
-0.21
-0.22
-0.21
-0.215
-0.205
-0.185
-0.195
-0.215
-0.24
-0.265
-0.25
-0.245
-0.235
-0.255
-0.26
-0.26
-0.24
-0.235
-0.24
-0.245
-0.255
-0.26
-0.25
-0.255
-0.235
-0.24
-0.25
-0.265
-0.245
-0.24
-0.25
-0.26
-0.285
-0.285
-0.29
-0.26
-0.275
-0.28
-0.275
-0.29
-0.265
-0.255
-0.26
-0.265
-0.28
-0.28
-0.265
-0.255
-0.265
-0.265
-0.285
-0.28
-0.26
-0.235
-0.22
-0.22
-0.225
-0.235
-0.22
-0.22
-0.225
-0.23
-0.235
-0.25
-0.23
-0.22
-0.205
-0.22
-0.225
-0.23
-0.22
-0.21
-0.21
-0.22
-0.235
-0.25
-0.245
-0.255
-0.255
-0.28
-0.29
-0.3
-0.29
-0.28
-0.29
-0.295
-0.315
-0.33
-0.31
-0.295
-0.3
-0.32
-0.33
-0.35
-0.345
-0.33
-0.325
-0.32
-0.335
-0.35
-0.335
-0.33
-0.33
-0.34
-0.36
-0.36
-0.335
-0.325
-0.335
-0.355
-0.36
-0.365
-0.35
-0.34
-0.34
-0.355
-0.375
-0.38
-0.38
-0.37
-0.355
-0.355
-0.36
-0.36
-0.355
-0.335
-0.34
-0.335
-0.355
-0.355
-0.335
-0.305
-0.26
-0.245
-0.24
-0.2
-0.14
-0.055
0.045
0.15
0.235
0.28
0.31
0.305
0.28
0.225
0.155
0.16
0.2
0.255
0.36
0.46
0.555
0.655
0.735
0.765
0.765
0.65
0.525
0.435
0.375
0.325
0.25
0.155
0.045
-0.065
-0.18
-0.29
-0.365
-0.45
-0.52
-0.54
-0.54
-0.51
-0.49
-0.485
-0.48
-0.485
-0.46
-0.45
-0.455
-0.46
-0.485
-0.48
-0.46
-0.455
-0.445
-0.46
-0.46
-0.465
-0.48
-0.45
-0.425
-0.43
-0.445
-0.455
-0.45
-0.445
-0.43
-0.435
-0.455
-0.465
-0.45
-0.425
-0.41
-0.415
-0.43
-0.425
-0.42
-0.4
-0.37
-0.37
-0.385
-0.395
-0.395
-0.4
-0.375
-0.37
-0.385
-0.375
-0.375
-0.33
-0.33
-0.315
-0.315
-0.315
-0.295
-0.265
-0.25
-0.25
-0.27
-0.25
-0.245
-0.205
-0.195
-0.185
-0.18
-0.17
-0.165
-0.14
-0.13
-0.11
-0.1
-0.09
-0.08
-0.04
-0.03
-0.015
-0.015
-0.01
-0.02
0.0
-0.01
-0.04
-0.07
-0.08
-0.085
-0.085
-0.115
-0.145
-0.18
-0.21
-0.215
-0.225
-0.24
-0.25
-0.285
-0.305
-0.3
-0.3
-0.31
-0.315
-0.345
-0.35
-0.345
-0.34
-0.34
-0.355
-0.365
-0.39
-0.385
-0.365
-0.37
-0.38
-0.405
-0.41
-0.4
-0.385
-0.38
-0.38
-0.4
-0.415
-0.395
-0.38
-0.38
-0.385
-0.415
-0.4
-0.395
-0.38
-0.38
-0.385
-0.405
-0.415
-0.4
-0.385
-0.38
-0.375
-0.405
-0.41
-0.405
-0.405
-0.39
-0.39
-0.4
-0.415
-0.395
-0.405
-0.385
-0.4
-0.415
-0.42
-0.42
-0.415
-0.41
-0.4
-0.41
-0.42
-0.41
-0.4
-0.41
-0.41
-0.42
-0.435
-0.405
-0.4
-0.4
-0.41
-0.43
-0.425
-0.405
-0.4
-0.39
-0.4
-0.41
-0.43
-0.42
-0.395
-0.4
-0.395
-0.41
-0.41
-0.405
-0.39
-0.395
-0.4
-0.405
-0.42
-0.41
-0.38
-0.375
-0.38
-0.375
-0.375
-0.36
-0.35
-0.33
-0.34
-0.345
-0.345
-0.33
-0.315
-0.305
-0.3
-0.305
-0.325
-0.295
-0.29
-0.295
-0.305
-0.34
-0.33
-0.335
-0.31
-0.33
-0.335
-0.345
-0.365
-0.37
-0.355
-0.355
-0.36
-0.375
-0.38
-0.375
-0.37
-0.365
-0.38
-0.39
-0.395
-0.395
-0.39
-0.385
-0.385
-0.41
-0.415
-0.405
-0.405
-0.405
-0.42
-0.43
-0.435
-0.43
-0.41
-0.405
-0.425
-0.435
-0.43
-0.42
-0.415
-0.415
-0.42
-0.425
-0.435
-0.43
-0.42
-0.415
-0.42
-0.43
-0.445
-0.415
-0.41
-0.4
-0.395
-0.425
-0.42
-0.435
-0.42
-0.41
-0.41
-0.415
-0.39
-0.375
-0.345
-0.31
-0.29
-0.235
-0.185
-0.085
0.03
0.115
0.175
0.19
0.185
0.155
0.12
0.06
0.04
0.035
0.08
0.14
0.25
0.365
0.465
0.545
0.61
0.645
0.615
0.535
0.41
0.315
0.235
0.165
0.095
0.0
-0.115
-0.24
-0.37
-0.47
-0.525
-0.59
-0.65
-0.675
-0.675
-0.675
-0.635
-0.59
-0.58
-0.58
-0.585
-0.57
-0.555
-0.545
-0.555
-0.565
-0.575
-0.57
-0.54
-0.54
-0.54
-0.555
-0.56
-0.545
-0.53
-0.515
-0.53
-0.525
-0.535
-0.53
-0.52
-0.505
-0.5
-0.515
-0.525
-0.5
-0.485
-0.475
-0.475
-0.48
-0.485
-0.47
-0.45
-0.445
-0.435
-0.45
-0.45
-0.44
-0.42
-0.41
-0.41
-0.41
-0.405
-0.395
-0.36
-0.36
-0.355
-0.35
-0.34
-0.32
-0.305
-0.275
-0.275
-0.275
-0.27
-0.24
-0.23
-0.21
-0.2
-0.195
-0.2
-0.175
-0.145
-0.14
-0.13
-0.135
-0.12
-0.115
-0.08
-0.055
-0.055
-0.05
-0.05
-0.035
-0.005
-0.005
-0.01
-0.035
-0.065
-0.07
-0.085
-0.095
-0.12
-0.155
-0.17
-0.19
-0.2
-0.205
-0.23
-0.265
-0.275
-0.28
-0.265
-0.29
-0.305
-0.31
-0.32
-0.31
-0.305
-0.295
-0.31
-0.32
-0.32
-0.34
-0.305
-0.3
-0.315
-0.32
-0.355
-0.33
-0.315
-0.31
-0.32
-0.34
-0.34
-0.325
-0.325
-0.32
-0.325
-0.355
-0.345
-0.36
-0.32
-0.315
-0.325
-0.335
-0.35
-0.35
-0.335
-0.315
-0.32
-0.345
-0.34
-0.35
-0.32
-0.325
-0.325
-0.34
-0.345
-0.345
-0.33
-0.33
-0.33
-0.365
-0.355
-0.335
-0.345
-0.335
-0.345
-0.36
-0.35
-0.355
-0.345
-0.355
-0.35
-0.38
-0.375
-0.35
-0.34
-0.33
-0.335
-0.33
-0.36
-0.355
-0.34
-0.33
-0.34
-0.36
-0.37
-0.355
-0.34
-0.33
-0.34
-0.355
-0.35
-0.355
-0.34
-0.34
-0.335
-0.34
-0.355
-0.34
-0.32
-0.3
-0.295
-0.295
-0.295
-0.29
-0.275
-0.28
-0.27
-0.275
-0.285
-0.26
-0.255
-0.23
-0.25
-0.27
-0.295
-0.28
-0.29
-0.28
-0.305
-0.33
-0.365
-0.34
-0.345
-0.335
-0.335
-0.35
-0.365
-0.365
-0.355
-0.355
-0.37
-0.38
-0.405
-0.39
-0.38
-0.36
-0.37
-0.37
-0.415
-0.4
-0.395
-0.39
-0.39
-0.41
-0.42
-0.42
-0.415
-0.405
-0.405
-0.42
-0.425
-0.41
-0.405
-0.395
-0.405
-0.425
-0.43
-0.425
-0.415
-0.4
-0.405
-0.405
-0.41
-0.415
-0.395
-0.4
-0.395
-0.41
-0.41
-0.415
-0.37
-0.355
-0.35
-0.35
-0.325
-0.295
-0.23
-0.155
-0.08
-0.005
0.07
0.125
0.19
0.205
0.18
0.11
0.045
0.025
0.035
0.06
0.13
0.19
0.3
0.435
0.575
0.67
0.71
0.71
0.64
0.54
0.445
0.38
0.305
0.21
0.13
0.05
-0.04
-0.13
-0.26
-0.365
-0.445
-0.5
-0.545
-0.565
-0.565
-0.56
-0.555
-0.52
-0.495
-0.465
-0.475
-0.48
-0.49
-0.5
-0.475
-0.465
-0.48
-0.48
-0.485
-0.48
-0.47
-0.46
-0.47
-0.49
-0.49
-0.485
-0.48
-0.48
-0.46
-0.47
-0.475
-0.46
-0.45
-0.445
-0.45
-0.455
-0.45
-0.455
-0.425
-0.42
-0.425
-0.435
-0.45
-0.42
-0.405
-0.395
-0.375
-0.395
-0.4
-0.39
-0.36
-0.34
-0.335
-0.34
-0.34
-0.315
-0.29
-0.285
-0.265
-0.255
-0.255
-0.225
-0.21
-0.19
-0.17
-0.175
-0.16
-0.145
-0.125
-0.09
-0.095
-0.085
-0.095
-0.075
-0.055
-0.04
-0.02
-0.04
-0.03
-0.01
0.015
0.015
0.01
-0.005
-0.025
-0.03
-0.035
-0.055
-0.065
-0.11
-0.155
-0.16
-0.175
-0.175
-0.205
-0.235
-0.265
-0.265
-0.275
-0.265
-0.305
-0.32
-0.34
-0.34
-0.33
-0.335
-0.35
-0.335
-0.355
-0.355
-0.35
-0.34
-0.345
-0.35
-0.375
-0.355
-0.36
-0.34
-0.35
-0.365
-0.37
-0.375
-0.355
-0.335
-0.34
-0.35
-0.37
-0.36
-0.335
-0.325
-0.345
-0.355
-0.37
-0.36
-0.34
-0.33
-0.34
-0.355
-0.36
-0.355
-0.34
-0.33
-0.335
-0.34
-0.35
-0.35
-0.345
-0.335
-0.34
-0.355
-0.365
-0.355
-0.345
-0.34
-0.345
-0.345
-0.36
-0.355
-0.335
-0.33
-0.34
-0.345
-0.355
-0.36
-0.34
-0.325
-0.345
-0.36
-0.365
-0.36
-0.34
-0.335
-0.33
-0.355
-0.36
-0.355
-0.345
-0.34
-0.34
-0.36
-0.36
-0.36
-0.34
-0.33
-0.345
-0.36
-0.355
-0.32
-0.305
-0.285
-0.285
-0.285
-0.295
-0.295
-0.285
-0.275
-0.27
-0.285
-0.265
-0.255
-0.24
-0.235
-0.24
-0.265
-0.285
-0.295
-0.3
-0.31
-0.31
-0.32
-0.325
-0.32
-0.32
-0.315
-0.325
-0.345
-0.365
-0.34
-0.36
-0.335
-0.34
-0.355
-0.355
-0.35
-0.345
-0.355
-0.37
-0.39
-0.4
-0.39
-0.375
-0.365
-0.38
-0.41
-0.405
-0.4
-0.385
-0.375
-0.38
-0.385
-0.38
-0.375
-0.36
-0.355
-0.36
-0.385
-0.4
-0.39
-0.39
-0.395
-0.43
-0.455
-0.46
-0.445
-0.43
-0.385
-0.4
-0.415
-0.41
-0.4
-0.38
-0.37
-0.355
-0.355
-0.35
-0.33
-0.28
-0.235
-0.185
-0.125
-0.045
0.06
0.14
0.205
0.215
0.175
0.105
0.015
-0.04
-0.05
-0.02
0.04
0.185
0.335
0.495
0.61
0.655
0.64
0.55
0.435
0.36
0.28
0.19
0.1
0.02
-0.08
-0.18
-0.29
-0.405
-0.505
-0.565
-0.59
-0.58
-0.555
-0.55
-0.53
-0.525
-0.495
-0.48
-0.455
-0.465
-0.465
-0.49
-0.475
-0.47
-0.47
-0.48
-0.47
-0.48
-0.465
-0.44
-0.43
-0.44
-0.455
-0.465
-0.46
-0.44
-0.42
-0.44
-0.445
-0.44
-0.445
-0.43
-0.415
-0.39
-0.405
-0.41
-0.405
-0.375
-0.36
-0.355
-0.36
-0.365
-0.365
-0.355
-0.325
-0.315
-0.315
-0.31
-0.295
-0.285
-0.26
-0.27
-0.26
-0.25
-0.25
-0.22
-0.195
-0.17
-0.17
-0.165
-0.17
-0.15
-0.11
-0.11
-0.105
-0.095
-0.09
-0.07
-0.05
-0.035
-0.035
-0.04
-0.025
0.0
0.005
0.03
0.02
0.02
0.025
0.035
0.03
0.02
-0.015
-0.05
-0.06
-0.065
-0.1
-0.12
-0.16
-0.19
-0.185
-0.2
-0.215
-0.22
-0.245
-0.265
-0.28
-0.285
-0.29
-0.305
-0.33
-0.33
-0.325
-0.315
-0.305
-0.31
-0.34
-0.35
-0.335
-0.325
-0.325
-0.335
-0.355
-0.36
-0.36
-0.36
-0.33
-0.33
-0.355
-0.365
-0.365
-0.355
-0.345
-0.35
-0.36
-0.37
-0.355
-0.345
-0.34
-0.34
-0.365
-0.355
-0.36
-0.35
-0.33
-0.36
-0.355
-0.37
-0.37
-0.35
-0.34
-0.355
-0.365
-0.39
-0.39
-0.365
-0.36
-0.345
-0.365
-0.38
-0.385
-0.37
-0.355
-0.37
-0.385
-0.395
-0.395
-0.375
-0.375
-0.385
-0.4
-0.4
-0.395
-0.375
-0.37
-0.38
-0.39
-0.41
-0.4
-0.395
-0.385
-0.395
-0.39
-0.41
-0.415
-0.41
-0.41
-0.4
-0.415
-0.425
-0.4
-0.385
-0.38
-0.365
-0.375
-0.375
-0.365
-0.36
-0.345
-0.36
-0.35
-0.36
-0.355
-0.33
-0.325
-0.32
-0.33
-0.34
-0.35
-0.345
-0.325
-0.33
-0.355
-0.365
-0.375
-0.37
-0.365
-0.38
-0.4
-0.41
-0.405
-0.405
-0.385
-0.405
-0.41
-0.43
-0.44
-0.415
-0.43
-0.45
-0.47
-0.465
-0.455
-0.43
-0.42
-0.435
-0.445
-0.46
-0.455
-0.455
-0.44
-0.455
-0.465
-0.46
-0.465
-0.45
-0.44
-0.45
-0.46
-0.48
-0.47
-0.45
-0.43
-0.445
-0.46
-0.475
-0.485
-0.485
-0.45
-0.45
-0.46
-0.46
-0.45
-0.44
-0.435
-0.42
-0.425
-0.405
-0.365
-0.32
-0.235
-0.155
-0.08
-0.03
-0.005
0.015
-0.02
-0.11
-0.23
-0.32
-0.335
-0.26
-0.145
-0.02
0.08
0.19
0.27
0.3
0.265
0.135
-0.005
-0.13
-0.22
-0.295
-0.385
-0.495
-0.61
-0.695
-0.755
-0.765
-0.755
-0.755
-0.735
-0.705
-0.66
-0.585
-0.545
-0.54
-0.54
-0.545
-0.54
-0.535
-0.495
-0.51
-0.52
-0.525
-0.515
-0.505
-0.5
-0.495
-0.5
-0.51
-0.49
-0.475
-0.47
-0.47
-0.475
-0.475
-0.485
-0.465
-0.45
-0.445
-0.465
-0.45
-0.43
-0.405
-0.395
-0.405
-0.405
-0.39
-0.38
-0.36
-0.345
-0.33
-0.33
-0.31
-0.32
-0.29
-0.255
-0.26
-0.265
-0.265
-0.24
-0.205
-0.205
-0.185
-0.17
-0.17
-0.15
-0.11
-0.1
-0.1
-0.1
-0.105
-0.095
-0.08
-0.045
-0.035
-0.045
-0.05
-0.03
-0.02
-0.015
-0.005
-0.03
-0.035
-0.045
-0.045
-0.06
-0.09
-0.12
-0.135
-0.165
-0.18
-0.185
-0.22
-0.255
-0.3
-0.32
-0.33
-0.335
-0.34
-0.36
-0.385
-0.385
-0.39
-0.385
-0.405
-0.415
-0.435
-0.435
-0.425
-0.405
-0.43
-0.44
-0.465
-0.46
-0.45
-0.435
-0.45
-0.47
-0.47
-0.46
-0.445
-0.43
-0.435
-0.46
-0.485
-0.475
-0.46
-0.445
-0.445
-0.455
-0.47
-0.465
-0.46
-0.44
-0.45
-0.465
-0.495
-0.465
-0.465
-0.44
-0.45
-0.465
-0.475
-0.465
-0.455
-0.445
-0.46
-0.47
-0.48
-0.47
-0.465
-0.45
-0.465
-0.47
-0.49
-0.485
-0.475
-0.475
-0.46
-0.47
-0.49
-0.49
-0.485
-0.46
-0.47
-0.485
-0.5
-0.495
-0.49
-0.48
-0.485
-0.485
-0.495
-0.5
-0.495
-0.49
-0.485
-0.5
-0.53
-0.52
-0.5
-0.48
-0.495
-0.485
-0.49
-0.485
-0.45
-0.445
-0.445
-0.455
-0.465
-0.46
-0.45
-0.43
-0.425
-0.435
-0.44
-0.42
-0.395
-0.39
-0.39
-0.415
-0.435
-0.435
-0.425
-0.415
-0.425
-0.455
-0.465
-0.46
-0.45
-0.445
-0.455
-0.48
-0.505
-0.505
-0.49
-0.485
-0.485
-0.51
-0.53
-0.525
-0.525
-0.505
-0.515
-0.52
-0.515
-0.505
-0.505
-0.505
-0.505
-0.51
-0.535
-0.51
-0.515
-0.495
-0.5
-0.515
-0.53
-0.53
-0.515
-0.495
-0.495
-0.5
-0.51
-0.505
-0.49
-0.48
-0.485
-0.49
-0.505
-0.5
-0.48
-0.45
-0.46
-0.475
-0.49
-0.465
-0.445
-0.43
-0.41
-0.395
-0.375
-0.325
-0.27
-0.2
-0.135
-0.07
-0.035
-0.02
0.0
-0.045
-0.15
-0.27
-0.395
-0.49
-0.46
-0.375
-0.29
-0.195
-0.095
0.005
0.07
0.105
0.04
-0.075
-0.185
-0.285
-0.35
-0.41
-0.435
-0.495
-0.56
-0.59
-0.62
-0.635
-0.65
-0.63
-0.6
-0.545
-0.485
-0.43
-0.41
-0.39
-0.405
-0.385
-0.375
-0.35
-0.37
-0.355
-0.365
-0.375
-0.375
-0.335
-0.34
-0.345
-0.34
-0.35
-0.33
-0.315
-0.325
-0.32
-0.33
-0.305
-0.295
-0.28
-0.28
-0.295
-0.295
-0.285
-0.26
-0.245
-0.235
-0.24
-0.245
-0.225
-0.195
-0.17
-0.16
-0.145
-0.15
-0.135
-0.11
-0.09
-0.085
-0.075
-0.08
-0.05
-0.025
-0.005
0.005
0.01
0.015
0.03
0.045
0.07
0.07
0.065
0.065
0.08
0.12
0.135
0.14
0.145
0.14
0.165
0.175
0.195
0.175
0.155
0.12
0.115
0.09
0.085
0.05
-0.005
-0.02
-0.055
-0.07
-0.085
-0.095
-0.125
-0.15
-0.165
-0.16
-0.16
-0.175
-0.19
-0.205
-0.215
-0.2
-0.215
-0.21
-0.22
-0.23
-0.22
-0.225
-0.2
-0.205
-0.225
-0.235
-0.235
-0.22
-0.225
-0.235
-0.25
-0.245
-0.23
-0.235
-0.215
-0.21
-0.23
-0.235
-0.24
-0.23
-0.21
-0.21
-0.215
-0.23
-0.215
-0.2
-0.2
-0.2
-0.21
-0.22
-0.215
-0.2
-0.185
-0.2
-0.21
-0.22
-0.225
-0.21
-0.2
-0.195
-0.215
-0.23
-0.215
-0.22
-0.215
-0.21
-0.235
-0.24
-0.245
-0.235
-0.23
-0.23
-0.255
-0.26
-0.25
-0.25
-0.22
-0.225
-0.25
-0.27
-0.255
-0.245
-0.23
-0.24
-0.255
-0.26
-0.26
-0.245
-0.23
-0.24
-0.255
-0.26
-0.245
-0.23
-0.22
-0.215
-0.22
-0.235
-0.215
-0.205
-0.185
-0.195
-0.195
-0.2
-0.21
-0.18
-0.17
-0.145
-0.155
-0.17
-0.175
-0.17
-0.155
-0.17
-0.19
-0.215
-0.21
-0.19
-0.195
-0.2
-0.225
-0.24
-0.245
-0.225
-0.225
-0.23
-0.245
-0.255
-0.27
-0.27
-0.23
-0.24
-0.255
-0.275
-0.285
-0.285
-0.28
-0.275
-0.3
-0.285
-0.285
-0.28
-0.28
-0.275
-0.295
-0.295
-0.29
-0.275
-0.265
-0.275
-0.28
-0.295
-0.29
-0.305
-0.265
-0.27
-0.29
-0.3
-0.285
-0.28
-0.27
-0.275
-0.29
-0.295
-0.305
-0.275
-0.26
-0.28
-0.285
-0.285
-0.29
-0.27
-0.255
-0.24
-0.245
-0.225
-0.195
-0.14
-0.095
-0.035
0.025
0.075
0.125
0.185
0.2
0.205
0.155
0.07
0.0
-0.04
-0.005
0.05
0.12
0.22
0.36
0.485
0.575
0.62
0.585
0.48
0.375
0.29
0.215
0.125
0.04
-0.07
-0.17
-0.295
-0.385
-0.475
-0.535
-0.57
-0.58
-0.55
-0.495
-0.47
-0.445
-0.425
-0.405
-0.38
-0.365
-0.37
-0.38
-0.39
-0.385
-0.38
-0.37
-0.36
-0.375
-0.385
-0.375
-0.36
-0.355
-0.345
-0.355
-0.365
-0.365
-0.345
-0.34
-0.34
-0.34
-0.35
-0.345
-0.33
-0.31
-0.305
-0.315
-0.33
-0.32
-0.305
-0.265
-0.27
-0.28
-0.28
-0.265
-0.26
-0.23
-0.22
-0.21
-0.225
-0.2
-0.21
-0.18
-0.155
-0.165
-0.15
-0.135
-0.115
-0.085
-0.075
-0.09
-0.09
-0.085
-0.045
-0.035
-0.03
-0.03
-0.035
-0.015
0.02
0.05
0.05
0.04
0.045
0.05
0.085
0.085
0.095
0.105
0.095
0.075
0.09
0.105
0.09
0.06
0.03
0.005
0.0
0.01
-0.025
-0.065
-0.09
-0.105
-0.12
-0.125
-0.14
-0.15
-0.18
-0.19
-0.175
-0.185
-0.19
-0.215
-0.235
-0.245
-0.235
-0.215
-0.225
-0.24
-0.265
-0.25
-0.245
-0.235
-0.245
-0.26
-0.265
-0.26
-0.255
-0.24
-0.245
-0.26
-0.27
-0.26
-0.24
-0.245
-0.245
-0.26
-0.27
-0.255
-0.25
-0.24
-0.245
-0.255
-0.285
-0.285
-0.255
-0.25
-0.26
-0.265
-0.27
-0.28
-0.275
-0.26
-0.26
-0.265
-0.28
-0.275
-0.265
-0.26
-0.265
-0.285
-0.29
-0.29
-0.27
-0.26
-0.265
-0.28
-0.295
-0.285
-0.29
-0.275
-0.27
-0.285
-0.295
-0.295
-0.275
-0.265
-0.27
-0.285
-0.305
-0.3
-0.285
-0.275
-0.285
-0.295
-0.31
-0.305
-0.3
-0.28
-0.29
-0.315
-0.325
-0.32
-0.295
-0.275
-0.28
-0.305
-0.31
-0.305
-0.27
-0.255
-0.26
-0.285
-0.275
-0.27
-0.25
-0.245
-0.24
-0.255
-0.26
-0.26
-0.24
-0.2
-0.21
-0.21
-0.235
-0.235
-0.225
-0.21
-0.215
-0.23
-0.235
-0.255
-0.26
-0.25
-0.25
-0.27
-0.285
-0.285
-0.28
-0.285
-0.285
-0.295
-0.31
-0.31
-0.315
-0.295
-0.305
-0.31
-0.32
-0.325
-0.32
-0.32
-0.325
-0.34
-0.34
-0.335
-0.32
-0.33
-0.335
-0.345
-0.36
-0.36
-0.35
-0.325
-0.33
-0.355
-0.37
-0.375
-0.36
-0.345
-0.36
-0.355
-0.36
-0.36
-0.345
-0.34
-0.34
-0.345
-0.36
-0.365
-0.355
-0.33
-0.345
-0.36
-0.37
-0.365
-0.345
-0.325
-0.345
-0.335
-0.35
-0.345
-0.305
-0.275
-0.25
-0.235
-0.2
-0.145
-0.07
-0.005
0.04
0.065
0.065
0.04
-0.005
-0.055
-0.15
-0.21
-0.22
-0.16
-0.055
0.08
0.155
0.28
0.35
0.4
0.435
0.405
0.32
0.19
0.075
-0.005
-0.095
-0.165
-0.265
-0.36
-0.485
-0.585
-0.635
-0.66
-0.685
-0.69
-0.68
-0.62
-0.575
-0.52
-0.495
-0.46
-0.45
-0.43
-0.405
-0.395
-0.4
-0.405
-0.41
-0.4
-0.385
-0.375
-0.37
-0.395
-0.385
-0.385
-0.37
-0.365
-0.355
-0.37
-0.37
-0.375
-0.35
-0.345
-0.33
-0.35
-0.345
-0.345
-0.325
-0.315
-0.31
-0.32
-0.315
-0.33
-0.29
-0.255
-0.26
-0.275
-0.26
-0.25
-0.23
-0.205
-0.2
-0.21
-0.215
-0.19
-0.17
-0.15
-0.145
-0.14
-0.135
-0.125
-0.105
-0.085
-0.075
-0.075
-0.065
-0.055
-0.03
-0.015
-0.015
-0.005
-0.005
-0.005
0.02
0.045
0.06
0.055
0.06
0.065
0.085
0.095
0.1
0.1
0.075
0.085
0.085
0.095
0.075
0.045
0.02
-0.005
-0.02
-0.04
-0.055
-0.09
-0.125
-0.135
-0.14
-0.145
-0.17
-0.21
-0.21
-0.22
-0.225
-0.215
-0.22
-0.24
-0.26
-0.255
-0.255
-0.235
-0.245
-0.26
-0.29
-0.27
-0.265
-0.25
-0.25
-0.265
-0.285
-0.295
-0.265
-0.26
-0.26
-0.275
-0.285
-0.265
-0.26
-0.26
-0.245
-0.26
-0.285
-0.285
-0.265
-0.245
-0.25
-0.26
-0.28
-0.27
-0.26
-0.24
-0.25
-0.26
-0.28
-0.275
-0.27
-0.25
-0.25
-0.275
-0.28
-0.27
-0.26
-0.25
-0.265
-0.27
-0.28
-0.29
-0.27
-0.255
-0.275
-0.285
-0.285
-0.295
-0.28
-0.265
-0.27
-0.28
-0.29
-0.29
-0.28
-0.265
-0.275
-0.295
-0.315
-0.315
-0.295
-0.285
-0.295
-0.3
-0.32
-0.31
-0.295
-0.285
-0.29
-0.295
-0.315
-0.32
-0.3
-0.295
-0.3
-0.3
-0.315
-0.315
-0.3
-0.27
-0.26
-0.265
-0.265
-0.285
-0.26
-0.255
-0.255
-0.255
-0.26
-0.26
-0.235
-0.215
-0.22
-0.21
-0.255
-0.22
-0.22
-0.215
-0.23
-0.24
-0.255
-0.255
-0.245
-0.235
-0.245
-0.27
-0.29
-0.3
-0.275
-0.275
-0.27
-0.295
-0.315
-0.305
-0.305
-0.29
-0.315
-0.31
-0.335
-0.35
-0.345
-0.34
-0.34
-0.335
-0.34
-0.345
-0.335
-0.335
-0.345
-0.36
-0.37
-0.37
-0.36
-0.34
-0.335
-0.35
-0.36
-0.36
-0.36
-0.35
-0.34
-0.35
-0.37
-0.36
-0.35
-0.335
-0.345
-0.355
-0.365
-0.37
-0.36
-0.335
-0.345
-0.355
-0.355
-0.36
-0.345
-0.315
-0.31
-0.33
-0.32
-0.295
-0.255
-0.21
-0.185
-0.135
-0.08
-0.01
0.05
0.1
0.105
0.085
0.025
-0.055
-0.13
-0.18
-0.175
-0.14
-0.055
0.05
0.165
0.285
0.385
0.42
0.435
0.405
0.33
0.23
0.105
0.0
-0.09
-0.185
-0.265
-0.355
-0.445
-0.55
-0.63
-0.69
-0.705
-0.705
-0.685
-0.665
-0.625
-0.575
-0.515
-0.475
-0.455
-0.43
-0.43
-0.415
-0.405
-0.395
-0.39
-0.405
-0.41
-0.405
-0.38
-0.37
-0.36
-0.385
-0.385
-0.385
-0.365
-0.36
-0.355
-0.36
-0.38
-0.37
-0.37
-0.33
-0.335
-0.345
-0.36
-0.34
-0.345
-0.315
-0.31
-0.32
-0.305
-0.305
-0.28
-0.26
-0.255
-0.255
-0.26
-0.26
-0.25
-0.215
-0.2
-0.215
-0.2
-0.195
-0.175
-0.155
-0.14
-0.14
-0.135
-0.13
-0.11
-0.075
-0.085
-0.085
-0.07
-0.06
-0.03
-0.005
-0.005
-0.01
0.0
0.005
0.03
0.06
0.055
0.05
0.06
0.055
0.075
0.105
0.11
0.115
0.105
0.105
0.115
0.135
0.115
0.095
0.065
0.045
0.035
0.03
0.0
-0.035
-0.05
-0.07
-0.085
-0.11
-0.125
-0.15
-0.185
-0.195
-0.2
-0.19
-0.2
-0.225
-0.245
-0.25
-0.25
-0.245
-0.24
-0.255
-0.28
-0.285
-0.27
-0.26
-0.27
-0.275
-0.295
-0.285
-0.28
-0.27
-0.27
-0.28
-0.295
-0.29
-0.275
-0.27
-0.275
-0.285
-0.305
-0.295
-0.285
-0.27
-0.275
-0.29
-0.3
-0.295
-0.295
-0.275
-0.26
-0.275
-0.285
-0.29
-0.29
-0.28
-0.275
-0.285
-0.3
-0.285
-0.28
-0.275
-0.265
-0.285
-0.295
-0.285
-0.29
-0.285
-0.285
-0.29
-0.31
-0.3
-0.295
-0.28
-0.285
-0.315
-0.32
-0.315
-0.32
-0.3
-0.315
-0.32
-0.32
-0.32
-0.335
-0.31
-0.31
-0.315
-0.325
-0.345
-0.33
-0.32
-0.32
-0.32
-0.32
-0.33
-0.32
-0.305
-0.315
-0.32
-0.31
-0.315
-0.29
-0.265
-0.28
-0.285
-0.3
-0.28
-0.265
-0.26
-0.245
-0.26
-0.255
-0.24
-0.23
-0.22
-0.235
-0.255
-0.275
-0.28
-0.27
-0.26
-0.275
-0.285
-0.3
-0.305
-0.3
-0.3
-0.31
-0.32
-0.335
-0.33
-0.32
-0.325
-0.33
-0.335
-0.355
-0.36
-0.36
-0.34
-0.35
-0.36
-0.355
-0.36
-0.36
-0.365
-0.355
-0.375
-0.385
-0.385
-0.37
-0.36
-0.37
-0.38
-0.385
-0.395
-0.375
-0.365
-0.365
-0.37
-0.395
-0.4
-0.375
-0.36
-0.37
-0.39
-0.395
-0.385
-0.38
-0.35
-0.35
-0.35
-0.365
-0.355
-0.315
-0.285
-0.245
-0.215
-0.18
-0.095
-0.005
0.065
0.085
0.025
-0.095
-0.22
-0.27
-0.185
-0.04
0.125
0.28
0.375
0.42
0.385
0.22
0.07
-0.09
-0.19
-0.285
-0.375
-0.5
-0.61
-0.71
