Lead II
0.72
0.665
0.59
0.5
0.42
0.335
0.255
0.14
0.025
-0.08
-0.185
-0.3
-0.39
-0.535
-0.66
-0.785
-0.91
-1.035
-1.17
-1.29
-1.405
-1.49
-1.56
-1.605
-1.67
-1.735
-1.8
-1.815
-1.815
-1.81
-1.765
-1.745
-1.73
-1.69
-1.635
-1.545
-1.425
-1.305
-1.185
-1.07
-0.975
-0.91
-0.885
-0.885
-0.885
-0.85
-0.8
-0.73
-0.675
-0.595
-0.53
-0.46
-0.4
-0.305
-0.24
-0.185
-0.135
-0.095
-0.04
0.0
0.025
0.035
0.04
0.055
0.07
0.085
0.105
0.1
0.095
0.105
0.125
0.135
0.155
0.145
0.13
0.135
0.155
0.18
0.195
0.185
0.185
0.2
0.205
0.22
0.23
0.235
0.225
0.225
0.255
0.285
0.29
0.3
0.31
0.315
0.345
0.375
0.375
0.38
0.37
0.37
0.39
0.415
0.43
0.44
0.445
0.465
0.52
0.56
0.575
0.59
0.585
0.605
0.63
0.66
0.68
0.695
0.705
0.72
0.74
0.765
0.805
0.79
0.805
0.8
0.825
0.845
0.85
0.85
0.84
0.84
0.855
0.86
0.855
0.84
0.8
0.795
0.785
0.775
0.775
0.73
0.7
0.655
0.65
0.63
0.59
0.56
0.515
0.46
0.45
0.415
0.38
0.335
0.27
0.23
0.205
0.19
0.165
0.13
0.1
0.065
0.07
0.065
0.02
0.02
-0.01
-0.04
-0.065
-0.065
-0.065
-0.085
-0.11
-0.135
-0.13
-0.13
-0.14
-0.145
-0.165
-0.175
-0.155
-0.14
-0.145
-0.165
-0.175
-0.18
-0.18
-0.165
-0.155
-0.17
-0.17
-0.18
-0.175
-0.165
-0.17
-0.175
-0.205
-0.21
-0.205
-0.19
-0.2
-0.22
-0.22
-0.22
-0.215
-0.2
-0.2
-0.21
-0.245
-0.245
-0.23
-0.21
-0.2
-0.205
-0.215
-0.215
-0.2
-0.185
-0.195
-0.19
-0.21
-0.225
-0.205
-0.195
-0.195
-0.205
-0.215
-0.215
-0.215
-0.195
-0.19
-0.2
-0.24
-0.245
-0.24
-0.225
-0.225
-0.225
-0.245
-0.25
-0.235
-0.235
-0.23
-0.24
-0.25
-0.265
-0.265
-0.25
-0.245
-0.255
-0.275
-0.27
-0.25
-0.245
-0.255
-0.25
-0.275
-0.295
-0.28
-0.28
-0.28
-0.295
-0.305
-0.31
-0.295
-0.29
-0.27
-0.28
-0.29
-0.28
-0.255
-0.245
-0.25
-0.255
-0.275
-0.275
-0.27
-0.245
-0.25
-0.255
-0.265
-0.28
-0.275
-0.245
-0.235
-0.25
-0.255
-0.25
-0.25
-0.23
-0.225
-0.245
-0.255
-0.255
-0.245
-0.235
-0.23
-0.24
-0.255
-0.27
-0.25
-0.24
-0.24
-0.24
-0.25
-0.23
-0.22
-0.21
-0.185
-0.17
-0.175
-0.155
-0.07
0.085
0.405
0.825
1.145
1.245
1.125
0.925
0.805
0.745
0.69
0.615
0.55
0.48
0.39
0.305
0.2
0.105
0.0
-0.09
-0.185
-0.29
-0.435
-0.555
-0.68
-0.79
-0.935
-1.085
-1.235
-1.35
-1.435
-1.495
-1.59
-1.675
-1.75
-1.805
-1.835
-1.835
-1.855
-1.84
-1.845
-1.815
-1.765
-1.705
-1.65
-1.6
-1.52
-1.425
-1.3
-1.18
-1.065
-0.97
-0.925
-0.89
-0.855
-0.815
-0.76
-0.72
-0.675
-0.615
-0.555
-0.485
-0.435
-0.365
-0.31
-0.265
-0.195
-0.14
-0.09
-0.06
-0.02
-0.005
0.03
0.05
0.065
0.08
0.08
0.095
0.105
0.125
0.14
0.14
0.13
0.135
0.165
0.18
0.19
0.19
0.2
0.19
0.21
0.23
0.25
0.24
0.23
0.235
0.255
0.28
0.285
0.285
0.31
0.31
0.325
0.36
0.365
0.365
0.355
0.365
0.38
0.415
0.425
0.425
0.42
0.44
0.46
0.505
0.52
0.53
0.535
0.54
0.57
0.605
0.63
0.645
0.65
0.655
0.7
0.73
0.755
0.76
0.755
0.785
0.81
0.845
0.865
0.87
0.845
0.885
0.895
0.925
0.93
0.93
0.92
0.915
0.93
0.93
0.93
0.915
0.89
0.87
0.88
0.86
0.85
0.825
0.785
0.75
0.74
0.735
0.7
0.665
0.61
0.555
0.545
0.51
0.47
0.425
0.37
0.33
0.305
0.285
0.26
0.22
0.18
0.135
0.11
0.085
0.08
0.035
0.005
-0.025
-0.04
-0.045
-0.055
-0.09
-0.115
-0.12
-0.12
-0.12
-0.115
-0.14
-0.15
-0.165
-0.165
-0.145
-0.15
-0.15
-0.16
-0.15
-0.155
-0.145
-0.145
-0.165
-0.175
-0.175
-0.17
-0.155
-0.145
-0.16
-0.17
-0.155
-0.16
-0.15
-0.14
-0.15
-0.17
-0.175
-0.165
-0.155
-0.15
-0.165
-0.185
-0.2
-0.19
-0.185
-0.18
-0.19
-0.205
-0.2
-0.195
-0.19
-0.18
-0.205
-0.23
-0.225
-0.22
-0.23
-0.215
-0.23
-0.235
-0.225
-0.205
-0.19
-0.2
-0.2
-0.22
-0.215
-0.2
-0.19
-0.195
-0.205
-0.22
-0.225
-0.205
-0.21
-0.205
-0.215
-0.22
-0.24
-0.22
-0.2
-0.215
-0.215
-0.235
-0.23
-0.23
-0.225
-0.235
-0.245
-0.26
-0.295
-0.275
-0.27
-0.27
-0.27
-0.275
-0.285
-0.265
-0.25
-0.235
-0.235
-0.25
-0.265
-0.255
-0.25
-0.255
-0.27
-0.26
-0.27
-0.245
-0.235
-0.22
-0.235
-0.25
-0.25
-0.24
-0.23
-0.22
-0.23
-0.235
-0.24
-0.235
-0.225
-0.205
-0.22
-0.24
-0.25
-0.235
-0.215
-0.205
-0.215
-0.225
-0.23
-0.22
-0.215
-0.2
-0.22
-0.22
-0.245
-0.22
-0.22
-0.21
-0.19
-0.195
-0.155
-0.075
0.12
0.515
0.975
1.22
1.115
0.89
0.74
0.685
0.635
0.555
0.475
0.39
0.285
0.205
0.095
-0.025
-0.12
-0.215
-0.325
-0.445
-0.57
-0.71
-0.845
-0.98
-1.12
-1.24
-1.35
-1.445
-1.555
-1.625
-1.695
-1.74
-1.785
-1.82
-1.83
-1.81
-1.765
-1.735
-1.7
-1.68
-1.61
-1.505
-1.37
-1.25
-1.125
-1.025
-0.935
-0.895
-0.855
-0.825
-0.805
-0.75
-0.7
-0.61
-0.525
-0.455
-0.4
-0.335
-0.265
-0.21
-0.115
-0.08
-0.035
-0.015
0.005
0.03
0.06
0.085
0.095
0.085
0.1
0.105
0.13
0.135
0.125
0.135
0.13
0.135
0.16
0.175
0.17
0.18
0.18
0.205
0.225
0.23
0.24
0.22
0.22
0.22
0.245
0.255
0.26
0.265
0.28
0.3
0.345
0.375
0.38
0.39
0.4
0.42
0.445
0.46
0.47
0.485
0.5
0.525
0.56
0.565
0.59
0.595
0.615
0.645
0.68
0.695
0.71
0.71
0.725
0.76
0.79
0.8
0.79
0.8
0.81
0.805
0.82
0.83
0.81
0.8
0.795
0.8
0.8
0.78
0.74
0.72
0.705
0.675
0.67
0.65
0.62
0.58
0.535
0.52
0.5
0.465
0.415
0.365
0.33
0.3
0.295
0.255
0.21
0.15
0.13
0.09
0.095
0.06
0.005
-0.015
-0.05
-0.05
-0.035
-0.065
-0.085
-0.115
-0.125
-0.13
-0.125
-0.125
-0.14
-0.16
-0.16
-0.165
-0.145
-0.145
-0.15
-0.175
-0.195
-0.175
-0.175
-0.195
-0.21
-0.21
-0.21
-0.185
-0.17
-0.18
-0.175
-0.19
-0.185
-0.175
-0.175
-0.17
-0.19
-0.2
-0.21
-0.19
-0.16
-0.18
-0.185
-0.215
-0.21
-0.2
-0.18
-0.195
-0.215
-0.23
-0.225
-0.225
-0.21
-0.21
-0.215
-0.255
-0.25
-0.245
-0.245
-0.23
-0.245
-0.255
-0.26
-0.25
-0.255
-0.255
-0.27
-0.29
-0.29
-0.28
-0.275
-0.285
-0.3
-0.305
-0.295
-0.285
-0.265
-0.265
-0.265
-0.27
-0.275
-0.265
-0.24
-0.245
-0.25
-0.265
-0.27
-0.25
-0.235
-0.24
-0.245
-0.26
-0.265
-0.255
-0.25
-0.245
-0.255
-0.27
-0.265
-0.255
-0.24
-0.23
-0.27
-0.28
-0.29
-0.29
-0.275
-0.26
-0.255
-0.265
-0.26
-0.255
-0.26
-0.265
-0.285
-0.295
-0.29
-0.285
-0.265
-0.275
-0.275
-0.295
-0.28
-0.255
-0.23
-0.235
-0.24
-0.23
-0.225
-0.205
-0.2
-0.2
-0.215
-0.22
-0.21
-0.205
-0.175
-0.165
-0.16
-0.165
-0.145
-0.1
0.015
0.21
0.575
0.985
1.245
1.225
1.06
0.895
0.795
0.735
0.685
0.61
0.53
0.455
0.345
0.235
0.115
0.015
-0.095
-0.22
-0.36
-0.5
-0.64
-0.76
-0.875
-1.025
-1.18
-1.325
-1.44
-1.515
-1.585
-1.665
-1.74
-1.825
-1.855
-1.87
-1.875
-1.875
-1.88
-1.855
-1.81
-1.75
-1.68
-1.585
-1.5
-1.395
-1.265
-1.11
-0.97
-0.885
-0.86
-0.845
-0.835
-0.77
-0.7
-0.65
-0.595
-0.565
-0.49
-0.41
-0.325
-0.265
-0.205
-0.155
-0.115
-0.06
-0.02
0.015
0.03
0.035
0.04
0.05
0.09
0.1
0.095
0.1
0.095
0.12
0.14
0.13
0.13
0.13
0.14
0.16
0.18
0.19
0.195
0.195
0.21
0.225
0.255
0.245
0.245
0.24
0.255
0.28
0.29
0.305
0.33
0.33
0.34
0.34
0.365
0.38
0.395
0.405
0.4
0.435
0.45
0.49
0.49
0.515
0.52
0.555
0.595
0.615
0.63
0.635
0.635
0.69
0.71
0.73
0.74
0.735
0.75
0.78
0.81
0.825
0.825
0.805
0.81
0.815
0.83
0.825
0.815
0.795
0.775
0.77
0.77
0.75
0.73
0.695
0.645
0.62
0.625
0.59
0.54
0.49
0.45
0.405
0.39
0.35
0.315
0.27
0.24
0.225
0.205
0.175
0.13
0.09
0.055
0.05
0.03
0.01
-0.025
-0.06
-0.07
-0.07
-0.08
-0.08
-0.1
-0.13
-0.13
-0.13
-0.14
-0.15
-0.155
-0.17
-0.175
-0.165
-0.15
-0.155
-0.16
-0.17
-0.17
-0.16
-0.16
-0.155
-0.17
-0.19
-0.18
-0.17
-0.17
-0.18
-0.19
-0.195
-0.195
-0.175
-0.17
-0.18
-0.19
-0.195
-0.215
-0.195
-0.185
-0.19
-0.225
-0.23
-0.24
-0.22
-0.2
-0.21
-0.22
-0.22
-0.245
-0.225
-0.235
-0.225
-0.245
-0.255
-0.26
-0.25
-0.26
-0.255
-0.26
-0.28
-0.265
-0.26
-0.24
-0.25
-0.255
-0.275
-0.285
-0.27
-0.26
-0.265
-0.275
-0.32
-0.29
-0.29
-0.285
-0.255
-0.275
-0.29
-0.29
-0.285
-0.275
-0.275
-0.285
-0.285
-0.29
-0.29
-0.29
-0.29
-0.3
-0.32
-0.31
-0.3
-0.275
-0.27
-0.295
-0.31
-0.3
-0.28
-0.26
-0.27
-0.27
-0.275
-0.27
-0.255
-0.245
-0.25
-0.265
-0.27
-0.295
-0.275
-0.26
-0.275
-0.265
-0.29
-0.28
-0.285
-0.275
-0.27
-0.275
-0.295
-0.3
-0.285
-0.275
-0.285
-0.265
-0.26
-0.25
-0.22
-0.195
-0.16
-0.06
0.13
0.51
0.93
1.14
1.045
0.825
0.67
0.61
0.57
0.51
0.425
0.32
0.21
0.105
0.0
-0.085
-0.205
-0.345
-0.495
-0.635
-0.76
-0.88
-1.035
-1.195
-1.345
-1.48
-1.575
-1.665
-1.745
-1.825
-1.915
-1.96
-1.995
-2.01
-2.0
-1.985
-1.955
-1.915
-1.845
-1.77
-1.67
-1.545
-1.435
-1.295
-1.15
-1.035
-0.98
-0.965
-0.935
-0.895
-0.815
-0.745
-0.675
-0.615
-0.555
-0.485
-0.405
-0.325
-0.255
-0.195
-0.18
-0.145
-0.115
-0.085
-0.055
-0.05
-0.03
-0.015
-0.005
0.015
0.03
0.025
0.015
0.02
0.025
0.05
0.05
0.045
0.035
0.05
0.05
0.085
0.1
0.09
0.09
0.09
0.12
0.145
0.155
0.155
0.15
0.165
0.19
0.205
0.215
0.215
0.21
0.225
0.245
0.285
0.305
0.295
0.315
0.32
0.345
0.4
0.415
0.425
0.435
0.465
0.5
0.52
0.535
0.56
0.565
0.575
0.595
0.645
0.645
0.635
0.62
0.64
0.66
0.685
0.68
0.665
0.635
0.63
0.63
0.61
0.595
0.55
0.51
0.475
0.46
0.435
0.385
0.335
0.265
0.235
0.19
0.17
0.115
0.06
0.005
-0.035
-0.08
-0.105
-0.14
-0.19
-0.23
-0.27
-0.295
-0.32
-0.335
-0.375
-0.39
-0.42
-0.425
-0.435
-0.435
-0.46
-0.49
-0.51
-0.51
-0.5
-0.5
-0.51
-0.535
-0.545
-0.53
-0.525
-0.53
-0.53
-0.54
-0.55
-0.545
-0.545
-0.535
-0.545
-0.565
-0.58
-0.58
-0.57
-0.57
-0.585
-0.595
-0.6
-0.595
-0.585
-0.6
-0.61
-0.63
-0.64
-0.635
-0.635
-0.64
-0.66
-0.665
-0.685
-0.67
-0.65
-0.645
-0.66
-0.665
-0.685
-0.685
-0.68
-0.68
-0.69
-0.715
-0.715
-0.705
-0.685
-0.685
-0.705
-0.715
-0.715
-0.7
-0.695
-0.695
-0.71
-0.72
-0.74
-0.735
-0.72
-0.725
-0.73
-0.75
-0.75
-0.725
-0.73
-0.73
-0.74
-0.76
-0.765
-0.765
-0.775
-0.765
-0.78
-0.805
-0.8
-0.8
-0.78
-0.785
-0.785
-0.805
-0.805
-0.795
-0.79
-0.79
-0.8
-0.825
-0.84
-0.82
-0.8
-0.8
-0.795
-0.82
-0.815
-0.8
-0.785
-0.795
-0.795
-0.8
-0.805
-0.8
-0.795
-0.795
-0.83
-0.84
-0.825
-0.815
-0.8
-0.805
-0.815
-0.82
-0.83
-0.805
-0.805
-0.8
-0.82
-0.81
-0.815
-0.775
-0.72
-0.625
-0.415
0.0
0.495
0.775
0.735
0.465
0.25
0.155
0.11
0.04
-0.05
-0.155
-0.26
-0.37
-0.48
-0.59
-0.7
-0.825
-0.975
-1.12
-1.255
-1.4
-1.52
-1.675
-1.805
-1.945
-2.04
-2.1
-2.17
-2.25
-2.32
-2.37
-2.39
-2.39
-2.38
-2.365
-2.335
-2.325
-2.28
-2.205
-2.1
-1.985
-1.865
-1.75
-1.615
-1.525
-1.475
-1.47
-1.435
-1.43
-1.37
-1.3
-1.225
-1.155
-1.105
-1.075
-1.0
-0.94
-0.87
-0.82
-0.79
-0.745
-0.715
-0.69
-0.645
-0.63
-0.625
-0.625
-0.63
-0.62
-0.61
-0.595
-0.6
-0.61
-0.595
-0.565
-0.55
-0.54
-0.54
-0.545
-0.525
-0.515
-0.5
-0.485
-0.505
-0.5
-0.49
-0.485
-0.46
-0.435
-0.435
-0.43
-0.425
-0.4
-0.36
-0.345
-0.34
-0.345
-0.325
-0.305
-0.285
-0.25
-0.23
-0.215
-0.19
-0.165
-0.13
-0.08
-0.065
-0.05
-0.045
-0.01
0.035
0.04
0.045
0.055
0.065
0.11
0.145
0.155
0.165
0.145
0.155
0.165
0.175
0.19
0.18
0.155
0.155
0.155
0.155
0.14
0.105
0.075
0.03
0.015
-0.005
-0.03
-0.075
-0.125
-0.16
-0.19
-0.21
-0.26
-0.305
-0.365
-0.42
-0.44
-0.47
-0.49
-0.545
-0.575
-0.61
-0.625
-0.62
-0.635
-0.67
-0.705
-0.735
-0.735
-0.725
-0.75
-0.77
-0.79
-0.8
-0.8
-0.805
-0.81
-0.825
-0.84
-0.84
-0.83
-0.815
-0.825
-0.835
-0.85
-0.845
-0.835
-0.81
-0.805
-0.82
-0.845
-0.84
-0.82
-0.8
-0.79
-0.81
-0.795
-0.81
-0.79
-0.8
-0.795
-0.79
-0.81
-0.815
-0.805
-0.78
-0.795
-0.81
-0.825
-0.835
-0.82
-0.8
-0.8
-0.81
-0.825
-0.835
-0.835
-0.82
-0.81
-0.82
-0.845
-0.85
-0.84
-0.84
-0.845
-0.86
-0.85
-0.845
-0.83
-0.815
-0.815
-0.825
-0.845
-0.835
-0.83
-0.81
-0.79
-0.81
-0.825
-0.825
-0.82
-0.805
-0.795
-0.81
-0.815
-0.815
-0.8
-0.775
-0.78
-0.79
-0.8
-0.8
-0.8
-0.795
-0.785
-0.805
-0.8
-0.805
-0.79
-0.785
-0.785
-0.78
-0.795
-0.805
-0.79
-0.775
-0.785
-0.81
-0.815
-0.82
-0.82
-0.8
-0.79
-0.81
-0.81
-0.81
-0.79
-0.765
-0.765
-0.77
-0.78
-0.78
-0.765
-0.75
-0.755
-0.75
-0.755
-0.76
-0.76
-0.745
-0.735
-0.73
-0.745
-0.735
-0.725
-0.715
-0.7
-0.715
-0.715
-0.705
-0.705
-0.705
-0.685
-0.685
-0.695
-0.665
-0.615
-0.56
-0.44
-0.185
0.23
0.685
0.905
0.785
0.51
0.31
0.235
0.175
0.125
0.05
-0.04
-0.14
-0.27
-0.375
-0.465
-0.545
-0.66
-0.785
-0.91
-1.025
-1.145
-1.245
-1.38
-1.525
-1.645
-1.745
-1.825
-1.875
-1.94
-2.0
-2.075
-2.115
-2.1
-2.085
-2.085
-2.06
-2.06
-2.005
-1.97
-1.885
-1.79
-1.68
-1.565
-1.445
-1.32
-1.25
-1.22
-1.22
-1.24
-1.205
-1.14
-1.08
-1.02
-0.965
-0.925
-0.865
-0.765
-0.68
-0.605
-0.55
-0.51
-0.475
-0.445
-0.41
-0.365
-0.35
-0.34
-0.34
-0.31
-0.28
-0.28
-0.27
-0.285
-0.265
-0.255
-0.22
-0.225
-0.225
-0.24
-0.245
-0.22
-0.22
-0.21
-0.205
-0.205
-0.185
-0.17
-0.16
-0.135
-0.14
-0.14
-0.13
-0.115
-0.09
-0.07
-0.065
-0.065
-0.045
-0.005
0.04
0.06
0.065
0.07
0.09
0.12
0.155
0.18
0.18
0.21
0.235
0.25
0.28
0.33
0.345
0.345
0.355
0.385
0.41
0.425
0.43
0.445
0.46
0.48
0.505
0.52
0.525
0.515
0.52
0.52
0.525
0.52
0.495
0.47
0.45
0.455
0.445
0.41
0.38
0.33
0.305
0.28
0.265
0.22
0.185
0.13
0.085
0.055
0.03
-0.015
-0.045
-0.11
-0.135
-0.165
-0.17
-0.2
-0.235
-0.275
-0.29
-0.295
-0.3
-0.315
-0.355
-0.38
-0.375
-0.375
-0.375
-0.38
-0.405
-0.425
-0.435
-0.435
-0.415
-0.425
-0.45
-0.465
-0.47
-0.46
-0.44
-0.445
-0.455
-0.465
-0.465
-0.465
-0.445
-0.435
-0.45
-0.455
-0.46
-0.43
-0.4
-0.395
-0.4
-0.415
-0.415
-0.425
-0.415
-0.405
-0.42
-0.43
-0.45
-0.445
-0.43
-0.44
-0.425
-0.435
-0.43
-0.41
-0.405
-0.42
-0.435
-0.45
-0.45
-0.43
-0.42
-0.425
-0.445
-0.455
-0.47
-0.45
-0.43
-0.435
-0.45
-0.455
-0.45
-0.455
-0.44
-0.435
-0.465
-0.475
-0.49
-0.465
-0.46
-0.455
-0.465
-0.48
-0.505
-0.495
-0.48
-0.475
-0.48
-0.495
-0.485
-0.47
-0.44
-0.42
-0.425
-0.45
-0.46
-0.44
-0.425
-0.425
-0.435
-0.445
-0.455
-0.45
-0.415
-0.425
-0.43
-0.445
-0.45
-0.435
-0.4
-0.415
-0.415
-0.435
-0.43
-0.41
-0.405
-0.405
-0.4
-0.43
-0.435
-0.42
-0.4
-0.4
-0.395
-0.425
-0.435
-0.41
-0.4
-0.385
-0.4
-0.415
-0.42
-0.42
-0.41
-0.41
-0.41
-0.43
-0.44
-0.435
-0.4
-0.405
-0.41
-0.415
-0.405
-0.385
-0.37
-0.34
-0.33
-0.32
-0.28
-0.2
-0.015
0.31
0.785
1.135
1.235
1.075
0.855
0.695
0.62
0.575
0.495
0.425
0.375
0.295
0.175
0.07
-0.045
-0.15
-0.25
-0.35
-0.475
-0.6
-0.72
-0.83
-0.925
-1.035
-1.16
-1.305
-1.4
-1.505
-1.57
-1.65
-1.725
-1.79
-1.85
-1.885
-1.89
-1.895
-1.91
-1.93
-1.91
-1.86
-1.815
-1.775
-1.72
-1.675
-1.58
-1.48
-1.335
-1.195
-1.08
-1.005
-0.945
-0.92
-0.88
-0.865
-0.815
-0.77
-0.705
-0.63
-0.55
-0.49
-0.45
-0.41
-0.36
-0.3
-0.23
-0.19
-0.16
-0.16
-0.145
-0.125
-0.1
-0.065
-0.06
-0.075
-0.06
-0.035
-0.02
-0.01
-0.01
0.0
0.005
0.01
0.04
0.05
0.055
0.05
0.065
0.08
0.1
0.115
0.11
0.115
0.125
0.14
0.17
0.165
0.155
0.145
0.155
0.185
0.2
0.22
0.235
0.24
0.26
0.295
0.31
0.34
0.35
0.355
0.38
0.415
0.43
0.455
0.47
0.48
0.5
0.525
0.58
0.61
0.625
0.635
0.65
0.695
0.725
0.745
0.76
0.75
0.765
0.795
0.81
0.81
0.815
0.795
0.81
0.82
0.825
0.82
0.785
0.76
0.735
0.71
0.72
0.68
0.635
0.58
0.53
0.51
0.495
0.45
0.4
0.34
0.305
0.29
0.27
0.23
0.195
0.125
0.085
0.065
0.03
0.025
-0.015
-0.05
-0.075
-0.085
-0.085
-0.12
-0.15
-0.165
-0.18
-0.18
-0.19
-0.205
-0.225
-0.245
-0.25
-0.245
-0.23
-0.245
-0.25
-0.26
-0.26
-0.26
-0.26
-0.26
-0.265
-0.285
-0.285
-0.27
-0.26
-0.265
-0.275
-0.285
-0.295
-0.285
-0.29
-0.29
-0.305
-0.305
-0.31
-0.305
-0.305
-0.28
-0.285
-0.305
-0.315
-0.31
-0.29
-0.285
-0.285
-0.3
-0.3
-0.285
-0.275
-0.275
-0.285
-0.305
-0.295
-0.295
-0.285
-0.28
-0.285
-0.3
-0.3
-0.3
-0.29
-0.285
-0.31
-0.31
-0.295
-0.28
-0.27
-0.275
-0.295
-0.31
-0.32
-0.31
-0.3
-0.305
-0.32
-0.335
-0.325
-0.325
-0.325
-0.32
-0.33
-0.35
-0.345
-0.35
-0.31
-0.325
-0.32
-0.32
-0.315
-0.305
-0.29
-0.29
-0.28
-0.3
-0.31
-0.295
-0.275
-0.275
-0.285
-0.285
-0.285
-0.28
-0.285
-0.285
-0.275
-0.275
-0.285
-0.275
-0.265
-0.27
-0.295
-0.3
-0.295
-0.285
-0.265
-0.24
-0.255
-0.275
-0.295
-0.28
-0.26
-0.255
-0.275
-0.285
-0.285
-0.27
-0.26
-0.265
-0.275
-0.295
-0.295
-0.275
-0.245
-0.245
-0.26
-0.245
-0.21
-0.15
-0.075
0.1
0.43
0.855
1.235
1.33
1.165
0.96
0.825
0.755
0.695
0.645
0.565
0.48
0.39
0.275
0.165
0.06
-0.03
-0.15
-0.275
-0.415
-0.54
-0.65
-0.765
-0.875
-1.025
-1.165
-1.3
-1.405
-1.49
-1.55
-1.64
-1.72
-1.755
-1.785
-1.795
-1.825
-1.825
-1.825
-1.785
-1.74
-1.67
-1.605
-1.52
-1.435
-1.345
-1.225
-1.09
-0.98
-0.9
-0.84
-0.795
-0.755
-0.715
-0.67
-0.625
-0.58
-0.515
-0.44
-0.38
-0.305
-0.26
-0.215
-0.145
-0.09
-0.04
0.005
0.02
0.035
0.06
0.085
0.115
0.13
0.13
0.125
0.14
0.14
0.16
0.155
0.145
0.145
0.16
0.18
0.21
0.21
0.2
0.18
0.185
0.21
0.235
0.25
0.255
0.26
0.26
0.265
0.295
0.315
0.31
0.305
0.325
0.33
0.36
0.375
0.385
0.37
0.385
0.405
0.455
0.47
0.475
0.48
0.495
0.525
0.56
0.58
0.59
0.6
0.62
0.665
0.69
0.71
0.715
0.735
0.74
0.755
0.77
0.8
0.82
0.82
0.83
0.86
0.88
0.88
0.875
0.88
0.895
0.91
0.92
0.925
0.93
0.915
0.89
0.915
0.91
0.9
0.86
0.845
0.825
0.825
0.795
0.76
0.72
0.685
0.665
0.65
0.635
0.585
0.535
0.46
0.42
0.4
0.38
0.355
0.305
0.255
0.215
0.195
0.165
0.16
0.115
0.08
0.035
0.025
0.0
-0.02
-0.035
-0.065
-0.07
-0.075
-0.07
-0.085
-0.1
-0.14
-0.145
-0.135
-0.105
-0.115
-0.135
-0.145
-0.14
-0.125
-0.1
-0.125
-0.135
-0.135
-0.13
-0.13
-0.1
-0.115
-0.125
-0.135
-0.125
-0.105
-0.105
-0.1
-0.115
-0.12
-0.12
-0.115
-0.085
-0.105
-0.11
-0.13
-0.14
-0.13
-0.13
-0.13
-0.15
-0.17
-0.155
-0.145
-0.155
-0.145
-0.155
-0.165
-0.185
-0.17
-0.16
-0.155
-0.175
-0.18
-0.195
-0.185
-0.18
-0.185
-0.19
-0.2
-0.2
-0.19
-0.195
-0.195
-0.205
-0.21
-0.205
-0.195
-0.18
-0.185
-0.19
-0.19
-0.19
-0.2
-0.18
-0.18
-0.19
-0.205
-0.215
-0.215
-0.21
-0.21
-0.225
-0.23
-0.235
-0.225
-0.205
-0.195
-0.19
-0.185
-0.185
-0.175
-0.17
-0.175
-0.185
-0.2
-0.195
-0.195
-0.19
-0.19
-0.185
-0.21
-0.195
-0.19
-0.17
-0.16
-0.17
-0.195
-0.2
-0.195
-0.18
-0.17
-0.18
-0.195
-0.19
-0.195
-0.165
-0.15
-0.17
-0.19
-0.19
-0.165
-0.145
-0.145
-0.145
-0.16
-0.16
-0.16
-0.14
-0.135
-0.14
-0.14
-0.135
-0.11
-0.085
-0.06
-0.005
0.155
0.505
0.98
1.35
1.42
1.245
1.02
0.885
0.83
0.785
0.715
0.625
0.525
0.43
0.34
0.225
0.095
-0.025
-0.165
-0.29
-0.39
-0.5
-0.61
-0.745
-0.895
-1.025
-1.15
-1.23
-1.335
-1.44
-1.52
-1.59
-1.66
-1.7
-1.735
-1.765
-1.78
-1.79
-1.75
-1.705
-1.64
-1.625
-1.565
-1.485
-1.36
-1.22
-1.095
-0.99
-0.9
-0.855
-0.825
-0.79
-0.74
-0.705
-0.66
-0.585
-0.515
-0.445
-0.385
-0.315
-0.26
-0.195
-0.135
-0.05
-0.005
0.01
0.045
0.075
0.11
0.11
0.145
0.155
0.155
0.165
0.19
0.215
0.225
0.21
0.195
0.22
0.225
0.245
0.24
0.235
0.24
0.245
0.26
0.28
0.275
0.29
0.275
0.29
0.305
0.335
0.35
0.345
0.33
0.355
0.37
0.4
0.4
0.42
0.405
0.42
0.435
0.47
0.485
0.5
0.495
0.52
0.55
0.595
0.605
0.595
0.595
0.605
0.65
0.675
0.695
0.715
0.695
0.71
0.74
0.78
0.795
0.795
0.8
0.81
0.835
0.87
0.9
0.89
0.885
0.87
0.895
0.91
0.915
0.88
0.87
0.86
0.86
0.855
0.855
0.845
0.82
0.79
0.78
0.77
0.74
0.71
0.665
0.63
0.585
0.57
0.515
0.475
0.425
0.385
0.37
0.35
0.325
0.28
0.225
0.205
0.18
0.165
0.135
0.11
0.065
0.05
0.03
0.035
0.025
0.01
-0.025
-0.03
-0.04
-0.06
-0.06
-0.09
-0.095
-0.105
-0.09
-0.08
-0.095
-0.1
-0.105
-0.1
-0.095
-0.075
-0.07
-0.085
-0.08
-0.115
-0.095
-0.075
-0.08
-0.075
-0.085
-0.1
-0.085
-0.075
-0.07
-0.07
-0.09
-0.1
-0.105
-0.09
-0.11
-0.12
-0.11
-0.105
-0.095
-0.09
-0.09
-0.1
-0.11
-0.11
-0.105
-0.095
-0.115
-0.105
-0.135
-0.14
-0.12
-0.115
-0.13
-0.145
-0.15
-0.17
-0.155
-0.15
-0.155
-0.17
-0.185
-0.19
-0.17
-0.16
-0.16
-0.17
-0.175
-0.17
-0.16
-0.135
-0.14
-0.14
-0.165
-0.17
-0.155
-0.145
-0.15
-0.17
-0.195
-0.19
-0.16
-0.14
-0.14
-0.155
-0.15
-0.155
-0.15
-0.14
-0.145
-0.165
-0.17
-0.165
-0.155
-0.15
-0.155
-0.16
-0.16
-0.155
-0.15
-0.145
-0.145
-0.175
-0.165
-0.18
-0.16
-0.14
-0.135
-0.135
-0.145
-0.15
-0.135
-0.125
-0.13
-0.14
-0.155
-0.155
-0.135
-0.125
-0.125
-0.14
-0.135
-0.14
-0.11
-0.085
-0.075
-0.06
-0.01
0.155
0.52
1.0
1.325
1.34
1.135
0.935
0.845
0.79
0.725
0.615
0.5
0.405
0.315
0.23
0.095
-0.05
-0.2
-0.335
-0.47
-0.62
-0.75
-0.905
-1.065
-1.205
-1.315
-1.395
-1.495
-1.58
-1.665
-1.73
-1.765
-1.795
-1.815
-1.81
-1.785
-1.735
-1.67
-1.6
-1.515
-1.42
-1.31
-1.165
-1.005
-0.885
-0.815
-0.795
-0.79
-0.745
-0.695
-0.605
-0.535
-0.455
-0.435
-0.36
-0.275
-0.19
-0.105
-0.065
-0.025
0.01
0.07
0.11
0.125
0.15
0.155
0.155
0.19
0.215
0.22
0.22
0.225
0.225
0.24
0.26
0.26
0.25
0.24
0.265
0.275
0.3
0.32
0.31
0.315
0.325
0.33
0.35
0.355
0.345
0.35
0.365
0.385
0.405
0.41
0.4
0.425
0.44
0.465
0.495
0.51
0.51
0.53
0.56
0.595
0.635
0.66
0.67
0.685
0.69
0.725
0.75
0.755
0.775
0.77
0.81
0.825
0.84
0.855
0.865
0.875
0.895
0.915
0.93
0.925
0.94
0.935
0.925
0.94
0.94
0.92
0.9
0.88
0.855
0.865
0.855
0.845
0.81
0.77
0.745
0.715
0.68
0.65
0.59
0.53
0.505
0.48
0.475
0.41
0.37
0.34
0.305
0.285
0.25
0.215
0.205
0.17
0.14
0.145
0.115
0.095
0.06
0.035
0.04
0.045
0.045
0.03
0.0
-0.015
-0.02
-0.02
-0.015
-0.03
-0.045
-0.08
-0.06
-0.055
-0.055
-0.05
-0.07
-0.09
-0.105
-0.1
-0.08
-0.09
-0.095
-0.11
-0.095
-0.085
-0.06
-0.065
-0.07
-0.1
-0.09
-0.07
-0.075
-0.06
-0.08
-0.09
-0.11
-0.095
-0.075
-0.075
-0.075
-0.09
-0.11
-0.095
-0.08
-0.09
-0.08
-0.1
-0.11
-0.105
-0.09
-0.11
-0.125
-0.16
-0.145
-0.12
-0.115
-0.115
-0.13
-0.135
-0.14
-0.125
-0.13
-0.135
-0.145
-0.165
-0.15
-0.155
-0.15
-0.15
-0.16
-0.19
-0.17
-0.17
-0.15
-0.135
-0.155
-0.175
-0.175
-0.175
-0.16
-0.17
-0.185
-0.195
-0.2
-0.18
-0.16
-0.15
-0.175
-0.175
-0.165
-0.16
-0.155
-0.165
-0.155
-0.17
-0.165
-0.145
-0.135
-0.15
-0.17
-0.19
-0.185
-0.165
-0.155
-0.16
-0.165
-0.195
-0.185
-0.16
-0.135
-0.145
-0.155
-0.16
-0.15
-0.145
-0.155
-0.155
-0.17
-0.19
-0.175
-0.16
-0.135
-0.125
-0.15
-0.14
-0.15
-0.13
-0.12
-0.115
-0.13
-0.1
-0.08
0.025
0.235
0.605
1.02
1.26
1.245
1.065
0.91
0.83
0.765
0.69
0.605
0.525
0.45
0.34
0.22
0.075
-0.06
-0.16
-0.28
-0.415
-0.57
-0.72
-0.87
-1.02
-1.16
-1.3
-1.43
-1.55
-1.645
-1.72
-1.77
-1.825
-1.88
-1.91
-1.91
-1.9
-1.84
-1.79
-1.73
-1.67
-1.58
-1.455
-1.315
-1.17
-1.03
-0.955
-0.88
-0.81
-0.785
-0.72
-0.645
-0.58
-0.515
-0.435
-0.35
-0.295
-0.24
-0.19
-0.155
-0.055
-0.005
0.02
0.04
0.045
0.075
0.12
0.175
0.185
0.195
0.195
0.2
0.21
0.24
0.24
0.23
0.225
0.22
0.25
0.26
0.25
0.265
0.255
0.255
0.285
0.325
0.33
0.325
0.32
0.325
0.355
0.38
0.39
0.375
0.395
0.415
0.44
0.475
0.465
0.475
0.485
0.51
0.53
0.565
0.595
0.605
0.615
0.645
0.67
0.7
0.72
0.745
0.74
0.76
0.785
0.835
0.845
0.855
0.865
0.875
0.895
0.93
0.935
0.93
0.925
0.94
0.945
0.975
0.96
0.93
0.92
0.895
0.89
0.9
0.88
0.86
0.83
0.78
0.75
0.735
0.675
0.61
0.575
0.525
0.51
0.49
0.455
0.41
0.36
0.325
0.3
0.285
0.24
0.2
0.15
0.1
0.095
0.095
0.07
0.025
-0.005
-0.025
-0.015
-0.025
-0.04
-0.06
-0.065
-0.07
-0.075
-0.065
-0.09
-0.105
-0.12
-0.135
-0.12
-0.12
-0.13
-0.13
-0.14
-0.15
-0.13
-0.115
-0.11
-0.135
-0.145
-0.16
-0.135
-0.125
-0.15
-0.165
-0.175
-0.19
-0.18
-0.16
-0.165
-0.165
-0.19
-0.18
-0.16
-0.135
-0.135
-0.145
-0.165
-0.15
-0.145
-0.135
-0.135
-0.16
-0.175
-0.195
-0.19
-0.18
-0.155
-0.175
-0.19
-0.195
-0.195
-0.19
-0.18
-0.2
-0.2
-0.21
-0.2
-0.2
-0.215
-0.225
-0.245
-0.24
-0.235
-0.215
-0.23
-0.24
-0.245
-0.24
-0.24
-0.235
-0.24
-0.255
-0.275
-0.28
-0.26
-0.25
-0.255
-0.27
-0.265
-0.28
-0.26
-0.22
-0.22
-0.24
-0.22
-0.225
-0.22
-0.195
-0.22
-0.22
-0.245
-0.24
-0.215
-0.205
