Lead II
-0.23
-0.24
-0.24
-0.26
-0.235
-0.245
-0.24
-0.255
-0.245
-0.245
-0.245
-0.225
-0.225
-0.235
-0.24
-0.245
-0.24
-0.265
-0.26
-0.25
-0.24
-0.25
-0.245
-0.255
-0.25
-0.245
-0.255
-0.25
-0.255
-0.265
-0.26
-0.245
-0.245
-0.245
-0.24
-0.24
-0.255
-0.255
-0.265
-0.25
-0.275
-0.27
-0.265
-0.265
-0.265
-0.255
-0.245
-0.225
-0.225
-0.235
-0.225
-0.235
-0.245
-0.24
-0.23
-0.235
-0.215
-0.22
-0.23
-0.25
-0.245
-0.245
-0.24
-0.235
-0.23
-0.235
-0.23
-0.225
-0.23
-0.24
-0.245
-0.245
-0.24
-0.245
-0.24
-0.255
-0.255
-0.25
-0.255
-0.265
-0.245
-0.24
-0.23
-0.22
-0.24
-0.255
-0.26
-0.27
-0.265
-0.27
-0.26
-0.26
-0.27
-0.28
-0.285
-0.275
-0.28
-0.28
-0.285
-0.275
-0.275
-0.3
-0.29
-0.275
-0.275
-0.265
-0.26
-0.26
-0.255
-0.26
-0.27
-0.275
-0.285
-0.285
-0.275
-0.26
-0.245
-0.235
-0.225
-0.235
-0.235
-0.245
-0.245
-0.235
-0.245
-0.24
-0.235
-0.25
-0.245
-0.255
-0.26
-0.24
-0.235
-0.245
-0.245
-0.25
-0.245
-0.245
-0.235
-0.225
-0.23
-0.23
-0.235
-0.245
-0.245
-0.255
-0.24
-0.245
-0.24
-0.25
-0.24
-0.245
-0.235
-0.235
-0.225
-0.215
-0.21
-0.23
-0.23
-0.225
-0.235
-0.245
-0.225
-0.225
-0.225
-0.22
-0.215
-0.22
-0.23
-0.22
-0.23
-0.24
-0.235
-0.25
-0.26
-0.275
-0.26
-0.265
-0.255
-0.245
-0.25
-0.24
-0.245
-0.255
-0.275
-0.265
-0.265
-0.275
-0.275
-0.28
-0.27
-0.26
-0.26
-0.27
-0.27
-0.28
-0.29
-0.305
-0.295
-0.295
-0.29
-0.285
-0.27
-0.285
-0.28
-0.275
-0.28
-0.285
-0.31
-0.295
-0.295
-0.295
-0.295
-0.29
-0.27
-0.28
-0.275
-0.275
-0.29
-0.29
-0.31
-0.32
-0.305
-0.305
-0.295
-0.29
-0.29
-0.295
-0.285
-0.285
-0.305
-0.295
-0.295
-0.31
-0.305
-0.3
-0.3
-0.29
-0.3
-0.3
-0.3
-0.31
-0.305
-0.31
-0.315
-0.31
-0.3
-0.295
-0.29
-0.27
-0.27
-0.27
-0.285
-0.295
-0.3
-0.31
-0.305
-0.305
-0.295
-0.295
-0.29
-0.285
-0.275
-0.275
-0.265
-0.265
-0.275
-0.28
-0.28
-0.29
-0.305
-0.3
-0.31
-0.305
-0.29
-0.28
-0.265
-0.27
-0.28
-0.28
-0.3
-0.295
-0.31
-0.29
-0.295
-0.285
-0.275
-0.27
-0.28
-0.28
-0.275
-0.275
-0.285
-0.29
-0.285
-0.295
-0.285
-0.27
-0.265
-0.25
-0.265
-0.26
-0.28
-0.285
-0.285
-0.285
-0.29
-0.275
-0.265
-0.265
-0.255
-0.25
-0.265
-0.265
-0.29
-0.29
-0.285
-0.285
-0.28
-0.3
-0.285
-0.275
-0.265
-0.25
-0.27
-0.26
-0.255
-0.27
-0.26
-0.26
-0.265
-0.265
-0.275
-0.27
-0.265
-0.255
-0.255
-0.255
-0.26
-0.27
-0.28
-0.285
-0.28
-0.285
-0.265
-0.27
-0.255
-0.245
-0.25
-0.26
-0.245
-0.255
-0.26
-0.27
-0.265
-0.265
-0.265
-0.245
-0.24
-0.24
-0.245
-0.255
-0.265
-0.265
-0.275
-0.275
-0.27
-0.275
-0.27
-0.265
-0.27
-0.27
-0.275
-0.27
-0.275
-0.275
-0.27
-0.275
-0.285
-0.285
-0.27
-0.26
-0.265
-0.245
-0.27
-0.265
-0.28
-0.285
-0.285
-0.295
-0.295
-0.29
-0.29
-0.275
-0.265
-0.24
-0.25
-0.245
-0.255
-0.27
-0.275
-0.275
-0.28
-0.27
-0.255
-0.255
-0.24
-0.225
-0.21
-0.21
-0.215
-0.205
-0.195
-0.19
-0.19
-0.185
-0.185
-0.19
-0.175
-0.16
-0.17
-0.16
-0.155
-0.155
-0.16
-0.16
-0.18
-0.175
-0.175
-0.185
-0.18
-0.195
-0.21
-0.205
-0.22
-0.2
-0.205
-0.205
-0.19
-0.2
-0.185
-0.19
-0.195
-0.195
-0.205
-0.215
-0.23
-0.255
-0.27
-0.28
-0.28
-0.29
-0.275
-0.28
-0.275
-0.255
-0.265
-0.26
-0.26
-0.27
-0.265
-0.28
-0.28
-0.27
-0.27
-0.265
-0.255
-0.245
-0.265
-0.27
-0.275
-0.26
-0.255
-0.25
-0.25
-0.245
-0.245
-0.245
-0.23
-0.215
-0.215
-0.215
-0.205
-0.19
-0.185
-0.165
-0.11
-0.06
0.04
0.14
0.275
0.405
0.48
0.515
0.445
0.265
0.005
-0.255
-0.46
-0.57
-0.62
-0.6
-0.56
-0.535
-0.49
-0.465
-0.445
-0.46
-0.47
-0.495
-0.495
-0.48
-0.46
-0.42
-0.38
-0.355
-0.35
-0.35
-0.37
-0.395
-0.415
-0.42
-0.4
-0.385
-0.37
-0.36
-0.34
-0.325
-0.305
-0.285
-0.265
-0.255
-0.255
-0.25
-0.255
-0.275
-0.27
-0.255
-0.245
-0.235
-0.235
-0.235
-0.25
-0.24
-0.255
-0.265
-0.265
-0.265
-0.25
-0.24
-0.235
-0.23
-0.23
-0.235
-0.24
-0.25
-0.25
-0.24
-0.235
-0.24
-0.23
-0.225
-0.215
-0.21
-0.205
-0.2
-0.205
-0.215
-0.205
-0.215
-0.21
-0.215
-0.21
-0.205
-0.195
-0.175
-0.16
-0.15
-0.15
-0.145
-0.155
-0.16
-0.145
-0.145
-0.14
-0.125
-0.12
-0.1
-0.09
-0.08
-0.08
-0.08
-0.09
-0.07
-0.065
-0.05
-0.03
-0.025
-0.015
-0.005
-0.005
0.0
-0.005
-0.005
-0.01
-0.01
-0.01
-0.005
-0.005
0.005
0.015
0.025
0.015
0.02
-0.005
-0.02
-0.025
-0.04
-0.055
-0.055
-0.06
-0.065
-0.075
-0.095
-0.11
-0.125
-0.13
-0.14
-0.16
-0.155
-0.16
-0.17
-0.19
-0.18
-0.175
-0.17
-0.2
-0.2
-0.22
-0.225
-0.23
-0.25
-0.24
-0.25
-0.255
-0.265
-0.275
-0.285
-0.295
-0.3
-0.305
-0.32
-0.31
-0.31
-0.325
-0.31
-0.3
-0.285
-0.27
-0.265
-0.27
-0.26
-0.27
-0.27
-0.275
-0.275
-0.265
-0.255
-0.235
-0.225
-0.215
-0.205
-0.2
-0.195
-0.21
-0.22
-0.23
-0.235
-0.225
-0.225
-0.215
-0.215
-0.205
-0.215
-0.215
-0.23
-0.235
-0.235
-0.225
-0.225
-0.21
-0.19
-0.185
-0.175
-0.17
-0.17
-0.18
-0.175
-0.19
-0.205
-0.205
-0.215
-0.215
-0.215
-0.205
-0.195
-0.2
-0.2
-0.205
-0.195
-0.2
-0.205
-0.21
-0.22
-0.235
-0.225
-0.23
-0.23
-0.235
-0.215
-0.205
-0.215
-0.215
-0.21
-0.205
-0.225
-0.215
-0.215
-0.205
-0.2
-0.19
-0.19
-0.185
-0.185
-0.185
-0.175
-0.18
-0.175
-0.16
-0.135
-0.11
-0.07
0.0
0.105
0.215
0.345
0.46
0.535
0.575
0.51
0.35
0.085
-0.18
-0.395
-0.515
-0.57
-0.565
-0.525
-0.475
-0.44
-0.405
-0.4
-0.4
-0.415
-0.445
-0.44
-0.425
-0.4
-0.355
-0.32
-0.29
-0.295
-0.29
-0.31
-0.34
-0.36
-0.355
-0.355
-0.34
-0.32
-0.28
-0.265
-0.235
-0.22
-0.225
-0.21
-0.195
-0.195
-0.185
-0.19
-0.19
-0.18
-0.19
-0.185
-0.2
-0.205
-0.21
-0.22
-0.215
-0.21
-0.2
-0.185
-0.175
-0.16
-0.165
-0.16
-0.18
-0.19
-0.18
-0.195
-0.185
-0.19
-0.165
-0.17
-0.155
-0.145
-0.14
-0.14
-0.13
-0.13
-0.14
-0.15
-0.14
-0.13
-0.13
-0.115
-0.105
-0.075
-0.07
-0.075
-0.065
-0.06
-0.055
-0.03
-0.025
-0.01
0.015
0.02
0.035
0.05
0.06
0.075
0.085
0.09
0.08
0.08
0.08
0.075
0.085
0.095
0.11
0.125
0.125
0.125
0.12
0.11
0.095
0.075
0.06
0.055
0.05
0.04
0.025
0.015
-0.005
-0.02
-0.06
-0.075
-0.1
-0.125
-0.13
-0.125
-0.125
-0.12
-0.125
-0.135
-0.155
-0.18
-0.21
-0.215
-0.215
-0.22
-0.205
-0.205
-0.205
-0.215
-0.22
-0.21
-0.205
-0.225
-0.215
-0.23
-0.24
-0.245
-0.25
-0.245
-0.235
-0.215
-0.21
-0.2
-0.2
-0.205
-0.215
-0.215
-0.23
-0.235
-0.235
-0.22
-0.21
-0.2
-0.2
-0.21
-0.21
-0.2
-0.205
-0.205
-0.2
-0.205
-0.2
-0.215
-0.215
-0.225
-0.225
-0.215
-0.215
-0.23
-0.235
-0.25
-0.265
-0.27
-0.265
-0.27
-0.26
-0.245
-0.225
-0.215
-0.215
-0.215
-0.22
-0.23
-0.23
-0.235
-0.22
-0.21
-0.195
-0.2
-0.185
-0.195
-0.195
-0.185
-0.19
-0.205
-0.205
-0.21
-0.225
-0.23
-0.22
-0.205
-0.205
-0.205
-0.2
-0.215
-0.205
-0.21
-0.215
-0.21
-0.215
-0.215
-0.195
-0.19
-0.185
-0.18
-0.175
-0.175
-0.19
-0.2
-0.225
-0.225
-0.225
-0.23
-0.225
-0.21
-0.18
-0.17
-0.18
-0.185
-0.195
-0.21
-0.215
-0.22
-0.22
-0.215
-0.21
-0.195
-0.205
-0.195
-0.195
-0.185
-0.19
-0.185
-0.2
-0.205
-0.19
-0.19
-0.175
-0.16
-0.16
-0.16
-0.16
-0.16
-0.165
-0.165
-0.16
-0.145
-0.115
-0.065
0.025
0.145
0.285
0.42
0.55
0.655
0.715
0.68
0.535
0.265
-0.015
-0.28
-0.435
-0.525
-0.545
-0.525
-0.5
-0.465
-0.44
-0.42
-0.415
-0.41
-0.41
-0.415
-0.42
-0.415
-0.38
-0.34
-0.31
-0.31
-0.31
-0.33
-0.34
-0.355
-0.365
-0.35
-0.345
-0.335
-0.32
-0.3
-0.285
-0.265
-0.245
-0.23
-0.22
-0.205
-0.195
-0.185
-0.185
-0.18
-0.175
-0.18
-0.17
-0.18
-0.175
-0.18
-0.18
-0.185
-0.185
-0.18
-0.17
-0.17
-0.165
-0.165
-0.165
-0.17
-0.145
-0.15
-0.15
-0.16
-0.155
-0.155
-0.155
-0.145
-0.14
-0.135
-0.135
-0.135
-0.125
-0.155
-0.135
-0.125
-0.12
-0.105
-0.095
-0.075
-0.065
-0.05
-0.06
-0.075
-0.075
-0.065
-0.055
-0.045
-0.025
0.0
0.015
0.045
0.06
0.075
0.08
0.085
0.085
0.09
0.11
0.115
0.12
0.125
0.125
0.13
0.135
0.135
0.145
0.14
0.15
0.13
0.115
0.12
0.1
0.095
0.08
0.065
0.05
0.035
0.01
-0.005
-0.035
-0.045
-0.065
-0.08
-0.085
-0.105
-0.11
-0.115
-0.135
-0.13
-0.14
-0.16
-0.18
-0.17
-0.185
-0.195
-0.195
-0.185
-0.185
-0.185
-0.185
-0.19
-0.2
-0.19
-0.19
-0.195
-0.205
-0.2
-0.205
-0.205
-0.2
-0.19
-0.19
-0.185
-0.185
-0.175
-0.195
-0.2
-0.195
-0.2
-0.195
-0.205
-0.195
-0.185
-0.185
-0.185
-0.18
-0.2
-0.195
-0.21
-0.225
-0.225
-0.23
-0.23
-0.23
-0.215
-0.215
-0.21
-0.2
-0.195
-0.19
-0.2
-0.2
-0.21
-0.205
-0.205
-0.19
-0.185
-0.165
-0.155
-0.15
-0.145
-0.165
-0.17
-0.195
-0.2
-0.2
-0.21
-0.2
-0.2
-0.185
-0.185
-0.19
-0.195
-0.21
-0.195
-0.21
-0.195
-0.195
-0.185
-0.185
-0.185
-0.19
-0.205
-0.205
-0.195
-0.195
-0.195
-0.18
-0.18
-0.19
-0.215
-0.21
-0.2
-0.195
-0.19
-0.19
-0.185
-0.18
-0.19
-0.185
-0.19
-0.195
-0.2
-0.185
-0.19
-0.185
-0.18
-0.18
-0.17
-0.18
-0.175
-0.19
-0.195
-0.195
-0.19
-0.19
-0.175
-0.16
-0.135
-0.135
-0.145
-0.125
-0.115
-0.085
-0.05
0.015
0.095
0.225
0.37
0.535
0.705
0.79
0.795
0.69
0.44
0.1
-0.21
-0.45
-0.585
-0.63
-0.61
-0.55
-0.48
-0.41
-0.4
-0.38
-0.39
-0.405
-0.415
-0.395
-0.365
-0.32
-0.29
-0.285
-0.295
-0.31
-0.315
-0.33
-0.335
-0.34
-0.33
-0.315
-0.285
-0.265
-0.23
-0.2
-0.17
-0.16
-0.145
-0.13
-0.15
-0.145
-0.155
-0.15
-0.145
-0.135
-0.135
-0.13
-0.125
-0.14
-0.14
-0.145
-0.15
-0.135
-0.145
-0.16
-0.165
-0.16
-0.15
-0.14
-0.14
-0.14
-0.15
-0.15
-0.145
-0.145
-0.145
-0.145
-0.13
-0.125
-0.12
-0.11
-0.095
-0.1
-0.095
-0.095
-0.08
-0.085
-0.085
-0.08
-0.075
-0.06
-0.045
-0.03
-0.025
-0.025
0.0
0.015
0.03
0.04
0.045
0.06
0.055
0.065
0.075
0.08
0.1
0.125
0.145
0.15
0.17
0.17
0.175
0.165
0.17
0.165
0.175
0.165
0.165
0.155
0.15
0.14
0.14
0.105
0.08
0.05
0.03
0.01
0.03
0.01
-0.01
-0.02
-0.035
-0.06
-0.075
-0.095
-0.1
-0.11
-0.12
-0.12
-0.135
-0.13
-0.13
-0.135
-0.135
-0.14
-0.15
-0.155
-0.175
-0.18
-0.18
-0.18
-0.17
-0.16
-0.15
-0.155
-0.16
-0.17
-0.185
-0.195
-0.205
-0.205
-0.2
-0.2
-0.19
-0.185
-0.195
-0.19
-0.18
-0.195
-0.185
-0.195
-0.205
-0.21
-0.215
-0.23
-0.21
-0.21
-0.215
-0.215
-0.21
-0.225
-0.22
-0.235
-0.235
-0.225
-0.23
-0.23
-0.205
-0.2
-0.185
-0.18
-0.18
-0.19
-0.195
-0.19
-0.195
-0.19
-0.185
-0.175
-0.165
-0.15
-0.145
-0.145
-0.145
-0.155
-0.17
-0.185
-0.19
-0.19
-0.19
-0.185
-0.19
-0.185
-0.195
-0.185
-0.19
-0.19
-0.19
-0.175
-0.17
-0.15
-0.14
-0.14
-0.145
-0.155
-0.15
-0.155
-0.165
-0.175
-0.165
-0.17
-0.175
-0.17
-0.165
-0.155
-0.145
-0.135
-0.135
-0.15
-0.155
-0.135
-0.15
-0.15
-0.14
-0.15
-0.145
-0.155
-0.16
-0.155
-0.15
-0.15
-0.15
-0.15
-0.14
-0.14
-0.135
-0.135
-0.145
-0.135
-0.125
-0.12
-0.11
-0.1
-0.08
-0.045
-0.01
0.05
0.135
0.235
0.355
0.495
0.62
0.725
0.77
0.705
0.505
0.235
-0.07
-0.325
-0.48
-0.565
-0.57
-0.545
-0.505
-0.46
-0.405
-0.38
-0.36
-0.365
-0.385
-0.4
-0.395
-0.39
-0.345
-0.3
-0.265
-0.255
-0.255
-0.285
-0.31
-0.31
-0.325
-0.325
-0.325
-0.315
-0.295
-0.275
-0.24
-0.215
-0.185
-0.16
-0.14
-0.13
-0.15
-0.145
-0.165
-0.18
-0.165
-0.165
-0.15
-0.135
-0.135
-0.145
-0.15
-0.14
-0.155
-0.16
-0.165
-0.15
-0.14
-0.135
-0.125
-0.12
-0.095
-0.115
-0.12
-0.12
-0.135
-0.15
-0.16
-0.16
-0.145
-0.145
-0.12
-0.105
-0.09
-0.075
-0.085
-0.085
-0.09
-0.085
-0.085
-0.075
-0.075
-0.05
-0.04
-0.025
-0.015
-0.005
0.005
0.015
0.015
0.015
0.025
0.035
0.055
0.065
0.09
0.095
0.12
0.13
0.145
0.15
0.155
0.15
0.14
0.14
0.145
0.15
0.165
0.175
0.185
0.175
0.16
0.16
0.135
0.12
0.095
0.075
0.06
0.04
0.035
0.015
0.005
-0.01
-0.025
-0.055
-0.06
-0.085
-0.1
-0.105
-0.125
-0.12
-0.12
-0.13
-0.125
-0.14
-0.155
-0.165
-0.175
-0.185
-0.185
-0.185
-0.19
-0.185
-0.175
-0.165
-0.16
-0.17
-0.17
-0.185
-0.2
-0.205
-0.215
-0.21
-0.205
-0.2
-0.2
-0.195
-0.19
-0.19
-0.18
-0.19
-0.185
-0.195
-0.205
-0.22
-0.22
-0.225
-0.21
-0.215
-0.21
-0.2
-0.205
-0.205
-0.195
-0.215
-0.22
-0.235
-0.25
-0.24
-0.235
-0.24
-0.22
-0.225
-0.235
-0.225
-0.225
-0.22
-0.21
-0.22
-0.21
-0.205
-0.195
-0.19
-0.165
-0.17
-0.155
-0.16
-0.155
-0.16
-0.165
-0.175
-0.175
-0.18
-0.185
-0.185
-0.18
-0.17
-0.18
-0.18
-0.185
-0.19
-0.205
-0.215
-0.21
-0.21
-0.185
-0.18
-0.165
-0.15
-0.15
-0.165
-0.17
-0.18
-0.19
-0.2
-0.205
-0.195
-0.19
-0.19
-0.185
-0.18
-0.195
-0.19
-0.195
-0.21
-0.21
-0.2
-0.195
-0.19
-0.195
-0.185
-0.18
-0.175
-0.18
-0.18
-0.185
-0.2
-0.21
-0.2
-0.2
-0.2
-0.19
-0.175
-0.17
-0.175
-0.18
-0.18
-0.185
-0.185
-0.185
-0.175
-0.16
-0.14
-0.115
-0.075
-0.025
0.05
0.145
0.255
0.385
0.505
0.61
0.675
0.655
0.505
0.245
-0.065
-0.325
-0.495
-0.59
-0.61
-0.61
-0.56
-0.525
-0.48
-0.44
-0.425
-0.435
-0.435
-0.43
-0.415
-0.385
-0.355
-0.32
-0.305
-0.31
-0.33
-0.35
-0.36
-0.37
-0.365
-0.345
-0.315
-0.31
-0.275
-0.255
-0.225
-0.21
-0.2
-0.195
-0.2
-0.2
-0.195
-0.185
-0.18
-0.195
-0.19
-0.19
-0.19
-0.19
-0.195
-0.185
-0.18
-0.17
-0.17
-0.155
-0.155
-0.165
-0.16
-0.165
-0.16
-0.16
-0.165
-0.155
-0.15
-0.135
-0.135
-0.12
-0.12
-0.12
-0.11
-0.125
-0.12
-0.115
-0.12
-0.115
-0.09
-0.07
-0.05
-0.045
-0.03
-0.035
-0.035
-0.03
-0.02
-0.005
0.0
0.02
0.035
0.065
0.08
0.095
0.1
0.095
0.105
0.095
0.095
0.11
0.11
0.13
0.14
0.145
0.15
0.16
0.155
0.145
0.135
0.135
0.11
0.105
0.085
0.065
0.05
0.045
0.03
0.02
0.01
-0.01
-0.015
-0.035
-0.06
-0.08
-0.1
-0.105
-0.11
-0.105
-0.105
-0.11
-0.115
-0.13
-0.14
-0.155
-0.17
-0.185
-0.185
-0.19
-0.2
-0.205
-0.2
-0.195
-0.18
-0.18
-0.19
-0.195
-0.21
-0.22
-0.225
-0.225
-0.22
-0.23
-0.215
-0.215
-0.21
-0.215
-0.22
-0.22
-0.22
-0.225
-0.225
-0.225
-0.22
-0.225
-0.22
-0.215
-0.215
-0.215
-0.225
-0.23
-0.24
-0.255
-0.265
-0.27
-0.265
-0.27
-0.25
-0.245
-0.24
-0.24
-0.245
-0.25
-0.25
-0.25
-0.25
-0.245
-0.24
-0.22
-0.205
-0.19
-0.185
-0.175
-0.175
-0.185
-0.195
-0.21
-0.235
-0.245
-0.235
-0.235
-0.23
-0.21
-0.215
-0.21
-0.22
-0.225
-0.235
-0.235
-0.245
-0.24
-0.24
-0.23
-0.21
-0.185
-0.185
-0.18
-0.2
-0.205
-0.23
-0.24
-0.245
-0.235
-0.225
-0.21
-0.205
-0.2
-0.21
-0.2
-0.215
-0.23
-0.23
-0.235
-0.25
-0.23
-0.22
-0.205
-0.2
-0.19
-0.205
-0.215
-0.2
-0.195
-0.2
-0.205
-0.205
-0.205
-0.21
-0.205
-0.195
-0.185
-0.195
-0.18
-0.18
-0.19
-0.195
-0.19
-0.19
-0.18
-0.16
-0.15
-0.12
-0.095
-0.055
-0.03
0.005
0.095
0.18
0.3
0.425
0.535
0.635
0.675
0.6
0.42
0.145
-0.15
-0.395
-0.56
-0.64
-0.635
-0.585
-0.53
-0.485
-0.435
-0.425
-0.41
-0.4
-0.415
-0.405
-0.385
-0.35
-0.31
-0.305
-0.285
-0.3
-0.31
-0.315
-0.335
-0.345
-0.34
-0.335
-0.33
-0.32
-0.3
-0.295
-0.275
-0.24
-0.21
-0.17
-0.16
-0.145
-0.145
-0.17
-0.175
-0.2
-0.21
-0.2
-0.215
-0.205
-0.19
-0.165
-0.175
-0.17
-0.17
-0.17
-0.175
-0.175
-0.185
-0.2
-0.185
-0.17
-0.17
-0.17
-0.16
-0.165
-0.17
-0.165
-0.17
-0.165
-0.17
-0.165
-0.155
-0.15
-0.13
-0.115
-0.11
-0.11
-0.125
-0.105
-0.11
-0.12
-0.12
-0.115
-0.1
-0.095
-0.075
-0.045
-0.025
-0.01
0.005
0.02
0.02
0.03
0.02
0.03
0.045
0.055
0.055
0.075
0.095
0.095
0.1
0.11
0.12
0.095
0.1
0.115
0.11
0.11
0.105
0.11
0.1
0.09
0.08
0.06
0.03
0.02
0.0
-0.02
-0.035
-0.05
-0.065
-0.065
-0.065
-0.085
-0.105
-0.135
-0.135
-0.16
-0.16
-0.17
-0.175
-0.185
-0.19
-0.185
-0.18
-0.175
-0.18
-0.19
-0.2
-0.215
-0.22
-0.225
-0.23
-0.225
-0.225
-0.215
-0.22
-0.215
-0.215
-0.22
-0.22
-0.235
-0.235
-0.24
-0.24
-0.245
-0.25
-0.245
-0.23
-0.22
-0.225
-0.22
-0.23
-0.23
-0.24
-0.23
-0.235
-0.22
-0.22
-0.21
-0.2
-0.21
-0.21
-0.205
-0.21
-0.215
-0.215
-0.23
-0.22
-0.225
-0.23
-0.215
-0.215
-0.21
-0.195
-0.195
-0.19
-0.215
-0.22
-0.23
-0.235
-0.225
-0.225
-0.22
-0.21
-0.205
-0.21
-0.2
-0.21
-0.21
-0.225
-0.23
-0.24
-0.25
-0.23
-0.225
-0.21
-0.215
-0.225
-0.225
-0.235
-0.24
-0.235
-0.245
-0.24
-0.235
-0.23
-0.22
-0.205
-0.215
-0.22
-0.23
-0.245
-0.255
-0.265
-0.265
-0.26
-0.25
-0.235
-0.235
-0.215
-0.22
-0.215
-0.22
-0.235
-0.235
-0.25
-0.245
-0.25
-0.25
-0.255
-0.25
-0.24
-0.24
-0.235
-0.235
-0.25
-0.24
-0.245
-0.25
-0.245
-0.26
-0.25
-0.24
-0.235
-0.24
-0.23
-0.23
-0.235
-0.235
-0.25
-0.25
-0.26
-0.25
-0.24
-0.23
-0.225
-0.22
-0.23
-0.24
-0.245
-0.245
-0.255
-0.26
-0.265
-0.26
-0.26
-0.245
-0.23
-0.23
-0.235
-0.235
-0.245
-0.235
-0.25
-0.245
-0.24
-0.255
-0.255
-0.245
-0.255
-0.24
-0.245
-0.235
-0.245
-0.25
-0.255
-0.25
-0.24
-0.24
-0.225
-0.23
-0.225
-0.22
-0.225
-0.235
-0.235
-0.235
-0.25
-0.245
-0.24
-0.235
-0.23
-0.225
-0.225
-0.215
-0.215
-0.23
-0.235
-0.235
-0.25
-0.25
-0.265
-0.25
-0.255
-0.245
-0.245
-0.235
-0.23
-0.22
-0.235
-0.235
-0.24
-0.245
-0.25
-0.245
-0.24
-0.225
-0.22
-0.215
-0.23
-0.235
-0.25
-0.255
-0.25
-0.26
-0.255
-0.235
-0.235
-0.225
-0.215
-0.225
-0.23
-0.24
-0.24
-0.245
-0.24
-0.24
-0.24
-0.235
-0.235
-0.225
-0.22
-0.22
-0.22
-0.215
-0.225
-0.23
-0.23
-0.24
-0.23
-0.23
-0.24
-0.225
-0.215
-0.23
-0.23
-0.235
-0.24
-0.23
-0.24
-0.24
-0.23
-0.23
-0.24
-0.225
-0.215
-0.21
-0.225
-0.215
-0.245
-0.245
-0.26
-0.255
-0.265
-0.25
-0.235
-0.235
-0.225
-0.215
-0.215
-0.22
-0.235
-0.24
-0.23
-0.235
-0.24
-0.24
-0.26
-0.265
-0.25
-0.245
-0.245
-0.23
-0.235
-0.23
-0.235
-0.24
-0.235
-0.235
-0.23
-0.225
-0.215
-0.225
-0.21
-0.215
-0.23
-0.235
-0.25
-0.255
-0.25
-0.255
-0.235
-0.24
-0.215
-0.225
-0.235
-0.23
-0.235
-0.24
-0.24
-0.24
-0.235
-0.235
-0.235
-0.235
-0.225
-0.24
-0.23
-0.235
-0.245
-0.245
-0.25
-0.245
-0.23
-0.24
-0.24
-0.23
-0.215
-0.22
-0.23
-0.225
-0.24
-0.24
-0.26
-0.26
-0.255
-0.245
-0.235
-0.245
-0.235
-0.23
-0.24
-0.235
-0.24
-0.245
-0.25
-0.26
-0.25
-0.245
-0.255
-0.24
-0.245
-0.235
-0.24
-0.235
-0.245
-0.245
-0.245
-0.255
-0.24
-0.23
-0.215
-0.215
-0.205
-0.205
-0.215
-0.215
-0.22
-0.22
-0.2
-0.2
-0.185
-0.165
-0.15
-0.15
-0.14
-0.125
-0.15
-0.145
-0.145
-0.145
-0.145
-0.145
-0.15
-0.155
-0.16
-0.13
-0.125
-0.15
-0.155
-0.16
-0.17
-0.18
-0.195
-0.2
-0.195
-0.19
-0.185
-0.19
-0.18
-0.18
-0.185
-0.19
-0.205
-0.21
-0.215
-0.245
-0.25
-0.255
-0.25
-0.245
-0.245
-0.24
-0.23
-0.235
-0.25
-0.25
-0.255
-0.255
-0.255
-0.245
-0.235
-0.23
-0.22
-0.22
-0.245
-0.25
-0.265
-0.26
-0.26
-0.255
-0.255
-0.25
-0.24
-0.235
-0.215
-0.22
-0.22
-0.22
-0.225
-0.21
-0.225
-0.22
-0.195
-0.185
-0.15
-0.135
-0.075
-0.02
0.045
0.15
0.25
0.375
0.495
0.585
0.6
0.535
0.34
0.07
-0.205
-0.415
-0.545
-0.61
-0.62
-0.59
-0.57
-0.53
-0.49
-0.485
-0.48
-0.485
-0.47
-0.44
-0.41
-0.375
-0.355
-0.36
-0.39
-0.405
-0.41
-0.41
-0.41
-0.4
-0.375
-0.34
-0.31
-0.28
-0.26
-0.25
-0.25
-0.24
-0.24
-0.235
-0.235
-0.23
-0.235
-0.225
-0.22
-0.22
-0.23
-0.23
-0.24
-0.25
-0.24
-0.22
-0.235
-0.23
-0.21
-0.215
-0.225
-0.22
-0.23
-0.235
-0.235
-0.24
-0.235
-0.23
-0.22
-0.22
-0.2
-0.195
-0.185
-0.19
-0.185
-0.2
-0.195
-0.2
-0.195
-0.19
-0.18
-0.165
-0.165
-0.155
-0.155
-0.145
-0.14
-0.14
-0.125
-0.115
-0.1
-0.09
-0.075
-0.075
-0.05
-0.04
-0.035
-0.01
-0.01
0.0
0.005
0.01
0.02
0.015
0.03
0.035
0.06
0.075
0.075
0.08
0.06
0.065
0.035
0.035
0.03
0.02
0.04
0.04
0.035
0.035
0.015
0.015
-0.005
-0.025
-0.045
-0.07
-0.075
-0.095
-0.095
-0.105
-0.105
-0.12
-0.135
-0.145
-0.15
-0.17
-0.185
-0.175
-0.18
-0.19
-0.185
-0.18
-0.185
-0.185
-0.2
-0.2
-0.215
-0.23
-0.235
-0.23
-0.235
-0.245
-0.25
-0.255
-0.255
-0.26
-0.265
-0.26
-0.27
-0.265
-0.285
-0.285
-0.265
-0.265
-0.245
-0.235
-0.235
-0.215
-0.21
-0.205
-0.195
-0.195
-0.18
-0.2
-0.205
-0.215
-0.215
-0.205
-0.205
-0.21
-0.21
-0.195
-0.185
-0.19
-0.195
-0.21
-0.21
-0.21
-0.21
-0.21
-0.2
-0.185
-0.19
-0.175
-0.18
-0.18
-0.185
-0.185
-0.2
-0.205
-0.195
-0.19
-0.19
-0.185
-0.195
-0.2
-0.2
-0.195
-0.2
-0.21
-0.215
-0.21
-0.205
-0.185
-0.19
-0.185
-0.175
-0.18
-0.19
-0.195
-0.215
-0.21
-0.21
-0.2
-0.19
-0.195
-0.19
-0.195
-0.195
-0.195
-0.205
-0.195
-0.195
-0.2
-0.19
-0.18
-0.175
-0.165
-0.165
-0.16
-0.145
-0.12
-0.11
-0.095
-0.045
0.015
0.12
0.245
0.38
0.49
0.585
0.61
0.55
0.37
0.105
-0.185
-0.405
-0.555
-0.6
-0.585
-0.535
-0.48
-0.425
-0.395
-0.375
-0.365
-0.38
-0.405
-0.43
-0.42
-0.38
-0.36
-0.31
-0.29
-0.28
-0.295
-0.315
-0.335
-0.345
-0.35
-0.35
-0.34
-0.325
-0.3
-0.28
-0.245
-0.205
-0.19
-0.18
-0.16
-0.175
-0.175
-0.185
-0.195
-0.21
-0.205
-0.195
-0.19
-0.175
-0.175
-0.185
-0.175
-0.18
-0.185
-0.19
-0.2
-0.195
-0.195
-0.185
-0.165
-0.165
-0.155
-0.15
-0.155
-0.155
-0.17
-0.175
-0.18
-0.165
-0.15
-0.15
-0.14
-0.14
-0.125
-0.12
-0.12
-0.125
-0.115
-0.11
-0.1
-0.095
-0.095
-0.07
-0.07
-0.04
-0.025
-0.025
-0.015
-0.015
-0.005
-0.015
0.0
0.02
0.03
0.055
0.06
0.07
0.09
0.1
0.11
0.105
0.1
0.105
0.095
0.105
0.105
0.115
0.105
0.1
0.105
0.09
0.07
0.075
0.055
0.04
0.02
-0.005
-0.01
-0.015
-0.025
-0.055
-0.05
-0.07
-0.09
-0.11
-0.125
-0.14
-0.155
-0.175
-0.175
-0.175
-0.185
-0.185
-0.18
-0.18
-0.19
-0.205
-0.215
-0.235
-0.24
-0.245
-0.24
-0.235
-0.215
-0.22
-0.22
-0.225
-0.22
-0.23
-0.235
-0.24
-0.24
-0.23
-0.225
-0.225
-0.225
-0.215
-0.205
-0.2
-0.21
-0.21
-0.21
-0.21
-0.21
-0.215
-0.205
-0.205
-0.2
-0.185
-0.2
-0.2
-0.215
-0.23
-0.235
-0.265
-0.27
-0.275
-0.27
-0.25
-0.245
-0.235
-0.24
-0.23
-0.235
-0.245
-0.25
-0.27
-0.26
-0.265
-0.255
-0.245
-0.225
-0.205
-0.195
-0.19
-0.2
-0.205
-0.215
-0.225
-0.235
-0.24
-0.24
-0.24
-0.24
-0.235
-0.225
-0.23
-0.23
-0.235
-0.24
-0.24
-0.24
-0.245
-0.245
-0.23
-0.22
-0.225
-0.225
-0.235
-0.25
-0.26
-0.27
-0.27
-0.28
-0.265
-0.255
-0.255
-0.245
-0.245
-0.24
-0.235
-0.25
-0.25
-0.25
-0.265
-0.28
-0.285
-0.285
-0.275
-0.255
-0.255
-0.24
-0.24
-0.255
-0.275
-0.27
-0.285
-0.285
-0.27
-0.25
-0.24
-0.24
-0.245
-0.245
-0.24
-0.24
-0.22
-0.21
-0.18
-0.16
-0.13
-0.09
-0.03
0.055
0.16
0.26
0.365
0.42
0.435
0.345
0.155
-0.09
-0.33
-0.51
-0.59
-0.625
-0.585
-0.56
-0.525
-0.48
-0.455
-0.445
-0.455
-0.475
-0.465
-0.445
-0.405
-0.355
-0.33
-0.315
-0.32
-0.36
-0.385
-0.4
-0.41
-0.41
-0.38
-0.365
-0.355
-0.32
-0.295
-0.275
-0.265
-0.24
-0.245
-0.23
-0.235
-0.23
-0.24
-0.22
-0.23
-0.225
-0.215
-0.225
-0.23
-0.23
-0.235
-0.24
-0.24
-0.235
-0.235
-0.225
-0.215
-0.2
-0.2
-0.2
-0.21
-0.205
-0.21
-0.21
-0.2
-0.21
-0.2
-0.2
-0.205
-0.205
-0.195
-0.19
-0.19
-0.175
-0.175
-0.175
-0.17
-0.175
-0.16
-0.155
-0.15
-0.13
-0.12
-0.115
-0.1
-0.095
-0.09
-0.09
-0.085
-0.06
-0.05
-0.045
-0.02
0.0
0.005
0.015
0.025
0.035
0.03
0.04
0.04
0.035
0.04
0.035
0.05
0.055
0.065
0.075
0.07
0.065
0.055
0.035
0.01
-0.01
-0.025
-0.045
-0.04
-0.055
-0.06
-0.08
-0.095
-0.105
-0.125
-0.135
-0.15
-0.16
-0.17
-0.17
-0.185
-0.195
-0.2
-0.215
-0.205
-0.215
-0.23
-0.235
-0.245
-0.24
-0.235
-0.235
-0.245
-0.24
-0.23
-0.235
-0.24
-0.235
-0.25
-0.255
-0.25
-0.265
-0.25
-0.25
-0.25
-0.245
-0.24
-0.23
-0.235
-0.225
-0.225
-0.22
-0.225
-0.215
-0.225
-0.215
-0.22
-0.21
-0.215
-0.22
-0.22
-0.215
-0.21
-0.23
-0.215
-0.215
-0.215
-0.21
-0.195
-0.19
-0.185
-0.165
-0.175
-0.17
-0.165
-0.15
-0.16
-0.15
-0.14
-0.125
-0.105
-0.085
-0.08
-0.065
-0.06
-0.075
-0.09
-0.1
-0.125
-0.145
-0.145
-0.16
-0.15
-0.14
-0.14
-0.14
-0.155
-0.175
-0.195
-0.21
-0.21
-0.205
-0.195
-0.175
-0.155
-0.14
-0.12
-0.13
-0.145
-0.15
-0.16
-0.175
-0.19
-0.195
-0.195
-0.195
-0.185
-0.185
-0.17
-0.17
-0.17
-0.17
-0.18
-0.205
-0.23
-0.24
-0.23
-0.225
-0.205
-0.19
-0.175
-0.195
-0.195
-0.195
-0.205
-0.195
-0.22
-0.215
-0.21
-0.205
-0.21
-0.21
-0.205
-0.195
-0.195
-0.18
-0.185
-0.185
-0.2
-0.19
-0.17
-0.145
-0.12
-0.08
-0.02
0.05
0.125
0.23
0.315
0.405
0.49
0.515
0.48
0.33
0.11
-0.145
-0.375
-0.515
-0.59
-0.6
-0.575
-0.54
-0.5
-0.47
-0.445
-0.43
-0.43
-0.46
-0.45
-0.44
-0.435
-0.395
-0.36
-0.33
-0.315
-0.35
-0.365
-0.38
-0.38
-0.385
-0.37
-0.355
-0.35
-0.345
-0.33
-0.315
-0.295
-0.27
-0.245
-0.23
-0.215
-0.21
-0.205
-0.22
-0.21
-0.22
-0.23
-0.215
-0.235
-0.23
-0.235
-0.23
-0.23
-0.215
-0.2
-0.2
-0.205
-0.2
-0.22
-0.22
-0.22
-0.225
-0.225
-0.23
-0.205
-0.195
-0.195
-0.19
-0.19
-0.2
-0.215
-0.205
-0.21
-0.21
-0.2
-0.215
-0.205
-0.175
-0.17
-0.155
-0.14
-0.14
-0.14
-0.145
-0.14
-0.145
-0.135
-0.12
-0.105
-0.09
-0.055
-0.045
-0.04
-0.02
-0.025
-0.03
-0.03
-0.025
-0.015
0.01
0.01
0.03
0.05
0.065
0.075
0.075
0.075
0.075
0.07
0.055
0.065
0.07
0.065
0.07
0.06
0.05
0.025
0.025
0.01
-0.005
-0.025
-0.055
-0.075
-0.08
-0.095
-0.105
-0.12
-0.12
-0.12
-0.125
-0.15
-0.15
-0.175
-0.19
-0.185
-0.185
-0.21
-0.195
-0.19
-0.2
-0.2
-0.205
-0.21
-0.215
-0.215
-0.225
-0.225
-0.245
-0.255
-0.255
-0.235
