Lead II
0.34
0.36
0.39
0.39
0.415
0.445
0.475
0.5
0.51
0.505
0.51
0.54
0.585
0.625
0.615
0.65
0.655
0.675
0.71
0.74
0.76
0.775
0.805
0.83
0.855
0.895
0.925
0.925
0.93
0.945
0.96
0.99
1.01
1.0
0.985
1.0
1.02
1.025
1.025
1.03
1.025
0.995
1.01
1.0
0.975
0.935
0.895
0.85
0.84
0.83
0.805
0.745
0.705
0.67
0.63
0.615
0.56
0.495
0.435
0.4
0.375
0.35
0.29
0.23
0.19
0.165
0.15
0.125
0.085
0.05
0.03
-0.01
0.015
0.01
-0.01
-0.03
-0.045
-0.065
-0.05
-0.055
-0.06
-0.085
-0.1
-0.1
-0.095
-0.075
-0.09
-0.085
-0.08
-0.075
-0.055
-0.045
-0.07
-0.09
-0.105
-0.105
-0.095
-0.065
-0.06
-0.08
-0.09
-0.1
-0.1
-0.08
-0.06
-0.06
-0.095
-0.105
-0.09
-0.07
-0.075
-0.1
-0.125
-0.13
-0.135
-0.13
-0.135
-0.15
-0.17
-0.165
-0.15
-0.13
-0.135
-0.155
-0.18
-0.16
-0.15
-0.14
-0.13
-0.14
-0.15
-0.145
-0.135
-0.13
-0.125
-0.13
-0.15
-0.135
-0.14
-0.13
-0.14
-0.145
-0.14
-0.15
-0.14
-0.135
-0.125
-0.125
-0.14
-0.135
-0.115
-0.095
-0.09
-0.095
-0.11
-0.12
-0.1
-0.095
-0.105
-0.135
-0.15
-0.15
-0.125
-0.105
-0.115
-0.135
-0.14
-0.145
-0.125
-0.12
-0.12
-0.14
-0.145
-0.135
-0.13
-0.115
-0.12
-0.145
-0.14
-0.14
-0.12
-0.105
-0.125
-0.15
-0.15
-0.145
-0.115
-0.105
-0.095
-0.1
-0.12
-0.115
-0.105
-0.095
-0.1
-0.115
-0.115
-0.115
-0.115
-0.11
-0.1
-0.115
-0.11
-0.11
-0.095
-0.08
-0.09
-0.1
-0.115
-0.1
-0.085
-0.05
-0.005
0.035
0.135
0.37
0.755
1.185
1.465
1.51
1.355
1.14
1.015
0.965
0.895
0.805
0.715
0.615
0.535
0.455
0.33
0.19
0.06
-0.05
-0.15
-0.21
-0.325
-0.44
-0.54
-0.66
-0.765
-0.87
-0.995
-1.115
-1.22
-1.31
-1.355
-1.4
-1.455
-1.525
-1.56
-1.595
-1.595
-1.585
-1.585
-1.55
-1.53
-1.515
-1.465
-1.41
-1.335
-1.27
-1.175
-1.055
-0.94
-0.83
-0.79
-0.775
-0.755
-0.725
-0.69
-0.62
-0.575
-0.53
-0.485
-0.44
-0.39
-0.32
-0.265
-0.22
-0.175
-0.11
-0.055
-0.005
0.03
0.045
0.045
0.065
0.085
0.11
0.135
0.14
0.125
0.13
0.13
0.165
0.17
0.155
0.17
0.175
0.2
0.215
0.215
0.205
0.195
0.2
0.22
0.235
0.245
0.245
0.235
0.23
0.265
0.295
0.31
0.31
0.295
0.305
0.305
0.325
0.335
0.35
0.355
0.36
0.405
0.43
0.445
0.45
0.44
0.455
0.48
0.515
0.53
0.555
0.57
0.58
0.62
0.66
0.68
0.695
0.71
0.725
0.755
0.785
0.775
0.795
0.79
0.81
0.835
0.875
0.88
0.875
0.885
0.89
0.9
0.915
0.91
0.9
0.89
0.89
0.9
0.915
0.905
0.89
0.865
0.855
0.85
0.84
0.8
0.76
0.725
0.695
0.67
0.66
0.615
0.58
0.535
0.49
0.47
0.47
0.425
0.385
0.34
0.3
0.29
0.265
0.215
0.175
0.14
0.1
0.09
0.08
0.04
0.015
-0.015
-0.035
-0.045
-0.055
-0.07
-0.095
-0.115
-0.13
-0.12
-0.12
-0.13
-0.15
-0.165
-0.165
-0.17
-0.16
-0.165
-0.18
-0.195
-0.2
-0.2
-0.185
-0.175
-0.2
-0.205
-0.2
-0.19
-0.19
-0.19
-0.2
-0.23
-0.215
-0.22
-0.2
-0.225
-0.24
-0.24
-0.235
-0.21
-0.205
-0.2
-0.205
-0.22
-0.22
-0.22
-0.18
-0.185
-0.21
-0.22
-0.215
-0.195
-0.185
-0.19
-0.2
-0.215
-0.22
-0.215
-0.195
-0.205
-0.215
-0.23
-0.245
-0.24
-0.23
-0.22
-0.23
-0.24
-0.24
-0.24
-0.23
-0.24
-0.25
-0.25
-0.27
-0.255
-0.26
-0.26
-0.28
-0.27
-0.275
-0.275
-0.275
-0.285
-0.305
-0.305
-0.3
-0.295
-0.29
-0.29
-0.295
-0.305
-0.315
-0.305
-0.29
-0.275
-0.295
-0.285
-0.29
-0.255
-0.245
-0.26
-0.265
-0.275
-0.28
-0.25
-0.245
-0.25
-0.265
-0.255
-0.255
-0.24
-0.215
-0.22
-0.24
-0.25
-0.26
-0.24
-0.22
-0.23
-0.235
-0.25
-0.265
-0.26
-0.265
-0.25
-0.245
-0.275
-0.265
-0.265
-0.245
-0.245
-0.255
-0.265
-0.29
-0.29
-0.275
-0.27
-0.27
-0.28
-0.265
-0.255
-0.24
-0.25
-0.25
-0.245
-0.235
-0.205
-0.165
-0.185
-0.17
-0.15
-0.12
-0.005
0.21
0.605
1.09
1.43
1.455
1.26
1.03
0.895
0.825
0.75
0.655
0.565
0.495
0.38
0.25
0.14
0.04
-0.07
-0.17
-0.305
-0.44
-0.56
-0.685
-0.79
-0.895
-1.035
-1.17
-1.28
-1.35
-1.42
-1.45
-1.52
-1.565
-1.61
-1.63
-1.625
-1.62
-1.585
-1.555
-1.54
-1.485
-1.415
-1.305
-1.22
-1.12
-1.025
-0.9
-0.835
-0.78
-0.77
-0.715
-0.695
-0.645
-0.585
-0.515
-0.465
-0.425
-0.395
-0.345
-0.285
-0.205
-0.145
-0.11
-0.095
-0.05
-0.01
0.045
0.055
0.045
0.055
0.07
0.085
0.135
0.13
0.125
0.125
0.135
0.15
0.16
0.14
0.145
0.14
0.145
0.175
0.195
0.22
0.2
0.22
0.22
0.235
0.27
0.275
0.285
0.285
0.32
0.345
0.375
0.39
0.39
0.39
0.385
0.43
0.45
0.475
0.48
0.48
0.51
0.54
0.57
0.575
0.6
0.59
0.65
0.665
0.69
0.7
0.705
0.73
0.745
0.775
0.82
0.845
0.835
0.855
0.865
0.9
0.93
0.92
0.92
0.905
0.905
0.915
0.925
0.925
0.915
0.885
0.86
0.865
0.865
0.835
0.805
0.77
0.755
0.72
0.71
0.66
0.62
0.57
0.535
0.495
0.465
0.43
0.385
0.345
0.31
0.275
0.245
0.21
0.165
0.13
0.1
0.1
0.075
0.06
0.015
0.0
-0.005
0.0
-0.005
-0.015
-0.04
-0.08
-0.085
-0.08
-0.065
-0.055
-0.085
-0.115
-0.12
-0.11
-0.105
-0.115
-0.135
-0.145
-0.155
-0.145
-0.125
-0.125
-0.135
-0.15
-0.145
-0.145
-0.155
-0.145
-0.155
-0.15
-0.145
-0.12
-0.125
-0.135
-0.135
-0.15
-0.145
-0.13
-0.13
-0.125
-0.14
-0.155
-0.155
-0.155
-0.145
-0.15
-0.17
-0.175
-0.18
-0.155
-0.155
-0.17
-0.18
-0.19
-0.19
-0.185
-0.165
-0.2
-0.205
-0.215
-0.205
-0.205
-0.2
-0.22
-0.225
-0.235
-0.23
-0.225
-0.215
-0.215
-0.24
-0.235
-0.22
-0.225
-0.205
-0.21
-0.225
-0.24
-0.24
-0.235
-0.22
-0.215
-0.225
-0.235
-0.235
-0.21
-0.205
-0.22
-0.22
-0.21
-0.215
-0.2
-0.18
-0.19
-0.205
-0.215
-0.215
-0.2
-0.185
-0.19
-0.195
-0.2
-0.21
-0.195
-0.165
-0.175
-0.18
-0.21
-0.205
-0.2
-0.205
-0.2
-0.215
-0.225
-0.22
-0.215
-0.175
-0.18
-0.19
-0.205
-0.205
-0.185
-0.17
-0.19
-0.185
-0.19
-0.19
-0.18
-0.16
-0.18
-0.185
-0.185
-0.17
-0.14
-0.115
-0.095
-0.085
-0.06
0.035
0.205
0.5
0.92
1.315
1.455
1.335
1.125
0.98
0.895
0.82
0.73
0.625
0.53
0.44
0.31
0.165
0.04
-0.085
-0.185
-0.295
-0.41
-0.535
-0.67
-0.795
-0.92
-1.01
-1.15
-1.24
-1.33
-1.415
-1.47
-1.505
-1.555
-1.58
-1.61
-1.615
-1.605
-1.57
-1.545
-1.525
-1.51
-1.46
-1.355
-1.26
-1.15
-1.04
-0.955
-0.855
-0.77
-0.7
-0.685
-0.665
-0.62
-0.565
-0.49
-0.415
-0.355
-0.31
-0.255
-0.19
-0.115
-0.06
-0.01
0.015
0.03
0.04
0.075
0.11
0.135
0.145
0.145
0.155
0.17
0.185
0.2
0.19
0.175
0.185
0.195
0.23
0.235
0.245
0.235
0.23
0.24
0.27
0.26
0.25
0.26
0.275
0.3
0.325
0.335
0.35
0.355
0.37
0.395
0.435
0.435
0.43
0.45
0.465
0.475
0.5
0.515
0.54
0.56
0.595
0.615
0.655
0.675
0.69
0.705
0.72
0.76
0.785
0.815
0.835
0.83
0.865
0.895
0.92
0.93
0.93
0.93
0.93
0.96
0.98
0.965
0.965
0.97
0.955
0.96
0.95
0.935
0.925
0.89
0.86
0.84
0.825
0.79
0.76
0.72
0.685
0.655
0.63
0.58
0.535
0.49
0.43
0.41
0.365
0.35
0.305
0.26
0.245
0.215
0.195
0.155
0.105
0.08
0.04
0.03
0.02
0.02
-0.02
-0.05
-0.06
-0.065
-0.04
-0.065
-0.075
-0.095
-0.095
-0.105
-0.105
-0.115
-0.115
-0.125
-0.125
-0.11
-0.11
-0.1
-0.115
-0.115
-0.125
-0.115
-0.095
-0.1
-0.115
-0.125
-0.125
-0.12
-0.1
-0.095
-0.11
-0.13
-0.145
-0.135
-0.125
-0.13
-0.13
-0.15
-0.145
-0.13
-0.12
-0.125
-0.155
-0.185
-0.18
-0.18
-0.16
-0.16
-0.175
-0.19
-0.19
-0.155
-0.15
-0.14
-0.175
-0.175
-0.185
-0.18
-0.17
-0.205
-0.195
-0.195
-0.195
-0.19
-0.155
-0.165
-0.17
-0.2
-0.195
-0.2
-0.185
-0.18
-0.19
-0.21
-0.19
-0.18
-0.165
-0.17
-0.18
-0.195
-0.185
-0.185
-0.175
-0.175
-0.2
-0.205
-0.2
-0.205
-0.205
-0.205
-0.23
-0.24
-0.245
-0.23
-0.2
-0.2
-0.205
-0.22
-0.215
-0.2
-0.2
-0.19
-0.195
-0.2
-0.215
-0.21
-0.185
-0.19
-0.205
-0.22
-0.215
-0.18
-0.16
-0.155
-0.16
-0.18
-0.185
-0.17
-0.15
-0.145
-0.16
-0.175
-0.175
-0.155
-0.135
-0.12
-0.14
-0.15
-0.115
-0.065
0.025
0.2
0.515
0.935
1.29
1.365
1.185
0.955
0.815
0.73
0.655
0.57
0.475
0.355
0.25
0.13
0.005
-0.11
-0.23
-0.37
-0.51
-0.645
-0.765
-0.89
-1.005
-1.135
-1.285
-1.375
-1.45
-1.5
-1.57
-1.625
-1.675
-1.7
-1.725
-1.705
-1.665
-1.635
-1.615
-1.57
-1.5
-1.4
-1.285
-1.165
-1.06
-0.95
-0.84
-0.755
-0.725
-0.695
-0.67
-0.635
-0.58
-0.52
-0.435
-0.385
-0.33
-0.285
-0.225
-0.14
-0.065
-0.01
0.02
0.06
0.095
0.12
0.15
0.165
0.17
0.17
0.19
0.2
0.235
0.23
0.215
0.21
0.215
0.23
0.245
0.255
0.24
0.245
0.255
0.27
0.295
0.295
0.285
0.275
0.29
0.31
0.355
0.37
0.375
0.375
0.385
0.42
0.45
0.465
0.46
0.48
0.49
0.54
0.575
0.59
0.61
0.625
0.655
0.68
0.69
0.7
0.715
0.725
0.76
0.81
0.835
0.875
0.89
0.9
0.925
0.96
0.985
0.995
0.995
0.99
0.99
1.0
1.005
1.015
1.005
0.975
0.97
0.96
0.945
0.905
0.85
0.81
0.78
0.765
0.755
0.725
0.65
0.595
0.54
0.51
0.49
0.475
0.41
0.355
0.3
0.265
0.25
0.2
0.155
0.12
0.1
0.075
0.075
0.05
0.025
0.0
-0.005
-0.015
-0.02
-0.035
-0.055
-0.08
-0.085
-0.065
-0.06
-0.055
-0.07
-0.095
-0.09
-0.09
-0.1
-0.105
-0.125
-0.135
-0.14
-0.125
-0.105
-0.13
-0.14
-0.155
-0.16
-0.14
-0.12
-0.12
-0.14
-0.165
-0.165
-0.16
-0.145
-0.145
-0.16
-0.185
-0.185
-0.19
-0.16
-0.155
-0.175
-0.185
-0.18
-0.165
-0.155
-0.15
-0.17
-0.19
-0.19
-0.18
-0.175
-0.165
-0.175
-0.185
-0.175
-0.165
-0.165
-0.18
-0.19
-0.21
-0.205
-0.19
-0.19
-0.185
-0.205
-0.225
-0.205
-0.175
-0.175
-0.17
-0.195
-0.205
-0.205
-0.195
-0.19
-0.2
-0.215
-0.21
-0.23
-0.21
-0.205
-0.21
-0.215
-0.225
-0.22
-0.215
-0.195
-0.215
-0.215
-0.215
-0.22
-0.205
-0.215
-0.215
-0.225
-0.215
-0.205
-0.215
-0.22
-0.235
-0.245
-0.26
-0.235
-0.22
-0.21
-0.205
-0.225
-0.23
-0.205
-0.205
-0.2
-0.23
-0.245
-0.245
-0.23
-0.215
-0.195
-0.185
-0.18
-0.2
-0.2
-0.185
-0.195
-0.21
-0.225
-0.215
-0.205
-0.185
-0.17
-0.165
-0.16
-0.155
-0.11
-0.035
0.13
0.455
0.905
1.265
1.33
1.13
0.895
0.78
0.71
0.645
0.57
0.48
0.365
0.245
0.11
-0.03
-0.16
-0.295
-0.415
-0.56
-0.715
-0.85
-0.98
-1.11
-1.23
-1.36
-1.46
-1.535
-1.625
-1.655
-1.69
-1.745
-1.8
-1.83
-1.825
-1.795
-1.745
-1.705
-1.67
-1.61
-1.53
-1.42
-1.27
-1.135
-1.005
-0.87
-0.77
-0.705
-0.645
-0.625
-0.585
-0.51
-0.445
-0.37
-0.295
-0.21
-0.165
-0.095
-0.03
0.015
0.06
0.06
0.045
0.03
0.025
0.035
0.065
0.08
0.075
0.09
0.115
0.14
0.16
0.165
0.15
0.155
0.155
0.195
0.225
0.24
0.23
0.23
0.25
0.275
0.305
0.325
0.33
0.345
0.355
0.385
0.41
0.425
0.425
0.42
0.42
0.455
0.475
0.495
0.52
0.53
0.565
0.6
0.62
0.615
0.615
0.62
0.65
0.69
0.72
0.745
0.755
0.765
0.8
0.825
0.86
0.875
0.875
0.885
0.92
0.95
0.98
0.99
0.985
0.965
0.985
1.015
1.03
1.025
1.005
0.97
0.965
0.955
0.95
0.915
0.88
0.83
0.79
0.75
0.73
0.705
0.65
0.585
0.535
0.495
0.44
0.375
0.325
0.27
0.23
0.22
0.185
0.13
0.095
0.045
0.01
0.0
-0.01
-0.04
-0.08
-0.095
-0.115
-0.105
-0.1
-0.125
-0.145
-0.16
-0.175
-0.155
-0.165
-0.155
-0.17
-0.18
-0.175
-0.165
-0.145
-0.125
-0.14
-0.14
-0.13
-0.125
-0.115
-0.105
-0.12
-0.135
-0.15
-0.15
-0.145
-0.15
-0.15
-0.17
-0.165
-0.165
-0.16
-0.185
-0.215
-0.22
-0.2
-0.17
-0.17
-0.17
-0.175
-0.2
-0.205
-0.21
-0.19
-0.195
-0.21
-0.22
-0.23
-0.23
-0.22
-0.215
-0.23
-0.235
-0.25
-0.235
-0.235
-0.23
-0.22
-0.235
-0.225
-0.205
-0.195
-0.165
-0.175
-0.19
-0.185
-0.175
-0.155
-0.185
-0.2
-0.225
-0.23
-0.22
-0.215
-0.235
-0.23
-0.235
-0.225
-0.215
-0.21
-0.22
-0.24
-0.255
-0.235
-0.215
-0.205
-0.215
-0.235
-0.23
-0.225
-0.21
-0.2
-0.23
-0.25
-0.26
-0.24
-0.21
-0.205
-0.21
-0.215
-0.23
-0.23
-0.22
-0.21
-0.21
-0.225
-0.235
-0.225
-0.205
-0.185
-0.155
-0.175
-0.17
-0.17
-0.16
-0.165
-0.17
-0.175
-0.205
-0.21
-0.205
-0.17
-0.165
-0.175
-0.185
-0.18
-0.16
-0.135
-0.135
-0.14
-0.11
-0.085
-0.005
0.15
0.47
0.925
1.32
1.43
1.28
1.055
0.91
0.855
0.775
0.7
0.63
0.56
0.47
0.385
0.265
0.165
0.045
-0.06
-0.185
-0.32
-0.47
-0.62
-0.735
-0.87
-1.02
-1.16
-1.275
-1.355
-1.43
-1.48
-1.56
-1.62
-1.665
-1.7
-1.735
-1.735
-1.73
-1.73
-1.71
-1.645
-1.57
-1.48
-1.41
-1.32
-1.21
-1.055
-0.9
-0.78
-0.715
-0.685
-0.62
-0.56
-0.455
-0.395
-0.33
-0.28
-0.22
-0.155
-0.09
-0.02
0.015
0.045
0.05
0.085
0.11
0.145
0.145
0.155
0.165
0.175
0.19
0.22
0.235
0.23
0.225
0.24
0.26
0.285
0.3
0.305
0.29
0.32
0.345
0.365
0.365
0.355
0.365
0.375
0.4
0.435
0.42
0.44
0.43
0.445
0.47
0.505
0.515
0.515
0.53
0.535
0.58
0.615
0.625
0.63
0.645
0.66
0.7
0.735
0.74
0.765
0.77
0.785
0.83
0.855
0.875
0.885
0.89
0.905
0.94
0.955
0.975
0.99
0.99
1.01
1.03
1.055
1.06
1.055
1.04
1.05
1.045
1.045
1.015
0.985
0.955
0.94
0.91
0.885
0.86
0.805
0.76
0.74
0.71
0.68
0.63
0.575
0.535
0.49
0.47
0.43
0.395
0.345
0.3
0.27
0.25
0.23
0.18
0.15
0.105
0.09
0.08
0.055
0.035
0.005
-0.02
-0.025
-0.02
-0.01
-0.025
-0.05
-0.055
-0.05
-0.04
-0.035
-0.035
-0.045
-0.06
-0.06
-0.04
-0.03
-0.04
-0.065
-0.07
-0.05
-0.03
-0.03
-0.04
-0.05
-0.06
-0.045
-0.055
-0.03
-0.035
-0.05
-0.065
-0.06
-0.07
-0.055
-0.065
-0.07
-0.08
-0.095
-0.095
-0.08
-0.085
-0.11
-0.12
-0.115
-0.115
-0.11
-0.12
-0.14
-0.155
-0.145
-0.135
-0.12
-0.135
-0.145
-0.175
-0.17
-0.16
-0.14
-0.145
-0.15
-0.17
-0.16
-0.16
-0.14
-0.135
-0.155
-0.15
-0.16
-0.155
-0.13
-0.11
-0.13
-0.13
-0.125
-0.12
-0.12
-0.155
-0.16
-0.175
-0.16
-0.145
-0.15
-0.15
-0.16
-0.165
-0.16
-0.15
-0.155
-0.155
-0.17
-0.205
-0.195
-0.18
-0.17
-0.16
-0.17
-0.185
-0.185
-0.16
-0.145
-0.145
-0.16
-0.17
-0.17
-0.16
-0.145
-0.155
-0.17
-0.18
-0.175
-0.16
-0.155
-0.15
-0.16
-0.19
-0.185
-0.155
-0.135
-0.145
-0.14
-0.145
-0.155
-0.13
-0.11
-0.1
-0.1
-0.115
-0.11
-0.095
-0.08
-0.08
-0.095
-0.08
-0.035
0.065
0.28
0.62
1.05
1.35
1.385
1.215
1.04
0.92
0.85
0.775
0.72
0.635
0.57
0.46
0.355
0.24
0.145
0.055
-0.045
-0.155
-0.275
-0.405
-0.51
-0.63
-0.745
-0.895
-1.04
-1.16
-1.23
-1.305
-1.37
-1.43
-1.51
-1.565
-1.59
-1.585
-1.58
-1.57
-1.55
-1.525
-1.49
-1.445
-1.35
-1.24
-1.11
-0.975
-0.87
-0.79
-0.74
-0.715
-0.715
-0.68
-0.615
-0.55
-0.48
-0.39
-0.35
-0.285
-0.22
-0.145
-0.08
-0.025
-0.01
-0.005
0.03
0.055
0.075
0.075
0.06
0.065
0.07
0.1
0.115
0.12
0.1
0.08
0.09
0.145
0.165
0.17
0.155
0.155
0.165
0.18
0.195
0.205
0.215
0.22
0.24
0.265
0.29
0.29
0.285
0.27
0.285
0.29
0.32
0.325
0.315
0.33
0.35
0.385
0.42
0.415
0.425
0.435
0.46
0.485
0.51
0.535
0.53
0.55
0.585
0.61
0.645
0.66
0.66
0.665
0.69
0.72
0.735
0.745
0.735
0.725
0.745
0.76
0.775
0.775
0.75
0.74
0.74
0.72
0.72
0.71
0.655
0.64
0.6
0.585
0.56
0.53
0.49
0.465
0.42
0.4
0.38
0.325
0.265
0.23
0.185
0.155
0.145
0.09
0.045
0.01
-0.03
-0.025
-0.04
-0.06
-0.105
-0.135
-0.155
-0.155
-0.16
-0.175
-0.2
-0.23
-0.24
-0.235
-0.23
-0.245
-0.27
-0.26
-0.26
-0.265
-0.26
-0.28
-0.28
-0.285
-0.28
-0.285
-0.27
-0.28
-0.285
-0.31
-0.305
-0.295
-0.305
-0.295
-0.3
-0.315
-0.33
-0.31
-0.305
-0.305
-0.32
-0.325
-0.32
-0.295
-0.29
-0.305
-0.315
-0.335
-0.335
-0.335
-0.33
-0.335
-0.355
-0.355
-0.365
-0.355
-0.35
-0.36
-0.38
-0.395
-0.38
-0.365
-0.355
-0.38
-0.385
-0.41
-0.41
-0.4
-0.4
-0.41
-0.435
-0.435
-0.44
-0.42
-0.4
-0.405
-0.405
-0.415
-0.425
-0.415
-0.405
-0.42
-0.42
-0.435
-0.42
-0.43
-0.42
-0.425
-0.45
-0.45
-0.44
-0.435
-0.415
-0.44
-0.45
-0.455
-0.45
-0.435
-0.435
-0.45
-0.455
-0.455
-0.45
-0.445
-0.435
-0.455
-0.455
-0.475
-0.475
-0.465
-0.46
-0.465
-0.475
-0.47
-0.475
-0.475
-0.465
-0.485
-0.465
-0.465
-0.455
-0.435
-0.415
-0.415
-0.425
-0.43
-0.425
-0.41
-0.405
-0.415
-0.42
-0.44
-0.42
-0.4
-0.395
-0.41
-0.445
-0.46
-0.44
-0.425
-0.415
-0.4
-0.395
-0.37
-0.3
-0.11
0.215
0.645
1.015
1.17
1.03
0.8
0.635
0.53
0.45
0.38
0.3
0.225
0.13
0.02
-0.1
-0.21
-0.32
-0.41
-0.5
-0.625
-0.735
-0.845
-0.955
-1.04
-1.125
-1.255
-1.375
-1.48
-1.565
-1.635
-1.695
-1.77
-1.825
-1.865
-1.9
-1.915
-1.895
-1.905
-1.91
-1.89
-1.865
-1.825
-1.765
-1.71
-1.64
-1.55
-1.45
-1.315
-1.205
-1.14
-1.095
-1.09
-1.04
-0.985
-0.94
-0.905
-0.855
-0.84
-0.79
-0.705
-0.64
-0.595
-0.55
-0.495
-0.445
-0.385
-0.335
-0.32
-0.32
-0.305
-0.285
-0.255
-0.225
-0.215
-0.23
-0.255
-0.23
-0.21
-0.19
-0.17
-0.18
-0.17
-0.16
-0.145
-0.115
-0.13
-0.105
-0.105
-0.075
-0.055
-0.035
-0.035
-0.045
-0.04
-0.025
0.01
0.025
0.035
0.03
0.035
0.055
0.085
0.105
0.105
0.115
0.115
0.105
0.15
0.18
0.195
0.175
0.19
0.21
0.24
0.265
0.28
0.28
0.295
0.315
0.34
0.375
0.4
0.41
0.41
0.445
0.475
0.51
0.53
0.525
0.53
0.54
0.57
0.59
0.605
0.615
0.595
0.61
0.61
0.635
0.63
0.6
0.575
0.57
0.57
0.58
0.545
0.5
0.47
0.445
0.42
0.405
0.37
0.31
0.25
0.2
0.17
0.15
0.08
0.03
-0.02
-0.045
-0.065
-0.09
-0.15
-0.195
-0.235
-0.24
-0.245
-0.265
-0.3
-0.315
-0.325
-0.345
-0.345
-0.365
-0.39
-0.415
-0.435
-0.445
-0.44
-0.43
-0.425
-0.44
-0.455
-0.455
-0.455
-0.45
-0.445
-0.45
-0.47
-0.475
-0.45
-0.425
-0.41
-0.42
-0.435
-0.42
-0.405
-0.395
-0.4
-0.425
-0.45
-0.45
-0.43
-0.425
-0.425
-0.455
-0.465
-0.46
-0.45
-0.44
-0.44
-0.455
-0.465
-0.46
-0.445
-0.44
-0.45
-0.465
-0.485
-0.495
-0.48
-0.47
-0.485
-0.49
-0.51
-0.505
-0.49
-0.485
-0.51
-0.525
-0.52
-0.515
-0.485
-0.475
-0.495
-0.495
-0.51
-0.51
-0.505
-0.49
-0.505
-0.515
-0.51
-0.485
-0.475
-0.46
-0.455
-0.48
-0.485
-0.465
-0.455
-0.44
-0.465
-0.465
-0.475
-0.47
-0.47
-0.47
-0.45
-0.47
-0.48
-0.48
-0.47
-0.445
-0.45
-0.46
-0.47
-0.47
-0.445
-0.43
-0.44
-0.475
-0.47
-0.475
-0.46
-0.465
-0.45
-0.46
-0.45
-0.45
-0.435
-0.43
-0.44
-0.445
-0.455
-0.45
-0.44
-0.425
-0.435
-0.445
-0.45
-0.44
-0.415
-0.405
-0.4
-0.42
-0.43
-0.435
-0.425
-0.41
-0.415
-0.41
-0.42
-0.405
-0.385
-0.37
-0.38
-0.385
-0.4
-0.38
-0.35
-0.33
-0.34
-0.335
-0.325
-0.31
-0.255
-0.175
-0.035
0.21
0.59
1.005
1.245
1.225
0.99
0.76
0.655
0.585
0.515
0.43
0.32
0.2
0.09
-0.035
-0.145
-0.255
-0.375
-0.495
-0.61
-0.73
-0.805
-0.89
-1.01
-1.135
-1.265
-1.38
-1.44
-1.495
-1.58
-1.645
-1.71
-1.735
-1.76
-1.785
-1.805
-1.805
-1.815
-1.8
-1.75
-1.735
-1.68
-1.655
-1.6
-1.5
-1.395
-1.265
-1.16
-1.065
-0.985
-0.93
-0.9
-0.87
-0.865
-0.815
-0.795
-0.745
-0.67
-0.615
-0.57
-0.52
-0.47
-0.4
-0.345
-0.285
-0.25
-0.22
-0.21
-0.165
-0.145
-0.105
-0.11
-0.085
-0.09
-0.075
-0.04
-0.01
0.01
0.01
0.01
0.03
0.055
0.085
0.08
0.095
0.105
0.115
0.135
0.17
0.175
0.2
0.175
0.195
0.22
0.255
0.26
0.265
0.255
0.265
0.295
0.32
0.33
0.335
0.335
0.37
0.385
0.43
0.445
0.455
0.46
0.485
0.51
0.53
0.54
0.55
0.56
0.585
0.625
0.66
0.665
0.68
0.685
0.73
0.755
0.795
0.795
0.795
0.79
0.81
0.85
0.885
0.895
0.89
0.885
0.875
0.9
0.91
0.91
0.895
0.875
0.88
0.87
0.86
0.84
0.795
0.76
0.73
0.71
0.675
0.62
0.57
0.515
0.47
0.455
0.425
0.375
0.315
0.27
0.23
0.22
0.18
0.14
0.09
0.04
0.01
0.005
0.0
-0.025
-0.05
-0.075
-0.085
-0.105
-0.105
-0.12
-0.125
-0.14
-0.145
-0.14
-0.13
-0.145
-0.15
-0.17
-0.165
-0.155
-0.14
-0.155
-0.17
-0.175
-0.17
-0.15
-0.115
-0.135
-0.15
-0.16
-0.16
-0.16
-0.155
-0.16
-0.17
-0.18
-0.175
-0.18
-0.165
-0.16
-0.17
-0.195
-0.185
-0.185
-0.155
-0.18
-0.195
-0.205
-0.21
-0.195
-0.19
-0.19
-0.21
-0.25
-0.245
-0.22
-0.22
-0.22
-0.225
-0.25
-0.25
-0.225
-0.225
-0.21
-0.225
-0.245
-0.23
-0.23
-0.2
-0.205
-0.22
-0.24
-0.23
-0.195
-0.175
-0.175
-0.175
-0.2
-0.205
-0.2
-0.185
-0.185
-0.205
-0.215
-0.225
-0.205
-0.21
-0.21
-0.22
-0.225
-0.215
-0.205
-0.185
-0.185
-0.21
-0.215
-0.205
-0.2
-0.19
-0.2
-0.22
-0.225
-0.23
-0.23
-0.215
-0.23
-0.225
-0.225
-0.21
-0.22
-0.205
-0.21
-0.23
-0.23
-0.22
-0.205
-0.185
-0.17
-0.18
-0.2
-0.175
-0.165
-0.145
-0.165
-0.155
-0.145
-0.135
-0.135
-0.12
-0.13
-0.165
-0.165
-0.16
-0.15
-0.135
-0.135
-0.14
-0.135
-0.125
-0.095
-0.04
0.015
0.15
0.455
0.915
1.34
1.445
1.24
0.975
0.82
0.75
0.7
0.605
0.5
0.375
0.245
0.145
0.02
-0.09
-0.235
-0.375
-0.515
-0.65
-0.775
-0.895
-1.015
-1.145
-1.28
-1.38
-1.44
-1.495
-1.56
-1.625
-1.685
-1.71
-1.725
-1.72
-1.73
-1.73
-1.71
-1.68
-1.615
-1.555
-1.505
-1.44
-1.36
-1.235
-1.095
-0.955
-0.85
-0.78
-0.745
-0.72
-0.67
-0.625
-0.59
-0.54
-0.505
-0.445
-0.355
-0.27
-0.21
-0.15
-0.095
-0.035
0.015
0.06
0.105
0.13
0.145
0.165
0.2
0.23
0.235
0.24
0.25
0.26
0.27
0.305
0.31
0.315
0.305
0.325
0.355
0.385
0.39
0.41
0.41
0.42
0.43
0.44
0.435
0.435
0.43
0.445
0.48
0.505
0.515
0.505
0.505
0.535
0.555
0.59
0.565
0.58
0.595
0.61
0.65
0.675
0.685
0.705
0.71
0.75
0.78
0.805
0.83
0.835
0.85
0.865
0.91
0.94
0.96
0.96
0.97
1.0
1.025
1.06
1.085
1.085
1.075
1.1
1.115
1.125
1.125
1.105
1.105
1.115
1.12
1.115
1.095
1.045
1.01
0.975
0.96
0.935
0.88
0.825
0.77
0.735
0.705
0.675
0.63
0.555
0.51
0.475
0.45
0.435
0.4
0.355
0.31
0.28
0.255
0.235
0.185
0.16
0.115
0.095
0.085
0.08
0.05
0.04
0.04
0.04
0.055
0.055
0.04
0.025
0.01
0.005
0.015
0.005
0.025
0.015
0.005
-0.015
-0.005
0.03
0.015
0.0
0.01
-0.01
0.0
0.02
0.005
-0.015
-0.03
-0.015
-0.01
0.0
-0.01
-0.02
-0.03
-0.025
-0.035
-0.03
-0.015
-0.045
-0.065
-0.08
-0.045
-0.055
-0.055
-0.08
-0.08
-0.075
-0.07
-0.06
-0.075
-0.1
-0.105
-0.095
-0.075
-0.07
-0.07
-0.09
-0.1
-0.1
-0.06
-0.06
-0.06
-0.06
-0.075
-0.06
-0.045
-0.025
-0.035
-0.04
-0.04
-0.045
-0.03
-0.015
-0.015
-0.03
-0.065
-0.08
-0.085
-0.085
-0.095
-0.085
-0.085
-0.07
-0.065
-0.07
-0.075
-0.105
-0.1
-0.09
-0.085
-0.07
-0.07
-0.085
-0.1
-0.105
-0.09
-0.06
-0.055
-0.075
-0.07
-0.065
-0.055
-0.045
-0.045
-0.07
-0.075
-0.085
-0.085
-0.07
-0.095
-0.095
-0.11
-0.11
-0.08
-0.07
-0.065
-0.07
-0.075
-0.055
-0.035
-0.01
-0.025
-0.04
-0.075
-0.09
-0.075
-0.08
-0.065
-0.075
-0.075
-0.065
-0.055
-0.04
-0.055
-0.06
-0.035
0.005
0.08
0.24
0.555
0.985
1.335
1.41
1.225
1.01
0.885
0.82
0.755
0.665
0.57
0.475
0.32
0.17
0.02
-0.11
-0.23
-0.345
-0.48
-0.625
-0.78
-0.9
-1.025
-1.155
-1.265
-1.355
-1.44
-1.515
-1.57
-1.615
-1.665
-1.72
-1.755
-1.74
-1.735
-1.715
-1.68
-1.645
-1.6
-1.54
-1.455
-1.345
-1.25
-1.145
-1.02
-0.88
-0.775
-0.725
-0.71
-0.655
-0.61
-0.555
-0.5
-0.435
-0.365
-0.315
-0.255
-0.16
-0.075
0.025
0.085
0.105
0.135
0.165
0.21
0.215
0.23
0.225
0.235
0.25
0.285
0.31
0.305
0.31
0.31
0.33
0.34
0.35
0.37
0.35
0.35
0.365
0.39
0.415
0.43
0.435
0.435
0.425
0.425
0.44
0.445
0.455
0.455
0.48
0.53
0.565
0.555
0.555
0.565
0.6
0.63
0.665
0.655
0.69
0.705
0.725
0.77
0.805
0.815
0.825
0.86
0.895
0.92
0.96
0.98
0.99
1.005
1.05
1.065
1.085
1.08
1.09
1.09
1.115
1.14
1.15
1.17
1.14
1.14
1.14
1.135
1.15
1.125
1.105
1.07
1.07
1.045
1.015
0.99
0.94
0.885
0.84
0.825
0.79
0.75
0.69
0.645
0.61
0.6
0.575
0.545
0.49
0.44
0.42
0.375
0.345
0.3
0.24
0.215
0.195
0.2
0.2
0.165
0.135
0.08
0.08
0.075
0.065
0.06
0.04
0.02
0.02
0.025
0.025
0.01
-0.005
-0.02
-0.02
-0.02
0.0
-0.02
-0.05
-0.065
-0.06
-0.055
-0.05
-0.075
-0.055
-0.06
-0.075
-0.065
-0.065
-0.07
-0.085
-0.085
-0.09
-0.07
-0.065
-0.07
-0.055
-0.055
-0.055
-0.045
-0.05
-0.075
-0.07
-0.08
-0.09
-0.065
-0.055
-0.075
-0.1
-0.115
-0.1
-0.09
-0.08
-0.1
-0.125
-0.145
-0.135
-0.125
-0.105
-0.115
-0.13
-0.13
-0.115
-0.11
-0.095
-0.11
-0.14
-0.165
-0.16
-0.155
-0.135
-0.135
-0.155
-0.17
-0.15
-0.14
-0.13
-0.11
-0.12
-0.13
-0.13
-0.12
-0.13
-0.115
-0.135
-0.135
-0.16
-0.135
-0.115
-0.11
-0.13
-0.145
-0.145
-0.155
-0.135
-0.135
-0.145
-0.15
-0.145
-0.11
-0.09
-0.125
-0.14
-0.17
-0.165
-0.14
-0.135
-0.115
-0.14
-0.155
-0.165
-0.16
-0.14
-0.15
-0.155
-0.165
-0.16
-0.16
-0.13
-0.14
-0.14
-0.13
-0.12
-0.1
-0.085
-0.1
-0.1
-0.095
-0.085
-0.09
-0.115
-0.105
-0.11
-0.095
-0.055
0.025
0.165
0.49
0.94
1.315
1.4
1.22
1.01
0.885
0.815
0.73
0.64
0.56
0.45
0.315
0.185
0.04
-0.095
-0.225
-0.34
-0.5
-0.64
-0.785
-0.91
-1.065
-1.195
-1.315
-1.44
-1.53
-1.6
-1.665
-1.715
-1.755
-1.8
-1.845
-1.85
