Lead II
-2.09
-2.09
-2.115
-2.145
-2.175
-2.18
-2.165
-2.17
-2.175
-2.17
-2.17
-2.185
-2.18
-2.16
-2.155
-2.16
-2.14
-2.125
-2.12
-2.115
-2.115
-2.105
-2.12
-2.105
-2.11
-2.115
-2.11
-2.095
-2.11
-2.095
-2.055
-2.04
-2.02
-2.01
-2.025
-2.015
-2.035
-2.03
-2.025
-2.015
-2.0
-1.98
-1.965
-1.935
-1.945
-1.955
-1.95
-1.945
-1.93
-1.92
-1.92
-1.895
-1.87
-1.85
-1.845
-1.83
-1.83
-1.83
-1.815
-1.795
-1.8
-1.805
-1.79
-1.78
-1.78
-1.77
-1.75
-1.74
-1.75
-1.765
-1.77
-1.78
-1.8
-1.8
-1.815
-1.84
-1.825
-1.83
-1.815
-1.82
-1.84
-1.855
-1.87
-1.885
-1.905
-1.93
-1.945
-1.95
-1.96
-1.98
-1.975
-1.965
-1.985
-2.01
-2.0
-2.0
-2.02
-2.025
-2.035
-2.03
-2.02
-2.01
-1.995
-2.01
-2.015
-2.02
-2.015
-2.035
-2.035
-2.04
-2.035
-2.04
-2.04
-2.025
-2.01
-2.015
-2.0
-1.99
-2.01
-2.01
-2.025
-2.035
-2.045
-2.02
-2.025
-2.005
-1.99
-2.005
-2.005
-2.01
-2.03
-2.035
-2.05
-2.055
-2.05
-2.05
-2.03
-2.03
-2.045
-2.035
-2.025
-2.025
-2.04
-2.03
-2.025
-2.055
-2.055
-2.065
-2.05
-2.065
-2.05
-2.045
-2.04
-2.05
-2.06
-2.055
-2.06
-2.075
-2.085
-2.065
-2.07
-2.06
-2.05
-2.065
-2.075
-2.08
-2.08
-2.085
-2.09
-2.09
-2.1
-2.115
-2.105
-2.1
-2.095
-2.07
-2.07
-2.06
-2.08
-2.075
-2.075
-2.085
-2.1
-2.1
-2.085
-2.055
-2.04
-2.015
-2.015
-1.985
-2.02
-2.02
-2.01
-2.0
-2.0
-1.995
-1.975
-1.985
-1.98
-1.96
-1.955
-1.95
-1.92
-1.925
-1.92
-1.93
-1.94
-1.965
-1.975
-1.955
-1.96
-1.95
-1.955
-1.98
-1.995
-2.025
-2.045
-2.05
-2.07
-2.09
-2.09
-2.105
-2.1
-2.125
-2.135
-2.13
-2.14
-2.15
-2.16
-2.16
-2.16
-2.16
-2.16
-2.145
-2.14
-2.135
-2.125
-2.125
-2.14
-2.15
-2.15
-2.13
-2.105
-2.045
-1.94
-1.8
-1.62
-1.44
-1.235
-1.0
-0.765
-0.535
-0.345
-0.245
-0.29
-0.5
-0.89
-1.42
-1.98
-2.495
-2.83
-2.925
-2.81
-2.575
-2.325
-2.135
-2.025
-1.99
-2.01
-2.06
-2.09
-2.12
-2.125
-2.125
-2.11
-2.11
-2.105
-2.11
-2.115
-2.12
-2.13
-2.115
-2.105
-2.095
-2.1
-2.09
-2.095
-2.09
-2.095
-2.08
-2.08
-2.065
-2.05
-2.05
-2.045
-2.055
-2.045
-2.045
-2.04
-2.055
-2.07
-2.06
-2.055
-2.03
-2.05
-2.02
-1.995
-1.975
-1.96
-1.96
-1.965
-1.96
-1.955
-1.96
-1.945
-1.945
-1.92
-1.895
-1.885
-1.875
-1.855
-1.855
-1.87
-1.865
-1.845
-1.83
-1.82
-1.805
-1.795
-1.8
-1.79
-1.78
-1.785
-1.78
-1.795
-1.795
-1.805
-1.815
-1.805
-1.795
-1.785
-1.785
-1.78
-1.79
-1.805
-1.8
-1.82
-1.84
-1.85
-1.87
-1.885
-1.88
-1.885
-1.89
-1.88
-1.875
-1.895
-1.9
-1.93
-1.95
-1.97
-1.995
-2.0
-2.005
-1.99
-1.985
-1.99
-1.97
-1.965
-1.965
-1.97
-1.98
-1.98
-1.99
-2.0
-1.985
-1.97
-1.965
-1.95
-1.94
-1.945
-1.97
-1.985
-1.98
-1.985
-2.0
-1.99
-1.99
-1.975
-1.975
-1.975
-1.97
-1.98
-1.98
-1.995
-1.99
-2.005
-2.01
-2.02
-2.025
-2.02
-2.02
-2.02
-2.0
-2.0
-2.005
-2.015
-2.025
-2.035
-2.05
-2.055
-2.06
-2.06
-2.055
-2.05
-2.035
-2.04
-2.045
-2.05
-2.055
-2.065
-2.07
-2.065
-2.075
-2.065
-2.075
-2.05
-2.065
-2.055
-2.06
-2.075
-2.06
-2.065
-2.075
-2.06
-2.05
-2.045
-2.03
-2.04
-2.035
-2.05
-2.06
-2.07
-2.06
-2.08
-2.08
-2.085
-2.08
-2.075
-2.065
-2.05
-2.04
-2.0
-1.995
-1.98
-1.98
-1.98
-1.97
-1.96
-1.965
-1.965
-1.95
-1.95
-1.93
-1.91
-1.895
-1.895
-1.885
-1.88
-1.9
-1.92
-1.93
-1.93
-1.945
-1.935
-1.94
-1.94
-1.95
-1.975
-1.98
-2.015
-2.03
-2.045
-2.055
-2.065
-2.075
-2.085
-2.095
-2.115
-2.11
-2.105
-2.13
-2.13
-2.14
-2.135
-2.13
-2.12
-2.1
-2.08
-2.07
-2.075
-2.09
-2.09
-2.09
-2.055
-1.99
-1.88
-1.725
-1.535
-1.335
-1.135
-0.905
-0.67
-0.485
-0.31
-0.205
-0.21
-0.355
-0.71
-1.25
-1.885
-2.43
-2.74
-2.79
-2.625
-2.38
-2.14
-1.985
-1.94
-1.95
-2.01
-2.07
-2.1
-2.12
-2.11
-2.09
-2.07
-2.065
-2.07
-2.075
-2.085
-2.095
-2.095
-2.07
-2.065
-2.055
-2.035
-2.03
-2.025
-2.03
-2.04
-2.06
-2.055
-2.06
-2.05
-2.055
-2.04
-2.025
-2.02
-2.005
-1.995
-2.0
-1.985
-1.985
-1.995
-1.99
-1.99
-1.985
-1.97
-1.96
-1.935
-1.93
-1.93
-1.93
-1.935
-1.93
-1.96
-1.92
-1.915
-1.895
-1.88
-1.87
-1.85
-1.85
-1.82
-1.805
-1.825
-1.815
-1.815
-1.815
-1.805
-1.79
-1.785
-1.75
-1.74
-1.735
-1.745
-1.76
-1.77
-1.76
-1.785
-1.79
-1.79
-1.78
-1.785
-1.77
-1.755
-1.77
-1.78
-1.795
-1.82
-1.845
-1.86
-1.86
-1.885
-1.89
-1.89
-1.885
-1.885
-1.88
-1.88
-1.91
-1.935
-1.94
-1.96
-1.96
-1.98
-1.98
-1.97
-1.97
-1.96
-1.95
-1.95
-1.965
-1.975
-1.98
-1.985
-1.99
-1.995
-2.0
-1.985
-1.99
-1.975
-1.965
-1.955
-1.96
-1.975
-1.98
-2.0
-2.005
-2.0
-2.015
-2.0
-1.99
-1.985
-1.985
-1.975
-1.98
-1.985
-1.965
-1.995
-2.005
-2.02
-2.025
-2.015
-2.01
-2.015
-2.0
-1.99
-1.99
-1.99
-2.025
-2.05
-2.045
-2.045
-2.045
-2.045
-2.045
-2.025
-2.01
-2.015
-2.03
-2.04
-2.045
-2.05
-2.055
-2.06
-2.055
-2.065
-2.05
-2.04
-2.045
-2.04
-2.035
-2.045
-2.055
-2.065
-2.075
-2.065
-2.075
-2.08
-2.08
-2.055
-2.06
-2.055
-2.06
-2.08
-2.075
-2.075
-2.065
-2.075
-2.065
-2.075
-2.075
-2.07
-2.07
-2.065
-2.07
-2.07
-2.07
-2.085
-2.09
-2.07
-2.05
-2.01
-1.975
-1.945
-1.935
-1.95
-1.965
-1.975
-1.985
-1.99
-2.01
-2.0
-1.985
-1.95
-1.915
-1.895
-1.895
-1.9
-1.91
-1.945
-1.97
-1.995
-2.0
-2.02
-2.03
-2.0
-1.995
-2.0
-2.02
-2.05
-2.07
-2.09
-2.13
-2.16
-2.17
-2.19
-2.19
-2.175
-2.17
-2.165
-2.145
-2.135
-2.14
-2.155
-2.155
-2.17
-2.175
-2.18
-2.185
-2.185
-2.165
-2.16
-2.12
-2.055
-1.98
-1.885
-1.73
-1.545
-1.32
-1.085
-0.825
-0.545
-0.32
-0.16
-0.16
-0.355
-0.805
-1.405
-2.045
-2.58
-2.88
-2.95
-2.805
-2.56
-2.31
-2.12
-2.02
-2.01
-2.055
-2.11
-2.15
-2.185
-2.205
-2.21
-2.205
-2.18
-2.18
-2.16
-2.145
-2.16
-2.17
-2.18
-2.175
-2.185
-2.17
-2.16
-2.155
-2.165
-2.13
-2.13
-2.12
-2.13
-2.105
-2.115
-2.125
-2.135
-2.135
-2.135
-2.135
-2.105
-2.095
-2.08
-2.06
-2.06
-2.05
-2.05
-2.055
-2.05
-2.04
-2.05
-2.035
-2.05
-2.03
-2.015
-1.99
-1.975
-1.965
-1.95
-1.955
-1.96
-1.96
-1.955
-1.945
-1.92
-1.89
-1.885
-1.875
-1.875
-1.86
-1.855
-1.855
-1.87
-1.87
-1.87
-1.875
-1.885
-1.875
-1.88
-1.855
-1.865
-1.875
-1.865
-1.89
-1.895
-1.91
-1.925
-1.92
-1.93
-1.93
-1.925
-1.94
-1.96
-1.965
-2.005
-2.02
-2.045
-2.055
-2.085
-2.09
-2.09
-2.115
-2.12
-2.115
-2.1
-2.11
-2.115
-2.125
-2.135
-2.135
-2.14
-2.145
-2.15
-2.155
-2.15
-2.15
-2.16
-2.155
-2.155
-2.16
-2.165
-2.17
-2.155
-2.16
-2.145
-2.145
-2.14
-2.145
-2.155
-2.145
-2.17
-2.19
-2.185
-2.19
-2.19
-2.19
-2.185
-2.175
-2.17
-2.16
-2.165
-2.175
-2.175
-2.175
-2.185
-2.195
-2.21
-2.21
-2.2
-2.21
-2.2
-2.18
-2.19
-2.21
-2.22
-2.22
-2.225
-2.225
-2.23
-2.235
-2.235
-2.225
-2.21
-2.205
-2.205
-2.2
-2.21
-2.225
-2.24
-2.245
-2.26
-2.255
-2.24
-2.225
-2.215
-2.21
-2.22
-2.225
-2.235
-2.25
-2.265
-2.26
-2.25
-2.265
-2.255
-2.245
-2.255
-2.235
-2.24
-2.23
-2.235
-2.24
-2.245
-2.24
-2.25
-2.225
-2.205
-2.195
-2.165
-2.16
-2.145
-2.155
-2.16
-2.155
-2.15
-2.155
-2.15
-2.135
-2.14
-2.12
-2.1
-2.08
-2.055
-2.085
-2.09
-2.13
-2.135
-2.155
-2.16
-2.165
-2.155
-2.15
-2.15
-2.145
-2.175
-2.19
-2.215
-2.255
-2.27
-2.285
-2.325
-2.33
-2.325
-2.325
-2.315
-2.295
-2.29
-2.295
-2.315
-2.33
-2.34
-2.33
-2.335
-2.325
-2.31
-2.315
-2.285
-2.255
-2.23
-2.2
-2.14
-2.05
-1.915
-1.755
-1.6
-1.445
-1.27
-1.095
-0.905
-0.71
-0.56
-0.455
-0.46
-0.66
-1.03
-1.565
-2.135
-2.625
-2.9
-2.97
-2.86
-2.66
-2.45
-2.29
-2.21
-2.215
-2.235
-2.285
-2.315
-2.335
-2.33
-2.305
-2.29
-2.275
-2.27
-2.275
-2.27
-2.28
-2.3
-2.295
-2.29
-2.28
-2.265
-2.265
-2.255
-2.22
-2.225
-2.22
-2.23
-2.225
-2.235
-2.255
-2.235
-2.245
-2.21
-2.195
-2.185
-2.165
-2.16
-2.155
-2.14
-2.155
-2.145
-2.14
-2.14
-2.13
-2.13
-2.11
-2.085
-2.085
-2.075
-2.075
-2.07
-2.065
-2.06
-2.05
-2.055
-2.035
-2.01
-1.985
-1.965
-1.95
-1.94
-1.95
-1.94
-1.95
-1.955
-1.955
-1.96
-1.96
-1.945
-1.93
-1.935
-1.91
-1.9
-1.915
-1.915
-1.93
-1.95
-1.96
-1.97
-1.985
-1.98
-1.985
-1.995
-1.99
-2.005
-2.015
-2.025
-2.055
-2.07
-2.085
-2.11
-2.11
-2.105
-2.105
-2.095
-2.095
-2.11
-2.11
-2.14
-2.15
-2.17
-2.16
-2.175
-2.18
-2.17
-2.145
-2.145
-2.12
-2.13
-2.145
-2.13
-2.13
-2.145
-2.145
-2.145
-2.155
-2.135
-2.135
-2.115
-2.105
-2.1
-2.09
-2.085
-2.1
-2.105
-2.1
-2.105
-2.11
-2.1
-2.08
-2.055
-2.03
-2.015
-1.995
-1.995
-1.96
-1.915
-1.875
-1.825
-1.805
-1.75
-1.7
-1.63
-1.595
-1.575
-1.535
-1.495
-1.425
-1.36
-1.295
-1.2
-1.095
-0.955
-0.815
-0.66
-0.505
-0.345
-0.21
-0.065
0.03
0.105
0.14
0.155
0.215
0.275
0.36
0.43
0.485
0.5
0.48
0.365
0.135
-0.245
-0.775
-1.365
-1.845
-2.13
-2.275
-2.315
-2.3
-2.29
-2.3
-2.345
-2.4
-2.455
-2.49
-2.525
-2.525
-2.505
-2.49
-2.455
-2.425
-2.395
-2.41
-2.43
-2.455
-2.49
-2.53
-2.545
-2.565
-2.56
-2.565
-2.585
-2.57
-2.595
-2.61
-2.63
-2.655
-2.68
-2.685
-2.68
-2.71
-2.715
-2.73
-2.73
-2.735
-2.76
-2.785
-2.8
-2.825
-2.86
-2.85
-2.87
-2.88
-2.885
-2.895
-2.905
-2.915
-2.915
-2.92
-2.945
-2.96
-2.98
-2.985
-2.99
-2.99
-2.995
-2.985
-2.985
-2.96
-2.93
-2.925
-2.925
-2.915
-2.89
-2.87
-2.845
-2.82
-2.78
-2.725
-2.69
-2.65
-2.6
-2.57
-2.535
-2.51
-2.47
-2.45
-2.41
-2.375
-2.335
-2.305
-2.27
-2.245
-2.225
-2.225
-2.21
-2.22
-2.22
-2.225
-2.225
-2.22
-2.205
-2.175
-2.175
-2.155
-2.16
-2.16
-2.175
-2.175
-2.17
-2.175
-2.175
-2.175
-2.18
-2.175
-2.175
-2.155
-2.165
-2.175
-2.19
-2.215
-2.22
-2.215
-2.22
-2.21
-2.225
-2.2
-2.185
-2.155
-2.17
-2.175
-2.2
-2.195
-2.24
-2.24
-2.245
-2.23
-2.23
-2.215
-2.21
-2.19
-2.2
-2.215
-2.2
-2.205
-2.21
-2.215
-2.235
-2.23
-2.235
-2.22
-2.205
-2.2
-2.195
-2.205
-2.205
-2.205
-2.215
-2.22
-2.24
-2.23
-2.23
-2.23
-2.235
-2.215
-2.23
-2.23
-2.235
-2.235
-2.235
-2.23
-2.225
-2.25
-2.235
-2.225
-2.205
-2.205
-2.19
-2.19
-2.19
-2.205
-2.215
-2.215
-2.23
-2.225
-2.235
-2.205
-2.205
-2.19
-2.18
-2.18
-2.17
-2.19
-2.195
-2.205
-2.2
-2.21
-2.215
-2.205
-2.19
-2.195
-2.175
-2.175
-2.18
-2.19
-2.19
-2.2
-2.2
-2.21
-2.2
-2.195
-2.175
-2.175
-2.17
-2.175
-2.18
-2.175
-2.19
-2.195
-2.205
-2.225
-2.21
-2.205
-2.185
-2.165
-2.15
-2.145
-2.165
-2.175
-2.18
-2.185
-2.19
-2.185
-2.185
-2.17
-2.16
-2.15
-2.16
-2.155
-2.175
-2.17
-2.165
-2.2
-2.2
-2.195
-2.195
-2.17
-2.16
-2.145
-2.145
-2.15
-2.145
-2.14
-2.15
-2.175
-2.16
-2.175
-2.145
-2.135
-2.14
-2.13
-2.155
-2.15
-2.145
-2.145
-2.165
-2.145
-2.175
-2.155
-2.15
-2.13
-2.12
-2.11
-2.11
-2.105
-2.115
-2.115
-2.14
-2.14
-2.14
-2.145
-2.14
-2.115
-2.12
-2.105
-2.08
-2.095
-2.08
-2.08
-2.09
-2.085
-2.075
-2.06
-2.035
-2.005
-1.98
-1.96
-1.955
-1.95
-1.955
-1.965
-1.965
-1.965
-1.94
-1.93
-1.915
-1.905
-1.895
-1.905
-1.91
-1.93
-1.925
-1.94
-1.96
-1.955
-1.965
-1.975
-1.97
-1.965
-1.975
-1.975
-1.99
-2.015
-2.05
-2.055
-2.08
-2.08
-2.09
-2.085
-2.07
-2.055
-2.05
-2.025
-2.015
-2.005
-2.02
-2.04
-2.07
-2.04
-2.035
-2.01
-1.98
-1.915
-1.85
-1.74
-1.595
-1.45
-1.27
-1.075
-0.85
-0.62
-0.4
-0.22
-0.11
-0.16
-0.44
-0.875
-1.47
-2.055
-2.505
-2.695
-2.645
-2.425
-2.165
-1.97
-1.85
-1.825
-1.845
-1.885
-1.935
-1.98
-2.0
-2.0
-2.0
-1.985
-1.99
-2.005
-1.975
-1.97
-1.96
-1.95
-1.95
-1.955
-1.97
-1.965
-1.96
-1.945
-1.96
-1.97
-1.925
-1.92
-1.895
-1.87
-1.855
-1.855
-1.85
-1.86
-1.865
-1.86
-1.855
-1.855
-1.85
-1.84
-1.83
-1.8
-1.78
-1.775
-1.755
-1.76
-1.745
-1.745
-1.75
-1.745
-1.715
-1.69
-1.66
-1.635
-1.62
-1.625
-1.625
-1.62
-1.61
-1.615
-1.595
-1.59
-1.57
-1.54
-1.53
-1.515
-1.49
-1.495
-1.5
-1.5
-1.475
-1.47
-1.45
-1.435
-1.43
-1.415
-1.395
-1.4
-1.38
-1.39
-1.38
-1.38
-1.4
-1.39
-1.395
-1.395
-1.4
-1.39
-1.4
-1.4
-1.41
-1.42
-1.43
-1.45
-1.47
-1.49
-1.52
-1.53
-1.535
-1.55
-1.55
-1.555
-1.57
-1.555
-1.57
-1.59
-1.6
-1.605
-1.59
-1.595
-1.6
-1.585
-1.585
-1.57
-1.565
-1.56
-1.575
-1.59
-1.585
-1.595
-1.585
-1.595
-1.59
-1.58
-1.565
-1.565
-1.55
-1.545
-1.545
-1.55
-1.55
-1.56
-1.59
-1.585
-1.555
-1.555
-1.545
-1.545
-1.555
-1.56
-1.56
-1.565
-1.58
-1.59
-1.59
-1.595
-1.595
-1.58
-1.575
-1.555
-1.565
-1.56
-1.565
-1.565
-1.575
-1.565
-1.57
-1.585
-1.58
-1.565
-1.575
-1.555
-1.555
-1.565
-1.565
-1.585
-1.58
-1.6
-1.6
-1.6
-1.6
-1.59
-1.56
-1.55
-1.535
-1.535
-1.53
-1.555
-1.565
-1.565
-1.58
-1.575
-1.58
-1.565
-1.56
-1.54
-1.54
-1.53
-1.54
-1.54
-1.545
-1.545
-1.545
-1.54
-1.5
-1.47
-1.45
-1.415
-1.4
-1.395
-1.4
-1.4
-1.415
-1.41
-1.405
-1.38
-1.35
-1.315
-1.31
-1.3
-1.315
-1.315
-1.345
-1.37
-1.365
-1.375
-1.38
-1.38
-1.375
-1.38
-1.395
-1.4
-1.405
-1.425
-1.45
-1.48
-1.52
-1.535
-1.54
-1.55
-1.545
-1.525
-1.515
-1.5
-1.495
-1.485
-1.495
-1.5
-1.49
-1.505
-1.495
-1.485
-1.485
-1.48
-1.47
-1.43
-1.425
-1.375
-1.3
-1.195
-1.055
-0.88
-0.68
-0.45
-0.195
0.055
0.295
0.475
0.53
0.39
0.03
-0.56
-1.195
-1.77
-2.115
-2.18
-2.025
-1.78
-1.505
-1.31
-1.215
-1.23
-1.265
-1.35
-1.39
-1.425
-1.43
-1.42
-1.42
-1.395
-1.385
-1.36
-1.36
-1.36
-1.37
-1.36
-1.385
-1.365
-1.365
-1.365
-1.355
-1.345
-1.33
-1.31
-1.285
-1.295
-1.295
-1.315
-1.305
-1.3
-1.3
-1.3
-1.3
-1.265
-1.26
-1.24
-1.235
-1.235
-1.23
-1.225
-1.22
-1.215
-1.215
-1.205
-1.195
-1.175
-1.155
-1.13
-1.12
-1.105
-1.09
-1.105
-1.1
-1.09
-1.08
-1.08
-1.07
-1.055
-1.02
-1.005
-1.005
-0.99
-0.99
-0.99
-0.985
-1.005
-1.0
-1.015
-1.015
-0.995
-1.0
-0.995
-0.995
-1.0
-1.0
-1.02
-1.02
-1.035
-1.05
-1.055
-1.055
-1.05
-1.05
-1.05
-1.065
-1.075
-1.09
-1.12
-1.13
-1.155
-1.165
-1.175
-1.185
-1.19
-1.19
-1.195
-1.19
-1.185
-1.205
-1.2
-1.22
-1.23
-1.23
-1.24
-1.22
-1.21
-1.22
-1.215
-1.22
-1.225
-1.21
-1.215
-1.23
-1.24
-1.245
-1.24
-1.23
-1.24
-1.23
-1.22
-1.225
-1.215
-1.235
-1.245
-1.245
-1.265
-1.265
-1.265
-1.28
-1.265
-1.27
-1.265
-1.255
-1.24
-1.255
-1.25
-1.275
-1.28
-1.275
-1.28
-1.3
-1.28
-1.29
-1.295
-1.28
-1.285
-1.29
-1.3
-1.31
-1.325
-1.305
-1.315
-1.31
-1.315
-1.3
-1.295
-1.295
-1.29
-1.3
-1.305
-1.32
-1.33
-1.345
-1.35
-1.335
-1.335
-1.315
-1.29
-1.285
-1.285
-1.285
-1.3
-1.305
-1.325
-1.325
-1.335
-1.325
-1.33
-1.315
-1.3
-1.285
-1.295
-1.3
-1.32
-1.335
-1.325
-1.325
-1.315
-1.31
-1.3
-1.3
-1.275
-1.25
-1.22
-1.23
-1.225
-1.235
-1.24
-1.225
-1.235
-1.225
-1.215
-1.205
-1.18
-1.16
-1.14
-1.13
-1.13
-1.15
-1.135
-1.155
-1.155
-1.175
-1.18
-1.17
-1.185
-1.18
-1.195
-1.185
-1.2
-1.22
-1.245
-1.28
-1.31
-1.325
-1.335
-1.35
-1.36
-1.35
-1.355
-1.355
-1.35
-1.35
-1.375
-1.375
-1.36
-1.355
-1.345
-1.335
-1.32
-1.31
-1.305
-1.315
-1.32
-1.345
-1.325
-1.305
-1.26
-1.175
-1.05
-0.9
-0.755
-0.575
-0.41
-0.225
-0.025
0.185
0.4
0.57
0.65
0.555
0.255
-0.26
-0.875
-1.465
-1.88
-2.045
-1.995
-1.805
-1.59
-1.41
-1.265
-1.225
-1.22
-1.255
-1.28
-1.315
-1.345
-1.365
-1.37
-1.35
-1.345
-1.35
-1.35
-1.365
-1.35
-1.345
-1.325
-1.32
-1.29
-1.285
-1.3
-1.3
-1.31
-1.305
-1.315
-1.32
-1.32
-1.32
-1.285
-1.28
-1.27
-1.265
-1.265
-1.26
-1.265
-1.275
-1.265
-1.26
-1.23
-1.23
-1.23
-1.2
-1.195
-1.185
-1.19
-1.185
-1.195
-1.185
-1.18
-1.165
-1.145
-1.115
-1.09
-1.085
-1.075
-1.06
-1.06
-1.055
-1.055
-1.055
-1.06
-1.055
-1.02
-1.015
-1.005
-0.975
-0.98
-1.0
-1.01
-1.025
-1.02
-1.025
-1.02
-1.015
-1.0
-1.03
-1.005
-1.01
-1.02
-1.055
-1.07
-1.095
-1.125
-1.145
-1.17
-1.19
-1.2
-1.21
-1.225
-1.215
-1.23
-1.255
-1.26
-1.28
-1.285
-1.28
-1.285
-1.3
-1.3
-1.295
-1.3
-1.295
-1.31
-1.305
-1.325
-1.315
-1.335
-1.345
-1.345
-1.35
-1.33
-1.35
-1.325
-1.28
-1.29
-1.275
-1.29
-1.305
-1.31
-1.305
-1.325
-1.315
-1.305
-1.295
-1.29
-1.285
-1.275
-1.28
-1.285
-1.305
-1.31
-1.315
-1.335
-1.33
-1.32
-1.285
-1.295
-1.295
-1.305
-1.295
-1.32
-1.33
-1.34
-1.34
-1.365
-1.37
-1.36
-1.355
-1.335
-1.335
-1.34
-1.33
-1.34
-1.345
-1.36
-1.365
-1.375
-1.38
-1.365
-1.355
-1.325
-1.325
-1.33
-1.335
-1.35
-1.365
-1.355
-1.36
-1.365
-1.36
-1.355
-1.355
-1.345
-1.33
-1.335
-1.35
-1.36
-1.345
-1.34
-1.34
-1.33
-1.32
-1.3
-1.27
-1.255
-1.245
-1.225
-1.225
-1.225
-1.225
-1.23
-1.23
-1.22
-1.225
-1.2
-1.175
-1.16
-1.13
-1.115
-1.14
-1.145
-1.165
-1.18
-1.185
-1.195
-1.2
-1.19
-1.19
-1.165
-1.175
-1.19
-1.195
-1.23
-1.25
-1.27
-1.29
-1.325
-1.345
-1.35
-1.36
-1.35
-1.34
-1.325
-1.31
-1.31
-1.32
-1.335
-1.335
-1.35
-1.33
-1.34
-1.325
-1.34
-1.32
-1.32
-1.315
-1.305
-1.26
-1.205
-1.1
-0.98
-0.795
-0.56
-0.36
-0.12
0.11
0.33
0.505
0.59
0.56
0.33
-0.05
-0.58
-1.14
-1.65
-1.98
-2.115
-2.04
-1.84
-1.605
-1.41
-1.275
-1.225
-1.22
-1.25
-1.3
-1.32
-1.32
-1.315
-1.31
-1.28
-1.27
-1.3
-1.29
-1.295
-1.31
-1.31
-1.315
-1.295
-1.305
-1.285
-1.27
-1.25
-1.255
-1.25
-1.25
-1.25
-1.245
-1.25
-1.245
-1.235
-1.205
-1.185
-1.195
-1.19
-1.175
-1.175
-1.19
-1.205
-1.2
-1.195
-1.18
-1.15
-1.14
-1.125
-1.105
-1.09
-1.085
-1.095
-1.1
-1.085
-1.075
-1.055
-1.05
-1.03
-1.04
-1.015
-0.985
-0.995
-0.985
-1.005
-1.005
-0.99
-0.985
-0.965
-0.96
-0.94
-0.925
-0.9
-0.895
-0.895
-0.9
-0.905
-0.925
-0.945
-0.955
-0.97
-0.965
-0.975
-0.97
-0.97
-0.97
-0.985
-0.99
-1.01
-1.025
-1.045
-1.06
-1.065
-1.08
-1.09
-1.105
-1.115
-1.12
-1.14
-1.16
-1.185
-1.2
-1.205
-1.22
-1.215
-1.215
-1.205
-1.21
-1.205
-1.205
-1.21
-1.21
-1.225
-1.23
-1.255
-1.25
-1.25
-1.245
-1.225
-1.215
-1.2
-1.19
-1.195
-1.215
-1.225
-1.22
-1.25
-1.255
-1.25
-1.235
-1.235
-1.215
-1.21
-1.2
-1.205
-1.21
-1.215
-1.22
-1.23
-1.225
-1.235
-1.23
-1.23
-1.24
-1.235
-1.235
-1.23
-1.24
-1.25
-1.245
-1.265
-1.275
-1.27
-1.27
-1.275
-1.275
-1.27
-1.265
-1.27
-1.265
-1.29
-1.325
-1.34
-1.335
-1.345
-1.32
-1.325
-1.3
-1.295
-1.26
-1.265
-1.275
-1.285
-1.305
-1.315
-1.335
-1.325
-1.325
-1.325
-1.315
-1.305
-1.29
-1.31
-1.295
-1.305
-1.31
-1.335
-1.315
-1.335
-1.32
-1.315
-1.285
-1.265
-1.225
-1.205
-1.195
-1.195
-1.2
-1.2
-1.215
-1.235
-1.225
-1.235
-1.19
-1.175
-1.125
-1.11
-1.125
-1.115
-1.135
-1.16
-1.18
-1.2
-1.205
-1.205
-1.22
-1.24
-1.23
-1.245
-1.26
-1.285
-1.315
-1.345
-1.375
-1.38
-1.395
-1.39
-1.385
-1.39
-1.385
-1.375
-1.395
-1.395
-1.4
-1.415
-1.415
-1.42
-1.405
-1.39
-1.385
-1.375
-1.355
-1.335
-1.3
-1.24
-1.15
-1.01
-0.8
-0.55
-0.285
0.03
0.31
0.535
0.635
0.53
0.135
-0.485
-1.125
-1.765
-2.23
-2.365
-2.225
-1.95
-1.65
-1.4
-1.23
-1.2
-1.245
-1.32
-1.395
-1.43
-1.44
-1.435
-1.415
-1.39
-1.375
-1.365
-1.355
-1.375
-1.355
-1.37
-1.375
-1.39
-1.38
-1.365
-1.35
-1.35
-1.33
-1.32
-1.325
-1.33
-1.315
-1.31
-1.325
-1.33
-1.33
-1.32
-1.31
-1.29
-1.3
-1.29
-1.275
-1.27
-1.26
-1.245
-1.24
-1.245
-1.26
-1.26
-1.225
-1.21
-1.205
-1.19
-1.17
-1.16
-1.155
-1.15
-1.165
-1.17
-1.155
-1.135
-1.14
-1.12
-1.085
-1.085
-1.06
-1.06
-1.05
-1.055
-1.065
-1.05
-1.08
-1.06
-1.075
-1.06
-1.045
-1.03
-1.015
-1.04
-1.045
-1.06
-1.055
-1.065
-1.08
-1.095
-1.09
-1.085
-1.09
-1.095
-1.09
-1.105
-1.125
-1.16
-1.165
-1.195
-1.22
-1.235
-1.255
-1.25
-1.25
-1.245
-1.245
-1.25
-1.265
-1.27
-1.3
-1.33
-1.325
-1.33
-1.335
-1.315
-1.305
-1.295
-1.29
-1.3
-1.3
-1.32
-1.32
-1.335
-1.345
-1.35
-1.355
-1.335
-1.335
-1.32
-1.31
-1.31
-1.305
-1.31
-1.32
-1.33
-1.35
-1.36
-1.335
-1.33
-1.335
-1.315
-1.32
-1.33
-1.3
-1.34
-1.355
-1.365
-1.375
-1.375
-1.395
-1.37
-1.37
-1.37
-1.36
-1.355
-1.36
-1.37
-1.38
-1.395
-1.4
-1.41
-1.41
-1.405
-1.4
-1.4
-1.395
-1.4
-1.405
-1.41
-1.425
-1.43
-1.45
-1.455
-1.455
-1.44
-1.44
-1.425
-1.405
-1.4
-1.405
-1.41
-1.435
-1.445
-1.45
-1.45
-1.45
-1.455
-1.435
-1.415
-1.425
-1.415
-1.435
-1.425
-1.43
-1.44
-1.44
-1.45
-1.46
-1.445
-1.435
-1.44
-1.42
-1.4
-1.39
-1.36
-1.365
-1.375
-1.36
-1.35
-1.335
-1.325
-1.32
-1.315
-1.315
-1.315
-1.305
-1.305
-1.3
-1.29
-1.265
-1.265
-1.275
-1.28
-1.28
-1.285
-1.3
-1.3
-1.3
-1.33
-1.36
-1.41
-1.435
-1.475
-1.5
-1.53
-1.53
-1.535
-1.555
-1.57
-1.58
-1.585
-1.6
-1.595
-1.595
-1.605
-1.605
-1.59
-1.595
-1.575
-1.565
-1.565
-1.58
-1.59
-1.6
-1.595
-1.59
-1.555
-1.52
-1.465
-1.37
-1.235
-1.055
-0.85
-0.62
-0.38
-0.095
0.155
0.375
0.51
0.47
0.185
-0.37
-1.01
-1.65
-2.235
-2.405
-2.3
-2.05
-1.785
-1.565
-1.46
-1.445
-1.5
-1.545
-1.585
-1.59
-1.6
-1.6
-1.58
-1.585
-1.59
-1.58
-1.575
-1.585
-1.58
-1.57
-1.565
-1.54
-1.555
-1.53
-1.535
-1.545
-1.56
-1.55
-1.545
-1.535
-1.52
-1.505
-1.485
-1.475
-1.48
-1.475
-1.495
-1.475
-1.475
-1.46
-1.46
-1.455
-1.445
-1.435
-1.425
-1.405
-1.4
-1.4
-1.395
-1.39
-1.375
-1.375
-1.355
-1.34
-1.315
-1.305
-1.28
-1.25
-1.245
-1.235
-1.235
-1.235
-1.255
-1.245
-1.23
-1.25
-1.23
-1.21
-1.195
-1.165
-1.165
-1.175
-1.17
-1.19
-1.195
-1.19
-1.215
-1.235
-1.22
-1.235
-1.235
-1.235
-1.265
-1.275
-1.3
-1.33
-1.35
-1.35
-1.375
-1.395
-1.39
-1.395
-1.405
-1.38
-1.4
-1.42
-1.435
-1.45
-1.465
-1.46
-1.465
-1.465
-1.46
-1.47
-1.46
-1.455
-1.47
-1.47
-1.465
-1.475
-1.48
-1.485
-1.5
-1.495
-1.465
-1.465
-1.455
-1.445
-1.44
-1.43
-1.445
-1.445
-1.465
-1.485
-1.495
-1.48
-1.48
-1.475
-1.48
-1.455
-1.455
-1.465
-1.49
-1.505
-1.53
-1.53
-1.54
-1.535
-1.515
-1.51
-1.505
-1.485
-1.5
-1.52
-1.515
-1.525
-1.55
-1.555
-1.58
-1.565
-1.565
-1.565
-1.55
-1.54
-1.53
-1.54
-1.535
-1.57
-1.57
-1.57
-1.58
-1.6
-1.595
-1.58
-1.565
-1.545
-1.535
-1.55
-1.545
-1.57
-1.57
-1.585
-1.585
-1.6
-1.59
-1.57
-1.57
-1.56
-1.56
-1.56
-1.565
-1.575
-1.585
-1.585
-1.575
-1.58
-1.555
-1.55
-1.525
-1.49
-1.45
-1.445
-1.435
-1.44
-1.445
-1.435
-1.44
-1.46
-1.445
-1.44
-1.415
-1.39
-1.355
-1.34
-1.36
-1.36
-1.395
-1.415
-1.425
-1.445
-1.435
-1.44
-1.425
-1.43
-1.445
-1.46
-1.49
-1.53
-1.555
-1.57
-1.585
-1.605
-1.61
-1.63
-1.63
-1.615
-1.615
-1.63
-1.625
-1.61
-1.62
-1.615
-1.635
-1.64
-1.635
-1.635
-1.62
-1.595
-1.6
-1.585
-1.57
-1.515
-1.45
-1.33
-1.145
-0.92
-0.67
-0.405
-0.09
0.215
0.465
0.615
0.59
0.32
-0.23
-0.87
-1.51
-2.15
-2.53
-2.525
-2.28
-1.975
-1.68
-1.485
-1.42
-1.435
-1.485
-1.54
-1.585
-1.62
-1.625
-1.585
-1.58
-1.56
-1.57
-1.57
-1.565
-1.565
-1.575
-1.58
-1.585
-1.585
-1.55
-1.545
-1.525
-1.51
-1.525
-1.525
-1.51
-1.53
-1.54
-1.51
-1.52
-1.525
-1.49
-1.48
-1.465
-1.44
-1.44
-1.435
-1.43
-1.445
-1.455
-1.455
-1.45
-1.435
-1.41
-1.39
-1.365
-1.35
-1.35
-1.33
-1.335
-1.32
-1.315
-1.31
-1.3
-1.305
-1.265
-1.245
-1.23
-1.23
-1.21
-1.21
-1.22
-1.225
-1.235
-1.23
-1.21
-1.21
-1.18
-1.175
-1.165
-1.155
-1.155
-1.17
-1.205
-1.215
-1.21
-1.215
-1.245
-1.255
-1.235
-1.235
-1.225
-1.23
-1.245
-1.27
-1.285
-1.29
-1.31
-1.32
-1.345
-1.37
-1.385
-1.385
-1.385
-1.405
-1.38
-1.405
-1.42
-1.44
-1.44
-1.445
-1.46
-1.465
-1.46
-1.44
-1.435
-1.445
-1.43
-1.44
-1.435
-1.455
-1.445
-1.445
-1.46
-1.465
-1.465
-1.46
-1.445
-1.43
-1.43
-1.43
-1.445
-1.455
-1.455
-1.455
-1.455
-1.465
-1.47
-1.46
-1.45
-1.45
-1.44
-1.455
-1.46
-1.455
-1.465
-1.48
-1.48
-1.49
-1.495
-1.485
-1.47
-1.46
-1.46
-1.47
-1.5
-1.51
-1.515
-1.52
-1.53
-1.525
-1.52
-1.52
-1.505
-1.5
-1.5
-1.5
-1.495
-1.505
-1.52
-1.535
-1.545
-1.55
-1.54
-1.535
-1.52
-1.505
-1.505
-1.5
-1.51
-1.525
-1.535
-1.545
-1.545
-1.565
-1.55
-1.52
-1.525
-1.525
-1.52
-1.54
-1.55
-1.555
-1.55
-1.555
-1.56
-1.57
-1.54
-1.525
-1.51
-1.495
-1.445
-1.44
-1.415
-1.42
-1.43
-1.44
-1.445
-1.455
-1.445
-1.445
-1.43
-1.39
-1.385
-1.36
-1.33
-1.325
-1.335
-1.355
-1.375
-1.385
-1.4
-1.41
-1.415
-1.41
-1.41
-1.41
-1.44
-1.47
-1.49
-1.525
-1.545
-1.56
-1.56
-1.58
-1.58
-1.585
-1.605
-1.605
-1.61
-1.615
-1.61
-1.62
-1.625
-1.63
-1.62
-1.605
-1.61
-1.585
-1.57
-1.585
-1.59
-1.595
-1.59
-1.57
-1.54
-1.5
-1.405
-1.255
-1.09
-0.86
-0.635
-0.385
-0.115
0.175
0.435
0.635
0.745
0.745
0.55
0.135
-0.43
-1.07
-1.71
-2.22
-2.425
-2.34
-2.115
-1.84
-1.61
-1.465
-1.415
-1.425
-1.485
-1.51
-1.555
-1.575
-1.57
-1.575
-1.565
-1.575
-1.59
-1.585
-1.585
-1.575
-1.555
-1.55
-1.545
-1.53
-1.535
-1.53
-1.535
-1.53
-1.535
-1.525
-1.525
-1.525
-1.505
-1.495
-1.495
-1.49
-1.485
-1.475
-1.475
-1.47
-1.48
-1.48
-1.475
-1.475
-1.445
-1.43
-1.415
-1.4
-1.4
-1.4
-1.385
-1.385
-1.39
-1.38
-1.375
-1.345
-1.33
-1.295
-1.295
-1.29
-1.27
-1.275
-1.29
-1.29
-1.27
-1.27
-1.255
-1.235
-1.23
-1.195
-1.195
-1.18
-1.185
-1.195
-1.205
-1.195
-1.215
-1.22
-1.215
-1.215
-1.22
-1.205
-1.205
-1.21
-1.22
-1.235
-1.255
-1.255
-1.255
-1.27
-1.27
-1.275
-1.295
-1.295
-1.31
-1.325
-1.35
-1.38
-1.395
-1.415
-1.42
-1.445
-1.435
-1.44
-1.46
-1.45
-1.435
-1.43
-1.43
-1.425
-1.43
-1.44
-1.465
-1.46
-1.48
-1.45
-1.435
-1.43
-1.425
-1.44
-1.455
-1.455
-1.47
-1.48
-1.48
-1.465
-1.46
-1.465
-1.455
-1.445
-1.445
-1.44
-1.43
-1.45
-1.455
-1.49
-1.485
-1.475
-1.47
-1.47
-1.46
-1.475
-1.47
-1.475
-1.47
