Lead II
-0.29
-0.28
-0.29
-0.295
-0.325
-0.345
-0.36
-0.37
-0.38
-0.395
-0.425
-0.44
-0.44
-0.455
-0.49
-0.505
-0.53
-0.545
-0.565
-0.59
-0.625
-0.725
-0.8
-0.88
-0.955
-1.025
-1.065
-1.115
-1.14
-1.115
-1.035
-0.935
-0.85
-0.82
-0.77
-0.7
-0.635
-0.565
-0.54
-0.535
-0.53
-0.53
-0.515
-0.505
-0.465
-0.41
-0.34
-0.255
-0.175
-0.125
-0.13
-0.145
-0.125
-0.125
-0.115
-0.085
-0.09
-0.09
-0.095
-0.08
-0.065
-0.045
-0.03
-0.035
-0.04
-0.05
-0.035
-0.01
-0.02
-0.01
-0.005
0.0
0.025
0.055
0.06
0.055
0.065
0.065
0.105
0.13
0.145
0.15
0.14
0.16
0.185
0.215
0.235
0.245
0.24
0.25
0.27
0.29
0.315
0.31
0.3
0.31
0.32
0.35
0.355
0.34
0.335
0.335
0.34
0.345
0.35
0.34
0.34
0.325
0.345
0.35
0.335
0.315
0.3
0.3
0.305
0.31
0.3
0.275
0.245
0.24
0.25
0.25
0.245
0.22
0.2
0.17
0.175
0.18
0.175
0.16
0.145
0.135
0.13
0.13
0.125
0.1
0.09
0.09
0.09
0.09
0.075
0.055
0.04
0.035
0.04
0.045
0.025
0.01
0.0
-0.015
-0.01
-0.01
-0.02
-0.03
-0.045
-0.05
-0.05
-0.05
-0.055
-0.065
-0.065
-0.065
-0.08
-0.07
-0.06
-0.065
-0.08
-0.07
-0.06
-0.045
-0.05
-0.06
-0.07
-0.06
-0.045
-0.04
-0.04
-0.05
-0.07
-0.06
-0.055
-0.045
-0.05
-0.065
-0.07
-0.06
-0.05
-0.04
-0.035
-0.06
-0.07
-0.06
-0.045
-0.04
-0.045
-0.05
-0.07
-0.065
-0.075
-0.06
-0.06
-0.07
-0.095
-0.105
-0.085
-0.075
-0.075
-0.09
-0.095
-0.105
-0.115
-0.1
-0.125
-0.145
-0.14
-0.16
-0.145
-0.13
-0.155
-0.16
-0.19
-0.17
-0.165
-0.155
-0.16
-0.16
-0.165
-0.175
-0.17
-0.145
-0.15
-0.155
-0.165
-0.16
-0.16
-0.145
-0.145
-0.16
-0.16
-0.15
-0.14
-0.125
-0.125
-0.135
-0.14
-0.145
-0.125
-0.115
-0.12
-0.125
-0.145
-0.155
-0.125
-0.135
-0.12
-0.135
-0.14
-0.13
-0.135
-0.12
-0.125
-0.14
-0.145
-0.16
-0.145
-0.14
-0.135
-0.15
-0.15
-0.15
-0.155
-0.145
-0.14
-0.16
-0.2
-0.2
-0.18
-0.165
-0.17
-0.185
-0.2
-0.19
-0.19
-0.165
-0.155
-0.165
-0.165
-0.185
-0.155
-0.145
-0.135
-0.145
-0.15
-0.15
-0.15
-0.135
-0.15
-0.14
-0.155
-0.15
-0.135
-0.12
-0.12
-0.125
-0.135
-0.145
-0.13
-0.125
-0.125
-0.125
-0.115
-0.12
-0.135
-0.105
-0.1
-0.11
-0.125
-0.135
-0.14
-0.125
-0.125
-0.14
-0.14
-0.135
-0.12
-0.12
-0.125
-0.145
-0.165
-0.17
-0.175
-0.16
-0.17
-0.18
-0.2
-0.195
-0.185
-0.18
-0.18
-0.18
-0.175
-0.18
-0.165
-0.15
-0.15
-0.155
-0.155
-0.165
-0.16
-0.14
-0.135
-0.145
-0.145
-0.155
-0.14
-0.145
-0.14
-0.135
-0.13
-0.13
-0.125
-0.125
-0.13
-0.14
-0.145
-0.145
-0.13
-0.125
-0.13
-0.145
-0.15
-0.145
-0.135
-0.135
-0.13
-0.155
-0.165
-0.15
-0.14
-0.13
-0.13
-0.155
-0.185
-0.195
-0.18
-0.17
-0.165
-0.175
-0.175
-0.185
-0.18
-0.165
-0.16
-0.165
-0.17
-0.17
-0.175
-0.155
-0.15
-0.15
-0.155
-0.165
-0.145
-0.135
-0.14
-0.14
-0.15
-0.14
-0.135
-0.125
-0.14
-0.13
-0.145
-0.14
-0.145
-0.12
-0.11
-0.13
-0.135
-0.145
-0.14
-0.13
-0.115
-0.135
-0.155
-0.15
-0.155
-0.14
-0.135
-0.135
-0.155
-0.15
-0.145
-0.15
-0.145
-0.15
-0.17
-0.19
-0.175
-0.175
-0.165
-0.155
-0.17
-0.16
-0.15
-0.135
-0.165
-0.16
-0.16
-0.165
-0.155
-0.14
-0.14
-0.145
-0.15
-0.165
-0.155
-0.13
-0.125
-0.135
-0.135
-0.15
-0.14
-0.125
-0.115
-0.12
-0.135
-0.14
-0.125
-0.125
-0.13
-0.135
-0.14
-0.16
-0.15
-0.14
-0.145
-0.135
-0.135
-0.15
-0.125
-0.13
-0.135
-0.145
-0.15
-0.16
-0.14
-0.14
-0.135
-0.155
-0.16
-0.165
-0.165
-0.155
-0.165
-0.16
-0.17
-0.175
-0.175
-0.155
-0.16
-0.155
-0.175
-0.175
-0.17
-0.145
-0.15
-0.145
-0.16
-0.17
-0.155
-0.145
-0.15
-0.155
-0.175
-0.175
-0.185
-0.175
-0.12
-0.06
-0.015
0.015
0.025
-0.005
-0.03
-0.035
0.0
0.085
0.18
0.265
0.32
0.3
0.24
0.155
0.065
0.01
-0.025
-0.085
-0.12
-0.14
-0.135
-0.115
-0.1
-0.09
-0.115
-0.125
-0.155
-0.19
-0.2
-0.23
-0.25
-0.255
-0.24
-0.235
-0.245
-0.245
-0.275
-0.28
-0.275
-0.25
-0.255
-0.265
-0.275
-0.28
-0.285
-0.28
-0.265
-0.27
-0.275
-0.28
-0.265
-0.265
-0.245
-0.255
-0.27
-0.28
-0.275
-0.275
-0.28
-0.28
-0.285
-0.27
-0.26
-0.255
-0.245
-0.25
-0.265
-0.25
-0.225
-0.22
-0.215
-0.225
-0.22
-0.205
-0.195
-0.18
-0.19
-0.195
-0.2
-0.205
-0.185
-0.18
-0.175
-0.18
-0.175
-0.175
-0.17
-0.16
-0.155
-0.15
-0.16
-0.16
-0.165
-0.15
-0.14
-0.145
-0.155
-0.155
-0.145
-0.145
-0.155
-0.155
-0.17
-0.18
-0.175
-0.16
-0.16
-0.19
-0.195
-0.195
-0.18
-0.18
-0.18
-0.195
-0.225
-0.225
-0.215
-0.195
-0.19
-0.195
-0.215
-0.215
-0.21
-0.2
-0.205
-0.205
-0.21
-0.22
-0.215
-0.215
-0.22
-0.235
-0.255
-0.26
-0.26
-0.25
-0.26
-0.265
-0.285
-0.28
-0.28
-0.26
-0.265
-0.27
-0.27
-0.285
-0.265
-0.255
-0.26
-0.265
-0.275
-0.275
-0.25
-0.22
-0.195
-0.175
-0.15
-0.155
-0.095
-0.035
-0.02
-0.065
-0.155
-0.255
-0.33
-0.42
-0.525
-0.68
-0.855
-1.005
-1.085
-1.145
-1.225
-1.32
-1.38
-1.385
-1.31
-1.24
-1.18
-1.14
-1.09
-1.005
-0.9
-0.85
-0.8
-0.765
-0.72
-0.67
-0.625
-0.61
-0.615
-0.625
-0.635
-0.625
-0.6
-0.59
-0.55
-0.545
-0.51
-0.47
-0.41
-0.33
-0.285
-0.25
-0.25
-0.235
-0.22
-0.205
-0.185
-0.17
-0.175
-0.16
-0.135
-0.135
-0.105
-0.105
-0.095
-0.095
-0.08
-0.04
-0.03
-0.03
-0.025
-0.01
0.015
0.03
0.06
0.075
0.08
0.085
0.1
0.12
0.14
0.145
0.16
0.145
0.17
0.185
0.2
0.195
0.2
0.19
0.215
0.22
0.22
0.21
0.2
0.2
0.22
0.22
0.22
0.215
0.185
0.17
0.175
0.19
0.185
0.155
0.125
0.11
0.105
0.09
0.075
0.045
0.025
0.0
0.005
-0.005
0.015
0.005
-0.015
-0.025
-0.055
-0.05
-0.055
-0.06
-0.1
-0.1
-0.11
-0.11
-0.12
-0.13
-0.155
-0.16
-0.16
-0.155
-0.17
-0.205
-0.205
-0.21
-0.2
-0.2
-0.215
-0.22
-0.255
-0.26
-0.255
-0.25
-0.265
-0.265
-0.285
-0.285
-0.28
-0.27
-0.275
-0.275
-0.275
-0.285
-0.29
-0.28
-0.29
-0.285
-0.29
-0.3
-0.3
-0.285
-0.28
-0.285
-0.285
-0.29
-0.28
-0.25
-0.24
-0.24
-0.25
-0.25
-0.26
-0.235
-0.22
-0.225
-0.24
-0.245
-0.23
-0.23
-0.235
-0.23
-0.255
-0.26
-0.255
-0.25
-0.245
-0.255
-0.265
-0.275
-0.27
-0.27
-0.27
-0.28
-0.3
-0.315
-0.305
-0.305
-0.305
-0.32
-0.325
-0.325
-0.315
-0.305
-0.3
-0.31
-0.325
-0.325
-0.33
-0.305
-0.3
-0.31
-0.315
-0.32
-0.315
-0.29
-0.3
-0.305
-0.315
-0.32
-0.31
-0.29
-0.295
-0.29
-0.31
-0.31
-0.3
-0.29
-0.285
-0.29
-0.295
-0.285
-0.305
-0.285
-0.285
-0.295
-0.315
-0.305
-0.28
-0.27
-0.27
-0.27
-0.27
-0.275
-0.29
-0.28
-0.28
-0.3
-0.305
-0.32
-0.31
-0.31
-0.295
-0.305
-0.315
-0.325
-0.3
-0.285
-0.29
-0.3
-0.31
-0.31
-0.295
-0.3
-0.285
-0.285
-0.285
-0.295
-0.3
-0.28
-0.27
-0.265
-0.275
-0.28
-0.26
-0.265
-0.235
-0.245
-0.265
-0.265
-0.25
-0.24
-0.225
-0.235
-0.225
-0.24
-0.235
-0.23
-0.23
-0.24
-0.25
-0.265
-0.25
-0.23
-0.235
-0.245
-0.265
-0.265
-0.245
-0.23
-0.22
-0.24
-0.24
-0.26
-0.245
-0.225
-0.21
-0.225
-0.23
-0.235
-0.225
-0.205
-0.195
-0.205
-0.21
-0.22
-0.21
-0.195
-0.195
-0.175
-0.18
-0.21
-0.2
-0.19
-0.165
-0.17
-0.17
-0.18
-0.165
-0.165
-0.16
-0.16
-0.175
-0.18
-0.18
-0.22
-0.22
-0.21
-0.165
-0.1
-0.005
0.11
0.165
0.23
0.295
0.37
0.405
0.405
0.345
0.29
0.235
0.225
0.24
0.255
0.24
0.19
0.115
0.02
-0.055
-0.115
-0.135
-0.18
-0.205
-0.21
-0.22
-0.215
-0.205
-0.225
-0.235
-0.245
-0.22
-0.22
-0.215
-0.22
-0.235
-0.25
-0.245
-0.22
-0.23
-0.225
-0.225
-0.23
-0.225
-0.215
-0.2
-0.2
-0.22
-0.23
-0.22
-0.205
-0.195
-0.195
-0.205
-0.23
-0.205
-0.205
-0.19
-0.195
-0.2
-0.205
-0.21
-0.19
-0.19
-0.19
-0.205
-0.225
-0.225
-0.205
-0.2
-0.2
-0.22
-0.225
-0.195
-0.19
-0.165
-0.16
-0.165
-0.16
-0.135
-0.125
-0.095
-0.1
-0.11
-0.105
-0.105
-0.1
-0.075
-0.08
-0.085
-0.085
-0.08
-0.07
-0.075
-0.075
-0.09
-0.085
-0.09
-0.065
-0.055
-0.065
-0.08
-0.085
-0.085
-0.07
-0.065
-0.075
-0.07
-0.085
-0.095
-0.08
-0.07
-0.08
-0.09
-0.1
-0.11
-0.115
-0.1
-0.11
-0.125
-0.13
-0.145
-0.14
-0.155
-0.16
-0.18
-0.19
-0.19
-0.18
-0.175
-0.175
-0.195
-0.19
-0.17
-0.165
-0.165
-0.165
-0.165
-0.175
-0.165
-0.145
-0.13
-0.135
-0.13
-0.145
-0.145
-0.135
-0.12
-0.115
-0.125
-0.14
-0.135
-0.115
-0.11
-0.105
-0.105
-0.115
-0.12
-0.115
-0.1
-0.1
-0.11
-0.125
-0.115
-0.12
-0.105
-0.105
-0.11
-0.125
-0.125
-0.12
-0.125
-0.13
-0.145
-0.155
-0.185
-0.155
-0.175
-0.175
-0.2
-0.2
-0.195
-0.165
-0.165
-0.17
-0.175
-0.16
-0.165
-0.135
-0.135
-0.155
-0.165
-0.17
-0.155
-0.14
-0.14
-0.145
-0.15
-0.175
-0.16
-0.155
-0.14
-0.135
-0.135
-0.14
-0.14
-0.135
-0.135
-0.14
-0.155
-0.15
-0.15
-0.12
-0.115
-0.125
-0.14
-0.13
-0.125
-0.11
-0.1
-0.115
-0.13
-0.15
-0.135
-0.12
-0.13
-0.145
-0.155
-0.165
-0.185
-0.165
-0.18
-0.19
-0.195
-0.22
-0.215
-0.19
-0.185
-0.165
-0.165
-0.175
-0.145
-0.15
-0.135
-0.125
-0.13
-0.13
-0.13
-0.115
-0.12
-0.125
-0.12
-0.135
-0.12
-0.12
-0.1
-0.1
-0.125
-0.125
-0.125
-0.09
-0.04
0.04
0.125
0.225
0.35
0.455
0.595
0.73
0.85
0.955
1.045
1.085
1.08
1.025
0.91
0.775
0.595
0.36
0.17
0.025
-0.065
-0.115
-0.175
-0.22
-0.245
-0.255
-0.29
-0.295
-0.315
-0.305
-0.31
-0.31
-0.32
-0.315
-0.32
-0.295
-0.295
-0.295
-0.315
-0.315
-0.32
-0.29
-0.285
-0.29
-0.3
-0.305
-0.305
-0.315
-0.3
-0.29
-0.3
-0.315
-0.305
-0.305
-0.3
-0.3
-0.305
-0.315
-0.3
-0.29
-0.295
-0.305
-0.305
-0.31
-0.305
-0.295
-0.285
-0.3
-0.315
-0.315
-0.31
-0.305
-0.29
-0.3
-0.325
-0.33
-0.34
-0.325
-0.33
-0.325
-0.355
-0.37
-0.365
-0.34
-0.33
-0.34
-0.34
-0.34
-0.335
-0.315
-0.3
-0.3
-0.3
-0.3
-0.29
-0.25
-0.23
-0.235
-0.23
-0.25
-0.24
-0.2
-0.175
-0.19
-0.19
-0.2
-0.185
-0.175
-0.15
-0.15
-0.155
-0.175
-0.17
-0.16
-0.14
-0.135
-0.15
-0.165
-0.16
-0.16
-0.145
-0.16
-0.165
-0.17
-0.175
-0.155
-0.15
-0.165
-0.18
-0.205
-0.21
-0.21
-0.215
-0.23
-0.25
-0.27
-0.28
-0.255
-0.245
-0.245
-0.26
-0.275
-0.26
-0.235
-0.24
-0.225
-0.245
-0.265
-0.25
-0.22
-0.21
-0.205
-0.215
-0.23
-0.23
-0.22
-0.2
-0.21
-0.22
-0.22
-0.21
-0.2
-0.19
-0.2
-0.205
-0.205
-0.2
-0.19
-0.185
-0.19
-0.2
-0.2
-0.205
-0.205
-0.19
-0.19
-0.2
-0.22
-0.205
-0.195
-0.2
-0.215
-0.235
-0.255
-0.27
-0.265
-0.255
-0.25
-0.265
-0.265
-0.26
-0.235
-0.21
-0.21
-0.22
-0.225
-0.22
-0.215
-0.205
-0.195
-0.195
-0.2
-0.2
-0.195
-0.18
-0.185
-0.2
-0.185
-0.13
-0.03
0.105
0.24
0.365
0.5
0.645
0.825
0.955
1.03
1.065
1.035
0.935
0.845
0.69
0.46
0.21
0.015
-0.07
-0.115
-0.16
-0.2
-0.23
-0.265
-0.275
-0.285
-0.3
-0.32
-0.355
-0.38
-0.395
-0.39
-0.375
-0.375
-0.375
-0.39
-0.38
-0.36
-0.36
-0.355
-0.37
-0.385
-0.375
-0.35
-0.345
-0.345
-0.36
-0.36
-0.375
-0.365
-0.34
-0.345
-0.35
-0.37
-0.365
-0.345
-0.335
-0.34
-0.345
-0.355
-0.36
-0.345
-0.33
-0.335
-0.335
-0.35
-0.345
-0.32
-0.32
-0.325
-0.34
-0.325
-0.335
-0.31
-0.32
-0.33
-0.335
-0.34
-0.35
-0.335
-0.345
-0.335
-0.365
-0.355
-0.35
-0.34
-0.31
-0.31
-0.3
-0.3
-0.29
-0.275
-0.255
-0.245
-0.245
-0.255
-0.245
-0.23
-0.215
-0.225
-0.225
-0.225
-0.22
-0.21
-0.19
-0.215
-0.195
-0.2
-0.21
-0.19
-0.195
-0.195
-0.205
-0.21
-0.195
-0.19
-0.19
-0.195
-0.195
-0.21
-0.21
-0.205
-0.19
-0.2
-0.21
-0.23
-0.22
-0.215
-0.21
-0.22
-0.235
-0.255
-0.285
-0.285
-0.275
-0.275
-0.29
-0.285
-0.285
-0.285
-0.26
-0.27
-0.26
-0.25
-0.26
-0.255
-0.245
-0.225
-0.24
-0.24
-0.23
-0.215
-0.205
-0.205
-0.21
-0.21
-0.22
-0.22
-0.21
-0.21
-0.21
-0.215
-0.21
-0.2
-0.18
-0.185
-0.19
-0.195
-0.2
-0.185
-0.175
-0.185
-0.195
-0.205
-0.215
-0.21
-0.195
-0.2
-0.2
-0.215
-0.245
-0.255
-0.24
-0.255
-0.265
-0.29
-0.3
-0.295
-0.265
-0.26
-0.26
-0.275
-0.27
-0.25
-0.24
-0.25
-0.255
-0.26
-0.24
-0.22
-0.205
-0.235
-0.23
-0.24
-0.235
-0.22
-0.205
-0.21
-0.225
-0.22
-0.215
-0.205
-0.2
-0.215
-0.215
-0.24
-0.22
-0.21
-0.2
-0.195
-0.205
-0.215
-0.225
-0.205
-0.195
-0.2
-0.21
-0.225
-0.235
-0.215
-0.21
-0.215
-0.225
-0.23
-0.245
-0.245
-0.25
-0.265
-0.275
-0.3
-0.32
-0.3
-0.28
-0.285
-0.29
-0.275
-0.265
-0.25
-0.245
-0.235
-0.245
-0.24
-0.23
-0.21
-0.205
-0.215
-0.21
-0.235
-0.215
-0.195
-0.18
-0.175
-0.185
-0.19
-0.2
-0.18
-0.175
-0.165
-0.18
-0.19
-0.17
-0.165
-0.15
-0.15
-0.145
-0.165
-0.175
-0.16
-0.16
-0.165
-0.175
-0.165
-0.115
-0.025
0.095
0.215
0.325
0.43
0.55
0.695
0.83
0.925
0.96
0.94
0.895
0.83
0.725
0.545
0.29
0.065
-0.065
-0.11
-0.15
-0.185
-0.22
-0.245
-0.255
-0.255
-0.25
-0.255
-0.26
-0.27
-0.28
-0.27
-0.26
-0.255
-0.28
-0.29
-0.285
-0.265
-0.245
-0.255
-0.265
-0.28
-0.285
-0.27
-0.265
-0.27
-0.265
-0.285
-0.29
-0.29
-0.275
-0.275
-0.28
-0.295
-0.3
-0.305
-0.295
-0.3
-0.295
-0.32
-0.325
-0.33
-0.32
-0.31
-0.29
-0.3
-0.31
-0.285
-0.245
-0.23
-0.225
-0.225
-0.225
-0.205
-0.19
-0.17
-0.195
-0.185
-0.165
-0.16
-0.145
-0.135
-0.12
-0.13
-0.14
-0.12
-0.09
-0.08
-0.1
-0.09
-0.1
-0.08
-0.06
-0.05
-0.065
-0.07
-0.08
-0.07
-0.055
-0.07
-0.08
-0.1
-0.115
-0.12
-0.13
-0.12
-0.13
-0.14
-0.14
-0.13
-0.11
-0.095
-0.115
-0.12
-0.105
-0.1
-0.09
-0.075
-0.08
-0.09
-0.09
-0.085
-0.075
-0.075
-0.075
-0.085
-0.08
-0.065
-0.055
-0.06
-0.075
-0.07
-0.075
-0.055
-0.045
-0.05
-0.065
-0.08
-0.06
-0.055
-0.05
-0.045
-0.065
-0.08
-0.08
-0.07
-0.06
-0.07
-0.075
-0.085
-0.095
-0.095
-0.09
-0.1
-0.12
-0.145
-0.145
-0.13
-0.13
-0.135
-0.11
-0.105
-0.115
-0.1
-0.1
-0.095
-0.1
-0.095
-0.085
-0.07
-0.065
-0.07
-0.075
-0.075
-0.095
-0.075
-0.06
-0.06
-0.055
-0.065
-0.075
-0.06
-0.055
-0.05
-0.055
-0.06
-0.065
-0.055
-0.05
-0.045
-0.06
-0.075
-0.075
-0.07
-0.055
-0.06
-0.06
-0.085
-0.09
-0.09
-0.09
-0.105
-0.1
-0.115
-0.135
-0.13
-0.135
-0.155
-0.155
-0.19
-0.2
-0.195
-0.195
-0.185
-0.21
-0.235
-0.26
-0.265
-0.25
-0.18
-0.135
-0.1
-0.075
-0.05
-0.08
-0.08
-0.1
-0.105
-0.07
-0.005
0.075
0.15
0.17
0.15
0.12
0.105
0.08
0.045
0.005
-0.03
-0.05
-0.07
-0.06
-0.05
-0.065
-0.06
-0.075
-0.075
-0.07
-0.07
-0.075
-0.085
-0.1
-0.1
-0.095
-0.11
-0.11
-0.125
-0.15
-0.15
-0.14
-0.14
-0.165
-0.16
-0.165
-0.15
-0.11
-0.11
-0.115
-0.11
-0.12
-0.095
-0.065
-0.045
-0.04
-0.05
-0.04
-0.03
0.0
0.005
0.015
0.02
0.02
0.015
0.05
0.06
0.075
0.08
0.095
0.095
0.1
0.115
0.125
0.12
0.12
0.135
0.145
0.14
0.135
0.125
0.125
0.135
0.14
0.125
0.125
0.105
0.1
0.09
0.085
0.075
0.045
0.03
0.0
-0.005
-0.015
-0.04
-0.045
-0.07
-0.09
-0.085
-0.08
-0.08
-0.105
-0.125
-0.105
-0.09
-0.09
-0.1
-0.11
-0.13
-0.13
-0.12
-0.095
-0.09
-0.11
-0.115
-0.13
-0.11
-0.095
-0.1
-0.1
-0.115
-0.11
-0.105
-0.085
-0.09
-0.1
-0.105
-0.09
-0.095
-0.07
-0.08
-0.08
-0.08
-0.09
-0.09
-0.065
-0.065
-0.07
-0.085
-0.075
-0.08
-0.06
-0.06
-0.06
-0.075
-0.075
-0.085
-0.085
-0.095
-0.115
-0.14
-0.14
-0.14
-0.135
-0.135
-0.14
-0.145
-0.16
-0.16
-0.135
-0.13
-0.14
-0.155
-0.155
-0.16
-0.14
-0.14
-0.135
-0.145
-0.145
-0.13
-0.135
-0.135
-0.13
-0.145
-0.14
-0.14
-0.125
-0.14
-0.14
-0.135
-0.145
-0.135
-0.125
-0.115
-0.135
-0.145
-0.16
-0.135
-0.13
-0.12
-0.125
-0.145
-0.155
-0.155
-0.145
-0.155
-0.15
-0.18
-0.175
-0.17
-0.16
-0.155
-0.17
-0.195
-0.215
-0.205
-0.19
-0.19
-0.195
-0.215
-0.23
-0.235
-0.205
-0.205
-0.23
-0.22
-0.23
-0.24
-0.215
-0.2
-0.2
-0.215
-0.185
-0.115
-0.01
0.09
0.2
0.3
0.42
0.54
0.685
0.815
0.925
0.98
1.03
1.045
1.025
0.965
0.845
0.695
0.52
0.34
0.165
0.03
-0.04
-0.105
-0.165
-0.21
-0.26
-0.26
-0.27
-0.285
-0.305
-0.315
-0.325
-0.335
-0.335
-0.365
-0.38
-0.365
-0.37
-0.39
-0.405
-0.435
-0.445
-0.45
-0.435
-0.445
-0.465
-0.47
-0.47
-0.46
-0.44
-0.445
-0.46
-0.475
-0.47
-0.46
-0.45
-0.46
-0.46
-0.47
-0.47
-0.46
-0.445
-0.43
-0.445
-0.46
-0.465
-0.465
-0.45
-0.455
-0.445
-0.45
-0.44
-0.445
-0.43
-0.42
-0.415
-0.435
-0.42
-0.42
-0.4
-0.405
-0.4
-0.415
-0.4
-0.39
-0.38
-0.37
-0.37
-0.395
-0.4
-0.39
-0.38
-0.365
-0.38
-0.385
-0.39
-0.385
-0.385
-0.375
-0.37
-0.405
-0.39
-0.385
-0.375
-0.36
-0.35
-0.36
-0.375
-0.37
-0.345
-0.34
-0.335
-0.34
-0.35
-0.345
-0.34
-0.31
-0.3
-0.305
-0.31
-0.31
-0.29
-0.285
-0.29
-0.295
-0.285
-0.27
-0.255
-0.265
-0.275
-0.28
-0.29
-0.275
-0.26
-0.275
-0.265
-0.255
-0.27
-0.25
-0.235
-0.23
-0.235
-0.235
-0.245
-0.255
-0.245
-0.23
-0.24
-0.245
-0.24
-0.24
-0.24
-0.24
-0.245
-0.26
-0.265
-0.265
-0.245
-0.255
-0.27
-0.28
-0.3
-0.295
-0.285
-0.275
-0.28
-0.3
-0.31
-0.3
-0.3
-0.3
-0.305
-0.32
-0.325
-0.31
-0.295
-0.29
-0.28
-0.315
-0.315
-0.305
-0.285
-0.275
-0.28
-0.28
-0.285
-0.285
-0.275
-0.27
-0.26
-0.275
-0.28
-0.28
-0.275
-0.255
-0.26
-0.26
-0.27
-0.265
-0.255
-0.245
-0.24
-0.25
-0.25
-0.245
-0.24
-0.245
-0.245
-0.255
-0.26
-0.255
-0.245
-0.245
-0.26
-0.285
-0.29
-0.285
-0.29
-0.255
-0.27
-0.265
-0.285
-0.265
-0.265
-0.27
-0.28
-0.28
-0.3
-0.285
-0.285
-0.28
-0.275
-0.28
-0.28
-0.265
-0.255
-0.24
-0.26
-0.265
-0.28
-0.26
-0.24
-0.235
-0.23
-0.245
-0.25
-0.26
-0.235
-0.23
-0.22
-0.245
-0.24
-0.235
-0.235
-0.24
-0.215
-0.19
-0.115
-0.02
0.11
0.23
0.335
0.435
0.56
0.7
0.83
0.905
0.94
0.91
0.85
0.79
0.695
0.56
0.365
0.145
-0.05
-0.15
-0.205
-0.255
-0.33
-0.37
-0.39
-0.385
-0.385
-0.4
-0.4
-0.43
-0.435
-0.42
-0.42
-0.41
-0.42
-0.435
-0.445
-0.44
-0.415
-0.415
-0.425
-0.44
-0.45
-0.445
-0.42
-0.415
-0.425
-0.435
-0.45
-0.45
-0.425
-0.425
-0.42
-0.44
-0.44
-0.445
-0.43
-0.415
-0.42
-0.42
-0.43
-0.435
-0.42
-0.41
-0.41
-0.42
-0.43
-0.42
-0.42
-0.415
-0.43
-0.425
-0.44
-0.44
-0.425
-0.42
-0.425
-0.43
-0.45
-0.44
-0.44
-0.42
-0.415
-0.425
-0.425
-0.43
-0.41
-0.39
-0.385
-0.375
-0.39
-0.37
-0.36
-0.35
-0.34
-0.335
-0.33
-0.32
-0.31
-0.295
-0.285
-0.295
-0.305
-0.29
-0.265
-0.255
-0.255
-0.26
-0.265
-0.26
-0.245
-0.225
-0.24
-0.25
-0.235
-0.24
-0.235
-0.215
-0.22
-0.23
-0.23
-0.225
-0.225
-0.225
-0.24
-0.24
-0.255
-0.255
-0.245
-0.235
-0.25
-0.265
-0.275
-0.285
-0.275
-0.265
-0.27
-0.295
-0.31
-0.315
-0.305
-0.285
-0.29
-0.3
-0.31
-0.31
-0.29
-0.285
-0.27
-0.29
-0.285
-0.28
-0.285
-0.265
-0.275
-0.28
-0.275
-0.275
-0.26
-0.245
-0.25
-0.26
-0.27
-0.255
-0.255
-0.245
-0.235
-0.225
-0.23
-0.235
-0.225
-0.21
-0.215
-0.215
-0.21
-0.2
-0.19
-0.185
-0.18
-0.195
-0.2
-0.19
-0.185
-0.175
-0.185
-0.205
-0.215
-0.21
-0.2
-0.195
-0.185
-0.2
-0.2
-0.2
-0.19
-0.18
-0.19
-0.205
-0.21
-0.2
-0.195
-0.18
-0.18
-0.19
-0.185
-0.165
-0.16
-0.145
-0.145
-0.17
-0.18
-0.175
-0.13
-0.07
-0.005
0.06
0.145
0.26
0.38
0.515
0.665
0.79
0.905
1.025
1.1
1.13
1.13
1.065
0.95
0.815
0.645
0.445
0.235
0.085
0.0
-0.045
-0.105
-0.13
-0.16
-0.195
-0.205
-0.22
-0.23
-0.22
-0.225
-0.265
-0.29
-0.31
-0.28
-0.28
-0.28
-0.3
-0.315
-0.33
-0.315
-0.315
-0.335
-0.32
-0.325
-0.33
-0.32
-0.315
-0.32
-0.33
-0.33
-0.34
-0.325
-0.32
-0.32
-0.315
-0.325
-0.32
-0.305
-0.305
-0.3
-0.305
-0.335
-0.325
-0.31
-0.295
-0.285
-0.295
-0.3
-0.315
-0.31
-0.27
-0.265
-0.26
-0.275
-0.27
-0.26
-0.245
-0.235
-0.23
-0.24
-0.25
-0.235
-0.23
-0.23
-0.25
-0.25
-0.25
-0.245
-0.215
-0.225
-0.23
-0.24
-0.225
-0.21
-0.195
-0.205
-0.205
-0.205
-0.19
-0.165
-0.145
-0.145
-0.16
-0.165
-0.17
-0.135
-0.11
-0.11
-0.115
-0.13
-0.125
-0.105
-0.1
-0.09
-0.11
-0.125
-0.115
-0.095
-0.08
-0.095
-0.095
-0.095
-0.1
-0.085
-0.07
-0.08
-0.085
-0.095
-0.085
-0.08
-0.075
-0.09
-0.085
-0.11
-0.11
-0.09
-0.09
-0.115
-0.125
-0.14
-0.13
-0.11
-0.105
-0.135
-0.145
-0.155
-0.14
-0.13
-0.12
-0.13
-0.135
-0.145
-0.14
-0.12
-0.115
-0.1
-0.115
-0.125
-0.13
-0.1
-0.095
-0.095
-0.095
-0.1
-0.105
-0.095
-0.09
-0.105
-0.09
-0.09
-0.09
-0.085
-0.08
-0.07
-0.095
-0.08
-0.08
-0.07
-0.05
-0.06
-0.075
-0.075
-0.075
-0.065
-0.055
-0.06
-0.06
-0.08
-0.08
-0.08
-0.065
-0.075
-0.085
-0.105
-0.12
-0.105
-0.105
-0.11
-0.11
-0.1
-0.1
-0.085
-0.085
-0.09
-0.1
-0.115
-0.115
-0.1
-0.09
-0.105
-0.115
-0.11
-0.1
-0.09
-0.075
-0.075
-0.08
-0.095
-0.1
-0.085
-0.08
-0.085
-0.09
-0.09
-0.09
-0.075
-0.055
-0.07
-0.075
-0.075
-0.09
-0.06
-0.05
-0.04
-0.05
-0.065
-0.065
-0.055
-0.06
-0.055
-0.05
-0.065
-0.065
-0.06
-0.055
-0.065
-0.08
-0.1
-0.1
-0.07
-0.075
-0.085
-0.11
-0.125
-0.135
-0.115
-0.1
-0.09
-0.09
-0.085
-0.025
0.055
0.165
0.275
0.355
0.455
0.575
0.725
0.86
0.995
1.09
1.12
1.11
1.07
0.985
0.835
0.63
0.405
0.205
0.105
0.05
-0.01
-0.06
-0.12
-0.14
-0.14
-0.135
-0.15
-0.18
-0.19
-0.2
-0.2
-0.205
-0.21
-0.24
-0.245
-0.255
-0.245
-0.23
-0.235
-0.265
-0.28
-0.29
-0.295
-0.28
-0.305
-0.325
-0.355
-0.36
-0.365
-0.35
-0.365
-0.385
-0.38
-0.38
-0.35
-0.34
-0.34
-0.345
-0.345
-0.35
-0.34
-0.32
-0.31
-0.325
-0.34
-0.34
-0.33
-0.325
-0.31
-0.32
-0.325
-0.31
-0.3
-0.275
-0.285
-0.29
-0.285
-0.28
-0.26
-0.235
-0.24
-0.245
-0.26
-0.25
-0.235
-0.225
-0.22
-0.235
-0.23
-0.24
-0.215
-0.2
-0.195
-0.2
-0.21
-0.21
-0.21
-0.2
-0.21
-0.215
-0.215
-0.23
-0.23
-0.225
-0.24
-0.225
-0.22
-0.22
-0.21
-0.185
-0.18
-0.175
-0.18
-0.17
-0.16
-0.155
-0.16
-0.175
-0.185
-0.19
-0.18
-0.17
-0.17
-0.175
-0.185
-0.18
-0.16
-0.165
-0.16
-0.175
-0.175
-0.185
-0.18
-0.165
-0.17
-0.185
-0.19
-0.2
-0.2
-0.195
-0.19
-0.215
-0.215
-0.22
-0.23
-0.21
-0.235
-0.245
-0.27
-0.275
-0.28
-0.275
-0.3
-0.32
-0.32
-0.325
-0.31
-0.285
-0.29
-0.285
-0.29
-0.295
-0.28
-0.28
-0.255
-0.25
-0.27
-0.25
-0.23
-0.21
-0.21
-0.215
-0.225
-0.225
-0.24
-0.22
-0.215
-0.215
-0.22
-0.22
-0.21
-0.185
-0.19
-0.205
-0.215
-0.21
-0.21
-0.19
-0.19
-0.205
-0.22
-0.215
-0.195
-0.19
-0.195
-0.2
-0.21
-0.225
-0.22
-0.23
-0.215
-0.23
-0.25
-0.255
-0.265
-0.265
-0.265
-0.28
-0.295
-0.31
-0.285
-0.28
-0.265
-0.265
-0.28
-0.26
-0.255
-0.255
-0.255
-0.245
-0.25
-0.24
-0.235
-0.225
-0.215
-0.225
-0.245
-0.235
-0.235
-0.2
-0.21
-0.215
-0.215
-0.21
-0.21
-0.2
-0.2
-0.2
-0.205
-0.2
-0.2
-0.19
-0.185
-0.175
-0.19
-0.195
-0.185
-0.18
-0.18
-0.2
-0.2
-0.205
-0.195
-0.195
-0.19
-0.215
-0.225
-0.23
-0.24
-0.23
-0.235
-0.25
-0.255
-0.26
-0.26
-0.245
-0.245
-0.245
-0.255
-0.235
-0.175
-0.08
0.005
0.115
0.23
0.345
0.47
0.62
0.745
0.875
0.965
1.01
1.025
0.99
0.915
0.775
0.565
0.335
0.13
-0.015
-0.075
-0.12
-0.185
-0.235
-0.245
-0.23
-0.24
-0.255
-0.28
-0.3
-0.295
-0.285
-0.28
-0.29
-0.305
-0.32
-0.315
-0.315
-0.32
-0.33
-0.345
-0.355
-0.34
-0.345
-0.36
-0.385
-0.38
-0.38
-0.37
-0.365
-0.355
-0.375
-0.38
-0.375
-0.355
-0.34
-0.345
-0.35
-0.375
-0.365
-0.345
-0.325
-0.34
-0.33
-0.34
-0.335
-0.315
-0.305
-0.295
-0.295
-0.3
-0.3
-0.28
-0.275
-0.255
-0.27
-0.28
-0.27
-0.255
-0.23
-0.23
-0.23
-0.245
-0.24
-0.23
-0.21
-0.2
-0.22
-0.215
-0.225
-0.215
-0.21
-0.21
-0.215
-0.215
-0.225
-0.22
-0.195
-0.19
-0.195
-0.215
-0.21
-0.19
-0.155
-0.17
-0.155
-0.165
-0.165
-0.145
-0.125
-0.125
-0.13
-0.14
-0.135
-0.12
-0.125
-0.12
-0.125
-0.13
-0.13
-0.125
-0.105
-0.105
-0.1
-0.12
-0.13
-0.12
-0.09
-0.1
-0.115
-0.115
-0.125
-0.12
-0.115
-0.12
-0.12
-0.12
-0.14
-0.135
-0.135
-0.135
-0.145
-0.175
-0.17
-0.17
-0.19
-0.18
-0.17
-0.17
-0.185
-0.17
-0.17
-0.16
-0.155
-0.155
-0.155
-0.15
-0.15
-0.135
-0.135
-0.14
-0.13
-0.11
-0.105
-0.11
-0.125
-0.13
-0.13
-0.11
-0.11
-0.095
-0.1
-0.11
-0.105
-0.095
-0.08
-0.07
-0.07
-0.095
-0.105
-0.08
-0.08
-0.085
-0.065
-0.085
-0.09
-0.08
-0.08
-0.08
-0.065
-0.085
-0.095
-0.095
-0.09
-0.09
-0.11
-0.12
-0.135
-0.14
-0.115
-0.11
-0.115
-0.11
-0.12
-0.105
-0.08
-0.08
-0.06
-0.075
-0.08
-0.075
-0.045
-0.035
-0.045
-0.06
-0.05
-0.045
-0.025
-0.02
-0.025
-0.05
-0.08
-0.09
-0.095
-0.09
-0.09
-0.1
-0.12
-0.135
-0.155
-0.17
-0.19
-0.21
-0.23
-0.255
-0.29
-0.3
-0.36
-0.435
-0.53
-0.615
-0.69
-0.765
-0.845
-0.88
-0.885
-0.835
-0.745
-0.67
-0.615
-0.57
-0.525
-0.475
-0.42
-0.37
-0.35
-0.355
-0.34
-0.31
-0.3
-0.31
-0.285
-0.225
-0.145
-0.03
0.055
0.13
0.135
0.13
0.145
0.17
0.195
0.195
0.205
0.185
0.185
0.2
0.22
0.235
0.23
0.22
0.235
0.245
0.25
0.27
0.275
0.265
0.265
0.29
0.3
0.305
0.31
0.325
0.315
0.33
0.345
0.38
0.365
0.365
0.375
0.395
0.405
0.425
0.44
0.445
0.445
0.445
0.46
0.445
0.44
0.43
0.455
0.455
0.495
0.495
0.505
0.505
0.505
0.5
0.5
0.5
0.5
0.495
0.5
0.495
0.495
0.485
0.48
0.46
0.44
0.43
0.435
0.415
0.38
0.355
0.33
0.325
0.33
0.315
0.29
0.255
0.225
0.215
0.195
0.195
0.14
0.145
0.14
0.15
0.145
0.12
0.07
0.035
0.04
0.07
0.085
0.065
0.05
0.005
-0.015
-0.035
-0.03
-0.03
-0.045
-0.065
-0.065
-0.065
-0.05
-0.06
-0.06
-0.075
-0.09
-0.07
-0.06
-0.04
-0.035
-0.05
-0.085
-0.08
-0.075
-0.065
-0.07
-0.085
-0.095
-0.095
-0.09
-0.08
-0.085
