Lead II
1.525
1.5
1.405
1.245
1.055
0.865
0.725
0.575
0.435
0.26
0.075
-0.135
-0.315
-0.45
-0.58
-0.69
-0.8
-0.88
-0.92
-0.93
-0.935
-0.935
-0.925
-0.93
-0.915
-0.9
-0.895
-0.86
-0.835
-0.8
-0.77
-0.735
-0.695
-0.69
-0.67
-0.655
-0.615
-0.59
-0.57
-0.55
-0.545
-0.54
-0.53
-0.53
-0.52
-0.525
-0.54
-0.56
-0.545
-0.54
-0.54
-0.535
-0.56
-0.565
-0.55
-0.555
-0.56
-0.555
-0.57
-0.58
-0.595
-0.585
-0.58
-0.595
-0.595
-0.615
-0.62
-0.605
-0.595
-0.61
-0.615
-0.63
-0.625
-0.61
-0.61
-0.61
-0.61
-0.62
-0.615
-0.595
-0.59
-0.595
-0.6
-0.6
-0.585
-0.57
-0.55
-0.555
-0.545
-0.55
-0.525
-0.5
-0.495
-0.485
-0.48
-0.485
-0.46
-0.44
-0.41
-0.415
-0.41
-0.4
-0.37
-0.365
-0.345
-0.32
-0.325
-0.31
-0.29
-0.265
-0.24
-0.235
-0.23
-0.21
-0.195
-0.18
-0.165
-0.155
-0.155
-0.15
-0.135
-0.125
-0.115
-0.125
-0.105
-0.11
-0.11
-0.11
-0.095
-0.105
-0.105
-0.135
-0.12
-0.105
-0.115
-0.115
-0.125
-0.14
-0.135
-0.14
-0.135
-0.165
-0.165
-0.175
-0.16
-0.16
-0.155
-0.16
-0.165
-0.165
-0.155
-0.145
-0.15
-0.16
-0.17
-0.165
-0.17
-0.155
-0.175
-0.18
-0.19
-0.2
-0.185
-0.17
-0.14
-0.125
-0.13
-0.135
-0.15
-0.145
-0.12
-0.11
-0.125
-0.14
-0.14
-0.13
-0.125
-0.125
-0.13
-0.125
-0.105
-0.105
-0.1
-0.12
-0.16
-0.185
-0.205
-0.215
-0.23
-0.26
-0.285
-0.33
-0.33
-0.33
-0.315
-0.325
-0.345
-0.345
-0.355
-0.345
-0.34
-0.335
-0.34
-0.345
-0.34
-0.35
-0.325
-0.335
-0.34
-0.345
-0.34
-0.325
-0.325
-0.335
-0.34
-0.35
-0.335
-0.33
-0.315
-0.325
-0.335
-0.335
-0.325
-0.325
-0.31
-0.31
-0.325
-0.32
-0.32
-0.315
-0.305
-0.305
-0.305
-0.305
-0.295
-0.285
-0.285
-0.28
-0.285
-0.29
-0.28
-0.28
-0.28
-0.28
-0.3
-0.315
-0.31
-0.325
-0.325
-0.31
-0.28
-0.19
-0.055
0.095
0.24
0.37
0.45
0.505
0.595
0.725
0.85
0.97
1.09
1.21
1.32
1.385
1.405
1.39
1.37
1.335
1.245
1.11
0.94
0.765
0.615
0.465
0.335
0.2
0.05
-0.145
-0.33
-0.48
-0.6
-0.71
-0.795
-0.875
-0.93
-0.96
-0.95
-0.93
-0.92
-0.91
-0.92
-0.93
-0.905
-0.855
-0.825
-0.795
-0.765
-0.755
-0.725
-0.71
-0.685
-0.66
-0.64
-0.625
-0.605
-0.59
-0.555
-0.555
-0.55
-0.56
-0.555
-0.54
-0.545
-0.555
-0.565
-0.575
-0.565
-0.565
-0.56
-0.565
-0.58
-0.585
-0.58
-0.58
-0.58
-0.585
-0.6
-0.605
-0.6
-0.605
-0.59
-0.605
-0.62
-0.635
-0.62
-0.605
-0.615
-0.605
-0.61
-0.625
-0.625
-0.62
-0.615
-0.605
-0.61
-0.615
-0.605
-0.595
-0.58
-0.57
-0.575
-0.58
-0.555
-0.545
-0.535
-0.525
-0.535
-0.525
-0.5
-0.48
-0.465
-0.45
-0.455
-0.455
-0.43
-0.405
-0.385
-0.37
-0.375
-0.36
-0.35
-0.32
-0.295
-0.29
-0.285
-0.27
-0.26
-0.24
-0.22
-0.205
-0.2
-0.2
-0.18
-0.16
-0.15
-0.145
-0.145
-0.145
-0.14
-0.115
-0.11
-0.135
-0.13
-0.13
-0.125
-0.12
-0.115
-0.12
-0.125
-0.145
-0.14
-0.135
-0.13
-0.14
-0.155
-0.18
-0.165
-0.185
-0.16
-0.175
-0.185
-0.195
-0.18
-0.17
-0.16
-0.165
-0.165
-0.17
-0.165
-0.155
-0.145
-0.16
-0.18
-0.2
-0.2
-0.18
-0.17
-0.155
-0.15
-0.15
-0.135
-0.13
-0.12
-0.125
-0.125
-0.125
-0.14
-0.125
-0.12
-0.125
-0.125
-0.135
-0.11
-0.09
-0.09
-0.11
-0.14
-0.185
-0.2
-0.225
-0.245
-0.27
-0.305
-0.325
-0.335
-0.325
-0.325
-0.335
-0.355
-0.36
-0.34
-0.325
-0.33
-0.33
-0.33
-0.34
-0.33
-0.33
-0.315
-0.335
-0.325
-0.33
-0.33
-0.325
-0.31
-0.315
-0.325
-0.33
-0.325
-0.315
-0.305
-0.315
-0.325
-0.32
-0.32
-0.31
-0.305
-0.31
-0.32
-0.315
-0.305
-0.295
-0.3
-0.29
-0.29
-0.305
-0.29
-0.275
-0.27
-0.27
-0.305
-0.305
-0.315
-0.33
-0.335
-0.335
-0.33
-0.275
-0.16
-0.015
0.125
0.235
0.345
0.42
0.49
0.605
0.735
0.855
0.97
1.095
1.21
1.275
1.3
1.285
1.27
1.23
1.155
1.015
0.845
0.685
0.53
0.39
0.26
0.09
-0.115
-0.315
-0.46
-0.595
-0.695
-0.785
-0.845
-0.88
-0.895
-0.905
-0.885
-0.87
-0.86
-0.875
-0.855
-0.82
-0.765
-0.725
-0.69
-0.68
-0.665
-0.66
-0.635
-0.585
-0.56
-0.54
-0.53
-0.535
-0.515
-0.5
-0.485
-0.51
-0.495
-0.515
-0.51
-0.515
-0.515
-0.525
-0.515
-0.53
-0.52
-0.525
-0.535
-0.535
-0.535
-0.555
-0.555
-0.55
-0.545
-0.55
-0.56
-0.56
-0.555
-0.545
-0.55
-0.545
-0.555
-0.57
-0.555
-0.555
-0.555
-0.545
-0.55
-0.565
-0.535
-0.54
-0.53
-0.52
-0.52
-0.52
-0.51
-0.48
-0.475
-0.47
-0.465
-0.455
-0.44
-0.425
-0.405
-0.39
-0.39
-0.37
-0.355
-0.335
-0.32
-0.31
-0.305
-0.295
-0.275
-0.245
-0.24
-0.225
-0.215
-0.2
-0.19
-0.19
-0.16
-0.145
-0.14
-0.14
-0.125
-0.1
-0.09
-0.085
-0.09
-0.095
-0.08
-0.065
-0.055
-0.07
-0.085
-0.08
-0.075
-0.05
-0.06
-0.065
-0.08
-0.085
-0.09
-0.075
-0.08
-0.1
-0.11
-0.115
-0.12
-0.11
-0.1
-0.115
-0.105
-0.12
-0.115
-0.1
-0.085
-0.09
-0.085
-0.1
-0.095
-0.085
-0.08
-0.095
-0.12
-0.13
-0.12
-0.105
-0.075
-0.06
-0.06
-0.07
-0.07
-0.07
-0.055
-0.055
-0.07
-0.085
-0.08
-0.075
-0.06
-0.06
-0.06
-0.06
-0.055
-0.06
-0.075
-0.1
-0.135
-0.175
-0.18
-0.205
-0.23
-0.25
-0.295
-0.305
-0.295
-0.29
-0.295
-0.295
-0.305
-0.315
-0.305
-0.295
-0.295
-0.295
-0.315
-0.315
-0.3
-0.295
-0.3
-0.29
-0.295
-0.305
-0.295
-0.28
-0.29
-0.275
-0.285
-0.295
-0.285
-0.28
-0.27
-0.27
-0.275
-0.285
-0.275
-0.28
-0.265
-0.27
-0.265
-0.27
-0.26
-0.255
-0.25
-0.24
-0.25
-0.26
-0.255
-0.25
-0.245
-0.275
-0.305
-0.33
-0.335
-0.32
-0.285
-0.205
-0.085
0.05
0.195
0.32
0.41
0.48
0.615
0.77
0.915
1.085
1.22
1.32
1.375
1.385
1.385
1.37
1.31
1.145
0.95
0.755
0.6
0.46
0.305
0.1
-0.115
-0.32
-0.47
-0.595
-0.71
-0.8
-0.87
-0.895
-0.88
-0.88
-0.855
-0.84
-0.845
-0.84
-0.785
-0.735
-0.7
-0.675
-0.66
-0.66
-0.635
-0.6
-0.565
-0.555
-0.54
-0.535
-0.52
-0.51
-0.49
-0.505
-0.51
-0.52
-0.525
-0.515
-0.515
-0.525
-0.54
-0.555
-0.555
-0.55
-0.55
-0.555
-0.56
-0.565
-0.565
-0.57
-0.57
-0.57
-0.585
-0.6
-0.59
-0.585
-0.58
-0.58
-0.59
-0.59
-0.585
-0.585
-0.575
-0.57
-0.595
-0.59
-0.575
-0.56
-0.545
-0.54
-0.535
-0.54
-0.52
-0.495
-0.485
-0.48
-0.475
-0.465
-0.45
-0.435
-0.405
-0.4
-0.4
-0.385
-0.36
-0.335
-0.315
-0.305
-0.295
-0.29
-0.26
-0.245
-0.225
-0.21
-0.205
-0.205
-0.185
-0.17
-0.15
-0.15
-0.14
-0.135
-0.12
-0.11
-0.1
-0.085
-0.095
-0.11
-0.095
-0.09
-0.075
-0.095
-0.1
-0.12
-0.1
-0.095
-0.105
-0.105
-0.12
-0.125
-0.13
-0.12
-0.115
-0.125
-0.145
-0.145
-0.145
-0.135
-0.14
-0.13
-0.145
-0.135
-0.135
-0.14
-0.12
-0.12
-0.145
-0.16
-0.175
-0.16
-0.155
-0.16
-0.15
-0.15
-0.125
-0.12
-0.12
-0.115
-0.135
-0.125
-0.11
-0.115
-0.12
-0.125
-0.14
-0.14
-0.11
-0.1
-0.085
-0.09
-0.11
-0.14
-0.16
-0.17
-0.205
-0.235
-0.26
-0.29
-0.295
-0.31
-0.31
-0.32
-0.34
-0.34
-0.335
-0.325
-0.315
-0.325
-0.34
-0.345
-0.34
-0.325
-0.31
-0.32
-0.32
-0.325
-0.32
-0.325
-0.31
-0.315
-0.315
-0.33
-0.315
-0.3
-0.3
-0.295
-0.305
-0.305
-0.3
-0.295
-0.295
-0.3
-0.305
-0.3
-0.3
-0.29
-0.27
-0.27
-0.285
-0.285
-0.275
-0.27
-0.275
-0.265
-0.27
-0.28
-0.28
-0.285
-0.305
-0.325
-0.34
-0.35
-0.325
-0.275
-0.18
-0.055
0.075
0.195
0.305
0.405
0.485
0.605
0.745
0.895
1.055
1.21
1.33
1.41
1.445
1.435
1.44
1.41
1.34
1.2
1.005
0.84
0.69
0.55
0.395
0.23
0.01
-0.21
-0.39
-0.53
-0.635
-0.765
-0.865
-0.93
-0.935
-0.925
-0.93
-0.925
-0.925
-0.92
-0.9
-0.89
-0.835
-0.8
-0.785
-0.75
-0.72
-0.7
-0.675
-0.66
-0.64
-0.625
-0.58
-0.58
-0.57
-0.56
-0.55
-0.555
-0.54
-0.535
-0.535
-0.545
-0.555
-0.555
-0.56
-0.56
-0.555
-0.56
-0.575
-0.59
-0.595
-0.595
-0.585
-0.6
-0.61
-0.63
-0.62
-0.615
-0.615
-0.62
-0.62
-0.645
-0.62
-0.63
-0.63
-0.63
-0.63
-0.625
-0.62
-0.63
-0.625
-0.625
-0.62
-0.625
-0.605
-0.595
-0.57
-0.58
-0.575
-0.57
-0.55
-0.545
-0.53
-0.515
-0.51
-0.515
-0.485
-0.465
-0.445
-0.435
-0.435
-0.415
-0.39
-0.37
-0.35
-0.34
-0.345
-0.335
-0.315
-0.29
-0.27
-0.265
-0.255
-0.25
-0.23
-0.195
-0.19
-0.18
-0.165
-0.165
-0.15
-0.125
-0.115
-0.105
-0.11
-0.11
-0.1
-0.1
-0.08
-0.09
-0.08
-0.11
-0.105
-0.085
-0.095
-0.1
-0.105
-0.125
-0.125
-0.1
-0.11
-0.115
-0.13
-0.145
-0.14
-0.15
-0.135
-0.145
-0.145
-0.15
-0.145
-0.13
-0.14
-0.14
-0.155
-0.145
-0.14
-0.13
-0.13
-0.145
-0.16
-0.17
-0.165
-0.155
-0.145
-0.125
-0.125
-0.13
-0.11
-0.11
-0.115
-0.12
-0.115
-0.12
-0.11
-0.11
-0.105
-0.12
-0.13
-0.13
-0.12
-0.085
-0.085
-0.08
-0.1
-0.115
-0.13
-0.15
-0.185
-0.215
-0.24
-0.27
-0.285
-0.29
-0.295
-0.305
-0.32
-0.33
-0.325
-0.32
-0.325
-0.33
-0.34
-0.345
-0.345
-0.325
-0.325
-0.34
-0.33
-0.34
-0.335
-0.33
-0.33
-0.33
-0.33
-0.335
-0.335
-0.31
-0.315
-0.33
-0.335
-0.34
-0.325
-0.315
-0.315
-0.315
-0.32
-0.325
-0.32
-0.305
-0.3
-0.305
-0.315
-0.32
-0.305
-0.29
-0.28
-0.285
-0.29
-0.3
-0.29
-0.27
-0.27
-0.28
-0.295
-0.315
-0.325
-0.335
-0.35
-0.365
-0.36
-0.325
-0.235
-0.1
0.03
0.16
0.27
0.37
0.46
0.575
0.71
0.85
1.0
1.135
1.285
1.4
1.46
1.475
1.475
1.455
1.43
1.315
1.13
0.93
0.745
0.575
0.41
0.245
0.045
-0.185
-0.395
-0.57
-0.68
-0.795
-0.875
-0.93
-0.965
-0.98
-0.97
-0.96
-0.935
-0.94
-0.94
-0.92
-0.865
-0.835
-0.785
-0.76
-0.75
-0.735
-0.715
-0.685
-0.65
-0.635
-0.615
-0.605
-0.595
-0.57
-0.58
-0.57
-0.575
-0.59
-0.585
-0.605
-0.58
-0.595
-0.6
-0.605
-0.61
-0.605
-0.62
-0.61
-0.62
-0.635
-0.63
-0.64
-0.63
-0.65
-0.645
-0.655
-0.655
-0.645
-0.645
-0.65
-0.645
-0.665
-0.645
-0.65
-0.64
-0.64
-0.655
-0.665
-0.645
-0.625
-0.625
-0.625
-0.62
-0.62
-0.605
-0.585
-0.58
-0.575
-0.56
-0.565
-0.53
-0.51
-0.49
-0.48
-0.485
-0.47
-0.46
-0.435
-0.42
-0.395
-0.39
-0.38
-0.36
-0.33
-0.315
-0.31
-0.31
-0.29
-0.275
-0.255
-0.23
-0.225
-0.225
-0.215
-0.19
-0.175
-0.17
-0.17
-0.155
-0.17
-0.15
-0.145
-0.14
-0.125
-0.145
-0.15
-0.135
-0.13
-0.135
-0.145
-0.145
-0.155
-0.15
-0.145
-0.155
-0.155
-0.17
-0.175
-0.175
-0.165
-0.165
-0.18
-0.19
-0.195
-0.185
-0.18
-0.175
-0.175
-0.18
-0.185
-0.18
-0.18
-0.165
-0.17
-0.185
-0.195
-0.21
-0.21
-0.205
-0.205
-0.2
-0.205
-0.18
-0.165
-0.15
-0.155
-0.165
-0.17
-0.155
-0.14
-0.15
-0.155
-0.17
-0.175
-0.17
-0.16
-0.15
-0.14
-0.135
-0.14
-0.155
-0.16
-0.18
-0.215
-0.25
-0.27
-0.3
-0.3
-0.315
-0.345
-0.365
-0.38
-0.375
-0.36
-0.36
-0.37
-0.38
-0.4
-0.385
-0.38
-0.38
-0.37
-0.38
-0.385
-0.38
-0.37
-0.37
-0.365
-0.365
-0.38
-0.37
-0.36
-0.355
-0.35
-0.365
-0.385
-0.37
-0.36
-0.345
-0.355
-0.365
-0.37
-0.375
-0.35
-0.34
-0.335
-0.345
-0.335
-0.35
-0.33
-0.33
-0.34
-0.335
-0.35
-0.335
-0.325
-0.32
-0.315
-0.325
-0.335
-0.335
-0.34
-0.35
-0.375
-0.39
-0.39
-0.365
-0.295
-0.185
-0.075
0.045
0.185
0.305
0.42
0.515
0.575
0.685
0.815
0.97
1.1
1.23
1.335
1.4
1.425
1.445
1.445
1.42
1.345
1.225
1.03
0.84
0.685
0.53
0.365
0.205
0.005
-0.215
-0.39
-0.535
-0.675
-0.8
-0.91
-0.98
-1.015
-1.02
-1.025
-1.02
-1.01
-0.98
-0.985
-0.97
-0.945
-0.92
-0.875
-0.835
-0.795
-0.765
-0.75
-0.745
-0.725
-0.7
-0.66
-0.63
-0.61
-0.605
-0.625
-0.595
-0.59
-0.585
-0.59
-0.605
-0.62
-0.61
-0.605
-0.615
-0.615
-0.63
-0.64
-0.635
-0.625
-0.625
-0.63
-0.64
-0.66
-0.66
-0.655
-0.65
-0.66
-0.665
-0.675
-0.665
-0.655
-0.655
-0.665
-0.67
-0.67
-0.66
-0.66
-0.66
-0.645
-0.65
-0.655
-0.64
-0.625
-0.61
-0.62
-0.605
-0.61
-0.59
-0.57
-0.545
-0.54
-0.54
-0.54
-0.51
-0.5
-0.475
-0.475
-0.46
-0.435
-0.425
-0.41
-0.39
-0.39
-0.36
-0.355
-0.315
-0.3
-0.29
-0.27
-0.27
-0.255
-0.235
-0.225
-0.205
-0.18
-0.185
-0.19
-0.165
-0.155
-0.14
-0.145
-0.15
-0.155
-0.15
-0.135
-0.135
-0.13
-0.145
-0.145
-0.14
-0.145
-0.155
-0.155
-0.17
-0.175
-0.175
-0.175
-0.175
-0.175
-0.19
-0.205
-0.195
-0.2
-0.185
-0.185
-0.185
-0.195
-0.19
-0.17
-0.17
-0.175
-0.185
-0.195
-0.19
-0.2
-0.2
-0.2
-0.2
-0.185
-0.165
-0.15
-0.14
-0.145
-0.145
-0.15
-0.125
-0.125
-0.14
-0.14
-0.145
-0.155
-0.15
-0.14
-0.115
-0.115
-0.125
-0.14
-0.16
-0.17
-0.19
-0.215
-0.245
-0.27
-0.295
-0.31
-0.33
-0.33
-0.35
-0.35
-0.35
-0.34
-0.34
-0.36
-0.37
-0.365
-0.35
-0.345
-0.345
-0.35
-0.355
-0.36
-0.36
-0.35
-0.345
-0.355
-0.36
-0.365
-0.37
-0.35
-0.34
-0.335
-0.335
-0.355
-0.335
-0.32
-0.32
-0.325
-0.335
-0.345
-0.33
-0.32
-0.315
-0.315
-0.32
-0.315
-0.32
-0.3
-0.31
-0.315
-0.315
-0.315
-0.305
-0.295
-0.285
-0.29
-0.29
-0.31
-0.305
-0.3
-0.32
-0.335
-0.35
-0.345
-0.31
-0.245
-0.135
-0.025
0.095
0.215
0.35
0.445
0.52
0.61
0.715
0.83
0.965
1.09
1.21
1.305
1.325
1.31
1.32
1.295
1.235
1.12
0.945
0.765
0.625
0.49
0.37
0.25
0.065
-0.155
-0.335
-0.47
-0.595
-0.72
-0.815
-0.89
-0.92
-0.925
-0.93
-0.91
-0.905
-0.91
-0.9
-0.885
-0.865
-0.825
-0.8
-0.77
-0.735
-0.7
-0.7
-0.685
-0.665
-0.64
-0.615
-0.575
-0.555
-0.54
-0.545
-0.54
-0.535
-0.525
-0.52
-0.53
-0.55
-0.565
-0.545
-0.55
-0.535
-0.55
-0.565
-0.565
-0.56
-0.565
-0.57
-0.575
-0.58
-0.585
-0.58
-0.585
-0.585
-0.59
-0.595
-0.6
-0.6
-0.595
-0.595
-0.585
-0.595
-0.61
-0.585
-0.585
-0.565
-0.56
-0.585
-0.575
-0.565
-0.54
-0.535
-0.535
-0.535
-0.535
-0.51
-0.505
-0.48
-0.475
-0.465
-0.46
-0.44
-0.41
-0.395
-0.39
-0.38
-0.375
-0.36
-0.33
-0.31
-0.295
-0.29
-0.28
-0.26
-0.235
-0.225
-0.21
-0.195
-0.19
-0.175
-0.16
-0.145
-0.13
-0.125
-0.13
-0.115
-0.095
-0.08
-0.075
-0.08
-0.08
-0.085
-0.065
-0.055
-0.07
-0.07
-0.075
-0.065
-0.055
-0.06
-0.065
-0.085
-0.095
-0.09
-0.08
-0.085
-0.09
-0.1
-0.11
-0.095
-0.115
-0.105
-0.115
-0.12
-0.125
-0.11
-0.1
-0.09
-0.085
-0.1
-0.095
-0.1
-0.085
-0.085
-0.1
-0.115
-0.12
-0.13
-0.1
-0.095
-0.075
-0.08
-0.075
-0.06
-0.05
-0.065
-0.055
-0.06
-0.075
-0.065
-0.06
-0.065
-0.06
-0.06
-0.08
-0.065
-0.055
-0.04
-0.04
-0.04
-0.05
-0.07
-0.07
-0.095
-0.13
-0.155
-0.19
-0.195
-0.21
-0.225
-0.245
-0.265
-0.285
-0.28
-0.265
-0.265
-0.275
-0.28
-0.295
-0.29
-0.285
-0.28
-0.28
-0.285
-0.29
-0.275
-0.265
-0.275
-0.265
-0.28
-0.285
-0.27
-0.265
-0.25
-0.27
-0.28
-0.285
-0.275
-0.27
-0.26
-0.255
-0.26
-0.27
-0.27
-0.255
-0.245
-0.26
-0.255
-0.26
-0.26
-0.245
-0.235
-0.245
-0.255
-0.25
-0.23
-0.225
-0.225
-0.225
-0.23
-0.25
-0.235
-0.235
-0.24
-0.255
-0.285
-0.31
-0.31
-0.29
-0.26
-0.195
-0.095
0.025
0.155
0.28
0.38
0.455
0.52
0.645
0.78
0.935
1.075
1.2
1.3
1.385
1.43
1.455
1.445
1.45
1.4
1.305
1.15
0.985
0.855
0.725
0.6
0.46
0.335
0.19
0.01
-0.185
-0.335
-0.485
-0.6
-0.705
-0.785
-0.83
-0.855
-0.89
-0.87
-0.86
-0.85
-0.845
-0.85
-0.845
-0.8
-0.755
-0.705
-0.675
-0.655
-0.655
-0.625
-0.6
-0.57
-0.55
-0.54
-0.53
-0.505
-0.485
-0.48
-0.475
-0.485
-0.495
-0.49
-0.48
-0.485
-0.49
-0.5
-0.51
-0.51
-0.52
-0.505
-0.53
-0.525
-0.54
-0.525
-0.535
-0.53
-0.535
-0.545
-0.55
-0.55
-0.555
-0.555
-0.57
-0.565
-0.58
-0.575
-0.56
-0.555
-0.555
-0.555
-0.565
-0.565
-0.555
-0.545
-0.545
-0.54
-0.545
-0.54
-0.515
-0.505
-0.5
-0.5
-0.495
-0.48
-0.46
-0.435
-0.43
-0.43
-0.425
-0.4
-0.385
-0.35
-0.34
-0.335
-0.33
-0.31
-0.28
-0.27
-0.26
-0.25
-0.23
-0.21
-0.185
-0.175
-0.155
-0.14
-0.135
-0.11
-0.095
-0.08
-0.065
-0.065
-0.065
-0.06
-0.035
-0.025
-0.025
-0.02
-0.015
-0.01
-0.01
-0.005
-0.015
-0.005
-0.025
-0.02
-0.01
-0.01
-0.025
-0.04
-0.055
-0.04
-0.04
-0.045
-0.045
-0.06
-0.075
-0.07
-0.065
-0.05
-0.06
-0.05
-0.04
-0.04
-0.045
-0.04
-0.05
-0.04
-0.055
-0.055
-0.055
-0.06
-0.055
-0.055
-0.055
-0.035
-0.01
-0.01
-0.015
-0.025
-0.04
-0.025
-0.015
-0.02
-0.025
-0.025
-0.04
-0.035
-0.02
-0.01
-0.005
-0.01
-0.02
-0.025
-0.04
-0.065
-0.085
-0.13
-0.15
-0.165
-0.18
-0.185
-0.215
-0.235
-0.255
-0.25
-0.245
-0.24
-0.24
-0.25
-0.265
-0.255
-0.245
-0.24
-0.255
-0.255
-0.26
-0.255
-0.24
-0.24
-0.24
-0.255
-0.255
-0.245
-0.24
-0.23
-0.235
-0.245
-0.245
-0.235
-0.225
-0.225
-0.235
-0.235
-0.25
-0.25
-0.225
-0.22
-0.22
-0.225
-0.235
-0.22
-0.215
-0.22
-0.23
-0.225
-0.225
-0.215
-0.205
-0.19
-0.19
-0.2
-0.215
-0.215
-0.21
-0.215
-0.245
-0.265
-0.29
-0.29
-0.27
-0.23
-0.14
-0.045
0.06
0.18
0.305
0.405
0.485
0.56
0.655
0.8
0.955
1.075
1.225
1.345
1.44
1.505
1.54
1.55
1.525
1.475
1.355
1.19
1.02
0.865
0.72
0.56
0.405
0.245
0.06
-0.13
-0.305
-0.44
-0.56
-0.67
-0.765
-0.825
-0.88
-0.885
-0.9
-0.895
-0.87
-0.855
-0.855
-0.86
-0.84
-0.8
-0.755
-0.715
-0.685
-0.665
-0.655
-0.63
-0.61
-0.58
-0.555
-0.545
-0.545
-0.52
-0.49
-0.48
-0.48
-0.48
-0.485
-0.485
-0.475
-0.48
-0.485
-0.5
-0.51
-0.52
-0.51
-0.51
-0.51
-0.52
-0.53
-0.54
-0.53
-0.53
-0.525
-0.53
-0.555
-0.55
-0.54
-0.55
-0.555
-0.56
-0.58
-0.56
-0.555
-0.55
-0.545
-0.56
-0.575
-0.56
-0.56
-0.555
-0.54
-0.565
-0.56
-0.545
-0.535
-0.525
-0.525
-0.525
-0.515
-0.5
-0.475
-0.46
-0.45
-0.45
-0.445
-0.425
-0.39
-0.38
-0.37
-0.36
-0.345
-0.34
-0.305
-0.29
-0.275
-0.265
-0.26
-0.245
-0.22
-0.21
-0.19
-0.175
-0.175
-0.165
-0.13
-0.12
-0.105
-0.09
-0.105
-0.075
-0.06
-0.045
-0.035
-0.035
-0.055
-0.03
-0.035
-0.015
-0.01
-0.02
-0.02
-0.015
-0.02
-0.02
-0.025
-0.025
-0.045
-0.03
-0.03
-0.035
-0.045
-0.055
-0.08
-0.075
-0.065
-0.07
-0.065
-0.07
-0.075
-0.06
-0.05
-0.05
-0.06
-0.07
-0.07
-0.08
-0.07
-0.075
-0.09
-0.095
-0.11
-0.1
-0.08
-0.065
-0.06
-0.06
-0.07
-0.06
-0.05
-0.05
-0.05
-0.05
-0.065
-0.06
-0.05
-0.045
-0.055
-0.055
-0.05
-0.045
-0.015
-0.015
-0.025
-0.05
-0.085
-0.11
-0.13
-0.145
-0.175
-0.195
-0.225
-0.245
-0.25
-0.25
-0.25
-0.26
-0.27
-0.27
-0.28
-0.26
-0.26
-0.27
-0.275
-0.27
-0.26
-0.25
-0.26
-0.28
-0.28
-0.27
-0.265
-0.265
-0.26
-0.265
-0.27
-0.26
-0.26
-0.245
-0.24
-0.26
-0.27
-0.245
-0.25
-0.245
-0.26
-0.255
-0.255
-0.25
-0.245
-0.225
-0.235
-0.24
-0.24
-0.25
-0.23
-0.215
-0.21
-0.225
-0.22
-0.21
-0.21
-0.215
-0.21
-0.245
-0.265
-0.285
-0.28
-0.28
-0.25
-0.16
-0.05
0.09
0.23
0.38
0.465
0.54
0.645
0.785
0.935
1.07
1.21
1.345
1.455
1.535
1.58
1.58
1.56
1.525
1.41
1.24
1.05
0.88
0.705
0.555
0.365
0.185
-0.015
-0.22
-0.395
-0.53
-0.675
-0.79
-0.86
-0.9
-0.92
-0.93
-0.945
-0.92
-0.91
-0.9
-0.895
-0.87
-0.855
-0.805
-0.76
-0.72
-0.695
-0.68
-0.665
-0.65
-0.62
-0.575
-0.57
-0.55
-0.545
-0.54
-0.525
-0.52
-0.525
-0.525
-0.535
-0.525
-0.53
-0.525
-0.52
-0.55
-0.56
-0.565
-0.565
-0.56
-0.565
-0.58
-0.58
-0.59
-0.58
-0.585
-0.59
-0.61
-0.615
-0.61
-0.605
-0.595
-0.605
-0.605
-0.615
-0.615
-0.61
-0.605
-0.605
-0.61
-0.625
-0.61
-0.61
-0.595
-0.585
-0.595
-0.59
-0.585
-0.57
-0.555
-0.545
-0.55
-0.545
-0.525
-0.5
-0.5
-0.475
-0.46
-0.465
-0.445
-0.41
-0.405
-0.395
-0.39
-0.38
-0.35
-0.34
-0.31
-0.3
-0.29
-0.28
-0.27
-0.24
-0.225
-0.215
-0.215
-0.205
-0.18
-0.165
-0.16
-0.145
-0.145
-0.14
-0.125
-0.125
-0.1
-0.105
-0.105
-0.105
-0.1
-0.09
-0.09
-0.085
-0.1
-0.11
-0.105
-0.1
-0.1
-0.1
-0.12
-0.13
-0.14
-0.12
-0.12
-0.135
-0.14
-0.16
-0.155
-0.15
-0.125
-0.14
-0.14
-0.145
-0.15
-0.125
-0.13
-0.135
-0.13
-0.15
-0.175
-0.17
-0.17
-0.155
-0.155
-0.15
-0.135
-0.11
-0.115
-0.115
-0.11
-0.115
-0.11
-0.1
-0.105
-0.12
-0.12
-0.11
-0.1
-0.085
-0.07
-0.08
-0.11
-0.155
-0.175
-0.205
-0.21
-0.24
-0.275
-0.295
-0.3
-0.31
-0.295
-0.3
-0.315
-0.33
-0.33
-0.32
-0.325
-0.315
-0.31
-0.325
-0.31
-0.33
-0.305
-0.305
-0.315
-0.32
-0.31
-0.31
-0.305
-0.3
-0.315
-0.32
-0.31
-0.31
-0.3
-0.295
-0.32
-0.32
-0.31
-0.305
-0.295
-0.305
-0.29
-0.305
-0.295
-0.29
-0.28
-0.275
-0.285
-0.285
-0.285
-0.27
-0.27
-0.275
-0.295
-0.315
-0.32
-0.33
-0.315
-0.26
-0.155
-0.015
0.165
0.315
0.435
0.54
0.63
0.75
0.9
1.065
1.225
1.35
1.445
1.475
1.47
1.465
1.42
1.32
1.17
0.955
0.765
0.62
0.465
0.3
0.125
-0.075
-0.285
-0.45
-0.575
-0.71
-0.83
-0.935
-0.975
-1.0
-0.985
-0.98
-0.98
-0.98
-0.96
-0.945
-0.9
-0.88
-0.825
-0.815
-0.77
-0.735
-0.715
-0.705
-0.675
-0.66
-0.625
-0.6
-0.585
-0.58
-0.585
-0.585
-0.57
-0.56
-0.555
-0.57
-0.575
-0.595
-0.6
-0.585
-0.595
-0.605
-0.615
-0.62
-0.615
-0.61
-0.61
-0.615
-0.62
-0.64
-0.64
-0.64
-0.625
-0.63
-0.65
-0.655
-0.65
-0.645
-0.635
-0.64
-0.64
-0.65
-0.635
-0.625
-0.62
-0.625
-0.625
-0.625
-0.615
-0.6
-0.595
-0.585
-0.575
-0.585
-0.565
-0.54
-0.52
-0.515
-0.51
-0.5
-0.48
-0.455
-0.435
-0.42
-0.415
-0.405
-0.385
-0.36
-0.335
-0.34
-0.325
-0.32
-0.305
-0.28
-0.255
-0.24
-0.235
-0.235
-0.215
-0.195
-0.185
-0.17
-0.17
-0.165
-0.16
-0.145
-0.125
-0.12
-0.13
-0.13
-0.125
-0.115
-0.11
-0.11
-0.12
-0.13
-0.13
-0.12
-0.13
-0.125
-0.14
-0.16
-0.16
-0.155
-0.155
-0.165
-0.17
-0.18
-0.17
-0.165
-0.16
-0.155
-0.16
-0.155
-0.155
-0.145
-0.135
-0.145
-0.16
-0.18
-0.18
-0.185
-0.175
-0.165
-0.16
-0.155
-0.13
-0.105
-0.105
-0.11
-0.12
-0.12
-0.115
-0.1
-0.105
-0.1
-0.115
-0.125
-0.11
-0.085
-0.075
-0.07
-0.11
-0.13
-0.16
-0.19
-0.21
-0.24
-0.27
-0.3
-0.315
-0.315
-0.305
-0.32
-0.33
-0.335
-0.335
-0.335
-0.33
-0.325
-0.335
-0.33
-0.34
-0.31
-0.315
-0.305
-0.31
-0.335
-0.315
-0.315
-0.315
-0.305
-0.32
-0.33
-0.325
-0.305
-0.3
-0.305
-0.305
-0.315
-0.31
-0.3
-0.285
-0.295
-0.295
-0.305
-0.295
-0.29
-0.275
-0.28
-0.285
-0.285
-0.27
-0.275
-0.27
-0.27
-0.29
-0.305
-0.325
-0.34
-0.325
-0.29
-0.21
-0.105
0.07
0.205
0.35
0.44
0.52
0.635
0.79
0.965
1.11
1.245
1.35
1.4
1.415
1.43
1.405
1.34
1.21
1.015
0.84
0.7
0.57
0.425
0.245
0.02
-0.19
-0.375
-0.52
-0.65
-0.79
-0.88
-0.925
-0.93
-0.93
-0.925
-0.915
-0.92
-0.9
-0.865
-0.82
-0.78
-0.745
-0.72
-0.705
-0.675
-0.65
-0.625
-0.605
-0.585
-0.565
-0.54
-0.52
-0.52
-0.525
-0.535
-0.52
-0.52
-0.525
-0.535
-0.545
-0.55
-0.555
-0.54
-0.545
-0.55
-0.555
-0.575
-0.56
-0.565
-0.56
-0.57
-0.58
-0.585
-0.58
-0.58
-0.575
-0.58
-0.59
-0.6
-0.59
-0.59
-0.58
-0.585
-0.59
-0.59
-0.57
-0.555
-0.555
-0.55
-0.55
-0.545
-0.53
-0.51
-0.5
-0.475
-0.485
-0.485
-0.455
-0.43
-0.415
-0.41
-0.39
-0.385
-0.36
-0.34
-0.32
-0.295
-0.29
-0.29
-0.27
-0.25
-0.23
-0.215
-0.195
-0.21
-0.175
-0.155
-0.135
-0.12
-0.125
-0.125
-0.11
-0.09
-0.07
-0.065
-0.065
-0.06
-0.045
-0.03
-0.025
-0.025
-0.025
-0.045
-0.03
-0.03
-0.02
-0.03
-0.03
-0.045
-0.05
-0.05
-0.045
-0.05
-0.06
-0.075
-0.085
-0.085
-0.075
-0.075
-0.085
-0.09
-0.085
-0.07
-0.055
-0.055
-0.055
-0.075
-0.08
-0.06
-0.05
-0.06
-0.07
-0.095
-0.085
-0.08
-0.06
-0.035
-0.03
-0.03
-0.03
-0.01
-0.01
-0.03
-0.02
-0.03
-0.03
-0.035
-0.025
-0.025
-0.025
-0.03
-0.01
-0.005
-0.01
-0.015
-0.04
-0.075
-0.105
-0.12
-0.14
-0.175
-0.195
-0.235
-0.23
-0.245
-0.245
-0.245
-0.26
-0.265
-0.28
-0.255
-0.255
-0.26
-0.25
-0.27
-0.265
-0.265
-0.27
-0.26
-0.26
-0.265
-0.26
-0.24
-0.245
-0.23
-0.245
-0.25
-0.25
-0.24
-0.25
-0.25
-0.24
-0.255
-0.255
-0.245
-0.23
-0.23
-0.23
-0.24
-0.23
-0.22
-0.23
-0.225
-0.225
-0.23
-0.225
-0.205
-0.195
-0.2
-0.215
-0.225
-0.23
-0.23
-0.24
-0.27
-0.285
-0.305
-0.28
-0.205
-0.09
0.05
0.165
0.29
0.405
0.495
0.585
0.7
0.84
0.975
1.13
1.27
1.385
1.475
1.515
1.52
1.52
1.5
1.44
1.3
1.115
0.91
0.78
0.625
0.475
0.3
0.085
-0.125
-0.295
-0.425
-0.565
-0.71
-0.8
-0.87
-0.885
-0.89
-0.87
-0.865
-0.875
-0.87
-0.855
-0.84
-0.8
-0.765
-0.74
-0.705
-0.67
-0.64
-0.62
-0.61
-0.575
-0.56
-0.54
-0.515
-0.505
-0.505
-0.505
-0.49
-0.485
-0.48
-0.465
-0.475
-0.485
-0.51
-0.485
-0.48
-0.5
-0.5
-0.51
-0.52
-0.52
-0.515
-0.51
-0.53
-0.53
-0.545
-0.54
-0.545
-0.545
-0.555
-0.56
-0.57
-0.575
-0.56
-0.555
-0.555
-0.565
-0.575
-0.565
-0.56
-0.55
-0.55
-0.555
-0.56
-0.545
-0.535
-0.53
-0.52
-0.52
-0.53
-0.505
-0.485
-0.47
-0.47
-0.46
-0.46
-0.445
-0.425
-0.395
-0.39
-0.385
-0.385
-0.36
-0.33
-0.32
-0.305
-0.3
-0.295
-0.26
-0.24
-0.23
-0.22
-0.2
-0.2
-0.18
-0.16
-0.135
-0.125
-0.12
-0.12
-0.1
-0.08
-0.065
-0.075
-0.055
-0.06
-0.04
-0.045
-0.025
-0.015
-0.02
-0.02
-0.015
-0.005
-0.005
-0.01
-0.015
-0.02
-0.015
-0.02
-0.015
-0.01
-0.035
-0.045
-0.045
-0.05
-0.045
-0.05
-0.065
-0.085
-0.065
-0.065
-0.05
-0.055
-0.05
-0.06
-0.055
-0.055
-0.05
-0.04
-0.04
-0.065
-0.07
-0.08
-0.08
-0.065
-0.06
-0.065
-0.04
-0.03
-0.015
-0.02
-0.03
-0.035
-0.035
-0.02
-0.02
-0.03
-0.04
-0.05
-0.04
-0.03
-0.015
-0.015
-0.02
-0.005
-0.01
-0.005
-0.005
-0.04
-0.07
-0.12
-0.14
-0.165
-0.18
-0.195
-0.225
-0.255
-0.25
-0.24
-0.245
-0.25
-0.255
-0.275
-0.27
-0.265
-0.255
-0.26
-0.265
-0.27
-0.27
-0.25
-0.245
-0.25
-0.25
-0.255
-0.26
-0.25
-0.245
-0.24
-0.245
-0.255
-0.245
-0.235
-0.225
-0.23
-0.24
-0.245
-0.245
-0.23
-0.235
-0.225
-0.23
-0.24
-0.225
-0.225
-0.225
-0.225
-0.23
-0.23
-0.22
-0.205
-0.195
-0.195
-0.21
-0.21
-0.21
-0.21
-0.21
-0.22
-0.24
-0.27
-0.29
-0.285
-0.28
-0.24
-0.155
-0.03
0.115
0.275
0.42
0.51
0.585
0.695
