Lead II
-0.075
-0.09
-0.115
-0.135
-0.13
-0.105
-0.085
-0.095
-0.135
-0.135
-0.135
-0.125
-0.115
-0.105
-0.11
-0.115
-0.125
-0.125
-0.12
-0.125
-0.14
-0.135
-0.125
-0.135
-0.13
-0.145
-0.15
-0.15
-0.15
-0.145
-0.125
-0.12
-0.13
-0.145
-0.155
-0.15
-0.14
-0.15
-0.155
-0.165
-0.17
-0.17
-0.165
-0.165
-0.165
-0.165
-0.155
-0.145
-0.145
-0.145
-0.175
-0.19
-0.195
-0.2
-0.17
-0.17
-0.175
-0.18
-0.18
-0.19
-0.175
-0.185
-0.19
-0.19
-0.185
-0.2
-0.19
-0.195
-0.215
-0.225
-0.225
-0.2
-0.195
-0.195
-0.2
-0.215
-0.23
-0.21
-0.2
-0.18
-0.195
-0.22
-0.215
-0.205
-0.2
-0.195
-0.2
-0.205
-0.21
-0.205
-0.2
-0.2
-0.225
-0.24
-0.23
-0.21
-0.18
-0.195
-0.215
-0.225
-0.25
-0.215
-0.195
-0.18
-0.195
-0.205
-0.22
-0.215
-0.215
-0.2
-0.205
-0.23
-0.215
-0.195
-0.205
-0.22
-0.225
-0.245
-0.225
-0.2
-0.185
-0.195
-0.21
-0.23
-0.23
-0.215
-0.2
-0.185
-0.185
-0.2
-0.215
-0.225
-0.225
-0.21
-0.215
-0.215
-0.225
-0.21
-0.21
-0.21
-0.22
-0.24
-0.21
-0.195
-0.2
-0.2
-0.21
-0.23
-0.22
-0.21
-0.17
-0.185
-0.195
-0.22
-0.23
-0.215
-0.19
-0.17
-0.18
-0.205
-0.23
-0.225
-0.2
-0.2
-0.205
-0.2
-0.2
-0.21
-0.205
-0.205
-0.205
-0.21
-0.205
-0.185
-0.175
-0.185
-0.205
-0.21
-0.21
-0.21
-0.185
-0.185
-0.19
-0.21
-0.22
-0.21
-0.18
-0.16
-0.17
-0.195
-0.205
-0.2
-0.195
-0.185
-0.2
-0.21
-0.21
-0.195
-0.175
-0.18
-0.195
-0.21
-0.21
-0.195
-0.18
-0.165
-0.18
-0.205
-0.2
-0.185
-0.17
-0.19
-0.19
-0.195
-0.2
-0.2
-0.175
-0.18
-0.175
-0.19
-0.18
-0.175
-0.175
-0.17
-0.185
-0.2
-0.19
-0.19
-0.18
-0.17
-0.17
-0.195
-0.195
-0.185
-0.165
-0.16
-0.17
-0.175
-0.17
-0.165
-0.155
-0.16
-0.145
-0.155
-0.14
-0.12
-0.105
-0.11
-0.11
-0.125
-0.12
-0.085
-0.075
-0.09
-0.105
-0.125
-0.135
-0.125
-0.105
-0.115
-0.135
-0.15
-0.175
-0.155
-0.15
-0.135
-0.125
-0.135
-0.145
-0.135
-0.165
-0.175
-0.185
-0.215
-0.225
-0.2
-0.185
-0.17
-0.17
-0.205
-0.205
-0.215
-0.18
-0.175
-0.18
-0.19
-0.195
-0.195
-0.185
-0.165
-0.16
-0.16
-0.15
-0.14
-0.13
-0.125
-0.14
-0.14
-0.145
-0.14
-0.125
-0.11
-0.045
0.065
0.185
0.315
0.43
0.55
0.655
0.77
0.92
1.07
1.25
1.42
1.625
1.845
2.065
2.27
2.41
2.475
2.46
2.39
2.24
1.935
1.5
1.055
0.715
0.52
0.455
0.425
0.425
0.395
0.365
0.335
0.295
0.255
0.205
0.17
0.115
0.07
0.06
0.04
0.015
-0.03
-0.07
-0.125
-0.155
-0.17
-0.175
-0.195
-0.24
-0.305
-0.305
-0.305
-0.3
-0.335
-0.345
-0.345
-0.355
-0.35
-0.35
-0.355
-0.37
-0.385
-0.395
-0.38
-0.365
-0.38
-0.41
-0.41
-0.39
-0.38
-0.375
-0.38
-0.4
-0.43
-0.43
-0.42
-0.415
-0.41
-0.42
-0.435
-0.445
-0.445
-0.455
-0.45
-0.455
-0.47
-0.475
-0.46
-0.46
-0.475
-0.49
-0.515
-0.53
-0.525
-0.51
-0.5
-0.54
-0.55
-0.565
-0.555
-0.545
-0.545
-0.57
-0.59
-0.61
-0.595
-0.6
-0.605
-0.605
-0.62
-0.62
-0.625
-0.62
-0.615
-0.63
-0.64
-0.65
-0.61
-0.6
-0.575
-0.58
-0.585
-0.575
-0.545
-0.52
-0.485
-0.48
-0.455
-0.445
-0.42
-0.375
-0.335
-0.32
-0.295
-0.265
-0.235
-0.205
-0.195
-0.19
-0.18
-0.155
-0.12
-0.085
-0.08
-0.09
-0.095
-0.085
-0.075
-0.07
-0.045
-0.07
-0.09
-0.09
-0.085
-0.065
-0.075
-0.07
-0.09
-0.075
-0.07
-0.07
-0.095
-0.095
-0.095
-0.12
-0.11
-0.09
-0.095
-0.11
-0.12
-0.11
-0.105
-0.085
-0.09
-0.12
-0.12
-0.13
-0.135
-0.11
-0.105
-0.12
-0.125
-0.12
-0.115
-0.11
-0.115
-0.125
-0.13
-0.115
-0.095
-0.09
-0.1
-0.11
-0.13
-0.125
-0.12
-0.105
-0.07
-0.105
-0.105
-0.115
-0.11
-0.09
-0.065
-0.08
-0.11
-0.105
-0.105
-0.085
-0.075
-0.09
-0.1
-0.1
-0.09
-0.095
-0.09
-0.11
-0.11
-0.115
-0.105
-0.1
-0.105
-0.135
-0.13
-0.115
-0.105
-0.095
-0.105
-0.13
-0.14
-0.14
-0.115
-0.115
-0.115
-0.115
-0.135
-0.16
-0.14
-0.135
-0.135
-0.13
-0.14
-0.145
-0.135
-0.135
-0.12
-0.145
-0.14
-0.135
-0.125
-0.105
-0.095
-0.1
-0.105
-0.09
-0.07
-0.055
-0.055
-0.09
-0.105
-0.105
-0.09
-0.05
-0.05
-0.055
-0.07
-0.07
-0.07
-0.07
-0.07
-0.085
-0.105
-0.11
-0.1
-0.09
-0.1
-0.105
-0.13
-0.13
-0.125
-0.125
-0.135
-0.145
-0.18
-0.18
-0.165
-0.155
-0.18
-0.17
-0.175
-0.165
-0.15
-0.125
-0.135
-0.15
-0.175
-0.175
-0.165
-0.13
-0.13
-0.125
-0.135
-0.145
-0.135
-0.125
-0.135
-0.14
-0.13
-0.135
-0.12
-0.105
-0.105
-0.1
-0.065
0.03
0.17
0.325
0.43
0.52
0.625
0.755
0.935
1.155
1.375
1.6
1.81
2.025
2.18
2.285
2.325
2.33
2.255
2.08
1.75
1.355
0.985
0.73
0.575
0.51
0.485
0.49
0.465
0.42
0.37
0.325
0.29
0.245
0.23
0.185
0.14
0.07
0.045
0.03
0.0
-0.045
-0.09
-0.14
-0.175
-0.205
-0.23
-0.26
-0.285
-0.305
-0.315
-0.325
-0.345
-0.34
-0.35
-0.38
-0.37
-0.335
-0.355
-0.36
-0.38
-0.385
-0.395
-0.37
-0.38
-0.38
-0.4
-0.42
-0.425
-0.415
-0.42
-0.435
-0.43
-0.445
-0.43
-0.415
-0.425
-0.455
-0.46
-0.46
-0.45
-0.44
-0.44
-0.47
-0.51
-0.52
-0.505
-0.495
-0.495
-0.515
-0.555
-0.57
-0.57
-0.575
-0.575
-0.575
-0.595
-0.595
-0.58
-0.575
-0.59
-0.61
-0.635
-0.64
-0.64
-0.625
-0.64
-0.655
-0.65
-0.67
-0.675
-0.645
-0.635
-0.64
-0.645
-0.655
-0.64
-0.62
-0.59
-0.59
-0.58
-0.545
-0.51
-0.475
-0.455
-0.45
-0.435
-0.4
-0.365
-0.32
-0.3
-0.29
-0.285
-0.27
-0.235
-0.195
-0.175
-0.175
-0.195
-0.205
-0.19
-0.17
-0.16
-0.16
-0.16
-0.145
-0.125
-0.13
-0.13
-0.155
-0.17
-0.16
-0.135
-0.115
-0.115
-0.15
-0.145
-0.16
-0.155
-0.145
-0.145
-0.15
-0.17
-0.17
-0.16
-0.16
-0.145
-0.16
-0.165
-0.17
-0.17
-0.155
-0.16
-0.175
-0.2
-0.2
-0.195
-0.17
-0.15
-0.17
-0.18
-0.205
-0.2
-0.18
-0.17
-0.175
-0.175
-0.195
-0.19
-0.185
-0.19
-0.195
-0.205
-0.215
-0.205
-0.205
-0.22
-0.225
-0.23
-0.225
-0.21
-0.195
-0.19
-0.19
-0.22
-0.21
-0.205
-0.2
-0.19
-0.19
-0.195
-0.205
-0.2
-0.18
-0.17
-0.175
-0.175
-0.18
-0.175
-0.15
-0.155
-0.16
-0.19
-0.2
-0.185
-0.165
-0.155
-0.15
-0.185
-0.205
-0.19
-0.175
-0.165
-0.18
-0.175
-0.175
-0.18
-0.16
-0.155
-0.17
-0.165
-0.165
-0.165
-0.15
-0.15
-0.165
-0.17
-0.17
-0.16
-0.145
-0.12
-0.115
-0.11
-0.12
-0.1
-0.115
-0.11
-0.11
-0.11
-0.105
-0.08
-0.06
-0.065
-0.085
-0.115
-0.1
-0.085
-0.065
-0.075
-0.09
-0.105
-0.125
-0.1
-0.095
-0.105
-0.095
-0.115
-0.135
-0.135
-0.145
-0.15
-0.16
-0.16
-0.17
-0.15
-0.14
-0.14
-0.17
-0.19
-0.185
-0.17
-0.14
-0.14
-0.14
-0.165
-0.19
-0.18
-0.165
-0.15
-0.155
-0.17
-0.155
-0.15
-0.135
-0.13
-0.125
-0.14
-0.14
-0.13
-0.13
-0.135
-0.14
-0.14
-0.145
-0.135
-0.09
-0.06
0.02
0.11
0.2
0.32
0.41
0.49
0.565
0.645
0.755
0.9
1.105
1.33
1.555
1.78
2.01
2.22
2.33
2.36
2.325
2.195
1.935
1.555
1.16
0.835
0.595
0.45
0.395
0.39
0.38
0.37
0.355
0.315
0.295
0.245
0.19
0.135
0.085
0.025
0.02
0.015
0.005
-0.025
-0.065
-0.125
-0.14
-0.155
-0.16
-0.18
-0.22
-0.24
-0.27
-0.27
-0.285
-0.31
-0.345
-0.36
-0.36
-0.36
-0.345
-0.345
-0.36
-0.38
-0.38
-0.36
-0.34
-0.365
-0.36
-0.39
-0.395
-0.39
-0.385
-0.4
-0.395
-0.405
-0.415
-0.395
-0.375
-0.385
-0.4
-0.435
-0.445
-0.435
-0.415
-0.43
-0.455
-0.46
-0.465
-0.47
-0.46
-0.47
-0.48
-0.5
-0.52
-0.525
-0.51
-0.515
-0.54
-0.555
-0.56
-0.545
-0.54
-0.555
-0.585
-0.61
-0.625
-0.615
-0.61
-0.63
-0.63
-0.65
-0.66
-0.65
-0.635
-0.63
-0.64
-0.64
-0.64
-0.62
-0.615
-0.62
-0.625
-0.625
-0.61
-0.57
-0.55
-0.525
-0.535
-0.515
-0.505
-0.46
-0.42
-0.4
-0.4
-0.38
-0.375
-0.36
-0.315
-0.27
-0.265
-0.24
-0.245
-0.22
-0.195
-0.17
-0.185
-0.17
-0.155
-0.135
-0.125
-0.11
-0.125
-0.135
-0.13
-0.12
-0.105
-0.1
-0.1
-0.12
-0.12
-0.13
-0.125
-0.12
-0.125
-0.13
-0.14
-0.13
-0.115
-0.13
-0.135
-0.14
-0.14
-0.13
-0.11
-0.11
-0.125
-0.15
-0.16
-0.135
-0.135
-0.125
-0.15
-0.15
-0.145
-0.14
-0.135
-0.13
-0.135
-0.15
-0.165
-0.16
-0.145
-0.135
-0.135
-0.14
-0.145
-0.135
-0.125
-0.135
-0.15
-0.155
-0.15
-0.13
-0.12
-0.12
-0.145
-0.155
-0.155
-0.14
-0.115
-0.105
-0.12
-0.14
-0.14
-0.13
-0.13
-0.125
-0.115
-0.145
-0.145
-0.145
-0.145
-0.13
-0.14
-0.155
-0.16
-0.16
-0.125
-0.145
-0.155
-0.155
-0.165
-0.15
-0.125
-0.13
-0.14
-0.145
-0.15
-0.13
-0.125
-0.105
-0.125
-0.145
-0.125
-0.105
-0.085
-0.065
-0.08
-0.085
-0.075
-0.07
-0.045
-0.045
-0.06
-0.065
-0.065
-0.06
-0.045
-0.055
-0.06
-0.06
-0.07
-0.065
-0.05
-0.055
-0.065
-0.07
-0.08
-0.08
-0.085
-0.09
-0.11
-0.12
-0.13
-0.13
-0.14
-0.14
-0.14
-0.15
-0.145
-0.125
-0.11
-0.11
-0.12
-0.155
-0.155
-0.165
-0.135
-0.125
-0.135
-0.15
-0.165
-0.155
-0.15
-0.13
-0.145
-0.155
-0.135
-0.135
-0.13
-0.145
-0.15
-0.135
-0.08
0.065
0.22
0.37
0.485
0.6
0.765
0.98
1.245
1.505
1.765
2.0
2.185
2.31
2.36
2.345
2.26
2.05
1.66
1.17
0.78
0.54
0.45
0.405
0.375
0.35
0.33
0.29
0.225
0.175
0.11
0.075
0.065
0.05
0.01
-0.035
-0.075
-0.075
-0.115
-0.155
-0.205
-0.24
-0.265
-0.285
-0.295
-0.32
-0.335
-0.345
-0.355
-0.36
-0.34
-0.325
-0.34
-0.36
-0.375
-0.375
-0.37
-0.36
-0.37
-0.385
-0.41
-0.41
-0.395
-0.4
-0.4
-0.415
-0.4
-0.415
-0.42
-0.42
-0.43
-0.46
-0.465
-0.45
-0.445
-0.45
-0.46
-0.485
-0.48
-0.475
-0.475
-0.495
-0.5
-0.54
-0.535
-0.525
-0.505
-0.51
-0.525
-0.55
-0.565
-0.575
-0.57
-0.565
-0.57
-0.585
-0.595
-0.595
-0.59
-0.585
-0.59
-0.6
-0.595
-0.575
-0.565
-0.56
-0.56
-0.545
-0.525
-0.495
-0.45
-0.435
-0.43
-0.41
-0.4
-0.36
-0.315
-0.285
-0.265
-0.26
-0.25
-0.21
-0.175
-0.16
-0.165
-0.165
-0.17
-0.16
-0.145
-0.145
-0.145
-0.155
-0.16
-0.155
-0.135
-0.135
-0.14
-0.15
-0.16
-0.15
-0.15
-0.135
-0.14
-0.15
-0.145
-0.14
-0.13
-0.145
-0.15
-0.165
-0.17
-0.145
-0.135
-0.125
-0.15
-0.16
-0.165
-0.16
-0.145
-0.145
-0.145
-0.17
-0.17
-0.17
-0.165
-0.16
-0.165
-0.17
-0.17
-0.165
-0.155
-0.18
-0.17
-0.185
-0.18
-0.17
-0.165
-0.17
-0.18
-0.195
-0.19
-0.175
-0.16
-0.145
-0.155
-0.17
-0.185
-0.155
-0.145
-0.13
-0.145
-0.175
-0.195
-0.2
-0.165
-0.155
-0.155
-0.165
-0.17
-0.155
-0.15
-0.15
-0.145
-0.16
-0.16
-0.165
-0.155
-0.155
-0.165
-0.175
-0.185
-0.165
-0.155
-0.165
-0.175
-0.19
-0.175
-0.16
-0.13
-0.15
-0.16
-0.185
-0.185
-0.165
-0.14
-0.125
-0.14
-0.145
-0.145
-0.115
-0.09
-0.085
-0.09
-0.1
-0.115
-0.11
-0.095
-0.095
-0.09
-0.095
-0.1
-0.09
-0.09
-0.07
-0.08
-0.095
-0.115
-0.1
-0.11
-0.105
-0.12
-0.125
-0.14
-0.135
-0.145
-0.15
-0.165
-0.19
-0.195
-0.17
-0.175
-0.165
-0.175
-0.185
-0.195
-0.19
-0.19
-0.185
-0.18
-0.195
-0.18
-0.16
-0.155
-0.155
-0.165
-0.19
-0.185
-0.16
-0.15
-0.13
-0.08
0.015
0.15
0.27
0.365
0.46
0.575
0.745
0.99
1.265
1.55
1.82
2.025
2.15
2.215
2.145
1.905
1.515
1.085
0.76
0.585
0.49
0.435
0.42
0.405
0.355
0.29
0.235
0.195
0.15
0.095
0.035
-0.03
-0.06
-0.085
-0.11
-0.145
-0.185
-0.22
-0.26
-0.29
-0.325
-0.34
-0.36
-0.365
-0.375
-0.38
-0.385
-0.385
-0.39
-0.4
-0.415
-0.39
-0.39
-0.405
-0.43
-0.44
-0.42
-0.405
-0.42
-0.44
-0.465
-0.465
-0.445
-0.435
-0.455
-0.475
-0.5
-0.505
-0.505
-0.5
-0.48
-0.495
-0.515
-0.54
-0.55
-0.565
-0.56
-0.57
-0.575
-0.59
-0.595
-0.605
-0.61
-0.63
-0.655
-0.665
-0.68
-0.675
-0.675
-0.68
-0.69
-0.695
-0.68
-0.67
-0.68
-0.68
-0.675
-0.67
-0.66
-0.63
-0.615
-0.605
-0.605
-0.59
-0.555
-0.515
-0.495
-0.48
-0.475
-0.445
-0.42
-0.355
-0.32
-0.295
-0.3
-0.27
-0.245
-0.225
-0.21
-0.2
-0.205
-0.2
-0.195
-0.185
-0.16
-0.17
-0.175
-0.16
-0.155
-0.145
-0.15
-0.145
-0.155
-0.165
-0.155
-0.135
-0.13
-0.15
-0.185
-0.18
-0.16
-0.14
-0.1
-0.12
-0.155
-0.17
-0.17
-0.15
-0.155
-0.145
-0.16
-0.155
-0.175
-0.155
-0.16
-0.16
-0.185
-0.185
-0.185
-0.18
-0.185
-0.195
-0.2
-0.2
-0.19
-0.17
-0.17
-0.19
-0.2
-0.2
-0.19
-0.175
-0.185
-0.195
-0.215
-0.19
-0.18
-0.165
-0.17
-0.175
-0.18
-0.2
-0.205
-0.175
-0.17
-0.175
-0.185
-0.18
-0.175
-0.16
-0.155
-0.155
-0.17
-0.195
-0.19
-0.19
-0.19
-0.185
-0.21
-0.205
-0.2
-0.17
-0.165
-0.175
-0.185
-0.195
-0.18
-0.175
-0.175
-0.17
-0.17
-0.17
-0.165
-0.14
-0.14
-0.15
-0.16
-0.14
-0.115
-0.095
-0.08
-0.095
-0.12
-0.14
-0.125
-0.095
-0.09
-0.1
-0.1
-0.1
-0.08
-0.07
-0.09
-0.105
-0.1
-0.115
-0.095
-0.095
-0.105
-0.115
-0.13
-0.14
-0.14
-0.145
-0.155
-0.175
-0.185
-0.2
-0.18
-0.165
-0.155
-0.16
-0.165
-0.18
-0.18
-0.16
-0.14
-0.17
-0.195
-0.185
-0.185
-0.165
-0.155
-0.16
-0.18
-0.18
-0.17
-0.17
-0.155
-0.17
-0.165
-0.165
-0.15
-0.115
-0.035
0.07
0.2
0.32
0.455
0.6
0.75
0.895
1.075
1.285
1.48
1.64
1.775
1.94
2.125
2.25
2.26
2.195
2.03
1.68
1.26
0.85
0.575
0.41
0.335
0.315
0.295
0.265
0.23
0.195
0.18
0.14
0.095
0.055
0.03
0.005
-0.01
-0.04
-0.085
-0.135
-0.15
-0.165
-0.195
-0.24
-0.275
-0.32
-0.325
-0.33
-0.325
-0.32
-0.34
-0.345
-0.355
-0.37
-0.36
-0.355
-0.37
-0.39
-0.395
-0.385
-0.375
-0.385
-0.4
-0.415
-0.405
-0.39
-0.395
-0.41
-0.405
-0.43
-0.42
-0.395
-0.395
-0.42
-0.445
-0.45
-0.455
-0.445
-0.435
-0.46
-0.465
-0.47
-0.48
-0.49
-0.495
-0.515
-0.51
-0.52
-0.53
-0.52
-0.52
-0.545
-0.55
-0.56
-0.56
-0.545
-0.545
-0.58
-0.59
-0.605
-0.615
-0.595
-0.595
-0.595
-0.615
-0.625
-0.62
-0.61
-0.62
-0.605
-0.605
-0.605
-0.565
-0.57
-0.54
-0.545
-0.53
-0.515
-0.48
-0.435
-0.405
-0.4
-0.43
-0.415
-0.365
-0.345
-0.31
-0.285
-0.29
-0.265
-0.26
-0.215
-0.2
-0.19
-0.195
-0.185
-0.18
-0.175
-0.165
-0.17
-0.175
-0.175
-0.16
-0.135
-0.14
-0.145
-0.16
-0.165
-0.155
-0.16
-0.145
-0.15
-0.17
-0.185
-0.18
-0.17
-0.17
-0.175
-0.18
-0.195
-0.18
-0.175
-0.165
-0.19
-0.195
-0.2
-0.19
-0.175
-0.175
-0.195
-0.225
-0.22
-0.205
-0.185
-0.17
-0.175
-0.22
-0.23
-0.2
-0.185
-0.16
-0.175
-0.19
-0.195
-0.195
-0.185
-0.18
-0.19
-0.2
-0.205
-0.205
-0.2
-0.18
-0.18
-0.18
-0.19
-0.195
-0.2
-0.185
-0.18
-0.185
-0.19
-0.185
-0.17
-0.165
-0.185
-0.195
-0.21
-0.2
-0.165
-0.165
-0.19
-0.205
-0.2
-0.19
-0.16
-0.15
-0.155
-0.165
-0.185
-0.185
-0.19
-0.185
-0.18
-0.185
-0.195
-0.19
-0.19
-0.18
-0.2
-0.195
-0.2
-0.185
-0.175
-0.17
-0.155
-0.15
-0.135
-0.125
-0.12
-0.12
-0.12
-0.13
-0.14
-0.11
-0.08
-0.085
-0.095
-0.115
-0.125
-0.13
-0.12
-0.105
-0.125
-0.12
-0.145
-0.135
-0.125
-0.14
-0.165
-0.18
-0.205
-0.21
-0.195
-0.19
-0.2
-0.22
-0.22
-0.215
-0.195
-0.185
-0.2
-0.22
-0.22
-0.225
-0.215
-0.215
-0.215
-0.225
-0.23
-0.215
-0.205
-0.205
-0.22
-0.23
-0.22
-0.205
-0.185
-0.2
-0.205
-0.19
-0.115
0.015
0.17
0.295
0.395
0.49
0.625
0.815
1.05
1.295
1.535
1.745
1.94
2.1
2.18
2.215
2.18
2.07
1.835
1.475
1.1
0.775
0.57
0.445
0.38
0.34
0.335
0.32
0.26
0.195
0.16
0.115
0.085
0.06
0.015
-0.03
-0.07
-0.105
-0.125
-0.165
-0.21
-0.27
-0.3
-0.32
-0.32
-0.34
-0.37
-0.385
-0.415
-0.4
-0.41
-0.405
-0.405
-0.43
-0.425
-0.435
-0.42
-0.425
-0.43
-0.455
-0.455
-0.435
-0.435
-0.44
-0.455
-0.465
-0.48
-0.475
-0.455
-0.45
-0.46
-0.47
-0.475
-0.475
-0.485
-0.475
-0.5
-0.5
-0.51
-0.495
-0.5
-0.51
-0.52
-0.535
-0.545
-0.535
-0.525
-0.53
-0.565
-0.575
-0.595
-0.59
-0.57
-0.575
-0.57
-0.59
-0.6
-0.61
-0.595
-0.605
-0.61
-0.635
-0.62
-0.615
-0.63
-0.625
-0.625
-0.645
-0.625
-0.615
-0.59
-0.57
-0.585
-0.6
-0.595
-0.585
-0.53
-0.5
-0.49
-0.48
-0.465
-0.455
-0.42
-0.39
-0.365
-0.36
-0.345
-0.315
-0.295
-0.275
-0.275
-0.285
-0.275
-0.245
-0.225
-0.195
-0.21
-0.2
-0.195
-0.18
-0.185
-0.16
-0.17
-0.18
-0.19
-0.185
-0.155
-0.16
-0.145
-0.155
-0.15
-0.13
-0.095
-0.075
-0.045
0.01
0.095
0.22
0.35
0.485
0.575
0.69
0.79
0.905
1.01
1.11
1.16
1.21
1.255
1.305
1.36
1.38
1.32
1.19
0.94
0.59
0.175
-0.24
-0.625
-0.935
-1.145
-1.345
-1.525
-1.685
-1.825
-1.9
-1.95
-1.945
-1.96
-1.98
-2.015
-2.045
-2.065
-2.075
-2.065
-2.055
-2.065
-2.07
-2.01
-1.91
-1.785
-1.655
-1.505
-1.365
-1.23
-1.095
-0.995
-0.91
-0.865
-0.84
-0.82
-0.78
-0.73
-0.71
-0.69
-0.665
-0.66
-0.61
-0.56
-0.49
-0.425
-0.39
-0.34
-0.305
-0.285
-0.235
-0.205
-0.165
-0.105
-0.04
-0.005
0.03
0.02
0.01
0.045
0.085
0.105
0.15
0.155
0.165
0.19
0.225
0.285
0.32
0.35
0.37
0.38
0.405
0.44
0.465
0.485
0.52
0.535
0.585
0.625
0.69
0.7
0.72
0.755
0.79
0.865
0.9
0.925
0.945
0.96
1.005
1.05
1.08
1.09
1.09
1.09
1.095
1.135
1.175
1.185
1.195
1.2
1.205
1.225
1.235
1.215
1.22
1.205
1.205
1.21
1.195
1.17
1.155
1.135
1.115
1.095
1.09
1.045
0.985
0.935
0.885
0.865
0.855
0.79
0.735
0.68
0.65
0.63
0.6
0.55
0.505
0.465
0.445
0.43
0.385
0.335
0.29
0.24
0.205
0.18
0.16
0.115
0.045
0.015
0.005
-0.01
-0.035
-0.075
-0.1
-0.115
-0.115
-0.105
-0.12
-0.14
-0.175
-0.2
-0.19
-0.19
-0.185
-0.21
-0.24
-0.26
-0.255
-0.245
-0.245
-0.255
-0.265
-0.29
-0.285
-0.27
-0.275
-0.27
-0.28
-0.27
-0.275
-0.275
-0.275
-0.275
-0.3
-0.3
-0.29
-0.285
-0.29
-0.305
-0.32
-0.33
-0.315
-0.31
-0.295
-0.305
-0.315
-0.35
-0.365
-0.36
-0.355
-0.355
-0.35
-0.35
-0.345
-0.335
-0.315
-0.34
-0.365
-0.37
-0.37
-0.36
-0.345
-0.34
-0.355
-0.385
-0.38
-0.355
-0.355
-0.35
-0.365
-0.39
-0.375
-0.37
-0.345
-0.36
-0.4
-0.39
-0.375
-0.345
-0.35
-0.38
-0.415
-0.415
-0.39
-0.375
-0.375
-0.385
-0.395
-0.4
-0.39
-0.38
-0.37
-0.385
-0.38
-0.38
-0.37
-0.365
-0.37
-0.385
-0.405
-0.415
-0.385
-0.37
-0.36
-0.375
-0.4
-0.4
-0.385
-0.365
-0.36
-0.37
-0.395
-0.405
-0.4
-0.385
-0.375
-0.375
-0.39
-0.39
-0.38
-0.365
-0.385
-0.39
-0.395
-0.385
-0.385
-0.36
-0.355
-0.37
-0.405
-0.41
-0.4
-0.39
-0.385
-0.37
-0.385
-0.39
-0.395
-0.385
-0.37
-0.375
-0.38
-0.405
-0.395
-0.38
-0.36
-0.35
-0.36
-0.375
-0.37
-0.365
-0.35
-0.36
-0.375
-0.375
-0.365
-0.36
-0.37
-0.36
-0.37
-0.37
-0.36
-0.36
-0.34
-0.36
-0.38
-0.385
-0.38
-0.355
-0.335
-0.35
-0.365
-0.37
-0.37
-0.36
-0.345
-0.37
-0.375
-0.38
-0.365
-0.345
-0.33
-0.345
-0.355
-0.37
-0.36
-0.35
-0.35
-0.345
-0.36
-0.37
-0.36
-0.34
-0.315
-0.325
-0.33
-0.33
-0.325
-0.31
-0.32
-0.33
-0.35
-0.355
-0.34
-0.32
-0.315
-0.335
-0.35
-0.365
-0.355
-0.345
-0.325
-0.33
-0.335
-0.36
-0.36
-0.35
-0.34
-0.36
-0.345
-0.34
-0.335
-0.32
-0.32
-0.335
-0.345
-0.365
-0.345
-0.32
-0.315
-0.315
-0.325
-0.345
-0.35
-0.32
-0.295
-0.29
-0.315
-0.34
-0.33
-0.325
-0.325
-0.31
-0.33
-0.33
-0.32
-0.315
-0.3
-0.305
-0.3
-0.295
-0.275
-0.25
-0.25
-0.265
-0.27
-0.27
-0.27
-0.26
-0.24
-0.24
-0.255
-0.27
-0.255
-0.235
-0.225
-0.205
-0.225
-0.245
-0.235
-0.22
-0.205
-0.23
-0.245
-0.25
-0.245
-0.225
-0.23
-0.25
-0.275
-0.285
-0.285
-0.285
-0.29
-0.305
-0.32
-0.33
-0.32
-0.295
-0.29
-0.285
-0.305
-0.335
-0.32
-0.31
-0.3
-0.305
-0.305
-0.32
-0.315
-0.3
-0.295
-0.31
-0.3
-0.31
-0.305
-0.315
-0.315
-0.275
-0.215
-0.09
0.03
0.12
0.165
0.24
0.325
0.465
0.665
0.885
1.14
1.38
1.6
1.81
1.995
2.105
2.135
2.08
1.945
1.685
1.295
0.895
0.555
0.34
0.19
0.14
0.13
0.15
0.125
0.09
0.03
-0.025
-0.045
-0.07
-0.085
-0.13
-0.15
-0.18
-0.195
-0.22
-0.215
-0.23
-0.25
-0.285
-0.305
-0.315
-0.365
-0.395
-0.42
-0.445
-0.46
-0.455
-0.45
-0.47
-0.485
-0.49
-0.49
-0.475
-0.465
-0.48
-0.485
-0.5
-0.51
-0.51
-0.49
-0.5
-0.505
-0.515
-0.505
-0.505
-0.505
-0.515
-0.53
-0.535
-0.53
-0.51
-0.51
-0.55
-0.545
-0.565
-0.56
-0.535
-0.52
-0.52
-0.545
-0.555
-0.565
-0.56
-0.55
-0.555
-0.585
-0.585
-0.595
-0.58
-0.585
-0.615
-0.62
-0.625
-0.605
-0.595
-0.595
-0.615
-0.635
-0.655
-0.655
-0.64
-0.635
-0.645
-0.655
-0.685
-0.675
-0.67
-0.655
-0.655
-0.66
-0.655
-0.66
-0.64
-0.63
-0.63
-0.63
-0.61
-0.585
-0.565
-0.545
-0.535
-0.53
-0.515
-0.48
-0.44
-0.395
-0.375
-0.365
-0.36
-0.34
-0.305
-0.265
-0.24
-0.23
-0.23
-0.21
-0.205
-0.18
-0.19
-0.185
-0.185
-0.18
-0.17
-0.165
-0.175
-0.18
-0.195
-0.185
-0.165
-0.16
-0.18
-0.205
-0.225
-0.215
-0.195
-0.19
-0.185
-0.19
-0.21
-0.2
-0.21
-0.2
-0.21
-0.215
-0.235
-0.215
-0.2
-0.22
-0.215
-0.225
-0.245
-0.225
-0.205
-0.195
-0.225
-0.235
-0.23
-0.24
-0.22
-0.215
-0.205
-0.215
-0.22
-0.23
-0.21
-0.2
-0.195
-0.2
-0.21
-0.195
-0.19
-0.2
-0.21
-0.22
-0.225
-0.22
-0.185
-0.175
-0.18
-0.2
-0.21
-0.22
-0.205
-0.2
-0.2
-0.23
-0.215
-0.22
-0.22
-0.21
-0.21
-0.22
-0.23
-0.22
-0.205
-0.2
-0.22
-0.245
-0.25
-0.23
-0.22
-0.22
-0.235
-0.255
-0.265
-0.25
-0.235
-0.22
-0.225
-0.26
-0.265
-0.26
-0.255
-0.235
-0.26
-0.26
-0.245
-0.235
-0.22
-0.2
-0.19
-0.19
-0.195
-0.175
-0.165
-0.17
-0.175
-0.2
-0.2
-0.195
-0.145
-0.125
-0.13
-0.135
-0.14
-0.15
-0.17
-0.175
-0.18
-0.19
-0.175
-0.185
-0.175
-0.175
-0.205
-0.245
-0.23
-0.24
-0.235
-0.25
-0.275
-0.315
-0.315
-0.305
-0.285
-0.29
-0.265
-0.285
-0.295
-0.31
-0.3
-0.29
-0.3
-0.3
-0.325
-0.315
-0.31
-0.27
-0.275
-0.285
-0.3
-0.295
-0.27
-0.275
-0.29
-0.295
-0.315
-0.295
-0.265
-0.2
-0.105
-0.005
0.1
0.2
0.31
0.42
0.555
0.68
0.84
1.01
1.155
1.285
1.415
1.59
1.76
1.88
1.895
1.82
1.605
1.25
0.895
0.62
0.43
0.345
0.28
0.255
0.26
0.26
0.255
0.225
0.185
0.115
0.06
0.01
-0.025
-0.035
-0.095
-0.16
-0.21
-0.255
-0.265
-0.29
-0.335
-0.385
-0.43
-0.445
-0.46
-0.46
-0.465
-0.485
-0.5
-0.5
-0.485
-0.485
-0.5
-0.525
-0.515
-0.515
-0.505
-0.505
-0.52
-0.55
-0.56
-0.555
-0.535
-0.535
-0.54
-0.55
-0.57
-0.56
-0.56
-0.56
-0.58
-0.6
-0.605
-0.595
-0.595
-0.595
-0.595
-0.61
-0.64
-0.655
-0.65
-0.64
-0.64
-0.645
-0.67
-0.67
-0.68
-0.68
-0.695
-0.72
-0.72
-0.72
-0.725
-0.74
-0.73
-0.74
-0.745
-0.755
-0.75
-0.73
-0.725
-0.74
-0.745
-0.735
-0.715
-0.7
-0.68
-0.68
-0.675
-0.665
-0.625
-0.59
-0.57
-0.55
-0.52
-0.5
-0.475
-0.445
-0.425
-0.405
-0.405
-0.385
-0.36
-0.345
-0.345
-0.335
-0.32
-0.28
-0.255
-0.255
-0.255
-0.26
-0.26
-0.26
-0.26
-0.23
-0.245
-0.245
-0.25
-0.25
-0.245
-0.245
-0.25
-0.25
-0.265
-0.265
-0.265
-0.26
-0.26
-0.25
-0.26
-0.275
-0.27
-0.28
-0.28
-0.295
-0.285
-0.26
-0.245
-0.25
-0.255
-0.295
-0.3
-0.28
-0.255
-0.265
-0.27
-0.315
-0.32
-0.315
-0.285
-0.255
-0.24
-0.255
-0.26
-0.27
-0.27
-0.265
-0.275
-0.285
-0.305
-0.305
-0.29
-0.265
-0.28
-0.27
-0.29
-0.28
-0.26
-0.28
-0.3
-0.31
-0.29
-0.285
-0.26
-0.25
-0.26
-0.275
-0.29
-0.29
-0.275
-0.25
-0.255
-0.275
-0.28
-0.285
-0.275
-0.255
-0.255
-0.26
-0.285
-0.29
-0.275
-0.25
-0.24
-0.25
-0.25
-0.23
-0.215
-0.2
-0.215
-0.215
-0.225
-0.205
-0.185
-0.18
-0.2
-0.2
-0.195
-0.175
-0.17
-0.165
-0.165
-0.19
-0.2
-0.21
-0.195
-0.17
-0.165
-0.185
-0.2
-0.205
-0.21
-0.205
-0.215
-0.215
-0.215
-0.21
-0.215
-0.225
-0.23
-0.265
-0.295
-0.305
-0.28
-0.25
-0.245
-0.275
-0.285
-0.3
-0.27
-0.235
-0.24
-0.265
-0.285
-0.27
-0.265
-0.23
-0.235
-0.255
-0.275
-0.29
-0.27
-0.25
-0.23
-0.245
-0.21
-0.115
0.03
0.185
0.28
0.36
0.475
0.6
0.745
0.855
0.995
1.185
1.4
1.66
1.89
2.065
2.125
2.08
1.965
1.725
1.38
0.985
0.63
0.38
0.24
0.195
0.195
0.185
0.18
0.145
0.1
0.06
0.03
-0.005
-0.065
-0.1
-0.115
-0.115
-0.145
-0.175
-0.22
-0.27
-0.31
-0.31
-0.3
-0.305
-0.33
-0.36
-0.4
-0.42
-0.425
-0.395
-0.4
-0.42
-0.43
-0.44
-0.445
-0.445
-0.445
-0.455
-0.465
-0.45
-0.45
-0.455
-0.475
-0.49
-0.475
-0.47
-0.455
-0.445
-0.46
-0.5
-0.515
-0.5
-0.475
-0.465
-0.485
-0.505
-0.525
-0.535
-0.53
-0.51
-0.515
-0.53
-0.54
-0.565
-0.55
-0.54
-0.56
-0.57
-0.59
-0.575
-0.585
-0.605
-0.62
-0.64
-0.645
-0.635
-0.62
-0.61
-0.64
-0.66
-0.675
-0.66
-0.63
-0.61
-0.615
-0.63
-0.63
-0.63
-0.61
-0.585
-0.58
-0.585
-0.575
-0.565
-0.535
-0.51
-0.49
-0.47
-0.45
-0.43
-0.41
-0.395
-0.37
-0.355
-0.34
-0.31
-0.28
-0.245
-0.26
-0.255
-0.255
-0.245
-0.22
-0.18
-0.195
-0.23
-0.24
-0.245
-0.22
-0.195
-0.185
-0.2
-0.215
-0.21
-0.205
-0.195
-0.205
-0.22
-0.215
-0.22
-0.215
-0.205
-0.21
-0.235
-0.235
-0.22
-0.21
-0.21
-0.205
-0.24
-0.245
-0.22
-0.21
-0.195
-0.22
-0.22
-0.235
-0.225
-0.22
-0.19
-0.195
-0.2
-0.215
-0.21
-0.21
-0.2
-0.225
-0.22
-0.23
-0.215
-0.21
-0.195
-0.195
-0.22
-0.205
-0.195
-0.19
-0.18
-0.205
-0.22
-0.22
-0.215
-0.205
-0.195
-0.19
-0.215
-0.235
-0.23
-0.21
-0.2
-0.19
-0.205
-0.22
-0.225
-0.19
-0.195
-0.195
-0.21
-0.22
-0.215
-0.2
-0.2
-0.215
-0.235
-0.235
-0.21
-0.19
-0.17
-0.16
-0.16
-0.17
-0.155
-0.13
-0.125
-0.135
-0.135
-0.14
-0.155
-0.135
-0.125
-0.11
-0.125
-0.135
-0.13
-0.135
-0.145
-0.16
-0.165
-0.155
-0.15
-0.145
-0.14
-0.175
-0.19
-0.195
-0.185
-0.165
-0.155
-0.185
-0.23
-0.225
-0.235
-0.225
-0.205
-0.22
-0.235
-0.24
-0.23
-0.23
-0.245
-0.255
-0.25
-0.25
-0.24
-0.225
-0.22
-0.225
-0.235
-0.245
-0.25
-0.23
-0.21
-0.22
-0.24
-0.245
-0.26
-0.22
-0.2
-0.2
-0.16
-0.1
-0.005
0.11
0.185
0.28
0.4
0.535
0.7
0.89
1.13
1.365
1.61
1.835
2.02
2.115
2.125
2.05
1.895
1.64
1.335
1.02
0.73
0.51
0.355
0.27
0.245
