Lead II
0.02
0.025
0.08
0.13
0.135
0.135
0.125
0.12
0.125
0.155
0.2
0.265
0.345
0.435
0.535
0.63
0.73
0.8
0.855
0.915
1.035
1.23
1.405
1.5
1.52
1.49
1.47
1.48
1.505
1.505
1.42
1.32
1.24
1.26
1.33
1.4
1.42
1.365
1.29
1.22
1.23
1.305
1.37
1.375
1.3
1.17
1.0
0.79
0.56
0.235
-0.135
-0.435
-0.54
-0.48
-0.425
-0.41
-0.44
-0.47
-0.475
-0.51
-0.54
-0.56
-0.58
-0.6
-0.595
-0.585
-0.6
-0.61
-0.6
-0.575
-0.53
-0.54
-0.64
-0.75
-0.81
-0.78
-0.745
-0.735
-0.745
-0.77
-0.805
-0.795
-0.795
-0.795
-0.805
-0.83
-0.855
-0.84
-0.845
-0.845
-0.86
-0.895
-0.91
-0.925
-0.92
-0.915
-0.915
-0.935
-0.94
-0.93
-0.935
-0.935
-0.945
-0.96
-0.965
-0.935
-0.91
-0.87
-0.87
-0.87
-0.88
-0.855
-0.83
-0.8
-0.77
-0.77
-0.755
-0.73
-0.675
-0.625
-0.585
-0.575
-0.555
-0.52
-0.47
-0.44
-0.435
-0.425
-0.41
-0.37
-0.315
-0.275
-0.245
-0.265
-0.275
-0.305
-0.33
-0.32
-0.31
-0.3
-0.33
-0.33
-0.31
-0.29
-0.28
-0.31
-0.305
-0.295
-0.29
-0.28
-0.28
-0.32
-0.335
-0.325
-0.32
-0.295
-0.295
-0.305
-0.315
-0.3
-0.31
-0.29
-0.29
-0.295
-0.315
-0.295
-0.28
-0.28
-0.275
-0.295
-0.315
-0.305
-0.295
-0.27
-0.265
-0.255
-0.26
-0.26
-0.265
-0.245
-0.25
-0.24
-0.225
-0.235
-0.24
-0.255
-0.26
-0.25
-0.215
-0.19
-0.185
-0.215
-0.21
-0.215
-0.205
-0.185
-0.155
-0.085
-0.02
0.045
0.03
-0.045
-0.07
0.035
0.15
-0.005
-0.32
-0.485
-0.42
-0.28
-0.215
-0.245
-0.275
-0.28
-0.275
-0.25
-0.265
-0.3
-0.31
-0.295
-0.28
-0.265
-0.275
-0.285
-0.305
-0.295
-0.285
-0.3
-0.33
-0.335
-0.32
-0.295
-0.245
-0.215
-0.235
-0.295
-0.365
-0.345
-0.29
-0.17
-0.04
0.12
0.325
0.57
0.885
1.185
1.42
1.5
1.37
1.075
0.74
0.425
0.18
-0.01
-0.125
-0.195
-0.26
-0.295
-0.31
-0.325
-0.32
-0.305
-0.305
-0.295
-0.315
-0.315
-0.34
-0.325
-0.315
-0.31
-0.305
-0.315
-0.33
-0.335
-0.32
-0.305
-0.315
-0.32
-0.335
-0.325
-0.275
-0.225
-0.195
-0.215
-0.265
-0.34
-0.38
-0.395
-0.355
-0.345
-0.325
-0.3
-0.26
-0.255
-0.27
-0.285
-0.29
-0.27
-0.225
-0.19
-0.18
-0.2
-0.205
-0.185
-0.16
-0.14
-0.135
-0.15
-0.145
-0.145
-0.155
-0.155
-0.13
-0.075
-0.015
0.0
-0.01
0.0
0.03
0.055
0.06
0.095
0.125
0.135
0.14
0.17
0.2
0.215
0.185
0.12
0.07
0.06
0.08
0.115
0.14
0.165
0.14
0.09
0.0
-0.02
-0.015
-0.025
-0.055
-0.065
-0.085
-0.085
-0.075
-0.095
-0.18
-0.3
-0.33
-0.295
-0.235
-0.215
-0.245
-0.27
-0.295
-0.28
-0.26
-0.235
-0.235
-0.26
-0.275
-0.28
-0.29
-0.29
-0.28
-0.285
-0.32
-0.345
-0.35
-0.31
-0.28
-0.25
-0.23
-0.175
-0.155
-0.215
-0.365
-0.46
-0.48
-0.405
-0.315
-0.275
-0.25
-0.24
-0.265
-0.265
-0.28
-0.265
-0.255
-0.215
-0.185
-0.17
-0.17
-0.15
-0.115
-0.08
-0.07
-0.11
-0.185
-0.22
-0.215
-0.175
-0.11
-0.06
-0.005
-0.005
-0.08
-0.195
-0.28
-0.305
-0.285
-0.28
-0.265
-0.25
-0.2
-0.13
-0.13
-0.255
-0.4
-0.465
-0.425
-0.36
-0.315
-0.275
-0.26
-0.26
-0.305
-0.34
-0.36
-0.31
-0.27
-0.245
-0.195
-0.15
-0.145
-0.22
-0.35
-0.485
-0.54
-0.49
-0.38
-0.26
-0.18
-0.1
0.035
0.285
0.605
0.925
1.18
1.355
1.345
1.14
0.815
0.475
0.22
0.045
-0.07
-0.205
-0.33
-0.39
-0.38
-0.34
-0.325
-0.32
-0.325
-0.32
-0.335
-0.365
-0.385
-0.385
-0.38
-0.375
-0.36
-0.38
-0.405
-0.405
-0.375
-0.365
-0.35
-0.375
-0.375
-0.385
-0.385
-0.36
-0.36
-0.38
-0.395
-0.385
-0.37
-0.34
-0.35
-0.355
-0.355
-0.36
-0.33
-0.32
-0.31
-0.32
-0.315
-0.31
-0.29
-0.285
-0.28
-0.285
-0.27
-0.25
-0.225
-0.225
-0.22
-0.23
-0.23
-0.205
-0.17
-0.135
-0.12
-0.125
-0.14
-0.13
-0.1
-0.065
-0.055
-0.065
-0.065
-0.065
-0.05
-0.025
-0.02
-0.025
-0.025
0.005
0.04
0.035
-0.015
-0.065
-0.07
-0.06
-0.06
-0.085
-0.11
-0.16
-0.19
-0.2
-0.205
-0.205
-0.215
-0.25
-0.27
-0.29
-0.28
-0.275
-0.29
-0.32
-0.35
-0.355
-0.335
-0.34
-0.32
-0.33
-0.355
-0.335
-0.335
-0.32
-0.325
-0.33
-0.315
-0.31
-0.31
-0.29
-0.295
-0.305
-0.35
-0.35
-0.335
-0.31
-0.295
-0.305
-0.32
-0.31
-0.31
-0.295
-0.285
-0.305
-0.31
-0.305
-0.295
-0.285
-0.275
-0.275
-0.28
-0.27
-0.255
-0.235
-0.22
-0.225
-0.215
-0.18
-0.16
-0.135
-0.105
-0.12
-0.125
-0.125
-0.135
-0.115
-0.125
-0.145
-0.165
-0.175
-0.175
-0.175
-0.185
-0.225
-0.25
-0.245
-0.225
-0.21
-0.22
-0.28
-0.315
-0.325
-0.32
-0.295
-0.295
-0.295
-0.3
-0.295
-0.275
-0.235
-0.19
-0.165
-0.135
-0.09
-0.015
0.085
0.16
0.2
0.25
0.285
0.355
0.48
0.595
0.725
0.865
1.105
1.38
1.685
1.955
2.125
2.155
2.04
1.755
1.39
0.975
0.55
0.245
0.045
-0.095
-0.19
-0.235
-0.265
-0.265
-0.27
-0.3
-0.3
-0.335
-0.4
-0.43
-0.445
-0.42
-0.405
-0.41
-0.42
-0.435
-0.435
-0.43
-0.425
-0.43
-0.465
-0.47
-0.46
-0.435
-0.425
-0.42
-0.425
-0.445
-0.435
-0.435
-0.44
-0.445
-0.47
-0.47
-0.455
-0.445
-0.435
-0.44
-0.455
-0.495
-0.475
-0.465
-0.445
-0.445
-0.46
-0.475
-0.47
-0.475
-0.465
-0.475
-0.48
-0.475
-0.465
-0.45
-0.43
-0.42
-0.42
-0.425
-0.41
-0.41
-0.385
-0.355
-0.36
-0.35
-0.33
-0.31
-0.29
-0.275
-0.285
-0.3
-0.28
-0.25
-0.21
-0.195
-0.205
-0.225
-0.205
-0.19
-0.165
-0.165
-0.19
-0.205
-0.2
-0.2
-0.205
-0.215
-0.235
-0.255
-0.24
-0.245
-0.23
-0.225
-0.24
-0.26
-0.265
-0.25
-0.23
-0.24
-0.245
-0.25
-0.25
-0.235
-0.245
-0.245
-0.265
-0.285
-0.28
-0.27
-0.255
-0.245
-0.255
-0.255
-0.245
-0.23
-0.23
-0.215
-0.23
-0.245
-0.255
-0.23
-0.225
-0.22
-0.24
-0.255
-0.25
-0.235
-0.22
-0.215
-0.23
-0.21
-0.17
-0.135
-0.09
-0.06
-0.045
-0.03
0.01
0.06
0.145
0.22
0.29
0.34
0.41
0.485
0.59
0.675
0.74
0.81
0.885
0.96
1.035
1.105
1.155
1.215
1.295
1.385
1.465
1.5
1.475
1.41
1.355
1.3
1.25
1.2
1.135
1.09
1.08
1.06
1.04
1.025
0.995
0.96
0.95
0.945
0.935
0.88
0.775
0.64
0.53
0.385
0.19
0.01
-0.175
-0.315
-0.425
-0.48
-0.505
-0.515
-0.56
-0.585
-0.605
-0.61
-0.615
-0.63
-0.67
-0.685
-0.68
-0.68
-0.685
-0.685
-0.715
-0.74
-0.75
-0.755
-0.74
-0.745
-0.775
-0.805
-0.82
-0.82
-0.815
-0.815
-0.845
-0.87
-0.885
-0.89
-0.875
-0.88
-0.915
-0.925
-0.94
-0.935
-0.91
-0.93
-0.945
-0.965
-0.98
-0.96
-0.945
-0.935
-0.945
-0.945
-0.91
-0.9
-0.865
-0.85
-0.855
-0.85
-0.825
-0.795
-0.765
-0.74
-0.715
-0.695
-0.68
-0.645
-0.59
-0.545
-0.555
-0.55
-0.515
-0.45
-0.415
-0.39
-0.39
-0.4
-0.385
-0.345
-0.335
-0.35
-0.335
-0.365
-0.37
-0.35
-0.325
-0.305
-0.32
-0.345
-0.33
-0.33
-0.3
-0.31
-0.325
-0.345
-0.335
-0.345
-0.32
-0.31
-0.345
-0.315
-0.305
-0.285
-0.295
-0.305
-0.32
-0.335
-0.295
-0.29
-0.27
-0.27
-0.285
-0.29
-0.275
-0.275
-0.255
-0.265
-0.275
-0.285
-0.285
-0.28
-0.255
-0.255
-0.27
-0.285
-0.27
-0.255
-0.24
-0.25
-0.26
-0.27
-0.26
-0.26
-0.245
-0.245
-0.245
-0.26
-0.25
-0.23
-0.235
-0.225
-0.23
-0.245
-0.245
-0.245
-0.23
-0.22
-0.22
-0.205
-0.195
-0.175
-0.16
-0.155
-0.145
-0.13
-0.1
-0.08
-0.035
-0.045
-0.06
-0.07
-0.065
-0.055
-0.065
-0.085
-0.125
-0.14
-0.16
-0.17
-0.17
-0.18
-0.215
-0.225
-0.23
-0.205
-0.195
-0.21
-0.24
-0.255
-0.235
-0.23
-0.22
-0.225
-0.245
-0.255
-0.26
-0.235
-0.225
-0.23
-0.24
-0.245
-0.23
-0.21
-0.205
-0.21
-0.245
-0.26
-0.25
-0.18
-0.08
0.05
0.195
0.38
0.62
0.92
1.2
1.415
1.415
1.195
0.88
0.565
0.3
0.115
-0.015
-0.105
-0.165
-0.215
-0.225
-0.225
-0.21
-0.24
-0.255
-0.26
-0.26
-0.24
-0.255
-0.27
-0.265
-0.27
-0.265
-0.28
-0.28
-0.28
-0.28
-0.265
-0.265
-0.26
-0.27
-0.285
-0.27
-0.26
-0.245
-0.26
-0.275
-0.28
-0.265
-0.25
-0.22
-0.235
-0.235
-0.235
-0.22
-0.205
-0.2
-0.205
-0.205
-0.22
-0.195
-0.185
-0.16
-0.15
-0.15
-0.155
-0.145
-0.125
-0.1
-0.09
-0.1
-0.1
-0.09
-0.06
-0.03
-0.02
-0.05
-0.025
-0.005
0.02
0.065
0.085
0.07
0.06
0.075
0.095
0.13
0.145
0.145
0.145
0.15
0.17
0.19
0.195
0.175
0.175
0.18
0.19
0.21
0.2
0.175
0.14
0.125
0.095
0.09
0.06
0.03
0.0
-0.01
-0.03
-0.05
-0.075
-0.11
-0.135
-0.15
-0.16
-0.15
-0.155
-0.18
-0.215
-0.21
-0.205
-0.205
-0.21
-0.23
-0.24
-0.23
-0.235
-0.235
-0.215
-0.225
-0.25
-0.245
-0.23
-0.22
-0.225
-0.225
-0.235
-0.225
-0.215
-0.2
-0.195
-0.225
-0.235
-0.225
-0.215
-0.2
-0.17
-0.17
-0.18
-0.17
-0.145
-0.105
-0.085
-0.08
-0.08
-0.07
-0.06
-0.05
-0.08
-0.08
-0.11
-0.12
-0.14
-0.14
-0.15
-0.175
-0.195
-0.21
-0.215
-0.235
-0.235
-0.285
-0.275
-0.27
-0.26
-0.27
-0.27
-0.3
-0.31
-0.305
-0.305
-0.29
-0.28
-0.29
-0.28
-0.29
-0.295
-0.265
-0.26
-0.265
-0.27
-0.28
-0.305
-0.325
-0.33
-0.3
-0.22
-0.09
0.14
0.44
0.77
1.095
1.355
1.395
1.2
0.89
0.55
0.22
-0.05
-0.2
-0.275
-0.29
-0.295
-0.31
-0.32
-0.3
-0.285
-0.27
-0.285
-0.31
-0.315
-0.31
-0.32
-0.31
-0.3
-0.32
-0.345
-0.345
-0.33
-0.31
-0.305
-0.315
-0.33
-0.315
-0.285
-0.275
-0.27
-0.285
-0.29
-0.28
-0.26
-0.245
-0.235
-0.24
-0.255
-0.255
-0.25
-0.225
-0.22
-0.22
-0.21
-0.19
-0.16
-0.15
-0.14
-0.16
-0.165
-0.17
-0.145
-0.115
-0.095
-0.105
-0.115
-0.09
-0.07
-0.045
-0.03
-0.025
-0.02
-0.005
0.03
0.05
0.045
0.035
0.03
0.03
0.045
0.035
0.045
0.035
0.025
0.015
0.035
0.04
0.035
0.025
0.01
0.005
-0.01
-0.02
-0.03
-0.07
-0.08
-0.095
-0.13
-0.145
-0.19
-0.225
-0.22
-0.22
-0.21
-0.22
-0.245
-0.275
-0.29
-0.285
-0.265
-0.24
-0.25
-0.27
-0.295
-0.285
-0.28
-0.28
-0.275
-0.275
-0.27
-0.265
-0.25
-0.24
-0.245
-0.255
-0.255
-0.235
-0.22
-0.21
-0.205
-0.235
-0.245
-0.285
-0.265
-0.24
-0.24
-0.255
-0.265
-0.245
-0.2
-0.16
-0.14
-0.16
-0.16
-0.14
-0.115
-0.08
-0.065
-0.085
-0.09
-0.095
-0.095
-0.075
-0.085
-0.095
-0.1
-0.115
-0.105
-0.1
-0.11
-0.15
-0.185
-0.2
-0.2
-0.2
-0.21
-0.235
-0.26
-0.265
-0.235
-0.22
-0.23
-0.235
-0.26
-0.255
-0.23
-0.23
-0.22
-0.245
-0.255
-0.255
-0.25
-0.23
-0.235
-0.23
-0.25
-0.26
-0.275
-0.255
-0.215
-0.115
0.02
0.245
0.515
0.84
1.135
1.395
1.545
1.46
1.16
0.72
0.3
-0.055
-0.275
-0.32
-0.295
-0.245
-0.21
-0.22
-0.22
-0.22
-0.205
-0.215
-0.245
-0.26
-0.27
-0.26
-0.24
-0.23
-0.235
-0.25
-0.26
-0.255
-0.24
-0.215
-0.21
-0.225
-0.23
-0.23
-0.205
-0.2
-0.195
-0.2
-0.2
-0.215
-0.22
-0.205
-0.19
-0.195
-0.2
-0.195
-0.16
-0.135
-0.125
-0.145
-0.16
-0.145
-0.125
-0.09
-0.085
-0.085
-0.095
-0.075
-0.055
-0.03
-0.02
-0.035
-0.02
0.015
0.05
0.055
0.035
0.02
0.045
0.065
0.12
0.145
0.155
0.145
0.12
0.13
0.14
0.165
0.17
0.17
0.18
0.19
0.19
0.19
0.18
0.145
0.125
0.12
0.11
0.1
0.075
0.025
-0.03
-0.03
-0.025
-0.025
-0.055
-0.085
-0.115
-0.115
-0.11
-0.12
-0.12
-0.155
-0.175
-0.18
-0.17
-0.15
-0.155
-0.16
-0.15
-0.15
-0.175
-0.195
-0.2
-0.2
-0.19
-0.175
-0.155
-0.14
-0.14
-0.185
-0.19
-0.19
-0.165
-0.125
-0.12
-0.14
-0.14
-0.105
-0.08
-0.055
-0.055
-0.055
-0.045
0.0
0.025
0.02
0.005
0.005
0.005
0.005
0.02
0.03
0.0
-0.045
-0.08
-0.095
-0.095
-0.115
-0.13
-0.16
-0.18
-0.175
-0.135
-0.13
-0.145
-0.18
-0.19
-0.185
-0.155
-0.155
-0.17
-0.19
-0.215
-0.205
-0.185
-0.16
-0.155
-0.16
-0.165
-0.16
-0.185
-0.205
-0.215
-0.185
-0.08
0.085
0.295
0.58
0.89
1.215
1.5
1.675
1.69
1.45
1.06
0.575
0.115
-0.155
-0.23
-0.205
-0.155
-0.18
-0.21
-0.21
-0.19
-0.17
-0.175
-0.195
-0.205
-0.185
-0.185
-0.18
-0.2
-0.21
-0.225
-0.215
-0.22
-0.19
-0.205
-0.22
-0.235
-0.24
-0.205
-0.185
-0.165
-0.19
-0.195
-0.185
-0.175
-0.15
-0.155
-0.165
-0.19
-0.165
-0.145
-0.14
-0.15
-0.16
-0.175
-0.16
-0.135
-0.095
-0.075
-0.075
-0.085
-0.09
-0.06
-0.015
-0.01
-0.005
0.005
0.02
0.045
0.05
0.05
0.05
0.055
0.055
0.1
0.12
0.125
0.14
0.15
0.16
0.15
0.155
0.16
0.14
0.12
0.125
0.145
0.15
0.145
0.105
0.07
0.05
0.04
0.025
0.015
-0.02
-0.05
-0.065
-0.075
-0.085
-0.105
-0.125
-0.15
-0.185
-0.195
-0.205
-0.21
-0.215
-0.225
-0.22
-0.215
-0.2
-0.225
-0.245
-0.245
-0.26
-0.24
-0.24
-0.23
-0.245
-0.26
-0.27
-0.27
-0.255
-0.245
-0.24
-0.24
-0.245
-0.23
-0.215
-0.205
-0.22
-0.25
-0.23
-0.215
-0.195
-0.195
-0.21
-0.24
-0.235
-0.23
-0.21
-0.205
-0.205
-0.19
-0.175
-0.155
-0.12
-0.115
-0.125
-0.135
-0.11
-0.08
-0.06
-0.06
-0.07
-0.085
-0.085
-0.075
-0.065
-0.08
-0.115
-0.125
-0.145
-0.145
-0.155
-0.18
-0.21
-0.23
-0.23
-0.23
-0.22
-0.23
-0.27
-0.3
-0.3
-0.28
-0.265
-0.255
-0.265
-0.285
-0.28
-0.26
-0.255
-0.255
-0.275
-0.28
-0.275
-0.28
-0.27
-0.27
-0.29
-0.305
-0.315
-0.325
-0.305
-0.28
-0.195
-0.095
0.045
0.255
0.51
0.79
1.075
1.325
1.525
1.58
1.41
1.055
0.63
0.21
-0.11
-0.255
-0.3
-0.28
-0.305
-0.325
-0.335
-0.3
-0.28
-0.275
-0.295
-0.325
-0.325
-0.315
-0.31
-0.315
-0.32
-0.32
-0.335
-0.315
-0.305
-0.305
-0.33
-0.33
-0.33
-0.315
-0.3
-0.295
-0.3
-0.31
-0.295
-0.29
-0.28
-0.28
-0.295
-0.285
-0.275
-0.265
-0.24
-0.245
-0.255
-0.255
-0.255
-0.235
-0.23
-0.21
-0.22
-0.22
-0.215
-0.185
-0.175
-0.165
-0.175
-0.175
-0.17
-0.125
-0.105
-0.09
-0.09
-0.08
-0.08
-0.04
-0.015
-0.01
-0.025
-0.035
-0.03
0.035
0.065
0.06
0.045
0.025
0.045
0.085
0.105
0.115
0.105
0.085
0.09
0.1
0.1
0.085
0.065
0.03
0.0
-0.015
-0.015
-0.04
-0.07
-0.1
-0.105
-0.11
-0.12
-0.13
-0.175
-0.195
-0.205
-0.21
-0.21
-0.205
-0.235
-0.25
-0.265
-0.255
-0.26
-0.26
-0.275
-0.3
-0.305
-0.305
-0.28
-0.28
-0.29
-0.29
-0.29
-0.27
-0.275
-0.27
-0.28
-0.305
-0.285
-0.275
-0.26
-0.265
-0.275
-0.28
-0.27
-0.26
-0.25
-0.26
-0.26
-0.265
-0.265
-0.25
-0.235
-0.235
-0.25
-0.27
-0.255
-0.245
-0.245
-0.26
-0.275
-0.29
-0.285
-0.27
-0.265
-0.26
-0.28
-0.275
-0.27
-0.255
-0.245
-0.245
-0.265
-0.275
-0.265
-0.25
-0.24
-0.245
-0.26
-0.265
-0.24
-0.22
-0.225
-0.22
-0.23
-0.225
-0.205
-0.165
-0.13
-0.125
-0.15
-0.145
-0.14
-0.14
-0.13
-0.14
-0.155
-0.185
-0.19
-0.2
-0.21
-0.225
-0.255
-0.265
-0.275
-0.25
-0.25
-0.275
-0.31
-0.34
-0.34
-0.32
-0.31
-0.3
-0.31
-0.32
-0.315
-0.275
-0.24
-0.195
-0.16
-0.13
-0.095
-0.01
0.07
0.14
0.195
0.265
0.345
0.43
0.49
0.535
0.55
0.59
0.64
0.76
0.915
1.065
1.205
1.355
1.59
1.84
2.025
2.145
2.135
1.955
1.665
1.285
0.9
0.515
0.205
0.015
-0.075
-0.17
-0.25
-0.325
-0.375
-0.39
-0.385
-0.395
-0.41
-0.43
-0.465
-0.49
-0.5
-0.5
-0.485
-0.48
-0.505
-0.53
-0.52
-0.51
-0.51
-0.525
-0.535
-0.54
-0.535
-0.515
-0.52
-0.52
-0.535
-0.555
-0.56
-0.55
-0.53
-0.54
-0.565
-0.57
-0.585
-0.555
-0.545
-0.575
-0.585
-0.61
-0.61
-0.59
-0.575
-0.575
-0.605
-0.61
-0.615
-0.59
-0.57
-0.565
-0.58
-0.61
-0.605
-0.59
-0.58
-0.595
-0.605
-0.605
-0.6
-0.575
-0.55
-0.535
-0.535
-0.535
-0.515
-0.505
-0.485
-0.485
-0.48
-0.49
-0.47
-0.445
-0.415
-0.39
-0.395
-0.385
-0.38
-0.355
-0.32
-0.32
-0.325
-0.32
-0.32
-0.3
-0.295
-0.265
-0.275
-0.295
-0.3
-0.295
-0.29
-0.29
-0.32
-0.335
-0.34
-0.33
-0.325
-0.35
-0.365
-0.365
-0.355
-0.34
-0.315
-0.315
-0.325
-0.34
-0.35
-0.335
-0.32
-0.31
-0.33
-0.34
-0.345
-0.35
-0.35
-0.33
-0.36
-0.375
-0.365
-0.335
-0.31
-0.315
-0.34
-0.365
-0.365
-0.335
-0.31
-0.3
-0.285
-0.28
-0.255
-0.225
-0.19
-0.16
-0.17
-0.125
-0.08
-0.01
0.08
0.15
0.2
0.285
0.36
0.46
0.56
0.63
0.695
0.735
0.81
0.865
0.95
0.985
1.01
1.065
1.14
1.2
1.24
1.23
1.2
1.15
1.09
1.055
1.01
0.99
0.94
0.935
0.89
0.87
0.865
0.84
0.82
0.8
0.825
0.85
0.815
0.75
0.64
0.5
0.345
0.2
0.035
-0.115
-0.245
-0.325
-0.37
-0.405
-0.43
-0.455
-0.495
-0.545
-0.565
-0.58
-0.58
-0.6
-0.62
-0.65
-0.66
-0.68
-0.71
-0.74
-0.78
-0.795
-0.795
-0.795
-0.805
-0.825
-0.855
-0.88
-0.88
-0.875
-0.88
-0.895
-0.91
-0.93
-0.935
-0.925
-0.925
-0.93
-0.955
-0.97
-0.975
-0.98
-0.99
-1.005
-1.03
-1.035
-1.03
-1.03
-1.025
-1.03
-1.045
-1.03
-1.03
-0.995
-0.975
-0.97
-0.975
-0.965
-0.955
-0.915
-0.88
-0.865
-0.85
-0.835
-0.8
-0.75
-0.705
-0.7
-0.67
-0.645
-0.615
-0.575
-0.55
-0.525
-0.52
-0.51
-0.505
-0.485
-0.465
-0.455
-0.465
-0.465
-0.46
-0.43
-0.405
-0.41
-0.42
-0.46
-0.46
-0.445
-0.435
-0.405
-0.415
-0.43
-0.43
-0.405
-0.4
-0.41
-0.415
-0.425
-0.405
-0.39
-0.38
-0.39
-0.395
-0.415
-0.41
-0.375
-0.37
-0.375
-0.38
-0.375
-0.365
-0.35
-0.365
-0.37
-0.38
-0.38
-0.375
-0.365
-0.345
-0.35
-0.35
-0.365
-0.345
-0.34
-0.32
-0.32
-0.335
-0.355
-0.345
-0.325
-0.325
-0.325
-0.34
-0.35
-0.335
-0.325
-0.315
-0.33
-0.35
-0.36
-0.345
-0.32
-0.31
-0.305
-0.33
-0.335
-0.34
-0.335
-0.31
-0.325
-0.325
-0.345
-0.325
-0.315
-0.31
-0.3
-0.305
-0.295
-0.31
-0.305
-0.31
-0.325
-0.32
-0.33
-0.33
-0.325
-0.31
-0.31
-0.31
-0.315
-0.305
-0.285
-0.28
-0.285
-0.285
-0.31
-0.3
-0.28
-0.275
-0.255
-0.27
-0.29
-0.295
-0.29
-0.29
-0.28
-0.3
-0.305
-0.28
-0.265
-0.245
-0.25
-0.27
-0.3
-0.285
-0.255
-0.255
-0.27
-0.27
-0.285
-0.27
-0.265
-0.26
-0.26
-0.27
-0.28
-0.28
-0.275
-0.245
-0.255
-0.265
-0.275
-0.27
-0.245
-0.25
-0.245
-0.245
-0.265
-0.27
-0.26
-0.26
-0.25
-0.265
-0.28
-0.29
-0.245
-0.24
-0.235
-0.24
-0.265
-0.26
-0.24
-0.23
-0.235
-0.245
-0.26
-0.235
-0.225
-0.21
-0.215
-0.22
-0.22
-0.21
-0.175
-0.175
-0.15
-0.155
-0.15
-0.125
-0.105
-0.1
-0.075
-0.105
-0.13
-0.13
-0.135
-0.135
-0.16
-0.165
-0.185
-0.18
-0.165
-0.155
-0.16
-0.19
-0.22
-0.23
-0.23
-0.225
-0.24
-0.265
-0.28
-0.265
-0.265
-0.27
-0.255
-0.27
-0.27
-0.27
-0.245
-0.23
-0.24
-0.26
-0.26
-0.265
-0.245
-0.24
-0.235
-0.255
-0.275
-0.285
-0.27
-0.215
-0.13
-0.01
0.145
0.365
0.655
0.955
1.225
1.425
1.485
1.365
1.1
0.8
0.51
0.23
0.015
-0.11
-0.175
-0.215
-0.255
-0.265
-0.26
-0.235
-0.235
-0.22
-0.235
-0.26
-0.28
-0.285
-0.285
-0.27
-0.275
-0.28
-0.295
-0.29
-0.28
-0.29
-0.28
-0.295
-0.3
-0.31
-0.28
-0.265
-0.26
-0.26
-0.27
-0.255
-0.24
-0.235
-0.225
-0.25
-0.25
-0.245
-0.22
-0.215
-0.205
-0.215
-0.235
-0.235
-0.21
-0.175
-0.18
-0.185
-0.18
-0.155
-0.135
-0.12
-0.115
-0.14
-0.135
-0.135
-0.115
-0.085
-0.075
-0.07
-0.07
-0.055
-0.02
0.01
0.03
0.0
0.005
0.025
0.04
0.06
0.06
0.06
0.06
0.085
0.115
0.135
0.14
0.135
0.15
0.165
0.195
0.205
0.185
0.18
0.165
0.155
0.155
0.15
0.155
0.125
0.085
0.065
0.055
0.045
0.025
-0.005
-0.03
-0.03
-0.04
-0.065
-0.075
-0.115
-0.14
-0.145
-0.155
-0.15
-0.165
-0.185
-0.21
-0.21
-0.19
-0.19
-0.165
-0.215
-0.215
-0.215
-0.19
-0.18
-0.185
-0.195
-0.215
-0.22
-0.215
-0.21
-0.225
-0.24
-0.255
-0.24
-0.22
-0.205
-0.2
-0.225
-0.22
-0.22
-0.215
-0.195
-0.215
-0.225
-0.245
-0.235
-0.24
-0.23
-0.235
-0.235
-0.225
-0.215
-0.195
-0.19
-0.18
-0.18
-0.165
-0.155
-0.145
-0.105
-0.09
-0.085
-0.095
-0.095
-0.08
-0.065
-0.065
-0.07
-0.06
-0.025
0.02
0.055
0.1
0.115
0.155
0.205
0.305
0.38
0.455
0.505
0.565
0.64
0.73
0.835
0.93
1.005
1.065
1.15
1.28
1.395
1.43
1.41
1.35
1.295
1.265
1.235
1.17
1.1
1.035
1.01
0.98
0.96
0.925
0.865
0.825
0.815
0.8
0.73
0.625
0.5
0.34
0.17
-0.015
-0.19
-0.335
-0.44
-0.505
-0.54
-0.565
-0.575
-0.605
-0.64
-0.665
-0.665
-0.665
-0.675
-0.685
-0.705
-0.74
-0.75
-0.745
-0.745
-0.75
-0.78
-0.8
-0.8
-0.79
-0.785
-0.8
-0.82
-0.84
-0.845
-0.835
-0.835
-0.84
-0.865
-0.9
-0.905
-0.905
-0.915
-0.925
-0.925
-0.925
-0.92
-0.92
-0.935
-0.935
-0.955
-0.95
-0.955
-0.94
-0.945
-0.945
-0.955
-0.96
-0.94
-0.92
-0.91
-0.895
-0.89
-0.875
-0.86
-0.825
-0.785
-0.775
-0.76
-0.74
-0.715
-0.68
-0.65
-0.63
-0.625
-0.605
-0.56
-0.515
-0.475
-0.455
-0.445
-0.44
-0.43
-0.405
-0.365
-0.35
-0.355
-0.36
-0.365
-0.33
-0.33
-0.33
-0.355
-0.35
-0.345
-0.33
-0.32
-0.33
-0.335
-0.345
-0.36
-0.35
-0.33
-0.33
-0.335
-0.33
-0.33
-0.335
-0.325
-0.32
-0.33
-0.345
-0.36
-0.34
-0.33
-0.31
-0.325
-0.33
-0.335
-0.315
-0.3
-0.295
-0.305
-0.335
-0.33
-0.305
-0.295
-0.28
-0.275
-0.27
-0.25
-0.23
-0.18
-0.145
-0.115
-0.075
-0.015
0.045
0.12
0.195
0.27
0.33
0.405
0.51
0.6
0.68
0.74
0.785
0.865
0.95
1.015
1.085
1.165
1.24
1.285
1.305
1.29
1.245
1.185
1.115
1.075
1.045
1.02
0.99
0.935
0.905
0.9
0.915
0.935
0.95
0.935
0.895
0.835
0.745
0.625
0.43
0.21
0.0
-0.145
-0.25
-0.33
-0.385
-0.435
-0.48
-0.505
-0.525
-0.56
-0.6
-0.635
-0.655
-0.67
-0.67
-0.7
-0.71
-0.745
-0.76
-0.77
-0.785
-0.795
-0.805
-0.825
-0.85
-0.84
-0.84
-0.835
-0.845
-0.865
-0.89
-0.9
-0.9
-0.91
-0.925
-0.955
-0.975
-0.97
-0.95
-0.945
-0.96
-0.985
-1.01
-1.01
-1.005
-1.015
-1.0
-1.015
-1.02
-1.0
-0.985
-0.98
-0.98
-0.99
-0.99
-0.95
-0.92
-0.885
-0.86
-0.85
-0.825
-0.8
-0.765
-0.73
-0.69
-0.695
-0.67
-0.635
-0.59
-0.565
-0.56
-0.555
-0.545
-0.52
-0.48
-0.45
-0.445
-0.45
-0.44
-0.44
-0.42
-0.41
-0.41
-0.42
-0.425
-0.445
-0.42
-0.4
-0.4
-0.425
-0.445
-0.44
-0.415
-0.395
-0.4
-0.41
-0.41
-0.415
-0.38
-0.38
-0.38
-0.405
-0.41
-0.415
-0.405
-0.385
-0.39
-0.395
-0.405
-0.38
-0.375
-0.365
-0.375
-0.375
-0.38
-0.37
-0.36
-0.345
-0.35
-0.365
-0.38
-0.385
-0.39
-0.365
-0.37
-0.385
-0.37
-0.365
-0.345
-0.355
-0.35
-0.355
-0.365
-0.365
-0.345
-0.35
-0.36
-0.385
-0.375
-0.375
-0.365
-0.35
-0.36
-0.37
-0.37
-0.365
-0.385
-0.35
-0.36
-0.37
-0.38
-0.365
-0.35
-0.34
-0.35
-0.365
-0.38
-0.385
-0.37
-0.365
-0.375
-0.38
-0.375
-0.365
-0.35
-0.345
-0.34
-0.37
-0.37
-0.355
-0.335
-0.325
-0.34
-0.36
-0.375
-0.38
-0.38
-0.355
-0.35
-0.36
-0.385
-0.365
-0.34
-0.335
-0.335
-0.34
-0.35
-0.335
-0.335
-0.345
-0.35
-0.37
-0.37
-0.36
-0.35
-0.34
-0.335
-0.355
-0.355
-0.34
-0.33
-0.33
-0.335
-0.36
-0.355
-0.355
-0.34
-0.35
-0.34
-0.355
-0.355
-0.345
-0.33
-0.305
-0.285
-0.29
-0.275
-0.27
-0.27
-0.24
-0.23
-0.235
-0.215
-0.18
-0.17
-0.16
-0.17
-0.19
-0.215
-0.22
-0.23
-0.215
-0.23
-0.26
-0.305
-0.32
-0.305
-0.3
-0.305
-0.315
-0.325
-0.335
-0.34
-0.35
-0.35
-0.36
-0.375
-0.385
-0.365
-0.35
-0.34
-0.345
-0.355
-0.35
-0.315
-0.315
-0.32
-0.35
-0.39
-0.38
-0.305
-0.2
-0.08
0.1
0.35
0.66
0.96
1.2
1.31
1.22
0.94
0.59
0.24
-0.07
-0.255
-0.345
-0.385
-0.375
-0.355
-0.35
-0.345
-0.34
-0.355
-0.35
-0.34
-0.34
-0.345
-0.37
-0.39
-0.39
-0.375
-0.36
-0.37
-0.36
-0.38
-0.36
-0.365
-0.35
-0.35
-0.375
-0.37
-0.375
-0.35
-0.34
-0.33
-0.33
-0.33
-0.33
-0.305
-0.305
-0.3
-0.32
-0.33
-0.31
-0.305
-0.285
-0.27
-0.275
-0.28
-0.25
-0.23
-0.225
-0.23
-0.235
-0.22
-0.205
-0.18
-0.165
-0.15
-0.155
-0.15
-0.135
-0.115
-0.1
-0.095
-0.1
-0.09
-0.065
-0.02
0.0
0.005
-0.005
-0.005
0.0
0.03
0.045
0.04
0.035
0.035
0.05
0.06
0.065
0.07
0.055
0.03
0.025
0.04
0.03
0.005
-0.035
-0.065
-0.1
-0.115
-0.13
-0.14
-0.18
-0.195
-0.2
-0.185
-0.2
-0.22
-0.245
-0.26
-0.26
-0.265
-0.26
-0.27
-0.29
-0.295
-0.29
-0.285
-0.295
-0.3
-0.305
-0.305
-0.305
-0.285
-0.28
-0.28
-0.29
-0.31
-0.295
-0.29
-0.275
-0.285
-0.285
-0.3
-0.305
-0.3
-0.29
-0.285
-0.315
-0.305
-0.3
-0.275
-0.26
-0.255
-0.27
-0.265
-0.245
-0.23
-0.205
-0.185
-0.18
-0.17
-0.16
-0.12
-0.105
-0.11
-0.14
-0.165
-0.15
-0.135
-0.125
-0.165
-0.18
-0.205
-0.24
-0.24
-0.25
-0.285
-0.305
-0.325
-0.325
-0.31
-0.31
-0.32
-0.345
-0.33
-0.29
-0.225
-0.16
-0.1
-0.075
-0.035
0.025
0.095
0.175
0.24
0.305
0.37
0.45
0.535
0.605
0.635
0.675
0.75
0.865
1.015
1.185
1.37
1.59
1.795
1.95
2.06
2.055
1.845
1.435
0.95
0.505
0.17
-0.055
-0.195
-0.295
-0.365
-0.39
-0.395
-0.4
-0.44
-0.485
-0.515
-0.54
-0.535
-0.535
-0.545
-0.565
-0.58
-0.56
-0.565
-0.565
-0.56
-0.565
-0.585
-0.57
-0.565
-0.58
-0.58
-0.605
-0.61
-0.6
-0.595
-0.585
-0.59
-0.61
-0.625
-0.62
-0.6
-0.595
-0.605
-0.625
-0.645
-0.65
-0.64
-0.63
-0.64
-0.665
-0.675
-0.655
-0.655
-0.645
-0.645
-0.665
-0.665
-0.66
-0.64
-0.62
-0.62
-0.63
-0.645
-0.625
-0.605
-0.58
-0.6
-0.605
-0.57
-0.545
-0.51
-0.505
-0.485
-0.49
-0.48
-0.46
-0.415
-0.4
-0.385
-0.385
-0.38
-0.375
-0.355
-0.33
-0.34
-0.355
-0.355
-0.34
-0.32
-0.305
-0.3
-0.32
-0.335
-0.335
-0.325
-0.31
-0.315
-0.335
-0.345
-0.345
-0.335
-0.33
-0.335
-0.35
-0.355
-0.35
-0.33
-0.325
-0.33
-0.335
-0.355
-0.34
-0.33
-0.32
-0.33
-0.35
-0.365
-0.355
-0.345
-0.34
-0.345
-0.35
-0.355
-0.335
-0.33
-0.325
-0.33
-0.335
-0.325
-0.31
-0.305
-0.295
-0.3
-0.32
-0.325
-0.325
-0.315
-0.31
-0.32
-0.315
-0.33
-0.305
-0.275
-0.245
-0.22
-0.205
-0.18
-0.135
-0.07
-0.035
0.02
0.065
0.13
0.215
0.295
0.37
0.44
0.515
0.6
0.675
0.755
0.835
0.895
0.97
1.04
1.125
1.22
1.33
1.405
1.425
1.4
1.34
1.28
1.215
1.14
1.06
1.02
1.0
0.975
0.945
0.915
0.86
0.815
0.81
0.825
0.82
0.78
0.67
0.55
0.43
0.26
0.07
-0.115
-0.285
-0.425
-0.515
-0.555
-0.58
-0.605
-0.66
-0.685
-0.705
-0.715
-0.71
-0.715
-0.75
-0.77
-0.765
-0.765
-0.76
-0.775
-0.795
-0.805
-0.81
-0.81
-0.815
