Lead II
-0.62
-0.62
-0.665
-0.66
-0.675
-0.655
-0.665
-0.655
-0.655
-0.67
-0.69
-0.695
-0.68
-0.655
-0.665
-0.68
-0.685
-0.69
-0.65
-0.625
-0.615
-0.61
-0.6
-0.59
-0.555
-0.53
-0.51
-0.5
-0.495
-0.475
-0.43
-0.39
-0.365
-0.34
-0.33
-0.285
-0.255
-0.22
-0.205
-0.205
-0.205
-0.19
-0.15
-0.135
-0.145
-0.14
-0.15
-0.145
-0.135
-0.12
-0.125
-0.135
-0.16
-0.16
-0.155
-0.145
-0.14
-0.16
-0.175
-0.175
-0.19
-0.18
-0.17
-0.17
-0.16
-0.165
-0.155
-0.175
-0.17
-0.19
-0.195
-0.18
-0.18
-0.175
-0.18
-0.195
-0.18
-0.16
-0.15
-0.155
-0.16
-0.18
-0.18
-0.165
-0.16
-0.145
-0.145
-0.16
-0.175
-0.175
-0.155
-0.125
-0.13
-0.145
-0.155
-0.175
-0.155
-0.13
-0.14
-0.135
-0.15
-0.16
-0.16
-0.14
-0.16
-0.18
-0.17
-0.16
-0.165
-0.155
-0.15
-0.165
-0.17
-0.175
-0.175
-0.15
-0.16
-0.195
-0.17
-0.16
-0.145
-0.135
-0.155
-0.16
-0.165
-0.155
-0.12
-0.09
-0.09
-0.11
-0.135
-0.12
-0.105
-0.09
-0.08
-0.09
-0.105
-0.09
-0.075
-0.075
-0.07
-0.08
-0.115
-0.115
-0.095
-0.09
-0.085
-0.135
-0.17
-0.17
-0.16
-0.16
-0.165
-0.19
-0.2
-0.2
-0.2
-0.19
-0.2
-0.21
-0.195
-0.195
-0.2
-0.195
-0.215
-0.235
-0.225
-0.2
-0.195
-0.19
-0.22
-0.21
-0.205
-0.195
-0.18
-0.165
-0.17
-0.205
-0.205
-0.18
-0.08
0.055
0.19
0.3
0.405
0.555
0.74
0.935
1.165
1.34
1.53
1.725
1.92
2.115
2.25
2.235
2.035
1.645
1.14
0.715
0.46
0.35
0.315
0.315
0.315
0.3
0.265
0.21
0.155
0.105
0.07
0.03
-0.015
-0.055
-0.11
-0.135
-0.17
-0.205
-0.255
-0.27
-0.32
-0.335
-0.335
-0.345
-0.38
-0.38
-0.385
-0.36
-0.355
-0.35
-0.365
-0.385
-0.41
-0.41
-0.38
-0.375
-0.385
-0.41
-0.43
-0.44
-0.41
-0.39
-0.415
-0.44
-0.45
-0.45
-0.435
-0.42
-0.425
-0.44
-0.45
-0.47
-0.475
-0.465
-0.47
-0.475
-0.485
-0.49
-0.505
-0.5
-0.52
-0.545
-0.555
-0.555
-0.545
-0.525
-0.53
-0.56
-0.595
-0.585
-0.575
-0.57
-0.575
-0.6
-0.61
-0.595
-0.575
-0.57
-0.57
-0.58
-0.585
-0.575
-0.545
-0.52
-0.5
-0.495
-0.48
-0.455
-0.425
-0.4
-0.365
-0.345
-0.325
-0.305
-0.28
-0.245
-0.235
-0.22
-0.215
-0.2
-0.18
-0.17
-0.17
-0.18
-0.2
-0.18
-0.165
-0.145
-0.16
-0.185
-0.195
-0.185
-0.175
-0.195
-0.18
-0.19
-0.215
-0.2
-0.195
-0.17
-0.175
-0.19
-0.205
-0.19
-0.185
-0.185
-0.2
-0.22
-0.225
-0.205
-0.19
-0.195
-0.2
-0.225
-0.235
-0.225
-0.205
-0.195
-0.2
-0.225
-0.24
-0.235
-0.215
-0.195
-0.19
-0.2
-0.215
-0.235
-0.22
-0.215
-0.205
-0.22
-0.205
-0.22
-0.215
-0.2
-0.205
-0.215
-0.21
-0.205
-0.205
-0.2
-0.2
-0.23
-0.235
-0.22
-0.19
-0.18
-0.185
-0.2
-0.225
-0.21
-0.19
-0.19
-0.19
-0.21
-0.225
-0.225
-0.195
-0.185
-0.17
-0.185
-0.2
-0.205
-0.185
-0.18
-0.2
-0.2
-0.215
-0.215
-0.2
-0.195
-0.22
-0.205
-0.2
-0.19
-0.17
-0.185
-0.17
-0.175
-0.17
-0.14
-0.12
-0.11
-0.125
-0.135
-0.17
-0.16
-0.125
-0.11
-0.125
-0.135
-0.15
-0.135
-0.125
-0.105
-0.115
-0.13
-0.15
-0.175
-0.175
-0.17
-0.155
-0.18
-0.2
-0.19
-0.205
-0.205
-0.215
-0.225
-0.225
-0.21
-0.19
-0.19
-0.195
-0.21
-0.225
-0.23
-0.22
-0.235
-0.24
-0.25
-0.26
-0.23
-0.2
-0.175
-0.195
-0.22
-0.245
-0.23
-0.21
-0.195
-0.22
-0.215
-0.175
-0.045
0.125
0.265
0.365
0.45
0.555
0.675
0.81
0.98
1.17
1.38
1.605
1.845
2.045
2.19
2.23
2.165
1.98
1.63
1.21
0.83
0.58
0.445
0.41
0.395
0.39
0.4
0.36
0.3
0.23
0.185
0.165
0.12
0.085
0.04
-0.005
-0.06
-0.105
-0.145
-0.175
-0.23
-0.265
-0.295
-0.325
-0.35
-0.39
-0.405
-0.42
-0.42
-0.405
-0.4
-0.4
-0.42
-0.445
-0.445
-0.415
-0.41
-0.43
-0.455
-0.48
-0.47
-0.455
-0.435
-0.45
-0.47
-0.495
-0.5
-0.5
-0.5
-0.49
-0.505
-0.5
-0.505
-0.5
-0.51
-0.525
-0.535
-0.535
-0.535
-0.545
-0.55
-0.575
-0.61
-0.615
-0.61
-0.595
-0.585
-0.595
-0.62
-0.655
-0.695
-0.7
-0.675
-0.67
-0.685
-0.685
-0.695
-0.675
-0.695
-0.69
-0.72
-0.73
-0.72
-0.715
-0.71
-0.72
-0.72
-0.725
-0.705
-0.675
-0.645
-0.63
-0.655
-0.66
-0.615
-0.595
-0.55
-0.53
-0.515
-0.505
-0.47
-0.43
-0.395
-0.36
-0.345
-0.325
-0.32
-0.3
-0.275
-0.26
-0.245
-0.225
-0.21
-0.185
-0.185
-0.2
-0.225
-0.225
-0.22
-0.19
-0.185
-0.185
-0.19
-0.205
-0.22
-0.215
-0.195
-0.175
-0.19
-0.22
-0.22
-0.215
-0.215
-0.205
-0.235
-0.235
-0.225
-0.22
-0.21
-0.21
-0.235
-0.265
-0.25
-0.225
-0.195
-0.215
-0.23
-0.23
-0.25
-0.24
-0.235
-0.235
-0.235
-0.25
-0.265
-0.245
-0.245
-0.255
-0.28
-0.27
-0.26
-0.24
-0.225
-0.245
-0.255
-0.265
-0.255
-0.255
-0.23
-0.25
-0.26
-0.265
-0.255
-0.235
-0.215
-0.215
-0.215
-0.245
-0.24
-0.23
-0.21
-0.215
-0.225
-0.245
-0.24
-0.22
-0.225
-0.225
-0.24
-0.245
-0.235
-0.23
-0.215
-0.225
-0.235
-0.255
-0.25
-0.245
-0.215
-0.22
-0.22
-0.235
-0.22
-0.225
-0.22
-0.19
-0.195
-0.205
-0.21
-0.18
-0.17
-0.155
-0.17
-0.18
-0.2
-0.18
-0.16
-0.16
-0.155
-0.165
-0.145
-0.12
-0.11
-0.13
-0.15
-0.165
-0.16
-0.14
-0.135
-0.135
-0.175
-0.215
-0.21
-0.185
-0.185
-0.195
-0.18
-0.22
-0.22
-0.23
-0.22
-0.21
-0.225
-0.23
-0.24
-0.225
-0.215
-0.22
-0.225
-0.24
-0.24
-0.21
-0.2
-0.225
-0.215
-0.24
-0.23
-0.215
-0.205
-0.205
-0.21
-0.195
-0.22
-0.2
-0.17
-0.09
0.01
0.14
0.27
0.42
0.55
0.69
0.84
1.0
1.185
1.385
1.555
1.74
1.965
2.155
2.265
2.285
2.2
1.96
1.525
1.055
0.68
0.455
0.345
0.3
0.295
0.27
0.235
0.205
0.17
0.13
0.075
0.02
0.005
-0.015
-0.03
-0.07
-0.11
-0.17
-0.205
-0.225
-0.23
-0.26
-0.29
-0.34
-0.37
-0.365
-0.37
-0.365
-0.375
-0.4
-0.39
-0.395
-0.385
-0.41
-0.415
-0.43
-0.435
-0.41
-0.4
-0.41
-0.445
-0.445
-0.44
-0.43
-0.415
-0.42
-0.44
-0.475
-0.475
-0.475
-0.465
-0.46
-0.47
-0.475
-0.465
-0.47
-0.47
-0.49
-0.495
-0.515
-0.51
-0.5
-0.5
-0.545
-0.55
-0.565
-0.57
-0.56
-0.57
-0.57
-0.595
-0.63
-0.63
-0.625
-0.605
-0.64
-0.63
-0.655
-0.65
-0.645
-0.635
-0.64
-0.655
-0.67
-0.665
-0.64
-0.625
-0.65
-0.65
-0.67
-0.65
-0.615
-0.6
-0.58
-0.57
-0.56
-0.56
-0.545
-0.51
-0.49
-0.465
-0.45
-0.43
-0.4
-0.37
-0.335
-0.325
-0.315
-0.29
-0.255
-0.24
-0.24
-0.245
-0.235
-0.225
-0.2
-0.175
-0.175
-0.18
-0.185
-0.18
-0.17
-0.17
-0.175
-0.175
-0.18
-0.175
-0.165
-0.16
-0.17
-0.19
-0.205
-0.2
-0.19
-0.155
-0.17
-0.18
-0.205
-0.215
-0.21
-0.205
-0.22
-0.215
-0.21
-0.21
-0.205
-0.195
-0.215
-0.205
-0.22
-0.21
-0.185
-0.185
-0.2
-0.215
-0.235
-0.22
-0.195
-0.19
-0.195
-0.195
-0.21
-0.21
-0.195
-0.185
-0.205
-0.2
-0.205
-0.2
-0.2
-0.19
-0.195
-0.21
-0.21
-0.18
-0.185
-0.175
-0.195
-0.21
-0.225
-0.225
-0.205
-0.165
-0.175
-0.175
-0.195
-0.185
-0.17
-0.165
-0.18
-0.18
-0.185
-0.18
-0.175
-0.17
-0.18
-0.185
-0.2
-0.18
-0.16
-0.16
-0.165
-0.18
-0.19
-0.19
-0.175
-0.16
-0.16
-0.165
-0.17
-0.18
-0.17
-0.16
-0.16
-0.155
-0.155
-0.14
-0.12
-0.105
-0.115
-0.115
-0.125
-0.105
-0.09
-0.1
-0.095
-0.11
-0.125
-0.12
-0.11
-0.08
-0.075
-0.08
-0.08
-0.09
-0.095
-0.095
-0.1
-0.105
-0.1
-0.115
-0.115
-0.125
-0.15
-0.145
-0.155
-0.15
-0.15
-0.16
-0.165
-0.18
-0.21
-0.2
-0.175
-0.155
-0.16
-0.175
-0.2
-0.215
-0.195
-0.175
-0.17
-0.195
-0.205
-0.215
-0.18
-0.175
-0.175
-0.175
-0.175
-0.18
-0.17
-0.16
-0.175
-0.18
-0.2
-0.195
-0.155
-0.115
-0.06
0.045
0.14
0.26
0.37
0.475
0.595
0.735
0.885
1.055
1.24
1.39
1.51
1.625
1.8
2.0
2.17
2.285
2.265
2.15
1.91
1.53
1.09
0.735
0.5
0.375
0.335
0.315
0.3
0.315
0.27
0.215
0.16
0.12
0.085
0.075
0.045
0.01
-0.03
-0.075
-0.1
-0.11
-0.165
-0.21
-0.23
-0.27
-0.265
-0.285
-0.32
-0.355
-0.38
-0.385
-0.375
-0.37
-0.375
-0.38
-0.39
-0.4
-0.4
-0.39
-0.405
-0.41
-0.41
-0.41
-0.4
-0.395
-0.42
-0.415
-0.43
-0.43
-0.42
-0.415
-0.415
-0.445
-0.47
-0.465
-0.45
-0.445
-0.435
-0.445
-0.46
-0.46
-0.455
-0.445
-0.47
-0.465
-0.485
-0.495
-0.485
-0.48
-0.495
-0.515
-0.545
-0.535
-0.56
-0.52
-0.535
-0.56
-0.59
-0.585
-0.585
-0.58
-0.575
-0.585
-0.595
-0.6
-0.605
-0.6
-0.6
-0.6
-0.605
-0.6
-0.6
-0.575
-0.57
-0.58
-0.57
-0.55
-0.53
-0.495
-0.5
-0.49
-0.495
-0.475
-0.445
-0.415
-0.39
-0.37
-0.355
-0.33
-0.315
-0.29
-0.265
-0.245
-0.25
-0.23
-0.205
-0.185
-0.18
-0.19
-0.19
-0.165
-0.16
-0.15
-0.15
-0.155
-0.175
-0.175
-0.16
-0.16
-0.16
-0.175
-0.185
-0.185
-0.185
-0.175
-0.17
-0.195
-0.2
-0.185
-0.175
-0.185
-0.185
-0.19
-0.205
-0.21
-0.19
-0.185
-0.185
-0.2
-0.205
-0.205
-0.195
-0.19
-0.195
-0.215
-0.21
-0.2
-0.195
-0.19
-0.195
-0.225
-0.225
-0.225
-0.21
-0.19
-0.195
-0.225
-0.235
-0.24
-0.235
-0.215
-0.205
-0.205
-0.2
-0.215
-0.215
-0.195
-0.195
-0.21
-0.21
-0.195
-0.195
-0.205
-0.205
-0.21
-0.215
-0.215
-0.205
-0.18
-0.185
-0.19
-0.215
-0.2
-0.185
-0.175
-0.18
-0.195
-0.215
-0.21
-0.2
-0.19
-0.2
-0.205
-0.21
-0.21
-0.185
-0.18
-0.195
-0.215
-0.21
-0.225
-0.2
-0.175
-0.175
-0.2
-0.21
-0.205
-0.19
-0.18
-0.185
-0.22
-0.235
-0.21
-0.18
-0.16
-0.165
-0.18
-0.185
-0.165
-0.13
-0.115
-0.13
-0.15
-0.165
-0.18
-0.15
-0.125
-0.13
-0.13
-0.13
-0.125
-0.115
-0.105
-0.115
-0.14
-0.15
-0.145
-0.115
-0.12
-0.15
-0.18
-0.185
-0.185
-0.155
-0.14
-0.16
-0.2
-0.22
-0.215
-0.21
-0.195
-0.2
-0.215
-0.23
-0.23
-0.22
-0.21
-0.22
-0.215
-0.215
-0.21
-0.21
-0.2
-0.21
-0.235
-0.25
-0.235
-0.21
-0.19
-0.19
-0.2
-0.21
-0.21
-0.205
-0.205
-0.2
-0.205
-0.215
-0.21
-0.185
-0.1
0.005
0.115
0.24
0.345
0.465
0.585
0.715
0.88
1.06
1.26
1.45
1.58
1.695
1.85
2.015
2.17
2.22
2.175
1.925
1.53
1.095
0.755
0.55
0.465
0.425
0.4
0.375
0.335
0.29
0.27
0.205
0.15
0.105
0.08
0.075
0.03
-0.01
-0.07
-0.12
-0.17
-0.19
-0.205
-0.22
-0.26
-0.32
-0.355
-0.37
-0.38
-0.4
-0.415
-0.435
-0.45
-0.435
-0.435
-0.425
-0.425
-0.44
-0.445
-0.44
-0.425
-0.445
-0.455
-0.47
-0.465
-0.46
-0.44
-0.46
-0.475
-0.505
-0.505
-0.5
-0.48
-0.49
-0.5
-0.515
-0.525
-0.52
-0.515
-0.525
-0.54
-0.555
-0.57
-0.57
-0.565
-0.585
-0.61
-0.625
-0.62
-0.63
-0.635
-0.655
-0.665
-0.69
-0.69
-0.685
-0.665
-0.675
-0.705
-0.725
-0.73
-0.71
-0.68
-0.7
-0.72
-0.73
-0.73
-0.725
-0.71
-0.705
-0.71
-0.685
-0.675
-0.66
-0.635
-0.645
-0.635
-0.64
-0.605
-0.575
-0.55
-0.505
-0.5
-0.48
-0.465
-0.41
-0.365
-0.33
-0.32
-0.315
-0.305
-0.285
-0.255
-0.24
-0.255
-0.25
-0.235
-0.205
-0.18
-0.18
-0.2
-0.225
-0.22
-0.195
-0.18
-0.175
-0.21
-0.21
-0.22
-0.21
-0.2
-0.19
-0.205
-0.225
-0.235
-0.235
-0.215
-0.21
-0.21
-0.21
-0.22
-0.21
-0.19
-0.205
-0.225
-0.235
-0.23
-0.22
-0.215
-0.23
-0.25
-0.235
-0.245
-0.24
-0.235
-0.24
-0.245
-0.25
-0.245
-0.24
-0.22
-0.22
-0.245
-0.25
-0.27
-0.245
-0.245
-0.24
-0.275
-0.295
-0.28
-0.255
-0.22
-0.225
-0.25
-0.265
-0.265
-0.24
-0.21
-0.21
-0.2
-0.2
-0.22
-0.22
-0.215
-0.205
-0.21
-0.23
-0.235
-0.23
-0.225
-0.22
-0.235
-0.235
-0.23
-0.24
-0.215
-0.2
-0.205
-0.215
-0.215
-0.215
-0.195
-0.215
-0.23
-0.235
-0.25
-0.215
-0.21
-0.215
-0.235
-0.23
-0.205
-0.195
-0.18
-0.185
-0.185
-0.19
-0.18
-0.16
-0.14
-0.13
-0.15
-0.185
-0.19
-0.165
-0.14
-0.145
-0.17
-0.16
-0.145
-0.135
-0.115
-0.105
-0.12
-0.145
-0.13
-0.115
-0.115
-0.13
-0.15
-0.17
-0.19
-0.175
-0.15
-0.155
-0.17
-0.18
-0.17
-0.18
-0.17
-0.185
-0.22
-0.22
-0.225
-0.21
-0.195
-0.205
-0.205
-0.215
-0.21
-0.205
-0.18
-0.2
-0.2
-0.215
-0.215
-0.195
-0.18
-0.185
-0.195
-0.21
-0.2
-0.195
-0.175
-0.18
-0.2
-0.185
-0.18
-0.17
-0.15
-0.17
-0.175
-0.135
-0.03
0.125
0.27
0.37
0.445
0.54
0.65
0.775
0.92
1.09
1.305
1.535
1.795
2.04
2.235
2.33
2.34
2.285
2.115
1.775
1.305
0.865
0.55
0.38
0.33
0.31
0.29
0.295
0.27
0.22
0.18
0.135
0.095
0.055
0.02
-0.025
-0.05
-0.075
-0.08
-0.12
-0.155
-0.195
-0.23
-0.255
-0.285
-0.295
-0.325
-0.34
-0.345
-0.345
-0.34
-0.355
-0.37
-0.4
-0.395
-0.38
-0.37
-0.38
-0.385
-0.405
-0.41
-0.395
-0.39
-0.4
-0.415
-0.415
-0.43
-0.43
-0.435
-0.43
-0.42
-0.435
-0.43
-0.425
-0.445
-0.45
-0.46
-0.48
-0.48
-0.47
-0.47
-0.485
-0.51
-0.53
-0.52
-0.505
-0.495
-0.515
-0.545
-0.565
-0.58
-0.565
-0.555
-0.545
-0.575
-0.605
-0.62
-0.615
-0.595
-0.59
-0.61
-0.625
-0.635
-0.605
-0.59
-0.595
-0.595
-0.59
-0.58
-0.55
-0.52
-0.525
-0.51
-0.485
-0.45
-0.42
-0.395
-0.36
-0.345
-0.315
-0.295
-0.25
-0.235
-0.225
-0.23
-0.245
-0.225
-0.205
-0.18
-0.165
-0.175
-0.18
-0.18
-0.165
-0.16
-0.155
-0.16
-0.18
-0.175
-0.175
-0.15
-0.155
-0.17
-0.16
-0.16
-0.165
-0.165
-0.18
-0.18
-0.19
-0.185
-0.175
-0.175
-0.19
-0.195
-0.205
-0.205
-0.18
-0.18
-0.2
-0.21
-0.21
-0.215
-0.18
-0.16
-0.17
-0.195
-0.205
-0.22
-0.205
-0.175
-0.185
-0.185
-0.21
-0.22
-0.195
-0.185
-0.175
-0.175
-0.185
-0.19
-0.19
-0.165
-0.16
-0.17
-0.175
-0.175
-0.165
-0.14
-0.165
-0.165
-0.185
-0.17
-0.15
-0.15
-0.15
-0.165
-0.18
-0.18
-0.175
-0.15
-0.145
-0.155
-0.175
-0.17
-0.16
-0.155
-0.15
-0.15
-0.16
-0.18
-0.17
-0.155
-0.165
-0.17
-0.175
-0.18
-0.15
-0.165
-0.175
-0.16
-0.175
-0.16
-0.135
-0.11
-0.09
-0.095
-0.105
-0.11
-0.095
-0.07
-0.08
-0.09
-0.11
-0.105
-0.08
-0.045
-0.055
-0.065
-0.08
-0.09
-0.095
-0.095
-0.11
-0.11
-0.13
-0.13
-0.135
-0.14
-0.15
-0.16
-0.175
-0.175
-0.16
-0.16
-0.18
-0.2
-0.2
-0.19
-0.175
-0.15
-0.145
-0.16
-0.19
-0.195
-0.195
-0.175
-0.16
-0.175
-0.195
-0.195
-0.18
-0.155
-0.155
-0.15
-0.155
-0.17
-0.16
-0.16
-0.15
-0.15
-0.145
-0.16
-0.115
-0.045
0.07
0.185
0.3
0.405
0.535
0.685
0.855
1.065
1.31
1.585
1.84
2.075
2.2
2.255
2.285
2.24
2.105
1.805
1.31
0.88
0.61
0.485
0.44
0.425
0.405
0.36
0.32
0.255
0.2
0.16
0.13
0.09
0.065
0.04
0.03
0.005
-0.055
-0.11
-0.155
-0.19
-0.195
-0.21
-0.24
-0.29
-0.325
-0.315
-0.315
-0.31
-0.315
-0.32
-0.35
-0.365
-0.355
-0.345
-0.345
-0.36
-0.365
-0.375
-0.375
-0.37
-0.365
-0.375
-0.39
-0.39
-0.39
-0.385
-0.385
-0.4
-0.43
-0.43
-0.425
-0.41
-0.425
-0.435
-0.46
-0.46
-0.45
-0.435
-0.46
-0.495
-0.505
-0.51
-0.505
-0.49
-0.51
-0.53
-0.545
-0.575
-0.555
-0.55
-0.55
-0.565
-0.58
-0.585
-0.575
-0.56
-0.565
-0.59
-0.575
-0.57
-0.55
-0.53
-0.525
-0.53
-0.5
-0.485
-0.465
-0.425
-0.425
-0.415
-0.425
-0.415
-0.37
-0.325
-0.295
-0.28
-0.3
-0.275
-0.215
-0.19
-0.18
-0.17
-0.175
-0.17
-0.15
-0.13
-0.12
-0.125
-0.15
-0.145
-0.155
-0.125
-0.13
-0.14
-0.15
-0.15
-0.14
-0.12
-0.13
-0.15
-0.165
-0.155
-0.14
-0.13
-0.145
-0.155
-0.185
-0.17
-0.15
-0.12
-0.13
-0.14
-0.175
-0.18
-0.18
-0.155
-0.155
-0.18
-0.195
-0.22
-0.2
-0.185
-0.205
-0.215
-0.225
-0.225
-0.22
-0.2
-0.215
-0.22
-0.23
-0.215
-0.2
-0.19
-0.19
-0.21
-0.22
-0.22
-0.2
-0.195
-0.175
-0.2
-0.22
-0.225
-0.2
-0.175
-0.175
-0.205
-0.23
-0.22
-0.215
-0.205
-0.185
-0.185
-0.195
-0.205
-0.195
-0.165
-0.17
-0.185
-0.19
-0.185
-0.165
-0.155
-0.185
-0.185
-0.195
-0.18
-0.18
-0.17
-0.16
-0.185
-0.22
-0.23
-0.19
-0.17
-0.16
-0.165
-0.175
-0.175
-0.17
-0.16
-0.15
-0.14
-0.15
-0.145
-0.13
-0.115
-0.13
-0.13
-0.12
-0.125
-0.1
-0.09
-0.1
-0.115
-0.135
-0.135
-0.12
-0.12
-0.125
-0.14
-0.16
-0.15
-0.145
-0.145
-0.14
-0.18
-0.205
-0.205
-0.195
-0.175
-0.19
-0.19
-0.185
-0.195
-0.2
-0.21
-0.21
-0.215
-0.21
-0.215
-0.19
-0.18
-0.195
-0.215
-0.215
-0.225
-0.185
-0.19
-0.185
-0.205
-0.22
-0.21
-0.18
-0.16
-0.15
-0.15
-0.17
-0.16
-0.165
-0.17
-0.145
-0.075
0.025
0.155
0.275
0.39
0.505
0.61
0.745
0.89
1.055
1.24
1.4
1.54
1.7
1.895
2.075
2.2
2.21
2.095
1.81
1.4
0.965
0.68
0.515
0.44
0.385
0.385
0.37
0.335
0.325
0.29
0.24
0.2
0.155
0.11
0.06
0.03
-0.01
-0.04
-0.07
-0.1
-0.155
-0.205
-0.25
-0.275
-0.285
-0.3
-0.32
-0.35
-0.365
-0.375
-0.35
-0.325
-0.335
-0.37
-0.415
-0.42
-0.39
-0.37
-0.375
-0.4
-0.395
-0.4
-0.395
-0.375
-0.4
-0.405
-0.425
-0.45
-0.43
-0.43
-0.425
-0.445
-0.455
-0.45
-0.445
-0.44
-0.445
-0.485
-0.52
-0.515
-0.505
-0.51
-0.525
-0.565
-0.57
-0.55
-0.54
-0.535
-0.555
-0.58
-0.595
-0.61
-0.61
-0.61
-0.625
-0.645
-0.64
-0.65
-0.64
-0.64
-0.625
-0.625
-0.63
-0.63
-0.605
-0.57
-0.57
-0.57
-0.565
-0.54
-0.495
-0.45
-0.435
-0.405
-0.39
-0.35
-0.32
-0.29
-0.27
-0.265
-0.255
-0.23
-0.195
-0.175
-0.18
-0.195
-0.18
-0.165
-0.155
-0.125
-0.13
-0.135
-0.15
-0.165
-0.145
-0.14
-0.13
-0.145
-0.18
-0.185
-0.175
-0.145
-0.145
-0.125
-0.135
-0.15
-0.15
-0.145
-0.145
-0.155
-0.17
-0.165
-0.155
-0.15
-0.16
-0.18
-0.195
-0.19
-0.17
-0.17
-0.17
-0.185
-0.21
-0.23
-0.2
-0.165
-0.17
-0.195
-0.23
-0.21
-0.195
-0.16
-0.165
-0.185
-0.205
-0.21
-0.205
-0.185
-0.18
-0.185
-0.205
-0.185
-0.175
-0.16
-0.16
-0.17
-0.16
-0.17
-0.17
-0.16
-0.155
-0.16
-0.175
-0.16
-0.155
-0.145
-0.145
-0.17
-0.17
-0.145
-0.14
-0.135
-0.135
-0.145
-0.175
-0.165
-0.15
-0.13
-0.13
-0.14
-0.155
-0.155
-0.135
-0.13
-0.105
-0.12
-0.13
-0.11
-0.09
-0.07
-0.07
-0.085
-0.095
-0.105
-0.095
-0.08
-0.075
-0.07
-0.07
-0.075
-0.065
-0.065
-0.1
-0.105
-0.12
-0.1
-0.085
-0.065
-0.075
-0.11
-0.14
-0.145
-0.145
-0.125
-0.125
-0.15
-0.185
-0.2
-0.16
-0.145
-0.135
-0.145
-0.145
-0.17
-0.17
-0.155
-0.185
-0.175
-0.175
-0.185
-0.17
-0.14
-0.135
-0.145
-0.135
-0.14
-0.135
-0.115
-0.125
-0.135
-0.135
-0.135
-0.135
-0.12
-0.13
-0.11
-0.08
-0.005
0.1
0.235
0.35
0.455
0.585
0.745
0.925
1.145
1.365
1.58
1.8
2.03
2.205
2.3
2.295
2.27
2.145
1.94
1.655
1.33
1.015
0.755
0.54
0.41
0.34
0.335
0.34
0.31
0.265
0.22
0.185
0.16
0.105
0.065
0.04
0.035
0.0
-0.015
-0.055
-0.095
-0.13
-0.145
-0.15
-0.155
-0.2
-0.22
-0.265
-0.29
-0.285
-0.275
-0.285
-0.3
-0.32
-0.325
-0.325
-0.3
-0.315
-0.32
-0.335
-0.345
-0.34
-0.32
-0.33
-0.335
-0.345
-0.34
-0.33
-0.325
-0.34
-0.355
-0.375
-0.37
-0.37
-0.355
-0.355
-0.375
-0.395
-0.41
-0.39
-0.38
-0.385
-0.4
-0.405
-0.405
-0.415
-0.4
-0.415
-0.435
-0.45
-0.46
-0.445
-0.44
-0.47
-0.49
-0.51
-0.505
-0.51
-0.49
-0.49
-0.52
-0.545
-0.54
-0.55
-0.53
-0.525
-0.55
-0.565
-0.545
-0.52
-0.51
-0.495
-0.485
-0.47
-0.465
-0.445
-0.41
-0.38
-0.365
-0.36
-0.34
-0.3
-0.26
-0.25
-0.255
-0.235
-0.215
-0.185
-0.15
-0.14
-0.14
-0.16
-0.16
-0.13
-0.105
-0.105
-0.105
-0.12
-0.125
-0.12
-0.11
-0.105
-0.105
-0.12
-0.11
-0.12
-0.1
-0.105
-0.125
-0.125
-0.12
-0.13
-0.115
-0.115
-0.145
-0.155
-0.135
-0.135
-0.12
-0.13
-0.14
-0.16
-0.15
-0.145
-0.125
-0.125
-0.13
-0.15
-0.17
-0.165
-0.135
-0.13
-0.135
-0.16
-0.17
-0.16
-0.145
-0.125
-0.13
-0.15
-0.16
-0.15
-0.13
-0.135
-0.135
-0.145
-0.13
-0.13
-0.125
-0.135
-0.15
-0.155
-0.155
-0.125
-0.115
-0.125
-0.135
-0.135
-0.125
-0.125
-0.1
-0.11
-0.13
-0.15
-0.135
-0.115
-0.1
-0.105
-0.14
-0.145
-0.135
-0.125
-0.105
-0.115
-0.13
-0.155
-0.145
-0.14
-0.11
-0.11
-0.125
-0.135
-0.13
-0.115
-0.1
-0.07
-0.055
-0.065
-0.08
-0.065
-0.055
-0.045
-0.065
-0.07
-0.06
-0.05
-0.035
-0.035
-0.04
-0.03
-0.055
-0.05
-0.05
-0.065
-0.07
-0.085
-0.095
-0.1
-0.105
-0.105
-0.13
-0.145
-0.145
-0.125
-0.115
-0.135
-0.155
-0.17
-0.18
-0.15
-0.135
-0.125
-0.15
-0.175
-0.195
-0.165
-0.145
-0.145
-0.15
-0.15
-0.165
-0.155
-0.14
-0.14
-0.155
-0.14
-0.155
-0.135
-0.12
-0.12
-0.135
-0.15
-0.085
0.01
0.135
0.205
0.27
0.32
0.38
0.465
0.585
0.725
0.895
1.085
1.3
1.53
1.77
1.995
2.115
2.175
2.14
2.015
1.73
1.34
0.985
0.745
0.615
0.55
0.5
0.445
0.405
0.385
0.38
0.38
0.365
0.335
0.27
0.185
0.15
0.125
0.105
0.075
0.035
-0.025
-0.055
-0.075
-0.095
-0.12
-0.155
-0.195
-0.22
-0.225
-0.23
-0.245
-0.29
-0.305
-0.315
-0.325
-0.3
-0.315
-0.32
-0.34
-0.35
-0.34
-0.315
-0.315
-0.335
-0.35
-0.365
-0.37
-0.37
-0.355
-0.38
-0.38
-0.38
-0.38
-0.375
-0.38
-0.405
-0.415
-0.425
-0.405
-0.4
-0.395
-0.43
-0.455
-0.47
-0.455
-0.45
-0.455
-0.47
-0.485
-0.485
-0.5
-0.495
-0.5
-0.515
-0.535
-0.545
-0.56
-0.55
-0.555
-0.57
-0.61
-0.6
-0.585
-0.58
-0.575
-0.585
-0.595
-0.605
-0.605
-0.585
-0.57
-0.57
-0.595
-0.58
-0.565
-0.535
-0.505
-0.505
-0.5
-0.495
-0.445
-0.435
-0.42
-0.4
-0.39
-0.345
-0.305
-0.27
-0.255
-0.235
-0.23
-0.22
-0.17
-0.15
-0.15
-0.165
-0.165
-0.15
-0.135
-0.115
-0.105
-0.125
-0.14
-0.15
-0.125
-0.12
-0.105
-0.11
-0.125
-0.12
-0.125
-0.11
-0.125
-0.13
-0.145
-0.14
-0.12
-0.11
-0.11
-0.13
-0.15
-0.15
-0.15
-0.14
-0.14
-0.17
-0.165
-0.16
-0.14
-0.13
-0.14
-0.16
-0.175
-0.175
-0.155
-0.15
-0.14
-0.155
-0.17
-0.185
-0.195
-0.175
-0.17
-0.17
-0.185
-0.16
-0.15
-0.155
-0.175
-0.175
-0.18
-0.175
-0.15
-0.145
-0.16
-0.17
-0.185
-0.17
-0.15
-0.13
-0.12
-0.14
-0.17
-0.18
-0.16
-0.125
-0.13
-0.145
-0.165
-0.175
-0.15
-0.135
-0.125
-0.145
-0.15
-0.165
-0.16
-0.16
-0.135
-0.14
-0.145
-0.135
-0.135
-0.13
-0.135
-0.165
-0.155
-0.16
-0.135
-0.12
-0.12
-0.13
-0.13
-0.125
-0.095
-0.08
-0.07
-0.06
-0.085
-0.12
-0.11
-0.1
-0.1
-0.1
-0.1
-0.09
-0.08
-0.065
-0.06
-0.07
-0.075
-0.065
-0.065
-0.07
-0.065
-0.095
-0.12
-0.145
-0.13
-0.13
-0.125
-0.13
-0.15
-0.16
-0.165
-0.16
-0.13
-0.135
-0.15
-0.16
-0.15
-0.135
-0.145
-0.17
-0.17
-0.18
-0.15
-0.125
-0.12
-0.145
-0.155
-0.16
-0.145
-0.12
-0.11
-0.135
-0.155
-0.165
-0.13
-0.105
-0.095
-0.125
-0.16
-0.175
-0.15
-0.07
0.015
0.11
0.205
0.305
0.42
0.535
0.65
0.79
0.96
1.16
1.375
1.595
1.8
2.0
2.16
2.26
2.315
2.335
2.295
2.185
2.02
1.755
1.425
1.06
0.765
0.565
0.45
0.415
0.4
0.4
0.365
0.305
0.235
0.185
0.17
0.14
0.115
0.065
0.05
0.035
0.025
0.0
-0.03
-0.065
-0.11
-0.14
-0.155
-0.17
-0.2
-0.245
-0.29
-0.305
-0.315
-0.295
-0.3
-0.305
-0.325
-0.34
-0.34
-0.31
-0.315
-0.335
-0.355
-0.365
-0.345
-0.335
-0.34
-0.365
-0.38
-0.375
-0.37
-0.36
-0.36
-0.385
-0.405
-0.385
-0.38
-0.385
-0.375
-0.38
-0.405
-0.42
-0.415
-0.4
-0.405
-0.45
-0.44
-0.46
-0.445
-0.445
-0.455
-0.465
-0.48
-0.48
-0.475
-0.45
-0.455
-0.485
-0.515
-0.525
-0.54
-0.525
-0.53
-0.535
-0.55
-0.565
-0.55
-0.54
-0.545
-0.565
-0.575
-0.58
-0.565
-0.55
-0.56
-0.58
-0.57
-0.575
-0.54
-0.51
-0.505
-0.495
-0.5
-0.495
-0.45
-0.42
-0.4
-0.385
-0.39
-0.385
-0.365
-0.335
-0.295
-0.28
-0.28
-0.245
-0.21
-0.185
-0.17
-0.165
-0.17
-0.165
-0.145
-0.135
-0.12
-0.12
-0.13
-0.135
-0.11
-0.09
-0.09
-0.095
-0.105
-0.11
-0.11
-0.1
-0.095
-0.1
-0.105
-0.11
-0.125
-0.125
-0.1
-0.11
-0.11
-0.11
-0.1
-0.1
-0.115
-0.13
-0.145
-0.145
-0.13
-0.11
-0.125
-0.12
-0.15
-0.15
-0.145
-0.105
-0.115
-0.13
-0.16
-0.16
-0.145
-0.15
-0.145
-0.135
-0.16
-0.17
-0.14
-0.145
-0.135
-0.145
-0.15
-0.145
-0.14
-0.13
-0.14
-0.14
-0.16
-0.14
-0.12
-0.11
-0.125
-0.14
-0.15
-0.16
-0.14
-0.12
-0.1
-0.115
-0.14
-0.135
-0.135
-0.11
-0.12
-0.125
-0.14
-0.13
-0.125
-0.125
-0.13
-0.135
-0.135
-0.13
-0.125
-0.12
-0.12
-0.125
-0.145
-0.15
-0.135
-0.115
-0.115
-0.13
-0.135
-0.13
-0.105
-0.095
-0.07
-0.075
-0.07
-0.085
-0.08
-0.065
-0.065
-0.075
-0.07
-0.065
-0.045
-0.03
-0.04
-0.05
-0.055
-0.055
-0.05
-0.04
-0.05
-0.07
-0.08
-0.09
-0.08
-0.08
-0.085
-0.1
-0.13
-0.14
-0.135
-0.13
-0.13
-0.125
-0.14
-0.14
-0.125
-0.125
-0.135
-0.14
-0.15
-0.16
-0.14
-0.135
-0.135
-0.14
-0.165
-0.16
-0.14
-0.12
-0.115
-0.12
-0.125
-0.15
-0.125
-0.13
-0.12
-0.13
-0.13
-0.115
-0.11
-0.13
-0.105
-0.09
-0.03
0.085
0.21
0.32
0.41
0.495
0.575
0.72
0.895
1.105
1.29
1.435
1.55
1.69
1.865
2.03
2.14
2.2
2.19
2.09
1.865
1.5
1.06
0.71
0.495
0.385
0.365
0.35
0.33
0.3
0.25
0.225
0.205
0.19
0.145
0.105
0.055
0.02
-0.005
-0.025
-0.045
-0.08
-0.12
-0.16
-0.185
-0.195
-0.23
-0.25
-0.27
-0.28
-0.275
-0.27
-0.275
-0.295
-0.325
-0.33
-0.33
-0.31
-0.315
-0.315
-0.33
-0.335
-0.34
-0.35
-0.335
-0.355
-0.36
-0.365
-0.34
-0.355
-0.355
-0.365
-0.38
-0.385
-0.39
-0.365
-0.35
-0.365
-0.395
-0.415
-0.405
-0.395
-0.39
-0.39
-0.41
-0.42
-0.42
-0.42
-0.42
-0.45
-0.47
-0.455
-0.46
-0.455
-0.435
-0.46
-0.475
-0.49
-0.49
-0.49
-0.485
-0.485
-0.505
-0.515
-0.51
-0.515
-0.525
-0.545
-0.54
-0.545
-0.54
-0.52
-0.525
-0.545
-0.555
-0.555
-0.545
-0.51
-0.49
-0.505
-0.5
-0.5
-0.48
-0.445
-0.44
-0.42
-0.395
-0.38
-0.365
-0.34
-0.325
-0.33
-0.325
-0.305
-0.27
-0.235
-0.22
-0.215
-0.21
-0.215
-0.185
-0.15
-0.135
-0.13
-0.15
-0.14
-0.14
-0.13
-0.125
-0.135
-0.145
-0.135
-0.12
-0.09
-0.105
-0.11
-0.135
-0.155
-0.14
-0.115
-0.12
-0.13
-0.14
-0.15
-0.13
-0.125
-0.14
-0.145
-0.16
-0.17
-0.155
-0.145
-0.17
-0.185
-0.195
-0.185
-0.185
-0.175
-0.175
-0.185
-0.2
-0.195
-0.185
-0.145
-0.15
-0.15
-0.17
-0.185
-0.21
-0.19
-0.205
-0.195
-0.2
-0.19
-0.185
-0.185
-0.2
-0.19
-0.185
-0.19
-0.18
-0.175
-0.175
-0.19
-0.2
-0.21
-0.19
-0.15
-0.135
-0.165
-0.18
-0.2
-0.2
-0.165
-0.155
-0.165
-0.185
-0.195
