Lead II
-0.765
-0.775
-0.77
-0.77
-0.77
-0.77
-0.765
-0.755
-0.74
-0.745
-0.725
-0.705
-0.7
-0.685
-0.69
-0.675
-0.67
-0.66
-0.645
-0.65
-0.65
-0.64
-0.64
-0.635
-0.645
-0.65
-0.665
-0.68
-0.7
-0.71
-0.715
-0.72
-0.735
-0.735
-0.745
-0.745
-0.77
-0.8
-0.815
-0.835
-0.835
-0.84
-0.835
-0.825
-0.825
-0.81
-0.795
-0.79
-0.79
-0.8
-0.805
-0.81
-0.81
-0.81
-0.795
-0.785
-0.76
-0.72
-0.675
-0.61
-0.535
-0.45
-0.35
-0.215
-0.045
0.16
0.415
0.645
0.865
1.03
1.2
1.355
1.505
1.59
1.565
1.345
0.98
0.445
-0.105
-0.595
-0.94
-1.115
-1.165
-1.14
-1.065
-1.015
-0.975
-0.96
-0.97
-0.96
-0.98
-0.975
-0.99
-0.99
-0.97
-0.98
-0.985
-1.0
-1.005
-1.015
-1.035
-1.025
-1.04
-1.045
-1.035
-1.035
-1.035
-1.025
-1.025
-1.04
-1.045
-1.055
-1.08
-1.085
-1.075
-1.08
-1.07
-1.075
-1.075
-1.07
-1.085
-1.085
-1.105
-1.11
-1.125
-1.115
-1.125
-1.14
-1.135
-1.135
-1.14
-1.14
-1.15
-1.145
-1.17
-1.17
-1.195
-1.2
-1.205
-1.205
-1.205
-1.205
-1.19
-1.205
-1.205
-1.215
-1.21
-1.225
-1.225
-1.225
-1.22
-1.215
-1.205
-1.195
-1.18
-1.17
-1.16
-1.155
-1.15
-1.15
-1.135
-1.13
-1.13
-1.12
-1.095
-1.07
-1.05
-1.025
-1.015
-1.0
-0.99
-0.975
-0.97
-0.945
-0.93
-0.915
-0.895
-0.875
-0.85
-0.845
-0.835
-0.835
-0.845
-0.84
-0.845
-0.85
-0.85
-0.85
-0.85
-0.845
-0.835
-0.835
-0.83
-0.85
-0.85
-0.865
-0.875
-0.89
-0.885
-0.895
-0.865
-0.875
-0.86
-0.86
-0.865
-0.865
-0.875
-0.895
-0.89
-0.905
-0.905
-0.895
-0.91
-0.905
-0.9
-0.89
-0.92
-0.915
-0.925
-0.925
-0.94
-0.95
-0.955
-0.96
-0.945
-0.95
-0.945
-0.945
-0.945
-0.95
-0.955
-0.96
-0.97
-0.96
-0.96
-0.965
-0.945
-0.94
-0.935
-0.94
-0.93
-0.92
-0.935
-0.93
-0.935
-0.925
-0.91
-0.905
-0.89
-0.88
-0.87
-0.865
-0.86
-0.86
-0.86
-0.855
-0.855
-0.84
-0.825
-0.815
-0.79
-0.77
-0.745
-0.74
-0.735
-0.74
-0.75
-0.775
-0.78
-0.8
-0.8
-0.815
-0.825
-0.825
-0.83
-0.85
-0.855
-0.865
-0.88
-0.905
-0.92
-0.925
-0.95
-0.935
-0.945
-0.94
-0.92
-0.92
-0.92
-0.93
-0.955
-0.93
-0.94
-0.93
-0.93
-0.915
-0.915
-0.895
-0.885
-0.87
-0.87
-0.875
-0.88
-0.85
-0.84
-0.815
-0.77
-0.735
-0.675
-0.59
-0.515
-0.425
-0.325
-0.195
-0.04
0.12
0.29
0.46
0.635
0.78
0.925
1.08
1.24
1.395
1.51
1.505
1.335
0.995
0.51
-0.035
-0.53
-0.915
-1.135
-1.22
-1.215
-1.145
-1.09
-1.05
-1.025
-1.015
-1.03
-1.04
-1.05
-1.05
-1.045
-1.06
-1.055
-1.055
-1.065
-1.06
-1.07
-1.08
-1.075
-1.1
-1.095
-1.095
-1.085
-1.085
-1.08
-1.075
-1.09
-1.085
-1.105
-1.115
-1.12
-1.135
-1.125
-1.13
-1.13
-1.125
-1.115
-1.125
-1.125
-1.15
-1.15
-1.145
-1.145
-1.16
-1.175
-1.165
-1.17
-1.17
-1.165
-1.165
-1.17
-1.175
-1.195
-1.195
-1.22
-1.22
-1.215
-1.22
-1.225
-1.22
-1.215
-1.225
-1.22
-1.225
-1.23
-1.245
-1.25
-1.26
-1.265
-1.26
-1.255
-1.245
-1.235
-1.225
-1.225
-1.205
-1.21
-1.215
-1.215
-1.195
-1.185
-1.165
-1.15
-1.14
-1.115
-1.1
-1.065
-1.05
-1.045
-1.04
-1.025
-1.015
-0.975
-0.955
-0.96
-0.93
-0.905
-0.89
-0.895
-0.875
-0.88
-0.895
-0.905
-0.885
-0.895
-0.885
-0.885
-0.87
-0.865
-0.865
-0.86
-0.86
-0.87
-0.87
-0.87
-0.88
-0.88
-0.88
-0.88
-0.88
-0.87
-0.875
-0.87
-0.89
-0.89
-0.89
-0.89
-0.9
-0.91
-0.9
-0.895
-0.905
-0.89
-0.89
-0.895
-0.905
-0.915
-0.925
-0.93
-0.945
-0.94
-0.935
-0.935
-0.93
-0.92
-0.925
-0.93
-0.935
-0.94
-0.95
-0.965
-0.96
-0.96
-0.96
-0.96
-0.945
-0.94
-0.935
-0.925
-0.93
-0.935
-0.94
-0.94
-0.945
-0.93
-0.91
-0.905
-0.895
-0.88
-0.865
-0.875
-0.865
-0.875
-0.865
-0.87
-0.87
-0.86
-0.845
-0.83
-0.815
-0.79
-0.775
-0.765
-0.75
-0.755
-0.745
-0.745
-0.745
-0.73
-0.715
-0.73
-0.73
-0.725
-0.735
-0.74
-0.755
-0.765
-0.79
-0.81
-0.82
-0.83
-0.835
-0.85
-0.86
-0.86
-0.865
-0.88
-0.89
-0.89
-0.895
-0.885
-0.885
-0.88
-0.885
-0.88
-0.875
-0.87
-0.855
-0.85
-0.84
-0.84
-0.84
-0.84
-0.845
-0.82
-0.81
-0.795
-0.76
-0.705
-0.655
-0.575
-0.46
-0.34
-0.185
0.015
0.245
0.495
0.72
0.935
1.11
1.265
1.425
1.55
1.545
1.365
1.0
0.495
-0.055
-0.545
-0.925
-1.13
-1.185
-1.15
-1.08
-1.02
-0.97
-0.96
-0.95
-0.945
-0.95
-0.965
-0.98
-0.98
-0.97
-0.955
-0.96
-0.96
-0.965
-0.97
-0.98
-0.99
-1.0
-1.005
-1.0
-1.0
-0.98
-0.985
-0.98
-0.99
-0.995
-1.005
-1.0
-1.02
-1.015
-1.015
-1.02
-1.03
-1.02
-1.025
-1.015
-1.025
-1.035
-1.055
-1.06
-1.065
-1.06
-1.07
-1.07
-1.07
-1.07
-1.08
-1.065
-1.065
-1.07
-1.095
-1.105
-1.13
-1.145
-1.15
-1.135
-1.135
-1.13
-1.12
-1.115
-1.115
-1.125
-1.125
-1.125
-1.13
-1.125
-1.115
-1.125
-1.09
-1.075
-1.055
-1.05
-1.025
-1.015
-1.005
-1.0
-0.985
-0.98
-0.96
-0.93
-0.92
-0.895
-0.865
-0.845
-0.82
-0.805
-0.795
-0.785
-0.78
-0.77
-0.77
-0.755
-0.755
-0.74
-0.74
-0.71
-0.705
-0.725
-0.725
-0.74
-0.745
-0.745
-0.745
-0.75
-0.75
-0.75
-0.74
-0.74
-0.745
-0.73
-0.745
-0.755
-0.77
-0.77
-0.775
-0.775
-0.775
-0.76
-0.765
-0.76
-0.77
-0.78
-0.785
-0.785
-0.8
-0.805
-0.8
-0.8
-0.795
-0.8
-0.79
-0.785
-0.79
-0.795
-0.815
-0.825
-0.82
-0.835
-0.83
-0.83
-0.825
-0.815
-0.82
-0.8
-0.81
-0.81
-0.81
-0.82
-0.82
-0.825
-0.83
-0.82
-0.795
-0.78
-0.765
-0.76
-0.75
-0.75
-0.755
-0.75
-0.75
-0.75
-0.74
-0.74
-0.725
-0.71
-0.68
-0.685
-0.66
-0.665
-0.67
-0.655
-0.65
-0.64
-0.625
-0.625
-0.61
-0.625
-0.595
-0.605
-0.605
-0.61
-0.635
-0.645
-0.675
-0.68
-0.7
-0.7
-0.705
-0.72
-0.705
-0.715
-0.725
-0.735
-0.76
-0.76
-0.765
-0.77
-0.775
-0.77
-0.76
-0.75
-0.745
-0.725
-0.75
-0.73
-0.72
-0.715
-0.725
-0.725
-0.715
-0.7
-0.675
-0.66
-0.635
-0.6
-0.535
-0.47
-0.39
-0.285
-0.165
0.0
0.19
0.415
0.635
0.835
0.985
1.11
1.22
1.345
1.465
1.525
1.445
1.21
0.83
0.335
-0.14
-0.555
-0.86
-1.01
-1.06
-1.04
-0.995
-0.94
-0.915
-0.9
-0.885
-0.88
-0.865
-0.845
-0.84
-0.855
-0.855
-0.865
-0.88
-0.88
-0.895
-0.9
-0.9
-0.9
-0.9
-0.895
-0.89
-0.88
-0.89
-0.89
-0.9
-0.91
-0.925
-0.94
-0.935
-0.94
-0.94
-0.93
-0.93
-0.925
-0.935
-0.95
-0.96
-0.975
-0.98
-0.99
-1.01
-0.99
-0.985
-0.99
-0.985
-0.99
-1.0
-1.01
-1.02
-1.035
-1.04
-1.05
-1.05
-1.06
-1.06
-1.055
-1.05
-1.045
-1.045
-1.04
-1.05
-1.055
-1.05
-1.055
-1.06
-1.05
-1.035
-1.01
-0.99
-0.985
-0.985
-0.97
-0.965
-0.97
-0.945
-0.92
-0.92
-0.9
-0.88
-0.85
-0.84
-0.805
-0.8
-0.775
-0.77
-0.755
-0.75
-0.74
-0.72
-0.71
-0.7
-0.685
-0.675
-0.665
-0.675
-0.675
-0.67
-0.68
-0.685
-0.69
-0.69
-0.7
-0.7
-0.69
-0.68
-0.675
-0.7
-0.69
-0.68
-0.705
-0.695
-0.71
-0.705
-0.71
-0.71
-0.7
-0.7
-0.7
-0.71
-0.705
-0.715
-0.73
-0.735
-0.735
-0.74
-0.75
-0.735
-0.73
-0.73
-0.73
-0.735
-0.735
-0.745
-0.745
-0.765
-0.765
-0.76
-0.775
-0.755
-0.75
-0.75
-0.75
-0.75
-0.75
-0.75
-0.76
-0.77
-0.765
-0.765
-0.75
-0.74
-0.735
-0.715
-0.705
-0.705
-0.7
-0.7
-0.7
-0.685
-0.675
-0.68
-0.675
-0.655
-0.645
-0.625
-0.605
-0.605
-0.585
-0.58
-0.57
-0.57
-0.555
-0.555
-0.545
-0.545
-0.545
-0.555
-0.56
-0.565
-0.595
-0.61
-0.615
-0.625
-0.65
-0.65
-0.655
-0.655
-0.665
-0.665
-0.685
-0.68
-0.685
-0.685
-0.7
-0.705
-0.695
-0.685
-0.665
-0.605
-0.565
-0.525
-0.47
-0.42
-0.35
-0.285
-0.205
-0.11
0.005
0.16
0.335
0.535
0.745
0.97
1.185
1.39
1.57
1.745
1.885
1.98
2.045
2.075
2.065
2.035
1.975
1.905
1.82
1.715
1.515
1.18
0.805
0.36
-0.045
-0.36
-0.57
-0.69
-0.76
-0.77
-0.755
-0.765
-0.79
-0.81
-0.845
-0.88
-0.905
-0.93
-0.93
-0.935
-0.945
-0.95
-0.95
-0.965
-0.98
-0.99
-1.01
-1.02
-1.045
-1.04
-1.045
-1.05
-1.055
-1.065
-1.065
-1.065
-1.08
-1.105
-1.12
-1.13
-1.145
-1.165
-1.165
-1.17
-1.18
-1.185
-1.195
-1.2
-1.22
-1.23
-1.245
-1.265
-1.28
-1.3
-1.32
-1.325
-1.335
-1.345
-1.36
-1.38
-1.38
-1.4
-1.43
-1.45
-1.48
-1.495
-1.51
-1.5
-1.51
-1.52
-1.525
-1.535
-1.555
-1.57
-1.58
-1.595
-1.6
-1.595
-1.6
-1.59
-1.575
-1.55
-1.535
-1.525
-1.5
-1.49
-1.485
-1.455
-1.45
-1.43
-1.395
-1.36
-1.315
-1.265
-1.215
-1.18
-1.155
-1.115
-1.085
-1.05
-1.035
-0.995
-0.97
-0.925
-0.915
-0.88
-0.86
-0.855
-0.84
-0.835
-0.835
-0.825
-0.825
-0.825
-0.825
-0.815
-0.805
-0.79
-0.775
-0.78
-0.79
-0.795
-0.795
-0.805
-0.815
-0.815
-0.81
-0.81
-0.8
-0.8
-0.81
-0.8
-0.815
-0.825
-0.83
-0.84
-0.85
-0.85
-0.86
-0.865
-0.86
-0.855
-0.85
-0.865
-0.87
-0.875
-0.88
-0.91
-0.9
-0.9
-0.905
-0.91
-0.895
-0.895
-0.885
-0.885
-0.885
-0.89
-0.885
-0.88
-0.885
-0.875
-0.87
-0.86
-0.845
-0.84
-0.82
-0.82
-0.795
-0.8
-0.79
-0.785
-0.78
-0.77
-0.755
-0.755
-0.75
-0.735
-0.72
-0.715
-0.715
-0.71
-0.7
-0.7
-0.68
-0.675
-0.67
-0.645
-0.63
-0.61
-0.595
-0.6
-0.6
-0.615
-0.625
-0.65
-0.655
-0.68
-0.68
-0.685
-0.695
-0.7
-0.71
-0.725
-0.725
-0.735
-0.75
-0.775
-0.79
-0.8
-0.805
-0.81
-0.815
-0.8
-0.79
-0.795
-0.78
-0.785
-0.79
-0.795
-0.795
-0.785
-0.785
-0.775
-0.775
-0.77
-0.74
-0.745
-0.735
-0.725
-0.71
-0.695
-0.655
-0.605
-0.545
-0.45
-0.345
-0.22
-0.05
0.15
0.395
0.635
0.855
1.055
1.245
1.435
1.605
1.71
1.69
1.5
1.13
0.635
0.085
-0.41
-0.785
-1.015
-1.085
-1.09
-1.03
-0.97
-0.935
-0.895
-0.88
-0.885
-0.895
-0.9
-0.915
-0.93
-0.945
-0.945
-0.945
-0.945
-0.94
-0.945
-0.945
-0.945
-0.95
-0.955
-0.965
-0.98
-0.98
-0.985
-0.99
-0.98
-0.985
-0.98
-0.975
-0.995
-0.99
-0.99
-1.0
-1.01
-1.01
-1.015
-1.015
-1.025
-1.015
-1.01
-1.015
-1.03
-1.025
-1.04
-1.05
-1.07
-1.08
-1.08
-1.08
-1.085
-1.08
-1.09
-1.085
-1.085
-1.09
-1.115
-1.12
-1.13
-1.135
-1.13
-1.145
-1.135
-1.13
-1.115
-1.12
-1.12
-1.125
-1.13
-1.13
-1.13
-1.125
-1.13
-1.115
-1.105
-1.08
-1.065
-1.05
-1.04
-1.03
-1.02
-1.025
-1.015
-1.0
-0.98
-0.96
-0.93
-0.915
-0.89
-0.87
-0.85
-0.815
-0.81
-0.81
-0.8
-0.79
-0.78
-0.77
-0.76
-0.75
-0.74
-0.74
-0.74
-0.74
-0.73
-0.735
-0.73
-0.735
-0.725
-0.725
-0.72
-0.71
-0.7
-0.7
-0.7
-0.69
-0.705
-0.705
-0.705
-0.695
-0.7
-0.68
-0.675
-0.665
-0.65
-0.645
-0.635
-0.64
-0.655
-0.665
-0.685
-0.71
-0.73
-0.755
-0.785
-0.79
-0.805
-0.82
-0.825
-0.84
-0.87
-0.895
-0.895
-0.925
-0.925
-0.95
-0.93
-0.925
-0.91
-0.895
-0.905
-0.9
-0.905
-0.905
-0.91
-0.915
-0.905
-0.9
-0.89
-0.87
-0.865
-0.845
-0.84
-0.84
-0.835
-0.815
-0.82
-0.795
-0.77
-0.75
-0.68
-0.615
-0.53
-0.42
-0.3
-0.165
-0.005
0.2
0.405
0.615
0.825
1.015
1.21
1.4
1.565
1.605
1.455
1.075
0.55
-0.03
-0.575
-0.95
-1.14
-1.17
-1.125
-1.04
-0.975
-0.91
-0.885
-0.89
-0.915
-0.94
-0.945
-0.965
-0.98
-0.985
-0.98
-0.97
-0.97
-0.965
-0.955
-0.965
-0.965
-0.985
-0.99
-1.0
-0.995
-1.0
-1.005
-1.005
-0.995
-0.99
-1.0
-1.015
-1.02
-1.03
-1.035
-1.04
-1.045
-1.04
-1.03
-1.04
-1.035
-1.03
-1.035
-1.03
-1.04
-1.05
-1.05
-1.065
-1.075
-1.07
-1.075
-1.07
-1.065
-1.075
-1.08
-1.09
-1.1
-1.11
-1.125
-1.135
-1.135
-1.135
-1.125
-1.13
-1.125
-1.115
-1.11
-1.12
-1.115
-1.125
-1.125
-1.12
-1.125
-1.105
-1.1
-1.09
-1.065
-1.04
-1.025
-1.02
-1.005
-0.995
-0.99
-0.965
-0.95
-0.93
-0.905
-0.885
-0.855
-0.835
-0.81
-0.8
-0.785
-0.775
-0.76
-0.76
-0.775
-0.765
-0.775
-0.765
-0.745
-0.75
-0.755
-0.745
-0.755
-0.755
-0.76
-0.765
-0.77
-0.78
-0.77
-0.76
-0.755
-0.755
-0.765
-0.76
-0.76
-0.77
-0.78
-0.775
-0.785
-0.78
-0.775
-0.77
-0.765
-0.76
-0.76
-0.77
-0.775
-0.785
-0.8
-0.795
-0.805
-0.795
-0.79
-0.79
-0.78
-0.775
-0.78
-0.785
-0.795
-0.8
-0.81
-0.81
-0.81
-0.8
-0.79
-0.79
-0.775
-0.76
-0.755
-0.765
-0.78
-0.795
-0.795
-0.78
-0.785
-0.78
-0.765
-0.755
-0.755
-0.75
-0.76
-0.76
-0.76
-0.775
-0.77
-0.77
-0.765
-0.755
-0.74
-0.745
-0.745
-0.73
-0.72
-0.72
-0.74
-0.74
-0.74
-0.745
-0.745
-0.745
-0.73
-0.73
-0.725
-0.705
-0.72
-0.72
-0.73
-0.73
-0.72
-0.73
-0.73
-0.725
-0.72
-0.7
-0.685
-0.68
-0.675
-0.665
-0.665
-0.68
-0.67
-0.675
-0.675
-0.67
-0.66
-0.65
-0.64
-0.615
-0.61
-0.615
-0.615
-0.61
-0.605
-0.575
-0.57
-0.575
-0.555
-0.555
-0.565
-0.57
-0.58
-0.595
-0.605
-0.635
-0.66
-0.665
-0.67
-0.68
-0.68
-0.7
-0.705
-0.715
-0.72
-0.72
-0.735
-0.745
-0.745
-0.74
-0.73
-0.73
-0.72
-0.71
-0.7
-0.69
-0.685
-0.68
-0.675
-0.67
-0.655
-0.625
-0.59
-0.54
-0.48
-0.39
-0.285
-0.145
0.015
0.225
0.435
0.66
0.84
1.015
1.145
1.26
1.405
1.56
1.685
1.7
1.525
1.19
0.7
0.19
-0.3
-0.665
-0.9
-1.005
-1.01
-0.985
-0.925
-0.885
-0.855
-0.84
-0.83
-0.84
-0.84
-0.855
-0.865
-0.885
-0.88
-0.88
-0.87
-0.855
-0.86
-0.855
-0.875
-0.875
-0.885
-0.91
-0.89
-0.895
-0.885
-0.885
-0.88
-0.87
-0.89
-0.895
-0.915
-0.925
-0.93
-0.945
-0.94
-0.95
-0.955
-0.945
-0.93
-0.95
-0.94
-0.95
-0.96
-0.965
-0.965
-0.99
-1.0
-0.995
-0.995
-0.995
-0.995
-0.995
-1.0
-1.0
-1.015
-1.035
-1.035
-1.045
-1.055
-1.04
-1.035
-1.035
-1.03
-1.025
-1.02
-1.045
-1.035
-1.045
-1.055
-1.06
-1.055
-1.045
-1.035
-1.025
-1.02
-1.015
-1.015
-1.01
-1.01
-0.995
-0.985
-0.97
-0.97
-0.955
-0.935
-0.92
-0.9
-0.865
-0.86
-0.85
-0.825
-0.815
-0.8
-0.785
-0.77
-0.75
-0.73
-0.72
-0.695
-0.685
-0.675
-0.66
-0.665
-0.675
-0.67
-0.675
-0.68
-0.68
-0.685
-0.665
-0.67
-0.655
-0.655
-0.665
-0.645
-0.66
-0.66
-0.69
-0.68
-0.695
-0.675
-0.675
-0.67
-0.67
-0.675
-0.68
-0.67
-0.685
-0.685
-0.695
-0.7
-0.71
-0.705
-0.7
-0.705
-0.685
-0.69
-0.695
-0.7
-0.71
-0.72
-0.72
-0.735
-0.74
-0.73
-0.74
-0.72
-0.715
-0.71
-0.705
-0.705
-0.705
-0.705
-0.71
-0.695
-0.685
-0.68
-0.685
-0.685
-0.685
-0.695
-0.685
-0.64
-0.575
-0.485
-0.35
-0.2
-0.055
0.08
0.175
0.245
0.275
0.235
0.115
-0.05
-0.24
-0.41
-0.535
-0.655
-0.77
-0.93
-1.11
-1.31
-1.48
-1.61
-1.69
-1.695
-1.675
-1.61
-1.54
-1.46
-1.395
-1.34
-1.295
-1.27
-1.22
-1.19
-1.14
-1.085
-1.055
-1.015
-0.995
-0.945
-0.92
-0.885
-0.85
-0.81
-0.78
-0.74
-0.73
-0.71
-0.725
-0.73
-0.75
-0.755
-0.77
-0.78
-0.775
-0.785
-0.775
-0.78
-0.78
-0.785
-0.775
-0.79
-0.8
-0.805
-0.82
-0.8
-0.79
-0.785
-0.795
-0.78
-0.795
-0.79
-0.8
-0.815
-0.815
-0.82
-0.825
-0.805
-0.81
-0.79
-0.79
-0.775
-0.79
-0.775
-0.775
-0.77
-0.76
-0.76
-0.74
-0.73
-0.69
-0.66
-0.625
-0.61
-0.59
-0.56
-0.53
-0.525
-0.49
-0.465
-0.435
-0.395
-0.36
-0.315
-0.285
-0.265
-0.25
-0.215
-0.205
-0.18
-0.17
-0.15
-0.15
-0.12
-0.115
-0.1
-0.085
-0.1
-0.11
-0.105
-0.135
-0.15
-0.17
-0.19
-0.21
-0.215
-0.23
-0.235
-0.235
-0.27
-0.285
-0.325
-0.33
-0.38
-0.38
-0.41
-0.41
-0.425
-0.435
-0.445
-0.455
-0.46
-0.475
-0.49
-0.505
-0.52
-0.535
-0.545
-0.545
-0.555
-0.55
-0.545
-0.55
-0.56
-0.555
-0.56
-0.57
-0.58
-0.585
-0.575
-0.58
-0.58
-0.57
-0.56
-0.555
-0.55
-0.555
-0.565
-0.585
-0.59
-0.6
-0.585
-0.59
-0.58
-0.57
-0.565
-0.57
-0.565
-0.57
-0.58
-0.58
-0.59
-0.6
-0.59
-0.595
-0.6
-0.595
-0.595
-0.585
-0.575
-0.585
-0.59
-0.595
-0.605
-0.615
-0.62
-0.62
-0.61
-0.605
-0.6
-0.605
-0.615
-0.6
-0.605
-0.605
-0.615
-0.625
-0.625
-0.625
-0.63
-0.615
-0.61
-0.615
-0.615
-0.615
-0.615
-0.625
-0.635
-0.64
-0.635
-0.64
-0.64
-0.635
-0.63
-0.625
-0.63
-0.625
-0.64
-0.64
-0.635
-0.635
-0.625
-0.605
-0.58
-0.545
-0.52
-0.475
-0.405
-0.33
-0.24
-0.155
-0.105
-0.105
-0.145
-0.205
-0.29
-0.385
-0.42
-0.435
-0.475
-0.54
-0.675
-0.86
-1.08
-1.32
-1.565
-1.76
-1.915
-2.0
-2.01
-1.97
-1.895
-1.795
-1.675
-1.565
-1.475
-1.375
-1.315
-1.245
-1.17
-1.105
-1.075
-1.025
-1.01
-0.985
-0.97
-0.97
-0.955
-0.925
-0.91
-0.86
-0.83
-0.8
-0.775
-0.74
-0.74
-0.72
-0.72
-0.715
-0.715
-0.72
-0.73
-0.735
-0.72
-0.72
-0.72
-0.725
-0.73
-0.725
-0.725
-0.73
-0.73
-0.74
-0.73
-0.73
-0.72
-0.725
-0.715
-0.71
-0.705
-0.725
-0.72
-0.725
-0.725
-0.72
-0.73
-0.725
-0.715
-0.705
-0.7
-0.685
-0.665
-0.675
-0.665
-0.665
-0.685
-0.68
-0.67
-0.655
-0.655
-0.635
-0.615
-0.595
-0.585
-0.57
-0.57
-0.56
-0.535
-0.53
-0.525
-0.5
-0.48
-0.465
-0.43
-0.4
-0.385
-0.38
-0.36
-0.35
-0.34
-0.335
-0.325
-0.315
-0.3
-0.285
-0.27
-0.25
-0.25
-0.25
-0.245
-0.245
-0.27
-0.27
-0.285
-0.3
-0.31
-0.31
-0.325
-0.34
-0.355
-0.39
-0.41
-0.435
-0.45
-0.47
-0.495
-0.515
-0.525
-0.54
-0.55
-0.555
-0.565
-0.595
-0.59
-0.6
-0.61
-0.625
-0.645
-0.645
-0.64
-0.645
-0.64
-0.635
-0.64
-0.64
-0.645
-0.665
-0.67
-0.665
-0.665
-0.66
-0.655
-0.65
-0.65
-0.645
-0.65
-0.635
-0.635
-0.64
-0.64
-0.66
-0.66
-0.65
-0.645
-0.65
-0.64
-0.63
-0.64
-0.63
-0.64
-0.645
-0.645
-0.665
-0.66
-0.655
-0.655
-0.65
-0.65
-0.645
-0.635
-0.64
-0.64
-0.65
-0.655
-0.675
-0.67
-0.675
-0.675
-0.66
-0.655
-0.66
-0.675
-0.675
-0.675
-0.695
-0.69
-0.695
-0.7
-0.715
-0.71
-0.695
-0.695
-0.7
-0.7
-0.7
-0.71
-0.715
-0.72
-0.725
-0.73
-0.725
-0.72
-0.735
-0.735
-0.72
-0.705
-0.7
-0.705
-0.715
-0.71
-0.725
-0.725
-0.725
-0.735
-0.72
-0.72
-0.72
-0.7
-0.715
-0.715
-0.72
-0.725
-0.735
-0.745
-0.745
-0.735
-0.725
-0.72
-0.73
-0.725
-0.73
-0.735
-0.73
-0.73
-0.74
-0.745
-0.74
-0.74
-0.74
-0.72
-0.715
-0.71
-0.715
-0.72
-0.72
-0.725
-0.725
-0.75
-0.74
-0.73
-0.725
-0.73
-0.715
-0.715
-0.715
-0.72
-0.725
-0.725
-0.73
-0.735
-0.72
-0.715
-0.695
-0.685
-0.675
-0.68
-0.68
-0.685
-0.675
-0.67
-0.67
-0.675
-0.67
-0.65
-0.63
-0.615
-0.59
-0.58
-0.575
-0.575
-0.58
-0.58
-0.58
-0.595
-0.6
-0.61
-0.615
-0.615
-0.625
-0.63
-0.65
-0.665
-0.68
-0.7
-0.715
-0.735
-0.74
-0.745
-0.755
-0.76
-0.76
-0.755
-0.76
-0.765
-0.765
-0.78
-0.77
-0.765
-0.765
-0.755
-0.735
-0.73
-0.72
-0.72
-0.7
-0.68
-0.675
-0.645
-0.595
-0.54
-0.45
-0.335
-0.17
0.03
0.26
0.495
0.735
0.94
1.115
1.295
1.47
1.615
1.67
1.54
1.21
0.695
0.095
-0.435
-0.815
-1.04
-1.095
-1.065
-0.995
-0.925
-0.87
-0.845
-0.83
-0.855
-0.855
-0.87
-0.89
-0.895
-0.915
-0.925
-0.93
-0.935
-0.93
-0.945
-0.92
-0.925
-0.925
-0.915
-0.93
-0.935
-0.94
-0.945
-0.955
-0.96
-0.965
-0.96
-0.955
-0.96
-0.955
-0.96
-0.955
-0.965
-0.97
-0.985
-0.995
-0.995
-0.985
-1.0
-0.995
-0.995
-1.005
-1.005
-1.0
-1.015
-1.035
-1.045
-1.045
-1.055
-1.075
-1.07
-1.055
-1.055
-1.07
-1.075
-1.075
-1.085
-1.095
-1.105
-1.12
-1.125
-1.135
-1.125
-1.135
-1.14
-1.12
-1.115
-1.125
-1.125
-1.125
-1.125
-1.135
-1.135
-1.125
-1.11
-1.09
-1.08
-1.06
-1.045
-1.035
-1.045
-1.015
-1.01
-0.99
-0.99
-0.975
-0.95
-0.915
-0.89
-0.87
-0.84
-0.835
-0.825
-0.815
-0.795
-0.79
-0.79
-0.785
-0.77
-0.77
-0.755
-0.745
-0.74
-0.735
-0.74
-0.745
-0.745
-0.745
-0.755
-0.755
-0.75
-0.74
-0.725
-0.725
-0.72
-0.72
-0.73
-0.725
-0.735
-0.755
-0.76
-0.76
-0.745
-0.76
-0.76
-0.74
-0.74
-0.75
-0.765
-0.775
-0.78
-0.79
-0.785
-0.79
-0.795
-0.79
-0.785
-0.775
-0.785
-0.79
-0.795
-0.805
-0.815
-0.835
-0.835
-0.825
-0.83
-0.825
-0.82
-0.82
-0.81
-0.825
-0.815
-0.82
-0.82
-0.83
-0.83
-0.83
-0.82
-0.805
-0.8
-0.79
-0.78
-0.765
-0.77
-0.765
-0.77
-0.755
-0.75
-0.74
-0.73
-0.72
-0.705
-0.69
-0.685
-0.68
-0.675
-0.67
-0.675
-0.67
-0.65
-0.65
-0.645
-0.625
-0.615
-0.59
-0.57
-0.57
-0.565
-0.565
-0.57
-0.58
-0.59
-0.595
-0.61
-0.6
-0.6
-0.615
-0.62
-0.645
-0.67
-0.68
-0.705
-0.71
-0.735
-0.735
-0.75
-0.75
-0.73
-0.735
-0.755
-0.74
-0.745
-0.74
-0.745
-0.74
-0.74
-0.745
-0.735
-0.715
-0.7
-0.695
-0.68
-0.68
-0.67
-0.655
-0.635
-0.62
-0.585
-0.525
-0.44
-0.34
-0.235
-0.085
0.065
0.245
0.44
0.635
0.835
1.01
1.145
1.285
1.44
1.595
1.675
1.63
1.415
1.025
0.53
0.025
-0.42
-0.755
-0.915
-0.975
-0.96
-0.905
-0.855
-0.82
-0.805
-0.81
-0.795
-0.8
-0.8
-0.82
-0.82
-0.815
-0.82
-0.815
-0.81
-0.805
-0.81
-0.82
-0.825
-0.84
-0.835
-0.845
-0.835
-0.85
-0.855
-0.86
-0.84
-0.85
-0.84
-0.86
-0.865
-0.855
-0.875
-0.875
-0.89
-0.89
-0.88
-0.87
-0.875
-0.865
-0.865
-0.885
-0.885
-0.91
-0.905
-0.92
-0.935
-0.945
-0.935
-0.925
-0.92
-0.915
-0.915
-0.925
-0.93
-0.94
-0.94
-0.945
-0.965
-0.95
-0.945
-0.96
-0.97
-0.945
-0.94
-0.945
-0.945
-0.955
-0.95
-0.955
-0.945
-0.94
-0.925
-0.92
-0.915
-0.89
-0.875
-0.86
-0.86
-0.86
-0.86
-0.855
-0.835
-0.825
-0.805
-0.79
-0.76
-0.735
-0.72
-0.695
-0.68
-0.665
-0.655
-0.645
-0.63
-0.61
-0.605
-0.595
-0.58
-0.565
-0.56
-0.565
-0.57
-0.575
-0.575
-0.58
-0.585
-0.58
-0.575
-0.565
-0.58
-0.57
-0.55
-0.575
-0.57
-0.59
-0.595
-0.6
-0.605
-0.61
-0.605
-0.6
-0.59
-0.595
-0.585
-0.6
-0.605
-0.605
-0.615
-0.625
-0.625
-0.635
-0.635
-0.64
-0.625
-0.615
-0.62
-0.62
-0.635
-0.64
-0.655
-0.655
-0.655
-0.66
-0.66
-0.65
-0.655
-0.65
-0.64
-0.645
-0.64
-0.65
-0.66
-0.66
-0.655
-0.655
-0.65
-0.65
-0.635
-0.635
-0.62
-0.62
-0.62
-0.615
-0.625
-0.62
-0.62
-0.61
-0.59
-0.585
-0.565
-0.555
-0.55
-0.54
-0.54
-0.53
-0.515
-0.5
-0.46
-0.425
-0.365
-0.295
-0.225
-0.125
-0.035
0.06
0.19
0.315
0.465
0.65
0.835
1.065
1.29
1.51
1.705
1.865
1.965
2.005
1.98
1.92
1.84
1.725
1.57
1.36
1.08
0.75
0.38
0.025
-0.26
-0.48
-0.635
-0.71
-0.73
-0.735
-0.75
-0.755
-0.76
-0.795
-0.81
-0.83
-0.865
-0.875
-0.885
-0.9
-0.9
-0.91
-0.925
-0.93
-0.95
-0.95
-0.95
-0.94
-0.945
-0.96
-0.98
-0.99
-1.0
-1.01
-1.035
-1.025
-1.035
-1.04
-1.045
-1.04
-1.045
-1.06
-1.075
-1.11
-1.115
-1.155
-1.16
-1.165
-1.17
-1.19
-1.2
-1.205
-1.215
-1.24
-1.255
-1.28
-1.3
-1.315
-1.335
-1.345
-1.355
-1.375
-1.39
-1.395
-1.385
-1.405
-1.425
-1.44
-1.44
-1.455
-1.47
-1.47
-1.49
-1.46
-1.465
-1.455
-1.425
-1.405
-1.42
-1.41
-1.38
-1.385
-1.37
-1.345
-1.32
-1.295
-1.255
-1.21
-1.175
-1.155
-1.13
-1.11
-1.075
-1.055
-1.025
-0.985
-0.96
-0.915
-0.89
-0.86
-0.835
-0.805
-0.785
-0.78
-0.775
-0.765
-0.75
-0.735
-0.72
-0.71
-0.695
-0.67
-0.67
-0.67
-0.655
-0.655
-0.67
-0.665
-0.67
-0.665
-0.655
-0.66
-0.655
-0.65
-0.645
-0.65
-0.66
-0.655
-0.675
-0.675
-0.7
-0.685
-0.68
-0.68
-0.68
-0.67
-0.68
-0.685
-0.685
-0.7
-0.71
-0.715
-0.71
-0.705
-0.705
-0.705
-0.705
-0.7
-0.69
-0.685
-0.67
-0.67
-0.675
-0.675
-0.675
-0.665
-0.66
-0.65
-0.64
-0.625
-0.61
-0.6
-0.61
-0.605
-0.6
-0.61
-0.61
-0.61
-0.61
-0.59
-0.595
-0.58
-0.575
-0.58
-0.575
-0.59
-0.595
-0.6
-0.595
-0.595
-0.585
-0.585
-0.575
-0.58
-0.565
-0.57
-0.56
-0.56
-0.57
-0.58
-0.58
-0.575
-0.58
-0.57
-0.57
-0.55
-0.54
-0.55
-0.555
-0.545
-0.56
-0.565
-0.565
-0.57
-0.56
-0.555
-0.535
-0.52
-0.53
-0.52
-0.515
-0.515
-0.525
-0.52
-0.52
-0.52
-0.515
-0.49
-0.5
-0.48
-0.475
-0.475
-0.465
-0.46
-0.46
-0.45
-0.445
-0.43
-0.415
-0.405
-0.385
-0.37
-0.365
-0.375
-0.38
-0.395
-0.405
-0.43
-0.44
-0.455
-0.455
-0.475
-0.485
-0.485
-0.485
-0.505
-0.52
-0.535
-0.55
-0.565
-0.58
-0.575
-0.57
-0.56
-0.56
-0.545
-0.54
-0.545
-0.545
-0.555
-0.555
-0.55
-0.545
-0.55
-0.54
-0.525
-0.505
-0.49
-0.455
-0.4
-0.345
-0.27
-0.18
-0.055
0.085
0.265
0.475
0.715
0.965
1.18
1.345
1.49
1.635
1.785
1.895
1.875
1.665
1.285
0.775
0.225
-0.27
-0.625
-0.83
-0.885
-0.865
-0.805
-0.765
-0.715
-0.7
-0.685
-0.68
-0.675
-0.685
-0.685
-0.68
-0.685
-0.705
-0.725
-0.725
-0.715
-0.73
-0.73
-0.735
-0.73
-0.74
-0.725
-0.725
-0.725
-0.73
-0.73
-0.75
-0.75
-0.76
-0.765
-0.77
-0.76
-0.765
-0.755
-0.76
-0.755
-0.765
-0.77
-0.785
-0.79
-0.8
-0.81
-0.825
-0.82
-0.81
-0.8
-0.815
-0.835
-0.83
-0.845
-0.865
-0.865
-0.88
-0.885
-0.89
-0.885
-0.9
-0.9
-0.895
-0.895
-0.905
-0.91
-0.915
-0.915
-0.925
-0.92
-0.92
-0.905
-0.905
-0.9
-0.89
-0.88
-0.875
-0.87
-0.87
-0.865
-0.85
-0.84
-0.825
-0.82
-0.79
-0.765
-0.745
-0.72
-0.7
-0.68
-0.675
-0.65
-0.645
-0.635
-0.615
-0.595
-0.59
-0.57
-0.55
-0.54
-0.535
-0.535
-0.54
-0.54
-0.535
-0.535
-0.54
-0.53
-0.53
-0.53
-0.53
-0.525
-0.525
-0.535
-0.54
-0.555
-0.555
-0.54
-0.55
-0.545
-0.55
-0.545
-0.55
-0.555
-0.56
-0.57
-0.575
-0.585
-0.59
-0.605
-0.585
-0.595
-0.59
-0.595
-0.59
-0.59
-0.61
-0.62
-0.625
-0.63
-0.655
-0.65
-0.65
-0.635
-0.64
-0.635
-0.635
-0.645
-0.65
-0.65
-0.655
-0.655
-0.665
-0.66
-0.655
-0.645
-0.635
-0.615
-0.605
-0.6
-0.605
-0.595
-0.59
-0.6
-0.6
-0.59
-0.58
-0.565
-0.555
-0.54
-0.525
-0.515
-0.505
-0.5
-0.49
-0.485
-0.475
-0.455
-0.455
-0.44
-0.435
-0.43
-0.425
-0.45
-0.46
-0.495
-0.495
-0.525
-0.555
-0.56
-0.57
-0.56
-0.575
-0.585
-0.59
-0.61
-0.635
-0.625
-0.635
-0.64
-0.645
-0.63
-0.635
-0.625
-0.615
-0.605
-0.6
-0.6
-0.595
-0.59
-0.585
-0.585
-0.59
-0.58
-0.56
-0.545
-0.515
-0.475
-0.43
-0.355
-0.3
-0.2
-0.08
0.035
0.185
0.38
0.585
0.785
0.97
1.135
1.26
1.42
1.57
1.725
1.84
1.855
1.72
1.42
0.99
0.505
0.0
-0.385
-0.675
-0.835
-0.875
-0.87
-0.815
-0.78
-0.765
-0.75
-0.745
-0.745
-0.735
-0.73
-0.725
-0.735
-0.745
-0.745
-0.765
-0.77
-0.78
-0.775
-0.775
-0.775
-0.77
-0.765
-0.775
-0.78
-0.785
-0.79
-0.79
-0.8
-0.81
-0.815
-0.82
-0.825
-0.815
-0.815
-0.815
-0.815
-0.82
-0.845
-0.84
-0.86
-0.87
-0.865
-0.875
-0.86
-0.855
-0.86
-0.86
-0.87
-0.88
-0.895
-0.905
-0.92
-0.915
-0.92
-0.935
-0.94
-0.945
-0.93
