Lead II
-0.305
-0.29
-0.28
-0.27
-0.27
-0.27
-0.26
-0.255
-0.265
-0.265
-0.25
-0.255
-0.235
-0.23
-0.22
-0.205
-0.205
-0.19
-0.2
-0.18
-0.18
-0.19
-0.2
-0.215
-0.215
-0.23
-0.235
-0.245
-0.245
-0.265
-0.29
-0.305
-0.32
-0.34
-0.345
-0.355
-0.355
-0.345
-0.36
-0.345
-0.35
-0.355
-0.355
-0.36
-0.375
-0.38
-0.375
-0.38
-0.375
-0.37
-0.365
-0.365
-0.365
-0.385
-0.38
-0.365
-0.37
-0.37
-0.375
-0.38
-0.37
-0.375
-0.375
-0.39
-0.435
-0.5
-0.57
-0.62
-0.63
-0.53
-0.305
0.01
0.385
0.8
1.16
1.405
1.455
1.265
0.86
0.365
-0.075
-0.38
-0.515
-0.565
-0.555
-0.55
-0.575
-0.675
-0.8
-0.915
-1.02
-1.085
-1.115
-1.115
-1.07
-1.035
-0.96
-0.89
-0.8
-0.72
-0.64
-0.575
-0.52
-0.48
-0.465
-0.44
-0.435
-0.425
-0.415
-0.41
-0.385
-0.4
-0.385
-0.39
-0.39
-0.385
-0.39
-0.385
-0.39
-0.395
-0.38
-0.36
-0.355
-0.335
-0.34
-0.34
-0.355
-0.345
-0.355
-0.355
-0.345
-0.345
-0.335
-0.33
-0.32
-0.3
-0.315
-0.305
-0.3
-0.31
-0.315
-0.315
-0.315
-0.31
-0.305
-0.305
-0.29
-0.285
-0.28
-0.275
-0.28
-0.29
-0.285
-0.295
-0.28
-0.28
-0.265
-0.265
-0.245
-0.24
-0.24
-0.23
-0.21
-0.23
-0.23
-0.22
-0.23
-0.225
-0.215
-0.205
-0.195
-0.18
-0.17
-0.165
-0.165
-0.165
-0.16
-0.15
-0.16
-0.16
-0.145
-0.14
-0.115
-0.1
-0.12
-0.1
-0.105
-0.1
-0.095
-0.085
-0.085
-0.075
-0.06
-0.065
-0.05
-0.025
-0.015
-0.01
0.0
0.005
0.01
0.015
0.02
0.025
0.045
0.055
0.075
0.085
0.075
0.09
0.095
0.085
0.1
0.105
0.125
0.12
0.13
0.115
0.15
0.15
0.145
0.145
0.135
0.13
0.125
0.11
0.095
0.095
0.095
0.09
0.09
0.085
0.065
0.07
0.05
0.035
0.02
0.0
-0.015
-0.025
-0.02
-0.02
-0.03
-0.03
-0.035
-0.045
-0.06
-0.07
-0.085
-0.095
-0.1
-0.11
-0.095
-0.105
-0.1
-0.1
-0.11
-0.115
-0.13
-0.13
-0.14
-0.14
-0.15
-0.16
-0.155
-0.15
-0.155
-0.15
-0.165
-0.175
-0.19
-0.195
-0.21
-0.215
-0.215
-0.22
-0.2
-0.205
-0.2
-0.205
-0.21
-0.215
-0.225
-0.24
-0.245
-0.255
-0.255
-0.255
-0.255
-0.255
-0.26
-0.24
-0.245
-0.25
-0.255
-0.265
-0.275
-0.29
-0.285
-0.29
-0.275
-0.27
-0.28
-0.28
-0.265
-0.285
-0.29
-0.29
-0.31
-0.305
-0.3
-0.305
-0.295
-0.295
-0.285
-0.295
-0.29
-0.295
-0.3
-0.3
-0.31
-0.3
-0.31
-0.31
-0.31
-0.29
-0.305
-0.295
-0.3
-0.29
-0.32
-0.305
-0.315
-0.32
-0.315
-0.315
-0.3
-0.3
-0.3
-0.29
-0.295
-0.285
-0.295
-0.3
-0.31
-0.325
-0.315
-0.32
-0.32
-0.31
-0.295
-0.285
-0.295
-0.285
-0.29
-0.29
-0.29
-0.275
-0.27
-0.265
-0.26
-0.245
-0.235
-0.23
-0.225
-0.215
-0.215
-0.21
-0.215
-0.2
-0.19
-0.185
-0.17
-0.155
-0.15
-0.14
-0.155
-0.175
-0.18
-0.205
-0.215
-0.225
-0.235
-0.24
-0.245
-0.24
-0.255
-0.26
-0.265
-0.28
-0.29
-0.31
-0.32
-0.335
-0.33
-0.335
-0.325
-0.325
-0.32
-0.31
-0.32
-0.335
-0.32
-0.34
-0.35
-0.345
-0.35
-0.34
-0.335
-0.33
-0.34
-0.32
-0.315
-0.315
-0.315
-0.315
-0.315
-0.34
-0.34
-0.35
-0.375
-0.415
-0.475
-0.545
-0.575
-0.55
-0.43
-0.185
0.145
0.53
0.935
1.27
1.485
1.485
1.255
0.81
0.31
-0.1
-0.36
-0.465
-0.49
-0.495
-0.515
-0.565
-0.665
-0.79
-0.9
-0.985
-1.04
-1.055
-1.035
-0.995
-0.925
-0.855
-0.77
-0.68
-0.595
-0.53
-0.465
-0.415
-0.395
-0.385
-0.37
-0.37
-0.365
-0.36
-0.365
-0.36
-0.35
-0.335
-0.335
-0.315
-0.315
-0.305
-0.31
-0.32
-0.325
-0.325
-0.325
-0.325
-0.325
-0.31
-0.295
-0.29
-0.275
-0.285
-0.3
-0.3
-0.3
-0.315
-0.305
-0.31
-0.3
-0.285
-0.28
-0.27
-0.27
-0.265
-0.28
-0.265
-0.28
-0.285
-0.275
-0.265
-0.265
-0.255
-0.245
-0.24
-0.23
-0.22
-0.225
-0.23
-0.235
-0.24
-0.23
-0.22
-0.215
-0.205
-0.195
-0.18
-0.18
-0.185
-0.17
-0.175
-0.175
-0.175
-0.17
-0.165
-0.16
-0.15
-0.13
-0.14
-0.125
-0.12
-0.125
-0.115
-0.125
-0.125
-0.135
-0.135
-0.12
-0.115
-0.11
-0.085
-0.09
-0.09
-0.085
-0.08
-0.07
-0.075
-0.08
-0.07
-0.055
-0.045
-0.02
-0.01
0.0
0.015
0.01
0.01
0.015
0.015
0.03
0.04
0.06
0.065
0.08
0.08
0.085
0.09
0.09
0.095
0.095
0.115
0.125
0.115
0.13
0.145
0.17
0.19
0.19
0.18
0.185
0.185
0.185
0.185
0.18
0.17
0.185
0.2
0.2
0.215
0.195
0.19
0.195
0.2
0.18
0.16
0.155
0.155
0.15
0.155
0.15
0.16
0.145
0.135
0.125
0.095
0.095
0.08
0.08
0.085
0.085
0.07
0.08
0.08
0.055
0.06
0.045
0.025
0.025
0.01
0.01
0.005
0.005
0.0
-0.01
-0.005
-0.035
-0.055
-0.085
-0.095
-0.11
-0.115
-0.11
-0.12
-0.12
-0.115
-0.11
-0.105
-0.125
-0.125
-0.135
-0.155
-0.145
-0.155
-0.17
-0.165
-0.175
-0.175
-0.18
-0.175
-0.18
-0.165
-0.185
-0.18
-0.2
-0.205
-0.215
-0.225
-0.215
-0.215
-0.195
-0.205
-0.205
-0.205
-0.22
-0.235
-0.245
-0.245
-0.245
-0.24
-0.23
-0.235
-0.225
-0.23
-0.23
-0.235
-0.24
-0.255
-0.26
-0.265
-0.255
-0.245
-0.23
-0.22
-0.215
-0.215
-0.215
-0.225
-0.235
-0.255
-0.245
-0.26
-0.26
-0.255
-0.245
-0.235
-0.24
-0.24
-0.25
-0.24
-0.25
-0.245
-0.25
-0.245
-0.255
-0.26
-0.26
-0.255
-0.24
-0.235
-0.23
-0.225
-0.24
-0.225
-0.25
-0.25
-0.255
-0.26
-0.25
-0.25
-0.245
-0.245
-0.255
-0.24
-0.245
-0.255
-0.26
-0.255
-0.26
-0.23
-0.21
-0.215
-0.2
-0.175
-0.185
-0.17
-0.19
-0.18
-0.185
-0.18
-0.18
-0.175
-0.16
-0.155
-0.12
-0.11
-0.1
-0.105
-0.105
-0.115
-0.13
-0.165
-0.175
-0.195
-0.195
-0.21
-0.22
-0.215
-0.23
-0.23
-0.245
-0.25
-0.285
-0.3
-0.3
-0.29
-0.28
-0.28
-0.265
-0.255
-0.27
-0.28
-0.3
-0.315
-0.32
-0.32
-0.315
-0.29
-0.275
-0.26
-0.27
-0.255
-0.27
-0.265
-0.275
-0.29
-0.295
-0.3
-0.31
-0.35
-0.39
-0.465
-0.51
-0.47
-0.335
-0.055
0.325
0.765
1.18
1.465
1.535
1.33
0.875
0.32
-0.165
-0.45
-0.575
-0.57
-0.55
-0.54
-0.585
-0.675
-0.78
-0.885
-0.965
-1.0
-0.995
-0.965
-0.92
-0.855
-0.77
-0.695
-0.62
-0.55
-0.475
-0.42
-0.375
-0.35
-0.32
-0.31
-0.305
-0.3
-0.295
-0.28
-0.28
-0.275
-0.265
-0.265
-0.25
-0.25
-0.24
-0.24
-0.25
-0.25
-0.26
-0.28
-0.275
-0.27
-0.25
-0.23
-0.225
-0.22
-0.225
-0.235
-0.245
-0.255
-0.26
-0.26
-0.255
-0.255
-0.245
-0.225
-0.21
-0.205
-0.2
-0.195
-0.195
-0.195
-0.2
-0.21
-0.22
-0.22
-0.23
-0.225
-0.21
-0.205
-0.19
-0.18
-0.18
-0.175
-0.18
-0.175
-0.175
-0.18
-0.185
-0.18
-0.165
-0.16
-0.15
-0.13
-0.125
-0.125
-0.13
-0.14
-0.14
-0.145
-0.125
-0.11
-0.09
-0.085
-0.09
-0.08
-0.08
-0.085
-0.09
-0.095
-0.085
-0.095
-0.1
-0.105
-0.095
-0.075
-0.065
-0.04
-0.015
0.0
0.0
-0.005
0.0
-0.02
-0.005
0.005
0.015
0.025
0.025
0.045
0.05
0.05
0.07
0.08
0.09
0.085
0.095
0.11
0.125
0.135
0.15
0.155
0.155
0.16
0.16
0.15
0.165
0.16
0.16
0.165
0.18
0.175
0.19
0.2
0.2
0.195
0.195
0.185
0.17
0.15
0.15
0.15
0.155
0.145
0.155
0.145
0.135
0.125
0.115
0.12
0.11
0.1
0.1
0.1
0.1
0.09
0.085
0.08
0.075
0.055
0.04
0.025
0.02
0.0
-0.01
-0.015
-0.015
-0.025
-0.035
-0.03
-0.045
-0.055
-0.075
-0.07
-0.085
-0.095
-0.1
-0.1
-0.105
-0.12
-0.125
-0.135
-0.14
-0.14
-0.15
-0.16
-0.17
-0.185
-0.195
-0.2
-0.2
-0.195
-0.185
-0.19
-0.195
-0.205
-0.21
-0.225
-0.215
-0.23
-0.24
-0.24
-0.235
-0.24
-0.225
-0.225
-0.225
-0.225
-0.235
-0.25
-0.25
-0.265
-0.27
-0.285
-0.27
-0.26
-0.26
-0.255
-0.255
-0.27
-0.275
-0.28
-0.295
-0.29
-0.29
-0.285
-0.285
-0.27
-0.265
-0.265
-0.265
-0.28
-0.275
-0.275
-0.29
-0.305
-0.31
-0.295
-0.295
-0.275
-0.28
-0.265
-0.27
-0.275
-0.28
-0.28
-0.28
-0.29
-0.285
-0.285
-0.265
-0.245
-0.24
-0.225
-0.21
-0.22
-0.22
-0.215
-0.22
-0.215
-0.215
-0.2
-0.18
-0.155
-0.135
-0.13
-0.14
-0.14
-0.15
-0.15
-0.16
-0.185
-0.2
-0.225
-0.22
-0.22
-0.225
-0.235
-0.23
-0.245
-0.255
-0.265
-0.275
-0.3
-0.315
-0.315
-0.305
-0.3
-0.295
-0.29
-0.29
-0.3
-0.31
-0.325
-0.32
-0.33
-0.33
-0.33
-0.32
-0.305
-0.3
-0.3
-0.3
-0.305
-0.305
-0.305
-0.315
-0.315
-0.31
-0.315
-0.315
-0.325
-0.34
-0.35
-0.395
-0.45
-0.525
-0.57
-0.525
-0.4
-0.165
0.155
0.545
0.925
1.235
1.45
1.465
1.26
0.84
0.355
-0.07
-0.345
-0.455
-0.485
-0.475
-0.48
-0.51
-0.61
-0.71
-0.83
-0.925
-0.985
-1.02
-1.015
-0.98
-0.945
-0.88
-0.8
-0.72
-0.62
-0.545
-0.475
-0.435
-0.395
-0.38
-0.38
-0.36
-0.35
-0.335
-0.32
-0.31
-0.305
-0.305
-0.29
-0.3
-0.295
-0.315
-0.315
-0.3
-0.3
-0.3
-0.3
-0.285
-0.28
-0.275
-0.275
-0.285
-0.29
-0.285
-0.3
-0.29
-0.285
-0.285
-0.265
-0.265
-0.255
-0.25
-0.255
-0.255
-0.255
-0.255
-0.26
-0.25
-0.25
-0.25
-0.235
-0.235
-0.215
-0.215
-0.21
-0.21
-0.2
-0.215
-0.215
-0.21
-0.22
-0.215
-0.195
-0.19
-0.17
-0.165
-0.165
-0.18
-0.17
-0.175
-0.165
-0.16
-0.165
-0.165
-0.17
-0.14
-0.135
-0.115
-0.115
-0.115
-0.115
-0.115
-0.11
-0.105
-0.1
-0.095
-0.08
-0.075
-0.065
-0.055
-0.055
-0.06
-0.065
-0.065
-0.04
-0.035
-0.035
-0.025
-0.005
0.01
0.025
0.03
0.04
0.045
0.035
0.05
0.05
0.055
0.05
0.065
0.08
0.1
0.11
0.115
0.11
0.11
0.12
0.105
0.1
0.105
0.105
0.11
0.11
0.125
0.13
0.135
0.125
0.115
0.105
0.085
0.075
0.065
0.055
0.05
0.045
0.05
0.05
0.045
0.04
0.03
0.03
0.025
0.005
-0.005
-0.005
-0.005
0.005
-0.005
0.005
-0.005
-0.01
-0.01
-0.025
-0.04
-0.045
-0.055
-0.06
-0.055
-0.06
-0.065
-0.055
-0.055
-0.055
-0.07
-0.08
-0.095
-0.11
-0.115
-0.125
-0.115
-0.12
-0.12
-0.115
-0.125
-0.14
-0.145
-0.15
-0.16
-0.17
-0.175
-0.18
-0.185
-0.18
-0.19
-0.2
-0.2
-0.21
-0.21
-0.225
-0.235
-0.245
-0.25
-0.255
-0.25
-0.265
-0.25
-0.235
-0.235
-0.24
-0.245
-0.26
-0.27
-0.27
-0.275
-0.28
-0.29
-0.275
-0.275
-0.27
-0.265
-0.275
-0.28
-0.28
-0.285
-0.295
-0.295
-0.3
-0.29
-0.29
-0.285
-0.275
-0.295
-0.295
-0.285
-0.28
-0.29
-0.305
-0.305
-0.3
-0.3
-0.295
-0.29
-0.285
-0.3
-0.285
-0.29
-0.3
-0.31
-0.31
-0.31
-0.305
-0.305
-0.305
-0.3
-0.295
-0.295
-0.295
-0.305
-0.3
-0.31
-0.315
-0.33
-0.31
-0.31
-0.305
-0.3
-0.3
-0.305
-0.305
-0.295
-0.305
-0.305
-0.325
-0.315
-0.31
-0.29
-0.295
-0.295
-0.28
-0.285
-0.285
-0.285
-0.285
-0.28
-0.285
-0.275
-0.26
-0.26
-0.245
-0.245
-0.24
-0.23
-0.2
-0.195
-0.195
-0.195
-0.175
-0.165
-0.165
-0.165
-0.165
-0.165
-0.18
-0.18
-0.2
-0.22
-0.235
-0.25
-0.265
-0.265
-0.27
-0.295
-0.29
-0.31
-0.315
-0.3
-0.31
-0.32
-0.32
-0.335
-0.34
-0.345
-0.34
-0.33
-0.32
-0.32
-0.305
-0.305
-0.31
-0.31
-0.315
-0.33
-0.335
-0.34
-0.35
-0.35
-0.34
-0.345
-0.335
-0.35
-0.375
-0.41
-0.485
-0.545
-0.605
-0.55
-0.39
-0.115
0.24
0.65
1.025
1.325
1.455
1.34
0.99
0.51
0.04
-0.295
-0.465
-0.515
-0.52
-0.505
-0.535
-0.615
-0.735
-0.86
-0.97
-1.04
-1.065
-1.065
-1.025
-0.965
-0.9
-0.83
-0.735
-0.655
-0.575
-0.51
-0.465
-0.435
-0.415
-0.39
-0.39
-0.37
-0.365
-0.38
-0.355
-0.35
-0.345
-0.335
-0.335
-0.34
-0.335
-0.34
-0.33
-0.325
-0.32
-0.31
-0.305
-0.305
-0.305
-0.3
-0.305
-0.315
-0.305
-0.305
-0.305
-0.31
-0.3
-0.285
-0.28
-0.28
-0.285
-0.285
-0.285
-0.28
-0.29
-0.295
-0.28
-0.27
-0.265
-0.26
-0.245
-0.255
-0.245
-0.24
-0.24
-0.26
-0.26
-0.255
-0.255
-0.25
-0.225
-0.225
-0.22
-0.215
-0.225
-0.22
-0.215
-0.205
-0.21
-0.215
-0.205
-0.195
-0.19
-0.175
-0.175
-0.16
-0.155
-0.165
-0.165
-0.16
-0.17
-0.165
-0.165
-0.165
-0.145
-0.14
-0.12
-0.13
-0.12
-0.125
-0.12
-0.14
-0.135
-0.13
-0.135
-0.125
-0.125
-0.115
-0.1
-0.085
-0.08
-0.08
-0.07
-0.075
-0.075
-0.07
-0.06
-0.045
-0.025
-0.015
0.0
0.015
0.015
0.015
0.01
0.005
0.025
0.025
0.045
0.045
0.055
0.075
0.085
0.095
0.1
0.11
0.115
0.11
0.11
0.11
0.115
0.11
0.125
0.135
0.14
0.14
0.135
0.13
0.13
0.115
0.11
0.115
0.115
0.11
0.115
0.115
0.115
0.105
0.095
0.085
0.045
0.06
0.065
0.065
0.06
0.07
0.06
0.06
0.045
0.05
0.03
0.01
0.01
0.0
-0.015
-0.035
-0.035
-0.025
-0.025
-0.03
-0.03
-0.035
-0.065
-0.09
-0.095
-0.1
-0.125
-0.125
-0.125
-0.135
-0.135
-0.145
-0.135
-0.145
-0.15
-0.155
-0.155
-0.165
-0.17
-0.175
-0.185
-0.18
-0.19
-0.205
-0.2
-0.205
-0.205
-0.215
-0.21
-0.215
-0.215
-0.205
-0.22
-0.24
-0.24
-0.24
-0.23
-0.23
-0.22
-0.22
-0.215
-0.225
-0.23
-0.25
-0.245
-0.25
-0.255
-0.245
-0.23
-0.24
-0.245
-0.255
-0.255
-0.28
-0.275
-0.29
-0.305
-0.27
-0.275
-0.265
-0.25
-0.25
-0.26
-0.255
-0.255
-0.255
-0.265
-0.255
-0.255
-0.25
-0.25
-0.25
-0.245
-0.255
-0.26
-0.27
-0.27
-0.28
-0.29
-0.3
-0.3
-0.295
-0.29
-0.275
-0.26
-0.25
-0.245
-0.245
-0.24
-0.245
-0.25
-0.255
-0.275
-0.295
-0.28
-0.27
-0.26
-0.25
-0.25
-0.24
-0.24
-0.235
-0.245
-0.245
-0.24
-0.23
-0.21
-0.21
-0.205
-0.2
-0.195
-0.2
-0.2
-0.19
-0.17
-0.155
-0.135
-0.125
-0.11
-0.115
-0.115
-0.125
-0.13
-0.15
-0.17
-0.17
-0.175
-0.195
-0.205
-0.205
-0.21
-0.225
-0.23
-0.245
-0.245
-0.26
-0.28
-0.28
-0.27
-0.265
-0.28
-0.28
-0.275
-0.275
-0.275
-0.285
-0.275
-0.28
-0.275
-0.265
-0.285
-0.285
-0.29
-0.31
-0.305
-0.285
-0.28
-0.26
-0.25
-0.245
-0.25
-0.255
-0.25
-0.265
-0.275
-0.305
-0.355
-0.415
-0.49
-0.52
-0.46
-0.32
-0.07
0.255
0.625
1.025
1.35
1.52
1.49
1.22
0.745
0.24
-0.175
-0.44
-0.53
-0.53
-0.51
-0.51
-0.545
-0.63
-0.72
-0.815
-0.885
-0.935
-0.95
-0.935
-0.905
-0.87
-0.82
-0.75
-0.69
-0.595
-0.52
-0.44
-0.38
-0.35
-0.33
-0.32
-0.315
-0.3
-0.29
-0.285
-0.27
-0.25
-0.24
-0.235
-0.225
-0.235
-0.235
-0.215
-0.235
-0.225
-0.235
-0.25
-0.24
-0.25
-0.235
-0.21
-0.19
-0.19
-0.18
-0.19
-0.185
-0.195
-0.2
-0.225
-0.225
-0.215
-0.2
-0.19
-0.16
-0.17
-0.17
-0.175
-0.18
-0.175
-0.18
-0.175
-0.165
-0.16
-0.145
-0.14
-0.13
-0.145
-0.15
-0.14
-0.135
-0.125
-0.115
-0.12
-0.105
-0.09
-0.085
-0.085
-0.08
-0.08
-0.08
-0.075
-0.08
-0.085
-0.075
-0.075
-0.075
-0.065
-0.045
-0.035
-0.02
-0.005
0.005
0.0
-0.01
-0.015
-0.025
-0.03
-0.025
-0.01
0.01
0.02
0.025
0.035
0.025
0.035
0.045
0.06
0.075
0.085
0.105
0.115
0.115
0.13
0.125
0.125
0.135
0.155
0.16
0.155
0.16
0.14
0.15
0.165
0.19
0.21
0.235
0.24
0.24
0.235
0.23
0.22
0.195
0.2
0.2
0.205
0.21
0.22
0.23
0.235
0.24
0.245
0.23
0.215
0.195
0.195
0.185
0.195
0.205
0.185
0.185
0.18
0.175
0.185
0.165
0.155
0.145
0.135
0.13
0.13
0.13
0.135
0.115
0.115
0.105
0.1
0.085
0.07
0.055
0.04
0.02
-0.005
0.0
0.0
0.0
0.005
-0.005
-0.015
-0.03
-0.03
-0.04
-0.05
-0.045
-0.04
-0.05
-0.055
-0.055
-0.07
-0.075
-0.085
-0.095
-0.1
-0.125
-0.14
-0.15
-0.135
-0.125
-0.11
-0.105
-0.11
-0.125
-0.13
-0.145
-0.15
-0.15
-0.15
-0.155
-0.15
-0.135
-0.135
-0.13
-0.125
-0.145
-0.135
-0.155
-0.16
-0.16
-0.175
-0.165
-0.165
-0.16
-0.16
-0.155
-0.165
-0.16
-0.165
-0.18
-0.18
-0.19
-0.19
-0.195
-0.185
-0.175
-0.18
-0.16
-0.17
-0.155
-0.165
-0.18
-0.195
-0.2
-0.195
-0.2
-0.195
-0.185
-0.18
-0.17
-0.17
-0.16
-0.17
-0.18
-0.18
-0.2
-0.19
-0.2
-0.195
-0.185
-0.18
-0.17
-0.15
-0.145
-0.135
-0.14
-0.13
-0.135
-0.135
-0.125
-0.12
-0.11
-0.095
-0.08
-0.08
-0.06
-0.04
-0.045
-0.045
-0.055
-0.065
-0.08
-0.09
-0.095
-0.1
-0.105
-0.115
-0.13
-0.13
-0.15
-0.185
-0.205
-0.195
-0.205
-0.205
-0.205
-0.225
-0.215
-0.21
-0.215
-0.21
-0.21
-0.225
-0.22
-0.235
-0.235
-0.23
-0.22
-0.21
-0.215
-0.2
-0.2
-0.2
-0.195
-0.22
-0.24
-0.24
-0.23
-0.225
-0.23
-0.25
-0.29
-0.37
-0.435
-0.45
-0.385
-0.19
0.1
0.495
0.91
1.27
1.505
1.515
1.27
0.805
0.29
-0.11
-0.34
-0.435
-0.445
-0.445
-0.465
-0.53
-0.62
-0.715
-0.795
-0.845
-0.87
-0.865
-0.855
-0.805
-0.73
-0.655
-0.565
-0.495
-0.41
-0.35
-0.29
-0.25
-0.245
-0.24
-0.235
-0.23
-0.235
-0.24
-0.235
-0.225
-0.205
-0.21
-0.195
-0.19
-0.195
-0.19
-0.19
-0.2
-0.195
-0.205
-0.2
-0.195
-0.17
-0.17
-0.17
-0.155
-0.14
-0.155
-0.15
-0.16
-0.16
-0.16
-0.165
-0.165
-0.145
-0.15
-0.135
-0.13
-0.13
-0.115
-0.125
-0.125
-0.125
-0.125
-0.12
-0.125
-0.11
-0.105
-0.08
-0.08
-0.085
-0.085
-0.1
-0.08
-0.08
-0.085
-0.075
-0.08
-0.08
-0.06
-0.05
-0.045
-0.035
-0.035
-0.04
-0.03
-0.03
-0.03
-0.02
-0.03
-0.01
-0.005
0.005
0.005
0.01
0.02
0.015
0.025
0.015
0.0
0.01
0.02
0.035
0.055
0.075
0.065
0.085
0.08
0.085
0.09
0.09
0.1
0.115
0.11
0.115
0.135
0.15
0.15
0.165
0.17
0.18
0.165
0.185
0.185
0.2
0.21
0.225
0.25
0.255
0.295
0.3
0.315
0.3
0.3
0.29
0.285
0.29
0.29
0.3
0.3
0.305
0.315
0.3
0.295
0.285
0.28
0.265
0.27
0.26
0.26
0.27
0.26
0.265
0.265
0.255
0.25
0.24
0.235
0.23
0.23
0.22
0.225
0.22
0.23
0.225
0.22
0.215
0.215
0.205
0.2
0.18
0.17
0.165
0.165
0.165
0.165
0.165
0.165
0.155
0.15
0.135
0.125
0.115
0.105
0.095
0.095
0.085
0.095
0.09
0.09
0.065
0.075
0.065
0.055
0.04
0.04
0.035
0.035
0.035
0.05
0.05
0.05
0.045
0.03
0.025
0.015
0.0
0.005
0.0
0.005
-0.005
0.005
-0.005
0.01
-0.005
0.01
-0.005
0.0
-0.005
-0.01
-0.02
-0.01
-0.015
-0.01
-0.005
-0.01
-0.015
-0.02
-0.015
-0.025
-0.04
-0.03
-0.03
-0.03
-0.03
-0.015
0.0
-0.005
-0.005
-0.02
-0.02
-0.03
-0.035
-0.04
-0.055
-0.05
-0.035
-0.035
-0.015
-0.02
-0.04
-0.02
-0.035
-0.025
-0.04
-0.045
-0.045
-0.055
-0.045
-0.035
-0.03
-0.02
-0.03
-0.03
-0.035
-0.04
-0.055
-0.055
-0.04
-0.025
-0.02
-0.005
0.0
0.015
0.03
0.03
0.025
0.02
0.025
0.02
0.03
0.025
0.035
0.06
0.075
0.085
0.1
0.1
0.1
0.08
0.07
0.04
0.02
0.02
0.025
0.01
0.01
0.005
0.005
-0.025
-0.035
-0.05
-0.06
-0.075
-0.075
-0.09
-0.08
-0.075
-0.075
-0.07
-0.08
-0.08
-0.085
-0.09
-0.1
-0.105
-0.105
-0.115
-0.1
-0.1
-0.095
-0.095
-0.1
-0.105
-0.11
-0.105
-0.11
-0.125
-0.13
-0.145
-0.17
-0.2
-0.25
-0.315
-0.355
-0.315
-0.19
0.03
0.335
0.7
1.07
1.405
1.61
1.655
1.49
1.1
0.625
0.2
-0.08
-0.205
-0.24
-0.225
-0.22
-0.26
-0.355
-0.485
-0.605
-0.695
-0.77
-0.82
-0.83
-0.81
-0.775
-0.72
-0.65
-0.565
-0.485
-0.4
-0.315
-0.25
-0.205
-0.175
-0.16
-0.15
-0.155
-0.145
-0.14
-0.13
-0.125
-0.125
-0.1
-0.1
-0.095
-0.1
-0.1
-0.09
-0.095
-0.1
-0.1
-0.085
-0.095
-0.08
-0.065
-0.07
-0.075
-0.075
-0.07
-0.085
-0.09
-0.09
-0.075
-0.07
-0.06
-0.05
-0.06
-0.05
-0.06
-0.07
-0.07
-0.055
-0.06
-0.06
-0.05
-0.06
-0.045
-0.04
-0.035
-0.03
-0.025
-0.03
-0.025
-0.03
-0.03
-0.03
-0.03
-0.025
-0.01
-0.005
0.005
0.015
0.0
0.015
0.02
0.01
0.01
0.015
0.025
0.02
0.04
0.05
0.05
0.075
0.055
0.065
0.065
0.07
0.065
0.065
0.08
0.075
0.08
0.095
0.085
0.105
0.11
0.115
0.115
0.105
0.115
0.095
0.105
0.12
0.125
0.15
0.16
0.175
0.18
0.18
0.19
0.19
0.19
0.195
0.205
0.205
0.23
0.235
0.245
0.25
0.265
0.275
0.27
0.275
0.27
0.275
0.275
0.29
0.305
0.31
0.32
0.32
0.32
0.33
0.33
0.32
0.315
0.31
0.305
0.3
0.3
0.295
0.295
0.295
0.295
0.27
0.265
0.255
0.215
0.205
0.2
0.2
0.205
0.215
0.195
0.195
0.18
0.18
0.17
0.16
0.145
0.135
0.135
0.145
0.125
0.12
0.115
0.105
0.09
0.09
0.085
0.09
0.075
0.07
0.055
0.055
0.035
0.03
0.035
0.03
0.025
0.025
0.005
0.0
-0.005
-0.02
-0.03
-0.035
-0.04
-0.045
-0.03
-0.035
-0.045
-0.035
-0.06
-0.075
-0.09
-0.1
-0.105
-0.115
-0.11
-0.105
-0.09
-0.085
-0.09
-0.075
-0.085
-0.09
-0.11
-0.105
-0.125
-0.125
-0.115
-0.1
-0.105
-0.1
-0.12
-0.105
-0.11
-0.115
-0.13
-0.135
-0.125
-0.12
-0.115
-0.115
-0.12
-0.12
-0.125
-0.125
-0.135
-0.135
-0.135
-0.125
-0.125
-0.125
-0.125
-0.14
-0.13
-0.125
-0.135
-0.135
-0.145
-0.14
-0.13
-0.145
-0.145
-0.155
-0.16
-0.17
-0.165
-0.14
-0.125
-0.115
-0.12
-0.115
-0.135
-0.145
-0.14
-0.15
-0.145
-0.14
-0.135
-0.12
-0.115
-0.105
-0.105
-0.115
-0.105
-0.115
-0.105
-0.09
-0.08
-0.065
-0.05
-0.04
-0.03
-0.025
-0.02
-0.025
-0.035
-0.06
-0.03
-0.04
-0.05
-0.06
-0.075
-0.075
-0.085
-0.1
-0.11
-0.12
-0.135
-0.16
-0.17
-0.18
-0.19
-0.195
-0.18
-0.18
-0.17
-0.18
-0.185
-0.185
-0.185
-0.19
-0.195
-0.185
-0.185
-0.18
-0.21
-0.2
-0.2
-0.215
-0.19
-0.205
-0.2
-0.21
-0.21
-0.2
-0.21
-0.195
-0.185
-0.21
-0.23
-0.265
-0.345
-0.405
-0.435
-0.39
-0.24
0.025
0.395
0.785
1.19
1.455
1.575
1.47
1.1
0.58
0.08
-0.295
-0.46
-0.505
-0.475
-0.44
-0.435
-0.48
-0.585
-0.69
-0.805
-0.875
-0.91
-0.92
-0.89
-0.845
-0.765
-0.695
-0.61
-0.53
-0.455
-0.375
-0.32
-0.28
-0.255
-0.24
-0.225
-0.225
-0.215
-0.21
-0.195
-0.2
-0.185
-0.17
-0.165
-0.165
-0.17
-0.17
-0.17
-0.185
-0.18
-0.175
-0.165
-0.16
-0.16
-0.16
-0.175
-0.165
-0.16
-0.17
-0.165
-0.16
-0.145
-0.145
-0.145
-0.13
-0.12
-0.115
-0.12
-0.12
-0.13
-0.13
-0.12
-0.115
-0.095
-0.1
-0.075
-0.09
-0.095
-0.095
-0.095
-0.095
-0.085
-0.065
-0.045
-0.045
-0.04
-0.04
-0.045
-0.045
-0.05
-0.04
-0.045
-0.03
-0.03
-0.02
-0.025
-0.005
-0.01
-0.01
-0.005
0.01
0.005
0.025
0.035
0.03
0.025
0.015
0.01
0.01
0.015
0.03
0.055
0.07
0.085
0.09
0.09
0.095
0.09
0.095
0.1
0.115
0.125
0.115
0.145
0.155
0.155
0.145
0.15
0.165
0.175
0.185
0.2
0.205
0.215
0.23
0.25
0.26
0.275
0.27
0.255
0.24
0.225
0.23
0.245
0.25
0.24
0.24
0.24
0.23
0.22
0.225
0.22
0.23
0.22
0.205
0.19
0.175
0.18
0.195
0.19
0.185
0.19
0.17
0.165
0.155
0.11
0.085
0.075
0.09
0.105
0.14
0.145
0.14
0.12
0.1
0.065
0.035
0.015
0.0
0.005
0.01
0.035
0.055
0.055
0.035
0.015
0.0
-0.03
-0.035
-0.04
-0.05
-0.06
-0.065
-0.07
-0.07
-0.085
-0.065
-0.05
-0.065
-0.075
-0.09
-0.1
-0.12
-0.11
-0.125
-0.115
-0.125
-0.12
-0.115
-0.135
-0.145
-0.165
-0.16
-0.16
-0.14
-0.13
-0.13
-0.14
-0.15
-0.145
-0.155
-0.155
-0.155
-0.155
-0.17
-0.175
-0.2
-0.2
-0.21
-0.185
-0.185
-0.165
-0.16
-0.175
-0.16
-0.18
-0.18
-0.185
-0.195
-0.2
-0.205
-0.2
-0.2
-0.2
-0.185
-0.18
-0.2
-0.195
-0.195
-0.195
-0.2
-0.215
-0.205
-0.205
-0.2
-0.185
-0.175
-0.185
-0.195
-0.195
-0.2
-0.21
-0.2
-0.175
-0.165
-0.145
-0.12
-0.115
-0.115
-0.13
-0.12
-0.125
-0.125
-0.125
-0.135
-0.12
-0.105
-0.08
-0.06
-0.065
-0.06
-0.085
-0.1
-0.125
-0.145
-0.165
-0.18
-0.18
-0.185
-0.2
-0.21
-0.22
-0.225
-0.225
-0.245
-0.23
-0.245
-0.255
-0.26
-0.265
-0.265
-0.26
-0.255
-0.245
-0.245
-0.25
-0.245
-0.245
-0.255
-0.26
-0.27
-0.27
-0.265
-0.255
-0.25
-0.25
-0.265
-0.295
-0.36
-0.425
-0.47
-0.48
-0.375
-0.16
0.155
0.54
0.925
1.26
1.45
1.4
1.105
0.6
0.065
-0.335
-0.575
-0.66
-0.645
-0.62
-0.615
-0.635
-0.71
-0.82
-0.89
-0.945
-0.965
-0.96
-0.925
-0.87
-0.795
-0.71
-0.625
-0.54
-0.465
-0.41
-0.36
-0.33
-0.32
-0.315
-0.315
-0.32
-0.31
-0.295
-0.28
-0.26
-0.255
-0.25
-0.25
-0.255
-0.27
-0.275
-0.27
-0.275
-0.255
-0.255
-0.24
-0.24
-0.225
-0.23
-0.225
-0.235
-0.24
-0.24
-0.245
-0.25
-0.245
-0.225
-0.22
-0.22
-0.21
-0.215
-0.205
-0.21
-0.205
-0.215
-0.21
-0.22
-0.225
-0.21
-0.195
-0.185
-0.18
-0.185
-0.185
-0.18
-0.185
-0.185
-0.18
-0.185
-0.175
-0.17
-0.155
-0.145
-0.14
-0.145
-0.13
-0.13
-0.125
-0.14
-0.135
-0.145
-0.135
-0.125
-0.12
-0.115
-0.11
-0.1
-0.095
-0.1
-0.1
-0.12
-0.105
-0.085
-0.09
-0.08
-0.085
-0.075
-0.07
-0.055
-0.06
-0.05
-0.045
-0.045
-0.045
-0.04
-0.035
-0.02
-0.005
-0.005
0.02
0.035
0.025
0.035
0.035
0.03
0.03
0.055
0.06
0.07
0.085
0.105
0.11
0.105
0.115
0.12
0.11
0.12
0.11
0.11
0.12
0.12
0.13
0.13
0.135
0.125
0.12
0.105
0.1
0.08
0.08
0.07
0.065
0.045
0.05
0.06
0.065
0.05
0.05
0.03
0.025
0.015
0.005
-0.005
-0.005
-0.015
0.005
0.005
0.0
-0.015
-0.025
-0.015
-0.035
-0.04
-0.05
-0.05
-0.05
-0.055
-0.06
-0.05
-0.045
-0.055
-0.05
-0.065
-0.075
-0.09
-0.1
-0.1
-0.11
-0.105
-0.1
-0.11
-0.115
-0.13
-0.145
-0.15
-0.165
-0.165
-0.18
-0.19
-0.195
-0.195
-0.195
-0.185
-0.185
-0.195
-0.21
-0.21
-0.215
-0.22
-0.235
-0.24
-0.235
-0.235
-0.23
-0.225
-0.215
-0.23
-0.23
-0.245
-0.245
-0.26
-0.265
-0.275
-0.27
-0.27
-0.27
-0.27
-0.26
-0.27
-0.265
-0.275
-0.275
-0.285
-0.295
-0.3
-0.29
-0.28
-0.275
-0.27
-0.27
-0.265
-0.27
-0.28
-0.285
-0.3
-0.29
-0.295
-0.315
-0.29
-0.29
-0.29
-0.28
-0.305
-0.295
-0.3
-0.3
-0.315
-0.32
-0.315
-0.315
-0.31
-0.31
-0.305
-0.295
-0.315
-0.305
-0.3
-0.31
-0.315
-0.315
-0.32
-0.315
-0.32
-0.31
-0.3
-0.285
-0.285
-0.28
-0.27
-0.27
-0.27
-0.28
-0.285
-0.265
-0.26
-0.245
-0.23
-0.22
-0.23
-0.215
-0.21
-0.2
-0.195
-0.185
-0.19
-0.18
-0.185
-0.19
-0.19
-0.195
-0.21
-0.22
-0.225
-0.24
-0.25
-0.27
-0.275
-0.285
-0.3
-0.305
-0.32
-0.335
-0.33
-0.33
-0.34
-0.345
-0.35
-0.36
-0.36
-0.36
-0.36
-0.36
-0.35
-0.345
-0.355
-0.345
-0.345
-0.35
-0.365
-0.37
-0.375
-0.37
-0.35
-0.35
-0.345
-0.345
-0.345
-0.355
-0.36
-0.39
-0.445
-0.505
-0.575
-0.625
-0.61
-0.495
-0.29
0.015
0.375
0.76
1.11
1.355
1.42
1.27
0.915
0.44
0.005
-0.31
-0.465
-0.51
-0.51
-0.515
-0.555
-0.645
-0.77
-0.885
-0.985
