Lead II
-0.41
-0.555
-0.685
-0.845
-1.005
-1.16
-1.29
-1.375
-1.41
-1.43
-1.44
-1.465
-1.51
-1.575
-1.62
-1.68
-1.735
-1.81
-1.93
-2.02
-2.05
-2.005
-1.905
-1.775
-1.64
-1.465
-1.29
-1.12
-1.015
-0.975
-0.95
-0.9
-0.815
-0.74
-0.705
-0.67
-0.645
-0.6
-0.57
-0.54
-0.53
-0.495
-0.45
-0.39
-0.325
-0.275
-0.245
-0.225
-0.205
-0.125
-0.065
0.0
0.045
0.085
0.125
0.18
0.28
0.335
0.34
0.33
0.295
0.285
0.275
0.27
0.275
0.26
0.24
0.21
0.21
0.21
0.225
0.225
0.225
0.205
0.225
0.24
0.24
0.235
0.23
0.245
0.26
0.29
0.305
0.33
0.325
0.35
0.39
0.41
0.425
0.425
0.445
0.465
0.49
0.51
0.525
0.53
0.55
0.57
0.61
0.625
0.63
0.62
0.62
0.635
0.65
0.67
0.655
0.64
0.625
0.625
0.65
0.655
0.64
0.61
0.585
0.585
0.585
0.575
0.54
0.525
0.485
0.455
0.435
0.42
0.43
0.405
0.37
0.325
0.3
0.275
0.24
0.205
0.15
0.12
0.09
0.08
0.06
0.015
-0.03
-0.075
-0.11
-0.14
-0.165
-0.195
-0.225
-0.25
-0.255
-0.265
-0.29
-0.32
-0.34
-0.34
-0.335
-0.345
-0.345
-0.365
-0.39
-0.405
-0.4
-0.4
-0.41
-0.43
-0.445
-0.445
-0.425
-0.42
-0.44
-0.47
-0.485
-0.475
-0.465
-0.46
-0.475
-0.505
-0.505
-0.48
-0.455
-0.45
-0.475
-0.51
-0.505
-0.47
-0.43
-0.44
-0.475
-0.515
-0.52
-0.49
-0.465
-0.46
-0.45
-0.455
-0.47
-0.465
-0.47
-0.465
-0.44
-0.425
-0.41
-0.41
-0.415
-0.43
-0.435
-0.44
-0.445
-0.425
-0.39
-0.37
-0.395
-0.405
-0.41
-0.4
-0.395
-0.395
-0.41
-0.41
-0.41
-0.375
-0.365
-0.375
-0.39
-0.41
-0.42
-0.4
-0.39
-0.365
-0.38
-0.385
-0.41
-0.41
-0.385
-0.375
-0.375
-0.37
-0.38
-0.395
-0.39
-0.39
-0.38
-0.365
-0.355
-0.375
-0.38
-0.38
-0.38
-0.39
-0.395
-0.385
-0.395
-0.395
-0.395
-0.39
-0.395
-0.39
-0.37
-0.36
-0.375
-0.39
-0.39
-0.395
-0.365
-0.345
-0.355
-0.36
-0.365
-0.355
-0.355
-0.36
-0.37
-0.37
-0.365
-0.355
-0.35
-0.35
-0.36
-0.37
-0.37
-0.365
-0.355
-0.34
-0.35
-0.34
-0.345
-0.33
-0.33
-0.33
-0.335
-0.315
-0.325
-0.295
-0.285
-0.26
-0.215
-0.17
-0.095
0.11
0.515
1.08
1.585
1.79
1.74
1.61
1.54
1.505
1.47
1.405
1.3
1.225
1.16
1.1
1.03
0.95
0.86
0.805
0.755
0.675
0.545
0.385
0.19
0.015
-0.165
-0.355
-0.585
-0.81
-1.03
-1.23
-1.405
-1.58
-1.74
-1.855
-1.975
-2.03
-2.07
-2.115
-2.15
-2.2
-2.265
-2.325
-2.375
-2.42
-2.475
-2.525
-2.605
-2.64
-2.65
-2.59
-2.48
-2.31
-2.145
-1.94
-1.75
-1.58
-1.455
-1.37
-1.31
-1.25
-1.185
-1.145
-1.095
-1.05
-1.01
-0.955
-0.94
-0.925
-0.875
-0.87
-0.845
-0.785
-0.725
-0.68
-0.61
-0.57
-0.535
-0.475
-0.42
-0.36
-0.295
-0.225
-0.145
-0.095
-0.04
-0.01
0.025
0.045
0.065
0.08
0.105
0.14
0.145
0.13
0.135
0.175
0.22
0.225
0.24
0.24
0.235
0.265
0.3
0.31
0.315
0.335
0.355
0.4
0.435
0.46
0.5
0.525
0.535
0.55
0.58
0.605
0.625
0.655
0.695
0.74
0.78
0.82
0.835
0.84
0.855
0.905
0.945
0.95
0.96
0.97
0.975
0.98
0.995
1.015
1.015
1.01
0.985
0.995
0.995
0.975
0.96
0.935
0.905
0.895
0.89
0.865
0.83
0.785
0.74
0.72
0.69
0.66
0.615
0.56
0.515
0.495
0.47
0.45
0.39
0.335
0.27
0.235
0.215
0.16
0.1
0.04
0.005
-0.025
-0.05
-0.065
-0.085
-0.13
-0.18
-0.2
-0.22
-0.25
-0.275
-0.305
-0.33
-0.33
-0.345
-0.34
-0.35
-0.36
-0.39
-0.395
-0.395
-0.385
-0.385
-0.4
-0.415
-0.41
-0.415
-0.42
-0.43
-0.44
-0.45
-0.47
-0.465
-0.465
-0.44
-0.425
-0.43
-0.465
-0.475
-0.46
-0.455
-0.465
-0.47
-0.465
-0.465
-0.465
-0.47
-0.475
-0.465
-0.465
-0.45
-0.45
-0.45
-0.465
-0.465
-0.465
-0.46
-0.445
-0.46
-0.455
-0.455
-0.435
-0.42
-0.44
-0.465
-0.48
-0.48
-0.44
-0.425
-0.435
-0.445
-0.45
-0.46
-0.45
-0.465
-0.455
-0.445
-0.45
-0.465
-0.47
-0.48
-0.49
-0.47
-0.455
-0.46
-0.465
-0.48
-0.47
-0.48
-0.47
-0.475
-0.45
-0.445
-0.455
-0.475
-0.505
-0.5
-0.49
-0.465
-0.46
-0.46
-0.44
-0.395
-0.37
-0.365
-0.38
-0.375
-0.36
-0.3
-0.235
-0.21
-0.225
-0.25
-0.25
-0.225
-0.18
-0.145
-0.14
-0.16
-0.18
-0.195
-0.205
-0.195
-0.205
-0.21
-0.195
-0.175
-0.15
-0.16
-0.19
-0.205
-0.24
-0.25
-0.27
-0.27
-0.305
-0.34
-0.37
-0.39
-0.415
-0.425
-0.445
-0.45
-0.47
-0.46
-0.45
-0.455
-0.445
-0.44
-0.395
-0.24
0.145
0.745
1.31
1.555
1.465
1.295
1.185
1.145
1.095
1.005
0.92
0.835
0.79
0.71
0.65
0.58
0.505
0.41
0.345
0.295
0.245
0.15
0.03
-0.115
-0.23
-0.33
-0.445
-0.575
-0.705
-0.85
-1.015
-1.16
-1.29
-1.395
-1.445
-1.465
-1.45
-1.425
-1.435
-1.51
-1.58
-1.645
-1.715
-1.8
-1.9
-2.045
-2.15
-2.21
-2.145
-2.01
-1.825
-1.685
-1.56
-1.465
-1.38
-1.33
-1.3
-1.28
-1.275
-1.295
-1.265
-1.21
-1.145
-1.12
-1.13
-1.175
-1.18
-1.15
-1.105
-1.055
-1.015
-0.97
-0.925
-0.88
-0.84
-0.79
-0.75
-0.695
-0.62
-0.55
-0.5
-0.45
-0.4
-0.34
-0.3
-0.265
-0.25
-0.215
-0.23
-0.23
-0.21
-0.19
-0.165
-0.16
-0.145
-0.11
-0.075
-0.035
-0.03
-0.025
-0.045
-0.03
0.01
0.055
0.085
0.1
0.085
0.1
0.145
0.19
0.22
0.23
0.235
0.24
0.27
0.305
0.34
0.37
0.37
0.38
0.405
0.425
0.435
0.44
0.475
0.48
0.49
0.505
0.515
0.525
0.515
0.5
0.505
0.52
0.505
0.5
0.485
0.46
0.465
0.45
0.445
0.43
0.425
0.425
0.4
0.365
0.33
0.3
0.265
0.25
0.215
0.205
0.205
0.16
0.115
0.065
0.03
0.015
-0.035
-0.075
-0.115
-0.155
-0.16
-0.185
-0.21
-0.26
-0.3
-0.335
-0.37
-0.385
-0.41
-0.42
-0.46
-0.495
-0.5
-0.51
-0.51
-0.51
-0.53
-0.565
-0.58
-0.585
-0.59
-0.595
-0.6
-0.6
-0.6
-0.615
-0.615
-0.625
-0.64
-0.65
-0.64
-0.595
-0.6
-0.625
-0.655
-0.665
-0.65
-0.64
-0.655
-0.665
-0.665
-0.655
-0.645
-0.66
-0.645
-0.65
-0.65
-0.65
-0.645
-0.635
-0.625
-0.61
-0.59
-0.59
-0.55
-0.52
-0.485
-0.43
-0.415
-0.42
-0.405
-0.39
-0.385
-0.36
-0.36
-0.33
-0.275
-0.27
-0.29
-0.305
-0.335
-0.345
-0.335
-0.32
-0.33
-0.32
-0.335
-0.345
-0.355
-0.345
-0.35
-0.38
-0.41
-0.455
-0.49
-0.525
-0.52
-0.53
-0.56
-0.605
-0.645
-0.67
-0.67
-0.685
-0.685
-0.7
-0.715
-0.725
-0.755
-0.78
-0.79
-0.79
-0.765
-0.745
-0.735
-0.755
-0.775
-0.79
-0.805
-0.79
-0.775
-0.77
-0.775
-0.78
-0.77
-0.78
-0.755
-0.76
-0.77
-0.8
-0.785
-0.79
-0.78
-0.77
-0.785
-0.785
-0.78
-0.765
-0.765
-0.765
-0.77
-0.785
-0.78
-0.77
-0.74
-0.71
-0.73
-0.745
-0.74
-0.72
-0.695
-0.69
-0.7
-0.71
-0.66
-0.6
-0.475
-0.19
0.295
0.93
1.41
1.495
1.32
1.155
1.06
1.02
0.95
0.86
0.76
0.69
0.625
0.57
0.505
0.42
0.33
0.255
0.195
0.115
0.03
-0.09
-0.235
-0.36
-0.505
-0.63
-0.76
-0.905
-1.065
-1.25
-1.435
-1.565
-1.615
-1.625
-1.615
-1.65
-1.725
-1.85
-1.935
-2.01
-2.105
-2.22
-2.345
-2.375
-2.29
-2.145
-2.025
-1.895
-1.725
-1.58
-1.46
-1.4
-1.365
-1.33
-1.315
-1.28
-1.235
-1.195
-1.16
-1.15
-1.145
-1.155
-1.12
-1.06
-0.995
-0.935
-0.905
-0.87
-0.82
-0.77
-0.695
-0.635
-0.585
-0.53
-0.43
-0.345
-0.28
-0.27
-0.24
-0.21
-0.16
-0.125
-0.085
-0.07
-0.085
-0.08
-0.045
-0.02
0.015
0.02
0.04
0.055
0.085
0.11
0.115
0.14
0.155
0.17
0.205
0.255
0.285
0.32
0.325
0.345
0.4
0.44
0.47
0.495
0.515
0.54
0.565
0.6
0.61
0.625
0.635
0.65
0.68
0.69
0.715
0.715
0.72
0.72
0.725
0.755
0.735
0.725
0.705
0.69
0.675
0.68
0.665
0.645
0.62
0.59
0.56
0.55
0.535
0.495
0.455
0.415
0.385
0.355
0.32
0.285
0.225
0.175
0.14
0.145
0.12
0.075
0.03
-0.015
-0.04
-0.045
-0.07
-0.095
-0.11
-0.105
-0.095
-0.085
-0.08
-0.105
-0.125
-0.14
-0.13
-0.12
-0.105
-0.11
-0.135
-0.18
-0.21
-0.225
-0.25
-0.25
-0.26
-0.26
-0.26
-0.28
-0.285
-0.3
-0.295
-0.305
-0.32
-0.34
-0.38
-0.415
-0.45
-0.465
-0.485
-0.495
-0.54
-0.575
-0.6
-0.625
-0.63
-0.635
-0.655
-0.675
-0.695
-0.71
-0.7
-0.71
-0.735
-0.74
-0.74
-0.725
-0.715
-0.705
-0.71
-0.705
-0.715
-0.735
-0.73
-0.71
-0.695
-0.705
-0.74
-0.755
-0.73
-0.705
-0.68
-0.71
-0.725
-0.745
-0.73
-0.725
-0.745
-0.765
-0.765
-0.745
-0.735
-0.725
-0.735
-0.735
-0.73
-0.745
-0.745
-0.755
-0.755
-0.75
-0.765
-0.765
-0.73
-0.71
-0.715
-0.73
-0.755
-0.755
-0.725
-0.71
-0.715
-0.72
-0.735
-0.75
-0.725
-0.715
-0.71
-0.725
-0.72
-0.735
-0.73
-0.735
-0.7
-0.705
-0.71
-0.73
-0.725
-0.685
-0.67
-0.66
-0.685
-0.695
-0.715
-0.69
-0.68
-0.665
-0.67
-0.67
-0.665
-0.66
-0.655
-0.67
-0.665
-0.67
-0.635
-0.62
-0.62
-0.635
-0.63
-0.645
-0.62
-0.59
-0.535
-0.54
-0.545
-0.515
-0.44
-0.305
-0.01
0.505
1.125
1.51
1.555
1.4
1.255
1.165
1.095
1.03
0.935
0.84
0.755
0.68
0.6
0.52
0.425
0.335
0.26
0.13
0.035
-0.105
-0.26
-0.405
-0.585
-0.775
-0.97
-1.16
-1.31
-1.465
-1.64
-1.78
-1.87
-1.925
-1.925
-1.91
-1.935
-2.005
-2.08
-2.145
-2.19
-2.215
-2.28
-2.37
-2.42
-2.39
-2.275
-2.12
-1.96
-1.78
-1.59
-1.43
-1.31
-1.25
-1.24
-1.19
-1.17
-1.145
-1.1
-1.055
-1.035
-1.035
-1.065
-1.07
-1.03
-0.975
-0.93
-0.905
-0.865
-0.82
-0.745
-0.685
-0.635
-0.585
-0.535
-0.465
-0.4
-0.33
-0.275
-0.225
-0.205
-0.18
-0.155
-0.13
-0.125
-0.115
-0.09
-0.075
-0.05
-0.03
-0.005
0.0
0.005
0.015
0.06
0.075
0.09
0.09
0.105
0.135
0.17
0.195
0.215
0.24
0.265
0.295
0.345
0.39
0.435
0.47
0.515
0.55
0.59
0.64
0.665
0.675
0.695
0.725
0.765
0.82
0.855
0.875
0.86
0.85
0.845
0.845
0.835
0.83
0.825
0.81
0.815
0.815
0.8
0.79
0.775
0.755
0.73
0.7
0.64
0.59
0.53
0.475
0.46
0.445
0.385
0.32
0.245
0.205
0.195
0.175
0.115
0.04
-0.01
-0.07
-0.11
-0.155
-0.205
-0.23
-0.26
-0.315
-0.355
-0.39
-0.4
-0.435
-0.45
-0.49
-0.5
-0.495
-0.515
-0.54
-0.58
-0.6
-0.605
-0.63
-0.63
-0.655
-0.65
-0.67
-0.645
-0.64
-0.64
-0.665
-0.68
-0.69
-0.685
-0.665
-0.67
-0.71
-0.705
-0.725
-0.72
-0.7
-0.705
-0.72
-0.75
-0.75
-0.73
-0.7
-0.69
-0.7
-0.725
-0.755
-0.75
-0.745
-0.73
-0.715
-0.735
-0.75
-0.75
-0.73
-0.685
-0.69
-0.71
-0.73
-0.74
-0.705
-0.695
-0.675
-0.675
-0.695
-0.695
-0.68
-0.665
-0.66
-0.67
-0.675
-0.665
-0.67
-0.67
-0.665
-0.655
-0.655
-0.65
-0.65
-0.67
-0.655
-0.635
-0.62
-0.63
-0.645
-0.66
-0.65
-0.66
-0.65
-0.655
-0.64
-0.625
-0.62
-0.645
-0.665
-0.64
-0.61
-0.615
-0.63
-0.64
-0.64
-0.64
-0.62
-0.62
-0.62
-0.64
-0.635
-0.63
-0.61
-0.605
-0.595
-0.595
-0.61
-0.605
-0.6
-0.6
-0.61
-0.6
-0.59
-0.585
-0.6
-0.6
-0.61
-0.6
-0.565
-0.54
-0.55
-0.565
-0.58
-0.58
-0.58
-0.57
-0.56
-0.54
-0.525
-0.545
-0.55
-0.54
-0.54
-0.535
-0.525
-0.51
-0.495
-0.47
-0.42
-0.41
-0.34
-0.175
0.205
0.82
1.4
1.625
1.535
1.34
1.22
1.175
1.13
1.03
0.92
0.82
0.745
0.7
0.64
0.54
0.425
0.305
0.195
0.08
-0.02
-0.14
-0.305
-0.49
-0.675
-0.83
-0.975
-1.145
-1.33
-1.48
-1.57
-1.61
-1.645
-1.645
-1.68
-1.715
-1.805
-1.865
-1.92
-1.985
-2.095
-2.215
-2.265
-2.19
-2.025
-1.855
-1.66
-1.48
-1.34
-1.265
-1.24
-1.215
-1.155
-1.11
-1.08
-1.03
-0.98
-0.94
-0.915
-0.88
-0.83
-0.785
-0.73
-0.67
-0.6
-0.52
-0.455
-0.38
-0.325
-0.24
-0.175
-0.12
-0.055
0.0
0.055
0.105
0.14
0.165
0.19
0.185
0.2
0.205
0.225
0.25
0.25
0.245
0.205
0.2
0.175
0.18
0.145
0.17
0.18
0.165
0.16
0.14
0.16
0.19
0.22
0.21
0.195
0.205
0.225
0.265
0.3
0.32
0.335
0.355
0.365
0.39
0.41
0.41
0.415
0.43
0.445
0.505
0.535
0.525
0.505
0.47
0.48
0.51
0.535
0.52
0.495
0.48
0.475
0.47
0.475
0.435
0.41
0.39
0.36
0.35
0.335
0.305
0.28
0.245
0.215
0.185
0.16
0.12
0.08
0.045
0.0
-0.025
-0.06
-0.13
-0.155
-0.185
-0.21
-0.235
-0.275
-0.335
-0.36
-0.385
-0.41
-0.425
-0.455
-0.485
-0.505
-0.52
-0.525
-0.54
-0.56
-0.585
-0.59
-0.595
-0.595
-0.595
-0.59
-0.59
-0.595
-0.625
-0.645
-0.645
-0.62
-0.625
-0.635
-0.645
-0.66
-0.665
-0.635
-0.65
-0.67
-0.7
-0.67
-0.635
-0.625
-0.64
-0.665
-0.675
-0.665
-0.655
-0.65
-0.635
-0.645
-0.64
-0.64
-0.63
-0.625
-0.63
-0.64
-0.655
-0.655
-0.615
-0.595
-0.585
-0.595
-0.615
-0.615
-0.57
-0.55
-0.57
-0.59
-0.595
-0.59
-0.56
-0.56
-0.58
-0.565
-0.56
-0.55
-0.565
-0.56
-0.56
-0.54
-0.57
-0.575
-0.575
-0.57
-0.585
-0.575
-0.57
-0.56
-0.57
-0.56
-0.555
-0.55
-0.555
-0.565
-0.54
-0.535
-0.54
-0.56
-0.57
-0.565
-0.55
-0.53
-0.54
-0.545
-0.57
-0.565
-0.54
-0.54
-0.56
-0.56
-0.555
-0.535
-0.52
-0.52
-0.565
-0.555
-0.555
-0.54
-0.51
-0.495
-0.495
-0.515
-0.54
-0.55
-0.545
-0.515
-0.535
-0.53
-0.53
-0.51
-0.49
-0.49
-0.51
-0.52
-0.51
-0.5
-0.49
-0.505
-0.5
-0.495
-0.495
-0.485
-0.48
-0.48
-0.48
-0.445
-0.435
-0.41
-0.385
-0.36
-0.29
-0.115
0.27
0.88
1.445
1.675
1.58
1.39
1.27
1.21
1.17
1.115
1.025
0.92
0.825
0.755
0.69
0.635
0.535
0.415
0.31
0.195
0.045
-0.125
-0.325
-0.54
-0.77
-1.0
-1.2
-1.39
-1.595
-1.755
-1.9
-2.0
-2.05
-2.075
-2.11
-2.14
-2.19
-2.27
-2.325
-2.375
-2.465
-2.545
-2.615
-2.61
-2.54
-2.36
-2.195
-1.995
-1.785
-1.57
-1.45
-1.41
-1.375
-1.325
-1.28
-1.24
-1.195
-1.13
-1.105
-1.085
-1.075
-1.03
-0.955
-0.87
-0.835
-0.805
-0.77
-0.73
-0.665
-0.575
-0.505
-0.44
-0.395
-0.34
-0.27
-0.21
-0.185
-0.14
-0.095
-0.04
0.0
0.01
-0.005
0.0
0.0
0.02
0.05
0.085
0.09
0.09
0.095
0.1
0.125
0.165
0.195
0.23
0.245
0.255
0.275
0.31
0.335
0.35
0.37
0.41
0.455
0.485
0.505
0.545
0.575
0.6
0.62
0.65
0.675
0.705
0.735
0.755
0.75
0.77
0.79
0.8
0.79
0.79
0.795
0.8
0.795
0.785
0.79
0.79
0.78
0.77
0.73
0.695
0.66
0.64
0.65
0.65
0.605
0.54
0.475
0.445
0.415
0.39
0.35
0.3
0.265
0.225
0.185
0.155
0.09
0.035
-0.02
-0.055
-0.055
-0.075
-0.12
-0.165
-0.225
-0.27
-0.29
-0.305
-0.33
-0.335
-0.365
-0.375
-0.39
-0.41
-0.425
-0.45
-0.455
-0.45
-0.46
-0.455
-0.45
-0.465
-0.485
-0.5
-0.505
-0.48
-0.49
-0.51
-0.545
-0.55
-0.535
-0.505
-0.5
-0.515
-0.535
-0.545
-0.56
-0.54
-0.535
-0.535
-0.52
-0.515
-0.52
-0.53
-0.535
-0.52
-0.525
-0.54
-0.54
-0.53
-0.52
-0.515
-0.515
-0.5
-0.5
-0.51
-0.515
-0.51
-0.5
-0.505
-0.505
-0.505
-0.49
-0.5
-0.52
-0.52
-0.485
-0.465
-0.46
-0.485
-0.515
-0.52
-0.53
-0.495
-0.49
-0.495
-0.5
-0.5
-0.51
-0.5
-0.515
-0.51
-0.52
-0.52
-0.51
-0.485
-0.475
-0.5
-0.52
-0.525
-0.5
-0.48
-0.48
-0.495
-0.505
-0.52
-0.5
-0.485
-0.48
-0.505
-0.53
-0.505
-0.485
-0.465
-0.47
-0.48
-0.47
-0.445
-0.42
-0.41
-0.42
-0.43
-0.395
-0.35
-0.31
-0.28
-0.265
-0.245
-0.245
-0.255
-0.245
-0.215
-0.175
-0.145
-0.15
-0.145
-0.17
-0.16
-0.18
-0.19
-0.2
-0.19
-0.185
-0.165
-0.16
-0.16
-0.18
-0.19
-0.215
-0.22
-0.235
-0.245
-0.26
-0.265
-0.29
-0.26
-0.23
-0.145
0.055
0.5
1.08
1.535
1.65
1.485
1.315
1.225
1.17
1.125
1.03
0.915
0.82
0.755
0.71
0.63
0.55
0.455
0.35
0.305
0.25
0.175
0.04
-0.105
-0.245
-0.36
-0.475
-0.62
-0.79
-0.95
-1.1
-1.245
-1.35
-1.42
-1.47
-1.51
-1.52
-1.51
-1.525
-1.57
-1.64
-1.715
-1.77
-1.85
-1.96
-2.07
-2.185
-2.23
-2.2
-2.075
-1.91
-1.74
-1.61
-1.465
-1.38
-1.29
-1.245
-1.235
-1.22
-1.2
-1.16
-1.125
-1.11
-1.1
-1.105
-1.08
-1.065
-1.035
-1.01
-0.99
-0.94
-0.89
-0.84
-0.82
-0.765
-0.71
-0.645
-0.575
-0.525
-0.455
-0.38
-0.31
-0.275
-0.225
-0.195
-0.16
-0.13
-0.12
-0.115
-0.115
-0.095
-0.07
-0.04
-0.01
0.0
0.005
0.025
0.06
0.095
0.1
0.11
0.115
0.13
0.17
0.22
0.255
0.29
0.305
0.31
0.335
0.375
0.41
0.425
0.44
0.445
0.47
0.51
0.545
0.59
0.615
0.61
0.625
0.645
0.665
0.675
0.685
0.68
0.685
0.695
0.71
0.715
0.715
0.69
0.675
0.67
0.67
0.655
0.63
0.61
0.59
0.59
0.57
0.54
0.52
0.48
0.44
0.4
0.385
0.375
0.34
0.29
0.24
0.19
0.165
0.14
0.11
0.065
0.035
-0.01
-0.05
-0.095
-0.145
-0.17
-0.195
-0.22
-0.25
-0.265
-0.295
-0.32
-0.325
-0.34
-0.35
-0.375
-0.4
-0.405
-0.405
-0.415
-0.425
-0.45
-0.455
-0.455
-0.455
-0.445
-0.455
-0.465
-0.48
-0.495
-0.47
-0.475
-0.47
-0.49
-0.49
-0.51
-0.525
-0.515
-0.49
-0.47
-0.475
-0.495
-0.51
-0.515
-0.525
-0.53
-0.55
-0.53
-0.52
-0.505
-0.5
-0.505
-0.52
-0.525
-0.53
-0.515
-0.49
-0.475
-0.48
-0.49
-0.5
-0.46
-0.43
-0.41
-0.41
-0.4
-0.365
-0.335
-0.305
-0.28
-0.255
-0.24
-0.225
-0.225
-0.21
-0.195
-0.18
-0.155
-0.145
-0.14
-0.155
-0.17
-0.175
-0.19
-0.17
-0.17
-0.17
-0.19
-0.21
-0.205
-0.19
-0.17
-0.155
-0.18
-0.24
-0.285
-0.3
-0.3
-0.31
-0.34
-0.37
-0.4
-0.435
-0.45
-0.47
-0.48
-0.48
-0.5
-0.535
-0.53
-0.545
-0.55
-0.565
-0.595
-0.61
-0.61
-0.585
-0.59
-0.61
-0.62
-0.625
-0.62
-0.6
-0.595
-0.595
-0.605
-0.62
-0.615
-0.615
-0.61
-0.605
-0.61
-0.59
-0.57
-0.56
-0.58
-0.61
-0.615
-0.6
-0.58
-0.565
-0.575
-0.59
-0.6
-0.6
-0.59
-0.585
-0.565
-0.56
-0.555
-0.555
-0.535
-0.52
-0.49
-0.46
-0.4
-0.275
0.0
0.455
1.055
1.49
1.595
1.455
1.31
1.22
1.17
1.1
0.995
0.905
0.85
0.78
0.72
0.665
0.61
0.555
0.495
0.42
0.325
0.23
0.155
0.075
-0.02
-0.17
-0.32
-0.495
-0.655
-0.785
-0.92
-1.06
-1.235
-1.43
-1.585
-1.685
-1.705
-1.705
-1.71
-1.77
-1.84
-1.92
-1.98
-2.035
-2.08
-2.16
-2.235
-2.285
-2.3
-2.225
-2.115
-2.0
-1.89
-1.75
-1.575
-1.415
-1.325
-1.27
-1.265
-1.215
-1.18
-1.13
-1.08
-1.055
-1.015
-0.975
-0.945
-0.935
-0.935
-0.91
-0.885
-0.83
-0.765
-0.705
-0.65
-0.625
-0.58
-0.52
-0.44
-0.38
-0.325
-0.29
-0.225
-0.135
-0.07
-0.025
-0.005
0.01
0.02
0.06
0.09
0.11
0.12
0.14
0.155
0.165
0.195
0.215
0.22
0.24
0.25
0.3
0.315
0.35
0.365
0.375
0.405
0.43
0.45
0.495
0.53
0.555
0.575
0.575
0.595
0.635
0.665
0.7
0.72
0.74
0.765
0.795
0.815
0.83
0.825
0.835
0.85
0.865
0.875
0.88
0.885
0.88
0.885
0.895
0.89
0.865
0.85
0.835
0.825
0.805
0.785
0.745
0.725
0.7
0.69
0.66
0.635
0.595
0.535
0.49
0.465
0.455
0.43
0.39
0.335
0.28
0.25
0.21
0.175
0.155
0.115
0.07
0.015
-0.015
-0.04
-0.075
-0.095
-0.11
-0.12
-0.13
-0.14
-0.145
-0.165
-0.16
-0.145
-0.115
-0.1
-0.09
-0.105
-0.09
-0.075
-0.055
-0.055
-0.065
-0.07
-0.06
-0.025
-0.03
-0.065
-0.105
-0.145
-0.16
-0.14
-0.135
-0.135
-0.14
-0.165
-0.17
-0.17
-0.175
-0.19
-0.225
-0.25
-0.27
-0.29
-0.33
-0.365
-0.4
-0.41
-0.42
-0.43
-0.435
-0.465
-0.475
-0.48
-0.49
-0.505
-0.515
-0.515
-0.53
-0.56
-0.57
-0.57
-0.545
-0.545
-0.545
-0.56
-0.56
-0.555
-0.555
-0.555
-0.565
-0.585
-0.57
-0.565
-0.57
-0.565
-0.575
-0.585
-0.58
-0.56
-0.555
-0.575
-0.59
-0.585
-0.58
-0.555
-0.565
-0.58
-0.595
-0.61
-0.59
-0.59
-0.575
-0.575
-0.58
-0.605
-0.615
-0.605
-0.59
-0.585
-0.595
-0.6
-0.6
-0.59
-0.58
-0.58
-0.585
-0.595
-0.605
-0.59
-0.58
-0.575
-0.58
-0.585
-0.595
-0.58
-0.575
-0.58
-0.595
-0.585
-0.57
-0.545
-0.535
-0.555
-0.565
-0.59
-0.58
-0.575
-0.535
-0.525
-0.555
-0.575
-0.565
-0.545
-0.505
-0.495
-0.51
-0.53
-0.54
-0.525
-0.515
-0.505
-0.505
-0.52
-0.515
-0.495
-0.47
-0.46
-0.45
-0.45
-0.405
-0.35
-0.215
0.04
0.56
1.145
1.545
1.625
1.48
1.31
1.215
1.17
1.105
1.035
0.98
0.92
0.84
0.755
0.66
0.57
0.505
0.415
0.335
0.225
0.14
0.05
-0.065
-0.21
-0.355
-0.515
-0.66
-0.81
-0.95
-1.105
-1.26
-1.405
-1.495
-1.54
-1.555
-1.57
-1.56
-1.61
-1.665
-1.725
-1.78
-1.815
-1.85
-1.93
-2.015
-2.1
-2.11
-2.065
-1.975
-1.86
-1.72
-1.57
-1.405
-1.275
-1.19
-1.145
-1.125
-1.075
-1.035
-1.03
-1.005
-0.975
-0.935
-0.905
-0.905
-0.94
-0.96
-0.95
-0.9
-0.81
-0.74
-0.7
-0.69
-0.675
-0.63
-0.555
-0.48
-0.42
-0.39
-0.345
-0.3
-0.23
-0.155
-0.115
-0.11
-0.11
-0.08
-0.06
-0.04
-0.02
-0.01
-0.005
0.0
0.025
0.055
0.085
0.1
0.085
0.095
0.1
0.115
0.135
0.16
0.185
0.23
0.255
0.27
0.28
0.29
0.295
0.33
0.37
0.4
0.42
0.43
0.445
0.47
0.515
0.55
0.59
0.615
0.635
0.66
0.695
0.73
0.77
0.785
0.805
0.825
0.84
0.87
0.88
0.9
0.89
0.905
0.91
0.925
0.89
0.86
0.825
0.82
0.81
0.79
0.785
0.775
0.75
0.72
0.695
0.68
0.645
0.605
0.55
0.5
0.45
0.415
0.375
0.305
0.22
0.155
0.11
0.075
0.035
-0.01
-0.07
-0.105
-0.135
-0.17
-0.225
-0.28
-0.34
-0.36
-0.38
-0.375
-0.39
-0.43
-0.475
-0.485
-0.495
-0.505
-0.53
-0.545
-0.545
-0.545
-0.54
-0.555
-0.58
-0.595
-0.6
-0.615
-0.61
-0.605
-0.605
-0.625
-0.64
-0.65
-0.64
-0.64
-0.625
-0.63
-0.65
-0.64
-0.64
-0.63
-0.645
-0.665
-0.68
-0.67
-0.665
-0.65
-0.66
-0.655
-0.665
-0.665
-0.66
-0.635
-0.64
-0.645
-0.66
-0.655
-0.63
-0.635
-0.63
-0.63
-0.64
-0.625
-0.64
-0.62
-0.63
-0.63
-0.63
-0.605
-0.6
-0.585
-0.605
-0.62
-0.63
-0.605
-0.59
-0.585
-0.585
-0.605
-0.615
-0.615
-0.585
-0.575
-0.565
-0.555
-0.58
-0.585
-0.58
-0.58
-0.585
-0.575
-0.575
-0.58
-0.59
-0.57
-0.545
-0.52
-0.535
-0.56
-0.555
-0.545
-0.535
-0.55
-0.565
-0.57
-0.53
-0.525
-0.525
-0.535
-0.545
-0.545
-0.535
-0.525
-0.52
-0.525
-0.53
-0.53
-0.525
-0.505
-0.5
-0.51
-0.515
-0.51
-0.495
-0.48
-0.495
-0.48
-0.495
-0.48
-0.475
-0.475
-0.49
-0.485
-0.495
-0.47
-0.45
-0.445
-0.455
-0.445
-0.45
-0.445
-0.42
-0.39
-0.38
-0.385
-0.385
-0.365
-0.31
-0.25
-0.165
-0.015
0.285
0.77
1.26
1.565
1.57
1.445
1.31
1.245
1.2
1.145
1.05
0.94
0.84
0.75
0.675
0.615
0.535
0.455
0.355
0.265
0.16
0.05
-0.1
-0.225
-0.37
-0.52
-0.64
-0.765
-0.9
-1.06
-1.22
-1.325
-1.41
-1.46
-1.485
-1.52
-1.55
-1.595
-1.645
-1.705
-1.735
-1.805
-1.885
-1.97
-2.055
-2.08
-2.035
-1.905
-1.77
-1.61
-1.45
-1.3
-1.2
-1.14
-1.13
-1.08
-1.035
-1.0
-0.97
-0.945
-0.91
-0.885
-0.855
-0.84
-0.82
-0.795
-0.745
-0.665
-0.6
-0.53
-0.475
-0.41
-0.365
-0.29
-0.2
-0.115
-0.04
0.025
0.07
0.155
0.24
0.31
0.35
0.355
0.33
0.325
0.35
0.37
0.38
0.395
0.405
0.41
0.46
0.47
0.475
0.465
0.455
0.46
0.47
0.48
0.46
0.46
0.43
0.44
0.45
0.465
0.455
0.445
0.455
0.48
0.495
0.515
0.52
0.53
0.535
0.54
0.56
0.585
0.595
0.6
0.615
0.65
0.655
0.675
0.66
0.67
0.665
0.67
0.66
0.655
0.645
0.635
0.625
0.63
0.65
0.64
0.605
0.575
0.53
0.515
0.51
0.49
0.465
0.44
0.39
0.37
0.34
0.32
0.275
0.235
0.21
0.2
0.175
0.12
0.07
0.04
0.0
-0.055
-0.085
-0.125
-0.145
-0.18
-0.21
-0.225
-0.265
-0.29
-0.32
-0.385
-0.4
-0.39
-0.375
-0.395
-0.425
-0.455
-0.49
-0.49
-0.49
-0.5
-0.52
-0.535
-0.525
-0.515
-0.515
-0.545
-0.55
-0.555
-0.55
-0.54
-0.55
-0.55
-0.555
-0.565
-0.57
-0.545
-0.535
-0.53
-0.56
-0.585
-0.595
-0.575
-0.56
-0.535
-0.55
-0.57
-0.58
-0.565
-0.555
-0.54
-0.535
-0.55
-0.555
-0.545
-0.535
-0.515
-0.53
-0.515
-0.515
-0.51
-0.5
-0.485
-0.485
-0.485
-0.485
-0.475
-0.455
-0.445
-0.455
-0.47
-0.485
-0.475
-0.46
-0.46
-0.455
-0.475
-0.48
-0.48
-0.47
-0.465
-0.475
-0.465
-0.45
-0.46
-0.455
-0.465
-0.465
-0.465
-0.475
-0.47
-0.45
-0.445
-0.45
-0.465
-0.47
-0.455
-0.435
-0.43
-0.43
-0.45
-0.46
-0.45
-0.43
-0.42
-0.435
-0.46
-0.47
-0.46
-0.44
-0.415
-0.415
-0.435
-0.45
-0.45
-0.43
-0.42
-0.42
-0.42
-0.42
-0.41
-0.4
-0.415
-0.415
-0.4
-0.395
-0.395
-0.41
-0.41
-0.415
-0.415
-0.4
-0.385
-0.375
-0.37
-0.375
-0.38
-0.375
-0.36
-0.34
-0.31
-0.29
-0.275
-0.225
-0.07
0.29
0.925
1.56
1.815
1.655
1.445
1.34
1.29
1.215
1.11
0.975
0.875
0.8
0.735
0.655
0.58
0.495
0.395
0.3
0.18
0.03
-0.12
-0.295
-0.485
-0.69
-0.885
-1.08
-1.275
-1.435
-1.55
-1.605
-1.635
-1.655
-1.705
-1.79
-1.855
-1.92
-1.96
-1.995
-2.06
-2.17
-2.21
-2.19
-2.075
-1.89
-1.685
-1.46
-1.27
-1.135
-1.07
-1.055
-1.025
-1.01
-0.97
-0.915
-0.88
-0.865
-0.865
-0.88
-0.855
-0.81
-0.76
-0.72
-0.7
-0.67
-0.605
-0.54
-0.49
-0.435
-0.39
-0.34
-0.27
-0.19
-0.125
-0.075
-0.03
0.02
0.06
0.075
0.08
0.075
0.085
0.11
0.135
0.155
0.175
0.175
0.17
0.18
0.19
0.21
0.245
0.28
0.295
0.31
0.32
0.35
0.355
0.39
0.405
0.425
0.45
0.48
0.51
0.54
0.58
0.59
0.615
0.66
0.695
0.725
0.745
0.76
0.78
0.82
0.845
0.855
0.865
0.865
0.875
0.905
0.925
0.91
0.91
0.9
0.91
0.92
0.9
0.885
0.85
0.82
0.8
0.775
0.765
0.74
0.725
0.68
0.64
0.615
0.585
0.555
0.49
0.44
0.39
0.365
0.35
0.3
0.245
0.175
0.15
0.125
0.1
0.065
0.005
-0.045
-0.075
-0.085
-0.11
-0.16
-0.185
-0.22
-0.215
-0.24
-0.265
-0.28
-0.33
-0.33
-0.31
-0.295
-0.305
-0.34
-0.38
-0.39
-0.385
-0.385
-0.385
-0.395
-0.405
-0.43
-0.43
-0.43
-0.425
-0.435
-0.435
-0.425
-0.425
-0.42
-0.425
-0.43
-0.44
-0.455
-0.46
-0.45
-0.415
-0.395
-0.415
-0.45
-0.445
-0.445
-0.44
-0.425
-0.42
-0.415
-0.41
-0.41
-0.4
-0.41
-0.41
-0.425
-0.42
-0.39
-0.36
-0.37
-0.38
-0.4
-0.38
-0.365
-0.34
-0.35
-0.37
-0.385
-0.385
-0.37
-0.38
-0.36
-0.39
-0.405
-0.39
-0.38
-0.375
-0.38
-0.395
-0.395
