Lead II
-1.105
-1.115
-1.125
-1.13
-1.125
-1.11
-1.085
-1.07
-1.05
-1.02
-0.995
-1.005
-1.02
-1.005
-0.99
-1.005
-1.0
-1.005
-0.995
-0.985
-0.97
-0.945
-0.94
-0.935
-0.945
-0.97
-1.0
-1.0
-0.965
-0.925
-0.93
-0.945
-0.94
-0.94
-0.97
-0.98
-0.97
-0.975
-0.94
-0.885
-0.805
-0.745
-0.71
-0.68
-0.605
-0.495
-0.41
-0.32
-0.245
-0.17
-0.085
0.105
0.345
0.5
0.57
0.57
0.495
0.515
0.57
0.585
0.54
0.415
0.23
0.065
-0.035
-0.16
-0.365
-0.63
-0.84
-0.94
-1.025
-1.1
-1.12
-1.12
-1.135
-1.145
-1.15
-1.125
-1.14
-1.15
-1.165
-1.155
-1.145
-1.14
-1.16
-1.19
-1.235
-1.265
-1.245
-1.18
-1.145
-1.19
-1.235
-1.22
-1.215
-1.195
-1.16
-1.145
-1.155
-1.155
-1.13
-1.095
-1.075
-1.08
-1.075
-1.075
-1.065
-1.05
-1.035
-1.005
-0.985
-0.975
-0.955
-0.92
-0.895
-0.88
-0.875
-0.87
-0.85
-0.85
-0.865
-0.88
-0.865
-0.845
-0.815
-0.78
-0.75
-0.73
-0.735
-0.73
-0.725
-0.71
-0.7
-0.715
-0.74
-0.755
-0.76
-0.75
-0.76
-0.785
-0.795
-0.815
-0.83
-0.845
-0.86
-0.875
-0.885
-0.885
-0.87
-0.855
-0.865
-0.89
-0.9
-0.93
-0.92
-0.895
-0.875
-0.88
-0.91
-0.94
-0.935
-0.925
-0.915
-0.925
-0.93
-0.94
-0.915
-0.905
-0.905
-0.935
-0.94
-0.94
-0.92
-0.905
-0.92
-0.93
-0.94
-0.945
-0.925
-0.93
-0.94
-0.97
-0.985
-0.97
-0.97
-0.94
-0.93
-0.925
-0.915
-0.91
-0.92
-0.915
-0.92
-0.93
-0.92
-0.925
-0.9
-0.905
-0.925
-0.905
-0.905
-0.88
-0.87
-0.865
-0.845
-0.85
-0.86
-0.89
-0.865
-0.845
-0.855
-0.87
-0.87
-0.875
-0.825
-0.795
-0.765
-0.725
-0.705
-0.67
-0.62
-0.495
-0.355
-0.265
-0.25
-0.21
-0.145
-0.035
0.105
0.26
0.42
0.585
0.675
0.66
0.595
0.585
0.635
0.63
0.6
0.5
0.35
0.155
-0.005
-0.165
-0.345
-0.515
-0.665
-0.76
-0.87
-0.915
-0.95
-0.965
-0.995
-1.005
-1.0
-1.025
-1.025
-1.015
-1.01
-1.03
-1.05
-1.075
-1.065
-1.045
-1.05
-1.065
-1.065
-1.08
-1.08
-1.075
-1.08
-1.095
-1.1
-1.09
-1.05
-1.0
-0.98
-0.995
-1.005
-1.02
-1.0
-0.965
-0.98
-0.975
-0.96
-0.935
-0.915
-0.905
-0.895
-0.91
-0.905
-0.895
-0.87
-0.85
-0.85
-0.86
-0.855
-0.835
-0.835
-0.825
-0.81
-0.785
-0.795
-0.77
-0.74
-0.695
-0.665
-0.645
-0.645
-0.64
-0.645
-0.66
-0.68
-0.695
-0.705
-0.72
-0.73
-0.735
-0.745
-0.77
-0.79
-0.785
-0.765
-0.76
-0.775
-0.8
-0.83
-0.83
-0.805
-0.79
-0.8
-0.81
-0.83
-0.84
-0.845
-0.85
-0.85
-0.845
-0.865
-0.865
-0.855
-0.85
-0.87
-0.88
-0.87
-0.87
-0.87
-0.895
-0.895
-0.92
-0.91
-0.93
-0.905
-0.85
-0.845
-0.84
-0.85
-0.83
-0.795
-0.765
-0.77
-0.77
-0.79
-0.8
-0.77
-0.725
-0.71
-0.72
-0.725
-0.73
-0.73
-0.74
-0.755
-0.77
-0.765
-0.745
-0.725
-0.705
-0.7
-0.7
-0.715
-0.735
-0.73
-0.725
-0.735
-0.75
-0.735
-0.695
-0.62
-0.53
-0.48
-0.425
-0.37
-0.265
-0.18
-0.12
-0.1
-0.08
-0.025
0.05
0.17
0.36
0.505
0.625
0.655
0.645
0.62
0.625
0.605
0.54
0.495
0.415
0.29
0.175
0.06
-0.03
-0.165
-0.34
-0.52
-0.63
-0.73
-0.78
-0.815
-0.84
-0.82
-0.815
-0.82
-0.85
-0.895
-0.93
-0.925
-0.885
-0.89
-0.915
-0.945
-0.98
-0.97
-0.96
-0.965
-0.955
-0.975
-0.98
-0.995
-0.965
-0.945
-0.96
-0.975
-0.98
-0.945
-0.925
-0.91
-0.915
-0.9
-0.91
-0.91
-0.915
-0.895
-0.865
-0.85
-0.835
-0.815
-0.815
-0.84
-0.82
-0.785
-0.73
-0.685
-0.665
-0.665
-0.655
-0.64
-0.64
-0.645
-0.62
-0.615
-0.625
-0.63
-0.62
-0.585
-0.555
-0.555
-0.565
-0.59
-0.635
-0.615
-0.595
-0.595
-0.615
-0.665
-0.685
-0.68
-0.67
-0.69
-0.73
-0.74
-0.745
-0.73
-0.73
-0.715
-0.745
-0.76
-0.775
-0.765
-0.725
-0.73
-0.77
-0.785
-0.78
-0.78
-0.795
-0.795
-0.785
-0.8
-0.81
-0.81
-0.775
-0.775
-0.79
-0.82
-0.835
-0.825
-0.825
-0.81
-0.77
-0.76
-0.745
-0.725
-0.75
-0.765
-0.8
-0.79
-0.78
-0.805
-0.825
-0.845
-0.865
-0.85
-0.835
-0.805
-0.775
-0.78
-0.815
-0.815
-0.8
-0.795
-0.785
-0.79
-0.81
-0.845
-0.87
-0.855
-0.85
-0.84
-0.82
-0.8
-0.78
-0.745
-0.745
-0.755
-0.775
-0.79
-0.795
-0.81
-0.79
-0.76
-0.78
-0.78
-0.775
-0.79
-0.795
-0.795
-0.795
-0.77
-0.72
-0.7
-0.7
-0.725
-0.755
-0.8
-0.78
-0.755
-0.72
-0.725
-0.74
-0.76
-0.77
-0.76
-0.735
-0.755
-0.785
-0.81
-0.825
-0.8
-0.77
-0.74
-0.76
-0.785
-0.805
-0.785
-0.75
-0.76
-0.785
-0.785
-0.78
-0.75
-0.73
-0.74
-0.765
-0.775
-0.775
-0.765
-0.74
-0.76
-0.78
-0.785
-0.76
-0.75
-0.72
-0.72
-0.72
-0.74
-0.755
-0.76
-0.77
-0.785
-0.805
-0.785
-0.77
-0.74
-0.72
-0.725
-0.73
-0.755
-0.76
-0.74
-0.735
-0.745
-0.75
-0.755
-0.755
-0.775
-0.775
-0.765
-0.78
-0.79
-0.8
-0.8
-0.785
-0.815
-0.825
-0.845
-0.85
-0.845
-0.81
-0.78
-0.77
-0.78
-0.77
-0.745
-0.73
-0.765
-0.81
-0.82
-0.81
-0.8
-0.795
-0.805
-0.81
-0.8
-0.765
-0.75
-0.705
-0.7
-0.715
-0.74
-0.735
-0.735
-0.71
-0.685
-0.665
-0.675
-0.7
-0.685
-0.67
-0.705
-0.7
-0.695
-0.665
-0.665
-0.66
-0.705
-0.73
-0.74
-0.695
-0.64
-0.6
-0.62
-0.63
-0.59
-0.485
-0.37
-0.28
-0.21
-0.195
-0.195
-0.155
-0.045
0.08
0.145
0.135
0.135
0.205
0.255
0.295
0.3
0.24
0.115
0.015
-0.085
-0.255
-0.49
-0.645
-0.72
-0.78
-0.79
-0.775
-0.79
-0.81
-0.83
-0.84
-0.825
-0.82
-0.845
-0.89
-0.905
-0.885
-0.855
-0.84
-0.855
-0.895
-0.915
-0.935
-0.95
-0.935
-0.94
-0.93
-0.93
-0.935
-0.91
-0.92
-0.91
-0.925
-0.925
-0.895
-0.885
-0.845
-0.865
-0.875
-0.905
-0.91
-0.885
-0.855
-0.85
-0.87
-0.88
-0.835
-0.78
-0.79
-0.82
-0.81
-0.815
-0.775
-0.745
-0.75
-0.765
-0.775
-0.74
-0.69
-0.645
-0.6
-0.6
-0.615
-0.6
-0.565
-0.52
-0.485
-0.49
-0.49
-0.465
-0.445
-0.425
-0.4
-0.41
-0.43
-0.42
-0.435
-0.425
-0.43
-0.45
-0.44
-0.47
-0.51
-0.535
-0.49
-0.455
-0.415
-0.4
-0.4
-0.385
-0.405
-0.45
-0.47
-0.455
-0.435
-0.42
-0.41
-0.405
-0.43
-0.47
-0.48
-0.475
-0.445
-0.45
-0.475
-0.48
-0.445
-0.41
-0.39
-0.405
-0.41
-0.42
-0.44
-0.46
-0.45
-0.43
-0.405
-0.415
-0.39
-0.39
-0.385
-0.4
-0.38
-0.375
-0.37
-0.39
-0.395
-0.395
-0.4
-0.395
-0.385
-0.37
-0.38
-0.38
-0.395
-0.405
-0.4
-0.39
-0.405
-0.425
-0.455
-0.43
-0.375
-0.35
-0.35
-0.375
-0.39
-0.4
-0.425
-0.43
-0.425
-0.425
-0.425
-0.43
-0.435
-0.395
-0.385
-0.39
-0.385
-0.395
-0.425
-0.415
-0.395
-0.385
-0.385
-0.385
-0.37
-0.35
-0.32
-0.33
-0.345
-0.35
-0.35
-0.35
-0.345
-0.325
-0.29
-0.25
-0.175
-0.055
0.1
0.215
0.3
0.4
0.545
0.745
0.96
1.16
1.265
1.27
1.225
1.22
1.26
1.24
1.18
1.115
0.99
0.825
0.66
0.465
0.225
0.005
-0.17
-0.31
-0.405
-0.465
-0.47
-0.47
-0.47
-0.505
-0.505
-0.52
-0.525
-0.52
-0.52
-0.52
-0.505
-0.515
-0.545
-0.57
-0.575
-0.565
-0.565
-0.59
-0.61
-0.62
-0.6
-0.575
-0.525
-0.53
-0.525
-0.535
-0.56
-0.555
-0.545
-0.535
-0.56
-0.585
-0.575
-0.535
-0.5
-0.495
-0.495
-0.465
-0.445
-0.43
-0.415
-0.405
-0.41
-0.42
-0.445
-0.445
-0.36
-0.27
-0.215
-0.235
-0.23
-0.22
-0.19
-0.18
-0.185
-0.165
-0.15
-0.12
-0.115
-0.14
-0.15
-0.15
-0.13
-0.095
-0.065
-0.07
-0.095
-0.12
-0.14
-0.16
-0.185
-0.175
-0.18
-0.19
-0.185
-0.2
-0.185
-0.22
-0.26
-0.31
-0.32
-0.32
-0.285
-0.265
-0.29
-0.32
-0.34
-0.335
-0.305
-0.31
-0.33
-0.35
-0.36
-0.345
-0.31
-0.295
-0.325
-0.36
-0.36
-0.35
-0.335
-0.335
-0.34
-0.365
-0.36
-0.35
-0.32
-0.31
-0.305
-0.3
-0.3
-0.275
-0.25
-0.245
-0.25
-0.255
-0.23
-0.215
-0.215
-0.225
-0.225
-0.205
-0.2
-0.2
-0.175
-0.185
-0.22
-0.245
-0.26
-0.25
-0.235
-0.225
-0.225
-0.24
-0.23
-0.2
-0.18
-0.195
-0.245
-0.26
-0.25
-0.235
-0.245
-0.25
-0.245
-0.25
-0.24
-0.225
-0.19
-0.195
-0.205
-0.225
-0.26
-0.26
-0.25
-0.255
-0.25
-0.245
-0.205
-0.165
-0.17
-0.19
-0.215
-0.225
-0.19
-0.19
-0.14
-0.12
-0.145
-0.15
-0.16
-0.13
-0.1
-0.085
-0.065
-0.04
-0.015
0.045
0.085
0.11
0.14
0.205
0.31
0.415
0.485
0.545
0.605
0.68
0.83
1.03
1.185
1.26
1.295
1.285
1.265
1.315
1.37
1.355
1.315
1.29
1.205
1.065
0.94
0.81
0.66
0.455
0.24
0.035
-0.05
-0.13
-0.23
-0.28
-0.255
-0.255
-0.275
-0.34
-0.37
-0.35
-0.32
-0.295
-0.265
-0.28
-0.315
-0.35
-0.35
-0.33
-0.31
-0.34
-0.355
-0.35
-0.33
-0.295
-0.29
-0.29
-0.285
-0.305
-0.305
-0.305
-0.28
-0.29
-0.31
-0.34
-0.31
-0.27
-0.235
-0.23
-0.235
-0.24
-0.22
-0.2
-0.175
-0.19
-0.2
-0.205
-0.185
-0.175
-0.14
-0.1
-0.065
-0.08
-0.055
-0.03
-0.005
-0.02
-0.04
-0.01
0.02
0.035
0.06
0.075
0.065
0.03
0.05
0.105
0.14
0.12
0.095
0.085
0.065
0.05
0.055
0.05
0.03
0.02
0.035
0.03
0.025
0.005
-0.015
-0.03
-0.035
-0.055
-0.035
-0.055
-0.065
-0.08
-0.095
-0.09
-0.09
-0.09
-0.1
-0.09
-0.08
-0.045
-0.01
0.0
-0.045
-0.075
-0.085
-0.065
-0.04
-0.04
-0.075
-0.08
-0.075
-0.065
-0.055
-0.06
-0.07
-0.07
-0.045
0.005
0.015
0.005
-0.015
-0.04
-0.03
0.005
0.06
0.145
0.24
0.29
0.31
0.355
0.405
0.4
0.355
0.3
0.27
0.28
0.325
0.41
0.495
0.565
0.665
0.82
0.97
1.01
1.005
0.96
0.91
0.83
0.725
0.59
0.44
0.265
0.115
0.035
-0.015
-0.055
-0.095
-0.12
-0.14
-0.135
-0.13
-0.155
-0.19
-0.21
-0.205
-0.185
-0.19
-0.2
-0.235
-0.24
-0.225
-0.24
-0.25
-0.225
-0.23
-0.245
-0.23
-0.22
-0.2
-0.16
-0.16
-0.16
-0.14
-0.11
-0.09
-0.115
-0.15
-0.145
-0.135
-0.11
-0.105
-0.085
-0.07
-0.1
-0.08
-0.045
-0.005
0.005
0.015
0.005
-0.025
-0.02
0.01
0.01
0.035
0.01
0.04
0.085
0.11
0.105
0.105
0.105
0.12
0.175
0.215
0.195
0.165
0.145
0.155
0.15
0.155
0.15
0.135
0.12
0.105
0.105
0.135
0.105
0.06
0.035
0.045
0.09
0.125
0.115
0.06
0.04
0.03
0.045
0.06
0.07
0.04
0.005
-0.005
-0.01
0.005
-0.02
-0.03
-0.025
0.015
0.035
0.045
0.035
0.02
-0.005
-0.025
-0.005
0.025
0.03
0.015
-0.025
-0.05
-0.025
-0.005
0.055
0.125
0.19
0.24
0.275
0.3
0.265
0.17
0.045
-0.08
-0.155
-0.16
-0.095
-0.005
0.06
0.155
0.305
0.475
0.565
0.595
0.625
0.68
0.665
0.615
0.54
0.48
0.355
0.205
0.105
0.06
0.005
-0.035
-0.07
-0.09
-0.05
-0.05
-0.07
-0.105
-0.135
-0.18
-0.17
-0.175
-0.165
-0.16
-0.19
-0.18
-0.16
-0.16
-0.135
-0.145
-0.145
-0.135
-0.11
-0.095
-0.075
-0.1
-0.11
-0.125
-0.115
-0.05
-0.04
-0.06
-0.09
-0.09
-0.04
0.04
0.045
0.035
0.035
0.05
0.04
0.045
0.05
0.06
0.055
0.065
0.095
0.13
0.15
0.15
0.17
0.175
0.19
0.2
0.2
0.195
0.2
0.21
0.21
0.2
0.215
0.235
0.255
0.28
0.315
0.31
0.255
0.245
0.225
0.24
0.225
0.2
0.15
0.105
0.08
0.09
0.085
0.055
0.05
0.045
0.04
0.03
0.05
0.06
0.06
0.075
0.07
0.075
0.065
0.065
0.055
0.045
0.04
0.04
0.04
0.05
0.05
0.035
0.035
0.04
0.06
0.075
0.085
0.105
0.115
0.125
0.105
0.085
0.09
0.1
0.09
0.08
0.095
0.11
0.085
0.085
0.105
0.145
0.185
0.195
0.195
0.175
0.17
0.16
0.145
0.145
0.145
0.14
0.13
0.12
0.1
0.11
0.115
0.085
0.09
0.115
0.13
0.13
0.1
0.055
0.045
0.06
0.105
0.115
0.12
0.09
0.065
0.075
0.085
0.105
0.1
0.095
0.07
0.07
0.1
0.125
0.11
0.12
0.1
0.09
0.08
0.095
0.1
0.125
0.145
0.15
0.15
0.155
0.17
0.175
0.18
0.25
0.32
0.43
0.525
0.595
0.63
0.69
0.765
0.835
0.89
0.945
1.005
1.05
1.105
1.18
1.24
1.315
1.345
1.345
1.315
1.24
1.115
1.02
0.895
0.72
0.525
0.32
0.185
0.1
0.03
0.015
0.025
0.035
0.0
-0.07
-0.095
-0.095
-0.07
-0.04
-0.05
-0.06
-0.075
-0.05
-0.045
-0.045
-0.06
-0.08
-0.09
-0.075
-0.055
-0.05
-0.025
-0.035
-0.06
-0.08
-0.065
-0.05
-0.04
-0.04
-0.03
0.005
0.005
0.015
-0.01
0.0
0.005
0.02
0.04
0.04
0.04
0.035
0.035
0.045
0.055
0.08
0.075
0.075
0.07
0.105
0.135
0.19
0.2
0.2
0.165
0.145
0.145
0.19
0.23
0.245
0.225
0.21
0.22
0.26
0.27
0.265
0.23
0.21
0.225
0.235
0.235
0.24
0.265
0.32
0.32
0.285
0.255
0.225
0.24
0.25
0.28
0.285
0.28
0.28
0.27
0.255
0.23
0.24
0.275
0.285
0.265
0.26
0.275
0.29
0.28
0.265
0.245
0.26
0.26
0.245
0.225
0.2
0.2
0.21
0.215
0.215
0.2
0.17
0.155
0.16
0.19
0.215
0.21
0.18
0.165
0.15
0.17
0.19
0.21
0.18
0.15
0.155
0.165
0.155
0.14
0.13
0.14
0.155
0.175
0.205
0.2
0.19
0.16
0.175
0.19
0.22
0.215
0.19
0.16
0.16
0.19
0.22
0.24
0.25
0.255
0.25
0.245
0.22
0.2
0.195
0.175
0.165
0.17
0.195
0.195
0.205
0.2
0.215
0.235
0.24
0.21
0.16
0.14
0.155
0.18
0.21
0.27
0.325
0.37
0.43
0.485
0.585
0.65
0.73
0.85
0.985
1.2
1.355
1.5
1.62
1.655
1.65
1.65
1.68
1.69
1.675
1.65
1.615
1.535
1.435
1.275
1.055
0.76
0.49
0.31
0.21
0.09
0.01
-0.015
-0.03
-0.035
-0.045
-0.05
-0.085
-0.085
-0.07
-0.065
-0.08
-0.115
-0.145
-0.16
-0.145
-0.125
-0.14
-0.155
-0.195
-0.185
-0.17
-0.145
-0.12
-0.12
-0.135
-0.17
-0.16
-0.155
-0.12
-0.11
-0.1
-0.09
-0.065
-0.06
-0.05
-0.055
-0.06
-0.055
-0.02
0.025
0.1
0.125
0.115
0.095
0.095
0.12
0.15
0.155
0.155
0.165
0.18
0.195
0.17
0.175
0.2
0.225
0.27
0.295
0.335
0.35
0.34
0.34
0.345
0.38
0.4
0.375
0.31
0.24
0.19
0.19
0.225
0.23
0.24
0.245
0.245
0.26
0.25
0.22
0.195
0.155
0.13
0.115
0.09
0.04
0.04
0.05
0.075
0.095
0.105
0.09
0.07
0.025
-0.01
0.015
0.035
0.04
0.02
0.015
0.035
0.025
0.035
0.005
0.015
0.02
0.02
0.025
0.025
0.025
0.03
0.005
0.015
0.01
0.005
-0.005
-0.03
-0.02
0.005
0.055
0.08
0.055
0.035
0.015
0.01
0.01
0.005
-0.025
-0.015
-0.02
-0.025
-0.05
-0.04
-0.035
-0.05
-0.07
-0.05
-0.02
0.01
-0.005
-0.01
0.0
-0.005
-0.025
-0.01
-0.015
-0.015
-0.035
-0.045
-0.055
-0.045
-0.05
-0.055
-0.03
0.015
0.05
0.055
0.05
0.0
-0.06
-0.075
-0.06
-0.03
-0.03
-0.055
-0.07
-0.045
-0.015
0.005
-0.015
-0.025
-0.04
-0.055
-0.02
0.025
0.025
0.0
-0.03
-0.03
0.005
0.005
-0.005
-0.03
-0.03
-0.01
0.005
0.065
0.095
0.11
0.135
0.17
0.26
0.365
0.47
0.54
0.61
0.705
0.795
0.88
1.0
1.105
1.17
1.205
1.225
1.285
1.35
1.355
1.315
1.295
1.245
1.15
1.01
0.895
0.73
0.505
0.31
0.16
0.035
-0.06
-0.14
-0.16
-0.175
-0.185
-0.22
-0.235
-0.225
-0.225
-0.21
-0.225
-0.25
-0.285
-0.29
-0.305
-0.33
-0.295
-0.32
-0.34
-0.35
-0.305
-0.26
-0.24
-0.245
-0.26
-0.255
-0.25
-0.25
-0.25
-0.245
-0.225
-0.2
-0.185
-0.16
-0.135
-0.125
-0.145
-0.175
-0.185
-0.185
-0.175
-0.185
-0.2
-0.19
-0.155
-0.1
-0.075
-0.06
-0.08
-0.095
-0.07
-0.045
-0.04
-0.03
-0.04
-0.035
-0.005
0.02
0.035
0.04
0.03
0.03
0.035
0.055
0.07
0.075
0.055
0.03
0.045
0.095
0.12
0.105
0.07
0.065
0.06
0.07
0.045
0.01
0.0
-0.025
-0.03
-0.05
-0.015
-0.005
-0.005
-0.03
-0.02
-0.01
0.01
0.005
-0.005
-0.025
-0.02
-0.005
-0.01
-0.025
-0.04
-0.05
-0.055
-0.035
-0.03
0.02
0.025
0.005
-0.05
-0.065
-0.065
-0.035
-0.05
-0.035
-0.04
-0.025
-0.005
-0.04
-0.045
-0.05
-0.045
-0.035
-0.025
-0.02
-0.035
-0.06
-0.065
-0.065
-0.055
-0.085
-0.09
-0.1
-0.085
-0.08
-0.07
-0.085
-0.085
-0.085
-0.085
-0.095
-0.05
-0.04
-0.07
-0.105
-0.115
-0.055
-0.015
-0.025
-0.07
-0.09
-0.065
-0.02
-0.015
-0.025
-0.045
-0.08
-0.075
-0.09
-0.08
-0.11
-0.12
-0.11
-0.11
-0.1
-0.095
-0.105
-0.1
-0.11
-0.1
-0.095
-0.085
-0.07
-0.08
-0.125
-0.135
-0.115
-0.08
-0.065
-0.09
-0.085
-0.075
-0.06
-0.055
-0.045
-0.07
-0.075
-0.085
-0.065
-0.035
-0.035
-0.075
-0.095
-0.07
-0.05
-0.005
0.03
0.06
0.11
0.17
0.255
0.375
0.445
0.515
0.605
0.74
0.9
1.075
1.19
1.27
1.295
1.305
1.315
1.37
1.365
1.32
1.25
1.135
1.025
0.92
0.79
0.625
0.385
0.15
0.005
-0.105
-0.2
-0.275
-0.315
-0.31
-0.315
-0.32
-0.36
-0.385
-0.4
-0.41
-0.41
-0.425
-0.46
-0.455
-0.44
-0.43
-0.41
-0.4
-0.375
-0.35
-0.375
-0.4
-0.395
-0.38
-0.395
-0.415
-0.435
-0.425
-0.39
-0.385
-0.395
-0.395
-0.395
-0.385
-0.38
-0.355
-0.35
-0.36
-0.37
-0.38
-0.36
-0.335
-0.31
-0.3
-0.29
-0.275
-0.235
-0.21
-0.195
-0.195
-0.195
-0.135
-0.095
-0.1
-0.11
-0.125
-0.105
-0.095
-0.085
-0.075
-0.06
-0.065
-0.07
-0.065
-0.05
-0.035
-0.03
-0.02
-0.02
-0.01
-0.01
-0.02
-0.055
-0.075
-0.09
-0.105
-0.1
-0.09
-0.1
-0.1
-0.1
-0.105
-0.105
-0.095
-0.105
-0.12
-0.155
-0.18
-0.18
-0.13
-0.135
-0.16
-0.145
-0.105
-0.08
-0.085
-0.14
-0.17
-0.185
-0.185
-0.15
-0.12
-0.135
-0.145
-0.16
-0.175
-0.175
-0.185
-0.185
-0.2
-0.21
-0.23
-0.235
-0.205
-0.195
-0.195
-0.2
-0.195
-0.19
-0.185
-0.205
-0.225
-0.235
-0.245
-0.235
-0.21
-0.195
-0.18
-0.18
-0.16
-0.135
-0.13
-0.15
-0.155
-0.175
-0.185
-0.175
-0.12
-0.115
-0.12
-0.12
-0.1
-0.1
-0.11
-0.125
-0.145
-0.15
-0.14
-0.12
-0.11
-0.1
-0.095
-0.09
-0.085
-0.055
-0.055
-0.08
-0.095
-0.09
-0.05
0.005
0.07
0.125
0.195
0.28
0.41
0.54
0.64
0.755
0.86
1.035
1.225
1.35
1.435
1.44
1.43
1.46
1.495
1.505
1.485
1.425
1.27
1.135
1.005
0.86
0.665
0.375
0.14
0.01
-0.09
-0.16
-0.175
-0.195
-0.19
-0.255
-0.275
-0.31
-0.32
-0.33
-0.33
-0.305
-0.295
-0.295
-0.305
-0.335
-0.365
-0.385
-0.375
-0.35
-0.315
-0.305
-0.335
-0.345
-0.355
-0.345
-0.325
-0.33
-0.34
-0.335
-0.315
-0.305
-0.29
-0.295
-0.285
-0.28
-0.305
-0.32
-0.325
-0.345
-0.36
-0.325
-0.255
-0.215
-0.21
-0.205
-0.21
-0.21
-0.185
-0.14
-0.105
-0.08
-0.09
-0.07
-0.07
-0.05
-0.01
0.01
-0.005
-0.01
-0.005
0.025
0.03
0.015
-0.02
-0.02
0.025
0.05
0.05
0.065
0.075
0.045
0.02
0.015
0.05
0.055
0.05
0.035
0.025
0.045
0.07
0.05
0.045
0.02
0.015
-0.01
0.015
0.025
0.03
0.0
0.015
0.03
0.055
0.03
0.015
0.0
0.02
0.03
0.02
0.0
-0.005
0.0
0.01
0.02
0.005
-0.04
-0.06
-0.06
-0.025
-0.005
0.005
-0.005
-0.02
-0.065
-0.055
-0.025
0.03
0.035
0.02
0.02
0.03
0.08
0.085
0.06
0.045
0.03
0.05
0.07
0.075
0.1
0.08
0.085
0.12
0.16
0.175
0.185
0.19
0.19
0.175
0.23
0.3
0.365
0.415
0.515
0.66
0.795
0.895
0.965
1.05
1.195
1.415
1.65
1.85
1.92
1.88
1.84
1.855
1.85
1.81
1.725
1.565
1.4
1.265
1.085
0.84
0.59
0.41
0.255
0.135
0.095
0.075
0.015
-0.03
-0.045
-0.045
-0.05
-0.025
-0.025
-0.065
-0.105
-0.1
-0.105
-0.095
-0.13
-0.14
-0.125
-0.11
-0.095
-0.07
-0.07
-0.055
-0.035
-0.01
0.0
0.005
0.0
0.01
-0.025
-0.02
0.005
0.055
0.095
0.14
0.155
0.125
0.075
0.05
0.0
-0.025
-0.015
0.02
0.07
0.14
0.195
0.235
0.265
0.3
0.36
0.425
0.45
0.44
0.465
0.52
0.59
0.62
0.62
0.62
0.615
0.61
0.64
0.68
0.695
0.68
0.71
0.74
0.755
0.75
0.715
0.705
0.705
0.71
0.71
0.705
0.675
0.655
0.65
0.68
0.735
0.74
0.71
0.685
0.7
0.7
0.725
0.75
0.77
0.78
0.79
0.775
0.79
0.81
0.81
0.79
0.77
0.755
0.74
0.77
0.795
0.81
0.8
0.785
0.795
0.805
0.8
0.79
0.785
0.81
0.82
0.855
0.85
0.835
0.82
0.81
0.82
0.86
0.835
0.855
0.865
0.875
0.89
0.885
0.875
0.87
0.885
0.92
1.0
1.005
0.975
0.945
0.955
0.96
0.975
0.985
0.985
0.975
0.99
1.04
1.055
1.05
1.035
1.035
1.05
1.05
1.055
1.065
1.065
1.04
1.07
1.08
1.095
1.09
1.08
1.06
1.05
1.035
1.05
1.08
1.08
1.07
1.07
1.08
1.1
1.11
1.125
1.12
1.14
1.16
1.19
1.19
1.15
1.13
1.155
1.16
1.16
1.13
1.105
1.125
1.15
1.19
1.23
1.23
1.215
1.19
1.175
1.19
1.19
1.16
1.17
1.185
1.185
1.185
1.17
1.16
1.18
1.165
1.16
1.175
1.195
1.22
1.22
1.185
1.155
1.155
1.18
1.215
1.245
1.24
1.215
1.215
1.22
1.235
1.23
1.25
1.32
1.415
1.47
1.52
1.575
1.635
1.705
1.77
1.84
1.905
1.915
1.93
1.99
2.04
2.105
2.14
2.18
2.23
2.285
2.315
2.345
2.345
2.25
2.13
2.02
1.965
1.92
1.8
1.625
1.45
1.35
1.265
1.205
1.205
1.195
1.155
1.135
1.14
1.135
1.1
1.08
1.06
1.03
0.99
0.955
0.94
0.94
0.93
0.92
0.905
0.925
0.935
0.945
0.995
0.98
0.985
1.0
1.025
1.01
0.97
0.96
0.995
1.03
1.055
1.06
1.09
1.105
1.155
1.175
1.195
1.21
1.21
1.24
1.265
1.28
1.29
1.31
1.37
1.425
1.46
1.49
1.495
1.52
1.525
1.535
1.55
1.565
1.57
1.58
1.595
1.575
1.585
1.615
1.65
1.64
1.61
1.6
1.63
1.62
1.6
1.565
1.57
1.58
1.595
1.575
1.545
1.52
1.51
1.545
1.585
1.595
1.585
1.575
1.6
1.605
1.585
1.615
1.645
1.66
1.645
1.63
1.61
1.62
1.635
1.63
1.65
1.64
1.65
1.665
1.68
1.68
1.67
1.69
1.72
1.8
1.845
1.84
1.81
1.75
1.655
1.575
1.455
1.355
1.27
1.15
0.995
0.795
0.615
0.485
0.31
0.14
0.03
-0.015
-0.02
-0.02
0.045
0.16
0.305
0.445
0.575
0.64
0.68
0.78
0.915
1.05
1.15
1.22
1.295
1.35
1.385
1.425
1.475
1.525
1.55
1.585
1.59
1.625
1.68
1.71
1.735
1.75
1.76
1.785
1.795
1.78
1.765
1.785
1.8
1.815
1.835
1.835
1.845
1.835
1.87
1.92
1.965
1.97
1.96
1.97
2.005
2.025
2.05
2.05
2.055
2.065
2.105
2.125
2.165
2.2
2.22
2.195
2.205
2.25
2.26
2.265
2.26
2.29
2.32
2.35
2.37
2.39
2.41
2.395
2.405
2.42
2.415
2.41
2.38
2.36
2.36
2.345
2.32
2.295
2.265
2.225
2.225
2.21
2.16
2.095
2.03
2.01
1.995
1.99
1.985
1.965
1.925
1.875
1.855
1.855
1.84
1.83
1.795
1.77
1.75
1.75
1.765
1.72
1.7
1.665
1.68
1.695
1.71
1.7
1.695
1.67
1.68
1.67
1.67
1.655
1.65
1.67
1.67
1.68
1.675
1.66
1.665
1.655
1.665
1.675
1.68
1.65
1.635
1.625
1.645
1.64
1.63
1.595
1.565
1.565
1.59
1.61
1.59
1.565
1.525
1.52
1.53
1.535
1.55
1.54
1.515
1.5
1.535
1.55
1.565
1.535
1.525
1.52
1.5
1.505
1.52
1.505
1.45
1.405
1.41
1.45
1.49
1.495
1.495
1.515
1.55
1.6
1.65
1.71
1.72
1.745
1.82
1.89
1.96
2.005
2.03
2.03
2.05
2.06
2.08
2.07
2.05
2.025
1.995
1.97
1.935
1.87
1.785
1.655
1.505
1.435
1.395
1.315
1.265
1.225
1.22
1.225
1.23
1.205
1.17
1.165
1.155
1.155
1.145
1.115
1.09
1.085
1.085
1.105
1.1
1.08
1.02
0.99
0.965
1.0
1.035
1.045
1.015
0.995
0.99
1.015
1.03
1.015
1.0
0.985
1.0
1.015
1.025
1.055
1.06
1.025
1.005
1.0
1.025
1.035
1.045
1.045
1.055
1.055
1.03
1.025
0.985
0.96
0.96
0.975
1.0
1.01
0.995
0.995
1.02
1.055
1.09
1.105
1.075
1.07
1.075
1.11
1.115
1.12
1.115
1.115
1.12
1.145
1.16
1.16
1.13
1.115
1.115
1.115
1.095
1.085
1.06
1.065
1.055
1.04
1.065
1.075
1.075
1.07
1.085
1.09
1.08
1.075
1.07
1.09
1.1
1.09
1.095
1.08
1.055
1.03
1.035
1.06
1.065
1.035
1.0
0.985
0.99
1.005
1.01
0.995
0.985
0.96
0.955
0.96
0.965
0.98
0.945
0.91
0.87
0.86
0.895
0.925
0.92
0.915
0.925
0.93
0.935
0.93
0.91
0.895
0.905
0.9
0.9
0.895
0.885
0.86
0.865
0.86
0.88
0.865
0.83
0.815
0.825
0.835
0.83
0.82
0.8
0.81
0.795
0.825
0.865
0.86
0.83
0.82
0.805
0.825
0.845
0.83
0.795
0.765
0.81
0.845
0.85
0.845
0.815
0.765
0.76
0.815
0.84
0.81
0.77
0.74
0.735
0.77
0.795
0.785
0.77
0.755
0.755
0.75
0.73
0.725
0.715
0.7
0.7
0.695
0.715
0.715
0.69
0.685
0.67
0.685
0.69
0.66
0.645
0.625
0.625
0.66
0.66
0.65
0.63
0.62
0.645
0.665
0.655
0.645
0.635
0.62
0.635
0.645
0.655
0.64
0.6
0.55
0.53
0.565
0.595
0.63
0.62
0.595
0.6
0.62
0.61
0.59
0.56
0.545
0.57
0.6
0.605
0.615
0.59
0.585
0.575
0.585
0.575
0.57
0.525
0.515
0.545
0.585
0.595
0.575
0.575
0.605
0.625
0.67
0.695
0.745
0.78
0.82
0.875
0.94
0.97
1.0
1.035
1.105
1.13
1.145
1.165
1.145
1.16
1.145
1.14
1.13
1.105
1.07
1.005
0.945
0.9
0.81
0.675
0.52
0.415
0.34
0.32
0.33
0.325
0.285
0.235
0.2
0.185
0.175
0.18
0.165
0.135
0.09
0.07
0.045
0.055
0.08
0.11
0.09
0.05
0.05
0.11
0.115
0.08
0.065
0.085
0.105
0.11
0.06
0.02
0.005
0.04
0.085
0.1
0.085
0.05
0.025
0.03
0.03
0.04
0.03
0.005
0.0
0.045
0.1
0.15
0.13
0.12
0.115
0.135
0.12
0.13
0.155
0.15
0.185
0.165
0.175
0.175
0.22
0.245
0.26
0.305
0.325
0.34
0.335
0.315
0.31
0.32
0.345
0.325
0.32
0.31
0.305
0.3
0.3
0.295
0.28
0.29
0.3
0.315
0.3
0.32
0.305
0.29
0.265
0.285
0.295
0.275
0.255
0.23
0.225
0.23
0.225
0.23
0.235
0.23
0.235
0.23
0.235
0.215
0.19
0.185
0.19
0.195
0.24
0.265
0.235
0.21
0.185
0.19
0.24
0.26
0.24
0.21
0.185
0.2
0.2
0.205
0.175
0.14
0.155
0.17
0.195
0.2
0.19
0.19
0.185
0.155
0.17
0.185
0.19
0.175
0.165
0.16
0.18
0.195
0.195
0.185
0.185
0.18
0.2
0.19
0.18
0.205
0.205
0.18
0.18
0.15
0.145
0.155
0.175
0.19
0.18
0.175
