Lead II
1.07
1.1
1.115
1.115
1.095
1.055
1.03
0.965
0.875
0.785
0.69
0.61
0.56
0.525
0.48
0.43
0.4
0.375
0.355
0.34
0.345
0.355
0.395
0.44
0.475
0.405
0.205
-0.04
-0.27
-0.385
-0.445
-0.475
-0.515
-0.55
-0.57
-0.595
-0.6
-0.62
-0.65
-0.68
-0.71
-0.7
-0.69
-0.695
-0.715
-0.755
-0.765
-0.775
-0.785
-0.785
-0.805
-0.825
-0.85
-0.855
-0.85
-0.845
-0.875
-0.9
-0.91
-0.935
-0.935
-0.935
-0.955
-0.98
-0.985
-0.99
-0.985
-0.995
-1.005
-1.04
-1.05
-1.05
-1.055
-1.045
-1.065
-1.09
-1.075
-1.045
-1.035
-1.03
-1.025
-1.03
-1.035
-1.01
-0.99
-0.955
-0.94
-0.935
-0.91
-0.87
-0.845
-0.8
-0.79
-0.78
-0.765
-0.74
-0.695
-0.66
-0.655
-0.655
-0.64
-0.62
-0.58
-0.565
-0.565
-0.545
-0.545
-0.535
-0.49
-0.47
-0.465
-0.485
-0.495
-0.485
-0.45
-0.445
-0.47
-0.5
-0.5
-0.48
-0.455
-0.43
-0.455
-0.465
-0.46
-0.445
-0.445
-0.45
-0.445
-0.455
-0.485
-0.475
-0.435
-0.425
-0.43
-0.46
-0.46
-0.455
-0.425
-0.43
-0.44
-0.43
-0.425
-0.405
-0.4
-0.395
-0.405
-0.415
-0.425
-0.41
-0.39
-0.385
-0.395
-0.4
-0.415
-0.42
-0.405
-0.4
-0.42
-0.44
-0.44
-0.425
-0.41
-0.415
-0.415
-0.425
-0.44
-0.435
-0.415
-0.415
-0.41
-0.42
-0.415
-0.415
-0.4
-0.4
-0.42
-0.42
-0.43
-0.4
-0.4
-0.395
-0.39
-0.42
-0.43
-0.42
-0.4
-0.4
-0.4
-0.41
-0.41
-0.4
-0.38
-0.38
-0.39
-0.395
-0.405
-0.395
-0.38
-0.365
-0.375
-0.385
-0.39
-0.385
-0.37
-0.375
-0.4
-0.42
-0.405
-0.4
-0.4
-0.4
-0.405
-0.415
-0.42
-0.42
-0.405
-0.4
-0.41
-0.415
-0.41
-0.39
-0.375
-0.375
-0.395
-0.405
-0.4
-0.39
-0.39
-0.375
-0.395
-0.395
-0.42
-0.385
-0.365
-0.355
-0.35
-0.365
-0.37
-0.375
-0.355
-0.34
-0.35
-0.355
-0.365
-0.35
-0.32
-0.315
-0.32
-0.33
-0.315
-0.275
-0.225
-0.16
-0.1
-0.03
0.1
0.27
0.47
0.66
0.845
0.99
1.12
1.165
1.105
0.89
0.605
0.295
-0.005
-0.245
-0.375
-0.395
-0.375
-0.355
-0.35
-0.345
-0.335
-0.37
-0.395
-0.42
-0.44
-0.445
-0.435
-0.44
-0.45
-0.465
-0.465
-0.465
-0.45
-0.45
-0.45
-0.465
-0.495
-0.47
-0.47
-0.47
-0.47
-0.485
-0.49
-0.475
-0.455
-0.455
-0.465
-0.485
-0.505
-0.49
-0.47
-0.465
-0.485
-0.495
-0.485
-0.49
-0.475
-0.47
-0.48
-0.495
-0.49
-0.495
-0.475
-0.455
-0.47
-0.49
-0.5
-0.49
-0.465
-0.455
-0.455
-0.47
-0.475
-0.475
-0.455
-0.455
-0.45
-0.445
-0.435
-0.41
-0.405
-0.38
-0.38
-0.38
-0.385
-0.355
-0.34
-0.325
-0.325
-0.34
-0.335
-0.325
-0.3
-0.28
-0.285
-0.295
-0.29
-0.275
-0.26
-0.245
-0.235
-0.25
-0.255
-0.245
-0.24
-0.24
-0.24
-0.255
-0.255
-0.235
-0.235
-0.235
-0.25
-0.275
-0.3
-0.295
-0.28
-0.29
-0.32
-0.325
-0.335
-0.33
-0.33
-0.33
-0.345
-0.365
-0.375
-0.37
-0.37
-0.36
-0.37
-0.4
-0.4
-0.395
-0.385
-0.375
-0.37
-0.375
-0.385
-0.355
-0.34
-0.34
-0.355
-0.37
-0.36
-0.36
-0.35
-0.345
-0.34
-0.365
-0.38
-0.36
-0.365
-0.355
-0.375
-0.375
-0.38
-0.365
-0.345
-0.34
-0.35
-0.37
-0.385
-0.38
-0.37
-0.36
-0.37
-0.38
-0.38
-0.38
-0.345
-0.345
-0.365
-0.37
-0.385
-0.37
-0.35
-0.36
-0.37
-0.38
-0.38
-0.375
-0.36
-0.35
-0.35
-0.355
-0.35
-0.355
-0.36
-0.365
-0.39
-0.385
-0.39
-0.39
-0.36
-0.36
-0.375
-0.38
-0.38
-0.375
-0.37
-0.38
-0.375
-0.395
-0.4
-0.395
-0.385
-0.375
-0.375
-0.4
-0.425
-0.425
-0.41
-0.405
-0.4
-0.41
-0.43
-0.405
-0.385
-0.39
-0.395
-0.42
-0.415
-0.395
-0.365
-0.365
-0.37
-0.39
-0.4
-0.385
-0.355
-0.31
-0.275
-0.205
-0.12
0.025
0.175
0.355
0.565
0.755
0.945
1.08
1.075
0.92
0.67
0.365
0.075
-0.195
-0.38
-0.475
-0.475
-0.465
-0.435
-0.405
-0.375
-0.385
-0.41
-0.445
-0.475
-0.47
-0.455
-0.465
-0.485
-0.485
-0.5
-0.505
-0.495
-0.5
-0.52
-0.545
-0.535
-0.54
-0.515
-0.49
-0.5
-0.5
-0.525
-0.515
-0.515
-0.52
-0.545
-0.59
-0.585
-0.56
-0.535
-0.53
-0.545
-0.545
-0.545
-0.525
-0.515
-0.52
-0.505
-0.515
-0.525
-0.525
-0.52
-0.505
-0.515
-0.5
-0.495
-0.495
-0.47
-0.455
-0.45
-0.445
-0.46
-0.445
-0.415
-0.405
-0.4
-0.42
-0.425
-0.455
-0.44
-0.435
-0.45
-0.455
-0.425
-0.4
-0.39
-0.37
-0.385
-0.405
-0.415
-0.395
-0.385
-0.375
-0.385
-0.38
-0.37
-0.355
-0.345
-0.34
-0.355
-0.37
-0.365
-0.37
-0.36
-0.345
-0.355
-0.365
-0.37
-0.365
-0.355
-0.37
-0.38
-0.4
-0.405
-0.395
-0.375
-0.37
-0.375
-0.405
-0.405
-0.405
-0.39
-0.38
-0.41
-0.425
-0.425
-0.415
-0.4
-0.42
-0.42
-0.43
-0.425
-0.415
-0.405
-0.4
-0.41
-0.425
-0.44
-0.435
-0.415
-0.405
-0.425
-0.455
-0.465
-0.475
-0.465
-0.445
-0.46
-0.46
-0.46
-0.435
-0.415
-0.42
-0.435
-0.43
-0.43
-0.42
-0.39
-0.385
-0.395
-0.41
-0.405
-0.385
-0.375
-0.38
-0.385
-0.405
-0.415
-0.395
-0.37
-0.37
-0.365
-0.355
-0.375
-0.36
-0.36
-0.36
-0.375
-0.38
-0.39
-0.375
-0.36
-0.37
-0.38
-0.38
-0.38
-0.375
-0.36
-0.37
-0.385
-0.39
-0.395
-0.37
-0.365
-0.35
-0.37
-0.36
-0.365
-0.345
-0.325
-0.33
-0.33
-0.345
-0.365
-0.375
-0.345
-0.34
-0.365
-0.365
-0.36
-0.33
-0.285
-0.25
-0.23
-0.26
-0.3
-0.295
-0.245
-0.17
-0.07
0.03
0.17
0.375
0.595
0.815
0.995
1.1
1.135
1.06
0.85
0.595
0.325
0.04
-0.215
-0.36
-0.425
-0.425
-0.42
-0.42
-0.415
-0.39
-0.355
-0.36
-0.385
-0.415
-0.415
-0.405
-0.4
-0.405
-0.41
-0.42
-0.42
-0.425
-0.41
-0.405
-0.43
-0.48
-0.525
-0.525
-0.495
-0.495
-0.5
-0.515
-0.49
-0.455
-0.44
-0.435
-0.455
-0.47
-0.48
-0.475
-0.455
-0.44
-0.435
-0.435
-0.415
-0.405
-0.41
-0.425
-0.44
-0.445
-0.44
-0.435
-0.415
-0.42
-0.45
-0.47
-0.465
-0.45
-0.43
-0.385
-0.39
-0.415
-0.44
-0.47
-0.465
-0.47
-0.455
-0.445
-0.435
-0.43
-0.405
-0.415
-0.42
-0.425
-0.415
-0.42
-0.385
-0.37
-0.36
-0.375
-0.365
-0.34
-0.335
-0.345
-0.34
-0.345
-0.33
-0.31
-0.3
-0.275
-0.275
-0.285
-0.28
-0.265
-0.265
-0.27
-0.28
-0.265
-0.25
-0.235
-0.245
-0.27
-0.275
-0.295
-0.295
-0.295
-0.295
-0.295
-0.305
-0.335
-0.355
-0.365
-0.34
-0.32
-0.31
-0.305
-0.35
-0.38
-0.39
-0.375
-0.365
-0.385
-0.395
-0.385
-0.37
-0.36
-0.365
-0.37
-0.39
-0.36
-0.345
-0.325
-0.33
-0.345
-0.33
-0.305
-0.265
-0.24
-0.225
-0.21
-0.195
-0.17
-0.125
-0.09
-0.035
-0.01
0.025
0.095
0.165
0.24
0.305
0.355
0.42
0.52
0.62
0.725
0.815
0.875
0.955
1.01
1.03
1.025
1.015
0.995
0.975
0.93
0.905
0.83
0.725
0.615
0.515
0.405
0.33
0.23
0.145
0.08
0.055
0.065
0.075
0.045
0.025
0.02
0.045
0.11
0.185
0.245
0.245
0.17
0.02
-0.175
-0.36
-0.465
-0.55
-0.58
-0.59
-0.595
-0.625
-0.665
-0.715
-0.73
-0.745
-0.74
-0.735
-0.765
-0.78
-0.805
-0.815
-0.83
-0.82
-0.83
-0.845
-0.865
-0.86
-0.87
-0.85
-0.865
-0.885
-0.9
-0.905
-0.91
-0.905
-0.91
-0.92
-0.935
-0.93
-0.93
-0.915
-0.925
-0.945
-0.935
-0.95
-0.95
-0.94
-0.935
-0.94
-0.94
-0.945
-0.925
-0.905
-0.905
-0.915
-0.925
-0.89
-0.875
-0.855
-0.835
-0.84
-0.83
-0.815
-0.78
-0.775
-0.755
-0.75
-0.735
-0.72
-0.7
-0.67
-0.645
-0.63
-0.625
-0.615
-0.595
-0.58
-0.545
-0.55
-0.54
-0.54
-0.51
-0.5
-0.48
-0.485
-0.48
-0.485
-0.46
-0.45
-0.45
-0.445
-0.455
-0.465
-0.43
-0.42
-0.405
-0.41
-0.42
-0.43
-0.39
-0.385
-0.395
-0.415
-0.42
-0.42
-0.415
-0.405
-0.395
-0.39
-0.405
-0.42
-0.4
-0.38
-0.375
-0.375
-0.4
-0.4
-0.37
-0.36
-0.33
-0.335
-0.37
-0.375
-0.345
-0.355
-0.35
-0.35
-0.345
-0.34
-0.325
-0.325
-0.31
-0.31
-0.325
-0.325
-0.305
-0.29
-0.265
-0.28
-0.28
-0.295
-0.275
-0.26
-0.255
-0.275
-0.295
-0.315
-0.31
-0.3
-0.29
-0.285
-0.295
-0.29
-0.275
-0.27
-0.26
-0.275
-0.285
-0.31
-0.31
-0.305
-0.29
-0.305
-0.315
-0.32
-0.315
-0.3
-0.31
-0.285
-0.305
-0.31
-0.315
-0.305
-0.285
-0.28
-0.29
-0.325
-0.345
-0.31
-0.295
-0.29
-0.295
-0.31
-0.295
-0.28
-0.27
-0.285
-0.32
-0.32
-0.295
-0.275
-0.265
-0.275
-0.31
-0.315
-0.31
-0.29
-0.28
-0.295
-0.295
-0.295
-0.28
-0.275
-0.28
-0.285
-0.29
-0.3
-0.27
-0.265
-0.265
-0.28
-0.3
-0.29
-0.25
-0.235
-0.235
-0.255
-0.295
-0.285
-0.265
-0.245
-0.245
-0.235
-0.255
-0.28
-0.28
-0.245
-0.255
-0.25
-0.27
-0.27
-0.275
-0.255
-0.255
-0.255
-0.25
-0.245
-0.26
-0.25
-0.25
-0.255
-0.265
-0.27
-0.27
-0.245
-0.24
-0.255
-0.265
-0.28
-0.275
-0.275
-0.25
-0.25
-0.245
-0.24
-0.24
-0.23
-0.225
-0.225
-0.225
-0.24
-0.225
-0.21
-0.205
-0.21
-0.22
-0.22
-0.205
-0.18
-0.165
-0.175
-0.195
-0.19
-0.165
-0.15
-0.15
-0.175
-0.22
-0.23
-0.195
-0.185
-0.175
-0.18
-0.2
-0.195
-0.17
-0.16
-0.165
-0.175
-0.195
-0.2
-0.195
-0.175
-0.16
-0.16
-0.165
-0.16
-0.13
-0.085
-0.04
0.01
0.085
0.175
0.31
0.455
0.605
0.78
0.94
1.11
1.28
1.36
1.32
1.155
0.885
0.605
0.375
0.155
-0.055
-0.185
-0.225
-0.2
-0.165
-0.125
-0.13
-0.14
-0.14
-0.165
-0.17
-0.16
-0.18
-0.195
-0.215
-0.23
-0.225
-0.24
-0.225
-0.24
-0.265
-0.265
-0.27
-0.265
-0.26
-0.27
-0.3
-0.305
-0.29
-0.27
-0.27
-0.28
-0.285
-0.29
-0.275
-0.275
-0.27
-0.275
-0.285
-0.29
-0.27
-0.25
-0.255
-0.255
-0.28
-0.28
-0.265
-0.25
-0.24
-0.235
-0.255
-0.26
-0.26
-0.24
-0.235
-0.255
-0.27
-0.28
-0.25
-0.225
-0.225
-0.225
-0.235
-0.24
-0.245
-0.22
-0.215
-0.21
-0.215
-0.2
-0.19
-0.185
-0.17
-0.165
-0.18
-0.175
-0.175
-0.18
-0.18
-0.17
-0.185
-0.175
-0.14
-0.11
-0.105
-0.115
-0.14
-0.14
-0.12
-0.08
-0.065
-0.065
-0.085
-0.08
-0.065
-0.045
-0.05
-0.04
-0.05
-0.045
-0.035
-0.025
-0.035
-0.025
-0.04
-0.06
-0.04
-0.05
-0.045
-0.045
-0.06
-0.065
-0.06
-0.04
-0.065
-0.07
-0.095
-0.115
-0.11
-0.09
-0.09
-0.115
-0.14
-0.145
-0.13
-0.135
-0.14
-0.145
-0.16
-0.175
-0.155
-0.155
-0.135
-0.15
-0.15
-0.145
-0.13
-0.12
-0.12
-0.135
-0.145
-0.145
-0.15
-0.14
-0.135
-0.135
-0.16
-0.15
-0.15
-0.11
-0.105
-0.105
-0.11
-0.115
-0.09
-0.065
-0.06
-0.075
-0.08
-0.09
-0.07
-0.04
-0.035
-0.045
-0.065
-0.075
-0.06
-0.04
-0.05
-0.06
-0.085
-0.075
-0.06
-0.045
-0.055
-0.07
-0.08
-0.07
-0.07
-0.06
-0.07
-0.09
-0.105
-0.115
-0.105
-0.085
-0.08
-0.085
-0.085
-0.1
-0.095
-0.08
-0.065
-0.07
-0.07
-0.08
-0.075
-0.055
-0.07
-0.06
-0.075
-0.075
-0.07
-0.055
-0.05
-0.055
-0.08
-0.1
-0.075
-0.055
-0.06
-0.06
-0.08
-0.075
-0.065
-0.055
-0.045
-0.05
-0.075
-0.075
-0.08
-0.055
-0.055
-0.045
-0.07
-0.08
-0.065
-0.06
-0.06
-0.065
-0.08
-0.075
-0.05
-0.035
-0.03
-0.04
-0.055
-0.07
-0.06
-0.04
-0.05
-0.07
-0.075
-0.065
-0.04
-0.035
-0.025
-0.03
-0.05
-0.045
-0.055
-0.025
-0.02
-0.03
-0.03
-0.045
-0.04
-0.03
-0.02
-0.05
-0.05
-0.035
-0.015
-0.01
-0.03
-0.02
-0.02
-0.03
-0.025
0.0
-0.01
-0.03
-0.05
-0.05
-0.04
-0.02
-0.01
-0.01
-0.025
-0.03
-0.02
-0.005
-0.015
-0.02
-0.035
-0.025
-0.025
-0.01
-0.01
-0.03
-0.05
-0.045
-0.04
-0.035
-0.025
-0.03
-0.04
-0.04
-0.035
-0.02
-0.015
-0.025
-0.02
-0.03
0.0
-0.005
0.0
-0.005
-0.03
-0.03
-0.015
-0.01
-0.01
-0.01
-0.01
-0.015
0.01
0.01
0.01
-0.005
-0.01
-0.005
0.01
0.015
0.01
-0.005
-0.03
-0.03
-0.015
-0.015
-0.025
-0.04
-0.025
-0.035
-0.005
0.0
0.0
-0.015
-0.02
-0.03
-0.03
-0.015
-0.015
-0.03
-0.02
-0.015
0.005
0.015
0.015
-0.005
-0.015
-0.015
-0.005
0.0
0.015
0.005
-0.015
-0.01
0.005
0.02
0.03
0.03
0.015
0.01
0.025
0.03
0.045
0.03
0.01
0.01
0.035
0.04
0.045
0.045
0.035
0.04
0.065
0.065
0.075
0.09
0.1
0.13
0.195
0.295
0.4
0.5
0.625
0.8
0.955
1.155
1.33
1.47
1.535
1.48
1.345
1.125
0.895
0.665
0.415
0.18
0.045
0.0
0.005
0.035
0.04
0.025
0.03
0.035
0.02
-0.02
-0.065
-0.08
-0.065
-0.045
-0.055
-0.065
-0.08
-0.09
-0.08
-0.065
-0.08
-0.105
-0.12
-0.13
-0.12
-0.09
-0.065
-0.08
-0.11
-0.12
-0.095
-0.08
-0.08
-0.095
-0.115
-0.125
-0.125
-0.11
-0.12
-0.135
-0.155
-0.16
-0.145
-0.13
-0.135
-0.15
-0.15
-0.15
-0.13
-0.115
-0.11
-0.125
-0.14
-0.14
-0.13
-0.12
-0.11
-0.11
-0.14
-0.135
-0.12
-0.11
-0.1
-0.1
-0.12
-0.105
-0.085
-0.09
-0.075
-0.09
-0.095
-0.085
-0.075
-0.06
-0.075
-0.08
-0.075
-0.07
-0.055
-0.04
-0.05
-0.055
-0.055
-0.055
-0.045
-0.02
-0.02
-0.04
-0.06
-0.045
-0.045
-0.03
-0.035
-0.04
-0.04
-0.04
-0.035
-0.005
-0.005
0.0
0.0
-0.01
0.0
0.0
0.03
0.02
0.0
-0.015
-0.005
0.0
-0.005
0.015
0.0
-0.015
-0.015
-0.03
-0.04
-0.05
-0.07
-0.09
-0.095
-0.085
-0.08
-0.1
-0.125
-0.125
-0.12
-0.115
-0.11
-0.105
-0.13
-0.13
-0.1
-0.095
-0.085
-0.09
-0.1
-0.12
-0.105
-0.095
-0.1
-0.1
-0.115
-0.115
-0.105
-0.1
-0.09
-0.095
-0.09
-0.075
-0.06
-0.055
-0.045
-0.05
-0.07
-0.08
-0.055
-0.05
-0.045
-0.06
-0.07
-0.055
-0.055
-0.055
-0.06
-0.065
-0.08
-0.08
-0.07
-0.07
-0.065
-0.07
-0.08
-0.07
-0.08
-0.06
-0.07
-0.1
-0.105
-0.095
-0.09
-0.075
-0.085
-0.095
-0.105
-0.11
-0.115
-0.095
-0.09
-0.095
-0.095
-0.09
-0.085
-0.05
-0.065
-0.055
-0.085
-0.08
-0.075
-0.065
-0.055
-0.065
-0.075
-0.075
-0.055
-0.05
-0.04
-0.055
-0.075
-0.065
-0.055
-0.025
-0.035
-0.055
-0.07
-0.075
-0.075
-0.06
-0.055
-0.075
-0.085
-0.095
-0.095
-0.085
-0.065
-0.065
-0.08
-0.08
-0.07
-0.05
-0.06
-0.065
-0.08
-0.075
-0.065
-0.04
-0.035
-0.05
-0.07
-0.075
-0.055
-0.03
-0.05
-0.05
-0.06
-0.07
-0.065
-0.06
-0.045
-0.07
-0.085
-0.075
-0.06
-0.045
-0.05
-0.055
-0.08
-0.075
-0.065
-0.055
-0.055
-0.055
-0.075
-0.065
-0.06
-0.045
-0.04
-0.055
-0.055
-0.075
-0.06
-0.045
-0.05
-0.065
-0.075
-0.075
-0.065
-0.06
-0.07
-0.07
-0.085
-0.085
-0.08
-0.04
-0.04
-0.045
-0.05
-0.055
-0.05
-0.03
-0.03
-0.05
-0.065
-0.06
-0.04
-0.02
-0.03
-0.035
-0.04
-0.045
-0.04
-0.015
-0.015
-0.03
-0.045
-0.03
-0.03
-0.01
-0.02
-0.01
-0.03
-0.025
-0.015
0.01
0.02
0.025
0.05
0.07
0.135
0.205
0.295
0.375
0.505
0.66
0.835
1.03
1.23
1.385
1.5
1.51
1.425
1.255
1.005
0.74
0.48
0.225
0.045
-0.035
-0.055
-0.045
-0.045
-0.025
-0.03
-0.025
-0.035
-0.06
-0.075
-0.095
-0.075
-0.075
-0.09
-0.105
-0.12
-0.125
-0.145
-0.135
-0.13
-0.13
-0.155
-0.16
-0.145
-0.14
-0.145
-0.16
-0.185
-0.185
-0.16
-0.14
-0.15
-0.165
-0.17
-0.17
-0.17
-0.15
-0.16
-0.175
-0.17
-0.175
-0.16
-0.145
-0.145
-0.165
-0.175
-0.185
-0.18
-0.15
-0.15
-0.15
-0.16
-0.17
-0.14
-0.115
-0.12
-0.135
-0.145
-0.155
-0.125
-0.1
-0.1
-0.09
-0.095
-0.085
-0.09
-0.08
-0.08
-0.08
-0.095
-0.09
-0.06
-0.05
-0.055
-0.045
-0.055
-0.065
-0.045
-0.035
-0.03
-0.035
-0.045
-0.045
-0.04
-0.01
-0.02
-0.025
-0.035
-0.045
-0.035
-0.01
0.015
0.005
-0.015
-0.01
-0.02
0.005
0.005
-0.02
-0.035
-0.035
-0.03
-0.025
-0.025
-0.035
-0.045
-0.05
-0.05
-0.045
-0.06
-0.07
-0.08
-0.095
-0.08
-0.08
-0.095
-0.11
-0.12
-0.13
-0.125
-0.125
-0.115
-0.13
-0.17
-0.16
-0.14
-0.13
-0.13
-0.135
-0.15
-0.155
-0.14
-0.13
-0.125
-0.13
-0.155
-0.15
-0.145
-0.11
-0.115
-0.12
-0.145
-0.135
-0.12
-0.11
-0.09
-0.085
-0.1
-0.11
-0.1
-0.08
-0.085
-0.1
-0.1
-0.09
-0.075
-0.075
-0.085
-0.085
-0.1
-0.11
-0.11
-0.09
-0.09
-0.095
-0.095
-0.09
-0.08
-0.11
-0.105
-0.13
-0.135
-0.115
-0.095
-0.095
-0.11
-0.095
-0.12
-0.13
-0.11
-0.09
-0.11
-0.105
-0.13
-0.125
-0.12
-0.11
-0.12
-0.135
-0.14
-0.125
-0.13
-0.105
-0.115
-0.14
-0.16
-0.165
-0.135
-0.1
-0.105
-0.115
-0.125
-0.125
-0.1
-0.09
-0.1
-0.105
-0.13
-0.125
-0.105
-0.09
-0.07
-0.09
-0.09
-0.09
-0.1
-0.07
-0.065
-0.07
-0.065
-0.065
-0.02
0.04
0.1
0.155
0.225
0.35
0.5
0.695
0.885
1.06
1.225
1.35
1.375
1.26
1.015
0.72
0.435
0.16
-0.06
-0.16
-0.17
-0.135
-0.12
-0.11
-0.12
-0.115
-0.13
-0.15
-0.175
-0.19
-0.2
-0.19
-0.2
-0.21
-0.23
-0.235
-0.235
-0.225
-0.215
-0.225
-0.245
-0.23
-0.235
-0.215
-0.22
-0.225
-0.225
-0.225
-0.215
-0.205
-0.2
-0.215
-0.225
-0.23
-0.22
-0.205
-0.205
-0.215
-0.225
-0.235
-0.22
-0.21
-0.215
-0.215
-0.235
-0.23
-0.22
-0.205
-0.215
-0.23
-0.215
-0.225
-0.21
-0.185
-0.19
-0.19
-0.2
-0.195
-0.18
-0.17
-0.165
-0.16
-0.18
-0.185
-0.17
-0.135
-0.115
-0.105
-0.13
-0.115
-0.105
-0.085
-0.075
-0.085
-0.11
-0.085
-0.06
-0.05
-0.05
-0.06
-0.08
-0.09
-0.07
-0.035
-0.04
-0.045
-0.065
-0.07
-0.07
-0.06
-0.06
-0.075
-0.105
-0.105
-0.105
-0.105
-0.11
-0.13
-0.16
-0.17
-0.16
-0.15
-0.155
-0.175
-0.195
-0.21
-0.195
-0.175
-0.185
-0.22
-0.21
-0.185
-0.18
-0.17
-0.185
-0.185
-0.2
-0.19
-0.165
-0.165
-0.145
-0.145
-0.17
-0.175
-0.175
-0.17
-0.155
-0.165
-0.185
-0.18
-0.15
-0.135
-0.115
-0.14
-0.15
-0.145
-0.145
-0.14
-0.15
-0.155
-0.145
-0.135
-0.12
-0.115
-0.115
-0.125
-0.16
-0.135
-0.13
-0.125
-0.125
-0.135
-0.165
-0.165
-0.14
-0.145
-0.15
-0.155
-0.175
-0.165
-0.16
-0.145
-0.145
-0.145
-0.16
-0.165
-0.155
-0.145
-0.13
-0.15
-0.16
-0.155
-0.145
-0.13
-0.13
-0.135
-0.145
-0.16
-0.145
-0.145
-0.14
-0.15
-0.165
-0.165
-0.155
-0.135
-0.115
-0.135
-0.135
-0.125
-0.115
-0.095
-0.08
-0.065
-0.035
0.03
0.13
0.225
0.35
0.495
0.67
0.86
1.06
1.265
1.375
1.37
1.215
0.985
0.73
0.465
0.175
-0.055
-0.185
-0.19
-0.15
-0.115
-0.11
-0.12
-0.145
-0.165
-0.18
-0.195
-0.2
-0.21
-0.23
-0.235
-0.235
-0.21
-0.235
-0.22
-0.23
-0.245
-0.25
-0.225
-0.24
-0.25
-0.255
-0.245
-0.245
-0.235
-0.235
-0.235
-0.25
-0.245
-0.235
-0.23
-0.225
-0.245
-0.255
-0.27
-0.245
-0.235
-0.235
-0.255
-0.245
-0.24
-0.23
-0.22
-0.225
-0.23
-0.245
-0.245
-0.23
-0.2
-0.19
-0.19
-0.19
-0.21
-0.2
-0.18
-0.17
-0.18
-0.18
-0.175
-0.165
-0.135
-0.125
-0.135
-0.14
-0.13
-0.125
-0.095
-0.09
-0.095
-0.09
-0.075
-0.055
-0.055
-0.065
-0.08
-0.08
-0.065
-0.04
-0.035
-0.03
-0.045
-0.065
-0.05
-0.045
-0.035
-0.045
-0.035
-0.05
-0.06
-0.055
-0.035
-0.055
-0.07
-0.09
-0.115
-0.105
-0.11
-0.105
-0.12
-0.135
-0.145
-0.135
-0.14
-0.135
-0.15
-0.165
-0.15
-0.155
-0.135
-0.13
-0.145
-0.16
-0.165
-0.165
-0.145
-0.145
-0.15
-0.15
-0.15
-0.125
-0.105
-0.1
-0.11
-0.135
-0.125
-0.115
-0.095
-0.09
-0.105
-0.115
-0.13
-0.125
-0.105
-0.105
-0.115
-0.115
-0.11
-0.105
-0.115
-0.11
-0.12
-0.125
-0.12
-0.11
-0.09
-0.09
-0.08
-0.11
-0.125
-0.11
-0.105
-0.11
-0.125
-0.125
-0.13
-0.12
-0.115
-0.11
-0.105
-0.125
-0.13
-0.12
-0.1
-0.105
-0.115
-0.12
-0.12
-0.12
-0.11
-0.11
-0.11
-0.125
-0.115
-0.1
-0.085
-0.08
-0.095
-0.105
-0.1
-0.09
-0.08
-0.085
-0.075
-0.09
-0.1
-0.1
-0.085
-0.11
-0.11
-0.11
-0.115
-0.1
-0.095
-0.085
-0.08
-0.105
-0.11
-0.105
-0.095
-0.075
-0.085
-0.095
-0.1
-0.085
-0.055
-0.06
-0.065
-0.075
-0.065
-0.065
-0.045
-0.03
-0.04
-0.025
-0.01
0.065
0.135
0.2
0.3
0.425
0.605
0.805
1.04
1.245
1.415
1.46
1.4
1.205
0.92
0.615
0.32
0.07
-0.055
-0.07
-0.03
-0.005
-0.005
-0.045
-0.06
-0.06
-0.065
-0.09
-0.115
-0.135
-0.155
-0.145
-0.13
-0.14
-0.15
-0.17
-0.17
-0.155
-0.145
-0.145
-0.175
-0.19
-0.2
-0.195
-0.16
-0.145
-0.165
-0.175
-0.195
-0.155
-0.13
-0.13
-0.135
-0.135
-0.13
-0.13
-0.13
-0.12
-0.12
-0.14
-0.135
-0.12
-0.1
-0.115
-0.11
-0.125
-0.11
-0.095
-0.085
-0.075
-0.08
-0.08
-0.105
-0.105
-0.11
-0.105
-0.1
-0.115
-0.11
-0.105
-0.085
-0.1
-0.095
-0.1
-0.125
-0.115
-0.095
-0.075
-0.085
-0.095
-0.075
-0.065
-0.03
-0.035
-0.035
-0.055
-0.035
-0.015
0.01
0.02
0.03
0.015
0.02
0.015
0.03
0.05
0.035
0.015
0.015
0.035
0.035
0.035
0.0
-0.01
-0.025
-0.015
-0.015
-0.025
-0.06
-0.07
-0.075
-0.075
-0.07
-0.075
-0.095
-0.1
-0.095
-0.1
-0.08
-0.09
-0.1
-0.11
-0.12
-0.07
-0.055
-0.05
-0.06
-0.075
-0.07
-0.045
-0.04
-0.025
-0.02
-0.025
-0.005
0.035
0.075
0.09
0.09
0.1
0.125
0.18
0.25
0.3
0.355
0.415
0.48
0.55
0.635
0.715
0.8
0.88
0.97
1.09
1.185
1.25
1.3
1.31
1.325
1.345
1.36
1.36
1.315
1.25
1.18
1.105
1.055
0.955
0.825
0.71
0.605
0.505
0.47
0.43
0.395
0.375
0.355
0.34
0.345
0.35
0.345
0.38
0.435
0.485
0.46
0.315
0.125
-0.08
-0.22
-0.28
-0.31
-0.33
-0.39
-0.425
-0.445
-0.465
-0.48
-0.505
-0.525
-0.55
-0.57
-0.575
-0.56
-0.565
-0.585
-0.61
-0.635
-0.62
-0.615
-0.63
-0.665
-0.69
-0.685
-0.68
-0.665
-0.65
-0.665
-0.695
-0.71
-0.705
-0.67
-0.665
-0.69
-0.71
-0.71
-0.7
-0.705
-0.71
-0.74
-0.755
-0.75
-0.735
-0.725
-0.72
-0.735
-0.755
-0.745
-0.72
-0.685
-0.695
-0.695
-0.7
-0.695
-0.67
-0.645
-0.64
-0.62
-0.615
-0.6
-0.565
-0.53
-0.535
-0.53
-0.54
-0.51
-0.47
-0.43
-0.41
-0.41
-0.41
-0.405
-0.38
-0.34
-0.33
-0.345
-0.31
-0.295
-0.28
-0.245
-0.235
-0.245
-0.245
-0.225
-0.21
-0.2
-0.2
-0.22
-0.22
-0.225
-0.195
-0.175
-0.2
-0.195
-0.2
-0.185
-0.17
-0.145
-0.17
-0.17
-0.175
-0.165
-0.15
-0.14
-0.145
-0.165
-0.16
-0.15
-0.125
-0.1
-0.115
-0.12
-0.15
-0.15
-0.125
-0.11
-0.12
-0.12
-0.13
-0.135
-0.11
-0.095
-0.11
-0.11
-0.125
-0.105
-0.085
-0.075
-0.075
-0.085
-0.105
-0.1
-0.115
-0.075
-0.07
-0.075
-0.1
-0.12
-0.095
-0.085
-0.085
-0.085
-0.095
-0.1
-0.095
-0.08
-0.08
-0.07
-0.1
-0.115
-0.09
-0.065
-0.07
-0.09
-0.09
-0.11
-0.105
-0.095
-0.095
-0.105
-0.12
-0.11
-0.085
-0.095
-0.095
-0.11
-0.125
-0.12
-0.105
-0.095
-0.08
-0.105
-0.105
-0.095
-0.085
-0.07
-0.08
-0.1
-0.1
-0.12
-0.085
-0.065
-0.065
-0.085
-0.1
-0.105
-0.095
-0.07
-0.08
-0.085
-0.1
-0.1
-0.09
-0.07
-0.08
-0.095
-0.115
-0.115
-0.1
-0.085
-0.075
-0.085
-0.07
-0.07
-0.065
-0.045
-0.055
-0.07
-0.08
-0.085
-0.065
-0.035
-0.04
-0.04
-0.06
-0.05
-0.03
-0.02
-0.02
-0.02
-0.03
-0.02
-0.005
0.015
0.01
-0.005
0.015
0.035
0.11
0.175
0.235
0.325
0.435
0.575
0.735
0.92
1.105
1.26
1.39
1.47
1.44
1.325
1.075
0.79
0.515
0.25
0.035
-0.08
-0.1
-0.105
-0.075
-0.045
-0.025
-0.025
-0.05
-0.07
-0.115
-0.105
-0.12
-0.115
-0.11
-0.14
-0.15
-0.16
-0.15
-0.135
-0.13
-0.145
-0.16
-0.155
-0.14
-0.115
-0.115
-0.125
-0.15
-0.14
-0.15
-0.13
-0.135
-0.15
-0.145
-0.15
-0.13
-0.13
-0.13
-0.14
-0.155
-0.155
-0.145
-0.14
-0.13
-0.13
-0.145
-0.135
-0.135
-0.115
-0.13
-0.125
-0.12
-0.125
-0.12
-0.105
-0.09
-0.11
-0.12
-0.115
-0.105
-0.095
-0.09
-0.11
-0.105
-0.095
-0.095
-0.08
-0.075
-0.07
-0.08
-0.07
-0.06
-0.055
-0.045
-0.055
-0.05
-0.05
-0.03
-0.02
-0.005
-0.02
-0.03
-0.02
0.0
0.025
0.035
0.03
0.01
0.025
0.05
0.07
0.06
0.06
0.055
0.065
0.07
0.095
0.075
0.06
0.055
0.05
0.055
0.055
0.05
0.035
0.03
0.01
0.015
0.035
0.02
0.0
-0.02
-0.02
0.0
0.015
0.0
-0.01
-0.02
-0.02
-0.015
-0.02
-0.01
-0.03
-0.04
-0.065
-0.04
-0.01
-0.02
-0.03
-0.04
-0.04
-0.03
-0.01
-0.005
-0.02
-0.03
-0.015
0.005
0.015
0.005
-0.005
-0.005
-0.01
0.0
0.025
0.015
-0.005
-0.015
-0.01
0.0
0.015
0.01
-0.005
-0.02
-0.015
-0.015
0.005
0.01
0.0
-0.01
-0.015
-0.005
-0.015
-0.025
-0.035
-0.065
-0.045
-0.045
-0.015
-0.015
-0.025
-0.05
-0.045
-0.025
-0.015
-0.01
-0.01
-0.035
-0.03
-0.02
-0.01
-0.01
-0.025
-0.04
-0.045
-0.03
-0.02
-0.005
-0.02
-0.04
-0.035
-0.025
-0.03
-0.04
-0.045
-0.055
-0.07
-0.05
-0.04
-0.025
-0.045
-0.05
-0.05
-0.05
-0.05
-0.04
-0.06
-0.075
-0.07
-0.075
-0.075
-0.055
-0.08
-0.085
-0.085
-0.08
-0.05
-0.055
-0.065
-0.085
-0.075
-0.065
-0.05
-0.055
-0.05
-0.075
-0.07
-0.05
-0.05
-0.035
-0.055
-0.07
-0.065
-0.06
-0.05
-0.045
-0.05
-0.055
-0.065
-0.035
-0.03
-0.04
-0.055
-0.06
-0.065
-0.05
-0.035
-0.03
-0.04
-0.05
-0.04
-0.025
-0.02
-0.02
-0.025
-0.03
-0.02
-0.015
0.0
-0.005
-0.005
-0.01
0.025
0.085
0.18
0.265
0.35
0.48
0.635
0.805
0.985
1.175
1.33
1.42
1.405
1.29
1.08
0.825
0.575
0.34
0.135
-0.005
-0.04
-0.045
-0.01
-0.01
-0.02
0.0
-0.02
-0.04
-0.055
-0.085
-0.095
-0.105
-0.09
-0.105
-0.13
-0.135
-0.165
-0.155
-0.14
-0.145
-0.14
-0.16
-0.175
-0.165
-0.155
-0.175
-0.17
-0.19
-0.21
-0.19
-0.165
-0.175
-0.185
-0.19
-0.19
-0.19
-0.165
-0.17
-0.16
-0.18
-0.165
-0.16
-0.15
-0.155
-0.175
-0.19
-0.18
-0.155
-0.14
-0.14
-0.16
-0.155
-0.165
-0.13
-0.11
-0.105
-0.11
-0.125
-0.125
-0.12
-0.105
-0.105
-0.105
-0.11
-0.11
-0.095
-0.085
-0.09
-0.095
-0.105
-0.115
-0.085
-0.075
-0.07
-0.09
-0.1
-0.085
-0.085
-0.07
-0.055
-0.065
-0.07
-0.08
-0.08
-0.06
-0.06
-0.06
-0.07
-0.06
-0.03
-0.015
-0.025
-0.04
-0.035
-0.015
0.0
0.035
0.035
0.03
0.01
0.015
0.025
0.03
0.025
0.015
0.015
0.005
-0.005
0.0
0.0
-0.005
-0.025
-0.03
-0.02
-0.015
-0.015
-0.04
-0.045
-0.06
-0.05
-0.025
-0.03
-0.045
-0.055
-0.05
-0.03
0.0
-0.01
-0.025
-0.045
-0.03
-0.005
0.03
0.02
0.06
0.065
0.08
0.105
0.15
0.16
0.18
0.215
0.265
0.325
0.39
0.445
0.51
0.565
0.66
0.735
0.83
0.89
0.97
1.04
1.125
1.21
1.305
1.355
1.37
1.37
1.355
1.375
1.39
1.37
1.305
1.24
1.145
1.055
0.98
0.88
0.76
0.655
0.565
0.535
0.505
0.44
0.37
0.345
0.33
0.34
0.35
0.32
0.335
0.355
0.39
0.44
0.47
0.425
0.31
0.165
0.01
-0.12
-0.185
-0.26
-0.32
-0.355
-0.38
-0.4
-0.405
-0.435
-0.46
-0.485
-0.515
-0.515
-0.52
-0.52
-0.545
-0.565
-0.59
-0.565
-0.57
-0.58
-0.595
-0.61
-0.61
-0.605
-0.605
-0.59
-0.605
-0.615
-0.63
-0.62
-0.6
-0.615
-0.635
-0.67
-0.675
-0.65
-0.64
-0.66
-0.675
-0.685
-0.7
-0.685
-0.665
-0.705
-0.71
-0.715
-0.705
-0.73
