Lead II
-0.12
-0.15
-0.145
-0.145
-0.16
-0.16
-0.15
-0.15
-0.15
-0.16
-0.19
-0.185
-0.185
-0.18
-0.175
-0.18
-0.19
-0.22
-0.22
-0.225
-0.215
-0.195
-0.195
-0.21
-0.215
-0.23
-0.22
-0.22
-0.215
-0.24
-0.24
-0.24
-0.245
-0.245
-0.245
-0.255
-0.25
-0.25
-0.245
-0.24
-0.255
-0.27
-0.275
-0.275
-0.275
-0.285
-0.28
-0.28
-0.275
-0.28
-0.3
-0.305
-0.285
-0.28
-0.28
-0.29
-0.28
-0.295
-0.29
-0.295
-0.28
-0.29
-0.285
-0.29
-0.29
-0.305
-0.29
-0.295
-0.275
-0.28
-0.3
-0.31
-0.305
-0.3
-0.3
-0.295
-0.31
-0.315
-0.3
-0.275
-0.27
-0.25
-0.255
-0.265
-0.25
-0.23
-0.22
-0.225
-0.245
-0.255
-0.25
-0.25
-0.235
-0.26
-0.265
-0.28
-0.29
-0.28
-0.285
-0.305
-0.32
-0.32
-0.325
-0.32
-0.31
-0.285
-0.29
-0.315
-0.34
-0.345
-0.31
-0.31
-0.325
-0.34
-0.33
-0.33
-0.31
-0.305
-0.32
-0.33
-0.335
-0.335
-0.335
-0.33
-0.37
-0.39
-0.395
-0.375
-0.325
-0.25
-0.18
-0.09
0.0
0.135
0.23
0.335
0.425
0.515
0.605
0.625
0.565
0.46
0.33
0.11
-0.175
-0.41
-0.545
-0.63
-0.65
-0.63
-0.57
-0.52
-0.48
-0.485
-0.48
-0.46
-0.44
-0.44
-0.45
-0.465
-0.48
-0.49
-0.47
-0.445
-0.42
-0.405
-0.415
-0.415
-0.415
-0.41
-0.4
-0.375
-0.4
-0.4
-0.405
-0.38
-0.375
-0.35
-0.36
-0.375
-0.37
-0.37
-0.365
-0.365
-0.385
-0.4
-0.4
-0.38
-0.38
-0.38
-0.37
-0.365
-0.36
-0.37
-0.355
-0.345
-0.36
-0.36
-0.355
-0.345
-0.33
-0.33
-0.33
-0.335
-0.34
-0.33
-0.335
-0.35
-0.35
-0.36
-0.345
-0.315
-0.29
-0.295
-0.305
-0.31
-0.32
-0.305
-0.3
-0.295
-0.295
-0.295
-0.295
-0.295
-0.29
-0.295
-0.295
-0.295
-0.27
-0.27
-0.26
-0.26
-0.28
-0.28
-0.265
-0.245
-0.23
-0.23
-0.235
-0.24
-0.24
-0.245
-0.24
-0.235
-0.24
-0.25
-0.25
-0.235
-0.24
-0.245
-0.255
-0.265
-0.28
-0.27
-0.27
-0.245
-0.26
-0.275
-0.29
-0.285
-0.285
-0.29
-0.3
-0.295
-0.275
-0.26
-0.26
-0.26
-0.275
-0.29
-0.285
-0.28
-0.29
-0.29
-0.31
-0.335
-0.325
-0.32
-0.32
-0.33
-0.335
-0.35
-0.34
-0.335
-0.33
-0.325
-0.325
-0.33
-0.335
-0.33
-0.34
-0.35
-0.345
-0.355
-0.345
-0.335
-0.335
-0.33
-0.345
-0.35
-0.35
-0.34
-0.325
-0.325
-0.33
-0.33
-0.31
-0.305
-0.31
-0.3
-0.295
-0.29
-0.28
-0.265
-0.255
-0.25
-0.245
-0.24
-0.235
-0.235
-0.24
-0.26
-0.275
-0.295
-0.29
-0.295
-0.29
-0.28
-0.285
-0.29
-0.305
-0.31
-0.305
-0.3
-0.31
-0.315
-0.305
-0.295
-0.275
-0.285
-0.295
-0.31
-0.315
-0.34
-0.345
-0.345
-0.335
-0.34
-0.325
-0.315
-0.305
-0.32
-0.33
-0.345
-0.335
-0.3
-0.295
-0.285
-0.29
-0.305
-0.295
-0.31
-0.33
-0.35
-0.35
-0.315
-0.25
-0.15
-0.04
0.08
0.195
0.285
0.385
0.495
0.625
0.725
0.79
0.74
0.63
0.525
0.335
0.025
-0.29
-0.51
-0.595
-0.605
-0.57
-0.505
-0.46
-0.465
-0.44
-0.415
-0.4
-0.395
-0.41
-0.435
-0.445
-0.445
-0.44
-0.45
-0.445
-0.445
-0.41
-0.375
-0.365
-0.385
-0.4
-0.43
-0.415
-0.4
-0.39
-0.395
-0.4
-0.405
-0.39
-0.38
-0.38
-0.375
-0.38
-0.395
-0.385
-0.37
-0.375
-0.375
-0.39
-0.385
-0.365
-0.35
-0.335
-0.34
-0.35
-0.335
-0.315
-0.3
-0.27
-0.265
-0.29
-0.305
-0.29
-0.28
-0.26
-0.265
-0.28
-0.265
-0.25
-0.23
-0.225
-0.24
-0.255
-0.245
-0.23
-0.21
-0.21
-0.22
-0.22
-0.225
-0.21
-0.175
-0.14
-0.135
-0.14
-0.135
-0.13
-0.135
-0.14
-0.135
-0.135
-0.155
-0.165
-0.165
-0.165
-0.175
-0.18
-0.195
-0.2
-0.2
-0.205
-0.2
-0.225
-0.22
-0.225
-0.235
-0.24
-0.24
-0.25
-0.255
-0.24
-0.24
-0.245
-0.255
-0.27
-0.285
-0.295
-0.295
-0.29
-0.29
-0.29
-0.305
-0.3
-0.3
-0.285
-0.3
-0.295
-0.305
-0.315
-0.305
-0.31
-0.32
-0.33
-0.34
-0.335
-0.33
-0.335
-0.345
-0.35
-0.36
-0.365
-0.365
-0.355
-0.37
-0.365
-0.39
-0.385
-0.375
-0.365
-0.365
-0.355
-0.355
-0.355
-0.355
-0.35
-0.345
-0.34
-0.345
-0.335
-0.33
-0.34
-0.35
-0.365
-0.375
-0.385
-0.39
-0.38
-0.38
-0.375
-0.375
-0.375
-0.37
-0.37
-0.365
-0.375
-0.385
-0.365
-0.355
-0.34
-0.34
-0.325
-0.31
-0.295
-0.3
-0.3
-0.33
-0.35
-0.385
-0.395
-0.39
-0.39
-0.39
-0.42
-0.42
-0.4
-0.38
-0.375
-0.375
-0.385
-0.38
-0.375
-0.365
-0.35
-0.35
-0.35
-0.365
-0.36
-0.36
-0.375
-0.385
-0.405
-0.415
-0.42
-0.38
-0.325
-0.255
-0.205
-0.125
-0.015
0.09
0.195
0.29
0.39
0.5
0.615
0.665
0.645
0.54
0.425
0.32
0.175
-0.055
-0.295
-0.465
-0.585
-0.64
-0.62
-0.58
-0.52
-0.49
-0.485
-0.475
-0.445
-0.425
-0.415
-0.435
-0.455
-0.46
-0.47
-0.49
-0.47
-0.455
-0.445
-0.43
-0.43
-0.44
-0.425
-0.425
-0.425
-0.425
-0.415
-0.415
-0.41
-0.4
-0.41
-0.41
-0.405
-0.39
-0.385
-0.365
-0.365
-0.375
-0.38
-0.39
-0.37
-0.365
-0.37
-0.385
-0.38
-0.375
-0.365
-0.365
-0.365
-0.36
-0.33
-0.335
-0.315
-0.305
-0.3
-0.3
-0.285
-0.26
-0.25
-0.245
-0.245
-0.245
-0.23
-0.21
-0.2
-0.195
-0.205
-0.22
-0.2
-0.18
-0.135
-0.135
-0.125
-0.14
-0.165
-0.17
-0.185
-0.155
-0.135
-0.16
-0.19
-0.215
-0.235
-0.23
-0.23
-0.245
-0.24
-0.245
-0.245
-0.245
-0.24
-0.26
-0.255
-0.25
-0.255
-0.265
-0.285
-0.295
-0.28
-0.275
-0.255
-0.25
-0.265
-0.285
-0.29
-0.285
-0.28
-0.29
-0.3
-0.305
-0.305
-0.295
-0.285
-0.28
-0.285
-0.31
-0.325
-0.315
-0.295
-0.295
-0.31
-0.33
-0.34
-0.34
-0.345
-0.355
-0.355
-0.36
-0.355
-0.335
-0.325
-0.32
-0.315
-0.315
-0.31
-0.3
-0.29
-0.3
-0.31
-0.315
-0.295
-0.29
-0.265
-0.28
-0.28
-0.29
-0.295
-0.305
-0.3
-0.32
-0.315
-0.32
-0.305
-0.29
-0.28
-0.28
-0.28
-0.295
-0.29
-0.29
-0.28
-0.28
-0.285
-0.275
-0.25
-0.235
-0.23
-0.235
-0.255
-0.275
-0.29
-0.295
-0.29
-0.275
-0.275
-0.295
-0.3
-0.3
-0.295
-0.275
-0.265
-0.275
-0.26
-0.255
-0.27
-0.25
-0.255
-0.265
-0.265
-0.26
-0.265
-0.26
-0.275
-0.29
-0.285
-0.235
-0.155
-0.065
0.015
0.095
0.195
0.295
0.405
0.515
0.63
0.745
0.825
0.87
0.845
0.745
0.615
0.41
0.08
-0.23
-0.425
-0.535
-0.585
-0.615
-0.56
-0.49
-0.425
-0.405
-0.405
-0.405
-0.38
-0.36
-0.34
-0.355
-0.39
-0.405
-0.405
-0.4
-0.39
-0.385
-0.375
-0.365
-0.34
-0.33
-0.34
-0.345
-0.34
-0.345
-0.335
-0.32
-0.31
-0.31
-0.305
-0.33
-0.315
-0.3
-0.28
-0.285
-0.295
-0.29
-0.29
-0.275
-0.27
-0.265
-0.275
-0.28
-0.275
-0.275
-0.265
-0.27
-0.265
-0.265
-0.25
-0.235
-0.205
-0.19
-0.19
-0.2
-0.21
-0.19
-0.15
-0.145
-0.145
-0.16
-0.15
-0.135
-0.11
-0.12
-0.125
-0.12
-0.12
-0.115
-0.1
-0.1
-0.095
-0.1
-0.1
-0.09
-0.065
-0.06
-0.05
-0.055
-0.04
-0.01
0.01
0.0
-0.01
-0.005
-0.015
-0.01
-0.02
-0.02
-0.025
-0.045
-0.065
-0.065
-0.075
-0.095
-0.1
-0.085
-0.06
-0.035
-0.045
-0.05
-0.055
-0.06
-0.06
-0.05
-0.05
-0.05
-0.06
-0.08
-0.08
-0.075
-0.06
-0.075
-0.085
-0.095
-0.09
-0.09
-0.095
-0.09
-0.1
-0.115
-0.11
-0.095
-0.095
-0.09
-0.12
-0.145
-0.145
-0.14
-0.13
-0.125
-0.13
-0.145
-0.15
-0.15
-0.155
-0.155
-0.16
-0.16
-0.165
-0.155
-0.15
-0.155
-0.16
-0.185
-0.18
-0.18
-0.17
-0.135
-0.13
-0.11
-0.1
-0.095
-0.085
-0.105
-0.115
-0.125
-0.13
-0.145
-0.14
-0.16
-0.175
-0.19
-0.195
-0.175
-0.165
-0.15
-0.165
-0.17
-0.17
-0.145
-0.13
-0.135
-0.145
-0.16
-0.15
-0.14
-0.115
-0.12
-0.135
-0.145
-0.15
-0.145
-0.14
-0.14
-0.15
-0.17
-0.165
-0.155
-0.14
-0.14
-0.155
-0.155
-0.155
-0.15
-0.125
-0.13
-0.135
-0.145
-0.155
-0.15
-0.14
-0.145
-0.17
-0.19
-0.2
-0.175
-0.13
-0.045
0.03
0.085
0.195
0.31
0.41
0.505
0.595
0.715
0.84
0.965
1.075
1.125
1.085
0.98
0.835
0.605
0.24
-0.08
-0.295
-0.385
-0.4
-0.39
-0.355
-0.32
-0.28
-0.255
-0.215
-0.21
-0.205
-0.21
-0.235
-0.255
-0.26
-0.275
-0.275
-0.265
-0.245
-0.235
-0.23
-0.19
-0.185
-0.185
-0.2
-0.21
-0.195
-0.21
-0.195
-0.195
-0.195
-0.21
-0.21
-0.21
-0.21
-0.19
-0.2
-0.205
-0.2
-0.2
-0.195
-0.195
-0.19
-0.205
-0.18
-0.175
-0.175
-0.175
-0.165
-0.17
-0.165
-0.17
-0.155
-0.15
-0.165
-0.17
-0.155
-0.14
-0.14
-0.125
-0.14
-0.15
-0.135
-0.115
-0.09
-0.085
-0.085
-0.095
-0.095
-0.07
-0.045
-0.035
-0.04
-0.04
-0.025
-0.005
0.02
0.025
0.03
0.01
0.005
0.02
0.015
0.015
0.03
0.035
0.045
0.04
0.055
0.05
0.045
0.025
0.03
0.035
0.045
0.045
0.025
0.0
0.005
0.005
0.005
0.005
-0.015
-0.025
-0.025
-0.025
-0.02
-0.03
-0.055
-0.06
-0.06
-0.06
-0.045
-0.045
-0.035
-0.045
-0.055
-0.05
-0.055
-0.06
-0.06
-0.07
-0.07
-0.08
-0.085
-0.08
-0.1
-0.11
-0.115
-0.135
-0.15
-0.17
-0.145
-0.15
-0.13
-0.12
-0.105
-0.1
-0.12
-0.13
-0.135
-0.13
-0.125
-0.135
-0.125
-0.125
-0.12
-0.115
-0.12
-0.12
-0.13
-0.145
-0.135
-0.12
-0.125
-0.115
-0.11
-0.115
-0.125
-0.125
-0.14
-0.14
-0.155
-0.18
-0.175
-0.165
-0.155
-0.145
-0.125
-0.14
-0.135
-0.13
-0.13
-0.155
-0.155
-0.18
-0.18
-0.185
-0.18
-0.2
-0.21
-0.21
-0.215
-0.195
-0.21
-0.205
-0.21
-0.215
-0.2
-0.185
-0.195
-0.185
-0.2
-0.195
-0.185
-0.165
-0.155
-0.155
-0.155
-0.165
-0.15
-0.145
-0.135
-0.145
-0.145
-0.15
-0.15
-0.13
-0.135
-0.165
-0.2
-0.23
-0.22
-0.175
-0.095
-0.02
0.04
0.095
0.185
0.275
0.37
0.455
0.545
0.655
0.77
0.875
0.96
0.955
0.9
0.81
0.725
0.62
0.465
0.22
-0.02
-0.195
-0.32
-0.38
-0.4
-0.405
-0.39
-0.355
-0.315
-0.275
-0.255
-0.25
-0.25
-0.25
-0.245
-0.26
-0.265
-0.3
-0.305
-0.32
-0.305
-0.29
-0.27
-0.26
-0.27
-0.29
-0.275
-0.26
-0.255
-0.25
-0.245
-0.275
-0.255
-0.255
-0.26
-0.26
-0.245
-0.255
-0.255
-0.24
-0.23
-0.215
-0.215
-0.225
-0.22
-0.22
-0.215
-0.195
-0.175
-0.175
-0.185
-0.215
-0.215
-0.225
-0.23
-0.225
-0.19
-0.175
-0.17
-0.17
-0.185
-0.18
-0.155
-0.145
-0.14
-0.12
-0.125
-0.115
-0.105
-0.095
-0.07
-0.08
-0.075
-0.075
-0.05
-0.03
-0.025
-0.03
-0.03
-0.05
-0.025
-0.025
-0.015
0.015
0.015
0.015
0.005
0.025
0.06
0.075
0.065
0.03
0.03
0.055
0.05
0.055
0.045
0.015
-0.005
-0.01
-0.015
-0.015
-0.03
-0.05
-0.05
-0.035
-0.03
-0.04
-0.055
-0.075
-0.095
-0.09
-0.07
-0.07
-0.09
-0.105
-0.105
-0.095
-0.095
-0.105
-0.115
-0.125
-0.125
-0.12
-0.115
-0.115
-0.13
-0.17
-0.17
-0.16
-0.14
-0.135
-0.155
-0.165
-0.17
-0.165
-0.155
-0.135
-0.15
-0.19
-0.2
-0.21
-0.18
-0.165
-0.185
-0.205
-0.22
-0.235
-0.23
-0.215
-0.21
-0.2
-0.19
-0.185
-0.185
-0.2
-0.2
-0.215
-0.21
-0.215
-0.205
-0.205
-0.215
-0.23
-0.215
-0.2
-0.185
-0.195
-0.2
-0.19
-0.18
-0.175
-0.145
-0.14
-0.135
-0.14
-0.13
-0.12
-0.115
-0.105
-0.11
-0.11
-0.09
-0.085
-0.095
-0.12
-0.14
-0.15
-0.155
-0.14
-0.155
-0.175
-0.19
-0.185
-0.155
-0.145
-0.15
-0.155
-0.135
-0.125
-0.115
-0.115
-0.12
-0.105
-0.095
-0.1
-0.11
-0.12
-0.14
-0.15
-0.175
-0.205
-0.19
-0.165
-0.145
-0.15
-0.18
-0.165
-0.145
-0.12
-0.1
-0.115
-0.135
-0.145
-0.135
-0.115
-0.105
-0.1
-0.105
-0.135
-0.155
-0.17
-0.165
-0.155
-0.12
-0.085
-0.025
0.055
0.16
0.265
0.355
0.405
0.475
0.595
0.72
0.845
0.945
1.005
0.98
0.925
0.82
0.685
0.46
0.14
-0.145
-0.32
-0.415
-0.43
-0.425
-0.39
-0.35
-0.295
-0.27
-0.255
-0.245
-0.225
-0.21
-0.215
-0.22
-0.23
-0.24
-0.265
-0.28
-0.275
-0.27
-0.22
-0.205
-0.215
-0.215
-0.205
-0.195
-0.2
-0.2
-0.205
-0.205
-0.205
-0.205
-0.21
-0.22
-0.215
-0.19
-0.18
-0.17
-0.17
-0.165
-0.165
-0.17
-0.16
-0.18
-0.175
-0.17
-0.155
-0.145
-0.135
-0.15
-0.165
-0.175
-0.185
-0.16
-0.15
-0.135
-0.14
-0.135
-0.15
-0.145
-0.135
-0.11
-0.105
-0.115
-0.09
-0.08
-0.04
-0.015
-0.025
-0.04
-0.06
-0.05
-0.035
-0.015
0.0
0.0
-0.015
0.0
0.02
0.035
0.035
0.015
0.0
-0.015
0.005
0.02
0.02
0.005
0.015
0.035
0.05
0.065
0.09
0.095
0.085
0.085
0.09
0.085
0.075
0.06
0.065
0.07
0.065
0.04
0.015
0.01
0.005
0.025
0.055
0.065
0.035
-0.03
-0.07
-0.065
-0.05
-0.015
-0.01
-0.005
-0.03
-0.025
-0.01
-0.005
0.0
-0.02
-0.045
-0.045
-0.06
-0.045
-0.05
-0.065
-0.075
-0.075
-0.05
-0.025
-0.02
-0.04
-0.08
-0.065
-0.055
-0.05
-0.04
-0.06
-0.08
-0.095
-0.085
-0.075
-0.07
-0.075
-0.09
-0.09
-0.09
-0.08
-0.08
-0.075
-0.095
-0.105
-0.12
-0.125
-0.125
-0.13
-0.135
-0.125
-0.13
-0.115
-0.09
-0.065
-0.08
-0.075
-0.045
-0.04
-0.055
-0.065
-0.065
-0.045
-0.045
-0.06
-0.065
-0.075
-0.085
-0.095
-0.09
-0.09
-0.095
-0.1
-0.095
-0.1
-0.095
-0.095
-0.095
-0.09
-0.09
-0.075
-0.06
-0.055
-0.05
-0.055
-0.06
-0.065
-0.07
-0.06
-0.075
-0.085
-0.1
-0.095
-0.095
-0.11
-0.11
-0.12
-0.135
-0.125
-0.11
-0.08
-0.06
-0.045
-0.06
-0.065
-0.07
-0.04
-0.02
-0.03
-0.055
-0.07
-0.035
-0.035
-0.045
-0.075
-0.085
-0.055
0.015
0.095
0.175
0.27
0.37
0.475
0.6
0.77
0.925
1.065
1.19
1.29
1.3
1.24
1.1
0.82
0.375
-0.02
-0.23
-0.305
-0.32
-0.33
-0.325
-0.26
-0.18
-0.125
-0.13
-0.125
-0.135
-0.155
-0.165
-0.175
-0.185
-0.2
-0.225
-0.22
-0.185
-0.14
-0.14
-0.115
-0.125
-0.15
-0.17
-0.195
-0.19
-0.175
-0.17
-0.155
-0.14
-0.125
-0.125
-0.145
-0.155
-0.15
-0.135
-0.12
-0.12
-0.11
-0.125
-0.11
-0.11
-0.065
-0.055
-0.06
-0.085
-0.08
-0.08
-0.095
-0.1
-0.105
-0.105
-0.075
-0.045
-0.035
-0.02
-0.01
0.0
0.01
0.005
0.005
0.025
0.04
0.065
0.085
0.09
0.095
0.095
0.095
0.1
0.11
0.085
0.07
0.08
0.11
0.145
0.165
0.19
0.19
0.175
0.15
0.13
0.115
0.115
0.12
0.105
0.12
0.13
0.13
0.13
0.1
0.085
0.085
0.08
0.06
0.055
0.05
0.05
0.05
0.04
0.045
0.06
0.055
0.035
-0.01
-0.015
0.0
0.03
0.04
0.035
0.01
-0.03
-0.02
-0.005
0.015
0.01
0.0
-0.04
-0.04
-0.04
-0.03
-0.02
-0.01
0.0
-0.005
0.005
0.02
0.01
-0.005
-0.02
-0.03
-0.025
-0.02
0.01
0.005
0.0
-0.005
-0.01
-0.015
-0.03
-0.005
0.02
0.01
0.01
0.025
0.02
0.055
0.07
0.075
0.085
0.09
0.09
0.07
0.035
0.0
-0.01
0.01
0.03
0.035
0.02
0.005
-0.02
-0.025
-0.035
-0.025
-0.03
-0.055
-0.035
-0.01
0.01
0.015
-0.005
0.0
0.005
0.005
0.01
0.005
-0.015
-0.02
-0.035
-0.03
-0.01
-0.02
-0.035
-0.04
-0.06
-0.02
-0.01
-0.015
-0.07
-0.085
-0.085
-0.055
-0.035
-0.05
-0.07
-0.06
-0.04
-0.025
-0.01
-0.03
-0.07
-0.09
-0.07
0.0
0.075
0.165
0.235
0.325
0.415
0.535
0.65
0.77
0.92
1.035
1.16
1.245
1.265
1.22
1.08
0.87
0.52
0.17
-0.055
-0.165
-0.225
-0.26
-0.255
-0.2
-0.145
-0.08
-0.05
-0.07
-0.08
-0.1
-0.12
-0.145
-0.15
-0.15
-0.16
-0.165
-0.16
-0.14
-0.125
-0.105
-0.095
-0.085
-0.085
-0.09
-0.085
-0.08
-0.09
-0.085
-0.1
-0.12
-0.145
-0.125
-0.09
-0.085
-0.12
-0.16
-0.17
-0.15
-0.125
-0.095
-0.065
-0.05
-0.06
-0.085
-0.085
-0.08
-0.075
-0.065
-0.06
-0.075
-0.085
-0.115
-0.115
-0.085
-0.05
-0.04
-0.05
-0.07
-0.07
-0.045
-0.035
-0.045
-0.035
-0.015
-0.01
0.005
-0.01
-0.005
0.005
0.015
0.02
0.035
0.07
0.11
0.12
0.12
0.095
0.05
0.015
-0.005
0.025
0.075
0.085
0.075
0.07
0.075
0.085
0.075
0.035
0.015
0.0
-0.01
0.005
0.01
0.01
-0.005
-0.02
-0.035
-0.06
-0.065
-0.055
-0.055
-0.06
-0.065
-0.08
-0.085
-0.075
-0.065
-0.06
-0.095
-0.12
-0.115
-0.09
-0.075
-0.095
-0.085
-0.085
-0.095
-0.1
-0.12
-0.15
-0.145
-0.13
-0.085
-0.07
-0.09
-0.145
-0.175
-0.17
-0.135
-0.105
-0.085
-0.09
-0.085
-0.075
-0.075
-0.07
-0.065
-0.075
-0.045
-0.045
-0.025
-0.02
-0.03
-0.04
-0.075
-0.07
-0.08
-0.08
-0.075
-0.08
-0.085
-0.065
-0.045
-0.035
-0.035
-0.055
-0.085
-0.1
-0.08
-0.07
-0.08
-0.085
-0.105
-0.12
-0.125
-0.13
-0.12
-0.115
-0.115
-0.115
-0.1
-0.095
-0.1
-0.115
-0.125
-0.105
-0.1
-0.09
-0.105
-0.12
-0.12
-0.12
-0.105
-0.105
-0.1
-0.11
-0.11
-0.1
-0.115
-0.13
-0.145
-0.14
-0.105
-0.08
-0.05
-0.015
0.02
0.08
0.205
0.345
0.465
0.575
0.675
0.81
0.93
1.03
1.075
1.035
0.935
0.815
0.645
0.4
0.105
-0.11
-0.245
-0.33
-0.35
-0.335
-0.29
-0.255
-0.25
-0.245
-0.22
-0.19
-0.205
-0.24
-0.305
-0.32
-0.31
-0.28
-0.275
-0.285
-0.285
-0.295
-0.26
-0.245
-0.24
-0.24
-0.25
-0.25
-0.245
-0.22
-0.205
-0.205
-0.205
-0.22
-0.225
-0.21
-0.19
-0.2
-0.215
-0.2
-0.18
-0.18
-0.185
-0.195
-0.195
-0.19
-0.18
-0.17
-0.185
-0.185
-0.195
-0.175
-0.155
-0.135
-0.115
-0.095
-0.085
-0.12
-0.155
-0.165
-0.175
-0.145
-0.11
-0.105
-0.095
-0.1
-0.07
-0.05
-0.065
-0.06
-0.045
-0.03
-0.02
-0.02
-0.04
-0.055
-0.04
0.0
0.015
0.01
0.025
0.03
0.045
0.06
0.06
0.05
0.035
0.015
0.01
0.005
0.005
0.015
0.015
0.015
-0.005
-0.015
-0.02
-0.025
-0.045
-0.065
-0.065
-0.065
-0.05
-0.045
-0.065
-0.065
-0.07
-0.06
-0.04
-0.035
-0.03
-0.045
-0.05
-0.09
-0.105
-0.115
-0.11
-0.115
-0.13
-0.155
-0.175
-0.21
-0.215
-0.2
-0.175
-0.15
-0.14
-0.14
-0.15
-0.17
-0.165
-0.16
-0.165
-0.165
-0.185
-0.2
-0.205
-0.2
-0.195
-0.2
-0.2
-0.21
-0.21
-0.22
-0.225
-0.245
-0.255
-0.255
-0.25
-0.23
-0.22
-0.23
-0.235
-0.245
-0.25
-0.24
-0.24
-0.225
-0.235
-0.22
-0.23
-0.225
-0.215
-0.2
-0.21
-0.235
-0.275
-0.285
-0.275
-0.25
-0.25
-0.265
-0.26
-0.24
-0.24
-0.23
-0.23
-0.235
-0.22
-0.2
-0.18
-0.17
-0.155
-0.165
-0.175
-0.18
-0.17
-0.165
-0.15
-0.155
-0.15
-0.14
-0.145
-0.145
-0.15
-0.16
-0.15
-0.165
-0.17
-0.185
-0.18
-0.19
-0.195
-0.18
-0.16
-0.17
-0.175
-0.205
-0.195
-0.185
-0.17
-0.17
-0.18
-0.185
-0.175
-0.155
-0.155
-0.15
-0.17
-0.19
-0.2
-0.19
-0.19
-0.19
-0.205
-0.21
-0.2
-0.17
-0.15
-0.145
-0.15
-0.19
-0.215
-0.23
-0.235
-0.21
-0.205
-0.235
-0.245
-0.225
-0.2
-0.195
-0.215
-0.23
-0.24
-0.25
-0.24
-0.235
-0.19
-0.13
-0.05
0.04
0.13
0.205
0.3
0.39
0.51
0.635
0.755
0.845
0.915
0.92
0.84
0.705
0.52
0.25
-0.065
-0.3
-0.43
-0.495
-0.52
-0.495
-0.45
-0.41
-0.385
-0.36
-0.33
-0.3
-0.28
-0.3
-0.33
-0.335
-0.34
-0.35
-0.34
-0.345
-0.345
-0.335
-0.325
-0.315
-0.31
-0.325
-0.325
-0.305
-0.29
-0.3
-0.31
-0.31
-0.29
-0.295
-0.295
-0.305
-0.31
-0.305
-0.31
-0.27
-0.245
-0.24
-0.265
-0.295
-0.305
-0.3
-0.285
-0.28
-0.285
-0.275
-0.255
-0.21
-0.19
-0.195
-0.22
-0.25
-0.25
-0.22
-0.19
-0.175
-0.175
-0.18
-0.18
-0.19
-0.175
-0.18
-0.18
-0.175
-0.165
-0.155
-0.14
-0.15
-0.15
-0.165
-0.16
-0.145
-0.125
-0.13
-0.125
-0.13
-0.11
-0.075
-0.065
-0.095
-0.095
-0.09
-0.08
-0.085
-0.095
-0.115
-0.13
-0.135
-0.12
-0.105
-0.115
-0.125
-0.13
-0.12
-0.11
-0.1
-0.105
-0.14
-0.19
-0.215
-0.215
-0.2
-0.185
-0.185
-0.195
-0.21
-0.215
-0.225
-0.205
-0.205
-0.195
-0.205
-0.22
-0.23
-0.23
-0.215
-0.205
-0.225
-0.205
-0.2
-0.19
-0.195
-0.22
-0.26
-0.27
-0.255
-0.225
-0.235
-0.235
-0.26
-0.27
-0.27
-0.25
-0.23
-0.235
-0.245
-0.245
-0.235
-0.23
-0.235
-0.245
-0.25
-0.25
-0.23
-0.215
-0.21
-0.21
-0.225
-0.21
-0.19
-0.175
-0.185
-0.18
-0.18
-0.175
-0.145
-0.12
-0.1
-0.105
-0.125
-0.1
-0.09
-0.05
-0.05
-0.035
-0.04
-0.015
0.01
0.07
0.12
0.155
0.16
0.205
0.265
0.29
0.28
0.26
0.215
0.07
-0.2
-0.6
-1.07
-1.45
-1.72
-1.865
-1.955
-2.0
-2.025
-2.015
-1.98
-1.89
-1.75
-1.615
-1.545
-1.48
-1.405
-1.325
-1.25
-1.17
-1.055
-0.97
-0.895
-0.835
-0.79
-0.725
-0.685
-0.64
-0.615
-0.585
-0.54
-0.49
-0.465
-0.45
-0.425
-0.37
-0.295
-0.215
-0.15
-0.1
-0.07
-0.025
0.015
0.065
0.105
0.125
0.14
0.15
0.185
0.21
0.235
0.24
0.255
0.27
0.29
0.325
0.34
0.35
0.355
0.375
0.415
0.455
0.48
0.49
0.5
0.51
0.535
0.545
0.555
0.575
0.6
0.62
0.645
0.66
0.685
0.705
0.71
0.725
0.72
0.73
0.735
0.725
0.73
0.75
0.75
0.77
0.73
0.73
0.705
0.695
0.67
0.67
0.66
0.66
0.625
0.61
0.605
0.575
0.555
0.525
0.49
0.46
0.445
0.43
0.395
0.36
0.335
0.29
0.265
0.245
0.225
0.205
0.165
0.145
0.125
0.1
0.07
0.06
0.055
0.055
0.035
0.025
0.025
0.005
-0.02
-0.03
-0.05
-0.035
-0.04
-0.05
-0.065
-0.065
-0.075
-0.075
-0.11
-0.105
-0.115
-0.11
-0.085
-0.075
-0.09
-0.105
-0.095
-0.085
-0.065
-0.055
-0.08
-0.1
-0.1
-0.095
-0.09
-0.08
-0.08
-0.095
-0.105
-0.105
-0.105
-0.105
-0.105
-0.115
-0.135
-0.13
-0.13
-0.12
-0.125
-0.14
-0.145
-0.135
-0.135
-0.13
-0.13
-0.145
-0.16
-0.15
-0.135
-0.115
-0.115
-0.13
-0.155
-0.16
-0.17
-0.155
-0.155
-0.175
-0.205
-0.205
-0.2
-0.18
-0.155
-0.155
-0.17
-0.17
-0.165
-0.155
-0.155
-0.155
-0.15
-0.14
-0.14
-0.125
-0.135
-0.13
-0.13
-0.125
-0.115
-0.105
-0.11
-0.125
-0.13
-0.11
-0.105
-0.12
-0.15
-0.175
-0.175
-0.16
-0.17
-0.175
-0.18
-0.185
-0.19
-0.195
-0.185
-0.175
-0.18
-0.185
-0.195
-0.18
-0.175
-0.185
-0.185
-0.195
-0.175
-0.17
-0.165
-0.16
-0.195
-0.225
-0.225
-0.235
-0.225
-0.21
-0.205
-0.195
-0.21
-0.205
-0.205
-0.195
-0.21
-0.205
-0.22
-0.22
-0.22
-0.205
-0.205
-0.23
-0.25
-0.27
-0.255
-0.225
-0.16
-0.09
-0.015
0.09
0.2
0.325
0.43
0.55
0.675
0.825
0.975
1.07
1.085
1.015
0.865
0.605
0.205
-0.175
-0.38
-0.44
-0.445
-0.39
-0.32
-0.275
-0.26
-0.28
-0.3
-0.305
-0.305
-0.31
-0.345
-0.345
-0.35
-0.37
-0.36
-0.335
-0.305
-0.305
-0.305
-0.305
-0.31
-0.3
-0.31
-0.315
-0.32
-0.31
-0.3
-0.3
-0.305
-0.31
-0.315
-0.31
-0.3
-0.29
-0.295
-0.3
-0.3
-0.3
-0.28
-0.26
-0.265
-0.275
-0.29
-0.28
-0.26
-0.24
-0.24
-0.25
-0.24
-0.24
-0.245
-0.23
-0.245
-0.25
-0.265
-0.255
-0.23
-0.205
-0.205
-0.19
-0.2
-0.195
-0.185
-0.19
-0.19
-0.175
-0.175
-0.17
-0.16
-0.155
-0.155
-0.145
-0.145
-0.15
-0.135
-0.125
-0.135
-0.14
-0.13
-0.12
-0.115
-0.095
-0.1
-0.11
-0.12
-0.12
-0.115
-0.105
-0.11
-0.125
-0.135
-0.15
-0.155
-0.155
-0.16
-0.15
-0.145
-0.14
-0.13
-0.13
-0.13
-0.125
-0.125
-0.12
-0.125
-0.12
-0.11
-0.095
-0.095
-0.085
-0.095
-0.065
-0.065
-0.085
-0.105
-0.13
-0.145
-0.14
-0.155
-0.165
-0.18
-0.195
-0.195
-0.16
-0.155
-0.16
-0.185
-0.18
-0.195
-0.185
-0.19
-0.19
-0.185
-0.185
-0.155
-0.135
-0.12
-0.11
-0.11
-0.095
-0.08
-0.05
-0.045
-0.06
-0.065
-0.1
-0.125
-0.12
-0.075
-0.08
-0.145
-0.22
-0.335
-0.54
-0.865
-1.235
-1.585
-1.89
-2.085
-2.155
-2.185
-2.2
-2.2
-2.14
-2.035
-1.92
-1.785
-1.685
-1.6
-1.515
-1.39
-1.26
-1.135
-1.04
-0.975
-0.925
-0.89
-0.825
-0.775
-0.745
-0.7
-0.665
-0.615
-0.55
-0.505
-0.46
-0.385
-0.32
-0.25
-0.195
-0.105
-0.05
0.0
0.055
0.105
0.125
0.14
0.175
0.185
0.19
0.2
0.235
0.255
0.28
0.295
0.295
0.305
0.345
0.37
0.38
0.39
0.4
0.405
0.43
0.435
0.445
0.45
0.455
0.49
0.525
0.55
0.57
0.575
0.58
0.59
0.62
0.635
0.64
0.64
0.625
0.64
0.645
0.645
0.64
0.63
0.615
0.615
0.61
0.605
0.585
0.565
0.54
0.52
0.53
0.52
0.515
0.48
0.44
0.43
0.405
0.375
0.345
0.315
0.285
0.26
0.25
0.215
0.195
0.155
0.115
0.085
0.07
0.075
0.065
0.045
0.015
0.0
-0.03
-0.04
-0.055
-0.08
-0.09
-0.095
-0.095
-0.105
-0.12
-0.135
-0.165
-0.17
-0.175
-0.175
-0.185
-0.21
-0.225
-0.215
-0.19
-0.18
-0.18
-0.195
-0.205
-0.22
-0.195
-0.205
-0.215
-0.21
-0.205
-0.19
-0.195
-0.19
-0.205
-0.235
-0.25
-0.25
-0.24
-0.24
-0.235
-0.245
-0.24
-0.23
-0.23
-0.235
-0.23
-0.24
-0.24
-0.245
-0.25
-0.26
-0.265
-0.275
-0.275
-0.26
-0.26
-0.285
-0.285
-0.315
-0.325
-0.32
-0.31
-0.305
-0.295
-0.295
-0.275
-0.265
-0.245
-0.26
-0.28
-0.29
-0.29
-0.29
-0.265
-0.275
-0.295
-0.32
-0.31
-0.3
-0.29
-0.3
-0.305
-0.295
-0.3
-0.295
-0.28
-0.29
-0.29
-0.295
-0.3
-0.285
-0.27
-0.265
-0.27
-0.295
-0.29
-0.285
-0.27
-0.275
-0.29
-0.345
-0.32
-0.29
-0.28
-0.285
-0.305
-0.315
-0.31
-0.305
-0.29
-0.29
-0.285
-0.3
-0.31
-0.3
-0.275
-0.27
-0.265
-0.265
-0.285
-0.3
-0.28
-0.27
-0.265
-0.28
-0.29
-0.305
-0.285
-0.285
-0.29
-0.32
-0.34
-0.305
-0.285
-0.275
-0.275
-0.29
-0.31
-0.29
-0.295
-0.295
-0.29
-0.29
-0.295
-0.28
-0.27
-0.265
-0.265
-0.275
-0.295
-0.285
-0.29
-0.29
-0.29
-0.31
-0.305
-0.3
-0.3
-0.29
-0.27
-0.265
-0.28
-0.275
-0.27
-0.275
-0.28
-0.29
-0.285
-0.275
-0.26
-0.25
-0.255
-0.245
-0.23
-0.24
-0.24
-0.255
-0.235
-0.245
-0.25
-0.25
-0.24
-0.24
-0.24
-0.245
-0.255
-0.25
-0.25
-0.255
-0.26
-0.28
-0.285
-0.27
-0.265
-0.295
-0.31
-0.325
-0.32
-0.29
-0.285
-0.29
-0.32
-0.325
-0.33
-0.315
-0.305
-0.31
-0.32
-0.305
-0.265
-0.25
-0.245
-0.26
-0.265
-0.285
-0.3
-0.3
-0.3
-0.305
-0.29
-0.305
-0.31
-0.295
-0.3
-0.305
-0.3
-0.29
-0.305
-0.315
-0.285
-0.29
-0.3
-0.28
-0.29
-0.285
-0.285
-0.3
-0.31
-0.31
-0.315
-0.29
-0.23
-0.175
-0.13
-0.05
0.025
0.125
0.24
0.325
0.41
0.495
0.59
0.71
0.825
0.875
0.84
0.755
0.625
0.455
0.225
-0.07
-0.335
-0.515
-0.61
-0.655
-0.655
-0.615
-0.575
-0.535
-0.51
-0.485
-0.46
-0.44
-0.415
-0.41
-0.435
-0.445
-0.435
-0.44
-0.43
-0.44
-0.45
-0.435
-0.42
-0.395
-0.37
-0.36
-0.375
-0.395
-0.39
-0.37
-0.35
-0.35
-0.365
-0.365
-0.345
-0.34
-0.345
-0.35
-0.34
-0.34
-0.335
-0.355
-0.365
-0.355
-0.345
-0.35
-0.33
-0.33
-0.325
-0.32
-0.33
-0.33
-0.33
-0.32
-0.315
-0.315
-0.305
-0.295
-0.29
-0.275
-0.29
-0.29
-0.3
-0.305
-0.31
-0.305
-0.3
-0.3
-0.3
-0.295
-0.265
-0.26
-0.265
-0.29
-0.27
-0.255
-0.235
-0.23
-0.235
-0.24
-0.24
-0.225
-0.225
-0.225
-0.245
-0.25
-0.245
-0.235
-0.215
-0.215
-0.215
-0.215
-0.225
-0.22
-0.19
-0.175
-0.165
-0.17
-0.175
-0.15
-0.145
-0.15
-0.145
-0.155
-0.165
-0.16
-0.16
-0.175
-0.165
-0.165
-0.15
-0.165
-0.155
-0.155
-0.165
-0.16
