Lead II
-0.125
-0.115
-0.08
-0.08
-0.085
-0.075
-0.07
-0.065
-0.07
-0.065
-0.05
-0.04
-0.035
-0.015
0.0
0.015
0.015
0.045
0.055
0.05
0.065
0.075
0.065
0.06
0.06
0.07
0.085
0.085
0.075
0.1
0.1
0.115
0.085
0.085
0.075
0.07
0.055
0.04
0.035
0.035
0.03
0.015
0.0
0.0
-0.025
-0.04
-0.05
-0.065
-0.07
-0.08
-0.095
-0.08
-0.1
-0.1
-0.11
-0.145
-0.15
-0.15
-0.165
-0.16
-0.155
-0.155
-0.155
-0.165
-0.155
-0.145
-0.13
-0.13
-0.13
-0.145
-0.145
-0.15
-0.15
-0.17
-0.16
-0.18
-0.18
-0.155
-0.145
-0.15
-0.15
-0.15
-0.155
-0.165
-0.155
-0.15
-0.16
-0.135
-0.11
-0.1
-0.095
-0.1
-0.12
-0.14
-0.17
-0.155
-0.15
-0.14
-0.13
-0.095
-0.105
-0.075
-0.085
-0.105
-0.12
-0.135
-0.15
-0.14
-0.125
-0.13
-0.12
-0.1
-0.1
-0.1
-0.095
-0.115
-0.125
-0.135
-0.145
-0.15
-0.15
-0.135
-0.125
-0.12
-0.105
-0.105
-0.095
-0.105
-0.12
-0.145
-0.155
-0.16
-0.145
-0.135
-0.125
-0.12
-0.14
-0.14
-0.14
-0.15
-0.13
-0.135
-0.13
-0.125
-0.12
-0.14
-0.13
-0.13
-0.125
-0.115
-0.125
-0.13
-0.12
-0.135
-0.135
-0.145
-0.155
-0.135
-0.125
-0.12
-0.125
-0.125
-0.125
-0.135
-0.115
-0.125
-0.11
-0.105
-0.1
-0.1
-0.1
-0.11
-0.115
-0.13
-0.13
-0.135
-0.145
-0.155
-0.145
-0.13
-0.135
-0.115
-0.11
-0.105
-0.11
-0.115
-0.11
-0.11
-0.105
-0.12
-0.135
-0.135
-0.125
-0.14
-0.12
-0.12
-0.115
-0.115
-0.125
-0.125
-0.14
-0.135
-0.14
-0.14
-0.135
-0.13
-0.125
-0.12
-0.135
-0.115
-0.115
-0.12
-0.13
-0.12
-0.125
-0.115
-0.115
-0.13
-0.115
-0.115
-0.1
-0.095
-0.105
-0.1
-0.12
-0.125
-0.13
-0.13
-0.14
-0.13
-0.125
-0.115
-0.1
-0.105
-0.115
-0.13
-0.135
-0.12
-0.13
-0.14
-0.115
-0.115
-0.115
-0.1
-0.11
-0.105
-0.1
-0.11
-0.125
-0.14
-0.145
-0.145
-0.145
-0.13
-0.125
-0.105
-0.095
-0.085
-0.095
-0.105
-0.115
-0.12
-0.11
-0.115
-0.12
-0.115
-0.125
-0.12
-0.115
-0.105
-0.115
-0.115
-0.125
-0.125
-0.125
-0.115
-0.11
-0.115
-0.1
-0.11
-0.11
-0.105
-0.115
-0.11
-0.115
-0.12
-0.125
-0.11
-0.105
-0.11
-0.115
-0.11
-0.12
-0.115
-0.105
-0.095
-0.085
-0.09
-0.095
-0.095
-0.1
-0.11
-0.11
-0.1
-0.13
-0.11
-0.105
-0.105
-0.105
-0.11
-0.12
-0.125
-0.12
-0.115
-0.1
-0.09
-0.08
-0.085
-0.09
-0.095
-0.1
-0.115
-0.11
-0.105
-0.115
-0.105
-0.1
-0.095
-0.095
-0.095
-0.095
-0.09
-0.095
-0.11
-0.105
-0.095
-0.095
-0.085
-0.08
-0.085
-0.085
-0.09
-0.1
-0.1
-0.115
-0.105
-0.11
-0.11
-0.105
-0.105
-0.095
-0.09
-0.095
-0.08
-0.1
-0.105
-0.105
-0.11
-0.1
-0.105
-0.09
-0.075
-0.08
-0.08
-0.1
-0.11
-0.105
-0.115
-0.11
-0.105
-0.095
-0.1
-0.09
-0.09
-0.09
-0.09
-0.085
-0.075
-0.07
-0.08
-0.09
-0.1
-0.09
-0.105
-0.115
-0.1
-0.1
-0.085
-0.09
-0.09
-0.08
-0.08
-0.08
-0.08
-0.075
-0.09
-0.095
-0.08
-0.09
-0.08
-0.09
-0.09
-0.095
-0.095
-0.095
-0.1
-0.11
-0.1
-0.1
-0.075
-0.07
-0.07
-0.075
-0.085
-0.095
-0.08
-0.08
-0.09
-0.085
-0.085
-0.085
-0.085
-0.095
-0.085
-0.08
-0.085
-0.075
-0.065
-0.075
-0.075
-0.085
-0.07
-0.085
-0.085
-0.095
-0.09
-0.085
-0.075
-0.07
-0.07
-0.075
-0.08
-0.08
-0.105
-0.1
-0.105
-0.095
-0.1
-0.08
-0.08
-0.07
-0.065
-0.08
-0.08
-0.095
-0.09
-0.09
-0.075
-0.07
-0.065
-0.065
-0.06
-0.06
-0.08
-0.085
-0.09
-0.095
-0.09
-0.075
-0.07
-0.07
-0.065
-0.065
-0.08
-0.07
-0.075
-0.07
-0.08
-0.075
-0.07
-0.07
-0.07
-0.065
-0.065
-0.05
-0.065
-0.08
-0.08
-0.075
-0.095
-0.095
-0.09
-0.095
-0.08
-0.07
-0.075
-0.06
-0.06
-0.065
-0.07
-0.075
-0.08
-0.075
-0.07
-0.06
-0.05
-0.055
-0.055
-0.07
-0.085
-0.095
-0.09
-0.075
-0.075
-0.09
-0.09
-0.07
-0.06
-0.05
-0.045
-0.04
-0.05
-0.05
-0.065
-0.065
-0.065
-0.065
-0.06
-0.06
-0.06
-0.065
-0.06
-0.065
-0.06
-0.055
-0.06
-0.065
-0.065
-0.055
-0.06
-0.065
-0.06
-0.06
-0.045
-0.04
-0.03
-0.04
-0.045
-0.06
-0.065
-0.07
-0.065
-0.065
-0.05
-0.045
-0.04
-0.045
-0.04
-0.025
-0.035
-0.035
-0.055
-0.05
-0.045
-0.04
-0.04
-0.05
-0.045
-0.03
-0.025
-0.02
-0.03
-0.035
-0.055
-0.06
-0.075
-0.075
-0.075
-0.065
-0.05
-0.045
-0.04
-0.04
-0.04
-0.05
-0.05
-0.04
-0.035
-0.03
-0.015
-0.02
-0.02
-0.015
-0.025
-0.04
-0.06
-0.05
-0.045
-0.045
-0.045
-0.035
-0.03
-0.02
-0.02
-0.015
-0.025
-0.03
-0.045
-0.05
-0.05
-0.05
-0.05
-0.03
-0.035
-0.04
-0.025
-0.05
-0.05
-0.04
-0.055
-0.035
-0.045
-0.035
-0.045
-0.04
-0.04
-0.03
-0.015
-0.02
-0.005
-0.005
-0.03
-0.015
-0.03
-0.035
-0.045
-0.05
-0.045
-0.05
-0.04
-0.03
-0.03
-0.025
-0.04
-0.05
-0.06
-0.055
-0.04
-0.045
-0.04
-0.03
-0.03
-0.035
-0.04
-0.04
-0.035
-0.04
-0.045
-0.045
-0.04
-0.04
-0.03
-0.02
-0.015
-0.005
-0.01
-0.015
-0.02
-0.015
-0.025
-0.025
-0.035
-0.025
-0.01
-0.01
-0.01
-0.005
-0.025
-0.03
-0.05
-0.055
-0.08
-0.06
-0.055
-0.05
-0.03
-0.01
0.0
-0.01
-0.005
-0.005
-0.01
-0.01
-0.015
-0.025
-0.015
-0.01
-0.01
-0.015
-0.02
-0.035
-0.03
-0.035
-0.045
-0.055
-0.04
-0.045
-0.04
-0.025
-0.02
-0.02
-0.01
0.0
-0.005
-0.005
-0.01
-0.025
-0.03
-0.025
-0.02
-0.015
-0.02
-0.02
-0.025
-0.025
-0.035
-0.035
-0.04
-0.03
-0.03
-0.035
-0.03
-0.005
0.01
-0.005
0.01
0.015
0.01
0.0
0.0
-0.01
-0.015
-0.02
-0.025
-0.02
-0.02
-0.02
-0.015
-0.015
-0.005
-0.025
-0.01
-0.005
-0.005
-0.025
-0.015
-0.035
-0.03
-0.025
-0.02
-0.015
-0.01
-0.005
-0.02
-0.02
-0.03
-0.035
-0.04
-0.04
-0.025
-0.01
-0.01
-0.005
-0.01
-0.025
-0.02
-0.015
-0.015
-0.02
-0.02
-0.025
-0.04
-0.025
-0.015
-0.025
-0.01
-0.015
-0.02
-0.025
-0.02
-0.02
-0.015
-0.005
-0.005
0.005
0.0
-0.01
-0.005
0.0
-0.005
-0.015
-0.025
-0.025
-0.015
-0.02
-0.015
-0.02
-0.01
0.0
0.01
-0.005
-0.015
-0.025
-0.03
-0.015
-0.005
0.005
0.02
0.035
0.04
0.035
0.06
0.055
0.045
0.045
0.035
0.045
0.035
0.05
0.06
0.07
0.075
0.075
0.08
0.06
0.05
0.035
0.03
0.025
0.02
0.02
0.02
0.02
0.03
0.01
0.01
0.0
0.005
0.01
-0.015
-0.02
-0.015
-0.02
-0.02
-0.025
-0.03
-0.035
-0.04
-0.035
-0.035
-0.03
-0.03
-0.03
-0.025
-0.035
-0.06
-0.05
-0.05
-0.05
-0.05
-0.06
-0.055
-0.045
-0.04
-0.04
-0.03
-0.03
-0.025
-0.015
-0.02
0.0
-0.01
0.0
0.0
-0.005
-0.02
-0.02
-0.025
-0.005
0.015
0.03
0.07
0.11
0.17
0.23
0.31
0.38
0.45
0.485
0.495
0.44
0.315
0.11
-0.07
-0.205
-0.275
-0.29
-0.28
-0.28
-0.26
-0.255
-0.25
-0.25
-0.24
-0.265
-0.25
-0.265
-0.265
-0.25
-0.225
-0.19
-0.18
-0.17
-0.18
-0.2
-0.215
-0.23
-0.22
-0.205
-0.18
-0.165
-0.13
-0.12
-0.125
-0.1
-0.075
-0.055
-0.04
-0.04
-0.03
-0.03
-0.035
-0.04
-0.035
-0.035
-0.04
-0.05
-0.06
-0.07
-0.045
-0.04
-0.03
-0.035
-0.03
-0.045
-0.04
-0.05
-0.05
-0.05
-0.055
-0.06
-0.05
-0.035
-0.015
-0.02
-0.01
0.0
-0.005
-0.015
-0.01
-0.015
-0.02
-0.02
-0.02
-0.01
0.005
0.0
-0.005
0.0
-0.01
-0.005
-0.005
0.005
0.015
0.02
0.025
0.04
0.055
0.055
0.06
0.055
0.06
0.075
0.08
0.085
0.085
0.095
0.095
0.105
0.13
0.135
0.15
0.15
0.16
0.16
0.15
0.14
0.155
0.155
0.16
0.175
0.185
0.185
0.185
0.195
0.18
0.18
0.17
0.175
0.175
0.165
0.18
0.165
0.165
0.15
0.14
0.145
0.13
0.12
0.105
0.1
0.085
0.09
0.085
0.085
0.08
0.07
0.06
0.04
0.03
0.01
0.0
0.0
-0.01
-0.005
0.02
0.02
0.025
0.005
0.015
-0.005
0.0
-0.02
-0.005
-0.005
0.0
0.015
0.02
0.015
0.015
0.015
-0.01
0.0
-0.015
-0.02
-0.04
-0.03
-0.02
-0.005
0.01
0.02
0.025
0.04
0.04
0.04
0.025
0.005
-0.005
-0.01
-0.005
0.005
0.015
0.015
0.025
0.015
0.025
0.01
0.02
0.005
0.005
0.01
-0.005
0.015
0.03
0.02
0.035
0.035
0.04
0.035
0.025
0.025
0.005
-0.01
-0.005
-0.005
-0.01
0.005
0.015
0.025
0.015
0.02
0.01
0.01
0.01
0.0
0.005
-0.005
0.005
0.02
0.03
0.03
0.025
0.015
-0.01
-0.02
-0.025
-0.035
-0.025
-0.015
-0.005
0.0
0.015
0.005
-0.005
0.0
-0.01
-0.01
-0.015
-0.015
-0.015
-0.01
-0.02
-0.015
-0.015
-0.02
-0.01
-0.025
-0.025
-0.025
-0.04
-0.03
-0.05
-0.03
-0.02
-0.01
0.0
-0.015
-0.02
-0.025
-0.04
-0.035
-0.045
-0.04
-0.045
-0.05
-0.04
-0.025
-0.02
-0.02
-0.005
-0.005
-0.02
-0.025
-0.035
-0.04
-0.025
-0.01
-0.01
-0.005
0.005
0.005
-0.035
-0.03
-0.05
-0.045
-0.035
-0.02
-0.005
0.01
0.02
0.025
0.015
-0.01
-0.025
-0.04
-0.03
-0.02
-0.025
-0.02
-0.03
-0.02
-0.02
-0.015
-0.005
-0.005
-0.025
-0.015
-0.02
-0.015
-0.02
-0.025
-0.02
-0.01
-0.005
0.0
0.01
0.005
0.0
0.01
-0.005
-0.025
-0.015
-0.005
-0.005
0.0
0.01
0.015
0.005
-0.035
-0.055
-0.05
-0.055
-0.055
-0.07
-0.08
-0.075
-0.06
-0.035
-0.03
-0.015
-0.02
-0.04
-0.045
-0.06
-0.055
-0.05
-0.065
-0.05
-0.04
-0.03
-0.03
-0.01
-0.025
-0.03
-0.045
-0.035
-0.035
-0.04
-0.025
-0.02
-0.01
-0.01
-0.03
-0.04
-0.05
-0.06
-0.065
-0.04
-0.035
-0.025
-0.015
-0.025
-0.015
-0.01
-0.005
0.015
0.025
-0.005
0.0
-0.03
-0.05
-0.065
-0.065
-0.07
-0.07
-0.085
-0.07
-0.05
-0.065
-0.055
-0.045
-0.03
-0.005
0.02
0.03
0.035
0.04
0.04
0.04
0.04
0.045
0.055
0.035
0.05
0.04
0.04
0.045
0.05
0.065
0.075
0.09
0.105
0.095
0.08
0.08
0.09
0.065
0.04
0.02
0.0
0.035
0.075
0.105
0.105
0.07
0.035
-0.005
-0.055
-0.115
-0.13
-0.14
-0.105
-0.075
-0.04
-0.035
-0.035
-0.065
-0.095
-0.115
-0.1
-0.08
-0.065
-0.055
-0.05
-0.04
-0.04
-0.025
-0.01
-0.005
0.01
0.02
0.03
0.045
0.04
0.025
0.035
0.025
0.01
0.0
-0.045
-0.09
-0.12
-0.145
-0.14
-0.13
-0.13
-0.135
-0.125
-0.095
-0.06
-0.005
0.04
0.07
0.09
0.13
0.15
0.195
0.26
0.32
0.35
0.32
0.21
0.05
-0.115
-0.245
-0.325
-0.35
-0.33
-0.285
-0.265
-0.235
-0.22
-0.21
-0.22
-0.225
-0.25
-0.305
-0.34
-0.34
-0.305
-0.25
-0.2
-0.19
-0.195
-0.205
-0.245
-0.28
-0.28
-0.29
-0.255
-0.225
-0.19
-0.15
-0.115
-0.09
-0.075
-0.075
-0.055
-0.04
-0.025
-0.01
-0.005
0.0
-0.01
-0.015
-0.025
-0.025
-0.035
-0.03
-0.025
-0.035
-0.025
-0.02
-0.025
-0.025
-0.02
-0.03
-0.015
-0.025
-0.005
0.005
0.025
0.04
0.055
0.07
0.075
0.095
0.085
0.075
0.055
0.02
0.0
-0.005
-0.01
0.01
0.035
0.065
0.085
0.095
0.105
0.105
0.09
0.095
0.08
0.08
0.085
0.095
0.11
0.125
0.125
0.175
0.19
0.185
0.185
0.17
0.18
0.17
0.14
0.135
0.14
0.15
0.2
0.235
0.255
0.27
0.28
0.285
0.27
0.25
0.23
0.23
0.245
0.27
0.275
0.27
0.25
0.205
0.17
0.13
0.115
0.13
0.15
0.175
0.18
0.185
0.21
0.21
0.195
0.155
0.12
0.06
0.015
0.02
0.035
0.045
0.035
0.02
0.02
0.02
0.045
0.05
0.065
0.02
-0.045
-0.115
-0.125
-0.12
-0.09
-0.075
-0.04
-0.03
-0.035
-0.06
-0.065
-0.065
-0.05
-0.03
-0.01
0.0
0.02
0.015
-0.005
-0.025
-0.03
-0.02
-0.02
-0.025
-0.06
-0.07
-0.04
-0.01
0.03
0.025
0.005
-0.03
-0.085
-0.095
-0.115
-0.115
-0.11
-0.06
-0.02
0.025
0.08
0.08
0.08
0.045
0.0
-0.025
-0.035
-0.045
-0.04
-0.06
-0.03
-0.01
-0.015
0.005
0.01
0.0
0.02
0.035
0.045
0.025
-0.005
-0.05
-0.055
-0.04
-0.01
0.01
0.005
-0.005
-0.035
-0.025
-0.045
-0.06
-0.07
-0.08
-0.095
-0.075
-0.065
-0.045
-0.03
-0.01
0.005
0.005
0.005
-0.005
-0.01
0.0
0.005
0.015
0.025
0.0
-0.005
0.01
0.065
0.14
0.24
0.345
0.435
0.495
0.495
0.43
0.265
0.055
-0.13
-0.245
-0.31
-0.31
-0.285
-0.29
-0.275
-0.255
-0.235
-0.2
-0.18
-0.225
-0.245
-0.275
-0.3
-0.295
-0.27
-0.25
-0.24
-0.235
-0.225
-0.225
-0.25
-0.25
-0.255
-0.23
-0.21
-0.185
-0.155
-0.125
-0.09
-0.025
0.0
0.02
0.01
-0.01
-0.02
-0.025
-0.035
-0.015
-0.015
-0.01
-0.005
0.005
-0.005
-0.005
0.0
-0.02
-0.025
-0.015
-0.005
0.025
0.025
0.0
-0.02
-0.035
-0.025
0.0
0.015
0.02
0.02
0.015
0.01
0.005
-0.005
-0.035
-0.055
-0.055
-0.045
-0.02
0.005
0.02
0.015
0.02
0.02
0.03
0.035
0.04
0.05
0.055
0.08
0.1
0.115
0.14
0.145
0.17
0.175
0.185
0.195
0.2
0.22
0.235
0.245
0.265
0.275
0.28
0.27
0.245
0.21
0.19
0.185
0.205
0.225
0.24
0.27
0.28
0.275
0.28
0.27
0.25
0.235
0.2
0.16
0.12
0.11
0.115
0.12
0.125
0.12
0.085
0.055
0.035
0.035
0.035
0.025
0.02
-0.015
-0.025
-0.03
-0.035
-0.035
-0.045
-0.04
-0.04
-0.04
-0.05
-0.06
-0.07
-0.085
-0.09
-0.085
-0.07
-0.065
-0.065
-0.065
-0.05
-0.04
-0.025
-0.03
-0.025
-0.01
-0.025
-0.03
-0.04
-0.035
-0.055
-0.04
-0.035
-0.02
-0.02
-0.01
-0.03
-0.04
-0.06
-0.075
-0.08
-0.08
-0.08
-0.07
-0.05
-0.05
-0.045
-0.02
-0.025
-0.025
-0.035
-0.055
-0.075
-0.09
-0.1
-0.09
-0.08
-0.075
-0.06
-0.045
-0.035
-0.015
-0.01
0.02
0.02
0.01
-0.02
-0.045
-0.06
-0.055
-0.05
-0.035
-0.025
-0.04
-0.06
-0.095
-0.125
-0.135
-0.125
-0.095
-0.045
-0.01
0.005
0.01
-0.01
-0.03
-0.035
-0.05
-0.055
-0.07
-0.075
-0.085
-0.08
-0.08
-0.07
-0.065
-0.05
-0.04
-0.03
-0.03
-0.01
-0.015
-0.025
-0.02
-0.025
-0.025
0.005
0.025
0.06
0.08
0.08
0.04
-0.005
-0.06
-0.13
-0.165
-0.16
-0.15
-0.085
-0.035
-0.02
-0.025
-0.045
-0.04
-0.045
0.01
0.065
0.12
0.145
0.145
0.115
0.125
0.16
0.24
0.345
0.44
0.465
0.425
0.315
0.12
-0.08
-0.225
-0.325
-0.365
-0.36
-0.355
-0.32
-0.3
-0.27
-0.225
-0.215
-0.225
-0.24
-0.26
-0.27
-0.25
-0.21
-0.185
-0.14
-0.105
-0.125
-0.14
-0.185
-0.21
-0.22
-0.225
-0.215
-0.2
-0.19
-0.155
-0.12
-0.085
-0.05
-0.02
-0.01
-0.01
0.015
0.02
0.025
0.025
0.005
0.0
-0.015
-0.005
0.0
0.0
-0.01
-0.02
-0.045
-0.05
-0.04
-0.04
-0.02
-0.015
-0.005
0.015
0.025
0.035
0.025
0.02
0.015
0.01
0.025
0.04
0.035
0.055
0.07
0.075
0.08
0.08
0.09
0.06
0.025
-0.005
-0.02
-0.015
-0.01
0.015
0.035
0.035
0.055
0.055
0.06
0.07
0.065
0.085
0.115
0.125
0.14
0.165
0.195
0.225
0.225
0.23
0.235
0.245
0.245
0.255
0.25
0.235
0.205
0.18
0.15
0.12
0.115
0.105
0.11
0.14
0.17
0.205
0.22
0.21
0.185
0.17
0.165
0.16
0.155
0.16
0.14
0.125
0.115
0.105
0.09
0.075
0.05
0.035
0.03
0.045
0.06
0.07
0.075
0.08
0.105
0.115
0.105
0.05
-0.03
-0.125
-0.18
-0.19
-0.165
-0.12
-0.06
-0.025
-0.005
-0.005
-0.005
-0.025
-0.045
-0.045
-0.045
-0.035
-0.015
0.005
0.005
0.0
-0.01
-0.02
-0.02
-0.035
-0.03
-0.025
-0.02
0.0
0.025
0.03
0.035
0.015
-0.02
-0.07
-0.095
-0.105
-0.11
-0.1
-0.09
-0.06
-0.03
-0.005
0.015
0.035
0.055
0.06
0.065
0.045
0.005
-0.01
-0.025
-0.01
0.005
0.01
0.01
0.0
-0.015
-0.015
-0.01
-0.005
-0.005
0.005
0.01
0.02
0.04
0.045
0.045
0.045
0.035
0.045
0.035
0.055
0.025
0.0
-0.05
-0.065
-0.09
-0.1
-0.085
-0.065
-0.03
-0.01
0.025
0.045
0.025
0.01
-0.015
-0.03
-0.01
0.015
0.03
0.045
0.07
0.06
0.045
0.015
-0.005
-0.02
-0.01
-0.03
-0.025
-0.02
-0.02
-0.02
-0.03
-0.005
-0.005
0.03
0.06
0.085
0.075
0.045
0.0
-0.01
-0.01
0.0
0.03
0.065
0.105
0.15
0.2
0.27
0.33
0.395
0.43
0.465
0.45
0.4
0.29
0.11
-0.085
-0.245
-0.325
-0.345
-0.325
-0.285
-0.235
-0.205
-0.18
-0.18
-0.185
-0.2
-0.235
-0.235
-0.21
-0.165
-0.13
-0.125
-0.115
-0.15
-0.18
-0.215
-0.23
-0.24
-0.225
-0.21
-0.18
-0.165
-0.125
-0.095
-0.04
0.005
0.01
0.015
0.0
0.0
0.0
0.015
0.03
0.055
0.065
0.075
0.04
0.015
0.0
-0.035
-0.045
-0.05
-0.03
-0.03
-0.03
-0.04
-0.04
-0.03
0.005
0.05
0.08
0.095
0.095
0.065
0.04
-0.005
-0.03
-0.035
-0.005
0.02
0.04
0.045
0.02
0.005
0.015
0.01
0.035
0.05
0.07
0.08
0.065
0.055
0.045
0.025
0.01
0.005
0.035
0.06
0.08
0.1
0.12
0.12
0.115
0.12
0.145
0.17
0.175
0.2
0.22
0.235
0.23
0.215
0.185
0.15
0.145
0.175
0.2
0.25
0.275
0.27
0.255
0.23
0.22
0.2
0.18
0.16
0.17
0.185
0.205
0.225
0.22
0.21
0.16
0.1
0.055
0.045
0.065
0.075
0.1
0.105
0.09
0.075
0.04
0.025
0.015
0.02
0.015
0.015
0.02
0.025
0.025
0.03
0.045
0.05
0.04
0.015
-0.015
-0.035
-0.025
-0.03
-0.04
-0.055
-0.06
-0.045
-0.015
0.005
0.005
-0.015
-0.05
-0.065
-0.08
-0.085
-0.06
-0.045
-0.02
-0.01
0.005
-0.005
-0.015
-0.035
-0.045
-0.055
-0.045
-0.055
-0.06
-0.055
-0.055
-0.045
-0.035
-0.02
-0.015
-0.005
0.0
-0.015
-0.025
-0.025
-0.02
-0.005
0.02
0.045
0.07
0.08
0.075
0.085
0.06
0.025
0.0
-0.005
0.0
0.0
0.015
0.035
0.06
0.025
-0.015
-0.07
-0.115
-0.125
-0.105
-0.07
-0.025
-0.005
0.025
0.025
0.025
0.015
0.015
0.015
0.01
-0.005
0.0
-0.015
-0.04
-0.045
-0.045
-0.035
-0.015
-0.005
0.005
0.02
0.03
0.025
0.005
-0.03
-0.05
-0.045
-0.025
0.015
0.025
0.015
-0.005
-0.05
-0.07
-0.055
-0.025
0.0
0.02
0.025
0.015
0.0
-0.015
-0.005
0.025
0.065
0.1
0.135
0.16
0.165
0.18
0.21
0.25
0.34
0.4
0.42
0.38
0.245
0.065
-0.145
-0.315
-0.385
-0.39
-0.36
-0.305
-0.27
-0.23
-0.2
-0.185
-0.17
-0.175
-0.14
-0.12
-0.11
-0.135
-0.16
-0.205
-0.26
-0.255
-0.235
-0.205
-0.16
-0.12
-0.105
-0.1
-0.115
-0.115
-0.11
-0.075
-0.075
-0.065
-0.075
-0.085
-0.085
-0.065
-0.045
-0.045
-0.035
-0.045
-0.045
-0.025
-0.01
0.02
0.025
0.015
-0.01
-0.035
-0.06
-0.085
-0.085
-0.065
-0.03
0.01
0.05
0.05
0.0
-0.055
-0.08
-0.085
-0.06
-0.025
-0.01
-0.005
-0.015
0.005
0.02
0.05
0.065
0.05
0.02
0.005
-0.02
-0.02
-0.01
0.01
0.05
0.09
0.105
0.09
0.065
0.06
0.07
0.075
0.105
0.125
0.12
0.13
0.13
0.14
0.18
0.21
0.23
0.24
0.235
0.225
0.225
0.215
0.2
0.185
0.16
0.15
0.16
0.18
0.2
0.215
0.205
0.185
0.165
0.15
0.135
0.14
0.15
0.15
0.115
0.065
0.03
0.01
0.035
0.035
0.045
0.03
0.01
-0.015
-0.02
-0.02
-0.025
-0.01
0.0
-0.015
-0.02
-0.005
-0.01
-0.025
-0.02
-0.025
-0.035
-0.04
-0.045
-0.05
-0.04
-0.04
-0.035
-0.03
-0.03
-0.02
-0.03
-0.025
-0.02
-0.03
-0.04
-0.05
-0.06
-0.07
-0.06
-0.04
-0.005
0.025
0.05
0.05
0.015
-0.05
-0.135
-0.2
-0.245
-0.24
-0.21
-0.165
-0.11
-0.08
-0.065
-0.04
-0.055
-0.04
-0.03
-0.05
-0.05
-0.055
-0.085
-0.105
-0.11
-0.11
-0.1
-0.1
-0.065
-0.06
-0.065
-0.045
-0.02
-0.015
0.005
0.005
-0.025
-0.05
-0.065
-0.08
-0.085
-0.105
-0.105
-0.105
-0.09
-0.075
-0.055
-0.07
-0.09
-0.125
-0.165
-0.18
-0.19
-0.17
-0.13
-0.09
-0.05
-0.01
0.0
-0.005
-0.035
-0.06
-0.105
-0.125
-0.14
-0.145
-0.13
-0.115
-0.09
-0.07
-0.06
-0.05
-0.055
-0.07
-0.07
-0.095
-0.125
-0.155
-0.17
-0.18
-0.16
-0.15
-0.115
-0.095
-0.065
-0.075
-0.075
-0.085
-0.095
-0.11
-0.115
-0.1
-0.085
-0.065
-0.005
0.02
0.07
0.135
0.205
0.29
0.36
0.4
0.4
0.36
0.235
0.045
-0.16
-0.32
-0.42
-0.45
-0.445
-0.405
-0.37
-0.325
-0.29
-0.275
-0.275
-0.285
-0.3
-0.31
-0.32
-0.275
-0.245
-0.215
-0.215
-0.245
-0.275
-0.275
-0.275
-0.28
-0.27
-0.275
-0.255
-0.23
-0.205
-0.19
-0.16
-0.14
-0.12
-0.1
-0.07
-0.055
-0.06
-0.055
-0.08
-0.075
-0.09
-0.085
-0.075
-0.055
-0.045
-0.015
0.0
-0.01
-0.005
0.0
-0.005
-0.005
-0.01
-0.03
-0.02
-0.04
-0.045
-0.05
-0.04
-0.045
-0.045
-0.075
-0.11
-0.125
-0.14
-0.14
-0.105
-0.095
-0.055
-0.025
0.025
0.015
-0.01
-0.025
-0.06
-0.07
-0.05
-0.015
0.025
0.055
0.09
0.095
0.09
0.07
0.035
0.005
-0.025
-0.04
-0.02
0.01
0.07
0.12
0.17
0.195
0.195
0.185
0.14
0.115
0.095
0.115
0.145
0.155
0.18
0.19
0.185
0.175
0.19
0.17
0.165
0.14
0.11
0.055
0.015
-0.01
-0.005
0.025
0.07
0.11
0.12
0.125
0.08
0.02
-0.06
-0.145
-0.175
-0.21
-0.155
-0.11
-0.045
-0.015
0.015
-0.03
-0.1
-0.18
-0.235
-0.245
-0.23
-0.2
-0.145
-0.12
-0.08
-0.05
-0.025
-0.03
-0.07
-0.105
-0.155
-0.18
-0.2
-0.185
-0.16
-0.14
-0.11
-0.095
-0.08
-0.115
-0.145
-0.18
-0.2
-0.215
-0.185
-0.19
-0.17
-0.17
-0.185
-0.165
-0.155
-0.135
-0.13
-0.125
-0.125
-0.13
-0.135
-0.13
-0.115
-0.105
-0.07
-0.05
-0.04
-0.055
-0.085
-0.105
-0.125
-0.14
-0.145
-0.15
-0.11
-0.09
-0.07
-0.06
-0.085
-0.105
-0.125
-0.125
-0.105
-0.075
-0.065
-0.065
-0.09
-0.115
-0.13
-0.14
-0.12
-0.125
-0.125
-0.12
-0.12
-0.115
-0.115
-0.11
-0.1
-0.105
-0.09
-0.095
-0.08
-0.085
-0.08
-0.08
-0.1
-0.11
-0.105
-0.105
-0.095
-0.085
-0.065
-0.06
-0.05
-0.055
-0.055
-0.06
-0.05
-0.045
-0.055
-0.06
-0.085
-0.09
-0.09
-0.09
-0.06
-0.035
-0.025
-0.01
0.005
0.035
0.085
0.16
0.255
0.355
0.455
0.515
0.515
0.405
0.205
-0.04
-0.255
-0.385
-0.445
-0.415
-0.395
-0.36
-0.34
-0.335
-0.335
-0.34
-0.36
-0.365
-0.365
-0.345
-0.295
-0.235
-0.185
-0.16
-0.175
-0.225
-0.295
-0.34
-0.35
-0.32
-0.305
-0.27
-0.25
-0.23
-0.225
-0.185
-0.17
-0.15
-0.14
-0.125
-0.12
-0.1
-0.1
-0.095
-0.085
-0.08
-0.065
-0.06
-0.04
-0.025
0.015
0.03
0.04
0.005
-0.015
-0.05
-0.055
-0.065
-0.09
-0.125
-0.145
-0.155
-0.145
-0.135
-0.135
-0.135
-0.14
-0.135
-0.125
-0.115
-0.07
-0.045
-0.03
-0.05
-0.055
-0.075
-0.075
-0.06
-0.035
-0.02
-0.01
-0.035
-0.04
-0.065
-0.08
-0.08
-0.055
-0.02
0.01
0.055
0.075
0.06
0.035
0.0
0.0
0.025
0.045
0.07
0.04
0.005
-0.015
-0.02
0.025
0.095
0.17
0.21
0.19
0.15
0.115
0.115
0.145
0.19
0.185
0.13
0.06
-0.01
-0.04
-0.015
0.015
-0.005
-0.08
-0.16
-0.205
-0.205
-0.165
-0.125
-0.08
-0.06
-0.04
-0.055
-0.08
-0.13
-0.165
-0.185
-0.18
-0.17
-0.15
-0.12
-0.095
-0.075
-0.1
-0.15
-0.22
-0.255
-0.23
-0.17
-0.05
0.055
0.12
0.115
0.03
-0.075
-0.22
-0.35
-0.44
-0.44
-0.365
-0.25
-0.145
-0.07
-0.055
-0.06
-0.07
-0.07
-0.095
-0.1
-0.09
-0.1
-0.1
-0.09
-0.075
-0.06
-0.085
-0.105
-0.11
-0.09
-0.05
-0.015
0.005
0.01
-0.01
-0.035
-0.065
-0.075
-0.075
-0.045
-0.035
-0.035
-0.09
-0.13
-0.15
-0.125
-0.085
-0.03
0.0
0.015
0.01
-0.01
-0.01
0.0
0.065
0.105
0.09
-0.025
-0.135
-0.21
-0.215
-0.175
-0.115
-0.04
-0.02
-0.035
-0.06
-0.08
-0.07
-0.055
-0.02
0.01
0.04
0.03
-0.015
-0.08
-0.14
-0.155
-0.15
-0.155
-0.15
-0.165
-0.12
-0.06
0.015
0.085
0.085
0.01
-0.1
-0.225
-0.305
-0.315
-0.265
-0.18
-0.095
-0.04
-0.015
-0.01
-0.01
-0.02
-0.05
-0.085
-0.135
-0.16
-0.155
-0.13
-0.08
-0.04
-0.025
0.0
-0.01
-0.03
-0.06
-0.08
-0.08
-0.09
-0.095
-0.12
-0.13
-0.12
-0.12
-0.15
-0.14
-0.135
-0.1
-0.1
-0.11
-0.125
-0.12
-0.12
-0.09
-0.07
-0.05
-0.05
-0.05
-0.07
-0.095
-0.105
-0.11
-0.095
-0.08
-0.065
-0.055
-0.06
-0.055
-0.06
-0.055
-0.065
-0.09
-0.11
-0.12
-0.105
-0.075
-0.065
-0.035
-0.015
-0.05
-0.085
-0.125
-0.15
-0.16
-0.16
-0.17
-0.175
-0.16
-0.135
-0.11
-0.09
-0.08
-0.08
-0.065
-0.08
-0.07
-0.075
-0.085
-0.095
-0.1
-0.105
-0.1
-0.095
-0.09
-0.09
-0.085
-0.085
-0.08
-0.09
-0.085
-0.085
-0.08
-0.08
-0.07
-0.06
-0.065
-0.055
-0.05
-0.065
-0.075
-0.09
-0.095
-0.12
-0.125
-0.105
-0.12
-0.1
-0.09
-0.07
-0.055
-0.05
-0.05
-0.065
-0.075
-0.105
-0.085
-0.07
-0.05
-0.035
-0.03
-0.02
-0.03
-0.045
-0.075
-0.1
-0.105
-0.125
-0.13
-0.125
-0.11
-0.105
-0.075
-0.055
-0.04
-0.035
-0.035
-0.045
-0.055
-0.06
-0.045
-0.045
-0.02
-0.015
0.005
0.0
0.0
-0.015
-0.045
-0.05
-0.06
-0.06
-0.05
-0.04
-0.04
-0.035
-0.03
-0.03
-0.03
-0.02
-0.04
-0.045
-0.055
-0.065
-0.07
-0.08
-0.085
-0.09
-0.09
-0.09
-0.085
-0.08
-0.085
-0.1
-0.12
-0.15
-0.165
-0.16
-0.135
-0.12
-0.1
-0.08
-0.065
-0.07
-0.085
-0.1
-0.125
-0.11
-0.105
-0.085
-0.07
-0.07
-0.075
-0.08
-0.08
-0.075
-0.075
-0.07
-0.085
-0.085
-0.09
-0.095
-0.095
-0.105
-0.11
-0.13
-0.12
-0.115
-0.1
-0.095
-0.08
-0.075
-0.09
-0.1
-0.105
-0.095
-0.08
-0.09
-0.08
-0.08
-0.07
-0.07
-0.08
-0.085
-0.06
-0.045
-0.055
-0.045
-0.045
-0.07
-0.08
-0.095
-0.1
-0.115
-0.125
-0.14
-0.14
-0.135
-0.125
-0.11
-0.095
-0.09
-0.08
-0.06
-0.07
-0.075
-0.09
-0.105
-0.115
-0.12
-0.12
-0.115
-0.11
-0.115
-0.12
-0.13
-0.135
-0.135
-0.13
-0.12
-0.1
-0.085
-0.075
-0.07
-0.065
-0.075
-0.065
-0.07
-0.075
-0.105
-0.115
-0.115
-0.1
-0.1
-0.08
-0.045
-0.045
-0.035
-0.065
-0.11
-0.16
-0.185
-0.195
-0.18
-0.15
-0.13
-0.105
-0.075
-0.07
-0.105
-0.12
-0.16
-0.175
-0.175
-0.18
-0.17
-0.185
-0.2
-0.21
-0.23
-0.23
-0.23
-0.245
-0.225
-0.195
-0.175
-0.17
-0.17
-0.175
-0.185
-0.22
-0.245
-0.27
-0.285
-0.27
-0.25
-0.225
-0.195
-0.185
-0.185
-0.185
-0.195
-0.19
-0.185
-0.165
-0.165
-0.16
-0.16
-0.19
-0.195
-0.195
-0.18
-0.145
-0.115
-0.055
0.01
0.095
0.19
0.29
0.385
0.46
0.47
0.415
0.26
0.08
-0.125
-0.29
-0.39
-0.425
-0.44
-0.455
-0.425
-0.4
-0.375
-0.36
-0.34
-0.34
-0.345
-0.345
-0.32
-0.275
-0.23
-0.195
-0.2
-0.225
-0.26
-0.33
-0.34
-0.32
-0.295
-0.26
-0.235
-0.195
-0.175
-0.155
-0.13
-0.105
-0.085
-0.065
-0.065
-0.075
-0.085
-0.1
-0.09
-0.08
-0.06
-0.06
-0.055
-0.055
-0.075
-0.08
-0.085
-0.09
-0.115
-0.095
-0.08
-0.07
-0.04
-0.035
-0.05
-0.06
-0.06
-0.065
-0.055
-0.045
-0.03
-0.015
-0.005
0.005
0.0
-0.01
-0.015
-0.03
-0.015
-0.015
-0.005
-0.005
0.0
0.015
0.025
0.045
0.06
0.06
0.06
0.06
0.07
0.075
0.09
0.105
