Lead II
-0.04
-0.035
-0.05
-0.045
-0.035
0.0
0.03
0.015
0.015
0.0
0.02
0.035
0.06
0.09
0.115
0.125
0.14
0.17
0.175
0.175
0.165
0.13
0.11
0.1
0.085
0.07
0.055
0.045
0.03
0.01
-0.005
-0.035
-0.07
-0.1
-0.125
-0.11
-0.12
-0.12
-0.145
-0.175
-0.175
-0.155
-0.13
-0.13
-0.14
-0.155
-0.155
-0.145
-0.145
-0.12
-0.125
-0.135
-0.13
-0.125
-0.105
-0.11
-0.14
-0.18
-0.215
-0.215
-0.16
-0.055
0.09
0.25
0.45
0.6
0.665
0.645
0.5
0.26
0.02
-0.17
-0.245
-0.26
-0.24
-0.21
-0.17
-0.155
-0.13
-0.15
-0.17
-0.175
-0.165
-0.15
-0.14
-0.135
-0.14
-0.14
-0.15
-0.145
-0.125
-0.145
-0.155
-0.17
-0.155
-0.135
-0.12
-0.13
-0.14
-0.155
-0.165
-0.155
-0.135
-0.14
-0.155
-0.17
-0.17
-0.16
-0.135
-0.13
-0.145
-0.14
-0.16
-0.135
-0.135
-0.135
-0.14
-0.155
-0.15
-0.13
-0.115
-0.125
-0.14
-0.15
-0.15
-0.145
-0.13
-0.135
-0.16
-0.16
-0.16
-0.15
-0.13
-0.15
-0.15
-0.175
-0.16
-0.155
-0.14
-0.135
-0.14
-0.165
-0.175
-0.165
-0.145
-0.15
-0.17
-0.18
-0.165
-0.17
-0.16
-0.175
-0.18
-0.195
-0.19
-0.185
-0.175
-0.195
-0.21
-0.225
-0.24
-0.22
-0.23
-0.225
-0.24
-0.275
-0.29
-0.255
-0.245
-0.245
-0.245
-0.255
-0.265
-0.27
-0.245
-0.245
-0.275
-0.275
-0.275
-0.265
-0.25
-0.25
-0.27
-0.285
-0.27
-0.255
-0.24
-0.24
-0.26
-0.265
-0.295
-0.26
-0.24
-0.24
-0.255
-0.26
-0.27
-0.26
-0.245
-0.24
-0.245
-0.26
-0.26
-0.255
-0.24
-0.235
-0.24
-0.245
-0.255
-0.245
-0.24
-0.235
-0.235
-0.24
-0.235
-0.225
-0.22
-0.235
-0.255
-0.26
-0.255
-0.25
-0.235
-0.235
-0.24
-0.245
-0.245
-0.24
-0.215
-0.23
-0.245
-0.25
-0.255
-0.255
-0.255
-0.24
-0.245
-0.245
-0.245
-0.235
-0.21
-0.22
-0.235
-0.26
-0.24
-0.23
-0.225
-0.225
-0.22
-0.25
-0.235
-0.23
-0.215
-0.23
-0.25
-0.255
-0.265
-0.235
-0.215
-0.215
-0.23
-0.24
-0.235
-0.225
-0.22
-0.23
-0.245
-0.255
-0.24
-0.235
-0.22
-0.23
-0.235
-0.245
-0.245
-0.245
-0.235
-0.24
-0.245
-0.245
-0.24
-0.22
-0.215
-0.225
-0.24
-0.255
-0.255
-0.24
-0.22
-0.23
-0.265
-0.265
-0.255
-0.24
-0.245
-0.245
-0.27
-0.28
-0.27
-0.265
-0.245
-0.245
-0.255
-0.26
-0.255
-0.255
-0.27
-0.245
-0.25
-0.255
-0.255
-0.245
-0.24
-0.245
-0.245
-0.245
-0.24
-0.2
-0.18
-0.17
-0.17
-0.165
-0.155
-0.13
-0.1
-0.07
-0.06
-0.04
-0.035
-0.03
0.01
-0.02
-0.025
-0.05
-0.07
-0.105
-0.095
-0.11
-0.13
-0.155
-0.185
-0.2
-0.225
-0.25
-0.265
-0.275
-0.29
-0.3
-0.285
-0.29
-0.305
-0.31
-0.305
-0.28
-0.265
-0.27
-0.285
-0.295
-0.285
-0.275
-0.27
-0.255
-0.26
-0.285
-0.275
-0.29
-0.31
-0.355
-0.38
-0.335
-0.195
-0.015
0.18
0.38
0.475
0.435
0.215
-0.045
-0.25
-0.365
-0.41
-0.41
-0.365
-0.295
-0.245
-0.24
-0.265
-0.29
-0.27
-0.25
-0.24
-0.245
-0.25
-0.265
-0.25
-0.24
-0.22
-0.22
-0.225
-0.235
-0.23
-0.225
-0.2
-0.215
-0.22
-0.22
-0.23
-0.21
-0.19
-0.195
-0.195
-0.215
-0.215
-0.2
-0.19
-0.185
-0.195
-0.205
-0.205
-0.205
-0.165
-0.175
-0.195
-0.185
-0.17
-0.165
-0.155
-0.17
-0.165
-0.16
-0.17
-0.16
-0.16
-0.16
-0.17
-0.18
-0.19
-0.175
-0.16
-0.17
-0.17
-0.175
-0.17
-0.155
-0.155
-0.16
-0.175
-0.165
-0.18
-0.16
-0.14
-0.165
-0.18
-0.17
-0.185
-0.185
-0.155
-0.165
-0.185
-0.195
-0.2
-0.2
-0.19
-0.2
-0.2
-0.23
-0.23
-0.22
-0.205
-0.215
-0.225
-0.23
-0.225
-0.22
-0.185
-0.2
-0.2
-0.195
-0.195
-0.185
-0.17
-0.16
-0.185
-0.18
-0.17
-0.16
-0.13
-0.13
-0.13
-0.155
-0.155
-0.13
-0.11
-0.11
-0.11
-0.105
-0.1
-0.095
-0.08
-0.07
-0.065
-0.09
-0.09
-0.075
-0.06
-0.06
-0.06
-0.075
-0.06
-0.065
-0.05
-0.05
-0.055
-0.065
-0.05
-0.04
-0.04
-0.035
-0.035
-0.055
-0.05
-0.03
-0.025
-0.03
-0.025
-0.04
-0.03
-0.025
0.005
-0.005
-0.005
-0.03
-0.015
-0.01
0.005
0.0
-0.015
-0.02
-0.04
-0.025
0.0
-0.01
-0.01
-0.02
-0.01
-0.005
0.0
0.005
-0.005
-0.01
-0.01
-0.005
0.025
0.005
-0.02
-0.015
0.0
0.0
0.03
0.025
0.005
0.0
0.005
0.015
0.03
0.025
0.02
0.0
0.015
0.025
0.05
0.035
0.02
0.0
0.01
0.025
0.04
0.04
0.045
0.04
0.06
0.07
0.095
0.085
0.09
0.09
0.095
0.115
0.13
0.14
0.155
0.19
0.24
0.3
0.33
0.34
0.29
0.28
0.29
0.29
0.285
0.255
0.225
0.215
0.205
0.195
0.18
0.155
0.09
0.025
0.01
0.0
0.02
0.005
-0.015
-0.025
-0.035
-0.015
-0.01
0.0
-0.005
-0.005
-0.015
-0.02
0.015
0.015
0.0
0.0
0.015
0.03
0.025
0.025
0.0
-0.04
-0.06
-0.05
-0.005
0.09
0.25
0.465
0.675
0.9
0.995
0.9
0.64
0.305
0.045
-0.075
-0.085
-0.075
-0.045
-0.015
-0.005
-0.005
0.03
0.01
0.0
0.0
-0.01
0.005
0.02
0.01
0.015
0.005
0.0
0.025
0.035
0.035
0.025
-0.01
0.005
0.03
0.04
0.03
0.03
0.015
0.01
0.03
0.04
0.02
0.02
0.02
0.03
0.045
0.075
0.075
0.045
0.025
0.025
0.035
0.06
0.065
0.045
0.04
0.025
0.04
0.05
0.04
0.04
0.045
0.04
0.05
0.065
0.045
0.05
0.035
0.035
0.045
0.065
0.05
0.04
0.025
0.035
0.055
0.06
0.045
0.025
0.015
0.02
0.04
0.045
0.03
0.015
-0.005
0.005
0.025
0.035
0.015
0.005
-0.015
-0.025
-0.02
-0.01
-0.025
-0.025
-0.035
-0.04
-0.03
-0.025
-0.035
-0.045
-0.055
-0.06
-0.05
-0.02
-0.025
-0.025
-0.03
-0.055
-0.035
-0.015
-0.01
-0.025
-0.04
-0.04
-0.02
-0.005
-0.015
-0.02
-0.025
-0.035
-0.015
-0.005
-0.005
-0.025
-0.05
-0.03
-0.01
0.02
0.025
0.01
0.005
-0.005
0.01
0.03
0.025
0.0
0.0
0.0
0.02
0.035
0.01
0.01
0.005
0.005
0.01
0.025
0.025
0.025
-0.005
0.02
0.035
0.04
0.035
0.03
0.035
0.04
0.05
0.06
0.05
0.04
0.035
0.04
0.04
0.06
0.05
0.04
0.035
0.04
0.06
0.075
0.07
0.055
0.03
0.035
0.045
0.055
0.075
0.06
0.05
0.055
0.05
0.045
0.06
0.055
0.04
0.05
0.055
0.055
0.06
0.055
0.06
0.06
0.07
0.09
0.085
0.08
0.065
0.065
0.08
0.09
0.08
0.085
0.06
0.07
0.075
0.075
0.095
0.09
0.085
0.085
0.085
0.09
0.09
0.085
0.08
0.065
0.08
0.1
0.095
0.085
0.07
0.07
0.085
0.11
0.1
0.09
0.08
0.09
0.1
0.12
0.105
0.09
0.085
0.085
0.095
0.105
0.1
0.095
0.075
0.09
0.1
0.12
0.12
0.1
0.075
0.09
0.095
0.12
0.12
0.105
0.085
0.085
0.105
0.13
0.12
0.1
0.095
0.105
0.12
0.135
0.145
0.135
0.15
0.165
0.185
0.21
0.21
0.2
0.205
0.22
0.27
0.325
0.335
0.365
0.35
0.37
0.365
0.355
0.32
0.28
0.255
0.245
0.245
0.24
0.21
0.15
0.115
0.09
0.1
0.1
0.085
0.07
0.055
0.035
0.055
0.075
0.085
0.065
0.05
0.04
0.055
0.085
0.105
0.1
0.065
0.085
0.105
0.115
0.095
0.075
0.05
0.01
0.035
0.115
0.25
0.415
0.58
0.77
0.945
1.06
0.975
0.705
0.365
0.125
0.025
0.015
0.03
0.03
0.06
0.07
0.08
0.09
0.07
0.045
0.05
0.05
0.07
0.085
0.085
0.065
0.05
0.065
0.075
0.095
0.075
0.07
0.07
0.08
0.085
0.105
0.085
0.085
0.08
0.08
0.08
0.095
0.09
0.06
0.065
0.075
0.1
0.12
0.115
0.1
0.075
0.065
0.085
0.095
0.08
0.07
0.075
0.085
0.09
0.11
0.105
0.085
0.08
0.065
0.075
0.095
0.075
0.06
0.05
0.045
0.07
0.08
0.07
0.065
0.05
0.065
0.08
0.085
0.09
0.08
0.085
0.1
0.12
0.14
0.15
0.155
0.175
0.165
0.18
0.175
0.15
0.115
0.085
0.065
0.05
0.06
0.065
0.065
0.05
0.04
0.04
0.05
0.035
0.0
-0.03
-0.035
-0.03
-0.035
-0.055
-0.075
-0.08
-0.08
-0.08
-0.085
-0.1
-0.11
-0.11
-0.095
-0.08
-0.065
-0.095
-0.105
-0.11
-0.11
-0.08
-0.075
-0.08
-0.095
-0.1
-0.105
-0.095
-0.07
-0.075
-0.065
-0.085
-0.095
-0.085
-0.07
-0.075
-0.06
-0.07
-0.07
-0.05
-0.04
-0.04
-0.045
-0.045
-0.05
-0.01
-0.01
-0.015
-0.05
-0.085
-0.12
-0.145
-0.145
-0.05
0.065
0.2
0.39
0.655
0.93
1.1
1.085
0.88
0.575
0.32
0.18
0.13
0.115
0.115
0.08
0.035
0.035
0.02
0.0
-0.02
-0.02
-0.03
-0.025
-0.03
-0.045
-0.075
-0.085
-0.045
-0.04
-0.05
-0.07
-0.075
-0.08
-0.065
-0.065
-0.055
-0.07
-0.07
-0.065
-0.06
-0.045
-0.05
-0.075
-0.09
-0.09
-0.07
-0.06
-0.06
-0.08
-0.11
-0.11
-0.09
-0.085
-0.09
-0.11
-0.125
-0.12
-0.105
-0.09
-0.085
-0.105
-0.125
-0.145
-0.14
-0.125
-0.12
-0.135
-0.16
-0.155
-0.15
-0.135
-0.16
-0.175
-0.175
-0.21
-0.185
-0.17
-0.185
-0.215
-0.235
-0.25
-0.25
-0.24
-0.255
-0.27
-0.29
-0.285
-0.285
-0.28
-0.28
-0.295
-0.295
-0.305
-0.31
-0.305
-0.295
-0.29
-0.28
-0.27
-0.255
-0.235
-0.22
-0.225
-0.23
-0.205
-0.205
-0.185
-0.18
-0.19
-0.185
-0.155
-0.135
-0.125
-0.125
-0.135
-0.135
-0.145
-0.095
-0.08
-0.085
-0.08
-0.1
-0.09
-0.08
-0.055
-0.07
-0.08
-0.08
-0.09
-0.045
-0.055
-0.06
-0.06
-0.07
-0.075
-0.05
-0.035
-0.04
-0.05
-0.06
-0.055
-0.055
-0.035
-0.05
-0.04
-0.055
-0.045
-0.035
-0.03
-0.04
-0.045
-0.04
-0.04
-0.01
0.01
-0.02
-0.02
-0.025
-0.025
-0.015
-0.005
-0.01
-0.025
-0.055
-0.02
-0.005
0.0
0.005
-0.005
-0.02
-0.025
-0.005
0.02
0.0
-0.015
-0.005
-0.01
-0.005
0.025
0.03
0.02
0.01
0.025
0.035
0.045
0.035
0.025
0.015
0.02
0.02
0.035
0.035
0.025
0.015
0.01
0.03
0.04
0.02
0.015
0.005
0.02
0.025
0.04
0.045
0.025
0.01
0.015
0.025
0.05
0.035
0.025
0.025
0.035
0.035
0.065
0.06
0.05
0.035
0.055
0.055
0.055
0.06
0.055
0.05
0.06
0.045
0.055
0.03
0.035
0.035
0.045
0.065
0.07
0.065
0.06
0.055
0.06
0.07
0.075
0.06
0.05
0.04
0.055
0.06
0.075
0.075
0.07
0.05
0.04
0.065
0.075
0.075
0.06
0.06
0.06
0.07
0.09
0.075
0.07
0.055
0.055
0.075
0.085
0.07
0.055
0.05
0.055
0.065
0.075
0.06
0.05
0.04
0.045
0.045
0.06
0.05
0.055
0.055
0.05
0.07
0.075
0.065
0.05
0.035
0.03
0.05
0.065
0.055
0.05
0.035
0.055
0.07
0.07
0.065
0.065
0.05
0.055
0.05
0.07
0.07
0.05
0.05
0.05
0.05
0.045
0.065
0.065
0.055
0.05
0.055
0.055
0.04
0.035
0.035
0.04
0.07
0.065
0.065
0.055
0.05
0.055
0.07
0.07
0.07
0.055
0.045
0.045
0.05
0.07
0.075
0.06
0.035
0.065
0.085
0.09
0.085
0.04
0.055
0.065
0.075
0.085
0.085
0.06
0.05
0.055
0.055
0.055
0.045
0.03
0.035
0.035
0.05
0.07
0.075
0.045
0.03
0.025
0.04
0.06
0.055
0.025
0.005
0.03
0.04
0.075
0.075
0.055
0.065
0.08
0.11
0.14
0.17
0.185
0.185
0.205
0.235
0.25
0.245
0.215
0.195
0.205
0.205
0.185
0.17
0.17
0.145
0.125
0.105
0.085
0.05
0.015
0.015
0.01
0.02
0.035
0.04
0.015
0.01
0.015
0.04
0.05
0.08
0.14
0.27
0.49
0.71
0.925
1.1
1.175
1.075
0.805
0.44
0.175
0.05
0.01
0.015
0.045
0.045
0.055
0.03
0.005
-0.01
-0.005
0.0
0.025
0.03
0.015
0.01
0.015
0.025
0.03
0.04
0.025
0.02
0.025
0.035
0.055
0.045
0.05
0.035
0.04
0.055
0.055
0.06
0.05
0.045
0.065
0.075
0.075
0.085
0.075
0.075
0.075
0.08
0.095
0.08
0.08
0.07
0.08
0.075
0.08
0.095
0.085
0.065
0.065
0.075
0.1
0.085
0.08
0.06
0.075
0.085
0.105
0.1
0.075
0.07
0.075
0.1
0.105
0.105
0.09
0.08
0.08
0.09
0.1
0.095
0.095
0.065
0.085
0.105
0.12
0.115
0.09
0.095
0.1
0.13
0.145
0.15
0.18
0.175
0.195
0.18
0.18
0.135
0.11
0.08
0.075
0.065
0.09
0.08
0.08
0.055
0.05
0.07
0.07
0.035
-0.01
-0.02
-0.03
-0.045
-0.04
-0.045
-0.055
-0.085
-0.075
-0.085
-0.08
-0.07
-0.09
-0.105
-0.09
-0.09
-0.055
-0.06
-0.07
-0.095
-0.08
-0.055
-0.035
-0.035
-0.04
-0.05
-0.04
-0.03
-0.02
-0.035
-0.045
-0.055
-0.05
-0.025
-0.025
-0.005
-0.01
-0.03
-0.03
-0.015
0.005
0.015
0.01
-0.005
-0.005
0.005
0.02
0.0
-0.03
-0.075
-0.13
-0.17
-0.165
-0.115
-0.015
0.11
0.3
0.53
0.785
1.03
1.16
1.13
0.92
0.63
0.37
0.215
0.17
0.16
0.155
0.145
0.135
0.105
0.08
0.075
0.08
0.1
0.095
0.095
0.075
0.055
0.065
0.075
0.055
0.045
0.055
0.05
0.07
0.08
0.08
0.055
0.02
0.005
0.0
0.005
0.005
-0.015
-0.035
-0.03
-0.03
-0.015
-0.015
-0.03
-0.03
-0.035
-0.035
-0.025
-0.025
-0.045
-0.065
-0.06
-0.08
-0.065
-0.055
-0.06
-0.065
-0.09
-0.07
-0.045
-0.035
-0.05
-0.05
-0.08
-0.075
-0.06
-0.045
-0.06
-0.07
-0.105
-0.085
-0.06
-0.055
-0.055
-0.065
-0.085
-0.08
-0.08
-0.08
-0.08
-0.11
-0.11
-0.115
-0.105
-0.095
-0.115
-0.115
-0.135
-0.135
-0.125
-0.1
-0.105
-0.125
-0.1
-0.07
-0.06
-0.035
-0.04
-0.07
-0.08
-0.075
-0.055
-0.035
-0.045
-0.01
-0.02
-0.005
-0.005
0.01
-0.015
-0.015
-0.03
-0.03
-0.025
-0.025
-0.045
-0.06
-0.065
-0.045
-0.025
-0.005
0.005
-0.005
0.01
0.015
0.025
0.04
0.03
0.015
0.02
0.02
0.04
0.04
0.025
0.015
-0.01
-0.005
-0.01
-0.005
-0.01
-0.02
-0.045
-0.045
-0.065
-0.035
-0.03
-0.03
-0.04
-0.035
-0.02
-0.015
-0.025
-0.02
-0.02
-0.03
-0.02
-0.01
-0.02
-0.035
-0.045
-0.04
-0.02
-0.015
-0.01
-0.025
-0.035
-0.035
-0.025
-0.01
-0.035
-0.03
-0.025
-0.025
-0.01
0.0
-0.005
-0.005
-0.015
0.0
-0.005
0.0
0.005
-0.005
0.005
0.005
0.005
0.015
0.01
0.0
-0.005
0.0
0.025
0.03
0.025
0.0
-0.005
0.005
0.02
0.04
0.025
0.015
0.005
0.005
0.0
0.035
0.035
0.02
0.01
0.01
0.01
0.04
0.045
0.03
0.015
0.015
0.03
0.035
0.05
0.035
0.02
0.035
0.045
0.035
0.02
0.025
0.01
0.03
0.045
0.065
0.055
0.03
0.015
0.02
0.035
0.05
0.05
0.035
0.02
0.03
0.04
0.05
0.04
0.03
0.025
0.04
0.045
0.055
0.055
0.045
0.04
0.025
0.045
0.045
0.05
0.045
0.03
0.035
0.04
0.045
0.04
0.035
0.035
0.035
0.045
0.065
0.06
0.045
0.025
0.015
0.045
0.055
0.045
0.035
0.02
0.04
0.055
0.07
0.07
0.05
0.05
0.04
0.035
0.02
-0.01
-0.015
0.045
0.17
0.375
0.615
0.825
0.97
1.005
0.905
0.67
0.355
0.11
-0.03
-0.085
-0.08
-0.045
-0.015
-0.04
-0.07
-0.075
-0.05
-0.02
-0.01
-0.01
-0.03
-0.03
0.005
0.035
0.04
0.035
0.005
0.02
0.035
0.05
0.06
0.05
0.03
0.01
0.02
0.025
0.04
0.035
0.02
0.01
0.035
0.05
0.05
0.025
0.02
0.015
0.03
0.045
0.055
0.045
0.04
0.04
0.035
0.05
0.065
0.07
0.07
0.04
0.04
0.06
0.08
0.09
0.07
0.045
0.045
0.05
0.075
0.065
0.065
0.065
0.07
0.06
0.085
0.075
0.055
0.045
0.06
0.075
0.08
0.08
0.07
0.045
0.05
0.075
0.075
0.08
0.065
0.055
0.055
0.06
0.075
0.055
0.04
0.04
0.02
0.02
0.025
0.01
-0.01
-0.02
-0.015
0.0
-0.005
-0.02
-0.04
-0.055
-0.07
-0.06
-0.055
-0.05
-0.08
-0.11
-0.105
-0.1
-0.1
-0.115
-0.14
-0.16
-0.14
-0.14
-0.13
-0.14
-0.17
-0.18
-0.17
-0.155
-0.135
-0.145
-0.155
-0.18
-0.175
-0.17
-0.145
-0.145
-0.165
-0.17
-0.15
-0.145
-0.135
-0.15
-0.17
-0.185
-0.18
-0.165
-0.16
-0.17
-0.175
-0.17
-0.18
-0.15
-0.14
-0.145
-0.165
-0.19
-0.17
-0.155
-0.135
-0.14
-0.145
-0.155
-0.155
-0.16
-0.14
-0.14
-0.16
-0.19
-0.19
-0.18
-0.18
-0.165
-0.175
-0.19
-0.18
-0.17
-0.165
-0.17
-0.2
-0.19
-0.185
-0.18
-0.165
-0.165
-0.17
-0.175
-0.19
-0.175
-0.175
-0.2
-0.22
-0.2
-0.185
-0.165
-0.17
-0.175
-0.195
-0.22
-0.225
-0.195
-0.185
-0.185
-0.195
-0.2
-0.2
-0.195
-0.18
-0.2
-0.205
-0.21
-0.22
-0.205
-0.195
-0.195
-0.205
-0.205
-0.19
-0.185
-0.205
-0.21
-0.245
-0.255
-0.245
-0.22
-0.21
-0.22
-0.24
-0.245
-0.255
-0.245
-0.225
-0.215
-0.235
-0.255
-0.255
-0.245
-0.22
-0.225
-0.255
-0.26
-0.255
-0.255
-0.24
-0.245
-0.245
-0.26
-0.24
-0.235
-0.22
-0.23
-0.25
-0.24
-0.22
-0.205
-0.21
-0.225
-0.245
-0.25
-0.25
-0.245
-0.25
-0.255
-0.24
-0.235
-0.23
-0.215
-0.21
-0.24
-0.25
-0.26
-0.27
-0.245
-0.225
-0.235
-0.265
-0.275
-0.265
-0.235
-0.215
-0.21
-0.225
-0.225
-0.245
-0.245
-0.245
-0.235
-0.245
-0.255
-0.26
-0.24
-0.235
-0.25
-0.27
-0.275
-0.265
-0.255
-0.24
-0.24
-0.27
-0.275
-0.245
-0.22
-0.22
-0.23
-0.24
-0.24
-0.225
-0.245
-0.235
-0.245
-0.24
-0.275
-0.265
-0.26
-0.24
-0.225
-0.24
-0.24
-0.235
-0.245
-0.24
-0.235
-0.255
-0.27
-0.26
-0.26
-0.25
-0.24
-0.255
-0.25
-0.23
-0.225
-0.215
-0.23
-0.24
-0.245
-0.245
-0.235
-0.22
-0.24
-0.245
-0.245
-0.245
-0.235
-0.225
-0.225
-0.23
-0.245
-0.23
-0.215
-0.205
-0.225
-0.22
-0.215
-0.225
-0.205
-0.195
-0.225
-0.235
-0.245
-0.225
-0.19
-0.18
-0.19
-0.205
-0.24
-0.21
-0.195
-0.185
-0.185
-0.2
-0.225
-0.205
-0.195
-0.17
-0.17
-0.19
-0.185
-0.17
-0.16
-0.135
-0.14
-0.15
-0.17
-0.175
-0.165
-0.15
-0.15
-0.165
-0.17
-0.13
-0.115
-0.11
-0.115
-0.125
-0.13
-0.12
-0.105
-0.09
-0.105
-0.12
-0.135
-0.125
-0.125
-0.09
-0.095
-0.1
-0.12
-0.11
-0.095
-0.085
-0.085
-0.085
-0.085
-0.095
-0.085
-0.065
-0.075
-0.07
-0.07
-0.055
-0.055
-0.06
-0.05
-0.05
-0.06
-0.045
-0.045
-0.045
-0.04
-0.04
-0.05
-0.025
-0.025
-0.01
-0.005
-0.04
-0.045
-0.04
-0.02
0.01
0.015
-0.01
-0.02
-0.03
-0.005
0.025
0.025
0.01
0.0
0.005
0.01
0.035
0.02
0.015
0.0
0.01
0.025
0.04
0.025
0.03
0.01
-0.005
0.005
0.065
0.17
0.335
0.565
0.84
1.07
1.235
1.235
1.08
0.79
0.46
0.22
0.105
0.095
0.12
0.135
0.15
0.14
0.105
0.085
0.04
0.005
-0.005
-0.025
-0.005
-0.01
-0.025
-0.04
-0.035
-0.035
-0.01
-0.005
-0.01
-0.015
-0.02
-0.015
0.015
-0.005
-0.005
-0.01
-0.015
0.01
0.015
0.02
0.015
0.0
0.0
0.01
0.025
0.015
0.01
0.0
0.025
0.03
0.05
0.04
0.02
0.025
0.035
0.055
0.045
0.045
0.03
0.03
0.05
0.05
0.06
0.05
0.035
0.025
0.015
0.03
0.05
0.045
0.035
0.03
0.03
0.045
0.065
0.045
0.05
0.035
0.04
0.035
0.05
0.045
0.03
0.05
0.04
0.065
0.065
0.055
0.045
0.02
0.04
0.055
0.05
0.05
0.03
0.005
0.005
0.02
0.025
0.005
0.005
-0.03
-0.025
-0.015
-0.005
-0.005
-0.025
-0.035
-0.03
-0.01
-0.02
-0.025
-0.045
-0.055
-0.065
-0.03
-0.025
-0.035
-0.055
-0.06
-0.07
-0.025
0.0
0.005
0.015
0.02
0.05
0.09
0.12
0.115
0.11
0.1
0.1
0.095
0.095
0.08
0.055
0.05
0.055
0.06
0.09
0.085
0.1
0.08
0.055
0.025
0.04
0.045
0.05
0.015
0.0
0.01
0.04
0.03
0.01
0.015
0.005
0.015
0.015
0.005
0.01
0.0
0.015
0.015
0.02
0.015
0.01
0.02
0.015
0.03
0.035
0.025
0.015
0.02
0.025
0.055
0.035
0.05
0.025
0.02
0.045
0.065
0.065
0.055
0.005
-0.02
-0.03
0.015
0.155
0.365
0.61
0.84
1.0
0.975
0.675
0.225
-0.11
-0.205
-0.155
-0.03
0.04
0.045
0.06
0.03
0.045
0.065
0.095
0.1
0.085
0.09
0.11
0.145
0.18
0.17
0.18
0.16
0.14
0.145
0.155
0.15
0.125
0.105
0.105
0.115
0.11
0.08
0.055
0.04
0.045
0.05
0.075
0.06
0.045
0.04
0.055
0.06
0.065
0.065
0.025
0.03
0.03
0.05
0.055
0.055
0.03
0.01
0.0
0.01
0.03
0.035
0.02
0.01
0.02
0.025
0.045
0.035
0.03
0.025
0.01
0.02
0.02
0.0
-0.005
-0.015
-0.02
-0.01
0.005
-0.015
-0.04
-0.045
-0.03
-0.025
-0.015
-0.04
-0.07
-0.085
-0.085
-0.07
-0.075
-0.08
-0.1
-0.13
-0.1
-0.09
-0.08
-0.08
-0.075
-0.075
-0.06
-0.045
-0.025
-0.005
0.005
0.015
0.02
0.03
0.05
0.03
0.015
0.015
0.03
0.035
0.05
0.04
0.04
0.015
0.005
-0.005
0.015
0.005
-0.005
-0.03
-0.005
0.0
0.01
0.02
0.015
0.02
0.015
0.015
0.015
0.02
0.015
0.005
0.0
0.0
0.005
-0.005
-0.01
-0.025
-0.03
-0.035
-0.035
-0.04
-0.055
-0.075
-0.055
-0.045
-0.035
-0.055
-0.07
-0.07
-0.06
-0.055
-0.04
-0.05
-0.06
-0.055
-0.05
-0.05
-0.045
-0.05
-0.06
-0.055
-0.045
-0.045
-0.035
-0.055
-0.04
-0.07
-0.03
-0.03
-0.01
-0.025
-0.035
-0.045
-0.04
-0.02
-0.005
-0.025
-0.045
-0.055
-0.035
-0.01
0.015
0.005
-0.005
-0.02
-0.015
-0.005
0.015
0.015
-0.01
0.01
0.015
0.025
0.04
0.02
-0.015
0.0
0.005
0.02
0.05
0.025
0.01
-0.005
0.01
0.025
0.04
0.04
0.035
0.01
0.015
0.03
0.045
0.045
0.015
0.015
0.015
0.04
0.05
0.05
0.05
0.04
0.05
0.05
0.055
0.055
0.035
0.025
0.03
0.045
0.035
0.04
0.03
0.03
0.035
0.04
0.06
0.04
0.035
0.035
0.04
0.045
0.05
0.05
0.03
0.025
0.045
0.04
0.045
0.04
0.03
0.02
0.03
0.035
0.05
0.05
0.035
0.01
0.005
0.025
0.045
0.04
0.025
0.025
0.02
0.045
0.035
0.02
0.005
0.025
0.015
0.04
0.045
0.05
0.03
0.005
0.02
0.04
0.045
0.025
0.02
0.005
0.015
0.02
0.045
0.025
0.025
0.01
-0.01
0.005
0.035
0.025
0.015
0.01
0.015
0.015
0.015
0.02
0.01
0.0
0.01
0.015
0.035
0.015
0.015
0.015
0.015
0.025
0.035
0.03
0.02
0.0
0.015
0.03
0.035
0.02
0.01
0.005
0.01
0.02
0.035
0.02
-0.005
-0.02
0.005
0.015
0.015
0.005
-0.005
-0.005
-0.005
-0.005
0.01
0.005
-0.005
-0.01
-0.02
-0.015
-0.01
-0.005
-0.01
-0.025
-0.025
-0.02
-0.01
-0.02
-0.03
-0.025
-0.02
-0.035
-0.02
-0.02
-0.03
-0.035
-0.035
-0.055
-0.04
-0.055
-0.05
-0.06
-0.07
-0.04
-0.04
-0.03
-0.06
-0.06
-0.07
-0.055
-0.03
-0.045
-0.045
-0.07
-0.07
-0.04
-0.035
-0.045
-0.07
-0.085
-0.075
-0.05
-0.045
-0.05
-0.06
-0.075
-0.065
-0.065
-0.055
-0.055
-0.065
-0.065
-0.055
-0.065
-0.06
-0.075
-0.075
-0.095
-0.085
-0.08
-0.07
-0.085
-0.085
-0.09
-0.09
-0.06
-0.06
-0.06
-0.075
-0.075
-0.07
-0.06
-0.05
-0.07
-0.085
-0.1
-0.085
-0.065
-0.065
-0.075
-0.09
-0.1
-0.09
-0.065
-0.055
-0.075
-0.09
-0.09
-0.085
-0.065
-0.055
-0.07
-0.08
-0.11
-0.1
-0.08
-0.075
-0.08
-0.09
-0.1
-0.09
-0.08
-0.065
-0.08
-0.105
-0.1
-0.095
-0.08
-0.06
-0.07
-0.095
-0.09
-0.095
-0.075
-0.055
-0.075
-0.09
-0.115
-0.095
-0.085
-0.075
-0.065
-0.1
-0.085
-0.08
-0.085
-0.06
-0.055
-0.065
-0.065
-0.045
-0.04
-0.03
-0.035
-0.055
-0.055
-0.065
-0.07
-0.055
-0.035
0.085
0.245
0.45
0.66
0.86
1.01
1.1
1.045
0.825
0.48
0.17
0.0
-0.055
-0.04
-0.015
-0.02
-0.025
-0.045
-0.07
-0.105
-0.12
-0.1
-0.05
-0.05
-0.065
-0.07
-0.075
-0.075
-0.065
-0.085
-0.09
-0.105
-0.11
-0.095
-0.08
-0.085
-0.09
-0.1
-0.075
-0.08
-0.07
-0.095
-0.1
-0.1
-0.095
-0.085
-0.065
-0.07
-0.065
-0.085
-0.08
-0.055
-0.05
-0.05
-0.075
-0.095
-0.09
-0.065
-0.055
-0.05
-0.075
-0.07
-0.05
-0.03
-0.03
-0.04
-0.045
-0.035
-0.03
-0.015
0.01
0.02
0.015
0.005
0.015
0.04
0.055
0.05
0.03
0.0
-0.01
0.0
0.015
0.005
-0.025
-0.06
-0.07
-0.08
-0.095
-0.115
-0.12
-0.125
-0.125
-0.1
-0.095
-0.105
-0.135
-0.16
-0.15
-0.15
-0.145
-0.155
-0.18
-0.19
-0.19
-0.18
-0.17
-0.175
-0.18
-0.195
-0.205
-0.21
-0.19
-0.195
-0.195
-0.205
-0.21
-0.195
-0.195
-0.225
-0.235
-0.255
-0.255
-0.225
-0.21
-0.22
-0.22
-0.235
-0.215
-0.2
-0.2
-0.21
-0.21
-0.215
-0.21
-0.19
-0.185
-0.19
-0.21
-0.21
-0.195
-0.185
-0.165
-0.165
-0.175
-0.18
-0.165
-0.15
-0.145
-0.14
-0.17
-0.17
-0.165
-0.15
-0.135
-0.13
-0.14
-0.165
-0.15
-0.125
-0.125
-0.115
-0.125
-0.135
-0.13
-0.11
-0.1
-0.105
-0.125
-0.14
-0.13
-0.11
-0.1
-0.095
-0.12
-0.12
-0.125
-0.115
-0.09
-0.08
-0.1
-0.11
-0.1
-0.09
-0.075
-0.09
-0.085
-0.08
-0.07
-0.065
-0.06
-0.075
-0.055
-0.04
0.0
0.04
0.07
0.065
0.065
0.055
0.07
0.065
0.035
0.0
-0.025
-0.035
-0.025
0.0
0.025
0.015
-0.025
-0.065
-0.065
-0.05
-0.055
-0.075
-0.095
-0.11
-0.115
-0.115
-0.1
-0.09
-0.095
-0.125
-0.125
-0.1
-0.08
-0.09
-0.095
-0.12
-0.125
-0.11
-0.085
-0.075
-0.075
-0.095
-0.1
-0.085
-0.065
-0.06
-0.075
-0.09
-0.105
-0.11
-0.15
-0.19
-0.2
-0.125
0.01
0.225
0.45
0.67
0.765
0.705
0.435
0.085
-0.15
-0.27
-0.265
-0.215
-0.135
-0.065
-0.05
-0.075
-0.11
-0.12
-0.12
-0.085
-0.095
-0.1
-0.105
-0.11
-0.095
-0.07
-0.07
-0.065
-0.065
-0.07
-0.055
-0.025
-0.005
0.005
0.01
0.025
0.04
0.035
0.04
0.02
-0.015
-0.03
-0.025
-0.015
-0.025
-0.025
-0.06
-0.09
-0.105
-0.12
-0.115
-0.115
-0.135
-0.13
-0.12
-0.115
-0.1
-0.105
-0.125
-0.135
-0.145
-0.16
-0.175
-0.17
-0.18
-0.185
-0.2
-0.2
-0.215
-0.225
-0.235
-0.225
-0.235
-0.22
-0.22
-0.235
-0.245
-0.25
-0.265
-0.25
-0.255
-0.265
-0.285
-0.3
-0.3
-0.295
-0.29
-0.305
-0.335
-0.355
-0.355
-0.335
-0.33
-0.335
-0.345
-0.365
-0.345
-0.325
-0.325
-0.335
-0.34
-0.345
-0.315
-0.3
-0.29
-0.275
-0.27
-0.265
-0.23
-0.19
-0.165
-0.15
-0.15
-0.14
-0.14
-0.155
-0.15
-0.165
-0.145
-0.14
-0.13
-0.12
-0.125
-0.145
-0.165
-0.155
-0.15
-0.15
-0.155
-0.14
-0.14
-0.14
-0.14
-0.125
-0.105
-0.1
-0.125
-0.13
-0.12
-0.115
-0.105
-0.12
-0.135
-0.145
-0.16
-0.14
-0.14
-0.13
-0.13
-0.15
-0.155
-0.16
-0.165
-0.17
-0.19
-0.205
-0.205
-0.19
-0.2
-0.195
-0.2
-0.2
-0.2
-0.19
-0.185
-0.19
-0.205
-0.225
-0.21
-0.21
-0.195
-0.185
-0.18
-0.19
-0.19
-0.19
-0.185
-0.195
-0.2
-0.195
-0.185
-0.16
-0.16
-0.16
-0.18
-0.18
-0.16
-0.15
-0.135
-0.16
-0.165
-0.18
-0.17
-0.155
-0.145
-0.145
-0.16
-0.145
-0.15
-0.13
-0.125
-0.13
-0.145
-0.145
-0.145
-0.12
-0.13
-0.135
-0.14
-0.135
-0.13
-0.14
-0.125
-0.145
-0.145
-0.14
-0.125
-0.125
-0.115
-0.125
-0.115
-0.11
-0.12
-0.105
-0.095
-0.1
-0.1
-0.1
-0.095
-0.105
-0.105
-0.12
-0.14
-0.16
-0.15
-0.13
-0.115
-0.115
-0.13
-0.135
-0.12
-0.095
