Lead II
-0.795
-0.79
-0.795
-0.795
-0.815
-0.8
-0.795
-0.79
-0.77
-0.765
-0.775
-0.78
-0.78
-0.785
-0.805
-0.79
-0.795
-0.8
-0.78
-0.77
-0.77
-0.765
-0.755
-0.76
-0.76
-0.765
-0.765
-0.77
-0.785
-0.8
-0.77
-0.79
-0.755
-0.745
-0.745
-0.75
-0.765
-0.765
-0.76
-0.765
-0.755
-0.76
-0.76
-0.76
-0.76
-0.76
-0.75
-0.76
-0.75
-0.76
-0.755
-0.76
-0.775
-0.77
-0.765
-0.77
-0.75
-0.75
-0.74
-0.75
-0.745
-0.755
-0.755
-0.775
-0.775
-0.77
-0.76
-0.74
-0.745
-0.74
-0.735
-0.74
-0.755
-0.75
-0.755
-0.76
-0.765
-0.765
-0.755
-0.765
-0.74
-0.745
-0.73
-0.73
-0.745
-0.745
-0.74
-0.74
-0.745
-0.755
-0.745
-0.745
-0.73
-0.72
-0.72
-0.715
-0.73
-0.725
-0.73
-0.735
-0.74
-0.735
-0.73
-0.725
-0.725
-0.705
-0.705
-0.685
-0.7
-0.715
-0.715
-0.73
-0.735
-0.74
-0.72
-0.7
-0.685
-0.66
-0.65
-0.655
-0.645
-0.655
-0.65
-0.66
-0.67
-0.68
-0.695
-0.705
-0.695
-0.69
-0.68
-0.68
-0.695
-0.705
-0.685
-0.69
-0.665
-0.66
-0.66
-0.64
-0.64
-0.63
-0.63
-0.645
-0.66
-0.685
-0.72
-0.73
-0.75
-0.76
-0.76
-0.75
-0.745
-0.735
-0.725
-0.72
-0.73
-0.735
-0.745
-0.75
-0.77
-0.775
-0.79
-0.765
-0.735
-0.635
-0.535
-0.435
-0.35
-0.285
-0.245
-0.245
-0.28
-0.405
-0.565
-0.72
-0.805
-0.79
-0.685
-0.475
-0.23
0.035
0.29
0.54
0.765
0.995
1.21
1.41
1.565
1.65
1.675
1.62
1.51
1.355
1.16
0.925
0.675
0.46
0.255
0.065
-0.115
-0.305
-0.48
-0.66
-0.815
-0.925
-1.005
-1.03
-1.035
-1.005
-0.97
-0.95
-0.92
-0.885
-0.855
-0.85
-0.845
-0.835
-0.84
-0.835
-0.845
-0.855
-0.865
-0.855
-0.84
-0.835
-0.83
-0.82
-0.835
-0.835
-0.845
-0.855
-0.85
-0.855
-0.865
-0.855
-0.84
-0.85
-0.835
-0.83
-0.84
-0.83
-0.855
-0.85
-0.865
-0.87
-0.875
-0.875
-0.875
-0.86
-0.85
-0.855
-0.85
-0.85
-0.865
-0.865
-0.885
-0.89
-0.89
-0.895
-0.885
-0.89
-0.88
-0.885
-0.89
-0.9
-0.92
-0.91
-0.92
-0.925
-0.925
-0.94
-0.925
-0.92
-0.915
-0.92
-0.92
-0.935
-0.96
-0.965
-0.975
-0.975
-0.98
-0.98
-0.995
-0.97
-0.98
-0.98
-0.985
-0.995
-1.005
-1.01
-1.025
-1.025
-1.025
-1.03
-1.02
-1.035
-1.01
-1.015
-1.015
-1.0
-0.995
-0.995
-0.98
-1.0
-0.985
-0.955
-0.94
-0.93
-0.9
-0.885
-0.88
-0.87
-0.855
-0.845
-0.83
-0.815
-0.8
-0.775
-0.76
-0.74
-0.715
-0.715
-0.71
-0.685
-0.68
-0.665
-0.665
-0.64
-0.645
-0.635
-0.605
-0.6
-0.585
-0.58
-0.59
-0.59
-0.605
-0.605
-0.605
-0.62
-0.625
-0.625
-0.635
-0.64
-0.635
-0.655
-0.66
-0.68
-0.695
-0.71
-0.73
-0.73
-0.755
-0.76
-0.76
-0.765
-0.755
-0.765
-0.78
-0.785
-0.805
-0.81
-0.81
-0.83
-0.82
-0.81
-0.8
-0.815
-0.805
-0.81
-0.805
-0.81
-0.815
-0.815
-0.815
-0.815
-0.81
-0.805
-0.795
-0.815
-0.785
-0.785
-0.79
-0.79
-0.785
-0.795
-0.785
-0.79
-0.78
-0.78
-0.765
-0.76
-0.76
-0.76
-0.76
-0.755
-0.755
-0.765
-0.755
-0.775
-0.77
-0.765
-0.76
-0.745
-0.735
-0.735
-0.745
-0.75
-0.755
-0.76
-0.765
-0.765
-0.765
-0.75
-0.74
-0.72
-0.73
-0.745
-0.735
-0.73
-0.745
-0.735
-0.74
-0.74
-0.755
-0.73
-0.72
-0.725
-0.715
-0.715
-0.715
-0.725
-0.75
-0.735
-0.735
-0.725
-0.72
-0.725
-0.715
-0.705
-0.705
-0.715
-0.71
-0.725
-0.73
-0.735
-0.74
-0.725
-0.725
-0.72
-0.71
-0.705
-0.7
-0.705
-0.71
-0.71
-0.715
-0.73
-0.715
-0.725
-0.725
-0.715
-0.705
-0.695
-0.695
-0.7
-0.69
-0.705
-0.71
-0.715
-0.72
-0.73
-0.72
-0.71
-0.71
-0.695
-0.695
-0.69
-0.7
-0.7
-0.71
-0.71
-0.72
-0.72
-0.72
-0.715
-0.7
-0.695
-0.7
-0.705
-0.695
-0.69
-0.7
-0.715
-0.71
-0.715
-0.72
-0.705
-0.705
-0.695
-0.695
-0.685
-0.685
-0.695
-0.705
-0.71
-0.72
-0.72
-0.72
-0.715
-0.7
-0.69
-0.695
-0.675
-0.69
-0.69
-0.7
-0.7
-0.715
-0.71
-0.71
-0.705
-0.685
-0.695
-0.695
-0.69
-0.695
-0.685
-0.705
-0.71
-0.72
-0.705
-0.71
-0.7
-0.71
-0.705
-0.695
-0.695
-0.69
-0.685
-0.705
-0.695
-0.705
-0.705
-0.71
-0.715
-0.7
-0.695
-0.695
-0.68
-0.665
-0.665
-0.68
-0.69
-0.7
-0.695
-0.69
-0.69
-0.665
-0.645
-0.615
-0.61
-0.605
-0.62
-0.62
-0.625
-0.635
-0.645
-0.655
-0.66
-0.675
-0.665
-0.655
-0.66
-0.655
-0.66
-0.655
-0.65
-0.645
-0.63
-0.62
-0.605
-0.61
-0.605
-0.615
-0.64
-0.67
-0.685
-0.705
-0.715
-0.725
-0.73
-0.73
-0.74
-0.73
-0.72
-0.71
-0.72
-0.72
-0.72
-0.73
-0.75
-0.765
-0.76
-0.725
-0.65
-0.535
-0.425
-0.34
-0.265
-0.225
-0.23
-0.305
-0.425
-0.595
-0.735
-0.8
-0.74
-0.565
-0.325
-0.02
0.285
0.58
0.875
1.14
1.345
1.55
1.67
1.71
1.695
1.6
1.475
1.28
1.045
0.78
0.535
0.285
0.04
-0.21
-0.47
-0.69
-0.87
-0.995
-1.05
-1.065
-1.04
-1.02
-0.995
-0.975
-0.95
-0.925
-0.91
-0.89
-0.88
-0.86
-0.84
-0.84
-0.84
-0.855
-0.87
-0.87
-0.875
-0.88
-0.885
-0.875
-0.865
-0.865
-0.855
-0.845
-0.85
-0.85
-0.85
-0.86
-0.88
-0.89
-0.885
-0.88
-0.865
-0.88
-0.87
-0.855
-0.86
-0.855
-0.875
-0.89
-0.885
-0.9
-0.905
-0.905
-0.9
-0.895
-0.895
-0.905
-0.9
-0.915
-0.92
-0.925
-0.93
-0.935
-0.94
-0.94
-0.95
-0.955
-0.95
-0.955
-0.955
-0.97
-0.98
-0.985
-0.995
-1.01
-1.015
-1.005
-1.01
-1.01
-1.01
-1.005
-1.005
-1.005
-1.02
-1.02
-1.02
-1.03
-1.04
-1.03
-1.02
-1.025
-1.02
-1.0
-0.99
-0.99
-0.975
-0.96
-0.96
-0.95
-0.94
-0.915
-0.905
-0.88
-0.855
-0.84
-0.83
-0.805
-0.79
-0.79
-0.775
-0.75
-0.735
-0.715
-0.705
-0.685
-0.67
-0.645
-0.64
-0.63
-0.635
-0.645
-0.65
-0.65
-0.66
-0.66
-0.67
-0.685
-0.685
-0.685
-0.695
-0.705
-0.725
-0.745
-0.75
-0.785
-0.805
-0.82
-0.825
-0.85
-0.84
-0.84
-0.85
-0.85
-0.87
-0.865
-0.885
-0.905
-0.91
-0.915
-0.905
-0.91
-0.91
-0.905
-0.9
-0.895
-0.895
-0.905
-0.91
-0.93
-0.905
-0.915
-0.915
-0.9
-0.89
-0.875
-0.885
-0.87
-0.88
-0.88
-0.885
-0.88
-0.88
-0.875
-0.87
-0.875
-0.88
-0.855
-0.84
-0.83
-0.84
-0.84
-0.85
-0.84
-0.83
-0.835
-0.83
-0.825
-0.82
-0.82
-0.815
-0.81
-0.81
-0.815
-0.825
-0.82
-0.82
-0.815
-0.815
-0.805
-0.8
-0.79
-0.79
-0.79
-0.79
-0.79
-0.8
-0.815
-0.81
-0.8
-0.805
-0.795
-0.78
-0.77
-0.775
-0.77
-0.77
-0.775
-0.785
-0.795
-0.8
-0.8
-0.78
-0.785
-0.785
-0.785
-0.78
-0.775
-0.78
-0.78
-0.785
-0.795
-0.8
-0.785
-0.78
-0.77
-0.775
-0.77
-0.77
-0.77
-0.775
-0.775
-0.78
-0.79
-0.79
-0.785
-0.785
-0.775
-0.77
-0.77
-0.765
-0.765
-0.765
-0.775
-0.78
-0.79
-0.79
-0.785
-0.79
-0.78
-0.77
-0.765
-0.76
-0.77
-0.765
-0.78
-0.785
-0.78
-0.775
-0.79
-0.78
-0.775
-0.77
-0.77
-0.76
-0.765
-0.755
-0.765
-0.77
-0.78
-0.785
-0.785
-0.77
-0.77
-0.76
-0.755
-0.745
-0.765
-0.765
-0.75
-0.77
-0.775
-0.77
-0.77
-0.78
-0.77
-0.76
-0.755
-0.74
-0.75
-0.75
-0.76
-0.765
-0.775
-0.785
-0.775
-0.765
-0.76
-0.76
-0.765
-0.75
-0.735
-0.755
-0.765
-0.77
-0.765
-0.775
-0.77
-0.78
-0.77
-0.77
-0.755
-0.75
-0.76
-0.755
-0.765
-0.76
-0.765
-0.76
-0.76
-0.745
-0.74
-0.745
-0.725
-0.72
-0.725
-0.73
-0.745
-0.74
-0.735
-0.735
-0.725
-0.71
-0.695
-0.675
-0.68
-0.67
-0.67
-0.685
-0.715
-0.72
-0.73
-0.735
-0.74
-0.75
-0.735
-0.72
-0.715
-0.685
-0.67
-0.65
-0.65
-0.655
-0.675
-0.69
-0.715
-0.73
-0.75
-0.755
-0.76
-0.755
-0.775
-0.78
-0.775
-0.775
-0.79
-0.79
-0.795
-0.79
-0.795
-0.795
-0.8
-0.795
-0.77
-0.71
-0.61
-0.5
-0.405
-0.325
-0.29
-0.32
-0.43
-0.595
-0.75
-0.835
-0.8
-0.62
-0.35
-0.035
0.285
0.585
0.88
1.135
1.36
1.51
1.595
1.61
1.55
1.43
1.26
1.035
0.79
0.525
0.285
0.055
-0.18
-0.405
-0.64
-0.835
-0.975
-1.06
-1.095
-1.09
-1.075
-1.04
-1.01
-0.965
-0.955
-0.925
-0.905
-0.89
-0.88
-0.895
-0.89
-0.9
-0.895
-0.915
-0.93
-0.925
-0.925
-0.91
-0.905
-0.89
-0.89
-0.88
-0.895
-0.905
-0.92
-0.92
-0.915
-0.905
-0.905
-0.91
-0.905
-0.89
-0.89
-0.89
-0.905
-0.91
-0.925
-0.93
-0.935
-0.935
-0.93
-0.935
-0.925
-0.93
-0.935
-0.945
-0.945
-0.97
-0.98
-0.985
-0.985
-0.98
-0.98
-0.975
-0.985
-0.975
-0.985
-0.99
-1.005
-1.015
-1.02
-1.025
-1.04
-1.045
-1.045
-1.04
-1.035
-1.035
-1.045
-1.05
-1.07
-1.07
-1.09
-1.09
-1.095
-1.1
-1.115
-1.105
-1.105
-1.09
-1.08
-1.09
-1.11
-1.105
-1.105
-1.12
-1.11
-1.105
-1.09
-1.07
-1.06
-1.045
-1.03
-1.025
-1.03
-1.025
-1.015
-1.005
-0.99
-0.98
-0.955
-0.935
-0.925
-0.9
-0.87
-0.84
-0.825
-0.805
-0.8
-0.785
-0.76
-0.75
-0.74
-0.715
-0.705
-0.685
-0.69
-0.68
-0.675
-0.675
-0.7
-0.685
-0.7
-0.71
-0.705
-0.71
-0.705
-0.705
-0.72
-0.74
-0.755
-0.77
-0.785
-0.795
-0.81
-0.83
-0.83
-0.835
-0.835
-0.84
-0.855
-0.86
-0.865
-0.89
-0.895
-0.91
-0.925
-0.92
-0.92
-0.92
-0.915
-0.905
-0.905
-0.91
-0.915
-0.915
-0.925
-0.925
-0.92
-0.925
-0.92
-0.915
-0.9
-0.895
-0.9
-0.895
-0.9
-0.89
-0.89
-0.89
-0.885
-0.89
-0.88
-0.875
-0.875
-0.865
-0.875
-0.855
-0.865
-0.855
-0.87
-0.875
-0.865
-0.855
-0.86
-0.845
-0.855
-0.85
-0.84
-0.835
-0.845
-0.84
-0.855
-0.845
-0.865
-0.845
-0.835
-0.82
-0.825
-0.82
-0.83
-0.82
-0.83
-0.825
-0.825
-0.835
-0.84
-0.83
-0.84
-0.835
-0.825
-0.81
-0.82
-0.815
-0.82
-0.815
-0.825
-0.83
-0.845
-0.835
-0.835
-0.825
-0.825
-0.815
-0.81
-0.81
-0.805
-0.825
-0.83
-0.835
-0.815
-0.825
-0.82
-0.815
-0.805
-0.805
-0.805
-0.825
-0.82
-0.83
-0.835
-0.83
-0.83
-0.82
-0.81
-0.805
-0.8
-0.795
-0.795
-0.805
-0.81
-0.81
-0.815
-0.815
-0.815
-0.815
-0.815
-0.81
-0.805
-0.795
-0.805
-0.82
-0.795
-0.805
-0.82
-0.815
-0.81
-0.815
-0.815
-0.8
-0.8
-0.775
-0.78
-0.785
-0.8
-0.795
-0.8
-0.8
-0.795
-0.8
-0.795
-0.8
-0.79
-0.79
-0.8
-0.79
-0.795
-0.815
-0.815
-0.815
-0.81
-0.815
-0.795
-0.795
-0.79
-0.785
-0.79
-0.79
-0.79
-0.8
-0.805
-0.81
-0.81
-0.805
-0.8
-0.79
-0.785
-0.78
-0.78
-0.795
-0.785
-0.8
-0.795
-0.8
-0.81
-0.815
-0.805
-0.79
-0.795
-0.785
-0.785
-0.8
-0.805
-0.805
-0.81
-0.805
-0.81
-0.805
-0.795
-0.77
-0.785
-0.75
-0.765
-0.78
-0.79
-0.79
-0.78
-0.77
-0.75
-0.745
-0.735
-0.73
-0.715
-0.715
-0.705
-0.725
-0.745
-0.765
-0.77
-0.77
-0.775
-0.78
-0.77
-0.76
-0.75
-0.75
-0.74
-0.735
-0.72
-0.715
-0.72
-0.73
-0.73
-0.75
-0.755
-0.775
-0.775
-0.785
-0.795
-0.81
-0.815
-0.82
-0.825
-0.84
-0.83
-0.825
-0.82
-0.83
-0.815
-0.81
-0.83
-0.845
-0.85
-0.845
-0.82
-0.745
-0.66
-0.54
-0.44
-0.355
-0.305
-0.315
-0.38
-0.535
-0.7
-0.85
-0.88
-0.75
-0.495
-0.17
0.185
0.535
0.865
1.15
1.365
1.52
1.59
1.59
1.505
1.405
1.235
1.035
0.795
0.535
0.265
0.0
-0.305
-0.575
-0.82
-1.005
-1.105
-1.165
-1.165
-1.145
-1.1
-1.06
-1.03
-1.0
-0.985
-0.96
-0.955
-0.965
-0.955
-0.955
-0.96
-0.955
-0.965
-0.96
-0.945
-0.945
-0.94
-0.95
-0.945
-0.95
-0.95
-0.96
-0.96
-0.965
-0.96
-0.935
-0.945
-0.92
-0.925
-0.94
-0.935
-0.95
-0.96
-0.96
-0.965
-0.965
-0.97
-0.965
-0.97
-0.97
-0.96
-0.965
-0.965
-0.975
-0.975
-0.985
-0.99
-0.995
-1.0
-0.985
-0.995
-0.98
-0.985
-1.0
-1.0
-1.03
-1.02
-1.03
-1.04
-1.045
-1.045
-1.045
-1.055
-1.045
-1.045
-1.045
-1.08
-1.08
-1.095
-1.085
-1.095
-1.105
-1.1
-1.09
-1.105
-1.095
-1.1
-1.095
-1.115
-1.12
-1.115
-1.125
-1.125
-1.135
-1.125
-1.11
-1.125
-1.115
-1.11
-1.105
-1.1
-1.12
-1.115
-1.11
-1.11
-1.09
-1.085
-1.07
-1.05
-1.04
-1.03
-1.015
-1.02
-1.02
-1.005
-0.985
-0.98
-0.97
-0.94
-0.91
-0.89
-0.87
-0.855
-0.855
-0.835
-0.84
-0.825
-0.815
-0.8
-0.785
-0.785
-0.775
-0.755
-0.74
-0.72
-0.74
-0.73
-0.74
-0.76
-0.77
-0.765
-0.775
-0.775
-0.765
-0.775
-0.77
-0.785
-0.8
-0.82
-0.845
-0.85
-0.885
-0.89
-0.89
-0.9
-0.895
-0.905
-0.905
-0.92
-0.93
-0.945
-0.965
-0.97
-0.985
-0.99
-0.985
-0.98
-0.98
-0.965
-0.97
-0.98
-0.98
-0.97
-0.985
-0.99
-1.005
-1.005
-0.995
-0.985
-0.985
-0.97
-0.97
-0.97
-0.965
-0.96
-0.97
-0.965
-0.96
-0.965
-0.96
-0.96
-0.945
-0.94
-0.92
-0.915
-0.92
-0.925
-0.925
-0.925
-0.94
-0.935
-0.935
-0.93
-0.92
-0.91
-0.895
-0.895
-0.895
-0.895
-0.905
-0.9
-0.91
-0.915
-0.905
-0.9
-0.89
-0.89
-0.88
-0.88
-0.875
-0.875
-0.885
-0.895
-0.905
-0.9
-0.9
-0.905
-0.885
-0.89
-0.875
-0.88
-0.855
-0.865
-0.865
-0.87
-0.88
-0.88
-0.895
-0.885
-0.88
-0.875
-0.85
-0.865
-0.85
-0.86
-0.865
-0.865
-0.875
-0.875
-0.88
-0.875
-0.87
-0.865
-0.855
-0.855
-0.85
-0.86
-0.855
-0.86
-0.865
-0.885
-0.87
-0.87
-0.875
-0.87
-0.86
-0.855
-0.85
-0.86
-0.85
-0.85
-0.875
-0.875
-0.875
-0.87
-0.865
-0.86
-0.85
-0.855
-0.85
-0.85
-0.865
-0.87
-0.88
-0.885
-0.875
-0.865
-0.855
-0.85
-0.84
-0.83
-0.835
-0.84
-0.845
-0.86
-0.86
-0.855
-0.86
-0.86
-0.85
-0.845
-0.835
-0.84
-0.83
-0.835
-0.84
-0.845
-0.85
-0.86
-0.845
-0.855
-0.845
-0.845
-0.84
-0.83
-0.83
-0.835
-0.835
-0.845
-0.855
-0.865
-0.86
-0.85
-0.84
-0.83
-0.825
-0.815
-0.82
-0.82
-0.81
-0.815
-0.83
-0.84
-0.83
-0.84
-0.835
-0.83
-0.815
-0.825
-0.81
-0.795
-0.78
-0.77
-0.775
-0.77
-0.775
-0.77
-0.775
-0.76
-0.765
-0.76
-0.785
-0.795
-0.795
-0.805
-0.83
-0.825
-0.815
-0.805
-0.79
-0.765
-0.75
-0.735
-0.75
-0.75
-0.765
-0.795
-0.825
-0.835
-0.86
-0.87
-0.875
-0.87
-0.855
-0.845
-0.86
-0.87
-0.865
-0.87
-0.885
-0.895
-0.9
-0.91
-0.885
-0.84
-0.77
-0.68
-0.56
-0.465
-0.4
-0.365
-0.385
-0.475
-0.625
-0.79
-0.9
-0.91
-0.785
-0.54
-0.25
0.065
0.365
0.65
0.91
1.15
1.35
1.49
1.57
1.59
1.54
1.445
1.305
1.14
0.92
0.675
0.44
0.2
-0.02
-0.25
-0.485
-0.715
-0.9
-1.045
-1.15
-1.19
-1.18
-1.16
-1.12
-1.08
-1.03
-1.015
-0.995
-0.99
-0.97
-0.97
-0.975
-0.98
-0.995
-1.005
-1.0
-1.0
-1.015
-1.005
-1.005
-0.995
-0.975
-0.985
-0.99
-1.0
-0.985
-0.99
-1.005
-0.995
-1.01
-0.995
-1.0
-0.99
-0.995
-0.99
-0.99
-1.0
-1.015
-1.01
-1.015
-1.02
-1.02
-1.025
-1.035
-1.025
-1.02
-1.02
-1.02
-1.03
-1.04
-1.055
-1.06
-1.07
-1.065
-1.075
-1.06
-1.065
-1.065
-1.065
-1.075
-1.075
-1.085
-1.1
-1.105
-1.12
-1.12
-1.12
-1.12
-1.12
-1.12
-1.125
-1.13
-1.14
-1.16
-1.17
-1.18
-1.165
-1.165
-1.175
-1.17
-1.16
-1.155
-1.155
-1.16
-1.17
-1.165
-1.16
-1.175
-1.165
-1.15
-1.145
-1.13
-1.11
-1.1
-1.08
-1.075
-1.065
-1.05
-1.035
-1.03
-1.015
-0.995
-0.97
-0.94
-0.925
-0.9
-0.88
-0.87
-0.86
-0.855
-0.855
-0.84
-0.835
-0.81
-0.795
-0.78
-0.755
-0.75
-0.745
-0.745
-0.755
-0.75
-0.745
-0.76
-0.775
-0.765
-0.765
-0.765
-0.78
-0.78
-0.78
-0.8
-0.815
-0.825
-0.84
-0.86
-0.865
-0.875
-0.885
-0.88
-0.885
-0.885
-0.895
-0.9
-0.91
-0.925
-0.95
-0.965
-0.96
-0.965
-0.97
-0.965
-0.96
-0.945
-0.95
-0.945
-0.945
-0.945
-0.945
-0.955
-0.955
-0.945
-0.955
-0.94
-0.935
-0.93
-0.925
-0.915
-0.915
-0.92
-0.92
-0.92
-0.915
-0.92
-0.9
-0.9
-0.885
-0.91
-0.89
-0.88
-0.885
-0.885
-0.885
-0.89
-0.89
-0.89
-0.885
-0.875
-0.87
-0.875
-0.865
-0.86
-0.855
-0.865
-0.87
-0.87
-0.885
-0.865
-0.86
-0.86
-0.855
-0.85
-0.845
-0.85
-0.85
-0.86
-0.865
-0.87
-0.87
-0.865
-0.865
-0.845
-0.84
-0.83
-0.83
-0.835
-0.83
-0.855
-0.845
-0.85
-0.86
-0.87
-0.86
-0.85
-0.83
-0.825
-0.82
-0.82
-0.835
-0.84
-0.835
-0.85
-0.845
-0.845
-0.845
-0.84
-0.835
-0.83
-0.815
-0.825
-0.83
-0.825
-0.835
-0.85
-0.85
-0.845
-0.84
-0.825
-0.825
-0.82
-0.81
-0.81
-0.815
-0.815
-0.835
-0.84
-0.85
-0.83
-0.835
-0.815
-0.825
-0.815
-0.795
-0.805
-0.81
-0.81
-0.815
-0.82
-0.825
-0.83
-0.83
-0.825
-0.815
-0.82
-0.805
-0.805
-0.8
-0.805
-0.815
-0.82
-0.805
-0.81
-0.815
-0.81
-0.8
-0.8
-0.8
-0.805
-0.8
-0.81
-0.82
-0.815
-0.82
-0.805
-0.815
-0.805
-0.8
-0.795
-0.79
-0.795
-0.805
-0.81
-0.81
-0.805
-0.82
-0.815
-0.81
-0.795
-0.795
-0.79
-0.785
-0.78
-0.785
-0.8
-0.79
-0.8
-0.8
-0.8
-0.805
-0.78
-0.79
-0.78
-0.775
-0.77
-0.77
-0.78
-0.775
-0.79
-0.785
-0.78
-0.775
-0.76
-0.755
-0.755
-0.75
-0.74
-0.745
-0.755
-0.775
-0.765
-0.765
-0.75
-0.74
-0.72
-0.705
-0.7
-0.69
-0.695
-0.71
-0.725
-0.735
-0.74
-0.75
-0.76
-0.765
-0.76
-0.745
-0.74
-0.735
-0.745
-0.74
-0.72
-0.715
-0.71
-0.69
-0.695
-0.685
-0.695
-0.695
-0.705
-0.73
-0.74
-0.76
-0.77
-0.78
-0.8
-0.815
-0.815
-0.81
-0.805
-0.8
-0.79
-0.8
-0.785
-0.785
-0.8
-0.825
-0.84
-0.845
-0.83
-0.78
-0.7
-0.595
-0.485
-0.38
-0.305
-0.275
-0.3
-0.395
-0.55
-0.715
-0.85
-0.89
-0.825
-0.635
-0.365
-0.075
0.23
0.535
0.785
1.035
1.24
1.41
1.53
1.59
1.585
1.54
1.435
1.285
1.075
0.82
0.55
0.305
0.04
-0.22
-0.485
-0.72
-0.915
-1.045
-1.115
-1.135
-1.11
-1.1
-1.06
-1.04
-1.01
-0.995
-0.98
-0.945
-0.93
-0.92
-0.92
-0.915
-0.92
-0.93
-0.935
-0.945
-0.95
-0.945
-0.945
-0.95
-0.945
-0.94
-0.925
-0.92
-0.93
-0.925
-0.93
-0.935
-0.935
-0.94
-0.935
-0.94
-0.935
-0.935
-0.945
-0.93
-0.925
-0.925
-0.935
-0.945
-0.95
-0.95
-0.955
-0.965
-0.95
-0.965
-0.96
-0.97
-0.975
-0.98
-0.975
-0.985
-0.995
-1.0
-1.02
-1.02
-1.01
-1.005
-1.005
-1.0
-1.01
-1.025
-1.02
-1.045
-1.055
-1.055
-1.055
-1.065
-1.07
-1.065
-1.065
-1.06
-1.065
-1.07
-1.085
-1.09
-1.085
-1.095
-1.1
-1.09
-1.1
-1.1
-1.09
-1.075
-1.085
-1.075
-1.075
-1.075
-1.06
-1.06
-1.055
-1.05
-1.02
-1.0
-0.98
-0.96
-0.955
-0.935
-0.92
-0.92
-0.895
-0.895
-0.87
-0.845
-0.825
-0.81
-0.785
-0.77
-0.755
-0.745
-0.74
-0.725
-0.725
-0.71
-0.71
-0.72
-0.705
-0.705
-0.7
-0.69
-0.69
-0.7
-0.705
-0.72
-0.725
-0.74
-0.765
-0.765
-0.785
-0.785
-0.79
-0.785
-0.815
-0.825
-0.835
-0.85
-0.87
-0.88
-0.89
-0.9
-0.915
-0.905
-0.915
-0.91
-0.92
-0.935
-0.935
-0.95
-0.955
-0.96
-0.955
-0.96
-0.955
-0.94
-0.935
-0.93
-0.94
-0.93
-0.935
-0.94
-0.94
-0.945
-0.935
-0.94
-0.93
-0.91
-0.9
-0.9
-0.895
-0.89
-0.89
-0.895
-0.895
-0.895
-0.895
-0.89
-0.88
-0.88
-0.88
-0.855
-0.855
-0.86
-0.87
-0.87
-0.87
-0.86
-0.88
-0.87
-0.855
-0.845
-0.835
-0.835
-0.835
-0.84
-0.85
-0.865
-0.855
-0.845
-0.855
-0.845
-0.845
-0.84
-0.835
-0.815
-0.825
-0.83
-0.845
-0.85
-0.845
-0.86
-0.86
-0.85
-0.835
-0.825
-0.815
-0.805
-0.81
-0.825
-0.825
-0.825
-0.83
-0.835
-0.825
-0.83
-0.84
-0.83
-0.825
-0.81
-0.81
-0.81
-0.81
-0.815
-0.82
-0.82
-0.825
-0.825
-0.82
-0.82
-0.8
-0.81
-0.8
-0.805
-0.805
-0.81
-0.82
-0.825
-0.825
-0.825
-0.82
-0.805
-0.8
-0.8
-0.8
-0.795
-0.795
-0.8
-0.8
-0.82
-0.82
-0.82
-0.815
-0.795
-0.8
-0.785
-0.78
-0.78
-0.79
-0.79
-0.8
-0.805
-0.805
-0.805
-0.805
-0.795
-0.775
-0.76
-0.765
-0.765
-0.785
-0.785
-0.8
-0.795
-0.78
-0.775
-0.78
-0.77
-0.775
-0.77
-0.77
-0.765
-0.77
-0.77
-0.79
-0.805
-0.795
-0.8
-0.795
-0.78
-0.78
-0.78
-0.78
-0.78
-0.77
-0.77
-0.765
-0.775
-0.775
-0.78
-0.775
-0.77
-0.765
-0.76
-0.755
-0.755
-0.75
-0.765
-0.77
-0.755
-0.755
-0.745
-0.75
-0.745
-0.755
-0.74
-0.75
-0.755
-0.755
-0.745
-0.715
-0.705
-0.7
-0.695
-0.695
-0.69
-0.675
-0.67
-0.675
-0.7
-0.705
-0.72
-0.73
-0.725
-0.75
-0.735
-0.73
-0.715
-0.71
-0.69
-0.69
-0.685
-0.675
-0.685
-0.69
-0.695
-0.715
-0.735
-0.75
-0.765
-0.77
-0.77
-0.78
-0.775
-0.785
-0.78
-0.795
-0.775
-0.8
-0.8
-0.81
-0.815
-0.81
-0.805
-0.79
-0.735
-0.655
-0.545
-0.44
-0.355
-0.3
-0.31
-0.4
-0.55
-0.705
-0.785
-0.75
-0.575
-0.29
0.035
0.395
0.71
1.025
1.285
1.495
1.61
1.675
1.65
1.56
1.41
1.16
0.895
0.595
0.31
0.05
-0.23
-0.48
-0.715
-0.905
-1.03
-1.085
-1.115
-1.09
-1.075
-1.045
-1.015
-0.98
-0.945
-0.93
-0.91
-0.905
-0.89
-0.9
-0.905
-0.9
-0.92
-0.915
-0.925
-0.93
-0.93
-0.93
-0.925
-0.93
-0.925
-0.915
-0.92
-0.925
-0.93
-0.93
-0.935
-0.94
-0.95
-0.94
-0.935
-0.93
-0.925
-0.93
-0.93
-0.94
-0.96
-0.965
-0.975
-0.98
-0.98
-0.985
-0.98
-0.975
-0.965
-0.975
-0.98
-0.99
-0.99
-1.0
-1.005
-1.015
-1.02
-1.025
-1.03
-1.025
-1.02
-1.03
-1.025
-1.035
-1.045
-1.05
-1.065
-1.075
-1.085
-1.075
-1.08
-1.09
-1.08
-1.08
-1.075
-1.085
-1.095
-1.1
-1.105
-1.11
-1.12
-1.11
-1.095
-1.11
-1.095
-1.07
-1.08
-1.075
-1.07
-1.065
-1.055
-1.05
-1.045
-1.025
-1.01
-0.995
-0.975
-0.965
-0.95
-0.94
-0.925
-0.905
-0.895
-0.885
-0.87
-0.85
-0.83
-0.81
-0.785
-0.765
-0.75
-0.74
-0.74
-0.735
-0.72
-0.71
-0.705
-0.695
-0.68
-0.665
-0.67
-0.67
-0.68
-0.68
-0.695
-0.69
-0.7
-0.72
-0.725
-0.725
-0.73
-0.735
-0.73
-0.765
-0.775
-0.78
-0.8
-0.805
-0.81
-0.835
-0.845
-0.855
-0.86
-0.86
-0.85
-0.875
-0.885
-0.875
-0.9
-0.895
-0.91
-0.9
-0.91
-0.915
-0.91
-0.905
-0.89
-0.885
-0.9
-0.895
-0.905
-0.9
-0.905
-0.895
-0.895
-0.895
-0.885
-0.875
-0.865
-0.87
-0.855
-0.86
-0.865
-0.865
-0.87
-0.865
-0.865
-0.86
-0.85
-0.835
-0.84
-0.84
-0.825
-0.82
-0.83
-0.84
-0.845
-0.845
-0.84
-0.835
-0.845
-0.83
-0.815
-0.81
-0.815
-0.815
-0.83
-0.825
-0.83
-0.84
-0.835
-0.835
-0.82
-0.81
-0.8
-0.805
-0.81
-0.8
-0.81
-0.81
-0.805
-0.805
-0.81
-0.8
-0.795
-0.8
-0.79
-0.78
-0.785
-0.795
-0.795
-0.8
-0.805
-0.81
-0.81
-0.805
-0.815
-0.795
-0.795
-0.78
-0.785
-0.79
-0.79
-0.79
-0.795
-0.81
-0.8
-0.8
-0.79
-0.78
-0.79
-0.775
-0.78
-0.78
-0.78
-0.78
-0.785
-0.795
-0.805
-0.795
-0.785
-0.785
-0.775
-0.775
-0.77
-0.78
-0.78
-0.78
-0.785
-0.79
-0.8
-0.785
-0.785
-0.79
-0.78
-0.765
-0.77
-0.775
-0.77
-0.775
-0.785
-0.79
-0.78
-0.785
-0.775
-0.775
-0.76
-0.755
-0.75
-0.75
-0.76
-0.765
-0.78
-0.775
-0.765
-0.775
-0.765
-0.765
-0.75
-0.745
-0.745
-0.745
-0.76
-0.76
-0.77
-0.76
-0.77
-0.78
-0.77
-0.77
-0.755
-0.74
-0.735
-0.74
-0.735
-0.75
-0.765
-0.765
-0.765
-0.765
-0.75
-0.75
-0.75
-0.74
-0.745
-0.745
-0.75
-0.755
-0.765
-0.77
-0.77
-0.76
-0.765
-0.755
-0.75
-0.74
-0.75
-0.755
-0.755
-0.755
-0.765
-0.77
-0.765
-0.745
-0.735
-0.745
-0.72
-0.7
-0.705
-0.71
-0.715
-0.725
-0.74
-0.725
-0.715
-0.7
-0.675
-0.675
-0.655
-0.66
-0.65
-0.67
-0.665
-0.68
-0.695
-0.705
-0.705
-0.71
-0.705
-0.705
-0.695
-0.7
-0.69
-0.665
-0.65
-0.645
-0.64
-0.655
-0.66
-0.67
-0.675
-0.69
-0.7
-0.715
-0.735
-0.75
-0.75
-0.76
-0.765
-0.77
-0.77
-0.76
-0.77
-0.76
-0.73
-0.735
-0.745
-0.76
-0.78
-0.8
-0.805
-0.78
-0.715
-0.62
-0.505
-0.41
-0.33
-0.265
-0.26
-0.3
-0.43
-0.61
-0.795
-0.895
-0.845
-0.665
-0.39
-0.04
0.285
0.61
0.9
1.145
1.33
1.465
1.53
1.525
1.485
1.415
1.305
1.1
0.855
0.6
0.32
0.025
-0.3
-0.575
-0.8
-0.97
-1.055
-1.085
-1.065
-1.025
-0.995
-0.965
-0.935
-0.93
-0.91
-0.9
-0.895
-0.88
-0.875
-0.875
-0.875
-0.875
-0.875
-0.875
-0.875
-0.885
-0.885
-0.88
-0.895
-0.895
-0.885
-0.875
-0.88
-0.875
-0.86
-0.865
-0.855
-0.865
-0.875
-0.885
-0.9
-0.91
-0.915
-0.905
-0.895
-0.885
-0.885
-0.885
-0.89
-0.89
-0.905
-0.91
-0.915
-0.935
-0.935
-0.93
-0.925
-0.93
-0.925
-0.925
-0.93
-0.945
-0.945
-0.96
-0.975
-0.975
-0.965
-0.97
-0.975
-0.98
-0.98
-0.97
-0.975
-0.995
-1.005
-1.02
-1.04
-1.035
-1.045
-1.03
-1.03
-1.035
-1.03
-1.03
-1.04
-1.05
-1.05
-1.06
-1.065
-1.07
-1.065
-1.055
-1.05
-1.04
-1.045
-1.03
-1.04
-1.045
-1.04
-1.025
-1.015
-1.01
-1.005
-0.985
-0.97
-0.96
-0.94
-0.92
-0.9
-0.905
-0.89
-0.88
-0.87
-0.855
-0.85
-0.815
-0.805
-0.785
-0.76
-0.735
-0.73
-0.735
-0.715
-0.72
-0.725
-0.72
-0.695
-0.69
-0.685
-0.68
-0.675
-0.675
-0.69
-0.695
-0.71
-0.715
-0.735
-0.735
-0.755
-0.775
-0.78
-0.78
-0.785
-0.79
-0.81
-0.84
-0.86
-0.87
-0.89
-0.895
-0.89
-0.9
-0.9
-0.905
-0.91
-0.9
-0.905
-0.91
-0.93
-0.945
-0.945
-0.945
-0.94
-0.94
-0.945
-0.92
-0.915
-0.905
-0.92
-0.92
-0.92
-0.925
-0.935
-0.93
-0.92
-0.915
-0.895
-0.9
-0.875
-0.88
-0.89
-0.885
-0.885
-0.89
-0.89
-0.89
-0.89
-0.9
-0.87
-0.865
-0.875
-0.865
-0.845
-0.845
-0.85
-0.865
-0.875
-0.87
-0.87
-0.865
-0.855
-0.845
-0.825
-0.835
-0.825
-0.84
-0.84
-0.845
-0.85
-0.845
-0.85
-0.85
-0.84
-0.83
-0.83
-0.815
-0.825
-0.825
-0.835
-0.835
-0.845
-0.85
-0.845
-0.835
-0.825
-0.82
-0.815
-0.82
-0.815
-0.82
-0.825
-0.835
-0.84
-0.84
-0.83
-0.84
-0.82
-0.815
-0.805
-0.795
-0.795
-0.805
-0.8
-0.81
-0.82
-0.825
-0.83
-0.81
-0.82
-0.805
-0.8
-0.795
-0.805
-0.8
-0.805
-0.815
-0.83
-0.835
-0.825
-0.825
-0.825
-0.81
-0.81
-0.8
-0.795
-0.81
-0.82
-0.815
-0.82
-0.815
-0.81
-0.81
-0.81
-0.805
-0.795
-0.795
-0.81
-0.8
-0.8
-0.8
-0.825
-0.83
-0.825
-0.81
-0.81
-0.805
-0.8
-0.785
-0.79
-0.795
-0.8
-0.82
-0.815
-0.82
-0.815
-0.815
-0.815
-0.805
-0.8
-0.785
-0.8
-0.805
-0.8
-0.8
-0.82
-0.815
-0.81
-0.81
-0.795
-0.795
-0.785
-0.785
-0.78
-0.79
-0.79
-0.795
-0.795
-0.795
-0.795
-0.8
-0.785
-0.78
-0.77
-0.76
-0.755
-0.76
-0.77
-0.78
-0.785
-0.79
-0.78
-0.765
-0.74
-0.73
-0.72
-0.725
-0.71
-0.715
-0.71
-0.715
-0.72
-0.74
-0.75
-0.755
-0.755
-0.765
-0.75
-0.755
-0.745
-0.745
-0.75
-0.74
-0.73
-0.715
-0.715
-0.71
-0.71
-0.715
-0.72
-0.735
-0.75
-0.775
-0.785
-0.8
-0.815
-0.825
-0.81
-0.815
-0.81
-0.8
-0.785
-0.79
-0.795
-0.795
-0.815
-0.83
-0.855
-0.86
-0.84
-0.79
-0.7
-0.6
-0.495
-0.41
-0.355
-0.325
-0.33
-0.395
-0.505
-0.655
-0.795
-0.86
-0.815
-0.645
-0.41
-0.135
0.115
0.365
0.6
0.85
1.085
1.315
1.495
1.615
1.66
1.635
1.565
1.435
1.28
1.08
0.835
0.595
0.35
0.12
-0.085
-0.3
-0.515
-0.715
-0.885
-1.01
-1.095
-1.14
-1.13
-1.11
-1.1
-1.075
-1.05
-1.01
-0.985
-0.965
-0.94
-0.92
-0.93
-0.93
-0.945
-0.945
-0.96
-0.955
-0.985
-0.975
-0.96
-0.95
