Lead II
0.095
0.1
0.09
0.11
0.085
0.07
0.06
0.1
0.18
0.245
0.315
0.42
0.67
1.155
1.69
2.04
2.13
2.06
1.96
1.915
1.88
1.82
1.74
1.65
1.57
1.515
1.465
1.405
1.3
1.185
1.065
0.96
0.86
0.75
0.625
0.495
0.375
0.235
0.085
-0.045
-0.18
-0.3
-0.42
-0.555
-0.68
-0.785
-0.88
-0.95
-1.01
-1.035
-1.07
-1.11
-1.225
-1.335
-1.45
-1.6
-1.735
-1.87
-1.985
-2.055
-2.07
-1.985
-1.86
-1.715
-1.59
-1.45
-1.32
-1.2
-1.09
-1.01
-0.95
-0.89
-0.855
-0.83
-0.8
-0.735
-0.685
-0.63
-0.61
-0.57
-0.51
-0.425
-0.34
-0.28
-0.26
-0.21
-0.165
-0.11
-0.05
0.03
0.09
0.17
0.245
0.325
0.405
0.465
0.515
0.57
0.595
0.6
0.595
0.595
0.625
0.695
0.735
0.725
0.67
0.615
0.615
0.665
0.74
0.8
0.825
0.8
0.77
0.76
0.78
0.83
0.885
0.91
0.915
0.915
0.935
0.98
1.015
1.035
1.03
1.03
1.055
1.1
1.13
1.14
1.165
1.19
1.195
1.19
1.185
1.17
1.185
1.225
1.26
1.295
1.295
1.29
1.275
1.285
1.285
1.31
1.305
1.295
1.265
1.25
1.255
1.27
1.28
1.25
1.21
1.175
1.155
1.13
1.11
1.09
1.075
1.065
1.02
0.965
0.93
0.885
0.865
0.835
0.81
0.8
0.765
0.705
0.65
0.63
0.655
0.69
0.695
0.695
0.625
0.595
0.585
0.59
0.615
0.63
0.62
0.58
0.51
0.445
0.41
0.405
0.395
0.385
0.375
0.37
0.405
0.385
0.37
0.355
0.335
0.315
0.27
0.225
0.18
0.165
0.16
0.145
0.11
0.085
0.075
0.07
0.065
0.035
-0.025
-0.06
-0.075
-0.07
-0.065
-0.07
-0.09
-0.105
-0.115
-0.105
-0.095
-0.11
-0.14
-0.14
-0.115
-0.065
-0.01
-0.035
-0.075
-0.12
-0.16
-0.16
-0.145
-0.12
-0.095
-0.075
-0.06
-0.065
-0.105
-0.145
-0.195
-0.19
-0.2
-0.175
-0.155
-0.11
-0.085
-0.09
-0.135
-0.145
-0.135
-0.14
-0.135
-0.13
-0.15
-0.145
-0.14
-0.14
-0.165
-0.185
-0.18
-0.15
-0.135
-0.13
-0.14
-0.15
-0.145
-0.135
-0.135
-0.145
-0.145
-0.16
-0.16
-0.145
-0.13
-0.13
-0.115
-0.085
-0.055
-0.055
-0.09
-0.145
-0.19
-0.18
-0.165
-0.14
-0.13
-0.14
-0.16
-0.17
-0.18
-0.12
-0.07
-0.045
-0.085
-0.12
-0.15
-0.145
-0.12
-0.1
-0.1
-0.1
-0.09
-0.08
-0.065
-0.055
-0.08
-0.11
-0.14
-0.13
-0.115
-0.09
-0.07
-0.045
-0.015
0.01
0.05
0.1
0.26
0.625
1.145
1.645
1.895
1.89
1.785
1.71
1.665
1.625
1.56
1.455
1.365
1.29
1.23
1.16
1.065
0.97
0.87
0.73
0.58
0.44
0.3
0.175
0.015
-0.16
-0.37
-0.56
-0.71
-0.845
-0.96
-1.08
-1.19
-1.28
-1.34
-1.375
-1.44
-1.55
-1.69
-1.845
-1.96
-2.055
-2.165
-2.275
-2.36
-2.38
-2.315
-2.14
-1.94
-1.755
-1.6
-1.44
-1.305
-1.18
-1.11
-1.06
-1.05
-1.0
-0.96
-0.9
-0.86
-0.845
-0.835
-0.825
-0.795
-0.7
-0.6
-0.48
-0.365
-0.28
-0.225
-0.175
-0.1
-0.01
0.09
0.165
0.225
0.28
0.345
0.395
0.42
0.45
0.48
0.52
0.51
0.49
0.47
0.495
0.555
0.625
0.655
0.685
0.705
0.77
0.845
0.9
0.94
0.975
1.01
1.035
1.06
1.085
1.12
1.145
1.17
1.21
1.235
1.235
1.21
1.185
1.205
1.25
1.295
1.345
1.37
1.375
1.375
1.375
1.37
1.35
1.33
1.32
1.33
1.335
1.325
1.315
1.28
1.22
1.19
1.19
1.195
1.21
1.175
1.115
1.065
1.035
1.005
0.97
0.94
0.915
0.88
0.845
0.8
0.745
0.695
0.665
0.645
0.605
0.535
0.445
0.35
0.28
0.26
0.26
0.255
0.24
0.195
0.14
0.085
0.065
0.055
0.04
0.02
-0.005
-0.04
-0.065
-0.085
-0.1
-0.12
-0.145
-0.135
-0.13
-0.125
-0.14
-0.175
-0.21
-0.235
-0.25
-0.25
-0.25
-0.24
-0.23
-0.22
-0.205
-0.19
-0.205
-0.24
-0.275
-0.295
-0.265
-0.21
-0.2
-0.21
-0.215
-0.215
-0.19
-0.18
-0.185
-0.195
-0.195
-0.215
-0.24
-0.275
-0.31
-0.31
-0.3
-0.25
-0.215
-0.195
-0.19
-0.21
-0.235
-0.24
-0.22
-0.195
-0.185
-0.2
-0.205
-0.21
-0.185
-0.17
-0.155
-0.16
-0.18
-0.215
-0.215
-0.215
-0.215
-0.195
-0.17
-0.165
-0.155
-0.165
-0.17
-0.185
-0.21
-0.24
-0.23
-0.195
-0.16
-0.16
-0.195
-0.235
-0.25
-0.225
-0.185
-0.16
-0.17
-0.215
-0.215
-0.21
-0.18
-0.16
-0.17
-0.205
-0.21
-0.22
-0.175
-0.175
-0.18
-0.195
-0.205
-0.21
-0.215
-0.23
-0.225
-0.2
-0.185
-0.16
-0.16
-0.16
-0.18
-0.19
-0.17
-0.155
-0.14
-0.15
-0.155
-0.18
-0.17
-0.16
-0.135
-0.155
-0.17
-0.17
-0.145
-0.1
-0.13
-0.155
-0.175
-0.14
-0.1
-0.095
-0.115
-0.135
-0.11
-0.05
0.09
0.37
0.835
1.375
1.715
1.78
1.7
1.615
1.55
1.505
1.45
1.38
1.315
1.245
1.16
1.08
0.99
0.88
0.755
0.62
0.5
0.355
0.175
-0.015
-0.215
-0.415
-0.635
-0.835
-0.995
-1.13
-1.22
-1.3
-1.375
-1.49
-1.57
-1.62
-1.63
-1.655
-1.73
-1.855
-1.995
-2.165
-2.3
-2.39
-2.42
-2.36
-2.195
-1.985
-1.72
-1.515
-1.295
-1.11
-0.99
-0.96
-0.92
-0.88
-0.815
-0.765
-0.73
-0.715
-0.72
-0.735
-0.7
-0.66
-0.59
-0.515
-0.425
-0.355
-0.305
-0.265
-0.245
-0.225
-0.155
-0.06
0.065
0.15
0.21
0.225
0.21
0.23
0.245
0.27
0.295
0.34
0.36
0.39
0.425
0.46
0.47
0.475
0.475
0.485
0.525
0.565
0.605
0.63
0.66
0.695
0.71
0.725
0.74
0.775
0.825
0.87
0.905
0.92
0.92
0.935
0.945
0.985
1.03
1.065
1.055
1.07
1.095
1.105
1.12
1.12
1.13
1.14
1.14
1.13
1.13
1.135
1.115
1.105
1.08
1.06
1.065
1.07
1.05
1.02
0.98
0.925
0.865
0.805
0.74
0.725
0.705
0.69
0.655
0.58
0.53
0.47
0.43
0.405
0.38
0.33
0.26
0.185
0.135
0.115
0.085
0.075
0.08
0.065
0.05
0.015
0.0
-0.04
-0.07
-0.095
-0.1
-0.095
-0.1
-0.125
-0.165
-0.175
-0.2
-0.19
-0.19
-0.195
-0.19
-0.2
-0.195
-0.195
-0.195
-0.225
-0.235
-0.245
-0.22
-0.19
-0.16
-0.16
-0.185
-0.235
-0.265
-0.27
-0.265
-0.255
-0.27
-0.275
-0.26
-0.23
-0.215
-0.205
-0.22
-0.225
-0.225
-0.235
-0.235
-0.23
-0.22
-0.225
-0.205
-0.195
-0.185
-0.195
-0.195
-0.205
-0.22
-0.215
-0.19
-0.15
-0.125
-0.13
-0.165
-0.205
-0.235
-0.255
-0.23
-0.23
-0.215
-0.2
-0.195
-0.195
-0.185
-0.2
-0.235
-0.25
-0.265
-0.24
-0.21
-0.2
-0.195
-0.19
-0.19
-0.2
-0.21
-0.25
-0.255
-0.225
-0.19
-0.175
-0.185
-0.245
-0.275
-0.27
-0.23
-0.225
-0.225
-0.25
-0.27
-0.255
-0.255
-0.24
-0.23
-0.215
-0.185
-0.18
-0.17
-0.175
-0.175
-0.165
-0.135
-0.105
-0.075
-0.045
-0.04
-0.055
-0.055
-0.035
-0.02
-0.005
0.035
0.075
0.11
0.13
0.12
0.055
-0.015
-0.05
-0.01
0.07
0.115
0.12
0.075
0.04
0.035
0.075
0.12
0.16
0.22
0.38
0.77
1.295
1.66
1.735
1.66
1.55
1.495
1.445
1.375
1.3
1.19
1.08
0.99
0.92
0.86
0.765
0.655
0.51
0.38
0.23
0.09
-0.08
-0.25
-0.425
-0.595
-0.74
-0.88
-1.045
-1.2
-1.325
-1.425
-1.485
-1.57
-1.625
-1.71
-1.845
-1.965
-2.065
-2.135
-2.24
-2.395
-2.56
-2.67
-2.67
-2.53
-2.34
-2.13
-1.94
-1.76
-1.585
-1.465
-1.4
-1.335
-1.295
-1.25
-1.215
-1.195
-1.19
-1.22
-1.235
-1.235
-1.145
-1.02
-0.89
-0.805
-0.765
-0.715
-0.65
-0.57
-0.485
-0.42
-0.32
-0.23
-0.13
-0.03
0.035
0.05
0.05
0.065
0.06
0.08
0.1
0.145
0.165
0.18
0.195
0.23
0.25
0.225
0.22
0.23
0.255
0.275
0.29
0.305
0.355
0.42
0.48
0.525
0.545
0.54
0.54
0.565
0.585
0.605
0.63
0.65
0.665
0.685
0.72
0.75
0.78
0.81
0.82
0.845
0.85
0.85
0.83
0.81
0.815
0.84
0.865
0.895
0.915
0.905
0.9
0.91
0.91
0.895
0.84
0.825
0.805
0.78
0.755
0.74
0.755
0.75
0.715
0.67
0.64
0.62
0.585
0.53
0.475
0.41
0.355
0.31
0.3
0.295
0.29
0.255
0.195
0.135
0.07
0.015
-0.05
-0.095
-0.115
-0.12
-0.115
-0.13
-0.16
-0.165
-0.195
-0.205
-0.225
-0.24
-0.275
-0.275
-0.285
-0.295
-0.295
-0.29
-0.29
-0.265
-0.26
-0.26
-0.275
-0.275
-0.31
-0.32
-0.33
-0.34
-0.325
-0.31
-0.3
-0.315
-0.295
-0.3
-0.31
-0.36
-0.395
-0.4
-0.36
-0.33
-0.33
-0.37
-0.405
-0.405
-0.36
-0.325
-0.295
-0.285
-0.3
-0.285
-0.26
-0.24
-0.22
-0.22
-0.235
-0.235
-0.17
-0.1
-0.055
-0.04
-0.045
-0.035
-0.02
0.015
0.055
0.06
0.02
-0.02
-0.07
-0.075
-0.08
-0.08
-0.08
-0.08
-0.07
-0.06
-0.075
-0.105
-0.125
-0.13
-0.15
-0.175
-0.2
-0.245
-0.265
-0.27
-0.29
-0.305
-0.33
-0.35
-0.385
-0.4
-0.425
-0.445
-0.45
-0.465
-0.47
-0.485
-0.49
-0.51
-0.505
-0.49
-0.475
-0.465
-0.49
-0.515
-0.54
-0.55
-0.545
-0.54
-0.525
-0.48
-0.455
-0.46
-0.49
-0.51
-0.515
-0.495
-0.505
-0.545
-0.53
-0.51
-0.51
-0.51
-0.53
-0.55
-0.55
-0.54
-0.525
-0.515
-0.51
-0.525
-0.535
-0.525
-0.495
-0.48
-0.51
-0.505
-0.51
-0.485
-0.465
-0.435
-0.42
-0.405
-0.35
-0.225
0.005
0.425
0.945
1.365
1.525
1.465
1.38
1.3
1.25
1.175
1.075
0.995
0.96
0.925
0.865
0.78
0.685
0.6
0.51
0.44
0.325
0.19
0.055
-0.07
-0.19
-0.31
-0.46
-0.58
-0.66
-0.76
-0.88
-1.02
-1.15
-1.28
-1.39
-1.445
-1.495
-1.58
-1.72
-1.86
-1.975
-2.095
-2.225
-2.345
-2.47
-2.53
-2.54
-2.46
-2.33
-2.185
-2.01
-1.835
-1.7
-1.59
-1.53
-1.455
-1.405
-1.355
-1.315
-1.28
-1.26
-1.265
-1.25
-1.205
-1.13
-0.995
-0.885
-0.815
-0.8
-0.79
-0.74
-0.64
-0.54
-0.44
-0.36
-0.29
-0.275
-0.195
-0.13
-0.065
0.015
0.03
0.045
0.05
0.075
0.095
0.13
0.155
0.155
0.145
0.165
0.205
0.225
0.21
0.195
0.195
0.245
0.3
0.35
0.37
0.38
0.425
0.46
0.485
0.49
0.495
0.5
0.515
0.53
0.555
0.6
0.62
0.65
0.665
0.705
0.715
0.74
0.745
0.74
0.745
0.735
0.76
0.78
0.78
0.79
0.8
0.81
0.82
0.82
0.795
0.76
0.77
0.78
0.77
0.775
0.75
0.73
0.715
0.695
0.655
0.63
0.575
0.545
0.53
0.515
0.485
0.435
0.375
0.325
0.33
0.335
0.335
0.315
0.29
0.265
0.245
0.24
0.23
0.225
0.225
0.21
0.215
0.19
0.175
0.125
0.06
-0.025
-0.07
-0.075
-0.065
-0.06
-0.075
-0.105
-0.115
-0.135
-0.15
-0.18
-0.235
-0.29
-0.32
-0.34
-0.345
-0.34
-0.345
-0.355
-0.365
-0.395
-0.44
-0.505
-0.55
-0.57
-0.57
-0.55
-0.53
-0.515
-0.53
-0.585
-0.625
-0.65
-0.66
-0.665
-0.695
-0.71
-0.68
-0.635
-0.615
-0.605
-0.615
-0.63
-0.615
-0.62
-0.615
-0.62
-0.615
-0.63
-0.65
-0.64
-0.62
-0.615
-0.625
-0.64
-0.645
-0.645
-0.66
-0.66
-0.66
-0.65
-0.635
-0.625
-0.62
-0.62
-0.62
-0.63
-0.645
-0.665
-0.675
-0.69
-0.665
-0.65
-0.62
-0.63
-0.64
-0.67
-0.675
-0.645
-0.615
-0.6
-0.605
-0.655
-0.685
-0.71
-0.715
-0.705
-0.69
-0.66
-0.665
-0.68
-0.65
-0.615
-0.58
-0.59
-0.625
-0.66
-0.68
-0.66
-0.635
-0.63
-0.655
-0.67
-0.655
-0.65
-0.62
-0.625
-0.635
-0.63
-0.615
-0.635
-0.655
-0.655
-0.63
-0.585
-0.56
-0.575
-0.585
-0.62
-0.645
-0.665
-0.65
-0.595
-0.565
-0.56
-0.57
-0.57
-0.565
-0.57
-0.58
-0.6
-0.615
-0.615
-0.595
-0.565
-0.56
-0.545
-0.54
-0.535
-0.53
-0.525
-0.52
-0.505
-0.495
-0.44
-0.355
-0.26
-0.035
0.35
0.825
1.205
1.4
1.4
1.33
1.27
1.23
1.19
1.13
1.07
1.0
0.93
0.83
0.725
0.66
0.595
0.515
0.4
0.255
0.11
-0.035
-0.18
-0.33
-0.5
-0.68
-0.885
-1.08
-1.265
-1.425
-1.57
-1.69
-1.825
-1.925
-2.04
-2.125
-2.21
-2.26
-2.31
-2.355
-2.425
-2.51
-2.605
-2.705
-2.815
-2.89
-2.965
-2.99
-2.97
-2.885
-2.725
-2.52
-2.325
-2.12
-1.95
-1.8
-1.715
-1.65
-1.565
-1.495
-1.425
-1.38
-1.345
-1.305
-1.275
-1.245
-1.19
-1.135
-1.06
-0.96
-0.855
-0.785
-0.725
-0.705
-0.67
-0.595
-0.525
-0.455
-0.37
-0.295
-0.21
-0.125
-0.045
0.01
0.045
0.055
0.075
0.12
0.145
0.185
0.2
0.2
0.215
0.25
0.28
0.345
0.4
0.45
0.51
0.555
0.605
0.645
0.66
0.675
0.7
0.735
0.77
0.785
0.77
0.765
0.775
0.825
0.87
0.88
0.885
0.915
0.955
0.985
1.025
1.025
1.025
1.01
0.975
0.97
0.995
1.025
1.025
1.02
0.99
1.005
0.995
0.975
0.92
0.905
0.88
0.89
0.9
0.88
0.835
0.78
0.755
0.745
0.74
0.71
0.675
0.625
0.57
0.54
0.505
0.495
0.465
0.42
0.375
0.32
0.27
0.225
0.17
0.105
0.075
0.03
0.025
0.01
-0.04
-0.095
-0.195
-0.26
-0.3
-0.32
-0.34
-0.36
-0.4
-0.41
-0.395
-0.4
-0.42
-0.455
-0.495
-0.495
-0.49
-0.48
-0.49
-0.545
-0.57
-0.565
-0.545
-0.535
-0.555
-0.58
-0.58
-0.565
-0.58
-0.575
-0.59
-0.625
-0.655
-0.655
-0.62
-0.59
-0.585
-0.605
-0.62
-0.63
-0.635
-0.63
-0.62
-0.615
-0.63
-0.625
-0.61
-0.595
-0.585
-0.595
-0.615
-0.62
-0.63
-0.615
-0.575
-0.58
-0.605
-0.6
-0.6
-0.575
-0.57
-0.565
-0.575
-0.565
-0.545
-0.52
-0.515
-0.54
-0.59
-0.605
-0.605
-0.565
-0.53
-0.525
-0.52
-0.51
-0.52
-0.515
-0.515
-0.54
-0.55
-0.54
-0.545
-0.535
-0.555
-0.56
-0.575
-0.555
-0.535
-0.515
-0.535
-0.555
-0.575
-0.55
-0.53
-0.515
-0.535
-0.55
-0.585
-0.58
-0.565
-0.545
-0.54
-0.55
-0.57
-0.57
-0.54
-0.52
-0.495
-0.49
-0.485
-0.48
-0.505
-0.525
-0.55
-0.55
-0.525
-0.5
-0.465
-0.48
-0.51
-0.565
-0.59
-0.595
-0.555
-0.535
-0.535
-0.525
-0.535
-0.505
-0.485
-0.465
-0.445
-0.45
-0.485
-0.535
-0.55
-0.58
-0.58
-0.535
-0.5
-0.485
-0.485
-0.505
-0.485
-0.48
-0.47
-0.48
-0.5
-0.54
-0.565
-0.545
-0.5
-0.45
-0.395
-0.395
-0.4
-0.38
-0.325
-0.19
0.035
0.425
0.895
1.28
1.455
1.45
1.375
1.31
1.26
1.215
1.155
1.09
1.02
0.955
0.905
0.835
0.77
0.705
0.62
0.54
0.415
0.265
0.14
0.025
-0.09
-0.21
-0.345
-0.525
-0.73
-0.88
-1.025
-1.155
-1.29
-1.41
-1.495
-1.555
-1.605
-1.665
-1.72
-1.78
-1.84
-1.91
-2.0
-2.07
-2.185
-2.3
-2.405
-2.515
-2.605
-2.575
-2.465
-2.265
-2.06
-1.825
-1.67
-1.535
-1.435
-1.365
-1.31
-1.245
-1.2
-1.18
-1.185
-1.205
-1.2
-1.18
-1.165
-1.115
-1.09
-1.055
-1.015
-0.945
-0.88
-0.84
-0.835
-0.8
-0.76
-0.68
-0.61
-0.53
-0.465
-0.38
-0.33
-0.275
-0.215
-0.185
-0.15
-0.135
-0.13
-0.105
-0.085
-0.06
-0.04
-0.055
-0.07
-0.055
-0.035
0.02
0.055
0.08
0.115
0.11
0.11
0.085
0.075
0.115
0.155
0.215
0.25
0.27
0.275
0.295
0.31
0.325
0.37
0.405
0.435
0.45
0.445
0.47
0.5
0.53
0.57
0.595
0.61
0.625
0.625
0.62
0.635
0.64
0.655
0.675
0.7
0.72
0.73
0.735
0.71
0.665
0.64
0.61
0.61
0.63
0.61
0.59
0.56
0.565
0.56
0.555
0.515
0.475
0.42
0.375
0.335
0.305
0.255
0.2
0.13
0.095
0.045
0.01
-0.01
-0.025
-0.055
-0.075
-0.125
-0.18
-0.245
-0.29
-0.32
-0.34
-0.35
-0.385
-0.42
-0.44
-0.455
-0.435
-0.415
-0.4
-0.425
-0.45
-0.465
-0.485
-0.525
-0.52
-0.53
-0.52
-0.515
-0.51
-0.52
-0.54
-0.565
-0.58
-0.57
-0.565
-0.565
-0.57
-0.605
-0.615
-0.605
-0.605
-0.62
-0.635
-0.65
-0.615
-0.56
-0.525
-0.515
-0.54
-0.58
-0.6
-0.595
-0.57
-0.55
-0.545
-0.54
-0.55
-0.55
-0.555
-0.57
-0.55
-0.535
-0.515
-0.53
-0.53
-0.535
-0.55
-0.535
-0.515
-0.5
-0.485
-0.51
-0.53
-0.555
-0.575
-0.58
-0.575
-0.57
-0.55
-0.525
-0.505
-0.49
-0.485
-0.515
-0.55
-0.58
-0.585
-0.56
-0.54
-0.535
-0.53
-0.535
-0.525
-0.515
-0.53
-0.565
-0.585
-0.575
-0.535
-0.53
-0.5
-0.51
-0.515
-0.54
-0.54
-0.555
-0.57
-0.57
-0.57
-0.58
-0.57
-0.535
-0.51
-0.49
-0.495
-0.53
-0.525
-0.535
-0.53
-0.525
-0.535
-0.535
-0.51
-0.47
-0.415
-0.365
-0.34
-0.315
-0.295
-0.28
-0.255
-0.245
-0.225
-0.21
-0.18
-0.155
-0.135
-0.16
-0.19
-0.255
-0.29
-0.28
-0.255
-0.235
-0.235
-0.245
-0.25
-0.225
-0.22
-0.26
-0.245
-0.235
-0.16
-0.02
0.265
0.73
1.175
1.425
1.475
1.405
1.31
1.255
1.185
1.115
1.035
0.965
0.89
0.815
0.73
0.655
0.56
0.44
0.33
0.225
0.09
-0.015
-0.12
-0.26
-0.425
-0.63
-0.795
-0.955
-1.075
-1.185
-1.295
-1.43
-1.565
-1.655
-1.75
-1.83
-1.89
-1.98
-2.06
-2.165
-2.265
-2.36
-2.465
-2.595
-2.72
-2.84
-2.9
-2.92
-2.84
-2.71
-2.555
-2.375
-2.2
-2.035
-1.875
-1.78
-1.715
-1.66
-1.625
-1.585
-1.55
-1.52
-1.505
-1.52
-1.515
-1.485
-1.435
-1.38
-1.33
-1.245
-1.155
-1.065
-0.995
-0.955
-0.91
-0.83
-0.735
-0.655
-0.575
-0.515
-0.47
-0.41
-0.35
-0.295
-0.255
-0.23
-0.225
-0.215
-0.2
-0.15
-0.09
-0.085
-0.08
-0.07
-0.035
-0.005
0.035
0.045
0.02
0.02
0.05
0.1
0.13
0.13
0.14
0.16
0.21
0.28
0.345
0.37
0.385
0.39
0.415
0.45
0.49
0.5
0.535
0.525
0.55
0.595
0.65
0.66
0.675
0.705
0.74
0.74
0.725
0.68
0.68
0.68
0.695
0.7
0.71
0.715
0.7
0.665
0.685
0.665
0.645
0.58
0.535
0.515
0.51
0.51
0.505
0.47
0.425
0.36
0.28
0.225
0.185
0.18
0.16
0.115
0.055
0.015
-0.035
-0.11
-0.195
-0.25
-0.25
-0.23
-0.25
-0.31
-0.385
-0.46
-0.455
-0.45
-0.445
-0.44
-0.455
-0.475
-0.45
-0.46
-0.465
-0.49
-0.525
-0.56
-0.56
-0.54
-0.51
-0.51
-0.495
-0.515
-0.55
-0.585
-0.625
-0.625
-0.62
-0.63
-0.605
-0.62
-0.62
-0.595
-0.57
-0.55
-0.54
-0.54
-0.56
-0.575
-0.595
-0.62
-0.61
-0.55
-0.525
-0.515
-0.535
-0.565
-0.565
-0.535
-0.485
-0.445
-0.435
-0.415
-0.37
-0.33
-0.315
-0.325
-0.315
-0.275
-0.21
-0.15
-0.135
-0.16
-0.18
-0.21
-0.23
-0.24
-0.245
-0.27
-0.275
-0.29
-0.27
-0.265
-0.285
-0.31
-0.315
-0.315
-0.32
-0.315
-0.37
-0.435
-0.46
-0.47
-0.48
-0.505
-0.545
-0.58
-0.615
-0.655
-0.69
-0.68
-0.675
-0.675
-0.67
-0.67
-0.675
-0.71
-0.72
-0.755
-0.76
-0.765
-0.73
-0.705
-0.685
-0.71
-0.75
-0.745
-0.705
-0.68
-0.675
-0.685
-0.7
-0.735
-0.775
-0.825
-0.84
-0.79
-0.775
-0.75
-0.75
-0.735
-0.735
-0.745
-0.765
-0.765
-0.73
-0.71
-0.725
-0.74
-0.725
-0.71
-0.69
-0.685
-0.695
-0.7
-0.695
-0.685
-0.655
-0.605
-0.52
-0.385
-0.125
0.37
0.96
1.33
1.39
1.27
1.155
1.08
1.045
0.995
0.91
0.82
0.755
0.705
0.66
0.57
0.45
0.32
0.2
0.1
0.005
-0.11
-0.245
-0.41
-0.595
-0.775
-0.895
-1.005
-1.125
-1.265
-1.415
-1.545
-1.615
-1.65
-1.695
-1.8
-1.93
-2.09
-2.23
-2.325
-2.41
-2.52
-2.64
-2.735
-2.78
-2.755
-2.645
-2.53
-2.4
-2.21
-2.0
-1.835
-1.72
-1.685
-1.61
-1.575
-1.535
-1.505
-1.48
-1.44
-1.395
-1.33
-1.275
-1.21
-1.125
-1.03
-0.975
-0.965
-0.925
-0.865
-0.785
-0.71
-0.645
-0.575
-0.465
-0.34
-0.26
-0.205
-0.16
-0.12
-0.07
-0.075
-0.08
-0.095
-0.07
-0.045
0.005
0.04
0.05
0.055
0.065
0.065
0.105
0.145
0.18
0.2
0.195
0.2
0.215
0.255
0.285
0.3
0.315
0.345
0.42
0.465
0.5
0.52
0.56
0.585
0.62
0.63
0.65
0.655
0.665
0.685
0.705
0.7
0.69
0.7
0.705
0.71
0.725
0.715
0.71
0.695
0.685
0.675
0.68
0.685
0.68
0.655
0.61
0.575
0.57
0.555
0.55
0.53
0.495
0.445
0.44
0.41
0.395
0.345
0.28
0.225
0.195
0.2
0.215
0.23
0.215
0.205
0.195
0.18
0.15
0.115
0.1
0.085
0.06
0.03
-0.02
-0.085
-0.125
-0.18
-0.21
-0.19
-0.19
-0.215
-0.225
-0.245
-0.285
-0.31
-0.325
-0.345
-0.36
-0.4
-0.43
-0.46
-0.49
-0.525
-0.56
-0.61
-0.655
-0.685
-0.68
-0.665
-0.645
-0.655
-0.645
-0.65
-0.675
-0.71
-0.725
-0.72
-0.73
-0.75
-0.785
-0.805
-0.785
-0.75
-0.73
-0.75
-0.75
-0.76
-0.75
-0.735
-0.72
-0.71
-0.695
-0.66
-0.675
-0.675
-0.705
-0.73
-0.725
-0.72
-0.72
-0.73
-0.755
-0.76
-0.74
-0.735
-0.745
-0.755
-0.745
-0.71
-0.67
-0.645
-0.65
-0.68
-0.72
-0.75
-0.765
-0.77
-0.765
-0.765
-0.755
-0.725
-0.71
-0.73
-0.74
-0.76
-0.74
-0.73
-0.71
-0.695
-0.685
-0.68
-0.68
-0.695
-0.71
-0.725
-0.71
-0.715
-0.7
-0.705
-0.705
-0.705
-0.7
-0.695
-0.7
-0.7
-0.715
-0.72
-0.705
-0.68
-0.67
-0.66
-0.655
-0.635
-0.635
-0.65
-0.655
-0.65
-0.66
-0.66
-0.645
-0.65
-0.655
-0.66
-0.67
-0.635
-0.635
-0.64
-0.63
-0.62
-0.605
-0.575
-0.575
-0.585
-0.585
-0.58
-0.575
-0.585
-0.585
-0.56
-0.51
-0.44
-0.305
-0.02
0.45
0.995
1.385
1.49
1.41
1.3
1.24
1.205
1.16
1.1
1.03
0.93
0.825
0.715
0.605
0.52
0.415
0.3
0.14
-0.025
-0.175
-0.32
-0.49
-0.73
-1.0
-1.265
-1.48
-1.645
-1.78
-1.89
-2.005
-2.125
-2.24
-2.3
-2.335
-2.375
-2.42
-2.52
-2.6
-2.68
-2.75
-2.835
-2.935
-3.02
-2.995
-2.87
-2.665
-2.44
-2.22
-2.035
-1.85
-1.74
-1.66
-1.59
-1.54
-1.48
-1.395
-1.33
-1.285
-1.285
-1.26
-1.245
-1.195
-1.125
-1.05
-0.965
-0.89
-0.82
-0.735
-0.655
-0.57
-0.53
-0.45
-0.37
-0.255
-0.155
-0.095
-0.065
-0.05
-0.035
-0.015
0.025
0.07
0.11
0.12
0.165
0.195
0.225
0.265
0.325
0.39
0.445
0.51
0.545
0.605
0.655
0.685
0.7
0.715
0.735
0.765
0.79
0.8
0.795
0.805
0.825
0.835
0.865
0.89
0.92
0.95
0.975
0.975
0.97
0.965
0.97
0.98
0.995
1.02
1.015
0.995
0.965
0.955
0.93
0.92
0.905
0.91
0.885
0.85
0.83
0.82
0.81
0.77
0.695
0.655
0.635
0.645
0.655
0.63
0.565
0.5
0.45
0.405
0.37
0.34
0.29
0.235
0.195
0.155
0.115
0.065
0.005
-0.045
-0.095
-0.12
-0.16
-0.23
-0.295
-0.335
-0.33
-0.325
-0.33
-0.365
-0.42
-0.475
-0.51
-0.52
-0.515
-0.52
-0.525
-0.54
-0.57
-0.595
-0.62
-0.65
-0.645
-0.63
-0.615
-0.61
-0.6
-0.615
-0.64
-0.66
-0.665
-0.665
-0.665
-0.68
-0.66
-0.64
-0.63
-0.645
-0.675
-0.705
-0.73
-0.715
-0.695
-0.69
-0.695
-0.69
-0.695
-0.68
-0.66
-0.635
-0.64
-0.66
-0.685
-0.685
-0.68
-0.675
-0.655
-0.645
-0.655
-0.65
-0.64
-0.625
-0.635
-0.625
-0.63
-0.61
-0.615
-0.635
-0.655
-0.655
-0.64
-0.6
-0.585
-0.585
-0.605
-0.62
-0.63
-0.61
-0.575
-0.565
-0.565
-0.58
-0.62
-0.635
-0.635
-0.605
-0.595
-0.615
-0.65
-0.645
-0.63
-0.61
-0.62
-0.635
-0.65
-0.62
-0.595
-0.56
-0.57
-0.59
-0.63
-0.645
-0.64
-0.64
-0.63
-0.61
-0.585
-0.55
-0.555
-0.55
-0.58
-0.6
-0.615
-0.61
-0.61
-0.595
-0.585
-0.595
-0.61
-0.62
-0.63
-0.61
-0.585
-0.555
-0.54
-0.555
-0.575
-0.58
-0.575
-0.56
-0.57
-0.575
-0.575
-0.6
-0.6
-0.595
-0.57
-0.545
-0.54
-0.535
-0.54
-0.54
-0.525
-0.495
-0.455
-0.425
-0.385
-0.315
-0.155
0.24
0.755
1.245
1.49
1.48
1.375
1.3
1.265
1.22
1.125
1.035
0.935
0.855
0.76
0.685
0.585
0.485
0.39
0.255
0.105
-0.06
-0.265
-0.45
-0.635
-0.84
-0.985
-1.135
-1.29
-1.46
-1.595
-1.67
-1.73
-1.755
-1.8
-1.825
-1.925
-2.035
-2.135
-2.245
-2.38
-2.525
-2.645
-2.68
-2.6
-2.41
-2.195
-1.975
-1.775
-1.61
-1.465
-1.39
-1.335
-1.3
-1.265
-1.225
-1.195
-1.175
-1.175
-1.17
-1.16
-1.14
-1.11
-1.06
-0.995
-0.925
-0.865
-0.79
-0.745
-0.705
-0.66
-0.595
-0.525
-0.445
-0.38
-0.32
-0.23
-0.16
-0.16
-0.15
-0.165
-0.17
-0.155
-0.11
-0.1
-0.08
-0.07
-0.07
-0.05
-0.035
-0.005
0.05
0.1
0.13
0.14
0.14
0.14
0.155
0.185
0.24
0.255
0.26
0.245
0.265
0.32
0.39
0.45
0.495
0.505
0.505
0.51
0.535
0.53
0.53
0.51
0.54
0.56
0.61
0.64
0.65
0.65
0.655
0.65
0.64
0.615
0.6
0.61
0.635
0.655
0.65
0.62
0.575
0.54
0.53
0.54
0.53
0.515
0.48
0.435
0.405
0.36
0.3
0.24
0.195
0.155
0.115
0.06
0.035
0.0
-0.055
-0.1
-0.15
-0.2
-0.215
-0.225
-0.22
-0.255
-0.305
-0.355
-0.38
-0.425
-0.445
-0.465
-0.465
-0.465
-0.475
-0.51
-0.53
-0.555
-0.56
-0.54
-0.53
-0.525
-0.56
-0.605
-0.635
-0.67
-0.67
-0.665
-0.66
-0.67
-0.695
-0.685
-0.66
-0.62
-0.6
-0.615
-0.64
-0.665
-0.665
-0.66
-0.665
-0.66
-0.64
-0.62
-0.63
-0.655
-0.665
-0.685
-0.68
-0.645
-0.625
-0.61
-0.62
-0.63
-0.65
-0.665
-0.69
-0.685
-0.685
-0.65
-0.62
-0.615
-0.615
-0.625
-0.635
-0.63
-0.615
-0.59
-0.595
-0.605
-0.6
-0.6
-0.59
-0.575
-0.57
-0.575
-0.585
-0.58
-0.575
-0.575
-0.585
-0.61
-0.625
-0.655
-0.64
-0.63
-0.625
-0.635
-0.635
-0.635
-0.615
-0.6
-0.6
-0.62
-0.645
-0.67
-0.665
-0.63
-0.605
-0.59
-0.61
-0.63
-0.655
-0.64
-0.63
-0.605
-0.605
-0.615
-0.615
-0.61
-0.62
-0.615
-0.64
-0.635
-0.605
-0.57
-0.56
-0.58
-0.615
-0.62
-0.55
-0.505
-0.46
-0.44
-0.435
-0.415
-0.38
-0.36
-0.33
-0.33
-0.32
-0.265
-0.21
-0.18
-0.195
-0.24
-0.29
-0.315
-0.33
-0.31
-0.275
-0.275
-0.275
-0.3
-0.305
-0.295
-0.295
-0.285
-0.28
-0.23
-0.055
0.3
0.83
1.29
1.49
1.43
1.305
1.23
1.175
1.115
1.01
0.9
0.795
0.7
0.635
0.545
0.43
0.295
0.145
0.01
-0.11
-0.235
-0.365
-0.52
-0.675
-0.87
-1.095
-1.33
-1.535
-1.69
-1.805
-1.87
-1.915
-1.995
-2.095
-2.175
-2.21
-2.26
-2.335
-2.435
-2.565
-2.685
-2.8
-2.89
-2.955
-2.97
-2.895
-2.725
-2.49
-2.25
-2.05
-1.885
-1.775
-1.73
-1.7
-1.69
-1.66
-1.62
-1.58
-1.535
-1.5
-1.465
-1.45
-1.425
-1.405
-1.36
-1.27
-1.19
-1.105
-1.04
-1.015
-0.965
-0.905
-0.8
-0.68
-0.565
-0.48
-0.425
-0.38
-0.35
-0.305
-0.29
-0.27
-0.24
-0.195
-0.155
-0.13
-0.15
-0.155
-0.16
-0.12
-0.06
0.0
0.035
0.055
0.055
0.065
0.065
0.08
0.095
0.12
0.18
0.24
0.295
0.335
0.37
0.4
0.43
0.455
0.485
0.495
0.52
0.54
0.54
0.57
0.6
0.615
0.62
0.63
0.66
0.71
0.73
0.74
0.7
0.675
0.65
0.675
0.685
0.69
0.665
0.62
0.6
0.595
0.59
0.58
0.545
0.515
0.49
0.485
0.455
0.42
0.355
0.295
0.25
0.21
0.165
0.125
0.07
-0.005
-0.075
-0.155
-0.2
-0.2
-0.195
-0.195
-0.225
-0.27
-0.32
-0.355
-0.375
-0.405
-0.43
-0.465
-0.505
-0.525
-0.53
-0.545
-0.575
-0.595
-0.645
-0.64
-0.635
-0.63
-0.635
-0.635
-0.63
-0.615
-0.635
-0.64
-0.63
-0.62
-0.595
-0.595
-0.605
-0.62
-0.635
-0.635
-0.655
-0.665
-0.65
-0.635
-0.635
-0.655
-0.645
-0.65
-0.655
-0.67
-0.655
-0.605
-0.58
-0.605
-0.655
-0.685
-0.7
-0.66
-0.615
-0.58
-0.56
-0.535
-0.53
-0.485
-0.45
-0.43
-0.425
-0.41
-0.385
-0.32
-0.27
-0.24
-0.245
-0.235
-0.205
-0.195
-0.2
-0.25
-0.3
-0.35
-0.375
-0.37
-0.36
-0.33
-0.31
-0.305
