Lead II
-0.095
-0.095
-0.095
-0.095
-0.095
-0.095
-0.095
-0.095
-0.11
-0.14
-0.14
-0.135
-0.115
-0.11
-0.135
-0.15
-0.18
-0.175
-0.16
-0.15
-0.16
-0.17
-0.185
-0.18
-0.175
-0.155
-0.17
-0.195
-0.21
-0.175
-0.145
-0.135
-0.125
-0.145
-0.165
-0.155
-0.135
-0.12
-0.11
-0.11
-0.125
-0.12
-0.12
-0.1
-0.03
0.075
0.2
0.315
0.405
0.48
0.57
0.66
0.815
1.005
1.24
1.465
1.7
1.91
2.055
2.1
2.045
1.85
1.47
1.045
0.745
0.595
0.5
0.465
0.435
0.415
0.395
0.375
0.35
0.3
0.245
0.18
0.135
0.115
0.115
0.075
0.025
-0.02
-0.07
-0.1
-0.13
-0.155
-0.2
-0.245
-0.275
-0.29
-0.285
-0.275
-0.29
-0.305
-0.325
-0.325
-0.32
-0.33
-0.34
-0.35
-0.35
-0.345
-0.34
-0.34
-0.35
-0.36
-0.365
-0.375
-0.375
-0.36
-0.365
-0.395
-0.39
-0.395
-0.385
-0.405
-0.42
-0.425
-0.44
-0.44
-0.44
-0.45
-0.465
-0.46
-0.49
-0.475
-0.465
-0.48
-0.51
-0.53
-0.555
-0.56
-0.525
-0.535
-0.56
-0.59
-0.62
-0.585
-0.57
-0.56
-0.575
-0.585
-0.595
-0.565
-0.54
-0.525
-0.51
-0.525
-0.515
-0.47
-0.445
-0.41
-0.4
-0.39
-0.37
-0.345
-0.3
-0.29
-0.25
-0.235
-0.23
-0.22
-0.19
-0.165
-0.16
-0.16
-0.165
-0.15
-0.15
-0.15
-0.155
-0.165
-0.16
-0.155
-0.15
-0.155
-0.155
-0.165
-0.16
-0.145
-0.165
-0.165
-0.17
-0.175
-0.175
-0.16
-0.155
-0.155
-0.17
-0.205
-0.195
-0.185
-0.165
-0.175
-0.19
-0.2
-0.205
-0.185
-0.165
-0.155
-0.17
-0.195
-0.215
-0.205
-0.195
-0.19
-0.19
-0.195
-0.205
-0.195
-0.185
-0.185
-0.195
-0.185
-0.205
-0.195
-0.2
-0.17
-0.175
-0.19
-0.195
-0.185
-0.17
-0.185
-0.18
-0.18
-0.175
-0.175
-0.165
-0.165
-0.18
-0.19
-0.2
-0.19
-0.16
-0.165
-0.2
-0.195
-0.195
-0.18
-0.18
-0.16
-0.185
-0.205
-0.205
-0.21
-0.185
-0.185
-0.19
-0.205
-0.22
-0.21
-0.19
-0.17
-0.18
-0.195
-0.21
-0.2
-0.185
-0.195
-0.185
-0.19
-0.19
-0.175
-0.17
-0.16
-0.175
-0.18
-0.175
-0.165
-0.145
-0.14
-0.15
-0.19
-0.185
-0.13
-0.09
-0.11
-0.105
-0.125
-0.14
-0.115
-0.1
-0.1
-0.105
-0.14
-0.16
-0.155
-0.145
-0.16
-0.16
-0.175
-0.17
-0.175
-0.15
-0.16
-0.175
-0.19
-0.205
-0.2
-0.19
-0.19
-0.205
-0.2
-0.205
-0.19
-0.18
-0.21
-0.215
-0.215
-0.23
-0.215
-0.195
-0.185
-0.195
-0.205
-0.21
-0.18
-0.155
-0.14
-0.15
-0.17
-0.175
-0.165
-0.145
-0.135
-0.135
-0.16
-0.17
-0.145
-0.075
0.055
0.18
0.275
0.36
0.46
0.565
0.67
0.795
0.92
1.06
1.24
1.42
1.635
1.805
1.95
2.05
2.085
2.025
1.86
1.545
1.185
0.87
0.695
0.6
0.555
0.495
0.46
0.435
0.42
0.415
0.39
0.33
0.26
0.22
0.185
0.16
0.115
0.06
0.01
-0.015
-0.05
-0.075
-0.115
-0.16
-0.21
-0.24
-0.265
-0.25
-0.285
-0.315
-0.36
-0.38
-0.38
-0.36
-0.355
-0.365
-0.385
-0.415
-0.415
-0.41
-0.415
-0.42
-0.43
-0.43
-0.42
-0.41
-0.425
-0.435
-0.47
-0.465
-0.46
-0.445
-0.44
-0.46
-0.48
-0.485
-0.485
-0.49
-0.485
-0.51
-0.535
-0.555
-0.55
-0.53
-0.515
-0.535
-0.57
-0.565
-0.575
-0.585
-0.585
-0.59
-0.615
-0.63
-0.645
-0.635
-0.64
-0.67
-0.675
-0.685
-0.66
-0.645
-0.66
-0.695
-0.71
-0.71
-0.685
-0.675
-0.665
-0.67
-0.675
-0.685
-0.675
-0.655
-0.625
-0.6
-0.62
-0.6
-0.575
-0.54
-0.53
-0.505
-0.495
-0.465
-0.43
-0.39
-0.355
-0.335
-0.33
-0.31
-0.27
-0.265
-0.26
-0.27
-0.27
-0.265
-0.235
-0.195
-0.195
-0.21
-0.235
-0.23
-0.22
-0.195
-0.195
-0.21
-0.22
-0.22
-0.21
-0.2
-0.205
-0.21
-0.21
-0.21
-0.215
-0.195
-0.195
-0.205
-0.215
-0.215
-0.21
-0.19
-0.205
-0.21
-0.22
-0.23
-0.215
-0.195
-0.195
-0.21
-0.235
-0.24
-0.235
-0.23
-0.215
-0.215
-0.23
-0.245
-0.24
-0.23
-0.23
-0.235
-0.255
-0.235
-0.24
-0.22
-0.235
-0.24
-0.24
-0.245
-0.22
-0.225
-0.215
-0.225
-0.24
-0.25
-0.235
-0.205
-0.2
-0.22
-0.225
-0.23
-0.215
-0.2
-0.2
-0.21
-0.21
-0.215
-0.21
-0.205
-0.2
-0.2
-0.21
-0.215
-0.205
-0.185
-0.2
-0.215
-0.225
-0.205
-0.195
-0.19
-0.185
-0.185
-0.21
-0.225
-0.225
-0.185
-0.18
-0.18
-0.215
-0.245
-0.23
-0.205
-0.185
-0.19
-0.205
-0.21
-0.19
-0.19
-0.185
-0.205
-0.21
-0.22
-0.205
-0.19
-0.19
-0.185
-0.2
-0.205
-0.175
-0.155
-0.135
-0.17
-0.165
-0.165
-0.15
-0.125
-0.11
-0.125
-0.13
-0.13
-0.125
-0.13
-0.125
-0.125
-0.14
-0.145
-0.125
-0.13
-0.145
-0.16
-0.18
-0.18
-0.18
-0.16
-0.14
-0.155
-0.17
-0.2
-0.205
-0.175
-0.19
-0.195
-0.215
-0.215
-0.215
-0.215
-0.215
-0.215
-0.22
-0.21
-0.195
-0.185
-0.195
-0.205
-0.21
-0.19
-0.165
-0.155
-0.155
-0.165
-0.18
-0.175
-0.16
-0.135
-0.13
-0.14
-0.15
-0.145
-0.145
-0.125
-0.105
-0.075
-0.035
0.065
0.185
0.31
0.41
0.515
0.595
0.705
0.83
0.975
1.125
1.265
1.43
1.63
1.84
2.0
2.065
2.05
1.955
1.775
1.52
1.205
0.905
0.67
0.52
0.445
0.44
0.455
0.45
0.41
0.365
0.315
0.265
0.225
0.195
0.145
0.1
0.065
0.035
-0.02
-0.06
-0.1
-0.15
-0.17
-0.205
-0.215
-0.23
-0.26
-0.31
-0.335
-0.315
-0.3
-0.315
-0.325
-0.34
-0.35
-0.33
-0.33
-0.345
-0.37
-0.385
-0.395
-0.36
-0.34
-0.345
-0.355
-0.385
-0.4
-0.405
-0.38
-0.39
-0.4
-0.41
-0.445
-0.43
-0.42
-0.42
-0.415
-0.435
-0.455
-0.45
-0.455
-0.45
-0.475
-0.495
-0.495
-0.505
-0.495
-0.51
-0.535
-0.55
-0.55
-0.55
-0.55
-0.56
-0.59
-0.62
-0.615
-0.62
-0.62
-0.615
-0.62
-0.635
-0.655
-0.65
-0.615
-0.6
-0.615
-0.62
-0.63
-0.615
-0.595
-0.565
-0.56
-0.54
-0.52
-0.495
-0.47
-0.435
-0.41
-0.39
-0.375
-0.35
-0.32
-0.28
-0.275
-0.27
-0.255
-0.225
-0.19
-0.185
-0.175
-0.195
-0.205
-0.18
-0.17
-0.15
-0.155
-0.16
-0.18
-0.18
-0.155
-0.15
-0.16
-0.16
-0.155
-0.17
-0.175
-0.14
-0.145
-0.155
-0.16
-0.16
-0.145
-0.145
-0.165
-0.17
-0.18
-0.175
-0.155
-0.145
-0.16
-0.18
-0.19
-0.18
-0.165
-0.155
-0.145
-0.17
-0.18
-0.175
-0.165
-0.16
-0.185
-0.195
-0.215
-0.18
-0.165
-0.17
-0.175
-0.18
-0.18
-0.18
-0.16
-0.15
-0.165
-0.19
-0.2
-0.185
-0.17
-0.16
-0.165
-0.19
-0.165
-0.17
-0.155
-0.15
-0.155
-0.165
-0.165
-0.165
-0.155
-0.15
-0.17
-0.19
-0.175
-0.165
-0.145
-0.145
-0.155
-0.175
-0.18
-0.175
-0.145
-0.15
-0.14
-0.18
-0.18
-0.18
-0.16
-0.15
-0.155
-0.165
-0.17
-0.165
-0.155
-0.145
-0.165
-0.18
-0.185
-0.175
-0.15
-0.15
-0.16
-0.175
-0.195
-0.155
-0.14
-0.125
-0.135
-0.18
-0.18
-0.165
-0.155
-0.16
-0.16
-0.155
-0.15
-0.145
-0.13
-0.13
-0.14
-0.145
-0.15
-0.12
-0.105
-0.085
-0.1
-0.1
-0.12
-0.105
-0.07
-0.075
-0.09
-0.1
-0.12
-0.115
-0.1
-0.115
-0.125
-0.13
-0.145
-0.155
-0.155
-0.145
-0.135
-0.155
-0.17
-0.17
-0.165
-0.165
-0.18
-0.19
-0.2
-0.185
-0.18
-0.175
-0.2
-0.205
-0.195
-0.195
-0.175
-0.165
-0.175
-0.19
-0.195
-0.185
-0.17
-0.16
-0.17
-0.17
-0.165
-0.15
-0.14
-0.125
-0.145
-0.145
-0.135
-0.135
-0.12
-0.125
-0.135
-0.15
-0.15
-0.07
0.02
0.12
0.225
0.29
0.365
0.45
0.53
0.6
0.685
0.805
0.965
1.17
1.39
1.605
1.8
1.92
1.955
1.92
1.76
1.5
1.15
0.845
0.645
0.57
0.535
0.495
0.485
0.435
0.395
0.365
0.35
0.295
0.235
0.165
0.14
0.085
0.08
0.03
-0.01
-0.12
-0.135
-0.13
-0.155
-0.195
-0.235
-0.27
-0.28
-0.29
-0.3
-0.305
-0.325
-0.33
-0.33
-0.32
-0.33
-0.345
-0.35
-0.36
-0.355
-0.355
-0.345
-0.36
-0.38
-0.405
-0.4
-0.39
-0.38
-0.385
-0.41
-0.44
-0.41
-0.395
-0.395
-0.4
-0.42
-0.435
-0.45
-0.45
-0.45
-0.455
-0.47
-0.475
-0.505
-0.485
-0.5
-0.49
-0.51
-0.52
-0.52
-0.52
-0.52
-0.54
-0.56
-0.58
-0.575
-0.58
-0.58
-0.595
-0.615
-0.625
-0.605
-0.595
-0.585
-0.61
-0.63
-0.63
-0.605
-0.575
-0.56
-0.555
-0.555
-0.555
-0.52
-0.49
-0.47
-0.43
-0.44
-0.425
-0.4
-0.375
-0.345
-0.315
-0.3
-0.29
-0.255
-0.23
-0.23
-0.21
-0.205
-0.205
-0.18
-0.185
-0.165
-0.18
-0.185
-0.175
-0.165
-0.14
-0.155
-0.155
-0.19
-0.18
-0.18
-0.16
-0.155
-0.16
-0.185
-0.185
-0.175
-0.16
-0.155
-0.165
-0.17
-0.19
-0.18
-0.17
-0.17
-0.18
-0.18
-0.19
-0.18
-0.165
-0.16
-0.165
-0.2
-0.205
-0.2
-0.17
-0.185
-0.17
-0.205
-0.2
-0.185
-0.17
-0.17
-0.175
-0.19
-0.2
-0.18
-0.19
-0.19
-0.185
-0.195
-0.2
-0.19
-0.175
-0.17
-0.19
-0.195
-0.2
-0.195
-0.175
-0.17
-0.185
-0.205
-0.205
-0.19
-0.17
-0.17
-0.17
-0.175
-0.175
-0.18
-0.17
-0.16
-0.155
-0.17
-0.165
-0.16
-0.16
-0.165
-0.16
-0.175
-0.19
-0.16
-0.15
-0.135
-0.145
-0.165
-0.175
-0.175
-0.165
-0.16
-0.165
-0.175
-0.18
-0.17
-0.175
-0.17
-0.165
-0.18
-0.18
-0.175
-0.175
-0.17
-0.17
-0.2
-0.19
-0.185
-0.16
-0.155
-0.145
-0.17
-0.185
-0.195
-0.165
-0.165
-0.145
-0.165
-0.17
-0.16
-0.15
-0.135
-0.135
-0.135
-0.15
-0.13
-0.12
-0.105
-0.115
-0.115
-0.145
-0.13
-0.105
-0.08
-0.095
-0.1
-0.12
-0.115
-0.105
-0.1
-0.1
-0.135
-0.16
-0.15
-0.13
-0.135
-0.125
-0.125
-0.14
-0.14
-0.145
-0.145
-0.16
-0.18
-0.18
-0.18
-0.18
-0.18
-0.18
-0.185
-0.18
-0.175
-0.14
-0.15
-0.17
-0.195
-0.21
-0.19
-0.165
-0.145
-0.14
-0.165
-0.165
-0.165
-0.15
-0.14
-0.125
-0.13
-0.14
-0.145
-0.125
-0.115
-0.115
-0.125
-0.13
-0.06
0.055
0.175
0.305
0.405
0.525
0.65
0.79
0.965
1.17
1.355
1.555
1.745
1.905
2.0
2.03
1.995
1.94
1.845
1.65
1.335
1.0
0.74
0.585
0.53
0.505
0.485
0.465
0.415
0.355
0.315
0.285
0.255
0.23
0.185
0.15
0.13
0.09
0.06
0.0
-0.055
-0.1
-0.135
-0.175
-0.195
-0.235
-0.265
-0.285
-0.29
-0.285
-0.28
-0.305
-0.33
-0.335
-0.345
-0.345
-0.32
-0.325
-0.35
-0.35
-0.375
-0.36
-0.355
-0.365
-0.37
-0.395
-0.39
-0.385
-0.4
-0.41
-0.41
-0.41
-0.395
-0.405
-0.4
-0.41
-0.445
-0.455
-0.45
-0.435
-0.44
-0.465
-0.47
-0.515
-0.51
-0.51
-0.5
-0.515
-0.52
-0.53
-0.52
-0.51
-0.515
-0.535
-0.555
-0.585
-0.575
-0.565
-0.575
-0.59
-0.625
-0.635
-0.63
-0.61
-0.615
-0.625
-0.66
-0.655
-0.65
-0.645
-0.64
-0.635
-0.635
-0.62
-0.62
-0.605
-0.595
-0.595
-0.59
-0.56
-0.535
-0.505
-0.485
-0.475
-0.465
-0.47
-0.42
-0.395
-0.365
-0.365
-0.34
-0.325
-0.305
-0.28
-0.26
-0.25
-0.225
-0.22
-0.2
-0.165
-0.15
-0.165
-0.16
-0.155
-0.145
-0.13
-0.12
-0.16
-0.16
-0.165
-0.16
-0.145
-0.125
-0.13
-0.145
-0.165
-0.155
-0.14
-0.13
-0.13
-0.15
-0.155
-0.15
-0.14
-0.145
-0.155
-0.165
-0.175
-0.15
-0.145
-0.135
-0.135
-0.16
-0.17
-0.165
-0.15
-0.135
-0.15
-0.155
-0.17
-0.165
-0.17
-0.135
-0.16
-0.16
-0.16
-0.15
-0.145
-0.145
-0.165
-0.17
-0.17
-0.16
-0.145
-0.13
-0.15
-0.175
-0.17
-0.17
-0.16
-0.15
-0.15
-0.16
-0.165
-0.16
-0.15
-0.145
-0.145
-0.18
-0.155
-0.15
-0.155
-0.13
-0.15
-0.17
-0.16
-0.14
-0.15
-0.135
-0.14
-0.145
-0.155
-0.15
-0.12
-0.1
-0.115
-0.135
-0.13
-0.13
-0.12
-0.13
-0.13
-0.13
-0.145
-0.135
-0.12
-0.125
-0.115
-0.14
-0.14
-0.135
-0.125
-0.125
-0.125
-0.14
-0.14
-0.13
-0.11
-0.08
-0.105
-0.105
-0.125
-0.13
-0.13
-0.09
-0.1
-0.105
-0.105
-0.09
-0.08
-0.07
-0.07
-0.08
-0.08
-0.09
-0.055
-0.045
-0.065
-0.07
-0.08
-0.065
-0.055
-0.045
-0.065
-0.095
-0.11
-0.1
-0.08
-0.075
-0.09
-0.115
-0.125
-0.125
-0.115
-0.11
-0.125
-0.14
-0.155
-0.145
-0.16
-0.16
-0.15
-0.16
-0.15
-0.155
-0.15
-0.145
-0.15
-0.16
-0.15
-0.16
-0.14
-0.13
-0.135
-0.135
-0.135
-0.125
-0.1
-0.095
-0.115
-0.12
-0.115
-0.1
-0.085
-0.08
-0.1
-0.11
-0.06
0.065
0.225
0.32
0.385
0.435
0.52
0.66
0.845
1.055
1.26
1.46
1.67
1.88
2.015
2.045
1.98
1.785
1.47
1.125
0.835
0.665
0.545
0.46
0.415
0.395
0.41
0.405
0.355
0.3
0.26
0.215
0.19
0.16
0.11
0.075
0.02
0.01
-0.025
-0.05
-0.085
-0.135
-0.17
-0.19
-0.2
-0.22
-0.245
-0.275
-0.3
-0.295
-0.29
-0.27
-0.29
-0.31
-0.335
-0.315
-0.305
-0.29
-0.32
-0.34
-0.34
-0.355
-0.335
-0.32
-0.335
-0.355
-0.36
-0.365
-0.365
-0.38
-0.365
-0.38
-0.38
-0.39
-0.39
-0.385
-0.39
-0.42
-0.42
-0.41
-0.42
-0.43
-0.445
-0.47
-0.475
-0.47
-0.465
-0.47
-0.505
-0.53
-0.53
-0.53
-0.51
-0.51
-0.525
-0.545
-0.565
-0.58
-0.57
-0.555
-0.56
-0.59
-0.6
-0.585
-0.57
-0.55
-0.54
-0.55
-0.54
-0.52
-0.495
-0.465
-0.46
-0.455
-0.435
-0.395
-0.37
-0.335
-0.32
-0.3
-0.275
-0.25
-0.205
-0.19
-0.18
-0.2
-0.175
-0.165
-0.145
-0.13
-0.115
-0.135
-0.14
-0.135
-0.12
-0.11
-0.115
-0.115
-0.14
-0.14
-0.12
-0.12
-0.13
-0.145
-0.13
-0.135
-0.13
-0.125
-0.125
-0.14
-0.15
-0.135
-0.12
-0.115
-0.135
-0.15
-0.16
-0.145
-0.13
-0.12
-0.135
-0.14
-0.16
-0.165
-0.145
-0.135
-0.135
-0.135
-0.145
-0.15
-0.145
-0.125
-0.125
-0.145
-0.145
-0.14
-0.12
-0.13
-0.145
-0.165
-0.15
-0.14
-0.135
-0.135
-0.14
-0.145
-0.16
-0.14
-0.13
-0.11
-0.125
-0.13
-0.145
-0.14
-0.115
-0.105
-0.12
-0.12
-0.14
-0.13
-0.12
-0.11
-0.11
-0.12
-0.12
-0.11
-0.105
-0.115
-0.115
-0.135
-0.135
-0.13
-0.105
-0.115
-0.125
-0.15
-0.14
-0.14
-0.115
-0.12
-0.12
-0.15
-0.155
-0.145
-0.135
-0.125
-0.115
-0.13
-0.135
-0.13
-0.12
-0.11
-0.11
-0.13
-0.125
-0.13
-0.115
-0.09
-0.085
-0.1
-0.1
-0.075
-0.065
-0.06
-0.07
-0.07
-0.065
-0.055
-0.05
-0.025
-0.05
-0.05
-0.06
-0.04
-0.035
-0.03
-0.07
-0.085
-0.1
-0.1
-0.08
-0.07
-0.075
-0.085
-0.125
-0.13
-0.125
-0.105
-0.125
-0.14
-0.155
-0.155
-0.165
-0.135
-0.135
-0.14
-0.14
-0.14
-0.135
-0.135
-0.145
-0.15
-0.165
-0.145
-0.135
-0.11
-0.11
-0.13
-0.12
-0.1
-0.09
-0.085
-0.085
-0.09
-0.1
-0.08
-0.06
-0.015
0.045
0.155
0.28
0.385
0.5
0.605
0.715
0.86
1.04
1.23
1.385
1.54
1.67
1.815
1.96
2.06
2.075
2.005
1.795
1.455
1.1
0.805
0.655
0.585
0.535
0.51
0.47
0.445
0.42
0.39
0.34
0.29
0.25
0.19
0.165
0.115
0.07
0.005
-0.055
-0.065
-0.105
-0.13
-0.185
-0.23
-0.24
-0.265
-0.255
-0.27
-0.255
-0.285
-0.305
-0.31
-0.3
-0.295
-0.315
-0.33
-0.335
-0.335
-0.31
-0.305
-0.33
-0.35
-0.365
-0.35
-0.355
-0.36
-0.375
-0.38
-0.375
-0.375
-0.375
-0.365
-0.385
-0.41
-0.42
-0.41
-0.4
-0.4
-0.425
-0.46
-0.465
-0.45
-0.44
-0.43
-0.455
-0.475
-0.5
-0.495
-0.49
-0.49
-0.5
-0.52
-0.545
-0.545
-0.54
-0.535
-0.545
-0.565
-0.58
-0.585
-0.575
-0.565
-0.55
-0.57
-0.575
-0.57
-0.565
-0.55
-0.53
-0.525
-0.515
-0.48
-0.44
-0.43
-0.425
-0.4
-0.38
-0.345
-0.315
-0.29
-0.315
-0.28
-0.275
-0.24
-0.2
-0.18
-0.185
-0.2
-0.205
-0.175
-0.16
-0.125
-0.135
-0.155
-0.155
-0.16
-0.145
-0.14
-0.145
-0.15
-0.165
-0.155
-0.15
-0.145
-0.16
-0.17
-0.16
-0.145
-0.13
-0.135
-0.155
-0.16
-0.15
-0.14
-0.13
-0.13
-0.16
-0.16
-0.175
-0.16
-0.15
-0.14
-0.14
-0.165
-0.18
-0.19
-0.17
-0.155
-0.16
-0.175
-0.21
-0.19
-0.18
-0.16
-0.17
-0.185
-0.18
-0.165
-0.165
-0.155
-0.185
-0.19
-0.19
-0.175
-0.165
-0.165
-0.185
-0.195
-0.195
-0.165
-0.145
-0.145
-0.15
-0.185
-0.195
-0.185
-0.18
-0.17
-0.155
-0.17
-0.18
-0.18
-0.16
-0.145
-0.16
-0.165
-0.18
-0.17
-0.18
-0.16
-0.175
-0.175
-0.165
-0.155
-0.15
-0.13
-0.14
-0.15
-0.13
-0.11
-0.105
-0.09
-0.075
-0.06
-0.05
-0.025
0.01
0.055
0.085
0.1
0.15
0.225
0.335
0.425
0.535
0.58
0.61
0.665
0.74
0.785
0.85
0.89
0.93
0.975
0.99
1.005
0.975
0.93
0.845
0.67
0.325
-0.11
-0.61
-1.01
-1.295
-1.465
-1.6
-1.675
-1.72
-1.71
-1.66
-1.625
-1.575
-1.53
-1.45
-1.38
-1.335
-1.315
-1.28
-1.23
-1.185
-1.165
-1.135
-1.095
-1.05
-1.02
-1.03
-1.03
-1.035
-1.025
-0.98
-0.935
-0.87
-0.81
-0.735
-0.64
-0.535
-0.46
-0.36
-0.305
-0.265
-0.23
-0.195
-0.155
-0.14
-0.115
-0.105
-0.09
-0.06
-0.05
-0.05
-0.025
-0.02
-0.005
0.03
0.055
0.07
0.075
0.075
0.085
0.105
0.11
0.135
0.165
0.19
0.22
0.245
0.27
0.29
0.31
0.34
0.38
0.415
0.44
0.475
0.48
0.515
0.535
0.575
0.6
0.63
0.65
0.675
0.695
0.75
0.785
0.795
0.805
0.81
0.84
0.875
0.89
0.885
0.87
0.855
0.855
0.88
0.89
0.87
0.835
0.8
0.795
0.795
0.765
0.745
0.7
0.655
0.63
0.625
0.605
0.565
0.515
0.465
0.43
0.4
0.365
0.31
0.265
0.22
0.18
0.155
0.13
0.105
0.075
0.03
-0.01
0.01
-0.01
-0.02
-0.04
-0.06
-0.065
-0.065
-0.075
-0.085
-0.105
-0.125
-0.105
-0.095
-0.095
-0.12
-0.13
-0.13
-0.135
-0.105
-0.105
-0.13
-0.145
-0.165
-0.165
-0.135
-0.14
-0.14
-0.16
-0.17
-0.175
-0.16
-0.14
-0.165
-0.16
-0.175
-0.18
-0.155
-0.145
-0.14
-0.16
-0.18
-0.19
-0.18
-0.18
-0.18
-0.17
-0.17
-0.165
-0.175
-0.185
-0.18
-0.19
-0.185
-0.17
-0.16
-0.17
-0.18
-0.205
-0.19
-0.17
-0.155
-0.155
-0.155
-0.17
-0.185
-0.18
-0.175
-0.165
-0.175
-0.19
-0.2
-0.205
-0.185
-0.175
-0.17
-0.175
-0.195
-0.195
-0.185
-0.17
-0.17
-0.18
-0.2
-0.2
-0.185
-0.17
-0.18
-0.18
-0.18
-0.18
-0.17
-0.17
-0.18
-0.195
-0.215
-0.205
-0.19
-0.18
-0.18
-0.19
-0.2
-0.185
-0.175
-0.175
-0.185
-0.22
-0.215
-0.21
-0.175
-0.17
-0.18
-0.19
-0.215
-0.21
-0.185
-0.18
-0.18
-0.195
-0.215
-0.2
-0.185
-0.16
-0.16
-0.175
-0.185
-0.185
-0.175
-0.16
-0.165
-0.19
-0.185
-0.185
-0.17
-0.17
-0.17
-0.17
-0.185
-0.185
-0.17
-0.165
-0.16
-0.165
-0.16
-0.135
-0.115
-0.095
-0.115
-0.12
-0.13
-0.115
-0.1
-0.09
-0.1
-0.1
-0.105
-0.09
-0.08
-0.07
-0.09
-0.11
-0.11
-0.1
-0.1
-0.075
-0.105
-0.14
-0.17
-0.16
-0.14
-0.14
-0.165
-0.175
-0.19
-0.185
-0.18
-0.18
-0.165
-0.165
-0.18
-0.19
-0.17
-0.175
-0.175
-0.175
-0.185
-0.175
-0.165
-0.15
-0.165
-0.17
-0.17
-0.155
-0.135
-0.125
-0.13
-0.145
-0.155
-0.125
-0.06
0.055
0.175
0.265
0.38
0.515
0.655
0.83
1.025
1.23
1.44
1.66
1.87
2.01
2.07
2.085
2.045
1.97
1.75
1.375
0.95
0.625
0.47
0.425
0.4
0.385
0.345
0.27
0.225
0.18
0.16
0.12
0.085
0.06
0.03
0.01
-0.005
-0.045
-0.115
-0.155
-0.195
-0.215
-0.23
-0.255
-0.29
-0.335
-0.345
-0.33
-0.31
-0.305
-0.33
-0.355
-0.395
-0.405
-0.38
-0.365
-0.375
-0.385
-0.405
-0.4
-0.39
-0.38
-0.39
-0.415
-0.425
-0.42
-0.405
-0.39
-0.4
-0.425
-0.425
-0.445
-0.44
-0.44
-0.45
-0.475
-0.47
-0.465
-0.475
-0.485
-0.495
-0.505
-0.525
-0.505
-0.5
-0.515
-0.545
-0.57
-0.575
-0.565
-0.555
-0.58
-0.595
-0.61
-0.63
-0.62
-0.605
-0.605
-0.63
-0.65
-0.645
-0.65
-0.62
-0.6
-0.6
-0.61
-0.61
-0.58
-0.54
-0.5
-0.49
-0.48
-0.46
-0.45
-0.41
-0.375
-0.35
-0.335
-0.33
-0.3
-0.27
-0.23
-0.205
-0.2
-0.2
-0.18
-0.155
-0.16
-0.14
-0.145
-0.15
-0.16
-0.145
-0.14
-0.135
-0.16
-0.155
-0.155
-0.145
-0.13
-0.16
-0.17
-0.175
-0.16
-0.155
-0.15
-0.165
-0.185
-0.185
-0.18
-0.16
-0.155
-0.145
-0.18
-0.19
-0.17
-0.155
-0.135
-0.16
-0.18
-0.19
-0.165
-0.155
-0.14
-0.15
-0.16
-0.185
-0.165
-0.145
-0.14
-0.14
-0.155
-0.15
-0.17
-0.16
-0.15
-0.155
-0.145
-0.145
-0.15
-0.135
-0.13
-0.13
-0.135
-0.14
-0.14
-0.12
-0.12
-0.13
-0.15
-0.165
-0.155
-0.135
-0.14
-0.135
-0.17
-0.155
-0.15
-0.145
-0.125
-0.145
-0.155
-0.165
-0.165
-0.155
-0.135
-0.165
-0.175
-0.185
-0.17
-0.15
-0.145
-0.15
-0.175
-0.155
-0.155
-0.135
-0.115
-0.11
-0.115
-0.115
-0.09
-0.08
-0.065
-0.065
-0.08
-0.09
-0.08
-0.07
-0.055
-0.06
-0.075
-0.08
-0.06
-0.065
-0.065
-0.065
-0.095
-0.105
-0.095
-0.08
-0.085
-0.1
-0.125
-0.15
-0.14
-0.145
-0.14
-0.16
-0.18
-0.195
-0.18
-0.165
-0.155
-0.15
-0.165
-0.185
-0.18
-0.17
-0.17
-0.17
-0.17
-0.185
-0.185
-0.165
-0.165
-0.16
-0.16
-0.155
-0.15
-0.135
-0.125
-0.13
-0.15
-0.15
-0.14
-0.09
-0.01
0.075
0.165
0.265
0.38
0.5
0.61
0.735
0.87
1.06
1.245
1.445
1.62
1.75
1.835
1.89
1.915
1.935
1.86
1.65
1.34
1.025
0.785
0.64
0.555
0.48
0.44
0.415
0.385
0.37
0.335
0.285
0.235
0.18
0.145
0.135
0.12
0.08
0.025
-0.025
-0.075
-0.09
-0.12
-0.15
-0.205
-0.24
-0.26
-0.28
-0.3
-0.315
-0.34
-0.35
-0.345
-0.34
-0.345
-0.37
-0.375
-0.395
-0.38
-0.375
-0.36
-0.395
-0.41
-0.43
-0.425
-0.4
-0.395
-0.43
-0.435
-0.44
-0.43
-0.43
-0.415
-0.425
-0.44
-0.45
-0.45
-0.445
-0.45
-0.455
-0.465
-0.48
-0.48
-0.48
-0.475
-0.495
-0.525
-0.535
-0.53
-0.515
-0.5
-0.515
-0.54
-0.565
-0.565
-0.56
-0.565
-0.565
-0.585
-0.605
-0.6
-0.61
-0.61
-0.625
-0.63
-0.645
-0.64
-0.645
-0.625
-0.645
-0.655
-0.67
-0.635
-0.615
-0.59
-0.6
-0.605
-0.6
-0.585
-0.55
-0.52
-0.505
-0.495
-0.49
-0.47
-0.445
-0.405
-0.375
-0.375
-0.355
-0.335
-0.31
-0.29
-0.295
-0.28
-0.275
-0.24
-0.21
-0.205
-0.2
-0.215
-0.225
-0.21
-0.16
-0.15
-0.155
-0.19
-0.19
-0.185
-0.16
-0.155
-0.16
-0.16
-0.18
-0.175
-0.165
-0.18
-0.175
-0.175
-0.185
-0.165
-0.16
-0.16
-0.17
-0.185
-0.195
-0.185
-0.16
-0.145
-0.17
-0.17
-0.18
-0.185
-0.17
-0.165
-0.17
-0.18
-0.195
-0.185
-0.18
-0.155
-0.165
-0.2
-0.195
-0.2
-0.19
-0.18
-0.18
-0.215
-0.225
-0.2
-0.165
-0.16
-0.16
-0.195
-0.215
-0.2
-0.175
-0.17
-0.175
-0.16
-0.19
-0.175
-0.17
-0.17
-0.155
-0.17
-0.175
-0.195
-0.175
-0.17
-0.17
-0.185
-0.195
-0.175
-0.175
-0.155
-0.17
-0.18
-0.195
-0.185
-0.165
-0.155
-0.155
-0.16
-0.175
-0.185
-0.18
-0.155
-0.16
-0.17
-0.175
-0.16
-0.155
-0.14
-0.155
-0.17
-0.18
-0.16
-0.15
-0.135
-0.14
-0.145
-0.145
-0.14
-0.11
-0.08
-0.08
-0.095
-0.105
-0.12
-0.095
-0.095
-0.11
-0.105
-0.115
-0.095
-0.08
-0.055
-0.06
-0.08
-0.07
-0.075
-0.07
-0.055
-0.065
-0.09
-0.1
-0.085
-0.07
-0.055
-0.065
-0.075
-0.09
-0.095
-0.09
-0.09
-0.125
-0.135
-0.14
-0.14
-0.145
-0.145
-0.14
-0.165
-0.155
-0.14
-0.13
-0.105
-0.115
-0.14
-0.155
-0.155
-0.135
-0.14
-0.145
-0.14
-0.155
-0.155
-0.14
-0.13
-0.13
-0.145
-0.145
-0.135
-0.12
-0.1
-0.11
-0.125
-0.15
-0.145
-0.125
-0.11
-0.09
-0.06
-0.005
0.095
0.2
0.3
0.38
0.45
0.55
0.655
0.8
0.935
1.1
1.245
1.39
1.56
1.72
1.83
1.87
1.875
1.865
1.825
1.75
1.63
1.43
1.17
0.93
0.72
0.58
0.5
0.435
0.395
0.37
0.345
0.355
0.325
0.275
0.22
0.165
0.125
0.115
0.105
0.09
0.06
0.03
0.005
-0.02
-0.07
-0.095
-0.13
-0.175
-0.205
-0.225
-0.235
-0.29
-0.305
-0.33
-0.34
-0.335
-0.32
-0.33
-0.35
-0.375
-0.37
-0.37
-0.36
-0.36
-0.365
-0.38
-0.39
-0.39
-0.38
-0.38
-0.405
-0.405
-0.41
-0.415
-0.405
-0.42
-0.435
-0.445
-0.455
-0.43
-0.41
-0.41
-0.435
-0.465
-0.465
-0.455
-0.445
-0.46
-0.48
-0.495
-0.51
-0.495
-0.5
-0.49
-0.52
-0.53
-0.52
-0.53
-0.53
-0.555
-0.565
-0.59
-0.585
-0.57
-0.57
-0.59
-0.62
-0.64
-0.645
-0.625
-0.615
-0.62
-0.65
-0.665
-0.66
-0.645
-0.64
-0.645
-0.635
-0.625
-0.605
-0.59
-0.58
-0.575
-0.575
-0.535
-0.515
-0.465
-0.44
-0.415
-0.405
-0.395
-0.375
-0.335
-0.29
-0.275
-0.285
-0.265
-0.25
-0.22
-0.205
-0.19
-0.19
-0.19
-0.175
-0.175
-0.15
-0.15
-0.14
-0.155
-0.135
-0.13
-0.12
-0.13
-0.145
-0.135
-0.13
-0.105
-0.085
-0.075
-0.075
-0.055
-0.02
0.05
0.14
0.22
0.31
0.395
0.5
0.63
0.745
0.865
0.955
1.04
1.115
1.2
1.25
1.295
1.295
1.245
1.14
0.93
0.62
0.24
-0.12
-0.435
-0.695
-0.89
-1.065
-1.18
-1.31
-1.4
-1.46
-1.53
-1.59
-1.675
-1.735
-1.795
-1.84
-1.855
-1.89
-1.905
-1.935
-1.96
-1.96
-1.92
-1.855
-1.785
-1.67
-1.51
-1.355
-1.21
-1.105
-1.035
-0.99
-0.93
-0.885
-0.84
-0.795
-0.765
-0.735
-0.75
-0.72
-0.685
-0.6
-0.545
-0.51
-0.47
-0.42
-0.35
-0.31
-0.27
-0.23
-0.2
-0.165
-0.105
-0.06
-0.045
-0.055
-0.05
-0.005
0.035
0.075
0.085
0.085
0.095
0.115
0.135
0.185
0.205
0.22
0.24
0.25
0.285
0.335
0.325
0.35
0.345
0.39
0.43
0.49
0.5
0.51
0.515
0.555
0.6
0.64
0.665
0.68
0.7
0.72
0.745
0.78
0.81
0.83
0.865
0.895
0.925
0.935
0.955
0.95
0.945
0.99
1.02
1.05
1.06
1.075
1.07
1.085
1.1
1.135
1.15
1.14
1.135
1.135
1.14
1.15
1.125
1.13
1.115
1.12
1.115
1.115
1.095
1.06
1.025
1.0
1.005
0.98
0.965
0.91
0.875
0.845
0.83
0.805
0.765
0.725
0.69
0.66
0.635
0.595
0.56
0.535
0.495
0.475
0.44
0.425
0.385
0.335
0.285
0.25
0.235
0.215
0.19
0.145
0.105
0.1
0.075
0.055
0.04
0.015
0.0
0.005
0.015
0.0
-0.02
-0.05
-0.07
-0.085
-0.06
-0.05
-0.05
-0.075
-0.11
-0.12
-0.1
-0.1
-0.11
-0.125
-0.145
-0.13
-0.125
-0.11
-0.135
-0.145
-0.145
-0.145
-0.14
-0.135
-0.145
-0.165
-0.16
-0.165
-0.17
-0.15
-0.155
-0.16
-0.185
-0.18
-0.165
-0.15
-0.17
-0.18
-0.21
-0.21
-0.19
-0.17
-0.175
-0.195
-0.205
-0.215
-0.195
-0.195
-0.215
-0.22
-0.215
-0.2
-0.2
-0.195
-0.21
-0.23
-0.24
-0.22
-0.2
-0.195
-0.2
-0.21
-0.23
-0.225
-0.23
-0.22
-0.22
-0.225
-0.245
-0.255
-0.23
-0.23
-0.24
-0.255
-0.25
-0.25
-0.225
-0.23
-0.225
-0.24
-0.26
-0.255
-0.25
-0.23
-0.24
-0.255
-0.265
-0.265
-0.26
-0.245
-0.25
-0.26
-0.275
-0.26
-0.25
-0.245
-0.255
-0.26
-0.28
-0.27
-0.23
-0.235
-0.24
-0.26
-0.265
-0.26
-0.27
-0.25
-0.25
-0.26
-0.27
-0.27
-0.255
-0.245
-0.235
-0.25
-0.265
-0.26
-0.255
-0.25
-0.27
-0.285
-0.275
-0.26
-0.245
-0.23
-0.24
-0.25
-0.27
-0.26
-0.245
-0.245
-0.235
-0.24
-0.255
-0.255
-0.245
-0.225
-0.235
-0.255
-0.26
-0.255
-0.24
-0.235
-0.245
-0.255
-0.25
-0.245
-0.23
-0.22
-0.23
-0.255
-0.255
-0.245
-0.23
-0.225
-0.225
-0.255
-0.25
-0.25
-0.23
-0.23
-0.225
-0.225
-0.24
-0.25
-0.24
-0.215
-0.215
-0.235
-0.235
-0.235
-0.23
-0.21
-0.215
-0.23
-0.23
-0.235
-0.215
-0.21
-0.225
-0.23
-0.235
-0.225
-0.205
-0.185
-0.2
-0.215
-0.23
-0.21
-0.2
-0.2
-0.21
-0.225
-0.245
-0.24
-0.21
