Lead II
-0.73
-0.715
-0.69
-0.685
-0.68
-0.675
-0.655
-0.63
-0.605
-0.595
-0.59
-0.59
-0.58
-0.56
-0.525
-0.48
-0.455
-0.425
-0.395
-0.39
-0.375
-0.355
-0.335
-0.305
-0.27
-0.23
-0.19
-0.16
-0.13
-0.1
-0.085
-0.05
-0.015
0.0
0.03
0.06
0.085
0.1
0.13
0.16
0.2
0.215
0.225
0.22
0.205
0.21
0.195
0.19
0.215
0.21
0.22
0.215
0.195
0.165
0.13
0.1
0.065
0.05
0.02
0.005
-0.015
-0.045
-0.075
-0.105
-0.13
-0.155
-0.16
-0.18
-0.215
-0.235
-0.28
-0.305
-0.325
-0.35
-0.345
-0.365
-0.395
-0.425
-0.45
-0.48
-0.495
-0.51
-0.52
-0.52
-0.515
-0.525
-0.535
-0.545
-0.54
-0.54
-0.54
-0.535
-0.53
-0.525
-0.535
-0.545
-0.55
-0.54
-0.525
-0.5
-0.475
-0.445
-0.43
-0.41
-0.395
-0.37
-0.35
-0.32
-0.3
-0.285
-0.27
-0.27
-0.255
-0.275
-0.27
-0.27
-0.3
-0.36
-0.42
-0.48
-0.525
-0.585
-0.605
-0.61
-0.61
-0.625
-0.625
-0.64
-0.65
-0.655
-0.665
-0.65
-0.65
-0.635
-0.63
-0.63
-0.645
-0.66
-0.655
-0.65
-0.645
-0.635
-0.65
-0.635
-0.645
-0.66
-0.68
-0.68
-0.71
-0.72
-0.72
-0.7
-0.575
-0.395
-0.125
0.22
0.61
1.02
1.435
1.775
2.01
2.075
1.96
1.705
1.365
0.955
0.53
0.12
-0.28
-0.605
-0.875
-1.08
-1.24
-1.32
-1.32
-1.255
-1.16
-1.045
-0.965
-0.915
-0.895
-0.905
-0.935
-0.945
-0.955
-0.955
-0.97
-0.98
-0.995
-1.0
-1.015
-1.01
-1.01
-0.99
-0.98
-0.985
-1.005
-1.02
-1.04
-1.065
-1.05
-1.055
-1.05
-1.05
-1.04
-1.05
-1.05
-1.04
-1.04
-1.02
-1.01
-1.0
-0.995
-0.995
-1.005
-1.01
-0.99
-0.975
-0.945
-0.915
-0.9
-0.885
-0.88
-0.86
-0.85
-0.825
-0.79
-0.75
-0.69
-0.675
-0.65
-0.625
-0.59
-0.57
-0.52
-0.49
-0.46
-0.425
-0.38
-0.35
-0.295
-0.225
-0.155
-0.085
-0.03
0.005
0.035
0.05
0.085
0.12
0.155
0.19
0.195
0.21
0.2
0.195
0.17
0.165
0.14
0.12
0.095
0.065
0.01
-0.025
-0.065
-0.07
-0.065
-0.07
-0.08
-0.1
-0.14
-0.17
-0.205
-0.225
-0.25
-0.27
-0.285
-0.31
-0.34
-0.39
-0.425
-0.46
-0.485
-0.505
-0.535
-0.54
-0.56
-0.585
-0.6
-0.61
-0.595
-0.585
-0.57
-0.58
-0.595
-0.62
-0.635
-0.64
-0.64
-0.63
-0.62
-0.62
-0.625
-0.64
-0.64
-0.63
-0.54
-0.42
-0.26
-0.05
0.235
0.605
1.045
1.505
1.9
2.16
2.22
2.1
1.83
1.49
1.12
0.755
0.38
0.02
-0.34
-0.67
-0.9
-0.975
-0.95
-0.86
-0.77
-0.71
-0.715
-0.76
-0.81
-0.85
-0.89
-0.895
-0.89
-0.88
-0.87
-0.885
-0.9
-0.935
-0.975
-0.975
-0.985
-0.985
-0.985
-0.985
-0.975
-0.99
-1.0
-1.025
-1.02
-1.03
-1.025
-1.04
-1.045
-1.055
-1.05
-1.055
-1.05
-1.035
-1.01
-1.005
-0.995
-0.995
-0.995
-0.985
-0.98
-0.945
-0.925
-0.875
-0.835
-0.79
-0.755
-0.72
-0.69
-0.64
-0.605
-0.56
-0.525
-0.485
-0.44
-0.395
-0.35
-0.29
-0.235
-0.16
-0.125
-0.06
-0.025
-0.005
0.025
0.055
0.09
0.105
0.115
0.14
0.14
0.135
0.13
0.135
0.145
0.145
0.135
0.13
0.12
0.1
0.085
0.06
0.04
0.02
-0.005
-0.005
-0.025
-0.06
-0.105
-0.125
-0.14
-0.135
-0.14
-0.13
-0.165
-0.175
-0.205
-0.245
-0.27
-0.315
-0.335
-0.34
-0.355
-0.365
-0.375
-0.405
-0.43
-0.46
-0.46
-0.47
-0.465
-0.47
-0.475
-0.47
-0.48
-0.495
-0.49
-0.485
-0.455
-0.445
-0.435
-0.425
-0.44
-0.46
-0.47
-0.46
-0.445
-0.425
-0.415
-0.415
-0.405
-0.405
-0.4
-0.41
-0.39
-0.395
-0.38
-0.39
-0.395
-0.395
-0.4
-0.405
-0.4
-0.39
-0.385
-0.395
-0.405
-0.405
-0.415
-0.41
-0.39
-0.395
-0.38
-0.375
-0.38
-0.375
-0.375
-0.375
-0.38
-0.385
-0.375
-0.365
-0.35
-0.35
-0.345
-0.35
-0.365
-0.37
-0.395
-0.39
-0.375
-0.37
-0.35
-0.335
-0.305
-0.265
-0.24
-0.235
-0.225
-0.235
-0.245
-0.265
-0.28
-0.28
-0.275
-0.27
-0.265
-0.285
-0.31
-0.35
-0.395
-0.43
-0.45
-0.45
-0.445
-0.435
-0.43
-0.43
-0.41
-0.435
-0.44
-0.43
-0.425
-0.415
-0.415
-0.415
-0.435
-0.455
-0.45
-0.445
-0.42
-0.39
-0.365
-0.34
-0.33
-0.34
-0.375
-0.405
-0.43
-0.46
-0.47
-0.465
-0.45
-0.395
-0.265
-0.07
0.2
0.525
0.895
1.295
1.65
1.99
2.21
2.29
2.195
1.94
1.63
1.27
0.88
0.47
0.065
-0.305
-0.64
-0.89
-1.045
-1.09
-1.05
-0.93
-0.795
-0.685
-0.61
-0.585
-0.605
-0.64
-0.67
-0.685
-0.7
-0.695
-0.71
-0.71
-0.7
-0.71
-0.7
-0.69
-0.695
-0.705
-0.7
-0.735
-0.725
-0.705
-0.695
-0.695
-0.665
-0.645
-0.64
-0.635
-0.635
-0.635
-0.64
-0.625
-0.61
-0.59
-0.575
-0.565
-0.545
-0.54
-0.525
-0.505
-0.475
-0.455
-0.455
-0.46
-0.47
-0.46
-0.44
-0.4
-0.345
-0.305
-0.28
-0.275
-0.285
-0.285
-0.28
-0.24
-0.22
-0.18
-0.135
-0.115
-0.09
-0.065
-0.055
-0.02
0.01
0.04
0.055
0.07
0.09
0.1
0.12
0.15
0.18
0.23
0.26
0.3
0.315
0.325
0.34
0.35
0.36
0.375
0.38
0.39
0.375
0.375
0.345
0.32
0.295
0.28
0.27
0.255
0.245
0.215
0.195
0.175
0.145
0.115
0.09
0.04
-0.005
-0.04
-0.1
-0.13
-0.17
-0.19
-0.2
-0.22
-0.24
-0.26
-0.285
-0.31
-0.32
-0.32
-0.345
-0.34
-0.355
-0.355
-0.375
-0.37
-0.365
-0.345
-0.325
-0.335
-0.35
-0.355
-0.365
-0.385
-0.39
-0.37
-0.35
-0.325
-0.335
-0.325
-0.325
-0.33
-0.315
-0.295
-0.275
-0.245
-0.22
-0.19
-0.17
-0.155
-0.135
-0.125
-0.105
-0.095
-0.09
-0.105
-0.135
-0.15
-0.185
-0.23
-0.29
-0.34
-0.4
-0.425
-0.46
-0.485
-0.5
-0.515
-0.52
-0.505
-0.505
-0.5
-0.495
-0.5
-0.515
-0.525
-0.53
-0.525
-0.515
-0.495
-0.49
-0.5
-0.515
-0.53
-0.535
-0.535
-0.54
-0.525
-0.515
-0.545
-0.58
-0.61
-0.63
-0.585
-0.47
-0.255
0.015
0.32
0.615
0.95
1.315
1.69
1.97
2.09
2.005
1.735
1.35
0.88
0.415
-0.045
-0.445
-0.75
-0.99
-1.155
-1.23
-1.23
-1.18
-1.1
-1.02
-0.925
-0.855
-0.81
-0.785
-0.81
-0.845
-0.86
-0.87
-0.895
-0.9
-0.905
-0.9
-0.885
-0.89
-0.895
-0.9
-0.91
-0.92
-0.925
-0.935
-0.935
-0.93
-0.93
-0.94
-0.945
-0.94
-0.93
-0.925
-0.905
-0.89
-0.89
-0.88
-0.875
-0.88
-0.875
-0.865
-0.83
-0.81
-0.78
-0.77
-0.76
-0.76
-0.76
-0.755
-0.73
-0.705
-0.67
-0.655
-0.625
-0.605
-0.58
-0.56
-0.525
-0.495
-0.45
-0.425
-0.405
-0.39
-0.375
-0.355
-0.32
-0.295
-0.27
-0.23
-0.185
-0.155
-0.11
-0.1
-0.075
-0.055
-0.035
-0.015
0.005
0.03
0.045
0.045
0.07
0.075
0.07
0.085
0.075
0.085
0.09
0.065
0.055
0.03
0.015
0.005
-0.015
-0.025
-0.065
-0.095
-0.12
-0.17
-0.2
-0.235
-0.26
-0.27
-0.285
-0.3
-0.31
-0.35
-0.375
-0.405
-0.44
-0.455
-0.48
-0.5
-0.51
-0.52
-0.54
-0.55
-0.56
-0.565
-0.565
-0.575
-0.565
-0.575
-0.595
-0.605
-0.61
-0.615
-0.595
-0.575
-0.56
-0.555
-0.57
-0.575
-0.585
-0.575
-0.555
-0.53
-0.48
-0.43
-0.395
-0.375
-0.375
-0.355
-0.345
-0.335
-0.32
-0.31
-0.31
-0.315
-0.33
-0.35
-0.38
-0.415
-0.44
-0.485
-0.53
-0.58
-0.62
-0.66
-0.68
-0.7
-0.69
-0.665
-0.65
-0.64
-0.62
-0.64
-0.64
-0.655
-0.675
-0.68
-0.685
-0.675
-0.66
-0.645
-0.64
-0.64
-0.635
-0.635
-0.635
-0.63
-0.64
-0.665
-0.695
-0.73
-0.75
-0.75
-0.71
-0.585
-0.375
-0.095
0.255
0.635
1.07
1.485
1.815
2.0
1.965
1.755
1.405
0.985
0.525
0.07
-0.33
-0.65
-0.88
-1.03
-1.125
-1.17
-1.175
-1.145
-1.055
-0.965
-0.86
-0.82
-0.8
-0.81
-0.855
-0.895
-0.925
-0.94
-0.935
-0.905
-0.895
-0.89
-0.895
-0.905
-0.915
-0.925
-0.945
-0.95
-0.94
-0.955
-0.945
-0.955
-0.965
-0.96
-0.965
-0.96
-0.945
-0.93
-0.92
-0.93
-0.93
-0.93
-0.915
-0.895
-0.865
-0.845
-0.82
-0.805
-0.8
-0.785
-0.775
-0.745
-0.715
-0.685
-0.66
-0.63
-0.61
-0.58
-0.535
-0.485
-0.44
-0.42
-0.375
-0.35
-0.33
-0.3
-0.245
-0.195
-0.145
-0.095
-0.045
-0.015
0.0
0.03
0.065
0.1
0.14
0.17
0.185
0.205
0.22
0.22
0.24
0.27
0.275
0.275
0.245
0.235
0.215
0.19
0.175
0.175
0.17
0.18
0.155
0.13
0.11
0.075
0.045
0.025
0.005
-0.025
-0.055
-0.09
-0.12
-0.135
-0.15
-0.16
-0.18
-0.215
-0.235
-0.27
-0.32
-0.36
-0.39
-0.4
-0.4
-0.405
-0.415
-0.445
-0.46
-0.475
-0.48
-0.47
-0.48
-0.475
-0.475
-0.49
-0.485
-0.5
-0.5
-0.485
-0.47
-0.44
-0.42
-0.4
-0.385
-0.365
-0.34
-0.31
-0.275
-0.25
-0.23
-0.22
-0.23
-0.23
-0.24
-0.24
-0.25
-0.26
-0.275
-0.28
-0.33
-0.385
-0.45
-0.505
-0.55
-0.565
-0.58
-0.6
-0.6
-0.6
-0.59
-0.595
-0.59
-0.575
-0.555
-0.54
-0.53
-0.53
-0.53
-0.55
-0.565
-0.575
-0.565
-0.56
-0.55
-0.545
-0.535
-0.545
-0.56
-0.595
-0.61
-0.605
-0.57
-0.495
-0.335
-0.1
0.22
0.61
1.055
1.5
1.88
2.095
2.08
1.835
1.42
0.965
0.48
0.04
-0.32
-0.57
-0.76
-0.87
-0.94
-0.99
-1.005
-0.98
-0.91
-0.81
-0.72
-0.67
-0.655
-0.665
-0.695
-0.72
-0.725
-0.725
-0.745
-0.745
-0.765
-0.775
-0.775
-0.755
-0.735
-0.72
-0.72
-0.725
-0.76
-0.75
-0.76
-0.755
-0.745
-0.75
-0.73
-0.715
-0.71
-0.695
-0.665
-0.645
-0.635
-0.62
-0.625
-0.62
-0.62
-0.62
-0.58
-0.55
-0.52
-0.49
-0.455
-0.44
-0.425
-0.4
-0.38
-0.355
-0.33
-0.3
-0.255
-0.2
-0.17
-0.14
-0.105
-0.06
-0.025
0.01
0.05
0.075
0.09
0.12
0.13
0.17
0.21
0.25
0.285
0.315
0.325
0.345
0.35
0.35
0.36
0.365
0.37
0.39
0.385
0.405
0.415
0.41
0.4
0.385
0.385
0.365
0.35
0.32
0.28
0.26
0.245
0.225
0.21
0.18
0.155
0.13
0.105
0.065
0.035
0.01
-0.01
-0.02
-0.03
-0.05
-0.065
-0.1
-0.125
-0.18
-0.23
-0.27
-0.3
-0.315
-0.335
-0.375
-0.41
-0.44
-0.45
-0.45
-0.47
-0.485
-0.495
-0.51
-0.54
-0.565
-0.575
-0.575
-0.56
-0.535
-0.505
-0.505
-0.5
-0.52
-0.505
-0.5
-0.485
-0.485
-0.495
-0.49
-0.47
-0.45
-0.41
-0.36
-0.305
-0.26
-0.24
-0.23
-0.23
-0.24
-0.245
-0.225
-0.21
-0.175
-0.17
-0.185
-0.21
-0.28
-0.37
-0.44
-0.49
-0.515
-0.525
-0.53
-0.54
-0.555
-0.55
-0.555
-0.55
-0.535
-0.545
-0.55
-0.56
-0.56
-0.555
-0.54
-0.54
-0.52
-0.495
-0.48
-0.485
-0.5
-0.51
-0.515
-0.53
-0.54
-0.55
-0.555
-0.565
-0.56
-0.52
-0.425
-0.22
0.015
0.295
0.575
0.89
1.28
1.665
1.97
2.095
1.98
1.67
1.23
0.715
0.185
-0.31
-0.685
-0.965
-1.16
-1.235
-1.21
-1.12
-1.025
-0.935
-0.835
-0.785
-0.77
-0.755
-0.755
-0.775
-0.785
-0.81
-0.82
-0.83
-0.825
-0.81
-0.79
-0.78
-0.775
-0.805
-0.81
-0.825
-0.83
-0.82
-0.81
-0.805
-0.805
-0.795
-0.79
-0.775
-0.77
-0.765
-0.74
-0.72
-0.71
-0.71
-0.715
-0.705
-0.705
-0.665
-0.635
-0.6
-0.58
-0.58
-0.57
-0.565
-0.545
-0.525
-0.475
-0.43
-0.4
-0.355
-0.36
-0.33
-0.31
-0.29
-0.24
-0.22
-0.205
-0.18
-0.16
-0.125
-0.11
-0.06
-0.01
0.035
0.065
0.075
0.095
0.125
0.15
0.17
0.19
0.215
0.22
0.23
0.215
0.215
0.235
0.24
0.255
0.24
0.25
0.215
0.18
0.155
0.14
0.12
0.11
0.095
0.06
0.03
-0.02
-0.055
-0.09
-0.11
-0.125
-0.13
-0.16
-0.17
-0.215
-0.24
-0.28
-0.325
-0.35
-0.375
-0.405
-0.41
-0.435
-0.455
-0.47
-0.49
-0.5
-0.5
-0.505
-0.515
-0.525
-0.54
-0.57
-0.565
-0.555
-0.55
-0.525
-0.51
-0.5
-0.5
-0.51
-0.525
-0.54
-0.54
-0.54
-0.535
-0.51
-0.48
-0.455
-0.42
-0.39
-0.35
-0.31
-0.3
-0.295
-0.31
-0.305
-0.305
-0.3
-0.295
-0.285
-0.285
-0.325
-0.39
-0.465
-0.535
-0.58
-0.595
-0.61
-0.625
-0.64
-0.635
-0.645
-0.635
-0.63
-0.62
-0.615
-0.62
-0.64
-0.635
-0.655
-0.655
-0.64
-0.63
-0.62
-0.61
-0.61
-0.61
-0.625
-0.635
-0.655
-0.675
-0.705
-0.725
-0.7
-0.62
-0.46
-0.19
0.155
0.565
1.005
1.425
1.79
2.05
2.15
2.075
1.82
1.455
1.015
0.525
0.025
-0.43
-0.805
-1.095
-1.26
-1.335
-1.31
-1.215
-1.1
-0.99
-0.915
-0.865
-0.865
-0.87
-0.91
-0.93
-0.96
-0.97
-0.99
-1.005
-1.005
-0.995
-0.995
-0.98
-0.975
-0.98
-0.995
-1.01
-1.025
-1.025
-1.025
-1.025
-1.02
-1.025
-1.03
-1.015
-1.005
-1.01
-0.995
-0.99
-0.985
-0.98
-0.98
-0.99
-0.98
-0.965
-0.945
-0.905
-0.885
-0.875
-0.865
-0.86
-0.845
-0.835
-0.815
-0.79
-0.75
-0.72
-0.7
-0.67
-0.66
-0.635
-0.605
-0.575
-0.535
-0.52
-0.495
-0.47
-0.43
-0.4
-0.355
-0.31
-0.27
-0.24
-0.22
-0.195
-0.185
-0.17
-0.135
-0.105
-0.075
-0.04
-0.035
-0.03
-0.025
-0.01
-0.005
0.0
0.005
-0.005
-0.03
-0.045
-0.065
-0.08
-0.09
-0.095
-0.105
-0.125
-0.15
-0.185
-0.205
-0.24
-0.275
-0.3
-0.31
-0.32
-0.34
-0.36
-0.4
-0.42
-0.445
-0.47
-0.51
-0.51
-0.525
-0.55
-0.575
-0.58
-0.585
-0.59
-0.6
-0.6
-0.6
-0.6
-0.61
-0.615
-0.63
-0.625
-0.62
-0.61
-0.595
-0.58
-0.575
-0.56
-0.56
-0.56
-0.525
-0.495
-0.465
-0.45
-0.415
-0.4
-0.395
-0.375
-0.38
-0.355
-0.355
-0.335
-0.335
-0.365
-0.4
-0.435
-0.485
-0.54
-0.58
-0.605
-0.64
-0.68
-0.7
-0.72
-0.73
-0.735
-0.73
-0.71
-0.71
-0.7
-0.715
-0.72
-0.72
-0.72
-0.715
-0.71
-0.7
-0.705
-0.72
-0.72
-0.725
-0.72
-0.715
-0.72
-0.705
-0.72
-0.745
-0.78
-0.8
-0.775
-0.68
-0.51
-0.245
0.075
0.445
0.865
1.31
1.695
1.96
2.03
1.915
1.645
1.275
0.88
0.465
0.06
-0.315
-0.625
-0.865
-1.045
-1.16
-1.185
-1.14
-1.075
-0.97
-0.89
-0.83
-0.83
-0.855
-0.86
-0.89
-0.91
-0.945
-0.96
-0.965
-0.97
-0.975
-0.965
-0.95
-0.95
-0.95
-0.94
-0.945
-0.945
-0.95
-0.95
-0.955
-0.965
-0.955
-0.97
-0.94
-0.925
-0.895
-0.865
-0.86
-0.87
-0.86
-0.865
-0.85
-0.835
-0.8
-0.765
-0.73
-0.7
-0.685
-0.68
-0.665
-0.67
-0.625
-0.585
-0.535
-0.485
-0.44
-0.41
-0.395
-0.365
-0.335
-0.29
-0.245
-0.185
-0.15
-0.12
-0.095
-0.09
-0.08
-0.055
-0.025
0.03
0.085
0.13
0.155
0.175
0.19
0.2
0.215
0.225
0.255
0.28
0.31
0.325
0.335
0.325
0.315
0.325
0.315
0.315
0.305
0.295
0.28
0.25
0.225
0.21
0.19
0.185
0.175
0.16
0.135
0.105
0.05
0.015
-0.005
-0.03
-0.035
-0.035
-0.055
-0.065
-0.1
-0.115
-0.17
-0.205
-0.23
-0.245
-0.26
-0.305
-0.33
-0.37
-0.4
-0.41
-0.42
-0.43
-0.45
-0.465
-0.505
-0.54
-0.565
-0.58
-0.56
-0.535
-0.51
-0.49
-0.495
-0.51
-0.53
-0.55
-0.55
-0.55
-0.53
-0.51
-0.475
-0.445
-0.405
-0.38
-0.335
-0.315
-0.285
-0.28
-0.255
-0.245
-0.255
-0.255
-0.25
-0.235
-0.225
-0.215
-0.225
-0.27
-0.33
-0.415
-0.48
-0.53
-0.565
-0.58
-0.58
-0.565
-0.535
-0.515
-0.525
-0.525
-0.545
-0.575
-0.575
-0.585
-0.58
-0.58
-0.58
-0.57
-0.575
-0.57
-0.565
-0.54
-0.53
-0.545
-0.54
-0.54
-0.56
-0.555
-0.555
-0.55
-0.575
-0.585
-0.58
-0.55
-0.445
-0.26
0.01
0.36
0.77
1.185
1.615
1.955
2.16
2.16
1.985
1.665
1.315
0.94
0.565
0.185
-0.18
-0.55
-0.83
-1.055
-1.175
-1.21
-1.175
-1.09
-0.98
-0.89
-0.815
-0.78
-0.78
-0.795
-0.81
-0.82
-0.83
-0.83
-0.83
-0.835
-0.85
-0.875
-0.88
-0.87
-0.89
-0.87
-0.88
-0.88
-0.87
-0.865
-0.855
-0.84
-0.83
-0.825
-0.825
-0.835
-0.84
-0.845
-0.835
-0.82
-0.79
-0.77
-0.755
-0.74
-0.735
-0.74
-0.73
-0.715
-0.69
-0.67
-0.635
-0.62
-0.6
-0.59
-0.585
-0.56
-0.545
-0.525
-0.495
-0.475
-0.46
-0.435
-0.41
-0.39
-0.355
-0.315
-0.27
-0.25
-0.225
-0.215
-0.195
-0.185
-0.16
-0.145
-0.09
-0.055
-0.015
0.015
0.025
0.04
0.055
0.07
0.07
0.095
0.11
0.12
0.11
0.1
0.095
0.1
0.09
0.085
0.09
0.1
0.085
0.065
0.025
-0.005
-0.04
-0.045
-0.055
-0.065
-0.08
-0.115
-0.145
-0.185
-0.22
-0.235
-0.28
-0.285
-0.305
-0.325
-0.375
-0.4
-0.42
-0.445
-0.465
-0.485
-0.49
-0.53
-0.57
-0.59
-0.6
-0.6
-0.605
-0.59
-0.6
-0.6
-0.625
-0.635
-0.66
-0.665
-0.67
-0.665
-0.65
-0.65
-0.635
-0.635
-0.635
-0.635
-0.635
-0.615
-0.6
-0.575
-0.57
-0.56
-0.555
-0.515
-0.505
-0.475
-0.465
-0.445
-0.43
-0.44
-0.44
-0.435
-0.45
-0.46
-0.46
-0.495
-0.54
-0.595
-0.645
-0.705
-0.735
-0.735
-0.76
-0.77
-0.775
-0.785
-0.79
-0.795
-0.795
-0.79
-0.775
-0.77
-0.755
-0.785
-0.79
-0.785
-0.795
-0.78
-0.755
-0.735
-0.72
-0.705
-0.71
-0.725
-0.745
-0.77
-0.78
-0.8
-0.82
-0.76
-0.64
-0.415
-0.09
0.32
0.81
1.325
1.77
2.065
2.15
2.045
1.775
1.455
1.085
0.695
0.295
-0.08
-0.44
-0.75
-0.99
-1.13
-1.175
-1.1
-1.01
-0.905
-0.83
-0.8
-0.815
-0.845
-0.865
-0.89
-0.9
-0.905
-0.9
-0.915
-0.925
-0.93
-0.935
-0.92
-0.93
-0.93
-0.93
-0.935
-0.93
-0.945
-0.945
-0.945
-0.935
-0.925
-0.92
-0.925
-0.94
-0.935
-0.93
-0.92
-0.915
-0.9
-0.88
-0.89
-0.885
-0.885
-0.87
-0.84
-0.81
-0.78
-0.745
-0.735
-0.73
-0.725
-0.71
-0.695
-0.655
-0.615
-0.58
-0.54
-0.5
-0.47
-0.435
-0.385
-0.345
-0.3
-0.265
-0.23
-0.205
-0.19
-0.145
-0.11
-0.055
0.0
0.06
0.085
0.12
0.135
0.155
0.175
0.2
0.235
0.26
0.285
0.275
0.28
0.29
0.295
0.31
0.3
0.31
0.31
0.29
0.275
0.255
0.245
0.23
0.23
0.235
0.215
0.19
0.155
0.125
0.1
0.065
0.055
0.045
0.02
0.02
0.0
-0.045
-0.06
-0.095
-0.11
-0.14
-0.165
-0.18
-0.21
-0.24
-0.255
-0.285
-0.29
-0.305
-0.31
-0.33
-0.34
-0.35
-0.35
-0.365
-0.37
-0.345
-0.33
-0.335
-0.325
-0.33
-0.315
-0.285
-0.265
-0.225
-0.195
-0.18
-0.16
-0.155
-0.15
-0.13
-0.1
-0.085
-0.06
-0.065
-0.1
-0.12
-0.175
-0.235
-0.29
-0.345
-0.38
-0.415
-0.44
-0.47
-0.49
-0.495
-0.51
-0.505
-0.5
-0.495
-0.495
-0.515
-0.53
-0.54
-0.535
-0.545
-0.525
-0.515
-0.51
-0.505
-0.515
-0.53
-0.555
-0.545
-0.55
-0.535
-0.515
-0.5
-0.51
-0.54
-0.565
-0.565
-0.52
-0.38
-0.17
0.11
0.415
0.77
1.15
1.535
1.87
2.08
2.115
1.96
1.65
1.26
0.825
0.395
0.0
-0.335
-0.59
-0.79
-0.915
-1.0
-1.005
-0.955
-0.865
-0.755
-0.66
-0.61
-0.6
-0.61
-0.625
-0.66
-0.675
-0.69
-0.7
-0.69
-0.69
-0.7
-0.715
-0.72
-0.72
-0.715
-0.715
-0.71
-0.69
-0.69
-0.675
-0.675
-0.68
-0.69
-0.7
-0.685
-0.675
-0.65
-0.615
-0.605
-0.595
-0.595
-0.595
-0.59
-0.565
-0.565
-0.535
-0.51
-0.45
-0.425
-0.405
-0.385
-0.355
-0.34
-0.315
-0.28
-0.26
-0.24
-0.225
-0.18
-0.145
-0.105
-0.06
-0.01
0.04
0.07
0.1
0.115
0.15
0.18
0.22
0.265
0.31
0.34
0.375
0.385
0.4
0.42
0.44
0.455
0.465
0.475
0.475
0.485
0.5
0.505
0.51
0.515
0.5
0.465
0.435
0.41
0.375
0.35
0.33
0.315
0.295
0.27
0.24
0.22
0.21
0.17
0.13
0.075
0.035
-0.015
-0.055
-0.07
-0.09
-0.1
-0.1
-0.12
-0.15
-0.2
-0.26
-0.305
-0.345
-0.365
-0.38
-0.385
-0.405
-0.42
-0.44
-0.45
-0.455
-0.455
-0.465
-0.49
-0.515
-0.53
-0.535
-0.52
-0.485
-0.45
-0.44
-0.405
-0.4
-0.415
-0.42
-0.41
-0.39
-0.355
-0.32
-0.275
-0.24
-0.22
-0.2
-0.19
-0.165
-0.135
-0.12
-0.11
-0.11
-0.135
-0.16
-0.205
-0.265
-0.31
-0.355
-0.4
-0.45
-0.48
-0.49
-0.515
-0.51
-0.495
-0.5
-0.49
-0.485
-0.495
-0.49
-0.49
-0.475
-0.475
-0.46
-0.455
-0.48
-0.48
-0.49
-0.485
-0.48
-0.48
-0.45
-0.455
-0.475
-0.515
-0.555
-0.56
-0.52
-0.4
-0.18
0.12
0.495
0.915
1.34
1.745
2.05
2.145
2.015
1.71
1.31
0.86
0.395
-0.045
-0.445
-0.775
-1.025
-1.165
-1.22
-1.17
-1.07
-0.94
-0.82
-0.745
-0.7
-0.72
-0.745
-0.78
-0.805
-0.81
-0.82
-0.82
-0.81
-0.825
-0.84
-0.84
-0.84
-0.81
-0.795
-0.79
-0.79
-0.785
-0.8
-0.8
-0.795
-0.79
-0.785
-0.78
-0.775
-0.765
-0.755
-0.735
-0.705
-0.685
-0.645
-0.615
-0.615
-0.6
-0.605
-0.59
-0.575
-0.54
-0.505
-0.465
-0.42
-0.41
-0.4
-0.385
-0.375
-0.345
-0.31
-0.285
-0.26
-0.235
-0.205
-0.18
-0.145
-0.11
-0.07
-0.03
-0.005
0.01
0.035
0.05
0.075
0.095
0.13
0.165
0.205
0.22
0.235
0.225
0.23
0.245
0.26
0.255
0.255
0.25
0.24
0.23
0.23
0.225
0.215
0.2
0.195
0.17
0.135
0.095
0.07
0.035
0.02
0.0
-0.015
-0.04
-0.065
-0.11
-0.145
-0.18
-0.225
-0.235
-0.255
-0.275
-0.29
-0.315
-0.345
-0.375
-0.4
-0.42
-0.45
-0.45
-0.48
-0.5
-0.52
-0.53
-0.545
-0.535
-0.545
-0.54
-0.535
-0.53
-0.53
-0.54
-0.55
-0.55
-0.565
-0.55
-0.54
-0.515
-0.515
-0.515
-0.52
-0.525
-0.51
-0.49
-0.465
-0.44
-0.415
-0.385
-0.365
-0.35
-0.335
-0.315
-0.29
-0.27
-0.265
-0.255
-0.265
-0.28
-0.3
-0.325
-0.355
-0.4
-0.445
-0.495
-0.55
-0.585
-0.63
-0.645
-0.65
-0.645
-0.66
-0.675
-0.705
-0.745
-0.77
-0.77
-0.765
-0.71
-0.63
-0.54
-0.415
-0.255
-0.1
0.065
0.245
0.45
0.68
0.95
1.22
1.46
1.655
1.815
1.925
2.01
2.07
2.14
2.215
2.29
2.35
2.38
2.42
2.455
2.47
2.495
2.49
2.44
2.36
2.21
1.99
1.66
1.23
0.71
0.16
-0.36
-0.81
-1.11
-1.255
-1.285
-1.24
-1.18
-1.135
-1.135
-1.16
-1.205
-1.265
-1.33
-1.375
-1.405
-1.415
-1.435
-1.465
-1.46
-1.475
-1.49
-1.49
-1.505
-1.515
-1.535
-1.56
-1.595
-1.615
-1.635
-1.655
-1.665
-1.67
-1.675
-1.68
-1.71
-1.715
-1.725
-1.74
-1.755
-1.765
-1.765
-1.775
-1.775
-1.775
-1.77
-1.755
-1.735
-1.72
-1.705
-1.69
-1.665
-1.655
-1.61
-1.57
-1.525
-1.48
-1.43
-1.375
-1.335
-1.3
-1.26
-1.2
-1.155
-1.11
-1.08
-1.035
-0.99
-0.95
-0.895
-0.81
-0.75
-0.66
-0.61
-0.555
-0.51
-0.465
-0.42
-0.37
-0.32
-0.28
-0.25
-0.235
-0.22
-0.2
-0.19
-0.185
-0.17
-0.175
-0.17
-0.165
-0.18
-0.185
-0.185
-0.18
-0.175
-0.185
-0.205
-0.23
-0.26
-0.285
-0.3
-0.32
-0.325
-0.325
-0.34
-0.365
-0.385
-0.4
-0.415
-0.425
-0.435
-0.43
-0.445
-0.46
-0.455
-0.465
-0.44
-0.42
-0.39
-0.375
-0.365
-0.375
-0.39
-0.42
-0.42
-0.41
-0.37
-0.335
-0.285
-0.235
-0.205
-0.19
-0.175
-0.165
-0.16
-0.14
-0.12
-0.115
-0.12
-0.115
-0.12
-0.145
-0.145
-0.19
-0.22
-0.295
-0.345
-0.42
-0.465
-0.505
-0.505
-0.495
-0.48
-0.46
-0.475
-0.48
-0.485
-0.49
-0.5
-0.485
-0.475
-0.475
-0.48
-0.48
-0.48
-0.475
-0.455
-0.45
-0.45
-0.435
-0.445
-0.455
-0.475
-0.505
-0.52
-0.53
-0.515
-0.505
-0.4
-0.24
-0.005
0.31
0.715
1.15
1.59
1.94
2.165
2.165
2.005
1.73
1.405
1.055
0.68
0.3
-0.055
-0.385
-0.655
-0.86
-0.965
-0.955
-0.87
-0.73
-0.605
-0.53
-0.515
-0.54
-0.58
-0.625
-0.655
-0.665
-0.65
-0.63
-0.63
-0.625
-0.635
-0.65
-0.665
-0.665
-0.665
-0.695
-0.695
-0.715
-0.725
-0.72
-0.71
-0.695
-0.68
-0.66
-0.655
-0.665
-0.67
-0.685
-0.685
-0.67
-0.645
-0.62
-0.6
-0.58
-0.56
-0.535
-0.505
-0.475
-0.44
-0.415
-0.41
-0.39
-0.365
-0.345
-0.3
-0.255
-0.19
-0.15
-0.1
-0.065
-0.03
0.01
0.04
0.075
0.145
0.19
0.24
0.29
0.365
0.4
0.445
0.48
0.525
0.575
0.61
0.655
0.685
0.72
0.735
0.75
0.765
0.77
0.785
0.785
0.79
0.785
0.78
0.785
0.79
0.785
0.8
0.81
0.785
0.775
0.73
0.685
0.655
0.61
0.585
0.565
0.56
0.55
0.525
0.49
0.455
0.425
0.385
0.355
0.315
0.275
0.235
0.185
0.15
0.125
0.105
0.11
0.105
0.075
0.06
0.02
-0.035
-0.07
-0.1
-0.105
-0.11
-0.115
-0.12
-0.11
-0.11
-0.12
-0.13
-0.145
-0.155
-0.17
-0.18
-0.19
-0.19
-0.185
-0.165
-0.145
-0.11
-0.075
-0.01
0.01
0.02
0.03
0.03
0.05
0.08
0.115
0.145
0.155
0.155
0.125
0.08
0.035
0.0
-0.065
-0.115
-0.16
-0.215
-0.23
-0.26
-0.285
-0.315
-0.36
-0.405
-0.455
-0.475
-0.475
-0.42
-0.3
-0.1
0.155
0.4
0.64
0.825
1.02
1.2
1.415
1.62
1.83
2.035
2.175
2.29
2.37
2.41
2.405
2.38
2.345
2.315
2.275
2.245
2.23
2.22
2.21
2.185
2.13
2.0
1.825
1.58
1.275
0.92
0.545
0.165
-0.18
-0.51
-0.805
-1.015
-1.13
-1.18
-1.165
-1.14
-1.12
-1.115
-1.14
-1.18
-1.24
-1.285
-1.315
-1.345
-1.355
-1.365
-1.38
-1.41
-1.435
-1.47
-1.485
-1.49
-1.495
-1.52
-1.535
-1.55
-1.59
-1.615
-1.62
-1.63
-1.645
-1.645
-1.66
-1.695
-1.71
-1.72
-1.72
-1.725
-1.7
-1.695
-1.69
-1.695
-1.69
-1.68
-1.66
-1.635
-1.62
-1.605
-1.585
-1.56
-1.545
-1.495
-1.45
-1.39
-1.335
-1.28
-1.235
-1.21
-1.18
-1.15
-1.115
-1.055
-1.0
-0.925
-0.855
-0.785
-0.74
-0.695
-0.665
-0.62
-0.59
-0.565
-0.525
-0.49
-0.465
-0.445
-0.43
-0.41
-0.365
-0.355
-0.35
-0.355
-0.365
-0.37
-0.385
-0.375
-0.36
-0.345
-0.34
-0.35
-0.375
-0.395
-0.42
-0.44
-0.45
-0.475
-0.505
-0.525
-0.545
-0.55
-0.54
-0.545
-0.555
-0.585
-0.61
-0.635
-0.67
-0.67
-0.685
-0.67
-0.65
-0.635
-0.64
-0.64
-0.65
-0.665
-0.675
-0.68
-0.685
-0.675
-0.655
-0.645
-0.63
-0.61
-0.615
-0.615
-0.605
-0.59
-0.59
-0.59
-0.59
-0.6
-0.6
-0.605
-0.6
-0.6
-0.585
-0.575
-0.56
-0.54
-0.51
-0.485
-0.46
-0.43
-0.415
-0.385
-0.365
-0.355
-0.355
-0.33
-0.31
-0.29
-0.28
-0.275
-0.305
-0.355
-0.425
-0.485
-0.53
-0.585
-0.625
-0.64
-0.655
-0.645
-0.665
-0.655
-0.66
-0.675
-0.69
-0.675
-0.675
-0.68
-0.655
-0.655
-0.66
-0.655
-0.66
-0.655
-0.65
-0.65
-0.67
-0.68
-0.69
-0.68
-0.655
-0.65
-0.66
-0.685
-0.715
-0.745
-0.755
-0.72
-0.61
-0.39
-0.085
0.3
0.73
1.17
1.58
1.895
2.065
2.06
1.86
1.56
1.17
0.765
0.335
-0.085
-0.51
-0.855
-1.135
-1.33
-1.415
-1.41
-1.33
-1.22
-1.105
-1.02
-0.955
-0.925
-0.925
-0.93
-0.945
-0.96
-0.97
-0.99
-0.995
-1.005
-1.02
-1.01
-1.01
-1.0
-1.0
-1.005
-1.015
-1.005
-1.01
-1.005
-0.985
-0.975
-0.98
-0.98
-0.975
-0.985
-0.975
-0.95
-0.955
-0.93
-0.91
-0.91
-0.905
-0.905
-0.895
-0.87
-0.845
-0.815
-0.795
-0.765
-0.75
-0.74
-0.74
-0.73
-0.7
-0.67
-0.635
-0.595
-0.555
-0.535
-0.51
-0.475
-0.435
-0.39
-0.365
-0.335
-0.305
-0.285
-0.265
-0.23
-0.185
-0.155
-0.105
-0.065
-0.03
-0.01
0.005
0.03
0.055
0.07
0.11
0.13
0.145
0.145
0.165
0.17
0.165
0.175
0.18
0.175
0.15
0.135
0.11
0.095
0.08
0.075
0.055
0.045
0.01
-0.025
-0.075
-0.1
-0.155
-0.18
-0.205
-0.235
-0.26
-0.295
-0.31
-0.345
-0.37
-0.4
-0.415
-0.455
-0.465
-0.495
-0.525
-0.53
-0.545
-0.555
-0.54
-0.54
-0.52
-0.53
-0.545
-0.55
-0.56
-0.565
-0.565
-0.54
-0.525
-0.51
-0.485
-0.48
-0.485
-0.495
-0.485
-0.485
-0.49
-0.465
-0.45
-0.42
-0.38
-0.34
-0.305
-0.27
-0.255
-0.245
-0.24
-0.245
-0.245
-0.235
-0.245
