Lead II
-0.305
-0.36
-0.425
-0.425
-0.345
-0.155
0.14
0.505
0.885
1.23
1.445
1.475
1.28
0.875
0.41
0.005
-0.245
-0.355
-0.37
-0.355
-0.375
-0.435
-0.515
-0.625
-0.725
-0.805
-0.855
-0.865
-0.855
-0.825
-0.8
-0.75
-0.685
-0.605
-0.52
-0.43
-0.365
-0.3
-0.255
-0.24
-0.22
-0.215
-0.215
-0.22
-0.21
-0.195
-0.185
-0.175
-0.175
-0.15
-0.16
-0.16
-0.165
-0.16
-0.16
-0.16
-0.145
-0.15
-0.145
-0.135
-0.13
-0.12
-0.12
-0.125
-0.12
-0.125
-0.145
-0.13
-0.135
-0.13
-0.125
-0.11
-0.11
-0.1
-0.095
-0.08
-0.09
-0.085
-0.095
-0.09
-0.09
-0.085
-0.08
-0.07
-0.045
-0.035
-0.03
-0.025
-0.025
-0.03
-0.02
-0.015
-0.005
0.0
0.02
0.02
0.045
0.05
0.06
0.06
0.07
0.065
0.07
0.08
0.085
0.1
0.12
0.15
0.165
0.17
0.18
0.21
0.215
0.225
0.225
0.215
0.23
0.25
0.275
0.285
0.3
0.315
0.32
0.335
0.325
0.33
0.32
0.33
0.335
0.35
0.365
0.375
0.375
0.395
0.385
0.39
0.39
0.38
0.38
0.375
0.36
0.36
0.355
0.35
0.35
0.34
0.31
0.3
0.285
0.255
0.23
0.21
0.185
0.16
0.145
0.135
0.125
0.11
0.09
0.075
0.055
0.04
0.01
-0.015
-0.04
-0.06
-0.065
-0.065
-0.065
-0.07
-0.07
-0.065
-0.075
-0.085
-0.1
-0.105
-0.11
-0.125
-0.115
-0.105
-0.11
-0.1
-0.105
-0.085
-0.085
-0.09
-0.1
-0.105
-0.1
-0.095
-0.09
-0.085
-0.075
-0.07
-0.08
-0.08
-0.085
-0.085
-0.08
-0.09
-0.095
-0.095
-0.085
-0.075
-0.08
-0.065
-0.065
-0.07
-0.07
-0.075
-0.085
-0.095
-0.105
-0.11
-0.095
-0.105
-0.09
-0.09
-0.1
-0.1
-0.105
-0.1
-0.105
-0.105
-0.115
-0.115
-0.115
-0.1
-0.105
-0.095
-0.105
-0.11
-0.11
-0.11
-0.12
-0.135
-0.125
-0.135
-0.13
-0.125
-0.125
-0.12
-0.115
-0.12
-0.13
-0.135
-0.145
-0.15
-0.155
-0.16
-0.15
-0.15
-0.135
-0.13
-0.13
-0.13
-0.14
-0.135
-0.145
-0.16
-0.155
-0.155
-0.16
-0.16
-0.155
-0.135
-0.14
-0.145
-0.15
-0.16
-0.16
-0.17
-0.165
-0.165
-0.145
-0.13
-0.115
-0.12
-0.11
-0.085
-0.085
-0.09
-0.08
-0.09
-0.085
-0.08
-0.06
-0.04
-0.02
0.02
0.04
0.035
0.035
0.03
0.005
-0.015
-0.03
-0.045
-0.035
-0.035
-0.035
-0.04
-0.06
-0.07
-0.095
-0.12
-0.15
-0.165
-0.17
-0.185
-0.18
-0.17
-0.175
-0.17
-0.165
-0.18
-0.175
-0.19
-0.185
-0.195
-0.195
-0.195
-0.195
-0.19
-0.18
-0.19
-0.185
-0.175
-0.19
-0.195
-0.185
-0.2
-0.195
-0.195
-0.195
-0.2
-0.215
-0.25
-0.295
-0.36
-0.415
-0.465
-0.445
-0.355
-0.17
0.115
0.445
0.795
1.125
1.41
1.53
1.495
1.25
0.845
0.385
-0.01
-0.235
-0.34
-0.335
-0.31
-0.305
-0.335
-0.43
-0.54
-0.68
-0.795
-0.89
-0.935
-0.945
-0.925
-0.885
-0.825
-0.75
-0.65
-0.565
-0.475
-0.405
-0.34
-0.295
-0.27
-0.24
-0.24
-0.23
-0.21
-0.2
-0.19
-0.185
-0.17
-0.175
-0.17
-0.18
-0.18
-0.17
-0.175
-0.17
-0.155
-0.155
-0.145
-0.14
-0.135
-0.14
-0.135
-0.135
-0.145
-0.13
-0.135
-0.135
-0.115
-0.115
-0.1
-0.095
-0.1
-0.1
-0.095
-0.09
-0.105
-0.095
-0.09
-0.09
-0.08
-0.06
-0.05
-0.045
-0.04
-0.04
-0.035
-0.035
-0.045
-0.035
-0.04
-0.03
-0.015
-0.005
0.01
0.025
0.03
0.035
0.045
0.045
0.04
0.055
0.065
0.085
0.105
0.11
0.135
0.14
0.15
0.16
0.185
0.19
0.2
0.21
0.22
0.235
0.26
0.27
0.295
0.3
0.32
0.325
0.345
0.345
0.335
0.345
0.365
0.38
0.385
0.395
0.42
0.425
0.43
0.42
0.42
0.42
0.405
0.41
0.41
0.415
0.415
0.41
0.41
0.395
0.38
0.365
0.35
0.33
0.305
0.28
0.275
0.25
0.23
0.22
0.22
0.19
0.18
0.16
0.135
0.095
0.085
0.06
0.05
0.03
0.02
0.0
-0.005
-0.015
-0.025
-0.03
-0.035
-0.055
-0.055
-0.06
-0.07
-0.08
-0.08
-0.07
-0.075
-0.08
-0.08
-0.09
-0.095
-0.1
-0.12
-0.12
-0.11
-0.105
-0.1
-0.11
-0.095
-0.1
-0.115
-0.115
-0.11
-0.11
-0.115
-0.11
-0.115
-0.11
-0.11
-0.11
-0.09
-0.08
-0.08
-0.08
-0.085
-0.095
-0.09
-0.11
-0.105
-0.1
-0.085
-0.08
-0.07
-0.06
-0.055
-0.065
-0.07
-0.095
-0.095
-0.1
-0.11
-0.11
-0.125
-0.11
-0.105
-0.105
-0.115
-0.11
-0.115
-0.12
-0.135
-0.14
-0.125
-0.13
-0.13
-0.12
-0.115
-0.12
-0.125
-0.135
-0.14
-0.15
-0.165
-0.155
-0.165
-0.155
-0.14
-0.14
-0.13
-0.13
-0.12
-0.135
-0.145
-0.165
-0.17
-0.185
-0.175
-0.175
-0.16
-0.155
-0.145
-0.15
-0.15
-0.16
-0.17
-0.175
-0.175
-0.175
-0.18
-0.17
-0.18
-0.165
-0.155
-0.145
-0.13
-0.12
-0.125
-0.145
-0.145
-0.145
-0.15
-0.14
-0.135
-0.125
-0.135
-0.11
-0.12
-0.12
-0.125
-0.12
-0.125
-0.13
-0.115
-0.105
-0.1
-0.08
-0.085
-0.065
-0.04
-0.015
-0.01
0.02
0.02
0.035
0.03
0.02
0.02
0.02
0.015
0.0
-0.005
-0.015
-0.035
-0.05
-0.07
-0.095
-0.115
-0.13
-0.145
-0.145
-0.155
-0.16
-0.16
-0.16
-0.17
-0.175
-0.19
-0.195
-0.2
-0.195
-0.195
-0.19
-0.185
-0.175
-0.205
-0.205
-0.205
-0.21
-0.2
-0.19
-0.185
-0.17
-0.175
-0.175
-0.18
-0.195
-0.215
-0.26
-0.31
-0.375
-0.41
-0.39
-0.255
0.0
0.36
0.765
1.165
1.455
1.525
1.31
0.86
0.32
-0.125
-0.395
-0.495
-0.505
-0.47
-0.47
-0.5
-0.585
-0.685
-0.78
-0.85
-0.885
-0.89
-0.85
-0.79
-0.715
-0.625
-0.525
-0.44
-0.365
-0.32
-0.26
-0.235
-0.21
-0.205
-0.2
-0.2
-0.19
-0.185
-0.175
-0.16
-0.145
-0.135
-0.13
-0.13
-0.13
-0.14
-0.145
-0.13
-0.13
-0.14
-0.12
-0.12
-0.13
-0.13
-0.115
-0.105
-0.105
-0.1
-0.09
-0.09
-0.09
-0.09
-0.075
-0.075
-0.075
-0.075
-0.07
-0.065
-0.07
-0.075
-0.065
-0.055
-0.035
-0.02
-0.015
0.01
0.015
0.025
0.025
0.025
0.01
0.01
0.01
0.01
0.01
0.025
0.035
0.065
0.075
0.085
0.105
0.095
0.105
0.1
0.115
0.125
0.14
0.155
0.18
0.195
0.18
0.19
0.195
0.17
0.19
0.2
0.215
0.245
0.275
0.295
0.31
0.325
0.33
0.33
0.325
0.325
0.32
0.315
0.315
0.325
0.34
0.37
0.39
0.415
0.415
0.405
0.395
0.395
0.395
0.395
0.4
0.4
0.385
0.38
0.37
0.38
0.36
0.345
0.33
0.32
0.3
0.27
0.245
0.23
0.195
0.185
0.17
0.175
0.155
0.14
0.13
0.095
0.06
0.03
0.015
-0.01
-0.015
-0.01
-0.005
0.01
-0.005
-0.025
-0.035
-0.055
-0.06
-0.075
-0.075
-0.07
-0.07
-0.06
-0.055
-0.05
-0.05
-0.055
-0.07
-0.075
-0.07
-0.08
-0.085
-0.095
-0.075
-0.08
-0.075
-0.065
-0.05
-0.05
-0.035
-0.035
-0.035
-0.035
-0.045
-0.045
-0.045
-0.045
-0.035
-0.02
-0.03
-0.03
-0.035
-0.045
-0.06
-0.06
-0.07
-0.075
-0.075
-0.075
-0.06
-0.04
-0.045
-0.05
-0.06
-0.065
-0.08
-0.085
-0.09
-0.09
-0.08
-0.075
-0.085
-0.09
-0.085
-0.085
-0.08
-0.095
-0.09
-0.11
-0.11
-0.11
-0.115
-0.105
-0.12
-0.1
-0.095
-0.11
-0.11
-0.115
-0.125
-0.14
-0.135
-0.14
-0.12
-0.12
-0.12
-0.11
-0.115
-0.13
-0.125
-0.125
-0.14
-0.14
-0.15
-0.145
-0.14
-0.135
-0.12
-0.1
-0.085
-0.075
-0.07
-0.07
-0.07
-0.07
-0.065
-0.055
-0.03
-0.005
0.01
0.025
0.025
0.03
0.025
0.01
-0.02
-0.02
-0.035
-0.06
-0.075
-0.08
-0.085
-0.105
-0.12
-0.13
-0.16
-0.175
-0.18
-0.195
-0.19
-0.2
-0.195
-0.195
-0.185
-0.185
-0.18
-0.19
-0.19
-0.185
-0.2
-0.195
-0.205
-0.21
-0.205
-0.2
-0.195
-0.185
-0.17
-0.195
-0.2
-0.2
-0.22
-0.22
-0.245
-0.275
-0.33
-0.375
-0.43
-0.42
-0.34
-0.145
0.15
0.505
0.88
1.19
1.415
1.455
1.26
0.86
0.39
-0.015
-0.27
-0.38
-0.39
-0.39
-0.395
-0.45
-0.535
-0.645
-0.745
-0.83
-0.865
-0.87
-0.86
-0.805
-0.775
-0.685
-0.61
-0.54
-0.46
-0.375
-0.315
-0.27
-0.24
-0.225
-0.22
-0.205
-0.205
-0.185
-0.2
-0.19
-0.19
-0.185
-0.185
-0.17
-0.16
-0.145
-0.15
-0.14
-0.14
-0.145
-0.155
-0.145
-0.155
-0.155
-0.145
-0.135
-0.135
-0.125
-0.115
-0.12
-0.115
-0.12
-0.11
-0.13
-0.135
-0.13
-0.125
-0.095
-0.09
-0.08
-0.065
-0.08
-0.065
-0.075
-0.07
-0.065
-0.065
-0.055
-0.055
-0.03
-0.03
-0.015
0.005
0.0
0.015
0.015
0.015
0.01
0.015
0.025
0.03
0.05
0.055
0.085
0.11
0.115
0.12
0.12
0.145
0.145
0.155
0.17
0.185
0.195
0.215
0.23
0.245
0.255
0.255
0.255
0.27
0.26
0.255
0.28
0.29
0.3
0.315
0.325
0.325
0.33
0.34
0.335
0.335
0.335
0.34
0.335
0.325
0.335
0.345
0.345
0.33
0.325
0.325
0.305
0.28
0.27
0.25
0.215
0.21
0.21
0.2
0.19
0.18
0.145
0.125
0.09
0.065
0.04
0.0
-0.005
-0.02
-0.025
-0.04
-0.045
-0.05
-0.055
-0.07
-0.085
-0.095
-0.11
-0.115
-0.12
-0.14
-0.13
-0.115
-0.115
-0.125
-0.135
-0.125
-0.14
-0.14
-0.15
-0.16
-0.145
-0.135
-0.145
-0.13
-0.12
-0.12
-0.115
-0.115
-0.12
-0.13
-0.13
-0.12
-0.115
-0.11
-0.11
-0.11
-0.09
-0.085
-0.095
-0.095
-0.1
-0.1
-0.1
-0.11
-0.095
-0.115
-0.1
-0.105
-0.08
-0.085
-0.095
-0.095
-0.11
-0.12
-0.13
-0.13
-0.135
-0.13
-0.13
-0.135
-0.115
-0.12
-0.12
-0.125
-0.13
-0.13
-0.145
-0.15
-0.155
-0.145
-0.15
-0.15
-0.13
-0.13
-0.14
-0.145
-0.15
-0.16
-0.165
-0.17
-0.175
-0.165
-0.175
-0.175
-0.165
-0.16
-0.17
-0.16
-0.165
-0.18
-0.19
-0.185
-0.2
-0.195
-0.185
-0.175
-0.175
-0.175
-0.18
-0.175
-0.175
-0.185
-0.195
-0.195
-0.195
-0.185
-0.185
-0.18
-0.17
-0.17
-0.17
-0.18
-0.185
-0.19
-0.19
-0.2
-0.2
-0.195
-0.19
-0.19
-0.175
-0.17
-0.18
-0.175
-0.19
-0.185
-0.2
-0.2
-0.205
-0.2
-0.2
-0.185
-0.175
-0.18
-0.165
-0.165
-0.165
-0.165
-0.155
-0.155
-0.155
-0.14
-0.135
-0.12
-0.105
-0.1
-0.1
-0.095
-0.075
-0.055
-0.055
-0.04
-0.03
-0.025
-0.02
-0.02
-0.02
-0.025
-0.035
-0.04
-0.06
-0.065
-0.09
-0.105
-0.125
-0.14
-0.155
-0.165
-0.175
-0.17
-0.19
-0.195
-0.2
-0.21
-0.21
-0.22
-0.215
-0.22
-0.21
-0.205
-0.205
-0.205
-0.205
-0.215
-0.22
-0.225
-0.225
-0.225
-0.22
-0.22
-0.215
-0.22
-0.22
-0.205
-0.205
-0.205
-0.22
-0.23
-0.245
-0.255
-0.28
-0.31
-0.375
-0.42
-0.465
-0.455
-0.36
-0.17
0.09
0.4
0.72
1.035
1.28
1.42
1.415
1.19
0.825
0.375
0.005
-0.24
-0.355
-0.36
-0.355
-0.365
-0.395
-0.465
-0.575
-0.69
-0.795
-0.875
-0.91
-0.905
-0.89
-0.855
-0.8
-0.725
-0.645
-0.575
-0.495
-0.415
-0.345
-0.295
-0.275
-0.255
-0.24
-0.245
-0.24
-0.245
-0.235
-0.22
-0.2
-0.205
-0.19
-0.19
-0.185
-0.175
-0.18
-0.18
-0.185
-0.185
-0.185
-0.185
-0.175
-0.165
-0.15
-0.15
-0.145
-0.145
-0.15
-0.155
-0.155
-0.155
-0.15
-0.15
-0.14
-0.125
-0.115
-0.125
-0.11
-0.11
-0.105
-0.105
-0.11
-0.105
-0.1
-0.085
-0.075
-0.07
-0.065
-0.055
-0.045
-0.04
-0.035
-0.035
-0.035
-0.035
-0.03
-0.005
0.01
0.025
0.04
0.04
0.055
0.065
0.07
0.075
0.085
0.095
0.1
0.11
0.12
0.16
0.175
0.19
0.21
0.215
0.22
0.225
0.245
0.255
0.265
0.27
0.29
0.31
0.335
0.34
0.345
0.35
0.355
0.34
0.37
0.36
0.365
0.385
0.385
0.405
0.41
0.415
0.405
0.41
0.4
0.39
0.38
0.365
0.35
0.335
0.33
0.32
0.315
0.285
0.275
0.26
0.235
0.2
0.185
0.155
0.135
0.125
0.105
0.09
0.085
0.07
0.05
0.025
0.015
0.0
-0.025
-0.045
-0.055
-0.07
-0.08
-0.085
-0.075
-0.09
-0.1
-0.1
-0.115
-0.11
-0.14
-0.14
-0.14
-0.135
-0.14
-0.13
-0.135
-0.135
-0.135
-0.135
-0.145
-0.17
-0.165
-0.15
-0.15
-0.155
-0.145
-0.13
-0.125
-0.125
-0.13
-0.13
-0.125
-0.13
-0.14
-0.135
-0.145
-0.15
-0.15
-0.135
-0.135
-0.125
-0.13
-0.13
-0.13
-0.13
-0.14
-0.145
-0.15
-0.145
-0.155
-0.15
-0.145
-0.15
-0.15
-0.15
-0.165
-0.165
-0.17
-0.165
-0.17
-0.17
-0.165
-0.175
-0.17
-0.18
-0.17
-0.18
-0.185
-0.175
-0.18
-0.175
-0.175
-0.17
-0.165
-0.16
-0.16
-0.16
-0.17
-0.175
-0.18
-0.19
-0.19
-0.205
-0.2
-0.19
-0.185
-0.18
-0.175
-0.165
-0.17
-0.18
-0.19
-0.18
-0.195
-0.2
-0.2
-0.215
-0.21
-0.21
-0.205
-0.195
-0.18
-0.17
-0.17
-0.19
-0.18
-0.21
-0.195
-0.205
-0.2
-0.19
-0.18
-0.17
-0.17
-0.17
-0.18
-0.17
-0.18
-0.2
-0.2
-0.205
-0.19
-0.19
-0.18
-0.17
-0.16
-0.17
-0.165
-0.175
-0.19
-0.195
-0.195
-0.185
-0.19
-0.19
-0.17
-0.165
-0.175
-0.175
-0.18
-0.16
-0.18
-0.185
-0.185
-0.17
-0.165
-0.16
-0.15
-0.15
-0.155
-0.16
-0.15
-0.15
-0.15
-0.15
-0.12
-0.095
-0.08
-0.085
-0.075
-0.07
-0.06
-0.035
-0.005
-0.005
0.0
-0.01
-0.015
-0.03
-0.03
-0.045
-0.03
-0.06
-0.07
-0.075
-0.085
-0.11
-0.13
-0.15
-0.17
-0.185
-0.19
-0.195
-0.185
-0.175
-0.18
-0.195
-0.205
-0.21
-0.21
-0.22
-0.22
-0.21
-0.205
-0.2
-0.19
-0.185
-0.19
-0.185
-0.19
-0.19
-0.21
-0.225
-0.21
-0.22
-0.215
-0.22
-0.225
-0.25
-0.295
-0.375
-0.425
-0.43
-0.34
-0.13
0.18
0.575
0.96
1.3
1.465
1.39
1.05
0.555
0.06
-0.285
-0.47
-0.52
-0.495
-0.475
-0.485
-0.54
-0.625
-0.72
-0.79
-0.85
-0.855
-0.845
-0.815
-0.75
-0.67
-0.57
-0.495
-0.42
-0.335
-0.285
-0.265
-0.23
-0.225
-0.205
-0.2
-0.225
-0.215
-0.205
-0.195
-0.185
-0.165
-0.16
-0.15
-0.15
-0.155
-0.16
-0.165
-0.17
-0.155
-0.14
-0.145
-0.145
-0.13
-0.14
-0.14
-0.13
-0.125
-0.11
-0.11
-0.13
-0.115
-0.13
-0.11
-0.1
-0.09
-0.085
-0.095
-0.095
-0.1
-0.105
-0.11
-0.1
-0.09
-0.07
-0.04
-0.015
-0.01
-0.02
-0.015
-0.01
-0.025
-0.02
-0.03
-0.015
-0.015
-0.005
0.005
0.01
0.035
0.04
0.07
0.085
0.095
0.095
0.11
0.1
0.12
0.115
0.125
0.14
0.15
0.17
0.19
0.195
0.2
0.195
0.2
0.215
0.22
0.235
0.26
0.275
0.29
0.315
0.31
0.315
0.31
0.32
0.32
0.315
0.33
0.33
0.33
0.345
0.36
0.385
0.385
0.385
0.36
0.34
0.345
0.32
0.315
0.33
0.345
0.325
0.335
0.32
0.285
0.265
0.24
0.225
0.22
0.2
0.195
0.175
0.165
0.145
0.15
0.125
0.105
0.075
0.05
0.035
-0.005
-0.015
-0.025
-0.04
-0.05
-0.07
-0.075
-0.065
-0.055
-0.06
-0.07
-0.1
-0.125
-0.13
-0.14
-0.14
-0.13
-0.125
-0.125
-0.115
-0.13
-0.13
-0.135
-0.125
-0.13
-0.145
-0.135
-0.12
-0.095
-0.095
-0.09
-0.09
-0.09
-0.09
-0.095
-0.095
-0.105
-0.105
-0.125
-0.115
-0.09
-0.095
-0.085
-0.105
-0.09
-0.09
-0.1
-0.105
-0.11
-0.12
-0.115
-0.11
-0.12
-0.115
-0.115
-0.12
-0.125
-0.135
-0.14
-0.135
-0.145
-0.145
-0.145
-0.14
-0.14
-0.14
-0.135
-0.14
-0.14
-0.14
-0.15
-0.15
-0.175
-0.18
-0.18
-0.17
-0.165
-0.17
-0.16
-0.165
-0.165
-0.165
-0.175
-0.18
-0.2
-0.19
-0.2
-0.19
-0.2
-0.185
-0.18
-0.185
-0.18
-0.18
-0.185
-0.185
-0.195
-0.2
-0.2
-0.2
-0.19
-0.185
-0.18
-0.175
-0.175
-0.19
-0.185
-0.19
-0.205
-0.2
-0.2
-0.205
-0.19
-0.18
-0.17
-0.17
-0.16
-0.15
-0.16
-0.155
-0.165
-0.16
-0.15
-0.15
-0.125
-0.115
-0.085
-0.06
-0.06
-0.035
-0.035
-0.045
-0.07
-0.075
-0.095
-0.08
-0.09
-0.1
-0.095
-0.105
-0.125
-0.13
-0.15
-0.165
-0.2
-0.205
-0.23
-0.235
-0.23
-0.23
-0.22
-0.235
-0.22
-0.22
-0.235
-0.24
-0.25
-0.26
-0.255
-0.25
-0.25
-0.25
-0.235
-0.225
-0.235
-0.235
-0.24
-0.25
-0.245
-0.275
-0.27
-0.26
-0.25
-0.255
-0.24
-0.245
-0.25
-0.28
-0.325
-0.38
-0.455
-0.515
-0.525
-0.46
-0.29
-0.055
0.26
0.605
0.94
1.205
1.37
1.38
1.19
0.815
0.38
-0.015
-0.27
-0.38
-0.405
-0.37
-0.38
-0.405
-0.485
-0.61
-0.725
-0.835
-0.895
-0.92
-0.925
-0.9
-0.865
-0.815
-0.75
-0.675
-0.61
-0.535
-0.475
-0.415
-0.365
-0.335
-0.305
-0.29
-0.28
-0.275
-0.265
-0.255
-0.26
-0.27
-0.26
-0.26
-0.26
-0.24
-0.235
-0.235
-0.235
-0.22
-0.21
-0.205
-0.22
-0.215
-0.23
-0.22
-0.23
-0.22
-0.205
-0.205
-0.2
-0.19
-0.195
-0.175
-0.19
-0.19
-0.19
-0.19
-0.18
-0.175
-0.17
-0.16
-0.155
-0.135
-0.14
-0.135
-0.145
-0.135
-0.13
-0.13
-0.12
-0.11
-0.1
-0.095
-0.075
-0.07
-0.065
-0.06
-0.065
-0.065
-0.055
-0.04
-0.03
-0.025
-0.01
0.015
0.025
0.045
0.055
0.065
0.07
0.085
0.08
0.1
0.105
0.12
0.13
0.155
0.155
0.175
0.19
0.205
0.2
0.2
0.2
0.205
0.22
0.225
0.23
0.235
0.24
0.265
0.265
0.265
0.255
0.26
0.245
0.24
0.23
0.215
0.2
0.195
0.19
0.175
0.16
0.15
0.13
0.1
0.06
0.04
0.015
0.005
-0.01
-0.03
-0.05
-0.07
-0.07
-0.1
-0.12
-0.14
-0.155
-0.17
-0.185
-0.19
-0.185
-0.2
-0.195
-0.2
-0.215
-0.21
-0.22
-0.225
-0.225
-0.24
-0.235
-0.245
-0.25
-0.24
-0.24
-0.23
-0.225
-0.235
-0.235
-0.23
-0.24
-0.235
-0.24
-0.24
-0.235
-0.215
-0.215
-0.22
-0.215
-0.21
-0.205
-0.21
-0.22
-0.23
-0.225
-0.22
-0.215
-0.205
-0.2
-0.2
-0.2
-0.2
-0.22
-0.23
-0.235
-0.225
-0.23
-0.23
-0.23
-0.23
-0.225
-0.22
-0.22
-0.225
-0.23
-0.235
-0.245
-0.25
-0.25
-0.27
-0.27
-0.26
-0.25
-0.245
-0.255
-0.245
-0.27
-0.27
-0.28
-0.285
-0.285
-0.285
-0.28
-0.275
-0.28
-0.27
-0.27
-0.265
-0.275
-0.28
-0.28
-0.285
-0.285
-0.28
-0.275
-0.28
-0.275
-0.265
-0.28
-0.275
-0.275
-0.285
-0.305
-0.295
-0.305
-0.3
-0.295
-0.3
-0.295
-0.285
-0.285
-0.275
-0.285
-0.29
-0.295
-0.3
-0.3
-0.3
-0.295
-0.3
-0.3
-0.275
-0.29
-0.28
-0.315
-0.29
-0.29
-0.3
-0.29
-0.3
-0.285
-0.29
-0.275
-0.275
-0.285
-0.275
-0.29
-0.29
-0.295
-0.295
-0.295
-0.3
-0.285
-0.29
-0.275
-0.265
-0.26
-0.25
-0.27
-0.245
-0.245
-0.245
-0.24
-0.235
-0.22
-0.22
-0.21
-0.2
-0.185
-0.17
-0.16
-0.155
-0.135
-0.135
-0.13
-0.13
-0.13
-0.13
-0.135
-0.165
-0.16
-0.17
-0.18
-0.195
-0.23
-0.245
-0.265
-0.275
-0.295
-0.295
-0.295
-0.295
-0.305
-0.305
-0.31
-0.315
-0.335
-0.335
-0.34
-0.335
-0.335
-0.325
-0.325
-0.32
-0.315
-0.32
-0.33
-0.33
-0.34
-0.34
-0.335
-0.335
-0.335
-0.33
-0.335
-0.355
-0.395
-0.43
-0.5
-0.57
-0.58
-0.515
-0.345
-0.075
0.26
0.63
0.975
1.24
1.36
1.28
0.98
0.545
0.095
-0.25
-0.43
-0.5
-0.49
-0.49
-0.51
-0.565
-0.665
-0.785
-0.905
-0.985
-1.04
-1.05
-1.04
-1.0
-0.925
-0.86
-0.79
-0.695
-0.625
-0.565
-0.505
-0.45
-0.415
-0.4
-0.38
-0.365
-0.355
-0.355
-0.33
-0.335
-0.32
-0.315
-0.315
-0.315
-0.31
-0.305
-0.31
-0.31
-0.305
-0.29
-0.29
-0.265
-0.275
-0.28
-0.285
-0.28
-0.29
-0.285
-0.285
-0.275
-0.27
-0.26
-0.25
-0.24
-0.25
-0.245
-0.24
-0.24
-0.24
-0.24
-0.24
-0.235
-0.22
-0.21
-0.19
-0.195
-0.195
-0.185
-0.18
-0.18
-0.18
-0.18
-0.175
-0.16
-0.145
-0.135
-0.125
-0.11
-0.11
-0.09
-0.095
-0.1
-0.085
-0.09
-0.085
-0.055
-0.04
-0.035
-0.01
0.005
0.015
0.02
0.025
0.025
0.035
0.05
0.065
0.08
0.095
0.115
0.13
0.15
0.17
0.185
0.18
0.18
0.2
0.205
0.215
0.225
0.245
0.26
0.275
0.29
0.29
0.29
0.29
0.28
0.3
0.285
0.295
0.3
0.315
0.32
0.325
0.32
0.305
0.295
0.285
0.265
0.245
0.225
0.22
0.21
0.195
0.185
0.16
0.145
0.11
0.105
0.06
0.03
0.02
-0.01
-0.01
-0.035
-0.045
-0.06
-0.075
-0.09
-0.11
-0.125
-0.13
-0.155
-0.17
-0.185
-0.195
-0.19
-0.2
-0.215
-0.205
-0.215
-0.225
-0.23
-0.235
-0.235
-0.25
-0.25
-0.255
-0.25
-0.25
-0.25
-0.235
-0.24
-0.25
-0.25
-0.255
-0.265
-0.27
-0.275
-0.265
-0.275
-0.255
-0.24
-0.235
-0.23
-0.22
-0.23
-0.24
-0.255
-0.25
-0.255
-0.255
-0.255
-0.25
-0.245
-0.235
-0.22
-0.225
-0.225
-0.235
-0.235
-0.245
-0.26
-0.255
-0.245
-0.25
-0.245
-0.24
-0.23
-0.24
-0.25
-0.26
-0.265
-0.27
-0.265
-0.275
-0.27
-0.275
-0.26
-0.255
-0.255
-0.26
-0.26
-0.28
-0.285
-0.295
-0.285
-0.29
-0.285
-0.285
-0.285
-0.275
-0.265
-0.275
-0.265
-0.27
-0.295
-0.285
-0.295
-0.3
-0.295
-0.295
-0.285
-0.285
-0.275
-0.28
-0.285
-0.29
-0.29
-0.31
-0.305
-0.32
-0.31
-0.305
-0.29
-0.265
-0.265
-0.275
-0.295
-0.3
-0.31
-0.31
-0.305
-0.3
-0.29
-0.285
-0.285
-0.275
-0.28
-0.295
-0.285
-0.29
-0.285
-0.29
-0.29
-0.3
-0.305
-0.315
-0.31
-0.31
-0.315
-0.3
-0.3
-0.29
-0.285
-0.285
-0.275
-0.26
-0.245
-0.24
-0.235
-0.23
-0.225
-0.23
-0.215
-0.22
-0.21
-0.18
-0.17
-0.16
-0.15
-0.135
-0.135
-0.115
-0.11
-0.125
-0.125
-0.15
-0.16
-0.18
-0.2
-0.2
-0.215
-0.24
-0.245
-0.265
-0.255
-0.285
-0.29
-0.305
-0.3
-0.295
-0.315
-0.315
-0.315
-0.325
-0.33
-0.33
-0.325
-0.325
-0.335
-0.335
-0.315
-0.32
-0.325
-0.325
-0.345
-0.335
-0.33
-0.31
-0.295
-0.285
-0.285
-0.285
-0.305
-0.335
-0.37
-0.415
-0.48
-0.535
-0.555
-0.52
-0.385
-0.165
0.165
0.53
0.875
1.155
1.31
1.285
1.03
0.605
0.125
-0.265
-0.495
-0.575
-0.585
-0.545
-0.54
-0.575
-0.665
-0.765
-0.855
-0.935
-0.995
-0.995
-0.96
-0.94
-0.9
-0.855
-0.81
-0.75
-0.695
-0.61
-0.535
-0.48
-0.42
-0.39
-0.365
-0.35
-0.33
-0.315
-0.3
-0.295
-0.3
-0.31
-0.3
-0.295
-0.275
-0.26
-0.245
-0.25
-0.255
-0.255
-0.265
-0.285
-0.285
-0.28
-0.275
-0.27
-0.27
-0.25
-0.23
-0.235
-0.22
-0.23
-0.23
-0.23
-0.235
-0.23
-0.21
-0.205
-0.2
-0.21
-0.2
-0.195
-0.185
-0.19
-0.18
-0.18
-0.175
-0.155
-0.17
-0.155
-0.15
-0.14
-0.125
-0.13
-0.12
-0.12
-0.115
-0.12
-0.12
-0.115
-0.115
-0.09
-0.07
-0.035
-0.015
-0.01
0.0
-0.005
-0.005
-0.005
-0.01
0.005
0.015
0.035
0.05
0.07
0.095
0.1
0.115
0.125
0.13
0.145
0.145
0.145
0.165
0.175
0.2
0.205
0.23
0.235
0.235
0.215
0.215
0.22
0.23
0.23
0.245
0.265
0.28
0.29
0.295
0.295
0.3
0.295
0.265
0.245
0.22
0.21
0.19
0.185
0.16
0.16
0.165
0.14
0.13
0.115
0.09
0.045
0.02
-0.01
-0.015
-0.04
-0.05
-0.06
-0.075
-0.1
-0.11
-0.145
-0.165
-0.175
-0.185
-0.185
-0.19
-0.195
-0.19
-0.195
-0.19
-0.205
-0.21
-0.22
-0.225
-0.23
-0.24
-0.23
-0.23
-0.23
-0.22
-0.21
-0.205
-0.2
-0.19
-0.2
-0.195
-0.2
-0.21
-0.205
-0.2
-0.19
-0.18
-0.18
-0.18
-0.185
-0.18
-0.185
-0.195
-0.195
-0.2
-0.21
-0.215
-0.22
-0.2
-0.195
-0.2
-0.19
-0.205
-0.215
-0.215
-0.23
-0.23
-0.24
-0.24
-0.235
-0.23
-0.23
-0.225
-0.23
-0.24
-0.245
-0.245
-0.265
-0.265
-0.265
-0.26
-0.255
-0.27
-0.26
-0.255
-0.26
-0.255
-0.265
-0.275
-0.27
-0.275
-0.275
-0.285
-0.27
-0.265
-0.265
-0.26
-0.265
-0.27
-0.285
-0.285
-0.295
-0.29
-0.295
-0.29
-0.285
-0.27
-0.27
-0.27
-0.27
-0.28
-0.28
-0.29
-0.285
-0.3
-0.295
-0.295
-0.285
-0.275
-0.265
-0.26
-0.255
-0.26
-0.255
-0.255
-0.25
-0.245
-0.23
-0.23
-0.22
-0.21
-0.205
-0.19
-0.175
-0.15
-0.15
-0.14
-0.13
-0.135
-0.135
-0.14
-0.14
-0.15
-0.15
-0.155
-0.17
-0.18
-0.19
-0.21
-0.235
-0.245
-0.275
-0.305
-0.295
-0.3
-0.3
-0.3
-0.305
-0.3
-0.315
-0.305
-0.33
-0.325
-0.325
-0.32
-0.32
-0.325
-0.315
-0.32
-0.32
-0.32
-0.325
-0.32
-0.335
-0.335
-0.34
-0.335
-0.325
-0.325
-0.32
-0.32
-0.325
-0.355
-0.405
-0.455
-0.51
-0.56
-0.58
-0.51
-0.33
-0.055
0.295
0.665
1.005
1.245
1.305
1.15
0.795
0.325
-0.09
-0.375
-0.5
-0.525
-0.53
-0.525
-0.575
-0.66
-0.78
-0.89
-0.98
-1.03
-1.045
-1.015
-0.97
-0.9
-0.83
-0.735
-0.655
-0.575
-0.51
-0.47
-0.435
-0.41
-0.405
-0.385
-0.395
-0.355
-0.345
-0.34
-0.34
-0.325
-0.32
-0.325
-0.325
-0.33
-0.325
-0.315
-0.325
-0.32
-0.31
-0.3
-0.295
-0.29
-0.295
-0.31
-0.3
-0.305
-0.29
-0.29
-0.295
-0.285
-0.275
-0.27
-0.26
-0.25
-0.26
-0.27
-0.27
-0.265
-0.25
-0.25
-0.24
-0.235
-0.225
-0.21
-0.205
-0.205
-0.205
-0.205
-0.205
-0.2
-0.19
-0.18
-0.165
-0.165
-0.155
-0.13
-0.125
-0.115
-0.115
-0.12
-0.11
-0.11
-0.1
-0.09
-0.07
-0.05
-0.035
-0.02
-0.005
0.0
0.005
0.02
0.025
0.025
0.04
0.05
0.065
0.09
0.105
0.13
0.125
0.15
0.155
0.15
0.165
0.16
0.17
0.18
0.19
0.2
0.22
0.22
0.225
0.23
0.23
0.235
0.23
0.235
0.24
0.23
0.235
0.235
0.23
0.23
0.225
0.215
0.19
0.17
0.15
0.14
0.13
0.12
0.1
0.08
0.06
0.055
0.05
0.03
-0.005
-0.015
-0.04
-0.07
-0.095
-0.11
-0.125
-0.14
-0.145
-0.155
-0.17
-0.185
-0.19
-0.205
-0.22
-0.23
-0.235
-0.25
-0.25
-0.245
-0.245
-0.24
-0.245
-0.24
-0.255
-0.27
-0.275
-0.275
-0.275
-0.265
-0.27
-0.265
-0.26
-0.25
-0.255
-0.25
-0.255
-0.27
-0.26
-0.265
-0.275
-0.26
-0.255
-0.26
-0.245
-0.255
-0.25
-0.24
-0.255
-0.26
-0.255
-0.255
-0.255
-0.26
-0.25
-0.26
-0.255
-0.245
-0.245
-0.24
-0.25
-0.255
-0.265
-0.27
-0.265
-0.275
-0.27
-0.265
-0.27
-0.27
-0.265
-0.265
-0.255
-0.27
-0.28
-0.28
-0.285
-0.285
-0.275
-0.28
-0.27
-0.265
-0.28
-0.28
-0.28
-0.29
-0.29
-0.3
-0.305
-0.3
-0.31
-0.305
-0.29
-0.285
-0.305
-0.29
-0.29
-0.3
-0.31
-0.31
-0.315
-0.32
-0.31
-0.31
-0.305
-0.295
-0.3
-0.295
-0.305
-0.305
-0.325
-0.335
-0.32
-0.32
-0.32
-0.31
-0.3
-0.29
-0.295
-0.31
-0.305
-0.305
-0.315
-0.325
-0.315
-0.31
-0.31
-0.31
-0.305
-0.295
-0.305
-0.315
-0.3
-0.305
-0.315
-0.325
-0.325
-0.315
-0.31
-0.295
-0.295
-0.29
-0.285
-0.29
-0.295
-0.305
-0.3
-0.305
-0.305
-0.3
-0.285
-0.265
-0.26
-0.245
-0.245
-0.235
-0.235
-0.225
-0.225
-0.225
-0.21
-0.185
-0.155
-0.14
-0.13
-0.12
-0.115
-0.13
-0.145
-0.16
-0.175
-0.195
-0.2
-0.21
-0.225
-0.235
-0.24
-0.25
-0.265
-0.28
-0.295
-0.305
-0.32
-0.335
-0.335
-0.34
-0.33
-0.325
-0.33
-0.325
-0.335
-0.325
-0.335
-0.335
-0.35
-0.345
-0.35
-0.345
-0.335
-0.345
-0.335
-0.33
-0.32
-0.32
-0.33
-0.345
-0.35
-0.385
-0.425
-0.49
-0.545
-0.58
-0.54
-0.39
-0.145
0.18
0.56
0.92
1.21
1.325
1.255
0.955
0.51
0.065
-0.265
-0.445
-0.51
-0.51
-0.495
-0.53
-0.595
-0.705
-0.83
-0.945
-1.025
-1.065
-1.045
-1.025
-0.965
-0.91
-0.83
-0.74
-0.66
-0.595
-0.535
-0.465
-0.425
-0.395
-0.37
-0.355
-0.35
-0.35
-0.33
-0.335
-0.34
-0.335
-0.33
-0.32
-0.315
-0.325
-0.315
-0.305
-0.295
-0.29
-0.3
-0.305
-0.31
-0.305
-0.305
-0.305
-0.285
-0.285
-0.275
-0.265
-0.265
-0.265
-0.27
-0.26
-0.255
-0.255
-0.25
-0.25
-0.245
-0.245
-0.235
-0.22
-0.22
-0.21
-0.205
-0.215
-0.205
-0.21
-0.195
-0.19
-0.185
-0.17
-0.155
-0.155
-0.14
-0.125
-0.12
-0.12
-0.11
-0.115
-0.115
-0.1
-0.095
