Lead II
-0.865
-0.865
-0.865
-0.85
-0.87
-0.9
-0.915
-0.9
-0.895
-0.895
-0.89
-0.905
-0.925
-0.91
-0.905
-0.89
-0.915
-0.925
-0.925
-0.895
-0.875
-0.83
-0.82
-0.845
-0.83
-0.815
-0.78
-0.745
-0.73
-0.73
-0.71
-0.675
-0.625
-0.6
-0.57
-0.54
-0.525
-0.505
-0.47
-0.445
-0.435
-0.4
-0.39
-0.345
-0.305
-0.275
-0.28
-0.285
-0.295
-0.255
-0.225
-0.19
-0.19
-0.195
-0.195
-0.205
-0.21
-0.175
-0.175
-0.2
-0.21
-0.19
-0.17
-0.155
-0.165
-0.175
-0.18
-0.175
-0.16
-0.165
-0.175
-0.195
-0.195
-0.19
-0.165
-0.14
-0.165
-0.19
-0.22
-0.18
-0.17
-0.15
-0.155
-0.19
-0.185
-0.2
-0.165
-0.155
-0.17
-0.17
-0.21
-0.18
-0.18
-0.175
-0.175
-0.175
-0.19
-0.175
-0.17
-0.165
-0.18
-0.2
-0.185
-0.18
-0.18
-0.175
-0.18
-0.195
-0.2
-0.2
-0.18
-0.165
-0.165
-0.17
-0.175
-0.175
-0.17
-0.165
-0.175
-0.18
-0.195
-0.2
-0.195
-0.185
-0.19
-0.195
-0.215
-0.21
-0.205
-0.205
-0.21
-0.235
-0.24
-0.23
-0.185
-0.165
-0.175
-0.205
-0.22
-0.215
-0.195
-0.21
-0.225
-0.225
-0.23
-0.23
-0.22
-0.21
-0.23
-0.24
-0.245
-0.24
-0.23
-0.225
-0.215
-0.225
-0.245
-0.225
-0.23
-0.235
-0.22
-0.245
-0.255
-0.255
-0.25
-0.24
-0.225
-0.24
-0.24
-0.235
-0.235
-0.235
-0.245
-0.265
-0.275
-0.26
-0.225
-0.21
-0.225
-0.23
-0.25
-0.245
-0.235
-0.25
-0.25
-0.27
-0.26
-0.245
-0.24
-0.23
-0.22
-0.225
-0.23
-0.24
-0.235
-0.23
-0.23
-0.245
-0.26
-0.245
-0.235
-0.235
-0.225
-0.245
-0.245
-0.24
-0.225
-0.23
-0.235
-0.25
-0.255
-0.245
-0.24
-0.245
-0.25
-0.265
-0.235
-0.195
-0.18
-0.195
-0.22
-0.245
-0.265
-0.24
-0.22
-0.22
-0.215
-0.225
-0.235
-0.245
-0.25
-0.25
-0.235
-0.22
-0.215
-0.215
-0.215
-0.205
-0.215
-0.225
-0.235
-0.225
-0.225
-0.195
-0.21
-0.23
-0.26
-0.24
-0.23
-0.225
-0.23
-0.225
-0.225
-0.195
-0.185
-0.185
-0.205
-0.23
-0.21
-0.22
-0.205
-0.2
-0.22
-0.215
-0.215
-0.205
-0.18
-0.185
-0.21
-0.225
-0.235
-0.23
-0.225
-0.2
-0.205
-0.205
-0.215
-0.21
-0.205
-0.195
-0.19
-0.21
-0.22
-0.215
-0.21
-0.17
-0.16
-0.17
-0.205
-0.205
-0.185
-0.165
-0.185
-0.225
-0.225
-0.205
-0.175
-0.15
-0.17
-0.17
-0.2
-0.19
-0.175
-0.17
-0.17
-0.18
-0.18
-0.19
-0.17
-0.165
-0.175
-0.19
-0.18
-0.18
-0.165
-0.155
-0.16
-0.19
-0.21
-0.19
-0.175
-0.165
-0.16
-0.185
-0.2
-0.19
-0.185
-0.17
-0.175
-0.175
-0.18
-0.135
-0.13
-0.125
-0.145
-0.145
-0.155
-0.16
-0.15
-0.15
-0.16
-0.17
-0.175
-0.15
-0.14
-0.135
-0.13
-0.135
-0.145
-0.145
-0.135
-0.135
-0.15
-0.165
-0.18
-0.185
-0.15
-0.13
-0.125
-0.13
-0.16
-0.17
-0.165
-0.145
-0.145
-0.145
-0.145
-0.14
-0.12
-0.125
-0.125
-0.145
-0.16
-0.165
-0.145
-0.125
-0.115
-0.125
-0.125
-0.13
-0.11
-0.105
-0.11
-0.13
-0.125
-0.13
-0.105
-0.095
-0.11
-0.125
-0.125
-0.11
-0.095
-0.095
-0.115
-0.125
-0.125
-0.115
-0.115
-0.095
-0.11
-0.12
-0.115
-0.11
-0.09
-0.065
-0.06
-0.065
-0.07
-0.065
-0.035
-0.02
0.0
0.01
0.005
0.015
0.04
0.11
0.15
0.19
0.195
0.195
0.2
0.165
0.175
0.16
0.13
0.115
0.115
0.11
0.075
0.01
-0.01
0.0
-0.01
-0.03
-0.045
-0.065
-0.085
-0.1
-0.075
-0.065
-0.08
-0.085
-0.1
-0.105
-0.105
-0.105
-0.105
-0.125
-0.12
-0.125
-0.115
-0.03
0.095
0.335
0.705
1.15
1.53
1.795
1.955
2.0
1.965
1.905
1.715
1.35
0.825
0.235
-0.3
-0.525
-0.47
-0.325
-0.255
-0.27
-0.28
-0.235
-0.2
-0.185
-0.18
-0.18
-0.205
-0.19
-0.185
-0.18
-0.185
-0.195
-0.2
-0.2
-0.15
-0.155
-0.15
-0.165
-0.17
-0.165
-0.165
-0.17
-0.18
-0.19
-0.19
-0.195
-0.18
-0.175
-0.165
-0.17
-0.18
-0.175
-0.17
-0.145
-0.165
-0.165
-0.17
-0.155
-0.155
-0.135
-0.145
-0.165
-0.18
-0.175
-0.16
-0.14
-0.135
-0.135
-0.135
-0.105
-0.1
-0.125
-0.1
-0.075
-0.085
-0.07
-0.08
-0.075
-0.055
-0.05
-0.06
-0.045
-0.025
-0.015
-0.02
-0.02
-0.02
0.0
0.04
0.065
0.075
0.07
0.06
0.075
0.085
0.11
0.135
0.145
0.14
0.16
0.185
0.225
0.22
0.22
0.23
0.25
0.295
0.32
0.33
0.33
0.335
0.345
0.365
0.395
0.405
0.395
0.4
0.42
0.43
0.42
0.415
0.425
0.425
0.445
0.445
0.45
0.43
0.415
0.385
0.375
0.38
0.38
0.37
0.355
0.33
0.315
0.315
0.32
0.29
0.255
0.225
0.235
0.235
0.22
0.195
0.155
0.145
0.135
0.135
0.14
0.115
0.09
0.075
0.075
0.085
0.085
0.065
0.05
0.03
0.045
0.05
0.055
0.03
0.01
0.01
0.03
0.05
0.07
0.045
0.045
0.025
0.035
0.055
0.08
0.06
0.05
0.065
0.09
0.1
0.105
0.095
0.075
0.085
0.08
0.09
0.125
0.11
0.115
0.105
0.11
0.11
0.105
0.09
0.065
0.06
0.07
0.07
0.095
0.065
0.055
0.06
0.065
0.065
0.08
0.045
0.05
0.025
0.025
0.035
0.03
0.02
-0.005
-0.015
-0.02
-0.02
-0.035
-0.04
-0.065
-0.085
-0.065
-0.04
-0.03
-0.055
-0.085
-0.105
-0.11
-0.095
-0.085
-0.115
-0.13
-0.13
-0.135
-0.12
-0.12
-0.13
-0.16
-0.185
-0.175
-0.17
-0.17
-0.17
-0.195
-0.2
-0.2
-0.18
-0.175
-0.18
-0.205
-0.21
-0.195
-0.185
-0.175
-0.185
-0.21
-0.22
-0.21
-0.195
-0.185
-0.21
-0.21
-0.225
-0.225
-0.215
-0.215
-0.21
-0.225
-0.235
-0.235
-0.24
-0.215
-0.205
-0.22
-0.255
-0.255
-0.235
-0.235
-0.245
-0.255
-0.24
-0.25
-0.225
-0.2
-0.19
-0.22
-0.235
-0.25
-0.255
-0.235
-0.245
-0.255
-0.29
-0.275
-0.265
-0.255
-0.245
-0.265
-0.275
-0.28
-0.265
-0.27
-0.245
-0.26
-0.27
-0.26
-0.23
-0.225
-0.235
-0.26
-0.27
-0.285
-0.26
-0.25
-0.255
-0.27
-0.28
-0.27
-0.245
-0.23
-0.24
-0.25
-0.27
-0.275
-0.26
-0.265
-0.255
-0.255
-0.255
-0.25
-0.245
-0.24
-0.235
-0.26
-0.285
-0.285
-0.25
-0.24
-0.235
-0.25
-0.25
-0.27
-0.26
-0.25
-0.26
-0.27
-0.26
-0.25
-0.255
-0.24
-0.235
-0.26
-0.245
-0.25
-0.24
-0.245
-0.245
-0.265
-0.28
-0.27
-0.24
-0.24
-0.24
-0.245
-0.25
-0.26
-0.24
-0.235
-0.24
-0.26
-0.255
-0.245
-0.245
-0.245
-0.26
-0.25
-0.245
-0.225
-0.225
-0.22
-0.225
-0.235
-0.26
-0.24
-0.24
-0.22
-0.235
-0.235
-0.24
-0.23
-0.23
-0.2
-0.22
-0.225
-0.225
-0.215
-0.205
-0.21
-0.215
-0.225
-0.235
-0.225
-0.22
-0.21
-0.23
-0.22
-0.225
-0.21
-0.21
-0.19
-0.18
-0.21
-0.23
-0.21
-0.175
-0.17
-0.165
-0.17
-0.16
-0.135
-0.105
-0.09
-0.045
-0.025
-0.005
0.03
0.08
0.105
0.09
0.045
-0.01
-0.03
-0.025
-0.015
-0.015
-0.03
-0.065
-0.08
-0.09
-0.11
-0.135
-0.155
-0.19
-0.19
-0.18
-0.16
-0.17
-0.2
-0.205
-0.19
-0.16
-0.15
-0.155
-0.175
-0.175
-0.185
-0.16
-0.165
-0.185
-0.24
-0.305
-0.335
-0.315
-0.2
0.015
0.35
0.785
1.245
1.64
1.92
2.065
2.13
2.09
1.945
1.665
1.195
0.57
-0.07
-0.51
-0.515
-0.345
-0.245
-0.255
-0.265
-0.25
-0.245
-0.215
-0.205
-0.225
-0.25
-0.265
-0.265
-0.255
-0.245
-0.255
-0.275
-0.285
-0.295
-0.255
-0.235
-0.25
-0.275
-0.28
-0.28
-0.275
-0.275
-0.27
-0.255
-0.24
-0.245
-0.245
-0.23
-0.235
-0.23
-0.24
-0.245
-0.23
-0.22
-0.225
-0.225
-0.225
-0.205
-0.18
-0.155
-0.16
-0.17
-0.18
-0.19
-0.17
-0.15
-0.15
-0.145
-0.16
-0.15
-0.13
-0.11
-0.105
-0.11
-0.1
-0.095
-0.07
-0.035
-0.04
-0.035
-0.025
-0.01
0.005
0.04
0.05
0.045
0.05
0.075
0.125
0.17
0.18
0.18
0.185
0.225
0.27
0.31
0.32
0.345
0.36
0.39
0.43
0.46
0.49
0.5
0.52
0.535
0.565
0.575
0.585
0.585
0.585
0.585
0.605
0.61
0.595
0.57
0.55
0.535
0.535
0.51
0.49
0.455
0.43
0.4
0.385
0.365
0.325
0.275
0.235
0.21
0.19
0.185
0.17
0.135
0.105
0.08
0.075
0.065
0.05
0.03
-0.005
-0.025
-0.02
-0.015
-0.035
-0.075
-0.12
-0.095
-0.11
-0.11
-0.115
-0.135
-0.135
-0.15
-0.14
-0.15
-0.175
-0.195
-0.215
-0.19
-0.16
-0.145
-0.15
-0.17
-0.2
-0.18
-0.16
-0.155
-0.16
-0.175
-0.18
-0.185
-0.175
-0.155
-0.145
-0.15
-0.16
-0.145
-0.11
-0.105
-0.105
-0.12
-0.13
-0.135
-0.11
-0.095
-0.08
-0.06
-0.035
0.015
0.05
0.07
0.11
0.14
0.165
0.2
0.25
0.31
0.435
0.55
0.755
0.96
1.105
1.15
1.08
0.93
0.73
0.49
0.235
-0.025
-0.37
-0.785
-1.165
-1.395
-1.455
-1.385
-1.265
-1.175
-1.12
-1.105
-1.105
-1.105
-1.115
-1.115
-1.105
-1.075
-1.02
-0.935
-0.855
-0.805
-0.785
-0.74
-0.665
-0.555
-0.5
-0.47
-0.435
-0.405
-0.35
-0.3
-0.285
-0.29
-0.28
-0.245
-0.195
-0.15
-0.15
-0.18
-0.185
-0.17
-0.145
-0.115
-0.125
-0.11
-0.125
-0.1
-0.08
-0.065
-0.085
-0.095
-0.095
-0.065
-0.035
-0.03
-0.035
-0.04
-0.02
-0.02
-0.005
0.015
0.01
0.015
0.035
0.075
0.09
0.11
0.125
0.145
0.145
0.175
0.2
0.25
0.285
0.315
0.33
0.375
0.425
0.46
0.495
0.525
0.555
0.615
0.66
0.72
0.75
0.78
0.795
0.84
0.885
0.935
0.955
0.95
0.96
0.98
1.02
1.025
1.01
0.99
0.97
0.965
0.975
0.965
0.92
0.88
0.84
0.82
0.81
0.79
0.745
0.7
0.65
0.62
0.59
0.575
0.525
0.465
0.425
0.385
0.36
0.32
0.28
0.24
0.2
0.18
0.18
0.165
0.13
0.105
0.07
0.045
0.05
0.04
0.025
-0.005
-0.015
-0.03
-0.025
-0.02
-0.025
-0.045
-0.07
-0.06
-0.05
-0.04
-0.035
-0.05
-0.085
-0.075
-0.03
0.01
0.035
0.04
0.065
0.12
0.17
0.245
0.32
0.385
0.45
0.52
0.62
0.745
0.865
0.98
1.075
1.185
1.3
1.415
1.535
1.59
1.61
1.595
1.575
1.57
1.55
1.51
1.47
1.405
1.335
1.315
1.3
1.285
1.185
1.005
0.805
0.565
0.34
0.11
-0.08
-0.195
-0.255
-0.275
-0.335
-0.395
-0.455
-0.49
-0.505
-0.515
-0.57
-0.6
-0.635
-0.66
-0.68
-0.695
-0.715
-0.735
-0.755
-0.765
-0.775
-0.78
-0.775
-0.78
-0.805
-0.815
-0.795
-0.79
-0.79
-0.77
-0.78
-0.76
-0.745
-0.76
-0.77
-0.785
-0.795
-0.795
-0.785
-0.785
-0.795
-0.815
-0.83
-0.835
-0.835
-0.835
-0.85
-0.885
-0.885
-0.905
-0.89
-0.905
-0.93
-0.935
-0.945
-0.95
-0.95
-0.95
-0.965
-0.99
-1.005
-1.015
-1.015
-0.995
-0.985
-1.0
-0.995
-1.0
-0.99
-0.965
-0.965
-0.97
-0.96
-0.93
-0.905
-0.87
-0.835
-0.815
-0.81
-0.795
-0.75
-0.71
-0.685
-0.655
-0.645
-0.625
-0.575
-0.53
-0.51
-0.485
-0.47
-0.465
-0.44
-0.415
-0.405
-0.395
-0.385
-0.38
-0.345
-0.31
-0.3
-0.305
-0.315
-0.285
-0.285
-0.245
-0.25
-0.27
-0.265
-0.27
-0.255
-0.245
-0.245
-0.26
-0.26
-0.23
-0.22
-0.21
-0.24
-0.265
-0.28
-0.275
-0.26
-0.24
-0.255
-0.26
-0.27
-0.265
-0.255
-0.26
-0.27
-0.255
-0.25
-0.235
-0.22
-0.23
-0.24
-0.255
-0.26
-0.26
-0.23
-0.235
-0.245
-0.255
-0.26
-0.26
-0.245
-0.245
-0.26
-0.275
-0.28
-0.265
-0.23
-0.215
-0.225
-0.25
-0.255
-0.25
-0.225
-0.22
-0.23
-0.245
-0.245
-0.235
-0.235
-0.23
-0.245
-0.26
-0.27
-0.265
-0.25
-0.225
-0.235
-0.235
-0.27
-0.275
-0.265
-0.25
-0.26
-0.28
-0.31
-0.3
-0.275
-0.245
-0.25
-0.27
-0.285
-0.3
-0.275
-0.27
-0.265
-0.28
-0.285
-0.305
-0.27
-0.25
-0.25
-0.27
-0.285
-0.285
-0.275
-0.27
-0.275
-0.285
-0.3
-0.29
-0.28
-0.255
-0.275
-0.285
-0.305
-0.315
-0.305
-0.3
-0.305
-0.31
-0.335
-0.315
-0.285
-0.26
-0.265
-0.275
-0.29
-0.3
-0.3
-0.29
-0.265
-0.27
-0.295
-0.3
-0.285
-0.27
-0.265
-0.285
-0.3
-0.305
-0.295
-0.3
-0.335
-0.34
-0.315
-0.255
-0.22
-0.2
-0.22
-0.265
-0.29
-0.28
-0.265
-0.245
-0.245
-0.27
-0.285
-0.265
-0.26
-0.25
-0.25
-0.27
-0.29
-0.295
-0.29
-0.27
-0.29
-0.29
-0.3
-0.275
-0.255
-0.235
-0.25
-0.265
-0.29
-0.285
-0.265
-0.25
-0.24
-0.26
-0.26
-0.24
-0.255
-0.26
-0.275
-0.285
-0.285
-0.275
-0.26
-0.265
-0.265
-0.26
-0.255
-0.25
-0.24
-0.25
-0.26
-0.275
-0.28
-0.27
-0.265
-0.26
-0.26
-0.27
-0.275
-0.265
-0.24
-0.23
-0.245
-0.25
-0.265
-0.245
-0.23
-0.22
-0.225
-0.24
-0.265
-0.265
-0.26
-0.24
-0.26
-0.255
-0.265
-0.26
-0.245
-0.235
-0.23
-0.255
-0.26
-0.245
-0.245
-0.225
-0.235
-0.27
-0.28
-0.285
-0.26
-0.23
-0.22
-0.22
-0.25
-0.24
-0.225
-0.21
-0.2
-0.205
-0.235
-0.25
-0.235
-0.225
-0.235
-0.235
-0.235
-0.235
-0.22
-0.22
-0.225
-0.225
-0.23
-0.24
-0.24
-0.235
-0.245
-0.25
-0.255
-0.255
-0.235
-0.22
-0.21
-0.205
-0.22
-0.225
-0.22
-0.21
-0.205
-0.235
-0.24
-0.225
-0.21
-0.2
-0.215
-0.235
-0.245
-0.26
-0.25
-0.235
-0.24
-0.24
-0.24
-0.21
-0.18
-0.18
-0.205
-0.21
-0.225
-0.205
-0.19
-0.175
-0.205
-0.22
-0.225
-0.225
-0.205
-0.18
-0.18
-0.195
-0.22
-0.215
-0.225
-0.19
-0.185
-0.18
-0.195
-0.195
-0.2
-0.195
-0.21
-0.205
-0.215
-0.235
-0.225
-0.195
-0.19
-0.2
-0.195
-0.165
-0.14
-0.135
-0.115
-0.11
-0.09
-0.09
-0.105
-0.105
-0.09
-0.08
-0.035
0.02
0.06
0.095
0.1
0.08
0.07
0.06
0.07
0.075
0.08
0.04
0.005
-0.025
-0.055
-0.06
-0.08
-0.125
-0.16
-0.18
-0.18
-0.145
-0.145
-0.16
-0.185
-0.185
-0.195
-0.165
-0.15
-0.17
-0.19
-0.225
-0.26
-0.27
-0.265
-0.16
0.065
0.445
0.92
1.36
1.67
1.835
1.92
1.895
1.795
1.53
1.035
0.44
-0.16
-0.53
-0.545
-0.375
-0.285
-0.315
-0.33
-0.31
-0.285
-0.25
-0.23
-0.23
-0.24
-0.26
-0.28
-0.27
-0.265
-0.285
-0.28
-0.29
-0.265
-0.255
-0.25
-0.265
-0.275
-0.27
-0.25
-0.255
-0.245
-0.26
-0.265
-0.27
-0.25
-0.245
-0.255
-0.275
-0.28
-0.25
-0.235
-0.22
-0.235
-0.25
-0.28
-0.27
-0.25
-0.245
-0.245
-0.245
-0.255
-0.23
-0.225
-0.2
-0.195
-0.195
-0.205
-0.2
-0.185
-0.16
-0.165
-0.17
-0.155
-0.125
-0.09
-0.075
-0.07
-0.075
-0.075
-0.06
-0.02
0.02
0.05
0.065
0.07
0.075
0.105
0.12
0.13
0.15
0.18
0.21
0.245
0.27
0.27
0.285
0.295
0.315
0.345
0.38
0.39
0.385
0.4
0.415
0.425
0.415
0.41
0.395
0.405
0.42
0.42
0.41
0.385
0.355
0.315
0.295
0.28
0.29
0.265
0.235
0.205
0.18
0.165
0.155
0.12
0.095
0.065
0.05
0.045
0.03
0.015
-0.015
-0.03
-0.045
-0.04
-0.045
-0.07
-0.095
-0.105
-0.095
-0.065
-0.04
-0.065
-0.09
-0.115
-0.1
-0.105
-0.085
-0.095
-0.095
-0.095
-0.09
-0.085
-0.085
-0.105
-0.125
-0.105
-0.075
-0.055
-0.045
-0.06
-0.07
-0.07
-0.055
-0.035
-0.03
-0.04
-0.045
-0.04
-0.005
0.045
0.08
0.09
0.11
0.14
0.145
0.175
0.235
0.305
0.43
0.605
0.79
0.925
0.975
0.925
0.775
0.6
0.38
0.155
-0.13
-0.515
-0.915
-1.255
-1.445
-1.475
-1.395
-1.265
-1.185
-1.155
-1.17
-1.195
-1.18
-1.14
-1.125
-1.12
-1.08
-1.01
-0.935
-0.855
-0.805
-0.75
-0.685
-0.605
-0.56
-0.525
-0.525
-0.495
-0.485
-0.45
-0.425
-0.41
-0.395
-0.405
-0.38
-0.36
-0.33
-0.315
-0.285
-0.27
-0.26
-0.245
-0.23
-0.235
-0.24
-0.245
-0.235
-0.225
-0.19
-0.185
-0.175
-0.195
-0.195
-0.18
-0.155
-0.16
-0.16
-0.18
-0.15
-0.13
-0.1
-0.095
-0.09
-0.095
-0.07
-0.05
-0.015
-0.005
0.0
0.02
0.06
0.085
0.145
0.17
0.195
0.225
0.265
0.32
0.37
0.405
0.425
0.455
0.5
0.56
0.625
0.655
0.665
0.67
0.7
0.735
0.745
0.735
0.74
0.72
0.715
0.715
0.725
0.695
0.67
0.64
0.62
0.615
0.59
0.56
0.52
0.48
0.46
0.425
0.39
0.35
0.3
0.275
0.25
0.21
0.2
0.15
0.11
0.075
0.05
0.05
0.04
0.02
-0.02
-0.025
-0.03
-0.05
-0.055
-0.065
-0.08
-0.105
-0.13
-0.125
-0.115
-0.13
-0.14
-0.15
-0.165
-0.155
-0.125
-0.13
-0.135
-0.145
-0.145
-0.105
-0.08
-0.05
-0.02
0.015
0.085
0.145
0.235
0.32
0.39
0.48
0.605
0.715
0.835
0.935
1.035
1.145
1.295
1.42
1.525
1.52
1.5
1.44
1.43
1.435
1.42
1.325
1.225
1.16
1.15
1.17
1.175
1.08
0.92
0.73
0.51
0.31
0.125
-0.085
-0.25
-0.365
-0.415
-0.45
-0.48
-0.525
-0.575
-0.61
-0.64
-0.66
-0.665
-0.705
-0.725
-0.77
-0.795
-0.805
-0.825
-0.835
-0.875
-0.895
-0.885
-0.87
-0.845
-0.86
-0.885
-0.91
-0.92
-0.905
-0.86
-0.85
-0.855
-0.87
-0.86
-0.855
-0.86
-0.865
-0.875
-0.89
-0.895
-0.89
-0.89
-0.905
-0.945
-0.955
-0.975
-0.965
-0.93
-0.945
-0.965
-1.005
-1.02
-1.02
-1.01
-1.045
-1.065
-1.095
-1.085
-1.08
-1.085
-1.095
-1.115
-1.115
-1.105
-1.075
-1.06
-1.055
-1.08
-1.085
-1.055
-1.02
-0.98
-0.98
-0.995
-1.0
-0.97
-0.905
-0.865
-0.84
-0.825
-0.815
-0.77
-0.75
-0.685
-0.655
-0.655
-0.655
-0.61
-0.57
-0.515
-0.505
-0.495
-0.5
-0.47
-0.435
-0.41
-0.39
-0.395
-0.415
-0.4
-0.375
-0.335
-0.34
-0.345
-0.37
-0.37
-0.35
-0.34
-0.345
-0.335
-0.36
-0.35
-0.34
-0.32
-0.325
-0.33
-0.34
-0.37
-0.36
-0.36
-0.355
-0.355
-0.355
-0.34
-0.32
-0.305
-0.315
-0.335
-0.335
-0.35
-0.34
-0.32
-0.335
-0.335
-0.355
-0.345
-0.33
-0.315
-0.33
-0.36
-0.36
-0.355
-0.33
-0.31
-0.315
-0.315
-0.33
-0.335
-0.335
-0.32
-0.33
-0.335
-0.345
-0.345
-0.34
-0.33
-0.34
-0.35
-0.35
-0.325
-0.31
-0.305
-0.32
-0.34
-0.35
-0.345
-0.33
-0.345
-0.35
-0.36
-0.355
-0.345
-0.325
-0.31
-0.33
-0.335
-0.355
-0.355
-0.365
-0.34
-0.325
-0.325
-0.355
-0.35
-0.345
-0.34
-0.335
-0.36
-0.365
-0.36
-0.35
-0.34
-0.355
-0.375
-0.39
-0.37
-0.34
-0.32
-0.33
-0.345
-0.36
-0.365
-0.35
-0.33
-0.34
-0.345
-0.37
-0.35
-0.34
-0.335
-0.355
-0.365
-0.39
-0.395
-0.36
-0.34
-0.335
-0.345
-0.365
-0.37
-0.345
-0.345
-0.345
-0.36
-0.375
-0.375
-0.36
-0.36
-0.345
-0.36
-0.375
-0.36
-0.34
-0.315
-0.325
-0.345
-0.355
-0.37
-0.34
-0.33
-0.34
-0.35
-0.37
-0.35
-0.34
-0.315
-0.325
-0.345
-0.36
-0.36
-0.33
-0.325
-0.33
-0.335
-0.35
-0.355
-0.355
-0.32
-0.325
-0.34
-0.35
-0.34
-0.32
-0.305
-0.315
-0.315
-0.325
-0.33
-0.325
-0.3
-0.295
-0.31
-0.325
-0.325
-0.305
-0.28
-0.305
-0.315
-0.32
-0.31
-0.31
-0.305
-0.31
-0.315
-0.31
-0.31
-0.29
-0.28
-0.28
-0.3
-0.315
-0.3
-0.285
-0.275
-0.29
-0.29
-0.305
-0.275
-0.29
-0.265
-0.285
-0.305
-0.32
-0.31
-0.28
-0.255
-0.235
-0.255
-0.275
-0.27
-0.28
-0.255
-0.26
-0.255
-0.265
-0.28
-0.26
-0.255
-0.255
-0.245
-0.255
-0.265
-0.26
-0.245
-0.245
-0.25
-0.275
-0.26
-0.235
-0.245
-0.25
-0.27
-0.255
-0.25
-0.24
-0.215
-0.215
-0.23
-0.255
-0.245
-0.235
-0.235
-0.23
-0.245
-0.25
-0.25
-0.225
-0.225
-0.235
-0.26
-0.265
-0.24
-0.24
-0.23
-0.235
-0.24
-0.25
-0.25
-0.24
-0.22
-0.225
-0.24
-0.25
-0.235
-0.235
-0.215
-0.22
-0.21
-0.24
-0.24
-0.23
-0.215
-0.22
-0.24
-0.235
-0.25
-0.24
-0.225
-0.215
-0.23
-0.23
-0.215
-0.195
-0.195
-0.215
-0.225
-0.225
-0.23
-0.225
-0.215
-0.225
-0.24
-0.245
-0.23
-0.22
-0.21
-0.22
-0.215
-0.205
-0.195
-0.2
-0.19
-0.195
-0.2
-0.225
-0.225
-0.235
-0.22
-0.225
-0.22
-0.215
-0.19
-0.18
-0.175
-0.18
-0.19
-0.185
-0.2
-0.21
-0.2
-0.19
-0.195
-0.21
-0.21
-0.205
-0.195
-0.2
-0.185
-0.19
-0.19
-0.19
-0.185
-0.185
-0.185
-0.195
-0.2
-0.19
-0.18
-0.19
-0.175
-0.185
-0.185
-0.175
-0.19
-0.2
-0.2
-0.205
-0.205
-0.17
-0.17
-0.16
-0.185
-0.19
-0.19
-0.17
-0.155
-0.16
-0.18
-0.205
-0.18
-0.165
-0.16
-0.155
-0.16
-0.175
-0.175
-0.155
-0.13
-0.13
-0.16
-0.185
-0.155
-0.13
-0.11
-0.115
-0.09
-0.08
-0.055
-0.025
-0.015
0.0
0.025
0.07
0.1
0.11
0.1
0.055
0.025
0.005
0.01
0.015
0.005
0.01
-0.04
-0.08
-0.11
-0.12
-0.115
-0.12
-0.145
-0.16
-0.16
-0.16
-0.145
-0.145
-0.16
-0.17
-0.16
-0.165
-0.155
-0.16
-0.16
-0.175
-0.195
-0.22
-0.23
-0.22
-0.16
-0.015
0.3
0.72
1.16
1.495
1.72
1.83
1.89
1.865
1.77
1.485
1.01
0.405
-0.195
-0.545
-0.54
-0.385
-0.29
-0.285
-0.305
-0.3
-0.26
-0.245
-0.245
-0.265
-0.245
-0.24
-0.23
-0.225
-0.25
-0.25
-0.24
-0.225
-0.21
-0.22
-0.23
-0.255
-0.26
-0.265
-0.255
-0.255
-0.28
-0.265
-0.25
-0.235
-0.22
-0.23
-0.235
-0.245
-0.265
-0.265
-0.26
-0.25
-0.24
-0.225
-0.225
-0.215
-0.2
-0.205
-0.22
-0.235
-0.21
-0.19
-0.155
-0.15
-0.155
-0.18
-0.195
-0.165
-0.155
-0.16
-0.145
-0.155
-0.125
-0.11
-0.1
-0.12
-0.115
-0.12
-0.12
-0.1
-0.06
-0.04
-0.005
-0.015
-0.01
0.01
0.015
0.025
0.02
0.03
0.055
0.1
0.13
0.135
0.14
0.14
0.16
0.19
0.21
0.235
0.23
0.225
0.24
0.27
0.29
0.315
0.335
0.345
0.355
0.385
0.4
0.385
0.365
0.365
0.375
0.4
0.4
0.4
0.38
0.365
0.37
0.38
0.38
0.36
0.34
0.31
0.305
0.305
0.285
0.265
0.24
0.23
0.23
0.23
0.22
0.18
0.14
0.11
0.105
0.1
0.11
0.085
0.04
0.025
0.015
0.015
0.025
0.01
-0.02
-0.025
-0.015
0.01
0.005
0.0
-0.04
-0.055
-0.055
-0.05
-0.025
-0.02
-0.015
-0.02
-0.025
-0.02
0.0
0.0
-0.02
-0.02
-0.01
0.0
0.025
0.015
0.005
-0.015
0.0
0.03
0.035
0.04
0.035
0.015
0.015
0.02
0.04
0.04
0.025
0.0
0.005
0.02
0.04
0.035
0.025
0.015
0.02
0.01
0.02
0.0
-0.005
-0.03
-0.03
-0.02
-0.015
-0.015
-0.025
-0.045
-0.05
-0.05
-0.07
-0.08
-0.11
-0.135
-0.13
-0.1
-0.1
-0.095
-0.12
-0.15
-0.165
-0.175
-0.165
-0.145
-0.165
-0.19
-0.19
-0.175
-0.165
-0.17
-0.19
-0.205
-0.215
-0.19
-0.185
-0.18
-0.2
-0.21
-0.215
-0.215
-0.21
-0.215
-0.21
-0.215
-0.225
-0.22
-0.215
-0.23
-0.235
-0.25
-0.25
-0.245
-0.235
-0.24
-0.24
-0.255
-0.265
-0.26
-0.25
-0.24
-0.25
-0.265
-0.27
-0.27
-0.255
-0.265
-0.275
-0.28
-0.28
-0.275
-0.265
-0.27
-0.29
-0.28
-0.285
-0.27
-0.25
-0.275
-0.3
-0.3
-0.29
-0.275
-0.26
-0.26
-0.27
-0.3
-0.29
-0.305
-0.28
-0.29
-0.305
-0.315
-0.315
-0.28
-0.27
-0.285
-0.31
-0.32
-0.3
-0.295
-0.285
-0.29
-0.29
-0.305
-0.31
-0.29
-0.285
-0.295
-0.305
-0.315
-0.31
-0.305
-0.305
-0.3
-0.305
-0.315
-0.31
-0.31
-0.305
-0.315
-0.315
-0.325
-0.33
-0.305
-0.28
-0.28
-0.29
-0.325
-0.335
-0.32
-0.3
-0.31
-0.325
-0.325
-0.325
-0.31
-0.29
-0.295
-0.31
-0.31
-0.305
-0.295
-0.295
-0.295
-0.32
-0.34
-0.335
-0.32
-0.3
-0.31
-0.31
-0.31
-0.3
-0.3
-0.265
-0.28
-0.31
-0.335
-0.31
-0.3
-0.275
-0.275
-0.29
-0.305
-0.31
-0.3
-0.275
-0.28
-0.28
-0.3
-0.295
-0.29
-0.285
-0.285
-0.29
-0.305
-0.31
-0.315
-0.295
-0.295
-0.285
-0.27
-0.255
-0.25
-0.24
-0.24
-0.245
-0.23
-0.21
-0.21
-0.17
-0.165
-0.15
-0.14
-0.125
-0.08
-0.04
-0.005
-0.02
-0.03
-0.07
-0.06
-0.07
-0.06
-0.09
-0.12
-0.135
-0.145
-0.155
-0.18
-0.22
-0.235
-0.245
-0.24
-0.245
-0.25
-0.265
-0.275
-0.265
-0.27
-0.245
-0.25
-0.265
-0.28
-0.28
-0.27
-0.27
-0.3
-0.33
-0.36
-0.395
-0.39
-0.345
-0.24
-0.015
0.345
0.78
1.19
1.51
1.725
1.835
1.87
1.825
1.67
1.37
0.91
0.35
-0.19
-0.56
-0.61
-0.48
-0.395
-0.39
-0.405
-0.395
-0.36
-0.31
-0.295
-0.32
-0.35
-0.36
-0.355
-0.34
-0.35
-0.35
-0.365
-0.355
-0.355
-0.345
-0.345
-0.355
-0.375
-0.375
-0.36
-0.36
-0.35
-0.36
-0.37
-0.35
-0.32
-0.305
-0.305
-0.335
-0.35
-0.35
-0.33
-0.31
-0.34
-0.34
-0.335
-0.34
-0.33
-0.315
-0.3
-0.3
-0.305
-0.3
-0.275
-0.255
-0.265
-0.26
-0.265
-0.26
-0.245
-0.24
-0.235
-0.245
-0.245
-0.22
-0.205
-0.2
-0.205
-0.195
-0.205
-0.185
-0.15
-0.12
-0.1
-0.105
-0.115
-0.11
-0.075
-0.045
-0.025
-0.02
-0.01
0.005
0.065
0.1
0.125
0.13
0.145
0.185
0.22
0.24
0.25
0.26
0.265
0.32
0.355
0.38
0.4
0.39
0.41
0.4
0.415
0.43
0.425
0.42
0.39
0.4
0.39
0.4
0.38
0.35
0.325
0.305
0.285
0.275
0.25
0.205
0.165
0.135
0.12
0.12
0.09
0.055
0.03
0.02
-0.005
0.0
-0.025
-0.055
-0.095
-0.1
-0.125
-0.12
-0.135
-0.165
-0.205
-0.185
-0.165
-0.175
-0.2
-0.225
-0.255
-0.26
-0.25
-0.245
-0.27
-0.285
-0.285
-0.29
-0.295
-0.285
-0.295
-0.29
-0.315
-0.325
-0.315
-0.29
-0.31
-0.325
-0.33
-0.315
-0.295
-0.27
-0.27
-0.285
-0.28
-0.275
-0.26
-0.25
-0.245
-0.25
-0.255
-0.235
-0.215
-0.2
-0.21
-0.22
-0.24
-0.22
-0.18
-0.135
-0.11
-0.095
-0.065
0.005
0.05
0.08
0.1
0.135
0.215
0.36
0.515
0.685
0.82
0.895
0.895
0.855
0.75
0.605
0.405
0.19
-0.085
-0.455
-0.865
-1.2
-1.425
-1.51
-1.485
-1.35
-1.225
-1.18
-1.19
-1.215
-1.245
-1.23
-1.19
-1.17
-1.13
-1.1
-1.06
-0.965
-0.89
-0.83
-0.78
-0.735
-0.68
-0.625
-0.565
-0.505
-0.45
-0.44
-0.435
-0.44
-0.405
-0.375
-0.335
-0.31
-0.31
-0.28
-0.26
-0.25
-0.26
-0.255
-0.27
-0.245
-0.235
-0.21
-0.205
-0.21
-0.23
-0.21
-0.2
-0.175
-0.185
-0.18
-0.175
-0.17
-0.155
-0.135
-0.115
-0.135
-0.13
-0.115
-0.085
-0.065
-0.055
-0.03
0.0
0.02
0.05
0.08
0.09
0.105
0.12
0.185
0.225
0.28
0.315
0.345
0.38
0.42
0.47
0.525
0.565
0.6
0.625
0.69
0.735
0.775
0.79
0.775
0.765
0.785
0.805
0.83
0.83
0.82
0.78
0.79
0.775
0.765
0.725
0.68
0.635
0.61
0.585
0.55
0.52
0.48
0.43
0.385
0.375
0.34
0.3
0.23
0.18
0.155
0.155
0.12
0.095
0.045
0.04
0.01
-0.01
-0.03
-0.05
-0.08
-0.105
-0.115
-0.1
-0.09
-0.11
-0.14
-0.155
-0.16
-0.15
-0.12
-0.115
-0.14
-0.155
-0.165
-0.145
-0.1
-0.09
-0.08
-0.065
-0.025
0.035
0.105
0.18
0.26
0.345
0.435
0.56
0.7
0.83
0.945
1.05
1.145
1.26
1.36
1.465
1.545
1.535
1.52
1.51
1.5
1.49
1.445
1.38
1.31
1.25
1.22
1.235
1.2
1.08
0.895
0.65
0.41
0.18
-0.02
-0.21
-0.355
-0.415
-0.425
-0.48
-0.535
-0.595
-0.64
-0.66
-0.66
-0.68
-0.725
-0.765
-0.785
-0.8
-0.825
-0.85
-0.88
-0.89
-0.885
-0.835
-0.83
-0.86
-0.875
-0.895
-0.93
-0.905
-0.895
-0.855
-0.855
-0.865
-0.855
-0.85
-0.85
-0.86
-0.87
-0.905
-0.925
-0.925
-0.94
-0.955
-0.95
-0.94
-0.955
-0.965
-0.975
-0.995
-1.03
-1.05
-1.065
-1.065
-1.075
-1.09
-1.09
-1.1
-1.105
-1.1
-1.095
-1.09
-1.1
-1.11
-1.105
-1.095
-1.085
-1.085
-1.065
-1.06
-1.05
-1.025
-0.965
-0.945
-0.925
-0.915
-0.88
-0.85
-0.815
-0.79
-0.755
-0.735
-0.7
-0.675
-0.63
-0.59
-0.575
-0.55
-0.53
-0.49
-0.475
-0.465
-0.46
-0.46
-0.425
-0.405
-0.395
-0.395
-0.405
-0.395
-0.38
-0.37
-0.37
-0.385
-0.395
-0.395
-0.385
-0.36
-0.345
-0.35
-0.38
