Lead II
-0.815
-0.82
-0.825
-0.84
-0.835
-0.845
-0.845
-0.855
-0.85
-0.855
-0.86
-0.87
-0.885
-0.9
-0.92
-0.935
-0.94
-0.935
-0.945
-0.955
-0.955
-0.955
-0.96
-0.96
-0.975
-0.98
-0.985
-1.0
-1.01
-1.005
-1.01
-1.02
-1.005
-0.995
-0.99
-0.985
-1.0
-1.01
-1.005
-1.005
-1.005
-1.0
-0.995
-0.975
-0.96
-0.955
-0.96
-0.95
-0.965
-0.975
-0.97
-0.97
-0.96
-0.965
-0.96
-0.95
-0.945
-0.94
-0.935
-0.935
-0.935
-0.93
-0.945
-0.955
-0.95
-0.945
-0.93
-0.915
-0.92
-0.925
-0.935
-0.935
-0.93
-0.925
-0.945
-0.935
-0.93
-0.925
-0.925
-0.92
-0.905
-0.9
-0.9
-0.91
-0.9
-0.905
-0.915
-0.915
-0.905
-0.895
-0.895
-0.885
-0.895
-0.895
-0.885
-0.875
-0.875
-0.89
-0.895
-0.905
-0.895
-0.885
-0.89
-0.895
-0.89
-0.88
-0.89
-0.89
-0.89
-0.895
-0.9
-0.89
-0.9
-0.885
-0.885
-0.88
-0.875
-0.88
-0.885
-0.88
-0.875
-0.88
-0.885
-0.885
-0.895
-0.89
-0.89
-0.885
-0.86
-0.87
-0.86
-0.87
-0.875
-0.885
-0.875
-0.87
-0.865
-0.87
-0.865
-0.87
-0.88
-0.875
-0.875
-0.865
-0.86
-0.86
-0.86
-0.87
-0.86
-0.87
-0.855
-0.86
-0.845
-0.84
-0.84
-0.85
-0.85
-0.865
-0.88
-0.885
-0.885
-0.875
-0.865
-0.86
-0.855
-0.85
-0.855
-0.85
-0.86
-0.865
-0.87
-0.875
-0.875
-0.865
-0.865
-0.86
-0.855
-0.845
-0.85
-0.86
-0.855
-0.86
-0.84
-0.84
-0.835
-0.845
-0.835
-0.84
-0.83
-0.825
-0.82
-0.825
-0.83
-0.825
-0.825
-0.82
-0.83
-0.805
-0.805
-0.795
-0.8
-0.775
-0.76
-0.78
-0.78
-0.79
-0.805
-0.8
-0.81
-0.82
-0.815
-0.79
-0.79
-0.785
-0.785
-0.785
-0.8
-0.785
-0.78
-0.77
-0.765
-0.755
-0.75
-0.75
-0.77
-0.785
-0.815
-0.845
-0.865
-0.89
-0.905
-0.905
-0.895
-0.89
-0.885
-0.885
-0.885
-0.87
-0.865
-0.89
-0.875
-0.885
-0.9
-0.9
-0.89
-0.86
-0.795
-0.735
-0.655
-0.575
-0.545
-0.495
-0.49
-0.505
-0.555
-0.625
-0.7
-0.735
-0.71
-0.63
-0.49
-0.325
-0.16
0.01
0.155
0.34
0.525
0.72
0.895
1.05
1.14
1.165
1.145
1.065
0.97
0.815
0.63
0.415
0.21
0.01
-0.19
-0.41
-0.595
-0.775
-0.925
-1.025
-1.1
-1.14
-1.15
-1.15
-1.145
-1.135
-1.135
-1.11
-1.09
-1.07
-1.06
-1.045
-1.05
-1.045
-1.05
-1.055
-1.065
-1.075
-1.08
-1.075
-1.07
-1.06
-1.06
-1.045
-1.055
-1.065
-1.08
-1.09
-1.08
-1.075
-1.07
-1.075
-1.065
-1.08
-1.085
-1.075
-1.075
-1.07
-1.065
-1.07
-1.08
-1.09
-1.095
-1.125
-1.115
-1.125
-1.12
-1.115
-1.115
-1.11
-1.12
-1.12
-1.125
-1.135
-1.13
-1.145
-1.135
-1.125
-1.125
-1.11
-1.125
-1.12
-1.12
-1.13
-1.135
-1.14
-1.145
-1.155
-1.17
-1.165
-1.155
-1.135
-1.135
-1.13
-1.12
-1.135
-1.145
-1.14
-1.14
-1.145
-1.135
-1.135
-1.14
-1.125
-1.105
-1.095
-1.08
-1.07
-1.065
-1.065
-1.05
-1.035
-1.025
-1.005
-1.0
-0.965
-0.955
-0.955
-0.935
-0.935
-0.92
-0.91
-0.91
-0.9
-0.89
-0.875
-0.855
-0.825
-0.84
-0.845
-0.85
-0.85
-0.855
-0.87
-0.85
-0.86
-0.845
-0.845
-0.865
-0.855
-0.875
-0.88
-0.865
-0.895
-0.895
-0.92
-0.935
-0.94
-0.935
-0.935
-0.945
-0.95
-0.96
-0.985
-0.99
-1.0
-1.015
-1.01
-1.025
-1.035
-1.035
-1.025
-1.05
-1.065
-1.07
-1.075
-1.08
-1.075
-1.075
-1.07
-1.075
-1.07
-1.08
-1.075
-1.065
-1.055
-1.05
-1.045
-1.055
-1.065
-1.065
-1.085
-1.075
-1.05
-1.03
-1.03
-1.02
-1.02
-1.02
-1.04
-1.035
-1.045
-1.045
-1.05
-1.055
-1.04
-1.035
-1.015
-1.005
-0.985
-0.985
-0.985
-1.0
-1.01
-1.01
-1.01
-1.005
-1.01
-1.0
-1.0
-0.99
-0.985
-0.97
-0.98
-0.985
-0.995
-1.01
-1.0
-1.015
-1.01
-1.005
-0.985
-0.99
-0.985
-0.975
-0.98
-0.985
-1.0
-1.005
-1.0
-1.0
-1.0
-0.99
-0.985
-0.98
-0.97
-0.975
-0.98
-0.975
-0.975
-0.99
-0.99
-1.0
-1.0
-0.98
-0.96
-0.96
-0.955
-0.955
-0.97
-0.97
-0.97
-0.98
-0.985
-0.995
-0.995
-0.98
-0.97
-0.98
-0.965
-0.955
-0.96
-0.95
-0.965
-0.97
-0.98
-0.98
-0.97
-0.96
-0.95
-0.96
-0.94
-0.94
-0.955
-0.965
-0.975
-0.98
-0.985
-0.98
-0.98
-0.96
-0.955
-0.96
-0.955
-0.945
-0.95
-0.955
-0.96
-0.96
-0.97
-0.97
-0.975
-0.965
-0.95
-0.945
-0.915
-0.91
-0.9
-0.9
-0.91
-0.95
-0.95
-0.955
-0.955
-0.94
-0.935
-0.92
-0.905
-0.905
-0.895
-0.88
-0.895
-0.89
-0.89
-0.885
-0.885
-0.88
-0.88
-0.865
-0.87
-0.865
-0.885
-0.9
-0.9
-0.9
-0.895
-0.885
-0.87
-0.86
-0.84
-0.84
-0.84
-0.85
-0.875
-0.905
-0.935
-0.95
-0.985
-1.0
-1.005
-1.015
-1.01
-1.0
-1.005
-0.99
-0.985
-0.99
-1.0
-0.995
-0.99
-0.98
-0.94
-0.885
-0.815
-0.755
-0.715
-0.675
-0.64
-0.645
-0.67
-0.715
-0.76
-0.79
-0.755
-0.665
-0.495
-0.315
-0.125
0.065
0.24
0.455
0.635
0.81
0.95
1.02
1.04
0.99
0.89
0.745
0.565
0.37
0.13
-0.08
-0.295
-0.475
-0.64
-0.805
-0.955
-1.085
-1.185
-1.245
-1.275
-1.29
-1.285
-1.265
-1.255
-1.225
-1.195
-1.18
-1.155
-1.13
-1.14
-1.135
-1.15
-1.145
-1.155
-1.155
-1.16
-1.16
-1.16
-1.16
-1.165
-1.165
-1.165
-1.16
-1.16
-1.145
-1.13
-1.135
-1.135
-1.15
-1.16
-1.165
-1.165
-1.165
-1.17
-1.15
-1.15
-1.17
-1.145
-1.165
-1.17
-1.185
-1.18
-1.185
-1.185
-1.19
-1.18
-1.17
-1.17
-1.165
-1.18
-1.185
-1.19
-1.195
-1.205
-1.205
-1.205
-1.21
-1.205
-1.2
-1.18
-1.175
-1.185
-1.185
-1.2
-1.23
-1.235
-1.25
-1.24
-1.22
-1.22
-1.2
-1.2
-1.195
-1.195
-1.205
-1.195
-1.185
-1.19
-1.18
-1.175
-1.155
-1.145
-1.125
-1.105
-1.105
-1.085
-1.07
-1.08
-1.065
-1.055
-1.045
-1.05
-1.055
-1.025
-1.015
-0.98
-0.975
-0.96
-0.955
-0.96
-0.96
-0.95
-0.96
-0.96
-0.925
-0.91
-0.905
-0.9
-0.9
-0.915
-0.935
-0.935
-0.94
-0.95
-0.96
-0.96
-0.955
-0.96
-0.965
-0.955
-0.97
-0.975
-0.985
-0.99
-1.0
-1.015
-1.03
-1.035
-1.05
-1.075
-1.065
-1.065
-1.07
-1.07
-1.075
-1.08
-1.09
-1.115
-1.13
-1.145
-1.135
-1.13
-1.115
-1.105
-1.1
-1.11
-1.105
-1.105
-1.115
-1.125
-1.125
-1.135
-1.14
-1.14
-1.115
-1.105
-1.105
-1.08
-1.07
-1.095
-1.095
-1.095
-1.115
-1.12
-1.125
-1.11
-1.09
-1.07
-1.055
-1.055
-1.04
-1.05
-1.055
-1.065
-1.08
-1.075
-1.055
-1.05
-1.045
-1.05
-1.055
-1.055
-1.06
-1.05
-1.05
-1.04
-1.04
-1.045
-1.035
-1.04
-1.035
-1.035
-1.03
-1.03
-1.04
-1.025
-1.03
-1.035
-1.035
-1.025
-1.03
-1.01
-1.0
-1.0
-1.005
-1.0
-1.03
-1.01
-1.025
-1.025
-1.035
-1.035
-1.025
-1.01
-1.0
-1.0
-0.995
-1.01
-0.995
-0.995
-1.005
-1.005
-1.01
-1.005
-1.005
-1.0
-0.99
-0.99
-0.99
-1.01
-1.0
-0.99
-0.99
-0.98
-0.98
-0.975
-0.985
-0.97
-0.985
-0.985
-1.0
-1.0
-1.01
-1.005
-1.01
-1.0
-1.01
-0.995
-0.995
-0.98
-0.975
-0.975
-0.97
-0.97
-0.96
-0.98
-0.985
-0.98
-0.99
-0.99
-0.99
-0.98
-0.975
-0.95
-0.945
-0.945
-0.96
-0.96
-0.975
-0.985
-0.99
-0.985
-0.995
-0.97
-0.965
-0.96
-0.94
-0.955
-0.955
-0.95
-0.955
-0.965
-0.965
-0.955
-0.95
-0.95
-0.955
-0.955
-0.955
-0.96
-0.955
-0.955
-0.96
-0.97
-0.975
-0.975
-0.955
-0.945
-0.925
-0.915
-0.915
-0.9
-0.905
-0.915
-0.93
-0.945
-0.945
-0.925
-0.9
-0.885
-0.88
-0.865
-0.855
-0.855
-0.855
-0.855
-0.87
-0.87
-0.865
-0.87
-0.865
-0.875
-0.86
-0.875
-0.865
-0.855
-0.86
-0.86
-0.875
-0.885
-0.88
-0.875
-0.885
-0.87
-0.89
-0.895
-0.905
-0.925
-0.94
-0.965
-0.97
-0.975
-0.97
-0.965
-0.96
-0.96
-0.95
-0.94
-0.93
-0.935
-0.93
-0.93
-0.895
-0.85
-0.785
-0.715
-0.65
-0.575
-0.52
-0.51
-0.565
-0.635
-0.72
-0.77
-0.725
-0.61
-0.41
-0.195
0.035
0.235
0.44
0.625
0.82
0.965
1.05
1.08
1.03
0.94
0.795
0.58
0.33
0.07
-0.165
-0.37
-0.56
-0.75
-0.905
-1.055
-1.155
-1.21
-1.225
-1.235
-1.225
-1.2
-1.165
-1.135
-1.095
-1.095
-1.085
-1.085
-1.07
-1.085
-1.08
-1.095
-1.08
-1.07
-1.055
-1.06
-1.06
-1.06
-1.07
-1.09
-1.115
-1.125
-1.105
-1.1
-1.09
-1.075
-1.07
-1.06
-1.085
-1.075
-1.075
-1.085
-1.095
-1.12
-1.12
-1.105
-1.11
-1.095
-1.085
-1.09
-1.075
-1.075
-1.075
-1.08
-1.11
-1.105
-1.115
-1.11
-1.105
-1.11
-1.12
-1.105
-1.1
-1.11
-1.105
-1.12
-1.12
-1.13
-1.135
-1.145
-1.125
-1.135
-1.125
-1.12
-1.115
-1.12
-1.14
-1.155
-1.165
-1.155
-1.16
-1.145
-1.145
-1.12
-1.115
-1.12
-1.105
-1.12
-1.105
-1.12
-1.105
-1.095
-1.1
-1.09
-1.085
-1.07
-1.05
-1.045
-1.03
-1.025
-0.995
-0.98
-0.995
-0.985
-0.995
-0.98
-0.98
-0.965
-0.94
-0.94
-0.915
-0.905
-0.885
-0.875
-0.865
-0.86
-0.84
-0.84
-0.84
-0.825
-0.84
-0.835
-0.82
-0.815
-0.82
-0.81
-0.815
-0.805
-0.795
-0.795
-0.805
-0.805
-0.81
-0.81
-0.805
-0.81
-0.835
-0.835
-0.86
-0.86
-0.87
-0.88
-0.88
-0.88
-0.895
-0.905
-0.925
-0.94
-0.94
-0.94
-0.935
-0.945
-0.955
-0.96
-0.965
-0.97
-0.97
-0.97
-0.97
-0.98
-0.98
-0.98
-0.985
-0.995
-0.985
-1.015
-0.995
-1.01
-0.995
-0.995
-0.985
-0.985
-0.985
-0.985
-0.98
-0.975
-0.97
-0.965
-0.965
-0.965
-0.96
-0.96
-0.945
-0.94
-0.93
-0.925
-0.925
-0.935
-0.935
-0.93
-0.935
-0.935
-0.92
-0.905
-0.895
-0.89
-0.895
-0.92
-0.92
-0.925
-0.94
-0.935
-0.925
-0.915
-0.895
-0.89
-0.875
-0.885
-0.895
-0.91
-0.92
-0.93
-0.93
-0.93
-0.92
-0.9
-0.895
-0.875
-0.87
-0.885
-0.88
-0.9
-0.9
-0.905
-0.91
-0.905
-0.905
-0.9
-0.88
-0.88
-0.87
-0.88
-0.88
-0.89
-0.885
-0.89
-0.895
-0.895
-0.88
-0.885
-0.88
-0.88
-0.885
-0.895
-0.885
-0.885
-0.875
-0.88
-0.875
-0.885
-0.895
-0.875
-0.88
-0.88
-0.865
-0.855
-0.845
-0.85
-0.87
-0.885
-0.885
-0.88
-0.87
-0.87
-0.865
-0.855
-0.85
-0.86
-0.85
-0.875
-0.875
-0.875
-0.865
-0.87
-0.875
-0.865
-0.86
-0.855
-0.845
-0.845
-0.855
-0.865
-0.865
-0.86
-0.865
-0.87
-0.87
-0.87
-0.86
-0.86
-0.84
-0.855
-0.85
-0.865
-0.87
-0.875
-0.865
-0.875
-0.855
-0.855
-0.86
-0.84
-0.835
-0.845
-0.845
-0.84
-0.85
-0.865
-0.855
-0.85
-0.825
-0.815
-0.8
-0.8
-0.8
-0.8
-0.805
-0.825
-0.815
-0.805
-0.805
-0.8
-0.785
-0.77
-0.765
-0.765
-0.76
-0.76
-0.775
-0.79
-0.805
-0.815
-0.815
-0.83
-0.805
-0.8
-0.78
-0.755
-0.755
-0.745
-0.77
-0.77
-0.795
-0.8
-0.83
-0.835
-0.85
-0.86
-0.87
-0.88
-0.88
-0.895
-0.895
-0.895
-0.89
-0.91
-0.915
-0.91
-0.9
-0.88
-0.845
-0.775
-0.715
-0.66
-0.6
-0.57
-0.535
-0.535
-0.57
-0.63
-0.68
-0.67
-0.59
-0.43
-0.225
-0.01
0.18
0.375
0.575
0.77
0.95
1.09
1.175
1.185
1.135
1.05
0.905
0.715
0.49
0.255
0.03
-0.185
-0.37
-0.54
-0.7
-0.835
-0.96
-1.06
-1.12
-1.155
-1.175
-1.18
-1.16
-1.15
-1.115
-1.09
-1.075
-1.05
-1.03
-1.015
-1.015
-1.025
-1.04
-1.065
-1.06
-1.065
-1.06
-1.065
-1.055
-1.05
-1.045
-1.04
-1.03
-1.03
-1.035
-1.035
-1.04
-1.045
-1.05
-1.055
-1.06
-1.045
-1.045
-1.04
-1.035
-1.025
-1.03
-1.025
-1.03
-1.05
-1.055
-1.055
-1.055
-1.05
-1.06
-1.05
-1.055
-1.065
-1.06
-1.07
-1.08
-1.09
-1.105
-1.1
-1.105
-1.095
-1.09
-1.075
-1.065
-1.065
-1.07
-1.08
-1.085
-1.085
-1.09
-1.095
-1.095
-1.09
-1.085
-1.08
-1.075
-1.075
-1.08
-1.08
-1.085
-1.105
-1.09
-1.1
-1.085
-1.085
-1.075
-1.06
-1.05
-1.045
-1.045
-1.045
-1.055
-1.055
-1.065
-1.05
-1.035
-1.015
-1.0
-0.98
-0.955
-0.94
-0.925
-0.92
-0.92
-0.925
-0.92
-0.92
-0.91
-0.88
-0.87
-0.855
-0.83
-0.82
-0.815
-0.82
-0.81
-0.805
-0.805
-0.795
-0.785
-0.79
-0.795
-0.795
-0.8
-0.8
-0.81
-0.825
-0.815
-0.82
-0.82
-0.83
-0.835
-0.835
-0.83
-0.85
-0.845
-0.85
-0.86
-0.88
-0.9
-0.92
-0.935
-0.96
-0.96
-0.94
-0.935
-0.935
-0.93
-0.94
-0.96
-0.96
-0.98
-0.99
-1.005
-1.01
-1.015
-1.005
-1.01
-1.0
-1.0
-1.0
-1.0
-1.005
-1.01
-1.01
-1.02
-1.01
-0.995
-1.005
-0.985
-0.975
-0.98
-0.975
-0.985
-1.0
-1.0
-1.005
-0.995
-0.995
-0.985
-0.97
-0.96
-0.94
-0.935
-0.93
-0.95
-0.965
-0.97
-0.985
-0.985
-0.975
-0.965
-0.945
-0.93
-0.92
-0.92
-0.93
-0.945
-0.96
-0.955
-0.945
-0.925
-0.915
-0.905
-0.91
-0.91
-0.92
-0.92
-0.92
-0.925
-0.925
-0.93
-0.94
-0.935
-0.94
-0.94
-0.925
-0.925
-0.915
-0.895
-0.895
-0.905
-0.89
-0.905
-0.915
-0.94
-0.965
-0.97
-0.96
-0.95
-0.935
-0.9
-0.895
-0.88
-0.885
-0.89
-0.9
-0.905
-0.92
-0.93
-0.91
-0.915
-0.905
-0.9
-0.91
-0.91
-0.91
-0.905
-0.93
-0.93
-0.935
-0.935
-0.92
-0.91
-0.9
-0.895
-0.905
-0.93
-0.92
-0.92
-0.92
-0.895
-0.895
-0.9
-0.925
-0.935
-0.925
-0.93
-0.92
-0.92
-0.915
-0.925
-0.935
-0.94
-0.93
-0.93
-0.935
-0.94
-0.925
-0.915
-0.905
-0.895
-0.89
-0.9
-0.925
-0.915
-0.92
-0.925
-0.915
-0.915
-0.91
-0.885
-0.89
-0.89
-0.885
-0.89
-0.9
-0.9
-0.905
-0.905
-0.905
-0.885
-0.885
-0.865
-0.855
-0.875
-0.855
-0.865
-0.85
-0.85
-0.85
-0.855
-0.845
-0.84
-0.835
-0.825
-0.825
-0.835
-0.855
-0.865
-0.86
-0.855
-0.85
-0.84
-0.845
-0.82
-0.83
-0.85
-0.87
-0.89
-0.91
-0.925
-0.955
-0.965
-0.99
-0.97
-0.96
-0.94
-0.915
-0.91
-0.92
-0.94
-0.965
-0.98
-0.965
-0.91
-0.845
-0.78
-0.715
-0.63
-0.565
-0.535
-0.51
-0.53
-0.61
-0.675
-0.73
-0.7
-0.6
-0.45
-0.25
-0.05
0.15
0.35
0.525
0.71
0.875
1.0
1.055
1.05
0.99
0.905
0.745
0.555
0.34
0.11
-0.1
-0.275
-0.455
-0.625
-0.78
-0.92
-1.035
-1.135
-1.19
-1.215
-1.21
-1.19
-1.175
-1.16
-1.135
-1.12
-1.105
-1.095
-1.085
-1.075
-1.075
-1.085
-1.085
-1.085
-1.075
-1.08
-1.08
-1.105
-1.105
-1.115
-1.105
-1.115
-1.105
-1.095
-1.105
-1.09
-1.095
-1.1
-1.1
-1.095
-1.105
-1.11
-1.11
-1.125
-1.105
-1.1
-1.105
-1.09
-1.09
-1.105
-1.105
-1.115
-1.13
-1.135
-1.145
-1.155
-1.155
-1.145
-1.135
-1.115
-1.11
-1.105
-1.095
-1.125
-1.14
-1.155
-1.155
-1.155
-1.155
-1.15
-1.14
-1.13
-1.12
-1.125
-1.13
-1.15
-1.155
-1.17
-1.175
-1.15
-1.13
-1.125
-1.12
-1.105
-1.11
-1.125
-1.13
-1.13
-1.125
-1.115
-1.12
-1.12
-1.105
-1.085
-1.06
-1.04
-1.035
-1.035
-1.02
-1.01
-1.0
-0.99
-0.98
-0.97
-0.94
-0.925
-0.91
-0.885
-0.87
-0.86
-0.85
-0.855
-0.85
-0.85
-0.845
-0.83
-0.825
-0.815
-0.805
-0.825
-0.815
-0.825
-0.81
-0.81
-0.815
-0.815
-0.82
-0.825
-0.82
-0.825
-0.85
-0.845
-0.845
-0.86
-0.845
-0.875
-0.885
-0.895
-0.91
-0.93
-0.92
-0.92
-0.925
-0.93
-0.93
-0.945
-0.945
-0.96
-0.97
-0.97
-0.975
-0.98
-0.99
-0.975
-0.97
-0.955
-0.955
-0.96
-0.96
-0.965
-0.98
-0.98
-0.97
-0.965
-0.95
-0.945
-0.945
-0.94
-0.94
-0.945
-0.94
-0.95
-0.945
-0.945
-0.95
-0.965
-0.955
-0.93
-0.92
-0.915
-0.93
-0.91
-0.91
-0.925
-0.945
-0.945
-0.94
-0.92
-0.9
-0.875
-0.87
-0.865
-0.875
-0.89
-0.9
-0.895
-0.895
-0.89
-0.895
-0.895
-0.895
-0.88
-0.875
-0.88
-0.88
-0.875
-0.885
-0.875
-0.895
-0.9
-0.915
-0.9
-0.885
-0.885
-0.88
-0.87
-0.87
-0.86
-0.87
-0.87
-0.865
-0.86
-0.865
-0.885
-0.88
-0.87
-0.86
-0.855
-0.85
-0.845
-0.84
-0.845
-0.865
-0.865
-0.88
-0.875
-0.87
-0.86
-0.86
-0.84
-0.865
-0.865
-0.865
-0.865
-0.875
-0.86
-0.865
-0.87
-0.87
-0.855
-0.845
-0.84
-0.835
-0.84
-0.84
-0.845
-0.845
-0.85
-0.865
-0.865
-0.855
-0.85
-0.845
-0.84
-0.845
-0.84
-0.85
-0.85
-0.855
-0.86
-0.87
-0.865
-0.875
-0.85
-0.84
-0.835
-0.83
-0.835
-0.845
-0.83
-0.845
-0.85
-0.835
-0.845
-0.84
-0.84
-0.845
-0.83
-0.825
-0.82
-0.825
-0.835
-0.845
-0.86
-0.87
-0.865
-0.855
-0.845
-0.83
-0.81
-0.795
-0.79
-0.785
-0.815
-0.825
-0.815
-0.815
-0.82
-0.81
-0.79
-0.79
-0.78
-0.765
-0.755
-0.755
-0.76
-0.755
-0.755
-0.755
-0.755
-0.765
-0.755
-0.755
-0.75
-0.755
-0.76
-0.765
-0.765
-0.76
-0.745
-0.73
-0.735
-0.745
-0.76
-0.77
-0.77
-0.785
-0.825
-0.815
-0.85
-0.855
-0.865
-0.87
-0.875
-0.865
-0.855
-0.855
-0.835
-0.84
-0.835
-0.84
-0.84
-0.855
-0.86
-0.845
-0.8
-0.765
-0.695
-0.645
-0.59
-0.535
-0.495
-0.47
-0.485
-0.535
-0.615
-0.69
-0.705
-0.665
-0.545
-0.385
-0.205
-0.04
0.12
0.3
0.465
0.65
0.83
1.005
1.15
1.22
1.23
1.155
1.045
0.855
0.61
0.35
0.105
-0.115
-0.31
-0.5
-0.66
-0.815
-0.93
-1.015
-1.05
-1.065
-1.075
-1.09
-1.08
-1.07
-1.06
-1.045
-1.025
-1.01
-0.995
-0.985
-0.98
-0.975
-0.97
-0.98
-0.98
-0.995
-1.01
-1.015
-1.01
-1.01
-1.0
-0.985
-0.975
-0.97
-0.97
-0.965
-0.98
-0.985
-0.985
-0.995
-1.005
-1.02
-1.035
-1.045
-1.045
-1.04
-1.03
-1.02
-1.02
-1.04
-1.035
-1.03
-1.03
-1.025
-1.02
-1.015
-1.025
-1.02
-1.02
-1.015
-1.03
-1.03
-1.045
-1.04
-1.045
-1.045
-1.04
-1.03
-1.03
-1.03
-1.035
-1.035
-1.04
-1.05
-1.04
-1.035
-1.04
-1.04
-1.045
-1.05
-1.06
-1.065
-1.07
-1.07
-1.08
-1.065
-1.1
-1.085
-1.085
-1.08
-1.055
-1.045
-1.01
-1.01
-1.0
-0.99
-0.99
-1.01
-1.005
-0.99
-0.98
-0.96
-0.945
-0.93
-0.91
-0.9
-0.9
-0.895
-0.88
-0.87
-0.865
-0.855
-0.845
-0.84
-0.82
-0.8
-0.775
-0.765
-0.745
-0.73
-0.725
-0.725
-0.755
-0.77
-0.785
-0.785
-0.775
-0.765
-0.76
-0.76
-0.765
-0.76
-0.775
-0.78
-0.795
-0.81
-0.82
-0.81
-0.8
-0.8
-0.795
-0.805
-0.825
-0.85
-0.865
-0.875
-0.875
-0.9
-0.905
-0.905
-0.905
-0.91
-0.91
-0.92
-0.94
-0.965
-0.965
-0.975
-0.975
-0.98
-0.98
-0.985
-0.965
-0.97
-0.965
-0.95
-0.94
-0.95
-0.955
-0.975
-0.99
-0.985
-0.995
-0.99
-0.98
-0.96
-0.945
-0.935
-0.935
-0.93
-0.935
-0.94
-0.93
-0.925
-0.93
-0.93
-0.915
-0.915
-0.91
-0.915
-0.925
-0.91
-0.905
-0.905
-0.895
-0.885
-0.89
-0.895
-0.89
-0.895
-0.9
-0.89
-0.895
-0.885
-0.895
-0.895
-0.895
-0.92
-0.925
-0.945
-0.945
-0.925
-0.91
-0.9
-0.895
-0.89
-0.885
-0.905
-0.905
-0.91
-0.905
-0.9
-0.89
-0.905
-0.885
-0.895
-0.905
-0.895
-0.9
-0.91
-0.915
-0.9
-0.89
-0.895
-0.88
-0.875
-0.87
-0.855
-0.855
-0.85
-0.86
-0.88
-0.9
-0.94
-0.95
-0.94
-0.935
-0.915
-0.9
-0.885
-0.895
-0.9
-0.905
-0.91
-0.92
-0.915
-0.9
-0.905
-0.895
-0.895
-0.895
-0.89
-0.885
-0.91
-0.92
-0.915
-0.92
-0.935
-0.935
-0.935
-0.91
-0.9
-0.89
-0.885
-0.885
-0.87
-0.865
-0.87
-0.865
-0.865
-0.875
-0.88
-0.88
-0.895
-0.885
-0.89
-0.9
-0.9
-0.91
-0.91
-0.905
-0.895
-0.88
-0.85
-0.825
-0.8
-0.8
-0.795
-0.805
-0.835
-0.84
-0.85
-0.865
-0.88
-0.87
-0.86
-0.85
-0.83
-0.805
-0.795
-0.805
-0.805
-0.82
-0.845
-0.875
-0.89
-0.915
-0.93
-0.95
-0.96
-0.975
-0.97
-0.97
-0.985
-0.985
-0.995
-1.015
-1.02
-1.02
-1.01
-1.005
-0.97
-0.93
-0.9
-0.855
-0.78
-0.745
-0.705
-0.665
-0.645
-0.65
-0.7
-0.755
-0.78
-0.755
-0.665
-0.515
-0.35
-0.17
0.005
0.195
0.375
0.57
0.76
0.935
1.075
1.155
1.16
1.1
0.955
0.74
0.46
0.16
-0.115
-0.365
-0.59
-0.8
-0.96
-1.09
-1.17
-1.22
-1.255
-1.28
-1.285
-1.285
-1.275
-1.245
-1.225
-1.195
-1.17
-1.125
-1.105
-1.105
-1.115
-1.15
-1.155
-1.165
-1.18
-1.18
-1.155
-1.14
-1.135
-1.125
-1.12
-1.13
-1.135
-1.14
-1.145
-1.145
-1.14
-1.14
-1.145
-1.125
-1.115
-1.105
-1.13
-1.16
-1.185
-1.195
-1.195
-1.2
-1.19
-1.17
-1.17
-1.17
-1.17
-1.155
-1.155
-1.155
-1.18
-1.185
-1.21
-1.205
-1.2
-1.205
-1.19
-1.175
-1.185
-1.19
-1.185
-1.19
-1.18
-1.18
-1.185
-1.205
-1.215
-1.23
-1.22
-1.215
-1.215
-1.2
-1.195
-1.185
-1.18
-1.185
-1.185
-1.185
-1.195
-1.185
-1.175
-1.165
-1.15
-1.15
-1.17
-1.165
-1.165
-1.165
-1.155
-1.14
-1.125
-1.115
-1.095
-1.065
-1.05
-1.03
-1.02
-0.995
-0.98
-0.98
-0.98
-0.975
-0.98
-0.965
-0.96
-0.95
-0.95
-0.94
-0.93
-0.94
-0.935
-0.935
-0.935
-0.93
-0.93
-0.94
-0.945
-0.935
-0.94
-0.94
-0.945
-0.95
-0.945
-0.955
-0.95
-0.95
-0.97
-0.995
-1.035
-1.06
-1.07
-1.085
-1.08
-1.08
-1.07
-1.075
-1.085
-1.095
-1.125
-1.14
-1.14
-1.12
-1.12
-1.11
-1.105
-1.095
-1.115
-1.11
-1.105
-1.11
-1.115
-1.115
-1.1
-1.095
-1.09
-1.075
-1.07
-1.08
-1.085
-1.085
-1.09
-1.1
-1.095
-1.08
-1.075
-1.065
-1.065
-1.055
-1.05
-1.06
-1.06
-1.065
-1.06
-1.06
-1.055
-1.055
-1.055
-1.04
-1.035
-1.02
-1.01
-1.02
-1.025
-1.035
-1.045
-1.06
-1.06
-1.04
-1.035
-1.04
-1.035
-1.04
-1.045
-1.035
-1.03
-1.025
-1.03
-1.025
-1.03
-1.025
-1.025
-1.02
-1.025
-1.015
-1.01
-1.015
-1.01
-1.025
-1.025
-1.045
-1.03
-1.04
-1.03
-1.025
-1.03
-1.015
-1.01
-1.02
-1.005
-1.01
-1.0
-1.015
-1.03
-1.03
-1.04
-1.04
-1.025
-1.005
-1.0
-1.0
-1.0
-1.015
-1.015
-1.01
-1.0
-0.975
-0.95
-0.95
-0.95
-0.98
-1.005
-1.03
-1.045
-1.04
-1.035
-1.015
-1.02
-1.01
-1.015
-1.02
-1.005
-1.0
-1.0
-0.985
-0.98
-0.98
-0.99
-1.01
-0.995
-1.0
-0.995
-0.985
-0.97
-0.98
-0.98
-0.99
-0.995
-0.995
-0.985
-0.995
-0.985
-0.99
-0.99
-0.985
-0.965
-0.96
-0.965
-0.95
-0.95
-0.96
-0.955
-0.945
-0.955
-0.95
-0.95
-0.935
-0.945
-0.93
-0.935
-0.92
-0.91
-0.9
-0.885
-0.88
-0.89
-0.89
-0.895
-0.89
-0.885
-0.895
-0.895
-0.895
-0.89
-0.9
-0.915
-0.92
-0.91
-0.91
-0.91
-0.9
-0.885
-0.86
-0.84
-0.84
-0.835
-0.85
-0.865
-0.89
-0.9
-0.92
-0.945
-0.96
-0.955
-0.96
-0.95
-0.955
-0.95
-0.96
-0.96
-0.96
-0.965
-0.98
-0.965
-0.965
-0.955
-0.97
-0.965
-0.945
-0.89
-0.835
-0.775
-0.71
-0.655
-0.6
-0.57
-0.55
-0.555
-0.625
-0.695
-0.74
-0.77
-0.725
-0.615
-0.465
-0.275
-0.075
0.11
0.305
0.505
0.71
0.89
1.04
1.12
1.14
1.08
0.975
0.83
0.63
0.375
0.145
-0.1
-0.32
-0.51
-0.715
-0.88
-1.02
-1.105
-1.175
-1.195
-1.2
-1.2
-1.19
-1.16
-1.13
-1.095
-1.08
-1.075
-1.08
-1.095
-1.085
-1.07
-1.07
-1.07
-1.06
-1.045
-1.045
-1.055
-1.08
-1.105
-1.125
-1.13
-1.125
-1.125
-1.11
-1.12
-1.095
-1.095
-1.085
-1.08
-1.085
-1.075
-1.09
-1.095
-1.1
-1.09
-1.095
-1.095
-1.09
-1.1
-1.095
-1.095
-1.1
-1.1
-1.1
-1.11
-1.115
-1.12
-1.12
-1.115
-1.11
-1.115
-1.115
-1.115
-1.12
-1.135
-1.125
-1.145
-1.14
-1.14
-1.135
-1.14
-1.135
-1.135
-1.135
-1.14
-1.145
-1.145
-1.145
-1.145
-1.135
-1.11
-1.115
-1.11
-1.105
-1.1
-1.11
-1.1
-1.105
-1.11
-1.085
-1.09
-1.085
-1.08
-1.065
-1.06
-1.045
-1.03
-1.02
-1.015
-1.03
-1.0
-0.99
-0.98
-0.975
-0.96
-0.96
-0.935
-0.905
-0.895
-0.87
-0.855
-0.85
-0.84
-0.845
-0.845
-0.84
-0.835
-0.825
-0.815
-0.81
-0.815
-0.8
-0.805
-0.8
-0.8
-0.81
-0.83
-0.835
-0.845
-0.84
-0.84
-0.85
-0.865
-0.865
-0.855
-0.87
-0.875
-0.89
-0.91
-0.94
-0.945
-0.94
-0.94
-0.945
-0.95
-0.93
-0.935
-0.935
-0.955
-0.965
-0.975
-0.975
-0.98
-0.98
-0.975
-0.975
-0.96
-0.965
-0.96
-0.97
-0.965
-0.965
-0.97
-0.96
-0.965
-0.97
-0.955
-0.945
-0.935
-0.925
-0.92
-0.92
-0.92
-0.925
-0.92
-0.93
-0.925
-0.925
-0.915
-0.915
-0.91
-0.9
-0.895
-0.905
-0.905
-0.91
-0.92
-0.925
-0.915
-0.905
-0.915
-0.89
-0.89
-0.89
-0.875
-0.87
-0.885
-0.885
-0.88
-0.9
-0.89
-0.89
-0.895
-0.895
-0.885
-0.875
-0.865
-0.855
-0.855
-0.87
-0.865
-0.88
-0.885
-0.865
-0.855
-0.845
-0.84
-0.835
-0.85
-0.85
-0.865
-0.875
-0.905
-0.915
-0.915
-0.91
-0.91
-0.89
-0.875
-0.87
-0.865
-0.85
-0.86
-0.86
-0.87
-0.885
-0.88
-0.885
-0.87
-0.865
-0.855
-0.845
-0.835
-0.835
-0.835
-0.845
-0.86
-0.875
-0.88
-0.875
-0.87
-0.855
-0.84
-0.84
-0.83
-0.83
-0.845
-0.85
-0.855
-0.86
-0.875
-0.86
-0.865
-0.86
-0.85
-0.82
-0.82
-0.83
-0.825
-0.845
-0.83
-0.84
-0.84
-0.84
-0.83
-0.84
-0.83
-0.81
-0.81
-0.815
-0.8
-0.79
-0.795
-0.81
-0.815
-0.815
-0.815
-0.805
-0.795
-0.775
-0.76
-0.765
-0.77
-0.785
-0.805
-0.81
-0.8
-0.775
-0.745
-0.725
-0.695
-0.685
-0.675
-0.69
-0.7
-0.715
-0.735
-0.75
-0.76
-0.77
-0.74
-0.735
-0.715
-0.695
-0.685
-0.685
-0.695
-0.705
-0.705
-0.72
-0.74
-0.765
-0.785
-0.81
-0.81
-0.825
-0.815
-0.81
-0.815
-0.82
-0.825
-0.825
-0.83
-0.835
-0.835
-0.845
-0.82
-0.8
-0.755
-0.7
-0.645
-0.615
-0.575
-0.555
-0.53
-0.51
-0.535
-0.585
-0.61
-0.61
-0.53
-0.405
-0.23
-0.055
0.155
0.355
0.55
0.77
0.98
1.155
1.285
1.33
1.3
1.18
0.985
0.73
0.455
0.18
-0.06
-0.275
-0.46
-0.63
-0.77
-0.89
-0.99
-1.045
-1.08
-1.085
-1.075
-1.065
-1.04
-1.035
-1.005
-0.99
-0.965
-0.945
-0.95
-0.955
-0.965
-0.98
-0.985
-0.995
-0.985
-0.98
-0.975
-0.97
-0.955
-0.935
-0.925
-0.935
-0.95
-0.97
-0.98
-0.99
-1.0
-0.985
-1.0
-0.99
-1.0
-0.975
-0.97
-0.965
-0.975
-0.98
-0.985
-0.99
-0.995
-1.005
-1.015
-1.005
-1.015
-1.02
-1.02
-1.01
-1.01
-0.995
-0.99
-0.995
-0.995
-1.01
-1.02
-1.025
-1.01
-1.005
-1.015
-1.025
-1.045
-1.05
-1.05
-1.04
-1.04
-1.045
-1.04
-1.04
-1.025
-1.03
-1.01
-1.01
-1.0
-0.995
-0.985
-0.965
-0.95
-0.955
-0.95
-0.945
-0.95
-0.94
-0.935
-0.91
-0.88
-0.865
-0.835
-0.84
-0.83
-0.83
-0.825
-0.825
-0.8
-0.79
-0.765
-0.765
-0.77
-0.765
-0.75
-0.745
-0.75
-0.745
-0.73
-0.71
-0.705
-0.685
-0.685
-0.705
-0.72
-0.75
-0.75
-0.76
-0.745
-0.735
-0.735
-0.74
-0.755
-0.765
-0.77
-0.79
-0.805
-0.835
-0.87
-0.87
-0.865
-0.86
-0.85
-0.84
-0.845
-0.875
-0.89
-0.91
-0.905
-0.915
-0.94
-0.95
-0.965
-0.965
-0.94
-0.92
-0.895
-0.895
-0.91
-0.93
-0.95
-0.96
-0.97
-0.98
-0.955
-0.96
-0.945
-0.93
-0.915
-0.915
-0.905
-0.9
-0.905
-0.88
-0.89
-0.89
-0.895
-0.915
-0.93
-0.94
-0.955
-0.945
-0.915
-0.87
-0.845
-0.825
-0.83
-0.86
-0.88
-0.925
-0.915
-0.915
-0.895
-0.87
-0.84
-0.85
-0.87
-0.88
-0.895
-0.92
-0.925
-0.94
-0.915
-0.895
-0.89
-0.885
-0.885
-0.875
-0.865
-0.86
-0.87
-0.87
-0.875
-0.88
-0.875
-0.88
-0.89
-0.885
-0.875
-0.87
-0.875
-0.865
-0.865
-0.865
-0.86
-0.86
-0.86
-0.88
-0.865
-0.84
-0.82
-0.815
-0.82
-0.82
-0.85
-0.885
-0.91
-0.92
-0.91
-0.89
-0.865
-0.875
-0.87
-0.88
-0.885
-0.86
-0.88
-0.895
-0.915
-0.92
-0.915
-0.92
-0.89
-0.875
-0.86
-0.845
-0.845
-0.845
-0.85
-0.88
-0.895
-0.91
-0.935
-0.93
-0.915
-0.905
-0.9
-0.89
-0.87
-0.845
-0.83
-0.825
-0.825
-0.84
-0.87
-0.87
-0.88
-0.885
-0.895
-0.915
-0.93
-0.935
-0.905
-0.865
-0.82
-0.825
-0.865
-0.885
-0.915
-0.905
-0.875
-0.85
-0.835
-0.825
-0.83
-0.855
-0.865
-0.905
-0.92
-0.905
-0.88
-0.84
-0.8
