Lead II
-0.42
-0.4
-0.405
-0.405
-0.4
-0.4
-0.395
-0.4
-0.36
-0.27
-0.115
0.165
0.675
1.31
1.895
2.175
2.22
2.165
2.115
2.105
2.06
1.99
1.905
1.83
1.735
1.66
1.585
1.485
1.405
1.31
1.21
1.11
0.98
0.865
0.725
0.605
0.49
0.4
0.33
0.265
0.21
0.11
0.01
-0.09
-0.165
-0.2
-0.18
-0.135
-0.14
-0.195
-0.325
-0.49
-0.67
-0.855
-1.04
-1.24
-1.425
-1.53
-1.545
-1.525
-1.505
-1.455
-1.36
-1.26
-1.22
-1.185
-1.155
-1.14
-1.12
-1.13
-1.13
-1.115
-1.08
-1.075
-1.095
-1.12
-1.12
-1.06
-0.975
-0.89
-0.85
-0.79
-0.74
-0.66
-0.59
-0.525
-0.455
-0.38
-0.325
-0.26
-0.18
-0.105
-0.065
-0.05
-0.06
-0.06
-0.035
0.015
0.055
0.07
0.07
0.03
0.02
0.015
0.0
0.015
0.035
0.075
0.105
0.135
0.15
0.185
0.21
0.225
0.23
0.24
0.265
0.26
0.28
0.305
0.335
0.37
0.395
0.415
0.445
0.465
0.485
0.5
0.52
0.54
0.545
0.55
0.555
0.55
0.58
0.605
0.625
0.63
0.63
0.645
0.645
0.63
0.6
0.575
0.565
0.595
0.6
0.59
0.585
0.58
0.595
0.585
0.565
0.505
0.44
0.395
0.375
0.38
0.335
0.285
0.255
0.21
0.185
0.14
0.085
0.045
0.01
-0.03
-0.05
-0.105
-0.155
-0.2
-0.235
-0.25
-0.255
-0.27
-0.275
-0.265
-0.265
-0.245
-0.225
-0.22
-0.215
-0.185
-0.17
-0.15
-0.115
-0.075
-0.07
-0.065
-0.085
-0.09
-0.05
-0.035
-0.06
-0.13
-0.175
-0.215
-0.215
-0.195
-0.185
-0.165
-0.155
-0.17
-0.175
-0.185
-0.23
-0.25
-0.28
-0.285
-0.27
-0.275
-0.305
-0.345
-0.36
-0.38
-0.395
-0.43
-0.475
-0.5
-0.52
-0.52
-0.49
-0.46
-0.465
-0.5
-0.54
-0.565
-0.56
-0.54
-0.54
-0.56
-0.585
-0.605
-0.595
-0.57
-0.555
-0.555
-0.57
-0.57
-0.56
-0.565
-0.575
-0.58
-0.575
-0.565
-0.575
-0.565
-0.58
-0.595
-0.595
-0.6
-0.575
-0.55
-0.55
-0.565
-0.58
-0.585
-0.565
-0.555
-0.56
-0.555
-0.565
-0.555
-0.54
-0.515
-0.535
-0.56
-0.595
-0.59
-0.575
-0.545
-0.525
-0.53
-0.545
-0.585
-0.61
-0.61
-0.605
-0.59
-0.57
-0.555
-0.53
-0.53
-0.52
-0.525
-0.515
-0.52
-0.52
-0.515
-0.51
-0.515
-0.495
-0.48
-0.48
-0.45
-0.45
-0.455
-0.445
-0.42
-0.4
-0.355
-0.315
-0.285
-0.26
-0.135
0.185
0.76
1.395
1.94
2.135
2.13
2.07
2.04
1.995
1.94
1.875
1.78
1.705
1.62
1.51
1.41
1.32
1.22
1.125
1.015
0.875
0.715
0.56
0.4
0.26
0.11
-0.03
-0.175
-0.345
-0.51
-0.64
-0.725
-0.795
-0.865
-0.915
-0.97
-1.045
-1.165
-1.305
-1.445
-1.6
-1.745
-1.89
-2.005
-2.06
-2.045
-1.97
-1.87
-1.745
-1.585
-1.44
-1.33
-1.28
-1.26
-1.21
-1.17
-1.125
-1.125
-1.11
-1.105
-1.065
-1.055
-1.05
-1.05
-1.03
-0.97
-0.88
-0.82
-0.78
-0.755
-0.715
-0.645
-0.565
-0.49
-0.435
-0.38
-0.305
-0.21
-0.12
-0.06
-0.045
-0.075
-0.07
-0.065
-0.04
-0.02
0.0
0.015
0.025
0.055
0.085
0.12
0.135
0.13
0.12
0.135
0.185
0.23
0.255
0.25
0.23
0.225
0.26
0.305
0.34
0.36
0.395
0.43
0.465
0.495
0.505
0.51
0.52
0.535
0.55
0.61
0.66
0.685
0.715
0.745
0.78
0.81
0.835
0.875
0.895
0.925
0.92
0.92
0.935
0.955
0.965
0.975
0.99
0.99
0.975
0.945
0.89
0.86
0.84
0.84
0.815
0.79
0.75
0.7
0.665
0.62
0.585
0.54
0.505
0.455
0.395
0.35
0.285
0.2
0.085
0.03
-0.01
-0.04
-0.075
-0.13
-0.185
-0.27
-0.33
-0.375
-0.4
-0.425
-0.45
-0.47
-0.48
-0.485
-0.49
-0.505
-0.525
-0.53
-0.53
-0.52
-0.53
-0.55
-0.575
-0.59
-0.59
-0.585
-0.58
-0.58
-0.575
-0.59
-0.595
-0.595
-0.615
-0.615
-0.63
-0.635
-0.625
-0.615
-0.605
-0.605
-0.62
-0.66
-0.68
-0.69
-0.7
-0.71
-0.69
-0.665
-0.65
-0.64
-0.625
-0.63
-0.64
-0.64
-0.635
-0.64
-0.65
-0.665
-0.67
-0.66
-0.63
-0.61
-0.61
-0.61
-0.615
-0.615
-0.59
-0.58
-0.59
-0.605
-0.62
-0.63
-0.63
-0.625
-0.635
-0.63
-0.615
-0.61
-0.6
-0.585
-0.6
-0.615
-0.625
-0.625
-0.615
-0.6
-0.61
-0.62
-0.615
-0.6
-0.58
-0.575
-0.585
-0.595
-0.6
-0.59
-0.565
-0.57
-0.57
-0.57
-0.57
-0.575
-0.55
-0.53
-0.5
-0.49
-0.505
-0.525
-0.54
-0.545
-0.54
-0.545
-0.545
-0.57
-0.575
-0.585
-0.585
-0.58
-0.575
-0.565
-0.545
-0.53
-0.51
-0.5
-0.51
-0.505
-0.49
-0.475
-0.475
-0.49
-0.485
-0.48
-0.45
-0.435
-0.425
-0.455
-0.495
-0.505
-0.495
-0.47
-0.455
-0.44
-0.445
-0.43
-0.4
-0.38
-0.4
-0.415
-0.4
-0.325
-0.18
0.055
0.475
1.08
1.67
2.02
2.13
2.095
2.045
2.0
1.945
1.885
1.815
1.73
1.66
1.585
1.48
1.38
1.3
1.215
1.115
0.99
0.87
0.725
0.575
0.38
0.19
-0.02
-0.225
-0.41
-0.565
-0.695
-0.82
-0.93
-1.025
-1.11
-1.165
-1.18
-1.215
-1.3
-1.425
-1.545
-1.66
-1.735
-1.845
-1.995
-2.155
-2.305
-2.38
-2.37
-2.25
-2.08
-1.905
-1.755
-1.615
-1.475
-1.38
-1.32
-1.285
-1.265
-1.225
-1.18
-1.17
-1.165
-1.13
-1.11
-1.07
-1.08
-1.08
-1.07
-1.035
-0.97
-0.865
-0.785
-0.725
-0.66
-0.605
-0.53
-0.45
-0.34
-0.25
-0.155
-0.08
-0.01
0.08
0.17
0.24
0.275
0.3
0.325
0.34
0.34
0.355
0.365
0.39
0.41
0.415
0.405
0.405
0.41
0.435
0.46
0.485
0.52
0.515
0.545
0.545
0.55
0.565
0.57
0.595
0.61
0.625
0.625
0.61
0.595
0.585
0.6
0.61
0.635
0.68
0.705
0.735
0.735
0.755
0.775
0.78
0.765
0.76
0.75
0.755
0.77
0.785
0.8
0.81
0.805
0.795
0.775
0.775
0.775
0.77
0.75
0.735
0.715
0.69
0.68
0.66
0.635
0.615
0.59
0.575
0.54
0.51
0.46
0.425
0.39
0.36
0.325
0.285
0.24
0.19
0.135
0.095
0.04
0.005
-0.045
-0.095
-0.125
-0.145
-0.165
-0.205
-0.245
-0.275
-0.31
-0.335
-0.35
-0.36
-0.38
-0.385
-0.405
-0.42
-0.43
-0.45
-0.47
-0.52
-0.55
-0.58
-0.585
-0.6
-0.59
-0.58
-0.58
-0.56
-0.545
-0.555
-0.56
-0.585
-0.61
-0.64
-0.645
-0.645
-0.63
-0.61
-0.61
-0.6
-0.61
-0.625
-0.65
-0.65
-0.64
-0.64
-0.62
-0.63
-0.63
-0.64
-0.64
-0.63
-0.655
-0.665
-0.67
-0.645
-0.645
-0.625
-0.605
-0.62
-0.615
-0.615
-0.61
-0.595
-0.58
-0.565
-0.55
-0.54
-0.53
-0.52
-0.515
-0.53
-0.525
-0.53
-0.515
-0.505
-0.495
-0.515
-0.525
-0.54
-0.535
-0.52
-0.5
-0.485
-0.49
-0.515
-0.52
-0.53
-0.535
-0.545
-0.56
-0.555
-0.555
-0.56
-0.565
-0.57
-0.555
-0.55
-0.54
-0.52
-0.51
-0.495
-0.495
-0.49
-0.505
-0.51
-0.5
-0.505
-0.505
-0.515
-0.52
-0.495
-0.47
-0.455
-0.445
-0.49
-0.51
-0.525
-0.52
-0.51
-0.51
-0.48
-0.485
-0.495
-0.505
-0.505
-0.485
-0.485
-0.495
-0.475
-0.48
-0.46
-0.45
-0.445
-0.45
-0.46
-0.47
-0.47
-0.465
-0.445
-0.45
-0.435
-0.435
-0.45
-0.465
-0.44
-0.425
-0.395
-0.39
-0.425
-0.485
-0.495
-0.455
-0.395
-0.36
-0.36
-0.325
-0.225
0.02
0.495
1.13
1.72
2.065
2.14
2.09
2.055
2.035
1.99
1.905
1.82
1.715
1.63
1.56
1.455
1.365
1.26
1.13
1.01
0.895
0.75
0.57
0.405
0.24
0.075
-0.115
-0.33
-0.51
-0.66
-0.805
-0.96
-1.085
-1.195
-1.275
-1.32
-1.36
-1.38
-1.44
-1.53
-1.65
-1.785
-1.905
-2.03
-2.145
-2.245
-2.305
-2.315
-2.23
-2.065
-1.87
-1.68
-1.505
-1.36
-1.27
-1.21
-1.165
-1.13
-1.13
-1.135
-1.13
-1.095
-1.045
-1.045
-1.045
-1.055
-1.04
-0.965
-0.885
-0.79
-0.74
-0.725
-0.705
-0.645
-0.595
-0.525
-0.455
-0.375
-0.305
-0.255
-0.185
-0.12
-0.06
-0.025
0.015
0.03
0.015
0.005
0.0
0.01
0.015
0.05
0.06
0.095
0.125
0.135
0.15
0.18
0.22
0.205
0.19
0.165
0.165
0.215
0.275
0.32
0.33
0.34
0.35
0.37
0.4
0.405
0.43
0.45
0.475
0.52
0.575
0.605
0.615
0.605
0.605
0.635
0.67
0.7
0.685
0.69
0.705
0.73
0.755
0.765
0.755
0.77
0.785
0.795
0.78
0.755
0.72
0.725
0.725
0.735
0.73
0.685
0.65
0.635
0.63
0.625
0.61
0.6
0.56
0.505
0.495
0.46
0.43
0.395
0.35
0.315
0.26
0.24
0.24
0.215
0.17
0.115
0.05
0.02
-0.005
-0.035
-0.09
-0.15
-0.215
-0.24
-0.24
-0.275
-0.32
-0.33
-0.34
-0.35
-0.345
-0.35
-0.375
-0.4
-0.44
-0.455
-0.45
-0.455
-0.475
-0.5
-0.52
-0.515
-0.5
-0.485
-0.5
-0.51
-0.535
-0.525
-0.51
-0.52
-0.52
-0.52
-0.51
-0.5
-0.51
-0.53
-0.545
-0.54
-0.535
-0.555
-0.555
-0.555
-0.565
-0.57
-0.565
-0.55
-0.545
-0.555
-0.57
-0.565
-0.545
-0.54
-0.52
-0.525
-0.52
-0.515
-0.515
-0.52
-0.53
-0.54
-0.535
-0.52
-0.515
-0.495
-0.48
-0.5
-0.495
-0.49
-0.5
-0.49
-0.475
-0.465
-0.475
-0.51
-0.535
-0.55
-0.53
-0.515
-0.505
-0.49
-0.485
-0.455
-0.435
-0.45
-0.475
-0.5
-0.52
-0.51
-0.505
-0.5
-0.51
-0.5
-0.51
-0.47
-0.46
-0.445
-0.465
-0.49
-0.52
-0.52
-0.49
-0.47
-0.46
-0.465
-0.495
-0.51
-0.535
-0.53
-0.545
-0.545
-0.53
-0.485
-0.475
-0.475
-0.475
-0.48
-0.48
-0.465
-0.445
-0.405
-0.41
-0.405
-0.43
-0.44
-0.44
-0.41
-0.385
-0.385
-0.375
-0.365
-0.35
-0.33
-0.295
-0.255
-0.215
-0.185
-0.175
-0.19
-0.19
-0.16
-0.12
-0.085
-0.085
-0.135
-0.16
-0.155
-0.15
-0.12
-0.1
-0.05
0.015
0.125
0.325
0.72
1.285
1.815
2.1
2.165
2.115
2.085
2.065
2.02
1.94
1.85
1.745
1.67
1.595
1.52
1.425
1.315
1.18
1.06
0.945
0.82
0.68
0.535
0.37
0.225
0.065
-0.09
-0.225
-0.37
-0.51
-0.64
-0.725
-0.775
-0.835
-0.89
-0.93
-0.985
-1.1
-1.245
-1.38
-1.51
-1.645
-1.8
-1.95
-2.12
-2.23
-2.25
-2.11
-1.915
-1.725
-1.59
-1.505
-1.395
-1.33
-1.27
-1.25
-1.245
-1.255
-1.245
-1.25
-1.255
-1.265
-1.27
-1.245
-1.23
-1.175
-1.1
-1.015
-0.95
-0.9
-0.86
-0.83
-0.785
-0.735
-0.67
-0.59
-0.52
-0.485
-0.455
-0.395
-0.33
-0.275
-0.215
-0.225
-0.21
-0.185
-0.16
-0.125
-0.105
-0.105
-0.09
-0.095
-0.08
-0.085
-0.045
-0.03
0.01
0.055
0.085
0.11
0.13
0.14
0.14
0.15
0.18
0.22
0.255
0.275
0.31
0.32
0.35
0.385
0.42
0.445
0.495
0.525
0.53
0.56
0.565
0.59
0.62
0.635
0.655
0.665
0.67
0.675
0.67
0.665
0.68
0.68
0.66
0.66
0.655
0.635
0.635
0.64
0.63
0.62
0.62
0.63
0.605
0.57
0.485
0.43
0.4
0.395
0.375
0.34
0.28
0.21
0.145
0.11
0.065
0.04
0.015
-0.04
-0.085
-0.125
-0.155
-0.18
-0.2
-0.235
-0.255
-0.275
-0.29
-0.305
-0.315
-0.35
-0.355
-0.375
-0.39
-0.415
-0.425
-0.44
-0.45
-0.47
-0.47
-0.485
-0.505
-0.49
-0.47
-0.455
-0.47
-0.485
-0.525
-0.53
-0.54
-0.54
-0.55
-0.555
-0.54
-0.54
-0.515
-0.51
-0.515
-0.515
-0.545
-0.575
-0.55
-0.53
-0.5
-0.505
-0.52
-0.555
-0.55
-0.555
-0.54
-0.53
-0.515
-0.505
-0.485
-0.485
-0.51
-0.53
-0.53
-0.52
-0.515
-0.5
-0.51
-0.515
-0.525
-0.525
-0.525
-0.495
-0.485
-0.48
-0.47
-0.445
-0.415
-0.385
-0.395
-0.42
-0.43
-0.41
-0.38
-0.33
-0.29
-0.26
-0.265
-0.25
-0.24
-0.21
-0.19
-0.165
-0.155
-0.185
-0.2
-0.23
-0.255
-0.27
-0.25
-0.225
-0.2
-0.19
-0.21
-0.25
-0.28
-0.275
-0.275
-0.295
-0.3
-0.32
-0.335
-0.36
-0.37
-0.385
-0.385
-0.415
-0.445
-0.47
-0.49
-0.48
-0.495
-0.505
-0.525
-0.55
-0.56
-0.555
-0.57
-0.585
-0.59
-0.585
-0.565
-0.56
-0.57
-0.595
-0.625
-0.65
-0.635
-0.605
-0.585
-0.6
-0.625
-0.64
-0.63
-0.6
-0.6
-0.6
-0.61
-0.6
-0.565
-0.525
-0.505
-0.475
-0.47
-0.44
-0.36
-0.155
0.25
0.87
1.505
1.96
2.095
2.06
2.005
1.955
1.925
1.84
1.79
1.71
1.63
1.545
1.46
1.365
1.29
1.2
1.08
0.945
0.83
0.715
0.595
0.475
0.35
0.21
0.09
-0.02
-0.11
-0.19
-0.29
-0.385
-0.435
-0.465
-0.485
-0.485
-0.51
-0.585
-0.71
-0.89
-1.06
-1.21
-1.38
-1.56
-1.71
-1.755
-1.725
-1.675
-1.59
-1.51
-1.41
-1.37
-1.335
-1.28
-1.245
-1.22
-1.225
-1.25
-1.225
-1.19
-1.165
-1.175
-1.205
-1.19
-1.135
-1.04
-0.995
-0.945
-0.905
-0.845
-0.78
-0.715
-0.64
-0.565
-0.495
-0.43
-0.37
-0.305
-0.285
-0.25
-0.265
-0.27
-0.24
-0.205
-0.155
-0.125
-0.1
-0.11
-0.115
-0.1
-0.08
-0.06
-0.045
-0.045
-0.025
0.005
0.045
0.07
0.095
0.095
0.12
0.145
0.175
0.165
0.18
0.21
0.25
0.305
0.31
0.31
0.3
0.315
0.355
0.38
0.415
0.445
0.47
0.495
0.51
0.515
0.515
0.505
0.495
0.485
0.51
0.55
0.565
0.56
0.53
0.51
0.515
0.52
0.515
0.5
0.5
0.485
0.47
0.47
0.45
0.435
0.415
0.38
0.325
0.285
0.25
0.24
0.215
0.165
0.135
0.1
0.065
0.03
-0.045
-0.1
-0.125
-0.145
-0.17
-0.235
-0.275
-0.31
-0.32
-0.34
-0.355
-0.37
-0.395
-0.43
-0.445
-0.455
-0.48
-0.5
-0.5
-0.5
-0.47
-0.425
-0.405
-0.415
-0.45
-0.475
-0.455
-0.405
-0.37
-0.345
-0.33
-0.315
-0.275
-0.25
-0.235
-0.245
-0.26
-0.28
-0.305
-0.32
-0.345
-0.36
-0.38
-0.385
-0.365
-0.335
-0.325
-0.33
-0.335
-0.345
-0.335
-0.35
-0.375
-0.385
-0.405
-0.445
-0.495
-0.555
-0.59
-0.57
-0.575
-0.58
-0.59
-0.62
-0.62
-0.64
-0.63
-0.655
-0.655
-0.665
-0.66
-0.68
-0.67
-0.69
-0.7
-0.695
-0.71
-0.7
-0.7
-0.715
-0.71
-0.71
-0.715
-0.735
-0.725
-0.715
-0.695
-0.69
-0.67
-0.69
-0.72
-0.74
-0.75
-0.755
-0.76
-0.76
-0.745
-0.74
-0.72
-0.715
-0.725
-0.73
-0.735
-0.735
-0.735
-0.735
-0.745
-0.735
-0.72
-0.72
-0.72
-0.73
-0.76
-0.77
-0.77
-0.755
-0.74
-0.725
-0.705
-0.695
-0.69
-0.7
-0.705
-0.715
-0.71
-0.71
-0.705
-0.69
-0.675
-0.675
-0.695
-0.72
-0.725
-0.725
-0.695
-0.665
-0.64
-0.64
-0.64
-0.665
-0.655
-0.635
-0.625
-0.605
-0.6
-0.585
-0.555
-0.51
-0.42
-0.28
-0.065
0.375
1.01
1.63
1.96
2.04
1.975
1.885
1.86
1.82
1.74
1.64
1.52
1.42
1.35
1.27
1.165
1.02
0.865
0.665
0.485
0.3
0.125
-0.065
-0.25
-0.46
-0.63
-0.79
-0.975
-1.195
-1.35
-1.455
-1.525
-1.56
-1.615
-1.71
-1.845
-1.96
-2.05
-2.135
-2.225
-2.335
-2.43
-2.51
-2.495
-2.41
-2.275
-2.115
-1.93
-1.745
-1.615
-1.53
-1.485
-1.42
-1.355
-1.32
-1.28
-1.245
-1.22
-1.205
-1.2
-1.19
-1.145
-1.06
-0.985
-0.9
-0.805
-0.74
-0.695
-0.66
-0.605
-0.53
-0.465
-0.4
-0.32
-0.23
-0.135
-0.08
-0.06
-0.1
-0.095
-0.075
-0.035
-0.025
-0.02
-0.015
0.005
0.055
0.12
0.15
0.165
0.175
0.205
0.235
0.28
0.3
0.3
0.315
0.35
0.385
0.405
0.435
0.45
0.475
0.495
0.52
0.54
0.565
0.595
0.635
0.68
0.715
0.74
0.745
0.76
0.765
0.785
0.795
0.815
0.82
0.83
0.845
0.885
0.895
0.92
0.925
0.935
0.92
0.91
0.92
0.92
0.895
0.865
0.84
0.805
0.785
0.745
0.68
0.615
0.55
0.525
0.5
0.455
0.41
0.35
0.285
0.235
0.17
0.115
0.04
-0.005
-0.08
-0.16
-0.22
-0.275
-0.33
-0.39
-0.445
-0.47
-0.48
-0.5
-0.52
-0.55
-0.585
-0.605
-0.63
-0.64
-0.655
-0.685
-0.69
-0.685
-0.67
-0.67
-0.685
-0.695
-0.73
-0.73
-0.745
-0.72
-0.715
-0.715
-0.73
-0.745
-0.76
-0.76
-0.77
-0.78
-0.785
-0.775
-0.76
-0.745
-0.775
-0.785
-0.81
-0.825
-0.83
-0.87
-0.895
-0.92
-0.94
-0.955
-1.01
-1.065
-1.105
-1.11
-1.145
-1.145
-1.155
-1.12
-1.1
-1.03
-0.95
-0.86
-0.82
-0.87
-1.005
-1.185
-1.35
-1.41
-1.435
-1.45
-1.485
-1.495
-1.38
-1.15
-0.875
-0.665
-0.545
-0.5
-0.48
-0.43
-0.395
-0.415
-0.56
-0.86
-1.27
-1.705
-2.065
-2.275
-2.335
-2.315
-2.3
-2.28
-2.225
-2.085
-1.87
-1.62
-1.39
-1.14
-0.92
-0.765
-0.69
-0.69
-0.71
-0.71
-0.695
-0.675
-0.64
-0.6
-0.545
-0.505
-0.465
-0.465
-0.46
-0.445
-0.415
-0.38
-0.37
-0.365
-0.365
-0.385
-0.41
-0.41
-0.39
-0.365
-0.325
-0.31
-0.295
-0.27
-0.25
-0.215
-0.195
-0.185
-0.2
-0.185
-0.16
-0.14
-0.14
-0.135
-0.135
-0.12
-0.1
-0.075
-0.085
-0.085
-0.06
-0.015
0.02
0.035
0.04
0.07
0.095
0.115
0.115
0.065
0.025
0.0
0.015
0.05
0.065
0.065
0.06
0.06
0.045
0.03
0.02
0.02
0.03
0.025
0.01
0.0
0.0
0.025
0.005
-0.03
-0.08
-0.095
-0.11
-0.125
-0.15
-0.18
-0.21
-0.21
-0.215
-0.205
-0.21
-0.23
-0.28
-0.345
-0.39
-0.415
-0.42
-0.445
-0.47
-0.485
-0.475
-0.46
-0.45
-0.455
-0.46
-0.48
-0.495
-0.495
-0.5
-0.51
-0.505
-0.48
-0.465
-0.485
-0.52
-0.55
-0.57
-0.55
-0.54
-0.53
-0.525
-0.53
-0.525
-0.505
-0.47
-0.455
-0.455
-0.465
-0.465
-0.44
-0.39
-0.35
-0.315
-0.29
-0.265
-0.23
-0.215
-0.22
-0.215
-0.205
-0.19
-0.175
-0.185
-0.215
-0.23
-0.255
-0.26
-0.24
-0.205
-0.19
-0.205
-0.23
-0.23
-0.22
-0.205
-0.22
-0.245
-0.305
-0.375
-0.39
-0.4
-0.415
-0.45
-0.5
-0.55
-0.545
-0.52
-0.52
-0.555
-0.59
-0.615
-0.625
-0.61
-0.595
-0.58
-0.585
-0.59
-0.605
-0.605
-0.615
-0.605
-0.59
-0.585
-0.59
-0.59
-0.595
-0.635
-0.64
-0.64
-0.605
-0.605
-0.61
-0.63
-0.63
-0.615
-0.6
-0.585
-0.59
-0.595
-0.6
-0.615
-0.615
-0.62
-0.61
-0.6
-0.585
-0.57
-0.56
-0.565
-0.585
-0.61
-0.625
-0.62
-0.59
-0.58
-0.58
-0.585
-0.57
-0.575
-0.57
-0.575
-0.595
-0.605
-0.61
-0.625
-0.615
-0.59
-0.57
-0.575
-0.57
-0.565
-0.55
-0.535
-0.515
-0.535
-0.55
-0.57
-0.56
-0.545
-0.545
-0.55
-0.555
-0.55
-0.53
-0.5
-0.495
-0.485
-0.485
-0.5
-0.49
-0.495
-0.51
-0.52
-0.53
-0.535
-0.495
-0.465
-0.45
-0.445
-0.425
-0.4
-0.34
-0.27
-0.15
0.115
0.575
1.21
1.825
2.145
2.18
2.115
2.065
2.03
1.98
1.905
1.81
1.72
1.65
1.585
1.495
1.42
1.315
1.185
1.06
0.935
0.805
0.67
0.53
0.365
0.2
0.04
-0.095
-0.215
-0.345
-0.465
-0.575
-0.675
-0.76
-0.83
-0.875
-0.915
-1.015
-1.165
-1.325
-1.455
-1.555
-1.675
-1.815
-1.965
-2.04
-2.04
-1.955
-1.82
-1.68
-1.53
-1.39
-1.285
-1.255
-1.225
-1.185
-1.15
-1.11
-1.075
-1.065
-1.04
-1.055
-1.065
-1.045
-1.015
-0.96
-0.89
-0.84
-0.805
-0.74
-0.705
-0.64
-0.605
-0.555
-0.5
-0.425
-0.33
-0.255
-0.195
-0.18
-0.15
-0.105
-0.085
-0.06
-0.06
-0.04
-0.01
0.03
0.06
0.05
0.03
0.03
0.005
0.04
0.05
0.09
0.11
0.135
0.15
0.175
0.195
0.215
0.22
0.245
0.255
0.295
0.325
0.325
0.345
0.37
0.4
0.48
0.535
0.605
0.655
0.68
0.71
0.74
0.76
0.785
0.81
0.83
0.84
0.865
0.88
0.915
0.95
0.945
0.93
0.915
0.92
0.925
0.93
0.935
0.945
0.96
0.97
0.945
0.915
0.87
0.835
0.815
0.805
0.795
0.76
0.735
0.69
0.625
0.555
0.495
0.425
0.395
0.365
0.335
0.29
0.22
0.16
0.115
0.045
-0.005
-0.035
-0.075
-0.13
-0.18
-0.245
-0.275
-0.285
-0.3
-0.3
-0.335
-0.365
-0.385
-0.39
-0.395
-0.43
-0.445
-0.46
-0.48
-0.47
-0.48
-0.48
-0.49
-0.54
-0.565
-0.575
-0.565
-0.565
-0.57
-0.59
-0.585
-0.58
-0.59
-0.62
-0.64
-0.655
-0.64
-0.61
-0.59
-0.585
-0.63
-0.64
-0.64
-0.62
-0.625
-0.625
-0.65
-0.67
-0.655
-0.66
-0.665
-0.655
-0.62
-0.6
-0.59
-0.615
-0.65
-0.675
-0.69
-0.69
-0.655
-0.625
-0.605
-0.605
-0.605
-0.635
-0.62
-0.61
-0.595
-0.585
-0.58
-0.59
-0.58
-0.58
-0.585
-0.59
-0.585
-0.58
-0.56
-0.55
-0.545
-0.55
-0.56
-0.58
-0.615
-0.625
-0.625
-0.615
-0.61
-0.59
-0.58
-0.55
-0.54
-0.545
-0.555
-0.57
-0.565
-0.56
-0.56
-0.565
-0.56
-0.55
-0.54
-0.54
-0.545
-0.545
-0.535
-0.51
-0.5
-0.51
-0.54
-0.54
-0.545
-0.56
-0.535
-0.5
-0.475
-0.47
-0.5
-0.53
-0.54
-0.54
-0.525
-0.525
-0.51
-0.495
-0.485
-0.48
-0.48
-0.475
-0.495
-0.48
-0.48
-0.455
-0.435
-0.43
-0.425
-0.43
-0.43
-0.39
-0.365
-0.345
-0.325
-0.29
-0.2
-0.045
0.28
0.84
1.475
1.985
2.185
2.165
2.095
2.04
2.0
1.925
1.84
1.735
1.62
1.505
1.405
1.305
1.195
1.08
0.94
0.775
0.605
0.435
0.265
0.105
-0.1
-0.34
-0.58
-0.79
-0.945
-1.065
-1.19
-1.29
-1.41
-1.47
-1.51
-1.575
-1.695
-1.845
-1.965
-2.06
-2.125
-2.23
-2.365
-2.485
-2.55
-2.505
-2.36
-2.175
-1.99
-1.8
-1.635
-1.51
-1.42
-1.34
-1.27
-1.21
-1.165
-1.15
-1.11
-1.055
-1.025
-0.995
-0.97
-0.925
-0.845
-0.745
-0.655
-0.545
-0.49
-0.425
-0.365
-0.27
-0.165
-0.045
0.045
0.115
0.16
0.195
0.245
0.265
0.31
0.34
0.38
0.425
0.455
0.46
0.455
0.455
0.49
0.495
0.505
0.49
0.46
0.455
0.475
0.495
0.495
0.47
0.465
0.465
0.485
0.51
0.53
0.545
0.575
0.6
0.64
0.68
0.675
0.665
0.65
0.67
0.73
0.79
0.83
0.85
0.84
0.83
0.835
0.855
0.885
0.9
0.895
0.895
0.92
0.94
0.935
0.935
0.91
0.885
0.875
0.88
0.88
0.855
0.805
0.775
0.735
0.725
0.72
0.695
0.66
0.62
0.595
0.575
0.54
0.485
0.42
0.39
0.37
0.33
0.275
0.205
0.145
0.075
0.065
0.035
0.0
-0.055
-0.1
-0.14
-0.175
-0.235
-0.265
-0.285
-0.32
-0.35
-0.345
-0.365
-0.39
-0.435
-0.5
-0.535
-0.53
-0.515
-0.505
-0.505
-0.51
-0.53
-0.535
-0.535
-0.54
-0.53
-0.54
-0.55
-0.545
-0.55
-0.565
-0.565
-0.57
-0.57
-0.575
-0.585
-0.6
-0.59
-0.58
-0.585
-0.58
-0.59
-0.59
-0.605
-0.615
-0.635
-0.63
-0.615
-0.605
-0.595
-0.605
-0.62
-0.59
-0.57
-0.55
-0.56
-0.58
-0.61
-0.595
-0.565
-0.55
-0.54
-0.55
-0.58
-0.575
-0.56
-0.545
-0.535
-0.54
-0.545
-0.56
-0.57
-0.555
-0.54
-0.54
-0.55
-0.53
-0.525
-0.54
-0.525
-0.52
-0.505
-0.505
-0.545
-0.57
-0.59
-0.61
-0.59
-0.56
-0.54
-0.525
-0.52
-0.51
-0.525
-0.525
-0.535
-0.535
-0.535
-0.545
-0.555
-0.535
-0.525
-0.53
-0.53
-0.525
-0.52
-0.495
-0.525
-0.555
-0.58
-0.58
-0.555
-0.54
-0.52
-0.505
-0.5
-0.49
-0.5
-0.5
-0.535
-0.54
-0.535
-0.54
-0.53
-0.53
-0.52
-0.51
-0.53
-0.53
-0.54
-0.525
-0.505
-0.495
-0.495
-0.515
-0.53
-0.51
-0.49
-0.45
-0.465
-0.475
-0.48
-0.465
-0.455
-0.445
-0.445
-0.44
-0.44
-0.435
-0.445
-0.42
-0.385
-0.31
-0.19
0.055
0.485
1.105
1.72
2.07
2.135
2.11
2.07
2.025
1.955
1.875
1.795
1.735
1.675
1.595
1.51
1.43
1.355
1.275
1.175
1.075
0.92
0.755
0.605
0.46
0.335
0.2
0.045
-0.085
-0.235
-0.39
-0.49
-0.605
-0.705
-0.77
-0.8
-0.815
-0.87
-1.0
-1.16
-1.31
-1.47
-1.62
-1.77
-1.93
-2.06
-2.1
-2.025
-1.885
-1.735
-1.605
-1.49
-1.405
-1.365
-1.35
-1.33
-1.34
-1.33
-1.305
-1.28
-1.245
-1.235
-1.235
-1.245
-1.255
-1.235
-1.19
-1.105
-1.03
-0.97
-0.91
-0.87
-0.8
-0.755
-0.715
-0.64
-0.565
-0.505
-0.44
-0.415
-0.4
-0.38
-0.325
-0.29
-0.275
-0.27
-0.27
-0.26
-0.24
-0.21
-0.2
-0.18
-0.16
-0.13
-0.12
-0.12
-0.1
-0.085
-0.08
-0.07
-0.07
-0.06
-0.025
0.02
0.03
0.05
0.065
0.085
0.135
0.165
0.19
0.225
0.24
0.26
0.29
0.31
0.345
0.365
0.375
0.39
0.39
0.415
0.42
0.435
0.455
0.49
0.515
0.54
0.55
0.55
0.555
0.56
0.58
0.6
0.62
0.62
0.62
0.6
0.585
0.555
0.52
0.5
0.485
0.465
0.455
0.45
0.425
0.395
0.355
0.32
0.29
0.27
0.22
0.17
0.095
0.045
0.02
0.01
-0.01
-0.055
-0.12
-0.18
-0.205
-0.2
-0.21
-0.225
-0.265
-0.295
-0.32
-0.325
-0.34
-0.385
-0.43
-0.49
-0.495
-0.49
-0.495
-0.485
-0.5
-0.535
-0.53
-0.52
-0.51
-0.51
-0.54
-0.565
-0.565
-0.555
-0.54
-0.535
-0.535
-0.565
-0.57
-0.585
-0.605
-0.605
-0.605
-0.575
-0.555
-0.545
-0.55
-0.57
-0.61
-0.61
-0.57
-0.545
-0.56
-0.585
-0.615
-0.64
-0.615
-0.59
-0.56
-0.565
-0.56
-0.555
-0.545
-0.52
-0.5
-0.51
-0.495
-0.5
-0.515
-0.53
-0.56
-0.57
-0.585
-0.58
-0.545
-0.51
-0.485
-0.485
-0.515
-0.53
-0.535
-0.52
-0.515
-0.53
-0.545
-0.555
-0.525
-0.495
-0.475
-0.49
-0.525
-0.54
-0.545
-0.525
-0.51
-0.51
-0.53
-0.54
-0.52
-0.505
-0.5
-0.51
-0.525
-0.545
-0.54
-0.515
-0.505
-0.5
-0.505
-0.515
-0.51
-0.505
-0.495
-0.5
-0.5
-0.51
-0.49
-0.495
-0.475
-0.46
-0.45
-0.44
-0.42
-0.395
-0.375
-0.36
-0.335
-0.305
-0.255
-0.215
-0.195
-0.205
-0.21
-0.2
-0.17
-0.14
-0.155
-0.17
-0.215
-0.235
-0.225
-0.225
-0.225
-0.22
-0.21
-0.17
-0.125
-0.105
-0.115
-0.155
-0.21
-0.265
-0.285
-0.27
-0.255
-0.23
-0.215
-0.185
-0.095
0.085
0.46
1.035
1.63
2.025
2.175
2.155
2.105
2.085
2.025
1.96
1.905
1.815
1.72
1.615
1.545
1.46
1.385
1.3
1.195
1.075
0.955
0.83
0.705
0.565
0.405
0.235
0.075
-0.055
-0.165
-0.29
-0.4
-0.525
-0.63
-0.71
-0.755
-0.815
-0.855
-0.885
-0.94
-1.04
-1.16
-1.275
-1.38
-1.495
-1.63
-1.785
-1.945
-2.09
-2.175
-2.14
-2.04
-1.89
-1.725
-1.595
-1.49
-1.39
-1.32
-1.295
-1.285
-1.265
-1.25
-1.255
-1.245
-1.25
-1.24
-1.25
-1.26
-1.26
-1.22
-1.155
-1.075
-1.01
-0.965
-0.945
-0.895
-0.85
-0.76
-0.695
-0.625
-0.56
-0.51
-0.45
-0.37
-0.3
-0.245
-0.225
-0.225
-0.215
-0.205
-0.165
-0.15
-0.12
-0.1
-0.115
-0.11
-0.11
-0.115
-0.115
-0.095
-0.08
-0.04
-0.005
0.015
0.035
0.05
0.08
0.105
0.125
0.135
0.155
0.18
0.21
0.255
0.29
0.325
0.345
0.36
0.375
0.41
0.45
0.495
0.515
0.52
0.525
0.555
0.575
0.59
0.605
0.605
0.605
0.645
0.655
0.66
0.655
0.66
0.685
0.69
0.695
0.65
0.63
0.62
0.635
0.645
0.645
0.62
0.575
0.54
0.51
0.47
0.46
0.43
0.42
0.4
0.395
0.38
0.345
0.29
0.23
0.165
0.105
0.07
0.03
0.01
-0.01
-0.055
-0.095
-0.13
-0.165
-0.175
-0.205
-0.23
-0.26
-0.265
-0.29
-0.32
-0.355
-0.405
-0.445
-0.445
-0.435
-0.445
-0.455
-0.46
-0.48
-0.45
-0.435
-0.44
-0.465
-0.495
-0.52
-0.515
-0.52
-0.515
-0.535
-0.55
-0.55
-0.53
-0.525
-0.53
-0.55
-0.57
-0.565
-0.555
-0.525
-0.525
-0.54
-0.56
-0.585
-0.585
-0.56
-0.535
-0.54
-0.56
-0.585
-0.57
-0.545
-0.55
-0.53
-0.525
-0.535
-0.545
-0.54
-0.52
-0.495
-0.475
-0.47
-0.45
-0.425
-0.415
-0.405
-0.39
-0.365
-0.32
-0.28
-0.26
-0.245
-0.26
-0.25
-0.215
-0.185
-0.145
-0.145
-0.145
-0.2
-0.21
-0.22
-0.225
-0.225
-0.245
-0.25
-0.24
-0.235
-0.23
-0.235
-0.255
-0.275
-0.275
-0.29
-0.31
-0.34
-0.36
-0.38
-0.415
-0.44
-0.485
-0.505
-0.515
-0.53
-0.515
-0.52
-0.54
-0.56
-0.575
-0.575
-0.59
-0.585
-0.6
-0.61
-0.63
-0.66
-0.67
-0.655
-0.64
-0.62
-0.62
-0.63
-0.605
-0.595
-0.61
-0.64
-0.64
-0.64
-0.63
-0.62
-0.62
-0.63
-0.63
-0.625
