Lead II
0.105
0.08
0.07
0.095
0.125
0.115
0.09
0.085
0.115
0.105
0.085
0.05
0.05
0.05
0.06
0.04
0.035
0.02
0.005
0.02
0.025
0.04
0.035
0.015
-0.025
-0.075
-0.065
-0.06
-0.055
-0.05
-0.065
-0.08
-0.08
-0.045
-0.035
-0.04
-0.09
-0.135
-0.155
-0.135
-0.105
-0.09
-0.12
-0.145
-0.12
-0.09
-0.105
-0.13
-0.16
-0.16
-0.15
-0.15
-0.13
-0.155
-0.16
-0.175
-0.185
-0.18
-0.165
-0.155
-0.165
-0.205
-0.2
-0.195
-0.18
-0.205
-0.2
-0.215
-0.21
-0.2
-0.205
-0.21
-0.215
-0.23
-0.22
-0.22
-0.24
-0.255
-0.25
-0.235
-0.21
-0.21
-0.205
-0.205
-0.205
-0.23
-0.245
-0.245
-0.245
-0.225
-0.23
-0.27
-0.285
-0.265
-0.23
-0.23
-0.27
-0.27
-0.275
-0.255
-0.23
-0.235
-0.25
-0.29
-0.29
-0.26
-0.23
-0.235
-0.27
-0.29
-0.28
-0.24
-0.195
-0.195
-0.23
-0.275
-0.29
-0.265
-0.25
-0.235
-0.24
-0.29
-0.315
-0.285
-0.25
-0.225
-0.25
-0.275
-0.27
-0.255
-0.23
-0.225
-0.265
-0.27
-0.295
-0.29
-0.245
-0.245
-0.26
-0.275
-0.265
-0.255
-0.23
-0.235
-0.23
-0.235
-0.255
-0.245
-0.245
-0.235
-0.255
-0.31
-0.295
-0.27
-0.26
-0.255
-0.285
-0.285
-0.265
-0.25
-0.24
-0.26
-0.295
-0.31
-0.28
-0.25
-0.235
-0.23
-0.245
-0.255
-0.27
-0.29
-0.295
-0.3
-0.285
-0.265
-0.245
-0.235
-0.275
-0.305
-0.305
-0.285
-0.255
-0.245
-0.235
-0.26
-0.28
-0.315
-0.295
-0.27
-0.225
-0.21
-0.18
-0.21
-0.25
-0.285
-0.295
-0.27
-0.235
-0.21
-0.245
-0.295
-0.32
-0.285
-0.235
-0.235
-0.25
-0.24
-0.25
-0.255
-0.25
-0.26
-0.275
-0.285
-0.275
-0.275
-0.28
-0.265
-0.265
-0.275
-0.27
-0.275
-0.265
-0.255
-0.225
-0.19
-0.12
-0.085
-0.085
-0.1
-0.085
-0.02
0.035
0.03
0.01
-0.02
-0.02
0.01
0.025
0.0
-0.03
-0.055
-0.06
-0.06
-0.05
-0.095
-0.14
-0.18
-0.195
-0.19
-0.185
-0.2
-0.255
-0.295
-0.34
-0.35
-0.315
-0.31
-0.33
-0.345
-0.32
-0.305
-0.29
-0.295
-0.28
-0.29
-0.26
-0.185
-0.07
0.115
0.405
0.72
1.05
1.27
1.38
1.435
1.435
1.34
1.18
0.935
0.57
0.155
-0.27
-0.585
-0.665
-0.555
-0.435
-0.41
-0.415
-0.42
-0.42
-0.4
-0.375
-0.375
-0.39
-0.39
-0.385
-0.375
-0.37
-0.375
-0.39
-0.4
-0.395
-0.38
-0.36
-0.36
-0.38
-0.385
-0.36
-0.35
-0.36
-0.385
-0.39
-0.395
-0.37
-0.375
-0.38
-0.38
-0.355
-0.345
-0.34
-0.355
-0.37
-0.365
-0.355
-0.34
-0.33
-0.34
-0.35
-0.375
-0.365
-0.33
-0.315
-0.285
-0.26
-0.245
-0.25
-0.265
-0.285
-0.285
-0.26
-0.245
-0.21
-0.2
-0.19
-0.185
-0.15
-0.135
-0.125
-0.14
-0.12
-0.105
-0.095
-0.07
-0.055
-0.045
-0.025
0.005
0.04
0.06
0.08
0.1
0.14
0.175
0.205
0.235
0.265
0.295
0.32
0.34
0.385
0.415
0.435
0.435
0.445
0.475
0.51
0.545
0.56
0.56
0.54
0.545
0.565
0.57
0.53
0.515
0.515
0.515
0.525
0.505
0.48
0.435
0.41
0.385
0.38
0.365
0.33
0.27
0.22
0.19
0.16
0.11
0.055
0.045
0.03
0.015
0.01
0.0
-0.005
-0.03
-0.05
-0.06
-0.04
-0.075
-0.1
-0.14
-0.115
-0.11
-0.115
-0.115
-0.13
-0.165
-0.19
-0.185
-0.195
-0.195
-0.195
-0.195
-0.19
-0.19
-0.17
-0.175
-0.2
-0.22
-0.215
-0.19
-0.185
-0.19
-0.225
-0.26
-0.255
-0.225
-0.195
-0.19
-0.195
-0.195
-0.195
-0.18
-0.17
-0.165
-0.185
-0.19
-0.195
-0.145
-0.115
-0.15
-0.155
-0.18
-0.175
-0.145
-0.135
-0.155
-0.18
-0.2
-0.195
-0.175
-0.155
-0.145
-0.16
-0.19
-0.18
-0.175
-0.17
-0.165
-0.17
-0.185
-0.205
-0.21
-0.195
-0.205
-0.215
-0.21
-0.2
-0.205
-0.195
-0.205
-0.225
-0.25
-0.25
-0.235
-0.225
-0.235
-0.26
-0.3
-0.31
-0.29
-0.29
-0.26
-0.265
-0.285
-0.28
-0.275
-0.27
-0.29
-0.295
-0.305
-0.315
-0.31
-0.295
-0.305
-0.29
-0.295
-0.31
-0.315
-0.31
-0.325
-0.325
-0.34
-0.35
-0.355
-0.33
-0.325
-0.33
-0.33
-0.335
-0.305
-0.295
-0.31
-0.305
-0.315
-0.28
-0.24
-0.21
-0.2
-0.185
-0.18
-0.145
-0.095
-0.065
-0.025
-0.01
-0.035
-0.05
-0.045
-0.005
-0.015
-0.025
-0.055
-0.07
-0.075
-0.11
-0.15
-0.18
-0.21
-0.235
-0.25
-0.27
-0.31
-0.36
-0.375
-0.38
-0.375
-0.38
-0.38
-0.355
-0.38
-0.395
-0.39
-0.35
-0.335
-0.33
-0.34
-0.36
-0.345
-0.325
-0.3
-0.245
-0.085
0.195
0.565
0.97
1.265
1.435
1.485
1.455
1.365
1.135
0.73
0.185
-0.355
-0.755
-0.855
-0.735
-0.575
-0.515
-0.54
-0.535
-0.49
-0.45
-0.45
-0.46
-0.465
-0.47
-0.45
-0.445
-0.455
-0.47
-0.46
-0.45
-0.435
-0.42
-0.39
-0.4
-0.43
-0.43
-0.43
-0.415
-0.435
-0.41
-0.42
-0.42
-0.425
-0.42
-0.405
-0.395
-0.415
-0.42
-0.415
-0.375
-0.35
-0.37
-0.37
-0.39
-0.35
-0.31
-0.31
-0.315
-0.34
-0.35
-0.365
-0.34
-0.32
-0.31
-0.305
-0.305
-0.26
-0.235
-0.22
-0.215
-0.215
-0.21
-0.19
-0.16
-0.155
-0.14
-0.11
-0.09
-0.045
-0.03
-0.025
-0.005
-0.005
0.02
0.035
0.08
0.12
0.165
0.175
0.195
0.255
0.31
0.37
0.385
0.41
0.455
0.49
0.5
0.51
0.535
0.54
0.56
0.57
0.595
0.59
0.575
0.54
0.505
0.505
0.49
0.46
0.41
0.375
0.345
0.31
0.29
0.25
0.2
0.175
0.14
0.135
0.115
0.075
0.01
-0.025
-0.035
-0.06
-0.075
-0.08
-0.11
-0.125
-0.15
-0.16
-0.175
-0.2
-0.225
-0.24
-0.255
-0.265
-0.27
-0.29
-0.3
-0.295
-0.295
-0.295
-0.3
-0.31
-0.31
-0.335
-0.35
-0.365
-0.385
-0.4
-0.415
-0.41
-0.39
-0.4
-0.38
-0.39
-0.405
-0.415
-0.4
-0.375
-0.36
-0.355
-0.37
-0.365
-0.385
-0.4
-0.405
-0.4
-0.385
-0.365
-0.365
-0.36
-0.34
-0.35
-0.35
-0.36
-0.37
-0.36
-0.335
-0.315
-0.32
-0.33
-0.345
-0.33
-0.31
-0.335
-0.35
-0.38
-0.345
-0.32
-0.295
-0.285
-0.31
-0.335
-0.35
-0.36
-0.34
-0.33
-0.355
-0.365
-0.35
-0.34
-0.325
-0.315
-0.325
-0.36
-0.37
-0.39
-0.36
-0.35
-0.37
-0.39
-0.39
-0.385
-0.365
-0.365
-0.365
-0.38
-0.38
-0.395
-0.39
-0.39
-0.385
-0.385
-0.36
-0.35
-0.35
-0.375
-0.41
-0.42
-0.4
-0.395
-0.385
-0.38
-0.375
-0.39
-0.395
-0.39
-0.385
-0.395
-0.415
-0.405
-0.405
-0.4
-0.405
-0.395
-0.405
-0.405
-0.415
-0.405
-0.38
-0.38
-0.39
-0.415
-0.42
-0.395
-0.4
-0.405
-0.405
-0.415
-0.395
-0.415
-0.415
-0.41
-0.41
-0.415
-0.395
-0.38
-0.375
-0.39
-0.4
-0.415
-0.415
-0.415
-0.41
-0.405
-0.395
-0.39
-0.375
-0.37
-0.35
-0.34
-0.345
-0.355
-0.36
-0.345
-0.33
-0.29
-0.27
-0.265
-0.235
-0.195
-0.145
-0.11
-0.07
-0.055
-0.04
-0.04
-0.04
-0.06
-0.095
-0.13
-0.12
-0.1
-0.115
-0.15
-0.2
-0.23
-0.27
-0.305
-0.34
-0.37
-0.365
-0.38
-0.39
-0.38
-0.36
-0.36
-0.375
-0.385
-0.365
-0.345
-0.31
-0.32
-0.33
-0.35
-0.36
-0.34
-0.28
-0.185
-0.055
0.175
0.525
0.895
1.225
1.44
1.52
1.505
1.375
1.23
1.01
0.615
0.1
-0.43
-0.805
-0.88
-0.735
-0.575
-0.56
-0.59
-0.57
-0.515
-0.455
-0.435
-0.435
-0.465
-0.47
-0.48
-0.475
-0.43
-0.39
-0.395
-0.41
-0.42
-0.44
-0.44
-0.43
-0.43
-0.415
-0.39
-0.395
-0.39
-0.385
-0.385
-0.4
-0.42
-0.395
-0.365
-0.39
-0.41
-0.425
-0.405
-0.355
-0.335
-0.35
-0.325
-0.355
-0.335
-0.325
-0.295
-0.295
-0.31
-0.315
-0.325
-0.32
-0.32
-0.32
-0.295
-0.27
-0.235
-0.2
-0.19
-0.18
-0.185
-0.185
-0.18
-0.16
-0.145
-0.125
-0.1
-0.07
-0.02
0.01
0.035
0.07
0.105
0.13
0.14
0.165
0.175
0.19
0.2
0.25
0.3
0.36
0.405
0.425
0.43
0.475
0.51
0.55
0.54
0.53
0.51
0.53
0.56
0.585
0.59
0.59
0.57
0.535
0.505
0.495
0.485
0.47
0.415
0.385
0.355
0.33
0.28
0.21
0.175
0.2
0.175
0.135
0.065
0.02
0.01
0.015
0.025
0.01
-0.025
-0.055
-0.065
-0.06
-0.105
-0.12
-0.08
-0.08
-0.075
-0.08
-0.11
-0.165
-0.2
-0.22
-0.22
-0.22
-0.225
-0.225
-0.25
-0.265
-0.305
-0.28
-0.235
-0.2
-0.215
-0.265
-0.3
-0.295
-0.29
-0.255
-0.245
-0.245
-0.27
-0.26
-0.23
-0.215
-0.21
-0.205
-0.19
-0.175
-0.12
-0.095
-0.08
-0.09
-0.15
-0.175
-0.165
-0.105
-0.065
-0.055
-0.08
-0.105
-0.13
-0.14
-0.14
-0.17
-0.17
-0.135
-0.095
-0.09
-0.095
-0.11
-0.115
-0.12
-0.12
-0.15
-0.165
-0.15
-0.14
-0.11
-0.09
-0.09
-0.115
-0.13
-0.16
-0.185
-0.2
-0.2
-0.145
-0.135
-0.16
-0.22
-0.245
-0.245
-0.22
-0.21
-0.23
-0.22
-0.22
-0.165
-0.145
-0.135
-0.185
-0.235
-0.23
-0.215
-0.205
-0.235
-0.26
-0.28
-0.29
-0.32
-0.325
-0.315
-0.29
-0.265
-0.22
-0.22
-0.25
-0.28
-0.32
-0.305
-0.265
-0.215
-0.215
-0.265
-0.32
-0.3
-0.275
-0.25
-0.265
-0.255
-0.25
-0.235
-0.24
-0.235
-0.235
-0.21
-0.24
-0.295
-0.315
-0.285
-0.23
-0.225
-0.25
-0.24
-0.18
-0.115
-0.1
-0.11
-0.11
-0.075
0.0
0.06
0.06
0.035
0.005
0.04
0.055
0.06
0.045
0.025
-0.015
-0.075
-0.155
-0.215
-0.24
-0.215
-0.23
-0.255
-0.265
-0.235
-0.235
-0.265
-0.315
-0.315
-0.275
-0.24
-0.25
-0.295
-0.34
-0.34
-0.285
-0.215
-0.21
-0.305
-0.4
-0.415
-0.325
-0.17
0.055
0.35
0.73
1.115
1.4
1.54
1.59
1.56
1.41
1.205
0.855
0.38
-0.15
-0.6
-0.81
-0.73
-0.555
-0.45
-0.435
-0.45
-0.46
-0.465
-0.43
-0.4
-0.375
-0.36
-0.38
-0.39
-0.4
-0.39
-0.375
-0.375
-0.41
-0.425
-0.41
-0.38
-0.375
-0.415
-0.43
-0.405
-0.355
-0.32
-0.355
-0.365
-0.385
-0.385
-0.365
-0.35
-0.355
-0.36
-0.375
-0.37
-0.35
-0.325
-0.295
-0.29
-0.29
-0.32
-0.345
-0.33
-0.28
-0.235
-0.245
-0.305
-0.315
-0.295
-0.285
-0.28
-0.295
-0.295
-0.235
-0.205
-0.195
-0.2
-0.2
-0.205
-0.17
-0.15
-0.14
-0.12
-0.09
-0.05
-0.02
-0.005
0.01
0.02
0.035
0.065
0.09
0.13
0.175
0.2
0.24
0.28
0.31
0.335
0.335
0.36
0.395
0.445
0.47
0.495
0.505
0.53
0.535
0.535
0.525
0.545
0.545
0.54
0.53
0.52
0.52
0.505
0.485
0.44
0.41
0.395
0.385
0.37
0.33
0.28
0.225
0.18
0.15
0.115
0.09
0.06
0.045
0.005
0.01
0.01
0.0
-0.03
-0.055
-0.105
-0.145
-0.135
-0.12
-0.13
-0.175
-0.195
-0.21
-0.19
-0.18
-0.205
-0.235
-0.25
-0.26
-0.245
-0.235
-0.26
-0.285
-0.31
-0.29
-0.28
-0.255
-0.26
-0.295
-0.335
-0.3
-0.275
-0.285
-0.31
-0.32
-0.325
-0.3
-0.28
-0.27
-0.29
-0.285
-0.275
-0.27
-0.265
-0.25
-0.27
-0.275
-0.275
-0.26
-0.23
-0.215
-0.22
-0.245
-0.27
-0.245
-0.21
-0.21
-0.22
-0.21
-0.2
-0.15
-0.085
-0.045
-0.01
-0.02
-0.01
0.0
0.04
0.075
0.115
0.165
0.28
0.45
0.655
0.92
1.145
1.26
1.33
1.395
1.44
1.44
1.39
1.225
0.905
0.45
-0.085
-0.54
-0.82
-0.945
-0.955
-0.94
-0.95
-1.005
-1.07
-1.135
-1.14
-1.125
-1.115
-1.085
-1.09
-1.05
-0.98
-0.905
-0.855
-0.83
-0.785
-0.745
-0.72
-0.685
-0.635
-0.565
-0.515
-0.505
-0.48
-0.465
-0.45
-0.425
-0.42
-0.435
-0.435
-0.44
-0.425
-0.4
-0.395
-0.425
-0.42
-0.39
-0.365
-0.365
-0.39
-0.385
-0.375
-0.36
-0.35
-0.34
-0.365
-0.385
-0.39
-0.4
-0.4
-0.395
-0.39
-0.41
-0.39
-0.365
-0.345
-0.35
-0.365
-0.375
-0.375
-0.345
-0.325
-0.3
-0.32
-0.33
-0.32
-0.295
-0.255
-0.24
-0.245
-0.23
-0.2
-0.155
-0.1
-0.075
-0.07
-0.045
-0.025
0.015
0.08
0.12
0.175
0.19
0.2
0.265
0.31
0.36
0.365
0.37
0.4
0.44
0.45
0.47
0.48
0.495
0.505
0.515
0.535
0.52
0.52
0.505
0.5
0.485
0.48
0.435
0.41
0.38
0.38
0.385
0.355
0.29
0.245
0.21
0.22
0.205
0.2
0.155
0.12
0.095
0.075
0.08
0.06
0.045
0.03
0.025
0.005
0.005
-0.01
-0.03
-0.06
-0.095
-0.125
-0.105
-0.08
-0.07
-0.085
-0.12
-0.125
-0.12
-0.125
-0.14
-0.165
-0.15
-0.135
-0.115
-0.105
-0.075
-0.08
-0.06
-0.065
-0.05
-0.025
0.04
0.095
0.14
0.23
0.345
0.485
0.605
0.715
0.825
0.965
1.095
1.21
1.27
1.325
1.37
1.35
1.255
1.13
1.01
0.92
0.88
0.85
0.87
0.935
0.985
0.995
0.94
0.845
0.7
0.54
0.37
0.18
0.02
-0.12
-0.245
-0.345
-0.39
-0.405
-0.425
-0.475
-0.525
-0.58
-0.605
-0.61
-0.62
-0.64
-0.665
-0.705
-0.755
-0.795
-0.815
-0.815
-0.79
-0.765
-0.755
-0.77
-0.805
-0.83
-0.83
-0.835
-0.815
-0.795
-0.79
-0.77
-0.77
-0.735
-0.73
-0.745
-0.755
-0.78
-0.765
-0.735
-0.725
-0.73
-0.76
-0.77
-0.79
-0.795
-0.815
-0.815
-0.845
-0.865
-0.845
-0.84
-0.85
-0.85
-0.875
-0.89
-0.88
-0.895
-0.89
-0.9
-0.92
-0.935
-0.945
-0.925
-0.935
-0.95
-0.97
-0.98
-0.96
-0.95
-0.93
-0.925
-0.935
-0.935
-0.92
-0.9
-0.88
-0.9
-0.905
-0.9
-0.885
-0.84
-0.825
-0.815
-0.79
-0.75
-0.71
-0.66
-0.66
-0.66
-0.655
-0.61
-0.55
-0.5
-0.48
-0.47
-0.465
-0.43
-0.41
-0.36
-0.355
-0.36
-0.385
-0.375
-0.345
-0.335
-0.335
-0.345
-0.325
-0.32
-0.295
-0.27
-0.27
-0.3
-0.32
-0.3
-0.285
-0.245
-0.22
-0.24
-0.265
-0.275
-0.255
-0.235
-0.25
-0.28
-0.31
-0.305
-0.265
-0.21
-0.205
-0.25
-0.29
-0.29
-0.24
-0.23
-0.235
-0.26
-0.285
-0.285
-0.245
-0.21
-0.215
-0.21
-0.245
-0.28
-0.28
-0.275
-0.255
-0.25
-0.255
-0.245
-0.215
-0.215
-0.24
-0.28
-0.3
-0.305
-0.285
-0.245
-0.215
-0.215
-0.24
-0.27
-0.27
-0.285
-0.27
-0.275
-0.29
-0.285
-0.25
-0.23
-0.235
-0.255
-0.29
-0.31
-0.3
-0.285
-0.275
-0.27
-0.27
-0.285
-0.3
-0.29
-0.32
-0.31
-0.325
-0.31
-0.29
-0.295
-0.32
-0.33
-0.34
-0.355
-0.335
-0.33
-0.33
-0.34
-0.37
-0.37
-0.39
-0.36
-0.345
-0.325
-0.33
-0.335
-0.345
-0.35
-0.36
-0.36
-0.345
-0.345
-0.36
-0.37
-0.345
-0.33
-0.345
-0.345
-0.365
-0.375
-0.375
-0.375
-0.385
-0.38
-0.35
-0.33
-0.335
-0.36
-0.37
-0.37
-0.345
-0.335
-0.34
-0.355
-0.38
-0.375
-0.37
-0.34
-0.32
-0.335
-0.36
-0.39
-0.38
-0.36
-0.36
-0.37
-0.365
-0.35
-0.32
-0.3
-0.3
-0.32
-0.33
-0.37
-0.365
-0.355
-0.335
-0.34
-0.375
-0.375
-0.385
-0.385
-0.37
-0.34
-0.335
-0.355
-0.37
-0.385
-0.39
-0.405
-0.395
-0.355
-0.34
-0.335
-0.355
-0.355
-0.365
-0.365
-0.35
-0.33
-0.335
-0.335
-0.345
-0.35
-0.35
-0.335
-0.3
-0.335
-0.385
-0.405
-0.38
-0.33
-0.32
-0.36
-0.375
-0.37
-0.365
-0.335
-0.335
-0.35
-0.345
-0.335
-0.335
-0.345
-0.355
-0.35
-0.325
-0.31
-0.31
-0.315
-0.335
-0.355
-0.36
-0.375
-0.38
-0.37
-0.355
-0.355
-0.365
-0.36
-0.35
-0.34
-0.335
-0.34
-0.335
-0.325
-0.34
-0.335
-0.33
-0.345
-0.355
-0.365
-0.35
-0.32
-0.305
-0.3
-0.33
-0.36
-0.36
-0.35
-0.325
-0.33
-0.325
-0.34
-0.335
-0.335
-0.34
-0.35
-0.35
-0.33
-0.315
-0.3
-0.315
-0.325
-0.335
-0.315
-0.29
-0.275
-0.285
-0.3
-0.31
-0.31
-0.315
-0.325
-0.315
-0.325
-0.35
-0.36
-0.365
-0.345
-0.335
-0.34
-0.35
-0.34
-0.32
-0.285
-0.295
-0.3
-0.315
-0.315
-0.305
-0.275
-0.295
-0.33
-0.33
-0.32
-0.315
-0.28
-0.28
-0.285
-0.3
-0.34
-0.35
-0.31
-0.29
-0.28
-0.29
-0.28
-0.29
-0.305
-0.305
-0.285
-0.31
-0.325
-0.31
-0.285
-0.275
-0.29
-0.295
-0.295
-0.265
-0.24
-0.225
-0.24
-0.24
-0.215
-0.18
-0.135
-0.125
-0.135
-0.13
-0.11
-0.06
0.005
0.05
0.06
0.045
0.025
0.025
0.035
0.045
0.03
0.01
0.005
-0.005
-0.01
-0.04
-0.105
-0.155
-0.16
-0.18
-0.195
-0.19
-0.205
-0.225
-0.255
-0.265
-0.255
-0.25
-0.27
-0.255
-0.255
-0.235
-0.22
-0.23
-0.23
-0.24
-0.195
-0.11
0.0
0.14
0.375
0.675
1.055
1.34
1.5
1.5
1.415
1.245
1.07
0.82
0.435
-0.03
-0.485
-0.785
-0.805
-0.66
-0.525
-0.475
-0.46
-0.44
-0.4
-0.345
-0.295
-0.275
-0.3
-0.34
-0.345
-0.345
-0.32
-0.3
-0.295
-0.3
-0.31
-0.295
-0.27
-0.265
-0.26
-0.275
-0.26
-0.26
-0.25
-0.25
-0.265
-0.285
-0.275
-0.275
-0.255
-0.255
-0.26
-0.28
-0.265
-0.24
-0.24
-0.27
-0.27
-0.265
-0.265
-0.245
-0.205
-0.205
-0.19
-0.2
-0.195
-0.185
-0.165
-0.16
-0.175
-0.175
-0.19
-0.17
-0.145
-0.12
-0.11
-0.11
-0.115
-0.115
-0.085
-0.07
-0.06
-0.055
-0.045
-0.03
-0.005
0.01
0.025
0.015
0.03
0.05
0.075
0.095
0.115
0.13
0.145
0.185
0.22
0.235
0.245
0.245
0.27
0.285
0.32
0.335
0.335
0.34
0.365
0.4
0.42
0.42
0.415
0.42
0.445
0.47
0.485
0.485
0.475
0.44
0.42
0.41
0.425
0.41
0.395
0.355
0.34
0.34
0.32
0.295
0.27
0.275
0.26
0.26
0.25
0.245
0.21
0.19
0.185
0.175
0.155
0.12
0.07
0.055
0.05
0.055
0.06
0.06
0.06
0.03
0.02
0.02
0.015
0.02
0.005
0.0
0.01
0.015
0.045
0.04
0.015
-0.01
-0.02
0.005
0.035
0.02
0.025
0.05
0.07
0.055
0.05
0.015
0.025
0.015
0.02
0.045
0.08
0.065
0.075
0.1
0.115
0.12
0.1
0.09
0.075
0.08
0.075
0.095
0.12
0.155
0.16
0.155
0.18
0.24
0.285
0.31
0.31
0.285
0.315
0.38
0.44
0.41
0.34
0.22
0.045
-0.17
-0.38
-0.57
-0.76
-0.94
-1.13
-1.285
-1.4
-1.48
-1.465
-1.41
-1.33
-1.2
-1.05
-0.925
-0.78
-0.62
-0.45
-0.295
-0.19
-0.155
-0.15
-0.215
-0.245
-0.275
-0.295
-0.325
-0.33
-0.345
-0.33
-0.33
-0.335
-0.35
-0.36
-0.365
-0.4
-0.41
-0.42
-0.415
-0.375
-0.37
-0.37
-0.38
-0.34
-0.345
-0.335
-0.33
-0.315
-0.305
-0.29
-0.28
-0.27
-0.26
-0.255
-0.245
-0.245
-0.235
-0.23
-0.245
-0.25
-0.23
-0.205
-0.18
-0.165
-0.16
-0.15
-0.1
-0.07
-0.055
-0.065
-0.055
-0.05
-0.03
0.005
0.04
0.09
0.125
0.145
0.165
0.195
0.22
0.245
0.275
0.31
0.395
0.475
0.5
0.505
0.525
0.56
0.63
0.68
0.69
0.69
0.7
0.755
0.795
0.835
0.835
0.8
0.77
0.775
0.83
0.86
0.845
0.805
0.78
0.765
0.77
0.76
0.71
0.69
0.66
0.655
0.65
0.635
0.59
0.545
0.49
0.455
0.435
0.425
0.4
0.375
0.325
0.28
0.235
0.205
0.185
0.145
0.115
0.1
0.085
0.075
0.05
0.035
0.02
0.01
0.005
0.005
-0.01
-0.02
-0.03
-0.045
-0.05
-0.05
-0.055
-0.07
-0.08
-0.07
-0.05
-0.035
-0.04
-0.055
-0.075
-0.085
-0.08
-0.075
-0.09
-0.1
-0.11
-0.105
-0.12
-0.1
-0.09
-0.105
-0.15
-0.165
-0.18
-0.16
-0.175
-0.21
-0.205
-0.21
-0.235
-0.215
-0.225
-0.245
-0.26
-0.285
-0.29
-0.285
-0.29
-0.3
-0.305
-0.315
-0.31
-0.31
-0.315
-0.34
-0.35
-0.35
-0.345
-0.345
-0.35
-0.365
-0.38
-0.395
-0.405
-0.39
-0.36
-0.37
-0.395
-0.39
-0.39
-0.395
-0.41
-0.425
-0.44
-0.435
-0.42
-0.395
-0.405
-0.435
-0.46
-0.455
-0.435
-0.42
-0.42
-0.46
-0.455
-0.465
-0.485
-0.475
-0.475
-0.45
-0.455
-0.455
-0.455
-0.46
-0.46
-0.455
-0.495
-0.505
-0.495
-0.46
-0.465
-0.465
-0.5
-0.505
-0.495
-0.48
-0.455
-0.455
-0.47
-0.49
-0.47
-0.45
-0.46
-0.495
-0.53
-0.545
-0.53
-0.485
-0.48
-0.49
-0.485
-0.47
-0.465
-0.47
-0.5
-0.505
-0.505
-0.495
-0.46
-0.445
-0.46
-0.5
-0.5
-0.5
-0.48
-0.48
-0.495
-0.475
-0.465
-0.48
-0.48
-0.46
-0.47
-0.49
-0.485
-0.49
-0.495
-0.485
-0.495
-0.48
-0.495
-0.485
-0.46
-0.435
-0.43
-0.445
-0.49
-0.495
-0.475
-0.455
-0.47
-0.465
-0.47
-0.455
-0.445
-0.445
-0.445
-0.455
-0.48
-0.47
-0.47
-0.46
-0.46
-0.45
-0.445
-0.465
-0.48
-0.455
-0.44
-0.44
-0.465
-0.48
-0.455
-0.435
-0.44
-0.46
-0.445
-0.45
-0.45
-0.46
-0.47
-0.48
-0.475
-0.47
-0.445
-0.41
-0.395
-0.405
-0.435
-0.44
-0.42
-0.385
-0.395
-0.415
-0.465
-0.475
-0.465
-0.455
-0.455
-0.44
-0.435
-0.43
-0.42
-0.425
-0.39
-0.41
-0.445
-0.45
-0.435
-0.415
-0.405
-0.395
-0.4
-0.39
-0.4
-0.4
-0.395
-0.39
-0.395
-0.405
-0.39
-0.405
-0.41
-0.4
-0.395
-0.385
-0.355
-0.34
-0.345
-0.36
-0.38
-0.365
-0.33
-0.255
-0.225
-0.21
-0.205
-0.16
-0.115
-0.065
-0.065
-0.045
-0.04
-0.02
-0.015
-0.01
-0.025
-0.02
-0.03
-0.045
-0.065
-0.125
-0.19
-0.24
-0.255
-0.255
-0.25
-0.28
-0.315
-0.35
-0.36
-0.38
-0.38
-0.38
-0.38
-0.395
-0.415
-0.4
-0.375
-0.335
-0.335
-0.345
-0.365
-0.345
-0.285
-0.145
0.04
0.325
0.675
1.015
1.3
1.445
1.475
1.445
1.325
1.095
0.76
0.28
-0.26
-0.73
-0.9
-0.78
-0.58
-0.475
-0.485
-0.525
-0.52
-0.5
-0.45
-0.43
-0.45
-0.47
-0.465
-0.44
-0.425
-0.44
-0.475
-0.48
-0.485
-0.45
-0.435
-0.42
-0.435
-0.455
-0.475
-0.475
-0.455
-0.435
-0.43
-0.445
-0.46
-0.46
-0.445
-0.425
-0.4
-0.41
-0.405
-0.435
-0.435
-0.42
-0.435
-0.425
-0.41
-0.4
-0.41
-0.385
-0.35
-0.38
-0.375
-0.39
-0.36
-0.355
-0.35
-0.365
-0.345
-0.3
-0.27
-0.255
-0.275
-0.29
-0.28
-0.265
-0.225
-0.215
-0.205
-0.215
-0.19
-0.16
-0.11
-0.07
-0.045
-0.04
-0.055
-0.045
-0.025
0.005
0.01
0.04
0.055
0.1
0.145
0.185
0.21
0.225
0.23
0.25
0.28
0.325
0.365
0.365
0.365
0.365
0.38
0.415
0.395
0.375
0.36
0.35
0.365
0.34
0.32
0.28
0.25
0.235
0.23
0.225
0.205
0.18
0.155
0.135
0.115
0.105
0.075
0.045
0.025
0.015
-0.025
-0.045
-0.07
-0.095
-0.11
-0.11
-0.135
-0.17
-0.195
-0.205
-0.21
-0.215
-0.205
-0.21
-0.245
-0.265
-0.28
-0.3
-0.275
-0.28
-0.275
-0.265
-0.27
-0.26
-0.275
-0.275
-0.275
-0.265
-0.28
-0.285
-0.275
-0.27
-0.265
-0.245
-0.27
-0.275
-0.285
-0.27
-0.26
-0.25
-0.28
-0.285
-0.28
-0.245
-0.215
-0.235
-0.275
-0.295
-0.25
-0.185
-0.185
-0.22
-0.25
-0.25
-0.25
-0.24
-0.255
-0.265
-0.27
-0.265
-0.26
-0.245
-0.235
-0.255
-0.295
-0.33
-0.355
-0.33
-0.32
-0.315
-0.345
-0.34
-0.31
-0.325
-0.33
-0.36
-0.375
-0.38
-0.375
-0.37
-0.375
-0.365
-0.375
-0.4
-0.415
-0.43
-0.41
-0.41
-0.425
-0.435
-0.42
-0.395
-0.38
-0.4
-0.43
-0.465
-0.485
-0.43
-0.435
-0.445
-0.465
-0.475
-0.465
-0.44
-0.44
-0.46
-0.47
-0.475
-0.455
-0.425
-0.44
-0.45
-0.46
-0.445
-0.42
-0.37
-0.345
-0.31
-0.295
-0.25
-0.225
-0.17
-0.145
-0.12
-0.13
-0.115
-0.1
-0.09
-0.09
-0.11
-0.14
-0.165
-0.18
-0.215
-0.265
-0.315
-0.365
-0.405
-0.435
-0.435
-0.44
-0.455
-0.49
-0.52
-0.52
-0.52
-0.53
-0.54
-0.535
-0.53
-0.51
-0.485
-0.48
-0.49
-0.49
-0.485
-0.495
-0.44
-0.36
-0.195
0.085
0.5
0.95
1.275
1.42
1.425
1.335
1.145
0.88
0.42
-0.165
-0.725
-1.06
-1.02
-0.82
-0.655
-0.62
-0.625
-0.63
-0.62
-0.575
-0.555
-0.555
-0.595
-0.59
-0.6
-0.59
-0.565
-0.535
-0.535
-0.555
-0.585
-0.58
-0.53
-0.54
-0.54
-0.555
-0.535
-0.535
-0.52
-0.54
-0.545
-0.585
-0.57
-0.545
-0.495
-0.5
-0.525
-0.515
-0.51
-0.5
-0.475
-0.47
-0.48
-0.495
-0.48
-0.44
-0.4
-0.385
-0.405
-0.43
-0.435
-0.43
-0.385
-0.35
-0.33
-0.34
-0.355
-0.34
-0.305
-0.28
-0.255
-0.25
-0.245
-0.225
-0.2
-0.145
-0.12
-0.125
-0.115
-0.08
-0.03
-0.02
-0.01
0.005
0.04
0.095
0.135
0.155
0.205
0.22
0.25
0.275
0.31
0.355
0.375
0.365
0.385
0.4
0.405
0.395
0.385
0.385
0.385
0.4
0.375
0.32
0.26
0.21
0.195
0.21
0.22
0.18
0.145
0.11
0.065
0.04
0.015
-0.02
-0.05
-0.085
-0.105
-0.115
-0.135
-0.15
-0.17
-0.195
-0.215
-0.21
-0.205
-0.22
-0.245
-0.275
-0.28
-0.265
-0.255
-0.275
-0.315
-0.345
-0.375
-0.365
-0.345
-0.36
-0.34
-0.355
-0.355
-0.36
-0.35
-0.325
-0.33
-0.35
-0.35
-0.365
-0.355
-0.34
-0.35
-0.345
-0.305
-0.295
-0.3
-0.31
-0.325
-0.325
-0.3
-0.29
-0.28
-0.28
-0.275
-0.285
-0.285
-0.275
-0.265
-0.265
-0.26
-0.255
-0.265
-0.265
-0.265
-0.27
-0.295
-0.29
-0.29
-0.285
-0.27
-0.29
-0.27
-0.285
-0.295
-0.29
-0.29
-0.29
-0.3
-0.315
-0.325
-0.31
-0.305
-0.3
-0.32
-0.335
-0.34
-0.34
-0.32
-0.32
-0.335
-0.37
-0.385
-0.365
-0.35
-0.35
-0.34
-0.355
-0.355
-0.37
-0.36
-0.37
-0.375
-0.39
-0.4
-0.38
-0.355
-0.345
-0.37
-0.39
-0.365
-0.33
-0.305
-0.285
-0.285
-0.28
-0.26
-0.22
-0.215
-0.19
-0.16
-0.115
-0.065
-0.025
0.005
-0.01
-0.02
-0.025
-0.01
-0.02
-0.005
-0.005
-0.035
-0.11
-0.165
-0.185
-0.205
-0.255
-0.29
-0.365
-0.385
-0.395
-0.4
-0.405
-0.405
-0.43
-0.415
-0.415
-0.41
-0.42
-0.445
-0.425
-0.415
-0.42
-0.405
-0.415
-0.41
-0.41
-0.395
-0.335
-0.23
-0.03
0.27
0.65
1.05
1.33
1.475
1.475
1.41
1.24
0.95
0.505
-0.06
-0.625
-0.97
-0.97
-0.765
-0.585
-0.53
-0.545
-0.545
-0.525
-0.505
-0.47
-0.45
-0.45
-0.475
-0.49
-0.49
-0.48
-0.47
-0.46
-0.455
-0.465
-0.47
-0.46
-0.465
-0.46
-0.47
-0.49
-0.5
-0.49
-0.44
-0.435
-0.435
-0.455
-0.45
-0.44
-0.425
-0.42
-0.43
-0.465
-0.47
-0.445
-0.42
-0.39
-0.39
-0.38
-0.385
-0.39
-0.375
-0.38
-0.38
-0.385
-0.36
-0.335
-0.31
-0.295
-0.3
-0.3
-0.305
-0.27
-0.25
-0.245
-0.255
-0.255
-0.24
-0.195
-0.15
-0.14
-0.135
-0.135
-0.14
-0.105
-0.045
-0.03
-0.02
-0.005
0.025
0.065
0.11
0.12
0.155
0.165
0.195
0.23
0.275
0.29
0.325
0.33
0.33
0.36
0.395
0.395
0.395
0.37
0.38
0.375
0.39
0.365
0.345
0.335
0.315
0.27
0.25
0.21
0.17
0.155
0.13
0.1
0.085
0.035
0.005
-0.01
-0.035
-0.04
-0.04
-0.075
-0.095
-0.145
-0.15
-0.16
-0.17
-0.175
-0.195
-0.23
-0.26
-0.25
-0.24
-0.25
-0.27
-0.285
-0.31
-0.29
-0.29
-0.3
-0.315
-0.36
-0.37
-0.355
-0.36
-0.355
-0.37
-0.365
-0.355
-0.355
-0.335
-0.345
-0.345
-0.34
-0.335
-0.325
-0.325
-0.335
-0.345
-0.34
-0.34
-0.33
-0.325
-0.315
-0.33
-0.34
-0.325
-0.305
-0.3
-0.295
-0.295
-0.31
-0.305
-0.29
-0.285
-0.29
-0.305
-0.315
-0.32
-0.31
-0.29
-0.285
-0.275
-0.31
-0.33
-0.33
-0.33
-0.33
-0.33
-0.34
-0.345
-0.335
-0.32
-0.34
-0.35
-0.365
-0.39
-0.38
-0.35
-0.355
-0.355
-0.365
-0.38
-0.38
-0.355
-0.36
-0.37
-0.39
-0.385
-0.4
-0.395
-0.4
-0.405
-0.405
-0.4
-0.37
-0.38
-0.4
-0.43
-0.425
-0.435
-0.425
-0.41
-0.41
-0.435
-0.43
-0.44
-0.45
-0.425
-0.42
-0.43
-0.425
-0.425
-0.415
-0.39
-0.395
-0.41
-0.42
-0.41
-0.375
-0.34
-0.32
-0.31
-0.3
-0.285
-0.265
-0.215
-0.2
-0.155
-0.12
-0.08
-0.085
-0.075
-0.07
-0.07
-0.08
-0.085
-0.09
-0.095
-0.115
-0.165
-0.235
-0.27
-0.295
-0.315
-0.345
-0.385
-0.43
-0.455
-0.455
-0.435
-0.44
-0.435
-0.445
-0.435
-0.425
-0.405
-0.405
-0.415
-0.42
-0.415
-0.39
-0.36
-0.33
-0.26
-0.155
0.04
0.355
0.75
1.105
1.35
1.44
1.445
1.38
1.24
0.97
0.495
-0.065
-0.61
-0.93
-0.94
-0.75
-0.63
-0.595
-0.595
-0.575
-0.53
-0.485
-0.48
-0.485
-0.505
-0.505
-0.485
-0.47
-0.455
-0.455
-0.47
-0.465
-0.465
-0.46
