Lead II
-0.235
-0.24
-0.255
-0.27
-0.295
-0.31
-0.31
-0.295
-0.3
-0.32
-0.32
-0.33
-0.325
-0.33
-0.335
-0.345
-0.35
-0.35
-0.325
-0.295
-0.32
-0.335
-0.315
-0.29
-0.27
-0.275
-0.29
-0.315
-0.35
-0.345
-0.315
-0.275
-0.27
-0.285
-0.315
-0.31
-0.27
-0.225
-0.215
-0.23
-0.245
-0.255
-0.23
-0.19
-0.2
-0.245
-0.265
-0.255
-0.245
-0.235
-0.245
-0.26
-0.295
-0.315
-0.305
-0.255
-0.235
-0.25
-0.315
-0.375
-0.385
-0.375
-0.36
-0.355
-0.34
-0.335
-0.305
-0.305
-0.305
-0.315
-0.34
-0.34
-0.34
-0.33
-0.335
-0.355
-0.375
-0.375
-0.335
-0.31
-0.32
-0.335
-0.34
-0.325
-0.315
-0.3
-0.29
-0.305
-0.32
-0.325
-0.31
-0.32
-0.335
-0.325
-0.305
-0.275
-0.285
-0.305
-0.335
-0.34
-0.305
-0.22
-0.065
0.11
0.255
0.405
0.535
0.64
0.68
0.655
0.485
0.305
0.075
-0.19
-0.445
-0.66
-0.845
-0.93
-0.86
-0.705
-0.58
-0.49
-0.455
-0.39
-0.35
-0.295
-0.27
-0.295
-0.355
-0.4
-0.395
-0.355
-0.31
-0.285
-0.285
-0.26
-0.23
-0.21
-0.22
-0.21
-0.21
-0.195
-0.185
-0.21
-0.22
-0.205
-0.205
-0.205
-0.215
-0.19
-0.135
-0.095
-0.06
-0.065
-0.085
-0.08
-0.025
0.045
0.095
0.09
0.04
0.025
0.06
0.12
0.165
0.145
0.115
0.105
0.12
0.13
0.105
0.085
0.1
0.11
0.11
0.13
0.125
0.11
0.075
0.04
0.035
0.035
0.01
-0.04
-0.08
-0.045
-0.025
-0.065
-0.155
-0.255
-0.255
-0.23
-0.22
-0.25
-0.285
-0.3
-0.29
-0.27
-0.25
-0.23
-0.255
-0.295
-0.29
-0.285
-0.27
-0.255
-0.26
-0.275
-0.28
-0.295
-0.305
-0.31
-0.315
-0.29
-0.295
-0.31
-0.29
-0.24
-0.24
-0.265
-0.295
-0.29
-0.275
-0.225
-0.18
-0.18
-0.23
-0.265
-0.26
-0.22
-0.205
-0.2
-0.225
-0.225
-0.23
-0.205
-0.225
-0.265
-0.31
-0.315
-0.305
-0.26
-0.24
-0.21
-0.225
-0.235
-0.255
-0.285
-0.285
-0.305
-0.315
-0.33
-0.33
-0.31
-0.31
-0.33
-0.32
-0.3
-0.275
-0.265
-0.275
-0.315
-0.325
-0.31
-0.29
-0.265
-0.27
-0.28
-0.325
-0.32
-0.325
-0.305
-0.315
-0.32
-0.315
-0.295
-0.295
-0.275
-0.26
-0.25
-0.27
-0.295
-0.315
-0.335
-0.295
-0.205
-0.08
0.095
0.29
0.44
0.61
0.74
0.8
0.785
0.665
0.445
0.21
-0.08
-0.385
-0.665
-0.835
-0.845
-0.765
-0.705
-0.645
-0.575
-0.47
-0.365
-0.325
-0.33
-0.36
-0.345
-0.31
-0.26
-0.25
-0.245
-0.265
-0.235
-0.22
-0.215
-0.235
-0.27
-0.26
-0.22
-0.175
-0.16
-0.17
-0.165
-0.16
-0.15
-0.14
-0.125
-0.115
-0.115
-0.12
-0.13
-0.125
-0.125
-0.11
-0.085
-0.045
-0.01
0.03
0.075
0.1
0.1
0.05
0.045
0.085
0.12
0.145
0.13
0.14
0.15
0.16
0.18
0.15
0.12
0.1
0.11
0.135
0.175
0.18
0.18
0.135
0.115
0.09
0.085
0.065
0.04
0.0
-0.035
-0.05
-0.045
-0.04
-0.065
-0.09
-0.14
-0.16
-0.17
-0.185
-0.2
-0.18
-0.145
-0.11
-0.135
-0.215
-0.29
-0.31
-0.28
-0.25
-0.24
-0.29
-0.305
-0.285
-0.265
-0.245
-0.24
-0.26
-0.26
-0.28
-0.28
-0.26
-0.24
-0.275
-0.295
-0.305
-0.28
-0.25
-0.225
-0.2
-0.18
-0.2
-0.205
-0.215
-0.215
-0.21
-0.205
-0.21
-0.195
-0.155
-0.1
-0.08
-0.12
-0.2
-0.255
-0.255
-0.22
-0.21
-0.2
-0.205
-0.22
-0.245
-0.275
-0.28
-0.26
-0.25
-0.255
-0.27
-0.28
-0.305
-0.305
-0.3
-0.28
-0.265
-0.25
-0.265
-0.28
-0.275
-0.275
-0.295
-0.3
-0.31
-0.305
-0.295
-0.295
-0.295
-0.265
-0.24
-0.245
-0.27
-0.29
-0.295
-0.28
-0.275
-0.27
-0.3
-0.295
-0.3
-0.275
-0.285
-0.305
-0.295
-0.295
-0.255
-0.26
-0.25
-0.275
-0.305
-0.275
-0.17
-0.015
0.155
0.305
0.475
0.675
0.8
0.825
0.685
0.49
0.315
0.115
-0.16
-0.5
-0.8
-0.945
-0.915
-0.775
-0.645
-0.545
-0.465
-0.41
-0.36
-0.33
-0.32
-0.31
-0.33
-0.325
-0.32
-0.3
-0.28
-0.255
-0.255
-0.255
-0.25
-0.215
-0.195
-0.195
-0.22
-0.225
-0.2
-0.175
-0.155
-0.125
-0.11
-0.08
-0.085
-0.1
-0.12
-0.09
-0.045
-0.04
-0.035
-0.01
0.035
0.1
0.1
0.06
0.02
0.025
0.045
0.075
0.13
0.125
0.11
0.09
0.08
0.115
0.125
0.15
0.155
0.165
0.195
0.195
0.175
0.16
0.125
0.12
0.095
0.09
0.07
0.055
0.01
-0.02
-0.02
-0.025
-0.04
-0.07
-0.125
-0.165
-0.17
-0.16
-0.145
-0.1
-0.1
-0.13
-0.185
-0.24
-0.285
-0.29
-0.295
-0.285
-0.255
-0.225
-0.2
-0.215
-0.265
-0.32
-0.335
-0.3
-0.27
-0.25
-0.25
-0.24
-0.26
-0.305
-0.355
-0.34
-0.3
-0.26
-0.235
-0.23
-0.235
-0.265
-0.275
-0.23
-0.205
-0.165
-0.17
-0.165
-0.125
-0.095
-0.1
-0.165
-0.235
-0.28
-0.25
-0.21
-0.18
-0.2
-0.25
-0.275
-0.295
-0.26
-0.21
-0.19
-0.225
-0.28
-0.295
-0.265
-0.245
-0.235
-0.25
-0.23
-0.22
-0.24
-0.265
-0.315
-0.355
-0.36
-0.335
-0.29
-0.27
-0.255
-0.275
-0.295
-0.32
-0.305
-0.28
-0.265
-0.26
-0.275
-0.29
-0.29
-0.29
-0.3
-0.315
-0.32
-0.305
-0.3
-0.27
-0.26
-0.275
-0.285
-0.26
-0.255
-0.255
-0.255
-0.26
-0.27
-0.275
-0.26
-0.15
0.005
0.165
0.31
0.465
0.62
0.74
0.775
0.685
0.545
0.39
0.19
-0.085
-0.41
-0.715
-0.925
-0.955
-0.83
-0.695
-0.62
-0.56
-0.48
-0.375
-0.28
-0.255
-0.285
-0.32
-0.33
-0.31
-0.28
-0.255
-0.245
-0.23
-0.22
-0.22
-0.22
-0.185
-0.18
-0.195
-0.225
-0.245
-0.22
-0.19
-0.155
-0.145
-0.135
-0.135
-0.12
-0.085
-0.025
0.0
0.01
-0.01
0.0
0.005
0.015
0.01
0.02
0.015
0.02
0.065
0.095
0.115
0.105
0.115
0.165
0.2
0.205
0.17
0.145
0.15
0.17
0.19
0.19
0.17
0.155
0.13
0.12
0.115
0.115
0.1
0.1
0.085
0.075
0.065
0.05
0.02
-0.06
-0.1
-0.095
-0.075
-0.07
-0.12
-0.155
-0.17
-0.175
-0.155
-0.155
-0.185
-0.2
-0.235
-0.27
-0.265
-0.265
-0.26
-0.265
-0.265
-0.28
-0.25
-0.24
-0.24
-0.235
-0.25
-0.24
-0.245
-0.23
-0.24
-0.26
-0.28
-0.285
-0.26
-0.215
-0.215
-0.235
-0.275
-0.285
-0.25
-0.22
-0.205
-0.23
-0.225
-0.225
-0.215
-0.185
-0.145
-0.12
-0.095
-0.11
-0.14
-0.185
-0.235
-0.24
-0.23
-0.225
-0.215
-0.2
-0.205
-0.21
-0.25
-0.275
-0.265
-0.22
-0.22
-0.235
-0.255
-0.27
-0.29
-0.29
-0.3
-0.3
-0.295
-0.28
-0.255
-0.245
-0.27
-0.315
-0.305
-0.3
-0.255
-0.215
-0.245
-0.285
-0.285
-0.29
-0.275
-0.265
-0.265
-0.285
-0.28
-0.245
-0.205
-0.22
-0.295
-0.345
-0.365
-0.32
-0.285
-0.265
-0.27
-0.285
-0.29
-0.29
-0.295
-0.285
-0.295
-0.295
-0.265
-0.16
-0.015
0.14
0.255
0.38
0.505
0.62
0.685
0.675
0.535
0.355
0.195
0.015
-0.215
-0.455
-0.67
-0.835
-0.89
-0.815
-0.705
-0.62
-0.545
-0.465
-0.4
-0.33
-0.29
-0.245
-0.23
-0.23
-0.255
-0.28
-0.28
-0.27
-0.275
-0.265
-0.265
-0.255
-0.255
-0.265
-0.26
-0.26
-0.245
-0.215
-0.2
-0.18
-0.165
-0.185
-0.17
-0.14
-0.125
-0.09
-0.07
-0.045
-0.02
-0.005
-0.03
-0.045
-0.08
-0.08
-0.035
0.03
0.085
0.13
0.125
0.12
0.07
0.06
0.065
0.11
0.14
0.15
0.14
0.135
0.155
0.175
0.17
0.14
0.125
0.135
0.17
0.18
0.17
0.15
0.12
0.11
0.115
0.085
0.045
0.005
-0.01
-0.015
-0.02
-0.04
-0.085
-0.15
-0.18
-0.18
-0.19
-0.175
-0.185
-0.185
-0.215
-0.215
-0.215
-0.23
-0.215
-0.22
-0.235
-0.24
-0.245
-0.23
-0.215
-0.225
-0.24
-0.24
-0.255
-0.255
-0.26
-0.28
-0.27
-0.29
-0.28
-0.275
-0.26
-0.255
-0.24
-0.225
-0.215
-0.225
-0.27
-0.295
-0.305
-0.26
-0.225
-0.225
-0.245
-0.255
-0.255
-0.245
-0.205
-0.185
-0.18
-0.215
-0.23
-0.21
-0.175
-0.15
-0.155
-0.165
-0.185
-0.19
-0.19
-0.185
-0.215
-0.265
-0.31
-0.34
-0.31
-0.27
-0.245
-0.235
-0.25
-0.265
-0.275
-0.275
-0.28
-0.285
-0.295
-0.275
-0.265
-0.265
-0.245
-0.265
-0.285
-0.295
-0.29
-0.275
-0.26
-0.28
-0.275
-0.265
-0.275
-0.295
-0.32
-0.315
-0.29
-0.245
-0.215
-0.205
-0.26
-0.32
-0.375
-0.37
-0.35
-0.32
-0.31
-0.325
-0.335
-0.305
-0.29
-0.29
-0.3
-0.29
-0.275
-0.23
-0.13
0.01
0.12
0.23
0.345
0.49
0.615
0.685
0.67
0.575
0.44
0.3
0.13
-0.12
-0.37
-0.6
-0.795
-0.905
-0.87
-0.75
-0.665
-0.635
-0.62
-0.56
-0.455
-0.395
-0.365
-0.36
-0.325
-0.285
-0.26
-0.22
-0.205
-0.215
-0.24
-0.26
-0.23
-0.21
-0.195
-0.21
-0.24
-0.245
-0.23
-0.21
-0.21
-0.225
-0.225
-0.19
-0.145
-0.11
-0.115
-0.14
-0.175
-0.17
-0.16
-0.1
-0.07
-0.055
-0.05
-0.03
-0.015
-0.01
-0.005
0.015
0.015
0.055
0.085
0.09
0.075
0.065
0.065
0.08
0.125
0.18
0.185
0.14
0.09
0.09
0.14
0.175
0.165
0.13
0.105
0.105
0.11
0.12
0.125
0.095
0.07
0.06
0.035
0.02
-0.02
-0.05
-0.055
-0.065
-0.07
-0.09
-0.12
-0.145
-0.155
-0.18
-0.18
-0.195
-0.205
-0.225
-0.205
-0.18
-0.19
-0.215
-0.225
-0.245
-0.23
-0.24
-0.27
-0.31
-0.335
-0.34
-0.335
-0.305
-0.275
-0.245
-0.26
-0.275
-0.275
-0.275
-0.27
-0.27
-0.27
-0.305
-0.28
-0.255
-0.24
-0.245
-0.25
-0.255
-0.25
-0.25
-0.24
-0.26
-0.275
-0.305
-0.29
-0.25
-0.21
-0.2
-0.2
-0.2
-0.19
-0.17
-0.185
-0.185
-0.205
-0.245
-0.28
-0.265
-0.235
-0.235
-0.255
-0.265
-0.275
-0.28
-0.285
-0.29
-0.295
-0.305
-0.315
-0.275
-0.25
-0.23
-0.255
-0.29
-0.3
-0.295
-0.3
-0.28
-0.29
-0.275
-0.305
-0.325
-0.305
-0.28
-0.255
-0.255
-0.27
-0.275
-0.295
-0.3
-0.305
-0.32
-0.32
-0.31
-0.285
-0.28
-0.3
-0.33
-0.32
-0.285
-0.27
-0.27
-0.3
-0.33
-0.34
-0.31
-0.285
-0.265
-0.275
-0.32
-0.345
-0.33
-0.275
-0.19
-0.055
0.08
0.205
0.355
0.52
0.66
0.73
0.72
0.61
0.47
0.32
0.075
-0.255
-0.57
-0.815
-0.935
-0.9
-0.76
-0.64
-0.575
-0.535
-0.485
-0.395
-0.33
-0.335
-0.325
-0.315
-0.29
-0.285
-0.29
-0.3
-0.29
-0.28
-0.29
-0.285
-0.255
-0.24
-0.26
-0.285
-0.28
-0.26
-0.22
-0.195
-0.19
-0.185
-0.17
-0.135
-0.115
-0.12
-0.145
-0.145
-0.115
-0.095
-0.07
-0.05
-0.035
-0.04
-0.01
0.01
0.055
0.08
0.075
0.075
0.085
0.08
0.09
0.085
0.085
0.08
0.105
0.13
0.14
0.13
0.105
0.08
0.08
0.115
0.135
0.12
0.075
0.035
0.02
0.015
0.01
-0.005
-0.04
-0.085
-0.115
-0.12
-0.125
-0.135
-0.185
-0.21
-0.19
-0.175
-0.155
-0.175
-0.215
-0.25
-0.295
-0.285
-0.25
-0.235
-0.25
-0.285
-0.31
-0.305
-0.265
-0.255
-0.275
-0.29
-0.3
-0.29
-0.285
-0.295
-0.29
-0.315
-0.325
-0.31
-0.285
-0.27
-0.255
-0.24
-0.24
-0.25
-0.26
-0.245
-0.225
-0.23
-0.22
-0.21
-0.19
-0.175
-0.195
-0.215
-0.215
-0.19
-0.195
-0.23
-0.26
-0.26
-0.265
-0.245
-0.245
-0.27
-0.295
-0.31
-0.295
-0.295
-0.255
-0.27
-0.28
-0.28
-0.275
-0.29
-0.325
-0.37
-0.36
-0.325
-0.31
-0.295
-0.285
-0.285
-0.29
-0.3
-0.32
-0.31
-0.315
-0.325
-0.34
-0.35
-0.335
-0.315
-0.29
-0.27
-0.265
-0.3
-0.31
-0.31
-0.31
-0.315
-0.305
-0.32
-0.34
-0.325
-0.305
-0.28
-0.29
-0.31
-0.335
-0.335
-0.305
-0.24
-0.125
0.04
0.21
0.37
0.505
0.63
0.705
0.72
0.66
0.52
0.355
0.15
-0.165
-0.5
-0.77
-0.91
-0.905
-0.815
-0.7
-0.61
-0.52
-0.435
-0.37
-0.345
-0.345
-0.345
-0.31
-0.295
-0.29
-0.285
-0.305
-0.29
-0.305
-0.31
-0.315
-0.29
-0.27
-0.26
-0.25
-0.245
-0.215
-0.215
-0.21
-0.2
-0.215
-0.18
-0.18
-0.18
-0.175
-0.17
-0.135
-0.095
-0.07
-0.065
-0.04
0.0
0.015
0.05
0.02
-0.01
-0.025
-0.02
-0.005
0.04
0.07
0.1
0.1
0.085
0.1
0.115
0.125
0.12
0.115
0.08
0.04
0.035
0.06
0.075
0.07
0.06
0.065
0.065
0.03
-0.01
-0.07
-0.095
-0.105
-0.095
-0.075
-0.095
-0.14
-0.19
-0.22
-0.23
-0.22
-0.225
-0.225
-0.24
-0.265
-0.29
-0.28
-0.295
-0.31
-0.31
-0.315
-0.3
-0.295
-0.29
-0.31
-0.305
-0.305
-0.31
-0.305
-0.3
-0.285
-0.28
-0.285
-0.29
-0.265
-0.25
-0.255
-0.265
-0.275
-0.28
-0.285
-0.28
-0.28
-0.28
-0.26
-0.24
-0.215
-0.205
-0.225
-0.225
-0.215
-0.19
-0.18
-0.205
-0.25
-0.285
-0.295
-0.285
-0.265
-0.24
-0.255
-0.3
-0.325
-0.32
-0.3
-0.285
-0.295
-0.325
-0.32
-0.325
-0.32
-0.34
-0.345
-0.34
-0.33
-0.33
-0.315
-0.29
-0.285
-0.28
-0.305
-0.33
-0.34
-0.335
-0.32
-0.315
-0.345
-0.355
-0.335
-0.325
-0.325
-0.365
-0.38
-0.35
-0.325
-0.315
-0.325
-0.325
-0.33
-0.315
-0.325
-0.325
-0.36
-0.38
-0.37
-0.32
-0.225
-0.11
0.04
0.17
0.335
0.495
0.63
0.69
0.66
0.55
0.365
0.18
-0.085
-0.42
-0.745
-0.975
-1.0
-0.865
-0.69
-0.57
-0.505
-0.46
-0.42
-0.385
-0.345
-0.345
-0.38
-0.38
-0.335
-0.285
-0.265
-0.295
-0.315
-0.3
-0.265
-0.24
-0.245
-0.265
-0.27
-0.25
-0.225
-0.205
-0.205
-0.23
-0.22
-0.185
-0.145
-0.12
-0.135
-0.15
-0.17
-0.165
-0.12
-0.08
-0.06
-0.05
-0.03
-0.025
0.03
0.07
0.075
0.075
0.095
0.085
0.075
0.07
0.05
0.07
0.07
0.07
0.09
0.125
0.14
0.12
0.075
0.015
0.02
0.045
0.03
-0.03
-0.105
-0.14
-0.135
-0.105
-0.125
-0.155
-0.17
-0.185
-0.215
-0.245
-0.275
-0.295
-0.3
-0.295
-0.29
-0.27
-0.265
-0.265
-0.285
-0.31
-0.305
-0.3
-0.3
-0.335
-0.335
-0.325
-0.3
-0.29
-0.29
-0.305
-0.295
-0.275
-0.295
-0.315
-0.31
-0.305
-0.285
-0.265
-0.26
-0.26
-0.265
-0.26
-0.26
-0.24
-0.205
-0.16
-0.145
-0.16
-0.225
-0.275
-0.265
-0.26
-0.265
-0.28
-0.29
-0.285
-0.275
-0.28
-0.26
-0.235
-0.235
-0.295
-0.34
-0.34
-0.32
-0.31
-0.305
-0.295
-0.305
-0.325
-0.355
-0.355
-0.36
-0.355
-0.35
-0.325
-0.325
-0.335
-0.34
-0.335
-0.325
-0.305
-0.305
-0.305
-0.325
-0.31
-0.32
-0.32
-0.315
-0.315
-0.3
-0.295
-0.285
-0.3
-0.3
-0.305
-0.295
-0.28
-0.22
-0.115
0.02
0.17
0.325
0.46
0.585
0.685
0.705
0.595
0.395
0.225
-0.025
-0.37
-0.7
-0.915
-0.97
-0.895
-0.765
-0.635
-0.56
-0.475
-0.425
-0.4
-0.39
-0.365
-0.335
-0.325
-0.32
-0.3
-0.28
-0.245
-0.225
-0.225
-0.25
-0.265
-0.245
-0.195
-0.185
-0.195
-0.225
-0.235
-0.225
-0.16
-0.13
-0.13
-0.13
-0.145
-0.11
-0.07
-0.055
-0.065
-0.085
-0.095
-0.045
0.0
0.035
0.03
0.025
0.025
0.045
0.09
0.13
0.14
0.105
0.075
0.08
0.115
0.15
0.145
0.125
0.12
0.09
0.085
0.09
0.085
0.055
0.04
0.035
0.015
-0.005
-0.04
-0.08
-0.095
-0.09
-0.09
-0.105
-0.14
-0.17
-0.19
-0.175
-0.175
-0.19
-0.195
-0.215
-0.25
-0.255
-0.245
-0.245
-0.27
-0.305
-0.305
-0.29
-0.285
-0.275
-0.28
-0.285
-0.28
-0.27
-0.26
-0.265
-0.265
-0.28
-0.27
-0.265
-0.255
-0.26
-0.255
-0.28
-0.295
-0.285
-0.245
-0.215
-0.22
-0.255
-0.26
-0.23
-0.185
-0.18
-0.185
-0.19
-0.21
-0.2
-0.195
-0.195
-0.19
-0.215
-0.26
-0.29
-0.29
-0.28
-0.27
-0.25
-0.245
-0.24
-0.27
-0.29
-0.275
-0.285
-0.3
-0.305
-0.295
-0.29
-0.28
-0.275
-0.29
-0.295
-0.285
-0.26
-0.26
-0.29
-0.29
-0.285
-0.275
-0.3
-0.335
-0.36
-0.33
-0.32
-0.3
-0.295
-0.3
-0.32
-0.325
-0.305
-0.29
-0.285
-0.295
-0.305
-0.29
-0.285
-0.235
-0.125
0.025
0.17
0.29
0.43
0.555
0.595
0.55
0.38
0.205
-0.02
-0.275
-0.54
-0.79
-0.96
-0.94
-0.805
-0.66
-0.58
-0.54
-0.475
-0.43
-0.36
-0.31
-0.285
-0.27
-0.28
-0.275
-0.265
-0.245
-0.245
-0.23
-0.23
-0.24
-0.25
-0.225
-0.205
-0.19
-0.2
-0.205
-0.19
-0.175
-0.16
-0.15
-0.14
-0.125
-0.105
-0.085
-0.055
-0.03
-0.025
-0.015
0.0
0.03
0.035
0.045
0.05
0.06
0.055
0.08
0.075
0.09
0.095
0.12
0.14
0.16
0.145
0.145
0.13
0.14
0.155
0.17
0.155
0.09
0.025
0.01
0.02
0.025
0.0
-0.03
-0.06
-0.08
-0.085
-0.085
-0.1
-0.145
-0.155
-0.165
-0.17
-0.18
-0.175
-0.19
-0.195
-0.2
-0.205
-0.22
-0.225
-0.25
-0.27
-0.27
-0.265
-0.23
-0.225
-0.245
-0.265
-0.255
-0.245
-0.215
-0.235
-0.275
-0.305
-0.295
-0.255
-0.245
-0.25
-0.265
-0.27
-0.275
-0.265
-0.24
-0.23
-0.23
-0.23
-0.22
-0.2
-0.195
-0.19
-0.18
-0.17
-0.16
-0.145
-0.155
-0.16
-0.18
-0.22
-0.245
-0.245
-0.24
-0.245
-0.235
-0.235
-0.24
-0.22
-0.2
-0.24
-0.29
-0.345
-0.35
-0.29
-0.24
-0.23
-0.27
-0.3
-0.315
-0.3
-0.265
-0.25
-0.25
-0.265
-0.295
-0.3
-0.3
-0.27
-0.27
-0.29
-0.31
-0.31
-0.31
-0.31
-0.315
-0.32
-0.3
-0.27
-0.265
-0.25
-0.255
-0.27
-0.255
-0.24
-0.23
-0.27
-0.305
-0.3
-0.23
-0.095
0.045
0.155
0.28
0.41
0.52
0.615
0.62
0.525
0.365
0.155
-0.09
-0.375
-0.605
-0.795
-0.895
-0.855
-0.745
-0.63
-0.57
-0.51
-0.455
-0.415
-0.39
-0.335
-0.285
-0.245
-0.24
-0.255
-0.27
-0.25
-0.225
-0.21
-0.19
-0.2
-0.24
-0.26
-0.235
-0.2
-0.165
-0.155
-0.165
-0.16
-0.135
-0.105
-0.075
-0.075
-0.06
-0.06
-0.07
-0.065
-0.085
-0.08
-0.065
-0.025
0.01
0.025
0.035
0.04
0.04
0.05
0.065
0.07
0.085
0.09
0.065
0.085
0.11
0.135
0.145
0.12
0.125
0.135
0.14
0.145
0.12
0.11
0.105
0.085
0.06
0.05
0.025
0.0
-0.01
-0.035
-0.04
-0.065
-0.09
-0.12
-0.14
-0.125
-0.115
-0.12
-0.16
-0.19
-0.18
-0.185
-0.185
-0.2
-0.245
-0.27
-0.275
-0.26
-0.28
-0.275
-0.295
-0.295
-0.29
-0.285
-0.28
-0.265
-0.28
-0.29
-0.3
-0.285
-0.26
-0.25
-0.265
-0.265
-0.245
-0.225
-0.2
-0.195
-0.215
-0.255
-0.26
-0.255
-0.245
-0.21
-0.21
-0.215
-0.215
-0.19
-0.165
-0.14
-0.175
-0.23
-0.275
-0.275
-0.245
-0.235
-0.25
-0.265
-0.255
-0.25
-0.21
-0.215
-0.255
-0.295
-0.32
-0.315
-0.295
-0.275
-0.285
-0.29
-0.3
-0.305
-0.31
-0.305
-0.29
-0.28
-0.3
-0.3
-0.275
-0.265
-0.265
-0.265
-0.28
-0.26
-0.26
-0.285
-0.325
-0.33
-0.32
-0.295
-0.285
-0.285
-0.275
-0.31
-0.34
-0.34
-0.3
-0.225
-0.135
-0.01
0.115
0.28
0.46
0.585
0.625
0.53
0.365
0.21
0.0
-0.315
-0.635
-0.855
-0.905
-0.82
-0.685
-0.61
-0.58
-0.555
-0.5
-0.415
-0.325
-0.3
-0.31
-0.35
-0.335
-0.325
-0.29
-0.27
-0.24
-0.225
-0.235
-0.235
-0.25
-0.27
-0.255
-0.255
-0.25
-0.24
-0.205
-0.175
-0.17
-0.195
-0.19
-0.175
-0.16
-0.16
-0.15
-0.14
-0.14
-0.12
-0.09
-0.075
-0.065
-0.045
-0.035
0.0
0.035
0.075
0.08
0.085
0.085
0.11
0.135
0.17
0.16
0.135
0.125
0.155
0.185
0.18
0.145
0.08
0.075
0.08
0.085
0.1
0.065
0.02
-0.04
-0.075
-0.105
-0.155
-0.19
-0.225
-0.2
-0.165
-0.165
-0.145
-0.2
-0.225
-0.25
-0.235
-0.25
-0.26
-0.27
-0.275
-0.275
-0.285
-0.27
-0.28
-0.3
-0.32
-0.325
-0.305
-0.27
-0.25
-0.225
-0.24
-0.275
-0.28
-0.305
-0.28
-0.265
-0.24
-0.225
-0.21
-0.22
-0.215
-0.215
-0.215
-0.225
-0.255
-0.27
-0.27
-0.275
-0.265
-0.255
-0.22
-0.18
-0.17
-0.175
-0.19
-0.22
-0.22
-0.215
-0.235
-0.25
-0.285
-0.285
-0.275
-0.255
-0.26
-0.255
-0.25
-0.25
-0.24
-0.23
-0.225
-0.245
-0.28
-0.305
-0.305
-0.28
-0.27
-0.235
-0.255
-0.275
-0.29
-0.26
-0.255
-0.28
-0.315
-0.325
-0.3
-0.275
-0.26
-0.27
-0.27
-0.275
-0.26
-0.245
-0.235
-0.26
-0.305
-0.33
-0.3
-0.27
-0.27
-0.295
-0.3
-0.28
-0.245
-0.225
-0.24
-0.24
-0.195
-0.075
0.085
0.235
0.355
0.47
0.57
0.675
0.745
0.77
0.735
0.61
0.485
0.345
0.115
-0.13
-0.42
-0.685
-0.835
-0.87
-0.775
-0.63
-0.55
-0.485
-0.445
-0.395
-0.335
-0.315
-0.295
-0.3
-0.315
-0.305
-0.27
-0.255
-0.25
-0.255
-0.235
-0.225
-0.19
-0.175
-0.19
-0.225
-0.235
-0.21
-0.18
-0.135
-0.115
-0.12
-0.15
-0.14
-0.14
-0.14
-0.14
-0.14
-0.155
-0.125
-0.105
-0.075
-0.045
-0.015
-0.015
-0.005
0.015
0.055
0.085
0.105
0.12
0.11
0.095
0.1
0.145
0.17
0.16
0.135
0.16
0.2
0.21
0.18
0.15
0.135
0.14
0.15
0.14
0.1
0.05
0.02
0.035
0.045
0.05
0.02
-0.005
-0.03
-0.03
-0.045
-0.065
-0.095
-0.145
-0.135
-0.14
-0.165
-0.195
-0.23
-0.26
-0.275
-0.255
-0.25
-0.235
-0.26
-0.285
-0.305
-0.305
-0.295
-0.27
-0.265
-0.25
-0.26
-0.265
-0.255
-0.27
-0.28
-0.29
-0.295
-0.295
-0.27
-0.26
-0.275
-0.29
-0.275
-0.215
-0.18
-0.165
-0.205
-0.255
-0.27
-0.26
-0.2
-0.155
-0.14
-0.155
-0.185
-0.19
-0.185
-0.195
-0.22
-0.24
-0.23
-0.245
-0.285
-0.33
-0.325
-0.31
-0.275
-0.25
-0.215
-0.23
-0.28
-0.305
-0.33
-0.34
-0.345
-0.36
-0.36
-0.345
-0.31
-0.29
-0.275
-0.29
-0.31
-0.32
-0.315
-0.295
-0.275
-0.305
-0.365
-0.38
-0.36
-0.295
-0.255
-0.25
-0.26
-0.295
-0.305
-0.315
-0.3
-0.3
-0.335
-0.36
-0.355
-0.32
-0.295
-0.31
-0.345
-0.35
-0.32
-0.245
-0.16
-0.045
0.115
0.255
0.35
0.465
0.58
0.695
0.745
0.695
0.54
0.385
0.24
-0.015
-0.34
-0.625
-0.825
-0.875
-0.82
-0.71
-0.635
-0.57
-0.505
-0.45
-0.37
-0.34
-0.34
-0.34
-0.32
-0.29
-0.245
-0.23
-0.245
-0.28
-0.29
-0.255
-0.24
-0.24
-0.265
-0.29
-0.28
-0.24
-0.205
-0.19
-0.22
-0.255
-0.265
-0.25
-0.215
-0.175
-0.135
-0.11
-0.105
-0.075
-0.04
-0.04
-0.04
-0.055
-0.07
-0.04
0.035
0.085
0.095
0.06
0.035
0.025
0.035
0.05
0.07
0.085
0.095
0.105
0.12
0.125
0.14
0.15
0.14
0.14
0.14
0.12
0.1
0.09
0.1
0.11
0.12
0.14
0.11
0.04
-0.01
-0.005
0.0
0.005
-0.01
-0.065
-0.125
-0.175
-0.175
-0.19
-0.2
-0.225
-0.24
-0.215
-0.215
-0.22
-0.22
-0.24
-0.255
-0.255
-0.245
-0.25
-0.27
-0.265
-0.27
-0.265
-0.28
-0.29
-0.31
-0.29
-0.26
-0.22
-0.195
-0.235
-0.32
-0.365
-0.335
-0.295
-0.285
-0.31
-0.325
-0.34
-0.32
-0.285
-0.26
-0.275
-0.28
-0.26
-0.26
-0.255
-0.235
-0.22
-0.19
-0.18
-0.16
-0.155
-0.15
-0.155
-0.185
-0.215
-0.255
-0.265
-0.25
-0.245
-0.26
-0.28
-0.295
-0.265
-0.235
-0.215
-0.22
-0.245
-0.245
-0.255
-0.23
-0.185
-0.155
-0.115
-0.045
0.06
0.175
0.28
0.375
0.455
0.54
0.645
0.77
0.88
1.03
1.165
1.305
1.43
1.535
1.615
1.635
1.635
1.595
1.515
1.405
1.255
1.07
0.86
0.605
0.355
0.18
0.07
-0.02
-0.11
-0.24
-0.395
-0.53
-0.64
-0.72
-0.785
-0.86
-0.935
-0.965
-0.965
-0.945
-0.93
-0.895
-0.815
-0.72
-0.68
-0.685
-0.675
-0.66
-0.645
-0.63
-0.6
-0.59
-0.6
-0.65
-0.675
-0.685
-0.67
-0.665
-0.69
-0.675
-0.66
-0.64
-0.645
-0.645
-0.65
-0.635
-0.635
-0.635
-0.64
-0.66
-0.655
-0.66
-0.66
-0.63
-0.595
-0.56
-0.545
-0.58
-0.605
-0.605
-0.58
-0.58
-0.59
-0.605
-0.575
-0.545
-0.505
-0.48
-0.49
-0.5
-0.505
-0.475
-0.475
-0.46
-0.45
-0.41
-0.395
-0.395
-0.39
-0.385
-0.365
-0.36
-0.355
-0.33
-0.29
-0.26
-0.265
-0.255
-0.235
-0.225
-0.255
-0.27
-0.285
-0.305
-0.295
-0.29
-0.29
-0.315
-0.34
-0.34
-0.305
-0.29
-0.28
-0.295
-0.33
-0.355
-0.365
-0.34
-0.33
-0.33
-0.365
-0.36
-0.36
-0.325
-0.32
-0.34
-0.35
-0.335
-0.295
-0.275
-0.31
-0.34
-0.375
-0.365
-0.335
-0.32
-0.33
-0.36
-0.365
-0.345
-0.31
-0.3
-0.32
-0.34
-0.345
-0.36
-0.355
-0.32
-0.305
-0.295
-0.305
-0.31
-0.305
-0.295
-0.295
-0.305
-0.34
-0.315
-0.295
-0.265
-0.27
-0.285
-0.285
-0.29
-0.28
-0.265
-0.265
-0.26
-0.255
-0.215
-0.195
-0.16
-0.145
-0.19
-0.235
-0.26
-0.245
-0.215
-0.23
-0.27
-0.305
-0.315
-0.285
-0.255
-0.23
-0.25
-0.255
-0.295
-0.305
-0.305
-0.295
-0.295
-0.305
-0.305
-0.3
-0.29
-0.285
-0.285
-0.285
-0.295
-0.285
-0.28
-0.285
-0.285
-0.305
-0.305
-0.285
-0.265
-0.27
-0.305
-0.315
-0.325
-0.295
-0.29
-0.275
-0.28
-0.31
-0.295
-0.28
-0.23
-0.23
-0.25
-0.27
-0.29
-0.275
-0.27
-0.275
-0.275
-0.265
-0.23
-0.155
-0.035
0.085
0.205
0.31
0.45
0.605
0.705
0.73
0.655
0.49
0.29
0.035
-0.27
-0.585
-0.815
-0.865
-0.775
-0.64
-0.56
-0.505
-0.435
-0.375
-0.31
-0.275
-0.255
-0.245
-0.255
-0.25
-0.255
-0.23
-0.23
-0.215
-0.22
-0.23
-0.215
-0.2
-0.175
-0.185
-0.19
-0.18
-0.175
-0.165
-0.165
-0.17
-0.165
-0.155
-0.13
-0.11
-0.095
-0.08
-0.09
-0.065
-0.06
-0.04
-0.025
-0.02
0.005
0.04
0.06
0.08
0.095
0.09
0.095
0.09
0.1
0.125
0.145
0.15
0.145
0.135
0.14
0.16
0.19
0.195
0.185
0.155
0.175
0.19
0.205
0.195
0.17
0.165
0.16
0.155
0.16
0.145
0.11
0.08
0.05
0.03
0.005
-0.015
-0.055
-0.09
-0.11
-0.115
-0.115
-0.13
-0.14
-0.175
-0.175
-0.175
-0.17
-0.185
-0.19
-0.215
-0.21
-0.2
-0.195
-0.21
-0.22
-0.225
-0.225
-0.22
-0.205
-0.205
-0.235
-0.24
-0.245
-0.24
-0.21
-0.22
-0.21
-0.22
-0.22
-0.21
-0.185
-0.175
-0.2
-0.2
-0.205
-0.185
-0.165
-0.16
-0.155
-0.165
-0.15
-0.145
-0.12
-0.115
-0.12
-0.115
-0.13
-0.13
-0.11
-0.13
-0.145
-0.175
-0.175
-0.175
-0.17
-0.185
-0.19
-0.21
-0.22
-0.19
-0.165
-0.165
-0.2
-0.22
-0.235
-0.2
-0.2
-0.205
-0.22
-0.225
-0.235
-0.215
-0.195
-0.195
-0.2
-0.225
-0.22
-0.23
-0.205
-0.19
-0.205
-0.215
-0.205
-0.215
-0.21
-0.205
-0.23
-0.22
-0.235
-0.22
-0.21
-0.2
-0.225
-0.23
-0.24
-0.23
-0.205
-0.215
-0.23
-0.25
-0.255
-0.24
-0.2
-0.14
-0.08
0.025
0.145
0.285
0.44
0.55
0.635
0.64
0.62
0.53
0.425
0.2
-0.115
-0.435
-0.675
-0.8
-0.825
-0.735
-0.645
-0.58
-0.51
-0.415
-0.33
-0.28
-0.265
-0.255
-0.25
-0.23
-0.205
-0.195
-0.205
-0.205
-0.19
-0.17
-0.14
-0.155
-0.155
-0.15
-0.145
-0.125
-0.1
-0.105
-0.1
-0.105
-0.095
-0.065
-0.045
-0.03
-0.035
-0.04
-0.035
-0.005
0.025
0.055
0.06
0.05
0.08
0.105
0.115
0.12
0.115
0.12
0.15
0.17
0.18
0.205
0.215
0.205
0.205
0.22
0.215
0.22
0.22
0.21
0.205
0.215
0.235
0.19
0.19
0.165
0.155
0.145
0.13
0.12
0.085
0.055
0.03
0.015
0.01
-0.015
-0.055
-0.07
-0.1
-0.095
-0.09
-0.1
-0.13
-0.15
-0.17
-0.175
-0.155
-0.165
-0.165
-0.175
-0.195
-0.18
-0.175
-0.185
-0.19
-0.195
-0.205
-0.18
-0.165
-0.175
-0.195
-0.215
-0.22
-0.195
-0.18
-0.175
-0.19
-0.205
-0.195
-0.19
-0.175
-0.165
-0.17
-0.17
-0.18
-0.165
-0.145
-0.145
-0.15
-0.145
-0.14
-0.135
-0.115
-0.11
-0.115
-0.13
-0.145
-0.14
-0.13
-0.15
-0.165
-0.19
-0.19
-0.185
-0.18
-0.17
-0.19
-0.185
-0.185
-0.19
-0.2
-0.21
-0.225
-0.245
-0.25
-0.23
-0.21
-0.225
-0.22
-0.23
-0.22
-0.22
-0.21
-0.22
-0.235
-0.25
-0.245
-0.225
-0.21
-0.23
-0.225
-0.235
-0.235
-0.23
-0.215
-0.225
-0.235
-0.24
-0.245
-0.23
-0.2
-0.205
-0.225
-0.24
-0.25
-0.225
-0.195
-0.135
-0.065
0.04
0.18
0.315
0.455
0.605
0.69
0.755
0.775
0.725
0.605
0.41
0.11
-0.23
-0.555
-0.755
-0.805
-0.75
-0.64
-0.565
-0.49
-0.4
