Lead II
0.025
0.01
0.015
0.02
0.04
0.025
0.025
0.005
0.015
0.02
0.03
0.03
0.02
0.005
0.01
0.025
0.04
0.04
0.02
0.02
0.01
0.02
0.04
0.03
0.02
0.015
0.015
0.03
0.035
0.04
0.025
0.02
0.01
0.03
0.045
0.025
0.025
0.005
0.01
0.035
0.045
0.03
0.03
0.01
0.015
0.02
0.045
0.035
0.02
0.02
0.02
0.035
0.045
0.04
0.015
0.015
0.015
0.035
0.045
0.03
0.02
0.02
0.015
0.05
0.07
0.055
0.06
0.06
0.06
0.075
0.085
0.08
0.08
0.085
0.075
0.105
0.105
0.1
0.08
0.065
0.055
0.055
0.06
0.065
0.05
0.04
0.055
0.07
0.07
0.065
0.07
0.07
0.075
0.085
0.09
0.09
0.065
0.045
0.045
0.03
0.04
0.045
0.03
0.02
0.015
0.045
0.045
0.04
0.04
0.03
0.025
0.03
0.045
0.045
0.04
0.03
0.025
0.045
0.05
0.04
0.035
0.025
0.035
0.045
0.06
0.045
0.045
0.035
0.04
0.055
0.085
0.08
0.08
0.09
0.13
0.19
0.255
0.305
0.335
0.375
0.485
0.62
0.775
0.93
1.09
1.23
1.405
1.61
1.845
2.045
2.175
2.18
2.025
1.685
1.25
0.795
0.435
0.21
0.065
0.015
0.025
0.025
0.035
0.02
0.03
0.03
0.03
-0.01
-0.035
-0.075
-0.065
-0.05
-0.04
-0.055
-0.06
-0.09
-0.09
-0.075
-0.065
-0.07
-0.085
-0.09
-0.095
-0.085
-0.065
-0.08
-0.085
-0.12
-0.11
-0.09
-0.075
-0.09
-0.1
-0.115
-0.115
-0.09
-0.085
-0.085
-0.1
-0.105
-0.12
-0.105
-0.105
-0.09
-0.105
-0.125
-0.125
-0.11
-0.1
-0.11
-0.12
-0.12
-0.12
-0.12
-0.1
-0.11
-0.105
-0.125
-0.12
-0.1
-0.1
-0.085
-0.095
-0.11
-0.095
-0.085
-0.08
-0.075
-0.09
-0.1
-0.09
-0.07
-0.065
-0.055
-0.065
-0.085
-0.06
-0.045
-0.025
-0.04
-0.04
-0.045
-0.045
-0.02
0.0
0.015
0.015
0.01
0.02
0.05
0.08
0.075
0.07
0.065
0.09
0.115
0.15
0.155
0.175
0.165
0.185
0.205
0.23
0.225
0.215
0.225
0.22
0.24
0.25
0.235
0.21
0.195
0.19
0.2
0.21
0.195
0.17
0.145
0.14
0.135
0.135
0.13
0.1
0.095
0.1
0.09
0.1
0.095
0.07
0.065
0.065
0.075
0.09
0.075
0.06
0.06
0.045
0.065
0.07
0.065
0.06
0.045
0.055
0.07
0.075
0.065
0.05
0.04
0.04
0.065
0.065
0.07
0.05
0.03
0.045
0.05
0.06
0.05
0.03
0.035
0.04
0.045
0.05
0.04
0.035
0.015
0.035
0.045
0.055
0.05
0.035
0.02
0.03
0.045
0.055
0.05
0.045
0.035
0.03
0.04
0.06
0.05
0.05
0.045
0.04
0.05
0.075
0.055
0.04
0.035
0.035
0.055
0.075
0.06
0.045
0.04
0.04
0.05
0.055
0.045
0.04
0.03
0.035
0.045
0.06
0.035
0.03
0.015
0.025
0.03
0.055
0.035
0.025
0.015
0.005
0.035
0.045
0.025
0.02
0.015
0.01
0.02
0.045
0.03
0.015
0.0
0.01
0.025
0.035
0.025
0.015
-0.01
0.015
0.035
0.04
0.025
0.02
0.015
0.0
0.025
0.045
0.035
0.025
0.025
0.02
0.025
0.03
0.03
0.01
0.005
0.03
0.025
0.04
0.035
0.03
0.005
0.015
0.035
0.04
0.04
0.02
0.025
0.025
0.035
0.05
0.04
0.04
0.025
0.04
0.045
0.055
0.055
0.03
0.03
0.045
0.06
0.065
0.055
0.05
0.035
0.045
0.06
0.07
0.06
0.045
0.04
0.05
0.05
0.07
0.065
0.055
0.05
0.055
0.06
0.055
0.065
0.035
0.05
0.045
0.065
0.09
0.07
0.06
0.04
0.055
0.07
0.085
0.11
0.1
0.095
0.09
0.105
0.115
0.11
0.105
0.105
0.115
0.125
0.13
0.125
0.1
0.075
0.085
0.09
0.1
0.095
0.075
0.08
0.075
0.1
0.11
0.1
0.1
0.105
0.1
0.12
0.125
0.105
0.085
0.07
0.07
0.085
0.075
0.07
0.05
0.05
0.055
0.065
0.08
0.075
0.07
0.045
0.065
0.06
0.065
0.06
0.055
0.045
0.045
0.065
0.075
0.065
0.05
0.05
0.045
0.065
0.08
0.08
0.06
0.055
0.055
0.075
0.1
0.1
0.105
0.11
0.145
0.2
0.25
0.295
0.345
0.385
0.46
0.57
0.705
0.85
0.975
1.12
1.285
1.43
1.61
1.795
1.995
2.15
2.185
2.08
1.835
1.41
0.95
0.555
0.28
0.14
0.07
0.045
0.065
0.06
0.08
0.09
0.085
0.06
0.04
0.0
0.0
0.0
0.01
0.02
0.005
-0.02
-0.015
-0.01
0.0
-0.01
-0.025
-0.035
-0.02
0.0
-0.005
-0.005
-0.035
-0.035
-0.025
-0.025
-0.015
-0.015
-0.03
-0.04
-0.05
-0.035
-0.025
-0.025
-0.035
-0.04
-0.03
-0.025
-0.025
-0.03
-0.045
-0.05
-0.05
-0.02
-0.005
-0.035
-0.04
-0.055
-0.05
-0.035
-0.02
-0.02
-0.035
-0.045
-0.045
-0.03
-0.01
-0.03
-0.035
-0.045
-0.025
-0.02
-0.005
-0.005
-0.015
-0.025
-0.03
-0.015
0.015
0.005
-0.005
0.0
0.005
0.02
0.025
0.025
0.02
0.03
0.045
0.065
0.08
0.075
0.065
0.065
0.085
0.12
0.15
0.16
0.16
0.16
0.185
0.21
0.235
0.25
0.265
0.275
0.285
0.3
0.32
0.32
0.305
0.295
0.3
0.3
0.32
0.305
0.28
0.255
0.245
0.24
0.26
0.24
0.205
0.19
0.175
0.18
0.185
0.165
0.155
0.13
0.125
0.15
0.14
0.135
0.125
0.12
0.115
0.14
0.15
0.125
0.105
0.095
0.11
0.13
0.13
0.14
0.11
0.095
0.11
0.115
0.125
0.135
0.1
0.085
0.09
0.11
0.11
0.1
0.1
0.09
0.08
0.1
0.105
0.095
0.085
0.075
0.09
0.095
0.1
0.09
0.09
0.07
0.085
0.085
0.11
0.1
0.085
0.07
0.075
0.08
0.1
0.095
0.09
0.085
0.095
0.11
0.12
0.1
0.09
0.085
0.09
0.095
0.105
0.11
0.095
0.085
0.095
0.105
0.115
0.115
0.085
0.09
0.08
0.09
0.1
0.09
0.09
0.075
0.08
0.09
0.09
0.08
0.06
0.045
0.07
0.09
0.09
0.075
0.06
0.055
0.075
0.08
0.095
0.09
0.065
0.055
0.06
0.065
0.07
0.055
0.045
0.05
0.05
0.075
0.075
0.055
0.055
0.04
0.04
0.06
0.08
0.07
0.06
0.055
0.06
0.065
0.07
0.06
0.055
0.04
0.045
0.055
0.07
0.055
0.045
0.035
0.045
0.065
0.085
0.07
0.06
0.06
0.05
0.05
0.07
0.07
0.055
0.05
0.045
0.075
0.07
0.07
0.05
0.045
0.045
0.055
0.065
0.07
0.055
0.025
0.045
0.055
0.075
0.065
0.05
0.045
0.04
0.065
0.065
0.06
0.045
0.045
0.045
0.07
0.065
0.065
0.055
0.04
0.045
0.055
0.065
0.07
0.05
0.06
0.075
0.09
0.095
0.1
0.085
0.09
0.11
0.12
0.13
0.12
0.105
0.11
0.115
0.115
0.115
0.09
0.08
0.06
0.07
0.1
0.11
0.105
0.095
0.09
0.1
0.11
0.125
0.105
0.09
0.09
0.09
0.1
0.085
0.065
0.04
0.035
0.055
0.065
0.075
0.075
0.05
0.04
0.05
0.055
0.065
0.07
0.045
0.04
0.035
0.055
0.07
0.05
0.055
0.04
0.05
0.06
0.07
0.055
0.05
0.035
0.055
0.065
0.085
0.075
0.075
0.065
0.095
0.135
0.16
0.19
0.235
0.295
0.335
0.41
0.505
0.625
0.81
1.015
1.265
1.5
1.715
1.88
2.015
2.115
2.16
2.025
1.65
1.065
0.47
0.05
-0.105
-0.12
-0.1
-0.09
-0.05
-0.035
-0.025
-0.025
-0.02
-0.025
-0.045
-0.05
-0.045
-0.04
-0.04
-0.035
-0.06
-0.065
-0.065
-0.04
-0.04
-0.035
-0.05
-0.06
-0.065
-0.05
-0.05
-0.055
-0.07
-0.07
-0.065
-0.06
-0.045
-0.06
-0.075
-0.085
-0.07
-0.07
-0.055
-0.08
-0.085
-0.085
-0.085
-0.065
-0.06
-0.075
-0.085
-0.085
-0.075
-0.06
-0.05
-0.055
-0.08
-0.075
-0.06
-0.045
-0.03
-0.05
-0.05
-0.05
-0.035
-0.02
-0.005
0.0
-0.015
-0.005
0.01
0.02
0.04
0.055
0.045
0.04
0.065
0.085
0.11
0.135
0.135
0.12
0.145
0.19
0.205
0.2
0.2
0.195
0.2
0.225
0.24
0.24
0.225
0.205
0.205
0.205
0.215
0.19
0.17
0.16
0.16
0.16
0.155
0.14
0.11
0.095
0.085
0.1
0.09
0.085
0.065
0.055
0.05
0.06
0.07
0.06
0.045
0.025
0.035
0.035
0.055
0.045
0.025
0.02
0.025
0.03
0.035
0.025
0.01
0.0
0.01
0.025
0.03
0.015
0.005
0.005
0.015
0.035
0.04
0.02
0.02
0.01
0.015
0.035
0.035
0.025
0.025
0.01
0.03
0.035
0.04
0.03
0.02
0.005
0.04
0.045
0.05
0.05
0.025
0.03
0.03
0.05
0.045
0.05
0.045
0.02
0.045
0.055
0.05
0.05
0.025
0.02
0.035
0.045
0.06
0.035
0.015
0.015
0.01
0.025
0.035
0.035
0.02
0.01
0.02
0.035
0.035
0.02
0.015
0.01
0.015
0.03
0.03
0.025
0.005
-0.01
-0.01
0.015
0.015
0.01
-0.005
-0.01
-0.005
0.01
0.01
0.0
-0.015
-0.015
-0.005
-0.005
0.005
-0.015
-0.025
-0.025
-0.005
0.0
0.0
-0.005
-0.03
-0.03
-0.015
-0.01
-0.005
-0.005
-0.015
-0.03
-0.01
-0.005
0.0
-0.015
-0.02
-0.025
-0.015
-0.005
0.005
-0.005
-0.02
-0.035
-0.025
-0.015
-0.01
-0.005
-0.025
-0.025
-0.015
-0.01
-0.005
-0.02
-0.025
-0.04
-0.02
-0.005
0.0
-0.015
-0.03
-0.035
-0.015
0.0
-0.005
0.0
-0.03
-0.025
-0.02
-0.015
0.0
-0.01
-0.01
-0.025
-0.01
0.0
0.005
-0.01
-0.01
-0.025
-0.02
0.005
0.005
0.0
-0.01
-0.015
-0.015
0.0
0.01
0.01
-0.005
-0.01
0.0
0.0
0.005
0.005
0.0
-0.01
0.01
0.015
0.03
0.03
0.02
0.025
0.03
0.05
0.055
0.05
0.035
0.03
0.05
0.065
0.065
0.06
0.045
0.05
0.06
0.05
0.055
0.05
0.025
0.035
0.03
0.03
0.04
0.04
0.03
0.02
0.035
0.055
0.065
0.05
0.045
0.035
0.045
0.04
0.06
0.025
-0.01
-0.015
-0.005
0.005
0.02
0.015
0.0
-0.005
0.0
0.01
0.01
0.0
-0.005
-0.01
-0.005
0.01
0.015
0.01
-0.005
-0.035
-0.025
-0.005
-0.005
0.0
-0.01
-0.01
-0.015
0.0
-0.01
0.0
-0.015
-0.01
-0.01
0.01
0.02
0.02
0.015
0.025
0.06
0.085
0.12
0.155
0.18
0.235
0.29
0.35
0.43
0.525
0.67
0.815
0.975
1.135
1.275
1.425
1.57
1.76
1.965
2.135
2.19
2.105
1.855
1.475
1.065
0.67
0.38
0.17
0.025
-0.03
-0.015
0.01
0.025
0.015
-0.015
-0.025
-0.025
-0.02
-0.025
-0.04
-0.085
-0.09
-0.08
-0.075
-0.065
-0.095
-0.1
-0.1
-0.1
-0.095
-0.08
-0.095
-0.095
-0.105
-0.1
-0.08
-0.075
-0.095
-0.1
-0.12
-0.1
-0.095
-0.1
-0.11
-0.125
-0.12
-0.11
-0.09
-0.09
-0.115
-0.13
-0.125
-0.125
-0.11
-0.105
-0.115
-0.12
-0.13
-0.125
-0.11
-0.105
-0.12
-0.125
-0.135
-0.115
-0.11
-0.095
-0.11
-0.125
-0.12
-0.125
-0.115
-0.095
-0.1
-0.11
-0.11
-0.1
-0.09
-0.07
-0.095
-0.115
-0.115
-0.105
-0.085
-0.075
-0.08
-0.095
-0.1
-0.095
-0.075
-0.065
-0.07
-0.08
-0.075
-0.055
-0.04
-0.03
-0.045
-0.045
-0.045
-0.01
0.005
0.01
0.02
0.025
0.015
0.04
0.07
0.075
0.08
0.08
0.09
0.13
0.135
0.165
0.165
0.16
0.165
0.18
0.21
0.235
0.23
0.24
0.235
0.255
0.28
0.275
0.285
0.265
0.245
0.24
0.245
0.245
0.235
0.215
0.205
0.2
0.205
0.195
0.165
0.14
0.135
0.135
0.135
0.14
0.115
0.1
0.08
0.095
0.1
0.1
0.09
0.08
0.07
0.07
0.08
0.085
0.065
0.05
0.06
0.065
0.07
0.08
0.07
0.065
0.045
0.055
0.07
0.075
0.07
0.05
0.045
0.05
0.065
0.07
0.055
0.04
0.045
0.05
0.06
0.055
0.045
0.045
0.03
0.03
0.055
0.055
0.05
0.04
0.045
0.04
0.04
0.05
0.035
0.01
0.03
0.045
0.06
0.055
0.04
0.03
0.015
0.03
0.03
0.045
0.035
0.025
0.035
0.035
0.04
0.04
0.035
0.015
0.015
0.035
0.035
0.055
0.035
0.025
0.04
0.04
0.055
0.06
0.055
0.04
0.045
0.045
0.045
0.045
0.03
0.03
0.025
0.04
0.045
0.05
0.045
0.03
0.015
0.025
0.055
0.055
0.045
0.025
0.02
0.025
0.045
0.035
0.04
0.025
0.015
0.035
0.045
0.055
0.025
0.01
0.005
0.01
0.015
0.025
0.025
0.02
0.0
0.015
0.025
0.045
0.02
0.015
0.01
0.015
0.04
0.03
0.02
0.03
0.01
0.03
0.025
0.025
0.015
0.0
-0.01
0.015
0.045
0.035
0.04
0.01
0.01
0.015
0.025
0.04
0.03
0.015
0.02
0.025
0.035
0.035
0.035
0.015
0.025
0.03
0.03
0.03
0.035
0.03
0.025
0.035
0.05
0.04
0.035
0.02
0.03
0.045
0.055
0.065
0.05
0.03
0.035
0.035
0.05
0.06
0.05
0.025
0.02
0.03
0.045
0.055
0.045
0.055
0.05
0.055
0.055
0.06
0.055
0.05
0.05
0.055
0.075
0.08
0.07
0.065
0.07
0.08
0.095
0.1
0.11
0.08
0.085
0.105
0.12
0.135
0.11
0.1
0.085
0.095
0.105
0.105
0.095
0.07
0.075
0.085
0.115
0.105
0.11
0.1
0.11
0.115
0.13
0.11
0.12
0.09
0.075
0.08
0.085
0.09
0.075
0.07
0.06
0.065
0.07
0.085
0.075
0.06
0.065
0.075
0.085
0.085
0.075
0.065
0.06
0.075
0.085
0.095
0.075
0.06
0.06
0.075
0.095
0.09
0.07
0.08
0.075
0.08
0.105
0.105
0.1
0.09
0.08
0.09
0.115
0.13
0.135
0.13
0.17
0.21
0.265
0.33
0.37
0.39
0.46
0.565
0.705
0.85
1.0
1.13
1.27
1.425
1.585
1.77
1.96
2.105
2.165
2.105
1.88
1.495
1.04
0.675
0.4
0.225
0.13
0.09
0.085
0.07
0.07
0.09
0.095
0.08
0.06
0.025
0.015
0.005
0.015
0.005
-0.015
-0.035
-0.03
-0.03
-0.025
-0.015
-0.025
-0.05
-0.035
-0.035
-0.015
-0.02
-0.035
-0.05
-0.055
-0.04
-0.02
-0.03
-0.035
-0.05
-0.055
-0.055
-0.03
-0.04
-0.055
-0.065
-0.075
-0.06
-0.045
-0.065
-0.065
-0.085
-0.085
-0.075
-0.06
-0.06
-0.07
-0.085
-0.095
-0.09
-0.07
-0.08
-0.08
-0.09
-0.08
-0.085
-0.06
-0.065
-0.075
-0.095
-0.09
-0.07
-0.06
-0.055
-0.065
-0.075
-0.08
-0.07
-0.055
-0.04
-0.05
-0.055
-0.055
-0.05
-0.025
-0.025
-0.04
-0.035
-0.035
-0.005
0.02
0.015
0.025
0.015
0.025
0.045
0.06
0.065
0.08
0.085
0.085
0.115
0.145
0.155
0.15
0.175
0.185
0.215
0.235
0.245
0.245
0.245
0.265
0.265
0.29
0.285
0.265
0.255
0.25
0.245
0.26
0.24
0.225
0.215
0.19
0.185
0.195
0.175
0.17
0.15
0.14
0.14
0.15
0.15
0.125
0.105
0.1
0.105
0.12
0.12
0.12
0.095
0.085
0.1
0.105
0.105
0.1
0.085
0.085
0.1
0.105
0.11
0.09
0.08
0.06
0.09
0.105
0.105
0.09
0.065
0.07
0.075
0.105
0.1
0.085
0.065
0.075
0.075
0.085
0.085
0.08
0.06
0.07
0.08
0.085
0.08
0.075
0.06
0.065
0.065
0.08
0.09
0.085
0.08
0.075
0.085
0.1
0.085
0.085
0.07
0.07
0.095
0.1
0.09
0.1
0.085
0.09
0.095
0.11
0.105
0.105
0.085
0.09
0.09
0.1
0.1
0.095
0.095
0.09
0.095
0.095
0.1
0.085
0.085
0.075
0.085
0.1
0.105
0.085
0.075
0.065
0.08
0.105
0.085
0.09
0.06
0.065
0.07
0.095
0.09
0.085
0.07
0.065
0.075
0.08
0.085
0.065
0.055
0.065
0.075
0.08
0.085
0.085
0.065
0.07
0.075
0.08
0.08
0.075
0.07
0.07
0.085
0.095
0.095
0.09
0.075
0.08
0.095
0.085
0.095
0.09
0.075
0.07
0.09
0.11
0.115
0.11
0.09
0.07
0.095
0.105
0.1
0.095
0.09
0.085
0.1
0.105
0.11
0.1
0.09
0.085
0.105
0.135
0.12
0.115
0.105
0.095
0.11
0.13
0.125
0.115
0.1
0.12
0.125
0.13
0.125
0.12
0.1
0.095
0.105
0.13
0.125
0.12
0.1
0.11
0.135
0.15
0.15
0.14
0.145
0.14
0.15
0.145
0.155
0.155
0.16
0.155
0.18
0.175
0.195
0.185
0.175
0.175
0.19
0.215
0.205
0.2
0.185
0.2
0.185
0.19
0.19
0.17
0.165
0.165
0.17
0.195
0.2
0.205
0.195
0.2
0.2
0.195
0.21
0.2
0.18
0.165
0.17
0.175
0.17
0.18
0.16
0.165
0.165
0.18
0.175
0.17
0.155
0.15
0.16
0.17
0.165
0.165
0.155
0.17
0.18
0.19
0.175
0.165
0.16
0.16
0.17
0.195
0.195
0.19
0.17
0.175
0.195
0.22
0.245
0.245
0.265
0.3
0.37
0.46
0.52
0.585
0.69
0.835
1.05
1.24
1.415
1.57
1.75
2.0
2.255
2.365
2.195
1.69
1.05
0.545
0.27
0.215
0.225
0.22
0.195
0.175
0.17
0.165
0.165
0.135
0.115
0.105
0.125
0.125
0.105
0.095
0.075
0.07
0.09
0.1
0.1
0.09
0.07
0.06
0.095
0.09
0.08
0.075
0.075
0.075
0.085
0.09
0.075
0.055
0.045
0.05
0.065
0.07
0.07
0.07
0.04
0.04
0.04
0.04
0.035
0.04
0.03
0.04
0.05
0.055
0.065
0.05
0.04
0.045
0.045
0.07
0.05
0.045
0.03
0.02
0.035
0.055
0.06
0.045
0.03
0.04
0.05
0.065
0.06
0.06
0.045
0.045
0.07
0.09
0.085
0.09
0.075
0.075
0.095
0.1
0.09
0.095
0.08
0.1
0.12
0.145
0.15
0.155
0.15
0.16
0.195
0.225
0.23
0.23
0.225
0.25
0.28
0.315
0.315
0.325
0.355
0.36
0.39
0.41
0.39
0.39
0.39
0.405
0.425
0.425
0.43
0.41
0.39
0.38
0.39
0.385
0.38
0.36
0.335
0.32
0.325
0.335
0.3
0.28
0.25
0.26
0.255
0.28
0.28
0.255
0.235
0.22
0.235
0.255
0.245
0.245
0.225
0.225
0.225
0.235
0.225
0.215
0.21
0.2
0.23
0.22
0.225
0.22
0.195
0.2
0.195
0.22
0.21
0.205
0.195
0.18
0.18
0.195
0.19
0.18
0.175
0.165
0.18
0.19
0.18
0.16
0.15
0.155
0.16
0.165
0.165
0.15
0.13
0.135
0.15
0.175
0.155
0.155
0.14
0.14
0.155
0.165
0.16
0.15
0.13
0.14
0.155
0.165
0.155
0.14
0.135
0.135
0.145
0.17
0.165
0.155
0.14
0.145
0.15
0.155
0.145
0.135
0.125
0.135
0.135
0.15
0.14
0.135
0.115
0.125
0.14
0.155
0.15
0.145
0.12
0.12
0.125
0.125
0.135
0.125
0.11
0.11
0.12
0.13
0.13
0.12
0.11
0.11
0.125
0.135
0.125
0.12
0.09
0.11
0.11
0.12
0.11
0.095
0.09
0.09
0.085
0.1
0.1
0.095
0.09
0.09
0.1
0.11
0.1
0.08
0.065
0.09
0.1
0.105
0.1
0.095
0.065
0.075
0.08
0.105
0.09
0.085
0.09
0.07
0.095
0.09
0.095
0.085
0.075
0.075
0.08
0.095
0.08
0.075
0.07
0.065
0.09
0.11
0.1
0.075
0.065
0.065
0.07
0.095
0.095
0.075
0.07
0.08
0.085
0.095
0.095
0.08
0.075
0.075
0.085
0.1
0.1
0.07
0.07
0.075
0.085
0.1
0.11
0.115
0.095
0.11
0.135
0.14
0.15
0.15
0.13
0.13
0.145
0.165
0.15
0.145
0.12
0.12
0.125
0.13
0.125
0.11
0.1
0.115
0.11
0.135
0.125
0.125
0.105
0.115
0.125
0.145
0.135
0.11
0.09
0.095
0.085
0.09
0.09
0.07
0.06
0.07
0.09
0.095
0.095
0.075
0.065
0.065
0.065
0.095
0.08
0.075
0.055
0.065
0.065
0.08
0.065
0.06
0.05
0.06
0.065
0.075
0.065
0.05
0.05
0.05
0.07
0.105
0.095
0.095
0.09
0.115
0.15
0.2
0.23
0.29
0.325
0.37
0.435
0.55
0.665
0.815
0.955
1.12
1.295
1.46
1.615
1.795
1.995
2.21
2.335
2.335
2.14
1.75
1.26
0.84
0.53
0.32
0.19
0.1
0.06
0.075
0.07
0.075
0.06
0.04
0.02
0.015
-0.01
0.0
-0.02
-0.035
-0.05
-0.055
-0.04
-0.045
-0.04
-0.06
-0.075
-0.07
-0.065
-0.055
-0.065
-0.085
-0.09
-0.085
-0.07
-0.05
-0.075
-0.08
-0.105
-0.1
-0.09
-0.085
-0.09
-0.095
-0.105
-0.1
-0.105
-0.09
-0.095
-0.095
-0.105
-0.11
-0.095
-0.08
-0.095
-0.11
-0.115
-0.11
-0.115
-0.09
-0.095
-0.105
-0.115
-0.11
-0.11
-0.095
-0.09
-0.1
-0.1
-0.105
-0.09
-0.07
-0.08
-0.08
-0.105
-0.085
-0.065
-0.055
-0.045
-0.06
-0.075
-0.07
-0.045
-0.04
-0.03
-0.025
-0.03
-0.025
0.005
0.01
0.03
0.03
0.03
0.055
0.075
0.105
0.105
0.12
0.13
0.15
0.17
0.195
0.22
0.24
0.235
0.245
0.27
0.295
0.295
0.295
0.295
0.295
0.315
0.325
0.315
0.3
0.27
0.26
0.265
0.27
0.25
0.23
0.195
0.19
0.195
0.19
0.165
0.15
0.13
0.14
0.13
0.14
0.125
0.125
0.105
0.1
0.12
0.11
0.1
0.1
0.09
0.08
0.095
0.115
0.1
0.09
0.075
0.075
0.085
0.095
0.1
0.09
0.07
0.065
0.065
0.08
0.08
0.07
0.065
0.07
0.075
0.08
0.075
0.055
0.05
0.055
0.07
0.08
0.075
0.055
0.05
0.055
0.065
0.07
0.08
0.065
0.045
0.065
0.07
0.075
0.08
0.06
0.05
0.06
0.08
0.085
0.08
0.075
0.07
0.075
0.07
0.1
0.08
0.075
0.06
0.075
0.07
0.08
0.07
0.065
0.055
0.05
0.065
0.075
0.07
0.065
0.04
0.05
0.065
0.09
0.07
0.065
0.04
0.04
0.05
0.065
0.06
0.05
0.04
0.03
0.04
0.05
0.05
0.03
0.025
0.035
0.05
0.045
0.04
0.03
0.01
0.01
0.03
0.035
0.035
0.01
0.01
0.02
0.015
0.04
0.01
0.01
0.005
0.01
0.015
0.025
0.025
0.025
0.005
0.01
0.025
0.04
0.03
0.015
0.0
0.01
0.04
0.04
0.035
0.04
0.025
0.02
0.035
0.045
0.045
0.035
0.025
0.025
0.045
0.05
0.04
0.035
0.04
0.03
0.045
0.04
0.055
0.05
0.035
0.045
0.05
0.06
0.045
0.05
0.04
0.05
0.05
0.065
0.05
0.045
0.025
0.04
0.055
0.09
0.075
0.06
0.04
0.04
0.055
0.075
0.055
0.06
0.045
0.055
0.065
0.08
0.07
0.05
0.045
0.05
0.075
0.08
0.085
0.08
0.08
0.08
0.1
0.125
0.12
0.11
0.115
0.115
0.13
0.155
0.15
0.135
0.125
0.135
0.13
0.135
0.125
0.11
0.09
0.09
0.11
0.13
0.13
0.13
0.115
0.115
0.125
0.14
0.13
0.125
0.115
0.12
0.11
0.115
0.11
0.08
0.065
0.065
0.075
0.095
0.105
0.085
0.06
0.06
0.095
0.095
0.09
0.085
0.08
0.09
0.085
0.09
0.075
0.08
0.075
0.085
0.095
0.1
0.1
0.075
0.075
0.07
0.095
0.1
0.105
0.085
0.075
0.095
0.115
0.155
0.195
0.23
0.265
0.32
0.4
0.48
0.575
0.71
0.865
1.04
1.2
1.345
1.475
1.635
1.815
2.005
2.145
2.155
2.01
1.67
1.22
0.77
0.42
0.215
0.1
0.08
0.085
0.085
0.085
0.085
0.07
0.055
0.03
0.025
0.03
0.03
0.005
-0.025
-0.04
-0.035
-0.02
-0.015
-0.02
-0.04
-0.05
-0.03
-0.02
-0.01
-0.015
-0.04
-0.04
-0.035
-0.03
-0.025
-0.055
-0.06
-0.06
-0.055
-0.05
-0.025
-0.035
-0.06
-0.09
-0.09
-0.075
-0.065
-0.065
-0.07
-0.075
-0.08
-0.07
-0.055
-0.065
-0.08
-0.09
-0.085
-0.085
-0.06
-0.07
-0.075
-0.08
-0.09
-0.08
-0.07
-0.065
-0.065
-0.075
-0.05
-0.065
-0.06
-0.07
-0.075
-0.085
-0.07
-0.04
-0.03
-0.045
-0.05
-0.05
-0.035
-0.015
0.005
0.0
0.015
0.025
0.035
0.05
0.085
0.075
0.095
0.09
0.105
0.14
0.17
0.175
0.185
0.21
0.21
0.25
0.27
0.29
0.28
0.28
0.26
0.28
0.29
0.285
0.28
0.275
0.26
0.245
0.245
0.215
0.19
0.165
0.175
0.185
0.18
0.155
0.125
0.11
0.105
0.11
0.12
0.125
0.105
0.085
0.075
0.095
0.11
0.115
0.08
0.08
0.08
0.09
0.09
0.09
0.09
0.07
0.065
0.08
0.08
0.08
0.06
0.06
0.05
0.07
0.065
0.065
0.06
0.04
0.035
0.045
0.045
0.045
0.03
0.015
0.02
0.04
0.035
0.025
0.02
0.0
0.0
0.025
0.035
0.03
0.01
0.01
0.01
0.015
0.03
0.03
0.02
0.01
0.005
0.01
0.025
0.005
0.01
0.01
0.01
0.03
0.04
0.025
0.015
0.01
0.015
0.02
0.035
0.025
0.005
-0.01
-0.005
0.02
0.015
0.005
-0.015
-0.02
-0.01
0.005
0.02
0.0
-0.015
-0.02
-0.01
-0.01
-0.005
0.0
-0.02
-0.025
-0.03
-0.02
-0.01
-0.005
-0.01
-0.025
-0.03
-0.015
0.0
0.005
-0.01
-0.035
-0.035
-0.025
-0.015
-0.01
-0.03
-0.025
-0.015
-0.015
0.0
-0.015
-0.02
-0.045
-0.03
-0.02
-0.005
-0.015
-0.025
-0.035
-0.03
-0.02
-0.005
-0.01
-0.03
-0.035
-0.04
-0.03
-0.02
-0.015
-0.025
-0.04
-0.035
-0.015
-0.025
-0.02
-0.035
-0.035
-0.03
-0.015
-0.01
-0.02
-0.035
-0.05
-0.025
-0.02
-0.005
-0.02
-0.025
-0.03
-0.04
-0.025
-0.01
-0.02
-0.02
-0.035
-0.02
-0.015
-0.005
-0.01
-0.01
-0.01
0.005
0.015
0.03
0.015
0.03
0.025
0.02
0.035
0.05
0.04
0.035
0.01
0.01
0.025
0.015
0.005
0.01
-0.01
-0.01
0.02
0.02
0.015
0.015
0.01
0.03
0.04
0.05
0.025
0.015
0.01
0.0
0.0
0.0
-0.015
-0.02
-0.035
-0.02
-0.02
0.0
0.01
-0.01
-0.015
-0.02
0.0
0.015
0.02
0.015
0.04
0.075
0.15
0.26
0.365
0.5
0.61
0.695
0.74
0.705
0.575
0.41
0.185
-0.12
-0.445
-0.815
-1.29
-1.745
-1.99
-2.045
-2.105
-2.135
-2.175
-2.115
-2.035
-1.865
-1.685
-1.47
-1.285
-1.135
-1.0
-0.85
-0.72
-0.605
-0.5
-0.405
-0.33
-0.235
-0.155
-0.08
-0.055
-0.01
0.01
0.045
0.09
0.12
0.125
0.13
0.135
0.14
0.18
0.19
0.195
0.19
0.185
0.205
0.21
0.23
0.225
0.22
0.22
0.22
0.25
0.27
0.265
0.245
0.245
0.255
0.275
0.295
0.29
0.29
0.295
0.3
0.32
0.33
0.33
0.335
0.335
0.34
0.365
0.38
0.4
0.4
0.39
0.41
0.44
0.47
0.47
0.475
0.49
0.5
0.53
0.56
0.57
0.58
0.595
0.615
0.645
0.705
0.71
0.725
0.73
0.77
0.81
0.85
0.87
0.9
0.905
0.935
0.985
1.015
1.05
1.07
1.08
1.105
1.14
1.17
1.18
1.18
1.18
1.19
1.21
1.23
1.215
1.18
1.165
1.15
1.155
1.145
1.12
1.07
1.035
1.01
0.98
0.96
0.905
0.855
0.81
0.765
0.745
0.71
0.645
0.6
0.545
0.515
0.48
0.465
0.415
0.36
0.325
0.3
0.28
0.27
0.23
0.215
0.175
0.175
0.17
0.16
0.15
0.125
0.11
0.1
0.105
0.11
0.095
0.075
0.06
0.07
0.065
0.075
0.065
0.06
0.045
0.05
0.06
0.06
0.065
0.035
0.03
0.04
0.055
0.075
0.06
0.05
0.04
0.045
0.055
0.06
0.055
0.05
0.05
0.06
0.07
0.06
0.055
0.05
0.06
0.05
0.06
0.065
0.055
0.045
0.03
0.035
0.06
0.07
0.065
0.06
0.04
0.045
0.06
0.065
0.055
0.04
0.035
0.03
0.05
0.06
0.055
0.025
0.015
0.025
0.03
0.045
0.03
0.02
0.01
0.02
0.025
0.035
0.03
0.005
-0.01
0.005
0.015
0.02
0.015
-0.005
-0.02
-0.015
-0.015
0.01
0.0
-0.015
-0.02
-0.03
-0.01
-0.01
-0.025
-0.03
-0.05
-0.025
-0.025
-0.01
-0.02
-0.035
-0.055
-0.05
-0.04
-0.035
-0.025
-0.035
-0.055
-0.04
-0.03
-0.035
-0.025
-0.035
-0.05
-0.04
-0.025
-0.015
-0.02
-0.035
-0.05
-0.045
-0.05
-0.015
-0.035
-0.04
-0.04
-0.03
-0.02
-0.01
-0.025
-0.04
-0.045
-0.045
-0.025
-0.015
-0.025
-0.035
-0.04
-0.03
-0.02
-0.01
-0.03
-0.04
-0.055
-0.035
-0.015
0.0
-0.01
-0.035
