Lead II
-0.45
-0.445
-0.45
-0.475
-0.475
-0.485
-0.495
-0.47
-0.465
-0.45
-0.465
-0.465
-0.475
-0.46
-0.45
-0.45
-0.47
-0.5
-0.51
-0.485
-0.48
-0.485
-0.5
-0.515
-0.52
-0.52
-0.515
-0.515
-0.53
-0.54
-0.535
-0.54
-0.52
-0.51
-0.51
-0.525
-0.545
-0.52
-0.535
-0.525
-0.53
-0.56
-0.55
-0.545
-0.54
-0.55
-0.56
-0.58
-0.575
-0.59
-0.575
-0.58
-0.58
-0.6
-0.615
-0.6
-0.595
-0.6
-0.605
-0.615
-0.615
-0.595
-0.585
-0.58
-0.585
-0.6
-0.6
-0.59
-0.575
-0.565
-0.58
-0.595
-0.59
-0.595
-0.58
-0.58
-0.595
-0.615
-0.615
-0.605
-0.605
-0.605
-0.595
-0.6
-0.605
-0.595
-0.57
-0.57
-0.58
-0.6
-0.605
-0.585
-0.575
-0.59
-0.59
-0.605
-0.625
-0.605
-0.595
-0.595
-0.6
-0.61
-0.62
-0.595
-0.58
-0.585
-0.585
-0.6
-0.6
-0.575
-0.56
-0.565
-0.585
-0.58
-0.565
-0.55
-0.525
-0.5
-0.495
-0.46
-0.37
-0.165
0.195
0.69
1.04
1.015
0.77
0.555
0.445
0.395
0.31
0.215
0.11
0.035
-0.04
-0.115
-0.245
-0.34
-0.445
-0.525
-0.6
-0.725
-0.85
-0.99
-1.115
-1.22
-1.35
-1.46
-1.58
-1.67
-1.755
-1.815
-1.865
-1.91
-1.965
-1.99
-2.015
-2.0
-1.98
-1.96
-1.94
-1.93
-1.885
-1.825
-1.715
-1.635
-1.545
-1.425
-1.31
-1.205
-1.125
-1.09
-1.06
-1.03
-0.97
-0.905
-0.835
-0.78
-0.74
-0.695
-0.655
-0.6
-0.545
-0.51
-0.48
-0.45
-0.425
-0.385
-0.35
-0.32
-0.32
-0.315
-0.32
-0.305
-0.28
-0.265
-0.275
-0.28
-0.285
-0.26
-0.23
-0.23
-0.25
-0.25
-0.255
-0.235
-0.205
-0.19
-0.195
-0.205
-0.205
-0.18
-0.155
-0.135
-0.125
-0.14
-0.13
-0.09
-0.06
-0.06
-0.04
-0.035
-0.02
0.015
0.02
0.05
0.075
0.075
0.09
0.125
0.14
0.17
0.19
0.2
0.22
0.25
0.285
0.32
0.34
0.35
0.385
0.41
0.445
0.465
0.47
0.49
0.505
0.53
0.545
0.55
0.56
0.55
0.56
0.57
0.575
0.58
0.56
0.545
0.535
0.53
0.525
0.49
0.45
0.425
0.405
0.375
0.37
0.325
0.28
0.225
0.195
0.155
0.12
0.075
0.03
-0.015
-0.075
-0.095
-0.11
-0.16
-0.19
-0.225
-0.25
-0.275
-0.285
-0.315
-0.34
-0.37
-0.375
-0.375
-0.39
-0.395
-0.41
-0.42
-0.425
-0.425
-0.415
-0.415
-0.44
-0.45
-0.445
-0.435
-0.435
-0.435
-0.445
-0.46
-0.46
-0.46
-0.46
-0.455
-0.47
-0.475
-0.48
-0.47
-0.455
-0.465
-0.475
-0.475
-0.49
-0.47
-0.475
-0.46
-0.47
-0.48
-0.495
-0.48
-0.47
-0.465
-0.485
-0.5
-0.51
-0.5
-0.485
-0.5
-0.5
-0.51
-0.53
-0.515
-0.505
-0.505
-0.485
-0.49
-0.485
-0.465
-0.45
-0.46
-0.46
-0.49
-0.475
-0.475
-0.475
-0.46
-0.46
-0.485
-0.475
-0.47
-0.455
-0.46
-0.475
-0.495
-0.485
-0.48
-0.465
-0.48
-0.49
-0.5
-0.51
-0.49
-0.475
-0.47
-0.49
-0.5
-0.505
-0.495
-0.48
-0.48
-0.495
-0.5
-0.495
-0.5
-0.475
-0.49
-0.5
-0.51
-0.525
-0.505
-0.5
-0.515
-0.53
-0.53
-0.53
-0.495
-0.48
-0.47
-0.475
-0.48
-0.485
-0.475
-0.46
-0.465
-0.465
-0.47
-0.465
-0.45
-0.45
-0.45
-0.455
-0.47
-0.46
-0.44
-0.43
-0.435
-0.455
-0.455
-0.455
-0.44
-0.44
-0.43
-0.435
-0.45
-0.44
-0.43
-0.405
-0.395
-0.385
-0.37
-0.35
-0.315
-0.25
-0.15
0.065
0.48
0.975
1.27
1.195
0.915
0.71
0.58
0.51
0.46
0.375
0.29
0.2
0.11
0.01
-0.07
-0.16
-0.275
-0.395
-0.495
-0.6
-0.68
-0.77
-0.875
-1.015
-1.155
-1.25
-1.345
-1.42
-1.495
-1.58
-1.665
-1.7
-1.725
-1.72
-1.725
-1.7
-1.67
-1.64
-1.6
-1.545
-1.475
-1.39
-1.315
-1.165
-1.06
-0.95
-0.905
-0.895
-0.905
-0.88
-0.835
-0.79
-0.72
-0.7
-0.65
-0.59
-0.545
-0.46
-0.405
-0.35
-0.32
-0.275
-0.215
-0.17
-0.145
-0.135
-0.13
-0.105
-0.09
-0.045
-0.05
-0.05
-0.05
-0.06
-0.03
-0.01
-0.01
-0.005
-0.01
-0.005
0.0
0.03
0.04
0.03
0.055
0.055
0.085
0.11
0.11
0.11
0.095
0.12
0.135
0.17
0.175
0.175
0.17
0.175
0.205
0.23
0.245
0.24
0.255
0.27
0.285
0.33
0.35
0.37
0.375
0.395
0.43
0.455
0.48
0.5
0.51
0.525
0.555
0.585
0.595
0.615
0.61
0.61
0.64
0.67
0.685
0.675
0.665
0.67
0.685
0.705
0.69
0.68
0.65
0.65
0.64
0.645
0.625
0.585
0.53
0.51
0.5
0.475
0.46
0.405
0.355
0.31
0.25
0.24
0.22
0.165
0.115
0.075
0.055
0.03
0.005
-0.035
-0.095
-0.105
-0.12
-0.125
-0.145
-0.165
-0.2
-0.22
-0.215
-0.205
-0.225
-0.235
-0.245
-0.25
-0.26
-0.255
-0.255
-0.265
-0.28
-0.295
-0.275
-0.265
-0.26
-0.265
-0.275
-0.27
-0.27
-0.24
-0.235
-0.24
-0.26
-0.265
-0.26
-0.255
-0.265
-0.28
-0.295
-0.305
-0.28
-0.26
-0.27
-0.295
-0.305
-0.305
-0.295
-0.285
-0.3
-0.31
-0.32
-0.325
-0.31
-0.3
-0.31
-0.31
-0.32
-0.33
-0.315
-0.32
-0.315
-0.315
-0.335
-0.35
-0.335
-0.315
-0.32
-0.345
-0.35
-0.345
-0.325
-0.305
-0.3
-0.31
-0.325
-0.33
-0.305
-0.31
-0.305
-0.32
-0.35
-0.34
-0.345
-0.34
-0.35
-0.36
-0.37
-0.37
-0.365
-0.36
-0.35
-0.36
-0.385
-0.365
-0.37
-0.365
-0.345
-0.35
-0.365
-0.365
-0.36
-0.335
-0.34
-0.34
-0.35
-0.35
-0.345
-0.34
-0.33
-0.335
-0.33
-0.325
-0.31
-0.3
-0.295
-0.3
-0.32
-0.31
-0.315
-0.3
-0.285
-0.295
-0.31
-0.32
-0.325
-0.315
-0.33
-0.32
-0.34
-0.335
-0.335
-0.32
-0.325
-0.32
-0.31
-0.3
-0.245
-0.16
-0.005
0.32
0.8
1.19
1.27
1.05
0.785
0.635
0.56
0.485
0.42
0.34
0.235
0.11
0.0
-0.125
-0.23
-0.34
-0.435
-0.57
-0.715
-0.825
-0.965
-1.07
-1.215
-1.34
-1.42
-1.495
-1.56
-1.595
-1.655
-1.695
-1.72
-1.73
-1.72
-1.675
-1.635
-1.59
-1.565
-1.445
-1.305
-1.165
-1.035
-0.945
-0.91
-0.89
-0.865
-0.81
-0.775
-0.73
-0.68
-0.615
-0.55
-0.49
-0.43
-0.395
-0.325
-0.275
-0.21
-0.14
-0.125
-0.095
-0.075
-0.06
-0.04
-0.025
0.0
-0.01
-0.025
-0.02
0.005
0.03
0.045
0.03
0.02
0.01
0.04
0.055
0.055
0.05
0.055
0.045
0.07
0.085
0.1
0.11
0.12
0.135
0.16
0.2
0.225
0.225
0.23
0.25
0.28
0.305
0.31
0.31
0.32
0.355
0.38
0.41
0.44
0.45
0.46
0.495
0.535
0.565
0.59
0.605
0.615
0.64
0.66
0.695
0.7
0.71
0.71
0.71
0.725
0.745
0.75
0.745
0.73
0.735
0.74
0.72
0.72
0.685
0.63
0.63
0.6
0.59
0.565
0.52
0.48
0.455
0.435
0.39
0.35
0.31
0.26
0.225
0.2
0.175
0.14
0.09
0.045
-0.005
-0.02
-0.035
-0.045
-0.09
-0.12
-0.145
-0.15
-0.15
-0.175
-0.2
-0.235
-0.235
-0.225
-0.22
-0.24
-0.235
-0.255
-0.25
-0.245
-0.235
-0.235
-0.245
-0.24
-0.23
-0.225
-0.2
-0.2
-0.21
-0.22
-0.225
-0.215
-0.225
-0.2
-0.225
-0.24
-0.255
-0.235
-0.245
-0.22
-0.24
-0.26
-0.28
-0.265
-0.25
-0.255
-0.265
-0.275
-0.29
-0.295
-0.285
-0.3
-0.315
-0.335
-0.345
-0.34
-0.34
-0.345
-0.34
-0.35
-0.34
-0.32
-0.315
-0.3
-0.295
-0.29
-0.315
-0.3
-0.285
-0.305
-0.305
-0.315
-0.325
-0.32
-0.305
-0.31
-0.305
-0.325
-0.335
-0.325
-0.31
-0.31
-0.32
-0.35
-0.335
-0.325
-0.32
-0.33
-0.33
-0.34
-0.345
-0.34
-0.32
-0.33
-0.34
-0.355
-0.355
-0.355
-0.345
-0.34
-0.37
-0.375
-0.37
-0.365
-0.365
-0.355
-0.37
-0.38
-0.38
-0.355
-0.335
-0.325
-0.33
-0.325
-0.325
-0.315
-0.305
-0.315
-0.31
-0.31
-0.315
-0.31
-0.295
-0.3
-0.305
-0.325
-0.33
-0.33
-0.295
-0.305
-0.315
-0.34
-0.335
-0.315
-0.31
-0.305
-0.315
-0.33
-0.325
-0.31
-0.3
-0.285
-0.29
-0.3
-0.295
-0.26
-0.245
-0.205
-0.155
-0.025
0.255
0.705
1.14
1.31
1.175
0.935
0.74
0.675
0.64
0.575
0.485
0.38
0.295
0.205
0.12
0.015
-0.11
-0.21
-0.335
-0.44
-0.55
-0.675
-0.82
-0.94
-1.055
-1.155
-1.25
-1.325
-1.4
-1.455
-1.495
-1.485
-1.44
-1.405
-1.34
-1.295
-1.24
-1.16
-1.08
-1.03
-1.0
-0.97
-0.92
-0.845
-0.74
-0.61
-0.48
-0.385
-0.315
-0.265
-0.195
-0.17
-0.17
-0.175
-0.165
-0.135
-0.135
-0.14
-0.145
-0.16
-0.155
-0.135
-0.125
-0.13
-0.14
-0.145
-0.145
-0.15
-0.145
-0.14
-0.165
-0.16
-0.15
-0.16
-0.125
-0.125
-0.145
-0.15
-0.145
-0.14
-0.13
-0.105
-0.105
-0.125
-0.12
-0.105
-0.08
-0.105
-0.11
-0.12
-0.115
-0.08
-0.055
-0.05
-0.05
-0.045
-0.035
-0.01
0.01
0.025
0.035
0.05
0.04
0.085
0.1
0.105
0.09
0.115
0.11
0.15
0.16
0.175
0.175
0.155
0.135
0.155
0.165
0.18
0.16
0.15
0.13
0.14
0.135
0.11
0.075
0.05
0.03
0.02
0.005
-0.03
-0.06
-0.09
-0.105
-0.135
-0.14
-0.155
-0.18
-0.205
-0.22
-0.235
-0.235
-0.26
-0.275
-0.295
-0.305
-0.305
-0.29
-0.285
-0.3
-0.32
-0.325
-0.33
-0.32
-0.33
-0.34
-0.37
-0.375
-0.375
-0.365
-0.355
-0.375
-0.385
-0.39
-0.38
-0.37
-0.38
-0.39
-0.4
-0.41
-0.405
-0.39
-0.395
-0.405
-0.415
-0.425
-0.415
-0.395
-0.41
-0.415
-0.435
-0.435
-0.435
-0.43
-0.425
-0.435
-0.445
-0.445
-0.435
-0.435
-0.43
-0.435
-0.455
-0.455
-0.435
-0.43
-0.41
-0.42
-0.43
-0.435
-0.43
-0.415
-0.41
-0.42
-0.445
-0.44
-0.435
-0.415
-0.425
-0.445
-0.45
-0.455
-0.445
-0.435
-0.455
-0.47
-0.48
-0.485
-0.475
-0.47
-0.465
-0.475
-0.495
-0.49
-0.475
-0.465
-0.46
-0.49
-0.5
-0.505
-0.485
-0.475
-0.475
-0.475
-0.485
-0.48
-0.48
-0.45
-0.465
-0.48
-0.49
-0.49
-0.465
-0.45
-0.455
-0.455
-0.465
-0.48
-0.455
-0.445
-0.46
-0.46
-0.47
-0.48
-0.45
-0.445
-0.44
-0.45
-0.455
-0.45
-0.44
-0.43
-0.445
-0.44
-0.455
-0.46
-0.435
-0.42
-0.43
-0.44
-0.45
-0.46
-0.45
-0.445
-0.45
-0.47
-0.49
-0.47
-0.46
-0.435
-0.425
-0.43
-0.425
-0.42
-0.405
-0.385
-0.385
-0.4
-0.385
-0.39
-0.37
-0.34
-0.33
-0.32
-0.305
-0.265
-0.165
0.02
0.345
0.79
1.145
1.25
1.12
0.895
0.735
0.64
0.585
0.55
0.51
0.47
0.455
0.395
0.365
0.355
0.395
0.46
0.56
0.65
0.71
0.75
0.735
0.68
0.545
0.4
0.28
0.13
-0.055
-0.275
-0.48
-0.59
-0.545
-0.445
-0.365
-0.275
-0.255
-0.255
-0.27
-0.275
-0.29
-0.28
-0.305
-0.32
-0.32
-0.335
-0.335
-0.325
-0.33
-0.345
-0.375
-0.375
-0.37
-0.375
-0.38
-0.39
-0.4
-0.405
-0.4
-0.4
-0.4
-0.42
-0.465
-0.45
-0.435
-0.435
-0.44
-0.455
-0.48
-0.495
-0.485
-0.48
-0.485
-0.515
-0.535
-0.54
-0.56
-0.56
-0.555
-0.585
-0.58
-0.58
-0.565
-0.545
-0.56
-0.57
-0.58
-0.59
-0.575
-0.56
-0.555
-0.57
-0.58
-0.585
-0.57
-0.545
-0.575
-0.595
-0.595
-0.615
-0.615
-0.615
-0.62
-0.645
-0.69
-0.7
-0.695
-0.71
-0.72
-0.76
-0.78
-0.815
-0.81
-0.82
-0.855
-0.885
-0.89
-0.925
-0.92
-0.9
-0.915
-0.955
-0.96
-0.965
-0.96
-0.945
-0.955
-0.965
-0.96
-0.95
-0.92
-0.885
-0.865
-0.855
-0.845
-0.825
-0.78
-0.745
-0.715
-0.705
-0.675
-0.645
-0.595
-0.545
-0.54
-0.51
-0.5
-0.48
-0.46
-0.43
-0.425
-0.435
-0.435
-0.43
-0.4
-0.37
-0.38
-0.37
-0.37
-0.375
-0.365
-0.34
-0.335
-0.34
-0.355
-0.345
-0.34
-0.315
-0.32
-0.33
-0.35
-0.35
-0.335
-0.325
-0.32
-0.31
-0.32
-0.325
-0.285
-0.275
-0.245
-0.235
-0.245
-0.215
-0.17
-0.11
-0.055
-0.01
0.055
0.145
0.27
0.38
0.465
0.545
0.61
0.68
0.76
0.845
0.925
1.005
1.08
1.145
1.235
1.335
1.43
1.52
1.62
1.7
1.77
1.82
1.85
1.88
1.92
1.955
1.965
1.96
1.865
1.71
1.44
1.065
0.655
0.305
0.05
-0.125
-0.235
-0.29
-0.325
-0.355
-0.425
-0.47
-0.51
-0.555
-0.56
-0.59
-0.6
-0.63
-0.645
-0.65
-0.665
-0.66
-0.67
-0.695
-0.715
-0.72
-0.72
-0.705
-0.72
-0.74
-0.76
-0.755
-0.755
-0.76
-0.77
-0.78
-0.81
-0.805
-0.8
-0.79
-0.805
-0.83
-0.85
-0.87
-0.885
-0.88
-0.88
-0.905
-0.945
-0.965
-0.975
-0.97
-1.005
-1.035
-1.065
-1.095
-1.11
-1.115
-1.14
-1.17
-1.21
-1.235
-1.24
-1.255
-1.28
-1.325
-1.365
-1.395
-1.405
-1.415
-1.465
-1.49
-1.51
-1.535
-1.545
-1.545
-1.57
-1.595
-1.63
-1.645
-1.645
-1.645
-1.645
-1.665
-1.68
-1.67
-1.66
-1.635
-1.645
-1.63
-1.63
-1.615
-1.595
-1.57
-1.55
-1.545
-1.535
-1.515
-1.48
-1.44
-1.42
-1.405
-1.385
-1.34
-1.305
-1.26
-1.22
-1.21
-1.185
-1.14
-1.095
-1.055
-1.03
-1.005
-0.97
-0.945
-0.905
-0.87
-0.84
-0.825
-0.79
-0.76
-0.725
-0.68
-0.65
-0.655
-0.63
-0.62
-0.575
-0.535
-0.525
-0.505
-0.5
-0.485
-0.45
-0.435
-0.415
-0.425
-0.425
-0.425
-0.405
-0.38
-0.37
-0.37
-0.375
-0.365
-0.34
-0.305
-0.29
-0.285
-0.29
-0.275
-0.23
-0.205
-0.215
-0.235
-0.215
-0.2
-0.185
-0.175
-0.18
-0.19
-0.185
-0.185
-0.16
-0.15
-0.155
-0.155
-0.165
-0.15
-0.135
-0.135
-0.135
-0.14
-0.15
-0.15
-0.13
-0.13
-0.12
-0.14
-0.15
-0.15
-0.145
-0.125
-0.13
-0.145
-0.15
-0.16
-0.13
-0.12
-0.135
-0.16
-0.145
-0.15
-0.14
-0.12
-0.14
-0.165
-0.18
-0.155
-0.145
-0.14
-0.135
-0.155
-0.18
-0.19
-0.18
-0.17
-0.165
-0.16
-0.155
-0.155
-0.13
-0.105
-0.11
-0.125
-0.125
-0.14
-0.135
-0.105
-0.11
-0.125
-0.125
-0.145
-0.12
-0.11
-0.11
-0.12
-0.145
-0.13
-0.13
-0.11
-0.125
-0.13
-0.145
-0.125
-0.115
-0.105
-0.105
-0.1
-0.12
-0.125
-0.115
-0.095
-0.11
-0.12
-0.13
-0.135
-0.105
-0.085
-0.105
-0.125
-0.12
-0.13
-0.105
-0.11
-0.11
-0.145
-0.15
-0.16
-0.14
-0.13
-0.14
-0.16
-0.165
-0.15
-0.135
-0.125
-0.12
-0.15
-0.14
-0.135
-0.12
-0.11
-0.11
-0.11
-0.125
-0.125
-0.12
-0.1
-0.105
-0.125
-0.13
-0.125
-0.11
-0.105
-0.09
-0.09
-0.1
-0.09
-0.075
-0.065
-0.06
-0.07
-0.09
-0.085
-0.07
-0.055
-0.06
-0.085
-0.085
-0.075
-0.06
-0.035
-0.045
-0.06
-0.08
-0.075
-0.075
-0.055
-0.045
-0.06
-0.075
-0.075
-0.055
-0.05
-0.06
-0.065
-0.075
-0.075
-0.02
0.02
0.07
0.095
0.17
0.26
0.445
0.745
1.21
1.73
2.07
2.14
2.085
2.04
2.0
1.905
1.775
1.62
1.445
1.25
0.98
0.67
0.425
0.305
0.3
0.335
0.365
0.375
0.34
0.33
0.315
0.315
0.28
0.24
0.21
0.19
0.16
0.155
0.125
0.09
0.06
0.04
0.045
0.035
0.01
-0.015
-0.045
-0.065
-0.065
-0.06
-0.075
-0.1
-0.12
-0.135
-0.135
-0.125
-0.14
-0.16
-0.165
-0.195
-0.17
-0.165
-0.185
-0.195
-0.215
-0.235
-0.22
-0.215
-0.22
-0.24
-0.265
-0.275
-0.265
-0.27
-0.27
-0.3
-0.32
-0.335
-0.32
-0.315
-0.32
-0.335
-0.36
-0.375
-0.385
-0.375
-0.4
-0.42
-0.42
-0.42
-0.42
-0.43
-0.45
-0.475
-0.505
-0.52
-0.52
-0.52
-0.545
-0.56
-0.58
-0.61
-0.61
-0.615
-0.645
-0.675
-0.7
-0.715
-0.72
-0.71
-0.73
-0.77
-0.795
-0.815
-0.82
-0.83
-0.865
-0.9
-0.915
-0.92
-0.93
-0.925
-0.935
-0.945
-0.97
-0.975
-0.95
-0.94
-0.945
-0.94
-0.945
-0.93
-0.9
-0.87
-0.87
-0.86
-0.85
-0.825
-0.785
-0.75
-0.72
-0.705
-0.69
-0.675
-0.64
-0.595
-0.565
-0.565
-0.555
-0.53
-0.485
-0.46
-0.42
-0.41
-0.405
-0.38
-0.33
-0.305
-0.285
-0.27
-0.265
-0.24
-0.22
-0.19
-0.185
-0.18
-0.185
-0.17
-0.16
-0.13
-0.135
-0.13
-0.13
-0.135
-0.125
-0.095
-0.1
-0.115
-0.12
-0.105
-0.095
-0.08
-0.09
-0.085
-0.11
-0.1
-0.09
-0.08
-0.09
-0.105
-0.125
-0.13
-0.12
-0.115
-0.11
-0.11
-0.125
-0.115
-0.105
-0.08
-0.085
-0.09
-0.11
-0.1
-0.105
-0.115
-0.115
-0.14
-0.15
-0.145
-0.135
-0.11
-0.09
-0.12
-0.135
-0.14
-0.115
-0.075
-0.07
-0.075
-0.1
-0.1
-0.08
-0.08
-0.09
-0.09
-0.1
-0.09
-0.075
-0.065
-0.075
-0.09
-0.095
-0.09
-0.105
-0.085
-0.095
-0.115
-0.125
-0.12
-0.115
-0.09
-0.1
-0.1
-0.105
-0.105
-0.095
-0.08
-0.08
-0.1
-0.12
-0.125
-0.11
-0.1
-0.105
-0.11
-0.125
-0.125
-0.115
-0.105
-0.11
-0.14
-0.155
-0.15
-0.13
-0.105
-0.11
-0.105
-0.11
-0.13
-0.095
-0.085
-0.07
-0.065
-0.085
-0.085
-0.07
-0.05
-0.045
-0.035
-0.005
0.02
0.085
0.16
0.235
0.365
0.54
0.77
0.995
1.155
1.24
1.26
1.21
1.095
0.965
0.8
0.535
0.185
-0.17
-0.42
-0.48
-0.43
-0.36
-0.31
-0.265
-0.26
-0.23
-0.215
-0.225
-0.245
-0.255
-0.275
-0.255
-0.24
-0.24
-0.255
-0.255
-0.24
-0.23
-0.215
-0.21
-0.25
-0.245
-0.245
-0.245
-0.23
-0.24
-0.25
-0.25
-0.245
-0.25
-0.23
-0.235
-0.255
-0.275
-0.265
-0.25
-0.25
-0.26
-0.285
-0.3
-0.295
-0.29
-0.28
-0.28
-0.29
-0.305
-0.31
-0.31
-0.3
-0.3
-0.33
-0.35
-0.35
-0.35
-0.345
-0.345
-0.365
-0.39
-0.4
-0.4
-0.39
-0.4
-0.43
-0.43
-0.44
-0.435
-0.43
-0.46
-0.48
-0.5
-0.52
-0.52
-0.52
-0.555
-0.59
-0.605
-0.625
-0.635
-0.645
-0.675
-0.705
-0.745
-0.765
-0.755
-0.77
-0.785
-0.82
-0.84
-0.85
-0.85
-0.84
-0.845
-0.85
-0.855
-0.86
-0.84
-0.805
-0.8
-0.8
-0.785
-0.755
-0.73
-0.68
-0.65
-0.645
-0.61
-0.58
-0.535
-0.5
-0.475
-0.46
-0.46
-0.43
-0.385
-0.345
-0.325
-0.305
-0.305
-0.29
-0.26
-0.215
-0.2
-0.2
-0.2
-0.2
-0.17
-0.15
-0.135
-0.145
-0.15
-0.13
-0.12
-0.095
-0.085
-0.09
-0.095
-0.085
-0.08
-0.05
-0.06
-0.06
-0.075
-0.07
-0.065
-0.04
-0.03
-0.055
-0.07
-0.065
-0.045
-0.025
-0.04
-0.05
-0.065
-0.06
-0.045
-0.045
-0.035
-0.04
-0.05
-0.06
-0.04
-0.05
-0.045
-0.065
-0.09
-0.07
-0.05
-0.035
-0.045
-0.05
-0.06
-0.055
-0.04
-0.015
-0.01
-0.015
-0.005
-0.015
0.005
0.025
0.03
0.015
0.0
0.02
0.035
0.04
0.035
0.03
0.02
0.015
0.04
0.06
0.055
0.035
0.025
0.02
0.035
0.05
0.045
0.03
0.02
0.015
0.035
0.045
0.035
0.035
0.015
0.025
0.035
0.045
0.05
0.025
0.025
0.005
0.025
0.015
0.015
0.005
-0.015
-0.02
0.005
0.02
0.02
0.025
0.01
0.025
0.03
0.04
0.05
0.045
0.02
0.03
0.035
0.06
0.055
0.045
0.04
0.045
0.055
0.075
0.06
0.055
0.04
0.045
0.055
0.06
0.055
0.05
0.045
0.025
0.045
0.06
0.05
0.025
0.03
0.035
0.02
0.04
0.05
0.04
0.03
0.03
0.05
0.07
0.06
0.06
0.05
0.035
0.05
0.07
0.06
0.025
0.02
0.02
0.045
0.07
0.085
0.075
0.07
0.065
0.07
0.1
0.11
0.1
0.085
0.095
0.115
0.14
0.14
0.125
0.11
0.125
0.14
0.16
0.165
0.165
0.19
0.24
0.385
0.675
1.07
1.46
1.59
1.425
1.22
1.095
1.045
0.965
0.88
0.785
0.715
0.67
0.575
0.47
0.36
0.27
0.195
0.095
-0.005
-0.14
-0.27
-0.395
-0.52
-0.64
-0.78
-0.87
-0.97
-1.03
-1.095
-1.15
-1.23
-1.275
-1.305
-1.315
-1.3
-1.26
-1.23
-1.21
-1.185
-1.13
-1.04
-0.925
-0.82
-0.705
-0.595
-0.515
-0.46
-0.41
-0.435
-0.41
-0.37
-0.32
-0.24
-0.16
-0.105
-0.075
-0.04
0.005
0.09
0.185
0.24
0.275
0.27
0.29
0.335
0.375
0.41
0.42
0.405
0.405
0.415
0.405
0.38
0.35
0.34
0.355
0.385
0.41
0.425
0.43
0.425
0.44
0.48
0.505
0.52
0.515
0.515
0.535
0.565
0.58
0.575
0.585
0.59
0.605
0.625
0.65
0.645
0.67
0.685
0.69
0.73
0.765
0.785
0.795
0.795
0.825
0.855
0.885
0.89
0.905
0.89
0.895
0.925
0.965
0.945
0.96
0.955
0.95
0.97
0.99
1.0
0.99
0.99
0.99
1.005
0.995
1.0
0.965
0.945
0.93
0.92
0.92
0.915
0.875
0.85
0.825
0.82
0.815
0.785
0.73
0.695
0.68
0.67
0.66
0.615
0.575
0.525
0.485
0.465
0.45
0.44
0.43
0.385
0.375
0.355
0.35
0.325
0.295
0.24
0.205
0.185
0.2
0.205
0.195
0.18
0.165
0.135
0.12
0.115
0.085
0.06
0.07
0.065
0.1
0.11
0.1
0.095
0.115
0.15
0.14
0.155
0.15
0.155
0.15
0.135
0.15
0.13
0.105
0.115
0.135
0.18
0.185
0.175
0.135
0.11
0.09
0.08
0.07
0.045
0.015
0.005
0.015
0.025
0.03
0.035
0.015
0.0
-0.005
0.01
0.015
0.0
-0.015
-0.035
-0.045
-0.04
-0.05
-0.055
-0.08
-0.095
-0.1
-0.085
-0.04
-0.045
-0.045
-0.045
-0.05
-0.035
0.0
-0.01
-0.04
-0.09
-0.08
-0.06
-0.035
-0.035
-0.045
-0.05
-0.03
-0.03
-0.01
0.0
-0.015
-0.025
-0.02
-0.015
-0.025
-0.015
-0.04
-0.045
-0.03
-0.03
-0.02
-0.03
-0.04
-0.08
-0.07
-0.045
-0.04
-0.05
-0.05
-0.07
-0.07
-0.05
-0.045
-0.055
-0.08
-0.105
-0.105
-0.085
-0.08
-0.09
-0.105
-0.1
-0.07
-0.04
-0.015
-0.02
-0.025
-0.02
-0.035
-0.02
-0.005
0.02
0.03
0.05
0.06
0.095
0.135
0.235
0.47
0.87
1.325
1.575
1.5
1.26
1.075
1.0
0.98
0.935
0.865
0.74
0.61
0.48
0.38
0.28
0.185
0.08
-0.055
-0.22
-0.345
-0.455
-0.56
-0.69
-0.825
-0.965
-1.04
-1.105
-1.18
-1.285
-1.405
-1.49
-1.535
-1.55
-1.53
-1.52
-1.49
-1.46
-1.405
-1.325
-1.205
-1.08
-0.965
-0.845
-0.72
-0.625
-0.555
-0.545
-0.55
-0.535
-0.49
-0.425
-0.355
-0.29
-0.235
-0.195
-0.13
-0.07
-0.01
0.05
0.095
0.13
0.16
0.195
0.22
0.235
0.24
0.235
0.24
0.265
0.28
0.27
0.26
0.265
0.27
0.3
0.305
0.29
0.295
0.285
0.295
0.31
0.345
0.345
0.345
0.35
0.37
0.385
0.415
0.405
0.4
0.38
0.395
0.415
0.46
0.47
0.505
0.525
0.555
0.58
0.605
0.625
0.62
0.63
0.635
0.665
0.685
0.725
0.77
0.76
0.755
0.755
0.82
0.835
0.82
0.8
0.81
0.845
0.905
0.92
0.92
0.895
0.895
0.905
0.92
0.915
0.905
0.895
0.905
0.885
0.88
0.86
0.81
0.765
0.75
0.71
0.68
0.645
0.585
0.54
0.515
0.505
0.495
0.46
0.42
0.37
0.335
0.32
0.31
0.285
0.26
0.225
0.215
0.215
0.215
0.2
0.175
0.13
0.105
0.07
0.06
0.06
0.02
0.005
0.0
0.04
0.065
0.095
0.085
0.04
0.0
-0.03
-0.035
-0.035
-0.05
-0.02
-0.005
0.055
0.085
0.055
-0.01
-0.07
-0.135
-0.17
-0.175
-0.165
-0.155
-0.145
-0.13
-0.08
-0.045
-0.04
-0.055
-0.065
-0.07
-0.075
-0.04
-0.035
-0.035
-0.045
-0.045
-0.055
-0.015
-0.025
-0.04
-0.06
-0.07
-0.08
-0.04
-0.055
-0.075
-0.085
-0.095
-0.08
-0.07
-0.09
-0.1
-0.095
-0.11
-0.085
-0.085
-0.08
-0.1
-0.12
-0.12
-0.115
-0.105
-0.105
-0.12
-0.125
-0.135
-0.12
-0.11
-0.12
-0.145
-0.155
-0.135
-0.125
-0.12
-0.105
-0.11
-0.105
-0.12
-0.085
-0.07
-0.085
-0.095
-0.09
-0.045
-0.015
-0.02
-0.03
-0.065
-0.105
-0.105
-0.09
-0.08
-0.075
-0.08
-0.09
-0.095
-0.085
-0.07
-0.08
-0.105
-0.11
-0.11
-0.095
-0.09
-0.1
-0.11
-0.13
-0.125
-0.115
-0.115
-0.12
-0.12
-0.105
-0.095
-0.08
-0.06
-0.065
-0.06
-0.06
-0.04
-0.01
0.05
0.14
0.35
0.715
1.155
1.455
1.425
1.21
0.985
0.89
0.845
0.79
0.72
0.625
0.505
0.39
0.26
0.135
0.03
-0.11
-0.255
-0.4
-0.565
-0.71
-0.865
-1.015
-1.155
-1.265
-1.345
-1.415
-1.455
-1.51
-1.565
-1.61
-1.635
-1.63
-1.6
-1.58
-1.545
-1.52
-1.455
-1.345
-1.22
-1.11
-0.985
-0.86
-0.76
-0.695
-0.64
-0.61
-0.585
-0.53
-0.485
-0.4
-0.345
-0.28
-0.235
-0.19
-0.13
-0.05
0.01
0.055
0.075
0.105
0.14
0.19
0.21
0.22
0.21
0.205
0.22
0.225
0.25
0.245
0.255
0.265
0.275
0.285
0.29
0.265
0.265
0.275
0.29
0.315
0.32
0.34
0.34
0.335
0.37
0.395
0.41
0.435
0.445
0.455
0.48
0.51
0.545
0.57
0.59
0.6
0.615
0.64
0.635
0.605
0.585
0.565
0.625
0.68
0.75
0.785
0.78
0.785
0.8
0.83
0.85
0.835
0.81
0.795
0.82
0.84
0.86
0.87
0.87
0.865
0.86
0.885
0.9
0.875
0.85
0.83
0.82
0.81
0.825
0.795
0.755
0.715
0.695
0.675
0.64
0.605
0.575
0.505
0.47
0.445
0.405
0.375
0.325
0.27
0.24
0.2
0.185
0.155
0.095
0.055
0.045
0.045
0.035
0.01
-0.025
-0.05
-0.08
-0.09
-0.08
-0.11
-0.125
-0.145
-0.145
-0.135
-0.125
-0.11
-0.13
-0.16
-0.18
-0.17
-0.155
-0.17
-0.175
-0.175
-0.16
-0.135
-0.12
-0.13
-0.16
-0.18
-0.2
-0.19
-0.18
-0.165
-0.18
-0.19
-0.165
-0.155
-0.145
-0.16
-0.165
-0.185
-0.2
-0.185
-0.185
-0.185
-0.205
-0.22
-0.22
-0.235
-0.215
-0.23
-0.255
-0.265
-0.27
-0.255
-0.25
-0.245
-0.255
-0.27
-0.28
-0.27
-0.26
-0.27
-0.28
-0.285
-0.29
-0.275
-0.27
-0.26
-0.29
-0.295
-0.315
-0.305
-0.305
-0.3
-0.32
-0.33
-0.335
-0.31
-0.295
-0.29
-0.3
-0.31
-0.305
-0.295
-0.295
-0.31
-0.34
-0.35
-0.36
-0.37
-0.355
-0.36
-0.375
-0.38
-0.375
-0.365
-0.365
-0.365
-0.375
-0.375
-0.395
-0.365
-0.365
-0.375
-0.38
-0.395
-0.39
-0.385
-0.365
-0.375
-0.385
-0.41
-0.405
-0.395
-0.37
-0.375
-0.385
-0.41
-0.41
-0.41
-0.39
-0.39
-0.395
-0.41
-0.405
-0.38
-0.35
-0.35
-0.35
-0.36
-0.35
-0.34
-0.34
-0.335
-0.31
-0.22
0.0
0.395
0.85
1.1
1.055
0.85
0.67
0.595
0.545
0.475
0.395
0.29
0.205
0.13
0.05
-0.055
-0.165
-0.27
-0.385
-0.495
-0.62
-0.735
-0.875
-1.025
-1.145
-1.275
-1.39
-1.49
-1.6
-1.685
-1.77
-1.815
-1.875
-1.915
-1.975
-1.975
-1.995
-1.955
-1.92
-1.905
-1.89
-1.855
-1.785
-1.705
-1.6
-1.505
-1.42
-1.305
-1.2
-1.115
-1.065
-1.025
-1.01
-0.955
-0.89
-0.825
-0.755
-0.72
-0.695
-0.645
-0.58
-0.515
-0.465
-0.415
-0.39
-0.38
-0.34
-0.315
-0.295
-0.275
-0.265
-0.275
-0.255
-0.26
-0.25
-0.25
-0.265
-0.275
-0.27
-0.24
-0.225
-0.225
-0.23
-0.22
-0.205
-0.19
-0.165
-0.15
-0.145
-0.15
-0.12
-0.1
-0.07
-0.075
-0.09
-0.09
-0.095
-0.065
-0.055
-0.04
-0.04
-0.025
-0.01
0.025
0.05
0.07
0.085
0.095
0.125
0.135
0.165
0.19
0.185
0.205
0.21
0.25
0.27
0.29
0.295
0.305
0.31
0.34
0.36
0.375
0.37
0.375
0.39
0.405
0.435
0.45
0.435
0.42
0.4
0.435
0.44
0.425
0.42
0.395
0.375
0.355
0.375
0.345
0.31
0.26
0.23
0.19
0.155
0.11
0.05
-0.01
-0.04
-0.065
-0.1
-0.14
-0.2
-0.25
-0.29
-0.31
-0.33
-0.375
-0.41
-0.455
-0.48
-0.505
-0.515
-0.535
-0.575
-0.605
-0.61
-0.62
-0.625
-0.625
-0.645
-0.66
-0.655
-0.665
-0.66
-0.66
-0.67
-0.67
-0.67
-0.66
-0.655
-0.66
-0.655
-0.65
-0.645
-0.625
-0.615
-0.615
-0.62
-0.65
-0.64
-0.63
-0.625
-0.625
-0.645
-0.66
-0.67
-0.66
-0.635
-0.64
-0.645
-0.675
-0.65
-0.64
-0.65
-0.64
-0.66
-0.675
-0.68
-0.68
-0.66
-0.665
-0.68
-0.705
-0.7
-0.695
-0.67
-0.675
-0.705
-0.7
-0.705
-0.69
-0.685
-0.68
-0.715
-0.72
-0.72
-0.71
-0.695
-0.7
-0.715
-0.735
-0.735
-0.7
-0.68
-0.685
-0.7
-0.7
-0.705
-0.7
-0.685
-0.69
-0.73
-0.725
-0.73
-0.715
-0.7
-0.73
-0.75
-0.745
-0.735
-0.71
-0.71
-0.73
-0.73
-0.735
-0.74
-0.73
-0.71
-0.72
-0.725
-0.74
-0.745
-0.725
-0.72
-0.72
-0.73
-0.73
-0.72
-0.71
-0.69
-0.695
-0.705
-0.71
