Lead II
-0.805
-0.805
-0.81
-0.8
-0.805
-0.805
-0.78
-0.78
-0.785
-0.77
-0.795
-0.8
-0.795
-0.8
-0.81
-0.805
-0.81
-0.81
-0.795
-0.785
-0.79
-0.785
-0.785
-0.81
-0.805
-0.815
-0.815
-0.81
-0.795
-0.78
-0.76
-0.75
-0.745
-0.76
-0.78
-0.78
-0.795
-0.8
-0.81
-0.8
-0.78
-0.77
-0.745
-0.735
-0.73
-0.735
-0.745
-0.74
-0.745
-0.755
-0.755
-0.76
-0.77
-0.765
-0.77
-0.76
-0.77
-0.765
-0.765
-0.765
-0.755
-0.735
-0.755
-0.745
-0.75
-0.755
-0.765
-0.77
-0.8
-0.82
-0.84
-0.855
-0.85
-0.855
-0.865
-0.85
-0.85
-0.84
-0.825
-0.835
-0.85
-0.855
-0.87
-0.88
-0.88
-0.85
-0.785
-0.685
-0.585
-0.49
-0.42
-0.36
-0.36
-0.445
-0.585
-0.745
-0.87
-0.915
-0.82
-0.6
-0.285
0.04
0.385
0.69
0.955
1.2
1.4
1.525
1.59
1.58
1.51
1.39
1.24
1.035
0.79
0.535
0.28
0.025
-0.235
-0.5
-0.755
-0.97
-1.11
-1.195
-1.21
-1.195
-1.14
-1.09
-1.05
-1.025
-0.995
-0.98
-0.985
-0.985
-1.0
-1.005
-0.995
-0.99
-0.995
-0.99
-0.98
-0.975
-0.985
-0.985
-0.985
-1.0
-1.0
-1.0
-0.985
-0.99
-0.975
-0.965
-0.97
-0.98
-0.97
-0.985
-0.99
-1.0
-1.005
-1.005
-0.995
-0.98
-0.995
-0.99
-0.99
-1.005
-1.005
-1.005
-1.02
-1.025
-1.035
-1.03
-1.025
-1.015
-1.035
-1.025
-1.04
-1.035
-1.04
-1.045
-1.065
-1.06
-1.07
-1.08
-1.085
-1.08
-1.07
-1.07
-1.085
-1.07
-1.09
-1.095
-1.11
-1.12
-1.135
-1.135
-1.125
-1.12
-1.115
-1.12
-1.12
-1.125
-1.125
-1.13
-1.135
-1.135
-1.14
-1.14
-1.125
-1.11
-1.105
-1.1
-1.09
-1.09
-1.085
-1.075
-1.06
-1.045
-1.035
-1.025
-1.0
-0.99
-0.975
-0.95
-0.925
-0.905
-0.895
-0.895
-0.88
-0.88
-0.875
-0.865
-0.835
-0.82
-0.81
-0.785
-0.785
-0.78
-0.775
-0.775
-0.785
-0.78
-0.78
-0.79
-0.78
-0.785
-0.77
-0.77
-0.785
-0.78
-0.79
-0.815
-0.83
-0.84
-0.86
-0.865
-0.87
-0.875
-0.885
-0.89
-0.89
-0.91
-0.915
-0.93
-0.945
-0.955
-0.965
-0.97
-0.975
-0.975
-0.98
-0.99
-0.975
-0.975
-0.995
-0.985
-0.99
-1.0
-1.01
-1.015
-1.01
-0.985
-0.99
-0.97
-0.965
-0.97
-0.98
-0.975
-0.985
-0.975
-0.965
-0.97
-0.96
-0.94
-0.94
-0.925
-0.93
-0.93
-0.93
-0.925
-0.93
-0.935
-0.935
-0.93
-0.925
-0.92
-0.915
-0.91
-0.9
-0.9
-0.92
-0.915
-0.915
-0.92
-0.91
-0.915
-0.915
-0.905
-0.9
-0.885
-0.885
-0.885
-0.89
-0.905
-0.9
-0.9
-0.9
-0.9
-0.89
-0.875
-0.89
-0.885
-0.875
-0.885
-0.88
-0.89
-0.895
-0.905
-0.905
-0.88
-0.885
-0.87
-0.86
-0.86
-0.85
-0.855
-0.85
-0.87
-0.87
-0.87
-0.865
-0.87
-0.86
-0.855
-0.845
-0.85
-0.845
-0.845
-0.85
-0.85
-0.855
-0.865
-0.875
-0.865
-0.86
-0.845
-0.84
-0.845
-0.83
-0.84
-0.84
-0.86
-0.865
-0.875
-0.88
-0.865
-0.86
-0.85
-0.84
-0.84
-0.85
-0.855
-0.86
-0.855
-0.855
-0.855
-0.86
-0.85
-0.855
-0.845
-0.845
-0.84
-0.835
-0.84
-0.84
-0.86
-0.85
-0.845
-0.855
-0.845
-0.84
-0.84
-0.83
-0.825
-0.825
-0.825
-0.835
-0.825
-0.835
-0.84
-0.845
-0.85
-0.86
-0.85
-0.84
-0.825
-0.805
-0.805
-0.785
-0.78
-0.77
-0.75
-0.745
-0.71
-0.66
-0.62
-0.6
-0.59
-0.605
-0.62
-0.65
-0.745
-0.87
-1.065
-1.285
-1.525
-1.675
-1.74
-1.675
-1.585
-1.48
-1.445
-1.49
-1.565
-1.695
-1.805
-1.905
-1.985
-2.045
-2.075
-2.075
-2.1
-2.125
-2.165
-2.18
-2.185
-2.165
-2.125
-2.105
-2.09
-2.095
-2.065
-2.005
-1.875
-1.755
-1.635
-1.555
-1.51
-1.49
-1.495
-1.495
-1.48
-1.455
-1.395
-1.33
-1.23
-1.14
-1.045
-0.96
-0.87
-0.78
-0.715
-0.665
-0.625
-0.565
-0.505
-0.47
-0.41
-0.365
-0.345
-0.355
-0.36
-0.375
-0.4
-0.42
-0.42
-0.42
-0.4
-0.385
-0.355
-0.34
-0.345
-0.335
-0.33
-0.32
-0.33
-0.305
-0.31
-0.285
-0.255
-0.245
-0.225
-0.19
-0.185
-0.17
-0.165
-0.155
-0.145
-0.135
-0.125
-0.12
-0.095
-0.07
-0.06
-0.04
-0.035
-0.035
-0.04
-0.01
-0.005
0.0
0.015
0.025
0.05
0.055
0.08
0.09
0.095
0.1
0.095
0.1
0.085
0.1
0.11
0.115
0.11
0.125
0.13
0.135
0.135
0.14
0.13
0.135
0.11
0.1
0.11
0.095
0.1
0.09
0.1
0.09
0.08
0.075
0.05
0.035
0.005
-0.015
-0.035
-0.05
-0.07
-0.09
-0.105
-0.12
-0.145
-0.17
-0.185
-0.21
-0.24
-0.265
-0.29
-0.32
-0.33
-0.36
-0.375
-0.38
-0.405
-0.425
-0.445
-0.47
-0.485
-0.51
-0.525
-0.53
-0.535
-0.54
-0.55
-0.55
-0.57
-0.595
-0.595
-0.595
-0.61
-0.615
-0.615
-0.61
-0.605
-0.605
-0.595
-0.595
-0.59
-0.595
-0.6
-0.595
-0.6
-0.61
-0.605
-0.615
-0.59
-0.59
-0.575
-0.585
-0.595
-0.605
-0.61
-0.63
-0.625
-0.615
-0.61
-0.615
-0.605
-0.61
-0.61
-0.615
-0.61
-0.615
-0.635
-0.64
-0.66
-0.66
-0.675
-0.675
-0.675
-0.67
-0.67
-0.675
-0.685
-0.69
-0.69
-0.7
-0.715
-0.72
-0.715
-0.72
-0.715
-0.7
-0.705
-0.705
-0.7
-0.715
-0.72
-0.725
-0.735
-0.73
-0.725
-0.725
-0.725
-0.715
-0.705
-0.71
-0.71
-0.72
-0.735
-0.735
-0.745
-0.735
-0.73
-0.73
-0.715
-0.715
-0.71
-0.7
-0.705
-0.715
-0.715
-0.725
-0.745
-0.74
-0.73
-0.725
-0.725
-0.72
-0.715
-0.71
-0.735
-0.73
-0.73
-0.735
-0.74
-0.735
-0.745
-0.735
-0.725
-0.725
-0.71
-0.705
-0.7
-0.725
-0.72
-0.725
-0.73
-0.73
-0.745
-0.74
-0.74
-0.73
-0.74
-0.715
-0.72
-0.71
-0.72
-0.73
-0.73
-0.735
-0.735
-0.73
-0.72
-0.71
-0.71
-0.71
-0.705
-0.705
-0.71
-0.73
-0.735
-0.745
-0.75
-0.76
-0.76
-0.745
-0.735
-0.725
-0.715
-0.72
-0.725
-0.73
-0.74
-0.74
-0.745
-0.735
-0.72
-0.72
-0.72
-0.71
-0.715
-0.71
-0.715
-0.735
-0.75
-0.735
-0.74
-0.745
-0.735
-0.725
-0.72
-0.7
-0.7
-0.72
-0.72
-0.725
-0.735
-0.735
-0.73
-0.735
-0.735
-0.725
-0.73
-0.715
-0.71
-0.715
-0.73
-0.745
-0.735
-0.745
-0.735
-0.735
-0.725
-0.73
-0.73
-0.725
-0.725
-0.715
-0.72
-0.735
-0.745
-0.74
-0.74
-0.74
-0.735
-0.72
-0.715
-0.705
-0.72
-0.715
-0.73
-0.73
-0.73
-0.735
-0.735
-0.725
-0.73
-0.71
-0.705
-0.705
-0.72
-0.715
-0.735
-0.71
-0.725
-0.725
-0.725
-0.72
-0.715
-0.71
-0.705
-0.695
-0.7
-0.695
-0.695
-0.705
-0.735
-0.725
-0.735
-0.715
-0.735
-0.71
-0.7
-0.69
-0.69
-0.69
-0.705
-0.72
-0.735
-0.73
-0.73
-0.73
-0.715
-0.71
-0.7
-0.705
-0.7
-0.71
-0.695
-0.695
-0.7
-0.715
-0.7
-0.705
-0.7
-0.695
-0.69
-0.68
-0.695
-0.7
-0.71
-0.705
-0.7
-0.705
-0.705
-0.72
-0.72
-0.715
-0.695
-0.685
-0.685
-0.68
-0.68
-0.68
-0.69
-0.7
-0.71
-0.69
-0.695
-0.69
-0.675
-0.655
-0.65
-0.64
-0.655
-0.645
-0.65
-0.655
-0.66
-0.64
-0.63
-0.635
-0.635
-0.64
-0.65
-0.66
-0.67
-0.665
-0.68
-0.67
-0.67
-0.665
-0.655
-0.63
-0.61
-0.595
-0.59
-0.605
-0.615
-0.63
-0.635
-0.665
-0.68
-0.69
-0.7
-0.715
-0.7
-0.7
-0.71
-0.705
-0.715
-0.725
-0.73
-0.72
-0.73
-0.72
-0.72
-0.73
-0.73
-0.725
-0.715
-0.665
-0.58
-0.49
-0.4
-0.335
-0.27
-0.26
-0.305
-0.42
-0.565
-0.68
-0.7
-0.605
-0.4
-0.125
0.165
0.465
0.74
1.02
1.255
1.455
1.625
1.715
1.725
1.675
1.565
1.43
1.23
0.985
0.73
0.46
0.225
-0.015
-0.24
-0.475
-0.685
-0.855
-0.955
-1.01
-1.02
-1.02
-0.995
-0.97
-0.94
-0.905
-0.875
-0.85
-0.835
-0.82
-0.83
-0.825
-0.825
-0.835
-0.845
-0.845
-0.825
-0.825
-0.825
-0.835
-0.82
-0.83
-0.83
-0.835
-0.85
-0.85
-0.84
-0.85
-0.845
-0.845
-0.83
-0.83
-0.83
-0.84
-0.84
-0.855
-0.865
-0.855
-0.865
-0.86
-0.855
-0.855
-0.85
-0.84
-0.85
-0.85
-0.86
-0.865
-0.875
-0.885
-0.89
-0.89
-0.89
-0.89
-0.89
-0.885
-0.885
-0.905
-0.9
-0.915
-0.915
-0.92
-0.93
-0.94
-0.925
-0.935
-0.93
-0.935
-0.935
-0.935
-0.95
-0.945
-0.965
-0.965
-0.965
-0.975
-0.98
-0.97
-0.965
-0.965
-0.965
-0.97
-0.97
-0.985
-1.0
-0.99
-0.985
-0.98
-0.97
-0.97
-0.965
-0.95
-0.95
-0.94
-0.94
-0.945
-0.94
-0.935
-0.91
-0.915
-0.875
-0.87
-0.85
-0.835
-0.815
-0.8
-0.795
-0.79
-0.77
-0.765
-0.75
-0.73
-0.715
-0.695
-0.68
-0.655
-0.655
-0.645
-0.635
-0.63
-0.63
-0.62
-0.615
-0.62
-0.605
-0.605
-0.595
-0.59
-0.6
-0.605
-0.6
-0.62
-0.62
-0.635
-0.645
-0.655
-0.66
-0.675
-0.675
-0.695
-0.71
-0.72
-0.745
-0.76
-0.78
-0.805
-0.8
-0.815
-0.82
-0.815
-0.82
-0.825
-0.84
-0.85
-0.86
-0.86
-0.88
-0.885
-0.885
-0.88
-0.88
-0.88
-0.875
-0.875
-0.865
-0.855
-0.86
-0.87
-0.885
-0.88
-0.885
-0.88
-0.845
-0.825
-0.825
-0.82
-0.815
-0.795
-0.795
-0.795
-0.8
-0.815
-0.8
-0.795
-0.785
-0.775
-0.765
-0.76
-0.76
-0.765
-0.765
-0.77
-0.765
-0.77
-0.76
-0.76
-0.745
-0.73
-0.745
-0.73
-0.735
-0.72
-0.72
-0.73
-0.73
-0.735
-0.735
-0.735
-0.735
-0.715
-0.715
-0.705
-0.705
-0.705
-0.705
-0.715
-0.72
-0.71
-0.72
-0.71
-0.71
-0.7
-0.705
-0.695
-0.705
-0.705
-0.69
-0.705
-0.7
-0.71
-0.71
-0.695
-0.71
-0.695
-0.68
-0.67
-0.68
-0.685
-0.68
-0.695
-0.69
-0.71
-0.69
-0.69
-0.685
-0.675
-0.665
-0.67
-0.68
-0.69
-0.685
-0.7
-0.7
-0.68
-0.69
-0.68
-0.68
-0.68
-0.675
-0.66
-0.665
-0.675
-0.675
-0.695
-0.69
-0.68
-0.68
-0.68
-0.67
-0.675
-0.655
-0.645
-0.66
-0.655
-0.67
-0.665
-0.66
-0.675
-0.68
-0.675
-0.67
-0.66
-0.66
-0.65
-0.65
-0.66
-0.67
-0.67
-0.68
-0.675
-0.67
-0.67
-0.655
-0.655
-0.65
-0.65
-0.655
-0.655
-0.655
-0.675
-0.68
-0.68
-0.665
-0.67
-0.67
-0.65
-0.64
-0.63
-0.63
-0.63
-0.625
-0.64
-0.635
-0.655
-0.655
-0.65
-0.64
-0.64
-0.63
-0.615
-0.615
-0.615
-0.625
-0.62
-0.62
-0.65
-0.65
-0.65
-0.645
-0.625
-0.6
-0.57
-0.56
-0.565
-0.57
-0.585
-0.585
-0.595
-0.595
-0.59
-0.6
-0.59
-0.595
-0.59
-0.59
-0.585
-0.585
-0.57
-0.57
-0.56
-0.555
-0.565
-0.57
-0.57
-0.58
-0.58
-0.6
-0.605
-0.625
-0.635
-0.65
-0.665
-0.665
-0.665
-0.655
-0.645
-0.64
-0.63
-0.645
-0.64
-0.64
-0.66
-0.68
-0.695
-0.685
-0.635
-0.535
-0.42
-0.315
-0.21
-0.155
-0.12
-0.17
-0.27
-0.45
-0.635
-0.78
-0.83
-0.75
-0.555
-0.29
-0.005
0.28
0.56
0.805
1.04
1.23
1.375
1.425
1.42
1.35
1.245
1.075
0.855
0.61
0.36
0.115
-0.125
-0.365
-0.58
-0.765
-0.89
-0.945
-0.955
-0.93
-0.88
-0.845
-0.82
-0.8
-0.78
-0.77
-0.755
-0.77
-0.755
-0.73
-0.735
-0.735
-0.725
-0.73
-0.725
-0.73
-0.73
-0.74
-0.745
-0.755
-0.76
-0.75
-0.74
-0.735
-0.73
-0.735
-0.73
-0.735
-0.745
-0.755
-0.755
-0.745
-0.76
-0.755
-0.765
-0.755
-0.745
-0.73
-0.75
-0.75
-0.76
-0.77
-0.775
-0.785
-0.785
-0.78
-0.79
-0.785
-0.775
-0.79
-0.785
-0.8
-0.795
-0.805
-0.815
-0.83
-0.835
-0.84
-0.825
-0.83
-0.83
-0.83
-0.835
-0.86
-0.86
-0.875
-0.885
-0.885
-0.885
-0.88
-0.885
-0.885
-0.89
-0.9
-0.905
-0.915
-0.93
-0.935
-0.93
-0.94
-0.94
-0.935
-0.94
-0.925
-0.91
-0.92
-0.92
-0.92
-0.915
-0.915
-0.915
-0.9
-0.9
-0.895
-0.87
-0.86
-0.845
-0.835
-0.825
-0.82
-0.805
-0.8
-0.785
-0.78
-0.76
-0.74
-0.715
-0.69
-0.67
-0.65
-0.645
-0.64
-0.625
-0.615
-0.605
-0.6
-0.595
-0.585
-0.57
-0.56
-0.545
-0.555
-0.55
-0.56
-0.565
-0.56
-0.565
-0.58
-0.58
-0.585
-0.59
-0.605
-0.6
-0.62
-0.63
-0.645
-0.655
-0.675
-0.68
-0.69
-0.7
-0.705
-0.72
-0.715
-0.725
-0.735
-0.74
-0.74
-0.75
-0.75
-0.77
-0.77
-0.775
-0.765
-0.77
-0.77
-0.745
-0.74
-0.75
-0.75
-0.75
-0.76
-0.76
-0.755
-0.755
-0.755
-0.745
-0.745
-0.73
-0.735
-0.72
-0.725
-0.725
-0.745
-0.725
-0.73
-0.73
-0.72
-0.71
-0.71
-0.71
-0.7
-0.705
-0.705
-0.71
-0.725
-0.71
-0.72
-0.72
-0.715
-0.71
-0.695
-0.685
-0.685
-0.695
-0.7
-0.715
-0.715
-0.71
-0.7
-0.705
-0.7
-0.695
-0.695
-0.68
-0.675
-0.69
-0.675
-0.69
-0.69
-0.705
-0.7
-0.705
-0.7
-0.695
-0.69
-0.675
-0.66
-0.665
-0.65
-0.64
-0.635
-0.605
-0.59
-0.55
-0.505
-0.475
-0.45
-0.455
-0.47
-0.505
-0.53
-0.58
-0.625
-0.71
-0.845
-1.015
-1.2
-1.395
-1.545
-1.615
-1.62
-1.55
-1.475
-1.42
-1.425
-1.46
-1.545
-1.65
-1.73
-1.795
-1.87
-1.925
-1.98
-2.015
-2.035
-2.075
-2.115
-2.165
-2.185
-2.19
-2.195
-2.18
-2.15
-2.11
-2.11
-2.12
-2.115
-2.12
-2.085
-1.995
-1.865
-1.705
-1.57
-1.46
-1.395
-1.35
-1.33
-1.3
-1.295
-1.25
-1.205
-1.125
-1.065
-0.96
-0.88
-0.795
-0.72
-0.64
-0.585
-0.54
-0.5
-0.475
-0.465
-0.45
-0.435
-0.43
-0.4
-0.39
-0.365
-0.345
-0.33
-0.31
-0.28
-0.265
-0.245
-0.23
-0.215
-0.205
-0.19
-0.17
-0.17
-0.15
-0.14
-0.13
-0.12
-0.135
-0.14
-0.135
-0.145
-0.115
-0.095
-0.085
-0.06
-0.045
-0.03
0.0
0.005
0.015
0.02
0.05
0.06
0.075
0.095
0.12
0.125
0.155
0.165
0.175
0.18
0.19
0.18
0.205
0.21
0.22
0.24
0.26
0.27
0.29
0.3
0.31
0.305
0.31
0.31
0.3
0.32
0.32
0.335
0.335
0.33
0.34
0.33
0.34
0.33
0.305
0.3
0.285
0.275
0.275
0.26
0.25
0.235
0.225
0.21
0.19
0.16
0.155
0.12
0.095
0.075
0.06
0.03
0.03
0.005
-0.01
-0.03
-0.06
-0.08
-0.105
-0.12
-0.14
-0.17
-0.185
-0.2
-0.215
-0.215
-0.23
-0.235
-0.265
-0.28
-0.3
-0.315
-0.325
-0.345
-0.35
-0.36
-0.345
-0.35
-0.355
-0.36
-0.375
-0.38
-0.405
-0.41
-0.425
-0.445
-0.44
-0.43
-0.435
-0.435
-0.44
-0.445
-0.455
-0.47
-0.475
-0.49
-0.505
-0.525
-0.525
-0.53
-0.53
-0.53
-0.545
-0.545
-0.555
-0.565
-0.585
-0.605
-0.61
-0.62
-0.625
-0.62
-0.635
-0.635
-0.625
-0.635
-0.645
-0.66
-0.665
-0.675
-0.68
-0.69
-0.685
-0.69
-0.68
-0.67
-0.665
-0.67
-0.675
-0.685
-0.7
-0.705
-0.695
-0.7
-0.7
-0.7
-0.695
-0.695
-0.685
-0.685
-0.69
-0.695
-0.7
-0.7
-0.715
-0.72
-0.72
-0.705
-0.705
-0.695
-0.695
-0.705
-0.705
-0.705
-0.715
-0.71
-0.72
-0.72
-0.725
-0.72
-0.7
-0.695
-0.695
-0.705
-0.715
-0.71
-0.72
-0.725
-0.73
-0.74
-0.73
-0.715
-0.7
-0.705
-0.705
-0.71
-0.705
-0.715
-0.72
-0.725
-0.735
-0.725
-0.725
-0.72
-0.715
-0.725
-0.725
-0.72
-0.715
-0.73
-0.73
-0.73
-0.74
-0.745
-0.745
-0.75
-0.735
-0.72
-0.72
-0.71
-0.725
-0.715
-0.73
-0.74
-0.745
-0.755
-0.75
-0.735
-0.73
-0.72
-0.71
-0.72
-0.725
-0.72
-0.725
-0.74
-0.745
-0.74
-0.735
-0.73
-0.725
-0.725
-0.71
-0.72
-0.725
-0.725
-0.73
-0.75
-0.76
-0.75
-0.76
-0.745
-0.735
-0.725
-0.725
-0.725
-0.745
-0.74
-0.745
-0.745
-0.75
-0.745
-0.745
-0.745
-0.735
-0.735
-0.72
-0.72
-0.725
-0.745
-0.755
-0.735
-0.765
-0.76
-0.75
-0.75
-0.745
-0.73
-0.73
-0.725
-0.72
-0.74
-0.745
-0.76
-0.745
-0.755
-0.735
-0.735
-0.74
-0.73
-0.715
-0.735
-0.745
-0.75
-0.755
-0.755
-0.76
-0.755
-0.755
-0.755
-0.74
-0.735
-0.735
-0.72
-0.72
-0.735
-0.735
-0.73
-0.755
-0.765
-0.745
-0.745
-0.745
-0.75
-0.725
-0.715
-0.73
-0.74
-0.75
-0.735
-0.75
-0.76
-0.76
-0.755
-0.76
-0.75
-0.73
-0.735
-0.74
-0.74
-0.735
-0.75
-0.76
-0.75
-0.76
-0.76
-0.735
-0.73
-0.725
-0.73
-0.725
-0.74
-0.74
-0.75
-0.75
-0.75
-0.745
-0.75
-0.735
-0.735
-0.72
-0.71
-0.715
-0.715
-0.735
-0.735
-0.745
-0.745
-0.74
-0.735
-0.725
-0.725
-0.715
-0.72
-0.72
-0.73
-0.735
-0.73
-0.74
-0.75
-0.745
-0.745
-0.735
-0.735
-0.725
-0.72
-0.735
-0.73
-0.73
-0.75
-0.755
-0.76
-0.755
-0.755
-0.76
-0.75
-0.735
-0.73
-0.74
-0.74
-0.74
-0.74
-0.755
-0.755
-0.75
-0.74
-0.75
-0.74
-0.72
-0.725
-0.73
-0.74
-0.74
-0.735
-0.745
-0.745
-0.74
-0.73
-0.71
-0.715
-0.7
-0.695
-0.715
-0.71
-0.73
-0.745
-0.75
-0.745
-0.725
-0.705
-0.685
-0.675
-0.665
-0.66
-0.67
-0.67
-0.68
-0.685
-0.705
-0.71
-0.71
-0.71
-0.7
-0.705
-0.7
-0.69
-0.68
-0.67
-0.67
-0.665
-0.66
-0.67
-0.68
-0.69
-0.685
-0.7
-0.705
-0.725
-0.73
-0.735
-0.745
-0.75
-0.77
-0.775
-0.78
-0.77
-0.775
-0.77
-0.755
-0.74
-0.74
-0.75
-0.755
-0.77
-0.78
-0.765
-0.715
-0.625
-0.52
-0.41
-0.315
-0.275
-0.29
-0.38
-0.54
-0.7
-0.76
-0.69
-0.5
-0.215
0.135
0.485
0.805
1.09
1.295
1.42
1.465
1.465
1.385
1.29
1.155
0.97
0.755
0.505
0.27
0.02
-0.25
-0.505
-0.725
-0.9
-1.02
-1.07
-1.085
-1.07
-1.02
-0.995
-0.965
-0.945
-0.925
-0.93
-0.91
-0.89
-0.89
-0.89
-0.87
-0.87
-0.86
-0.875
-0.87
-0.855
-0.87
-0.86
-0.875
-0.86
-0.87
-0.88
-0.87
-0.88
-0.875
-0.87
-0.86
-0.855
-0.855
-0.86
-0.875
-0.885
-0.895
-0.895
-0.9
-0.885
-0.89
-0.885
-0.89
-0.885
-0.885
-0.89
-0.9
-0.915
-0.915
-0.925
-0.92
-0.915
-0.94
-0.92
-0.925
-0.93
-0.925
-0.935
-0.935
-0.955
-0.96
-0.96
-0.965
-0.965
-0.965
-0.965
-0.95
-0.945
-0.985
-0.99
-0.98
-0.98
-0.98
-0.995
-1.005
-1.0
-1.01
-1.01
-1.005
-1.0
-1.0
-1.005
-1.01
-1.025
-1.04
-1.04
-1.03
-1.035
-1.04
-1.045
-1.045
-1.02
-1.025
-1.025
-1.03
-1.035
-1.045
-1.04
-1.035
-1.04
-1.03
-1.005
-0.995
-0.99
-0.99
-0.99
-0.98
-0.97
-0.97
-0.955
-0.95
-0.935
-0.92
-0.9
-0.895
-0.85
-0.85
-0.845
-0.835
-0.825
-0.82
-0.805
-0.79
-0.78
-0.755
-0.73
-0.7
-0.675
-0.67
-0.66
-0.655
-0.655
-0.655
-0.64
-0.635
-0.625
-0.615
-0.61
-0.6
-0.595
-0.605
-0.605
-0.615
-0.625
-0.66
-0.665
-0.68
-0.675
-0.685
-0.695
-0.705
-0.705
-0.735
-0.735
-0.775
-0.795
-0.805
-0.81
-0.82
-0.84
-0.84
-0.85
-0.855
-0.86
-0.86
-0.87
-0.88
-0.89
-0.9
-0.905
-0.915
-0.925
-0.905
-0.915
-0.92
-0.905
-0.895
-0.89
-0.905
-0.905
-0.91
-0.92
-0.925
-0.915
-0.905
-0.905
-0.9
-0.9
-0.88
-0.875
-0.89
-0.89
-0.89
-0.895
-0.875
-0.89
-0.875
-0.865
-0.86
-0.85
-0.845
-0.845
-0.845
-0.855
-0.84
-0.845
-0.85
-0.855
-0.84
-0.835
-0.825
-0.82
-0.815
-0.815
-0.835
-0.845
-0.825
-0.835
-0.845
-0.84
-0.82
-0.82
-0.8
-0.795
-0.8
-0.8
-0.815
-0.82
-0.82
-0.82
-0.82
-0.82
-0.805
-0.805
-0.805
-0.795
-0.795
-0.8
-0.8
-0.805
-0.81
-0.825
-0.83
-0.835
-0.81
-0.815
-0.805
-0.79
-0.795
-0.79
-0.8
-0.815
-0.805
-0.815
-0.815
-0.815
-0.805
-0.81
-0.805
-0.795
-0.8
-0.795
-0.8
-0.81
-0.835
-0.815
-0.815
-0.815
-0.81
-0.795
-0.795
-0.79
-0.805
-0.795
-0.8
-0.8
-0.8
-0.815
-0.82
-0.825
-0.82
-0.815
-0.805
-0.805
-0.8
-0.795
-0.805
-0.805
-0.82
-0.82
-0.82
-0.825
-0.81
-0.82
-0.815
-0.81
-0.815
-0.815
-0.82
-0.82
-0.82
-0.825
-0.83
-0.825
-0.825
-0.81
-0.82
-0.8
-0.805
-0.81
-0.815
-0.825
-0.83
-0.825
-0.825
-0.825
-0.825
-0.825
-0.825
-0.81
-0.805
-0.82
-0.825
-0.82
-0.83
-0.84
-0.835
-0.835
-0.83
-0.825
-0.81
-0.81
-0.8
-0.805
-0.8
-0.81
-0.81
-0.82
-0.82
-0.82
-0.83
-0.82
-0.815
-0.8
-0.785
-0.78
-0.77
-0.76
-0.77
-0.765
-0.78
-0.78
-0.78
-0.785
-0.78
-0.785
-0.79
-0.79
-0.795
-0.81
-0.815
-0.805
-0.8
-0.785
-0.77
-0.75
-0.74
-0.755
-0.755
-0.76
-0.775
-0.79
-0.82
-0.84
-0.86
-0.87
-0.86
-0.865
-0.86
-0.86
-0.865
-0.87
-0.875
-0.87
-0.9
-0.89
-0.895
-0.9
-0.895
-0.91
-0.9
-0.855
-0.785
-0.68
-0.59
-0.51
-0.455
-0.42
-0.425
-0.485
-0.605
-0.76
-0.88
-0.93
-0.855
-0.655
-0.415
-0.15
0.14
0.405
0.67
0.91
1.145
1.34
1.48
1.555
1.535
1.455
1.3
1.06
0.78
0.47
0.16
-0.125
-0.415
-0.675
-0.915
-1.07
-1.17
-1.22
-1.22
-1.205
-1.185
-1.135
-1.11
-1.08
-1.065
-1.035
-1.02
-1.01
-0.985
-1.0
-1.01
-1.02
-1.03
-1.04
-1.03
-1.035
-1.03
-1.015
-1.01
-1.01
-1.02
-1.02
-1.01
-1.03
-1.025
-1.03
-1.035
-1.03
-1.03
-1.025
-1.03
-1.015
-1.025
-1.035
-1.04
-1.05
-1.055
-1.06
-1.06
-1.06
-1.065
-1.04
-1.045
-1.045
-1.05
-1.055
-1.07
-1.07
-1.09
-1.08
-1.085
-1.09
-1.08
-1.075
-1.07
-1.07
-1.07
-1.075
-1.095
-1.1
-1.115
-1.115
-1.125
-1.125
-1.13
-1.13
-1.125
-1.125
-1.135
-1.13
-1.15
-1.15
-1.17
-1.18
-1.19
-1.175
-1.18
-1.17
-1.16
-1.165
-1.155
-1.145
-1.145
-1.165
-1.155
-1.155
-1.155
-1.145
-1.12
-1.105
-1.1
-1.07
-1.08
-1.07
-1.065
-1.065
-1.055
-1.045
-1.025
-1.01
-0.99
-0.965
-0.95
-0.925
-0.91
-0.9
-0.89
-0.885
-0.87
-0.87
-0.87
-0.855
-0.82
-0.81
-0.79
-0.785
-0.785
-0.78
-0.775
-0.79
-0.79
-0.795
-0.8
-0.81
-0.795
-0.8
-0.815
-0.82
-0.83
-0.845
-0.86
-0.88
-0.905
-0.935
-0.95
-0.965
-0.965
-0.97
-0.97
-0.975
-0.99
-1.005
-1.015
-1.03
-1.035
-1.04
-1.045
-1.05
-1.035
-1.04
-1.03
-1.03
-1.03
-1.025
-1.02
-1.035
-1.02
-1.015
-1.01
-1.015
-0.995
-0.985
-0.97
-0.975
-0.98
-0.98
-0.985
-0.985
-0.985
-0.975
-0.97
-0.97
-0.955
-0.95
-0.935
-0.93
-0.935
-0.925
-0.935
-0.94
-0.94
-0.95
-0.945
-0.945
-0.95
-0.93
-0.935
-0.92
-0.92
-0.905
-0.91
-0.92
-0.925
-0.92
-0.94
-0.935
-0.915
-0.91
-0.91
-0.9
-0.895
-0.91
-0.905
-0.915
-0.915
-0.915
-0.915
-0.91
-0.905
-0.895
-0.9
-0.895
-0.895
-0.895
-0.89
-0.885
-0.905
-0.905
-0.905
-0.91
-0.905
-0.9
-0.895
-0.915
-0.895
-0.885
-0.89
-0.89
-0.89
-0.9
-0.895
-0.89
-0.89
-0.88
-0.885
-0.885
-0.88
-0.875
-0.865
-0.875
-0.89
-0.88
-0.89
-0.88
-0.875
-0.87
-0.86
-0.86
-0.87
-0.87
-0.87
-0.875
-0.87
-0.885
-0.87
-0.865
-0.86
-0.855
-0.855
-0.855
-0.85
-0.845
-0.86
-0.85
-0.85
-0.855
-0.85
-0.85
-0.845
-0.835
-0.84
-0.83
-0.83
-0.835
-0.845
-0.85
-0.85
-0.845
-0.85
-0.84
-0.83
-0.83
-0.83
-0.805
-0.815
-0.81
-0.815
-0.83
-0.82
-0.825
-0.825
-0.815
-0.81
-0.82
-0.805
-0.795
-0.79
-0.795
-0.795
-0.79
-0.8
-0.795
-0.81
-0.8
-0.795
-0.785
-0.785
-0.755
-0.76
-0.755
-0.76
-0.76
-0.76
-0.765
-0.775
-0.77
-0.76
-0.74
-0.72
-0.705
-0.69
-0.685
-0.68
-0.67
-0.68
-0.685
-0.685
-0.69
-0.69
-0.695
-0.7
-0.695
-0.685
-0.695
-0.695
-0.7
-0.7
-0.695
-0.685
-0.665
-0.66
-0.635
-0.625
-0.62
-0.63
-0.64
-0.655
-0.67
-0.705
-0.715
-0.72
-0.735
-0.735
-0.725
-0.715
-0.7
-0.69
-0.69
-0.69
-0.705
-0.705
-0.725
-0.73
-0.73
-0.725
-0.66
-0.58
-0.465
-0.355
-0.265
-0.19
-0.155
-0.175
-0.275
-0.44
-0.605
-0.73
-0.755
-0.65
-0.435
-0.175
0.11
0.375
0.59
0.815
1.015
1.205
1.36
1.48
1.54
1.555
1.53
1.46
1.36
1.2
1.03
0.81
0.585
0.345
0.1
-0.155
-0.395
-0.605
-0.75
-0.835
-0.875
-0.865
-0.855
-0.82
-0.79
-0.765
-0.74
-0.71
-0.695
-0.675
-0.65
-0.635
-0.64
-0.635
-0.645
-0.65
-0.64
-0.65
-0.655
-0.645
-0.635
-0.625
-0.625
-0.605
-0.61
-0.61
-0.625
-0.62
-0.625
-0.62
-0.62
-0.63
-0.62
-0.605
-0.61
-0.605
-0.61
-0.62
-0.615
-0.62
-0.61
-0.625
-0.62
-0.635
-0.63
-0.62
-0.62
-0.615
-0.61
-0.615
-0.625
-0.64
-0.64
-0.645
-0.64
-0.645
-0.64
-0.64
-0.64
-0.645
-0.635
-0.64
-0.66
-0.665
-0.665
-0.685
-0.69
-0.675
-0.685
-0.675
-0.655
-0.675
-0.69
-0.685
-0.695
-0.705
-0.71
-0.72
-0.705
-0.71
-0.705
-0.7
-0.69
-0.69
-0.685
-0.675
-0.69
-0.675
-0.675
-0.67
-0.665
-0.635
-0.605
-0.59
-0.565
-0.545
-0.54
-0.515
-0.51
-0.5
-0.475
-0.455
-0.435
-0.41
-0.395
-0.365
-0.34
-0.325
-0.295
-0.295
-0.295
-0.28
-0.255
-0.255
-0.245
-0.225
-0.22
-0.195
-0.185
-0.19
-0.19
-0.2
-0.215
-0.225
-0.235
-0.255
-0.26
-0.265
-0.27
-0.255
-0.255
-0.27
-0.28
-0.29
-0.31
-0.33
-0.345
-0.36
-0.38
-0.385
-0.375
-0.38
-0.38
-0.385
-0.385
-0.385
-0.395
-0.405
-0.405
-0.415
-0.42
-0.42
-0.41
-0.42
-0.4
-0.395
-0.4
-0.395
-0.41
-0.415
-0.43
-0.425
-0.42
-0.405
-0.39
-0.37
-0.355
-0.365
-0.37
-0.36
-0.355
-0.36
-0.365
-0.37
-0.37
-0.35
-0.335
-0.335
-0.32
-0.32
-0.315
-0.32
-0.32
-0.325
-0.33
-0.355
-0.325
-0.325
-0.33
-0.31
-0.295
-0.295
-0.305
-0.31
-0.305
-0.31
-0.315
-0.31
-0.31
-0.31
-0.305
-0.295
-0.295
-0.285
-0.285
-0.3
-0.305
-0.305
-0.31
-0.315
-0.31
-0.31
-0.305
-0.29
-0.285
-0.275
-0.29
-0.29
-0.285
-0.28
-0.29
-0.295
-0.295
-0.295
-0.295
-0.285
-0.285
-0.275
-0.285
-0.295
-0.31
-0.315
-0.3
-0.305
-0.3
-0.295
-0.28
-0.285
-0.265
-0.26
-0.27
-0.275
-0.27
-0.285
-0.28
-0.29
-0.285
-0.29
-0.27
-0.285
-0.265
-0.26
-0.26
-0.265
-0.285
-0.28
-0.29
-0.3
-0.295
-0.305
-0.28
-0.275
-0.265
-0.265
-0.26
-0.275
-0.27
-0.29
-0.28
-0.29
-0.285
-0.295
-0.285
-0.27
-0.275
-0.275
-0.265
-0.265
-0.275
-0.275
-0.29
-0.29
-0.3
-0.285
-0.28
-0.27
-0.27
-0.265
-0.27
-0.275
-0.275
-0.275
-0.29
-0.295
-0.295
-0.28
-0.29
-0.285
-0.28
-0.285
-0.285
-0.28
-0.285
-0.285
-0.285
-0.3
-0.3
-0.305
-0.285
-0.285
-0.27
-0.26
-0.26
-0.27
-0.26
-0.265
-0.255
-0.28
-0.285
-0.285
-0.29
-0.275
-0.255
-0.235
-0.225
-0.21
-0.215
-0.225
-0.225
-0.235
-0.24
-0.235
-0.235
-0.255
-0.25
-0.245
-0.25
-0.255
-0.275
-0.26
-0.27
-0.255
-0.245
-0.225
-0.215
-0.215
-0.21
-0.23
-0.24
-0.26
-0.275
-0.3
-0.31
-0.315
-0.33
-0.335
-0.335
-0.33
-0.325
-0.32
-0.325
-0.325
-0.33
-0.34
-0.345
-0.365
-0.37
-0.37
-0.38
-0.35
-0.29
-0.215
-0.105
0.005
0.085
0.15
0.2
0.185
0.1
0.02
-0.045
-0.01
0.155
0.41
0.705
1.0
1.285
1.54
1.745
1.895
1.985
2.015
2.0
1.94
1.87
1.765
1.595
1.36
1.06
0.685
0.26
-0.125
-0.41
-0.57
-0.605
-0.55
-0.475
-0.425
-0.405
-0.425
-0.46
-0.485
-0.525
-0.545
-0.56
-0.55
-0.555
-0.55
-0.545
-0.545
-0.545
-0.555
-0.56
-0.575
-0.59
-0.58
-0.575
-0.58
-0.57
-0.57
-0.57
-0.575
-0.575
-0.595
-0.595
-0.595
-0.6
-0.615
-0.615
-0.62
-0.615
-0.605
-0.605
-0.605
-0.62
-0.63
-0.64
-0.64
-0.66
-0.66
-0.68
-0.675
-0.66
-0.655
-0.66
-0.67
-0.68
-0.69
-0.705
-0.72
-0.735
-0.74
-0.745
-0.745
-0.745
-0.75
-0.75
-0.765
-0.765
-0.78
-0.79
-0.81
-0.815
-0.825
-0.83
-0.83
-0.825
-0.84
-0.825
-0.835
-0.845
-0.855
-0.87
-0.875
-0.885
-0.89
-0.9
-0.89
-0.88
-0.87
-0.885
-0.865
-0.86
-0.86
-0.885
-0.865
-0.865
-0.865
-0.86
-0.845
-0.82
-0.81
-0.79
-0.775
-0.775
-0.785
-0.77
-0.765
-0.755
-0.75
-0.735
-0.72
-0.695
-0.675
-0.67
-0.645
-0.645
-0.625
-0.62
-0.615
-0.605
-0.59
-0.59
-0.575
-0.555
-0.535
-0.52
-0.51
-0.5
-0.505
-0.5
-0.505
-0.51
-0.52
-0.52
-0.52
-0.52
-0.52
-0.515
-0.52
-0.52
-0.53
-0.545
-0.56
-0.57
-0.585
-0.615
-0.605
-0.61
-0.585
-0.575
-0.585
-0.585
-0.58
-0.585
-0.595
-0.595
-0.595
-0.61
-0.6
-0.585
-0.575
-0.56
-0.565
-0.56
