Lead II
-0.195
-0.185
-0.175
-0.16
-0.135
-0.12
-0.11
-0.09
-0.085
-0.09
-0.095
-0.115
-0.115
-0.12
-0.135
-0.14
-0.14
-0.145
-0.16
-0.185
-0.19
-0.215
-0.24
-0.265
-0.28
-0.285
-0.3
-0.28
-0.28
-0.28
-0.285
-0.29
-0.295
-0.31
-0.32
-0.315
-0.31
-0.325
-0.315
-0.31
-0.3
-0.29
-0.315
-0.31
-0.31
-0.32
-0.325
-0.32
-0.32
-0.315
-0.305
-0.31
-0.315
-0.33
-0.32
-0.335
-0.365
-0.42
-0.475
-0.545
-0.58
-0.545
-0.395
-0.145
0.175
0.54
0.895
1.185
1.34
1.31
1.04
0.615
0.135
-0.25
-0.47
-0.555
-0.55
-0.525
-0.52
-0.58
-0.675
-0.79
-0.9
-0.99
-1.025
-1.045
-1.02
-0.99
-0.935
-0.895
-0.82
-0.75
-0.68
-0.61
-0.535
-0.475
-0.435
-0.4
-0.375
-0.35
-0.335
-0.325
-0.315
-0.31
-0.31
-0.305
-0.305
-0.305
-0.305
-0.305
-0.3
-0.295
-0.28
-0.275
-0.27
-0.27
-0.275
-0.285
-0.285
-0.29
-0.285
-0.28
-0.275
-0.275
-0.255
-0.25
-0.26
-0.25
-0.25
-0.25
-0.265
-0.275
-0.27
-0.26
-0.24
-0.235
-0.225
-0.215
-0.23
-0.215
-0.22
-0.22
-0.22
-0.22
-0.215
-0.21
-0.195
-0.175
-0.16
-0.15
-0.155
-0.15
-0.16
-0.15
-0.14
-0.14
-0.135
-0.125
-0.12
-0.105
-0.095
-0.08
-0.075
-0.065
-0.07
-0.06
-0.065
-0.04
-0.035
-0.03
-0.01
-0.005
0.005
0.02
0.02
0.035
0.035
0.045
0.05
0.065
0.075
0.075
0.095
0.1
0.115
0.125
0.13
0.135
0.135
0.135
0.135
0.135
0.15
0.16
0.17
0.19
0.195
0.205
0.215
0.21
0.205
0.21
0.19
0.19
0.18
0.165
0.16
0.15
0.155
0.14
0.125
0.105
0.085
0.07
0.05
0.02
0.005
-0.01
-0.025
-0.04
-0.055
-0.065
-0.08
-0.1
-0.12
-0.135
-0.16
-0.165
-0.155
-0.185
-0.18
-0.185
-0.185
-0.19
-0.2
-0.195
-0.215
-0.205
-0.22
-0.235
-0.225
-0.23
-0.22
-0.21
-0.185
-0.19
-0.19
-0.195
-0.2
-0.2
-0.215
-0.205
-0.2
-0.2
-0.19
-0.18
-0.18
-0.18
-0.185
-0.195
-0.205
-0.205
-0.225
-0.235
-0.215
-0.22
-0.21
-0.22
-0.195
-0.18
-0.2
-0.205
-0.22
-0.225
-0.23
-0.235
-0.24
-0.25
-0.245
-0.24
-0.23
-0.235
-0.23
-0.245
-0.26
-0.26
-0.255
-0.26
-0.275
-0.26
-0.26
-0.25
-0.245
-0.245
-0.255
-0.255
-0.26
-0.265
-0.27
-0.275
-0.28
-0.28
-0.275
-0.27
-0.26
-0.255
-0.265
-0.265
-0.275
-0.275
-0.285
-0.29
-0.275
-0.275
-0.275
-0.275
-0.275
-0.265
-0.265
-0.255
-0.265
-0.265
-0.255
-0.265
-0.27
-0.255
-0.23
-0.215
-0.205
-0.2
-0.2
-0.195
-0.185
-0.175
-0.155
-0.15
-0.13
-0.12
-0.11
-0.11
-0.1
-0.105
-0.115
-0.13
-0.145
-0.165
-0.175
-0.2
-0.2
-0.205
-0.225
-0.22
-0.245
-0.26
-0.27
-0.275
-0.295
-0.29
-0.305
-0.31
-0.325
-0.32
-0.32
-0.31
-0.305
-0.3
-0.305
-0.3
-0.305
-0.32
-0.325
-0.33
-0.32
-0.325
-0.32
-0.32
-0.315
-0.32
-0.31
-0.305
-0.3
-0.31
-0.325
-0.33
-0.35
-0.38
-0.44
-0.5
-0.545
-0.53
-0.445
-0.245
0.045
0.41
0.77
1.105
1.335
1.38
1.21
0.82
0.33
-0.1
-0.405
-0.54
-0.555
-0.535
-0.54
-0.57
-0.645
-0.755
-0.885
-0.98
-1.04
-1.07
-1.065
-1.005
-0.945
-0.88
-0.79
-0.71
-0.615
-0.535
-0.47
-0.405
-0.36
-0.345
-0.345
-0.34
-0.34
-0.34
-0.33
-0.335
-0.325
-0.32
-0.305
-0.3
-0.285
-0.28
-0.275
-0.29
-0.3
-0.285
-0.295
-0.285
-0.295
-0.29
-0.27
-0.265
-0.255
-0.245
-0.245
-0.24
-0.245
-0.235
-0.245
-0.255
-0.25
-0.24
-0.235
-0.21
-0.21
-0.2
-0.205
-0.195
-0.19
-0.205
-0.2
-0.2
-0.19
-0.18
-0.18
-0.16
-0.15
-0.13
-0.13
-0.12
-0.115
-0.12
-0.11
-0.12
-0.105
-0.105
-0.085
-0.075
-0.055
-0.045
-0.035
-0.02
-0.02
-0.01
-0.005
0.0
0.01
0.02
0.035
0.045
0.06
0.085
0.09
0.095
0.105
0.11
0.12
0.12
0.125
0.14
0.145
0.15
0.17
0.195
0.195
0.2
0.205
0.2
0.205
0.195
0.195
0.215
0.215
0.23
0.23
0.225
0.215
0.19
0.18
0.16
0.145
0.13
0.12
0.105
0.1
0.08
0.065
0.05
0.045
0.03
0.01
-0.005
-0.04
-0.06
-0.065
-0.08
-0.1
-0.1
-0.095
-0.115
-0.125
-0.14
-0.155
-0.165
-0.185
-0.215
-0.205
-0.215
-0.21
-0.21
-0.195
-0.2
-0.2
-0.21
-0.215
-0.215
-0.22
-0.22
-0.235
-0.23
-0.225
-0.22
-0.2
-0.2
-0.205
-0.205
-0.21
-0.205
-0.22
-0.215
-0.22
-0.23
-0.22
-0.225
-0.21
-0.21
-0.22
-0.215
-0.23
-0.23
-0.25
-0.25
-0.255
-0.245
-0.23
-0.235
-0.235
-0.235
-0.245
-0.26
-0.255
-0.26
-0.275
-0.27
-0.26
-0.265
-0.26
-0.26
-0.255
-0.25
-0.25
-0.25
-0.265
-0.275
-0.285
-0.285
-0.29
-0.285
-0.285
-0.28
-0.27
-0.265
-0.27
-0.265
-0.27
-0.27
-0.29
-0.3
-0.3
-0.305
-0.305
-0.28
-0.26
-0.26
-0.26
-0.265
-0.275
-0.295
-0.31
-0.31
-0.31
-0.31
-0.305
-0.295
-0.27
-0.265
-0.25
-0.255
-0.265
-0.275
-0.29
-0.285
-0.285
-0.28
-0.265
-0.26
-0.245
-0.22
-0.215
-0.21
-0.21
-0.205
-0.21
-0.2
-0.175
-0.15
-0.135
-0.125
-0.115
-0.1
-0.12
-0.12
-0.14
-0.16
-0.175
-0.21
-0.22
-0.245
-0.275
-0.295
-0.3
-0.31
-0.33
-0.33
-0.33
-0.33
-0.33
-0.34
-0.335
-0.34
-0.34
-0.345
-0.34
-0.325
-0.335
-0.335
-0.345
-0.355
-0.355
-0.365
-0.36
-0.36
-0.35
-0.355
-0.345
-0.32
-0.325
-0.33
-0.325
-0.355
-0.41
-0.49
-0.555
-0.565
-0.475
-0.25
0.095
0.51
0.925
1.26
1.42
1.31
0.925
0.375
-0.145
-0.525
-0.7
-0.715
-0.675
-0.63
-0.63
-0.695
-0.785
-0.89
-1.005
-1.06
-1.085
-1.065
-1.025
-0.965
-0.89
-0.805
-0.715
-0.64
-0.595
-0.535
-0.485
-0.445
-0.4
-0.375
-0.36
-0.335
-0.315
-0.305
-0.28
-0.285
-0.28
-0.295
-0.3
-0.31
-0.315
-0.305
-0.295
-0.285
-0.265
-0.26
-0.265
-0.27
-0.285
-0.285
-0.275
-0.28
-0.26
-0.26
-0.25
-0.24
-0.255
-0.245
-0.25
-0.25
-0.235
-0.24
-0.235
-0.24
-0.23
-0.23
-0.215
-0.215
-0.2
-0.19
-0.19
-0.18
-0.17
-0.18
-0.19
-0.19
-0.185
-0.18
-0.15
-0.155
-0.14
-0.125
-0.12
-0.12
-0.14
-0.12
-0.12
-0.12
-0.11
-0.095
-0.09
-0.07
-0.06
-0.04
-0.03
-0.025
-0.025
-0.04
-0.025
-0.035
-0.025
-0.01
0.01
0.03
0.04
0.045
0.045
0.05
0.055
0.06
0.07
0.08
0.09
0.095
0.1
0.12
0.135
0.15
0.155
0.165
0.165
0.155
0.17
0.175
0.195
0.205
0.22
0.21
0.21
0.215
0.215
0.215
0.215
0.2
0.18
0.17
0.16
0.145
0.135
0.135
0.135
0.14
0.115
0.115
0.085
0.06
0.03
0.005
-0.005
-0.04
-0.05
-0.065
-0.07
-0.09
-0.105
-0.11
-0.13
-0.145
-0.145
-0.17
-0.18
-0.185
-0.19
-0.205
-0.205
-0.195
-0.195
-0.195
-0.205
-0.21
-0.225
-0.225
-0.235
-0.225
-0.22
-0.21
-0.2
-0.195
-0.21
-0.21
-0.2
-0.205
-0.205
-0.195
-0.19
-0.185
-0.18
-0.195
-0.19
-0.185
-0.2
-0.215
-0.225
-0.235
-0.24
-0.25
-0.245
-0.24
-0.22
-0.2
-0.2
-0.195
-0.2
-0.205
-0.225
-0.24
-0.245
-0.26
-0.27
-0.26
-0.255
-0.25
-0.255
-0.235
-0.255
-0.245
-0.265
-0.27
-0.28
-0.285
-0.29
-0.295
-0.295
-0.3
-0.28
-0.26
-0.25
-0.27
-0.27
-0.29
-0.29
-0.295
-0.29
-0.3
-0.3
-0.3
-0.29
-0.27
-0.265
-0.255
-0.245
-0.245
-0.245
-0.25
-0.245
-0.22
-0.21
-0.2
-0.195
-0.195
-0.185
-0.175
-0.15
-0.14
-0.145
-0.14
-0.135
-0.135
-0.135
-0.145
-0.16
-0.155
-0.16
-0.16
-0.18
-0.2
-0.23
-0.26
-0.295
-0.315
-0.325
-0.325
-0.31
-0.3
-0.305
-0.3
-0.32
-0.315
-0.32
-0.32
-0.325
-0.33
-0.325
-0.335
-0.33
-0.325
-0.32
-0.335
-0.34
-0.36
-0.355
-0.365
-0.36
-0.355
-0.345
-0.35
-0.335
-0.32
-0.335
-0.335
-0.37
-0.425
-0.47
-0.55
-0.58
-0.555
-0.44
-0.205
0.1
0.465
0.815
1.15
1.34
1.395
1.225
0.845
0.31
-0.21
-0.55
-0.72
-0.725
-0.66
-0.605
-0.6
-0.645
-0.735
-0.84
-0.945
-1.02
-1.065
-1.065
-1.03
-0.99
-0.96
-0.92
-0.855
-0.79
-0.71
-0.65
-0.595
-0.535
-0.475
-0.43
-0.385
-0.345
-0.33
-0.33
-0.335
-0.33
-0.325
-0.315
-0.315
-0.31
-0.31
-0.295
-0.29
-0.275
-0.265
-0.26
-0.26
-0.26
-0.265
-0.27
-0.275
-0.28
-0.27
-0.265
-0.25
-0.24
-0.235
-0.24
-0.235
-0.245
-0.24
-0.245
-0.245
-0.24
-0.225
-0.22
-0.22
-0.215
-0.205
-0.195
-0.185
-0.19
-0.185
-0.19
-0.18
-0.18
-0.185
-0.18
-0.155
-0.155
-0.14
-0.135
-0.14
-0.14
-0.125
-0.14
-0.135
-0.13
-0.12
-0.105
-0.1
-0.09
-0.075
-0.075
-0.07
-0.08
-0.075
-0.07
-0.06
-0.06
-0.045
-0.04
-0.02
-0.01
0.005
0.01
0.03
0.04
0.025
0.015
0.02
0.035
0.045
0.07
0.07
0.095
0.105
0.105
0.115
0.12
0.125
0.125
0.13
0.13
0.145
0.155
0.17
0.175
0.19
0.185
0.18
0.175
0.16
0.14
0.13
0.125
0.11
0.09
0.095
0.085
0.07
0.045
0.03
0.005
-0.015
-0.04
-0.065
-0.075
-0.095
-0.105
-0.115
-0.125
-0.13
-0.15
-0.155
-0.17
-0.19
-0.195
-0.2
-0.215
-0.22
-0.21
-0.215
-0.215
-0.21
-0.21
-0.21
-0.215
-0.215
-0.225
-0.22
-0.21
-0.21
-0.21
-0.205
-0.19
-0.195
-0.195
-0.19
-0.2
-0.2
-0.2
-0.205
-0.21
-0.21
-0.21
-0.205
-0.18
-0.19
-0.19
-0.19
-0.2
-0.2
-0.2
-0.22
-0.22
-0.225
-0.215
-0.22
-0.225
-0.2
-0.205
-0.205
-0.225
-0.23
-0.235
-0.24
-0.25
-0.25
-0.255
-0.25
-0.25
-0.24
-0.245
-0.255
-0.25
-0.25
-0.28
-0.28
-0.28
-0.28
-0.28
-0.26
-0.265
-0.26
-0.26
-0.26
-0.28
-0.275
-0.29
-0.29
-0.3
-0.3
-0.29
-0.29
-0.28
-0.275
-0.28
-0.28
-0.285
-0.295
-0.305
-0.3
-0.3
-0.3
-0.305
-0.295
-0.295
-0.29
-0.295
-0.285
-0.295
-0.29
-0.315
-0.31
-0.31
-0.31
-0.31
-0.305
-0.285
-0.28
-0.28
-0.265
-0.26
-0.255
-0.245
-0.25
-0.255
-0.25
-0.25
-0.235
-0.21
-0.18
-0.165
-0.165
-0.14
-0.135
-0.14
-0.15
-0.16
-0.18
-0.165
-0.165
-0.18
-0.185
-0.205
-0.205
-0.22
-0.23
-0.26
-0.285
-0.29
-0.31
-0.33
-0.33
-0.325
-0.315
-0.325
-0.325
-0.325
-0.335
-0.345
-0.345
-0.345
-0.365
-0.35
-0.35
-0.345
-0.34
-0.35
-0.345
-0.345
-0.345
-0.35
-0.35
-0.36
-0.355
-0.35
-0.34
-0.34
-0.33
-0.345
-0.345
-0.385
-0.445
-0.505
-0.58
-0.59
-0.535
-0.36
-0.095
0.255
0.635
1.015
1.285
1.395
1.295
0.955
0.455
-0.03
-0.38
-0.57
-0.62
-0.605
-0.58
-0.625
-0.685
-0.8
-0.93
-1.03
-1.09
-1.13
-1.11
-1.055
-0.99
-0.89
-0.795
-0.685
-0.6
-0.535
-0.465
-0.435
-0.41
-0.39
-0.375
-0.365
-0.355
-0.34
-0.33
-0.32
-0.335
-0.31
-0.32
-0.33
-0.32
-0.32
-0.315
-0.305
-0.31
-0.29
-0.295
-0.29
-0.285
-0.275
-0.29
-0.29
-0.295
-0.285
-0.285
-0.275
-0.295
-0.27
-0.26
-0.26
-0.255
-0.255
-0.255
-0.255
-0.25
-0.26
-0.25
-0.24
-0.23
-0.21
-0.205
-0.195
-0.19
-0.18
-0.185
-0.18
-0.185
-0.18
-0.18
-0.16
-0.145
-0.13
-0.11
-0.095
-0.085
-0.085
-0.095
-0.09
-0.075
-0.055
-0.06
-0.035
-0.03
-0.015
-0.005
0.01
0.02
0.03
0.03
0.035
0.04
0.045
0.07
0.08
0.1
0.12
0.125
0.145
0.155
0.155
0.155
0.17
0.165
0.175
0.175
0.19
0.2
0.215
0.225
0.235
0.235
0.235
0.235
0.225
0.22
0.225
0.24
0.235
0.245
0.235
0.245
0.225
0.22
0.205
0.195
0.17
0.15
0.135
0.125
0.11
0.1
0.095
0.075
0.06
0.04
0.015
-0.005
-0.02
-0.04
-0.06
-0.07
-0.09
-0.095
-0.105
-0.11
-0.125
-0.125
-0.145
-0.15
-0.165
-0.185
-0.195
-0.2
-0.195
-0.2
-0.19
-0.2
-0.2
-0.205
-0.21
-0.225
-0.225
-0.23
-0.225
-0.23
-0.23
-0.21
-0.215
-0.205
-0.205
-0.205
-0.205
-0.21
-0.21
-0.22
-0.215
-0.22
-0.22
-0.235
-0.22
-0.205
-0.2
-0.2
-0.21
-0.215
-0.21
-0.22
-0.23
-0.225
-0.22
-0.215
-0.215
-0.21
-0.2
-0.205
-0.215
-0.225
-0.23
-0.245
-0.24
-0.235
-0.23
-0.23
-0.225
-0.215
-0.225
-0.23
-0.24
-0.24
-0.25
-0.26
-0.27
-0.265
-0.265
-0.25
-0.255
-0.245
-0.245
-0.245
-0.25
-0.245
-0.265
-0.275
-0.27
-0.28
-0.275
-0.29
-0.28
-0.265
-0.27
-0.25
-0.26
-0.255
-0.265
-0.27
-0.29
-0.285
-0.275
-0.27
-0.275
-0.265
-0.26
-0.26
-0.27
-0.27
-0.265
-0.275
-0.275
-0.28
-0.275
-0.265
-0.265
-0.265
-0.265
-0.27
-0.26
-0.26
-0.245
-0.23
-0.225
-0.23
-0.225
-0.21
-0.205
-0.185
-0.17
-0.16
-0.135
-0.125
-0.11
-0.105
-0.11
-0.105
-0.11
-0.115
-0.12
-0.13
-0.14
-0.155
-0.17
-0.19
-0.195
-0.23
-0.25
-0.265
-0.28
-0.29
-0.29
-0.28
-0.295
-0.29
-0.295
-0.275
-0.295
-0.31
-0.305
-0.295
-0.295
-0.3
-0.295
-0.29
-0.285
-0.295
-0.29
-0.295
-0.305
-0.305
-0.315
-0.305
-0.31
-0.31
-0.32
-0.31
-0.355
-0.42
-0.48
-0.535
-0.525
-0.415
-0.225
0.095
0.48
0.875
1.21
1.41
1.4
1.135
0.675
0.165
-0.245
-0.49
-0.58
-0.58
-0.57
-0.565
-0.615
-0.72
-0.84
-0.94
-1.01
-1.06
-1.06
-1.025
-0.965
-0.885
-0.785
-0.685
-0.59
-0.505
-0.445
-0.395
-0.38
-0.34
-0.33
-0.33
-0.33
-0.325
-0.32
-0.31
-0.305
-0.295
-0.295
-0.275
-0.27
-0.28
-0.285
-0.29
-0.285
-0.285
-0.265
-0.265
-0.25
-0.245
-0.245
-0.235
-0.255
-0.235
-0.23
-0.23
-0.23
-0.23
-0.23
-0.24
-0.23
-0.22
-0.195
-0.21
-0.195
-0.195
-0.2
-0.2
-0.21
-0.205
-0.195
-0.17
-0.16
-0.14
-0.12
-0.12
-0.115
-0.12
-0.115
-0.12
-0.12
-0.115
-0.09
-0.08
-0.075
-0.06
-0.06
-0.06
-0.03
-0.025
-0.01
0.0
0.01
0.015
0.03
0.035
0.04
0.06
0.06
0.085
0.1
0.11
0.125
0.115
0.14
0.14
0.155
0.17
0.185
0.205
0.2
0.2
0.21
0.205
0.2
0.2
0.205
0.215
0.225
0.245
0.25
0.27
0.265
0.265
0.275
0.27
0.265
0.26
0.25
0.255
0.24
0.245
0.24
0.225
0.205
0.19
0.165
0.145
0.135
0.105
0.095
0.095
0.075
0.065
0.035
0.04
0.02
0.005
-0.015
-0.035
-0.05
-0.075
-0.095
-0.105
-0.095
-0.105
-0.105
-0.11
-0.125
-0.14
-0.14
-0.15
-0.175
-0.195
-0.2
-0.215
-0.21
-0.195
-0.195
-0.185
-0.18
-0.19
-0.19
-0.205
-0.21
-0.23
-0.23
-0.245
-0.23
-0.23
-0.215
-0.205
-0.19
-0.205
-0.195
-0.195
-0.195
-0.21
-0.22
-0.23
-0.235
-0.225
-0.225
-0.225
-0.215
-0.215
-0.205
-0.2
-0.22
-0.225
-0.22
-0.23
-0.235
-0.24
-0.23
-0.225
-0.23
-0.24
-0.24
-0.235
-0.235
-0.24
-0.25
-0.255
-0.255
-0.255
-0.25
-0.24
-0.235
-0.23
-0.255
-0.255
-0.27
-0.285
-0.29
-0.275
-0.27
-0.25
-0.245
-0.23
-0.235
-0.26
-0.255
-0.27
-0.275
-0.28
-0.285
-0.28
-0.28
-0.275
-0.265
-0.255
-0.25
-0.25
-0.245
-0.26
-0.27
-0.28
-0.275
-0.27
-0.275
-0.26
-0.255
-0.245
-0.23
-0.225
-0.24
-0.255
-0.255
-0.255
-0.255
-0.255
-0.245
-0.235
-0.21
-0.18
-0.18
-0.165
-0.165
-0.165
-0.165
-0.165
-0.16
-0.13
-0.11
-0.085
-0.07
-0.065
-0.08
-0.085
-0.1
-0.115
-0.12
-0.13
-0.14
-0.145
-0.155
-0.16
-0.17
-0.17
-0.19
-0.215
-0.23
-0.265
-0.27
-0.28
-0.3
-0.3
-0.285
-0.28
-0.27
-0.265
-0.275
-0.275
-0.275
-0.29
-0.29
-0.305
-0.31
-0.32
-0.32
-0.315
-0.315
-0.29
-0.295
-0.27
-0.28
-0.295
-0.3
-0.3
-0.3
-0.285
-0.315
-0.305
-0.345
-0.385
-0.46
-0.515
-0.505
-0.39
-0.18
0.135
0.525
0.91
1.23
1.43
1.41
1.13
0.665
0.115
-0.32
-0.59
-0.67
-0.65
-0.605
-0.575
-0.595
-0.68
-0.76
-0.84
-0.935
-0.98
-0.995
-0.99
-0.965
-0.925
-0.885
-0.835
-0.765
-0.68
-0.6
-0.515
-0.45
-0.395
-0.36
-0.34
-0.32
-0.32
-0.32
-0.305
-0.31
-0.295
-0.27
-0.25
-0.245
-0.245
-0.235
-0.25
-0.25
-0.25
-0.25
-0.255
-0.25
-0.245
-0.23
-0.22
-0.215
-0.215
-0.21
-0.215
-0.22
-0.225
-0.24
-0.225
-0.21
-0.205
-0.19
-0.185
-0.205
-0.205
-0.2
-0.205
-0.2
-0.2
-0.195
-0.185
-0.185
-0.175
-0.17
-0.165
-0.17
-0.165
-0.16
-0.165
-0.15
-0.14
-0.14
-0.145
-0.14
-0.13
-0.125
-0.095
-0.09
-0.08
-0.065
-0.07
-0.07
-0.07
-0.07
-0.06
-0.055
-0.04
-0.02
-0.015
-0.02
-0.015
-0.01
0.005
0.005
0.015
0.02
0.025
0.035
0.045
0.06
0.08
0.1
0.11
0.115
0.12
0.125
0.125
0.13
0.14
0.135
0.145
0.15
0.18
0.185
0.19
0.2
0.195
0.205
0.215
0.22
0.225
0.22
0.225
0.24
0.25
0.245
0.24
0.225
0.21
0.19
0.18
0.16
0.155
0.13
0.13
0.11
0.11
0.1
0.085
0.055
0.035
0.01
-0.02
-0.035
-0.045
-0.055
-0.065
-0.085
-0.08
-0.1
-0.105
-0.125
-0.14
-0.145
-0.165
-0.17
-0.18
-0.185
-0.18
-0.175
-0.165
-0.175
-0.18
-0.175
-0.18
-0.18
-0.185
-0.18
-0.18
-0.18
-0.175
-0.17
-0.165
-0.165
-0.16
-0.16
-0.165
-0.165
-0.175
-0.175
-0.175
-0.17
-0.185
-0.19
-0.17
-0.175
-0.175
-0.175
-0.175
-0.175
-0.185
-0.2
-0.205
-0.2
-0.2
-0.185
-0.19
-0.195
-0.2
-0.2
-0.21
-0.215
-0.23
-0.23
-0.24
-0.235
-0.23
-0.225
-0.225
-0.225
-0.24
-0.24
-0.245
-0.25
-0.255
-0.265
-0.265
-0.26
-0.26
-0.24
-0.235
-0.235
-0.25
-0.24
-0.255
-0.25
-0.255
-0.255
-0.26
-0.265
-0.26
-0.245
-0.24
-0.225
-0.235
-0.235
-0.24
-0.235
-0.24
-0.225
-0.225
-0.215
-0.215
-0.195
-0.195
-0.195
-0.18
-0.17
-0.18
-0.17
-0.155
-0.15
-0.125
-0.115
-0.1
-0.085
-0.08
-0.09
-0.1
-0.105
-0.12
-0.13
-0.145
-0.17
-0.17
-0.185
-0.195
-0.195
-0.215
-0.22
-0.245
-0.255
-0.26
-0.285
-0.295
-0.3
-0.29
-0.29
-0.27
-0.28
-0.29
-0.28
-0.285
-0.3
-0.3
-0.315
-0.315
-0.32
-0.31
-0.32
-0.31
-0.295
-0.29
-0.295
-0.295
-0.295
-0.315
-0.3
-0.31
-0.32
-0.33
-0.35
-0.37
-0.41
-0.485
-0.55
-0.54
-0.48
-0.32
-0.05
0.28
0.66
1.015
1.295
1.42
1.32
1.025
0.56
0.07
-0.285
-0.495
-0.55
-0.545
-0.535
-0.55
-0.6
-0.705
-0.82
-0.91
-0.99
-1.04
-1.035
-1.02
-0.975
-0.915
-0.845
-0.76
-0.68
-0.6
-0.525
-0.465
-0.405
-0.37
-0.35
-0.345
-0.35
-0.33
-0.335
-0.325
-0.325
-0.31
-0.285
-0.285
-0.285
-0.285
-0.28
-0.27
-0.265
-0.27
-0.28
-0.27
-0.275
-0.27
-0.26
-0.245
-0.25
-0.255
-0.24
-0.24
-0.24
-0.255
-0.26
-0.255
-0.245
-0.245
-0.23
-0.21
-0.21
-0.2
-0.2
-0.205
-0.2
-0.2
-0.205
-0.19
-0.18
-0.17
-0.175
-0.16
-0.14
-0.15
-0.14
-0.13
-0.13
-0.13
-0.14
-0.115
-0.105
-0.09
-0.08
-0.06
-0.05
-0.05
-0.035
-0.03
-0.025
-0.015
-0.01
0.0
0.025
0.035
0.05
0.065
0.08
0.095
0.095
0.105
0.11
0.13
0.145
0.15
0.15
0.165
0.19
0.2
0.205
0.21
0.215
0.215
0.23
0.235
0.23
0.245
0.255
0.26
0.25
0.27
0.285
0.27
0.265
0.255
0.225
0.215
0.195
0.2
0.175
0.155
0.155
0.14
0.125
0.095
0.075
0.05
0.03
0.01
-0.02
-0.025
-0.05
-0.06
-0.075
-0.07
-0.09
-0.115
-0.125
-0.125
-0.14
-0.16
-0.18
-0.19
-0.185
-0.185
-0.195
-0.185
-0.175
-0.18
-0.19
-0.19
-0.2
-0.21
-0.215
-0.22
-0.21
-0.2
-0.205
-0.2
-0.19
-0.2
-0.185
-0.19
-0.2
-0.2
-0.205
-0.195
-0.2
-0.195
-0.185
-0.175
-0.175
-0.18
-0.195
-0.18
-0.195
-0.19
-0.195
-0.195
-0.195
-0.205
-0.195
-0.185
-0.18
-0.185
-0.18
-0.2
-0.21
-0.21
-0.22
-0.225
-0.225
-0.22
-0.205
-0.195
-0.205
-0.205
-0.205
-0.215
-0.22
-0.22
-0.24
-0.24
-0.235
-0.23
-0.23
-0.23
-0.21
-0.22
-0.23
-0.23
-0.245
-0.24
-0.25
-0.245
-0.25
-0.25
-0.24
-0.235
-0.23
-0.225
-0.235
-0.24
-0.235
-0.255
-0.265
-0.255
-0.25
-0.25
-0.24
-0.235
-0.23
-0.235
-0.23
-0.245
-0.255
-0.26
-0.27
-0.285
-0.27
-0.265
-0.265
-0.24
-0.245
-0.255
-0.245
-0.25
-0.26
-0.265
-0.275
-0.27
-0.27
-0.27
-0.265
-0.25
-0.25
-0.245
-0.245
-0.255
-0.265
-0.26
-0.265
-0.275
-0.27
-0.27
-0.255
-0.25
-0.25
-0.235
-0.245
-0.245
-0.245
-0.26
-0.26
-0.26
-0.25
-0.245
-0.245
-0.235
-0.23
-0.24
-0.235
-0.245
-0.235
-0.235
-0.23
-0.23
-0.225
-0.195
-0.2
-0.19
-0.175
-0.17
-0.16
-0.15
-0.145
-0.13
-0.115
-0.095
-0.085
-0.07
-0.075
-0.08
-0.09
-0.1
-0.115
-0.145
-0.145
-0.16
-0.17
-0.195
-0.205
-0.23
-0.235
-0.235
-0.245
-0.26
-0.26
-0.275
-0.285
-0.285
-0.29
-0.295
-0.3
-0.295
-0.29
-0.285
-0.29
-0.3
-0.295
-0.285
-0.3
-0.305
-0.315
-0.305
-0.305
-0.305
-0.3
-0.3
-0.285
-0.295
-0.3
-0.32
-0.355
-0.41
-0.475
-0.535
-0.555
-0.485
-0.32
-0.06
0.265
0.65
1.015
1.3
1.46
1.415
1.12
0.665
0.175
-0.225
-0.45
-0.525
-0.52
-0.505
-0.5
-0.56
-0.66
-0.79
-0.915
-1.005
-1.045
-1.05
-1.03
-0.97
-0.9
-0.83
-0.735
-0.65
-0.57
-0.505
-0.45
-0.41
-0.38
-0.35
-0.335
-0.315
-0.315
-0.31
-0.3
-0.3
-0.295
-0.3
-0.3
-0.295
-0.29
-0.285
-0.275
-0.265
-0.26
-0.255
-0.255
-0.255
-0.275
-0.275
-0.275
-0.265
-0.255
-0.255
-0.245
-0.245
-0.23
-0.235
-0.21
-0.235
-0.23
-0.24
-0.23
-0.225
-0.225
-0.215
-0.195
-0.19
-0.18
-0.19
-0.18
-0.18
-0.185
-0.185
-0.18
-0.165
-0.17
-0.155
-0.15
-0.14
-0.115
-0.125
-0.13
-0.12
-0.11
-0.12
-0.11
-0.1
-0.095
-0.085
-0.065
-0.045
-0.045
-0.04
-0.035
-0.03
-0.03
-0.04
-0.025
-0.015
-0.005
-0.005
0.01
0.025
0.04
0.055
0.055
0.07
0.065
0.08
0.09
0.095
0.11
0.12
0.13
0.15
0.155
0.16
0.17
0.185
0.18
0.18
0.17
0.18
0.195
0.2
0.22
0.23
0.245
0.245
0.255
0.26
0.25
0.25
0.225
0.225
0.22
0.22
0.205
0.215
0.19
0.185
0.17
0.15
0.13
0.1
0.075
0.065
0.055
0.05
0.04
0.025
0.01
-0.005
-0.02
-0.05
-0.06
-0.07
-0.085
-0.095
-0.115
-0.12
-0.13
-0.15
-0.14
-0.145
-0.16
-0.16
-0.175
-0.19
-0.185
-0.205
-0.2
-0.215
-0.205
-0.2
-0.19
-0.18
-0.17
-0.175
-0.175
-0.175
-0.175
-0.185
-0.19
-0.18
-0.185
-0.18
-0.18
-0.18
-0.185
-0.195
-0.195
-0.195
-0.21
-0.205
-0.205
-0.195
-0.2
-0.19
-0.19
-0.2
-0.21
-0.22
-0.225
-0.235
-0.245
-0.235
-0.23
-0.22
-0.225
-0.22
-0.215
-0.225
-0.225
-0.23
-0.23
-0.245
-0.255
-0.265
-0.265
-0.26
-0.255
-0.245
-0.25
-0.245
-0.25
-0.255
-0.255
-0.27
-0.275
-0.27
-0.27
-0.25
-0.255
-0.245
-0.26
-0.255
-0.265
-0.275
-0.285
-0.29
-0.305
-0.285
-0.285
-0.26
-0.25
-0.25
-0.25
-0.27
-0.265
-0.265
-0.27
-0.275
-0.28
-0.285
-0.3
-0.265
-0.275
-0.275
-0.26
-0.27
-0.265
-0.265
-0.27
-0.28
-0.28
-0.29
-0.29
-0.27
-0.255
-0.245
-0.24
-0.245
-0.245
-0.25
-0.255
-0.26
-0.26
-0.26
-0.25
-0.24
-0.23
-0.21
-0.21
-0.205
-0.195
-0.2
-0.18
-0.18
-0.175
-0.145
-0.12
-0.085
-0.07
-0.06
-0.06
-0.085
-0.09
-0.11
-0.12
-0.135
-0.145
-0.16
-0.155
-0.17
-0.18
-0.195
-0.215
-0.23
-0.225
-0.245
-0.255
-0.28
-0.29
-0.29
-0.295
-0.29
-0.28
-0.275
-0.265
-0.27
-0.275
-0.275
-0.305
-0.295
-0.295
-0.305
-0.3
-0.305
-0.305
-0.305
-0.3
-0.3
-0.275
-0.28
-0.285
-0.295
-0.3
-0.305
-0.325
-0.335
-0.365
-0.415
-0.47
-0.505
-0.495
-0.395
-0.19
0.115
0.47
0.855
1.185
1.39
1.425
1.205
0.765
0.195
-0.26
-0.555
-0.67
-0.665
-0.645
-0.6
-0.63
-0.7
-0.8
-0.895
-0.955
-1.0
-1.005
-0.985
-0.945
-0.9
-0.84
-0.76
-0.675
-0.59
-0.5
-0.43
-0.37
-0.35
-0.325
-0.315
-0.3
-0.31
-0.315
-0.31
-0.305
-0.295
-0.285
-0.27
-0.26
-0.25
-0.245
-0.235
-0.23
-0.24
-0.24
-0.255
-0.255
-0.265
-0.265
-0.255
-0.235
-0.22
-0.215
-0.22
-0.235
-0.24
-0.245
-0.24
-0.23
-0.215
-0.21
-0.195
-0.18
-0.185
-0.185
-0.18
-0.175
-0.175
-0.17
-0.16
-0.18
-0.165
-0.17
-0.155
-0.145
-0.135
-0.13
-0.13
-0.11
-0.11
-0.095
-0.1
-0.095
-0.095
-0.075
-0.065
-0.06
-0.07
-0.055
-0.055
-0.045
-0.045
-0.03
-0.025
-0.005
0.005
0.02
0.035
0.045
0.05
0.055
0.07
0.06
0.05
0.05
0.055
0.08
0.09
0.105
0.12
0.15
0.15
0.145
0.15
0.155
0.16
0.155
0.17
0.165
0.18
0.185
0.195
0.21
0.215
0.24
0.245
0.23
0.235
0.225
0.21
0.205
0.205
0.19
0.19
0.19
0.18
0.17
0.165
0.145
0.125
0.095
0.07
0.05
0.035
0.025
0.02
0.0
-0.005
-0.03
-0.045
-0.06
-0.075
-0.095
-0.1
-0.11
-0.12
-0.135
-0.135
-0.145
-0.155
-0.165
-0.165
-0.175
-0.17
-0.18
-0.16
-0.175
-0.175
-0.175
-0.17
-0.16
-0.175
-0.16
-0.16
-0.17
-0.16
-0.17
-0.185
-0.175
-0.165
-0.16
-0.16
-0.15
-0.16
-0.155
-0.165
-0.165
-0.18
-0.17
-0.17
-0.18
-0.185
-0.18
-0.17
-0.165
-0.16
-0.16
-0.17
-0.175
-0.18
-0.2
-0.205
-0.195
-0.2
-0.2
-0.19
-0.18
-0.19
-0.19
-0.2
-0.2
-0.215
-0.225
-0.23
-0.23
-0.23
-0.225
-0.225
-0.215
-0.215
-0.22
-0.225
-0.23
-0.245
-0.245
-0.255
-0.26
-0.265
-0.26
-0.24
-0.24
-0.235
-0.24
-0.245
-0.255
-0.255
-0.27
-0.275
-0.27
-0.265
-0.26
-0.255
-0.245
-0.255
-0.245
-0.265
-0.265
-0.265
-0.27
-0.26
-0.265
-0.275
-0.275
-0.26
-0.245
-0.255
-0.245
-0.255
-0.265
-0.27
-0.255
-0.245
-0.235
-0.22
-0.21
-0.195
-0.185
-0.185
-0.18
-0.165
-0.16
-0.16
-0.135
-0.12
-0.11
-0.1
-0.1
-0.095
-0.105
-0.115
-0.125
-0.15
-0.16
-0.17
-0.2
-0.215
-0.225
-0.235
-0.26
-0.275
-0.27
-0.28
-0.29
-0.305
-0.3
-0.3
-0.315
-0.32
-0.325
-0.32
-0.32
-0.32
-0.31
-0.305
-0.315
-0.33
-0.315
-0.33
-0.325
-0.325
-0.325
-0.315
-0.325
-0.325
-0.31
-0.32
-0.33
-0.34
-0.375
-0.435
-0.505
-0.565
-0.565
-0.47
-0.245
0.085
0.475
0.885
1.22
1.385
1.32
0.99
0.505
0.005
-0.35
-0.55
-0.585
-0.585
-0.57
-0.585
-0.67
-0.765
-0.885
-0.97
-1.03
-1.045
-1.025
-0.99
-0.92
-0.845
-0.765
-0.675
-0.595
-0.52
-0.46
-0.42
-0.41
-0.38
-0.365
-0.36
-0.355
-0.33
-0.315
-0.315
-0.31
-0.31
-0.315
-0.315
-0.31
-0.315
-0.315
-0.31
-0.3
-0.3
-0.285
-0.28
-0.29
-0.29
-0.285
-0.29
-0.285
-0.285
-0.28
-0.275
-0.265
-0.26
-0.26
-0.255
-0.25
-0.25
-0.255
-0.25
-0.25
-0.255
-0.25
-0.235
-0.235
-0.225
-0.205
-0.2
-0.2
-0.195
-0.195
-0.19
-0.205
-0.195
-0.185
-0.17
-0.155
-0.15
-0.135
-0.13
-0.13
-0.135
-0.115
-0.12
-0.11
-0.105
-0.105
-0.09
-0.07
-0.055
-0.035
-0.03
-0.015
-0.02
-0.02
-0.015
-0.01
0.0
0.015
0.02
0.03
0.045
0.065
0.07
0.07
0.09
0.08
0.09
0.08
0.095
0.105
0.11
0.12
0.14
0.15
0.15
0.155
0.165
0.16
0.17
0.16
0.165
0.16
0.175
0.175
0.18
0.175
0.17
0.15
0.14
0.12
0.1
0.085
0.075
0.06
0.055
0.03
0.01
0.0
-0.005
-0.025
-0.045
-0.07
-0.085
-0.12
-0.14
-0.14
-0.15
-0.15
-0.165
-0.165
-0.17
-0.18
-0.19
-0.2
-0.205
-0.225
-0.225
-0.23
-0.23
-0.225
-0.22
-0.22
-0.23
-0.21
-0.225
-0.225
-0.225
-0.23
-0.22
-0.235
-0.23
-0.21
-0.195
-0.19
-0.19
-0.19
-0.205
-0.195
-0.205
-0.21
-0.205
-0.205
-0.2
-0.195
-0.2
-0.2
-0.185
-0.19
-0.19
-0.21
-0.23
