Lead II
-0.465
-0.465
-0.465
-0.455
-0.46
-0.45
-0.46
-0.45
-0.445
-0.42
-0.41
-0.4
-0.4
-0.375
-0.35
-0.31
-0.265
-0.21
-0.17
-0.155
-0.155
-0.12
-0.1
-0.09
-0.085
-0.055
-0.045
-0.035
-0.05
-0.08
-0.105
-0.125
-0.145
-0.135
-0.11
-0.09
-0.105
-0.135
-0.145
-0.155
-0.18
-0.205
-0.235
-0.26
-0.275
-0.29
-0.3
-0.305
-0.335
-0.36
-0.38
-0.38
-0.355
-0.32
-0.28
-0.215
-0.025
0.415
1.05
1.605
1.77
1.59
1.35
1.215
1.165
1.1
0.99
0.88
0.755
0.665
0.58
0.49
0.385
0.25
0.105
-0.025
-0.15
-0.285
-0.435
-0.585
-0.765
-0.975
-1.17
-1.37
-1.565
-1.75
-1.95
-2.115
-2.23
-2.315
-2.36
-2.39
-2.425
-2.435
-2.455
-2.52
-2.61
-2.68
-2.705
-2.74
-2.745
-2.765
-2.765
-2.71
-2.61
-2.46
-2.315
-2.16
-2.0
-1.845
-1.71
-1.585
-1.49
-1.42
-1.355
-1.3
-1.25
-1.185
-1.105
-1.065
-1.055
-1.045
-1.025
-0.965
-0.88
-0.8
-0.755
-0.7
-0.645
-0.565
-0.49
-0.39
-0.32
-0.26
-0.2
-0.125
-0.04
0.04
0.11
0.155
0.195
0.235
0.275
0.31
0.325
0.345
0.355
0.38
0.415
0.45
0.48
0.495
0.505
0.55
0.575
0.62
0.655
0.67
0.675
0.715
0.755
0.8
0.84
0.87
0.89
0.925
0.96
0.995
1.025
1.045
1.065
1.1
1.135
1.17
1.18
1.195
1.21
1.24
1.275
1.295
1.3
1.315
1.31
1.315
1.325
1.34
1.335
1.325
1.305
1.315
1.295
1.29
1.27
1.245
1.215
1.185
1.16
1.145
1.095
1.06
1.01
0.975
0.95
0.91
0.865
0.82
0.76
0.725
0.68
0.645
0.59
0.52
0.445
0.41
0.37
0.325
0.275
0.225
0.18
0.15
0.115
0.07
0.02
-0.01
-0.055
-0.075
-0.1
-0.115
-0.15
-0.195
-0.23
-0.235
-0.245
-0.26
-0.265
-0.285
-0.3
-0.3
-0.305
-0.29
-0.315
-0.32
-0.345
-0.34
-0.335
-0.34
-0.345
-0.355
-0.37
-0.36
-0.36
-0.345
-0.35
-0.36
-0.365
-0.365
-0.35
-0.34
-0.34
-0.345
-0.355
-0.325
-0.295
-0.275
-0.26
-0.255
-0.225
-0.185
-0.145
-0.105
-0.08
-0.06
-0.04
-0.03
-0.01
0.0
0.025
0.05
0.02
0.015
0.0
-0.02
-0.035
-0.055
-0.065
-0.045
-0.035
-0.035
-0.055
-0.06
-0.07
-0.075
-0.095
-0.12
-0.145
-0.175
-0.195
-0.225
-0.25
-0.265
-0.305
-0.335
-0.365
-0.38
-0.39
-0.41
-0.44
-0.47
-0.485
-0.495
-0.5
-0.5
-0.51
-0.525
-0.55
-0.53
-0.53
-0.54
-0.53
-0.535
-0.53
-0.54
-0.53
-0.53
-0.54
-0.54
-0.545
-0.55
-0.54
-0.545
-0.545
-0.555
-0.555
-0.545
-0.535
-0.535
-0.54
-0.555
-0.565
-0.56
-0.55
-0.545
-0.555
-0.555
-0.555
-0.555
-0.54
-0.55
-0.545
-0.55
-0.555
-0.55
-0.53
-0.525
-0.535
-0.545
-0.545
-0.54
-0.53
-0.51
-0.525
-0.53
-0.525
-0.505
-0.495
-0.485
-0.48
-0.465
-0.455
-0.415
-0.35
-0.22
0.085
0.645
1.28
1.71
1.695
1.44
1.245
1.16
1.11
1.035
0.95
0.855
0.775
0.69
0.615
0.555
0.475
0.39
0.275
0.18
0.05
-0.06
-0.19
-0.335
-0.49
-0.635
-0.785
-0.925
-1.04
-1.175
-1.34
-1.485
-1.605
-1.685
-1.725
-1.785
-1.835
-1.9
-1.98
-2.06
-2.155
-2.235
-2.3
-2.355
-2.425
-2.47
-2.5
-2.465
-2.39
-2.29
-2.17
-2.02
-1.86
-1.66
-1.53
-1.445
-1.395
-1.345
-1.26
-1.21
-1.165
-1.125
-1.1
-1.065
-1.045
-1.03
-0.995
-0.96
-0.905
-0.83
-0.765
-0.695
-0.64
-0.585
-0.535
-0.46
-0.385
-0.31
-0.23
-0.175
-0.125
-0.03
0.035
0.085
0.11
0.135
0.14
0.145
0.185
0.2
0.215
0.22
0.24
0.265
0.295
0.315
0.33
0.345
0.355
0.38
0.415
0.45
0.46
0.485
0.495
0.53
0.565
0.59
0.625
0.64
0.665
0.695
0.725
0.765
0.785
0.805
0.82
0.84
0.87
0.91
0.925
0.95
0.97
0.995
1.02
1.035
1.05
1.05
1.055
1.07
1.085
1.08
1.085
1.07
1.07
1.07
1.075
1.08
1.07
1.06
1.045
1.035
1.04
1.035
1.035
1.015
1.015
1.015
1.03
1.03
1.0
0.975
0.945
0.91
0.88
0.845
0.82
0.765
0.7
0.62
0.56
0.5
0.445
0.4
0.355
0.335
0.29
0.255
0.22
0.17
0.115
0.085
0.07
0.015
-0.035
-0.1
-0.155
-0.175
-0.205
-0.245
-0.285
-0.33
-0.375
-0.39
-0.41
-0.42
-0.43
-0.455
-0.49
-0.515
-0.51
-0.515
-0.55
-0.565
-0.575
-0.57
-0.575
-0.57
-0.575
-0.585
-0.59
-0.6
-0.6
-0.59
-0.595
-0.615
-0.6
-0.61
-0.59
-0.6
-0.61
-0.615
-0.615
-0.605
-0.605
-0.595
-0.605
-0.61
-0.62
-0.6
-0.585
-0.58
-0.58
-0.59
-0.605
-0.605
-0.58
-0.58
-0.58
-0.595
-0.61
-0.6
-0.58
-0.565
-0.57
-0.585
-0.595
-0.58
-0.57
-0.58
-0.595
-0.61
-0.615
-0.595
-0.59
-0.57
-0.58
-0.605
-0.615
-0.595
-0.585
-0.585
-0.59
-0.595
-0.585
-0.595
-0.57
-0.56
-0.57
-0.57
-0.575
-0.57
-0.56
-0.555
-0.555
-0.56
-0.565
-0.565
-0.56
-0.545
-0.545
-0.545
-0.55
-0.535
-0.535
-0.515
-0.525
-0.54
-0.54
-0.52
-0.52
-0.5
-0.51
-0.515
-0.535
-0.52
-0.5
-0.48
-0.49
-0.495
-0.505
-0.495
-0.485
-0.48
-0.48
-0.485
-0.485
-0.465
-0.46
-0.46
-0.465
-0.47
-0.47
-0.45
-0.425
-0.42
-0.425
-0.42
-0.4
-0.38
-0.34
-0.29
-0.195
0.005
0.495
1.13
1.635
1.675
1.475
1.29
1.185
1.13
1.07
0.98
0.865
0.78
0.685
0.605
0.53
0.44
0.345
0.225
0.09
-0.06
-0.195
-0.31
-0.47
-0.625
-0.8
-0.99
-1.17
-1.35
-1.52
-1.675
-1.835
-1.935
-2.015
-2.075
-2.135
-2.195
-2.26
-2.345
-2.425
-2.5
-2.55
-2.605
-2.675
-2.715
-2.72
-2.68
-2.59
-2.44
-2.27
-2.05
-1.86
-1.685
-1.545
-1.455
-1.395
-1.32
-1.265
-1.2
-1.155
-1.1
-1.065
-1.02
-0.995
-0.95
-0.92
-0.88
-0.83
-0.745
-0.66
-0.6
-0.53
-0.48
-0.42
-0.32
-0.22
-0.115
-0.025
0.075
0.18
0.295
0.415
0.52
0.575
0.62
0.625
0.66
0.71
0.745
0.79
0.82
0.84
0.85
0.865
0.875
0.865
0.875
0.89
0.915
0.945
0.98
1.025
1.03
1.04
1.07
1.095
1.105
1.11
1.115
1.13
1.16
1.175
1.19
1.2
1.215
1.205
1.24
1.25
1.27
1.27
1.28
1.28
1.305
1.31
1.31
1.325
1.325
1.3
1.295
1.29
1.265
1.24
1.225
1.195
1.18
1.16
1.13
1.09
1.04
0.995
0.965
0.935
0.885
0.825
0.785
0.72
0.665
0.635
0.585
0.525
0.465
0.395
0.335
0.295
0.235
0.17
0.12
0.055
0.01
-0.025
-0.06
-0.1
-0.155
-0.205
-0.23
-0.255
-0.29
-0.325
-0.36
-0.39
-0.4
-0.415
-0.42
-0.445
-0.485
-0.495
-0.505
-0.485
-0.515
-0.51
-0.525
-0.555
-0.56
-0.54
-0.53
-0.54
-0.55
-0.55
-0.55
-0.545
-0.55
-0.55
-0.565
-0.565
-0.55
-0.55
-0.545
-0.57
-0.565
-0.58
-0.58
-0.565
-0.56
-0.555
-0.57
-0.56
-0.54
-0.535
-0.54
-0.535
-0.555
-0.555
-0.545
-0.545
-0.535
-0.545
-0.545
-0.55
-0.53
-0.515
-0.52
-0.52
-0.52
-0.52
-0.485
-0.48
-0.475
-0.48
-0.48
-0.5
-0.49
-0.49
-0.485
-0.49
-0.51
-0.51
-0.51
-0.505
-0.495
-0.5
-0.515
-0.51
-0.51
-0.495
-0.495
-0.505
-0.515
-0.505
-0.495
-0.485
-0.495
-0.5
-0.515
-0.51
-0.515
-0.5
-0.49
-0.5
-0.5
-0.49
-0.485
-0.47
-0.485
-0.495
-0.495
-0.495
-0.475
-0.465
-0.47
-0.49
-0.495
-0.5
-0.49
-0.47
-0.465
-0.465
-0.48
-0.475
-0.455
-0.455
-0.46
-0.465
-0.465
-0.475
-0.47
-0.47
-0.445
-0.45
-0.445
-0.47
-0.475
-0.45
-0.445
-0.44
-0.45
-0.465
-0.45
-0.435
-0.425
-0.435
-0.43
-0.435
-0.425
-0.4
-0.39
-0.365
-0.365
-0.34
-0.295
-0.215
-0.025
0.36
0.95
1.5
1.76
1.645
1.43
1.285
1.215
1.15
1.07
0.98
0.89
0.785
0.7
0.61
0.515
0.41
0.31
0.165
0.04
-0.12
-0.275
-0.445
-0.62
-0.825
-1.02
-1.215
-1.375
-1.525
-1.675
-1.835
-1.97
-2.07
-2.125
-2.175
-2.2
-2.24
-2.3
-2.385
-2.475
-2.51
-2.555
-2.615
-2.67
-2.695
-2.645
-2.525
-2.355
-2.185
-2.04
-1.87
-1.67
-1.525
-1.425
-1.39
-1.325
-1.28
-1.21
-1.15
-1.115
-1.115
-1.115
-1.11
-1.06
-0.98
-0.91
-0.835
-0.775
-0.73
-0.67
-0.625
-0.56
-0.51
-0.445
-0.375
-0.295
-0.225
-0.17
-0.11
-0.06
-0.01
0.03
0.055
0.065
0.07
0.085
0.095
0.125
0.155
0.18
0.195
0.215
0.23
0.25
0.27
0.3
0.33
0.345
0.365
0.41
0.435
0.47
0.48
0.5
0.53
0.575
0.62
0.65
0.67
0.7
0.73
0.77
0.8
0.835
0.855
0.865
0.885
0.92
0.935
0.955
0.975
0.97
0.975
0.99
1.0
1.0
1.01
0.995
0.99
0.99
0.975
0.965
0.94
0.925
0.895
0.865
0.86
0.83
0.795
0.745
0.705
0.67
0.645
0.6
0.55
0.505
0.445
0.395
0.36
0.31
0.265
0.21
0.15
0.115
0.065
0.02
-0.02
-0.07
-0.135
-0.16
-0.18
-0.21
-0.23
-0.27
-0.31
-0.32
-0.345
-0.345
-0.375
-0.4
-0.415
-0.43
-0.43
-0.435
-0.45
-0.46
-0.475
-0.46
-0.46
-0.475
-0.475
-0.485
-0.495
-0.48
-0.485
-0.48
-0.505
-0.515
-0.52
-0.525
-0.5
-0.49
-0.5
-0.515
-0.53
-0.52
-0.515
-0.51
-0.525
-0.53
-0.53
-0.53
-0.52
-0.515
-0.505
-0.525
-0.52
-0.5
-0.5
-0.5
-0.49
-0.5
-0.49
-0.49
-0.475
-0.465
-0.475
-0.485
-0.49
-0.49
-0.48
-0.47
-0.47
-0.48
-0.495
-0.49
-0.475
-0.48
-0.46
-0.485
-0.5
-0.495
-0.48
-0.475
-0.495
-0.5
-0.505
-0.49
-0.475
-0.47
-0.475
-0.49
-0.49
-0.49
-0.47
-0.465
-0.485
-0.49
-0.49
-0.48
-0.485
-0.465
-0.475
-0.475
-0.48
-0.455
-0.43
-0.4
-0.4
-0.395
-0.395
-0.35
-0.315
-0.27
-0.24
-0.215
-0.2
-0.165
-0.16
-0.14
-0.13
-0.095
-0.095
-0.075
-0.08
-0.11
-0.13
-0.155
-0.175
-0.165
-0.16
-0.155
-0.16
-0.18
-0.195
-0.19
-0.21
-0.23
-0.26
-0.29
-0.32
-0.33
-0.34
-0.355
-0.385
-0.4
-0.435
-0.44
-0.435
-0.425
-0.43
-0.41
-0.385
-0.3
-0.055
0.455
1.09
1.615
1.64
1.41
1.205
1.1
1.06
0.985
0.88
0.79
0.71
0.62
0.545
0.47
0.365
0.27
0.16
0.055
-0.075
-0.21
-0.355
-0.515
-0.65
-0.8
-0.96
-1.135
-1.315
-1.46
-1.605
-1.76
-1.85
-1.915
-1.98
-1.995
-2.05
-2.125
-2.245
-2.35
-2.43
-2.48
-2.535
-2.585
-2.605
-2.525
-2.405
-2.24
-2.06
-1.87
-1.69
-1.565
-1.505
-1.455
-1.41
-1.35
-1.29
-1.265
-1.245
-1.225
-1.21
-1.19
-1.155
-1.09
-1.02
-0.945
-0.865
-0.805
-0.745
-0.685
-0.61
-0.525
-0.425
-0.33
-0.255
-0.18
-0.125
-0.065
-0.045
-0.015
0.0
0.025
0.04
0.075
0.11
0.145
0.165
0.19
0.2
0.235
0.265
0.295
0.32
0.355
0.36
0.405
0.455
0.48
0.515
0.555
0.585
0.62
0.68
0.73
0.755
0.78
0.805
0.85
0.885
0.915
0.93
0.95
0.955
0.985
1.005
1.02
1.025
1.03
1.025
1.03
1.03
1.04
1.015
0.99
0.98
0.98
0.975
0.95
0.915
0.875
0.835
0.81
0.785
0.75
0.69
0.645
0.6
0.575
0.53
0.5
0.44
0.385
0.31
0.26
0.21
0.16
0.115
0.065
0.025
-0.035
-0.06
-0.11
-0.155
-0.205
-0.245
-0.26
-0.275
-0.305
-0.325
-0.34
-0.38
-0.38
-0.39
-0.39
-0.39
-0.425
-0.455
-0.45
-0.435
-0.44
-0.455
-0.465
-0.475
-0.465
-0.465
-0.465
-0.47
-0.475
-0.485
-0.48
-0.475
-0.475
-0.47
-0.48
-0.465
-0.445
-0.42
-0.39
-0.375
-0.34
-0.315
-0.26
-0.215
-0.175
-0.16
-0.145
-0.13
-0.105
-0.09
-0.075
-0.075
-0.085
-0.125
-0.155
-0.165
-0.185
-0.18
-0.19
-0.17
-0.165
-0.16
-0.165
-0.185
-0.21
-0.23
-0.255
-0.28
-0.295
-0.32
-0.345
-0.39
-0.425
-0.445
-0.465
-0.49
-0.505
-0.54
-0.535
-0.545
-0.565
-0.58
-0.605
-0.62
-0.635
-0.635
-0.64
-0.64
-0.65
-0.655
-0.625
-0.63
-0.625
-0.63
-0.64
-0.655
-0.64
-0.64
-0.64
-0.64
-0.64
-0.65
-0.64
-0.63
-0.635
-0.655
-0.655
-0.67
-0.66
-0.645
-0.63
-0.64
-0.65
-0.645
-0.64
-0.64
-0.635
-0.645
-0.64
-0.66
-0.635
-0.615
-0.615
-0.64
-0.65
-0.67
-0.67
-0.64
-0.625
-0.625
-0.62
-0.61
-0.605
-0.595
-0.61
-0.625
-0.62
-0.6
-0.59
-0.57
-0.55
-0.525
-0.485
-0.415
-0.22
0.205
0.84
1.475
1.705
1.535
1.275
1.13
1.08
1.015
0.91
0.785
0.685
0.61
0.53
0.44
0.34
0.21
0.085
-0.03
-0.165
-0.3
-0.46
-0.635
-0.83
-1.025
-1.215
-1.42
-1.615
-1.81
-1.995
-2.135
-2.26
-2.335
-2.37
-2.415
-2.45
-2.475
-2.545
-2.64
-2.72
-2.765
-2.77
-2.775
-2.79
-2.77
-2.705
-2.58
-2.425
-2.245
-2.04
-1.84
-1.675
-1.575
-1.485
-1.41
-1.325
-1.255
-1.195
-1.135
-1.075
-1.04
-1.025
-0.99
-0.94
-0.875
-0.765
-0.695
-0.61
-0.555
-0.495
-0.43
-0.355
-0.265
-0.175
-0.095
-0.015
0.055
0.12
0.185
0.22
0.245
0.255
0.275
0.31
0.35
0.385
0.385
0.4
0.43
0.455
0.505
0.535
0.56
0.59
0.62
0.675
0.71
0.74
0.78
0.81
0.84
0.905
0.95
1.0
1.03
1.05
1.085
1.13
1.17
1.2
1.225
1.235
1.24
1.275
1.3
1.325
1.32
1.32
1.32
1.32
1.325
1.325
1.305
1.28
1.255
1.25
1.265
1.26
1.245
1.23
1.215
1.21
1.205
1.2
1.17
1.125
1.105
1.09
1.07
1.035
1.01
0.955
0.88
0.795
0.715
0.63
0.565
0.49
0.455
0.41
0.365
0.3
0.245
0.175
0.12
0.065
0.0
-0.05
-0.105
-0.15
-0.205
-0.23
-0.285
-0.325
-0.37
-0.41
-0.435
-0.465
-0.475
-0.49
-0.52
-0.54
-0.56
-0.57
-0.555
-0.555
-0.56
-0.58
-0.595
-0.6
-0.59
-0.605
-0.6
-0.6
-0.61
-0.615
-0.605
-0.605
-0.61
-0.61
-0.625
-0.615
-0.61
-0.61
-0.62
-0.625
-0.625
-0.615
-0.6
-0.595
-0.595
-0.615
-0.615
-0.61
-0.61
-0.6
-0.59
-0.61
-0.605
-0.595
-0.59
-0.59
-0.585
-0.595
-0.595
-0.595
-0.58
-0.585
-0.585
-0.595
-0.595
-0.6
-0.595
-0.585
-0.595
-0.605
-0.61
-0.605
-0.595
-0.605
-0.605
-0.605
-0.61
-0.605
-0.595
-0.59
-0.595
-0.595
-0.6
-0.6
-0.59
-0.575
-0.59
-0.6
-0.605
-0.585
-0.595
-0.575
-0.57
-0.58
-0.59
-0.575
-0.57
-0.56
-0.565
-0.57
-0.58
-0.57
-0.565
-0.555
-0.565
-0.565
-0.57
-0.56
-0.555
-0.555
-0.55
-0.56
-0.55
-0.545
-0.535
-0.535
-0.525
-0.53
-0.535
-0.53
-0.51
-0.505
-0.515
-0.525
-0.525
-0.52
-0.505
-0.495
-0.495
-0.49
-0.5
-0.47
-0.455
-0.43
-0.41
-0.385
-0.35
-0.25
-0.04
0.395
1.03
1.59
1.745
1.565
1.36
1.25
1.18
1.11
1.01
0.91
0.825
0.735
0.645
0.565
0.48
0.395
0.295
0.17
0.015
-0.13
-0.29
-0.445
-0.575
-0.73
-0.895
-1.1
-1.3
-1.44
-1.57
-1.695
-1.81
-1.915
-1.99
-2.05
-2.09
-2.155
-2.24
-2.335
-2.42
-2.465
-2.51
-2.565
-2.62
-2.65
-2.61
-2.5
-2.325
-2.155
-1.98
-1.805
-1.645
-1.525
-1.435
-1.37
-1.325
-1.28
-1.225
-1.17
-1.12
-1.08
-1.065
-1.06
-1.05
-1.0
-0.95
-0.88
-0.815
-0.755
-0.7
-0.625
-0.55
-0.48
-0.395
-0.3
-0.2
-0.085
0.03
0.14
0.24
0.315
0.375
0.435
0.465
0.485
0.515
0.535
0.58
0.63
0.665
0.655
0.635
0.625
0.635
0.66
0.695
0.725
0.74
0.755
0.77
0.775
0.81
0.83
0.84
0.825
0.845
0.86
0.875
0.89
0.89
0.89
0.89
0.905
0.93
0.95
0.945
0.955
0.96
0.975
1.0
1.005
1.015
1.0
0.995
1.01
1.025
1.03
1.02
1.005
0.995
0.985
0.985
0.97
0.95
0.92
0.89
0.865
0.83
0.805
0.775
0.725
0.68
0.65
0.615
0.57
0.515
0.46
0.405
0.365
0.32
0.275
0.21
0.145
0.085
0.045
0.005
-0.03
-0.09
-0.14
-0.195
-0.23
-0.27
-0.295
-0.33
-0.375
-0.41
-0.425
-0.445
-0.46
-0.48
-0.51
-0.53
-0.55
-0.55
-0.545
-0.565
-0.57
-0.595
-0.59
-0.59
-0.605
-0.61
-0.625
-0.63
-0.63
-0.635
-0.615
-0.635
-0.635
-0.635
-0.62
-0.62
-0.625
-0.625
-0.64
-0.665
-0.65
-0.64
-0.635
-0.635
-0.65
-0.655
-0.64
-0.64
-0.635
-0.625
-0.625
-0.63
-0.62
-0.61
-0.61
-0.61
-0.615
-0.625
-0.61
-0.61
-0.59
-0.595
-0.575
-0.595
-0.59
-0.57
-0.565
-0.565
-0.58
-0.595
-0.575
-0.565
-0.555
-0.56
-0.565
-0.58
-0.575
-0.575
-0.56
-0.565
-0.58
-0.575
-0.57
-0.565
-0.56
-0.57
-0.575
-0.58
-0.585
-0.57
-0.565
-0.57
-0.575
-0.58
-0.575
-0.565
-0.565
-0.565
-0.58
-0.585
-0.56
-0.545
-0.555
-0.565
-0.57
-0.57
-0.555
-0.55
-0.54
-0.55
-0.54
-0.55
-0.545
-0.54
-0.54
-0.545
-0.55
-0.555
-0.535
-0.525
-0.52
-0.535
-0.55
-0.55
-0.54
-0.53
-0.53
-0.53
-0.535
-0.54
-0.535
-0.52
-0.505
-0.525
-0.515
-0.53
-0.515
-0.5
-0.49
-0.5
-0.5
-0.505
-0.515
-0.5
-0.485
-0.5
-0.49
-0.49
-0.48
-0.465
-0.46
-0.445
-0.44
-0.42
-0.395
-0.35
-0.28
-0.12
0.22
0.795
1.41
1.715
1.67
1.455
1.295
1.22
1.18
1.12
1.04
0.95
0.86
0.785
0.725
0.68
0.635
0.56
0.485
0.4
0.325
0.215
0.105
-0.03
-0.18
-0.325
-0.46
-0.605
-0.755
-0.92
-1.1
-1.29
-1.455
-1.6
-1.715
-1.815
-1.88
-1.94
-1.99
-2.025
-2.1
-2.2
-2.305
-2.405
-2.45
-2.515
-2.595
-2.66
-2.67
-2.63
-2.52
-2.375
-2.205
-2.045
-1.9
-1.745
-1.625
-1.545
-1.485
-1.44
-1.395
-1.355
-1.315
-1.245
-1.22
-1.215
-1.2
-1.195
-1.16
-1.115
-1.075
-1.02
-0.975
-0.915
-0.85
-0.785
-0.74
-0.68
-0.62
-0.565
-0.485
-0.41
-0.35
-0.3
-0.255
-0.21
-0.145
-0.085
-0.05
-0.04
-0.03
-0.03
0.015
0.04
0.05
0.07
0.065
0.085
0.125
0.15
0.17
0.19
0.2
0.23
0.27
0.295
0.32
0.335
0.36
0.385
0.42
0.455
0.48
0.505
0.54
0.575
0.605
0.655
0.7
0.71
0.75
0.775
0.805
0.84
0.865
0.905
0.91
0.925
0.96
0.985
1.0
1.025
1.015
1.025
1.045
1.065
1.075
1.06
1.04
1.035
1.02
1.02
1.01
0.98
0.94
0.905
0.885
0.86
0.825
0.795
0.745
0.69
0.655
0.62
0.585
0.525
0.48
0.42
0.37
0.315
0.265
0.205
0.155
0.11
0.055
0.02
-0.01
-0.06
-0.115
-0.165
-0.19
-0.23
-0.265
-0.3
-0.33
-0.355
-0.35
-0.375
-0.38
-0.395
-0.42
-0.435
-0.445
-0.455
-0.47
-0.475
-0.49
-0.495
-0.49
-0.49
-0.5
-0.495
-0.525
-0.525
-0.515
-0.505
-0.505
-0.505
-0.51
-0.515
-0.525
-0.515
-0.53
-0.54
-0.545
-0.545
-0.525
-0.525
-0.53
-0.52
-0.54
-0.53
-0.52
-0.51
-0.505
-0.51
-0.515
-0.51
-0.495
-0.485
-0.49
-0.49
-0.49
-0.485
-0.485
-0.475
-0.47
-0.465
-0.48
-0.485
-0.485
-0.47
-0.46
-0.455
-0.455
-0.455
-0.45
-0.445
-0.455
-0.46
-0.475
-0.475
-0.47
-0.46
-0.45
-0.45
-0.46
-0.48
-0.47
-0.47
-0.47
-0.465
-0.475
-0.475
-0.48
-0.46
-0.455
-0.47
-0.47
-0.475
-0.465
-0.465
-0.465
-0.48
-0.475
-0.48
-0.47
-0.445
-0.435
-0.42
-0.4
-0.4
-0.37
-0.34
-0.31
-0.285
-0.255
-0.22
-0.185
-0.145
-0.125
-0.13
-0.125
-0.095
-0.065
-0.03
-0.03
-0.05
-0.09
-0.105
-0.105
-0.12
-0.11
-0.135
-0.14
-0.145
-0.14
-0.14
-0.14
-0.16
-0.2
-0.23
-0.25
-0.275
-0.28
-0.315
-0.35
-0.365
-0.37
-0.39
-0.395
-0.415
-0.415
-0.41
-0.435
-0.42
-0.41
-0.385
-0.345
-0.21
0.115
0.685
1.32
1.72
1.67
1.435
1.265
1.19
1.135
1.05
0.955
0.845
0.745
0.665
0.565
0.465
0.37
0.245
0.14
0.005
-0.14
-0.275
-0.41
-0.585
-0.755
-0.94
-1.135
-1.315
-1.515
-1.72
-1.905
-2.08
-2.195
-2.3
-2.335
-2.36
-2.365
-2.37
-2.39
-2.435
-2.53
-2.605
-2.65
-2.655
-2.69
-2.735
-2.765
-2.755
-2.68
-2.56
-2.425
-2.305
-2.165
-1.985
-1.78
-1.63
-1.55
-1.49
-1.435
-1.35
-1.275
-1.21
-1.14
-1.11
-1.105
-1.085
-1.035
-0.97
-0.895
-0.83
-0.775
-0.72
-0.655
-0.58
-0.525
-0.455
-0.395
-0.32
-0.225
-0.145
-0.065
-0.02
0.05
0.115
0.165
0.195
0.23
0.235
0.25
0.275
0.305
0.335
0.365
0.375
0.4
0.41
0.445
0.49
0.515
0.54
0.55
0.58
0.615
0.655
0.69
0.72
0.73
0.76
0.8
0.85
0.87
0.905
0.925
0.93
0.985
1.025
1.05
1.075
1.095
1.125
1.145
1.185
1.205
1.21
1.195
1.21
1.23
1.24
1.235
1.235
1.22
1.21
1.21
1.21
1.195
1.18
1.145
1.125
1.105
1.08
1.045
1.015
0.975
0.94
0.9
0.88
0.84
0.795
0.74
0.695
0.655
0.62
0.57
0.515
0.465
0.425
0.375
0.325
0.27
0.215
0.175
0.12
0.08
0.055
0.01
-0.045
-0.09
-0.125
-0.135
-0.15
-0.18
-0.21
-0.235
-0.285
-0.285
-0.29
-0.32
-0.32
-0.35
-0.375
-0.375
-0.375
-0.375
-0.39
-0.405
-0.4
-0.41
-0.4
-0.405
-0.415
-0.43
-0.435
-0.435
-0.405
-0.415
-0.42
-0.43
-0.42
-0.4
-0.4
-0.395
-0.395
-0.375
-0.355
-0.33
-0.295
-0.27
-0.225
-0.195
-0.165
-0.12
-0.1
-0.08
-0.08
-0.075
-0.07
-0.04
-0.025
-0.025
-0.065
-0.115
-0.145
-0.14
-0.135
-0.135
-0.13
-0.13
-0.125
-0.12
-0.125
-0.14
-0.16
-0.185
-0.225
-0.23
-0.255
-0.27
-0.3
-0.335
-0.355
-0.38
-0.4
-0.425
-0.445
-0.485
-0.49
-0.505
-0.51
-0.52
-0.54
-0.575
-0.585
-0.59
-0.585
-0.585
-0.595
-0.61
-0.625
-0.605
-0.605
-0.595
-0.6
-0.605
-0.615
-0.61
-0.595
-0.6
-0.62
-0.635
-0.63
-0.62
-0.61
-0.61
-0.605
-0.625
-0.63
-0.625
-0.615
-0.595
-0.61
-0.615
-0.62
-0.615
-0.61
-0.595
-0.605
-0.605
-0.615
-0.605
-0.6
-0.59
-0.61
-0.61
-0.615
-0.605
-0.595
-0.595
-0.6
-0.605
-0.605
-0.605
-0.575
-0.575
-0.575
-0.58
-0.565
-0.55
-0.53
-0.525
-0.51
-0.49
-0.435
-0.335
-0.09
0.405
1.04
1.605
1.695
1.485
1.26
1.14
1.075
0.995
0.89
0.795
0.72
0.65
0.58
0.505
0.41
0.3
0.21
0.085
-0.03
-0.16
-0.315
-0.485
-0.625
-0.8
-0.97
-1.12
-1.27
-1.45
-1.6
-1.74
-1.845
-1.92
-1.985
-2.03
-2.085
-2.19
-2.295
-2.395
-2.46
-2.505
-2.55
-2.585
-2.585
-2.515
-2.42
-2.27
-2.12
-1.94
-1.755
-1.635
-1.555
-1.485
-1.405
-1.33
-1.27
-1.22
-1.165
-1.11
-1.08
-1.07
-1.065
-1.04
-0.98
-0.905
-0.84
-0.775
-0.715
-0.67
-0.605
-0.52
-0.435
-0.35
-0.28
-0.22
-0.155
-0.07
0.01
0.065
0.075
0.105
0.105
0.135
0.155
0.195
0.21
0.23
0.235
0.27
0.3
0.335
0.345
0.35
0.375
0.4
0.445
0.465
0.505
0.51
0.535
0.57
0.61
0.645
0.68
0.705
0.73
0.76
0.785
0.815
0.845
0.855
0.88
0.925
0.96
0.975
0.98
0.995
1.01
1.03
1.04
1.03
1.04
1.025
1.03
1.04
1.045
1.05
1.055
1.045
1.035
1.055
1.05
1.06
1.065
1.05
1.065
1.065
1.055
1.035
0.995
0.955
0.92
0.91
0.885
0.83
0.755
0.665
0.595
0.53
0.5
0.445
0.39
0.35
0.305
0.255
0.215
0.155
0.095
0.035
-0.025
-0.07
-0.105
-0.145
-0.195
-0.255
-0.305
-0.335
-0.375
-0.41
-0.445
-0.485
-0.515
-0.52
-0.53
-0.555
-0.575
-0.6
-0.625
-0.64
-0.645
-0.64
-0.655
-0.665
-0.68
-0.67
-0.655
-0.655
-0.665
-0.685
-0.685
-0.675
-0.68
-0.695
-0.7
-0.705
-0.71
-0.7
-0.685
-0.685
-0.69
-0.71
-0.7
-0.685
-0.665
-0.67
-0.68
-0.685
-0.68
-0.665
-0.66
-0.665
-0.67
-0.675
-0.68
-0.675
-0.665
-0.67
-0.66
-0.675
-0.675
-0.665
-0.665
-0.665
-0.67
-0.695
-0.69
-0.68
-0.67
-0.665
-0.67
-0.67
-0.665
-0.66
-0.66
-0.66
-0.67
-0.67
-0.675
-0.66
-0.66
-0.65
-0.655
-0.675
-0.66
-0.655
-0.64
-0.65
-0.64
-0.635
-0.64
-0.635
-0.625
-0.63
-0.63
-0.625
-0.63
-0.615
-0.61
-0.6
-0.595
-0.605
-0.61
-0.6
-0.6
-0.595
-0.595
-0.605
-0.6
-0.59
-0.595
-0.585
-0.59
-0.595
-0.59
-0.59
-0.57
-0.565
-0.57
-0.58
-0.58
-0.57
-0.55
-0.54
-0.535
-0.535
-0.53
-0.535
-0.53
-0.515
-0.515
-0.52
-0.52
-0.505
-0.49
-0.47
-0.465
-0.44
-0.42
-0.355
-0.225
0.05
0.575
1.21
1.65
1.675
1.455
1.26
1.155
1.105
1.015
0.935
0.835
0.735
0.625
0.54
0.445
0.365
0.25
0.1
-0.07
-0.225
-0.38
-0.52
-0.67
-0.86
-1.07
-1.275
-1.47
-1.64
-1.785
-1.94
-2.05
-2.15
-2.22
-2.28
-2.31
-2.36
-2.45
-2.55
-2.635
-2.69
-2.715
-2.765
-2.8
-2.81
-2.725
-2.565
-2.36
-2.14
-1.96
-1.8
-1.66
-1.55
-1.47
-1.4
-1.335
-1.28
-1.22
-1.145
-1.105
-1.075
-1.06
-1.02
-0.965
-0.87
-0.78
-0.7
-0.63
-0.55
-0.45
-0.35
-0.24
-0.135
-0.015
0.105
0.225
0.335
0.425
0.485
0.525
0.555
0.585
0.645
0.705
0.725
0.73
0.72
0.715
0.74
0.77
0.79
0.81
0.83
0.86
0.89
0.91
0.92
0.935
0.945
0.955
0.97
0.99
1.0
1.01
1.03
1.03
1.055
1.09
1.1
1.13
1.135
1.165
1.185
1.195
1.195
1.19
1.195
1.2
1.215
1.225
1.225
1.22
1.21
1.19
1.185
1.165
1.145
1.115
1.06
1.04
1.01
0.975
0.925
0.88
0.83
0.775
0.725
0.685
0.635
0.57
0.51
0.46
0.41
0.375
0.315
0.25
0.185
0.115
0.065
0.025
-0.035
-0.085
-0.14
-0.195
-0.22
-0.255
-0.285
-0.32
-0.365
-0.395
-0.415
-0.43
-0.465
-0.485
-0.5
-0.53
-0.525
-0.535
-0.55
-0.57
-0.59
-0.595
-0.585
-0.585
-0.59
-0.6
-0.61
-0.62
-0.62
-0.62
-0.625
-0.62
-0.63
-0.63
-0.63
-0.62
-0.625
-0.635
-0.645
-0.655
-0.63
-0.625
-0.63
-0.645
-0.655
-0.64
-0.62
-0.605
-0.6
-0.62
-0.63
-0.625
-0.595
-0.59
-0.595
-0.615
-0.605
-0.605
-0.58
-0.565
-0.56
-0.57
-0.565
-0.575
-0.56
-0.555
-0.55
-0.555
-0.555
-0.565
-0.545
-0.545
-0.55
-0.555
-0.55
-0.57
-0.545
-0.545
-0.545
-0.55
-0.55
-0.555
-0.555
-0.54
-0.55
-0.545
-0.555
-0.56
-0.56
-0.535
-0.54
-0.54
-0.545
-0.55
-0.545
-0.535
-0.545
-0.55
-0.555
-0.555
-0.545
-0.545
-0.545
-0.55
-0.545
-0.55
-0.525
-0.525
-0.52
-0.52
-0.525
-0.53
-0.52
-0.515
-0.51
-0.52
-0.505
-0.505
-0.505
-0.5
-0.505
-0.505
-0.515
-0.515
-0.5
-0.49
-0.495
-0.5
-0.495
-0.5
-0.49
-0.48
-0.475
-0.485
-0.49
-0.49
-0.46
-0.465
-0.44
-0.455
-0.46
-0.455
-0.43
-0.415
-0.405
-0.38
-0.345
-0.26
-0.035
0.43
1.065
1.64
1.77
1.58
1.37
1.275
1.22
1.135
1.025
0.92
0.83
0.75
0.66
0.555
0.435
0.33
0.205
0.08
-0.09
-0.29
-0.49
-0.675
-0.855
-1.06
-1.28
-1.5
-1.715
-1.9
-2.005
-2.055
-2.12
-2.17
-2.22
-2.28
-2.355
-2.45
-2.54
-2.59
-2.655
-2.725
-2.715
-2.65
-2.53
-2.37
-2.19
-2.005
-1.795
-1.62
-1.525
-1.465
-1.415
-1.35
-1.28
-1.21
-1.165
-1.15
-1.155
-1.135
-1.085
-1.01
-0.915
-0.85
-0.78
-0.735
-0.67
-0.595
-0.535
-0.465
-0.39
-0.32
-0.24
-0.18
-0.115
-0.05
-0.005
0.005
0.045
0.065
0.085
0.085
0.11
0.12
0.155
0.195
0.22
0.215
0.24
0.26
0.285
0.325
0.355
0.38
0.405
0.435
0.47
0.51
0.54
0.56
0.595
0.625
0.67
0.71
0.745
0.77
0.805
0.835
0.875
0.915
0.945
0.955
0.985
1.0
1.025
1.045
1.06
1.065
1.06
1.065
1.07
1.085
1.08
1.07
1.045
1.02
1.015
0.995
0.985
0.935
0.915
0.87
0.845
0.82
0.77
0.715
0.67
0.62
0.58
0.54
0.485
0.42
0.35
0.295
0.245
0.2
0.155
0.095
0.04
-0.01
-0.05
-0.07
-0.12
-0.155
-0.2
-0.24
-0.26
-0.28
-0.295
-0.325
-0.35
-0.37
-0.38
-0.39
-0.395
