Lead II
-0.33
-0.315
-0.295
-0.28
-0.245
-0.225
-0.215
-0.2
-0.185
-0.18
-0.18
-0.19
-0.19
-0.195
-0.195
-0.2
-0.18
-0.19
-0.2
-0.205
-0.21
-0.2
-0.175
-0.175
-0.18
-0.18
-0.185
-0.2
-0.205
-0.205
-0.2
-0.195
-0.175
-0.175
-0.155
-0.155
-0.16
-0.18
-0.185
-0.16
-0.16
-0.165
-0.155
-0.15
-0.145
-0.14
-0.12
-0.13
-0.11
-0.1
-0.1
-0.1
-0.105
-0.11
-0.095
-0.08
-0.06
-0.045
-0.02
-0.005
-0.005
0.01
0.005
0.02
0.025
0.035
0.06
0.07
0.08
0.1
0.105
0.11
0.11
0.1
0.1
0.1
0.09
0.09
0.09
0.1
0.08
0.085
0.08
0.065
0.045
0.035
0.015
-0.01
-0.035
-0.05
-0.07
-0.07
-0.09
-0.1
-0.095
-0.115
-0.12
-0.125
-0.145
-0.16
-0.165
-0.16
-0.17
-0.165
-0.165
-0.165
-0.165
-0.17
-0.175
-0.185
-0.19
-0.18
-0.185
-0.205
-0.2
-0.205
-0.195
-0.205
-0.21
-0.2
-0.195
-0.195
-0.195
-0.205
-0.195
-0.2
-0.205
-0.2
-0.195
-0.19
-0.175
-0.175
-0.175
-0.18
-0.19
-0.2
-0.225
-0.23
-0.23
-0.235
-0.23
-0.22
-0.225
-0.22
-0.215
-0.21
-0.205
-0.205
-0.195
-0.215
-0.215
-0.2
-0.2
-0.175
-0.16
-0.155
-0.15
-0.15
-0.15
-0.15
-0.15
-0.155
-0.16
-0.175
-0.17
-0.17
-0.17
-0.165
-0.155
-0.165
-0.17
-0.18
-0.185
-0.21
-0.195
-0.175
-0.18
-0.175
-0.15
-0.155
-0.14
-0.15
-0.17
-0.18
-0.205
-0.205
-0.2
-0.18
-0.17
-0.17
-0.17
-0.165
-0.17
-0.165
-0.18
-0.175
-0.185
-0.18
-0.175
-0.175
-0.185
-0.185
-0.18
-0.17
-0.16
-0.165
-0.17
-0.175
-0.18
-0.185
-0.185
-0.18
-0.165
-0.165
-0.155
-0.145
-0.145
-0.145
-0.155
-0.175
-0.185
-0.185
-0.17
-0.13
-0.105
-0.08
-0.025
0.0
0.055
0.14
0.23
0.35
0.46
0.555
0.605
0.58
0.435
0.21
-0.06
-0.295
-0.46
-0.55
-0.57
-0.555
-0.52
-0.485
-0.44
-0.405
-0.395
-0.395
-0.39
-0.41
-0.41
-0.395
-0.36
-0.33
-0.29
-0.27
-0.26
-0.275
-0.295
-0.31
-0.325
-0.33
-0.335
-0.33
-0.32
-0.285
-0.27
-0.24
-0.205
-0.18
-0.16
-0.155
-0.14
-0.14
-0.14
-0.155
-0.16
-0.16
-0.16
-0.17
-0.175
-0.175
-0.165
-0.15
-0.14
-0.14
-0.145
-0.135
-0.135
-0.13
-0.135
-0.14
-0.14
-0.16
-0.145
-0.15
-0.145
-0.155
-0.14
-0.13
-0.125
-0.13
-0.12
-0.115
-0.11
-0.115
-0.1
-0.09
-0.07
-0.08
-0.075
-0.06
-0.06
-0.065
-0.05
-0.04
-0.025
-0.015
0.005
0.01
0.03
0.055
0.065
0.075
0.085
0.085
0.08
0.08
0.09
0.09
0.095
0.095
0.12
0.14
0.13
0.135
0.135
0.14
0.12
0.11
0.095
0.08
0.075
0.065
0.065
0.05
0.04
0.025
0.02
0.005
-0.015
-0.025
-0.045
-0.07
-0.085
-0.085
-0.085
-0.09
-0.095
-0.105
-0.13
-0.135
-0.155
-0.165
-0.175
-0.175
-0.16
-0.155
-0.15
-0.135
-0.13
-0.16
-0.16
-0.185
-0.2
-0.215
-0.22
-0.23
-0.21
-0.185
-0.175
-0.16
-0.155
-0.16
-0.165
-0.19
-0.2
-0.2
-0.19
-0.19
-0.18
-0.16
-0.145
-0.155
-0.145
-0.17
-0.185
-0.19
-0.195
-0.19
-0.18
-0.175
-0.155
-0.15
-0.14
-0.15
-0.155
-0.165
-0.16
-0.165
-0.175
-0.175
-0.165
-0.18
-0.17
-0.16
-0.14
-0.14
-0.14
-0.14
-0.155
-0.16
-0.18
-0.185
-0.185
-0.195
-0.185
-0.18
-0.18
-0.18
-0.165
-0.17
-0.165
-0.17
-0.185
-0.195
-0.2
-0.2
-0.185
-0.175
-0.17
-0.17
-0.175
-0.165
-0.17
-0.175
-0.18
-0.19
-0.19
-0.195
-0.195
-0.19
-0.18
-0.185
-0.18
-0.185
-0.2
-0.19
-0.195
-0.19
-0.19
-0.19
-0.175
-0.185
-0.185
-0.19
-0.19
-0.195
-0.215
-0.21
-0.21
-0.21
-0.205
-0.205
-0.2
-0.2
-0.19
-0.19
-0.195
-0.205
-0.19
-0.19
-0.19
-0.19
-0.19
-0.185
-0.19
-0.19
-0.19
-0.215
-0.215
-0.21
-0.2
-0.21
-0.205
-0.205
-0.205
-0.205
-0.195
-0.19
-0.17
-0.18
-0.18
-0.17
-0.195
-0.205
-0.215
-0.225
-0.23
-0.23
-0.21
-0.205
-0.19
-0.19
-0.19
-0.195
-0.2
-0.205
-0.21
-0.205
-0.21
-0.205
-0.2
-0.205
-0.195
-0.205
-0.205
-0.2
-0.19
-0.19
-0.21
-0.215
-0.215
-0.215
-0.215
-0.205
-0.2
-0.19
-0.195
-0.2
-0.21
-0.23
-0.225
-0.22
-0.205
-0.21
-0.205
-0.205
-0.2
-0.195
-0.195
-0.195
-0.2
-0.21
-0.225
-0.235
-0.225
-0.22
-0.21
-0.2
-0.185
-0.185
-0.19
-0.195
-0.2
-0.2
-0.215
-0.22
-0.225
-0.23
-0.225
-0.22
-0.21
-0.205
-0.205
-0.18
-0.2
-0.21
-0.21
-0.225
-0.215
-0.2
-0.185
-0.195
-0.185
-0.195
-0.19
-0.2
-0.21
-0.195
-0.19
-0.185
-0.195
-0.2
-0.19
-0.19
-0.175
-0.18
-0.175
-0.175
-0.18
-0.19
-0.2
-0.205
-0.205
-0.22
-0.22
-0.205
-0.19
-0.175
-0.165
-0.165
-0.185
-0.19
-0.2
-0.205
-0.215
-0.22
-0.21
-0.21
-0.19
-0.185
-0.18
-0.175
-0.185
-0.19
-0.205
-0.21
-0.21
-0.21
-0.215
-0.2
-0.19
-0.175
-0.18
-0.175
-0.185
-0.2
-0.19
-0.205
-0.195
-0.2
-0.195
-0.17
-0.165
-0.175
-0.175
-0.19
-0.2
-0.21
-0.21
-0.21
-0.22
-0.2
-0.2
-0.195
-0.19
-0.18
-0.18
-0.175
-0.175
-0.175
-0.19
-0.19
-0.195
-0.195
-0.19
-0.2
-0.185
-0.19
-0.205
-0.21
-0.205
-0.21
-0.22
-0.215
-0.195
-0.19
-0.185
-0.185
-0.175
-0.18
-0.205
-0.22
-0.22
-0.21
-0.205
-0.21
-0.205
-0.215
-0.205
-0.2
-0.195
-0.215
-0.22
-0.215
-0.22
-0.215
-0.215
-0.22
-0.215
-0.21
-0.235
-0.23
-0.22
-0.22
-0.205
-0.195
-0.2
-0.2
-0.2
-0.21
-0.21
-0.2
-0.205
-0.205
-0.205
-0.2
-0.225
-0.215
-0.21
-0.21
-0.205
-0.215
-0.21
-0.22
-0.21
-0.22
-0.195
-0.215
-0.205
-0.21
-0.21
-0.215
-0.225
-0.23
-0.215
-0.215
-0.195
-0.19
-0.185
-0.195
-0.2
-0.205
-0.21
-0.22
-0.23
-0.23
-0.23
-0.23
-0.21
-0.2
-0.195
-0.185
-0.195
-0.195
-0.19
-0.185
-0.19
-0.195
-0.19
-0.195
-0.19
-0.185
-0.18
-0.195
-0.205
-0.195
-0.195
-0.205
-0.205
-0.2
-0.2
-0.2
-0.19
-0.185
-0.2
-0.2
-0.22
-0.21
-0.195
-0.195
-0.21
-0.2
-0.21
-0.225
-0.225
-0.215
-0.205
-0.21
-0.19
-0.195
-0.19
-0.205
-0.21
-0.215
-0.215
-0.21
-0.205
-0.195
-0.185
-0.2
-0.2
-0.2
-0.21
-0.215
-0.225
-0.22
-0.21
-0.205
-0.2
-0.18
-0.185
-0.175
-0.18
-0.18
-0.195
-0.2
-0.215
-0.21
-0.21
-0.2
-0.195
-0.175
-0.15
-0.155
-0.16
-0.165
-0.17
-0.175
-0.155
-0.15
-0.13
-0.125
-0.11
-0.11
-0.085
-0.095
-0.11
-0.11
-0.11
-0.115
-0.135
-0.13
-0.125
-0.135
-0.12
-0.12
-0.12
-0.125
-0.135
-0.145
-0.14
-0.15
-0.175
-0.17
-0.165
-0.165
-0.165
-0.165
-0.155
-0.15
-0.16
-0.16
-0.175
-0.19
-0.195
-0.21
-0.2
-0.19
-0.19
-0.205
-0.2
-0.205
-0.205
-0.2
-0.21
-0.22
-0.21
-0.215
-0.22
-0.215
-0.21
-0.19
-0.185
-0.19
-0.19
-0.195
-0.195
-0.205
-0.21
-0.205
-0.21
-0.19
-0.19
-0.19
-0.185
-0.19
-0.18
-0.17
-0.18
-0.16
-0.13
-0.095
-0.055
0.03
0.14
0.28
0.435
0.58
0.7
0.77
0.75
0.595
0.345
0.055
-0.225
-0.405
-0.51
-0.55
-0.545
-0.515
-0.49
-0.465
-0.445
-0.435
-0.435
-0.455
-0.465
-0.49
-0.47
-0.45
-0.41
-0.37
-0.35
-0.335
-0.345
-0.36
-0.365
-0.395
-0.39
-0.39
-0.385
-0.355
-0.325
-0.315
-0.285
-0.265
-0.25
-0.235
-0.235
-0.225
-0.21
-0.23
-0.205
-0.185
-0.185
-0.185
-0.2
-0.21
-0.215
-0.22
-0.21
-0.21
-0.2
-0.195
-0.19
-0.19
-0.175
-0.17
-0.185
-0.175
-0.19
-0.195
-0.195
-0.19
-0.19
-0.18
-0.17
-0.17
-0.18
-0.18
-0.175
-0.175
-0.175
-0.175
-0.17
-0.19
-0.175
-0.17
-0.165
-0.145
-0.13
-0.125
-0.11
-0.11
-0.1
-0.11
-0.11
-0.12
-0.105
-0.1
-0.09
-0.085
-0.07
-0.055
-0.055
-0.035
-0.025
-0.005
-0.025
-0.015
-0.02
-0.01
0.005
0.025
0.05
0.05
0.06
0.07
0.065
0.07
0.075
0.07
0.07
0.08
0.08
0.08
0.08
0.06
0.06
0.055
0.055
0.06
0.045
0.02
-0.005
-0.02
-0.03
-0.04
-0.035
-0.06
-0.055
-0.075
-0.08
-0.095
-0.11
-0.115
-0.12
-0.115
-0.125
-0.12
-0.125
-0.135
-0.145
-0.15
-0.165
-0.175
-0.185
-0.185
-0.185
-0.2
-0.2
-0.205
-0.205
-0.2
-0.2
-0.205
-0.21
-0.23
-0.235
-0.245
-0.225
-0.225
-0.22
-0.2
-0.19
-0.175
-0.175
-0.18
-0.185
-0.195
-0.205
-0.185
-0.165
-0.15
-0.125
-0.11
-0.11
-0.115
-0.13
-0.145
-0.145
-0.165
-0.165
-0.175
-0.17
-0.165
-0.17
-0.165
-0.15
-0.145
-0.135
-0.125
-0.12
-0.11
-0.115
-0.12
-0.115
-0.125
-0.125
-0.135
-0.13
-0.13
-0.13
-0.125
-0.135
-0.14
-0.14
-0.15
-0.155
-0.15
-0.16
-0.145
-0.14
-0.145
-0.145
-0.145
-0.155
-0.155
-0.16
-0.155
-0.16
-0.15
-0.14
-0.12
-0.12
-0.12
-0.13
-0.13
-0.14
-0.14
-0.135
-0.135
-0.135
-0.14
-0.13
-0.13
-0.13
-0.12
-0.125
-0.105
-0.1
-0.075
-0.05
0.0
0.09
0.215
0.37
0.53
0.665
0.765
0.775
0.645
0.375
0.04
-0.26
-0.48
-0.58
-0.6
-0.545
-0.46
-0.39
-0.345
-0.33
-0.345
-0.375
-0.405
-0.41
-0.39
-0.35
-0.32
-0.285
-0.275
-0.275
-0.29
-0.3
-0.31
-0.305
-0.315
-0.315
-0.31
-0.295
-0.28
-0.25
-0.22
-0.18
-0.16
-0.155
-0.155
-0.16
-0.15
-0.16
-0.155
-0.155
-0.165
-0.165
-0.165
-0.16
-0.155
-0.145
-0.135
-0.14
-0.135
-0.14
-0.15
-0.15
-0.145
-0.125
-0.12
-0.12
-0.125
-0.13
-0.13
-0.135
-0.135
-0.125
-0.125
-0.125
-0.125
-0.105
-0.095
-0.09
-0.095
-0.09
-0.08
-0.06
-0.08
-0.055
-0.06
-0.05
-0.04
-0.03
-0.015
-0.005
0.015
0.03
0.045
0.05
0.045
0.055
0.065
0.07
0.07
0.105
0.12
0.145
0.155
0.165
0.17
0.165
0.16
0.14
0.145
0.155
0.15
0.155
0.16
0.175
0.16
0.15
0.135
0.125
0.1
0.08
0.05
0.05
0.03
0.03
0.025
0.01
-0.015
-0.04
-0.055
-0.08
-0.095
-0.095
-0.115
-0.125
-0.13
-0.145
-0.145
-0.135
-0.135
-0.14
-0.15
-0.17
-0.18
-0.195
-0.195
-0.21
-0.195
-0.18
-0.175
-0.17
-0.18
-0.19
-0.195
-0.195
-0.19
-0.2
-0.195
-0.195
-0.19
-0.175
-0.165
-0.16
-0.165
-0.16
-0.175
-0.185
-0.195
-0.21
-0.2
-0.19
-0.185
-0.185
-0.17
-0.175
-0.165
-0.19
-0.19
-0.205
-0.195
-0.205
-0.21
-0.215
-0.21
-0.22
-0.22
-0.195
-0.2
-0.2
-0.21
-0.21
-0.2
-0.215
-0.215
-0.2
-0.195
-0.175
-0.17
-0.145
-0.14
-0.145
-0.14
-0.165
-0.16
-0.185
-0.185
-0.19
-0.185
-0.19
-0.185
-0.185
-0.165
-0.18
-0.18
-0.19
-0.19
-0.205
-0.22
-0.215
-0.215
-0.195
-0.185
-0.165
-0.155
-0.16
-0.155
-0.185
-0.18
-0.185
-0.205
-0.19
-0.195
-0.175
-0.17
-0.165
-0.155
-0.16
-0.16
-0.165
-0.17
-0.175
-0.18
-0.175
-0.175
-0.18
-0.165
-0.165
-0.165
-0.18
-0.175
-0.175
-0.19
-0.175
-0.185
-0.185
-0.18
-0.175
-0.17
-0.165
-0.15
-0.15
-0.145
-0.15
-0.155
-0.13
-0.12
-0.095
-0.065
-0.015
0.045
0.16
0.27
0.405
0.535
0.62
0.66
0.575
0.385
0.12
-0.15
-0.375
-0.505
-0.555
-0.57
-0.54
-0.5
-0.47
-0.44
-0.43
-0.415
-0.41
-0.42
-0.43
-0.43
-0.4
-0.365
-0.33
-0.285
-0.285
-0.29
-0.32
-0.34
-0.36
-0.37
-0.355
-0.325
-0.31
-0.285
-0.255
-0.23
-0.215
-0.195
-0.19
-0.18
-0.175
-0.18
-0.17
-0.17
-0.175
-0.18
-0.17
-0.18
-0.165
-0.16
-0.175
-0.185
-0.175
-0.18
-0.17
-0.155
-0.15
-0.14
-0.145
-0.16
-0.16
-0.17
-0.18
-0.185
-0.18
-0.17
-0.165
-0.15
-0.135
-0.13
-0.135
-0.135
-0.135
-0.13
-0.13
-0.125
-0.12
-0.13
-0.115
-0.11
-0.095
-0.08
-0.08
-0.055
-0.045
-0.045
-0.04
-0.04
-0.025
-0.015
-0.01
0.01
0.04
0.05
0.065
0.07
0.075
0.08
0.085
0.085
0.1
0.09
0.11
0.115
0.12
0.135
0.13
0.13
0.11
0.085
0.065
0.06
0.05
0.035
0.015
0.01
0.015
0.0
-0.035
-0.04
-0.06
-0.08
-0.09
-0.11
-0.13
-0.13
-0.13
-0.135
-0.14
-0.145
-0.155
-0.145
-0.16
-0.17
-0.18
-0.18
-0.17
-0.18
-0.18
-0.19
-0.185
-0.185
-0.21
-0.215
-0.215
-0.21
-0.205
-0.21
-0.205
-0.2
-0.21
-0.205
-0.195
-0.19
-0.185
-0.19
-0.21
-0.22
-0.205
-0.2
-0.21
-0.195
-0.19
-0.185
-0.17
-0.17
-0.16
-0.155
-0.17
-0.18
-0.18
-0.185
-0.18
-0.18
-0.175
-0.175
-0.155
-0.15
-0.15
-0.15
-0.16
-0.17
-0.175
-0.175
-0.185
-0.175
-0.18
-0.165
-0.155
-0.15
-0.165
-0.165
-0.18
-0.175
-0.19
-0.2
-0.185
-0.185
-0.17
-0.17
-0.16
-0.15
-0.15
-0.14
-0.145
-0.155
-0.17
-0.18
-0.175
-0.165
-0.155
-0.145
-0.15
-0.15
-0.15
-0.155
-0.155
-0.155
-0.16
-0.16
-0.165
-0.17
-0.165
-0.165
-0.15
-0.145
-0.165
-0.16
-0.16
-0.165
-0.155
-0.17
-0.165
-0.165
-0.145
-0.13
-0.115
-0.12
-0.14
-0.155
-0.155
-0.165
-0.17
-0.17
-0.155
-0.145
-0.15
-0.155
-0.14
-0.14
-0.15
-0.155
-0.17
-0.18
-0.19
-0.19
-0.19
-0.18
-0.16
-0.15
-0.14
-0.155
-0.165
-0.16
-0.17
-0.175
-0.17
-0.165
-0.16
-0.16
-0.16
-0.165
-0.17
-0.165
-0.16
-0.165
-0.17
-0.16
-0.175
-0.175
-0.165
-0.16
-0.16
-0.145
-0.15
-0.155
-0.16
-0.15
-0.16
-0.16
-0.155
-0.16
-0.155
-0.165
-0.165
-0.165
-0.155
-0.155
-0.16
-0.145
-0.15
-0.15
-0.145
-0.155
-0.155
-0.165
-0.155
-0.15
-0.145
-0.14
-0.155
-0.155
-0.16
-0.165
-0.175
-0.18
-0.185
-0.185
-0.18
-0.175
-0.165
-0.165
-0.165
-0.165
-0.175
-0.175
-0.18
-0.175
-0.175
-0.17
-0.175
-0.16
-0.16
-0.15
-0.16
-0.15
-0.165
-0.16
-0.18
-0.195
-0.195
-0.205
-0.21
-0.21
-0.195
-0.175
-0.175
-0.16
-0.16
-0.175
-0.185
-0.19
-0.195
-0.19
-0.19
-0.18
-0.165
-0.17
-0.17
-0.17
-0.185
-0.185
-0.195
-0.21
-0.19
-0.185
-0.18
-0.185
-0.165
-0.17
-0.17
-0.17
-0.185
-0.195
-0.21
-0.205
-0.2
-0.195
-0.185
-0.19
-0.185
-0.18
-0.185
-0.17
-0.18
-0.175
-0.18
-0.195
-0.19
-0.21
-0.2
-0.19
-0.175
-0.17
-0.175
-0.16
-0.165
-0.18
-0.19
-0.19
-0.19
-0.2
-0.19
-0.185
-0.185
-0.175
-0.18
-0.18
-0.18
-0.175
-0.185
-0.195
-0.185
-0.185
-0.175
-0.175
-0.17
-0.16
-0.185
-0.18
-0.195
-0.195
-0.195
-0.19
-0.185
-0.18
-0.18
-0.17
-0.16
-0.165
-0.175
-0.17
-0.16
-0.17
-0.17
-0.175
-0.185
-0.185
-0.185
-0.185
-0.18
-0.175
-0.175
-0.17
-0.165
-0.18
-0.18
-0.18
-0.185
-0.19
-0.185
-0.185
-0.18
-0.175
-0.185
-0.195
-0.185
-0.19
-0.2
-0.19
-0.19
-0.18
-0.18
-0.17
-0.17
-0.17
-0.175
-0.165
-0.185
-0.185
-0.195
-0.195
-0.19
-0.195
-0.205
-0.19
-0.175
-0.19
-0.175
-0.18
-0.18
-0.175
-0.19
-0.205
-0.205
-0.195
-0.19
-0.175
-0.175
-0.165
-0.175
-0.18
-0.18
-0.19
-0.185
-0.195
-0.19
-0.18
-0.165
-0.175
-0.17
-0.165
-0.175
-0.18
-0.18
-0.195
-0.205
-0.21
-0.215
-0.195
-0.18
-0.175
-0.17
-0.165
-0.17
-0.175
-0.175
-0.17
-0.19
-0.19
-0.195
-0.205
-0.2
-0.195
-0.175
-0.165
-0.16
-0.16
-0.165
-0.17
-0.19
-0.205
-0.205
-0.215
-0.2
-0.19
-0.19
-0.17
-0.17
-0.18
-0.185
-0.195
-0.185
-0.185
-0.18
-0.18
-0.18
-0.18
-0.175
-0.17
-0.18
-0.18
-0.18
-0.185
-0.185
-0.2
-0.205
-0.205
-0.205
-0.185
-0.18
-0.17
-0.18
-0.18
-0.205
-0.205
-0.195
-0.195
-0.19
-0.18
-0.165
-0.165
-0.165
-0.17
-0.165
-0.18
-0.18
-0.19
-0.195
-0.205
-0.205
-0.22
-0.2
-0.19
-0.175
-0.175
-0.17
-0.18
-0.2
-0.205
-0.205
-0.205
-0.205
-0.19
-0.18
-0.195
-0.18
-0.185
-0.18
-0.185
-0.2
-0.2
-0.205
-0.21
-0.205
-0.19
-0.19
-0.175
-0.155
-0.13
-0.135
-0.13
-0.125
-0.135
-0.135
-0.155
-0.155
-0.15
-0.14
-0.14
-0.115
-0.11
-0.11
-0.105
-0.11
-0.125
-0.14
-0.15
-0.17
-0.165
-0.145
-0.145
-0.135
-0.135
-0.14
-0.135
-0.145
-0.15
-0.135
-0.17
-0.16
-0.145
-0.155
-0.16
-0.17
-0.175
-0.195
-0.205
-0.215
-0.22
-0.22
-0.245
-0.215
-0.225
-0.21
-0.205
-0.205
-0.195
-0.2
-0.205
-0.205
-0.2
-0.21
-0.215
-0.205
-0.22
-0.215
-0.2
-0.19
-0.195
-0.19
-0.18
-0.185
-0.2
-0.185
-0.2
-0.195
-0.195
-0.17
-0.16
-0.14
-0.12
-0.105
-0.09
-0.06
-0.02
0.06
0.15
0.295
0.425
0.575
0.69
0.755
0.685
0.495
0.23
-0.055
-0.285
-0.435
-0.52
-0.55
-0.55
-0.525
-0.51
-0.49
-0.45
-0.43
-0.43
-0.455
-0.465
-0.47
-0.445
-0.42
-0.375
-0.37
-0.33
-0.33
-0.35
-0.375
-0.385
-0.395
-0.395
-0.395
-0.375
-0.35
-0.325
-0.295
-0.265
-0.245
-0.23
-0.21
-0.205
-0.21
-0.215
-0.225
-0.225
-0.23
-0.24
-0.245
-0.23
-0.21
-0.195
-0.195
-0.2
-0.21
-0.22
-0.22
-0.22
-0.22
-0.21
-0.2
-0.19
-0.17
-0.175
-0.18
-0.185
-0.2
-0.2
-0.195
-0.19
-0.19
-0.185
-0.18
-0.16
-0.155
-0.16
-0.15
-0.155
-0.155
-0.155
-0.16
-0.155
-0.14
-0.14
-0.125
-0.095
-0.085
-0.075
-0.08
-0.08
-0.075
-0.075
-0.075
-0.065
-0.04
-0.02
-0.005
0.02
0.035
0.05
0.06
0.06
0.06
0.055
0.05
0.065
0.065
0.08
0.1
0.11
0.12
0.115
0.115
0.115
0.11
0.12
0.11
0.11
0.105
0.085
0.08
0.07
0.075
0.07
0.045
0.04
0.02
0.0
-0.025
-0.045
-0.06
-0.085
-0.065
-0.07
-0.08
-0.08
-0.11
-0.13
-0.14
-0.16
-0.16
-0.175
-0.17
-0.18
-0.17
-0.17
-0.175
-0.19
-0.185
-0.195
-0.21
-0.22
-0.225
-0.23
-0.245
-0.24
-0.22
-0.225
-0.22
-0.21
-0.215
-0.215
-0.22
-0.205
-0.21
-0.205
-0.2
-0.18
-0.16
-0.155
-0.145
-0.135
-0.14
-0.14
-0.17
-0.15
-0.17
-0.18
-0.17
-0.17
-0.15
-0.14
-0.135
-0.125
-0.13
-0.135
-0.145
-0.15
-0.155
-0.16
-0.15
-0.135
-0.12
-0.12
-0.12
-0.125
-0.135
-0.135
-0.135
-0.145
-0.14
-0.15
-0.155
-0.16
-0.16
-0.15
-0.155
-0.14
-0.155
-0.155
-0.175
-0.175
-0.175
-0.175
-0.17
-0.17
-0.17
-0.17
-0.165
-0.16
-0.165
-0.16
-0.16
-0.165
-0.18
-0.18
-0.18
-0.175
-0.16
-0.155
-0.145
-0.145
-0.14
-0.14
-0.155
-0.14
-0.14
-0.125
-0.085
-0.035
0.065
0.175
0.335
0.495
0.64
0.745
0.735
0.63
0.39
0.1
-0.195
-0.405
-0.54
-0.57
-0.545
-0.5
-0.445
-0.405
-0.39
-0.385
-0.4
-0.44
-0.455
-0.435
-0.405
-0.365
-0.32
-0.295
-0.31
-0.31
-0.33
-0.345
-0.365
-0.36
-0.34
-0.32
-0.3
-0.275
-0.235
-0.215
-0.195
-0.185
-0.175
-0.165
-0.175
-0.18
-0.17
-0.17
-0.165
-0.15
-0.14
-0.135
-0.15
-0.145
-0.155
-0.16
-0.165
-0.17
-0.17
-0.16
-0.17
-0.155
-0.135
-0.14
-0.15
-0.145
-0.15
-0.16
-0.16
-0.175
-0.15
-0.14
-0.125
-0.115
-0.115
-0.11
-0.115
-0.115
-0.12
-0.115
-0.12
-0.115
-0.105
-0.1
-0.075
-0.07
-0.05
-0.03
-0.02
-0.02
-0.03
-0.04
-0.035
-0.025
-0.01
0.0
0.035
0.045
0.07
0.08
0.095
0.105
0.12
0.13
0.115
0.125
0.12
0.12
0.14
0.145
0.16
0.165
0.165
0.165
0.15
0.145
0.12
0.11
0.105
0.085
0.07
0.055
0.035
0.02
0.01
-0.02
-0.03
-0.05
-0.065
-0.075
-0.08
-0.1
-0.105
-0.1
-0.1
-0.11
-0.125
-0.14
-0.155
-0.175
-0.175
-0.18
-0.185
-0.185
-0.17
-0.175
-0.18
-0.175
-0.19
-0.19
-0.195
-0.2
-0.195
-0.195
-0.185
-0.18
-0.18
-0.18
-0.185
-0.18
-0.175
-0.175
-0.18
-0.18
-0.185
-0.19
-0.19
-0.185
-0.18
-0.17
-0.165
-0.145
-0.16
-0.145
-0.155
-0.165
-0.18
-0.185
-0.205
-0.2
-0.19
-0.18
-0.175
-0.17
-0.185
-0.195
-0.195
-0.2
-0.19
-0.2
-0.19
-0.19
-0.19
-0.19
-0.18
-0.16
-0.16
-0.145
-0.135
-0.13
-0.135
-0.155
-0.15
-0.16
-0.165
-0.16
-0.16
-0.165
-0.18
-0.18
-0.175
-0.185
-0.195
-0.185
-0.195
-0.19
-0.195
-0.18
-0.17
-0.155
-0.14
-0.135
-0.145
-0.14
-0.175
-0.18
-0.185
-0.19
-0.19
-0.18
-0.16
-0.145
-0.15
-0.145
-0.16
-0.17
-0.18
-0.185
-0.185
-0.18
-0.185
-0.16
-0.17
-0.165
-0.165
-0.155
-0.165
-0.16
-0.155
-0.16
-0.155
-0.16
-0.165
-0.155
-0.15
-0.15
-0.145
-0.14
-0.155
-0.165
-0.17
-0.16
-0.155
-0.13
-0.12
-0.09
-0.05
-0.03
0.01
0.095
0.195
0.31
0.42
0.535
0.605
0.63
0.56
0.38
0.125
-0.135
-0.36
-0.49
-0.56
-0.565
-0.54
-0.49
-0.445
-0.4
-0.385
-0.375
-0.395
-0.41
-0.415
-0.395
-0.365
-0.32
-0.305
-0.285
-0.28
-0.305
-0.31
-0.32
-0.335
-0.33
-0.32
-0.31
-0.305
-0.28
-0.26
-0.24
-0.21
-0.2
-0.175
-0.17
-0.155
-0.15
-0.15
-0.15
-0.155
-0.17
-0.18
-0.185
-0.17
-0.18
-0.175
-0.165
-0.165
-0.15
-0.165
-0.15
-0.155
-0.155
-0.165
-0.165
-0.17
-0.165
-0.165
-0.15
-0.14
-0.14
-0.145
-0.145
-0.155
-0.14
-0.145
-0.145
-0.145
-0.14
-0.13
-0.11
-0.1
-0.105
-0.1
-0.105
-0.11
-0.11
-0.105
-0.115
-0.095
-0.075
-0.06
-0.045
-0.025
-0.01
-0.01
-0.02
0.005
0.015
0.01
0.02
0.015
0.035
0.04
0.055
0.075
0.105
0.105
0.095
0.08
0.095
0.09
0.09
0.085
0.085
0.09
0.09
0.08
0.065
0.05
0.045
0.025
0.005
-0.01
-0.035
-0.035
-0.03
-0.04
-0.055
-0.065
-0.065
-0.075
-0.075
-0.085
-0.115
-0.13
-0.17
-0.19
-0.195
-0.2
-0.18
-0.18
-0.175
-0.18
-0.175
-0.19
-0.2
-0.215
-0.205
-0.215
-0.21
-0.22
-0.22
-0.21
-0.2
-0.21
-0.205
-0.215
-0.225
-0.225
-0.23
-0.225
-0.225
-0.205
-0.21
-0.205
-0.205
-0.205
-0.215
-0.22
-0.215
-0.225
-0.235
-0.24
-0.25
-0.245
-0.24
-0.23
-0.235
-0.225
-0.215
-0.22
-0.225
-0.225
-0.215
-0.21
-0.205
-0.19
-0.18
-0.18
-0.18
-0.175
-0.155
-0.16
-0.145
-0.15
-0.13
-0.115
-0.11
-0.105
-0.09
-0.095
-0.1
-0.12
-0.12
-0.145
-0.15
-0.14
-0.145
-0.145
-0.135
-0.125
-0.125
-0.115
-0.115
-0.11
-0.1
-0.1
-0.085
-0.08
-0.085
-0.09
-0.105
-0.095
-0.095
-0.085
-0.09
-0.075
-0.075
-0.08
-0.09
-0.095
-0.1
-0.115
-0.115
-0.13
-0.12
-0.105
-0.105
-0.1
-0.105
-0.08
-0.09
-0.1
-0.11
-0.115
-0.12
-0.115
-0.11
-0.12
-0.115
-0.115
-0.11
-0.11
-0.13
-0.15
-0.145
-0.145
-0.145
-0.135
-0.12
-0.105
-0.08
-0.08
-0.045
-0.03
-0.02
0.005
0.045
0.11
0.2
0.29
0.39
0.48
0.55
0.58
0.555
0.44
0.24
-0.015
-0.24
-0.41
-0.5
-0.52
-0.495
-0.455
-0.41
-0.36
-0.345
-0.33
-0.355
-0.36
-0.38
-0.375
-0.34
-0.295
-0.26
-0.235
-0.215
-0.225
-0.255
-0.285
-0.295
-0.305
-0.285
-0.28
-0.255
-0.23
-0.22
-0.19
-0.16
-0.15
-0.135
-0.135
-0.125
-0.135
-0.135
-0.145
-0.165
-0.17
-0.165
-0.16
-0.145
-0.155
-0.145
-0.145
-0.14
-0.14
-0.15
-0.15
-0.15
-0.125
-0.12
-0.115
-0.115
-0.135
-0.145
-0.16
-0.16
-0.155
-0.155
-0.145
-0.14
-0.13
-0.125
-0.115
-0.12
-0.12
-0.125
-0.135
-0.13
-0.125
-0.135
-0.13
-0.14
-0.115
-0.105
-0.105
-0.09
-0.085
-0.07
-0.075
-0.055
-0.055
-0.05
-0.04
-0.025
-0.015
-0.005
0.0
0.025
0.035
0.055
0.055
0.06
0.05
0.06
0.055
0.065
0.065
0.075
0.09
0.105
0.085
0.085
0.065
0.07
0.05
0.045
0.035
0.015
0.005
0.0
-0.005
-0.02
-0.025
-0.035
-0.05
-0.07
-0.09
-0.12
-0.135
-0.16
-0.17
-0.175
-0.17
-0.155
-0.16
-0.16
-0.155
-0.175
-0.195
-0.205
-0.215
-0.23
-0.225
-0.225
-0.23
-0.215
-0.22
-0.235
-0.235
-0.245
-0.23
-0.225
-0.22
-0.21
-0.21
-0.215
-0.195
-0.19
-0.195
-0.2
-0.21
-0.215
-0.215
-0.225
-0.225
-0.225
-0.23
-0.235
-0.23
-0.23
-0.225
-0.23
-0.225
-0.235
-0.25
-0.25
-0.24
-0.23
-0.225
-0.215
-0.215
-0.2
-0.2
-0.2
-0.195
-0.19
-0.185
-0.185
-0.2
-0.185
-0.185
-0.185
-0.19
-0.205
-0.195
-0.21
-0.215
-0.215
-0.225
-0.22
-0.22
-0.235
-0.22
-0.215
-0.205
-0.21
-0.21
-0.195
-0.205
-0.205
-0.225
-0.215
-0.22
-0.23
-0.225
-0.225
-0.23
-0.225
-0.225
-0.225
-0.24
-0.25
-0.25
-0.26
-0.26
-0.26
-0.235
-0.22
-0.22
-0.21
-0.205
-0.22
-0.235
-0.225
-0.24
-0.25
-0.235
-0.245
-0.245
-0.235
-0.22
-0.215
-0.21
-0.21
-0.21
-0.2
-0.22
-0.205
-0.215
-0.215
-0.195
-0.18
-0.17
-0.145
-0.12
-0.085
-0.035
0.05
0.145
0.225
0.325
0.395
0.42
0.38
0.215
-0.01
-0.245
-0.45
-0.56
-0.6
-0.595
-0.57
-0.535
-0.5
-0.435
-0.4
-0.38
-0.385
-0.405
-0.425
-0.45
-0.43
-0.395
-0.36
-0.345
-0.32
-0.32
-0.325
-0.345
-0.36
-0.38
-0.375
-0.36
-0.345
-0.32
-0.31
-0.3
-0.275
-0.25
-0.23
-0.215
-0.21
-0.195
-0.19
-0.21
-0.21
-0.23
-0.23
-0.225
-0.22
-0.205
-0.215
-0.21
-0.21
-0.22
-0.21
-0.205
-0.2
-0.21
-0.205
-0.2
-0.2
-0.2
-0.195
-0.19
-0.175
-0.175
-0.16
-0.165
-0.17
-0.185
-0.19
-0.18
-0.175
-0.16
-0.165
-0.16
-0.155
-0.14
-0.145
-0.14
-0.135
-0.145
-0.13
-0.125
-0.12
-0.105
-0.095
-0.065
-0.055
-0.065
-0.065
-0.065
-0.045
-0.05
-0.03
-0.03
-0.015
0.0
0.015
0.015
0.025
0.04
0.055
0.045
0.055
0.045
0.035
0.025
0.02
0.035
0.045
0.045
0.055
0.055
0.035
0.02
-0.005
-0.03
-0.055
-0.07
-0.08
-0.085
-0.095
-0.1
-0.105
-0.11
-0.13
-0.145
-0.165
-0.175
-0.19
-0.195
-0.2
-0.2
-0.21
-0.205
-0.2
-0.215
-0.215
-0.225
-0.23
-0.235
-0.25
-0.245
-0.25
-0.25
-0.235
-0.235
-0.23
-0.23
-0.23
-0.225
-0.225
-0.235
-0.25
-0.24
-0.245
-0.26
-0.25
-0.26
-0.235
-0.225
-0.23
-0.23
-0.25
-0.24
-0.25
-0.25
-0.25
-0.255
-0.265
-0.26
-0.255
-0.27
-0.26
-0.245
-0.26
-0.26
-0.265
-0.245
-0.25
-0.245
-0.245
-0.235
-0.22
-0.235
-0.225
-0.215
-0.215
-0.215
-0.215
-0.22
-0.225
-0.215
-0.205
-0.2
-0.2
-0.195
-0.215
-0.225
-0.225
-0.235
-0.245
-0.26
-0.26
-0.255
-0.235
-0.22
-0.22
-0.21
-0.21
-0.195
-0.205
-0.22
-0.235
-0.245
-0.255
-0.25
-0.24
-0.23
-0.21
-0.22
-0.24
-0.245
-0.245
-0.255
-0.255
-0.255
-0.24
-0.235
-0.235
-0.225
-0.235
-0.23
-0.23
-0.225
-0.23
-0.23
-0.23
-0.23
-0.23
-0.23
-0.23
-0.245
-0.225
-0.23
-0.23
-0.225
-0.235
-0.23
-0.22
-0.23
-0.22
-0.22
-0.205
-0.195
-0.18
-0.17
-0.145
-0.11
-0.085
-0.055
0.01
0.1
0.21
0.32
0.395
0.415
0.33
0.125
-0.155
-0.405
-0.565
-0.645
-0.645
-0.595
-0.53
-0.465
-0.415
-0.39
-0.395
-0.41
-0.43
-0.435
-0.4
-0.37
-0.34
-0.32
-0.325
-0.33
-0.35
-0.355
-0.37
-0.37
-0.35
-0.345
-0.325
-0.325
-0.315
-0.3
-0.27
-0.235
-0.215
-0.2
-0.2
-0.2
-0.205
-0.21
-0.215
-0.225
-0.235
-0.225
-0.235
-0.215
-0.21
-0.215
-0.215
-0.215
-0.195
-0.215
-0.2
-0.205
-0.205
-0.205
-0.2
-0.195
-0.2
-0.195
-0.185
-0.185
-0.17
-0.175
-0.185
-0.2
-0.2
-0.185
-0.18
-0.165
-0.15
-0.155
-0.14
-0.13
-0.13
-0.125
-0.125
-0.125
-0.12
-0.125
-0.11
-0.1
-0.08
-0.065
-0.045
-0.03
-0.025
-0.005
-0.005
0.005
0.005
0.01
0.02
0.015
0.03
0.05
0.045
0.055
0.06
0.055
0.045
0.03
0.025
0.02
0.02
0.025
0.025
0.02
0.01
-0.005
-0.025
-0.035
-0.075
-0.09
-0.12
-0.12
-0.13
-0.135
-0.135
-0.14
-0.145
-0.17
-0.185
-0.195
-0.215
-0.23
-0.25
-0.245
-0.24
-0.245
-0.235
-0.225
-0.225
-0.235
-0.25
-0.26
-0.265
-0.285
-0.28
-0.295
-0.295
-0.28
-0.275
-0.265
-0.26
-0.26
-0.265
-0.28
-0.27
-0.27
-0.275
-0.285
-0.29
-0.28
-0.265
-0.245
-0.25
-0.235
-0.23
-0.235
-0.25
-0.255
-0.265
-0.255
-0.245
-0.25
-0.24
-0.23
-0.22
