Lead II
-0.82
-0.82
-0.82
-0.805
-0.8
-0.82
-0.81
-0.805
-0.795
-0.785
-0.775
-0.775
-0.78
-0.81
-0.825
-0.82
-0.815
-0.82
-0.835
-0.845
-0.855
-0.86
-0.84
-0.82
-0.815
-0.815
-0.825
-0.825
-0.81
-0.82
-0.825
-0.795
-0.77
-0.73
-0.715
-0.73
-0.77
-0.79
-0.775
-0.77
-0.755
-0.75
-0.75
-0.755
-0.755
-0.73
-0.655
-0.595
-0.53
-0.5
-0.45
-0.35
-0.22
-0.13
-0.035
0.07
0.21
0.345
0.54
0.77
1.005
1.175
1.265
1.295
1.34
1.4
1.425
1.38
1.31
1.22
1.065
0.83
0.62
0.4
0.175
-0.075
-0.33
-0.505
-0.645
-0.775
-0.855
-0.87
-0.86
-0.88
-0.93
-0.96
-0.94
-0.915
-0.925
-0.955
-0.99
-1.03
-1.025
-1.015
-1.01
-1.01
-1.035
-1.065
-1.09
-1.055
-1.01
-1.005
-1.015
-1.01
-1.005
-0.985
-0.97
-0.95
-0.95
-0.96
-0.965
-0.955
-0.92
-0.905
-0.905
-0.9
-0.895
-0.89
-0.885
-0.855
-0.81
-0.81
-0.8
-0.755
-0.735
-0.735
-0.76
-0.77
-0.75
-0.74
-0.73
-0.715
-0.71
-0.72
-0.71
-0.675
-0.63
-0.625
-0.61
-0.61
-0.58
-0.53
-0.51
-0.495
-0.49
-0.51
-0.535
-0.52
-0.5
-0.54
-0.565
-0.57
-0.56
-0.545
-0.53
-0.52
-0.53
-0.53
-0.525
-0.52
-0.495
-0.495
-0.505
-0.505
-0.495
-0.465
-0.445
-0.44
-0.425
-0.425
-0.435
-0.42
-0.38
-0.385
-0.39
-0.395
-0.375
-0.385
-0.405
-0.415
-0.405
-0.385
-0.38
-0.39
-0.385
-0.415
-0.435
-0.435
-0.435
-0.42
-0.395
-0.37
-0.335
-0.295
-0.23
-0.18
-0.145
-0.165
-0.175
-0.14
-0.07
0.025
0.09
0.16
0.25
0.45
0.715
0.91
1.02
1.13
1.325
1.455
1.55
1.55
1.495
1.375
1.165
0.93
0.715
0.515
0.3
0.095
-0.115
-0.34
-0.475
-0.525
-0.49
-0.49
-0.54
-0.59
-0.605
-0.605
-0.585
-0.605
-0.63
-0.665
-0.655
-0.645
-0.64
-0.66
-0.67
-0.67
-0.68
-0.67
-0.64
-0.63
-0.64
-0.67
-0.65
-0.63
-0.59
-0.59
-0.62
-0.64
-0.605
-0.545
-0.535
-0.53
-0.525
-0.53
-0.52
-0.5
-0.475
-0.44
-0.445
-0.46
-0.465
-0.435
-0.38
-0.36
-0.345
-0.33
-0.305
-0.27
-0.215
-0.21
-0.205
-0.2
-0.195
-0.18
-0.14
-0.115
-0.105
-0.105
-0.105
-0.085
-0.065
-0.04
-0.045
-0.045
-0.035
-0.045
-0.055
-0.065
-0.105
-0.13
-0.145
-0.135
-0.1
-0.1
-0.13
-0.15
-0.155
-0.155
-0.155
-0.17
-0.175
-0.18
-0.165
-0.16
-0.14
-0.13
-0.155
-0.175
-0.175
-0.155
-0.135
-0.13
-0.125
-0.135
-0.16
-0.125
-0.11
-0.105
-0.135
-0.14
-0.115
-0.12
-0.11
-0.095
-0.09
-0.105
-0.105
-0.09
-0.05
-0.045
-0.055
-0.08
-0.07
-0.04
-0.02
-0.025
-0.05
-0.07
-0.08
-0.1
-0.045
-0.04
-0.05
-0.045
-0.04
-0.015
0.0
-0.015
-0.035
-0.05
-0.045
-0.03
-0.005
-0.015
-0.01
-0.01
-0.01
0.005
0.025
0.005
-0.005
-0.025
-0.02
0.005
-0.005
0.005
0.02
0.0
-0.01
0.0
0.035
0.03
0.015
-0.025
-0.02
0.005
0.03
0.05
0.09
0.08
0.09
0.11
0.15
0.145
0.13
0.115
0.125
0.145
0.15
0.145
0.16
0.155
0.145
0.155
0.175
0.185
0.17
0.155
0.165
0.18
0.2
0.2
0.19
0.195
0.185
0.19
0.2
0.185
0.195
0.18
0.165
0.16
0.165
0.17
0.17
0.17
0.17
0.175
0.185
0.185
0.18
0.185
0.175
0.17
0.175
0.16
0.155
0.16
0.155
0.165
0.185
0.195
0.2
0.19
0.205
0.235
0.26
0.295
0.335
0.405
0.5
0.605
0.695
0.79
0.91
1.0
1.085
1.17
1.26
1.34
1.485
1.69
1.865
2.0
2.065
2.05
2.07
2.1
2.105
2.09
2.02
1.85
1.675
1.495
1.33
1.14
0.93
0.69
0.495
0.31
0.19
0.13
0.13
0.115
0.08
0.05
0.025
-0.005
-0.045
-0.075
-0.09
-0.095
-0.095
-0.1
-0.095
-0.115
-0.145
-0.18
-0.155
-0.115
-0.09
-0.075
-0.085
-0.105
-0.09
-0.06
-0.05
-0.05
-0.05
-0.04
-0.02
0.0
0.035
0.055
0.065
0.065
0.075
0.075
0.07
0.08
0.065
0.055
0.06
0.095
0.12
0.12
0.135
0.13
0.145
0.16
0.175
0.175
0.175
0.165
0.16
0.17
0.185
0.21
0.24
0.24
0.24
0.26
0.28
0.28
0.255
0.275
0.3
0.33
0.355
0.37
0.37
0.355
0.375
0.42
0.43
0.415
0.39
0.38
0.385
0.405
0.43
0.435
0.445
0.455
0.45
0.46
0.495
0.495
0.48
0.455
0.475
0.49
0.505
0.5
0.48
0.475
0.48
0.5
0.505
0.5
0.5
0.48
0.475
0.47
0.495
0.495
0.48
0.465
0.465
0.485
0.48
0.47
0.455
0.455
0.46
0.42
0.415
0.4
0.36
0.34
0.34
0.36
0.39
0.39
0.375
0.365
0.365
0.38
0.395
0.385
0.35
0.345
0.365
0.385
0.405
0.4
0.385
0.355
0.34
0.36
0.385
0.38
0.35
0.34
0.335
0.375
0.395
0.385
0.38
0.36
0.365
0.38
0.38
0.36
0.33
0.335
0.36
0.365
0.37
0.36
0.37
0.325
0.31
0.3
0.325
0.35
0.345
0.345
0.345
0.345
0.335
0.335
0.3
0.265
0.295
0.315
0.32
0.315
0.305
0.295
0.29
0.275
0.3
0.28
0.28
0.27
0.255
0.255
0.29
0.265
0.245
0.22
0.2
0.23
0.275
0.33
0.385
0.435
0.49
0.535
0.65
0.74
0.84
0.965
1.08
1.23
1.415
1.595
1.765
1.86
1.915
1.95
1.98
1.995
1.925
1.87
1.745
1.57
1.39
1.25
1.075
0.865
0.615
0.435
0.29
0.125
-0.05
-0.125
-0.12
-0.105
-0.11
-0.155
-0.19
-0.215
-0.215
-0.21
-0.205
-0.22
-0.24
-0.27
-0.285
-0.3
-0.305
-0.325
-0.36
-0.35
-0.365
-0.36
-0.36
-0.34
-0.355
-0.375
-0.38
-0.365
-0.34
-0.355
-0.375
-0.39
-0.4
-0.385
-0.345
-0.345
-0.345
-0.35
-0.34
-0.325
-0.285
-0.275
-0.285
-0.285
-0.26
-0.245
-0.235
-0.23
-0.21
-0.22
-0.185
-0.17
-0.13
-0.115
-0.11
-0.1
-0.09
-0.045
-0.025
-0.02
-0.04
-0.02
-0.005
-0.005
-0.01
0.005
0.005
-0.01
-0.04
-0.07
-0.115
-0.15
-0.17
-0.18
-0.18
-0.175
-0.175
-0.18
-0.17
-0.18
-0.195
-0.2
-0.205
-0.22
-0.21
-0.22
-0.225
-0.215
-0.22
-0.255
-0.28
-0.295
-0.31
-0.3
-0.275
-0.285
-0.305
-0.31
-0.3
-0.29
-0.29
-0.315
-0.32
-0.31
-0.305
-0.295
-0.29
-0.295
-0.295
-0.31
-0.32
-0.305
-0.295
-0.3
-0.33
-0.355
-0.365
-0.345
-0.33
-0.35
-0.375
-0.38
-0.365
-0.35
-0.36
-0.385
-0.37
-0.35
-0.35
-0.335
-0.33
-0.33
-0.335
-0.365
-0.385
-0.385
-0.395
-0.425
-0.455
-0.45
-0.44
-0.41
-0.4
-0.4
-0.395
-0.41
-0.425
-0.42
-0.405
-0.405
-0.405
-0.415
-0.41
-0.405
-0.37
-0.395
-0.42
-0.445
-0.41
-0.36
-0.34
-0.35
-0.37
-0.375
-0.375
-0.37
-0.365
-0.375
-0.385
-0.4
-0.425
-0.425
-0.425
-0.435
-0.42
-0.395
-0.385
-0.365
-0.37
-0.4
-0.42
-0.43
-0.43
-0.42
-0.39
-0.38
-0.38
-0.395
-0.39
-0.38
-0.365
-0.375
-0.4
-0.425
-0.42
-0.39
-0.38
-0.4
-0.415
-0.435
-0.415
-0.4
-0.37
-0.365
-0.375
-0.405
-0.415
-0.4
-0.385
-0.39
-0.365
-0.37
-0.38
-0.37
-0.375
-0.38
-0.385
-0.39
-0.39
-0.38
-0.36
-0.385
-0.375
-0.39
-0.365
-0.36
-0.345
-0.36
-0.37
-0.39
-0.4
-0.41
-0.41
-0.39
-0.385
-0.38
-0.38
-0.37
-0.33
-0.33
-0.36
-0.385
-0.39
-0.375
-0.38
-0.405
-0.425
-0.405
-0.4
-0.385
-0.38
-0.385
-0.38
-0.395
-0.38
-0.365
-0.355
-0.355
-0.38
-0.395
-0.415
-0.41
-0.385
-0.37
-0.35
-0.325
-0.325
-0.315
-0.33
-0.31
-0.305
-0.295
-0.3
-0.29
-0.285
-0.285
-0.295
-0.295
-0.295
-0.29
-0.29
-0.285
-0.285
-0.285
-0.305
-0.305
-0.285
-0.29
-0.3
-0.295
-0.27
-0.26
-0.25
-0.26
-0.275
-0.285
-0.285
-0.28
-0.265
-0.28
-0.3
-0.305
-0.29
-0.24
-0.235
-0.25
-0.275
-0.28
-0.275
-0.265
-0.265
-0.285
-0.31
-0.29
-0.285
-0.255
-0.255
-0.27
-0.28
-0.285
-0.27
-0.255
-0.265
-0.265
-0.275
-0.285
-0.29
-0.295
-0.29
-0.28
-0.28
-0.26
-0.24
-0.21
-0.195
-0.22
-0.225
-0.24
-0.23
-0.205
-0.165
-0.145
-0.15
-0.16
-0.17
-0.16
-0.17
-0.16
-0.155
-0.145
-0.145
-0.14
-0.14
-0.15
-0.155
-0.18
-0.155
-0.135
-0.1
-0.045
0.02
0.07
0.15
0.235
0.34
0.445
0.54
0.63
0.735
0.845
1.0
1.205
1.42
1.59
1.7
1.785
1.835
1.91
1.93
1.9
1.86
1.785
1.625
1.43
1.23
1.015
0.78
0.515
0.25
0.06
-0.085
-0.22
-0.315
-0.34
-0.33
-0.35
-0.415
-0.43
-0.45
-0.46
-0.46
-0.47
-0.485
-0.515
-0.535
-0.535
-0.5
-0.5
-0.52
-0.555
-0.555
-0.535
-0.52
-0.545
-0.57
-0.565
-0.575
-0.56
-0.57
-0.545
-0.53
-0.54
-0.54
-0.54
-0.53
-0.53
-0.535
-0.52
-0.515
-0.475
-0.455
-0.45
-0.445
-0.44
-0.44
-0.42
-0.4
-0.385
-0.395
-0.405
-0.395
-0.37
-0.35
-0.36
-0.375
-0.365
-0.34
-0.31
-0.28
-0.3
-0.325
-0.32
-0.325
-0.295
-0.24
-0.21
-0.195
-0.21
-0.18
-0.135
-0.09
-0.085
-0.065
-0.04
-0.035
-0.015
0.0
-0.005
-0.01
-0.02
-0.04
-0.025
0.01
0.015
0.015
0.015
0.04
0.055
0.045
0.01
0.01
0.005
0.025
0.035
0.035
0.05
0.065
0.08
0.085
0.095
0.11
0.115
0.1
0.085
0.08
0.09
0.11
0.105
0.085
0.07
0.095
0.1
0.1
0.085
0.095
0.085
0.075
0.06
0.045
0.015
-0.025
-0.04
-0.03
-0.02
-0.005
-0.025
-0.06
-0.045
-0.03
-0.005
-0.005
-0.015
-0.025
-0.04
-0.01
0.005
0.035
0.05
0.055
0.055
0.05
0.065
0.07
0.055
0.06
0.03
0.035
0.07
0.115
0.12
0.095
0.075
0.08
0.11
0.12
0.105
0.09
0.065
0.09
0.105
0.1
0.095
0.075
0.065
0.065
0.065
0.08
0.075
0.075
0.055
0.05
0.075
0.075
0.08
0.065
0.085
0.1
0.1
0.105
0.095
0.07
0.06
0.065
0.045
0.055
0.075
0.09
0.135
0.215
0.32
0.465
0.56
0.65
0.73
0.85
0.97
1.09
1.22
1.395
1.585
1.795
1.935
2.0
2.02
2.03
2.035
2.01
1.97
1.88
1.685
1.48
1.295
1.14
0.94
0.725
0.51
0.33
0.175
0.03
-0.04
-0.04
-0.045
-0.09
-0.135
-0.17
-0.17
-0.17
-0.21
-0.265
-0.255
-0.22
-0.215
-0.21
-0.245
-0.265
-0.28
-0.295
-0.28
-0.27
-0.285
-0.3
-0.32
-0.305
-0.285
-0.265
-0.27
-0.29
-0.3
-0.29
-0.27
-0.25
-0.24
-0.245
-0.255
-0.235
-0.215
-0.185
-0.165
-0.165
-0.145
-0.12
-0.075
-0.055
-0.035
-0.025
-0.02
0.0
0.03
0.055
0.08
0.1
0.105
0.12
0.15
0.175
0.195
0.215
0.235
0.255
0.265
0.265
0.25
0.24
0.26
0.28
0.285
0.335
0.32
0.285
0.25
0.245
0.25
0.25
0.205
0.165
0.155
0.18
0.19
0.19
0.14
0.115
0.145
0.165
0.155
0.135
0.115
0.1
0.09
0.075
0.075
0.085
0.085
0.065
0.045
0.045
0.04
0.055
0.05
0.055
0.08
0.1
0.15
0.185
0.155
0.125
0.115
0.14
0.15
0.165
0.16
0.14
0.165
0.165
0.16
0.175
0.165
0.15
0.12
0.11
0.13
0.165
0.17
0.145
0.1
0.13
0.145
0.16
0.13
0.105
0.125
0.125
0.14
0.145
0.13
0.115
0.105
0.115
0.105
0.105
0.105
0.07
0.07
0.08
0.12
0.12
0.11
0.095
0.1
0.105
0.1
0.12
0.105
0.11
0.105
0.11
0.11
0.14
0.125
0.11
0.11
0.15
0.165
0.165
0.155
0.155
0.18
0.18
0.175
0.17
0.17
0.17
0.175
0.18
0.195
0.205
0.205
0.17
0.15
0.155
0.165
0.175
0.17
0.15
0.145
0.145
0.17
0.19
0.195
0.155
0.145
0.155
0.155
0.155
0.155
0.135
0.145
0.145
0.165
0.18
0.18
0.18
0.175
0.19
0.195
0.19
0.175
0.15
0.14
0.155
0.15
0.15
0.145
0.125
0.105
0.11
0.115
0.125
0.095
0.07
0.065
0.09
0.1
0.105
0.105
0.11
0.12
0.125
0.135
0.17
0.2
0.185
0.165
0.17
0.195
0.19
0.19
0.175
0.18
0.185
0.19
0.22
0.225
0.2
0.17
0.175
0.2
0.23
0.21
0.185
0.175
0.195
0.205
0.22
0.195
0.185
0.15
0.16
0.17
0.195
0.18
0.16
0.125
0.12
0.155
0.16
0.19
0.17
0.155
0.15
0.18
0.19
0.17
0.145
0.13
0.15
0.17
0.175
0.155
0.145
0.15
0.15
0.155
0.16
0.155
0.135
0.1
0.09
0.11
0.145
0.15
0.125
0.125
0.135
0.155
0.15
0.15
0.15
0.16
0.16
0.15
0.165
0.175
0.175
0.18
0.175
0.205
0.225
0.215
0.205
0.2
0.205
0.215
0.235
0.25
0.315
0.385
0.445
0.53
0.64
0.755
0.84
0.915
1.015
1.11
1.265
1.445
1.605
1.71
1.78
1.795
1.825
1.835
1.805
1.73
1.58
1.42
1.27
1.065
0.88
0.63
0.4
0.245
0.11
-0.025
-0.115
-0.15
-0.16
-0.185
-0.205
-0.225
-0.27
-0.27
-0.27
-0.265
-0.25
-0.24
-0.265
-0.295
-0.3
-0.275
-0.26
-0.285
-0.295
-0.31
-0.315
-0.305
-0.285
-0.27
-0.255
-0.28
-0.295
-0.27
-0.28
-0.3
-0.295
-0.285
-0.285
-0.265
-0.25
-0.245
-0.26
-0.275
-0.255
-0.235
-0.22
-0.22
-0.205
-0.2
-0.185
-0.155
-0.145
-0.135
-0.15
-0.15
-0.105
-0.065
-0.06
-0.075
-0.07
-0.07
-0.055
-0.025
-0.005
-0.005
-0.005
0.02
0.055
0.08
0.095
0.095
0.1
0.09
0.09
0.12
0.13
0.115
0.075
0.095
0.115
0.16
0.155
0.14
0.13
0.135
0.13
0.145
0.155
0.155
0.135
0.14
0.155
0.175
0.165
0.12
0.115
0.115
0.115
0.12
0.13
0.135
0.115
0.095
0.07
0.09
0.1
0.08
0.075
0.08
0.1
0.11
0.1
0.09
0.06
0.035
0.05
0.045
0.025
0.02
0.04
0.025
0.025
0.015
0.005
-0.015
-0.02
-0.035
-0.03
-0.04
-0.005
-0.035
-0.07
-0.07
-0.035
0.015
0.02
0.025
0.025
0.03
0.02
0.03
0.025
0.01
0.01
0.01
0.035
0.06
0.08
0.075
0.065
0.05
0.055
0.075
0.055
0.04
0.015
0.015
0.01
0.02
0.035
0.02
-0.01
-0.04
-0.025
-0.01
-0.005
-0.03
-0.04
-0.035
-0.02
-0.01
-0.02
-0.035
-0.045
-0.07
-0.06
-0.06
-0.045
-0.04
-0.045
-0.04
-0.035
-0.02
-0.03
-0.05
-0.055
-0.06
-0.085
-0.08
-0.085
-0.1
-0.135
-0.145
-0.12
-0.105
-0.08
-0.045
-0.045
-0.02
-0.005
-0.015
0.0
0.01
0.0
0.0
0.02
0.035
0.02
-0.01
0.005
0.01
-0.015
0.02
0.015
0.0
-0.025
-0.04
-0.025
0.0
-0.005
-0.035
-0.045
-0.055
-0.035
-0.03
-0.03
-0.05
-0.065
-0.08
-0.045
-0.03
-0.04
-0.07
-0.075
-0.08
-0.07
-0.06
-0.05
-0.06
-0.1
-0.065
0.005
0.125
0.2
0.26
0.32
0.405
0.525
0.595
0.71
0.83
0.965
1.175
1.4
1.545
1.605
1.61
1.64
1.65
1.63
1.585
1.455
1.27
1.055
0.865
0.68
0.495
0.295
0.08
-0.1
-0.24
-0.31
-0.32
-0.345
-0.37
-0.415
-0.45
-0.44
-0.405
-0.425
-0.44
-0.48
-0.51
-0.525
-0.505
-0.495
-0.505
-0.52
-0.52
-0.505
-0.48
-0.475
-0.49
-0.53
-0.505
-0.495
-0.48
-0.45
-0.465
-0.49
-0.495
-0.5
-0.46
-0.44
-0.435
-0.485
-0.515
-0.495
-0.455
-0.42
-0.415
-0.425
-0.43
-0.395
-0.395
-0.375
-0.35
-0.335
-0.335
-0.35
-0.315
-0.255
-0.225
-0.23
-0.23
-0.2
-0.185
-0.165
-0.165
-0.155
-0.145
-0.105
-0.065
-0.025
-0.01
-0.025
-0.04
-0.035
-0.02
-0.025
-0.07
-0.06
-0.055
-0.06
-0.07
-0.08
-0.075
-0.1
-0.125
-0.15
-0.13
-0.12
-0.135
-0.165
-0.17
-0.18
-0.185
-0.18
-0.21
-0.23
-0.22
-0.21
-0.215
-0.255
-0.315
-0.335
-0.34
-0.305
-0.285
-0.28
-0.3
-0.33
-0.36
-0.335
-0.315
-0.27
-0.27
-0.285
-0.29
-0.295
-0.3
-0.28
-0.28
-0.3
-0.3
-0.3
-0.285
-0.265
-0.255
-0.26
-0.27
-0.285
-0.28
-0.275
-0.28
-0.28
-0.285
-0.265
-0.275
-0.275
-0.285
-0.295
-0.31
-0.33
-0.325
-0.31
-0.315
-0.335
-0.33
-0.32
-0.325
-0.35
-0.365
-0.395
-0.405
-0.41
-0.395
-0.39
-0.41
-0.43
-0.41
-0.39
-0.405
-0.405
-0.415
-0.425
-0.43
-0.41
-0.375
-0.36
-0.38
-0.375
-0.355
-0.34
-0.355
-0.33
-0.295
-0.305
-0.31
-0.33
-0.345
-0.34
-0.335
-0.345
-0.35
-0.33
-0.32
-0.34
-0.345
-0.365
-0.38
-0.37
-0.335
-0.35
-0.405
-0.425
-0.415
-0.37
-0.365
-0.38
-0.425
-0.455
-0.465
-0.46
-0.44
-0.42
-0.435
-0.465
-0.48
-0.47
-0.45
-0.445
-0.46
-0.485
-0.505
-0.505
-0.51
-0.495
-0.505
-0.51
-0.5
-0.45
-0.39
-0.315
-0.245
-0.165
-0.045
0.105
0.265
0.37
0.44
0.53
0.7
0.95
1.18
1.32
1.38
1.395
1.41
1.45
1.435
1.4
1.27
1.08
0.875
0.72
0.555
0.34
0.03
-0.21
-0.38
-0.52
-0.64
-0.72
-0.735
-0.76
-0.765
-0.775
-0.805
-0.81
-0.86
-0.885
-0.885
-0.905
-0.915
-0.94
-0.94
-0.95
-0.97
-0.965
-0.95
-0.95
-0.96
-0.975
-0.97
-0.96
-0.96
-0.975
-0.985
-1.0
-1.005
-0.97
-0.94
-0.94
-0.965
-0.965
-0.95
-0.905
-0.875
-0.88
-0.88
-0.89
-0.88
-0.855
-0.835
-0.815
-0.8
-0.795
-0.78
-0.755
-0.74
-0.735
-0.735
-0.735
-0.735
-0.73
-0.71
-0.67
-0.67
-0.66
-0.64
-0.6
-0.565
-0.565
-0.565
-0.575
-0.58
-0.565
-0.55
-0.53
-0.545
-0.55
-0.58
-0.575
-0.58
-0.59
-0.61
-0.625
-0.66
-0.66
-0.62
-0.6
-0.6
-0.61
-0.595
-0.625
-0.65
-0.665
-0.67
-0.68
-0.72
-0.715
-0.705
-0.68
-0.71
-0.71
-0.715
-0.69
-0.7
-0.69
-0.69
-0.715
-0.72
-0.71
-0.685
-0.695
-0.71
-0.735
-0.735
-0.745
-0.74
-0.725
-0.725
-0.735
-0.745
-0.735
-0.725
-0.72
-0.735
-0.76
-0.76
-0.735
-0.72
-0.715
-0.735
-0.74
-0.735
-0.73
-0.705
-0.675
-0.67
-0.685
-0.7
-0.69
-0.675
-0.665
-0.665
-0.675
-0.675
-0.68
-0.65
-0.665
-0.67
-0.67
-0.65
-0.655
-0.655
-0.685
-0.7
-0.715
-0.73
-0.72
-0.7
-0.7
-0.69
-0.72
-0.735
-0.72
-0.705
-0.69
-0.69
-0.695
-0.68
-0.665
-0.64
-0.64
-0.64
-0.635
-0.635
-0.635
-0.635
-0.62
-0.615
-0.625
-0.64
-0.64
-0.605
-0.59
-0.61
-0.63
-0.63
-0.615
-0.6
-0.605
-0.625
-0.63
-0.625
-0.62
-0.6
-0.585
-0.58
-0.6
-0.63
-0.605
-0.575
-0.57
-0.585
-0.6
-0.605
-0.595
-0.59
-0.575
-0.58
-0.59
-0.61
-0.585
-0.55
-0.55
-0.56
-0.585
-0.575
-0.56
-0.56
-0.56
-0.585
-0.605
-0.615
-0.605
-0.59
-0.575
-0.585
-0.605
-0.605
-0.57
-0.545
-0.535
-0.535
-0.48
-0.41
-0.31
-0.24
-0.165
-0.065
0.04
0.135
0.255
0.365
0.475
0.595
0.78
0.995
1.185
1.295
1.33
1.38
1.365
1.335
1.255
1.115
0.905
0.695
0.505
0.25
-0.01
-0.205
-0.365
-0.5
-0.63
-0.685
-0.675
-0.67
-0.685
-0.735
-0.75
-0.745
-0.755
-0.76
-0.76
-0.795
-0.81
-0.82
-0.82
-0.83
-0.83
-0.855
-0.89
-0.87
-0.85
-0.84
-0.845
-0.86
-0.87
-0.875
-0.86
-0.855
-0.83
-0.83
-0.81
-0.815
-0.785
-0.755
-0.75
-0.745
-0.74
-0.73
-0.705
-0.69
-0.68
-0.67
-0.675
-0.675
-0.67
-0.64
-0.63
-0.62
-0.625
-0.605
-0.58
-0.555
-0.55
-0.52
-0.49
-0.48
-0.465
-0.45
-0.45
-0.445
-0.45
-0.42
-0.375
-0.35
-0.33
-0.32
-0.31
-0.285
-0.26
-0.26
-0.27
-0.28
-0.295
-0.305
-0.305
-0.285
-0.295
-0.325
-0.36
-0.39
-0.385
-0.375
-0.37
-0.38
-0.405
-0.405
-0.405
-0.4
-0.405
-0.415
-0.405
-0.4
-0.405
-0.405
-0.375
-0.36
-0.38
-0.39
-0.38
-0.35
-0.345
-0.355
-0.39
-0.375
-0.35
-0.325
-0.32
-0.35
-0.36
-0.365
-0.35
-0.34
-0.325
-0.33
-0.325
-0.33
-0.325
-0.305
-0.285
-0.27
-0.29
-0.285
-0.245
-0.175
-0.095
-0.03
0.005
-0.005
-0.02
-0.03
0.0
0.07
0.145
0.175
0.2
0.285
0.43
0.635
0.82
0.94
1.06
1.17
1.285
1.34
1.32
1.28
1.23
1.165
0.995
0.805
0.635
0.475
0.29
0.13
-0.015
-0.18
-0.305
-0.415
-0.425
-0.415
-0.43
-0.465
-0.52
-0.535
-0.525
-0.53
-0.555
-0.585
-0.62
-0.605
-0.6
-0.575
-0.575
-0.575
-0.58
-0.59
-0.565
-0.555
-0.53
-0.515
-0.53
-0.545
-0.535
-0.505
-0.485
-0.475
-0.445
-0.43
-0.41
-0.39
-0.42
-0.4
-0.395
-0.38
-0.375
-0.355
-0.34
-0.345
-0.34
-0.33
-0.31
-0.31
-0.31
-0.335
-0.35
-0.34
-0.32
-0.28
-0.275
-0.255
-0.255
-0.245
-0.23
-0.205
-0.19
-0.18
-0.175
-0.145
-0.105
-0.08
-0.085
-0.1
-0.11
-0.125
-0.11
-0.085
-0.06
-0.045
-0.07
-0.08
-0.075
-0.06
-0.07
-0.075
-0.1
-0.1
-0.085
-0.09
-0.09
-0.085
-0.1
-0.115
-0.115
-0.095
-0.085
-0.1
-0.09
-0.11
-0.1
-0.085
-0.065
-0.075
-0.085
-0.09
-0.08
-0.06
-0.07
-0.075
-0.085
-0.09
-0.085
-0.08
-0.085
-0.105
-0.11
-0.095
-0.08
-0.075
-0.09
-0.1
-0.14
-0.15
-0.155
-0.15
-0.145
-0.165
-0.18
-0.18
-0.165
-0.135
-0.145
-0.16
-0.155
-0.145
-0.13
-0.1
-0.095
-0.08
-0.075
-0.08
-0.08
-0.065
-0.05
-0.055
-0.065
-0.06
-0.03
-0.02
-0.025
-0.055
-0.085
-0.07
-0.05
-0.02
-0.035
-0.055
-0.065
-0.075
-0.05
-0.055
-0.065
-0.065
-0.065
-0.065
-0.065
-0.055
-0.045
-0.06
-0.07
-0.08
-0.045
-0.02
-0.025
-0.045
-0.055
-0.075
-0.07
-0.075
-0.09
-0.08
-0.055
-0.045
-0.04
-0.01
-0.01
0.0
-0.025
-0.05
-0.04
-0.02
-0.03
-0.065
-0.065
-0.045
-0.04
-0.04
-0.05
-0.05
-0.045
-0.04
-0.025
-0.005
-0.015
-0.015
-0.04
-0.04
-0.02
-0.02
-0.015
-0.025
-0.025
-0.03
-0.03
-0.005
-0.005
-0.02
-0.04
-0.03
0.0
0.04
0.035
0.005
-0.005
-0.02
-0.01
0.0
0.015
0.01
-0.015
-0.03
-0.02
-0.01
0.0
-0.01
-0.015
-0.005
0.005
0.005
-0.005
-0.015
-0.025
-0.045
-0.025
-0.02
-0.025
-0.035
-0.055
-0.045
-0.025
-0.02
-0.025
-0.045
-0.065
-0.085
-0.08
-0.06
-0.055
-0.065
-0.075
-0.065
-0.055
-0.02
-0.035
-0.025
-0.055
-0.07
-0.065
-0.035
0.0
0.015
0.005
-0.01
-0.025
0.005
0.025
0.02
-0.025
-0.035
-0.015
-0.005
-0.01
-0.03
-0.025
-0.03
-0.015
-0.025
-0.015
-0.03
-0.035
-0.03
-0.03
-0.015
-0.03
-0.055
-0.06
-0.07
-0.055
-0.01
0.005
-0.015
-0.03
-0.03
-0.015
-0.01
-0.03
-0.055
-0.06
-0.045
-0.02
-0.005
-0.005
-0.01
-0.02
-0.04
-0.035
-0.03
-0.02
-0.045
-0.065
-0.095
-0.085
-0.07
-0.07
-0.1
-0.11
-0.115
-0.095
-0.08
-0.08
-0.11
-0.1
-0.08
-0.025
0.045
0.125
0.22
0.31
0.385
0.48
0.585
0.675
0.755
0.815
0.89
1.015
1.225
1.435
1.575
1.63
1.66
1.715
1.765
1.805
1.815
1.77
1.725
1.625
1.455
1.27
1.05
0.825
0.57
0.325
0.155
0.015
-0.13
-0.235
-0.27
-0.275
-0.28
-0.315
-0.365
-0.39
-0.405
-0.4
-0.395
-0.41
-0.44
-0.465
-0.48
-0.49
-0.47
-0.47
-0.495
-0.53
-0.53
-0.53
-0.53
-0.545
-0.57
-0.585
-0.59
-0.57
-0.54
-0.525
-0.555
-0.565
-0.57
-0.55
-0.53
-0.53
-0.555
-0.535
-0.51
-0.49
-0.475
-0.47
-0.475
-0.465
-0.465
-0.445
-0.425
-0.41
-0.42
-0.43
-0.425
-0.38
-0.35
-0.335
-0.345
-0.36
-0.345
-0.305
-0.29
-0.285
-0.28
-0.285
-0.275
-0.25
-0.23
-0.2
-0.2
-0.185
-0.155
-0.125
-0.095
-0.1
-0.08
-0.07
-0.035
-0.015
-0.005
-0.005
0.005
-0.005
-0.01
-0.015
-0.015
-0.025
-0.05
-0.075
-0.09
-0.09
-0.12
-0.15
-0.15
-0.14
-0.145
-0.14
-0.12
-0.105
-0.095
-0.115
-0.09
-0.07
-0.045
-0.065
-0.06
-0.06
-0.035
-0.02
-0.01
-0.01
-0.03
-0.035
-0.02
-0.01
0.02
0.035
0.03
-0.01
-0.025
-0.01
0.015
0.02
0.0
-0.01
-0.01
0.02
0.065
0.085
0.1
0.115
0.135
0.19
0.235
0.275
0.315
0.34
0.415
0.49
0.525
0.48
0.355
0.13
-0.16
-0.5
-0.86
-1.25
-1.645
-1.955
-2.165
-2.255
-2.285
-2.305
-2.36
-2.38
-2.37
-2.37
-2.365
-2.365
-2.375
-2.4
-2.385
-2.375
-2.33
-2.285
-2.23
-2.135
-1.995
-1.85
-1.705
-1.595
-1.49
-1.415
-1.37
-1.3
-1.21
-1.105
-0.955
-0.805
-0.635
-0.445
-0.265
-0.09
0.06
0.195
0.28
0.405
0.515
0.625
0.69
0.735
0.765
0.815
0.875
0.89
0.905
0.915
0.94
0.99
1.03
1.05
1.08
1.11
1.15
1.18
1.225
1.255
1.295
1.315
1.36
1.41
1.465
1.51
1.525
1.56
1.62
1.695
1.75
1.795
1.845
1.905
1.96
2.0
2.06
2.115
2.145
2.155
2.195
2.225
2.255
2.255
2.255
2.255
2.255
2.235
2.205
2.17
2.12
2.065
2.01
1.955
1.91
1.84
1.755
1.675
1.6
1.54
1.475
1.41
1.34
1.275
1.195
1.11
1.05
0.965
0.895
0.815
0.755
0.705
0.655
0.59
0.515
0.465
0.415
0.38
0.36
0.355
0.315
0.265
0.22
0.2
0.185
0.155
0.12
0.07
0.065
0.07
0.08
0.05
0.015
0.03
0.03
0.025
0.025
0.04
0.035
0.01
0.015
0.04
0.045
0.045
0.035
0.015
0.0
0.005
0.0
0.04
0.055
0.06
0.045
0.035
0.045
0.065
0.035
-0.005
-0.005
0.025
0.04
0.025
0.0
-0.02
-0.01
-0.005
-0.005
-0.015
-0.02
-0.04
-0.04
-0.04
-0.02
-0.01
-0.01
-0.01
-0.005
0.0
-0.01
0.015
0.005
-0.01
-0.03
-0.025
0.01
0.0
-0.04
-0.055
-0.04
-0.01
0.005
-0.015
-0.05
-0.06
-0.045
-0.025
-0.01
-0.04
-0.06
-0.06
-0.055
-0.065
-0.06
-0.08
-0.08
-0.08
-0.04
0.04
0.15
0.24
0.305
0.37
0.465
0.545
0.585
0.63
0.66
0.7
0.75
0.84
0.92
1.015
1.06
1.095
1.15
1.225
1.26
1.285
1.245
1.125
0.975
0.83
0.735
0.56
0.355
0.17
0.03
-0.08
-0.175
-0.215
-0.24
-0.275
-0.295
-0.3
-0.295
-0.325
-0.335
-0.34
-0.335
-0.315
-0.305
-0.31
-0.315
-0.315
-0.345
-0.345
-0.33
-0.345
-0.36
-0.37
-0.37
-0.32
-0.305
-0.31
-0.29
-0.305
-0.305
-0.295
-0.28
-0.27
-0.27
-0.305
-0.32
-0.295
-0.26
-0.23
-0.22
-0.23
-0.2
-0.195
-0.195
-0.195
-0.195
-0.195
-0.205
-0.175
-0.16
-0.16
-0.17
-0.165
-0.165
-0.155
-0.14
-0.135
-0.1
-0.12
-0.11
-0.095
-0.075
-0.055
-0.06
-0.065
-0.035
0.0
0.02
0.04
0.05
0.04
0.05
0.06
0.07
0.065
0.03
-0.01
0.0
0.035
0.065
0.06
0.05
0.05
0.07
0.075
0.08
0.08
0.08
0.045
0.04
0.055
0.08
0.08
0.08
0.07
0.1
0.12
0.125
0.115
0.095
0.07
0.08
0.085
0.085
0.095
0.095
0.09
0.075
0.08
0.1
0.095
0.065
0.05
0.065
0.085
0.08
0.08
0.05
0.035
0.045
0.05
0.05
0.065
0.1
0.105
0.095
0.095
0.1
0.1
0.1
0.095
0.065
0.075
0.085
0.105
0.095
0.07
0.075
0.085
0.1
0.105
0.085
0.085
0.08
0.09
0.12
0.09
0.045
0.035
0.05
0.07
0.075
0.06
0.055
0.045
0.04
0.05
0.06
0.065
0.055
0.04
0.06
0.05
0.085
0.09
0.075
0.07
0.08
0.1
0.115
0.105
0.085
0.065
0.08
0.115
0.135
0.135
0.145
0.155
0.17
0.155
0.165
0.185
0.175
0.15
0.14
0.14
0.145
0.15
0.14
0.12
0.13
0.155
0.165
0.15
0.13
0.115
0.115
0.125
0.135
0.155
0.15
0.125
0.115
0.11
0.135
0.13
0.105
0.08
0.08
0.075
0.055
0.05
0.045
0.05
0.05
0.075
0.085
0.105
0.105
0.09
0.095
0.115
0.12
0.13
0.16
0.22
0.29
0.37
0.475
0.58
0.635
0.685
0.78
0.88
0.985
1.1
1.225
1.34
1.455
1.535
1.595
1.645
1.685
1.66
1.64
1.58
1.455
1.305
1.155
0.985
0.785
0.57
0.4
0.25
0.115
0.035
-0.005
-0.01
-0.025
-0.065
-0.11
-0.145
-0.17
-0.175
-0.165
-0.175
-0.195
-0.21
-0.225
-0.245
-0.24
-0.26
-0.28
-0.305
-0.345
-0.35
-0.33
-0.33
-0.335
-0.345
-0.31
-0.285
-0.285
-0.27
-0.26
