Lead II
-0.88
-0.875
-0.885
-0.9
-0.9
-0.905
-0.92
-0.925
-0.925
-0.925
-0.925
-0.92
-0.9
-0.895
-0.885
-0.88
-0.885
-0.895
-0.895
-0.895
-0.905
-0.89
-0.87
-0.86
-0.855
-0.84
-0.84
-0.85
-0.86
-0.855
-0.865
-0.855
-0.87
-0.855
-0.84
-0.82
-0.815
-0.815
-0.805
-0.81
-0.815
-0.83
-0.82
-0.825
-0.835
-0.83
-0.82
-0.81
-0.81
-0.8
-0.8
-0.8
-0.8
-0.805
-0.81
-0.815
-0.815
-0.81
-0.795
-0.795
-0.785
-0.79
-0.78
-0.77
-0.78
-0.785
-0.785
-0.79
-0.785
-0.785
-0.78
-0.78
-0.775
-0.775
-0.77
-0.77
-0.785
-0.785
-0.795
-0.79
-0.795
-0.8
-0.78
-0.765
-0.77
-0.745
-0.75
-0.76
-0.765
-0.77
-0.775
-0.78
-0.775
-0.775
-0.775
-0.765
-0.765
-0.75
-0.755
-0.78
-0.79
-0.775
-0.77
-0.78
-0.77
-0.765
-0.76
-0.74
-0.75
-0.74
-0.74
-0.74
-0.75
-0.76
-0.75
-0.745
-0.765
-0.765
-0.745
-0.745
-0.735
-0.73
-0.735
-0.74
-0.745
-0.755
-0.75
-0.745
-0.75
-0.745
-0.74
-0.735
-0.73
-0.72
-0.735
-0.735
-0.735
-0.735
-0.74
-0.745
-0.74
-0.74
-0.74
-0.745
-0.73
-0.72
-0.725
-0.725
-0.73
-0.735
-0.735
-0.74
-0.745
-0.74
-0.745
-0.735
-0.735
-0.715
-0.715
-0.715
-0.725
-0.725
-0.73
-0.73
-0.73
-0.725
-0.71
-0.7
-0.695
-0.68
-0.7
-0.695
-0.705
-0.715
-0.705
-0.715
-0.7
-0.685
-0.675
-0.655
-0.645
-0.635
-0.655
-0.64
-0.645
-0.655
-0.665
-0.675
-0.69
-0.7
-0.71
-0.7
-0.685
-0.67
-0.665
-0.66
-0.645
-0.63
-0.635
-0.635
-0.65
-0.665
-0.66
-0.655
-0.67
-0.67
-0.69
-0.71
-0.725
-0.73
-0.75
-0.74
-0.745
-0.735
-0.73
-0.72
-0.72
-0.72
-0.73
-0.75
-0.785
-0.775
-0.74
-0.66
-0.55
-0.445
-0.335
-0.25
-0.215
-0.26
-0.4
-0.585
-0.76
-0.86
-0.795
-0.605
-0.335
-0.035
0.26
0.545
0.79
1.02
1.21
1.355
1.47
1.51
1.515
1.47
1.4
1.275
1.095
0.87
0.655
0.435
0.2
-0.07
-0.33
-0.585
-0.79
-0.95
-1.015
-1.045
-1.02
-0.965
-0.94
-0.9
-0.875
-0.86
-0.85
-0.84
-0.83
-0.83
-0.83
-0.82
-0.815
-0.825
-0.82
-0.815
-0.815
-0.825
-0.82
-0.83
-0.815
-0.825
-0.83
-0.835
-0.815
-0.84
-0.825
-0.81
-0.82
-0.82
-0.83
-0.835
-0.85
-0.85
-0.855
-0.86
-0.855
-0.85
-0.845
-0.845
-0.845
-0.85
-0.86
-0.865
-0.87
-0.88
-0.895
-0.89
-0.895
-0.895
-0.88
-0.88
-0.88
-0.9
-0.905
-0.9
-0.91
-0.92
-0.935
-0.935
-0.935
-0.925
-0.915
-0.915
-0.93
-0.935
-0.95
-0.955
-0.96
-0.965
-0.97
-0.97
-0.965
-0.98
-0.975
-0.96
-0.96
-0.975
-0.97
-0.98
-0.99
-0.98
-0.985
-0.995
-0.975
-0.975
-0.97
-0.96
-0.945
-0.955
-0.94
-0.935
-0.925
-0.92
-0.91
-0.895
-0.885
-0.855
-0.83
-0.81
-0.8
-0.78
-0.755
-0.76
-0.74
-0.74
-0.725
-0.7
-0.69
-0.66
-0.655
-0.64
-0.62
-0.625
-0.615
-0.615
-0.61
-0.62
-0.625
-0.63
-0.63
-0.63
-0.625
-0.61
-0.625
-0.63
-0.635
-0.655
-0.67
-0.69
-0.705
-0.705
-0.705
-0.72
-0.705
-0.72
-0.735
-0.745
-0.765
-0.775
-0.795
-0.8
-0.81
-0.815
-0.81
-0.825
-0.82
-0.815
-0.84
-0.845
-0.84
-0.855
-0.845
-0.855
-0.87
-0.87
-0.87
-0.865
-0.845
-0.83
-0.84
-0.85
-0.85
-0.86
-0.85
-0.85
-0.865
-0.855
-0.825
-0.82
-0.81
-0.8
-0.81
-0.8
-0.805
-0.81
-0.815
-0.81
-0.8
-0.81
-0.805
-0.79
-0.785
-0.77
-0.78
-0.78
-0.77
-0.775
-0.795
-0.795
-0.79
-0.785
-0.78
-0.765
-0.775
-0.75
-0.755
-0.755
-0.75
-0.755
-0.76
-0.765
-0.76
-0.77
-0.755
-0.75
-0.76
-0.75
-0.745
-0.745
-0.75
-0.75
-0.75
-0.755
-0.765
-0.75
-0.75
-0.745
-0.73
-0.735
-0.735
-0.74
-0.735
-0.745
-0.745
-0.745
-0.755
-0.745
-0.74
-0.74
-0.725
-0.715
-0.725
-0.73
-0.73
-0.735
-0.735
-0.735
-0.745
-0.745
-0.74
-0.74
-0.725
-0.73
-0.725
-0.725
-0.72
-0.73
-0.735
-0.735
-0.74
-0.745
-0.745
-0.735
-0.725
-0.72
-0.715
-0.715
-0.715
-0.735
-0.735
-0.735
-0.745
-0.73
-0.725
-0.72
-0.715
-0.715
-0.705
-0.715
-0.715
-0.72
-0.735
-0.74
-0.735
-0.74
-0.74
-0.725
-0.715
-0.71
-0.715
-0.71
-0.715
-0.72
-0.72
-0.725
-0.73
-0.735
-0.725
-0.735
-0.73
-0.715
-0.715
-0.72
-0.72
-0.725
-0.715
-0.72
-0.73
-0.73
-0.73
-0.72
-0.715
-0.69
-0.695
-0.695
-0.7
-0.695
-0.7
-0.695
-0.7
-0.69
-0.705
-0.695
-0.7
-0.685
-0.675
-0.665
-0.66
-0.66
-0.645
-0.65
-0.665
-0.665
-0.65
-0.655
-0.66
-0.66
-0.675
-0.68
-0.69
-0.67
-0.69
-0.68
-0.67
-0.65
-0.645
-0.62
-0.605
-0.61
-0.615
-0.63
-0.635
-0.665
-0.7
-0.715
-0.73
-0.745
-0.735
-0.725
-0.725
-0.715
-0.71
-0.71
-0.72
-0.73
-0.745
-0.75
-0.77
-0.77
-0.775
-0.715
-0.635
-0.51
-0.415
-0.315
-0.255
-0.24
-0.28
-0.405
-0.55
-0.705
-0.77
-0.73
-0.56
-0.305
-0.02
0.28
0.555
0.83
1.07
1.275
1.49
1.625
1.695
1.675
1.585
1.42
1.175
0.875
0.56
0.265
-0.01
-0.265
-0.52
-0.725
-0.895
-0.995
-1.05
-1.045
-1.03
-1.0
-0.955
-0.93
-0.9
-0.88
-0.86
-0.84
-0.84
-0.82
-0.825
-0.815
-0.825
-0.825
-0.83
-0.835
-0.85
-0.84
-0.85
-0.84
-0.84
-0.83
-0.83
-0.82
-0.82
-0.815
-0.84
-0.84
-0.85
-0.85
-0.855
-0.86
-0.85
-0.835
-0.835
-0.835
-0.835
-0.845
-0.85
-0.86
-0.855
-0.86
-0.855
-0.885
-0.88
-0.875
-0.875
-0.865
-0.875
-0.875
-0.88
-0.9
-0.895
-0.905
-0.92
-0.915
-0.915
-0.915
-0.92
-0.91
-0.905
-0.915
-0.935
-0.945
-0.96
-0.975
-0.98
-0.985
-0.98
-0.98
-0.975
-0.98
-0.975
-0.975
-0.98
-1.0
-1.0
-1.01
-1.005
-1.0
-0.985
-0.975
-0.965
-0.955
-0.95
-0.93
-0.95
-0.94
-0.94
-0.935
-0.925
-0.905
-0.895
-0.875
-0.85
-0.815
-0.81
-0.81
-0.79
-0.765
-0.76
-0.755
-0.735
-0.715
-0.705
-0.685
-0.67
-0.645
-0.635
-0.63
-0.62
-0.62
-0.625
-0.625
-0.62
-0.615
-0.62
-0.61
-0.61
-0.61
-0.615
-0.61
-0.635
-0.645
-0.67
-0.67
-0.675
-0.69
-0.695
-0.7
-0.7
-0.695
-0.72
-0.74
-0.755
-0.78
-0.8
-0.805
-0.83
-0.835
-0.835
-0.83
-0.85
-0.84
-0.84
-0.84
-0.85
-0.87
-0.875
-0.87
-0.875
-0.865
-0.855
-0.84
-0.84
-0.82
-0.825
-0.82
-0.81
-0.82
-0.83
-0.815
-0.83
-0.83
-0.815
-0.82
-0.8
-0.78
-0.77
-0.77
-0.77
-0.785
-0.775
-0.775
-0.785
-0.775
-0.765
-0.77
-0.75
-0.745
-0.74
-0.735
-0.745
-0.75
-0.75
-0.755
-0.755
-0.745
-0.74
-0.735
-0.725
-0.72
-0.73
-0.735
-0.725
-0.735
-0.735
-0.74
-0.74
-0.735
-0.725
-0.715
-0.725
-0.7
-0.715
-0.705
-0.705
-0.715
-0.715
-0.725
-0.725
-0.72
-0.72
-0.73
-0.72
-0.71
-0.695
-0.69
-0.69
-0.7
-0.705
-0.71
-0.715
-0.705
-0.705
-0.7
-0.695
-0.69
-0.7
-0.695
-0.705
-0.71
-0.71
-0.71
-0.705
-0.715
-0.705
-0.705
-0.69
-0.68
-0.68
-0.68
-0.675
-0.695
-0.695
-0.695
-0.705
-0.715
-0.71
-0.695
-0.695
-0.675
-0.68
-0.675
-0.67
-0.68
-0.68
-0.69
-0.69
-0.695
-0.69
-0.68
-0.66
-0.66
-0.66
-0.655
-0.665
-0.675
-0.69
-0.69
-0.695
-0.69
-0.685
-0.685
-0.675
-0.66
-0.66
-0.67
-0.66
-0.67
-0.685
-0.695
-0.69
-0.695
-0.685
-0.685
-0.675
-0.66
-0.665
-0.665
-0.66
-0.665
-0.67
-0.67
-0.68
-0.685
-0.685
-0.675
-0.67
-0.665
-0.655
-0.655
-0.655
-0.655
-0.66
-0.665
-0.66
-0.66
-0.655
-0.65
-0.66
-0.645
-0.65
-0.645
-0.655
-0.655
-0.645
-0.635
-0.63
-0.605
-0.605
-0.6
-0.58
-0.59
-0.58
-0.585
-0.595
-0.605
-0.62
-0.63
-0.64
-0.625
-0.63
-0.63
-0.63
-0.61
-0.59
-0.58
-0.58
-0.58
-0.585
-0.6
-0.595
-0.615
-0.62
-0.63
-0.645
-0.655
-0.665
-0.665
-0.685
-0.69
-0.695
-0.685
-0.69
-0.695
-0.685
-0.69
-0.695
-0.695
-0.71
-0.715
-0.7
-0.655
-0.57
-0.47
-0.38
-0.305
-0.225
-0.19
-0.195
-0.26
-0.4
-0.6
-0.765
-0.835
-0.78
-0.62
-0.365
-0.09
0.19
0.435
0.665
0.87
1.065
1.235
1.345
1.415
1.435
1.415
1.37
1.295
1.18
1.045
0.86
0.655
0.445
0.21
-0.035
-0.305
-0.555
-0.755
-0.89
-0.97
-1.005
-0.995
-0.94
-0.895
-0.85
-0.835
-0.825
-0.81
-0.805
-0.8
-0.79
-0.78
-0.78
-0.765
-0.76
-0.76
-0.755
-0.755
-0.765
-0.775
-0.775
-0.785
-0.79
-0.795
-0.785
-0.775
-0.765
-0.76
-0.765
-0.765
-0.765
-0.8
-0.79
-0.805
-0.79
-0.785
-0.795
-0.78
-0.79
-0.78
-0.78
-0.785
-0.795
-0.81
-0.81
-0.825
-0.82
-0.815
-0.825
-0.81
-0.815
-0.8
-0.81
-0.815
-0.825
-0.845
-0.85
-0.85
-0.86
-0.865
-0.87
-0.87
-0.87
-0.87
-0.855
-0.87
-0.875
-0.89
-0.895
-0.9
-0.915
-0.915
-0.91
-0.92
-0.92
-0.915
-0.92
-0.905
-0.925
-0.925
-0.935
-0.945
-0.94
-0.945
-0.945
-0.935
-0.93
-0.925
-0.91
-0.905
-0.91
-0.905
-0.9
-0.895
-0.89
-0.885
-0.87
-0.855
-0.84
-0.82
-0.805
-0.79
-0.765
-0.77
-0.76
-0.75
-0.73
-0.715
-0.695
-0.675
-0.655
-0.63
-0.61
-0.605
-0.6
-0.595
-0.59
-0.595
-0.61
-0.595
-0.575
-0.565
-0.565
-0.565
-0.56
-0.57
-0.585
-0.595
-0.605
-0.62
-0.625
-0.625
-0.64
-0.65
-0.65
-0.66
-0.665
-0.695
-0.695
-0.715
-0.74
-0.76
-0.775
-0.775
-0.785
-0.795
-0.8
-0.795
-0.8
-0.815
-0.805
-0.82
-0.835
-0.845
-0.825
-0.825
-0.825
-0.815
-0.82
-0.81
-0.805
-0.8
-0.795
-0.8
-0.795
-0.81
-0.825
-0.82
-0.8
-0.795
-0.785
-0.775
-0.77
-0.76
-0.765
-0.76
-0.77
-0.765
-0.765
-0.77
-0.765
-0.755
-0.735
-0.735
-0.735
-0.73
-0.74
-0.745
-0.745
-0.76
-0.74
-0.75
-0.745
-0.735
-0.73
-0.73
-0.72
-0.72
-0.725
-0.725
-0.74
-0.73
-0.735
-0.73
-0.725
-0.725
-0.72
-0.72
-0.715
-0.71
-0.715
-0.72
-0.73
-0.735
-0.735
-0.73
-0.74
-0.72
-0.705
-0.7
-0.695
-0.7
-0.705
-0.715
-0.715
-0.72
-0.72
-0.72
-0.72
-0.71
-0.72
-0.705
-0.705
-0.715
-0.725
-0.715
-0.72
-0.725
-0.71
-0.73
-0.71
-0.71
-0.705
-0.705
-0.695
-0.705
-0.705
-0.705
-0.72
-0.725
-0.735
-0.72
-0.725
-0.73
-0.71
-0.715
-0.7
-0.695
-0.705
-0.705
-0.715
-0.72
-0.725
-0.725
-0.73
-0.72
-0.71
-0.705
-0.695
-0.7
-0.7
-0.71
-0.71
-0.715
-0.715
-0.725
-0.725
-0.73
-0.725
-0.7
-0.7
-0.7
-0.715
-0.695
-0.72
-0.73
-0.73
-0.725
-0.725
-0.72
-0.715
-0.7
-0.7
-0.695
-0.7
-0.705
-0.7
-0.72
-0.725
-0.72
-0.715
-0.71
-0.71
-0.705
-0.695
-0.69
-0.685
-0.695
-0.705
-0.695
-0.695
-0.69
-0.695
-0.69
-0.695
-0.69
-0.675
-0.665
-0.66
-0.65
-0.65
-0.65
-0.655
-0.655
-0.65
-0.64
-0.64
-0.645
-0.645
-0.655
-0.68
-0.685
-0.685
-0.705
-0.71
-0.7
-0.69
-0.675
-0.64
-0.63
-0.615
-0.615
-0.625
-0.635
-0.65
-0.665
-0.685
-0.705
-0.72
-0.73
-0.73
-0.73
-0.73
-0.74
-0.73
-0.745
-0.745
-0.75
-0.755
-0.755
-0.755
-0.77
-0.775
-0.77
-0.76
-0.71
-0.63
-0.545
-0.44
-0.36
-0.3
-0.275
-0.285
-0.355
-0.495
-0.64
-0.74
-0.74
-0.63
-0.42
-0.135
0.14
0.445
0.715
0.95
1.19
1.415
1.575
1.65
1.63
1.55
1.4
1.185
0.92
0.625
0.345
0.075
-0.185
-0.425
-0.64
-0.83
-0.965
-1.065
-1.095
-1.085
-1.055
-1.035
-0.98
-0.965
-0.925
-0.885
-0.86
-0.85
-0.845
-0.85
-0.87
-0.875
-0.885
-0.875
-0.885
-0.895
-0.865
-0.85
-0.86
-0.845
-0.855
-0.855
-0.865
-0.87
-0.87
-0.87
-0.875
-0.88
-0.885
-0.87
-0.87
-0.86
-0.87
-0.88
-0.875
-0.88
-0.895
-0.9
-0.895
-0.895
-0.895
-0.9
-0.9
-0.895
-0.91
-0.915
-0.915
-0.925
-0.945
-0.955
-0.95
-0.955
-0.95
-0.95
-0.94
-0.945
-0.95
-0.96
-0.975
-0.98
-0.98
-1.0
-1.005
-1.005
-1.0
-1.0
-1.01
-1.0
-1.005
-1.005
-1.02
-1.03
-1.04
-1.035
-1.03
-1.025
-1.01
-1.005
-0.995
-0.975
-0.975
-0.965
-0.965
-0.96
-0.955
-0.96
-0.935
-0.915
-0.9
-0.87
-0.865
-0.825
-0.815
-0.795
-0.78
-0.77
-0.77
-0.75
-0.745
-0.73
-0.7
-0.685
-0.665
-0.65
-0.65
-0.64
-0.645
-0.65
-0.66
-0.675
-0.675
-0.675
-0.67
-0.675
-0.675
-0.675
-0.685
-0.7
-0.735
-0.75
-0.77
-0.79
-0.78
-0.795
-0.805
-0.8
-0.815
-0.835
-0.845
-0.855
-0.87
-0.895
-0.895
-0.905
-0.93
-0.935
-0.92
-0.915
-0.915
-0.92
-0.915
-0.925
-0.925
-0.935
-0.94
-0.935
-0.915
-0.915
-0.9
-0.895
-0.87
-0.87
-0.865
-0.865
-0.87
-0.875
-0.88
-0.875
-0.87
-0.87
-0.855
-0.85
-0.84
-0.83
-0.83
-0.82
-0.835
-0.84
-0.855
-0.84
-0.83
-0.83
-0.825
-0.815
-0.82
-0.81
-0.805
-0.81
-0.81
-0.805
-0.815
-0.815
-0.8
-0.81
-0.805
-0.785
-0.79
-0.795
-0.78
-0.785
-0.79
-0.805
-0.81
-0.805
-0.81
-0.8
-0.79
-0.79
-0.77
-0.77
-0.77
-0.775
-0.785
-0.79
-0.79
-0.795
-0.785
-0.78
-0.785
-0.785
-0.775
-0.775
-0.775
-0.785
-0.795
-0.79
-0.795
-0.78
-0.79
-0.79
-0.77
-0.775
-0.76
-0.75
-0.755
-0.76
-0.76
-0.76
-0.765
-0.765
-0.775
-0.77
-0.76
-0.775
-0.76
-0.75
-0.76
-0.75
-0.765
-0.76
-0.76
-0.775
-0.77
-0.77
-0.76
-0.76
-0.755
-0.75
-0.755
-0.75
-0.76
-0.77
-0.77
-0.76
-0.76
-0.76
-0.75
-0.75
-0.745
-0.745
-0.74
-0.74
-0.755
-0.745
-0.755
-0.755
-0.755
-0.75
-0.755
-0.74
-0.735
-0.725
-0.73
-0.75
-0.75
-0.775
-0.755
-0.765
-0.765
-0.77
-0.765
-0.755
-0.735
-0.735
-0.735
-0.74
-0.735
-0.75
-0.765
-0.765
-0.765
-0.755
-0.755
-0.745
-0.74
-0.735
-0.74
-0.73
-0.735
-0.73
-0.75
-0.75
-0.755
-0.745
-0.74
-0.735
-0.725
-0.705
-0.705
-0.705
-0.71
-0.72
-0.74
-0.735
-0.74
-0.73
-0.73
-0.71
-0.695
-0.67
-0.66
-0.66
-0.65
-0.655
-0.665
-0.675
-0.695
-0.69
-0.695
-0.69
-0.685
-0.685
-0.685
-0.705
-0.705
-0.7
-0.695
-0.7
-0.67
-0.665
-0.655
-0.665
-0.655
-0.66
-0.69
-0.69
-0.715
-0.74
-0.755
-0.77
-0.775
-0.765
-0.755
-0.74
-0.725
-0.73
-0.75
-0.755
-0.765
-0.795
-0.79
-0.75
-0.665
-0.55
-0.43
-0.325
-0.25
-0.255
-0.32
-0.47
-0.67
-0.83
-0.905
-0.81
-0.605
-0.325
-0.025
0.27
0.53
0.77
0.98
1.15
1.27
1.335
1.365
1.335
1.3
1.2
1.085
0.91
0.69
0.455
0.23
-0.015
-0.285
-0.53
-0.765
-0.925
-1.025
-1.07
-1.06
-1.03
-0.98
-0.935
-0.91
-0.89
-0.88
-0.855
-0.845
-0.845
-0.845
-0.825
-0.835
-0.83
-0.82
-0.82
-0.83
-0.83
-0.855
-0.85
-0.85
-0.855
-0.855
-0.835
-0.84
-0.83
-0.82
-0.82
-0.83
-0.83
-0.845
-0.85
-0.855
-0.86
-0.855
-0.86
-0.86
-0.865
-0.865
-0.845
-0.855
-0.87
-0.88
-0.895
-0.89
-0.91
-0.92
-0.91
-0.915
-0.905
-0.905
-0.895
-0.91
-0.915
-0.93
-0.925
-0.935
-0.955
-0.975
-0.975
-0.975
-0.96
-0.955
-0.95
-0.97
-0.98
-0.97
-0.985
-0.995
-1.015
-1.02
-1.03
-1.015
-1.005
-1.0
-1.005
-1.0
-1.005
-1.01
-1.02
-1.03
-1.025
-1.025
-1.01
-1.0
-0.995
-0.99
-0.97
-0.955
-0.955
-0.95
-0.93
-0.93
-0.915
-0.9
-0.885
-0.855
-0.845
-0.815
-0.795
-0.765
-0.74
-0.725
-0.715
-0.71
-0.695
-0.685
-0.68
-0.67
-0.66
-0.655
-0.64
-0.64
-0.645
-0.645
-0.63
-0.64
-0.65
-0.65
-0.655
-0.675
-0.685
-0.68
-0.68
-0.69
-0.695
-0.72
-0.735
-0.76
-0.75
-0.765
-0.78
-0.795
-0.8
-0.805
-0.81
-0.825
-0.835
-0.86
-0.855
-0.875
-0.88
-0.885
-0.89
-0.885
-0.885
-0.88
-0.87
-0.875
-0.89
-0.885
-0.89
-0.895
-0.9
-0.895
-0.895
-0.895
-0.87
-0.87
-0.855
-0.85
-0.86
-0.86
-0.85
-0.86
-0.865
-0.85
-0.855
-0.845
-0.84
-0.825
-0.81
-0.805
-0.815
-0.82
-0.825
-0.82
-0.825
-0.82
-0.81
-0.805
-0.795
-0.785
-0.785
-0.78
-0.785
-0.785
-0.805
-0.805
-0.795
-0.8
-0.795
-0.79
-0.79
-0.79
-0.77
-0.785
-0.78
-0.785
-0.785
-0.79
-0.795
-0.78
-0.785
-0.78
-0.785
-0.775
-0.765
-0.775
-0.77
-0.77
-0.775
-0.78
-0.775
-0.78
-0.785
-0.77
-0.76
-0.76
-0.75
-0.75
-0.755
-0.755
-0.76
-0.765
-0.775
-0.77
-0.765
-0.765
-0.765
-0.74
-0.74
-0.745
-0.745
-0.755
-0.755
-0.75
-0.755
-0.77
-0.76
-0.75
-0.75
-0.745
-0.75
-0.735
-0.755
-0.76
-0.765
-0.765
-0.755
-0.77
-0.77
-0.755
-0.75
-0.74
-0.745
-0.75
-0.74
-0.745
-0.77
-0.765
-0.76
-0.755
-0.755
-0.745
-0.745
-0.735
-0.73
-0.73
-0.74
-0.745
-0.755
-0.755
-0.76
-0.755
-0.775
-0.775
-0.77
-0.755
-0.745
-0.745
-0.74
-0.74
-0.745
-0.745
-0.76
-0.755
-0.76
-0.755
-0.75
-0.73
-0.725
-0.75
-0.745
-0.74
-0.755
-0.755
-0.75
-0.76
-0.745
-0.74
-0.73
-0.72
-0.715
-0.71
-0.715
-0.71
-0.72
-0.715
-0.71
-0.72
-0.73
-0.72
-0.725
-0.715
-0.69
-0.68
-0.675
-0.675
-0.68
-0.685
-0.695
-0.705
-0.705
-0.69
-0.685
-0.7
-0.695
-0.715
-0.705
-0.71
-0.725
-0.71
-0.685
-0.675
-0.67
-0.655
-0.645
-0.645
-0.66
-0.66
-0.675
-0.71
-0.74
-0.745
-0.77
-0.77
-0.78
-0.765
-0.755
-0.76
-0.745
-0.75
-0.755
-0.76
-0.765
-0.785
-0.795
-0.81
-0.82
-0.805
-0.775
-0.7
-0.595
-0.505
-0.425
-0.355
-0.305
-0.305
-0.345
-0.45
-0.605
-0.705
-0.765
-0.715
-0.565
-0.34
-0.075
0.19
0.44
0.695
0.935
1.14
1.335
1.49
1.56
1.565
1.48
1.35
1.135
0.865
0.565
0.275
0.015
-0.25
-0.505
-0.705
-0.865
-0.98
-1.03
-1.065
-1.065
-1.045
-1.025
-1.0
-0.98
-0.955
-0.925
-0.915
-0.885
-0.875
-0.855
-0.86
-0.855
-0.86
-0.865
-0.88
-0.885
-0.89
-0.895
-0.87
-0.87
-0.865
-0.86
-0.875
-0.86
-0.865
-0.87
-0.875
-0.89
-0.895
-0.9
-0.88
-0.88
-0.87
-0.85
-0.87
-0.87
-0.885
-0.875
-0.885
-0.905
-0.905
-0.895
-0.905
-0.905
-0.9
-0.885
-0.895
-0.905
-0.91
-0.91
-0.92
-0.93
-0.935
-0.935
-0.925
-0.925
-0.93
-0.92
-0.94
-0.945
-0.95
-0.965
-0.97
-0.97
-0.98
-0.97
-0.97
-0.98
-0.975
-0.97
-0.97
-0.98
-0.99
-0.995
-1.01
-1.015
-1.015
-1.01
-1.015
-1.0
-0.995
-0.985
-0.985
-0.98
-0.985
-0.99
-0.98
-0.98
-0.98
-0.99
-0.97
-0.96
-0.95
-0.935
-0.915
-0.905
-0.895
-0.88
-0.88
-0.875
-0.865
-0.84
-0.825
-0.805
-0.785
-0.755
-0.745
-0.73
-0.73
-0.725
-0.72
-0.71
-0.71
-0.7
-0.685
-0.67
-0.655
-0.64
-0.63
-0.625
-0.63
-0.64
-0.66
-0.65
-0.665
-0.665
-0.665
-0.66
-0.67
-0.67
-0.685
-0.69
-0.71
-0.72
-0.73
-0.76
-0.765
-0.77
-0.785
-0.79
-0.795
-0.81
-0.815
-0.84
-0.855
-0.87
-0.885
-0.9
-0.9
-0.895
-0.9
-0.9
-0.905
-0.9
-0.89
-0.915
-0.915
-0.905
-0.915
-0.92
-0.925
-0.92
-0.91
-0.9
-0.89
-0.89
-0.875
-0.88
-0.875
-0.88
-0.885
-0.875
-0.87
-0.865
-0.855
-0.855
-0.83
-0.83
-0.815
-0.815
-0.82
-0.845
-0.835
-0.825
-0.825
-0.825
-0.82
-0.8
-0.8
-0.8
-0.795
-0.785
-0.79
-0.795
-0.81
-0.805
-0.8
-0.805
-0.795
-0.79
-0.78
-0.765
-0.77
-0.775
-0.775
-0.775
-0.785
-0.785
-0.78
-0.78
-0.78
-0.765
-0.755
-0.75
-0.75
-0.765
-0.755
-0.77
-0.765
-0.765
-0.77
-0.775
-0.765
-0.755
-0.75
-0.755
-0.74
-0.745
-0.76
-0.765
-0.755
-0.76
-0.76
-0.755
-0.75
-0.745
-0.74
-0.73
-0.735
-0.735
-0.74
-0.74
-0.76
-0.765
-0.75
-0.76
-0.75
-0.735
-0.725
-0.715
-0.72
-0.725
-0.725
-0.74
-0.74
-0.75
-0.745
-0.74
-0.735
-0.735
-0.73
-0.715
-0.715
-0.72
-0.72
-0.73
-0.725
-0.73
-0.74
-0.745
-0.73
-0.72
-0.725
-0.705
-0.715
-0.71
-0.72
-0.725
-0.73
-0.735
-0.745
-0.745
-0.745
-0.74
-0.72
-0.715
-0.71
-0.72
-0.725
-0.725
-0.73
-0.74
-0.74
-0.735
-0.73
-0.735
-0.72
-0.71
-0.705
-0.705
-0.71
-0.73
-0.74
-0.73
-0.73
-0.725
-0.725
-0.715
-0.715
-0.695
-0.695
-0.705
-0.72
-0.72
-0.72
-0.72
-0.725
-0.73
-0.72
-0.71
-0.705
-0.69
-0.685
-0.68
-0.675
-0.695
-0.705
-0.71
-0.72
-0.705
-0.69
-0.675
-0.655
-0.63
-0.63
-0.62
-0.625
-0.625
-0.645
-0.65
-0.675
-0.675
-0.685
-0.67
-0.67
-0.67
-0.67
-0.67
-0.665
-0.665
-0.645
-0.635
-0.64
-0.645
-0.65
-0.645
-0.66
-0.66
-0.68
-0.705
-0.725
-0.73
-0.74
-0.745
-0.73
-0.73
-0.73
-0.725
-0.72
-0.72
-0.725
-0.74
-0.755
-0.76
-0.74
-0.675
-0.575
-0.465
-0.355
-0.26
-0.205
-0.215
-0.28
-0.43
-0.62
-0.795
-0.87
-0.825
-0.665
-0.42
-0.135
0.14
0.405
0.65
0.87
1.06
1.215
1.31
1.385
1.375
1.315
1.235
1.11
0.94
0.715
0.485
0.245
-0.005
-0.245
-0.5
-0.72
-0.88
-0.975
-1.035
-1.035
-1.0
-0.96
-0.92
-0.89
-0.87
-0.84
-0.845
-0.835
-0.83
-0.825
-0.835
-0.805
-0.8
-0.805
-0.79
-0.8
-0.805
-0.805
-0.815
-0.82
-0.825
-0.825
-0.82
-0.825
-0.825
-0.835
-0.81
-0.805
-0.82
-0.82
-0.815
-0.835
-0.83
-0.83
-0.825
-0.83
-0.82
-0.825
-0.835
-0.835
-0.83
-0.83
-0.845
-0.86
-0.865
-0.87
-0.875
-0.87
-0.87
-0.865
-0.875
-0.86
-0.86
-0.87
-0.88
-0.895
-0.905
-0.925
-0.915
-0.915
-0.915
-0.925
-0.925
-0.93
-0.925
-0.925
-0.94
-0.95
-0.97
-0.975
-0.975
-0.975
-0.975
-0.97
-0.97
-0.97
-0.975
-0.98
-0.985
-0.985
-0.99
-1.0
-0.995
-0.975
-0.975
-0.965
-0.945
-0.935
-0.95
-0.925
-0.915
-0.91
-0.9
-0.89
-0.88
-0.855
-0.835
-0.81
-0.79
-0.77
-0.75
-0.735
-0.72
-0.71
-0.705
-0.69
-0.68
-0.65
-0.63
-0.615
-0.595
-0.58
-0.585
-0.585
-0.585
-0.59
-0.59
-0.59
-0.59
-0.595
-0.59
-0.595
-0.59
-0.59
-0.6
-0.61
-0.63
-0.635
-0.655
-0.665
-0.675
-0.68
-0.7
-0.7
-0.71
-0.725
-0.73
-0.73
-0.755
-0.755
-0.765
-0.78
-0.79
-0.785
-0.78
-0.785
-0.78
-0.78
-0.78
-0.8
-0.795
-0.795
-0.805
-0.805
-0.795
-0.785
-0.79
-0.785
-0.77
-0.77
-0.765
-0.77
-0.775
-0.775
-0.775
-0.78
-0.77
-0.765
-0.745
-0.745
-0.725
-0.73
-0.73
-0.715
-0.72
-0.725
-0.725
-0.73
-0.725
-0.715
-0.715
-0.705
-0.695
-0.695
-0.69
-0.69
-0.705
-0.71
-0.705
-0.71
-0.705
-0.705
-0.695
-0.69
-0.685
-0.675
-0.68
-0.69
-0.685
-0.69
-0.705
-0.71
-0.71
-0.7
-0.695
-0.68
-0.69
-0.665
-0.685
-0.685
-0.685
-0.72
-0.695
-0.69
-0.7
-0.685
-0.675
-0.68
-0.675
-0.665
-0.68
-0.685
-0.69
-0.685
-0.695
-0.685
-0.685
-0.685
-0.66
-0.665
-0.66
-0.66
-0.655
-0.66
-0.665
-0.67
-0.675
-0.68
-0.685
-0.69
-0.675
-0.66
-0.645
-0.65
-0.65
-0.655
-0.655
-0.67
-0.665
-0.685
-0.68
-0.665
-0.665
-0.66
-0.66
-0.655
-0.665
-0.655
-0.67
-0.665
-0.675
-0.67
-0.67
-0.67
-0.65
-0.655
-0.645
-0.645
-0.645
-0.645
-0.66
-0.655
-0.675
-0.675
-0.665
-0.65
-0.655
-0.65
-0.645
-0.64
-0.635
-0.65
-0.655
-0.66
-0.665
-0.665
-0.67
-0.655
-0.655
-0.655
-0.64
-0.635
-0.635
-0.64
-0.645
-0.65
-0.665
-0.67
-0.675
-0.65
-0.655
-0.645
-0.635
-0.64
-0.635
-0.65
-0.66
-0.645
-0.65
-0.645
-0.635
-0.635
-0.625
-0.615
-0.625
-0.61
-0.62
-0.625
-0.635
-0.63
-0.615
-0.6
-0.59
-0.58
-0.57
-0.575
-0.56
-0.56
-0.565
-0.575
-0.6
-0.625
-0.625
-0.635
-0.64
-0.645
-0.625
-0.615
-0.605
-0.605
-0.61
-0.59
-0.57
-0.565
-0.575
-0.575
-0.575
-0.585
-0.59
-0.605
-0.62
-0.635
-0.655
-0.66
-0.675
-0.685
-0.69
-0.695
-0.7
-0.7
-0.685
-0.695
-0.69
-0.67
-0.69
-0.7
-0.72
-0.725
-0.73
-0.725
-0.68
-0.605
-0.51
-0.4
-0.31
-0.235
-0.195
-0.225
-0.34
-0.495
-0.625
-0.705
-0.665
-0.505
-0.24
0.035
0.34
0.615
0.885
1.13
1.345
1.5
1.595
1.62
1.58
1.495
1.37
1.215
1.005
0.765
0.53
0.29
0.055
-0.16
-0.385
-0.585
-0.755
-0.885
-0.965
-1.005
-1.01
-0.995
-0.99
-0.965
-0.94
-0.94
-0.925
-0.905
-0.885
-0.87
-0.845
-0.825
-0.8
-0.79
-0.795
-0.81
-0.825
-0.825
-0.84
-0.84
-0.83
-0.82
-0.815
-0.815
-0.8
-0.81
-0.815
-0.81
-0.82
-0.825
-0.835
-0.84
-0.845
-0.83
-0.835
-0.825
-0.825
-0.82
-0.825
-0.84
-0.845
-0.84
-0.845
-0.86
-0.86
-0.865
-0.865
-0.86
-0.855
-0.855
-0.86
-0.865
-0.875
-0.89
-0.885
-0.9
-0.895
-0.895
-0.895
-0.89
-0.89
-0.89
-0.895
-0.895
-0.915
-0.925
-0.94
-0.945
-0.95
-0.955
-0.945
-0.955
-0.96
-0.945
-0.965
-0.97
-0.975
-0.98
-0.995
-0.99
-0.99
-0.985
-0.99
-0.98
-0.965
-0.96
-0.955
-0.965
-0.95
-0.945
-0.95
-0.945
-0.93
-0.925
-0.9
-0.88
-0.87
-0.85
-0.835
-0.835
-0.82
-0.805
-0.81
-0.785
-0.78
-0.75
-0.725
-0.71
-0.695
-0.675
-0.655
-0.645
-0.63
-0.62
-0.63
-0.62
-0.615
-0.615
-0.605
-0.6
-0.595
-0.605
-0.61
-0.61
-0.64
-0.66
-0.67
-0.695
-0.7
-0.72
-0.705
-0.705
-0.715
-0.715
-0.73
-0.75
-0.77
-0.785
-0.8
-0.82
-0.825
-0.825
-0.84
-0.84
-0.84
-0.85
-0.865
-0.875
-0.875
-0.89
-0.89
-0.89
-0.89
-0.885
-0.875
-0.875
-0.865
-0.85
-0.86
-0.86
-0.865
-0.865
-0.86
-0.865
-0.86
-0.855
-0.845
-0.83
-0.815
-0.82
-0.805
-0.81
-0.81
-0.82
-0.825
-0.82
-0.81
-0.815
-0.8
-0.8
-0.795
-0.78
-0.775
-0.78
-0.785
-0.775
-0.77
-0.785
-0.775
-0.785
-0.76
-0.76
-0.765
-0.76
-0.75
-0.76
-0.775
-0.785
-0.79
-0.785
-0.775
-0.775
-0.76
-0.755
-0.755
-0.74
-0.74
-0.745
-0.755
-0.76
-0.77
-0.765
-0.75
-0.75
-0.76
-0.74
-0.745
-0.745
-0.74
-0.745
-0.755
-0.76
-0.77
-0.77
-0.77
-0.75
-0.74
-0.73
-0.73
-0.725
-0.725
-0.73
-0.745
-0.745
-0.755
-0.755
-0.745
-0.74
-0.73
-0.74
-0.745
-0.725
-0.735
-0.73
-0.73
-0.73
-0.74
-0.755
-0.755
-0.745
-0.75
-0.735
-0.72
-0.715
-0.735
-0.725
-0.74
-0.73
-0.735
-0.745
-0.73
-0.73
-0.725
-0.715
-0.715
-0.7
-0.705
-0.715
-0.73
-0.74
-0.75
-0.745
-0.745
-0.735
-0.73
-0.725
-0.715
-0.7
-0.705
-0.705
-0.72
-0.725
-0.73
-0.73
-0.74
-0.72
-0.715
-0.705
-0.71
-0.695
-0.72
-0.71
-0.725
-0.725
-0.745
-0.74
-0.745
-0.735
-0.735
-0.72
-0.705
-0.7
-0.705
-0.715
-0.725
-0.74
-0.725
-0.72
-0.735
-0.725
-0.72
-0.72
-0.705
-0.7
-0.71
-0.715
-0.715
-0.715
-0.715
-0.72
-0.705
-0.7
-0.715
-0.715
-0.705
-0.695
-0.675
-0.665
-0.665
-0.66
-0.675
-0.665
-0.655
-0.655
-0.65
-0.66
-0.66
-0.665
-0.665
-0.68
-0.675
-0.685
-0.695
-0.695
-0.68
-0.665
-0.64
-0.63
-0.62
-0.625
-0.625
-0.635
-0.67
-0.68
-0.705
-0.72
-0.75
-0.745
-0.755
-0.755
-0.745
-0.75
-0.735
-0.735
-0.735
-0.745
-0.74
-0.75
-0.765
-0.77
-0.775
-0.775
-0.74
-0.68
-0.595
-0.495
-0.41
-0.315
-0.27
-0.265
-0.32
-0.455
-0.625
-0.77
-0.825
-0.74
-0.55
-0.275
0.0
0.275
0.525
0.755
0.975
1.16
1.29
1.38
1.39
1.35
1.255
1.12
0.935
0.71
0.465
0.225
-0.05
-0.32
-0.585
-0.79
-0.94
-1.03
-1.055
-1.03
-0.995
-0.965
-0.93
-0.885
-0.855
-0.84
-0.825
-0.815
-0.805
-0.8
-0.805
-0.81
-0.83
-0.825
-0.825
-0.835
-0.83
-0.825
-0.825
-0.825
-0.82
-0.805
-0.805
-0.81
-0.82
-0.825
-0.84
-0.835
-0.835
-0.84
-0.845
-0.84
-0.84
-0.835
-0.84
-0.84
-0.845
-0.855
-0.87
-0.87
-0.87
-0.88
-0.875
-0.87
-0.87
-0.875
-0.88
-0.88
-0.895
-0.9
-0.91
-0.92
-0.92
-0.925
-0.925
-0.925
-0.915
-0.93
-0.93
-0.94
-0.945
-0.955
-0.965
-0.975
-0.99
-0.99
-0.99
-1.0
-0.99
-0.99
-1.005
-1.005
-1.0
-1.01
-1.0
-1.015
-1.005
-1.0
-0.985
-0.965
-0.955
-0.94
-0.925
-0.925
-0.92
-0.915
-0.915
-0.9
-0.87
-0.865
