Lead II
-0.425
-0.425
-0.42
-0.435
-0.44
-0.44
-0.425
-0.395
-0.4
-0.41
-0.425
-0.435
-0.435
-0.415
-0.42
-0.405
-0.41
-0.41
-0.425
-0.42
-0.41
-0.405
-0.425
-0.43
-0.415
-0.395
-0.41
-0.41
-0.425
-0.43
-0.405
-0.39
-0.4
-0.41
-0.425
-0.425
-0.39
-0.38
-0.375
-0.39
-0.415
-0.435
-0.41
-0.38
-0.39
-0.385
-0.38
-0.375
-0.365
-0.365
-0.38
-0.385
-0.385
-0.385
-0.375
-0.35
-0.345
-0.355
-0.37
-0.39
-0.385
-0.35
-0.365
-0.385
-0.4
-0.385
-0.35
-0.33
-0.335
-0.355
-0.375
-0.36
-0.355
-0.33
-0.345
-0.34
-0.35
-0.36
-0.345
-0.335
-0.34
-0.36
-0.37
-0.345
-0.335
-0.325
-0.33
-0.335
-0.345
-0.335
-0.32
-0.3
-0.31
-0.315
-0.33
-0.315
-0.31
-0.295
-0.31
-0.315
-0.325
-0.315
-0.3
-0.3
-0.28
-0.275
-0.29
-0.295
-0.295
-0.295
-0.29
-0.315
-0.31
-0.315
-0.315
-0.305
-0.27
-0.28
-0.295
-0.305
-0.29
-0.25
-0.25
-0.275
-0.285
-0.29
-0.295
-0.26
-0.275
-0.28
-0.29
-0.29
-0.265
-0.235
-0.24
-0.25
-0.26
-0.26
-0.25
-0.245
-0.23
-0.24
-0.265
-0.265
-0.255
-0.24
-0.24
-0.26
-0.285
-0.285
-0.245
-0.235
-0.22
-0.225
-0.26
-0.25
-0.23
-0.215
-0.22
-0.22
-0.235
-0.245
-0.24
-0.23
-0.225
-0.235
-0.235
-0.25
-0.255
-0.25
-0.24
-0.215
-0.215
-0.22
-0.21
-0.215
-0.235
-0.24
-0.225
-0.19
-0.175
-0.175
-0.19
-0.2
-0.215
-0.21
-0.185
-0.175
-0.19
-0.2
-0.215
-0.195
-0.19
-0.13
-0.13
-0.125
-0.13
-0.15
-0.12
-0.115
-0.115
-0.1
-0.075
-0.01
0.06
0.15
0.205
0.2
0.155
0.115
0.1
0.1
0.07
0.045
0.015
0.025
0.015
-0.005
-0.055
-0.085
-0.095
-0.095
-0.115
-0.115
-0.14
-0.145
-0.15
-0.135
-0.105
-0.085
-0.1
-0.11
-0.145
-0.175
-0.19
-0.2
-0.24
-0.25
-0.18
0.0
0.3
0.72
1.165
1.52
1.765
1.93
2.005
2.015
1.86
1.545
1.04
0.4
-0.23
-0.565
-0.57
-0.435
-0.345
-0.355
-0.325
-0.295
-0.265
-0.255
-0.27
-0.275
-0.235
-0.23
-0.24
-0.27
-0.265
-0.265
-0.225
-0.215
-0.235
-0.245
-0.25
-0.25
-0.26
-0.255
-0.25
-0.26
-0.24
-0.235
-0.215
-0.21
-0.245
-0.24
-0.245
-0.215
-0.2
-0.2
-0.215
-0.245
-0.225
-0.22
-0.215
-0.21
-0.205
-0.205
-0.195
-0.2
-0.18
-0.165
-0.155
-0.155
-0.155
-0.155
-0.165
-0.145
-0.105
-0.11
-0.13
-0.125
-0.105
-0.075
-0.065
-0.065
-0.06
-0.075
-0.05
-0.02
-0.01
0.0
0.0
0.035
0.055
0.085
0.1
0.12
0.12
0.14
0.16
0.19
0.21
0.22
0.215
0.245
0.26
0.295
0.285
0.265
0.29
0.315
0.345
0.355
0.37
0.36
0.35
0.34
0.375
0.365
0.365
0.325
0.31
0.295
0.3
0.3
0.27
0.25
0.22
0.215
0.22
0.235
0.21
0.17
0.125
0.095
0.1
0.115
0.11
0.07
0.03
0.025
0.02
0.025
0.05
0.025
0.01
-0.025
-0.015
-0.015
-0.01
-0.01
-0.03
-0.045
-0.055
-0.025
-0.01
0.0
-0.01
-0.035
-0.06
-0.05
-0.05
-0.05
-0.055
-0.05
-0.04
-0.02
-0.02
-0.03
-0.025
-0.02
-0.02
-0.02
-0.015
0.0
0.0
0.005
0.025
0.04
0.045
0.025
0.02
0.035
0.065
0.085
0.08
0.06
0.03
0.015
0.03
0.07
0.1
0.1
0.1
0.135
0.14
0.155
0.155
0.145
0.12
0.085
0.06
0.065
0.075
0.05
0.0
-0.1
-0.235
-0.385
-0.54
-0.615
-0.665
-0.755
-0.865
-0.975
-1.065
-1.095
-1.095
-1.045
-0.975
-0.835
-0.695
-0.52
-0.345
-0.17
0.0
0.125
0.18
0.16
0.1
0.035
-0.015
-0.08
-0.15
-0.195
-0.22
-0.21
-0.2
-0.2
-0.215
-0.235
-0.245
-0.235
-0.215
-0.21
-0.215
-0.21
-0.19
-0.17
-0.15
-0.12
-0.11
-0.13
-0.14
-0.125
-0.1
-0.07
-0.065
-0.07
-0.075
-0.08
-0.08
-0.075
-0.065
-0.06
-0.06
-0.05
-0.035
-0.005
-0.005
0.01
0.005
0.02
0.055
0.08
0.09
0.085
0.1
0.12
0.16
0.19
0.205
0.22
0.225
0.23
0.275
0.31
0.33
0.36
0.36
0.385
0.435
0.48
0.5
0.51
0.525
0.53
0.55
0.59
0.615
0.635
0.65
0.68
0.705
0.735
0.74
0.73
0.71
0.71
0.745
0.75
0.76
0.725
0.71
0.695
0.695
0.69
0.68
0.65
0.62
0.6
0.58
0.555
0.52
0.505
0.495
0.485
0.445
0.405
0.34
0.32
0.31
0.31
0.305
0.315
0.28
0.225
0.17
0.155
0.13
0.14
0.13
0.12
0.115
0.11
0.095
0.125
0.13
0.14
0.115
0.1
0.105
0.135
0.145
0.13
0.13
0.11
0.14
0.16
0.16
0.135
0.115
0.125
0.125
0.14
0.12
0.105
0.095
0.08
0.075
0.095
0.095
0.08
0.065
0.075
0.08
0.06
0.055
0.025
0.025
0.03
0.02
0.02
0.015
0.015
-0.02
-0.025
-0.025
-0.02
-0.035
-0.07
-0.085
-0.085
-0.06
-0.05
-0.04
-0.06
-0.045
-0.065
-0.095
-0.125
-0.145
-0.14
-0.125
-0.135
-0.125
-0.12
-0.09
-0.09
-0.12
-0.14
-0.15
-0.15
-0.17
-0.195
-0.21
-0.2
-0.17
-0.145
-0.16
-0.17
-0.17
-0.165
-0.155
-0.13
-0.145
-0.185
-0.21
-0.215
-0.21
-0.2
-0.18
-0.185
-0.185
-0.185
-0.185
-0.175
-0.205
-0.21
-0.225
-0.225
-0.205
-0.195
-0.2
-0.22
-0.23
-0.215
-0.22
-0.21
-0.205
-0.215
-0.23
-0.235
-0.22
-0.2
-0.2
-0.205
-0.205
-0.205
-0.205
-0.195
-0.22
-0.235
-0.255
-0.225
-0.2
-0.2
-0.24
-0.255
-0.26
-0.235
-0.225
-0.22
-0.22
-0.235
-0.245
-0.25
-0.215
-0.205
-0.21
-0.23
-0.24
-0.245
-0.23
-0.2
-0.19
-0.205
-0.23
-0.26
-0.26
-0.245
-0.21
-0.185
-0.185
-0.19
-0.2
-0.225
-0.245
-0.275
-0.265
-0.23
-0.215
-0.2
-0.22
-0.23
-0.24
-0.235
-0.235
-0.22
-0.215
-0.225
-0.235
-0.23
-0.215
-0.215
-0.21
-0.215
-0.23
-0.235
-0.24
-0.225
-0.21
-0.22
-0.23
-0.22
-0.215
-0.205
-0.2
-0.2
-0.21
-0.215
-0.195
-0.19
-0.2
-0.215
-0.23
-0.23
-0.205
-0.165
-0.155
-0.17
-0.19
-0.21
-0.21
-0.21
-0.21
-0.21
-0.22
-0.21
-0.205
-0.19
-0.19
-0.19
-0.205
-0.19
-0.175
-0.155
-0.16
-0.185
-0.195
-0.195
-0.17
-0.15
-0.15
-0.165
-0.165
-0.165
-0.175
-0.165
-0.155
-0.165
-0.18
-0.16
-0.15
-0.12
-0.095
-0.105
-0.095
-0.09
-0.04
-0.02
0.0
0.005
0.035
0.09
0.155
0.175
0.185
0.16
0.155
0.165
0.17
0.195
0.175
0.155
0.095
0.05
0.015
-0.015
-0.02
-0.035
-0.065
-0.1
-0.13
-0.15
-0.17
-0.165
-0.18
-0.195
-0.18
-0.145
-0.145
-0.145
-0.185
-0.235
-0.265
-0.265
-0.235
-0.14
0.075
0.46
0.925
1.335
1.63
1.815
1.9
1.905
1.77
1.465
0.96
0.335
-0.25
-0.515
-0.45
-0.29
-0.235
-0.245
-0.265
-0.26
-0.24
-0.22
-0.225
-0.245
-0.29
-0.31
-0.305
-0.265
-0.245
-0.24
-0.245
-0.27
-0.305
-0.315
-0.335
-0.29
-0.28
-0.27
-0.25
-0.23
-0.235
-0.265
-0.29
-0.295
-0.29
-0.29
-0.285
-0.28
-0.26
-0.265
-0.265
-0.265
-0.27
-0.275
-0.285
-0.275
-0.28
-0.24
-0.225
-0.235
-0.245
-0.24
-0.215
-0.19
-0.185
-0.185
-0.19
-0.165
-0.155
-0.14
-0.135
-0.165
-0.175
-0.175
-0.12
-0.085
-0.065
-0.06
-0.065
-0.045
-0.02
0.025
0.035
0.04
0.06
0.06
0.095
0.115
0.135
0.145
0.16
0.165
0.21
0.24
0.265
0.26
0.265
0.275
0.29
0.3
0.32
0.31
0.285
0.27
0.285
0.315
0.315
0.29
0.26
0.23
0.215
0.195
0.175
0.165
0.15
0.135
0.125
0.115
0.105
0.055
0.015
0.0
-0.01
-0.005
-0.04
-0.05
-0.075
-0.1
-0.095
-0.085
-0.09
-0.12
-0.13
-0.15
-0.125
-0.13
-0.13
-0.155
-0.155
-0.155
-0.155
-0.135
-0.145
-0.155
-0.145
-0.13
-0.115
-0.11
-0.13
-0.145
-0.14
-0.135
-0.135
-0.125
-0.12
-0.12
-0.135
-0.155
-0.15
-0.125
-0.125
-0.15
-0.18
-0.17
-0.145
-0.13
-0.125
-0.14
-0.15
-0.15
-0.135
-0.1
-0.115
-0.135
-0.155
-0.145
-0.125
-0.11
-0.105
-0.13
-0.13
-0.135
-0.135
-0.13
-0.12
-0.13
-0.165
-0.155
-0.135
-0.145
-0.155
-0.15
-0.16
-0.16
-0.155
-0.14
-0.15
-0.16
-0.185
-0.2
-0.215
-0.195
-0.18
-0.2
-0.245
-0.23
-0.23
-0.2
-0.2
-0.22
-0.25
-0.26
-0.245
-0.225
-0.235
-0.24
-0.255
-0.27
-0.265
-0.245
-0.25
-0.26
-0.26
-0.265
-0.265
-0.255
-0.28
-0.29
-0.29
-0.285
-0.275
-0.275
-0.28
-0.285
-0.32
-0.32
-0.3
-0.3
-0.295
-0.3
-0.305
-0.315
-0.31
-0.295
-0.295
-0.305
-0.32
-0.315
-0.3
-0.29
-0.285
-0.29
-0.29
-0.27
-0.24
-0.22
-0.21
-0.205
-0.205
-0.19
-0.14
-0.065
-0.01
0.01
-0.005
-0.01
0.0
0.005
0.03
0.015
0.015
-0.005
-0.05
-0.1
-0.135
-0.18
-0.215
-0.24
-0.235
-0.27
-0.29
-0.315
-0.35
-0.35
-0.345
-0.33
-0.34
-0.365
-0.38
-0.375
-0.36
-0.35
-0.36
-0.41
-0.48
-0.5
-0.46
-0.34
-0.11
0.24
0.705
1.205
1.575
1.81
1.915
1.95
1.87
1.645
1.245
0.685
0.045
-0.58
-0.795
-0.695
-0.54
-0.475
-0.485
-0.51
-0.495
-0.475
-0.43
-0.435
-0.44
-0.48
-0.47
-0.465
-0.455
-0.445
-0.445
-0.445
-0.455
-0.45
-0.455
-0.44
-0.45
-0.445
-0.46
-0.455
-0.44
-0.435
-0.435
-0.44
-0.455
-0.455
-0.435
-0.425
-0.425
-0.43
-0.43
-0.43
-0.425
-0.41
-0.4
-0.405
-0.415
-0.41
-0.41
-0.4
-0.395
-0.39
-0.395
-0.405
-0.365
-0.345
-0.335
-0.33
-0.345
-0.34
-0.325
-0.3
-0.3
-0.285
-0.285
-0.275
-0.26
-0.245
-0.24
-0.245
-0.24
-0.22
-0.195
-0.165
-0.145
-0.15
-0.145
-0.135
-0.085
-0.045
-0.025
-0.02
-0.01
0.015
0.065
0.105
0.125
0.125
0.14
0.16
0.18
0.205
0.23
0.22
0.22
0.21
0.22
0.26
0.245
0.225
0.205
0.2
0.19
0.18
0.16
0.145
0.1
0.065
0.06
0.045
0.02
-0.01
-0.06
-0.08
-0.08
-0.1
-0.125
-0.16
-0.175
-0.205
-0.195
-0.195
-0.205
-0.24
-0.285
-0.295
-0.285
-0.285
-0.295
-0.315
-0.335
-0.325
-0.31
-0.315
-0.33
-0.34
-0.37
-0.36
-0.355
-0.35
-0.355
-0.36
-0.375
-0.375
-0.36
-0.345
-0.335
-0.35
-0.36
-0.365
-0.35
-0.325
-0.32
-0.33
-0.345
-0.34
-0.325
-0.3
-0.29
-0.28
-0.3
-0.295
-0.27
-0.26
-0.255
-0.25
-0.265
-0.255
-0.24
-0.22
-0.205
-0.215
-0.235
-0.235
-0.215
-0.195
-0.2
-0.215
-0.23
-0.225
-0.22
-0.185
-0.175
-0.21
-0.23
-0.23
-0.225
-0.215
-0.225
-0.23
-0.245
-0.25
-0.255
-0.235
-0.255
-0.265
-0.29
-0.295
-0.295
-0.275
-0.285
-0.295
-0.3
-0.305
-0.285
-0.285
-0.275
-0.285
-0.295
-0.295
-0.29
-0.28
-0.29
-0.295
-0.32
-0.31
-0.305
-0.305
-0.3
-0.32
-0.325
-0.34
-0.32
-0.31
-0.32
-0.325
-0.335
-0.335
-0.32
-0.31
-0.31
-0.32
-0.32
-0.315
-0.32
-0.32
-0.305
-0.315
-0.34
-0.32
-0.3
-0.27
-0.265
-0.26
-0.265
-0.265
-0.25
-0.225
-0.205
-0.19
-0.17
-0.145
-0.095
-0.04
0.01
-0.01
-0.02
-0.03
-0.015
-0.01
0.005
-0.035
-0.07
-0.125
-0.155
-0.19
-0.215
-0.23
-0.28
-0.315
-0.335
-0.34
-0.335
-0.35
-0.385
-0.38
-0.355
-0.345
-0.345
-0.36
-0.385
-0.375
-0.37
-0.385
-0.405
-0.475
-0.53
-0.52
-0.42
-0.23
0.09
0.54
0.995
1.41
1.7
1.885
1.965
1.96
1.8
1.485
1.01
0.385
-0.255
-0.7
-0.73
-0.565
-0.46
-0.47
-0.49
-0.48
-0.48
-0.465
-0.46
-0.44
-0.445
-0.465
-0.475
-0.49
-0.475
-0.46
-0.46
-0.46
-0.47
-0.485
-0.46
-0.455
-0.45
-0.46
-0.47
-0.475
-0.46
-0.45
-0.44
-0.45
-0.465
-0.46
-0.435
-0.42
-0.415
-0.435
-0.44
-0.445
-0.415
-0.39
-0.385
-0.385
-0.395
-0.4
-0.395
-0.37
-0.36
-0.335
-0.35
-0.335
-0.315
-0.3
-0.315
-0.3
-0.325
-0.315
-0.31
-0.26
-0.25
-0.245
-0.225
-0.215
-0.195
-0.17
-0.155
-0.145
-0.14
-0.115
-0.08
-0.025
-0.01
0.005
0.03
0.045
0.065
0.08
0.095
0.105
0.135
0.19
0.225
0.255
0.245
0.245
0.24
0.255
0.285
0.315
0.34
0.355
0.365
0.355
0.355
0.37
0.39
0.385
0.375
0.365
0.36
0.35
0.33
0.295
0.26
0.25
0.25
0.235
0.2
0.165
0.115
0.075
0.075
0.06
0.03
0.0
-0.025
-0.055
-0.055
-0.06
-0.065
-0.085
-0.115
-0.135
-0.14
-0.13
-0.125
-0.145
-0.165
-0.175
-0.17
-0.17
-0.18
-0.21
-0.23
-0.23
-0.225
-0.21
-0.2
-0.215
-0.255
-0.27
-0.265
-0.255
-0.25
-0.27
-0.275
-0.275
-0.25
-0.245
-0.23
-0.24
-0.25
-0.255
-0.24
-0.22
-0.225
-0.225
-0.235
-0.25
-0.24
-0.22
-0.205
-0.205
-0.225
-0.22
-0.215
-0.19
-0.175
-0.19
-0.21
-0.195
-0.175
-0.115
-0.1
-0.12
-0.16
-0.195
-0.21
-0.17
-0.13
-0.13
-0.15
-0.165
-0.175
-0.17
-0.16
-0.185
-0.185
-0.19
-0.135
-0.08
-0.08
-0.09
-0.105
-0.06
-0.005
-0.01
-0.09
-0.215
-0.355
-0.41
-0.33
-0.2
-0.14
-0.19
-0.24
-0.26
-0.195
-0.115
-0.075
-0.09
-0.155
-0.21
-0.165
-0.07
0.02
0.0
-0.135
-0.275
-0.28
-0.195
-0.185
-0.23
-0.27
-0.285
-0.315
-0.325
-0.335
-0.275
-0.25
-0.255
-0.275
-0.275
-0.285
-0.255
-0.24
-0.24
-0.245
-0.27
-0.3
-0.295
-0.25
-0.21
-0.195
-0.205
-0.21
-0.21
-0.21
-0.255
-0.315
-0.34
-0.29
-0.22
-0.22
-0.21
-0.22
-0.24
-0.235
-0.235
-0.24
-0.255
-0.255
-0.22
-0.215
-0.265
-0.32
-0.33
-0.295
-0.26
-0.24
-0.215
-0.205
-0.225
-0.25
-0.29
-0.31
-0.275
-0.23
-0.2
-0.19
-0.16
-0.105
-0.055
-0.07
-0.085
-0.085
-0.06
-0.015
0.005
0.005
0.0
0.0
-0.015
-0.015
-0.025
-0.035
-0.025
-0.045
-0.085
-0.135
-0.175
-0.185
-0.215
-0.24
-0.255
-0.26
-0.235
-0.24
-0.27
-0.285
-0.31
-0.315
-0.31
-0.3
-0.305
-0.335
-0.345
-0.34
-0.335
-0.37
-0.375
-0.405
-0.36
-0.24
-0.035
0.26
0.665
1.07
1.41
1.59
1.655
1.635
1.56
1.36
1.0
0.445
-0.18
-0.705
-0.93
-0.83
-0.625
-0.495
-0.515
-0.565
-0.555
-0.505
-0.465
-0.42
-0.425
-0.46
-0.48
-0.49
-0.485
-0.48
-0.445
-0.435
-0.445
-0.475
-0.485
-0.49
-0.485
-0.475
-0.465
-0.48
-0.485
-0.49
-0.49
-0.505
-0.485
-0.465
-0.44
-0.455
-0.47
-0.475
-0.49
-0.47
-0.435
-0.405
-0.41
-0.445
-0.46
-0.425
-0.405
-0.4
-0.395
-0.385
-0.38
-0.355
-0.32
-0.315
-0.315
-0.36
-0.395
-0.39
-0.36
-0.355
-0.335
-0.34
-0.335
-0.335
-0.31
-0.27
-0.22
-0.185
-0.18
-0.16
-0.13
-0.11
-0.095
-0.08
-0.06
-0.015
0.025
0.055
0.065
0.085
0.12
0.165
0.2
0.23
0.25
0.26
0.275
0.3
0.34
0.355
0.37
0.365
0.35
0.365
0.375
0.38
0.37
0.345
0.325
0.3
0.29
0.25
0.225
0.21
0.19
0.17
0.16
0.13
0.09
0.045
0.005
-0.005
-0.035
-0.04
-0.075
-0.095
-0.13
-0.135
-0.14
-0.14
-0.16
-0.195
-0.225
-0.23
-0.215
-0.22
-0.24
-0.27
-0.29
-0.295
-0.285
-0.285
-0.29
-0.325
-0.34
-0.33
-0.315
-0.315
-0.335
-0.37
-0.38
-0.36
-0.345
-0.34
-0.355
-0.375
-0.38
-0.38
-0.355
-0.365
-0.385
-0.385
-0.37
-0.36
-0.34
-0.35
-0.36
-0.37
-0.37
-0.36
-0.34
-0.325
-0.305
-0.325
-0.345
-0.355
-0.34
-0.315
-0.29
-0.3
-0.295
-0.275
-0.275
-0.235
-0.22
-0.195
-0.18
-0.13
-0.09
-0.07
-0.075
-0.055
-0.015
0.06
0.155
0.285
0.425
0.595
0.79
0.965
1.05
1.065
1.045
0.99
0.955
0.885
0.76
0.5
0.105
-0.37
-0.78
-1.01
-1.1
-1.095
-1.045
-1.035
-1.11
-1.19
-1.245
-1.25
-1.25
-1.245
-1.225
-1.2
-1.16
-1.105
-1.065
-1.06
-1.03
-0.95
-0.86
-0.795
-0.76
-0.745
-0.725
-0.67
-0.615
-0.585
-0.58
-0.555
-0.55
-0.55
-0.555
-0.515
-0.505
-0.5
-0.5
-0.47
-0.46
-0.47
-0.48
-0.48
-0.495
-0.475
-0.45
-0.45
-0.475
-0.46
-0.445
-0.445
-0.435
-0.45
-0.455
-0.48
-0.455
-0.445
-0.44
-0.435
-0.435
-0.435
-0.435
-0.44
-0.435
-0.435
-0.43
-0.44
-0.44
-0.41
-0.375
-0.365
-0.375
-0.36
-0.355
-0.305
-0.275
-0.265
-0.225
-0.205
-0.17
-0.125
-0.08
-0.045
-0.03
0.0
0.04
0.1
0.145
0.17
0.185
0.195
0.235
0.26
0.285
0.305
0.305
0.31
0.315
0.33
0.35
0.34
0.345
0.32
0.315
0.325
0.325
0.31
0.275
0.245
0.235
0.22
0.2
0.185
0.155
0.13
0.11
0.1
0.08
0.065
0.05
0.02
-0.005
-0.005
-0.025
-0.025
-0.055
-0.09
-0.09
-0.09
-0.08
-0.08
-0.105
-0.115
-0.13
-0.125
-0.13
-0.105
-0.13
-0.13
-0.11
-0.055
-0.015
0.04
0.045
0.085
0.135
0.185
0.25
0.335
0.445
0.575
0.71
0.865
1.01
1.15
1.26
1.325
1.41
1.47
1.515
1.47
1.35
1.215
1.13
1.165
1.21
1.285
1.395
1.515
1.56
1.49
1.345
1.07
0.76
0.42
0.115
-0.135
-0.3
-0.415
-0.46
-0.515
-0.56
-0.61
-0.655
-0.685
-0.72
-0.79
-0.825
-0.845
-0.855
-0.88
-0.91
-0.94
-0.95
-0.96
-0.955
-0.95
-0.965
-1.0
-0.995
-0.995
-0.985
-0.975
-0.97
-0.99
-0.985
-0.99
-0.975
-0.97
-0.985
-1.01
-1.02
-1.01
-1.0
-1.01
-1.03
-1.06
-1.07
-1.07
-1.07
-1.09
-1.13
-1.155
-1.175
-1.185
-1.18
-1.195
-1.22
-1.24
-1.26
-1.285
-1.29
-1.315
-1.345
-1.37
-1.38
-1.385
-1.385
-1.38
-1.39
-1.415
-1.425
-1.425
-1.4
-1.4
-1.405
-1.41
-1.39
-1.36
-1.33
-1.3
-1.285
-1.265
-1.255
-1.225
-1.17
-1.12
-1.095
-1.07
-1.045
-1.0
-0.94
-0.905
-0.885
-0.855
-0.83
-0.785
-0.74
-0.7
-0.68
-0.66
-0.64
-0.595
-0.565
-0.545
-0.535
-0.545
-0.52
-0.485
-0.47
-0.445
-0.445
-0.46
-0.46
-0.43
-0.415
-0.405
-0.38
-0.39
-0.39
-0.385
-0.36
-0.345
-0.36
-0.35
-0.35
-0.335
-0.31
-0.29
-0.29
-0.305
-0.295
-0.285
-0.28
-0.26
-0.255
-0.28
-0.28
-0.25
-0.24
-0.24
-0.245
-0.265
-0.255
-0.25
-0.245
-0.245
-0.25
-0.255
-0.25
-0.255
-0.23
-0.23
-0.24
-0.255
-0.265
-0.245
-0.225
-0.235
-0.225
-0.24
-0.255
-0.225
-0.23
-0.235
-0.23
-0.255
-0.255
-0.265
-0.245
-0.245
-0.255
-0.27
-0.28
-0.245
-0.24
-0.245
-0.265
-0.29
-0.29
-0.275
-0.26
-0.255
-0.28
-0.29
-0.295
-0.29
-0.28
-0.27
-0.285
-0.305
-0.305
-0.315
-0.285
-0.28
-0.29
-0.31
-0.31
-0.31
-0.29
-0.305
-0.3
-0.325
-0.315
-0.315
-0.31
-0.305
-0.31
-0.33
-0.34
-0.32
-0.3
-0.315
-0.325
-0.32
-0.325
-0.325
-0.33
-0.295
-0.31
-0.325
-0.325
-0.32
-0.31
-0.31
-0.325
-0.335
-0.33
-0.325
-0.315
-0.315
-0.34
-0.33
-0.325
-0.315
-0.305
-0.315
-0.31
-0.32
-0.32
-0.32
-0.3
-0.3
-0.33
-0.335
-0.325
-0.32
-0.3
-0.3
-0.315
-0.315
-0.33
-0.32
-0.29
-0.29
-0.31
-0.325
-0.32
-0.315
-0.295
-0.295
-0.32
-0.325
-0.32
-0.315
-0.3
-0.3
-0.315
-0.315
-0.32
-0.31
-0.315
-0.285
-0.3
-0.31
-0.32
-0.305
-0.285
-0.315
-0.31
-0.32
-0.325
-0.32
-0.305
-0.29
-0.3
-0.315
-0.325
-0.305
-0.28
-0.295
-0.31
-0.3
-0.32
-0.305
-0.3
-0.3
-0.305
-0.315
-0.32
-0.295
-0.285
-0.285
-0.29
-0.3
-0.31
-0.305
-0.3
-0.305
-0.32
-0.315
-0.34
-0.31
-0.285
-0.275
-0.285
-0.305
-0.31
-0.305
-0.285
-0.275
-0.275
-0.31
-0.3
-0.305
-0.29
-0.295
-0.295
-0.295
-0.3
-0.29
-0.28
-0.275
-0.29
-0.305
-0.295
-0.275
-0.265
-0.26
-0.275
-0.29
-0.275
-0.27
-0.265
-0.255
-0.25
-0.27
-0.285
-0.265
-0.25
-0.255
-0.255
-0.265
-0.285
-0.27
-0.25
-0.255
-0.255
-0.265
-0.265
-0.255
-0.255
-0.26
-0.26
-0.265
-0.265
-0.255
-0.245
-0.245
-0.25
-0.255
-0.26
-0.26
-0.24
-0.245
-0.26
-0.26
-0.27
-0.27
-0.245
-0.23
-0.245
-0.265
-0.27
-0.255
-0.24
-0.245
-0.25
-0.26
-0.26
-0.245
-0.24
-0.225
-0.26
-0.255
-0.26
-0.26
-0.25
-0.24
-0.24
-0.265
-0.265
-0.24
-0.24
-0.235
-0.24
-0.235
-0.245
-0.22
-0.195
-0.185
-0.17
-0.16
-0.145
-0.115
-0.1
-0.09
-0.07
-0.06
-0.005
0.075
0.125
0.14
0.125
0.1
0.075
0.05
0.05
0.02
-0.02
-0.065
-0.095
-0.12
-0.11
-0.145
-0.165
-0.195
-0.215
-0.225
-0.23
-0.235
-0.24
-0.25
-0.27
-0.25
-0.23
-0.235
-0.245
-0.265
-0.285
-0.295
-0.255
-0.155
0.005
0.295
0.705
1.12
1.435
1.615
1.705
1.73
1.645
1.415
1.05
0.5
-0.09
-0.585
-0.785
-0.67
-0.49
-0.41
-0.41
-0.43
-0.415
-0.39
-0.36
-0.355
-0.365
-0.395
-0.4
-0.38
-0.375
-0.345
-0.36
-0.385
-0.39
-0.385
-0.35
-0.35
-0.36
-0.385
-0.39
-0.365
-0.345
-0.365
-0.365
-0.395
-0.39
-0.37
-0.35
-0.345
-0.35
-0.365
-0.37
-0.365
-0.335
-0.34
-0.34
-0.355
-0.355
-0.335
-0.325
-0.32
-0.315
-0.325
-0.325
-0.3
-0.295
-0.29
-0.28
-0.28
-0.28
-0.27
-0.245
-0.23
-0.22
-0.22
-0.215
-0.2
-0.17
-0.145
-0.135
-0.13
-0.12
-0.095
-0.07
-0.045
-0.035
-0.03
-0.01
0.015
0.04
0.06
0.09
0.1
0.12
0.155
0.195
0.225
0.22
0.225
0.25
0.28
0.3
0.32
0.325
0.32
0.33
0.34
0.36
0.36
0.35
0.325
0.33
0.325
0.325
0.305
0.29
0.26
0.245
0.245
0.245
0.215
0.185
0.15
0.125
0.1
0.105
0.085
0.06
0.025
0.005
-0.01
-0.005
-0.015
-0.035
-0.07
-0.08
-0.095
-0.1
-0.095
-0.13
-0.14
-0.16
-0.14
-0.125
-0.13
-0.165
-0.165
-0.165
-0.14
-0.13
-0.12
-0.125
-0.155
-0.16
-0.145
-0.13
-0.115
-0.125
-0.14
-0.125
-0.1
-0.08
-0.08
-0.085
-0.09
-0.09
-0.065
-0.045
-0.04
-0.02
0.005
0.02
0.06
0.125
0.16
0.205
0.225
0.245
0.29
0.36
0.45
0.55
0.665
0.84
1.025
1.155
1.145
0.94
0.585
0.145
-0.295
-0.635
-0.93
-1.145
-1.285
-1.275
-1.125
-0.92
-0.785
-0.7
-0.665
-0.625
-0.575
-0.53
-0.51
-0.49
-0.51
-0.505
-0.51
-0.52
-0.53
-0.55
-0.565
-0.565
-0.57
-0.57
-0.58
-0.6
-0.63
-0.645
-0.63
-0.61
-0.595
-0.605
-0.635
-0.645
-0.61
-0.585
-0.565
-0.52
-0.535
-0.55
-0.535
-0.52
-0.505
-0.515
-0.515
-0.525
-0.525
-0.505
-0.495
-0.51
-0.525
-0.515
-0.51
-0.505
-0.505
-0.52
-0.52
-0.52
-0.52
-0.5
-0.495
-0.48
-0.485
-0.485
-0.46
-0.41
-0.37
-0.36
-0.355
-0.325
-0.285
-0.255
-0.195
-0.165
-0.14
-0.1
-0.04
0.005
0.035
0.045
0.05
0.09
0.105
0.15
0.15
0.15
0.135
0.135
0.145
0.16
0.175
0.145
0.11
0.105
0.085
0.085
0.07
0.03
0.015
-0.025
-0.035
-0.03
-0.03
-0.055
-0.08
-0.09
-0.075
-0.09
-0.105
-0.11
-0.125
-0.135
-0.12
-0.11
-0.12
-0.145
-0.14
-0.145
-0.145
-0.15
-0.15
-0.155
-0.16
-0.155
-0.165
-0.14
-0.145
-0.155
-0.17
-0.165
-0.16
-0.155
-0.14
-0.15
-0.15
-0.16
-0.155
-0.15
-0.15
-0.155
-0.175
-0.18
-0.18
-0.175
-0.18
-0.175
-0.185
-0.195
-0.18
-0.18
-0.18
-0.2
-0.215
-0.22
-0.22
-0.21
-0.215
-0.22
-0.24
-0.265
-0.255
-0.26
-0.245
-0.26
-0.28
-0.285
-0.295
-0.275
-0.28
-0.295
-0.315
-0.325
-0.31
-0.3
-0.31
-0.32
-0.325
-0.335
-0.33
-0.34
-0.33
-0.335
-0.355
-0.36
-0.35
-0.34
-0.335
-0.35
-0.36
-0.365
-0.36
-0.345
-0.355
-0.365
-0.38
-0.38
-0.375
-0.365
-0.355
-0.37
-0.365
-0.38
-0.365
-0.355
-0.365
-0.375
-0.38
-0.39
-0.375
-0.36
-0.36
-0.355
-0.375
-0.38
-0.39
-0.355
-0.365
-0.36
-0.38
-0.38
-0.37
-0.365
-0.36
-0.38
-0.38
-0.38
-0.365
-0.365
-0.36
-0.37
-0.395
-0.38
-0.37
-0.365
-0.355
-0.36
-0.37
-0.385
-0.36
-0.36
-0.365
-0.365
-0.38
-0.375
-0.36
-0.345
-0.335
-0.335
-0.365
-0.355
-0.375
-0.345
-0.35
-0.345
-0.37
-0.36
-0.355
-0.345
-0.36
-0.365
-0.37
-0.38
-0.365
-0.35
-0.345
-0.355
-0.36
-0.37
-0.36
-0.345
-0.335
-0.34
-0.37
-0.37
-0.36
-0.34
-0.34
-0.34
-0.36
-0.35
-0.355
-0.34
-0.335
-0.335
-0.35
-0.36
-0.36
-0.34
-0.325
-0.335
-0.35
-0.355
-0.355
-0.335
-0.32
-0.335
-0.355
-0.35
-0.35
-0.32
-0.315
-0.325
-0.34
-0.35
-0.335
-0.315
-0.325
-0.32
-0.32
-0.345
-0.33
-0.32
-0.31
-0.32
-0.345
-0.34
-0.32
-0.31
-0.305
-0.315
-0.315
-0.32
-0.315
-0.315
-0.32
-0.305
-0.31
-0.32
-0.31
-0.3
-0.305
-0.31
-0.32
-0.32
-0.305
-0.305
-0.29
-0.295
-0.305
-0.31
-0.315
-0.3
-0.295
-0.3
-0.33
-0.335
-0.315
-0.29
-0.305
-0.29
-0.31
-0.32
-0.305
-0.29
-0.28
-0.285
-0.305
-0.32
-0.3
-0.285
-0.29
-0.29
-0.3
-0.305
-0.295
-0.275
-0.285
-0.29
-0.305
-0.315
-0.3
-0.285
-0.275
-0.265
-0.295
-0.29
-0.275
-0.25
-0.26
-0.25
-0.26
-0.26
-0.25
-0.23
-0.225
-0.21
-0.22
-0.225
-0.195
-0.165
-0.14
-0.135
-0.13
-0.12
-0.05
-0.005
0.04
0.065
0.05
0.025
0.03
0.055
0.065
0.06
0.035
0.025
-0.005
-0.035
-0.08
-0.115
-0.14
-0.17
-0.18
-0.2
-0.215
-0.25
-0.25
-0.235
-0.235
-0.225
-0.22
-0.23
-0.25
-0.255
-0.25
-0.25
-0.255
-0.225
-0.125
0.075
0.44
0.875
1.255
1.53
1.685
1.74
1.68
1.47
1.115
0.58
0.02
-0.485
-0.715
-0.61
-0.43
-0.34
-0.37
-0.36
-0.345
-0.3
-0.295
-0.305
-0.315
-0.325
-0.325
-0.305
-0.3
-0.3
-0.32
-0.315
-0.305
-0.295
-0.285
-0.305
-0.315
-0.32
-0.31
-0.295
-0.29
-0.3
-0.32
-0.315
-0.305
-0.305
-0.29
-0.295
-0.295
-0.3
-0.295
-0.275
-0.26
-0.255
-0.26
-0.26
-0.26
-0.25
-0.235
-0.23
-0.25
-0.22
-0.225
-0.205
-0.185
-0.18
-0.185
-0.165
-0.16
-0.135
-0.115
-0.115
-0.12
-0.11
-0.09
-0.06
-0.015
0.0
0.005
0.02
0.035
0.08
0.105
0.13
0.14
0.14
0.175
0.2
0.24
0.25
0.245
0.26
0.285
0.32
0.335
0.335
0.315
0.325
0.34
0.37
0.375
0.36
0.35
0.33
0.335
0.34
0.335
0.31
0.29
0.27
0.265
0.27
0.25
0.225
0.19
0.165
0.13
0.15
0.14
0.105
0.07
0.05
0.015
0.03
0.02
0.0
-0.035
-0.06
-0.08
-0.06
-0.08
-0.085
-0.1
-0.12
-0.11
-0.1
-0.1
-0.1
-0.12
-0.13
-0.12
-0.125
-0.11
-0.115
-0.135
-0.14
-0.125
-0.12
-0.095
-0.115
-0.115
-0.115
-0.09
-0.08
-0.055
-0.065
-0.085
-0.09
-0.07
-0.05
-0.035
-0.035
-0.025
-0.03
-0.005
0.0
0.015
0.02
0.035
0.06
0.095
0.13
0.16
0.195
0.205
0.22
0.24
0.295
0.39
0.495
0.645
0.825
1.01
1.08
1.085
0.99
0.855
0.705
0.515
0.25
-0.14
-0.64
-1.09
-1.365
-1.425
-1.345
-1.245
-1.185
-1.195
-1.245
-1.28
-1.265
-1.235
-1.205
-1.18
-1.145
-1.07
-0.955
-0.87
-0.82
-0.785
-0.725
-0.66
-0.595
-0.58
-0.565
-0.56
-0.54
-0.515
-0.49
-0.485
-0.485
-0.47
-0.44
-0.41
-0.395
-0.36
-0.35
-0.365
-0.375
-0.35
-0.32
-0.31
-0.31
-0.325
-0.325
-0.315
-0.3
-0.27
-0.29
-0.31
-0.31
-0.28
-0.255
-0.265
-0.255
-0.265
-0.265
-0.25
-0.235
-0.22
-0.215
-0.215
-0.2
-0.175
-0.155
-0.13
-0.09
-0.08
-0.055
0.0
0.05
0.07
0.105
0.13
0.19
0.24
0.3
0.35
0.38
0.405
0.435
0.465
0.52
0.565
0.57
0.59
0.595
0.615
0.64
0.64
0.635
0.605
0.59
0.58
0.615
0.605
0.57
0.535
0.495
0.48
0.48
0.47
0.44
0.4
0.37
0.36
0.345
0.325
0.3
0.26
0.215
0.21
0.21
0.195
0.165
0.125
0.095
0.09
0.09
0.075
0.05
0.03
-0.005
0.015
0.015
0.005
0.0
-0.015
-0.03
-0.02
-0.01
-0.02
-0.015
-0.04
-0.04
-0.05
-0.025
-0.015
-0.035
-0.005
0.005
0.055
0.115
0.155
0.215
0.255
0.325
0.4
0.5
0.595
0.665
0.73
0.8
0.885
0.985
1.115
1.215
1.275
1.29
1.28
1.25
1.21
1.155
1.06
0.96
0.855
0.8
0.765
0.8
0.865
0.915
