Lead II
-1.025
-1.015
-1.02
-1.02
-1.045
-1.025
-1.02
-1.02
-1.005
-0.995
-1.01
-1.005
-1.025
-1.045
-1.065
-1.07
-1.085
-1.085
-1.095
-1.1
-1.12
-1.14
-1.145
-1.15
-1.165
-1.175
-1.19
-1.215
-1.235
-1.23
-1.24
-1.225
-1.225
-1.23
-1.23
-1.245
-1.255
-1.255
-1.28
-1.28
-1.31
-1.31
-1.305
-1.3
-1.295
-1.3
-1.29
-1.3
-1.29
-1.275
-1.285
-1.28
-1.27
-1.245
-1.24
-1.22
-1.19
-1.185
-1.155
-1.135
-1.105
-1.095
-1.08
-1.075
-1.055
-1.025
-0.995
-0.975
-0.96
-0.94
-0.935
-0.925
-0.94
-0.95
-0.94
-0.94
-0.95
-0.93
-0.92
-0.89
-0.885
-0.89
-0.875
-0.88
-0.87
-0.875
-0.89
-0.885
-0.895
-0.885
-0.875
-0.87
-0.87
-0.87
-0.85
-0.865
-0.87
-0.865
-0.88
-0.9
-0.915
-0.905
-0.905
-0.895
-0.88
-0.88
-0.88
-0.885
-0.885
-0.9
-0.92
-0.9
-0.92
-0.915
-0.9
-0.875
-0.875
-0.88
-0.89
-0.89
-0.89
-0.905
-0.905
-0.915
-0.93
-0.92
-0.92
-0.9
-0.9
-0.88
-0.855
-0.88
-0.875
-0.875
-0.89
-0.91
-0.91
-0.9
-0.905
-0.895
-0.895
-0.865
-0.85
-0.86
-0.85
-0.85
-0.86
-0.87
-0.865
-0.86
-0.865
-0.86
-0.86
-0.855
-0.865
-0.87
-0.875
-0.87
-0.875
-0.885
-0.88
-0.86
-0.86
-0.85
-0.83
-0.805
-0.795
-0.785
-0.78
-0.785
-0.785
-0.775
-0.76
-0.74
-0.71
-0.66
-0.62
-0.575
-0.56
-0.55
-0.57
-0.57
-0.625
-0.635
-0.665
-0.695
-0.715
-0.69
-0.66
-0.665
-0.66
-0.705
-0.795
-0.955
-1.115
-1.18
-1.19
-1.1
-1.02
-0.96
-0.93
-0.945
-0.975
-1.005
-1.03
-1.06
-1.055
-1.09
-1.1
-1.1
-1.075
-1.055
-1.02
-1.01
-0.995
-1.03
-1.005
-1.025
-1.015
-1.025
-1.035
-1.05
-1.045
-1.05
-1.055
-1.055
-1.03
-1.01
-1.005
-1.0
-1.04
-1.035
-1.045
-1.06
-1.025
-0.93
-0.775
-0.59
-0.405
-0.235
-0.125
-0.09
-0.125
-0.16
-0.155
-0.07
0.07
0.24
0.335
0.265
-0.055
-0.54
-1.14
-1.685
-2.055
-2.27
-2.36
-2.345
-2.315
-2.285
-2.275
-2.27
-2.265
-2.255
-2.27
-2.285
-2.27
-2.25
-2.225
-2.14
-2.045
-1.89
-1.71
-1.5
-1.32
-1.18
-1.08
-1.05
-1.04
-1.065
-1.095
-1.095
-1.085
-1.07
-1.05
-1.025
-1.01
-0.975
-0.965
-0.945
-0.94
-0.97
-0.985
-0.99
-1.0
-1.01
-1.01
-1.035
-1.035
-1.02
-1.015
-1.035
-1.06
-1.065
-1.08
-1.075
-1.065
-1.075
-1.065
-1.07
-1.07
-1.08
-1.11
-1.14
-1.155
-1.16
-1.18
-1.195
-1.185
-1.175
-1.175
-1.17
-1.18
-1.175
-1.19
-1.195
-1.19
-1.21
-1.2
-1.19
-1.195
-1.19
-1.175
-1.175
-1.155
-1.14
-1.135
-1.12
-1.105
-1.095
-1.095
-1.085
-1.075
-1.06
-1.02
-1.0
-0.975
-0.965
-0.96
-0.94
-0.915
-0.9
-0.905
-0.89
-0.87
-0.855
-0.855
-0.845
-0.83
-0.83
-0.8
-0.81
-0.815
-0.8
-0.805
-0.815
-0.815
-0.81
-0.81
-0.805
-0.795
-0.805
-0.815
-0.825
-0.835
-0.83
-0.84
-0.82
-0.815
-0.81
-0.81
-0.84
-0.855
-0.865
-0.875
-0.87
-0.835
-0.8
-0.755
-0.745
-0.735
-0.72
-0.73
-0.765
-0.815
-0.875
-0.92
-0.955
-0.97
-0.965
-0.975
-0.95
-0.94
-0.94
-0.935
-0.92
-0.92
-0.925
-0.925
-0.93
-0.935
-0.95
-0.94
-0.935
-0.9
-0.87
-0.83
-0.78
-0.76
-0.76
-0.745
-0.75
-0.775
-0.775
-0.785
-0.78
-0.8
-0.79
-0.805
-0.805
-0.79
-0.81
-0.81
-0.835
-0.84
-0.84
-0.85
-0.865
-0.865
-0.85
-0.845
-0.835
-0.825
-0.83
-0.835
-0.85
-0.855
-0.865
-0.875
-0.87
-0.875
-0.885
-0.885
-0.9
-0.91
-0.93
-0.92
-0.875
-0.8
-0.705
-0.56
-0.415
-0.29
-0.23
-0.21
-0.205
-0.2
-0.115
0.055
0.275
0.51
0.66
0.68
0.51
0.17
-0.29
-0.775
-1.195
-1.46
-1.63
-1.71
-1.745
-1.805
-1.845
-1.905
-1.975
-1.99
-1.99
-1.98
-1.955
-1.94
-1.93
-1.915
-1.875
-1.825
-1.77
-1.65
-1.48
-1.32
-1.175
-1.055
-0.95
-0.93
-0.92
-0.93
-0.94
-0.96
-0.945
-0.925
-0.915
-0.9
-0.905
-0.905
-0.905
-0.895
-0.89
-0.88
-0.9
-0.915
-0.915
-0.945
-0.945
-0.935
-0.94
-0.935
-0.945
-0.935
-0.95
-0.95
-0.97
-1.015
-1.02
-1.04
-1.065
-1.075
-1.1
-1.085
-1.08
-1.095
-1.095
-1.11
-1.125
-1.13
-1.16
-1.16
-1.185
-1.17
-1.19
-1.175
-1.17
-1.17
-1.18
-1.18
-1.2
-1.21
-1.225
-1.215
-1.21
-1.195
-1.19
-1.16
-1.16
-1.14
-1.135
-1.115
-1.125
-1.105
-1.095
-1.085
-1.06
-1.04
-1.0
-0.985
-0.935
-0.93
-0.905
-0.9
-0.9
-0.885
-0.89
-0.88
-0.88
-0.86
-0.845
-0.85
-0.835
-0.82
-0.83
-0.835
-0.845
-0.85
-0.85
-0.85
-0.855
-0.85
-0.845
-0.83
-0.825
-0.83
-0.83
-0.845
-0.87
-0.885
-0.885
-0.895
-0.885
-0.87
-0.855
-0.85
-0.845
-0.84
-0.85
-0.865
-0.87
-0.865
-0.88
-0.885
-0.89
-0.89
-0.875
-0.87
-0.855
-0.855
-0.865
-0.88
-0.875
-0.875
-0.89
-0.895
-0.89
-0.875
-0.885
-0.88
-0.86
-0.85
-0.855
-0.86
-0.875
-0.89
-0.905
-0.905
-0.895
-0.89
-0.87
-0.845
-0.85
-0.845
-0.85
-0.83
-0.845
-0.86
-0.85
-0.85
-0.845
-0.84
-0.845
-0.85
-0.825
-0.835
-0.82
-0.825
-0.845
-0.855
-0.86
-0.86
-0.845
-0.85
-0.85
-0.84
-0.845
-0.825
-0.82
-0.835
-0.84
-0.85
-0.84
-0.835
-0.845
-0.84
-0.835
-0.815
-0.8
-0.785
-0.775
-0.775
-0.78
-0.77
-0.775
-0.76
-0.76
-0.725
-0.72
-0.705
-0.68
-0.65
-0.645
-0.6
-0.595
-0.615
-0.615
-0.65
-0.67
-0.7
-0.695
-0.705
-0.71
-0.695
-0.685
-0.66
-0.65
-0.63
-0.65
-0.675
-0.695
-0.73
-0.755
-0.8
-0.805
-0.84
-0.845
-0.87
-0.885
-0.9
-0.91
-0.915
-0.92
-0.92
-0.91
-0.895
-0.89
-0.895
-0.895
-0.905
-0.935
-0.935
-0.945
-0.935
-0.93
-0.925
-0.915
-0.925
-0.89
-0.905
-0.9
-0.91
-0.93
-0.935
-0.955
-0.98
-1.0
-1.005
-1.025
-1.02
-0.99
-0.91
-0.78
-0.63
-0.475
-0.335
-0.22
-0.17
-0.17
-0.18
-0.17
-0.11
0.04
0.255
0.425
0.545
0.5
0.265
-0.165
-0.64
-1.08
-1.405
-1.61
-1.705
-1.765
-1.825
-1.875
-1.935
-1.98
-2.01
-2.035
-2.045
-2.04
-2.03
-2.015
-1.995
-1.96
-1.925
-1.86
-1.72
-1.57
-1.4
-1.245
-1.14
-1.07
-1.045
-1.0
-1.0
-0.985
-0.965
-0.955
-0.95
-0.94
-0.94
-0.945
-0.945
-0.94
-0.945
-0.935
-0.935
-0.93
-0.91
-0.91
-0.925
-0.96
-0.965
-0.97
-0.995
-0.99
-0.975
-0.98
-0.995
-0.99
-1.0
-1.005
-1.03
-1.04
-1.07
-1.105
-1.115
-1.135
-1.135
-1.14
-1.13
-1.135
-1.135
-1.16
-1.175
-1.195
-1.2
-1.215
-1.23
-1.225
-1.215
-1.195
-1.19
-1.18
-1.19
-1.165
-1.175
-1.195
-1.225
-1.215
-1.2
-1.165
-1.17
-1.15
-1.13
-1.105
-1.08
-1.06
-1.035
-1.005
-0.975
-0.955
-0.955
-0.93
-0.935
-0.93
-0.9
-0.855
-0.84
-0.815
-0.805
-0.79
-0.78
-0.79
-0.81
-0.82
-0.825
-0.835
-0.815
-0.825
-0.81
-0.81
-0.805
-0.815
-0.83
-0.835
-0.815
-0.81
-0.78
-0.765
-0.77
-0.79
-0.795
-0.8
-0.795
-0.8
-0.8
-0.815
-0.84
-0.86
-0.865
-0.86
-0.845
-0.825
-0.815
-0.825
-0.83
-0.84
-0.85
-0.86
-0.865
-0.87
-0.895
-0.875
-0.865
-0.86
-0.85
-0.855
-0.865
-0.855
-0.88
-0.88
-0.9
-0.9
-0.885
-0.87
-0.86
-0.86
-0.87
-0.85
-0.85
-0.855
-0.855
-0.86
-0.87
-0.88
-0.87
-0.87
-0.865
-0.85
-0.85
-0.85
-0.855
-0.845
-0.84
-0.855
-0.855
-0.85
-0.835
-0.84
-0.84
-0.83
-0.81
-0.81
-0.805
-0.81
-0.835
-0.83
-0.84
-0.845
-0.85
-0.815
-0.76
-0.74
-0.715
-0.715
-0.695
-0.72
-0.72
-0.725
-0.72
-0.7
-0.655
-0.595
-0.56
-0.545
-0.54
-0.57
-0.625
-0.66
-0.69
-0.705
-0.715
-0.675
-0.645
-0.615
-0.58
-0.56
-0.56
-0.575
-0.6
-0.64
-0.675
-0.72
-0.745
-0.77
-0.765
-0.78
-0.805
-0.825
-0.825
-0.82
-0.82
-0.84
-0.85
-0.865
-0.87
-0.88
-0.875
-0.875
-0.875
-0.865
-0.86
-0.86
-0.86
-0.86
-0.865
-0.875
-0.895
-0.9
-0.885
-0.88
-0.86
-0.855
-0.85
-0.855
-0.845
-0.875
-0.9
-0.93
-0.915
-0.875
-0.775
-0.615
-0.41
-0.215
-0.055
0.045
0.085
0.065
0.07
0.065
0.1
0.24
0.385
0.48
0.475
0.335
0.02
-0.45
-0.955
-1.37
-1.67
-1.825
-1.9
-1.94
-1.965
-1.97
-1.975
-1.99
-1.995
-2.01
-2.01
-2.015
-2.0
-1.99
-1.965
-1.92
-1.865
-1.75
-1.615
-1.455
-1.285
-1.15
-1.04
-0.96
-0.935
-0.94
-0.945
-0.95
-0.955
-0.925
-0.91
-0.87
-0.84
-0.84
-0.835
-0.845
-0.86
-0.875
-0.875
-0.885
-0.895
-0.885
-0.895
-0.9
-0.88
-0.885
-0.905
-0.915
-0.93
-0.945
-0.945
-0.955
-0.975
-0.97
-0.985
-0.995
-0.995
-1.02
-1.025
-1.05
-1.045
-1.055
-1.08
-1.085
-1.075
-1.085
-1.085
-1.09
-1.08
-1.085
-1.095
-1.11
-1.12
-1.13
-1.14
-1.14
-1.13
-1.135
-1.12
-1.09
-1.065
-1.065
-1.06
-1.055
-1.065
-1.05
-1.06
-1.045
-1.03
-0.99
-0.965
-0.94
-0.905
-0.9
-0.895
-0.885
-0.875
-0.87
-0.86
-0.86
-0.855
-0.845
-0.83
-0.81
-0.765
-0.735
-0.76
-0.76
-0.775
-0.775
-0.775
-0.805
-0.81
-0.805
-0.795
-0.775
-0.745
-0.735
-0.74
-0.73
-0.74
-0.745
-0.765
-0.78
-0.81
-0.8
-0.775
-0.755
-0.735
-0.75
-0.755
-0.76
-0.77
-0.79
-0.79
-0.8
-0.8
-0.815
-0.8
-0.8
-0.795
-0.785
-0.78
-0.78
-0.79
-0.795
-0.805
-0.81
-0.82
-0.795
-0.81
-0.79
-0.785
-0.775
-0.765
-0.765
-0.785
-0.79
-0.79
-0.805
-0.805
-0.805
-0.775
-0.76
-0.75
-0.745
-0.745
-0.765
-0.78
-0.79
-0.795
-0.795
-0.775
-0.775
-0.775
-0.755
-0.755
-0.735
-0.745
-0.74
-0.755
-0.745
-0.73
-0.74
-0.725
-0.69
-0.68
-0.67
-0.65
-0.65
-0.655
-0.63
-0.61
-0.585
-0.555
-0.55
-0.565
-0.575
-0.575
-0.605
-0.605
-0.615
-0.63
-0.63
-0.62
-0.595
-0.555
-0.53
-0.535
-0.535
-0.565
-0.59
-0.625
-0.66
-0.695
-0.72
-0.735
-0.75
-0.765
-0.79
-0.815
-0.805
-0.79
-0.78
-0.77
-0.785
-0.795
-0.805
-0.8
-0.795
-0.805
-0.825
-0.82
-0.81
-0.795
-0.795
-0.79
-0.79
-0.8
-0.805
-0.81
-0.81
-0.8
-0.82
-0.79
-0.805
-0.815
-0.825
-0.84
-0.85
-0.855
-0.865
-0.8
-0.71
-0.575
-0.4
-0.24
-0.09
-0.02
-0.01
-0.03
-0.04
0.005
0.09
0.235
0.385
0.48
0.425
0.21
-0.14
-0.595
-1.01
-1.33
-1.53
-1.625
-1.665
-1.69
-1.725
-1.745
-1.77
-1.79
-1.81
-1.81
-1.815
-1.81
-1.825
-1.805
-1.785
-1.745
-1.705
-1.595
-1.465
-1.325
-1.165
-1.025
-0.945
-0.875
-0.87
-0.875
-0.885
-0.885
-0.89
-0.875
-0.87
-0.865
-0.865
-0.83
-0.815
-0.82
-0.82
-0.82
-0.835
-0.855
-0.85
-0.86
-0.875
-0.88
-0.88
-0.87
-0.865
-0.875
-0.88
-0.885
-0.895
-0.9
-0.935
-0.945
-0.97
-0.98
-0.985
-0.985
-1.005
-0.99
-0.995
-1.02
-1.025
-1.045
-1.07
-1.08
-1.085
-1.09
-1.09
-1.095
-1.085
-1.07
-1.08
-1.095
-1.085
-1.11
-1.105
-1.09
-1.105
-1.105
-1.08
-1.075
-1.065
-1.04
-1.035
-1.015
-1.01
-1.0
-0.985
-0.97
-0.97
-0.94
-0.935
-0.905
-0.88
-0.845
-0.855
-0.82
-0.82
-0.805
-0.805
-0.805
-0.795
-0.79
-0.77
-0.765
-0.75
-0.74
-0.765
-0.755
-0.75
-0.755
-0.75
-0.775
-0.76
-0.77
-0.745
-0.74
-0.72
-0.715
-0.725
-0.72
-0.725
-0.725
-0.755
-0.75
-0.76
-0.75
-0.75
-0.73
-0.74
-0.725
-0.725
-0.725
-0.74
-0.74
-0.755
-0.745
-0.765
-0.76
-0.75
-0.75
-0.745
-0.75
-0.745
-0.75
-0.75
-0.765
-0.765
-0.775
-0.79
-0.785
-0.785
-0.79
-0.785
-0.785
-0.795
-0.79
-0.79
-0.79
-0.805
-0.81
-0.81
-0.825
-0.81
-0.81
-0.79
-0.77
-0.765
-0.775
-0.765
-0.79
-0.8
-0.81
-0.815
-0.81
-0.795
-0.78
-0.79
-0.77
-0.76
-0.775
-0.78
-0.795
-0.785
-0.79
-0.775
-0.78
-0.765
-0.74
-0.715
-0.71
-0.705
-0.69
-0.675
-0.68
-0.675
-0.68
-0.68
-0.67
-0.63
-0.595
-0.57
-0.535
-0.515
-0.535
-0.55
-0.565
-0.6
-0.62
-0.645
-0.66
-0.655
-0.63
-0.585
-0.545
-0.52
-0.525
-0.535
-0.56
-0.61
-0.655
-0.69
-0.705
-0.72
-0.72
-0.725
-0.73
-0.745
-0.755
-0.785
-0.795
-0.81
-0.815
-0.83
-0.84
-0.82
-0.83
-0.82
-0.81
-0.815
-0.815
-0.83
-0.835
-0.84
-0.84
-0.845
-0.85
-0.83
-0.805
-0.815
-0.795
-0.805
-0.8
-0.805
-0.805
-0.82
-0.82
-0.82
-0.845
-0.87
-0.865
-0.85
-0.825
-0.745
-0.585
-0.42
-0.215
-0.08
0.015
0.03
0.02
0.03
0.11
0.25
0.435
0.59
0.64
0.54
0.255
-0.18
-0.655
-1.09
-1.405
-1.59
-1.705
-1.735
-1.78
-1.815
-1.86
-1.9
-1.92
-1.94
-1.955
-1.95
-1.955
-1.94
-1.925
-1.91
-1.87
-1.825
-1.745
-1.63
-1.51
-1.35
-1.21
-1.095
-1.005
-0.96
-0.935
-0.93
-0.905
-0.92
-0.91
-0.9
-0.87
-0.87
-0.885
-0.895
-0.88
-0.88
-0.87
-0.855
-0.835
-0.835
-0.86
-0.855
-0.865
-0.88
-0.9
-0.92
-0.915
-0.905
-0.915
-0.925
-0.915
-0.93
-0.95
-0.97
-0.985
-1.0
-1.02
-1.045
-1.06
-1.05
-1.055
-1.06
-1.05
-1.05
-1.08
-1.095
-1.105
-1.125
-1.125
-1.15
-1.145
-1.15
-1.145
-1.13
-1.115
-1.11
-1.11
-1.115
-1.11
-1.11
-1.095
-1.09
-1.075
-1.06
-1.035
-1.01
-0.975
-0.955
-0.945
-0.93
-0.925
-0.905
-0.895
-0.88
-0.86
-0.825
-0.81
-0.795
-0.765
-0.77
-0.77
-0.77
-0.79
-0.775
-0.795
-0.79
-0.785
-0.76
-0.75
-0.735
-0.75
-0.75
-0.755
-0.755
-0.765
-0.77
-0.78
-0.78
-0.785
-0.77
-0.765
-0.74
-0.735
-0.75
-0.745
-0.755
-0.755
-0.765
-0.78
-0.795
-0.795
-0.795
-0.78
-0.795
-0.79
-0.795
-0.79
-0.79
-0.785
-0.805
-0.81
-0.83
-0.82
-0.83
-0.835
-0.82
-0.805
-0.805
-0.8
-0.81
-0.815
-0.815
-0.825
-0.835
-0.83
-0.84
-0.825
-0.81
-0.795
-0.795
-0.805
-0.81
-0.82
-0.82
-0.845
-0.83
-0.835
-0.825
-0.8
-0.79
-0.8
-0.785
-0.785
-0.795
-0.805
-0.805
-0.81
-0.815
-0.825
-0.785
-0.78
-0.745
-0.73
-0.72
-0.72
-0.705
-0.7
-0.705
-0.705
-0.705
-0.685
-0.645
-0.605
-0.585
-0.565
-0.565
-0.57
-0.61
-0.625
-0.655
-0.69
-0.71
-0.69
-0.65
-0.605
-0.575
-0.545
-0.55
-0.57
-0.61
-0.655
-0.705
-0.745
-0.78
-0.79
-0.8
-0.815
-0.81
-0.82
-0.84
-0.825
-0.85
-0.85
-0.87
-0.865
-0.885
-0.88
-0.885
-0.865
-0.86
-0.865
-0.86
-0.865
-0.885
-0.89
-0.91
-0.895
-0.895
-0.895
-0.875
-0.865
-0.865
-0.875
-0.87
-0.865
-0.865
-0.875
-0.895
-0.91
-0.935
-0.93
-0.935
-0.935
-0.87
-0.77
-0.635
-0.445
-0.29
-0.15
-0.09
-0.075
-0.105
-0.09
0.015
0.19
0.385
0.525
0.53
0.34
-0.08
-0.575
-1.08
-1.48
-1.715
-1.86
-1.935
-1.96
-1.985
-2.01
-2.015
-2.04
-2.055
-2.05
-2.05
-2.055
-2.05
-2.03
-2.005
-1.95
-1.865
-1.76
-1.615
-1.47
-1.34
-1.23
-1.155
-1.1
-1.055
-1.04
-1.015
-0.995
-0.995
-0.955
-0.93
-0.925
-0.915
-0.93
-0.94
-0.935
-0.945
-0.95
-0.95
-0.935
-0.925
-0.945
-0.925
-0.935
-0.935
-0.965
-0.985
-1.015
-1.02
-1.025
-1.03
-1.025
-1.045
-1.045
-1.055
-1.05
-1.065
-1.075
-1.09
-1.115
-1.135
-1.15
-1.155
-1.155
-1.155
-1.15
-1.155
-1.175
-1.17
-1.205
-1.2
-1.195
-1.205
-1.205
-1.205
-1.175
-1.19
-1.16
-1.14
-1.135
-1.125
-1.125
-1.115
-1.1
-1.085
-1.075
-1.035
-1.015
-1.0
-0.955
-0.945
-0.92
-0.915
-0.925
-0.905
-0.915
-0.915
-0.895
-0.875
-0.86
-0.835
-0.84
-0.835
-0.825
-0.82
-0.83
-0.83
-0.85
-0.845
-0.84
-0.855
-0.835
-0.815
-0.81
-0.805
-0.825
-0.805
-0.83
-0.815
-0.825
-0.825
-0.83
-0.835
-0.815
-0.805
-0.815
-0.825
-0.81
-0.805
-0.82
-0.83
-0.84
-0.86
-0.875
-0.86
-0.86
-0.84
-0.835
-0.84
-0.835
-0.84
-0.85
-0.875
-0.885
-0.895
-0.9
-0.885
-0.885
-0.88
-0.87
-0.865
-0.875
-0.865
-0.865
-0.895
-0.895
-0.905
-0.905
-0.89
-0.88
-0.875
-0.88
-0.885
-0.885
-0.88
-0.885
-0.88
-0.905
-0.895
-0.895
-0.895
-0.86
-0.85
-0.85
-0.845
-0.855
-0.87
-0.87
-0.865
-0.865
-0.855
-0.85
-0.845
-0.825
-0.815
-0.8
-0.775
-0.775
-0.76
-0.77
-0.77
-0.765
-0.755
-0.725
-0.68
-0.65
-0.605
-0.6
-0.59
-0.615
-0.635
-0.655
-0.69
-0.715
-0.735
-0.725
-0.71
-0.68
-0.64
-0.61
-0.605
-0.59
-0.635
-0.67
-0.715
-0.76
-0.805
-0.81
-0.835
-0.845
-0.835
-0.855
-0.855
-0.87
-0.875
-0.88
-0.915
-0.895
-0.91
-0.91
-0.9
-0.895
-0.905
-0.905
-0.895
-0.905
-0.91
-0.905
-0.915
-0.92
-0.925
-0.93
-0.92
-0.905
-0.895
-0.91
-0.915
-0.91
-0.905
-0.915
-0.94
-0.94
-0.93
-0.95
-0.95
-0.95
-0.97
-0.935
-0.865
-0.755
-0.61
-0.455
-0.3
-0.195
-0.16
-0.165
-0.165
-0.115
0.01
0.225
0.39
0.5
0.45
0.155
-0.295
-0.81
-1.29
-1.64
-1.84
-1.95
-2.0
-2.02
-2.035
-2.08
-2.095
-2.12
-2.125
-2.115
-2.125
-2.115
-2.1
-2.04
-1.995
-1.92
-1.815
-1.67
-1.525
-1.39
-1.27
-1.175
-1.12
-1.075
-1.05
-1.03
-1.0
-0.99
-0.97
-0.95
-0.95
-0.945
-0.97
-0.955
-0.96
-0.96
-0.965
-0.955
-0.96
-0.96
-0.96
-0.94
-0.955
-0.95
-0.97
-0.98
-0.995
-0.985
-1.0
-1.0
-1.0
-1.005
-1.025
-1.04
-1.055
-1.06
-1.075
-1.09
-1.115
-1.11
-1.145
-1.125
-1.125
-1.125
-1.115
-1.14
-1.135
-1.155
-1.17
-1.18
-1.185
-1.185
-1.17
-1.18
-1.17
-1.165
-1.185
-1.18
-1.16
-1.165
-1.165
-1.175
-1.175
-1.13
-1.125
-1.095
-1.07
-1.04
-1.01
-0.99
-0.975
-0.97
-0.97
-0.965
-0.945
-0.92
-0.9
-0.89
-0.88
-0.855
-0.855
-0.84
-0.835
-0.835
-0.84
-0.84
-0.83
-0.84
-0.825
-0.815
-0.815
-0.8
-0.79
-0.795
-0.805
-0.825
-0.83
-0.825
-0.835
-0.845
-0.835
-0.815
-0.815
-0.81
-0.805
-0.81
-0.815
-0.83
-0.835
-0.845
-0.84
-0.84
-0.84
-0.84
-0.835
-0.845
-0.84
-0.845
-0.85
-0.875
-0.87
-0.88
-0.89
-0.885
-0.88
-0.89
-0.875
-0.855
-0.86
-0.86
-0.855
-0.87
-0.89
-0.89
-0.885
-0.88
-0.88
-0.87
-0.855
-0.845
-0.84
-0.845
-0.855
-0.865
-0.88
-0.905
-0.905
-0.895
-0.905
-0.88
-0.875
-0.86
-0.865
-0.845
-0.845
-0.86
-0.835
-0.86
-0.86
-0.865
-0.855
-0.835
-0.845
-0.83
-0.815
-0.8
-0.8
-0.795
-0.8
-0.8
-0.815
-0.8
-0.79
-0.77
-0.755
-0.74
-0.73
-0.73
-0.74
-0.725
-0.7
-0.68
-0.65
-0.635
-0.61
-0.615
-0.62
-0.655
-0.67
-0.695
-0.68
-0.7
-0.685
-0.685
-0.67
-0.645
-0.605
-0.595
-0.61
-0.64
-0.675
-0.69
-0.73
-0.775
-0.795
-0.815
-0.835
-0.84
-0.865
-0.855
-0.85
-0.86
-0.86
-0.865
-0.87
-0.885
-0.88
-0.9
-0.9
-0.9
-0.89
-0.89
-0.89
-0.88
-0.875
-0.875
-0.895
-0.89
-0.91
-0.915
-0.93
-0.915
-0.925
-0.91
-0.925
-0.88
-0.875
-0.88
-0.875
-0.875
-0.895
-0.905
-0.94
-0.96
-0.925
-0.9
-0.855
-0.75
-0.625
-0.435
-0.27
-0.12
-0.01
0.02
-0.005
-0.02
-0.015
0.035
0.19
0.355
0.465
0.485
0.325
-0.045
-0.53
-1.06
-1.495
-1.79
-1.925
-1.97
-1.975
-1.97
-1.975
-2.005
-2.04
-2.06
-2.06
-2.085
-2.085
-2.06
-2.03
-2.02
-1.985
-1.915
-1.85
-1.735
-1.6
-1.44
-1.3
-1.2
-1.1
-1.05
-1.005
-0.995
-0.985
-0.965
-0.965
-0.955
-0.94
-0.94
-0.955
-0.935
-0.94
-0.94
-0.935
-0.925
-0.91
-0.89
-0.885
-0.895
-0.9
-0.93
-0.93
-0.94
-0.96
-0.96
-0.975
-0.97
-0.96
-0.95
-0.955
-0.98
-0.995
-1.01
-1.035
-1.06
-1.06
-1.075
-1.115
-1.1
-1.08
-1.07
-1.09
-1.095
-1.11
-1.11
-1.135
-1.145
-1.16
-1.16
-1.17
-1.155
-1.135
-1.11
-1.125
-1.11
-1.115
-1.125
-1.125
-1.12
-1.13
-1.105
-1.085
-1.065
-1.045
-1.025
-0.995
-0.97
-0.965
-0.95
-0.94
-0.93
-0.92
-0.895
-0.87
-0.85
-0.82
-0.815
-0.79
-0.785
-0.79
-0.785
-0.795
-0.805
-0.8
-0.81
-0.8
-0.81
-0.775
-0.77
-0.76
-0.755
-0.76
-0.785
-0.79
-0.78
-0.79
-0.79
-0.79
-0.785
-0.775
-0.78
-0.78
-0.775
-0.77
-0.79
-0.795
-0.8
-0.805
-0.805
-0.81
-0.81
-0.795
-0.785
-0.78
-0.795
-0.8
-0.81
-0.81
-0.815
-0.82
-0.83
-0.825
-0.815
-0.805
-0.82
-0.815
-0.81
-0.82
-0.825
-0.83
-0.83
-0.855
-0.85
-0.835
-0.82
-0.825
-0.805
-0.8
-0.8
-0.825
-0.825
-0.835
-0.85
-0.84
-0.825
-0.825
-0.825
-0.805
-0.8
-0.785
-0.785
-0.8
-0.805
-0.815
-0.845
-0.84
-0.835
-0.825
-0.81
-0.795
-0.785
-0.775
-0.78
-0.785
-0.8
-0.8
-0.8
-0.8
-0.805
-0.77
-0.745
-0.74
-0.725
-0.72
-0.715
-0.705
-0.705
-0.69
-0.665
-0.64
-0.615
-0.59
-0.565
-0.59
-0.585
-0.6
-0.625
-0.655
-0.67
-0.68
-0.69
-0.68
-0.64
-0.605
-0.57
-0.575
-0.58
-0.61
-0.63
-0.675
-0.72
-0.765
-0.775
-0.795
-0.82
-0.84
-0.83
-0.835
-0.835
-0.84
-0.855
-0.855
-0.87
-0.88
-0.895
-0.895
-0.895
-0.9
-0.905
-0.88
-0.875
-0.865
-0.85
-0.86
-0.86
-0.88
-0.875
-0.88
-0.875
-0.87
-0.865
-0.86
-0.85
-0.85
-0.85
-0.875
-0.9
-0.925
-0.95
-0.955
-0.895
-0.81
-0.67
-0.505
-0.325
-0.18
-0.08
-0.055
-0.085
-0.1
-0.035
0.065
0.25
0.45
0.575
0.555
0.31
-0.115
-0.67
-1.155
-1.555
-1.79
-1.915
-1.97
-1.995
-2.0
-2.005
-2.03
-2.02
-2.02
-2.025
-2.02
-2.025
-2.015
-1.995
-1.965
-1.9
-1.81
-1.68
-1.535
-1.345
-1.215
-1.115
-1.035
-0.99
-0.99
-0.975
-0.97
-0.95
-0.94
-0.905
-0.91
-0.895
-0.875
-0.89
-0.875
-0.89
-0.89
-0.9
-0.92
-0.92
-0.93
-0.93
-0.915
-0.895
-0.905
-0.925
-0.94
-0.955
-0.96
-0.985
-0.995
-0.995
-1.025
-1.015
-1.015
-1.015
-1.035
-1.04
-1.045
-1.06
-1.075
-1.09
-1.095
-1.12
-1.145
-1.115
-1.11
-1.11
-1.105
-1.115
-1.115
-1.11
-1.13
-1.13
-1.145
-1.125
-1.12
-1.095
-1.08
-1.075
-1.065
-1.055
-1.03
-1.03
-1.025
-1.015
-1.01
-0.97
-0.965
-0.925
-0.905
-0.895
-0.835
-0.835
-0.825
-0.825
-0.82
-0.835
-0.82
-0.835
-0.825
-0.79
-0.78
-0.745
-0.775
-0.76
-0.75
-0.77
-0.775
-0.79
-0.78
-0.775
-0.8
-0.79
-0.8
-0.8
-0.775
-0.8
-0.795
-0.81
-0.81
-0.805
-0.8
-0.81
-0.8
-0.805
-0.79
-0.8
-0.795
-0.82
-0.82
-0.825
-0.815
-0.825
-0.835
-0.86
-0.845
-0.82
-0.83
-0.805
-0.82
-0.825
-0.83
-0.835
-0.855
-0.86
-0.865
-0.86
-0.855
-0.845
-0.825
-0.82
-0.805
-0.81
-0.815
-0.82
-0.83
-0.845
-0.835
-0.84
-0.835
-0.83
-0.82
-0.81
-0.81
-0.83
-0.835
-0.825
-0.825
-0.83
-0.835
-0.83
-0.83
-0.835
-0.82
-0.83
-0.8
-0.815
-0.815
-0.805
-0.8
-0.795
-0.795
-0.79
-0.77
-0.765
-0.755
-0.735
-0.74
-0.725
-0.705
-0.72
-0.71
-0.725
-0.72
-0.7
-0.67
-0.625
-0.59
-0.575
-0.53
-0.545
-0.57
-0.6
-0.64
-0.675
-0.7
-0.72
-0.685
-0.655
-0.625
-0.56
-0.535
-0.53
-0.55
-0.59
-0.625
-0.665
-0.7
-0.72
-0.74
-0.75
-0.77
-0.78
-0.8
-0.82
-0.83
-0.845
-0.86
-0.86
-0.87
-0.86
-0.87
-0.85
-0.835
-0.84
-0.835
-0.825
-0.855
-0.855
-0.86
-0.865
-0.87
-0.875
-0.88
-0.875
-0.86
-0.855
-0.845
-0.84
-0.845
-0.86
-0.87
-0.885
-0.88
-0.88
-0.895
-0.885
-0.905
-0.89
-0.885
-0.83
-0.745
-0.6
-0.435
-0.285
-0.12
-0.005
0.04
0.035
0.015
0.02
0.09
0.2
0.37
0.48
0.5
0.36
-0.005
-0.5
-1.025
-1.47
-1.765
-1.93
-1.985
-2.0
-2.0
-2.03
-2.045
-2.055
-2.06
-2.05
-2.06
-2.045
-2.04
-2.005
-1.955
-1.925
-1.86
-1.775
-1.65
-1.51
-1.355
-1.22
-1.115
-1.04
-0.98
-0.965
-0.95
-0.955
-0.955
-0.935
-0.93
-0.93
-0.92
-0.9
-0.91
-0.905
-0.91
-0.88
-0.88
-0.87
-0.885
-0.895
-0.91
-0.925
-0.94
-0.94
-0.945
-0.94
-0.92
-0.91
-0.92
-0.935
-0.965
-0.975
-0.98
-1.01
-1.02
-1.04
-1.05
-1.05
-1.07
-1.05
-1.045
-1.055
-1.085
-1.09
-1.11
-1.115
-1.12
-1.125
-1.13
-1.125
-1.115
-1.11
-1.095
-1.1
-1.1
-1.095
-1.105
-1.1
-1.095
-1.08
-1.075
-1.055
-1.04
-1.03
-1.0
-0.995
-0.975
-0.96
-0.935
-0.94
-0.905
-0.915
-0.885
-0.85
-0.825
-0.81
-0.795
-0.805
-0.78
-0.78
-0.78
-0.78
-0.765
-0.78
-0.775
-0.765
-0.755
-0.745
-0.735
-0.735
-0.735
-0.74
-0.73
-0.745
-0.755
-0.76
-0.76
-0.745
-0.74
-0.75
-0.755
-0.74
-0.75
-0.755
-0.77
-0.775
-0.77
-0.78
-0.785
-0.78
-0.765
-0.76
-0.76
-0.755
-0.78
-0.78
-0.8
-0.815
-0.805
-0.815
-0.83
-0.815
-0.81
-0.78
-0.77
-0.79
-0.78
-0.795
-0.81
-0.805
-0.81
-0.815
-0.815
-0.785
-0.775
-0.77
-0.76
-0.785
-0.77
-0.78
-0.79
-0.79
-0.795
-0.81
-0.795
-0.785
-0.775
-0.775
-0.765
-0.77
-0.78
-0.775
-0.79
-0.79
-0.79
-0.805
-0.81
-0.795
-0.785
-0.78
-0.77
-0.76
-0.75
-0.765
-0.775
-0.77
-0.76
-0.755
-0.745
-0.72
-0.715
-0.7
-0.695
-0.69
-0.68
-0.68
-0.675
-0.67
-0.655
-0.625
-0.585
-0.57
-0.535
-0.525
-0.54
-0.56
-0.59
-0.615
-0.64
-0.66
-0.65
-0.64
-0.62
-0.585
-0.55
-0.535
-0.54
-0.555
-0.6
-0.64
-0.69
-0.74
-0.76
-0.775
-0.78
-0.78
-0.8
-0.795
-0.79
-0.805
-0.815
-0.805
-0.845
-0.84
-0.84
-0.835
-0.865
-0.855
-0.835
-0.825
-0.815
-0.825
-0.84
-0.84
-0.85
-0.855
-0.85
-0.87
-0.875
-0.845
-0.83
-0.83
-0.825
-0.83
-0.83
-0.87
-0.865
-0.88
-0.89
-0.9
-0.91
-0.9
-0.855
-0.76
-0.63
-0.465
-0.305
-0.145
-0.055
-0.035
-0.07
-0.095
-0.085
0.0
0.155
0.37
0.56
0.605
0.495
0.22
-0.22
-0.715
-1.165
-1.51
-1.725
-1.805
-1.845
-1.865
-1.89
-1.935
-1.97
-2.0
-2.035
-2.02
-2.02
-2.01
-1.985
-1.97
-1.95
-1.925
-1.865
-1.78
-1.68
-1.565
-1.425
-1.28
-1.175
-1.11
-1.02
-0.98
-0.96
-0.945
-0.94
-0.93
-0.905
-0.905
-0.91
-0.91
-0.905
-0.895
-0.905
-0.885
-0.875
-0.875
-0.86
-0.85
-0.86
-0.875
-0.87
-0.895
-0.905
-0.9
-0.915
-0.925
-0.91
-0.92
-0.915
-0.93
-0.96
-0.955
-0.985
-1.0
-1.005
-1.015
-1.035
-1.03
-1.04
-1.05
-1.035
-1.055
-1.065
-1.07
-1.09
-1.09
-1.09
-1.09
-1.11
-1.085
-1.075
-1.06
-1.08
-1.08
-1.095
-1.085
-1.085
-1.065
-1.065
-1.07
-1.065
-1.045
-1.035
-1.0
-0.98
-0.96
-0.95
-0.96
-0.945
-0.915
-0.91
-0.91
-0.895
-0.865
-0.84
-0.825
-0.8
-0.785
-0.78
-0.785
-0.77
-0.775
-0.765
-0.765
-0.755
-0.76
-0.735
-0.74
-0.73
-0.71
-0.72
-0.73
-0.73
-0.73
-0.73
-0.745
-0.745
-0.735
-0.725
-0.73
-0.74
-0.73
-0.73
-0.735
-0.745
-0.745
-0.765
-0.775
-0.77
-0.755
-0.75
-0.75
-0.735
-0.75
-0.76
-0.775
-0.77
-0.765
-0.77
-0.78
-0.785
-0.785
-0.78
-0.77
-0.76
-0.77
-0.775
-0.79
-0.795
-0.81
-0.82
-0.815
-0.81
-0.8
-0.795
-0.785
-0.775
-0.79
-0.78
-0.8
-0.81
-0.81
-0.825
-0.815
-0.815
-0.785
-0.78
-0.765
-0.755
-0.755
-0.76
-0.775
-0.78
-0.77
-0.785
-0.785
-0.785
-0.775
-0.77
-0.78
-0.755
-0.77
-0.785
-0.805
-0.795
-0.805
-0.8
-0.825
-0.795
-0.78
-0.755
-0.745
-0.74
-0.725
-0.73
-0.72
-0.72
-0.725
-0.71
-0.7
-0.695
-0.68
-0.67
-0.655
-0.64
-0.62
-0.59
-0.57
-0.54
-0.54
-0.545
-0.555
-0.565
-0.6
-0.61
-0.62
-0.625
-0.615
-0.62
-0.595
-0.57
-0.565
-0.54
-0.535
-0.55
-0.56
-0.6
-0.63
-0.635
-0.675
-0.685
-0.71
-0.74
-0.75
-0.77
-0.785
-0.795
-0.795
-0.8
-0.785
-0.79
-0.78
-0.815
-0.805
-0.82
-0.825
-0.835
-0.83
-0.84
-0.825
-0.83
-0.82
-0.825
-0.82
-0.825
-0.81
-0.825
-0.84
-0.84
-0.84
-0.835
-0.845
-0.81
-0.815
-0.815
-0.82
-0.845
-0.86
-0.875
-0.875
-0.84
-0.75
-0.62
-0.45
-0.27
-0.13
-0.03
-0.04
-0.07
-0.09
-0.05
0.075
0.25
0.44
0.555
0.525
0.285
-0.155
-0.705
