Lead II
-0.12
-0.135
-0.125
-0.11
-0.105
-0.125
-0.14
-0.17
-0.15
-0.155
-0.12
-0.14
-0.155
-0.19
-0.21
-0.2
-0.195
-0.175
-0.185
-0.195
-0.2
-0.17
-0.165
-0.17
-0.185
-0.195
-0.2
-0.19
-0.165
-0.18
-0.185
-0.2
-0.2
-0.195
-0.165
-0.16
-0.18
-0.2
-0.17
-0.155
-0.145
-0.145
-0.16
-0.175
-0.155
-0.1
-0.005
0.1
0.2
0.31
0.385
0.5
0.63
0.76
0.865
0.98
1.09
1.235
1.39
1.595
1.765
1.84
1.825
1.69
1.48
1.135
0.76
0.415
0.195
0.085
0.045
0.04
0.05
0.06
0.07
0.08
0.1
0.07
0.03
-0.005
-0.035
-0.04
-0.065
-0.06
-0.085
-0.115
-0.14
-0.155
-0.17
-0.18
-0.22
-0.24
-0.255
-0.27
-0.285
-0.305
-0.35
-0.365
-0.38
-0.355
-0.32
-0.32
-0.335
-0.36
-0.365
-0.365
-0.355
-0.34
-0.36
-0.36
-0.355
-0.34
-0.335
-0.35
-0.36
-0.37
-0.375
-0.37
-0.36
-0.365
-0.38
-0.385
-0.395
-0.385
-0.365
-0.375
-0.39
-0.4
-0.41
-0.41
-0.395
-0.4
-0.41
-0.43
-0.45
-0.455
-0.445
-0.455
-0.455
-0.46
-0.47
-0.46
-0.45
-0.46
-0.5
-0.49
-0.485
-0.475
-0.455
-0.455
-0.47
-0.48
-0.475
-0.475
-0.46
-0.435
-0.435
-0.445
-0.43
-0.41
-0.37
-0.36
-0.34
-0.33
-0.31
-0.295
-0.265
-0.24
-0.23
-0.23
-0.21
-0.185
-0.165
-0.165
-0.185
-0.195
-0.165
-0.15
-0.12
-0.13
-0.125
-0.14
-0.14
-0.155
-0.145
-0.14
-0.155
-0.145
-0.17
-0.16
-0.145
-0.155
-0.16
-0.18
-0.165
-0.14
-0.145
-0.155
-0.175
-0.18
-0.19
-0.175
-0.15
-0.15
-0.17
-0.185
-0.19
-0.18
-0.175
-0.16
-0.16
-0.175
-0.17
-0.175
-0.17
-0.175
-0.175
-0.19
-0.185
-0.145
-0.14
-0.15
-0.155
-0.17
-0.16
-0.135
-0.125
-0.115
-0.135
-0.17
-0.15
-0.155
-0.125
-0.11
-0.12
-0.115
-0.11
-0.09
-0.07
-0.075
-0.08
-0.08
-0.075
-0.045
-0.035
-0.04
-0.07
-0.08
-0.08
-0.065
-0.02
-0.03
-0.04
-0.05
-0.055
-0.055
-0.045
-0.06
-0.07
-0.075
-0.075
-0.085
-0.075
-0.09
-0.095
-0.115
-0.11
-0.12
-0.12
-0.14
-0.16
-0.18
-0.175
-0.145
-0.135
-0.13
-0.145
-0.15
-0.155
-0.165
-0.155
-0.16
-0.17
-0.18
-0.17
-0.14
-0.13
-0.14
-0.145
-0.165
-0.165
-0.145
-0.11
-0.135
-0.16
-0.155
-0.16
-0.14
-0.125
-0.125
-0.125
-0.115
-0.1
-0.025
0.09
0.17
0.26
0.33
0.41
0.505
0.595
0.69
0.775
0.875
1.03
1.19
1.395
1.575
1.72
1.825
1.86
1.85
1.75
1.545
1.22
0.905
0.64
0.49
0.395
0.34
0.285
0.245
0.205
0.195
0.215
0.205
0.175
0.115
0.075
0.03
0.01
-0.03
-0.055
-0.08
-0.11
-0.135
-0.15
-0.165
-0.21
-0.25
-0.255
-0.255
-0.25
-0.26
-0.295
-0.32
-0.33
-0.33
-0.335
-0.33
-0.34
-0.355
-0.355
-0.355
-0.34
-0.355
-0.375
-0.375
-0.365
-0.375
-0.355
-0.355
-0.355
-0.365
-0.38
-0.38
-0.37
-0.375
-0.39
-0.405
-0.415
-0.395
-0.395
-0.39
-0.4
-0.42
-0.43
-0.42
-0.4
-0.43
-0.44
-0.45
-0.465
-0.455
-0.455
-0.455
-0.48
-0.49
-0.485
-0.495
-0.495
-0.51
-0.52
-0.53
-0.515
-0.53
-0.515
-0.525
-0.545
-0.555
-0.55
-0.525
-0.515
-0.53
-0.53
-0.535
-0.54
-0.495
-0.475
-0.445
-0.46
-0.47
-0.445
-0.405
-0.365
-0.34
-0.31
-0.31
-0.3
-0.275
-0.25
-0.22
-0.215
-0.2
-0.175
-0.17
-0.15
-0.14
-0.145
-0.175
-0.16
-0.16
-0.135
-0.12
-0.145
-0.15
-0.155
-0.14
-0.125
-0.11
-0.135
-0.165
-0.16
-0.16
-0.135
-0.14
-0.15
-0.155
-0.165
-0.145
-0.155
-0.155
-0.145
-0.165
-0.15
-0.15
-0.155
-0.165
-0.19
-0.18
-0.175
-0.16
-0.145
-0.155
-0.16
-0.195
-0.18
-0.18
-0.165
-0.16
-0.165
-0.195
-0.19
-0.17
-0.14
-0.14
-0.145
-0.15
-0.16
-0.165
-0.165
-0.18
-0.185
-0.185
-0.165
-0.145
-0.115
-0.125
-0.11
-0.115
-0.11
-0.085
-0.085
-0.085
-0.095
-0.1
-0.12
-0.11
-0.105
-0.085
-0.075
-0.08
-0.08
-0.075
-0.07
-0.085
-0.095
-0.11
-0.1
-0.085
-0.08
-0.095
-0.12
-0.13
-0.13
-0.105
-0.085
-0.1
-0.13
-0.175
-0.185
-0.185
-0.17
-0.17
-0.165
-0.165
-0.165
-0.17
-0.165
-0.17
-0.19
-0.2
-0.175
-0.15
-0.145
-0.155
-0.175
-0.195
-0.175
-0.17
-0.145
-0.145
-0.145
-0.16
-0.17
-0.15
-0.14
-0.13
-0.12
-0.075
-0.01
0.085
0.195
0.28
0.36
0.45
0.55
0.705
0.875
1.04
1.2
1.4
1.605
1.795
1.91
1.955
1.95
1.885
1.75
1.52
1.165
0.825
0.56
0.405
0.335
0.295
0.29
0.26
0.245
0.185
0.17
0.13
0.105
0.06
0.005
-0.04
-0.055
-0.08
-0.09
-0.11
-0.155
-0.2
-0.245
-0.255
-0.265
-0.285
-0.31
-0.345
-0.37
-0.375
-0.365
-0.38
-0.4
-0.41
-0.41
-0.395
-0.37
-0.38
-0.385
-0.405
-0.415
-0.395
-0.38
-0.39
-0.405
-0.43
-0.43
-0.445
-0.435
-0.43
-0.425
-0.425
-0.44
-0.455
-0.465
-0.48
-0.485
-0.5
-0.505
-0.51
-0.5
-0.51
-0.545
-0.54
-0.545
-0.54
-0.54
-0.545
-0.555
-0.575
-0.59
-0.595
-0.585
-0.585
-0.595
-0.615
-0.635
-0.625
-0.635
-0.645
-0.635
-0.635
-0.64
-0.645
-0.62
-0.625
-0.615
-0.615
-0.605
-0.57
-0.535
-0.52
-0.515
-0.495
-0.475
-0.425
-0.39
-0.365
-0.36
-0.35
-0.33
-0.295
-0.28
-0.27
-0.255
-0.25
-0.235
-0.23
-0.22
-0.195
-0.215
-0.215
-0.22
-0.2
-0.19
-0.205
-0.215
-0.22
-0.2
-0.185
-0.18
-0.175
-0.215
-0.22
-0.24
-0.22
-0.2
-0.195
-0.235
-0.23
-0.24
-0.225
-0.205
-0.205
-0.215
-0.225
-0.225
-0.205
-0.195
-0.225
-0.225
-0.235
-0.24
-0.23
-0.23
-0.225
-0.24
-0.24
-0.255
-0.255
-0.26
-0.275
-0.305
-0.295
-0.27
-0.25
-0.22
-0.215
-0.23
-0.26
-0.275
-0.28
-0.25
-0.235
-0.23
-0.235
-0.245
-0.235
-0.21
-0.17
-0.165
-0.175
-0.175
-0.18
-0.175
-0.175
-0.175
-0.195
-0.17
-0.16
-0.135
-0.135
-0.165
-0.19
-0.195
-0.17
-0.13
-0.13
-0.155
-0.16
-0.175
-0.195
-0.185
-0.175
-0.205
-0.205
-0.235
-0.23
-0.225
-0.235
-0.245
-0.25
-0.23
-0.215
-0.22
-0.22
-0.215
-0.23
-0.25
-0.25
-0.235
-0.26
-0.255
-0.235
-0.215
-0.205
-0.21
-0.22
-0.225
-0.225
-0.2
-0.19
-0.225
-0.255
-0.2
-0.105
0.05
0.215
0.375
0.49
0.655
0.835
1.05
1.295
1.525
1.745
1.97
2.085
2.12
2.095
2.01
1.805
1.375
0.86
0.405
0.13
0.025
0.015
0.015
0.0
-0.015
-0.035
-0.04
-0.07
-0.125
-0.19
-0.215
-0.215
-0.185
-0.18
-0.18
-0.26
-0.315
-0.335
-0.315
-0.3
-0.335
-0.385
-0.415
-0.405
-0.38
-0.365
-0.39
-0.42
-0.44
-0.42
-0.4
-0.4
-0.43
-0.45
-0.435
-0.435
-0.425
-0.41
-0.435
-0.44
-0.445
-0.405
-0.39
-0.41
-0.445
-0.485
-0.475
-0.455
-0.455
-0.47
-0.5
-0.5
-0.495
-0.5
-0.49
-0.485
-0.5
-0.505
-0.53
-0.54
-0.545
-0.55
-0.55
-0.535
-0.53
-0.535
-0.535
-0.55
-0.555
-0.57
-0.565
-0.54
-0.53
-0.545
-0.56
-0.565
-0.56
-0.53
-0.51
-0.505
-0.53
-0.54
-0.535
-0.51
-0.46
-0.435
-0.42
-0.435
-0.43
-0.415
-0.4
-0.395
-0.38
-0.36
-0.355
-0.375
-0.39
-0.37
-0.355
-0.31
-0.305
-0.305
-0.31
-0.33
-0.32
-0.33
-0.295
-0.265
-0.225
-0.21
-0.21
-0.23
-0.18
-0.18
-0.225
-0.31
-0.36
-0.295
-0.22
-0.16
-0.19
-0.285
-0.4
-0.475
-0.445
-0.29
-0.17
-0.12
-0.095
-0.065
-0.08
-0.085
-0.065
0.025
0.075
0.12
0.19
0.29
0.415
0.515
0.585
0.655
0.72
0.835
0.96
1.085
1.21
1.33
1.43
1.53
1.665
1.815
1.99
2.13
2.235
2.3
2.355
2.37
2.365
2.345
2.33
2.31
2.27
2.11
1.81
1.435
1.125
0.89
0.69
0.485
0.3
0.155
0.045
-0.055
-0.11
-0.16
-0.23
-0.31
-0.365
-0.415
-0.465
-0.485
-0.53
-0.565
-0.585
-0.6
-0.61
-0.61
-0.635
-0.65
-0.685
-0.71
-0.71
-0.725
-0.745
-0.765
-0.765
-0.755
-0.765
-0.76
-0.785
-0.78
-0.75
-0.74
-0.755
-0.835
-0.915
-0.995
-0.99
-0.99
-0.96
-0.995
-1.025
-1.03
-1.03
-1.01
-0.99
-1.0
-1.045
-1.135
-1.18
-1.22
-1.225
-1.225
-1.24
-1.265
-1.3
-1.34
-1.32
-1.305
-1.295
-1.29
-1.28
-1.295
-1.3
-1.3
-1.305
-1.31
-1.25
-1.205
-1.16
-1.12
-1.07
-1.015
-0.915
-0.82
-0.745
-0.725
-0.725
-0.755
-0.74
-0.675
-0.57
-0.495
-0.445
-0.445
-0.455
-0.455
-0.44
-0.395
-0.335
-0.3
-0.265
-0.24
-0.21
-0.195
-0.165
-0.155
-0.165
-0.215
-0.255
-0.27
-0.25
-0.215
-0.21
-0.225
-0.215
-0.2
-0.17
-0.16
-0.14
-0.11
-0.11
-0.12
-0.155
-0.185
-0.19
-0.18
-0.195
-0.2
-0.23
-0.215
-0.185
-0.185
-0.15
-0.14
-0.145
-0.16
-0.17
-0.155
-0.135
-0.135
-0.125
-0.12
-0.125
-0.14
-0.145
-0.155
-0.155
-0.15
-0.16
-0.145
-0.125
-0.11
-0.13
-0.155
-0.15
-0.145
-0.11
-0.11
-0.14
-0.16
-0.17
-0.155
-0.15
-0.15
-0.165
-0.165
-0.145
-0.14
-0.125
-0.125
-0.14
-0.16
-0.145
-0.125
-0.115
-0.12
-0.13
-0.17
-0.165
-0.165
-0.16
-0.15
-0.15
-0.13
-0.135
-0.11
-0.095
-0.09
-0.115
-0.125
-0.14
-0.13
-0.125
-0.145
-0.17
-0.165
-0.15
-0.14
-0.12
-0.115
-0.14
-0.17
-0.17
-0.16
-0.12
-0.125
-0.15
-0.165
-0.175
-0.165
-0.155
-0.125
-0.13
-0.145
-0.16
-0.145
-0.135
-0.145
-0.15
-0.15
-0.14
-0.11
-0.1
-0.1
-0.1
-0.14
-0.155
-0.125
-0.115
-0.14
-0.16
-0.185
-0.18
-0.15
-0.135
-0.1
-0.115
-0.12
-0.125
-0.095
-0.07
-0.065
-0.055
-0.055
-0.045
-0.045
-0.025
-0.03
-0.05
-0.055
-0.04
-0.02
-0.005
-0.02
-0.045
-0.065
-0.06
-0.045
-0.03
-0.025
-0.04
-0.055
-0.08
-0.07
-0.08
-0.07
-0.08
-0.1
-0.095
-0.105
-0.12
-0.115
-0.12
-0.1
-0.1
-0.075
-0.065
-0.07
-0.085
-0.105
-0.11
-0.115
-0.1
-0.095
-0.1
-0.135
-0.13
-0.125
-0.105
-0.075
-0.085
-0.105
-0.1
-0.09
-0.065
-0.075
-0.065
-0.06
-0.03
0.045
0.155
0.235
0.275
0.34
0.435
0.57
0.75
0.935
1.12
1.285
1.47
1.645
1.785
1.865
1.89
1.835
1.71
1.45
1.115
0.79
0.58
0.475
0.4
0.365
0.33
0.295
0.27
0.24
0.225
0.18
0.165
0.14
0.095
0.05
0.02
0.005
-0.01
-0.05
-0.08
-0.115
-0.15
-0.15
-0.145
-0.15
-0.18
-0.23
-0.245
-0.245
-0.215
-0.225
-0.23
-0.255
-0.25
-0.265
-0.26
-0.26
-0.27
-0.275
-0.285
-0.25
-0.245
-0.25
-0.27
-0.295
-0.31
-0.305
-0.295
-0.285
-0.29
-0.295
-0.295
-0.3
-0.295
-0.295
-0.3
-0.31
-0.315
-0.31
-0.32
-0.355
-0.36
-0.37
-0.37
-0.37
-0.33
-0.335
-0.35
-0.38
-0.385
-0.38
-0.385
-0.37
-0.38
-0.415
-0.425
-0.405
-0.4
-0.39
-0.395
-0.39
-0.385
-0.375
-0.36
-0.355
-0.35
-0.35
-0.345
-0.335
-0.295
-0.29
-0.28
-0.28
-0.27
-0.26
-0.215
-0.185
-0.18
-0.18
-0.155
-0.12
-0.095
-0.085
-0.08
-0.085
-0.07
-0.06
-0.01
-0.02
-0.02
-0.035
-0.045
-0.04
0.005
-0.01
-0.01
-0.045
-0.04
-0.03
-0.02
-0.02
-0.025
-0.045
-0.055
-0.055
-0.06
-0.06
-0.065
-0.08
-0.08
-0.08
-0.08
-0.085
-0.09
-0.105
-0.115
-0.11
-0.09
-0.085
-0.1
-0.105
-0.115
-0.115
-0.115
-0.105
-0.115
-0.115
-0.125
-0.115
-0.11
-0.115
-0.13
-0.14
-0.13
-0.11
-0.11
-0.12
-0.14
-0.135
-0.135
-0.13
-0.11
-0.105
-0.12
-0.13
-0.13
-0.14
-0.11
-0.1
-0.1
-0.12
-0.14
-0.12
-0.135
-0.1
-0.125
-0.11
-0.11
-0.105
-0.095
-0.085
-0.095
-0.115
-0.095
-0.075
-0.045
-0.045
-0.045
-0.055
-0.065
-0.055
-0.045
-0.035
-0.04
-0.05
-0.06
-0.06
-0.04
-0.035
-0.045
-0.075
-0.08
-0.065
-0.055
-0.065
-0.065
-0.085
-0.09
-0.085
-0.085
-0.085
-0.1
-0.13
-0.135
-0.135
-0.125
-0.135
-0.15
-0.16
-0.175
-0.155
-0.155
-0.16
-0.16
-0.18
-0.185
-0.18
-0.19
-0.18
-0.17
-0.195
-0.185
-0.19
-0.175
-0.185
-0.19
-0.19
-0.19
-0.17
-0.165
-0.165
-0.165
-0.185
-0.205
-0.19
-0.16
-0.15
-0.155
-0.175
-0.16
-0.12
-0.025
0.065
0.14
0.175
0.24
0.295
0.37
0.4
0.445
0.5
0.61
0.795
1.0
1.22
1.395
1.55
1.645
1.685
1.675
1.53
1.305
0.98
0.7
0.525
0.42
0.345
0.265
0.22
0.18
0.18
0.205
0.21
0.185
0.145
0.095
0.07
0.05
0.015
-0.01
-0.025
-0.065
-0.1
-0.12
-0.155
-0.185
-0.22
-0.24
-0.225
-0.23
-0.235
-0.26
-0.31
-0.33
-0.33
-0.315
-0.32
-0.31
-0.33
-0.35
-0.34
-0.325
-0.34
-0.355
-0.37
-0.375
-0.36
-0.35
-0.345
-0.355
-0.385
-0.39
-0.395
-0.38
-0.38
-0.39
-0.39
-0.4
-0.395
-0.38
-0.39
-0.4
-0.42
-0.425
-0.405
-0.39
-0.405
-0.43
-0.435
-0.445
-0.435
-0.42
-0.415
-0.43
-0.44
-0.465
-0.455
-0.46
-0.465
-0.46
-0.46
-0.47
-0.46
-0.465
-0.46
-0.47
-0.495
-0.475
-0.46
-0.45
-0.455
-0.46
-0.475
-0.49
-0.465
-0.45
-0.435
-0.425
-0.435
-0.43
-0.405
-0.385
-0.375
-0.355
-0.34
-0.34
-0.32
-0.3
-0.28
-0.275
-0.27
-0.26
-0.225
-0.205
-0.2
-0.195
-0.2
-0.19
-0.18
-0.165
-0.15
-0.165
-0.18
-0.18
-0.18
-0.165
-0.155
-0.145
-0.15
-0.165
-0.155
-0.16
-0.16
-0.185
-0.205
-0.195
-0.19
-0.17
-0.175
-0.195
-0.21
-0.21
-0.2
-0.175
-0.17
-0.195
-0.225
-0.235
-0.26
-0.245
-0.225
-0.22
-0.235
-0.245
-0.24
-0.225
-0.215
-0.225
-0.22
-0.205
-0.21
-0.225
-0.22
-0.245
-0.27
-0.265
-0.235
-0.205
-0.195
-0.215
-0.23
-0.265
-0.25
-0.235
-0.225
-0.235
-0.26
-0.26
-0.255
-0.22
-0.22
-0.24
-0.26
-0.255
-0.255
-0.255
-0.24
-0.235
-0.27
-0.28
-0.285
-0.25
-0.21
-0.225
-0.255
-0.28
-0.28
-0.24
-0.2
-0.18
-0.175
-0.2
-0.21
-0.215
-0.215
-0.215
-0.205
-0.21
-0.21
-0.205
-0.205
-0.2
-0.215
-0.2
-0.195
-0.19
-0.19
-0.2
-0.205
-0.21
-0.205
-0.205
-0.205
-0.235
-0.225
-0.225
-0.205
-0.225
-0.255
-0.255
-0.26
-0.27
-0.285
-0.285
-0.28
-0.29
-0.285
-0.275
-0.23
-0.21
-0.215
-0.245
-0.285
-0.315
-0.305
-0.305
-0.28
-0.285
-0.295
-0.305
-0.3
-0.285
-0.295
-0.32
-0.345
-0.34
-0.3
-0.285
-0.285
-0.3
-0.315
-0.3
-0.245
-0.17
-0.075
0.05
0.15
0.255
0.38
0.515
0.675
0.845
0.995
1.185
1.4
1.595
1.73
1.805
1.835
1.81
1.76
1.665
1.525
1.33
1.04
0.7
0.405
0.235
0.15
0.085
0.04
0.04
0.04
0.035
-0.005
-0.085
-0.135
-0.17
-0.175
-0.17
-0.18
-0.21
-0.255
-0.275
-0.285
-0.3
-0.315
-0.35
-0.39
-0.41
-0.42
-0.44
-0.45
-0.465
-0.475
-0.48
-0.485
-0.465
-0.48
-0.49
-0.505
-0.48
-0.475
-0.45
-0.455
-0.465
-0.49
-0.505
-0.515
-0.495
-0.495
-0.5
-0.505
-0.505
-0.495
-0.505
-0.51
-0.515
-0.52
-0.52
-0.525
-0.51
-0.515
-0.54
-0.54
-0.54
-0.535
-0.52
-0.515
-0.53
-0.555
-0.57
-0.565
-0.555
-0.555
-0.57
-0.575
-0.585
-0.585
-0.575
-0.585
-0.59
-0.62
-0.62
-0.61
-0.595
-0.595
-0.61
-0.61
-0.615
-0.62
-0.61
-0.6
-0.605
-0.61
-0.615
-0.585
-0.575
-0.575
-0.56
-0.56
-0.535
-0.525
-0.505
-0.495
-0.485
-0.475
-0.465
-0.435
-0.38
-0.375
-0.37
-0.365
-0.35
-0.325
-0.3
-0.285
-0.3
-0.305
-0.32
-0.295
-0.275
-0.265
-0.28
-0.27
-0.265
-0.245
-0.23
-0.255
-0.27
-0.28
-0.295
-0.275
-0.255
-0.25
-0.24
-0.28
-0.295
-0.3
-0.28
-0.265
-0.275
-0.28
-0.28
-0.285
-0.275
-0.255
-0.27
-0.275
-0.285
-0.27
-0.255
-0.255
-0.26
-0.275
-0.28
-0.27
-0.255
-0.24
-0.245
-0.25
-0.27
-0.27
-0.255
-0.255
-0.25
-0.24
-0.225
-0.23
-0.215
-0.225
-0.24
-0.25
-0.25
-0.235
-0.21
-0.215
-0.245
-0.255
-0.255
-0.25
-0.22
-0.22
-0.21
-0.225
-0.245
-0.255
-0.245
-0.235
-0.23
-0.25
-0.27
-0.265
-0.245
-0.215
-0.215
-0.215
-0.215
-0.19
-0.165
-0.165
-0.19
-0.22
-0.235
-0.205
-0.2
-0.17
-0.165
-0.175
-0.2
-0.17
-0.16
-0.16
-0.19
-0.215
-0.215
-0.2
-0.195
-0.19
-0.2
-0.21
-0.225
-0.215
-0.215
-0.22
-0.24
-0.29
-0.29
-0.265
-0.25
-0.245
-0.26
-0.29
-0.285
-0.285
-0.285
-0.295
-0.31
-0.31
-0.305
-0.28
-0.26
-0.245
-0.27
-0.28
-0.29
-0.285
-0.27
-0.26
-0.25
-0.255
-0.23
-0.22
-0.135
-0.04
0.035
0.085
0.125
0.17
0.255
0.37
0.5
0.66
0.835
1.055
1.29
1.485
1.585
1.59
1.495
1.305
1.005
0.67
0.415
0.25
0.175
0.135
0.11
0.095
0.08
0.055
0.045
0.01
-0.025
-0.065
-0.105
-0.13
-0.145
-0.155
-0.165
-0.195
-0.24
-0.285
-0.29
-0.305
-0.315
-0.32
-0.34
-0.37
-0.385
-0.395
-0.4
-0.405
-0.4
-0.42
-0.42
-0.435
-0.43
-0.425
-0.425
-0.445
-0.46
-0.44
-0.435
-0.42
-0.45
-0.46
-0.455
-0.455
-0.42
-0.425
-0.445
-0.46
-0.47
-0.46
-0.445
-0.45
-0.455
-0.46
-0.455
-0.455
-0.44
-0.445
-0.47
-0.485
-0.5
-0.485
-0.48
-0.48
-0.505
-0.52
-0.525
-0.51
-0.495
-0.485
-0.5
-0.515
-0.54
-0.535
-0.53
-0.525
-0.535
-0.54
-0.55
-0.53
-0.515
-0.505
-0.51
-0.52
-0.54
-0.515
-0.48
-0.47
-0.48
-0.49
-0.495
-0.495
-0.47
-0.45
-0.435
-0.435
-0.42
-0.385
-0.37
-0.35
-0.34
-0.335
-0.325
-0.29
-0.26
-0.215
-0.22
-0.225
-0.235
-0.22
-0.2
-0.185
-0.19
-0.195
-0.195
-0.2
-0.17
-0.185
-0.22
-0.225
-0.24
-0.205
-0.2
-0.205
-0.21
-0.22
-0.23
-0.23
-0.2
-0.2
-0.195
-0.215
-0.225
-0.235
-0.23
-0.25
-0.26
-0.27
-0.245
-0.235
-0.22
-0.21
-0.225
-0.24
-0.26
-0.25
-0.195
-0.22
-0.225
-0.245
-0.26
-0.235
-0.235
-0.22
-0.215
-0.245
-0.25
-0.24
-0.225
-0.25
-0.245
-0.26
-0.24
-0.24
-0.215
-0.22
-0.23
-0.24
-0.25
-0.25
-0.22
-0.215
-0.22
-0.235
-0.235
-0.245
-0.245
-0.235
-0.23
-0.245
-0.235
-0.22
-0.21
-0.225
-0.235
-0.245
-0.225
-0.225
-0.205
-0.195
-0.21
-0.205
-0.18
-0.18
-0.145
-0.145
-0.155
-0.175
-0.185
-0.175
-0.14
-0.135
-0.13
-0.14
-0.145
-0.145
-0.14
-0.15
-0.165
-0.18
-0.17
-0.18
-0.185
-0.19
-0.2
-0.205
-0.21
-0.205
-0.185
-0.18
-0.195
-0.22
-0.255
-0.26
-0.255
-0.24
-0.225
-0.235
-0.25
-0.25
-0.245
-0.255
-0.27
-0.265
-0.275
-0.265
-0.255
-0.25
-0.26
-0.275
-0.275
-0.265
-0.235
-0.23
-0.26
-0.29
-0.29
-0.27
-0.26
-0.245
-0.23
-0.205
-0.185
-0.115
-0.01
0.09
0.155
0.23
0.33
0.45
0.605
0.78
1.0
1.19
1.365
1.525
1.615
1.64
1.575
1.435
1.26
1.07
0.875
0.68
0.48
0.32
0.215
0.18
0.17
0.16
0.145
0.115
0.075
0.035
0.01
-0.05
-0.09
-0.125
-0.16
-0.16
-0.155
-0.17
-0.21
-0.265
-0.3
-0.315
-0.325
-0.35
-0.37
-0.395
-0.425
-0.425
-0.415
-0.415
-0.415
-0.415
-0.415
-0.42
-0.42
-0.44
-0.44
-0.47
-0.49
-0.47
-0.45
-0.465
-0.455
-0.46
-0.485
-0.48
-0.46
-0.455
-0.455
-0.485
-0.485
-0.495
-0.495
-0.505
-0.505
-0.525
-0.535
-0.525
-0.515
-0.5
-0.51
-0.525
-0.555
-0.54
-0.525
-0.54
-0.545
-0.57
-0.58
-0.57
-0.57
-0.555
-0.56
-0.57
-0.57
-0.555
-0.55
-0.55
-0.565
-0.58
-0.595
-0.59
-0.555
-0.555
-0.57
-0.6
-0.605
-0.595
-0.575
-0.565
-0.55
-0.57
-0.56
-0.55
-0.525
-0.505
-0.495
-0.485
-0.465
-0.44
-0.405
-0.365
-0.38
-0.385
-0.365
-0.33
-0.31
-0.285
-0.28
-0.275
-0.28
-0.26
-0.265
-0.235
-0.25
-0.26
-0.255
-0.235
-0.24
-0.225
-0.245
-0.25
-0.26
-0.27
-0.275
-0.285
-0.295
-0.31
-0.32
-0.3
-0.28
-0.27
-0.275
-0.295
-0.295
-0.295
-0.275
-0.275
-0.255
-0.275
-0.285
-0.27
-0.25
-0.26
-0.29
-0.34
-0.345
-0.3
-0.3
-0.285
-0.295
-0.325
-0.33
-0.325
-0.29
-0.285
-0.31
-0.315
-0.31
-0.3
-0.285
-0.27
-0.285
-0.31
-0.32
-0.305
-0.3
-0.28
-0.285
-0.31
-0.315
-0.295
-0.3
-0.295
-0.28
-0.28
-0.295
-0.295
-0.3
-0.285
-0.29
-0.31
-0.295
-0.3
-0.285
-0.28
-0.28
-0.31
-0.325
-0.305
-0.28
-0.27
-0.285
-0.315
-0.33
-0.315
-0.29
-0.265
-0.245
-0.25
-0.25
-0.23
-0.23
-0.185
-0.19
-0.2
-0.2
-0.19
-0.185
-0.15
-0.18
-0.185
-0.22
-0.22
-0.21
-0.195
-0.195
-0.215
-0.225
-0.215
-0.215
-0.24
-0.295
-0.31
-0.3
-0.31
-0.32
-0.345
-0.36
-0.355
-0.35
-0.34
-0.33
-0.315
-0.345
-0.365
-0.395
-0.405
-0.405
-0.39
-0.36
-0.365
-0.37
-0.345
-0.33
-0.34
-0.36
-0.365
-0.34
-0.315
-0.305
-0.3
-0.32
-0.34
-0.295
-0.205
-0.04
0.09
0.21
0.31
0.4
0.535
0.725
0.91
1.005
1.12
1.255
1.45
1.6
1.62
1.51
1.265
0.935
0.615
0.365
0.22
0.135
0.09
0.06
0.05
0.03
-0.01
-0.06
-0.1
-0.12
-0.155
-0.155
-0.17
-0.215
-0.27
-0.295
-0.33
-0.35
-0.365
-0.385
-0.425
-0.455
-0.485
-0.48
-0.48
-0.465
-0.47
-0.5
-0.525
-0.54
-0.545
-0.53
-0.545
-0.53
-0.515
-0.51
-0.51
-0.515
-0.525
-0.52
-0.52
-0.515
-0.535
-0.545
-0.56
-0.565
-0.555
-0.56
-0.56
-0.57
-0.585
-0.58
-0.59
-0.575
-0.575
-0.57
-0.56
-0.58
-0.6
-0.635
-0.655
-0.665
-0.66
-0.625
-0.605
-0.585
-0.605
-0.625
-0.62
-0.605
-0.6
-0.615
-0.635
-0.67
-0.69
-0.67
-0.625
-0.565
-0.505
-0.5
-0.525
-0.55
-0.555
-0.545
-0.525
-0.49
-0.495
-0.49
-0.49
-0.485
-0.475
-0.465
-0.445
-0.415
-0.395
-0.39
-0.415
-0.425
-0.415
-0.37
-0.34
-0.31
-0.3
-0.33
-0.36
-0.365
-0.37
-0.375
-0.36
-0.385
-0.385
-0.365
-0.375
-0.36
-0.34
-0.34
-0.37
-0.41
-0.4
-0.39
-0.37
-0.395
-0.39
-0.395
-0.385
-0.35
-0.34
-0.365
-0.385
-0.4
-0.405
-0.38
-0.375
-0.375
-0.4
-0.425
-0.44
-0.415
-0.395
-0.385
-0.405
-0.42
-0.395
-0.41
-0.405
-0.4
-0.425
-0.455
-0.46
-0.43
-0.43
-0.41
-0.435
-0.47
-0.495
-0.46
-0.42
-0.435
-0.46
-0.48
-0.465
-0.43
-0.415
-0.425
-0.46
-0.49
-0.505
-0.485
-0.47
-0.46
-0.49
-0.53
-0.54
-0.51
-0.475
-0.46
-0.455
-0.46
-0.455
-0.48
-0.485
-0.475
-0.47
-0.44
-0.4
-0.395
-0.41
-0.425
-0.39
-0.32
-0.275
-0.28
-0.34
-0.415
-0.465
-0.545
-0.635
-0.68
-0.695
-0.705
-0.69
-0.775
-0.895
-0.85
-0.665
-0.585
-0.535
-0.425
-0.34
-0.415
-0.535
-0.58
-0.56
-0.525
-0.505
-0.46
-0.475
-0.52
-0.54
-0.48
-0.42
-0.445
-0.45
-0.38
-0.33
-0.335
-0.375
-0.395
-0.405
-0.43
-0.395
-0.3
-0.195
-0.115
-0.035
0.045
0.1
0.17
0.28
0.41
0.56
0.705
0.86
1.065
1.3
1.43
1.435
1.39
1.265
1.04
0.71
0.31
0.005
-0.18
-0.235
-0.23
-0.185
-0.13
-0.09
-0.125
-0.165
-0.19
-0.2
-0.2
-0.215
-0.2
-0.225
-0.25
-0.28
-0.31
-0.335
-0.37
-0.385
-0.39
-0.405
-0.445
-0.47
-0.48
-0.495
-0.49
-0.485
-0.465
-0.445
-0.46
-0.5
-0.525
-0.515
-0.51
-0.495
-0.495
-0.5
-0.515
-0.525
-0.535
-0.545
-0.535
-0.545
-0.54
-0.565
-0.565
-0.535
-0.55
-0.56
-0.57
-0.565
-0.555
-0.545
-0.58
-0.605
-0.59
-0.59
-0.58
-0.595
-0.605
-0.63
-0.655
-0.64
-0.64
-0.635
-0.65
-0.64
-0.645
-0.645
-0.64
-0.625
-0.645
-0.665
-0.665
-0.655
-0.65
-0.645
-0.655
-0.665
-0.655
-0.625
-0.595
-0.595
-0.615
-0.635
-0.62
-0.595
-0.565
-0.535
-0.525
-0.525
-0.52
-0.495
-0.45
-0.435
-0.43
-0.43
-0.43
-0.415
-0.41
-0.4
-0.405
-0.39
-0.39
-0.39
-0.37
-0.375
-0.38
-0.395
-0.405
-0.38
-0.38
-0.36
-0.405
-0.41
-0.415
-0.4
-0.395
-0.395
-0.415
-0.435
-0.44
-0.415
-0.41
-0.385
-0.385
-0.395
-0.385
-0.395
-0.39
-0.37
-0.365
-0.385
-0.405
-0.385
-0.375
-0.365
-0.365
-0.365
-0.36
-0.37
-0.34
-0.35
-0.36
-0.38
-0.37
-0.365
-0.355
-0.335
-0.325
-0.345
-0.37
-0.38
-0.365
-0.325
-0.32
-0.33
-0.355
-0.36
-0.345
-0.335
-0.34
-0.355
-0.35
-0.34
-0.33
-0.315
-0.335
-0.36
-0.365
-0.35
-0.315
-0.31
-0.315
-0.32
-0.325
-0.33
-0.305
-0.28
-0.28
-0.265
-0.27
-0.275
-0.26
-0.25
-0.25
-0.26
-0.25
-0.245
-0.235
-0.25
-0.23
-0.255
-0.27
-0.275
-0.245
-0.245
-0.255
-0.285
-0.305
-0.3
-0.295
-0.27
-0.27
-0.31
-0.34
-0.34
-0.33
-0.33
-0.32
-0.305
-0.315
-0.315
-0.29
-0.285
-0.31
-0.33
-0.34
-0.345
-0.335
-0.32
-0.31
-0.32
-0.34
-0.33
-0.305
-0.295
-0.3
-0.315
-0.315
-0.325
-0.31
-0.295
-0.28
-0.28
-0.255
-0.21
-0.1
-0.015
0.035
0.085
0.145
0.275
0.435
0.615
0.805
0.995
1.19
1.37
1.505
1.58
1.575
1.515
1.345
1.06
0.755
0.5
0.345
0.225
0.145
0.09
0.075
0.08
0.065
0.035
-0.035
-0.065
-0.08
-0.115
-0.14
-0.16
-0.19
-0.22
-0.225
-0.26
-0.3
-0.34
-0.365
-0.37
-0.36
-0.37
-0.395
-0.425
-0.45
-0.425
-0.405
-0.39
-0.415
-0.45
-0.455
-0.455
-0.46
-0.445
-0.44
-0.45
-0.48
-0.455
-0.445
-0.44
-0.45
-0.46
-0.475
-0.485
-0.465
-0.47
-0.475
-0.5
-0.525
-0.52
-0.52
-0.51
-0.52
-0.55
-0.555
-0.55
-0.535
-0.53
-0.565
-0.575
-0.59
-0.61
-0.585
-0.575
-0.585
-0.585
-0.595
-0.62
-0.605
-0.61
-0.6
-0.6
-0.6
-0.605
-0.585
-0.59
-0.585
-0.58
-0.58
-0.565
-0.535
-0.52
-0.515
-0.505
-0.48
-0.445
-0.42
-0.395
-0.385
-0.38
-0.36
-0.335
-0.3
-0.29
-0.28
-0.285
-0.305
-0.295
-0.285
-0.25
-0.25
-0.26
-0.275
-0.28
-0.28
-0.265
-0.27
-0.28
-0.28
-0.28
-0.27
-0.265
-0.28
-0.29
-0.305
-0.29
-0.265
-0.265
-0.28
-0.3
-0.305
-0.3
-0.275
-0.265
-0.265
-0.275
-0.3
-0.31
-0.295
-0.285
-0.28
-0.285
-0.29
-0.305
-0.285
-0.27
-0.29
-0.305
-0.295
-0.3
-0.29
-0.275
-0.285
-0.305
-0.31
-0.295
-0.27
-0.255
-0.27
-0.29
-0.31
-0.3
-0.28
-0.28
-0.275
-0.295
-0.29
-0.285
-0.28
-0.27
-0.285
-0.295
-0.29
-0.285
-0.27
-0.28
-0.29
-0.295
-0.31
-0.305
-0.28
-0.275
-0.275
-0.27
-0.27
-0.245
-0.22
-0.205
-0.19
-0.21
-0.22
-0.225
-0.225
-0.215
-0.215
-0.225
-0.22
-0.21
-0.2
-0.2
-0.23
-0.245
-0.26
-0.24
-0.215
-0.205
-0.225
-0.24
-0.265
-0.265
-0.26
-0.24
-0.25
-0.275
-0.305
-0.3
-0.3
-0.285
-0.28
-0.28
-0.27
-0.275
-0.27
-0.26
-0.295
-0.32
-0.325
-0.315
-0.3
-0.28
-0.29
-0.3
-0.325
-0.3
-0.29
-0.27
-0.27
-0.3
-0.295
-0.305
-0.27
-0.265
-0.255
-0.24
-0.18
-0.09
0.005
0.07
0.135
0.205
0.305
0.445
0.63
0.82
0.995
1.165
1.345
1.47
1.55
1.585
1.565
1.46
1.26
1.0
0.735
0.53
0.375
0.255
0.18
0.125
0.13
0.13
0.105
0.095
0.045
0.01
-0.025
-0.045
-0.08
-0.115
-0.15
-0.165
-0.185
-0.21
-0.235
-0.28
-0.32
-0.345
-0.345
-0.355
-0.375
-0.41
-0.42
-0.44
-0.43
-0.425
-0.44
-0.44
-0.45
-0.44
-0.42
-0.43
-0.465
-0.47
-0.47
-0.47
-0.45
-0.445
-0.46
-0.49
-0.505
-0.495
-0.475
-0.465
-0.48
-0.47
-0.49
-0.485
-0.48
-0.49
-0.515
-0.51
-0.525
-0.52
-0.52
-0.51
-0.535
-0.555
-0.56
-0.555
-0.53
-0.54
-0.54
-0.55
-0.56
-0.57
-0.565
-0.565
-0.56
-0.565
-0.59
-0.6
-0.59
-0.57
-0.565
-0.565
-0.58
-0.59
-0.565
-0.545
-0.555
-0.545
-0.54
-0.535
-0.485
-0.46
-0.47
-0.475
-0.455
-0.435
-0.405
-0.37
-0.36
-0.37
-0.365
-0.325
-0.315
-0.27
-0.265
-0.265
-0.28
-0.285
-0.285
-0.27
-0.265
-0.275
-0.26
-0.275
-0.285
-0.275
-0.27
-0.285
-0.285
-0.295
-0.28
-0.275
-0.305
-0.3
-0.305
-0.295
-0.29
-0.27
-0.3
-0.31
-0.32
-0.31
-0.3
-0.29
-0.285
-0.315
-0.32
-0.32
-0.285
-0.28
-0.275
-0.305
-0.305
-0.3
-0.285
-0.285
-0.305
-0.3
-0.315
-0.3
-0.305
-0.285
