Lead II
-0.105
-0.075
-0.05
-0.06
-0.065
-0.085
-0.1
-0.095
-0.075
-0.05
-0.045
-0.06
-0.07
-0.08
-0.085
-0.12
-0.135
-0.13
-0.125
-0.1
-0.085
-0.09
-0.125
-0.145
-0.185
-0.185
-0.175
-0.16
-0.175
-0.19
-0.21
-0.23
-0.235
-0.26
-0.285
-0.305
-0.305
-0.3
-0.28
-0.3
-0.335
-0.355
-0.375
-0.38
-0.355
-0.36
-0.36
-0.39
-0.4
-0.405
-0.385
-0.395
-0.385
-0.39
-0.385
-0.385
-0.375
-0.385
-0.395
-0.395
-0.395
-0.39
-0.375
-0.36
-0.375
-0.39
-0.405
-0.415
-0.395
-0.385
-0.405
-0.42
-0.43
-0.425
-0.425
-0.43
-0.44
-0.445
-0.475
-0.465
-0.48
-0.475
-0.465
-0.465
-0.445
-0.43
-0.42
-0.45
-0.51
-0.58
-0.64
-0.635
-0.63
-0.605
-0.545
-0.46
-0.34
-0.22
-0.12
-0.045
0.015
0.095
0.215
0.375
0.555
0.695
0.81
0.91
0.995
1.105
1.2
1.31
1.435
1.525
1.63
1.7
1.76
1.77
1.73
1.61
1.435
1.23
0.995
0.74
0.45
0.215
0.01
-0.125
-0.26
-0.345
-0.445
-0.555
-0.66
-0.7
-0.73
-0.77
-0.8
-0.85
-0.88
-0.85
-0.835
-0.82
-0.86
-0.87
-0.895
-0.92
-0.895
-0.885
-0.865
-0.88
-0.9
-0.89
-0.9
-0.92
-0.94
-0.99
-1.03
-1.05
-1.045
-1.05
-1.065
-1.09
-1.08
-1.07
-1.065
-1.08
-1.095
-1.105
-1.11
-1.08
-1.065
-1.05
-1.05
-1.08
-1.085
-1.1
-1.11
-1.1
-1.105
-1.115
-1.1
-1.08
-1.085
-1.1
-1.11
-1.115
-1.11
-1.1
-1.1
-1.11
-1.1
-1.105
-1.1
-1.095
-1.085
-1.075
-1.07
-1.075
-1.07
-1.08
-1.055
-1.015
-1.0
-0.99
-1.01
-0.995
-1.0
-0.99
-0.985
-0.975
-0.965
-0.94
-0.915
-0.9
-0.905
-0.915
-0.93
-0.91
-0.865
-0.82
-0.8
-0.79
-0.795
-0.78
-0.785
-0.77
-0.765
-0.745
-0.73
-0.69
-0.675
-0.665
-0.66
-0.665
-0.68
-0.64
-0.615
-0.585
-0.58
-0.59
-0.585
-0.565
-0.545
-0.535
-0.545
-0.535
-0.535
-0.54
-0.535
-0.565
-0.56
-0.585
-0.595
-0.595
-0.57
-0.565
-0.55
-0.56
-0.575
-0.57
-0.585
-0.585
-0.55
-0.535
-0.525
-0.53
-0.52
-0.52
-0.53
-0.545
-0.56
-0.55
-0.525
-0.515
-0.495
-0.505
-0.49
-0.485
-0.48
-0.49
-0.5
-0.505
-0.51
-0.5
-0.455
-0.43
-0.445
-0.495
-0.52
-0.52
-0.51
-0.505
-0.51
-0.515
-0.505
-0.495
-0.47
-0.47
-0.455
-0.45
-0.45
-0.445
-0.445
-0.46
-0.465
-0.46
-0.465
-0.455
-0.45
-0.45
-0.44
-0.445
-0.44
-0.415
-0.38
-0.36
-0.355
-0.355
-0.365
-0.365
-0.4
-0.44
-0.45
-0.475
-0.47
-0.465
-0.46
-0.48
-0.495
-0.515
-0.54
-0.52
-0.465
-0.43
-0.415
-0.42
-0.435
-0.445
-0.46
-0.47
-0.465
-0.475
-0.465
-0.465
-0.46
-0.44
-0.435
-0.44
-0.445
-0.45
-0.445
-0.435
-0.425
-0.43
-0.42
-0.41
-0.41
-0.405
-0.42
-0.435
-0.425
-0.415
-0.38
-0.375
-0.385
-0.425
-0.445
-0.455
-0.465
-0.465
-0.435
-0.43
-0.43
-0.43
-0.44
-0.44
-0.455
-0.485
-0.475
-0.465
-0.445
-0.455
-0.455
-0.44
-0.445
-0.435
-0.44
-0.435
-0.445
-0.445
-0.445
-0.42
-0.395
-0.385
-0.385
-0.415
-0.435
-0.445
-0.45
-0.44
-0.45
-0.455
-0.46
-0.43
-0.425
-0.385
-0.395
-0.36
-0.35
-0.33
-0.325
-0.345
-0.355
-0.375
-0.375
-0.37
-0.35
-0.315
-0.305
-0.315
-0.305
-0.29
-0.255
-0.225
-0.22
-0.225
-0.25
-0.275
-0.32
-0.345
-0.355
-0.395
-0.45
-0.465
-0.475
-0.485
-0.48
-0.495
-0.5
-0.485
-0.475
-0.47
-0.475
-0.49
-0.525
-0.51
-0.485
-0.475
-0.465
-0.47
-0.49
-0.495
-0.485
-0.49
-0.485
-0.48
-0.475
-0.45
-0.44
-0.435
-0.45
-0.48
-0.53
-0.55
-0.535
-0.505
-0.505
-0.485
-0.485
-0.465
-0.465
-0.47
-0.48
-0.475
-0.475
-0.45
-0.4
-0.375
-0.36
-0.36
-0.37
-0.355
-0.325
-0.325
-0.35
-0.385
-0.415
-0.445
-0.455
-0.45
-0.455
-0.45
-0.465
-0.445
-0.435
-0.425
-0.41
-0.395
-0.38
-0.375
-0.395
-0.43
-0.465
-0.505
-0.51
-0.48
-0.435
-0.39
-0.345
-0.325
-0.33
-0.32
-0.285
-0.255
-0.185
-0.09
0.035
0.155
0.245
0.25
0.225
0.16
0.08
0.005
-0.09
-0.17
-0.225
-0.295
-0.335
-0.35
-0.35
-0.36
-0.375
-0.39
-0.375
-0.345
-0.315
-0.305
-0.305
-0.35
-0.34
-0.345
-0.33
-0.325
-0.32
-0.33
-0.33
-0.335
-0.32
-0.315
-0.33
-0.345
-0.38
-0.36
-0.36
-0.355
-0.33
-0.325
-0.32
-0.325
-0.335
-0.32
-0.325
-0.325
-0.34
-0.315
-0.29
-0.28
-0.255
-0.255
-0.27
-0.265
-0.26
-0.26
-0.26
-0.255
-0.255
-0.255
-0.25
-0.22
-0.21
-0.2
-0.205
-0.205
-0.19
-0.19
-0.195
-0.195
-0.2
-0.205
-0.195
-0.18
-0.195
-0.2
-0.2
-0.21
-0.21
-0.19
-0.185
-0.19
-0.185
-0.185
-0.17
-0.175
-0.19
-0.2
-0.205
-0.18
-0.16
-0.15
-0.15
-0.12
-0.11
-0.09
-0.08
-0.075
-0.07
-0.09
-0.09
-0.09
-0.08
-0.075
-0.07
-0.09
-0.11
-0.1
-0.095
-0.1
-0.105
-0.105
-0.105
-0.105
-0.09
-0.09
-0.09
-0.085
-0.12
-0.115
-0.105
-0.1
-0.125
-0.16
-0.195
-0.2
-0.235
-0.215
-0.21
-0.22
-0.225
-0.255
-0.24
-0.23
-0.23
-0.235
-0.24
-0.235
-0.25
-0.245
-0.26
-0.275
-0.3
-0.28
-0.265
-0.255
-0.255
-0.265
-0.28
-0.285
-0.295
-0.285
-0.305
-0.33
-0.35
-0.36
-0.35
-0.315
-0.315
-0.315
-0.325
-0.33
-0.325
-0.33
-0.34
-0.345
-0.345
-0.33
-0.315
-0.31
-0.33
-0.345
-0.355
-0.35
-0.33
-0.33
-0.34
-0.36
-0.385
-0.37
-0.385
-0.38
-0.385
-0.385
-0.395
-0.365
-0.35
-0.325
-0.32
-0.33
-0.355
-0.365
-0.37
-0.41
-0.42
-0.455
-0.46
-0.45
-0.43
-0.415
-0.4
-0.415
-0.45
-0.46
-0.495
-0.5
-0.505
-0.515
-0.51
-0.51
-0.495
-0.435
-0.37
-0.31
-0.225
-0.14
-0.07
-0.02
0.025
0.055
0.105
0.205
0.32
0.445
0.585
0.71
0.82
0.95
1.08
1.19
1.285
1.365
1.44
1.56
1.675
1.76
1.84
1.915
1.96
1.99
1.985
1.925
1.805
1.65
1.47
1.28
1.085
0.865
0.62
0.4
0.2
0.06
-0.05
-0.155
-0.26
-0.385
-0.48
-0.54
-0.58
-0.59
-0.63
-0.665
-0.705
-0.715
-0.715
-0.715
-0.72
-0.74
-0.735
-0.73
-0.72
-0.7
-0.71
-0.735
-0.755
-0.76
-0.74
-0.745
-0.765
-0.79
-0.795
-0.795
-0.785
-0.78
-0.8
-0.815
-0.83
-0.83
-0.84
-0.84
-0.855
-0.86
-0.85
-0.84
-0.84
-0.845
-0.845
-0.86
-0.885
-0.875
-0.875
-0.87
-0.87
-0.87
-0.845
-0.835
-0.81
-0.795
-0.795
-0.825
-0.835
-0.84
-0.84
-0.85
-0.845
-0.855
-0.855
-0.85
-0.835
-0.83
-0.825
-0.83
-0.83
-0.84
-0.835
-0.84
-0.825
-0.845
-0.85
-0.825
-0.815
-0.795
-0.79
-0.8
-0.81
-0.805
-0.785
-0.79
-0.775
-0.795
-0.795
-0.785
-0.775
-0.75
-0.725
-0.72
-0.73
-0.71
-0.695
-0.68
-0.67
-0.665
-0.66
-0.645
-0.625
-0.59
-0.58
-0.575
-0.585
-0.565
-0.555
-0.545
-0.55
-0.545
-0.54
-0.53
-0.51
-0.485
-0.49
-0.5
-0.49
-0.45
-0.435
-0.415
-0.41
-0.415
-0.41
-0.395
-0.385
-0.365
-0.365
-0.36
-0.355
-0.345
-0.31
-0.29
-0.28
-0.285
-0.295
-0.275
-0.27
-0.265
-0.265
-0.255
-0.255
-0.245
-0.24
-0.21
-0.22
-0.22
-0.24
-0.22
-0.21
-0.2
-0.2
-0.2
-0.2
-0.165
-0.16
-0.155
-0.165
-0.17
-0.175
-0.19
-0.175
-0.165
-0.165
-0.15
-0.14
-0.115
-0.105
-0.105
-0.13
-0.155
-0.19
-0.21
-0.2
-0.18
-0.165
-0.16
-0.14
-0.115
-0.08
-0.06
-0.05
-0.045
-0.055
-0.065
-0.085
-0.11
-0.145
-0.145
-0.16
-0.14
-0.13
-0.12
-0.13
-0.12
-0.125
-0.105
-0.085
-0.06
-0.06
-0.07
-0.095
-0.14
-0.165
-0.185
-0.19
-0.18
-0.195
-0.185
-0.175
-0.175
-0.17
-0.18
-0.18
-0.185
-0.165
-0.15
-0.135
-0.15
-0.17
-0.16
-0.135
-0.12
-0.125
-0.135
-0.13
-0.13
-0.115
-0.1
-0.11
-0.105
-0.12
-0.12
-0.09
-0.055
-0.065
-0.075
-0.085
-0.085
-0.07
-0.045
-0.06
-0.08
-0.09
-0.09
-0.095
-0.085
-0.105
-0.095
-0.095
-0.095
-0.085
-0.06
-0.065
-0.07
-0.065
-0.065
-0.05
-0.04
-0.035
-0.045
-0.065
-0.045
-0.035
-0.025
-0.02
-0.02
-0.025
-0.015
-0.025
-0.01
-0.015
-0.025
-0.04
-0.04
-0.015
-0.015
-0.015
-0.03
-0.035
-0.04
-0.03
-0.025
-0.025
-0.025
-0.035
-0.03
-0.04
-0.045
-0.04
-0.035
-0.035
-0.015
0.01
0.015
0.015
0.01
0.0
0.0
0.01
0.01
0.025
0.015
-0.005
0.015
0.03
0.04
0.04
0.015
-0.015
-0.005
-0.025
-0.02
0.0
0.005
0.02
0.045
0.06
0.055
0.045
0.025
0.015
0.005
0.005
0.01
0.025
0.01
0.015
0.02
0.015
0.035
0.025
0.05
0.03
0.01
0.01
0.025
0.045
0.045
0.035
0.07
0.1
0.095
0.09
0.085
0.06
0.04
0.055
0.05
0.045
0.04
0.045
0.06
0.075
0.085
0.08
0.08
0.08
0.095
0.105
0.11
0.14
0.14
0.145
0.155
0.155
0.165
0.18
0.16
0.145
0.165
0.155
0.145
0.145
0.125
0.12
0.11
0.1
0.08
0.07
0.055
0.055
0.05
0.045
0.055
0.065
0.06
0.06
0.06
0.055
0.055
0.06
0.045
0.035
0.01
0.035
0.045
0.05
0.02
0.01
0.0
0.015
0.02
0.02
0.005
-0.025
-0.035
-0.035
-0.025
-0.02
-0.03
-0.035
-0.04
-0.025
-0.015
0.0
0.0
0.005
0.025
0.05
0.08
0.09
0.11
0.105
0.11
0.105
0.105
0.115
0.095
0.07
0.08
0.11
0.135
0.145
0.115
0.11
0.11
0.115
0.11
0.125
0.13
0.13
0.15
0.145
0.165
0.14
0.1
0.075
0.055
0.035
0.01
0.005
0.03
0.065
0.125
0.185
0.21
0.235
0.25
0.245
0.26
0.285
0.325
0.41
0.545
0.705
0.81
0.865
0.83
0.77
0.68
0.56
0.465
0.395
0.345
0.27
0.23
0.17
0.14
0.14
0.15
0.13
0.125
0.11
0.12
0.13
0.135
0.14
0.16
0.16
0.16
0.175
0.185
0.185
0.155
0.125
0.15
0.16
0.195
0.22
0.225
0.22
0.2
0.205
0.215
0.205
0.195
0.19
0.2
0.22
0.225
0.2
0.205
0.205
0.23
0.26
0.255
0.27
0.26
0.24
0.245
0.245
0.23
0.205
0.2
0.195
0.2
0.245
0.265
0.27
0.285
0.285
0.29
0.3
0.29
0.26
0.265
0.26
0.285
0.285
0.295
0.305
0.3
0.275
0.27
0.275
0.29
0.295
0.31
0.315
0.32
0.32
0.325
0.32
0.315
0.295
0.295
0.31
0.34
0.355
0.355
0.36
0.365
0.375
0.365
0.355
0.335
0.34
0.35
0.365
0.355
0.34
0.325
0.305
0.29
0.29
0.26
0.25
0.24
0.24
0.275
0.275
0.27
0.24
0.22
0.2
0.2
0.21
0.21
0.2
0.175
0.14
0.13
0.12
0.085
0.065
0.04
0.045
0.05
0.09
0.08
0.06
0.035
0.04
0.045
0.045
0.055
0.02
0.0
-0.01
-0.01
0.005
0.0
-0.01
-0.02
-0.02
-0.01
0.015
0.03
0.02
0.005
-0.02
-0.01
0.005
0.005
-0.02
-0.065
-0.095
-0.1
-0.08
-0.075
-0.065
-0.08
-0.095
-0.11
-0.095
-0.09
-0.105
-0.11
-0.115
-0.115
-0.105
-0.105
-0.085
-0.095
-0.1
-0.1
-0.095
-0.105
-0.135
-0.165
-0.21
-0.235
-0.24
-0.25
-0.25
-0.255
-0.265
-0.25
-0.205
-0.13
-0.04
0.06
0.145
0.235
0.285
0.39
0.52
0.66
0.825
1.01
1.15
1.29
1.43
1.55
1.625
1.71
1.815
1.905
2.0
2.09
2.15
2.21
2.25
2.24
2.165
2.035
1.88
1.68
1.46
1.22
0.94
0.68
0.45
0.285
0.155
0.06
-0.06
-0.185
-0.3
-0.355
-0.385
-0.4
-0.43
-0.46
-0.485
-0.485
-0.49
-0.52
-0.535
-0.54
-0.56
-0.565
-0.55
-0.54
-0.545
-0.555
-0.57
-0.585
-0.59
-0.59
-0.605
-0.62
-0.645
-0.635
-0.635
-0.64
-0.645
-0.67
-0.705
-0.725
-0.69
-0.68
-0.69
-0.72
-0.735
-0.75
-0.725
-0.715
-0.715
-0.745
-0.74
-0.715
-0.68
-0.68
-0.685
-0.69
-0.72
-0.715
-0.715
-0.725
-0.725
-0.74
-0.755
-0.745
-0.74
-0.735
-0.73
-0.72
-0.74
-0.745
-0.74
-0.725
-0.735
-0.72
-0.72
-0.7
-0.695
-0.695
-0.685
-0.685
-0.705
-0.7
-0.69
-0.68
-0.675
-0.675
-0.665
-0.645
-0.61
-0.59
-0.6
-0.61
-0.615
-0.6
-0.585
-0.55
-0.525
-0.51
-0.505
-0.5
-0.46
-0.46
-0.465
-0.485
-0.48
-0.485
-0.445
-0.405
-0.36
-0.355
-0.36
-0.37
-0.355
-0.34
-0.32
-0.305
-0.315
-0.285
-0.245
-0.24
-0.235
-0.25
-0.23
-0.23
-0.235
-0.23
-0.225
-0.225
-0.225
-0.225
-0.23
-0.2
-0.225
-0.215
-0.225
-0.235
-0.23
-0.255
-0.235
-0.23
-0.22
-0.18
-0.17
-0.17
-0.17
-0.175
-0.195
-0.19
-0.18
-0.175
-0.19
-0.185
-0.18
-0.185
-0.17
-0.16
-0.15
-0.16
-0.18
-0.15
-0.15
-0.145
-0.14
-0.135
-0.145
-0.125
-0.11
-0.105
-0.105
-0.115
-0.135
-0.125
-0.13
-0.12
-0.105
-0.12
-0.13
-0.135
-0.12
-0.11
-0.125
-0.145
-0.145
-0.12
-0.11
-0.09
-0.085
-0.085
-0.105
-0.1
-0.12
-0.1
-0.12
-0.13
-0.13
-0.115
-0.075
-0.04
-0.035
-0.045
-0.075
-0.1
-0.105
-0.095
-0.09
-0.09
-0.085
-0.08
-0.075
-0.055
-0.075
-0.09
-0.1
-0.1
-0.075
-0.06
-0.05
-0.05
-0.04
-0.035
-0.04
-0.035
-0.06
-0.085
-0.08
-0.065
-0.055
-0.055
-0.055
-0.08
-0.075
-0.065
-0.065
-0.055
-0.04
-0.055
-0.075
-0.075
-0.05
-0.01
0.0
-0.025
-0.06
-0.04
-0.05
-0.04
-0.06
-0.06
-0.07
-0.065
-0.035
0.015
0.025
0.005
-0.005
-0.005
-0.005
0.015
0.005
-0.01
-0.005
-0.005
-0.005
-0.005
-0.005
-0.01
-0.01
-0.015
-0.02
-0.025
-0.02
-0.03
-0.045
-0.025
-0.01
0.01
0.005
-0.02
-0.04
-0.05
-0.02
0.01
0.035
0.05
0.035
0.035
0.025
0.02
0.025
0.015
0.01
0.02
0.05
0.05
0.045
0.02
0.01
0.0
0.005
0.005
-0.005
-0.02
-0.015
-0.01
0.02
0.045
0.065
0.065
0.06
0.055
0.075
0.085
0.09
0.09
0.08
0.1
0.12
0.14
0.135
0.13
0.12
0.135
0.15
0.175
0.185
0.175
0.16
0.14
0.135
0.135
0.135
0.11
0.075
0.075
0.075
0.065
0.035
0.02
-0.015
-0.025
-0.015
-0.01
0.005
0.005
0.0
0.02
0.05
0.055
0.045
0.01
-0.01
0.01
0.0
0.015
-0.015
-0.015
-0.04
-0.045
-0.05
-0.05
-0.06
-0.07
-0.065
-0.035
-0.02
-0.005
-0.02
-0.055
-0.065
-0.045
-0.025
-0.01
0.0
0.01
0.005
0.035
0.035
0.07
0.07
0.065
0.05
0.065
0.07
0.07
0.065
0.05
0.025
0.035
0.06
0.07
0.08
0.075
0.055
0.055
0.055
0.06
0.075
0.085
0.09
0.095
0.095
0.105
0.095
0.065
0.02
0.01
0.01
0.04
0.08
0.125
0.15
0.195
0.225
0.235
0.23
0.235
0.295
0.405
0.555
0.7
0.78
0.775
0.735
0.66
0.55
0.43
0.295
0.2
0.15
0.14
0.15
0.16
0.14
0.115
0.085
0.075
0.07
0.065
0.07
0.06
0.07
0.095
0.105
0.12
0.11
0.085
0.055
0.035
0.03
0.07
0.08
0.1
0.125
0.14
0.155
0.16
0.15
0.13
0.11
0.1
0.13
0.14
0.14
0.14
0.125
0.125
0.145
0.15
0.14
0.125
0.125
0.125
0.145
0.165
0.17
0.175
0.16
0.15
0.17
0.18
0.18
0.175
0.15
0.165
0.175
0.185
0.195
0.175
0.15
0.165
0.165
0.21
0.21
0.22
0.205
0.21
0.23
0.24
0.25
0.24
0.245
0.24
0.24
0.25
0.235
0.245
0.25
0.265
0.275
0.285
0.28
0.265
0.255
0.26
0.26
0.285
0.285
0.28
0.26
0.25
0.25
0.245
0.23
0.205
0.205
0.21
0.23
0.24
0.24
0.25
0.205
0.19
0.18
0.18
0.175
0.17
0.155
0.135
0.13
0.14
0.115
0.07
0.03
0.02
0.015
0.035
0.04
0.045
0.025
0.0
-0.01
-0.01
-0.03
-0.055
-0.07
-0.055
-0.035
-0.04
-0.045
-0.055
-0.09
-0.075
-0.08
-0.075
-0.09
-0.085
-0.1
-0.09
-0.08
-0.065
-0.065
-0.1
-0.14
-0.15
-0.145
-0.13
-0.135
-0.15
-0.16
-0.16
-0.155
-0.155
-0.165
-0.17
-0.19
-0.185
-0.18
-0.16
-0.165
-0.17
-0.18
-0.19
-0.195
-0.215
-0.21
-0.225
-0.235
-0.23
-0.23
-0.23
-0.235
-0.235
-0.265
-0.255
-0.265
-0.245
-0.265
-0.3
-0.35
-0.38
-0.395
-0.385
-0.385
-0.38
-0.355
-0.315
-0.215
-0.1
0.01
0.08
0.165
0.255
0.38
0.515
0.67
0.815
0.945
1.065
1.205
1.335
1.45
1.54
1.61
1.705
1.805
1.885
1.95
1.97
1.96
1.92
1.83
1.685
1.49
1.235
0.935
0.645
0.39
0.18
0.035
-0.095
-0.22
-0.325
-0.425
-0.495
-0.54
-0.57
-0.59
-0.61
-0.615
-0.61
-0.625
-0.645
-0.675
-0.675
-0.68
-0.67
-0.68
-0.68
-0.685
-0.705
-0.71
-0.725
-0.75
-0.78
-0.81
-0.805
-0.81
-0.8
-0.83
-0.845
-0.865
-0.845
-0.84
-0.835
-0.825
-0.835
-0.84
-0.835
-0.83
-0.815
-0.84
-0.855
-0.875
-0.875
-0.865
-0.845
-0.85
-0.885
-0.895
-0.895
-0.9
-0.885
-0.895
-0.905
-0.91
-0.9
-0.89
-0.88
-0.88
-0.875
-0.885
-0.88
-0.875
-0.865
-0.865
-0.85
-0.855
-0.845
-0.83
-0.83
-0.815
-0.82
-0.805
-0.79
-0.765
-0.765
-0.765
-0.75
-0.76
-0.725
-0.69
-0.655
-0.635
-0.625
-0.62
-0.6
-0.585
-0.575
-0.56
-0.57
-0.56
-0.525
-0.495
-0.475
-0.47
-0.48
-0.495
-0.47
-0.45
-0.43
-0.42
-0.43
-0.435
-0.425
-0.42
-0.415
-0.415
-0.415
-0.43
-0.415
-0.39
-0.36
-0.37
-0.39
-0.41
-0.405
-0.375
-0.36
-0.36
-0.355
-0.365
-0.37
-0.37
-0.385
-0.37
-0.38
-0.385
-0.38
-0.37
-0.37
-0.365
-0.375
-0.39
-0.38
-0.38
-0.36
-0.35
-0.35
-0.365
-0.35
-0.33
-0.34
-0.37
-0.365
-0.385
-0.38
-0.36
-0.35
-0.35
-0.355
-0.38
-0.395
-0.395
-0.375
-0.36
-0.38
-0.385
-0.375
-0.35
-0.335
-0.325
-0.33
-0.345
-0.34
-0.325
-0.315
-0.31
-0.32
-0.33
-0.335
-0.325
-0.32
-0.325
-0.345
-0.36
-0.37
-0.36
-0.345
-0.345
-0.34
-0.34
-0.345
-0.345
-0.345
-0.365
-0.38
-0.39
-0.36
-0.335
-0.315
-0.315
-0.325
-0.35
-0.335
-0.33
-0.305
-0.3
-0.29
-0.3
-0.31
-0.305
-0.315
-0.315
-0.335
-0.335
-0.32
-0.3
-0.285
-0.285
-0.285
-0.295
-0.3
-0.305
-0.3
-0.295
-0.32
-0.325
-0.31
-0.3
-0.285
-0.29
-0.29
-0.295
-0.295
-0.275
-0.29
-0.27
-0.295
-0.305
-0.295
-0.29
-0.285
-0.285
-0.31
-0.315
-0.3
-0.285
-0.27
-0.275
-0.28
-0.31
-0.315
-0.31
-0.29
-0.295
-0.3
-0.295
-0.285
-0.275
-0.27
-0.285
-0.285
-0.305
-0.315
-0.3
-0.29
-0.3
-0.285
-0.295
-0.29
-0.285
-0.285
-0.275
-0.28
-0.28
-0.29
-0.255
-0.245
-0.24
-0.245
-0.245
-0.265
-0.27
-0.275
-0.265
-0.265
-0.265
-0.245
-0.21
-0.18
-0.175
-0.185
-0.185
-0.175
-0.17
-0.145
-0.15
-0.155
-0.135
-0.13
-0.135
-0.15
-0.17
-0.17
-0.2
-0.21
-0.215
-0.23
-0.235
-0.24
-0.27
-0.275
-0.295
-0.285
-0.3
-0.325
-0.33
-0.35
-0.34
-0.33
-0.34
-0.34
-0.35
-0.34
-0.33
-0.32
-0.325
-0.315
-0.33
-0.335
-0.345
-0.335
-0.34
-0.355
-0.38
-0.37
-0.375
-0.35
-0.335
-0.345
-0.36
-0.36
-0.35
-0.35
-0.325
-0.325
-0.325
-0.32
-0.28
-0.255
-0.26
-0.275
-0.295
-0.29
-0.28
-0.265
-0.245
-0.255
-0.26
-0.265
-0.275
-0.28
-0.28
-0.265
-0.265
-0.25
-0.23
-0.205
-0.195
-0.215
-0.22
-0.225
-0.215
-0.24
-0.24
-0.245
-0.225
-0.21
-0.175
-0.135
-0.1
-0.095
-0.085
-0.08
-0.03
0.035
0.13
0.245
0.355
0.41
0.41
0.37
0.285
0.18
0.07
-0.02
-0.085
-0.125
-0.16
-0.19
-0.2
-0.205
-0.2
-0.19
-0.18
-0.18
-0.185
-0.175
-0.16
-0.145
-0.15
-0.16
-0.165
-0.165
-0.155
-0.145
-0.145
-0.145
-0.145
-0.145
-0.14
-0.12
-0.13
-0.135
-0.13
-0.13
-0.11
-0.115
-0.115
-0.115
-0.125
-0.12
-0.1
-0.075
-0.065
-0.07
-0.05
-0.07
-0.055
-0.045
-0.065
-0.08
-0.095
-0.09
-0.065
-0.055
-0.05
-0.04
-0.045
-0.025
-0.015
0.005
0.0
0.0
-0.01
-0.005
-0.005
0.005
-0.015
0.0
-0.01
0.0
0.015
0.015
0.045
0.05
0.045
0.045
0.055
0.055
0.04
0.045
0.025
0.035
0.055
0.06
0.07
0.08
0.07
0.07
0.07
0.075
0.07
0.065
0.05
0.055
0.04
0.045
0.035
0.005
-0.005
-0.01
-0.01
-0.005
-0.02
-0.035
-0.065
-0.085
-0.095
-0.11
-0.115
-0.135
-0.145
-0.16
-0.155
-0.155
-0.16
-0.185
-0.2
-0.215
-0.215
-0.215
-0.205
-0.235
-0.235
-0.255
-0.22
-0.2
-0.205
-0.22
-0.22
-0.225
-0.21
-0.195
-0.205
-0.225
-0.26
-0.27
-0.27
-0.25
-0.27
-0.275
-0.285
-0.295
-0.28
-0.275
-0.295
-0.31
-0.325
-0.315
-0.305
-0.27
-0.28
-0.285
-0.305
-0.32
-0.32
-0.33
-0.34
-0.34
-0.335
-0.35
-0.34
-0.33
-0.365
-0.36
-0.355
-0.35
-0.345
-0.33
-0.355
-0.37
-0.41
-0.445
-0.46
-0.46
-0.45
-0.445
-0.415
-0.37
-0.3
-0.185
-0.095
-0.02
0.06
0.13
0.26
0.38
0.545
0.72
0.875
1.035
1.19
1.35
1.46
1.575
1.67
1.755
1.835
1.935
1.98
1.995
1.995
1.93
1.83
1.655
1.42
1.14
0.85
0.57
0.32
0.105
-0.075
-0.22
-0.345
-0.465
-0.55
-0.62
-0.69
-0.715
-0.72
-0.735
-0.745
-0.75
-0.765
-0.77
-0.785
-0.785
-0.77
-0.765
-0.77
-0.8
-0.83
-0.85
-0.855
-0.835
-0.84
-0.845
-0.84
-0.845
-0.835
-0.825
-0.845
-0.855
-0.87
-0.885
-0.86
-0.87
-0.855
-0.86
-0.865
-0.87
-0.845
-0.855
-0.875
-0.88
-0.88
-0.89
-0.905
-0.895
-0.915
-0.925
-0.925
-0.94
-0.93
-0.91
-0.915
-0.915
-0.92
-0.94
-0.945
-0.91
-0.93
-0.935
-0.935
-0.96
-0.95
-0.95
-0.945
-0.95
-0.94
-0.945
-0.915
-0.905
-0.93
-0.935
-0.925
-0.925
-0.915
-0.9
-0.9
-0.865
-0.865
-0.875
-0.87
-0.855
-0.855
-0.865
-0.85
-0.83
-0.8
-0.755
-0.76
-0.765
-0.75
-0.75
-0.71
-0.695
-0.695
-0.675
-0.655
-0.65
-0.63
-0.605
-0.605
-0.6
-0.595
-0.585
-0.565
-0.54
-0.535
-0.53
-0.515
-0.515
-0.485
-0.475
-0.47
-0.46
-0.47
-0.47
-0.465
-0.44
-0.45
-0.44
-0.42
-0.415
-0.395
-0.395
-0.405
-0.42
-0.425
-0.42
-0.405
-0.385
-0.405
-0.39
-0.41
-0.43
-0.43
-0.425
-0.425
-0.425
-0.43
-0.425
-0.41
-0.4
-0.405
-0.395
-0.39
-0.395
-0.4
-0.415
-0.42
-0.405
-0.4
-0.39
-0.365
-0.37
-0.39
-0.42
-0.405
-0.425
-0.41
-0.37
-0.36
-0.355
-0.355
-0.38
-0.375
-0.385
-0.4
-0.41
-0.405
-0.4
-0.365
-0.36
-0.375
-0.39
-0.4
-0.4
-0.395
-0.38
-0.37
-0.355
-0.345
-0.34
-0.34
-0.355
-0.37
-0.375
-0.395
-0.39
-0.385
-0.375
-0.37
-0.37
-0.365
-0.365
-0.355
-0.34
-0.34
-0.35
-0.35
-0.365
-0.37
-0.37
-0.365
-0.38
-0.405
-0.415
-0.4
-0.355
-0.36
-0.345
-0.365
-0.375
-0.36
-0.355
-0.345
-0.34
-0.355
-0.355
-0.355
-0.35
-0.365
-0.37
-0.365
-0.38
-0.375
-0.36
-0.345
-0.365
-0.355
-0.375
-0.35
-0.345
-0.345
-0.345
-0.335
-0.36
-0.345
-0.35
-0.35
-0.355
-0.37
-0.355
-0.345
-0.335
-0.335
-0.35
-0.365
-0.4
-0.395
-0.365
-0.355
-0.35
-0.36
-0.36
-0.34
-0.335
-0.33
-0.35
-0.365
-0.395
-0.385
-0.355
-0.345
-0.325
-0.33
-0.33
-0.335
-0.335
-0.345
-0.35
-0.34
-0.34
-0.32
-0.32
-0.33
-0.33
-0.32
-0.32
-0.315
-0.335
-0.35
-0.35
-0.36
-0.36
-0.355
-0.345
-0.34
-0.325
-0.34
-0.345
-0.32
-0.3
-0.3
-0.28
-0.27
-0.265
-0.235
-0.22
-0.23
-0.215
-0.235
-0.24
-0.235
-0.205
-0.215
-0.205
-0.2
-0.215
-0.225
-0.225
-0.245
-0.255
-0.28
-0.29
-0.3
-0.305
-0.32
-0.345
-0.37
-0.37
-0.38
-0.385
-0.395
-0.4
-0.4
-0.405
-0.405
-0.385
-0.395
-0.415
-0.425
-0.435
-0.435
-0.41
-0.415
-0.42
-0.415
-0.435
-0.42
-0.425
-0.445
-0.46
-0.48
-0.485
-0.48
-0.46
-0.45
-0.445
-0.445
-0.42
-0.415
-0.42
-0.43
-0.445
-0.455
-0.43
-0.41
-0.36
-0.36
-0.365
-0.375
-0.395
-0.385
-0.375
-0.365
-0.375
-0.37
-0.345
-0.325
-0.31
-0.305
-0.31
-0.32
-0.33
-0.335
-0.35
-0.355
-0.365
-0.36
-0.34
-0.32
-0.315
-0.295
-0.285
-0.3
-0.315
-0.325
-0.31
-0.31
-0.32
-0.32
-0.35
-0.34
-0.34
-0.35
-0.37
-0.385
-0.38
-0.36
-0.35
-0.35
-0.345
-0.33
-0.335
-0.29
-0.26
-0.245
-0.23
-0.215
-0.2
-0.155
-0.08
0.035
0.16
0.285
0.385
0.435
0.41
0.37
0.33
0.23
0.125
0.05
0.0
-0.045
-0.11
-0.155
-0.195
-0.215
-0.205
-0.21
-0.23
-0.225
-0.225
-0.21
-0.205
-0.215
-0.225
-0.215
-0.19
-0.195
-0.17
-0.16
-0.16
-0.165
-0.175
-0.17
-0.15
-0.15
-0.15
-0.165
-0.165
-0.165
-0.135
-0.135
-0.13
-0.15
-0.13
-0.105
-0.09
-0.07
-0.075
-0.085
-0.09
-0.085
-0.08
-0.08
-0.075
-0.085
-0.08
-0.075
-0.04
-0.04
-0.035
-0.045
-0.045
-0.055
-0.065
-0.075
-0.085
-0.1
-0.105
-0.095
-0.08
-0.07
-0.055
-0.06
-0.04
-0.025
0.005
0.005
-0.025
-0.03
-0.04
-0.04
-0.04
-0.05
-0.02
-0.025
-0.005
0.015
0.02
0.03
0.025
0.03
0.035
0.045
0.065
0.06
0.06
0.075
0.08
0.085
0.095
0.095
0.09
0.08
0.075
0.095
0.1
0.115
0.105
0.11
0.1
0.1
0.09
0.065
0.055
0.03
0.03
0.055
0.105
0.1
0.125
0.13
0.12
0.135
0.145
0.14
0.125
0.12
0.12
0.125
0.125
0.125
0.115
0.115
0.1
0.08
0.075
0.065
0.045
0.04
0.035
0.035
0.05
0.05
0.025
0.01
-0.01
-0.01
-0.015
-0.035
-0.065
-0.105
-0.135
-0.13
-0.11
-0.11
-0.125
-0.14
-0.135
-0.16
-0.16
-0.18
-0.195
-0.2
-0.17
-0.145
-0.125
-0.125
-0.15
-0.175
-0.175
-0.17
-0.16
-0.175
-0.19
-0.215
-0.205
-0.205
-0.195
-0.18
-0.19
-0.215
-0.235
-0.23
-0.245
-0.25
-0.255
-0.275
-0.3
-0.285
-0.255
-0.245
-0.255
-0.25
-0.255
-0.245
-0.245
-0.265
-0.29
-0.315
-0.335
-0.325
-0.31
-0.305
-0.295
-0.275
-0.27
-0.275
-0.27
-0.275
-0.295
-0.31
-0.32
-0.32
-0.29
-0.275
-0.265
-0.28
-0.3
-0.34
-0.34
-0.38
-0.41
-0.435
-0.44
-0.415
-0.4
-0.355
-0.315
-0.25
-0.16
-0.065
0.045
0.14
0.235
0.325
0.475
0.645
0.83
0.98
1.1
1.205
1.305
1.43
1.535
1.62
1.715
1.785
1.87
1.935
2.01
2.045
2.08
2.06
2.02
1.935
1.795
1.635
1.43
1.175
0.905
0.65
0.405
0.19
0.015
-0.14
-0.26
-0.39
-0.495
-0.57
-0.61
-0.65
-0.655
-0.655
-0.645
-0.635
-0.65
-0.665
-0.68
-0.685
-0.715
-0.73
-0.745
-0.76
-0.76
-0.75
-0.75
-0.75
-0.76
-0.765
-0.775
-0.785
-0.795
-0.805
-0.82
-0.82
-0.825
-0.835
-0.82
-0.835
-0.835
-0.83
-0.82
-0.815
-0.815
-0.82
-0.83
-0.85
-0.865
-0.855
-0.83
-0.85
-0.865
-0.88
-0.905
-0.895
-0.88
-0.86
-0.85
-0.845
-0.875
-0.865
-0.87
-0.89
-0.895
-0.895
-0.905
-0.89
-0.875
-0.855
-0.86
-0.88
-0.885
-0.895
-0.895
-0.89
-0.895
-0.885
-0.89
-0.855
-0.845
-0.825
-0.82
-0.82
-0.84
-0.835
-0.845
-0.835
-0.815
-0.775
-0.77
-0.75
-0.74
-0.74
-0.745
-0.745
-0.735
-0.71
-0.685
-0.665
-0.655
-0.65
-0.63
-0.605
-0.575
-0.58
-0.57
-0.57
-0.575
-0.54
-0.515
-0.495
-0.475
-0.485
-0.48
-0.485
-0.475
-0.46
-0.44
-0.425
-0.42
-0.395
-0.385
-0.395
-0.4
-0.425
-0.42
-0.405
-0.4
-0.385
-0.385
-0.39
-0.39
-0.38
-0.375
-0.38
-0.405
-0.42
-0.42
-0.405
-0.385
-0.375
-0.385
-0.39
-0.39
-0.37
-0.355
-0.365
-0.36
-0.37
-0.37
-0.345
-0.335
-0.355
-0.37
-0.38
-0.38
-0.375
-0.35
-0.335
-0.355
-0.35
-0.35
-0.325
-0.315
-0.31
-0.32
-0.34
-0.345
-0.355
-0.36
-0.35
-0.36
-0.38
-0.38
-0.37
-0.345
-0.34
-0.355
-0.365
-0.355
-0.35
-0.335
-0.355
-0.345
-0.36
-0.37
-0.365
-0.34
-0.32
-0.33
-0.34
-0.35
-0.35
-0.35
-0.35
-0.345
-0.35
-0.345
-0.34
-0.34
-0.335
-0.325
-0.35
-0.365
-0.365
-0.355
-0.35
-0.35
-0.36
-0.36
-0.35
-0.345
-0.33
-0.335
-0.34
-0.36
-0.36
-0.36
-0.375
-0.34
