Lead II
0.1
0.13
0.045
-0.03
-0.06
-0.04
-0.04
0.0
0.065
0.13
0.145
0.065
-0.03
-0.13
-0.185
-0.145
-0.015
0.175
0.325
0.37
0.305
0.21
0.125
0.04
-0.08
-0.23
-0.305
-0.225
-0.085
-0.03
-0.08
-0.15
-0.205
-0.18
-0.165
-0.105
-0.025
0.02
-0.04
-0.14
-0.305
-0.36
-0.285
-0.16
-0.13
-0.125
-0.105
-0.155
-0.245
-0.325
-0.365
-0.31
-0.225
-0.125
0.015
0.08
0.0
-0.075
-0.08
-0.05
0.0
0.045
0.07
0.03
-0.08
-0.23
-0.315
-0.3
-0.205
-0.135
-0.09
-0.055
0.005
0.03
0.03
0.045
0.075
0.175
0.375
0.655
0.945
1.13
1.12
1.0
0.86
0.835
0.9
0.925
0.755
0.435
0.03
-0.355
-0.57
-0.505
-0.21
0.105
0.16
-0.025
-0.285
-0.43
-0.47
-0.49
-0.485
-0.455
-0.415
-0.37
-0.29
-0.155
0.015
0.12
0.1
-0.07
-0.29
-0.435
-0.45
-0.33
-0.145
-0.01
0.025
0.005
-0.055
-0.085
-0.035
0.005
-0.035
-0.155
-0.225
-0.13
0.12
0.41
0.495
0.21
-0.24
-0.47
-0.38
-0.175
-0.19
-0.345
-0.43
-0.35
-0.205
-0.11
-0.08
-0.09
-0.12
-0.14
-0.155
-0.155
-0.145
-0.135
-0.135
-0.13
-0.135
-0.145
-0.16
-0.155
-0.135
-0.13
-0.125
-0.12
-0.125
-0.135
-0.13
-0.135
-0.145
-0.13
-0.115
-0.105
-0.115
-0.11
-0.105
-0.1
-0.105
-0.125
-0.135
-0.14
-0.16
-0.16
-0.14
-0.13
-0.125
-0.115
-0.08
-0.035
-0.01
-0.035
-0.065
-0.1
-0.14
-0.17
-0.24
-0.295
-0.305
-0.26
-0.215
-0.19
-0.175
-0.155
-0.145
-0.16
-0.19
-0.16
-0.15
-0.135
-0.145
-0.19
-0.23
-0.265
-0.275
-0.275
-0.245
-0.215
-0.2
-0.18
-0.135
-0.11
-0.115
-0.185
-0.23
-0.225
-0.185
-0.15
-0.11
-0.09
-0.17
-0.285
-0.38
-0.38
-0.305
-0.245
-0.265
-0.25
-0.24
-0.255
-0.29
-0.315
-0.32
-0.315
-0.28
-0.215
-0.12
-0.065
-0.075
-0.1
-0.1
-0.05
0.035
0.125
0.18
0.245
0.24
0.24
0.245
0.2
0.115
0.0
-0.12
-0.31
-0.645
-1.08
-1.505
-1.77
-1.855
-1.845
-1.83
-1.875
-1.94
-1.98
-1.895
-1.74
-1.595
-1.5
-1.435
-1.285
-1.08
-0.83
-0.66
-0.635
-0.75
-0.88
-0.88
-0.685
-0.44
-0.295
-0.265
-0.3
-0.315
-0.27
-0.205
-0.14
-0.05
0.075
0.265
0.465
0.645
0.74
0.765
0.735
0.715
0.735
0.78
0.785
0.72
0.62
0.55
0.565
0.625
0.66
0.69
0.735
0.77
0.71
0.6
0.48
0.445
0.525
0.7
0.8
0.815
0.745
0.695
0.72
0.845
0.965
1.0
0.93
0.82
0.75
0.775
0.885
0.98
0.985
0.895
0.76
0.745
0.875
1.05
1.135
1.08
0.935
0.785
0.71
0.665
0.65
0.735
0.95
1.23
1.36
1.19
0.77
0.34
0.12
0.18
0.425
0.765
1.06
1.305
1.315
1.0
0.54
0.21
0.12
0.17
0.22
0.245
0.305
0.385
0.405
0.35
0.32
0.27
0.235
0.275
0.38
0.5
0.635
0.8
0.805
0.44
-0.165
-0.745
-1.055
-1.02
-0.66
-0.215
0.115
0.19
-0.03
-0.31
-0.58
-0.725
-0.705
-0.555
-0.365
-0.275
-0.36
-0.585
-0.79
-0.82
-0.63
-0.45
-0.355
-0.375
-0.455
-0.46
-0.325
-0.05
0.25
0.46
0.53
0.44
0.28
0.115
0.08
0.175
0.305
0.355
0.34
0.28
0.26
0.265
0.215
0.155
0.08
-0.03
-0.095
-0.025
0.09
0.125
0.055
-0.03
-0.04
0.075
0.165
0.185
0.23
0.31
0.38
0.295
0.06
-0.145
-0.19
-0.085
0.03
0.035
-0.04
-0.06
0.06
0.19
0.24
0.16
0.04
-0.04
0.01
0.08
0.14
0.225
0.28
0.245
0.08
-0.08
-0.07
0.08
0.08
-0.115
-0.24
-0.16
-0.01
0.01
0.02
0.025
0.03
0.0
-0.025
-0.045
-0.07
-0.08
-0.08
-0.05
-0.025
0.005
0.07
0.175
0.19
-0.025
-0.35
-0.48
-0.375
-0.225
-0.135
-0.105
-0.085
-0.11
-0.145
-0.185
-0.26
-0.315
-0.325
-0.275
-0.25
-0.235
-0.235
-0.25
-0.26
-0.3
-0.295
-0.3
-0.275
-0.245
-0.235
-0.255
-0.285
-0.315
-0.285
-0.235
-0.2
-0.21
-0.24
-0.265
-0.22
-0.165
-0.18
-0.235
-0.28
-0.25
-0.155
-0.08
-0.02
0.04
0.045
0.065
0.165
0.395
0.655
0.83
0.87
0.81
0.725
0.665
0.5
0.16
-0.2
-0.42
-0.495
-0.44
-0.31
-0.18
-0.11
-0.135
-0.255
-0.425
-0.54
-0.565
-0.48
-0.365
-0.31
-0.355
-0.455
-0.525
-0.535
-0.505
-0.49
-0.475
-0.42
-0.32
-0.24
-0.215
-0.235
-0.265
-0.24
-0.14
0.0
0.12
0.15
0.05
-0.11
-0.235
-0.175
0.015
0.155
0.03
-0.245
-0.45
-0.44
-0.25
-0.045
0.06
0.055
-0.005
-0.025
0.105
0.31
0.5
0.575
0.575
0.53
0.465
0.385
0.375
0.445
0.58
0.59
0.475
0.475
0.58
0.615
0.475
0.195
-0.075
-0.21
-0.155
0.04
0.275
0.325
0.205
0.03
-0.065
-0.085
-0.065
-0.035
0.065
0.255
0.37
0.315
0.115
-0.13
-0.245
-0.175
0.02
0.205
0.305
0.3
0.28
0.27
0.315
0.34
0.165
-0.135
-0.37
-0.35
-0.06
0.355
0.61
0.51
0.18
-0.17
-0.32
-0.255
-0.035
0.175
0.25
0.18
-0.045
-0.28
-0.39
-0.35
-0.225
-0.125
-0.095
-0.065
0.01
0.09
0.09
0.035
0.045
0.165
0.3
0.2
-0.11
-0.35
-0.34
-0.205
-0.06
0.075
0.11
0.0
-0.21
-0.365
-0.295
-0.085
-0.03
-0.225
-0.525
-0.68
-0.585
-0.4
-0.43
-0.675
-0.89
-0.87
-0.65
-0.43
-0.36
-0.37
-0.395
-0.36
-0.305
-0.27
-0.225
-0.255
-0.35
-0.475
-0.75
-1.19
-1.68
-2.03
-2.195
-2.215
-2.23
-2.245
-2.265
-2.27
-2.23
-2.175
-2.065
-1.91
-1.795
-1.8
-1.86
-1.87
-1.68
-1.345
-0.985
-0.735
-0.52
-0.375
-0.31
-0.34
-0.41
-0.44
-0.385
-0.335
-0.245
-0.16
-0.085
-0.005
0.01
-0.035
-0.08
-0.07
0.04
0.165
0.265
0.325
0.375
0.415
0.455
0.46
0.465
0.45
0.45
0.48
0.545
0.63
0.7
0.725
0.69
0.645
0.645
0.715
0.815
0.86
0.795
0.655
0.525
0.515
0.58
0.675
0.735
0.795
0.8
0.76
0.75
0.77
0.76
0.765
0.795
0.825
0.805
0.78
0.78
0.825
0.865
0.87
0.87
0.865
0.85
0.835
0.825
0.835
0.825
0.795
0.77
0.78
0.79
0.785
0.765
0.735
0.725
0.695
0.69
0.675
0.645
0.6
0.59
0.545
0.5
0.48
0.485
0.475
0.44
0.395
0.365
0.34
0.295
0.23
0.18
0.17
0.19
0.22
0.235
0.245
0.195
0.115
0.05
0.035
0.075
0.16
0.265
0.295
0.215
0.04
-0.13
-0.235
-0.205
-0.16
-0.145
-0.135
-0.145
-0.14
-0.135
-0.14
-0.15
-0.15
-0.15
-0.17
-0.21
-0.24
-0.235
-0.225
-0.25
-0.255
-0.255
-0.255
-0.255
-0.24
-0.22
-0.13
0.02
0.115
0.055
-0.135
-0.355
-0.505
-0.525
-0.445
-0.32
-0.23
-0.15
-0.06
0.005
-0.025
-0.13
-0.23
-0.32
-0.35
-0.31
-0.24
-0.21
-0.18
-0.185
-0.195
-0.215
-0.2
-0.165
-0.135
-0.155
-0.155
-0.165
-0.16
-0.155
-0.14
-0.13
-0.145
-0.145
-0.16
-0.16
-0.135
-0.08
0.0
0.065
0.075
0.015
-0.055
-0.095
-0.135
-0.175
-0.22
-0.23
-0.235
-0.22
-0.215
-0.24
-0.285
-0.305
-0.3
-0.29
-0.275
-0.25
-0.225
-0.23
-0.22
-0.2
-0.19
-0.19
-0.195
-0.185
-0.155
-0.14
-0.14
-0.14
-0.125
-0.105
-0.075
-0.06
-0.05
-0.035
-0.03
0.0
0.05
0.12
0.135
0.11
0.065
0.015
-0.035
-0.04
-0.015
0.03
0.055
0.095
0.155
0.175
0.145
0.08
0.005
-0.02
-0.02
0.02
0.09
0.135
0.145
0.145
0.155
0.165
0.185
0.185
0.165
0.135
0.12
0.11
0.09
0.045
0.045
0.075
0.105
0.105
0.075
0.06
0.075
0.06
0.06
0.07
0.085
0.105
0.12
0.13
0.135
0.14
0.145
0.14
0.12
0.11
0.145
0.155
0.165
0.14
0.11
0.085
0.105
0.12
0.12
0.135
0.125
0.14
0.145
0.145
0.165
0.19
0.185
0.155
0.135
0.14
0.125
0.12
0.11
0.12
0.155
0.16
0.155
0.165
0.145
0.125
0.105
0.105
0.14
0.19
0.27
0.36
0.45
0.54
0.62
0.715
0.8
0.875
0.985
1.08
1.165
1.215
1.21
1.185
1.155
1.075
0.91
0.595
0.225
-0.045
-0.18
-0.25
-0.29
-0.31
-0.285
-0.235
-0.195
-0.16
-0.145
-0.14
-0.135
-0.115
-0.105
-0.095
-0.1
-0.11
-0.115
-0.135
-0.145
-0.15
-0.135
-0.125
-0.115
-0.115
-0.105
-0.095
-0.09
-0.085
-0.075
-0.085
-0.075
-0.085
-0.1
-0.115
-0.135
-0.14
-0.115
-0.1
-0.095
-0.085
-0.09
-0.095
-0.09
-0.095
-0.125
-0.15
-0.175
-0.155
-0.095
-0.05
-0.025
-0.02
-0.015
-0.025
-0.03
-0.045
-0.05
-0.025
-0.01
-0.005
-0.005
-0.01
-0.01
-0.005
-0.03
-0.03
-0.025
-0.01
0.0
0.0
-0.005
-0.015
-0.005
-0.01
0.005
-0.01
-0.015
-0.03
-0.02
0.015
0.095
0.18
0.255
0.245
0.16
0.055
-0.045
-0.105
-0.16
-0.21
-0.24
-0.235
-0.21
-0.185
-0.165
-0.145
-0.12
-0.08
-0.045
-0.05
-0.035
-0.055
-0.04
-0.01
0.005
0.0
-0.02
-0.025
-0.035
-0.005
0.005
0.0
0.015
0.01
0.03
0.025
0.04
0.035
0.07
0.08
0.115
0.13
0.135
0.145
0.13
0.13
0.135
0.135
0.115
0.115
0.095
0.075
0.075
0.085
0.11
0.105
0.075
0.05
0.05
0.055
0.07
0.08
0.075
0.085
0.095
0.105
0.12
0.1
0.09
0.085
0.095
0.1
0.1
0.08
0.06
0.06
0.075
0.095
0.1
0.105
0.105
0.095
0.13
0.18
0.26
0.27
0.225
0.155
0.095
0.07
0.045
0.045
0.065
0.11
0.17
0.16
0.13
0.095
0.095
0.13
0.185
0.22
0.255
0.275
0.32
0.37
0.43
0.445
0.4
0.265
-0.025
-0.455
-0.95
-1.435
-1.835
-2.065
-2.115
-2.11
-2.125
-2.145
-2.155
-2.13
-2.1
-2.035
-1.905
-1.77
-1.675
-1.655
-1.625
-1.51
-1.29
-1.05
-0.89
-0.77
-0.66
-0.55
-0.435
-0.305
-0.23
-0.195
-0.215
-0.285
-0.375
-0.44
-0.405
-0.31
-0.175
-0.03
0.135
0.34
0.495
0.57
0.57
0.48
0.35
0.235
0.23
0.35
0.54
0.735
0.865
0.9
0.825
0.7
0.575
0.505
0.53
0.605
0.66
0.655
0.56
0.46
0.46
0.525
0.6
0.685
0.725
0.755
0.79
0.805
0.805
0.755
0.72
0.75
0.84
0.9
0.95
0.95
0.975
1.005
1.025
1.05
1.075
1.05
0.965
0.895
0.9
0.945
0.965
1.005
1.025
1.025
0.99
0.905
0.84
0.82
0.835
0.87
0.92
0.93
0.925
0.935
0.95
0.97
0.975
0.935
0.865
0.805
0.76
0.75
0.785
0.84
0.905
0.905
0.805
0.59
0.44
0.39
0.415
0.455
0.465
0.47
0.49
0.455
0.395
0.365
0.385
0.43
0.445
0.4
0.27
0.11
0.01
0.02
0.105
0.205
0.27
0.28
0.26
0.22
0.185
0.17
0.21
0.295
0.34
0.31
0.22
0.145
0.125
0.13
0.05
-0.08
-0.185
-0.22
-0.19
-0.09
0.035
0.145
0.21
0.215
0.175
0.085
0.005
-0.065
-0.105
-0.12
-0.12
-0.095
-0.045
0.025
0.12
0.17
0.135
0.015
-0.12
-0.195
-0.18
-0.11
-0.04
0.02
0.115
0.18
0.15
0.03
-0.08
-0.19
-0.215
-0.125
0.07
0.235
0.23
0.085
-0.095
-0.19
-0.19
-0.195
-0.205
-0.22
-0.235
-0.265
-0.255
-0.265
-0.255
-0.245
-0.225
-0.18
-0.15
-0.125
-0.115
-0.115
-0.12
-0.135
-0.125
-0.125
-0.125
-0.135
-0.13
-0.13
-0.1
-0.105
-0.105
-0.105
-0.12
-0.14
-0.13
-0.15
-0.145
-0.14
-0.135
-0.135
-0.125
-0.12
-0.125
-0.095
-0.035
0.025
0.07
0.085
0.04
-0.04
-0.14
-0.23
-0.255
-0.235
-0.175
-0.11
-0.04
0.015
0.03
0.015
-0.04
-0.11
-0.175
-0.21
-0.235
-0.25
-0.28
-0.255
-0.21
-0.175
-0.14
-0.12
-0.095
-0.07
-0.08
-0.085
-0.085
-0.075
-0.085
-0.095
-0.11
-0.135
-0.125
-0.08
0.025
0.095
0.115
0.065
-0.01
-0.09
-0.165
-0.195
-0.13
0.005
0.095
0.015
-0.165
-0.33
-0.435
-0.445
-0.39
-0.315
-0.29
-0.27
-0.26
-0.22
-0.19
-0.18
-0.195
-0.205
-0.22
-0.225
-0.19
-0.15
-0.155
-0.175
-0.19
-0.2
-0.195
-0.18
-0.19
-0.185
-0.175
-0.175
-0.17
-0.175
-0.16
-0.145
-0.17
-0.165
-0.175
-0.18
-0.2
-0.215
-0.22
-0.195
-0.155
-0.075
-0.015
0.06
0.14
0.215
0.31
0.395
0.465
0.555
0.64
0.75
0.86
0.95
0.96
0.92
0.83
0.715
0.605
0.425
0.195
-0.055
-0.25
-0.385
-0.465
-0.475
-0.445
-0.4
-0.375
-0.38
-0.375
-0.36
-0.325
-0.29
-0.265
-0.285
-0.315
-0.32
-0.31
-0.295
-0.275
-0.275
-0.275
-0.28
-0.27
-0.265
-0.27
-0.27
-0.26
-0.245
-0.255
-0.255
-0.245
-0.235
-0.215
-0.215
-0.255
-0.265
-0.27
-0.28
-0.265
-0.235
-0.21
-0.21
-0.215
-0.22
-0.205
-0.19
-0.155
-0.125
-0.125
-0.16
-0.215
-0.25
-0.265
-0.27
-0.26
-0.265
-0.27
-0.26
-0.255
-0.25
-0.23
-0.22
-0.215
-0.21
-0.225
-0.21
-0.22
-0.21
-0.21
-0.225
-0.21
-0.185
-0.195
-0.21
-0.215
-0.22
-0.2
-0.18
-0.185
-0.185
-0.175
-0.17
-0.165
-0.17
-0.17
-0.175
-0.165
-0.15
-0.145
-0.125
-0.13
-0.13
-0.14
-0.13
-0.13
-0.125
-0.14
-0.13
-0.12
-0.12
-0.145
-0.135
-0.135
-0.135
-0.13
-0.14
-0.155
-0.15
-0.135
-0.135
-0.12
-0.125
-0.15
-0.15
-0.165
-0.175
-0.185
-0.165
-0.18
-0.17
-0.15
-0.14
-0.13
-0.15
-0.155
-0.175
-0.185
-0.185
-0.17
-0.17
-0.19
-0.19
-0.19
-0.19
-0.19
-0.2
-0.215
-0.225
-0.225
-0.23
-0.205
-0.21
-0.195
-0.18
-0.195
-0.21
-0.19
-0.165
-0.135
-0.12
-0.11
-0.14
-0.16
-0.15
-0.13
-0.115
-0.095
-0.075
-0.055
-0.03
-0.02
-0.02
0.005
0.01
0.045
0.09
0.175
0.21
0.19
0.125
0.11
0.085
0.025
-0.125
-0.405
-0.835
-1.25
-1.53
-1.72
-1.835
-1.905
-1.965
-1.985
-1.97
-1.93
-1.92
-1.905
-1.85
-1.705
-1.545
-1.42
-1.355
-1.315
-1.265
-1.17
-1.075
-1.0
-0.95
-0.905
-0.86
-0.78
-0.725
-0.685
-0.62
-0.56
-0.525
-0.495
-0.485
-0.49
-0.48
-0.47
-0.44
-0.385
-0.325
-0.265
-0.2
-0.15
-0.105
-0.045
0.01
0.065
0.085
0.09
0.105
0.135
0.145
0.14
0.155
0.135
0.155
0.17
0.225
0.25
0.26
0.26
0.27
0.275
0.265
0.27
0.31
0.335
0.34
0.365
0.365
0.39
0.39
0.385
0.38
0.4
0.41
0.445
0.455
0.46
0.46
0.475
0.49
0.51
0.5
0.5
0.515
0.505
0.54
0.555
0.545
0.56
0.555
0.545
0.55
0.575
0.565
0.555
0.53
0.525
0.52
0.51
0.495
0.475
0.47
0.47
0.465
0.485
0.495
0.465
0.42
0.38
0.37
0.355
0.325
0.28
0.215
0.185
0.175
0.195
0.205
0.19
0.175
0.125
0.075
0.055
0.04
0.03
0.04
0.02
-0.015
-0.045
-0.075
-0.085
-0.075
-0.06
-0.055
-0.06
-0.08
-0.11
-0.11
-0.08
-0.04
-0.005
-0.02
-0.075
-0.125
-0.155
-0.155
-0.155
-0.145
-0.145
-0.15
-0.12
-0.08
-0.085
-0.125
-0.18
-0.225
-0.23
-0.185
-0.155
-0.155
-0.18
-0.225
-0.215
-0.205
-0.185
-0.19
-0.165
-0.145
-0.115
-0.115
-0.14
-0.17
-0.2
-0.2
-0.195
-0.16
-0.105
-0.055
-0.04
-0.105
-0.18
-0.255
-0.255
-0.265
-0.27
-0.27
-0.24
-0.21
-0.2
-0.175
-0.17
-0.195
-0.215
-0.22
-0.195
-0.145
-0.135
-0.155
-0.185
-0.21
-0.225
-0.24
-0.26
-0.245
-0.215
-0.185
-0.16
-0.145
-0.13
-0.155
-0.185
-0.23
-0.24
-0.24
-0.235
-0.205
-0.205
-0.185
-0.17
-0.1
-0.105
-0.155
-0.245
-0.29
-0.28
-0.23
-0.195
-0.175
-0.15
-0.13
-0.135
-0.145
-0.15
-0.13
-0.1
-0.09
-0.085
-0.09
-0.105
-0.12
-0.115
-0.09
-0.095
-0.13
-0.115
-0.065
-0.015
-0.015
-0.105
-0.23
-0.32
-0.36
-0.31
-0.235
-0.17
-0.14
-0.125
-0.13
-0.145
-0.14
-0.165
-0.185
-0.215
-0.24
-0.24
-0.23
-0.205
-0.17
-0.17
-0.18
-0.165
-0.13
-0.105
-0.115
-0.13
-0.155
-0.14
-0.09
-0.065
-0.055
-0.1
-0.17
-0.285
-0.36
-0.35
-0.305
-0.245
-0.185
-0.105
-0.03
0.005
-0.005
-0.055
-0.11
-0.135
-0.06
0.095
0.225
0.345
0.48
0.64
0.805
0.95
1.03
1.03
1.005
1.015
1.015
0.925
0.665
0.285
-0.05
-0.28
-0.43
-0.49
-0.46
-0.4
-0.385
-0.435
-0.485
-0.5
-0.43
-0.325
-0.245
-0.23
-0.26
-0.31
-0.34
-0.33
-0.315
-0.33
-0.33
-0.325
-0.3
-0.31
-0.325
-0.34
-0.335
-0.31
-0.265
-0.19
-0.135
-0.12
-0.145
-0.135
-0.125
-0.16
-0.265
-0.315
-0.315
-0.28
-0.25
-0.26
-0.285
-0.325
-0.345
-0.36
-0.325
-0.28
-0.25
-0.195
-0.115
-0.05
-0.025
-0.1
-0.24
-0.33
-0.37
-0.38
-0.375
-0.35
-0.29
-0.21
-0.185
-0.22
-0.23
-0.265
-0.28
-0.255
-0.23
-0.2
-0.15
-0.13
-0.14
-0.155
-0.165
-0.145
-0.125
-0.125
-0.155
-0.175
-0.24
-0.27
-0.26
-0.215
-0.19
-0.21
-0.25
-0.275
-0.28
-0.255
-0.17
-0.07
-0.02
0.005
-0.03
-0.08
-0.14
-0.21
-0.27
-0.3
-0.265
-0.195
-0.145
-0.115
-0.115
-0.11
-0.12
-0.12
-0.11
-0.08
-0.075
-0.075
-0.075
-0.08
-0.075
-0.075
-0.06
-0.045
-0.06
-0.075
-0.105
-0.1
-0.08
-0.08
-0.07
-0.07
-0.08
-0.07
-0.085
-0.075
-0.06
-0.085
-0.085
-0.07
-0.065
-0.06
-0.08
-0.12
-0.15
-0.16
-0.17
-0.165
-0.18
-0.175
-0.17
-0.16
-0.165
-0.16
-0.145
-0.155
-0.18
-0.185
-0.19
-0.18
-0.165
-0.165
-0.16
-0.14
-0.135
-0.115
-0.09
-0.08
-0.075
-0.055
-0.035
-0.01
0.005
0.02
0.03
0.02
0.01
-0.04
-0.07
-0.095
-0.125
-0.165
-0.225
-0.35
-0.53
-0.84
-1.205
-1.555
-1.88
-2.14
-2.29
-2.315
-2.295
-2.275
-2.255
-2.195
-2.125
-2.015
-1.88
-1.73
-1.62
-1.485
-1.345
-1.225
-1.105
-1.035
-0.975
-0.905
-0.83
-0.74
-0.695
-0.655
-0.625
-0.58
-0.51
-0.375
-0.225
-0.1
-0.055
-0.07
-0.13
-0.245
-0.32
-0.265
-0.1
0.05
0.12
0.14
0.165
0.21
0.245
0.265
0.275
0.27
0.27
0.28
0.305
0.345
0.355
0.365
0.37
0.4
0.43
0.45
0.485
0.5
0.495
0.51
0.52
0.53
0.53
0.535
0.57
0.595
0.61
0.635
0.64
0.64
0.705
0.815
0.87
0.81
0.66
0.51
0.45
0.46
0.51
0.56
0.58
0.575
0.545
0.54
0.565
0.57
0.555
0.515
0.47
0.43
0.385
0.335
0.33
0.325
0.325
0.31
0.29
0.255
0.195
0.175
0.16
0.165
0.15
0.125
0.105
0.105
0.105
0.095
0.105
0.115
0.1
0.015
-0.115
-0.235
-0.27
-0.22
-0.185
-0.19
-0.21
-0.205
-0.215
-0.22
-0.245
-0.255
-0.265
-0.24
-0.25
-0.235
-0.215
-0.195
-0.205
-0.19
-0.21
-0.225
-0.255
-0.3
-0.32
-0.3
-0.24
-0.215
-0.21
-0.2
-0.175
-0.145
-0.11
-0.13
-0.21
-0.29
-0.33
-0.315
-0.255
-0.23
-0.245
-0.285
-0.335
-0.355
-0.345
-0.335
-0.32
-0.33
-0.34
-0.32
-0.305
-0.27
-0.255
-0.24
-0.255
-0.26
-0.265
-0.275
-0.255
-0.26
-0.26
-0.25
-0.245
-0.25
-0.24
-0.23
-0.22
-0.215
-0.21
-0.215
-0.21
-0.225
-0.24
-0.23
-0.195
-0.19
-0.21
-0.21
-0.205
-0.19
-0.185
-0.17
-0.155
-0.16
-0.175
-0.155
-0.14
-0.13
-0.145
-0.17
-0.19
-0.16
-0.125
-0.12
-0.13
-0.155
-0.185
-0.175
-0.16
-0.15
-0.14
-0.145
-0.17
-0.165
-0.165
-0.16
-0.145
-0.14
-0.135
-0.12
-0.105
-0.1
-0.08
-0.08
-0.09
-0.12
-0.125
-0.14
-0.13
-0.15
-0.155
-0.155
-0.155
-0.165
-0.17
-0.165
-0.165
-0.155
-0.145
-0.125
-0.11
-0.11
-0.105
-0.095
-0.105
-0.125
-0.145
-0.15
-0.15
-0.125
-0.09
-0.07
-0.07
-0.075
-0.095
-0.095
-0.08
-0.105
-0.13
-0.145
-0.13
-0.1
-0.1
-0.1
-0.12
-0.14
-0.1
-0.085
-0.085
-0.1
-0.105
-0.11
-0.105
-0.06
-0.025
-0.015
-0.025
-0.055
-0.08
-0.1
-0.09
-0.07
-0.025
0.055
0.135
0.24
0.37
0.46
0.52
0.585
0.665
0.77
0.89
1.03
1.135
1.18
1.135
1.055
0.95
0.79
0.495
0.14
-0.1
-0.215
-0.26
-0.3
-0.355
-0.41
-0.455
-0.485
-0.485
-0.46
-0.43
-0.36
-0.285
-0.255
-0.245
-0.255
-0.255
-0.26
-0.27
-0.26
-0.25
-0.225
-0.215
-0.215
-0.225
-0.215
-0.205
-0.195
-0.195
-0.23
-0.25
-0.215
-0.165
-0.16
-0.165
-0.195
-0.23
-0.22
-0.205
-0.215
-0.23
-0.25
-0.285
-0.3
-0.28
-0.245
-0.24
-0.25
-0.255
-0.25
-0.23
-0.215
-0.21
-0.21
-0.18
-0.15
-0.155
-0.17
-0.175
-0.24
-0.3
-0.34
-0.355
-0.34
-0.35
-0.36
-0.335
-0.295
-0.285
-0.3
-0.335
-0.35
-0.355
-0.365
-0.42
-0.455
-0.455
-0.455
-0.49
-0.52
-0.5
-0.46
-0.41
-0.385
-0.415
-0.41
-0.375
-0.345
-0.385
-0.455
-0.515
-0.54
-0.52
-0.465
-0.43
-0.43
-0.475
-0.515
-0.525
-0.51
-0.48
-0.48
-0.46
-0.4
-0.36
-0.35
-0.375
-0.385
-0.41
-0.425
-0.435
-0.43
-0.435
-0.45
-0.425
-0.36
-0.32
-0.275
-0.265
-0.3
-0.355
-0.36
-0.345
-0.305
-0.26
-0.24
-0.275
-0.315
-0.305
-0.255
-0.24
-0.27
-0.295
-0.285
-0.285
-0.285
-0.305
-0.355
-0.395
-0.385
-0.33
-0.32
-0.33
-0.345
-0.36
-0.36
-0.335
-0.34
-0.34
-0.345
-0.325
-0.315
-0.295
-0.31
-0.315
-0.31
-0.29
-0.275
-0.255
-0.185
-0.145
-0.15
-0.175
-0.19
-0.16
-0.145
-0.09
-0.06
-0.085
-0.115
-0.15
-0.135
-0.12
-0.105
-0.105
-0.09
-0.11
-0.145
-0.185
-0.195
-0.175
-0.15
-0.13
-0.11
-0.125
-0.16
-0.21
-0.225
-0.235
-0.215
-0.16
-0.115
-0.09
-0.095
-0.115
-0.13
-0.145
-0.16
-0.155
-0.15
-0.16
-0.17
-0.14
-0.14
-0.16
-0.17
-0.145
-0.11
-0.085
-0.095
-0.115
-0.125
-0.135
-0.12
-0.08
-0.07
-0.09
-0.095
-0.085
-0.085
-0.11
-0.145
-0.18
-0.15
-0.055
0.085
0.205
0.295
0.41
0.53
0.645
0.72
0.82
0.935
1.06
1.2
1.27
1.25
1.145
0.99
0.75
0.37
-0.03
-0.285
-0.395
-0.445
-0.475
-0.45
-0.39
-0.32
-0.285
-0.29
-0.32
-0.33
-0.365
-0.405
-0.425
-0.395
-0.34
-0.285
-0.24
-0.22
-0.24
-0.265
-0.245
-0.2
-0.17
-0.165
-0.165
-0.19
-0.235
-0.27
-0.3
-0.285
-0.25
-0.215
-0.195
-0.2
-0.205
-0.19
-0.175
-0.18
-0.225
-0.25
-0.25
-0.215
-0.195
-0.185
-0.2
-0.21
-0.215
-0.215
-0.235
-0.22
-0.215
-0.205
-0.2
-0.225
-0.23
-0.24
-0.23
-0.185
-0.155
-0.15
-0.175
-0.19
-0.195
-0.165
-0.15
-0.135
-0.105
-0.105
-0.105
-0.09
-0.09
-0.105
-0.13
-0.145
-0.15
-0.105
-0.085
-0.095
-0.115
-0.13
-0.125
-0.065
-0.02
0.005
0.01
-0.015
-0.04
-0.04
-0.025
-0.02
-0.01
-0.025
-0.015
-0.02
-0.02
-0.03
-0.005
-0.01
-0.025
-0.04
-0.045
-0.06
-0.065
-0.075
-0.075
-0.09
-0.065
-0.06
-0.05
-0.08
-0.075
-0.085
-0.12
-0.12
-0.1
-0.11
-0.115
-0.115
-0.115
-0.105
-0.135
-0.155
-0.17
-0.165
-0.18
-0.175
-0.175
-0.16
-0.145
-0.125
-0.14
-0.165
-0.2
-0.21
-0.21
-0.195
-0.185
-0.195
-0.21
-0.21
-0.215
-0.21
-0.2
-0.205
-0.215
-0.215
-0.23
-0.225
-0.22
-0.22
-0.235
-0.235
-0.24
-0.22
-0.21
-0.21
-0.22
-0.22
-0.225
-0.225
-0.235
-0.235
-0.23
-0.225
-0.245
-0.23
-0.2
-0.18
-0.19
-0.2
-0.185
-0.185
-0.19
-0.19
-0.16
-0.155
-0.185
-0.2
-0.205
-0.195
-0.195
-0.19
-0.22
-0.225
-0.225
-0.215
-0.22
-0.23
-0.225
-0.21
-0.19
-0.19
-0.2
-0.185
-0.195
-0.175
-0.16
-0.15
-0.16
-0.185
-0.235
-0.25
-0.23
-0.23
-0.225
-0.245
-0.225
-0.205
-0.19
-0.2
-0.21
-0.205
-0.205
-0.205
-0.2
-0.2
-0.2
-0.205
-0.225
-0.235
-0.23
-0.225
-0.235
-0.22
-0.205
-0.155
-0.07
0.035
0.14
0.225
0.31
0.405
0.525
0.66
0.795
0.89
0.965
0.985
0.945
0.835
0.665
0.365
-0.02
-0.305
-0.445
-0.49
-0.485
-0.435
-0.39
-0.345
-0.315
-0.315
-0.35
-0.355
-0.35
-0.35
-0.36
-0.365
-0.355
-0.36
-0.355
-0.325
-0.32
-0.315
-0.34
-0.355
-0.345
-0.32
-0.325
-0.32
-0.315
-0.315
-0.345
-0.345
-0.35
-0.325
-0.295
-0.295
-0.3
-0.295
-0.28
-0.29
-0.28
-0.265
-0.26
-0.265
-0.275
-0.27
-0.28
-0.245
-0.225
-0.195
-0.195
-0.22
-0.235
-0.23
-0.195
-0.18
-0.165
-0.185
-0.185
-0.185
-0.195
-0.175
-0.17
-0.145
-0.13
-0.135
-0.135
-0.145
-0.14
-0.12
-0.085
-0.065
-0.065
-0.055
-0.06
-0.065
-0.065
-0.07
-0.045
-0.02
0.015
0.015
0.005
-0.005
-0.015
-0.02
-0.02
-0.025
-0.03
-0.04
-0.04
-0.03
-0.02
-0.03
-0.045
-0.065
-0.06
-0.04
-0.02
-0.05
-0.085
-0.125
-0.125
-0.115
-0.1
-0.095
-0.11
-0.125
-0.145
-0.15
-0.145
-0.135
-0.135
-0.145
-0.18
-0.185
-0.165
-0.16
-0.155
-0.155
-0.17
-0.16
-0.15
-0.14
-0.145
-0.17
-0.185
-0.19
-0.18
-0.195
-0.195
-0.19
-0.21
-0.215
-0.205
-0.185
-0.175
-0.19
-0.215
-0.23
-0.24
-0.245
-0.23
-0.23
-0.245
-0.25
-0.235
-0.225
-0.225
-0.225
-0.225
-0.22
-0.22
-0.21
-0.205
-0.205
-0.2
-0.185
-0.17
-0.14
-0.145
-0.16
-0.185
-0.185
-0.175
-0.165
-0.17
-0.19
-0.195
-0.195
-0.19
-0.18
-0.17
-0.16
-0.175
-0.17
-0.175
-0.185
-0.195
-0.19
-0.205
-0.2
-0.195
-0.2
-0.205
-0.23
-0.23
-0.22
-0.2
-0.2
-0.19
-0.215
-0.23
-0.245
-0.245
-0.23
-0.215
-0.215
-0.2
-0.205
-0.205
-0.21
-0.21
-0.22
-0.22
-0.21
-0.2
-0.21
-0.22
-0.24
-0.235
-0.205
-0.145
-0.095
-0.045
-0.01
0.06
0.135
0.245
0.35
0.45
0.545
0.605
0.69
0.795
0.88
0.905
0.845
0.73
0.615
0.46
0.22
-0.065
-0.295
-0.445
-0.53
-0.59
-0.57
-0.56
-0.52
-0.505
-0.485
-0.47
-0.435
-0.395
-0.375
-0.38
-0.405
-0.395
-0.38
-0.365
-0.38
-0.38
-0.365
-0.355
-0.315
-0.29
-0.3
-0.315
-0.31
-0.305
-0.3
-0.295
-0.305
-0.335
-0.32
-0.3
-0.28
-0.27
-0.29
-0.3
-0.29
-0.29
-0.29
-0.3
-0.3
-0.295
-0.295
-0.285
-0.28
-0.28
-0.275
-0.255
-0.23
-0.215
-0.205
-0.205
-0.23
-0.255
-0.255
-0.235
-0.215
-0.205
-0.195
-0.19
-0.18
-0.185
-0.175
-0.16
-0.15
-0.135
-0.11
-0.095
-0.095
-0.105
-0.12
-0.125
-0.095
-0.09
-0.095
-0.08
-0.09
-0.095
-0.085
-0.06
-0.05
-0.05
-0.06
-0.065
-0.055
-0.05
-0.04
-0.03
-0.04
-0.05
-0.055
-0.07
-0.1
-0.12
-0.1
-0.065
-0.035
-0.035
-0.06
-0.05
-0.055
-0.07
-0.07
-0.045
-0.03
-0.04
-0.05
-0.05
-0.055
-0.05
-0.05
-0.035
-0.06
-0.065
-0.075
-0.08
-0.075
-0.09
-0.11
-0.13
-0.13
-0.12
-0.105
-0.1
-0.125
-0.13
-0.15
-0.15
-0.13
-0.115
-0.135
-0.145
-0.15
-0.15
-0.15
-0.15
-0.16
-0.17
-0.18
-0.185
-0.165
-0.16
-0.165
-0.195
-0.205
-0.185
-0.175
-0.18
-0.19
-0.2
-0.205
-0.2
-0.205
-0.195
-0.205
-0.215
-0.2
-0.18
-0.175
-0.17
-0.18
-0.19
-0.19
-0.19
-0.175
-0.17
-0.155
-0.16
-0.16
-0.16
-0.18
-0.195
-0.185
-0.175
-0.155
-0.135
-0.12
-0.125
-0.14
-0.145
-0.15
-0.14
-0.11
-0.085
-0.075
-0.075
-0.08
-0.09
-0.1
-0.11
-0.135
-0.135
-0.09
-0.075
-0.08
-0.1
-0.125
-0.135
-0.135
-0.12
-0.1
-0.09
-0.105
-0.13
-0.14
-0.115
-0.105
-0.085
-0.07
-0.065
-0.05
-0.03
-0.03
-0.065
-0.09
-0.105
-0.11
-0.1
-0.09
-0.08
-0.07
-0.09
-0.105
-0.115
-0.12
-0.13
-0.15
-0.165
-0.14
-0.12
-0.095
-0.1
-0.1
-0.085
-0.08
-0.1
-0.12
-0.125
-0.13
-0.125
-0.07
0.025
0.175
0.315
0.4
0.44
0.515
0.64
0.785
0.92
1.035
1.125
1.17
1.105
1.0
0.795
0.48
0.06
-0.265
-0.425
-0.47
-0.46
-0.44
-0.395
-0.32
-0.265
-0.24
-0.23
-0.215
-0.21
-0.205
-0.23
-0.23
-0.23
-0.23
-0.23
-0.215
-0.205
-0.19
-0.18
-0.185
-0.175
-0.16
-0.15
-0.17
-0.185
-0.2
-0.23
-0.215
-0.19
-0.145
-0.135
-0.14
-0.145
-0.14
-0.135
-0.13
-0.135
-0.15
-0.145
-0.12
-0.1
-0.07
-0.05
-0.045
-0.045
-0.05
-0.045
-0.045
-0.065
-0.075
-0.055
-0.035
-0.03
-0.02
-0.025
-0.05
-0.04
-0.035
-0.04
-0.035
