Lead II
-0.22
-0.23
-0.235
-0.225
-0.225
-0.235
-0.225
-0.23
-0.235
-0.24
-0.235
-0.225
-0.225
-0.235
-0.23
-0.215
-0.21
-0.205
-0.215
-0.22
-0.225
-0.25
-0.255
-0.26
-0.26
-0.245
-0.23
-0.22
-0.21
-0.21
-0.22
-0.22
-0.215
-0.2
-0.185
-0.16
-0.135
-0.12
-0.105
-0.08
-0.07
-0.055
-0.055
-0.045
-0.035
-0.02
0.01
0.055
0.075
0.11
0.105
0.095
0.085
0.06
0.03
0.04
0.035
0.055
0.055
0.045
0.04
0.02
-0.01
-0.04
-0.07
-0.1
-0.13
-0.155
-0.16
-0.175
-0.19
-0.205
-0.22
-0.24
-0.255
-0.26
-0.265
-0.275
-0.27
-0.26
-0.26
-0.27
-0.275
-0.27
-0.265
-0.255
-0.255
-0.24
-0.24
-0.21
-0.185
-0.115
-0.01
0.155
0.355
0.565
0.78
0.98
1.16
1.335
1.475
1.575
1.625
1.605
1.515
1.39
1.2
0.945
0.655
0.39
0.17
0.03
-0.06
-0.11
-0.13
-0.16
-0.195
-0.255
-0.315
-0.36
-0.4
-0.425
-0.435
-0.42
-0.41
-0.41
-0.405
-0.425
-0.45
-0.46
-0.475
-0.475
-0.47
-0.46
-0.47
-0.46
-0.46
-0.46
-0.465
-0.46
-0.475
-0.465
-0.47
-0.475
-0.475
-0.475
-0.485
-0.47
-0.47
-0.46
-0.46
-0.465
-0.49
-0.505
-0.5
-0.51
-0.51
-0.515
-0.53
-0.535
-0.56
-0.565
-0.585
-0.585
-0.605
-0.625
-0.63
-0.64
-0.665
-0.67
-0.685
-0.705
-0.715
-0.725
-0.74
-0.765
-0.775
-0.8
-0.82
-0.805
-0.82
-0.825
-0.805
-0.81
-0.805
-0.8
-0.795
-0.8
-0.79
-0.765
-0.75
-0.735
-0.69
-0.67
-0.625
-0.58
-0.545
-0.5
-0.485
-0.465
-0.435
-0.435
-0.42
-0.39
-0.355
-0.32
-0.295
-0.275
-0.27
-0.265
-0.25
-0.25
-0.25
-0.25
-0.255
-0.245
-0.235
-0.23
-0.22
-0.205
-0.21
-0.205
-0.215
-0.225
-0.24
-0.245
-0.245
-0.245
-0.235
-0.235
-0.22
-0.215
-0.215
-0.215
-0.22
-0.225
-0.23
-0.24
-0.24
-0.235
-0.24
-0.235
-0.235
-0.2
-0.185
-0.175
-0.175
-0.155
-0.15
-0.15
-0.13
-0.105
-0.085
-0.08
-0.075
-0.07
-0.04
-0.005
0.025
0.065
0.08
0.095
0.075
0.065
0.045
0.035
0.05
0.07
0.095
0.095
0.09
0.05
0.01
-0.04
-0.095
-0.135
-0.13
-0.15
-0.145
-0.15
-0.16
-0.175
-0.21
-0.24
-0.235
-0.265
-0.27
-0.245
-0.24
-0.23
-0.22
-0.22
-0.215
-0.205
-0.21
-0.215
-0.215
-0.21
-0.205
-0.17
-0.11
-0.015
0.155
0.36
0.59
0.825
1.015
1.195
1.355
1.485
1.58
1.62
1.575
1.49
1.345
1.13
0.845
0.535
0.26
0.055
-0.075
-0.145
-0.175
-0.175
-0.175
-0.19
-0.23
-0.275
-0.315
-0.35
-0.37
-0.37
-0.365
-0.375
-0.37
-0.37
-0.37
-0.37
-0.365
-0.36
-0.37
-0.37
-0.375
-0.385
-0.39
-0.4
-0.42
-0.405
-0.395
-0.39
-0.385
-0.38
-0.38
-0.385
-0.375
-0.385
-0.405
-0.41
-0.41
-0.42
-0.42
-0.415
-0.41
-0.395
-0.41
-0.415
-0.435
-0.455
-0.47
-0.475
-0.48
-0.49
-0.495
-0.505
-0.51
-0.52
-0.53
-0.53
-0.54
-0.545
-0.57
-0.58
-0.585
-0.595
-0.6
-0.605
-0.605
-0.59
-0.595
-0.59
-0.58
-0.585
-0.575
-0.57
-0.575
-0.57
-0.54
-0.53
-0.495
-0.475
-0.45
-0.43
-0.395
-0.355
-0.345
-0.325
-0.31
-0.295
-0.28
-0.26
-0.245
-0.215
-0.21
-0.205
-0.205
-0.2
-0.2
-0.205
-0.215
-0.205
-0.195
-0.18
-0.175
-0.155
-0.155
-0.16
-0.17
-0.17
-0.18
-0.18
-0.2
-0.18
-0.185
-0.175
-0.185
-0.175
-0.16
-0.155
-0.16
-0.165
-0.17
-0.185
-0.195
-0.19
-0.19
-0.18
-0.155
-0.165
-0.155
-0.175
-0.175
-0.165
-0.17
-0.175
-0.17
-0.145
-0.12
-0.095
-0.065
-0.045
-0.04
-0.03
-0.03
-0.03
-0.03
-0.005
0.015
0.065
0.11
0.145
0.16
0.165
0.145
0.11
0.1
0.08
0.08
0.095
0.09
0.085
0.075
0.045
0.03
0.0
-0.035
-0.075
-0.08
-0.085
-0.115
-0.16
-0.19
-0.2
-0.2
-0.205
-0.2
-0.18
-0.175
-0.17
-0.185
-0.18
-0.185
-0.185
-0.18
-0.175
-0.165
-0.155
-0.14
-0.125
-0.08
-0.005
0.12
0.28
0.475
0.69
0.9
1.08
1.245
1.425
1.55
1.66
1.69
1.67
1.6
1.45
1.265
1.015
0.725
0.44
0.22
0.07
-0.015
-0.05
-0.07
-0.09
-0.11
-0.15
-0.21
-0.27
-0.32
-0.34
-0.345
-0.34
-0.33
-0.325
-0.33
-0.325
-0.33
-0.345
-0.345
-0.355
-0.365
-0.36
-0.36
-0.375
-0.375
-0.375
-0.375
-0.38
-0.385
-0.38
-0.385
-0.4
-0.4
-0.395
-0.39
-0.39
-0.38
-0.38
-0.38
-0.39
-0.405
-0.41
-0.41
-0.43
-0.44
-0.455
-0.455
-0.445
-0.445
-0.455
-0.47
-0.49
-0.5
-0.515
-0.525
-0.535
-0.555
-0.555
-0.565
-0.56
-0.575
-0.58
-0.585
-0.605
-0.625
-0.635
-0.645
-0.65
-0.665
-0.655
-0.635
-0.61
-0.6
-0.575
-0.56
-0.55
-0.535
-0.53
-0.515
-0.485
-0.45
-0.435
-0.4
-0.38
-0.345
-0.31
-0.3
-0.28
-0.265
-0.265
-0.265
-0.235
-0.22
-0.22
-0.205
-0.2
-0.175
-0.16
-0.16
-0.16
-0.17
-0.185
-0.195
-0.185
-0.2
-0.17
-0.175
-0.17
-0.16
-0.135
-0.13
-0.125
-0.11
-0.11
-0.095
-0.08
-0.055
-0.025
0.005
0.06
0.12
0.18
0.24
0.295
0.355
0.405
0.475
0.555
0.65
0.73
0.755
0.71
0.545
0.28
-0.115
-0.58
-1.02
-1.415
-1.695
-1.915
-2.045
-2.135
-2.205
-2.245
-2.265
-2.265
-2.245
-2.18
-2.105
-2.01
-1.91
-1.79
-1.675
-1.575
-1.485
-1.42
-1.355
-1.305
-1.225
-1.155
-1.045
-0.935
-0.82
-0.715
-0.63
-0.58
-0.56
-0.54
-0.51
-0.455
-0.37
-0.26
-0.16
-0.035
0.06
0.13
0.19
0.21
0.235
0.235
0.24
0.255
0.265
0.295
0.315
0.34
0.35
0.36
0.375
0.39
0.41
0.43
0.45
0.465
0.48
0.495
0.51
0.525
0.545
0.545
0.56
0.58
0.595
0.62
0.655
0.68
0.705
0.725
0.74
0.75
0.76
0.775
0.8
0.815
0.83
0.85
0.875
0.885
0.89
0.89
0.89
0.89
0.88
0.87
0.855
0.84
0.83
0.805
0.795
0.76
0.735
0.7
0.66
0.615
0.58
0.545
0.505
0.46
0.43
0.395
0.365
0.335
0.31
0.26
0.23
0.19
0.145
0.115
0.08
0.065
0.035
0.02
0.0
-0.005
-0.03
-0.04
-0.05
-0.065
-0.085
-0.095
-0.105
-0.125
-0.115
-0.11
-0.105
-0.105
-0.11
-0.115
-0.115
-0.13
-0.13
-0.14
-0.15
-0.145
-0.135
-0.125
-0.115
-0.115
-0.115
-0.125
-0.13
-0.13
-0.13
-0.135
-0.145
-0.145
-0.145
-0.13
-0.125
-0.13
-0.135
-0.15
-0.155
-0.175
-0.185
-0.2
-0.2
-0.195
-0.185
-0.2
-0.18
-0.175
-0.175
-0.175
-0.165
-0.17
-0.2
-0.19
-0.2
-0.19
-0.2
-0.195
-0.205
-0.19
-0.18
-0.185
-0.205
-0.205
-0.21
-0.2
-0.22
-0.22
-0.225
-0.225
-0.22
-0.2
-0.2
-0.21
-0.21
-0.215
-0.225
-0.22
-0.22
-0.215
-0.215
-0.21
-0.215
-0.205
-0.2
-0.2
-0.19
-0.19
-0.18
-0.17
-0.145
-0.135
-0.11
-0.09
-0.07
-0.055
-0.05
-0.05
-0.04
-0.025
-0.01
0.02
0.05
0.08
0.095
0.09
0.07
0.045
0.035
0.015
0.03
0.03
0.035
0.03
-0.005
-0.02
-0.045
-0.065
-0.1
-0.125
-0.14
-0.165
-0.195
-0.23
-0.245
-0.26
-0.265
-0.275
-0.28
-0.28
-0.275
-0.27
-0.255
-0.27
-0.27
-0.285
-0.285
-0.28
-0.295
-0.3
-0.29
-0.28
-0.25
-0.175
-0.065
0.09
0.285
0.49
0.67
0.855
1.02
1.18
1.34
1.46
1.545
1.56
1.515
1.4
1.25
1.02
0.77
0.49
0.24
0.065
-0.05
-0.125
-0.175
-0.19
-0.22
-0.265
-0.31
-0.38
-0.44
-0.47
-0.495
-0.5
-0.49
-0.49
-0.49
-0.495
-0.49
-0.49
-0.485
-0.505
-0.51
-0.515
-0.525
-0.535
-0.53
-0.53
-0.52
-0.515
-0.505
-0.505
-0.51
-0.53
-0.545
-0.555
-0.565
-0.575
-0.565
-0.555
-0.55
-0.54
-0.54
-0.555
-0.575
-0.58
-0.59
-0.61
-0.63
-0.635
-0.615
-0.635
-0.64
-0.665
-0.67
-0.69
-0.695
-0.715
-0.72
-0.73
-0.74
-0.76
-0.785
-0.795
-0.815
-0.815
-0.825
-0.84
-0.845
-0.85
-0.87
-0.885
-0.89
-0.895
-0.9
-0.9
-0.92
-0.885
-0.875
-0.87
-0.855
-0.85
-0.835
-0.825
-0.805
-0.785
-0.755
-0.715
-0.69
-0.655
-0.625
-0.6
-0.585
-0.57
-0.55
-0.54
-0.515
-0.475
-0.445
-0.425
-0.405
-0.385
-0.38
-0.39
-0.365
-0.37
-0.35
-0.355
-0.36
-0.36
-0.365
-0.36
-0.37
-0.365
-0.345
-0.355
-0.355
-0.36
-0.36
-0.38
-0.365
-0.355
-0.355
-0.345
-0.335
-0.33
-0.335
-0.345
-0.34
-0.355
-0.36
-0.365
-0.37
-0.36
-0.36
-0.345
-0.345
-0.335
-0.33
-0.32
-0.3
-0.295
-0.285
-0.275
-0.27
-0.25
-0.235
-0.215
-0.205
-0.185
-0.17
-0.13
-0.095
-0.075
-0.04
-0.04
-0.06
-0.075
-0.1
-0.115
-0.115
-0.09
-0.08
-0.08
-0.09
-0.135
-0.17
-0.195
-0.24
-0.27
-0.295
-0.29
-0.3
-0.315
-0.32
-0.34
-0.35
-0.365
-0.37
-0.39
-0.395
-0.395
-0.385
-0.385
-0.375
-0.38
-0.38
-0.37
-0.375
-0.365
-0.37
-0.34
-0.33
-0.29
-0.225
-0.11
0.07
0.28
0.505
0.725
0.91
1.09
1.24
1.36
1.46
1.515
1.485
1.425
1.3
1.1
0.82
0.49
0.14
-0.15
-0.38
-0.535
-0.61
-0.605
-0.58
-0.52
-0.49
-0.475
-0.475
-0.495
-0.52
-0.55
-0.54
-0.54
-0.545
-0.545
-0.55
-0.54
-0.545
-0.55
-0.545
-0.55
-0.56
-0.555
-0.565
-0.575
-0.58
-0.58
-0.595
-0.58
-0.57
-0.555
-0.555
-0.575
-0.56
-0.58
-0.585
-0.59
-0.59
-0.59
-0.595
-0.605
-0.605
-0.605
-0.61
-0.62
-0.64
-0.665
-0.675
-0.685
-0.7
-0.695
-0.71
-0.715
-0.71
-0.725
-0.725
-0.745
-0.755
-0.775
-0.785
-0.785
-0.79
-0.785
-0.78
-0.78
-0.77
-0.77
-0.76
-0.76
-0.74
-0.73
-0.705
-0.705
-0.67
-0.655
-0.63
-0.59
-0.56
-0.525
-0.495
-0.47
-0.435
-0.4
-0.355
-0.31
-0.255
-0.21
-0.145
-0.08
-0.015
0.06
0.13
0.195
0.25
0.27
0.26
0.215
0.105
-0.06
-0.275
-0.525
-0.805
-1.07
-1.32
-1.545
-1.745
-1.915
-2.075
-2.215
-2.345
-2.425
-2.49
-2.515
-2.525
-2.5
-2.44
-2.395
-2.365
-2.325
-2.27
-2.215
-2.12
-2.02
-1.89
-1.76
-1.62
-1.485
-1.375
-1.28
-1.175
-1.08
-0.995
-0.92
-0.84
-0.76
-0.645
-0.525
-0.385
-0.215
-0.07
0.055
0.16
0.22
0.245
0.265
0.25
0.235
0.225
0.245
0.27
0.3
0.32
0.345
0.355
0.36
0.38
0.38
0.39
0.41
0.425
0.455
0.46
0.49
0.525
0.545
0.565
0.57
0.585
0.59
0.595
0.605
0.625
0.64
0.665
0.7
0.72
0.745
0.76
0.775
0.79
0.8
0.8
0.805
0.825
0.835
0.84
0.855
0.865
0.855
0.84
0.815
0.8
0.78
0.76
0.755
0.75
0.73
0.705
0.69
0.65
0.605
0.575
0.53
0.48
0.45
0.405
0.355
0.32
0.29
0.255
0.235
0.19
0.155
0.12
0.06
0.035
-0.01
-0.025
-0.035
-0.06
-0.07
-0.085
-0.1
-0.11
-0.13
-0.14
-0.16
-0.175
-0.19
-0.195
-0.195
-0.195
-0.185
-0.185
-0.175
-0.185
-0.19
-0.2
-0.215
-0.22
-0.22
-0.21
-0.21
-0.21
-0.2
-0.205
-0.205
-0.21
-0.195
-0.205
-0.205
-0.2
-0.205
-0.235
-0.235
-0.245
-0.245
-0.245
-0.23
-0.22
-0.22
-0.22
-0.225
-0.255
-0.26
-0.255
-0.26
-0.275
-0.25
-0.25
-0.255
-0.27
-0.27
-0.255
-0.27
-0.265
-0.275
-0.28
-0.29
-0.3
-0.295
-0.28
-0.275
-0.27
-0.265
-0.27
-0.275
-0.295
-0.29
-0.305
-0.305
-0.29
-0.295
-0.3
-0.3
-0.285
-0.285
-0.295
-0.295
-0.3
-0.31
-0.32
-0.305
-0.315
-0.305
-0.285
-0.275
-0.275
-0.28
-0.28
-0.3
-0.305
-0.315
-0.325
-0.315
-0.315
-0.29
-0.29
-0.285
-0.3
-0.295
-0.295
-0.295
-0.305
-0.315
-0.31
-0.31
-0.3
-0.3
-0.295
-0.285
-0.29
-0.275
-0.285
-0.3
-0.305
-0.32
-0.315
-0.295
-0.285
-0.265
-0.255
-0.225
-0.215
-0.2
-0.19
-0.17
-0.165
-0.14
-0.145
-0.145
-0.13
-0.12
-0.1
-0.06
-0.015
0.02
0.045
0.05
0.05
0.025
0.0
-0.025
-0.035
-0.045
-0.02
-0.02
-0.005
-0.01
-0.03
-0.06
-0.09
-0.13
-0.16
-0.195
-0.22
-0.22
-0.225
-0.245
-0.26
-0.285
-0.285
-0.315
-0.315
-0.32
-0.32
-0.31
-0.31
-0.3
-0.29
-0.29
-0.295
-0.295
-0.29
-0.295
-0.31
-0.29
-0.255
-0.185
-0.08
0.09
0.295
0.515
0.715
0.905
1.09
1.26
1.4
1.505
1.545
1.54
1.47
1.345
1.165
0.91
0.63
0.355
0.12
-0.045
-0.145
-0.21
-0.245
-0.255
-0.285
-0.32
-0.375
-0.41
-0.435
-0.47
-0.48
-0.485
-0.485
-0.475
-0.49
-0.49
-0.505
-0.505
-0.5
-0.495
-0.495
-0.495
-0.5
-0.505
-0.52
-0.535
-0.54
-0.53
-0.535
-0.54
-0.535
-0.53
-0.515
-0.515
-0.5
-0.51
-0.515
-0.525
-0.535
-0.55
-0.555
-0.555
-0.555
-0.55
-0.56
-0.575
-0.575
-0.59
-0.595
-0.605
-0.61
-0.62
-0.625
-0.63
-0.635
-0.645
-0.66
-0.675
-0.695
-0.725
-0.735
-0.765
-0.775
-0.795
-0.81
-0.81
-0.815
-0.83
-0.83
-0.85
-0.875
-0.89
-0.91
-0.92
-0.93
-0.925
-0.93
-0.92
-0.91
-0.885
-0.895
-0.89
-0.885
-0.88
-0.87
-0.87
-0.85
-0.815
-0.785
-0.76
-0.725
-0.685
-0.65
-0.62
-0.585
-0.575
-0.56
-0.545
-0.525
-0.485
-0.445
-0.425
-0.385
-0.355
-0.34
-0.325
-0.335
-0.335
-0.335
-0.34
-0.335
-0.315
-0.315
-0.305
-0.295
-0.29
-0.285
-0.28
-0.29
-0.295
-0.295
-0.295
-0.3
-0.295
-0.305
-0.295
-0.29
-0.28
-0.275
-0.27
-0.27
-0.265
-0.275
-0.28
-0.285
-0.29
-0.285
-0.28
-0.28
-0.26
-0.25
-0.245
-0.24
-0.235
-0.215
-0.21
-0.185
-0.18
-0.17
-0.135
-0.125
-0.1
-0.085
-0.065
-0.045
-0.025
0.02
0.05
0.065
0.065
0.04
0.02
0.02
0.015
0.015
0.01
0.02
0.005
-0.015
-0.03
-0.075
-0.085
-0.125
-0.14
-0.165
-0.185
-0.2
-0.23
-0.25
-0.27
-0.285
-0.3
-0.31
-0.315
-0.315
-0.3
-0.29
-0.28
-0.265
-0.27
-0.28
-0.27
-0.285
-0.295
-0.285
-0.275
-0.25
-0.175
-0.055
0.13
0.35
0.575
0.805
1.01
1.195
1.365
1.48
1.545
1.535
1.47
1.34
1.15
0.895
0.605
0.33
0.095
-0.045
-0.15
-0.205
-0.23
-0.24
-0.27
-0.295
-0.325
-0.36
-0.4
-0.42
-0.43
-0.435
-0.425
-0.44
-0.445
-0.45
-0.45
-0.45
-0.445
-0.445
-0.47
-0.465
-0.485
-0.48
-0.475
-0.47
-0.47
-0.485
-0.475
-0.45
-0.435
-0.43
-0.44
-0.44
-0.47
-0.49
-0.495
-0.51
-0.505
-0.51
-0.51
-0.49
-0.49
-0.485
-0.495
-0.505
-0.515
-0.525
-0.545
-0.565
-0.565
-0.57
-0.575
-0.58
-0.58
-0.59
-0.6
-0.615
-0.62
-0.63
-0.65
-0.655
-0.68
-0.68
-0.665
-0.655
-0.645
-0.64
-0.645
-0.63
-0.63
-0.63
-0.635
-0.61
-0.61
-0.58
-0.55
-0.51
-0.495
-0.465
-0.46
-0.425
-0.405
-0.41
-0.39
-0.38
-0.365
-0.355
-0.335
-0.32
-0.3
-0.29
-0.275
-0.275
-0.285
-0.305
-0.29
-0.305
-0.3
-0.29
-0.28
-0.28
-0.28
-0.285
-0.29
-0.29
-0.285
-0.295
-0.3
-0.29
-0.295
-0.3
-0.3
-0.28
-0.29
-0.275
-0.27
-0.28
-0.28
-0.29
-0.29
-0.305
-0.305
-0.305
-0.285
-0.275
-0.26
-0.265
-0.265
-0.27
-0.28
-0.28
-0.29
-0.305
-0.3
-0.285
-0.25
-0.23
-0.205
-0.185
-0.16
-0.155
-0.155
-0.16
-0.145
-0.145
-0.09
-0.045
0.005
0.03
0.06
0.05
0.02
-0.005
-0.04
-0.045
-0.04
-0.025
-0.005
-0.015
-0.02
-0.04
-0.08
-0.105
-0.15
-0.18
-0.185
-0.215
-0.225
-0.23
-0.25
-0.265
-0.285
-0.3
-0.3
-0.31
-0.32
-0.32
-0.325
-0.32
-0.325
-0.335
-0.325
-0.315
-0.315
-0.295
-0.29
-0.295
-0.3
-0.275
-0.245
-0.175
-0.075
0.08
0.285
0.5
0.695
0.9
1.095
1.25
1.4
1.53
1.58
1.56
1.505
1.38
1.215
1.0
0.735
0.455
0.21
0.025
-0.1
-0.16
-0.205
-0.24
-0.26
-0.3
-0.33
-0.385
-0.425
-0.455
-0.46
-0.46
-0.46
-0.465
-0.475
-0.485
-0.515
-0.52
-0.505
-0.52
-0.51
-0.5
-0.49
-0.48
-0.48
-0.48
-0.495
-0.51
-0.52
-0.53
-0.53
-0.515
-0.51
-0.505
-0.5
-0.5
-0.5
-0.505
-0.52
-0.51
-0.525
-0.53
-0.535
-0.54
-0.545
-0.54
-0.555
-0.57
-0.59
-0.605
-0.605
-0.625
-0.635
-0.65
-0.66
-0.67
-0.675
-0.68
-0.69
-0.71
-0.73
-0.74
-0.76
-0.77
-0.765
-0.755
-0.75
-0.735
-0.745
-0.73
-0.725
-0.73
-0.725
-0.695
-0.675
-0.645
-0.63
-0.605
-0.57
-0.545
-0.505
-0.475
-0.44
-0.425
-0.41
-0.395
-0.39
-0.37
-0.36
-0.35
-0.335
-0.335
-0.3
-0.305
-0.285
-0.27
-0.285
-0.285
-0.305
-0.3
-0.315
-0.3
-0.305
-0.295
-0.27
-0.255
-0.24
-0.23
-0.21
-0.2
-0.16
-0.115
-0.075
-0.025
0.05
0.12
0.205
0.285
0.37
0.47
0.565
0.645
0.64
0.535
0.295
-0.07
-0.545
-1.04
-1.465
-1.78
-1.975
-2.115
-2.215
-2.28
-2.32
-2.355
-2.35
-2.325
-2.28
-2.205
-2.1
-1.975
-1.825
-1.68
-1.545
-1.45
-1.38
-1.33
-1.27
-1.2
-1.06
-0.915
-0.77
-0.66
-0.595
-0.55
-0.54
-0.53
-0.47
-0.39
-0.27
-0.145
-0.025
0.07
0.135
0.165
0.18
0.175
0.16
0.17
0.19
0.205
0.215
0.235
0.25
0.26
0.28
0.305
0.34
0.355
0.36
0.375
0.38
0.37
0.385
0.39
0.41
0.43
0.445
0.475
0.505
0.525
0.555
0.57
0.595
0.615
0.63
0.64
0.66
0.675
0.7
0.725
0.75
0.775
0.79
0.795
0.81
0.8
0.81
0.815
0.805
0.81
0.795
0.785
0.76
0.725
0.725
0.695
0.66
0.62
0.575
0.545
0.515
0.485
0.45
0.43
0.395
0.35
0.315
0.28
0.23
0.19
0.14
0.095
0.075
0.055
0.045
0.03
0.02
0.005
-0.02
-0.055
-0.08
-0.105
-0.135
-0.15
-0.165
-0.165
-0.16
-0.175
-0.175
-0.17
-0.17
-0.17
-0.18
-0.19
-0.185
-0.2
-0.195
-0.19
-0.17
-0.16
-0.155
-0.145
-0.155
-0.16
-0.16
-0.18
-0.19
-0.195
-0.205
-0.195
-0.195
-0.19
-0.175
-0.175
-0.19
-0.185
-0.185
-0.2
-0.21
-0.205
-0.21
-0.215
-0.215
-0.215
-0.2
-0.2
-0.18
-0.195
-0.215
-0.21
-0.215
-0.225
-0.245
-0.24
-0.23
-0.23
-0.21
-0.2
-0.205
-0.215
-0.22
-0.235
-0.23
-0.23
-0.23
-0.225
-0.225
-0.225
-0.225
-0.23
-0.235
-0.25
-0.235
-0.24
-0.245
-0.245
-0.24
-0.24
-0.23
-0.235
-0.23
-0.215
-0.22
-0.205
-0.215
-0.225
-0.235
-0.245
-0.24
-0.245
-0.235
-0.215
-0.19
-0.165
-0.14
-0.125
-0.105
-0.105
-0.095
-0.1
-0.09
-0.08
-0.065
-0.04
-0.005
0.04
0.085
0.11
0.09
0.07
0.045
0.015
0.015
0.01
0.03
0.05
0.065
0.06
0.04
0.0
-0.05
-0.1
-0.145
-0.165
-0.185
-0.185
-0.19
-0.2
-0.21
-0.22
-0.245
-0.245
-0.255
-0.255
-0.265
-0.26
-0.26
-0.26
-0.265
-0.26
-0.245
-0.24
-0.245
-0.235
-0.23
-0.215
-0.165
-0.08
0.055
0.255
0.47
0.685
0.885
1.085
1.26
1.42
1.545
1.61
1.635
1.58
1.47
1.3
1.08
0.8
0.51
0.255
0.055
-0.06
-0.125
-0.16
-0.19
-0.205
-0.25
-0.27
-0.33
-0.37
-0.405
-0.395
-0.4
-0.4
-0.42
-0.43
-0.43
-0.445
-0.45
-0.45
-0.455
-0.45
-0.45
-0.435
-0.435
-0.445
-0.46
-0.465
-0.47
-0.48
-0.47
-0.465
-0.455
-0.445
-0.445
-0.435
-0.445
-0.435
-0.445
-0.465
-0.48
-0.495
-0.49
-0.495
-0.505
-0.505
-0.5
-0.5
-0.52
-0.515
-0.54
-0.54
-0.55
-0.58
-0.595
-0.605
-0.62
-0.615
-0.63
-0.635
-0.655
-0.675
-0.69
-0.715
-0.72
-0.735
-0.755
-0.75
-0.765
-0.78
-0.78
-0.78
-0.8
-0.81
-0.815
-0.805
-0.8
-0.8
-0.8
-0.795
-0.79
-0.76
-0.73
-0.7
-0.68
-0.655
-0.635
-0.625
-0.6
-0.57
-0.54
-0.5
-0.48
-0.435
-0.4
-0.38
-0.35
-0.345
-0.325
-0.315
-0.295
-0.275
-0.26
-0.245
-0.23
-0.23
-0.205
-0.195
-0.185
-0.18
-0.155
-0.13
-0.115
-0.075
-0.03
0.035
0.1
0.15
0.22
0.285
0.34
0.41
0.465
0.515
0.5
0.44
0.305
0.05
-0.275
-0.685
-1.05
-1.42
-1.725
-1.97
-2.13
-2.235
-2.3
-2.345
-2.375
-2.405
-2.415
-2.425
-2.37
-2.32
-2.26
-2.175
-2.105
-2.025
-1.95
-1.845
-1.72
-1.585
-1.435
-1.285
-1.125
-0.97
-0.83
-0.73
-0.63
-0.56
-0.51
-0.445
-0.36
-0.265
-0.11
0.045
0.215
0.345
0.435
0.475
0.475
0.445
0.41
0.375
0.355
0.36
0.37
0.39
0.415
0.425
0.43
0.43
0.43
0.44
0.45
0.46
0.475
0.485
0.52
0.505
0.54
0.56
0.575
0.6
0.61
0.625
0.625
0.625
0.65
0.675
0.695
0.725
0.75
0.765
0.775
0.79
0.805
0.815
0.81
0.85
0.865
0.885
0.895
0.91
0.935
0.94
0.945
0.945
0.935
0.915
0.895
0.88
0.865
0.845
0.83
0.805
0.78
0.755
0.705
0.655
0.62
0.565
0.515
0.48
0.44
0.395
0.37
0.34
0.31
0.275
0.23
0.205
0.18
0.15
0.125
0.085
0.065
0.045
0.035
0.025
0.03
0.015
0.005
0.0
-0.01
-0.03
-0.04
-0.045
-0.065
-0.045
-0.045
-0.035
-0.04
-0.025
-0.035
-0.035
-0.055
-0.065
-0.065
-0.065
-0.06
-0.06
-0.06
-0.05
-0.055
-0.045
-0.055
-0.06
-0.065
-0.08
-0.095
-0.1
-0.105
-0.095
-0.075
-0.09
-0.08
-0.08
-0.085
-0.085
-0.095
-0.1
-0.125
-0.13
-0.135
-0.14
-0.13
-0.125
-0.105
-0.11
-0.11
-0.11
-0.125
-0.13
-0.135
-0.14
-0.135
-0.14
-0.125
-0.12
-0.11
-0.1
-0.1
-0.105
-0.1
-0.135
-0.13
-0.15
-0.15
-0.14
-0.13
-0.115
-0.105
-0.1
-0.105
-0.115
-0.12
-0.12
-0.145
-0.14
-0.145
-0.135
-0.115
-0.115
-0.11
-0.11
-0.115
-0.105
-0.13
-0.13
-0.145
-0.125
-0.125
-0.13
-0.105
-0.095
-0.06
-0.035
-0.035
-0.02
-0.01
-0.005
-0.005
0.005
0.025
0.045
0.055
0.07
0.09
0.105
0.13
0.155
0.175
0.2
0.205
0.215
0.2
0.18
0.165
0.16
0.155
0.175
0.185
0.195
0.185
0.155
0.12
0.065
0.04
0.0
-0.015
-0.015
-0.02
-0.025
-0.045
-0.06
-0.08
-0.11
-0.145
-0.165
-0.165
-0.165
-0.135
-0.125
-0.11
-0.12
-0.12
-0.125
-0.12
-0.135
-0.135
-0.14
-0.13
-0.095
-0.055
0.005
0.12
0.26
0.455
0.66
0.84
1.03
1.205
1.36
1.51
1.635
1.715
1.71
1.665
1.555
1.4
1.19
0.925
0.65
0.405
0.235
0.115
0.035
-0.01
-0.04
-0.05
-0.085
-0.135
-0.185
-0.24
-0.28
-0.315
-0.33
-0.32
-0.32
-0.325
-0.34
-0.325
-0.335
-0.345
-0.34
-0.325
-0.33
-0.345
-0.35
-0.345
-0.335
-0.345
-0.345
-0.345
-0.35
-0.365
-0.355
-0.355
-0.36
-0.36
-0.375
-0.39
-0.41
-0.395
-0.38
-0.375
-0.375
-0.385
-0.375
-0.39
-0.395
-0.42
-0.435
-0.45
-0.465
-0.49
-0.49
-0.5
-0.515
-0.53
-0.55
-0.555
-0.575
-0.59
-0.615
-0.625
-0.635
-0.66
-0.66
-0.665
-0.69
-0.705
-0.715
-0.725
-0.73
-0.745
-0.74
-0.72
-0.715
-0.72
-0.71
-0.69
-0.675
-0.67
-0.645
-0.635
-0.625
-0.61
-0.585
-0.57
-0.52
-0.495
-0.47
-0.435
-0.395
-0.37
-0.345
-0.32
-0.31
-0.285
-0.265
-0.255
-0.23
-0.205
-0.21
-0.18
-0.165
-0.18
-0.15
-0.165
-0.16
-0.16
-0.165
-0.175
-0.18
-0.16
-0.145
-0.11
-0.11
-0.105
-0.1
-0.095
-0.095
-0.085
-0.08
-0.05
-0.045
-0.04
-0.04
-0.03
-0.03
-0.015
0.025
0.05
0.095
0.14
0.195
0.29
0.385
0.49
0.6
0.7
0.79
0.86
0.96
1.045
1.13
1.215
1.295
1.365
1.425
1.46
1.445
1.37
1.21
0.965
0.59
0.155
-0.315
-0.75
-1.085
-1.315
-1.415
-1.405
-1.3
-1.15
-1.005
-0.9
-0.775
-0.685
-0.605
-0.53
-0.44
-0.365
-0.285
-0.225
-0.175
-0.155
-0.165
-0.18
-0.21
-0.24
-0.255
-0.27
-0.27
-0.275
-0.26
-0.245
-0.24
-0.235
-0.24
-0.245
-0.24
-0.235
-0.25
-0.25
-0.24
-0.24
-0.235
-0.225
-0.23
-0.21
-0.205
-0.215
-0.205
-0.225
-0.23
-0.24
-0.26
-0.24
-0.23
-0.225
-0.225
-0.21
-0.205
-0.22
-0.215
-0.195
-0.195
-0.2
-0.195
-0.2
-0.195
-0.165
-0.155
-0.135
-0.11
-0.105
-0.1
-0.09
-0.085
-0.08
-0.08
-0.07
-0.05
-0.03
0.005
0.025
0.04
0.035
0.035
0.04
0.04
0.035
0.035
0.035
0.015
0.01
0.03
0.03
0.025
0.015
0.005
-0.025
-0.035
-0.055
-0.08
-0.09
-0.1
-0.11
-0.115
-0.12
-0.115
-0.125
-0.15
-0.18
-0.16
-0.175
-0.175
-0.165
-0.16
-0.16
-0.165
-0.17
-0.17
-0.175
-0.185
-0.18
-0.185
-0.19
-0.195
-0.18
-0.18
-0.175
-0.175
-0.165
-0.17
-0.17
-0.165
-0.155
-0.15
-0.165
-0.185
-0.175
-0.155
-0.16
-0.145
-0.145
-0.135
-0.13
-0.13
-0.135
-0.14
-0.15
-0.155
-0.165
-0.175
-0.16
-0.16
-0.16
-0.165
-0.175
-0.175
-0.165
-0.16
-0.165
-0.18
-0.17
-0.18
-0.175
-0.16
-0.14
-0.135
-0.13
-0.135
-0.14
-0.155
-0.15
-0.155
-0.145
-0.15
-0.135
-0.15
-0.15
-0.16
-0.16
-0.155
-0.16
-0.165
-0.16
-0.165
-0.155
-0.165
-0.17
-0.155
-0.145
-0.14
-0.125
-0.125
-0.115
-0.125
-0.115
-0.115
-0.105
-0.105
-0.085
-0.07
-0.05
-0.02
-0.02
0.01
0.01
0.005
0.025
0.035
0.065
0.105
0.155
0.195
0.2
0.195
0.165
0.145
0.13
0.115
0.115
0.11
0.12
0.11
0.1
0.075
0.035
0.0
-0.025
-0.045
-0.07
-0.08
-0.1
-0.115
-0.13
-0.15
-0.16
-0.17
-0.175
-0.15
-0.16
-0.155
-0.155
-0.165
-0.17
-0.17
-0.17
-0.17
-0.155
-0.155
-0.14
-0.085
-0.005
0.145
0.335
0.55
0.78
1.015
1.225
1.415
1.58
1.695
1.74
1.71
1.595
1.4
1.135
0.815
0.485
0.205
0.03
-0.065
-0.105
-0.105
-0.11
-0.12
-0.155
-0.21
-0.275
-0.31
-0.34
-0.345
-0.35
-0.335
-0.32
-0.31
-0.3
-0.3
-0.305
-0.305
-0.325
-0.355
-0.365
-0.375
-0.365
-0.35
-0.335
-0.335
-0.335
-0.325
-0.335
-0.35
-0.365
-0.37
-0.37
-0.375
-0.39
-0.38
-0.365
-0.37
-0.36
-0.37
-0.375
-0.38
-0.395
-0.41
-0.435
-0.445
-0.45
-0.45
-0.465
-0.47
-0.465
-0.48
-0.495
-0.51
-0.525
-0.555
-0.555
-0.58
-0.59
-0.6
-0.605
-0.605
-0.62
-0.645
-0.655
-0.66
-0.67
-0.675
-0.685
-0.685
-0.67
-0.67
-0.66
-0.65
-0.63
-0.62
-0.61
-0.58
-0.57
-0.545
-0.52
-0.505
-0.48
-0.44
-0.405
-0.38
-0.345
-0.31
-0.29
-0.265
-0.235
-0.235
-0.215
-0.2
-0.18
-0.17
-0.145
-0.14
-0.115
-0.115
-0.125
-0.125
-0.13
-0.145
-0.165
-0.16
-0.145
-0.135
-0.13
-0.12
-0.1
-0.085
-0.1
-0.115
-0.13
-0.14
-0.13
-0.13
-0.12
-0.1
-0.11
-0.105
-0.1
-0.1
-0.11
-0.105
-0.11
-0.115
-0.12
-0.12
-0.125
-0.125
-0.11
-0.105
-0.09
-0.085
-0.065
-0.06
-0.055
-0.055
-0.03
-0.025
0.0
0.005
0.03
0.04
0.08
0.095
0.11
0.155
0.185
0.195
0.205
0.2
0.19
0.175
0.17
0.165
0.18
0.195
0.19
0.175
0.17
0.135
0.1
0.065
0.03
0.01
-0.01
-0.035
-0.04
-0.055
-0.085
-0.095
-0.115
-0.13
-0.135
-0.15
-0.135
-0.135
-0.12
-0.11
-0.1
-0.09
-0.1
-0.095
-0.09
-0.1
-0.11
-0.1
-0.075
-0.04
0.065
0.215
0.395
0.625
0.845
1.075
1.255
1.435
1.58
1.69
1.75
1.735
1.685
1.56
1.39
1.145
0.86
0.58
0.325
0.135
0.035
-0.01
-0.055
-0.06
-0.075
-0.105
-0.145
-0.17
-0.23
-0.255
-0.275
-0.285
-0.275
-0.265
-0.265
-0.27
-0.27
-0.265
-0.255
-0.255
-0.27
-0.255
-0.275
-0.275
-0.29
-0.295
-0.285
-0.285
-0.28
-0.285
-0.285
-0.295
-0.295
-0.285
-0.3
-0.29
-0.29
-0.29
-0.305
-0.305
-0.305
-0.305
-0.3
-0.305
-0.315
-0.335
-0.335
-0.36
-0.37
-0.385
-0.385
-0.385
-0.385
-0.39
-0.405
-0.415
-0.44
-0.45
-0.455
-0.485
-0.5
-0.5
-0.505
-0.51
-0.52
-0.505
-0.5
-0.495
-0.495
-0.5
-0.49
-0.48
-0.475
-0.45
-0.43
-0.41
-0.39
-0.365
-0.33
-0.31
-0.285
-0.26
-0.26
-0.235
-0.215
-0.195
-0.18
-0.16
-0.145
-0.125
-0.11
-0.1
-0.09
-0.095
-0.09
-0.1
-0.1
-0.105
-0.095
-0.105
-0.1
-0.09
-0.085
-0.085
-0.08
-0.07
-0.07
-0.09
-0.08
-0.08
-0.09
-0.08
-0.085
-0.08
-0.08
-0.07
-0.08
-0.07
-0.07
-0.08
-0.085
-0.085
-0.095
