Lead II
-0.215
-0.22
-0.215
-0.215
-0.21
-0.22
-0.235
-0.245
-0.24
-0.22
-0.195
-0.19
-0.215
-0.25
-0.25
-0.225
-0.205
-0.2
-0.22
-0.245
-0.265
-0.245
-0.22
-0.22
-0.2
-0.225
-0.215
-0.205
-0.19
-0.195
-0.19
-0.2
-0.205
-0.22
-0.195
-0.185
-0.18
-0.195
-0.195
-0.185
-0.175
-0.175
-0.195
-0.205
-0.2
-0.195
-0.185
-0.215
-0.215
-0.24
-0.245
-0.225
-0.2
-0.195
-0.18
-0.2
-0.205
-0.195
-0.19
-0.185
-0.2
-0.205
-0.2
-0.19
-0.175
-0.18
-0.175
-0.18
-0.175
-0.165
-0.155
-0.145
-0.145
-0.155
-0.15
-0.125
-0.1
-0.065
-0.05
-0.015
0.075
0.19
0.335
0.52
0.7
0.895
1.135
1.36
1.585
1.69
1.65
1.48
1.2
0.895
0.6
0.26
-0.075
-0.29
-0.345
-0.285
-0.2
-0.16
-0.16
-0.19
-0.225
-0.23
-0.23
-0.235
-0.25
-0.275
-0.275
-0.265
-0.26
-0.27
-0.29
-0.31
-0.305
-0.295
-0.285
-0.285
-0.29
-0.315
-0.31
-0.3
-0.285
-0.28
-0.28
-0.295
-0.32
-0.31
-0.285
-0.295
-0.29
-0.295
-0.3
-0.275
-0.265
-0.26
-0.275
-0.3
-0.295
-0.28
-0.27
-0.27
-0.285
-0.295
-0.3
-0.275
-0.27
-0.28
-0.285
-0.28
-0.265
-0.245
-0.235
-0.235
-0.23
-0.24
-0.23
-0.225
-0.19
-0.17
-0.155
-0.16
-0.16
-0.135
-0.125
-0.11
-0.115
-0.135
-0.145
-0.14
-0.12
-0.095
-0.1
-0.12
-0.12
-0.105
-0.085
-0.075
-0.08
-0.1
-0.1
-0.09
-0.07
-0.08
-0.095
-0.095
-0.095
-0.095
-0.065
-0.055
-0.06
-0.09
-0.09
-0.09
-0.075
-0.095
-0.1
-0.12
-0.13
-0.12
-0.1
-0.11
-0.13
-0.15
-0.16
-0.145
-0.135
-0.14
-0.15
-0.175
-0.17
-0.165
-0.165
-0.15
-0.18
-0.185
-0.195
-0.18
-0.17
-0.175
-0.185
-0.19
-0.185
-0.165
-0.155
-0.16
-0.18
-0.165
-0.14
-0.135
-0.135
-0.145
-0.155
-0.175
-0.17
-0.145
-0.125
-0.125
-0.13
-0.14
-0.145
-0.125
-0.115
-0.105
-0.11
-0.12
-0.12
-0.115
-0.085
-0.095
-0.105
-0.12
-0.125
-0.105
-0.085
-0.085
-0.105
-0.11
-0.115
-0.115
-0.095
-0.105
-0.115
-0.125
-0.135
-0.12
-0.115
-0.115
-0.1
-0.115
-0.1
-0.085
-0.07
-0.075
-0.095
-0.125
-0.11
-0.12
-0.1
-0.125
-0.145
-0.15
-0.155
-0.135
-0.11
-0.12
-0.145
-0.16
-0.17
-0.165
-0.16
-0.165
-0.165
-0.185
-0.18
-0.175
-0.165
-0.165
-0.165
-0.17
-0.16
-0.135
-0.12
-0.135
-0.145
-0.155
-0.175
-0.155
-0.14
-0.145
-0.165
-0.16
-0.125
-0.115
-0.11
-0.125
-0.13
-0.13
-0.135
-0.115
-0.115
-0.125
-0.145
-0.145
-0.16
-0.13
-0.115
-0.125
-0.14
-0.155
-0.155
-0.15
-0.13
-0.145
-0.15
-0.14
-0.12
-0.04
0.045
0.145
0.25
0.4
0.615
0.865
1.14
1.395
1.565
1.65
1.6
1.4
1.085
0.73
0.325
-0.045
-0.265
-0.295
-0.22
-0.14
-0.11
-0.105
-0.13
-0.14
-0.13
-0.14
-0.17
-0.19
-0.19
-0.185
-0.175
-0.19
-0.2
-0.22
-0.245
-0.24
-0.22
-0.23
-0.24
-0.265
-0.27
-0.26
-0.25
-0.245
-0.26
-0.27
-0.27
-0.255
-0.245
-0.235
-0.265
-0.285
-0.28
-0.26
-0.24
-0.235
-0.235
-0.235
-0.25
-0.25
-0.235
-0.25
-0.27
-0.275
-0.23
-0.235
-0.2
-0.19
-0.215
-0.205
-0.21
-0.175
-0.155
-0.155
-0.15
-0.17
-0.145
-0.145
-0.115
-0.12
-0.11
-0.115
-0.095
-0.07
-0.05
-0.045
-0.055
-0.075
-0.07
-0.05
-0.03
-0.035
-0.06
-0.06
-0.045
-0.03
-0.025
-0.04
-0.06
-0.065
-0.06
-0.04
-0.035
-0.05
-0.06
-0.05
-0.06
-0.05
-0.045
-0.06
-0.075
-0.09
-0.105
-0.105
-0.1
-0.105
-0.13
-0.165
-0.17
-0.185
-0.155
-0.14
-0.16
-0.175
-0.175
-0.155
-0.145
-0.155
-0.175
-0.185
-0.17
-0.17
-0.175
-0.175
-0.18
-0.18
-0.185
-0.17
-0.165
-0.16
-0.175
-0.21
-0.195
-0.17
-0.155
-0.175
-0.195
-0.19
-0.18
-0.155
-0.15
-0.17
-0.18
-0.19
-0.175
-0.16
-0.15
-0.16
-0.145
-0.16
-0.17
-0.16
-0.15
-0.145
-0.16
-0.17
-0.155
-0.16
-0.155
-0.17
-0.175
-0.16
-0.155
-0.15
-0.15
-0.155
-0.155
-0.19
-0.205
-0.18
-0.165
-0.165
-0.17
-0.175
-0.185
-0.19
-0.17
-0.18
-0.195
-0.195
-0.185
-0.175
-0.175
-0.17
-0.205
-0.2
-0.19
-0.175
-0.155
-0.17
-0.195
-0.21
-0.215
-0.185
-0.17
-0.175
-0.19
-0.2
-0.18
-0.19
-0.185
-0.175
-0.175
-0.205
-0.21
-0.2
-0.17
-0.185
-0.2
-0.21
-0.205
-0.195
-0.16
-0.175
-0.19
-0.22
-0.215
-0.215
-0.21
-0.22
-0.23
-0.21
-0.205
-0.21
-0.205
-0.205
-0.205
-0.215
-0.215
-0.21
-0.195
-0.2
-0.205
-0.215
-0.215
-0.205
-0.2
-0.21
-0.225
-0.22
-0.205
-0.19
-0.175
-0.175
-0.185
-0.205
-0.205
-0.175
-0.155
-0.155
-0.155
-0.19
-0.205
-0.175
-0.16
-0.145
-0.135
-0.15
-0.15
-0.145
-0.1
-0.085
-0.035
0.02
0.09
0.2
0.345
0.525
0.74
0.97
1.24
1.475
1.63
1.605
1.415
1.07
0.68
0.325
-0.02
-0.27
-0.345
-0.315
-0.235
-0.19
-0.17
-0.175
-0.195
-0.235
-0.255
-0.245
-0.25
-0.26
-0.26
-0.265
-0.265
-0.26
-0.255
-0.27
-0.275
-0.275
-0.275
-0.285
-0.26
-0.265
-0.26
-0.26
-0.265
-0.265
-0.24
-0.25
-0.27
-0.265
-0.265
-0.245
-0.24
-0.235
-0.245
-0.26
-0.26
-0.25
-0.235
-0.25
-0.26
-0.27
-0.26
-0.24
-0.215
-0.22
-0.225
-0.235
-0.24
-0.23
-0.225
-0.22
-0.19
-0.19
-0.18
-0.16
-0.16
-0.165
-0.165
-0.175
-0.175
-0.15
-0.125
-0.13
-0.14
-0.16
-0.14
-0.125
-0.09
-0.08
-0.075
-0.095
-0.095
-0.085
-0.065
-0.055
-0.06
-0.065
-0.05
-0.035
-0.005
-0.015
-0.02
-0.04
-0.025
-0.01
0.005
0.0
-0.02
-0.035
-0.03
-0.035
-0.02
-0.05
-0.075
-0.075
-0.085
-0.07
-0.07
-0.075
-0.085
-0.1
-0.1
-0.11
-0.105
-0.13
-0.15
-0.16
-0.165
-0.155
-0.14
-0.14
-0.155
-0.19
-0.19
-0.19
-0.185
-0.19
-0.2
-0.2
-0.18
-0.145
-0.125
-0.11
-0.105
-0.065
-0.05
0.005
0.05
0.07
0.095
0.155
0.24
0.32
0.42
0.49
0.575
0.655
0.745
0.855
0.98
1.08
1.18
1.26
1.345
1.43
1.46
1.46
1.44
1.425
1.42
1.4
1.36
1.275
1.145
1.015
0.865
0.75
0.625
0.52
0.42
0.33
0.29
0.26
0.245
0.2
0.165
0.165
0.215
0.305
0.425
0.485
0.455
0.335
0.15
-0.045
-0.235
-0.36
-0.435
-0.48
-0.495
-0.51
-0.52
-0.535
-0.585
-0.625
-0.63
-0.625
-0.615
-0.635
-0.665
-0.695
-0.715
-0.7
-0.7
-0.705
-0.72
-0.74
-0.73
-0.72
-0.72
-0.735
-0.745
-0.76
-0.76
-0.76
-0.75
-0.755
-0.77
-0.795
-0.795
-0.79
-0.78
-0.795
-0.815
-0.835
-0.83
-0.825
-0.805
-0.795
-0.8
-0.82
-0.805
-0.795
-0.78
-0.775
-0.79
-0.78
-0.775
-0.76
-0.74
-0.75
-0.755
-0.735
-0.71
-0.69
-0.665
-0.655
-0.655
-0.64
-0.625
-0.59
-0.545
-0.51
-0.515
-0.51
-0.495
-0.46
-0.435
-0.42
-0.425
-0.42
-0.39
-0.355
-0.305
-0.29
-0.305
-0.32
-0.335
-0.32
-0.31
-0.315
-0.325
-0.33
-0.325
-0.3
-0.265
-0.27
-0.28
-0.295
-0.28
-0.265
-0.24
-0.24
-0.26
-0.285
-0.28
-0.27
-0.24
-0.235
-0.245
-0.26
-0.265
-0.26
-0.235
-0.23
-0.25
-0.265
-0.26
-0.255
-0.25
-0.25
-0.25
-0.25
-0.23
-0.22
-0.22
-0.205
-0.23
-0.245
-0.245
-0.23
-0.23
-0.23
-0.26
-0.255
-0.24
-0.23
-0.215
-0.205
-0.235
-0.26
-0.26
-0.23
-0.22
-0.225
-0.255
-0.255
-0.255
-0.245
-0.235
-0.23
-0.24
-0.245
-0.25
-0.24
-0.235
-0.24
-0.27
-0.275
-0.275
-0.27
-0.23
-0.225
-0.235
-0.25
-0.26
-0.255
-0.245
-0.245
-0.25
-0.255
-0.24
-0.24
-0.225
-0.23
-0.25
-0.275
-0.26
-0.24
-0.22
-0.23
-0.235
-0.245
-0.245
-0.255
-0.25
-0.26
-0.26
-0.255
-0.255
-0.235
-0.24
-0.25
-0.27
-0.275
-0.275
-0.255
-0.24
-0.255
-0.25
-0.26
-0.26
-0.24
-0.24
-0.255
-0.275
-0.29
-0.29
-0.29
-0.305
-0.285
-0.29
-0.275
-0.255
-0.23
-0.26
-0.28
-0.31
-0.315
-0.31
-0.295
-0.28
-0.27
-0.295
-0.29
-0.27
-0.25
-0.235
-0.255
-0.29
-0.3
-0.27
-0.24
-0.215
-0.225
-0.255
-0.29
-0.275
-0.255
-0.24
-0.25
-0.275
-0.285
-0.265
-0.25
-0.24
-0.24
-0.245
-0.265
-0.265
-0.265
-0.26
-0.265
-0.27
-0.285
-0.275
-0.26
-0.26
-0.255
-0.265
-0.265
-0.245
-0.24
-0.24
-0.26
-0.265
-0.285
-0.275
-0.255
-0.235
-0.265
-0.285
-0.28
-0.26
-0.255
-0.24
-0.245
-0.245
-0.26
-0.27
-0.26
-0.25
-0.245
-0.255
-0.265
-0.26
-0.235
-0.225
-0.265
-0.265
-0.27
-0.25
-0.225
-0.21
-0.23
-0.225
-0.225
-0.205
-0.15
-0.09
-0.03
0.035
0.13
0.29
0.48
0.68
0.885
1.085
1.255
1.42
1.515
1.49
1.28
0.985
0.635
0.32
0.035
-0.19
-0.365
-0.39
-0.35
-0.3
-0.275
-0.24
-0.26
-0.27
-0.3
-0.315
-0.335
-0.33
-0.345
-0.37
-0.38
-0.39
-0.375
-0.35
-0.35
-0.36
-0.39
-0.395
-0.4
-0.375
-0.38
-0.4
-0.39
-0.38
-0.355
-0.36
-0.355
-0.37
-0.39
-0.375
-0.365
-0.345
-0.35
-0.36
-0.39
-0.385
-0.36
-0.36
-0.365
-0.39
-0.395
-0.385
-0.365
-0.355
-0.35
-0.365
-0.37
-0.365
-0.355
-0.345
-0.355
-0.36
-0.365
-0.34
-0.34
-0.32
-0.335
-0.33
-0.33
-0.33
-0.33
-0.34
-0.335
-0.32
-0.315
-0.315
-0.305
-0.29
-0.29
-0.295
-0.295
-0.28
-0.255
-0.24
-0.23
-0.235
-0.235
-0.23
-0.215
-0.2
-0.205
-0.225
-0.215
-0.195
-0.175
-0.175
-0.16
-0.185
-0.17
-0.155
-0.14
-0.13
-0.125
-0.125
-0.145
-0.13
-0.12
-0.115
-0.12
-0.13
-0.155
-0.15
-0.145
-0.14
-0.155
-0.17
-0.18
-0.175
-0.16
-0.165
-0.185
-0.21
-0.225
-0.225
-0.215
-0.205
-0.21
-0.225
-0.245
-0.235
-0.22
-0.22
-0.225
-0.23
-0.27
-0.25
-0.225
-0.225
-0.23
-0.245
-0.26
-0.245
-0.24
-0.21
-0.24
-0.245
-0.265
-0.24
-0.22
-0.205
-0.22
-0.235
-0.235
-0.235
-0.22
-0.19
-0.205
-0.225
-0.225
-0.22
-0.2
-0.19
-0.19
-0.2
-0.23
-0.23
-0.21
-0.21
-0.195
-0.185
-0.205
-0.22
-0.225
-0.19
-0.185
-0.2
-0.23
-0.205
-0.19
-0.16
-0.175
-0.17
-0.195
-0.195
-0.195
-0.185
-0.19
-0.21
-0.21
-0.205
-0.195
-0.18
-0.18
-0.205
-0.21
-0.21
-0.22
-0.2
-0.195
-0.205
-0.205
-0.2
-0.195
-0.19
-0.2
-0.21
-0.215
-0.225
-0.205
-0.2
-0.2
-0.215
-0.215
-0.2
-0.16
-0.1
-0.03
0.025
0.135
0.29
0.48
0.695
0.925
1.155
1.37
1.525
1.585
1.495
1.285
1.005
0.69
0.37
0.05
-0.225
-0.39
-0.405
-0.36
-0.3
-0.26
-0.235
-0.245
-0.265
-0.285
-0.3
-0.295
-0.305
-0.31
-0.32
-0.33
-0.33
-0.32
-0.32
-0.325
-0.345
-0.36
-0.375
-0.365
-0.345
-0.35
-0.365
-0.38
-0.38
-0.375
-0.35
-0.35
-0.36
-0.37
-0.37
-0.345
-0.34
-0.34
-0.35
-0.365
-0.355
-0.335
-0.325
-0.33
-0.345
-0.355
-0.345
-0.325
-0.31
-0.305
-0.32
-0.33
-0.32
-0.315
-0.295
-0.315
-0.325
-0.315
-0.305
-0.285
-0.275
-0.28
-0.3
-0.29
-0.265
-0.25
-0.24
-0.245
-0.25
-0.235
-0.225
-0.205
-0.185
-0.205
-0.22
-0.225
-0.2
-0.19
-0.19
-0.18
-0.185
-0.2
-0.19
-0.175
-0.17
-0.165
-0.175
-0.185
-0.165
-0.155
-0.14
-0.14
-0.13
-0.135
-0.14
-0.14
-0.12
-0.11
-0.135
-0.145
-0.14
-0.135
-0.125
-0.14
-0.16
-0.18
-0.19
-0.185
-0.195
-0.205
-0.215
-0.21
-0.2
-0.19
-0.185
-0.205
-0.245
-0.275
-0.28
-0.275
-0.245
-0.255
-0.265
-0.27
-0.285
-0.265
-0.265
-0.27
-0.285
-0.3
-0.285
-0.275
-0.265
-0.25
-0.26
-0.255
-0.255
-0.24
-0.23
-0.235
-0.245
-0.245
-0.25
-0.245
-0.225
-0.225
-0.25
-0.25
-0.225
-0.195
-0.205
-0.215
-0.23
-0.24
-0.21
-0.21
-0.185
-0.19
-0.2
-0.2
-0.185
-0.175
-0.165
-0.175
-0.185
-0.19
-0.19
-0.19
-0.185
-0.185
-0.2
-0.2
-0.185
-0.19
-0.185
-0.195
-0.22
-0.225
-0.23
-0.2
-0.2
-0.185
-0.22
-0.235
-0.23
-0.22
-0.2
-0.22
-0.235
-0.245
-0.24
-0.215
-0.215
-0.23
-0.25
-0.255
-0.23
-0.225
-0.22
-0.23
-0.25
-0.25
-0.24
-0.225
-0.21
-0.22
-0.245
-0.245
-0.23
-0.225
-0.2
-0.22
-0.22
-0.23
-0.215
-0.22
-0.205
-0.215
-0.22
-0.225
-0.215
-0.195
-0.18
-0.175
-0.19
-0.19
-0.19
-0.165
-0.185
-0.195
-0.215
-0.225
-0.225
-0.2
-0.195
-0.215
-0.21
-0.2
-0.2
-0.185
-0.185
-0.195
-0.21
-0.225
-0.21
-0.18
-0.145
-0.13
-0.105
-0.07
0.005
0.115
0.235
0.4
0.56
0.745
0.965
1.19
1.395
1.515
1.53
1.43
1.22
0.97
0.67
0.365
0.055
-0.185
-0.32
-0.345
-0.29
-0.25
-0.23
-0.23
-0.22
-0.21
-0.225
-0.23
-0.25
-0.27
-0.27
-0.265
-0.265
-0.29
-0.29
-0.29
-0.285
-0.275
-0.285
-0.28
-0.295
-0.29
-0.305
-0.295
-0.305
-0.305
-0.31
-0.315
-0.3
-0.29
-0.285
-0.29
-0.295
-0.31
-0.305
-0.285
-0.28
-0.275
-0.315
-0.34
-0.325
-0.305
-0.305
-0.295
-0.31
-0.325
-0.34
-0.325
-0.325
-0.325
-0.32
-0.33
-0.32
-0.315
-0.295
-0.3
-0.32
-0.32
-0.305
-0.28
-0.27
-0.27
-0.28
-0.29
-0.265
-0.27
-0.255
-0.255
-0.24
-0.235
-0.22
-0.195
-0.195
-0.215
-0.22
-0.22
-0.19
-0.175
-0.155
-0.16
-0.175
-0.155
-0.155
-0.14
-0.135
-0.14
-0.145
-0.16
-0.16
-0.145
-0.13
-0.115
-0.115
-0.125
-0.11
-0.095
-0.09
-0.12
-0.125
-0.13
-0.115
-0.095
-0.095
-0.11
-0.14
-0.14
-0.13
-0.14
-0.14
-0.155
-0.165
-0.195
-0.195
-0.185
-0.175
-0.165
-0.18
-0.19
-0.2
-0.215
-0.215
-0.225
-0.215
-0.23
-0.22
-0.21
-0.19
-0.205
-0.2
-0.195
-0.185
-0.19
-0.155
-0.135
-0.105
-0.08
-0.07
-0.04
-0.01
0.02
0.055
0.1
0.2
0.28
0.335
0.41
0.49
0.575
0.67
0.74
0.81
0.9
0.99
1.095
1.19
1.26
1.305
1.3
1.28
1.255
1.245
1.215
1.15
1.05
0.93
0.825
0.71
0.6
0.465
0.32
0.215
0.15
0.145
0.155
0.145
0.115
0.065
0.05
0.11
0.195
0.285
0.31
0.24
0.1
-0.085
-0.255
-0.405
-0.495
-0.535
-0.58
-0.58
-0.575
-0.58
-0.605
-0.65
-0.69
-0.695
-0.7
-0.695
-0.71
-0.745
-0.75
-0.76
-0.75
-0.755
-0.765
-0.79
-0.785
-0.81
-0.795
-0.79
-0.785
-0.81
-0.845
-0.845
-0.83
-0.83
-0.84
-0.85
-0.885
-0.89
-0.89
-0.885
-0.88
-0.895
-0.895
-0.89
-0.89
-0.875
-0.88
-0.895
-0.895
-0.885
-0.86
-0.84
-0.84
-0.845
-0.86
-0.865
-0.845
-0.815
-0.805
-0.8
-0.785
-0.765
-0.735
-0.695
-0.69
-0.7
-0.67
-0.645
-0.615
-0.575
-0.56
-0.555
-0.55
-0.545
-0.51
-0.47
-0.46
-0.475
-0.47
-0.465
-0.41
-0.4
-0.38
-0.39
-0.41
-0.405
-0.38
-0.36
-0.37
-0.385
-0.39
-0.375
-0.355
-0.335
-0.34
-0.35
-0.345
-0.325
-0.32
-0.315
-0.31
-0.32
-0.32
-0.31
-0.28
-0.26
-0.275
-0.285
-0.285
-0.27
-0.25
-0.24
-0.255
-0.275
-0.285
-0.27
-0.245
-0.23
-0.225
-0.25
-0.28
-0.28
-0.265
-0.25
-0.25
-0.255
-0.265
-0.265
-0.255
-0.245
-0.255
-0.28
-0.29
-0.275
-0.26
-0.26
-0.265
-0.27
-0.255
-0.225
-0.22
-0.225
-0.24
-0.25
-0.255
-0.255
-0.23
-0.23
-0.24
-0.24
-0.25
-0.245
-0.25
-0.225
-0.22
-0.24
-0.23
-0.205
-0.21
-0.225
-0.235
-0.245
-0.245
-0.24
-0.24
-0.245
-0.235
-0.245
-0.24
-0.235
-0.23
-0.22
-0.215
-0.255
-0.27
-0.26
-0.245
-0.245
-0.25
-0.265
-0.27
-0.28
-0.27
-0.265
-0.265
-0.29
-0.28
-0.265
-0.26
-0.235
-0.25
-0.255
-0.255
-0.23
-0.225
-0.215
-0.235
-0.24
-0.245
-0.24
-0.22
-0.21
-0.23
-0.25
-0.265
-0.24
-0.23
-0.23
-0.235
-0.24
-0.24
-0.225
-0.23
-0.215
-0.23
-0.255
-0.275
-0.25
-0.22
-0.22
-0.245
-0.27
-0.275
-0.265
-0.245
-0.245
-0.255
-0.27
-0.28
-0.27
-0.255
-0.25
-0.25
-0.24
-0.225
-0.21
-0.195
-0.195
-0.195
-0.205
-0.225
-0.205
-0.195
-0.185
-0.21
-0.215
-0.215
-0.195
-0.165
-0.16
-0.165
-0.175
-0.2
-0.19
-0.185
-0.17
-0.18
-0.195
-0.2
-0.195
-0.175
-0.19
-0.205
-0.2
-0.185
-0.185
-0.18
-0.165
-0.175
-0.17
-0.18
-0.175
-0.16
-0.145
-0.155
-0.17
-0.16
-0.145
-0.1
-0.04
0.02
0.08
0.215
0.39
0.59
0.825
1.055
1.285
1.46
1.625
1.675
1.575
1.32
0.985
0.635
0.305
-0.005
-0.2
-0.29
-0.275
-0.245
-0.18
-0.15
-0.15
-0.185
-0.225
-0.235
-0.245
-0.26
-0.27
-0.28
-0.285
-0.28
-0.26
-0.24
-0.235
-0.25
-0.25
-0.27
-0.265
-0.265
-0.265
-0.275
-0.29
-0.295
-0.295
-0.28
-0.27
-0.28
-0.29
-0.29
-0.295
-0.28
-0.265
-0.27
-0.3
-0.29
-0.275
-0.26
-0.265
-0.285
-0.29
-0.305
-0.295
-0.265
-0.255
-0.255
-0.275
-0.28
-0.27
-0.255
-0.24
-0.245
-0.275
-0.265
-0.24
-0.205
-0.2
-0.21
-0.215
-0.23
-0.205
-0.185
-0.175
-0.18
-0.175
-0.185
-0.155
-0.135
-0.13
-0.155
-0.17
-0.175
-0.15
-0.13
-0.11
-0.11
-0.12
-0.115
-0.1
-0.07
-0.07
-0.08
-0.075
-0.085
-0.075
-0.05
-0.035
-0.035
-0.015
-0.02
-0.025
0.0
-0.01
-0.025
-0.045
-0.04
-0.03
-0.025
-0.025
-0.03
-0.06
-0.05
-0.02
-0.01
-0.02
-0.055
-0.07
-0.11
-0.11
-0.09
-0.09
-0.085
-0.1
-0.11
-0.125
-0.105
-0.115
-0.125
-0.15
-0.15
-0.115
-0.11
-0.11
-0.125
-0.14
-0.12
-0.1
-0.085
-0.08
-0.08
-0.115
-0.115
-0.11
-0.085
-0.08
-0.095
-0.12
-0.13
-0.12
-0.115
-0.12
-0.15
-0.185
-0.18
-0.16
-0.14
-0.125
-0.125
-0.135
-0.135
-0.12
-0.12
-0.115
-0.095
-0.12
-0.13
-0.12
-0.12
-0.11
-0.105
-0.125
-0.125
-0.125
-0.11
-0.095
-0.095
-0.115
-0.125
-0.12
-0.12
-0.115
-0.115
-0.12
-0.12
-0.12
-0.095
-0.105
-0.125
-0.155
-0.15
-0.115
-0.105
-0.125
-0.145
-0.165
-0.15
-0.14
-0.125
-0.13
-0.145
-0.15
-0.145
-0.125
-0.135
-0.14
-0.15
-0.16
-0.145
-0.12
-0.11
-0.105
-0.135
-0.15
-0.13
-0.065
0.005
0.075
0.175
0.305
0.535
0.78
1.065
1.355
1.61
1.755
1.79
1.66
1.38
0.96
0.505
0.045
-0.29
-0.41
-0.36
-0.265
-0.2
-0.175
-0.195
-0.2
-0.21
-0.225
-0.26
-0.29
-0.3
-0.29
-0.275
-0.275
-0.3
-0.305
-0.31
-0.28
-0.255
-0.25
-0.285
-0.31
-0.31
-0.295
-0.275
-0.275
-0.28
-0.305
-0.315
-0.305
-0.305
-0.29
-0.29
-0.295
-0.305
-0.305
-0.3
-0.29
-0.285
-0.32
-0.31
-0.295
-0.275
-0.265
-0.28
-0.32
-0.31
-0.295
-0.27
-0.265
-0.255
-0.26
-0.245
-0.225
-0.23
-0.235
-0.23
-0.225
-0.2
-0.185
-0.165
-0.15
-0.155
-0.145
-0.14
-0.125
-0.11
-0.11
-0.115
-0.115
-0.115
-0.095
-0.08
-0.085
-0.095
-0.1
-0.11
-0.085
-0.085
-0.055
-0.06
-0.075
-0.075
-0.09
-0.08
-0.075
-0.08
-0.08
-0.1
-0.105
-0.11
-0.135
-0.15
-0.17
-0.16
-0.15
-0.155
-0.17
-0.18
-0.2
-0.2
-0.2
-0.21
-0.215
-0.24
-0.255
-0.26
-0.26
-0.255
-0.24
-0.23
-0.255
-0.255
-0.27
-0.27
-0.255
-0.255
-0.25
-0.255
-0.245
-0.22
-0.21
-0.22
-0.25
-0.265
-0.23
-0.215
-0.2
-0.205
-0.215
-0.215
-0.21
-0.165
-0.15
-0.16
-0.18
-0.2
-0.195
-0.17
-0.165
-0.16
-0.165
-0.195
-0.185
-0.18
-0.18
-0.175
-0.19
-0.2
-0.2
-0.19
-0.19
-0.21
-0.22
-0.215
-0.205
-0.2
-0.22
-0.22
-0.215
-0.22
-0.21
-0.19
-0.19
-0.2
-0.215
-0.215
-0.22
-0.22
-0.22
-0.225
-0.23
-0.24
-0.23
-0.22
-0.215
-0.24
-0.245
-0.245
-0.23
-0.21
-0.195
-0.19
-0.23
-0.24
-0.225
-0.225
-0.23
-0.24
-0.26
-0.255
-0.23
-0.2
-0.195
-0.215
-0.26
-0.255
-0.24
-0.215
-0.205
-0.215
-0.215
-0.215
-0.19
-0.195
-0.2
-0.205
-0.215
-0.22
-0.2
-0.165
-0.14
-0.16
-0.185
-0.19
-0.15
-0.08
0.0
0.075
0.145
0.285
0.485
0.715
0.945
1.17
1.375
1.555
1.585
1.465
1.185
0.825
0.45
0.05
-0.26
-0.405
-0.41
-0.33
-0.275
-0.245
-0.21
-0.21
-0.22
-0.25
-0.305
-0.305
-0.285
-0.285
-0.29
-0.3
-0.335
-0.35
-0.335
-0.34
-0.33
-0.34
-0.345
-0.365
-0.375
-0.345
-0.32
-0.315
-0.345
-0.36
-0.35
-0.335
-0.315
-0.32
-0.32
-0.315
-0.3
-0.305
-0.295
-0.305
-0.31
-0.3
-0.295
-0.285
-0.29
-0.32
-0.315
-0.3
-0.295
-0.295
-0.3
-0.295
-0.31
-0.335
-0.305
-0.295
-0.285
-0.285
-0.265
-0.265
-0.255
-0.265
-0.25
-0.24
-0.23
-0.24
-0.225
-0.22
-0.2
-0.235
-0.255
-0.245
-0.2
-0.17
-0.175
-0.2
-0.24
-0.25
-0.22
-0.19
-0.17
-0.165
-0.155
-0.155
-0.155
-0.165
-0.13
-0.1
-0.1
-0.1
-0.105
-0.1
-0.08
-0.08
-0.09
-0.11
-0.095
-0.095
-0.105
-0.125
-0.135
-0.14
-0.135
-0.15
-0.18
-0.195
-0.22
-0.24
-0.235
-0.23
-0.23
-0.22
-0.245
-0.245
-0.24
-0.25
-0.245
-0.26
-0.27
-0.29
-0.285
-0.28
-0.285
-0.305
-0.33
-0.325
-0.305
-0.275
-0.265
-0.26
-0.255
-0.26
-0.255
-0.235
-0.23
-0.23
-0.255
-0.275
-0.27
-0.225
-0.21
-0.195
-0.225
-0.24
-0.23
-0.2
-0.19
-0.195
-0.205
-0.225
-0.215
-0.21
-0.2
-0.22
-0.225
-0.23
-0.23
-0.23
-0.245
-0.25
-0.24
-0.235
-0.23
-0.25
-0.255
-0.275
-0.29
-0.285
-0.285
-0.275
-0.265
-0.265
-0.28
-0.29
-0.285
-0.27
-0.285
-0.31
-0.315
-0.305
-0.27
-0.26
-0.27
-0.28
-0.29
-0.315
-0.29
-0.26
-0.26
-0.26
-0.265
-0.265
-0.25
-0.255
-0.255
-0.27
-0.265
-0.26
-0.25
-0.245
-0.23
-0.235
-0.245
-0.25
-0.235
-0.205
-0.185
-0.155
-0.095
-0.055
0.03
0.17
0.345
0.535
0.75
0.995
1.225
1.44
1.58
1.53
1.32
0.995
0.645
0.27
-0.125
-0.45
-0.6
-0.575
-0.49
-0.41
-0.375
-0.325
-0.325
-0.33
-0.34
-0.335
-0.335
-0.335
-0.36
-0.36
-0.365
-0.345
-0.35
-0.365
-0.355
-0.375
-0.365
-0.345
-0.335
-0.355
-0.385
-0.39
-0.365
-0.36
-0.385
-0.38
-0.375
-0.385
-0.385
-0.395
-0.38
-0.365
-0.37
-0.39
-0.395
-0.385
-0.38
-0.4
-0.405
-0.405
-0.385
-0.38
-0.375
-0.38
-0.395
-0.4
-0.39
-0.36
-0.365
-0.375
-0.41
-0.43
-0.42
-0.37
-0.355
-0.345
-0.33
-0.31
-0.285
-0.27
-0.26
-0.275
-0.285
-0.27
-0.235
-0.22
-0.215
-0.22
-0.225
-0.22
-0.23
-0.23
-0.245
-0.245
-0.24
-0.215
-0.205
-0.18
-0.175
-0.195
-0.195
-0.195
-0.18
-0.185
-0.19
-0.2
-0.205
-0.215
-0.225
-0.225
-0.215
-0.21
-0.22
-0.225
-0.23
-0.23
-0.245
-0.24
-0.255
-0.26
-0.26
-0.26
-0.285
-0.315
-0.34
-0.35
-0.32
-0.29
-0.3
-0.325
-0.335
-0.34
-0.34
-0.325
-0.31
-0.305
-0.32
-0.315
-0.32
-0.29
-0.295
-0.32
-0.325
-0.32
-0.32
-0.32
-0.325
-0.335
-0.325
-0.31
-0.3
-0.285
-0.285
-0.29
-0.315
-0.31
-0.29
-0.255
-0.235
-0.245
-0.27
-0.295
-0.285
-0.285
-0.265
-0.265
-0.285
-0.295
-0.28
-0.25
-0.245
-0.24
-0.255
-0.265
-0.265
-0.255
-0.265
-0.285
-0.29
-0.29
-0.305
-0.29
-0.3
-0.3
-0.295
-0.31
-0.285
-0.265
-0.255
-0.27
-0.275
-0.27
-0.275
-0.28
-0.275
-0.285
-0.285
-0.27
-0.255
-0.275
-0.295
-0.31
-0.275
-0.215
-0.145
-0.065
0.04
0.175
0.355
0.585
0.87
1.12
1.34
1.505
1.54
1.43
1.2
0.87
0.49
0.075
-0.335
-0.595
-0.635
-0.535
-0.44
-0.405
-0.405
-0.39
-0.35
-0.345
-0.35
-0.375
-0.39
-0.395
-0.395
-0.39
-0.415
-0.45
-0.46
-0.445
-0.435
-0.395
-0.4
-0.42
-0.465
-0.455
-0.445
-0.435
-0.43
-0.415
-0.425
-0.43
-0.425
-0.435
-0.45
-0.455
-0.46
-0.465
-0.445
-0.44
-0.45
-0.455
-0.46
-0.45
-0.45
-0.455
-0.46
-0.455
-0.445
-0.435
-0.405
-0.42
-0.445
-0.45
-0.46
-0.45
-0.43
-0.42
-0.42
-0.405
-0.42
-0.395
-0.385
-0.36
-0.345
-0.34
-0.36
-0.355
-0.35
-0.31
-0.285
-0.26
-0.265
-0.26
-0.245
-0.235
-0.235
-0.245
-0.245
-0.22
-0.205
-0.225
-0.24
-0.245
-0.245
-0.245
-0.23
-0.225
-0.2
-0.215
-0.24
-0.23
-0.22
-0.205
-0.22
-0.23
-0.23
-0.245
-0.26
-0.23
-0.24
-0.26
-0.275
-0.29
-0.295
-0.285
-0.295
-0.34
-0.38
-0.36
-0.33
-0.3
-0.31
-0.345
-0.36
-0.365
-0.355
-0.345
-0.355
-0.37
-0.375
-0.345
-0.35
-0.35
-0.335
-0.34
-0.385
-0.4
-0.37
-0.335
-0.34
-0.36
-0.395
-0.39
-0.38
-0.35
-0.355
-0.365
-0.37
-0.37
-0.36
-0.38
-0.375
-0.37
-0.35
-0.345
-0.34
-0.345
-0.325
-0.325
-0.36
-0.36
-0.33
-0.315
-0.32
-0.36
-0.385
-0.36
-0.335
-0.29
-0.29
-0.315
-0.335
-0.325
-0.285
-0.29
-0.33
-0.33
-0.33
-0.315
-0.32
-0.305
-0.315
-0.345
-0.375
-0.36
-0.335
-0.32
-0.325
-0.335
-0.345
-0.37
-0.39
-0.34
-0.305
-0.315
-0.365
-0.38
-0.36
-0.33
-0.31
-0.32
-0.36
-0.375
-0.375
-0.365
-0.335
-0.355
-0.375
-0.38
-0.36
-0.305
-0.285
-0.31
-0.375
-0.37
-0.34
-0.32
-0.325
-0.34
-0.34
-0.33
-0.3
-0.285
-0.3
-0.31
-0.315
-0.33
-0.32
-0.305
-0.28
-0.285
-0.255
-0.225
-0.14
-0.07
-0.005
0.08
0.25
0.475
0.735
0.98
1.2
1.345
1.395
1.355
1.195
0.915
0.555
0.165
-0.215
-0.545
-0.69
-0.645
-0.545
-0.475
-0.46
-0.44
-0.415
-0.365
-0.36
-0.39
-0.415
-0.425
-0.42
-0.41
-0.405
-0.44
-0.455
-0.435
-0.415
-0.395
-0.415
-0.435
-0.42
-0.43
-0.42
-0.405
-0.375
-0.41
-0.445
-0.455
-0.435
-0.415
-0.41
-0.425
-0.43
-0.44
-0.41
-0.385
-0.405
-0.41
-0.445
-0.445
-0.42
-0.4
-0.395
-0.42
-0.445
-0.445
-0.395
-0.375
-0.39
-0.41
-0.42
-0.41
-0.38
-0.365
-0.365
-0.37
-0.375
-0.37
-0.325
-0.295
-0.29
-0.315
-0.355
-0.35
-0.32
-0.275
-0.27
-0.285
-0.29
-0.265
-0.225
-0.21
-0.23
-0.255
-0.265
-0.255
-0.22
-0.18
-0.18
-0.185
-0.215
-0.225
-0.205
-0.18
-0.17
-0.185
-0.18
-0.195
-0.195
-0.17
-0.15
-0.17
-0.2
-0.2
-0.195
-0.185
-0.19
-0.215
-0.24
-0.245
-0.22
-0.215
-0.225
-0.24
-0.255
-0.27
-0.255
-0.245
-0.245
-0.26
-0.29
-0.3
-0.29
-0.28
-0.305
-0.32
-0.34
-0.34
-0.3
-0.27
-0.25
-0.27
-0.31
-0.335
-0.335
-0.31
-0.28
-0.295
-0.3
-0.3
-0.29
-0.28
-0.295
-0.3
-0.32
-0.31
-0.31
-0.27
-0.255
-0.24
-0.24
-0.22
-0.205
-0.17
-0.15
-0.145
-0.13
-0.11
-0.09
-0.035
0.03
0.09
0.155
0.21
0.27
0.33
0.41
0.495
0.555
0.625
0.71
0.815
0.915
0.995
1.045
1.095
1.12
1.12
1.095
1.07
1.075
1.085
1.06
1.045
1.005
0.92
0.815
0.705
0.585
0.495
0.405
0.335
0.275
0.225
0.185
0.175
0.155
0.13
0.1
0.11
0.15
0.205
0.31
0.355
0.35
0.24
0.075
-0.11
-0.315
-0.455
-0.54
-0.58
-0.58
-0.565
-0.58
-0.625
-0.665
-0.695
-0.715
-0.695
-0.685
-0.715
-0.73
-0.74
-0.735
-0.74
-0.73
-0.75
-0.775
-0.795
-0.795
-0.79
-0.8
-0.81
-0.845
-0.855
-0.875
-0.86
-0.86
-0.87
-0.9
-0.92
-0.91
-0.9
-0.925
-0.935
-0.95
-0.97
-0.975
-0.965
-0.955
-0.955
-0.98
-0.975
-0.965
-0.945
-0.955
-0.97
-0.96
-0.96
-0.935
-0.905
-0.885
-0.895
-0.905
-0.88
-0.85
-0.805
-0.79
-0.795
-0.78
-0.75
-0.72
-0.68
-0.655
-0.625
-0.61
-0.59
-0.565
-0.525
-0.485
-0.48
-0.465
-0.445
-0.425
-0.385
-0.37
-0.375
-0.39
-0.37
-0.36
-0.33
-0.305
-0.31
-0.31
-0.335
-0.34
-0.31
-0.315
-0.315
-0.35
-0.37
-0.36
-0.34
-0.32
-0.32
-0.32
-0.33
-0.305
-0.285
-0.3
-0.325
-0.335
-0.31
-0.295
-0.275
-0.285
-0.29
-0.3
-0.29
-0.275
-0.255
-0.255
-0.27
-0.29
-0.27
-0.27
-0.255
-0.26
-0.26
-0.285
-0.27
-0.255
-0.225
-0.25
-0.245
-0.245
-0.265
-0.27
-0.24
-0.23
-0.22
-0.21
-0.205
-0.21
-0.22
-0.225
-0.245
-0.255
-0.25
-0.23
-0.21
-0.22
-0.21
-0.235
-0.25
-0.235
-0.24
-0.245
-0.24
-0.245
-0.245
-0.22
-0.2
-0.2
-0.24
-0.245
-0.25
-0.225
-0.215
-0.22
-0.225
-0.24
-0.24
-0.23
-0.215
-0.215
-0.22
