Lead II
-0.565
-0.57
-0.54
-0.56
-0.585
-0.6
-0.62
-0.61
-0.615
-0.615
-0.63
-0.64
-0.65
-0.645
-0.65
-0.66
-0.675
-0.695
-0.705
-0.69
-0.675
-0.685
-0.7
-0.7
-0.705
-0.7
-0.68
-0.67
-0.685
-0.69
-0.7
-0.66
-0.625
-0.615
-0.625
-0.62
-0.61
-0.565
-0.54
-0.515
-0.495
-0.48
-0.46
-0.425
-0.4
-0.355
-0.34
-0.325
-0.31
-0.28
-0.255
-0.245
-0.245
-0.26
-0.26
-0.245
-0.24
-0.235
-0.26
-0.275
-0.275
-0.265
-0.25
-0.25
-0.26
-0.275
-0.285
-0.27
-0.24
-0.245
-0.275
-0.275
-0.285
-0.28
-0.265
-0.255
-0.255
-0.28
-0.28
-0.255
-0.26
-0.26
-0.275
-0.28
-0.28
-0.275
-0.255
-0.26
-0.265
-0.29
-0.3
-0.28
-0.26
-0.255
-0.255
-0.245
-0.225
-0.21
-0.19
-0.165
-0.15
-0.125
-0.075
-0.015
0.05
0.12
0.175
0.245
0.335
0.41
0.515
0.605
0.675
0.715
0.805
0.9
0.97
1.035
1.09
1.125
1.17
1.185
1.165
1.13
1.075
1.03
0.98
0.955
0.945
0.935
0.915
0.88
0.875
0.91
0.98
1.045
1.07
1.035
0.955
0.855
0.75
0.585
0.38
0.18
0.02
-0.075
-0.145
-0.18
-0.235
-0.28
-0.305
-0.34
-0.36
-0.4
-0.435
-0.48
-0.505
-0.51
-0.505
-0.525
-0.54
-0.57
-0.575
-0.58
-0.575
-0.58
-0.605
-0.625
-0.64
-0.645
-0.65
-0.64
-0.67
-0.67
-0.69
-0.675
-0.67
-0.68
-0.69
-0.715
-0.705
-0.71
-0.72
-0.72
-0.73
-0.755
-0.76
-0.76
-0.735
-0.735
-0.745
-0.765
-0.75
-0.745
-0.715
-0.71
-0.71
-0.725
-0.715
-0.69
-0.65
-0.64
-0.63
-0.63
-0.605
-0.565
-0.515
-0.49
-0.475
-0.465
-0.435
-0.4
-0.36
-0.345
-0.34
-0.34
-0.345
-0.315
-0.28
-0.29
-0.29
-0.295
-0.285
-0.275
-0.26
-0.265
-0.285
-0.29
-0.295
-0.275
-0.27
-0.265
-0.29
-0.295
-0.305
-0.29
-0.275
-0.275
-0.28
-0.285
-0.285
-0.26
-0.25
-0.24
-0.255
-0.265
-0.255
-0.255
-0.245
-0.255
-0.265
-0.265
-0.265
-0.265
-0.245
-0.25
-0.255
-0.255
-0.245
-0.245
-0.23
-0.21
-0.22
-0.24
-0.235
-0.24
-0.215
-0.22
-0.23
-0.235
-0.235
-0.23
-0.21
-0.2
-0.21
-0.215
-0.21
-0.205
-0.19
-0.185
-0.205
-0.22
-0.22
-0.215
-0.195
-0.19
-0.195
-0.215
-0.22
-0.195
-0.18
-0.18
-0.18
-0.2
-0.215
-0.195
-0.18
-0.185
-0.19
-0.22
-0.22
-0.2
-0.185
-0.19
-0.2
-0.205
-0.205
-0.185
-0.175
-0.16
-0.18
-0.2
-0.2
-0.185
-0.18
-0.185
-0.205
-0.2
-0.21
-0.195
-0.18
-0.17
-0.185
-0.195
-0.195
-0.185
-0.17
-0.175
-0.195
-0.2
-0.19
-0.185
-0.165
-0.17
-0.185
-0.195
-0.2
-0.185
-0.165
-0.17
-0.17
-0.185
-0.185
-0.17
-0.155
-0.16
-0.17
-0.185
-0.19
-0.185
-0.16
-0.17
-0.175
-0.185
-0.18
-0.165
-0.15
-0.155
-0.16
-0.185
-0.185
-0.175
-0.145
-0.155
-0.16
-0.175
-0.185
-0.185
-0.17
-0.16
-0.16
-0.17
-0.185
-0.15
-0.135
-0.13
-0.14
-0.16
-0.155
-0.135
-0.135
-0.12
-0.125
-0.115
-0.105
-0.08
-0.06
-0.065
-0.07
-0.065
-0.045
-0.02
0.005
0.01
-0.01
-0.005
-0.025
-0.025
-0.025
-0.03
-0.045
-0.08
-0.1
-0.105
-0.1
-0.115
-0.13
-0.14
-0.15
-0.15
-0.13
-0.145
-0.155
-0.18
-0.185
-0.175
-0.16
-0.16
-0.17
-0.19
-0.195
-0.175
-0.15
-0.145
-0.155
-0.165
-0.17
-0.155
-0.145
-0.135
-0.155
-0.175
-0.175
-0.1
0.0
0.125
0.265
0.44
0.69
0.945
1.245
1.49
1.585
1.455
1.18
0.865
0.535
0.245
0.055
-0.055
-0.095
-0.155
-0.16
-0.155
-0.13
-0.135
-0.145
-0.16
-0.145
-0.16
-0.165
-0.18
-0.19
-0.185
-0.165
-0.17
-0.185
-0.19
-0.2
-0.195
-0.17
-0.18
-0.19
-0.195
-0.195
-0.185
-0.175
-0.16
-0.16
-0.175
-0.175
-0.17
-0.16
-0.15
-0.15
-0.18
-0.165
-0.14
-0.12
-0.105
-0.115
-0.13
-0.12
-0.105
-0.085
-0.08
-0.08
-0.105
-0.09
-0.055
-0.025
-0.025
-0.02
-0.025
-0.03
0.0
0.025
0.03
0.03
0.035
0.05
0.075
0.11
0.11
0.12
0.105
0.105
0.135
0.17
0.185
0.195
0.2
0.205
0.235
0.255
0.265
0.255
0.24
0.265
0.27
0.285
0.27
0.255
0.21
0.205
0.19
0.195
0.185
0.155
0.12
0.09
0.075
0.08
0.06
0.015
-0.015
-0.05
-0.075
-0.065
-0.075
-0.115
-0.145
-0.145
-0.16
-0.145
-0.14
-0.165
-0.175
-0.18
-0.18
-0.16
-0.17
-0.185
-0.2
-0.21
-0.21
-0.2
-0.195
-0.22
-0.215
-0.22
-0.21
-0.195
-0.175
-0.175
-0.185
-0.195
-0.185
-0.19
-0.18
-0.195
-0.215
-0.205
-0.22
-0.19
-0.18
-0.21
-0.225
-0.22
-0.205
-0.18
-0.18
-0.18
-0.205
-0.195
-0.185
-0.175
-0.185
-0.185
-0.19
-0.17
-0.165
-0.125
-0.12
-0.125
-0.135
-0.12
-0.085
-0.055
-0.04
-0.04
-0.055
-0.07
-0.065
-0.04
-0.035
-0.065
-0.095
-0.085
-0.06
0.0
0.035
0.055
0.065
0.1
0.17
0.25
0.32
0.375
0.435
0.5
0.59
0.665
0.745
0.82
0.895
0.955
1.03
1.12
1.215
1.295
1.335
1.32
1.285
1.235
1.19
1.155
1.11
1.085
1.075
1.075
1.055
1.005
0.98
0.95
0.965
0.995
1.01
0.97
0.9
0.8
0.665
0.5
0.3
0.065
-0.125
-0.28
-0.39
-0.42
-0.455
-0.49
-0.52
-0.535
-0.55
-0.545
-0.565
-0.59
-0.625
-0.615
-0.62
-0.615
-0.62
-0.64
-0.66
-0.68
-0.675
-0.66
-0.65
-0.68
-0.71
-0.715
-0.71
-0.7
-0.695
-0.715
-0.75
-0.765
-0.75
-0.755
-0.755
-0.77
-0.805
-0.8
-0.8
-0.78
-0.795
-0.81
-0.825
-0.835
-0.825
-0.81
-0.805
-0.815
-0.835
-0.825
-0.82
-0.79
-0.765
-0.765
-0.76
-0.75
-0.72
-0.685
-0.66
-0.64
-0.645
-0.63
-0.595
-0.555
-0.535
-0.52
-0.505
-0.475
-0.445
-0.395
-0.39
-0.395
-0.385
-0.375
-0.34
-0.335
-0.325
-0.34
-0.36
-0.355
-0.35
-0.345
-0.355
-0.37
-0.37
-0.385
-0.375
-0.355
-0.355
-0.36
-0.395
-0.38
-0.345
-0.345
-0.355
-0.37
-0.395
-0.395
-0.375
-0.365
-0.365
-0.365
-0.38
-0.385
-0.375
-0.37
-0.365
-0.38
-0.38
-0.39
-0.375
-0.365
-0.37
-0.37
-0.38
-0.37
-0.34
-0.31
-0.28
-0.265
-0.245
-0.205
-0.135
-0.05
0.0
0.06
0.12
0.19
0.295
0.41
0.495
0.55
0.6
0.675
0.775
0.87
0.935
0.975
1.06
1.13
1.185
1.19
1.14
1.09
1.02
0.99
0.96
0.945
0.92
0.88
0.84
0.83
0.865
0.915
0.98
1.0
0.945
0.815
0.645
0.42
0.165
-0.085
-0.26
-0.365
-0.425
-0.465
-0.52
-0.565
-0.62
-0.64
-0.66
-0.655
-0.665
-0.685
-0.7
-0.71
-0.7
-0.715
-0.715
-0.73
-0.765
-0.78
-0.77
-0.775
-0.78
-0.795
-0.8
-0.815
-0.81
-0.8
-0.8
-0.825
-0.855
-0.865
-0.86
-0.845
-0.865
-0.88
-0.9
-0.9
-0.89
-0.875
-0.88
-0.89
-0.895
-0.89
-0.885
-0.865
-0.84
-0.835
-0.855
-0.83
-0.82
-0.785
-0.77
-0.765
-0.765
-0.745
-0.725
-0.695
-0.67
-0.645
-0.64
-0.615
-0.565
-0.55
-0.505
-0.5
-0.49
-0.49
-0.46
-0.435
-0.425
-0.42
-0.43
-0.42
-0.42
-0.405
-0.39
-0.41
-0.41
-0.425
-0.41
-0.395
-0.38
-0.4
-0.415
-0.425
-0.42
-0.4
-0.4
-0.405
-0.43
-0.425
-0.425
-0.405
-0.4
-0.395
-0.405
-0.41
-0.4
-0.385
-0.38
-0.395
-0.405
-0.405
-0.395
-0.395
-0.39
-0.395
-0.415
-0.4
-0.385
-0.365
-0.355
-0.37
-0.375
-0.38
-0.37
-0.375
-0.37
-0.38
-0.395
-0.39
-0.385
-0.365
-0.35
-0.35
-0.365
-0.365
-0.355
-0.32
-0.32
-0.335
-0.34
-0.35
-0.335
-0.31
-0.315
-0.335
-0.345
-0.36
-0.35
-0.335
-0.325
-0.315
-0.335
-0.34
-0.325
-0.31
-0.305
-0.305
-0.325
-0.325
-0.325
-0.31
-0.305
-0.305
-0.325
-0.335
-0.315
-0.305
-0.3
-0.295
-0.31
-0.31
-0.295
-0.28
-0.285
-0.305
-0.32
-0.335
-0.32
-0.3
-0.3
-0.325
-0.32
-0.32
-0.31
-0.285
-0.285
-0.3
-0.31
-0.32
-0.28
-0.28
-0.275
-0.29
-0.3
-0.315
-0.29
-0.29
-0.295
-0.295
-0.29
-0.3
-0.3
-0.275
-0.25
-0.255
-0.285
-0.295
-0.28
-0.27
-0.265
-0.275
-0.285
-0.285
-0.265
-0.225
-0.205
-0.195
-0.21
-0.215
-0.215
-0.185
-0.17
-0.155
-0.145
-0.15
-0.14
-0.12
-0.125
-0.14
-0.15
-0.17
-0.165
-0.165
-0.165
-0.195
-0.23
-0.245
-0.245
-0.225
-0.235
-0.255
-0.29
-0.28
-0.28
-0.27
-0.28
-0.285
-0.3
-0.305
-0.285
-0.265
-0.255
-0.27
-0.285
-0.29
-0.28
-0.26
-0.255
-0.27
-0.295
-0.32
-0.315
-0.28
-0.19
-0.085
0.08
0.285
0.55
0.825
1.08
1.3
1.46
1.495
1.32
0.975
0.59
0.225
-0.04
-0.16
-0.205
-0.23
-0.255
-0.275
-0.265
-0.25
-0.24
-0.235
-0.25
-0.255
-0.27
-0.29
-0.285
-0.28
-0.285
-0.295
-0.315
-0.3
-0.285
-0.275
-0.265
-0.275
-0.28
-0.285
-0.27
-0.25
-0.245
-0.26
-0.265
-0.285
-0.265
-0.245
-0.24
-0.25
-0.245
-0.24
-0.25
-0.225
-0.205
-0.225
-0.205
-0.21
-0.205
-0.175
-0.165
-0.175
-0.185
-0.185
-0.175
-0.14
-0.13
-0.12
-0.12
-0.115
-0.095
-0.07
-0.045
-0.045
-0.02
-0.01
0.005
0.03
0.03
0.05
0.045
0.04
0.055
0.095
0.115
0.13
0.135
0.145
0.17
0.185
0.21
0.2
0.205
0.195
0.2
0.21
0.195
0.19
0.165
0.155
0.145
0.135
0.13
0.09
0.06
0.03
0.01
0.0
-0.015
-0.04
-0.075
-0.1
-0.11
-0.115
-0.14
-0.16
-0.185
-0.205
-0.205
-0.21
-0.2
-0.21
-0.23
-0.24
-0.23
-0.22
-0.23
-0.235
-0.26
-0.265
-0.255
-0.25
-0.25
-0.26
-0.265
-0.27
-0.265
-0.25
-0.25
-0.255
-0.26
-0.26
-0.255
-0.25
-0.23
-0.235
-0.245
-0.255
-0.25
-0.245
-0.24
-0.245
-0.255
-0.245
-0.245
-0.21
-0.21
-0.215
-0.23
-0.22
-0.19
-0.17
-0.145
-0.16
-0.16
-0.175
-0.155
-0.14
-0.125
-0.11
-0.11
-0.095
-0.085
-0.075
-0.08
-0.09
-0.1
-0.1
-0.105
-0.1
-0.11
-0.14
-0.175
-0.19
-0.19
-0.185
-0.21
-0.2
-0.225
-0.24
-0.24
-0.2
-0.19
-0.165
-0.15
-0.11
-0.055
0.005
0.07
0.13
0.175
0.23
0.31
0.39
0.475
0.515
0.545
0.615
0.705
0.81
0.89
0.95
0.995
1.06
1.155
1.235
1.255
1.25
1.255
1.29
1.355
1.43
1.505
1.56
1.62
1.685
1.69
1.585
1.345
1.045
0.78
0.535
0.325
0.125
-0.055
-0.205
-0.305
-0.38
-0.425
-0.42
-0.435
-0.48
-0.51
-0.545
-0.545
-0.53
-0.535
-0.55
-0.58
-0.59
-0.59
-0.59
-0.59
-0.625
-0.62
-0.625
-0.62
-0.6
-0.595
-0.61
-0.635
-0.64
-0.635
-0.63
-0.625
-0.64
-0.665
-0.675
-0.685
-0.685
-0.675
-0.695
-0.715
-0.73
-0.71
-0.7
-0.695
-0.725
-0.725
-0.74
-0.73
-0.72
-0.735
-0.74
-0.755
-0.75
-0.75
-0.72
-0.725
-0.72
-0.735
-0.705
-0.695
-0.67
-0.65
-0.65
-0.655
-0.64
-0.62
-0.59
-0.575
-0.58
-0.565
-0.55
-0.535
-0.505
-0.465
-0.455
-0.44
-0.43
-0.39
-0.355
-0.355
-0.335
-0.33
-0.33
-0.32
-0.335
-0.325
-0.335
-0.35
-0.36
-0.35
-0.33
-0.33
-0.345
-0.355
-0.365
-0.35
-0.34
-0.34
-0.35
-0.36
-0.37
-0.365
-0.365
-0.36
-0.365
-0.37
-0.395
-0.38
-0.35
-0.36
-0.355
-0.37
-0.385
-0.375
-0.35
-0.355
-0.36
-0.38
-0.385
-0.39
-0.38
-0.38
-0.37
-0.38
-0.395
-0.375
-0.37
-0.355
-0.37
-0.365
-0.365
-0.35
-0.335
-0.335
-0.33
-0.32
-0.315
-0.285
-0.255
-0.245
-0.2
-0.18
-0.14
-0.08
0.0
0.055
0.12
0.195
0.285
0.375
0.475
0.54
0.595
0.66
0.73
0.835
0.92
0.965
1.005
1.04
1.095
1.15
1.19
1.205
1.145
1.075
1.015
0.995
0.96
0.91
0.87
0.835
0.795
0.75
0.745
0.74
0.72
0.74
0.805
0.86
0.875
0.805
0.7
0.565
0.385
0.21
0.03
-0.165
-0.305
-0.425
-0.5
-0.555
-0.57
-0.58
-0.615
-0.65
-0.65
-0.65
-0.65
-0.66
-0.68
-0.695
-0.72
-0.71
-0.705
-0.705
-0.725
-0.745
-0.76
-0.765
-0.75
-0.755
-0.765
-0.775
-0.775
-0.765
-0.755
-0.77
-0.77
-0.785
-0.805
-0.81
-0.8
-0.8
-0.815
-0.83
-0.84
-0.82
-0.82
-0.82
-0.825
-0.845
-0.83
-0.83
-0.8
-0.805
-0.805
-0.805
-0.825
-0.805
-0.79
-0.78
-0.8
-0.805
-0.81
-0.775
-0.74
-0.725
-0.735
-0.73
-0.715
-0.7
-0.68
-0.665
-0.66
-0.66
-0.63
-0.6
-0.57
-0.565
-0.56
-0.55
-0.53
-0.51
-0.475
-0.455
-0.44
-0.45
-0.445
-0.425
-0.405
-0.395
-0.395
-0.415
-0.41
-0.415
-0.405
-0.405
-0.41
-0.415
-0.415
-0.405
-0.39
-0.39
-0.395
-0.41
-0.42
-0.425
-0.405
-0.395
-0.42
-0.43
-0.43
-0.425
-0.41
-0.41
-0.425
-0.43
-0.435
-0.425
-0.4
-0.41
-0.415
-0.415
-0.425
-0.415
-0.41
-0.4
-0.415
-0.435
-0.44
-0.415
-0.4
-0.4
-0.395
-0.415
-0.415
-0.395
-0.39
-0.39
-0.38
-0.395
-0.41
-0.39
-0.37
-0.365
-0.38
-0.385
-0.39
-0.39
-0.38
-0.385
-0.38
-0.38
-0.395
-0.375
-0.36
-0.365
-0.375
-0.385
-0.37
-0.36
-0.355
-0.36
-0.375
-0.38
-0.38
-0.36
-0.345
-0.35
-0.365
-0.375
-0.385
-0.375
-0.35
-0.34
-0.355
-0.36
-0.365
-0.365
-0.355
-0.355
-0.375
-0.385
-0.385
-0.37
-0.35
-0.355
-0.365
-0.36
-0.355
-0.355
-0.34
-0.35
-0.35
-0.375
-0.38
-0.36
-0.33
-0.33
-0.315
-0.315
-0.31
-0.285
-0.28
-0.275
-0.27
-0.26
-0.245
-0.225
-0.2
-0.195
-0.205
-0.23
-0.24
-0.25
-0.225
-0.23
-0.235
-0.265
-0.295
-0.305
-0.315
-0.34
-0.34
-0.355
-0.37
-0.38
-0.37
-0.37
-0.39
-0.395
-0.395
-0.38
-0.36
-0.355
-0.38
-0.395
-0.39
-0.385
-0.365
-0.37
-0.375
-0.395
-0.39
-0.385
-0.38
-0.375
-0.385
-0.41
-0.415
-0.37
-0.27
-0.15
-0.015
0.17
0.395
0.68
0.99
1.275
1.455
1.44
1.225
0.895
0.545
0.185
-0.115
-0.305
-0.37
-0.37
-0.385
-0.385
-0.365
-0.345
-0.355
-0.35
-0.355
-0.38
-0.4
-0.41
-0.425
-0.415
-0.395
-0.38
-0.395
-0.405
-0.415
-0.41
-0.38
-0.38
-0.38
-0.39
-0.385
-0.385
-0.365
-0.365
-0.365
-0.375
-0.39
-0.38
-0.365
-0.35
-0.36
-0.37
-0.36
-0.345
-0.325
-0.325
-0.315
-0.32
-0.32
-0.315
-0.285
-0.29
-0.285
-0.3
-0.305
-0.295
-0.255
-0.235
-0.24
-0.25
-0.24
-0.215
-0.19
-0.17
-0.175
-0.17
-0.17
-0.15
-0.12
-0.1
-0.095
-0.105
-0.085
-0.065
-0.04
-0.015
-0.015
-0.025
-0.005
0.005
0.015
0.04
0.025
0.015
0.03
0.04
0.07
0.075
0.075
0.065
0.05
0.035
0.045
0.035
0.0
-0.025
-0.05
-0.065
-0.065
-0.095
-0.135
-0.175
-0.205
-0.215
-0.225
-0.23
-0.25
-0.275
-0.3
-0.31
-0.295
-0.31
-0.335
-0.365
-0.375
-0.365
-0.36
-0.37
-0.39
-0.39
-0.405
-0.395
-0.36
-0.365
-0.365
-0.385
-0.4
-0.38
-0.375
-0.355
-0.36
-0.37
-0.37
-0.375
-0.37
-0.37
-0.37
-0.375
-0.385
-0.365
-0.345
-0.35
-0.33
-0.37
-0.375
-0.365
-0.345
-0.34
-0.345
-0.36
-0.365
-0.355
-0.335
-0.305
-0.305
-0.315
-0.305
-0.29
-0.26
-0.245
-0.255
-0.25
-0.23
-0.23
-0.2
-0.2
-0.21
-0.215
-0.23
-0.23
-0.225
-0.235
-0.25
-0.28
-0.29
-0.295
-0.285
-0.305
-0.34
-0.36
-0.37
-0.365
-0.365
-0.38
-0.38
-0.405
-0.43
-0.425
-0.395
-0.38
-0.4
-0.405
-0.41
-0.39
-0.375
-0.355
-0.35
-0.32
-0.295
-0.235
-0.14
-0.07
-0.005
0.065
0.13
0.2
0.295
0.405
0.515
0.655
0.84
1.095
1.405
1.675
1.89
2.01
1.97
1.755
1.405
0.96
0.47
0.06
-0.185
-0.28
-0.32
-0.355
-0.375
-0.41
-0.42
-0.43
-0.45
-0.46
-0.47
-0.51
-0.52
-0.51
-0.5
-0.49
-0.5
-0.51
-0.515
-0.52
-0.495
-0.49
-0.51
-0.51
-0.52
-0.515
-0.51
-0.505
-0.525
-0.555
-0.54
-0.525
-0.505
-0.49
-0.51
-0.515
-0.53
-0.525
-0.49
-0.48
-0.5
-0.535
-0.525
-0.535
-0.515
-0.51
-0.515
-0.53
-0.53
-0.51
-0.495
-0.47
-0.48
-0.495
-0.485
-0.475
-0.445
-0.435
-0.445
-0.44
-0.445
-0.42
-0.385
-0.375
-0.37
-0.37
-0.35
-0.32
-0.31
-0.285
-0.275
-0.28
-0.275
-0.255
-0.225
-0.21
-0.225
-0.25
-0.245
-0.26
-0.255
-0.26
-0.28
-0.305
-0.31
-0.325
-0.32
-0.32
-0.325
-0.355
-0.37
-0.365
-0.36
-0.37
-0.37
-0.405
-0.415
-0.42
-0.39
-0.375
-0.385
-0.395
-0.395
-0.39
-0.385
-0.365
-0.38
-0.41
-0.41
-0.38
-0.385
-0.38
-0.38
-0.4
-0.41
-0.39
-0.38
-0.365
-0.375
-0.385
-0.38
-0.38
-0.37
-0.355
-0.36
-0.38
-0.375
-0.37
-0.355
-0.37
-0.365
-0.375
-0.375
-0.355
-0.325
-0.31
-0.31
-0.305
-0.285
-0.245
-0.19
-0.15
-0.095
-0.04
-0.005
0.085
0.185
0.265
0.325
0.395
0.515
0.635
0.755
0.855
0.95
1.02
1.105
1.18
1.27
1.355
1.39
1.36
1.3
1.215
1.145
1.095
1.03
0.97
0.92
0.89
0.905
0.875
0.84
0.81
0.795
0.8
0.815
0.875
0.88
0.825
0.73
0.615
0.48
0.28
0.045
-0.16
-0.3
-0.415
-0.475
-0.51
-0.555
-0.6
-0.62
-0.635
-0.64
-0.65
-0.68
-0.7
-0.725
-0.71
-0.7
-0.71
-0.735
-0.74
-0.755
-0.755
-0.745
-0.745
-0.765
-0.78
-0.79
-0.79
-0.775
-0.78
-0.8
-0.81
-0.825
-0.815
-0.81
-0.795
-0.815
-0.84
-0.85
-0.845
-0.835
-0.85
-0.85
-0.86
-0.88
-0.88
-0.86
-0.855
-0.85
-0.86
-0.875
-0.85
-0.82
-0.825
-0.815
-0.84
-0.835
-0.81
-0.79
-0.77
-0.77
-0.77
-0.755
-0.735
-0.72
-0.695
-0.675
-0.665
-0.645
-0.61
-0.57
-0.535
-0.525
-0.51
-0.505
-0.46
-0.44
-0.425
-0.415
-0.435
-0.435
-0.425
-0.4
-0.4
-0.395
-0.41
-0.415
-0.405
-0.395
-0.385
-0.4
-0.425
-0.425
-0.415
-0.395
-0.4
-0.41
-0.42
-0.43
-0.425
-0.405
-0.415
-0.42
-0.42
-0.42
-0.425
-0.39
-0.39
-0.4
-0.415
-0.42
-0.415
-0.4
-0.385
-0.41
-0.415
-0.43
-0.425
-0.41
-0.415
-0.4
-0.41
-0.41
-0.405
-0.385
-0.38
-0.39
-0.4
-0.415
-0.395
-0.39
-0.38
-0.385
-0.4
-0.395
-0.38
-0.37
-0.36
-0.36
-0.365
-0.37
-0.36
-0.34
-0.34
-0.355
-0.36
-0.375
-0.365
-0.355
-0.345
-0.355
-0.37
-0.36
-0.36
-0.35
-0.325
-0.335
-0.35
-0.35
-0.36
-0.335
-0.345
-0.365
-0.365
-0.38
-0.36
-0.345
-0.35
-0.345
-0.36
-0.35
-0.34
-0.35
-0.33
-0.34
-0.36
-0.36
-0.35
-0.325
-0.335
-0.34
-0.34
-0.35
-0.35
-0.32
-0.315
-0.32
-0.34
-0.345
-0.32
-0.275
-0.245
-0.25
-0.26
-0.275
-0.265
-0.225
-0.205
-0.195
-0.2
-0.2
-0.185
-0.175
-0.18
-0.195
-0.225
-0.24
-0.24
-0.245
-0.25
-0.285
-0.32
-0.325
-0.31
-0.31
-0.305
-0.32
-0.34
-0.345
-0.35
-0.325
-0.31
-0.335
-0.35
-0.34
-0.325
-0.325
-0.325
-0.32
-0.345
-0.35
-0.325
-0.32
-0.305
-0.3
-0.32
-0.325
-0.31
-0.315
-0.295
-0.23
-0.155
-0.04
0.125
0.35
0.59
0.84
1.08
1.295
1.365
1.205
0.91
0.57
0.215
-0.06
-0.185
-0.23
-0.27
-0.345
-0.37
-0.35
-0.3
-0.285
-0.295
-0.315
-0.335
-0.35
-0.345
-0.33
-0.315
-0.33
-0.335
-0.35
-0.35
-0.33
-0.335
-0.35
-0.35
-0.34
-0.325
-0.31
-0.305
-0.32
-0.33
-0.32
-0.31
-0.295
-0.29
-0.295
-0.32
-0.32
-0.305
-0.29
-0.29
-0.28
-0.295
-0.285
-0.275
-0.255
-0.245
-0.24
-0.24
-0.25
-0.235
-0.21
-0.19
-0.18
-0.2
-0.195
-0.195
-0.155
-0.13
-0.12
-0.115
-0.095
-0.07
-0.05
-0.03
-0.03
-0.025
-0.005
0.02
0.045
0.055
0.075
0.065
0.085
0.09
0.12
0.14
0.145
0.135
0.14
0.14
0.155
0.15
0.135
0.11
0.075
0.055
0.04
0.025
0.0
-0.05
-0.07
-0.085
-0.085
-0.105
-0.135
-0.16
-0.195
-0.205
-0.21
-0.235
-0.245
-0.275
-0.295
-0.305
-0.29
-0.295
-0.31
-0.325
-0.34
-0.325
-0.315
-0.305
-0.315
-0.33
-0.345
-0.32
-0.325
-0.325
-0.335
-0.35
-0.36
-0.345
-0.32
-0.305
-0.32
-0.33
-0.33
-0.315
-0.31
-0.3
-0.305
-0.31
-0.325
-0.32
-0.3
-0.31
-0.325
-0.325
-0.33
-0.31
-0.305
-0.285
-0.28
-0.295
-0.29
-0.26
-0.255
-0.23
-0.24
-0.26
-0.245
-0.22
-0.195
-0.17
-0.155
-0.165
-0.17
-0.17
-0.15
-0.155
-0.165
-0.2
-0.22
-0.21
-0.2
-0.215
-0.23
-0.275
-0.295
-0.315
-0.31
-0.315
-0.32
-0.35
-0.365
-0.365
-0.35
-0.36
-0.355
-0.365
-0.375
-0.36
-0.32
-0.275
-0.24
-0.195
-0.13
-0.045
0.035
0.115
0.18
0.245
0.3
0.39
0.465
0.515
0.55
0.61
0.7
0.845
1.015
1.21
1.395
1.605
1.76
1.87
1.95
1.935
1.725
1.355
0.945
0.575
0.27
0.065
-0.08
-0.225
-0.335
-0.395
-0.415
-0.425
-0.435
-0.47
-0.495
-0.505
-0.51
-0.52
-0.53
-0.555
-0.555
-0.565
-0.565
-0.555
-0.565
-0.585
-0.585
-0.585
-0.58
-0.575
-0.59
-0.6
-0.615
-0.59
-0.585
-0.565
-0.59
-0.615
-0.62
-0.61
-0.61
-0.61
-0.63
-0.645
-0.66
-0.665
-0.645
-0.63
-0.645
-0.67
-0.675
-0.655
-0.64
-0.635
-0.64
-0.66
-0.67
-0.665
-0.635
-0.635
-0.64
-0.64
-0.64
-0.615
-0.595
-0.575
-0.555
-0.56
-0.55
-0.54
-0.515
-0.495
-0.485
-0.48
-0.47
-0.45
-0.415
-0.39
-0.395
-0.395
-0.38
-0.37
-0.36
-0.36
-0.375
-0.395
-0.4
-0.41
-0.425
-0.43
-0.42
-0.42
-0.43
-0.43
-0.415
-0.415
-0.425
-0.425
-0.44
-0.425
-0.415
-0.41
-0.415
-0.435
-0.46
-0.45
-0.43
-0.44
-0.43
-0.44
-0.455
-0.43
-0.41
-0.41
-0.41
-0.41
-0.42
-0.42
-0.405
-0.415
-0.425
-0.42
-0.41
-0.39
-0.355
-0.325
-0.3
-0.285
-0.23
-0.175
-0.095
-0.035
0.03
0.095
0.175
0.27
0.37
0.47
0.56
0.625
0.715
0.83
0.935
1.01
1.08
1.15
1.2
1.23
1.22
1.16
1.09
1.015
0.985
0.97
0.98
0.96
0.925
0.885
0.87
0.88
0.905
0.91
0.86
0.755
0.6
0.41
0.175
-0.065
-0.26
-0.4
-0.485
-0.535
-0.55
-0.575
-0.62
-0.665
-0.685
-0.69
-0.69
-0.7
-0.72
-0.745
-0.78
-0.785
-0.775
-0.785
-0.79
-0.815
-0.815
-0.81
-0.805
-0.805
-0.815
-0.835
-0.855
-0.845
-0.845
-0.85
-0.87
-0.91
-0.915
-0.895
-0.885
-0.89
-0.9
-0.905
-0.915
-0.92
-0.91
-0.91
-0.925
-0.95
-0.945
-0.94
-0.93
-0.91
-0.89
-0.895
-0.895
-0.88
-0.86
-0.83
-0.825
-0.825
-0.81
-0.795
-0.77
-0.765
-0.735
-0.72
-0.69
-0.655
-0.615
-0.565
-0.555
-0.57
-0.56
-0.535
-0.505
-0.485
-0.495
-0.5
-0.51
-0.49
-0.48
-0.49
-0.475
-0.49
-0.485
-0.485
-0.465
-0.455
-0.47
-0.48
-0.49
-0.485
-0.47
-0.475
-0.48
-0.495
-0.51
-0.5
-0.49
-0.485
-0.47
-0.485
-0.475
-0.47
-0.455
-0.445
-0.455
-0.475
-0.485
-0.465
-0.465
-0.45
-0.46
-0.455
-0.465
-0.46
-0.445
-0.43
-0.43
-0.445
-0.44
-0.425
-0.425
-0.415
-0.415
-0.425
-0.45
-0.43
-0.43
-0.425
-0.425
-0.43
-0.435
-0.42
-0.405
-0.395
-0.405
-0.415
-0.415
-0.41
-0.39
-0.395
-0.41
-0.425
-0.44
-0.42
-0.41
-0.405
-0.405
-0.41
-0.415
-0.41
-0.395
-0.395
-0.395
-0.4
-0.415
-0.405
-0.385
-0.385
-0.385
-0.4
-0.405
-0.39
-0.4
-0.375
-0.37
-0.39
-0.385
-0.385
-0.39
-0.37
-0.375
-0.385
-0.395
-0.395
-0.405
-0.38
-0.395
-0.395
-0.395
-0.38
-0.375
-0.37
-0.375
-0.38
-0.385
-0.395
-0.365
-0.37
-0.375
-0.385
-0.385
-0.37
-0.37
-0.35
-0.36
-0.35
-0.355
-0.33
-0.29
-0.28
-0.285
-0.31
-0.3
-0.285
-0.25
-0.225
-0.215
-0.215
-0.23
-0.22
-0.215
-0.22
-0.235
-0.27
-0.29
-0.29
-0.31
-0.325
-0.33
-0.355
-0.36
-0.36
-0.345
-0.34
-0.36
-0.375
-0.395
-0.39
-0.365
-0.36
-0.36
-0.37
-0.38
-0.37
-0.355
-0.35
-0.355
-0.37
-0.37
-0.355
-0.325
-0.33
-0.355
-0.37
-0.38
-0.32
-0.23
-0.12
0.03
0.23
0.47
0.745
1.025
1.265
1.385
1.27
0.995
0.69
0.35
0.075
-0.125
-0.24
-0.285
-0.315
-0.34
-0.34
-0.335
-0.335
-0.355
-0.345
-0.34
-0.345
-0.355
-0.365
-0.37
-0.37
-0.35
-0.34
-0.345
-0.37
-0.375
-0.375
-0.36
-0.34
-0.36
-0.37
-0.365
-0.36
-0.345
-0.335
-0.335
-0.33
-0.35
-0.345
-0.325
-0.315
-0.315
-0.32
-0.325
-0.32
-0.31
-0.29
-0.295
-0.295
-0.305
-0.275
-0.255
-0.25
-0.265
-0.275
-0.265
-0.25
-0.21
-0.195
-0.185
-0.195
-0.19
-0.18
-0.155
-0.135
-0.125
-0.135
-0.125
-0.1
-0.06
-0.03
-0.035
-0.025
-0.025
0.0
0.03
0.045
0.055
0.05
0.05
0.06
0.09
0.095
0.11
0.105
0.1
0.1
0.135
0.13
0.12
0.09
0.07
0.075
0.07
0.055
0.03
-0.02
-0.04
-0.045
-0.06
-0.07
-0.105
-0.15
-0.185
-0.205
-0.185
-0.2
-0.235
-0.245
-0.275
-0.28
-0.285
-0.285
-0.29
-0.31
-0.33
-0.33
-0.32
-0.31
-0.315
-0.335
-0.34
-0.34
-0.315
-0.31
-0.31
-0.34
-0.345
-0.34
-0.33
-0.33
-0.33
-0.34
-0.355
-0.36
-0.33
-0.315
-0.32
-0.335
-0.345
-0.34
-0.32
-0.325
-0.325
-0.34
-0.35
-0.345
-0.34
-0.33
-0.335
-0.34
-0.34
-0.33
-0.305
-0.275
-0.27
-0.265
-0.27
-0.27
-0.255
-0.23
-0.225
-0.225
-0.21
-0.205
-0.19
-0.18
-0.19
-0.215
-0.205
-0.205
-0.2
-0.215
-0.23
-0.25
-0.275
-0.265
-0.27
-0.29
-0.325
-0.345
-0.365
-0.355
-0.35
-0.345
-0.32
-0.315
-0.285
-0.23
-0.17
-0.115
-0.075
-0.03
0.025
0.1
0.175
0.245
0.315
0.35
0.41
0.445
0.505
0.59
0.675
0.735
0.77
0.84
0.95
1.04
1.115
1.12
1.125
1.16
1.22
1.265
1.33
1.395
1.45
1.52
1.6
1.615
1.475
1.16
0.81
0.52
0.3
0.09
-0.08
-0.245
-0.345
-0.45
-0.5
-0.525
-0.545
-0.59
-0.615
-0.625
-0.63
-0.63
-0.645
-0.665
-0.685
-0.685
-0.675
-0.675
-0.68
-0.705
-0.705
-0.715
-0.7
-0.705
-0.72
-0.74
-0.74
-0.74
-0.725
-0.74
-0.75
-0.765
-0.785
-0.77
-0.76
-0.76
-0.76
-0.78
-0.8
-0.805
-0.805
-0.8
-0.805
-0.845
-0.855
-0.85
-0.835
-0.835
-0.835
-0.865
-0.87
-0.865
-0.85
-0.83
-0.85
-0.865
-0.865
-0.865
-0.86
-0.845
-0.845
-0.84
-0.845
-0.815
-0.79
-0.775
-0.765
-0.77
-0.755
-0.725
-0.695
-0.675
-0.66
-0.645
-0.63
-0.595
-0.57
-0.555
-0.535
-0.53
-0.53
-0.505
-0.465
-0.455
-0.455
-0.465
-0.475
-0.45
-0.44
-0.445
-0.45
-0.465
-0.48
-0.485
-0.465
-0.47
-0.475
-0.48
-0.49
-0.48
-0.46
-0.465
-0.47
-0.49
-0.485
-0.485
-0.49
-0.48
-0.475
-0.495
-0.5
-0.5
-0.47
-0.47
-0.465
-0.485
-0.495
-0.5
-0.465
-0.46
-0.465
-0.48
-0.485
-0.475
-0.465
-0.46
-0.47
-0.495
-0.48
-0.465
-0.445
-0.43
-0.41
-0.42
-0.42
-0.38
-0.325
-0.28
-0.255
-0.205
-0.17
-0.11
-0.04
0.05
0.1
0.16
0.235
0.325
0.425
0.5
0.595
0.67
0.725
0.775
0.805
0.86
0.94
0.995
1.04
1.065
1.055
1.01
0.96
0.905
0.84
0.825
0.82
0.795
0.75
0.705
0.675
0.665
0.675
0.72
0.75
0.745
0.69
0.605
0.49
0.315
0.135
-0.065
-0.235
-0.37
-0.48
-0.555
-0.61
-0.665
-0.695
-0.695
-0.705
-0.715
-0.74
-0.77
-0.81
-0.815
-0.8
-0.805
-0.825
-0.845
-0.845
-0.835
-0.83
-0.845
-0.85
-0.875
-0.885
-0.88
-0.865
-0.885
-0.895
-0.925
-0.93
-0.93
-0.92
-0.915
-0.92
-0.945
-0.96
-0.955
-0.94
-0.93
-0.935
-0.96
-0.975
-0.975
-0.95
-0.95
-0.975
-1.0
-0.975
-0.96
-0.94
-0.92
-0.93
-0.93
-0.935
-0.915
-0.89
-0.87
-0.885
-0.88
-0.88
-0.865
-0.82
-0.825
-0.835
-0.83
-0.805
-0.78
-0.75
-0.71
-0.705
-0.71
-0.7
-0.665
-0.635
-0.605
-0.6
-0.6
-0.595
-0.595
-0.575
-0.565
-0.555
-0.565
-0.575
-0.565
-0.555
-0.56
-0.56
-0.56
-0.555
-0.54
-0.535
-0.53
-0.54
-0.565
-0.575
-0.57
-0.575
-0.565
-0.565
-0.6
-0.595
-0.58
-0.56
-0.56
-0.565
-0.58
-0.575
-0.565
-0.545
-0.53
-0.53
-0.555
-0.57
-0.56
-0.555
-0.54
-0.56
-0.57
-0.565
-0.575
-0.54
-0.525
-0.54
-0.545
-0.56
-0.555
-0.53
-0.505
-0.52
-0.53
-0.535
-0.53
-0.515
-0.5
-0.515
-0.535
-0.54
-0.53
-0.505
-0.495
-0.495
-0.515
