Lead II
-0.15
-0.16
-0.17
-0.17
-0.18
-0.17
-0.165
-0.16
-0.165
-0.15
-0.13
-0.11
-0.11
-0.14
-0.18
-0.175
-0.17
-0.165
-0.175
-0.175
-0.185
-0.185
-0.17
-0.15
-0.13
-0.14
-0.16
-0.15
-0.15
-0.135
-0.125
-0.135
-0.13
-0.125
-0.125
-0.125
-0.13
-0.16
-0.17
-0.16
-0.125
-0.095
-0.08
-0.065
-0.095
-0.125
-0.155
-0.18
-0.2
-0.205
-0.18
-0.135
-0.09
-0.065
-0.075
-0.105
-0.13
-0.155
-0.165
-0.175
-0.155
-0.16
-0.16
-0.14
-0.135
-0.13
-0.125
-0.14
-0.145
-0.13
-0.125
-0.12
-0.115
-0.13
-0.145
-0.125
-0.11
-0.095
-0.1
-0.11
-0.12
-0.125
-0.11
-0.105
-0.12
-0.12
-0.125
-0.11
-0.105
-0.1
-0.1
-0.125
-0.115
-0.1
-0.08
-0.065
-0.05
-0.07
-0.08
-0.06
-0.045
-0.025
-0.03
-0.045
-0.08
-0.09
-0.09
-0.065
-0.065
-0.08
-0.1
-0.09
-0.09
-0.085
-0.085
-0.07
-0.085
-0.095
-0.12
-0.14
-0.145
-0.14
-0.13
-0.135
-0.145
-0.135
-0.11
-0.115
-0.135
-0.145
-0.145
-0.135
-0.125
-0.135
-0.145
-0.135
-0.125
-0.11
-0.11
-0.12
-0.12
-0.125
-0.12
-0.12
-0.14
-0.165
-0.16
-0.11
-0.035
0.04
0.11
0.195
0.265
0.345
0.44
0.53
0.605
0.685
0.775
0.875
0.96
0.985
0.93
0.8
0.655
0.47
0.19
-0.11
-0.34
-0.485
-0.54
-0.545
-0.465
-0.365
-0.305
-0.32
-0.38
-0.415
-0.42
-0.385
-0.345
-0.33
-0.345
-0.35
-0.345
-0.33
-0.325
-0.31
-0.305
-0.27
-0.245
-0.225
-0.21
-0.215
-0.2
-0.2
-0.205
-0.21
-0.225
-0.22
-0.21
-0.19
-0.19
-0.175
-0.185
-0.175
-0.175
-0.175
-0.155
-0.155
-0.155
-0.175
-0.195
-0.18
-0.185
-0.185
-0.18
-0.185
-0.185
-0.175
-0.175
-0.165
-0.15
-0.155
-0.17
-0.16
-0.145
-0.145
-0.145
-0.14
-0.15
-0.145
-0.145
-0.13
-0.13
-0.13
-0.14
-0.125
-0.11
-0.11
-0.12
-0.11
-0.11
-0.11
-0.115
-0.105
-0.09
-0.095
-0.095
-0.08
-0.065
-0.06
-0.065
-0.075
-0.105
-0.11
-0.11
-0.105
-0.1
-0.115
-0.08
-0.07
-0.055
-0.07
-0.07
-0.065
-0.07
-0.06
-0.055
-0.055
-0.055
-0.06
-0.065
-0.04
-0.04
-0.025
-0.025
-0.03
-0.03
-0.025
-0.015
-0.015
-0.02
-0.03
-0.04
-0.035
-0.04
-0.025
-0.01
-0.005
-0.01
-0.005
0.005
-0.005
-0.01
-0.03
-0.04
-0.03
-0.035
-0.035
-0.025
-0.02
-0.015
-0.025
-0.025
-0.025
-0.03
-0.035
-0.06
-0.08
-0.115
-0.135
-0.14
-0.135
-0.125
-0.11
-0.11
-0.095
-0.1
-0.105
-0.11
-0.11
-0.11
-0.12
-0.125
-0.12
-0.125
-0.125
-0.11
-0.1
-0.105
-0.12
-0.13
-0.12
-0.12
-0.115
-0.12
-0.125
-0.145
-0.135
-0.12
-0.13
-0.125
-0.12
-0.13
-0.13
-0.125
-0.1
-0.09
-0.09
-0.08
-0.075
-0.065
-0.05
-0.06
-0.06
-0.06
-0.045
-0.045
-0.03
-0.03
-0.025
-0.025
0.005
0.015
0.05
0.11
0.16
0.195
0.22
0.22
0.215
0.22
0.24
0.235
0.175
-0.015
-0.285
-0.615
-0.94
-1.225
-1.48
-1.685
-1.815
-1.885
-1.925
-1.945
-1.94
-1.91
-1.885
-1.83
-1.775
-1.695
-1.63
-1.56
-1.5
-1.435
-1.365
-1.32
-1.235
-1.16
-1.08
-1.005
-0.93
-0.855
-0.8
-0.755
-0.705
-0.66
-0.615
-0.585
-0.535
-0.5
-0.47
-0.45
-0.44
-0.435
-0.405
-0.375
-0.335
-0.305
-0.305
-0.275
-0.23
-0.15
-0.075
-0.03
-0.005
0.025
0.06
0.095
0.12
0.135
0.145
0.165
0.18
0.19
0.185
0.165
0.16
0.175
0.205
0.23
0.25
0.25
0.265
0.285
0.295
0.32
0.32
0.345
0.335
0.35
0.365
0.385
0.375
0.375
0.385
0.4
0.415
0.43
0.445
0.455
0.445
0.435
0.43
0.445
0.455
0.47
0.495
0.505
0.5
0.53
0.54
0.535
0.545
0.54
0.56
0.57
0.57
0.565
0.56
0.56
0.56
0.585
0.605
0.595
0.59
0.585
0.585
0.585
0.6
0.605
0.6
0.575
0.565
0.57
0.57
0.545
0.53
0.51
0.51
0.505
0.49
0.465
0.455
0.43
0.435
0.43
0.415
0.38
0.35
0.33
0.33
0.325
0.3
0.285
0.26
0.23
0.215
0.2
0.18
0.17
0.16
0.145
0.13
0.115
0.1
0.08
0.055
0.04
0.015
0.015
0.025
0.01
-0.015
-0.035
-0.03
-0.02
-0.02
-0.035
-0.06
-0.065
-0.07
-0.08
-0.085
-0.09
-0.1
-0.115
-0.105
-0.1
-0.095
-0.095
-0.105
-0.115
-0.115
-0.13
-0.135
-0.145
-0.145
-0.15
-0.145
-0.14
-0.135
-0.145
-0.16
-0.16
-0.15
-0.135
-0.13
-0.135
-0.15
-0.16
-0.155
-0.155
-0.16
-0.17
-0.185
-0.185
-0.155
-0.15
-0.15
-0.165
-0.165
-0.18
-0.17
-0.155
-0.155
-0.155
-0.16
-0.165
-0.16
-0.165
-0.165
-0.17
-0.19
-0.175
-0.17
-0.165
-0.155
-0.16
-0.18
-0.18
-0.18
-0.18
-0.175
-0.18
-0.185
-0.18
-0.17
-0.16
-0.155
-0.165
-0.185
-0.205
-0.195
-0.185
-0.165
-0.165
-0.165
-0.185
-0.175
-0.17
-0.17
-0.16
-0.17
-0.16
-0.125
-0.085
-0.08
-0.105
-0.155
-0.21
-0.245
-0.25
-0.24
-0.235
-0.24
-0.235
-0.225
-0.21
-0.205
-0.205
-0.21
-0.22
-0.2
-0.18
-0.185
-0.185
-0.18
-0.185
-0.2
-0.185
-0.18
-0.19
-0.2
-0.2
-0.19
-0.19
-0.185
-0.185
-0.19
-0.18
-0.165
-0.165
-0.18
-0.17
-0.18
-0.18
-0.165
-0.14
-0.12
-0.14
-0.145
-0.15
-0.145
-0.14
-0.12
-0.12
-0.13
-0.125
-0.12
-0.115
-0.125
-0.15
-0.165
-0.175
-0.18
-0.19
-0.185
-0.19
-0.195
-0.205
-0.195
-0.19
-0.18
-0.185
-0.195
-0.21
-0.21
-0.21
-0.205
-0.2
-0.195
-0.2
-0.195
-0.205
-0.205
-0.2
-0.19
-0.185
-0.175
-0.18
-0.18
-0.195
-0.21
-0.23
-0.235
-0.23
-0.22
-0.225
-0.22
-0.21
-0.205
-0.2
-0.2
-0.2
-0.21
-0.225
-0.225
-0.215
-0.21
-0.21
-0.215
-0.22
-0.22
-0.215
-0.215
-0.22
-0.235
-0.245
-0.26
-0.255
-0.245
-0.22
-0.185
-0.12
-0.045
0.035
0.12
0.18
0.235
0.275
0.345
0.425
0.495
0.58
0.665
0.72
0.78
0.785
0.735
0.66
0.575
0.5
0.405
0.27
0.075
-0.14
-0.3
-0.43
-0.5
-0.52
-0.51
-0.5
-0.485
-0.455
-0.425
-0.4
-0.375
-0.35
-0.345
-0.335
-0.34
-0.34
-0.355
-0.365
-0.385
-0.39
-0.375
-0.38
-0.375
-0.375
-0.38
-0.365
-0.35
-0.33
-0.315
-0.305
-0.325
-0.33
-0.325
-0.315
-0.315
-0.31
-0.325
-0.33
-0.32
-0.31
-0.315
-0.32
-0.32
-0.33
-0.32
-0.32
-0.32
-0.32
-0.32
-0.32
-0.31
-0.29
-0.295
-0.29
-0.31
-0.32
-0.305
-0.275
-0.265
-0.265
-0.275
-0.28
-0.29
-0.305
-0.325
-0.315
-0.32
-0.315
-0.305
-0.3
-0.3
-0.305
-0.305
-0.305
-0.295
-0.29
-0.285
-0.29
-0.295
-0.295
-0.29
-0.28
-0.28
-0.28
-0.285
-0.275
-0.275
-0.275
-0.275
-0.275
-0.28
-0.285
-0.27
-0.26
-0.255
-0.25
-0.25
-0.255
-0.26
-0.255
-0.235
-0.245
-0.245
-0.245
-0.24
-0.23
-0.235
-0.24
-0.23
-0.235
-0.22
-0.215
-0.205
-0.22
-0.24
-0.24
-0.23
-0.21
-0.205
-0.205
-0.2
-0.2
-0.205
-0.195
-0.175
-0.17
-0.175
-0.175
-0.175
-0.16
-0.15
-0.15
-0.15
-0.165
-0.155
-0.145
-0.14
-0.13
-0.16
-0.145
-0.145
-0.14
-0.125
-0.12
-0.14
-0.15
-0.15
-0.135
-0.12
-0.125
-0.14
-0.155
-0.15
-0.13
-0.13
-0.13
-0.15
-0.155
-0.15
-0.135
-0.13
-0.15
-0.16
-0.17
-0.17
-0.16
-0.165
-0.16
-0.16
-0.17
-0.175
-0.17
-0.18
-0.17
-0.18
-0.19
-0.19
-0.19
-0.18
-0.185
-0.2
-0.195
-0.2
-0.2
-0.19
-0.2
-0.205
-0.205
-0.19
-0.185
-0.2
-0.22
-0.21
-0.22
-0.22
-0.215
-0.21
-0.2
-0.205
-0.21
-0.21
-0.2
-0.21
-0.21
-0.215
-0.22
-0.225
-0.23
-0.22
-0.205
-0.205
-0.21
-0.215
-0.21
-0.215
-0.225
-0.23
-0.23
-0.225
-0.2
-0.175
-0.185
-0.195
-0.195
-0.18
-0.18
-0.175
-0.18
-0.19
-0.19
-0.18
-0.15
-0.14
-0.14
-0.145
-0.145
-0.15
-0.16
-0.17
-0.175
-0.19
-0.2
-0.19
-0.185
-0.18
-0.18
-0.18
-0.185
-0.175
-0.17
-0.175
-0.185
-0.215
-0.225
-0.215
-0.2
-0.18
-0.18
-0.185
-0.19
-0.19
-0.17
-0.16
-0.16
-0.17
-0.18
-0.18
-0.18
-0.195
-0.2
-0.215
-0.21
-0.215
-0.215
-0.205
-0.21
-0.215
-0.215
-0.21
-0.205
-0.21
-0.215
-0.22
-0.22
-0.21
-0.185
-0.175
-0.195
-0.22
-0.255
-0.28
-0.28
-0.245
-0.185
-0.12
-0.04
0.035
0.125
0.22
0.3
0.38
0.47
0.575
0.685
0.765
0.8
0.745
0.645
0.535
0.4
0.17
-0.095
-0.315
-0.46
-0.54
-0.575
-0.55
-0.5
-0.45
-0.405
-0.375
-0.35
-0.33
-0.315
-0.34
-0.345
-0.35
-0.345
-0.335
-0.34
-0.345
-0.345
-0.325
-0.305
-0.295
-0.295
-0.3
-0.285
-0.275
-0.27
-0.28
-0.295
-0.295
-0.285
-0.275
-0.27
-0.275
-0.28
-0.275
-0.285
-0.29
-0.285
-0.27
-0.255
-0.24
-0.235
-0.22
-0.225
-0.23
-0.245
-0.265
-0.26
-0.25
-0.23
-0.215
-0.195
-0.195
-0.2
-0.19
-0.195
-0.19
-0.19
-0.185
-0.175
-0.15
-0.13
-0.135
-0.155
-0.165
-0.165
-0.15
-0.13
-0.125
-0.125
-0.13
-0.125
-0.095
-0.08
-0.08
-0.085
-0.08
-0.085
-0.075
-0.065
-0.055
-0.055
-0.05
-0.055
-0.04
-0.025
-0.025
-0.045
-0.04
-0.05
-0.03
-0.03
-0.02
-0.025
-0.03
-0.04
-0.025
-0.02
-0.035
-0.055
-0.075
-0.09
-0.08
-0.07
-0.07
-0.08
-0.1
-0.095
-0.07
-0.055
-0.06
-0.08
-0.1
-0.11
-0.12
-0.12
-0.13
-0.14
-0.135
-0.14
-0.12
-0.13
-0.14
-0.15
-0.165
-0.165
-0.165
-0.16
-0.16
-0.165
-0.17
-0.18
-0.175
-0.145
-0.14
-0.145
-0.155
-0.16
-0.18
-0.195
-0.19
-0.215
-0.22
-0.225
-0.21
-0.19
-0.195
-0.195
-0.215
-0.225
-0.22
-0.22
-0.225
-0.235
-0.235
-0.24
-0.215
-0.215
-0.2
-0.21
-0.23
-0.25
-0.245
-0.24
-0.23
-0.22
-0.23
-0.23
-0.23
-0.22
-0.225
-0.225
-0.225
-0.23
-0.22
-0.21
-0.195
-0.185
-0.195
-0.185
-0.16
-0.15
-0.155
-0.17
-0.185
-0.205
-0.195
-0.17
-0.13
-0.115
-0.12
-0.12
-0.12
-0.13
-0.135
-0.145
-0.17
-0.19
-0.195
-0.18
-0.17
-0.185
-0.18
-0.185
-0.175
-0.18
-0.19
-0.195
-0.2
-0.185
-0.18
-0.17
-0.175
-0.16
-0.17
-0.165
-0.17
-0.17
-0.18
-0.19
-0.195
-0.195
-0.19
-0.175
-0.195
-0.205
-0.23
-0.22
-0.2
-0.19
-0.185
-0.175
-0.18
-0.175
-0.17
-0.155
-0.17
-0.17
-0.175
-0.185
-0.18
-0.19
-0.21
-0.205
-0.155
-0.1
-0.015
0.07
0.15
0.245
0.33
0.41
0.51
0.615
0.705
0.79
0.84
0.83
0.72
0.58
0.395
0.12
-0.2
-0.435
-0.565
-0.61
-0.62
-0.58
-0.52
-0.47
-0.42
-0.385
-0.37
-0.36
-0.35
-0.345
-0.345
-0.35
-0.36
-0.36
-0.345
-0.335
-0.295
-0.28
-0.27
-0.27
-0.265
-0.265
-0.27
-0.245
-0.25
-0.25
-0.25
-0.25
-0.245
-0.235
-0.24
-0.245
-0.25
-0.25
-0.235
-0.235
-0.235
-0.235
-0.235
-0.245
-0.235
-0.215
-0.215
-0.225
-0.22
-0.225
-0.215
-0.205
-0.2
-0.195
-0.2
-0.205
-0.195
-0.18
-0.17
-0.17
-0.175
-0.18
-0.165
-0.15
-0.14
-0.145
-0.15
-0.15
-0.145
-0.135
-0.12
-0.13
-0.115
-0.115
-0.1
-0.09
-0.09
-0.095
-0.09
-0.08
-0.06
-0.055
-0.055
-0.055
-0.045
-0.045
-0.035
-0.03
-0.035
-0.04
-0.045
-0.035
-0.03
-0.015
-0.025
-0.04
-0.055
-0.055
-0.04
-0.04
-0.04
-0.05
-0.065
-0.08
-0.08
-0.07
-0.07
-0.08
-0.1
-0.1
-0.095
-0.095
-0.115
-0.12
-0.14
-0.14
-0.13
-0.11
-0.12
-0.135
-0.155
-0.155
-0.145
-0.145
-0.145
-0.155
-0.17
-0.17
-0.165
-0.16
-0.165
-0.165
-0.18
-0.185
-0.185
-0.18
-0.175
-0.175
-0.175
-0.17
-0.17
-0.15
-0.15
-0.16
-0.155
-0.145
-0.14
-0.12
-0.115
-0.12
-0.14
-0.15
-0.15
-0.15
-0.165
-0.165
-0.17
-0.175
-0.175
-0.17
-0.175
-0.175
-0.18
-0.18
-0.175
-0.18
-0.18
-0.195
-0.21
-0.22
-0.235
-0.23
-0.23
-0.23
-0.235
-0.235
-0.23
-0.215
-0.22
-0.235
-0.245
-0.25
-0.235
-0.225
-0.235
-0.245
-0.245
-0.24
-0.23
-0.225
-0.22
-0.23
-0.23
-0.24
-0.235
-0.22
-0.215
-0.225
-0.235
-0.25
-0.245
-0.255
-0.265
-0.27
-0.265
-0.235
-0.165
-0.08
0.015
0.12
0.225
0.315
0.415
0.505
0.605
0.7
0.79
0.835
0.865
0.81
0.695
0.57
0.44
0.29
0.095
-0.105
-0.275
-0.395
-0.465
-0.49
-0.46
-0.4
-0.345
-0.335
-0.33
-0.325
-0.31
-0.32
-0.325
-0.365
-0.37
-0.38
-0.375
-0.375
-0.375
-0.39
-0.4
-0.39
-0.375
-0.35
-0.34
-0.32
-0.325
-0.335
-0.325
-0.32
-0.315
-0.315
-0.335
-0.325
-0.32
-0.305
-0.3
-0.3
-0.3
-0.305
-0.295
-0.29
-0.295
-0.3
-0.3
-0.305
-0.295
-0.285
-0.275
-0.27
-0.265
-0.26
-0.25
-0.25
-0.255
-0.255
-0.255
-0.24
-0.23
-0.22
-0.215
-0.215
-0.2
-0.205
-0.195
-0.185
-0.18
-0.175
-0.175
-0.175
-0.165
-0.15
-0.15
-0.15
-0.15
-0.16
-0.145
-0.13
-0.13
-0.115
-0.115
-0.13
-0.105
-0.085
-0.085
-0.09
-0.085
-0.08
-0.065
-0.055
-0.06
-0.06
-0.055
-0.08
-0.06
-0.05
-0.06
-0.07
-0.08
-0.085
-0.08
-0.075
-0.095
-0.1
-0.135
-0.15
-0.15
-0.145
-0.145
-0.15
-0.165
-0.165
-0.18
-0.17
-0.165
-0.18
-0.19
-0.19
-0.18
-0.165
-0.165
-0.17
-0.2
-0.21
-0.205
-0.2
-0.21
-0.2
-0.205
-0.2
-0.18
-0.16
-0.17
-0.195
-0.23
-0.26
-0.24
-0.215
-0.21
-0.215
-0.235
-0.26
-0.26
-0.24
-0.215
-0.215
-0.245
-0.265
-0.285
-0.29
-0.285
-0.265
-0.26
-0.26
-0.24
-0.225
-0.23
-0.235
-0.24
-0.25
-0.245
-0.23
-0.215
-0.22
-0.2
-0.18
-0.175
-0.205
-0.215
-0.23
-0.24
-0.24
-0.225
-0.21
-0.225
-0.225
-0.225
-0.225
-0.2
-0.2
-0.195
-0.205
-0.22
-0.22
-0.215
-0.195
-0.2
-0.205
-0.21
-0.21
-0.2
-0.185
-0.19
-0.19
-0.215
-0.22
-0.21
-0.205
-0.21
-0.205
-0.2
-0.205
-0.19
-0.185
-0.185
-0.185
-0.205
-0.21
-0.19
-0.185
-0.195
-0.2
-0.215
-0.2
-0.17
-0.145
-0.135
-0.145
-0.145
-0.14
-0.12
-0.1
-0.095
-0.095
-0.11
-0.125
-0.13
-0.115
-0.115
-0.12
-0.13
-0.155
-0.16
-0.145
-0.155
-0.145
-0.145
-0.15
-0.14
-0.14
-0.155
-0.175
-0.21
-0.22
-0.205
-0.19
-0.19
-0.19
-0.19
-0.2
-0.19
-0.185
-0.19
-0.2
-0.21
-0.225
-0.21
-0.19
-0.195
-0.19
-0.195
-0.195
-0.18
-0.175
-0.19
-0.195
-0.2
-0.215
-0.225
-0.215
-0.22
-0.185
-0.13
-0.045
0.08
0.19
0.28
0.355
0.415
0.485
0.58
0.695
0.83
0.93
0.97
0.93
0.825
0.705
0.575
0.43
0.225
0.005
-0.17
-0.31
-0.405
-0.45
-0.45
-0.42
-0.37
-0.305
-0.275
-0.28
-0.275
-0.28
-0.255
-0.21
-0.205
-0.245
-0.32
-0.4
-0.445
-0.45
-0.435
-0.41
-0.385
-0.36
-0.335
-0.3
-0.295
-0.31
-0.32
-0.32
-0.31
-0.305
-0.3
-0.295
-0.315
-0.305
-0.295
-0.3
-0.305
-0.305
-0.31
-0.29
-0.275
-0.275
-0.29
-0.29
-0.295
-0.29
-0.285
-0.27
-0.27
-0.27
-0.275
-0.265
-0.265
-0.245
-0.24
-0.24
-0.255
-0.25
-0.235
-0.225
-0.235
-0.24
-0.235
-0.23
-0.22
-0.205
-0.2
-0.2
-0.21
-0.2
-0.18
-0.175
-0.175
-0.17
-0.175
-0.155
-0.135
-0.11
-0.11
-0.105
-0.105
-0.105
-0.105
-0.095
-0.1
-0.105
-0.1
-0.085
-0.05
-0.035
-0.025
0.005
0.01
0.035
0.07
0.095
0.075
0.03
-0.025
-0.065
-0.085
-0.095
-0.08
-0.05
-0.055
-0.04
-0.045
-0.035
-0.04
-0.03
-0.03
-0.03
-0.025
-0.03
-0.05
-0.065
-0.075
-0.08
-0.08
-0.085
-0.09
-0.1
-0.11
-0.12
-0.115
-0.11
-0.11
-0.125
-0.14
-0.15
-0.15
-0.135
-0.125
-0.135
-0.135
-0.115
-0.1
-0.1
-0.12
-0.165
-0.19
-0.205
-0.19
-0.175
-0.18
-0.195
-0.2
-0.215
-0.21
-0.2
-0.21
-0.2
-0.2
-0.2
-0.185
-0.195
-0.2
-0.21
-0.225
-0.23
-0.22
-0.19
-0.195
-0.175
-0.18
-0.155
-0.145
-0.125
-0.115
-0.095
-0.09
-0.075
-0.07
-0.075
-0.08
-0.065
-0.025
0.025
0.065
0.08
0.075
0.05
0.0
-0.035
-0.09
-0.185
-0.38
-0.67
-1.04
-1.405
-1.705
-1.885
-2.0
-2.04
-2.035
-1.995
-1.965
-1.925
-1.84
-1.73
-1.62
-1.51
-1.43
-1.35
-1.295
-1.245
-1.175
-1.075
-0.985
-0.915
-0.86
-0.805
-0.76
-0.72
-0.665
-0.63
-0.605
-0.555
-0.53
-0.52
-0.485
-0.445
-0.39
-0.31
-0.245
-0.18
-0.13
-0.085
-0.055
-0.02
0.0
0.025
0.04
0.07
0.095
0.105
0.13
0.165
0.195
0.225
0.225
0.225
0.23
0.255
0.26
0.265
0.26
0.25
0.255
0.29
0.32
0.36
0.37
0.375
0.36
0.355
0.365
0.37
0.38
0.395
0.395
0.4
0.415
0.45
0.475
0.49
0.49
0.51
0.525
0.55
0.555
0.555
0.55
0.56
0.57
0.595
0.61
0.61
0.585
0.595
0.595
0.62
0.65
0.68
0.695
0.68
0.645
0.595
0.535
0.495
0.49
0.495
0.52
0.525
0.505
0.49
0.47
0.46
0.45
0.445
0.415
0.405
0.36
0.335
0.325
0.33
0.34
0.335
0.3
0.275
0.25
0.24
0.23
0.195
0.175
0.18
0.175
0.17
0.175
0.155
0.12
0.095
0.075
0.06
0.05
0.045
0.035
0.03
0.035
0.02
0.0
-0.02
-0.04
-0.03
-0.03
-0.02
-0.02
-0.02
-0.055
-0.055
-0.055
-0.045
-0.045
-0.06
-0.08
-0.08
-0.08
-0.075
-0.07
-0.065
-0.075
-0.075
-0.08
-0.08
-0.09
-0.11
-0.115
-0.11
-0.12
-0.105
-0.1
-0.105
-0.125
-0.125
-0.12
-0.095
-0.095
-0.105
-0.125
-0.115
-0.1
-0.065
-0.05
-0.065
-0.095
-0.11
-0.105
-0.1
-0.09
-0.115
-0.145
-0.165
-0.16
-0.15
-0.15
-0.15
-0.155
-0.135
-0.145
-0.145
-0.15
-0.165
-0.175
-0.165
-0.155
-0.13
-0.13
-0.125
-0.135
-0.14
-0.135
-0.125
-0.125
-0.12
-0.125
-0.135
-0.14
-0.135
-0.145
-0.14
-0.14
-0.13
-0.12
-0.11
-0.115
-0.11
-0.115
-0.115
-0.11
-0.11
-0.115
-0.13
-0.16
-0.16
-0.175
-0.175
-0.175
-0.165
-0.155
-0.15
-0.16
-0.175
-0.185
-0.18
-0.185
-0.17
-0.15
-0.14
-0.145
-0.15
-0.16
-0.15
-0.145
-0.13
-0.13
-0.135
-0.14
-0.15
-0.15
-0.135
-0.13
-0.125
-0.135
-0.135
-0.125
-0.11
-0.115
-0.125
-0.14
-0.13
-0.13
-0.12
-0.125
-0.125
-0.145
-0.14
-0.135
-0.125
-0.12
-0.13
-0.14
-0.135
-0.135
-0.12
-0.135
-0.15
-0.145
-0.14
-0.125
-0.125
-0.12
-0.13
-0.145
-0.14
-0.13
-0.12
-0.095
-0.085
-0.11
-0.14
-0.155
-0.165
-0.18
-0.18
-0.195
-0.18
-0.175
-0.175
-0.155
-0.145
-0.16
-0.15
-0.14
-0.12
-0.125
-0.125
-0.12
-0.12
-0.13
-0.125
-0.145
-0.155
-0.155
-0.12
-0.09
-0.065
-0.085
-0.12
-0.165
-0.175
-0.175
-0.165
-0.145
-0.16
-0.175
-0.165
-0.145
-0.14
-0.135
-0.135
-0.155
-0.15
-0.16
-0.145
-0.145
-0.15
-0.155
-0.14
-0.115
-0.105
-0.1
-0.105
-0.115
-0.115
-0.125
-0.13
-0.12
-0.12
-0.13
-0.125
-0.11
-0.115
-0.11
-0.11
-0.115
-0.085
-0.08
-0.07
-0.1
-0.13
-0.15
-0.165
-0.155
-0.135
-0.14
-0.14
-0.14
-0.145
-0.135
-0.125
-0.13
-0.16
-0.185
-0.185
-0.165
-0.155
-0.165
-0.19
-0.195
-0.18
-0.155
-0.13
-0.135
-0.145
-0.155
-0.145
-0.135
-0.13
-0.135
-0.14
-0.15
-0.16
-0.19
-0.2
-0.215
-0.21
-0.195
-0.165
-0.14
-0.125
-0.125
-0.135
-0.15
-0.155
-0.16
-0.17
-0.18
-0.2
-0.23
-0.25
-0.24
-0.21
-0.155
-0.08
0.0
0.085
0.18
0.29
0.385
0.49
0.58
0.69
0.795
0.865
0.89
0.835
0.72
0.59
0.44
0.245
-0.025
-0.265
-0.435
-0.505
-0.53
-0.51
-0.445
-0.4
-0.365
-0.35
-0.325
-0.325
-0.31
-0.315
-0.33
-0.335
-0.34
-0.375
-0.405
-0.415
-0.415
-0.38
-0.35
-0.335
-0.32
-0.32
-0.345
-0.335
-0.325
-0.31
-0.31
-0.315
-0.33
-0.335
-0.325
-0.31
-0.305
-0.32
-0.335
-0.33
-0.335
-0.33
-0.325
-0.305
-0.295
-0.285
-0.3
-0.29
-0.29
-0.28
-0.275
-0.26
-0.255
-0.26
-0.25
-0.26
-0.28
-0.3
-0.295
-0.27
-0.26
-0.275
-0.29
-0.295
-0.31
-0.31
-0.29
-0.29
-0.29
-0.28
-0.285
-0.275
-0.275
-0.26
-0.26
-0.24
-0.215
-0.21
-0.21
-0.23
-0.265
-0.245
-0.22
-0.21
-0.21
-0.23
-0.255
-0.25
-0.23
-0.21
-0.205
-0.215
-0.23
-0.23
-0.21
-0.185
-0.17
-0.18
-0.2
-0.195
-0.19
-0.17
-0.155
-0.15
-0.16
-0.155
-0.145
-0.12
-0.115
-0.105
-0.11
-0.095
-0.08
-0.075
-0.07
-0.085
-0.115
-0.135
-0.135
-0.12
-0.12
-0.125
-0.125
-0.125
-0.135
-0.12
-0.12
-0.135
-0.16
-0.16
-0.155
-0.15
-0.145
-0.155
-0.17
-0.18
-0.17
-0.16
-0.155
-0.175
-0.19
-0.19
-0.2
-0.185
-0.19
-0.21
-0.225
-0.23
-0.23
-0.225
-0.215
-0.23
-0.25
-0.24
-0.24
-0.225
-0.235
-0.26
-0.255
-0.23
-0.2
-0.185
-0.175
-0.175
-0.195
-0.2
-0.185
-0.19
-0.16
-0.11
-0.075
-0.045
-0.06
-0.08
-0.13
-0.15
-0.14
-0.115
-0.135
-0.215
-0.385
-0.635
-0.94
-1.285
-1.605
-1.87
-2.08
-2.25
-2.365
-2.43
-2.44
-2.435
-2.45
-2.43
-2.405
-2.345
-2.28
-2.21
-2.12
-2.055
-1.97
-1.86
-1.75
-1.62
-1.49
-1.345
-1.255
-1.17
-1.095
-1.03
-0.955
-0.89
-0.825
-0.76
-0.7
-0.62
-0.555
-0.525
-0.505
-0.465
-0.375
-0.26
-0.15
-0.07
-0.03
0.03
0.07
0.13
0.165
0.155
0.165
0.185
0.195
0.2
0.19
0.195
0.215
0.245
0.275
0.285
0.285
0.3
0.31
0.34
0.355
0.365
0.375
0.385
0.395
0.4
0.4
0.42
0.435
0.44
0.43
0.43
0.465
0.5
0.525
0.535
0.52
0.5
0.5
0.5
0.5
0.505
0.515
0.54
0.555
0.57
0.56
0.55
0.54
0.56
0.575
0.595
0.6
0.605
0.595
0.615
0.62
0.625
0.625
0.6
0.58
0.6
0.59
0.575
0.565
0.545
0.53
0.52
0.51
0.515
0.525
0.495
0.46
0.445
0.41
0.39
0.36
0.335
0.315
0.315
0.305
0.295
0.25
0.195
0.16
0.12
0.12
0.105
0.085
0.045
0.0
-0.03
-0.06
-0.08
-0.12
-0.165
-0.2
-0.235
-0.245
-0.25
-0.255
-0.285
-0.305
-0.33
-0.34
-0.35
-0.345
-0.345
-0.36
-0.35
-0.35
-0.36
-0.39
-0.395
-0.41
-0.405
-0.4
-0.39
-0.38
-0.38
-0.385
-0.39
-0.38
-0.38
-0.38
-0.385
-0.405
-0.4
-0.405
-0.4
-0.385
-0.38
-0.4
-0.39
-0.395
-0.375
-0.38
-0.39
-0.415
-0.42
-0.405
-0.385
-0.355
-0.36
-0.37
-0.385
-0.375
-0.36
-0.36
-0.365
-0.37
-0.365
-0.355
-0.365
-0.38
-0.38
-0.385
-0.37
-0.355
-0.355
-0.355
-0.36
-0.37
-0.37
-0.355
-0.365
-0.365
-0.35
-0.34
-0.32
-0.315
-0.325
-0.335
-0.34
-0.355
-0.35
-0.345
-0.33
-0.325
-0.345
-0.35
-0.35
-0.34
-0.325
-0.33
-0.34
-0.34
-0.335
-0.32
-0.305
-0.31
-0.325
-0.335
-0.33
-0.315
-0.305
-0.305
-0.31
-0.33
-0.325
-0.32
-0.295
-0.29
-0.295
-0.31
-0.3
-0.3
-0.295
-0.29
-0.3
-0.31
-0.305
-0.31
-0.3
-0.305
-0.295
-0.305
-0.305
-0.295
-0.285
-0.29
-0.295
-0.305
-0.29
-0.28
-0.27
-0.275
-0.285
-0.3
-0.295
-0.29
-0.275
-0.275
-0.28
-0.29
-0.285
-0.265
-0.265
-0.27
-0.28
-0.28
-0.28
-0.275
-0.28
-0.285
-0.275
-0.275
-0.28
-0.275
-0.27
-0.28
-0.285
-0.27
-0.275
-0.27
-0.26
-0.255
-0.265
-0.27
-0.255
-0.255
-0.25
-0.245
-0.24
-0.26
-0.26
-0.23
-0.22
-0.215
-0.22
-0.23
-0.23
-0.22
-0.21
-0.2
-0.205
-0.21
-0.2
-0.185
-0.18
-0.185
-0.205
-0.215
-0.205
-0.185
-0.165
-0.155
-0.165
-0.18
-0.165
-0.175
-0.18
-0.21
-0.215
-0.235
-0.23
-0.225
-0.22
-0.225
-0.23
-0.24
-0.24
-0.245
-0.24
-0.255
-0.265
-0.265
-0.26
-0.25
-0.24
-0.24
-0.235
-0.235
-0.225
-0.21
-0.21
-0.22
-0.245
-0.25
-0.24
-0.25
-0.26
-0.26
-0.26
-0.26
-0.265
-0.245
-0.24
-0.23
-0.245
-0.245
-0.25
-0.235
-0.225
-0.225
-0.24
-0.26
-0.26
-0.265
-0.285
-0.29
-0.275
-0.25
-0.185
-0.09
-0.005
0.085
0.175
0.265
0.35
0.45
0.555
0.66
0.735
0.78
0.795
0.745
0.665
0.57
0.45
0.295
0.07
-0.165
-0.355
-0.48
-0.56
-0.595
-0.575
-0.52
-0.465
-0.43
-0.415
-0.415
-0.39
-0.39
-0.37
-0.375
-0.385
-0.415
-0.42
-0.415
-0.41
-0.41
-0.405
-0.41
-0.38
-0.345
-0.33
-0.32
-0.335
-0.33
-0.335
-0.32
-0.31
-0.315
-0.315
-0.335
-0.34
-0.32
-0.31
-0.315
-0.32
-0.33
-0.32
-0.325
-0.31
-0.31
-0.315
-0.33
-0.31
-0.3
-0.29
-0.31
-0.31
-0.31
-0.305
-0.295
-0.28
-0.275
-0.28
-0.275
-0.275
-0.27
-0.265
-0.27
-0.26
-0.27
-0.27
-0.27
-0.265
-0.255
-0.26
-0.28
-0.28
-0.275
-0.265
-0.265
-0.26
-0.275
-0.265
-0.26
-0.26
-0.255
-0.265
-0.265
-0.26
-0.25
-0.25
-0.255
-0.255
-0.265
-0.255
-0.245
-0.225
-0.23
-0.23
-0.235
-0.245
-0.23
-0.215
-0.225
-0.22
-0.24
-0.23
-0.21
-0.19
-0.175
-0.19
-0.195
-0.19
-0.185
-0.17
-0.17
-0.175
-0.175
-0.175
-0.16
-0.15
-0.15
-0.145
-0.15
-0.13
-0.105
-0.105
-0.11
-0.12
-0.125
-0.11
-0.1
-0.1
-0.105
-0.115
-0.12
-0.115
-0.12
-0.12
-0.125
-0.13
-0.14
-0.13
-0.14
-0.135
-0.14
-0.145
-0.155
-0.17
-0.16
-0.155
-0.17
-0.18
-0.185
-0.18
-0.17
-0.17
-0.175
-0.185
-0.2
-0.19
-0.185
-0.185
-0.185
-0.19
-0.195
-0.2
-0.185
-0.185
-0.185
-0.195
-0.195
-0.195
-0.19
-0.185
-0.19
-0.195
-0.21
-0.21
-0.2
-0.185
-0.19
-0.22
-0.22
-0.21
-0.215
-0.21
-0.205
-0.205
-0.215
-0.205
-0.2
-0.2
-0.19
-0.21
-0.21
-0.205
-0.195
-0.19
-0.2
-0.2
-0.215
-0.2
-0.195
-0.185
-0.18
-0.19
-0.195
-0.19
-0.175
-0.165
-0.165
-0.17
-0.18
-0.175
-0.16
-0.16
-0.155
-0.15
-0.15
-0.145
-0.135
-0.13
-0.135
-0.135
-0.13
-0.11
-0.11
-0.11
-0.125
-0.135
-0.145
-0.135
-0.15
-0.16
-0.165
-0.17
-0.17
-0.17
-0.17
-0.18
-0.175
-0.185
-0.19
-0.185
-0.19
-0.18
-0.185
-0.175
-0.175
-0.18
-0.16
-0.155
-0.155
-0.155
-0.165
-0.165
-0.165
-0.165
-0.18
-0.21
-0.21
-0.2
-0.175
-0.175
-0.175
-0.2
-0.215
-0.205
-0.205
-0.2
-0.2
-0.19
-0.185
-0.2
-0.175
-0.175
-0.175
-0.185
-0.2
-0.185
-0.185
-0.185
-0.21
-0.24
-0.255
-0.23
-0.185
-0.12
-0.05
0.005
0.075
0.165
0.255
0.35
0.42
0.5
0.575
0.665
0.745
0.785
0.78
0.72
0.63
0.545
0.445
0.295
0.075
-0.135
-0.285
-0.375
-0.45
-0.47
-0.47
-0.435
-0.38
-0.315
-0.295
-0.265
-0.245
-0.245
-0.265
-0.27
-0.28
-0.29
-0.315
-0.32
-0.33
-0.325
-0.315
-0.3
-0.31
-0.295
-0.29
-0.29
-0.27
-0.265
-0.265
-0.26
-0.27
-0.26
-0.255
-0.26
-0.255
-0.26
-0.265
-0.255
-0.24
-0.24
-0.25
-0.255
-0.275
-0.26
-0.255
-0.245
-0.255
-0.255
-0.265
-0.25
-0.23
-0.22
-0.23
-0.23
-0.23
-0.23
-0.23
-0.21
-0.21
-0.215
-0.215
-0.205
-0.21
-0.19
-0.175
-0.175
-0.185
-0.18
-0.165
-0.165
-0.165
-0.17
-0.175
-0.165
-0.155
-0.14
-0.14
-0.14
-0.135
-0.125
-0.115
-0.115
-0.105
-0.105
-0.11
-0.095
-0.085
-0.08
-0.08
-0.09
-0.09
-0.08
-0.065
-0.065
-0.055
-0.06
-0.07
-0.06
-0.04
-0.02
-0.01
-0.005
-0.02
-0.005
0.005
0.0
-0.01
0.0
-0.015
0.0
0.0
0.01
-0.005
-0.02
-0.04
-0.035
-0.025
-0.03
-0.04
-0.03
-0.04
-0.025
-0.025
-0.03
-0.035
-0.045
-0.055
-0.065
-0.055
-0.06
-0.075
-0.08
-0.08
-0.07
-0.09
-0.085
-0.095
-0.11
-0.115
-0.105
-0.11
-0.11
-0.11
-0.13
-0.135
-0.135
-0.135
-0.14
-0.145
-0.145
-0.145
-0.14
-0.14
-0.145
-0.14
-0.125
-0.145
-0.14
-0.145
-0.145
-0.14
-0.14
-0.135
-0.125
-0.13
-0.135
-0.155
-0.17
-0.185
-0.18
-0.175
-0.165
-0.18
-0.18
-0.19
-0.185
-0.18
-0.175
-0.175
-0.19
-0.195
-0.19
-0.17
-0.165
-0.17
-0.195
-0.19
-0.175
-0.17
-0.17
-0.16
-0.16
-0.165
-0.14
-0.14
-0.135
-0.15
-0.155
-0.16
-0.155
-0.15
-0.155
-0.165
-0.165
-0.155
-0.125
-0.115
-0.115
-0.115
-0.11
-0.12
-0.115
-0.115
-0.105
-0.09
