Lead II
-0.155
-0.145
-0.135
-0.12
-0.135
-0.15
-0.155
-0.15
-0.13
-0.115
-0.13
-0.135
-0.15
-0.155
-0.15
-0.145
-0.155
-0.175
-0.17
-0.175
-0.155
-0.135
-0.14
-0.15
-0.145
-0.15
-0.15
-0.14
-0.165
-0.19
-0.2
-0.195
-0.18
-0.175
-0.17
-0.175
-0.175
-0.175
-0.14
-0.12
-0.125
-0.125
-0.14
-0.14
-0.13
-0.135
-0.13
-0.135
-0.15
-0.155
-0.145
-0.115
-0.125
-0.145
-0.16
-0.15
-0.145
-0.12
-0.115
-0.13
-0.11
-0.1
-0.08
-0.035
0.04
0.18
0.505
0.98
1.305
1.31
1.09
0.885
0.79
0.735
0.675
0.605
0.5
0.39
0.27
0.16
0.055
-0.05
-0.165
-0.3
-0.435
-0.575
-0.68
-0.795
-0.93
-1.08
-1.23
-1.345
-1.435
-1.51
-1.595
-1.67
-1.755
-1.785
-1.81
-1.805
-1.8
-1.795
-1.78
-1.72
-1.645
-1.58
-1.505
-1.415
-1.295
-1.14
-1.01
-0.895
-0.83
-0.8
-0.8
-0.77
-0.705
-0.64
-0.585
-0.535
-0.49
-0.43
-0.365
-0.285
-0.255
-0.22
-0.185
-0.14
-0.065
-0.01
0.035
0.045
0.065
0.1
0.125
0.15
0.175
0.195
0.17
0.165
0.195
0.2
0.2
0.205
0.195
0.205
0.23
0.255
0.25
0.245
0.245
0.25
0.27
0.295
0.305
0.295
0.305
0.32
0.325
0.345
0.345
0.345
0.35
0.375
0.405
0.42
0.44
0.43
0.455
0.465
0.48
0.505
0.51
0.515
0.52
0.54
0.565
0.605
0.62
0.635
0.645
0.665
0.7
0.705
0.735
0.755
0.755
0.77
0.795
0.81
0.805
0.81
0.825
0.84
0.845
0.86
0.865
0.87
0.85
0.845
0.855
0.855
0.84
0.815
0.795
0.775
0.765
0.745
0.715
0.665
0.625
0.605
0.57
0.555
0.525
0.46
0.42
0.39
0.35
0.34
0.295
0.245
0.195
0.16
0.135
0.125
0.095
0.07
0.03
0.03
0.025
0.01
-0.01
-0.035
-0.055
-0.07
-0.075
-0.09
-0.095
-0.12
-0.16
-0.17
-0.17
-0.155
-0.17
-0.19
-0.21
-0.22
-0.21
-0.21
-0.2
-0.24
-0.25
-0.255
-0.24
-0.225
-0.24
-0.265
-0.28
-0.275
-0.27
-0.25
-0.25
-0.27
-0.29
-0.275
-0.27
-0.26
-0.27
-0.295
-0.295
-0.3
-0.29
-0.295
-0.32
-0.345
-0.36
-0.35
-0.34
-0.345
-0.335
-0.355
-0.35
-0.34
-0.315
-0.3
-0.32
-0.335
-0.365
-0.345
-0.34
-0.335
-0.335
-0.345
-0.36
-0.35
-0.33
-0.325
-0.325
-0.345
-0.34
-0.35
-0.32
-0.3
-0.295
-0.295
-0.275
-0.235
-0.18
-0.12
-0.05
-0.01
0.055
0.135
0.215
0.28
0.345
0.37
0.405
0.455
0.49
0.555
0.62
0.675
0.71
0.765
0.82
0.88
0.94
1.025
1.12
1.23
1.32
1.395
1.44
1.48
1.525
1.6
1.67
1.715
1.73
1.7
1.66
1.63
1.57
1.425
1.165
0.78
0.355
0.01
-0.23
-0.365
-0.43
-0.505
-0.575
-0.645
-0.705
-0.745
-0.79
-0.845
-0.895
-0.93
-0.925
-0.925
-0.945
-0.98
-1.01
-1.01
-1.01
-1.005
-1.02
-1.055
-1.085
-1.095
-1.095
-1.1
-1.13
-1.15
-1.165
-1.195
-1.185
-1.185
-1.185
-1.205
-1.22
-1.235
-1.24
-1.235
-1.26
-1.29
-1.315
-1.32
-1.33
-1.32
-1.335
-1.38
-1.405
-1.425
-1.43
-1.425
-1.455
-1.495
-1.53
-1.545
-1.555
-1.575
-1.605
-1.655
-1.675
-1.7
-1.71
-1.73
-1.765
-1.805
-1.835
-1.87
-1.88
-1.89
-1.93
-1.98
-1.995
-2.03
-2.04
-2.045
-2.08
-2.115
-2.155
-2.175
-2.185
-2.195
-2.215
-2.255
-2.28
-2.27
-2.27
-2.27
-2.28
-2.295
-2.32
-2.315
-2.29
-2.275
-2.275
-2.29
-2.29
-2.285
-2.25
-2.23
-2.22
-2.215
-2.21
-2.18
-2.16
-2.125
-2.1
-2.075
-2.065
-2.04
-2.005
-1.95
-1.935
-1.915
-1.9
-1.865
-1.815
-1.775
-1.735
-1.72
-1.715
-1.675
-1.625
-1.6
-1.575
-1.555
-1.545
-1.525
-1.47
-1.43
-1.4
-1.385
-1.365
-1.34
-1.31
-1.275
-1.265
-1.24
-1.225
-1.205
-1.17
-1.15
-1.115
-1.11
-1.105
-1.07
-1.05
-1.015
-1.005
-1.0
-1.0
-0.98
-0.935
-0.89
-0.875
-0.865
-0.87
-0.87
-0.835
-0.805
-0.8
-0.805
-0.805
-0.79
-0.77
-0.75
-0.73
-0.735
-0.74
-0.73
-0.725
-0.705
-0.71
-0.71
-0.715
-0.71
-0.7
-0.695
-0.715
-0.72
-0.72
-0.72
-0.715
-0.7
-0.71
-0.705
-0.705
-0.71
-0.7
-0.68
-0.675
-0.695
-0.71
-0.72
-0.7
-0.695
-0.7
-0.71
-0.725
-0.705
-0.68
-0.675
-0.675
-0.69
-0.69
-0.68
-0.67
-0.655
-0.64
-0.66
-0.665
-0.655
-0.65
-0.635
-0.625
-0.645
-0.645
-0.64
-0.625
-0.615
-0.63
-0.64
-0.65
-0.655
-0.65
-0.645
-0.645
-0.655
-0.67
-0.665
-0.65
-0.615
-0.615
-0.625
-0.645
-0.655
-0.635
-0.63
-0.64
-0.635
-0.645
-0.655
-0.65
-0.65
-0.655
-0.66
-0.665
-0.655
-0.64
-0.62
-0.625
-0.64
-0.655
-0.66
-0.645
-0.63
-0.63
-0.64
-0.645
-0.645
-0.63
-0.6
-0.62
-0.62
-0.63
-0.635
-0.62
-0.61
-0.615
-0.635
-0.66
-0.645
-0.63
-0.61
-0.615
-0.635
-0.645
-0.645
-0.625
-0.625
-0.62
-0.615
-0.64
-0.635
-0.625
-0.61
-0.615
-0.63
-0.64
-0.65
-0.64
-0.635
-0.635
-0.635
-0.65
-0.64
-0.615
-0.595
-0.605
-0.6
-0.635
-0.62
-0.605
-0.585
-0.595
-0.605
-0.61
-0.61
-0.585
-0.58
-0.57
-0.58
-0.58
-0.56
-0.555
-0.505
-0.49
-0.46
-0.385
-0.175
0.215
0.73
1.085
1.095
0.835
0.575
0.455
0.41
0.345
0.245
0.15
0.08
0.02
-0.03
-0.105
-0.175
-0.25
-0.275
-0.25
-0.205
-0.125
-0.06
-0.035
-0.015
-0.035
-0.07
-0.12
-0.19
-0.235
-0.29
-0.415
-0.575
-0.765
-0.87
-0.865
-0.765
-0.64
-0.55
-0.495
-0.48
-0.49
-0.49
-0.495
-0.495
-0.505
-0.515
-0.545
-0.545
-0.525
-0.53
-0.525
-0.535
-0.545
-0.54
-0.535
-0.525
-0.53
-0.565
-0.59
-0.57
-0.565
-0.55
-0.57
-0.58
-0.595
-0.6
-0.605
-0.575
-0.59
-0.605
-0.62
-0.62
-0.61
-0.605
-0.605
-0.625
-0.635
-0.64
-0.62
-0.61
-0.61
-0.635
-0.65
-0.64
-0.625
-0.625
-0.62
-0.64
-0.65
-0.64
-0.605
-0.6
-0.615
-0.61
-0.635
-0.645
-0.63
-0.63
-0.64
-0.64
-0.65
-0.66
-0.64
-0.635
-0.645
-0.67
-0.69
-0.7
-0.69
-0.68
-0.685
-0.71
-0.745
-0.76
-0.755
-0.755
-0.78
-0.8
-0.82
-0.835
-0.835
-0.835
-0.855
-0.885
-0.9
-0.9
-0.91
-0.915
-0.93
-0.945
-0.965
-0.975
-0.965
-0.94
-0.945
-0.95
-0.96
-0.94
-0.915
-0.89
-0.89
-0.875
-0.875
-0.84
-0.815
-0.785
-0.77
-0.765
-0.76
-0.73
-0.7
-0.68
-0.67
-0.66
-0.665
-0.645
-0.605
-0.57
-0.575
-0.57
-0.575
-0.55
-0.535
-0.51
-0.5
-0.505
-0.515
-0.51
-0.475
-0.455
-0.445
-0.475
-0.465
-0.45
-0.435
-0.41
-0.415
-0.425
-0.465
-0.43
-0.425
-0.41
-0.405
-0.415
-0.425
-0.41
-0.395
-0.385
-0.38
-0.39
-0.4
-0.395
-0.385
-0.365
-0.375
-0.385
-0.395
-0.4
-0.39
-0.37
-0.375
-0.39
-0.39
-0.4
-0.37
-0.36
-0.37
-0.36
-0.37
-0.39
-0.365
-0.35
-0.35
-0.365
-0.38
-0.385
-0.36
-0.36
-0.365
-0.37
-0.38
-0.38
-0.36
-0.34
-0.355
-0.36
-0.37
-0.365
-0.34
-0.34
-0.35
-0.365
-0.36
-0.37
-0.35
-0.335
-0.335
-0.33
-0.36
-0.335
-0.325
-0.315
-0.315
-0.345
-0.345
-0.345
-0.35
-0.35
-0.34
-0.365
-0.385
-0.37
-0.335
-0.315
-0.315
-0.325
-0.35
-0.335
-0.335
-0.32
-0.32
-0.33
-0.34
-0.345
-0.32
-0.3
-0.305
-0.315
-0.31
-0.315
-0.305
-0.305
-0.29
-0.31
-0.33
-0.3
-0.3
-0.29
-0.285
-0.295
-0.3
-0.3
-0.285
-0.28
-0.275
-0.3
-0.31
-0.285
-0.265
-0.25
-0.25
-0.255
-0.265
-0.25
-0.23
-0.205
-0.2
-0.2
-0.145
-0.06
0.125
0.48
0.965
1.33
1.345
1.095
0.84
0.72
0.64
0.555
0.46
0.36
0.27
0.175
0.065
-0.075
-0.195
-0.305
-0.42
-0.515
-0.65
-0.795
-0.92
-1.045
-1.17
-1.265
-1.375
-1.45
-1.535
-1.58
-1.61
-1.62
-1.655
-1.675
-1.675
-1.65
-1.605
-1.54
-1.45
-1.365
-1.275
-1.13
-1.0
-0.845
-0.735
-0.67
-0.63
-0.615
-0.57
-0.49
-0.405
-0.325
-0.26
-0.175
-0.105
-0.06
-0.02
-0.005
0.01
0.015
0.045
0.055
0.045
0.04
0.045
0.06
0.065
0.075
0.075
0.06
0.06
0.08
0.095
0.11
0.12
0.105
0.115
0.125
0.15
0.17
0.175
0.175
0.185
0.2
0.225
0.255
0.26
0.265
0.255
0.265
0.29
0.305
0.32
0.345
0.36
0.37
0.415
0.425
0.44
0.435
0.43
0.455
0.485
0.535
0.555
0.575
0.585
0.615
0.645
0.68
0.69
0.7
0.7
0.745
0.75
0.795
0.8
0.8
0.79
0.805
0.825
0.855
0.855
0.85
0.825
0.825
0.82
0.82
0.785
0.755
0.715
0.7
0.69
0.67
0.635
0.575
0.525
0.49
0.46
0.435
0.395
0.345
0.285
0.24
0.185
0.165
0.125
0.075
0.045
0.02
0.025
0.01
-0.015
-0.04
-0.06
-0.08
-0.07
-0.055
-0.07
-0.1
-0.125
-0.135
-0.135
-0.14
-0.13
-0.145
-0.16
-0.16
-0.16
-0.14
-0.155
-0.17
-0.18
-0.175
-0.17
-0.15
-0.14
-0.145
-0.14
-0.135
-0.12
-0.11
-0.125
-0.14
-0.13
-0.125
-0.105
-0.1
-0.11
-0.13
-0.15
-0.15
-0.135
-0.12
-0.145
-0.165
-0.18
-0.17
-0.15
-0.135
-0.14
-0.155
-0.165
-0.17
-0.16
-0.155
-0.165
-0.19
-0.205
-0.21
-0.19
-0.18
-0.2
-0.22
-0.23
-0.225
-0.22
-0.18
-0.195
-0.225
-0.235
-0.23
-0.225
-0.2
-0.225
-0.22
-0.22
-0.21
-0.185
-0.155
-0.145
-0.16
-0.17
-0.17
-0.175
-0.18
-0.195
-0.21
-0.24
-0.23
-0.215
-0.18
-0.175
-0.21
-0.21
-0.23
-0.215
-0.19
-0.195
-0.205
-0.21
-0.195
-0.185
-0.175
-0.185
-0.205
-0.21
-0.205
-0.195
-0.185
-0.185
-0.205
-0.2
-0.205
-0.185
-0.17
-0.185
-0.2
-0.225
-0.215
-0.195
-0.2
-0.19
-0.19
-0.205
-0.185
-0.165
-0.16
-0.16
-0.185
-0.19
-0.175
-0.175
-0.155
-0.175
-0.17
-0.185
-0.18
-0.17
-0.125
-0.11
-0.085
-0.08
-0.025
0.1
0.37
0.825
1.29
1.51
1.385
1.135
0.95
0.86
0.775
0.7
0.605
0.54
0.45
0.345
0.215
0.09
-0.03
-0.13
-0.25
-0.37
-0.49
-0.615
-0.72
-0.805
-0.895
-0.96
-1.005
-0.97
-0.915
-0.85
-0.815
-0.81
-0.8
-0.795
-0.75
-0.7
-0.63
-0.61
-0.64
-0.665
-0.61
-0.51
-0.375
-0.23
-0.11
-0.07
-0.035
-0.01
0.005
0.015
-0.01
-0.035
-0.015
-0.01
-0.005
-0.005
-0.005
-0.005
-0.005
0.01
0.0
0.0
-0.01
-0.025
-0.015
-0.005
0.005
-0.005
-0.03
-0.045
-0.05
-0.035
-0.005
0.005
-0.01
-0.015
0.0
0.015
0.02
0.02
0.01
-0.01
0.01
0.03
0.045
0.055
0.04
0.04
0.055
0.055
0.065
0.065
0.075
0.04
0.07
0.075
0.1
0.09
0.095
0.095
0.1
0.125
0.145
0.13
0.125
0.1
0.105
0.11
0.13
0.135
0.135
0.13
0.14
0.145
0.135
0.14
0.12
0.09
0.085
0.095
0.09
0.075
0.055
0.035
0.01
0.005
0.01
-0.02
-0.025
-0.045
-0.055
-0.055
-0.035
-0.05
-0.08
-0.115
-0.14
-0.115
-0.125
-0.145
-0.15
-0.17
-0.165
-0.16
-0.14
-0.165
-0.17
-0.175
-0.165
-0.155
-0.145
-0.155
-0.165
-0.17
-0.165
-0.155
-0.135
-0.15
-0.15
-0.175
-0.15
-0.14
-0.135
-0.15
-0.155
-0.145
-0.125
-0.1
-0.085
-0.1
-0.115
-0.11
-0.12
-0.095
-0.065
-0.065
-0.055
-0.08
-0.065
-0.06
-0.05
-0.055
-0.07
-0.07
-0.075
-0.06
-0.06
-0.08
-0.075
-0.085
-0.08
-0.075
-0.065
-0.08
-0.09
-0.08
-0.075
-0.065
-0.055
-0.06
-0.085
-0.095
-0.11
-0.095
-0.1
-0.11
-0.12
-0.135
-0.125
-0.115
-0.1
-0.11
-0.125
-0.13
-0.13
-0.11
-0.1
-0.105
-0.12
-0.115
-0.125
-0.1
-0.09
-0.08
-0.085
-0.105
-0.105
-0.1
-0.09
-0.09
-0.115
-0.135
-0.12
-0.095
-0.085
-0.095
-0.11
-0.12
-0.125
-0.105
-0.095
-0.105
-0.12
-0.13
-0.115
-0.1
-0.105
-0.105
-0.115
-0.12
-0.13
-0.125
-0.11
-0.12
-0.13
-0.145
-0.13
-0.115
-0.095
-0.08
-0.09
-0.115
-0.13
-0.135
-0.115
-0.135
-0.13
-0.125
-0.13
-0.135
-0.105
-0.105
-0.115
-0.135
-0.125
-0.145
-0.125
-0.155
-0.17
-0.185
-0.175
-0.16
-0.14
-0.13
-0.145
-0.155
-0.14
-0.125
-0.105
-0.105
-0.115
-0.115
-0.095
-0.085
-0.035
-0.005
0.08
0.24
0.63
1.135
1.475
1.435
1.165
0.925
0.815
0.775
0.725
0.645
0.545
0.435
0.355
0.255
0.185
0.08
-0.005
-0.1
-0.18
-0.26
-0.3
-0.34
-0.335
-0.305
-0.255
-0.215
-0.175
-0.18
-0.205
-0.24
-0.24
-0.245
-0.305
-0.4
-0.505
-0.53
-0.425
-0.27
-0.155
-0.095
-0.1
-0.12
-0.11
-0.09
-0.095
-0.085
-0.1
-0.12
-0.12
-0.135
-0.135
-0.14
-0.17
-0.19
-0.175
-0.185
-0.17
-0.195
-0.205
-0.21
-0.215
-0.22
-0.205
-0.215
-0.235
-0.25
-0.25
-0.255
-0.24
-0.245
-0.255
-0.28
-0.27
-0.265
-0.26
-0.265
-0.28
-0.275
-0.27
-0.255
-0.235
-0.25
-0.255
-0.26
-0.265
-0.255
-0.245
-0.25
-0.27
-0.28
-0.285
-0.27
-0.265
-0.265
-0.285
-0.3
-0.285
-0.295
-0.285
-0.3
-0.35
-0.345
-0.35
-0.335
-0.345
-0.36
-0.39
-0.405
-0.415
-0.425
-0.43
-0.45
-0.47
-0.505
-0.515
-0.52
-0.525
-0.545
-0.55
-0.575
-0.58
-0.575
-0.57
-0.595
-0.59
-0.62
-0.605
-0.59
-0.58
-0.575
-0.58
-0.58
-0.58
-0.56
-0.535
-0.535
-0.535
-0.53
-0.54
-0.51
-0.485
-0.475
-0.48
-0.47
-0.47
-0.46
-0.435
-0.45
-0.45
-0.45
-0.46
-0.44
-0.445
-0.445
-0.455
-0.465
-0.455
-0.45
-0.445
-0.46
-0.455
-0.47
-0.435
-0.425
-0.42
-0.41
-0.425
-0.44
-0.42
-0.415
-0.415
-0.405
-0.395
-0.415
-0.415
-0.395
-0.385
-0.38
-0.405
-0.42
-0.4
-0.4
-0.39
-0.4
-0.405
-0.41
-0.41
-0.4
-0.39
-0.395
-0.4
-0.405
-0.42
-0.405
-0.405
-0.41
-0.425
-0.435
-0.44
-0.43
-0.42
-0.43
-0.445
-0.46
-0.46
-0.45
-0.425
-0.44
-0.46
-0.465
-0.48
-0.455
-0.44
-0.44
-0.46
-0.465
-0.475
-0.46
-0.455
-0.46
-0.47
-0.485
-0.475
-0.45
-0.435
-0.43
-0.44
-0.45
-0.445
-0.445
-0.435
-0.43
-0.45
-0.455
-0.465
-0.44
-0.43
-0.43
-0.44
-0.445
-0.435
-0.435
-0.42
-0.425
-0.43
-0.455
-0.46
-0.44
-0.425
-0.42
-0.455
-0.45
-0.45
-0.445
-0.425
-0.435
-0.46
-0.47
-0.465
-0.455
-0.46
-0.44
-0.45
-0.47
-0.465
-0.455
-0.45
-0.45
-0.46
-0.45
-0.445
-0.4
-0.36
-0.34
-0.28
-0.25
-0.175
-0.065
0.1
0.325
0.54
0.725
0.875
0.975
1.015
0.96
0.845
0.67
0.48
0.25
-0.045
-0.36
-0.605
-0.715
-0.695
-0.635
-0.58
-0.57
-0.565
-0.56
-0.55
-0.535
-0.545
-0.55
-0.56
-0.57
-0.57
-0.555
-0.55
-0.565
-0.57
-0.58
-0.59
-0.58
-0.57
-0.585
-0.595
-0.615
-0.615
-0.595
-0.58
-0.595
-0.61
-0.615
-0.6
-0.6
-0.6
-0.61
-0.635
-0.65
-0.655
-0.64
-0.63
-0.63
-0.645
-0.66
-0.66
-0.645
-0.64
-0.655
-0.665
-0.69
-0.65
-0.665
-0.645
-0.665
-0.68
-0.69
-0.69
-0.69
-0.69
-0.69
-0.71
-0.73
-0.72
-0.725
-0.71
-0.74
-0.735
-0.75
-0.765
-0.77
-0.78
-0.805
-0.825
-0.845
-0.86
-0.86
-0.875
-0.89
-0.91
-0.95
-0.965
-0.965
-0.975
-1.015
-1.055
-1.055
-1.075
-1.085
-1.09
-1.1
-1.12
-1.155
-1.145
-1.14
-1.14
-1.14
-1.155
-1.18
-1.155
-1.125
-1.09
-1.08
-1.1
-1.065
-1.045
-1.01
-0.975
-0.95
-0.915
-0.89
-0.855
-0.8
-0.755
-0.73
-0.705
-0.69
-0.645
-0.62
-0.59
-0.595
-0.58
-0.58
-0.555
-0.525
-0.5
-0.49
-0.475
-0.465
-0.455
-0.42
-0.4
-0.405
-0.4
-0.395
-0.375
-0.365
-0.36
-0.36
-0.355
-0.37
-0.345
-0.32
-0.305
-0.31
-0.33
-0.345
-0.315
-0.305
-0.3
-0.295
-0.3
-0.31
-0.305
-0.295
-0.275
-0.265
-0.295
-0.285
-0.285
-0.265
-0.245
-0.24
-0.26
-0.265
-0.255
-0.255
-0.245
-0.25
-0.265
-0.275
-0.265
-0.235
-0.215
-0.22
-0.225
-0.235
-0.225
-0.2
-0.2
-0.185
-0.195
-0.215
-0.195
-0.18
-0.18
-0.175
-0.195
-0.195
-0.19
-0.185
-0.165
-0.17
-0.18
-0.185
-0.185
-0.165
-0.15
-0.145
-0.175
-0.165
-0.155
-0.155
-0.155
-0.15
-0.16
-0.155
-0.165
-0.16
-0.14
-0.15
-0.155
-0.17
-0.17
-0.16
-0.155
-0.16
-0.18
-0.18
-0.175
-0.16
-0.14
-0.135
-0.15
-0.16
-0.15
-0.13
-0.13
-0.13
-0.155
-0.155
-0.145
-0.14
-0.11
-0.145
-0.14
-0.155
-0.135
-0.125
-0.105
-0.125
-0.13
-0.135
-0.135
-0.125
-0.14
-0.13
-0.135
-0.145
-0.125
-0.125
-0.115
-0.12
-0.13
-0.135
-0.135
-0.115
-0.115
-0.12
-0.13
-0.155
-0.14
-0.14
-0.135
-0.135
-0.135
-0.145
-0.14
-0.12
-0.105
-0.11
-0.12
-0.115
-0.125
-0.105
-0.08
-0.08
-0.09
-0.1
-0.095
-0.065
-0.055
-0.05
-0.065
-0.06
-0.065
-0.045
-0.025
-0.02
-0.025
-0.045
-0.015
0.015
0.05
0.075
0.11
0.16
0.25
0.355
0.53
0.805
1.25
1.785
2.21
2.355
2.28
2.12
1.975
1.81
1.61
1.36
1.045
0.67
0.385
0.25
0.23
0.29
0.35
0.38
0.395
0.375
0.36
0.34
0.31
0.295
0.26
0.23
0.2
0.2
0.17
0.15
0.125
0.095
0.08
0.075
0.075
0.045
0.025
0.01
-0.01
-0.005
-0.015
-0.015
-0.04
-0.06
-0.07
-0.065
-0.065
-0.085
-0.105
-0.14
-0.13
-0.125
-0.125
-0.145
-0.175
-0.2
-0.215
-0.195
-0.2
-0.215
-0.22
-0.23
-0.235
-0.24
-0.225
-0.23
-0.245
-0.255
-0.275
-0.25
-0.255
-0.26
-0.285
-0.3
-0.3
-0.3
-0.31
-0.33
-0.35
-0.375
-0.39
-0.4
-0.39
-0.42
-0.44
-0.475
-0.495
-0.495
-0.495
-0.52
-0.565
-0.58
-0.595
-0.625
-0.615
-0.66
-0.69
-0.73
-0.745
-0.74
-0.755
-0.77
-0.82
-0.825
-0.84
-0.835
-0.825
-0.835
-0.84
-0.85
-0.825
-0.795
-0.765
-0.75
-0.745
-0.72
-0.68
-0.655
-0.61
-0.58
-0.56
-0.54
-0.505
-0.465
-0.425
-0.41
-0.4
-0.37
-0.34
-0.315
-0.295
-0.265
-0.265
-0.255
-0.23
-0.205
-0.18
-0.165
-0.155
-0.165
-0.135
-0.13
-0.105
-0.125
-0.12
-0.11
-0.095
-0.08
-0.065
-0.06
-0.055
-0.065
-0.045
-0.045
-0.03
-0.03
-0.05
-0.04
-0.035
-0.04
-0.03
-0.02
-0.03
-0.045
-0.035
-0.02
-0.005
0.01
-0.01
-0.01
-0.02
-0.01
0.015
0.01
0.0
-0.005
0.005
0.015
0.025
0.03
0.01
0.01
0.015
0.02
0.03
0.03
0.02
0.015
0.02
0.04
0.05
0.04
0.04
0.025
0.035
0.04
0.05
0.04
0.035
0.015
0.03
0.05
0.035
0.03
0.025
0.01
0.0
0.02
0.035
0.025
0.0
-0.015
-0.02
0.015
0.02
0.0
0.0
-0.01
0.0
0.03
0.03
0.025
0.025
0.005
0.0
0.015
0.025
0.02
0.01
-0.005
-0.005
0.005
0.03
0.03
0.015
0.01
0.015
0.045
0.03
0.035
0.01
0.01
0.01
0.015
0.02
0.0
-0.01
-0.015
-0.005
0.01
0.03
0.03
0.015
0.005
0.005
0.01
0.015
0.0
-0.025
-0.03
-0.035
-0.02
-0.01
-0.015
-0.02
-0.03
-0.03
-0.005
-0.005
0.01
-0.005
-0.01
-0.025
-0.005
0.01
0.01
-0.02
0.0
-0.01
0.01
0.03
0.03
0.03
0.01
0.015
0.03
0.045
0.05
0.04
0.065
0.1
0.15
0.21
0.255
0.33
0.45
0.62
0.845
1.025
1.185
1.29
1.345
1.335
1.265
1.155
0.97
0.735
0.445
0.115
-0.17
-0.335
-0.385
-0.35
-0.29
-0.24
-0.16
-0.12
-0.105
-0.125
-0.13
-0.125
-0.12
-0.105
-0.115
-0.135
-0.15
-0.14
-0.125
-0.12
-0.145
-0.155
-0.165
-0.165
-0.15
-0.14
-0.16
-0.17
-0.18
-0.19
-0.165
-0.17
-0.175
-0.19
-0.19
-0.195
-0.19
-0.175
-0.19
-0.2
-0.225
-0.22
-0.215
-0.2
-0.215
-0.23
-0.245
-0.25
-0.225
-0.225
-0.245
-0.255
-0.26
-0.245
-0.24
-0.23
-0.24
-0.255
-0.265
-0.265
-0.255
-0.24
-0.255
-0.28
-0.295
-0.295
-0.295
-0.295
-0.31
-0.335
-0.335
-0.355
-0.365
-0.35
-0.375
-0.415
-0.445
-0.45
-0.455
-0.475
-0.495
-0.53
-0.56
-0.58
-0.585
-0.605
-0.64
-0.66
-0.7
-0.715
-0.71
-0.715
-0.73
-0.745
-0.76
-0.78
-0.78
-0.765
-0.78
-0.8
-0.795
-0.775
-0.74
-0.715
-0.69
-0.68
-0.66
-0.64
-0.595
-0.555
-0.53
-0.51
-0.5
-0.46
-0.425
-0.395
-0.36
-0.345
-0.325
-0.3
-0.27
-0.235
-0.23
-0.215
-0.205
-0.185
-0.16
-0.135
-0.13
-0.135
-0.12
-0.115
-0.085
-0.075
-0.065
-0.07
-0.06
-0.045
-0.03
-0.015
-0.01
-0.015
-0.04
-0.025
-0.005
-0.005
-0.005
-0.015
-0.01
0.005
0.015
0.005
0.01
-0.005
-0.015
0.0
0.02
0.035
0.04
0.01
0.015
0.03
0.045
0.04
0.06
0.045
0.035
0.055
0.075
0.07
0.07
0.055
0.04
0.05
0.06
0.065
0.05
0.05
0.06
0.07
0.085
0.085
0.065
0.04
0.035
0.035
0.055
0.065
0.065
0.055
0.055
0.065
0.07
0.075
0.075
0.055
0.045
0.045
0.04
0.05
0.045
0.02
0.015
0.03
0.05
0.06
0.075
0.05
0.045
0.055
0.075
0.075
0.085
0.06
0.065
0.065
0.075
0.09
0.09
0.085
0.09
0.08
0.105
0.115
0.11
0.095
0.07
0.085
0.115
0.11
0.105
0.085
0.095
0.11
0.11
0.115
0.115
0.105
0.105
0.095
0.115
0.125
0.105
0.095
0.075
0.085
0.105
0.1
0.08
0.075
0.04
0.04
0.045
0.05
0.045
0.015
0.015
0.035
0.045
0.055
0.055
0.045
0.03
0.04
0.07
0.07
0.065
0.07
0.05
0.05
0.085
0.085
0.08
0.065
0.075
0.09
0.09
0.115
0.115
0.12
0.125
0.16
0.195
0.255
0.295
0.335
0.395
0.51
0.685
0.89
1.095
1.25
1.33
1.435
1.465
1.435
1.32
1.15
0.95
0.685
0.39
0.09
-0.13
-0.23
-0.23
-0.165
-0.105
-0.045
-0.015
-0.03
-0.045
-0.035
-0.02
-0.01
-0.03
-0.055
-0.06
-0.06
-0.045
-0.04
-0.04
-0.05
-0.065
-0.055
-0.045
-0.055
-0.065
-0.065
-0.075
-0.07
-0.05
-0.055
-0.08
-0.08
-0.08
-0.085
-0.075
-0.065
-0.07
-0.085
-0.1
-0.1
-0.09
-0.1
-0.11
-0.125
-0.14
-0.14
-0.125
-0.125
-0.14
-0.155
-0.18
-0.18
-0.175
-0.16
-0.175
-0.195
-0.205
-0.21
-0.205
-0.205
-0.22
-0.24
-0.25
-0.25
-0.26
-0.26
-0.275
-0.29
-0.325
-0.315
-0.31
-0.335
-0.345
-0.38
-0.425
-0.43
-0.435
-0.44
-0.485
-0.515
-0.555
-0.57
-0.585
-0.61
-0.625
-0.65
-0.685
-0.695
-0.68
-0.68
-0.705
-0.725
-0.745
-0.745
-0.735
-0.73
-0.73
-0.735
-0.715
-0.695
-0.64
-0.615
-0.605
-0.575
-0.56
-0.525
-0.48
-0.445
-0.425
-0.4
-0.365
-0.325
-0.275
-0.245
-0.225
-0.215
-0.22
-0.18
-0.14
-0.1
-0.1
-0.09
-0.09
-0.075
-0.035
-0.02
-0.01
-0.015
-0.015
-0.01
0.02
0.04
0.04
0.025
0.025
0.05
0.05
0.065
0.08
0.08
0.055
0.07
0.095
0.105
0.095
0.07
0.07
0.08
0.105
0.1
0.1
0.105
0.125
0.13
0.135
0.15
0.145
0.13
0.145
0.145
0.16
0.16
0.165
0.155
0.14
0.155
0.175
0.175
0.165
0.15
0.145
0.16
0.17
0.175
0.17
0.155
0.15
0.14
0.15
0.18
0.165
0.16
0.145
0.145
0.155
0.16
0.16
0.15
0.145
0.14
0.155
0.14
0.13
0.125
0.105
0.125
0.15
0.165
0.145
0.16
0.155
0.17
0.18
0.175
0.18
0.17
0.16
0.175
0.18
0.18
0.18
0.16
0.155
0.165
0.19
0.19
0.18
0.165
0.145
0.145
0.165
0.175
0.165
0.145
0.15
0.165
0.185
0.18
0.17
0.15
0.15
0.15
0.155
0.165
0.135
0.125
0.115
0.115
0.13
0.135
0.125
0.105
0.11
0.115
0.13
0.14
0.135
0.115
0.105
0.135
0.145
0.165
0.16
0.15
0.14
0.145
0.145
0.16
0.16
0.14
0.125
0.145
0.15
0.155
0.15
0.125
0.12
0.11
0.115
0.145
0.13
0.13
0.12
0.13
0.14
0.145
0.14
0.13
0.125
0.125
0.145
0.15
0.145
0.13
0.13
0.155
0.175
0.18
0.195
0.185
0.215
0.255
0.315
0.375
0.445
0.54
0.725
1.105
1.62
2.045
2.225
2.175
2.1
2.08
2.09
2.04
1.89
1.75
1.57
1.38
1.155
0.91
0.665
0.48
0.415
0.42
0.47
0.515
0.535
0.515
0.48
0.475
0.475
0.455
0.415
0.375
0.345
0.33
0.32
0.31
0.29
0.275
0.24
0.23
0.225
0.22
0.2
0.19
0.165
0.155
0.155
0.15
0.12
0.11
0.095
0.085
0.08
0.09
0.07
0.045
0.0
0.0
0.0
0.01
-0.005
-0.02
-0.04
-0.04
-0.05
-0.06
-0.06
-0.085
-0.095
-0.11
-0.1
-0.1
-0.11
-0.135
-0.145
-0.15
-0.14
-0.145
-0.16
-0.18
-0.2
-0.19
-0.2
-0.2
-0.22
-0.245
-0.265
-0.285
-0.29
-0.275
-0.295
-0.315
-0.35
-0.355
-0.355
-0.365
-0.4
-0.425
-0.45
-0.47
-0.485
-0.5
-0.53
-0.57
-0.61
-0.635
-0.655
-0.675
-0.69
-0.73
-0.755
-0.775
-0.78
-0.785
-0.81
-0.825
-0.845
-0.86
-0.84
-0.84
-0.835
-0.845
-0.84
-0.805
-0.775
-0.74
-0.725
-0.71
-0.68
-0.66
-0.605
-0.585
-0.555
-0.54
-0.53
-0.475
-0.435
-0.405
-0.375
-0.355
-0.33
-0.305
-0.265
-0.22
-0.215
-0.19
-0.18
-0.155
-0.12
-0.105
-0.09
-0.09
-0.1
-0.08
-0.065
-0.025
-0.03
-0.035
-0.015
-0.03
-0.02
0.01
0.0
0.0
-0.01
-0.005
0.005
0.035
0.025
0.01
0.005
0.015
0.025
0.05
0.04
0.03
0.01
0.015
0.05
0.055
0.045
0.035
0.025
0.035
0.05
0.035
0.04
0.02
0.01
0.025
0.04
0.045
0.055
0.05
0.045
0.05
0.065
0.075
0.055
0.035
0.03
0.04
0.05
0.04
0.045
0.03
0.02
0.03
0.035
0.045
0.045
0.035
0.02
0.03
0.045
0.055
0.055
0.04
0.02
0.035
0.035
0.04
0.03
0.025
0.015
0.03
0.04
0.045
0.025
0.01
0.005
0.01
0.01
0.025
0.01
0.0
-0.01
0.0
0.015
0.025
0.01
-0.025
-0.02
0.0
0.005
0.015
0.01
0.0
0.0
-0.005
0.005
0.015
0.0
-0.005
-0.03
-0.01
0.01
0.025
0.03
0.03
0.01
0.03
0.06
0.05
0.045
0.025
0.015
0.025
0.025
0.035
0.035
0.025
0.015
0.01
0.03
0.035
0.015
0.005
0.005
0.01
0.01
0.02
0.025
0.015
0.0
0.0
0.015
0.03
0.02
0.005
-0.015
0.0
-0.005
0.025
0.01
0.02
-0.005
0.015
0.02
0.04
0.035
0.035
0.015
0.055
0.115
0.185
0.305
0.565
0.965
1.405
1.59
1.475
1.23
1.035
0.95
0.89
0.825
0.75
0.65
0.55
0.44
0.32
0.225
0.095
-0.02
-0.17
-0.3
-0.425
-0.545
-0.68
-0.85
-1.005
-1.15
-1.23
-1.31
-1.39
-1.46
-1.525
-1.575
-1.61
-1.63
-1.63
-1.65
-1.635
-1.615
-1.565
-1.5
-1.445
-1.36
-1.27
-1.175
-1.045
-0.895
-0.79
-0.7
-0.655
-0.635
-0.585
-0.515
-0.435
-0.38
-0.305
-0.25
-0.165
-0.105
-0.035
0.03
0.085
0.13
0.19
0.23
0.255
0.27
0.285
0.275
0.305
0.345
0.365
0.365
0.355
0.355
0.37
0.395
0.41
0.43
0.4
0.41
0.405
0.43
0.445
0.44
0.44
0.45
0.45
0.465
0.505
0.515
0.5
0.505
0.53
0.555
0.575
0.57
0.6
0.59
0.605
0.64
0.67
0.68
0.7
0.705
0.735
0.77
0.805
0.825
0.835
0.86
0.88
0.91
0.94
0.945
0.96
0.975
1.005
1.025
1.055
1.055
1.055
1.055
1.07
1.095
1.105
1.09
1.08
1.075
1.09
1.08
1.07
1.045
1.005
0.97
0.96
0.95
0.91
0.86
0.83
0.775
0.735
0.71
0.68
0.645
0.6
0.545
0.53
0.515
0.48
0.455
0.4
0.365
0.34
0.305
0.295
0.275
0.235
0.205
0.2
0.2
0.19
0.17
0.135
0.125
0.12
0.11
0.115
0.09
0.06
0.06
0.05
0.065
0.045
0.035
0.015
0.0
0.0
0.015
0.015
0.0
-0.01
-0.015
-0.025
-0.005
0.005
-0.01
-0.02
-0.04
-0.03
-0.035
-0.03
-0.04
-0.05
-0.055
-0.065
-0.04
-0.035
-0.04
-0.075
-0.085
-0.08
-0.07
-0.065
-0.07
-0.085
-0.09
-0.075
-0.075
-0.075
-0.08
-0.085
-0.1
-0.09
-0.08
-0.08
-0.095
-0.11
-0.12
-0.12
-0.135
-0.11
-0.135
-0.14
-0.145
-0.14
-0.14
-0.13
-0.15
-0.17
-0.16
-0.17
-0.15
-0.15
-0.17
-0.18
