Lead II
-0.165
-0.175
-0.185
-0.2
-0.19
-0.195
-0.195
-0.2
-0.195
-0.21
-0.2
-0.215
-0.205
-0.21
-0.21
-0.225
-0.25
-0.255
-0.26
-0.25
-0.24
-0.23
-0.235
-0.24
-0.24
-0.24
-0.24
-0.24
-0.255
-0.28
-0.28
-0.275
-0.265
-0.245
-0.26
-0.26
-0.25
-0.255
-0.27
-0.285
-0.31
-0.32
-0.31
-0.295
-0.27
-0.26
-0.27
-0.285
-0.285
-0.295
-0.3
-0.31
-0.33
-0.34
-0.335
-0.315
-0.305
-0.31
-0.325
-0.34
-0.335
-0.34
-0.335
-0.36
-0.355
-0.37
-0.35
-0.325
-0.32
-0.335
-0.355
-0.36
-0.37
-0.365
-0.345
-0.35
-0.36
-0.37
-0.36
-0.355
-0.335
-0.345
-0.365
-0.38
-0.35
-0.34
-0.34
-0.34
-0.325
-0.33
-0.32
-0.32
-0.31
-0.3
-0.32
-0.34
-0.345
-0.32
-0.31
-0.305
-0.31
-0.32
-0.305
-0.29
-0.255
-0.26
-0.265
-0.265
-0.245
-0.23
-0.215
-0.23
-0.205
-0.21
-0.19
-0.175
-0.165
-0.17
-0.215
-0.21
-0.2
-0.205
-0.2
-0.205
-0.22
-0.24
-0.245
-0.265
-0.28
-0.305
-0.325
-0.335
-0.335
-0.31
-0.29
-0.3
-0.32
-0.345
-0.36
-0.355
-0.345
-0.365
-0.37
-0.36
-0.345
-0.345
-0.35
-0.365
-0.4
-0.425
-0.425
-0.41
-0.39
-0.39
-0.395
-0.405
-0.39
-0.375
-0.385
-0.41
-0.41
-0.41
-0.4
-0.39
-0.35
-0.33
-0.33
-0.33
-0.33
-0.315
-0.31
-0.31
-0.315
-0.31
-0.29
-0.29
-0.27
-0.27
-0.285
-0.295
-0.295
-0.275
-0.26
-0.245
-0.25
-0.27
-0.265
-0.26
-0.23
-0.24
-0.24
-0.255
-0.25
-0.27
-0.275
-0.295
-0.345
-0.415
-0.445
-0.46
-0.435
-0.39
-0.365
-0.325
-0.29
-0.24
-0.185
-0.15
-0.1
-0.055
0.015
0.175
0.365
0.54
0.655
0.67
0.6
0.555
0.44
0.295
0.145
0.035
-0.035
-0.09
-0.135
-0.165
-0.185
-0.185
-0.17
-0.15
-0.125
-0.135
-0.15
-0.17
-0.17
-0.155
-0.135
-0.115
-0.12
-0.13
-0.14
-0.11
-0.11
-0.125
-0.135
-0.145
-0.115
-0.11
-0.085
-0.065
-0.07
-0.085
-0.085
-0.08
-0.075
-0.065
-0.07
-0.065
-0.065
-0.055
-0.03
-0.03
-0.035
-0.04
-0.03
-0.03
-0.025
-0.005
-0.025
-0.035
-0.015
-0.005
0.03
0.025
0.01
0.0
0.005
0.01
0.035
0.03
0.025
0.02
0.045
0.065
0.07
0.07
0.06
0.05
0.055
0.055
0.085
0.085
0.11
0.115
0.125
0.14
0.13
0.135
0.11
0.11
0.105
0.12
0.155
0.18
0.175
0.16
0.165
0.15
0.155
0.155
0.155
0.14
0.175
0.185
0.205
0.19
0.18
0.155
0.15
0.14
0.13
0.125
0.105
0.1
0.11
0.115
0.095
0.085
0.045
0.02
0.02
0.025
0.03
0.025
0.005
0.005
0.0
-0.005
0.005
0.0
-0.025
-0.04
-0.035
-0.025
-0.035
-0.03
-0.03
-0.03
-0.07
-0.06
-0.055
-0.055
-0.06
-0.075
-0.08
-0.09
-0.09
-0.075
-0.07
-0.085
-0.08
-0.1
-0.075
-0.085
-0.085
-0.1
-0.11
-0.105
-0.095
-0.09
-0.1
-0.115
-0.12
-0.11
-0.12
-0.12
-0.145
-0.16
-0.165
-0.15
-0.125
-0.12
-0.13
-0.145
-0.145
-0.15
-0.165
-0.16
-0.17
-0.195
-0.19
-0.15
-0.135
-0.135
-0.15
-0.175
-0.17
-0.165
-0.17
-0.18
-0.16
-0.17
-0.155
-0.15
-0.14
-0.135
-0.155
-0.165
-0.175
-0.155
-0.155
-0.145
-0.145
-0.135
-0.115
-0.105
-0.095
-0.1
-0.125
-0.145
-0.14
-0.135
-0.105
-0.1
-0.1
-0.11
-0.095
-0.1
-0.095
-0.085
-0.105
-0.105
-0.09
-0.09
-0.06
-0.06
-0.06
-0.06
-0.045
-0.025
-0.015
0.0
0.0
-0.005
0.005
0.02
0.04
0.045
0.03
0.0
0.02
0.03
0.04
0.045
0.03
-0.02
-0.03
-0.02
-0.02
-0.025
-0.04
-0.04
-0.055
-0.06
-0.065
-0.085
-0.105
-0.135
-0.14
-0.14
-0.125
-0.11
-0.115
-0.115
-0.11
-0.115
-0.115
-0.14
-0.145
-0.16
-0.16
-0.165
-0.145
-0.15
-0.15
-0.165
-0.175
-0.195
-0.175
-0.19
-0.21
-0.22
-0.205
-0.185
-0.165
-0.16
-0.16
-0.17
-0.17
-0.16
-0.14
-0.13
-0.125
-0.115
-0.105
-0.1
-0.065
-0.07
-0.08
-0.095
-0.11
-0.1
-0.085
-0.08
-0.09
-0.085
-0.085
-0.075
-0.075
-0.065
-0.1
-0.095
-0.09
-0.085
-0.075
-0.075
-0.09
-0.095
-0.105
-0.115
-0.135
-0.185
-0.245
-0.28
-0.305
-0.28
-0.225
-0.17
-0.11
-0.06
0.01
0.065
0.11
0.135
0.15
0.235
0.39
0.6
0.78
0.875
0.85
0.765
0.675
0.57
0.4
0.23
0.1
0.005
-0.045
-0.085
-0.09
-0.1
-0.105
-0.125
-0.135
-0.13
-0.12
-0.125
-0.14
-0.14
-0.11
-0.085
-0.08
-0.09
-0.095
-0.115
-0.125
-0.12
-0.09
-0.09
-0.065
-0.07
-0.065
-0.055
-0.055
-0.075
-0.09
-0.105
-0.095
-0.08
-0.045
-0.04
-0.035
-0.03
-0.045
-0.045
-0.05
-0.05
-0.05
-0.06
-0.05
-0.025
-0.01
-0.02
-0.015
-0.015
-0.04
-0.035
-0.025
0.0
-0.005
-0.005
0.005
0.01
0.02
0.02
0.01
-0.005
0.0
0.02
0.035
0.045
0.04
0.04
0.035
0.05
0.065
0.065
0.065
0.045
0.055
0.055
0.075
0.08
0.065
0.065
0.08
0.1
0.11
0.11
0.105
0.09
0.095
0.095
0.115
0.11
0.105
0.11
0.12
0.14
0.145
0.13
0.115
0.08
0.08
0.09
0.095
0.09
0.075
0.07
0.07
0.075
0.05
0.025
-0.005
-0.03
-0.035
-0.025
-0.025
-0.03
-0.035
-0.045
-0.045
-0.035
-0.04
-0.05
-0.08
-0.11
-0.115
-0.115
-0.1
-0.1
-0.1
-0.11
-0.105
-0.11
-0.11
-0.125
-0.14
-0.16
-0.165
-0.145
-0.14
-0.13
-0.14
-0.155
-0.155
-0.155
-0.165
-0.18
-0.19
-0.2
-0.2
-0.17
-0.17
-0.155
-0.17
-0.19
-0.19
-0.165
-0.165
-0.165
-0.185
-0.205
-0.215
-0.22
-0.19
-0.19
-0.2
-0.21
-0.22
-0.215
-0.21
-0.235
-0.25
-0.25
-0.25
-0.26
-0.255
-0.255
-0.255
-0.265
-0.255
-0.235
-0.245
-0.245
-0.265
-0.285
-0.295
-0.285
-0.27
-0.265
-0.27
-0.275
-0.27
-0.26
-0.26
-0.25
-0.28
-0.295
-0.285
-0.29
-0.295
-0.28
-0.26
-0.27
-0.255
-0.24
-0.24
-0.25
-0.26
-0.275
-0.28
-0.28
-0.265
-0.265
-0.255
-0.24
-0.245
-0.24
-0.23
-0.235
-0.24
-0.25
-0.265
-0.24
-0.225
-0.215
-0.21
-0.22
-0.195
-0.165
-0.17
-0.17
-0.18
-0.175
-0.15
-0.15
-0.12
-0.105
-0.1
-0.1
-0.085
-0.08
-0.08
-0.09
-0.105
-0.13
-0.13
-0.135
-0.12
-0.135
-0.14
-0.16
-0.17
-0.185
-0.175
-0.19
-0.215
-0.225
-0.235
-0.23
-0.23
-0.225
-0.23
-0.24
-0.245
-0.245
-0.23
-0.24
-0.265
-0.265
-0.275
-0.27
-0.265
-0.27
-0.27
-0.28
-0.28
-0.275
-0.29
-0.285
-0.295
-0.33
-0.33
-0.33
-0.33
-0.32
-0.335
-0.345
-0.34
-0.32
-0.305
-0.315
-0.315
-0.315
-0.325
-0.32
-0.295
-0.3
-0.305
-0.31
-0.29
-0.28
-0.235
-0.22
-0.23
-0.225
-0.23
-0.205
-0.21
-0.21
-0.22
-0.24
-0.235
-0.225
-0.21
-0.185
-0.18
-0.185
-0.185
-0.18
-0.18
-0.185
-0.195
-0.215
-0.195
-0.19
-0.16
-0.155
-0.16
-0.165
-0.17
-0.18
-0.17
-0.19
-0.22
-0.255
-0.255
-0.275
-0.275
-0.32
-0.355
-0.395
-0.38
-0.35
-0.31
-0.29
-0.26
-0.245
-0.22
-0.165
-0.115
-0.07
-0.035
-0.005
0.055
0.14
0.28
0.4
0.53
0.635
0.705
0.745
0.74
0.705
0.65
0.56
0.445
0.33
0.22
0.145
0.07
-0.02
-0.06
-0.085
-0.095
-0.095
-0.105
-0.12
-0.125
-0.125
-0.11
-0.11
-0.12
-0.12
-0.125
-0.11
-0.09
-0.075
-0.105
-0.105
-0.11
-0.09
-0.075
-0.075
-0.07
-0.08
-0.075
-0.055
-0.06
-0.04
-0.055
-0.07
-0.06
-0.065
-0.065
-0.06
-0.075
-0.06
-0.055
-0.03
-0.02
-0.01
-0.02
-0.045
-0.05
-0.04
-0.015
-0.02
-0.025
-0.03
-0.025
-0.005
0.01
0.015
0.015
0.005
0.005
0.015
0.01
0.0
-0.015
-0.005
0.005
0.01
0.015
0.035
0.045
0.025
0.045
0.06
0.065
0.065
0.055
0.04
0.05
0.06
0.08
0.085
0.1
0.105
0.1
0.12
0.135
0.12
0.1
0.09
0.09
0.105
0.125
0.14
0.14
0.135
0.16
0.165
0.16
0.165
0.14
0.145
0.14
0.15
0.165
0.18
0.165
0.175
0.185
0.2
0.21
0.205
0.195
0.18
0.185
0.195
0.2
0.21
0.2
0.18
0.18
0.195
0.205
0.195
0.18
0.175
0.16
0.175
0.16
0.14
0.11
0.09
0.085
0.11
0.105
0.11
0.08
0.07
0.07
0.06
0.07
0.065
0.03
0.01
0.0
-0.005
-0.005
-0.005
-0.015
-0.01
-0.01
-0.005
-0.005
-0.015
-0.02
-0.06
-0.065
-0.06
-0.045
-0.035
-0.05
-0.05
-0.04
-0.03
-0.025
-0.04
-0.06
-0.075
-0.09
-0.075
-0.08
-0.08
-0.065
-0.07
-0.08
-0.06
-0.055
-0.06
-0.085
-0.115
-0.12
-0.1
-0.1
-0.1
-0.1
-0.11
-0.1
-0.08
-0.07
-0.095
-0.11
-0.125
-0.125
-0.12
-0.12
-0.12
-0.135
-0.145
-0.145
-0.125
-0.125
-0.135
-0.15
-0.16
-0.17
-0.165
-0.16
-0.17
-0.17
-0.175
-0.17
-0.155
-0.16
-0.15
-0.175
-0.18
-0.18
-0.185
-0.18
-0.18
-0.19
-0.19
-0.19
-0.19
-0.175
-0.16
-0.17
-0.165
-0.16
-0.16
-0.155
-0.15
-0.17
-0.175
-0.175
-0.165
-0.16
-0.15
-0.165
-0.18
-0.165
-0.155
-0.15
-0.16
-0.155
-0.17
-0.175
-0.16
-0.15
-0.14
-0.15
-0.14
-0.13
-0.12
-0.115
-0.115
-0.13
-0.13
-0.13
-0.13
-0.105
-0.085
-0.085
-0.085
-0.065
-0.06
-0.025
-0.04
-0.05
-0.065
-0.075
-0.07
-0.065
-0.06
-0.055
-0.06
-0.055
-0.03
-0.03
-0.055
-0.07
-0.095
-0.12
-0.115
-0.125
-0.135
-0.15
-0.165
-0.16
-0.15
-0.145
-0.16
-0.18
-0.21
-0.23
-0.205
-0.22
-0.2
-0.22
-0.225
-0.205
-0.2
-0.2
-0.215
-0.23
-0.24
-0.26
-0.27
-0.26
-0.255
-0.27
-0.285
-0.275
-0.275
-0.275
-0.27
-0.285
-0.305
-0.305
-0.31
-0.295
-0.295
-0.295
-0.32
-0.325
-0.28
-0.27
-0.255
-0.25
-0.245
-0.23
-0.22
-0.22
-0.21
-0.215
-0.225
-0.22
-0.21
-0.19
-0.18
-0.19
-0.195
-0.185
-0.19
-0.17
-0.18
-0.185
-0.185
-0.18
-0.175
-0.16
-0.145
-0.15
-0.15
-0.145
-0.155
-0.15
-0.165
-0.185
-0.185
-0.195
-0.185
-0.185
-0.19
-0.2
-0.24
-0.285
-0.32
-0.36
-0.38
-0.385
-0.375
-0.345
-0.3
-0.225
-0.16
-0.1
-0.04
-0.005
0.035
0.08
0.145
0.245
0.385
0.565
0.72
0.81
0.845
0.815
0.75
0.665
0.545
0.385
0.23
0.08
-0.01
-0.09
-0.1
-0.1
-0.1
-0.11
-0.13
-0.13
-0.135
-0.125
-0.135
-0.135
-0.135
-0.14
-0.115
-0.105
-0.095
-0.09
-0.105
-0.12
-0.105
-0.1
-0.105
-0.11
-0.12
-0.11
-0.105
-0.095
-0.07
-0.105
-0.11
-0.1
-0.07
-0.07
-0.07
-0.07
-0.07
-0.085
-0.055
-0.05
-0.055
-0.065
-0.065
-0.05
-0.035
-0.03
-0.03
-0.045
-0.055
-0.06
-0.055
-0.03
-0.04
-0.03
-0.03
-0.025
-0.02
0.0
-0.005
-0.015
-0.03
-0.03
-0.025
-0.02
-0.005
-0.015
-0.01
-0.01
0.025
0.045
0.025
0.01
-0.005
-0.015
0.01
0.025
0.035
0.05
0.04
0.045
0.045
0.07
0.05
0.055
0.055
0.04
0.07
0.095
0.095
0.1
0.105
0.105
0.095
0.095
0.1
0.075
0.065
0.07
0.075
0.12
0.12
0.115
0.115
0.11
0.11
0.11
0.09
0.05
0.045
0.035
0.05
0.06
0.05
0.045
0.015
-0.005
-0.005
-0.02
-0.025
-0.05
-0.06
-0.06
-0.07
-0.075
-0.075
-0.09
-0.115
-0.115
-0.125
-0.13
-0.135
-0.17
-0.16
-0.18
-0.175
-0.16
-0.165
-0.16
-0.185
-0.185
-0.19
-0.175
-0.18
-0.19
-0.195
-0.21
-0.195
-0.185
-0.19
-0.2
-0.22
-0.21
-0.21
-0.195
-0.22
-0.23
-0.24
-0.23
-0.22
-0.21
-0.205
-0.2
-0.225
-0.235
-0.245
-0.235
-0.25
-0.27
-0.28
-0.295
-0.27
-0.255
-0.265
-0.255
-0.27
-0.28
-0.285
-0.29
-0.295
-0.31
-0.315
-0.31
-0.275
-0.265
-0.265
-0.29
-0.31
-0.315
-0.33
-0.32
-0.315
-0.32
-0.315
-0.3
-0.29
-0.285
-0.295
-0.315
-0.31
-0.32
-0.295
-0.285
-0.28
-0.285
-0.295
-0.285
-0.275
-0.285
-0.28
-0.29
-0.31
-0.29
-0.27
-0.255
-0.275
-0.26
-0.285
-0.27
-0.27
-0.27
-0.255
-0.255
-0.27
-0.25
-0.235
-0.215
-0.2
-0.205
-0.2
-0.215
-0.19
-0.175
-0.16
-0.16
-0.165
-0.145
-0.145
-0.12
-0.125
-0.145
-0.15
-0.135
-0.125
-0.12
-0.13
-0.145
-0.185
-0.17
-0.155
-0.14
-0.15
-0.145
-0.145
-0.15
-0.125
-0.11
-0.08
-0.065
-0.01
0.025
0.085
0.135
0.165
0.15
0.095
0.05
0.03
0.04
0.035
-0.01
-0.07
-0.15
-0.235
-0.38
-0.555
-0.72
-0.87
-0.995
-1.13
-1.255
-1.345
-1.4
-1.39
-1.315
-1.255
-1.22
-1.255
-1.315
-1.33
-1.335
-1.31
-1.28
-1.24
-1.205
-1.17
-1.13
-1.06
-0.985
-0.935
-0.915
-0.87
-0.84
-0.805
-0.8
-0.78
-0.74
-0.715
-0.685
-0.635
-0.585
-0.55
-0.54
-0.515
-0.5
-0.445
-0.385
-0.31
-0.205
-0.11
-0.03
0.05
0.11
0.11
0.105
0.095
0.105
0.105
0.12
0.135
0.145
0.125
0.135
0.15
0.15
0.16
0.155
0.135
0.14
0.15
0.17
0.175
0.18
0.19
0.2
0.215
0.235
0.235
0.225
0.23
0.23
0.24
0.255
0.27
0.27
0.285
0.28
0.295
0.315
0.31
0.315
0.305
0.325
0.35
0.375
0.39
0.4
0.4
0.375
0.385
0.395
0.38
0.38
0.39
0.42
0.44
0.47
0.465
0.47
0.445
0.435
0.44
0.45
0.44
0.455
0.455
0.49
0.5
0.5
0.485
0.465
0.44
0.42
0.43
0.435
0.435
0.43
0.42
0.4
0.415
0.395
0.39
0.365
0.335
0.33
0.33
0.335
0.32
0.31
0.28
0.26
0.245
0.245
0.225
0.205
0.185
0.16
0.15
0.135
0.135
0.115
0.115
0.085
0.085
0.08
0.06
0.04
0.02
0.015
0.02
0.02
0.015
-0.02
-0.035
-0.04
-0.03
-0.02
-0.045
-0.065
-0.075
-0.085
-0.065
-0.06
-0.055
-0.08
-0.095
-0.115
-0.11
-0.11
-0.11
-0.14
-0.13
-0.12
-0.1
-0.095
-0.1
-0.115
-0.14
-0.135
-0.14
-0.13
-0.13
-0.135
-0.14
-0.13
-0.13
-0.115
-0.105
-0.135
-0.155
-0.17
-0.165
-0.155
-0.135
-0.13
-0.135
-0.13
-0.125
-0.105
-0.12
-0.13
-0.14
-0.145
-0.135
-0.125
-0.125
-0.12
-0.125
-0.13
-0.12
-0.105
-0.145
-0.165
-0.16
-0.165
-0.135
-0.13
-0.12
-0.115
-0.13
-0.13
-0.125
-0.115
-0.125
-0.14
-0.14
-0.135
-0.14
-0.135
-0.125
-0.125
-0.15
-0.145
-0.135
-0.12
-0.12
-0.14
-0.145
-0.14
-0.14
-0.115
-0.115
-0.115
-0.13
-0.12
-0.115
-0.115
-0.105
-0.12
-0.135
-0.135
-0.13
-0.115
-0.125
-0.1
-0.115
-0.11
-0.1
-0.095
-0.11
-0.12
-0.135
-0.135
-0.11
-0.085
-0.085
-0.09
-0.105
-0.1
-0.095
-0.1
-0.11
-0.13
-0.135
-0.115
-0.095
-0.07
-0.065
-0.075
-0.095
-0.11
-0.125
-0.115
-0.115
-0.135
-0.12
-0.105
-0.09
-0.07
-0.065
-0.085
-0.1
-0.115
-0.115
-0.105
-0.08
-0.08
-0.075
-0.065
-0.035
-0.025
-0.045
-0.05
-0.06
-0.065
-0.055
-0.035
-0.035
-0.035
-0.045
-0.055
-0.055
-0.06
-0.08
-0.105
-0.125
-0.13
-0.125
-0.115
-0.12
-0.135
-0.155
-0.16
-0.145
-0.145
-0.15
-0.175
-0.175
-0.19
-0.185
-0.19
-0.215
-0.21
-0.215
-0.24
-0.225
-0.22
-0.225
-0.245
-0.265
-0.265
-0.255
-0.255
-0.235
-0.235
-0.245
-0.225
-0.215
-0.2
-0.18
-0.205
-0.2
-0.195
-0.16
-0.145
-0.125
-0.16
-0.165
-0.175
-0.19
-0.18
-0.175
-0.165
-0.165
-0.14
-0.125
-0.1
-0.1
-0.11
-0.13
-0.14
-0.13
-0.13
-0.11
-0.105
-0.1
-0.105
-0.11
-0.105
-0.125
-0.145
-0.16
-0.185
-0.19
-0.215
-0.265
-0.305
-0.305
-0.27
-0.22
-0.155
-0.1
-0.05
-0.01
0.025
0.07
0.145
0.23
0.36
0.515
0.68
0.795
0.83
0.785
0.705
0.59
0.43
0.265
0.155
0.055
-0.02
-0.065
-0.1
-0.095
-0.09
-0.09
-0.1
-0.1
-0.095
-0.08
-0.07
-0.075
-0.085
-0.095
-0.085
-0.075
-0.065
-0.065
-0.07
-0.075
-0.075
-0.06
-0.045
-0.05
-0.065
-0.065
-0.065
-0.05
-0.025
-0.015
-0.015
-0.035
-0.04
-0.05
-0.035
-0.035
-0.035
-0.04
-0.015
0.0
0.02
0.01
-0.005
-0.02
-0.035
-0.02
0.0
0.005
0.01
0.005
-0.005
0.005
0.0
-0.005
-0.005
-0.025
-0.005
0.005
0.03
0.05
0.05
0.04
0.025
0.03
0.04
0.04
0.045
0.05
0.055
0.075
0.1
0.095
0.08
0.05
0.045
0.05
0.07
0.075
0.08
0.09
0.11
0.12
0.13
0.11
0.095
0.1
0.1
0.105
0.115
0.11
0.105
0.095
0.1
0.11
0.11
0.095
0.07
0.055
0.035
0.035
0.045
0.03
0.015
0.015
0.005
0.025
0.02
-0.015
-0.035
-0.055
-0.07
-0.04
-0.045
-0.04
-0.05
-0.07
-0.08
-0.11
-0.09
-0.095
-0.11
-0.095
-0.095
-0.075
-0.075
-0.075
-0.105
-0.11
-0.11
-0.105
-0.1
-0.11
-0.09
-0.095
-0.095
-0.095
-0.09
-0.1
-0.12
-0.13
-0.13
-0.115
-0.095
-0.08
-0.08
-0.085
-0.095
-0.105
-0.125
-0.14
-0.155
-0.17
-0.165
-0.15
-0.125
-0.145
-0.17
-0.18
-0.19
-0.195
-0.185
-0.195
-0.19
-0.21
-0.205
-0.2
-0.195
-0.195
-0.215
-0.235
-0.245
-0.23
-0.225
-0.225
-0.225
-0.24
-0.26
-0.235
-0.22
-0.225
-0.235
-0.24
-0.25
-0.235
-0.215
-0.23
-0.235
-0.245
-0.235
-0.23
-0.215
-0.215
-0.215
-0.23
-0.235
-0.235
-0.22
-0.225
-0.23
-0.22
-0.22
-0.205
-0.195
-0.2
-0.225
-0.235
-0.24
-0.235
-0.215
-0.215
-0.205
-0.205
-0.19
-0.175
-0.165
-0.17
-0.175
-0.18
-0.185
-0.165
-0.145
-0.14
-0.14
-0.14
-0.155
-0.165
-0.145
-0.17
-0.18
-0.215
-0.22
-0.205
-0.185
-0.19
-0.2
-0.215
-0.225
-0.22
-0.215
-0.25
-0.25
-0.26
-0.265
-0.245
-0.235
-0.225
-0.24
-0.265
-0.29
-0.3
-0.285
-0.295
-0.3
-0.295
-0.295
-0.28
-0.27
-0.27
-0.285
-0.295
-0.285
-0.275
-0.25
-0.24
-0.23
-0.225
-0.21
-0.185
-0.165
-0.17
-0.18
-0.195
-0.195
-0.21
-0.18
-0.19
-0.2
-0.195
-0.175
-0.155
-0.145
-0.155
-0.13
-0.145
-0.135
-0.135
-0.12
-0.13
-0.14
-0.14
-0.14
-0.125
-0.105
-0.11
-0.12
-0.125
-0.14
-0.14
-0.14
-0.14
-0.17
-0.2
-0.205
-0.235
-0.28
-0.315
-0.345
-0.34
-0.33
-0.295
-0.24
-0.215
-0.155
-0.11
-0.065
-0.015
0.05
0.065
0.135
0.225
0.405
0.585
0.755
0.835
0.825
0.785
0.715
0.62
0.47
0.295
0.15
0.03
-0.05
-0.08
-0.07
-0.085
-0.085
-0.085
-0.075
-0.075
-0.06
-0.095
-0.095
-0.1
-0.115
-0.085
-0.07
-0.06
-0.06
-0.07
-0.065
-0.065
-0.065
-0.055
-0.075
-0.06
-0.05
-0.035
-0.02
-0.025
-0.02
-0.035
-0.03
-0.035
-0.01
-0.015
-0.02
-0.025
-0.025
-0.02
-0.005
-0.01
-0.01
0.0
-0.01
-0.01
-0.005
0.005
0.01
-0.01
0.0
0.02
0.035
0.02
0.02
0.035
0.03
0.04
0.045
0.05
0.025
0.02
0.015
0.04
0.055
0.075
0.075
0.065
0.07
0.075
0.08
0.075
0.085
0.09
0.1
0.12
0.125
0.125
0.11
0.1
0.105
0.11
0.135
0.15
0.15
0.16
0.165
0.165
0.185
0.16
0.14
0.125
0.125
0.15
0.15
0.165
0.165
0.16
0.15
0.135
0.135
0.115
0.095
0.075
0.07
0.08
0.1
0.085
0.06
0.03
0.015
0.005
0.0
-0.01
-0.01
-0.02
-0.035
-0.03
-0.03
-0.04
-0.055
-0.07
-0.09
-0.085
-0.075
-0.075
-0.085
-0.09
-0.105
-0.1
-0.09
-0.105
-0.115
-0.115
-0.135
-0.135
-0.105
-0.1
-0.115
-0.12
-0.125
-0.12
-0.115
-0.14
-0.14
-0.165
-0.165
-0.145
-0.14
-0.15
-0.165
-0.175
-0.175
-0.17
-0.17
-0.17
-0.16
-0.175
-0.165
-0.17
-0.165
-0.185
-0.225
-0.225
-0.225
-0.205
-0.18
-0.175
-0.17
-0.185
-0.205
-0.215
-0.21
-0.215
-0.205
-0.2
-0.18
-0.175
-0.16
-0.175
-0.19
-0.21
-0.2
-0.185
-0.185
-0.17
-0.15
-0.16
-0.18
-0.195
-0.185
-0.19
-0.175
-0.175
-0.18
-0.15
-0.13
-0.14
-0.16
-0.175
-0.17
-0.165
-0.135
-0.14
-0.145
-0.145
-0.16
-0.16
-0.155
-0.14
-0.135
-0.13
-0.125
-0.115
-0.09
-0.09
-0.09
-0.105
-0.125
-0.15
-0.125
-0.13
-0.14
-0.175
-0.17
-0.165
-0.145
-0.14
-0.16
-0.17
-0.195
-0.2
-0.185
-0.2
-0.195
-0.22
-0.235
-0.245
-0.245
-0.255
-0.27
-0.265
-0.25
-0.24
-0.225
-0.225
-0.235
-0.26
-0.265
-0.255
-0.21
-0.2
-0.18
-0.175
-0.165
-0.145
-0.135
-0.145
-0.16
-0.185
-0.18
-0.175
-0.16
-0.13
-0.115
-0.13
-0.145
-0.135
-0.115
-0.115
-0.12
-0.11
-0.105
-0.09
-0.08
-0.085
-0.1
-0.12
-0.11
-0.105
-0.105
-0.095
-0.12
-0.14
-0.17
-0.205
-0.255
-0.33
-0.365
-0.335
-0.29
-0.22
-0.155
-0.115
-0.06
-0.04
0.01
0.05
0.125
0.235
0.4
0.6
0.77
0.86
0.855
0.785
0.665
0.525
0.35
0.23
0.145
0.08
0.01
-0.05
-0.065
-0.05
-0.03
-0.03
-0.03
-0.055
-0.06
-0.055
-0.045
-0.045
-0.03
-0.01
-0.005
0.01
0.0
-0.015
-0.035
-0.045
-0.055
-0.03
-0.02
0.0
-0.005
0.01
-0.005
0.005
0.025
0.015
-0.005
0.0
-0.01
0.01
0.045
0.04
0.045
0.035
0.04
0.04
0.05
0.03
0.025
0.03
0.03
0.05
0.07
0.08
0.075
0.04
0.04
0.045
0.07
0.07
0.075
0.055
0.055
0.075
0.085
0.075
0.065
0.07
0.065
0.095
0.115
0.125
0.115
0.12
0.115
0.135
0.15
0.145
0.135
0.125
0.13
0.13
0.15
0.14
0.14
0.15
0.155
0.19
0.215
0.2
0.19
0.165
0.16
0.17
0.175
0.18
0.18
0.175
0.175
0.2
0.19
0.195
0.18
0.15
0.135
0.135
0.13
0.13
0.12
0.105
0.1
0.09
0.08
0.055
0.025
0.015
0.01
0.03
0.035
0.04
0.005
-0.005
-0.025
-0.03
-0.035
-0.05
-0.06
-0.06
-0.035
-0.04
-0.04
-0.065
-0.095
-0.115
-0.13
-0.11
-0.1
-0.08
-0.085
-0.085
-0.105
-0.1
-0.11
-0.105
-0.12
-0.12
-0.12
-0.12
-0.105
-0.1
-0.135
-0.15
-0.165
-0.15
-0.13
-0.145
-0.16
-0.18
-0.185
-0.175
-0.15
-0.165
-0.165
-0.19
-0.205
-0.185
-0.175
-0.19
-0.195
-0.205
-0.21
-0.2
-0.19
-0.19
-0.175
-0.205
-0.22
-0.22
-0.205
-0.215
-0.21
-0.2
-0.19
-0.18
-0.18
-0.19
-0.195
-0.215
-0.225
-0.21
-0.19
-0.19
-0.175
-0.175
-0.185
-0.18
-0.18
-0.195
-0.2
-0.205
-0.195
-0.16
-0.145
-0.165
-0.18
-0.2
-0.205
-0.195
-0.185
-0.18
-0.175
-0.17
-0.17
-0.155
-0.145
-0.16
-0.17
-0.165
-0.155
-0.15
-0.12
-0.11
-0.115
-0.11
-0.115
-0.11
-0.115
-0.135
-0.15
-0.155
-0.155
-0.14
-0.135
-0.14
-0.17
-0.175
-0.185
-0.185
-0.18
-0.19
-0.2
-0.205
-0.215
-0.205
-0.2
-0.21
-0.225
-0.235
-0.25
-0.25
-0.25
-0.27
-0.275
-0.29
-0.285
-0.305
-0.28
-0.275
-0.27
-0.28
-0.3
-0.27
-0.255
-0.275
-0.265
-0.235
-0.24
-0.22
-0.19
-0.195
-0.16
-0.165
-0.18
-0.19
-0.185
-0.21
-0.2
-0.195
-0.16
-0.14
-0.125
-0.13
-0.13
-0.145
-0.145
-0.15
-0.145
-0.14
-0.125
-0.12
-0.11
-0.095
-0.105
-0.12
-0.15
-0.155
-0.16
-0.15
-0.14
-0.155
-0.18
-0.185
-0.26
-0.31
-0.35
-0.365
-0.345
-0.31
-0.29
-0.215
-0.125
-0.08
-0.045
-0.02
-0.01
0.04
0.13
0.28
0.47
0.645
0.765
0.83
0.82
0.755
0.685
0.58
0.425
0.275
0.18
0.09
0.03
-0.03
-0.06
-0.045
-0.06
-0.05
-0.06
-0.055
-0.055
-0.05
-0.055
-0.045
-0.06
-0.06
-0.075
-0.05
-0.04
-0.03
-0.045
-0.045
-0.04
-0.035
-0.01
-0.015
-0.03
-0.015
-0.02
0.005
0.02
0.005
0.005
0.0
-0.005
0.0
0.015
-0.005
-0.005
0.01
0.005
0.03
0.05
0.055
0.045
0.04
0.03
0.03
0.035
0.025
0.03
0.045
0.055
0.055
0.095
0.085
0.085
0.08
0.07
0.065
0.07
0.07
0.065
0.07
0.085
0.11
0.13
0.13
0.12
0.115
0.1
0.095
0.12
0.115
0.12
0.125
0.135
0.155
0.185
0.17
0.165
0.155
0.15
0.135
0.165
0.165
0.155
0.165
0.17
0.2
0.225
0.23
0.225
0.215
0.2
0.21
0.22
0.215
0.21
0.22
0.22
0.235
0.245
0.24
0.22
0.205
0.2
0.195
0.205
0.19
0.185
0.18
0.17
0.175
0.17
0.165
0.135
0.13
0.11
0.105
0.12
0.11
0.08
0.075
0.055
0.055
0.055
0.055
0.045
0.04
0.04
0.05
0.045
0.03
0.01
-0.015
-0.025
-0.035
-0.02
-0.005
-0.005
-0.005
-0.03
-0.02
-0.005
-0.01
-0.02
-0.05
-0.08
-0.07
-0.06
-0.055
-0.065
-0.055
-0.055
-0.06
-0.05
-0.045
-0.07
-0.1
-0.105
-0.105
-0.075
-0.075
-0.08
-0.07
-0.085
-0.07
-0.07
-0.095
-0.11
-0.135
-0.145
-0.13
-0.115
-0.13
-0.12
-0.125
-0.12
-0.135
-0.13
-0.155
-0.175
-0.175
-0.185
-0.18
-0.15
-0.16
-0.16
-0.15
-0.15
-0.16
-0.145
-0.15
-0.17
-0.19
-0.195
-0.175
-0.16
-0.17
-0.175
-0.16
-0.17
-0.17
-0.155
-0.15
-0.165
-0.175
-0.175
-0.17
-0.155
-0.145
-0.15
-0.165
-0.165
-0.15
-0.155
-0.15
-0.165
-0.165
-0.17
-0.165
-0.155
-0.165
-0.16
-0.155
-0.175
-0.15
-0.145
-0.135
-0.14
-0.145
-0.165
-0.16
-0.16
-0.16
-0.17
-0.175
-0.175
-0.14
-0.125
-0.12
-0.12
-0.11
-0.145
-0.13
-0.1
-0.095
-0.1
-0.085
-0.08
-0.095
-0.09
-0.095
-0.12
-0.14
-0.155
-0.16
-0.16
-0.15
-0.145
-0.145
-0.16
-0.16
-0.16
-0.18
-0.195
-0.205
-0.215
-0.2
-0.185
-0.2
-0.19
-0.215
-0.24
-0.24
-0.245
-0.27
-0.28
-0.275
-0.275
-0.255
-0.235
-0.23
-0.23
-0.245
-0.255
-0.255
-0.235
-0.225
-0.225
-0.22
-0.205
-0.19
-0.15
-0.155
-0.145
-0.155
-0.16
-0.165
-0.165
-0.175
-0.18
-0.18
-0.155
-0.115
-0.11
-0.105
-0.11
-0.125
-0.125
-0.1
-0.09
-0.09
-0.11
-0.11
-0.105
-0.11
-0.09
-0.08
-0.1
-0.115
-0.11
-0.095
-0.1
-0.13
-0.145
-0.16
-0.19
-0.245
-0.295
-0.33
-0.355
-0.345
-0.315
-0.26
-0.21
-0.17
-0.115
-0.08
-0.05
-0.01
0.045
0.08
0.145
0.26
0.425
0.605
0.76
0.8
0.79
0.725
0.64
0.5
0.36
0.225
0.12
0.03
-0.035
-0.055
-0.055
-0.05
-0.06
-0.06
-0.065
-0.06
-0.045
-0.065
-0.09
-0.095
-0.08
-0.08
-0.065
-0.045
-0.05
-0.04
-0.05
-0.055
-0.07
-0.065
-0.06
-0.075
-0.075
-0.05
-0.025
-0.025
-0.01
-0.015
-0.03
-0.03
-0.025
-0.015
-0.01
-0.025
-0.005
0.005
0.01
0.015
0.025
0.005
-0.005
-0.005
0.01
0.015
0.015
0.005
0.01
0.035
0.05
0.045
0.045
0.03
0.025
0.045
0.055
0.05
0.035
0.035
0.05
0.055
0.085
0.085
0.07
0.08
0.065
0.08
0.08
0.075
0.075
0.07
0.065
0.085
0.105
0.11
0.115
0.12
0.12
0.12
0.13
0.125
0.12
0.125
0.14
0.155
0.175
0.18
0.17
0.17
0.145
0.155
0.155
0.155
0.145
0.15
0.165
0.18
0.18
0.175
0.155
0.13
0.1
0.09
0.1
0.1
0.095
0.1
0.09
0.09
0.09
0.06
0.04
-0.01
-0.02
-0.02
-0.01
-0.005
-0.035
-0.03
-0.05
-0.055
-0.045
-0.065
-0.09
-0.105
-0.11
-0.1
-0.09
-0.105
-0.105
-0.115
-0.105
-0.11
-0.1
-0.12
-0.125
-0.13
-0.135
-0.145
-0.115
-0.115
-0.125
-0.135
-0.14
-0.145
-0.14
-0.14
-0.155
-0.17
-0.18
-0.18
-0.165
-0.175
-0.18
-0.18
-0.185
-0.165
-0.155
-0.16
-0.185
-0.22
-0.22
-0.225
-0.21
-0.235
-0.235
-0.245
-0.24
-0.22
-0.21
-0.205
-0.215
-0.225
-0.24
-0.24
-0.245
-0.255
-0.275
-0.265
-0.24
-0.22
-0.21
-0.21
-0.225
-0.24
-0.26
-0.25
-0.255
-0.265
-0.245
-0.24
-0.235
-0.215
-0.195
-0.2
-0.21
-0.225
-0.24
-0.255
-0.235
-0.235
-0.22
-0.215
-0.225
-0.21
-0.195
-0.2
-0.205
-0.22
-0.23
-0.21
-0.21
-0.225
-0.21
-0.205
-0.195
-0.185
-0.175
-0.175
-0.19
-0.2
-0.235
-0.215
-0.205
-0.205
-0.205
-0.215
-0.195
-0.18
-0.175
-0.19
-0.185
-0.195
-0.19
-0.175
-0.15
-0.145
-0.145
-0.14
-0.155
-0.15
-0.145
-0.165
-0.175
-0.19
-0.225
-0.2
-0.19
-0.195
-0.21
-0.225
-0.21
-0.2
-0.185
-0.185
-0.175
-0.195
-0.215
-0.205
-0.2
-0.22
-0.23
-0.23
-0.23
-0.215
-0.2
-0.205
-0.21
-0.205
-0.215
-0.205
-0.2
-0.2
-0.215
-0.225
