Lead II
-0.47
-0.44
-0.43
-0.425
-0.42
-0.43
-0.445
-0.465
-0.475
-0.51
-0.51
-0.52
-0.52
-0.52
-0.53
-0.54
-0.56
-0.565
-0.565
-0.585
-0.6
-0.62
-0.62
-0.615
-0.62
-0.605
-0.615
-0.605
-0.615
-0.62
-0.635
-0.64
-0.655
-0.645
-0.645
-0.64
-0.645
-0.625
-0.625
-0.61
-0.605
-0.605
-0.605
-0.6
-0.6
-0.6
-0.595
-0.595
-0.585
-0.565
-0.565
-0.555
-0.545
-0.545
-0.55
-0.555
-0.545
-0.545
-0.54
-0.54
-0.54
-0.53
-0.535
-0.52
-0.54
-0.535
-0.53
-0.535
-0.55
-0.565
-0.565
-0.57
-0.565
-0.555
-0.56
-0.555
-0.56
-0.56
-0.58
-0.585
-0.605
-0.61
-0.61
-0.605
-0.61
-0.605
-0.61
-0.61
-0.62
-0.625
-0.615
-0.63
-0.65
-0.66
-0.685
-0.685
-0.675
-0.66
-0.65
-0.645
-0.65
-0.645
-0.675
-0.67
-0.69
-0.7
-0.7
-0.69
-0.695
-0.69
-0.685
-0.67
-0.665
-0.665
-0.695
-0.7
-0.695
-0.71
-0.715
-0.725
-0.72
-0.71
-0.705
-0.7
-0.695
-0.68
-0.68
-0.7
-0.7
-0.705
-0.71
-0.72
-0.715
-0.705
-0.705
-0.68
-0.67
-0.66
-0.635
-0.605
-0.6
-0.59
-0.565
-0.555
-0.555
-0.545
-0.52
-0.485
-0.47
-0.465
-0.485
-0.495
-0.51
-0.53
-0.565
-0.595
-0.63
-0.65
-0.665
-0.665
-0.675
-0.685
-0.7
-0.71
-0.725
-0.74
-0.755
-0.755
-0.77
-0.75
-0.75
-0.74
-0.735
-0.74
-0.745
-0.755
-0.75
-0.75
-0.775
-0.765
-0.8
-0.835
-0.86
-0.82
-0.665
-0.385
0.055
0.57
1.075
1.45
1.565
1.42
0.955
0.315
-0.325
-0.965
-1.605
-1.62
-1.425
-1.18
-1.01
-0.9
-0.865
-0.86
-0.88
-0.86
-0.845
-0.8
-0.77
-0.77
-0.765
-0.785
-0.805
-0.82
-0.825
-0.83
-0.83
-0.82
-0.815
-0.795
-0.795
-0.795
-0.805
-0.815
-0.81
-0.815
-0.81
-0.815
-0.805
-0.805
-0.785
-0.785
-0.775
-0.775
-0.785
-0.79
-0.79
-0.795
-0.795
-0.8
-0.785
-0.765
-0.75
-0.745
-0.735
-0.745
-0.745
-0.75
-0.76
-0.76
-0.755
-0.75
-0.745
-0.735
-0.725
-0.705
-0.7
-0.69
-0.695
-0.695
-0.7
-0.7
-0.71
-0.715
-0.705
-0.69
-0.695
-0.685
-0.685
-0.685
-0.685
-0.7
-0.705
-0.725
-0.715
-0.72
-0.715
-0.71
-0.715
-0.71
-0.705
-0.715
-0.725
-0.73
-0.735
-0.745
-0.75
-0.735
-0.72
-0.695
-0.665
-0.65
-0.625
-0.6
-0.575
-0.565
-0.555
-0.55
-0.545
-0.535
-0.53
-0.515
-0.515
-0.52
-0.53
-0.535
-0.55
-0.55
-0.565
-0.58
-0.595
-0.6
-0.605
-0.615
-0.62
-0.62
-0.63
-0.64
-0.65
-0.655
-0.67
-0.69
-0.675
-0.68
-0.69
-0.675
-0.67
-0.66
-0.655
-0.66
-0.655
-0.67
-0.67
-0.67
-0.68
-0.665
-0.655
-0.65
-0.635
-0.63
-0.62
-0.62
-0.615
-0.61
-0.605
-0.615
-0.615
-0.605
-0.605
-0.59
-0.585
-0.565
-0.56
-0.555
-0.54
-0.545
-0.555
-0.56
-0.555
-0.55
-0.545
-0.535
-0.53
-0.54
-0.525
-0.535
-0.54
-0.56
-0.57
-0.57
-0.575
-0.585
-0.575
-0.575
-0.57
-0.575
-0.56
-0.575
-0.575
-0.585
-0.6
-0.61
-0.615
-0.62
-0.625
-0.62
-0.625
-0.6
-0.6
-0.61
-0.63
-0.625
-0.64
-0.64
-0.635
-0.63
-0.63
-0.645
-0.64
-0.62
-0.625
-0.63
-0.63
-0.635
-0.64
-0.645
-0.65
-0.645
-0.65
-0.64
-0.64
-0.625
-0.62
-0.63
-0.64
-0.65
-0.675
-0.67
-0.66
-0.665
-0.665
-0.67
-0.66
-0.66
-0.64
-0.645
-0.67
-0.665
-0.68
-0.68
-0.705
-0.68
-0.665
-0.67
-0.665
-0.66
-0.65
-0.65
-0.65
-0.66
-0.665
-0.665
-0.665
-0.665
-0.655
-0.645
-0.645
-0.64
-0.64
-0.645
-0.63
-0.635
-0.625
-0.625
-0.61
-0.585
-0.58
-0.575
-0.57
-0.57
-0.57
-0.59
-0.575
-0.58
-0.58
-0.58
-0.6
-0.625
-0.64
-0.62
-0.61
-0.6
-0.58
-0.605
-0.61
-0.615
-0.635
-0.645
-0.635
-0.645
-0.645
-0.63
-0.635
-0.625
-0.615
-0.605
-0.59
-0.585
-0.57
-0.545
-0.51
-0.405
-0.23
0.03
0.375
0.805
1.23
1.555
1.73
1.705
1.44
0.915
0.275
-0.365
-1.005
-1.505
-1.445
-1.195
-0.935
-0.78
-0.71
-0.705
-0.735
-0.765
-0.78
-0.755
-0.74
-0.72
-0.72
-0.72
-0.735
-0.755
-0.755
-0.77
-0.78
-0.785
-0.79
-0.775
-0.775
-0.76
-0.75
-0.74
-0.73
-0.75
-0.745
-0.73
-0.75
-0.75
-0.75
-0.73
-0.735
-0.71
-0.7
-0.7
-0.685
-0.69
-0.69
-0.685
-0.675
-0.67
-0.665
-0.665
-0.66
-0.65
-0.645
-0.63
-0.615
-0.625
-0.625
-0.62
-0.625
-0.62
-0.62
-0.615
-0.61
-0.595
-0.585
-0.57
-0.555
-0.565
-0.56
-0.565
-0.565
-0.565
-0.565
-0.545
-0.54
-0.525
-0.52
-0.52
-0.495
-0.495
-0.495
-0.49
-0.495
-0.485
-0.495
-0.49
-0.49
-0.48
-0.475
-0.455
-0.43
-0.435
-0.43
-0.43
-0.425
-0.4
-0.395
-0.37
-0.34
-0.315
-0.295
-0.27
-0.25
-0.25
-0.25
-0.26
-0.275
-0.295
-0.31
-0.34
-0.355
-0.37
-0.375
-0.4
-0.39
-0.415
-0.435
-0.465
-0.475
-0.495
-0.525
-0.54
-0.545
-0.545
-0.555
-0.565
-0.56
-0.575
-0.57
-0.6
-0.605
-0.61
-0.61
-0.605
-0.6
-0.605
-0.61
-0.595
-0.59
-0.595
-0.58
-0.585
-0.59
-0.59
-0.595
-0.595
-0.59
-0.57
-0.555
-0.545
-0.53
-0.54
-0.53
-0.535
-0.54
-0.54
-0.56
-0.535
-0.535
-0.535
-0.53
-0.515
-0.505
-0.51
-0.515
-0.515
-0.52
-0.535
-0.55
-0.54
-0.535
-0.545
-0.545
-0.55
-0.545
-0.555
-0.565
-0.58
-0.585
-0.585
-0.585
-0.58
-0.59
-0.585
-0.585
-0.6
-0.6
-0.59
-0.6
-0.615
-0.62
-0.625
-0.64
-0.635
-0.63
-0.63
-0.63
-0.62
-0.62
-0.63
-0.63
-0.635
-0.66
-0.66
-0.66
-0.66
-0.66
-0.66
-0.655
-0.65
-0.655
-0.67
-0.675
-0.65
-0.65
-0.66
-0.665
-0.67
-0.67
-0.655
-0.66
-0.66
-0.66
-0.655
-0.66
-0.675
-0.68
-0.69
-0.685
-0.68
-0.695
-0.685
-0.68
-0.66
-0.66
-0.665
-0.655
-0.66
-0.665
-0.665
-0.675
-0.69
-0.685
-0.665
-0.665
-0.665
-0.65
-0.66
-0.65
-0.665
-0.665
-0.68
-0.68
-0.665
-0.67
-0.655
-0.64
-0.62
-0.61
-0.605
-0.6
-0.59
-0.59
-0.59
-0.6
-0.61
-0.61
-0.61
-0.595
-0.58
-0.565
-0.57
-0.585
-0.615
-0.63
-0.645
-0.655
-0.65
-0.635
-0.62
-0.625
-0.63
-0.615
-0.62
-0.635
-0.655
-0.675
-0.675
-0.665
-0.665
-0.645
-0.625
-0.61
-0.57
-0.565
-0.535
-0.46
-0.31
-0.03
0.325
0.76
1.21
1.56
1.74
1.73
1.54
1.1
0.46
-0.18
-0.82
-1.415
-1.495
-1.335
-1.095
-0.875
-0.765
-0.735
-0.755
-0.785
-0.81
-0.8
-0.785
-0.765
-0.75
-0.77
-0.78
-0.785
-0.795
-0.805
-0.81
-0.795
-0.81
-0.82
-0.8
-0.795
-0.8
-0.8
-0.8
-0.795
-0.79
-0.785
-0.78
-0.77
-0.755
-0.755
-0.755
-0.765
-0.77
-0.765
-0.775
-0.76
-0.745
-0.74
-0.715
-0.705
-0.705
-0.705
-0.705
-0.705
-0.71
-0.705
-0.7
-0.68
-0.67
-0.665
-0.665
-0.65
-0.64
-0.63
-0.64
-0.63
-0.635
-0.625
-0.63
-0.615
-0.605
-0.595
-0.58
-0.56
-0.565
-0.565
-0.555
-0.57
-0.575
-0.58
-0.565
-0.55
-0.535
-0.53
-0.51
-0.51
-0.505
-0.495
-0.505
-0.505
-0.5
-0.5
-0.49
-0.49
-0.47
-0.475
-0.445
-0.42
-0.415
-0.395
-0.38
-0.375
-0.35
-0.34
-0.315
-0.3
-0.29
-0.275
-0.28
-0.285
-0.315
-0.345
-0.35
-0.37
-0.395
-0.41
-0.43
-0.44
-0.455
-0.47
-0.475
-0.475
-0.5
-0.495
-0.515
-0.535
-0.56
-0.58
-0.585
-0.585
-0.585
-0.59
-0.58
-0.59
-0.605
-0.6
-0.615
-0.62
-0.62
-0.63
-0.615
-0.62
-0.615
-0.605
-0.6
-0.6
-0.6
-0.6
-0.61
-0.615
-0.61
-0.625
-0.61
-0.61
-0.595
-0.595
-0.585
-0.57
-0.56
-0.565
-0.575
-0.58
-0.58
-0.58
-0.575
-0.565
-0.555
-0.555
-0.55
-0.55
-0.555
-0.565
-0.56
-0.575
-0.585
-0.59
-0.59
-0.575
-0.585
-0.59
-0.585
-0.585
-0.58
-0.575
-0.585
-0.595
-0.615
-0.625
-0.62
-0.605
-0.605
-0.605
-0.61
-0.605
-0.61
-0.61
-0.62
-0.635
-0.63
-0.63
-0.645
-0.64
-0.64
-0.645
-0.65
-0.645
-0.66
-0.655
-0.655
-0.655
-0.67
-0.68
-0.68
-0.685
-0.68
-0.66
-0.665
-0.65
-0.645
-0.645
-0.665
-0.67
-0.68
-0.71
-0.685
-0.695
-0.68
-0.68
-0.675
-0.665
-0.67
-0.67
-0.675
-0.685
-0.69
-0.7
-0.7
-0.69
-0.69
-0.67
-0.67
-0.665
-0.655
-0.655
-0.665
-0.67
-0.685
-0.69
-0.685
-0.68
-0.685
-0.675
-0.665
-0.66
-0.665
-0.665
-0.685
-0.68
-0.69
-0.685
-0.675
-0.685
-0.675
-0.675
-0.665
-0.645
-0.64
-0.63
-0.615
-0.605
-0.605
-0.6
-0.605
-0.6
-0.605
-0.59
-0.58
-0.555
-0.57
-0.57
-0.595
-0.62
-0.65
-0.65
-0.645
-0.645
-0.63
-0.62
-0.615
-0.61
-0.62
-0.635
-0.655
-0.675
-0.67
-0.67
-0.68
-0.67
-0.64
-0.635
-0.61
-0.57
-0.555
-0.5
-0.37
-0.175
0.11
0.49
0.92
1.34
1.63
1.75
1.665
1.36
0.775
0.135
-0.505
-1.145
-1.575
-1.505
-1.25
-0.98
-0.8
-0.73
-0.735
-0.765
-0.8
-0.81
-0.81
-0.785
-0.77
-0.765
-0.77
-0.775
-0.795
-0.795
-0.795
-0.805
-0.79
-0.79
-0.795
-0.805
-0.805
-0.815
-0.805
-0.795
-0.78
-0.77
-0.76
-0.755
-0.75
-0.755
-0.76
-0.745
-0.75
-0.745
-0.74
-0.73
-0.715
-0.72
-0.71
-0.69
-0.7
-0.69
-0.675
-0.69
-0.68
-0.68
-0.685
-0.675
-0.665
-0.655
-0.63
-0.625
-0.625
-0.62
-0.62
-0.62
-0.62
-0.61
-0.61
-0.595
-0.59
-0.585
-0.57
-0.56
-0.56
-0.56
-0.555
-0.56
-0.56
-0.565
-0.555
-0.55
-0.54
-0.53
-0.525
-0.515
-0.5
-0.49
-0.49
-0.5
-0.505
-0.5
-0.505
-0.5
-0.47
-0.45
-0.43
-0.42
-0.415
-0.4
-0.39
-0.375
-0.38
-0.36
-0.345
-0.32
-0.31
-0.3
-0.285
-0.28
-0.285
-0.3
-0.325
-0.345
-0.38
-0.4
-0.425
-0.43
-0.445
-0.45
-0.465
-0.48
-0.48
-0.51
-0.535
-0.55
-0.575
-0.59
-0.59
-0.61
-0.6
-0.595
-0.6
-0.6
-0.59
-0.605
-0.615
-0.615
-0.635
-0.645
-0.635
-0.625
-0.61
-0.595
-0.6
-0.59
-0.6
-0.6
-0.6
-0.595
-0.615
-0.615
-0.595
-0.585
-0.58
-0.575
-0.565
-0.57
-0.565
-0.555
-0.555
-0.565
-0.56
-0.565
-0.56
-0.56
-0.545
-0.55
-0.545
-0.54
-0.535
-0.54
-0.545
-0.55
-0.555
-0.56
-0.55
-0.555
-0.55
-0.56
-0.57
-0.57
-0.58
-0.58
-0.595
-0.595
-0.595
-0.605
-0.6
-0.61
-0.6
-0.605
-0.595
-0.595
-0.595
-0.615
-0.61
-0.62
-0.64
-0.64
-0.64
-0.63
-0.625
-0.62
-0.64
-0.63
-0.64
-0.645
-0.64
-0.65
-0.645
-0.66
-0.67
-0.67
-0.665
-0.66
-0.655
-0.655
-0.65
-0.655
-0.655
-0.66
-0.665
-0.675
-0.67
-0.66
-0.67
-0.65
-0.65
-0.65
-0.645
-0.665
-0.67
-0.68
-0.685
-0.69
-0.685
-0.67
-0.665
-0.655
-0.655
-0.655
-0.65
-0.65
-0.665
-0.675
-0.68
-0.66
-0.685
-0.675
-0.665
-0.655
-0.645
-0.64
-0.635
-0.63
-0.64
-0.65
-0.665
-0.65
-0.64
-0.625
-0.605
-0.57
-0.555
-0.53
-0.53
-0.52
-0.515
-0.515
-0.525
-0.545
-0.565
-0.59
-0.59
-0.575
-0.575
-0.575
-0.575
-0.575
-0.585
-0.605
-0.63
-0.665
-0.665
-0.675
-0.68
-0.665
-0.65
-0.635
-0.64
-0.635
-0.635
-0.63
-0.63
-0.615
-0.6
-0.555
-0.5
-0.41
-0.245
0.01
0.34
0.75
1.15
1.48
1.665
1.695
1.53
1.13
0.5
-0.14
-0.78
-1.42
-1.555
-1.41
-1.175
-0.95
-0.83
-0.775
-0.77
-0.8
-0.82
-0.805
-0.785
-0.74
-0.73
-0.72
-0.74
-0.75
-0.765
-0.785
-0.78
-0.8
-0.795
-0.775
-0.765
-0.75
-0.745
-0.74
-0.74
-0.735
-0.735
-0.74
-0.735
-0.74
-0.735
-0.72
-0.705
-0.71
-0.7
-0.69
-0.675
-0.675
-0.68
-0.68
-0.67
-0.66
-0.645
-0.645
-0.645
-0.63
-0.62
-0.61
-0.615
-0.62
-0.605
-0.6
-0.605
-0.595
-0.585
-0.58
-0.575
-0.575
-0.57
-0.565
-0.55
-0.555
-0.53
-0.54
-0.535
-0.525
-0.525
-0.525
-0.515
-0.51
-0.505
-0.5
-0.505
-0.515
-0.51
-0.505
-0.51
-0.49
-0.49
-0.48
-0.48
-0.47
-0.475
-0.475
-0.48
-0.485
-0.47
-0.46
-0.455
-0.435
-0.4
-0.375
-0.365
-0.34
-0.32
-0.315
-0.31
-0.33
-0.345
-0.36
-0.365
-0.38
-0.39
-0.405
-0.4
-0.405
-0.435
-0.46
-0.475
-0.5
-0.525
-0.555
-0.565
-0.575
-0.57
-0.575
-0.57
-0.575
-0.57
-0.58
-0.585
-0.595
-0.625
-0.615
-0.615
-0.625
-0.62
-0.605
-0.585
-0.58
-0.575
-0.59
-0.595
-0.61
-0.625
-0.615
-0.605
-0.595
-0.585
-0.575
-0.56
-0.55
-0.535
-0.54
-0.535
-0.53
-0.545
-0.545
-0.545
-0.545
-0.545
-0.525
-0.525
-0.515
-0.51
-0.505
-0.51
-0.515
-0.515
-0.51
-0.51
-0.51
-0.5
-0.5
-0.5
-0.505
-0.525
-0.535
-0.525
-0.53
-0.53
-0.54
-0.545
-0.555
-0.54
-0.55
-0.545
-0.55
-0.555
-0.565
-0.575
-0.58
-0.59
-0.595
-0.6
-0.595
-0.595
-0.6
-0.6
-0.605
-0.6
-0.605
-0.62
-0.625
-0.635
-0.64
-0.635
-0.625
-0.63
-0.625
-0.625
-0.61
-0.615
-0.625
-0.635
-0.645
-0.645
-0.655
-0.65
-0.655
-0.645
-0.63
-0.62
-0.61
-0.615
-0.62
-0.63
-0.645
-0.65
-0.66
-0.645
-0.645
-0.64
-0.655
-0.64
-0.625
-0.64
-0.63
-0.625
-0.63
-0.64
-0.645
-0.635
-0.64
-0.645
-0.635
-0.625
-0.625
-0.615
-0.6
-0.605
-0.59
-0.58
-0.565
-0.555
-0.535
-0.515
-0.51
-0.495
-0.49
-0.46
-0.465
-0.485
-0.505
-0.53
-0.535
-0.54
-0.54
-0.53
-0.525
-0.525
-0.525
-0.53
-0.55
-0.58
-0.605
-0.625
-0.64
-0.655
-0.655
-0.65
-0.63
-0.615
-0.615
-0.605
-0.615
-0.6
-0.605
-0.585
-0.55
-0.495
-0.43
-0.305
-0.125
0.13
0.455
0.83
1.19
1.495
1.65
1.64
1.465
1.06
0.42
-0.22
-0.86
-1.5
-1.72
-1.56
-1.27
-1.01
-0.84
-0.79
-0.81
-0.83
-0.83
-0.81
-0.775
-0.735
-0.715
-0.72
-0.735
-0.745
-0.76
-0.765
-0.77
-0.765
-0.755
-0.75
-0.75
-0.725
-0.73
-0.73
-0.72
-0.725
-0.73
-0.735
-0.735
-0.725
-0.71
-0.69
-0.695
-0.67
-0.665
-0.68
-0.685
-0.69
-0.685
-0.69
-0.68
-0.655
-0.65
-0.63
-0.62
-0.615
-0.605
-0.605
-0.605
-0.61
-0.605
-0.62
-0.61
-0.61
-0.595
-0.585
-0.57
-0.545
-0.545
-0.53
-0.53
-0.535
-0.54
-0.545
-0.55
-0.545
-0.545
-0.54
-0.515
-0.505
-0.5
-0.495
-0.495
-0.505
-0.505
-0.51
-0.51
-0.51
-0.51
-0.505
-0.495
-0.495
-0.495
-0.475
-0.475
-0.475
-0.48
-0.485
-0.465
-0.465
-0.45
-0.43
-0.42
-0.395
-0.38
-0.37
-0.355
-0.355
-0.34
-0.345
-0.355
-0.375
-0.385
-0.405
-0.4
-0.39
-0.41
-0.435
-0.445
-0.455
-0.47
-0.485
-0.51
-0.525
-0.555
-0.55
-0.555
-0.565
-0.565
-0.57
-0.57
-0.58
-0.59
-0.615
-0.615
-0.625
-0.6
-0.595
-0.605
-0.595
-0.59
-0.585
-0.6
-0.59
-0.61
-0.605
-0.595
-0.605
-0.595
-0.605
-0.575
-0.58
-0.57
-0.56
-0.56
-0.56
-0.555
-0.56
-0.56
-0.565
-0.56
-0.555
-0.54
-0.525
-0.52
-0.515
-0.525
-0.52
-0.525
-0.525
-0.53
-0.535
-0.535
-0.525
-0.52
-0.505
-0.525
-0.51
-0.52
-0.51
-0.515
-0.525
-0.53
-0.535
-0.535
-0.55
-0.55
-0.555
-0.55
-0.535
-0.54
-0.54
-0.545
-0.565
-0.575
-0.585
-0.58
-0.575
-0.585
-0.565
-0.575
-0.58
-0.59
-0.61
-0.61
-0.615
-0.615
-0.615
-0.61
-0.625
-0.605
-0.62
-0.62
-0.615
-0.63
-0.63
-0.635
-0.64
-0.64
-0.635
-0.635
-0.635
-0.635
-0.635
-0.615
-0.635
-0.625
-0.625
-0.635
-0.645
-0.655
-0.66
-0.655
-0.645
-0.635
-0.63
-0.625
-0.63
-0.625
-0.64
-0.635
-0.635
-0.645
-0.65
-0.655
-0.66
-0.655
-0.645
-0.64
-0.635
-0.645
-0.64
-0.64
-0.665
-0.66
-0.635
-0.63
-0.62
-0.59
-0.57
-0.555
-0.545
-0.535
-0.53
-0.53
-0.525
-0.51
-0.495
-0.485
-0.48
-0.49
-0.51
-0.515
-0.53
-0.555
-0.545
-0.545
-0.55
-0.57
-0.57
-0.59
-0.6
-0.615
-0.62
-0.625
-0.63
-0.64
-0.64
-0.645
-0.65
-0.655
-0.655
-0.645
-0.635
-0.635
-0.61
-0.585
-0.565
-0.535
-0.49
-0.425
-0.27
-0.06
0.25
0.645
1.055
1.425
1.65
1.71
1.57
1.185
0.545
-0.095
-0.735
-1.375
-1.66
-1.515
-1.24
-0.985
-0.835
-0.76
-0.77
-0.81
-0.82
-0.835
-0.805
-0.79
-0.76
-0.755
-0.765
-0.765
-0.765
-0.77
-0.78
-0.795
-0.78
-0.79
-0.79
-0.79
-0.785
-0.78
-0.77
-0.775
-0.76
-0.745
-0.74
-0.74
-0.74
-0.735
-0.73
-0.745
-0.755
-0.745
-0.74
-0.735
-0.715
-0.695
-0.695
-0.69
-0.685
-0.68
-0.69
-0.685
-0.69
-0.68
-0.66
-0.665
-0.66
-0.645
-0.645
-0.64
-0.64
-0.65
-0.635
-0.635
-0.625
-0.63
-0.615
-0.605
-0.6
-0.575
-0.575
-0.565
-0.555
-0.56
-0.565
-0.57
-0.56
-0.555
-0.55
-0.535
-0.53
-0.505
-0.5
-0.485
-0.505
-0.495
-0.5
-0.5
-0.505
-0.495
-0.485
-0.465
-0.455
-0.44
-0.435
-0.43
-0.43
-0.41
-0.415
-0.395
-0.38
-0.365
-0.34
-0.32
-0.3
-0.28
-0.26
-0.255
-0.265
-0.28
-0.295
-0.325
-0.34
-0.36
-0.38
-0.385
-0.4
-0.41
-0.42
-0.45
-0.46
-0.495
-0.515
-0.53
-0.53
-0.55
-0.555
-0.57
-0.58
-0.585
-0.595
-0.595
-0.6
-0.61
-0.61
-0.62
-0.625
-0.635
-0.635
-0.615
-0.615
-0.6
-0.605
-0.61
-0.615
-0.625
-0.63
-0.63
-0.625
-0.62
-0.61
-0.6
-0.595
-0.58
-0.575
-0.59
-0.575
-0.585
-0.59
-0.59
-0.605
-0.595
-0.59
-0.58
-0.57
-0.55
-0.545
-0.55
-0.56
-0.57
-0.565
-0.57
-0.565
-0.565
-0.57
-0.56
-0.56
-0.555
-0.565
-0.57
-0.575
-0.575
-0.585
-0.6
-0.605
-0.605
-0.605
-0.605
-0.6
-0.59
-0.585
-0.595
-0.595
-0.605
-0.625
-0.635
-0.635
-0.635
-0.635
-0.62
-0.62
-0.615
-0.615
-0.635
-0.63
-0.645
-0.65
-0.655
-0.65
-0.65
-0.65
-0.65
-0.645
-0.64
-0.635
-0.635
-0.635
-0.65
-0.66
-0.665
-0.665
-0.66
-0.66
-0.665
-0.66
-0.655
-0.645
-0.635
-0.65
-0.66
-0.67
-0.67
-0.675
-0.68
-0.655
-0.67
-0.645
-0.655
-0.665
-0.66
-0.65
-0.65
-0.655
-0.665
-0.675
-0.67
-0.66
-0.66
-0.65
-0.655
-0.64
-0.65
-0.64
-0.655
-0.655
-0.65
-0.65
-0.635
-0.62
-0.605
-0.575
-0.56
-0.555
-0.55
-0.55
-0.53
-0.52
-0.515
-0.51
-0.5
-0.505
-0.52
-0.54
-0.535
-0.545
-0.54
-0.54
-0.555
-0.57
-0.57
-0.575
-0.6
-0.605
-0.615
-0.63
-0.645
-0.64
-0.64
-0.655
-0.655
-0.655
-0.655
-0.65
-0.645
-0.62
-0.6
-0.58
-0.545
-0.5
-0.425
-0.28
-0.04
0.285
0.69
1.125
1.465
1.66
1.66
1.46
1.005
0.365
-0.275
-0.915
-1.435
-1.47
-1.305
-1.07
-0.88
-0.775
-0.74
-0.76
-0.775
-0.8
-0.78
-0.775
-0.76
-0.76
-0.765
-0.77
-0.795
-0.795
-0.81
-0.815
-0.81
-0.81
-0.785
-0.795
-0.78
-0.785
-0.795
-0.795
-0.795
-0.79
-0.775
-0.765
-0.75
-0.76
-0.76
-0.75
-0.765
-0.745
-0.745
-0.745
-0.73
-0.73
-0.72
-0.71
-0.7
-0.69
-0.685
-0.69
-0.685
-0.69
-0.68
-0.67
-0.67
-0.67
-0.655
-0.65
-0.65
-0.63
-0.625
-0.625
-0.615
-0.61
-0.62
-0.6
-0.595
-0.59
-0.58
-0.56
-0.545
-0.545
-0.545
-0.545
-0.55
-0.54
-0.54
-0.53
-0.53
-0.52
-0.51
-0.505
-0.485
-0.475
-0.465
-0.46
-0.465
-0.455
-0.46
-0.46
-0.445
-0.44
-0.42
-0.4
-0.375
-0.365
-0.345
-0.32
-0.315
-0.32
-0.31
-0.275
-0.26
-0.26
-0.265
-0.27
-0.28
-0.285
-0.305
-0.33
-0.355
-0.37
-0.405
-0.43
-0.44
-0.455
-0.46
-0.465
-0.465
-0.475
-0.5
-0.525
-0.53
-0.555
-0.57
-0.6
-0.59
-0.59
-0.575
-0.575
-0.575
-0.565
-0.58
-0.585
-0.59
-0.595
-0.61
-0.6
-0.605
-0.595
-0.59
-0.59
-0.585
-0.57
-0.57
-0.565
-0.57
-0.58
-0.585
-0.59
-0.575
-0.57
-0.555
-0.545
-0.525
-0.53
-0.53
-0.545
-0.535
-0.545
-0.535
-0.54
-0.545
-0.545
-0.545
-0.54
-0.53
-0.525
-0.525
-0.52
-0.525
-0.535
-0.545
-0.555
-0.555
-0.555
-0.55
-0.55
-0.54
-0.54
-0.55
-0.565
-0.565
-0.575
-0.585
-0.59
-0.585
-0.58
-0.585
-0.575
-0.585
-0.565
-0.58
-0.575
-0.59
-0.61
-0.625
-0.625
-0.62
-0.625
-0.615
-0.62
-0.62
-0.61
-0.63
-0.635
-0.62
-0.625
-0.635
-0.635
-0.63
-0.625
-0.63
-0.625
-0.625
-0.635
-0.645
-0.635
-0.635
-0.64
-0.64
-0.645
-0.65
-0.64
-0.625
-0.625
-0.62
-0.615
-0.64
-0.64
-0.66
-0.64
-0.63
-0.635
-0.63
-0.63
-0.615
-0.61
-0.6
-0.6
-0.61
-0.605
-0.615
-0.615
-0.61
-0.605
-0.595
-0.57
-0.56
-0.545
-0.53
-0.505
-0.485
-0.475
-0.475
-0.46
-0.45
-0.455
-0.465
-0.48
-0.5
-0.5
-0.51
-0.505
-0.505
-0.505
-0.515
-0.525
-0.535
-0.56
-0.555
-0.59
-0.61
-0.62
-0.605
-0.605
-0.6
-0.6
-0.61
-0.605
-0.605
-0.6
-0.585
-0.575
-0.56
-0.53
-0.48
-0.395
-0.285
-0.09
0.21
0.595
1.03
1.405
1.655
1.725
1.58
1.195
0.57
-0.07
-0.71
-1.35
-1.535
-1.41
-1.15
-0.915
-0.775
-0.725
-0.74
-0.78
-0.795
-0.785
-0.77
-0.74
-0.705
-0.705
-0.71
-0.725
-0.745
-0.755
-0.755
-0.755
-0.745
-0.74
-0.745
-0.735
-0.74
-0.735
-0.735
-0.73
-0.72
-0.72
-0.715
-0.705
-0.7
-0.695
-0.69
-0.68
-0.685
-0.685
-0.675
-0.67
-0.665
-0.675
-0.65
-0.64
-0.625
-0.61
-0.615
-0.625
-0.625
-0.63
-0.62
-0.61
-0.605
-0.585
-0.575
-0.57
-0.57
-0.565
-0.55
-0.545
-0.545
-0.535
-0.53
-0.54
-0.525
-0.525
-0.515
-0.515
-0.49
-0.47
-0.475
-0.485
-0.485
-0.495
-0.47
-0.48
-0.45
-0.455
-0.45
-0.455
-0.445
-0.44
-0.44
-0.435
-0.43
-0.43
-0.43
-0.415
-0.41
-0.405
-0.375
-0.36
-0.335
-0.32
-0.3
-0.295
-0.285
-0.28
-0.28
-0.285
-0.295
-0.295
-0.31
-0.325
-0.335
-0.355
-0.375
-0.395
-0.4
-0.42
-0.43
-0.45
-0.46
-0.475
-0.49
-0.49
-0.49
-0.505
-0.515
-0.535
-0.545
-0.55
-0.57
-0.575
-0.57
-0.585
-0.565
-0.57
-0.58
-0.56
-0.585
-0.57
-0.565
-0.575
-0.58
-0.565
-0.565
-0.565
-0.55
-0.545
-0.535
-0.53
-0.53
-0.525
-0.525
-0.525
-0.53
-0.525
-0.515
-0.51
-0.49
-0.48
-0.47
-0.465
-0.48
-0.47
-0.505
-0.495
-0.505
-0.495
-0.49
-0.485
-0.48
-0.47
-0.475
-0.47
-0.465
-0.475
-0.485
-0.485
-0.515
-0.515
-0.51
-0.515
-0.51
-0.505
-0.495
-0.495
-0.505
-0.515
-0.53
-0.54
-0.55
-0.575
-0.565
-0.565
-0.55
-0.55
-0.545
-0.545
-0.545
-0.555
-0.565
-0.57
-0.58
-0.58
-0.595
-0.595
-0.605
-0.6
-0.58
-0.58
-0.585
-0.585
-0.6
-0.59
-0.61
-0.615
-0.61
-0.6
-0.59
-0.595
-0.585
-0.595
-0.61
-0.605
-0.605
-0.62
-0.615
-0.6
-0.61
-0.6
-0.595
-0.595
-0.6
-0.6
-0.605
-0.59
-0.59
-0.59
-0.605
-0.605
-0.605
-0.605
-0.6
-0.595
-0.605
-0.595
-0.59
-0.585
-0.595
-0.58
-0.585
-0.57
-0.55
-0.525
-0.485
-0.48
-0.46
-0.445
-0.44
-0.435
-0.43
-0.44
-0.45
-0.485
-0.49
-0.505
-0.5
-0.5
-0.48
-0.475
-0.49
-0.505
-0.525
-0.545
-0.57
-0.595
-0.595
-0.625
-0.6
-0.605
-0.59
-0.58
-0.595
-0.57
-0.56
-0.57
-0.55
-0.515
-0.485
-0.435
-0.335
-0.185
0.04
0.37
0.76
1.15
1.48
1.665
1.67
1.43
0.92
0.28
-0.36
-1.0
-1.64
-1.65
-1.415
-1.135
-0.9
-0.785
-0.75
-0.775
-0.79
-0.79
-0.775
-0.73
-0.7
-0.69
-0.68
-0.695
-0.72
-0.72
-0.73
-0.74
-0.735
-0.715
-0.71
-0.7
-0.695
-0.68
-0.69
-0.685
-0.695
-0.7
-0.71
-0.695
-0.68
-0.66
-0.645
-0.645
-0.65
-0.64
-0.645
-0.65
-0.645
-0.635
-0.635
-0.645
-0.63
-0.63
-0.63
-0.61
-0.59
-0.57
-0.56
-0.575
-0.575
-0.57
-0.565
-0.57
-0.565
-0.555
-0.545
-0.53
-0.52
-0.51
-0.515
-0.5
-0.49
-0.49
-0.485
-0.485
-0.48
-0.49
-0.48
-0.48
-0.455
-0.455
-0.455
-0.46
-0.46
-0.465
-0.465
-0.47
-0.465
-0.445
-0.44
-0.445
-0.44
-0.44
-0.43
-0.425
-0.42
-0.405
-0.395
-0.385
-0.365
-0.355
-0.335
-0.33
-0.31
-0.29
-0.295
-0.285
-0.29
-0.325
-0.345
-0.36
-0.365
-0.375
-0.375
-0.38
-0.4
-0.41
-0.425
-0.45
-0.465
-0.495
-0.515
-0.525
-0.555
-0.565
-0.565
-0.555
-0.56
-0.55
-0.55
-0.55
-0.54
-0.54
-0.525
-0.515
-0.495
-0.46
-0.44
-0.43
-0.41
-0.405
-0.405
-0.385
-0.375
-0.365
-0.365
-0.37
-0.37
-0.365
-0.365
-0.365
-0.375
-0.38
-0.41
-0.42
-0.44
-0.435
-0.44
-0.445
-0.455
-0.46
-0.47
-0.475
-0.475
-0.495
-0.5
-0.525
-0.545
-0.535
-0.545
-0.545
-0.56
-0.54
-0.535
-0.535
-0.535
-0.535
-0.555
-0.545
-0.56
-0.565
-0.575
-0.575
-0.58
-0.585
-0.605
-0.615
-0.635
-0.67
-0.695
-0.69
-0.595
-0.365
-0.02
0.46
0.96
1.35
1.545
1.49
1.105
0.465
-0.175
-0.815
-1.455
-1.685
-1.485
-1.18
-0.935
-0.78
-0.715
-0.715
-0.72
-0.73
-0.73
-0.705
-0.695
-0.685
-0.7
-0.72
-0.72
-0.735
-0.745
-0.74
-0.725
-0.715
-0.715
-0.72
-0.71
-0.72
-0.72
-0.73
-0.72
-0.71
-0.705
-0.71
-0.7
-0.685
-0.685
-0.69
-0.68
-0.69
-0.69
-0.68
-0.685
-0.67
-0.67
-0.645
-0.635
-0.615
-0.63
-0.62
-0.625
-0.635
-0.635
-0.62
-0.615
-0.615
-0.6
-0.59
-0.59
-0.565
-0.56
-0.545
-0.54
-0.545
-0.57
-0.565
-0.57
-0.53
-0.525
-0.505
-0.505
-0.495
-0.48
-0.49
-0.485
-0.485
-0.485
-0.48
-0.475
-0.465
-0.45
-0.45
-0.435
-0.44
-0.44
-0.425
-0.415
-0.425
-0.425
-0.425
-0.415
-0.41
-0.385
-0.36
-0.34
-0.32
-0.305
-0.29
-0.295
-0.305
-0.315
-0.325
-0.325
-0.35
-0.35
-0.38
-0.39
-0.4
-0.41
-0.45
-0.465
-0.49
-0.515
-0.525
-0.535
-0.555
-0.565
-0.575
-0.58
-0.595
-0.59
-0.59
-0.615
-0.625
-0.625
-0.635
-0.64
-0.635
-0.635
-0.62
-0.605
-0.605
-0.605
-0.6
-0.6
-0.61
-0.615
-0.615
-0.615
-0.605
-0.605
-0.595
-0.59
-0.58
-0.58
-0.58
-0.58
-0.585
-0.59
-0.59
-0.595
-0.58
-0.575
-0.565
-0.565
-0.55
-0.56
-0.56
-0.58
-0.585
-0.605
-0.6
-0.6
-0.605
-0.61
-0.615
-0.6
-0.6
-0.6
-0.61
-0.62
-0.62
-0.64
-0.655
-0.675
-0.66
-0.655
-0.65
-0.645
-0.645
-0.645
-0.655
-0.675
-0.675
-0.68
-0.68
-0.695
-0.69
-0.675
-0.695
-0.69
-0.675
-0.69
-0.675
-0.685
-0.69
-0.695
-0.7
-0.695
-0.695
-0.695
-0.685
-0.675
-0.67
-0.685
-0.67
-0.695
-0.705
-0.72
-0.73
-0.72
-0.71
-0.71
-0.705
-0.7
-0.695
-0.69
-0.695
-0.69
-0.705
-0.71
-0.725
-0.735
-0.73
-0.71
-0.725
-0.715
-0.705
-0.71
-0.715
-0.72
-0.715
-0.725
-0.725
-0.725
-0.725
-0.715
-0.715
-0.7
-0.7
-0.695
-0.7
-0.705
-0.715
-0.715
-0.72
-0.73
-0.725
-0.72
-0.715
-0.7
-0.7
-0.7
-0.7
-0.7
-0.71
-0.725
-0.725
-0.735
-0.745
-0.725
-0.715
-0.7
-0.7
-0.7
-0.7
-0.705
-0.715
-0.74
-0.73
-0.725
-0.715
-0.71
-0.695
-0.695
-0.69
-0.7
-0.705
-0.71
-0.73
-0.725
-0.745
-0.72
-0.73
-0.72
-0.715
-0.71
-0.7
-0.7
-0.705
-0.705
-0.705
-0.71
-0.72
-0.725
-0.71
-0.71
-0.71
-0.69
-0.69
-0.7
-0.695
-0.71
-0.715
-0.715
-0.72
-0.705
-0.7
-0.69
-0.68
-0.665
-0.66
-0.63
-0.61
-0.605
-0.605
-0.61
-0.62
-0.63
-0.64
-0.655
-0.66
-0.665
-0.65
-0.645
-0.64
-0.63
-0.635
-0.655
-0.665
-0.665
-0.675
-0.675
-0.68
-0.685
-0.685
-0.69
-0.685
-0.675
-0.66
-0.655
-0.655
-0.64
-0.63
-0.605
-0.56
-0.47
-0.27
0.0
0.39
0.84
1.26
1.565
1.705
1.66
1.38
0.86
0.22
-0.42
-1.06
-1.47
-1.44
-1.24
-1.005
-0.845
-0.785
-0.785
-0.82
-0.845
-0.845
-0.815
-0.8
-0.76
-0.76
-0.775
-0.785
-0.815
-0.83
-0.835
-0.83
-0.815
-0.81
-0.8
-0.795
-0.785
-0.785
-0.775
-0.79
-0.795
-0.795
-0.8
-0.785
-0.785
-0.765
-0.75
-0.745
-0.74
-0.74
-0.74
-0.75
-0.74
-0.75
-0.74
-0.73
-0.73
-0.705
-0.705
-0.7
-0.695
-0.695
-0.695
-0.685
-0.695
-0.695
-0.695
-0.69
-0.68
-0.665
-0.66
-0.635
-0.645
-0.65
-0.645
-0.645
-0.655
-0.65
-0.635
-0.625
-0.615
-0.605
-0.59
-0.59
-0.59
-0.58
-0.58
-0.59
-0.6
-0.6
-0.6
-0.6
-0.575
-0.57
-0.565
-0.56
-0.55
-0.545
-0.56
-0.555
-0.565
-0.575
-0.555
-0.545
-0.525
-0.5
-0.485
-0.45
-0.435
-0.43
-0.41
-0.4
-0.38
-0.345
