Lead II
-0.115
-0.105
-0.095
-0.075
-0.065
-0.07
-0.055
-0.03
-0.01
-0.01
-0.025
-0.02
0.0
0.005
0.035
0.03
0.02
0.0
0.035
0.06
0.08
0.09
0.105
0.11
0.13
0.17
0.185
0.2
0.205
0.215
0.23
0.26
0.29
0.305
0.315
0.325
0.335
0.365
0.38
0.39
0.4
0.415
0.435
0.485
0.52
0.545
0.54
0.56
0.605
0.635
0.66
0.68
0.69
0.7
0.72
0.75
0.78
0.775
0.76
0.765
0.77
0.77
0.78
0.755
0.71
0.695
0.675
0.665
0.635
0.605
0.56
0.515
0.46
0.425
0.39
0.355
0.295
0.235
0.205
0.175
0.135
0.07
0.025
-0.01
-0.045
-0.07
-0.095
-0.15
-0.19
-0.215
-0.245
-0.265
-0.26
-0.27
-0.315
-0.325
-0.33
-0.315
-0.32
-0.35
-0.345
-0.36
-0.36
-0.36
-0.36
-0.365
-0.385
-0.415
-0.415
-0.4
-0.38
-0.395
-0.4
-0.4
-0.395
-0.385
-0.39
-0.4
-0.42
-0.42
-0.425
-0.425
-0.41
-0.415
-0.425
-0.435
-0.44
-0.43
-0.435
-0.435
-0.44
-0.465
-0.455
-0.445
-0.435
-0.445
-0.475
-0.48
-0.47
-0.47
-0.47
-0.48
-0.5
-0.5
-0.515
-0.49
-0.495
-0.495
-0.515
-0.51
-0.5
-0.5
-0.48
-0.485
-0.49
-0.505
-0.495
-0.475
-0.47
-0.485
-0.5
-0.515
-0.505
-0.495
-0.48
-0.475
-0.48
-0.495
-0.505
-0.485
-0.485
-0.505
-0.505
-0.505
-0.51
-0.495
-0.495
-0.52
-0.53
-0.52
-0.535
-0.52
-0.525
-0.51
-0.52
-0.53
-0.525
-0.495
-0.49
-0.49
-0.51
-0.51
-0.505
-0.495
-0.5
-0.48
-0.5
-0.5
-0.485
-0.49
-0.485
-0.485
-0.495
-0.52
-0.49
-0.485
-0.465
-0.47
-0.485
-0.485
-0.475
-0.47
-0.455
-0.435
-0.45
-0.445
-0.425
-0.39
-0.31
-0.195
0.08
0.515
0.95
1.105
0.93
0.68
0.51
0.455
0.405
0.33
0.26
0.165
0.075
-0.055
-0.155
-0.235
-0.35
-0.46
-0.595
-0.75
-0.86
-1.005
-1.135
-1.29
-1.45
-1.59
-1.715
-1.825
-1.905
-2.02
-2.105
-2.18
-2.205
-2.215
-2.22
-2.24
-2.23
-2.2
-2.12
-2.06
-1.96
-1.845
-1.745
-1.59
-1.425
-1.245
-1.11
-1.015
-0.97
-0.955
-0.885
-0.775
-0.68
-0.57
-0.495
-0.415
-0.345
-0.3
-0.25
-0.24
-0.225
-0.215
-0.195
-0.155
-0.14
-0.15
-0.145
-0.145
-0.135
-0.125
-0.11
-0.11
-0.115
-0.12
-0.115
-0.095
-0.09
-0.09
-0.08
-0.09
-0.07
-0.05
-0.04
-0.04
-0.05
-0.05
-0.035
-0.015
0.01
-0.005
-0.005
0.015
0.02
0.055
0.07
0.09
0.1
0.085
0.115
0.145
0.16
0.17
0.165
0.175
0.205
0.255
0.29
0.3
0.32
0.325
0.345
0.385
0.435
0.455
0.45
0.485
0.515
0.54
0.57
0.585
0.58
0.59
0.605
0.64
0.67
0.68
0.65
0.66
0.66
0.665
0.66
0.645
0.62
0.595
0.58
0.58
0.56
0.53
0.475
0.44
0.415
0.37
0.345
0.295
0.24
0.19
0.145
0.11
0.09
0.035
-0.02
-0.055
-0.095
-0.11
-0.12
-0.16
-0.205
-0.22
-0.245
-0.25
-0.265
-0.29
-0.31
-0.355
-0.345
-0.33
-0.325
-0.35
-0.365
-0.37
-0.37
-0.375
-0.345
-0.35
-0.365
-0.385
-0.38
-0.37
-0.365
-0.38
-0.395
-0.395
-0.39
-0.39
-0.375
-0.38
-0.385
-0.405
-0.4
-0.395
-0.385
-0.4
-0.415
-0.43
-0.42
-0.395
-0.39
-0.39
-0.405
-0.42
-0.405
-0.385
-0.37
-0.39
-0.405
-0.43
-0.44
-0.43
-0.415
-0.435
-0.445
-0.445
-0.44
-0.445
-0.435
-0.44
-0.45
-0.445
-0.43
-0.42
-0.415
-0.415
-0.44
-0.45
-0.44
-0.435
-0.425
-0.44
-0.48
-0.48
-0.465
-0.455
-0.44
-0.455
-0.475
-0.48
-0.48
-0.455
-0.455
-0.455
-0.47
-0.48
-0.465
-0.465
-0.465
-0.45
-0.46
-0.47
-0.465
-0.455
-0.45
-0.465
-0.465
-0.48
-0.475
-0.455
-0.46
-0.465
-0.48
-0.48
-0.48
-0.48
-0.46
-0.47
-0.48
-0.495
-0.51
-0.49
-0.475
-0.485
-0.49
-0.475
-0.465
-0.46
-0.455
-0.46
-0.455
-0.475
-0.465
-0.46
-0.46
-0.48
-0.495
-0.51
-0.49
-0.49
-0.48
-0.46
-0.47
-0.475
-0.45
-0.43
-0.43
-0.425
-0.42
-0.425
-0.41
-0.375
-0.33
-0.285
-0.16
0.18
0.695
1.125
1.17
0.9
0.62
0.485
0.435
0.365
0.29
0.175
0.06
-0.065
-0.165
-0.29
-0.41
-0.54
-0.675
-0.8
-0.945
-1.065
-1.205
-1.355
-1.52
-1.655
-1.755
-1.82
-1.89
-1.98
-2.05
-2.095
-2.12
-2.11
-2.115
-2.075
-2.055
-2.04
-1.98
-1.895
-1.75
-1.595
-1.44
-1.31
-1.185
-1.09
-1.055
-1.045
-1.0
-0.94
-0.87
-0.77
-0.69
-0.63
-0.58
-0.52
-0.445
-0.37
-0.3
-0.275
-0.265
-0.25
-0.205
-0.15
-0.12
-0.1
-0.085
-0.07
-0.045
-0.015
-0.005
-0.01
-0.015
-0.015
0.005
0.03
0.03
0.025
0.025
0.02
0.025
0.04
0.06
0.065
0.05
0.05
0.07
0.105
0.115
0.125
0.115
0.115
0.14
0.155
0.175
0.195
0.185
0.19
0.215
0.26
0.29
0.29
0.29
0.305
0.315
0.355
0.39
0.405
0.395
0.39
0.445
0.48
0.53
0.545
0.56
0.58
0.61
0.66
0.695
0.7
0.72
0.72
0.74
0.76
0.765
0.755
0.745
0.75
0.755
0.765
0.76
0.745
0.71
0.69
0.675
0.67
0.655
0.62
0.575
0.535
0.505
0.48
0.445
0.41
0.345
0.285
0.275
0.26
0.23
0.18
0.13
0.08
0.06
0.025
-0.01
-0.045
-0.07
-0.105
-0.13
-0.14
-0.15
-0.175
-0.205
-0.23
-0.245
-0.23
-0.225
-0.235
-0.26
-0.27
-0.28
-0.26
-0.255
-0.27
-0.295
-0.305
-0.315
-0.295
-0.29
-0.3
-0.315
-0.325
-0.315
-0.305
-0.31
-0.32
-0.35
-0.35
-0.35
-0.345
-0.34
-0.35
-0.365
-0.375
-0.36
-0.36
-0.345
-0.335
-0.36
-0.37
-0.38
-0.365
-0.345
-0.36
-0.395
-0.405
-0.405
-0.39
-0.385
-0.385
-0.405
-0.435
-0.425
-0.405
-0.395
-0.385
-0.39
-0.385
-0.375
-0.35
-0.35
-0.365
-0.395
-0.39
-0.385
-0.375
-0.365
-0.38
-0.395
-0.405
-0.405
-0.385
-0.39
-0.39
-0.405
-0.405
-0.42
-0.425
-0.4
-0.4
-0.425
-0.435
-0.425
-0.41
-0.415
-0.425
-0.43
-0.445
-0.44
-0.425
-0.425
-0.43
-0.455
-0.45
-0.455
-0.455
-0.46
-0.46
-0.48
-0.49
-0.485
-0.47
-0.45
-0.455
-0.46
-0.46
-0.425
-0.41
-0.395
-0.395
-0.415
-0.415
-0.405
-0.39
-0.38
-0.395
-0.41
-0.43
-0.415
-0.415
-0.405
-0.42
-0.425
-0.43
-0.43
-0.42
-0.42
-0.435
-0.44
-0.44
-0.45
-0.43
-0.415
-0.42
-0.44
-0.445
-0.44
-0.435
-0.43
-0.435
-0.445
-0.435
-0.435
-0.42
-0.41
-0.415
-0.405
-0.41
-0.41
-0.345
-0.26
-0.1
0.21
0.65
1.045
1.175
0.985
0.725
0.565
0.5
0.465
0.43
0.36
0.27
0.19
0.1
0.01
-0.09
-0.2
-0.34
-0.465
-0.595
-0.725
-0.86
-0.985
-1.125
-1.3
-1.465
-1.605
-1.695
-1.785
-1.89
-1.98
-2.055
-2.115
-2.155
-2.16
-2.16
-2.2
-2.175
-2.13
-2.08
-2.055
-2.005
-1.915
-1.79
-1.625
-1.46
-1.31
-1.205
-1.125
-1.09
-1.045
-1.01
-0.95
-0.905
-0.855
-0.84
-0.76
-0.67
-0.57
-0.515
-0.475
-0.435
-0.355
-0.29
-0.245
-0.21
-0.195
-0.175
-0.145
-0.105
-0.085
-0.065
-0.07
-0.075
-0.065
-0.035
-0.04
-0.035
-0.04
-0.04
-0.03
-0.01
0.02
0.01
0.0
-0.005
0.0
0.01
0.03
0.04
0.03
0.04
0.045
0.065
0.09
0.085
0.09
0.09
0.09
0.12
0.14
0.14
0.16
0.18
0.21
0.24
0.305
0.32
0.32
0.34
0.375
0.405
0.435
0.455
0.465
0.485
0.515
0.55
0.575
0.59
0.59
0.595
0.625
0.655
0.67
0.68
0.705
0.71
0.72
0.765
0.78
0.76
0.765
0.765
0.755
0.785
0.8
0.79
0.77
0.755
0.745
0.745
0.735
0.715
0.675
0.62
0.59
0.57
0.54
0.51
0.46
0.42
0.395
0.375
0.355
0.315
0.28
0.24
0.215
0.19
0.15
0.105
0.045
0.01
-0.015
-0.04
-0.06
-0.085
-0.115
-0.15
-0.185
-0.175
-0.19
-0.23
-0.255
-0.275
-0.295
-0.3
-0.295
-0.3
-0.335
-0.35
-0.345
-0.33
-0.335
-0.35
-0.36
-0.39
-0.375
-0.375
-0.375
-0.385
-0.415
-0.425
-0.43
-0.41
-0.41
-0.43
-0.45
-0.46
-0.44
-0.435
-0.42
-0.425
-0.43
-0.425
-0.405
-0.395
-0.385
-0.4
-0.415
-0.43
-0.42
-0.415
-0.405
-0.395
-0.425
-0.415
-0.42
-0.4
-0.39
-0.4
-0.425
-0.43
-0.425
-0.43
-0.43
-0.45
-0.46
-0.47
-0.46
-0.445
-0.435
-0.45
-0.455
-0.465
-0.455
-0.445
-0.43
-0.45
-0.46
-0.48
-0.475
-0.455
-0.46
-0.475
-0.49
-0.495
-0.51
-0.51
-0.51
-0.51
-0.53
-0.525
-0.51
-0.505
-0.495
-0.485
-0.505
-0.52
-0.49
-0.48
-0.475
-0.49
-0.49
-0.505
-0.505
-0.505
-0.47
-0.48
-0.485
-0.49
-0.465
-0.465
-0.475
-0.48
-0.495
-0.51
-0.495
-0.48
-0.46
-0.475
-0.48
-0.5
-0.5
-0.49
-0.48
-0.49
-0.485
-0.49
-0.485
-0.475
-0.46
-0.475
-0.485
-0.505
-0.505
-0.485
-0.485
-0.515
-0.52
-0.525
-0.52
-0.485
-0.48
-0.505
-0.51
-0.495
-0.5
-0.465
-0.45
-0.465
-0.47
-0.475
-0.47
-0.46
-0.45
-0.445
-0.44
-0.44
-0.415
-0.36
-0.33
-0.255
-0.115
0.17
0.65
1.03
1.17
1.015
0.775
0.6
0.525
0.49
0.425
0.34
0.23
0.165
0.08
-0.02
-0.135
-0.235
-0.36
-0.47
-0.575
-0.68
-0.795
-0.925
-1.065
-1.195
-1.32
-1.445
-1.54
-1.655
-1.775
-1.865
-1.945
-1.995
-2.05
-2.11
-2.18
-2.21
-2.23
-2.225
-2.205
-2.21
-2.18
-2.165
-2.1
-2.045
-1.99
-1.905
-1.81
-1.71
-1.58
-1.435
-1.285
-1.185
-1.13
-1.08
-1.035
-1.005
-0.95
-0.915
-0.88
-0.845
-0.785
-0.715
-0.645
-0.59
-0.545
-0.475
-0.405
-0.335
-0.285
-0.25
-0.245
-0.225
-0.175
-0.15
-0.115
-0.105
-0.1
-0.1
-0.085
-0.085
-0.065
-0.065
-0.06
-0.07
-0.055
-0.03
-0.005
-0.005
-0.015
-0.01
0.005
0.035
0.055
0.055
0.03
0.055
0.06
0.095
0.095
0.105
0.1
0.095
0.125
0.155
0.165
0.175
0.155
0.165
0.19
0.225
0.24
0.255
0.265
0.265
0.305
0.34
0.375
0.385
0.39
0.4
0.43
0.455
0.5
0.51
0.525
0.535
0.565
0.6
0.625
0.63
0.645
0.645
0.665
0.72
0.735
0.725
0.715
0.72
0.745
0.78
0.785
0.77
0.745
0.71
0.7
0.695
0.695
0.67
0.615
0.6
0.575
0.545
0.545
0.495
0.445
0.395
0.375
0.335
0.3
0.245
0.205
0.15
0.12
0.09
0.06
0.01
-0.03
-0.08
-0.105
-0.11
-0.125
-0.16
-0.195
-0.225
-0.235
-0.245
-0.26
-0.275
-0.305
-0.32
-0.33
-0.335
-0.34
-0.36
-0.375
-0.38
-0.37
-0.375
-0.36
-0.38
-0.39
-0.38
-0.37
-0.345
-0.33
-0.355
-0.375
-0.365
-0.37
-0.36
-0.345
-0.36
-0.38
-0.39
-0.38
-0.37
-0.365
-0.365
-0.395
-0.415
-0.39
-0.375
-0.365
-0.375
-0.385
-0.395
-0.39
-0.38
-0.385
-0.395
-0.425
-0.435
-0.41
-0.405
-0.39
-0.4
-0.405
-0.415
-0.42
-0.4
-0.4
-0.41
-0.42
-0.425
-0.425
-0.42
-0.415
-0.415
-0.435
-0.44
-0.44
-0.43
-0.41
-0.405
-0.435
-0.44
-0.42
-0.425
-0.405
-0.42
-0.44
-0.435
-0.43
-0.435
-0.415
-0.42
-0.44
-0.445
-0.43
-0.41
-0.41
-0.425
-0.445
-0.45
-0.455
-0.44
-0.425
-0.445
-0.425
-0.435
-0.425
-0.415
-0.41
-0.415
-0.435
-0.435
-0.425
-0.42
-0.425
-0.435
-0.455
-0.47
-0.45
-0.435
-0.415
-0.415
-0.44
-0.43
-0.425
-0.41
-0.395
-0.41
-0.41
-0.41
-0.39
-0.38
-0.38
-0.405
-0.425
-0.415
-0.41
-0.39
-0.365
-0.38
-0.39
-0.39
-0.385
-0.355
-0.33
-0.305
-0.245
-0.125
0.165
0.635
1.095
1.26
1.085
0.825
0.64
0.56
0.535
0.445
0.33
0.22
0.145
0.05
-0.055
-0.165
-0.3
-0.435
-0.535
-0.645
-0.745
-0.895
-1.02
-1.165
-1.315
-1.445
-1.555
-1.65
-1.755
-1.855
-1.905
-1.965
-2.015
-2.075
-2.11
-2.14
-2.145
-2.105
-2.05
-2.02
-1.985
-1.93
-1.81
-1.66
-1.485
-1.36
-1.225
-1.115
-1.045
-1.005
-0.98
-0.945
-0.89
-0.83
-0.765
-0.69
-0.615
-0.555
-0.51
-0.45
-0.385
-0.315
-0.26
-0.225
-0.19
-0.165
-0.13
-0.095
-0.075
-0.06
-0.065
-0.06
-0.045
-0.015
-0.015
0.005
-0.005
-0.005
0.005
0.03
0.05
0.05
0.03
0.035
0.05
0.07
0.075
0.105
0.1
0.11
0.125
0.135
0.155
0.15
0.14
0.155
0.17
0.205
0.23
0.25
0.22
0.23
0.265
0.285
0.315
0.315
0.31
0.32
0.325
0.365
0.4
0.41
0.42
0.435
0.47
0.51
0.54
0.56
0.575
0.595
0.625
0.655
0.69
0.7
0.685
0.69
0.71
0.75
0.77
0.76
0.755
0.755
0.76
0.78
0.77
0.77
0.73
0.72
0.71
0.71
0.71
0.665
0.625
0.59
0.575
0.545
0.52
0.485
0.43
0.39
0.355
0.325
0.28
0.24
0.175
0.14
0.1
0.075
0.04
0.0
-0.04
-0.075
-0.1
-0.115
-0.13
-0.175
-0.21
-0.215
-0.22
-0.22
-0.23
-0.23
-0.265
-0.275
-0.29
-0.28
-0.275
-0.28
-0.3
-0.31
-0.32
-0.31
-0.31
-0.335
-0.35
-0.35
-0.34
-0.325
-0.315
-0.315
-0.325
-0.345
-0.325
-0.32
-0.31
-0.32
-0.34
-0.355
-0.345
-0.345
-0.34
-0.355
-0.365
-0.38
-0.365
-0.365
-0.35
-0.35
-0.38
-0.39
-0.385
-0.375
-0.37
-0.375
-0.39
-0.4
-0.4
-0.39
-0.365
-0.385
-0.395
-0.41
-0.41
-0.4
-0.39
-0.4
-0.415
-0.425
-0.41
-0.41
-0.405
-0.41
-0.425
-0.435
-0.42
-0.4
-0.39
-0.39
-0.41
-0.42
-0.41
-0.4
-0.385
-0.395
-0.41
-0.405
-0.405
-0.405
-0.395
-0.41
-0.42
-0.44
-0.435
-0.425
-0.425
-0.425
-0.435
-0.445
-0.43
-0.425
-0.415
-0.42
-0.435
-0.43
-0.435
-0.41
-0.395
-0.415
-0.41
-0.425
-0.43
-0.425
-0.42
-0.425
-0.445
-0.46
-0.45
-0.435
-0.43
-0.435
-0.44
-0.44
-0.42
-0.41
-0.4
-0.415
-0.435
-0.44
-0.42
-0.41
-0.405
-0.415
-0.42
-0.42
-0.4
-0.385
-0.375
-0.375
-0.37
-0.34
-0.32
-0.25
-0.095
0.245
0.735
1.11
1.135
0.9
0.67
0.53
0.465
0.395
0.325
0.235
0.16
0.045
-0.09
-0.195
-0.31
-0.435
-0.545
-0.685
-0.835
-0.985
-1.11
-1.25
-1.395
-1.545
-1.675
-1.79
-1.865
-1.945
-2.005
-2.07
-2.12
-2.135
-2.135
-2.125
-2.045
-2.01
-1.975
-1.9
-1.765
-1.57
-1.4
-1.25
-1.155
-1.1
-1.07
-1.035
-0.985
-0.935
-0.885
-0.835
-0.78
-0.685
-0.6
-0.535
-0.49
-0.435
-0.375
-0.305
-0.245
-0.205
-0.2
-0.16
-0.145
-0.12
-0.095
-0.105
-0.09
-0.09
-0.075
-0.06
-0.055
-0.045
-0.04
-0.04
-0.01
0.0
0.025
0.03
0.025
0.03
0.045
0.065
0.08
0.07
0.065
0.08
0.11
0.14
0.16
0.165
0.16
0.165
0.185
0.22
0.235
0.23
0.245
0.24
0.26
0.29
0.3
0.325
0.32
0.345
0.38
0.425
0.455
0.475
0.505
0.515
0.555
0.6
0.64
0.65
0.655
0.655
0.69
0.705
0.715
0.735
0.71
0.71
0.725
0.73
0.74
0.71
0.695
0.67
0.645
0.665
0.635
0.605
0.57
0.53
0.495
0.455
0.435
0.39
0.335
0.28
0.25
0.215
0.19
0.125
0.065
0.0
-0.03
-0.045
-0.085
-0.115
-0.16
-0.205
-0.21
-0.205
-0.24
-0.265
-0.29
-0.31
-0.305
-0.295
-0.29
-0.32
-0.345
-0.35
-0.355
-0.355
-0.35
-0.36
-0.385
-0.395
-0.39
-0.385
-0.37
-0.375
-0.4
-0.415
-0.41
-0.385
-0.39
-0.39
-0.4
-0.415
-0.405
-0.395
-0.395
-0.415
-0.425
-0.44
-0.43
-0.41
-0.4
-0.42
-0.43
-0.425
-0.415
-0.405
-0.4
-0.415
-0.44
-0.455
-0.45
-0.455
-0.465
-0.455
-0.465
-0.475
-0.46
-0.45
-0.445
-0.455
-0.48
-0.495
-0.475
-0.47
-0.47
-0.485
-0.485
-0.49
-0.48
-0.47
-0.46
-0.465
-0.48
-0.495
-0.495
-0.485
-0.5
-0.505
-0.51
-0.525
-0.535
-0.52
-0.505
-0.515
-0.515
-0.525
-0.52
-0.505
-0.51
-0.515
-0.53
-0.55
-0.545
-0.525
-0.515
-0.525
-0.53
-0.55
-0.53
-0.515
-0.505
-0.495
-0.505
-0.505
-0.495
-0.485
-0.49
-0.505
-0.515
-0.5
-0.505
-0.495
-0.485
-0.485
-0.49
-0.495
-0.49
-0.49
-0.46
-0.48
-0.495
-0.505
-0.495
-0.48
-0.48
-0.485
-0.485
-0.51
-0.475
-0.46
-0.435
-0.42
-0.4
-0.35
-0.22
0.13
0.63
1.075
1.145
0.885
0.59
0.465
0.4
0.345
0.24
0.13
0.025
-0.085
-0.205
-0.34
-0.49
-0.625
-0.765
-0.89
-1.05
-1.195
-1.37
-1.52
-1.655
-1.76
-1.85
-1.96
-2.065
-2.14
-2.2
-2.215
-2.235
-2.255
-2.275
-2.245
-2.19
-2.125
-2.065
-1.985
-1.875
-1.705
-1.515
-1.345
-1.225
-1.145
-1.085
-1.055
-1.005
-0.945
-0.885
-0.825
-0.775
-0.695
-0.605
-0.525
-0.45
-0.41
-0.38
-0.34
-0.295
-0.25
-0.215
-0.205
-0.2
-0.195
-0.18
-0.155
-0.15
-0.14
-0.14
-0.15
-0.115
-0.09
-0.085
-0.07
-0.065
-0.06
-0.035
-0.01
0.005
-0.01
-0.005
-0.01
0.005
0.01
0.03
0.02
0.025
0.03
0.05
0.075
0.095
0.105
0.105
0.11
0.14
0.185
0.205
0.215
0.23
0.245
0.27
0.31
0.335
0.355
0.36
0.385
0.405
0.465
0.495
0.525
0.535
0.565
0.59
0.635
0.67
0.68
0.685
0.695
0.705
0.74
0.755
0.755
0.755
0.74
0.745
0.755
0.735
0.71
0.695
0.68
0.66
0.65
0.615
0.565
0.505
0.46
0.41
0.37
0.33
0.275
0.215
0.165
0.115
0.085
0.05
-0.01
-0.065
-0.11
-0.14
-0.16
-0.19
-0.215
-0.25
-0.28
-0.3
-0.305
-0.305
-0.32
-0.34
-0.355
-0.365
-0.355
-0.355
-0.365
-0.38
-0.405
-0.405
-0.38
-0.38
-0.385
-0.405
-0.42
-0.415
-0.42
-0.415
-0.44
-0.45
-0.47
-0.465
-0.45
-0.445
-0.46
-0.465
-0.485
-0.475
-0.46
-0.45
-0.47
-0.485
-0.505
-0.495
-0.485
-0.48
-0.49
-0.505
-0.505
-0.49
-0.48
-0.465
-0.475
-0.49
-0.505
-0.47
-0.46
-0.44
-0.455
-0.48
-0.485
-0.47
-0.465
-0.46
-0.475
-0.49
-0.505
-0.51
-0.49
-0.495
-0.51
-0.53
-0.515
-0.51
-0.495
-0.485
-0.5
-0.515
-0.53
-0.525
-0.51
-0.52
-0.52
-0.535
-0.545
-0.56
-0.51
-0.5
-0.51
-0.525
-0.54
-0.53
-0.53
-0.515
-0.515
-0.525
-0.52
-0.515
-0.505
-0.495
-0.515
-0.53
-0.53
-0.525
-0.51
-0.495
-0.49
-0.51
-0.515
-0.505
-0.48
-0.485
-0.5
-0.505
-0.51
-0.505
-0.515
-0.485
-0.5
-0.495
-0.505
-0.505
-0.49
-0.48
-0.49
-0.49
-0.5
-0.49
-0.485
-0.48
-0.49
-0.52
-0.52
-0.52
-0.48
-0.465
-0.45
-0.47
-0.455
-0.45
-0.425
-0.385
-0.335
-0.28
-0.175
0.085
0.48
0.92
1.185
1.155
0.93
0.71
0.61
0.565
0.505
0.41
0.325
0.245
0.19
0.115
0.005
-0.115
-0.225
-0.34
-0.435
-0.535
-0.67
-0.825
-0.95
-1.065
-1.185
-1.315
-1.45
-1.59
-1.695
-1.775
-1.84
-1.915
-2.005
-2.095
-2.155
-2.185
-2.2
-2.205
-2.215
-2.215
-2.195
-2.145
-2.1
-2.02
-1.93
-1.84
-1.705
-1.545
-1.38
-1.26
-1.18
-1.135
-1.12
-1.075
-1.015
-0.945
-0.885
-0.835
-0.77
-0.705
-0.615
-0.54
-0.48
-0.435
-0.39
-0.345
-0.265
-0.225
-0.205
-0.19
-0.185
-0.16
-0.13
-0.1
-0.1
-0.11
-0.1
-0.09
-0.065
-0.06
-0.06
-0.05
-0.065
-0.045
-0.035
-0.015
-0.02
-0.02
-0.015
0.0
0.035
0.05
0.05
0.055
0.07
0.1
0.12
0.135
0.125
0.13
0.115
0.135
0.165
0.19
0.2
0.21
0.205
0.24
0.28
0.31
0.32
0.345
0.345
0.365
0.42
0.455
0.475
0.49
0.51
0.54
0.585
0.615
0.63
0.63
0.665
0.685
0.72
0.745
0.765
0.765
0.76
0.79
0.8
0.815
0.795
0.775
0.78
0.77
0.77
0.765
0.745
0.715
0.69
0.675
0.66
0.64
0.575
0.545
0.49
0.465
0.43
0.405
0.355
0.3
0.24
0.215
0.18
0.15
0.105
0.03
0.015
-0.025
-0.055
-0.06
-0.095
-0.14
-0.16
-0.175
-0.185
-0.19
-0.225
-0.255
-0.265
-0.27
-0.255
-0.26
-0.285
-0.31
-0.32
-0.31
-0.32
-0.315
-0.335
-0.345
-0.38
-0.37
-0.355
-0.335
-0.34
-0.37
-0.35
-0.355
-0.335
-0.325
-0.32
-0.33
-0.335
-0.335
-0.325
-0.315
-0.32
-0.335
-0.355
-0.34
-0.34
-0.335
-0.34
-0.355
-0.365
-0.36
-0.355
-0.335
-0.34
-0.35
-0.35
-0.34
-0.325
-0.315
-0.325
-0.34
-0.375
-0.37
-0.37
-0.36
-0.375
-0.385
-0.415
-0.41
-0.39
-0.385
-0.385
-0.415
-0.425
-0.405
-0.395
-0.39
-0.4
-0.405
-0.415
-0.405
-0.39
-0.38
-0.39
-0.41
-0.415
-0.39
-0.37
-0.36
-0.38
-0.37
-0.38
-0.38
-0.37
-0.365
-0.37
-0.38
-0.39
-0.385
-0.38
-0.355
-0.375
-0.385
-0.39
-0.385
-0.375
-0.375
-0.395
-0.405
-0.42
-0.405
-0.395
-0.405
-0.395
-0.42
-0.415
-0.41
-0.385
-0.36
-0.39
-0.385
-0.39
-0.37
-0.37
-0.355
-0.36
-0.37
-0.38
-0.365
-0.35
-0.335
-0.34
-0.36
-0.345
-0.34
-0.32
-0.305
-0.31
-0.315
-0.315
-0.305
-0.27
-0.255
-0.25
-0.25
-0.24
-0.155
0.02
0.37
0.83
1.16
1.205
0.99
0.78
0.655
0.575
0.505
0.42
0.34
0.255
0.18
0.06
-0.055
-0.175
-0.275
-0.36
-0.45
-0.595
-0.735
-0.88
-1.045
-1.2
-1.34
-1.485
-1.615
-1.715
-1.8
-1.865
-1.9
-1.95
-2.01
-2.035
-2.045
-2.015
-1.97
-1.93
-1.91
-1.87
-1.77
-1.64
-1.5
-1.335
-1.18
-1.06
-0.945
-0.88
-0.845
-0.835
-0.81
-0.75
-0.65
-0.545
-0.495
-0.41
-0.355
-0.275
-0.215
-0.16
-0.11
-0.1
-0.095
-0.11
-0.085
-0.055
-0.035
-0.05
-0.03
-0.04
-0.035
0.01
0.02
0.015
-0.005
0.01
0.03
0.045
0.065
0.08
0.07
0.075
0.085
0.11
0.11
0.1
0.095
0.085
0.09
0.12
0.14
0.15
0.145
0.135
0.145
0.165
0.185
0.19
0.195
0.195
0.23
0.265
0.28
0.28
0.29
0.3
0.31
0.345
0.365
0.375
0.375
0.39
0.415
0.45
0.485
0.505
0.51
0.54
0.57
0.61
0.62
0.64
0.635
0.66
0.695
0.715
0.73
0.735
0.735
0.72
0.735
0.74
0.755
0.735
0.705
0.695
0.695
0.695
0.69
0.66
0.635
0.6
0.59
0.585
0.57
0.51
0.475
0.425
0.405
0.37
0.35
0.315
0.265
0.215
0.19
0.155
0.115
0.09
0.055
0.02
0.0
-0.015
-0.05
-0.09
-0.125
-0.145
-0.17
-0.14
-0.155
-0.185
-0.195
-0.225
-0.24
-0.24
-0.235
-0.255
-0.275
-0.29
-0.285
-0.285
-0.285
-0.295
-0.315
-0.34
-0.32
-0.31
-0.31
-0.325
-0.335
-0.34
-0.335
-0.315
-0.315
-0.315
-0.325
-0.33
-0.33
-0.315
-0.305
-0.305
-0.325
-0.325
-0.325
-0.31
-0.295
-0.295
-0.31
-0.31
-0.28
-0.285
-0.285
-0.305
-0.345
-0.35
-0.35
-0.33
-0.325
-0.34
-0.345
-0.355
-0.36
-0.34
-0.35
-0.35
-0.37
-0.375
-0.355
-0.34
-0.34
-0.345
-0.365
-0.375
-0.38
-0.37
-0.36
-0.39
-0.395
-0.4
-0.395
-0.385
-0.39
-0.385
-0.395
-0.4
-0.395
-0.37
-0.355
-0.345
-0.35
-0.34
-0.335
-0.305
-0.3
-0.315
-0.33
-0.375
-0.36
-0.37
-0.375
-0.38
-0.385
-0.4
-0.38
-0.375
-0.37
-0.385
-0.395
-0.41
-0.395
-0.38
-0.36
-0.385
-0.4
-0.405
-0.405
-0.4
-0.375
-0.385
-0.4
-0.405
-0.395
-0.38
-0.39
-0.395
-0.415
-0.42
-0.41
-0.38
-0.385
-0.385
-0.4
-0.41
-0.4
-0.39
-0.385
-0.395
-0.4
-0.405
-0.395
-0.375
-0.36
-0.345
-0.33
-0.33
-0.305
-0.29
-0.27
-0.265
-0.27
-0.22
-0.14
0.085
0.53
1.07
1.33
1.22
0.995
0.895
0.935
1.015
1.11
1.225
1.325
1.39
1.39
1.33
1.225
1.07
0.9
0.735
0.51
0.19
-0.12
-0.38
-0.485
-0.445
-0.35
-0.265
-0.225
-0.22
-0.195
-0.195
-0.19
-0.205
-0.245
-0.26
-0.265
-0.26
-0.265
-0.29
-0.305
-0.325
-0.325
-0.33
-0.34
-0.35
-0.375
-0.395
-0.39
-0.38
-0.405
-0.4
-0.435
-0.455
-0.475
-0.48
-0.47
-0.49
-0.52
-0.525
-0.525
-0.515
-0.515
-0.545
-0.56
-0.575
-0.565
-0.565
-0.565
-0.585
-0.585
-0.595
-0.59
-0.57
-0.57
-0.56
-0.575
-0.58
-0.585
-0.59
-0.575
-0.59
-0.64
-0.655
-0.66
-0.655
-0.655
-0.685
-0.705
-0.72
-0.74
-0.745
-0.74
-0.785
-0.8
-0.845
-0.84
-0.855
-0.875
-0.895
-0.945
-0.955
-0.97
-0.995
-1.015
-1.045
-1.105
-1.125
-1.14
-1.145
-1.165
-1.2
-1.225
-1.24
-1.235
-1.24
-1.23
-1.23
-1.26
-1.26
-1.255
-1.23
-1.21
-1.21
-1.21
-1.205
-1.17
-1.14
-1.105
-1.07
-1.065
-1.06
-1.015
-0.965
-0.92
-0.915
-0.9
-0.88
-0.84
-0.795
-0.765
-0.745
-0.76
-0.735
-0.73
-0.685
-0.655
-0.655
-0.65
-0.64
-0.615
-0.6
-0.58
-0.575
-0.585
-0.58
-0.565
-0.545
-0.53
-0.52
-0.515
-0.51
-0.485
-0.485
-0.465
-0.455
-0.46
-0.46
-0.455
-0.445
-0.425
-0.4
-0.41
-0.405
-0.395
-0.375
-0.355
-0.365
-0.385
-0.385
-0.37
-0.355
-0.34
-0.335
-0.35
-0.35
-0.345
-0.33
-0.33
-0.325
-0.325
-0.335
-0.33
-0.32
-0.32
-0.315
-0.34
-0.345
-0.34
-0.33
-0.325
-0.345
-0.365
-0.365
-0.36
-0.36
-0.36
-0.36
-0.375
-0.385
-0.36
-0.345
-0.33
-0.355
-0.37
-0.335
-0.33
-0.315
-0.3
-0.315
-0.325
-0.315
-0.31
-0.305
-0.29
-0.285
-0.305
-0.31
-0.305
-0.28
-0.275
-0.285
-0.295
-0.295
-0.285
-0.275
-0.27
-0.27
-0.29
-0.305
-0.29
-0.28
-0.27
-0.27
-0.28
-0.295
-0.295
-0.295
-0.29
-0.305
-0.325
-0.335
-0.34
-0.345
-0.33
-0.345
-0.35
-0.365
-0.355
-0.335
-0.33
-0.33
-0.32
-0.32
-0.31
-0.295
-0.275
-0.29
-0.295
-0.3
-0.29
-0.26
-0.26
-0.26
-0.285
-0.285
-0.265
-0.25
-0.24
-0.25
-0.275
-0.3
-0.29
-0.265
-0.25
-0.265
-0.265
-0.27
-0.27
-0.25
-0.235
-0.245
-0.255
-0.27
-0.26
-0.24
-0.245
-0.255
-0.27
-0.28
-0.285
-0.26
-0.27
-0.285
-0.305
-0.305
-0.29
-0.275
-0.245
-0.22
-0.21
-0.2
-0.165
-0.12
-0.05
0.045
0.26
0.66
1.15
1.45
1.44
1.215
1.03
0.985
1.015
1.06
1.145
1.24
1.335
1.41
1.45
1.46
1.41
1.305
1.155
0.985
0.805
0.555
0.22
-0.145
-0.405
-0.465
-0.4
-0.27
-0.19
-0.13
-0.12
-0.125
-0.13
-0.145
-0.165
-0.185
-0.21
-0.2
-0.195
-0.175
-0.165
-0.185
-0.195
-0.225
-0.225
-0.225
-0.225
-0.235
-0.245
-0.25
-0.26
-0.26
-0.275
-0.3
-0.325
-0.335
-0.325
-0.33
-0.325
-0.34
-0.37
-0.375
-0.395
-0.375
-0.375
-0.385
-0.42
-0.435
-0.43
-0.43
-0.43
-0.445
-0.46
-0.47
-0.465
-0.465
-0.47
-0.505
-0.535
-0.545
-0.55
-0.545
-0.55
-0.56
-0.575
-0.58
-0.585
-0.575
-0.575
-0.565
-0.57
-0.575
-0.56
-0.57
-0.565
-0.585
-0.61
-0.63
-0.635
-0.64
-0.65
-0.665
-0.705
-0.73
-0.745
-0.735
-0.75
-0.795
-0.835
-0.865
-0.895
-0.895
-0.915
-0.96
-0.99
-1.015
-1.03
-1.025
-1.045
-1.065
-1.105
-1.12
-1.13
-1.12
-1.115
-1.13
-1.145
-1.165
-1.145
-1.105
-1.1
-1.075
-1.075
-1.05
-1.005
-0.965
-0.925
-0.895
-0.89
-0.865
-0.83
-0.785
-0.765
-0.73
-0.725
-0.695
-0.66
-0.61
-0.58
-0.57
-0.565
-0.55
-0.525
-0.495
-0.465
-0.46
-0.455
-0.44
-0.425
-0.4
-0.39
-0.39
-0.405
-0.41
-0.385
-0.37
-0.355
-0.36
-0.365
-0.365
-0.355
-0.35
-0.355
-0.38
-0.37
-0.385
-0.365
-0.355
-0.36
-0.365
-0.375
-0.375
-0.36
-0.33
-0.33
-0.325
-0.35
-0.33
-0.305
-0.3
-0.28
-0.29
-0.275
-0.28
-0.27
-0.255
-0.24
-0.25
-0.275
-0.275
-0.275
-0.255
-0.245
-0.25
-0.265
-0.27
-0.28
-0.265
-0.245
-0.25
-0.27
-0.285
-0.28
-0.265
-0.265
-0.28
-0.285
-0.31
-0.3
-0.3
-0.3
-0.295
-0.31
-0.32
-0.32
-0.3
-0.3
-0.3
-0.31
-0.33
-0.32
-0.3
-0.285
-0.29
-0.295
-0.295
-0.29
-0.285
-0.27
-0.275
-0.295
-0.295
-0.295
-0.275
-0.255
-0.28
-0.275
-0.29
-0.275
-0.27
-0.255
-0.26
-0.27
-0.28
-0.275
-0.26
-0.245
-0.26
-0.27
-0.275
-0.255
-0.25
-0.25
-0.25
-0.28
-0.28
-0.27
-0.27
-0.27
-0.285
-0.29
-0.305
-0.3
-0.295
-0.28
-0.295
-0.3
-0.305
-0.285
-0.26
-0.25
-0.275
-0.29
-0.285
-0.255
-0.235
-0.24
-0.24
-0.245
-0.26
-0.245
-0.24
-0.215
-0.22
-0.245
-0.25
-0.245
-0.25
-0.23
-0.245
-0.25
-0.255
-0.245
-0.23
-0.21
-0.205
-0.21
-0.205
-0.195
-0.145
-0.095
-0.05
0.115
0.455
