Lead II
0.025
0.035
0.05
0.04
0.05
0.04
0.045
0.04
0.05
0.035
0.035
0.02
0.02
0.035
0.035
0.045
0.035
0.03
0.03
0.05
0.065
0.045
0.03
0.025
0.03
0.045
0.06
0.045
0.03
0.02
0.03
0.03
0.035
0.045
0.025
0.02
0.015
0.015
0.045
0.045
0.025
-0.005
-0.005
0.0
0.015
0.035
0.0
0.01
-0.01
0.015
0.025
0.01
0.005
0.0
0.0
0.0
0.02
0.015
0.0
-0.005
-0.005
-0.005
0.01
0.015
0.005
0.0
0.0
0.005
-0.005
-0.02
-0.015
-0.01
-0.005
-0.02
-0.02
-0.01
-0.035
-0.035
-0.01
0.0
0.005
0.005
-0.015
-0.03
-0.03
-0.015
-0.01
-0.015
-0.025
-0.02
-0.015
-0.01
-0.015
-0.01
-0.01
-0.03
-0.035
-0.02
-0.01
-0.015
-0.035
-0.03
-0.015
0.0
0.015
0.0
-0.02
-0.03
-0.02
-0.01
0.0
-0.01
-0.045
-0.045
-0.05
-0.025
0.0
-0.005
-0.02
-0.03
-0.02
-0.01
-0.005
-0.015
-0.025
-0.035
-0.02
0.005
0.02
-0.005
-0.015
-0.025
-0.02
0.0
0.025
0.02
0.0
-0.02
-0.015
0.005
0.025
0.03
0.01
-0.005
-0.01
0.015
0.02
0.0
-0.02
-0.03
-0.01
0.005
0.015
0.035
0.035
0.045
0.05
0.06
0.07
0.065
0.055
0.055
0.07
0.08
0.1
0.08
0.055
0.03
0.02
0.025
0.045
0.04
0.03
0.025
0.04
0.045
0.045
0.045
0.02
0.03
0.03
0.05
0.065
0.06
0.04
0.035
0.03
0.02
0.01
0.01
0.0
0.01
0.02
0.015
0.025
0.01
0.025
0.01
-0.005
-0.02
-0.005
-0.005
-0.01
-0.005
0.0
0.01
0.02
0.015
0.005
-0.005
0.0
0.0
0.015
0.005
-0.02
-0.02
-0.005
0.015
0.025
0.025
0.02
0.025
0.025
0.05
0.07
0.07
0.08
0.12
0.2
0.265
0.305
0.335
0.37
0.44
0.575
0.705
0.83
0.93
1.045
1.135
1.29
1.48
1.67
1.805
1.835
1.765
1.555
1.235
0.83
0.445
0.17
0.025
-0.035
-0.045
-0.02
0.01
0.005
0.0
0.0
0.015
0.01
-0.005
-0.03
-0.035
-0.03
-0.045
-0.04
-0.075
-0.075
-0.075
-0.065
-0.055
-0.05
-0.065
-0.085
-0.085
-0.085
-0.07
-0.06
-0.075
-0.085
-0.09
-0.09
-0.07
-0.065
-0.075
-0.085
-0.07
-0.075
-0.06
-0.05
-0.07
-0.095
-0.095
-0.08
-0.065
-0.065
-0.08
-0.09
-0.085
-0.09
-0.08
-0.07
-0.08
-0.08
-0.095
-0.085
-0.08
-0.065
-0.05
-0.055
-0.07
-0.07
-0.045
-0.035
-0.05
-0.065
-0.075
-0.06
-0.055
-0.045
-0.045
-0.045
-0.05
-0.045
-0.015
-0.01
-0.025
-0.035
-0.055
-0.035
-0.025
-0.01
-0.005
-0.01
-0.005
0.01
0.03
0.045
0.04
0.035
0.015
0.025
0.045
0.085
0.1
0.09
0.075
0.065
0.09
0.13
0.15
0.155
0.165
0.16
0.175
0.19
0.205
0.22
0.205
0.23
0.23
0.245
0.245
0.255
0.235
0.24
0.235
0.24
0.245
0.22
0.195
0.19
0.19
0.2
0.17
0.15
0.13
0.115
0.12
0.135
0.125
0.1
0.085
0.075
0.075
0.1
0.105
0.085
0.07
0.065
0.055
0.065
0.08
0.075
0.055
0.07
0.09
0.09
0.08
0.065
0.045
0.055
0.05
0.065
0.075
0.05
0.04
0.03
0.045
0.065
0.05
0.05
0.045
0.05
0.065
0.065
0.07
0.05
0.045
0.05
0.06
0.065
0.055
0.045
0.035
0.04
0.05
0.045
0.035
0.035
0.035
0.045
0.06
0.055
0.055
0.045
0.035
0.04
0.065
0.09
0.07
0.045
0.02
0.02
0.045
0.065
0.065
0.055
0.03
0.03
0.04
0.06
0.05
0.045
0.035
0.035
0.03
0.03
0.045
0.035
0.04
0.045
0.035
0.035
0.035
0.05
0.045
0.06
0.06
0.045
0.0
-0.005
0.015
0.035
0.045
0.055
0.045
0.03
0.015
0.025
0.055
0.06
0.065
0.045
0.015
0.01
0.005
0.03
0.025
0.015
0.015
0.035
0.05
0.065
0.05
0.025
-0.005
-0.005
0.015
0.035
0.035
0.035
0.04
0.04
0.05
0.055
0.045
0.03
0.015
0.04
0.055
0.05
0.03
0.015
0.015
0.02
0.045
0.075
0.065
0.035
0.025
0.02
0.045
0.075
0.065
0.055
0.05
0.055
0.06
0.085
0.075
0.055
0.035
0.025
0.05
0.06
0.05
0.045
0.05
0.045
0.045
0.055
0.055
0.055
0.05
0.045
0.05
0.055
0.05
0.06
0.05
0.055
0.06
0.07
0.055
0.055
0.04
0.065
0.08
0.08
0.08
0.085
0.065
0.075
0.095
0.1
0.11
0.11
0.08
0.07
0.07
0.09
0.11
0.11
0.085
0.1
0.125
0.16
0.155
0.14
0.125
0.125
0.14
0.135
0.13
0.12
0.1
0.115
0.14
0.145
0.15
0.125
0.115
0.105
0.125
0.13
0.13
0.13
0.115
0.13
0.13
0.135
0.135
0.105
0.085
0.075
0.1
0.1
0.11
0.1
0.105
0.11
0.11
0.11
0.095
0.085
0.075
0.085
0.105
0.105
0.105
0.085
0.075
0.09
0.105
0.105
0.095
0.075
0.08
0.09
0.095
0.12
0.105
0.095
0.09
0.095
0.09
0.095
0.115
0.11
0.115
0.135
0.16
0.205
0.22
0.25
0.29
0.32
0.385
0.44
0.53
0.62
0.73
0.845
0.975
1.085
1.205
1.36
1.52
1.715
1.855
1.87
1.685
1.345
0.88
0.455
0.195
0.08
0.03
0.035
0.06
0.08
0.105
0.1
0.09
0.075
0.055
0.05
0.06
0.05
0.035
0.025
0.01
0.02
0.025
0.03
0.01
-0.005
0.0
0.015
0.025
0.045
0.04
0.04
0.015
0.0
0.02
0.03
0.025
0.0
-0.01
0.005
0.005
0.01
0.01
0.0
0.005
0.005
0.035
0.02
0.035
0.0
-0.01
-0.005
0.015
0.015
0.045
0.035
0.04
0.035
0.03
0.035
0.03
0.035
0.015
0.02
0.035
0.05
0.06
0.065
0.045
0.05
0.065
0.075
0.085
0.08
0.085
0.095
0.105
0.12
0.135
0.13
0.135
0.125
0.13
0.16
0.185
0.185
0.2
0.205
0.23
0.25
0.275
0.275
0.275
0.285
0.315
0.355
0.365
0.355
0.34
0.34
0.335
0.32
0.315
0.3
0.3
0.305
0.29
0.28
0.265
0.235
0.23
0.23
0.23
0.23
0.22
0.21
0.185
0.175
0.175
0.175
0.175
0.185
0.17
0.175
0.17
0.175
0.15
0.14
0.13
0.15
0.15
0.145
0.15
0.135
0.12
0.135
0.155
0.17
0.165
0.13
0.115
0.11
0.13
0.15
0.135
0.135
0.11
0.11
0.13
0.145
0.145
0.12
0.095
0.105
0.125
0.135
0.14
0.135
0.11
0.11
0.12
0.135
0.14
0.13
0.13
0.125
0.14
0.14
0.14
0.135
0.13
0.12
0.12
0.105
0.11
0.115
0.12
0.135
0.14
0.135
0.14
0.12
0.11
0.11
0.135
0.15
0.14
0.135
0.13
0.135
0.13
0.135
0.135
0.115
0.11
0.115
0.125
0.14
0.14
0.125
0.1
0.105
0.11
0.125
0.11
0.11
0.1
0.105
0.125
0.13
0.11
0.1
0.08
0.095
0.11
0.13
0.11
0.1
0.085
0.09
0.1
0.115
0.1
0.1
0.095
0.11
0.125
0.13
0.1
0.07
0.075
0.08
0.11
0.125
0.13
0.11
0.085
0.075
0.095
0.105
0.095
0.08
0.08
0.085
0.095
0.09
0.09
0.065
0.065
0.085
0.11
0.115
0.105
0.075
0.065
0.075
0.1
0.11
0.105
0.09
0.08
0.09
0.09
0.09
0.085
0.08
0.08
0.075
0.085
0.09
0.08
0.07
0.055
0.065
0.085
0.09
0.095
0.08
0.095
0.095
0.105
0.105
0.11
0.085
0.085
0.085
0.095
0.095
0.1
0.075
0.07
0.085
0.1
0.11
0.085
0.085
0.07
0.09
0.105
0.13
0.125
0.115
0.085
0.105
0.115
0.135
0.145
0.15
0.155
0.165
0.17
0.155
0.165
0.13
0.12
0.12
0.115
0.11
0.125
0.12
0.125
0.13
0.135
0.15
0.14
0.135
0.12
0.135
0.14
0.13
0.13
0.12
0.1
0.1
0.105
0.105
0.085
0.065
0.06
0.085
0.11
0.11
0.11
0.08
0.075
0.075
0.08
0.09
0.1
0.095
0.085
0.08
0.09
0.085
0.075
0.075
0.07
0.085
0.105
0.11
0.09
0.075
0.075
0.07
0.075
0.105
0.11
0.115
0.11
0.15
0.19
0.24
0.285
0.32
0.34
0.375
0.45
0.54
0.64
0.74
0.855
0.975
1.11
1.265
1.44
1.62
1.76
1.78
1.645
1.33
0.875
0.435
0.16
0.04
0.01
0.005
0.03
0.02
0.025
0.055
0.07
0.07
0.04
0.015
0.01
0.02
0.035
0.035
0.005
-0.02
-0.005
0.005
0.0
0.005
-0.015
-0.02
-0.035
-0.005
0.005
0.015
0.0
-0.02
-0.01
-0.005
0.01
0.015
-0.01
-0.035
-0.035
-0.02
-0.015
0.01
-0.02
-0.025
-0.035
-0.015
-0.015
-0.005
-0.005
-0.02
-0.02
-0.005
-0.005
0.01
-0.005
-0.02
-0.005
0.01
0.025
0.025
0.01
0.0
-0.005
-0.01
0.005
0.01
0.005
0.005
0.01
0.035
0.055
0.05
0.015
0.01
0.005
0.03
0.055
0.06
0.065
0.035
0.035
0.055
0.08
0.105
0.095
0.1
0.105
0.125
0.15
0.15
0.145
0.13
0.13
0.165
0.19
0.215
0.23
0.22
0.23
0.25
0.275
0.29
0.28
0.255
0.235
0.26
0.275
0.29
0.275
0.26
0.245
0.25
0.25
0.25
0.225
0.195
0.185
0.18
0.18
0.18
0.165
0.155
0.13
0.125
0.13
0.12
0.11
0.1
0.09
0.11
0.105
0.115
0.115
0.11
0.09
0.105
0.1
0.095
0.08
0.075
0.07
0.08
0.07
0.06
0.06
0.045
0.06
0.065
0.075
0.075
0.08
0.065
0.06
0.065
0.06
0.06
0.055
0.04
0.05
0.055
0.07
0.075
0.06
0.055
0.045
0.055
0.075
0.08
0.075
0.05
0.025
0.025
0.045
0.06
0.06
0.035
0.04
0.035
0.065
0.06
0.05
0.045
0.035
0.055
0.065
0.07
0.05
0.045
0.04
0.05
0.065
0.07
0.065
0.055
0.065
0.1
0.14
0.19
0.24
0.3
0.405
0.55
0.665
0.725
0.71
0.645
0.55
0.375
0.08
-0.3
-0.765
-1.26
-1.61
-1.76
-1.77
-1.77
-1.765
-1.74
-1.685
-1.58
-1.44
-1.31
-1.18
-1.075
-0.955
-0.86
-0.765
-0.695
-0.635
-0.585
-0.515
-0.45
-0.395
-0.36
-0.345
-0.325
-0.28
-0.215
-0.15
-0.11
-0.06
-0.025
0.005
0.045
0.105
0.145
0.15
0.15
0.155
0.185
0.2
0.225
0.235
0.235
0.24
0.27
0.275
0.275
0.27
0.255
0.25
0.265
0.305
0.325
0.325
0.32
0.32
0.325
0.34
0.375
0.37
0.38
0.375
0.39
0.42
0.43
0.425
0.415
0.435
0.465
0.49
0.525
0.52
0.515
0.52
0.535
0.58
0.61
0.625
0.645
0.655
0.695
0.735
0.765
0.78
0.79
0.82
0.86
0.9
0.94
0.96
0.97
0.985
1.005
1.06
1.1
1.11
1.105
1.105
1.125
1.16
1.155
1.14
1.105
1.09
1.095
1.1
1.09
1.055
1.015
0.995
0.98
0.96
0.93
0.885
0.825
0.805
0.775
0.765
0.74
0.705
0.655
0.625
0.605
0.595
0.565
0.52
0.455
0.41
0.395
0.4
0.38
0.35
0.315
0.275
0.265
0.255
0.25
0.22
0.195
0.175
0.175
0.18
0.17
0.155
0.12
0.105
0.105
0.125
0.12
0.11
0.09
0.075
0.085
0.095
0.105
0.09
0.09
0.08
0.08
0.085
0.075
0.06
0.05
0.05
0.065
0.065
0.055
0.055
0.035
0.035
0.035
0.05
0.06
0.05
0.05
0.03
0.02
0.02
0.03
0.02
0.025
0.015
0.005
0.02
0.01
0.0
-0.01
-0.015
0.0
0.01
0.01
-0.005
-0.015
-0.005
0.015
0.025
0.015
0.015
-0.01
-0.025
-0.045
-0.05
-0.045
-0.04
-0.04
-0.06
-0.045
-0.05
-0.03
-0.05
-0.075
-0.08
-0.065
-0.055
-0.04
-0.045
-0.065
-0.065
-0.065
-0.055
-0.055
-0.065
-0.075
-0.08
-0.06
-0.045
-0.05
-0.055
-0.08
-0.06
-0.05
-0.04
-0.04
-0.065
-0.095
-0.1
-0.095
-0.07
-0.04
-0.065
-0.085
-0.115
-0.11
-0.09
-0.085
-0.09
-0.11
-0.12
-0.105
-0.085
-0.085
-0.095
-0.11
-0.11
-0.1
-0.085
-0.09
-0.115
-0.11
-0.13
-0.105
-0.105
-0.11
-0.12
-0.13
-0.105
-0.085
-0.08
-0.08
-0.1
-0.12
-0.115
-0.11
-0.11
-0.08
-0.09
-0.105
-0.115
-0.11
-0.095
-0.1
-0.095
-0.11
-0.12
-0.115
-0.12
-0.115
-0.11
-0.135
-0.125
-0.11
-0.09
-0.095
-0.1
-0.125
-0.13
-0.115
-0.105
-0.105
-0.115
-0.13
-0.125
-0.115
-0.105
-0.09
-0.1
-0.13
-0.13
-0.125
-0.11
-0.09
-0.105
-0.115
-0.11
-0.12
-0.105
-0.115
-0.13
-0.16
-0.145
-0.135
-0.12
-0.095
-0.11
-0.125
-0.13
-0.115
-0.095
-0.1
-0.105
-0.11
-0.11
-0.11
-0.09
-0.085
-0.09
-0.115
-0.1
-0.095
-0.09
-0.095
-0.11
-0.115
-0.105
-0.105
-0.085
-0.085
-0.09
-0.105
-0.125
-0.1
-0.11
-0.1
-0.105
-0.12
-0.115
-0.11
-0.095
-0.075
-0.1
-0.105
-0.105
-0.105
-0.095
-0.085
-0.095
-0.105
-0.115
-0.105
-0.09
-0.075
-0.1
-0.09
-0.095
-0.08
-0.065
-0.08
-0.085
-0.075
-0.085
-0.07
-0.06
-0.055
-0.055
-0.075
-0.065
-0.05
-0.045
-0.045
-0.06
-0.065
-0.085
-0.065
-0.05
-0.04
-0.045
-0.075
-0.075
-0.065
-0.06
-0.045
-0.04
-0.065
-0.055
-0.06
-0.045
-0.035
-0.045
-0.06
-0.07
-0.055
-0.05
-0.04
-0.065
-0.065
-0.07
-0.07
-0.045
-0.045
-0.045
-0.055
-0.065
-0.065
-0.045
-0.05
-0.06
-0.055
-0.05
-0.05
-0.045
-0.035
-0.045
-0.055
-0.07
-0.04
-0.02
-0.015
-0.025
-0.045
-0.04
-0.04
-0.015
-0.015
-0.025
-0.03
-0.04
-0.03
-0.02
-0.015
-0.025
-0.025
-0.025
-0.01
0.0
-0.015
-0.015
-0.03
-0.025
-0.015
-0.01
0.005
-0.015
-0.02
-0.02
-0.02
0.0
-0.005
-0.01
-0.025
-0.02
-0.02
-0.015
-0.015
-0.035
-0.035
-0.035
-0.045
-0.025
-0.015
-0.015
-0.005
-0.01
0.005
0.02
0.015
0.01
0.01
0.01
0.025
0.04
0.03
0.015
-0.015
-0.015
-0.015
0.015
0.01
0.015
0.0
0.01
0.02
0.04
0.045
0.04
0.01
0.005
-0.005
0.005
0.01
-0.005
-0.02
-0.02
-0.01
0.015
0.005
-0.005
-0.015
-0.02
0.0
-0.005
0.0
-0.01
-0.015
-0.035
-0.005
-0.005
0.0
0.0
-0.015
-0.02
-0.01
0.005
0.025
0.005
0.005
-0.005
0.01
0.03
0.045
0.065
0.085
0.115
0.18
0.22
0.255
0.31
0.39
0.505
0.65
0.795
0.955
1.105
1.285
1.48
1.71
1.885
1.895
1.71
1.34
0.865
0.455
0.165
0.02
-0.01
-0.01
0.01
0.025
0.03
0.02
0.005
-0.02
-0.035
-0.035
-0.045
-0.065
-0.07
-0.08
-0.085
-0.09
-0.065
-0.065
-0.08
-0.1
-0.12
-0.11
-0.1
-0.09
-0.1
-0.11
-0.115
-0.12
-0.1
-0.1
-0.11
-0.13
-0.125
-0.105
-0.1
-0.1
-0.11
-0.12
-0.12
-0.105
-0.09
-0.09
-0.095
-0.11
-0.13
-0.115
-0.1
-0.095
-0.1
-0.105
-0.115
-0.095
-0.085
-0.08
-0.095
-0.11
-0.115
-0.085
-0.06
-0.06
-0.075
-0.1
-0.095
-0.065
-0.06
-0.05
-0.055
-0.075
-0.065
-0.07
-0.05
-0.04
-0.055
-0.05
-0.055
-0.03
-0.02
-0.03
-0.03
-0.045
-0.03
-0.015
-0.005
0.0
0.0
-0.01
-0.015
0.0
0.025
0.05
0.05
0.035
0.05
0.055
0.075
0.07
0.09
0.09
0.095
0.12
0.15
0.165
0.175
0.17
0.18
0.22
0.22
0.235
0.235
0.23
0.225
0.23
0.24
0.245
0.24
0.21
0.195
0.2
0.22
0.205
0.195
0.175
0.175
0.185
0.185
0.18
0.155
0.125
0.115
0.145
0.14
0.135
0.1
0.085
0.08
0.105
0.115
0.11
0.11
0.08
0.075
0.07
0.08
0.07
0.075
0.06
0.07
0.08
0.085
0.1
0.075
0.075
0.065
0.075
0.085
0.1
0.075
0.065
0.065
0.07
0.08
0.085
0.075
0.06
0.07
0.07
0.085
0.085
0.08
0.065
0.055
0.075
0.075
0.09
0.075
0.06
0.055
0.075
0.075
0.085
0.075
0.05
0.04
0.055
0.065
0.07
0.06
0.055
0.04
0.055
0.05
0.065
0.045
0.04
0.03
0.04
0.045
0.05
0.035
0.03
0.01
0.025
0.045
0.035
0.03
0.03
0.015
0.02
0.03
0.02
0.015
0.015
0.005
0.015
0.025
0.04
0.015
0.01
0.0
0.01
0.03
0.04
0.035
0.02
0.025
0.005
0.015
0.015
0.0
-0.01
-0.01
-0.005
0.02
0.025
0.0
0.005
0.01
0.005
0.02
0.03
0.005
-0.005
-0.005
0.015
0.025
0.02
0.015
0.005
0.005
0.015
0.02
0.015
0.005
-0.005
-0.005
0.01
0.025
0.03
0.02
0.005
-0.01
-0.005
0.015
0.02
0.01
0.0
0.0
0.01
0.02
0.025
0.01
0.015
0.0
0.015
0.035
0.035
0.015
-0.005
-0.005
0.005
0.03
0.035
0.02
-0.005
-0.01
-0.005
0.005
0.01
0.02
0.0
0.005
0.02
0.01
0.015
0.005
-0.02
0.0
0.015
0.03
0.025
0.01
-0.005
0.0
0.01
0.015
0.035
0.03
0.02
0.04
0.045
0.06
0.065
0.065
0.045
0.05
0.075
0.09
0.085
0.085
0.07
0.07
0.07
0.075
0.075
0.06
0.05
0.055
0.05
0.065
0.08
0.065
0.065
0.06
0.06
0.065
0.065
0.055
0.06
0.06
0.06
0.06
0.055
0.04
0.015
0.03
0.02
0.03
0.025
0.025
0.015
0.025
0.02
0.025
0.025
0.025
0.02
0.02
0.035
0.05
0.045
0.035
0.025
0.01
0.035
0.03
0.035
0.03
0.02
0.04
0.04
0.055
0.045
0.04
0.035
0.025
0.05
0.06
0.065
0.07
0.075
0.1
0.145
0.2
0.24
0.275
0.29
0.315
0.385
0.455
0.555
0.655
0.765
0.88
1.04
1.175
1.31
1.48
1.66
1.825
1.9
1.86
1.66
1.3
0.85
0.5
0.26
0.125
0.055
0.03
0.025
0.02
0.035
0.035
0.03
0.025
-0.005
-0.02
-0.035
-0.03
-0.035
-0.055
-0.06
-0.07
-0.06
-0.065
-0.06
-0.065
-0.085
-0.09
-0.085
-0.065
-0.065
-0.07
-0.09
-0.09
-0.08
-0.065
-0.07
-0.085
-0.085
-0.095
-0.085
-0.085
-0.075
-0.095
-0.09
-0.09
-0.085
-0.08
-0.08
-0.105
-0.12
-0.105
-0.09
-0.08
-0.085
-0.09
-0.1
-0.1
-0.08
-0.075
-0.085
-0.085
-0.105
-0.105
-0.08
-0.06
-0.075
-0.075
-0.1
-0.11
-0.09
-0.055
-0.05
-0.08
-0.075
-0.085
-0.075
-0.065
-0.06
-0.07
-0.08
-0.07
-0.07
-0.065
-0.05
-0.06
-0.075
-0.065
-0.05
-0.035
-0.035
-0.04
-0.06
-0.06
-0.04
-0.02
-0.015
-0.015
-0.015
-0.02
0.005
0.015
0.015
0.02
0.015
0.02
0.05
0.06
0.085
0.085
0.09
0.1
0.115
0.14
0.145
0.145
0.14
0.145
0.18
0.18
0.185
0.185
0.175
0.17
0.17
0.18
0.165
0.155
0.14
0.115
0.12
0.12
0.12
0.11
0.09
0.08
0.08
0.09
0.085
0.08
0.055
0.065
0.075
0.075
0.065
0.05
0.05
0.05
0.06
0.055
0.055
0.04
0.035
0.035
0.045
0.065
0.045
0.035
0.035
0.035
0.035
0.05
0.05
0.045
0.045
0.04
0.045
0.05
0.05
0.035
0.03
0.03
0.03
0.055
0.04
0.04
0.02
0.02
0.03
0.035
0.06
0.035
0.03
0.035
0.045
0.03
0.04
0.04
0.025
0.02
0.035
0.035
0.04
0.025
0.005
0.02
0.025
0.035
0.035
0.015
0.01
0.0
0.005
0.02
0.03
0.01
0.0
0.005
0.005
0.025
0.02
0.0
-0.01
-0.005
0.0
0.01
0.01
0.005
-0.015
-0.02
-0.015
0.005
0.0
0.0
-0.02
-0.025
-0.015
-0.005
-0.01
-0.015
-0.025
-0.015
-0.01
0.005
0.0
-0.005
-0.025
-0.025
-0.015
-0.005
-0.005
-0.015
-0.03
-0.04
-0.02
-0.01
-0.01
-0.005
-0.025
-0.01
-0.01
-0.005
0.0
-0.01
-0.02
-0.02
-0.015
0.005
0.01
0.0
-0.02
-0.02
-0.02
-0.015
-0.01
-0.01
-0.025
-0.01
-0.005
0.0
0.0
-0.015
-0.02
-0.025
-0.01
0.005
0.01
0.005
-0.01
-0.015
0.0
0.02
0.01
0.015
0.0
0.005
0.015
0.03
0.01
0.005
0.0
-0.015
0.01
0.02
0.02
0.02
-0.01
-0.01
0.015
0.025
0.03
0.025
0.01
0.005
0.015
0.01
0.01
0.0
0.005
-0.005
0.025
0.025
0.03
0.025
0.015
0.015
0.03
0.055
0.045
0.055
0.04
0.05
0.05
0.065
0.07
0.06
0.065
0.07
0.07
0.085
0.08
0.07
0.04
0.04
0.055
0.065
0.055
0.04
0.04
0.035
0.055
0.07
0.075
0.065
0.045
0.04
0.055
0.07
0.075
0.07
0.045
0.035
0.045
0.05
0.03
0.03
0.015
0.02
0.03
0.04
0.045
0.03
0.02
0.02
0.04
0.05
0.04
0.035
0.02
0.025
0.04
0.055
0.055
0.04
0.035
0.04
0.03
0.045
0.045
0.04
0.02
0.045
0.05
0.07
0.06
0.045
0.045
0.05
0.08
0.11
0.12
0.135
0.16
0.22
0.27
0.335
0.36
0.415
0.49
0.615
0.765
0.915
1.05
1.165
1.29
1.465
1.68
1.88
2.0
1.99
1.825
1.515
1.105
0.72
0.415
0.195
0.045
0.005
0.03
0.04
0.05
0.035
0.02
0.015
0.015
0.02
0.0
-0.02
-0.035
-0.05
-0.05
-0.04
-0.045
-0.055
-0.055
-0.07
-0.055
-0.045
-0.05
-0.055
-0.065
-0.08
-0.06
-0.055
-0.05
-0.06
-0.085
-0.075
-0.075
-0.06
-0.075
-0.07
-0.085
-0.09
-0.08
-0.07
-0.065
-0.08
-0.08
-0.09
-0.08
-0.06
-0.07
-0.09
-0.095
-0.09
-0.065
-0.05
-0.065
-0.055
-0.075
-0.07
-0.075
-0.05
-0.05
-0.06
-0.045
-0.055
-0.055
-0.025
-0.04
-0.045
-0.06
-0.05
-0.035
-0.01
-0.02
-0.02
-0.04
-0.02
-0.02
-0.005
-0.005
-0.01
-0.01
-0.005
0.01
0.03
0.025
0.02
0.02
0.02
0.045
0.06
0.075
0.055
0.07
0.075
0.09
0.12
0.135
0.145
0.135
0.155
0.155
0.19
0.215
0.21
0.205
0.225
0.245
0.26
0.26
0.265
0.26
0.25
0.27
0.285
0.275
0.265
0.24
0.255
0.26
0.25
0.245
0.225
0.195
0.2
0.2
0.19
0.19
0.155
0.14
0.135
0.13
0.155
0.14
0.13
0.105
0.105
0.115
0.12
0.13
0.115
0.105
0.1
0.12
0.125
0.12
0.11
0.1
0.1
0.11
0.125
0.11
0.11
0.09
0.09
0.09
0.095
0.09
0.085
0.075
0.09
0.095
0.11
0.1
0.095
0.09
0.075
0.09
0.105
0.085
0.085
0.065
0.075
0.085
0.095
0.095
0.085
0.08
0.085
0.11
0.115
0.115
0.1
0.08
0.085
0.095
0.12
0.125
0.1
0.085
0.08
0.115
0.115
0.13
0.1
0.095
0.095
0.105
0.11
0.105
0.095
0.085
0.08
0.1
0.11
0.12
0.105
0.09
0.09
0.095
0.1
0.085
0.085
0.09
0.085
0.115
0.115
0.1
0.095
0.07
0.075
0.085
0.085
0.085
0.08
0.055
0.07
0.075
0.1
0.1
0.08
0.07
0.045
0.06
0.07
0.065
0.06
0.045
0.06
0.065
0.075
0.07
0.05
0.045
0.04
0.065
0.07
0.06
0.045
0.045
0.035
0.055
0.075
0.065
0.055
0.045
0.04
0.045
0.045
0.05
0.045
0.03
0.04
0.045
0.05
0.035
0.035
0.03
0.035
0.045
0.055
0.055
0.035
0.035
0.03
0.045
0.06
0.06
0.04
0.02
0.03
0.045
0.05
0.06
0.05
0.04
0.025
0.03
0.055
0.045
0.04
0.025
0.04
0.045
0.06
0.055
0.045
0.03
0.04
0.045
0.06
0.06
0.06
0.04
0.055
0.075
0.105
0.105
0.09
0.09
0.09
0.1
0.115
0.105
0.1
0.09
0.095
0.105
0.095
0.07
0.06
0.045
0.06
0.09
0.1
0.1
0.08
0.075
0.065
0.09
0.095
0.1
0.095
0.08
0.075
0.07
0.075
0.055
0.055
0.04
0.045
0.05
0.06
0.07
0.045
0.035
0.035
0.05
0.065
0.055
0.045
0.025
0.025
0.04
0.065
0.06
0.04
0.03
0.05
0.055
0.06
0.05
0.05
0.055
0.04
0.07
0.065
0.07
0.075
0.065
0.08
0.11
0.145
0.155
0.195
0.225
0.275
0.34
0.395
0.46
0.545
0.67
0.81
0.97
1.105
1.225
1.365
1.515
1.72
1.915
1.98
1.895
1.6
1.15
0.71
0.375
0.19
0.1
0.06
0.035
0.04
0.035
0.045
0.035
0.03
-0.005
-0.01
-0.015
-0.02
-0.035
-0.035
-0.065
-0.07
-0.055
-0.05
-0.05
-0.06
-0.075
-0.075
-0.06
-0.055
-0.06
-0.075
-0.085
-0.08
-0.08
-0.065
-0.075
-0.075
-0.095
-0.085
-0.08
-0.06
-0.065
-0.085
-0.09
-0.095
-0.095
-0.075
-0.085
-0.09
-0.095
-0.09
-0.085
-0.065
-0.08
-0.085
-0.11
-0.11
-0.085
-0.07
-0.065
-0.075
-0.095
-0.08
-0.085
-0.065
-0.065
-0.075
-0.08
-0.075
-0.07
-0.065
-0.07
-0.08
-0.085
-0.085
-0.065
-0.05
-0.05
-0.065
-0.065
-0.06
-0.045
-0.02
-0.025
-0.04
-0.035
-0.025
-0.015
0.005
0.0
0.005
0.005
0.005
0.04
0.05
0.065
0.06
0.055
0.08
0.11
0.125
0.14
0.135
0.135
0.14
0.17
0.195
0.205
0.215
0.215
0.215
0.235
0.24
0.235
0.215
0.195
0.2
0.22
0.21
0.195
0.18
0.16
0.155
0.15
0.16
0.145
0.12
0.105
0.105
0.105
0.115
0.11
0.09
0.065
0.075
0.09
0.11
0.095
0.08
0.055
0.065
0.08
0.085
0.085
0.075
0.055
0.055
0.07
0.07
0.07
0.055
0.055
0.05
0.065
0.075
0.07
0.05
0.055
0.055
0.055
0.065
0.075
0.06
0.045
0.03
0.045
0.05
0.05
0.04
0.03
0.03
0.045
0.05
0.045
0.045
0.025
0.03
0.035
0.045
0.05
0.04
0.025
0.03
0.04
0.045
0.04
0.045
0.015
0.03
0.045
0.05
0.05
0.05
0.03
0.035
0.05
0.05
0.04
0.04
0.025
0.015
0.035
0.05
0.05
0.035
0.01
0.025
0.03
0.025
0.03
0.015
0.01
0.01
0.02
0.03
0.02
0.025
0.02
0.01
0.025
0.035
0.025
0.01
-0.005
0.01
0.025
0.04
0.025
0.02
0.0
0.01
0.015
0.035
0.035
0.02
0.005
0.005
0.01
0.04
0.025
0.02
0.03
0.01
0.025
0.035
0.03
0.01
0.01
0.01
0.02
0.04
0.025
0.02
0.015
0.01
0.03
0.035
0.03
0.025
0.01
0.015
0.035
0.04
0.045
0.05
0.025
0.015
0.045
0.055
0.05
0.04
0.015
0.025
0.045
0.055
0.04
0.02
0.02
0.025
0.03
0.05
0.05
0.03
0.03
0.03
0.04
0.055
0.055
0.04
0.05
0.045
0.055
0.065
0.05
0.055
0.05
0.06
0.07
0.095
0.11
0.1
0.08
0.1
0.12
0.135
0.125
0.11
0.115
0.12
0.125
0.13
0.115
0.11
0.09
0.08
0.09
0.105
0.105
0.095
0.085
0.1
0.11
0.12
0.12
0.115
0.11
0.1
0.105
0.125
0.11
0.075
0.065
0.065
0.075
0.09
0.09
0.09
0.07
0.07
0.08
0.095
0.085
0.075
0.075
0.075
0.08
0.09
0.08
0.075
0.075
0.07
0.09
0.09
0.095
0.08
0.07
0.065
0.095
0.105
0.1
0.095
0.085
0.1
0.13
0.175
0.19
0.24
0.275
0.33
0.385
0.45
0.53
0.645
0.77
0.93
1.08
1.225
1.36
1.505
1.675
1.875
2.035
2.09
1.985
1.695
1.275
0.835
0.49
0.28
0.14
0.04
0.035
0.065
0.08
0.09
0.085
0.05
0.025
0.025
0.015
0.02
0.01
-0.01
-0.01
-0.025
-0.01
0.0
0.005
0.005
-0.02
-0.01
-0.01
-0.005
-0.005
-0.02
-0.035
-0.035
-0.015
-0.005
-0.005
-0.015
-0.045
-0.025
-0.025
-0.01
0.005
-0.02
-0.045
-0.04
-0.02
-0.025
-0.015
-0.03
-0.03
-0.03
-0.035
-0.015
-0.01
-0.025
-0.045
-0.035
-0.02
-0.01
-0.005
-0.015
-0.03
-0.02
-0.01
0.005
0.01
0.0
-0.01
-0.005
0.01
0.005
0.02
0.005
0.005
0.01
0.025
0.05
0.055
0.045
0.025
0.045
0.055
0.07
0.08
0.085
0.08
0.08
0.11
0.125
0.135
0.145
0.145
0.145
0.175
0.2
0.205
0.2
0.22
0.24
0.26
0.285
0.295
0.29
0.3
0.315
0.34
0.35
0.35
0.34
0.335
0.34
0.34
0.345
0.325
0.305
0.28
0.28
0.28
0.275
0.255
0.23
0.215
0.215
0.21
0.205
0.195
0.165
0.16
0.15
0.16
0.165
0.145
0.15
0.145
0.125
0.145
0.145
0.14
0.13
0.12
0.125
0.13
0.14
0.14
0.125
0.12
0.11
0.125
0.14
0.125
0.115
0.105
0.105
0.115
0.125
0.12
0.11
0.1
0.105
0.125
0.125
0.12
0.1
0.1
0.095
0.115
0.12
0.11
0.1
0.09
0.09
0.105
0.12
0.115
0.11
0.09
0.09
0.105
0.12
0.115
0.11
0.105
0.095
