Lead II
-0.035
-0.03
-0.06
-0.07
-0.08
-0.085
-0.1
-0.115
-0.115
-0.145
-0.16
-0.18
-0.185
-0.21
-0.225
-0.22
-0.235
-0.245
-0.235
-0.245
-0.26
-0.25
-0.24
-0.24
-0.24
-0.235
-0.24
-0.25
-0.24
-0.25
-0.265
-0.265
-0.275
-0.27
-0.27
-0.255
-0.245
-0.24
-0.25
-0.235
-0.235
-0.245
-0.255
-0.255
-0.285
-0.315
-0.365
-0.425
-0.47
-0.495
-0.44
-0.295
-0.045
0.29
0.655
1.01
1.28
1.42
1.36
1.08
0.65
0.165
-0.2
-0.42
-0.495
-0.5
-0.5
-0.515
-0.57
-0.67
-0.785
-0.885
-0.95
-0.98
-0.975
-0.945
-0.9
-0.825
-0.75
-0.675
-0.58
-0.505
-0.435
-0.375
-0.335
-0.305
-0.29
-0.285
-0.275
-0.27
-0.27
-0.28
-0.275
-0.27
-0.265
-0.26
-0.255
-0.23
-0.225
-0.22
-0.22
-0.225
-0.235
-0.225
-0.225
-0.225
-0.22
-0.21
-0.22
-0.205
-0.205
-0.2
-0.21
-0.195
-0.205
-0.205
-0.2
-0.21
-0.2
-0.175
-0.17
-0.155
-0.16
-0.16
-0.16
-0.165
-0.16
-0.16
-0.16
-0.15
-0.155
-0.125
-0.13
-0.11
-0.1
-0.105
-0.095
-0.095
-0.095
-0.09
-0.085
-0.08
-0.06
-0.06
-0.03
-0.02
-0.02
-0.01
-0.005
-0.005
-0.01
0.0
0.01
0.03
0.055
0.06
0.075
0.105
0.105
0.12
0.135
0.14
0.15
0.15
0.16
0.17
0.19
0.195
0.215
0.225
0.23
0.235
0.25
0.245
0.25
0.255
0.26
0.26
0.27
0.275
0.29
0.31
0.31
0.32
0.305
0.305
0.295
0.295
0.28
0.275
0.26
0.265
0.255
0.245
0.225
0.205
0.19
0.17
0.145
0.115
0.105
0.09
0.07
0.06
0.045
0.03
0.005
-0.01
-0.035
-0.05
-0.07
-0.095
-0.105
-0.115
-0.13
-0.135
-0.135
-0.145
-0.155
-0.16
-0.175
-0.185
-0.195
-0.2
-0.21
-0.21
-0.205
-0.215
-0.205
-0.2
-0.2
-0.205
-0.22
-0.23
-0.235
-0.235
-0.235
-0.23
-0.23
-0.215
-0.205
-0.2
-0.21
-0.205
-0.2
-0.22
-0.225
-0.225
-0.23
-0.23
-0.205
-0.2
-0.2
-0.185
-0.185
-0.195
-0.2
-0.195
-0.2
-0.205
-0.2
-0.21
-0.2
-0.195
-0.195
-0.19
-0.19
-0.19
-0.195
-0.21
-0.21
-0.215
-0.22
-0.22
-0.2
-0.21
-0.215
-0.205
-0.215
-0.21
-0.225
-0.23
-0.23
-0.25
-0.25
-0.25
-0.245
-0.235
-0.23
-0.225
-0.225
-0.23
-0.225
-0.235
-0.255
-0.25
-0.255
-0.25
-0.24
-0.24
-0.235
-0.245
-0.235
-0.24
-0.24
-0.255
-0.255
-0.26
-0.27
-0.265
-0.26
-0.255
-0.245
-0.23
-0.235
-0.235
-0.24
-0.26
-0.25
-0.27
-0.27
-0.27
-0.26
-0.255
-0.24
-0.24
-0.24
-0.25
-0.245
-0.245
-0.255
-0.275
-0.27
-0.27
-0.28
-0.265
-0.27
-0.255
-0.25
-0.245
-0.245
-0.255
-0.255
-0.26
-0.275
-0.275
-0.265
-0.255
-0.26
-0.26
-0.26
-0.255
-0.255
-0.25
-0.25
-0.245
-0.235
-0.24
-0.22
-0.205
-0.2
-0.195
-0.18
-0.18
-0.18
-0.175
-0.16
-0.15
-0.14
-0.125
-0.1
-0.095
-0.065
-0.055
-0.085
-0.08
-0.095
-0.12
-0.14
-0.14
-0.16
-0.17
-0.165
-0.185
-0.19
-0.22
-0.23
-0.24
-0.255
-0.26
-0.275
-0.28
-0.27
-0.28
-0.27
-0.28
-0.27
-0.265
-0.28
-0.28
-0.275
-0.28
-0.29
-0.295
-0.295
-0.3
-0.295
-0.28
-0.28
-0.27
-0.27
-0.275
-0.275
-0.285
-0.28
-0.305
-0.335
-0.4
-0.475
-0.515
-0.52
-0.415
-0.205
0.105
0.485
0.86
1.2
1.375
1.34
1.045
0.605
0.11
-0.26
-0.48
-0.56
-0.55
-0.535
-0.545
-0.6
-0.705
-0.815
-0.92
-0.985
-1.02
-1.0
-0.96
-0.915
-0.815
-0.745
-0.67
-0.59
-0.51
-0.445
-0.395
-0.36
-0.34
-0.33
-0.31
-0.305
-0.3
-0.285
-0.295
-0.295
-0.295
-0.29
-0.285
-0.28
-0.275
-0.255
-0.26
-0.255
-0.245
-0.255
-0.26
-0.265
-0.265
-0.26
-0.25
-0.255
-0.255
-0.235
-0.235
-0.23
-0.22
-0.23
-0.23
-0.23
-0.235
-0.235
-0.225
-0.22
-0.215
-0.205
-0.19
-0.185
-0.185
-0.18
-0.19
-0.175
-0.175
-0.165
-0.185
-0.17
-0.155
-0.13
-0.125
-0.105
-0.115
-0.115
-0.11
-0.105
-0.105
-0.105
-0.085
-0.08
-0.065
-0.06
-0.045
-0.035
-0.03
-0.03
-0.045
-0.04
-0.035
-0.01
-0.005
0.01
0.035
0.065
0.085
0.085
0.105
0.11
0.105
0.115
0.13
0.135
0.15
0.16
0.175
0.195
0.2
0.195
0.21
0.205
0.2
0.205
0.2
0.21
0.21
0.225
0.24
0.245
0.26
0.265
0.265
0.26
0.25
0.245
0.235
0.24
0.22
0.21
0.195
0.175
0.17
0.15
0.155
0.13
0.095
0.075
0.05
0.025
0.015
0.005
-0.02
-0.03
-0.06
-0.065
-0.095
-0.105
-0.115
-0.125
-0.155
-0.17
-0.18
-0.18
-0.2
-0.205
-0.2
-0.215
-0.2
-0.205
-0.22
-0.23
-0.24
-0.24
-0.245
-0.25
-0.24
-0.235
-0.235
-0.235
-0.24
-0.245
-0.25
-0.245
-0.25
-0.255
-0.225
-0.215
-0.21
-0.2
-0.21
-0.215
-0.23
-0.24
-0.245
-0.24
-0.235
-0.22
-0.21
-0.2
-0.195
-0.195
-0.19
-0.2
-0.205
-0.215
-0.23
-0.24
-0.235
-0.245
-0.245
-0.235
-0.225
-0.215
-0.215
-0.225
-0.23
-0.23
-0.235
-0.245
-0.265
-0.265
-0.27
-0.25
-0.255
-0.25
-0.245
-0.235
-0.23
-0.225
-0.25
-0.26
-0.27
-0.275
-0.27
-0.265
-0.26
-0.255
-0.255
-0.27
-0.28
-0.28
-0.28
-0.28
-0.275
-0.275
-0.28
-0.28
-0.3
-0.3
-0.29
-0.29
-0.28
-0.27
-0.26
-0.26
-0.27
-0.29
-0.29
-0.285
-0.295
-0.295
-0.285
-0.275
-0.28
-0.28
-0.29
-0.29
-0.31
-0.32
-0.315
-0.305
-0.295
-0.29
-0.27
-0.28
-0.27
-0.285
-0.295
-0.295
-0.31
-0.285
-0.265
-0.245
-0.22
-0.21
-0.19
-0.19
-0.18
-0.18
-0.19
-0.195
-0.2
-0.19
-0.185
-0.16
-0.135
-0.125
-0.09
-0.1
-0.105
-0.115
-0.14
-0.155
-0.175
-0.19
-0.19
-0.2
-0.22
-0.23
-0.25
-0.26
-0.275
-0.285
-0.305
-0.315
-0.325
-0.33
-0.34
-0.325
-0.315
-0.305
-0.3
-0.295
-0.305
-0.31
-0.315
-0.325
-0.335
-0.34
-0.335
-0.32
-0.31
-0.325
-0.315
-0.32
-0.32
-0.325
-0.33
-0.33
-0.335
-0.34
-0.34
-0.355
-0.385
-0.445
-0.5
-0.535
-0.5
-0.37
-0.14
0.16
0.515
0.86
1.16
1.33
1.285
1.015
0.565
0.065
-0.35
-0.58
-0.66
-0.66
-0.62
-0.6
-0.64
-0.71
-0.805
-0.9
-0.955
-0.975
-0.99
-0.98
-0.955
-0.91
-0.845
-0.78
-0.705
-0.635
-0.55
-0.49
-0.435
-0.39
-0.36
-0.34
-0.35
-0.335
-0.335
-0.33
-0.325
-0.305
-0.31
-0.3
-0.28
-0.265
-0.27
-0.26
-0.28
-0.275
-0.275
-0.275
-0.265
-0.265
-0.26
-0.255
-0.26
-0.26
-0.26
-0.27
-0.275
-0.265
-0.26
-0.25
-0.24
-0.225
-0.22
-0.22
-0.21
-0.21
-0.21
-0.21
-0.21
-0.215
-0.215
-0.225
-0.21
-0.205
-0.195
-0.18
-0.16
-0.16
-0.15
-0.16
-0.155
-0.155
-0.155
-0.15
-0.135
-0.12
-0.11
-0.085
-0.075
-0.07
-0.06
-0.055
-0.06
-0.05
-0.065
-0.06
-0.055
-0.045
-0.01
-0.005
0.03
0.03
0.045
0.06
0.065
0.075
0.075
0.075
0.07
0.08
0.1
0.115
0.135
0.15
0.16
0.155
0.155
0.16
0.155
0.155
0.16
0.175
0.195
0.205
0.225
0.235
0.24
0.235
0.22
0.21
0.185
0.16
0.14
0.12
0.125
0.13
0.145
0.135
0.11
0.095
0.07
0.035
0.02
-0.005
-0.01
-0.02
-0.035
-0.06
-0.07
-0.095
-0.115
-0.125
-0.15
-0.16
-0.18
-0.19
-0.21
-0.205
-0.205
-0.21
-0.19
-0.205
-0.21
-0.22
-0.225
-0.235
-0.245
-0.245
-0.245
-0.25
-0.245
-0.24
-0.23
-0.24
-0.225
-0.225
-0.22
-0.215
-0.23
-0.225
-0.23
-0.225
-0.21
-0.215
-0.21
-0.2
-0.195
-0.2
-0.185
-0.205
-0.2
-0.195
-0.21
-0.21
-0.19
-0.195
-0.195
-0.18
-0.19
-0.195
-0.205
-0.21
-0.205
-0.215
-0.225
-0.22
-0.215
-0.215
-0.22
-0.22
-0.225
-0.23
-0.235
-0.245
-0.25
-0.25
-0.265
-0.26
-0.25
-0.255
-0.255
-0.255
-0.25
-0.27
-0.265
-0.265
-0.265
-0.275
-0.27
-0.28
-0.265
-0.275
-0.27
-0.285
-0.28
-0.27
-0.29
-0.3
-0.29
-0.29
-0.29
-0.295
-0.28
-0.29
-0.28
-0.27
-0.28
-0.27
-0.28
-0.285
-0.295
-0.295
-0.295
-0.295
-0.28
-0.275
-0.275
-0.265
-0.27
-0.265
-0.265
-0.26
-0.27
-0.265
-0.24
-0.23
-0.215
-0.2
-0.185
-0.185
-0.17
-0.16
-0.145
-0.13
-0.13
-0.13
-0.12
-0.125
-0.135
-0.135
-0.14
-0.16
-0.165
-0.185
-0.19
-0.21
-0.23
-0.25
-0.27
-0.29
-0.305
-0.305
-0.295
-0.295
-0.295
-0.31
-0.32
-0.32
-0.335
-0.335
-0.34
-0.34
-0.325
-0.32
-0.315
-0.33
-0.325
-0.325
-0.32
-0.315
-0.32
-0.33
-0.34
-0.33
-0.325
-0.33
-0.34
-0.355
-0.39
-0.455
-0.53
-0.57
-0.52
-0.36
-0.08
0.29
0.69
1.05
1.295
1.3
1.07
0.63
0.14
-0.26
-0.515
-0.605
-0.615
-0.605
-0.61
-0.655
-0.735
-0.83
-0.925
-0.985
-1.02
-1.015
-0.975
-0.925
-0.855
-0.765
-0.675
-0.61
-0.52
-0.46
-0.41
-0.385
-0.36
-0.36
-0.365
-0.36
-0.35
-0.33
-0.32
-0.315
-0.3
-0.295
-0.29
-0.295
-0.295
-0.29
-0.3
-0.3
-0.3
-0.29
-0.275
-0.27
-0.27
-0.27
-0.27
-0.265
-0.27
-0.275
-0.28
-0.29
-0.275
-0.275
-0.265
-0.255
-0.25
-0.24
-0.25
-0.24
-0.255
-0.25
-0.255
-0.25
-0.25
-0.24
-0.225
-0.22
-0.2
-0.195
-0.195
-0.19
-0.2
-0.2
-0.2
-0.195
-0.18
-0.17
-0.155
-0.155
-0.145
-0.135
-0.125
-0.13
-0.125
-0.11
-0.105
-0.105
-0.1
-0.085
-0.07
-0.055
-0.035
-0.025
-0.025
-0.02
-0.005
0.0
0.005
0.005
0.02
0.03
0.045
0.055
0.08
0.09
0.1
0.105
0.1
0.105
0.105
0.11
0.11
0.115
0.13
0.125
0.15
0.15
0.155
0.16
0.16
0.155
0.15
0.16
0.155
0.155
0.15
0.15
0.15
0.14
0.125
0.11
0.095
0.075
0.045
0.025
0.01
0.0
-0.01
-0.02
-0.035
-0.05
-0.07
-0.085
-0.105
-0.14
-0.15
-0.165
-0.18
-0.195
-0.205
-0.21
-0.22
-0.23
-0.245
-0.26
-0.275
-0.285
-0.29
-0.295
-0.3
-0.305
-0.29
-0.305
-0.3
-0.295
-0.3
-0.29
-0.3
-0.295
-0.31
-0.305
-0.31
-0.31
-0.3
-0.285
-0.29
-0.305
-0.29
-0.29
-0.295
-0.285
-0.295
-0.29
-0.28
-0.265
-0.26
-0.25
-0.25
-0.245
-0.24
-0.24
-0.255
-0.255
-0.26
-0.265
-0.265
-0.27
-0.275
-0.26
-0.25
-0.25
-0.265
-0.265
-0.28
-0.28
-0.29
-0.295
-0.3
-0.295
-0.305
-0.295
-0.29
-0.29
-0.295
-0.295
-0.31
-0.31
-0.32
-0.33
-0.33
-0.33
-0.32
-0.31
-0.31
-0.31
-0.32
-0.325
-0.33
-0.335
-0.335
-0.345
-0.335
-0.34
-0.33
-0.325
-0.325
-0.325
-0.33
-0.33
-0.33
-0.335
-0.345
-0.355
-0.35
-0.35
-0.345
-0.345
-0.34
-0.345
-0.335
-0.335
-0.345
-0.345
-0.34
-0.345
-0.35
-0.35
-0.345
-0.335
-0.33
-0.335
-0.335
-0.34
-0.335
-0.345
-0.345
-0.345
-0.345
-0.34
-0.34
-0.32
-0.32
-0.325
-0.315
-0.32
-0.325
-0.345
-0.335
-0.33
-0.34
-0.335
-0.32
-0.315
-0.295
-0.285
-0.27
-0.27
-0.265
-0.27
-0.265
-0.27
-0.265
-0.26
-0.235
-0.225
-0.195
-0.175
-0.17
-0.155
-0.155
-0.165
-0.165
-0.19
-0.2
-0.21
-0.215
-0.225
-0.215
-0.22
-0.24
-0.25
-0.28
-0.28
-0.31
-0.325
-0.345
-0.35
-0.355
-0.355
-0.35
-0.35
-0.34
-0.345
-0.365
-0.385
-0.375
-0.38
-0.38
-0.38
-0.375
-0.365
-0.37
-0.365
-0.375
-0.365
-0.385
-0.375
-0.39
-0.385
-0.395
-0.395
-0.385
-0.365
-0.36
-0.355
-0.37
-0.385
-0.42
-0.48
-0.54
-0.6
-0.61
-0.555
-0.405
-0.16
0.15
0.495
0.815
1.1
1.265
1.26
1.055
0.655
0.185
-0.22
-0.485
-0.585
-0.585
-0.565
-0.58
-0.605
-0.68
-0.8
-0.93
-1.0
-1.055
-1.09
-1.065
-1.015
-0.96
-0.895
-0.815
-0.735
-0.65
-0.595
-0.535
-0.485
-0.445
-0.42
-0.4
-0.385
-0.365
-0.355
-0.35
-0.35
-0.345
-0.35
-0.35
-0.35
-0.35
-0.345
-0.32
-0.32
-0.31
-0.31
-0.295
-0.3
-0.31
-0.315
-0.315
-0.32
-0.31
-0.315
-0.295
-0.29
-0.27
-0.275
-0.28
-0.29
-0.275
-0.285
-0.28
-0.285
-0.285
-0.28
-0.28
-0.265
-0.255
-0.245
-0.23
-0.23
-0.235
-0.24
-0.24
-0.235
-0.225
-0.22
-0.205
-0.19
-0.175
-0.17
-0.16
-0.155
-0.16
-0.155
-0.15
-0.155
-0.145
-0.14
-0.125
-0.11
-0.105
-0.1
-0.08
-0.075
-0.07
-0.075
-0.055
-0.04
-0.03
-0.005
0.015
0.04
0.055
0.07
0.085
0.1
0.095
0.095
0.105
0.115
0.135
0.155
0.16
0.18
0.195
0.185
0.19
0.195
0.2
0.2
0.195
0.195
0.205
0.21
0.22
0.225
0.23
0.22
0.215
0.205
0.2
0.19
0.16
0.125
0.115
0.085
0.075
0.045
0.04
0.025
0.005
-0.01
-0.04
-0.055
-0.075
-0.1
-0.12
-0.125
-0.14
-0.16
-0.17
-0.175
-0.2
-0.225
-0.22
-0.235
-0.245
-0.26
-0.265
-0.265
-0.26
-0.255
-0.245
-0.26
-0.26
-0.26
-0.265
-0.275
-0.285
-0.28
-0.27
-0.265
-0.25
-0.255
-0.25
-0.25
-0.26
-0.27
-0.29
-0.285
-0.28
-0.285
-0.27
-0.265
-0.25
-0.25
-0.235
-0.24
-0.255
-0.26
-0.265
-0.275
-0.265
-0.26
-0.265
-0.255
-0.235
-0.245
-0.24
-0.23
-0.245
-0.25
-0.26
-0.25
-0.26
-0.28
-0.265
-0.27
-0.265
-0.26
-0.255
-0.25
-0.255
-0.26
-0.275
-0.295
-0.29
-0.305
-0.31
-0.31
-0.315
-0.305
-0.295
-0.28
-0.28
-0.27
-0.285
-0.29
-0.305
-0.335
-0.32
-0.32
-0.315
-0.305
-0.3
-0.295
-0.305
-0.305
-0.315
-0.325
-0.335
-0.34
-0.33
-0.32
-0.305
-0.295
-0.305
-0.3
-0.325
-0.33
-0.32
-0.33
-0.34
-0.345
-0.35
-0.345
-0.34
-0.34
-0.325
-0.325
-0.31
-0.3
-0.29
-0.305
-0.335
-0.35
-0.355
-0.35
-0.335
-0.325
-0.32
-0.305
-0.31
-0.305
-0.315
-0.325
-0.325
-0.33
-0.335
-0.345
-0.335
-0.335
-0.315
-0.315
-0.32
-0.32
-0.31
-0.32
-0.32
-0.32
-0.31
-0.305
-0.28
-0.28
-0.27
-0.27
-0.255
-0.25
-0.25
-0.23
-0.245
-0.24
-0.235
-0.225
-0.215
-0.19
-0.17
-0.15
-0.14
-0.14
-0.14
-0.15
-0.185
-0.2
-0.21
-0.21
-0.22
-0.235
-0.245
-0.255
-0.265
-0.285
-0.305
-0.325
-0.34
-0.35
-0.345
-0.355
-0.345
-0.335
-0.335
-0.32
-0.32
-0.325
-0.34
-0.345
-0.345
-0.36
-0.36
-0.36
-0.34
-0.35
-0.34
-0.325
-0.33
-0.32
-0.32
-0.33
-0.33
-0.33
-0.355
-0.375
-0.41
-0.465
-0.525
-0.56
-0.525
-0.385
-0.145
0.19
0.55
0.915
1.19
1.305
1.17
0.78
0.28
-0.185
-0.52
-0.685
-0.72
-0.685
-0.65
-0.66
-0.72
-0.81
-0.9
-0.965
-1.01
-1.02
-1.0
-0.965
-0.905
-0.85
-0.76
-0.68
-0.61
-0.535
-0.47
-0.425
-0.385
-0.355
-0.33
-0.315
-0.31
-0.31
-0.33
-0.33
-0.335
-0.335
-0.33
-0.315
-0.3
-0.285
-0.28
-0.28
-0.27
-0.28
-0.29
-0.295
-0.295
-0.305
-0.285
-0.28
-0.26
-0.26
-0.25
-0.225
-0.235
-0.245
-0.26
-0.27
-0.275
-0.27
-0.26
-0.255
-0.25
-0.205
-0.2
-0.195
-0.22
-0.22
-0.245
-0.235
-0.22
-0.225
-0.21
-0.2
-0.195
-0.19
-0.18
-0.15
-0.16
-0.15
-0.15
-0.15
-0.135
-0.13
-0.125
-0.12
-0.125
-0.115
-0.105
-0.09
-0.065
-0.065
-0.06
-0.04
-0.03
-0.035
-0.025
-0.025
-0.005
0.01
0.02
0.05
0.04
0.055
0.05
0.04
0.055
0.07
0.09
0.105
0.12
0.135
0.14
0.14
0.145
0.145
0.135
0.13
0.145
0.16
0.16
0.165
0.16
0.155
0.15
0.165
0.155
0.15
0.135
0.115
0.095
0.085
0.09
0.07
0.065
0.06
0.04
0.01
-0.01
-0.03
-0.06
-0.08
-0.105
-0.12
-0.13
-0.135
-0.16
-0.16
-0.175
-0.19
-0.2
-0.21
-0.22
-0.23
-0.235
-0.245
-0.235
-0.245
-0.24
-0.245
-0.25
-0.26
-0.26
-0.27
-0.275
-0.28
-0.27
-0.27
-0.265
-0.27
-0.24
-0.24
-0.24
-0.235
-0.24
-0.235
-0.24
-0.245
-0.24
-0.24
-0.25
-0.245
-0.22
-0.22
-0.215
-0.205
-0.21
-0.23
-0.23
-0.235
-0.24
-0.23
-0.23
-0.23
-0.23
-0.24
-0.235
-0.23
-0.24
-0.235
-0.25
-0.26
-0.265
-0.255
-0.25
-0.27
-0.255
-0.265
-0.25
-0.255
-0.265
-0.27
-0.275
-0.275
-0.275
-0.275
-0.28
-0.27
-0.285
-0.28
-0.27
-0.265
-0.29
-0.3
-0.3
-0.305
-0.305
-0.3
-0.3
-0.295
-0.29
-0.29
-0.29
-0.28
-0.295
-0.305
-0.305
-0.315
-0.315
-0.305
-0.305
-0.295
-0.29
-0.295
-0.3
-0.3
-0.305
-0.305
-0.315
-0.33
-0.325
-0.325
-0.315
-0.315
-0.305
-0.295
-0.31
-0.32
-0.31
-0.32
-0.32
-0.32
-0.31
-0.31
-0.3
-0.305
-0.29
-0.3
-0.295
-0.285
-0.285
-0.285
-0.28
-0.27
-0.27
-0.26
-0.25
-0.25
-0.235
-0.22
-0.225
-0.215
-0.205
-0.195
-0.19
-0.18
-0.175
-0.16
-0.15
-0.155
-0.16
-0.175
-0.18
-0.19
-0.2
-0.215
-0.225
-0.245
-0.27
-0.27
-0.29
-0.305
-0.305
-0.31
-0.315
-0.32
-0.335
-0.34
-0.34
-0.35
-0.35
-0.365
-0.35
-0.34
-0.35
-0.34
-0.34
-0.335
-0.34
-0.345
-0.35
-0.355
-0.35
-0.355
-0.355
-0.35
-0.345
-0.33
-0.345
-0.34
-0.345
-0.355
-0.365
-0.395
-0.42
-0.475
-0.535
-0.59
-0.59
-0.515
-0.335
-0.08
0.245
0.605
0.92
1.19
1.295
1.205
0.895
0.435
-0.01
-0.33
-0.51
-0.58
-0.58
-0.58
-0.6
-0.655
-0.755
-0.86
-0.955
-1.025
-1.045
-1.04
-1.025
-0.99
-0.935
-0.88
-0.81
-0.75
-0.66
-0.58
-0.525
-0.47
-0.425
-0.385
-0.38
-0.385
-0.38
-0.375
-0.36
-0.365
-0.35
-0.35
-0.345
-0.34
-0.325
-0.32
-0.315
-0.31
-0.32
-0.325
-0.335
-0.33
-0.325
-0.325
-0.32
-0.31
-0.295
-0.29
-0.29
-0.3
-0.3
-0.29
-0.29
-0.3
-0.29
-0.295
-0.29
-0.285
-0.28
-0.27
-0.265
-0.255
-0.25
-0.255
-0.255
-0.26
-0.255
-0.245
-0.245
-0.23
-0.225
-0.205
-0.22
-0.205
-0.215
-0.215
-0.205
-0.21
-0.2
-0.19
-0.185
-0.17
-0.155
-0.15
-0.145
-0.14
-0.135
-0.135
-0.125
-0.13
-0.12
-0.105
-0.085
-0.08
-0.065
-0.055
-0.045
-0.045
-0.035
-0.025
-0.02
-0.01
0.0
0.005
0.025
0.055
0.075
0.095
0.09
0.1
0.1
0.105
0.11
0.11
0.115
0.125
0.15
0.15
0.155
0.175
0.175
0.185
0.185
0.175
0.175
0.17
0.17
0.17
0.18
0.175
0.17
0.175
0.17
0.155
0.135
0.13
0.095
0.08
0.07
0.055
0.04
0.035
0.015
0.0
-0.015
-0.05
-0.065
-0.1
-0.11
-0.125
-0.15
-0.165
-0.17
-0.18
-0.19
-0.2
-0.205
-0.225
-0.235
-0.255
-0.265
-0.285
-0.28
-0.29
-0.295
-0.28
-0.275
-0.27
-0.285
-0.285
-0.28
-0.3
-0.32
-0.305
-0.3
-0.305
-0.28
-0.27
-0.27
-0.26
-0.26
-0.26
-0.26
-0.265
-0.275
-0.28
-0.28
-0.275
-0.265
-0.25
-0.25
-0.25
-0.245
-0.24
-0.25
-0.255
-0.255
-0.26
-0.265
-0.265
-0.26
-0.27
-0.26
-0.26
-0.245
-0.255
-0.26
-0.275
-0.285
-0.285
-0.305
-0.305
-0.29
-0.295
-0.28
-0.28
-0.27
-0.28
-0.285
-0.29
-0.295
-0.3
-0.31
-0.32
-0.31
-0.305
-0.29
-0.305
-0.305
-0.295
-0.3
-0.31
-0.315
-0.32
-0.32
-0.325
-0.325
-0.315
-0.32
-0.315
-0.315
-0.325
-0.32
-0.33
-0.34
-0.335
-0.34
-0.335
-0.33
-0.32
-0.315
-0.31
-0.315
-0.315
-0.335
-0.34
-0.335
-0.335
-0.335
-0.33
-0.33
-0.325
-0.32
-0.315
-0.315
-0.32
-0.32
-0.315
-0.34
-0.34
-0.335
-0.33
-0.33
-0.32
-0.305
-0.305
-0.31
-0.31
-0.315
-0.325
-0.32
-0.32
-0.325
-0.315
-0.315
-0.33
-0.33
-0.3
-0.3
-0.305
-0.3
-0.31
-0.305
-0.31
-0.315
-0.31
-0.3
-0.3
-0.295
-0.295
-0.295
-0.3
-0.305
-0.3
-0.305
-0.31
-0.315
-0.305
-0.3
-0.29
-0.29
-0.27
-0.265
-0.245
-0.24
-0.235
-0.24
-0.235
-0.245
-0.235
-0.235
-0.22
-0.205
-0.185
-0.17
-0.155
-0.135
-0.13
-0.145
-0.145
-0.16
-0.165
-0.175
-0.18
-0.185
-0.19
-0.195
-0.21
-0.23
-0.25
-0.275
-0.295
-0.3
-0.31
-0.325
-0.325
-0.32
-0.325
-0.32
-0.33
-0.33
-0.345
-0.335
-0.345
-0.34
-0.34
-0.35
-0.34
-0.33
-0.33
-0.32
-0.32
-0.34
-0.335
-0.345
-0.36
-0.365
-0.355
-0.335
-0.335
-0.335
-0.335
-0.355
-0.395
-0.46
-0.525
-0.585
-0.58
-0.48
-0.275
0.035
0.41
0.8
1.145
1.325
1.33
1.06
0.615
0.125
-0.275
-0.515
-0.61
-0.625
-0.605
-0.62
-0.66
-0.765
-0.88
-0.985
-1.045
-1.08
-1.075
-1.03
-0.955
-0.855
-0.775
-0.68
-0.595
-0.525
-0.47
-0.43
-0.4
-0.395
-0.385
-0.375
-0.37
-0.365
-0.35
-0.335
-0.32
-0.33
-0.325
-0.33
-0.32
-0.325
-0.33
-0.32
-0.325
-0.31
-0.305
-0.295
-0.28
-0.29
-0.29
-0.29
-0.295
-0.285
-0.305
-0.285
-0.285
-0.285
-0.275
-0.26
-0.26
-0.26
-0.245
-0.255
-0.245
-0.245
-0.245
-0.245
-0.23
-0.225
-0.215
-0.23
-0.205
-0.205
-0.205
-0.2
-0.175
-0.17
-0.17
-0.17
-0.16
-0.145
-0.135
-0.115
-0.11
-0.11
-0.11
-0.085
-0.085
-0.08
-0.065
-0.07
-0.055
-0.035
-0.01
0.01
0.015
0.04
0.055
0.06
0.06
0.07
0.075
0.07
0.085
0.095
0.14
0.145
0.16
0.165
0.165
0.16
0.17
0.18
0.18
0.175
0.175
0.185
0.205
0.215
0.225
0.22
0.21
0.21
0.19
0.17
0.16
0.155
0.145
0.145
0.145
0.145
0.125
0.1
0.085
0.07
0.05
0.015
-0.005
-0.025
-0.05
-0.07
-0.085
-0.1
-0.105
-0.125
-0.115
-0.14
-0.17
-0.175
-0.19
-0.195
-0.215
-0.2
-0.22
-0.21
-0.205
-0.21
-0.22
-0.23
-0.25
-0.255
-0.27
-0.28
-0.285
-0.265
-0.265
-0.265
-0.26
-0.27
-0.265
-0.265
-0.275
-0.285
-0.285
-0.275
-0.28
-0.265
-0.265
-0.245
-0.245
-0.26
-0.24
-0.26
-0.255
-0.26
-0.26
-0.255
-0.255
-0.25
-0.245
-0.25
-0.235
-0.245
-0.245
-0.255
-0.265
-0.285
-0.265
-0.275
-0.275
-0.28
-0.275
-0.265
-0.255
-0.255
-0.265
-0.275
-0.26
-0.28
-0.295
-0.285
-0.29
-0.295
-0.285
-0.285
-0.265
-0.275
-0.275
-0.29
-0.305
-0.315
-0.315
-0.325
-0.32
-0.29
-0.29
-0.275
-0.285
-0.285
-0.285
-0.295
-0.31
-0.305
-0.315
-0.305
-0.305
-0.295
-0.29
-0.29
-0.295
-0.31
-0.29
-0.31
-0.31
-0.32
-0.325
-0.335
-0.32
-0.31
-0.295
-0.295
-0.315
-0.31
-0.315
-0.305
-0.305
-0.315
-0.325
-0.33
-0.33
-0.325
-0.31
-0.295
-0.3
-0.31
-0.305
-0.3
-0.31
-0.315
-0.325
-0.325
-0.325
-0.335
-0.325
-0.33
-0.315
-0.3
-0.305
-0.31
-0.305
-0.305
-0.325
-0.33
-0.33
-0.33
-0.33
-0.325
-0.31
-0.31
-0.31
-0.3
-0.305
-0.305
-0.33
-0.335
-0.33
-0.33
-0.32
-0.295
-0.305
-0.3
-0.295
-0.28
-0.28
-0.27
-0.275
-0.275
-0.275
-0.27
-0.255
-0.245
-0.23
-0.23
-0.22
-0.21
-0.19
-0.16
-0.16
-0.155
-0.16
-0.16
-0.16
-0.165
-0.17
-0.195
-0.205
-0.215
-0.24
-0.25
-0.27
-0.285
-0.295
-0.31
-0.32
-0.34
-0.335
-0.33
-0.325
-0.32
-0.31
-0.325
-0.33
-0.345
-0.35
-0.35
-0.35
-0.33
-0.32
-0.32
-0.315
-0.335
-0.335
-0.35
-0.355
-0.345
-0.345
-0.34
-0.33
-0.325
-0.32
-0.32
-0.315
-0.33
-0.365
-0.4
-0.455
-0.51
-0.56
-0.55
-0.47
-0.28
0.015
0.365
0.725
1.055
1.26
1.315
1.135
0.725
0.225
-0.225
-0.52
-0.64
-0.635
-0.6
-0.565
-0.585
-0.665
-0.76
-0.885
-0.965
-1.04
-1.055
-1.04
-1.005
-0.965
-0.93
-0.875
-0.81
-0.74
-0.68
-0.615
-0.565
-0.525
-0.455
-0.42
-0.385
-0.365
-0.34
-0.345
-0.35
-0.345
-0.345
-0.355
-0.355
-0.335
-0.33
-0.32
-0.31
-0.305
-0.3
-0.295
-0.305
-0.295
-0.315
-0.325
-0.31
-0.305
-0.3
-0.285
-0.28
-0.265
-0.26
-0.275
-0.275
-0.265
-0.27
-0.285
-0.275
-0.265
-0.255
-0.245
-0.245
-0.235
-0.225
-0.23
-0.23
-0.23
-0.225
-0.225
-0.225
-0.205
-0.205
-0.19
-0.185
-0.17
-0.16
-0.16
-0.15
-0.145
-0.15
-0.15
-0.15
-0.135
-0.125
-0.115
-0.09
-0.08
-0.065
-0.065
-0.05
-0.06
-0.04
-0.045
-0.025
-0.03
-0.015
0.01
0.03
0.03
0.045
0.065
0.065
0.06
0.08
0.065
0.08
0.09
0.09
0.105
0.12
0.125
0.13
0.135
0.135
0.145
0.15
0.135
0.15
0.165
0.17
0.17
0.18
0.17
0.16
0.16
0.125
0.12
0.11
0.085
0.07
0.045
0.025
0.015
0.005
-0.02
-0.045
-0.06
-0.085
-0.1
-0.11
-0.14
-0.145
-0.16
-0.175
-0.17
-0.205
-0.195
-0.205
-0.215
-0.23
-0.245
-0.265
-0.255
-0.28
-0.265
-0.255
-0.24
-0.24
-0.235
-0.24
-0.24
-0.24
-0.255
-0.255
-0.265
-0.26
-0.27
-0.26
-0.235
-0.215
-0.205
-0.205
-0.205
-0.21
-0.22
-0.23
-0.23
-0.225
-0.225
-0.215
-0.2
-0.19
-0.18
-0.195
-0.215
-0.21
-0.22
-0.23
-0.24
-0.24
-0.23
-0.225
-0.22
-0.215
-0.22
-0.23
-0.23
-0.24
-0.245
-0.25
-0.255
-0.26
-0.24
-0.245
-0.24
-0.235
-0.23
-0.24
-0.25
-0.25
-0.25
-0.255
-0.27
-0.285
-0.275
-0.27
-0.27
-0.27
-0.27
-0.26
-0.27
-0.28
-0.275
-0.275
-0.285
-0.28
-0.28
-0.27
-0.28
-0.27
-0.265
-0.27
-0.285
-0.29
-0.3
-0.29
-0.29
-0.31
-0.3
-0.3
-0.3
-0.3
-0.29
-0.295
-0.29
-0.295
-0.295
-0.285
-0.3
-0.295
-0.315
-0.305
-0.31
-0.31
-0.285
-0.29
-0.29
-0.3
-0.31
-0.305
-0.31
-0.315
-0.31
-0.325
-0.315
-0.305
-0.305
-0.305
-0.3
-0.315
-0.29
-0.31
-0.315
-0.315
-0.315
-0.3
-0.29
-0.285
-0.275
-0.275
-0.275
-0.26
-0.27
-0.265
-0.27
-0.255
-0.245
-0.23
-0.23
-0.215
-0.21
-0.2
-0.19
-0.165
-0.155
-0.145
-0.145
-0.14
-0.15
-0.14
-0.17
-0.18
-0.175
-0.195
-0.195
-0.21
-0.23
-0.24
-0.26
-0.27
-0.3
-0.29
-0.3
-0.3
-0.31
-0.315
-0.31
-0.325
-0.33
-0.345
-0.35
-0.345
-0.355
-0.345
-0.345
-0.36
-0.335
-0.33
-0.33
-0.345
-0.34
-0.35
-0.365
-0.37
-0.37
-0.365
-0.365
-0.34
-0.335
-0.355
-0.37
-0.405
-0.455
-0.52
-0.585
-0.6
-0.52
-0.34
-0.055
0.305
0.695
1.035
1.275
1.305
1.115
0.73
0.23
-0.2
-0.485
-0.61
-0.635
-0.605
-0.585
-0.62
-0.695
-0.805
-0.91
-0.995
-1.05
-1.075
-1.055
-1.02
-0.97
-0.91
-0.835
-0.75
-0.68
-0.61
-0.535
-0.495
-0.46
-0.43
-0.415
-0.405
-0.38
-0.355
-0.345
-0.345
-0.34
-0.34
-0.34
-0.33
-0.335
-0.325
-0.35
-0.32
-0.315
-0.3
-0.315
-0.31
-0.295
-0.3
-0.3
-0.305
-0.3
-0.315
-0.3
-0.305
-0.305
-0.285
-0.27
-0.275
-0.28
-0.275
-0.275
-0.285
-0.285
-0.285
-0.275
-0.27
-0.265
-0.25
-0.24
-0.23
-0.23
-0.225
-0.225
-0.225
-0.23
-0.235
-0.22
-0.215
-0.2
-0.19
-0.18
-0.18
-0.175
-0.17
-0.18
-0.175
-0.18
-0.18
-0.17
-0.16
-0.14
-0.12
-0.11
-0.1
-0.1
-0.1
-0.1
-0.095
-0.09
-0.07
-0.07
-0.04
-0.035
-0.025
-0.015
0.0
0.005
0.015
0.025
0.025
0.025
0.04
0.045
0.065
0.065
0.085
0.09
0.1
0.11
0.115
0.125
0.125
0.115
0.125
0.13
0.135
0.14
0.14
0.165
0.16
0.165
0.15
0.135
0.15
0.12
0.125
0.105
0.1
0.095
0.07
0.075
0.045
0.045
0.025
-0.005
-0.035
-0.045
-0.075
-0.085
-0.11
-0.12
-0.12
-0.13
-0.15
-0.165
-0.19
-0.2
-0.205
-0.23
-0.23
-0.25
-0.255
-0.26
-0.26
-0.27
-0.255
-0.275
-0.285
-0.285
-0.285
-0.305
-0.305
-0.31
-0.3
-0.295
-0.285
-0.29
-0.29
-0.28
-0.28
-0.275
-0.285
-0.305
-0.295
-0.315
-0.295
-0.29
-0.27
-0.25
-0.26
-0.25
-0.25
-0.255
-0.28
-0.265
-0.26
-0.265
-0.26
-0.26
-0.24
-0.235
-0.24
-0.25
-0.26
-0.255
-0.255
-0.27
-0.275
-0.27
-0.26
-0.27
-0.27
-0.255
-0.26
-0.26
-0.27
-0.285
-0.3
-0.305
-0.305
-0.32
-0.32
-0.305
-0.31
-0.3
-0.295
-0.31
-0.31
-0.31
-0.32
-0.325
-0.33
-0.34
-0.325
-0.33
-0.32
-0.315
-0.315
-0.31
-0.315
-0.335
-0.34
-0.34
-0.35
-0.345
-0.34
-0.335
-0.34
-0.33
-0.325
-0.33
-0.325
-0.34
-0.34
-0.35
-0.345
-0.355
-0.335
-0.35
-0.335
-0.33
-0.33
-0.33
-0.335
-0.33
-0.35
-0.36
-0.36
-0.345
-0.34
-0.335
-0.335
-0.33
-0.335
-0.34
-0.335
-0.345
-0.35
-0.35
-0.36
-0.345
-0.34
-0.35
-0.335
-0.32
-0.325
-0.31
-0.31
-0.305
-0.305
-0.31
-0.305
-0.3
-0.29
