Lead II
-0.535
-0.56
-0.58
-0.595
-0.61
-0.63
-0.64
-0.64
-0.635
-0.62
-0.63
-0.66
-0.715
-0.765
-0.785
-0.795
-0.79
-0.79
-0.815
-0.815
-0.84
-0.85
-0.815
-0.79
-0.725
-0.71
-0.705
-0.73
-0.78
-0.835
-0.88
-0.92
-0.905
-0.875
-0.85
-0.825
-0.815
-0.815
-0.79
-0.785
-0.77
-0.735
-0.715
-0.715
-0.7
-0.68
-0.695
-0.7
-0.735
-0.755
-0.725
-0.72
-0.67
-0.63
-0.605
-0.58
-0.545
-0.525
-0.51
-0.525
-0.54
-0.535
-0.455
-0.375
-0.3
-0.26
-0.215
-0.19
-0.16
-0.135
-0.12
-0.13
-0.14
-0.18
-0.22
-0.235
-0.255
-0.275
-0.295
-0.315
-0.355
-0.4
-0.455
-0.505
-0.55
-0.605
-0.62
-0.62
-0.62
-0.63
-0.65
-0.7
-0.72
-0.75
-0.765
-0.755
-0.77
-0.79
-0.8
-0.8
-0.775
-0.795
-0.805
-0.825
-0.795
-0.78
-0.755
-0.725
-0.685
-0.66
-0.63
-0.59
-0.54
-0.46
-0.345
-0.18
0.015
0.225
0.445
0.635
0.78
0.88
0.94
0.955
0.89
0.76
0.61
0.515
0.465
0.415
0.31
0.135
-0.085
-0.245
-0.295
-0.295
-0.315
-0.38
-0.44
-0.485
-0.5
-0.51
-0.545
-0.6
-0.655
-0.68
-0.69
-0.695
-0.68
-0.66
-0.655
-0.665
-0.66
-0.64
-0.625
-0.625
-0.635
-0.655
-0.64
-0.62
-0.63
-0.63
-0.66
-0.685
-0.695
-0.695
-0.685
-0.685
-0.7
-0.755
-0.775
-0.785
-0.775
-0.755
-0.745
-0.76
-0.76
-0.765
-0.75
-0.755
-0.77
-0.765
-0.77
-0.76
-0.755
-0.745
-0.74
-0.73
-0.735
-0.695
-0.665
-0.645
-0.645
-0.65
-0.63
-0.615
-0.58
-0.565
-0.565
-0.555
-0.535
-0.5
-0.48
-0.46
-0.47
-0.475
-0.465
-0.445
-0.435
-0.425
-0.425
-0.425
-0.44
-0.44
-0.44
-0.45
-0.46
-0.47
-0.48
-0.485
-0.515
-0.525
-0.54
-0.55
-0.545
-0.55
-0.54
-0.55
-0.565
-0.57
-0.555
-0.54
-0.525
-0.505
-0.505
-0.505
-0.5
-0.485
-0.455
-0.435
-0.425
-0.425
-0.425
-0.405
-0.385
-0.38
-0.38
-0.39
-0.395
-0.365
-0.35
-0.345
-0.345
-0.365
-0.365
-0.34
-0.325
-0.335
-0.32
-0.33
-0.335
-0.35
-0.345
-0.35
-0.365
-0.38
-0.38
-0.365
-0.37
-0.365
-0.375
-0.4
-0.415
-0.415
-0.405
-0.4
-0.415
-0.44
-0.425
-0.4
-0.4
-0.425
-0.435
-0.455
-0.445
-0.435
-0.435
-0.44
-0.45
-0.46
-0.44
-0.42
-0.4
-0.4
-0.42
-0.4
-0.39
-0.37
-0.355
-0.36
-0.37
-0.385
-0.375
-0.355
-0.33
-0.33
-0.34
-0.345
-0.34
-0.3
-0.255
-0.25
-0.29
-0.3
-0.33
-0.335
-0.325
-0.35
-0.4
-0.44
-0.48
-0.51
-0.52
-0.53
-0.54
-0.55
-0.545
-0.53
-0.53
-0.535
-0.53
-0.525
-0.5
-0.495
-0.465
-0.435
-0.445
-0.445
-0.45
-0.455
-0.435
-0.395
-0.37
-0.36
-0.36
-0.365
-0.35
-0.345
-0.35
-0.34
-0.34
-0.33
-0.3
-0.26
-0.205
-0.08
0.08
0.285
0.47
0.68
0.86
1.0
1.08
1.14
1.1
0.945
0.765
0.665
0.64
0.6
0.51
0.355
0.19
0.045
0.0
-0.035
-0.09
-0.17
-0.255
-0.31
-0.35
-0.375
-0.4
-0.42
-0.43
-0.43
-0.43
-0.425
-0.43
-0.42
-0.44
-0.44
-0.435
-0.425
-0.39
-0.385
-0.39
-0.395
-0.395
-0.38
-0.375
-0.375
-0.38
-0.37
-0.365
-0.345
-0.32
-0.33
-0.35
-0.365
-0.365
-0.345
-0.355
-0.345
-0.33
-0.295
-0.28
-0.27
-0.26
-0.25
-0.25
-0.26
-0.25
-0.21
-0.17
-0.125
-0.125
-0.12
-0.115
-0.105
-0.115
-0.115
-0.13
-0.12
-0.1
-0.085
-0.065
-0.05
-0.055
-0.06
-0.045
-0.02
0.005
0.01
0.01
0.0
0.0
0.0
0.015
0.015
0.005
0.0
0.015
0.02
0.01
-0.005
-0.015
-0.035
-0.05
-0.07
-0.07
-0.11
-0.145
-0.175
-0.19
-0.18
-0.17
-0.17
-0.19
-0.205
-0.225
-0.23
-0.24
-0.25
-0.265
-0.27
-0.29
-0.29
-0.295
-0.31
-0.305
-0.32
-0.335
-0.355
-0.345
-0.35
-0.35
-0.36
-0.375
-0.38
-0.355
-0.35
-0.36
-0.355
-0.35
-0.35
-0.355
-0.36
-0.375
-0.405
-0.41
-0.4
-0.385
-0.365
-0.365
-0.4
-0.395
-0.41
-0.425
-0.445
-0.47
-0.495
-0.49
-0.465
-0.455
-0.46
-0.495
-0.525
-0.53
-0.51
-0.515
-0.495
-0.5
-0.5
-0.49
-0.47
-0.455
-0.42
-0.4
-0.39
-0.365
-0.365
-0.355
-0.325
-0.285
-0.28
-0.26
-0.23
-0.195
-0.19
-0.185
-0.2
-0.215
-0.22
-0.22
-0.245
-0.28
-0.32
-0.355
-0.41
-0.45
-0.485
-0.495
-0.51
-0.525
-0.525
-0.52
-0.52
-0.515
-0.52
-0.515
-0.505
-0.5
-0.48
-0.475
-0.495
-0.48
-0.48
-0.445
-0.425
-0.44
-0.42
-0.395
-0.365
-0.36
-0.37
-0.38
-0.39
-0.38
-0.34
-0.285
-0.18
-0.02
0.155
0.375
0.59
0.79
0.925
1.015
1.05
1.01
0.89
0.74
0.6
0.475
0.31
0.12
-0.04
-0.085
-0.085
-0.13
-0.225
-0.32
-0.395
-0.42
-0.465
-0.485
-0.49
-0.5
-0.48
-0.495
-0.5
-0.495
-0.49
-0.48
-0.46
-0.45
-0.46
-0.46
-0.47
-0.48
-0.47
-0.45
-0.445
-0.43
-0.425
-0.42
-0.425
-0.42
-0.41
-0.4
-0.415
-0.41
-0.41
-0.415
-0.42
-0.44
-0.455
-0.455
-0.445
-0.45
-0.445
-0.445
-0.45
-0.445
-0.435
-0.42
-0.425
-0.44
-0.435
-0.435
-0.425
-0.41
-0.405
-0.42
-0.43
-0.415
-0.385
-0.345
-0.33
-0.325
-0.32
-0.315
-0.29
-0.26
-0.245
-0.24
-0.24
-0.23
-0.2
-0.18
-0.16
-0.155
-0.17
-0.155
-0.15
-0.135
-0.145
-0.135
-0.15
-0.145
-0.14
-0.14
-0.15
-0.165
-0.175
-0.18
-0.205
-0.215
-0.225
-0.24
-0.235
-0.24
-0.25
-0.25
-0.25
-0.265
-0.275
-0.265
-0.255
-0.27
-0.29
-0.285
-0.295
-0.285
-0.265
-0.27
-0.275
-0.295
-0.305
-0.3
-0.295
-0.275
-0.295
-0.295
-0.3
-0.3
-0.285
-0.27
-0.27
-0.265
-0.285
-0.28
-0.295
-0.29
-0.295
-0.305
-0.285
-0.295
-0.295
-0.285
-0.28
-0.3
-0.305
-0.32
-0.32
-0.31
-0.325
-0.335
-0.345
-0.34
-0.32
-0.3
-0.315
-0.32
-0.335
-0.315
-0.295
-0.275
-0.265
-0.265
-0.285
-0.265
-0.225
-0.18
-0.145
-0.15
-0.165
-0.18
-0.165
-0.135
-0.085
-0.085
-0.07
-0.06
-0.035
0.0
0.005
0.0
-0.03
-0.045
-0.075
-0.06
-0.07
-0.09
-0.13
-0.175
-0.22
-0.265
-0.3
-0.305
-0.34
-0.345
-0.35
-0.34
-0.345
-0.335
-0.325
-0.315
-0.31
-0.315
-0.305
-0.305
-0.31
-0.305
-0.305
-0.285
-0.275
-0.265
-0.27
-0.275
-0.245
-0.25
-0.265
-0.29
-0.285
-0.255
-0.18
-0.055
0.125
0.295
0.445
0.605
0.79
0.965
1.1
1.14
1.1
0.98
0.81
0.675
0.56
0.435
0.25
0.045
-0.08
-0.14
-0.19
-0.285
-0.37
-0.395
-0.38
-0.375
-0.385
-0.425
-0.46
-0.465
-0.45
-0.435
-0.445
-0.455
-0.455
-0.445
-0.415
-0.395
-0.415
-0.435
-0.435
-0.445
-0.435
-0.405
-0.385
-0.385
-0.415
-0.4
-0.405
-0.41
-0.405
-0.39
-0.41
-0.425
-0.425
-0.415
-0.395
-0.385
-0.405
-0.42
-0.435
-0.43
-0.43
-0.415
-0.425
-0.41
-0.4
-0.4
-0.425
-0.46
-0.44
-0.405
-0.405
-0.41
-0.405
-0.395
-0.375
-0.355
-0.34
-0.355
-0.365
-0.36
-0.325
-0.31
-0.3
-0.29
-0.29
-0.285
-0.295
-0.27
-0.245
-0.21
-0.18
-0.175
-0.19
-0.195
-0.195
-0.17
-0.15
-0.16
-0.185
-0.205
-0.21
-0.2
-0.21
-0.23
-0.265
-0.27
-0.25
-0.23
-0.22
-0.245
-0.275
-0.28
-0.27
-0.27
-0.285
-0.285
-0.285
-0.295
-0.31
-0.31
-0.315
-0.305
-0.31
-0.315
-0.31
-0.3
-0.315
-0.315
-0.335
-0.35
-0.36
-0.335
-0.355
-0.385
-0.4
-0.375
-0.355
-0.355
-0.355
-0.38
-0.405
-0.385
-0.37
-0.355
-0.355
-0.385
-0.395
-0.4
-0.4
-0.4
-0.41
-0.42
-0.42
-0.42
-0.41
-0.4
-0.405
-0.42
-0.45
-0.445
-0.435
-0.415
-0.44
-0.465
-0.49
-0.475
-0.455
-0.445
-0.425
-0.4
-0.405
-0.395
-0.38
-0.385
-0.395
-0.395
-0.395
-0.385
-0.35
-0.29
-0.255
-0.27
-0.295
-0.305
-0.285
-0.255
-0.23
-0.25
-0.29
-0.325
-0.34
-0.335
-0.36
-0.385
-0.42
-0.47
-0.545
-0.58
-0.605
-0.63
-0.66
-0.675
-0.685
-0.695
-0.7
-0.7
-0.69
-0.665
-0.64
-0.62
-0.64
-0.675
-0.665
-0.645
-0.63
-0.635
-0.645
-0.64
-0.635
-0.63
-0.635
-0.61
-0.58
-0.58
-0.605
-0.635
-0.62
-0.55
-0.42
-0.26
-0.08
0.095
0.285
0.48
0.635
0.755
0.785
0.79
0.76
0.64
0.4
0.17
0.05
-0.02
-0.15
-0.305
-0.43
-0.49
-0.51
-0.57
-0.655
-0.705
-0.745
-0.77
-0.81
-0.825
-0.805
-0.8
-0.81
-0.825
-0.835
-0.83
-0.85
-0.845
-0.87
-0.875
-0.855
-0.8
-0.775
-0.78
-0.8
-0.84
-0.895
-0.91
-0.87
-0.81
-0.79
-0.825
-0.87
-0.84
-0.825
-0.81
-0.83
-0.835
-0.81
-0.775
-0.79
-0.8
-0.775
-0.785
-0.765
-0.725
-0.705
-0.73
-0.755
-0.75
-0.745
-0.72
-0.695
-0.69
-0.655
-0.615
-0.575
-0.535
-0.505
-0.485
-0.46
-0.465
-0.455
-0.41
-0.365
-0.31
-0.28
-0.275
-0.275
-0.235
-0.225
-0.22
-0.205
-0.18
-0.145
-0.085
-0.065
-0.085
-0.11
-0.11
-0.115
-0.115
-0.14
-0.145
-0.115
-0.11
-0.14
-0.165
-0.175
-0.175
-0.18
-0.195
-0.235
-0.26
-0.285
-0.28
-0.245
-0.23
-0.255
-0.285
-0.315
-0.295
-0.28
-0.285
-0.295
-0.305
-0.295
-0.295
-0.29
-0.275
-0.28
-0.245
-0.24
-0.26
-0.255
-0.26
-0.28
-0.27
-0.24
-0.205
-0.2
-0.195
-0.22
-0.2
-0.18
-0.16
-0.165
-0.165
-0.17
-0.165
-0.13
-0.105
-0.12
-0.13
-0.125
-0.13
-0.12
-0.105
-0.075
-0.075
-0.085
-0.085
-0.08
-0.07
-0.08
-0.095
-0.11
-0.085
-0.085
-0.05
-0.025
0.005
0.005
-0.04
-0.045
-0.06
-0.065
-0.07
-0.08
-0.065
-0.04
-0.025
-0.015
0.005
0.02
0.05
0.075
0.08
0.035
-0.015
-0.055
-0.055
-0.06
-0.06
-0.075
-0.11
-0.18
-0.235
-0.265
-0.25
-0.235
-0.25
-0.27
-0.25
-0.22
-0.175
-0.15
-0.13
-0.125
-0.11
-0.105
-0.095
-0.1
-0.1
-0.115
-0.1
-0.075
-0.075
-0.08
-0.085
-0.105
-0.125
-0.115
-0.125
-0.14
-0.17
-0.19
-0.155
-0.11
-0.04
0.045
0.155
0.275
0.43
0.6
0.77
0.91
1.015
1.06
1.07
1.025
0.875
0.635
0.47
0.375
0.3
0.18
0.01
-0.15
-0.235
-0.285
-0.33
-0.405
-0.485
-0.53
-0.58
-0.635
-0.685
-0.7
-0.715
-0.715
-0.715
-0.725
-0.73
-0.725
-0.715
-0.715
-0.705
-0.71
-0.71
-0.705
-0.72
-0.72
-0.735
-0.75
-0.74
-0.72
-0.7
-0.7
-0.72
-0.72
-0.745
-0.725
-0.715
-0.71
-0.715
-0.735
-0.725
-0.715
-0.7
-0.715
-0.73
-0.765
-0.735
-0.725
-0.705
-0.705
-0.705
-0.72
-0.71
-0.72
-0.72
-0.715
-0.72
-0.71
-0.71
-0.695
-0.695
-0.685
-0.695
-0.705
-0.7
-0.685
-0.675
-0.655
-0.67
-0.69
-0.685
-0.67
-0.65
-0.63
-0.635
-0.64
-0.625
-0.62
-0.59
-0.57
-0.55
-0.54
-0.5
-0.475
-0.465
-0.46
-0.47
-0.49
-0.465
-0.445
-0.42
-0.425
-0.455
-0.46
-0.47
-0.47
-0.455
-0.43
-0.455
-0.475
-0.475
-0.455
-0.44
-0.42
-0.425
-0.415
-0.42
-0.415
-0.405
-0.39
-0.395
-0.405
-0.39
-0.375
-0.35
-0.33
-0.325
-0.315
-0.29
-0.27
-0.25
-0.24
-0.24
-0.24
-0.235
-0.235
-0.235
-0.23
-0.23
-0.225
-0.225
-0.245
-0.25
-0.265
-0.26
-0.255
-0.265
-0.255
-0.26
-0.265
-0.285
-0.31
-0.295
-0.29
-0.285
-0.295
-0.295
-0.33
-0.35
-0.34
-0.34
-0.325
-0.335
-0.34
-0.35
-0.345
-0.335
-0.325
-0.31
-0.3
-0.27
-0.245
-0.23
-0.245
-0.25
-0.265
-0.23
-0.195
-0.185
-0.21
-0.215
-0.195
-0.16
-0.135
-0.115
-0.12
-0.145
-0.2
-0.215
-0.215
-0.21
-0.22
-0.255
-0.305
-0.35
-0.365
-0.395
-0.425
-0.445
-0.465
-0.465
-0.45
-0.425
-0.425
-0.43
-0.46
-0.45
-0.43
-0.415
-0.39
-0.415
-0.435
-0.45
-0.455
-0.415
-0.4
-0.39
-0.39
-0.395
-0.375
-0.36
-0.355
-0.36
-0.395
-0.41
-0.42
-0.385
-0.32
-0.215
-0.06
0.155
0.365
0.575
0.775
0.92
0.99
1.065
1.105
1.1
0.985
0.78
0.615
0.545
0.475
0.365
0.195
0.05
-0.025
-0.07
-0.13
-0.21
-0.275
-0.325
-0.36
-0.385
-0.44
-0.455
-0.45
-0.435
-0.445
-0.44
-0.445
-0.455
-0.47
-0.495
-0.545
-0.55
-0.555
-0.55
-0.56
-0.58
-0.585
-0.57
-0.545
-0.505
-0.51
-0.525
-0.55
-0.55
-0.515
-0.485
-0.46
-0.455
-0.465
-0.44
-0.415
-0.4
-0.385
-0.375
-0.415
-0.49
-0.545
-0.58
-0.615
-0.655
-0.705
-0.72
-0.715
-0.675
-0.66
-0.685
-0.72
-0.715
-0.715
-0.695
-0.67
-0.67
-0.695
-0.71
-0.73
-0.72
-0.71
-0.695
-0.705
-0.705
-0.7
-0.685
-0.63
-0.6
-0.585
-0.57
-0.53
-0.49
-0.46
-0.44
-0.43
-0.395
-0.335
-0.28
-0.22
-0.16
-0.14
-0.105
-0.095
-0.15
-0.195
-0.21
-0.205
-0.155
-0.145
-0.135
-0.14
-0.175
-0.175
-0.195
-0.235
-0.275
-0.3
-0.325
-0.33
-0.32
-0.33
-0.32
-0.325
-0.335
-0.335
-0.35
-0.36
-0.345
-0.35
-0.345
-0.365
-0.385
-0.38
-0.38
-0.36
-0.36
-0.34
-0.295
-0.26
-0.225
-0.22
-0.22
-0.21
-0.185
-0.175
-0.15
-0.145
-0.135
-0.125
-0.095
-0.09
-0.065
-0.08
-0.085
-0.105
-0.095
-0.08
-0.08
-0.08
-0.085
-0.1
-0.095
-0.09
-0.075
-0.08
-0.105
-0.11
-0.085
-0.085
-0.085
-0.105
-0.125
-0.125
-0.1
-0.09
-0.075
-0.1
-0.135
-0.165
-0.17
-0.175
-0.175
-0.17
-0.16
-0.14
-0.105
-0.075
-0.07
-0.08
-0.125
-0.16
-0.14
-0.11
-0.08
-0.095
-0.105
-0.105
-0.095
-0.08
-0.06
-0.05
-0.045
-0.07
-0.075
-0.08
-0.105
-0.12
-0.16
-0.21
-0.265
-0.33
-0.35
-0.375
-0.365
-0.375
-0.37
-0.375
-0.36
-0.35
-0.35
-0.35
-0.355
-0.315
-0.295
-0.29
-0.295
-0.3
-0.29
-0.275
-0.24
-0.22
-0.21
-0.215
-0.215
-0.21
-0.2
-0.19
-0.195
-0.205
-0.21
-0.195
-0.19
-0.145
-0.065
0.075
0.27
0.46
0.685
0.905
1.095
1.215
1.295
1.345
1.325
1.22
1.04
0.895
0.79
0.7
0.555
0.38
0.21
0.13
0.105
0.075
0.005
-0.05
-0.12
-0.18
-0.235
-0.28
-0.29
-0.28
-0.275
-0.295
-0.325
-0.335
-0.365
-0.38
-0.39
-0.39
-0.37
-0.36
-0.33
-0.335
-0.345
-0.345
-0.33
-0.31
-0.33
-0.335
-0.345
-0.355
-0.35
-0.345
-0.345
-0.335
-0.335
-0.34
-0.32
-0.31
-0.31
-0.315
-0.335
-0.32
-0.32
-0.295
-0.29
-0.28
-0.295
-0.32
-0.335
-0.325
-0.295
-0.295
-0.295
-0.32
-0.32
-0.29
-0.26
-0.25
-0.255
-0.245
-0.23
-0.22
-0.2
-0.175
-0.155
-0.145
-0.135
-0.135
-0.145
-0.125
-0.115
-0.11
-0.095
-0.045
-0.02
-0.01
-0.015
-0.04
-0.055
-0.045
-0.035
-0.02
-0.015
-0.015
-0.015
0.0
0.01
0.01
0.0
-0.03
-0.065
-0.08
-0.095
-0.09
-0.095
-0.115
-0.15
-0.165
-0.18
-0.175
-0.17
-0.175
-0.19
-0.19
-0.175
-0.175
-0.195
-0.2
-0.195
-0.175
-0.17
-0.185
-0.18
-0.19
-0.185
-0.175
-0.145
-0.14
-0.15
-0.165
-0.16
-0.17
-0.15
-0.125
-0.12
-0.13
-0.14
-0.155
-0.145
-0.16
-0.15
-0.15
-0.145
-0.155
-0.145
-0.14
-0.155
-0.17
-0.175
-0.16
-0.15
-0.155
-0.17
-0.19
-0.18
-0.155
-0.155
-0.16
-0.16
-0.17
-0.185
-0.175
-0.15
-0.155
-0.175
-0.18
-0.18
-0.15
-0.135
-0.125
-0.095
-0.075
-0.09
-0.075
-0.095
-0.11
-0.115
-0.095
-0.075
-0.035
-0.005
0.005
-0.005
-0.01
-0.005
0.03
0.05
0.05
0.02
-0.005
-0.005
0.015
0.02
0.005
-0.025
-0.085
-0.155
-0.185
-0.205
-0.21
-0.215
-0.245
-0.255
-0.26
-0.28
-0.285
-0.29
-0.305
-0.29
-0.27
-0.265
-0.255
-0.265
-0.27
-0.275
-0.26
-0.255
-0.255
-0.25
-0.23
-0.23
-0.215
-0.21
-0.23
-0.245
-0.25
-0.245
-0.245
-0.23
-0.2
-0.115
0.005
0.165
0.325
0.525
0.7
0.865
0.955
1.05
1.165
1.255
1.265
1.175
1.005
0.855
0.775
0.695
0.575
0.405
0.225
0.12
0.075
0.035
-0.04
-0.135
-0.175
-0.225
-0.26
-0.32
-0.37
-0.4
-0.405
-0.395
-0.4
-0.4
-0.43
-0.44
-0.45
-0.44
-0.415
-0.39
-0.39
-0.415
-0.43
-0.42
-0.415
-0.395
-0.39
-0.39
-0.375
-0.37
-0.37
-0.365
-0.38
-0.405
-0.4
-0.39
-0.37
-0.36
-0.35
-0.35
-0.37
-0.37
-0.35
-0.335
-0.345
-0.335
-0.345
-0.34
-0.315
-0.32
-0.315
-0.325
-0.34
-0.34
-0.355
-0.34
-0.315
-0.315
-0.305
-0.3
-0.295
-0.295
-0.28
-0.28
-0.26
-0.24
-0.23
-0.215
-0.2
-0.18
-0.17
-0.15
-0.135
-0.11
-0.105
-0.11
-0.085
-0.06
-0.04
-0.025
-0.03
-0.025
-0.03
-0.015
-0.025
-0.005
-0.005
-0.01
-0.02
-0.035
-0.04
-0.065
-0.075
-0.08
-0.095
-0.095
-0.1
-0.105
-0.11
-0.11
-0.11
-0.105
-0.105
-0.1
-0.1
-0.115
-0.145
-0.17
-0.16
-0.155
-0.165
-0.175
-0.175
-0.145
-0.14
-0.155
-0.17
-0.16
-0.095
0.025
0.13
0.26
0.38
0.5
0.65
0.805
0.955
1.06
1.165
1.285
1.42
1.56
1.725
1.87
1.98
2.005
1.905
1.63
1.295
1.005
0.765
0.505
0.19
-0.1
-0.27
-0.365
-0.45
-0.5
-0.52
-0.495
-0.48
-0.47
-0.47
-0.475
-0.485
-0.485
-0.46
-0.46
-0.47
-0.47
-0.48
-0.475
-0.505
-0.53
-0.575
-0.595
-0.605
-0.585
-0.6
-0.59
-0.57
-0.545
-0.53
-0.515
-0.495
-0.47
-0.47
-0.465
-0.47
-0.47
-0.465
-0.445
-0.46
-0.485
-0.53
-0.54
-0.545
-0.53
-0.5
-0.505
-0.52
-0.525
-0.53
-0.525
-0.52
-0.52
-0.525
-0.52
-0.495
-0.48
-0.465
-0.48
-0.49
-0.485
-0.49
-0.46
-0.425
-0.41
-0.41
-0.4
-0.38
-0.355
-0.34
-0.33
-0.325
-0.31
-0.29
-0.245
-0.225
-0.2
-0.185
-0.16
-0.14
-0.115
-0.115
-0.105
-0.12
-0.095
-0.085
-0.075
-0.07
-0.09
-0.1
-0.09
-0.085
-0.08
-0.085
-0.09
-0.095
-0.085
-0.08
-0.085
-0.095
-0.095
-0.1
-0.105
-0.095
-0.08
-0.085
-0.09
-0.12
-0.12
-0.11
-0.095
-0.095
-0.12
-0.125
-0.125
-0.11
-0.1
-0.115
-0.13
-0.125
-0.115
-0.1
-0.095
-0.095
-0.11
-0.13
-0.14
-0.135
-0.135
-0.12
-0.135
-0.16
-0.18
-0.175
-0.155
-0.135
-0.115
-0.135
-0.135
-0.13
-0.115
-0.11
-0.125
-0.145
-0.145
-0.135
-0.13
-0.135
-0.14
-0.145
-0.135
-0.14
-0.13
-0.135
-0.145
-0.155
-0.155
-0.145
-0.14
-0.135
-0.145
-0.155
-0.16
-0.155
-0.14
-0.145
-0.145
-0.16
-0.16
-0.16
-0.155
-0.15
-0.14
-0.145
-0.145
-0.13
-0.13
-0.14
-0.15
-0.15
-0.15
-0.14
-0.135
-0.145
-0.15
-0.155
-0.145
-0.13
-0.135
-0.125
-0.135
-0.15
-0.135
-0.13
-0.11
-0.105
-0.12
-0.135
-0.125
-0.11
-0.09
-0.1
-0.115
-0.125
-0.12
-0.125
-0.105
-0.105
-0.105
-0.12
-0.11
-0.115
-0.1
-0.09
-0.085
-0.105
-0.115
-0.095
-0.09
-0.085
-0.09
-0.095
-0.085
-0.105
-0.095
-0.11
-0.11
-0.115
-0.1
-0.085
-0.08
-0.085
-0.105
-0.11
-0.11
-0.1
-0.075
-0.055
-0.07
-0.075
-0.075
-0.065
-0.04
-0.06
-0.075
-0.09
-0.075
-0.06
-0.04
-0.04
-0.04
-0.06
-0.05
-0.05
-0.03
-0.02
-0.02
-0.02
-0.005
0.02
0.015
0.03
0.04
0.045
0.07
0.095
0.125
0.135
0.145
0.16
0.165
0.165
0.165
0.15
0.13
0.105
0.105
0.095
0.09
0.065
0.0
-0.065
-0.115
-0.12
-0.12
-0.13
-0.14
-0.135
-0.125
-0.105
-0.1
-0.1
-0.095
-0.12
-0.13
-0.125
-0.1
-0.09
-0.1
-0.115
-0.115
-0.11
-0.09
-0.095
-0.08
-0.095
-0.095
-0.09
-0.06
-0.01
0.075
0.215
0.38
0.56
0.73
0.925
1.085
1.24
1.36
1.425
1.42
1.315
1.12
0.92
0.8
0.735
0.67
0.54
0.355
0.215
0.15
0.105
0.045
-0.035
-0.115
-0.165
-0.2
-0.215
-0.23
-0.255
-0.26
-0.28
-0.295
-0.31
-0.315
-0.31
-0.3
-0.3
-0.285
-0.285
-0.28
-0.27
-0.275
-0.28
-0.265
-0.26
-0.245
-0.24
-0.25
-0.26
-0.26
-0.255
-0.25
-0.245
-0.255
-0.265
-0.265
-0.255
-0.245
-0.255
-0.27
-0.275
-0.265
-0.25
-0.25
-0.275
-0.26
-0.26
-0.26
-0.25
-0.25
-0.245
-0.255
-0.26
-0.245
-0.245
-0.23
-0.225
-0.235
-0.235
-0.2
-0.185
-0.165
-0.16
-0.165
-0.16
-0.15
-0.12
-0.095
-0.09
-0.08
-0.075
-0.07
-0.05
-0.04
-0.025
-0.01
-0.005
0.01
0.025
0.04
0.06
0.055
0.06
0.065
0.085
0.1
0.115
0.115
0.095
0.105
0.11
0.115
0.11
0.105
0.075
0.065
0.075
0.075
0.07
0.06
0.03
0.015
-0.005
0.005
-0.005
-0.015
-0.045
-0.06
-0.07
-0.055
-0.05
-0.075
-0.075
-0.09
-0.115
-0.11
-0.125
-0.115
-0.11
-0.1
-0.095
-0.11
-0.125
-0.13
-0.15
-0.16
-0.155
-0.15
-0.15
-0.175
-0.175
-0.2
-0.2
-0.21
-0.24
-0.285
-0.32
-0.34
-0.36
-0.365
-0.39
-0.39
-0.375
-0.34
-0.305
-0.295
-0.275
-0.28
-0.29
-0.285
-0.255
-0.235
-0.235
-0.24
-0.26
-0.26
-0.255
-0.24
-0.235
-0.22
-0.24
-0.23
-0.22
-0.205
-0.18
-0.16
-0.175
-0.16
-0.145
-0.145
-0.135
-0.12
-0.11
-0.08
-0.06
-0.04
-0.02
-0.005
-0.015
0.01
0.0
-0.005
-0.03
-0.035
-0.055
-0.055
-0.07
-0.115
-0.155
-0.225
-0.3
-0.33
-0.33
-0.325
-0.335
-0.33
-0.34
-0.33
-0.32
-0.305
-0.315
-0.34
-0.33
-0.32
-0.325
-0.3
-0.285
-0.295
-0.32
-0.33
-0.305
-0.29
-0.29
-0.305
-0.3
-0.3
-0.305
-0.325
-0.37
-0.4
-0.39
-0.36
-0.275
-0.16
-0.005
0.165
0.34
0.58
0.815
1.01
1.135
1.2
1.2
1.1
0.915
0.765
0.665
0.61
0.51
0.36
0.2
0.075
0.01
-0.05
-0.145
-0.23
-0.27
-0.325
-0.375
-0.42
-0.485
-0.495
-0.5
-0.52
-0.545
-0.535
-0.565
-0.555
-0.56
-0.545
-0.555
-0.56
-0.565
-0.545
-0.515
-0.505
-0.51
-0.525
-0.545
-0.535
-0.52
-0.505
-0.51
-0.515
-0.52
-0.505
-0.5
-0.505
-0.51
-0.515
-0.5
-0.49
-0.485
-0.495
-0.485
-0.5
-0.5
-0.495
-0.5
-0.48
-0.47
-0.47
-0.49
-0.49
-0.47
-0.46
-0.455
-0.47
-0.475
-0.485
-0.5
-0.48
-0.46
-0.445
-0.445
-0.425
-0.4
-0.395
-0.385
-0.4
-0.405
-0.38
-0.36
-0.34
-0.325
-0.32
-0.33
-0.29
-0.265
-0.245
-0.23
-0.24
-0.265
-0.265
-0.265
-0.245
-0.24
-0.24
-0.27
-0.26
-0.265
-0.255
-0.275
-0.275
-0.28
-0.28
-0.285
-0.295
-0.305
-0.32
-0.335
-0.325
-0.325
-0.32
-0.32
-0.335
-0.36
-0.365
-0.34
-0.31
-0.315
-0.335
-0.345
-0.355
-0.35
-0.335
-0.335
-0.345
-0.34
-0.34
-0.32
-0.315
-0.32
-0.335
-0.355
-0.335
-0.33
-0.33
-0.32
-0.32
-0.33
-0.335
-0.33
-0.31
-0.33
-0.34
-0.355
-0.33
-0.315
-0.31
-0.32
-0.34
-0.345
-0.34
-0.33
-0.33
-0.345
-0.34
-0.36
-0.345
-0.33
-0.325
-0.315
-0.305
-0.32
-0.31
-0.29
-0.28
-0.27
-0.28
-0.29
-0.265
-0.24
-0.21
-0.195
-0.175
-0.17
-0.135
-0.11
-0.12
-0.13
-0.16
-0.21
-0.235
-0.215
-0.2
-0.225
-0.285
-0.365
-0.425
-0.45
-0.44
-0.425
-0.44
-0.465
-0.46
-0.445
-0.44
-0.425
-0.44
-0.43
-0.435
-0.43
-0.425
-0.42
-0.43
-0.44
-0.44
-0.415
-0.39
-0.38
-0.405
-0.415
-0.405
-0.38
-0.385
-0.4
-0.4
-0.41
-0.365
-0.275
-0.125
0.065
0.255
0.475
0.68
0.88
1.005
1.065
1.035
0.885
0.72
0.605
0.525
0.44
0.305
0.115
-0.06
-0.14
-0.175
-0.25
-0.34
-0.43
-0.48
-0.495
-0.505
-0.535
-0.555
-0.57
-0.58
-0.6
-0.605
-0.61
-0.625
-0.645
-0.65
-0.64
-0.615
-0.61
-0.605
-0.605
-0.595
-0.59
-0.585
-0.58
-0.585
-0.6
-0.605
-0.595
-0.58
-0.58
-0.585
-0.575
-0.58
-0.57
-0.565
-0.58
-0.595
-0.595
-0.585
-0.59
-0.585
-0.59
-0.585
-0.595
-0.585
-0.595
-0.59
-0.59
-0.59
-0.6
-0.585
-0.585
-0.57
-0.565
-0.565
-0.58
-0.565
-0.555
-0.525
-0.5
-0.515
-0.505
-0.49
-0.45
-0.425
-0.41
-0.415
-0.395
-0.39
-0.355
-0.33
-0.315
-0.31
-0.305
-0.305
-0.29
-0.275
-0.27
-0.265
-0.275
-0.28
-0.275
-0.285
-0.3
-0.315
-0.335
-0.32
-0.325
-0.33
-0.345
-0.355
-0.37
-0.37
-0.36
-0.365
-0.365
-0.36
-0.375
-0.38
-0.385
-0.39
-0.39
-0.41
-0.425
-0.415
-0.405
-0.395
-0.385
-0.385
-0.38
-0.395
-0.395
-0.39
-0.375
-0.38
-0.4
-0.385
-0.365
-0.35
-0.35
-0.355
-0.37
-0.375
-0.36
-0.35
-0.35
-0.35
-0.365
-0.375
-0.37
-0.35
-0.355
-0.37
-0.375
-0.38
-0.385
-0.395
-0.39
-0.395
-0.405
-0.41
-0.395
-0.39
-0.385
-0.395
-0.41
-0.41
-0.4
-0.38
-0.385
-0.38
-0.395
-0.36
-0.33
-0.29
-0.285
-0.315
-0.335
-0.315
-0.28
-0.245
-0.23
-0.235
-0.225
-0.2
-0.185
-0.15
-0.16
-0.185
-0.23
-0.24
-0.23
-0.22
-0.25
-0.295
-0.365
-0.42
-0.445
-0.435
-0.445
-0.455
-0.48
-0.495
-0.495
-0.48
-0.475
-0.465
-0.465
-0.465
-0.475
-0.47
-0.47
-0.485
-0.49
-0.46
-0.44
-0.43
-0.44
-0.44
-0.44
-0.455
-0.45
-0.445
-0.46
-0.43
-0.36
-0.19
0.02
0.235
0.46
0.675
0.875
1.025
1.1
1.045
0.865
0.64
0.51
0.435
0.375
0.215
-0.01
-0.16
-0.215
-0.265
-0.325
-0.4
-0.475
-0.545
-0.59
-0.61
-0.61
-0.605
-0.62
-0.645
-0.675
-0.675
-0.66
-0.66
-0.65
-0.655
-0.665
-0.655
-0.63
-0.63
-0.635
-0.63
-0.625
-0.625
-0.615
-0.6
-0.61
-0.63
-0.65
-0.625
-0.6
-0.59
-0.59
-0.605
-0.615
-0.605
-0.61
-0.595
-0.605
-0.62
-0.63
-0.635
-0.61
-0.625
-0.61
-0.625
-0.63
-0.62
-0.605
-0.59
-0.58
-0.595
-0.62
-0.6
-0.585
-0.555
-0.54
-0.53
-0.54
-0.515
-0.485
-0.46
-0.455
-0.44
-0.43
-0.42
-0.42
-0.405
-0.39
-0.37
-0.37
-0.355
-0.33
-0.325
-0.315
-0.33
-0.355
-0.35
-0.36
-0.345
-0.36
-0.36
-0.385
-0.385
-0.395
-0.38
-0.395
-0.405
-0.43
-0.425
-0.41
-0.405
-0.42
-0.42
-0.435
-0.425
-0.44
-0.44
-0.445
-0.44
-0.46
-0.45
-0.44
-0.43
-0.43
-0.435
-0.455
-0.44
-0.44
-0.435
-0.44
-0.435
-0.435
-0.43
-0.415
-0.4
-0.4
-0.41
-0.445
-0.44
-0.41
-0.41
-0.41
-0.415
-0.43
-0.425
-0.42
-0.395
-0.385
-0.405
-0.415
-0.425
-0.43
-0.425
-0.42
-0.425
-0.435
-0.435
-0.43
-0.415
-0.405
-0.415
-0.42
-0.42
-0.405
-0.385
-0.375
-0.355
-0.345
-0.325
-0.315
-0.32
-0.325
-0.34
-0.32
-0.305
-0.265
-0.24
-0.23
-0.21
-0.205
-0.175
-0.17
-0.18
-0.2
-0.24
-0.265
-0.26
-0.26
-0.285
-0.335
-0.41
-0.475
-0.485
-0.49
-0.475
-0.48
-0.5
-0.52
-0.525
-0.505
-0.485
-0.465
-0.485
-0.515
-0.5
-0.49
-0.47
-0.465
-0.48
-0.485
-0.475
-0.47
-0.455
-0.45
-0.455
-0.47
-0.465
-0.465
-0.46
-0.465
-0.455
-0.425
-0.3
-0.14
0.06
0.265
0.495
0.705
0.89
1.02
1.08
1.065
0.95
0.76
0.605
0.535
0.49
0.375
0.19
-0.035
-0.16
-0.205
-0.255
-0.33
-0.425
-0.51
-0.565
-0.58
-0.605
-0.63
-0.63
-0.655
-0.665
-0.68
-0.685
-0.685
-0.685
-0.695
-0.695
-0.675
-0.65
-0.65
-0.66
-0.67
-0.655
-0.65
-0.63
-0.625
-0.635
-0.63
-0.62
-0.625
-0.63
-0.625
-0.62
-0.635
-0.615
-0.62
-0.605
-0.615
-0.64
-0.645
-0.63
-0.62
-0.605
-0.605
-0.62
-0.625
-0.615
-0.595
-0.595
-0.61
-0.615
-0.62
-0.59
-0.575
-0.555
-0.565
-0.56
-0.57
-0.56
-0.52
-0.49
-0.48
-0.48
-0.495
-0.46
-0.43
-0.405
-0.38
-0.4
-0.41
-0.405
-0.375
-0.34
-0.32
-0.31
-0.31
-0.295
-0.29
-0.265
-0.27
-0.275
-0.28
-0.28
-0.285
-0.295
-0.305
-0.31
-0.32
-0.325
-0.345
-0.325
-0.33
-0.345
-0.375
-0.39
-0.375
-0.365
-0.37
-0.385
-0.415
-0.415
-0.405
-0.4
-0.4
-0.4
-0.415
-0.41
-0.41
-0.4
-0.405
-0.415
-0.425
-0.42
-0.405
-0.4
-0.42
-0.44
-0.44
-0.445
-0.42
-0.415
-0.4
-0.41
-0.42
-0.42
-0.41
-0.39
-0.36
-0.385
-0.4
-0.42
-0.44
-0.42
-0.42
-0.43
-0.425
-0.41
-0.395
-0.38
-0.39
-0.395
-0.4
-0.41
-0.41
-0.405
-0.41
-0.415
-0.415
-0.385
-0.375
-0.37
-0.355
-0.34
-0.335
-0.305
-0.3
-0.29
-0.305
-0.32
-0.33
-0.3
-0.275
-0.225
-0.215
-0.215
-0.205
-0.185
-0.16
-0.145
-0.17
-0.21
-0.25
-0.255
-0.24
-0.215
-0.235
-0.265
-0.32
-0.385
-0.43
-0.44
-0.44
-0.445
-0.475
-0.475
-0.48
-0.47
-0.47
-0.465
-0.455
-0.46
-0.45
-0.455
-0.455
-0.46
-0.45
-0.435
-0.425
-0.42
-0.43
