Lead II
-0.075
-0.09
-0.12
-0.155
-0.18
-0.185
-0.165
-0.155
-0.15
-0.16
-0.165
-0.165
-0.165
-0.14
-0.145
-0.165
-0.175
-0.17
-0.16
-0.14
-0.145
-0.165
-0.165
-0.145
-0.14
-0.14
-0.15
-0.16
-0.155
-0.14
-0.14
-0.13
-0.14
-0.13
-0.135
-0.135
-0.13
-0.12
-0.135
-0.14
-0.115
-0.115
-0.115
-0.115
-0.105
-0.11
-0.105
-0.085
-0.085
-0.09
-0.1
-0.11
-0.09
-0.06
-0.055
-0.05
-0.055
-0.065
-0.045
-0.01
0.005
0.035
0.055
0.095
0.23
0.505
1.07
1.705
2.275
2.335
2.145
1.965
1.86
1.8
1.71
1.59
1.47
1.375
1.29
1.185
1.08
0.935
0.8
0.65
0.5
0.335
0.17
-0.02
-0.2
-0.355
-0.53
-0.69
-0.855
-1.045
-1.17
-1.28
-1.345
-1.4
-1.46
-1.535
-1.59
-1.615
-1.665
-1.75
-1.825
-1.89
-1.925
-1.955
-1.985
-2.01
-1.995
-1.93
-1.825
-1.69
-1.51
-1.375
-1.205
-1.075
-0.965
-0.895
-0.835
-0.78
-0.725
-0.68
-0.635
-0.595
-0.575
-0.56
-0.54
-0.49
-0.405
-0.325
-0.255
-0.185
-0.155
-0.13
-0.08
-0.01
0.09
0.17
0.265
0.345
0.405
0.49
0.56
0.605
0.63
0.64
0.64
0.665
0.705
0.73
0.74
0.755
0.79
0.815
0.845
0.865
0.875
0.895
0.92
0.95
0.985
1.005
1.025
1.045
1.075
1.105
1.15
1.17
1.185
1.205
1.24
1.285
1.32
1.37
1.39
1.4
1.425
1.465
1.465
1.485
1.505
1.525
1.54
1.555
1.585
1.6
1.595
1.6
1.6
1.625
1.645
1.66
1.67
1.665
1.67
1.69
1.71
1.72
1.73
1.73
1.72
1.705
1.675
1.63
1.585
1.55
1.55
1.515
1.46
1.375
1.28
1.215
1.155
1.105
1.07
1.01
0.95
0.89
0.84
0.785
0.735
0.685
0.615
0.545
0.5
0.45
0.425
0.365
0.31
0.25
0.215
0.19
0.165
0.14
0.1
0.085
0.065
0.055
0.06
0.035
0.025
0.005
-0.005
-0.005
-0.025
-0.06
-0.075
-0.1
-0.095
-0.055
-0.045
-0.055
-0.065
-0.09
-0.07
-0.07
-0.07
-0.075
-0.085
-0.09
-0.09
-0.08
-0.08
-0.085
-0.085
-0.1
-0.1
-0.09
-0.065
-0.065
-0.075
-0.085
-0.085
-0.065
-0.055
-0.07
-0.075
-0.07
-0.07
-0.06
-0.06
-0.07
-0.07
-0.085
-0.08
-0.06
-0.05
-0.045
-0.05
-0.075
-0.08
-0.075
-0.05
-0.045
-0.05
-0.06
-0.07
-0.065
-0.055
-0.075
-0.075
-0.075
-0.08
-0.07
-0.05
-0.045
-0.04
-0.065
-0.065
-0.06
-0.045
-0.06
-0.075
-0.08
-0.08
-0.07
-0.06
-0.05
-0.05
-0.075
-0.065
-0.055
-0.035
-0.05
-0.055
-0.055
-0.05
-0.04
-0.025
-0.03
-0.045
-0.06
-0.04
-0.03
-0.03
-0.025
-0.035
-0.025
-0.035
-0.025
-0.02
-0.025
-0.025
-0.03
-0.02
0.005
0.03
0.025
0.015
-0.01
0.0
0.02
0.03
0.02
0.015
0.015
0.03
0.05
0.08
0.125
0.175
0.36
0.765
1.4
1.99
2.25
2.175
1.975
1.86
1.8
1.755
1.655
1.56
1.455
1.365
1.275
1.205
1.105
0.995
0.865
0.715
0.545
0.385
0.215
0.04
-0.13
-0.305
-0.5
-0.69
-0.88
-1.05
-1.215
-1.315
-1.395
-1.45
-1.545
-1.635
-1.725
-1.795
-1.885
-1.975
-2.055
-2.13
-2.195
-2.235
-2.25
-2.22
-2.115
-1.975
-1.815
-1.59
-1.415
-1.26
-1.13
-1.05
-0.99
-0.92
-0.865
-0.79
-0.735
-0.705
-0.675
-0.65
-0.615
-0.575
-0.515
-0.445
-0.375
-0.3
-0.205
-0.13
-0.055
0.015
0.105
0.23
0.365
0.52
0.635
0.72
0.785
0.86
0.925
0.98
1.03
1.05
1.035
1.015
1.015
1.02
1.045
1.075
1.085
1.12
1.14
1.165
1.175
1.18
1.18
1.18
1.195
1.215
1.23
1.23
1.245
1.245
1.27
1.29
1.325
1.34
1.345
1.365
1.39
1.42
1.445
1.45
1.46
1.485
1.515
1.53
1.535
1.545
1.54
1.555
1.575
1.59
1.585
1.57
1.54
1.535
1.515
1.51
1.49
1.47
1.425
1.395
1.375
1.34
1.315
1.275
1.21
1.175
1.135
1.08
1.025
0.96
0.885
0.84
0.79
0.755
0.72
0.67
0.595
0.53
0.485
0.455
0.405
0.36
0.305
0.25
0.22
0.19
0.155
0.115
0.085
0.045
0.035
0.01
-0.005
-0.015
-0.04
-0.075
-0.08
-0.105
-0.11
-0.12
-0.14
-0.145
-0.145
-0.145
-0.15
-0.16
-0.175
-0.175
-0.165
-0.155
-0.15
-0.175
-0.185
-0.18
-0.17
-0.18
-0.18
-0.17
-0.185
-0.18
-0.185
-0.185
-0.185
-0.2
-0.19
-0.195
-0.19
-0.18
-0.175
-0.18
-0.19
-0.185
-0.16
-0.15
-0.145
-0.155
-0.16
-0.165
-0.16
-0.155
-0.15
-0.15
-0.15
-0.145
-0.145
-0.155
-0.155
-0.155
-0.155
-0.145
-0.13
-0.125
-0.13
-0.135
-0.145
-0.145
-0.135
-0.135
-0.135
-0.14
-0.16
-0.16
-0.15
-0.125
-0.13
-0.165
-0.17
-0.145
-0.135
-0.13
-0.13
-0.15
-0.15
-0.15
-0.14
-0.155
-0.155
-0.165
-0.17
-0.17
-0.15
-0.135
-0.135
-0.145
-0.145
-0.14
-0.13
-0.12
-0.13
-0.14
-0.135
-0.135
-0.13
-0.145
-0.135
-0.15
-0.14
-0.125
-0.12
-0.11
-0.115
-0.115
-0.13
-0.125
-0.12
-0.115
-0.11
-0.115
-0.12
-0.12
-0.11
-0.11
-0.105
-0.115
-0.12
-0.115
-0.1
-0.11
-0.105
-0.115
-0.13
-0.12
-0.1
-0.095
-0.085
-0.085
-0.09
-0.085
-0.08
-0.065
-0.06
-0.065
-0.05
-0.015
0.01
0.06
0.175
0.435
0.92
1.555
2.0
2.08
1.945
1.785
1.7
1.665
1.605
1.535
1.455
1.39
1.32
1.26
1.215
1.155
1.065
0.96
0.825
0.705
0.595
0.49
0.36
0.2
0.02
-0.19
-0.4
-0.615
-0.815
-1.0
-1.155
-1.26
-1.33
-1.375
-1.445
-1.53
-1.595
-1.65
-1.735
-1.845
-1.94
-2.01
-2.07
-2.14
-2.185
-2.225
-2.21
-2.16
-2.055
-1.9
-1.73
-1.57
-1.425
-1.295
-1.2
-1.145
-1.1
-1.06
-1.01
-0.965
-0.92
-0.875
-0.855
-0.855
-0.825
-0.815
-0.77
-0.715
-0.64
-0.57
-0.515
-0.485
-0.45
-0.395
-0.34
-0.265
-0.185
-0.12
-0.065
0.015
0.08
0.14
0.195
0.22
0.22
0.24
0.255
0.27
0.305
0.31
0.315
0.32
0.355
0.365
0.39
0.39
0.4
0.41
0.435
0.465
0.49
0.505
0.51
0.535
0.575
0.595
0.615
0.64
0.645
0.69
0.705
0.765
0.79
0.795
0.835
0.855
0.9
0.93
0.945
0.97
0.98
1.01
1.04
1.08
1.105
1.115
1.13
1.14
1.16
1.175
1.18
1.17
1.155
1.165
1.175
1.18
1.18
1.16
1.145
1.14
1.13
1.12
1.11
1.085
1.045
1.03
1.01
0.985
0.955
0.915
0.88
0.835
0.8
0.77
0.735
0.685
0.645
0.6
0.555
0.53
0.48
0.425
0.385
0.34
0.32
0.29
0.27
0.21
0.17
0.145
0.115
0.09
0.055
0.025
-0.01
-0.02
-0.02
-0.035
-0.055
-0.075
-0.095
-0.105
-0.11
-0.12
-0.13
-0.155
-0.165
-0.165
-0.16
-0.16
-0.16
-0.175
-0.18
-0.19
-0.185
-0.17
-0.175
-0.185
-0.2
-0.2
-0.195
-0.195
-0.19
-0.195
-0.22
-0.195
-0.19
-0.19
-0.19
-0.195
-0.225
-0.22
-0.205
-0.19
-0.195
-0.195
-0.2
-0.21
-0.205
-0.195
-0.205
-0.23
-0.26
-0.26
-0.29
-0.305
-0.34
-0.375
-0.43
-0.465
-0.47
-0.47
-0.485
-0.525
-0.555
-0.555
-0.535
-0.49
-0.445
-0.425
-0.395
-0.36
-0.37
-0.44
-0.6
-0.84
-1.095
-1.28
-1.4
-1.475
-1.575
-1.65
-1.66
-1.6
-1.455
-1.31
-1.225
-1.21
-1.23
-1.25
-1.24
-1.225
-1.205
-1.205
-1.23
-1.315
-1.43
-1.565
-1.705
-1.835
-1.87
-1.83
-1.785
-1.705
-1.61
-1.505
-1.335
-1.105
-0.855
-0.6
-0.365
-0.16
0.01
0.145
0.215
0.23
0.23
0.245
0.255
0.3
0.36
0.405
0.425
0.45
0.455
0.46
0.455
0.45
0.45
0.425
0.4
0.415
0.405
0.4
0.37
0.355
0.335
0.33
0.34
0.34
0.35
0.355
0.35
0.36
0.37
0.365
0.385
0.385
0.39
0.41
0.44
0.47
0.48
0.505
0.51
0.525
0.56
0.575
0.6
0.62
0.63
0.66
0.695
0.72
0.735
0.745
0.755
0.785
0.815
0.83
0.84
0.85
0.84
0.86
0.88
0.895
0.895
0.895
0.88
0.87
0.85
0.825
0.815
0.805
0.79
0.775
0.76
0.745
0.71
0.665
0.62
0.585
0.55
0.53
0.475
0.43
0.38
0.355
0.33
0.285
0.23
0.175
0.13
0.115
0.085
0.085
0.065
0.03
-0.005
-0.045
-0.08
-0.105
-0.12
-0.115
-0.13
-0.145
-0.145
-0.14
-0.15
-0.17
-0.175
-0.165
-0.155
-0.145
-0.14
-0.15
-0.155
-0.16
-0.155
-0.15
-0.155
-0.16
-0.165
-0.17
-0.155
-0.14
-0.14
-0.145
-0.155
-0.155
-0.155
-0.15
-0.15
-0.16
-0.17
-0.17
-0.15
-0.145
-0.135
-0.145
-0.155
-0.145
-0.145
-0.135
-0.135
-0.15
-0.17
-0.155
-0.155
-0.14
-0.16
-0.19
-0.195
-0.18
-0.165
-0.14
-0.16
-0.17
-0.165
-0.165
-0.17
-0.165
-0.16
-0.155
-0.165
-0.17
-0.165
-0.155
-0.15
-0.16
-0.16
-0.155
-0.135
-0.135
-0.145
-0.18
-0.205
-0.2
-0.195
-0.18
-0.17
-0.18
-0.18
-0.175
-0.175
-0.17
-0.155
-0.15
-0.16
-0.15
-0.14
-0.15
-0.145
-0.14
-0.145
-0.145
-0.145
-0.125
-0.13
-0.13
-0.115
-0.125
-0.1
-0.115
-0.125
-0.145
-0.155
-0.16
-0.16
-0.15
-0.14
-0.15
-0.155
-0.16
-0.16
-0.17
-0.17
-0.16
-0.165
-0.145
-0.15
-0.145
-0.14
-0.145
-0.155
-0.15
-0.14
-0.135
-0.115
-0.105
-0.115
-0.11
-0.115
-0.095
-0.085
-0.085
-0.08
-0.07
-0.04
0.01
0.025
0.035
0.03
0.065
0.105
0.15
0.165
0.185
0.195
0.235
0.265
0.285
0.28
0.255
0.225
0.22
0.205
0.22
0.215
0.225
0.22
0.205
0.18
0.16
0.155
0.135
0.125
0.1
0.1
0.12
0.1
0.1
0.095
0.125
0.245
0.52
0.98
1.49
1.835
1.93
1.825
1.695
1.605
1.52
1.445
1.335
1.23
1.145
1.055
0.96
0.87
0.775
0.675
0.54
0.445
0.32
0.175
0.045
-0.065
-0.19
-0.345
-0.51
-0.695
-0.86
-1.04
-1.225
-1.39
-1.555
-1.71
-1.82
-1.87
-1.9
-1.905
-1.925
-1.95
-1.98
-2.035
-2.095
-2.165
-2.21
-2.25
-2.3
-2.345
-2.38
-2.37
-2.31
-2.2
-2.04
-1.87
-1.705
-1.545
-1.38
-1.245
-1.125
-1.05
-1.0
-0.955
-0.935
-0.885
-0.825
-0.8
-0.8
-0.81
-0.8
-0.79
-0.725
-0.66
-0.59
-0.54
-0.5
-0.475
-0.42
-0.36
-0.285
-0.215
-0.14
-0.07
-0.005
0.085
0.155
0.215
0.275
0.28
0.32
0.335
0.355
0.385
0.395
0.41
0.43
0.455
0.49
0.5
0.51
0.525
0.56
0.585
0.615
0.635
0.64
0.665
0.685
0.735
0.77
0.8
0.815
0.835
0.865
0.885
0.92
0.945
0.985
0.98
1.01
1.05
1.08
1.095
1.1
1.115
1.12
1.15
1.16
1.18
1.185
1.175
1.185
1.19
1.195
1.19
1.175
1.17
1.155
1.15
1.145
1.13
1.105
1.07
1.045
1.03
1.01
0.985
0.95
0.91
0.89
0.86
0.85
0.795
0.75
0.7
0.65
0.625
0.575
0.535
0.485
0.43
0.39
0.35
0.31
0.275
0.25
0.195
0.15
0.12
0.09
0.065
0.04
-0.005
-0.035
-0.04
-0.04
-0.07
-0.1
-0.11
-0.135
-0.14
-0.135
-0.14
-0.16
-0.175
-0.185
-0.18
-0.175
-0.18
-0.2
-0.22
-0.205
-0.195
-0.2
-0.19
-0.195
-0.21
-0.2
-0.2
-0.185
-0.185
-0.195
-0.205
-0.195
-0.185
-0.17
-0.16
-0.14
-0.125
-0.1
-0.07
-0.03
-0.01
0.015
0.055
0.1
0.125
0.145
0.16
0.165
0.175
0.22
0.23
0.24
0.205
0.175
0.14
0.135
0.125
0.14
0.135
0.12
0.11
0.12
0.11
0.095
0.085
0.03
-0.01
-0.045
-0.055
-0.07
-0.095
-0.14
-0.185
-0.205
-0.215
-0.24
-0.26
-0.27
-0.315
-0.33
-0.33
-0.325
-0.35
-0.37
-0.39
-0.4
-0.405
-0.41
-0.415
-0.425
-0.415
-0.42
-0.405
-0.4
-0.4
-0.41
-0.425
-0.435
-0.42
-0.415
-0.41
-0.41
-0.425
-0.41
-0.395
-0.385
-0.375
-0.4
-0.425
-0.42
-0.435
-0.405
-0.405
-0.42
-0.435
-0.42
-0.41
-0.39
-0.4
-0.41
-0.415
-0.415
-0.405
-0.4
-0.4
-0.42
-0.43
-0.41
-0.395
-0.38
-0.37
-0.38
-0.385
-0.365
-0.345
-0.32
-0.265
-0.13
0.16
0.675
1.27
1.685
1.74
1.615
1.45
1.375
1.325
1.265
1.175
1.08
0.985
0.915
0.85
0.8
0.715
0.595
0.495
0.39
0.29
0.165
0.025
-0.135
-0.31
-0.465
-0.635
-0.78
-0.95
-1.14
-1.31
-1.475
-1.58
-1.655
-1.725
-1.83
-1.9
-1.99
-2.07
-2.17
-2.285
-2.37
-2.45
-2.51
-2.58
-2.625
-2.595
-2.51
-2.375
-2.225
-2.015
-1.84
-1.675
-1.535
-1.44
-1.365
-1.28
-1.215
-1.14
-1.08
-1.035
-0.99
-0.94
-0.925
-0.885
-0.845
-0.775
-0.695
-0.61
-0.54
-0.475
-0.45
-0.405
-0.345
-0.265
-0.17
-0.085
-0.025
0.045
0.11
0.165
0.225
0.26
0.275
0.28
0.31
0.335
0.36
0.365
0.385
0.385
0.42
0.46
0.49
0.52
0.525
0.525
0.56
0.595
0.625
0.67
0.695
0.715
0.75
0.79
0.83
0.85
0.88
0.895
0.94
0.975
1.005
1.045
1.07
1.085
1.1
1.11
1.155
1.18
1.19
1.19
1.19
1.215
1.225
1.235
1.22
1.2
1.2
1.21
1.21
1.195
1.175
1.13
1.115
1.105
1.09
1.07
1.035
1.005
0.985
0.975
0.97
0.95
0.935
0.92
0.895
0.885
0.85
0.825
0.795
0.765
0.725
0.71
0.69
0.625
0.56
0.485
0.42
0.375
0.345
0.32
0.27
0.255
0.215
0.2
0.165
0.125
0.075
0.02
-0.025
-0.05
-0.085
-0.1
-0.16
-0.19
-0.22
-0.245
-0.275
-0.295
-0.345
-0.375
-0.385
-0.39
-0.385
-0.39
-0.43
-0.455
-0.48
-0.48
-0.46
-0.465
-0.49
-0.515
-0.52
-0.51
-0.485
-0.48
-0.48
-0.505
-0.5
-0.505
-0.49
-0.495
-0.515
-0.51
-0.51
-0.495
-0.485
-0.495
-0.505
-0.5
-0.495
-0.48
-0.495
-0.49
-0.505
-0.52
-0.51
-0.48
-0.47
-0.47
-0.48
-0.505
-0.505
-0.495
-0.49
-0.485
-0.495
-0.505
-0.51
-0.505
-0.5
-0.485
-0.505
-0.515
-0.525
-0.515
-0.5
-0.52
-0.515
-0.53
-0.54
-0.52
-0.525
-0.51
-0.525
-0.525
-0.525
-0.525
-0.52
-0.51
-0.515
-0.535
-0.53
-0.53
-0.51
-0.515
-0.515
-0.525
-0.525
-0.505
-0.495
-0.485
-0.49
-0.515
-0.5
-0.495
-0.48
-0.485
-0.49
-0.5
-0.5
-0.49
-0.47
-0.47
-0.485
-0.495
-0.485
-0.485
-0.475
-0.465
-0.47
-0.485
-0.465
-0.455
-0.45
-0.445
-0.455
-0.465
-0.455
-0.455
-0.44
-0.43
-0.44
-0.45
-0.44
-0.43
-0.415
-0.4
-0.385
-0.385
-0.36
-0.33
-0.245
-0.085
0.245
0.75
1.305
1.615
1.61
1.475
1.345
1.285
1.225
1.16
1.07
1.0
0.9
0.82
0.75
0.675
0.6
0.495
0.365
0.245
0.1
-0.035
-0.175
-0.345
-0.5
-0.67
-0.86
-1.04
-1.21
-1.38
-1.55
-1.69
-1.78
-1.84
-1.89
-1.96
-2.01
-2.1
-2.185
-2.285
-2.355
-2.41
-2.485
-2.575
-2.645
-2.65
-2.575
-2.43
-2.275
-2.12
-1.955
-1.765
-1.62
-1.51
-1.435
-1.39
-1.33
-1.27
-1.2
-1.16
-1.135
-1.125
-1.105
-1.075
-1.0
-0.93
-0.85
-0.775
-0.71
-0.655
-0.6
-0.535
-0.475
-0.41
-0.3
-0.18
-0.085
0.01
0.085
0.155
0.245
0.315
0.375
0.415
0.445
0.47
0.515
0.54
0.59
0.615
0.65
0.665
0.68
0.675
0.685
0.69
0.68
0.69
0.72
0.77
0.795
0.825
0.82
0.84
0.85
0.87
0.895
0.895
0.9
0.885
0.915
0.935
0.95
0.945
0.96
0.96
0.96
0.965
0.995
1.005
1.01
1.0
1.01
1.02
1.03
1.035
1.025
1.01
1.0
0.995
0.995
0.985
0.965
0.945
0.93
0.9
0.885
0.86
0.815
0.78
0.755
0.72
0.705
0.65
0.61
0.55
0.5
0.45
0.415
0.37
0.31
0.255
0.215
0.175
0.135
0.08
0.015
-0.03
-0.07
-0.1
-0.125
-0.16
-0.205
-0.255
-0.295
-0.32
-0.315
-0.34
-0.37
-0.4
-0.435
-0.44
-0.435
-0.45
-0.475
-0.495
-0.48
-0.495
-0.505
-0.505
-0.525
-0.53
-0.53
-0.535
-0.535
-0.55
-0.555
-0.575
-0.56
-0.565
-0.55
-0.545
-0.545
-0.56
-0.56
-0.57
-0.56
-0.555
-0.57
-0.565
-0.55
-0.545
-0.55
-0.54
-0.55
-0.555
-0.545
-0.525
-0.515
-0.51
-0.52
-0.545
-0.55
-0.545
-0.535
-0.525
-0.54
-0.54
-0.54
-0.51
-0.51
-0.515
-0.525
-0.53
-0.53
-0.525
-0.515
-0.525
-0.525
-0.535
-0.53
-0.52
-0.515
-0.515
-0.535
-0.56
-0.565
-0.56
-0.555
-0.54
-0.55
-0.565
-0.57
-0.555
-0.54
-0.54
-0.545
-0.565
-0.56
-0.555
-0.535
-0.53
-0.545
-0.545
-0.555
-0.54
-0.535
-0.535
-0.545
-0.56
-0.54
-0.54
-0.53
-0.55
-0.54
-0.54
-0.54
-0.53
-0.525
-0.53
-0.525
-0.54
-0.53
-0.52
-0.51
-0.51
-0.51
-0.52
-0.515
-0.505
-0.5
-0.485
-0.515
-0.51
-0.52
-0.515
-0.505
-0.505
-0.515
-0.51
-0.51
-0.505
-0.485
-0.48
-0.485
-0.47
-0.46
-0.435
-0.395
-0.315
-0.145
0.225
0.825
1.355
1.595
1.53
1.37
1.24
1.185
1.14
1.07
0.99
0.895
0.815
0.76
0.715
0.66
0.585
0.495
0.41
0.325
0.235
0.135
0.025
-0.105
-0.275
-0.46
-0.65
-0.83
-1.01
-1.185
-1.355
-1.51
-1.605
-1.68
-1.735
-1.79
-1.895
-2.015
-2.125
-2.21
-2.28
-2.37
-2.465
-2.495
-2.425
-2.29
-2.12
-1.945
-1.815
-1.66
-1.535
-1.455
-1.425
-1.395
-1.375
-1.335
-1.275
-1.23
-1.21
-1.23
-1.225
-1.19
-1.12
-1.04
-0.965
-0.895
-0.855
-0.8
-0.73
-0.665
-0.585
-0.525
-0.445
-0.37
-0.285
-0.22
-0.16
-0.11
-0.075
-0.065
-0.03
-0.005
0.005
0.02
0.025
0.04
0.065
0.095
0.115
0.13
0.14
0.17
0.21
0.235
0.25
0.27
0.295
0.325
0.365
0.41
0.42
0.45
0.465
0.5
0.545
0.595
0.62
0.635
0.655
0.68
0.715
0.75
0.785
0.8
0.815
0.835
0.87
0.9
0.92
0.925
0.915
0.915
0.925
0.94
0.945
0.93
0.92
0.905
0.905
0.91
0.89
0.87
0.82
0.79
0.76
0.74
0.71
0.665
0.62
0.57
0.53
0.495
0.45
0.39
0.335
0.29
0.24
0.19
0.155
0.1
0.035
-0.01
-0.035
-0.075
-0.115
-0.15
-0.21
-0.23
-0.26
-0.28
-0.295
-0.32
-0.34
-0.36
-0.37
-0.38
-0.405
-0.435
-0.465
-0.465
-0.47
-0.465
-0.475
-0.485
-0.495
-0.49
-0.485
-0.495
-0.5
-0.5
-0.505
-0.51
-0.505
-0.51
-0.5
-0.52
-0.52
-0.525
-0.505
-0.48
-0.465
-0.465
-0.5
-0.505
-0.52
-0.53
-0.545
-0.51
-0.52
-0.505
-0.495
-0.48
-0.485
-0.49
-0.495
-0.505
-0.49
-0.47
-0.47
-0.47
-0.475
-0.475
-0.46
-0.455
-0.435
-0.445
-0.465
-0.47
-0.46
-0.45
-0.44
-0.44
-0.44
-0.44
-0.435
-0.455
-0.47
-0.49
-0.5
-0.485
-0.46
-0.455
-0.47
-0.48
-0.485
-0.485
-0.46
-0.455
-0.455
-0.46
-0.46
-0.47
-0.455
-0.445
-0.445
-0.455
-0.45
-0.445
-0.425
-0.42
-0.41
-0.38
-0.38
-0.34
-0.3
-0.265
-0.225
-0.215
-0.19
-0.165
-0.145
-0.125
-0.105
-0.07
-0.055
-0.065
-0.075
-0.11
-0.13
-0.14
-0.145
-0.135
-0.13
-0.11
-0.135
-0.14
-0.175
-0.2
-0.22
-0.25
-0.28
-0.305
-0.34
-0.365
-0.375
-0.38
-0.41
-0.43
-0.47
-0.48
-0.47
-0.47
-0.465
-0.47
-0.465
-0.415
-0.315
-0.025
0.505
1.115
1.5
1.53
1.37
1.23
1.165
1.1
1.025
0.945
0.855
0.775
0.695
0.61
0.53
0.43
0.315
0.215
0.09
-0.03
-0.175
-0.305
-0.44
-0.585
-0.765
-0.915
-1.07
-1.245
-1.37
-1.5
-1.615
-1.715
-1.775
-1.815
-1.83
-1.855
-1.925
-2.035
-2.15
-2.26
-2.345
-2.445
-2.52
-2.585
-2.555
-2.445
-2.305
-2.14
-1.965
-1.8
-1.665
-1.555
-1.485
-1.435
-1.405
-1.355
-1.32
-1.28
-1.24
-1.205
-1.195
-1.185
-1.16
-1.09
-1.01
-0.96
-0.89
-0.855
-0.795
-0.72
-0.63
-0.545
-0.445
-0.375
-0.29
-0.215
-0.13
-0.075
-0.045
-0.025
-0.01
0.015
0.03
0.06
0.065
0.09
0.095
0.12
0.165
0.185
0.205
0.22
0.245
0.265
0.3
0.34
0.365
0.375
0.38
0.415
0.47
0.515
0.535
0.56
0.585
0.61
0.65
0.685
0.715
0.74
0.75
0.77
0.805
0.845
0.865
0.88
0.87
0.885
0.905
0.895
0.915
0.905
0.895
0.885
0.885
0.885
0.875
0.86
0.84
0.805
0.79
0.79
0.765
0.73
0.685
0.665
0.62
0.585
0.545
0.5
0.44
0.4
0.36
0.315
0.265
0.21
0.16
0.105
0.065
0.03
-0.015
-0.045
-0.095
-0.135
-0.145
-0.175
-0.2
-0.245
-0.29
-0.315
-0.34
-0.375
-0.4
-0.395
-0.415
-0.41
-0.42
-0.42
-0.43
-0.45
-0.47
-0.48
-0.47
-0.455
-0.47
-0.495
-0.515
-0.515
-0.5
-0.48
-0.47
-0.46
-0.465
-0.45
-0.435
-0.395
-0.39
-0.35
-0.32
-0.27
-0.22
-0.18
-0.165
-0.145
-0.165
-0.14
-0.115
-0.095
-0.08
-0.095
-0.14
-0.17
-0.185
-0.19
-0.205
-0.22
-0.23
-0.205
-0.2
-0.185
-0.19
-0.21
-0.235
-0.245
-0.27
-0.285
-0.32
-0.335
-0.36
-0.385
-0.395
-0.425
-0.44
-0.47
-0.495
-0.54
-0.57
-0.58
-0.59
-0.605
-0.615
-0.635
-0.635
-0.63
-0.63
-0.63
-0.64
-0.65
-0.645
-0.635
-0.645
-0.66
-0.68
-0.7
-0.685
-0.68
-0.67
-0.68
-0.685
-0.685
-0.69
-0.675
-0.675
-0.67
-0.685
-0.685
-0.68
-0.69
-0.685
-0.69
-0.67
-0.67
-0.66
-0.665
-0.635
-0.645
-0.67
-0.675
-0.68
-0.67
-0.675
-0.68
-0.7
-0.7
-0.69
-0.675
-0.675
-0.675
-0.67
-0.665
-0.65
-0.645
-0.65
-0.66
-0.665
-0.66
-0.65
-0.64
-0.66
-0.65
-0.65
-0.64
-0.605
-0.595
-0.57
-0.555
-0.54
-0.485
-0.38
-0.14
0.32
0.895
1.345
1.495
1.385
1.25
1.155
1.1
1.02
0.925
0.855
0.78
0.705
0.625
0.53
0.44
0.355
0.25
0.135
0.0
-0.135
-0.295
-0.45
-0.61
-0.785
-0.95
-1.14
-1.335
-1.53
-1.725
-1.905
-2.06
-2.14
-2.19
-2.235
-2.28
-2.335
-2.44
-2.56
-2.63
-2.69
-2.73
-2.805
-2.87
-2.895
-2.845
-2.74
-2.61
-2.44
-2.3
-2.13
-1.94
-1.775
-1.685
-1.615
-1.54
-1.465
-1.39
-1.31
-1.235
-1.22
-1.2
-1.175
-1.11
-1.05
-0.96
-0.88
-0.81
-0.75
-0.67
-0.6
-0.545
-0.47
-0.395
-0.325
-0.23
-0.15
-0.065
0.005
0.055
0.105
0.135
0.16
0.185
0.195
0.215
0.24
0.28
0.32
0.34
0.35
0.36
0.38
0.425
0.47
0.52
0.53
0.53
0.525
0.525
0.565
0.625
0.675
0.71
0.735
0.76
0.805
0.845
0.865
0.88
0.91
0.96
0.99
1.025
1.055
1.085
1.08
1.1
1.125
1.155
1.19
1.205
1.2
1.22
1.235
1.255
1.275
1.27
1.26
1.285
1.315
1.325
1.34
1.35
1.34
1.35
1.335
1.31
1.28
1.25
1.205
1.165
1.125
1.065
0.995
0.94
0.885
0.84
0.8
0.755
0.695
0.645
0.575
0.5
0.44
0.38
0.33
0.26
0.18
0.125
0.085
0.035
-0.025
-0.08
-0.16
-0.2
-0.24
-0.275
-0.305
-0.335
-0.37
-0.395
-0.4
-0.4
-0.43
-0.475
-0.505
-0.5
-0.495
-0.49
-0.505
-0.53
-0.55
-0.535
-0.545
-0.53
-0.54
-0.565
-0.565
-0.575
-0.57
-0.57
-0.575
-0.585
-0.61
-0.6
-0.585
-0.585
-0.58
-0.57
-0.605
-0.615
-0.62
-0.595
-0.585
-0.585
-0.6
-0.595
-0.59
-0.59
-0.58
-0.575
-0.585
-0.57
-0.565
-0.56
-0.565
-0.58
-0.585
-0.57
-0.565
-0.56
-0.56
-0.58
-0.585
-0.575
-0.565
-0.555
-0.555
-0.56
-0.565
-0.57
-0.555
-0.545
-0.55
-0.57
-0.58
-0.58
-0.565
-0.565
-0.56
-0.565
-0.58
-0.575
-0.55
-0.555
-0.555
-0.57
-0.57
-0.58
-0.57
-0.56
-0.57
-0.575
-0.585
-0.59
-0.58
-0.565
-0.57
-0.565
-0.58
-0.58
-0.575
-0.555
-0.565
-0.56
-0.57
-0.585
-0.575
-0.56
-0.555
-0.55
-0.565
-0.56
-0.56
-0.55
-0.545
-0.55
-0.57
-0.565
-0.55
-0.54
-0.55
-0.565
-0.57
-0.565
-0.555
-0.535
-0.55
-0.555
-0.565
-0.555
-0.55
-0.53
-0.55
-0.54
-0.555
-0.545
-0.53
-0.52
-0.52
-0.525
-0.535
-0.525
-0.52
-0.5
-0.485
-0.475
-0.475
-0.47
-0.44
-0.4
-0.315
-0.17
0.15
0.69
1.21
1.51
1.53
1.405
1.285
1.225
1.175
1.125
1.03
0.935
0.83
0.755
0.68
0.605
0.52
0.41
0.275
0.16
0.035
-0.11
-0.255
-0.41
-0.58
-0.72
-0.875
-1.04
-1.225
-1.42
-1.59
-1.73
-1.86
-1.935
-1.99
-2.065
-2.15
-2.19
-2.235
-2.33
-2.42
-2.515
-2.585
-2.66
-2.73
-2.78
-2.81
-2.76
-2.675
-2.515
-2.335
-2.155
-1.99
-1.835
-1.715
-1.625
-1.555
-1.49
-1.435
-1.39
-1.335
-1.285
-1.235
-1.21
-1.185
-1.14
-1.085
-0.995
-0.895
-0.795
-0.715
-0.635
-0.555
-0.46
-0.375
-0.25
-0.145
-0.06
0.02
0.12
0.21
0.3
0.33
0.35
0.33
0.32
0.345
0.36
0.395
0.41
0.41
0.435
0.45
0.46
0.455
0.44
0.42
0.435
0.45
0.455
0.465
0.445
0.44
0.445
0.47
0.495
0.49
0.495
0.495
0.52
0.555
0.58
0.59
0.585
0.61
0.64
0.685
0.715
0.725
0.73
0.75
0.77
0.785
0.8
0.805
0.79
0.785
0.79
0.805
0.8
0.785
0.77
0.745
0.75
0.75
0.735
0.715
0.675
0.63
0.595
0.585
0.55
0.515
0.48
0.44
0.395
0.36
0.32
0.28
0.22
0.165
0.13
0.095
0.055
0.005
-0.06
-0.12
-0.16
-0.2
-0.225
-0.255
-0.305
-0.35
-0.4
-0.42
-0.44
-0.45
-0.48
-0.52
-0.535
-0.545
-0.56
-0.575
-0.6
-0.635
-0.645
-0.635
-0.635
-0.64
-0.665
-0.69
-0.69
-0.675
-0.655
-0.645
-0.65
-0.675
-0.68
-0.68
-0.66
-0.67
-0.68
-0.69
-0.695
-0.69
-0.68
-0.68
-0.68
-0.685
-0.67
-0.69
-0.685
-0.69
-0.69
-0.685
-0.69
-0.67
-0.685
-0.685
-0.68
-0.675
-0.64
-0.63
-0.615
-0.635
-0.645
-0.66
-0.655
-0.655
-0.635
-0.645
-0.635
-0.65
-0.645
-0.62
-0.605
-0.59
-0.615
-0.635
-0.65
-0.655
-0.645
-0.65
-0.635
-0.645
-0.66
-0.645
-0.605
-0.58
-0.59
-0.63
-0.65
-0.645
-0.635
-0.615
-0.61
-0.625
-0.64
-0.625
-0.615
-0.605
-0.605
-0.62
-0.625
-0.605
-0.615
-0.63
-0.66
-0.64
-0.605
-0.605
-0.615
-0.62
-0.605
-0.605
-0.61
-0.61
-0.615
-0.625
-0.63
-0.62
-0.6
-0.575
-0.575
-0.585
-0.585
-0.58
-0.575
-0.585
-0.585
-0.585
-0.585
-0.595
-0.59
-0.59
-0.59
-0.585
-0.57
-0.58
-0.585
-0.565
-0.55
-0.55
-0.565
-0.58
-0.57
-0.55
-0.56
-0.565
-0.58
-0.585
-0.575
-0.53
-0.505
-0.51
-0.53
-0.535
-0.52
-0.485
-0.435
-0.395
-0.35
-0.29
-0.12
0.215
0.725
1.27
1.6
1.655
1.545
1.45
1.41
1.38
1.315
1.25
1.19
1.125
1.095
1.05
0.995
0.955
0.905
0.83
0.765
0.685
0.585
0.45
0.305
0.155
0.03
-0.12
-0.255
-0.41
-0.6
-0.785
-0.95
-1.12
-1.28
-1.465
-1.605
-1.725
-1.81
-1.91
-1.995
-2.07
-2.155
-2.26
-2.355
-2.465
-2.55
-2.65
-2.7
-2.745
-2.775
-2.745
-2.665
-2.55
-2.38
-2.22
-2.055
-1.88
-1.74
-1.645
-1.575
-1.515
-1.445
-1.375
-1.325
-1.28
-1.225
-1.22
-1.23
-1.25
-1.235
-1.18
-1.07
-0.97
-0.915
-0.895
-0.875
-0.845
-0.745
-0.645
-0.54
-0.45
-0.4
-0.355
-0.295
-0.245
-0.2
-0.135
-0.07
-0.005
0.035
0.035
0.015
0.005
0.015
0.015
0.05
0.09
0.16
0.21
0.25
0.26
0.28
0.3
0.315
0.32
0.325
0.335
0.385
0.455
0.54
0.595
0.61
0.585
0.585
0.59
0.62
0.655
0.72
0.795
0.85
0.845
0.835
0.85
0.885
0.945
1.005
1.05
1.045
1.015
1.005
1.03
1.075
1.1
1.08
1.04
1.02
1.05
1.08
1.07
1.01
0.985
1.005
1.025
1.015
0.995
0.955
0.905
0.885
0.815
0.755
0.69
0.66
0.67
0.665
0.625
0.555
0.47
0.39
0.32
0.29
0.28
0.27
0.225
0.2
0.15
0.11
0.04
-0.02
-0.07
-0.075
-0.08
-0.11
-0.175
-0.25
-0.265
-0.245
-0.195
-0.18
-0.205
-0.255
-0.285
-0.29
-0.3
-0.3
-0.325
-0.345
-0.37
-0.405
-0.425
-0.42
-0.38
-0.305
-0.265
-0.27
-0.305
-0.35
-0.395
-0.4
-0.375
-0.335
-0.345
-0.365
-0.39
-0.385
-0.385
-0.405
-0.44
-0.445
-0.435
-0.365
-0.295
-0.265
-0.235
-0.255
-0.3
-0.32
-0.335
-0.325
-0.315
-0.325
-0.315
-0.3
-0.265
-0.275
-0.295
-0.325
-0.36
-0.355
-0.32
