Lead II
-0.77
-0.77
-0.745
-0.74
-0.735
-0.725
-0.72
-0.735
-0.735
-0.73
-0.73
-0.725
-0.72
-0.71
-0.71
-0.69
-0.7
-0.71
-0.71
-0.71
-0.735
-0.74
-0.74
-0.745
-0.725
-0.715
-0.705
-0.71
-0.72
-0.72
-0.735
-0.73
-0.74
-0.745
-0.74
-0.745
-0.75
-0.745
-0.74
-0.745
-0.755
-0.745
-0.765
-0.78
-0.785
-0.795
-0.79
-0.795
-0.785
-0.79
-0.785
-0.79
-0.79
-0.79
-0.805
-0.81
-0.835
-0.835
-0.815
-0.825
-0.815
-0.805
-0.8
-0.795
-0.79
-0.78
-0.79
-0.775
-0.79
-0.8
-0.8
-0.78
-0.775
-0.765
-0.745
-0.735
-0.735
-0.735
-0.73
-0.72
-0.72
-0.71
-0.72
-0.705
-0.695
-0.665
-0.66
-0.64
-0.63
-0.62
-0.63
-0.615
-0.61
-0.585
-0.59
-0.585
-0.585
-0.595
-0.61
-0.625
-0.63
-0.625
-0.645
-0.655
-0.665
-0.68
-0.685
-0.705
-0.7
-0.705
-0.7
-0.715
-0.725
-0.745
-0.76
-0.77
-0.76
-0.765
-0.755
-0.755
-0.735
-0.725
-0.72
-0.715
-0.71
-0.71
-0.705
-0.7
-0.7
-0.69
-0.65
-0.625
-0.55
-0.475
-0.38
-0.26
-0.145
0.005
0.17
0.38
0.57
0.75
0.905
1.02
1.13
1.245
1.37
1.42
1.335
1.1
0.72
0.25
-0.235
-0.635
-0.91
-1.04
-1.08
-1.03
-0.965
-0.905
-0.88
-0.855
-0.855
-0.86
-0.865
-0.88
-0.885
-0.88
-0.875
-0.885
-0.875
-0.875
-0.885
-0.89
-0.895
-0.9
-0.915
-0.915
-0.945
-0.93
-0.905
-0.91
-0.9
-0.905
-0.915
-0.9
-0.92
-0.93
-0.93
-0.95
-0.965
-0.945
-0.945
-0.94
-0.955
-0.945
-0.945
-0.955
-0.96
-0.97
-0.99
-0.995
-0.995
-1.01
-1.005
-1.02
-1.0
-1.0
-1.01
-1.02
-1.03
-1.04
-1.045
-1.06
-1.065
-1.065
-1.05
-1.035
-1.035
-1.03
-1.025
-1.035
-1.04
-1.04
-1.035
-1.025
-1.015
-1.01
-0.985
-0.985
-0.96
-0.945
-0.93
-0.91
-0.91
-0.905
-0.88
-0.875
-0.87
-0.84
-0.825
-0.805
-0.78
-0.765
-0.745
-0.745
-0.74
-0.745
-0.755
-0.755
-0.745
-0.735
-0.73
-0.73
-0.715
-0.72
-0.71
-0.715
-0.725
-0.73
-0.73
-0.76
-0.755
-0.76
-0.745
-0.745
-0.735
-0.735
-0.755
-0.75
-0.745
-0.755
-0.76
-0.765
-0.77
-0.775
-0.78
-0.78
-0.765
-0.755
-0.765
-0.775
-0.785
-0.785
-0.795
-0.81
-0.81
-0.805
-0.805
-0.795
-0.8
-0.79
-0.8
-0.805
-0.805
-0.83
-0.825
-0.83
-0.835
-0.84
-0.82
-0.815
-0.825
-0.825
-0.82
-0.825
-0.83
-0.83
-0.835
-0.84
-0.835
-0.84
-0.825
-0.82
-0.81
-0.795
-0.8
-0.79
-0.795
-0.8
-0.795
-0.8
-0.79
-0.78
-0.78
-0.765
-0.745
-0.735
-0.73
-0.725
-0.745
-0.755
-0.74
-0.745
-0.74
-0.715
-0.7
-0.685
-0.665
-0.65
-0.645
-0.635
-0.62
-0.62
-0.615
-0.62
-0.62
-0.63
-0.64
-0.64
-0.645
-0.655
-0.675
-0.685
-0.72
-0.725
-0.735
-0.755
-0.755
-0.775
-0.78
-0.785
-0.78
-0.795
-0.81
-0.785
-0.795
-0.8
-0.805
-0.8
-0.795
-0.79
-0.785
-0.765
-0.76
-0.745
-0.735
-0.73
-0.73
-0.71
-0.7
-0.675
-0.63
-0.575
-0.495
-0.4
-0.285
-0.155
-0.01
0.16
0.35
0.53
0.705
0.835
0.955
1.07
1.19
1.31
1.4
1.37
1.17
0.81
0.315
-0.215
-0.66
-0.985
-1.135
-1.16
-1.105
-1.035
-0.94
-0.885
-0.87
-0.86
-0.885
-0.91
-0.93
-0.95
-0.95
-0.96
-0.945
-0.93
-0.93
-0.935
-0.93
-0.95
-0.96
-0.955
-0.96
-0.99
-0.975
-0.975
-0.97
-0.96
-0.965
-0.955
-0.965
-0.965
-0.985
-0.985
-0.99
-1.01
-1.005
-1.005
-1.0
-1.0
-1.005
-1.005
-1.01
-1.02
-1.04
-1.05
-1.06
-1.055
-1.065
-1.07
-1.06
-1.06
-1.055
-1.055
-1.065
-1.075
-1.08
-1.08
-1.09
-1.11
-1.095
-1.095
-1.095
-1.085
-1.08
-1.07
-1.065
-1.055
-1.055
-1.05
-1.05
-1.04
-1.025
-1.01
-0.985
-0.965
-0.945
-0.915
-0.91
-0.89
-0.88
-0.865
-0.855
-0.845
-0.815
-0.815
-0.79
-0.79
-0.775
-0.775
-0.775
-0.78
-0.765
-0.775
-0.765
-0.77
-0.77
-0.78
-0.775
-0.775
-0.775
-0.77
-0.775
-0.77
-0.775
-0.775
-0.775
-0.785
-0.79
-0.785
-0.785
-0.79
-0.78
-0.775
-0.77
-0.78
-0.785
-0.8
-0.805
-0.81
-0.8
-0.805
-0.805
-0.795
-0.795
-0.805
-0.81
-0.8
-0.82
-0.815
-0.82
-0.84
-0.835
-0.83
-0.835
-0.825
-0.82
-0.815
-0.82
-0.81
-0.83
-0.845
-0.85
-0.86
-0.85
-0.855
-0.84
-0.825
-0.83
-0.795
-0.805
-0.815
-0.81
-0.81
-0.82
-0.815
-0.825
-0.81
-0.78
-0.78
-0.77
-0.755
-0.745
-0.73
-0.735
-0.735
-0.745
-0.74
-0.725
-0.735
-0.705
-0.71
-0.695
-0.67
-0.665
-0.655
-0.65
-0.655
-0.64
-0.63
-0.625
-0.61
-0.595
-0.595
-0.615
-0.605
-0.6
-0.615
-0.625
-0.64
-0.66
-0.68
-0.695
-0.705
-0.715
-0.72
-0.715
-0.71
-0.725
-0.735
-0.76
-0.77
-0.79
-0.8
-0.795
-0.79
-0.785
-0.77
-0.765
-0.75
-0.745
-0.745
-0.755
-0.76
-0.76
-0.76
-0.755
-0.75
-0.725
-0.68
-0.655
-0.61
-0.565
-0.495
-0.405
-0.315
-0.185
-0.065
0.11
0.33
0.54
0.745
0.915
1.07
1.195
1.33
1.405
1.39
1.205
0.865
0.415
-0.065
-0.5
-0.81
-0.98
-1.045
-1.02
-0.965
-0.925
-0.89
-0.88
-0.87
-0.865
-0.875
-0.87
-0.87
-0.87
-0.875
-0.875
-0.88
-0.885
-0.895
-0.91
-0.92
-0.92
-0.92
-0.92
-0.925
-0.92
-0.92
-0.905
-0.9
-0.915
-0.915
-0.935
-0.93
-0.93
-0.935
-0.935
-0.93
-0.925
-0.92
-0.925
-0.94
-0.945
-0.96
-0.96
-0.965
-0.975
-0.98
-0.98
-0.985
-0.98
-0.985
-0.98
-0.985
-0.985
-1.0
-1.015
-1.02
-1.025
-1.025
-1.035
-1.03
-1.035
-1.03
-1.04
-1.04
-1.045
-1.06
-1.06
-1.07
-1.08
-1.065
-1.07
-1.065
-1.06
-1.035
-1.03
-1.02
-1.015
-1.005
-1.005
-1.0
-0.99
-0.98
-0.97
-0.94
-0.925
-0.905
-0.885
-0.86
-0.85
-0.845
-0.835
-0.815
-0.81
-0.815
-0.79
-0.77
-0.765
-0.745
-0.735
-0.74
-0.74
-0.745
-0.75
-0.75
-0.755
-0.75
-0.75
-0.735
-0.735
-0.735
-0.74
-0.745
-0.745
-0.755
-0.76
-0.765
-0.76
-0.77
-0.755
-0.755
-0.745
-0.74
-0.755
-0.76
-0.765
-0.78
-0.78
-0.78
-0.78
-0.785
-0.775
-0.77
-0.775
-0.775
-0.78
-0.775
-0.775
-0.79
-0.805
-0.81
-0.82
-0.82
-0.82
-0.815
-0.81
-0.805
-0.82
-0.825
-0.815
-0.825
-0.825
-0.835
-0.83
-0.82
-0.81
-0.805
-0.81
-0.805
-0.79
-0.81
-0.805
-0.8
-0.815
-0.81
-0.81
-0.805
-0.8
-0.785
-0.775
-0.755
-0.76
-0.75
-0.755
-0.745
-0.75
-0.745
-0.74
-0.73
-0.725
-0.725
-0.72
-0.705
-0.705
-0.7
-0.685
-0.69
-0.69
-0.69
-0.685
-0.675
-0.65
-0.625
-0.61
-0.605
-0.585
-0.59
-0.57
-0.58
-0.59
-0.62
-0.615
-0.615
-0.615
-0.615
-0.625
-0.625
-0.64
-0.66
-0.675
-0.705
-0.71
-0.735
-0.74
-0.755
-0.76
-0.76
-0.765
-0.745
-0.745
-0.745
-0.74
-0.745
-0.74
-0.765
-0.75
-0.74
-0.735
-0.72
-0.725
-0.71
-0.695
-0.69
-0.68
-0.685
-0.67
-0.655
-0.625
-0.6
-0.54
-0.48
-0.4
-0.295
-0.185
-0.065
0.075
0.225
0.41
0.59
0.745
0.875
0.99
1.085
1.19
1.305
1.395
1.395
1.27
1.03
0.66
0.235
-0.175
-0.525
-0.775
-0.915
-0.96
-0.95
-0.92
-0.895
-0.89
-0.87
-0.86
-0.87
-0.86
-0.865
-0.85
-0.855
-0.865
-0.855
-0.86
-0.865
-0.87
-0.87
-0.885
-0.88
-0.895
-0.88
-0.88
-0.885
-0.875
-0.875
-0.875
-0.885
-0.895
-0.905
-0.905
-0.91
-0.915
-0.92
-0.915
-0.895
-0.905
-0.895
-0.895
-0.905
-0.905
-0.92
-0.935
-0.935
-0.945
-0.95
-0.96
-0.955
-0.95
-0.95
-0.96
-0.96
-0.985
-0.99
-0.995
-0.995
-1.005
-1.0
-1.0
-0.99
-0.99
-0.985
-0.975
-0.98
-0.995
-0.985
-0.99
-0.99
-0.985
-0.985
-0.97
-0.965
-0.94
-0.93
-0.93
-0.91
-0.9
-0.895
-0.875
-0.86
-0.84
-0.83
-0.795
-0.78
-0.755
-0.745
-0.71
-0.7
-0.69
-0.68
-0.68
-0.685
-0.675
-0.67
-0.66
-0.65
-0.645
-0.64
-0.63
-0.645
-0.64
-0.645
-0.66
-0.655
-0.665
-0.68
-0.66
-0.66
-0.65
-0.64
-0.64
-0.64
-0.645
-0.655
-0.67
-0.66
-0.685
-0.68
-0.68
-0.67
-0.675
-0.675
-0.67
-0.675
-0.675
-0.695
-0.715
-0.715
-0.71
-0.705
-0.705
-0.7
-0.695
-0.7
-0.7
-0.71
-0.715
-0.725
-0.735
-0.735
-0.755
-0.74
-0.735
-0.73
-0.73
-0.72
-0.715
-0.725
-0.72
-0.725
-0.73
-0.74
-0.725
-0.74
-0.73
-0.72
-0.71
-0.71
-0.7
-0.695
-0.7
-0.705
-0.695
-0.7
-0.69
-0.675
-0.675
-0.655
-0.655
-0.645
-0.63
-0.63
-0.63
-0.63
-0.63
-0.625
-0.62
-0.62
-0.585
-0.575
-0.56
-0.535
-0.53
-0.515
-0.51
-0.515
-0.51
-0.525
-0.53
-0.54
-0.54
-0.55
-0.545
-0.55
-0.555
-0.57
-0.58
-0.6
-0.61
-0.63
-0.64
-0.65
-0.67
-0.675
-0.685
-0.675
-0.675
-0.66
-0.665
-0.67
-0.67
-0.675
-0.67
-0.675
-0.66
-0.65
-0.65
-0.63
-0.62
-0.615
-0.61
-0.61
-0.61
-0.605
-0.58
-0.53
-0.475
-0.375
-0.28
-0.16
-0.01
0.14
0.345
0.575
0.78
0.98
1.115
1.26
1.385
1.47
1.445
1.24
0.89
0.415
-0.09
-0.515
-0.81
-0.97
-1.0
-0.96
-0.895
-0.83
-0.78
-0.745
-0.735
-0.735
-0.735
-0.75
-0.765
-0.775
-0.78
-0.79
-0.785
-0.77
-0.775
-0.755
-0.77
-0.775
-0.78
-0.78
-0.79
-0.8
-0.805
-0.805
-0.795
-0.785
-0.78
-0.79
-0.785
-0.805
-0.805
-0.81
-0.815
-0.82
-0.82
-0.82
-0.81
-0.825
-0.82
-0.81
-0.81
-0.82
-0.82
-0.82
-0.84
-0.85
-0.86
-0.87
-0.88
-0.865
-0.855
-0.86
-0.86
-0.865
-0.86
-0.88
-0.895
-0.91
-0.9
-0.895
-0.895
-0.89
-0.87
-0.87
-0.865
-0.87
-0.865
-0.86
-0.855
-0.85
-0.85
-0.835
-0.825
-0.79
-0.765
-0.74
-0.71
-0.665
-0.615
-0.54
-0.44
-0.34
-0.265
-0.19
-0.145
-0.105
-0.075
-0.05
-0.035
-0.02
-0.01
0.0
0.015
0.025
0.02
0.025
0.03
0.035
0.045
0.065
0.06
0.07
0.07
0.07
0.065
0.045
0.04
0.045
0.055
0.07
0.07
0.075
0.08
0.08
0.07
0.065
0.045
0.05
0.04
0.04
0.04
0.04
0.03
0.035
0.04
0.04
0.03
0.015
0.0
-0.015
-0.025
-0.03
-0.035
-0.03
-0.04
-0.025
-0.04
-0.065
-0.075
-0.09
-0.1
-0.115
-0.13
-0.12
-0.14
-0.13
-0.135
-0.13
-0.135
-0.145
-0.15
-0.16
-0.17
-0.175
-0.19
-0.195
-0.21
-0.2
-0.195
-0.205
-0.205
-0.225
-0.26
-0.31
-0.37
-0.445
-0.515
-0.57
-0.595
-0.6
-0.585
-0.57
-0.565
-0.555
-0.555
-0.555
-0.55
-0.56
-0.56
-0.56
-0.535
-0.525
-0.505
-0.48
-0.49
-0.49
-0.495
-0.515
-0.53
-0.545
-0.56
-0.575
-0.59
-0.605
-0.605
-0.61
-0.625
-0.64
-0.655
-0.675
-0.69
-0.705
-0.72
-0.715
-0.715
-0.705
-0.69
-0.685
-0.685
-0.695
-0.695
-0.705
-0.695
-0.7
-0.7
-0.68
-0.665
-0.64
-0.625
-0.57
-0.535
-0.485
-0.42
-0.335
-0.235
-0.12
0.025
0.215
0.41
0.625
0.81
0.975
1.1
1.225
1.345
1.43
1.43
1.32
1.015
0.615
0.14
-0.305
-0.66
-0.89
-0.985
-1.01
-0.975
-0.925
-0.88
-0.865
-0.845
-0.845
-0.84
-0.835
-0.855
-0.84
-0.85
-0.855
-0.86
-0.88
-0.905
-0.895
-0.905
-0.905
-0.895
-0.905
-0.9
-0.895
-0.9
-0.9
-0.91
-0.92
-0.92
-0.935
-0.95
-0.95
-0.94
-0.945
-0.935
-0.935
-0.94
-0.945
-0.955
-0.965
-0.98
-0.995
-1.02
-1.015
-1.02
-1.015
-1.015
-1.015
-1.015
-1.015
-1.025
-1.04
-1.04
-1.05
-1.06
-1.06
-1.055
-1.07
-1.07
-1.05
-1.05
-1.05
-1.055
-1.065
-1.065
-1.06
-1.065
-1.055
-1.06
-1.03
-1.02
-1.02
-1.005
-0.99
-0.99
-0.985
-0.985
-0.965
-0.97
-0.95
-0.93
-0.905
-0.885
-0.86
-0.84
-0.815
-0.815
-0.805
-0.79
-0.79
-0.8
-0.79
-0.775
-0.76
-0.765
-0.75
-0.745
-0.745
-0.75
-0.765
-0.765
-0.78
-0.78
-0.775
-0.78
-0.785
-0.79
-0.785
-0.77
-0.775
-0.78
-0.785
-0.79
-0.79
-0.795
-0.79
-0.8
-0.8
-0.795
-0.79
-0.785
-0.805
-0.81
-0.8
-0.81
-0.825
-0.83
-0.835
-0.845
-0.835
-0.845
-0.835
-0.825
-0.83
-0.845
-0.855
-0.86
-0.865
-0.86
-0.875
-0.865
-0.865
-0.865
-0.855
-0.86
-0.86
-0.86
-0.89
-0.88
-0.87
-0.88
-0.88
-0.875
-0.865
-0.855
-0.845
-0.84
-0.835
-0.85
-0.84
-0.835
-0.84
-0.835
-0.825
-0.82
-0.815
-0.81
-0.8
-0.775
-0.775
-0.77
-0.775
-0.78
-0.78
-0.77
-0.77
-0.77
-0.745
-0.73
-0.725
-0.7
-0.695
-0.69
-0.675
-0.68
-0.69
-0.665
-0.66
-0.675
-0.675
-0.67
-0.68
-0.67
-0.685
-0.705
-0.72
-0.745
-0.77
-0.79
-0.78
-0.79
-0.79
-0.805
-0.81
-0.815
-0.815
-0.825
-0.84
-0.83
-0.84
-0.845
-0.83
-0.82
-0.82
-0.815
-0.79
-0.79
-0.78
-0.785
-0.79
-0.79
-0.79
-0.78
-0.755
-0.725
-0.685
-0.645
-0.595
-0.51
-0.425
-0.315
-0.19
-0.045
0.125
0.31
0.51
0.675
0.84
0.985
1.12
1.225
1.25
1.12
0.805
0.38
-0.105
-0.545
-0.84
-1.015
-1.07
-1.05
-0.995
-0.94
-0.925
-0.895
-0.9
-0.905
-0.925
-0.93
-0.95
-0.95
-0.935
-0.935
-0.93
-0.935
-0.94
-0.945
-0.95
-0.96
-0.96
-0.98
-0.965
-0.965
-0.96
-0.965
-0.955
-0.95
-0.955
-0.97
-0.98
-0.98
-0.99
-0.995
-1.0
-0.99
-0.985
-0.995
-0.99
-0.985
-0.99
-1.0
-1.01
-1.01
-1.02
-1.035
-1.03
-1.04
-1.03
-1.04
-1.045
-1.04
-1.05
-1.05
-1.055
-1.055
-1.08
-1.09
-1.08
-1.095
-1.08
-1.08
-1.08
-1.07
-1.075
-1.085
-1.08
-1.085
-1.085
-1.09
-1.08
-1.07
-1.055
-1.04
-1.035
-1.02
-1.015
-0.99
-0.99
-0.98
-0.965
-0.955
-0.94
-0.925
-0.895
-0.88
-0.85
-0.825
-0.835
-0.82
-0.81
-0.82
-0.81
-0.805
-0.8
-0.805
-0.785
-0.775
-0.765
-0.765
-0.77
-0.78
-0.785
-0.78
-0.785
-0.78
-0.785
-0.775
-0.77
-0.77
-0.76
-0.765
-0.76
-0.77
-0.765
-0.78
-0.795
-0.795
-0.79
-0.78
-0.795
-0.785
-0.775
-0.775
-0.785
-0.78
-0.79
-0.795
-0.795
-0.81
-0.81
-0.805
-0.795
-0.81
-0.81
-0.815
-0.805
-0.8
-0.81
-0.81
-0.83
-0.83
-0.84
-0.84
-0.85
-0.825
-0.82
-0.83
-0.825
-0.81
-0.825
-0.825
-0.83
-0.835
-0.84
-0.835
-0.83
-0.825
-0.795
-0.79
-0.785
-0.785
-0.79
-0.79
-0.79
-0.785
-0.785
-0.78
-0.77
-0.75
-0.755
-0.73
-0.72
-0.72
-0.725
-0.715
-0.715
-0.715
-0.7
-0.7
-0.685
-0.67
-0.65
-0.64
-0.625
-0.62
-0.605
-0.615
-0.625
-0.615
-0.615
-0.615
-0.615
-0.615
-0.6
-0.61
-0.62
-0.635
-0.64
-0.665
-0.68
-0.695
-0.69
-0.69
-0.71
-0.72
-0.72
-0.73
-0.735
-0.755
-0.75
-0.75
-0.755
-0.76
-0.75
-0.745
-0.74
-0.725
-0.715
-0.7
-0.705
-0.695
-0.69
-0.665
-0.66
-0.625
-0.605
-0.545
-0.47
-0.375
-0.25
-0.105
0.05
0.235
0.415
0.595
0.755
0.885
1.0
1.12
1.205
1.235
1.155
0.965
0.62
0.245
-0.155
-0.5
-0.735
-0.87
-0.925
-0.905
-0.86
-0.82
-0.8
-0.77
-0.775
-0.775
-0.785
-0.81
-0.825
-0.82
-0.825
-0.835
-0.83
-0.825
-0.82
-0.82
-0.82
-0.825
-0.815
-0.84
-0.845
-0.84
-0.85
-0.86
-0.845
-0.845
-0.84
-0.84
-0.84
-0.855
-0.86
-0.86
-0.875
-0.875
-0.885
-0.89
-0.875
-0.875
-0.88
-0.875
-0.89
-0.885
-0.9
-0.92
-0.93
-0.935
-0.935
-0.955
-0.935
-0.93
-0.93
-0.935
-0.935
-0.945
-0.935
-0.945
-0.97
-0.965
-0.965
-0.96
-0.94
-0.93
-0.915
-0.905
-0.9
-0.89
-0.885
-0.885
-0.87
-0.86
-0.85
-0.825
-0.81
-0.79
-0.765
-0.74
-0.715
-0.71
-0.7
-0.695
-0.69
-0.695
-0.675
-0.66
-0.645
-0.65
-0.635
-0.62
-0.61
-0.615
-0.62
-0.63
-0.635
-0.625
-0.625
-0.63
-0.625
-0.62
-0.615
-0.61
-0.61
-0.605
-0.62
-0.615
-0.635
-0.64
-0.635
-0.63
-0.62
-0.63
-0.61
-0.615
-0.615
-0.62
-0.62
-0.63
-0.63
-0.64
-0.65
-0.64
-0.635
-0.655
-0.63
-0.62
-0.635
-0.63
-0.64
-0.64
-0.65
-0.66
-0.665
-0.67
-0.64
-0.655
-0.64
-0.64
-0.64
-0.64
-0.65
-0.64
-0.645
-0.66
-0.66
-0.65
-0.635
-0.625
-0.615
-0.6
-0.605
-0.6
-0.59
-0.605
-0.61
-0.615
-0.615
-0.595
-0.59
-0.59
-0.565
-0.555
-0.545
-0.555
-0.55
-0.56
-0.55
-0.555
-0.55
-0.54
-0.525
-0.51
-0.5
-0.49
-0.475
-0.475
-0.465
-0.455
-0.44
-0.445
-0.435
-0.43
-0.41
-0.415
-0.4
-0.41
-0.41
-0.425
-0.435
-0.445
-0.45
-0.46
-0.47
-0.49
-0.495
-0.505
-0.505
-0.515
-0.525
-0.535
-0.545
-0.56
-0.57
-0.56
-0.555
-0.55
-0.545
-0.535
-0.525
-0.515
-0.515
-0.52
-0.515
-0.515
-0.52
-0.52
-0.505
-0.51
-0.495
-0.485
-0.455
-0.43
-0.405
-0.38
-0.34
-0.285
-0.23
-0.165
-0.085
0.01
0.13
0.275
0.415
0.57
0.725
0.865
0.975
1.075
1.145
1.23
1.31
1.385
1.455
1.46
1.34
1.115
0.785
0.41
0.025
-0.29
-0.525
-0.655
-0.725
-0.725
-0.705
-0.68
-0.645
-0.62
-0.615
-0.61
-0.605
-0.615
-0.63
-0.645
-0.645
-0.66
-0.64
-0.645
-0.635
-0.635
-0.64
-0.64
-0.64
-0.64
-0.645
-0.665
-0.655
-0.655
-0.655
-0.645
-0.64
-0.635
-0.635
-0.65
-0.665
-0.67
-0.665
-0.68
-0.68
-0.69
-0.695
-0.69
-0.675
-0.665
-0.66
-0.665
-0.685
-0.69
-0.695
-0.7
-0.695
-0.71
-0.71
-0.705
-0.695
-0.685
-0.7
-0.7
-0.715
-0.74
-0.745
-0.75
-0.725
-0.735
-0.725
-0.71
-0.7
-0.69
-0.685
-0.685
-0.685
-0.68
-0.66
-0.635
-0.605
-0.54
-0.435
-0.32
-0.21
-0.13
-0.08
-0.06
-0.055
-0.05
-0.04
-0.025
-0.005
0.025
0.06
0.085
0.11
0.135
0.15
0.155
0.15
0.155
0.155
0.155
0.16
0.165
0.175
0.165
0.185
0.19
0.195
0.17
0.165
0.165
0.155
0.165
0.15
0.16
0.16
0.165
0.165
0.165
0.165
0.155
0.145
0.13
0.12
0.11
0.11
0.115
0.115
0.11
0.105
0.12
0.12
0.11
0.09
0.085
0.07
0.055
0.05
0.035
0.045
0.04
0.04
0.04
0.03
0.025
0.02
-0.01
-0.03
-0.025
-0.03
-0.04
-0.06
-0.065
-0.065
-0.055
-0.095
-0.12
-0.175
-0.23
-0.315
-0.39
-0.445
-0.485
-0.495
-0.475
-0.475
-0.445
-0.455
-0.45
-0.45
-0.445
-0.44
-0.435
-0.415
-0.405
-0.375
-0.355
-0.325
-0.285
-0.26
-0.24
-0.225
-0.19
-0.15
-0.11
-0.05
0.015
0.07
0.135
0.205
0.265
0.31
0.355
0.4
0.44
0.47
0.52
0.565
0.615
0.685
0.735
0.79
0.84
0.875
0.87
0.855
0.82
0.77
0.715
0.655
0.59
0.505
0.44
0.385
0.4
0.44
0.505
0.58
0.65
0.69
0.7
0.67
0.585
0.465
0.27
0.055
-0.185
-0.39
-0.545
-0.66
-0.725
-0.75
-0.75
-0.755
-0.745
-0.76
-0.765
-0.78
-0.775
-0.79
-0.805
-0.825
-0.83
-0.85
-0.87
-0.88
-0.875
-0.875
-0.875
-0.88
-0.875
-0.89
-0.9
-0.925
-0.925
-0.94
-0.945
-0.94
-0.935
-0.93
-0.91
-0.87
-0.805
-0.735
-0.685
-0.63
-0.605
-0.59
-0.6
-0.605
-0.615
-0.645
-0.65
-0.65
-0.62
-0.635
-0.635
-0.645
-0.65
-0.66
-0.675
-0.675
-0.685
-0.675
-0.675
-0.665
-0.65
-0.665
-0.655
-0.65
-0.65
-0.645
-0.64
-0.635
-0.615
-0.6
-0.58
-0.555
-0.54
-0.505
-0.47
-0.45
-0.415
-0.39
-0.36
-0.325
-0.29
-0.255
-0.22
-0.2
-0.175
-0.125
-0.095
-0.075
-0.055
-0.03
-0.02
0.005
0.02
0.035
0.055
0.06
0.085
0.09
0.095
0.1
0.095
0.09
0.09
0.08
0.075
0.09
0.095
0.105
0.115
0.115
0.11
0.095
0.1
0.09
0.085
0.085
0.08
0.08
0.075
0.08
0.075
0.075
0.06
0.045
0.045
0.03
0.025
0.0
0.0
0.01
0.015
0.01
0.005
0.01
0.01
0.015
0.0
-0.005
-0.01
-0.02
0.0
-0.005
0.0
0.005
0.02
0.025
0.025
0.03
0.02
0.025
0.015
0.025
0.03
0.025
0.04
0.045
0.05
0.05
0.055
0.04
0.04
0.025
0.015
0.03
0.04
0.03
0.04
0.05
0.06
0.055
0.045
0.05
0.045
0.035
0.02
0.025
0.02
0.02
0.03
0.03
0.04
0.04
0.03
0.035
0.03
0.015
0.02
0.005
0.01
0.01
0.035
0.03
0.04
0.05
0.055
0.045
0.045
0.045
0.04
0.04
0.05
0.045
0.06
0.06
0.07
0.085
0.085
0.1
0.1
0.095
0.095
0.09
0.11
0.115
0.135
0.13
0.13
0.135
0.12
0.11
0.09
0.075
0.055
0.03
0.025
0.015
0.015
0.01
-0.005
-0.03
-0.03
-0.05
-0.08
-0.08
-0.09
-0.085
-0.09
-0.07
-0.06
-0.055
-0.055
-0.055
-0.055
-0.05
-0.055
-0.06
-0.05
-0.035
-0.015
0.015
0.065
0.125
0.205
0.295
0.395
0.515
0.65
0.815
0.98
1.15
1.275
1.36
1.42
1.465
1.52
1.545
1.495
1.315
1.005
0.615
0.18
-0.225
-0.555
-0.765
-0.86
-0.885
-0.88
-0.845
-0.82
-0.815
-0.81
-0.82
-0.84
-0.845
-0.835
-0.82
-0.82
-0.82
-0.82
-0.83
-0.84
-0.86
-0.875
-0.865
-0.88
-0.89
-0.885
-0.88
-0.89
-0.875
-0.875
-0.87
-0.885
-0.88
-0.895
-0.9
-0.915
-0.925
-0.925
-0.945
-0.945
-0.935
-0.935
-0.94
-0.945
-0.96
-0.965
-0.98
-0.985
-0.985
-0.995
-1.0
-1.005
-1.0
-0.99
-1.01
-1.015
-1.005
-1.02
-1.04
-1.045
-1.05
-1.045
-1.05
-1.05
-1.04
-1.035
-1.05
-1.05
-1.055
-1.055
-1.06
-1.055
-1.06
-1.045
-1.045
-1.04
-1.02
-1.02
-1.015
-1.0
-0.99
-0.985
-0.99
-0.99
-0.97
-0.965
-0.945
-0.94
-0.915
-0.9
-0.875
-0.875
-0.845
-0.835
-0.82
-0.81
-0.805
-0.795
-0.76
-0.755
-0.74
-0.73
-0.725
-0.74
-0.735
-0.745
-0.745
-0.76
-0.76
-0.75
-0.74
-0.745
-0.735
-0.73
-0.735
-0.735
-0.75
-0.745
-0.75
-0.76
-0.77
-0.76
-0.755
-0.755
-0.745
-0.74
-0.73
-0.74
-0.75
-0.76
-0.77
-0.775
-0.785
-0.785
-0.795
-0.8
-0.79
-0.785
-0.77
-0.77
-0.78
-0.785
-0.79
-0.795
-0.805
-0.805
-0.805
-0.805
-0.805
-0.8
-0.8
-0.815
-0.815
-0.825
-0.825
-0.82
-0.83
-0.815
-0.795
-0.805
-0.795
-0.785
-0.785
-0.785
-0.79
-0.785
-0.78
-0.78
-0.765
-0.77
-0.75
-0.74
-0.73
-0.71
-0.715
-0.695
-0.69
-0.685
-0.69
-0.675
-0.665
-0.66
-0.645
-0.635
-0.62
-0.605
-0.585
-0.575
-0.57
-0.565
-0.56
-0.55
-0.545
-0.555
-0.56
-0.56
-0.55
-0.565
-0.585
-0.6
-0.63
-0.635
-0.66
-0.67
-0.695
-0.71
-0.72
-0.72
-0.73
-0.72
-0.725
-0.725
-0.715
-0.725
-0.735
-0.75
-0.745
-0.745
-0.735
-0.73
-0.71
-0.71
-0.7
-0.695
-0.685
-0.69
-0.695
-0.69
-0.67
-0.625
-0.565
-0.49
-0.395
-0.29
-0.155
-0.04
0.105
0.27
0.45
0.62
0.77
0.92
1.06
1.18
1.265
1.23
1.015
0.655
0.19
-0.295
-0.69
-0.955
-1.075
-1.11
-1.06
-0.98
-0.915
-0.86
-0.85
-0.845
-0.875
-0.885
-0.905
-0.925
-0.935
-0.925
-0.915
-0.915
-0.92
-0.915
-0.92
-0.93
-0.94
-0.955
-0.965
-0.965
-0.98
-0.975
-0.96
-0.95
-0.955
-0.96
-0.955
-0.975
-0.995
-0.99
-1.005
-1.005
-1.02
-1.01
-1.025
-1.02
-1.03
-1.025
-1.03
-1.045
-1.04
-1.045
-1.05
-1.055
-1.07
-1.075
-1.055
-1.065
-1.06
-1.055
-1.07
-1.085
-1.115
-1.125
-1.125
-1.12
-1.12
-1.105
-1.1
-1.11
-1.095
-1.1
-1.1
-1.1
-1.105
-1.11
-1.095
-1.085
-1.08
-1.065
-1.045
-1.03
-1.01
-0.995
-0.975
-0.975
-0.95
-0.945
-0.935
-0.92
-0.91
-0.9
-0.87
-0.865
-0.855
-0.835
-0.825
-0.83
-0.84
-0.84
-0.845
-0.86
-0.855
-0.855
-0.85
-0.845
-0.835
-0.815
-0.83
-0.83
-0.835
-0.86
-0.865
-0.88
-0.875
-0.875
-0.865
-0.855
-0.87
-0.86
-0.865
-0.875
-0.875
-0.875
-0.885
-0.885
-0.895
-0.905
-0.91
-0.915
-0.91
-0.91
-0.91
-0.91
-0.91
-0.925
-0.92
-0.945
-0.945
-0.945
-0.955
-0.95
-0.94
-0.93
-0.935
-0.95
-0.945
-0.945
-0.96
-0.955
-0.965
-0.96
-0.96
-0.955
-0.945
-0.93
-0.94
-0.955
-0.96
-0.945
-0.95
-0.95
-0.955
-0.94
-0.935
-0.95
-0.94
-0.925
-0.91
-0.915
-0.915
-0.92
-0.925
-0.95
-0.945
-0.94
-0.925
-0.905
-0.89
-0.875
-0.86
-0.875
-0.855
-0.845
-0.85
-0.85
-0.845
-0.835
-0.81
-0.795
-0.79
-0.775
-0.78
-0.785
-0.8
-0.82
-0.82
-0.835
-0.835
-0.845
-0.85
-0.86
-0.875
-0.885
-0.88
-0.9
-0.895
-0.92
-0.93
-0.945
-0.96
-0.96
-0.96
-0.95
-0.945
-0.935
-0.925
-0.925
-0.925
-0.925
-0.925
-0.935
-0.92
-0.915
-0.91
-0.895
-0.88
-0.86
-0.85
-0.84
-0.805
-0.755
-0.695
-0.62
-0.505
-0.365
-0.205
-0.02
0.18
0.39
0.585
0.745
0.86
0.95
1.025
1.12
1.195
1.18
1.035
0.76
0.375
-0.07
-0.495
-0.85
-1.085
-1.2
-1.225
-1.19
-1.15
-1.105
-1.075
-1.055
-1.04
-1.035
-1.01
-1.01
-1.005
-1.015
-1.025
-1.03
-1.05
-1.05
-1.04
-1.035
-1.03
-1.04
-1.03
-1.035
-1.035
-1.04
-1.04
-1.055
-1.05
-1.05
-1.05
-1.045
-1.055
-1.045
-1.03
-1.035
-1.035
-1.045
-1.06
-1.065
-1.075
-1.08
-1.07
-1.075
-1.075
-1.08
-1.06
-1.07
-1.07
-1.08
-1.08
-1.085
-1.105
-1.09
-1.1
-1.105
-1.105
-1.09
-1.105
-1.1
-1.105
-1.115
-1.125
-1.14
-1.14
-1.13
-1.125
-1.11
-1.1
-1.08
-1.075
-1.06
-1.045
-1.025
-0.995
-0.945
-0.855
-0.73
-0.605
-0.485
-0.41
-0.36
-0.35
-0.325
-0.325
-0.315
-0.31
-0.3
-0.27
-0.255
-0.225
-0.21
-0.17
-0.145
-0.155
-0.12
-0.12
-0.13
-0.12
-0.125
-0.135
-0.13
-0.115
-0.11
-0.095
-0.085
-0.08
-0.08
-0.085
-0.105
-0.11
-0.12
-0.125
-0.12
-0.125
-0.125
-0.115
-0.115
-0.105
-0.12
-0.125
-0.14
-0.15
-0.16
-0.16
-0.17
-0.16
-0.16
-0.17
-0.16
-0.165
-0.165
-0.18
-0.18
-0.19
-0.205
-0.205
-0.215
-0.21
-0.22
-0.225
-0.225
-0.225
-0.23
-0.24
-0.24
-0.25
-0.255
-0.26
-0.27
-0.27
-0.28
-0.28
-0.285
-0.27
-0.275
-0.275
-0.275
-0.28
-0.285
-0.3
-0.295
-0.295
-0.275
-0.275
-0.26
-0.25
-0.25
-0.265
-0.26
-0.26
-0.27
-0.265
-0.26
-0.255
-0.245
-0.235
-0.23
-0.23
-0.23
-0.23
-0.235
-0.25
-0.24
-0.245
-0.235
-0.23
-0.215
-0.2
-0.185
-0.18
-0.165
-0.155
-0.155
-0.155
-0.165
-0.175
-0.165
-0.185
-0.185
-0.19
-0.185
-0.2
-0.215
-0.215
-0.245
-0.26
-0.27
-0.285
-0.295
-0.295
-0.3
-0.315
-0.315
-0.31
-0.32
-0.32
-0.33
-0.325
-0.33
-0.33
-0.33
-0.33
-0.32
-0.315
-0.3
-0.305
-0.3
-0.3
-0.3
-0.305
-0.32
-0.315
-0.3
-0.275
-0.26
-0.235
-0.185
-0.13
-0.075
-0.015
0.055
0.125
0.23
0.34
0.5
0.67
0.855
1.04
1.195
1.295
1.395
1.48
1.535
1.625
1.675
1.63
1.425
1.055
0.59
0.095
-0.29
-0.56
-0.68
-0.695
-0.655
-0.585
-0.52
-0.485
-0.46
-0.45
-0.44
-0.46
-0.465
-0.465
-0.48
-0.485
-0.49
-0.5
-0.51
-0.51
-0.515
-0.5
-0.52
-0.495
-0.495
-0.5
-0.505
-0.495
-0.51
-0.515
-0.515
-0.525
-0.53
-0.525
-0.515
-0.525
-0.53
-0.505
-0.515
-0.52
-0.535
-0.54
-0.545
-0.55
-0.55
-0.55
-0.54
-0.545
-0.54
-0.545
-0.555
-0.555
-0.575
-0.585
-0.595
-0.6
-0.605
-0.62
-0.615
-0.62
-0.605
-0.605
-0.615
-0.62
-0.63
-0.64
-0.64
-0.65
-0.66
-0.65
-0.63
-0.64
-0.635
-0.63
-0.61
-0.62
-0.615
-0.625
-0.625
-0.62
-0.605
-0.585
-0.58
-0.56
-0.53
-0.515
-0.5
-0.485
-0.465
-0.46
-0.45
-0.445
-0.435
-0.435
-0.415
-0.41
-0.395
-0.405
-0.405
-0.4
-0.395
-0.405
-0.405
-0.42
-0.42
-0.425
-0.42
-0.415
-0.41
-0.41
-0.425
-0.425
-0.435
-0.445
-0.46
-0.46
-0.45
-0.465
-0.46
-0.47
-0.46
-0.445
-0.46
-0.465
-0.47
-0.485
-0.495
-0.505
-0.51
-0.515
-0.505
-0.51
-0.515
-0.52
-0.52
-0.525
-0.53
-0.545
-0.56
-0.555
-0.56
-0.56
-0.565
-0.575
-0.56
-0.565
-0.565
-0.585
-0.605
-0.605
-0.61
-0.615
-0.605
-0.605
-0.605
-0.6
-0.595
-0.59
-0.595
-0.595
-0.59
-0.605
-0.6
-0.61
-0.595
-0.595
-0.59
-0.575
-0.57
-0.565
-0.555
-0.57
-0.565
-0.57
-0.565
-0.575
-0.565
-0.565
-0.56
-0.535
-0.515
-0.52
-0.51
-0.5
-0.5
-0.495
-0.495
-0.495
