Lead II
-1.205
-1.195
-1.205
-1.205
-1.205
-1.185
-1.195
-1.185
-1.18
-1.18
-1.185
-1.165
-1.17
-1.14
-1.15
-1.135
-1.135
-1.115
-1.125
-1.105
-1.1
-1.1
-1.1
-1.105
-1.1
-1.09
-1.075
-1.07
-1.06
-1.055
-1.045
-1.04
-1.055
-1.075
-1.1
-1.115
-1.14
-1.135
-1.15
-1.155
-1.15
-1.165
-1.19
-1.215
-1.235
-1.27
-1.295
-1.325
-1.345
-1.335
-1.335
-1.33
-1.335
-1.31
-1.295
-1.295
-1.285
-1.29
-1.31
-1.31
-1.33
-1.33
-1.33
-1.315
-1.26
-1.185
-1.06
-0.835
-0.585
-0.21
0.205
0.66
1.14
1.61
1.995
2.29
2.45
2.48
2.365
2.095
1.565
0.925
0.285
-0.355
-0.995
-1.635
-1.75
-1.495
-1.225
-1.03
-0.955
-0.985
-1.075
-1.185
-1.265
-1.315
-1.335
-1.335
-1.325
-1.32
-1.295
-1.305
-1.285
-1.275
-1.275
-1.295
-1.295
-1.31
-1.3
-1.3
-1.305
-1.32
-1.29
-1.27
-1.255
-1.24
-1.23
-1.24
-1.225
-1.24
-1.23
-1.235
-1.225
-1.22
-1.21
-1.2
-1.195
-1.16
-1.16
-1.14
-1.125
-1.125
-1.1
-1.105
-1.095
-1.09
-1.06
-1.03
-1.005
-0.98
-0.95
-0.92
-0.91
-0.89
-0.885
-0.855
-0.825
-0.81
-0.77
-0.73
-0.695
-0.655
-0.65
-0.64
-0.62
-0.605
-0.6
-0.585
-0.605
-0.61
-0.585
-0.57
-0.57
-0.57
-0.58
-0.6
-0.62
-0.66
-0.7
-0.735
-0.785
-0.85
-0.885
-0.91
-0.96
-0.99
-1.025
-1.06
-1.08
-1.13
-1.165
-1.195
-1.22
-1.26
-1.275
-1.285
-1.29
-1.28
-1.285
-1.3
-1.295
-1.295
-1.31
-1.315
-1.33
-1.335
-1.34
-1.335
-1.335
-1.32
-1.33
-1.335
-1.335
-1.33
-1.345
-1.335
-1.345
-1.355
-1.345
-1.335
-1.33
-1.3
-1.29
-1.3
-1.29
-1.3
-1.305
-1.31
-1.315
-1.32
-1.3
-1.3
-1.29
-1.28
-1.275
-1.295
-1.305
-1.315
-1.315
-1.3
-1.32
-1.32
-1.325
-1.31
-1.3
-1.3
-1.29
-1.305
-1.305
-1.32
-1.31
-1.33
-1.34
-1.34
-1.335
-1.335
-1.315
-1.305
-1.305
-1.31
-1.32
-1.345
-1.355
-1.35
-1.365
-1.36
-1.365
-1.355
-1.35
-1.345
-1.35
-1.35
-1.345
-1.345
-1.365
-1.37
-1.375
-1.375
-1.365
-1.37
-1.35
-1.335
-1.32
-1.305
-1.3
-1.285
-1.285
-1.27
-1.285
-1.295
-1.28
-1.285
-1.265
-1.24
-1.235
-1.21
-1.21
-1.215
-1.205
-1.22
-1.2
-1.19
-1.205
-1.235
-1.235
-1.235
-1.245
-1.25
-1.245
-1.26
-1.28
-1.3
-1.33
-1.35
-1.37
-1.37
-1.4
-1.38
-1.395
-1.39
-1.38
-1.395
-1.395
-1.4
-1.405
-1.39
-1.39
-1.365
-1.37
-1.355
-1.35
-1.33
-1.315
-1.28
-1.22
-1.1
-0.91
-0.66
-0.345
0.035
0.445
0.9
1.335
1.75
2.05
2.185
2.1
1.7
1.06
0.42
-0.22
-0.86
-1.5
-1.94
-1.665
-1.39
-1.145
-1.05
-1.055
-1.135
-1.23
-1.315
-1.35
-1.37
-1.345
-1.325
-1.31
-1.315
-1.33
-1.34
-1.375
-1.37
-1.37
-1.36
-1.345
-1.31
-1.295
-1.275
-1.265
-1.27
-1.28
-1.28
-1.285
-1.295
-1.29
-1.3
-1.275
-1.245
-1.225
-1.22
-1.2
-1.205
-1.195
-1.2
-1.195
-1.19
-1.185
-1.16
-1.135
-1.115
-1.085
-1.055
-1.06
-1.03
-1.01
-1.015
-1.0
-0.99
-0.985
-0.945
-0.925
-0.895
-0.86
-0.825
-0.79
-0.76
-0.735
-0.72
-0.685
-0.67
-0.665
-0.65
-0.64
-0.615
-0.61
-0.595
-0.58
-0.58
-0.59
-0.595
-0.61
-0.635
-0.65
-0.69
-0.72
-0.735
-0.77
-0.805
-0.84
-0.885
-0.94
-0.98
-1.025
-1.065
-1.1
-1.13
-1.16
-1.18
-1.195
-1.2
-1.205
-1.215
-1.23
-1.235
-1.255
-1.265
-1.27
-1.285
-1.305
-1.29
-1.28
-1.28
-1.29
-1.265
-1.27
-1.295
-1.305
-1.295
-1.285
-1.285
-1.27
-1.255
-1.24
-1.235
-1.225
-1.23
-1.24
-1.235
-1.25
-1.24
-1.24
-1.24
-1.24
-1.205
-1.195
-1.165
-1.145
-1.14
-1.14
-1.16
-1.165
-1.16
-1.16
-1.165
-1.15
-1.135
-1.12
-1.11
-1.11
-1.11
-1.11
-1.11
-1.11
-1.115
-1.125
-1.115
-1.11
-1.085
-1.07
-1.04
-1.01
-0.98
-0.945
-0.925
-0.885
-0.83
-0.77
-0.7
-0.62
-0.53
-0.42
-0.31
-0.2
-0.095
-0.015
0.07
0.155
0.23
0.315
0.385
0.48
0.57
0.67
0.815
0.965
1.105
1.27
1.415
1.565
1.67
1.74
1.775
1.815
1.885
1.995
2.185
2.37
2.535
2.635
2.72
2.725
2.685
2.62
2.515
2.315
1.985
1.44
0.8
0.16
-0.48
-0.985
-1.15
-1.17
-1.135
-1.105
-1.135
-1.205
-1.27
-1.355
-1.4
-1.42
-1.44
-1.465
-1.49
-1.525
-1.57
-1.62
-1.67
-1.705
-1.715
-1.725
-1.73
-1.725
-1.745
-1.755
-1.8
-1.81
-1.825
-1.83
-1.865
-1.875
-1.865
-1.885
-1.885
-1.89
-1.9
-1.925
-1.94
-1.97
-2.0
-2.02
-2.045
-2.065
-2.08
-2.075
-2.095
-2.115
-2.14
-2.165
-2.18
-2.185
-2.205
-2.205
-2.19
-2.195
-2.18
-2.145
-2.125
-2.105
-2.075
-2.04
-2.015
-2.005
-1.965
-1.93
-1.885
-1.83
-1.78
-1.705
-1.625
-1.565
-1.51
-1.455
-1.42
-1.385
-1.375
-1.33
-1.305
-1.295
-1.28
-1.265
-1.26
-1.255
-1.255
-1.26
-1.275
-1.29
-1.29
-1.31
-1.345
-1.34
-1.315
-1.315
-1.295
-1.285
-1.29
-1.29
-1.29
-1.31
-1.315
-1.315
-1.31
-1.31
-1.3
-1.305
-1.3
-1.27
-1.26
-1.25
-1.275
-1.285
-1.295
-1.295
-1.3
-1.295
-1.285
-1.26
-1.245
-1.235
-1.245
-1.255
-1.275
-1.27
-1.28
-1.28
-1.28
-1.29
-1.275
-1.27
-1.26
-1.265
-1.265
-1.27
-1.27
-1.295
-1.295
-1.285
-1.3
-1.3
-1.285
-1.27
-1.27
-1.265
-1.25
-1.26
-1.275
-1.3
-1.305
-1.305
-1.3
-1.3
-1.285
-1.265
-1.275
-1.265
-1.265
-1.27
-1.285
-1.285
-1.31
-1.3
-1.295
-1.295
-1.285
-1.27
-1.255
-1.25
-1.25
-1.26
-1.28
-1.285
-1.32
-1.315
-1.305
-1.31
-1.31
-1.28
-1.275
-1.26
-1.245
-1.255
-1.265
-1.26
-1.275
-1.28
-1.28
-1.285
-1.275
-1.27
-1.285
-1.275
-1.265
-1.245
-1.255
-1.26
-1.275
-1.265
-1.27
-1.265
-1.25
-1.25
-1.235
-1.215
-1.24
-1.235
-1.245
-1.26
-1.25
-1.255
-1.255
-1.24
-1.245
-1.21
-1.22
-1.2
-1.205
-1.215
-1.225
-1.225
-1.24
-1.25
-1.25
-1.245
-1.235
-1.23
-1.215
-1.21
-1.195
-1.195
-1.19
-1.19
-1.205
-1.22
-1.215
-1.21
-1.215
-1.195
-1.18
-1.175
-1.19
-1.19
-1.18
-1.18
-1.16
-1.145
-1.115
-1.11
-1.075
-1.065
-1.065
-1.055
-1.06
-1.055
-1.075
-1.055
-1.065
-1.055
-1.05
-1.035
-0.99
-0.965
-0.95
-0.945
-0.95
-0.97
-0.995
-1.01
-1.045
-1.03
-1.04
-1.035
-1.03
-1.025
-1.02
-1.045
-1.07
-1.095
-1.13
-1.145
-1.185
-1.2
-1.205
-1.185
-1.19
-1.165
-1.165
-1.135
-1.13
-1.14
-1.14
-1.155
-1.155
-1.165
-1.16
-1.135
-1.115
-1.05
-0.98
-0.87
-0.72
-0.49
-0.21
0.125
0.49
0.89
1.295
1.71
2.09
2.345
2.44
2.33
1.885
1.245
0.605
-0.035
-0.675
-1.315
-1.53
-1.275
-1.01
-0.865
-0.8
-0.81
-0.915
-1.0
-1.07
-1.105
-1.125
-1.12
-1.105
-1.095
-1.08
-1.065
-1.06
-1.055
-1.05
-1.045
-1.05
-1.04
-1.04
-1.04
-1.035
-1.045
-1.06
-1.05
-1.025
-1.005
-0.995
-1.0
-1.0
-1.0
-1.005
-0.99
-0.97
-0.965
-0.95
-0.93
-0.91
-0.885
-0.87
-0.86
-0.86
-0.845
-0.835
-0.835
-0.79
-0.77
-0.75
-0.71
-0.7
-0.665
-0.64
-0.6
-0.58
-0.565
-0.545
-0.53
-0.5
-0.485
-0.44
-0.41
-0.37
-0.335
-0.3
-0.275
-0.255
-0.22
-0.225
-0.2
-0.195
-0.175
-0.16
-0.135
-0.105
-0.095
-0.1
-0.11
-0.14
-0.165
-0.195
-0.21
-0.23
-0.26
-0.29
-0.33
-0.37
-0.405
-0.475
-0.545
-0.605
-0.67
-0.715
-0.77
-0.79
-0.815
-0.815
-0.835
-0.84
-0.84
-0.88
-0.91
-0.93
-0.945
-0.975
-0.985
-1.0
-0.985
-0.975
-0.955
-0.945
-0.945
-0.95
-0.955
-0.98
-0.99
-0.995
-1.01
-1.015
-1.0
-1.005
-1.01
-0.99
-0.99
-0.98
-0.965
-0.955
-0.975
-0.98
-0.985
-0.99
-1.0
-0.99
-0.99
-0.98
-0.97
-0.97
-0.98
-1.0
-1.01
-1.02
-1.035
-1.025
-1.03
-1.03
-1.015
-1.02
-1.0
-1.02
-1.02
-1.05
-1.07
-1.08
-1.09
-1.085
-1.085
-1.09
-1.11
-1.095
-1.085
-1.09
-1.095
-1.105
-1.125
-1.13
-1.145
-1.15
-1.14
-1.125
-1.12
-1.115
-1.115
-1.11
-1.11
-1.115
-1.12
-1.135
-1.135
-1.155
-1.15
-1.15
-1.125
-1.1
-1.07
-1.055
-1.08
-1.08
-1.065
-1.075
-1.075
-1.07
-1.075
-1.065
-1.065
-1.045
-1.03
-1.02
-1.015
-1.03
-1.02
-1.025
-1.025
-1.03
-1.025
-1.03
-1.0
-1.0
-1.01
-1.02
-1.05
-1.06
-1.075
-1.095
-1.1
-1.125
-1.155
-1.17
-1.17
-1.185
-1.2
-1.195
-1.19
-1.19
-1.19
-1.19
-1.21
-1.21
-1.205
-1.2
-1.2
-1.17
-1.155
-1.155
-1.15
-1.17
-1.17
-1.19
-1.17
-1.125
-1.05
-0.92
-0.735
-0.49
-0.17
0.165
0.555
0.965
1.39
1.795
2.085
2.27
2.315
2.11
1.635
0.995
0.355
-0.285
-0.925
-1.565
-1.815
-1.56
-1.255
-0.98
-0.83
-0.805
-0.875
-0.96
-1.03
-1.095
-1.125
-1.135
-1.14
-1.135
-1.125
-1.125
-1.13
-1.095
-1.085
-1.08
-1.09
-1.085
-1.08
-1.05
-1.05
-1.05
-1.045
-1.05
-1.04
-1.025
-1.025
-1.015
-0.99
-0.98
-0.965
-0.98
-0.965
-0.98
-0.99
-0.975
-0.96
-0.94
-0.91
-0.88
-0.875
-0.86
-0.85
-0.84
-0.825
-0.825
-0.82
-0.81
-0.785
-0.77
-0.745
-0.715
-0.705
-0.67
-0.65
-0.625
-0.615
-0.595
-0.575
-0.535
-0.51
-0.485
-0.455
-0.42
-0.395
-0.37
-0.37
-0.365
-0.355
-0.365
-0.345
-0.355
-0.345
-0.34
-0.36
-0.355
-0.345
-0.365
-0.39
-0.425
-0.47
-0.525
-0.565
-0.61
-0.65
-0.675
-0.71
-0.74
-0.77
-0.805
-0.825
-0.86
-0.895
-0.94
-0.96
-0.975
-1.0
-0.995
-1.01
-1.02
-1.025
-1.025
-1.035
-1.03
-1.035
-1.05
-1.06
-1.055
-1.06
-1.065
-1.045
-1.045
-1.045
-1.03
-1.045
-1.05
-1.06
-1.075
-1.08
-1.085
-1.08
-1.07
-1.08
-1.03
-1.035
-1.03
-1.03
-1.025
-1.03
-1.04
-1.04
-1.04
-1.03
-1.04
-1.01
-1.015
-1.005
-1.03
-1.04
-1.025
-1.015
-1.025
-1.03
-1.04
-1.035
-1.035
-1.035
-1.025
-1.035
-1.04
-1.035
-1.03
-1.04
-1.05
-1.06
-1.08
-1.08
-1.07
-1.07
-1.06
-1.04
-1.045
-1.045
-1.06
-1.075
-1.075
-1.065
-1.075
-1.09
-1.08
-1.075
-1.08
-1.08
-1.085
-1.075
-1.1
-1.09
-1.105
-1.11
-1.11
-1.11
-1.105
-1.09
-1.095
-1.1
-1.095
-1.085
-1.075
-1.085
-1.08
-1.065
-1.04
-1.02
-1.0
-0.975
-0.965
-0.95
-0.945
-0.95
-0.95
-0.975
-0.99
-1.0
-0.98
-0.975
-0.935
-0.915
-0.875
-0.855
-0.855
-0.86
-0.87
-0.89
-0.915
-0.935
-0.94
-0.96
-0.955
-0.975
-0.985
-0.97
-0.995
-1.03
-1.06
-1.095
-1.11
-1.15
-1.165
-1.175
-1.19
-1.165
-1.155
-1.155
-1.15
-1.12
-1.14
-1.165
-1.175
-1.18
-1.19
-1.185
-1.17
-1.155
-1.12
-1.065
-0.99
-0.835
-0.62
-0.345
-0.01
0.35
0.71
1.13
1.55
1.965
2.31
2.52
2.55
2.31
1.785
1.145
0.505
-0.135
-0.775
-1.415
-1.57
-1.25
-0.975
-0.79
-0.775
-0.85
-0.965
-1.085
-1.14
-1.18
-1.2
-1.19
-1.165
-1.15
-1.15
-1.13
-1.125
-1.145
-1.12
-1.12
-1.135
-1.115
-1.11
-1.115
-1.095
-1.09
-1.085
-1.1
-1.105
-1.105
-1.105
-1.085
-1.08
-1.07
-1.07
-1.08
-1.06
-1.025
-1.03
-1.0
-0.965
-0.965
-0.97
-0.965
-0.97
-0.965
-0.955
-0.925
-0.9
-0.86
-0.83
-0.79
-0.755
-0.735
-0.71
-0.675
-0.65
-0.625
-0.59
-0.565
-0.53
-0.485
-0.465
-0.415
-0.375
-0.36
-0.355
-0.36
-0.36
-0.345
-0.345
-0.33
-0.35
-0.335
-0.345
-0.37
-0.385
-0.41
-0.45
-0.5
-0.57
-0.615
-0.645
-0.685
-0.73
-0.78
-0.84
-0.88
-0.925
-0.965
-1.005
-1.045
-1.095
-1.12
-1.155
-1.175
-1.185
-1.185
-1.19
-1.185
-1.185
-1.2
-1.22
-1.23
-1.24
-1.24
-1.26
-1.26
-1.245
-1.235
-1.225
-1.22
-1.22
-1.225
-1.23
-1.23
-1.235
-1.225
-1.23
-1.22
-1.225
-1.225
-1.22
-1.19
-1.185
-1.185
-1.17
-1.19
-1.215
-1.21
-1.215
-1.225
-1.215
-1.2
-1.19
-1.17
-1.165
-1.155
-1.185
-1.18
-1.205
-1.215
-1.225
-1.215
-1.215
-1.21
-1.205
-1.21
-1.2
-1.21
-1.235
-1.24
-1.26
-1.255
-1.27
-1.28
-1.285
-1.265
-1.27
-1.23
-1.25
-1.245
-1.25
-1.275
-1.29
-1.29
-1.295
-1.29
-1.285
-1.27
-1.28
-1.26
-1.27
-1.27
-1.265
-1.26
-1.285
-1.3
-1.31
-1.295
-1.275
-1.245
-1.215
-1.19
-1.19
-1.195
-1.205
-1.195
-1.215
-1.205
-1.205
-1.22
-1.19
-1.17
-1.165
-1.135
-1.11
-1.1
-1.1
-1.1
-1.11
-1.12
-1.145
-1.175
-1.185
-1.19
-1.205
-1.2
-1.21
-1.235
-1.265
-1.31
-1.34
-1.35
-1.375
-1.37
-1.365
-1.345
-1.35
-1.325
-1.32
-1.32
-1.335
-1.345
-1.35
-1.335
-1.34
-1.33
-1.325
-1.285
-1.245
-1.215
-1.165
-1.095
-0.99
-0.845
-0.615
-0.335
0.005
0.4
0.845
1.305
1.72
2.025
2.125
1.955
1.465
0.825
0.185
-0.455
-1.095
-1.735
-1.925
-1.63
-1.31
-1.07
-0.965
-0.975
-1.05
-1.12
-1.205
-1.25
-1.29
-1.27
-1.24
-1.21
-1.2
-1.195
-1.205
-1.205
-1.21
-1.225
-1.24
-1.245
-1.23
-1.23
-1.205
-1.195
-1.165
-1.15
-1.16
-1.175
-1.19
-1.16
-1.16
-1.14
-1.14
-1.13
-1.135
-1.105
-1.08
-1.055
-1.05
-1.04
-1.04
-1.045
-1.04
-1.04
-1.03
-1.03
-0.99
-0.965
-0.945
-0.91
-0.875
-0.85
-0.835
-0.825
-0.8
-0.765
-0.765
-0.75
-0.745
-0.705
-0.7
-0.665
-0.625
-0.61
-0.595
-0.58
-0.575
-0.565
-0.55
-0.535
-0.53
-0.52
-0.51
-0.505
-0.52
-0.535
-0.555
-0.58
-0.6
-0.625
-0.645
-0.685
-0.725
-0.765
-0.815
-0.845
-0.885
-0.925
-0.955
-1.015
-1.07
-1.1
-1.135
-1.14
-1.155
-1.18
-1.19
-1.17
-1.165
-1.17
-1.19
-1.195
-1.195
-1.21
-1.21
-1.21
-1.225
-1.215
-1.185
-1.175
-1.17
-1.185
-1.17
-1.18
-1.175
-1.19
-1.205
-1.19
-1.17
-1.18
-1.15
-1.135
-1.145
-1.14
-1.15
-1.155
-1.155
-1.155
-1.175
-1.17
-1.165
-1.145
-1.15
-1.135
-1.125
-1.14
-1.15
-1.165
-1.175
-1.17
-1.18
-1.19
-1.2
-1.19
-1.19
-1.195
-1.185
-1.19
-1.18
-1.195
-1.185
-1.195
-1.21
-1.22
-1.215
-1.21
-1.205
-1.195
-1.19
-1.19
-1.2
-1.21
-1.215
-1.225
-1.245
-1.245
-1.235
-1.22
-1.21
-1.195
-1.195
-1.19
-1.2
-1.215
-1.22
-1.22
-1.21
-1.2
-1.21
-1.205
-1.19
-1.18
-1.165
-1.14
-1.13
-1.11
-1.11
-1.105
-1.12
-1.125
-1.105
-1.1
-1.095
-1.08
-1.07
-1.07
-1.055
-1.04
-1.045
-1.025
-1.01
-1.01
-1.0
-1.005
-1.0
-1.01
-1.015
-1.04
-1.055
-1.09
-1.095
-1.11
-1.135
-1.145
-1.17
-1.19
-1.2
-1.195
-1.225
-1.225
-1.24
-1.25
-1.27
-1.265
-1.265
-1.27
-1.25
-1.23
-1.25
-1.21
-1.22
-1.225
-1.235
-1.245
-1.245
-1.23
-1.215
-1.18
-1.11
-0.98
-0.805
-0.545
-0.22
0.15
0.55
1.0
1.425
1.815
2.135
2.305
2.335
2.145
1.695
1.055
0.415
-0.225
-0.865
-1.505
-1.875
-1.65
-1.355
-1.075
-0.9
-0.85
-0.885
-0.965
-1.045
-1.125
-1.165
-1.195
-1.18
-1.18
-1.175
-1.175
-1.17
-1.16
-1.145
-1.115
-1.11
-1.105
-1.095
-1.1
-1.115
-1.125
-1.14
-1.13
-1.115
-1.095
-1.08
-1.045
-1.05
-1.04
-1.05
-1.06
-1.055
-1.045
-1.05
-1.025
-1.04
-0.985
-0.975
-0.96
-0.935
-0.93
-0.925
-0.92
-0.915
-0.89
-0.875
-0.86
-0.84
-0.8
-0.795
-0.75
-0.73
-0.725
-0.69
-0.66
-0.645
-0.64
-0.62
-0.565
-0.54
-0.495
-0.465
-0.44
-0.41
-0.4
-0.375
-0.365
-0.35
-0.34
-0.34
-0.335
-0.305
-0.305
-0.305
-0.305
-0.33
-0.34
-0.35
-0.39
-0.395
-0.43
-0.465
-0.5
-0.545
-0.595
-0.625
-0.66
-0.71
-0.755
-0.795
-0.83
-0.865
-0.905
-0.94
-0.97
-0.98
-0.995
-1.01
-1.015
-1.03
-1.055
-1.055
-1.055
-1.075
-1.075
-1.085
-1.085
-1.085
-1.07
-1.07
-1.06
-1.06
-1.065
-1.065
-1.075
-1.07
-1.07
-1.08
-1.09
-1.085
-1.08
-1.075
-1.055
-1.035
-1.055
-1.05
-1.055
-1.06
-1.05
-1.05
-1.06
-1.05
-1.045
-1.04
-1.03
-1.02
-1.015
-1.01
-1.03
-1.035
-1.055
-1.06
-1.075
-1.075
-1.04
-1.045
-1.035
-1.04
-1.04
-1.05
-1.08
-1.075
-1.09
-1.105
-1.1
-1.1
-1.095
-1.085
-1.085
-1.1
-1.09
-1.115
-1.13
-1.12
-1.15
-1.125
-1.13
-1.125
-1.11
-1.11
-1.115
-1.115
-1.12
-1.12
-1.135
-1.125
-1.15
-1.14
-1.155
-1.155
-1.14
-1.135
-1.125
-1.115
-1.115
-1.115
-1.1
-1.095
-1.08
-1.065
-1.055
-1.035
-1.02
-1.01
-0.99
-0.985
-1.02
-1.005
-1.02
-1.015
-1.005
-0.99
-0.975
-0.95
-0.93
-0.915
-0.915
-0.92
-0.94
-0.955
-0.985
-0.985
-1.005
-1.02
-1.045
-1.04
-1.05
-1.07
-1.08
-1.115
-1.15
-1.165
-1.2
-1.225
-1.22
-1.24
-1.245
-1.235
-1.23
-1.205
-1.19
-1.185
-1.185
-1.185
-1.195
-1.2
-1.205
-1.23
-1.235
-1.21
-1.175
-1.11
-0.99
-0.835
-0.61
-0.29
0.07
0.49
0.975
1.45
1.92
2.28
2.5
2.55
2.41
2.035
1.395
0.755
0.115
-0.525
-1.165
-1.805
-1.775
-1.44
-1.095
-0.865
-0.79
-0.85
-0.965
-1.08
-1.18
-1.225
-1.235
-1.215
-1.205
-1.18
-1.16
-1.145
-1.14
-1.145
-1.145
-1.15
-1.155
-1.15
-1.145
-1.125
-1.13
-1.125
-1.115
-1.105
-1.07
-1.06
-1.055
-1.07
-1.065
-1.065
-1.07
-1.065
-1.06
-1.045
-1.03
-1.015
-0.99
-0.98
-0.975
-0.955
-0.97
-0.93
-0.92
-0.895
-0.9
-0.865
-0.82
-0.79
-0.77
-0.75
-0.73
-0.725
-0.71
-0.685
-0.66
-0.635
-0.61
-0.59
-0.545
-0.505
-0.455
-0.43
-0.415
-0.4
-0.4
-0.405
-0.385
-0.375
-0.38
-0.375
-0.355
-0.355
-0.35
-0.35
-0.355
-0.38
-0.425
-0.465
-0.515
-0.56
-0.61
-0.655
-0.695
-0.745
-0.785
-0.835
-0.87
-0.915
-0.96
-0.995
-1.035
-1.055
-1.08
-1.1
-1.1
-1.1
-1.105
-1.125
-1.145
-1.165
-1.18
-1.195
-1.205
-1.21
-1.21
-1.205
-1.22
-1.205
-1.19
-1.175
-1.185
-1.185
-1.185
-1.21
-1.22
-1.235
-1.245
-1.22
-1.2
-1.185
-1.18
-1.16
-1.17
-1.19
-1.19
-1.185
-1.19
-1.19
-1.19
-1.205
-1.205
-1.205
-1.16
-1.15
-1.155
-1.16
-1.175
-1.22
-1.205
-1.225
-1.235
-1.215
-1.22
-1.21
-1.2
-1.195
-1.205
-1.22
-1.24
-1.24
-1.25
-1.245
-1.24
-1.235
-1.235
-1.22
-1.215
-1.23
-1.23
-1.245
-1.265
-1.265
-1.27
-1.28
-1.28
-1.29
-1.29
-1.275
-1.27
-1.275
-1.265
-1.27
-1.26
-1.28
-1.29
-1.295
-1.295
-1.285
-1.28
-1.245
-1.215
-1.19
-1.18
-1.185
-1.19
-1.195
-1.19
-1.2
-1.2
-1.22
-1.21
-1.185
-1.155
-1.15
-1.135
-1.12
-1.13
-1.14
-1.13
-1.13
-1.135
-1.135
-1.125
-1.135
-1.155
-1.18
-1.18
-1.17
-1.19
-1.195
-1.23
-1.26
-1.295
-1.305
-1.315
-1.335
-1.34
-1.35
-1.365
-1.345
-1.36
-1.375
-1.37
-1.385
-1.375
-1.36
-1.37
-1.365
-1.365
-1.35
-1.35
-1.36
-1.34
-1.335
-1.305
-1.255
-1.16
-1.025
-0.785
-0.48
-0.11
0.335
0.81
1.29
1.73
2.08
2.25
2.23
1.875
1.235
0.595
-0.045
-0.685
-1.325
-1.965
-1.915
-1.59
-1.3
-1.11
-1.06
-1.075
-1.165
-1.24
-1.31
-1.335
-1.34
-1.33
-1.325
-1.33
-1.335
-1.34
-1.335
-1.345
-1.325
-1.315
-1.285
-1.255
-1.245
-1.245
-1.25
-1.26
-1.265
-1.255
-1.265
-1.245
-1.245
-1.22
-1.2
-1.18
-1.17
-1.15
-1.14
-1.125
-1.125
-1.13
-1.135
-1.12
-1.095
-1.075
-1.065
-1.03
-0.985
-0.995
-0.975
-0.945
-0.93
-0.905
-0.865
-0.84
-0.815
-0.78
-0.735
-0.69
-0.655
-0.635
-0.62
-0.605
-0.595
-0.575
-0.56
-0.545
-0.535
-0.525
-0.525
-0.51
-0.515
-0.525
-0.545
-0.575
-0.615
-0.64
-0.67
-0.7
-0.735
-0.755
-0.78
-0.82
-0.855
-0.915
-0.97
-1.01
-1.05
-1.095
-1.115
-1.145
-1.17
-1.195
-1.205
-1.215
-1.2
-1.205
-1.215
-1.21
-1.225
-1.23
-1.26
-1.255
-1.25
-1.24
-1.25
-1.235
-1.235
-1.22
-1.2
-1.215
-1.2
-1.215
-1.22
-1.23
-1.22
-1.195
-1.18
-1.175
-1.155
-1.155
-1.155
-1.17
-1.17
-1.19
-1.175
-1.18
-1.17
-1.16
-1.165
-1.145
-1.145
-1.14
-1.145
-1.15
-1.18
-1.17
-1.185
-1.215
-1.185
-1.175
-1.17
-1.15
-1.145
-1.165
-1.16
-1.195
-1.205
-1.205
-1.22
-1.21
-1.21
-1.2
-1.2
-1.195
-1.175
-1.175
-1.175
-1.2
-1.185
-1.215
-1.205
-1.205
-1.2
-1.215
-1.21
-1.205
-1.21
-1.19
-1.19
-1.19
-1.185
-1.185
-1.19
-1.2
-1.19
-1.195
-1.205
-1.195
-1.18
-1.175
-1.17
-1.155
-1.14
-1.12
-1.12
-1.105
-1.105
-1.09
-1.08
-1.055
-1.045
-1.065
-1.065
-1.075
-1.06
-1.05
-1.04
-1.02
-1.025
-1.005
-0.985
-0.965
-0.96
-0.965
-1.005
-1.01
-1.04
-1.055
-1.075
-1.085
-1.105
-1.115
-1.125
-1.15
-1.17
-1.175
-1.2
-1.21
-1.235
-1.26
-1.265
-1.265
-1.275
-1.245
-1.23
-1.235
-1.23
-1.215
-1.22
-1.24
-1.245
-1.25
-1.265
-1.26
-1.245
-1.22
-1.165
-1.105
-0.985
-0.83
-0.585
-0.275
0.08
0.505
0.955
1.425
1.855
2.195
2.385
2.425
2.205
1.72
1.08
0.44
-0.2
-0.84
-1.48
-1.925
-1.67
-1.37
-1.115
-0.925
-0.875
-0.915
-1.0
-1.1
-1.185
-1.225
-1.24
-1.22
-1.2
-1.185
-1.17
-1.155
-1.15
-1.155
-1.165
-1.16
-1.17
-1.175
-1.17
-1.15
-1.14
-1.135
-1.135
-1.125
-1.105
-1.105
-1.095
-1.095
-1.095
-1.09
-1.085
-1.09
-1.07
-1.055
-1.05
-1.015
-1.0
-0.98
-0.99
-0.99
-0.99
-0.995
-0.975
-0.95
-0.935
-0.91
-0.89
-0.875
-0.845
-0.825
-0.81
-0.795
-0.785
-0.775
-0.755
-0.72
-0.71
-0.66
-0.62
-0.575
-0.555
-0.525
-0.51
-0.52
-0.49
-0.465
-0.435
-0.415
-0.39
-0.365
-0.37
-0.355
-0.335
-0.345
-0.34
-0.36
-0.39
-0.395
-0.435
-0.455
-0.48
-0.52
-0.54
-0.585
-0.625
-0.67
-0.725
-0.78
-0.83
-0.89
-0.925
-0.965
-0.98
-1.01
-1.03
-1.035
-1.05
-1.055
-1.085
-1.11
-1.13
-1.13
-1.15
-1.145
-1.16
-1.155
-1.145
-1.135
-1.135
-1.135
-1.145
-1.145
-1.16
-1.165
-1.145
-1.15
-1.15
-1.135
-1.12
-1.11
-1.1
-1.1
-1.105
-1.105
-1.105
-1.12
-1.11
-1.12
-1.105
-1.105
-1.1
-1.09
-1.075
-1.08
-1.085
-1.11
-1.115
-1.115
-1.125
-1.105
-1.11
-1.105
-1.1
-1.105
-1.095
-1.1
-1.1
-1.12
-1.125
-1.14
-1.145
-1.155
-1.145
-1.145
-1.13
-1.125
-1.135
-1.13
-1.13
-1.145
-1.15
-1.17
-1.195
-1.2
-1.22
-1.2
-1.185
-1.18
-1.165
-1.17
-1.17
-1.18
-1.2
-1.205
-1.205
-1.205
-1.2
-1.21
-1.18
-1.165
-1.16
-1.16
-1.16
-1.17
-1.16
-1.14
-1.12
-1.09
-1.08
-1.06
-1.05
-1.05
-1.045
-1.055
-1.05
-1.045
-1.05
-1.04
-1.03
-1.01
-1.0
-0.97
-0.955
-0.945
-0.94
-0.95
-0.965
-0.99
-1.035
-1.05
-1.085
-1.11
-1.13
-1.145
-1.155
-1.175
-1.185
-1.215
-1.22
-1.235
-1.245
-1.245
-1.245
-1.245
-1.245
-1.25
-1.26
-1.235
-1.23
-1.225
-1.235
-1.245
-1.26
-1.265
-1.265
-1.23
-1.175
-1.08
-0.935
-0.74
-0.475
-0.155
0.2
0.58
0.975
1.395
1.82
2.165
2.4
2.5
2.4
2.05
1.41
0.77
0.13
-0.51
-1.15
-1.79
-1.655
-1.31
-1.02
-0.87
-0.845
-0.915
-1.01
-1.12
-1.2
-1.24
-1.26
-1.26
-1.24
-1.25
-1.245
-1.235
-1.215
-1.22
-1.205
-1.195
-1.185
-1.17
-1.195
-1.19
-1.175
-1.17
-1.18
-1.165
-1.145
-1.14
-1.125
-1.115
-1.11
-1.1
-1.115
-1.125
-1.115
-1.11
-1.12
-1.075
-1.06
-1.03
-1.01
-0.99
-0.975
-0.985
-0.975
-0.965
-0.95
-0.94
-0.915
-0.88
-0.855
-0.83
-0.785
-0.75
-0.735
-0.71
-0.68
-0.665
-0.645
-0.62
-0.595
-0.565
-0.52
-0.505
-0.465
-0.425
-0.41
-0.395
-0.39
-0.39
-0.385
-0.37
-0.365
-0.355
-0.345
-0.34
-0.345
-0.365
-0.39
-0.42
-0.46
-0.49
-0.525
-0.58
-0.615
-0.66
-0.685
-0.72
-0.75
-0.795
-0.84
-0.905
-0.975
-1.015
-1.045
-1.08
-1.1
-1.12
-1.12
-1.115
-1.125
-1.125
-1.115
-1.13
-1.135
-1.155
-1.16
-1.17
-1.17
-1.16
-1.155
-1.15
-1.135
-1.14
-1.135
-1.155
-1.165
-1.16
-1.165
-1.17
-1.145
-1.15
-1.135
-1.115
-1.11
-1.1
-1.105
-1.11
-1.145
-1.13
-1.15
-1.15
-1.155
-1.14
-1.13
-1.12
-1.125
-1.105
-1.115
-1.125
-1.145
-1.14
-1.15
-1.17
-1.18
-1.185
-1.175
-1.19
-1.19
-1.195
-1.17
-1.195
-1.2
-1.21
-1.225
-1.22
-1.23
-1.235
-1.225
-1.21
-1.215
-1.21
-1.235
-1.235
-1.24
-1.245
-1.25
-1.25
-1.245
-1.255
-1.245
-1.255
-1.24
-1.25
-1.255
-1.26
-1.27
-1.28
-1.3
-1.305
-1.305
-1.305
-1.295
-1.27
-1.255
-1.24
-1.235
-1.225
-1.21
-1.19
-1.205
-1.195
-1.195
-1.19
-1.195
-1.2
-1.17
-1.165
-1.155
-1.145
-1.13
-1.125
-1.125
-1.11
-1.1
-1.095
-1.105
-1.105
-1.125
-1.135
-1.13
-1.17
-1.17
-1.19
-1.205
-1.235
-1.255
-1.28
-1.29
-1.305
-1.31
-1.315
-1.335
-1.36
-1.375
-1.38
-1.38
-1.395
-1.38
-1.375
-1.37
-1.35
-1.335
-1.325
-1.33
-1.345
-1.365
-1.35
-1.36
-1.33
-1.29
-1.2
-1.075
-0.865
-0.57
-0.245
0.13
0.515
0.94
1.385
1.825
2.18
2.335
2.295
1.96
1.32
0.68
0.04
-0.6
-1.24
-1.88
-1.76
-1.43
-1.16
-1.025
-0.99
-1.065
-1.17
-1.255
-1.305
-1.35
-1.33
-1.335
-1.345
-1.34
-1.335
-1.355
-1.34
-1.34
-1.335
-1.31
-1.31
-1.29
-1.295
-1.285
-1.29
-1.29
-1.285
-1.29
-1.295
-1.3
-1.275
-1.25
-1.225
-1.205
-1.225
-1.205
-1.22
-1.21
-1.225
-1.205
-1.175
-1.155
-1.14
-1.095
-1.085
-1.07
-1.065
-1.055
-1.05
-1.025
-1.02
-1.005
-0.98
-0.95
-0.92
-0.87
-0.845
-0.82
-0.795
-0.755
-0.735
-0.7
-0.68
-0.645
-0.62
-0.585
-0.575
-0.525
-0.515
-0.515
-0.515
-0.51
-0.51
-0.505
-0.515
-0.51
-0.51
-0.515
-0.545
-0.535
-0.575
-0.61
-0.655
-0.71
-0.76
-0.82
-0.87
-0.92
-0.955
-1.005
-1.025
-1.045
-1.08
-1.115
-1.16
-1.2
-1.23
-1.24
-1.275
-1.285
-1.28
-1.28
-1.28
-1.275
-1.285
-1.295
-1.295
-1.305
-1.3
-1.32
-1.315
-1.335
-1.335
-1.33
-1.325
-1.315
-1.315
-1.305
-1.31
-1.305
-1.3
-1.29
-1.3
-1.3
-1.295
-1.285
-1.255
-1.25
-1.24
-1.245
-1.25
-1.26
-1.27
-1.265
-1.28
-1.27
-1.27
-1.255
-1.24
-1.225
-1.24
-1.245
-1.25
-1.265
-1.285
-1.285
-1.29
-1.285
-1.285
-1.275
-1.265
-1.275
-1.265
-1.295
-1.3
-1.325
-1.335
-1.34
-1.35
-1.35
-1.33
-1.325
-1.325
-1.295
-1.295
-1.29
-1.29
-1.31
-1.305
-1.33
-1.325
-1.325
-1.325
-1.33
-1.32
-1.31
-1.31
-1.305
-1.31
-1.325
-1.33
-1.34
-1.34
-1.35
-1.34
-1.3
-1.295
-1.28
-1.26
-1.245
-1.23
-1.225
-1.235
-1.22
-1.22
-1.21
-1.19
-1.205
-1.185
-1.165
-1.155
-1.15
-1.145
-1.115
-1.115
-1.105
-1.1
-1.09
-1.09
-1.095
-1.09
-1.085
-1.09
-1.1
-1.12
-1.13
-1.14
-1.17
-1.18
-1.21
-1.225
-1.255
-1.265
-1.265
-1.29
-1.3
-1.305
-1.325
-1.325
-1.31
-1.31
-1.305
-1.29
-1.305
-1.275
-1.26
-1.255
-1.27
-1.265
-1.285
-1.29
-1.26
-1.27
-1.235
-1.155
-1.05
-0.865
-0.625
-0.32
0.025
0.395
0.78
1.185
1.565
1.905
2.2
2.395
2.47
2.45
2.22
1.745
1.105
0.465
-0.175
-0.815
-1.455
-1.905
-1.665
-1.345
-1.09
-0.935
-0.9
-0.98
-1.05
-1.145
-1.205
-1.245
-1.22
-1.215
-1.21
-1.2
-1.19
-1.18
-1.175
-1.16
-1.18
-1.185
-1.175
-1.19
-1.18
-1.155
-1.16
-1.13
-1.12
-1.11
-1.09
-1.085
-1.1
-1.08
-1.095
-1.085
-1.07
-1.08
-1.075
-1.055
-1.04
-0.995
-0.975
-0.955
-0.945
-0.935
-0.93
-0.91
-0.895
-0.895
-0.865
-0.845
-0.82
-0.8
-0.755
-0.765
-0.715
-0.72
-0.7
-0.68
-0.665
-0.635
-0.61
-0.565
-0.51
-0.49
-0.425
-0.4
-0.375
-0.36
-0.35
-0.355
-0.35
-0.34
-0.325
-0.315
-0.295
-0.29
-0.285
-0.3
-0.315
-0.345
-0.36
-0.4
-0.445
-0.495
-0.54
-0.595
-0.625
-0.69
-0.72
-0.77
-0.81
-0.855
-0.885
-0.92
-0.935
-0.965
-0.99
-1.02
-1.04
-1.06
-1.075
-1.085
-1.095
-1.105
-1.125
-1.13
-1.135
-1.135
-1.135
-1.13
-1.135
-1.12
-1.105
-1.095
-1.1
