Lead II
-0.19
-0.175
-0.165
-0.145
-0.135
-0.145
-0.16
-0.15
-0.13
-0.13
-0.13
-0.135
-0.135
-0.125
-0.095
-0.085
-0.085
-0.09
-0.095
-0.09
-0.07
-0.05
-0.04
-0.04
-0.045
-0.045
-0.03
-0.02
-0.01
-0.025
-0.045
-0.06
-0.055
-0.05
-0.065
-0.085
-0.1
-0.105
-0.105
-0.095
-0.11
-0.135
-0.155
-0.155
-0.15
-0.14
-0.15
-0.155
-0.18
-0.185
-0.18
-0.175
-0.175
-0.19
-0.205
-0.215
-0.18
-0.175
-0.175
-0.195
-0.2
-0.185
-0.17
-0.16
-0.165
-0.175
-0.18
-0.175
-0.16
-0.165
-0.15
-0.155
-0.16
-0.16
-0.125
-0.11
-0.11
-0.13
-0.13
-0.135
-0.12
-0.11
-0.1
-0.12
-0.135
-0.15
-0.135
-0.115
-0.12
-0.145
-0.16
-0.165
-0.145
-0.13
-0.145
-0.16
-0.195
-0.195
-0.18
-0.17
-0.165
-0.195
-0.2
-0.195
-0.18
-0.17
-0.17
-0.18
-0.21
-0.21
-0.18
-0.16
-0.16
-0.18
-0.195
-0.195
-0.18
-0.165
-0.18
-0.185
-0.195
-0.195
-0.19
-0.17
-0.165
-0.18
-0.185
-0.2
-0.195
-0.17
-0.175
-0.185
-0.195
-0.19
-0.18
-0.16
-0.165
-0.185
-0.195
-0.195
-0.18
-0.165
-0.17
-0.175
-0.185
-0.18
-0.17
-0.16
-0.16
-0.18
-0.175
-0.19
-0.17
-0.165
-0.145
-0.15
-0.155
-0.165
-0.135
-0.1
-0.075
-0.025
0.03
0.11
0.245
0.39
0.565
0.735
0.925
1.09
1.26
1.345
1.295
1.14
0.885
0.595
0.3
0.03
-0.245
-0.38
-0.405
-0.335
-0.265
-0.225
-0.2
-0.2
-0.22
-0.22
-0.255
-0.245
-0.26
-0.275
-0.29
-0.285
-0.275
-0.255
-0.265
-0.285
-0.29
-0.305
-0.295
-0.29
-0.29
-0.31
-0.32
-0.335
-0.305
-0.295
-0.3
-0.31
-0.32
-0.33
-0.31
-0.3
-0.305
-0.305
-0.33
-0.33
-0.34
-0.305
-0.3
-0.32
-0.33
-0.335
-0.315
-0.3
-0.295
-0.305
-0.315
-0.32
-0.295
-0.28
-0.29
-0.31
-0.31
-0.31
-0.285
-0.285
-0.275
-0.285
-0.295
-0.285
-0.275
-0.26
-0.275
-0.265
-0.265
-0.27
-0.245
-0.235
-0.235
-0.24
-0.26
-0.25
-0.22
-0.195
-0.195
-0.195
-0.195
-0.21
-0.185
-0.18
-0.175
-0.18
-0.19
-0.17
-0.16
-0.16
-0.155
-0.15
-0.175
-0.165
-0.15
-0.145
-0.135
-0.145
-0.17
-0.16
-0.16
-0.14
-0.145
-0.16
-0.17
-0.185
-0.165
-0.165
-0.17
-0.19
-0.22
-0.235
-0.23
-0.225
-0.235
-0.26
-0.28
-0.295
-0.29
-0.29
-0.29
-0.295
-0.305
-0.3
-0.305
-0.28
-0.285
-0.29
-0.3
-0.31
-0.29
-0.275
-0.28
-0.285
-0.29
-0.28
-0.265
-0.26
-0.235
-0.26
-0.27
-0.27
-0.245
-0.235
-0.245
-0.24
-0.275
-0.255
-0.23
-0.22
-0.225
-0.24
-0.24
-0.24
-0.235
-0.21
-0.225
-0.25
-0.265
-0.255
-0.245
-0.23
-0.245
-0.26
-0.28
-0.27
-0.25
-0.24
-0.245
-0.265
-0.285
-0.275
-0.255
-0.24
-0.25
-0.25
-0.25
-0.26
-0.26
-0.255
-0.26
-0.27
-0.285
-0.29
-0.275
-0.26
-0.27
-0.28
-0.3
-0.31
-0.295
-0.28
-0.285
-0.285
-0.3
-0.3
-0.285
-0.265
-0.28
-0.295
-0.325
-0.31
-0.3
-0.28
-0.275
-0.295
-0.305
-0.305
-0.305
-0.285
-0.28
-0.29
-0.31
-0.305
-0.29
-0.3
-0.295
-0.29
-0.3
-0.305
-0.31
-0.305
-0.3
-0.3
-0.31
-0.31
-0.3
-0.29
-0.3
-0.31
-0.33
-0.325
-0.325
-0.29
-0.305
-0.3
-0.305
-0.33
-0.31
-0.3
-0.305
-0.3
-0.31
-0.31
-0.285
-0.27
-0.275
-0.295
-0.315
-0.31
-0.3
-0.275
-0.29
-0.3
-0.305
-0.305
-0.275
-0.26
-0.255
-0.275
-0.275
-0.27
-0.26
-0.235
-0.24
-0.25
-0.275
-0.265
-0.25
-0.23
-0.235
-0.245
-0.27
-0.26
-0.245
-0.23
-0.24
-0.26
-0.28
-0.28
-0.26
-0.245
-0.24
-0.26
-0.235
-0.2
-0.14
-0.065
0.03
0.135
0.255
0.435
0.645
0.845
1.035
1.18
1.24
1.225
1.095
0.855
0.55
0.245
-0.04
-0.27
-0.395
-0.385
-0.355
-0.305
-0.285
-0.28
-0.28
-0.29
-0.3
-0.315
-0.32
-0.34
-0.345
-0.335
-0.355
-0.375
-0.38
-0.37
-0.365
-0.36
-0.375
-0.39
-0.395
-0.405
-0.395
-0.37
-0.38
-0.395
-0.41
-0.42
-0.4
-0.4
-0.39
-0.41
-0.42
-0.42
-0.405
-0.39
-0.395
-0.42
-0.425
-0.425
-0.4
-0.395
-0.395
-0.405
-0.4
-0.395
-0.385
-0.365
-0.365
-0.39
-0.405
-0.405
-0.39
-0.375
-0.385
-0.37
-0.37
-0.355
-0.335
-0.325
-0.335
-0.325
-0.345
-0.33
-0.32
-0.28
-0.275
-0.295
-0.28
-0.285
-0.27
-0.24
-0.255
-0.245
-0.245
-0.235
-0.225
-0.2
-0.21
-0.225
-0.25
-0.225
-0.215
-0.195
-0.21
-0.225
-0.22
-0.21
-0.185
-0.2
-0.205
-0.22
-0.24
-0.225
-0.2
-0.195
-0.19
-0.205
-0.22
-0.23
-0.225
-0.225
-0.24
-0.26
-0.27
-0.28
-0.255
-0.25
-0.28
-0.29
-0.315
-0.325
-0.305
-0.305
-0.315
-0.34
-0.35
-0.33
-0.33
-0.325
-0.34
-0.345
-0.345
-0.33
-0.305
-0.3
-0.295
-0.3
-0.3
-0.295
-0.27
-0.255
-0.27
-0.305
-0.31
-0.325
-0.33
-0.34
-0.355
-0.385
-0.415
-0.465
-0.51
-0.58
-0.725
-0.87
-1.035
-1.17
-1.235
-1.26
-1.255
-1.23
-1.2
-1.135
-1.065
-1.0
-0.965
-0.96
-0.96
-0.965
-0.96
-0.925
-0.915
-0.915
-0.905
-0.88
-0.84
-0.81
-0.76
-0.755
-0.75
-0.705
-0.655
-0.61
-0.57
-0.555
-0.5
-0.475
-0.415
-0.395
-0.36
-0.36
-0.35
-0.305
-0.27
-0.23
-0.21
-0.215
-0.2
-0.21
-0.185
-0.15
-0.145
-0.15
-0.145
-0.135
-0.11
-0.09
-0.075
-0.075
-0.08
-0.055
-0.03
-0.005
-0.015
0.005
-0.005
0.04
0.065
0.105
0.105
0.12
0.11
0.15
0.17
0.215
0.2
0.24
0.24
0.275
0.315
0.365
0.38
0.38
0.39
0.415
0.465
0.505
0.525
0.53
0.54
0.55
0.58
0.615
0.64
0.635
0.63
0.635
0.66
0.68
0.675
0.66
0.63
0.62
0.605
0.605
0.575
0.545
0.5
0.47
0.45
0.415
0.37
0.32
0.27
0.24
0.21
0.205
0.175
0.13
0.07
0.04
0.015
-0.005
-0.04
-0.085
-0.125
-0.16
-0.165
-0.165
-0.195
-0.245
-0.27
-0.26
-0.26
-0.26
-0.275
-0.285
-0.325
-0.315
-0.31
-0.315
-0.33
-0.36
-0.35
-0.345
-0.34
-0.335
-0.35
-0.36
-0.38
-0.38
-0.365
-0.365
-0.375
-0.395
-0.4
-0.39
-0.385
-0.36
-0.375
-0.4
-0.42
-0.425
-0.415
-0.41
-0.415
-0.425
-0.435
-0.43
-0.41
-0.42
-0.415
-0.425
-0.445
-0.44
-0.42
-0.41
-0.425
-0.43
-0.46
-0.445
-0.43
-0.42
-0.425
-0.43
-0.46
-0.45
-0.44
-0.415
-0.42
-0.425
-0.445
-0.435
-0.415
-0.41
-0.405
-0.42
-0.43
-0.435
-0.425
-0.415
-0.42
-0.435
-0.44
-0.445
-0.44
-0.435
-0.445
-0.445
-0.455
-0.445
-0.43
-0.425
-0.435
-0.445
-0.475
-0.48
-0.455
-0.45
-0.46
-0.47
-0.49
-0.48
-0.465
-0.44
-0.435
-0.445
-0.46
-0.465
-0.45
-0.435
-0.435
-0.44
-0.45
-0.445
-0.44
-0.43
-0.435
-0.445
-0.455
-0.445
-0.43
-0.41
-0.42
-0.43
-0.46
-0.445
-0.44
-0.435
-0.435
-0.435
-0.44
-0.445
-0.435
-0.425
-0.435
-0.445
-0.45
-0.46
-0.43
-0.43
-0.44
-0.435
-0.46
-0.465
-0.43
-0.415
-0.415
-0.435
-0.425
-0.43
-0.435
-0.43
-0.43
-0.445
-0.465
-0.45
-0.43
-0.41
-0.415
-0.42
-0.435
-0.43
-0.41
-0.395
-0.395
-0.425
-0.42
-0.415
-0.405
-0.385
-0.39
-0.395
-0.395
-0.395
-0.405
-0.4
-0.405
-0.42
-0.43
-0.415
-0.405
-0.395
-0.4
-0.425
-0.43
-0.45
-0.43
-0.41
-0.425
-0.435
-0.44
-0.425
-0.43
-0.41
-0.415
-0.43
-0.425
-0.42
-0.395
-0.39
-0.385
-0.405
-0.415
-0.41
-0.39
-0.37
-0.38
-0.385
-0.405
-0.405
-0.38
-0.325
-0.28
-0.24
-0.175
-0.09
0.03
0.195
0.345
0.505
0.68
0.84
1.015
1.06
0.99
0.79
0.495
0.205
-0.055
-0.255
-0.415
-0.465
-0.465
-0.435
-0.395
-0.375
-0.375
-0.4
-0.43
-0.445
-0.45
-0.455
-0.475
-0.485
-0.495
-0.49
-0.475
-0.455
-0.47
-0.475
-0.49
-0.49
-0.48
-0.48
-0.485
-0.49
-0.5
-0.49
-0.465
-0.465
-0.47
-0.49
-0.505
-0.52
-0.5
-0.465
-0.475
-0.485
-0.5
-0.49
-0.465
-0.47
-0.465
-0.475
-0.485
-0.495
-0.475
-0.46
-0.44
-0.465
-0.46
-0.47
-0.46
-0.45
-0.45
-0.455
-0.455
-0.465
-0.45
-0.44
-0.46
-0.465
-0.495
-0.475
-0.475
-0.46
-0.445
-0.445
-0.445
-0.445
-0.43
-0.41
-0.405
-0.4
-0.42
-0.405
-0.39
-0.37
-0.37
-0.37
-0.39
-0.37
-0.36
-0.335
-0.34
-0.34
-0.34
-0.305
-0.285
-0.26
-0.26
-0.255
-0.265
-0.255
-0.24
-0.23
-0.23
-0.25
-0.25
-0.23
-0.225
-0.215
-0.215
-0.225
-0.25
-0.26
-0.265
-0.26
-0.285
-0.3
-0.32
-0.325
-0.32
-0.315
-0.325
-0.335
-0.35
-0.335
-0.335
-0.31
-0.32
-0.34
-0.34
-0.335
-0.325
-0.32
-0.315
-0.325
-0.325
-0.32
-0.31
-0.295
-0.3
-0.305
-0.315
-0.31
-0.295
-0.28
-0.29
-0.295
-0.305
-0.305
-0.285
-0.265
-0.27
-0.275
-0.285
-0.28
-0.265
-0.265
-0.27
-0.275
-0.29
-0.29
-0.28
-0.265
-0.27
-0.29
-0.31
-0.295
-0.275
-0.255
-0.26
-0.265
-0.265
-0.25
-0.235
-0.225
-0.225
-0.24
-0.255
-0.285
-0.245
-0.235
-0.23
-0.24
-0.255
-0.24
-0.22
-0.215
-0.215
-0.245
-0.23
-0.23
-0.215
-0.2
-0.2
-0.195
-0.21
-0.205
-0.195
-0.17
-0.135
-0.1
-0.035
0.04
0.155
0.305
0.445
0.6
0.79
0.995
1.16
1.225
1.13
0.945
0.67
0.39
0.115
-0.145
-0.355
-0.445
-0.425
-0.355
-0.305
-0.265
-0.25
-0.255
-0.28
-0.3
-0.305
-0.315
-0.33
-0.355
-0.365
-0.38
-0.365
-0.34
-0.335
-0.34
-0.36
-0.355
-0.335
-0.32
-0.315
-0.33
-0.335
-0.33
-0.325
-0.3
-0.315
-0.315
-0.34
-0.31
-0.31
-0.295
-0.295
-0.32
-0.335
-0.345
-0.335
-0.325
-0.32
-0.335
-0.345
-0.335
-0.345
-0.32
-0.3
-0.33
-0.33
-0.31
-0.295
-0.28
-0.295
-0.29
-0.295
-0.275
-0.255
-0.24
-0.245
-0.265
-0.265
-0.265
-0.25
-0.23
-0.215
-0.225
-0.225
-0.195
-0.165
-0.18
-0.2
-0.19
-0.185
-0.19
-0.18
-0.16
-0.15
-0.155
-0.17
-0.145
-0.135
-0.11
-0.115
-0.13
-0.155
-0.16
-0.15
-0.14
-0.14
-0.15
-0.185
-0.19
-0.18
-0.145
-0.16
-0.17
-0.17
-0.185
-0.2
-0.18
-0.18
-0.2
-0.215
-0.2
-0.185
-0.18
-0.205
-0.215
-0.235
-0.22
-0.205
-0.19
-0.185
-0.18
-0.21
-0.215
-0.18
-0.16
-0.155
-0.175
-0.185
-0.175
-0.185
-0.175
-0.175
-0.195
-0.215
-0.225
-0.2
-0.175
-0.165
-0.19
-0.2
-0.195
-0.18
-0.16
-0.15
-0.165
-0.185
-0.185
-0.15
-0.155
-0.14
-0.155
-0.145
-0.145
-0.135
-0.11
-0.105
-0.115
-0.12
-0.125
-0.12
-0.095
-0.09
-0.12
-0.12
-0.1
-0.095
-0.1
-0.115
-0.125
-0.145
-0.135
-0.14
-0.11
-0.105
-0.11
-0.14
-0.125
-0.105
-0.09
-0.055
-0.055
-0.02
0.045
0.145
0.255
0.4
0.57
0.755
0.955
1.155
1.285
1.325
1.23
1.04
0.77
0.505
0.255
-0.01
-0.215
-0.31
-0.275
-0.22
-0.175
-0.15
-0.16
-0.165
-0.175
-0.18
-0.185
-0.19
-0.215
-0.255
-0.245
-0.245
-0.235
-0.235
-0.24
-0.23
-0.235
-0.235
-0.225
-0.225
-0.235
-0.26
-0.27
-0.275
-0.24
-0.245
-0.235
-0.25
-0.27
-0.28
-0.285
-0.28
-0.28
-0.285
-0.275
-0.25
-0.24
-0.25
-0.245
-0.26
-0.275
-0.275
-0.255
-0.25
-0.26
-0.26
-0.26
-0.24
-0.225
-0.23
-0.235
-0.26
-0.24
-0.225
-0.225
-0.22
-0.21
-0.205
-0.185
-0.17
-0.16
-0.155
-0.165
-0.17
-0.165
-0.14
-0.115
-0.15
-0.145
-0.145
-0.13
-0.12
-0.1
-0.11
-0.13
-0.135
-0.11
-0.095
-0.075
-0.085
-0.105
-0.125
-0.125
-0.105
-0.08
-0.085
-0.1
-0.115
-0.125
-0.11
-0.115
-0.13
-0.135
-0.15
-0.155
-0.125
-0.11
-0.105
-0.12
-0.13
-0.125
-0.115
-0.125
-0.125
-0.135
-0.14
-0.14
-0.14
-0.145
-0.15
-0.17
-0.175
-0.18
-0.165
-0.185
-0.19
-0.195
-0.175
-0.17
-0.155
-0.155
-0.16
-0.18
-0.17
-0.155
-0.125
-0.13
-0.155
-0.175
-0.2
-0.17
-0.16
-0.155
-0.165
-0.19
-0.205
-0.205
-0.19
-0.18
-0.175
-0.175
-0.17
-0.165
-0.17
-0.155
-0.16
-0.15
-0.17
-0.145
-0.15
-0.13
-0.125
-0.145
-0.145
-0.145
-0.125
-0.115
-0.105
-0.125
-0.145
-0.14
-0.14
-0.125
-0.15
-0.145
-0.16
-0.155
-0.14
-0.12
-0.15
-0.17
-0.175
-0.165
-0.15
-0.13
-0.135
-0.145
-0.16
-0.165
-0.165
-0.16
-0.165
-0.19
-0.17
-0.17
-0.165
-0.15
-0.165
-0.175
-0.175
-0.185
-0.17
-0.165
-0.155
-0.175
-0.18
-0.175
-0.16
-0.155
-0.15
-0.145
-0.15
-0.17
-0.18
-0.185
-0.16
-0.15
-0.165
-0.18
-0.16
-0.15
-0.13
-0.155
-0.145
-0.145
-0.135
-0.115
-0.125
-0.135
-0.155
-0.14
-0.15
-0.13
-0.14
-0.155
-0.17
-0.18
-0.16
-0.155
-0.16
-0.175
-0.17
-0.175
-0.155
-0.15
-0.165
-0.175
-0.19
-0.16
-0.145
-0.15
-0.145
-0.16
-0.17
-0.15
-0.115
-0.095
-0.11
-0.14
-0.155
-0.13
-0.135
-0.1
-0.09
-0.105
-0.12
-0.11
-0.08
-0.06
-0.03
-0.03
0.0
0.05
0.12
0.215
0.34
0.48
0.615
0.795
0.985
1.155
1.3
1.355
1.3
1.185
0.96
0.7
0.415
0.135
-0.11
-0.225
-0.245
-0.2
-0.18
-0.175
-0.16
-0.155
-0.15
-0.155
-0.185
-0.2
-0.215
-0.2
-0.19
-0.175
-0.18
-0.205
-0.21
-0.2
-0.2
-0.195
-0.205
-0.2
-0.21
-0.21
-0.205
-0.195
-0.19
-0.215
-0.225
-0.225
-0.21
-0.185
-0.19
-0.2
-0.22
-0.21
-0.195
-0.17
-0.175
-0.205
-0.215
-0.22
-0.195
-0.16
-0.165
-0.195
-0.195
-0.2
-0.2
-0.185
-0.195
-0.185
-0.185
-0.18
-0.155
-0.145
-0.155
-0.165
-0.155
-0.145
-0.12
-0.115
-0.1
-0.115
-0.125
-0.11
-0.08
-0.07
-0.09
-0.095
-0.085
-0.07
-0.055
-0.025
-0.035
-0.05
-0.07
-0.06
-0.055
-0.025
-0.03
-0.04
-0.025
0.0
0.015
0.01
-0.02
-0.03
-0.025
-0.025
-0.01
0.01
0.02
-0.02
-0.015
-0.005
-0.015
0.0
-0.005
-0.03
-0.055
-0.035
-0.025
-0.015
-0.035
-0.06
-0.07
-0.07
-0.055
-0.05
-0.055
-0.08
-0.08
-0.085
-0.075
-0.06
-0.065
-0.08
-0.095
-0.08
-0.075
-0.09
-0.09
-0.095
-0.1
-0.09
-0.08
-0.075
-0.075
-0.1
-0.1
-0.08
-0.075
-0.055
-0.07
-0.075
-0.085
-0.09
-0.065
-0.04
-0.05
-0.08
-0.065
-0.07
-0.07
-0.07
-0.075
-0.1
-0.095
-0.08
-0.075
-0.055
-0.045
-0.06
-0.08
-0.08
-0.075
-0.05
-0.06
-0.065
-0.08
-0.065
-0.065
-0.05
-0.045
-0.065
-0.075
-0.07
-0.05
-0.06
-0.075
-0.075
-0.08
-0.085
-0.08
-0.085
-0.085
-0.1
-0.12
-0.12
-0.1
-0.085
-0.085
-0.1
-0.12
-0.11
-0.095
-0.07
-0.085
-0.105
-0.11
-0.09
-0.1
-0.075
-0.08
-0.095
-0.11
-0.11
-0.105
-0.085
-0.075
-0.105
-0.095
-0.09
-0.065
-0.065
-0.07
-0.07
-0.07
-0.045
-0.03
-0.035
-0.035
-0.055
-0.06
-0.04
-0.025
0.03
0.08
0.135
0.21
0.34
0.495
0.675
0.845
1.0
1.13
1.25
1.32
1.285
1.14
0.92
0.675
0.41
0.155
-0.075
-0.235
-0.27
-0.265
-0.21
-0.155
-0.14
-0.135
-0.135
-0.155
-0.17
-0.18
-0.185
-0.19
-0.2
-0.21
-0.225
-0.205
-0.2
-0.205
-0.235
-0.265
-0.25
-0.24
-0.23
-0.24
-0.25
-0.24
-0.23
-0.22
-0.22
-0.24
-0.245
-0.235
-0.23
-0.195
-0.215
-0.23
-0.245
-0.235
-0.215
-0.2
-0.185
-0.195
-0.22
-0.235
-0.22
-0.205
-0.195
-0.2
-0.205
-0.205
-0.21
-0.195
-0.18
-0.19
-0.215
-0.21
-0.2
-0.195
-0.175
-0.18
-0.2
-0.21
-0.19
-0.17
-0.16
-0.17
-0.175
-0.185
-0.175
-0.16
-0.16
-0.15
-0.16
-0.175
-0.16
-0.13
-0.115
-0.13
-0.125
-0.14
-0.115
-0.095
-0.075
-0.08
-0.09
-0.1
-0.085
-0.06
-0.05
-0.075
-0.065
-0.065
-0.05
-0.055
-0.035
-0.04
-0.035
-0.055
-0.045
-0.04
-0.045
-0.05
-0.07
-0.09
-0.085
-0.09
-0.09
-0.105
-0.135
-0.15
-0.135
-0.14
-0.14
-0.165
-0.19
-0.205
-0.205
-0.185
-0.17
-0.175
-0.19
-0.21
-0.215
-0.195
-0.195
-0.205
-0.23
-0.235
-0.235
-0.2
-0.195
-0.205
-0.21
-0.225
-0.2
-0.18
-0.175
-0.175
-0.2
-0.195
-0.19
-0.16
-0.15
-0.15
-0.165
-0.17
-0.155
-0.135
-0.13
-0.125
-0.14
-0.13
-0.13
-0.12
-0.12
-0.125
-0.145
-0.16
-0.165
-0.16
-0.15
-0.15
-0.165
-0.17
-0.18
-0.15
-0.145
-0.16
-0.18
-0.2
-0.175
-0.16
-0.16
-0.17
-0.195
-0.19
-0.185
-0.185
-0.17
-0.185
-0.18
-0.195
-0.19
-0.165
-0.15
-0.155
-0.175
-0.2
-0.195
-0.175
-0.155
-0.155
-0.18
-0.17
-0.165
-0.15
-0.14
-0.135
-0.17
-0.165
-0.155
-0.13
-0.12
-0.125
-0.145
-0.16
-0.16
-0.15
-0.14
-0.135
-0.15
-0.16
-0.14
-0.125
-0.125
-0.13
-0.14
-0.145
-0.135
-0.115
-0.105
-0.105
-0.1
-0.095
-0.045
0.005
0.075
0.14
0.225
0.335
0.51
0.66
0.815
0.97
1.115
1.255
1.355
1.38
1.29
1.115
0.85
0.565
0.28
0.04
-0.135
-0.225
-0.25
-0.235
-0.205
-0.175
-0.155
-0.165
-0.195
-0.21
-0.2
-0.19
-0.21
-0.225
-0.235
-0.25
-0.25
-0.235
-0.24
-0.245
-0.26
-0.255
-0.255
-0.23
-0.235
-0.24
-0.265
-0.27
-0.275
-0.245
-0.25
-0.255
-0.275
-0.29
-0.29
-0.275
-0.255
-0.265
-0.265
-0.275
-0.265
-0.25
-0.23
-0.235
-0.255
-0.26
-0.25
-0.245
-0.235
-0.25
-0.255
-0.245
-0.25
-0.225
-0.215
-0.23
-0.24
-0.225
-0.225
-0.215
-0.19
-0.2
-0.2
-0.2
-0.18
-0.155
-0.15
-0.155
-0.16
-0.16
-0.145
-0.13
-0.12
-0.1
-0.105
-0.1
-0.11
-0.09
-0.08
-0.09
-0.105
-0.09
-0.085
-0.065
-0.04
-0.045
-0.055
-0.065
-0.065
-0.04
-0.04
-0.035
-0.045
-0.04
-0.04
-0.02
-0.01
-0.015
-0.02
-0.04
-0.04
-0.03
-0.03
-0.045
-0.07
-0.09
-0.09
-0.075
-0.075
-0.095
-0.125
-0.155
-0.155
-0.145
-0.14
-0.155
-0.165
-0.175
-0.18
-0.175
-0.175
-0.17
-0.175
-0.195
-0.185
-0.18
-0.175
-0.18
-0.185
-0.195
-0.185
-0.165
-0.16
-0.17
-0.195
-0.2
-0.185
-0.16
-0.15
-0.16
-0.17
-0.175
-0.15
-0.125
-0.115
-0.09
-0.085
-0.07
-0.05
-0.02
0.0
0.005
0.015
0.03
0.09
0.14
0.215
0.27
0.31
0.355
0.415
0.495
0.55
0.6
0.65
0.725
0.8
0.895
0.985
1.045
1.105
1.145
1.16
1.175
1.16
1.145
1.115
1.08
1.04
1.01
0.96
0.865
0.77
0.675
0.585
0.51
0.42
0.325
0.275
0.22
0.2
0.205
0.195
0.18
0.16
0.14
0.165
0.23
0.29
0.355
0.385
0.37
0.305
0.2
0.035
-0.135
-0.275
-0.38
-0.425
-0.425
-0.45
-0.465
-0.53
-0.55
-0.56
-0.555
-0.575
-0.605
-0.625
-0.64
-0.645
-0.635
-0.635
-0.655
-0.66
-0.67
-0.675
-0.675
-0.685
-0.695
-0.715
-0.73
-0.71
-0.715
-0.705
-0.695
-0.725
-0.735
-0.735
-0.72
-0.725
-0.745
-0.74
-0.74
-0.73
-0.73
-0.73
-0.745
-0.76
-0.785
-0.785
-0.76
-0.77
-0.78
-0.775
-0.785
-0.78
-0.77
-0.75
-0.75
-0.78
-0.77
-0.755
-0.715
-0.7
-0.69
-0.69
-0.685
-0.685
-0.66
-0.635
-0.625
-0.61
-0.61
-0.575
-0.56
-0.525
-0.51
-0.495
-0.48
-0.455
-0.425
-0.4
-0.41
-0.39
-0.375
-0.355
-0.33
-0.32
-0.315
-0.345
-0.345
-0.325
-0.315
-0.3
-0.295
-0.29
-0.29
-0.3
-0.27
-0.26
-0.28
-0.285
-0.275
-0.25
-0.235
-0.235
-0.235
-0.26
-0.27
-0.26
-0.245
-0.25
-0.255
-0.275
-0.285
-0.27
-0.24
-0.25
-0.26
-0.275
-0.285
-0.27
-0.25
-0.235
-0.245
-0.26
-0.26
-0.25
-0.245
-0.23
-0.23
-0.23
-0.23
-0.23
-0.215
-0.2
-0.23
-0.23
-0.225
-0.215
-0.215
-0.195
-0.2
-0.22
-0.22
-0.215
-0.19
-0.185
-0.21
-0.215
-0.22
-0.205
-0.2
-0.19
-0.19
-0.2
-0.21
-0.205
-0.185
-0.185
-0.2
-0.225
-0.225
-0.22
-0.21
-0.19
-0.205
-0.235
-0.24
-0.255
-0.225
-0.23
-0.23
-0.255
-0.255
-0.235
-0.225
-0.21
-0.22
-0.26
-0.27
-0.27
-0.245
-0.24
-0.24
-0.26
-0.25
-0.235
-0.22
-0.225
-0.215
-0.21
-0.235
-0.225
-0.2
-0.205
-0.205
-0.215
-0.22
-0.205
-0.195
-0.19
-0.185
-0.205
-0.215
-0.215
-0.17
-0.16
-0.18
-0.205
-0.22
-0.215
-0.205
-0.195
-0.215
-0.24
-0.24
-0.225
-0.22
-0.225
-0.22
-0.255
-0.255
-0.23
-0.225
-0.235
-0.23
-0.235
-0.24
-0.235
-0.225
-0.22
-0.205
-0.225
-0.23
-0.23
-0.215
-0.205
-0.215
-0.23
-0.235
-0.22
-0.215
-0.225
-0.215
-0.22
-0.23
-0.205
-0.185
-0.185
-0.195
-0.205
-0.22
-0.2
-0.185
-0.185
-0.18
-0.18
-0.195
-0.195
-0.19
-0.185
-0.18
-0.175
-0.19
-0.175
-0.155
-0.155
-0.16
-0.175
-0.19
-0.18
-0.155
-0.15
-0.145
-0.17
-0.16
-0.13
-0.07
-0.02
0.045
0.125
0.255
0.395
0.58
0.765
0.93
1.085
1.21
1.29
1.285
1.175
0.955
0.68
0.39
0.115
-0.1
-0.24
-0.305
-0.3
-0.255
-0.21
-0.175
-0.17
-0.2
-0.23
-0.235
-0.23
-0.22
-0.22
-0.245
-0.275
-0.29
-0.265
-0.265
-0.26
-0.275
-0.285
-0.285
-0.29
-0.27
-0.26
-0.265
-0.28
-0.29
-0.275
-0.255
-0.255
-0.275
-0.295
-0.295
-0.31
-0.285
-0.285
-0.285
-0.305
-0.315
-0.305
-0.29
-0.295
-0.28
-0.295
-0.315
-0.3
-0.27
-0.265
-0.28
-0.3
-0.3
-0.28
-0.27
-0.26
-0.255
-0.27
-0.265
-0.24
-0.215
-0.205
-0.215
-0.23
-0.225
-0.22
-0.195
-0.19
-0.175
-0.185
-0.18
-0.17
-0.14
-0.135
-0.145
-0.16
-0.165
-0.145
-0.13
-0.12
-0.13
-0.12
-0.135
-0.115
-0.105
-0.085
-0.09
-0.115
-0.125
-0.105
-0.08
-0.06
-0.065
-0.065
-0.075
-0.075
-0.07
-0.04
-0.055
-0.07
-0.075
-0.08
-0.05
-0.055
-0.06
-0.085
-0.1
-0.09
-0.085
-0.09
-0.1
-0.125
-0.115
-0.12
-0.12
-0.115
-0.145
-0.17
-0.16
-0.15
-0.14
-0.135
-0.15
-0.17
-0.185
-0.18
-0.165
-0.155
-0.165
-0.19
-0.195
-0.19
-0.19
-0.18
-0.175
-0.185
-0.19
-0.18
-0.16
-0.165
-0.165
-0.18
-0.195
-0.165
-0.155
-0.145
-0.17
-0.19
-0.17
-0.15
-0.14
-0.145
-0.15
-0.18
-0.17
-0.155
-0.145
-0.145
-0.125
-0.15
-0.16
-0.15
-0.13
-0.13
-0.125
-0.145
-0.145
-0.15
-0.115
-0.12
-0.115
-0.155
-0.155
-0.165
-0.15
-0.15
-0.145
-0.15
-0.16
-0.155
-0.145
-0.14
-0.175
-0.175
-0.185
-0.185
-0.17
-0.16
-0.18
-0.19
-0.205
-0.195
-0.19
-0.19
-0.195
-0.235
-0.235
-0.205
-0.2
-0.18
-0.19
-0.195
-0.2
-0.21
-0.175
-0.18
-0.175
-0.18
-0.19
-0.19
-0.185
-0.165
-0.18
-0.185
-0.175
-0.165
-0.145
-0.13
-0.125
-0.13
-0.11
-0.075
-0.025
0.035
0.095
0.165
0.3
0.465
0.635
0.825
0.99
1.12
1.19
1.17
1.025
0.775
0.475
0.175
-0.095
-0.295
-0.36
-0.34
-0.29
-0.26
-0.235
-0.225
-0.22
-0.215
-0.245
-0.265
-0.28
-0.285
-0.295
-0.29
-0.305
-0.315
-0.305
-0.29
-0.27
-0.275
-0.275
-0.295
-0.3
-0.29
-0.275
-0.275
-0.26
-0.285
-0.28
-0.29
-0.275
-0.275
-0.29
-0.29
-0.29
-0.275
-0.28
-0.275
-0.28
-0.295
-0.31
-0.29
-0.275
-0.265
-0.265
-0.29
-0.29
-0.275
-0.26
-0.255
-0.265
-0.28
-0.28
-0.26
-0.235
-0.23
-0.23
-0.24
-0.275
-0.25
-0.22
-0.205
-0.21
-0.215
-0.23
-0.205
-0.195
-0.18
-0.18
-0.195
-0.19
-0.185
-0.155
-0.135
-0.155
-0.165
-0.17
-0.17
-0.155
-0.145
-0.135
-0.15
-0.145
-0.145
-0.12
-0.115
-0.13
-0.13
-0.145
-0.135
-0.145
-0.125
-0.14
-0.15
-0.165
-0.16
-0.16
-0.15
-0.16
-0.185
-0.2
-0.195
-0.18
-0.185
-0.205
-0.225
-0.235
-0.22
-0.225
-0.215
-0.225
-0.23
-0.235
-0.25
-0.23
-0.23
-0.24
-0.255
-0.25
-0.245
-0.215
-0.21
-0.21
-0.225
-0.235
-0.22
-0.215
-0.2
-0.21
-0.23
-0.22
-0.215
-0.2
-0.19
-0.185
-0.185
-0.2
-0.185
-0.155
-0.16
-0.165
-0.175
-0.195
-0.195
-0.17
-0.175
-0.175
-0.185
-0.215
-0.205
-0.175
-0.17
-0.185
-0.19
-0.215
-0.21
-0.2
-0.195
-0.22
-0.25
-0.24
-0.23
-0.235
-0.225
-0.24
-0.225
-0.23
-0.22
-0.22
-0.205
-0.215
-0.225
-0.235
-0.215
-0.205
-0.205
-0.22
-0.23
-0.245
-0.22
-0.205
-0.2
-0.215
-0.24
-0.21
-0.205
-0.195
-0.195
-0.205
-0.22
-0.24
-0.225
-0.205
-0.205
-0.21
-0.225
-0.225
-0.21
-0.195
-0.185
-0.2
-0.21
-0.22
-0.19
-0.17
-0.155
-0.185
-0.215
-0.22
-0.195
-0.165
-0.17
-0.17
-0.17
-0.15
-0.11
-0.075
-0.025
0.02
0.075
0.13
0.245
0.375
0.49
0.63
0.735
0.85
0.935
0.95
0.9
0.785
0.61
0.405
0.21
0.04
-0.115
-0.205
-0.25
-0.24
-0.22
-0.185
-0.19
-0.195
-0.24
-0.265
-0.255
-0.25
-0.25
-0.265
-0.285
-0.29
-0.285
-0.285
-0.295
-0.295
-0.315
-0.325
-0.315
-0.32
-0.335
-0.33
-0.33
-0.335
-0.33
-0.315
-0.315
-0.32
-0.34
-0.34
-0.31
-0.295
-0.285
-0.295
-0.295
-0.305
-0.295
-0.275
-0.28
-0.29
-0.305
-0.31
-0.295
-0.295
-0.275
-0.3
-0.31
-0.32
-0.305
-0.295
-0.29
-0.28
-0.3
-0.3
-0.28
-0.265
-0.255
-0.25
-0.27
-0.275
-0.265
-0.255
-0.25
-0.25
-0.265
-0.26
-0.24
-0.21
-0.205
-0.21
-0.215
-0.22
-0.215
-0.185
-0.17
-0.17
-0.175
-0.175
-0.155
-0.16
-0.13
-0.145
-0.155
-0.145
-0.135
-0.115
-0.11
-0.135
-0.145
-0.15
-0.15
-0.14
-0.13
-0.16
-0.16
-0.165
-0.16
-0.165
-0.165
-0.16
-0.18
-0.195
-0.19
-0.195
-0.2
-0.22
-0.22
-0.215
-0.22
-0.215
-0.205
-0.21
-0.255
-0.255
-0.25
-0.245
-0.225
-0.23
-0.26
-0.24
-0.235
-0.225
-0.2
-0.21
-0.22
-0.215
-0.205
-0.19
-0.175
-0.19
-0.21
-0.205
-0.21
-0.195
-0.19
-0.2
-0.21
-0.205
-0.2
-0.19
-0.17
-0.185
-0.205
-0.205
-0.195
-0.185
-0.18
-0.21
-0.205
-0.21
-0.205
-0.2
-0.195
-0.2
-0.22
-0.22
-0.205
-0.19
-0.195
-0.205
-0.225
-0.235
-0.23
-0.205
-0.2
-0.225
-0.225
-0.22
-0.2
-0.195
-0.195
-0.21
-0.22
-0.22
-0.215
-0.195
-0.2
-0.205
-0.22
-0.22
-0.205
-0.205
-0.21
-0.215
-0.21
-0.215
-0.205
-0.195
-0.195
-0.205
-0.23
-0.23
-0.22
-0.185
-0.18
-0.18
-0.215
-0.205
-0.2
-0.18
-0.19
-0.19
-0.2
-0.185
-0.205
-0.165
-0.145
-0.155
-0.155
-0.17
-0.145
-0.135
-0.105
-0.075
-0.065
-0.03
0.04
0.13
0.23
0.295
0.42
0.54
0.67
0.785
0.855
0.885
0.82
0.71
0.55
0.375
0.19
0.0
-0.155
-0.215
-0.235
-0.21
-0.205
-0.215
-0.23
-0.225
-0.24
-0.23
-0.23
-0.255
-0.26
-0.265
-0.265
-0.255
-0.255
-0.275
-0.29
-0.29
-0.28
-0.27
-0.26
-0.29
-0.31
-0.305
-0.305
-0.285
-0.295
-0.3
-0.305
-0.305
-0.3
-0.285
-0.285
-0.295
-0.31
-0.33
-0.31
-0.285
-0.275
-0.3
-0.31
-0.315
-0.31
-0.295
-0.3
-0.295
-0.29
-0.31
-0.295
-0.265
-0.275
-0.275
-0.285
-0.29
-0.265
-0.255
-0.245
-0.24
-0.255
-0.27
-0.255
-0.23
-0.22
-0.23
-0.235
-0.24
-0.22
-0.195
-0.185
-0.19
-0.185
-0.18
-0.17
-0.165
-0.15
-0.15
-0.155
-0.155
-0.16
-0.145
-0.12
-0.14
-0.15
-0.155
-0.13
-0.115
-0.1
-0.115
-0.115
-0.13
-0.12
-0.12
-0.11
-0.105
-0.13
-0.125
-0.12
-0.105
-0.11
-0.14
-0.155
-0.16
-0.155
-0.165
-0.16
-0.165
-0.18
-0.19
-0.19
-0.18
-0.185
-0.19
-0.2
-0.205
-0.2
-0.19
-0.2
-0.2
-0.21
-0.21
-0.205
-0.2
-0.195
-0.195
-0.2
-0.205
-0.205
-0.17
-0.17
-0.18
-0.19
-0.19
-0.19
-0.175
-0.16
-0.18
-0.185
-0.175
-0.16
-0.145
-0.145
-0.14
-0.16
-0.165
-0.15
-0.135
-0.13
-0.135
-0.16
-0.155
-0.135
-0.125
-0.11
-0.125
-0.14
-0.145
-0.13
-0.115
-0.115
-0.14
-0.155
-0.16
-0.155
-0.135
-0.135
-0.15
-0.18
-0.175
-0.165
-0.17
-0.15
-0.17
-0.18
-0.185
-0.165
-0.155
-0.155
-0.16
-0.17
-0.18
-0.17
-0.17
-0.165
-0.175
-0.19
-0.205
-0.19
-0.17
-0.165
-0.175
-0.195
-0.19
-0.17
-0.17
-0.16
-0.17
-0.175
-0.18
-0.18
-0.16
-0.155
-0.16
-0.16
-0.16
-0.145
-0.14
-0.13
-0.155
-0.165
-0.175
-0.16
-0.135
-0.135
-0.135
-0.14
-0.145
-0.145
-0.14
-0.135
-0.145
-0.16
-0.16
-0.155
-0.135
-0.12
-0.135
-0.16
-0.16
-0.16
-0.14
-0.13
-0.135
-0.16
-0.17
-0.145
-0.13
-0.13
-0.135
-0.135
-0.145
-0.14
-0.11
-0.095
-0.075
-0.065
