Lead II
-0.07
-0.05
-0.035
-0.015
0.0
-0.045
-0.08
-0.08
-0.06
-0.02
0.055
0.095
0.12
0.08
0.015
-0.005
0.055
0.13
0.18
0.21
0.235
0.26
0.275
0.275
0.24
0.17
0.135
0.13
0.155
0.235
0.36
0.505
0.63
0.73
0.84
0.98
1.08
1.13
1.15
1.1
0.965
0.805
0.655
0.53
0.36
0.235
0.145
0.04
-0.085
-0.12
-0.095
-0.085
-0.125
-0.15
-0.16
-0.14
-0.135
-0.125
-0.12
-0.125
-0.125
-0.135
-0.085
-0.03
-0.045
-0.11
-0.175
-0.195
-0.18
-0.13
-0.085
-0.04
-0.03
-0.06
-0.07
-0.04
0.025
0.04
0.01
-0.055
-0.08
-0.02
0.055
0.065
0.05
0.055
0.14
0.175
0.165
0.15
0.12
0.07
0.04
0.05
0.145
0.19
0.245
0.25
0.28
0.29
0.3
0.3
0.32
0.325
0.34
0.37
0.415
0.42
0.385
0.335
0.325
0.33
0.35
0.35
0.34
0.325
0.32
0.325
0.355
0.32
0.265
0.215
0.19
0.21
0.27
0.275
0.255
0.22
0.18
0.17
0.185
0.195
0.2
0.185
0.175
0.175
0.185
0.195
0.2
0.205
0.255
0.31
0.345
0.34
0.29
0.225
0.17
0.175
0.215
0.225
0.26
0.27
0.27
0.28
0.325
0.31
0.31
0.34
0.42
0.53
0.61
0.6
0.505
0.36
0.17
-0.045
-0.26
-0.465
-0.66
-0.865
-1.155
-1.42
-1.6
-1.715
-1.76
-1.765
-1.695
-1.605
-1.455
-1.335
-1.245
-1.14
-1.02
-0.92
-0.825
-0.755
-0.675
-0.595
-0.485
-0.365
-0.23
-0.045
0.105
0.205
0.205
0.215
0.255
0.31
0.35
0.345
0.32
0.285
0.31
0.38
0.47
0.53
0.53
0.505
0.46
0.44
0.48
0.515
0.56
0.595
0.625
0.63
0.63
0.65
0.685
0.725
0.765
0.83
0.855
0.88
0.92
0.975
1.035
1.065
1.085
1.125
1.2
1.27
1.345
1.41
1.45
1.44
1.465
1.52
1.55
1.535
1.55
1.61
1.63
1.615
1.585
1.585
1.625
1.655
1.655
1.655
1.635
1.57
1.465
1.39
1.36
1.375
1.365
1.27
1.135
1.04
1.015
1.01
0.985
0.885
0.78
0.675
0.615
0.63
0.705
0.715
0.65
0.535
0.465
0.505
0.58
0.615
0.585
0.535
0.535
0.54
0.5
0.44
0.455
0.54
0.635
0.65
0.595
0.54
0.525
0.5
0.42
0.27
0.125
0.09
0.235
0.5
0.7
0.885
1.155
1.42
1.545
1.565
1.56
1.52
1.46
1.335
1.205
1.045
0.87
0.695
0.505
0.28
0.12
0.065
0.1
0.145
0.18
0.115
0.005
-0.055
-0.015
0.085
0.165
0.15
0.13
0.17
0.275
0.275
0.115
-0.13
-0.22
-0.145
-0.04
-0.01
-0.03
-0.065
-0.05
-0.035
-0.04
-0.065
-0.095
-0.085
-0.02
0.06
0.11
0.125
0.13
0.115
0.115
0.09
0.115
0.14
0.185
0.19
0.18
0.16
0.175
0.18
0.21
0.295
0.41
0.455
0.365
0.23
0.155
0.155
0.2
0.225
0.25
0.29
0.34
0.375
0.355
0.38
0.435
0.495
0.53
0.525
0.525
0.545
0.49
0.39
0.315
0.26
0.225
0.215
0.24
0.29
0.345
0.395
0.435
0.465
0.45
0.42
0.405
0.37
0.37
0.395
0.47
0.555
0.59
0.55
0.49
0.395
0.34
0.36
0.435
0.485
0.51
0.55
0.58
0.525
0.435
0.365
0.375
0.4
0.42
0.425
0.485
0.58
0.65
0.75
0.77
0.7
0.56
0.49
0.585
0.79
0.995
1.13
1.265
1.43
1.58
1.595
1.545
1.535
1.505
1.455
1.37
1.275
1.125
0.85
0.585
0.37
0.19
0.08
0.06
0.075
0.095
0.065
0.005
-0.065
-0.095
-0.115
-0.125
-0.135
-0.145
-0.15
-0.12
-0.095
-0.09
-0.09
-0.11
-0.105
-0.1
-0.085
-0.06
-0.045
-0.05
-0.06
-0.075
-0.065
-0.035
0.0
0.055
0.055
0.015
-0.01
0.015
0.08
0.13
0.145
0.23
0.42
0.62
0.58
0.36
0.145
0.1
0.185
0.3
0.39
0.43
0.465
0.485
0.53
0.57
0.59
0.58
0.55
0.56
0.565
0.565
0.54
0.505
0.49
0.47
0.45
0.45
0.42
0.4
0.36
0.335
0.33
0.35
0.32
0.285
0.255
0.255
0.28
0.265
0.245
0.225
0.22
0.205
0.2
0.22
0.22
0.205
0.17
0.16
0.16
0.17
0.16
0.14
0.115
0.145
0.17
0.185
0.19
0.2
0.2
0.21
0.23
0.26
0.27
0.245
0.24
0.235
0.27
0.28
0.27
0.25
0.26
0.275
0.29
0.31
0.315
0.305
0.295
0.3
0.315
0.33
0.315
0.295
0.31
0.31
0.3
0.285
0.275
0.29
0.275
0.26
0.275
0.295
0.3
0.255
0.23
0.235
0.265
0.25
0.24
0.225
0.21
0.205
0.21
0.23
0.225
0.2
0.185
0.185
0.18
0.17
0.15
0.155
0.155
0.18
0.2
0.235
0.23
0.23
0.21
0.23
0.25
0.255
0.235
0.245
0.225
0.23
0.24
0.255
0.245
0.235
0.235
0.255
0.255
0.24
0.245
0.23
0.195
0.205
0.215
0.245
0.22
0.19
0.18
0.18
0.185
0.19
0.185
0.175
0.165
0.15
0.16
0.18
0.16
0.13
0.13
0.15
0.155
0.18
0.18
0.17
0.155
0.16
0.17
0.17
0.17
0.15
0.125
0.13
0.13
0.13
0.135
0.125
0.095
0.11
0.145
0.16
0.15
0.155
0.165
0.165
0.155
0.18
0.175
0.175
0.14
0.13
0.155
0.19
0.205
0.24
0.255
0.285
0.3
0.37
0.42
0.45
0.485
0.515
0.56
0.65
0.765
0.9
1.015
1.145
1.225
1.295
1.355
1.445
1.48
1.5
1.515
1.445
1.3
1.155
1.045
0.905
0.7
0.48
0.285
0.15
0.035
-0.06
-0.06
-0.05
-0.065
-0.115
-0.15
-0.17
-0.175
-0.205
-0.24
-0.285
-0.295
-0.31
-0.31
-0.295
-0.3
-0.32
-0.34
-0.34
-0.33
-0.33
-0.365
-0.38
-0.405
-0.395
-0.385
-0.365
-0.355
-0.37
-0.405
-0.385
-0.375
-0.36
-0.365
-0.365
-0.355
-0.335
-0.315
-0.29
-0.275
-0.27
-0.28
-0.26
-0.21
-0.195
-0.19
-0.18
-0.155
-0.135
-0.12
-0.08
-0.05
-0.05
-0.04
-0.02
0.005
0.02
0.04
0.035
0.03
0.03
0.05
0.055
0.035
0.025
0.015
0.03
0.06
0.065
0.055
0.035
0.02
0.025
0.045
0.075
0.075
0.045
0.03
0.035
0.06
0.065
0.04
0.025
0.015
0.005
0.005
0.015
0.005
-0.03
-0.03
-0.035
0.0
0.02
0.02
0.0
0.0
-0.005
0.015
0.045
0.03
-0.01
0.0
0.015
0.025
0.04
0.05
0.075
0.11
0.135
0.18
0.245
0.285
0.29
0.3
0.345
0.355
0.225
-0.035
-0.385
-0.765
-1.17
-1.565
-1.975
-2.35
-2.615
-2.75
-2.785
-2.835
-2.865
-2.905
-2.93
-2.935
-2.93
-2.91
-2.85
-2.795
-2.7
-2.545
-2.325
-2.07
-1.845
-1.695
-1.595
-1.525
-1.45
-1.4
-1.32
-1.21
-1.065
-0.89
-0.7
-0.505
-0.325
-0.145
0.015
0.165
0.285
0.405
0.495
0.565
0.6
0.64
0.66
0.7
0.74
0.775
0.79
0.805
0.845
0.89
0.94
0.975
0.99
1.015
1.07
1.13
1.17
1.2
1.235
1.265
1.325
1.37
1.435
1.475
1.485
1.52
1.58
1.66
1.71
1.735
1.78
1.805
1.87
1.92
1.96
1.96
1.975
1.98
1.99
1.995
1.99
1.975
1.94
1.89
1.855
1.855
1.83
1.77
1.665
1.6
1.56
1.515
1.465
1.395
1.305
1.235
1.165
1.1
1.045
0.965
0.875
0.815
0.75
0.69
0.615
0.55
0.48
0.415
0.37
0.32
0.295
0.24
0.19
0.125
0.095
0.085
0.07
0.04
0.015
-0.015
-0.03
-0.03
-0.03
-0.065
-0.115
-0.165
-0.17
-0.205
-0.2
-0.215
-0.23
-0.24
-0.235
-0.215
-0.175
-0.175
-0.175
-0.19
-0.185
-0.175
-0.185
-0.165
-0.18
-0.215
-0.215
-0.215
-0.215
-0.22
-0.25
-0.275
-0.265
-0.265
-0.28
-0.28
-0.285
-0.315
-0.32
-0.3
-0.295
-0.305
-0.32
-0.345
-0.335
-0.32
-0.32
-0.33
-0.34
-0.355
-0.35
-0.35
-0.325
-0.33
-0.36
-0.375
-0.365
-0.355
-0.345
-0.345
-0.35
-0.375
-0.39
-0.38
-0.36
-0.36
-0.36
-0.39
-0.38
-0.365
-0.36
-0.365
-0.355
-0.36
-0.355
-0.34
-0.29
-0.29
-0.305
-0.305
-0.285
-0.28
-0.265
-0.275
-0.295
-0.275
-0.285
-0.275
-0.265
-0.255
-0.26
-0.27
-0.28
-0.265
-0.275
-0.295
-0.31
-0.32
-0.32
-0.305
-0.28
-0.295
-0.31
-0.31
-0.28
-0.265
-0.26
-0.285
-0.29
-0.275
-0.285
-0.27
-0.26
-0.265
-0.275
-0.305
-0.3
-0.295
-0.275
-0.285
-0.3
-0.31
-0.305
-0.3
-0.295
-0.31
-0.315
-0.325
-0.295
-0.3
-0.295
-0.3
-0.31
-0.33
-0.355
-0.37
-0.34
-0.34
-0.36
-0.36
-0.315
-0.305
-0.295
-0.3
-0.305
-0.305
-0.285
-0.255
-0.22
-0.17
-0.15
-0.16
-0.14
-0.11
-0.11
-0.135
-0.185
-0.195
-0.16
-0.065
0.04
0.13
0.23
0.32
0.435
0.565
0.69
0.76
0.765
0.715
0.645
0.59
0.525
0.405
0.185
-0.015
-0.145
-0.25
-0.35
-0.425
-0.45
-0.47
-0.475
-0.475
-0.5
-0.515
-0.545
-0.545
-0.55
-0.54
-0.54
-0.56
-0.575
-0.6
-0.605
-0.605
-0.61
-0.625
-0.65
-0.665
-0.645
-0.615
-0.605
-0.615
-0.605
-0.57
-0.57
-0.545
-0.525
-0.535
-0.54
-0.55
-0.535
-0.495
-0.48
-0.49
-0.49
-0.485
-0.465
-0.465
-0.45
-0.465
-0.445
-0.44
-0.43
-0.425
-0.405
-0.42
-0.42
-0.415
-0.395
-0.38
-0.38
-0.385
-0.39
-0.39
-0.39
-0.39
-0.375
-0.36
-0.345
-0.345
-0.325
-0.29
-0.265
-0.265
-0.26
-0.25
-0.235
-0.22
-0.21
-0.21
-0.21
-0.235
-0.215
-0.2
-0.17
-0.21
-0.255
-0.275
-0.285
-0.29
-0.3
-0.335
-0.31
-0.325
-0.32
-0.3
-0.28
-0.275
-0.27
-0.27
-0.285
-0.265
-0.25
-0.235
-0.24
-0.245
-0.235
-0.23
-0.235
-0.23
-0.23
-0.24
-0.235
-0.225
-0.22
-0.23
-0.23
-0.24
-0.235
-0.215
-0.19
-0.19
-0.195
-0.215
-0.205
-0.175
-0.17
-0.18
-0.19
-0.165
-0.15
-0.14
-0.14
-0.15
-0.14
-0.14
-0.135
-0.135
-0.105
-0.09
-0.095
-0.095
-0.105
-0.105
-0.09
-0.085
-0.1
-0.125
-0.12
-0.095
-0.1
-0.135
-0.17
-0.2
-0.21
-0.2
-0.205
-0.215
-0.23
-0.22
-0.225
-0.21
-0.19
-0.2
-0.205
-0.23
-0.235
-0.2
-0.185
-0.19
-0.185
-0.135
-0.105
-0.09
-0.055
-0.035
0.01
0.06
0.12
0.185
0.3
0.45
0.63
0.8
0.985
1.115
1.21
1.275
1.345
1.4
1.39
1.355
1.255
1.13
1.0
0.87
0.69
0.485
0.275
0.08
-0.115
-0.275
-0.335
-0.335
-0.33
-0.35
-0.38
-0.39
-0.41
-0.405
-0.395
-0.415
-0.45
-0.465
-0.475
-0.47
-0.5
-0.545
-0.615
-0.62
-0.625
-0.62
-0.595
-0.59
-0.6
-0.61
-0.595
-0.545
-0.525
-0.525
-0.515
-0.5
-0.485
-0.455
-0.425
-0.41
-0.4
-0.4
-0.38
-0.35
-0.315
-0.305
-0.295
-0.28
-0.24
-0.205
-0.165
-0.145
-0.12
-0.115
-0.11
-0.06
-0.03
-0.02
-0.03
-0.035
-0.015
-0.01
0.0
-0.01
-0.03
-0.04
-0.045
-0.045
-0.055
-0.08
-0.12
-0.15
-0.155
-0.15
-0.17
-0.195
-0.225
-0.235
-0.26
-0.28
-0.285
-0.315
-0.345
-0.375
-0.355
-0.335
-0.315
-0.325
-0.355
-0.355
-0.35
-0.33
-0.325
-0.305
-0.32
-0.34
-0.33
-0.305
-0.28
-0.29
-0.335
-0.335
-0.32
-0.295
-0.31
-0.34
-0.36
-0.355
-0.345
-0.345
-0.34
-0.34
-0.345
-0.365
-0.37
-0.35
-0.33
-0.315
-0.345
-0.36
-0.34
-0.31
-0.305
-0.31
-0.32
-0.33
-0.305
-0.29
-0.295
-0.31
-0.32
-0.335
-0.32
-0.315
-0.32
-0.32
-0.345
-0.38
-0.405
-0.4
-0.405
-0.43
-0.445
-0.45
-0.425
-0.405
-0.38
-0.39
-0.4
-0.4
-0.39
-0.37
-0.37
-0.365
-0.365
-0.36
-0.35
-0.35
-0.355
-0.345
-0.37
-0.37
-0.35
-0.335
-0.33
-0.335
-0.355
-0.355
-0.34
-0.345
-0.345
-0.34
-0.345
-0.35
-0.355
-0.33
-0.31
-0.31
-0.32
-0.355
-0.325
-0.3
-0.3
-0.32
-0.325
-0.315
-0.305
-0.295
-0.315
-0.295
-0.295
-0.31
-0.305
-0.305
-0.29
-0.3
-0.33
-0.33
-0.34
-0.315
-0.325
-0.345
-0.365
-0.345
-0.335
-0.31
-0.285
-0.28
-0.29
-0.31
-0.305
-0.28
-0.255
-0.29
-0.29
-0.285
-0.25
-0.24
-0.24
-0.25
-0.25
-0.27
-0.25
-0.2
-0.16
-0.125
-0.085
-0.08
-0.035
0.055
0.105
0.14
0.125
0.165
0.225
0.29
0.42
0.57
0.695
0.78
0.855
0.95
1.075
1.145
1.165
1.145
1.095
0.995
0.875
0.735
0.61
0.41
0.19
-0.005
-0.13
-0.28
-0.41
-0.505
-0.545
-0.535
-0.55
-0.57
-0.6
-0.605
-0.6
-0.595
-0.585
-0.605
-0.645
-0.64
-0.65
-0.63
-0.61
-0.61
-0.635
-0.645
-0.605
-0.595
-0.585
-0.61
-0.605
-0.62
-0.595
-0.585
-0.565
-0.575
-0.565
-0.575
-0.565
-0.55
-0.52
-0.52
-0.52
-0.53
-0.51
-0.495
-0.465
-0.475
-0.475
-0.47
-0.455
-0.425
-0.415
-0.43
-0.435
-0.415
-0.395
-0.365
-0.355
-0.37
-0.35
-0.33
-0.325
-0.3
-0.29
-0.29
-0.275
-0.27
-0.255
-0.25
-0.22
-0.215
-0.235
-0.255
-0.28
-0.26
-0.265
-0.255
-0.24
-0.23
-0.22
-0.18
-0.16
-0.17
-0.18
-0.16
-0.145
-0.13
-0.13
-0.15
-0.17
-0.16
-0.13
-0.125
-0.14
-0.15
-0.165
-0.16
-0.155
-0.15
-0.14
-0.155
-0.17
-0.195
-0.205
-0.195
-0.19
-0.215
-0.26
-0.27
-0.255
-0.245
-0.225
-0.25
-0.245
-0.255
-0.27
-0.27
-0.265
-0.255
-0.275
-0.29
-0.295
-0.285
-0.285
-0.295
-0.315
-0.34
-0.325
-0.32
-0.305
-0.325
-0.34
-0.33
-0.33
-0.315
-0.31
-0.315
-0.335
-0.365
-0.385
-0.385
-0.37
-0.355
-0.36
-0.355
-0.32
-0.29
-0.28
-0.295
-0.31
-0.305
-0.27
-0.26
-0.255
-0.24
-0.255
-0.255
-0.255
-0.235
-0.22
-0.225
-0.255
-0.27
-0.245
-0.24
-0.24
-0.275
-0.28
-0.29
-0.31
-0.275
-0.285
-0.28
-0.295
-0.325
-0.32
-0.31
-0.295
-0.305
-0.345
-0.335
-0.35
-0.345
-0.35
-0.36
-0.38
-0.38
-0.375
-0.37
-0.36
-0.36
-0.385
-0.39
-0.4
-0.375
-0.38
-0.4
-0.415
-0.44
-0.46
-0.45
-0.425
-0.425
-0.43
-0.43
-0.415
-0.395
-0.39
-0.425
-0.45
-0.435
-0.4
-0.39
-0.385
-0.39
-0.385
-0.395
-0.395
-0.385
-0.37
-0.38
-0.375
-0.325
-0.23
-0.14
-0.08
-0.045
0.02
0.09
0.13
0.14
0.185
0.21
0.255
0.355
0.485
0.6
0.67
0.695
0.765
0.85
0.9
0.895
0.81
0.675
0.485
0.345
0.22
0.06
-0.14
-0.295
-0.425
-0.515
-0.565
-0.565
-0.58
-0.595
-0.61
-0.62
-0.645
-0.685
-0.725
-0.735
-0.73
-0.72
-0.705
-0.73
-0.7
-0.73
-0.78
-0.785
-0.75
-0.67
-0.615
-0.62
-0.69
-0.765
-0.79
-0.775
-0.74
-0.72
-0.705
-0.685
-0.675
-0.635
-0.63
-0.605
-0.6
-0.56
-0.53
-0.54
-0.565
-0.6
-0.6
-0.565
-0.545
-0.515
-0.48
-0.48
-0.475
-0.445
-0.415
-0.37
-0.36
-0.365
-0.35
-0.34
-0.32
-0.295
-0.29
-0.28
-0.28
-0.275
-0.265
-0.245
-0.225
-0.215
-0.215
-0.22
-0.205
-0.2
-0.25
-0.265
-0.325
-0.35
-0.375
-0.385
-0.4
-0.38
-0.345
-0.33
-0.315
-0.335
-0.36
-0.425
-0.465
-0.485
-0.455
-0.435
-0.425
-0.435
-0.425
-0.415
-0.405
-0.4
-0.395
-0.415
-0.425
-0.44
-0.415
-0.41
-0.395
-0.405
-0.415
-0.41
-0.43
-0.42
-0.42
-0.455
-0.475
-0.475
-0.455
-0.43
-0.425
-0.445
-0.465
-0.485
-0.46
-0.435
-0.425
-0.455
-0.475
-0.47
-0.455
-0.44
-0.435
-0.45
-0.465
-0.485
-0.485
-0.5
-0.485
-0.505
-0.515
-0.54
-0.54
-0.525
-0.525
-0.55
-0.55
-0.54
-0.505
-0.49
-0.485
-0.48
-0.485
-0.485
-0.48
-0.465
-0.44
-0.44
-0.455
-0.465
-0.46
-0.445
-0.435
-0.45
-0.45
-0.45
-0.44
-0.44
-0.445
-0.445
-0.43
-0.43
-0.435
-0.415
-0.4
-0.395
-0.4
-0.4
-0.39
-0.375
-0.385
-0.385
-0.4
-0.395
-0.4
-0.385
-0.385
-0.39
-0.405
-0.405
-0.4
-0.375
-0.355
-0.36
-0.39
-0.38
-0.355
-0.33
-0.33
-0.35
-0.38
-0.39
-0.38
-0.375
-0.38
-0.4
-0.415
-0.4
-0.395
-0.38
-0.385
-0.385
-0.39
-0.395
-0.385
-0.375
-0.385
-0.375
-0.385
-0.38
-0.375
-0.36
-0.35
-0.355
-0.375
-0.38
-0.36
-0.345
-0.355
-0.365
-0.375
-0.365
-0.375
-0.345
-0.365
-0.36
-0.375
-0.355
-0.355
-0.345
-0.345
-0.335
-0.35
-0.34
-0.335
-0.315
-0.305
-0.305
-0.315
-0.32
-0.295
-0.285
-0.29
-0.29
-0.32
-0.31
-0.29
-0.28
-0.28
-0.28
-0.285
-0.3
-0.29
-0.295
-0.295
-0.315
-0.29
-0.245
-0.215
-0.21
-0.245
-0.305
-0.335
-0.305
-0.24
-0.16
-0.14
-0.175
-0.185
-0.155
-0.08
0.005
0.115
0.235
0.325
0.415
0.515
0.65
0.79
0.89
0.915
0.955
0.91
0.845
0.735
0.61
0.43
0.18
-0.065
-0.19
-0.3
-0.395
-0.455
-0.47
-0.46
-0.455
-0.47
-0.5
-0.5
-0.515
-0.51
-0.5
-0.505
-0.515
-0.545
-0.54
-0.54
-0.52
-0.52
-0.545
-0.56
-0.54
-0.53
-0.515
-0.54
-0.535
-0.535
-0.565
-0.565
-0.55
-0.535
-0.55
-0.52
-0.495
-0.5
-0.5
-0.535
-0.535
-0.52
-0.48
-0.475
-0.425
-0.395
-0.385
-0.375
-0.37
-0.325
-0.285
-0.25
-0.27
-0.25
-0.235
-0.21
-0.17
-0.145
-0.13
-0.12
-0.13
-0.095
-0.07
-0.05
-0.07
-0.08
-0.07
-0.05
-0.045
-0.055
-0.07
-0.085
-0.105
-0.12
-0.11
-0.125
-0.145
-0.18
-0.2
-0.22
-0.21
-0.215
-0.25
-0.285
-0.285
-0.295
-0.3
-0.31
-0.33
-0.35
-0.37
-0.355
-0.335
-0.32
-0.355
-0.355
-0.35
-0.315
-0.305
-0.305
-0.3
-0.325
-0.305
-0.285
-0.23
-0.205
-0.21
-0.255
-0.26
-0.24
-0.22
-0.255
-0.305
-0.35
-0.385
-0.405
-0.47
-0.605
-0.805
-0.98
-1.165
-1.305
-1.395
-1.43
-1.48
-1.585
-1.67
-1.64
-1.52
-1.385
-1.3
-1.285
-1.285
-1.24
-1.19
-1.15
-1.12
-1.09
-0.99
-0.85
-0.71
-0.635
-0.595
-0.595
-0.58
-0.53
-0.49
-0.455
-0.435
-0.44
-0.435
-0.41
-0.355
-0.305
-0.285
-0.285
-0.275
-0.265
-0.24
-0.245
-0.255
-0.245
-0.235
-0.185
-0.16
-0.13
-0.1
-0.105
-0.1
-0.06
-0.01
0.035
0.06
0.09
0.115
0.145
0.17
0.22
0.245
0.265
0.29
0.335
0.4
0.43
0.45
0.48
0.53
0.585
0.625
0.67
0.695
0.72
0.72
0.765
0.78
0.82
0.81
0.775
0.78
0.78
0.78
0.745
0.705
0.69
0.64
0.61
0.58
0.53
0.47
0.385
0.33
0.29
0.26
0.18
0.15
0.065
-0.005
-0.02
-0.045
-0.07
-0.11
-0.165
-0.18
-0.165
-0.175
-0.18
-0.19
-0.22
-0.235
-0.225
-0.2
-0.195
-0.2
-0.215
-0.185
-0.135
-0.05
0.02
0.04
0.0
-0.09
-0.21
-0.35
-0.495
-0.615
-0.72
-0.77
-0.81
-0.9
-1.02
-1.145
-1.255
-1.325
-1.34
-1.36
-1.405
-1.465
-1.555
-1.595
-1.56
-1.49
-1.425
-1.41
-1.445
-1.465
-1.44
-1.385
-1.315
-1.275
-1.175
-1.06
-0.975
-0.945
-0.9
-0.85
-0.79
-0.74
-0.645
-0.585
-0.55
-0.505
-0.46
-0.395
-0.325
-0.235
-0.19
-0.175
-0.185
-0.165
-0.125
-0.1
-0.09
-0.075
-0.055
-0.04
0.0
0.025
0.05
0.07
0.09
0.11
0.13
0.175
0.22
0.25
0.26
0.285
0.33
0.4
0.435
0.47
0.5
0.57
0.625
0.685
0.75
0.79
0.82
0.85
0.89
0.96
1.0
1.01
1.035
1.04
1.095
1.12
1.13
1.115
1.12
1.09
1.085
1.05
1.035
0.98
0.905
0.845
0.795
0.735
0.67
0.585
0.49
0.43
0.38
0.335
0.28
0.215
0.165
0.12
0.07
0.045
0.015
-0.01
-0.055
-0.08
-0.08
-0.1
-0.11
-0.135
-0.16
-0.175
-0.185
-0.19
-0.19
-0.2
-0.225
-0.225
-0.22
-0.21
-0.23
-0.24
-0.265
-0.285
-0.26
-0.255
-0.25
-0.265
-0.275
-0.29
-0.295
-0.27
-0.26
-0.275
-0.29
-0.3
-0.275
-0.27
-0.28
-0.29
-0.31
-0.325
-0.325
-0.295
-0.31
-0.355
-0.38
-0.37
-0.37
-0.36
-0.355
-0.36
-0.365
-0.405
-0.39
-0.365
-0.36
-0.38
-0.405
-0.4
-0.385
-0.355
-0.36
-0.38
-0.38
-0.385
-0.39
-0.38
-0.36
-0.37
-0.38
-0.385
-0.36
-0.355
-0.35
-0.39
-0.375
-0.37
-0.36
-0.35
-0.355
-0.375
-0.385
-0.395
-0.385
-0.365
-0.37
-0.39
-0.41
-0.405
-0.39
-0.395
-0.39
-0.375
-0.39
-0.395
-0.38
-0.36
-0.365
-0.36
-0.38
-0.375
-0.375
-0.375
-0.4
-0.415
-0.415
-0.425
-0.415
-0.385
-0.37
-0.38
-0.405
-0.43
-0.395
-0.375
-0.39
-0.385
-0.4
-0.4
-0.395
-0.385
-0.395
-0.395
-0.395
-0.405
-0.41
-0.405
-0.395
-0.395
-0.41
-0.42
-0.4
-0.365
-0.37
-0.38
-0.4
-0.395
-0.38
-0.375
-0.37
-0.38
-0.375
-0.39
-0.39
-0.38
-0.365
-0.36
-0.38
-0.38
-0.38
-0.35
-0.35
-0.365
-0.35
-0.355
-0.335
-0.32
-0.325
-0.335
-0.35
-0.355
-0.36
-0.36
-0.365
-0.38
-0.385
-0.385
-0.39
-0.35
-0.34
-0.34
-0.35
-0.35
-0.345
-0.33
-0.345
-0.36
-0.37
-0.36
-0.36
-0.35
-0.36
-0.355
-0.365
-0.365
-0.345
-0.32
-0.325
-0.35
-0.35
-0.36
-0.35
-0.345
-0.335
-0.35
-0.365
-0.365
-0.365
-0.335
-0.325
-0.345
-0.355
-0.355
-0.345
-0.32
-0.305
-0.32
-0.325
-0.33
-0.32
-0.29
-0.295
-0.315
-0.345
-0.34
-0.355
-0.335
-0.335
-0.335
-0.35
-0.365
-0.34
-0.33
-0.31
-0.325
-0.34
-0.345
-0.32
-0.31
-0.285
-0.295
-0.315
-0.305
-0.285
-0.225
-0.2
-0.175
-0.19
-0.19
-0.16
-0.11
-0.085
-0.08
-0.07
-0.005
0.11
0.265
0.38
0.465
0.565
0.705
0.875
0.98
1.05
1.035
0.95
0.865
0.77
0.635
0.4
0.135
-0.045
-0.18
-0.31
-0.36
-0.39
-0.41
-0.455
-0.5
-0.515
-0.53
-0.535
-0.56
-0.575
-0.58
-0.57
-0.575
-0.585
-0.58
-0.615
-0.61
-0.605
-0.58
-0.57
-0.59
-0.595
-0.59
-0.575
-0.56
-0.56
-0.56
-0.56
-0.53
-0.535
-0.52
-0.5
-0.49
-0.51
-0.51
-0.495
-0.465
-0.46
-0.475
-0.48
-0.46
-0.445
-0.43
-0.42
-0.405
-0.405
-0.405
-0.39
-0.34
-0.325
-0.315
-0.325
-0.315
-0.29
-0.26
-0.24
-0.25
-0.26
-0.235
-0.215
-0.17
-0.165
-0.145
-0.165
-0.15
-0.135
-0.11
-0.1
-0.12
-0.135
-0.15
-0.125
-0.105
-0.095
-0.135
-0.145
-0.15
-0.14
-0.14
-0.135
-0.135
-0.145
-0.16
-0.145
-0.125
-0.125
-0.145
-0.16
-0.16
-0.125
-0.11
-0.11
-0.095
-0.115
-0.105
-0.1
-0.085
-0.095
-0.085
-0.115
-0.11
-0.08
-0.085
-0.075
-0.07
-0.095
-0.085
-0.08
-0.065
-0.065
-0.065
-0.09
-0.105
-0.09
-0.06
-0.065
-0.085
-0.095
-0.1
-0.095
-0.085
-0.08
-0.07
-0.095
-0.1
-0.075
-0.065
-0.07
-0.07
-0.09
-0.095
-0.1
-0.09
-0.095
-0.12
-0.145
-0.15
-0.155
-0.14
-0.145
-0.17
-0.155
-0.165
-0.16
-0.155
-0.155
-0.18
-0.19
-0.195
-0.19
-0.185
-0.165
-0.185
-0.19
-0.195
-0.215
-0.19
-0.175
-0.19
-0.215
-0.22
-0.21
-0.195
-0.195
-0.215
-0.225
-0.215
-0.215
-0.185
-0.195
-0.2
-0.205
-0.2
-0.16
-0.165
-0.185
-0.19
-0.18
-0.185
-0.18
-0.175
-0.185
-0.175
-0.19
-0.185
-0.165
-0.175
-0.205
-0.225
-0.235
-0.23
-0.225
-0.205
-0.22
-0.23
-0.255
-0.245
-0.23
-0.205
-0.205
-0.215
-0.22
-0.205
-0.195
-0.17
-0.18
-0.195
-0.19
-0.205
-0.195
-0.185
-0.165
-0.18
-0.205
-0.205
-0.19
-0.165
-0.16
-0.185
-0.195
-0.175
-0.185
-0.16
-0.175
-0.16
-0.185
-0.2
-0.19
-0.18
-0.18
-0.175
-0.17
-0.19
-0.175
-0.125
-0.135
-0.17
-0.185
-0.165
-0.155
-0.165
-0.17
-0.18
-0.19
-0.21
-0.195
-0.17
-0.175
-0.19
-0.2
-0.2
-0.175
-0.135
-0.105
-0.065
-0.04
-0.015
0.025
0.08
0.145
0.18
0.215
0.25
0.31
0.42
0.585
0.745
0.9
1.015
1.15
1.3
1.415
1.46
1.445
1.375
1.26
1.155
1.025
0.86
0.63
0.36
0.15
0.02
-0.12
-0.23
-0.275
-0.275
-0.28
-0.295
-0.32
-0.355
-0.385
-0.4
-0.41
-0.415
-0.43
-0.46
-0.49
-0.5
-0.495
-0.5
-0.515
-0.515
-0.55
-0.54
-0.525
-0.495
-0.485
-0.485
-0.475
-0.455
-0.435
-0.425
-0.41
-0.395
-0.39
-0.385
-0.365
-0.335
-0.32
-0.315
-0.3
-0.28
-0.26
-0.22
-0.2
-0.195
-0.175
-0.155
-0.125
-0.09
-0.085
-0.075
-0.075
-0.05
-0.015
0.0
0.0
-0.005
-0.015
-0.015
-0.02
0.0
0.03
0.015
-0.02
-0.025
-0.025
-0.04
-0.065
-0.105
-0.14
-0.15
-0.16
-0.165
-0.165
-0.17
-0.205
-0.21
-0.19
-0.16
-0.17
-0.18
-0.19
-0.175
-0.175
-0.165
-0.17
-0.175
-0.175
-0.185
-0.175
-0.165
-0.16
-0.155
-0.16
-0.18
-0.165
-0.15
-0.135
-0.145
-0.17
-0.175
-0.165
-0.13
-0.135
-0.145
-0.175
-0.165
-0.14
-0.12
-0.125
-0.135
-0.145
-0.13
-0.13
-0.115
-0.12
-0.125
-0.14
-0.16
-0.19
-0.17
-0.18
-0.19
-0.2
-0.22
-0.195
-0.195
-0.21
-0.225
-0.24
-0.24
-0.25
-0.24
-0.24
-0.255
-0.28
-0.265
-0.245
-0.225
-0.22
-0.22
-0.23
-0.23
-0.215
-0.185
-0.175
-0.2
-0.225
-0.225
-0.195
-0.16
-0.155
-0.18
-0.185
-0.175
-0.165
-0.16
-0.15
-0.165
-0.18
-0.2
-0.18
-0.175
-0.165
-0.2
-0.205
-0.2
-0.19
-0.18
-0.2
-0.205
-0.21
-0.205
-0.18
-0.165
-0.15
-0.165
-0.165
-0.16
-0.15
-0.13
-0.125
-0.14
-0.135
-0.135
-0.135
-0.135
-0.125
-0.14
-0.15
-0.145
-0.135
-0.13
-0.135
-0.155
-0.17
-0.19
-0.18
-0.175
-0.175
-0.185
-0.185
-0.2
-0.2
-0.18
-0.17
-0.175
-0.185
-0.18
-0.15
-0.14
-0.16
-0.175
-0.175
-0.17
-0.16
-0.155
-0.155
-0.16
-0.175
-0.18
-0.165
-0.14
-0.16
-0.175
-0.17
-0.16
-0.155
-0.145
-0.155
-0.14
-0.14
-0.14
-0.125
-0.095
-0.085
-0.09
-0.1
-0.085
-0.08
-0.045
-0.03
0.01
0.065
0.085
0.12
0.21
0.255
0.3
0.32
0.345
0.41
0.515
0.67
0.845
0.975
1.085
1.18
1.295
1.395
1.435
1.43
1.345
1.23
1.09
0.935
0.775
0.565
0.315
0.13
0.0
-0.125
-0.24
-0.3
-0.335
-0.345
-0.365
-0.39
-0.42
-0.45
-0.465
-0.465
-0.46
-0.475
-0.49
-0.515
-0.515
-0.495
-0.475
-0.485
-0.515
-0.53
-0.515
-0.52
-0.495
-0.495
-0.485
-0.48
-0.455
-0.45
-0.43
-0.41
-0.405
-0.425
-0.425
-0.4
-0.395
-0.375
-0.38
-0.4
-0.395
-0.365
-0.35
-0.34
-0.34
-0.34
-0.32
-0.28
-0.245
-0.245
-0.26
-0.25
-0.225
-0.195
-0.17
-0.16
-0.14
-0.14
-0.125
-0.11
-0.095
-0.075
-0.085
-0.085
-0.065
-0.04
-0.01
-0.005
-0.035
-0.04
-0.015
0.015
0.02
0.0
-0.015
-0.03
-0.04
-0.05
-0.045
-0.055
-0.095
-0.115
-0.13
-0.13
-0.12
-0.13
-0.155
-0.175
-0.17
-0.155
-0.16
-0.16
-0.17
-0.185
-0.2
-0.19
-0.175
-0.17
-0.195
-0.225
-0.245
-0.25
-0.265
-0.28
-0.285
-0.28
-0.285
-0.275
-0.265
-0.26
-0.27
-0.295
-0.305
-0.275
-0.25
-0.265
-0.285
-0.285
-0.26
-0.265
-0.265
-0.27
-0.275
-0.3
-0.285
-0.28
-0.26
-0.275
-0.295
-0.3
-0.28
-0.28
-0.255
-0.265
-0.245
-0.245
-0.235
-0.215
-0.19
-0.215
-0.225
-0.225
-0.22
-0.205
-0.2
-0.21
-0.2
-0.215
-0.21
-0.205
-0.18
-0.17
-0.2
-0.21
-0.2
-0.185
-0.195
-0.2
-0.205
-0.22
-0.22
-0.22
-0.2
-0.21
-0.225
-0.195
-0.125
-0.03
0.06
0.11
0.175
0.22
0.245
0.27
0.32
0.39
0.455
0.555
0.68
0.8
0.87
0.94
1.005
1.065
1.1
1.08
0.985
0.86
0.725
0.615
0.48
0.315
0.155
-0.005
-0.13
-0.23
-0.27
-0.27
-0.265
-0.295
-0.33
-0.36
-0.375
-0.39
-0.385
-0.365
-0.38
-0.415
-0.425
-0.41
-0.405
-0.43
-0.455
-0.475
-0.46
-0.46
-0.455
-0.45
-0.44
-0.43
-0.435
-0.445
-0.415
-0.43
-0.41
-0.405
-0.405
-0.36
-0.335
-0.325
-0.345
-0.345
-0.33
-0.3
-0.265
-0.26
-0.26
-0.275
-0.24
-0.215
-0.175
-0.175
-0.17
-0.15
-0.14
-0.095
-0.07
-0.04
-0.03
-0.005
0.01
0.02
0.075
0.095
0.08
0.065
0.075
0.1
0.135
0.13
0.115
0.1
0.115
0.12
0.105
0.085
0.06
0.045
0.02
-0.01
-0.005
-0.025
-0.075
-0.115
-0.13
-0.13
-0.115
-0.14
-0.145
-0.16
-0.175
-0.16
-0.165
-0.16
-0.165
-0.2
-0.195
-0.185
-0.165
-0.18
-0.19
-0.205
-0.19
-0.19
-0.19
-0.195
-0.195
-0.2
-0.2
-0.195
-0.19
-0.18
-0.18
-0.2
-0.22
-0.2
-0.185
-0.165
-0.18
-0.18
-0.185
-0.16
-0.145
-0.145
-0.15
-0.145
-0.15
-0.145
-0.12
-0.12
-0.135
-0.135
-0.14
-0.115
-0.125
-0.15
-0.165
-0.175
-0.175
-0.17
-0.155
-0.155
-0.16
