Lead II
-0.765
-0.77
-0.775
-0.76
-0.75
-0.755
-0.755
-0.745
-0.745
-0.755
-0.76
-0.785
-0.775
-0.77
-0.77
-0.775
-0.77
-0.755
-0.75
-0.745
-0.74
-0.75
-0.765
-0.765
-0.77
-0.775
-0.77
-0.755
-0.76
-0.745
-0.745
-0.74
-0.755
-0.755
-0.76
-0.77
-0.775
-0.79
-0.78
-0.775
-0.77
-0.755
-0.755
-0.765
-0.76
-0.76
-0.77
-0.77
-0.775
-0.78
-0.775
-0.775
-0.765
-0.755
-0.765
-0.745
-0.74
-0.755
-0.76
-0.765
-0.785
-0.79
-0.77
-0.755
-0.76
-0.75
-0.745
-0.76
-0.745
-0.78
-0.77
-0.77
-0.785
-0.775
-0.78
-0.77
-0.765
-0.75
-0.755
-0.745
-0.755
-0.77
-0.775
-0.775
-0.775
-0.785
-0.78
-0.76
-0.755
-0.76
-0.75
-0.75
-0.76
-0.765
-0.765
-0.78
-0.775
-0.78
-0.78
-0.775
-0.765
-0.765
-0.76
-0.75
-0.755
-0.765
-0.77
-0.775
-0.785
-0.785
-0.79
-0.795
-0.78
-0.78
-0.77
-0.785
-0.785
-0.79
-0.8
-0.8
-0.8
-0.81
-0.805
-0.795
-0.8
-0.78
-0.79
-0.79
-0.805
-0.81
-0.815
-0.825
-0.81
-0.81
-0.8
-0.815
-0.81
-0.805
-0.795
-0.79
-0.795
-0.795
-0.8
-0.82
-0.815
-0.82
-0.82
-0.815
-0.82
-0.81
-0.805
-0.815
-0.8
-0.825
-0.825
-0.84
-0.835
-0.835
-0.835
-0.835
-0.83
-0.835
-0.83
-0.83
-0.83
-0.84
-0.855
-0.86
-0.86
-0.865
-0.86
-0.855
-0.845
-0.825
-0.82
-0.825
-0.83
-0.835
-0.835
-0.845
-0.845
-0.85
-0.845
-0.85
-0.835
-0.835
-0.84
-0.845
-0.86
-0.845
-0.86
-0.855
-0.855
-0.86
-0.845
-0.835
-0.84
-0.84
-0.835
-0.845
-0.855
-0.845
-0.84
-0.835
-0.81
-0.82
-0.805
-0.8
-0.795
-0.79
-0.795
-0.815
-0.835
-0.845
-0.85
-0.865
-0.875
-0.87
-0.875
-0.855
-0.85
-0.835
-0.81
-0.795
-0.785
-0.78
-0.785
-0.81
-0.805
-0.815
-0.82
-0.835
-0.84
-0.85
-0.87
-0.88
-0.9
-0.915
-0.915
-0.925
-0.93
-0.925
-0.92
-0.915
-0.905
-0.89
-0.89
-0.905
-0.9
-0.91
-0.93
-0.95
-0.96
-0.945
-0.895
-0.81
-0.715
-0.61
-0.54
-0.485
-0.465
-0.48
-0.555
-0.67
-0.81
-0.91
-0.915
-0.82
-0.62
-0.35
-0.045
0.255
0.56
0.845
1.085
1.3
1.46
1.53
1.54
1.47
1.34
1.18
0.94
0.67
0.405
0.125
-0.135
-0.415
-0.675
-0.9
-1.075
-1.21
-1.285
-1.29
-1.26
-1.24
-1.22
-1.19
-1.17
-1.15
-1.15
-1.135
-1.125
-1.11
-1.11
-1.105
-1.09
-1.115
-1.115
-1.12
-1.13
-1.125
-1.135
-1.125
-1.125
-1.12
-1.12
-1.115
-1.115
-1.12
-1.12
-1.125
-1.125
-1.125
-1.145
-1.145
-1.16
-1.15
-1.135
-1.14
-1.13
-1.14
-1.145
-1.15
-1.165
-1.18
-1.185
-1.19
-1.18
-1.195
-1.18
-1.185
-1.185
-1.18
-1.18
-1.19
-1.205
-1.205
-1.21
-1.225
-1.24
-1.235
-1.225
-1.215
-1.22
-1.23
-1.24
-1.235
-1.255
-1.26
-1.265
-1.27
-1.275
-1.27
-1.27
-1.265
-1.27
-1.275
-1.295
-1.285
-1.29
-1.295
-1.305
-1.3
-1.3
-1.29
-1.3
-1.295
-1.285
-1.29
-1.28
-1.275
-1.28
-1.285
-1.28
-1.255
-1.25
-1.245
-1.225
-1.215
-1.195
-1.175
-1.17
-1.165
-1.15
-1.145
-1.13
-1.115
-1.1
-1.085
-1.065
-1.04
-1.03
-1.02
-1.02
-1.01
-1.01
-1.005
-0.995
-0.98
-0.97
-0.96
-0.945
-0.94
-0.925
-0.94
-0.925
-0.92
-0.94
-0.94
-0.955
-0.98
-0.975
-0.98
-0.99
-1.005
-1.01
-1.03
-1.04
-1.055
-1.08
-1.1
-1.115
-1.135
-1.17
-1.15
-1.16
-1.165
-1.17
-1.175
-1.195
-1.215
-1.225
-1.235
-1.235
-1.24
-1.24
-1.23
-1.235
-1.245
-1.23
-1.23
-1.235
-1.235
-1.25
-1.245
-1.25
-1.25
-1.245
-1.225
-1.22
-1.22
-1.21
-1.2
-1.205
-1.205
-1.205
-1.205
-1.21
-1.21
-1.2
-1.19
-1.175
-1.18
-1.165
-1.17
-1.165
-1.165
-1.17
-1.165
-1.185
-1.175
-1.175
-1.17
-1.155
-1.15
-1.135
-1.125
-1.12
-1.12
-1.135
-1.135
-1.14
-1.14
-1.13
-1.13
-1.15
-1.125
-1.115
-1.11
-1.1
-1.105
-1.105
-1.115
-1.12
-1.12
-1.115
-1.1
-1.1
-1.095
-1.075
-1.09
-1.09
-1.095
-1.11
-1.105
-1.11
-1.105
-1.11
-1.1
-1.1
-1.1
-1.08
-1.09
-1.1
-1.105
-1.1
-1.095
-1.095
-1.1
-1.095
-1.09
-1.085
-1.09
-1.08
-1.085
-1.075
-1.08
-1.085
-1.095
-1.095
-1.095
-1.09
-1.09
-1.08
-1.085
-1.075
-1.085
-1.08
-1.08
-1.085
-1.085
-1.095
-1.09
-1.08
-1.09
-1.075
-1.07
-1.06
-1.08
-1.075
-1.075
-1.08
-1.07
-1.08
-1.08
-1.08
-1.085
-1.08
-1.065
-1.055
-1.055
-1.065
-1.07
-1.07
-1.08
-1.075
-1.085
-1.09
-1.085
-1.07
-1.06
-1.045
-1.055
-1.055
-1.06
-1.055
-1.055
-1.05
-1.055
-1.07
-1.06
-1.06
-1.06
-1.055
-1.055
-1.04
-1.05
-1.05
-1.045
-1.045
-1.045
-1.045
-1.04
-1.035
-1.025
-1.025
-1.025
-1.02
-1.03
-1.03
-1.045
-1.045
-1.035
-1.03
-1.025
-1.02
-1.025
-1.01
-1.015
-1.015
-1.025
-1.03
-1.03
-1.035
-1.035
-1.025
-1.025
-1.015
-1.005
-0.99
-0.995
-1.0
-1.0
-1.01
-1.005
-1.0
-0.995
-0.98
-0.98
-0.98
-0.975
-0.97
-0.96
-0.95
-0.945
-0.94
-0.955
-0.935
-0.93
-0.94
-0.93
-0.925
-0.93
-0.955
-0.965
-0.955
-0.97
-0.97
-0.975
-0.965
-0.96
-0.935
-0.91
-0.9
-0.895
-0.88
-0.895
-0.92
-0.935
-0.96
-0.97
-0.985
-1.01
-1.01
-1.02
-1.01
-1.0
-0.99
-0.99
-0.98
-0.985
-1.005
-1.02
-1.025
-1.035
-1.045
-1.035
-1.01
-0.95
-0.855
-0.765
-0.66
-0.57
-0.525
-0.505
-0.525
-0.625
-0.785
-0.955
-1.06
-1.065
-0.94
-0.72
-0.435
-0.135
0.17
0.44
0.71
0.955
1.14
1.255
1.285
1.23
1.145
0.985
0.765
0.52
0.245
-0.01
-0.285
-0.57
-0.825
-1.035
-1.18
-1.255
-1.255
-1.235
-1.2
-1.16
-1.125
-1.105
-1.095
-1.075
-1.07
-1.05
-1.05
-1.035
-1.04
-1.05
-1.055
-1.065
-1.06
-1.065
-1.06
-1.065
-1.05
-1.055
-1.055
-1.07
-1.045
-1.055
-1.05
-1.055
-1.065
-1.065
-1.06
-1.065
-1.065
-1.055
-1.045
-1.05
-1.045
-1.055
-1.055
-1.065
-1.08
-1.075
-1.09
-1.1
-1.09
-1.085
-1.085
-1.09
-1.075
-1.08
-1.095
-1.105
-1.11
-1.13
-1.13
-1.135
-1.14
-1.13
-1.135
-1.135
-1.145
-1.13
-1.14
-1.16
-1.165
-1.175
-1.185
-1.175
-1.18
-1.195
-1.195
-1.195
-1.2
-1.2
-1.2
-1.215
-1.235
-1.23
-1.24
-1.25
-1.25
-1.24
-1.25
-1.23
-1.235
-1.23
-1.23
-1.235
-1.24
-1.24
-1.25
-1.25
-1.25
-1.245
-1.225
-1.2
-1.19
-1.185
-1.175
-1.17
-1.17
-1.17
-1.17
-1.16
-1.15
-1.14
-1.11
-1.09
-1.065
-1.055
-1.04
-1.025
-1.02
-1.015
-1.0
-0.99
-0.98
-0.955
-0.945
-0.935
-0.905
-0.89
-0.86
-0.87
-0.865
-0.87
-0.865
-0.865
-0.86
-0.84
-0.83
-0.825
-0.82
-0.82
-0.82
-0.835
-0.84
-0.855
-0.865
-0.88
-0.89
-0.905
-0.905
-0.915
-0.92
-0.93
-0.935
-0.96
-0.965
-0.975
-0.98
-0.99
-1.0
-1.0
-1.005
-1.0
-1.0
-1.0
-1.01
-1.015
-1.025
-1.03
-1.04
-1.045
-1.035
-1.04
-1.025
-1.02
-1.02
-1.015
-1.02
-1.025
-1.02
-1.035
-1.025
-1.03
-1.025
-1.005
-1.005
-0.99
-1.0
-1.0
-0.995
-0.99
-1.0
-1.0
-1.0
-1.0
-1.0
-0.995
-0.985
-0.975
-0.96
-0.96
-0.965
-0.97
-0.96
-0.97
-0.98
-0.98
-0.975
-0.98
-0.965
-0.975
-0.955
-0.945
-0.945
-0.94
-0.945
-0.95
-0.96
-0.965
-0.95
-0.955
-0.94
-0.935
-0.93
-0.925
-0.93
-0.925
-0.935
-0.935
-0.94
-0.95
-0.95
-0.955
-0.94
-0.94
-0.91
-0.92
-0.92
-0.925
-0.915
-0.93
-0.93
-0.93
-0.94
-0.93
-0.925
-0.935
-0.915
-0.92
-0.915
-0.92
-0.935
-0.93
-0.93
-0.92
-0.93
-0.94
-0.92
-0.91
-0.905
-0.9
-0.905
-0.9
-0.91
-0.92
-0.925
-0.915
-0.92
-0.925
-0.925
-0.92
-0.9
-0.905
-0.91
-0.9
-0.91
-0.91
-0.92
-0.915
-0.91
-0.905
-0.9
-0.895
-0.895
-0.895
-0.895
-0.895
-0.895
-0.905
-0.905
-0.91
-0.915
-0.905
-0.905
-0.905
-0.895
-0.89
-0.885
-0.89
-0.89
-0.9
-0.91
-0.905
-0.91
-0.905
-0.9
-0.9
-0.9
-0.895
-0.885
-0.895
-0.89
-0.9
-0.89
-0.905
-0.9
-0.89
-0.91
-0.89
-0.88
-0.88
-0.89
-0.89
-0.895
-0.9
-0.91
-0.895
-0.895
-0.9
-0.885
-0.89
-0.88
-0.885
-0.875
-0.88
-0.875
-0.89
-0.895
-0.89
-0.885
-0.885
-0.89
-0.89
-0.865
-0.86
-0.865
-0.86
-0.865
-0.87
-0.87
-0.865
-0.865
-0.87
-0.855
-0.85
-0.845
-0.83
-0.84
-0.84
-0.845
-0.855
-0.865
-0.855
-0.845
-0.83
-0.8
-0.805
-0.79
-0.795
-0.8
-0.795
-0.805
-0.83
-0.845
-0.86
-0.87
-0.855
-0.845
-0.845
-0.84
-0.835
-0.835
-0.815
-0.795
-0.795
-0.785
-0.785
-0.795
-0.795
-0.82
-0.835
-0.845
-0.86
-0.87
-0.89
-0.9
-0.9
-0.885
-0.885
-0.895
-0.885
-0.88
-0.875
-0.875
-0.87
-0.89
-0.905
-0.92
-0.93
-0.89
-0.82
-0.715
-0.61
-0.525
-0.455
-0.415
-0.415
-0.46
-0.58
-0.735
-0.88
-0.945
-0.89
-0.7
-0.44
-0.13
0.17
0.445
0.735
0.975
1.21
1.395
1.5
1.545
1.51
1.435
1.295
1.105
0.885
0.63
0.365
0.125
-0.125
-0.385
-0.62
-0.825
-1.01
-1.13
-1.19
-1.21
-1.2
-1.17
-1.13
-1.105
-1.085
-1.07
-1.05
-1.045
-1.03
-1.025
-1.005
-0.995
-1.0
-0.99
-0.99
-1.005
-1.0
-1.02
-1.015
-1.025
-1.035
-1.025
-1.02
-1.02
-1.02
-1.015
-1.005
-1.005
-1.015
-1.025
-1.025
-1.03
-1.04
-1.025
-1.03
-1.02
-1.01
-1.01
-1.01
-1.015
-1.03
-1.02
-1.03
-1.04
-1.035
-1.04
-1.05
-1.04
-1.035
-1.03
-1.04
-1.04
-1.045
-1.06
-1.075
-1.085
-1.09
-1.105
-1.11
-1.105
-1.095
-1.09
-1.09
-1.1
-1.1
-1.105
-1.125
-1.115
-1.135
-1.14
-1.145
-1.145
-1.14
-1.135
-1.145
-1.145
-1.145
-1.16
-1.155
-1.17
-1.175
-1.18
-1.185
-1.17
-1.17
-1.16
-1.145
-1.16
-1.155
-1.16
-1.16
-1.17
-1.165
-1.15
-1.155
-1.13
-1.105
-1.09
-1.065
-1.055
-1.045
-1.045
-1.035
-1.025
-1.005
-0.995
-0.97
-0.955
-0.94
-0.905
-0.89
-0.87
-0.86
-0.855
-0.845
-0.84
-0.83
-0.82
-0.815
-0.805
-0.785
-0.78
-0.77
-0.76
-0.77
-0.78
-0.78
-0.795
-0.805
-0.81
-0.825
-0.83
-0.83
-0.835
-0.84
-0.855
-0.88
-0.895
-0.905
-0.93
-0.93
-0.95
-0.96
-0.965
-0.965
-0.97
-0.98
-0.995
-0.995
-1.015
-1.015
-1.035
-1.035
-1.035
-1.04
-1.04
-1.03
-1.02
-1.015
-1.03
-1.025
-1.015
-1.03
-1.025
-1.015
-1.015
-1.015
-1.01
-1.0
-0.99
-0.98
-0.985
-0.99
-0.975
-0.995
-0.98
-0.97
-0.97
-0.965
-0.96
-0.955
-0.945
-0.945
-0.935
-0.945
-0.945
-0.95
-0.96
-0.955
-0.96
-0.955
-0.935
-0.925
-0.92
-0.91
-0.925
-0.915
-0.915
-0.92
-0.925
-0.93
-0.925
-0.92
-0.915
-0.905
-0.915
-0.9
-0.905
-0.905
-0.915
-0.9
-0.905
-0.915
-0.91
-0.91
-0.905
-0.91
-0.9
-0.895
-0.91
-0.9
-0.89
-0.91
-0.905
-0.905
-0.9
-0.9
-0.885
-0.88
-0.885
-0.865
-0.875
-0.875
-0.875
-0.875
-0.89
-0.885
-0.885
-0.885
-0.89
-0.875
-0.88
-0.875
-0.875
-0.865
-0.87
-0.87
-0.88
-0.89
-0.885
-0.885
-0.875
-0.875
-0.87
-0.86
-0.86
-0.85
-0.85
-0.87
-0.88
-0.88
-0.885
-0.875
-0.875
-0.865
-0.86
-0.85
-0.865
-0.86
-0.87
-0.865
-0.875
-0.865
-0.875
-0.87
-0.865
-0.875
-0.865
-0.85
-0.87
-0.875
-0.89
-0.885
-0.895
-0.88
-0.86
-0.875
-0.865
-0.855
-0.86
-0.85
-0.845
-0.845
-0.855
-0.865
-0.87
-0.865
-0.865
-0.855
-0.86
-0.86
-0.845
-0.84
-0.84
-0.84
-0.835
-0.84
-0.86
-0.845
-0.86
-0.87
-0.855
-0.85
-0.835
-0.825
-0.84
-0.85
-0.855
-0.855
-0.845
-0.855
-0.845
-0.845
-0.835
-0.83
-0.825
-0.815
-0.82
-0.82
-0.82
-0.82
-0.805
-0.79
-0.795
-0.785
-0.77
-0.765
-0.77
-0.775
-0.78
-0.795
-0.805
-0.82
-0.815
-0.815
-0.81
-0.815
-0.8
-0.795
-0.77
-0.755
-0.745
-0.755
-0.755
-0.77
-0.78
-0.78
-0.795
-0.815
-0.815
-0.83
-0.825
-0.83
-0.825
-0.835
-0.845
-0.855
-0.855
-0.865
-0.875
-0.865
-0.855
-0.855
-0.87
-0.865
-0.875
-0.855
-0.82
-0.755
-0.66
-0.555
-0.485
-0.41
-0.35
-0.345
-0.41
-0.53
-0.695
-0.875
-0.975
-0.975
-0.865
-0.66
-0.385
-0.11
0.16
0.43
0.665
0.875
1.065
1.195
1.275
1.3
1.26
1.195
1.11
0.99
0.835
0.64
0.43
0.23
0.015
-0.205
-0.435
-0.68
-0.885
-1.03
-1.12
-1.165
-1.145
-1.09
-1.04
-1.0
-0.955
-0.93
-0.92
-0.925
-0.925
-0.93
-0.925
-0.925
-0.92
-0.925
-0.915
-0.92
-0.92
-0.925
-0.935
-0.925
-0.935
-0.935
-0.935
-0.93
-0.92
-0.935
-0.915
-0.92
-0.93
-0.925
-0.935
-0.945
-0.96
-0.96
-0.96
-0.965
-0.965
-0.96
-0.96
-0.96
-0.955
-0.96
-0.97
-0.99
-0.99
-0.995
-1.005
-1.01
-0.99
-0.98
-0.99
-1.0
-0.98
-1.005
-1.03
-1.02
-1.04
-1.05
-1.055
-1.06
-1.05
-1.05
-1.065
-1.06
-1.075
-1.075
-1.095
-1.095
-1.115
-1.12
-1.13
-1.145
-1.125
-1.135
-1.14
-1.13
-1.125
-1.135
-1.145
-1.15
-1.16
-1.16
-1.155
-1.165
-1.15
-1.14
-1.125
-1.11
-1.1
-1.085
-1.095
-1.09
-1.095
-1.085
-1.085
-1.05
-1.02
-1.005
-0.975
-0.95
-0.935
-0.935
-0.915
-0.9
-0.89
-0.885
-0.86
-0.84
-0.83
-0.81
-0.795
-0.775
-0.775
-0.77
-0.775
-0.775
-0.765
-0.775
-0.77
-0.76
-0.77
-0.765
-0.765
-0.77
-0.775
-0.785
-0.8
-0.815
-0.83
-0.85
-0.855
-0.865
-0.865
-0.88
-0.87
-0.875
-0.89
-0.9
-0.9
-0.925
-0.94
-0.945
-0.945
-0.945
-0.945
-0.94
-0.93
-0.935
-0.935
-0.935
-0.945
-0.945
-0.945
-0.96
-0.96
-0.95
-0.955
-0.94
-0.94
-0.935
-0.915
-0.92
-0.92
-0.93
-0.925
-0.93
-0.925
-0.925
-0.915
-0.915
-0.9
-0.885
-0.9
-0.9
-0.905
-0.905
-0.91
-0.915
-0.915
-0.915
-0.905
-0.895
-0.89
-0.895
-0.885
-0.89
-0.895
-0.9
-0.905
-0.91
-0.905
-0.91
-0.9
-0.895
-0.88
-0.875
-0.865
-0.87
-0.89
-0.895
-0.895
-0.895
-0.895
-0.89
-0.89
-0.885
-0.875
-0.87
-0.865
-0.865
-0.875
-0.88
-0.88
-0.885
-0.885
-0.885
-0.88
-0.875
-0.87
-0.875
-0.87
-0.87
-0.875
-0.87
-0.88
-0.88
-0.88
-0.885
-0.87
-0.87
-0.865
-0.855
-0.86
-0.865
-0.87
-0.88
-0.885
-0.88
-0.885
-0.89
-0.89
-0.865
-0.865
-0.845
-0.855
-0.87
-0.87
-0.875
-0.88
-0.89
-0.9
-0.895
-0.885
-0.865
-0.865
-0.85
-0.85
-0.86
-0.875
-0.88
-0.89
-0.895
-0.895
-0.9
-0.885
-0.885
-0.88
-0.865
-0.87
-0.865
-0.875
-0.88
-0.875
-0.88
-0.88
-0.89
-0.88
-0.87
-0.865
-0.865
-0.86
-0.85
-0.865
-0.855
-0.87
-0.865
-0.875
-0.88
-0.87
-0.87
-0.865
-0.85
-0.84
-0.845
-0.85
-0.865
-0.87
-0.865
-0.89
-0.88
-0.875
-0.865
-0.855
-0.85
-0.855
-0.855
-0.865
-0.86
-0.865
-0.87
-0.865
-0.865
-0.86
-0.865
-0.845
-0.835
-0.835
-0.835
-0.85
-0.855
-0.855
-0.855
-0.86
-0.845
-0.845
-0.85
-0.835
-0.82
-0.825
-0.82
-0.83
-0.825
-0.83
-0.83
-0.85
-0.825
-0.815
-0.8
-0.78
-0.77
-0.77
-0.775
-0.785
-0.785
-0.8
-0.805
-0.815
-0.825
-0.825
-0.81
-0.815
-0.8
-0.815
-0.8
-0.8
-0.8
-0.78
-0.77
-0.755
-0.76
-0.76
-0.76
-0.775
-0.78
-0.815
-0.835
-0.855
-0.87
-0.87
-0.875
-0.88
-0.87
-0.88
-0.875
-0.865
-0.85
-0.88
-0.89
-0.9
-0.9
-0.895
-0.835
-0.75
-0.65
-0.56
-0.465
-0.405
-0.39
-0.47
-0.61
-0.765
-0.88
-0.865
-0.735
-0.49
-0.2
0.095
0.38
0.675
0.92
1.14
1.34
1.46
1.515
1.51
1.465
1.35
1.205
1.015
0.795
0.57
0.33
0.095
-0.145
-0.4
-0.665
-0.89
-1.06
-1.165
-1.215
-1.21
-1.185
-1.15
-1.13
-1.095
-1.075
-1.06
-1.03
-1.025
-1.02
-1.03
-1.0
-1.0
-1.0
-1.01
-1.01
-1.01
-1.01
-1.005
-1.01
-1.02
-1.015
-1.025
-1.02
-1.04
-1.04
-1.03
-1.01
-1.02
-1.025
-1.03
-1.02
-1.03
-1.03
-1.05
-1.045
-1.04
-1.04
-1.035
-1.025
-1.035
-1.04
-1.04
-1.04
-1.045
-1.055
-1.06
-1.06
-1.06
-1.055
-1.06
-1.055
-1.06
-1.07
-1.065
-1.085
-1.085
-1.09
-1.1
-1.11
-1.1
-1.11
-1.09
-1.09
-1.095
-1.105
-1.11
-1.125
-1.14
-1.14
-1.145
-1.15
-1.145
-1.14
-1.145
-1.145
-1.145
-1.16
-1.165
-1.17
-1.18
-1.175
-1.18
-1.175
-1.165
-1.15
-1.145
-1.14
-1.13
-1.13
-1.125
-1.13
-1.125
-1.11
-1.115
-1.09
-1.065
-1.06
-1.035
-1.01
-1.005
-0.99
-0.985
-0.975
-0.96
-0.95
-0.935
-0.92
-0.89
-0.855
-0.85
-0.825
-0.815
-0.81
-0.795
-0.795
-0.805
-0.79
-0.78
-0.775
-0.78
-0.785
-0.78
-0.775
-0.77
-0.78
-0.79
-0.81
-0.815
-0.835
-0.845
-0.85
-0.865
-0.86
-0.87
-0.87
-0.885
-0.9
-0.92
-0.935
-0.96
-0.96
-0.985
-0.995
-0.995
-0.985
-1.0
-0.985
-0.995
-0.99
-1.0
-1.015
-1.035
-1.04
-1.03
-1.055
-1.035
-1.035
-1.03
-1.015
-1.005
-1.01
-1.02
-1.03
-1.02
-1.025
-1.02
-1.015
-1.0
-0.985
-0.985
-0.97
-0.975
-0.98
-0.985
-0.965
-0.975
-0.975
-0.985
-0.97
-0.97
-0.96
-0.945
-0.935
-0.925
-0.93
-0.925
-0.935
-0.935
-0.94
-0.95
-0.945
-0.94
-0.93
-0.925
-0.9
-0.93
-0.925
-0.91
-0.91
-0.91
-0.92
-0.93
-0.925
-0.925
-0.915
-0.915
-0.905
-0.9
-0.89
-0.895
-0.905
-0.905
-0.905
-0.91
-0.93
-0.915
-0.905
-0.9
-0.885
-0.895
-0.89
-0.89
-0.895
-0.885
-0.905
-0.91
-0.9
-0.895
-0.885
-0.88
-0.89
-0.88
-0.885
-0.89
-0.89
-0.895
-0.9
-0.91
-0.905
-0.9
-0.885
-0.885
-0.88
-0.87
-0.89
-0.9
-0.9
-0.9
-0.905
-0.905
-0.89
-0.89
-0.88
-0.88
-0.87
-0.87
-0.88
-0.875
-0.885
-0.885
-0.89
-0.89
-0.895
-0.89
-0.875
-0.88
-0.875
-0.875
-0.86
-0.87
-0.87
-0.875
-0.885
-0.885
-0.885
-0.885
-0.87
-0.865
-0.865
-0.855
-0.85
-0.86
-0.885
-0.88
-0.875
-0.87
-0.88
-0.86
-0.865
-0.865
-0.865
-0.875
-0.855
-0.86
-0.875
-0.88
-0.885
-0.885
-0.88
-0.875
-0.865
-0.855
-0.845
-0.835
-0.845
-0.855
-0.87
-0.87
-0.875
-0.875
-0.87
-0.87
-0.855
-0.85
-0.84
-0.845
-0.85
-0.85
-0.85
-0.85
-0.855
-0.86
-0.855
-0.845
-0.835
-0.82
-0.815
-0.805
-0.81
-0.815
-0.825
-0.835
-0.855
-0.845
-0.83
-0.805
-0.795
-0.785
-0.77
-0.765
-0.77
-0.785
-0.78
-0.79
-0.805
-0.815
-0.81
-0.815
-0.815
-0.82
-0.815
-0.81
-0.81
-0.8
-0.785
-0.785
-0.78
-0.78
-0.78
-0.785
-0.79
-0.795
-0.81
-0.83
-0.845
-0.855
-0.865
-0.87
-0.885
-0.89
-0.89
-0.87
-0.86
-0.85
-0.85
-0.865
-0.88
-0.895
-0.91
-0.895
-0.855
-0.76
-0.655
-0.54
-0.425
-0.365
-0.355
-0.435
-0.59
-0.8
-0.95
-0.985
-0.88
-0.64
-0.325
0.01
0.34
0.635
0.905
1.12
1.26
1.33
1.33
1.265
1.17
1.035
0.84
0.615
0.39
0.165
-0.07
-0.32
-0.565
-0.795
-0.97
-1.095
-1.155
-1.175
-1.15
-1.105
-1.075
-1.06
-1.015
-0.99
-0.97
-0.955
-0.96
-0.96
-0.97
-0.97
-0.975
-0.98
-0.975
-0.965
-0.97
-0.96
-0.96
-0.965
-0.975
-0.98
-1.0
-0.99
-0.985
-0.975
-0.97
-0.97
-0.965
-0.96
-0.965
-0.97
-0.985
-0.99
-0.985
-0.995
-1.005
-0.99
-0.985
-0.99
-0.975
-0.985
-0.99
-1.0
-1.01
-1.015
-1.03
-1.03
-1.045
-1.04
-1.03
-1.03
-1.03
-1.04
-1.055
-1.06
-1.07
-1.08
-1.085
-1.095
-1.115
-1.105
-1.105
-1.1
-1.095
-1.09
-1.1
-1.115
-1.13
-1.145
-1.155
-1.16
-1.175
-1.155
-1.165
-1.155
-1.155
-1.16
-1.16
-1.165
-1.175
-1.165
-1.19
-1.18
-1.18
-1.18
-1.165
-1.16
-1.145
-1.135
-1.125
-1.125
-1.11
-1.115
-1.105
-1.095
-1.075
-1.06
-1.04
-1.015
-1.01
-0.98
-0.96
-0.95
-0.955
-0.95
-0.925
-0.92
-0.905
-0.89
-0.87
-0.845
-0.82
-0.805
-0.795
-0.8
-0.795
-0.8
-0.8
-0.815
-0.805
-0.79
-0.795
-0.795
-0.79
-0.795
-0.815
-0.83
-0.83
-0.845
-0.87
-0.88
-0.89
-0.9
-0.9
-0.92
-0.92
-0.925
-0.94
-0.945
-0.955
-0.955
-0.975
-0.98
-0.995
-0.985
-0.97
-0.97
-0.965
-0.965
-0.96
-0.97
-0.985
-0.985
-1.0
-0.985
-0.985
-0.965
-0.97
-0.96
-0.95
-0.945
-0.955
-0.965
-0.975
-0.96
-0.98
-0.98
-0.96
-0.965
-0.96
-0.95
-0.94
-0.935
-0.94
-0.94
-0.935
-0.95
-0.96
-0.955
-0.95
-0.95
-0.94
-0.935
-0.92
-0.91
-0.905
-0.92
-0.92
-0.925
-0.93
-0.93
-0.935
-0.915
-0.92
-0.91
-0.9
-0.895
-0.905
-0.9
-0.91
-0.92
-0.925
-0.915
-0.92
-0.91
-0.905
-0.895
-0.895
-0.885
-0.89
-0.9
-0.9
-0.905
-0.915
-0.92
-0.92
-0.915
-0.905
-0.9
-0.9
-0.89
-0.905
-0.89
-0.91
-0.91
-0.91
-0.92
-0.93
-0.92
-0.915
-0.895
-0.875
-0.9
-0.895
-0.9
-0.9
-0.905
-0.92
-0.93
-0.93
-0.92
-0.905
-0.885
-0.89
-0.875
-0.88
-0.895
-0.91
-0.915
-0.91
-0.915
-0.91
-0.9
-0.895
-0.875
-0.875
-0.87
-0.875
-0.89
-0.895
-0.895
-0.905
-0.915
-0.905
-0.91
-0.905
-0.89
-0.885
-0.865
-0.88
-0.885
-0.89
-0.9
-0.905
-0.91
-0.9
-0.905
-0.89
-0.885
-0.88
-0.87
-0.885
-0.88
-0.89
-0.89
-0.89
-0.895
-0.9
-0.89
-0.885
-0.895
-0.875
-0.87
-0.87
-0.875
-0.885
-0.89
-0.885
-0.895
-0.885
-0.885
-0.88
-0.875
-0.87
-0.885
-0.885
-0.89
-0.88
-0.885
-0.9
-0.9
-0.885
-0.89
-0.89
-0.885
-0.875
-0.87
-0.855
-0.865
-0.87
-0.87
-0.885
-0.875
-0.875
-0.87
-0.86
-0.85
-0.855
-0.84
-0.85
-0.845
-0.85
-0.86
-0.85
-0.84
-0.835
-0.83
-0.815
-0.805
-0.805
-0.815
-0.815
-0.82
-0.82
-0.83
-0.85
-0.855
-0.86
-0.86
-0.855
-0.835
-0.82
-0.81
-0.805
-0.795
-0.775
-0.775
-0.765
-0.77
-0.78
-0.79
-0.8
-0.815
-0.83
-0.83
-0.85
-0.87
-0.87
-0.89
-0.905
-0.88
-0.89
-0.88
-0.88
-0.88
-0.87
-0.865
-0.875
-0.885
-0.895
-0.925
-0.93
-0.915
-0.88
-0.79
-0.68
-0.585
-0.505
-0.445
-0.41
-0.415
-0.465
-0.565
-0.73
-0.875
-0.955
-0.95
-0.81
-0.57
-0.28
0.015
0.315
0.58
0.85
1.095
1.315
1.475
1.545
1.545
1.49
1.37
1.205
0.98
0.74
0.48
0.235
-0.01
-0.265
-0.515
-0.775
-0.975
-1.11
-1.19
-1.22
-1.195
-1.175
-1.145
-1.13
-1.105
-1.085
-1.08
-1.07
-1.055
-1.045
-1.03
-1.005
-1.005
-1.005
-1.015
-1.02
-1.03
-1.045
-1.04
-1.03
-1.05
-1.035
-1.015
-1.02
-1.005
-1.005
-1.015
-1.02
-1.02
-1.03
-1.045
-1.03
-1.035
-1.03
-1.02
-1.02
-1.005
-1.02
-1.025
-1.02
-1.025
-1.04
-1.045
-1.05
-1.045
-1.04
-1.05
-1.045
-1.05
-1.045
-1.04
-1.045
-1.065
-1.07
-1.075
-1.09
-1.09
-1.09
-1.085
-1.085
-1.075
-1.085
-1.085
-1.095
-1.105
-1.11
-1.13
-1.135
-1.145
-1.135
-1.135
-1.14
-1.13
-1.14
-1.15
-1.155
-1.16
-1.175
-1.18
-1.18
-1.185
-1.18
-1.175
-1.175
-1.175
-1.17
-1.17
-1.175
-1.185
-1.18
-1.18
-1.175
-1.175
-1.17
-1.16
-1.155
-1.125
-1.125
-1.115
-1.11
-1.115
-1.095
-1.09
-1.07
-1.045
-1.03
-1.015
-0.99
-0.98
-0.965
-0.95
-0.94
-0.92
-0.91
-0.9
-0.89
-0.885
-0.87
-0.855
-0.815
-0.81
-0.81
-0.8
-0.795
-0.8
-0.8
-0.805
-0.805
-0.8
-0.8
-0.79
-0.8
-0.795
-0.815
-0.825
-0.845
-0.86
-0.895
-0.905
-0.91
-0.92
-0.93
-0.945
-0.955
-0.955
-0.98
-0.98
-1.0
-1.03
-1.03
-1.03
-1.04
-1.035
-1.05
-1.05
-1.04
-1.035
-1.05
-1.04
-1.03
-1.04
-1.05
-1.045
-1.065
-1.055
-1.03
-1.03
-1.035
-1.02
-1.025
-1.025
-1.015
-1.015
-1.025
-1.02
-1.01
-1.01
-1.0
-0.99
-0.985
-0.965
-0.97
-0.98
-0.97
-0.975
-0.975
-0.98
-0.97
-0.96
-0.965
-0.955
-0.95
-0.945
-0.94
-0.935
-0.945
-0.96
-0.96
-0.96
-0.95
-0.955
-0.94
-0.935
-0.93
-0.92
-0.915
-0.92
-0.925
-0.93
-0.935
-0.94
-0.94
-0.935
-0.935
-0.925
-0.935
-0.905
-0.915
-0.91
-0.92
-0.92
-0.91
-0.92
-0.915
-0.92
-0.915
-0.925
-0.915
-0.9
-0.905
-0.895
-0.9
-0.9
-0.91
-0.915
-0.91
-0.925
-0.915
-0.915
-0.905
-0.895
-0.89
-0.89
-0.895
-0.9
-0.91
-0.905
-0.915
-0.9
-0.9
-0.89
-0.895
-0.885
-0.885
-0.905
-0.895
-0.89
-0.895
-0.895
-0.91
-0.905
-0.895
-0.875
-0.87
-0.865
-0.87
-0.885
-0.885
-0.885
-0.895
-0.9
-0.89
-0.89
-0.88
-0.885
-0.87
-0.865
-0.87
-0.865
-0.87
-0.875
-0.885
-0.895
-0.88
-0.89
-0.885
-0.88
-0.875
-0.865
-0.87
-0.865
-0.87
-0.885
-0.89
-0.88
-0.885
-0.875
-0.875
-0.865
-0.865
-0.87
-0.865
-0.86
-0.875
-0.88
-0.885
-0.875
-0.87
-0.87
-0.865
-0.865
-0.86
-0.865
-0.865
-0.87
-0.865
-0.87
-0.87
-0.87
-0.86
-0.85
-0.845
-0.845
-0.835
-0.845
-0.865
-0.85
-0.86
-0.835
-0.835
-0.82
-0.81
-0.805
-0.795
-0.79
-0.775
-0.79
-0.785
-0.815
-0.82
-0.84
-0.855
-0.85
-0.85
-0.845
-0.84
-0.82
-0.815
-0.79
-0.78
-0.775
-0.78
-0.79
-0.81
-0.82
-0.85
-0.865
-0.86
-0.875
-0.88
-0.865
-0.875
-0.88
-0.89
-0.89
-0.895
-0.895
-0.895
-0.895
-0.89
-0.895
-0.895
-0.905
-0.905
-0.895
-0.855
-0.8
-0.69
-0.585
-0.495
-0.435
-0.39
-0.4
-0.485
-0.64
-0.815
-0.945
-0.985
-0.855
-0.655
-0.38
-0.09
0.19
0.475
0.73
0.965
1.18
1.3
1.365
1.39
1.345
1.245
1.125
0.965
0.77
0.55
0.325
0.1
-0.105
-0.355
-0.605
-0.825
-1.0
-1.11
-1.175
-1.18
-1.145
-1.11
-1.065
-1.03
-0.985
-0.985
-0.965
-0.95
-0.945
-0.975
-0.97
-0.985
-0.965
-0.96
-0.965
-0.955
-0.945
-0.95
-0.95
-0.965
-0.96
-0.965
-0.965
-0.965
-0.975
-0.975
-0.97
-0.965
-0.95
-0.95
-0.955
-0.955
-0.96
-0.98
-0.975
-0.98
-0.985
-0.985
-0.97
-0.97
-0.965
-0.975
-0.975
-0.98
-0.995
-1.005
-1.015
-1.025
-1.03
-1.02
-1.02
-1.0
-1.005
-1.0
-1.015
-1.01
-1.015
-1.03
-1.04
-1.055
-1.05
-1.05
-1.06
-1.045
-1.05
-1.055
-1.065
-1.08
-1.09
-1.095
-1.11
-1.11
-1.11
-1.12
-1.105
-1.105
-1.09
-1.095
-1.09
-1.105
-1.1
-1.115
-1.115
-1.115
-1.095
-1.1
-1.07
-1.045
-1.04
-1.015
-1.01
-0.995
-0.985
-0.98
-0.975
-0.94
-0.93
-0.9
-0.87
-0.84
-0.81
-0.805
-0.785
-0.765
-0.755
-0.74
-0.73
-0.735
-0.725
-0.71
-0.685
-0.675
-0.655
-0.67
-0.66
-0.675
-0.675
-0.68
-0.68
-0.685
-0.7
-0.705
-0.705
-0.7
-0.7
-0.705
-0.73
-0.74
-0.76
-0.775
-0.78
-0.79
-0.815
-0.805
-0.79
-0.805
-0.785
-0.805
-0.805
-0.82
-0.825
-0.825
-0.835
-0.835
-0.83
-0.825
-0.81
-0.815
-0.82
-0.795
-0.805
-0.795
-0.805
-0.79
-0.795
-0.8
-0.805
-0.8
-0.79
-0.78
-0.76
-0.76
-0.77
-0.775
-0.78
-0.765
-0.755
-0.77
-0.77
-0.76
-0.74
-0.735
-0.735
-0.725
-0.73
-0.725
-0.735
-0.735
-0.73
-0.755
-0.735
-0.72
-0.725
-0.72
-0.71
-0.71
-0.71
-0.715
-0.72
-0.725
-0.73
-0.73
-0.72
-0.705
-0.7
-0.7
-0.685
-0.68
-0.69
-0.69
-0.695
-0.69
-0.7
-0.7
-0.695
-0.685
-0.69
-0.68
-0.675
-0.675
-0.67
-0.685
-0.685
-0.68
-0.68
-0.685
-0.68
-0.68
-0.68
-0.675
-0.65
-0.65
-0.655
-0.665
-0.655
-0.66
-0.665
-0.67
-0.665
-0.655
-0.655
-0.65
-0.62
-0.625
-0.635
-0.64
-0.635
-0.64
-0.64
-0.66
-0.64
-0.64
-0.63
-0.635
-0.615
-0.605
-0.6
-0.61
-0.615
-0.62
-0.62
-0.62
-0.615
-0.61
-0.605
-0.6
-0.59
-0.59
-0.59
-0.595
-0.615
-0.61
-0.61
-0.605
-0.615
-0.61
-0.6
-0.59
-0.59
-0.58
-0.585
-0.575
-0.575
-0.59
-0.585
-0.59
-0.58
-0.58
-0.575
-0.57
-0.56
-0.56
-0.555
-0.565
-0.565
-0.565
-0.57
-0.575
-0.57
-0.565
-0.555
-0.55
-0.55
-0.56
-0.55
-0.555
-0.555
-0.555
-0.555
-0.57
-0.56
-0.555
-0.55
-0.545
-0.535
-0.535
-0.545
-0.545
-0.545
-0.535
-0.535
-0.545
-0.54
-0.535
-0.525
-0.5
-0.49
-0.485
-0.485
-0.49
-0.485
-0.49
-0.49
-0.5
-0.5
-0.505
-0.495
-0.49
-0.47
-0.455
-0.455
-0.445
