Lead II
0.185
0.17
0.165
0.175
0.18
0.19
0.185
0.165
0.17
0.17
0.17
0.165
0.155
0.13
0.145
0.165
0.175
0.175
0.175
0.155
0.145
0.13
0.11
0.1
0.095
0.075
0.09
0.09
0.09
0.085
0.09
0.08
0.1
0.115
0.11
0.105
0.08
0.06
0.065
0.08
0.11
0.115
0.1
0.1
0.13
0.16
0.17
0.17
0.17
0.175
0.205
0.23
0.25
0.26
0.255
0.24
0.245
0.245
0.245
0.245
0.24
0.22
0.225
0.24
0.215
0.17
0.105
0.07
0.045
-0.03
-0.215
-0.505
-0.885
-1.265
-1.54
-1.705
-1.76
-1.78
-1.8
-1.77
-1.715
-1.65
-1.59
-1.5
-1.41
-1.335
-1.255
-1.175
-1.1
-1.01
-0.925
-0.855
-0.79
-0.745
-0.68
-0.63
-0.575
-0.525
-0.46
-0.415
-0.37
-0.33
-0.285
-0.245
-0.175
-0.13
-0.09
-0.06
-0.025
0.025
0.095
0.175
0.24
0.29
0.325
0.35
0.395
0.445
0.505
0.525
0.525
0.51
0.51
0.52
0.53
0.535
0.54
0.545
0.565
0.585
0.615
0.635
0.645
0.655
0.675
0.695
0.72
0.715
0.72
0.72
0.745
0.775
0.795
0.805
0.805
0.8
0.815
0.87
0.895
0.885
0.87
0.875
0.89
0.915
0.945
0.925
0.895
0.885
0.9
0.925
0.94
0.93
0.92
0.905
0.895
0.915
0.92
0.89
0.87
0.835
0.82
0.8
0.775
0.745
0.715
0.69
0.68
0.665
0.65
0.62
0.59
0.56
0.55
0.52
0.495
0.46
0.435
0.42
0.415
0.405
0.395
0.365
0.35
0.315
0.295
0.28
0.27
0.27
0.25
0.23
0.22
0.215
0.21
0.195
0.18
0.17
0.165
0.155
0.16
0.17
0.185
0.195
0.165
0.145
0.145
0.15
0.15
0.15
0.165
0.145
0.13
0.14
0.145
0.135
0.135
0.135
0.15
0.15
0.145
0.135
0.15
0.155
0.145
0.13
0.125
0.115
0.135
0.145
0.14
0.14
0.145
0.15
0.16
0.155
0.13
0.11
0.1
0.08
0.085
0.1
0.1
0.105
0.095
0.085
0.075
0.1
0.1
0.1
0.075
0.06
0.06
0.075
0.1
0.11
0.11
0.105
0.11
0.1
0.095
0.07
0.055
0.05
0.07
0.07
0.1
0.11
0.12
0.105
0.095
0.085
0.075
0.075
0.08
0.1
0.09
0.1
0.095
0.095
0.1
0.105
0.12
0.125
0.13
0.135
0.125
0.115
0.11
0.125
0.145
0.14
0.135
0.105
0.105
0.11
0.13
0.13
0.1
0.075
0.045
0.035
0.06
0.075
0.075
0.08
0.08
0.07
0.075
0.065
0.05
0.03
0.04
0.06
0.06
0.06
0.055
0.05
0.07
0.06
0.04
0.025
0.04
0.03
0.025
0.015
0.015
0.035
0.05
0.035
0.04
0.025
0.04
0.065
0.065
0.065
0.075
0.08
0.055
0.025
-0.02
-0.03
-0.01
0.015
0.04
0.035
0.035
0.03
0.02
-0.005
-0.015
0.0
0.04
0.1
0.17
0.24
0.295
0.38
0.46
0.54
0.63
0.72
0.805
0.895
0.99
1.09
1.15
1.15
1.08
0.975
0.835
0.655
0.36
0.08
-0.135
-0.235
-0.295
-0.325
-0.31
-0.255
-0.21
-0.195
-0.21
-0.22
-0.195
-0.145
-0.105
-0.1
-0.13
-0.135
-0.13
-0.095
-0.08
-0.085
-0.075
-0.055
-0.03
-0.02
-0.02
-0.03
-0.05
-0.06
-0.06
-0.055
-0.04
-0.005
0.005
-0.015
-0.06
-0.1
-0.11
-0.09
-0.07
-0.045
-0.035
-0.025
-0.015
-0.02
-0.05
-0.05
-0.03
-0.025
-0.005
-0.01
-0.01
-0.015
-0.02
-0.02
-0.025
-0.025
-0.035
-0.03
-0.025
-0.02
0.005
0.005
-0.005
-0.005
0.025
0.045
0.055
0.045
0.045
0.035
0.01
0.02
0.01
0.015
0.015
0.025
0.025
0.03
0.03
0.04
0.03
0.03
0.05
0.065
0.045
0.045
0.035
0.035
0.06
0.08
0.095
0.1
0.105
0.095
0.105
0.105
0.095
0.09
0.1
0.115
0.14
0.14
0.14
0.105
0.06
0.045
0.065
0.085
0.09
0.08
0.05
0.04
0.045
0.055
0.06
0.055
0.05
0.04
0.04
0.035
0.03
0.05
0.05
0.045
0.04
0.04
0.04
0.03
0.0
-0.005
-0.01
-0.005
0.0
0.0
0.015
0.015
0.02
0.035
0.03
0.03
0.005
-0.005
0.0
0.015
0.04
0.05
0.055
0.02
-0.02
-0.02
-0.01
0.0
0.015
0.02
0.055
0.08
0.09
0.1
0.11
0.13
0.165
0.195
0.205
0.19
0.165
0.155
0.185
0.23
0.255
0.205
0.12
0.025
-0.105
-0.35
-0.715
-1.06
-1.39
-1.68
-1.875
-1.92
-1.925
-1.93
-1.925
-1.905
-1.865
-1.77
-1.655
-1.535
-1.44
-1.375
-1.265
-1.15
-1.02
-0.885
-0.79
-0.745
-0.705
-0.665
-0.625
-0.59
-0.56
-0.52
-0.47
-0.42
-0.37
-0.34
-0.33
-0.32
-0.285
-0.23
-0.17
-0.08
-0.005
0.065
0.135
0.205
0.275
0.305
0.315
0.325
0.34
0.36
0.38
0.405
0.425
0.425
0.425
0.45
0.46
0.475
0.48
0.485
0.495
0.505
0.525
0.53
0.545
0.545
0.585
0.6
0.62
0.655
0.67
0.68
0.695
0.695
0.695
0.715
0.725
0.73
0.75
0.77
0.785
0.785
0.8
0.805
0.81
0.825
0.85
0.865
0.85
0.84
0.855
0.86
0.87
0.855
0.845
0.82
0.82
0.84
0.84
0.83
0.815
0.795
0.775
0.76
0.75
0.735
0.71
0.675
0.675
0.67
0.67
0.635
0.58
0.555
0.54
0.545
0.53
0.495
0.455
0.43
0.41
0.405
0.375
0.355
0.335
0.31
0.29
0.275
0.285
0.26
0.225
0.18
0.165
0.175
0.19
0.19
0.165
0.155
0.165
0.165
0.17
0.14
0.1
0.075
0.09
0.09
0.1
0.09
0.095
0.09
0.1
0.075
0.065
0.05
0.025
0.035
0.06
0.07
0.08
0.085
0.065
0.05
0.05
0.055
0.06
0.075
0.065
0.05
0.06
0.085
0.09
0.065
0.045
0.035
0.035
0.045
0.045
0.04
0.03
0.02
0.04
0.04
0.04
0.02
0.015
0.015
0.02
0.035
0.035
0.015
0.0
-0.02
-0.02
0.005
-0.005
-0.01
-0.015
-0.035
-0.035
-0.03
-0.035
-0.035
-0.025
-0.04
-0.015
-0.02
-0.01
-0.015
-0.03
-0.04
-0.045
-0.05
-0.04
-0.04
-0.04
-0.045
-0.02
-0.015
-0.025
-0.015
-0.01
-0.02
-0.025
-0.035
-0.03
-0.015
-0.01
-0.01
0.0
-0.02
-0.015
-0.01
0.0
0.0
0.01
0.03
0.045
0.04
0.035
0.025
0.02
0.02
0.0
0.0
-0.005
-0.025
-0.04
-0.055
-0.04
-0.02
-0.025
-0.025
-0.04
-0.045
-0.06
-0.07
-0.055
-0.035
-0.025
-0.015
0.005
0.015
-0.01
-0.035
-0.035
-0.025
-0.03
-0.05
-0.065
-0.08
-0.065
-0.045
-0.04
-0.065
-0.075
-0.07
-0.05
-0.03
-0.025
-0.025
-0.025
-0.03
-0.035
-0.05
-0.06
-0.07
-0.085
-0.095
-0.09
-0.035
0.03
0.11
0.185
0.275
0.38
0.485
0.585
0.685
0.82
0.96
1.065
1.12
1.08
0.99
0.85
0.68
0.4
0.065
-0.205
-0.365
-0.435
-0.44
-0.375
-0.31
-0.255
-0.215
-0.21
-0.2
-0.2
-0.23
-0.24
-0.25
-0.24
-0.235
-0.21
-0.21
-0.215
-0.235
-0.225
-0.19
-0.17
-0.16
-0.17
-0.18
-0.175
-0.155
-0.14
-0.125
-0.1
-0.11
-0.15
-0.18
-0.19
-0.165
-0.145
-0.14
-0.135
-0.145
-0.155
-0.165
-0.165
-0.155
-0.135
-0.13
-0.125
-0.13
-0.155
-0.15
-0.135
-0.13
-0.12
-0.115
-0.105
-0.095
-0.09
-0.115
-0.125
-0.115
-0.11
-0.1
-0.08
-0.06
-0.065
-0.075
-0.105
-0.125
-0.115
-0.12
-0.095
-0.075
-0.07
-0.08
-0.075
-0.065
-0.05
-0.045
-0.04
-0.05
-0.05
-0.055
-0.05
-0.025
0.0
0.01
0.01
0.015
0.015
0.005
-0.015
-0.015
0.0
0.01
0.015
0.025
0.03
0.045
0.045
0.035
0.035
0.05
0.055
0.04
0.005
-0.01
0.01
0.035
0.045
0.035
0.01
-0.01
-0.01
0.005
0.01
0.015
0.01
0.005
0.005
0.005
0.01
0.0
-0.015
-0.04
-0.035
-0.03
-0.025
-0.045
-0.045
-0.055
-0.045
-0.025
-0.015
-0.015
-0.04
-0.06
-0.06
-0.05
-0.04
-0.035
-0.06
-0.07
-0.065
-0.065
-0.075
-0.085
-0.09
-0.09
-0.09
-0.08
-0.07
-0.05
-0.035
-0.03
-0.025
-0.02
0.005
-0.005
-0.01
0.015
0.05
0.095
0.115
0.11
0.075
0.05
0.065
0.1
0.12
0.1
0.09
0.08
0.095
0.07
0.015
-0.04
-0.095
-0.175
-0.31
-0.525
-0.83
-1.175
-1.485
-1.72
-1.865
-1.93
-1.95
-1.92
-1.88
-1.85
-1.805
-1.73
-1.6
-1.47
-1.355
-1.275
-1.19
-1.1
-1.025
-0.955
-0.9
-0.825
-0.765
-0.715
-0.685
-0.645
-0.605
-0.57
-0.53
-0.495
-0.435
-0.375
-0.345
-0.32
-0.265
-0.195
-0.115
-0.05
0.01
0.055
0.1
0.145
0.19
0.22
0.25
0.27
0.29
0.31
0.315
0.335
0.335
0.345
0.36
0.385
0.405
0.42
0.425
0.445
0.455
0.465
0.46
0.48
0.49
0.495
0.505
0.515
0.54
0.555
0.58
0.59
0.615
0.62
0.615
0.64
0.65
0.665
0.67
0.685
0.695
0.705
0.71
0.72
0.72
0.74
0.74
0.74
0.75
0.74
0.73
0.715
0.715
0.695
0.66
0.655
0.65
0.645
0.635
0.61
0.6
0.56
0.545
0.525
0.5
0.465
0.43
0.42
0.405
0.385
0.37
0.345
0.32
0.3
0.28
0.255
0.26
0.25
0.22
0.185
0.15
0.14
0.135
0.11
0.095
0.06
0.045
0.045
0.05
0.06
0.05
0.015
0.01
-0.015
-0.015
-0.02
-0.025
-0.015
0.005
0.0
0.02
0.015
0.01
0.01
0.02
0.04
0.055
0.055
0.04
0.025
0.025
0.02
0.005
0.0
0.0
0.0
0.0
0.005
0.0
-0.02
-0.02
-0.025
-0.01
-0.005
-0.01
-0.01
-0.035
-0.05
-0.065
-0.06
-0.055
-0.05
-0.04
-0.03
-0.03
-0.035
-0.045
-0.045
-0.05
-0.055
-0.06
-0.04
-0.05
-0.035
-0.04
-0.05
-0.055
-0.06
-0.065
-0.075
-0.075
-0.07
-0.07
-0.05
-0.03
-0.04
-0.06
-0.06
-0.035
-0.025
-0.03
-0.055
-0.065
-0.05
-0.045
-0.04
-0.045
-0.055
-0.09
-0.09
-0.045
-0.02
-0.025
-0.045
-0.04
-0.015
0.005
0.01
-0.015
-0.025
-0.005
0.01
0.01
0.0
-0.01
-0.02
-0.025
-0.035
-0.04
-0.035
-0.05
-0.07
-0.095
-0.095
-0.09
-0.07
-0.07
-0.07
-0.085
-0.105
-0.125
-0.12
-0.105
-0.085
-0.085
-0.105
-0.11
-0.095
-0.07
-0.075
-0.075
-0.09
-0.09
-0.08
-0.085
-0.09
-0.11
-0.105
-0.105
-0.085
-0.085
-0.08
-0.095
-0.09
-0.08
-0.06
-0.055
-0.065
-0.1
-0.125
-0.14
-0.11
-0.085
-0.065
-0.09
-0.135
-0.16
-0.145
-0.09
-0.005
0.1
0.19
0.285
0.39
0.47
0.55
0.655
0.755
0.865
0.97
1.015
1.005
0.925
0.83
0.715
0.56
0.315
0.0
-0.23
-0.355
-0.43
-0.465
-0.455
-0.42
-0.36
-0.305
-0.28
-0.255
-0.24
-0.225
-0.215
-0.215
-0.215
-0.23
-0.24
-0.245
-0.255
-0.26
-0.235
-0.225
-0.205
-0.205
-0.205
-0.2
-0.19
-0.175
-0.185
-0.19
-0.195
-0.195
-0.18
-0.155
-0.15
-0.16
-0.175
-0.175
-0.155
-0.14
-0.155
-0.16
-0.2
-0.225
-0.21
-0.195
-0.185
-0.175
-0.18
-0.19
-0.18
-0.15
-0.13
-0.115
-0.13
-0.155
-0.195
-0.195
-0.19
-0.165
-0.155
-0.16
-0.155
-0.17
-0.17
-0.175
-0.16
-0.155
-0.115
-0.095
-0.12
-0.14
-0.135
-0.135
-0.105
-0.09
-0.07
-0.095
-0.13
-0.16
-0.16
-0.13
-0.12
-0.13
-0.135
-0.125
-0.12
-0.105
-0.095
-0.09
-0.085
-0.095
-0.095
-0.11
-0.135
-0.15
-0.15
-0.135
-0.11
-0.09
-0.08
-0.065
-0.045
-0.045
-0.035
-0.045
-0.045
-0.035
-0.02
-0.01
-0.02
-0.045
-0.08
-0.085
-0.09
-0.065
-0.045
-0.04
-0.06
-0.055
-0.055
-0.06
-0.045
-0.02
0.005
-0.015
-0.075
-0.13
-0.145
-0.13
-0.1
-0.08
-0.09
-0.1
-0.1
-0.1
-0.1
-0.11
-0.11
-0.12
-0.11
-0.095
-0.105
-0.125
-0.145
-0.145
-0.125
-0.115
-0.125
-0.14
-0.165
-0.165
-0.165
-0.145
-0.145
-0.12
-0.125
-0.16
-0.175
-0.16
-0.125
-0.08
-0.065
-0.06
-0.045
-0.04
-0.04
-0.045
-0.065
-0.04
0.005
-0.005
0.005
0.005
0.015
-0.03
-0.15
-0.32
-0.53
-0.84
-1.22
-1.585
-1.87
-2.095
-2.175
-2.17
-2.155
-2.185
-2.19
-2.155
-2.07
-1.95
-1.815
-1.695
-1.545
-1.39
-1.23
-1.085
-0.98
-0.9
-0.85
-0.795
-0.76
-0.71
-0.66
-0.605
-0.55
-0.51
-0.47
-0.445
-0.4
-0.355
-0.275
-0.16
-0.08
-0.015
0.025
0.07
0.13
0.175
0.225
0.275
0.305
0.3
0.315
0.34
0.38
0.415
0.395
0.335
0.295
0.31
0.365
0.415
0.45
0.495
0.505
0.51
0.48
0.47
0.485
0.52
0.56
0.585
0.595
0.6
0.59
0.585
0.59
0.615
0.61
0.62
0.605
0.605
0.625
0.64
0.655
0.66
0.665
0.665
0.66
0.645
0.635
0.64
0.62
0.61
0.61
0.6
0.58
0.57
0.55
0.51
0.48
0.455
0.435
0.435
0.41
0.375
0.355
0.325
0.295
0.28
0.27
0.255
0.245
0.235
0.2
0.17
0.135
0.105
0.07
0.015
0.01
0.015
0.025
0.025
0.035
0.04
0.03
0.0
-0.03
-0.035
-0.025
-0.025
-0.02
-0.04
-0.035
-0.04
-0.045
-0.05
-0.04
-0.055
-0.06
-0.07
-0.075
-0.07
-0.07
-0.06
-0.05
-0.045
-0.05
-0.065
-0.075
-0.075
-0.085
-0.1
-0.08
-0.065
-0.055
-0.055
-0.06
-0.065
-0.095
-0.115
-0.115
-0.105
-0.125
-0.13
-0.125
-0.12
-0.12
-0.115
-0.11
-0.12
-0.115
-0.105
-0.11
-0.125
-0.14
-0.14
-0.14
-0.12
-0.135
-0.155
-0.15
-0.135
-0.11
-0.105
-0.125
-0.155
-0.18
-0.18
-0.17
-0.165
-0.165
-0.17
-0.165
-0.15
-0.155
-0.165
-0.17
-0.175
-0.185
-0.17
-0.155
-0.12
-0.135
-0.135
-0.145
-0.195
-0.23
-0.225
-0.2
-0.205
-0.2
-0.18
-0.15
-0.145
-0.155
-0.15
-0.15
-0.145
-0.13
-0.14
-0.15
-0.16
-0.15
-0.12
-0.095
-0.08
-0.085
-0.085
-0.1
-0.105
-0.09
-0.095
-0.1
-0.1
-0.12
-0.135
-0.14
-0.135
-0.145
-0.16
-0.175
-0.175
-0.165
-0.15
-0.15
-0.165
-0.175
-0.19
-0.185
-0.175
-0.165
-0.165
-0.17
-0.185
-0.18
-0.16
-0.145
-0.13
-0.145
-0.16
-0.16
-0.155
-0.15
-0.15
-0.18
-0.19
-0.19
-0.185
-0.19
-0.195
-0.21
-0.2
-0.19
-0.175
-0.165
-0.175
-0.17
-0.175
-0.16
-0.165
-0.16
-0.165
-0.175
-0.205
-0.21
-0.2
-0.17
-0.125
-0.065
0.0
0.075
0.17
0.285
0.385
0.435
0.525
0.62
0.75
0.865
0.94
0.99
0.955
0.865
0.75
0.605
0.375
0.035
-0.265
-0.465
-0.57
-0.605
-0.605
-0.56
-0.5
-0.465
-0.435
-0.425
-0.405
-0.395
-0.355
-0.32
-0.315
-0.325
-0.335
-0.33
-0.325
-0.32
-0.33
-0.32
-0.315
-0.31
-0.3
-0.29
-0.29
-0.3
-0.3
-0.3
-0.28
-0.27
-0.28
-0.275
-0.26
-0.27
-0.27
-0.275
-0.28
-0.285
-0.29
-0.275
-0.265
-0.255
-0.24
-0.24
-0.25
-0.26
-0.265
-0.25
-0.24
-0.245
-0.245
-0.255
-0.25
-0.245
-0.245
-0.225
-0.24
-0.25
-0.235
-0.23
-0.23
-0.23
-0.23
-0.235
-0.245
-0.24
-0.225
-0.215
-0.22
-0.225
-0.225
-0.21
-0.205
-0.22
-0.215
-0.24
-0.235
-0.235
-0.22
-0.205
-0.19
-0.215
-0.21
-0.195
-0.18
-0.19
-0.19
-0.195
-0.185
-0.17
-0.16
-0.17
-0.165
-0.17
-0.175
-0.16
-0.155
-0.155
-0.155
-0.16
-0.155
-0.145
-0.15
-0.15
-0.155
-0.17
-0.165
-0.16
-0.165
-0.175
-0.195
-0.19
-0.19
-0.18
-0.18
-0.18
-0.185
-0.195
-0.195
-0.21
-0.225
-0.23
-0.23
-0.22
-0.21
-0.21
-0.205
-0.205
-0.21
-0.225
-0.23
-0.235
-0.23
-0.24
-0.24
-0.26
-0.26
-0.255
-0.245
-0.25
-0.265
-0.27
-0.27
-0.265
-0.255
-0.27
-0.275
-0.28
-0.28
-0.255
-0.235
-0.225
-0.21
-0.205
-0.195
-0.175
-0.155
-0.15
-0.12
-0.115
-0.115
-0.115
-0.105
-0.1
-0.08
-0.075
-0.07
-0.055
-0.035
-0.005
-0.005
-0.05
-0.09
-0.135
-0.225
-0.435
-0.745
-1.13
-1.51
-1.82
-2.0
-2.065
-2.06
-2.05
-2.055
-2.025
-1.97
-1.845
-1.715
-1.595
-1.51
-1.425
-1.34
-1.24
-1.16
-1.11
-1.06
-1.015
-0.965
-0.915
-0.865
-0.805
-0.765
-0.715
-0.675
-0.625
-0.575
-0.55
-0.505
-0.44
-0.365
-0.31
-0.245
-0.185
-0.125
-0.06
-0.02
0.03
0.07
0.08
0.075
0.085
0.115
0.13
0.155
0.15
0.17
0.175
0.19
0.215
0.22
0.245
0.245
0.27
0.285
0.29
0.31
0.325
0.34
0.355
0.375
0.395
0.39
0.405
0.415
0.445
0.48
0.495
0.5
0.515
0.51
0.515
0.525
0.56
0.57
0.555
0.53
0.535
0.56
0.56
0.57
0.56
0.565
0.565
0.565
0.575
0.57
0.54
0.505
0.485
0.485
0.475
0.465
0.45
0.43
0.405
0.38
0.365
0.34
0.3
0.27
0.255
0.23
0.205
0.18
0.165
0.15
0.16
0.135
0.08
0.025
-0.015
-0.05
-0.05
-0.03
-0.05
-0.06
-0.065
-0.085
-0.105
-0.13
-0.14
-0.155
-0.17
-0.175
-0.18
-0.19
-0.19
-0.185
-0.215
-0.235
-0.23
-0.225
-0.225
-0.23
-0.24
-0.245
-0.235
-0.235
-0.23
-0.225
-0.235
-0.24
-0.225
-0.235
-0.215
-0.225
-0.225
-0.23
-0.235
-0.235
-0.225
-0.23
-0.22
-0.2
-0.19
-0.185
-0.215
-0.235
-0.26
-0.265
-0.255
-0.23
-0.225
-0.22
-0.225
-0.235
-0.24
-0.225
-0.255
-0.255
-0.275
-0.28
-0.28
-0.26
-0.25
-0.245
-0.25
-0.255
-0.255
-0.25
-0.24
-0.245
-0.25
-0.265
-0.265
-0.265
-0.26
-0.275
-0.29
-0.29
-0.275
-0.255
-0.25
-0.265
-0.295
-0.295
-0.3
-0.28
-0.275
-0.28
-0.3
-0.29
-0.29
-0.28
-0.28
-0.285
-0.29
-0.285
-0.27
-0.255
-0.265
-0.26
-0.26
-0.265
-0.265
-0.255
-0.255
-0.25
-0.26
-0.265
-0.27
-0.255
-0.245
-0.23
-0.235
-0.225
-0.225
-0.215
-0.22
-0.225
-0.24
-0.25
-0.245
-0.24
-0.265
-0.27
-0.275
-0.285
-0.28
-0.29
-0.295
-0.295
-0.295
-0.305
-0.29
-0.295
-0.315
-0.31
-0.335
-0.32
-0.315
-0.315
-0.315
-0.315
-0.32
-0.315
-0.3
-0.3
-0.29
-0.3
-0.315
-0.33
-0.32
-0.335
-0.335
-0.325
-0.335
-0.335
-0.34
-0.33
-0.33
-0.33
-0.335
-0.34
-0.35
-0.335
-0.34
-0.335
-0.335
-0.325
-0.31
-0.305
-0.325
-0.33
-0.345
-0.34
-0.335
-0.34
-0.35
-0.33
-0.3
-0.25
-0.17
-0.09
-0.015
0.06
0.12
0.195
0.28
0.38
0.5
0.615
0.705
0.785
0.845
0.88
0.845
0.745
0.625
0.475
0.26
-0.04
-0.305
-0.47
-0.58
-0.645
-0.665
-0.635
-0.585
-0.535
-0.495
-0.47
-0.44
-0.44
-0.425
-0.44
-0.445
-0.45
-0.455
-0.465
-0.47
-0.465
-0.46
-0.47
-0.465
-0.465
-0.45
-0.45
-0.445
-0.44
-0.435
-0.415
-0.415
-0.41
-0.425
-0.43
-0.43
-0.42
-0.415
-0.425
-0.42
-0.425
-0.425
-0.4
-0.41
-0.415
-0.415
-0.415
-0.405
-0.405
-0.41
-0.395
-0.4
-0.405
-0.41
-0.4
-0.405
-0.4
-0.4
-0.395
-0.395
-0.385
-0.38
-0.375
-0.39
-0.39
-0.39
-0.365
-0.37
-0.375
-0.375
-0.385
-0.375
-0.365
-0.365
-0.37
-0.375
-0.375
-0.375
-0.365
-0.365
-0.37
-0.385
-0.39
-0.39
-0.375
-0.375
-0.365
-0.375
-0.38
-0.365
-0.35
-0.35
-0.35
-0.355
-0.345
-0.34
-0.32
-0.32
-0.315
-0.315
-0.31
-0.3
-0.305
-0.31
-0.305
-0.31
-0.305
-0.3
-0.285
-0.27
-0.255
-0.255
-0.265
-0.255
-0.235
-0.23
-0.235
-0.25
-0.25
-0.24
-0.235
-0.22
-0.23
-0.235
-0.245
-0.23
-0.21
-0.225
-0.225
-0.25
-0.24
-0.24
-0.23
-0.235
-0.235
-0.235
-0.245
-0.24
-0.23
-0.25
-0.25
-0.265
-0.255
-0.24
-0.23
-0.235
-0.245
-0.26
-0.255
-0.245
-0.245
-0.255
-0.25
-0.27
-0.27
-0.27
-0.265
-0.265
-0.27
-0.28
-0.28
-0.275
-0.275
-0.285
-0.295
-0.3
-0.29
-0.29
-0.285
-0.29
-0.3
-0.31
-0.305
-0.305
-0.29
-0.305
-0.32
-0.325
-0.325
-0.295
-0.27
-0.25
-0.27
-0.27
-0.27
-0.25
-0.21
-0.195
-0.19
-0.175
-0.17
-0.145
-0.11
-0.1
-0.11
-0.115
-0.135
-0.145
-0.14
-0.13
-0.12
-0.145
-0.215
-0.335
-0.46
-0.635
-0.9
-1.26
-1.61
-1.87
-2.06
-2.21
-2.31
-2.36
-2.365
-2.345
-2.345
-2.325
-2.3
-2.27
-2.23
-2.175
-2.11
-2.045
-1.985
-1.92
-1.81
-1.695
-1.555
-1.425
-1.305
-1.22
-1.16
-1.1
-1.055
-1.025
-0.99
-0.96
-0.92
-0.865
-0.82
-0.78
-0.735
-0.71
-0.68
-0.63
-0.575
-0.515
-0.455
-0.395
-0.325
-0.25
-0.18
-0.125
-0.065
-0.02
0.005
0.045
0.065
0.09
0.105
0.125
0.155
0.17
0.19
0.195
0.195
0.205
0.215
0.225
0.25
0.27
0.28
0.285
0.295
0.31
0.325
0.335
0.345
0.345
0.35
0.375
0.405
0.415
0.43
0.43
0.45
0.455
0.495
0.495
0.49
0.49
0.515
0.535
0.56
0.555
0.565
0.56
0.575
0.6
0.605
0.6
0.6
0.6
0.605
0.62
0.635
0.64
0.635
0.62
0.615
0.63
0.64
0.62
0.61
0.625
0.64
0.625
0.62
0.6
0.575
0.565
0.555
0.545
0.52
0.495
0.46
0.44
0.44
0.43
0.415
0.38
0.345
0.3
0.275
0.255
0.25
0.24
0.215
0.175
0.14
0.13
0.12
0.1
0.08
0.06
0.035
0.03
0.035
0.02
0.005
-0.01
-0.03
-0.035
-0.045
-0.06
-0.065
-0.08
-0.075
-0.07
-0.08
-0.095
-0.12
-0.14
-0.14
-0.14
-0.13
-0.14
-0.15
-0.16
-0.18
-0.175
-0.16
-0.16
-0.16
-0.17
-0.18
-0.165
-0.155
-0.16
-0.155
-0.18
-0.175
-0.175
-0.175
-0.19
-0.185
-0.185
-0.17
-0.175
-0.17
-0.17
-0.165
-0.18
-0.195
-0.19
-0.18
-0.205
-0.2
-0.205
-0.2
-0.19
-0.19
-0.2
-0.2
-0.205
-0.2
-0.2
-0.205
-0.215
-0.225
-0.215
-0.23
-0.225
-0.215
-0.215
-0.23
-0.235
-0.235
-0.23
-0.215
-0.235
-0.245
-0.25
-0.255
-0.23
-0.215
-0.205
-0.21
-0.205
-0.21
-0.21
-0.22
-0.235
-0.23
-0.23
-0.23
-0.215
-0.195
-0.19
-0.17
-0.175
-0.185
-0.18
-0.185
-0.18
-0.18
-0.195
-0.19
-0.185
-0.18
-0.175
-0.175
-0.185
-0.19
-0.165
-0.165
-0.18
-0.19
-0.205
-0.215
-0.215
-0.215
-0.235
-0.245
-0.25
-0.25
-0.23
-0.225
-0.235
-0.25
-0.255
-0.25
-0.24
-0.23
-0.235
-0.24
-0.25
-0.265
-0.25
-0.245
-0.25
-0.25
-0.24
-0.23
-0.225
-0.235
-0.235
-0.245
-0.245
-0.245
-0.245
-0.25
-0.275
-0.265
-0.22
-0.155
-0.07
0.005
0.09
0.185
0.27
0.365
0.465
0.585
0.67
0.775
0.85
0.885
0.86
0.77
0.625
0.425
0.11
-0.23
-0.455
-0.58
-0.645
-0.65
-0.63
-0.575
-0.51
-0.465
-0.445
-0.435
-0.42
-0.375
-0.345
-0.35
-0.365
-0.38
-0.39
-0.39
-0.375
-0.355
-0.355
-0.355
-0.355
-0.345
-0.335
-0.31
-0.325
-0.32
-0.335
-0.335
-0.33
-0.315
-0.315
-0.325
-0.345
-0.34
-0.33
-0.325
-0.32
-0.325
-0.335
-0.345
-0.33
-0.325
-0.32
-0.335
-0.33
-0.33
-0.32
-0.31
-0.31
-0.305
-0.315
-0.31
-0.32
-0.3
-0.31
-0.305
-0.305
-0.3
-0.295
-0.275
-0.27
-0.27
-0.265
-0.28
-0.28
-0.27
-0.26
-0.26
-0.27
-0.265
-0.26
-0.255
-0.255
-0.26
-0.255
-0.26
-0.27
-0.255
-0.245
-0.245
-0.245
-0.25
-0.24
-0.245
-0.25
-0.245
-0.225
-0.235
-0.225
-0.21
-0.21
-0.22
-0.21
-0.2
-0.18
-0.17
-0.175
-0.175
-0.18
-0.19
-0.175
-0.17
-0.17
-0.175
-0.185
-0.185
-0.175
-0.165
-0.16
-0.175
-0.185
-0.195
-0.185
-0.18
-0.175
-0.18
-0.195
-0.2
-0.2
-0.19
-0.2
-0.205
-0.21
-0.21
-0.215
-0.215
-0.21
-0.205
-0.22
-0.22
-0.225
-0.22
-0.23
-0.24
-0.25
-0.25
-0.25
-0.235
-0.24
-0.24
-0.255
-0.26
-0.245
-0.25
-0.26
-0.265
-0.285
-0.29
-0.28
-0.275
-0.28
-0.28
-0.29
-0.29
-0.29
-0.265
-0.27
-0.27
-0.27
-0.275
-0.26
-0.235
-0.22
-0.22
-0.24
-0.235
-0.225
-0.19
-0.175
-0.16
-0.17
-0.175
-0.16
-0.135
-0.105
-0.08
-0.055
-0.025
0.035
0.09
0.09
0.07
0.045
0.02
-0.02
-0.125
-0.365
-0.73
-1.16
-1.55
-1.815
-1.945
-2.01
-2.04
-2.05
-2.035
-1.985
-1.925
-1.905
-1.835
-1.73
-1.605
-1.5
-1.4
-1.345
-1.29
-1.23
-1.155
-1.075
-0.99
-0.94
-0.9
-0.845
-0.795
-0.73
-0.665
-0.635
-0.615
-0.595
-0.565
-0.525
-0.49
-0.435
-0.38
-0.32
-0.255
-0.19
-0.12
-0.08
-0.035
-0.02
0.02
0.065
0.1
0.11
0.125
0.12
0.135
0.155
0.185
0.2
0.205
0.21
0.22
0.245
0.265
0.265
0.285
0.305
0.325
0.345
0.39
0.4
0.415
0.42
0.43
0.44
0.475
0.48
0.5
0.505
0.505
0.53
0.56
0.565
0.575
0.575
0.575
0.6
0.615
0.61
0.605
0.595
0.59
0.595
0.61
0.605
0.595
0.57
0.545
0.54
0.545
0.53
0.505
0.47
0.43
0.41
0.405
0.375
0.345
0.315
0.28
0.25
0.24
0.21
0.185
0.155
0.12
0.125
0.105
0.08
0.045
0.02
0.0
-0.015
-0.035
-0.04
-0.065
-0.09
-0.105
-0.105
-0.1
-0.12
-0.135
-0.16
-0.165
-0.18
-0.17
-0.18
-0.195
-0.205
-0.205
-0.195
-0.19
-0.205
-0.21
-0.215
-0.215
-0.2
-0.19
-0.19
-0.21
-0.215
-0.24
-0.245
-0.235
-0.23
-0.23
-0.245
-0.24
-0.24
-0.24
-0.235
-0.24
-0.25
-0.255
-0.26
-0.25
-0.24
-0.255
-0.265
-0.265
-0.26
-0.245
-0.25
-0.255
-0.265
-0.265
-0.255
-0.25
-0.25
-0.23
-0.23
-0.23
-0.255
-0.275
-0.285
-0.27
-0.27
-0.27
-0.265
-0.245
-0.255
-0.255
-0.27
-0.28
-0.265
-0.25
-0.26
-0.25
-0.25
-0.255
-0.26
-0.255
-0.265
-0.265
-0.28
-0.265
-0.265
-0.24
-0.25
-0.26
-0.265
-0.275
-0.265
-0.255
-0.265
-0.27
-0.275
-0.285
-0.27
-0.265
-0.26
-0.26
-0.26
-0.28
-0.285
-0.27
-0.26
-0.255
-0.26
-0.27
-0.275
-0.26
-0.26
-0.24
-0.245
-0.26
-0.265
-0.255
-0.24
-0.23
-0.245
-0.26
-0.255
-0.245
-0.245
-0.25
-0.28
-0.295
-0.29
-0.27
-0.26
-0.255
-0.25
-0.255
-0.25
-0.245
-0.25
-0.23
-0.23
-0.23
-0.21
-0.185
-0.185
-0.185
-0.19
-0.21
-0.215
-0.22
-0.23
-0.225
-0.215
-0.23
-0.24
-0.23
-0.235
-0.21
-0.21
-0.225
-0.235
-0.25
-0.265
-0.265
-0.265
-0.27
-0.28
-0.27
-0.27
-0.265
-0.275
-0.27
-0.275
-0.27
-0.285
-0.29
-0.295
-0.285
-0.27
-0.26
-0.25
-0.27
-0.275
-0.265
-0.26
-0.245
-0.25
-0.265
-0.285
-0.29
-0.29
-0.27
-0.23
-0.18
-0.11
-0.01
0.095
0.21
0.3
0.385
0.475
0.59
0.71
0.83
0.905
0.93
0.875
0.77
0.64
0.485
0.22
-0.1
-0.355
-0.49
-0.545
-0.53
-0.51
-0.465
-0.44
-0.41
-0.395
-0.395
-0.385
-0.375
-0.39
-0.41
-0.41
-0.405
-0.415
-0.415
-0.41
-0.395
-0.385
-0.35
-0.345
-0.36
-0.38
-0.38
-0.37
-0.355
-0.345
-0.355
-0.36
-0.35
-0.36
-0.345
-0.35
-0.365
-0.365
-0.345
-0.335
-0.325
-0.325
-0.335
-0.335
-0.33
-0.32
-0.3
-0.31
-0.31
-0.335
-0.335
-0.335
-0.315
-0.315
-0.325
-0.33
-0.325
-0.315
-0.295
-0.295
-0.31
-0.32
-0.31
-0.295
-0.285
-0.285
-0.3
-0.315
-0.32
-0.305
-0.295
-0.275
-0.275
-0.295
-0.295
-0.295
-0.265
-0.26
-0.25
-0.245
-0.255
-0.265
-0.245
-0.25
-0.275
-0.275
-0.275
-0.23
-0.21
-0.2
-0.215
-0.225
-0.215
-0.17
-0.16
-0.155
-0.175
-0.19
-0.185
-0.175
-0.15
-0.15
-0.155
-0.165
-0.15
-0.155
-0.16
-0.175
-0.185
-0.195
-0.18
-0.165
-0.15
-0.155
-0.175
-0.2
-0.21
-0.21
-0.205
-0.195
-0.195
-0.21
-0.215
-0.225
-0.235
-0.23
-0.22
-0.22
-0.225
-0.23
-0.22
-0.2
-0.21
-0.245
-0.26
-0.255
-0.24
-0.23
-0.23
-0.235
-0.255
-0.27
-0.24
-0.215
-0.185
-0.175
-0.16
-0.155
-0.15
-0.145
-0.125
-0.1
-0.085
-0.085
-0.09
-0.12
-0.14
-0.15
-0.19
-0.27
-0.385
-0.605
-0.95
-1.345
-1.71
-1.97
-2.13
-2.185
-2.185
-2.19
-2.185
-2.135
-2.055
-1.96
-1.845
-1.725
-1.6
-1.47
-1.34
-1.21
-1.075
-0.99
-0.92
-0.865
-0.79
-0.735
-0.695
-0.655
-0.625
-0.58
-0.535
-0.485
-0.445
-0.41
-0.34
-0.255
-0.165
-0.095
-0.025
0.03
0.075
0.11
0.135
0.15
0.155
0.175
0.205
0.245
0.27
0.28
0.29
0.285
0.295
0.3
0.305
0.3
0.31
0.325
0.34
0.355
0.38
0.395
0.4
0.38
0.385
0.415
0.44
0.46
0.485
0.5
0.52
0.53
0.535
0.545
0.555
0.555
0.58
0.585
0.605
0.61
0.615
0.6
0.595
0.605
0.615
0.64
0.645
0.635
0.61
0.6
0.58
0.575
0.585
0.575
0.555
0.55
0.535
0.52
0.49
