Lead II
-1.25
-1.265
-1.26
-1.255
-1.245
-1.265
-1.255
-1.255
-1.24
-1.245
-1.23
-1.235
-1.23
-1.21
-1.205
-1.195
-1.205
-1.2
-1.21
-1.2
-1.2
-1.19
-1.155
-1.135
-1.135
-1.135
-1.135
-1.13
-1.14
-1.13
-1.125
-1.115
-1.1
-1.085
-1.065
-1.04
-1.005
-0.985
-0.975
-0.975
-0.945
-0.945
-0.93
-0.91
-0.875
-0.84
-0.795
-0.76
-0.725
-0.71
-0.7
-0.695
-0.675
-0.67
-0.64
-0.615
-0.59
-0.545
-0.51
-0.47
-0.455
-0.43
-0.425
-0.44
-0.44
-0.45
-0.47
-0.48
-0.495
-0.505
-0.51
-0.525
-0.555
-0.575
-0.625
-0.645
-0.71
-0.77
-0.805
-0.84
-0.89
-0.915
-0.955
-0.975
-0.995
-1.01
-1.04
-1.065
-1.085
-1.115
-1.135
-1.135
-1.14
-1.14
-1.13
-1.125
-1.135
-1.145
-1.145
-1.155
-1.175
-1.17
-1.185
-1.17
-1.17
-1.145
-1.125
-1.12
-1.12
-1.115
-1.11
-1.125
-1.135
-1.13
-1.125
-1.105
-1.095
-1.08
-1.075
-1.07
-1.06
-1.06
-1.065
-1.05
-1.035
-1.015
-0.955
-0.89
-0.83
-0.755
-0.7
-0.615
-0.525
-0.46
-0.395
-0.33
-0.285
-0.235
-0.15
-0.04
0.09
0.235
0.42
0.615
0.805
1.025
1.25
1.46
1.67
1.895
2.09
2.26
2.45
2.56
2.625
2.675
2.69
2.68
2.65
2.63
2.605
2.55
2.485
2.35
2.085
1.545
0.905
0.265
-0.375
-1.015
-1.395
-1.46
-1.5
-1.48
-1.52
-1.605
-1.665
-1.725
-1.79
-1.805
-1.805
-1.785
-1.76
-1.74
-1.735
-1.76
-1.78
-1.825
-1.865
-1.88
-1.89
-1.9
-1.92
-1.955
-1.975
-2.005
-2.02
-2.045
-2.05
-2.08
-2.085
-2.075
-2.09
-2.085
-2.085
-2.105
-2.11
-2.155
-2.195
-2.215
-2.255
-2.285
-2.32
-2.34
-2.37
-2.385
-2.375
-2.395
-2.415
-2.45
-2.47
-2.505
-2.525
-2.53
-2.535
-2.545
-2.535
-2.53
-2.535
-2.52
-2.515
-2.525
-2.52
-2.5
-2.475
-2.465
-2.43
-2.39
-2.335
-2.265
-2.195
-2.125
-2.06
-1.99
-1.925
-1.865
-1.8
-1.745
-1.69
-1.64
-1.595
-1.53
-1.505
-1.485
-1.475
-1.465
-1.465
-1.455
-1.45
-1.44
-1.44
-1.43
-1.42
-1.42
-1.405
-1.42
-1.42
-1.43
-1.435
-1.435
-1.44
-1.43
-1.435
-1.425
-1.43
-1.44
-1.43
-1.45
-1.445
-1.45
-1.45
-1.445
-1.46
-1.465
-1.46
-1.45
-1.45
-1.435
-1.44
-1.435
-1.45
-1.45
-1.47
-1.465
-1.46
-1.47
-1.465
-1.46
-1.465
-1.47
-1.465
-1.46
-1.47
-1.475
-1.485
-1.485
-1.5
-1.51
-1.505
-1.495
-1.485
-1.46
-1.445
-1.45
-1.45
-1.45
-1.475
-1.49
-1.5
-1.5
-1.5
-1.49
-1.49
-1.49
-1.49
-1.475
-1.5
-1.48
-1.5
-1.51
-1.505
-1.51
-1.5
-1.485
-1.495
-1.475
-1.47
-1.465
-1.48
-1.47
-1.47
-1.475
-1.485
-1.49
-1.51
-1.475
-1.495
-1.485
-1.45
-1.46
-1.465
-1.47
-1.465
-1.5
-1.505
-1.5
-1.48
-1.47
-1.46
-1.445
-1.415
-1.42
-1.445
-1.46
-1.495
-1.51
-1.51
-1.51
-1.5
-1.485
-1.47
-1.455
-1.455
-1.46
-1.45
-1.47
-1.48
-1.475
-1.485
-1.48
-1.48
-1.47
-1.445
-1.445
-1.45
-1.455
-1.455
-1.475
-1.48
-1.47
-1.48
-1.48
-1.475
-1.445
-1.44
-1.435
-1.44
-1.445
-1.46
-1.455
-1.46
-1.445
-1.445
-1.455
-1.455
-1.45
-1.435
-1.44
-1.415
-1.42
-1.42
-1.43
-1.435
-1.45
-1.44
-1.44
-1.435
-1.425
-1.42
-1.405
-1.415
-1.405
-1.405
-1.405
-1.42
-1.42
-1.425
-1.425
-1.42
-1.415
-1.405
-1.395
-1.375
-1.39
-1.4
-1.395
-1.4
-1.405
-1.415
-1.41
-1.395
-1.365
-1.345
-1.31
-1.295
-1.27
-1.27
-1.27
-1.28
-1.28
-1.285
-1.285
-1.275
-1.255
-1.235
-1.215
-1.195
-1.19
-1.165
-1.175
-1.175
-1.19
-1.19
-1.205
-1.21
-1.2
-1.205
-1.205
-1.205
-1.2
-1.19
-1.185
-1.2
-1.225
-1.25
-1.29
-1.31
-1.33
-1.34
-1.36
-1.36
-1.36
-1.345
-1.35
-1.35
-1.345
-1.355
-1.355
-1.35
-1.325
-1.32
-1.315
-1.31
-1.32
-1.295
-1.27
-1.23
-1.15
-1.03
-0.815
-0.54
-0.19
0.215
0.655
1.125
1.58
1.945
2.17
2.215
1.99
1.45
0.81
0.17
-0.47
-1.11
-1.75
-1.89
-1.61
-1.33
-1.14
-1.05
-1.035
-1.09
-1.17
-1.22
-1.25
-1.25
-1.245
-1.245
-1.24
-1.245
-1.24
-1.25
-1.25
-1.26
-1.255
-1.245
-1.235
-1.225
-1.2
-1.165
-1.17
-1.16
-1.175
-1.185
-1.2
-1.195
-1.195
-1.195
-1.16
-1.14
-1.11
-1.075
-1.065
-1.06
-1.06
-1.055
-1.065
-1.045
-1.03
-1.015
-0.99
-0.965
-0.945
-0.945
-0.92
-0.935
-0.925
-0.925
-0.895
-0.85
-0.83
-0.805
-0.79
-0.765
-0.715
-0.695
-0.665
-0.64
-0.625
-0.59
-0.585
-0.555
-0.53
-0.505
-0.47
-0.455
-0.415
-0.39
-0.375
-0.35
-0.335
-0.32
-0.3
-0.275
-0.265
-0.25
-0.235
-0.215
-0.2
-0.185
-0.18
-0.19
-0.195
-0.22
-0.23
-0.27
-0.305
-0.34
-0.37
-0.38
-0.435
-0.445
-0.475
-0.51
-0.555
-0.615
-0.67
-0.705
-0.75
-0.775
-0.8
-0.82
-0.825
-0.835
-0.855
-0.88
-0.905
-0.93
-0.945
-0.965
-0.975
-0.955
-0.93
-0.94
-0.925
-0.925
-0.93
-0.945
-0.945
-0.955
-0.97
-0.985
-0.975
-0.965
-0.95
-0.945
-0.925
-0.915
-0.93
-0.935
-0.94
-0.955
-0.945
-0.96
-0.975
-0.99
-0.98
-0.965
-0.95
-0.955
-0.965
-0.955
-0.965
-0.98
-1.005
-1.01
-1.02
-1.02
-1.015
-1.02
-1.01
-0.995
-1.005
-1.02
-1.04
-1.05
-1.06
-1.07
-1.08
-1.075
-1.065
-1.06
-1.055
-1.075
-1.08
-1.085
-1.1
-1.11
-1.105
-1.115
-1.11
-1.1
-1.11
-1.1
-1.09
-1.095
-1.105
-1.1
-1.11
-1.105
-1.1
-1.105
-1.12
-1.125
-1.135
-1.13
-1.125
-1.1
-1.105
-1.1
-1.1
-1.11
-1.1
-1.07
-1.05
-1.04
-1.01
-1.0
-0.98
-0.995
-0.995
-1.005
-1.02
-1.025
-1.035
-1.025
-0.985
-0.965
-0.95
-0.915
-0.905
-0.91
-0.92
-0.93
-0.95
-0.985
-1.0
-1.0
-1.015
-1.03
-1.03
-1.03
-1.04
-1.03
-1.07
-1.105
-1.125
-1.155
-1.185
-1.205
-1.215
-1.215
-1.19
-1.19
-1.18
-1.155
-1.16
-1.155
-1.16
-1.17
-1.185
-1.19
-1.195
-1.2
-1.185
-1.185
-1.155
-1.105
-1.035
-0.9
-0.7
-0.405
-0.03
0.43
0.92
1.44
1.905
2.27
2.47
2.495
2.255
1.715
1.075
0.435
-0.205
-0.845
-1.485
-1.835
-1.505
-1.16
-0.895
-0.785
-0.795
-0.875
-0.985
-1.08
-1.145
-1.18
-1.18
-1.16
-1.155
-1.12
-1.105
-1.105
-1.115
-1.115
-1.12
-1.105
-1.11
-1.115
-1.13
-1.125
-1.1
-1.085
-1.085
-1.055
-1.065
-1.05
-1.05
-1.055
-1.05
-1.045
-1.04
-1.035
-1.01
-0.995
-0.985
-0.965
-0.95
-0.95
-0.945
-0.94
-0.94
-0.91
-0.91
-0.89
-0.87
-0.86
-0.83
-0.815
-0.78
-0.76
-0.735
-0.71
-0.7
-0.67
-0.67
-0.64
-0.59
-0.555
-0.54
-0.5
-0.49
-0.47
-0.465
-0.465
-0.465
-0.455
-0.455
-0.45
-0.425
-0.415
-0.405
-0.4
-0.41
-0.43
-0.46
-0.485
-0.53
-0.565
-0.61
-0.63
-0.655
-0.695
-0.725
-0.76
-0.805
-0.85
-0.885
-0.92
-0.96
-0.99
-1.02
-1.045
-1.07
-1.09
-1.105
-1.095
-1.105
-1.13
-1.135
-1.16
-1.17
-1.19
-1.205
-1.21
-1.195
-1.19
-1.18
-1.165
-1.15
-1.155
-1.175
-1.18
-1.19
-1.195
-1.205
-1.205
-1.18
-1.165
-1.16
-1.145
-1.155
-1.155
-1.165
-1.16
-1.17
-1.185
-1.18
-1.175
-1.155
-1.145
-1.13
-1.13
-1.145
-1.14
-1.155
-1.175
-1.185
-1.185
-1.19
-1.185
-1.185
-1.175
-1.2
-1.165
-1.17
-1.185
-1.19
-1.2
-1.22
-1.23
-1.235
-1.24
-1.215
-1.205
-1.195
-1.19
-1.215
-1.22
-1.23
-1.225
-1.245
-1.255
-1.255
-1.255
-1.25
-1.235
-1.25
-1.225
-1.225
-1.235
-1.265
-1.265
-1.255
-1.25
-1.26
-1.255
-1.26
-1.26
-1.235
-1.23
-1.23
-1.235
-1.25
-1.25
-1.245
-1.235
-1.23
-1.2
-1.18
-1.155
-1.15
-1.12
-1.13
-1.15
-1.165
-1.175
-1.18
-1.16
-1.135
-1.115
-1.085
-1.08
-1.065
-1.085
-1.09
-1.1
-1.115
-1.15
-1.16
-1.15
-1.17
-1.18
-1.19
-1.195
-1.2
-1.2
-1.22
-1.245
-1.27
-1.305
-1.34
-1.345
-1.345
-1.345
-1.32
-1.31
-1.29
-1.28
-1.29
-1.29
-1.3
-1.305
-1.325
-1.345
-1.34
-1.34
-1.315
-1.25
-1.17
-1.06
-0.915
-0.69
-0.42
-0.05
0.375
0.865
1.365
1.835
2.17
2.33
2.335
2.055
1.46
0.82
0.18
-0.46
-1.1
-1.74
-1.85
-1.575
-1.285
-1.08
-1.0
-1.0
-1.07
-1.175
-1.26
-1.315
-1.325
-1.315
-1.31
-1.315
-1.305
-1.295
-1.295
-1.295
-1.29
-1.265
-1.265
-1.27
-1.265
-1.265
-1.28
-1.275
-1.27
-1.25
-1.235
-1.215
-1.205
-1.19
-1.195
-1.21
-1.22
-1.225
-1.2
-1.195
-1.17
-1.145
-1.13
-1.1
-1.085
-1.08
-1.075
-1.08
-1.085
-1.075
-1.08
-1.05
-1.025
-0.98
-0.945
-0.915
-0.905
-0.9
-0.88
-0.87
-0.85
-0.82
-0.8
-0.765
-0.73
-0.695
-0.67
-0.645
-0.63
-0.605
-0.605
-0.615
-0.61
-0.595
-0.565
-0.56
-0.55
-0.54
-0.54
-0.54
-0.55
-0.56
-0.6
-0.645
-0.7
-0.75
-0.795
-0.835
-0.875
-0.91
-0.915
-0.935
-0.965
-1.0
-1.045
-1.085
-1.135
-1.165
-1.195
-1.215
-1.22
-1.22
-1.23
-1.23
-1.235
-1.24
-1.255
-1.255
-1.27
-1.28
-1.265
-1.28
-1.275
-1.265
-1.26
-1.26
-1.245
-1.27
-1.265
-1.26
-1.28
-1.285
-1.29
-1.275
-1.25
-1.24
-1.22
-1.21
-1.21
-1.225
-1.215
-1.23
-1.235
-1.23
-1.23
-1.225
-1.21
-1.21
-1.2
-1.2
-1.175
-1.175
-1.18
-1.195
-1.205
-1.215
-1.235
-1.24
-1.205
-1.195
-1.185
-1.165
-1.16
-1.16
-1.17
-1.175
-1.205
-1.2
-1.2
-1.215
-1.205
-1.195
-1.185
-1.18
-1.175
-1.185
-1.185
-1.21
-1.205
-1.2
-1.22
-1.245
-1.225
-1.205
-1.205
-1.165
-1.165
-1.17
-1.175
-1.185
-1.195
-1.205
-1.225
-1.21
-1.21
-1.21
-1.195
-1.18
-1.175
-1.16
-1.175
-1.18
-1.17
-1.14
-1.115
-1.105
-1.085
-1.07
-1.055
-1.05
-1.04
-1.04
-1.055
-1.055
-1.05
-1.05
-1.065
-1.055
-1.03
-1.015
-0.995
-0.96
-0.965
-0.955
-0.965
-0.98
-0.995
-0.995
-1.0
-1.02
-1.0
-1.01
-1.015
-1.02
-1.035
-1.085
-1.095
-1.14
-1.165
-1.19
-1.205
-1.23
-1.225
-1.215
-1.195
-1.19
-1.17
-1.165
-1.15
-1.15
-1.16
-1.17
-1.175
-1.185
-1.175
-1.16
-1.155
-1.14
-1.125
-1.085
-1.04
-0.945
-0.79
-0.565
-0.285
0.075
0.455
0.855
1.265
1.66
2.005
2.275
2.415
2.445
2.36
2.095
1.605
0.965
0.325
-0.315
-0.955
-1.595
-1.6
-1.35
-1.125
-0.92
-0.84
-0.835
-0.905
-0.995
-1.075
-1.12
-1.12
-1.1
-1.095
-1.085
-1.075
-1.095
-1.105
-1.115
-1.12
-1.14
-1.13
-1.115
-1.095
-1.085
-1.09
-1.085
-1.08
-1.075
-1.075
-1.08
-1.065
-1.055
-1.06
-1.04
-1.025
-1.005
-1.005
-1.015
-1.01
-1.01
-1.005
-0.995
-0.98
-0.975
-0.965
-0.935
-0.925
-0.89
-0.87
-0.86
-0.85
-0.84
-0.835
-0.82
-0.8
-0.785
-0.765
-0.74
-0.72
-0.675
-0.635
-0.61
-0.595
-0.57
-0.535
-0.51
-0.495
-0.465
-0.43
-0.4
-0.37
-0.34
-0.34
-0.335
-0.335
-0.345
-0.365
-0.345
-0.355
-0.355
-0.355
-0.36
-0.36
-0.385
-0.43
-0.46
-0.52
-0.56
-0.62
-0.655
-0.71
-0.755
-0.805
-0.815
-0.85
-0.875
-0.9
-0.945
-0.965
-0.985
-1.035
-1.02
-1.04
-1.065
-1.07
-1.06
-1.08
-1.065
-1.07
-1.07
-1.09
-1.105
-1.12
-1.115
-1.11
-1.125
-1.12
-1.1
-1.09
-1.075
-1.06
-1.075
-1.08
-1.075
-1.1
-1.1
-1.1
-1.105
-1.095
-1.08
-1.06
-1.055
-1.065
-1.06
-1.05
-1.05
-1.045
-1.05
-1.065
-1.055
-1.05
-1.035
-1.035
-1.035
-1.04
-1.045
-1.055
-1.07
-1.08
-1.08
-1.085
-1.09
-1.1
-1.09
-1.075
-1.06
-1.07
-1.075
-1.095
-1.125
-1.115
-1.14
-1.15
-1.135
-1.13
-1.12
-1.095
-1.085
-1.085
-1.095
-1.1
-1.11
-1.12
-1.11
-1.14
-1.145
-1.125
-1.125
-1.12
-1.095
-1.095
-1.11
-1.105
-1.115
-1.105
-1.11
-1.115
-1.11
-1.11
-1.1
-1.06
-1.015
-0.99
-0.97
-0.99
-0.995
-0.995
-1.01
-1.01
-1.01
-0.995
-0.98
-0.97
-0.945
-0.925
-0.905
-0.9
-0.895
-0.92
-0.935
-0.98
-0.98
-0.99
-0.985
-0.97
-0.955
-0.965
-0.98
-1.005
-1.04
-1.06
-1.1
-1.13
-1.145
-1.165
-1.17
-1.2
-1.195
-1.205
-1.2
-1.19
-1.205
-1.2
-1.21
-1.215
-1.22
-1.22
-1.22
-1.215
-1.19
-1.21
-1.2
-1.21
-1.195
-1.18
-1.125
-1.045
-0.91
-0.705
-0.375
-0.02
0.45
0.965
1.48
1.93
2.285
2.455
2.435
2.165
1.605
0.965
0.325
-0.315
-0.955
-1.595
-1.655
-1.375
-1.09
-0.91
-0.86
-0.92
-1.02
-1.13
-1.195
-1.225
-1.215
-1.22
-1.215
-1.195
-1.205
-1.215
-1.22
-1.24
-1.26
-1.265
-1.24
-1.2
-1.185
-1.185
-1.195
-1.19
-1.205
-1.205
-1.195
-1.18
-1.195
-1.175
-1.155
-1.145
-1.135
-1.13
-1.125
-1.115
-1.11
-1.11
-1.115
-1.12
-1.11
-1.105
-1.08
-1.05
-1.02
-1.01
-0.99
-0.99
-0.975
-0.97
-0.945
-0.925
-0.92
-0.885
-0.855
-0.815
-0.79
-0.745
-0.705
-0.69
-0.67
-0.645
-0.63
-0.615
-0.595
-0.565
-0.54
-0.515
-0.49
-0.49
-0.485
-0.465
-0.46
-0.46
-0.455
-0.45
-0.46
-0.46
-0.465
-0.47
-0.47
-0.5
-0.545
-0.595
-0.64
-0.695
-0.755
-0.815
-0.85
-0.89
-0.92
-0.945
-0.975
-1.03
-1.065
-1.09
-1.135
-1.175
-1.185
-1.225
-1.22
-1.225
-1.225
-1.22
-1.21
-1.225
-1.24
-1.25
-1.265
-1.285
-1.285
-1.3
-1.29
-1.29
-1.285
-1.285
-1.28
-1.28
-1.29
-1.28
-1.285
-1.29
-1.295
-1.3
-1.295
-1.28
-1.275
-1.26
-1.25
-1.23
-1.245
-1.26
-1.27
-1.275
-1.275
-1.27
-1.28
-1.255
-1.25
-1.245
-1.225
-1.22
-1.23
-1.235
-1.26
-1.27
-1.255
-1.26
-1.275
-1.275
-1.255
-1.245
-1.23
-1.23
-1.24
-1.27
-1.285
-1.275
-1.29
-1.295
-1.29
-1.28
-1.28
-1.27
-1.25
-1.255
-1.26
-1.265
-1.28
-1.285
-1.295
-1.29
-1.285
-1.28
-1.28
-1.28
-1.26
-1.27
-1.27
-1.275
-1.28
-1.31
-1.315
-1.315
-1.31
-1.3
-1.305
-1.27
-1.255
-1.255
-1.24
-1.24
-1.22
-1.215
-1.2
-1.195
-1.19
-1.18
-1.18
-1.18
-1.165
-1.17
-1.165
-1.15
-1.16
-1.14
-1.13
-1.11
-1.11
-1.125
-1.11
-1.105
-1.085
-1.095
-1.125
-1.15
-1.175
-1.17
-1.165
-1.18
-1.185
-1.205
-1.22
-1.27
-1.28
-1.295
-1.29
-1.3
-1.32
-1.32
-1.32
-1.32
-1.32
-1.315
-1.31
-1.31
-1.295
-1.285
-1.315
-1.305
-1.31
-1.315
-1.285
-1.27
-1.22
-1.14
-1.0
-0.84
-0.635
-0.385
-0.07
0.255
0.635
1.05
1.415
1.705
1.855
1.795
1.465
0.84
0.2
-0.44
-1.08
-1.72
-1.93
-1.735
-1.44
-1.215
-1.085
-1.04
-1.09
-1.16
-1.24
-1.285
-1.33
-1.335
-1.3
-1.285
-1.29
-1.29
-1.285
-1.285
-1.285
-1.28
-1.25
-1.25
-1.26
-1.265
-1.26
-1.25
-1.245
-1.24
-1.235
-1.21
-1.2
-1.19
-1.17
-1.17
-1.17
-1.16
-1.18
-1.175
-1.165
-1.17
-1.155
-1.115
-1.08
-1.055
-1.03
-1.04
-1.04
-1.03
-1.025
-1.005
-1.005
-1.005
-0.985
-0.95
-0.925
-0.88
-0.85
-0.81
-0.785
-0.76
-0.745
-0.745
-0.73
-0.735
-0.73
-0.715
-0.71
-0.68
-0.685
-0.66
-0.66
-0.665
-0.69
-0.685
-0.7
-0.73
-0.75
-0.77
-0.785
-0.815
-0.825
-0.865
-0.9
-0.96
-1.0
-1.03
-1.07
-1.125
-1.155
-1.175
-1.19
-1.195
-1.21
-1.215
-1.23
-1.25
-1.275
-1.3
-1.31
-1.31
-1.325
-1.315
-1.315
-1.3
-1.3
-1.315
-1.32
-1.33
-1.35
-1.35
-1.345
-1.345
-1.34
-1.34
-1.335
-1.34
-1.33
-1.325
-1.3
-1.31
-1.31
-1.305
-1.315
-1.335
-1.34
-1.35
-1.345
-1.325
-1.32
-1.295
-1.31
-1.305
-1.335
-1.34
-1.33
-1.335
-1.335
-1.33
-1.315
-1.32
-1.31
-1.3
-1.305
-1.3
-1.315
-1.33
-1.33
-1.345
-1.365
-1.375
-1.365
-1.35
-1.34
-1.32
-1.335
-1.35
-1.35
-1.365
-1.375
-1.385
-1.38
-1.365
-1.355
-1.355
-1.355
-1.36
-1.36
-1.375
-1.385
-1.395
-1.405
-1.395
-1.42
-1.415
-1.405
-1.4
-1.405
-1.385
-1.395
-1.375
-1.395
-1.39
-1.405
-1.425
-1.42
-1.415
-1.4
-1.385
-1.385
-1.375
-1.36
-1.355
-1.36
-1.345
-1.325
-1.32
-1.31
-1.32
-1.33
-1.32
-1.3
-1.29
-1.275
-1.25
-1.265
-1.25
-1.235
-1.235
-1.225
-1.235
-1.24
-1.26
-1.275
-1.295
-1.29
-1.305
-1.325
-1.32
-1.34
-1.355
-1.38
-1.385
-1.39
-1.41
-1.42
-1.435
-1.45
-1.465
-1.47
-1.485
-1.495
-1.495
-1.505
-1.48
-1.465
-1.445
-1.435
-1.435
-1.455
-1.46
-1.47
-1.475
-1.465
-1.44
-1.405
-1.335
-1.25
-1.175
-1.055
-0.9
-0.735
-0.54
-0.325
-0.085
0.16
0.38
0.57
0.62
0.53
0.21
-0.315
-0.925
-1.515
-1.94
-2.13
-2.07
-1.89
-1.65
-1.455
-1.35
-1.32
-1.32
-1.36
-1.415
-1.45
-1.465
-1.48
-1.46
-1.44
-1.43
-1.42
-1.415
-1.41
-1.405
-1.41
-1.395
-1.39
-1.39
-1.405
-1.415
-1.41
-1.41
-1.4
-1.385
-1.36
-1.35
-1.34
-1.32
-1.315
-1.3
-1.31
-1.3
-1.31
-1.31
-1.3
-1.265
-1.245
-1.235
-1.235
-1.22
-1.215
-1.22
-1.21
-1.195
-1.19
-1.155
-1.135
-1.125
-1.115
-1.09
-1.08
-1.02
-0.99
-0.98
-1.005
-0.99
-0.995
-0.97
-0.955
-0.92
-0.905
-0.88
-0.855
-0.83
-0.82
-0.825
-0.83
-0.835
-0.85
-0.86
-0.87
-0.9
-0.915
-0.925
-0.935
-0.935
-0.935
-0.97
-1.005
-1.05
-1.105
-1.15
-1.19
-1.22
-1.23
-1.235
-1.23
-1.23
-1.235
-1.25
-1.255
-1.285
-1.315
-1.345
-1.37
-1.37
-1.345
-1.345
-1.335
-1.34
-1.36
-1.365
-1.36
-1.37
-1.37
-1.365
-1.385
-1.39
-1.38
-1.36
-1.345
-1.345
-1.35
-1.345
-1.345
-1.33
-1.33
-1.33
-1.34
-1.35
-1.35
-1.345
-1.335
-1.335
-1.335
-1.325
-1.335
-1.325
-1.335
-1.335
-1.345
-1.35
-1.345
-1.34
-1.31
-1.295
-1.275
-1.28
-1.285
-1.295
-1.3
-1.31
-1.315
-1.325
-1.305
-1.285
-1.23
-1.185
-1.15
-1.11
-1.09
-1.06
-1.04
-0.98
-0.94
-0.87
-0.8
-0.74
-0.68
-0.635
-0.585
-0.505
-0.435
-0.35
-0.235
-0.13
0.03
0.175
0.375
0.555
0.74
0.915
1.06
1.195
1.275
1.305
1.33
1.345
1.375
1.395
1.46
1.555
1.625
1.65
1.53
1.18
0.625
-0.015
-0.655
-1.105
-1.345
-1.425
-1.405
-1.335
-1.3
-1.285
-1.29
-1.32
-1.38
-1.41
-1.43
-1.465
-1.5
-1.49
-1.505
-1.505
-1.51
-1.525
-1.54
-1.575
-1.59
-1.615
-1.625
-1.62
-1.62
-1.62
-1.635
-1.63
-1.64
-1.635
-1.635
-1.645
-1.665
-1.685
-1.71
-1.72
-1.755
-1.775
-1.755
-1.76
-1.76
-1.775
-1.78
-1.785
-1.8
-1.815
-1.82
-1.835
-1.84
-1.845
-1.845
-1.87
-1.865
-1.87
-1.88
-1.89
-1.905
-1.905
-1.895
-1.9
-1.895
-1.885
-1.855
-1.83
-1.8
-1.775
-1.745
-1.725
-1.715
-1.715
-1.71
-1.68
-1.675
-1.63
-1.57
-1.525
-1.49
-1.45
-1.425
-1.39
-1.375
-1.355
-1.375
-1.38
-1.35
-1.34
-1.335
-1.32
-1.3
-1.265
-1.255
-1.25
-1.24
-1.245
-1.29
-1.295
-1.28
-1.295
-1.28
-1.27
-1.255
-1.25
-1.25
-1.225
-1.24
-1.25
-1.255
-1.255
-1.285
-1.28
-1.26
-1.235
-1.205
-1.2
-1.19
-1.195
-1.2
-1.22
-1.235
-1.235
-1.265
-1.25
-1.225
-1.21
-1.2
-1.205
-1.19
-1.195
-1.205
-1.225
-1.23
-1.215
-1.22
-1.21
-1.21
-1.19
-1.185
-1.185
-1.18
-1.205
-1.22
-1.235
-1.235
-1.23
-1.22
-1.21
-1.2
-1.205
-1.19
-1.18
-1.17
-1.16
-1.15
-1.125
-1.085
-1.04
-1.045
-1.06
-1.075
-1.095
-1.075
-1.065
-1.085
-1.06
-1.05
-1.07
-1.095
-1.105
-1.115
-1.12
-1.1
-1.095
-1.08
-1.055
-1.055
-1.065
-1.075
-1.095
-1.105
-1.095
-1.09
-1.085
-1.07
-1.07
-1.05
-1.05
-1.065
-1.05
-1.07
-1.085
-1.095
-1.09
-1.105
-1.12
-1.085
-1.08
-1.07
-1.045
-1.05
-1.05
-1.06
-1.06
-1.055
-1.045
-1.05
-1.05
-1.04
-1.05
-1.05
-1.03
-1.04
-1.03
-1.04
-1.055
-1.065
-1.08
-1.07
-1.07
-1.06
-1.045
-1.02
-1.02
-1.025
-1.035
-1.06
-1.065
-1.07
-1.07
-1.08
-1.075
-1.06
-1.05
-1.035
-1.02
-1.03
-1.015
-1.02
-1.025
-1.035
-1.035
-1.03
-1.045
-1.045
-1.055
-1.03
-1.02
-1.02
-1.02
-1.03
-1.03
-1.035
-1.035
-1.03
-1.025
-1.02
-1.01
-1.005
-0.99
-0.955
-0.96
-0.94
-0.925
-0.925
-0.915
-0.915
-0.92
-0.91
-0.895
-0.89
-0.88
-0.865
-0.845
-0.84
-0.835
-0.84
-0.845
-0.86
-0.86
-0.87
-0.855
-0.85
-0.845
-0.855
-0.855
-0.88
-0.9
-0.925
-0.965
-0.98
-0.99
-1.01
-1.0
-1.005
-1.01
-1.03
-1.05
-1.05
-1.04
-1.05
-1.035
-1.04
-1.035
-1.045
-1.03
-1.02
-1.045
-1.04
-1.05
-1.055
-1.035
-1.01
-0.97
-0.9
-0.83
-0.705
-0.56
-0.375
-0.14
0.11
0.405
0.71
1.005
1.22
1.395
1.405
1.225
0.835
0.235
-0.405
-1.03
-1.455
-1.645
-1.6
-1.415
-1.19
-0.99
-0.88
-0.845
-0.87
-0.925
-0.975
-1.005
-1.01
-1.02
-1.005
-1.015
-1.005
-1.025
-1.02
-1.02
-1.025
-1.005
-0.995
-0.965
-0.96
-0.96
-0.965
-0.97
-0.975
-0.985
-0.99
-0.98
-0.95
-0.95
-0.935
-0.905
-0.895
-0.875
-0.865
-0.865
-0.87
-0.87
-0.875
-0.88
-0.86
-0.835
-0.82
-0.795
-0.785
-0.775
-0.765
-0.78
-0.76
-0.75
-0.73
-0.725
-0.705
-0.68
-0.65
-0.625
-0.6
-0.595
-0.575
-0.56
-0.545
-0.54
-0.515
-0.475
-0.455
-0.425
-0.39
-0.385
-0.365
-0.34
-0.315
-0.32
-0.315
-0.32
-0.31
-0.31
-0.3
-0.29
-0.275
-0.245
-0.24
-0.25
-0.245
-0.265
-0.29
-0.315
-0.33
-0.36
-0.385
-0.415
-0.445
-0.475
-0.525
-0.545
-0.575
-0.605
-0.635
-0.675
-0.685
-0.71
-0.74
-0.74
-0.745
-0.75
-0.76
-0.79
-0.805
-0.82
-0.855
-0.84
-0.835
-0.835
-0.845
-0.83
-0.835
-0.83
-0.81
-0.815
-0.825
-0.82
-0.835
-0.855
-0.865
-0.87
-0.855
-0.83
-0.825
-0.81
-0.815
-0.81
-0.825
-0.82
-0.825
-0.81
-0.83
-0.815
-0.81
-0.8
-0.8
-0.81
-0.795
-0.805
-0.825
-0.815
-0.825
-0.815
-0.83
-0.815
-0.835
-0.805
-0.8
-0.795
-0.805
-0.815
-0.815
-0.825
-0.835
-0.86
-0.865
-0.855
-0.85
-0.845
-0.82
-0.82
-0.84
-0.85
-0.85
-0.855
-0.885
-0.88
-0.875
-0.875
-0.865
-0.87
-0.845
-0.85
-0.86
-0.875
-0.88
-0.895
-0.92
-0.935
-0.915
-0.915
-0.9
-0.895
-0.875
-0.87
-0.865
-0.86
-0.86
-0.88
-0.88
-0.885
-0.88
-0.855
-0.83
-0.795
-0.77
-0.745
-0.735
-0.73
-0.75
-0.78
-0.79
-0.795
-0.79
-0.785
-0.77
-0.745
-0.695
-0.675
-0.645
-0.665
-0.705
-0.73
-0.75
-0.76
-0.775
-0.76
-0.74
-0.73
-0.74
-0.75
-0.76
-0.79
-0.83
-0.86
-0.89
-0.92
-0.96
-0.975
-0.975
-0.955
-0.945
-0.93
-0.92
-0.925
-0.925
-0.935
-0.96
-0.97
-0.975
-0.985
-0.975
-0.98
-0.96
-0.935
-0.915
-0.91
-0.87
-0.825
-0.695
-0.52
-0.3
-0.03
0.28
0.615
0.955
1.295
1.565
1.745
1.775
1.57
1.055
0.415
-0.225
-0.865
-1.505
-1.63
-1.43
-1.145
-0.895
-0.74
-0.7
-0.755
-0.835
-0.915
-0.97
-1.01
-1.0
-0.985
-0.96
-0.935
-0.93
-0.945
-0.945
-0.955
-0.965
-0.965
-0.955
-0.98
-0.965
-0.935
-0.92
-0.88
-0.895
-0.895
-0.885
-0.89
-0.895
-0.89
-0.9
-0.9
-0.885
-0.87
-0.845
-0.815
-0.815
-0.815
-0.815
-0.815
-0.815
-0.8
-0.795
-0.775
-0.75
-0.73
-0.72
-0.695
-0.675
-0.655
-0.635
-0.63
-0.615
-0.6
-0.58
-0.555
-0.51
-0.48
-0.455
-0.43
-0.425
-0.435
-0.43
-0.425
-0.435
-0.415
-0.415
-0.415
-0.43
-0.41
-0.39
-0.36
-0.38
-0.385
-0.405
-0.435
-0.46
-0.5
-0.53
-0.57
-0.6
-0.62
-0.655
-0.67
-0.69
-0.72
-0.745
-0.775
-0.805
-0.845
-0.87
-0.895
-0.91
-0.925
-0.93
-0.925
-0.94
-0.96
-0.945
-0.94
-0.945
-0.94
-0.94
-0.955
-0.955
-0.97
-0.975
-0.97
-0.965
-0.98
-0.98
-0.995
-0.995
-1.0
-1.0
-1.0
-0.98
-0.97
-0.96
-0.94
-0.94
-0.98
-0.99
-0.98
-0.99
-0.985
-0.98
-0.985
-0.97
-0.965
-0.96
-0.945
-0.96
-0.96
-0.985
-0.975
-0.985
-0.995
-1.0
-1.01
-1.005
-0.995
-1.0
-0.99
-0.985
-1.0
-0.995
-1.01
-1.035
-1.015
-1.02
-1.035
-1.02
-1.025
-1.02
-1.02
-1.025
-1.03
-1.03
-1.03
-1.04
-1.035
-1.03
-1.035
-1.04
-1.025
-1.02
-1.0
-1.01
-1.02
-1.035
-1.055
-1.07
-1.085
-1.09
-1.085
-1.07
-1.06
-1.045
-1.025
-1.02
-1.02
-1.005
-0.995
-0.98
-0.98
-0.985
-0.975
-0.965
-0.955
-0.945
-0.95
-0.93
-0.92
-0.93
-0.925
-0.91
-0.89
-0.88
-0.875
-0.87
-0.885
-0.9
-0.92
-0.91
-0.92
-0.915
-0.93
-0.945
-0.965
-0.99
-1.01
-1.045
-1.075
-1.1
-1.12
-1.14
-1.16
-1.16
-1.17
-1.185
-1.165
-1.175
-1.17
-1.175
-1.18
-1.155
-1.13
-1.135
-1.155
-1.165
-1.185
-1.22
-1.21
-1.21
-1.19
-1.135
-1.055
-0.93
-0.74
-0.505
-0.225
0.08
0.38
0.69
1.02
1.335
1.58
1.76
1.84
1.71
1.31
0.67
0.03
-0.61
-1.25
-1.865
-1.755
-1.49
-1.22
-1.02
-0.935
-0.965
-1.01
-1.11
-1.16
-1.21
-1.245
-1.25
-1.255
-1.235
-1.225
-1.205
-1.19
-1.18
-1.145
-1.145
-1.145
-1.135
-1.155
-1.17
-1.16
-1.165
-1.17
-1.15
-1.13
-1.12
-1.1
-1.115
-1.09
-1.08
-1.085
-1.08
-1.075
-1.065
-1.065
-1.065
-1.03
-1.01
-1.0
-0.985
-0.975
-0.96
-0.965
-0.96
-0.95
-0.94
-0.91
-0.89
-0.855
-0.83
-0.8
-0.76
-0.75
-0.735
-0.735
-0.71
-0.69
-0.67
-0.64
-0.62
-0.6
-0.56
-0.54
-0.54
-0.535
-0.535
-0.54
-0.535
-0.54
-0.55
-0.55
-0.56
-0.57
-0.56
-0.58
-0.605
-0.64
-0.67
-0.725
-0.77
-0.8
-0.84
-0.89
-0.93
-0.945
-0.97
-0.975
-0.985
-0.99
-1.015
-1.025
-1.065
-1.08
-1.085
-1.105
-1.11
-1.105
-1.105
-1.105
-1.095
-1.105
-1.105
-1.125
-1.12
-1.125
-1.13
-1.12
-1.13
-1.105
-1.095
-1.07
-1.065
-1.055
-1.065
-1.07
-1.075
-1.08
-1.085
-1.09
-1.095
-1.09
-1.07
-1.05
-1.045
-1.04
-1.045
-1.05
-1.05
-1.045
-1.05
-1.055
-1.05
-1.045
-1.035
-1.025
-1.055
-1.06
-1.065
-1.07
-1.065
-1.08
-1.075
-1.08
-1.065
-1.055
-1.05
-1.06
-1.05
-1.065
-1.08
-1.105
-1.125
-1.115
-1.12
-1.12
-1.105
-1.085
-1.08
-1.065
-1.07
-1.07
-1.1
-1.105
-1.11
-1.115
-1.09
-1.105
-1.1
-1.1
-1.105
-1.09
-1.1
-1.1
-1.095
-1.11
-1.11
-1.1
-1.115
-1.13
-1.095
-1.06
-1.035
-1.01
-0.995
-0.99
-0.995
-0.99
-0.995
-0.995
-1.005
-0.985
-0.99
-0.985
-0.98
-0.95
-0.92
-0.9
-0.895
-0.885
-0.88
-0.905
-0.935
-0.945
-0.95
-0.955
-0.95
-0.935
-0.94
-0.935
-0.96
-0.99
-1.025
-1.045
-1.07
-1.09
-1.105
-1.12
-1.135
-1.135
-1.13
-1.145
-1.135
-1.155
-1.14
-1.145
-1.155
-1.16
-1.15
-1.14
-1.13
-1.115
-1.11
-1.11
-1.125
-1.14
-1.135
-1.125
-1.065
-0.96
-0.77
-0.53
-0.225
0.15
0.535
0.95
1.36
1.725
2.01
2.195
2.235
2.11
1.79
1.23
0.59
-0.05
-0.69
-1.33
-1.655
-1.555
-1.3
-1.03
-0.855
-0.77
-0.805
-0.86
-0.935
-0.995
-1.015
-1.025
-1.035
-1.01
-1.01
-1.01
-1.015
-1.025
-1.045
-1.025
-1.015
-0.99
-0.985
-0.98
-0.975
-1.0
-1.0
-0.995
-0.98
-0.97
-0.96
-0.955
-0.94
-0.925
-0.91
-0.925
-0.925
-0.92
-0.92
-0.905
-0.895
-0.905
-0.9
-0.88
-0.85
-0.835
-0.82
-0.805
-0.805
-0.805
-0.8
-0.785
-0.77
-0.745
-0.735
-0.72
-0.685
-0.635
-0.615
-0.605
-0.605
-0.595
-0.575
-0.56
-0.53
-0.52
-0.48
-0.455
-0.44
-0.39
-0.37
-0.355
-0.35
-0.355
-0.345
-0.35
-0.345
-0.345
-0.345
-0.345
-0.335
-0.32
-0.32
-0.33
-0.335
-0.36
-0.405
-0.42
-0.445
-0.5
-0.525
-0.54
-0.58
-0.6
-0.62
-0.655
-0.675
-0.725
-0.76
-0.795
-0.825
-0.845
-0.87
-0.87
-0.87
-0.88
-0.87
-0.865
-0.88
-0.9
-0.915
-0.925
-0.95
-0.96
-0.955
-0.95
-0.935
-0.92
-0.905
-0.905
-0.91
-0.905
-0.9
-0.92
-0.92
-0.92
-0.93
-0.92
-0.91
-0.9
-0.9
-0.9
-0.895
-0.905
-0.905
-0.9
-0.885
-0.91
-0.91
-0.915
-0.91
-0.89
-0.865
-0.865
-0.885
-0.885
-0.905
-0.91
-0.925
-0.92
-0.915
-0.9
-0.895
-0.885
-0.875
-0.885
-0.895
-0.91
-0.92
-0.93
-0.915
-0.915
-0.925
-0.915
