Lead II
-0.385
-0.39
-0.395
-0.375
-0.365
-0.36
-0.355
-0.35
-0.345
-0.325
-0.305
-0.295
-0.295
-0.28
-0.26
-0.25
-0.225
-0.205
-0.195
-0.205
-0.18
-0.16
-0.135
-0.13
-0.115
-0.105
-0.11
-0.075
-0.05
-0.03
-0.025
-0.015
-0.02
0.005
0.03
0.035
0.04
0.045
0.055
0.06
0.085
0.09
0.075
0.07
0.065
0.075
0.095
0.095
0.09
0.08
0.07
0.08
0.08
0.09
0.075
0.065
0.075
0.065
0.065
0.065
0.055
0.045
0.03
0.04
0.04
0.035
0.035
0.01
0.015
0.015
0.015
0.025
0.02
0.005
0.005
0.025
0.035
0.045
0.04
0.035
0.03
0.035
0.04
0.035
0.045
0.045
0.045
0.055
0.07
0.075
0.075
0.065
0.055
0.07
0.08
0.075
0.065
0.065
0.06
0.065
0.075
0.085
0.085
0.065
0.065
0.07
0.085
0.06
0.035
0.005
-0.03
-0.045
-0.05
-0.08
-0.11
-0.125
-0.145
-0.16
-0.17
-0.155
-0.165
-0.185
-0.185
-0.165
-0.155
-0.16
-0.165
-0.18
-0.175
-0.165
-0.175
-0.16
-0.165
-0.18
-0.175
-0.165
-0.155
-0.145
-0.15
-0.15
-0.15
-0.135
-0.12
-0.125
-0.155
-0.14
-0.14
-0.14
-0.115
-0.105
-0.13
-0.13
-0.13
-0.125
-0.12
-0.125
-0.125
-0.125
-0.135
-0.12
-0.105
-0.11
-0.115
-0.115
-0.13
-0.14
-0.145
-0.165
-0.195
-0.195
-0.18
-0.095
0.03
0.16
0.3
0.395
0.495
0.595
0.69
0.81
0.95
1.075
1.205
1.345
1.45
1.525
1.545
1.535
1.53
1.515
1.45
1.315
1.13
0.945
0.795
0.675
0.54
0.395
0.2
-0.02
-0.2
-0.345
-0.475
-0.59
-0.685
-0.745
-0.77
-0.775
-0.785
-0.745
-0.745
-0.745
-0.735
-0.695
-0.645
-0.605
-0.57
-0.56
-0.545
-0.52
-0.495
-0.47
-0.445
-0.43
-0.42
-0.405
-0.39
-0.375
-0.375
-0.385
-0.39
-0.39
-0.375
-0.385
-0.39
-0.4
-0.41
-0.405
-0.395
-0.4
-0.41
-0.425
-0.43
-0.435
-0.43
-0.42
-0.435
-0.44
-0.455
-0.445
-0.435
-0.43
-0.44
-0.445
-0.465
-0.44
-0.435
-0.44
-0.44
-0.445
-0.45
-0.445
-0.43
-0.425
-0.425
-0.44
-0.445
-0.425
-0.41
-0.395
-0.375
-0.39
-0.385
-0.365
-0.34
-0.335
-0.33
-0.315
-0.3
-0.29
-0.28
-0.255
-0.23
-0.235
-0.225
-0.195
-0.175
-0.14
-0.14
-0.125
-0.12
-0.1
-0.09
-0.075
-0.065
-0.055
-0.045
-0.05
-0.03
-0.01
-0.005
0.005
-0.005
0.02
0.035
0.05
0.05
0.05
0.035
0.05
0.065
0.065
0.08
0.06
0.05
0.055
0.075
0.075
0.075
0.065
0.04
0.055
0.065
0.065
0.055
0.045
0.025
0.04
0.04
0.04
0.03
0.01
0.005
-0.01
0.0
0.005
-0.005
-0.015
-0.035
-0.02
0.005
0.01
0.01
0.005
0.0
0.005
0.03
0.015
0.005
0.01
0.02
0.035
0.05
0.065
0.065
0.065
0.055
0.055
0.07
0.07
0.065
0.05
0.035
0.035
0.05
0.065
0.06
0.05
0.04
0.065
0.07
0.07
0.065
0.035
0.0
-0.015
-0.04
-0.065
-0.08
-0.105
-0.145
-0.145
-0.16
-0.165
-0.17
-0.18
-0.2
-0.2
-0.19
-0.18
-0.19
-0.2
-0.2
-0.18
-0.175
-0.175
-0.18
-0.19
-0.195
-0.18
-0.17
-0.17
-0.17
-0.17
-0.17
-0.165
-0.16
-0.145
-0.15
-0.155
-0.17
-0.165
-0.145
-0.15
-0.16
-0.165
-0.175
-0.16
-0.145
-0.14
-0.15
-0.165
-0.16
-0.145
-0.145
-0.135
-0.135
-0.135
-0.14
-0.13
-0.125
-0.12
-0.13
-0.135
-0.155
-0.155
-0.17
-0.18
-0.185
-0.175
-0.165
-0.085
0.045
0.175
0.315
0.42
0.52
0.615
0.72
0.86
1.005
1.14
1.28
1.425
1.505
1.555
1.55
1.54
1.51
1.455
1.31
1.14
0.955
0.8
0.65
0.525
0.35
0.165
-0.05
-0.225
-0.365
-0.485
-0.59
-0.675
-0.73
-0.76
-0.78
-0.785
-0.775
-0.765
-0.76
-0.745
-0.755
-0.71
-0.67
-0.625
-0.595
-0.565
-0.57
-0.54
-0.505
-0.475
-0.465
-0.44
-0.425
-0.41
-0.395
-0.38
-0.38
-0.385
-0.4
-0.395
-0.39
-0.39
-0.4
-0.405
-0.42
-0.41
-0.4
-0.405
-0.405
-0.42
-0.425
-0.425
-0.42
-0.415
-0.435
-0.445
-0.45
-0.455
-0.445
-0.455
-0.45
-0.46
-0.47
-0.46
-0.45
-0.445
-0.445
-0.445
-0.46
-0.46
-0.44
-0.43
-0.43
-0.43
-0.43
-0.405
-0.385
-0.375
-0.37
-0.365
-0.355
-0.34
-0.31
-0.29
-0.285
-0.28
-0.255
-0.24
-0.225
-0.2
-0.195
-0.185
-0.18
-0.17
-0.15
-0.13
-0.12
-0.11
-0.11
-0.085
-0.07
-0.05
-0.04
-0.04
-0.015
-0.015
0.0
0.0
0.015
0.015
0.025
0.035
0.035
0.045
0.03
0.035
0.035
0.045
0.05
0.055
0.045
0.055
0.05
0.05
0.05
0.05
0.04
0.035
0.015
0.01
0.01
-0.01
-0.005
-0.02
-0.03
-0.025
-0.025
-0.02
-0.02
-0.04
-0.04
-0.04
-0.015
-0.015
-0.025
-0.02
-0.025
-0.015
-0.005
0.0
-0.01
-0.015
-0.02
0.005
0.015
0.04
0.04
0.045
0.05
0.055
0.06
0.06
0.06
0.045
0.025
0.02
0.035
0.035
0.01
0.025
0.02
0.035
0.045
0.04
0.03
0.01
-0.015
-0.03
-0.06
-0.075
-0.095
-0.12
-0.155
-0.165
-0.17
-0.195
-0.205
-0.21
-0.205
-0.205
-0.2
-0.2
-0.2
-0.205
-0.21
-0.195
-0.2
-0.18
-0.195
-0.2
-0.2
-0.195
-0.18
-0.185
-0.185
-0.195
-0.19
-0.195
-0.175
-0.175
-0.18
-0.185
-0.19
-0.18
-0.18
-0.175
-0.18
-0.18
-0.18
-0.175
-0.17
-0.155
-0.165
-0.175
-0.17
-0.165
-0.155
-0.15
-0.155
-0.145
-0.16
-0.135
-0.135
-0.13
-0.13
-0.145
-0.165
-0.16
-0.18
-0.18
-0.205
-0.215
-0.205
-0.11
0.015
0.165
0.3
0.405
0.475
0.58
0.695
0.84
0.995
1.13
1.26
1.405
1.5
1.54
1.555
1.535
1.51
1.46
1.34
1.165
0.975
0.815
0.66
0.52
0.355
0.15
-0.055
-0.25
-0.38
-0.505
-0.61
-0.71
-0.765
-0.805
-0.805
-0.805
-0.785
-0.78
-0.785
-0.78
-0.765
-0.715
-0.67
-0.63
-0.6
-0.58
-0.57
-0.545
-0.51
-0.48
-0.47
-0.46
-0.455
-0.425
-0.405
-0.395
-0.4
-0.405
-0.415
-0.395
-0.39
-0.4
-0.39
-0.41
-0.415
-0.42
-0.42
-0.41
-0.43
-0.435
-0.445
-0.445
-0.43
-0.445
-0.45
-0.455
-0.465
-0.46
-0.46
-0.455
-0.465
-0.475
-0.475
-0.47
-0.46
-0.455
-0.465
-0.46
-0.465
-0.455
-0.445
-0.435
-0.425
-0.425
-0.415
-0.405
-0.39
-0.385
-0.375
-0.375
-0.385
-0.35
-0.34
-0.32
-0.32
-0.305
-0.305
-0.295
-0.26
-0.25
-0.23
-0.235
-0.23
-0.21
-0.18
-0.165
-0.145
-0.145
-0.14
-0.11
-0.095
-0.075
-0.065
-0.055
-0.055
-0.03
-0.015
0.0
0.015
0.01
0.015
0.035
0.055
0.06
0.065
0.07
0.055
0.075
0.085
0.09
0.08
0.06
0.045
0.055
0.065
0.06
0.055
0.045
0.02
0.03
0.04
0.04
0.03
0.02
0.005
0.0
0.005
0.01
0.005
-0.01
-0.03
-0.02
-0.02
-0.015
-0.005
-0.005
-0.01
0.02
0.03
0.03
0.03
0.025
0.01
0.01
0.02
0.035
0.045
0.045
0.035
0.055
0.065
0.065
0.065
0.065
0.055
0.045
0.055
0.045
0.045
0.02
0.025
0.05
0.055
0.05
0.06
0.055
0.035
0.035
0.035
0.015
-0.005
-0.05
-0.08
-0.09
-0.1
-0.115
-0.125
-0.15
-0.175
-0.17
-0.18
-0.165
-0.175
-0.18
-0.195
-0.19
-0.19
-0.18
-0.185
-0.18
-0.205
-0.19
-0.19
-0.19
-0.18
-0.185
-0.185
-0.175
-0.17
-0.165
-0.175
-0.175
-0.18
-0.17
-0.165
-0.165
-0.17
-0.185
-0.185
-0.17
-0.15
-0.14
-0.155
-0.145
-0.16
-0.145
-0.14
-0.135
-0.14
-0.15
-0.15
-0.135
-0.125
-0.115
-0.115
-0.14
-0.14
-0.14
-0.135
-0.135
-0.16
-0.175
-0.205
-0.205
-0.195
-0.19
-0.13
-0.04
0.095
0.245
0.395
0.515
0.605
0.67
0.78
0.94
1.075
1.215
1.335
1.46
1.54
1.59
1.62
1.61
1.58
1.515
1.37
1.165
0.99
0.83
0.67
0.5
0.315
0.11
-0.1
-0.27
-0.42
-0.56
-0.69
-0.78
-0.8
-0.805
-0.82
-0.815
-0.795
-0.79
-0.77
-0.745
-0.715
-0.68
-0.64
-0.6
-0.565
-0.54
-0.525
-0.505
-0.485
-0.455
-0.425
-0.4
-0.395
-0.41
-0.41
-0.415
-0.41
-0.405
-0.425
-0.43
-0.455
-0.45
-0.44
-0.425
-0.445
-0.455
-0.475
-0.47
-0.47
-0.465
-0.475
-0.485
-0.495
-0.49
-0.49
-0.485
-0.485
-0.495
-0.505
-0.5
-0.49
-0.47
-0.485
-0.49
-0.495
-0.475
-0.465
-0.475
-0.475
-0.465
-0.465
-0.445
-0.425
-0.415
-0.395
-0.4
-0.39
-0.38
-0.355
-0.335
-0.32
-0.325
-0.305
-0.285
-0.28
-0.255
-0.24
-0.23
-0.22
-0.195
-0.17
-0.155
-0.135
-0.13
-0.115
-0.085
-0.08
-0.06
-0.045
-0.05
-0.04
-0.03
-0.025
-0.01
-0.005
-0.02
-0.01
-0.015
0.005
0.015
0.015
0.005
0.0
0.01
0.015
0.02
0.01
0.0
-0.015
-0.015
-0.005
-0.015
-0.025
-0.025
-0.035
-0.035
-0.035
-0.035
-0.035
-0.04
-0.05
-0.055
-0.045
-0.06
-0.045
-0.06
-0.06
-0.055
-0.045
-0.03
-0.04
-0.05
-0.05
-0.045
-0.04
-0.045
-0.035
-0.035
-0.04
-0.035
-0.01
-0.005
-0.005
0.005
-0.005
0.0
0.01
0.0
-0.005
-0.01
-0.03
-0.025
-0.01
0.02
0.015
0.02
0.0
0.005
0.01
-0.005
-0.03
-0.065
-0.11
-0.135
-0.135
-0.145
-0.18
-0.195
-0.22
-0.235
-0.215
-0.22
-0.22
-0.24
-0.25
-0.245
-0.23
-0.225
-0.23
-0.245
-0.24
-0.235
-0.215
-0.22
-0.22
-0.23
-0.23
-0.23
-0.225
-0.205
-0.205
-0.21
-0.22
-0.205
-0.205
-0.2
-0.195
-0.215
-0.215
-0.205
-0.195
-0.19
-0.185
-0.195
-0.21
-0.205
-0.21
-0.19
-0.195
-0.19
-0.2
-0.195
-0.19
-0.165
-0.17
-0.18
-0.18
-0.17
-0.175
-0.17
-0.19
-0.21
-0.225
-0.225
-0.2
-0.175
-0.095
0.015
0.14
0.28
0.405
0.51
0.585
0.66
0.745
0.885
1.015
1.145
1.255
1.35
1.405
1.425
1.425
1.415
1.365
1.275
1.135
0.96
0.805
0.68
0.55
0.41
0.255
0.065
-0.11
-0.245
-0.4
-0.525
-0.645
-0.73
-0.775
-0.795
-0.8
-0.805
-0.81
-0.79
-0.77
-0.765
-0.75
-0.72
-0.69
-0.645
-0.615
-0.585
-0.58
-0.565
-0.54
-0.515
-0.485
-0.465
-0.45
-0.445
-0.455
-0.435
-0.44
-0.44
-0.44
-0.44
-0.455
-0.44
-0.43
-0.43
-0.435
-0.46
-0.465
-0.465
-0.465
-0.46
-0.46
-0.465
-0.485
-0.475
-0.475
-0.47
-0.48
-0.49
-0.5
-0.49
-0.49
-0.49
-0.5
-0.505
-0.51
-0.51
-0.505
-0.49
-0.49
-0.48
-0.48
-0.475
-0.46
-0.465
-0.45
-0.44
-0.435
-0.41
-0.4
-0.375
-0.365
-0.365
-0.36
-0.33
-0.3
-0.285
-0.28
-0.27
-0.255
-0.23
-0.205
-0.185
-0.18
-0.17
-0.16
-0.155
-0.145
-0.115
-0.11
-0.1
-0.095
-0.08
-0.06
-0.045
-0.045
-0.03
-0.035
-0.015
-0.005
0.0
0.005
0.005
0.005
0.01
0.025
0.02
0.015
0.01
0.005
0.01
0.015
0.025
0.025
0.01
-0.005
-0.015
-0.005
0.0
-0.005
-0.02
-0.045
-0.035
-0.045
-0.04
-0.05
-0.07
-0.08
-0.065
-0.06
-0.04
-0.04
-0.04
-0.04
-0.03
-0.02
-0.02
-0.015
-0.035
-0.03
-0.015
-0.005
0.005
0.01
0.025
0.03
0.035
0.045
0.05
0.055
0.045
0.03
0.025
0.025
0.04
0.035
0.03
0.03
0.02
0.04
0.035
0.025
0.01
-0.02
-0.035
-0.06
-0.07
-0.11
-0.13
-0.155
-0.18
-0.18
-0.195
-0.195
-0.195
-0.21
-0.205
-0.205
-0.195
-0.2
-0.2
-0.2
-0.205
-0.19
-0.18
-0.185
-0.2
-0.2
-0.185
-0.18
-0.17
-0.17
-0.17
-0.19
-0.19
-0.19
-0.175
-0.18
-0.19
-0.19
-0.18
-0.165
-0.17
-0.16
-0.175
-0.18
-0.175
-0.15
-0.15
-0.155
-0.17
-0.16
-0.16
-0.145
-0.14
-0.12
-0.14
-0.15
-0.14
-0.13
-0.125
-0.12
-0.14
-0.155
-0.16
-0.18
-0.18
-0.19
-0.21
-0.185
-0.105
0.01
0.145
0.255
0.36
0.445
0.53
0.63
0.755
0.88
1.005
1.135
1.255
1.355
1.405
1.425
1.42
1.405
1.375
1.33
1.19
1.02
0.86
0.72
0.605
0.485
0.35
0.165
-0.025
-0.22
-0.35
-0.46
-0.575
-0.655
-0.725
-0.77
-0.765
-0.77
-0.755
-0.755
-0.755
-0.755
-0.745
-0.71
-0.66
-0.625
-0.59
-0.59
-0.56
-0.535
-0.51
-0.49
-0.47
-0.455
-0.44
-0.41
-0.395
-0.39
-0.39
-0.41
-0.395
-0.385
-0.37
-0.38
-0.39
-0.4
-0.4
-0.405
-0.4
-0.42
-0.43
-0.435
-0.445
-0.44
-0.435
-0.44
-0.45
-0.465
-0.455
-0.445
-0.45
-0.465
-0.475
-0.48
-0.475
-0.44
-0.435
-0.445
-0.455
-0.465
-0.45
-0.435
-0.43
-0.43
-0.425
-0.435
-0.415
-0.385
-0.375
-0.37
-0.375
-0.36
-0.34
-0.315
-0.295
-0.295
-0.295
-0.285
-0.27
-0.25
-0.23
-0.205
-0.2
-0.21
-0.18
-0.155
-0.14
-0.12
-0.11
-0.105
-0.07
-0.055
-0.045
-0.03
-0.025
-0.025
0.0
0.01
0.04
0.04
0.035
0.03
0.045
0.055
0.055
0.065
0.055
0.045
0.05
0.045
0.05
0.035
0.02
0.005
0.01
0.005
0.0
0.005
-0.005
-0.03
-0.025
-0.035
-0.04
-0.04
-0.055
-0.055
-0.06
-0.04
-0.03
-0.04
-0.02
-0.035
-0.02
-0.005
0.005
-0.005
-0.01
-0.02
0.0
0.005
0.03
0.035
0.03
0.015
0.02
0.03
0.035
0.035
0.005
-0.005
0.0
0.02
0.005
0.01
0.01
0.0
0.015
0.01
0.01
-0.005
-0.05
-0.095
-0.11
-0.13
-0.14
-0.16
-0.18
-0.195
-0.195
-0.195
-0.19
-0.195
-0.215
-0.22
-0.215
-0.21
-0.195
-0.21
-0.215
-0.225
-0.23
-0.21
-0.205
-0.215
-0.215
-0.22
-0.22
-0.2
-0.195
-0.19
-0.205
-0.215
-0.21
-0.205
-0.195
-0.2
-0.2
-0.205
-0.205
-0.19
-0.19
-0.18
-0.18
-0.19
-0.175
-0.165
-0.15
-0.155
-0.16
-0.165
-0.155
-0.15
-0.14
-0.155
-0.165
-0.175
-0.17
-0.195
-0.21
-0.215
-0.235
-0.215
-0.15
-0.025
0.11
0.23
0.33
0.42
0.495
0.58
0.715
0.86
0.995
1.12
1.27
1.39
1.45
1.48
1.465
1.435
1.415
1.315
1.16
0.975
0.79
0.645
0.52
0.37
0.2
-0.015
-0.2
-0.365
-0.49
-0.6
-0.69
-0.76
-0.81
-0.83
-0.825
-0.81
-0.79
-0.78
-0.775
-0.785
-0.755
-0.705
-0.665
-0.63
-0.62
-0.6
-0.57
-0.535
-0.505
-0.48
-0.46
-0.455
-0.435
-0.415
-0.425
-0.415
-0.415
-0.435
-0.43
-0.445
-0.435
-0.43
-0.445
-0.455
-0.46
-0.455
-0.46
-0.47
-0.475
-0.495
-0.49
-0.485
-0.485
-0.49
-0.5
-0.505
-0.505
-0.505
-0.5
-0.495
-0.51
-0.52
-0.505
-0.49
-0.485
-0.485
-0.475
-0.505
-0.48
-0.47
-0.46
-0.455
-0.46
-0.46
-0.46
-0.435
-0.41
-0.415
-0.41
-0.41
-0.395
-0.37
-0.36
-0.33
-0.335
-0.33
-0.305
-0.295
-0.265
-0.24
-0.235
-0.24
-0.215
-0.185
-0.16
-0.155
-0.145
-0.135
-0.12
-0.095
-0.09
-0.06
-0.075
-0.07
-0.035
-0.03
-0.01
-0.005
-0.01
-0.01
0.0
0.005
0.015
0.01
0.01
-0.005
0.0
0.015
0.01
0.005
0.0
-0.025
-0.03
-0.025
-0.025
-0.025
-0.04
-0.06
-0.055
-0.055
-0.05
-0.05
-0.065
-0.075
-0.08
-0.07
-0.055
-0.065
-0.08
-0.07
-0.055
-0.06
-0.035
-0.045
-0.045
-0.07
-0.07
-0.06
-0.05
-0.05
-0.04
-0.045
-0.03
-0.005
-0.005
-0.01
-0.01
-0.03
-0.015
-0.03
-0.03
-0.025
-0.025
-0.025
-0.015
-0.01
-0.005
-0.02
-0.02
-0.035
-0.06
-0.08
-0.1
-0.135
-0.165
-0.195
-0.205
-0.22
-0.23
-0.235
-0.245
-0.265
-0.275
-0.28
-0.255
-0.255
-0.27
-0.285
-0.265
-0.26
-0.26
-0.265
-0.265
-0.285
-0.265
-0.26
-0.24
-0.24
-0.24
-0.25
-0.24
-0.23
-0.225
-0.22
-0.23
-0.23
-0.225
-0.22
-0.205
-0.21
-0.225
-0.23
-0.22
-0.22
-0.22
-0.22
-0.21
-0.23
-0.22
-0.22
-0.21
-0.195
-0.205
-0.22
-0.225
-0.225
-0.225
-0.26
-0.275
-0.295
-0.28
-0.215
-0.08
0.05
0.185
0.32
0.44
0.54
0.645
0.78
0.92
1.05
1.19
1.325
1.435
1.5
1.5
1.495
1.48
1.435
1.33
1.14
0.94
0.765
0.615
0.465
0.31
0.09
-0.135
-0.335
-0.475
-0.595
-0.71
-0.8
-0.875
-0.885
-0.885
-0.865
-0.845
-0.84
-0.84
-0.83
-0.79
-0.74
-0.685
-0.66
-0.635
-0.625
-0.605
-0.585
-0.555
-0.53
-0.51
-0.51
-0.495
-0.475
-0.47
-0.465
-0.47
-0.485
-0.485
-0.475
-0.485
-0.48
-0.485
-0.5
-0.5
-0.5
-0.495
-0.495
-0.51
-0.525
-0.525
-0.515
-0.51
-0.52
-0.525
-0.545
-0.535
-0.525
-0.525
-0.53
-0.545
-0.55
-0.54
-0.535
-0.53
-0.54
-0.55
-0.56
-0.555
-0.535
-0.525
-0.525
-0.515
-0.54
-0.525
-0.5
-0.48
-0.47
-0.48
-0.465
-0.45
-0.42
-0.4
-0.405
-0.4
-0.37
-0.365
-0.33
-0.305
-0.285
-0.275
-0.275
-0.255
-0.24
-0.21
-0.205
-0.19
-0.18
-0.165
-0.145
-0.125
-0.115
-0.12
-0.125
-0.115
-0.095
-0.075
-0.07
-0.07
-0.065
-0.075
-0.05
-0.035
-0.03
-0.03
-0.035
-0.025
-0.02
-0.015
-0.02
-0.02
-0.04
-0.035
-0.04
-0.02
-0.025
-0.025
-0.045
-0.04
-0.035
-0.05
-0.06
-0.06
-0.075
-0.085
-0.09
-0.075
-0.09
-0.115
-0.125
-0.115
-0.115
-0.11
-0.105
-0.105
-0.105
-0.095
-0.08
-0.08
-0.08
-0.095
-0.12
-0.105
-0.07
-0.055
-0.05
-0.07
-0.055
-0.06
-0.05
-0.035
-0.02
-0.035
-0.045
-0.05
-0.045
-0.045
-0.04
-0.045
-0.05
-0.045
-0.025
-0.03
-0.03
-0.05
-0.08
-0.075
-0.11
-0.13
-0.145
-0.185
-0.21
-0.225
-0.245
-0.25
-0.265
-0.26
-0.29
-0.28
-0.275
-0.28
-0.28
-0.285
-0.285
-0.28
-0.27
-0.26
-0.26
-0.27
-0.28
-0.265
-0.25
-0.245
-0.255
-0.245
-0.265
-0.265
-0.26
-0.24
-0.24
-0.25
-0.275
-0.27
-0.26
-0.25
-0.25
-0.25
-0.265
-0.25
-0.245
-0.24
-0.235
-0.245
-0.25
-0.25
-0.235
-0.235
-0.225
-0.24
-0.235
-0.24
-0.225
-0.215
-0.22
-0.225
-0.23
-0.235
-0.235
-0.245
-0.25
-0.27
-0.28
-0.28
-0.24
-0.165
-0.05
0.075
0.2
0.33
0.435
0.515
0.6
0.71
0.845
0.98
1.115
1.255
1.385
1.465
1.485
1.5
1.485
1.475
1.38
1.23
1.035
0.865
0.71
0.585
0.455
0.29
0.1
-0.11
-0.27
-0.4
-0.535
-0.64
-0.755
-0.81
-0.84
-0.86
-0.86
-0.86
-0.865
-0.86
-0.845
-0.835
-0.825
-0.8
-0.785
-0.75
-0.7
-0.675
-0.645
-0.64
-0.63
-0.595
-0.57
-0.535
-0.515
-0.51
-0.505
-0.5
-0.48
-0.47
-0.475
-0.49
-0.495
-0.49
-0.495
-0.48
-0.475
-0.49
-0.5
-0.5
-0.485
-0.49
-0.5
-0.515
-0.52
-0.515
-0.505
-0.515
-0.53
-0.54
-0.545
-0.565
-0.55
-0.545
-0.54
-0.555
-0.575
-0.565
-0.565
-0.545
-0.555
-0.555
-0.565
-0.55
-0.545
-0.545
-0.545
-0.555
-0.54
-0.54
-0.52
-0.5
-0.495
-0.495
-0.495
-0.48
-0.455
-0.44
-0.435
-0.425
-0.43
-0.415
-0.38
-0.365
-0.35
-0.345
-0.35
-0.325
-0.32
-0.305
-0.285
-0.28
-0.28
-0.265
-0.24
-0.225
-0.215
-0.205
-0.205
-0.185
-0.17
-0.155
-0.135
-0.115
-0.125
-0.115
-0.09
-0.075
-0.075
-0.07
-0.075
-0.06
-0.055
-0.035
-0.04
-0.035
-0.03
-0.025
-0.025
-0.02
-0.01
-0.02
-0.025
-0.025
-0.025
-0.02
-0.02
-0.04
-0.06
-0.055
-0.05
-0.045
-0.06
-0.065
-0.09
-0.095
-0.09
-0.095
-0.095
-0.095
-0.125
-0.125
-0.11
-0.105
-0.105
-0.13
-0.13
-0.12
-0.1
-0.09
-0.095
-0.09
-0.095
-0.105
-0.08
-0.08
-0.08
-0.08
-0.09
-0.065
-0.05
-0.045
-0.045
-0.05
-0.03
-0.035
-0.02
-0.01
-0.03
-0.03
-0.065
-0.06
-0.06
-0.045
-0.025
-0.045
-0.04
-0.055
-0.035
-0.025
-0.035
-0.05
-0.08
-0.1
-0.12
-0.135
-0.16
-0.18
-0.21
-0.23
-0.23
-0.245
-0.24
-0.245
-0.26
-0.25
-0.245
-0.245
-0.24
-0.26
-0.26
-0.255
-0.24
-0.24
-0.245
-0.24
-0.265
-0.25
-0.245
-0.235
-0.235
-0.245
-0.245
-0.245
-0.24
-0.225
-0.235
-0.26
-0.255
-0.25
-0.225
-0.24
-0.225
-0.23
-0.24
-0.235
-0.225
-0.22
-0.22
-0.225
-0.23
-0.215
-0.205
-0.19
-0.185
-0.195
-0.205
-0.2
-0.195
-0.18
-0.18
-0.205
-0.23
-0.235
-0.255
-0.26
-0.27
-0.26
-0.23
-0.11
0.015
0.135
0.265
0.37
0.45
0.52
0.63
0.775
0.925
1.035
1.16
1.29
1.395
1.46
1.475
1.475
1.455
1.41
1.29
1.12
0.925
0.76
0.605
0.465
0.315
0.125
-0.085
-0.28
-0.445
-0.575
-0.695
-0.765
-0.83
-0.86
-0.875
-0.865
-0.85
-0.84
-0.84
-0.845
-0.84
-0.8
-0.745
-0.7
-0.665
-0.65
-0.64
-0.615
-0.585
-0.56
-0.53
-0.51
-0.51
-0.485
-0.46
-0.455
-0.445
-0.455
-0.455
-0.455
-0.445
-0.44
-0.44
-0.465
-0.485
-0.485
-0.48
-0.48
-0.49
-0.5
-0.515
-0.5
-0.5
-0.51
-0.495
-0.515
-0.54
-0.54
-0.525
-0.53
-0.52
-0.525
-0.55
-0.535
-0.525
-0.52
-0.525
-0.53
-0.54
-0.515
-0.52
-0.49
-0.495
-0.495
-0.495
-0.485
-0.475
-0.45
-0.445
-0.45
-0.46
-0.435
-0.42
-0.405
-0.4
-0.4
-0.41
-0.37
-0.345
-0.34
-0.325
-0.32
-0.315
-0.305
-0.285
-0.26
-0.255
-0.245
-0.23
-0.21
-0.195
-0.165
-0.16
-0.155
-0.155
-0.125
-0.115
-0.1
-0.105
-0.09
-0.08
-0.055
-0.04
-0.035
-0.025
-0.02
-0.025
-0.025
-0.015
-0.005
-0.005
-0.015
-0.025
-0.025
-0.01
-0.015
-0.015
-0.03
-0.04
-0.04
-0.025
-0.03
-0.035
-0.04
-0.055
-0.065
-0.06
-0.06
-0.06
-0.07
-0.09
-0.09
-0.08
-0.085
-0.08
-0.095
-0.095
-0.1
-0.09
-0.075
-0.07
-0.065
-0.085
-0.07
-0.055
-0.06
-0.055
-0.075
-0.075
-0.075
-0.045
-0.045
-0.03
-0.04
-0.04
-0.045
-0.04
-0.02
-0.02
-0.02
-0.045
-0.05
-0.06
-0.04
-0.04
-0.03
-0.05
-0.04
-0.015
-0.015
-0.02
-0.015
-0.04
-0.05
-0.055
-0.065
-0.09
-0.13
-0.165
-0.18
-0.19
-0.2
-0.225
-0.24
-0.26
-0.25
-0.26
-0.25
-0.265
-0.275
-0.285
-0.28
-0.27
-0.255
-0.255
-0.27
-0.275
-0.265
-0.255
-0.25
-0.245
-0.265
-0.265
-0.27
-0.25
-0.245
-0.235
-0.25
-0.255
-0.245
-0.235
-0.225
-0.22
-0.225
-0.235
-0.235
-0.22
-0.215
-0.21
-0.22
-0.225
-0.215
-0.225
-0.21
-0.22
-0.22
-0.235
-0.23
-0.215
-0.21
-0.205
-0.21
-0.23
-0.22
-0.24
-0.24
-0.27
-0.305
-0.305
-0.28
-0.23
-0.15
-0.025
0.09
0.2
0.32
0.44
0.535
0.625
0.75
0.885
1.03
1.18
1.325
1.425
1.475
1.49
1.485
1.475
1.425
1.29
1.105
0.9
0.75
0.605
0.45
0.29
0.075
-0.15
-0.33
-0.45
-0.555
-0.68
-0.785
-0.845
-0.88
-0.87
-0.875
-0.855
-0.855
-0.855
-0.85
-0.81
-0.78
-0.725
-0.7
-0.675
-0.645
-0.63
-0.59
-0.57
-0.545
-0.535
-0.525
-0.505
-0.485
-0.49
-0.485
-0.49
-0.505
-0.495
-0.485
-0.5
-0.51
-0.525
-0.52
-0.515
-0.505
-0.52
-0.525
-0.545
-0.54
-0.53
-0.535
-0.54
-0.55
-0.56
-0.56
-0.555
-0.545
-0.55
-0.54
-0.56
-0.56
-0.55
-0.55
-0.545
-0.545
-0.55
-0.55
-0.555
-0.545
-0.56
-0.55
-0.545
-0.535
-0.52
-0.495
-0.495
-0.485
-0.485
-0.48
-0.45
-0.43
-0.41
-0.41
-0.415
-0.395
-0.37
-0.335
-0.325
-0.315
-0.305
-0.3
-0.265
-0.245
-0.225
-0.21
-0.205
-0.195
-0.185
-0.17
-0.13
-0.125
-0.13
-0.12
-0.1
-0.09
-0.095
-0.08
-0.085
-0.075
-0.04
-0.045
-0.03
-0.04
-0.04
-0.045
-0.035
-0.025
-0.035
-0.045
-0.055
-0.055
-0.045
-0.045
-0.05
-0.05
-0.075
-0.065
-0.055
-0.05
-0.055
-0.08
-0.08
-0.09
-0.085
-0.085
-0.085
-0.095
-0.115
-0.12
-0.12
-0.125
-0.12
-0.13
-0.14
-0.125
-0.115
-0.105
-0.095
-0.11
-0.105
-0.1
-0.105
-0.095
-0.09
-0.08
-0.07
-0.06
-0.045
-0.04
-0.035
-0.045
-0.045
-0.045
-0.035
-0.035
-0.04
-0.04
-0.035
-0.045
-0.035
-0.025
-0.025
-0.025
-0.035
-0.05
-0.06
-0.07
-0.095
-0.135
-0.17
-0.195
-0.2
-0.2
-0.23
-0.25
-0.27
-0.285
-0.28
-0.265
-0.27
-0.28
-0.28
-0.275
-0.27
-0.26
-0.265
-0.28
-0.285
-0.29
-0.27
-0.26
-0.255
-0.25
-0.255
-0.255
-0.25
-0.245
-0.235
-0.25
-0.25
-0.255
-0.245
-0.24
-0.235
-0.245
-0.25
-0.27
-0.245
-0.245
-0.245
-0.25
-0.26
-0.25
-0.245
-0.235
-0.235
-0.235
-0.24
-0.225
-0.23
-0.215
-0.22
-0.225
-0.225
-0.235
-0.225
-0.21
-0.22
-0.235
-0.26
-0.275
-0.28
-0.265
-0.225
-0.155
-0.035
0.1
0.24
0.385
0.465
0.545
0.635
0.785
0.94
1.085
1.23
1.345
1.44
1.495
1.515
1.52
1.495
1.4
1.24
1.045
0.875
0.725
0.565
0.41
0.23
0.01
-0.18
-0.345
-0.485
-0.625
-0.74
-0.805
-0.84
-0.86
-0.88
-0.87
-0.86
-0.87
-0.85
-0.83
-0.81
-0.77
-0.735
-0.695
-0.655
-0.635
-0.625
-0.605
-0.585
-0.56
-0.53
-0.495
-0.5
-0.495
-0.49
-0.48
-0.475
-0.48
-0.485
-0.485
-0.5
-0.505
-0.5
-0.49
-0.5
-0.5
-0.515
-0.52
-0.505
-0.505
-0.505
-0.525
-0.54
-0.555
-0.555
-0.54
-0.545
-0.56
-0.575
-0.58
-0.565
-0.56
-0.555
-0.56
-0.58
-0.565
-0.56
-0.545
-0.545
-0.555
-0.56
-0.55
-0.54
-0.51
-0.51
-0.505
-0.51
-0.495
-0.475
-0.45
-0.45
-0.42
-0.42
-0.4
-0.38
-0.355
-0.365
-0.355
-0.345
-0.325
-0.295
-0.285
-0.28
-0.265
-0.26
-0.235
-0.235
-0.205
-0.195
-0.19
-0.19
-0.155
-0.14
-0.12
-0.11
-0.095
-0.09
-0.1
-0.075
-0.055
-0.045
-0.05
-0.055
-0.055
-0.045
-0.015
-0.01
-0.02
-0.03
-0.035
-0.025
-0.015
-0.02
-0.025
-0.04
-0.05
-0.05
-0.055
-0.055
-0.07
-0.085
-0.095
-0.095
-0.08
-0.095
-0.1
-0.11
-0.125
-0.13
-0.115
-0.105
-0.125
-0.135
-0.13
-0.115
-0.095
-0.105
-0.105
-0.1
-0.105
-0.095
-0.07
-0.065
-0.06
-0.05
-0.05
-0.035
-0.02
-0.025
-0.04
-0.035
-0.03
-0.03
-0.015
-0.04
-0.055
-0.07
-0.065
-0.045
-0.03
-0.025
-0.03
-0.045
-0.055
-0.05
-0.05
-0.07
-0.095
-0.145
-0.16
-0.175
-0.185
-0.21
-0.23
-0.25
-0.255
-0.26
-0.245
-0.26
-0.265
-0.275
-0.265
-0.255
-0.23
-0.245
-0.255
-0.26
-0.255
-0.26
-0.235
-0.255
-0.26
-0.26
-0.26
-0.255
-0.26
-0.255
-0.265
-0.275
-0.265
-0.25
-0.25
-0.245
-0.25
-0.255
-0.255
-0.245
-0.235
-0.235
-0.245
-0.245
-0.245
-0.245
-0.225
-0.22
-0.22
-0.23
-0.23
-0.21
-0.205
-0.21
-0.205
-0.21
-0.2
-0.2
-0.205
-0.215
-0.23
-0.255
-0.28
-0.285
-0.265
-0.22
-0.145
-0.025
0.11
0.255
0.385
0.495
0.575
0.675
0.815
0.975
1.115
1.255
1.375
1.455
1.495
1.53
1.525
1.485
1.405
1.215
1.005
0.825
0.685
0.52
0.345
0.14
-0.07
-0.255
-0.41
-0.545
-0.685
-0.78
-0.845
-0.865
-0.86
-0.85
-0.865
-0.84
-0.845
-0.825
-0.8
-0.755
-0.72
-0.68
-0.65
-0.625
-0.59
-0.57
-0.55
-0.52
-0.505
-0.475
-0.455
-0.455
-0.455
-0.47
-0.465
-0.46
-0.45
-0.475
-0.47
-0.49
-0.495
-0.485
-0.495
-0.495
-0.505
-0.52
-0.525
-0.52
-0.515
-0.525
-0.53
-0.54
-0.55
-0.545
-0.53
-0.53
-0.54
-0.55
-0.55
-0.535
-0.52
-0.525
-0.52
-0.535
-0.525
-0.52
-0.505
-0.495
-0.495
-0.49
-0.49
-0.47
-0.455
-0.435
-0.43
-0.43
-0.42
-0.395
-0.375
-0.365
-0.365
-0.345
-0.325
-0.31
-0.275
-0.275
-0.265
-0.25
-0.245
-0.22
-0.185
-0.18
-0.175
-0.16
-0.145
-0.115
-0.085
-0.08
-0.08
-0.075
-0.06
-0.045
-0.02
-0.02
-0.025
-0.03
-0.035
-0.025
-0.015
-0.015
-0.025
-0.04
-0.04
-0.035
-0.025
-0.03
-0.05
-0.06
-0.07
-0.065
-0.055
-0.065
-0.075
-0.085
-0.095
-0.095
-0.095
-0.105
-0.11
-0.11
-0.115
-0.12
-0.11
-0.095
-0.1
-0.1
-0.105
-0.09
-0.08
-0.07
-0.08
-0.1
-0.1
-0.09
-0.075
-0.07
-0.065
-0.065
-0.05
-0.05
-0.035
-0.035
-0.04
-0.045
-0.06
-0.055
-0.05
-0.05
-0.05
-0.055
-0.05
-0.035
-0.025
-0.03
-0.025
-0.055
-0.09
-0.105
-0.135
-0.155
-0.17
-0.2
-0.22
-0.235
-0.245
-0.245
-0.26
-0.275
-0.28
-0.27
-0.265
-0.27
-0.28
-0.285
-0.27
-0.265
-0.255
-0.265
-0.265
-0.275
-0.27
-0.26
-0.245
-0.25
-0.25
-0.26
-0.26
-0.255
-0.24
-0.23
-0.225
-0.245
-0.245
-0.23
-0.22
-0.22
-0.225
-0.235
-0.23
-0.22
-0.205
-0.21
-0.23
-0.235
-0.23
-0.23
-0.215
-0.22
-0.235
-0.24
-0.225
-0.215
-0.205
-0.215
-0.225
-0.245
-0.26
-0.27
-0.27
-0.28
-0.26
-0.205
-0.11
0.035
0.155
