Lead II
-0.01
-0.01
-0.02
-0.02
-0.01
-0.015
-0.02
-0.045
-0.085
-0.12
-0.15
-0.17
-0.185
-0.215
-0.245
-0.27
-0.26
-0.265
-0.26
-0.265
-0.29
-0.3
-0.295
-0.28
-0.28
-0.28
-0.29
-0.3
-0.28
-0.27
-0.27
-0.265
-0.285
-0.285
-0.275
-0.265
-0.265
-0.26
-0.285
-0.28
-0.26
-0.265
-0.27
-0.265
-0.27
-0.28
-0.275
-0.255
-0.25
-0.245
-0.26
-0.275
-0.26
-0.25
-0.245
-0.25
-0.265
-0.265
-0.255
-0.245
-0.24
-0.24
-0.24
-0.255
-0.245
-0.23
-0.23
-0.23
-0.255
-0.295
-0.315
-0.31
-0.305
-0.29
-0.24
-0.145
-0.005
0.13
0.255
0.345
0.395
0.455
0.56
0.705
0.86
0.995
1.11
1.215
1.295
1.36
1.395
1.39
1.36
1.32
1.26
1.145
0.99
0.84
0.72
0.61
0.485
0.36
0.245
0.095
-0.09
-0.255
-0.39
-0.485
-0.6
-0.71
-0.79
-0.86
-0.87
-0.875
-0.88
-0.865
-0.885
-0.89
-0.88
-0.86
-0.81
-0.775
-0.745
-0.725
-0.69
-0.66
-0.64
-0.63
-0.605
-0.595
-0.56
-0.545
-0.53
-0.515
-0.52
-0.52
-0.505
-0.5
-0.495
-0.5
-0.505
-0.515
-0.515
-0.505
-0.505
-0.515
-0.52
-0.53
-0.545
-0.525
-0.53
-0.54
-0.545
-0.56
-0.56
-0.56
-0.55
-0.57
-0.575
-0.58
-0.58
-0.575
-0.57
-0.575
-0.585
-0.605
-0.59
-0.585
-0.58
-0.575
-0.575
-0.595
-0.575
-0.57
-0.545
-0.53
-0.535
-0.545
-0.525
-0.51
-0.5
-0.48
-0.47
-0.465
-0.45
-0.445
-0.42
-0.4
-0.4
-0.395
-0.39
-0.37
-0.34
-0.325
-0.315
-0.305
-0.295
-0.265
-0.255
-0.24
-0.235
-0.22
-0.21
-0.18
-0.165
-0.15
-0.145
-0.135
-0.125
-0.105
-0.085
-0.085
-0.065
-0.08
-0.06
-0.05
-0.045
-0.03
-0.03
-0.04
-0.035
-0.035
-0.02
-0.025
-0.035
-0.045
-0.055
-0.05
-0.035
-0.045
-0.065
-0.075
-0.08
-0.075
-0.07
-0.075
-0.095
-0.105
-0.095
-0.09
-0.075
-0.07
-0.06
-0.065
-0.07
-0.065
-0.06
-0.07
-0.075
-0.085
-0.085
-0.075
-0.06
-0.08
-0.055
-0.055
-0.05
-0.025
-0.015
-0.025
-0.05
-0.05
-0.05
-0.05
-0.06
-0.065
-0.08
-0.09
-0.075
-0.065
-0.045
-0.05
-0.05
-0.065
-0.08
-0.08
-0.08
-0.13
-0.16
-0.19
-0.2
-0.215
-0.23
-0.24
-0.265
-0.285
-0.29
-0.29
-0.28
-0.28
-0.295
-0.31
-0.3
-0.285
-0.27
-0.28
-0.295
-0.31
-0.31
-0.29
-0.28
-0.285
-0.285
-0.295
-0.305
-0.295
-0.29
-0.285
-0.29
-0.29
-0.295
-0.285
-0.27
-0.27
-0.285
-0.275
-0.275
-0.265
-0.255
-0.25
-0.255
-0.265
-0.25
-0.25
-0.24
-0.24
-0.245
-0.25
-0.23
-0.23
-0.23
-0.24
-0.255
-0.27
-0.285
-0.29
-0.3
-0.32
-0.345
-0.35
-0.31
-0.21
-0.085
0.06
0.18
0.265
0.37
0.445
0.555
0.685
0.835
0.975
1.13
1.255
1.37
1.45
1.48
1.47
1.455
1.42
1.34
1.19
1.0
0.83
0.695
0.56
0.43
0.245
0.03
-0.175
-0.35
-0.495
-0.61
-0.735
-0.835
-0.895
-0.935
-0.935
-0.93
-0.935
-0.925
-0.93
-0.92
-0.925
-0.89
-0.855
-0.815
-0.775
-0.74
-0.715
-0.69
-0.675
-0.665
-0.645
-0.62
-0.585
-0.56
-0.555
-0.545
-0.54
-0.53
-0.515
-0.515
-0.525
-0.535
-0.555
-0.555
-0.545
-0.54
-0.545
-0.56
-0.575
-0.56
-0.58
-0.555
-0.57
-0.585
-0.595
-0.595
-0.585
-0.59
-0.59
-0.605
-0.615
-0.615
-0.6
-0.585
-0.6
-0.61
-0.615
-0.605
-0.6
-0.585
-0.6
-0.605
-0.605
-0.605
-0.59
-0.58
-0.575
-0.585
-0.595
-0.585
-0.57
-0.535
-0.54
-0.54
-0.53
-0.525
-0.495
-0.475
-0.465
-0.455
-0.45
-0.435
-0.405
-0.39
-0.38
-0.355
-0.36
-0.345
-0.3
-0.305
-0.28
-0.265
-0.265
-0.245
-0.225
-0.2
-0.185
-0.175
-0.165
-0.145
-0.13
-0.105
-0.105
-0.11
-0.105
-0.09
-0.085
-0.065
-0.065
-0.065
-0.08
-0.07
-0.06
-0.04
-0.035
-0.04
-0.04
-0.045
-0.04
-0.035
-0.045
-0.055
-0.065
-0.06
-0.065
-0.065
-0.07
-0.075
-0.08
-0.085
-0.08
-0.075
-0.085
-0.095
-0.11
-0.085
-0.07
-0.05
-0.05
-0.065
-0.08
-0.08
-0.075
-0.065
-0.085
-0.08
-0.09
-0.085
-0.08
-0.05
-0.035
-0.04
-0.05
-0.05
-0.06
-0.05
-0.045
-0.06
-0.08
-0.085
-0.065
-0.055
-0.065
-0.06
-0.055
-0.05
-0.045
-0.04
-0.07
-0.105
-0.15
-0.17
-0.19
-0.2
-0.22
-0.24
-0.27
-0.275
-0.28
-0.275
-0.28
-0.295
-0.31
-0.3
-0.305
-0.29
-0.29
-0.29
-0.3
-0.295
-0.285
-0.275
-0.28
-0.3
-0.3
-0.285
-0.28
-0.265
-0.27
-0.27
-0.275
-0.28
-0.27
-0.26
-0.26
-0.265
-0.27
-0.27
-0.265
-0.265
-0.255
-0.265
-0.28
-0.275
-0.265
-0.26
-0.26
-0.27
-0.265
-0.26
-0.25
-0.235
-0.245
-0.265
-0.285
-0.31
-0.32
-0.32
-0.32
-0.26
-0.165
-0.01
0.135
0.285
0.38
0.455
0.565
0.73
0.9
1.07
1.215
1.34
1.43
1.495
1.505
1.505
1.475
1.4
1.265
1.075
0.91
0.785
0.635
0.485
0.325
0.15
-0.04
-0.215
-0.38
-0.53
-0.645
-0.755
-0.835
-0.875
-0.91
-0.925
-0.945
-0.925
-0.91
-0.885
-0.89
-0.885
-0.87
-0.815
-0.765
-0.73
-0.7
-0.695
-0.695
-0.67
-0.635
-0.605
-0.585
-0.57
-0.56
-0.565
-0.54
-0.525
-0.53
-0.525
-0.545
-0.56
-0.545
-0.545
-0.545
-0.555
-0.555
-0.56
-0.545
-0.55
-0.545
-0.57
-0.59
-0.59
-0.595
-0.58
-0.58
-0.585
-0.595
-0.59
-0.595
-0.585
-0.6
-0.615
-0.625
-0.62
-0.62
-0.605
-0.605
-0.625
-0.63
-0.615
-0.61
-0.605
-0.605
-0.6
-0.605
-0.59
-0.585
-0.57
-0.565
-0.56
-0.565
-0.545
-0.53
-0.505
-0.495
-0.49
-0.485
-0.47
-0.445
-0.425
-0.41
-0.4
-0.4
-0.385
-0.365
-0.345
-0.315
-0.315
-0.315
-0.295
-0.265
-0.25
-0.24
-0.235
-0.225
-0.205
-0.2
-0.155
-0.15
-0.145
-0.145
-0.125
-0.105
-0.095
-0.08
-0.08
-0.08
-0.07
-0.055
-0.04
-0.055
-0.05
-0.055
-0.05
-0.045
-0.04
-0.045
-0.06
-0.085
-0.07
-0.07
-0.075
-0.08
-0.09
-0.12
-0.125
-0.12
-0.115
-0.135
-0.14
-0.15
-0.155
-0.14
-0.13
-0.13
-0.135
-0.14
-0.13
-0.125
-0.12
-0.135
-0.135
-0.15
-0.145
-0.14
-0.14
-0.13
-0.135
-0.13
-0.12
-0.11
-0.095
-0.085
-0.095
-0.105
-0.105
-0.105
-0.105
-0.12
-0.115
-0.125
-0.095
-0.095
-0.085
-0.075
-0.08
-0.095
-0.095
-0.11
-0.135
-0.16
-0.2
-0.24
-0.24
-0.255
-0.26
-0.285
-0.3
-0.31
-0.31
-0.3
-0.29
-0.315
-0.31
-0.325
-0.315
-0.31
-0.295
-0.3
-0.31
-0.325
-0.33
-0.295
-0.3
-0.305
-0.305
-0.315
-0.305
-0.3
-0.295
-0.305
-0.31
-0.315
-0.31
-0.3
-0.285
-0.285
-0.295
-0.305
-0.3
-0.285
-0.275
-0.27
-0.295
-0.295
-0.29
-0.27
-0.265
-0.25
-0.26
-0.265
-0.27
-0.26
-0.255
-0.265
-0.295
-0.32
-0.33
-0.32
-0.305
-0.28
-0.215
-0.095
0.055
0.215
0.345
0.46
0.535
0.605
0.73
0.88
1.01
1.17
1.295
1.4
1.495
1.54
1.545
1.53
1.48
1.4
1.24
1.055
0.875
0.705
0.54
0.375
0.21
0.025
-0.185
-0.385
-0.52
-0.655
-0.78
-0.885
-0.94
-0.975
-0.995
-1.015
-1.0
-0.98
-0.96
-0.965
-0.955
-0.93
-0.89
-0.84
-0.8
-0.765
-0.755
-0.755
-0.735
-0.685
-0.655
-0.645
-0.63
-0.63
-0.615
-0.595
-0.56
-0.575
-0.59
-0.595
-0.59
-0.585
-0.585
-0.595
-0.605
-0.615
-0.615
-0.615
-0.62
-0.625
-0.645
-0.65
-0.645
-0.64
-0.64
-0.635
-0.655
-0.67
-0.665
-0.665
-0.655
-0.655
-0.66
-0.665
-0.66
-0.655
-0.645
-0.645
-0.65
-0.65
-0.635
-0.635
-0.625
-0.625
-0.635
-0.64
-0.63
-0.595
-0.585
-0.595
-0.595
-0.595
-0.575
-0.545
-0.535
-0.52
-0.515
-0.51
-0.5
-0.465
-0.46
-0.43
-0.42
-0.42
-0.405
-0.375
-0.35
-0.34
-0.335
-0.32
-0.315
-0.29
-0.26
-0.25
-0.255
-0.24
-0.225
-0.21
-0.195
-0.185
-0.18
-0.175
-0.16
-0.14
-0.125
-0.125
-0.13
-0.135
-0.125
-0.115
-0.1
-0.1
-0.09
-0.115
-0.1
-0.11
-0.08
-0.095
-0.11
-0.125
-0.13
-0.125
-0.12
-0.125
-0.13
-0.15
-0.155
-0.15
-0.145
-0.15
-0.155
-0.165
-0.16
-0.155
-0.15
-0.145
-0.165
-0.17
-0.16
-0.15
-0.15
-0.155
-0.17
-0.195
-0.195
-0.19
-0.19
-0.175
-0.165
-0.155
-0.15
-0.13
-0.13
-0.135
-0.14
-0.14
-0.13
-0.13
-0.13
-0.135
-0.15
-0.135
-0.13
-0.1
-0.095
-0.09
-0.1
-0.13
-0.165
-0.185
-0.215
-0.23
-0.26
-0.3
-0.32
-0.315
-0.32
-0.325
-0.335
-0.355
-0.345
-0.33
-0.32
-0.325
-0.33
-0.34
-0.34
-0.335
-0.32
-0.33
-0.335
-0.34
-0.33
-0.335
-0.32
-0.31
-0.32
-0.33
-0.325
-0.31
-0.31
-0.315
-0.325
-0.33
-0.31
-0.315
-0.295
-0.295
-0.31
-0.335
-0.305
-0.305
-0.28
-0.285
-0.29
-0.305
-0.305
-0.275
-0.28
-0.275
-0.29
-0.305
-0.32
-0.32
-0.315
-0.315
-0.265
-0.165
-0.015
0.135
0.295
0.41
0.475
0.535
0.64
0.775
0.91
1.035
1.16
1.23
1.275
1.275
1.28
1.245
1.2
1.08
0.935
0.765
0.63
0.495
0.355
0.2
0.03
-0.155
-0.345
-0.495
-0.635
-0.745
-0.825
-0.865
-0.9
-0.9
-0.905
-0.905
-0.895
-0.88
-0.865
-0.86
-0.82
-0.79
-0.745
-0.725
-0.685
-0.675
-0.675
-0.66
-0.63
-0.595
-0.565
-0.555
-0.545
-0.55
-0.55
-0.525
-0.51
-0.525
-0.525
-0.54
-0.54
-0.54
-0.525
-0.53
-0.535
-0.55
-0.55
-0.545
-0.54
-0.545
-0.555
-0.565
-0.565
-0.56
-0.56
-0.565
-0.575
-0.585
-0.585
-0.58
-0.57
-0.575
-0.58
-0.605
-0.605
-0.585
-0.58
-0.57
-0.575
-0.585
-0.575
-0.555
-0.545
-0.555
-0.555
-0.55
-0.535
-0.515
-0.495
-0.5
-0.485
-0.49
-0.47
-0.44
-0.43
-0.42
-0.41
-0.405
-0.405
-0.375
-0.355
-0.345
-0.34
-0.345
-0.31
-0.295
-0.265
-0.25
-0.25
-0.255
-0.23
-0.2
-0.185
-0.18
-0.17
-0.16
-0.135
-0.125
-0.095
-0.105
-0.105
-0.1
-0.085
-0.065
-0.05
-0.05
-0.045
-0.045
-0.035
-0.03
-0.015
-0.02
-0.04
-0.035
-0.045
-0.04
-0.04
-0.045
-0.05
-0.05
-0.065
-0.065
-0.065
-0.065
-0.09
-0.1
-0.085
-0.095
-0.08
-0.075
-0.09
-0.1
-0.08
-0.065
-0.065
-0.06
-0.06
-0.07
-0.07
-0.075
-0.075
-0.075
-0.09
-0.09
-0.08
-0.045
-0.025
-0.015
-0.025
-0.03
-0.035
-0.035
-0.035
-0.035
-0.045
-0.065
-0.07
-0.06
-0.065
-0.06
-0.045
-0.055
-0.04
-0.04
-0.055
-0.055
-0.085
-0.13
-0.17
-0.175
-0.185
-0.205
-0.235
-0.255
-0.26
-0.25
-0.255
-0.26
-0.265
-0.27
-0.275
-0.265
-0.25
-0.25
-0.27
-0.275
-0.275
-0.26
-0.255
-0.26
-0.265
-0.27
-0.28
-0.26
-0.25
-0.25
-0.26
-0.265
-0.255
-0.245
-0.23
-0.235
-0.25
-0.25
-0.255
-0.245
-0.23
-0.22
-0.23
-0.245
-0.24
-0.225
-0.21
-0.21
-0.225
-0.225
-0.225
-0.21
-0.205
-0.22
-0.23
-0.26
-0.27
-0.29
-0.285
-0.29
-0.255
-0.18
-0.04
0.115
0.26
0.37
0.45
0.515
0.67
0.845
1.005
1.145
1.265
1.355
1.41
1.44
1.43
1.41
1.36
1.225
1.045
0.895
0.76
0.64
0.495
0.335
0.185
0.005
-0.19
-0.34
-0.48
-0.625
-0.705
-0.78
-0.815
-0.85
-0.86
-0.85
-0.84
-0.825
-0.825
-0.81
-0.805
-0.76
-0.72
-0.675
-0.645
-0.62
-0.62
-0.605
-0.58
-0.54
-0.535
-0.495
-0.49
-0.51
-0.48
-0.47
-0.455
-0.455
-0.475
-0.495
-0.495
-0.485
-0.495
-0.485
-0.5
-0.52
-0.515
-0.51
-0.505
-0.5
-0.52
-0.535
-0.53
-0.53
-0.535
-0.535
-0.555
-0.56
-0.56
-0.555
-0.535
-0.535
-0.535
-0.555
-0.55
-0.535
-0.54
-0.545
-0.54
-0.545
-0.535
-0.52
-0.505
-0.525
-0.515
-0.515
-0.51
-0.485
-0.475
-0.46
-0.45
-0.455
-0.435
-0.41
-0.38
-0.38
-0.365
-0.365
-0.34
-0.32
-0.3
-0.29
-0.28
-0.275
-0.26
-0.245
-0.2
-0.2
-0.19
-0.19
-0.155
-0.15
-0.125
-0.105
-0.095
-0.105
-0.085
-0.065
-0.055
-0.045
-0.04
-0.045
-0.035
-0.03
-0.01
0.0
-0.02
-0.025
-0.01
-0.005
0.005
0.005
-0.005
-0.02
-0.005
-0.01
-0.02
-0.01
-0.03
-0.05
-0.045
-0.035
-0.03
-0.04
-0.05
-0.075
-0.075
-0.06
-0.06
-0.07
-0.07
-0.08
-0.07
-0.06
-0.055
-0.05
-0.06
-0.065
-0.07
-0.055
-0.06
-0.075
-0.08
-0.095
-0.09
-0.075
-0.045
-0.03
-0.035
-0.04
-0.05
-0.035
-0.025
-0.04
-0.04
-0.065
-0.055
-0.04
-0.04
-0.035
-0.04
-0.035
-0.025
-0.015
-0.02
-0.035
-0.065
-0.1
-0.13
-0.15
-0.165
-0.175
-0.205
-0.235
-0.25
-0.245
-0.25
-0.255
-0.265
-0.27
-0.27
-0.25
-0.25
-0.255
-0.255
-0.28
-0.275
-0.26
-0.25
-0.255
-0.255
-0.265
-0.255
-0.26
-0.24
-0.235
-0.25
-0.26
-0.255
-0.25
-0.24
-0.25
-0.24
-0.265
-0.255
-0.25
-0.235
-0.235
-0.235
-0.255
-0.24
-0.225
-0.225
-0.225
-0.23
-0.24
-0.23
-0.22
-0.215
-0.225
-0.23
-0.265
-0.275
-0.29
-0.285
-0.26
-0.185
-0.045
0.11
0.255
0.375
0.445
0.535
0.675
0.855
1.01
1.165
1.3
1.415
1.465
1.495
1.495
1.47
1.385
1.215
1.0
0.825
0.68
0.54
0.385
0.175
-0.05
-0.255
-0.405
-0.545
-0.665
-0.775
-0.845
-0.875
-0.87
-0.86
-0.85
-0.85
-0.86
-0.845
-0.81
-0.745
-0.705
-0.68
-0.665
-0.64
-0.615
-0.575
-0.56
-0.535
-0.525
-0.51
-0.495
-0.485
-0.465
-0.485
-0.5
-0.495
-0.485
-0.48
-0.49
-0.49
-0.505
-0.505
-0.505
-0.5
-0.505
-0.525
-0.54
-0.53
-0.535
-0.53
-0.53
-0.545
-0.57
-0.565
-0.565
-0.565
-0.555
-0.565
-0.58
-0.58
-0.58
-0.56
-0.56
-0.565
-0.56
-0.555
-0.535
-0.535
-0.535
-0.525
-0.52
-0.51
-0.485
-0.475
-0.465
-0.46
-0.46
-0.445
-0.42
-0.4
-0.39
-0.375
-0.375
-0.36
-0.33
-0.315
-0.295
-0.29
-0.285
-0.265
-0.245
-0.21
-0.205
-0.19
-0.18
-0.17
-0.145
-0.12
-0.115
-0.1
-0.1
-0.08
-0.07
-0.05
-0.045
-0.04
-0.04
-0.035
-0.015
-0.01
-0.02
-0.005
-0.015
-0.02
-0.005
-0.005
-0.015
-0.035
-0.045
-0.04
-0.04
-0.035
-0.065
-0.06
-0.07
-0.085
-0.07
-0.07
-0.085
-0.09
-0.11
-0.095
-0.11
-0.095
-0.1
-0.1
-0.105
-0.095
-0.075
-0.07
-0.07
-0.085
-0.085
-0.09
-0.08
-0.07
-0.085
-0.095
-0.11
-0.09
-0.07
-0.05
-0.045
-0.05
-0.07
-0.06
-0.055
-0.045
-0.05
-0.07
-0.08
-0.07
-0.055
-0.055
-0.04
-0.035
-0.05
-0.035
-0.045
-0.06
-0.08
-0.125
-0.15
-0.17
-0.17
-0.185
-0.2
-0.24
-0.26
-0.25
-0.26
-0.255
-0.255
-0.27
-0.285
-0.275
-0.275
-0.27
-0.265
-0.28
-0.285
-0.265
-0.26
-0.26
-0.255
-0.265
-0.275
-0.26
-0.255
-0.24
-0.255
-0.26
-0.26
-0.26
-0.235
-0.23
-0.24
-0.255
-0.255
-0.265
-0.24
-0.235
-0.24
-0.255
-0.25
-0.245
-0.24
-0.22
-0.22
-0.23
-0.23
-0.235
-0.225
-0.22
-0.24
-0.235
-0.27
-0.3
-0.3
-0.305
-0.28
-0.225
-0.11
0.035
0.185
0.31
0.41
0.47
0.59
0.755
0.94
1.1
1.265
1.395
1.5
1.555
1.575
1.56
1.495
1.35
1.145
0.93
0.755
0.585
0.395
0.185
-0.045
-0.26
-0.425
-0.565
-0.705
-0.81
-0.895
-0.925
-0.925
-0.92
-0.905
-0.895
-0.9
-0.885
-0.85
-0.8
-0.76
-0.72
-0.715
-0.685
-0.655
-0.635
-0.615
-0.605
-0.59
-0.56
-0.56
-0.53
-0.535
-0.525
-0.525
-0.525
-0.52
-0.53
-0.535
-0.54
-0.56
-0.565
-0.555
-0.54
-0.55
-0.56
-0.58
-0.57
-0.59
-0.575
-0.58
-0.585
-0.605
-0.6
-0.585
-0.585
-0.59
-0.6
-0.61
-0.6
-0.615
-0.62
-0.605
-0.605
-0.61
-0.595
-0.59
-0.575
-0.595
-0.585
-0.57
-0.565
-0.545
-0.52
-0.515
-0.5
-0.505
-0.495
-0.47
-0.435
-0.43
-0.42
-0.42
-0.39
-0.36
-0.335
-0.335
-0.325
-0.32
-0.295
-0.27
-0.255
-0.25
-0.24
-0.24
-0.205
-0.185
-0.165
-0.155
-0.16
-0.14
-0.13
-0.11
-0.095
-0.085
-0.095
-0.095
-0.075
-0.065
-0.06
-0.055
-0.065
-0.065
-0.07
-0.055
-0.055
-0.055
-0.06
-0.075
-0.075
-0.07
-0.085
-0.085
-0.115
-0.125
-0.12
-0.125
-0.11
-0.125
-0.145
-0.16
-0.165
-0.155
-0.145
-0.15
-0.16
-0.15
-0.15
-0.145
-0.145
-0.14
-0.14
-0.15
-0.155
-0.16
-0.165
-0.165
-0.16
-0.165
-0.15
-0.125
-0.1
-0.095
-0.1
-0.12
-0.125
-0.11
-0.095
-0.095
-0.11
-0.13
-0.115
-0.1
-0.095
-0.085
-0.085
-0.085
-0.08
-0.08
-0.1
-0.12
-0.155
-0.2
-0.215
-0.225
-0.25
-0.275
-0.29
-0.315
-0.305
-0.29
-0.285
-0.285
-0.3
-0.31
-0.3
-0.285
-0.275
-0.285
-0.29
-0.3
-0.29
-0.285
-0.29
-0.285
-0.29
-0.305
-0.295
-0.3
-0.295
-0.29
-0.29
-0.31
-0.29
-0.285
-0.265
-0.275
-0.285
-0.295
-0.285
-0.26
-0.26
-0.27
-0.275
-0.285
-0.27
-0.26
-0.245
-0.255
-0.265
-0.265
-0.25
-0.245
-0.235
-0.235
-0.245
-0.265
-0.275
-0.29
-0.295
-0.305
-0.295
-0.255
-0.13
0.035
0.19
0.33
0.455
0.525
0.615
0.715
0.85
0.975
1.1
1.215
1.335
1.43
1.47
1.47
1.445
1.41
1.34
1.225
1.06
0.87
0.7
0.555
0.415
0.28
0.12
-0.08
-0.275
-0.43
-0.56
-0.67
-0.785
-0.86
-0.915
-0.935
-0.945
-0.92
-0.895
-0.895
-0.895
-0.9
-0.86
-0.815
-0.765
-0.73
-0.72
-0.71
-0.685
-0.67
-0.635
-0.615
-0.59
-0.595
-0.57
-0.545
-0.525
-0.52
-0.515
-0.53
-0.545
-0.53
-0.515
-0.525
-0.545
-0.56
-0.555
-0.55
-0.55
-0.55
-0.56
-0.59
-0.59
-0.585
-0.58
-0.58
-0.585
-0.595
-0.6
-0.6
-0.6
-0.6
-0.605
-0.615
-0.61
-0.615
-0.6
-0.605
-0.615
-0.615
-0.6
-0.595
-0.585
-0.58
-0.59
-0.6
-0.585
-0.57
-0.555
-0.56
-0.56
-0.56
-0.545
-0.525
-0.525
-0.505
-0.5
-0.5
-0.475
-0.47
-0.44
-0.43
-0.43
-0.42
-0.395
-0.37
-0.35
-0.345
-0.34
-0.335
-0.305
-0.29
-0.28
-0.26
-0.255
-0.245
-0.23
-0.2
-0.185
-0.17
-0.16
-0.17
-0.145
-0.13
-0.1
-0.105
-0.11
-0.11
-0.095
-0.095
-0.075
-0.08
-0.08
-0.09
-0.09
-0.075
-0.08
-0.08
-0.095
-0.11
-0.105
-0.11
-0.095
-0.11
-0.115
-0.135
-0.125
-0.115
-0.12
-0.12
-0.125
-0.14
-0.145
-0.135
-0.135
-0.135
-0.135
-0.15
-0.14
-0.135
-0.12
-0.14
-0.145
-0.15
-0.145
-0.14
-0.13
-0.135
-0.15
-0.155
-0.175
-0.155
-0.15
-0.15
-0.15
-0.155
-0.155
-0.11
-0.115
-0.115
-0.125
-0.14
-0.13
-0.125
-0.1
-0.11
-0.115
-0.12
-0.11
-0.095
-0.095
-0.09
-0.09
-0.085
-0.08
-0.075
-0.08
-0.11
-0.135
-0.175
-0.185
-0.195
-0.21
-0.24
-0.255
-0.29
-0.3
-0.285
-0.27
-0.285
-0.3
-0.305
-0.3
-0.285
-0.29
-0.29
-0.295
-0.3
-0.29
-0.28
-0.28
-0.27
-0.285
-0.285
-0.28
-0.265
-0.265
-0.265
-0.265
-0.28
-0.27
-0.255
-0.245
-0.265
-0.255
-0.265
-0.27
-0.27
-0.26
-0.26
-0.26
-0.265
-0.25
-0.245
-0.225
-0.235
-0.245
-0.265
-0.25
-0.23
-0.23
-0.23
-0.24
-0.245
-0.235
-0.225
-0.22
-0.225
-0.245
-0.265
-0.27
-0.28
-0.29
-0.29
-0.285
-0.245
-0.145
-0.01
0.125
0.235
0.345
0.405
0.49
0.595
0.725
0.85
0.965
1.06
1.16
1.24
1.3
1.335
1.325
1.305
1.3
1.265
1.195
1.055
0.885
0.745
0.635
0.54
0.44
0.295
0.115
-0.08
-0.23
-0.355
-0.48
-0.585
-0.69
-0.775
-0.81
-0.825
-0.835
-0.84
-0.85
-0.84
-0.83
-0.825
-0.805
-0.78
-0.745
-0.72
-0.68
-0.65
-0.625
-0.62
-0.615
-0.6
-0.575
-0.54
-0.515
-0.51
-0.505
-0.515
-0.49
-0.485
-0.48
-0.48
-0.48
-0.505
-0.5
-0.495
-0.485
-0.49
-0.5
-0.51
-0.51
-0.505
-0.495
-0.505
-0.515
-0.535
-0.52
-0.52
-0.52
-0.53
-0.535
-0.555
-0.55
-0.54
-0.535
-0.54
-0.555
-0.565
-0.57
-0.565
-0.55
-0.565
-0.56
-0.56
-0.56
-0.535
-0.525
-0.525
-0.52
-0.52
-0.51
-0.5
-0.475
-0.47
-0.465
-0.46
-0.445
-0.42
-0.4
-0.395
-0.39
-0.385
-0.37
-0.34
-0.33
-0.33
-0.31
-0.305
-0.29
-0.265
-0.245
-0.245
-0.225
-0.215
-0.195
-0.165
-0.145
-0.145
-0.14
-0.13
-0.11
-0.09
-0.08
-0.07
-0.075
-0.065
-0.06
-0.045
-0.04
-0.035
-0.03
-0.035
-0.025
-0.02
-0.01
-0.015
-0.03
-0.04
-0.03
-0.03
-0.04
-0.045
-0.05
-0.075
-0.08
-0.07
-0.075
-0.07
-0.09
-0.105
-0.105
-0.105
-0.11
-0.12
-0.125
-0.135
-0.13
-0.125
-0.11
-0.1
-0.105
-0.11
-0.09
-0.09
-0.075
-0.07
-0.08
-0.095
-0.09
-0.085
-0.09
-0.09
-0.095
-0.09
-0.06
-0.05
-0.035
-0.03
-0.055
-0.075
-0.065
-0.045
-0.05
-0.06
-0.07
-0.065
-0.065
-0.06
-0.045
-0.04
-0.03
-0.05
-0.04
-0.04
-0.055
-0.075
-0.115
-0.155
-0.16
-0.17
-0.175
-0.2
-0.235
-0.26
-0.265
-0.245
-0.24
-0.245
-0.265
-0.275
-0.27
-0.265
-0.245
-0.245
-0.26
-0.27
-0.265
-0.26
-0.25
-0.25
-0.245
-0.265
-0.26
-0.25
-0.25
-0.24
-0.235
-0.245
-0.245
-0.24
-0.235
-0.245
-0.24
-0.255
-0.24
-0.22
-0.225
-0.225
-0.235
-0.24
-0.23
-0.225
-0.21
-0.21
-0.21
-0.24
-0.22
-0.21
-0.2
-0.205
-0.225
-0.225
-0.22
-0.215
-0.225
-0.24
-0.265
-0.3
-0.31
-0.3
-0.24
-0.165
-0.065
0.06
0.175
0.29
0.38
0.435
0.5
0.595
0.745
0.895
1.02
1.155
1.27
1.375
1.45
1.49
1.495
1.465
1.42
1.305
1.155
0.985
0.84
0.71
0.565
0.415
0.25
0.075
-0.105
-0.27
-0.41
-0.545
-0.65
-0.73
-0.78
-0.83
-0.855
-0.865
-0.87
-0.855
-0.825
-0.82
-0.825
-0.82
-0.795
-0.755
-0.705
-0.675
-0.655
-0.635
-0.605
-0.58
-0.555
-0.535
-0.515
-0.51
-0.495
-0.475
-0.465
-0.45
-0.455
-0.465
-0.45
-0.455
-0.45
-0.465
-0.46
-0.475
-0.475
-0.47
-0.475
-0.49
-0.495
-0.515
-0.495
-0.5
-0.49
-0.5
-0.495
-0.52
-0.525
-0.52
-0.515
-0.51
-0.525
-0.54
-0.525
-0.52
-0.515
-0.525
-0.525
-0.535
-0.54
-0.515
-0.515
-0.52
-0.52
-0.525
-0.51
-0.5
-0.49
-0.485
-0.48
-0.475
-0.47
-0.455
-0.435
-0.42
-0.425
-0.415
-0.395
-0.37
-0.365
-0.355
-0.345
-0.335
-0.32
-0.295
-0.285
-0.265
-0.255
-0.24
-0.225
-0.195
-0.175
-0.155
-0.16
-0.14
-0.12
-0.105
-0.09
-0.08
-0.08
-0.09
-0.085
-0.055
-0.045
-0.025
-0.04
-0.035
-0.02
-0.015
-0.005
0.0
-0.015
-0.03
-0.015
-0.01
-0.005
-0.01
-0.02
-0.035
-0.03
-0.03
-0.01
-0.025
-0.03
-0.055
-0.06
-0.05
-0.065
-0.055
-0.08
-0.1
-0.095
-0.1
-0.1
-0.1
-0.105
-0.105
-0.095
-0.085
-0.075
-0.08
-0.09
-0.1
-0.095
-0.085
-0.085
-0.095
-0.09
-0.105
-0.075
-0.07
-0.04
-0.045
-0.045
-0.05
-0.055
-0.035
-0.03
-0.035
-0.05
-0.055
-0.055
-0.025
-0.025
-0.03
-0.03
-0.035
-0.025
-0.015
-0.02
-0.045
-0.08
-0.115
-0.13
-0.155
-0.165
-0.19
-0.215
-0.23
-0.23
-0.23
-0.22
-0.23
-0.245
-0.255
-0.245
-0.225
-0.225
-0.22
-0.22
-0.245
-0.23
-0.235
-0.235
-0.225
-0.235
-0.245
-0.24
-0.24
-0.225
-0.225
-0.23
-0.245
-0.23
-0.22
-0.22
-0.215
-0.225
-0.24
-0.23
-0.215
-0.2
-0.215
-0.22
-0.215
-0.21
-0.2
-0.19
-0.18
-0.19
-0.19
-0.18
-0.17
-0.17
-0.175
-0.2
-0.22
-0.25
-0.255
-0.265
-0.275
-0.25
-0.185
-0.045
0.095
0.22
0.325
0.41
0.48
0.575
0.7
0.865
1.015
1.14
1.25
1.37
1.475
1.53
1.53
1.53
1.495
1.42
1.3
1.145
0.97
0.805
0.65
0.515
0.38
0.22
0.015
-0.17
-0.32
-0.435
-0.56
-0.67
-0.765
-0.835
-0.875
-0.88
-0.865
-0.87
-0.84
-0.845
-0.85
-0.84
-0.795
-0.76
-0.715
-0.685
-0.665
-0.64
-0.61
-0.6
-0.565
-0.555
-0.54
-0.52
-0.495
-0.48
-0.475
-0.475
-0.485
-0.465
-0.465
-0.46
-0.455
-0.48
-0.485
-0.485
-0.48
-0.48
-0.495
-0.505
-0.52
-0.515
-0.515
-0.51
-0.515
-0.52
-0.53
-0.54
-0.52
-0.52
-0.525
-0.53
-0.555
-0.54
-0.54
-0.535
-0.545
-0.54
-0.555
-0.545
-0.535
-0.52
-0.525
-0.53
-0.54
-0.52
-0.505
-0.495
-0.485
-0.49
-0.49
-0.47
-0.455
-0.435
-0.43
-0.435
-0.425
-0.4
-0.385
-0.35
-0.345
-0.35
-0.325
-0.325
-0.295
-0.27
-0.27
-0.255
-0.24
-0.225
-0.195
-0.165
-0.16
-0.16
-0.145
-0.145
-0.12
-0.09
-0.085
-0.09
-0.08
-0.06
-0.035
-0.02
-0.015
-0.01
-0.03
-0.025
-0.015
-0.005
-0.005
-0.015
-0.03
-0.01
-0.01
0.005
-0.015
-0.025
-0.025
-0.03
-0.02
-0.03
-0.03
-0.05
-0.07
-0.07
-0.065
-0.075
-0.065
-0.085
-0.1
-0.095
-0.075
-0.075
-0.075
-0.075
-0.09
-0.065
-0.065
-0.055
-0.055
-0.06
-0.07
-0.075
-0.08
-0.085
-0.085
-0.09
-0.095
-0.09
-0.055
-0.035
-0.035
-0.055
-0.065
-0.045
-0.025
-0.02
-0.025
-0.035
-0.045
-0.04
-0.025
-0.005
0.005
0.005
-0.01
-0.005
-0.015
-0.035
-0.07
-0.115
-0.135
-0.155
-0.16
-0.17
-0.205
-0.215
-0.22
-0.215
-0.21
-0.22
-0.23
-0.235
-0.245
-0.23
-0.245
-0.235
-0.23
-0.23
-0.245
-0.235
-0.23
-0.215
-0.22
-0.225
-0.23
-0.225
-0.21
-0.195
-0.19
-0.205
-0.215
-0.22
-0.21
-0.2
-0.21
-0.215
-0.22
-0.215
-0.21
-0.185
-0.19
-0.2
-0.215
-0.2
-0.185
-0.19
-0.185
-0.2
-0.2
-0.19
-0.19
-0.17
-0.175
-0.185
-0.205
-0.215
-0.225
-0.23
-0.25
-0.245
-0.23
-0.155
-0.025
0.13
0.275
0.395
0.49
0.58
0.67
0.81
0.965
1.095
1.225
1.355
1.49
1.58
1.62
1.615
1.585
1.525
1.43
1.255
1.06
0.87
0.71
0.55
0.415
0.25
0.04
-0.155
-0.36
-0.485
-0.6
-0.7
-0.785
-0.845
-0.88
-0.88
-0.87
-0.85
-0.85
-0.845
-0.845
-0.825
-0.775
-0.73
-0.705
-0.68
-0.675
-0.645
-0.615
-0.585
-0.575
-0.55
-0.545
-0.525
-0.5
-0.48
-0.485
-0.485
-0.495
-0.475
-0.475
-0.475
-0.485
-0.475
-0.495
-0.5
-0.505
-0.495
-0.495
-0.505
-0.515
-0.52
-0.52
-0.51
-0.525
-0.54
-0.55
-0.55
-0.545
-0.545
-0.54
-0.56
-0.575
-0.57
-0.555
-0.555
-0.555
-0.565
-0.565
-0.57
-0.555
-0.545
-0.555
-0.55
-0.55
-0.53
-0.52
-0.495
-0.5
-0.495
-0.505
-0.48
-0.47
-0.435
-0.44
-0.43
-0.42
-0.4
-0.375
-0.365
-0.35
-0.335
-0.325
-0.31
-0.285
-0.255
-0.25
-0.24
-0.23
-0.21
-0.19
-0.17
-0.16
-0.15
-0.15
-0.14
-0.115
-0.095
-0.09
-0.085
-0.075
-0.065
-0.04
-0.035
-0.025
-0.04
-0.035
-0.03
-0.015
-0.015
-0.025
-0.025
-0.035
-0.045
-0.05
-0.035
-0.05
-0.07
-0.095
-0.085
-0.08
-0.075
-0.09
-0.11
-0.135
-0.12
-0.1
-0.09
-0.115
-0.11
-0.11
-0.12
-0.11
-0.1
-0.1
-0.1
-0.11
-0.105
-0.12
-0.105
-0.105
-0.105
-0.115
-0.11
-0.1
-0.095
-0.085
-0.095
-0.1
-0.09
-0.075
-0.085
-0.085
-0.1
-0.095
-0.08
-0.075
-0.07
-0.055
-0.055
-0.065
-0.075
-0.085
-0.105
-0.14
-0.16
-0.19
-0.205
-0.215
-0.23
-0.23
-0.23
-0.25
-0.235
-0.25
-0.25
-0.255
-0.27
-0.275
-0.27
-0.255
-0.255
-0.265
-0.27
-0.28
-0.275
-0.28
-0.265
-0.255
-0.26
-0.27
-0.26
-0.255
-0.255
-0.25
-0.255
-0.265
-0.265
-0.26
-0.25
-0.245
-0.25
-0.26
-0.255
-0.24
-0.25
-0.23
-0.23
-0.24
-0.235
-0.235
-0.2
-0.22
-0.215
-0.23
-0.23
-0.22
-0.235
-0.25
-0.265
-0.28
-0.26
-0.18
-0.045
0.105
0.255
0.39
0.5
0.59
0.66
0.77
0.9
1.015
1.17
1.29
1.38
1.425
1.405
1.38
1.345
1.285
1.17
0.985
0.8
0.645
0.52
0.41
0.3
0.135
-0.07
-0.26
-0.41
-0.535
-0.635
-0.735
-0.825
-0.86
-0.885
-0.88
-0.855
-0.86
-0.85
-0.85
-0.84
-0.82
-0.76
-0.725
-0.695
-0.68
-0.65
-0.63
-0.625
-0.6
-0.565
-0.555
-0.53
-0.505
-0.5
-0.49
-0.495
-0.495
-0.49
-0.49
-0.485
-0.495
-0.505
-0.515
-0.515
-0.515
-0.515
-0.505
-0.525
-0.535
-0.54
-0.535
-0.535
-0.535
-0.545
-0.56
-0.565
-0.55
-0.55
-0.54
-0.565
-0.57
-0.57
-0.55
-0.555
-0.555
-0.555
-0.565
-0.555
-0.54
-0.54
-0.535
-0.54
-0.545
-0.535
-0.525
-0.51
-0.505
-0.495
-0.5
-0.49
-0.475
-0.455
-0.445
-0.445
-0.44
-0.42
-0.395
-0.375
-0.375
-0.365
-0.36
-0.335
-0.32
-0.305
-0.275
-0.26
-0.26
-0.235
-0.21
