Lead II
-0.305
-0.3
-0.32
-0.325
-0.31
-0.295
-0.305
-0.3
-0.31
-0.3
-0.29
-0.28
-0.27
-0.29
-0.29
-0.295
-0.295
-0.285
-0.275
-0.28
-0.3
-0.315
-0.3
-0.295
-0.265
-0.265
-0.28
-0.285
-0.275
-0.255
-0.24
-0.205
-0.17
-0.115
-0.03
0.085
0.225
0.4
0.6
0.82
1.03
1.19
1.28
1.24
1.05
0.775
0.46
0.125
-0.19
-0.46
-0.545
-0.49
-0.415
-0.36
-0.325
-0.33
-0.35
-0.355
-0.365
-0.35
-0.365
-0.38
-0.375
-0.38
-0.39
-0.36
-0.375
-0.395
-0.41
-0.42
-0.415
-0.405
-0.42
-0.425
-0.425
-0.425
-0.43
-0.42
-0.415
-0.425
-0.42
-0.415
-0.415
-0.4
-0.38
-0.385
-0.405
-0.41
-0.4
-0.4
-0.38
-0.385
-0.405
-0.405
-0.395
-0.37
-0.37
-0.385
-0.4
-0.41
-0.385
-0.36
-0.37
-0.35
-0.36
-0.365
-0.345
-0.34
-0.33
-0.34
-0.34
-0.315
-0.32
-0.28
-0.285
-0.295
-0.295
-0.295
-0.27
-0.24
-0.23
-0.24
-0.26
-0.265
-0.26
-0.26
-0.255
-0.245
-0.25
-0.265
-0.25
-0.255
-0.235
-0.215
-0.23
-0.24
-0.235
-0.215
-0.2
-0.195
-0.22
-0.215
-0.21
-0.195
-0.2
-0.21
-0.24
-0.245
-0.245
-0.245
-0.235
-0.255
-0.27
-0.285
-0.28
-0.28
-0.29
-0.29
-0.315
-0.31
-0.29
-0.27
-0.28
-0.295
-0.33
-0.335
-0.315
-0.31
-0.295
-0.3
-0.305
-0.295
-0.315
-0.295
-0.275
-0.275
-0.285
-0.285
-0.28
-0.275
-0.27
-0.29
-0.295
-0.305
-0.3
-0.285
-0.27
-0.28
-0.285
-0.29
-0.285
-0.27
-0.275
-0.285
-0.29
-0.295
-0.275
-0.26
-0.25
-0.25
-0.25
-0.26
-0.245
-0.235
-0.23
-0.245
-0.26
-0.25
-0.24
-0.23
-0.22
-0.225
-0.24
-0.255
-0.245
-0.235
-0.225
-0.235
-0.25
-0.25
-0.26
-0.24
-0.235
-0.245
-0.275
-0.275
-0.265
-0.235
-0.235
-0.23
-0.25
-0.28
-0.275
-0.29
-0.29
-0.285
-0.295
-0.305
-0.285
-0.275
-0.275
-0.28
-0.3
-0.3
-0.285
-0.28
-0.26
-0.27
-0.285
-0.28
-0.26
-0.265
-0.27
-0.28
-0.285
-0.285
-0.265
-0.235
-0.235
-0.24
-0.245
-0.265
-0.265
-0.24
-0.23
-0.23
-0.245
-0.245
-0.22
-0.205
-0.205
-0.205
-0.23
-0.235
-0.225
-0.21
-0.2
-0.215
-0.225
-0.235
-0.23
-0.225
-0.21
-0.23
-0.23
-0.245
-0.22
-0.215
-0.225
-0.235
-0.245
-0.245
-0.235
-0.24
-0.22
-0.22
-0.25
-0.25
-0.24
-0.21
-0.2
-0.225
-0.255
-0.265
-0.27
-0.24
-0.225
-0.23
-0.235
-0.24
-0.215
-0.19
-0.185
-0.175
-0.175
-0.14
-0.07
0.02
0.11
0.225
0.355
0.515
0.715
0.94
1.145
1.33
1.455
1.495
1.455
1.315
1.05
0.775
0.475
0.18
-0.075
-0.25
-0.29
-0.275
-0.245
-0.215
-0.185
-0.18
-0.225
-0.25
-0.28
-0.285
-0.285
-0.29
-0.29
-0.305
-0.325
-0.33
-0.325
-0.33
-0.34
-0.34
-0.35
-0.36
-0.35
-0.335
-0.33
-0.335
-0.355
-0.375
-0.365
-0.35
-0.325
-0.32
-0.335
-0.33
-0.34
-0.32
-0.305
-0.32
-0.335
-0.345
-0.335
-0.3
-0.295
-0.305
-0.305
-0.3
-0.305
-0.295
-0.3
-0.3
-0.325
-0.32
-0.3
-0.275
-0.265
-0.265
-0.275
-0.27
-0.25
-0.235
-0.23
-0.24
-0.245
-0.235
-0.22
-0.21
-0.215
-0.205
-0.205
-0.205
-0.195
-0.175
-0.18
-0.18
-0.185
-0.18
-0.165
-0.16
-0.135
-0.15
-0.165
-0.16
-0.155
-0.12
-0.105
-0.125
-0.125
-0.12
-0.11
-0.1
-0.1
-0.1
-0.11
-0.12
-0.085
-0.065
-0.065
-0.08
-0.075
-0.085
-0.085
-0.08
-0.075
-0.09
-0.11
-0.12
-0.12
-0.105
-0.125
-0.15
-0.155
-0.175
-0.155
-0.15
-0.155
-0.17
-0.195
-0.205
-0.205
-0.195
-0.22
-0.215
-0.235
-0.245
-0.23
-0.22
-0.23
-0.24
-0.26
-0.255
-0.25
-0.235
-0.215
-0.22
-0.23
-0.23
-0.21
-0.19
-0.19
-0.195
-0.225
-0.22
-0.205
-0.19
-0.19
-0.205
-0.2
-0.21
-0.2
-0.185
-0.185
-0.18
-0.19
-0.18
-0.175
-0.16
-0.15
-0.16
-0.175
-0.18
-0.175
-0.16
-0.16
-0.16
-0.16
-0.18
-0.175
-0.16
-0.165
-0.185
-0.2
-0.21
-0.19
-0.18
-0.18
-0.185
-0.21
-0.21
-0.215
-0.205
-0.21
-0.215
-0.215
-0.215
-0.205
-0.2
-0.19
-0.19
-0.22
-0.215
-0.21
-0.195
-0.195
-0.205
-0.21
-0.22
-0.21
-0.195
-0.2
-0.205
-0.23
-0.23
-0.22
-0.19
-0.2
-0.225
-0.225
-0.215
-0.205
-0.21
-0.21
-0.21
-0.22
-0.23
-0.21
-0.195
-0.19
-0.2
-0.22
-0.22
-0.22
-0.205
-0.19
-0.205
-0.215
-0.225
-0.22
-0.185
-0.2
-0.2
-0.21
-0.215
-0.21
-0.195
-0.175
-0.195
-0.205
-0.21
-0.195
-0.185
-0.195
-0.195
-0.2
-0.205
-0.185
-0.17
-0.16
-0.155
-0.165
-0.175
-0.14
-0.08
-0.02
0.055
0.145
0.29
0.465
0.655
0.85
1.045
1.22
1.37
1.425
1.36
1.18
0.9
0.57
0.28
0.005
-0.185
-0.275
-0.295
-0.255
-0.215
-0.175
-0.155
-0.155
-0.18
-0.21
-0.23
-0.24
-0.23
-0.23
-0.265
-0.26
-0.275
-0.275
-0.28
-0.26
-0.265
-0.29
-0.31
-0.305
-0.285
-0.285
-0.295
-0.31
-0.31
-0.3
-0.29
-0.27
-0.285
-0.3
-0.295
-0.285
-0.275
-0.275
-0.28
-0.3
-0.3
-0.27
-0.26
-0.265
-0.265
-0.275
-0.265
-0.25
-0.22
-0.245
-0.23
-0.235
-0.25
-0.235
-0.23
-0.215
-0.22
-0.23
-0.22
-0.21
-0.195
-0.195
-0.195
-0.21
-0.205
-0.195
-0.175
-0.17
-0.165
-0.165
-0.165
-0.15
-0.135
-0.135
-0.15
-0.165
-0.16
-0.135
-0.12
-0.115
-0.115
-0.125
-0.125
-0.12
-0.12
-0.105
-0.12
-0.13
-0.135
-0.115
-0.1
-0.085
-0.09
-0.095
-0.09
-0.065
-0.055
-0.06
-0.06
-0.06
-0.075
-0.045
-0.02
-0.03
-0.03
-0.06
-0.075
-0.055
-0.06
-0.055
-0.08
-0.095
-0.11
-0.11
-0.095
-0.115
-0.125
-0.14
-0.15
-0.155
-0.17
-0.16
-0.17
-0.185
-0.19
-0.185
-0.185
-0.19
-0.2
-0.225
-0.22
-0.215
-0.195
-0.19
-0.21
-0.215
-0.225
-0.21
-0.215
-0.205
-0.195
-0.215
-0.205
-0.205
-0.2
-0.205
-0.215
-0.215
-0.205
-0.195
-0.175
-0.17
-0.18
-0.17
-0.185
-0.175
-0.155
-0.16
-0.155
-0.17
-0.17
-0.16
-0.155
-0.16
-0.165
-0.17
-0.19
-0.17
-0.165
-0.155
-0.17
-0.175
-0.195
-0.195
-0.185
-0.19
-0.215
-0.22
-0.23
-0.21
-0.195
-0.2
-0.2
-0.23
-0.245
-0.24
-0.225
-0.195
-0.225
-0.22
-0.225
-0.23
-0.225
-0.225
-0.21
-0.235
-0.245
-0.225
-0.205
-0.21
-0.22
-0.235
-0.235
-0.205
-0.19
-0.2
-0.215
-0.22
-0.23
-0.22
-0.2
-0.205
-0.215
-0.21
-0.21
-0.21
-0.195
-0.19
-0.205
-0.225
-0.235
-0.225
-0.225
-0.215
-0.22
-0.235
-0.23
-0.22
-0.215
-0.22
-0.25
-0.235
-0.24
-0.22
-0.215
-0.21
-0.23
-0.24
-0.225
-0.21
-0.2
-0.185
-0.18
-0.155
-0.12
-0.06
0.035
0.155
0.3
0.475
0.685
0.915
1.13
1.3
1.39
1.35
1.2
0.95
0.67
0.36
0.065
-0.2
-0.35
-0.345
-0.31
-0.24
-0.22
-0.22
-0.225
-0.24
-0.245
-0.235
-0.245
-0.28
-0.3
-0.315
-0.315
-0.3
-0.32
-0.335
-0.345
-0.33
-0.31
-0.32
-0.345
-0.35
-0.345
-0.345
-0.33
-0.345
-0.35
-0.36
-0.355
-0.335
-0.345
-0.34
-0.36
-0.365
-0.35
-0.335
-0.32
-0.32
-0.34
-0.335
-0.33
-0.335
-0.315
-0.31
-0.305
-0.32
-0.325
-0.285
-0.285
-0.29
-0.32
-0.325
-0.32
-0.29
-0.265
-0.26
-0.25
-0.27
-0.255
-0.235
-0.205
-0.205
-0.21
-0.22
-0.22
-0.19
-0.155
-0.18
-0.175
-0.2
-0.19
-0.17
-0.145
-0.135
-0.145
-0.165
-0.16
-0.15
-0.135
-0.12
-0.125
-0.155
-0.16
-0.14
-0.125
-0.12
-0.125
-0.145
-0.135
-0.12
-0.11
-0.105
-0.11
-0.15
-0.155
-0.14
-0.125
-0.125
-0.135
-0.14
-0.155
-0.145
-0.15
-0.155
-0.165
-0.17
-0.19
-0.185
-0.16
-0.155
-0.175
-0.215
-0.21
-0.22
-0.22
-0.22
-0.215
-0.225
-0.215
-0.205
-0.2
-0.21
-0.23
-0.245
-0.25
-0.26
-0.22
-0.22
-0.22
-0.235
-0.245
-0.245
-0.245
-0.25
-0.27
-0.285
-0.28
-0.255
-0.245
-0.24
-0.235
-0.255
-0.26
-0.25
-0.24
-0.23
-0.24
-0.24
-0.245
-0.23
-0.215
-0.2
-0.22
-0.25
-0.245
-0.22
-0.2
-0.215
-0.235
-0.255
-0.245
-0.22
-0.2
-0.21
-0.235
-0.25
-0.25
-0.23
-0.205
-0.21
-0.23
-0.245
-0.245
-0.245
-0.23
-0.23
-0.235
-0.265
-0.25
-0.23
-0.225
-0.23
-0.25
-0.25
-0.26
-0.25
-0.25
-0.24
-0.235
-0.245
-0.245
-0.25
-0.24
-0.24
-0.255
-0.25
-0.25
-0.245
-0.225
-0.235
-0.24
-0.245
-0.245
-0.24
-0.235
-0.235
-0.24
-0.275
-0.275
-0.26
-0.24
-0.22
-0.225
-0.255
-0.265
-0.25
-0.255
-0.23
-0.245
-0.265
-0.255
-0.265
-0.235
-0.235
-0.24
-0.25
-0.25
-0.25
-0.245
-0.24
-0.25
-0.275
-0.27
-0.24
-0.24
-0.235
-0.245
-0.255
-0.27
-0.265
-0.23
-0.235
-0.22
-0.23
-0.23
-0.215
-0.215
-0.2
-0.215
-0.24
-0.25
-0.235
-0.22
-0.23
-0.235
-0.245
-0.245
-0.245
-0.23
-0.225
-0.23
-0.24
-0.225
-0.21
-0.19
-0.185
-0.19
-0.21
-0.205
-0.2
-0.17
-0.17
-0.155
-0.145
-0.11
-0.05
0.01
0.085
0.17
0.295
0.475
0.675
0.895
1.085
1.245
1.355
1.4
1.36
1.22
0.955
0.66
0.345
0.055
-0.2
-0.33
-0.345
-0.305
-0.26
-0.22
-0.205
-0.195
-0.195
-0.23
-0.27
-0.285
-0.265
-0.27
-0.275
-0.285
-0.305
-0.31
-0.3
-0.295
-0.29
-0.32
-0.335
-0.33
-0.33
-0.315
-0.315
-0.325
-0.335
-0.335
-0.305
-0.29
-0.3
-0.28
-0.325
-0.325
-0.325
-0.285
-0.285
-0.285
-0.29
-0.29
-0.275
-0.26
-0.265
-0.275
-0.29
-0.3
-0.27
-0.255
-0.245
-0.265
-0.28
-0.275
-0.255
-0.24
-0.25
-0.25
-0.255
-0.24
-0.235
-0.2
-0.205
-0.2
-0.2
-0.195
-0.185
-0.17
-0.18
-0.175
-0.18
-0.16
-0.15
-0.145
-0.14
-0.145
-0.15
-0.15
-0.135
-0.11
-0.1
-0.11
-0.105
-0.11
-0.1
-0.09
-0.095
-0.09
-0.1
-0.085
-0.07
-0.06
-0.06
-0.075
-0.085
-0.075
-0.075
-0.06
-0.065
-0.075
-0.095
-0.09
-0.085
-0.09
-0.095
-0.115
-0.14
-0.165
-0.145
-0.13
-0.14
-0.165
-0.185
-0.205
-0.2
-0.2
-0.195
-0.21
-0.225
-0.21
-0.21
-0.195
-0.205
-0.22
-0.255
-0.24
-0.225
-0.215
-0.205
-0.225
-0.225
-0.205
-0.195
-0.19
-0.195
-0.205
-0.22
-0.205
-0.17
-0.155
-0.16
-0.165
-0.18
-0.205
-0.21
-0.225
-0.23
-0.21
-0.195
-0.17
-0.135
-0.11
-0.125
-0.125
-0.17
-0.15
-0.155
-0.14
-0.135
-0.16
-0.17
-0.175
-0.175
-0.18
-0.18
-0.195
-0.205
-0.195
-0.18
-0.17
-0.17
-0.205
-0.225
-0.215
-0.21
-0.195
-0.2
-0.21
-0.21
-0.215
-0.195
-0.185
-0.18
-0.2
-0.205
-0.22
-0.19
-0.17
-0.155
-0.165
-0.175
-0.16
-0.145
-0.13
-0.12
-0.145
-0.18
-0.185
-0.18
-0.175
-0.18
-0.19
-0.225
-0.21
-0.21
-0.205
-0.21
-0.21
-0.235
-0.24
-0.225
-0.21
-0.225
-0.225
-0.24
-0.23
-0.215
-0.19
-0.19
-0.19
-0.205
-0.21
-0.205
-0.2
-0.2
-0.205
-0.215
-0.22
-0.22
-0.195
-0.19
-0.205
-0.22
-0.2
-0.205
-0.19
-0.185
-0.195
-0.22
-0.225
-0.2
-0.19
-0.19
-0.195
-0.215
-0.195
-0.175
-0.155
-0.155
-0.18
-0.195
-0.19
-0.185
-0.175
-0.17
-0.15
-0.15
-0.155
-0.165
-0.16
-0.15
-0.17
-0.19
-0.2
-0.205
-0.18
-0.175
-0.175
-0.19
-0.195
-0.195
-0.18
-0.18
-0.195
-0.205
-0.2
-0.175
-0.155
-0.14
-0.155
-0.17
-0.175
-0.17
-0.17
-0.175
-0.185
-0.18
-0.185
-0.175
-0.175
-0.17
-0.185
-0.175
-0.205
-0.18
-0.175
-0.155
-0.155
-0.16
-0.17
-0.15
-0.11
-0.06
-0.01
0.055
0.165
0.32
0.495
0.675
0.84
0.995
1.16
1.35
1.46
1.455
1.29
1.03
0.73
0.425
0.14
-0.095
-0.23
-0.28
-0.23
-0.165
-0.14
-0.17
-0.2
-0.24
-0.26
-0.265
-0.245
-0.265
-0.28
-0.305
-0.32
-0.3
-0.295
-0.31
-0.335
-0.345
-0.345
-0.335
-0.31
-0.31
-0.32
-0.35
-0.34
-0.34
-0.305
-0.305
-0.31
-0.325
-0.31
-0.295
-0.295
-0.295
-0.31
-0.33
-0.33
-0.34
-0.31
-0.305
-0.315
-0.325
-0.32
-0.31
-0.295
-0.305
-0.315
-0.32
-0.325
-0.3
-0.295
-0.275
-0.28
-0.29
-0.285
-0.27
-0.265
-0.25
-0.25
-0.255
-0.24
-0.215
-0.19
-0.18
-0.175
-0.195
-0.175
-0.15
-0.13
-0.115
-0.13
-0.12
-0.11
-0.11
-0.09
-0.1
-0.1
-0.105
-0.115
-0.09
-0.085
-0.085
-0.09
-0.1
-0.12
-0.095
-0.085
-0.095
-0.12
-0.13
-0.12
-0.11
-0.095
-0.1
-0.135
-0.15
-0.15
-0.13
-0.135
-0.135
-0.16
-0.18
-0.195
-0.19
-0.18
-0.2
-0.21
-0.22
-0.225
-0.22
-0.2
-0.225
-0.24
-0.26
-0.27
-0.245
-0.23
-0.23
-0.25
-0.265
-0.255
-0.265
-0.25
-0.25
-0.27
-0.275
-0.275
-0.265
-0.26
-0.255
-0.26
-0.28
-0.285
-0.265
-0.26
-0.26
-0.26
-0.26
-0.265
-0.245
-0.24
-0.235
-0.25
-0.26
-0.265
-0.235
-0.23
-0.22
-0.23
-0.245
-0.255
-0.225
-0.22
-0.24
-0.23
-0.245
-0.245
-0.235
-0.225
-0.23
-0.25
-0.27
-0.265
-0.255
-0.245
-0.25
-0.26
-0.275
-0.275
-0.26
-0.255
-0.265
-0.28
-0.295
-0.295
-0.285
-0.27
-0.275
-0.315
-0.325
-0.32
-0.295
-0.275
-0.29
-0.295
-0.29
-0.29
-0.275
-0.27
-0.26
-0.27
-0.285
-0.295
-0.285
-0.265
-0.265
-0.265
-0.285
-0.285
-0.275
-0.26
-0.27
-0.27
-0.285
-0.28
-0.285
-0.255
-0.255
-0.26
-0.275
-0.26
-0.255
-0.225
-0.18
-0.135
-0.095
0.005
0.14
0.325
0.51
0.705
0.91
1.09
1.26
1.325
1.225
1.0
0.67
0.34
0.0
-0.28
-0.45
-0.48
-0.455
-0.37
-0.325
-0.295
-0.31
-0.325
-0.35
-0.37
-0.375
-0.375
-0.38
-0.405
-0.425
-0.425
-0.405
-0.4
-0.395
-0.42
-0.425
-0.435
-0.43
-0.42
-0.415
-0.425
-0.42
-0.42
-0.415
-0.4
-0.41
-0.42
-0.43
-0.42
-0.425
-0.4
-0.395
-0.42
-0.425
-0.415
-0.41
-0.41
-0.41
-0.425
-0.415
-0.42
-0.4
-0.385
-0.385
-0.395
-0.415
-0.405
-0.365
-0.345
-0.35
-0.355
-0.36
-0.355
-0.355
-0.33
-0.315
-0.32
-0.315
-0.315
-0.3
-0.295
-0.3
-0.3
-0.3
-0.27
-0.265
-0.245
-0.23
-0.24
-0.24
-0.225
-0.21
-0.18
-0.19
-0.21
-0.225
-0.235
-0.215
-0.19
-0.18
-0.22
-0.24
-0.22
-0.215
-0.21
-0.21
-0.23
-0.235
-0.245
-0.255
-0.25
-0.25
-0.27
-0.3
-0.32
-0.31
-0.32
-0.32
-0.32
-0.34
-0.365
-0.35
-0.36
-0.365
-0.39
-0.4
-0.385
-0.37
-0.36
-0.34
-0.335
-0.375
-0.39
-0.385
-0.37
-0.37
-0.365
-0.35
-0.36
-0.35
-0.335
-0.335
-0.345
-0.355
-0.37
-0.34
-0.33
-0.32
-0.345
-0.37
-0.36
-0.355
-0.345
-0.335
-0.355
-0.38
-0.36
-0.34
-0.33
-0.325
-0.355
-0.365
-0.375
-0.355
-0.35
-0.36
-0.36
-0.365
-0.37
-0.355
-0.36
-0.35
-0.345
-0.36
-0.365
-0.345
-0.325
-0.325
-0.35
-0.355
-0.35
-0.335
-0.33
-0.33
-0.34
-0.345
-0.35
-0.33
-0.31
-0.33
-0.355
-0.37
-0.37
-0.345
-0.325
-0.32
-0.34
-0.355
-0.36
-0.375
-0.33
-0.335
-0.345
-0.35
-0.35
-0.345
-0.34
-0.35
-0.365
-0.39
-0.38
-0.36
-0.34
-0.345
-0.36
-0.365
-0.365
-0.345
-0.325
-0.32
-0.325
-0.335
-0.345
-0.34
-0.325
-0.32
-0.325
-0.34
-0.33
-0.33
-0.305
-0.31
-0.335
-0.35
-0.34
-0.32
-0.305
-0.31
-0.33
-0.35
-0.345
-0.33
-0.315
-0.3
-0.32
-0.325
-0.32
-0.32
-0.305
-0.305
-0.31
-0.315
-0.305
-0.29
-0.26
-0.28
-0.295
-0.315
-0.3
-0.285
-0.26
-0.265
-0.25
-0.225
-0.175
-0.07
0.01
0.125
0.26
0.415
0.6
0.82
1.035
1.2
1.27
1.2
1.0
0.715
0.43
0.105
-0.2
-0.395
-0.455
-0.38
-0.295
-0.26
-0.27
-0.3
-0.31
-0.325
-0.305
-0.335
-0.355
-0.375
-0.38
-0.37
-0.355
-0.36
-0.365
-0.385
-0.41
-0.385
-0.37
-0.375
-0.38
-0.4
-0.39
-0.37
-0.36
-0.355
-0.375
-0.385
-0.38
-0.385
-0.37
-0.38
-0.385
-0.39
-0.405
-0.375
-0.37
-0.375
-0.39
-0.4
-0.395
-0.38
-0.35
-0.345
-0.345
-0.345
-0.35
-0.355
-0.35
-0.34
-0.335
-0.34
-0.34
-0.31
-0.295
-0.295
-0.315
-0.31
-0.3
-0.27
-0.245
-0.235
-0.225
-0.235
-0.23
-0.225
-0.2
-0.215
-0.215
-0.21
-0.205
-0.195
-0.17
-0.16
-0.18
-0.195
-0.19
-0.175
-0.135
-0.15
-0.17
-0.155
-0.15
-0.125
-0.11
-0.11
-0.12
-0.155
-0.15
-0.13
-0.125
-0.125
-0.145
-0.16
-0.175
-0.195
-0.19
-0.21
-0.215
-0.23
-0.24
-0.24
-0.24
-0.24
-0.255
-0.295
-0.3
-0.3
-0.27
-0.28
-0.28
-0.29
-0.275
-0.285
-0.285
-0.285
-0.29
-0.305
-0.29
-0.27
-0.255
-0.285
-0.29
-0.31
-0.295
-0.29
-0.25
-0.255
-0.255
-0.265
-0.26
-0.23
-0.225
-0.235
-0.25
-0.255
-0.265
-0.255
-0.235
-0.24
-0.255
-0.26
-0.26
-0.24
-0.24
-0.25
-0.255
-0.255
-0.255
-0.23
-0.22
-0.225
-0.25
-0.265
-0.265
-0.245
-0.235
-0.235
-0.26
-0.265
-0.26
-0.27
-0.25
-0.265
-0.27
-0.295
-0.285
-0.265
-0.25
-0.26
-0.27
-0.295
-0.295
-0.285
-0.255
-0.245
-0.255
-0.265
-0.265
-0.255
-0.24
-0.255
-0.255
-0.27
-0.265
-0.255
-0.24
-0.24
-0.255
-0.27
-0.275
-0.275
-0.26
-0.27
-0.275
-0.295
-0.3
-0.29
-0.285
-0.305
-0.3
-0.31
-0.305
-0.295
-0.275
-0.285
-0.3
-0.305
-0.32
-0.295
-0.28
-0.285
-0.3
-0.315
-0.3
-0.28
-0.27
-0.265
-0.275
-0.305
-0.295
-0.27
-0.25
-0.27
-0.28
-0.28
-0.28
-0.28
-0.265
-0.265
-0.275
-0.295
-0.285
-0.275
-0.26
-0.27
-0.28
-0.3
-0.295
-0.29
-0.275
-0.26
-0.28
-0.3
-0.295
-0.29
-0.285
-0.295
-0.3
-0.295
-0.3
-0.285
-0.27
-0.29
-0.3
-0.32
-0.315
-0.305
-0.285
-0.29
-0.305
-0.315
-0.31
-0.3
-0.28
-0.28
-0.3
-0.325
-0.31
-0.285
-0.275
-0.28
-0.285
-0.295
-0.285
-0.27
-0.245
-0.26
-0.275
-0.275
-0.275
-0.27
-0.26
-0.255
-0.265
-0.265
-0.255
-0.25
-0.245
-0.25
-0.255
-0.265
-0.275
-0.265
-0.255
-0.255
-0.28
-0.28
-0.275
-0.265
-0.275
-0.27
-0.28
-0.285
-0.29
-0.285
-0.255
-0.265
-0.275
-0.28
-0.27
-0.26
-0.26
-0.26
-0.285
-0.295
-0.285
-0.27
-0.255
-0.255
-0.275
-0.29
-0.29
-0.28
-0.255
-0.25
-0.265
-0.28
-0.255
-0.26
-0.25
-0.245
-0.26
-0.275
-0.28
-0.26
-0.255
-0.245
-0.255
-0.28
-0.275
-0.255
-0.245
-0.255
-0.26
-0.285
-0.265
-0.245
-0.245
-0.24
-0.26
-0.27
-0.26
-0.255
-0.25
-0.255
-0.27
-0.275
-0.27
-0.26
-0.24
-0.25
-0.26
-0.265
-0.27
-0.265
-0.235
-0.23
-0.245
-0.27
-0.26
-0.235
-0.24
-0.245
-0.24
-0.255
-0.24
-0.235
-0.215
-0.235
-0.235
-0.25
-0.225
-0.175
-0.105
-0.03
0.055
0.145
0.29
0.445
0.615
0.79
0.925
1.07
1.185
1.265
1.205
1.025
0.745
0.49
0.235
0.005
-0.175
-0.27
-0.305
-0.285
-0.25
-0.235
-0.24
-0.275
-0.3
-0.325
-0.335
-0.325
-0.31
-0.32
-0.345
-0.365
-0.36
-0.345
-0.325
-0.34
-0.37
-0.38
-0.38
-0.375
-0.35
-0.375
-0.39
-0.39
-0.39
-0.385
-0.385
-0.375
-0.405
-0.4
-0.39
-0.385
-0.385
-0.385
-0.385
-0.4
-0.4
-0.415
-0.395
-0.385
-0.38
-0.39
-0.39
-0.375
-0.355
-0.365
-0.39
-0.39
-0.385
-0.37
-0.35
-0.34
-0.35
-0.35
-0.345
-0.335
-0.305
-0.325
-0.33
-0.35
-0.335
-0.315
-0.27
-0.265
-0.26
-0.275
-0.27
-0.24
-0.22
-0.205
-0.22
-0.225
-0.225
-0.2
-0.18
-0.19
-0.19
-0.2
-0.195
-0.185
-0.165
-0.165
-0.17
-0.17
-0.16
-0.15
-0.15
-0.155
-0.17
-0.175
-0.16
-0.14
-0.13
-0.12
-0.13
-0.14
-0.155
-0.15
-0.14
-0.175
-0.18
-0.185
-0.175
-0.17
-0.17
-0.19
-0.22
-0.235
-0.245
-0.245
-0.24
-0.245
-0.255
-0.28
-0.28
-0.28
-0.275
-0.27
-0.28
-0.305
-0.305
-0.295
-0.27
-0.295
-0.285
-0.305
-0.315
-0.305
-0.3
-0.31
-0.31
-0.315
-0.315
-0.29
-0.295
-0.3
-0.305
-0.31
-0.32
-0.3
-0.29
-0.295
-0.32
-0.315
-0.305
-0.29
-0.275
-0.285
-0.29
-0.31
-0.315
-0.305
-0.28
-0.27
-0.3
-0.3
-0.3
-0.275
-0.265
-0.26
-0.285
-0.31
-0.3
-0.295
-0.27
-0.275
-0.28
-0.29
-0.28
-0.27
-0.28
-0.265
-0.285
-0.285
-0.295
-0.275
-0.26
-0.285
-0.295
-0.3
-0.31
-0.295
-0.29
-0.295
-0.315
-0.31
-0.305
-0.285
-0.27
-0.29
-0.3
-0.305
-0.3
-0.295
-0.275
-0.28
-0.295
-0.295
-0.295
-0.285
-0.275
-0.29
-0.29
-0.31
-0.305
-0.295
-0.27
-0.28
-0.285
-0.31
-0.29
-0.255
-0.22
-0.19
-0.135
-0.09
0.02
0.155
0.325
0.51
0.685
0.86
1.055
1.21
1.3
1.255
1.135
0.92
0.67
0.405
0.12
-0.17
-0.385
-0.49
-0.48
-0.43
-0.365
-0.36
-0.345
-0.355
-0.34
-0.33
-0.335
-0.355
-0.375
-0.375
-0.39
-0.365
-0.36
-0.36
-0.38
-0.38
-0.395
-0.385
-0.37
-0.385
-0.385
-0.395
-0.39
-0.37
-0.365
-0.39
-0.41
-0.415
-0.41
-0.405
-0.4
-0.405
-0.4
-0.405
-0.405
-0.395
-0.375
-0.38
-0.395
-0.39
-0.395
-0.39
-0.36
-0.355
-0.36
-0.385
-0.365
-0.36
-0.345
-0.355
-0.36
-0.37
-0.37
-0.355
-0.335
-0.33
-0.33
-0.335
-0.335
-0.315
-0.305
-0.315
-0.31
-0.32
-0.295
-0.265
-0.24
-0.235
-0.255
-0.245
-0.24
-0.21
-0.185
-0.18
-0.195
-0.19
-0.18
-0.16
-0.14
-0.13
-0.14
-0.15
-0.145
-0.13
-0.115
-0.12
-0.145
-0.145
-0.14
-0.125
-0.11
-0.12
-0.145
-0.16
-0.15
-0.15
-0.13
-0.15
-0.15
-0.15
-0.16
-0.16
-0.15
-0.16
-0.185
-0.2
-0.215
-0.21
-0.2
-0.21
-0.235
-0.245
-0.24
-0.24
-0.24
-0.25
-0.26
-0.29
-0.285
-0.27
-0.255
-0.26
-0.295
-0.295
-0.295
-0.285
-0.285
-0.285
-0.29
-0.305
-0.3
-0.285
-0.28
-0.28
-0.29
-0.295
-0.295
-0.275
-0.285
-0.285
-0.285
-0.29
-0.285
-0.295
-0.27
-0.28
-0.28
-0.29
-0.3
-0.285
-0.27
-0.27
-0.28
-0.28
-0.29
-0.28
-0.27
-0.265
-0.27
-0.3
-0.29
-0.275
-0.26
-0.26
-0.275
-0.285
-0.27
-0.26
-0.25
-0.26
-0.265
-0.275
-0.26
-0.25
-0.235
-0.24
-0.235
-0.26
-0.265
-0.24
-0.25
-0.245
-0.26
-0.26
-0.255
-0.24
-0.225
-0.245
-0.25
-0.275
-0.265
-0.255
-0.25
-0.265
-0.275
-0.265
-0.265
-0.25
-0.24
-0.255
-0.265
-0.28
-0.28
-0.26
-0.25
-0.245
-0.255
-0.275
-0.27
-0.255
-0.255
-0.26
-0.275
-0.285
-0.285
-0.245
-0.24
-0.235
-0.24
-0.25
-0.24
-0.23
-0.225
-0.225
-0.25
-0.25
-0.215
-0.185
-0.135
-0.095
-0.045
0.02
0.11
0.26
0.445
0.605
0.765
0.935
1.11
1.265
1.36
1.355
1.225
1.01
0.745
0.47
0.2
-0.075
-0.28
-0.37
-0.355
-0.305
-0.245
-0.24
-0.245
-0.265
-0.27
-0.27
-0.265
-0.285
-0.3
-0.31
-0.31
-0.315
-0.295
-0.33
-0.325
-0.33
-0.33
-0.31
-0.31
-0.31
-0.335
-0.36
-0.35
-0.345
-0.33
-0.35
-0.37
-0.36
-0.375
-0.36
-0.345
-0.36
-0.365
-0.38
-0.37
-0.36
-0.35
-0.335
-0.355
-0.365
-0.35
-0.355
-0.35
-0.335
-0.35
-0.355
-0.335
-0.325
-0.31
-0.31
-0.315
-0.325
-0.32
-0.31
-0.29
-0.285
-0.29
-0.295
-0.28
-0.26
-0.245
-0.24
-0.245
-0.25
-0.255
-0.23
-0.21
-0.205
-0.21
-0.21
-0.205
-0.18
-0.17
-0.165
-0.175
-0.185
-0.175
-0.17
-0.155
-0.16
-0.17
-0.16
-0.155
-0.135
-0.115
-0.13
-0.135
-0.145
-0.125
-0.12
-0.105
-0.115
-0.125
-0.135
-0.13
-0.13
-0.115
-0.125
-0.13
-0.145
-0.145
-0.14
-0.125
-0.14
-0.155
-0.175
-0.2
-0.19
-0.18
-0.2
-0.22
-0.22
-0.245
-0.22
-0.225
-0.245
-0.24
-0.255
-0.255
-0.24
-0.23
-0.24
-0.25
-0.265
-0.275
-0.26
-0.245
-0.25
-0.255
-0.26
-0.255
-0.245
-0.225
-0.22
-0.245
-0.275
-0.25
-0.25
-0.23
-0.235
-0.24
-0.255
-0.245
-0.22
-0.21
-0.225
-0.23
-0.255
-0.24
-0.22
-0.21
-0.215
-0.235
-0.265
-0.23
-0.245
-0.23
-0.245
-0.245
-0.265
-0.255
-0.245
-0.225
-0.24
-0.255
-0.27
-0.26
-0.25
-0.225
-0.235
-0.26
-0.26
-0.25
-0.24
-0.24
-0.245
-0.24
-0.27
-0.27
-0.26
-0.235
-0.25
-0.245
-0.265
-0.245
-0.245
-0.23
-0.235
-0.235
-0.25
-0.245
-0.235
-0.225
-0.24
-0.25
-0.255
-0.25
-0.24
-0.23
-0.23
-0.25
-0.25
-0.25
-0.24
-0.225
-0.235
-0.24
-0.26
-0.25
-0.235
-0.23
-0.23
-0.24
-0.255
-0.265
-0.245
-0.25
-0.245
-0.27
-0.265
-0.26
-0.255
-0.23
-0.23
-0.25
-0.245
-0.245
-0.235
-0.23
-0.235
-0.24
-0.25
-0.24
-0.225
-0.22
-0.21
-0.245
-0.24
-0.235
-0.225
-0.215
-0.2
-0.205
-0.2
-0.18
-0.11
-0.055
0.01
0.075
0.185
0.345
0.52
0.705
0.865
1.025
1.175
1.285
1.325
1.25
1.05
0.775
0.48
0.21
-0.045
-0.23
-0.335
-0.355
-0.3
-0.265
-0.23
-0.225
-0.255
-0.275
-0.28
-0.285
-0.28
-0.275
-0.29
-0.32
-0.335
-0.34
-0.345
-0.315
-0.325
-0.335
-0.37
-0.36
-0.335
-0.33
-0.33
-0.35
-0.36
-0.355
-0.33
-0.32
-0.32
-0.335
-0.34
-0.35
-0.32
-0.315
-0.325
-0.335
-0.34
-0.335
-0.335
-0.3
-0.31
-0.32
-0.335
-0.325
-0.31
-0.305
-0.31
-0.32
-0.335
-0.315
-0.305
-0.3
-0.3
-0.315
-0.325
-0.3
-0.3
-0.275
-0.28
-0.295
-0.295
-0.285
-0.27
-0.26
-0.255
-0.26
-0.27
-0.245
-0.24
-0.225
-0.205
-0.22
-0.235
-0.21
-0.185
-0.185
-0.17
-0.185
-0.175
-0.185
-0.165
-0.15
-0.15
-0.16
-0.18
-0.165
-0.15
-0.14
-0.135
-0.14
-0.16
-0.15
-0.13
-0.12
-0.125
-0.13
-0.15
-0.145
-0.12
-0.11
-0.135
-0.15
-0.15
-0.17
-0.17
-0.17
-0.16
-0.18
-0.2
-0.19
-0.185
-0.185
-0.205
-0.215
-0.225
-0.23
-0.225
-0.22
-0.22
-0.23
-0.24
-0.235
-0.225
-0.22
-0.225
-0.24
-0.25
-0.245
-0.22
-0.2
-0.2
-0.19
-0.195
-0.16
-0.135
-0.105
-0.095
-0.075
-0.045
0.005
0.085
0.16
0.21
0.25
0.315
0.395
0.49
0.59
0.645
0.725
0.81
0.91
1.01
1.085
1.095
1.085
1.045
1.02
1.025
1.0
0.975
0.89
0.78
0.675
0.575
0.47
0.33
0.21
0.09
0.025
0.0
0.0
-0.015
-0.05
-0.105
-0.105
-0.065
0.01
0.085
0.17
0.215
0.195
0.12
-0.035
-0.22
-0.38
-0.48
-0.525
-0.53
-0.53
-0.57
-0.59
-0.625
-0.655
-0.66
-0.665
-0.68
-0.705
-0.725
-0.725
-0.72
-0.71
-0.72
-0.74
-0.775
-0.765
-0.775
-0.77
-0.775
-0.775
-0.8
-0.815
-0.795
-0.805
-0.805
-0.815
-0.835
-0.83
-0.83
-0.82
-0.815
-0.82
-0.835
-0.83
-0.815
-0.795
-0.8
-0.805
-0.81
-0.785
-0.775
-0.78
-0.76
-0.765
-0.765
-0.755
-0.71
-0.695
-0.7
-0.71
-0.71
-0.705
-0.69
-0.67
-0.66
-0.67
-0.67
-0.65
-0.605
-0.59
-0.575
-0.57
-0.555
-0.535
-0.51
-0.5
-0.49
-0.505
-0.495
-0.48
-0.46
-0.44
-0.43
-0.435
-0.44
-0.43
-0.405
-0.395
-0.415
-0.415
-0.42
-0.395
-0.38
-0.355
-0.375
-0.395
-0.41
-0.385
-0.365
-0.345
-0.355
-0.37
-0.37
-0.365
-0.35
-0.33
-0.34
-0.36
-0.365
-0.365
-0.36
-0.34
-0.35
-0.36
-0.37
-0.36
-0.37
-0.36
-0.345
-0.375
-0.37
-0.37
-0.355
-0.345
-0.345
-0.355
-0.36
-0.35
-0.345
-0.335
-0.355
-0.37
-0.385
-0.36
-0.35
-0.33
-0.325
-0.33
-0.36
-0.36
-0.35
-0.335
-0.32
-0.345
-0.35
-0.34
-0.325
-0.32
-0.31
-0.345
-0.345
-0.335
-0.315
-0.305
-0.335
-0.35
-0.365
-0.35
-0.35
-0.345
-0.36
-0.37
-0.375
-0.375
-0.365
-0.34
-0.335
-0.35
-0.375
-0.37
-0.36
-0.345
-0.355
-0.355
-0.36
-0.355
-0.35
-0.355
-0.37
-0.38
-0.37
-0.355
-0.345
-0.32
-0.335
-0.33
-0.345
-0.34
-0.315
-0.305
-0.33
-0.355
-0.36
-0.35
-0.33
-0.315
-0.34
-0.36
-0.37
-0.36
-0.33
-0.315
-0.315
-0.325
-0.345
-0.33
-0.335
-0.33
-0.34
-0.365
-0.365
-0.355
-0.33
-0.305
-0.32
-0.335
-0.345
-0.37
-0.35
-0.34
-0.335
-0.34
-0.34
-0.33
-0.315
-0.29
-0.3
-0.32
-0.34
-0.335
-0.33
-0.315
-0.325
-0.325
-0.34
-0.315
-0.295
-0.28
-0.285
-0.305
-0.315
-0.305
-0.31
-0.31
-0.315
-0.33
-0.33
-0.335
-0.32
-0.315
-0.305
-0.31
-0.315
-0.31
-0.285
-0.265
-0.28
-0.275
-0.3
-0.285
-0.27
-0.25
-0.23
-0.205
-0.18
-0.105
-0.005
0.11
0.245
0.405
0.58
0.78
0.95
1.11
