Lead II
0.02
-0.005
-0.025
-0.025
-0.025
-0.03
-0.03
-0.055
-0.06
-0.065
-0.065
-0.055
-0.07
-0.08
-0.1
-0.095
-0.09
-0.095
-0.1
-0.12
-0.12
-0.13
-0.115
-0.12
-0.115
-0.12
-0.115
-0.11
-0.12
-0.11
-0.11
-0.115
-0.09
-0.085
-0.08
-0.09
-0.095
-0.105
-0.12
-0.115
-0.125
-0.105
-0.115
-0.125
-0.135
-0.135
-0.145
-0.13
-0.13
-0.13
-0.14
-0.14
-0.125
-0.12
-0.135
-0.135
-0.145
-0.145
-0.14
-0.125
-0.145
-0.155
-0.155
-0.15
-0.15
-0.15
-0.155
-0.165
-0.165
-0.16
-0.15
-0.14
-0.15
-0.145
-0.155
-0.145
-0.135
-0.125
-0.135
-0.135
-0.155
-0.155
-0.135
-0.14
-0.15
-0.15
-0.165
-0.16
-0.16
-0.15
-0.165
-0.16
-0.18
-0.19
-0.185
-0.175
-0.155
-0.15
-0.155
-0.145
-0.135
-0.13
-0.13
-0.135
-0.145
-0.14
-0.145
-0.13
-0.14
-0.14
-0.15
-0.14
-0.135
-0.13
-0.135
-0.145
-0.165
-0.16
-0.15
-0.145
-0.15
-0.15
-0.15
-0.145
-0.145
-0.135
-0.125
-0.13
-0.135
-0.125
-0.11
-0.105
-0.095
-0.095
-0.105
-0.1
-0.09
-0.09
-0.085
-0.11
-0.135
-0.14
-0.135
-0.145
-0.155
-0.17
-0.175
-0.175
-0.155
-0.145
-0.155
-0.15
-0.165
-0.175
-0.17
-0.155
-0.155
-0.155
-0.165
-0.16
-0.145
-0.13
-0.135
-0.15
-0.165
-0.17
-0.195
-0.185
-0.195
-0.205
-0.195
-0.195
-0.165
-0.18
-0.175
-0.18
-0.205
-0.19
-0.175
-0.175
-0.175
-0.185
-0.19
-0.19
-0.21
-0.225
-0.235
-0.235
-0.185
-0.11
-0.025
0.09
0.2
0.31
0.41
0.52
0.635
0.77
0.895
0.97
0.98
0.905
0.78
0.625
0.385
0.08
-0.19
-0.365
-0.455
-0.465
-0.445
-0.395
-0.37
-0.355
-0.355
-0.35
-0.34
-0.345
-0.37
-0.39
-0.405
-0.405
-0.385
-0.39
-0.37
-0.335
-0.31
-0.3
-0.31
-0.32
-0.34
-0.35
-0.345
-0.335
-0.335
-0.335
-0.335
-0.34
-0.33
-0.32
-0.325
-0.335
-0.335
-0.33
-0.325
-0.32
-0.3
-0.31
-0.315
-0.315
-0.305
-0.305
-0.315
-0.33
-0.335
-0.33
-0.31
-0.305
-0.305
-0.315
-0.32
-0.305
-0.3
-0.295
-0.3
-0.295
-0.285
-0.275
-0.27
-0.28
-0.275
-0.28
-0.29
-0.3
-0.28
-0.28
-0.295
-0.315
-0.33
-0.32
-0.3
-0.275
-0.28
-0.28
-0.275
-0.27
-0.25
-0.23
-0.22
-0.235
-0.235
-0.225
-0.22
-0.215
-0.205
-0.22
-0.235
-0.23
-0.225
-0.205
-0.205
-0.205
-0.215
-0.195
-0.18
-0.19
-0.195
-0.195
-0.215
-0.21
-0.2
-0.195
-0.205
-0.2
-0.21
-0.21
-0.205
-0.21
-0.22
-0.235
-0.245
-0.245
-0.255
-0.245
-0.25
-0.26
-0.275
-0.275
-0.26
-0.255
-0.265
-0.285
-0.295
-0.285
-0.265
-0.265
-0.27
-0.265
-0.275
-0.265
-0.255
-0.245
-0.245
-0.24
-0.22
-0.205
-0.18
-0.145
-0.135
-0.13
-0.115
-0.11
-0.085
-0.075
-0.085
-0.105
-0.12
-0.12
-0.13
-0.185
-0.295
-0.47
-0.73
-1.085
-1.44
-1.75
-2.0
-2.16
-2.21
-2.2
-2.18
-2.17
-2.13
-2.06
-1.98
-1.86
-1.745
-1.64
-1.525
-1.42
-1.33
-1.225
-1.11
-1.025
-0.985
-0.95
-0.925
-0.885
-0.835
-0.78
-0.73
-0.7
-0.67
-0.62
-0.58
-0.53
-0.49
-0.435
-0.38
-0.305
-0.22
-0.16
-0.105
-0.05
-0.01
0.06
0.12
0.13
0.14
0.165
0.155
0.175
0.175
0.2
0.21
0.22
0.215
0.23
0.25
0.27
0.28
0.285
0.285
0.305
0.33
0.345
0.355
0.36
0.355
0.38
0.395
0.42
0.44
0.435
0.445
0.46
0.48
0.485
0.49
0.495
0.5
0.53
0.545
0.56
0.57
0.565
0.555
0.55
0.575
0.585
0.59
0.585
0.575
0.575
0.585
0.585
0.585
0.58
0.565
0.56
0.555
0.55
0.54
0.51
0.47
0.44
0.425
0.425
0.415
0.39
0.35
0.325
0.295
0.27
0.245
0.215
0.19
0.175
0.17
0.15
0.125
0.09
0.08
0.065
0.055
0.035
0.01
-0.005
-0.03
-0.035
-0.05
-0.06
-0.075
-0.085
-0.115
-0.125
-0.115
-0.125
-0.145
-0.16
-0.17
-0.18
-0.175
-0.18
-0.18
-0.18
-0.19
-0.185
-0.185
-0.185
-0.18
-0.185
-0.195
-0.195
-0.195
-0.205
-0.215
-0.23
-0.225
-0.235
-0.225
-0.215
-0.215
-0.215
-0.22
-0.205
-0.21
-0.205
-0.22
-0.215
-0.225
-0.225
-0.2
-0.21
-0.21
-0.23
-0.235
-0.245
-0.26
-0.26
-0.25
-0.26
-0.265
-0.25
-0.24
-0.24
-0.23
-0.23
-0.25
-0.245
-0.235
-0.23
-0.23
-0.24
-0.245
-0.24
-0.235
-0.23
-0.23
-0.24
-0.26
-0.26
-0.255
-0.25
-0.24
-0.25
-0.26
-0.27
-0.265
-0.25
-0.25
-0.245
-0.245
-0.26
-0.245
-0.245
-0.245
-0.255
-0.265
-0.265
-0.25
-0.235
-0.255
-0.255
-0.265
-0.25
-0.235
-0.23
-0.24
-0.25
-0.26
-0.26
-0.26
-0.235
-0.23
-0.235
-0.235
-0.225
-0.215
-0.215
-0.215
-0.23
-0.225
-0.205
-0.21
-0.215
-0.215
-0.215
-0.235
-0.24
-0.23
-0.22
-0.235
-0.225
-0.225
-0.225
-0.215
-0.21
-0.2
-0.2
-0.19
-0.175
-0.16
-0.16
-0.17
-0.17
-0.175
-0.155
-0.14
-0.13
-0.125
-0.14
-0.165
-0.17
-0.175
-0.195
-0.205
-0.23
-0.245
-0.235
-0.23
-0.22
-0.23
-0.215
-0.225
-0.225
-0.2
-0.19
-0.185
-0.2
-0.21
-0.195
-0.19
-0.16
-0.165
-0.16
-0.175
-0.175
-0.19
-0.19
-0.205
-0.23
-0.24
-0.235
-0.225
-0.225
-0.225
-0.23
-0.24
-0.225
-0.21
-0.205
-0.205
-0.21
-0.215
-0.22
-0.215
-0.21
-0.215
-0.215
-0.22
-0.22
-0.23
-0.245
-0.235
-0.225
-0.19
-0.12
-0.045
0.05
0.14
0.235
0.315
0.405
0.51
0.62
0.75
0.87
0.955
1.05
1.075
1.035
0.95
0.815
0.63
0.335
-0.015
-0.275
-0.415
-0.495
-0.55
-0.54
-0.495
-0.455
-0.41
-0.395
-0.4
-0.4
-0.375
-0.355
-0.36
-0.37
-0.385
-0.375
-0.375
-0.375
-0.37
-0.36
-0.365
-0.36
-0.325
-0.31
-0.31
-0.31
-0.32
-0.315
-0.305
-0.315
-0.31
-0.315
-0.33
-0.335
-0.32
-0.31
-0.32
-0.325
-0.335
-0.315
-0.315
-0.29
-0.305
-0.3
-0.32
-0.315
-0.305
-0.285
-0.29
-0.295
-0.31
-0.29
-0.295
-0.27
-0.265
-0.275
-0.295
-0.295
-0.29
-0.27
-0.275
-0.275
-0.3
-0.285
-0.28
-0.28
-0.27
-0.275
-0.275
-0.28
-0.28
-0.28
-0.275
-0.28
-0.275
-0.255
-0.245
-0.255
-0.255
-0.26
-0.285
-0.275
-0.27
-0.245
-0.255
-0.275
-0.28
-0.27
-0.245
-0.215
-0.23
-0.22
-0.23
-0.23
-0.22
-0.215
-0.215
-0.215
-0.21
-0.195
-0.185
-0.165
-0.175
-0.175
-0.18
-0.17
-0.16
-0.155
-0.155
-0.165
-0.165
-0.165
-0.16
-0.15
-0.135
-0.135
-0.14
-0.135
-0.115
-0.105
-0.11
-0.12
-0.125
-0.12
-0.12
-0.12
-0.12
-0.125
-0.125
-0.135
-0.145
-0.14
-0.14
-0.145
-0.16
-0.17
-0.145
-0.145
-0.145
-0.15
-0.165
-0.145
-0.135
-0.135
-0.14
-0.15
-0.17
-0.165
-0.15
-0.155
-0.165
-0.175
-0.19
-0.19
-0.19
-0.19
-0.2
-0.185
-0.21
-0.205
-0.205
-0.2
-0.21
-0.21
-0.22
-0.205
-0.195
-0.2
-0.19
-0.2
-0.21
-0.205
-0.2
-0.19
-0.19
-0.2
-0.2
-0.2
-0.19
-0.185
-0.185
-0.2
-0.205
-0.195
-0.175
-0.17
-0.175
-0.17
-0.16
-0.15
-0.13
-0.125
-0.12
-0.12
-0.12
-0.1
-0.105
-0.095
-0.12
-0.15
-0.165
-0.155
-0.16
-0.145
-0.145
-0.155
-0.175
-0.165
-0.155
-0.145
-0.15
-0.165
-0.17
-0.155
-0.135
-0.125
-0.115
-0.105
-0.115
-0.105
-0.11
-0.115
-0.115
-0.14
-0.155
-0.165
-0.16
-0.16
-0.16
-0.175
-0.18
-0.175
-0.165
-0.16
-0.155
-0.16
-0.165
-0.15
-0.15
-0.145
-0.15
-0.155
-0.17
-0.19
-0.195
-0.19
-0.165
-0.115
-0.06
0.035
0.13
0.245
0.345
0.425
0.495
0.61
0.73
0.875
0.975
1.04
1.05
0.99
0.91
0.8
0.6
0.3
0.0
-0.23
-0.35
-0.39
-0.39
-0.35
-0.315
-0.265
-0.23
-0.23
-0.255
-0.27
-0.295
-0.29
-0.295
-0.285
-0.295
-0.3
-0.305
-0.305
-0.275
-0.25
-0.225
-0.225
-0.22
-0.22
-0.215
-0.21
-0.21
-0.22
-0.23
-0.22
-0.215
-0.22
-0.215
-0.215
-0.25
-0.235
-0.23
-0.215
-0.22
-0.22
-0.235
-0.22
-0.205
-0.2
-0.19
-0.195
-0.19
-0.185
-0.17
-0.175
-0.18
-0.175
-0.18
-0.17
-0.16
-0.145
-0.14
-0.14
-0.15
-0.145
-0.13
-0.115
-0.13
-0.13
-0.13
-0.125
-0.11
-0.105
-0.105
-0.1
-0.095
-0.09
-0.08
-0.045
-0.045
-0.04
-0.055
-0.05
-0.045
-0.025
-0.025
-0.025
-0.035
-0.015
-0.025
-0.01
0.01
0.005
-0.02
-0.005
0.0
0.01
0.01
-0.005
-0.01
-0.01
0.01
0.02
0.015
0.01
-0.005
-0.01
-0.005
-0.005
-0.01
-0.025
-0.045
-0.05
-0.045
-0.05
-0.05
-0.055
-0.07
-0.07
-0.08
-0.08
-0.09
-0.105
-0.125
-0.105
-0.1
-0.09
-0.09
-0.105
-0.11
-0.105
-0.105
-0.095
-0.12
-0.125
-0.135
-0.135
-0.125
-0.12
-0.13
-0.12
-0.14
-0.13
-0.135
-0.145
-0.155
-0.165
-0.19
-0.18
-0.19
-0.195
-0.185
-0.185
-0.2
-0.2
-0.205
-0.2
-0.195
-0.21
-0.215
-0.215
-0.205
-0.2
-0.195
-0.2
-0.215
-0.21
-0.21
-0.205
-0.205
-0.215
-0.215
-0.22
-0.21
-0.21
-0.21
-0.205
-0.23
-0.22
-0.195
-0.195
-0.2
-0.2
-0.2
-0.195
-0.18
-0.175
-0.165
-0.165
-0.17
-0.155
-0.16
-0.15
-0.145
-0.14
-0.145
-0.145
-0.13
-0.125
-0.135
-0.12
-0.15
-0.15
-0.16
-0.16
-0.17
-0.175
-0.18
-0.18
-0.185
-0.17
-0.165
-0.175
-0.19
-0.185
-0.185
-0.175
-0.17
-0.175
-0.175
-0.18
-0.165
-0.16
-0.15
-0.15
-0.17
-0.17
-0.17
-0.175
-0.195
-0.205
-0.215
-0.21
-0.195
-0.175
-0.185
-0.185
-0.205
-0.195
-0.19
-0.185
-0.18
-0.195
-0.195
-0.17
-0.18
-0.165
-0.165
-0.175
-0.19
-0.205
-0.225
-0.235
-0.225
-0.23
-0.205
-0.14
-0.04
0.055
0.165
0.245
0.335
0.435
0.54
0.665
0.785
0.88
0.91
0.875
0.775
0.67
0.535
0.32
0.025
-0.23
-0.4
-0.475
-0.5
-0.475
-0.445
-0.395
-0.355
-0.335
-0.325
-0.31
-0.33
-0.32
-0.325
-0.335
-0.345
-0.355
-0.37
-0.36
-0.35
-0.325
-0.305
-0.305
-0.305
-0.29
-0.29
-0.29
-0.3
-0.3
-0.31
-0.31
-0.285
-0.28
-0.28
-0.285
-0.295
-0.28
-0.275
-0.265
-0.275
-0.27
-0.29
-0.275
-0.265
-0.26
-0.26
-0.26
-0.28
-0.265
-0.27
-0.26
-0.26
-0.26
-0.265
-0.25
-0.25
-0.23
-0.24
-0.225
-0.24
-0.23
-0.2
-0.185
-0.18
-0.18
-0.195
-0.185
-0.165
-0.165
-0.16
-0.17
-0.16
-0.16
-0.155
-0.14
-0.13
-0.135
-0.15
-0.155
-0.145
-0.13
-0.115
-0.105
-0.12
-0.105
-0.09
-0.075
-0.075
-0.07
-0.08
-0.065
-0.06
-0.07
-0.08
-0.075
-0.1
-0.1
-0.1
-0.095
-0.11
-0.13
-0.13
-0.125
-0.13
-0.125
-0.135
-0.14
-0.15
-0.15
-0.145
-0.155
-0.15
-0.16
-0.18
-0.175
-0.18
-0.17
-0.175
-0.175
-0.185
-0.195
-0.19
-0.19
-0.195
-0.21
-0.21
-0.22
-0.205
-0.215
-0.215
-0.22
-0.22
-0.22
-0.215
-0.21
-0.21
-0.215
-0.225
-0.23
-0.225
-0.245
-0.25
-0.27
-0.27
-0.26
-0.245
-0.255
-0.27
-0.285
-0.3
-0.295
-0.285
-0.285
-0.295
-0.285
-0.3
-0.305
-0.295
-0.295
-0.285
-0.285
-0.295
-0.295
-0.295
-0.27
-0.265
-0.275
-0.29
-0.29
-0.28
-0.265
-0.25
-0.275
-0.285
-0.275
-0.275
-0.27
-0.275
-0.275
-0.29
-0.275
-0.245
-0.225
-0.22
-0.22
-0.215
-0.215
-0.205
-0.2
-0.2
-0.205
-0.22
-0.2
-0.19
-0.19
-0.19
-0.21
-0.225
-0.23
-0.225
-0.23
-0.225
-0.23
-0.24
-0.225
-0.22
-0.21
-0.2
-0.215
-0.235
-0.235
-0.225
-0.21
-0.2
-0.21
-0.22
-0.215
-0.2
-0.185
-0.185
-0.19
-0.205
-0.215
-0.21
-0.23
-0.24
-0.25
-0.265
-0.28
-0.26
-0.245
-0.24
-0.245
-0.24
-0.24
-0.23
-0.23
-0.225
-0.23
-0.245
-0.235
-0.23
-0.22
-0.22
-0.225
-0.245
-0.25
-0.255
-0.25
-0.24
-0.205
-0.16
-0.11
-0.035
0.06
0.15
0.255
0.335
0.435
0.525
0.625
0.74
0.825
0.895
0.965
0.965
0.915
0.79
0.64
0.42
0.125
-0.175
-0.36
-0.46
-0.525
-0.555
-0.525
-0.465
-0.42
-0.39
-0.395
-0.4
-0.38
-0.355
-0.36
-0.355
-0.375
-0.39
-0.395
-0.37
-0.35
-0.345
-0.34
-0.34
-0.31
-0.295
-0.275
-0.275
-0.295
-0.295
-0.29
-0.28
-0.28
-0.285
-0.29
-0.31
-0.3
-0.29
-0.28
-0.28
-0.285
-0.295
-0.29
-0.27
-0.25
-0.25
-0.25
-0.265
-0.24
-0.245
-0.225
-0.215
-0.225
-0.23
-0.23
-0.235
-0.21
-0.205
-0.205
-0.215
-0.205
-0.2
-0.175
-0.18
-0.185
-0.195
-0.16
-0.145
-0.13
-0.115
-0.135
-0.125
-0.11
-0.105
-0.1
-0.085
-0.095
-0.095
-0.085
-0.085
-0.065
-0.065
-0.075
-0.075
-0.08
-0.065
-0.045
-0.04
-0.045
-0.06
-0.04
-0.05
-0.035
-0.025
-0.035
-0.045
-0.05
-0.03
-0.025
-0.05
-0.05
-0.065
-0.07
-0.05
-0.055
-0.07
-0.09
-0.11
-0.1
-0.095
-0.095
-0.1
-0.105
-0.115
-0.1
-0.095
-0.085
-0.09
-0.11
-0.12
-0.115
-0.12
-0.115
-0.12
-0.14
-0.145
-0.14
-0.13
-0.125
-0.145
-0.155
-0.165
-0.155
-0.155
-0.155
-0.15
-0.165
-0.17
-0.165
-0.165
-0.16
-0.16
-0.18
-0.185
-0.19
-0.185
-0.185
-0.185
-0.19
-0.195
-0.21
-0.21
-0.19
-0.2
-0.2
-0.215
-0.205
-0.195
-0.18
-0.19
-0.195
-0.2
-0.185
-0.17
-0.155
-0.16
-0.165
-0.17
-0.155
-0.155
-0.14
-0.14
-0.135
-0.14
-0.13
-0.11
-0.11
-0.105
-0.11
-0.095
-0.09
-0.065
-0.055
-0.055
-0.085
-0.1
-0.125
-0.11
-0.11
-0.115
-0.125
-0.14
-0.135
-0.12
-0.11
-0.115
-0.14
-0.16
-0.155
-0.13
-0.13
-0.12
-0.12
-0.12
-0.115
-0.09
-0.1
-0.1
-0.11
-0.14
-0.145
-0.13
-0.125
-0.125
-0.125
-0.135
-0.135
-0.13
-0.12
-0.125
-0.14
-0.145
-0.145
-0.125
-0.125
-0.11
-0.12
-0.13
-0.135
-0.145
-0.14
-0.145
-0.135
-0.1
-0.02
0.095
0.225
0.345
0.44
0.535
0.65
0.79
0.945
1.075
1.14
1.135
1.055
0.93
0.775
0.5
0.16
-0.13
-0.3
-0.355
-0.355
-0.32
-0.28
-0.245
-0.21
-0.2
-0.215
-0.23
-0.25
-0.255
-0.27
-0.27
-0.275
-0.265
-0.265
-0.275
-0.245
-0.24
-0.215
-0.21
-0.22
-0.235
-0.235
-0.22
-0.205
-0.19
-0.195
-0.2
-0.205
-0.19
-0.18
-0.195
-0.205
-0.21
-0.2
-0.205
-0.205
-0.2
-0.205
-0.205
-0.2
-0.185
-0.17
-0.165
-0.18
-0.185
-0.17
-0.18
-0.155
-0.145
-0.13
-0.14
-0.13
-0.115
-0.105
-0.11
-0.105
-0.11
-0.095
-0.075
-0.065
-0.07
-0.075
-0.075
-0.075
-0.065
-0.045
-0.035
-0.055
-0.055
-0.04
-0.02
-0.01
0.005
0.005
0.0
0.005
0.025
0.04
0.04
0.035
0.035
0.035
0.045
0.05
0.05
0.04
0.02
0.025
0.03
0.035
0.02
0.015
0.015
0.0
0.0
-0.005
0.005
-0.005
-0.015
-0.01
-0.02
-0.015
-0.02
-0.035
-0.04
-0.045
-0.045
-0.04
-0.04
-0.055
-0.065
-0.055
-0.06
-0.06
-0.065
-0.06
-0.06
-0.065
-0.07
-0.06
-0.05
-0.065
-0.095
-0.09
-0.075
-0.075
-0.085
-0.09
-0.1
-0.11
-0.115
-0.12
-0.115
-0.125
-0.135
-0.14
-0.14
-0.14
-0.135
-0.155
-0.16
-0.145
-0.14
-0.14
-0.14
-0.15
-0.16
-0.16
-0.145
-0.145
-0.145
-0.145
-0.15
-0.145
-0.145
-0.145
-0.145
-0.15
-0.16
-0.145
-0.13
-0.115
-0.11
-0.11
-0.11
-0.1
-0.1
-0.085
-0.08
-0.085
-0.08
-0.06
-0.055
-0.045
-0.045
-0.04
-0.07
-0.06
-0.04
-0.03
-0.045
-0.06
-0.08
-0.085
-0.085
-0.08
-0.085
-0.09
-0.105
-0.095
-0.09
-0.09
-0.08
-0.08
-0.095
-0.095
-0.08
-0.075
-0.065
-0.07
-0.07
-0.085
-0.07
-0.055
-0.075
-0.08
-0.115
-0.115
-0.11
-0.095
-0.105
-0.115
-0.12
-0.1
-0.09
-0.08
-0.085
-0.095
-0.095
-0.1
-0.08
-0.075
-0.075
-0.09
-0.115
-0.135
-0.15
-0.125
-0.065
0.005
0.105
0.205
0.335
0.455
0.585
0.715
0.845
0.975
1.1
1.17
1.13
0.995
0.825
0.585
0.27
-0.02
-0.22
-0.32
-0.34
-0.295
-0.21
-0.17
-0.14
-0.17
-0.21
-0.21
-0.215
-0.22
-0.225
-0.23
-0.24
-0.235
-0.23
-0.22
-0.2
-0.19
-0.2
-0.2
-0.205
-0.205
-0.205
-0.205
-0.21
-0.21
-0.195
-0.185
-0.18
-0.185
-0.195
-0.19
-0.2
-0.19
-0.175
-0.175
-0.195
-0.18
-0.17
-0.165
-0.16
-0.165
-0.18
-0.17
-0.155
-0.15
-0.145
-0.14
-0.155
-0.135
-0.125
-0.1
-0.1
-0.1
-0.1
-0.09
-0.08
-0.055
-0.05
-0.055
-0.055
-0.05
-0.045
-0.025
-0.025
-0.025
-0.045
-0.025
-0.015
0.0
0.015
0.01
0.015
0.025
0.045
0.05
0.055
0.045
0.035
0.04
0.045
0.035
0.03
0.03
0.015
0.01
0.01
0.0
-0.01
-0.025
-0.05
-0.06
-0.05
-0.025
-0.03
-0.035
-0.05
-0.065
-0.055
-0.055
-0.06
-0.06
-0.09
-0.08
-0.08
-0.07
-0.075
-0.085
-0.105
-0.12
-0.1
-0.095
-0.105
-0.12
-0.125
-0.13
-0.125
-0.125
-0.135
-0.13
-0.145
-0.15
-0.15
-0.155
-0.165
-0.165
-0.19
-0.17
-0.16
-0.18
-0.2
-0.195
-0.215
-0.21
-0.205
-0.195
-0.19
-0.2
-0.215
-0.21
-0.205
-0.185
-0.175
-0.185
-0.195
-0.2
-0.2
-0.19
-0.19
-0.19
-0.195
-0.19
-0.185
-0.185
-0.19
-0.195
-0.215
-0.205
-0.19
-0.185
-0.185
-0.175
-0.18
-0.17
-0.165
-0.155
-0.145
-0.145
-0.145
-0.15
-0.135
-0.135
-0.125
-0.125
-0.14
-0.125
-0.12
-0.105
-0.11
-0.115
-0.14
-0.15
-0.145
-0.155
-0.145
-0.15
-0.175
-0.165
-0.165
-0.16
-0.15
-0.16
-0.16
-0.175
-0.175
-0.16
-0.16
-0.16
-0.175
-0.15
-0.14
-0.14
-0.15
-0.165
-0.18
-0.18
-0.18
-0.18
-0.19
-0.19
-0.21
-0.215
-0.21
-0.2
-0.2
-0.19
-0.195
-0.2
-0.195
-0.18
-0.18
-0.185
-0.19
-0.19
-0.175
-0.16
-0.165
-0.195
-0.23
-0.23
-0.215
-0.175
-0.105
-0.035
0.06
0.14
0.255
0.365
0.43
0.545
0.65
0.79
0.905
0.965
0.935
0.825
0.7
0.545
0.32
0.03
-0.225
-0.385
-0.465
-0.485
-0.47
-0.415
-0.365
-0.335
-0.33
-0.32
-0.305
-0.29
-0.3
-0.32
-0.335
-0.34
-0.34
-0.33
-0.32
-0.325
-0.32
-0.305
-0.27
-0.29
-0.28
-0.285
-0.305
-0.31
-0.295
-0.3
-0.29
-0.295
-0.31
-0.3
-0.29
-0.265
-0.27
-0.28
-0.285
-0.29
-0.285
-0.265
-0.25
-0.25
-0.26
-0.255
-0.25
-0.25
-0.265
-0.265
-0.27
-0.255
-0.255
-0.245
-0.245
-0.25
-0.26
-0.245
-0.22
-0.195
-0.185
-0.185
-0.195
-0.185
-0.195
-0.17
-0.175
-0.175
-0.175
-0.155
-0.15
-0.125
-0.13
-0.14
-0.135
-0.15
-0.14
-0.12
-0.11
-0.12
-0.13
-0.12
-0.105
-0.075
-0.075
-0.075
-0.08
-0.075
-0.07
-0.07
-0.08
-0.08
-0.085
-0.09
-0.09
-0.095
-0.095
-0.105
-0.115
-0.13
-0.14
-0.135
-0.145
-0.16
-0.175
-0.175
-0.17
-0.15
-0.155
-0.155
-0.17
-0.17
-0.17
-0.155
-0.16
-0.175
-0.195
-0.18
-0.18
-0.18
-0.175
-0.175
-0.19
-0.195
-0.2
-0.195
-0.2
-0.215
-0.22
-0.22
-0.215
-0.215
-0.21
-0.21
-0.21
-0.22
-0.215
-0.215
-0.215
-0.225
-0.24
-0.235
-0.245
-0.24
-0.25
-0.27
-0.28
-0.275
-0.265
-0.26
-0.26
-0.27
-0.29
-0.29
-0.26
-0.255
-0.25
-0.265
-0.275
-0.275
-0.27
-0.26
-0.25
-0.25
-0.275
-0.275
-0.265
-0.25
-0.26
-0.265
-0.28
-0.27
-0.28
-0.255
-0.26
-0.255
-0.26
-0.255
-0.245
-0.23
-0.225
-0.225
-0.23
-0.23
-0.225
-0.21
-0.21
-0.215
-0.23
-0.225
-0.21
-0.195
-0.19
-0.195
-0.2
-0.195
-0.185
-0.18
-0.19
-0.19
-0.195
-0.18
-0.18
-0.16
-0.155
-0.155
-0.155
-0.175
-0.17
-0.165
-0.17
-0.185
-0.205
-0.195
-0.2
-0.19
-0.205
-0.2
-0.2
-0.185
-0.175
-0.18
-0.19
-0.2
-0.215
-0.215
-0.215
-0.18
-0.175
-0.175
-0.185
-0.185
-0.165
-0.155
-0.175
-0.185
-0.195
-0.215
-0.195
-0.19
-0.19
-0.195
-0.215
-0.21
-0.2
-0.19
-0.18
-0.185
-0.185
-0.195
-0.2
-0.185
-0.18
-0.195
-0.195
-0.19
-0.19
-0.175
-0.19
-0.2
-0.21
-0.215
-0.19
-0.145
-0.095
-0.02
0.035
0.13
0.215
0.305
0.39
0.465
0.555
0.67
0.785
0.915
1.02
1.07
1.08
1.035
0.96
0.84
0.655
0.35
0.005
-0.26
-0.38
-0.435
-0.475
-0.48
-0.47
-0.41
-0.36
-0.3
-0.295
-0.285
-0.29
-0.29
-0.28
-0.275
-0.3
-0.32
-0.33
-0.33
-0.32
-0.315
-0.305
-0.295
-0.29
-0.28
-0.28
-0.265
-0.26
-0.255
-0.265
-0.255
-0.245
-0.23
-0.245
-0.24
-0.255
-0.255
-0.25
-0.23
-0.23
-0.245
-0.25
-0.245
-0.235
-0.225
-0.22
-0.23
-0.235
-0.24
-0.235
-0.23
-0.23
-0.24
-0.235
-0.235
-0.23
-0.215
-0.215
-0.225
-0.225
-0.225
-0.215
-0.185
-0.17
-0.17
-0.185
-0.17
-0.16
-0.15
-0.14
-0.14
-0.145
-0.135
-0.13
-0.12
-0.12
-0.13
-0.135
-0.115
-0.105
-0.1
-0.09
-0.09
-0.11
-0.1
-0.08
-0.07
-0.055
-0.055
-0.05
-0.07
-0.045
-0.025
-0.01
-0.02
-0.025
-0.025
-0.015
-0.005
-0.005
-0.005
-0.015
-0.005
0.005
0.015
0.015
0.0
-0.02
-0.015
-0.025
-0.02
-0.015
-0.03
-0.045
-0.045
-0.04
-0.035
-0.04
-0.055
-0.06
-0.06
-0.06
-0.07
-0.07
-0.08
-0.085
-0.085
-0.08
-0.075
-0.08
-0.09
-0.105
-0.12
-0.11
-0.095
-0.1
-0.105
-0.135
-0.115
-0.105
-0.1
-0.115
-0.12
-0.135
-0.12
-0.11
-0.1
-0.1
-0.105
-0.125
-0.125
-0.12
-0.115
-0.11
-0.11
-0.13
-0.135
-0.13
-0.13
-0.14
-0.16
-0.18
-0.165
-0.17
-0.155
-0.16
-0.16
-0.17
-0.17
-0.175
-0.17
-0.16
-0.17
-0.175
-0.175
-0.165
-0.16
-0.165
-0.16
-0.175
-0.17
-0.16
-0.16
-0.16
-0.175
-0.165
-0.16
-0.165
-0.16
-0.145
-0.145
-0.165
-0.155
-0.145
-0.125
-0.125
-0.135
-0.14
-0.12
-0.11
-0.1
-0.105
-0.11
-0.11
-0.11
-0.08
-0.07
-0.06
-0.075
-0.065
-0.07
-0.055
-0.05
-0.05
-0.055
-0.08
-0.09
-0.09
-0.09
-0.105
-0.105
-0.105
-0.11
-0.09
-0.095
-0.095
-0.11
-0.1
-0.105
-0.105
-0.1
-0.105
-0.115
-0.125
-0.11
-0.085
-0.08
-0.1
-0.105
-0.1
-0.1
-0.09
-0.095
-0.105
-0.12
-0.13
-0.13
-0.115
-0.11
-0.105
-0.105
-0.115
-0.11
-0.105
-0.085
-0.09
-0.1
-0.1
-0.1
-0.105
-0.09
-0.09
-0.1
-0.115
-0.13
-0.145
-0.145
-0.13
-0.085
-0.03
0.05
0.135
0.22
0.33
0.415
0.505
0.61
0.75
0.9
1.02
1.105
1.155
1.185
1.12
1.01
0.845
0.59
0.235
-0.05
-0.22
-0.285
-0.315
-0.33
-0.29
-0.245
-0.2
-0.17
-0.17
-0.2
-0.22
-0.225
-0.23
-0.22
-0.235
-0.24
-0.25
-0.25
-0.245
-0.22
-0.21
-0.205
-0.22
-0.22
-0.21
-0.21
-0.215
-0.225
-0.21
-0.215
-0.215
-0.2
-0.2
-0.2
-0.22
-0.22
-0.2
-0.19
-0.185
-0.2
-0.21
-0.215
-0.215
-0.2
-0.195
-0.195
-0.195
-0.195
-0.205
-0.19
-0.195
-0.195
-0.195
-0.18
-0.18
-0.175
-0.165
-0.165
-0.17
-0.165
-0.15
-0.125
-0.12
-0.12
-0.115
-0.115
-0.115
-0.1
-0.095
-0.105
-0.095
-0.095
-0.08
-0.08
-0.06
-0.065
-0.085
-0.065
-0.065
-0.05
-0.045
-0.045
-0.05
-0.04
-0.035
-0.03
-0.01
0.0
-0.015
0.0
0.015
0.035
0.025
0.025
0.025
0.02
0.03
0.035
0.04
0.03
0.015
0.015
0.02
0.03
0.02
0.0
-0.015
-0.025
-0.01
-0.025
-0.01
-0.015
-0.025
-0.025
-0.02
-0.02
-0.02
-0.025
-0.04
-0.04
-0.05
-0.05
-0.065
-0.055
-0.055
-0.05
-0.05
-0.05
-0.045
-0.045
-0.055
-0.055
-0.055
-0.065
-0.045
-0.055
-0.08
-0.075
-0.08
-0.085
-0.08
-0.08
-0.095
-0.095
-0.09
-0.085
-0.08
-0.1
-0.105
-0.11
-0.105
-0.1
-0.1
-0.105
-0.11
-0.115
-0.115
-0.12
-0.115
-0.125
-0.12
-0.13
-0.14
-0.12
-0.125
-0.14
-0.16
-0.155
-0.15
-0.145
-0.15
-0.15
-0.155
-0.145
-0.15
-0.14
-0.145
-0.14
-0.15
-0.15
-0.125
-0.12
-0.12
-0.13
-0.14
-0.14
-0.135
-0.12
-0.12
-0.12
-0.14
-0.14
-0.145
-0.125
-0.12
-0.13
-0.125
-0.13
-0.12
-0.115
-0.095
-0.08
-0.095
-0.095
-0.07
-0.075
-0.07
-0.065
-0.07
-0.07
-0.05
-0.045
-0.03
-0.03
-0.04
-0.04
-0.04
-0.025
-0.02
-0.02
-0.035
-0.035
-0.03
-0.035
-0.05
-0.055
-0.07
-0.075
-0.075
-0.065
-0.075
-0.08
-0.095
-0.085
-0.085
-0.07
-0.07
-0.085
-0.11
-0.105
-0.09
-0.07
-0.065
-0.075
-0.08
-0.07
-0.065
-0.045
-0.05
-0.055
-0.08
-0.09
-0.09
-0.095
-0.09
-0.085
-0.095
-0.105
-0.095
-0.08
-0.08
-0.1
-0.09
-0.085
-0.09
-0.065
-0.07
-0.07
-0.08
-0.08
-0.075
-0.075
-0.095
-0.115
-0.15
-0.145
-0.145
-0.1
-0.03
0.04
0.125
0.235
0.34
0.44
0.525
0.615
0.72
0.865
1.005
1.12
1.18
1.155
1.04
0.93
0.775
0.55
0.215
-0.07
-0.25
-0.32
-0.31
-0.285
-0.235
-0.18
-0.16
-0.165
-0.175
-0.19
-0.185
-0.205
-0.23
-0.235
-0.235
-0.24
-0.235
-0.235
-0.24
-0.225
-0.205
-0.185
-0.185
-0.19
-0.215
-0.21
-0.205
-0.205
-0.22
-0.21
-0.22
-0.22
-0.205
-0.2
-0.185
-0.195
-0.2
-0.2
-0.2
-0.185
-0.175
-0.185
-0.185
-0.18
-0.175
-0.17
-0.175
-0.185
-0.18
-0.19
-0.17
-0.15
-0.145
-0.155
-0.16
-0.16
-0.15
-0.12
-0.105
-0.105
-0.095
-0.09
-0.09
-0.075
-0.075
-0.085
-0.085
-0.075
-0.065
-0.05
-0.045
-0.05
-0.05
-0.05
-0.04
-0.03
-0.005
-0.005
-0.015
-0.005
0.015
0.01
0.02
0.025
0.025
0.025
0.025
0.04
0.04
0.03
0.005
0.005
0.005
0.005
-0.005
-0.015
-0.055
-0.055
-0.05
-0.05
-0.055
-0.065
-0.06
-0.055
-0.06
-0.05
-0.055
-0.06
-0.085
-0.085
-0.09
-0.06
-0.075
-0.085
-0.09
-0.09
-0.09
-0.085
-0.105
-0.105
-0.115
-0.12
-0.115
-0.11
-0.11
-0.115
-0.115
-0.14
-0.15
-0.135
-0.14
-0.145
-0.16
-0.15
-0.15
-0.16
-0.165
-0.165
-0.17
-0.18
-0.175
-0.18
-0.18
-0.19
-0.205
-0.21
-0.205
-0.185
-0.2
-0.185
-0.205
-0.2
-0.195
-0.185
-0.2
-0.2
-0.21
-0.205
-0.195
-0.18
-0.185
-0.18
-0.185
-0.19
-0.19
-0.18
-0.185
-0.185
-0.195
-0.2
-0.195
-0.185
-0.18
-0.175
-0.165
-0.15
-0.14
-0.145
-0.15
-0.17
-0.17
-0.175
-0.165
-0.155
-0.15
-0.155
-0.155
-0.16
-0.165
-0.17
-0.17
-0.19
-0.195
-0.195
-0.18
-0.18
-0.17
-0.17
-0.18
-0.18
-0.175
-0.17
-0.175
-0.17
-0.18
-0.17
-0.17
-0.16
-0.16
-0.175
-0.18
-0.18
-0.18
-0.165
-0.17
-0.17
-0.17
-0.18
-0.18
-0.17
-0.175
-0.18
-0.19
-0.185
-0.185
-0.17
-0.19
-0.17
-0.175
-0.175
-0.18
-0.16
-0.165
-0.185
-0.2
-0.185
-0.18
-0.17
-0.155
-0.155
-0.165
-0.185
-0.175
-0.185
-0.195
-0.2
-0.195
-0.2
-0.18
-0.165
-0.175
-0.175
-0.175
-0.18
-0.175
-0.17
-0.185
-0.185
-0.18
-0.18
-0.19
-0.17
-0.185
-0.175
-0.195
-0.2
-0.2
-0.185
-0.185
-0.19
-0.2
-0.175
-0.16
-0.145
-0.14
-0.155
-0.155
-0.155
-0.14
-0.12
-0.115
-0.1
-0.11
-0.115
-0.105
-0.115
-0.14
-0.16
-0.19
-0.2
-0.19
-0.18
-0.185
-0.195
-0.205
-0.205
-0.195
-0.185
-0.195
-0.19
-0.2
-0.205
-0.18
-0.155
-0.155
-0.145
-0.155
-0.155
-0.15
-0.145
-0.155
-0.165
-0.185
-0.185
-0.2
-0.185
-0.205
-0.2
-0.21
-0.2
-0.195
-0.18
-0.18
-0.17
-0.18
-0.175
-0.18
-0.165
-0.17
-0.18
-0.215
-0.22
-0.2
-0.13
-0.035
0.055
0.155
0.255
0.345
0.455
0.55
0.68
0.805
0.945
1.05
1.07
0.985
0.87
0.69
0.425
0.08
-0.24
-0.425
-0.505
-0.51
-0.48
-0.43
-0.37
-0.355
-0.335
-0.335
-0.335
-0.32
-0.315
-0.335
-0.355
-0.365
-0.37
-0.345
-0.315
-0.285
-0.265
-0.275
-0.265
-0.28
-0.26
-0.27
-0.27
-0.275
-0.275
-0.265
-0.26
-0.265
-0.275
-0.285
-0.295
-0.29
-0.28
-0.285
-0.27
-0.275
-0.27
-0.26
-0.245
-0.235
-0.24
-0.24
-0.255
-0.24
-0.23
-0.23
-0.225
-0.23
-0.205
-0.2
-0.19
-0.19
-0.195
-0.2
-0.21
-0.2
-0.185
-0.185
-0.185
-0.185
-0.2
-0.175
-0.165
-0.155
-0.15
-0.15
-0.17
-0.15
-0.125
-0.115
-0.125
-0.11
-0.115
-0.11
-0.1
-0.08
-0.095
-0.095
-0.105
-0.09
-0.065
-0.06
-0.065
-0.065
-0.065
-0.055
-0.05
-0.05
-0.045
-0.05
-0.055
-0.055
-0.03
-0.035
-0.04
-0.045
-0.055
-0.05
-0.05
-0.05
-0.075
-0.08
-0.095
-0.11
-0.09
