Lead II
-0.475
-0.47
-0.495
-0.505
-0.495
-0.495
-0.51
-0.55
-0.58
-0.615
-0.615
-0.62
-0.655
-0.69
-0.735
-0.755
-0.765
-0.775
-0.81
-0.85
-0.87
-0.905
-0.92
-0.945
-0.945
-0.98
-1.005
-1.04
-1.045
-1.05
-1.06
-1.07
-1.075
-1.095
-1.065
-1.06
-1.05
-1.06
-1.065
-1.045
-1.0
-0.96
-0.94
-0.925
-0.91
-0.875
-0.815
-0.765
-0.73
-0.71
-0.715
-0.695
-0.655
-0.61
-0.57
-0.565
-0.55
-0.53
-0.505
-0.485
-0.47
-0.445
-0.445
-0.415
-0.4
-0.385
-0.355
-0.37
-0.36
-0.34
-0.34
-0.315
-0.305
-0.29
-0.29
-0.285
-0.265
-0.25
-0.255
-0.255
-0.25
-0.26
-0.23
-0.245
-0.225
-0.24
-0.24
-0.245
-0.24
-0.215
-0.215
-0.23
-0.24
-0.245
-0.215
-0.205
-0.205
-0.215
-0.225
-0.225
-0.19
-0.17
-0.16
-0.165
-0.19
-0.18
-0.17
-0.16
-0.15
-0.165
-0.175
-0.18
-0.16
-0.14
-0.16
-0.16
-0.185
-0.185
-0.17
-0.16
-0.165
-0.185
-0.215
-0.2
-0.195
-0.18
-0.185
-0.195
-0.22
-0.215
-0.21
-0.205
-0.21
-0.225
-0.22
-0.235
-0.22
-0.215
-0.205
-0.23
-0.24
-0.26
-0.25
-0.24
-0.235
-0.23
-0.225
-0.23
-0.22
-0.205
-0.215
-0.225
-0.24
-0.245
-0.23
-0.21
-0.215
-0.225
-0.24
-0.225
-0.215
-0.205
-0.21
-0.21
-0.22
-0.215
-0.215
-0.2
-0.21
-0.225
-0.25
-0.24
-0.225
-0.205
-0.195
-0.215
-0.23
-0.21
-0.205
-0.195
-0.2
-0.195
-0.205
-0.195
-0.185
-0.16
-0.165
-0.16
-0.16
-0.135
-0.085
-0.04
0.02
0.085
0.17
0.32
0.495
0.66
0.775
0.87
0.895
0.91
0.88
0.8
0.67
0.48
0.235
-0.065
-0.345
-0.525
-0.585
-0.565
-0.5
-0.42
-0.355
-0.305
-0.29
-0.29
-0.3
-0.295
-0.29
-0.28
-0.275
-0.275
-0.28
-0.3
-0.295
-0.255
-0.27
-0.285
-0.29
-0.285
-0.29
-0.26
-0.28
-0.275
-0.295
-0.305
-0.305
-0.29
-0.315
-0.33
-0.34
-0.355
-0.34
-0.335
-0.35
-0.355
-0.38
-0.38
-0.375
-0.375
-0.385
-0.385
-0.385
-0.395
-0.38
-0.375
-0.38
-0.385
-0.4
-0.385
-0.385
-0.375
-0.375
-0.395
-0.43
-0.435
-0.43
-0.42
-0.43
-0.44
-0.445
-0.465
-0.465
-0.455
-0.47
-0.495
-0.525
-0.54
-0.545
-0.54
-0.56
-0.605
-0.65
-0.67
-0.705
-0.71
-0.74
-0.785
-0.82
-0.85
-0.865
-0.89
-0.915
-0.965
-1.005
-1.03
-1.04
-1.05
-1.065
-1.085
-1.105
-1.105
-1.09
-1.07
-1.055
-1.05
-1.035
-1.01
-0.97
-0.925
-0.895
-0.865
-0.845
-0.795
-0.745
-0.68
-0.635
-0.62
-0.59
-0.565
-0.53
-0.475
-0.455
-0.415
-0.415
-0.395
-0.36
-0.325
-0.3
-0.3
-0.285
-0.29
-0.26
-0.24
-0.225
-0.24
-0.24
-0.23
-0.22
-0.22
-0.22
-0.21
-0.24
-0.23
-0.215
-0.205
-0.19
-0.2
-0.215
-0.24
-0.2
-0.195
-0.2
-0.215
-0.22
-0.215
-0.2
-0.19
-0.185
-0.21
-0.21
-0.21
-0.195
-0.16
-0.155
-0.16
-0.17
-0.16
-0.145
-0.12
-0.115
-0.13
-0.145
-0.13
-0.13
-0.105
-0.105
-0.115
-0.12
-0.115
-0.11
-0.1
-0.1
-0.11
-0.12
-0.11
-0.1
-0.085
-0.095
-0.11
-0.11
-0.13
-0.105
-0.1
-0.1
-0.11
-0.125
-0.12
-0.115
-0.1
-0.1
-0.12
-0.145
-0.145
-0.15
-0.13
-0.135
-0.135
-0.14
-0.14
-0.125
-0.105
-0.12
-0.14
-0.155
-0.165
-0.155
-0.15
-0.145
-0.15
-0.17
-0.165
-0.145
-0.125
-0.12
-0.12
-0.135
-0.125
-0.12
-0.13
-0.105
-0.115
-0.12
-0.13
-0.11
-0.11
-0.12
-0.13
-0.135
-0.13
-0.12
-0.11
-0.12
-0.135
-0.145
-0.14
-0.12
-0.115
-0.12
-0.13
-0.13
-0.145
-0.115
-0.11
-0.115
-0.12
-0.13
-0.125
-0.115
-0.1
-0.095
-0.115
-0.12
-0.135
-0.12
-0.12
-0.12
-0.145
-0.155
-0.15
-0.14
-0.125
-0.105
-0.11
-0.12
-0.115
-0.105
-0.085
-0.085
-0.08
-0.08
-0.065
-0.02
0.03
0.1
0.15
0.245
0.39
0.565
0.73
0.835
0.895
0.94
0.92
0.89
0.81
0.68
0.49
0.255
-0.03
-0.285
-0.485
-0.535
-0.5
-0.445
-0.37
-0.305
-0.26
-0.215
-0.22
-0.23
-0.235
-0.23
-0.215
-0.22
-0.23
-0.255
-0.25
-0.245
-0.22
-0.22
-0.235
-0.235
-0.245
-0.245
-0.22
-0.22
-0.225
-0.255
-0.26
-0.245
-0.24
-0.24
-0.245
-0.25
-0.26
-0.255
-0.24
-0.25
-0.26
-0.28
-0.285
-0.275
-0.265
-0.27
-0.29
-0.315
-0.32
-0.32
-0.305
-0.31
-0.335
-0.36
-0.365
-0.35
-0.34
-0.335
-0.36
-0.395
-0.41
-0.4
-0.395
-0.42
-0.45
-0.475
-0.49
-0.49
-0.5
-0.5
-0.525
-0.56
-0.575
-0.6
-0.61
-0.63
-0.665
-0.71
-0.735
-0.76
-0.765
-0.795
-0.82
-0.85
-0.895
-0.925
-0.92
-0.955
-0.98
-1.015
-1.015
-1.01
-0.99
-0.995
-0.99
-1.0
-0.99
-0.95
-0.93
-0.905
-0.89
-0.885
-0.845
-0.805
-0.76
-0.72
-0.695
-0.675
-0.64
-0.605
-0.565
-0.52
-0.515
-0.485
-0.46
-0.425
-0.385
-0.37
-0.355
-0.36
-0.335
-0.32
-0.285
-0.27
-0.27
-0.28
-0.255
-0.215
-0.2
-0.205
-0.205
-0.22
-0.215
-0.205
-0.195
-0.195
-0.19
-0.19
-0.18
-0.165
-0.155
-0.14
-0.145
-0.155
-0.15
-0.14
-0.125
-0.11
-0.115
-0.12
-0.145
-0.125
-0.105
-0.105
-0.11
-0.12
-0.11
-0.115
-0.09
-0.09
-0.105
-0.125
-0.14
-0.12
-0.1
-0.095
-0.105
-0.13
-0.12
-0.095
-0.07
-0.07
-0.09
-0.1
-0.09
-0.085
-0.075
-0.075
-0.07
-0.09
-0.08
-0.075
-0.065
-0.065
-0.08
-0.1
-0.1
-0.08
-0.06
-0.07
-0.065
-0.08
-0.075
-0.075
-0.07
-0.075
-0.095
-0.125
-0.12
-0.11
-0.085
-0.095
-0.1
-0.1
-0.1
-0.1
-0.09
-0.095
-0.1
-0.11
-0.1
-0.09
-0.08
-0.075
-0.075
-0.085
-0.085
-0.08
-0.065
-0.07
-0.08
-0.095
-0.1
-0.085
-0.065
-0.075
-0.09
-0.1
-0.105
-0.09
-0.075
-0.09
-0.095
-0.11
-0.105
-0.105
-0.08
-0.07
-0.07
-0.095
-0.09
-0.065
-0.055
-0.07
-0.09
-0.095
-0.105
-0.09
-0.08
-0.085
-0.08
-0.105
-0.09
-0.085
-0.07
-0.09
-0.105
-0.125
-0.14
-0.125
-0.11
-0.125
-0.135
-0.145
-0.12
-0.095
-0.085
-0.065
-0.08
-0.1
-0.09
-0.075
-0.08
-0.075
-0.095
-0.115
-0.1
-0.08
-0.065
-0.07
-0.07
-0.08
-0.085
-0.07
-0.065
-0.06
-0.06
-0.075
-0.085
-0.07
-0.065
-0.045
-0.065
-0.08
-0.085
-0.06
-0.05
-0.035
-0.06
-0.065
-0.06
-0.055
-0.045
-0.04
-0.065
-0.055
0.12
0.485
0.845
0.965
0.895
0.78
0.775
0.85
0.96
1.045
1.095
1.125
1.125
1.12
1.065
0.975
0.87
0.735
0.53
0.285
0.035
-0.135
-0.195
-0.155
-0.06
0.02
0.08
0.085
0.095
0.085
0.075
0.055
0.06
0.045
0.035
0.015
-0.005
0.0
0.005
-0.005
-0.02
-0.05
-0.05
-0.055
-0.045
-0.05
-0.075
-0.11
-0.1
-0.11
-0.11
-0.115
-0.15
-0.19
-0.19
-0.195
-0.17
-0.185
-0.2
-0.2
-0.205
-0.205
-0.195
-0.205
-0.215
-0.23
-0.23
-0.22
-0.2
-0.215
-0.21
-0.245
-0.25
-0.255
-0.255
-0.27
-0.285
-0.3
-0.315
-0.315
-0.315
-0.325
-0.345
-0.37
-0.385
-0.39
-0.395
-0.41
-0.44
-0.485
-0.49
-0.49
-0.505
-0.525
-0.57
-0.615
-0.64
-0.66
-0.67
-0.715
-0.75
-0.8
-0.84
-0.85
-0.855
-0.885
-0.935
-0.96
-0.98
-0.995
-0.995
-1.025
-1.025
-1.03
-1.02
-1.02
-0.975
-0.965
-0.945
-0.94
-0.905
-0.855
-0.805
-0.78
-0.765
-0.735
-0.705
-0.66
-0.625
-0.605
-0.575
-0.565
-0.54
-0.515
-0.475
-0.445
-0.445
-0.445
-0.43
-0.405
-0.385
-0.37
-0.36
-0.36
-0.36
-0.325
-0.315
-0.31
-0.29
-0.29
-0.28
-0.25
-0.23
-0.225
-0.235
-0.25
-0.245
-0.215
-0.205
-0.195
-0.22
-0.23
-0.23
-0.225
-0.2
-0.205
-0.215
-0.23
-0.225
-0.205
-0.19
-0.185
-0.205
-0.2
-0.21
-0.195
-0.17
-0.17
-0.205
-0.205
-0.21
-0.18
-0.175
-0.18
-0.19
-0.21
-0.21
-0.215
-0.195
-0.205
-0.205
-0.24
-0.225
-0.205
-0.19
-0.195
-0.215
-0.215
-0.215
-0.2
-0.18
-0.195
-0.205
-0.205
-0.22
-0.21
-0.2
-0.205
-0.21
-0.225
-0.21
-0.205
-0.19
-0.185
-0.205
-0.215
-0.235
-0.21
-0.195
-0.2
-0.195
-0.21
-0.21
-0.205
-0.2
-0.19
-0.2
-0.225
-0.22
-0.21
-0.205
-0.215
-0.24
-0.25
-0.255
-0.25
-0.225
-0.23
-0.23
-0.245
-0.245
-0.23
-0.225
-0.225
-0.245
-0.235
-0.235
-0.215
-0.2
-0.225
-0.22
-0.23
-0.23
-0.215
-0.2
-0.195
-0.22
-0.22
-0.225
-0.205
-0.2
-0.205
-0.185
-0.18
-0.145
-0.115
-0.055
0.0
0.06
0.17
0.3
0.475
0.645
0.75
0.805
0.82
0.815
0.765
0.66
0.52
0.31
0.05
-0.275
-0.57
-0.735
-0.755
-0.67
-0.555
-0.465
-0.39
-0.335
-0.315
-0.31
-0.33
-0.32
-0.315
-0.31
-0.325
-0.32
-0.33
-0.34
-0.32
-0.3
-0.305
-0.32
-0.345
-0.35
-0.33
-0.305
-0.32
-0.33
-0.345
-0.345
-0.345
-0.33
-0.34
-0.34
-0.375
-0.37
-0.375
-0.345
-0.355
-0.365
-0.375
-0.37
-0.375
-0.37
-0.375
-0.41
-0.415
-0.405
-0.405
-0.385
-0.4
-0.42
-0.43
-0.44
-0.43
-0.425
-0.435
-0.445
-0.49
-0.48
-0.475
-0.49
-0.485
-0.505
-0.54
-0.555
-0.55
-0.55
-0.585
-0.62
-0.645
-0.665
-0.675
-0.695
-0.72
-0.765
-0.8
-0.83
-0.85
-0.875
-0.91
-0.96
-0.99
-1.01
-1.02
-1.025
-1.035
-1.04
-1.075
-1.055
-1.03
-1.005
-0.99
-1.005
-0.975
-0.94
-0.915
-0.865
-0.815
-0.785
-0.77
-0.715
-0.665
-0.605
-0.59
-0.55
-0.545
-0.515
-0.48
-0.46
-0.405
-0.39
-0.39
-0.38
-0.35
-0.325
-0.32
-0.33
-0.31
-0.31
-0.305
-0.28
-0.285
-0.295
-0.3
-0.295
-0.28
-0.27
-0.25
-0.27
-0.28
-0.295
-0.255
-0.23
-0.225
-0.24
-0.265
-0.265
-0.25
-0.23
-0.23
-0.225
-0.235
-0.23
-0.215
-0.2
-0.2
-0.21
-0.22
-0.22
-0.205
-0.185
-0.205
-0.22
-0.22
-0.215
-0.19
-0.185
-0.18
-0.19
-0.2
-0.2
-0.19
-0.175
-0.175
-0.19
-0.2
-0.195
-0.195
-0.17
-0.195
-0.195
-0.225
-0.205
-0.215
-0.195
-0.195
-0.21
-0.22
-0.235
-0.225
-0.21
-0.22
-0.235
-0.25
-0.265
-0.25
-0.23
-0.235
-0.235
-0.23
-0.23
-0.225
-0.205
-0.195
-0.2
-0.21
-0.22
-0.215
-0.195
-0.19
-0.205
-0.23
-0.215
-0.2
-0.18
-0.185
-0.195
-0.2
-0.205
-0.185
-0.18
-0.175
-0.19
-0.2
-0.195
-0.185
-0.175
-0.175
-0.165
-0.18
-0.175
-0.16
-0.135
-0.095
-0.075
-0.025
0.05
0.17
0.335
0.505
0.63
0.74
0.82
0.86
0.835
0.74
0.585
0.4
0.14
-0.15
-0.42
-0.57
-0.595
-0.54
-0.445
-0.36
-0.295
-0.275
-0.285
-0.295
-0.305
-0.29
-0.265
-0.27
-0.26
-0.28
-0.285
-0.275
-0.27
-0.265
-0.275
-0.295
-0.3
-0.3
-0.295
-0.305
-0.31
-0.31
-0.33
-0.32
-0.31
-0.315
-0.325
-0.33
-0.345
-0.32
-0.325
-0.335
-0.355
-0.355
-0.355
-0.345
-0.32
-0.32
-0.34
-0.37
-0.37
-0.365
-0.35
-0.365
-0.38
-0.39
-0.4
-0.4
-0.38
-0.39
-0.41
-0.44
-0.45
-0.45
-0.455
-0.475
-0.5
-0.535
-0.56
-0.58
-0.585
-0.605
-0.625
-0.665
-0.705
-0.735
-0.71
-0.745
-0.785
-0.82
-0.865
-0.885
-0.895
-0.92
-0.95
-0.975
-1.0
-1.005
-1.0
-1.005
-1.01
-1.02
-1.025
-1.005
-0.955
-0.935
-0.915
-0.915
-0.865
-0.805
-0.735
-0.705
-0.685
-0.675
-0.645
-0.59
-0.55
-0.525
-0.49
-0.465
-0.435
-0.41
-0.375
-0.355
-0.365
-0.36
-0.34
-0.32
-0.29
-0.275
-0.265
-0.26
-0.25
-0.235
-0.22
-0.23
-0.235
-0.235
-0.225
-0.195
-0.2
-0.205
-0.22
-0.235
-0.225
-0.19
-0.165
-0.17
-0.19
-0.205
-0.205
-0.185
-0.16
-0.165
-0.185
-0.19
-0.185
-0.175
-0.175
-0.185
-0.2
-0.2
-0.21
-0.2
-0.19
-0.195
-0.21
-0.215
-0.205
-0.175
-0.16
-0.165
-0.165
-0.19
-0.195
-0.155
-0.145
-0.16
-0.17
-0.18
-0.155
-0.165
-0.135
-0.13
-0.15
-0.165
-0.17
-0.16
-0.14
-0.15
-0.155
-0.17
-0.165
-0.155
-0.13
-0.13
-0.125
-0.14
-0.14
-0.125
-0.12
-0.125
-0.135
-0.155
-0.16
-0.155
-0.145
-0.145
-0.15
-0.18
-0.165
-0.145
-0.155
-0.145
-0.16
-0.185
-0.185
-0.175
-0.165
-0.165
-0.17
-0.185
-0.175
-0.165
-0.15
-0.155
-0.16
-0.16
-0.16
-0.15
-0.145
-0.155
-0.17
-0.17
-0.18
-0.15
-0.13
-0.12
-0.135
-0.17
-0.14
-0.115
-0.08
-0.095
-0.1
-0.13
-0.14
-0.115
-0.11
-0.12
-0.14
-0.155
-0.15
-0.13
-0.105
-0.095
-0.11
-0.14
-0.13
-0.105
-0.09
-0.1
-0.11
-0.12
-0.13
-0.115
-0.105
-0.11
-0.125
-0.125
-0.115
-0.13
-0.125
-0.135
-0.135
-0.155
-0.155
-0.155
-0.13
-0.12
-0.115
-0.11
-0.115
-0.11
-0.095
-0.115
-0.13
-0.125
-0.12
-0.12
-0.1
-0.095
-0.105
-0.105
-0.105
-0.1
-0.065
0.05
0.3
0.64
0.85
0.83
0.68
0.57
0.505
0.455
0.395
0.33
0.28
0.2
0.105
-0.005
-0.095
-0.185
-0.285
-0.455
-0.625
-0.81
-1.04
-1.23
-1.41
-1.57
-1.7
-1.835
-1.97
-2.075
-2.14
-2.2
-2.24
-2.255
-2.265
-2.22
-2.145
-2.085
-2.01
-1.915
-1.735
-1.52
-1.295
-1.11
-0.96
-0.855
-0.795
-0.72
-0.645
-0.57
-0.52
-0.475
-0.415
-0.325
-0.265
-0.19
-0.15
-0.09
-0.045
0.03
0.085
0.1
0.13
0.13
0.155
0.175
0.185
0.195
0.185
0.2
0.215
0.22
0.24
0.245
0.26
0.245
0.25
0.275
0.3
0.305
0.305
0.32
0.31
0.325
0.37
0.39
0.385
0.375
0.395
0.415
0.44
0.445
0.46
0.475
0.49
0.515
0.545
0.55
0.555
0.555
0.58
0.615
0.645
0.68
0.68
0.675
0.69
0.73
0.755
0.77
0.76
0.75
0.775
0.78
0.81
0.82
0.805
0.805
0.8
0.83
0.835
0.825
0.81
0.785
0.785
0.79
0.79
0.76
0.74
0.725
0.705
0.7
0.695
0.675
0.64
0.6
0.575
0.565
0.55
0.515
0.475
0.435
0.415
0.405
0.385
0.35
0.31
0.275
0.265
0.25
0.245
0.21
0.18
0.15
0.13
0.13
0.125
0.09
0.05
0.02
0.005
0.01
0.0
-0.005
-0.035
-0.055
-0.06
-0.05
-0.05
-0.055
-0.075
-0.11
-0.1
-0.12
-0.095
-0.095
-0.13
-0.14
-0.14
-0.125
-0.1
-0.11
-0.13
-0.16
-0.15
-0.145
-0.13
-0.145
-0.16
-0.175
-0.19
-0.17
-0.155
-0.155
-0.175
-0.185
-0.16
-0.155
-0.15
-0.16
-0.185
-0.2
-0.19
-0.19
-0.19
-0.19
-0.215
-0.24
-0.24
-0.23
-0.225
-0.225
-0.235
-0.235
-0.24
-0.24
-0.235
-0.255
-0.27
-0.27
-0.28
-0.245
-0.235
-0.25
-0.265
-0.275
-0.285
-0.265
-0.25
-0.265
-0.27
-0.28
-0.275
-0.27
-0.25
-0.27
-0.27
-0.285
-0.285
-0.28
-0.26
-0.265
-0.28
-0.285
-0.3
-0.29
-0.28
-0.285
-0.285
-0.315
-0.31
-0.31
-0.3
-0.31
-0.33
-0.325
-0.32
-0.315
-0.31
-0.33
-0.33
-0.33
-0.32
-0.315
-0.315
-0.32
-0.345
-0.35
-0.34
-0.315
-0.295
-0.3
-0.315
-0.335
-0.35
-0.335
-0.31
-0.32
-0.325
-0.35
-0.345
-0.325
-0.305
-0.31
-0.315
-0.34
-0.33
-0.315
-0.31
-0.305
-0.315
-0.32
-0.305
-0.29
-0.28
-0.275
-0.285
-0.285
-0.275
-0.205
0.025
0.39
0.665
0.705
0.565
0.44
0.395
0.365
0.325
0.27
0.2
0.15
0.115
0.04
-0.045
-0.14
-0.22
-0.305
-0.4
-0.535
-0.685
-0.86
-1.04
-1.23
-1.395
-1.56
-1.71
-1.845
-1.97
-2.07
-2.16
-2.25
-2.325
-2.37
-2.375
-2.36
-2.315
-2.255
-2.19
-2.115
-1.96
-1.77
-1.565
-1.395
-1.215
-1.065
-0.925
-0.83
-0.77
-0.715
-0.625
-0.55
-0.435
-0.35
-0.245
-0.18
-0.13
-0.1
-0.085
-0.055
-0.025
0.0
0.01
0.0
0.01
0.03
0.045
0.065
0.055
0.055
0.065
0.09
0.1
0.11
0.1
0.105
0.11
0.115
0.135
0.14
0.15
0.155
0.17
0.18
0.19
0.22
0.225
0.225
0.235
0.26
0.29
0.31
0.31
0.295
0.305
0.325
0.365
0.385
0.4
0.395
0.415
0.45
0.485
0.5
0.51
0.525
0.53
0.56
0.625
0.625
0.64
0.645
0.65
0.665
0.695
0.7
0.685
0.675
0.675
0.68
0.695
0.69
0.665
0.64
0.625
0.61
0.6
0.59
0.55
0.51
0.48
0.455
0.43
0.395
0.345
0.3
0.26
0.235
0.215
0.17
0.13
0.09
0.04
0.035
0.035
0.01
-0.02
-0.045
-0.06
-0.055
-0.065
-0.08
-0.1
-0.125
-0.12
-0.115
-0.1
-0.115
-0.135
-0.15
-0.15
-0.14
-0.14
-0.14
-0.16
-0.175
-0.185
-0.18
-0.175
-0.165
-0.165
-0.19
-0.19
-0.195
-0.175
-0.19
-0.2
-0.21
-0.23
-0.205
-0.19
-0.19
-0.19
-0.22
-0.225
-0.22
-0.215
-0.22
-0.22
-0.23
-0.225
-0.205
-0.2
-0.205
-0.23
-0.24
-0.22
-0.22
-0.22
-0.225
-0.22
-0.24
-0.235
-0.23
-0.21
-0.23
-0.24
-0.255
-0.25
-0.24
-0.225
-0.235
-0.26
-0.275
-0.27
-0.255
-0.255
-0.27
-0.27
-0.285
-0.305
-0.3
-0.285
-0.285
-0.29
-0.305
-0.31
-0.295
-0.275
-0.285
-0.295
-0.315
-0.315
-0.28
-0.265
-0.255
-0.285
-0.275
-0.28
-0.265
-0.24
-0.265
-0.26
-0.275
-0.265
-0.255
-0.235
-0.26
-0.27
-0.27
-0.26
-0.25
-0.235
-0.245
-0.25
-0.27
-0.255
-0.25
-0.24
-0.23
-0.255
-0.265
-0.255
-0.26
-0.26
-0.26
-0.25
-0.265
-0.26
-0.255
-0.25
-0.235
-0.25
-0.27
-0.275
-0.26
-0.25
-0.25
-0.26
-0.265
-0.27
-0.25
-0.23
-0.23
-0.235
-0.245
-0.245
-0.22
-0.21
-0.21
-0.215
-0.21
-0.2
-0.19
-0.145
-0.01
0.255
0.575
0.785
0.795
0.665
0.545
0.475
0.455
0.415
0.36
0.335
0.28
0.205
0.11
0.055
0.0
-0.075
-0.175
-0.27
-0.38
-0.495
-0.625
-0.76
-0.93
-1.11
-1.27
-1.405
-1.505
-1.615
-1.745
-1.86
-1.975
-2.05
-2.06
-2.085
-2.075
-2.08
-2.055
-2.035
-1.985
-1.885
-1.79
-1.645
-1.475
-1.31
-1.13
-1.015
-0.94
-0.9
-0.86
-0.82
-0.725
-0.645
-0.58
-0.525
-0.48
-0.4
-0.32
-0.25
-0.2
-0.155
-0.12
-0.08
-0.025
0.01
0.045
0.065
0.06
0.08
0.095
0.13
0.145
0.13
0.135
0.145
0.15
0.17
0.17
0.165
0.145
0.16
0.19
0.195
0.215
0.215
0.215
0.24
0.27
0.29
0.3
0.295
0.3
0.31
0.32
0.35
0.36
0.375
0.365
0.375
0.395
0.43
0.445
0.45
0.44
0.455
0.48
0.525
0.535
0.53
0.545
0.57
0.605
0.635
0.65
0.65
0.66
0.675
0.69
0.735
0.735
0.735
0.74
0.75
0.75
0.78
0.78
0.76
0.745
0.75
0.775
0.78
0.775
0.755
0.74
0.7
0.695
0.69
0.665
0.64
0.61
0.57
0.555
0.53
0.505
0.465
0.42
0.38
0.36
0.345
0.31
0.265
0.23
0.2
0.2
0.19
0.165
0.135
0.115
0.085
0.09
0.075
0.055
0.025
0.0
-0.01
-0.01
-0.015
-0.025
-0.04
-0.08
-0.095
-0.1
-0.085
-0.08
-0.12
-0.12
-0.125
-0.115
-0.115
-0.125
-0.135
-0.155
-0.155
-0.14
-0.14
-0.135
-0.165
-0.195
-0.185
-0.165
-0.15
-0.16
-0.18
-0.21
-0.21
-0.195
-0.195
-0.19
-0.205
-0.22
-0.21
-0.2
-0.195
-0.19
-0.195
-0.2
-0.21
-0.205
-0.19
-0.205
-0.21
-0.22
-0.22
-0.215
-0.205
-0.205
-0.195
-0.225
-0.225
-0.23
-0.225
-0.225
-0.225
-0.245
-0.245
-0.22
-0.21
-0.215
-0.22
-0.235
-0.24
-0.245
-0.22
-0.235
-0.24
-0.25
-0.26
-0.24
-0.225
-0.235
-0.265
-0.275
-0.27
-0.265
-0.26
-0.26
-0.255
-0.275
-0.3
-0.28
-0.28
-0.28
-0.295
-0.29
-0.29
-0.28
-0.265
-0.275
-0.285
-0.305
-0.315
-0.3
-0.285
-0.31
-0.295
-0.31
-0.305
-0.295
-0.285
-0.275
-0.315
-0.32
-0.33
-0.295
-0.27
-0.27
-0.29
-0.31
-0.32
-0.315
-0.275
-0.285
-0.29
-0.3
-0.3
-0.295
-0.285
-0.28
-0.295
-0.3
-0.315
-0.3
-0.285
-0.295
-0.3
-0.315
-0.3
-0.285
-0.28
-0.295
-0.31
-0.325
-0.325
-0.305
-0.295
-0.295
-0.31
-0.315
-0.315
-0.3
-0.285
-0.305
-0.315
-0.33
-0.325
-0.305
-0.285
-0.29
-0.28
-0.285
-0.265
-0.22
-0.1
0.13
0.445
0.695
0.76
0.665
0.565
0.48
0.42
0.38
0.325
0.275
0.235
0.19
0.13
0.06
-0.01
-0.075
-0.14
-0.215
-0.305
-0.41
-0.495
-0.59
-0.68
-0.81
-0.92
-1.05
-1.065
-1.035
-0.93
-0.865
-0.845
-0.835
-0.82
-0.81
-0.79
-0.8
-0.76
-0.75
-0.725
-0.72
-0.715
-0.74
-0.765
-0.745
-0.67
-0.54
-0.415
-0.34
-0.29
-0.285
-0.245
-0.22
-0.2
-0.19
-0.2
-0.205
-0.21
-0.21
-0.19
-0.185
-0.2
-0.205
-0.185
-0.18
-0.16
-0.16
-0.175
-0.185
-0.19
-0.17
-0.17
-0.17
-0.18
-0.185
-0.17
-0.16
-0.155
-0.165
-0.19
-0.2
-0.175
-0.155
-0.145
-0.15
-0.16
-0.16
-0.145
-0.125
-0.11
-0.11
-0.12
-0.13
-0.14
-0.115
-0.1
-0.115
-0.125
-0.13
-0.12
-0.105
-0.095
-0.095
-0.095
-0.1
-0.095
-0.08
-0.06
-0.07
-0.075
-0.09
-0.08
-0.06
-0.04
-0.025
-0.035
-0.04
-0.045
-0.025
0.0
0.0
-0.015
-0.03
-0.03
-0.03
-0.015
-0.02
-0.045
-0.07
-0.07
-0.055
-0.05
-0.065
-0.075
-0.105
-0.125
-0.115
-0.105
-0.13
-0.14
-0.16
-0.195
-0.18
-0.175
-0.195
-0.235
-0.26
-0.275
-0.295
-0.285
-0.305
-0.33
-0.35
-0.365
-0.35
-0.345
-0.345
-0.35
-0.375
-0.39
-0.365
-0.345
-0.36
-0.385
-0.385
-0.375
-0.37
-0.345
-0.34
-0.36
-0.34
-0.33
-0.315
-0.32
-0.31
-0.32
-0.34
-0.34
-0.33
-0.32
-0.315
-0.315
-0.32
-0.32
-0.295
-0.275
-0.28
-0.29
-0.295
-0.305
-0.275
-0.26
-0.26
-0.265
-0.27
-0.27
-0.255
-0.245
-0.26
-0.265
-0.275
-0.265
-0.255
-0.265
-0.26
-0.27
-0.29
-0.29
-0.26
-0.265
-0.27
-0.28
-0.28
-0.28
-0.285
-0.26
-0.265
-0.265
-0.275
-0.29
-0.285
-0.265
-0.28
-0.295
-0.3
-0.29
-0.28
-0.26
-0.26
-0.28
-0.305
-0.295
-0.295
-0.275
-0.28
-0.295
-0.31
-0.33
-0.31
-0.29
-0.295
-0.305
-0.32
-0.32
-0.31
-0.29
-0.275
-0.295
-0.305
-0.32
-0.315
-0.29
-0.285
-0.3
-0.32
-0.32
-0.3
-0.285
-0.275
-0.285
-0.285
-0.285
-0.28
-0.275
-0.275
-0.3
-0.305
-0.31
-0.28
-0.28
-0.275
-0.275
-0.28
-0.28
-0.25
-0.25
-0.255
-0.275
-0.29
-0.29
-0.27
-0.265
-0.275
-0.295
-0.3
-0.31
-0.29
-0.265
-0.285
-0.295
-0.32
-0.325
-0.315
-0.295
-0.31
-0.305
-0.315
-0.33
-0.305
-0.29
-0.3
-0.305
-0.31
-0.3
-0.29
-0.26
-0.27
-0.275
-0.28
-0.285
-0.27
-0.255
-0.25
-0.265
-0.28
-0.28
-0.265
-0.26
-0.25
-0.26
-0.275
-0.285
-0.255
-0.245
-0.24
-0.12
0.18
0.57
0.76
0.69
0.525
0.42
0.39
0.355
0.31
0.27
0.205
0.125
0.055
-0.03
-0.085
-0.14
-0.23
-0.34
-0.45
-0.575
-0.705
-0.855
-1.02
-1.21
-1.38
-1.515
-1.64
-1.715
-1.815
-1.93
-2.035
-2.1
-2.125
-2.145
-2.17
-2.185
-2.165
-2.14
-2.105
-2.04
-1.97
-1.86
-1.72
-1.545
-1.36
-1.2
-1.09
-1.03
-1.01
-0.955
-0.885
-0.785
-0.71
-0.645
-0.58
-0.525
-0.435
-0.345
-0.3
-0.245
-0.195
-0.145
-0.095
-0.055
-0.015
-0.01
0.0
0.005
0.055
0.075
0.09
0.085
0.085
0.095
0.115
0.135
0.135
0.125
0.13
0.135
0.15
0.18
0.165
0.16
0.16
0.18
0.205
0.225
0.225
0.225
0.23
0.235
0.235
0.27
0.28
0.285
0.305
0.325
0.355
0.375
0.395
0.405
0.415
0.43
0.46
0.495
0.52
0.53
0.54
0.575
0.6
0.65
0.655
0.66
0.665
0.67
0.7
0.73
0.74
0.725
0.735
0.735
0.745
0.765
0.775
0.755
0.75
0.72
0.74
0.725
0.72
0.695
0.665
0.635
0.635
0.63
0.595
0.545
0.51
0.485
0.46
0.455
0.415
0.355
0.32
0.295
0.27
0.24
0.22
0.18
0.135
0.105
0.1
0.1
0.09
0.065
0.015
0.015
0.01
-0.005
-0.015
-0.045
-0.07
-0.08
-0.08
-0.07
-0.075
-0.11
-0.125
-0.13
-0.12
-0.11
-0.11
-0.13
-0.17
-0.19
-0.16
-0.14
-0.145
-0.17
-0.175
-0.18
-0.18
-0.17
-0.175
-0.2
-0.21
-0.22
-0.205
-0.19
-0.19
-0.21
-0.22
-0.22
-0.21
-0.195
-0.19
-0.195
-0.22
-0.22
-0.225
-0.205
-0.205
-0.23
-0.235
-0.23
-0.22
-0.195
-0.195
-0.235
-0.225
-0.23
-0.22
-0.21
-0.22
-0.225
-0.245
-0.24
-0.23
-0.225
-0.245
-0.26
-0.27
-0.275
-0.255
-0.245
-0.275
-0.295
-0.315
-0.295
-0.295
-0.285
-0.29
-0.29
-0.305
-0.295
-0.285
-0.265
-0.28
-0.315
-0.31
-0.33
-0.3
-0.295
-0.3
-0.3
-0.32
-0.315
-0.29
-0.285
-0.3
-0.3
-0.305
-0.305
-0.3
-0.275
-0.27
-0.29
-0.315
-0.32
-0.305
-0.28
-0.28
-0.29
-0.31
-0.305
-0.275
-0.265
-0.285
-0.29
-0.32
-0.33
-0.315
-0.315
-0.32
-0.335
-0.35
-0.345
-0.325
-0.315
-0.305
-0.32
-0.345
-0.34
-0.325
-0.325
-0.335
-0.345
-0.355
-0.355
-0.345
-0.32
-0.31
-0.325
-0.335
-0.315
-0.3
-0.27
-0.265
-0.25
-0.23
-0.135
0.11
0.47
0.735
0.755
0.615
0.48
0.42
0.4
0.365
0.3
0.22
0.165
0.095
0.03
-0.07
-0.135
-0.22
-0.345
-0.415
-0.51
-0.645
-0.81
-0.99
-1.165
-1.33
-1.46
-1.595
-1.74
-1.84
-1.965
-2.05
-2.11
-2.155
-2.195
-2.215
-2.21
-2.16
-2.115
-2.065
-1.995
-1.885
-1.7
-1.48
-1.285
-1.125
-1.01
-0.97
-0.93
-0.865
-0.8
-0.72
-0.66
-0.605
-0.535
-0.475
-0.395
-0.315
-0.26
-0.22
-0.16
-0.115
-0.055
-0.02
-0.005
0.0
0.025
0.05
0.095
0.08
0.08
0.085
0.09
0.1
0.125
0.13
0.115
0.13
0.13
0.155
0.17
0.18
0.175
0.165
0.18
0.2
0.235
0.235
0.245
0.235
0.25
0.28
0.3
0.32
0.33
0.325
0.335
0.38
0.42
0.425
0.43
0.43
0.455
0.48
0.52
0.55
0.55
0.555
0.575
0.6
0.63
0.635
0.64
0.64
0.645
0.67
0.695
0.695
0.71
0.705
0.71
0.705
0.73
0.71
0.705
0.665
0.635
0.645
0.645
0.62
0.57
0.535
0.51
0.495
0.475
0.435
0.39
0.345
0.3
0.29
0.255
0.235
0.19
0.145
0.115
0.115
0.11
0.085
0.055
0.02
-0.01
-0.01
-0.005
-0.025
-0.055
-0.095
-0.105
-0.095
-0.1
-0.12
-0.155
-0.17
-0.18
-0.17
-0.15
-0.165
-0.175
-0.19
-0.215
-0.21
-0.19
-0.205
-0.24
-0.245
-0.25
-0.24
-0.225
-0.235
-0.245
-0.245
-0.24
-0.245
-0.225
-0.235
-0.245
-0.26
-0.25
-0.245
-0.225
-0.24
-0.245
-0.25
-0.245
-0.235
-0.235
-0.225
-0.26
-0.265
-0.255
-0.245
-0.23
-0.235
-0.25
-0.27
-0.27
-0.26
-0.24
-0.245
-0.26
-0.265
-0.275
-0.285
-0.265
-0.26
-0.27
-0.295
-0.3
-0.295
-0.285
-0.3
-0.3
-0.315
-0.33
-0.33
-0.32
-0.32
-0.325
-0.335
-0.335
-0.335
-0.315
-0.315
-0.32
-0.345
-0.325
-0.32
-0.295
-0.305
-0.32
-0.35
-0.35
-0.35
-0.335
-0.335
-0.335
-0.345
-0.335
-0.325
-0.305
-0.31
-0.31
-0.32
-0.31
-0.315
-0.295
-0.295
-0.305
-0.315
-0.32
-0.31
-0.31
-0.315
-0.325
-0.335
-0.35
-0.325
-0.305
-0.32
-0.325
-0.34
-0.35
-0.32
-0.315
-0.305
-0.315
-0.34
-0.335
-0.325
-0.325
-0.32
-0.33
-0.335
-0.35
-0.36
-0.33
-0.335
-0.35
-0.35
-0.345
-0.32
-0.295
-0.275
-0.2
0.005
0.395
0.715
0.785
0.635
0.485
0.41
0.37
0.34
0.3
0.23
0.16
0.07
0.005
-0.06
-0.105
-0.2
-0.29
-0.41
-0.54
-0.675
-0.83
-1.02
-1.235
-1.425
-1.565
-1.695
-1.805
-1.91
-2.04
-2.15
-2.23
-2.27
-2.27
-2.265
-2.255
-2.24
-2.21
-2.14
-2.04
-1.9
-1.735
-1.55
-1.375
-1.205
-1.095
-1.02
-0.98
-0.945
-0.875
-0.795
-0.7
-0.63
-0.565
-0.5
-0.43
-0.35
-0.275
-0.205
-0.15
-0.115
-0.07
-0.035
-0.005
-0.005
0.01
0.005
0.02
0.05
0.075
0.08
0.075
0.07
0.085
0.105
0.135
0.12
0.115
0.1
0.125
0.155
0.175
0.185
0.18
0.185
0.19
0.22
0.255
0.265
0.25
0.255
0.275
0.305
0.33
0.345
0.345
0.37
0.39
0.425
0.48
0.495
0.505
0.515
0.525
0.56
0.59
0.61
0.615
0.62
0.65
0.67
0.705
0.72
0.72
0.715
0.73
0.745
0.75
0.75
0.735
0.72
0.72
0.715
0.71
0.69
0.66
0.635
0.6
0.58
0.565
0.535
0.49
0.435
0.395
0.38
0.345
0.305
0.26
0.21
0.185
0.16
0.13
0.11
0.075
0.06
0.025
0.015
0.005
