Lead II
-0.255
-0.255
-0.25
-0.255
-0.245
-0.245
-0.245
-0.245
-0.245
-0.22
-0.21
-0.215
-0.22
-0.21
-0.21
-0.19
-0.19
-0.2
-0.215
-0.215
-0.18
-0.155
-0.135
-0.125
-0.11
-0.105
-0.115
-0.115
-0.135
-0.145
-0.155
-0.17
-0.165
-0.155
-0.155
-0.155
-0.17
-0.18
-0.18
-0.175
-0.18
-0.2
-0.22
-0.235
-0.25
-0.24
-0.25
-0.255
-0.265
-0.275
-0.27
-0.26
-0.265
-0.27
-0.29
-0.275
-0.275
-0.28
-0.28
-0.285
-0.285
-0.285
-0.275
-0.26
-0.27
-0.28
-0.29
-0.29
-0.31
-0.325
-0.355
-0.385
-0.4
-0.35
-0.23
-0.045
0.195
0.5
0.835
1.135
1.315
1.3
1.08
0.81
0.565
0.405
0.34
0.305
0.225
0.12
0.035
-0.01
-0.055
-0.11
-0.175
-0.225
-0.265
-0.3
-0.31
-0.33
-0.33
-0.33
-0.335
-0.34
-0.34
-0.345
-0.345
-0.36
-0.365
-0.365
-0.36
-0.355
-0.35
-0.365
-0.38
-0.38
-0.36
-0.36
-0.37
-0.375
-0.36
-0.375
-0.36
-0.355
-0.355
-0.37
-0.38
-0.385
-0.38
-0.36
-0.365
-0.375
-0.395
-0.39
-0.375
-0.38
-0.385
-0.39
-0.395
-0.395
-0.38
-0.385
-0.38
-0.38
-0.39
-0.395
-0.385
-0.37
-0.385
-0.38
-0.39
-0.395
-0.385
-0.365
-0.375
-0.375
-0.385
-0.375
-0.36
-0.35
-0.345
-0.355
-0.345
-0.35
-0.335
-0.32
-0.325
-0.32
-0.325
-0.315
-0.31
-0.29
-0.285
-0.285
-0.285
-0.275
-0.255
-0.25
-0.235
-0.22
-0.215
-0.205
-0.19
-0.175
-0.17
-0.155
-0.155
-0.145
-0.13
-0.105
-0.1
-0.1
-0.11
-0.1
-0.08
-0.065
-0.06
-0.06
-0.065
-0.065
-0.05
-0.05
-0.06
-0.085
-0.085
-0.105
-0.11
-0.1
-0.11
-0.135
-0.15
-0.16
-0.175
-0.17
-0.185
-0.21
-0.225
-0.24
-0.245
-0.235
-0.26
-0.27
-0.285
-0.29
-0.285
-0.285
-0.295
-0.295
-0.31
-0.325
-0.31
-0.295
-0.305
-0.325
-0.33
-0.34
-0.32
-0.315
-0.325
-0.33
-0.335
-0.35
-0.35
-0.33
-0.325
-0.34
-0.345
-0.36
-0.34
-0.34
-0.34
-0.34
-0.345
-0.355
-0.34
-0.325
-0.34
-0.345
-0.35
-0.35
-0.345
-0.33
-0.325
-0.335
-0.345
-0.335
-0.32
-0.305
-0.32
-0.33
-0.33
-0.335
-0.32
-0.315
-0.315
-0.325
-0.33
-0.33
-0.315
-0.3
-0.32
-0.32
-0.33
-0.32
-0.315
-0.305
-0.325
-0.32
-0.33
-0.325
-0.315
-0.305
-0.315
-0.32
-0.32
-0.33
-0.33
-0.315
-0.32
-0.31
-0.325
-0.33
-0.325
-0.31
-0.32
-0.325
-0.325
-0.335
-0.325
-0.31
-0.32
-0.325
-0.33
-0.325
-0.325
-0.305
-0.32
-0.315
-0.325
-0.335
-0.315
-0.31
-0.315
-0.325
-0.325
-0.33
-0.33
-0.325
-0.325
-0.33
-0.34
-0.325
-0.31
-0.305
-0.305
-0.31
-0.325
-0.325
-0.31
-0.315
-0.33
-0.335
-0.325
-0.32
-0.32
-0.31
-0.315
-0.315
-0.325
-0.33
-0.32
-0.315
-0.3
-0.315
-0.33
-0.325
-0.315
-0.31
-0.31
-0.31
-0.33
-0.33
-0.315
-0.31
-0.31
-0.32
-0.32
-0.325
-0.31
-0.3
-0.305
-0.305
-0.315
-0.315
-0.305
-0.305
-0.3
-0.31
-0.325
-0.335
-0.315
-0.29
-0.295
-0.295
-0.295
-0.3
-0.29
-0.28
-0.28
-0.3
-0.29
-0.295
-0.28
-0.27
-0.265
-0.265
-0.265
-0.265
-0.255
-0.25
-0.245
-0.26
-0.26
-0.26
-0.24
-0.22
-0.22
-0.21
-0.2
-0.175
-0.15
-0.14
-0.135
-0.16
-0.18
-0.19
-0.175
-0.175
-0.185
-0.195
-0.205
-0.21
-0.205
-0.205
-0.205
-0.22
-0.22
-0.24
-0.24
-0.225
-0.245
-0.265
-0.29
-0.305
-0.295
-0.29
-0.3
-0.31
-0.31
-0.32
-0.315
-0.295
-0.31
-0.305
-0.325
-0.325
-0.315
-0.315
-0.315
-0.33
-0.335
-0.33
-0.325
-0.305
-0.32
-0.315
-0.325
-0.355
-0.36
-0.385
-0.415
-0.445
-0.43
-0.38
-0.245
-0.06
0.175
0.455
0.775
1.075
1.23
1.175
0.93
0.645
0.435
0.285
0.235
0.185
0.08
-0.035
-0.105
-0.135
-0.175
-0.21
-0.275
-0.31
-0.345
-0.385
-0.385
-0.375
-0.365
-0.37
-0.385
-0.4
-0.395
-0.375
-0.39
-0.395
-0.405
-0.405
-0.405
-0.385
-0.395
-0.405
-0.415
-0.405
-0.4
-0.39
-0.395
-0.41
-0.41
-0.415
-0.4
-0.385
-0.405
-0.395
-0.42
-0.42
-0.395
-0.4
-0.4
-0.41
-0.415
-0.425
-0.415
-0.395
-0.4
-0.405
-0.405
-0.405
-0.395
-0.395
-0.41
-0.4
-0.41
-0.415
-0.4
-0.395
-0.4
-0.395
-0.405
-0.395
-0.385
-0.365
-0.365
-0.37
-0.375
-0.39
-0.36
-0.35
-0.35
-0.36
-0.365
-0.35
-0.34
-0.33
-0.32
-0.31
-0.315
-0.315
-0.295
-0.275
-0.27
-0.265
-0.26
-0.265
-0.235
-0.21
-0.205
-0.205
-0.2
-0.195
-0.17
-0.15
-0.135
-0.13
-0.125
-0.12
-0.115
-0.1
-0.095
-0.1
-0.105
-0.095
-0.07
-0.065
-0.065
-0.08
-0.075
-0.085
-0.08
-0.085
-0.1
-0.115
-0.13
-0.155
-0.155
-0.155
-0.165
-0.185
-0.205
-0.23
-0.24
-0.23
-0.235
-0.25
-0.265
-0.275
-0.275
-0.27
-0.28
-0.295
-0.295
-0.3
-0.29
-0.29
-0.305
-0.305
-0.315
-0.325
-0.315
-0.305
-0.31
-0.315
-0.315
-0.33
-0.315
-0.305
-0.32
-0.325
-0.345
-0.33
-0.325
-0.32
-0.315
-0.33
-0.34
-0.34
-0.325
-0.315
-0.325
-0.325
-0.335
-0.35
-0.335
-0.325
-0.32
-0.325
-0.33
-0.33
-0.335
-0.32
-0.335
-0.34
-0.325
-0.335
-0.32
-0.32
-0.33
-0.33
-0.335
-0.345
-0.34
-0.32
-0.325
-0.325
-0.345
-0.345
-0.335
-0.33
-0.33
-0.335
-0.34
-0.335
-0.335
-0.315
-0.32
-0.32
-0.33
-0.345
-0.33
-0.335
-0.335
-0.34
-0.335
-0.35
-0.335
-0.335
-0.345
-0.33
-0.345
-0.34
-0.335
-0.325
-0.335
-0.335
-0.345
-0.35
-0.355
-0.34
-0.35
-0.35
-0.34
-0.35
-0.335
-0.33
-0.335
-0.34
-0.345
-0.345
-0.345
-0.33
-0.34
-0.33
-0.345
-0.34
-0.34
-0.33
-0.345
-0.335
-0.35
-0.35
-0.33
-0.335
-0.35
-0.35
-0.36
-0.36
-0.345
-0.335
-0.32
-0.34
-0.345
-0.36
-0.345
-0.35
-0.34
-0.34
-0.35
-0.355
-0.355
-0.335
-0.33
-0.34
-0.35
-0.345
-0.335
-0.325
-0.335
-0.335
-0.345
-0.345
-0.33
-0.33
-0.325
-0.34
-0.34
-0.345
-0.33
-0.32
-0.325
-0.315
-0.31
-0.315
-0.295
-0.295
-0.28
-0.29
-0.29
-0.29
-0.29
-0.275
-0.265
-0.26
-0.245
-0.225
-0.185
-0.165
-0.175
-0.2
-0.225
-0.23
-0.22
-0.215
-0.225
-0.245
-0.255
-0.245
-0.24
-0.235
-0.245
-0.265
-0.28
-0.285
-0.285
-0.295
-0.315
-0.34
-0.355
-0.355
-0.35
-0.34
-0.35
-0.35
-0.355
-0.365
-0.345
-0.35
-0.355
-0.365
-0.37
-0.375
-0.36
-0.35
-0.355
-0.355
-0.365
-0.375
-0.375
-0.37
-0.4
-0.45
-0.475
-0.495
-0.45
-0.355
-0.175
0.045
0.335
0.68
1.01
1.2
1.16
0.935
0.635
0.4
0.275
0.235
0.165
0.04
-0.06
-0.11
-0.155
-0.21
-0.265
-0.31
-0.36
-0.405
-0.415
-0.395
-0.395
-0.395
-0.41
-0.415
-0.42
-0.41
-0.415
-0.425
-0.425
-0.43
-0.42
-0.415
-0.425
-0.43
-0.43
-0.44
-0.43
-0.425
-0.43
-0.43
-0.43
-0.445
-0.43
-0.415
-0.425
-0.425
-0.43
-0.44
-0.425
-0.415
-0.43
-0.44
-0.445
-0.445
-0.43
-0.425
-0.43
-0.43
-0.44
-0.44
-0.44
-0.42
-0.425
-0.43
-0.425
-0.43
-0.42
-0.425
-0.415
-0.425
-0.42
-0.415
-0.4
-0.375
-0.385
-0.4
-0.405
-0.395
-0.375
-0.37
-0.365
-0.36
-0.37
-0.355
-0.335
-0.33
-0.32
-0.32
-0.32
-0.3
-0.285
-0.25
-0.265
-0.25
-0.245
-0.225
-0.205
-0.185
-0.18
-0.165
-0.16
-0.15
-0.14
-0.115
-0.115
-0.11
-0.095
-0.095
-0.085
-0.065
-0.08
-0.08
-0.085
-0.09
-0.08
-0.09
-0.09
-0.12
-0.14
-0.15
-0.155
-0.165
-0.185
-0.205
-0.235
-0.23
-0.25
-0.26
-0.265
-0.29
-0.305
-0.32
-0.31
-0.305
-0.32
-0.32
-0.33
-0.345
-0.335
-0.325
-0.35
-0.345
-0.35
-0.355
-0.36
-0.345
-0.35
-0.36
-0.375
-0.37
-0.365
-0.35
-0.365
-0.36
-0.35
-0.37
-0.35
-0.34
-0.355
-0.35
-0.35
-0.365
-0.35
-0.345
-0.35
-0.36
-0.36
-0.365
-0.35
-0.35
-0.335
-0.345
-0.34
-0.355
-0.345
-0.33
-0.335
-0.335
-0.34
-0.335
-0.335
-0.315
-0.325
-0.34
-0.34
-0.345
-0.34
-0.33
-0.33
-0.34
-0.355
-0.35
-0.345
-0.325
-0.335
-0.34
-0.345
-0.35
-0.335
-0.325
-0.325
-0.335
-0.335
-0.36
-0.335
-0.325
-0.34
-0.34
-0.355
-0.345
-0.33
-0.335
-0.33
-0.34
-0.345
-0.345
-0.335
-0.33
-0.325
-0.35
-0.34
-0.35
-0.345
-0.33
-0.335
-0.345
-0.355
-0.35
-0.33
-0.335
-0.335
-0.345
-0.365
-0.355
-0.34
-0.33
-0.33
-0.335
-0.35
-0.34
-0.33
-0.33
-0.325
-0.34
-0.345
-0.34
-0.335
-0.325
-0.335
-0.335
-0.345
-0.36
-0.335
-0.335
-0.33
-0.33
-0.335
-0.345
-0.34
-0.33
-0.33
-0.335
-0.345
-0.345
-0.335
-0.32
-0.33
-0.34
-0.335
-0.355
-0.335
-0.325
-0.33
-0.33
-0.33
-0.335
-0.32
-0.32
-0.325
-0.33
-0.325
-0.34
-0.32
-0.31
-0.3
-0.31
-0.325
-0.325
-0.305
-0.275
-0.275
-0.28
-0.28
-0.28
-0.275
-0.265
-0.26
-0.27
-0.275
-0.25
-0.225
-0.195
-0.17
-0.165
-0.16
-0.18
-0.185
-0.19
-0.2
-0.205
-0.23
-0.24
-0.215
-0.21
-0.22
-0.23
-0.225
-0.245
-0.245
-0.25
-0.26
-0.28
-0.31
-0.33
-0.315
-0.315
-0.315
-0.315
-0.325
-0.32
-0.33
-0.32
-0.325
-0.335
-0.355
-0.34
-0.335
-0.325
-0.325
-0.325
-0.335
-0.345
-0.335
-0.33
-0.33
-0.34
-0.355
-0.375
-0.405
-0.425
-0.445
-0.43
-0.34
-0.16
0.1
0.425
0.785
1.11
1.265
1.155
0.905
0.635
0.42
0.31
0.255
0.155
0.055
-0.03
-0.095
-0.15
-0.225
-0.275
-0.305
-0.33
-0.365
-0.37
-0.375
-0.37
-0.36
-0.375
-0.38
-0.38
-0.39
-0.39
-0.385
-0.38
-0.385
-0.395
-0.4
-0.4
-0.39
-0.38
-0.375
-0.385
-0.39
-0.41
-0.395
-0.39
-0.385
-0.38
-0.395
-0.395
-0.39
-0.385
-0.39
-0.385
-0.395
-0.405
-0.39
-0.38
-0.395
-0.4
-0.4
-0.395
-0.39
-0.38
-0.38
-0.39
-0.385
-0.4
-0.38
-0.375
-0.37
-0.38
-0.385
-0.375
-0.375
-0.36
-0.36
-0.35
-0.365
-0.35
-0.345
-0.34
-0.335
-0.34
-0.335
-0.33
-0.3
-0.29
-0.285
-0.28
-0.285
-0.275
-0.265
-0.225
-0.215
-0.225
-0.22
-0.2
-0.18
-0.16
-0.155
-0.145
-0.145
-0.135
-0.115
-0.1
-0.085
-0.085
-0.09
-0.085
-0.06
-0.045
-0.045
-0.045
-0.045
-0.045
-0.045
-0.035
-0.04
-0.06
-0.07
-0.095
-0.085
-0.08
-0.095
-0.11
-0.13
-0.16
-0.16
-0.15
-0.175
-0.195
-0.22
-0.22
-0.215
-0.22
-0.24
-0.245
-0.25
-0.27
-0.255
-0.26
-0.265
-0.275
-0.275
-0.285
-0.27
-0.275
-0.27
-0.27
-0.28
-0.295
-0.29
-0.285
-0.275
-0.285
-0.29
-0.295
-0.285
-0.28
-0.29
-0.285
-0.285
-0.29
-0.285
-0.28
-0.28
-0.3
-0.31
-0.31
-0.29
-0.28
-0.28
-0.28
-0.3
-0.275
-0.27
-0.27
-0.28
-0.275
-0.28
-0.285
-0.27
-0.26
-0.27
-0.28
-0.275
-0.28
-0.255
-0.26
-0.26
-0.275
-0.275
-0.265
-0.255
-0.245
-0.25
-0.255
-0.265
-0.27
-0.255
-0.255
-0.26
-0.265
-0.27
-0.285
-0.265
-0.26
-0.255
-0.27
-0.28
-0.27
-0.265
-0.255
-0.26
-0.265
-0.28
-0.285
-0.275
-0.27
-0.255
-0.26
-0.29
-0.285
-0.285
-0.28
-0.28
-0.27
-0.29
-0.28
-0.27
-0.255
-0.26
-0.27
-0.265
-0.275
-0.26
-0.245
-0.25
-0.26
-0.265
-0.27
-0.26
-0.245
-0.25
-0.26
-0.26
-0.265
-0.26
-0.255
-0.25
-0.25
-0.265
-0.265
-0.26
-0.255
-0.25
-0.25
-0.265
-0.27
-0.255
-0.255
-0.25
-0.265
-0.265
-0.255
-0.24
-0.24
-0.24
-0.235
-0.245
-0.265
-0.26
-0.245
-0.25
-0.255
-0.265
-0.28
-0.26
-0.24
-0.25
-0.26
-0.26
-0.265
-0.25
-0.24
-0.235
-0.255
-0.245
-0.25
-0.245
-0.225
-0.215
-0.21
-0.215
-0.205
-0.195
-0.18
-0.2
-0.215
-0.215
-0.2
-0.175
-0.155
-0.135
-0.115
-0.11
-0.105
-0.095
-0.09
-0.125
-0.125
-0.135
-0.16
-0.155
-0.15
-0.155
-0.155
-0.17
-0.18
-0.165
-0.165
-0.165
-0.185
-0.2
-0.22
-0.23
-0.225
-0.24
-0.255
-0.27
-0.27
-0.265
-0.245
-0.245
-0.26
-0.26
-0.275
-0.26
-0.25
-0.255
-0.265
-0.27
-0.27
-0.26
-0.255
-0.26
-0.265
-0.28
-0.28
-0.305
-0.33
-0.36
-0.38
-0.37
-0.29
-0.115
0.11
0.38
0.71
1.045
1.27
1.29
1.095
0.79
0.52
0.355
0.26
0.185
0.08
-0.045
-0.1
-0.115
-0.165
-0.19
-0.21
-0.225
-0.265
-0.28
-0.305
-0.29
-0.295
-0.29
-0.3
-0.305
-0.31
-0.305
-0.305
-0.305
-0.315
-0.33
-0.34
-0.325
-0.325
-0.315
-0.325
-0.33
-0.335
-0.32
-0.315
-0.32
-0.33
-0.33
-0.335
-0.325
-0.315
-0.32
-0.33
-0.335
-0.33
-0.32
-0.32
-0.32
-0.32
-0.335
-0.325
-0.33
-0.315
-0.31
-0.325
-0.32
-0.33
-0.33
-0.32
-0.325
-0.33
-0.32
-0.315
-0.305
-0.3
-0.3
-0.31
-0.32
-0.315
-0.295
-0.3
-0.3
-0.305
-0.295
-0.29
-0.275
-0.26
-0.255
-0.25
-0.25
-0.23
-0.22
-0.21
-0.205
-0.19
-0.2
-0.21
-0.19
-0.165
-0.145
-0.13
-0.115
-0.12
-0.105
-0.1
-0.1
-0.1
-0.09
-0.085
-0.07
-0.035
-0.05
-0.035
-0.05
-0.055
-0.045
-0.035
-0.035
-0.035
-0.04
-0.05
-0.04
-0.04
-0.05
-0.055
-0.08
-0.1
-0.115
-0.11
-0.13
-0.145
-0.165
-0.175
-0.175
-0.18
-0.185
-0.2
-0.21
-0.225
-0.24
-0.24
-0.25
-0.25
-0.25
-0.26
-0.26
-0.27
-0.28
-0.285
-0.275
-0.28
-0.28
-0.285
-0.295
-0.3
-0.31
-0.32
-0.315
-0.305
-0.305
-0.31
-0.325
-0.31
-0.295
-0.305
-0.315
-0.335
-0.335
-0.325
-0.33
-0.315
-0.32
-0.315
-0.32
-0.34
-0.34
-0.335
-0.33
-0.32
-0.32
-0.335
-0.33
-0.315
-0.32
-0.325
-0.32
-0.32
-0.315
-0.31
-0.315
-0.315
-0.325
-0.325
-0.32
-0.32
-0.325
-0.345
-0.34
-0.34
-0.32
-0.305
-0.305
-0.33
-0.345
-0.35
-0.34
-0.335
-0.34
-0.35
-0.345
-0.365
-0.36
-0.355
-0.335
-0.335
-0.365
-0.38
-0.365
-0.35
-0.35
-0.35
-0.37
-0.375
-0.375
-0.375
-0.375
-0.385
-0.385
-0.375
-0.375
-0.365
-0.37
-0.385
-0.395
-0.395
-0.385
-0.395
-0.385
-0.39
-0.385
-0.385
-0.375
-0.38
-0.395
-0.4
-0.4
-0.405
-0.4
-0.405
-0.41
-0.42
-0.405
-0.425
-0.42
-0.39
-0.39
-0.405
-0.435
-0.43
-0.41
-0.39
-0.415
-0.425
-0.435
-0.45
-0.435
-0.425
-0.425
-0.42
-0.43
-0.42
-0.415
-0.415
-0.415
-0.42
-0.43
-0.425
-0.405
-0.4
-0.415
-0.43
-0.43
-0.43
-0.42
-0.42
-0.43
-0.43
-0.435
-0.425
-0.415
-0.43
-0.425
-0.44
-0.435
-0.45
-0.445
-0.42
-0.4
-0.39
-0.4
-0.4
-0.385
-0.385
-0.395
-0.42
-0.42
-0.415
-0.405
-0.38
-0.365
-0.37
-0.36
-0.35
-0.32
-0.32
-0.305
-0.31
-0.33
-0.36
-0.355
-0.365
-0.365
-0.37
-0.375
-0.38
-0.365
-0.34
-0.355
-0.37
-0.405
-0.45
-0.46
-0.45
-0.445
-0.45
-0.47
-0.48
-0.48
-0.47
-0.475
-0.48
-0.495
-0.495
-0.47
-0.46
-0.47
-0.47
-0.485
-0.485
-0.475
-0.475
-0.485
-0.475
-0.485
-0.485
-0.475
-0.475
-0.5
-0.535
-0.575
-0.62
-0.625
-0.62
-0.53
-0.37
-0.16
0.105
0.42
0.75
1.025
1.145
1.04
0.795
0.54
0.35
0.25
0.17
0.095
-0.04
-0.145
-0.2
-0.235
-0.285
-0.345
-0.4
-0.425
-0.45
-0.49
-0.515
-0.535
-0.535
-0.525
-0.525
-0.55
-0.555
-0.56
-0.565
-0.555
-0.56
-0.565
-0.57
-0.57
-0.56
-0.555
-0.565
-0.575
-0.58
-0.585
-0.58
-0.565
-0.56
-0.565
-0.58
-0.575
-0.565
-0.565
-0.56
-0.575
-0.58
-0.57
-0.575
-0.57
-0.55
-0.575
-0.575
-0.575
-0.585
-0.57
-0.575
-0.58
-0.575
-0.59
-0.59
-0.59
-0.58
-0.59
-0.575
-0.58
-0.6
-0.59
-0.58
-0.585
-0.585
-0.56
-0.57
-0.575
-0.56
-0.57
-0.565
-0.56
-0.56
-0.555
-0.545
-0.555
-0.555
-0.57
-0.555
-0.545
-0.525
-0.51
-0.51
-0.5
-0.485
-0.47
-0.47
-0.47
-0.475
-0.485
-0.475
-0.44
-0.405
-0.4
-0.41
-0.405
-0.39
-0.38
-0.375
-0.35
-0.335
-0.33
-0.305
-0.29
-0.28
-0.27
-0.265
-0.265
-0.265
-0.25
-0.24
-0.235
-0.245
-0.26
-0.285
-0.265
-0.25
-0.245
-0.26
-0.285
-0.31
-0.315
-0.305
-0.3
-0.315
-0.34
-0.375
-0.395
-0.395
-0.415
-0.455
-0.47
-0.495
-0.48
-0.46
-0.465
-0.485
-0.515
-0.52
-0.52
-0.505
-0.525
-0.54
-0.54
-0.545
-0.535
-0.55
-0.53
-0.535
-0.535
-0.55
-0.555
-0.545
-0.54
-0.545
-0.56
-0.565
-0.55
-0.545
-0.545
-0.575
-0.58
-0.565
-0.545
-0.54
-0.54
-0.56
-0.565
-0.565
-0.545
-0.54
-0.54
-0.55
-0.565
-0.555
-0.555
-0.55
-0.54
-0.53
-0.525
-0.53
-0.53
-0.515
-0.505
-0.525
-0.545
-0.555
-0.54
-0.525
-0.525
-0.54
-0.555
-0.55
-0.525
-0.515
-0.51
-0.525
-0.555
-0.56
-0.545
-0.53
-0.53
-0.54
-0.535
-0.535
-0.51
-0.5
-0.505
-0.515
-0.55
-0.575
-0.56
-0.535
-0.53
-0.52
-0.525
-0.545
-0.53
-0.535
-0.53
-0.545
-0.535
-0.535
-0.52
-0.515
-0.53
-0.54
-0.555
-0.54
-0.535
-0.505
-0.525
-0.535
-0.535
-0.52
-0.505
-0.52
-0.53
-0.565
-0.58
-0.595
-0.555
-0.53
-0.52
-0.53
-0.535
-0.555
-0.555
-0.535
-0.525
-0.54
-0.55
-0.555
-0.535
-0.515
-0.525
-0.56
-0.59
-0.6
-0.58
-0.545
-0.54
-0.565
-0.59
-0.595
-0.595
-0.585
-0.57
-0.555
-0.57
-0.58
-0.585
-0.58
-0.565
-0.545
-0.555
-0.575
-0.58
-0.58
-0.56
-0.57
-0.585
-0.61
-0.59
-0.595
-0.585
-0.575
-0.585
-0.605
-0.59
-0.57
-0.555
-0.545
-0.56
-0.57
-0.585
-0.585
-0.575
-0.57
-0.575
-0.57
-0.56
-0.53
-0.55
-0.57
-0.59
-0.62
-0.615
-0.585
-0.56
-0.545
-0.555
-0.52
-0.48
-0.445
-0.45
-0.495
-0.525
-0.54
-0.535
-0.53
-0.555
-0.57
-0.585
-0.575
-0.575
-0.575
-0.58
-0.605
-0.635
-0.69
-0.77
-0.965
-1.36
-1.9
-2.375
-2.575
-2.52
-2.355
-2.065
-1.79
-1.955
-2.22
-1.955
-1.32
-0.935
-0.92
-1.02
-1.075
-1.095
-1.175
-1.375
-1.675
-1.83
-1.93
-2.24
-2.495
-2.33
-1.825
-1.625
-2.04
-2.395
-2.18
-1.91
-2.075
-2.265
-2.07
-1.87
-2.005
-2.06
-1.86
-1.82
-2.01
-2.2
-2.285
-2.29
-2.285
-2.33
-2.42
-2.475
-2.465
-2.435
-2.36
-2.16
-1.865
-1.48
-1.045
-0.86
-0.89
-0.94
-0.925
-0.87
-0.81
-0.795
-0.79
-0.785
-0.785
-0.755
-0.715
-0.71
-0.72
-0.71
-0.71
-0.69
-0.665
-0.655
-0.665
-0.675
-0.68
-0.66
-0.62
-0.6
-0.625
-0.635
-0.66
-0.64
-0.605
-0.58
-0.6
-0.635
-0.64
-0.63
-0.625
-0.61
-0.605
-0.595
-0.605
-0.595
-0.57
-0.575
-0.58
-0.595
-0.61
-0.605
-0.585
-0.565
-0.575
-0.575
-0.58
-0.555
-0.55
-0.545
-0.55
-0.56
-0.565
-0.55
-0.52
-0.5
-0.51
-0.515
-0.51
-0.49
-0.485
-0.49
-0.49
-0.475
-0.465
-0.445
-0.43
-0.425
-0.42
-0.395
-0.405
-0.385
-0.365
-0.35
-0.34
-0.34
-0.33
-0.305
-0.285
-0.29
-0.295
-0.28
-0.265
-0.23
-0.2
-0.195
-0.18
-0.16
-0.17
-0.17
-0.145
-0.15
-0.12
-0.115
-0.11
-0.09
-0.095
-0.095
-0.105
-0.115
-0.13
-0.14
-0.135
-0.12
-0.13
-0.13
-0.17
-0.16
-0.155
-0.17
-0.195
-0.21
-0.22
-0.22
-0.225
-0.235
-0.29
-0.315
-0.305
-0.29
-0.285
-0.29
-0.295
-0.305
-0.315
-0.3
-0.295
-0.29
-0.29
-0.295
-0.3
-0.29
-0.3
-0.315
-0.33
-0.325
-0.32
-0.31
-0.295
-0.29
-0.27
-0.235
-0.235
-0.255
-0.295
-0.315
-0.32
-0.315
-0.31
-0.295
-0.28
-0.29
-0.295
-0.305
-0.295
-0.28
-0.26
-0.27
-0.285
-0.315
-0.325
-0.315
-0.295
-0.31
-0.31
-0.295
-0.265
-0.255
-0.235
-0.24
-0.25
-0.285
-0.31
-0.305
-0.295
-0.26
-0.26
-0.27
-0.28
-0.275
-0.26
-0.25
-0.23
-0.235
-0.26
-0.255
-0.245
-0.24
-0.25
-0.26
-0.255
-0.235
-0.225
-0.24
-0.255
-0.255
-0.265
-0.26
-0.24
-0.25
-0.255
-0.265
-0.28
-0.265
-0.265
-0.245
-0.235
-0.24
-0.225
-0.21
-0.205
-0.23
-0.235
-0.255
-0.255
-0.225
-0.195
-0.205
-0.21
-0.225
-0.225
-0.235
-0.245
-0.235
-0.225
-0.23
-0.245
-0.235
-0.22
-0.22
-0.225
-0.22
-0.21
-0.195
-0.205
-0.215
-0.215
-0.23
-0.22
-0.2
-0.195
-0.205
-0.215
-0.235
-0.255
-0.235
-0.21
-0.215
-0.2
-0.22
-0.24
-0.235
-0.24
-0.235
-0.225
-0.225
-0.22
-0.21
-0.205
-0.185
-0.175
-0.2
-0.21
-0.215
-0.21
-0.195
-0.19
-0.185
-0.205
-0.19
-0.165
-0.135
-0.13
-0.135
-0.125
-0.08
-0.07
-0.09
-0.115
-0.115
-0.11
-0.1
-0.09
-0.085
-0.115
-0.145
-0.165
-0.155
-0.135
-0.13
-0.155
-0.205
-0.23
-0.23
-0.21
-0.21
-0.23
-0.235
-0.265
-0.255
-0.23
-0.21
-0.235
-0.26
-0.275
-0.265
-0.25
-0.26
-0.265
-0.275
-0.27
-0.265
-0.255
-0.25
-0.25
-0.26
-0.265
-0.265
-0.29
-0.335
-0.375
-0.405
-0.385
-0.285
-0.1
0.15
0.44
0.78
1.14
1.4
1.445
1.23
0.91
0.65
0.515
0.445
0.37
0.235
0.08
0.02
0.015
0.015
-0.05
-0.13
-0.2
-0.245
-0.265
-0.255
-0.25
-0.245
-0.255
-0.27
-0.28
-0.27
-0.27
-0.26
-0.285
-0.3
-0.31
-0.3
-0.29
-0.285
-0.285
-0.3
-0.315
-0.31
-0.31
-0.31
-0.3
-0.32
-0.32
-0.295
-0.285
-0.295
-0.285
-0.29
-0.31
-0.3
-0.295
-0.28
-0.27
-0.27
-0.275
-0.285
-0.275
-0.29
-0.305
-0.33
-0.345
-0.315
-0.295
-0.31
-0.32
-0.325
-0.305
-0.295
-0.28
-0.265
-0.27
-0.275
-0.28
-0.265
-0.27
-0.285
-0.28
-0.265
-0.255
-0.26
-0.255
-0.235
-0.22
-0.245
-0.255
-0.235
-0.22
-0.21
-0.215
-0.215
-0.205
-0.17
-0.16
-0.155
-0.17
-0.185
-0.15
-0.105
-0.085
-0.085
-0.075
-0.06
-0.06
-0.05
-0.04
-0.055
-0.045
-0.035
-0.03
-0.01
0.0
0.01
0.015
0.015
0.005
0.015
0.02
0.02
-0.01
-0.045
-0.045
-0.055
-0.045
-0.06
-0.095
-0.12
-0.155
-0.145
-0.15
-0.155
-0.17
-0.185
-0.215
-0.24
-0.26
-0.25
-0.255
-0.26
-0.295
-0.28
-0.265
-0.265
-0.245
-0.25
-0.255
-0.27
-0.285
-0.295
-0.315
-0.32
-0.305
-0.305
-0.29
-0.26
-0.265
-0.29
-0.33
-0.345
-0.33
-0.305
-0.31
-0.305
-0.325
-0.335
-0.315
-0.315
-0.295
-0.315
-0.32
-0.32
-0.315
-0.305
-0.335
-0.33
-0.325
-0.3
-0.285
-0.295
-0.325
-0.34
-0.34
-0.32
-0.32
-0.33
-0.335
-0.325
-0.31
-0.315
-0.32
-0.31
-0.31
-0.335
-0.35
-0.34
-0.315
-0.325
-0.36
-0.385
-0.39
-0.365
-0.325
-0.31
-0.305
-0.3
-0.325
-0.335
-0.34
-0.35
-0.345
-0.365
-0.39
-0.375
-0.36
-0.33
-0.315
-0.345
-0.36
-0.34
-0.335
-0.335
-0.36
-0.375
-0.37
-0.34
-0.32
-0.345
-0.36
-0.38
-0.37
-0.365
-0.355
-0.355
-0.36
-0.36
-0.355
-0.365
-0.39
-0.395
-0.39
-0.365
-0.35
-0.36
-0.37
-0.39
-0.415
-0.415
-0.42
-0.405
-0.385
-0.37
-0.39
-0.405
-0.425
-0.435
-0.39
-0.34
-0.34
-0.37
-0.39
-0.41
-0.43
-0.445
-0.415
-0.38
-0.37
-0.38
-0.395
-0.4
-0.37
-0.37
-0.38
-0.375
-0.37
-0.365
-0.35
-0.36
-0.345
-0.31
-0.32
-0.325
-0.335
-0.345
-0.345
-0.335
-0.345
-0.335
-0.3
-0.27
-0.25
-0.24
-0.255
-0.28
-0.295
-0.305
-0.32
-0.315
-0.31
-0.3
-0.3
-0.29
-0.315
-0.32
-0.33
-0.325
-0.325
-0.34
-0.37
-0.385
-0.385
-0.36
-0.345
-0.37
-0.395
-0.405
-0.4
-0.385
-0.4
-0.4
-0.4
-0.38
-0.37
-0.405
-0.41
-0.41
-0.415
-0.405
-0.395
-0.38
-0.4
-0.42
-0.435
-0.435
-0.45
-0.49
-0.53
-0.56
-0.545
-0.46
-0.295
-0.1
0.18
0.54
0.93
1.225
1.315
1.16
0.9
0.645
0.475
0.4
0.355
0.26
0.13
0.03
-0.04
-0.11
-0.19
-0.26
-0.325
-0.395
-0.46
-0.46
-0.43
-0.405
-0.405
-0.425
-0.46
-0.475
-0.475
-0.455
-0.425
-0.43
-0.44
-0.44
-0.46
-0.485
-0.52
-0.51
-0.505
-0.465
-0.465
-0.465
-0.47
-0.49
-0.5
-0.495
-0.49
-0.475
-0.45
-0.44
-0.475
-0.525
-0.57
-0.555
-0.51
-0.48
-0.47
-0.47
-0.465
-0.47
-0.48
-0.505
-0.51
-0.49
-0.49
-0.5
-0.51
-0.515
-0.52
-0.515
-0.475
-0.475
-0.48
-0.5
-0.545
-0.535
-0.505
-0.475
-0.465
-0.465
-0.46
-0.44
-0.43
-0.425
-0.435
-0.475
-0.48
-0.47
-0.44
-0.41
-0.415
-0.415
-0.41
-0.395
-0.375
-0.355
-0.34
-0.34
-0.325
-0.33
-0.32
-0.305
-0.29
-0.265
-0.255
-0.235
-0.21
-0.185
-0.195
-0.2
-0.205
-0.185
-0.16
-0.165
-0.195
-0.21
-0.205
-0.165
-0.16
-0.15
-0.165
-0.175
-0.19
-0.185
-0.2
-0.225
-0.235
-0.27
-0.28
-0.285
-0.295
-0.31
-0.315
-0.32
-0.325
-0.31
-0.335
-0.375
-0.395
-0.39
-0.39
-0.39
-0.395
-0.395
-0.41
-0.43
-0.42
-0.405
-0.4
-0.38
-0.365
-0.38
-0.41
-0.41
-0.42
-0.4
-0.4
-0.415
-0.425
-0.43
-0.43
-0.43
-0.425
-0.425
-0.43
-0.41
-0.4
-0.405
-0.415
-0.42
-0.445
-0.435
-0.415
-0.4
-0.385
-0.395
-0.41
-0.41
-0.405
-0.4
-0.41
-0.41
-0.42
-0.415
-0.4
-0.385
-0.405
-0.415
-0.415
-0.405
-0.4
-0.395
-0.4
-0.385
-0.38
-0.375
-0.395
-0.41
-0.41
-0.405
-0.385
-0.38
-0.37
-0.385
-0.4
-0.405
-0.4
-0.39
-0.385
-0.375
-0.385
-0.385
-0.38
-0.365
-0.355
-0.37
-0.415
-0.42
-0.41
-0.375
-0.35
-0.365
-0.39
-0.4
-0.395
-0.385
-0.385
-0.365
-0.36
-0.37
-0.375
-0.38
-0.375
-0.36
-0.36
-0.355
-0.355
-0.36
-0.365
-0.395
-0.415
-0.41
-0.41
-0.38
-0.355
-0.355
-0.38
-0.385
-0.365
-0.36
-0.34
-0.325
-0.335
-0.355
-0.395
-0.41
-0.39
-0.38
-0.37
-0.36
-0.365
-0.385
-0.39
-0.38
-0.35
-0.36
-0.365
-0.36
-0.36
-0.365
-0.365
-0.365
-0.36
-0.345
-0.33
-0.33
-0.345
-0.345
-0.36
-0.355
-0.34
-0.35
-0.36
-0.345
-0.345
-0.33
-0.31
-0.3
-0.29
-0.305
-0.335
-0.31
-0.3
-0.295
-0.3
-0.29
-0.265
-0.245
-0.235
-0.25
-0.255
-0.255
-0.25
-0.235
-0.22
-0.235
-0.255
-0.275
-0.29
-0.275
-0.265
-0.305
-0.33
-0.35
-0.36
-0.34
-0.325
-0.305
-0.305
-0.325
-0.37
-0.385
-0.375
-0.37
-0.365
-0.375
-0.395
-0.39
-0.345
-0.34
-0.35
-0.375
-0.41
-0.38
-0.37
-0.37
-0.39
-0.4
-0.415
-0.42
-0.44
-0.45
-0.49
-0.485
-0.415
-0.245
-0.01
0.33
0.745
1.115
1.285
1.195
0.965
0.705
0.535
0.455
0.4
0.27
0.16
0.08
0.005
-0.08
-0.18
-0.23
-0.235
-0.25
-0.295
-0.37
-0.43
-0.425
-0.405
-0.395
-0.405
-0.415
-0.44
-0.45
-0.45
-0.435
-0.43
-0.44
-0.44
-0.41
-0.415
-0.43
-0.48
-0.495
-0.475
-0.43
-0.43
-0.435
-0.445
-0.455
-0.445
-0.44
-0.445
-0.465
-0.445
-0.45
-0.46
-0.455
-0.455
-0.47
-0.47
-0.475
-0.46
-0.44
-0.45
-0.45
-0.45
-0.43
-0.43
-0.45
-0.48
-0.49
-0.47
-0.465
-0.475
-0.485
-0.455
-0.425
-0.43
-0.44
-0.455
-0.435
-0.415
-0.405
-0.41
-0.385
-0.385
-0.38
-0.375
-0.375
-0.385
-0.38
-0.355
-0.3
-0.28
-0.305
-0.32
-0.32
-0.3
-0.29
-0.255
-0.23
-0.23
-0.24
-0.255
-0.205
-0.175
-0.17
-0.165
-0.16
-0.145
-0.115
-0.08
-0.03
-0.01
-0.03
-0.045
-0.075
-0.125
-0.145
-0.11
-0.055
-0.04
-0.075
-0.155
-0.23
-0.24
-0.2
-0.15
-0.14
-0.175
-0.18
-0.18
-0.215
-0.305
-0.37
-0.375
-0.305
-0.275
-0.3
-0.325
-0.315
-0.29
-0.295
-0.3
-0.32
-0.325
-0.325
-0.295
-0.29
-0.315
-0.335
-0.365
-0.345
-0.315
-0.295
-0.315
-0.325
-0.34
-0.33
-0.305
-0.31
-0.33
-0.34
-0.335
-0.335
-0.325
-0.315
-0.31
-0.3
-0.305
-0.3
-0.295
-0.3
-0.31
-0.33
-0.365
-0.355
-0.34
-0.315
-0.315
-0.31
-0.295
-0.27
-0.235
-0.165
-0.15
-0.215
-0.345
-0.41
-0.375
-0.315
-0.295
-0.29
-0.29
-0.28
-0.295
-0.3
-0.305
-0.315
-0.305
-0.285
-0.26
-0.265
-0.28
-0.3
-0.295
-0.28
-0.26
-0.255
-0.255
-0.25
-0.26
-0.26
-0.265
-0.265
-0.275
-0.275
-0.26
-0.245
-0.24
-0.235
-0.245
-0.265
-0.29
-0.285
-0.27
-0.25
-0.235
-0.22
-0.235
-0.22
-0.2
-0.2
-0.225
-0.29
-0.34
-0.32
-0.255
-0.205
-0.215
-0.26
-0.29
-0.3
-0.275
-0.265
-0.245
-0.225
-0.215
-0.2
-0.18
-0.165
-0.17
-0.195
-0.23
-0.19
-0.115
-0.105
-0.185
-0.285
-0.33
-0.26
-0.21
-0.215
-0.255
-0.29
-0.28
-0.22
-0.14
-0.11
-0.125
-0.165
-0.22
-0.275
-0.265
-0.215
-0.17
-0.23
-0.3
-0.29
-0.195
-0.14
-0.15
