Lead II
-0.215
-0.235
-0.245
-0.25
-0.24
-0.255
-0.25
-0.25
-0.265
-0.25
-0.22
-0.225
-0.235
-0.235
-0.24
-0.255
-0.27
-0.3
-0.32
-0.335
-0.375
-0.395
-0.4
-0.415
-0.425
-0.425
-0.435
-0.435
-0.435
-0.44
-0.435
-0.43
-0.445
-0.435
-0.42
-0.42
-0.42
-0.43
-0.435
-0.43
-0.415
-0.41
-0.41
-0.43
-0.43
-0.41
-0.415
-0.4
-0.4
-0.41
-0.415
-0.405
-0.395
-0.39
-0.395
-0.39
-0.405
-0.39
-0.39
-0.375
-0.38
-0.39
-0.4
-0.385
-0.375
-0.365
-0.355
-0.365
-0.37
-0.36
-0.355
-0.36
-0.38
-0.39
-0.4
-0.395
-0.39
-0.365
-0.33
-0.265
-0.135
0.065
0.27
0.49
0.705
0.92
1.095
1.24
1.41
1.625
1.865
2.08
2.255
2.365
2.44
2.48
2.505
2.45
2.37
2.315
2.265
2.13
1.93
1.77
1.62
1.49
1.39
1.31
1.185
0.99
0.71
0.415
0.125
-0.22
-0.59
-0.92
-1.15
-1.235
-1.28
-1.295
-1.285
-1.29
-1.305
-1.275
-1.24
-1.21
-1.185
-1.16
-1.14
-1.115
-1.085
-1.065
-1.045
-1.025
-1.01
-0.98
-0.955
-0.94
-0.94
-0.94
-0.94
-0.935
-0.935
-0.935
-0.945
-0.965
-0.97
-0.97
-0.975
-0.98
-0.985
-1.015
-1.015
-1.005
-1.015
-1.015
-1.03
-1.035
-1.045
-1.045
-1.04
-1.045
-1.045
-1.07
-1.08
-1.075
-1.06
-1.05
-1.055
-1.07
-1.075
-1.065
-1.045
-1.035
-1.03
-1.025
-1.015
-1.005
-0.99
-0.97
-0.965
-0.945
-0.93
-0.91
-0.89
-0.85
-0.83
-0.815
-0.79
-0.755
-0.71
-0.68
-0.65
-0.655
-0.625
-0.575
-0.54
-0.495
-0.485
-0.47
-0.415
-0.385
-0.35
-0.32
-0.295
-0.28
-0.26
-0.22
-0.18
-0.17
-0.15
-0.14
-0.135
-0.115
-0.085
-0.075
-0.075
-0.08
-0.08
-0.07
-0.07
-0.07
-0.09
-0.08
-0.095
-0.095
-0.1
-0.1
-0.105
-0.11
-0.12
-0.13
-0.135
-0.145
-0.155
-0.155
-0.175
-0.185
-0.175
-0.195
-0.2
-0.215
-0.23
-0.24
-0.235
-0.245
-0.25
-0.265
-0.28
-0.27
-0.26
-0.245
-0.25
-0.25
-0.26
-0.255
-0.24
-0.245
-0.25
-0.27
-0.3
-0.295
-0.28
-0.265
-0.24
-0.245
-0.23
-0.245
-0.225
-0.235
-0.23
-0.255
-0.25
-0.25
-0.245
-0.25
-0.255
-0.27
-0.28
-0.27
-0.245
-0.22
-0.23
-0.25
-0.275
-0.285
-0.295
-0.325
-0.335
-0.365
-0.4
-0.41
-0.42
-0.425
-0.435
-0.44
-0.43
-0.435
-0.435
-0.425
-0.43
-0.43
-0.43
-0.425
-0.415
-0.42
-0.425
-0.42
-0.425
-0.42
-0.41
-0.395
-0.39
-0.4
-0.4
-0.4
-0.39
-0.39
-0.385
-0.385
-0.41
-0.395
-0.37
-0.365
-0.37
-0.365
-0.365
-0.35
-0.35
-0.345
-0.345
-0.355
-0.345
-0.345
-0.315
-0.315
-0.325
-0.34
-0.345
-0.335
-0.33
-0.335
-0.345
-0.355
-0.365
-0.31
-0.225
-0.075
0.125
0.355
0.585
0.805
1.0
1.16
1.305
1.505
1.755
2.005
2.23
2.405
2.485
2.55
2.57
2.555
2.515
2.465
2.375
2.215
2.025
1.87
1.735
1.615
1.525
1.425
1.29
1.055
0.735
0.385
0.005
-0.375
-0.725
-0.98
-1.12
-1.175
-1.225
-1.24
-1.23
-1.215
-1.2
-1.19
-1.165
-1.145
-1.11
-1.07
-1.03
-1.01
-0.99
-0.995
-0.975
-0.93
-0.895
-0.86
-0.865
-0.865
-0.86
-0.855
-0.845
-0.84
-0.85
-0.855
-0.865
-0.865
-0.88
-0.875
-0.895
-0.91
-0.925
-0.925
-0.915
-0.93
-0.945
-0.955
-0.98
-0.975
-0.97
-0.98
-0.985
-0.99
-1.005
-1.0
-0.995
-0.995
-1.005
-1.02
-1.025
-1.005
-0.995
-0.995
-0.98
-0.99
-0.985
-0.965
-0.955
-0.935
-0.935
-0.925
-0.91
-0.885
-0.85
-0.835
-0.805
-0.805
-0.775
-0.76
-0.725
-0.69
-0.665
-0.645
-0.63
-0.595
-0.54
-0.5
-0.475
-0.445
-0.425
-0.39
-0.335
-0.31
-0.285
-0.255
-0.235
-0.2
-0.155
-0.13
-0.13
-0.125
-0.11
-0.085
-0.06
-0.045
-0.035
-0.035
-0.03
-0.02
-0.01
-0.01
-0.025
-0.02
-0.04
-0.025
-0.02
-0.025
-0.045
-0.055
-0.07
-0.07
-0.065
-0.07
-0.085
-0.105
-0.125
-0.115
-0.12
-0.125
-0.135
-0.165
-0.175
-0.17
-0.165
-0.16
-0.165
-0.175
-0.185
-0.175
-0.165
-0.18
-0.19
-0.2
-0.2
-0.205
-0.19
-0.19
-0.195
-0.195
-0.195
-0.165
-0.16
-0.165
-0.17
-0.175
-0.185
-0.195
-0.2
-0.205
-0.2
-0.21
-0.22
-0.2
-0.18
-0.17
-0.175
-0.205
-0.23
-0.245
-0.275
-0.285
-0.315
-0.345
-0.365
-0.375
-0.375
-0.38
-0.38
-0.4
-0.395
-0.4
-0.405
-0.38
-0.39
-0.395
-0.4
-0.385
-0.38
-0.375
-0.375
-0.375
-0.37
-0.36
-0.365
-0.355
-0.36
-0.355
-0.365
-0.355
-0.355
-0.345
-0.345
-0.355
-0.355
-0.355
-0.345
-0.335
-0.33
-0.335
-0.335
-0.33
-0.32
-0.3
-0.31
-0.31
-0.335
-0.31
-0.31
-0.31
-0.335
-0.355
-0.365
-0.345
-0.285
-0.18
0.01
0.24
0.49
0.765
1.005
1.195
1.35
1.555
1.81
2.09
2.32
2.48
2.595
2.645
2.66
2.64
2.615
2.58
2.505
2.36
2.19
2.065
1.955
1.83
1.705
1.53
1.215
0.825
0.435
0.07
-0.31
-0.68
-1.0
-1.175
-1.245
-1.27
-1.28
-1.26
-1.245
-1.24
-1.22
-1.195
-1.15
-1.13
-1.09
-1.045
-1.025
-1.005
-1.0
-0.965
-0.935
-0.91
-0.885
-0.87
-0.865
-0.87
-0.865
-0.865
-0.86
-0.865
-0.88
-0.885
-0.91
-0.895
-0.895
-0.9
-0.92
-0.93
-0.95
-0.955
-0.94
-0.955
-0.975
-0.985
-1.0
-1.0
-1.0
-1.01
-1.015
-1.025
-1.035
-1.035
-1.02
-1.03
-1.04
-1.04
-1.04
-1.025
-1.015
-1.01
-1.005
-1.0
-0.995
-0.985
-0.955
-0.935
-0.935
-0.915
-0.905
-0.87
-0.835
-0.805
-0.8
-0.785
-0.75
-0.71
-0.67
-0.645
-0.61
-0.6
-0.57
-0.525
-0.5
-0.445
-0.425
-0.39
-0.375
-0.335
-0.305
-0.27
-0.24
-0.22
-0.19
-0.17
-0.14
-0.11
-0.1
-0.09
-0.08
-0.055
-0.05
-0.035
-0.04
-0.04
-0.03
-0.035
-0.02
-0.03
-0.03
-0.04
-0.04
-0.045
-0.04
-0.055
-0.06
-0.075
-0.085
-0.095
-0.09
-0.1
-0.115
-0.135
-0.155
-0.155
-0.16
-0.165
-0.175
-0.19
-0.2
-0.195
-0.195
-0.18
-0.185
-0.2
-0.185
-0.205
-0.195
-0.2
-0.2
-0.225
-0.24
-0.235
-0.225
-0.22
-0.22
-0.21
-0.21
-0.21
-0.205
-0.185
-0.2
-0.205
-0.225
-0.215
-0.21
-0.225
-0.225
-0.235
-0.235
-0.205
-0.195
-0.18
-0.195
-0.23
-0.255
-0.265
-0.285
-0.295
-0.315
-0.35
-0.38
-0.385
-0.38
-0.39
-0.395
-0.4
-0.405
-0.4
-0.415
-0.385
-0.38
-0.41
-0.405
-0.385
-0.38
-0.37
-0.375
-0.37
-0.385
-0.37
-0.37
-0.36
-0.37
-0.36
-0.37
-0.365
-0.35
-0.345
-0.345
-0.355
-0.355
-0.34
-0.33
-0.33
-0.335
-0.335
-0.33
-0.325
-0.32
-0.31
-0.31
-0.31
-0.295
-0.305
-0.29
-0.295
-0.32
-0.34
-0.37
-0.345
-0.32
-0.26
-0.15
0.0
0.235
0.49
0.75
0.985
1.185
1.35
1.545
1.81
2.055
2.28
2.435
2.54
2.605
2.65
2.66
2.615
2.585
2.54
2.43
2.285
2.155
2.04
1.905
1.77
1.62
1.43
1.11
0.715
0.305
-0.09
-0.485
-0.84
-1.09
-1.23
-1.295
-1.315
-1.3
-1.265
-1.25
-1.245
-1.23
-1.22
-1.175
-1.125
-1.075
-1.045
-1.035
-1.03
-1.01
-0.975
-0.935
-0.905
-0.88
-0.88
-0.88
-0.87
-0.86
-0.86
-0.87
-0.88
-0.91
-0.9
-0.895
-0.905
-0.925
-0.95
-0.955
-0.95
-0.945
-0.965
-0.97
-1.0
-1.0
-0.995
-1.0
-1.01
-1.015
-1.03
-1.04
-1.03
-1.04
-1.035
-1.03
-1.05
-1.055
-1.04
-1.035
-1.04
-1.04
-1.04
-1.04
-1.02
-1.015
-1.0
-0.985
-0.97
-0.955
-0.93
-0.905
-0.89
-0.865
-0.86
-0.835
-0.805
-0.765
-0.73
-0.705
-0.69
-0.66
-0.6
-0.575
-0.54
-0.51
-0.5
-0.47
-0.405
-0.365
-0.33
-0.31
-0.28
-0.255
-0.22
-0.195
-0.155
-0.14
-0.14
-0.12
-0.105
-0.08
-0.055
-0.05
-0.06
-0.06
-0.05
-0.035
-0.035
-0.04
-0.05
-0.055
-0.055
-0.065
-0.065
-0.08
-0.09
-0.11
-0.115
-0.1
-0.12
-0.135
-0.15
-0.185
-0.185
-0.18
-0.19
-0.205
-0.215
-0.23
-0.225
-0.21
-0.21
-0.215
-0.225
-0.24
-0.235
-0.24
-0.235
-0.245
-0.27
-0.28
-0.285
-0.26
-0.25
-0.23
-0.23
-0.235
-0.23
-0.225
-0.23
-0.235
-0.255
-0.26
-0.26
-0.255
-0.255
-0.27
-0.265
-0.26
-0.235
-0.225
-0.235
-0.265
-0.3
-0.33
-0.335
-0.345
-0.375
-0.41
-0.425
-0.44
-0.435
-0.43
-0.42
-0.435
-0.45
-0.465
-0.445
-0.435
-0.425
-0.44
-0.435
-0.425
-0.425
-0.415
-0.415
-0.41
-0.42
-0.43
-0.41
-0.405
-0.4
-0.405
-0.405
-0.42
-0.41
-0.395
-0.395
-0.385
-0.395
-0.395
-0.39
-0.38
-0.37
-0.385
-0.38
-0.38
-0.37
-0.36
-0.355
-0.355
-0.37
-0.38
-0.375
-0.375
-0.375
-0.405
-0.395
-0.38
-0.31
-0.19
0.015
0.24
0.47
0.705
0.94
1.125
1.275
1.47
1.7
1.945
2.17
2.33
2.41
2.455
2.465
2.41
2.345
2.285
2.195
2.005
1.81
1.655
1.53
1.425
1.325
1.215
0.995
0.685
0.38
0.075
-0.285
-0.645
-0.95
-1.14
-1.225
-1.265
-1.26
-1.265
-1.25
-1.25
-1.235
-1.205
-1.17
-1.14
-1.115
-1.095
-1.065
-1.04
-1.02
-1.0
-0.98
-0.96
-0.93
-0.905
-0.9
-0.895
-0.91
-0.915
-0.92
-0.905
-0.905
-0.92
-0.92
-0.93
-0.935
-0.935
-0.945
-0.965
-0.98
-0.99
-0.995
-0.985
-0.985
-0.995
-1.005
-1.005
-1.005
-1.0
-1.03
-1.025
-1.04
-1.04
-1.04
-1.035
-1.025
-1.045
-1.05
-1.045
-1.03
-1.015
-1.02
-1.02
-1.025
-1.02
-1.0
-0.98
-0.955
-0.95
-0.95
-0.935
-0.905
-0.88
-0.86
-0.85
-0.83
-0.81
-0.78
-0.755
-0.715
-0.705
-0.67
-0.65
-0.62
-0.58
-0.555
-0.53
-0.51
-0.49
-0.445
-0.43
-0.39
-0.37
-0.35
-0.33
-0.29
-0.255
-0.245
-0.235
-0.22
-0.19
-0.17
-0.14
-0.12
-0.105
-0.105
-0.12
-0.11
-0.105
-0.105
-0.1
-0.105
-0.12
-0.11
-0.115
-0.11
-0.135
-0.135
-0.15
-0.155
-0.15
-0.16
-0.18
-0.195
-0.21
-0.235
-0.225
-0.23
-0.25
-0.25
-0.27
-0.275
-0.28
-0.29
-0.285
-0.3
-0.3
-0.29
-0.285
-0.275
-0.28
-0.285
-0.295
-0.29
-0.29
-0.29
-0.305
-0.325
-0.345
-0.35
-0.315
-0.305
-0.295
-0.28
-0.285
-0.28
-0.265
-0.265
-0.285
-0.3
-0.31
-0.305
-0.305
-0.295
-0.32
-0.325
-0.315
-0.295
-0.27
-0.285
-0.295
-0.32
-0.355
-0.365
-0.375
-0.39
-0.43
-0.46
-0.475
-0.48
-0.48
-0.47
-0.47
-0.475
-0.485
-0.49
-0.48
-0.48
-0.48
-0.495
-0.485
-0.47
-0.455
-0.47
-0.46
-0.47
-0.48
-0.46
-0.455
-0.45
-0.45
-0.45
-0.455
-0.445
-0.43
-0.43
-0.42
-0.445
-0.435
-0.43
-0.415
-0.415
-0.42
-0.415
-0.425
-0.405
-0.4
-0.395
-0.395
-0.385
-0.395
-0.385
-0.38
-0.375
-0.385
-0.385
-0.395
-0.395
-0.39
-0.4
-0.4
-0.37
-0.285
-0.12
0.085
0.315
0.555
0.755
0.935
1.075
1.25
1.47
1.71
1.93
2.115
2.24
2.32
2.37
2.36
2.295
2.22
2.175
2.075
1.9
1.695
1.505
1.365
1.26
1.19
1.115
0.98
0.73
0.44
0.18
-0.11
-0.42
-0.725
-0.95
-1.095
-1.165
-1.2
-1.215
-1.225
-1.23
-1.22
-1.21
-1.195
-1.185
-1.15
-1.13
-1.095
-1.06
-1.03
-1.02
-1.015
-0.99
-0.97
-0.935
-0.9
-0.895
-0.885
-0.89
-0.89
-0.875
-0.88
-0.87
-0.88
-0.9
-0.915
-0.915
-0.895
-0.91
-0.93
-0.935
-0.945
-0.95
-0.95
-0.95
-0.96
-0.975
-0.99
-0.98
-0.98
-0.98
-0.99
-1.005
-1.01
-1.005
-1.005
-1.0
-0.995
-1.02
-1.035
-1.02
-1.01
-1.005
-1.01
-1.01
-1.015
-0.99
-0.975
-0.975
-0.97
-0.965
-0.945
-0.925
-0.92
-0.9
-0.88
-0.865
-0.855
-0.83
-0.79
-0.77
-0.765
-0.75
-0.74
-0.695
-0.665
-0.625
-0.605
-0.59
-0.565
-0.525
-0.495
-0.46
-0.44
-0.42
-0.395
-0.365
-0.33
-0.305
-0.28
-0.275
-0.26
-0.23
-0.195
-0.18
-0.165
-0.16
-0.145
-0.115
-0.11
-0.085
-0.075
-0.075
-0.065
-0.06
-0.04
-0.035
-0.05
-0.05
-0.07
-0.055
-0.05
-0.05
-0.075
-0.085
-0.095
-0.105
-0.095
-0.105
-0.125
-0.135
-0.14
-0.135
-0.135
-0.16
-0.175
-0.18
-0.215
-0.205
-0.195
-0.21
-0.21
-0.22
-0.22
-0.22
-0.2
-0.195
-0.21
-0.21
-0.22
-0.215
-0.2
-0.205
-0.23
-0.23
-0.235
-0.22
-0.205
-0.195
-0.195
-0.205
-0.21
-0.205
-0.2
-0.195
-0.215
-0.23
-0.24
-0.235
-0.22
-0.225
-0.22
-0.225
-0.21
-0.205
-0.2
-0.21
-0.24
-0.285
-0.31
-0.325
-0.335
-0.365
-0.4
-0.42
-0.43
-0.435
-0.415
-0.41
-0.435
-0.44
-0.43
-0.415
-0.41
-0.415
-0.42
-0.42
-0.43
-0.405
-0.395
-0.4
-0.395
-0.41
-0.41
-0.4
-0.375
-0.375
-0.39
-0.4
-0.385
-0.38
-0.37
-0.355
-0.365
-0.37
-0.37
-0.36
-0.35
-0.35
-0.345
-0.365
-0.36
-0.35
-0.33
-0.32
-0.315
-0.325
-0.335
-0.335
-0.33
-0.335
-0.35
-0.375
-0.4
-0.365
-0.31
-0.205
-0.02
0.21
0.455
0.7
0.935
1.105
1.25
1.45
1.71
2.0
2.215
2.36
2.455
2.51
2.54
2.535
2.495
2.465
2.41
2.295
2.11
1.955
1.825
1.71
1.585
1.455
1.275
0.985
0.62
0.25
-0.13
-0.51
-0.84
-1.085
-1.195
-1.24
-1.245
-1.255
-1.24
-1.22
-1.2
-1.19
-1.16
-1.13
-1.1
-1.065
-1.025
-1.01
-1.005
-0.99
-0.96
-0.92
-0.89
-0.875
-0.87
-0.865
-0.865
-0.86
-0.845
-0.855
-0.87
-0.885
-0.885
-0.885
-0.88
-0.9
-0.895
-0.91
-0.93
-0.93
-0.93
-0.93
-0.955
-0.965
-0.97
-0.98
-0.98
-0.99
-0.99
-1.005
-1.01
-1.015
-1.0
-1.015
-1.025
-1.03
-1.04
-1.025
-1.035
-1.025
-1.02
-1.025
-1.03
-1.015
-1.0
-1.005
-0.995
-0.99
-0.975
-0.955
-0.935
-0.925
-0.91
-0.89
-0.885
-0.845
-0.825
-0.79
-0.775
-0.76
-0.74
-0.7
-0.68
-0.645
-0.615
-0.6
-0.57
-0.525
-0.495
-0.47
-0.45
-0.42
-0.405
-0.36
-0.325
-0.295
-0.28
-0.265
-0.25
-0.215
-0.175
-0.165
-0.15
-0.135
-0.13
-0.11
-0.09
-0.08
-0.08
-0.065
-0.06
-0.045
-0.04
-0.045
-0.035
-0.055
-0.05
-0.06
-0.05
-0.055
-0.06
-0.075
-0.08
-0.07
-0.08
-0.075
-0.095
-0.11
-0.135
-0.13
-0.115
-0.13
-0.135
-0.16
-0.175
-0.19
-0.19
-0.185
-0.205
-0.21
-0.22
-0.22
-0.205
-0.21
-0.21
-0.215
-0.22
-0.215
-0.22
-0.215
-0.23
-0.245
-0.255
-0.25
-0.24
-0.23
-0.225
-0.225
-0.23
-0.21
-0.2
-0.2
-0.205
-0.22
-0.23
-0.225
-0.22
-0.23
-0.245
-0.25
-0.24
-0.24
-0.225
-0.215
-0.2
-0.205
-0.21
-0.21
-0.22
-0.26
-0.285
-0.295
-0.33
-0.345
-0.355
-0.375
-0.4
-0.405
-0.4
-0.395
-0.4
-0.405
-0.415
-0.415
-0.415
-0.42
-0.395
-0.39
-0.395
-0.405
-0.405
-0.395
-0.385
-0.38
-0.385
-0.385
-0.395
-0.375
-0.365
-0.365
-0.365
-0.37
-0.365
-0.355
-0.345
-0.345
-0.35
-0.355
-0.35
-0.335
-0.34
-0.335
-0.335
-0.35
-0.34
-0.33
-0.31
-0.315
-0.33
-0.34
-0.35
-0.35
-0.36
-0.35
-0.33
-0.27
-0.145
0.06
0.305
0.545
0.77
0.975
1.15
1.33
1.535
1.79
2.045
2.255
2.395
2.505
2.59
2.61
2.6
2.56
2.515
2.47
2.375
2.22
2.06
1.925
1.795
1.675
1.53
1.27
0.905
0.515
0.135
-0.25
-0.62
-0.945
-1.17
-1.275
-1.305
-1.29
-1.275
-1.255
-1.255
-1.255
-1.235
-1.195
-1.135
-1.085
-1.06
-1.035
-1.04
-1.01
-0.985
-0.945
-0.925
-0.905
-0.885
-0.88
-0.86
-0.845
-0.86
-0.87
-0.885
-0.88
-0.89
-0.88
-0.89
-0.91
-0.91
-0.92
-0.915
-0.93
-0.95
-0.965
-0.975
-0.955
-0.965
-0.98
-0.99
-1.0
-1.005
-1.0
-0.995
-0.995
-1.0
-1.03
-1.025
-1.015
-1.01
-1.025
-1.02
-1.035
-1.025
-1.01
-0.995
-0.99
-0.985
-0.985
-0.98
-0.96
-0.925
-0.91
-0.9
-0.88
-0.865
-0.825
-0.795
-0.77
-0.765
-0.75
-0.73
-0.685
-0.65
-0.615
-0.6
-0.58
-0.545
-0.51
-0.48
-0.45
-0.425
-0.405
-0.375
-0.34
-0.305
-0.28
-0.26
-0.245
-0.225
-0.2
-0.175
-0.15
-0.13
-0.125
-0.105
-0.085
-0.07
-0.055
-0.055
-0.055
-0.065
-0.05
-0.035
-0.04
-0.045
-0.05
-0.07
-0.055
-0.055
-0.065
-0.07
-0.08
-0.1
-0.095
-0.095
-0.105
-0.12
-0.145
-0.145
-0.15
-0.15
-0.165
-0.185
-0.195
-0.2
-0.2
-0.2
-0.195
-0.205
-0.205
-0.205
-0.2
-0.195
-0.195
-0.21
-0.22
-0.225
-0.23
-0.225
-0.235
-0.245
-0.255
-0.255
-0.23
-0.205
-0.205
-0.215
-0.215
-0.23
-0.225
-0.205
-0.215
-0.225
-0.235
-0.25
-0.245
-0.235
-0.24
-0.24
-0.23
-0.215
-0.21
-0.195
-0.2
-0.23
-0.24
-0.27
-0.285
-0.3
-0.31
-0.355
-0.375
-0.405
-0.405
-0.4
-0.4
-0.405
-0.41
-0.415
-0.41
-0.4
-0.405
-0.395
-0.405
-0.405
-0.4
-0.385
-0.385
-0.39
-0.405
-0.4
-0.38
-0.365
-0.365
-0.385
-0.38
-0.395
-0.38
-0.375
-0.365
-0.365
-0.375
-0.38
-0.365
-0.35
-0.35
-0.355
-0.355
-0.35
-0.34
-0.34
-0.35
-0.355
-0.34
-0.34
-0.325
-0.31
-0.31
-0.315
-0.33
-0.34
-0.335
-0.345
-0.35
-0.36
-0.365
-0.325
-0.235
-0.1
0.1
0.31
0.535
0.77
0.985
1.16
1.315
1.48
1.705
1.94
2.18
2.38
2.485
2.545
2.58
2.58
2.56
2.53
2.51
2.47
2.335
2.17
2.055
1.935
1.795
1.665
1.535
1.315
1.0
0.645
0.315
-0.005
-0.36
-0.71
-1.01
-1.185
-1.275
-1.3
-1.31
-1.305
-1.275
-1.25
-1.245
-1.255
-1.215
-1.195
-1.15
-1.115
-1.075
-1.055
-1.045
-1.04
-1.005
-0.97
-0.925
-0.92
-0.9
-0.895
-0.87
-0.87
-0.86
-0.865
-0.88
-0.895
-0.885
-0.895
-0.895
-0.92
-0.92
-0.935
-0.95
-0.94
-0.945
-0.95
-0.97
-0.985
-0.99
-0.985
-0.995
-1.01
-1.02
-1.015
-1.02
-1.035
-1.025
-1.035
-1.05
-1.06
-1.055
-1.025
-1.035
-1.045
-1.05
-1.045
-1.04
-1.025
-1.005
-1.005
-1.0
-1.01
-0.98
-0.965
-0.96
-0.945
-0.935
-0.935
-0.91
-0.88
-0.86
-0.855
-0.84
-0.82
-0.795
-0.755
-0.715
-0.715
-0.685
-0.675
-0.63
-0.6
-0.55
-0.535
-0.52
-0.5
-0.45
-0.42
-0.395
-0.37
-0.355
-0.325
-0.29
-0.255
-0.225
-0.22
-0.205
-0.195
-0.165
-0.14
-0.13
-0.12
-0.1
-0.095
-0.095
-0.07
-0.06
-0.08
-0.08
-0.09
-0.07
-0.07
-0.08
-0.085
-0.1
-0.12
-0.115
-0.115
-0.125
-0.135
-0.15
-0.17
-0.16
-0.155
-0.165
-0.185
-0.195
-0.205
-0.215
-0.215
-0.215
-0.23
-0.24
-0.255
-0.255
-0.24
-0.245
-0.255
-0.265
-0.265
-0.25
-0.245
-0.25
-0.265
-0.29
-0.29
-0.29
-0.28
-0.29
-0.31
-0.325
-0.325
-0.315
-0.3
-0.29
-0.3
-0.29
-0.29
-0.28
-0.28
-0.27
-0.275
-0.285
-0.31
-0.28
-0.29
-0.29
-0.305
-0.31
-0.31
-0.275
-0.265
-0.255
-0.245
-0.255
-0.265
-0.265
-0.28
-0.295
-0.335
-0.365
-0.4
-0.415
-0.435
-0.455
-0.46
-0.47
-0.47
-0.455
-0.44
-0.445
-0.455
-0.475
-0.48
-0.465
-0.455
-0.455
-0.465
-0.465
-0.47
-0.45
-0.43
-0.435
-0.44
-0.45
-0.44
-0.43
-0.415
-0.415
-0.425
-0.43
-0.435
-0.42
-0.415
-0.41
-0.4
-0.42
-0.42
-0.42
-0.41
-0.415
-0.415
-0.42
-0.42
-0.4
-0.385
-0.395
-0.39
-0.39
-0.39
-0.39
-0.37
-0.385
-0.38
-0.405
-0.405
-0.41
-0.4
-0.38
-0.345
-0.265
-0.115
0.09
0.31
0.53
0.735
0.915
1.04
1.17
1.375
1.6
1.84
2.02
2.155
2.255
2.315
2.32
2.265
2.17
2.085
1.98
1.82
1.605
1.415
1.255
1.11
1.04
0.955
0.76
0.47
0.19
-0.12
-0.41
-0.68
-0.915
-1.08
-1.17
-1.205
-1.21
-1.19
-1.185
-1.18
-1.18
-1.165
-1.13
-1.105
-1.075
-1.06
-1.045
-1.035
-1.005
-0.99
-0.955
-0.945
-0.92
-0.9
-0.89
-0.88
-0.87
-0.87
-0.885
-0.88
-0.88
-0.895
-0.895
-0.9
-0.91
-0.915
-0.91
-0.905
-0.92
-0.93
-0.93
-0.945
-0.945
-0.935
-0.935
-0.94
-0.96
-0.965
-0.97
-0.96
-0.97
-0.985
-1.005
-1.0
-0.985
-0.97
-0.975
-0.975
-0.98
-0.965
-0.955
-0.925
-0.925
-0.925
-0.925
-0.905
-0.885
-0.855
-0.835
-0.81
-0.8
-0.775
-0.75
-0.715
-0.68
-0.665
-0.635
-0.62
-0.595
-0.56
-0.525
-0.505
-0.485
-0.46
-0.43
-0.39
-0.38
-0.365
-0.33
-0.325
-0.295
-0.26
-0.25
-0.24
-0.225
-0.22
-0.185
-0.15
-0.14
-0.145
-0.15
-0.13
-0.12
-0.095
-0.095
-0.1
-0.11
-0.105
-0.1
-0.08
-0.095
-0.11
-0.12
-0.125
-0.13
-0.135
-0.13
-0.155
-0.175
-0.185
-0.19
-0.195
-0.205
-0.22
-0.24
-0.245
-0.24
-0.24
-0.245
-0.26
-0.275
-0.27
-0.245
-0.25
-0.265
-0.26
-0.27
-0.275
-0.275
-0.265
-0.26
-0.275
-0.285
-0.295
-0.28
-0.285
-0.275
-0.28
-0.27
-0.27
-0.255
-0.255
-0.255
-0.265
-0.285
-0.285
-0.285
-0.275
-0.285
-0.295
-0.3
-0.3
-0.285
-0.255
-0.25
-0.26
-0.28
-0.3
-0.315
-0.325
-0.34
-0.355
-0.395
-0.41
-0.425
-0.43
-0.435
-0.45
-0.445
-0.46
-0.44
-0.45
-0.45
-0.445
-0.445
-0.45
-0.44
-0.42
-0.42
-0.425
-0.43
-0.445
-0.44
-0.425
-0.415
-0.43
-0.43
-0.44
-0.425
-0.405
-0.405
-0.41
-0.41
-0.41
-0.4
-0.395
-0.38
-0.4
-0.4
-0.395
-0.375
-0.36
-0.36
-0.365
-0.37
-0.36
-0.34
-0.325
-0.325
-0.33
-0.345
-0.35
-0.345
-0.345
-0.36
-0.38
-0.385
-0.35
-0.275
-0.135
0.04
0.27
0.475
0.685
0.9
1.06
1.195
1.41
1.655
1.91
2.135
2.29
2.39
2.45
2.475
2.455
2.405
2.37
2.29
2.125
1.92
1.765
1.63
1.525
1.435
1.315
1.11
0.79
0.47
0.13
-0.225
-0.59
-0.88
-1.085
-1.155
-1.185
-1.18
-1.185
-1.185
-1.18
-1.165
-1.145
-1.1
-1.09
-1.055
-1.025
-0.985
-0.96
-0.94
-0.915
-0.89
-0.86
-0.835
-0.83
-0.83
-0.84
-0.845
-0.845
-0.84
-0.84
-0.86
-0.87
-0.875
-0.91
-0.89
-0.9
-0.9
-0.92
-0.925
-0.94
-0.945
-0.945
-0.94
-0.97
-0.98
-0.985
-0.98
-0.965
-0.97
-0.98
-0.995
-1.0
-0.99
-0.965
-0.975
-0.97
-0.965
-0.97
-0.95
-0.935
-0.925
-0.915
-0.9
-0.9
-0.88
-0.85
-0.835
-0.81
-0.785
-0.775
-0.73
-0.71
-0.67
-0.65
-0.63
-0.605
-0.57
-0.52
-0.49
-0.46
-0.445
-0.415
-0.38
-0.335
-0.3
-0.275
-0.245
-0.22
-0.19
-0.15
-0.135
-0.12
-0.1
-0.1
-0.085
-0.07
-0.06
-0.035
-0.06
-0.055
-0.035
-0.045
-0.04
-0.055
-0.055
-0.08
-0.065
-0.07
-0.08
-0.09
-0.11
-0.115
-0.12
-0.11
-0.125
-0.13
-0.155
-0.155
-0.16
-0.16
-0.175
-0.19
-0.205
-0.21
-0.215
-0.2
-0.2
-0.2
-0.215
-0.22
-0.225
-0.21
-0.205
-0.225
-0.25
-0.265
-0.26
-0.235
-0.225
-0.2
-0.21
-0.215
-0.21
-0.205
-0.19
-0.18
-0.2
-0.215
-0.2
-0.19
-0.2
-0.19
-0.19
-0.18
-0.165
-0.18
-0.185
-0.225
-0.255
-0.28
-0.29
-0.3
-0.325
-0.365
-0.375
-0.385
-0.38
-0.365
-0.365
-0.375
-0.39
-0.395
-0.395
-0.37
-0.365
-0.37
-0.375
-0.37
-0.35
-0.34
-0.34
-0.35
-0.36
-0.35
-0.345
-0.345
-0.345
-0.35
-0.34
-0.345
-0.34
-0.325
-0.34
-0.33
-0.345
-0.335
-0.325
-0.32
-0.32
-0.315
-0.325
-0.315
-0.31
-0.3
-0.295
-0.295
-0.3
-0.305
-0.305
-0.295
-0.305
-0.31
-0.325
-0.31
-0.265
-0.175
0.005
0.23
0.48
0.72
0.95
1.13
1.27
1.445
1.68
1.93
2.195
2.38
2.49
2.56
2.59
2.58
2.56
2.515
2.48
2.36
2.185
2.025
1.9
1.775
1.66
1.5
1.245
0.865
0.485
0.115
-0.255
-0.63
-0.94
-1.125
-1.2
-1.2
-1.185
-1.18
-1.165
-1.165
-1.165
-1.115
-1.075
-1.045
-1.025
-1.0
-0.97
-0.945
-0.915
-0.89
-0.865
-0.85
-0.825
-0.8
-0.795
-0.805
-0.81
-0.82
-0.815
-0.815
-0.82
-0.82
-0.84
-0.855
-0.86
-0.85
-0.855
-0.87
-0.895
-0.91
-0.915
-0.905
-0.92
-0.935
-0.94
-0.955
-0.95
-0.955
-0.95
-0.965
-0.97
-0.97
-0.96
-0.955
-0.955
-0.95
-0.955
-0.955
-0.935
-0.915
-0.9
-0.9
-0.885
-0.875
-0.84
-0.81
-0.79
-0.78
-0.76
-0.73
-0.695
-0.67
-0.655
-0.62
-0.6
-0.58
-0.535
-0.505
-0.47
-0.455
-0.435
-0.4
-0.355
-0.32
-0.3
-0.265
-0.255
-0.22
-0.19
-0.16
-0.145
-0.125
-0.12
-0.11
-0.08
-0.055
-0.025
-0.03
-0.04
-0.04
-0.02
-0.01
-0.01
-0.015
-0.03
-0.03
-0.015
-0.015
-0.03
-0.05
-0.055
-0.07
-0.07
-0.065
-0.085
-0.095
-0.11
-0.135
-0.135
-0.14
-0.13
-0.155
-0.17
-0.165
-0.185
-0.17
-0.165
-0.165
-0.18
-0.17
-0.165
-0.16
-0.16
-0.17
-0.185
-0.21
-0.225
-0.225
-0.23
-0.22
-0.235
-0.225
-0.21
-0.195
-0.205
-0.21
-0.22
-0.225
-0.205
-0.19
-0.195
-0.21
-0.215
-0.235
-0.22
-0.205
-0.185
-0.185
-0.18
-0.195
-0.2
-0.22
-0.23
-0.255
-0.295
-0.31
-0.325
-0.335
-0.345
-0.36
-0.37
-0.365
-0.36
-0.35
-0.375
-0.385
-0.385
-0.385
-0.365
-0.36
-0.36
-0.36
-0.375
-0.37
-0.35
-0.35
-0.345
-0.34
-0.355
-0.355
-0.35
-0.335
-0.33
-0.33
-0.335
-0.33
-0.315
-0.31
-0.31
-0.305
-0.305
-0.305
-0.295
-0.275
-0.29
-0.29
-0.3
-0.31
-0.3
-0.28
-0.275
-0.285
-0.305
-0.3
-0.295
-0.29
-0.315
-0.315
-0.335
-0.33
-0.3
-0.205
-0.065
0.125
0.35
0.58
0.815
1.04
1.21
1.365
1.57
1.83
2.065
2.29
2.415
2.505
2.55
2.57
2.565
2.54
2.515
2.465
2.35
2.195
2.07
1.95
1.825
1.68
1.535
1.26
0.905
0.525
0.145
-0.255
-0.635
-0.975
-1.17
-1.23
-1.24
-1.235
-1.22
-1.205
-1.195
-1.175
-1.135
-1.11
-1.07
-1.045
-0.995
-0.965
-0.95
-0.945
-0.935
-0.895
-0.865
-0.835
-0.825
-0.825
-0.835
-0.84
-0.83
-0.825
-0.85
-0.845
-0.86
-0.87
-0.865
-0.865
-0.87
-0.895
-0.91
-0.925
-0.93
-0.92
-0.93
-0.945
-0.95
-0.955
-0.96
-0.955
-0.955
-0.965
-0.985
-0.985
-0.98
-0.97
-0.98
-0.975
-0.985
-0.975
-0.97
-0.95
-0.955
-0.965
-0.95
-0.945
-0.915
-0.895
-0.88
-0.865
-0.87
-0.84
-0.805
-0.775
-0.745
-0.72
-0.695
-0.665
-0.62
-0.585
-0.545
-0.5
-0.485
-0.46
-0.41
-0.38
-0.34
-0.315
-0.3
-0.265
-0.245
-0.205
-0.18
-0.175
-0.16
-0.135
-0.105
-0.085
-0.065
-0.055
-0.05
-0.05
-0.03
-0.025
-0.005
-0.03
-0.025
-0.025
-0.03
-0.025
-0.025
-0.035
-0.05
-0.055
-0.055
-0.06
-0.07
-0.08
-0.105
-0.115
-0.125
-0.14
-0.14
-0.165
-0.18
-0.195
-0.195
-0.19
-0.195
-0.205
-0.205
-0.215
-0.21
-0.2
-0.21
-0.21
-0.225
-0.24
-0.235
-0.235
-0.25
-0.26
-0.26
-0.25
-0.235
-0.215
-0.205
-0.205
-0.22
-0.235
-0.215
-0.185
-0.185
-0.21
-0.22
-0.235
-0.23
-0.23
-0.23
-0.205
-0.2
-0.19
-0.2
-0.21
-0.23
-0.245
-0.275
-0.3
-0.31
-0.315
-0.335
-0.36
-0.38
-0.39
-0.37
-0.36
-0.365
-0.36
-0.37
-0.385
-0.365
-0.36
-0.36
-0.365
-0.38
-0.375
-0.36
-0.36
-0.365
-0.365
-0.385
-0.38
-0.36
-0.36
-0.36
-0.36
-0.365
-0.36
-0.355
-0.33
-0.335
-0.35
-0.35
-0.37
-0.335
-0.32
-0.31
-0.32
-0.325
-0.325
-0.315
-0.295
-0.29
-0.285
-0.295
-0.305
-0.305
-0.285
-0.295
-0.31
-0.34
-0.325
-0.32
-0.26
-0.155
0.005
0.205
0.445
0.695
0.9
1.075
1.225
1.41
1.635
1.88
2.1
2.275
2.365
2.415
2.46
2.475
2.42
2.365
2.31
2.225
2.055
1.88
1.735
1.615
1.485
1.38
1.225
0.965
0.645
0.31
-0.025
-0.395
-0.735
-0.985
-1.12
-1.17
-1.185
-1.195
-1.185
-1.155
-1.145
-1.135
-1.105
-1.09
-1.07
-1.02
-0.98
-0.97
-0.97
-0.955
-0.93
-0.89
-0.85
-0.84
-0.84
-0.825
-0.815
-0.805
-0.805
-0.8
-0.815
-0.825
-0.84
-0.835
-0.845
-0.835
-0.85
-0.875
-0.88
-0.875
-0.87
-0.88
-0.905
-0.915
-0.935
-0.925
-0.92
-0.93
-0.935
-0.95
-0.96
-0.96
-0.955
-0.955
-0.955
-0.965
-0.97
-0.96
-0.945
-0.95
-0.945
-0.94
-0.945
-0.915
-0.905
-0.895
-0.89
-0.89
-0.87
-0.845
-0.815
-0.805
-0.79
-0.785
-0.765
-0.735
-0.69
-0.67
-0.655
-0.64
-0.615
-0.575
-0.535
-0.51
-0.475
-0.46
-0.43
-0.395
-0.36
-0.335
-0.32
-0.29
-0.27
-0.23
-0.195
-0.185
-0.155
-0.15
-0.135
-0.11
-0.085
-0.07
-0.065
-0.065
-0.055
-0.04
-0.03
-0.03
-0.04
-0.045
-0.06
-0.04
-0.045
-0.055
